timestamp,emg1,emg2,emg3,emg4,emg5,emg6,emg7,emg8
1558434492997596,-1,-1,-4,-19,-11,-3,-1,-7
1558434492997596,1,2,6,13,18,11,1,2
1558434492998593,0,0,0,1,-3,-1,-4,1
1558434492998593,2,8,4,-4,3,5,4,2
1558434492998593,-8,-20,-9,0,-13,-13,-6,-2
1558434492998593,-3,-4,-7,-8,-7,-3,5,0
1558434493002583,-6,-5,-5,-6,-3,-1,-11,-11
1558434493002583,1,4,3,5,7,6,7,6
1558434493009564,5,7,6,4,8,5,7,5
1558434493009564,-2,-1,2,-4,-13,-16,-24,-9
1558434493021533,2,0,0,7,3,5,2,3
1558434493021533,-4,-7,-4,-3,-2,7,4,-6
1558434493032504,-2,2,4,2,7,1,12,5
1558434493032504,2,0,0,0,4,11,12,5
1558434493043474,-4,0,-2,-3,-3,4,5,-5
1558434493043474,-2,-5,-2,-4,-18,-23,-15,-4
1558434493047463,-2,-2,-1,4,7,1,-3,-2
1558434493047463,-2,2,1,-1,-7,-14,-1,-2
1558434493058433,1,-2,4,2,-2,-7,0,1
1558434493058433,-3,-3,3,6,3,7,4,-2
1558434493071399,-4,-5,-20,-14,-11,-5,-12,-10
1558434493071399,-3,-1,-7,-6,-9,-6,1,-2
1558434493079378,0,1,3,1,7,-2,5,4
1558434493079378,0,-1,-1,4,-1,-10,-15,-1
1558434493125255,-2,0,10,6,1,0,3,-2
1558434493125255,-2,-4,-10,-10,-3,1,-3,-3
1558434493126252,0,0,-2,-3,2,-4,2,2
1558434493126252,-1,0,-1,3,0,-2,-2,-3
1558434493127251,-1,0,-3,-10,-6,-3,-5,0
1558434493127251,6,1,4,3,0,0,-6,-2
1558434493130243,-11,-5,-1,-4,-7,-4,-2,-4
1558434493130243,-1,-2,-2,1,3,1,2,-2
1558434493139217,1,1,10,5,8,9,4,4
1558434493139217,0,-3,-4,4,-1,-1,-2,0
1558434493145202,1,-4,-18,-8,2,6,3,1
1558434493145202,2,0,2,0,-9,-12,-12,-5
1558434493161159,-2,-5,-6,-4,-6,-5,0,-6
1558434493161159,1,2,1,2,7,5,12,5
1558434493167143,4,2,10,6,5,5,2,2
1558434493167143,-3,0,1,-1,3,5,-10,-2
1558434493176119,2,0,-11,-4,-8,-3,0,0
1558434493176119,-2,-3,7,3,-5,-8,-1,-3
1558434493182102,3,3,0,-1,-4,-11,-5,2
1558434493182102,-3,-7,-7,-6,-3,-4,-8,-3
1558434493199056,-3,0,2,-5,-8,-2,-7,-3
1558434493199056,2,1,1,0,8,2,11,5
1558434493205046,-2,1,12,12,5,6,1,0
1558434493205046,5,0,-14,-19,-5,-3,-4,1
1558434493220999,-7,-6,-6,3,-3,-8,4,-3
1558434493220999,-3,-1,-1,-2,-3,-2,0,0
1558434493235959,-2,-7,-10,-5,-3,-5,-7,-2
1558434493235959,0,4,14,4,-1,-1,15,4
1558434493237953,-2,-3,-8,-4,0,1,6,0
1558434493237953,-3,-1,-3,-1,-3,-5,-12,-5
1558434493241943,4,4,6,4,6,16,10,5
1558434493241943,-2,-2,-5,-2,-1,-2,5,0
1558434493258897,-1,-2,-1,-7,-3,-4,-8,-3
1558434493258897,-3,-6,-8,3,2,-5,-4,-4
1558434493264881,0,2,6,-23,-9,6,-1,-4
1558434493264881,-1,1,6,6,3,5,2,0
1558434493280839,-2,-5,-11,0,2,-5,-5,-4
1558434493280839,-1,-4,-7,-8,-11,-12,-3,-3
1558434493286823,-4,-5,-8,6,0,-3,-5,-5
1558434493286823,-2,0,8,-2,-3,1,6,-1
1558434493295798,1,6,10,6,9,6,0,3
1558434493295798,-1,-2,-1,8,9,5,2,3
1558434493309761,-5,-3,-16,-11,-17,-7,-3,-8
1558434493309761,-2,-7,-10,-2,-3,-5,-11,-3
1558434493318737,2,2,1,-1,5,-6,-7,3
1558434493318737,-2,1,11,-5,-9,-7,-4,-3
1558434493324720,-4,-3,-5,5,2,-1,-5,-7
1558434493324720,-2,-3,-10,-4,-3,-2,-7,-5
1558434493340678,-1,0,5,-1,3,7,6,-3
1558434493340678,0,5,2,-3,-4,-5,-7,0
1558434493347660,9,-1,0,11,6,3,6,3
1558434493347660,-10,0,-1,-10,-6,-8,-1,-2
1558434493356637,-2,-4,3,0,-8,-9,-6,-7
1558434493356637,0,-3,-4,-3,6,9,6,4
1558434493362621,-4,2,11,7,5,4,-6,-3
1558434493362621,6,4,7,11,-1,-4,4,6
1558434493378579,-2,1,-6,-4,-2,-1,-2,3
1558434493378579,-3,-4,-4,-6,-9,-3,-4,-6
1558434493384568,-2,-3,7,5,-5,-6,-7,-2
1558434493384568,7,4,-9,-8,8,-1,12,10
1558434493401528,-2,-10,-20,-9,-2,3,-3,2
1558434493401528,1,9,0,-9,-6,-5,5,0
1558434493407500,-1,-4,8,3,9,2,9,4
1558434493407500,-7,-6,-4,5,5,8,-6,-6
1558434493416476,2,0,0,8,-4,-3,-2,4
1558434493416476,-1,-3,4,-4,-4,2,-6,1
1558434493429441,-3,1,0,-8,-8,-4,0,-2
1558434493429441,10,9,5,7,4,4,9,2
1558434493438416,-5,-9,-16,-10,-1,-5,2,4
1558434493438416,-2,-3,0,8,-3,3,-11,-9
1558434493444401,-8,0,-14,-13,-2,-2,9,2
1558434493444401,1,-4,-2,8,2,-1,-2,-5
1558434493461356,-7,4,14,7,-3,-3,-3,-5
1558434493461356,-8,-2,9,14,9,5,20,6
1558434493467339,-3,-5,-3,-6,-3,-5,-5,-1
1558434493467339,8,-7,-18,-6,-3,-2,-2,2
1558434493476315,6,6,16,1,-7,-4,-4,-5
1558434493476315,4,1,-25,4,6,-1,-3,6
1558434493489281,8,8,34,23,4,0,-8,-5
1558434493489281,-3,6,28,-7,-16,-11,-2,2
1558434493498257,-23,-21,-53,-5,8,10,10,-10
1558434493498257,-12,-11,-17,2,6,14,3,-4
1558434493505239,0,-17,-79,-22,-12,-14,2,5
1558434493505239,-2,-4,2,-1,-5,-1,-22,-6
1558434493521195,10,13,14,5,-1,-2,4,8
1558434493521195,-2,-12,-10,-7,2,-5,-2,0
1558434493527181,-15,-8,-11,-6,2,6,-6,-12
1558434493527181,-3,-4,-5,5,5,5,3,-4
1558434493536172,2,0,13,-9,-8,-5,1,0
1558434493536172,9,13,11,1,1,4,9,6
1558434493550118,5,2,2,-9,0,-6,-8,0
1558434493550118,-9,-7,-5,-7,-12,-13,-8,0
1558434493559095,1,3,18,6,5,3,-5,-5
1558434493559095,-2,0,13,5,0,-4,-6,-4
1558434493565077,3,9,12,7,4,5,14,1
1558434493565077,1,-2,6,8,6,3,4,3
1558434493581035,2,1,4,-12,1,5,-3,-3
1558434493581035,3,1,-6,-6,-1,3,-1,2
1558434493587019,4,2,17,12,9,0,-4,9
1558434493587019,-1,0,-1,1,1,-1,-1,-3
1558434493595996,2,1,10,9,5,-1,4,2
1558434493595996,-1,2,7,2,-7,-5,-8,-4
1558434493609958,1,0,15,-4,-7,3,11,4
1558434493609958,0,2,1,-6,6,7,10,0
1558434493618934,-3,-5,-11,-3,-9,-7,-17,-8
1558434493618934,-1,-1,1,-12,-1,0,4,-6
1558434493624917,1,2,0,16,15,3,3,1
1558434493624917,-5,-8,-5,-5,-8,0,-8,-7
1558434493640881,1,3,3,7,1,-1,12,5
1558434493640881,0,2,8,4,2,-6,-5,-3
1558434493646860,-4,-10,-38,-42,-26,-11,-9,-5
1558434493646860,-3,0,13,1,3,0,-6,-6
1558434493655836,1,1,2,4,1,1,0,1
1558434493655836,-2,-7,-13,-5,-8,-12,-9,-2
1558434493669797,5,12,29,27,11,8,14,3
1558434493669797,-4,-6,-26,-28,-9,-5,-3,-3
1558434493678774,-3,-8,-4,7,0,-3,3,0
1558434493678774,-2,3,8,-6,-9,-6,-9,-8
1558434493684758,-1,0,-2,-3,-4,4,-3,2
1558434493684758,2,0,-3,11,15,5,25,14
1558434493700715,4,1,2,-13,-10,-13,-6,0
1558434493700715,1,-5,-5,-5,1,-1,-4,-2
1558434493707697,-2,0,1,3,-7,-18,-14,-4
1558434493707697,-3,-1,12,6,-4,5,-12,-8
1558434493723653,2,4,0,-2,6,0,1,3
1558434493723653,-1,-1,-1,4,-2,-5,-3,0
1558434493729639,-3,0,10,-9,-7,-7,4,-4
1558434493729639,1,2,11,3,-7,1,-1,0
1558434493738614,-2,-5,-19,-12,8,6,8,4
1558434493738614,0,2,8,7,-1,-5,4,0
1558434493744598,2,-2,4,9,1,2,0,6
1558434493744598,-4,-9,-20,5,-2,-1,-7,-2
1558434493761553,2,4,21,7,7,1,-2,-2
1558434493761553,-4,2,-12,-17,-5,7,8,0
1558434493767537,6,-5,-6,3,6,-2,-5,3
1558434493767537,-10,0,-7,-1,7,5,18,3
1558434493776512,-2,5,-8,5,-7,-1,-14,-5
1558434493776512,2,-8,4,7,1,-2,-5,-3
1558434493789482,0,2,3,-8,-3,-1,0,-1
1558434493789482,2,1,-6,-2,-1,-7,-6,-2
1558434493798454,-3,-4,-11,-3,-2,2,-6,-7
1558434493798454,-2,1,1,-3,-2,2,5,2
1558434493804439,-4,0,-3,-19,-6,0,-9,-6
1558434493804439,3,-1,7,7,2,2,-1,-1
1558434493821393,-5,-3,-1,8,1,-5,-2,-3
1558434493821393,2,-4,-9,-18,-7,1,-3,4
1558434493827381,-3,-2,-1,4,-2,-6,-8,-5
1558434493827381,-2,-3,-8,-6,-6,-2,4,0
1558434493836356,-3,0,-1,-2,-2,-1,-2,-4
1558434493836356,1,1,8,12,0,-2,1,1
1558434493850316,-3,1,-1,13,7,4,-4,-5
1558434493850316,4,5,13,5,3,-3,1,1
1558434493858295,0,-5,-17,-32,-8,-5,7,4
1558434493858295,-3,-5,-4,17,3,8,4,-2
1558434493865276,-1,-1,-13,-23,-19,-18,-13,-2
1558434493865276,2,5,16,16,4,0,2,-5
1558434493881242,4,4,10,12,7,10,5,4
1558434493881242,-3,-4,-3,-11,0,-3,-6,-2
1558434493887219,-3,-6,-15,7,3,-1,6,-2
1558434493887219,-1,-3,-9,-11,-10,-9,-3,-2
1558434493896198,1,4,8,4,10,10,6,1
1558434493896198,-3,-7,-12,-4,-2,3,4,-3
1558434493910159,0,3,16,7,4,5,-1,0
1558434493910159,-1,-3,-14,-7,7,5,-10,0
1558434493919134,-4,-3,-7,-6,-14,-11,-16,-5
1558434493919134,0,2,4,4,5,-2,7,4
1558434493925118,-2,-1,2,-1,-5,1,-1,-3
1558434493925118,-1,1,0,-1,-8,-5,-8,0
1558434493941075,-1,-6,-15,-11,-1,3,3,1
1558434493941075,0,2,3,-5,-1,-1,-10,-6
1558434493947060,-1,-4,3,-1,0,-1,-1,-3
1558434493947060,3,2,2,5,9,5,11,5
1558434493956034,-2,-1,5,14,-1,-6,-3,-2
1558434493956034,1,2,4,0,-2,1,-1,0
1558434493969996,-1,3,1,0,6,5,-1,3
1558434493969996,-1,-1,7,0,-5,-1,2,0
1558434493978975,-1,-3,-14,-3,-6,-2,6,-1
1558434493978975,0,0,5,3,4,-1,5,2
1558434493984958,-6,-5,-11,-4,-6,-9,-7,-8
1558434493984958,-3,-4,-6,-5,-4,-3,-7,-5
1558434494000912,0,0,0,-16,-8,-9,4,0
1558434494000912,-1,1,3,1,-7,-4,-10,-6
1558434494006896,-4,-2,0,-7,-7,-1,-3,-3
1558434494006896,-1,1,-13,0,2,-4,5,2
1558434494015871,0,-4,2,-3,-8,-2,-10,0
1558434494015871,1,0,-4,7,6,8,10,0
1558434494029835,0,-2,-2,-2,5,0,-3,-1
1558434494029835,-2,-2,13,-1,-4,-3,-5,-4
1558434494038810,-1,-4,-5,4,0,-10,-8,1
1558434494038810,-2,-4,-5,-10,1,6,-3,1
1558434494044794,2,-1,-2,2,-9,-2,2,1
1558434494044794,-1,1,3,2,5,2,7,2
1558434494060757,-1,-3,-1,6,6,10,7,2
1558434494060757,2,4,8,0,-4,-12,-4,2
1558434494067739,-5,-10,-37,-38,-12,-1,-2,-5
1558434494067739,-10,-6,0,4,-8,-6,-11,-12
1558434494075942,0,0,5,-5,-1,1,6,0
1558434494075942,1,3,2,8,6,8,2,-3
1558434494089833,3,5,17,14,2,-1,8,8
1558434494089833,0,-2,-14,-9,-4,-4,-3,0
1558434494098652,-1,0,12,4,3,1,-14,-3
1558434494098652,1,3,11,8,2,5,19,5
1558434494112629,-2,-2,4,10,6,-4,-12,-5
1558434494112629,-3,-5,-13,-17,-8,-5,-1,-3
1558434494121595,-1,1,0,-15,-11,-6,-1,-2
1558434494121595,-1,0,3,8,1,-9,-13,0
1558434494136903,2,3,17,9,1,5,6,4
1558434494136903,2,1,5,-2,1,3,-1,1
1558434494137905,0,-1,0,4,1,5,3,0
1558434494137905,-2,0,-6,-3,0,-6,-5,2
1558434494150065,4,1,3,5,8,2,3,2
1558434494150065,-1,-2,8,0,-4,-2,-3,-1
1558434494158845,-2,-10,-16,-9,-12,-14,-20,-8
1558434494158845,-4,-1,-8,-4,-6,0,2,-7
1558434494172803,-3,3,7,13,9,13,12,0
1558434494172803,0,-1,2,-2,-5,0,-9,-5
1558434494180775,0,-1,-13,6,2,1,3,1
1558434494180775,0,-2,10,-12,4,-4,0,-1
1558434494195734,4,2,-4,-4,-3,-5,-12,0
1558434494195734,-2,-3,-11,-8,-4,4,4,-3
1558434494197730,-1,3,12,17,2,3,4,-2
1558434494197730,0,-1,-1,-7,-6,-6,-5,-2
1558434494209709,-2,-2,-6,5,16,24,27,0
1558434494209709,-1,-2,-14,9,8,-2,-1,4
1558434494218675,-2,-4,-19,-17,-1,-2,11,-4
1558434494218675,-1,2,9,-4,-10,-6,0,1
1558434494241619,-3,-6,0,2,-12,-19,-23,-3
1558434494241619,3,4,3,8,9,8,14,7
1558434494242609,1,1,8,9,3,4,2,0
1558434494242609,-9,-11,-22,-11,-8,-7,-14,-14
1558434494256710,1,2,11,2,5,5,11,1
1558434494256710,0,1,4,0,-8,-10,-12,-4
1558434494257574,-1,0,4,9,6,0,0,2
1558434494257574,0,-3,-5,-14,-9,-4,-2,1
1558434494270535,-1,0,4,-7,-9,-10,-20,-2
1558434494270535,-1,-4,-17,6,6,7,4,-1
1558434494278512,-2,-1,8,-18,-6,2,-9,-9
1558434494278512,2,0,3,14,9,6,4,4
1558434494292606,0,4,-8,-3,-3,-9,7,2
1558434494292606,-3,-1,12,0,1,0,-11,-3
1558434494301453,2,3,16,13,-7,-5,2,5
1558434494301453,-1,-4,-9,-4,4,7,6,3
1558434494316521,0,-1,7,-5,2,2,7,1
1558434494316521,-2,-5,-13,-18,-12,-9,-6,-3
1558434494317417,2,-2,1,14,12,7,14,2
1558434494317417,2,6,18,13,-9,-13,-7,0
1558434494329377,-10,-10,-31,-32,-11,-4,-7,-6
1558434494329377,-1,-1,4,0,5,4,6,1
1558434494338563,-3,-2,0,-11,-1,-6,3,-1
1558434494338563,0,-6,-24,-1,2,3,-3,-1
1558434494352326,0,-2,-3,4,-2,-5,5,-2
1558434494352326,-2,3,9,8,-3,2,-1,-5
1558434494361292,-5,-7,-18,-15,-7,-8,-10,-4
1558434494361292,-2,-2,3,1,3,1,-3,0
1558434494376251,-2,-4,-6,1,-4,-5,-11,-4
1558434494376251,0,2,3,-4,2,-1,5,-3
1558434494377256,2,2,4,7,2,1,-2,2
1558434494377256,-5,-4,-4,-4,-4,2,0,-5
1558434494390423,2,-1,5,0,-1,2,-1,1
1558434494390423,0,0,0,6,5,1,11,5
1558434494399193,3,3,3,5,2,0,-1,2
1558434494399193,-2,2,-6,-13,-6,-4,-8,-1
1558434494412156,-4,-5,-3,-2,-4,1,1,-4
1558434494412156,1,3,12,6,-1,-11,-9,-2
1558434494421242,4,4,9,9,3,4,-6,4
1558434494421242,-1,-7,-25,-22,-1,4,9,0
1558434494452089,0,-1,5,-3,-4,-6,-3,-1
1558434494452089,-3,-1,5,-8,-6,-5,-8,-2
1558434494453048,-4,-5,-10,0,1,-2,-3,-6
1558434494453048,-2,0,12,7,2,-3,3,-2
1558434494454046,2,2,4,0,-7,1,0,2
1558434494454046,-1,-1,-3,-3,-3,-7,-7,-1
1558434494459031,-7,-6,-13,2,-2,5,-9,-4
1558434494459031,-3,-6,-13,-21,-3,4,-1,-2
1558434494473051,3,6,11,9,8,-5,3,5
1558434494473051,1,-3,-11,4,-3,-4,-12,0
1558434494481170,-2,-1,2,-6,5,5,15,2
1558434494481170,2,-1,0,6,5,7,5,4
1558434494495932,-2,0,3,7,4,1,-1,-5
1558434494495932,0,-4,-1,-16,-7,-5,-1,2
1558434494497926,-3,-2,1,0,-2,2,0,-3
1558434494497926,-6,-1,5,2,-10,-13,-4,-6
1558434494510176,3,3,2,1,5,10,8,6
1558434494510176,0,-4,-11,6,5,2,-8,-2
1558434494518872,-2,-1,0,0,-6,-7,-1,1
1558434494518872,-3,-6,-22,-17,2,7,1,3
1558434494533064,-3,-5,-8,-4,-6,-7,2,-1
1558434494533064,-2,-1,-1,-3,0,7,7,-2
1558434494541032,1,-1,0,0,-1,0,-6,2
1558434494541032,3,5,10,14,-2,-14,-6,-2
1558434494556903,-4,-2,2,-4,-3,2,3,-3
1558434494556903,0,-1,-10,-6,-3,-2,5,-2
1558434494557769,-3,-2,-3,-10,-6,-6,-9,-6
1558434494557769,1,2,9,8,11,11,6,3
1558434494569773,-1,-2,-5,-1,4,3,-1,2
1558434494569773,-4,-1,0,1,-9,-9,-3,0
1558434494586690,-1,3,6,-2,0,2,2,-2
1558434494586690,0,-3,-6,0,-2,0,-16,-3
1558434494592676,0,-2,-4,5,-2,-6,-8,-4
1558434494592676,2,0,2,5,12,10,6,0
1558434494601648,1,4,-2,-17,-10,-7,-2,-2
1558434494601648,-2,-2,0,0,-2,-2,3,0
1558434494616608,2,-1,-1,4,0,-1,-3,-1
1558434494616608,0,2,3,1,4,0,0,-1
1558434494617606,1,-2,1,3,10,8,12,4
1558434494617606,-2,-4,0,-3,-1,-2,-8,-5
1558434494629612,0,3,13,5,1,6,7,-3
1558434494629612,-1,0,-9,-7,-4,-3,-1,-1
1558434494638993,1,3,6,9,4,0,0,3
1558434494638993,0,-1,-3,3,-5,-5,-5,-1
1558434494652541,-4,0,2,5,4,5,-8,-2
1558434494652541,-4,-7,0,0,-2,1,-3,-4
1558434494667473,-6,-4,-8,-5,0,-5,-9,-7
1558434494667473,-1,2,12,4,-10,-8,0,1
1558434494675895,-1,-6,-27,-9,-4,-5,-10,-1
1558434494675895,2,3,8,1,-3,3,8,-1
1558434494682871,-3,-6,-9,-6,4,3,-5,0
1558434494682871,3,2,12,6,3,-8,10,2
1558434494690701,0,-1,3,-9,-10,-11,-8,-3
1558434494690701,1,-2,-8,-4,-6,3,0,2
1558434494705530,-1,-2,-3,2,3,-2,2,3
1558434494705530,5,4,10,7,8,-1,6,7
1558434494712283,-1,0,-14,-13,4,2,5,5
1558434494712283,-4,-2,2,1,-9,-7,-12,-4
1558434494721262,2,1,5,-3,-10,-1,8,0
1558434494721262,-3,-2,-14,-7,-8,-7,-4,-5
1558434494736228,-5,-2,5,11,0,-5,-9,-9
1558434494736228,1,2,4,-9,6,7,0,3
1558434494742426,0,-4,-18,-9,2,1,14,6
1558434494742426,-4,-4,6,-3,-9,-4,-8,-8
1558434494750379,1,1,-5,1,3,-1,4,3
1558434494750379,-2,-1,-1,6,-1,-6,0,-2
1558434494759171,1,1,10,-1,-4,1,-14,-4
1558434494759171,-1,1,0,-7,7,6,3,-1
1558434494773124,-3,-2,4,11,5,6,7,-2
1558434494773124,-2,-3,-3,-4,-7,1,1,-6
1558434494781166,1,2,-2,3,5,6,6,3
1558434494781166,2,1,4,-3,1,-4,-1,0
1558434494796074,-4,-6,-8,-8,-9,-1,-6,-6
1558434494796074,-2,-4,-2,-1,-4,-9,-4,0
1558434494802047,2,3,2,5,-3,-12,-7,0
1558434494802047,-4,-5,-12,-3,-3,6,-1,-3
1558434494810222,-2,2,5,4,1,-2,0,1
1558434494810222,0,-1,-3,-12,1,8,3,-1
1558434494818999,-6,-6,-7,-4,-1,-7,-9,-7
1558434494818999,-3,-1,-2,-1,3,7,-2,1
1558434494832961,1,4,8,0,-1,2,2,0
1558434494832961,0,3,9,9,14,11,22,3
1558434494841213,-2,-1,6,10,-1,-1,2,-5
1558434494841213,-2,-4,1,-5,-5,-7,-8,-5
1558434494855898,-3,-6,-11,-9,-2,2,-3,-5
1558434494855898,0,4,8,1,-1,-9,-14,-4
1558434494861885,4,0,6,7,0,-7,2,3
1558434494861885,1,2,-5,-13,-4,0,-2,2
1558434494878839,-2,-4,-5,-4,-4,1,12,6
1558434494878839,-6,-3,2,1,-1,-8,-4,-3
1558434494880067,-3,-2,2,4,-9,-7,-6,-5
1558434494880067,-1,0,-1,5,1,2,-1,0
1558434494893008,1,-4,-10,-8,-2,-11,-5,0
1558434494893008,-5,-7,-10,-3,-7,-4,-4,-5
1558434494901827,-1,0,2,1,2,4,1,1
1558434494901827,4,0,3,1,6,6,7,2
1558434494916043,-3,-3,3,0,-7,-3,-9,-5
1558434494916043,-2,-3,-22,-6,-3,1,-3,0
1558434494923000,3,3,18,4,2,-6,-6,0
1558434494923000,0,2,2,0,1,2,1,2
1558434494940677,0,-2,1,10,5,-2,15,2
1558434494940677,1,2,2,-7,-9,-5,-5,-2
1558434494952643,0,-2,-14,-10,4,11,3,1
1558434494952643,0,2,3,-4,-3,-1,-5,0
1558434494953640,-1,3,10,5,0,-1,0,-1
1558434494953640,-5,-5,0,3,-2,1,-3,-8
1558434494961619,-5,-6,-11,-4,-4,-1,-10,-7
1558434494961619,0,-2,-17,1,-1,-11,1,4
1558434494975784,-1,0,4,-3,3,1,-1,1
1558434494975784,1,1,7,4,-2,-3,-1,1
1558434494982778,-5,-6,-8,-8,-11,-2,-17,-10
1558434494982778,-2,-2,-4,7,4,3,5,0
1558434495000977,2,-1,-5,0,-3,-7,-13,3
1558434495000977,3,2,8,-12,6,7,7,9
1558434495000977,-1,1,-4,-3,-5,-5,2,1
1558434495000977,-6,-9,-11,-6,-8,-5,-5,-7
1558434495012480,1,0,0,8,12,7,-1,2
1558434495012480,0,1,0,2,-1,-3,-3,1
1558434495028441,0,-1,-5,-5,1,3,6,0
1558434495028441,-1,-5,0,-3,-9,-6,-11,-4
1558434495035420,-2,-3,9,0,-7,-5,-13,-5
1558434495035420,3,1,-10,-6,11,6,2,6
1558434495049386,2,0,6,7,7,-3,3,0
1558434495049386,-2,-3,-12,-6,-7,0,2,-2
1558434495058386,-3,-1,3,-4,-4,0,0,-4
1558434495058386,-1,-1,-7,-7,-6,-6,2,-2
1558434495060355,-1,1,-4,-9,0,-4,-1,-1
1558434495060355,1,0,7,5,1,-4,-3,0
1558434495072322,-1,1,0,2,3,15,10,-2
1558434495072322,4,7,18,9,14,1,5,10
1558434495081295,-3,-1,-2,-3,-4,1,-1,-5
1558434495081295,-2,-3,4,4,10,11,8,0
1558434495104368,1,3,-2,1,-2,-8,-4,2
1558434495104368,-1,-3,1,8,4,3,-3,-2
1558434495105232,-2,0,11,3,-10,-4,-7,-3
1558434495105232,-6,-1,-2,-18,-14,-10,-9,-8
1558434495119195,1,-1,-7,6,4,-2,4,5
1558434495119195,-4,-6,-10,-11,-10,-3,-6,-7
1558434495125411,1,0,1,5,6,-4,4,4
1558434495125411,2,2,-1,9,10,9,2,-1
1558434495132497,-1,-6,-4,-5,-3,-5,-3,-3
1558434495132497,-1,-1,-3,-3,-3,-7,1,-3
1558434495141198,-1,-4,-7,-3,-2,-5,-5,-2
1558434495141198,0,3,6,4,3,-4,-3,1
1558434495156358,-1,-1,2,-7,-14,-6,-11,-3
1558434495156358,-5,-7,-23,4,-7,1,5,2
1558434495162080,3,3,0,-5,18,22,18,13
1558434495162080,-1,-4,1,6,10,8,16,4
1558434495179038,-3,-1,-4,-5,0,-2,6,3
1558434495179038,-1,0,1,-1,-4,-3,-3,-5
1558434495180032,-3,-6,-11,-3,-12,-8,-9,-7
1558434495180032,0,2,12,13,7,-1,-3,2
1558434495192999,3,0,-19,-8,-10,-5,-5,-1
1558434495192999,1,1,10,-8,-7,-3,-9,-3
1558434495200977,-1,-2,-13,-17,-4,-8,10,3
1558434495200977,0,4,10,1,6,8,-4,-3
1558434495216115,-2,-1,5,3,-3,-1,8,-2
1558434495216115,2,4,5,4,5,1,2,4
1558434495230170,-1,-3,0,4,-7,-6,-4,-3
1558434495230170,-1,-2,-8,-3,-9,-9,-3,-2
1558434495238879,-3,0,2,-5,-1,0,-6,-4
1558434495238879,-6,-7,-19,4,-1,-1,3,-2
1558434495239872,-2,0,15,-1,-2,-1,-5,-1
1558434495239872,-2,-3,-20,-16,-10,-14,-7,-4
1558434495251838,-2,-4,9,6,15,15,9,3
1558434495251838,0,-1,2,5,1,-7,-2,1
1558434495260819,-3,-5,-8,3,1,2,-5,-2
1558434495260819,1,-3,-10,-14,-12,1,-1,2
1558434495275803,0,2,10,0,0,-3,-3,-2
1558434495275803,-2,2,2,2,-6,-4,-4,-2
1558434495281760,-2,-1,4,1,3,4,-3,-1
1558434495281760,-4,-6,-3,0,-13,-17,-19,-8
1558434495307083,0,-1,-6,-5,-1,13,6,0
1558434495307083,3,3,13,2,5,-5,12,6
1558434495308688,-5,-4,-6,5,0,5,1,-4
1558434495308688,-1,0,2,0,10,5,9,6
1558434495312682,-1,2,-1,-1,-3,-10,-6,-1
1558434495312682,0,-2,0,5,3,7,-4,-3
1558434495321654,1,1,-4,-7,-8,-8,-1,0
1558434495321654,-1,0,12,0,0,2,-1,-3
1558434495335795,-4,-6,-9,1,-11,-11,-17,-7
1558434495335795,-2,0,2,7,5,8,6,2
1558434495343104,7,9,15,6,19,16,12,8
1558434495343104,-5,-5,-8,-6,0,3,4,-1
1558434495359049,-4,-1,0,0,4,-2,-7,-4
1558434495359049,2,2,7,-2,-6,-9,-7,-2
1558434495360869,-6,-6,-13,-2,-12,-12,-11,-6
1558434495360869,0,0,2,9,12,21,15,0
1558434495372907,0,-2,-6,-8,0,1,1,0
1558434495372907,-2,-8,-16,-3,3,0,-10,-2
1558434495381496,1,-2,-30,-14,-7,-5,16,6
1558434495381496,-1,-1,1,-3,-10,-8,-8,-4
1558434495396807,-4,-4,-7,1,-1,-1,-5,-4
1558434495396807,-2,-4,-2,1,-3,-1,-4,-6
1558434495402764,-4,-3,2,-2,-2,-4,-5,-4
1558434495402764,3,0,-7,-1,-3,-11,-1,2
1558434495419477,1,4,11,5,5,7,0,0
1558434495419477,1,1,-1,-2,-4,1,1,-2
1558434495420390,-3,-4,2,-2,5,7,-9,-2
1558434495420390,-1,-2,2,8,3,-4,-2,0
1558434495432636,0,0,-3,-17,-7,-2,2,-2
1558434495432636,-1,-6,-20,-14,-4,-9,-6,-3
1558434495441336,0,-1,12,3,-3,-5,-6,-3
1558434495441336,-4,0,2,6,-2,7,-10,-7
1558434495455295,-4,-4,-15,-13,-7,-7,2,-1
1558434495455295,3,4,8,6,16,9,5,6
1558434495462278,0,-1,-2,0,-3,3,6,1
1558434495462278,-1,-2,-10,4,1,-6,0,1
1558434495478235,0,0,9,7,7,6,3,0
1558434495478235,-3,-2,1,-9,-8,4,0,-1
1558434495480229,0,1,14,6,3,-4,0,-2
1558434495480229,-1,-1,-3,-1,-5,-10,-17,-1
1558434495492538,-2,-2,-7,-6,-21,-16,-18,-6
1558434495492538,-2,0,1,-9,10,17,22,5
1558434495501173,-3,-4,-15,-4,-3,-6,-3,-2
1558434495501173,4,0,3,0,4,4,1,5
1558434495516315,1,0,1,-3,0,-8,7,5
1558434495516315,-1,1,4,8,1,0,-3,-1
1558434495522459,-1,-1,6,3,-1,-2,-4,-2
1558434495522459,-3,-2,-12,4,3,5,7,4
1558434495539070,-2,0,3,-7,0,3,5,0
1558434495539070,-4,-5,2,-1,-11,-8,-9,-6
1558434495540070,-1,0,-3,-4,-5,-2,-1,-4
1558434495540070,-2,1,4,8,6,6,-1,-4
1558434495552037,0,-3,-1,5,7,4,12,7
1558434495552037,-2,-2,0,-12,-3,2,2,-4
1558434495561012,-1,-4,-2,2,-2,0,-2,-1
1558434495561012,-1,-1,4,-2,-1,-6,-2,-4
1558434495575025,1,2,9,7,4,3,0,0
1558434495575025,0,1,-2,3,-4,-12,-6,-1
1558434495581983,0,-1,-1,5,3,4,-2,3
1558434495581983,-1,0,-3,-10,-5,-1,-1,-2
1558434495598911,-1,-3,9,4,-5,-4,-7,-8
1558434495598911,-7,-3,-11,-17,-12,-1,-8,-9
1558434495599908,-1,-1,-1,4,1,5,4,1
1558434495599908,3,3,9,4,8,9,13,9
1558434495621994,1,2,-4,3,7,-3,3,6
1558434495621994,-1,-2,-2,0,-4,-6,-1,-1
1558434495623328,-1,-3,-2,-3,4,1,-2,-3
1558434495623328,-2,-4,-1,-7,-2,0,-3,-3
1558434495634814,1,-1,-3,7,-1,-1,-5,1
1558434495634814,1,3,14,-9,-11,-6,-4,-3
1558434495643790,-2,-3,-8,-3,-11,-8,-6,-1
1558434495643790,-1,0,12,2,0,6,-4,-2
1558434495657753,1,-3,-16,1,3,0,5,2
1558434495657753,1,-2,2,9,12,4,7,4
1558434495664735,1,5,13,6,11,0,5,4
1558434495664735,-4,-2,0,-5,-18,-13,-9,-4
1558434495671719,-5,-1,6,8,2,4,0,-3
1558434495671719,0,-5,-10,0,1,4,-3,-1
1558434495681038,-1,-2,-7,-17,-3,-9,-3,-1
1558434495681038,-4,-5,-9,-1,-6,3,2,-3
1558434495694656,-3,0,-3,-8,-8,-7,-4,-3
1558434495694656,4,3,3,6,1,1,3,3
1558434495710051,-1,0,5,8,6,8,-3,-3
1558434495710051,0,-3,-11,-11,2,-5,6,3
1558434495718052,3,0,1,-1,1,-5,0,3
1558434495718052,0,-4,2,7,0,-5,-11,0
1558434495725039,-3,-1,-4,-1,-9,-8,-3,-4
1558434495725039,1,0,-9,-2,0,1,-1,-2
1558434495732865,-1,-1,4,5,4,-2,1,-1
1558434495732865,-2,-2,-3,-7,-5,-2,-2,0
1558434495741779,0,0,3,4,-4,-4,-11,-3
1558434495741779,-2,-6,-10,-11,-13,-5,3,-6
1558434495754821,-1,-2,-2,6,4,5,3,1
1558434495754821,6,4,-7,2,23,23,20,13
1558434495763793,-2,-1,9,9,6,2,3,-4
1558434495763793,0,2,2,-15,-11,-7,-6,0
1558434495778431,-2,-3,-3,-11,-12,-7,-10,-5
1558434495778431,-2,-2,-15,-2,-4,-8,-4,-2
1558434495784462,-2,-4,4,1,1,2,4,1
1558434495784462,2,1,1,15,7,2,-4,0
1558434495801640,-5,-6,-10,-18,-13,-3,-9,-7
1558434495801640,-3,-2,5,-2,-7,-2,1,-5
1558434495802367,4,2,-8,1,7,6,14,5
1558434495802367,0,1,-2,-1,2,1,5,1
1558434495815570,0,-1,-2,0,1,-1,2,2
1558434495815570,-1,0,3,8,-2,-7,-8,-2
1558434495823602,-2,0,-4,-7,-10,-6,-5,-4
1558434495823602,-3,-2,7,10,8,3,4,-1
1558434495838569,3,4,13,0,3,4,-5,-2
1558434495838569,-4,-5,-18,-17,-6,-4,-1,-2
1558434495845252,-3,-2,4,-5,-12,-7,-17,-5
1558434495845252,-2,-3,-9,3,0,9,6,0
1558434495861210,3,3,6,5,13,4,4,9
1558434495861210,-2,-1,12,7,-1,-4,-3,-3
1558434495862207,-2,-2,-7,-18,-6,-3,-2,1
1558434495862207,0,-1,3,2,-1,-5,-5,-2
1558434495875439,-4,-5,-5,0,-4,3,-3,-3
1558434495875439,1,-1,-9,-4,-5,-2,-9,-1
1558434495884150,3,3,8,-3,8,2,4,5
1558434495884150,-2,-2,3,0,-3,-1,2,-5
1558434495898368,-6,-5,-9,-13,-15,-12,4,-10
1558434495898368,-1,0,0,8,1,-4,-11,-4
1558434495905354,1,-4,-1,-14,0,0,12,5
1558434495905354,1,0,-18,-1,2,-1,-4,3
1558434495921073,-2,-3,3,5,9,6,-2,1
1558434495921073,-2,-1,5,2,-7,-5,0,-3
1558434495927065,-3,-1,3,12,-3,-1,-6,-6
1558434495927065,0,2,7,-12,-1,-5,-8,-3
1558434495935024,1,-4,-12,-9,-7,-5,-3,2
1558434495935024,-3,-3,-5,-5,1,4,-1,-4
1558434495943988,1,3,-7,6,5,7,7,2
1558434495943988,-2,-3,6,6,2,5,6,1
1558434495958309,-2,1,-1,2,-2,4,-3,-1
1558434495958309,1,1,-3,-8,2,-4,6,2
1558434495965270,0,0,-2,3,-3,-4,-3,2
1558434495965270,0,-3,-3,-3,-2,-6,-6,-2
1558434495982234,-1,1,2,-3,-2,1,-1,-2
1558434495982234,-1,-4,7,13,-3,-1,-3,-3
1558434495983882,-7,-5,-21,-21,-19,-17,-24,-13
1558434495983882,-3,-5,-10,-6,7,14,6,0
1558434495994852,4,4,14,10,16,1,12,11
1558434495994852,0,-1,-5,-6,-2,-5,-4,0
1558434496003829,-3,-1,-1,9,6,8,11,-2
1558434496003829,-1,2,13,1,-8,-6,-5,-4
1558434496018145,0,-2,-8,-6,-8,-7,-11,-6
1558434496018145,-1,-2,1,11,9,4,-1,0
1558434496025122,0,-2,10,-18,-13,-11,-5,-3
1558434496025122,-2,-2,2,6,-5,-10,-11,-5
1558434496041963,-3,-7,-11,-8,-9,4,2,-7
1558434496041963,2,7,9,-1,11,1,1,1
1558434496042725,1,-1,-2,4,0,-1,-2,2
1558434496042725,1,-2,-16,0,4,2,7,5
1558434496054998,0,2,4,-1,1,0,-1,-1
1558434496054998,-1,-1,-1,-1,-10,-6,-5,-1
1558434496063668,3,1,2,10,5,4,3,2
1558434496063668,0,0,12,3,-2,-4,-7,0
1558434496077631,-4,-3,-12,-3,-6,-6,-7,-3
1558434496077631,-3,-8,-19,-22,-15,0,-2,-3
1558434496084928,0,1,1,7,9,6,5,3
1558434496084928,3,2,2,5,6,2,4,5
1558434496108831,-2,-3,-3,0,2,5,3,-2
1558434496108831,0,5,17,14,9,-6,4,-1
1558434496110669,-5,-7,-11,-13,-16,-8,-3,-5
1558434496110669,-2,-3,-3,-1,-12,-10,-14,-7
1558434496115599,-1,-1,-6,-9,-4,-6,-3,-4
1558434496115599,-3,-4,3,5,-4,1,-5,0
1558434496123819,0,2,13,3,9,10,3,2
1558434496123819,-1,1,-5,4,10,9,11,6
1558434496138716,-2,2,1,3,4,-2,0,0
1558434496138716,-3,-4,-3,-6,-5,3,-5,-5
1558434496144456,-1,-2,0,3,-5,-7,-2,-3
1558434496144456,-1,-2,0,-1,-2,-1,-1,-4
1558434496161407,-1,-2,6,-3,-6,-4,-5,-2
1558434496161407,-2,-1,-8,3,0,-2,-2,1
1558434496162405,1,2,-3,-12,9,7,3,4
1558434496162405,-3,-1,-4,-14,-10,-4,-2,-4
1558434496175450,-2,-5,0,18,3,2,-3,2
1558434496175450,-1,2,-3,-10,-1,-4,10,0
1558434496183630,-4,-2,-6,-3,-12,-12,-16,-10
1558434496183630,-1,-1,-1,-2,0,-5,0,1
1558434496198525,0,0,0,-4,1,4,-3,1
1558434496198525,-2,-7,-12,2,-1,1,-3,-2
1558434496205363,0,0,6,-4,0,0,-1,-1
1558434496205363,0,-2,-12,-12,-6,-8,0,0
1558434496221486,-2,-4,-3,4,5,2,2,-1
1558434496221486,1,0,4,1,1,5,-1,1
1558434496223247,-1,0,2,6,0,-7,0,0
1558434496223247,-2,1,3,0,-2,2,-6,-1
1558434496235210,-2,-2,-6,-8,-8,-7,0,0
1558434496235210,0,1,6,3,5,8,7,2
1558434496243432,-2,0,-2,4,1,-6,-4,-1
1558434496243432,-2,-1,4,8,3,2,3,0
1558434496258394,0,0,-2,-8,-2,-3,-3,-1
1558434496258394,-2,-2,-3,-4,-5,-8,-5,-3
1558434496265368,-3,-5,-18,-11,-4,-1,-3,-1
1558434496265368,2,-1,-4,-5,2,2,-4,-3
1558434496281089,-1,3,16,2,0,6,-3,-3
1558434496281089,2,1,-6,-2,0,0,8,3
1558434496282083,-2,-2,6,10,2,4,1,0
1558434496282083,1,-1,-3,0,4,2,-2,0
1558434496295049,0,-1,-4,-3,-5,-6,-2,-2
1558434496295049,-1,-3,12,0,-6,0,-6,-6
1558434496304026,1,-3,-12,0,4,3,4,4
1558434496304026,-3,2,8,-5,1,-3,5,-5
1558434496318090,2,0,-5,-2,-6,-4,-1,1
1558434496318090,-1,1,0,0,3,2,2,-3
1558434496333098,-1,-4,-10,3,-4,-2,-1,-4
1558434496333098,-3,-4,4,-3,-7,-1,-8,-3
1558434496341262,-5,1,2,6,12,7,-2,-4
1558434496341262,0,0,1,-5,-6,-5,-3,-2
1558434496342922,-2,-7,-11,-3,-10,-4,-7,-3
1558434496342922,2,1,1,2,11,7,11,12
1558434496355218,0,1,0,-14,0,-1,7,2
1558434496355218,-2,-3,-6,1,2,3,-3,-1
1558434496363867,0,3,10,6,-1,-4,-5,-4
1558434496363867,-2,-3,-9,-11,-8,-10,-2,-1
1558434496377829,1,-1,-4,3,3,5,2,3
1558434496377829,-5,-2,-3,-8,-7,-1,0,-5
1558434496385114,-2,-4,-8,-6,-9,-2,-2,-2
1558434496385114,0,3,10,1,4,-2,4,3
1558434496400822,-1,-1,-3,-10,-7,-4,3,0
1558434496400822,0,1,4,10,8,6,11,2
1558434496402765,-1,2,5,1,5,8,5,0
1558434496402765,-1,-3,3,17,-7,-1,-10,-6
1558434496414944,-2,-4,-15,-11,-6,-5,-1,-2
1558434496414944,3,4,1,2,-1,-3,1,2
1558434496423785,1,-3,-8,1,4,1,3,0
1558434496423785,2,2,7,-5,-1,5,3,2
1558434496438786,1,2,15,10,1,1,-7,-1
1558434496438786,0,-2,-2,0,-3,-4,1,1
1558434496444649,0,4,7,-2,0,-5,1,2
1558434496444649,-5,-2,-1,8,-1,-7,-16,-9
1558434496460612,-1,-1,0,-17,-4,8,0,-2
1558434496460612,-3,-5,-20,-9,-2,0,-2,0
1558434496462603,1,0,6,7,7,-1,-3,2
1558434496462603,-1,0,0,1,1,-1,5,-1
1558434496474573,-2,-1,3,6,-8,-4,-3,-3
1558434496474573,-2,-2,5,-3,-3,-7,-5,-1
1558434496483623,1,-1,0,-3,-1,-1,-1,2
1558434496483623,-5,-7,-18,-5,-8,-3,-7,-7
1558434496497746,0,0,-7,-3,4,-4,2,4
1558434496497746,1,0,11,6,-4,-4,-7,-1
1558434496504491,-6,-7,-7,0,-5,-7,-2,-7
1558434496504491,-1,-1,-6,-7,-1,2,1,0
1558434496521494,-3,-4,-4,4,0,1,1,-3
1558434496521494,-1,-3,-12,-2,-5,-10,-6,-2
1558434496522441,1,3,10,1,-5,-8,-7,-2
1558434496522441,-2,-1,2,4,8,15,8,1
1558434496534407,-1,0,-2,8,2,5,3,1
1558434496534407,-1,-1,9,2,2,1,-1,-2
1558434496543795,1,2,3,-2,-1,-4,0,-2
1558434496543795,0,-2,-12,-15,-9,-11,-2,1
1558434496558766,0,1,0,5,5,8,4,1
1558434496558766,-4,-4,-2,-7,-2,3,-10,-8
1558434496565205,2,4,13,12,8,5,13,5
1558434496565205,0,0,-9,-8,0,0,0,3
1558434496580632,-1,-1,4,-2,-3,-10,-1,-4
1558434496580632,-3,-9,-15,-12,-11,2,-3,-5
1558434496587571,-2,-2,-2,-5,-3,8,0,-4
1558434496587571,-2,-4,-11,2,3,-6,-12,-4
1558434496595133,1,4,9,8,-1,-3,0,3
1558434496595133,0,0,-4,-3,0,0,4,4
1558434496603621,-1,-2,-7,-6,-1,-1,-1,2
1558434496603621,-1,-3,8,9,1,-2,-5,-1
1558434496618453,-4,-5,-15,-17,-3,2,-2,-2
1558434496618453,0,1,17,-2,-2,-3,-2,-2
1558434496625346,-1,-3,-17,-2,-5,-4,-4,1
1558434496625346,2,4,8,-6,10,16,0,-3
1558434496641249,-2,-7,-9,-1,-5,-10,-1,1
1558434496641249,0,3,8,8,3,4,11,0
1558434496648021,-2,0,-2,1,0,2,-6,-2
1558434496648021,-4,-4,-5,-7,-10,-8,4,-1
1558434496655233,0,-1,-4,3,3,4,0,-1
1558434496655233,1,0,-5,-5,-2,-10,-6,0
1558434496663949,-2,-1,7,5,3,-4,-12,-4
1558434496663949,2,2,-7,-15,-6,-2,3,6
1558434496677910,-2,-1,-1,2,-2,-4,-5,-2
1558434496677910,1,1,0,6,1,1,-2,-1
1558434496684888,-2,-3,0,4,0,-1,-3,-6
1558434496684888,0,1,5,5,-4,-2,6,3
1558434496700845,-5,-6,-14,-12,-5,-8,-9,-6
1558434496700845,-3,-4,-21,-10,-3,4,1,-1
1558434496706829,0,0,-1,-2,0,-5,0,2
1558434496706829,-2,-4,-1,-5,-6,-6,-14,-8
1558434496714842,-1,-3,8,4,-5,0,2,0
1558434496714842,3,3,1,2,3,5,-2,2
1558434496723784,-3,-3,-5,-14,-3,1,3,0
1558434496723784,3,2,14,12,9,2,1,5
1558434496739006,2,1,0,10,10,-3,1,0
1558434496739006,0,0,-3,-7,-13,-8,-4,-1
1558434496744727,-1,-4,-15,-4,2,5,6,0
1558434496744727,-3,-2,3,5,3,0,0,-1
1558434496760684,1,0,1,-4,2,0,0,2
1558434496760684,-1,1,2,5,4,-4,-4,-2
1558434496768132,-3,2,7,1,-9,0,-1,-3
1558434496768132,-3,-6,-2,-4,-5,-3,-2,-6
1558434496783625,-2,-1,2,9,-1,1,-7,-4
1558434496783625,1,-2,-2,-11,-4,-12,-1,-1
1558434496785921,2,1,3,4,0,5,3,2
1558434496785921,0,0,-5,1,5,8,2,1
1558434496798030,-3,-4,-10,-6,-8,-7,-4,-4
1558434496798030,-1,2,14,7,-2,-7,-10,-3
1558434496805027,1,1,16,11,6,3,-3,3
1558434496805027,-1,-2,-13,-9,-7,0,6,0
1558434496820974,0,2,2,-5,4,12,5,1
1558434496820974,-3,-2,10,4,5,1,-3,-2
1558434496827507,-1,-2,-9,-3,-4,-8,-2,-2
1558434496827507,-1,3,17,1,2,0,-4,-2
1558434496843819,-1,-1,1,6,-3,0,-1,1
1558434496843819,-1,0,-3,-10,1,1,1,-1
1558434496844463,-1,-5,3,8,7,5,6,1
1558434496844463,3,1,-5,3,-3,-12,-1,0
1558434496858676,0,-2,-2,-4,-6,-3,2,0
1558434496858676,-2,0,0,8,6,7,-1,3
1558434496864641,-1,-2,-7,-5,-6,0,-1,-1
1558434496864641,-5,-5,-18,-23,-10,-15,-9,-4
1558434496880590,-1,-1,6,5,2,0,5,-1
1558434496880590,0,-1,-14,-6,-3,-3,-1,-2
1558434496887350,0,3,2,-6,1,-3,-2,-2
1558434496887350,0,3,7,6,-1,10,4,1
1558434496904338,-4,-5,0,2,-5,-12,-8,-4
1558434496904338,-1,-1,10,7,0,1,6,4
1558434496905306,-1,-2,-12,-7,5,5,5,-1
1558434496905306,0,-1,-1,1,1,3,7,-3
1558434496918549,1,7,12,8,4,3,-5,2
1558434496918549,-2,-5,0,-14,-6,4,10,0
1558434496924249,0,-1,-18,-4,1,-2,-5,-2
1558434496924249,-3,-5,-3,4,-3,0,-1,0
1558434496941317,2,1,-4,-1,0,-2,3,1
1558434496941317,-2,-2,-2,-1,0,-2,-4,-5
1558434496947588,-1,0,7,5,-2,-1,-3,-2
1558434496947588,-2,-3,-8,-17,0,6,-2,-2
1558434496964478,2,-1,0,4,5,-3,3,2
1558434496964478,-2,-2,-9,-3,-3,-5,-5,0
1558434496965139,-1,1,2,-2,-5,-5,-2,-2
1558434496965139,-1,-1,2,14,0,-2,-2,-2
1558434496978104,-1,1,-4,-18,-8,-3,-11,-4
1558434496978104,-1,-3,-13,6,5,-2,2,1
1558434496985442,-3,-3,8,-4,-7,-4,-6,-4
1558434496985442,-5,-6,-16,6,1,-4,-4,-5
1558434497000625,1,-1,-1,1,-1,4,0,-2
1558434497000625,1,1,9,5,5,0,2,1
1558434497007786,0,-1,-2,-1,-5,0,2,-1
1558434497007786,2,1,2,10,3,-1,-3,2
1558434497023745,-3,-2,-6,-5,-7,-5,-2,-5
1558434497023745,1,3,1,-6,-3,2,-2,-4
1558434497025695,-3,-4,3,7,4,-3,3,-2
1558434497025695,1,0,0,-4,5,2,2,3
1558434497038692,-1,-1,-3,0,0,-1,-1,-2
1558434497038692,-1,0,0,0,-7,-2,1,-2
1558434497044376,-3,-3,1,-2,10,7,-12,-6
1558434497044376,1,1,8,5,-13,-10,0,-2
1558434497060553,-3,-4,-11,-13,-6,-2,-2,-1
1558434497060553,-2,2,-2,-1,0,-3,-3,-3
1558434497067384,-1,0,-4,0,-2,-3,-6,-1
1558434497067384,1,1,5,-12,-7,-6,3,0
1558434497083487,-2,-2,-2,4,-2,-5,-3,-1
1558434497083487,-1,-1,-1,0,1,3,-3,-3
1558434497085265,-3,-3,-4,-1,-3,-3,2,0
1558434497085265,-3,1,7,5,-2,2,-2,-2
1558434497098234,-3,-4,-13,-12,-8,-5,-2,-5
1558434497098234,-2,-2,-1,4,-1,-2,-3,-1
1558434497105450,2,3,-10,0,9,7,10,7
1558434497105450,-2,-3,-18,-4,-5,-7,-10,-5
1558434497121169,-1,0,-2,6,12,6,2,2
1558434497121169,0,-6,-10,-11,-5,7,8,0
1558434497127154,3,6,9,-1,3,1,14,4
1558434497127154,-1,-4,-1,-2,-4,-5,-8,-3
1558434497143378,-3,0,12,7,0,1,-3,1
1558434497143378,-2,0,-3,6,1,4,1,3
1558434497145107,2,1,-2,-3,0,-13,-3,4
1558434497145107,-4,0,2,0,3,5,3,-1
1558434497157343,-1,-1,2,-4,-9,-1,-2,-3
1558434497157343,-1,0,2,1,4,-3,-7,-3
1558434497166108,1,-1,9,-2,-5,2,3,1
1558434497166108,0,1,-3,-1,3,-8,-11,0
1558434497181128,0,0,3,7,-3,-4,-1,-3
1558434497181128,-1,-4,-6,-14,-4,3,0,2
1558434497187990,-3,-1,-3,-1,-2,-1,2,2
1558434497187990,1,-3,-8,-10,-1,0,4,2
1558434497204209,1,4,4,-5,-3,2,0,-1
1558434497204209,0,-1,5,5,-7,-8,-4,-1
1558434497204946,-3,-5,-6,-1,-4,1,-9,-6
1558434497204946,0,-1,7,-1,8,-1,3,1
1558434497218148,2,-2,-7,1,2,1,3,3
1558434497218148,-2,2,8,3,3,5,-1,-4
1558434497225160,3,5,6,2,-13,-10,-10,-4
1558434497225160,-3,-4,1,-15,-3,2,6,2
1558434497242107,-1,-4,-15,5,12,7,-1,2
1558434497242107,-1,-1,-5,-20,-1,-2,0,1
1558434497248830,0,-3,-1,2,-2,2,-3,-3
1558434497248830,0,0,7,11,0,4,1,-2
1558434497264040,-1,-1,9,-3,-1,7,11,-5
1558434497264040,2,2,-4,4,8,2,1,6
1558434497264785,-1,-1,-2,-3,2,-7,2,2
1558434497264785,-2,-2,-7,2,-4,0,2,1
1558434497277751,-2,-2,8,8,3,0,-5,-1
1558434497277751,2,4,5,-2,0,-8,-4,-4
1558434497286003,-4,-3,-7,-14,-11,-4,0,-2
1558434497286003,-2,-3,-4,4,0,-8,-6,-2
1558434497300692,-1,-3,-4,-10,-4,-5,-6,-2
1558434497300692,-2,-5,-5,9,0,-5,2,0
1558434497307926,-1,-1,-3,-16,2,4,-4,0
1558434497307926,-2,-2,-2,-2,-1,-7,-3,-4
1558434497323657,-3,-1,-5,0,0,3,5,2
1558434497323657,-3,-7,-11,-5,-6,-9,-6,-3
1558434497324654,-2,-8,-2,4,-5,-1,4,0
1558434497324654,2,0,-5,2,6,12,-4,-1
1558434497337946,2,2,2,7,7,-1,14,5
1558434497337946,-1,2,9,-2,-4,-4,-6,-1
1558434497345569,-4,-3,3,3,-2,-6,-7,-5
1558434497345569,0,1,-1,-1,-6,4,-2,-7
1558434497360692,1,1,7,-1,-4,-3,-1,2
1558434497360692,-1,-2,3,10,12,5,7,1
1558434497367712,-2,-4,-7,-2,-1,0,-2,-3
1558434497367712,-1,0,9,0,-4,-1,-3,-3
1558434497383670,-4,1,0,3,0,4,-3,-3
1558434497383670,2,2,1,8,0,-2,2,4
1558434497385461,-2,-1,-4,-12,0,0,-5,-2
1558434497385461,-3,-4,-8,-4,2,3,5,2
1558434497397787,-2,-2,-4,-5,-7,-7,-8,-3
1558434497397787,-4,-3,1,-4,-10,-2,-6,-11
1558434497406407,3,3,3,4,6,3,6,4
1558434497406407,-1,-1,-6,-3,-3,0,0,-3
1558434497420723,2,-1,-8,2,3,-1,2,1
1558434497420723,-4,-6,-20,-17,-9,-8,-7,-4
1558434497427352,0,-5,-6,-5,-4,1,-5,-2
1558434497427352,-1,2,-4,-7,-5,-12,1,1
1558434497443620,2,5,15,13,7,4,-11,-5
1558434497443620,-1,-1,-4,7,4,4,-6,1
1558434497445304,-1,-1,-5,-12,-4,-3,6,2
1558434497445304,-1,0,-1,0,-1,1,3,1
1558434497457563,-3,-3,-1,-5,2,-1,-1,-1
1558434497457563,-1,1,-6,-1,-7,1,-1,-1
1558434497466246,-2,-1,-4,4,2,2,1,-1
1558434497466246,-2,-2,14,6,2,-3,-8,-4
1558434497480525,0,-3,-13,10,-1,-7,-2,0
1558434497480525,-3,-2,4,-17,-8,2,-4,-2
1558434497487407,-1,-1,-6,-2,-1,1,0,-4
1558434497487407,0,-1,1,-1,1,3,4,0
1558434497503154,1,1,2,-4,2,5,1,-2
1558434497503154,0,-2,1,12,2,-8,4,3
1558434497510130,-1,-2,-1,-10,0,-1,-7,-4
1558434497510130,-4,-3,4,3,-9,-10,-2,2
1558434497517344,-2,1,1,-7,-3,3,-3,-2
1558434497517344,-4,-1,9,9,5,6,1,-3
1558434497532071,1,1,2,12,8,6,7,4
1558434497532071,-3,-6,-6,-8,-5,-5,-2,-3
1558434497540048,-1,-2,-9,-15,-11,-13,-7,-3
1558434497540048,1,-2,-14,0,5,8,12,2
1558434497548029,-2,1,12,8,1,-5,-5,-2
1558434497548029,2,4,5,5,4,1,6,1
1558434497563325,-2,-2,-7,0,-5,-3,-10,-1
1558434497563325,-1,-3,5,-1,-1,1,1,1
1558434497570311,-1,-4,-14,-7,-1,6,-1,-1
1558434497570311,2,1,-11,-6,2,-1,5,3
1558434497577234,0,0,4,0,-1,-2,-8,-3
1558434497577234,1,0,1,8,6,7,1,-1
1558434497586210,-2,0,3,2,-9,-8,-6,-2
1558434497586210,0,0,1,-1,9,13,3,2
1558434497600916,-1,0,-1,4,0,-1,7,1
1558434497600916,-2,-2,-13,-12,-3,2,-7,-6
1558434497608060,-2,-2,-4,4,5,5,5,0
1558434497608060,1,1,-1,-1,-2,-5,-4,-2
1558434497623150,-3,-2,2,-5,-1,5,6,1
1558434497623150,-4,-2,4,1,-6,-3,-2,-3
1558434497630146,-2,3,-8,-9,-7,-10,-14,-2
1558434497630146,1,0,-1,5,1,3,5,1
1558434497638041,1,-3,-5,-7,6,8,6,3
1558434497638041,3,3,9,1,-2,-7,-1,4
1558434497646004,-1,-1,3,4,2,6,1,-2
1558434497646004,-2,0,3,0,-5,-8,-9,-5
1558434497660758,-3,-4,-3,-1,-2,-1,-3,-2
1558434497660758,1,2,9,-1,-3,-9,-2,1
1558434497667984,-1,1,-3,-1,0,-1,-3,1
1558434497667984,0,0,3,12,0,1,-6,-3
1558434497682920,-1,-3,-2,-10,3,4,11,0
1558434497682920,-1,-2,-5,-6,-6,-5,-1,-5
1558434497689903,0,0,12,0,-4,-5,-5,-2
1558434497689903,2,-1,0,1,0,-1,10,6
1558434497706818,-3,-1,1,0,-2,-6,-6,-2
1558434497706818,-3,-3,-13,0,2,4,-6,-5
1558434497707601,-2,-5,-2,-9,-5,-8,3,-1
1558434497707601,-3,0,3,2,7,10,-1,-1
1558434497720825,-3,1,-3,4,-1,-4,2,-2
1558434497720825,-2,-4,-3,-2,-4,-3,-1,-4
1558434497727547,-3,-6,-14,0,-9,-6,-6,-10
1558434497727547,2,2,-4,-6,-1,-7,-2,4
1558434497751482,0,-1,-1,-1,-5,0,1,-2
1558434497751482,-4,-3,-4,-3,1,0,-8,-1
1558434497752481,-1,0,5,-2,0,5,8,3
1558434497752481,-2,0,1,8,3,0,0,-3
1558434497766441,-2,-4,-8,-2,-8,-2,-6,-1
1558434497766441,1,-3,-12,-12,-5,2,8,-2
1558434497767441,0,3,11,11,5,-3,3,2
1558434497767441,-2,-2,-4,-5,1,-5,-4,-2
1558434497780872,1,2,10,-5,0,5,5,2
1558434497780872,-1,-1,-14,0,-6,-5,-4,1
1558434497787833,-1,1,2,10,6,6,5,-3
1558434497787833,-4,-2,-3,-18,-9,-2,-7,-6
1558434497803743,-1,-1,-3,6,-3,-4,-8,-3
1558434497803743,2,4,19,9,12,7,5,4
1558434497810599,3,2,-7,-9,11,1,7,11
1558434497810599,-1,1,14,-1,-9,-7,-9,-3
1558434497826283,-2,-1,0,-3,-2,-1,0,0
1558434497826283,-3,-5,-1,-1,-10,-7,-8,-5
1558434497827279,2,0,-4,-2,-5,-4,-3,1
1558434497827279,-1,-1,3,-1,3,4,4,-1
1558434497840246,-3,-5,-12,-11,-3,-9,-5,-1
1558434497840246,0,3,9,7,-2,2,-2,-1
1558434497847225,-2,-4,-5,-7,-4,5,0,0
1558434497847225,2,1,3,4,7,5,2,6
1558434497863210,-3,-3,-11,-6,-5,-6,-2,-3
1558434497863210,-2,-1,0,-4,-2,-12,-7,-1
1558434497869203,-1,0,1,5,0,5,3,-6
1558434497869203,0,0,-8,2,1,-6,-2,-1
1558434497886122,0,-2,12,1,-10,-4,-2,-4
1558434497886122,-1,0,-1,-1,5,10,14,3
1558434497888358,1,5,14,8,5,-11,-5,3
1558434497888358,-5,-5,-8,0,-7,1,-4,-5
1558434497900439,-1,2,2,4,0,5,4,-2
1558434497900439,-3,-5,-15,-17,-7,-7,-5,-1
1558434497907419,-2,-2,0,-3,-5,-7,-6,-5
1558434497907419,0,1,-3,4,7,1,-4,0
1558434497923623,-2,-3,4,8,9,4,-2,0
1558434497923623,1,1,0,-4,-13,-5,5,2
1558434497929399,-1,-3,-4,-18,-6,-2,-7,-5
1558434497929399,-1,-2,-12,-6,-7,-5,-9,-3
1558434497953338,1,0,2,3,4,5,1,2
1558434497953338,-3,-2,5,4,4,-2,-7,-3
1558434497955328,2,2,2,11,6,4,11,6
1558434497955328,-3,-5,-10,-4,-3,-2,5,-1
1558434497960313,1,7,12,0,-2,0,0,0
1558434497960313,-2,0,-2,-1,0,-1,0,2
1558434497967296,-4,-1,8,3,1,0,-6,-5
1558434497967296,0,-4,-17,13,5,2,3,0
1558434497983259,-2,-2,-6,-20,-2,-7,-1,1
1558434497983259,0,-1,-5,4,0,2,2,-1
1558434497989236,-4,-4,-3,-3,-14,-4,-3,-6
1558434497989236,0,1,7,-1,0,-3,1,1
1558434498008452,1,0,-3,6,0,-4,-5,0
1558434498008452,0,-1,0,-2,-6,4,5,-1
1558434498008452,-2,1,4,0,4,-3,-2,-2
1558434498008452,-2,-4,-7,-12,-9,0,-5,-4
1558434498020152,-1,-5,3,0,-4,-16,-7,0
1558434498020152,4,0,-18,4,8,6,5,6
1558434498027136,-3,1,8,10,6,5,3,-2
1558434498027136,-2,1,7,5,-2,0,-3,-4
1558434498043094,-2,1,-3,-7,-6,0,-1,-5
1558434498043094,-3,-2,7,-5,-4,-3,-6,-4
1558434498050076,1,-4,-10,-6,1,6,-2,-1
1558434498050076,1,-2,-6,-2,1,1,4,2
1558434498066091,2,2,4,11,8,2,5,3
1558434498066091,-2,-1,2,7,-3,-7,-17,-7
1558434498067028,2,0,-11,-5,0,10,10,3
1558434498067028,1,2,12,1,0,-2,0,0
1558434498080229,0,-1,-4,2,-2,2,2,-3
1558434498080229,0,-1,1,-1,2,-3,1,2
1558434498086978,-5,-3,-9,-6,-5,-4,-6,-4
1558434498086978,1,-1,7,-4,-5,-2,0,1
1558434498102932,-4,-2,-1,4,-3,0,-5,-4
1558434498102932,1,-1,-1,-2,-3,-3,0,3
1558434498109913,0,1,2,1,1,1,3,3
1558434498109913,0,-2,-6,-10,5,-3,-1,-1
1558434498125887,-4,-5,-2,-14,-12,-4,-4,-3
1558434498125887,-1,0,7,2,0,-4,-7,-2
1558434498127867,-2,1,1,9,0,-5,0,-1
1558434498127867,-1,1,4,-1,-2,-2,-4,-2
1558434498140829,0,-3,-11,-18,-2,6,2,2
1558434498140829,-1,-3,-7,-7,-1,-5,-7,-1
1558434498146867,1,1,4,0,-3,-3,-5,0
1558434498146867,-1,0,9,8,5,7,9,0
1558434498162771,-2,-3,-14,-12,0,-5,-1,-4
1558434498162771,-1,1,8,5,-1,0,2,-1
1558434498169754,0,-2,1,3,3,5,-1,-4
1558434498169754,-4,-3,-4,0,-1,0,-6,-4
1558434498185710,0,0,1,19,1,-5,-4,0
1558434498185710,0,2,21,-4,3,6,11,2
1558434498187705,-1,-4,-9,3,-7,-8,-5,-2
1558434498187705,0,-1,-6,-6,-5,-6,1,0
1558434498199672,0,-1,4,-3,12,11,0,-2
1558434498199672,-2,1,2,12,0,-5,-5,-3
1558434498208658,1,-3,0,-5,-4,-2,-7,-4
1558434498208658,-2,0,-8,-10,-8,-5,-2,0
1558434498222612,0,0,3,-5,-4,-5,2,1
1558434498222612,-2,1,-4,6,11,11,1,-2
1558434498229593,-2,-4,-3,0,0,-1,-3,-1
1558434498229593,-2,-3,-1,3,1,1,3,-2
1558434498246547,1,-2,1,6,-6,-6,-6,0
1558434498246547,1,0,2,3,0,1,7,3
1558434498247549,-2,4,2,-1,0,-1,3,1
1558434498247549,1,2,17,-6,1,4,-3,-1
1558434498259627,-1,-2,-9,-2,2,5,1,1
1558434498259627,0,-3,-8,-8,0,-2,1,-1
1558434498268489,-1,1,9,8,-2,-11,-2,-4
1558434498268489,-2,-4,-14,-8,-3,-1,-1,-1
1558434498283582,-1,1,10,-3,-7,-5,-3,-1
1558434498283582,-1,0,0,8,4,1,3,0
1558434498289441,-2,-7,-15,-16,-6,-1,-5,-3
1558434498289441,0,-1,0,-3,-3,-10,-11,-1
1558434498306389,-1,0,-3,16,10,7,19,3
1558434498306389,-3,-3,-8,-30,-14,-9,-3,-3
1558434498307386,3,2,4,5,10,8,-2,-1
1558434498307386,-4,-2,0,5,-7,-3,-4,-3
1558434498319358,-3,1,2,-3,0,2,-6,-5
1558434498319358,-3,-2,-6,-6,-3,-2,0,-1
1558434498328328,2,5,6,3,-1,-5,5,3
1558434498328328,-1,-7,-20,-4,-5,4,4,-2
1558434498343288,-2,-1,-3,0,-2,-9,-10,-4
1558434498343288,2,1,2,-2,-4,0,-3,-4
1558434498349274,-2,0,14,13,1,-3,-7,-3
1558434498349274,3,1,10,8,7,10,2,2
1558434498366464,0,-2,-4,-4,-5,-9,-2,2
1558434498366464,-1,-2,-4,-5,-5,-1,3,-5
1558434498367241,-3,-1,-12,2,-1,3,1,0
1558434498367241,-3,-2,-2,-1,4,-6,0,0
1558434498379197,-2,-1,-4,-3,1,5,4,0
1558434498379197,-1,-1,9,-15,-3,0,0,1
1558434498388169,-1,-1,2,8,-2,-3,-1,0
1558434498388169,-1,3,6,4,-2,0,5,1
1558434498403163,1,1,18,3,1,0,-4,-5
1558434498403163,1,-2,-7,12,4,2,-3,0
1558434498410111,-5,-6,-4,-20,-10,-6,1,-5
1558434498410111,0,-4,-14,-18,-9,-2,-3,-2
1558434498425099,-3,-3,1,9,-4,-1,-4,2
1558434498425099,-3,-2,-8,-17,0,-2,3,-1
1558434498432055,-1,-1,12,-1,2,-2,0,2
1558434498432055,-4,-5,-16,8,-1,-2,-8,-2
1558434498440031,-1,-1,-2,7,6,4,9,-2
1558434498440031,-3,-3,1,-3,-9,0,-10,-6
1558434498472941,1,-4,-19,-15,-2,-5,-8,0
1558434498472941,0,6,23,28,10,-1,0,-6
1558434498473940,-1,-3,-15,-39,-21,-7,-3,-2
1558434498473940,0,-2,-5,3,6,0,0,3
1558434498476930,1,-2,1,-4,3,3,7,6
1558434498476930,-1,1,19,12,2,-4,-5,-5
1558434498484917,-1,-1,-12,4,2,-2,-4,0
1558434498484917,-2,3,15,9,-3,-2,-3,-3
1558434498493886,-3,-1,-10,-1,-9,-5,-3,-2
1558434498493886,-2,4,16,-9,-1,4,-1,-2
1558434498499873,-1,-1,10,12,5,2,-5,-1
1558434498499873,1,-1,-7,-5,-12,-9,7,5
1558434498508846,-1,-3,-7,2,4,-2,-4,-4
1558434498508846,0,0,-1,-5,-1,-2,0,0
1558434498522809,-1,2,-1,-8,2,1,-1,1
1558434498522809,2,3,2,4,3,-2,-1,-1
1558434498529790,-2,-6,-9,-10,-2,-2,-2,-3
1558434498529790,2,1,-11,-2,-3,-2,-3,0
1558434498545747,-3,-3,4,-9,-4,-2,1,-2
1558434498545747,-2,-1,-9,8,-1,-1,-7,-2
1558434498551731,2,2,7,6,8,5,5,3
1558434498551731,-1,1,-8,-4,-4,1,-3,-1
1558434498559709,-3,-6,2,18,4,0,-1,-2
1558434498559709,0,3,14,14,4,0,-1,-1
1558434498568685,-6,-10,-28,-27,-13,-1,-9,-6
1558434498568685,-1,-4,-9,-31,-4,3,7,0
1558434498582661,1,6,22,11,-2,-2,2,2
1558434498582661,-2,-3,-6,-1,-2,-1,-6,-2
1558434498589631,2,3,15,20,5,-2,-1,0
1558434498589631,-3,-3,-20,2,-1,1,-3,0
1558434498605881,-3,-4,-8,-11,-8,-9,-16,-7
1558434498605881,-2,2,-4,9,9,7,6,4
1558434498612571,1,5,13,-3,-3,-4,-2,1
1558434498612571,-4,-4,-2,-6,-2,-2,-3,-3
1558434498628525,1,1,-2,-18,-4,0,8,1
1558434498628525,-2,-6,-13,-6,0,-2,-7,-5
1558434498629524,2,1,2,13,3,1,2,-1
1558434498629524,0,2,14,0,2,-3,-2,1
1558434498642764,-2,-2,-7,5,-12,-11,-9,-5
1558434498642764,0,1,-27,-5,7,12,9,1
1558434498649469,-3,-2,-1,-9,-7,0,8,3
1558434498649469,0,2,1,18,4,-5,0,-2
1558434498665712,1,5,-9,-15,5,2,1,0
1558434498665712,-3,-7,16,3,-14,-5,-5,-5
1558434498672631,-1,1,5,26,6,2,-4,-1
1558434498672631,-5,-12,-35,-53,-17,-9,-12,-7
1558434498688365,-5,1,1,17,3,2,2,0
1558434498688365,1,-2,-14,-9,1,-2,4,1
1558434498690361,-2,0,14,-10,-4,-3,-1,-1
1558434498690361,1,1,17,27,1,-3,3,1
1558434498703336,0,-3,-21,-13,1,3,1,-1
1558434498703336,-2,0,6,-8,2,1,-2,0
1558434498717591,-3,-4,-7,5,-10,-4,-6,-5
1558434498717591,-4,-5,-23,-35,-9,2,7,-1
1558434498725572,2,-2,8,17,5,2,2,2
1558434498725572,0,2,6,12,5,1,-3,-2
1558434498732554,0,2,-2,-25,7,4,2,-3
1558434498732554,-1,-3,12,32,-2,-6,-6,-3
1558434498748510,4,2,0,-11,-2,-5,5,4
1558434498748510,-3,-8,6,12,0,-4,-5,-1
1558434498749510,1,5,4,-5,-8,-2,6,2
1558434498749510,-1,-1,12,7,6,1,-1,2
1558434498762488,0,6,7,7,6,4,1,2
1558434498762488,0,5,12,21,1,-6,-4,-1
1558434498771451,-4,-8,-33,-43,-9,-3,-2,-3
1558434498771451,1,-1,8,4,-4,-4,4,0
1558434498785413,0,2,-4,23,-7,-1,-3,-2
1558434498785413,-2,-9,-22,-22,-1,-1,-1,0
1558434498792397,-3,-3,-2,7,2,1,-4,-3
1558434498792397,-1,1,2,11,4,-4,-7,0
1558434498808349,1,1,-3,-2,2,3,-2,1
1558434498808349,-2,-2,14,5,3,4,2,-1
1558434498810361,-1,-4,-3,3,0,-3,-4,-2
1558434498810361,3,5,12,4,3,5,2,0
1558434498822313,-2,-7,-20,0,-3,-4,3,-1
1558434498822313,-2,-3,-23,-17,-7,-4,-3,-3
1558434498831288,-2,-2,3,0,1,1,2,-4
1558434498831288,2,5,18,16,11,5,3,4
1558434498845251,-2,-5,0,7,3,2,-3,-2
1558434498845251,-1,1,1,-11,-8,-4,-1,-1
1558434498852232,3,7,5,10,4,1,-4,3
1558434498852232,-7,-6,-16,3,4,-1,-2,-6
1558434498868191,-3,-2,12,-19,-9,-1,0,-1
1558434498868191,3,0,2,18,6,0,0,0
1558434498870190,-2,-5,-5,-12,-3,-5,-6,-3
1558434498870190,1,2,2,-20,-9,1,2,0
1558434498882156,-1,-8,-22,-17,-8,-5,-2,-1
1558434498882156,-1,2,7,1,7,6,11,0
1558434498891128,3,5,-4,21,-4,-3,1,1
1558434498891128,1,5,17,11,6,2,-3,1
1558434498906089,-5,-6,-9,-16,0,-2,-5,-7
1558434498906089,-2,2,10,-8,-11,-7,-3,-3
1558434498912073,2,5,13,27,8,5,1,3
1558434498912073,-3,-6,-26,-31,-1,1,4,2
1558434498929029,-2,0,11,5,-7,-8,-6,-3
1558434498929029,-2,-4,-2,-8,-4,-4,-8,-2
1558434498930026,0,6,17,-7,5,8,10,2
1558434498930026,-4,-9,-14,10,-2,-7,-8,-4
1558434498941994,2,-1,-7,-5,0,-1,-5,-5
1558434498941994,-1,0,2,7,1,3,6,2
1558434498950968,-3,-4,-6,-21,-10,-7,-7,-1
1558434498950968,0,-1,-8,6,1,-1,2,-2
1558434498964935,-3,0,14,8,4,1,-4,-2
1558434498964935,1,4,2,6,4,5,1,4
1558434498971918,-2,-4,-6,0,3,-1,6,1
1558434498971918,3,5,7,14,2,2,1,0
1558434498988873,0,5,1,-25,-7,-2,8,4
1558434498988873,-6,-15,-39,-4,-7,-5,-14,-7
1558434498989864,-1,-6,-3,8,2,0,-1,-4
1558434498989864,-3,-2,-5,-5,-5,-7,-7,-2
1558434499001838,3,5,11,13,6,4,1,3
1558434499001838,2,5,11,2,4,2,10,3
1558434499010808,-3,-3,-8,-17,-12,-7,-6,-2
1558434499010808,2,0,10,26,7,4,2,-1
1558434499025769,-5,-11,-34,-44,-16,-10,-5,-2
1558434499025769,-1,-2,3,-12,0,-2,-5,-1
1558434499031751,0,3,1,5,-3,-1,-4,-4
1558434499031751,1,4,15,2,4,1,8,1
1558434499048709,-2,-2,-2,23,5,4,0,-1
1558434499048709,-2,0,-10,-16,-3,-6,-6,-3
1558434499049706,-1,0,6,-14,-10,-7,-1,0
1558434499049706,-3,-7,-17,-5,-8,-1,5,3
1558434499061672,-4,0,9,8,6,-2,-3,-5
1558434499061672,1,3,-2,-15,-7,-4,-5,-5
1558434499070650,1,3,2,22,4,-2,1,3
1558434499070650,-4,-9,-13,-24,-11,-4,-13,-4
1558434499085613,2,1,5,19,13,9,16,4
1558434499085613,2,0,3,-3,1,0,5,-1
1558434499092624,0,0,-7,0,-2,-2,-2,-1
1558434499092624,3,7,21,19,2,0,-1,-1
1558434499108552,-5,-14,-46,-48,-13,-5,-2,-2
1558434499108552,-1,-1,11,14,2,-1,-3,0
1558434499110544,-5,-8,-28,-20,-4,-3,1,-4
1558434499110544,1,1,-4,-14,-4,0,-1,-1
1558434499122512,-3,0,18,23,5,-2,-10,-3
1558434499122512,-2,2,-4,-7,-6,-3,6,-1
1558434499131485,-5,-9,-2,1,5,1,-5,-5
1558434499131485,1,3,10,19,1,4,4,1
1558434499145454,2,2,-1,2,2,0,0,3
1558434499145454,-2,-3,-6,-26,-11,-3,-1,-2
1558434499159410,-2,-4,6,24,2,-2,-1,-1
1558434499159410,-1,1,0,-15,-5,-4,-5,-2
1558434499168389,2,3,5,15,6,4,6,0
1558434499168389,-4,-5,-13,9,2,2,-2,1
1558434499170382,-1,2,5,-17,-2,4,1,-1
1558434499170382,-1,-3,-9,0,3,2,6,2
1558434499190327,-1,-1,6,-7,-10,-7,-4,0
1558434499190327,0,1,2,9,2,-3,-3,-2
1558434499198332,0,1,1,2,4,1,-2,-1
1558434499198332,-2,-1,-3,-6,-3,1,2,1
1558434499205290,0,0,5,-2,-2,0,-6,-5
1558434499205290,2,1,3,1,1,1,-8,-2
1558434499212273,1,-3,1,27,8,0,-2,-1
1558434499212273,-2,-1,-14,-38,-8,-3,0,-6
1558434499228229,-1,1,7,13,2,-2,2,-1
1558434499228229,-1,-2,-6,-11,-6,-2,-1,-1
1558434499230221,2,5,15,32,11,2,0,2
1558434499230221,-4,-4,-13,-38,-15,-5,-4,-2
1558434499242194,0,-1,-1,-3,-3,0,-2,0
1558434499242194,-1,0,4,11,2,0,3,1
1558434499258152,-4,0,-5,-20,-4,2,-2,-3
1558434499258152,-2,0,5,15,4,-3,3,-3
1558434499265128,-1,-3,-6,-9,1,0,-2,-3
1558434499265128,2,-3,3,4,-3,0,-1,2
1558434499272110,2,-1,-12,-5,3,0,2,0
1558434499272110,-1,-4,-4,3,-4,-1,1,-2
1558434499288066,-1,0,3,-7,-4,-4,-1,-1
1558434499288066,-1,0,2,5,0,-4,-5,-4
1558434499290061,-2,0,-1,-17,-11,-4,0,-1
1558434499290061,-1,-1,-9,3,7,1,-1,0
1558434499302029,-2,-2,1,-12,-6,2,2,-1
1558434499302029,-3,-1,-2,-4,0,-1,-1,-2
1558434499311005,1,-4,-7,-17,-5,-2,1,0
1558434499311005,-2,-4,-4,12,0,-4,-8,0
1558434499324967,-2,-3,-4,3,-2,-3,-3,-2
1558434499324967,-2,-2,6,10,-1,-2,1,-2
1558434499331949,-1,0,7,0,2,-1,-1,-2
1558434499331949,-1,-1,0,2,-5,-3,-3,-2
