timestamp,emg1,emg2,emg3,emg4,emg5,emg6,emg7,emg8
1558434465436162,2,2,2,2,10,10,5,4
1558434465436162,1,0,-1,3,4,-7,-1,1
1558434465436162,-2,1,7,16,7,8,2,-1
1558434465436162,-3,-3,-6,-5,-6,-7,-2,-1
1558434465437160,-1,-3,-2,-11,-4,2,2,-1
1558434465437160,-1,-1,-3,-1,-3,-3,0,-1
1558434465438158,-2,-2,-1,-1,-1,-1,0,-1
1558434465438158,1,2,4,7,3,1,0,0
1558434465441149,-3,-2,-7,-6,-10,-7,-8,-3
1558434465441149,-2,-2,-2,0,1,7,1,0
1558434465449128,0,1,4,-3,-3,-2,-1,-1
1558434465449128,-1,1,0,2,9,6,5,3
1558434465456109,1,1,8,19,5,-6,-1,0
1558434465456109,-4,-5,-17,-35,-14,-4,-1,-3
1558434465471071,-2,-3,-5,-10,-5,-3,-7,-5
1558434465471071,0,-2,-2,-5,3,9,7,2
1558434465480046,-4,-2,-2,2,-5,-5,-6,-5
1558434465480046,1,3,9,18,5,-3,-1,1
1558434465486029,0,-1,-6,-5,-4,0,1,-2
1558434465486029,-2,-1,-1,-2,-3,-8,-2,-1
1558434465501985,0,2,3,1,3,-1,-1,2
1558434465501985,-1,0,1,-1,-6,-3,-3,0
1558434465508967,-2,1,3,0,-3,2,-5,-3
1558434465508967,0,-4,-4,-6,2,3,1,0
1558434465548861,2,1,1,-1,7,1,-2,-1
1558434465548861,1,-1,2,3,-9,-12,-2,0
1558434465549858,-1,-2,-1,2,-2,1,-6,-5
1558434465549858,-1,-1,0,-1,-10,-5,-5,-4
1558434465550856,-1,0,2,5,0,0,1,1
1558434465550856,1,1,6,7,12,7,0,2
1558434465552851,0,3,-1,-7,3,1,4,3
1558434465552851,-2,-3,-3,-7,-7,-6,-5,-2
1558434465561826,-2,-4,-2,-3,-6,-1,-8,-4
1558434465561826,-3,-4,-7,-4,4,0,3,0
1558434465567811,-2,1,6,4,-2,-5,-3,-1
1558434465567811,-2,-1,0,3,3,-2,-3,-1
1558434465576787,-3,-3,-2,-6,-8,-3,-1,-2
1558434465576787,1,1,5,6,-9,-11,-3,-1
1558434465590748,5,4,9,8,21,5,8,6
1558434465590748,-5,-4,-19,-15,-9,-5,-2,-2
1558434465598728,1,1,2,5,8,4,-1,-1
1558434465598728,-4,-4,-5,-7,-11,1,-6,-7
1558434465605709,-2,-2,-4,2,-12,-3,-6,-4
1558434465605709,1,-2,0,-3,1,-3,1,1
1558434465621666,0,1,1,3,3,-4,2,2
1558434465621666,-2,-2,-4,-8,1,4,0,-4
1558434465636625,0,-1,2,4,-3,-4,-3,-4
1558434465636625,2,1,2,-11,0,2,1,1
1558434465637623,-1,0,-2,2,1,-1,3,0
1558434465637623,1,5,15,20,8,3,3,2
1558434465650589,-5,-6,-21,-29,-15,-6,-4,-4
1558434465650589,-2,-4,-4,4,-3,5,-3,-1
1558434465658567,0,0,2,-1,-1,-6,-3,3
1558434465658567,2,1,0,-2,1,-3,2,1
1558434465665549,-2,-4,-1,1,-4,-2,-2,-4
1558434465665549,0,1,-2,2,6,4,5,1
1558434465681507,-1,1,7,4,-2,6,5,0
1558434465681507,1,-2,-9,-16,-1,-4,-4,-2
1558434465688488,-1,1,-4,-1,0,1,0,-1
1558434465688488,-2,-4,4,6,-4,-5,-4,-4
1558434465696467,-2,-2,0,6,-1,4,-3,-5
1558434465696467,-2,-1,-2,-5,-8,0,0,-1
1558434465710428,2,0,5,2,5,-2,4,1
1558434465710428,-1,0,-1,-2,9,12,7,-2
1558434465718407,-1,-3,0,0,0,-6,0,-1
1558434465718407,-3,-2,-4,5,-3,-1,-3,-2
1558434465725388,0,2,9,-3,3,2,-5,0
1558434465725388,-3,-5,-6,-3,-9,-2,-4,-3
1558434465742343,0,-3,-5,-6,-8,-12,-6,-4
1558434465742343,0,1,0,-7,3,0,-1,1
1558434465748328,-3,-2,2,7,4,-4,-5,-1
1558434465748328,-2,0,0,-1,-3,-5,-4,-4
1558434465764285,-1,-2,-3,-1,3,3,3,-1
1558434465764285,1,0,0,0,0,3,-10,-4
1558434465770269,-1,1,10,17,3,4,4,0
1558434465770269,-2,-4,-8,-15,3,5,5,3
1558434465779245,-2,-4,-16,-12,-11,-8,-5,-3
1558434465779245,-3,-2,-3,-2,-4,-1,-5,-6
1558434465785228,-2,-2,-4,-6,-5,-7,-4,-2
1558434465785228,2,3,9,15,6,-6,0,0
1558434465802184,0,0,3,2,5,10,5,2
1558434465802184,-2,-2,-2,-2,-2,-12,0,0
1558434465808167,-3,-4,-6,0,-4,5,-2,-2
1558434465808167,0,1,3,-1,-4,-5,-4,0
1558434465824125,-1,2,3,4,1,0,-4,-1
1558434465824125,-6,-6,-15,-5,-11,-9,-5,-5
1558434465839094,0,-2,-5,-7,-6,-2,0,-1
1558434465839094,2,1,-1,7,4,0,1,2
1558434465841080,0,0,0,-5,-3,0,-4,-2
1558434465841080,-1,0,5,7,4,6,2,0
1558434465846066,0,-1,-3,-5,-5,-6,-2,-3
1558434465846066,-2,-4,0,4,-3,-1,-2,-3
1558434465862024,1,0,-6,-7,1,-7,-6,1
1558434465862024,-2,-4,-3,-4,-3,-2,6,0
1558434465868008,0,0,-3,-8,-4,-2,-3,-2
1558434465868008,1,2,6,7,5,5,3,3
1558434465884963,0,1,7,5,-4,-7,-3,-2
1558434465884963,0,1,-4,-15,0,4,-1,3
1558434465890948,0,1,-1,6,6,7,0,1
1558434465890948,0,0,0,-4,-1,1,3,-2
1558434465899923,-3,-1,-4,-6,-7,-5,-2,-2
1558434465899923,-1,0,1,4,15,11,0,1
1558434465912889,0,-1,-2,7,-1,-7,4,4
1558434465912889,-2,-2,-6,-11,-7,-5,-5,-8
1558434465921863,-2,-4,-3,-8,-10,-4,-6,-8
1558434465921863,-2,-1,1,6,5,8,3,0
1558434465927848,0,-1,-2,1,5,2,4,2
1558434465927848,0,0,-2,0,-1,-4,-3,2
1558434465944804,-1,0,-1,0,-6,-5,-3,-3
1558434465944804,0,1,11,12,-2,-4,-1,0
1558434465950788,-3,-5,-12,-25,-4,2,-3,-2
1558434465950788,-3,-2,-3,-1,-2,-5,-1,-1
1558434465959764,-2,-3,-5,-9,-4,-1,-2,-3
1558434465959764,3,0,0,6,4,-4,2,2
1558434465972729,0,1,6,6,3,0,-1,-1
1558434465972729,-3,-1,-1,-5,-4,2,-3,-2
1558434465981705,0,-1,-1,3,2,5,3,1
1558434465981705,0,0,2,0,-1,-10,-4,1
1558434465988686,-1,-3,-5,-5,-4,6,2,-1
1558434465988686,0,2,3,10,8,3,1,2
1558434466004642,0,0,3,3,0,2,6,4
1558434466004642,-3,-2,-10,-14,-4,-2,-2,-5
1558434466010626,-3,-4,-3,-19,-8,-4,-6,-5
1558434466010626,-2,-1,-5,-4,-7,-6,-4,-4
1558434466019602,1,1,1,10,13,9,2,3
1558434466019602,0,0,-1,0,1,4,4,3
1558434466033566,-2,-1,-1,4,-4,-8,-1,-3
1558434466033566,-2,-1,1,2,2,0,-5,-3
1558434466042542,-2,-3,-12,-29,-14,-2,-3,-4
1558434466042542,0,0,3,5,-3,-1,-4,-5
1558434466048525,0,-1,-5,2,-1,1,1,2
1558434466048525,0,1,1,4,4,-2,4,4
1558434466064482,-2,0,-2,3,3,1,-2,-5
1558434466064482,-2,-6,-8,-10,-6,2,-1,-3
1558434466070466,1,2,5,10,7,-1,-1,-1
1558434466070466,1,-1,6,3,-7,-8,-6,-3
1558434466079441,-3,-6,-12,-5,5,4,3,0
1558434466079441,1,5,11,5,3,6,8,3
1558434466093405,-2,-4,-5,0,-3,-6,-6,0
1558434466093405,0,-2,-1,-9,0,-1,0,-2
1558434466102380,0,3,5,2,2,-1,-2,1
1558434466102380,-3,-2,-6,-6,-11,-2,-8,-2
1558434466108366,-4,-4,-4,0,-5,0,1,-2
1558434466108366,0,0,0,7,9,10,3,0
1558434466124326,3,3,7,2,3,-4,2,1
1558434466124326,-2,-1,-6,-12,-4,-8,-2,-2
1558434466130306,2,3,11,4,3,-1,-2,0
1558434466130306,-2,-5,-13,-12,-4,1,-3,-4
1558434466139286,-3,-5,-2,3,-8,-2,0,-3
1558434466139286,0,-1,3,-4,2,2,2,-2
1558434466153245,0,1,-1,-1,-2,-7,-3,1
1558434466153245,3,2,15,7,7,4,2,2
1558434466162222,-1,-3,-12,-2,-3,0,-1,-1
1558434466162222,-3,-7,-13,-7,-11,-8,-7,-9
1558434466168205,-3,-2,-2,-2,1,0,-3,-4
1558434466168205,1,1,4,4,2,3,0,1
1558434466191145,0,1,-5,-11,-1,-4,0,1
1558434466191145,2,0,4,4,-3,-3,-2,-3
1558434466192142,-1,-3,-3,2,0,1,-6,-3
1558434466192142,-2,0,-3,-10,-5,-2,3,0
1558434466199123,1,2,10,13,2,-8,2,2
1558434466199123,-1,-2,-2,-2,2,8,0,-2
1558434466213086,-1,-2,-4,-2,-3,-5,-4,-1
1558434466213086,-1,0,1,7,3,-2,2,3
1558434466222060,-2,-2,-2,-2,-3,1,-8,-3
1558434466222060,1,2,1,-10,0,4,2,4
1558434466228046,0,1,6,4,-1,-7,1,1
1558434466228046,-1,-1,-3,-5,-6,-6,-4,-1
1558434466245001,1,2,7,12,20,16,8,1
1558434466245001,-1,-3,-4,5,1,-3,-5,-2
1558434466250982,-1,0,3,-1,-6,2,-3,-6
1558434466250982,0,-1,-7,-7,-4,1,0,-5
1558434466259960,2,1,4,5,2,0,3,4
1558434466259960,-3,-2,-2,-1,2,-3,-4,-1
1558434466272925,0,-2,-9,-10,-3,2,1,-1
1558434466272925,-2,-1,4,1,-8,-9,-4,-2
1558434466281900,-6,-4,-4,-3,-8,-4,-11,-4
1558434466281900,3,1,3,12,11,-1,4,6
1558434466287884,2,1,-7,-21,-5,-8,1,5
1558434466287884,-1,-2,6,6,7,8,-4,-2
1558434466304839,-2,-3,-11,-10,-5,-2,-3,-2
1558434466304839,-1,-1,3,2,-9,-4,-1,1
1558434466310825,-2,-3,0,8,4,4,0,-4
1558434466310825,-1,-2,-8,-8,-1,-3,-3,-3
1558434466319799,0,3,13,8,1,5,2,0
1558434466319799,-1,-2,-9,-4,-1,-7,-3,0
1558434466332764,1,1,6,6,10,9,9,4
1558434466332764,-1,-3,-12,-21,-8,-10,-5,1
1558434466341740,-1,-3,2,5,-7,-5,-6,-3
1558434466341740,-2,-3,-4,-12,-7,2,-5,-5
1558434466347724,-2,-1,0,-2,-4,-1,-5,-3
1558434466347724,-3,-2,-6,6,0,-1,1,-3
1558434466372658,0,1,2,0,3,-5,0,1
1558434466372658,0,1,-3,-3,0,-5,2,0
1558434466373666,-1,-2,-2,0,0,2,0,1
1558434466373666,-1,0,4,4,-2,1,-2,-1
1558434466379640,-3,-1,-6,-4,-2,-6,-4,-3
1558434466379640,-2,-5,-5,-5,-2,6,-1,-3
1558434466393647,2,1,6,7,3,5,-1,0
1558434466393647,0,-1,0,7,2,1,0,0
1558434466402582,-2,-3,-1,-22,-12,-4,-4,-4
1558434466402582,-1,-2,-8,1,8,9,9,-1
1558434466408600,-1,2,2,9,5,0,1,0
1558434466408600,-2,-1,-3,-2,3,0,-5,-3
1558434466424519,2,1,1,6,-6,-10,2,2
1558434466424519,-1,-1,-1,-2,-2,-2,-3,0
1558434466430503,-1,1,2,0,-5,1,-3,-3
1558434466430503,-3,-1,2,1,-1,0,-2,-1
1558434466439480,2,-1,-7,-18,5,2,4,2
1558434466439480,-1,-2,-3,-2,-3,0,-2,1
1558434466453471,0,0,-1,-3,-2,-4,-2,-1
1558434466453471,-3,-4,-2,5,-10,-12,-9,-5
1558434466462419,0,-1,-1,-4,-3,0,-2,-2
1558434466462419,3,2,10,8,6,4,4,3
1558434466468427,-3,-5,-15,-10,-5,0,-2,-3
1558434466468427,-3,-3,-4,-4,0,1,1,-1
1558434466484360,1,2,1,9,10,1,3,2
1558434466484360,-2,-1,-1,-1,-8,-6,-3,-4
1558434466490346,-1,-2,-3,-15,-5,-2,-1,-1
1558434466490346,1,1,-1,0,4,4,4,1
1558434466499327,-1,-2,3,5,-3,-1,-1,-4
1558434466499327,0,1,3,1,-4,-7,-7,-3
1558434466513357,-3,-3,-3,-2,-4,-5,-8,-5
1558434466513357,1,1,3,2,3,1,6,5
1558434466522261,-1,-1,2,7,5,11,10,5
1558434466522261,-4,-3,-11,-11,-10,-5,-7,-4
1558434466536233,-1,-2,-7,-9,1,-2,-1,1
1558434466536233,1,-1,-1,0,1,-4,0,-2
1558434466544200,-3,-2,0,-2,-3,-3,-6,-5
1558434466544200,-1,-1,7,10,1,5,2,0
1558434466559164,-3,-1,-1,-7,-9,-15,-9,-3
1558434466559164,-1,-1,-2,-4,5,4,-1,1
1558434466561157,-1,-1,-5,-2,-4,2,2,0
1558434466561157,1,2,8,8,1,1,-2,0
1558434466573127,0,0,-1,2,3,5,6,3
1558434466573127,-2,-3,-8,-15,-3,-2,-2,-2
1558434466582097,0,-1,0,-5,-7,-6,-8,-5
1558434466582097,-2,-4,-5,-2,-1,-2,-6,-3
1558434466596122,-2,1,8,11,3,0,0,-1
1558434466596122,1,3,3,0,-6,-7,-3,-2
1558434466605038,-2,-4,-5,2,4,5,-2,0
1558434466605038,1,2,5,7,11,3,12,5
1558434466620022,-1,1,5,1,-6,2,1,0
1558434466620022,0,-1,-5,2,2,7,5,0
1558434466620996,-4,-9,-27,-17,-12,-9,-7,-4
1558434466620996,-1,-1,3,-7,-2,-5,-5,-4
1558434466641947,-1,-4,-3,2,-2,-1,-2,-3
1558434466641947,1,0,7,5,5,0,1,1
1558434466643943,-1,0,4,-3,-7,-5,-6,-3
1558434466643943,0,-1,-1,0,-3,-1,-3,1
1558434466656063,0,0,-2,7,14,6,8,3
1558434466656063,-2,1,3,-1,-3,-3,-1,-3
1558434466664877,-2,0,1,1,6,11,5,-1
1558434466664877,-1,0,-8,-9,-4,-11,-1,2
1558434466679875,-2,-3,-2,-2,-9,-6,-7,-5
1558434466679875,-1,-2,1,2,-2,-1,-2,-2
1558434466680836,-2,-1,1,1,-5,-1,0,-3
1558434466680836,-4,-4,-4,-6,-6,0,-4,-7
1558434466693801,3,2,3,4,10,4,4,5
1558434466693801,1,1,-2,6,-10,-8,-1,2
1558434466701814,0,-1,5,1,14,17,2,0
1558434466701814,-2,-4,0,9,-3,-8,1,1
1558434466715772,-5,-5,-7,-12,0,-4,-4,-3
1558434466715772,0,-4,-8,-5,-4,-8,-5,-4
1558434466730717,1,0,1,-1,-5,-4,-3,1
1558434466730717,1,2,6,8,3,7,2,1
1558434466739742,-2,0,3,1,-3,4,-4,-6
1558434466739742,-4,-3,-3,-9,-9,-3,-7,-6
1558434466740793,3,3,5,21,17,1,12,9
1558434466740793,-1,0,2,0,4,-2,-1,0
1558434466753638,-2,-5,-13,-18,-18,-9,-3,-3
1558434466753638,1,-1,6,0,0,2,-1,-1
1558434466762682,-2,-2,-5,1,-10,-10,-7,-7
1558434466762682,-1,0,-3,-18,-1,1,0,0
1558434466775613,-1,1,4,8,8,6,4,0
1558434466775613,-5,-3,-3,-4,-3,5,-1,0
1558434466784557,0,2,4,1,-8,-6,-8,-6
1558434466784557,-2,-4,-9,0,0,1,-3,-4
1558434466798518,3,6,14,6,5,-2,7,7
1558434466798518,-3,-2,-8,-2,5,5,4,-1
1558434466807494,1,1,3,3,7,1,3,4
1558434466807494,-2,-4,-5,-5,-7,-3,-3,-4
1558434466813479,-1,-2,-2,1,-6,-3,-7,-5
1558434466813479,-1,1,1,-7,-3,-2,-1,1
1558434466822458,-1,-3,1,-3,-4,-2,-3,-3
1558434466822458,0,1,5,10,-1,-2,-3,-2
1558434466835451,-1,-5,-15,-20,-4,-3,-4,-2
1558434466835451,-2,-5,-15,-12,-7,4,3,-3
1558434466844395,0,1,3,-4,2,-5,0,1
1558434466844395,2,2,4,7,7,1,7,2
1558434466859356,0,1,7,14,4,1,4,3
1558434466859356,-2,-3,-2,-5,-6,-3,-9,-2
1558434466861351,-2,-2,-2,-3,-1,-1,0,-1
1558434466861351,2,0,1,1,2,-3,0,1
1558434466873319,-1,-2,3,15,1,6,-3,-3
1558434466873319,1,-3,-10,-19,4,5,3,1
1558434466882295,-3,-1,0,-4,-3,-6,1,1
1558434466882295,-2,-1,-3,-7,-5,-3,-5,-2
1558434466895335,-2,-3,-7,-6,-5,-7,-5,-4
1558434466895335,0,2,8,12,5,4,-2,-1
1558434466904236,-1,-1,-1,3,-1,0,2,0
1558434466904236,0,-4,-6,-4,5,-3,1,2
1558434466927351,-1,0,9,-2,-1,2,0,-1
1558434466927351,-2,-1,0,7,-7,-10,-2,1
1558434466928359,-4,-2,-9,-15,-10,-2,-5,-7
1558434466928359,-4,-3,-13,-19,-8,-5,-6,-7
1558434466933158,-1,-1,4,5,0,2,3,2
1558434466933158,0,1,2,-1,2,-6,-4,0
1558434466942134,-1,-2,-1,6,2,1,-1,0
1558434466942134,0,3,6,3,2,4,4,3
1558434466955325,-4,-5,-11,-6,-6,-4,-4,-6
1558434466955325,2,5,19,10,3,-4,4,2
1558434466964235,1,-3,-11,-8,-5,-7,-6,0
1558434466964235,-1,-1,3,0,-3,4,-1,-3
1558434466979228,-1,-1,-6,1,2,-6,-4,0
1558434466979228,0,1,1,-4,-3,1,-2,-1
1558434466981192,-1,-2,7,9,6,0,2,0
1558434466981192,1,-2,-2,2,-3,-7,0,1
1558434466993156,0,1,2,-2,1,3,2,-1
1558434466993156,-1,0,-4,4,2,3,-1,-2
1558434467002132,-1,-3,2,1,-2,1,-1,-6
1558434467002132,-4,-4,-12,-23,-10,-4,-4,-2
1558434467025121,1,1,6,6,7,5,4,0
1558434467025121,1,2,2,2,2,0,-1,-3
1558434467026069,0,-3,-5,-5,-4,-2,-2,0
1558434467026069,-1,0,9,14,4,5,3,1
1558434467040079,0,0,-7,-13,-4,-3,-5,-3
1558434467040079,-2,-1,2,3,-1,0,0,-2
1558434467041033,2,1,-4,-3,4,-3,2,3
1558434467041033,1,2,8,11,7,4,3,0
1558434467053036,0,-4,-8,-8,-9,-6,-5,-4
1558434467053036,-2,-2,-2,2,3,-2,-3,-3
1558434467062001,-1,2,6,8,7,0,2,2
1558434467062001,-2,-2,-7,-11,-9,-1,-7,-4
1558434467075938,0,-4,-7,-8,-7,-3,-5,1
1558434467075938,-1,-2,1,7,-4,0,-4,-5
1558434467084911,-1,-1,-2,-20,2,5,2,-1
1558434467084911,0,2,6,6,-2,-6,-1,-2
1558434467097878,-3,-1,0,3,0,-6,0,0
1558434467097878,-1,-4,-3,-8,2,4,2,2
1558434467106854,-2,-3,-4,-1,-8,-3,-5,-4
1558434467106854,0,-2,-1,1,2,3,0,-1
1558434467112837,-1,2,0,0,-6,-5,2,1
1558434467112837,-2,-5,-2,0,-1,-3,-4,-3
1558434467121812,0,3,4,13,3,4,3,1
1558434467121812,-1,-5,-9,-21,-1,-3,1,-1
1558434467135802,0,0,3,2,5,4,2,0
1558434467135802,-2,-3,-10,-4,1,-5,1,1
1558434467144750,-2,-1,-1,-3,-10,-5,-10,-3
1558434467144750,-2,0,0,7,-5,-5,-5,-2
1558434467158854,1,-2,2,6,10,12,4,0
1558434467158854,2,-3,-8,-9,-5,-1,2,3
1558434467165694,-4,0,4,-4,1,7,5,-1
1558434467165694,1,1,1,3,-6,-14,-7,0
1558434467173716,0,1,4,4,0,-5,-1,1
1558434467173716,-2,-1,-6,-13,-13,-4,-3,0
1558434467181652,-3,-6,-8,2,1,8,-4,-6
1558434467181652,-2,-1,3,9,7,1,5,2
1558434467195665,1,4,1,-8,-3,-7,5,2
1558434467195665,-1,0,6,5,5,3,2,0
1558434467204590,-1,-1,-5,-9,-5,-8,-4,-1
1558434467204590,1,1,3,1,-1,6,1,-2
1558434467218587,-2,-2,4,-2,-4,-9,-8,-4
1558434467218587,0,-1,0,7,1,-5,-1,1
1558434467225577,-1,-2,2,0,-3,-4,-2,-2
1558434467225577,-5,-8,-15,-9,-3,4,-1,-2
1558434467233518,2,5,10,15,10,3,7,6
1558434467233518,-2,0,1,-12,-4,1,-3,-4
1558434467242607,-1,0,1,2,-5,-2,-3,-2
1558434467242607,2,2,8,10,-2,0,1,-2
1558434467255602,-5,-7,-20,-9,-4,-7,-7,-5
1558434467255602,1,1,-1,-5,-4,-4,3,1
1558434467264544,-1,-2,-1,2,2,-4,-1,2
1558434467264544,-3,-2,-4,-9,-2,4,-3,-4
1558434467279550,-2,-2,1,8,-1,5,2,0
1558434467279550,3,3,6,8,14,4,3,3
1558434467285484,1,-1,-5,-10,-12,-4,-3,0
1558434467285484,-4,-5,-3,0,-2,-1,1,-1
1558434467302442,-2,-1,-1,0,2,6,-3,-2
1558434467302442,-1,-1,0,0,-4,-11,-3,-3
1558434467304433,-3,-3,-9,-4,1,1,0,-2
1558434467304433,1,2,6,1,11,10,3,3
1558434467315404,-2,-5,-17,-11,-11,-7,-5,-3
1558434467315404,-2,-1,5,6,0,8,3,-2
1558434467324421,2,3,6,9,6,-6,-1,1
1558434467324421,-2,-2,-4,3,-4,1,-5,-6
1558434467338382,-4,-3,-2,-13,3,5,1,0
1558434467338382,-2,-2,3,2,1,-2,2,1
1558434467345481,0,-1,-2,-4,-5,-11,-3,-1
1558434467345481,-2,-1,8,9,0,-7,-3,-2
1558434467362441,-1,1,-2,-1,2,9,2,1
1558434467362441,-1,-3,-5,-3,-2,1,-5,-5
1558434467363310,0,1,3,4,11,5,3,3
1558434467363310,-1,-1,-4,-10,-14,-11,-5,1
1558434467375346,-3,-4,-6,1,-10,-6,-3,-2
1558434467375346,0,1,4,0,3,4,4,0
1558434467384286,-1,-2,-5,-7,-5,-5,-4,-4
1558434467384286,0,0,1,1,-1,-2,-6,-4
1558434467399214,-1,0,7,4,2,3,4,-1
1558434467399214,-2,-1,-10,-11,0,-9,-4,1
1558434467405199,0,0,4,8,2,4,3,0
1558434467405199,-1,-3,-14,-15,3,2,2,2
1558434467422126,0,2,0,-14,-7,-6,-3,-1
1558434467422126,-1,0,5,3,-3,4,-4,-4
1558434467423124,1,0,-5,-5,-6,-7,-1,1
1558434467423124,-1,-3,1,5,-1,-2,-2,-1
1558434467436128,2,1,2,0,0,-5,3,1
1558434467436128,0,0,1,6,1,2,-2,0
1558434467451041,-3,-2,-6,-8,-4,-2,-9,-3
1558434467451041,2,0,-1,4,5,1,4,1
1558434467459069,-1,1,3,3,0,2,1,2
1558434467459069,-2,-2,-4,-6,-11,-10,-3,-3
1558434467466005,-3,-3,3,6,0,2,-1,-1
1558434467466005,-1,2,-3,-3,2,7,2,1
1558434467481959,-4,-5,-5,-9,-7,-7,-5,-4
1558434467481959,0,0,1,2,11,3,2,1
1558434467483956,-1,-1,1,-1,-2,-1,0,2
1558434467483956,-1,1,9,8,3,-2,-1,0
1558434467504900,2,1,0,-1,-7,-10,-5,0
1558434467504900,-2,-6,-7,0,-5,-3,-4,-3
1558434467505897,0,-3,-2,-8,1,7,1,-3
1558434467505897,-1,0,4,4,-2,-8,-3,0
1558434467518910,-2,-2,8,2,0,2,-4,-5
1558434467518910,0,-4,-13,-5,-3,1,2,-2
1558434467525841,0,0,4,0,1,1,1,1
1558434467525841,-1,-3,-7,-14,-8,-3,3,0
1558434467541828,2,-1,4,3,1,-3,-1,0
1558434467541828,-2,1,3,4,-4,-4,-3,0
1558434467543793,-2,-2,0,3,3,6,3,0
1558434467543793,-1,-1,-8,-8,-4,-5,-4,0
1558434467555762,1,2,6,15,13,6,3,1
1558434467555762,0,-1,-2,-4,-9,-7,-2,0
1558434467564739,-4,-2,-5,-10,-10,-4,-2,-4
1558434467564739,-1,-1,1,2,-4,-1,-5,-4
1558434467578700,-2,-4,-6,0,5,-1,-2,0
1558434467578700,0,0,2,7,10,7,5,3
1558434467585680,1,2,5,2,-1,-2,-1,-1
1558434467585680,-1,-4,-6,-7,-5,-1,0,-1
1558434467601637,-1,-1,2,5,-2,-2,-1,-3
1558434467601637,1,1,5,3,1,3,2,1
1558434467603632,-1,-2,-5,-3,-6,-7,-4,-4
1558434467603632,0,0,0,1,7,4,5,0
1558434467615600,-3,-3,-5,-1,-4,-3,-5,-3
1558434467615600,-1,-1,0,-19,-5,-3,-5,-2
1558434467624578,0,2,6,3,3,2,1,1
1558434467624578,-1,-2,-5,1,5,3,-1,-1
1558434467638539,-1,0,-3,-3,-1,-2,2,0
1558434467638539,-2,-1,2,4,-5,-7,-5,-2
1558434467647515,-2,-4,-10,-7,-2,3,-1,-2
1558434467647515,-2,-3,3,7,6,0,-3,-1
1558434467662474,1,1,1,-1,-3,4,4,3
1558434467662474,-3,-5,-12,-19,-7,-3,-1,-4
1558434467663472,-1,-1,-4,-2,-3,-4,-2,-4
1558434467663472,1,1,1,2,0,-1,1,1
1558434467675468,-3,-2,1,-2,-2,2,-4,-3
1558434467675468,-4,-3,2,7,-2,-5,-5,-3
1558434467684416,-1,-1,-2,5,6,6,3,0
1558434467684416,0,-1,-2,-3,0,-5,1,1
1558434467698381,-2,-1,-2,-4,-3,-5,-4,-1
1558434467698381,2,1,-1,2,2,4,5,4
1558434467707354,-1,2,2,-1,-1,-3,-2,0
1558434467707354,-3,-5,-1,-1,-7,-6,-9,-5
1558434467722315,0,-2,-1,-2,2,5,3,-1
1558434467722315,-1,-1,-6,3,0,-6,-2,0
1558434467723313,0,1,1,-3,-4,1,-2,-1
1558434467723313,1,4,7,-1,-1,-2,2,0
1558434467735281,0,-2,-13,-6,-2,1,-1,-2
1558434467735281,1,0,1,2,2,1,-3,1
1558434467744256,0,-1,-1,4,3,1,-2,-1
1558434467744256,-2,-2,0,-3,-5,-4,2,-1
1558434467758219,-2,-3,-3,-1,1,-1,3,2
1558434467758219,-1,2,6,1,2,3,-2,-1
1558434467767195,-2,-5,-16,-4,-2,-4,2,-1
1558434467767195,-2,-2,0,-5,-5,4,-1,-3
1558434467782156,2,2,5,7,5,-1,-2,0
1558434467782156,2,-1,0,-1,0,-4,-2,3
1558434467783153,-3,-2,-2,-8,-4,-4,-1,-3
1558434467783153,-3,-3,-3,3,1,-1,-5,-2
1558434467795120,1,0,-3,-2,-10,-5,-3,-2
1558434467795120,-1,-1,-1,-15,-1,3,-1,-2
1558434467804095,1,0,5,8,11,8,4,4
1558434467804095,1,-1,-3,0,-1,-3,2,2
1558434467818058,-1,-2,-2,6,-4,-1,-4,-3
1558434467818058,-1,0,4,3,0,1,1,1
1558434467827035,-1,0,-1,-2,-4,-8,-6,-2
1558434467827035,-1,-1,-1,0,-2,0,1,-1
1558434467842030,-1,-1,8,7,-1,1,-2,0
1558434467842030,-2,-4,-14,-5,-5,-3,-4,-5
1558434467843027,0,-1,-2,-5,0,-1,4,2
1558434467843027,-1,2,6,7,0,3,1,2
1558434467855957,-4,-10,-14,-20,-7,-5,-3,-2
1558434467855957,3,2,4,8,5,-2,1,1
1558434467864933,-2,-1,3,0,0,1,1,-3
1558434467864933,1,-1,-3,3,1,-4,-4,0
1558434467877898,-1,-1,3,-1,-3,-1,-1,-2
1558434467877898,-3,-2,-4,-8,-5,-2,-2,-2
1558434467886874,3,0,3,3,0,-11,-3,2
1558434467886874,0,0,-2,-2,7,10,8,1
1558434467901835,-1,1,1,-1,-3,-7,-3,-4
1558434467901835,0,-1,-3,0,-4,-5,-5,-2
1558434467903829,-2,-3,-4,1,-3,-1,-4,-5
1558434467903829,-1,1,1,2,-2,0,0,0
1558434467915798,1,1,5,-7,1,-3,0,2
1558434467915798,-4,-5,-13,0,-6,-6,-3,-3
1558434467924773,-3,-5,-9,-12,0,4,4,-2
1558434467924773,1,-2,4,3,6,-2,-4,-2
1558434467937754,0,-1,-2,2,-3,4,-5,-2
1558434467937754,-2,-1,7,3,-1,-2,0,0
1558434467946715,-1,-1,-6,-11,-7,4,-2,-2
1558434467946715,-1,-1,-4,-7,-9,-10,-4,-2
1558434467961674,-2,-3,-11,-7,-3,-2,-4,-4
1558434467961674,-2,0,3,7,1,-1,0,-2
1558434467963669,1,0,3,7,5,6,1,3
1558434467963669,-1,0,4,-1,9,9,2,-3
1558434467975637,1,3,3,-3,-4,-1,5,3
1558434467975637,-2,-3,1,-4,-5,0,-4,-3
1558434467984613,-4,-6,-7,2,-1,-5,-4,-4
1558434467984613,-2,-3,-5,-6,-7,2,-3,-2
1558434467998577,-1,1,3,2,7,-1,3,0
1558434467998577,0,0,7,-1,2,6,0,0
1558434468006556,0,-2,-4,0,-1,-3,-6,-2
1558434468006556,0,0,1,1,3,7,4,1
1558434468021515,-2,0,1,4,2,-5,-6,0
1558434468021515,1,-1,-3,2,0,2,2,1
1558434468023511,-3,-1,3,0,-7,-2,-5,-7
1558434468023511,0,0,-3,-2,-5,-17,-5,1
1558434468035476,3,1,4,3,8,9,9,5
1558434468035476,-2,-2,2,-2,1,0,1,-1
1558434468044454,-2,-3,-7,-4,-5,-5,-1,0
1558434468044454,-1,0,2,0,-3,-4,-3,-3
1558434468058415,-2,-1,-1,-2,0,1,1,-1
1558434468058415,-3,-1,-5,2,2,2,-2,-2
1558434468067393,0,0,3,5,3,-1,1,0
1558434468067393,1,-1,1,-2,2,2,2,2
1558434468081354,-1,-3,-8,-7,-4,-6,-3,-3
1558434468081354,0,1,3,3,1,1,0,0
1558434468088339,0,-1,-2,-2,-1,-3,-6,-2
1558434468088339,-3,-5,-4,-3,-10,1,-6,-7
1558434468095317,-2,-4,2,3,4,-2,-3,-1
1558434468095317,0,2,6,3,10,-1,4,6
1558434468104311,1,2,1,0,-1,0,4,4
1558434468104311,-5,-4,-4,-3,-4,-9,-3,-3
1558434468118256,-3,-1,-7,-3,-3,4,0,-1
1558434468118256,0,-3,-6,-5,-7,-7,-3,-1
1558434468127232,-2,0,1,0,-2,-2,1,1
1558434468127232,-1,-3,-6,-6,-2,3,-3,-3
1558434468141195,-3,-2,4,5,-6,-3,-3,-4
1558434468141195,0,-2,-2,-2,10,7,3,2
1558434468148177,-2,-1,3,3,-5,-4,-4,-5
1558434468148177,2,0,-5,-15,4,8,8,5
1558434468155156,1,2,4,8,4,-4,1,0
1558434468155156,0,-4,-3,-2,0,6,3,-1
1558434468164132,-2,-1,4,5,1,-2,-4,-2
1558434468164132,0,0,8,3,-2,-1,-5,-4
1558434468178095,-2,-4,-11,-6,-5,0,-4,-4
1558434468178095,-3,-2,-5,-7,-8,-3,-6,-5
1558434468187071,1,2,4,6,11,1,9,7
1558434468187071,0,2,6,8,-1,-8,1,2
1558434468201034,-2,-2,-8,-22,-7,1,-2,0
1558434468201034,-2,-4,-4,2,-5,-6,-3,-1
1558434468208017,-2,-1,-1,-1,-2,4,-4,-5
1558434468208017,0,-1,-4,2,0,3,-1,0
1558434468215995,-2,-3,-2,7,3,4,-4,-3
1558434468215995,-1,2,1,-10,-6,-5,0,0
1558434468231967,-2,-1,-1,-3,4,5,3,3
1558434468231967,0,-1,-4,0,6,5,5,1
1558434468237937,-2,-3,-1,1,-3,-9,-5,-4
1558434468237937,0,-1,-3,-5,-5,3,0,0
1558434468246912,-2,-1,3,0,-4,-5,-3,-1
1558434468246912,1,2,1,0,-3,-7,-3,0
1558434468260873,-3,-2,7,-1,-1,0,-2,-3
1558434468260873,2,-2,-5,14,4,-4,0,-1
1558434468267856,2,0,1,-10,1,-7,1,-1
1558434468267856,-3,-2,-4,-10,-7,-2,-8,-5
1558434468284811,0,0,2,0,7,5,4,3
1558434468284811,-1,2,3,0,-2,4,1,-2
1558434468285807,0,-3,-3,6,-6,1,-2,-1
1558434468285807,-2,-2,-5,-5,4,2,3,3
1558434468297775,1,1,3,7,-1,1,6,4
1558434468297775,-3,-5,-4,-5,-7,-9,-9,-6
1558434468306751,1,2,0,1,7,8,4,2
1558434468306751,1,1,5,7,11,5,10,2
1558434468321746,0,1,-3,6,-4,-6,-4,-1
1558434468321746,-3,-3,-5,-12,-9,-8,-4,-3
1558434468327695,-1,0,-4,-12,-7,-8,-6,-1
1558434468327695,-2,-3,0,4,-7,1,-7,-6
1558434468344651,2,0,-5,0,7,1,3,0
1558434468344651,-1,-1,3,3,3,2,2,1
1558434468345648,-2,1,3,-6,-6,-4,-4,-3
1558434468345648,-4,-4,-16,-2,1,-1,-2,-2
1558434468358612,-3,1,3,6,-2,1,0,-1
1558434468358612,0,2,-4,-2,7,0,2,2
1558434468366592,-2,-2,-4,-6,-5,-6,-3,-2
1558434468366592,-2,-2,-3,2,-2,6,-1,-3
1558434468382550,-1,1,0,-18,-8,-7,-4,-1
1558434468382550,-1,-1,-2,2,-2,6,1,-2
1558434468396560,1,0,-3,-4,1,-9,1,3
1558434468396560,0,-1,0,1,1,-2,-2,2
1558434468404852,-3,-4,-7,-4,-2,3,0,-2
1558434468404852,-2,-1,2,-7,-6,-4,-4,-3
1558434468406485,-5,-5,-9,0,-12,-9,-5,-6
1558434468406485,-2,-3,2,-3,-5,-7,-6,-4
1558434468418812,0,-2,1,0,6,6,1,1
1558434468418812,0,-1,-3,6,7,7,7,3
1558434468434631,-1,2,7,4,-1,0,-1,-3
1558434468434631,-2,-2,-7,-8,-9,-5,-2,-1
1558434468441621,0,1,3,5,-1,-6,-1,0
1558434468441621,-2,-2,-1,-4,-7,-2,-3,-4
1558434468448374,-1,-2,-13,0,12,10,5,4
1558434468448374,-2,-3,3,-2,-6,-10,-7,-3
1558434468464332,-1,-4,-8,-10,-5,2,1,-3
1558434468464332,-1,3,10,14,8,0,1,2
1558434468466328,0,0,0,-6,-2,-4,1,1
1558434468466328,-1,-2,0,-3,-2,-1,-2,-2
1558434468478623,0,-1,-2,-1,-6,-7,-5,-3
1558434468478623,-1,-2,-2,-2,-2,-2,-2,-3
1558434468487268,-2,0,3,11,4,6,1,0
1558434468487268,1,-1,-3,-11,1,5,4,0
1558434468501268,2,1,4,3,-4,-7,-1,1
1558434468501268,-1,1,6,2,1,-3,-3,1
1558434468508256,1,-1,0,-4,-8,-5,-4,-2
1558434468508256,2,0,-1,7,11,6,4,4
1558434468524207,-1,0,5,7,10,10,7,1
1558434468524207,-3,-2,-8,-8,-11,-10,-5,-2
1558434468526207,-1,-1,0,1,-5,-5,-5,-3
1558434468526207,1,0,-2,-2,0,-3,1,0
1558434468538133,-1,-1,-3,-12,-3,-8,-5,0
1558434468538133,0,-1,-3,1,6,8,3,0
1558434468547109,-3,-3,-1,-9,-12,-3,-7,-6
1558434468547109,-3,-2,0,8,4,4,-1,0
1558434468561073,0,0,2,8,0,-7,0,3
1558434468561073,0,-3,-7,-17,-8,-4,0,-2
1558434468568056,-2,-1,2,6,5,0,3,2
1558434468568056,-2,-2,-2,-9,-6,-4,-4,-4
1558434468584009,-2,0,3,6,1,4,-1,-3
1558434468584009,-1,-1,-2,-1,-1,-7,-3,-1
1558434468586006,-2,0,-1,0,2,6,1,-2
1558434468586006,1,0,3,7,7,3,1,4
1558434468597973,-2,-2,-1,5,-6,-2,3,-1
1558434468597973,-1,1,3,4,2,2,-4,-2
1558434468606948,-1,-8,-17,-12,4,4,3,0
1558434468606948,-3,1,-2,-13,-10,-13,-5,-1
1558434468620910,-1,-1,-5,-5,-2,-2,-3,-3
1558434468620910,1,1,6,9,1,0,1,-1
1558434468627894,-1,-2,-3,2,-2,5,-3,-1
1558434468627894,0,0,2,3,-1,-5,3,0
1558434468644848,-2,-1,-3,-4,0,-1,-3,-2
1558434468644848,0,1,2,-3,-6,-8,-1,2
1558434468645845,0,-2,1,4,4,1,0,-2
1558434468645845,-4,-1,1,0,-7,0,-4,-5
1558434468657811,-1,1,-1,-1,11,11,6,2
1558434468657811,0,-3,-2,-1,4,2,-2,1
1558434468666794,-1,-3,-2,-4,-3,3,2,-1
1558434468666794,-4,0,1,1,-4,-2,-5,-3
1558434468681750,-4,-3,1,-1,-4,-1,-2,-2
1558434468681750,-3,-3,-6,2,3,4,-4,2
1558434468687753,1,4,4,-7,-1,-2,6,5
1558434468687753,2,1,4,4,0,-7,1,2
1558434468704720,-2,-8,-20,-18,-5,3,-2,-2
1558434468704720,-1,-3,-3,0,0,2,2,0
1558434468705684,-2,-1,5,3,-3,-8,-6,-4
1558434468705684,1,1,-1,-2,-5,-3,-4,0
1558434468717695,0,-1,-3,-3,1,-2,-6,-4
1558434468717695,-1,1,2,4,4,8,8,1
1558434468726687,0,-3,-1,1,-1,-5,-2,-2
1558434468726687,-3,-3,-2,4,-4,-2,-1,-2
1558434468741587,0,2,8,-4,4,10,-1,0
1558434468741587,-4,-3,-13,-13,-3,-7,1,-2
1558434468748570,-1,0,1,-5,-1,-4,-1,0
1558434468748570,-1,-3,-10,-6,-3,-2,-4,-2
1558434468764528,-1,-3,3,8,2,2,-1,-1
1558434468764528,-1,1,5,3,-4,-9,-7,-3
1558434468765524,2,2,-2,-1,3,2,4,2
1558434468765524,-2,-2,-3,3,4,7,4,-2
1558434468778523,-2,1,-1,-1,-8,-14,-5,-1
1558434468778523,-1,-4,-4,-3,6,6,2,-2
1558434468787466,-3,-1,1,3,-2,0,-3,-2
1558434468787466,0,-1,4,9,3,1,-2,1
1558434468801455,-1,-2,-6,-15,-3,1,2,2
1558434468801455,-3,-3,-2,-7,-9,-5,-6,-5
1558434468808410,-3,-4,-3,0,3,2,1,-1
1558434468808410,1,3,4,1,-4,-2,0,0
1558434468824570,-1,0,-2,1,-5,-9,-4,-1
1558434468824570,-1,0,0,7,-5,-11,-2,-1
1558434468826691,1,-1,-2,2,6,2,0,2
1558434468826691,0,1,0,-1,7,8,7,1
1558434468838331,-3,-4,-7,-4,-5,-3,-1,-2
1558434468838331,-1,1,4,-7,-6,-1,-1,-3
1558434468847308,-3,-3,-9,2,-7,-8,-9,-5
1558434468847308,0,1,2,-1,2,0,2,2
1558434468861643,0,1,3,5,6,3,2,1
1558434468861643,1,0,-2,1,2,0,1,0
1558434468868537,-2,-2,3,3,-4,-2,-6,-4
1558434468868537,-1,-1,0,6,0,0,-1,-1
1558434468885317,2,1,-6,-12,-5,-3,1,3
1558434468885317,-2,-1,0,-1,-5,-6,1,0
1558434468886205,0,0,3,-3,-2,-3,-1,1
1558434468886205,-4,-2,-2,-8,-8,-8,-3,-4
1558434468898172,-1,0,4,8,7,-3,-1,2
1558434468898172,-1,-1,-1,2,0,4,4,1
1558434468908145,-2,-3,-2,-6,3,3,0,-3
1558434468908145,-2,-4,-9,-12,-5,0,-2,-2
1558434468921401,-2,-3,1,-1,-3,-3,-5,-3
1558434468921401,0,0,0,5,11,8,5,4
1558434468928361,-3,1,0,1,-9,-5,-6,-4
1558434468928361,-2,-3,-4,-1,1,3,-5,-4
1558434468945055,1,0,0,1,-3,-5,0,-2
1558434468945055,-2,-2,1,3,0,3,-2,-1
1558434468951298,1,1,5,-1,3,1,6,2
1558434468951298,1,-1,-4,2,1,-7,2,3
1558434468958009,-4,-4,-9,0,-9,-7,-7,-5
1558434468958009,-2,-2,-7,-19,2,8,-1,-3
1558434468966987,-1,0,2,-4,-9,1,-2,-1
1558434468966987,0,0,0,-2,-2,-9,0,1
1558434468980984,0,1,6,4,3,1,0,0
1558434468980984,-3,-3,-3,3,1,-3,-3,-3
1558434468987931,-1,-1,-7,1,-3,-3,4,0
1558434468987931,-2,-4,1,-3,-2,1,-5,-7
1558434469003888,-1,-3,0,5,1,3,2,0
1558434469003888,3,-2,-2,-10,6,2,1,2
1558434469011237,0,-2,0,-1,-2,-6,0,-1
1558434469011237,-2,-2,-2,-3,-1,-2,-3,-3
1558434469018851,0,2,6,8,-7,-10,-5,-1
1558434469018851,0,0,-2,4,-2,-10,-2,3
1558434469027059,0,-1,-1,-1,8,6,3,1
1558434469027059,-1,1,-4,-6,-1,1,-2,0
1558434469042078,-4,-8,-14,-10,-3,-2,-2,-4
1558434469042078,-1,-1,3,5,-8,-3,-6,-4
1558434469047773,0,0,1,-2,-1,4,0,-2
1558434469047773,-2,0,3,4,-2,-1,0,0
1558434469063974,0,-1,-2,-3,-1,0,1,0
1558434469063974,1,-2,-2,-1,6,7,2,2
1558434469070738,-2,-2,-7,-3,-2,-1,-4,-1
1558434469070738,1,-2,-3,-10,-5,3,0,-3
1558434469078993,-1,1,3,4,6,1,0,-2
1558434469078993,-1,-2,-1,-3,-7,-5,-1,-1
1558434469086973,-1,1,5,8,-1,-6,-3,3
1558434469086973,-1,-4,-5,-4,-1,1,1,1
1558434469101909,-4,-3,1,-5,-3,-2,-1,-1
1558434469101909,-2,-3,-2,-1,-8,-4,-8,-6
1558434469108940,-2,-3,-5,1,5,5,8,2
1558434469108940,1,4,10,12,5,2,2,1
1558434469124674,-2,-5,-12,-9,-3,-1,-1,1
1558434469124674,0,1,2,-1,0,-3,-3,-1
1558434469130649,-2,-3,-9,-17,-10,-6,-6,-5
1558434469130649,1,1,6,8,9,6,3,2
1558434469138606,2,0,3,-4,-10,-1,-1,0
1558434469138606,-2,-1,-1,6,4,5,6,-2
1558434469146583,-2,1,13,3,-2,-5,-8,-1
1558434469146583,-3,-4,-15,-6,-2,-6,-1,0
1558434469161542,1,1,2,0,6,0,-3,-2
1558434469161542,-2,-2,-2,2,-8,-10,-6,-1
1558434469168524,3,4,4,-7,14,12,9,2
1558434469168524,-4,-4,-8,-12,-8,1,0,-4
1558434469183484,-4,-4,-4,-9,-11,-5,-7,-5
1558434469183484,0,1,2,7,-2,-8,-2,2
1558434469190876,-3,-5,-10,2,-3,-5,-8,-5
1558434469190876,0,-2,2,5,5,9,2,2
1558434469207497,0,4,6,3,6,2,4,3
1558434469207497,-3,-2,-1,1,4,5,5,-1
1558434469208418,-1,1,0,2,-2,-8,-3,0
1558434469208418,-1,0,-3,-2,-8,-9,-3,-1
1558434469221630,-1,-1,3,8,3,0,-3,-2
1558434469221630,-1,-1,-2,-13,-1,0,-3,-4
1558434469228606,-3,-3,-1,-2,-5,1,0,-3
1558434469228606,-2,-2,-1,-1,1,-3,-3,-1
1558434469244552,-1,-3,4,6,0,4,1,-1
1558434469244552,-3,2,-1,0,-2,-5,-5,-3
1558434469250645,-2,-5,-12,-16,2,2,0,1
1558434469250645,0,0,0,0,5,-4,-1,-1
1558434469267603,0,0,2,-2,-7,3,-2,-2
1558434469267603,-1,-2,-2,-2,-6,-4,-1,0
1558434469268259,-2,-3,0,3,-12,-4,-3,-4
1558434469268259,-1,1,6,7,6,1,3,4
1558434469281222,-1,-2,-8,-4,1,-3,-2,-2
1558434469281222,2,-1,0,2,2,-3,3,2
1558434469288363,-1,1,6,8,0,0,0,-1
1558434469288363,3,3,5,6,-3,1,-2,1
1558434469304290,-1,-4,-9,-7,1,-9,2,2
1558434469304290,-3,-3,-2,-9,-5,2,-2,-3
1558434469310284,1,0,4,9,7,6,3,0
1558434469310284,3,0,-2,-7,0,1,-3,-3
1558434469327245,-1,1,3,15,5,12,8,2
1558434469327245,-1,-1,6,-17,-3,-6,-6,-1
1558434469328209,-2,-4,-18,3,-3,-2,0,1
1558434469328209,-3,0,-1,-9,-5,0,-1,-2
1558434469341210,-2,-1,2,7,10,8,2,1
1558434469341210,1,1,3,8,1,-1,0,-1
1558434469348155,-1,-2,3,-4,-8,-5,-5,-4
1558434469348155,0,-2,-3,2,-8,-16,-3,-3
1558434469364112,1,0,-4,-10,1,5,3,2
1558434469364112,-3,-2,3,10,9,6,4,1
1558434469370124,-3,-3,-12,-33,-8,-4,-3,-2
1558434469370124,-4,-4,-7,1,-4,-5,-3,-3
1558434469387079,2,2,2,-2,0,0,1,1
1558434469387079,0,-2,-5,-3,-6,-6,-6,-2
1558434469388048,1,0,1,7,0,0,-1,-3
1558434469388048,-3,-2,1,-1,1,2,-2,-1
1558434469401042,1,2,4,2,7,5,5,3
1558434469401042,-1,-1,-6,3,1,4,2,-1
1558434469408023,0,1,7,6,-4,-6,-5,-2
1558434469408023,0,-2,-2,-10,-4,1,-1,1
1558434469424050,1,1,2,1,2,-2,3,4
1558434469424050,-1,-3,-11,-10,-5,-4,-5,-2
1558434469438012,-1,1,5,-2,-1,1,-2,-5
1558434469438012,-2,-2,-4,1,5,12,4,1
1558434469446993,2,3,7,2,5,-3,0,3
1558434469446993,-1,-2,-4,-3,-2,-2,5,2
1558434469447978,1,1,8,7,2,-5,-3,0
1558434469447978,-3,-3,0,-4,-3,-2,-7,-5
1558434469460963,-2,-2,-4,0,-3,4,-4,-5
1558434469460963,-2,0,0,-10,-4,-4,-9,-4
1558434469469898,0,-2,-5,-2,0,-4,0,1
1558434469469898,2,1,3,5,7,1,9,5
1558434469483892,-3,-4,-6,-11,-3,-1,-2,-4
1558434469483892,-2,-3,-8,-7,-11,-8,-5,-3
1558434469490873,1,1,-2,1,4,4,5,2
1558434469490873,-2,-2,-6,-3,-7,-11,-8,-3
1558434469506830,-1,-2,4,3,-2,-3,-4,-3
1558434469506830,-1,-1,-1,4,3,4,0,0
1558434469508831,1,1,1,3,-1,-7,-1,4
1558434469508831,-1,1,2,-1,5,2,4,0
1558434469520793,-1,-1,2,8,-2,0,-5,-4
1558434469520793,-1,-3,-5,-9,-7,0,-2,-3
1558434469529740,-3,-1,-5,-3,-2,-4,-2,-1
1558434469529740,1,-1,2,6,5,3,2,0
1558434469543702,-4,-4,-11,-6,-11,-1,-7,-5
1558434469543702,2,3,9,8,-2,-7,-3,0
1558434469550685,0,0,0,3,3,5,7,2
1558434469550685,-3,-6,-5,-6,-8,-5,-3,-2
1558434469566640,-2,0,2,4,2,0,0,-1
1558434469566640,-1,0,-2,-11,1,0,-4,-1
1558434469568634,1,0,-1,-1,3,7,5,-1
1558434469568634,-2,0,2,2,-5,-3,-1,-6
1558434469580605,0,0,3,-1,0,-4,2,-2
1558434469580605,-2,-4,1,6,7,5,3,-3
1558434469589579,-1,-1,-4,-10,-7,0,-4,-1
1558434469589579,3,5,6,3,5,3,6,5
1558434469603542,0,0,-4,2,2,1,2,1
1558434469603542,-1,-1,3,10,2,-1,-1,-1
1558434469610558,-3,-2,-3,-5,-5,-3,-5,-5
1558434469610558,-2,-3,-4,0,-9,0,-5,-6
1558434469627657,2,0,-3,1,-2,-15,-4,0
1558434469627657,-1,0,-1,-1,6,10,11,0
1558434469628480,0,-1,2,-6,-10,-7,-7,-4
1558434469628480,0,0,-6,-5,2,4,0,0
1558434469641471,-3,-2,1,1,-1,0,-2,-3
1558434469641471,0,-2,-13,-5,-4,-7,0,1
1558434469649784,1,-2,3,4,5,4,2,1
1558434469649784,-1,1,-1,9,0,2,-3,-1
1558434469663740,-2,-5,-5,-17,-6,2,-1,-5
1558434469663740,-1,1,4,2,-1,-5,-6,0
1558434469670750,1,1,1,8,8,3,3,5
1558434469670750,0,1,1,-4,-5,-5,-5,-3
1558434469686936,-5,-6,-8,-12,-11,-3,-4,-3
1558434469686936,3,3,3,6,6,3,8,3
1558434469688672,-2,-3,-4,1,-3,-4,-4,-4
1558434469688672,-3,-3,-5,-7,0,2,-1,-1
1558434469700928,-1,1,-1,-1,-3,-7,-4,-1
1558434469700928,-2,-1,1,-1,-6,-1,-2,-3
1558434469709619,-3,-4,-11,1,7,2,2,1
1558434469709619,1,0,11,-5,-5,-7,-3,-3
1558434469724632,1,0,-5,0,-3,-4,-1,1
1558434469724632,-1,-1,1,4,2,5,2,-1
1558434469730563,-3,-1,-1,3,5,10,0,-3
1558434469730563,0,-3,-4,-12,-9,-6,-3,-2
1558434469746797,5,5,11,8,9,-2,3,6
1558434469746797,-1,0,-3,-4,-5,2,-1,-2
1558434469748511,-2,-2,-2,-2,1,-3,1,-4
1558434469748511,-4,-6,-10,0,0,5,-1,-1
1558434469769454,0,4,9,-2,-2,7,3,0
1558434469769454,1,3,11,11,8,-3,2,3
1558434469770453,-1,0,-1,-4,-3,-4,-3,-1
1558434469770453,-3,0,-7,-1,-1,4,3,-2
1558434469784557,-2,1,-1,4,-1,-6,-5,-3
1558434469784557,-1,-6,-14,-22,-5,5,-1,-1
1558434469791397,0,0,3,0,-1,-3,1,0
1558434469791397,-1,0,5,7,1,1,-4,1
1558434469807354,-1,-2,-19,-10,-6,-2,-3,-1
1558434469807354,-2,-4,1,1,-2,-4,-5,-4
1558434469808354,0,0,-2,-5,-7,1,-5,-3
1558434469808354,0,-3,-1,2,12,7,5,1
1558434469821320,-1,0,5,0,-5,-7,-1,-2
1558434469821320,0,1,3,9,3,1,1,2
1558434469829597,-3,-3,-4,-3,-5,-3,-6,-3
1558434469829597,-1,-4,-3,4,-3,-3,-3,-3
1558434469852542,2,2,6,1,6,-2,4,4
1558434469852542,-4,-5,-15,-14,-8,-2,-10,-7
1558434469853231,0,-1,4,8,12,6,10,3
1558434469853231,3,5,2,-2,-6,-11,2,3
1558434469867484,-2,-7,-6,-8,-7,0,-4,-3
1558434469867484,-2,-1,2,0,-1,-1,-4,-2
1558434469868406,-1,-3,-1,0,-4,-1,0,-1
1558434469868406,0,2,1,0,4,1,-3,0
1558434469880475,1,0,0,3,6,2,2,2
1558434469880475,-1,-1,6,0,-5,-6,-3,-3
1558434469889448,-2,-2,-11,-8,-7,-4,-7,-3
1558434469889448,0,-1,0,-1,1,2,0,-1
1558434469904136,-2,-4,-3,1,3,9,3,-2
1558434469904136,1,1,6,7,8,7,4,3
1558434469911382,-1,-3,-2,-4,-10,-6,-1,0
1558434469911382,-2,0,0,-11,-4,-2,-3,-3
1558434469928580,-1,0,0,6,2,-1,-3,-3
1558434469928580,1,-3,-8,-12,-1,-8,1,2
1558434469933306,-1,-1,3,4,1,-1,-1,-2
1558434469933306,-1,-2,-3,-1,0,3,1,-2
1558434469941291,-2,1,4,9,3,3,-2,1
1558434469941291,-3,-2,-15,-13,-7,3,2,0
1558434469949976,-2,1,5,0,-2,-7,-3,-6
1558434469949976,-3,-5,-9,-6,-8,-5,-3,-3
1558434469971917,0,-2,-3,-5,-2,3,-2,-4
1558434469971917,2,4,6,11,8,2,3,2
1558434469972911,-1,0,0,1,3,3,1,2
1558434469972911,-3,-5,-7,-6,-7,-7,-6,-2
1558434469985879,-2,-4,-1,-6,-8,-4,-3,-3
1558434469985879,0,-2,-1,-5,1,-6,-1,0
1558434469992860,2,0,-3,-4,0,-1,0,0
1558434469992860,1,2,10,9,-3,-6,-1,0
1558434470000837,-3,0,-2,1,-3,-2,-1,-1
1558434470000837,-5,-7,-12,-7,-6,-1,-5,-4
1558434470009811,2,5,10,8,7,-3,3,5
1558434470009811,1,0,0,-2,-4,-4,-2,-1
1558434470023811,-2,-3,-6,-4,-5,-3,-9,-4
1558434470023811,0,2,5,0,-1,-2,2,-1
1558434470030757,-2,-1,-2,-6,-1,-1,0,0
1558434470030757,-3,-3,-6,-2,2,3,1,-2
1558434470046715,0,1,6,6,0,0,-1,0
1558434470046715,-2,-1,-4,-19,-4,1,-3,-2
1558434470053817,-2,-6,-8,0,-6,1,-4,-2
1558434470053817,1,2,3,2,6,2,2,1
1558434470061028,0,-1,3,-4,-6,-3,0,-1
1558434470061028,1,2,6,12,1,-8,-3,-2
1558434470069652,-1,1,9,1,0,3,-2,-1
1558434470069652,-1,-2,-7,0,9,4,3,3
1558434470084660,-1,-3,-7,-5,-2,-4,-2,-1
1558434470084660,-1,-1,-2,-2,-7,2,0,-1
1558434470090946,0,-2,0,3,-1,-3,-5,-2
1558434470090946,0,0,-1,4,0,1,-3,0
1558434470107023,2,-1,-9,-11,-2,-3,3,0
1558434470107023,-5,-4,-1,-1,-3,3,-2,-4
1558434470113993,0,0,-3,-3,-1,-11,-6,-1
1558434470113993,-1,1,5,2,1,-1,3,1
1558434470129836,-2,0,1,4,3,3,0,0
1558434470129836,-2,-2,-4,-2,-5,-4,-5,-3
1558434470130491,0,-1,-3,2,2,3,1,0
1558434470130491,0,-1,-1,0,2,-5,-3,-1
1558434470143453,-1,1,0,-4,1,3,0,-1
1558434470143453,-1,-2,2,12,4,3,1,-1
1558434470150462,0,-1,-6,-4,-2,-3,-2,-1
1558434470150462,-1,-2,-3,-6,-5,-3,-4,0
1558434470166393,1,1,2,0,4,1,5,4
1558434470166393,0,2,11,8,-1,-2,-3,0
1558434470174372,-2,-2,-12,-7,-2,2,0,-2
1558434470174372,-3,0,2,2,0,-4,-2,-3
1558434470189333,-1,-2,1,-3,-5,-3,-5,-5
1558434470189333,-2,-1,-7,-7,2,2,0,1
1558434470191336,1,1,5,7,4,0,7,3
1558434470191336,-1,-2,1,3,-3,1,1,-2
1558434470203651,-1,-1,2,5,-2,-3,-5,-4
1558434470203651,0,1,-3,-4,-2,-3,1,0
1558434470218610,-1,-1,-2,-2,2,3,5,1
1558434470218610,-1,-1,-3,0,5,-1,0,0
1558434470226584,0,-1,1,7,1,4,2,1
1558434470226584,-1,-3,-4,-7,-2,4,-2,-2
1558434470233551,0,-3,-5,-1,-10,-13,-4,-2
1558434470233551,1,1,-2,-6,0,0,0,1
1558434470250303,-4,-3,-3,-1,-2,2,0,-2
1558434470250303,2,0,0,-2,1,-6,0,0
1558434470251167,-2,-1,6,3,2,10,-2,-2
1558434470251167,0,-1,0,-5,-9,-5,-4,-2
1558434470264132,-2,-2,-3,-8,-6,-6,-4,-3
1558434470264132,-3,-3,-9,0,-5,-3,-4,-1
1558434470272174,-1,1,3,1,3,1,1,1
1558434470272174,1,-3,-5,3,6,6,1,1
1558434470286072,-3,-5,-8,-8,-4,-2,-3,-2
1558434470286072,-2,-1,16,16,1,-1,-4,-2
1558434470293053,-3,-2,-16,-9,-7,-7,-2,-2
1558434470293053,-2,-1,-1,-2,2,6,3,1
1558434470309010,-1,-1,-2,0,4,-4,0,0
1558434470309010,-2,-3,-3,0,-5,1,0,-4
1558434470311006,1,2,9,9,5,4,2,0
1558434470311006,-2,1,-1,-4,-2,-8,-4,-5
1558434470323997,-3,-6,-12,-8,-6,0,0,1
1558434470323997,3,7,7,11,8,5,3,2
1558434470330952,-4,-5,-8,-14,-7,-2,-5,-4
1558434470330952,0,3,7,0,-6,-5,0,-3
1558434470346912,-3,-5,-8,0,5,4,1,3
1558434470346912,1,1,1,6,-1,-4,-5,-3
1558434470354892,-3,-3,-7,-13,-4,-1,-1,1
1558434470354892,0,-2,0,-1,-6,-7,-6,-4
1558434470369849,2,2,5,7,5,6,12,4
1558434470369849,-1,-3,-1,-3,-4,-6,-2,0
1558434470370846,-4,-1,0,-3,-4,-4,-2,-3
1558434470370846,-2,-2,-3,-10,-6,-3,-2,-1
1558434470384271,2,2,-1,-9,12,9,7,2
1558434470384271,-3,-3,-9,-7,-2,1,-1,-2
1558434470390794,0,0,3,2,-7,-5,-6,-3
1558434470390794,-1,-2,1,8,5,4,-1,2
1558434470406916,-3,-1,-2,0,-5,-10,-9,-5
1558434470406916,1,-1,2,-4,-5,-4,2,2
1558434470413731,0,0,-2,-7,-8,-2,0,-3
1558434470413731,2,2,4,11,6,10,8,2
1558434470429690,-2,-5,-10,-16,-7,-7,-5,-4
1558434470429690,-1,0,2,-4,-4,-5,-4,-3
1558434470430686,0,0,1,9,4,0,-3,-1
1558434470430686,-2,-2,-9,-4,3,-2,-3,-1
1558434470444311,-1,1,2,-1,-9,-1,1,0
1558434470444311,-1,-3,-5,-4,0,-4,-6,-2
1558434470450299,2,1,8,8,7,5,3,1
1558434470450299,0,3,0,-1,-2,-4,2,1
1558434470466255,0,0,-3,-5,-2,-2,-2,-2
1558434470466255,-2,-2,-5,-1,-5,0,1,-3
1558434470473427,-2,-2,6,3,-1,-2,-6,-2
1558434470473427,-1,-2,1,6,0,0,-3,-1
1558434470489196,0,1,2,-6,-5,-8,-2,0
1558434470489196,2,-1,-3,-2,3,5,3,1
1558434470491192,0,-3,-3,5,0,-7,2,-1
1558434470491192,-4,-2,-6,-10,-10,-3,-3,-4
1558434470503377,-3,-3,-2,1,-5,-2,-7,-5
1558434470503377,1,1,9,5,12,11,9,7
1558434470510358,0,-1,-4,-2,2,-3,-1,1
1558434470510358,-4,-5,-7,-8,-12,-4,-7,-7
1558434470526603,0,0,5,10,-2,-4,-7,-5
1558434470526603,2,1,-2,-2,14,15,12,6
1558434470533297,0,1,10,10,3,-2,1,1
1558434470533297,1,-1,-8,-16,-4,-5,-3,-1
1558434470549255,-1,-2,1,-1,-4,1,-1,-2
1558434470549255,-3,-2,-1,4,-10,-6,-7,-4
1558434470551251,-2,-2,-7,-6,-3,2,-1,-1
1558434470551251,-2,-4,-2,0,2,2,2,0
1558434470564216,-1,0,7,12,4,-3,-4,-1
1558434470564216,-1,-1,-4,-1,-1,-1,-2,-2
1558434470570197,-4,-2,-5,-10,-2,3,0,-1
1558434470570197,1,0,2,2,-5,-2,-2,0
1558434470586398,1,0,-3,-4,3,4,1,1
1558434470586398,-2,-2,-1,5,-1,-4,-5,-2
1558434470593150,2,0,-5,-17,-5,-3,1,-1
1558434470593150,-2,0,7,8,5,1,2,-1
1558434470617468,0,-1,-5,7,-1,-3,-4,-1
1558434470617468,-1,0,-4,-13,-6,-7,-1,-2
1558434470618230,-1,-1,0,3,1,4,-2,-2
1558434470618230,0,0,6,5,0,0,-1,-3
1558434470623219,-1,0,1,1,0,0,1,0
1558434470623219,-1,1,-1,0,-2,-4,-4,-1
1558434470632217,0,-2,-10,-6,-8,-3,0,1
1558434470632217,-2,-2,-1,-3,-3,-2,-1,-1
1558434470646155,-1,-1,6,4,-1,-1,1,1
1558434470646155,-4,-4,-5,-5,-1,-3,-2,-2
1558434470653137,-1,0,5,7,2,-1,2,-1
1558434470653137,-3,-1,-9,-1,0,-1,-2,-1
1558434470669094,0,0,4,0,0,0,0,-1
1558434470669094,0,1,1,4,2,0,1,2
1558434470671089,-1,-1,1,-6,-4,-7,-6,-4
1558434470671089,-1,0,-8,-5,-4,-1,-1,-1
1558434470683058,-3,-4,-10,-13,1,3,-2,-4
1558434470683058,-2,-2,5,2,-2,1,-4,-2
1558434470692032,1,1,-2,6,1,-2,0,-3
1558434470692032,-1,0,1,-2,-1,1,1,1
1558434470705997,1,1,2,3,6,-2,2,1
1558434470705997,-2,-3,-8,1,-7,-6,-4,-2
1558434470712976,-2,-4,-1,-5,-1,-1,0,0
1558434470712976,1,1,6,5,3,1,3,3
1558434470729934,-1,-2,-4,-5,0,3,1,1
1558434470729934,-2,-4,-9,-2,2,0,-2,-1
1558434470730931,-2,2,2,6,0,-1,-1,-1
1558434470730931,-1,-2,-1,-8,-11,-8,-5,-4
1558434470742897,-1,1,5,3,-6,-2,-2,0
1558434470742897,-2,0,0,3,4,-1,1,-2
1558434470751872,-2,0,5,-8,2,1,2,0
1558434470751872,0,-2,-9,-1,0,-3,-4,0
1558434470765979,-2,-2,-1,2,-3,-7,0,-1
1558434470765979,0,-3,0,-2,-3,-2,-2,-1
1558434470772847,2,3,5,8,6,5,1,4
1558434470772847,-3,-7,-13,-4,1,-4,-2,-4
1558434470789773,-2,-3,-5,2,-2,5,2,-1
1558434470789773,2,4,9,-6,-10,0,0,0
1558434470790770,1,-1,-3,2,0,0,3,-1
1558434470790770,-2,3,6,-1,-7,-2,0,-2
1558434470802737,-3,-6,-23,-15,1,1,-4,-3
1558434470802737,-1,-2,6,8,4,-5,-3,1
1558434470811714,-2,-3,-1,-6,-1,6,-1,-1
1558434470811714,-2,1,10,14,4,-1,-4,-1
1558434470826673,3,3,12,18,12,-3,2,0
1558434470826673,0,1,4,4,-5,-1,-2,-2
1558434470832657,1,-2,-16,-6,1,2,1,1
1558434470832657,0,-1,2,1,-6,-4,0,1
1558434470848616,-3,-2,-5,-13,-12,-5,-3,-1
1558434470848616,-1,-6,-13,-6,5,1,1,-3
1558434470855685,-2,-2,-1,13,2,0,-4,-4
1558434470855685,-2,0,7,-5,1,6,-1,-3
1558434470863574,1,1,9,12,2,4,4,4
1558434470863574,1,1,-4,3,-1,-10,0,1
1558434470872551,-2,-2,-2,-5,-3,-3,0,-3
1558434470872551,-2,-5,-1,0,4,4,0,-2
1558434470886664,0,3,11,6,3,-1,-1,0
1558434470886664,-1,2,-4,-9,-2,3,-3,-1
1558434470893548,0,-4,-7,-9,-8,-7,-3,-1
1558434470893548,0,0,-7,-15,-2,4,3,1
1558434470908465,-3,-4,0,2,-10,-3,-6,-5
1558434470908465,2,5,17,11,12,3,6,4
1558434470915447,-2,0,-7,11,-1,-6,-2,0
1558434470915447,-4,-2,0,-24,-11,-3,-8,-3
1558434470923414,-7,-8,-19,2,3,-1,0,-2
1558434470923414,-1,-2,-12,-33,-14,-1,-1,-3
1558434470932390,-1,-3,0,-7,-8,-6,-5,-4
1558434470932390,2,-2,-4,8,6,2,1,0
1558434470946367,2,2,-1,-9,-3,-1,0,0
1558434470946367,0,3,7,3,-1,-6,-6,-1
1558434470954332,-1,-1,3,10,8,6,4,-1
1558434470954332,-1,0,-1,-2,-1,0,0,2
1558434470969295,-3,-4,0,3,-7,-7,-6,-5
1558434470969295,0,-1,4,-13,-4,0,2,-1
1558434470975283,4,4,-4,-11,-2,-5,0,5
1558434470975283,-1,-2,-1,-6,0,-5,0,0
1558434470983256,2,2,12,26,6,3,1,-1
1558434470983256,-2,4,3,2,1,4,-4,-5
1558434470992230,-7,-10,-11,-12,-9,-3,-5,-4
1558434470992230,0,3,6,6,7,4,3,0
1558434471006193,-1,-3,-1,1,0,0,0,1
1558434471006193,-1,-2,1,17,0,-6,0,1
1558434471013175,1,4,15,8,9,9,-1,-1
1558434471013175,-4,-11,-32,-17,-17,-11,-6,-6
1558434471029132,1,2,-8,3,2,0,0,1
1558434471029132,-4,-6,3,-14,-3,4,5,-3
1558434471035116,-8,-11,-27,-5,-3,1,-1,-3
1558434471035116,4,6,19,15,7,5,2,4
1558434471052071,1,1,-12,-14,-1,5,5,1
1558434471052071,-3,-3,-8,0,-3,-9,-3,-1
1558434471053068,2,3,24,17,2,-5,-7,-2
1558434471053068,0,1,-6,-4,-5,-2,3,-2
1558434471066033,-1,-1,7,-8,4,11,1,-1
1558434471066033,1,-2,-6,4,3,5,2,1
1558434471073015,-2,0,4,-5,-4,-5,-4,1
1558434471073015,-4,-7,-11,7,-1,-3,-1,-1
1558434471088978,0,0,11,-8,-7,-5,-4,-3
1558434471088978,-2,-3,-10,-1,1,4,0,-2
1558434471095953,-2,0,-1,-21,-7,-6,-4,-1
1558434471095953,1,4,6,9,5,2,9,4
1558434471111911,-2,-3,-9,-12,-5,-2,2,-1
1558434471111911,-3,-5,-13,9,-6,-3,1,-2
1558434471112916,1,0,-1,-12,6,5,-2,3
1558434471112916,2,5,23,28,10,1,2,0
1558434471125873,-6,-7,-6,-30,-15,-12,-6,-7
1558434471125873,-2,-4,-16,-9,-4,-3,-5,-3
1558434471132854,-1,3,11,13,4,3,4,0
1558434471132854,-1,-2,-10,-4,-2,-2,-2,-1
1558434471148817,1,3,15,10,3,0,3,3
1558434471148817,-1,3,-7,-1,-2,-5,-8,-2
1558434471155792,-1,-4,-5,8,-2,2,2,0
1558434471155792,-1,1,16,1,1,0,-7,-2
1558434471172747,-2,-2,-1,-3,-5,-1,-3,0
1558434471172747,3,6,17,14,1,-3,-3,2
1558434471173744,-6,-7,-16,-23,-9,2,-5,-9
1558434471173744,-1,-2,0,2,1,-3,-3,-2
1558434471185713,1,-3,-7,4,4,2,6,1
1558434471185713,0,5,17,13,10,1,-4,1
1558434471194688,0,2,1,-2,-2,-2,7,0
1558434471194688,-2,-4,-10,-10,-5,-2,-4,-5
1558434471208655,-2,0,-3,-16,-10,-9,-11,-3
1558434471208655,-3,-5,-10,-7,-3,-1,3,-1
1558434471215636,4,3,4,7,9,5,9,7
1558434471215636,-2,-4,-8,-1,-4,-2,-7,-3
1558434471231603,2,6,3,-6,2,-1,4,2
1558434471231603,-4,-8,-4,-7,-1,1,-1,-3
1558434471233584,-1,-1,8,10,0,-3,-4,-5
1558434471233584,0,1,8,2,1,2,0,1
1558434471245561,-1,0,-1,9,6,0,2,0
1558434471245561,-3,-3,-8,-11,-10,1,1,0
1558434471254529,-1,-4,-11,-15,-11,-8,-4,-3
1558434471254529,1,0,-1,0,2,0,1,1
1558434471268494,-2,-1,-5,6,3,0,-3,-2
1558434471268494,1,1,3,11,4,2,-4,-1
1558434471275473,-2,-1,-2,1,-6,-3,-3,-3
1558434471275473,2,3,17,24,8,2,3,0
1558434471291435,-5,-12,-39,-32,-6,-2,-2,-4
1558434471291435,-1,-2,7,-6,-3,-3,3,-1
1558434471293425,2,3,4,17,9,1,-2,-2
1558434471293425,-2,-1,-7,-27,-9,-5,-5,-5
1558434471305395,-1,-1,5,22,-3,-4,-3,-5
1558434471305395,1,-2,-2,-1,-2,-2,-1,1
1558434471314369,-3,-2,-3,-4,-3,-3,-2,-2
1558434471314369,-3,3,3,-5,-6,-5,-3,1
1558434471328331,-5,-8,-10,-8,-12,-8,-6,-1
1558434471328331,-1,-1,-7,-1,1,2,0,0
1558434471335312,-1,-2,-3,-16,-6,-4,1,0
1558434471335312,1,-3,3,10,3,1,0,1
1558434471352267,5,7,15,-5,7,6,4,4
1558434471352267,-1,-3,-4,-9,-8,-2,-1,-2
1558434471353267,1,1,-3,-1,0,-4,-2,4
1558434471353267,-1,0,-4,0,-2,-4,-4,-3
1558434471365235,-1,2,0,-6,-1,-2,-2,-1
1558434471365235,-2,-4,-8,8,-1,-5,-5,-1
1558434471374210,-1,-1,1,-6,-4,-1,5,-1
1558434471374210,1,-3,-9,-12,2,3,5,1
1558434471389168,0,2,17,35,9,4,1,-1
1558434471389168,-2,0,-9,-19,-6,-1,-3,-2
1558434471395152,0,-1,6,5,-3,-6,-3,-3
1558434471395152,-6,-6,-11,1,-3,2,-2,-4
1558434471412107,1,0,-5,-6,2,-2,5,4
1558434471412107,-6,-4,4,2,3,0,-6,-5
1558434471413105,-3,0,-4,-2,-4,0,2,3
1558434471413105,-3,-6,-4,-5,-4,-3,-6,-4
1558434471426071,2,3,7,12,2,-1,-2,0
1558434471426071,-1,-3,1,-11,1,1,0,-1
1558434471434049,-1,1,13,26,5,3,-2,-1
1558434471434049,-2,-2,-18,-28,-8,-2,1,-1
1558434471449008,-1,-4,-5,8,-4,-4,-6,-2
1558434471449008,-2,0,2,1,2,2,6,3
1558434471455989,-1,-3,-1,6,4,-1,1,-1
1558434471455989,-1,0,4,-17,-6,-2,0,1
1558434471471947,0,-3,0,3,-2,-6,-2,-1
1558434471471947,2,-1,4,-10,-1,-2,-2,-2
1558434471472944,0,1,7,24,7,1,-6,-1
1558434471472944,-4,-7,-29,-27,-10,-6,-6,-5
1558434471485911,-3,-2,-9,-10,1,2,7,0
1558434471485911,1,7,8,0,3,2,2,-1
1558434471494884,-2,-5,-4,-1,-6,-2,1,-2
1558434471494884,2,1,12,10,-1,-1,-2,-1
1558434471508849,-4,-4,-11,7,1,-3,0,-3
1558434471508849,2,3,2,-6,3,4,-4,1
1558434471515831,0,-2,-13,-19,-9,-4,-2,2
1558434471515831,0,5,25,23,7,2,4,2
1558434471531786,-1,-3,-13,-15,-6,-2,-3,-3
1558434471531786,-4,-7,-8,-12,-7,1,1,0
1558434471533780,-2,-2,-4,-18,-6,-3,-3,-3
1558434471533780,0,0,2,10,4,0,-3,0
1558434471545749,1,6,18,8,6,2,-4,1
1558434471545749,0,-2,1,8,1,-2,6,2
1558434471554725,-1,-7,-18,-11,-5,-2,-1,-1
1558434471554725,0,-2,-1,1,0,-3,0,0
1558434471568687,-4,-2,2,4,-7,-3,-5,-6
1558434471568687,-1,0,-3,-21,-8,-5,0,1
1558434471575674,-2,-2,2,19,2,-2,-11,-2
1558434471575674,-4,-2,-6,3,3,2,10,-3
1558434471591628,-3,-5,-6,-21,-6,-4,-1,-1
1558434471591628,0,2,11,20,7,3,-3,-3
1558434471593622,-2,-1,-14,-11,3,1,2,-2
1558434471593622,-3,-3,-2,-2,-2,-2,-5,-1
1558434471605589,1,1,4,11,-2,0,-5,-1
1558434471605589,-4,-5,-13,16,0,-3,2,-2
1558434471614571,2,5,9,-2,2,-2,-3,2
1558434471614571,1,2,4,11,1,3,5,1
1558434471628529,-1,-1,3,3,4,3,3,3
1558434471628529,-3,-2,-8,-14,-9,-6,0,-3
1558434471635509,0,3,13,5,6,2,-1,-2
1558434471635509,-1,-2,-2,-7,-3,-3,-3,0
1558434471651467,1,-3,-2,5,1,2,6,-1
1558434471651467,2,3,-4,3,-1,-2,-3,0
1558434471653461,-2,-1,1,0,-1,1,4,2
1558434471653461,-1,-1,-6,-5,-2,-3,-5,0
1558434471665430,0,-2,-7,-22,-8,-2,-1,1
1558434471665430,-2,-1,8,27,7,1,2,-1
1558434471674406,-2,-2,-4,-20,-5,-3,-4,-2
1558434471674406,1,4,10,16,2,1,2,2
1558434471688373,-2,-1,2,-7,-1,-1,-8,0
1558434471688373,-2,-3,-1,7,2,-3,-1,-2
1558434471695348,-3,-1,-6,-17,-7,1,4,-6
1558434471695348,0,0,-6,2,4,0,-6,1
1558434471712306,0,1,13,5,2,2,5,0
1558434471712306,-3,-2,-3,1,-4,-1,-3,-1
1558434471713301,4,2,4,-3,-1,0,-1,1
1558434471713301,0,-2,-7,-2,4,-1,-4,-1
1558434471725269,-2,0,-2,-8,-6,-4,-2,-5
1558434471725269,5,3,8,10,9,6,4,5
1558434471734245,-3,-1,1,-14,-6,0,8,-1
1558434471734245,-1,0,-8,-17,-6,-2,0,0
1558434471749205,-3,-5,0,1,0,0,-7,-6
1558434471749205,1,0,-7,1,-2,-3,-1,0
1558434471755188,-3,-3,5,15,2,-1,-7,-3
1558434471755188,-1,1,5,4,-1,0,2,1
1558434471771151,0,2,-2,-22,-4,-1,-1,1
1558434471771151,-3,-4,-20,-17,-6,-2,-6,-1
