timestamp,emg1,emg2,emg3,emg4,emg5,emg6,emg7,emg8
1558434544080147,-4,-5,-12,2,7,6,-2,-4
1558434544080147,-1,0,8,4,-6,-8,1,2
1558434544081145,1,1,-14,-2,-5,-7,-5,-2
1558434544081145,-1,-2,12,-5,-3,-1,0,3
1558434544093112,0,0,1,7,4,-1,5,1
1558434544093112,-1,2,5,-2,4,3,-5,-6
1558434544095107,-3,-8,-6,10,-4,3,2,3
1558434544095107,0,-4,-11,-12,-6,-11,-8,-4
1558434544098100,1,2,7,0,-6,-6,-10,-8
1558434544098100,-1,-2,-10,-3,7,7,10,1
1558434544098100,1,0,2,1,2,-3,1,0
1558434544098100,-3,0,3,2,2,8,5,-3
1558434544117048,-1,-4,-1,-1,-3,-2,-1,0
1558434544117048,0,-4,-18,1,-6,-8,-9,-1
1558434544122035,-2,0,-5,-14,-4,-2,4,2
1558434544122035,-3,-3,-4,4,-1,1,-2,-2
1558434544129016,-2,-6,-3,-1,-2,-2,1,-1
1558434544129016,3,5,14,13,9,6,5,4
1558434544144974,-4,-3,3,-10,-1,-6,-3,-2
1558434544144974,-3,0,0,2,-2,-7,-5,0
1558434544150956,-4,-4,-8,-13,-6,0,-1,-2
1558434544150956,-4,-5,-6,-5,-7,2,0,-4
1558434544167911,2,2,10,-1,0,1,-2,-1
1558434544167911,-1,2,2,10,3,-3,-3,-5
1558434544172899,-2,-1,-8,-5,1,5,6,2
1558434544172899,1,4,19,3,8,-1,-3,2
1558434544219773,-1,-1,0,-7,0,-4,-6,-4
1558434544219773,0,-2,1,-1,1,-1,-2,2
1558434544220770,0,-3,2,2,0,-2,-5,-2
1558434544220770,1,-4,-2,-3,-10,-7,-3,-1
1558434544221780,-2,-2,2,4,0,0,-7,-2
1558434544221780,3,5,10,15,8,6,11,3
1558434544222765,-3,-5,-16,-25,-14,-5,3,1
1558434544222765,-2,-4,-14,-8,2,4,5,1
1558434544232738,0,0,-2,-1,3,1,-1,3
1558434544232738,0,1,5,1,4,-1,-4,-1
1558434544241714,0,4,5,11,-1,-6,-5,0
1558434544241714,-1,1,0,1,-2,-4,-5,3
1558434544247701,-3,-1,0,-3,-7,-2,3,-2
1558434544247701,-4,1,-1,0,2,-3,-7,-4
1558434544264653,-3,-7,-17,-3,-6,-1,4,-1
1558434544264653,0,-2,-4,-3,6,1,8,1
1558434544270636,-2,0,6,3,-1,2,0,-1
1558434544270636,0,-2,-1,-4,-4,1,-9,-3
1558434544286593,-1,1,-1,-4,-1,0,-5,-5
1558434544286593,-5,1,2,2,-3,-2,-6,-7
1558434544293576,0,1,-3,2,-6,-10,-4,0
1558434544293576,-1,-3,-1,1,0,7,5,0
1558434544301555,7,10,20,2,15,7,11,10
1558434544301555,-1,-2,-2,3,1,-4,-2,-2
1558434544315518,-5,-7,-20,-21,-11,-3,-4,-5
1558434544315518,-5,-9,-19,-21,-11,-9,-6,-5
1558434544323496,-1,2,3,5,-1,-5,-1,-2
1558434544323496,1,2,5,5,3,-1,4,-1
1558434544330477,2,0,6,6,3,3,3,-5
1558434544330477,-1,-4,-2,-3,-11,-7,-9,-5
1558434544338455,2,0,-1,6,10,8,6,4
1558434544338455,4,6,26,23,14,7,-1,4
1558434544353414,-3,-5,-1,-21,-15,-3,2,0
1558434544353414,-1,-2,-6,-7,0,1,4,2
1558434544369375,-4,-1,1,-6,-7,-3,-11,-4
1558434544369375,-2,-2,3,-6,-5,-9,-6,-3
1558434544370371,1,0,2,13,8,-2,-3,0
1558434544370371,-2,2,0,1,0,4,5,-4
1558434544383335,0,0,3,-2,-1,3,-2,-4
1558434544383335,-4,-3,-6,3,-4,-4,-3,-4
1558434544390317,0,3,7,15,7,0,5,-1
1558434544390317,-3,-1,-2,-21,-5,-4,1,2
1558434544398297,-2,-2,-6,-4,-1,3,0,0
1558434544398297,-3,-4,-6,-6,-4,3,1,0
1558434544414259,-1,-2,-3,-8,0,2,3,2
1558434544414259,-2,2,12,19,8,6,1,-2
1558434544421238,-1,-1,-6,-1,-4,-11,-9,-3
1558434544421238,-5,-1,-7,-8,-9,-3,-7,-5
1558434544428217,0,1,6,2,0,-3,-2,-2
1558434544428217,4,2,-1,5,11,2,-1,3
1558434544444173,-3,-3,0,-2,-1,-5,-2,-5
1558434544444173,4,1,-7,2,4,-3,0,0
1558434544450157,-6,-3,6,2,-7,-2,-2,-4
1558434544450157,-3,-5,-12,-11,-5,-8,-10,-4
1558434544458135,-2,-1,-11,-5,0,6,4,-2
1558434544458135,0,1,7,3,6,3,8,3
1558434544473096,1,-3,-11,-4,0,-1,-7,-4
1558434544473096,3,5,8,6,-8,-7,3,1
1558434544481074,-2,-2,8,5,-2,-5,-2,-1
1558434544481074,-2,-2,-11,-13,-13,-5,-13,-4
1558434544488055,2,-1,-7,5,10,9,13,3
1558434544488055,1,-5,-11,-5,0,1,1,1
1558434544504014,0,1,12,15,4,3,-2,-3
1558434544504014,0,-2,-11,-24,-2,-1,3,0
1558434544518972,-4,-4,-6,-7,-2,-2,-5,-3
1558434544518972,-2,-1,5,6,1,0,2,-1
1558434544518972,1,0,6,-2,-4,-5,-2,-2
1558434544518972,-4,-7,-22,5,0,0,-3,-4
1558434544541914,-1,3,9,1,8,3,7,5
1558434544541914,-1,2,5,6,-6,-2,-5,-2
1558434544542909,1,2,11,-1,-3,3,2,1
1558434544542909,-4,-4,-19,-13,-4,-4,-1,-2
1558434544547895,-1,0,-5,0,-5,-7,-2,0
1558434544547895,-2,-2,-6,4,2,4,2,1
1558434544563857,-1,-1,14,7,-7,-10,-4,-4
1558434544563857,1,2,4,11,0,3,0,0
1558434544571831,-4,-11,-30,-22,-10,-7,-3,-1
1558434544571831,-5,-2,6,0,-4,-7,-3,-3
1558434544577815,-2,-5,-13,-7,-2,3,4,0
1558434544577815,2,5,21,12,2,2,5,3
1558434544592776,-1,2,3,7,3,4,-2,-1
1558434544592776,-1,-1,0,2,-13,-9,-5,-4
1558434544601752,-6,-10,-23,-28,-8,-3,-6,-6
1558434544601752,2,2,-1,-2,3,1,1,0
1558434544615714,0,-2,15,4,-3,-6,-7,-4
1558434544615714,0,5,-2,3,12,7,-1,-3
1558434544623693,2,2,0,4,4,-5,3,5
1558434544623693,-2,-5,6,5,-2,3,0,0
1558434544630674,-1,4,2,-4,-2,0,-5,0
1558434544630674,1,2,6,6,4,-7,-8,1
1558434544637655,0,-4,-13,10,1,5,1,2
1558434544637655,1,-1,5,-22,0,-1,3,4
1558434544652615,0,0,2,8,5,3,3,-1
1558434544652615,0,-5,-20,-12,-1,1,4,1
1558434544660594,-2,1,7,0,0,0,-9,-7
1558434544660594,-7,-5,1,-5,-14,-9,-8,-10
1558434544669570,-1,-1,-9,4,4,6,3,0
1558434544669570,0,2,6,6,1,3,5,1
1558434544683533,-3,-3,-13,-21,-6,-6,-2,2
1558434544683533,-1,-1,-2,0,1,-3,-3,-3
1558434544690514,-1,3,1,-2,0,3,-3,0
1558434544690514,-2,-7,-9,1,-1,-4,-1,-4
1558434544698499,0,5,12,5,4,2,1,0
1558434544698499,-3,-6,-9,-5,-1,-4,1,-1
1558434544713466,-2,-5,-13,-8,-7,-15,-10,0
1558434544713466,-3,-5,3,0,1,8,4,0
1558434544721433,1,-1,1,3,5,5,0,0
1558434544721433,3,1,-11,4,3,3,0,2
1558434544728413,-2,-3,6,11,-6,-5,-3,-3
1558434544728413,-1,-1,-6,-18,-6,-7,-1,1
1558434544743372,0,2,-5,2,3,-1,-2,1
1558434544743372,-2,-2,0,-4,-4,3,-2,-3
1558434544750354,2,1,0,1,3,-6,1,0
1558434544750354,0,1,4,-3,2,0,-1,-2
1558434544758333,-2,-1,-3,3,-2,5,1,-5
1558434544758333,-1,0,-1,4,7,4,8,2
1558434544773292,-1,1,14,-4,-8,-3,-6,-2
1558434544773292,0,1,9,4,-7,-12,-1,0
1558434544781272,1,-1,-7,-12,2,5,-8,0
1558434544781272,-3,-6,-7,-3,0,1,-4,-2
1558434544795233,0,-2,-6,-7,-6,-1,-1,-2
1558434544795233,-3,1,1,3,-2,2,-4,-5
1558434544804212,-2,2,14,8,-5,-7,0,-1
1558434544804212,-3,0,-11,-1,-8,-8,-4,-2
1558434544810195,-1,-3,-7,-3,2,5,6,2
1558434544810195,1,0,4,-1,-1,6,-3,-1
1558434544826151,-4,-4,-5,9,4,3,7,1
1558434544826151,1,3,8,-18,-5,-8,-1,1
1558434544833132,-4,-3,4,6,-2,1,2,0
1558434544833132,-1,0,-12,-2,-5,-4,-6,-3
1558434544841111,-7,-4,-3,-7,-7,-5,-3,-2
1558434544841111,0,2,3,15,13,13,9,5
1558434544856081,-2,-2,1,-1,3,3,-2,-2
1558434544856081,0,-2,0,-6,-3,-5,-3,1
1558434544864050,0,-2,-1,-3,-9,-7,-3,-3
1558434544864050,1,0,9,8,-3,-6,-5,-3
1558434544871031,-2,0,-9,-9,3,3,-2,0
1558434544871031,4,1,5,8,10,5,13,4
1558434544885992,4,1,-1,5,2,2,2,-1
1558434544885992,-4,-5,-7,-4,-5,-1,-9,-5
1558434544892983,-3,1,-4,0,-2,-1,0,0
1558434544892983,2,2,14,7,-2,-5,-1,0
1558434544900964,-2,-4,-17,-15,-2,1,2,-2
1558434544900964,-1,1,15,12,-2,-6,-8,-4
1558434544907933,1,-1,0,2,5,0,-1,1
1558434544907933,-8,-6,-18,-16,-6,-3,-4,-3
1558434544923892,0,-2,-1,-1,1,-5,-1,0
1558434544923892,-2,1,-2,-12,-3,-3,-1,-2
1558434544930873,-2,-3,-10,-15,-12,-2,1,-4
1558434544930873,2,3,4,1,0,-2,2,2
1558434544945836,2,3,7,22,18,8,12,4
1558434544945836,-3,-5,-13,-11,-9,-4,1,-2
1558434544952813,0,-3,-6,-5,-7,-5,-5,0
1558434544952813,-2,-1,2,1,1,1,-3,-1
1558434544960791,-1,-2,-3,-5,-3,1,-1,-2
1558434544960791,3,1,5,7,8,5,3,3
1558434544975751,2,4,11,5,6,7,-1,1
1558434544975751,-5,-5,-10,-4,-3,-3,-7,-6
1558434544983731,1,2,8,14,4,-2,-2,-2
1558434544983731,-3,-5,2,-6,-3,-1,1,-5
1558434544990711,0,-2,-8,-6,0,1,2,1
1558434544990711,-1,-3,-6,-3,3,1,-2,0
1558434545006669,-2,-1,0,-1,-1,-6,-5,-1
1558434545006669,-2,-2,-10,6,0,1,-2,0
1558434545012657,1,1,13,6,3,-1,-5,-2
1558434545012657,1,-2,-1,-2,6,4,7,5
1558434545021629,-2,-2,-8,-11,-12,-4,-3,1
1558434545021629,-3,-1,10,2,-2,3,2,0
1558434545027612,-2,-2,-9,-18,1,1,3,-1
1558434545027612,0,1,0,1,-7,-8,-4,0
1558434545050550,-2,-4,-6,-7,-5,-9,1,-7
1558434545050550,1,5,-1,9,2,1,1,-2
1558434545059528,0,1,9,10,-3,-6,-4,-1
1558434545059528,-4,-3,-5,-10,-3,7,2,1
1558434545066508,-2,-2,-4,-12,-4,0,-6,-1
1558434545066508,-3,-3,0,0,-1,7,0,0
1558434545074488,3,1,5,10,4,2,4,0
1558434545074488,2,-2,3,1,-4,-7,0,0
1558434545081487,0,-3,1,-2,-3,0,-7,-3
1558434545081487,5,4,10,4,7,-2,1,0
1558434545104419,-1,-4,-9,-1,1,1,0,-2
1558434545104419,-3,4,1,-26,-9,-3,1,-4
1558434545105407,-5,-7,-8,-8,-8,-3,2,0
1558434545105407,1,0,-1,1,0,-2,1,2
1558434545110403,-3,-4,-5,-3,-6,-14,-5,1
1558434545110403,1,1,-1,15,5,0,-4,1
1558434545126360,0,0,10,2,-3,-1,-6,-2
1558434545126360,-3,-5,-20,-8,-3,-2,1,1
1558434545133340,-1,3,14,21,9,9,5,-2
1558434545133340,-3,-7,-8,-13,1,2,1,0
1558434545141310,-2,-3,-11,-22,-9,-4,0,-2
1558434545141310,-5,-5,-8,-1,1,-2,-6,-6
1558434545155272,0,2,6,-4,-4,-4,-2,-2
1558434545155272,2,0,7,12,9,7,9,0
1558434545164248,2,6,7,2,10,9,3,3
1558434545164248,1,1,8,0,-10,-11,-4,-1
1558434545178211,-4,-4,-12,-9,-8,-5,-6,-1
1558434545178211,-1,-2,2,11,7,5,-5,2
1558434545186249,1,-1,-2,5,-3,-6,-3,0
1558434545186249,-1,1,0,0,5,1,5,4
1558434545193175,-1,0,3,-11,-3,0,0,1
1558434545193175,-4,-5,-8,-5,-10,-7,-7,-5
1558434545209228,-6,-4,1,-2,-3,-1,-3,-5
1558434545209228,3,4,4,2,5,3,2,2
1558434545216188,-1,-2,-6,-2,5,2,1,1
1558434545216188,-1,1,-3,3,5,3,2,-3
1558434545232170,0,-1,-7,0,1,-1,-6,-1
1558434545232170,-1,-5,-6,-17,-8,-11,-8,-5
1558434545233077,4,1,0,1,2,3,5,4
1558434545233077,-2,3,6,5,4,-2,-4,0
1558434545246030,-2,-3,4,7,2,2,-2,-1
1558434545246030,-2,1,5,-9,-5,-2,4,2
1558434545253135,0,1,9,5,10,10,2,-2
1558434545253135,1,1,2,-2,-9,-11,7,0
1558434545268967,-2,-7,-4,6,0,1,-2,-5
1558434545268967,-1,-1,-1,-5,-4,-4,-9,-3
1558434545275950,-1,-1,4,1,0,-3,-4,-4
1558434545275950,1,1,7,2,1,7,3,-2
1558434545299889,-3,-1,-6,7,6,-1,7,4
1558434545299889,0,-2,-2,6,1,4,-2,-1
1558434545300883,-3,-2,-8,-16,-6,-4,-2,2
1558434545300883,-3,-4,-16,-9,-5,-1,-8,-5
1558434545306866,-4,0,2,-3,-7,-5,-5,-3
1558434545306866,-1,-3,-3,-1,-8,-11,-6,-1
1558434545313029,-1,-4,-18,7,2,0,3,1
1558434545313029,0,1,6,1,2,0,5,2
1558434545329809,3,3,9,4,5,5,2,3
1558434545329809,-2,2,1,9,-2,0,-3,1
1558434545335818,-3,-1,-2,2,0,-1,2,1
1558434545335818,-5,-2,-11,-18,-15,-9,-4,-1
1558434545351745,0,-4,-7,-8,-8,-4,-4,-3
1558434545351745,-5,-6,1,2,2,5,2,-8
1558434545351745,1,2,12,10,3,2,6,-4
1558434545351745,-5,-7,-8,10,2,-3,-4,-2
1558434545366947,2,1,-1,-17,-1,0,-1,-1
1558434545366947,1,-3,0,-2,-3,3,-1,-3
1558434545372701,-2,-2,-9,-5,-9,-7,-7,-7
1558434545372701,3,-2,4,12,9,3,0,0
1558434545396633,-3,2,-2,2,3,8,-3,-2
1558434545396633,-1,-2,-3,-4,-1,-4,-4,4
1558434545396633,0,-2,-2,-7,-13,-6,0,1
1558434545396633,0,-3,-2,3,-2,-5,-5,-1
1558434545411588,2,-1,-10,3,4,-4,2,1
1558434545411588,-2,4,0,0,7,4,2,2
1558434545411588,-3,0,-4,1,3,11,6,1
1558434545411588,-1,2,6,-4,-4,-7,-4,-3
1558434545427545,1,-1,4,2,2,3,-6,0
1558434545427545,1,-2,-5,-8,-1,3,0,-5
1558434545433572,-1,-1,4,-1,-4,-4,-5,-1
1558434545433572,-1,1,6,0,-3,1,7,3
1558434545456466,-3,-3,-9,4,2,5,4,0
1558434545456466,0,0,4,3,3,-1,-4,-1
1558434545457463,0,0,4,2,-7,-1,-6,-2
1558434545457463,0,-1,-1,-3,2,7,0,-2
1558434545478407,-1,7,21,4,-1,-12,-3,0
1558434545478407,-3,-7,-19,-4,3,-7,2,-1
1558434545479403,-2,-4,-2,3,-3,-3,2,0
1558434545479403,1,2,12,-1,-4,1,-4,-1
1558434545487383,0,-4,-4,-2,-1,0,10,0
1558434545487383,-1,-3,-6,-1,-2,-2,-6,-3
1558434545493367,-1,4,9,2,-2,-8,-7,-2
1558434545493367,-3,-4,-6,-3,-3,-1,-5,-5
1558434545508325,-2,2,6,4,0,4,2,-3
1558434545508325,1,2,2,9,1,0,2,0
1558434545515307,-1,0,0,-10,12,4,2,-1
1558434545515307,-3,1,-1,1,-2,1,-5,0
1558434545532261,-2,-5,-2,-4,-5,-1,-5,0
1558434545532261,0,0,-1,-2,-6,-3,-4,2
1558434545538246,-2,-4,-6,2,1,0,1,-4
1558434545538246,-4,-2,-5,-6,4,5,3,-4
1558434545547222,-1,-3,-17,-12,-8,-11,-1,-1
1558434545547222,-1,-3,-6,3,-1,3,8,0
1558434545553267,0,-1,1,-1,-9,-4,-4,0
1558434545553267,3,1,-7,3,0,-3,-3,0
1558434545576146,0,5,9,-13,-2,1,3,0
1558434545576146,0,0,6,0,-2,-1,-1,3
1558434545577143,-1,-9,-13,-11,-5,-5,-9,-3
1558434545577143,-1,1,8,2,-2,-3,2,2
1558434545591106,2,8,10,15,10,10,1,1
1558434545591106,1,3,-2,-1,-2,-5,1,2
1558434545592104,-2,2,15,14,8,7,4,-1
1558434545592104,0,-4,-15,-7,-5,-8,-3,-1
1558434545607063,-1,-5,-4,-11,-5,0,-6,-2
1558434545607063,-1,-2,7,-4,1,2,4,-2
1558434545613051,0,-4,-4,9,-2,-3,-2,0
1558434545613051,1,1,4,-4,7,-8,-5,-3
1558434545629007,-2,-3,-6,3,-2,-5,-4,-1
1558434545629007,0,2,4,9,2,2,-1,-1
1558434545635986,-4,1,-1,-10,-10,-9,-11,-3
1558434545635986,-1,-3,1,-1,9,15,7,6
1558434545658925,1,-1,-6,10,0,-3,12,2
1558434545658925,-6,3,13,10,2,3,-8,-12
1558434545659922,-4,-12,-34,-29,-13,-6,-3,-5
1558434545659922,-3,0,3,0,-9,-5,-3,-3
1558434545666901,-2,0,6,6,5,0,3,3
1558434545666901,-2,1,6,10,3,0,4,2
1558434545672886,-1,5,1,9,6,0,4,2
1558434545672886,-2,0,0,2,-8,-3,-6,-6
1558434545687847,1,-5,-15,-6,1,1,-6,-3
1558434545687847,0,1,7,-9,1,5,-2,-3
1558434545695826,-4,-5,-1,5,-3,-1,-2,-5
1558434545695826,1,-5,-7,-8,2,2,4,3
1558434545710788,-1,1,11,4,-2,-6,-8,-6
1558434545710788,0,-1,1,5,8,1,5,5
1558434545711783,3,1,-13,-1,1,8,2,0
1558434545711783,-1,0,-1,-14,-14,-5,-1,-1
1558434545727741,-7,-7,-7,2,-7,-4,-7,-7
1558434545727741,2,-2,-1,-20,-3,-8,0,0
1558434545733723,1,5,9,10,11,-1,3,2
1558434545733723,0,0,0,6,4,6,0,-3
1558434545748690,-4,-1,-4,-8,-8,4,1,3
1558434545748690,-1,-5,-8,-4,-5,-4,-4,-1
1558434545755666,-2,-2,9,-1,-8,-3,-9,0
1558434545755666,4,3,1,4,15,12,11,5
1558434545771672,1,4,16,12,8,3,9,3
1558434545771672,-5,-5,-12,-4,-6,-4,-5,-2
1558434545771672,2,2,0,-6,0,-4,-8,-3
1558434545771672,-2,-5,-7,2,0,0,-6,-2
1558434545786688,-2,-3,-2,-8,-7,-5,-6,-2
1558434545786688,-2,-2,-7,-4,3,5,6,3
1558434545801665,-1,0,6,6,-2,1,2,1
1558434545801665,-2,-1,-4,-6,-6,-6,-5,-4
1558434545808524,2,2,1,7,3,-3,-6,-1
1558434545808524,-1,-2,-2,-4,-9,-10,-5,-4
1558434545815512,-1,2,6,-1,9,8,4,4
1558434545815512,3,3,5,12,-1,0,5,3
1558434545831474,-1,-7,-6,2,-8,-6,-5,-4
1558434545831474,0,0,-7,-21,-10,3,-3,-3
1558434545832468,0,-3,-6,-1,3,-4,-6,-6
1558434545832468,-1,-1,-1,4,0,-4,0,-2
1558434545847426,-1,-1,-3,-6,2,1,3,0
1558434545847426,1,2,4,5,-1,-2,-1,4
1558434545853453,-1,-3,4,1,1,-3,2,-1
1558434545853453,-5,-2,-6,-7,-4,1,-3,-1
1558434545868363,0,-5,-14,-9,-2,3,-3,-2
1558434545868363,-2,-4,-19,6,-1,2,-1,-2
1558434545883359,-1,-1,-3,-7,-1,-2,5,2
1558434545883359,-4,-4,0,5,-2,-6,-12,-9
1558434545891354,2,5,3,3,7,0,6,4
1558434545891354,0,3,7,0,8,7,-1,-1
1558434545892351,0,1,-8,-2,4,5,0,-1
1558434545892351,-6,-8,-12,-15,-21,-12,-6,-3
1558434545907259,-1,-1,-4,-1,0,4,5,2
1558434545907259,-1,-3,2,5,5,-1,8,2
1558434545913243,2,4,19,15,3,-3,-2,2
1558434545913243,3,5,9,4,1,-3,3,2
1558434545928524,-7,-12,-20,-26,-13,-10,-11,-7
1558434545928524,2,1,16,10,-6,-8,-5,-1
1558434545936342,-1,-3,-8,3,8,13,4,3
1558434545936342,1,0,-1,-1,4,0,-3,-3
1558434545959368,-2,-1,4,8,2,1,0,-1
1558434545959368,-3,-5,-17,-20,-7,-5,-9,-6
1558434545959368,-3,-5,-7,-11,-9,-2,-1,-5
1558434545959368,-2,0,8,2,4,-2,4,-2
1558434545967099,1,3,-3,2,0,0,1,-1
1558434545967099,-1,2,0,5,2,1,-1,-2
1558434545973084,-1,0,-2,-3,-3,0,0,2
1558434545973084,-1,-5,-6,1,-2,-3,-1,0
1558434545989044,-2,-3,-3,-13,-3,-2,-1,-4
1558434545989044,-2,5,10,2,-4,-7,-5,-5
1558434545996259,-2,-5,-7,-9,-7,-6,-2,-3
1558434545996259,0,-1,5,5,12,9,2,2
1558434546011014,2,3,20,6,2,0,1,-1
1558434546011014,-1,-1,-3,8,-3,-1,-3,-2
1558434546011982,-2,-3,-7,-20,-13,-11,-12,-3
1558434546011982,-4,-5,-8,-9,-7,-3,-8,-5
1558434546027104,0,1,4,3,14,9,10,4
1558434546027104,-1,-1,-2,11,9,3,7,4
1558434546033192,3,2,12,1,-9,-2,-1,0
1558434546033192,-3,-11,-26,-14,-7,-5,-6,-3
1558434546058856,3,1,-5,-10,-9,-5,-5,-1
1558434546058856,-2,-3,1,-7,-2,3,-4,-2
1558434546058856,1,6,13,20,11,4,3,2
1558434546058856,0,-2,-17,-7,-1,-5,1,1
1558434546071058,-2,0,-5,-1,-3,-5,-3,0
1558434546071058,0,-4,4,5,-2,0,-1,-2
1558434546078803,-2,-4,-8,-2,-5,-2,-5,-5
1558434546078803,1,0,4,-14,5,-5,-7,0
1558434546086997,1,-1,-5,-3,-11,-4,-1,0
1558434546086997,-2,-3,-5,-7,-6,-2,1,1
1558434546092764,-2,-3,-1,3,-1,-5,1,-1
1558434546092764,1,4,6,8,2,-1,1,-1
1558434546109718,-1,-4,2,11,2,2,-6,-1
1558434546109718,-2,-2,-14,-10,-2,4,2,1
1558434546115702,-3,-5,0,-8,-8,-8,-4,-6
1558434546115702,-2,-2,2,2,-7,-6,-6,-2
1558434546130927,2,2,-5,-3,8,4,4,5
1558434546130927,0,0,5,6,12,7,4,0
1558434546137906,5,7,9,10,7,4,9,6
1558434546137906,-2,-5,-14,-20,-4,3,-1,-3
1558434546155118,-4,-2,2,-5,-15,-9,-7,-6
1558434546155118,-2,-4,-5,-6,-6,-10,0,-1
1558434546155118,-4,-4,-8,-7,-4,0,-6,-5
1558434546155118,2,3,6,10,0,1,1,0
1558434546169559,-2,-1,8,3,2,0,-1,-1
1558434546169559,1,0,-8,-2,3,0,-3,-1
1558434546175797,-2,-2,-1,0,5,1,2,-1
1558434546175797,-3,-4,3,5,-6,1,-4,-2
1558434546190842,-3,-5,-4,-7,4,-1,1,-3
1558434546190842,4,6,5,0,6,7,8,7
1558434546206460,1,5,4,7,3,-2,6,3
1558434546206460,-1,-5,-15,-6,-5,-3,-3,0
1558434546213668,-4,-5,-4,-10,-3,-4,-6,-6
1558434546213668,-1,-2,-3,-1,-1,2,-5,-4
1558434546214442,-2,-5,-9,-6,-2,-4,-5,-1
1558434546214442,-2,0,-3,1,2,5,5,4
1558434546229512,2,0,-2,24,8,5,3,0
1558434546229512,-4,-1,0,-25,-22,-16,-9,-4
1558434546236380,0,-1,3,2,5,4,9,-2
1558434546236380,2,5,5,5,-2,-3,-2,0
1558434546251348,1,1,9,14,0,-8,-4,0
1558434546251348,2,-1,-2,1,5,-1,-2,-1
1558434546258511,-1,-1,1,3,-6,0,-2,-1
1558434546258511,-4,-6,-9,-6,-1,0,5,0
1558434546274283,-2,0,-4,-6,2,-3,3,0
1558434546274283,-1,1,5,4,-4,2,2,-2
1558434546274283,-2,-4,3,-1,-3,0,-7,-2
1558434546274283,0,1,2,0,6,6,0,-2
1558434546296221,2,2,1,4,0,0,2,1
1558434546296221,-5,-6,-10,-6,-8,-11,-11,-3
1558434546297218,0,0,5,0,2,1,3,1
1558434546297218,-4,0,-4,4,0,-2,-4,-3
1558434546310182,0,1,-1,-2,3,7,2,-1
1558434546310182,-1,0,-2,2,2,-3,-3,-1
1558434546318165,-1,-1,-5,-12,-2,3,-1,-4
1558434546318165,-3,-4,-1,0,-8,-2,0,-5
1558434546333120,-4,0,-3,-8,-4,-5,-4,1
1558434546333120,3,3,11,13,1,-6,2,3
1558434546340101,3,4,12,-2,10,6,-4,4
1558434546340101,3,-1,-3,-4,-8,-8,0,3
1558434546358071,0,1,4,5,6,11,3,-2
1558434546358071,-2,3,3,5,2,3,3,-1
1558434546359184,-3,-5,-9,-1,2,-5,0,-2
1558434546359184,0,2,10,-1,2,4,4,-4
1558434546371301,-2,-8,-7,-8,-7,-7,-10,-6
1558434546371301,-2,-3,-4,0,2,3,0,-5
1558434546378335,1,-1,-12,-5,-1,-1,6,5
1558434546378335,2,4,13,10,-3,0,1,3
1558434546393957,-2,-6,-7,-3,1,-6,-2,0
1558434546393957,-6,-7,-12,-15,-9,3,-6,-9
1558434546393957,-2,-2,-3,-3,-7,-9,-8,-4
1558434546393957,0,3,-1,1,7,9,6,2
1558434546409914,1,-2,-3,9,2,0,-3,4
1558434546409914,-2,-2,1,-10,-4,-4,-2,2
1558434546415903,-3,-4,-7,-1,-5,-6,-5,-4
1558434546415903,0,1,-5,0,-1,-1,-5,-3
1558434546430864,0,1,-12,-22,-8,2,5,0
1558434546430864,-3,-4,3,2,1,3,5,0
1558434546437841,0,-1,-8,-4,-4,-2,-3,-1
1558434546437841,0,5,9,7,7,1,3,1
1558434546453799,-2,-1,3,5,-1,-4,-2,-6
1558434546453799,1,-2,-3,-6,-6,1,-1,-1
1558434546454795,-2,-4,-2,-1,-2,4,-1,0
1558434546454795,0,-2,0,-2,2,-3,1,-1
1558434546469782,0,2,11,8,3,-2,1,3
1558434546469782,2,0,-3,0,3,1,0,1
1558434546475740,-3,4,16,9,-1,-2,-4,-5
1558434546475740,-4,-6,-10,-14,-4,-7,-7,-5
1558434546491019,-5,-5,4,1,-6,-1,-4,-5
1558434546491019,0,2,4,5,6,2,5,6
1558434546506658,0,4,5,6,0,-2,4,2
1558434546506658,-4,-7,-18,-18,-12,-5,-4,-5
1558434546521615,-1,3,1,1,0,-4,-5,-5
1558434546521615,-2,-4,0,3,1,6,-3,-4
1558434546521615,0,-5,-6,-4,3,6,8,2
1558434546521615,0,2,11,1,3,2,4,0
1558434546529595,-2,0,-6,-14,-7,-6,-6,1
1558434546529595,-1,2,5,0,-8,-6,-6,-4
1558434546535927,-1,2,5,6,9,5,-1,-4
1558434546535927,-4,-7,-19,-6,-6,-6,-4,-1
1558434546558518,-1,1,2,-3,-6,0,0,-3
1558434546558518,2,0,8,5,6,0,-1,0
1558434546559515,-2,1,0,5,5,0,0,0
1558434546559515,0,0,11,4,-1,-7,1,-1
1558434546573510,-2,-5,-25,-13,-6,-8,-2,2
1558434546573510,-2,-1,-3,8,1,3,2,-4
1558434546574477,-2,-4,-17,-17,-4,0,-5,-6
1558434546574477,0,3,6,-6,-2,2,-1,1
1558434546597412,2,1,5,8,8,3,7,2
1558434546597412,2,0,-4,-16,-8,-9,-3,0
1558434546598411,0,-2,-1,2,-4,-3,4,4
1558434546598411,2,2,3,2,8,8,3,1
1558434546610407,-4,-6,-12,-2,-5,-2,-2,-3
1558434546610407,-3,-3,-7,5,-1,-7,-7,-1
1558434546618390,-1,0,5,0,5,6,1,-1
1558434546618390,-1,-1,6,6,1,6,3,0
1558434546634313,0,-6,-10,-17,0,1,0,0
1558434546634313,0,-1,-2,3,-2,-4,-3,-1
1558434546640328,1,-2,-4,0,-3,-7,6,1
1558434546640328,-1,1,2,5,1,-4,-8,-2
1558434546649274,3,6,13,15,12,9,11,4
1558434546649274,-4,-2,7,2,-3,-3,-2,0
1558434546655259,-1,-1,-16,-12,-6,-3,-1,3
1558434546655259,1,0,-2,-3,6,4,3,1
1558434546670221,-4,-4,3,-1,-8,-7,-4,-4
1558434546670221,-2,-1,-1,-8,-4,0,-2,-2
1558434546678196,-4,-4,-20,4,0,-1,-5,-6
1558434546678196,-4,-3,-3,-12,-8,-7,-3,-3
1558434546694153,1,0,3,-2,-1,2,-1,-1
1558434546694153,0,-4,-8,-2,3,-2,0,0
1558434546694153,-3,-6,-2,-6,-5,-4,-8,-8
1558434546694153,-3,-3,-1,2,-6,-5,-6,-7
1558434546709116,0,3,9,-1,-1,1,2,-2
1558434546709116,3,3,1,7,8,3,3,4
1558434546715098,-1,-1,-1,-7,1,2,6,0
1558434546715098,1,-1,2,2,-2,-1,-2,-1
1558434546730060,-3,-2,5,2,-8,-9,-12,-3
1558434546730060,-1,-1,-3,-18,-5,1,3,-2
1558434546738037,-4,-4,4,5,0,-1,-4,-2
1558434546738037,3,6,20,5,0,-4,9,5
1558434546754046,-1,-3,-1,-2,2,1,-2,-3
1558434546754046,-1,-2,-5,0,1,-2,1,-2
1558434546760975,-1,-4,-4,-5,-1,-1,-3,-2
1558434546760975,-1,-4,-1,3,2,4,1,0
1558434546769960,0,3,5,11,2,-2,-5,2
1558434546769960,-1,1,2,-6,-8,-5,2,1
1558434546791900,0,0,2,-5,-4,2,-2,-1
1558434546791900,2,4,1,8,5,2,-1,2
1558434546793889,-1,1,-7,0,2,-1,-1,0
1558434546793889,-5,-7,-7,2,-5,-1,-5,-6
1558434546797883,0,3,3,-8,-7,-8,-5,-1
1558434546797883,-1,-1,-3,8,8,1,1,0
1558434546814835,-1,-3,-3,-2,-6,-2,-1,-2
1558434546814835,-3,2,1,-1,-2,-2,0,-1
1558434546815829,-2,-4,-15,8,-4,-2,-3,-2
1558434546815829,0,0,11,-6,-2,0,-2,1
1558434546829792,-1,4,-2,-6,-3,-2,2,3
1558434546829792,1,-2,-4,3,5,5,4,0
1558434546835774,0,1,12,7,4,-2,1,1
1558434546835774,0,-4,-10,4,-4,-3,-4,-4
1558434546850742,0,-1,-2,0,-4,-4,-4,0
1558434546850742,1,3,6,-2,2,7,0,-1
1558434546857715,-1,-5,-12,2,1,2,4,5
1558434546857715,-5,-5,-15,-2,-2,-3,-5,-1
1558434546873673,-2,-4,1,-7,-2,0,2,-2
1558434546873673,1,1,4,7,3,-8,-4,-1
1558434546874671,0,3,-2,1,-3,0,-2,-1
1558434546874671,-4,-5,-10,-16,-5,-8,-3,-1
1558434546889631,1,1,1,2,-2,-1,6,1
1558434546889631,-4,-2,3,8,2,2,-3,-6
1558434546895616,2,3,15,8,2,0,5,2
1558434546895616,-4,-7,-16,-17,-13,-6,-4,-5
1558434546910577,-5,-5,-4,-1,4,4,-7,-7
1558434546910577,1,-1,8,11,6,-1,6,3
1558434546918554,-2,-4,-1,1,-2,-1,-5,-4
1558434546918554,-1,3,3,-12,-8,-13,-6,-2
1558434546941492,-1,2,-3,2,3,2,5,3
1558434546941492,-4,-7,-8,0,-5,-1,-2,-4
1558434546941492,-1,-2,-1,-10,-4,-2,-5,-5
1558434546941492,-1,-2,4,9,1,1,1,-1
1558434546949473,1,0,-7,-9,-3,0,-1,0
1558434546949473,-5,-5,-10,-5,0,-1,-2,1
1558434546955456,-3,0,4,-3,-4,-4,1,2
1558434546955456,0,-1,-4,4,-1,2,-3,-4
1558434546972410,0,0,7,-2,-3,-1,0,-3
1558434546972410,4,3,0,-1,5,4,3,1
1558434546978396,-2,-2,2,-3,4,1,3,-3
1558434546978396,1,2,3,10,-1,3,1,2
1558434546994352,-5,-6,-22,-9,1,-1,-6,1
1558434546994352,-2,-1,-3,-4,-10,-5,-2,-1
1558434547000335,1,1,-6,-13,-5,-2,-5,-1
1558434547000335,1,0,10,8,4,1,11,0
1558434547017352,1,2,6,21,9,2,1,3
1558434547017352,-2,-1,-2,-8,-6,-3,-10,-5
1558434547018287,-4,-6,-10,-6,1,0,0,0
1558434547018287,-3,-5,-19,-10,-5,2,-1,-1
1558434547030318,-1,-3,1,4,-3,1,-3,-4
1558434547030318,0,-1,6,-6,1,3,4,1
1558434547046218,3,2,-12,6,5,3,5,0
1558434547046218,0,1,3,5,5,7,-5,2
1558434547053204,3,1,10,1,-4,-10,-1,5
1558434547053204,-3,1,9,9,0,-2,0,-1
1558434547061174,-1,-3,-9,-3,-5,-3,-7,-5
1558434547061174,-3,-3,-3,-7,3,-4,-11,-4
1558434547069152,3,7,3,-2,0,1,5,2
1558434547069152,-1,-4,-7,-2,-7,-6,-4,-3
1558434547075142,2,2,8,1,4,4,-3,0
1558434547075142,-2,1,8,3,-2,0,0,-4
1558434547090095,-4,-5,-8,-20,-5,-8,-6,-6
1558434547090095,3,2,-1,1,8,5,2,4
1558434547098076,0,4,4,1,-10,-8,2,2
1558434547098076,1,0,-3,4,5,6,1,1
1558434547113039,-4,-4,1,8,2,1,-3,-3
1558434547113039,-1,-1,0,-12,-1,3,7,3
1558434547121012,-1,1,6,5,6,1,-3,-2
1558434547121012,-3,-5,-8,-12,-8,-3,0,-2
1558434547128992,-3,-2,10,1,-3,-6,-1,-3
1558434547128992,-1,1,-3,5,-1,-9,-5,-8
1558434547143954,-1,1,3,-9,-3,-1,5,1
1558434547143954,-4,-8,-17,-8,-3,2,3,-4
1558434547150976,1,3,10,7,7,6,3,1
1558434547150976,-4,-4,-10,-4,-2,-2,-5,-1
1558434547158175,-1,-3,-1,-2,-5,-4,-2,-2
1558434547158175,4,4,-1,12,2,-2,-5,3
1558434547172874,0,-4,-7,-2,4,6,1,1
1558434547172874,1,-1,-3,1,6,1,3,4
1558434547188831,-1,1,23,15,-4,-9,-7,-2
1558434547188831,0,0,-11,-1,-11,-12,-4,-1
1558434547195814,-2,-5,-12,-19,-5,4,0,-4
1558434547195814,-1,3,-5,-6,-1,-2,-2,-4
1558434547196809,-3,-2,-1,-3,0,2,-2,0
1558434547196809,1,2,17,8,-1,-4,-2,-2
1558434547210773,-1,0,3,16,4,3,-1,1
1558434547210773,0,0,4,-6,-9,0,-1,-3
1558434547217755,1,-3,-10,-5,1,0,-4,0
1558434547217755,1,2,15,7,5,0,2,3
1558434547232716,-5,-7,-16,-12,-11,-3,-1,-5
1558434547232716,0,0,4,4,-2,-8,-4,1
1558434547240694,2,0,-6,2,4,-2,1,-1
1558434547240694,-2,0,11,6,4,0,0,-2
1558434547256649,-1,-3,-18,-8,-1,0,-7,-1
1558434547256649,-8,-5,-9,-1,-7,-1,-3,-3
1558434547256649,-2,-2,-1,1,2,2,1,-1
1558434547256649,-1,-1,4,-5,1,4,2,1
1558434547270623,2,4,9,7,-3,-1,2,-1
1558434547270623,0,-1,5,6,2,0,-5,-4
1558434547278591,4,4,3,6,5,3,11,5
1558434547278591,-3,-2,-2,-10,1,-1,-7,-5
1558434547293552,-1,-1,4,0,-6,-1,2,-4
1558434547293552,0,-4,-4,-11,-1,-1,0,0
1558434547300544,-2,1,4,3,4,-3,-2,1
1558434547300544,-2,-5,-7,-4,-11,-2,-6,-4
1558434547326466,1,6,8,8,0,-6,2,3
1558434547326466,1,0,-10,-12,6,-2,0,3
1558434547326466,-2,-5,1,3,-3,-1,-5,-3
1558434547326466,-4,-2,1,3,-1,-2,-5,-2
1558434547330456,0,-3,-13,1,-3,0,-1,-1
1558434547330456,-1,-1,-3,-7,-7,1,-1,-1
1558434547338434,-2,-4,-6,0,4,1,3,-3
1558434547338434,4,5,16,8,10,4,7,6
1558434547353390,1,-1,1,-9,-7,-3,1,-1
1558434547353390,2,-2,2,3,-2,-5,-3,1
1558434547368349,-2,-2,-10,-10,-9,-6,-10,-4
1558434547368349,-2,-4,-5,9,3,-6,-4,-4
1558434547376330,-3,0,5,-2,4,10,4,0
1558434547376330,-2,-1,-2,-6,-7,-1,4,0
1558434547377327,-1,-1,-6,-12,-3,-2,-5,-3
1558434547377327,-2,-3,-9,-6,-5,-2,1,0
1558434547390297,0,1,4,7,4,-8,-6,-2
1558434547390297,-2,0,-9,-2,2,9,3,-2
1558434547398270,-2,-2,-7,1,-5,-5,-5,-2
1558434547398270,-2,-3,-6,-5,-7,-7,4,0
1558434547413462,-2,-1,2,6,4,-3,-3,-2
1558434547413462,-3,-7,-12,-5,-7,0,-6,-5
1558434547420437,0,6,14,-2,-5,-7,-3,-4
1558434547420437,-3,-5,-27,-11,-10,0,-2,-6
1558434547453403,-3,-4,-9,-7,2,8,2,0
1558434547453403,0,1,11,11,9,1,4,0
1558434547453403,1,1,1,-1,1,3,2,-1
1558434547453403,0,2,6,-7,0,-2,-2,-1
1558434547455120,-2,0,2,8,-9,-7,-6,-4
1558434547455120,0,2,8,13,1,2,-2,-1
1558434547458442,-3,-8,-10,-20,-5,6,5,1
1558434547458442,-1,-3,-10,3,3,-7,-1,-2
1558434547473071,0,-1,6,-12,0,-6,1,2
1558434547473071,3,4,12,17,8,-2,-1,0
1558434547481317,-1,-2,-7,-10,-7,-3,1,-3
1558434547481317,-3,-1,13,-5,4,9,-3,-3
1558434547497016,-4,-9,-24,-5,-2,-7,0,1
1558434547497016,1,-1,-6,-6,-4,-9,-1,3
1558434547497016,-1,2,7,8,-1,3,-4,-1
1558434547497016,2,5,0,4,7,5,-1,1
1558434547511155,1,-2,0,1,-6,-4,0,-1
1558434547511155,-5,-6,-7,-10,-7,-4,-5,-3
1558434547518151,-2,-4,-4,4,-1,3,0,-1
1558434547518151,0,2,6,-5,-2,-3,-2,-3
1558434547540929,-1,-1,-4,-4,1,4,1,0
1558434547540929,1,-1,-3,4,-1,-4,1,3
1558434547541889,0,0,-13,-4,0,-1,7,2
1558434547541889,-1,2,15,5,-1,0,0,1
1558434547555851,0,0,-2,-10,-2,-4,-7,-1
1558434547555851,-3,-4,-7,-9,-7,0,-1,-3
1558434547556848,-1,-3,-9,-11,-4,-8,-9,-5
1558434547556848,1,6,13,6,1,6,6,4
1558434547570812,-1,-3,-14,3,2,0,-1,-1
1558434547570812,-3,1,9,5,1,1,5,1
1558434547577793,-2,-1,4,4,3,7,-2,-2
1558434547577793,1,1,-8,-4,1,7,7,4
1558434547592809,1,3,14,2,0,-2,-1,0
1558434547592809,-2,-5,-5,2,-2,-1,-7,-6
1558434547600768,-3,-2,-8,-5,-5,-11,-11,-3
1558434547600768,2,-3,-7,-1,-8,0,3,2
1558434547624666,-2,-4,-4,3,6,3,4,1
1558434547624666,0,7,3,0,7,7,4,3
1558434547624666,4,0,4,-16,1,1,4,5
1558434547624666,-3,-8,-20,-20,-8,-5,-7,0
1558434547630685,-1,-3,-2,-6,0,0,-6,-6
1558434547630685,3,2,4,1,-9,-10,-10,-1
1558434547637630,1,3,22,18,9,8,6,-1
1558434547637630,-5,1,-7,5,4,1,0,-3
1558434547652591,-3,-6,-16,-17,-8,-3,1,-3
1558434547652591,-2,-2,3,0,5,7,2,1
1558434547668605,0,2,4,10,-4,-13,-10,-1
1558434547668605,-2,-3,0,-2,1,1,2,1
1558434547676525,-1,-4,3,-11,-11,3,-3,-3
1558434547676525,0,-5,-5,-2,-4,-6,-6,-4
1558434547676525,-1,5,5,4,-1,2,0,0
1558434547676525,-4,-4,-14,-3,6,5,0,-3
1558434547690523,0,1,7,7,-1,-5,-5,0
1558434547690523,-1,-2,-2,-7,5,7,8,-1
1558434547698466,0,-1,-2,8,1,2,3,2
1558434547698466,-1,-3,11,2,-1,-8,-9,-2
1558434547713429,-2,-2,-1,-1,-1,-7,-1,1
1558434547713429,-2,-6,-12,-2,1,1,1,-2
1558434547728389,-1,0,-4,1,0,1,-3,-2
1558434547728389,1,1,11,-2,-5,-3,-2,-2
1558434547736367,-2,-1,-9,-14,-8,-5,-2,-1
1558434547736367,-1,2,6,5,3,5,2,-2
1558434547737364,-4,0,0,-4,3,4,0,-1
1558434547737364,-1,-2,-2,-4,-7,-6,-7,-4
1558434547750329,1,1,13,13,6,4,12,3
1558434547750329,0,0,-1,-3,-10,-13,-5,-2
1558434547758307,-5,-14,-8,-6,-3,4,4,1
1558434547758307,0,-2,-1,10,6,3,-5,-3
1558434547773268,2,9,9,3,1,-1,-1,0
1558434547773268,-4,-5,-5,-11,1,-2,-3,0
1558434547780248,-1,-2,2,-1,-7,-8,-6,-5
1558434547780248,1,-2,-8,-3,-2,-2,3,-1
1558434547796207,0,0,4,11,5,5,2,1
1558434547796207,1,2,0,-2,-1,-3,-3,-1
1558434547797203,-2,-3,4,-2,-4,-10,-8,-4
1558434547797203,2,6,0,0,3,-1,5,3
1558434547812163,-2,-3,-5,-4,-7,-1,2,-4
1558434547812163,-4,-1,0,-4,-1,0,-5,-1
1558434547818146,-1,-1,-6,0,1,1,1,0
1558434547818146,-2,-3,-5,-1,-6,0,0,-1
1558434547833106,-3,1,7,5,3,-3,-5,-3
1558434547833106,-2,-4,-10,3,-3,0,0,0
1558434547840088,2,5,9,-20,-2,-1,6,1
1558434547840088,-2,-10,-16,-5,-6,-1,1,-2
1558434547856077,0,-1,0,-1,6,9,0,-1
1558434547856077,-1,1,-1,2,-1,-2,-7,-4
1558434547857043,0,2,3,13,5,8,1,0
1558434547857043,-2,-2,0,-6,-3,-9,0,-1
1558434547872003,-3,-2,-17,-2,1,-8,-7,-2
1558434547872003,-4,-1,8,3,-4,-2,-2,-6
1558434547877987,0,-3,-6,-1,-5,-2,-2,1
1558434547877987,1,2,11,-5,1,-1,-5,-3
1558434547893945,-1,2,-4,12,-4,-1,1,-3
1558434547893945,-2,-3,-3,-8,-4,-6,0,1
1558434547900926,-3,-4,-7,-9,-4,-6,-3,-3
1558434547900926,0,0,4,4,1,-1,-3,2
1558434547915887,-3,-5,-12,-10,-4,1,-1,0
1558434547915887,3,2,3,10,4,3,3,1
1558434547922932,-1,-2,-6,-6,0,-2,0,-2
1558434547922932,0,-3,-7,7,4,5,3,-2
1558434547931843,-1,7,18,-6,-6,-9,-2,2
1558434547931843,0,-2,-8,4,7,12,5,1
1558434547945815,1,0,-1,10,2,1,4,2
1558434547945815,-2,2,-1,4,-4,-6,-4,-4
1558434547952787,-3,-3,2,-5,-5,-3,-5,-4
1558434547952787,-4,-6,-9,-19,-8,-3,-5,-4
1558434547960765,1,-2,3,-3,-4,-8,-4,2
1558434547960765,0,4,13,8,12,7,6,3
1558434547975726,-3,-5,-8,10,-5,1,-3,-3
1558434547975726,-2,0,-11,-17,-4,-4,-2,-1
1558434547982707,0,-2,-5,7,0,4,-2,-1
1558434547982707,-2,-1,5,-7,-10,-6,3,-4
1558434548006644,-1,-3,5,7,1,-8,-3,-1
1558434548006644,-2,-1,-8,0,10,11,2,1
1558434548007642,-1,0,-4,-6,-4,-2,4,1
1558434548007642,-1,0,-2,-1,0,-1,2,2
1558434548012663,1,-3,5,-2,1,2,-3,0
1558434548012663,3,-2,3,0,0,-1,-2,-1
1558434548028620,-1,2,4,8,3,-6,1,1
1558434548028620,-2,-5,-9,-7,-5,-6,-10,-5
1558434548035603,-1,-2,1,-2,-2,-2,-3,-2
1558434548035603,-2,0,-10,2,-5,-5,-2,0
1558434548051522,-4,-2,-3,6,6,7,-1,-2
1558434548051522,-4,-3,-4,-9,-8,-2,0,1
1558434548053517,0,-1,-19,-14,-1,0,0,0
1558434548053517,-3,3,16,-2,-8,-6,1,-1
1558434548057506,-2,-2,1,-4,-4,-1,-10,-4
1558434548057506,1,2,10,13,10,9,9,3
1558434548073472,-3,-6,-2,-5,-2,-1,-4,-6
1558434548073472,-1,-1,0,-3,0,-4,-2,0
1558434548080445,1,4,-3,0,2,-2,5,4
1558434548080445,-1,-1,-1,4,3,1,-4,0
1558434548095443,3,2,5,1,0,2,-1,0
1558434548095443,2,-3,3,2,0,-3,2,1
1558434548103383,-4,-3,4,-2,-7,-8,-10,-5
1558434548103383,-3,-5,-28,-5,-12,-3,-9,-4
1558434548118345,-1,2,0,3,15,19,13,4
1558434548118345,-1,2,10,3,-2,-1,-2,-1
1558434548119342,0,0,-10,-8,8,8,3,-1
1558434548119342,-2,-5,4,12,-4,-10,-10,-5
1558434548133305,-1,0,-8,-15,-5,-5,0,-2
1558434548133305,1,-1,3,0,-3,1,-1,1
1558434548140287,-1,2,9,3,2,-3,10,2
1558434548140287,-2,-1,-7,-6,8,6,5,0
1558434548155246,-6,-6,-7,-1,-10,-10,-7,-4
1558434548155246,-1,-1,-1,-6,1,4,5,-2
1558434548163223,0,-2,-12,1,-5,-7,-4,1
1558434548163223,0,-1,-6,-6,-5,-7,-8,3
1558434548180180,-1,1,16,8,5,7,-4,-5
1558434548180180,0,-3,-8,7,8,3,0,2
1558434548181203,-1,0,-6,-2,-8,-6,-5,0
1558434548181203,1,2,18,-3,-3,-1,3,-1
1558434548193144,2,3,1,8,3,-1,2,3
1558434548193144,-1,-3,-10,-19,-4,-3,-2,-2
1558434548200125,2,-1,8,7,1,3,-6,-4
1558434548200125,-4,-1,0,-10,-4,-3,-1,-1
1558434548215087,0,4,9,5,-4,-9,-7,1
1558434548215087,-3,-4,-1,0,-8,1,2,-1
1558434548231043,0,-6,-20,-11,3,8,13,1
1558434548231043,0,4,4,1,-4,-3,0,-3
1558434548239021,-1,-3,-4,-2,0,-3,-4,-1
1558434548239021,-1,2,3,6,4,-1,2,-2
1558434548239021,-4,-2,0,-4,3,4,-4,-5
1558434548239021,0,0,5,3,-1,-3,-5,-1
1558434548252983,1,-1,-6,7,2,4,7,-1
1558434548252983,0,1,-4,-15,-4,-3,-2,-3
1558434548260962,0,-2,2,-4,-6,-3,-3,-3
1558434548260962,-1,-4,-17,-9,-4,-3,-5,-3
1558434548275959,-2,-3,5,4,8,0,-1,0
1558434548275959,-3,-4,-5,-9,-4,-2,1,-2
1558434548282943,0,2,4,-2,-3,-8,-2,-2
1558434548282943,-3,0,-17,-2,0,2,-2,-3
1558434548299858,-2,-4,-3,-3,-12,-9,-10,-4
1558434548299858,-2,-1,4,0,3,2,-1,-1
1558434548300857,-2,-5,1,0,-2,-5,1,0
1558434548300857,2,-1,14,0,2,-1,2,0
1558434548312850,-1,-2,-4,-2,-3,-3,-2,-4
1558434548312850,1,2,2,10,0,4,-1,0
1558434548328782,1,-1,1,-3,-1,-1,-5,-1
1558434548328782,-1,-1,3,9,3,-2,3,-1
1558434548335763,-2,-2,-2,-7,-4,-1,-5,-5
1558434548335763,-3,-2,-10,-12,-1,-2,0,-2
1558434548342743,-2,-1,3,0,-2,-3,2,2
1558434548342743,2,0,0,-2,1,6,3,1
1558434548358701,-2,-1,5,-2,2,6,2,0
1558434548358701,0,2,8,12,0,-2,-7,-5
1558434548359702,-3,-3,-1,-4,-12,-3,-6,-3
1558434548359702,1,1,-6,-5,5,2,7,4
1558434548372665,2,4,12,-3,4,3,4,3
1558434548372665,1,5,10,10,1,-4,2,0
1558434548380702,-2,-4,-9,-13,0,5,-7,1
1558434548380702,-2,-2,5,6,-6,-1,-4,-3
1558434548395603,0,0,-7,-3,-8,-8,1,3
1558434548395603,1,-2,-9,6,4,0,3,-1
1558434548402585,-2,-2,-12,-7,-5,-5,-7,-9
1558434548402585,-5,-3,-5,-1,-3,-1,-3,-4
1558434548418540,1,2,-2,-4,-1,1,3,0
1558434548418540,2,-2,7,6,-1,-3,2,5
1558434548419538,-1,-1,-4,1,3,3,5,3
1558434548419538,-2,-2,0,0,3,0,-5,0
1558434548434501,-1,0,0,-11,-7,-3,-2,1
1558434548434501,-3,-3,-2,1,-1,-2,0,-1
1558434548457604,-1,-2,-6,-5,0,0,-1,-5
1558434548457604,-1,2,13,1,-1,-4,-7,-6
1558434548458439,0,-3,-12,-8,2,6,7,1
1558434548458439,-2,-6,-16,1,-7,-9,-8,-2
1558434548463780,-2,3,0,0,4,7,2,2
1558434548463780,-1,-3,-4,-3,0,-1,6,2
1558434548479559,-2,-3,-4,-1,3,-3,-6,-3
1558434548479559,0,0,5,2,0,0,-1,-1
1558434548479559,-3,1,3,8,-4,-7,-9,-3
1558434548479559,-1,-3,-10,-22,-10,-4,-11,-2
1558434548493699,-1,-1,7,7,12,12,7,2
1558434548493699,-1,-2,-7,2,-5,-7,-4,-2
1558434548501320,-2,2,-1,-1,-4,0,1,-2
1558434548501320,0,-2,-8,-2,-3,-2,-2,1
1558434548516314,-1,1,24,4,-1,-6,0,0
1558434548516314,-4,-4,-18,-12,-2,1,-9,-6
1558434548523332,3,-2,3,4,-3,5,7,0
1558434548523332,1,4,5,-4,0,-4,5,0
1558434548538222,0,-2,-2,4,1,-2,0,1
1558434548538222,0,1,20,7,2,3,2,-1
1558434548539219,-1,-4,-14,-2,-3,-4,-5,-1
1558434548539219,1,4,0,-2,3,2,4,3
1558434548553180,-2,-2,-4,-5,-13,-9,-10,-8
1558434548553180,-4,-5,-2,-6,-2,0,-3,-3
1558434548560165,-2,0,-10,3,3,-2,4,0
1558434548560165,-3,-5,4,3,5,6,2,0
1558434548575122,-6,-8,-34,-6,-5,1,-3,-3
1558434548575122,0,2,8,0,-3,-7,-4,-1
1558434548583102,1,-2,14,5,0,-2,1,-1
1558434548583102,0,-1,-12,-8,6,1,2,-1
1558434548599058,-2,-3,0,-5,-8,-3,-3,-2
1558434548599058,-2,-2,1,-17,-10,-6,-6,-2
1558434548599058,1,-1,-4,-5,8,2,7,6
1558434548599058,-1,0,7,8,4,-1,1,1
1558434548613021,2,1,3,12,-1,-1,-5,-2
1558434548613021,2,3,6,3,-2,0,0,-1
1558434548620054,-4,-2,2,-3,-7,-7,-4,-3
1558434548620054,-1,-5,-2,-13,-10,-8,-7,-2
1558434548635959,-3,-6,-31,-3,4,6,5,1
1558434548635959,3,4,9,23,5,2,3,3
1558434548642940,0,2,2,-15,-4,0,-3,-1
1558434548642940,-5,-3,3,6,1,-1,-2,-4
1558434548658898,1,2,7,0,1,-3,0,-1
1558434548658898,1,-3,-10,-16,-4,-2,2,3
1558434548658898,-1,-5,-2,9,3,-2,1,-3
1558434548658898,-2,2,-2,6,-3,-1,2,-1
1558434548672861,-3,1,11,-1,0,-2,-5,-4
1558434548672861,1,0,-12,2,-5,-3,-2,-4
1558434548680876,1,1,11,4,-2,-3,-3,1
1558434548680876,1,2,0,3,-2,-4,1,4
1558434548695815,-4,-4,-3,-4,-5,-3,-2,-3
1558434548695815,-6,-2,3,-5,2,0,-3,-3
1558434548710760,-5,-5,-24,-8,-3,1,-10,-8
1558434548710760,1,0,15,18,-4,3,1,-2
1558434548718801,3,1,-11,-12,5,-2,5,6
1558434548718801,-1,0,1,-6,-3,-1,4,3
1558434548719765,-1,-2,8,4,-1,-4,-2,-1
1558434548719765,-3,-1,-2,0,-2,-4,-4,-4
1558434548734694,2,4,8,1,1,-4,-1,1
1558434548734694,-2,-4,1,2,-4,-3,4,2
1558434548740678,3,2,11,4,9,13,7,0
1558434548740678,0,-4,-16,-14,-3,0,0,-2
1558434548755640,-3,0,14,6,-1,2,-6,-3
1558434548755640,-1,-2,-10,3,0,1,-4,-4
1558434548762784,-4,-2,-4,-1,-3,-8,-6,-1
1558434548762784,1,-1,1,10,5,1,10,6
1558434548778580,-1,-1,1,-10,-4,-2,-2,1
1558434548778580,-3,-2,-6,-5,-3,-3,-3,-5
1558434548786556,-2,-1,3,-2,-4,2,-2,-2
1558434548786556,-1,4,13,-1,-3,3,-3,-5
1558434548792540,-3,-10,-23,10,4,-2,1,-2
1558434548792540,4,0,6,-7,0,1,-5,1
1558434548808499,2,1,-3,-7,-3,-4,9,5
1558434548808499,-6,-8,-7,-3,0,-2,-2,-1
1558434548815478,0,1,10,-6,-4,2,1,-1
1558434548815478,-6,-4,-3,-5,-9,-3,-7,-7
1558434548823458,3,4,1,10,13,9,5,3
1558434548823458,4,4,-10,-2,0,-4,-1,1
1558434548838419,1,2,3,9,-1,-1,2,-1
1558434548838419,-2,-5,-8,-17,-2,-6,-3,-2
1558434548846397,-1,-4,0,2,-4,-5,-8,-1
1558434548846397,0,4,9,2,-1,1,5,0
1558434548855373,0,-1,-13,-10,-6,-3,-2,0
1558434548855373,-1,-3,-3,3,-2,-4,-6,-1
1558434548860359,-2,4,22,9,11,1,5,-1
1558434548860359,-2,-7,-9,-2,-13,1,-4,-2
1558434548884403,1,2,6,-2,1,-1,1,-1
1558434548884403,0,2,8,8,4,2,5,1
1558434548884403,-2,-3,-10,-5,-6,-1,-2,-2
1558434548884403,-2,-1,-3,3,-2,-12,-7,-4
1558434548898634,-2,-3,3,1,-1,-2,0,-1
1558434548898634,2,1,-1,-4,2,4,6,0
1558434548906237,-6,-3,-5,-12,-7,-4,-5,-4
1558434548906237,0,-1,-2,-5,3,0,4,4
1558434548913253,-1,-2,-6,-3,-12,-9,-4,-2
1558434548913253,2,1,5,12,6,2,-1,3
1558434548920200,2,-1,-8,-1,2,2,2,-1
1558434548920200,-1,-2,1,-2,-3,0,-5,-5
1558434548937155,-2,-2,2,0,6,0,1,-3
1558434548937155,-1,-1,-3,2,6,1,4,2
1558434548943164,-1,0,3,-1,-6,-5,-5,-2
1558434548943164,-2,-1,-2,-6,2,5,-3,-3
1558434548958097,-1,-3,4,-1,-1,1,-4,-2
1558434548958097,2,4,10,6,1,5,6,2
1558434548975259,-3,-3,-9,-13,-5,-7,-1,-2
1558434548975259,-1,-2,0,-1,-1,-3,-5,0
1558434548976051,-1,0,6,1,6,5,1,1
1558434548976051,-2,-4,-3,-2,-7,-9,-3,-2
1558434548980039,-3,0,3,3,0,1,-6,-5
1558434548980039,-1,1,1,1,3,-1,4,2
1558434548995210,-2,1,-9,-7,-8,-2,0,-1
1558434548995210,-4,-9,-15,-2,3,2,-4,-2
1558434549003394,2,3,8,17,4,4,7,4
1558434549003394,-3,-4,-2,-22,-1,5,-6,-4
1558434549017939,-2,-4,-6,5,8,0,-2,-2
1558434549017939,2,2,1,5,-12,-4,5,4
1558434549025918,-4,-10,-26,-21,-11,-5,-3,-2
1558434549025918,0,3,7,9,0,-9,-5,-3
1558434549040877,2,6,7,11,10,16,10,5
1558434549040877,-2,-2,-6,-5,-2,-2,-5,-3
1558434549041875,2,-2,6,11,3,0,2,-1
1558434549041875,-1,-3,-1,4,-4,-1,-1,-1
1558434549055837,-4,-6,-4,-5,-9,-7,-3,-3
1558434549055837,0,1,-4,3,3,0,-3,-1
1558434549062834,1,8,19,1,-9,-7,-4,0
1558434549062834,-5,-9,-23,-7,-2,-6,-4,-4
1558434549077889,1,4,6,0,-2,-4,-3,2
1558434549077889,-3,-5,-1,-7,-1,1,5,1
1558434549085822,3,1,3,2,6,5,2,2
1558434549085822,0,0,0,4,5,4,-2,-2
1558434549101714,-3,-3,-14,-6,-6,-2,5,0
1558434549101714,-3,-2,-3,-8,-7,-13,-12,-6
1558434549101714,1,-1,6,5,3,4,0,0
1558434549101714,-1,-3,-6,2,9,4,-4,-3
1558434549115749,0,0,7,5,-4,-6,-1,0
1558434549115749,2,3,7,-6,8,10,5,1
1558434549122662,-4,-3,-8,6,1,-7,-2,-3
1558434549122662,-3,0,-4,-14,-7,-1,2,0
1558434549137619,-2,-1,1,3,-5,-7,-6,-3
1558434549137619,-4,-4,-5,-9,-6,0,-6,-4
1558434549146596,2,0,5,-1,-3,-6,-4,3
1558434549146596,0,-1,-4,0,6,1,3,-1
1558434549162806,0,1,7,3,5,7,4,0
1558434549162806,-1,-3,-2,7,-4,-2,-1,-4
1558434549162806,2,-1,2,-5,3,1,1,0
1558434549162806,2,4,20,4,-1,-2,2,-1
1558434549175593,-1,-4,-12,-8,-11,-7,-5,-5
1558434549175593,-1,2,0,-2,-1,-2,0,-1
1558434549182501,-3,-6,-10,-8,-5,1,-4,-4
1558434549182501,-1,0,7,8,7,5,4,2
1558434549198524,-1,-1,4,-3,1,0,-4,-1
1558434549198524,-2,2,13,8,0,-2,2,0
1558434549206435,-6,-4,-11,-15,-2,-2,0,-4
1558434549206435,0,1,0,-2,-8,-9,-5,0
1558434549221393,-2,-4,-7,-1,-2,-7,-5,-1
1558434549221393,3,3,7,12,9,9,7,7
1558434549222391,-1,-2,2,3,-4,-3,-3,-2
1558434549222391,-2,-4,-13,-16,-8,2,0,-4
1558434549237351,-2,2,6,2,1,4,-2,-5
1558434549237351,0,0,-4,1,2,-6,-3,1
1558434549243336,-2,0,-4,0,4,5,3,0
1558434549243336,-1,-3,3,5,2,3,6,0
1558434549258300,2,2,1,-3,0,-6,-3,0
1558434549258300,-5,-3,-5,-9,-9,-1,-6,-6
1558434549266274,-1,-2,-8,-5,-3,-2,1,-1
1558434549266274,-1,1,4,8,-4,-2,-6,-3
1558434549281236,0,1,7,-5,0,2,-1,1
1558434549281236,2,3,3,1,4,2,0,-1
1558434549282232,0,-2,-9,-3,-6,-4,0,-1
1558434549282232,-2,-4,-3,0,-3,-3,0,-2
1558434549295198,1,3,5,5,5,4,3,0
1558434549295198,-2,-4,-4,-2,0,-2,-1,1
1558434549311154,-1,0,-5,-4,-3,-3,-3,0
1558434549311154,-2,-5,-3,0,-3,-5,-5,0
1558434549318199,-1,-5,-10,0,1,1,1,-1
1558434549318199,-2,-5,-26,-9,-5,0,-2,-1
1558434549326113,2,4,16,8,-2,-4,1,0
1558434549326113,-2,-5,-27,-5,-2,-5,-3,-1
1558434549341091,0,1,-2,-10,1,6,6,1
1558434549341091,4,5,16,10,4,0,2,-1
1558434549342074,-1,-2,2,-2,0,2,-3,3
1558434549342074,2,2,-9,-11,-4,1,-1,1
1558434549355040,-2,-4,7,6,-2,-3,-7,-1
1558434549355040,-3,-4,-2,3,0,-1,-1,-2
1558434549363045,-2,1,6,8,3,0,2,-4
1558434549363045,-2,-3,3,1,-2,-2,2,1
1558434549386950,0,3,-4,-11,-4,-2,0,-3
1558434549386950,-1,-1,-1,-8,-4,-1,-1,0
1558434549387949,-4,-7,-10,-10,-4,0,-5,-6
1558434549387949,-2,3,9,10,7,6,4,0
1558434549400915,-1,-4,5,-9,-5,-5,0,-4
1558434549400915,-2,1,-10,5,4,0,-1,-1
1558434549401912,-3,-10,-24,-31,-11,-2,0,-3
1558434549401912,-1,-3,-1,-4,-2,-7,-6,-4
1558434549416875,-1,3,6,7,2,1,0,0
1558434549416875,-1,-1,-4,-11,-4,-1,-3,-3
1558434549422858,-3,2,7,3,0,-2,-1,-4
1558434549422858,2,4,7,4,-1,-3,-3,0
1558434549437816,-4,-8,-19,-3,-8,-3,3,-2
1558434549437816,-2,0,7,-2,1,-1,1,0
1558434549445794,0,1,2,-2,-1,-5,-6,0
1558434549445794,3,4,12,10,2,2,-1,3
1558434549460753,-2,-2,-5,8,11,6,1,-1
1558434549460753,-2,-2,-5,-11,0,4,4,0
1558434549461751,1,3,4,6,-3,-4,-2,-2
1558434549461751,-5,-4,-4,-19,-5,-3,-1,-4
1558434549475713,-1,-2,1,4,-5,-3,-4,2
1558434549475713,-1,-3,-2,-3,0,1,10,-1
1558434549482695,-1,-5,-4,10,2,-2,-5,0
1558434549482695,1,2,6,5,-1,-4,-2,-1
1558434549497655,-1,-3,-6,-12,-5,-3,-3,-3
1558434549497655,-3,-5,-6,-4,-4,-1,-3,-2
1558434549505640,4,5,13,7,-3,-2,0,2
1558434549505640,-1,-1,-3,5,7,5,12,0
1558434549521595,-2,-1,-2,-1,-8,-2,-4,-3
1558434549521595,-1,-2,-2,-18,-8,-6,-7,-3
1558434549521595,-2,-2,-9,-19,-7,-5,-3,-2
1558434549521595,-2,-1,-8,-4,5,4,-1,2
1558434549536552,-1,3,8,13,10,0,0,2
1558434549536552,-1,-4,-11,9,-1,-1,2,-4
1558434549542540,1,-1,2,-7,-2,3,-2,-3
1558434549542540,-3,-7,-5,-13,-15,-2,-2,-1
1558434549557496,-1,-1,1,10,6,5,-3,-2
1558434549557496,-1,-3,-6,5,3,0,-1,1
1558434549565475,1,3,7,10,2,-4,-4,0
1558434549565475,0,0,6,14,-1,1,3,-2
1558434549581431,2,1,18,4,-3,-3,-2,-2
1558434549581431,1,4,-1,2,-3,-1,-8,0
1558434549588421,-1,-3,-15,-15,-2,4,11,2
1558434549588421,-3,-5,-3,-2,-3,-7,-5,-2
1558434549595395,-1,1,4,7,10,7,-1,3
1558434549595395,-3,2,17,6,-2,-2,-2,-2
1558434549603375,0,-2,-19,16,10,1,4,1
1558434549603375,-5,-5,-3,-15,-7,-1,1,-4
1558434549618332,-1,-3,-7,-7,-3,-4,-6,-4
1558434549618332,-1,-2,10,9,-3,-2,2,1
1558434549625314,-2,1,7,7,-6,-5,-6,-1
1558434549625314,0,1,2,7,2,-4,3,0
1558434549641271,0,-1,-8,-14,3,4,1,2
1558434549641271,0,0,4,5,-1,1,-4,-2
1558434549642269,0,-7,-7,-5,-2,-2,6,0
1558434549642269,-5,-2,-4,-16,-4,-2,-8,-2
1558434549655239,-2,-2,5,5,-8,-9,3,-4
1558434549655239,-5,-4,-20,-8,-1,-1,-3,-4
1558434549663213,-1,1,9,22,1,-2,-5,-3
1558434549663213,0,1,1,-5,1,-3,-6,-3
1558434549678172,-3,-6,-6,-12,-9,-7,1,-1
1558434549678172,1,4,5,-5,4,-1,2,1
1558434549685161,-1,2,15,27,8,4,-5,-3
1558434549685161,-1,-4,-16,-22,-14,1,6,4
1558434549701110,1,3,1,0,-3,0,-1,-2
1558434549701110,3,-2,0,3,6,4,1,2
1558434549702108,-1,-1,4,-5,2,-6,-3,-1
1558434549702108,2,5,11,8,8,1,-1,0
1558434549715073,0,0,1,6,7,0,-1,0
1558434549715073,-1,-4,-15,-9,-12,-5,-12,-6
1558434549723052,0,1,0,-4,-4,-1,2,2
1558434549723052,-2,-3,-3,-12,3,6,1,-2
1558434549739010,-3,-4,-25,-19,-10,-7,1,-2
1558434549739010,-3,-3,6,-2,-3,-5,-3,-5
1558434549745002,-4,-7,-30,-38,-9,-3,-4,0
1558434549745002,0,0,7,13,4,1,10,1
1558434549768929,4,8,17,17,6,3,0,2
1558434549768929,-1,-1,10,-2,0,-4,-5,0
1558434549769927,1,0,6,6,3,7,1,1
1558434549769927,5,3,-5,8,5,-2,-4,1
1558434549775910,-2,-1,3,-11,-5,-1,3,1
1558434549775910,2,3,8,5,4,2,12,1
1558434549782892,-4,-4,-20,-12,-2,0,-1,-3
1558434549782892,-4,-5,-6,-1,-4,-5,-11,-3
1558434549797851,-2,-2,-4,-10,-9,-5,0,-4
1558434549797851,-3,-4,-19,-6,-5,-1,-3,-3
1558434549805833,-4,-4,2,5,2,-1,-1,-3
1558434549805833,5,6,6,-1,1,-3,8,3
1558434549820791,-2,-8,-23,3,1,-2,-3,-1
1558434549820791,-2,0,13,-3,2,1,1,-1
1558434549828774,-4,-1,-2,-2,1,2,1,-2
1558434549828774,-1,0,-3,-5,-8,-3,-3,-1
1558434549835778,-3,-2,7,10,5,-1,-3,-2
1558434549835778,1,1,2,-8,-3,2,5,3
1558434549842732,1,-1,-2,0,-4,-3,-2,0
1558434549842732,-4,-5,-18,-17,-12,-3,-7,-3
1558434549857693,0,-1,-5,7,0,0,-4,-2
1558434549857693,-1,0,0,-6,1,0,4,1
1558434549865671,2,6,20,6,6,1,-2,-2
1558434549865671,-2,2,9,1,1,2,-5,-4
1558434549880631,0,-2,-4,9,4,-1,0,-1
1558434549880631,-4,-6,1,2,-10,-7,-5,-6
1558434549888614,4,4,14,8,6,0,-4,3
1558434549888614,-1,-4,-30,-45,-14,-4,7,3
1558434549895591,0,1,-5,-25,-1,3,5,1
1558434549895591,-1,1,7,18,3,1,-8,0
1558434549902572,-4,-7,-14,-5,-2,-3,2,-1
1558434549902572,1,1,14,25,7,1,-6,2
1558434549917532,-1,-1,-6,-12,-6,-1,4,1
1558434549917532,2,0,-2,-10,0,0,2,2
1558434549925511,2,-1,1,-2,1,1,2,0
1558434549925511,0,-3,-8,8,3,-3,-5,1
1558434549940470,-4,-5,-6,-2,-15,-6,-5,-3
1558434549940470,-1,4,10,12,5,0,-5,-1
1558434549948451,-7,-11,-18,-6,-7,-2,1,-3
1558434549948451,-2,0,15,13,6,0,-1,-1
1558434549963409,4,4,2,2,4,-2,-13,0
1558434549963409,-3,-4,-5,1,-5,-1,16,0
1558434549964407,-3,-7,-15,-17,-6,-2,-5,-4
1558434549964407,0,-2,3,5,-5,-1,3,3
1558434549979365,-2,-1,13,16,0,-3,1,2
1558434549979365,0,1,-13,-8,2,-3,-4,-2
1558434549985356,-1,4,15,3,1,1,-1,-2
1558434549985356,-1,-2,-9,-8,-2,1,0,-4
1558434550000310,-3,-7,-13,-1,1,1,-2,-3
1558434550000310,2,3,5,4,0,0,-1,2
1558434550008298,-2,-3,-5,-21,-12,-7,-3,-1
1558434550008298,1,3,6,4,1,-6,-5,0
1558434550023259,-1,-1,2,0,1,1,2,-2
1558434550023259,-4,-3,-8,-4,3,-2,-5,-4
1558434550024248,0,3,6,19,2,-1,2,0
1558434550024248,1,0,5,16,4,2,2,-1
1558434550038211,-1,-1,-3,-19,-6,-1,1,-3
1558434550038211,2,0,8,11,6,1,1,1
1558434550045192,-3,-1,-12,-8,-2,-1,1,1
1558434550045192,-1,1,9,12,5,3,-2,1
1558434550069131,-1,0,22,12,0,2,1,0
1558434550069131,1,-3,-21,-35,-9,-1,1,1
1558434550070125,1,-2,4,11,7,-1,-4,-3
1558434550070125,-1,-2,-4,-2,0,-1,1,-3
1558434550084086,-2,-1,-7,-9,-1,-3,-6,-2
1558434550084086,-2,-3,6,8,-4,-5,-9,-7
1558434550084086,2,1,-3,-9,-5,-2,10,4
1558434550084086,-5,-3,2,10,1,3,-3,-6
1558434550099047,-1,-1,-10,-23,0,0,3,-5
1558434550099047,-1,-1,-6,-2,-1,-2,-1,-1
1558434550106028,1,3,4,9,3,2,0,0
1558434550106028,1,1,3,4,-3,-3,-2,-1
1558434550119990,0,2,10,-5,2,1,-1,4
1558434550119990,0,-3,-10,-9,-5,-2,-6,-1
1558434550128966,-4,-6,2,4,-1,1,-2,-3
1558434550128966,-1,2,4,9,-1,-3,1,1
1558434550143926,3,1,3,9,2,0,3,2
1558434550143926,0,-2,2,13,2,-3,-7,0
1558434550143926,2,0,0,-11,-4,-1,8,6
1558434550143926,-3,-4,-4,0,-3,-1,-5,-5
1558434550166134,-4,-5,-17,-11,-2,0,0,-1
1558434550166134,-1,2,1,-9,-2,0,0,-1
1558434550166865,0,1,-2,-5,-7,-3,-4,0
1558434550166865,1,-2,0,0,0,-3,-1,0
1558434550180827,-3,-2,3,5,-3,-5,-6,-7
1558434550180827,-2,-5,-6,8,1,1,3,1
1558434550188806,-1,2,4,-12,-2,-2,-6,-4
1558434550188806,0,0,1,5,2,1,3,3
1558434550203768,0,-1,3,7,-6,-4,-3,-1
1558434550203768,-5,-7,-24,-34,-10,-5,0,0
1558434550204764,1,-1,-1,4,4,2,-3,-3
1558434550204764,-6,-3,-12,-15,-2,0,-2,-6
1558434550217734,1,6,14,15,7,2,-3,0
1558434550217734,-3,-1,2,1,-1,1,-3,-4
1558434550225716,-4,-2,-6,-3,-2,-1,0,0
1558434550225716,0,-5,-9,-13,-6,-6,-5,-3
1558434550240667,1,0,0,8,-1,-1,-3,3
1558434550240667,8,4,9,2,0,2,8,0
1558434550248649,-5,-4,-4,8,0,0,6,4
1558434550248649,-1,0,10,2,3,0,-1,0
1558434550263608,-2,0,-13,-26,-11,-6,-5,-1
1558434550263608,1,2,4,6,-3,-4,-4,-1
1558434550264604,0,2,6,-5,3,-1,-7,-10
1558434550264604,-3,-1,-11,-10,-4,2,4,0
1558434550277568,-4,0,4,10,2,3,1,0
1558434550277568,-3,-2,-3,3,2,-1,-3,1
1558434550285546,1,0,-1,2,-2,-3,-6,-3
1558434550285546,0,-1,1,-5,-3,-3,-4,-3
1558434550300545,0,-4,-10,-2,1,0,4,-1
1558434550300545,-1,2,2,-2,-3,-2,-2,1
1558434550308485,0,1,7,38,11,6,10,9
1558434550308485,0,-2,-9,-33,-9,-2,-4,-1
1558434550323447,-1,0,0,-4,-3,0,3,0
1558434550323447,4,0,-5,0,2,-2,-6,-4
1558434550324443,-8,-2,6,-6,-8,-4,0,-1
1558434550324443,1,3,10,12,6,3,1,1
1558434550338413,2,1,-13,-2,-2,0,-2,0
1558434550338413,-5,-8,-17,1,0,0,-1,-3
1558434550345387,4,1,8,2,-1,-1,-2,-2
1558434550345387,-2,0,3,7,1,1,2,-2
1558434550360352,-1,1,12,3,1,-1,0,0
1558434550360352,-2,-2,-7,-7,-7,-4,1,1
1558434550368326,7,0,-13,-24,-1,-2,-1,0
1558434550368326,-14,-5,4,7,-3,-1,-1,0
1558434550383290,-2,-3,-7,-13,-4,-4,-7,-6
1558434550383290,-4,0,6,6,1,4,12,5
1558434550384283,3,1,-4,-9,-1,-2,-6,-3
1558434550384283,-2,-2,-4,3,-1,-3,-6,-9
1558434550398247,3,-3,-5,5,2,1,0,2
1558434550398247,-14,-2,11,1,-1,-3,-4,-7
1558434550405231,-1,-1,-11,-2,-3,-1,-3,-2
1558434550405231,3,2,10,15,5,0,-2,1
