timestamp,emg1,emg2,emg3,emg4,emg5,emg6,emg7,emg8
1558434598507032,-1,-3,-10,2,-4,-2,4,1
1558434598507032,3,0,3,-1,6,3,-2,0
1558434598508030,-5,-4,1,1,-5,0,-7,-5
1558434598508030,-2,-6,-26,-4,-2,3,1,-2
1558434598510027,0,1,11,-1,-1,-1,-1,-3
1558434598510027,-2,0,5,5,-3,-6,-4,0
1558434598510027,-2,-3,-17,-6,-2,2,5,0
1558434598510027,1,2,8,-1,2,1,0,-2
1558434598520002,-3,-4,-5,-3,-6,-6,-8,-6
1558434598520002,1,-2,-10,4,3,3,2,1
1558434598523990,2,7,28,-14,-5,-4,-1,0
1558434598523990,-1,2,13,10,-4,-1,-4,-1
1558434598538949,0,-1,-12,2,10,11,12,1
1558434598538949,-2,0,7,6,5,1,-1,-1
1558434598548921,-1,-2,-9,-1,-4,0,-5,-4
1558434598548921,0,0,1,8,4,2,3,4
1558434598561887,-2,2,3,-5,-1,-2,-3,2
1558434598561887,-2,-1,0,-4,-3,-4,-2,-5
1558434598568869,-3,-7,-6,1,-2,-5,-1,-1
1558434598568869,0,-4,-17,-10,-2,-3,-2,1
1558434598579840,2,0,13,12,4,4,-4,0
1558434598579840,-4,-2,-8,-3,-7,-2,0,-3
1558434598592804,-3,-4,-1,-14,-8,-7,-10,-8
1558434598592804,0,-1,3,3,5,3,-2,-2
1558434598630703,-1,-2,-3,-1,0,1,2,-2
1558434598630703,0,0,2,-2,-3,-5,0,-3
1558434598631701,-1,-1,7,0,-1,-3,-3,-3
1558434598631701,-4,-2,-9,-13,-10,-9,0,-2
1558434598632699,-3,-1,13,2,0,2,-3,-2
1558434598632699,-2,-4,-13,-6,8,5,1,2
1558434598632699,0,2,6,-1,-2,-7,-3,3
1558434598632699,0,4,8,1,2,5,1,-1
1558434598643668,-2,-1,-4,2,-8,-3,-6,-8
1558434598643668,0,-1,-5,-9,-1,1,-3,-1
1558434598651646,0,-1,-2,0,1,5,1,0
1558434598651646,-2,-6,-12,-2,-5,-4,-4,-4
1558434598658627,1,0,-8,-6,1,2,-4,1
1558434598658627,0,0,3,8,6,2,-1,3
1558434598674584,-4,-3,-10,-9,-8,-2,7,-3
1558434598674584,-1,-1,-2,6,1,-5,-1,0
1558434598681567,1,4,16,0,1,-3,0,0
1558434598681567,-3,-3,-5,-1,-3,-3,-1,-3
1558434598688550,2,5,12,4,0,2,-1,-1
1558434598688550,-6,-5,-7,-1,-4,1,-11,-9
1558434598703510,3,0,3,12,16,9,12,7
1558434598703510,1,-1,-1,-5,-4,-6,-1,0
1558434598712483,2,1,5,-1,2,2,1,1
1558434598712483,1,0,-7,2,1,2,-2,2
1558434598718469,-2,-1,-2,2,-6,-5,-4,-4
1558434598718469,1,1,6,5,-4,-6,-3,-1
1558434598734424,-1,-4,-6,-3,1,5,2,0
1558434598734424,-1,-3,2,0,6,3,10,1
1558434598741407,-5,-4,-17,-6,-2,-8,-5,-3
1558434598741407,-3,-1,9,6,1,5,-5,-5
1558434598757364,-2,-4,-15,-4,-3,-8,-1,-1
1558434598757364,1,-2,-5,-2,4,7,2,-2
1558434598763349,-3,-1,1,1,0,5,1,0
1558434598763349,-4,-4,-3,-9,-7,5,0,-4
1558434598780304,-4,-2,-4,9,-3,-1,-10,-7
1558434598780304,-1,0,2,-6,-6,-12,-5,-2
1558434598781299,0,1,-1,-5,4,-4,0,2
1558434598781299,1,-1,-1,4,2,1,4,0
1558434598794264,1,-1,-4,-1,1,0,-3,1
1558434598794264,0,-3,-6,1,-4,0,1,1
1558434598801246,-3,6,20,3,-7,-8,-10,-4
1558434598801246,-1,0,7,2,6,11,6,1
1558434598809226,-2,-6,-9,-4,3,1,4,0
1558434598809226,-1,-1,-4,-11,0,-4,1,-2
1558434598824184,-1,-3,-16,-1,-9,-8,-9,-4
1558434598824184,-1,1,3,-8,1,-5,3,-2
1558434598832163,-2,0,10,-1,-3,-3,2,1
1558434598832163,1,4,6,8,2,-4,-3,1
1558434598839147,-4,-9,-9,-5,-4,3,2,-2
1558434598839147,-1,0,1,5,-1,3,0,-3
1558434598863080,-1,-4,-1,-8,3,-2,2,-2
1558434598863080,0,1,5,8,-2,-8,-1,0
1558434598864079,-1,0,-9,-15,-1,3,7,-1
1558434598864079,0,3,3,4,-2,-2,-7,-2
1558434598869066,-1,-1,5,1,-1,1,-3,-2
1558434598869066,1,2,-4,6,5,10,1,1
1558434598884026,0,-4,-2,-5,-2,-2,1,-2
1558434598884026,1,-2,-7,-5,-5,-3,-5,0
1558434598892005,-1,-2,-2,-1,2,2,0,-2
1558434598892005,-1,-3,-8,-3,1,-4,-4,-4
1558434598898986,-1,1,0,0,-3,0,-6,-3
1558434598898986,-1,1,-7,-1,-4,-11,1,3
1558434598914941,-4,-1,-6,-2,-6,-6,-8,-7
1558434598914941,1,5,21,15,7,17,11,3
1558434598920926,-4,-8,-4,-6,2,-1,-4,-5
1558434598920926,1,0,-3,-9,-7,-15,-2,1
1558434598928905,-1,3,-1,-1,-4,-3,-2,1
1558434598928905,-4,-3,-1,-6,-9,-7,-8,-3
1558434598943865,3,3,3,10,10,14,9,4
1558434598943865,-3,-1,6,-1,-2,1,0,-5
1558434598951844,-1,-3,-4,0,0,-7,-6,-1
1558434598951844,-1,-4,-11,-6,1,-1,6,1
1558434598958827,0,0,9,-7,-4,-8,-4,1
1558434598958827,-3,-5,-5,-2,-9,-1,-7,-1
1558434598974781,1,3,10,4,2,2,5,2
1558434598974781,-2,-2,8,-2,-10,-6,-12,-5
1558434598981766,4,3,-1,12,7,-2,1,6
1558434598981766,-3,-3,-5,-18,-5,-3,-6,-5
1558434598988746,0,-2,-1,3,3,9,0,-3
1558434598988746,-1,3,2,-1,4,0,3,2
1558434599003706,0,-2,-14,0,3,-1,3,0
1558434599003706,0,1,4,11,-3,-5,0,0
1558434599011686,-2,1,-5,4,1,7,0,2
1558434599011686,-3,-7,-7,-7,2,7,2,-3
1558434599018665,2,0,2,-10,-6,-6,-5,2
1558434599018665,0,-2,-2,-3,8,5,-1,-1
1558434599034622,-2,-2,3,0,-9,-8,-2,-4
1558434599034622,-1,2,5,-3,-3,-3,-3,-1
1558434599041603,-4,-4,6,3,-1,-10,-2,-3
1558434599041603,1,2,0,2,0,6,1,3
1558434599048585,0,-3,-15,-10,-8,-7,-3,2
1558434599048585,2,2,9,2,2,1,3,1
1558434599063544,-1,1,7,1,1,0,-5,-3
1558434599063544,-2,-4,-9,-5,-6,-8,-5,-4
1558434599072521,1,-2,2,7,3,-5,-4,-1
1558434599072521,-1,-1,-7,-1,5,3,3,3
1558434599078504,-3,-3,-8,-21,-12,-1,-2,-7
1558434599078504,0,2,3,2,-3,-3,0,0
1558434599094461,0,1,3,-6,-1,3,7,2
1558434599094461,2,-3,-8,4,1,0,3,3
1558434599101443,2,2,4,10,2,4,1,1
1558434599101443,-5,-4,-8,-5,2,5,2,-2
1558434599108427,-2,-1,7,-2,0,-5,-6,-2
1558434599108427,-2,-3,-16,-6,-8,-3,-7,-6
1558434599123385,-1,0,2,3,-3,-3,-5,-2
1558434599123385,-2,-1,-5,-1,0,1,1,-3
1558434599132361,-1,-1,2,0,-2,0,-3,0
1558434599132361,-2,-5,-10,-5,-3,-2,0,-4
1558434599139341,-2,-3,-6,3,-3,0,-4,-5
1558434599139341,1,1,0,9,-2,-15,-4,3
1558434599155298,0,-1,-1,-4,5,8,-1,2
1558434599155298,-3,2,3,-9,-4,-2,-2,-2
1558434599162281,-2,-3,-11,-4,-3,2,1,-1
1558434599162281,-3,-5,3,8,4,-4,-4,-4
1558434599177241,1,3,3,2,-7,-5,-2,-3
1558434599177241,-3,-3,-3,-13,-12,-4,-5,-7
1558434599184222,-1,0,1,-2,2,3,1,3
1558434599184222,1,3,1,4,5,1,0,-1
1558434599192201,-1,-1,-6,11,4,-7,-1,2
1558434599192201,-2,1,7,-12,-3,2,1,2
1558434599199182,-3,-3,-8,0,-3,2,0,-5
1558434599199182,-3,-2,0,-6,-9,2,-1,-3
1558434599214143,2,3,-2,-6,-3,-1,2,0
1558434599214143,3,2,12,18,14,4,-2,5
1558434599221125,2,0,-8,2,3,1,8,2
1558434599221125,1,2,9,1,3,4,1,0
1558434599237081,0,0,-3,-2,-6,-10,-6,-3
1558434599237081,-2,-1,1,-4,-1,1,-2,1
1558434599244063,-2,-1,4,3,2,6,9,2
1558434599244063,-2,-4,-2,-3,-3,-3,-4,-3
1558434599253037,0,0,0,-2,2,1,1,1
1558434599253037,-4,-2,2,9,-2,-7,-7,-4
1558434599259023,-3,-3,-5,-11,-9,-9,-6,-3
1558434599259023,0,1,5,7,6,6,3,-1
1558434599274978,-4,-6,-5,-19,-4,-5,-1,-2
1558434599274978,-1,-2,-10,5,-3,0,-4,-1
1558434599281961,5,7,16,10,8,0,2,7
1558434599281961,-3,-2,-6,-16,-11,-3,-3,0
1558434599296922,-3,-3,-3,-1,6,8,-3,-7
1558434599296922,0,0,0,-10,-4,7,5,-1
1558434599303901,-1,2,9,2,1,-2,0,0
1558434599303901,1,0,-4,5,5,-3,1,5
1558434599311882,3,5,9,9,9,11,6,0
1558434599311882,-2,-1,3,-1,-3,0,2,-1
1558434599318864,-3,-5,-12,-5,-10,-11,-12,-4
1558434599318864,-1,-3,2,-6,-4,-4,0,-4
1558434599334820,-5,-2,0,-4,-10,-2,-3,-4
1558434599334820,2,0,-3,10,3,-14,-3,3
1558434599341815,-3,-1,8,1,2,4,-5,-4
1558434599341815,-3,-5,-12,-8,0,3,2,-2
1558434599356768,-2,1,6,5,-6,-7,-3,-1
1558434599356768,-5,-5,-11,-11,-1,6,-1,-3
1558434599365738,2,-2,-14,-6,6,1,3,3
1558434599365738,1,3,17,10,3,5,-1,-1
1558434599371722,-2,-3,-5,-12,-5,-1,-3,-2
1558434599371722,3,6,14,7,3,-4,7,3
1558434599378705,-2,-1,-9,-6,-10,-9,-8,-4
1558434599378705,2,2,5,4,3,6,0,1
1558434599394720,-3,-4,-9,6,8,16,4,1
1558434599394720,0,-3,-7,3,1,-7,-4,0
1558434599401642,-3,-6,-12,-7,-2,1,-1,-3
1558434599401642,-1,0,-6,-1,0,0,0,-2
1558434599416602,-1,-5,-2,-6,-9,-9,-6,-4
1558434599416602,-2,-4,-8,-4,-2,0,-4,-1
1558434599423584,1,3,10,4,-4,-1,-11,-2
1558434599423584,-1,-3,-13,0,3,0,9,4
1558434599432559,1,0,-3,-14,-1,5,6,3
1558434599432559,-4,0,8,-3,-3,0,-4,-9
1558434599446594,-1,-3,0,2,4,1,4,0
1558434599446594,0,-1,-13,2,-6,-8,-7,-1
1558434599454509,-2,2,9,12,1,-5,-5,-3
1558434599454509,-2,-5,-9,-12,-5,-3,2,-4
1558434599461541,-3,0,8,-2,-2,-1,2,-2
1558434599461541,3,2,-7,2,1,-7,3,4
1558434599477440,1,-1,1,5,3,-5,-2,-1
1558434599477440,-2,-2,-5,7,-4,1,-6,-7
1558434599484420,-2,-3,0,-11,-5,6,2,-2
1558434599484420,-2,-5,0,-7,2,-2,0,-1
1558434599492440,-2,-1,-11,-5,-7,-12,-8,-1
1558434599492440,0,2,-5,0,9,2,2,4
1558434599506392,-3,-2,2,-2,-6,-2,3,-2
1558434599506392,-4,-2,-1,-1,-5,4,-1,-3
1558434599514342,-1,-3,-1,3,0,3,-1,-4
1558434599514342,-1,0,3,-4,-3,-6,-8,-3
1558434599521320,2,2,2,10,9,7,9,6
1558434599521320,0,3,7,-4,-3,-1,-3,-3
1558434599537339,-2,0,5,12,2,0,3,0
1558434599537339,0,0,6,-11,-2,-3,1,1
1558434599544269,1,3,17,8,2,3,-2,0
1558434599544269,-1,-9,-16,-18,-8,-11,-6,-2
1558434599559231,-3,-4,-4,-3,0,1,-2,-4
1558434599559231,-2,2,8,3,0,3,-3,-1
1558434599566206,0,0,9,3,-1,-3,0,0
1558434599566206,0,0,3,7,7,7,5,2
1558434599574239,3,-3,-11,-2,-1,-6,-1,3
1558434599574239,-1,3,-1,10,-2,-6,-2,-3
1558434599581236,-2,0,-4,-11,-10,-5,-4,-3
1558434599581236,-6,-7,-9,-12,-12,-3,-6,-6
1558434599597166,1,1,3,-2,1,2,4,5
1558434599597166,-3,-4,-2,0,2,2,2,0
1558434599604209,-1,0,1,10,6,-3,0,-3
1558434599604209,0,1,5,-1,0,-2,-1,1
1558434599620062,-1,-3,3,1,-2,6,2,-3
1558434599620062,-1,-1,-2,-3,-2,-7,2,0
1558434599626187,-1,-4,-10,-8,-7,-4,0,-4
1558434599626187,-2,0,8,11,-2,-1,-1,-4
1558434599642996,-2,1,14,8,2,4,-2,-3
1558434599642996,0,-4,-11,-4,2,-9,-4,1
1558434599643995,2,-2,-15,-15,-1,-4,-5,1
1558434599643995,1,5,21,7,-3,-2,-3,-4
1558434599656987,-2,-3,-15,-5,-1,7,3,-3
1558434599656987,-1,-4,2,3,-2,5,-2,-3
1558434599663979,-2,3,-2,1,3,4,7,5
1558434599663979,-1,-2,6,5,-1,2,-4,-5
1558434599679896,-2,-4,-16,-2,-9,-11,-7,-2
1558434599679896,2,1,-5,-10,-4,-3,4,2
1558434599685880,-1,-5,-6,3,2,-2,-1,-2
1558434599685880,0,0,-5,2,8,7,-2,2
1558434599702835,-5,-6,-8,-16,-13,-9,-9,-7
1558434599702835,-2,3,12,4,-3,5,2,-1
1558434599703832,-2,-9,-26,-2,3,0,3,0
1558434599703832,-2,-1,-18,1,5,-1,-4,0
1558434599717797,1,1,5,-14,-6,0,-2,-1
1558434599717797,0,-3,6,8,-2,5,-2,-2
1558434599723853,0,1,8,-3,-3,-8,-4,2
1558434599723853,-1,-1,-1,-4,-5,-5,-1,-2
1558434599739737,-2,0,-7,-9,-8,-9,-7,-3
1558434599739737,3,1,3,11,9,10,7,0
1558434599746730,-2,-2,-3,-8,-2,0,1,-1
1558434599746730,-1,1,1,-4,0,-6,-5,-2
1558434599761742,0,-1,-1,7,7,6,6,4
1558434599761742,-3,-2,-3,-12,-6,-2,0,-3
1558434599777701,-1,-2,4,10,-3,1,0,-1
1558434599777701,1,2,4,6,5,4,2,4
1558434599778632,-3,1,0,-5,-3,1,-1,-1
1558434599778632,0,0,-2,-3,1,0,-6,0
1558434599791657,-1,2,6,3,-1,-2,-9,-6
1558434599791657,-1,-6,-17,-9,-4,-2,6,-1
1558434599799582,2,2,6,8,2,-10,-6,2
1558434599799582,0,0,-5,-2,-8,-8,-2,2
1558434599806559,0,-1,6,-2,-4,5,-2,-1
1558434599806559,-1,-3,2,-9,-7,0,-4,-3
1558434599822620,-1,-3,-4,4,9,8,3,0
1558434599822620,-1,0,5,1,-6,-8,-6,-1
1558434599824516,0,3,16,2,-2,-4,1,-1
1558434599824516,1,1,-3,6,11,1,3,1
1558434599837532,2,3,4,3,2,-4,3,0
1558434599837532,-1,-4,-5,1,-2,0,0,-1
1558434599844468,0,-4,-7,-13,-5,2,1,-3
1558434599844468,-2,-2,0,-10,-6,-1,1,1
1558434599859639,-3,-2,-4,2,-2,-2,-1,0
1558434599859639,0,-1,5,6,2,3,-4,-3
1558434599866398,2,2,-10,-8,4,3,2,2
1558434599866398,-1,-1,15,-5,-4,-4,-4,-3
1558434599882360,-3,-4,-5,0,-5,-4,1,-1
1558434599882360,-3,-4,-12,-7,6,4,0,-1
1558434599884350,-1,0,-6,5,-2,-7,-2,-2
1558434599884350,0,1,9,-2,-8,-5,-3,1
1558434599897322,1,0,5,4,0,5,0,-4
1558434599897322,-2,-3,-5,-3,-2,-3,-3,0
1558434599904298,2,1,13,18,13,-2,12,3
1558434599904298,0,-1,-30,2,2,8,1,-2
1558434599919256,-4,-7,-9,-13,-8,-4,-3,-4
1558434599919256,-1,-1,-8,-6,0,2,1,-3
1558434599926239,-5,-3,-9,-6,-10,-7,-10,-5
1558434599926239,-3,-1,7,11,-6,-11,-7,-4
1558434599942193,3,3,10,5,12,14,8,6
1558434599942193,-1,2,0,-4,-1,-3,-2,1
1558434599944189,-3,-2,3,8,-2,1,-4,1
1558434599944189,-1,-2,3,0,-2,-2,-7,-5
1558434599957154,3,3,1,-2,3,0,2,3
1558434599957154,0,-1,5,-3,-4,-3,-2,0
1558434599964136,-4,-4,-5,-4,-9,-5,-6,-6
1558434599964136,-3,-5,-7,-6,-3,-1,-4,-3
1558434599979095,0,0,6,4,4,-1,-2,-1
1558434599979095,1,0,3,9,-3,-11,0,4
1558434599986076,0,-2,-10,-5,1,2,4,0
1558434599986076,1,5,6,-4,1,4,3,0
1558434600002034,-2,-4,-1,-1,-5,-6,-2,-2
1558434600002034,-6,-1,-2,-6,-7,-1,-4,-5
1558434600003031,-7,-6,-8,-1,-7,-10,-9,-3
1558434600003031,1,-1,5,1,11,3,4,2
1558434600017992,-1,-4,-9,-2,2,3,1,0
1558434600017992,1,2,2,0,5,2,-4,-1
1558434600023980,1,-2,-5,2,-2,0,2,-2
1558434600023980,1,-2,2,-11,-5,0,-1,-3
1558434600039932,-4,-2,-12,-1,0,2,-1,-3
1558434600039932,0,0,6,-4,-2,-1,1,-2
1558434600045921,0,3,3,0,1,-2,-7,2
1558434600045921,-3,-3,-7,2,-1,-1,3,0
1558434600061879,-1,0,-1,2,-5,-4,-4,-3
1558434600061879,1,-1,2,-5,-2,-4,2,-1
1558434600062877,1,0,9,-2,1,4,3,-1
1558434600062877,-1,-2,-7,1,2,-3,0,1
1558434600077839,0,2,6,-4,-6,-10,-6,-2
1558434600077839,-3,-1,1,5,2,4,-2,-5
1558434600083817,-1,-4,-3,-2,-10,1,-1,-4
1558434600083817,0,-3,-9,-16,-1,-1,-6,1
1558434600099780,-1,-1,-6,-7,-1,2,3,0
1558434600099780,0,1,5,1,3,0,1,2
1558434600106754,0,0,1,-1,4,4,-1,3
1558434600106754,-3,-1,2,5,-1,1,-1,1
1558434600121717,2,0,1,8,7,-2,1,1
1558434600121717,-2,-2,-6,-10,-10,-2,-6,-6
1558434600122715,-2,-3,4,-3,-1,3,-2,-2
1558434600122715,-2,0,-8,5,4,1,6,1
1558434600145649,2,2,9,-3,0,-6,-4,0
1558434600145649,-1,-3,-2,4,4,9,6,3
1558434600146648,3,-1,-4,-2,-1,-7,-2,-2
1558434600146648,1,-1,9,4,-7,-3,-2,-1
1558434600160611,-3,-4,-15,-15,-2,4,-2,-1
1558434600160611,-2,2,7,4,-4,-6,-4,-4
1558434600166594,-2,2,5,-3,1,4,1,-1
1558434600166594,-4,-3,-8,-7,0,-2,3,-1
1558434600181553,-2,-3,-2,6,-9,-9,-8,-6
1558434600181553,1,-1,-4,-4,7,7,5,5
1558434600182550,1,2,6,3,5,5,2,-1
1558434600182550,-2,2,1,-3,-6,-5,3,-2
1558434600197692,0,2,16,7,5,3,-3,1
1558434600197692,-2,-6,-19,-2,-3,-9,-8,-3
1558434600203741,-1,-5,-2,-6,1,4,6,0
1558434600203741,-1,-1,-8,-6,-9,-13,-9,-4
1558434600220634,-2,-1,7,3,8,14,10,0
1558434600220634,2,1,2,4,-3,-7,2,2
1558434600226680,-2,1,-1,9,3,2,-8,-1
1558434600226680,1,-2,3,0,5,7,3,0
1558434600242623,0,1,-1,-6,-6,0,3,-3
1558434600242623,-2,-2,7,5,-2,-2,-3,-3
1558434600242623,-1,2,-8,5,0,-10,-6,2
1558434600242623,-3,2,4,-2,0,7,6,2
1558434600271781,-3,-3,-16,-12,-5,-2,-2,-2
1558434600271781,2,1,-3,-5,-2,-2,-1,2
1558434600272672,-2,-3,1,-4,-5,-3,-1,-2
1558434600272672,1,-2,-2,10,3,-2,-6,-4
1558434600280659,-2,-2,-1,-3,-6,-3,-12,-4
1558434600280659,1,1,12,0,-6,-13,-1,1
1558434600286683,3,6,15,6,10,15,17,8
1558434600286683,-5,-5,-1,-5,-1,-5,-5,-4
1558434600301637,-3,-1,-9,-5,-5,-7,-4,-3
1558434600301637,-4,-6,1,-9,-4,-3,-7,-5
1558434600302591,-1,-1,-2,4,4,10,5,-1
1558434600302591,0,-1,-1,10,4,1,-2,-1
1558434600324802,-1,0,0,-22,-11,-4,5,3
1558434600324802,-2,5,8,4,2,6,-1,-2
1558434600325534,-2,-8,-18,-7,-2,-2,-1,-4
1558434600325534,0,2,-7,-11,-2,1,-2,0
1558434600340489,-3,-4,-9,10,2,-3,-1,-4
1558434600340489,-5,0,-8,-1,-5,2,-4,-4
1558434600346476,3,3,11,-8,-2,0,-3,0
1558434600346476,-1,-7,-11,1,1,0,-2,-2
1558434600362426,-1,2,17,9,-2,-6,-1,-4
1558434600362426,-4,-5,-27,-21,-6,-5,0,0
1558434600362426,-4,-6,-5,3,-3,0,-6,-6
1558434600362426,-1,0,4,1,0,3,7,1
1558434600384368,4,2,1,8,10,2,6,7
1558434600384368,-2,-5,-8,3,-1,-1,-9,-5
1558434600385365,-3,-2,-1,-3,-2,-4,4,3
1558434600385365,-2,-1,-3,-5,-6,-3,-3,-2
1558434600400326,-2,-3,-9,4,-8,-6,-10,-7
1558434600400326,2,1,9,6,8,4,4,3
1558434600406434,-1,-6,-19,-18,-4,-5,-7,-1
1558434600406434,3,4,4,3,0,5,2,2
1558434600423329,1,4,14,7,7,3,4,5
1558434600423329,-2,-6,-8,-10,-7,-6,1,-4
1558434600429489,-1,4,19,8,-2,-5,-4,-4
1558434600429489,1,-1,-10,7,1,-3,-2,-2
1558434600445349,0,-1,-3,-1,2,0,3,2
1558434600445349,5,1,7,8,8,8,4,2
1558434600445349,0,1,7,-5,-3,-3,-2,-2
1558434600445349,1,3,11,5,-3,-4,-6,2
1558434600460281,1,2,11,14,3,-2,0,2
1558434600460281,-3,-3,-12,-15,-7,-9,-1,0
1558434600466149,1,0,0,-2,1,2,-1,-3
1558434600466149,1,-4,-6,-1,1,-4,-5,-1
1558434600481316,0,4,7,0,-1,0,-2,0
1558434600481316,-5,-4,-2,3,-2,-4,-4,-4
1558434600489318,-2,-1,-15,1,1,-2,0,2
1558434600489318,-3,-3,-2,-3,-1,-5,-1,-1
1558434600504259,-2,-2,3,-8,-5,-5,-6,-3
1558434600504259,2,0,-8,1,-1,1,3,3
1558434600505049,-2,0,5,7,-4,-8,-7,-4
1558434600505049,-2,-5,-8,-11,0,-3,2,2
1558434600520214,1,0,1,-4,3,19,9,3
1558434600520214,-2,-2,2,-8,-7,-6,-4,-3
1558434600527086,1,1,-2,-2,0,0,1,0
1558434600527086,1,2,5,3,-1,-3,5,0
1558434600542061,-2,-3,-7,1,0,-2,0,-3
1558434600542061,1,2,11,6,2,4,0,2
1558434600548929,-2,-6,-16,-18,-6,-2,-3,-3
1558434600548929,-1,0,17,5,-3,0,-9,-5
1558434600564889,-1,0,-1,6,1,-12,-1,1
1558434600564889,-1,3,7,9,9,13,4,0
1558434600564889,0,-1,4,4,-3,-8,-7,-3
1558434600564889,-4,-2,-4,-4,2,2,-2,-2
1558434600579846,-2,-9,-14,-8,-8,-4,-3,-4
1558434600579846,2,1,0,4,9,5,4,5
1558434600594916,-2,-1,-1,-1,2,4,-4,-3
1558434600594916,-1,-3,2,3,-3,-3,-1,-2
1558434600600790,-3,-1,-10,-5,-3,3,-1,0
1558434600600790,-6,-5,-6,-7,-8,-8,-2,-7
1558434600608887,-1,-2,2,-5,-9,-5,-4,-3
1558434600608887,2,2,-6,6,8,-2,5,5
1558434600625730,-6,-8,-19,-22,-5,-1,-6,-3
1558434600625730,0,0,19,-1,4,9,2,-1
1558434600626723,1,2,-5,12,-2,-7,-2,-1
1558434600626723,-2,3,5,-1,-3,0,-4,-5
1558434600640688,0,-1,2,3,5,6,2,1
1558434600640688,-1,-1,5,2,0,-2,-4,-3
1558434600646975,-3,-5,-3,-7,-2,1,1,1
1558434600646975,3,2,5,3,2,-1,2,1
1558434600669606,0,-1,-13,-11,-6,-5,-7,-2
1558434600669606,2,3,4,4,-2,0,3,1
1558434600677769,-3,-3,0,5,2,-1,-5,-4
1558434600677769,-2,0,1,-1,3,6,4,3
1558434600684566,1,3,7,2,3,4,3,2
1558434600684566,-1,-1,-11,-24,-17,-14,-9,-5
1558434600685565,0,-3,-6,0,0,-2,-3,-2
1558434600685565,-4,-6,-15,-10,-10,-4,1,-2
1558434600700526,-1,-1,-5,1,1,-2,-4,0
1558434600700526,-2,-8,-12,0,-2,-9,2,-1
1558434600706725,-1,5,7,-1,0,-4,0,-2
1558434600706725,0,0,-2,0,5,9,4,1
1558434600721472,-2,-2,3,-3,-3,-1,-1,-1
1558434600721472,0,-2,-11,-4,-2,-7,-2,1
1558434600729638,0,0,6,-8,-5,-4,-2,0
1558434600729638,-3,-6,-4,3,4,-1,-2,-2
1558434600752385,-1,6,17,4,1,-2,1,2
1558434600752385,-5,-6,-13,-5,0,4,-2,-4
1558434600752385,3,2,5,8,4,3,5,1
1558434600752385,-3,0,-5,-11,-6,-4,-3,-2
1558434600760364,0,-4,-2,2,2,5,-1,-1
1558434600760364,-4,-4,-7,-2,-3,3,-1,-4
1558434600766347,0,-1,-16,-1,-4,-1,1,1
1558434600766347,-2,-2,1,2,-1,-4,0,1
1558434600781307,-3,-2,-11,-2,2,-5,-1,-3
1558434600781307,1,0,0,6,-2,1,-6,-3
1558434600789295,-3,-2,0,2,-1,-1,-4,-2
1558434600789295,0,2,0,-8,-2,3,11,0
1558434600806357,-4,-3,-6,6,-2,-2,-1,-2
1558434600806357,1,4,9,-1,2,-3,-3,1
1558434600806357,2,-1,-2,-1,-2,-3,2,2
1558434600806357,-1,-3,3,-11,-1,3,-6,-5
1558434600820220,1,-3,1,8,-4,-6,0,1
1558434600820220,0,5,5,1,3,1,3,0
1558434600826190,-2,-1,3,2,6,8,4,1
1558434600826190,-1,2,9,3,-2,-4,-2,-1
1558434600841475,-5,-4,-11,-4,-1,7,1,-4
1558434600841475,-1,-3,3,4,3,5,2,-1
1558434600849125,0,-1,3,-11,-8,-10,-2,0
1558434600849125,1,0,3,4,-2,-7,-6,-2
1558434600864349,1,3,7,-4,-1,1,1,-1
1558434600864349,-1,0,0,8,4,0,1,2
1558434600865083,-2,-1,0,-1,6,2,2,-1
1558434600865083,1,-4,-4,-5,-7,-2,-5,-1
1558434600880282,0,-1,-4,3,-2,-6,-3,-3
1558434600880282,-2,-4,-9,-14,-14,-6,-4,-3
1558434600887075,2,3,11,6,6,5,-2,1
1558434600887075,-1,-4,-18,4,5,3,1,2
1558434600900988,-1,-1,3,-1,7,1,4,1
1558434600900988,-2,-1,-3,3,3,3,0,-2
1558434600909148,-2,-1,6,-5,-11,-6,-9,-7
1558434600909148,-2,2,-4,-3,-6,-5,-9,-6
1558434600924925,1,0,10,3,6,9,8,4
1558434600924925,0,0,-15,-9,-4,-10,0,1
1558434600924925,-3,-4,-7,-2,-4,-4,-3,-1
1558434600924925,1,0,3,3,2,1,-1,0
1558434600956840,-2,-3,-7,-3,0,2,-7,-2
1558434600956840,5,3,9,3,3,-4,2,3
1558434600957837,-1,0,4,2,6,5,2,0
1558434600957837,-7,-9,-22,-10,-11,-3,-2,-7
1558434600961825,0,-2,-12,-8,-8,-16,-6,-3
1558434600961825,1,2,7,8,3,0,-5,0
1558434600968809,0,0,-3,-4,1,7,7,1
1558434600968809,2,6,16,8,8,8,10,2
1558434600984763,0,3,-1,-4,-1,-1,-4,0
1558434600984763,-1,-6,-6,6,4,4,3,1
1558434600984763,0,0,-2,-3,-5,-6,-4,-2
1558434600984763,-8,-10,-13,-19,-21,-10,-12,-7
1558434601008735,4,6,9,3,2,-7,3,5
1558434601008735,-1,-1,2,13,10,6,3,0
1558434601009859,-2,-3,-2,-4,0,-4,-6,-3
1558434601009859,1,5,2,1,2,3,1,-2
1558434601022029,-2,-6,3,-4,-12,-5,-7,-7
1558434601022029,2,-1,-6,0,5,4,0,2
1558434601029804,0,0,4,13,6,2,8,4
1558434601029804,-1,-3,-8,-20,-6,-4,-3,-2
1558434601044639,-2,-4,-4,-8,-8,0,-7,-3
1558434601044639,2,4,3,2,0,-11,-5,0
1558434601045601,2,-1,-2,7,5,-6,-3,2
1558434601045601,4,2,7,9,2,5,4,3
1558434601060558,-2,2,12,-4,-3,-7,-4,-2
1558434601060558,-7,-8,4,-4,-2,0,-4,-4
1558434601066577,-1,-3,-21,-1,-5,-6,-3,-2
1558434601066577,1,3,7,6,6,3,4,0
1558434601081503,-1,2,4,8,-2,3,-5,-4
1558434601081503,-2,-4,-2,-10,-11,-8,-7,-4
1558434601089807,0,-3,-4,-12,-2,5,9,2
1558434601089807,3,2,12,9,5,-8,0,2
1558434601104914,-4,-6,-14,-6,-4,-3,0,-5
1558434601104914,0,3,6,6,0,5,2,-1
1558434601105440,-4,-5,-12,-9,-5,5,-6,-7
1558434601105440,0,-1,9,4,2,5,6,2
1558434601127405,0,0,-8,-6,4,-4,3,2
1558434601127405,-3,-1,3,-1,-6,-2,-3,-5
1558434601127405,-3,-2,2,-11,-8,-11,-6,-4
1558434601127405,-1,1,9,2,0,2,0,2
1558434601141789,-2,-3,-7,3,8,11,1,-2
1558434601141789,0,4,5,9,5,-2,3,0
1558434601148326,1,-2,-8,-9,0,0,6,6
1558434601148326,-4,-5,-10,-14,-9,-8,-9,-7
1558434601164283,1,-3,-2,-2,-1,3,-3,-2
1558434601164283,-2,0,1,-5,-3,1,-1,-6
1558434601165280,-2,2,11,10,2,2,0,1
1558434601165280,-2,-2,-6,4,-2,-8,-3,0
1558434601180239,1,-4,-7,-5,-2,0,-1,-2
1558434601180239,2,0,4,0,-2,0,-3,-4
1558434601186567,-3,-2,-6,0,4,4,0,-1
1558434601186567,-1,-1,-5,-7,-2,-3,2,-1
1558434601202514,-2,-3,-12,2,-4,0,-3,-4
1558434601202514,-3,4,30,-4,-1,2,5,-3
1558434601209501,1,5,-10,4,4,4,9,6
1558434601209501,-1,-6,-12,2,2,2,-3,-1
1558434601225122,-2,1,11,1,-6,-6,-3,-4
1558434601225122,-4,-6,-12,-3,-4,-1,-7,-4
1558434601225122,-1,-4,3,-15,-4,-11,-9,-3
1558434601225122,-1,4,5,5,0,0,0,2
1558434601240260,-3,-5,-12,-5,-4,-4,3,-1
1558434601240260,-2,-5,-14,-3,1,1,-1,0
1558434601246393,4,7,22,6,-1,0,6,5
1558434601246393,-1,-3,-14,-4,-7,-3,-5,-5
1558434601262021,0,0,12,2,0,-1,7,1
1558434601262021,2,3,-1,-4,0,4,-2,2
1558434601269005,-1,-2,4,7,2,2,-2,-4
1558434601269005,-2,-3,-1,-3,0,-7,-6,0
1558434601285239,-1,-2,-3,1,-3,5,5,3
1558434601285239,0,-1,-4,0,1,-4,1,0
1558434601285239,-5,-5,-10,-2,-2,0,-4,-7
1558434601285239,-1,1,8,1,-2,1,3,0
1558434601299921,-1,-2,-1,-1,5,5,0,-1
1558434601299921,0,-10,-17,-8,-8,-10,-7,1
1558434601306905,-1,0,0,5,2,-1,3,0
1558434601306905,0,0,3,0,3,-3,-3,-1
1558434601330099,1,0,3,5,1,-2,2,2
1558434601330099,-3,-6,-32,-18,-3,10,1,-1
1558434601330099,-1,0,-3,-7,-7,2,-3,-4
1558434601330099,1,1,3,7,-2,-9,-5,1
1558434601353028,-2,-4,-5,-3,5,-3,2,-4
1558434601353028,-3,-3,2,-1,-5,0,-6,-6
1558434601353776,2,3,-3,3,2,-6,2,3
1558434601353776,-1,-3,-1,-2,3,6,-2,0
1558434601360025,0,2,10,2,-2,-10,-9,-1
1558434601360025,1,1,-6,-3,-2,-5,5,2
1558434601366741,-5,-3,6,1,-8,-3,-5,-5
1558434601366741,2,7,8,15,12,9,3,2
1558434601381699,0,-2,-8,-9,-3,4,-1,-3
1558434601381699,1,2,11,-4,2,-4,4,2
1558434601388684,-3,-6,-8,-3,-2,4,-3,-4
1558434601388684,-3,-5,-3,-8,-5,-5,-2,-5
1558434601405646,0,1,9,7,-2,-4,-12,-4
1558434601405646,2,4,1,-4,0,0,4,4
1558434601411619,-3,-1,-5,-1,10,6,-4,-3
1558434601411619,-1,-1,-1,-2,-4,-3,-2,1
1558434601420595,-4,-1,3,20,-8,-11,-4,-1
1558434601420595,-2,-2,-6,-27,-4,16,5,-2
1558434601426582,3,0,-6,-10,-6,-17,-11,-2
1558434601426582,-2,-4,-6,3,6,4,3,1
1558434601441981,-1,1,-12,-4,-3,-1,0,3
1558434601441981,-1,1,13,17,1,-13,-4,-1
1558434601448520,-2,-1,3,-1,0,5,0,-1
1558434601448520,2,4,2,-2,5,7,4,2
1558434601464702,0,-3,-17,-5,-6,-7,-9,-5
1558434601464702,-2,-1,6,18,6,3,-2,1
1558434601471461,0,-2,-11,-10,-7,-5,-3,1
1558434601471461,-4,-3,-7,-4,-11,-12,-10,-5
1558434601480437,0,4,15,0,3,5,4,-1
1558434601480437,1,-1,-6,3,7,7,8,6
1558434601486866,-2,-2,3,10,-2,-4,0,-2
1558434601486866,0,3,8,-6,0,10,-2,-6
1558434601501721,-2,-10,2,-9,-12,-8,-6,-3
1558434601501721,0,4,-9,-3,5,1,0,-1
1558434601509572,1,5,7,5,2,-5,6,3
1558434601509572,-2,1,8,6,-5,-3,-6,-2
1558434601524584,0,0,2,-12,-7,-4,-1,-1
1558434601524584,-3,-1,10,3,-5,-9,-2,-2
1558434601531302,-1,-3,-5,3,2,5,2,-1
1558434601531302,2,-2,-2,-2,-3,0,2,3
1558434601555517,1,1,-3,-2,11,9,10,5
1558434601555517,-4,-2,8,8,-7,-8,-4,-4
1558434601556236,-4,-4,-7,-19,-10,-4,-12,-8
1558434601556236,-3,-4,-3,0,-2,-1,-6,-5
1558434601561490,0,0,-1,-14,1,1,6,3
1558434601561490,4,2,-3,5,12,6,3,4
1558434601569462,1,1,16,5,-2,-4,-2,0
1558434601569462,-1,1,-5,-6,-5,-5,0,-2
1558434601584193,-5,-5,0,6,-1,5,-7,-8
1558434601584193,-1,2,3,-2,-1,-2,0,-2
1558434601591170,-2,-6,-22,-4,-3,-11,-6,-1
1558434601591170,1,3,17,-3,-1,-1,3,3
1558434601607521,-2,-1,1,10,6,1,1,-1
1558434601607521,-4,-3,-17,-20,-11,-4,-9,-6
1558434601608096,-1,-4,3,3,0,-1,4,0
1558434601608096,0,-6,-7,-4,2,5,4,1
1558434601621231,-2,0,-6,-1,0,-5,-8,-3
1558434601621231,-1,-1,10,11,3,2,-5,0
1558434601629398,-3,-6,-26,-17,1,6,3,-2
1558434601629398,2,1,4,7,1,-8,0,1
1558434601644366,1,3,14,-4,-5,-1,1,0
1558434601644366,-1,-2,-5,1,-3,-2,-4,1
1558434601652181,-1,-1,-3,-6,-8,0,3,-1
1558434601652181,-2,-1,3,1,1,-1,2,-3
1558434601667275,-1,0,-3,-1,1,2,5,1
1558434601667275,1,-1,1,9,2,-12,-6,0
1558434601667936,-1,4,9,-10,-3,11,2,-1
1558434601667936,-3,-8,-14,-3,-4,-7,-5,-1
1558434601681243,2,4,-2,-3,-5,-10,-6,-2
1558434601681243,0,-3,-7,-2,-1,1,5,0
1558434601689240,-2,-5,-8,-2,1,-2,-2,2
1558434601689240,0,3,6,1,-3,-3,-2,-1
1558434601712171,2,2,-3,0,5,0,-2,3
1558434601712171,-1,-3,-3,-5,-5,-4,2,1
1558434601712817,1,0,4,11,2,-2,0,-3
1558434601712817,-2,2,6,8,6,3,-4,-5
1558434601728133,-4,-10,-17,-34,-11,0,2,-1
1558434601728133,-3,0,-1,-4,-5,-5,-4,-4
1558434601735085,-1,2,4,2,-2,-2,-2,0
1558434601735085,-1,1,3,3,1,2,1,0
1558434601742072,0,-1,0,10,7,11,9,1
1558434601742072,-1,-6,-6,-3,-3,-3,-5,-5
1558434601748719,0,2,7,3,0,0,-3,0
1558434601748719,-2,-9,-15,-10,-4,-2,-1,-1
1558434601764022,-2,-4,-14,3,-3,-6,1,2
1558434601764022,0,-1,-11,-3,-2,1,-5,-1
1558434601771759,0,2,9,0,3,5,1,-4
1558434601771759,4,3,1,7,3,2,4,3
1558434601786619,-4,-2,2,2,-4,-1,-5,-4
1558434601786619,0,2,12,2,-2,-11,-5,1
1558434601787614,-1,-2,0,7,-1,7,6,3
1558434601787614,-3,-4,-21,-20,-1,-5,-2,-1
1558434601801936,-1,-3,4,4,5,5,3,-1
1558434601801936,-4,-4,-6,-3,-3,1,-3,-3
1558434601809559,2,5,16,12,0,-10,-3,3
1558434601809559,-2,-5,-5,-4,-7,2,-1,-3
1558434601824521,0,0,-8,0,3,-2,0,1
1558434601824521,1,5,21,4,-2,2,3,1
1558434601831499,-3,-4,-10,-16,-6,-1,-1,-3
1558434601831499,-2,2,8,0,-3,-1,-1,-4
1558434601847761,0,3,-6,7,3,-2,-1,-2
1558434601847761,-1,-2,-2,-1,2,5,6,2
1558434601847761,0,0,8,0,5,-4,3,2
1558434601847761,-3,-2,-2,0,3,6,-1,-2
1558434601862595,-3,-1,-1,-2,-3,-3,-9,-2
1558434601862595,0,-2,-3,-1,-4,-3,-7,-4
1558434601869626,0,1,-8,-5,-8,-7,-6,1
1558434601869626,-1,-4,-6,2,3,3,0,1
1558434601884585,1,-1,2,2,0,-4,6,4
1558434601884585,-2,-1,15,12,7,7,-2,-4
1558434601891713,-4,-8,-19,-22,-8,-4,-4,-2
1558434601891713,-1,0,8,4,-1,-3,-1,0
1558434601916273,-2,-1,-4,-1,-4,-3,-3,-3
1558434601916273,2,0,8,1,6,-9,0,3
1558434601916273,2,0,-6,15,3,2,2,1
1558434601916273,-2,-1,6,-6,-5,-3,-6,-3
1558434601922550,0,0,9,-3,1,2,4,2
1558434601922550,-1,-2,-10,-6,-5,0,3,0
1558434601929562,-1,0,7,5,2,-2,-5,-1
1558434601929562,0,0,-4,11,6,3,4,1
1558434601944510,-3,-5,-4,-14,-4,-2,-3,1
1558434601944510,-6,0,-5,-11,-10,-7,-4,-5
1558434601952175,-3,-7,-6,3,-2,2,-8,-7
1558434601952175,5,1,-2,0,4,3,4,5
1558434601967465,2,3,9,9,3,-5,9,2
1558434601967465,-3,-5,-26,-5,0,7,2,-2
1558434601968383,-1,-2,3,0,-3,4,1,-3
1558434601968383,-4,-5,-19,-12,-7,-9,-3,-3
1558434601983093,0,-1,-2,2,2,-5,-7,0
1558434601983093,0,0,0,-1,-1,1,0,2
1558434601989103,-2,1,1,-6,-6,-17,-1,-4
1558434601989103,-1,-1,1,1,2,4,1,-1
1558434602005447,0,0,0,-1,4,8,1,1
1558434602005447,1,-3,-5,-14,-5,1,-1,-1
1558434602012225,-1,0,5,4,2,-2,-4,-2
1558434602012225,-3,-5,-14,-9,-5,0,0,-4
1558434602026974,0,2,14,8,1,1,1,-3
1558434602026974,-2,-4,-5,-2,-4,-7,-9,-4
1558434602027972,-3,-2,-4,0,1,6,7,1
1558434602027972,2,2,-8,7,2,-4,-3,2
1558434602042934,-2,-1,17,2,2,6,-1,-6
1558434602042934,1,-1,-5,-7,-3,10,2,1
1558434602048407,-3,-1,-6,1,1,-4,-8,-2
1558434602048407,-1,-2,1,6,-6,-12,-3,0
1558434602064651,-2,2,2,-6,-5,-2,-1,0
1558434602064651,0,0,-2,-6,-3,-5,-5,-4
1558434602071711,-4,-5,3,-4,-2,-1,-5,-7
1558434602071711,3,-1,11,10,12,6,4,6
1558434602087346,-2,-3,-9,-3,-6,-4,-3,-1
1558434602087346,-4,-3,-4,0,2,3,2,0
1558434602087346,2,1,0,0,-5,-6,-3,-3
1558434602087346,-4,-2,0,-10,-13,-2,-6,-8
1558434602102321,0,1,-1,3,4,5,0,1
1558434602102321,-1,-4,-12,9,3,-14,-4,3
1558434602117221,1,0,3,1,4,12,10,3
1558434602117221,-1,1,4,-2,2,-2,7,1
1558434602132201,0,0,3,0,2,-2,-1,2
1558434602132201,-1,-1,4,1,-4,1,1,-2
1558434602133528,0,-2,-12,3,1,-1,-1,-1
1558434602133528,-3,-1,-2,-5,-4,-2,-7,-3
1558434602147583,0,2,0,2,-7,-9,-2,-1
1558434602147583,3,3,10,7,1,-7,-2,1
1558434602148141,-2,-1,8,-9,-1,-2,-2,2
1558434602148141,-5,-12,-40,-13,2,9,9,0
1558434602163100,-3,-3,-7,-2,1,5,-6,-5
1558434602163100,-3,-4,-2,1,-2,1,1,1
1558434602169591,2,2,4,-12,-4,-3,-4,-2
1558434602169591,-3,-3,-8,-2,-8,-8,-6,-2
1558434602184044,-1,-1,-4,2,1,-1,-3,-1
1558434602184044,0,-2,3,1,-3,-2,-2,-4
1558434602191024,0,3,-3,6,0,-1,-3,1
1558434602191024,-1,1,18,-4,4,3,1,-3
1558434602207480,1,0,-2,-1,3,-7,3,-1
1558434602207480,-4,-1,5,0,1,5,-4,-6
1558434602207981,-3,-8,-13,4,-3,-4,2,2
1558434602207981,1,1,8,-3,0,1,-1,0
1558434602222940,-3,-2,3,3,-5,-6,-2,-2
1558434602222940,-1,1,0,-1,4,-1,-4,-3
1558434602228924,-4,-3,-3,-2,-6,0,-4,-4
1558434602228924,-2,0,10,4,-4,-4,-6,-2
1558434602244250,1,-3,-8,-3,6,-2,2,4
1558434602244250,2,2,4,0,2,0,4,4
1558434602267824,2,-1,-18,-1,1,0,-6,-1
1558434602267824,1,1,2,-7,-10,-5,3,0
1558434602269071,0,-1,-12,1,1,4,-2,-2
1558434602269071,0,-2,1,2,4,2,3,1
1558434602274123,-2,-1,5,-3,-3,-6,-4,-3
1558434602274123,-2,-2,-1,-5,-10,-10,-12,-7
1558434602282781,-1,-1,-5,1,-5,4,2,-2
1558434602282781,-3,-3,-8,-18,3,8,13,-1
1558434602289048,0,-2,-1,7,7,6,2,1
1558434602289048,-1,-1,4,2,-2,2,-6,-1
1558434602304005,2,0,-4,-2,-9,-11,-4,-1
1558434602304005,-2,0,-3,5,-6,-8,-6,-1
1558434602312008,-1,3,7,2,8,2,3,0
1558434602312008,-2,-1,-3,2,-3,0,-1,-4
1558434602326986,0,-1,20,3,1,9,8,4
1558434602326986,0,-4,-19,-11,2,-1,4,2
1558434602333954,1,4,10,3,1,0,2,0
1558434602333954,-2,-2,-6,4,3,-3,-5,-2
1558434602342820,0,-1,-1,2,-5,-1,-1,-3
1558434602342820,-2,-3,3,2,-4,-5,-5,-4
1558434602348604,0,-1,3,-4,-3,-2,4,0
1558434602348604,-1,2,4,3,-2,-5,0,2
1558434602363855,-1,-2,-5,-3,5,2,-2,-1
1558434602363855,-1,-1,-10,2,5,11,8,4
1558434602371851,-2,-3,-8,-4,-6,-4,-7,-2
1558434602371851,-1,-2,6,0,3,5,8,2
1558434602386502,-3,-4,-7,-7,-3,-5,-6,-4
1558434602386502,-1,-1,7,9,1,-1,-5,-2
1558434602394513,-2,0,8,-14,-3,-2,-3,-4
1558434602394513,0,-2,-17,3,1,3,6,-2
1558434602402768,-2,-3,-15,-4,-6,-7,-2,-2
1558434602402768,-2,-1,3,-4,-5,-6,-5,-3
1558434602408445,-1,-2,-4,3,3,4,1,-2
1558434602408445,1,1,7,-3,1,-1,-9,-3
1558434602423837,-6,-9,-11,-10,-9,-3,-1,-5
1558434602423837,-1,1,1,3,-1,-5,4,2
1558434602431249,-1,-1,2,8,5,4,-6,0
1558434602431249,-3,-4,1,-4,-4,1,1,-4
1558434602447129,1,0,-1,4,-1,2,-4,-2
1558434602447129,2,3,17,2,0,-3,-2,3
1558434602454100,-3,0,-9,-10,1,1,5,0
1558434602454100,-2,0,8,10,1,-3,-3,-4
1558434602470091,-2,-3,2,-16,-10,-4,-4,-2
1558434602470091,2,-1,-4,-4,1,-4,1,-2
1558434602470091,0,0,11,9,-1,1,6,0
1558434602470091,1,-1,1,0,3,-1,-6,0
1558434602484031,0,0,4,11,-2,-7,-5,-2
1558434602484031,-3,-3,-4,-9,-6,0,-4,-4
1558434602491971,0,0,0,-11,-6,-5,1,-1
1558434602491971,3,-2,1,1,5,-5,3,5
1558434602506973,-1,0,0,6,9,6,-2,1
1558434602506973,-1,-2,2,-5,-3,1,-2,-2
1558434602513947,2,2,4,11,3,7,4,7
1558434602513947,-4,-2,-2,-5,-7,-6,-3,-5
1558434602537883,-2,-1,-2,-9,-3,-6,-2,-2
1558434602537883,-2,-6,-11,1,-3,-4,-3,-1
1558434602538560,-2,-1,-4,-8,-7,-6,-7,-5
1558434602538560,0,3,4,5,5,6,0,1
1558434602543865,0,-1,-1,-2,1,0,1,1
1558434602543865,-2,0,0,4,-4,-1,-2,-6
1558434602551844,2,-2,1,5,-3,-7,-4,0
1558434602551844,-2,-4,-21,-2,6,11,11,4
1558434602567793,0,2,2,-4,-1,2,2,0
1558434602567793,0,3,15,1,-2,-4,-3,0
1558434602574586,0,-4,-11,1,-7,-8,-5,1
1558434602574586,-3,0,-5,-11,-2,-3,-5,-3
1558434602589721,-1,-3,-3,2,8,6,0,0
1558434602589721,-1,-1,-7,-15,-4,4,2,-3
1558434602590421,-5,-4,2,3,7,3,3,-2
1558434602590421,-1,-1,-7,-4,-5,-5,-5,-1
1558434602603385,0,-1,9,2,0,-2,0,-2
1558434602603385,-4,-2,0,-1,-4,1,-5,-5
1558434602619616,0,-3,-16,-6,0,-4,6,4
1558434602619616,-2,-2,-5,-1,-3,-7,-1,-2
1558434602626641,-2,1,4,1,5,7,-2,-3
1558434602626641,-1,-3,-5,-9,-9,-2,-8,-3
1558434602634607,1,2,5,7,3,-2,-2,0
1558434602634607,1,-1,-6,-20,-5,-3,3,0
1558434602649262,0,3,10,10,3,-9,-8,1
1558434602649262,-2,-4,-10,2,4,7,1,-2
1558434602650261,-4,-5,-11,-7,-8,-1,-3,-8
1558434602650261,3,3,10,10,2,1,-1,2
1558434602664622,-3,1,1,-4,-7,-3,1,-2
1558434602664622,-3,-4,11,2,0,-4,-4,-1
1558434602671205,0,-1,-7,0,2,1,-1,2
1558434602671205,1,-2,1,4,4,5,5,0
1558434602686632,-3,-3,-4,-7,-8,-7,-2,-2
1558434602686632,-3,-2,-5,11,-6,-7,1,-1
1558434602694587,2,-1,-7,-16,-2,5,3,3
1558434602694587,1,1,11,8,5,-4,-4,1
1558434602718536,0,-2,-7,-5,-6,0,-1,-1
1558434602718536,1,2,1,4,9,6,10,1
1558434602718536,-3,-3,5,2,-2,-1,-2,-5
1558434602718536,-3,-5,-12,-7,-12,-4,1,-3
1558434602724514,-1,-1,1,-1,0,-7,-3,-1
1558434602724514,-2,-4,-26,-10,-7,0,0,2
1558434602731249,0,2,4,3,9,8,5,-2
1558434602731249,-3,1,6,5,0,-2,-5,-3
1558434602746439,-2,-2,6,0,-1,4,2,1
1558434602746439,3,3,7,0,3,-2,2,0
1558434602754443,-3,-3,-4,-2,-6,0,-6,-4
1558434602754443,0,1,7,11,-3,-16,-10,0
1558434602770940,1,-3,-8,-2,4,7,4,1
1558434602770940,0,1,8,5,-2,-3,-1,-2
1558434602771935,0,-4,-8,-7,-1,5,2,0
1558434602771935,-1,1,9,-6,0,4,-5,-4
1558434602784273,-2,-4,-8,-4,-4,-8,0,1
1558434602784273,2,8,15,13,8,7,0,-1
1558434602791080,1,-1,6,10,-4,-10,-2,0
1558434602791080,-5,-10,-29,-30,-13,-4,-2,-2
1558434602805845,-3,-3,-4,-2,3,2,-2,-5
1558434602805845,-3,-2,-6,-4,-4,-10,-13,-2
1558434602813831,-1,-2,2,3,1,-2,2,0
1558434602813831,0,-2,-6,6,8,14,7,5
1558434602829779,-2,-2,1,-7,-7,-4,-5,-1
1558434602829779,-4,-3,-2,-2,-4,-1,-4,-3
1558434602829779,0,4,2,-6,-2,-12,-6,2
1558434602829779,-1,0,-2,1,1,-2,-3,-2
1558434602843776,-1,2,6,2,4,6,4,0
1558434602843776,-1,-4,-3,5,0,3,0,-3
1558434602850722,-1,0,-2,-17,-9,-2,-7,-3
1558434602850722,-1,2,0,6,3,2,8,3
1558434602867076,-1,4,16,2,-1,1,3,2
1558434602867076,-3,-3,-19,-6,-3,-4,-5,-2
1558434602874101,1,0,5,6,3,-9,0,2
1558434602874101,-2,-2,-3,-7,-12,-4,-8,-5
1558434602889619,-1,-5,-8,1,0,-2,-2,-1
1558434602889619,0,-2,0,6,6,-2,7,4
1558434602889619,-3,-2,5,0,-3,4,-4,-6
1558434602889619,-2,-2,4,1,1,-2,0,-3
1558434602903585,-2,-4,-23,-8,-4,-4,-4,-6
1558434602903585,1,0,1,7,4,-1,1,4
1558434602912005,-4,1,0,-9,0,1,-2,-1
1558434602912005,1,3,14,4,8,5,1,2
1558434602926924,-1,-2,-8,0,-6,-2,-2,0
1558434602926924,-1,-4,-3,-10,-1,-1,4,0
1558434602933958,-3,-7,-29,3,-2,-5,-4,0
1558434602933958,0,-3,-2,-2,-2,0,0,-1
1558434602949459,0,3,6,-1,3,0,0,-2
1558434602949459,0,-1,-2,1,-5,-2,-4,-3
1558434602950460,1,0,8,0,-2,7,-2,-1
1558434602950460,-3,0,-5,-9,-2,-2,2,0
1558434602972408,1,0,-4,-4,1,1,2,3
1558434602972408,2,2,4,2,-2,-10,-5,-1
1558434602972408,0,-1,6,-3,7,7,4,2
1558434602972408,0,1,9,3,0,1,-2,-2
1558434602987100,-1,-1,-2,5,-5,-3,-5,-1
1558434602987100,0,0,-4,-14,-3,6,-1,1
1558434602994097,0,1,4,7,5,0,3,2
1558434602994097,-1,-5,-3,-2,-1,2,-1,-3
1558434603017709,-5,-7,-7,-2,-5,1,-1,-7
1558434603017709,-1,0,5,3,0,-2,1,-1
1558434603018706,0,-1,-16,1,-2,-8,-1,3
1558434603018706,0,6,10,10,5,-2,-3,-2
1558434603023692,-1,-4,-9,-11,-6,-3,1,-1
1558434603023692,-1,0,-10,-11,-5,4,4,-2
1558434603031671,-2,-2,2,-2,-2,-3,-4,-4
1558434603031671,-1,0,-2,-1,-1,-5,0,2
1558434603047846,-2,0,-1,4,-1,1,-1,1
1558434603047846,-2,-5,-1,3,0,-3,-3,1
1558434603053610,-1,3,9,-3,-1,4,3,-2
1558434603053610,-1,-4,-12,8,-3,-9,-10,-3
1558434603070036,1,4,6,5,7,5,3,3
1558434603070036,-3,-6,-9,-15,-5,-9,-5,-3
1558434603070565,-2,-5,-14,-14,-5,-6,-3,-2
1558434603070565,-2,-5,-2,-6,-5,5,6,-4
1558434603092813,1,1,0,5,6,2,1,0
1558434603092813,-2,3,12,-7,-2,-2,-4,-3
1558434603092813,-1,-2,-4,10,-1,-3,-2,0
1558434603092813,1,4,14,5,5,4,-4,0
1558434603106919,-1,0,-8,-8,-3,-2,-1,3
1558434603106919,-1,0,5,10,4,1,3,0
1558434603113913,-2,0,-2,-3,-10,-6,-6,-5
1558434603113913,0,-3,-10,-5,4,2,3,1
1558434603129445,-1,1,13,5,1,4,-1,-1
1558434603129445,-2,-1,-7,-5,1,4,1,0
1558434603130439,-3,-5,1,-1,-7,-6,-2,-1
1558434603130439,-3,-4,-20,-6,-3,-4,-1,-2
1558434603143371,-2,-1,4,7,6,1,-10,-3
1558434603143371,0,0,2,0,-2,-1,4,0
1558434603151348,0,2,5,3,3,2,-1,-2
1558434603151348,-5,-6,-4,4,-8,-7,-6,-2
1558434603167304,1,-2,-22,-27,-17,-4,4,3
1558434603167304,1,3,1,9,8,0,-1,-3
1558434603173757,-2,-3,-2,-2,3,3,4,-1
1558434603173757,-2,-1,3,-7,-5,-2,-3,-3
1558434603189674,-3,-1,8,7,4,5,4,-2
1558434603189674,-2,-2,1,-1,-4,0,-1,0
1558434603197671,2,3,7,8,-1,-9,0,1
1558434603197671,0,4,6,4,7,6,1,1
1558434603204665,-1,-5,-7,-15,-8,-7,-5,-2
1558434603204665,1,0,-9,0,5,2,1,1
1558434603211639,-3,-3,0,-2,-1,6,-7,-7
1558434603211639,1,0,9,-5,-11,-9,-4,-1
1558434603227589,1,4,1,-3,4,3,-1,1
1558434603227589,2,0,3,2,-2,-11,-3,3
1558434603234128,-2,-1,2,4,-1,-3,-4,-2
1558434603234128,-1,-5,-4,3,4,3,-2,-2
1558434603249086,0,5,30,7,0,-5,5,0
1558434603249086,-2,-1,-10,2,-4,-3,-6,-3
1558434603257473,-4,-6,-13,-22,-3,5,1,0
1558434603257473,1,2,1,-4,-1,-1,2,1
1558434603264493,-3,-4,-5,0,3,-2,-6,-4
1558434603264493,1,-1,11,5,4,7,1,1
1558434603271382,-4,-4,-9,1,-5,-11,-4,-2
1558434603271382,-1,-1,-6,-3,4,4,3,-2
1558434603294309,-1,-2,-5,2,-6,-5,-1,-3
1558434603294309,0,0,9,-9,2,7,7,1
1558434603302293,1,-1,-12,1,4,5,1,0
1558434603302293,-1,0,5,2,-5,1,-2,0
1558434603309265,0,1,5,-7,-1,-6,-3,2
1558434603309265,-6,-7,-9,-4,-10,-6,-4,-3
1558434603316906,1,-1,6,4,4,4,3,5
1558434603316906,0,3,-4,6,3,-3,1,1
1558434603324224,-1,-1,-1,3,-1,0,-3,-5
1558434603324224,-2,-2,-3,-9,-5,6,-1,-3
1558434603330869,-1,0,1,-5,-6,-7,-1,-3
1558434603330869,0,-2,-3,-4,-11,-14,-7,-3
1558434603345829,-1,-4,-12,3,5,0,0,0
1558434603345829,-1,1,-1,-4,4,-1,6,0
1558434603361784,-1,-2,-7,-7,7,8,-1,-2
1558434603361784,0,-3,-12,3,0,-4,-1,-2
1558434603368767,-3,-7,-9,-18,-12,-8,-3,-4
1558434603368767,2,2,0,9,3,4,0,1
1558434603376745,2,2,18,8,-3,-4,-3,0
1558434603376745,-3,2,-11,-16,0,7,0,0
1558434603392178,-1,-7,-8,3,0,-2,-3,0
1558434603392178,-2,3,5,5,1,-4,-3,-1
1558434603392705,0,-2,-5,-2,-5,1,2,-1
1558434603392705,-1,1,5,3,-1,-1,3,2
1558434603406886,1,3,5,9,1,-9,-1,0
1558434603406886,-1,0,3,-1,-5,1,-3,-2
1558434603414648,-3,-1,1,0,-3,-5,-5,-2
1558434603414648,-3,-3,-4,-8,-3,0,2,-1
1558434603429692,-1,1,15,2,-1,8,3,-3
1558434603429692,1,-2,-12,2,3,-4,-2,0
1558434603436586,2,0,-7,7,3,-5,-1,1
1558434603436586,0,-4,-5,-5,-7,-7,-3,-4
1558434603451545,-2,1,13,3,4,1,-5,-1
1558434603451545,-2,-6,-23,-7,-1,1,-1,-5
1558434603452542,-1,2,9,3,-2,-3,0,-2
1558434603452542,-2,-2,0,-1,6,2,1,1
1558434603474485,-1,-1,-6,3,-5,-2,-4,-1
1558434603474485,-3,-4,0,-6,-9,-2,0,0
1558434603475482,3,2,5,10,6,5,0,1
1558434603475482,0,0,-8,-14,-2,-3,8,1
1558434603489479,-2,-2,-1,3,2,-2,-9,-3
1558434603489479,-1,-1,1,-5,-4,-5,-1,-1
1558434603497575,-1,-2,1,1,3,8,3,0
1558434603497575,2,2,4,3,1,-4,-9,-2
1558434603511682,-7,-5,-14,1,-3,-3,5,4
1558434603511682,0,1,6,-1,2,0,3,-1
1558434603512381,-1,-1,3,-2,-5,-2,-2,0
1558434603512381,0,0,12,4,-1,3,-1,-1
1558434603526609,-1,-3,-17,-3,7,9,6,-2
1558434603526609,2,3,15,7,2,-2,-2,-3
1558434603533325,-4,-4,-1,-19,-7,1,-1,-2
1558434603533325,-3,-7,-11,-10,-2,-3,-7,-3
1558434603548289,0,2,4,-3,-6,-4,5,1
1558434603548289,-3,-2,-1,5,-5,-8,-5,-1
1558434603557266,3,2,1,6,9,5,6,1
1558434603557266,-1,-2,-4,-4,-2,0,-2,0
1558434603572627,1,-4,-5,-1,-3,-4,-6,-4
1558434603572627,-1,0,-3,-3,0,1,-8,-2
1558434603572627,-1,2,7,-2,-2,-5,-1,0
1558434603572627,-2,1,2,6,0,1,0,1
1558434603586185,0,0,5,9,1,2,6,0
1558434603586185,-2,-3,-10,-23,-6,0,-9,-3
1558434603594162,-4,-4,-10,-4,-6,0,-5,-5
1558434603594162,2,4,11,14,7,1,6,4
1558434603609504,1,4,8,-1,3,0,1,0
1558434603609504,-3,-3,-5,-6,-2,1,1,0
1558434603617106,-3,-4,-8,1,-4,-2,-2,-3
1558434603617106,0,-3,-6,0,-2,-6,-5,-5
1558434603640472,1,1,0,-5,-3,2,-8,-1
1558434603640472,2,2,5,2,4,-1,5,4
1558434603640472,2,2,0,1,0,0,4,1
1558434603640472,-1,-3,-2,8,0,2,0,1
1558434603648029,-2,-1,0,-14,-3,-3,-2,0
1558434603648029,-1,-4,-7,-4,-2,-1,-2,-2
1558434603654004,-2,-2,-2,0,-1,-2,-3,-2
1558434603654004,2,1,10,7,2,0,-4,-2
1558434603668963,-4,-4,-15,-3,-3,-3,-1,-3
1558434603668963,-1,0,9,-14,0,2,1,0
1558434603676941,-3,-5,-3,2,2,-4,0,0
1558434603676941,0,0,-9,-5,-1,2,-1,-2
1558434603692900,1,2,12,10,3,0,-1,1
1558434603692900,-5,-10,-16,7,-4,-7,-3,-3
1558434603692900,4,10,3,-3,3,1,-3,2
1558434603692900,-5,-5,6,-2,-5,-2,-4,0
1558434603705865,1,4,7,0,-3,1,5,1
1558434603705865,-2,-3,-12,7,1,-1,-2,-2
1558434603714052,0,0,10,2,2,5,1,-2
1558434603714052,-5,-5,-5,-2,-3,-1,-3,-6
1558434603729089,0,1,-2,3,2,-1,0,0
1558434603729089,-1,-1,-4,-6,-4,-4,-1,-3
1558434603735786,-3,-4,-3,-3,0,-1,-3,-2
1558434603735786,2,2,-2,-5,-2,-4,1,1
1558434603751742,-2,-3,-2,4,-1,0,0,-2
1558434603751742,1,4,10,6,-1,-1,0,0
1558434603752739,-2,-1,-1,-2,-3,-2,-1,-2
1558434603752739,0,-1,1,6,2,1,4,-2
1558434603765705,1,-2,-13,-19,-3,2,-2,-1
1558434603765705,1,1,10,12,2,-2,2,1
1558434603773721,2,0,-1,-1,-1,-2,0,-2
1558434603773721,-5,-3,-20,-20,-6,-2,-6,-4
1558434603788644,-5,-3,8,3,-3,-3,0,-4
1558434603788644,-1,-3,-16,-3,1,-1,-5,0
1558434603796621,-5,-6,-10,-8,-14,-6,1,-2
1558434603796621,0,-1,6,-1,0,-1,0,0
1558434603811582,1,-2,-3,1,9,3,5,1
1558434603811582,0,7,20,6,7,2,-2,-1
1558434603812579,0,-2,-3,13,6,8,3,0
1558434603812579,-1,2,-1,-4,-6,-3,-5,-1
1558434603826543,-3,-3,-3,-9,-9,-7,-8,-4
1558434603826543,1,-2,4,9,3,-3,0,1
1558434603833525,-1,-1,6,2,8,12,3,2
1558434603833525,-1,3,-1,5,-2,-2,0,-4
1558434603856464,0,0,-6,-2,0,0,0,2
1558434603856464,-2,-2,1,0,1,2,0,-1
1558434603857470,-3,-3,8,-3,-6,-5,-14,-3
1558434603857470,0,0,-6,1,-2,-1,3,1
1558434603871422,3,2,6,8,8,-1,0,2
1558434603871422,-2,-7,-15,-21,-3,7,-2,-2
1558434603872419,-2,-1,-13,-10,-6,-9,-1,-1
1558434603872419,-2,-1,11,2,0,0,-6,-1
1558434603886381,-2,-2,-1,3,-4,0,-1,0
1558434603886381,-1,1,5,6,4,-1,9,2
1558434603893363,1,0,-2,-4,-4,-2,0,-1
1558434603893363,0,-1,-2,-4,-1,2,1,2
1558434603908322,0,-1,-4,4,-3,-5,-8,-3
1558434603908322,-2,-3,-14,-5,-6,-3,-8,-7
1558434603916302,-1,-1,-10,-2,-3,-2,2,0
1558434603916302,1,0,11,6,12,5,11,1
1558434603941235,-6,-4,-4,-5,0,-1,-5,-4
1558434603941235,-1,-1,-8,-18,-14,-5,-5,2
1558434603942232,-4,-4,-20,-13,-8,-7,-2,-2
1558434603942232,1,-1,1,2,2,-6,2,1
1558434603946222,-1,3,11,3,-1,0,2,-5
1558434603946222,-2,-3,-7,9,1,-1,-6,-4
1558434603953203,-2,-4,-4,-2,-1,0,1,-4
1558434603953203,-2,0,3,-11,1,5,-1,3
1558434603969165,2,1,6,10,5,3,-1,1
1558434603969165,0,-1,-8,-7,-4,-6,8,1
1558434603976142,1,1,1,0,0,0,-7,-2
1558434603976142,-2,-4,3,7,1,1,0,0
1558434603992102,2,-1,-5,-18,-7,-4,-3,1
1558434603992102,-5,-4,1,-5,-4,2,-5,-3
1558434603992102,0,0,-4,17,10,-2,0,5
1558434603992102,1,5,14,7,-3,-9,1,1
1558434604006065,-5,-7,-23,-18,-5,4,0,-5
1558434604006065,5,4,17,13,6,2,3,0
1558434604014041,0,2,9,-4,-4,-1,3,1
1558434604014041,-1,-7,-12,-6,-8,-6,-5,-4
1558434604029000,-2,-7,-33,-5,-5,-6,-4,1
1558434604029000,-2,-4,-14,-21,-8,-7,-6,-3
1558434604035982,-1,3,22,16,7,1,6,-2
1558434604035982,-4,-5,-27,-8,1,0,-4,1
1558434604051941,-4,-4,12,4,-2,-2,2,0
1558434604051941,0,2,4,-1,3,1,4,4
1558434604052936,-1,-4,-2,7,4,5,-1,1
1558434604052936,1,0,4,6,-2,2,0,-2
1558434604065902,0,0,0,1,4,2,-6,-5
1558434604065902,0,-1,5,12,6,-1,4,1
1558434604073880,1,1,-5,-17,-9,-8,-4,-1
1558434604073880,-1,1,6,14,4,4,1,0
1558434604089838,-1,2,6,-5,-3,1,-3,-1
1558434604089838,-1,-1,3,-4,-5,-1,-2,1
1558434604104797,-1,-3,0,-8,-2,-4,-8,-2
1558434604104797,-1,-1,-3,-6,-3,1,-2,1
1558434604111805,-4,-1,-9,3,-5,-1,10,2
1558434604111805,-1,3,14,11,-2,-6,-7,-1
1558434604112776,-1,-6,-17,-6,8,6,10,0
1558434604112776,-1,-2,-1,1,-5,5,2,-3
1558434604127737,3,2,13,-2,-1,0,-3,0
1558434604127737,-6,-10,-19,-26,-19,-8,-4,-3
1558434604133720,-1,2,1,6,4,-2,-6,-2
1558434604133720,-4,-4,2,3,-3,-4,0,-1
1558434604148686,-2,2,3,-4,-1,0,2,-3
1558434604148686,1,-1,-5,-4,-2,0,2,-1
1558434604156659,-2,0,2,3,-1,1,-4,-1
1558434604156659,-1,0,4,-7,0,-3,-4,-1
1558434604171620,-3,-2,3,14,3,-2,3,-4
1558434604171620,1,3,10,3,-2,1,-4,-2
1558434604179599,2,1,-1,7,11,6,12,6
1558434604179599,1,3,5,-16,-5,0,-3,-2
1558434604186580,-1,-3,-9,-10,-5,-8,-7,-3
1558434604186580,-1,1,-1,14,5,-3,-3,-2
1558434604193560,0,-1,17,-7,-6,-7,-2,-3
1558434604193560,0,1,-10,6,6,0,-4,-1
1558434604208521,0,-5,-6,-8,-2,-2,-1,0
1558434604208521,-1,-2,0,-5,-2,-2,-2,-2
1558434604216499,-2,-2,-11,5,-4,0,-3,0
1558434604216499,-3,-3,-5,-1,-2,-8,-2,-4
1558434604231460,2,4,3,5,-1,-1,-5,0
1558434604231460,-2,-1,12,10,7,4,4,0
1558434604239438,-2,-2,-2,4,1,-5,1,0
1558434604239438,-1,-1,0,-1,0,2,-1,-2
1558434604246419,1,1,-17,-22,-5,-1,0,2
1558434604246419,1,-6,-5,10,10,5,6,1
1558434604253400,-1,-1,-5,-7,-8,-3,-5,-3
1558434604253400,-3,-1,-8,-7,-5,-2,5,-1
1558434604268360,-3,0,13,19,3,-5,3,-1
1558434604268360,-4,-3,-12,0,2,1,-6,-3
1558434604276338,0,-3,0,-14,-7,-1,-1,-3
1558434604276338,4,1,4,10,0,-1,-6,3
1558434604292297,-1,-5,2,-6,-5,0,6,0
1558434604292297,-4,-6,-19,-7,-4,-1,-1,-3
1558434604299277,2,5,20,7,4,0,-4,-1
1558434604299277,-1,-4,-1,-11,1,3,4,1
1558434604306260,0,1,5,7,6,1,5,2
1558434604306260,2,0,0,-19,-2,0,0,3
1558434604314238,-1,0,-2,6,1,-1,3,0
1558434604314238,-1,2,2,1,-4,-6,-10,-5
1558434604330195,-3,-5,-2,3,0,-2,-5,-4
1558434604330195,1,0,6,0,-5,-3,0,0
1558434604336178,-3,-4,-4,-7,-1,-1,-6,-4
1558434604336178,1,4,8,5,4,2,1,0
1558434604351138,0,-4,-4,3,5,-1,1,1
1558434604351138,2,2,3,-9,-10,-3,-2,2
1558434604359118,-1,-2,3,11,3,0,0,-3
1558434604359118,-5,-7,-30,-24,-12,-4,-2,-4
1558434604374077,-3,-1,-8,-4,0,1,-2,0
1558434604374077,-1,4,13,8,3,-4,-1,0
1558434604375074,1,1,2,5,3,2,1,2
1558434604375074,0,-1,3,4,4,-2,1,-1
1558434604389036,0,0,-12,-5,-4,1,-2,-4
1558434604389036,-1,-5,-9,-6,-5,-2,-8,-1
1558434604396022,-5,-2,-4,-4,-2,-5,-4,-3
1558434604396022,-2,-6,-3,-12,-2,2,3,-4
1558434604410979,-3,-3,-2,6,-5,-6,-8,-3
1558434604410979,-3,-4,-8,6,8,8,-1,-2
1558434604418957,2,-1,-2,-13,-5,1,-1,6
1558434604418957,0,-1,-1,6,1,1,2,2
1558434604433920,-3,0,12,1,-4,-2,-4,-5
1558434604433920,0,-3,-5,-26,-9,-8,3,-1
1558434604434914,0,0,-8,-8,1,-2,1,-3
1558434604434914,0,1,11,11,5,2,-3,0
1558434604448877,0,-4,-8,0,-5,-3,-5,-1
1558434604448877,-1,-3,-18,1,-1,-1,-1,-2
1558434604455859,-2,0,11,-1,-5,-6,-10,-5
1558434604455859,-1,-1,2,1,-2,-1,0,1
1558434604470818,1,4,11,2,1,2,6,4
1558434604470818,1,6,7,15,4,2,-3,3
1558434604479794,-4,-9,-24,-15,-7,-5,-2,-3
1558434604479794,2,2,4,15,8,2,0,1
1558434604493756,1,4,5,0,9,5,-3,0
1558434604493756,3,3,-2,-8,-5,-3,3,2
1558434604501736,-6,-10,1,4,-7,-9,-3,-5
1558434604501736,-2,-1,-1,-10,-2,-1,5,-1
1558434604508723,0,-1,4,3,-2,0,1,3
1558434604508723,-3,-2,8,10,3,1,-5,-1
1558434604516699,1,4,4,-3,4,2,10,1
1558434604516699,-5,-6,-13,-22,-14,-11,-5,-4
1558434604532655,-1,1,11,12,3,4,-2,-1
1558434604532655,-4,-4,-5,9,4,3,4,-5
1558434604539640,1,3,10,3,-5,1,0,-3
1558434604539640,-7,-7,-20,-29,-6,0,-4,-10
1558434604554598,4,3,1,9,3,0,-3,3
1558434604554598,-1,-2,-4,-20,-10,-6,0,0
1558434604555592,0,-2,-3,20,3,-2,-2,2
1558434604555592,3,4,11,10,5,1,1,2
1558434604568557,-2,-6,-14,-7,-3,-1,1,3
1558434604568557,0,1,17,12,6,0,-1,-1
1558434604584515,1,5,1,-9,-5,-1,-4,-4
1558434604584515,-1,0,-4,6,-3,-4,-1,4
1558434604591495,-2,-5,-12,-4,1,3,5,-3
1558434604591495,-1,-2,-14,-12,-2,-1,-3,-2
1558434604599474,-3,-5,-8,-21,-2,1,1,1
1558434604599474,2,3,14,16,7,1,-4,-2
1558434604614440,-4,-5,-1,-9,-6,-8,-2,-5
1558434604614440,-1,0,-8,5,-3,-3,-4,-4
1558434604615440,2,1,3,-11,-2,4,2,1
1558434604615440,1,-4,0,13,0,-3,-3,-1
1558434604636375,-2,-4,0,-14,-3,-3,-3,1
1558434604636375,-2,-2,2,-14,-3,-2,-3,1
1558434604637374,-3,3,4,18,5,2,0,2
1558434604637374,0,2,0,-15,-6,-3,-5,1
1558434604651336,-2,0,0,7,7,3,8,0
1558434604651336,-1,-2,4,4,0,-1,0,-1
1558434604659315,0,-4,-11,-9,0,-3,-2,-3
1558434604659315,0,-1,-5,-11,-8,-5,-3,-2
1558434604674276,-1,-1,8,3,-1,-3,-6,-2
1558434604674276,-1,-3,-11,-2,0,-2,-4,-1
1558434604675272,-1,-4,-4,21,1,-3,1,-1
1558434604675272,-2,-1,6,10,3,1,1,-3
1558434604688236,-1,2,8,4,-4,-3,-3,0
1558434604688236,-4,-4,2,-17,-10,-6,-4,-1
1558434604696217,1,0,3,-2,1,1,3,5
1558434604696217,-3,-4,-8,9,1,-2,4,-2
1558434604712172,-1,-1,-6,-15,-2,-2,0,-2
1558434604712172,0,3,6,10,0,0,0,-2
1558434604719154,-2,-2,-9,-11,-5,-3,-4,0
1558434604719154,2,2,7,5,2,0,3,2
1558434604734113,2,3,3,5,3,-3,-1,3
1558434604734113,-3,-5,-2,17,4,0,-5,-6
1558434604735119,0,-2,-5,-18,-7,-2,-4,-3
1558434604735119,0,-1,3,4,2,1,1,-2
1558434604749075,-2,-2,-4,-10,-5,-4,0,-3
1558434604749075,-2,1,1,3,1,2,3,0
1558434604764037,-1,-1,6,14,4,1,-1,-1
1558434604764037,-1,-1,-5,-9,-3,1,-1,1
1558434604771016,6,-3,-7,-2,-2,1,-3,-1
1558434604771016,-5,1,9,8,2,3,0,0
1558434604778996,-2,-6,-13,-3,-3,-2,-7,-3
1558434604778996,0,1,0,-11,-2,0,-2,-1
1558434604793957,2,1,-1,-7,-5,-2,3,0
1558434604793957,6,-1,5,11,3,-1,-1,3
1558434604794955,-3,-5,-2,-8,-6,-1,-10,-13
1558434604794955,-2,0,4,7,3,1,4,0
1558434604808916,-4,-2,-2,10,0,-1,-3,-5
1558434604808916,4,2,0,-4,0,2,2,-3
1558434604815896,-1,1,5,-2,1,-1,2,2
1558434604815896,0,-5,-12,-14,-6,-4,-3,-3
