timestamp,emg1,emg2,emg3,emg4,emg5,emg6,emg7,emg8
1558433744079350,-1,0,-7,4,13,6,6,-6
1558433744079350,-4,-9,-5,-5,-9,-6,-2,-5
1558433744079350,0,-4,-5,-2,2,2,-3,-4
1558433744079350,0,5,3,0,-3,2,-2,2
1558433744080347,2,2,4,0,-2,1,-5,0
1558433744080347,0,-1,2,1,4,-1,12,10
1558433744081345,-4,-4,-8,-3,-6,-5,-4,-4
1558433744081345,-2,-7,-4,-4,-3,-2,-1,-2
1558433744092326,0,5,1,-5,0,0,-9,1
1558433744092326,0,0,-1,0,-2,-1,1,-6
1558433744100293,-7,-10,-1,2,6,5,5,5
1558433744100293,2,2,-3,2,3,-1,4,1
1558433744108273,-1,0,9,2,-1,-3,-1,1
1558433744108273,1,8,0,0,5,2,-4,0
1558433744131212,-1,-2,0,-5,-6,-1,0,-1
1558433744131212,-5,-10,-19,-4,-5,-1,3,-3
1558433744133207,-1,-1,-2,-5,-10,-11,-6,-3
1558433744133207,2,0,1,4,-1,-6,-5,-3
1558433744137196,-8,0,5,1,5,3,2,-3
1558433744137196,4,6,9,5,6,9,4,2
1558433744152167,-8,-17,-14,-3,-8,-12,-4,-4
1558433744152167,0,-4,-2,-3,-1,4,-1,2
1558433744160135,6,5,1,0,9,5,8,1
1558433744160135,4,3,5,-2,-2,-6,-6,-1
1558433744200027,-3,-3,-5,-3,-6,-4,-4,-2
1558433744200027,-2,0,0,-3,-8,-7,-2,-3
1558433744201024,-1,1,-2,-3,-2,-3,-3,-2
1558433744201024,0,4,3,0,3,1,-2,-4
1558433744202022,-4,-13,-4,-2,2,1,3,3
1558433744202022,0,2,10,2,4,4,3,-2
1558433744205014,1,-2,-8,0,-5,-2,-1,-1
1558433744205014,2,6,1,-1,-4,-2,-2,-1
1558433744211996,-4,-3,-1,0,0,-1,-1,1
1558433744211996,-1,2,3,-3,-8,-6,-3,0
1558433744218977,-2,-6,-11,-3,3,1,-1,-1
1558433744218977,0,-1,-1,-1,0,-1,-2,-2
1558433744227952,2,3,-2,-2,-7,-6,-3,-2
1558433744227952,2,-4,2,4,2,2,2,1
1558433744242912,1,2,4,0,-2,-5,-2,-1
1558433744242912,-4,-5,-10,-4,-3,-5,2,1
1558433744248896,-1,1,1,-1,0,3,0,-3
1558433744248896,-2,-2,-7,-4,-7,-8,-5,-2
1558433744256875,-1,-1,-1,-2,1,4,0,0
1558433744256875,1,2,3,4,4,2,1,2
1558433744271835,-6,-6,-2,-2,-6,-7,1,-1
1558433744271835,-1,0,-8,-2,-2,-3,-3,1
1558433744279814,-1,0,3,-1,5,4,2,1
1558433744279814,0,-3,-1,-2,-1,-1,-3,0
1558433744288789,0,6,2,3,0,0,-2,-3
1558433744288789,-1,-3,-5,-8,-4,-4,-4,0
1558433744302752,-2,-4,5,-2,-4,-3,2,-2
1558433744302752,0,2,1,-1,-1,-3,0,0
1558433744309734,-4,-4,-4,1,3,2,0,1
1558433744309734,0,0,2,4,2,2,1,1
1558433744316715,-4,-3,-5,-3,-5,-2,-5,-4
1558433744316715,-3,-7,-3,-2,-2,0,1,-1
1558433744331676,6,9,4,2,5,6,0,-1
1558433744331676,-10,-11,-5,1,1,2,-2,-1
1558433744339653,2,4,12,1,-3,-2,1,1
1558433744339653,-3,-2,-15,0,-3,-8,-3,-3
1558433744348630,1,-2,0,-5,-7,-5,-3,-3
1558433744348630,1,0,0,1,4,-1,0,1
1558433744362593,5,6,2,-2,-3,0,0,2
1558433744362593,-20,-23,-1,2,8,9,2,-3
1558433744369576,-4,-4,-5,-2,-1,-3,-3,-3
1558433744369576,5,4,-3,-4,-5,-2,-4,-1
1558433744376556,-14,-3,-2,-1,-3,-3,-5,-5
1558433744376556,6,8,3,1,-4,-2,-1,1
1558433744391514,0,-3,-3,-5,-3,-2,-3,-1
1558433744391514,-2,-4,-2,0,1,-2,0,2
1558433744399495,8,-1,-6,0,1,-4,-3,-3
1558433744399495,-3,0,0,-3,3,4,2,0
1558433744409470,0,-1,4,-1,-1,-1,-2,0
1558433744409470,3,4,0,-1,-2,0,1,-2
1558433744422433,-10,-6,2,1,2,0,0,-2
1558433744422433,4,2,-2,0,-2,-3,-3,-2
1558433744429414,1,3,8,1,4,-1,0,1
1558433744429414,-1,-4,-15,-5,-2,1,-1,0
1558433744437393,-1,-5,-3,-2,-2,-2,-3,0
1558433744437393,-1,0,3,-1,-8,-4,-2,2
1558433744452354,0,1,-2,0,0,-1,0,-3
1558433744452354,2,1,2,-1,2,1,0,0
1558433744459334,-1,-1,-4,-1,0,0,0,-2
1558433744459334,2,2,1,0,-5,-5,-6,-1
1558433744468310,0,-1,-6,-3,-3,-3,-3,0
1558433744468310,-6,-7,3,3,7,6,2,-3
1558433744482273,-4,-9,3,-1,-1,0,-2,0
1558433744482273,1,-1,-1,-2,-3,0,-1,-2
1558433744489254,-4,0,2,-1,-2,-2,2,1
1558433744489254,2,1,-12,-4,-5,-7,-5,-4
1558433744497232,4,4,1,-2,-5,-1,0,2
1558433744497232,2,0,5,2,5,2,2,2
1558433744512197,-5,-5,-3,3,3,3,1,-1
1558433744512197,0,-2,5,0,-2,0,0,1
1558433744519174,0,0,-7,-3,0,2,-1,-3
1558433744519174,2,1,-3,-4,-5,-7,-2,-1
1558433744528151,1,-3,-3,0,-3,-5,-6,-2
1558433744528151,-1,1,3,2,3,5,1,2
1558433744542111,-6,-5,-7,-4,-5,-5,-4,-5
1558433744542111,2,2,3,-1,-1,4,5,2
1558433744549094,-2,-2,-2,0,4,1,1,-1
1558433744549094,-4,-2,1,1,-2,-2,-4,-4
1558433744557072,-1,-6,-8,-2,-3,-2,-1,2
1558433744557072,0,2,-1,0,-2,-2,-2,-2
1558433744572035,3,4,0,-1,-6,-1,-1,0
1558433744572035,-4,1,11,-1,-3,-3,-3,0
1558433744587990,-4,-3,-3,1,4,4,3,-2
1558433744587990,5,3,-6,0,7,3,7,7
1558433744589984,6,-2,-3,-1,-6,-3,-1,-1
1558433744589984,-4,-5,2,-1,-5,-5,-4,-3
1558433744602950,2,6,4,1,4,-1,-3,-2
1558433744602950,-4,-6,-4,-1,0,1,-4,-7
1558433744608933,11,13,3,2,12,8,2,5
1558433744608933,-5,-8,-4,-3,-4,-2,-1,-4
1558433744624893,1,2,2,-5,-7,-5,-2,2
1558433744624893,-4,-8,-4,-5,-10,-7,-6,-5
1558433744639852,-3,-5,-1,0,7,4,4,1
1558433744639852,2,-3,-1,0,-1,-2,-1,0
1558433744640849,2,3,-3,0,0,0,1,-2
1558433744640849,-4,-1,-2,-2,-1,-3,-4,-4
1558433744648828,-4,-1,2,-2,-6,-3,-4,-3
1558433744648828,2,2,-4,1,2,3,5,1
1558433744661794,5,1,2,6,7,4,0,2
1558433744661794,-10,-6,-3,-3,-6,-5,-4,-6
1558433744670768,2,-3,0,-2,-6,-4,-1,-1
1558433744670768,-1,-1,1,-2,3,3,2,0
1558433744684734,8,11,6,-2,-4,-2,-4,1
1558433744684734,-2,-1,0,-1,-1,-1,-1,0
1558433744691714,-10,-10,-3,-1,-7,-4,-3,-5
1558433744691714,1,3,-1,0,6,2,1,1
1558433744699693,-3,-5,-2,3,8,5,2,4
1558433744699693,1,0,0,0,1,0,-2,-3
1558433744708666,-4,2,-2,-2,-5,-4,-4,-1
1558433744708666,0,0,0,-1,-4,-3,0,-2
1558433744721634,-7,-7,-7,-3,-5,-5,-3,-1
1558433744721634,-2,-2,-3,-1,1,0,-2,1
1558433744730608,8,6,3,1,0,1,-1,3
1558433744730608,1,3,-2,-1,-4,-3,-5,-10
1558433744745568,-4,-2,5,-1,0,0,3,3
1558433744745568,-5,-16,-9,-2,-3,-2,-2,-2
1558433744751551,-1,-1,-2,-1,-4,-2,-1,-2
1558433744751551,3,4,0,2,0,1,-2,2
1558433744759530,4,6,2,6,10,4,-1,-2
1558433744759530,0,1,4,-3,-2,-2,4,0
1558433744768507,-4,-3,-4,-1,-1,1,1,1
1558433744768507,-1,0,-2,-4,-5,-6,-3,-4
1558433744781472,-3,-2,-6,-2,-7,-4,0,-3
1558433744781472,2,4,4,0,0,0,-3,0
1558433744790447,-7,-4,-3,1,12,4,-3,-8
1558433744790447,-3,-4,-6,1,-3,-2,0,1
1558433744804412,-2,-4,4,-1,0,2,-4,-1
1558433744804412,5,2,-10,-1,6,4,3,1
1558433744813387,-10,-3,0,-4,-8,-5,-1,-4
1558433744813387,0,-2,-2,-5,-3,-4,-2,-1
1558433744819371,-2,2,2,0,-1,-2,0,0
1558433744819371,5,2,-7,-4,-8,-3,-3,1
1558433744828347,-2,-3,-4,-3,-2,-4,-6,-5
1558433744828347,-5,-7,-2,-1,0,0,1,0
1558433744842310,3,3,3,-5,-7,-5,-2,-4
1558433744842310,-1,1,-4,-1,-4,-2,0,2
1558433744851286,-3,-7,0,2,8,6,0,-1
1558433744851286,-1,3,-3,-1,3,1,-2,2
1558433744865254,2,0,2,-2,-5,-5,-1,4
1558433744865254,-1,-2,0,1,0,3,1,-8
1558433744872230,4,2,-1,0,1,1,0,1
1558433744872230,-5,-2,1,0,-4,-2,2,-1
1558433744879211,1,-1,-4,0,5,1,-3,-1
1558433744879211,-5,-1,4,0,-5,-7,-4,2
1558433744896165,6,1,-14,-6,-7,-6,0,3
1558433744896165,-4,-3,2,2,7,5,1,2
1558433744902151,-10,-9,-8,3,2,-1,-1,-4
1558433744902151,3,6,11,0,1,1,1,1
1558433744911126,-2,-2,-2,0,-4,-2,1,-2
1558433744911126,4,6,-3,-5,-16,-9,-7,-5
1558433744925099,-2,-9,-7,-1,6,6,3,-1
1558433744925099,-1,6,11,4,13,3,-1,-2
1558433744932081,0,0,-2,-4,-7,-6,-2,2
1558433744932081,-1,-3,2,-1,-4,-5,-2,-1
1558433744939060,-7,-1,0,-4,-9,-1,1,-6
1558433744939060,-1,-4,-2,1,6,4,-1,-1
1558433744954033,4,6,9,5,4,2,3,3
1558433744954033,-3,-8,-6,-3,-3,-4,-3,-1
1558433744961991,-2,1,1,-2,-9,-6,-3,-3
1558433744961991,0,-3,-11,-3,-1,0,0,-3
1558433744970966,3,7,3,1,4,2,-1,0
1558433744970966,-7,-6,3,-3,-3,0,0,-2
1558433744984927,1,-1,-8,-1,-3,-2,-1,2
1558433744984927,-5,-5,-2,-2,-1,-2,-4,-3
1558433744992911,0,5,-1,-1,-5,-2,1,-2
1558433744992911,7,3,4,6,8,6,0,1
1558433744999888,-4,-7,-4,-1,6,-1,1,-2
1558433744999888,-2,-4,-9,-6,-9,-2,-1,0
1558433745014852,0,-4,1,1,6,3,-2,-1
1558433745014852,-2,0,-2,-3,-4,-3,-1,-2
1558433745022831,2,-1,0,0,-3,-2,-2,-1
1558433745022831,2,4,8,-1,-6,-7,-2,0
1558433745029814,-4,-4,-2,-4,-8,-6,-1,-4
1558433745029814,0,-2,-11,-3,1,1,-2,-2
1558433745044781,5,3,2,1,2,3,0,2
1558433745044781,-1,7,6,-3,-1,-1,-2,-1
1558433745051751,-6,-14,-8,-2,-1,1,0,0
1558433745051751,1,-1,1,0,0,-4,-2,0
1558433745059735,-2,-5,-3,-5,-6,-2,-1,-2
1558433745059735,2,0,-5,5,13,9,1,-1
1558433745074690,4,7,1,-1,1,-3,1,4
1558433745074690,-2,-6,-1,-1,1,1,-3,-6
1558433745082669,0,1,-2,0,-4,-2,-2,-4
1558433745082669,-3,-6,-2,0,-11,-5,-3,-3
1558433745089650,-2,-1,0,-3,-2,-7,-6,-2
1558433745089650,-3,-7,-6,1,2,3,3,3
1558433745104609,3,4,4,1,5,3,0,2
1558433745104609,-4,-2,2,-2,-7,-7,-5,-4
1558433745111593,-3,-2,-6,-5,-9,-6,-1,1
1558433745111593,-4,-5,-2,3,10,4,3,-2
1558433745119574,2,8,8,1,8,4,-2,-2
1558433745119574,-6,-10,-1,-1,2,-3,-5,-3
1558433745134540,-6,-9,-4,-2,-8,-2,0,2
1558433745134540,0,4,1,1,2,-2,-1,-2
1558433745142520,-1,-1,-4,-1,-7,-6,-4,-2
1558433745142520,2,-1,-5,-5,-3,-4,-1,-1
1558433745149559,-3,3,-1,-3,-10,-3,-4,-4
1558433745149559,1,5,10,0,-2,-2,-2,-1
1558433745165516,2,-4,-16,2,8,7,4,3
1558433745165516,-11,-8,3,6,5,1,-2,-4
1558433745172429,2,-1,0,-1,0,1,0,-1
1558433745172429,1,0,-6,-4,-5,-2,-3,-1
1558433745187392,-2,3,0,-6,-9,-7,-5,-1
1558433745187392,3,1,0,0,3,2,1,1
1558433745194409,-1,-2,2,0,7,4,0,-2
1558433745194409,1,4,-2,-2,-6,-3,0,3
1558433745211404,-1,-2,2,-6,-9,-9,-7,-3
1558433745211404,-1,-7,0,0,-6,1,5,1
1558433745212326,6,4,-2,8,27,16,6,3
1558433745212326,-8,-7,1,1,8,7,3,0
1558433745225299,-3,-2,-3,0,-7,-5,-4,-4
1558433745225299,1,5,3,-4,-11,-8,-3,1
1558433745232564,-6,-12,-12,-10,-14,-10,-7,-5
1558433745232564,0,2,-2,0,-4,-3,-4,-1
1558433745248330,-3,-3,-1,-1,0,-2,1,-1
1558433745248330,0,0,-2,1,5,0,-3,-2
1558433745254208,3,8,10,5,5,5,1,2
1558433745254208,9,9,-1,0,7,8,3,2
1558433745271167,-6,-8,5,1,1,-1,2,-2
1558433745271167,4,7,-2,-6,-9,-6,-4,-2
1558433745272161,-8,-12,-4,-1,-11,-6,-5,-5
1558433745272161,3,0,-3,0,4,0,-1,-2
1558433745285141,3,5,3,6,7,4,1,3
1558433745285141,0,2,-7,-3,-1,1,2,-4
1558433745292323,0,-1,-1,-3,-4,-6,-3,-3
1558433745292323,-7,-5,-2,-4,-11,-3,-3,0
1558433745308066,0,-1,1,-2,0,-1,3,1
1558433745308066,3,3,1,5,6,6,8,6
1558433745314052,-2,-1,1,1,4,-1,-4,-2
1558433745314052,5,4,0,-2,-7,-7,-2,-1
1558433745331004,-7,-4,2,-1,1,2,-1,-3
1558433745331004,-2,-5,-6,-1,4,3,-1,-1
1558433745332002,-1,-4,-6,-2,-3,-2,-3,-1
1558433745332002,5,8,11,-1,-1,-5,-2,0
1558433745345094,-6,-6,-7,-2,-5,-2,-4,-2
1558433745345094,0,4,5,-2,-5,-2,-3,-2
1558433745351980,-1,-2,0,2,7,4,4,1
1558433745351980,-1,-1,-2,0,-1,-2,-4,-4
1558433745368036,2,0,0,-1,-10,-7,-2,-3
1558433745368036,-2,-6,-2,-4,3,-2,-3,-3
1558433745374991,3,6,1,3,7,5,1,-1
1558433745374991,-10,-8,-2,-2,-6,-3,-1,-2
1558433745390847,4,8,2,1,5,4,4,1
1558433745390847,-7,-7,-3,0,-5,-4,-4,0
1558433745391843,3,5,0,-3,-8,-6,-2,-1
1558433745391843,-3,-3,-5,-2,-1,0,-2,-4
1558433745404805,-2,-4,-2,-1,-1,-1,-4,-2
1558433745404805,1,4,1,-2,-1,0,0,0
1558433745411790,0,2,4,0,-1,3,2,1
1558433745411790,0,1,-4,4,1,-3,3,6
1558433745427953,1,6,7,-1,1,0,-1,-4
1558433745427953,-6,-11,-2,-2,2,0,-1,1
1558433745434935,0,1,-7,-1,-4,-4,-3,-2
1558433745434935,-5,-5,-2,-6,-9,-4,-3,-4
1558433745450687,-4,-7,-5,-1,-5,-7,-4,-3
1558433745450687,6,9,6,6,7,4,3,4
1558433745452677,-1,-2,2,4,20,12,3,1
1558433745452677,6,4,-2,0,4,6,0,0
1558433745465898,-6,-5,-2,-5,-3,-3,0,1
1558433745465898,0,-2,-5,-4,-15,-10,-4,-7
1558433745471626,-3,-2,0,-6,-9,-9,-6,-1
1558433745471626,2,1,-2,0,3,0,-1,0
1558433745496567,-1,0,-3,-1,-4,-2,-2,-3
1558433745496567,-3,-5,0,2,1,1,0,0
1558433745497565,3,4,0,4,6,4,2,3
1558433745497565,-3,-11,-7,-3,-5,-2,-1,-3
1558433745510523,-5,3,-2,0,-4,0,-1,-4
1558433745510523,-3,-6,-1,-2,1,0,0,0
1558433745512518,-3,-2,0,-2,-5,-2,-1,-1
1558433745512518,-1,-2,-1,-3,-3,-2,-3,-2
1558433745533461,8,2,-1,1,4,1,-1,3
1558433745533461,-5,-5,-7,-3,1,0,-1,-3
1558433745534458,-1,7,10,-2,-1,1,1,-3
1558433745534458,-2,-4,4,2,0,2,1,0
1558433745547454,0,-4,-8,-1,-2,-1,-1,-1
1558433745547454,-1,3,0,2,-2,-2,-2,-2
1558433745554405,-6,-11,-8,-3,-8,-4,-3,-5
1558433745554405,2,7,1,-5,-4,-5,-1,1
1558433745570395,0,-2,0,-1,5,0,1,1
1558433745570395,3,2,1,1,2,1,0,1
1558433745572357,-1,1,0,1,-1,-3,-3,1
1558433745572357,-2,-1,-1,-2,-2,4,-3,-3
1558433745584677,-3,-5,-1,0,1,3,2,3
1558433745584677,-2,0,-1,-4,-3,-4,-3,-1
1558433745593302,3,0,-8,-2,-4,-3,1,-1
1558433745593302,-7,-9,-3,-2,-4,-4,-4,-4
1558433745608355,-2,-3,-2,-1,0,0,-6,-6
1558433745608355,3,7,1,3,2,3,2,0
1558433745614493,3,2,1,-1,1,-1,-1,-4
1558433745614493,-7,-8,4,0,0,-2,-1,2
1558433745631389,0,-1,-7,-4,-3,-2,-2,-1
1558433745631389,-1,-6,-9,-3,-4,-1,-1,0
1558433745632202,-7,0,1,-1,-6,-2,-3,-2
1558433745632202,2,0,-4,-5,-3,-4,-1,-3
1558433745645232,-4,-1,2,-2,-9,-7,0,-2
1558433745645232,5,-2,1,3,8,5,0,3
1558433745653144,1,2,-1,4,9,5,5,0
1558433745653144,-11,-8,-1,-1,2,1,-1,-3
1558433745668355,-2,2,-4,-1,-1,0,-3,-2
1558433745668355,-2,2,5,-4,-13,-11,-3,-2
1558433745674127,-3,-7,-18,-5,-5,-4,-3,1
1558433745674127,5,8,7,6,7,4,3,3
1558433745691068,1,0,-1,2,4,6,2,1
1558433745691068,-4,-2,-2,0,4,2,0,-3
1558433745692038,-2,-2,3,-5,-10,-8,-6,-5
1558433745692038,1,0,-5,-1,0,0,1,-1
1558433745704007,-4,-8,-4,-3,-9,-5,-1,-1
1558433745704007,2,5,-3,0,6,5,-2,-1
1558433745713982,-5,-8,4,1,10,2,1,3
1558433745713982,1,3,-3,-1,-1,3,1,-1
1558433745726945,-1,-1,2,0,-2,-6,-3,-2
1558433745726945,-1,3,-2,-6,-18,-10,-3,-2
1558433745735923,1,-1,7,2,4,5,4,2
1558433745735923,-2,-4,-3,6,12,6,-1,1
1558433745750883,-3,-5,0,3,6,5,2,1
1558433745750883,-1,2,-2,-3,-8,-6,-4,-1
1558433745751877,-3,-1,-3,-4,-7,0,1,-2
1558433745751877,-3,-3,2,-4,-7,-7,-4,-3
1558433745764937,-1,-1,-4,-3,-8,-5,-2,1
1558433745764937,0,-3,-5,-3,8,1,-3,-5
1558433745773820,-2,1,6,0,-4,-2,-3,-3
1558433745773820,0,-5,-13,0,0,-1,4,1
1558433745787840,5,2,0,1,5,3,2,0
1558433745787840,-6,-6,6,2,-2,-2,1,1
1558433745794920,-4,0,-1,-3,-3,-5,-3,-1
1558433745794920,3,7,-1,-1,-4,-4,-4,-3
1558433745810724,-10,-1,2,-2,-2,0,-3,-5
1558433745810724,-4,-9,-1,2,1,-1,1,1
1558433745816860,-2,-2,-4,-1,0,-3,-3,-2
1558433745816860,-2,0,2,-4,-4,-1,-1,2
1558433745824712,7,5,0,2,11,9,7,5
1558433745824712,3,4,3,2,3,3,-3,-1
1558433745833659,-4,-3,-3,-1,-5,-5,-1,1
1558433745833659,1,3,-1,-1,1,-4,-1,2
1558433745847750,-4,-12,-4,-6,-11,-8,-3,-3
1558433745847750,0,0,2,-1,2,2,2,-2
1558433745854602,2,0,-1,5,7,2,0,0
1558433745854602,-1,0,0,2,-1,2,1,-1
1558433745870757,3,5,4,1,6,1,-5,-1
1558433745870757,-14,-3,-5,-6,-8,-7,-4,-2
1558433745877693,3,-5,-2,-4,-8,-1,-1,0
1558433745877693,2,2,0,2,6,3,2,0
1558433745884747,0,2,8,-1,-2,-2,1,0
1558433745884747,-4,-5,-12,-3,-3,-1,-2,1
1558433745893509,3,5,-1,0,-4,-5,-1,0
1558433745893509,-4,-6,4,1,-4,-4,-3,-4
1558433745907465,-2,0,-2,-1,-3,-5,-2,-3
1558433745907465,1,-6,-12,-4,-2,-2,-2,-1
1558433745914443,0,-1,0,-4,-6,-2,-4,-1
1558433745914443,-4,-4,5,4,12,7,4,1
1558433745930399,2,0,-11,-1,4,2,4,0
1558433745930399,6,8,4,4,3,2,2,-2
1558433745937381,-5,-6,3,1,-2,-2,-2,-3
1558433745937381,3,-8,-8,-8,-12,-9,-7,-4
1558433745944393,-12,-9,0,-4,-8,-5,-4,-2
1558433745944393,2,1,-1,-1,6,4,1,2
1558433745953338,2,5,-3,-2,-2,-1,0,1
1558433745953338,4,2,-1,-2,-3,-2,-5,-2
1558433745968375,3,3,3,5,7,7,4,0
1558433745968375,-2,-4,3,2,-1,1,2,1
1558433745974665,-3,-4,-10,-5,-1,-1,-3,-1
1558433745974665,-5,-5,-6,-5,-8,-4,-3,-4
1558433745990630,1,1,-3,-1,-2,-5,-5,-4
1558433745990630,2,0,9,2,-3,-4,1,4
1558433745997295,-1,1,-6,3,2,1,0,-4
1558433745997295,-7,1,-1,-2,1,-1,-2,-2
1558433746013535,6,-1,-5,-6,-8,-3,0,1
1558433746013535,-8,-4,-5,-4,-9,-4,-7,-8
1558433746014251,-2,-7,-1,-2,6,1,0,0
1558433746014251,3,4,0,0,-6,-1,3,2
1558433746028318,-8,-3,4,6,19,12,1,0
1558433746028318,7,3,3,-1,-2,-4,-1,3
1558433746034403,-2,-2,1,-2,-6,-2,0,1
1558433746034403,-4,-2,-5,-2,-2,-2,-2,-5
1558433746050414,3,8,4,-2,-6,-6,-3,2
1558433746050414,-6,-8,-10,-3,-5,-2,0,-2
1558433746057136,-5,-7,-5,-4,2,1,-4,-3
1558433746057136,1,3,3,2,2,2,4,0
1558433746073313,-1,-5,-7,0,-2,-2,0,0
1558433746073313,0,-3,2,0,3,-1,3,2
1558433746075089,2,7,4,1,-6,-4,-4,-4
1558433746075089,-2,-1,5,-2,-3,-2,-2,0
1558433746088059,-2,-3,-6,-3,2,2,2,-2
1558433746088059,-4,-3,-4,1,1,2,-1,-1
1558433746094090,6,0,3,-2,0,-2,0,1
1558433746094090,-5,-4,-6,-3,-2,-4,-4,-6
1558433746110046,-3,1,1,0,-3,0,0,-2
1558433746110046,6,8,3,3,0,3,0,-2
1558433746117179,-4,-11,-3,3,6,5,0,-3
1558433746117179,4,8,-12,-3,-5,-3,-3,0
1558433746132942,-4,-14,-2,-2,-8,-7,-4,-3
1558433746132942,-2,-2,-1,-1,-6,-4,-2,-1
1558433746134931,2,4,1,0,7,5,2,-1
1558433746134931,3,4,6,5,7,3,2,5
1558433746147895,-1,-1,-11,-4,-7,-4,-3,1
1558433746147895,2,-4,-3,-4,-7,-3,-1,2
1558433746153876,-3,2,-3,4,6,2,2,-3
1558433746153876,-3,-6,3,-6,-2,-2,-1,3
1558433746169833,0,5,5,1,-3,-3,-2,-3
1558433746169833,-1,-5,-3,-1,4,0,1,-1
1558433746178808,0,1,-8,-2,-9,-3,-1,0
1558433746178808,1,0,1,3,3,2,0,2
1558433746193994,5,0,-1,-5,-5,-5,-4,-3
1558433746193994,-6,-1,0,-1,-4,-4,-3,-3
1558433746194769,3,5,4,-2,0,0,2,2
1558433746194769,-2,-1,0,-1,3,2,1,-3
1558433746208059,-2,-5,0,1,-3,0,0,0
1558433746208059,-4,-5,5,0,3,-1,-3,-4
1558433746215039,3,-2,-12,-3,-6,-6,-1,3
1558433746215039,-13,-12,-4,-1,-9,-4,-5,-4
1558433746238990,-1,1,-2,-2,7,4,2,-4
1558433746238990,-1,1,0,0,2,4,2,1
1558433746239648,-4,-10,0,-1,3,2,2,3
1558433746239648,-1,2,0,-2,-6,-7,-6,-4
1558433746253868,3,3,1,-1,-4,-1,1,6
1558433746253868,-11,-1,4,-2,-2,-3,-5,-10
1558433746254610,3,1,-7,-3,0,1,-2,-1
1558433746254610,-1,-7,-11,-2,-4,-2,0,2
1558433746267811,0,4,10,1,-2,-1,-4,-5
1558433746267811,0,-4,-4,1,8,5,1,2
1558433746274763,-2,-1,11,-1,-8,-5,-1,-1
1558433746274763,-4,-4,-9,-2,-6,-3,-2,-3
1558433746290704,5,4,-2,2,3,1,0,2
1558433746290704,-1,1,-1,1,7,4,3,3
1558433746297697,-6,-8,4,-1,-4,-3,-3,-4
1558433746297697,5,2,-1,0,0,0,1,3
1558433746313669,-7,-10,-5,-8,-14,-8,-4,-5
1558433746313669,6,8,2,-2,-11,-6,-2,-3
1558433746314455,-9,-5,-1,3,9,6,-2,-1
1558433746314455,4,1,4,1,9,5,2,1
1558433746327420,-2,2,0,2,2,0,1,0
1558433746327420,2,-4,-10,-3,-4,-4,-3,-2
1558433746334402,-1,7,4,0,-4,-2,0,0
1558433746334402,10,6,3,-3,-4,-2,-3,-4
1558433746350349,-16,-18,-16,-4,4,1,2,0
1558433746350349,4,0,-1,-5,-6,-2,-3,-3
1558433746357332,-10,-11,0,0,-9,-6,0,-2
1558433746357332,2,3,-2,4,11,5,2,2
1558433746373548,0,4,2,-2,3,-2,-2,2
1558433746373548,1,2,-4,0,0,1,2,1
1558433746374286,1,2,-5,-1,-2,-3,-4,-3
1558433746374286,-5,-4,1,-4,-9,-6,-3,-2
1558433746387253,5,0,2,5,7,8,2,0
1558433746387253,-7,-1,3,1,7,2,-2,-1
1558433746394234,1,-6,-5,-4,-6,-5,-3,-1
1558433746394234,-3,3,-1,-7,-11,-10,-4,-3
1558433746410226,6,-4,-2,2,-3,2,3,2
1558433746410226,3,6,2,3,10,7,2,3
1558433746417677,5,7,7,5,10,8,3,-2
1558433746417677,-5,-4,-5,-2,-3,-4,-4,-2
1558433746433129,-5,7,11,-3,-7,-7,-3,2
1558433746433129,2,-5,-16,-6,-7,-3,-2,-4
1558433746435124,1,-1,-8,-5,-2,-2,-3,-1
1558433746435124,0,-4,7,0,-2,1,1,0
1558433746448364,-4,-5,0,-3,-6,-8,-7,-4
1558433746448364,0,0,1,4,10,7,2,0
1558433746455229,8,9,10,7,11,8,6,5
1558433746455229,2,-2,-6,2,8,6,5,5
1558433746470262,-14,-10,-5,-4,-9,-6,-6,-9
1558433746470262,-2,-1,2,-4,-12,-9,-4,-1
1558433746477320,-3,-6,-6,-6,-3,-3,-7,-7
1558433746477320,1,8,11,4,7,3,3,2
1558433746494082,2,-11,-2,2,1,0,2,-2
1558433746494082,-5,-5,-9,-11,-17,-13,-9,-4
1558433746494965,-4,-1,3,2,1,3,4,1
1558433746494965,5,5,9,1,4,1,1,2
1558433746507243,5,10,-10,0,5,7,2,0
1558433746507243,0,-2,4,1,3,5,0,-1
1558433746515940,0,0,-2,-1,-6,-4,-1,1
1558433746515940,-2,-8,1,-5,-11,-8,-2,-2
1558433746530104,-4,2,-1,0,5,-1,-5,-5
1558433746530104,-2,-1,1,-3,-2,-3,-1,-2
1558433746536888,-4,-9,-14,-3,-7,-3,-3,-2
1558433746536888,1,-4,-5,0,2,4,0,0
1558433746552812,-3,-4,0,-5,-6,-7,-4,-2
1558433746552812,1,3,2,4,1,1,4,-3
1558433746554807,3,1,4,4,17,10,3,4
1558433746554807,-1,-3,-4,3,3,2,-2,-2
1558433746566775,3,5,2,0,-1,-2,0,4
1558433746566775,2,-2,1,-4,-11,-9,-3,0
1558433746575780,-1,2,2,-4,-14,-9,-4,-5
1558433746575780,-12,-15,-19,-8,-8,-3,-4,-4
1558433746589709,6,-1,3,2,5,4,2,0
1558433746589709,-10,3,2,4,8,4,7,6
1558433746596691,0,-3,-8,-2,1,-1,-4,-5
1558433746596691,-5,-2,0,0,-2,-3,-2,0
1558433746613651,-1,0,2,-3,-7,-3,-4,-3
1558433746613651,2,-3,-5,-1,4,3,-1,0
1558433746614642,2,1,1,-3,2,-1,-3,1
1558433746614642,-8,-1,2,0,-3,-2,-2,-3
1558433746635587,-3,-7,-7,-3,-7,-4,-2,0
1558433746635587,-1,-1,1,-2,-5,-5,-4,-8
1558433746637583,-7,1,0,-5,-11,-6,-2,-3
1558433746637583,4,1,-3,-1,4,2,4,4
1558433746658853,3,9,17,9,23,13,7,2
1558433746658853,2,-1,-4,2,6,3,1,2
1558433746659523,-7,1,4,-1,-3,-1,-2,-2
1558433746659523,-4,-5,-5,-4,-11,-6,-3,0
1558433746681804,-1,-3,-5,-4,-9,-8,-2,-1
1558433746681804,2,1,1,-2,-1,-1,-3,0
1558433746688447,6,4,-5,0,1,2,1,0
1558433746688447,-12,-14,-7,-2,-6,-6,-3,-3
1558433746690583,-1,-4,-13,-6,-13,-7,-3,-6
1558433746690583,3,2,4,3,13,9,4,4
1558433746695740,3,4,11,5,15,8,3,2
1558433746695740,5,7,5,2,8,6,1,-1
1558433746710719,-4,-1,-1,-3,-9,-7,-5,0
1558433746710719,1,1,-7,-5,-17,-13,-4,-5
1558433746717719,-14,-12,-8,-2,-7,-4,-1,0
1558433746717719,-1,2,8,0,0,-2,-5,-6
1558433746733600,1,6,1,-5,-7,-6,-4,-3
1558433746733600,1,-3,-4,4,5,8,2,4
1558433746734325,3,-3,3,2,5,1,1,2
1558433746734325,-5,2,0,1,-2,-2,0,-4
1558433746756390,0,1,3,2,2,2,2,1
1558433746756390,2,1,1,2,6,3,1,2
1558433746757265,4,0,-5,-5,-9,-5,-1,-1
1558433746757265,3,5,2,-1,-6,-6,-3,-2
1558433746770230,2,2,-2,-3,-6,-3,-3,-3
1558433746770230,-8,-5,-3,-3,0,-3,-2,-4
1558433746777493,-3,-8,-16,-3,-6,-8,-4,2
1558433746777493,2,-2,10,2,11,9,7,4
1558433746793241,-1,4,-3,2,11,10,4,-3
1558433746793241,-2,-3,3,-2,-5,-3,-2,0
1558433746799432,-5,-1,1,-6,-7,-7,-6,-8
1558433746799432,0,0,-11,-2,-6,-4,-4,-1
1558433746807405,-3,-8,-5,-1,2,-2,-3,1
1558433746807405,-1,1,0,-2,-8,-2,-1,-2
1558433746816106,2,3,2,0,-2,-2,-1,0
1558433746816106,-7,-6,-4,-5,-5,-7,-2,0
1558433746830350,-4,-8,0,1,-4,-3,-1,0
1558433746830350,7,8,9,4,4,4,-1,0
1558433746837050,-13,-13,-14,2,19,17,8,-1
1558433746837050,13,4,11,2,6,5,1,2
1558433746853006,-6,-5,-11,-3,-9,-5,-2,-7
1558433746853006,-4,-3,2,-5,-12,-10,-3,-2
1558433746860100,1,3,1,-2,-5,-6,-4,-3
1558433746860100,5,9,1,3,7,4,3,2
1558433746867257,3,5,3,4,6,4,0,4
1558433746867257,-4,-10,-5,-4,-9,-7,-4,-5
1558433746875945,-5,-5,0,-3,-4,-3,-1,0
1558433746875945,-3,-4,-6,-4,-4,-8,-4,-4
1558433746890211,3,-2,3,2,2,5,1,1
1558433746890211,-13,-5,-9,2,6,5,-1,-3
1558433746897166,1,-3,2,1,3,0,-3,-2
1558433746897166,-4,-2,-3,-5,-8,-4,-2,0
1558433746913130,2,0,-2,-3,1,-1,1,-1
1558433746913130,1,0,1,-3,-5,-5,-1,-1
1558433746919156,2,2,5,-1,-6,-2,1,-1
1558433746919156,-1,-2,-3,1,-3,-1,-1,-2
1558433746927426,-3,-4,-9,3,8,4,2,0
1558433746927426,2,-2,2,0,2,1,-1,1
1558433746936108,7,8,6,1,-3,-4,-3,4
1558433746936108,-10,-10,-18,-6,-12,-5,-3,-8
1558433746950071,-6,0,3,-2,-5,-5,0,-1
1558433746950071,2,-2,-1,4,7,2,0,-1
1558433746957314,-8,-11,-2,-1,-2,-2,-1,-2
1558433746957314,7,9,4,1,-1,2,-1,1
1558433746973010,-4,-1,-1,-3,-1,-2,-1,1
1558433746973010,-1,-1,-4,-5,-5,-6,-5,-4
1558433746986973,3,3,3,0,-2,-1,1,-3
1558433746986973,0,0,-1,-3,2,1,-6,-2
1558433746996313,0,-2,-5,-1,-1,-2,3,1
1558433746996313,-2,0,-7,0,7,6,0,0
1558433746997946,0,1,4,3,7,5,3,1
1558433746997946,0,0,1,-3,-8,-5,-2,-1
1558433747010263,4,3,3,0,-4,-1,-2,3
1558433747010263,-3,-2,-1,-1,2,2,0,-1
1558433747017239,-1,2,-1,-1,-3,-2,-5,-8
1558433747017239,-4,-11,-4,-1,-2,-1,-1,-2
1558433747033226,-5,-5,-7,-5,-9,-6,-7,-3
1558433747033226,-1,3,-1,-3,-6,-6,2,2
1558433747040104,4,5,0,-1,1,-2,3,4
1558433747040104,3,-3,6,5,13,8,5,3
1558433747056151,2,3,2,0,3,2,-1,-1
1558433747056151,-11,-9,-4,-3,-9,-5,-3,-5
1558433747056786,-1,-3,-6,-4,-8,-6,-5,-5
1558433747056786,4,8,1,2,9,3,4,3
1558433747070945,0,-6,3,3,1,1,0,-1
1558433747070945,3,2,-4,1,1,0,-3,-3
1558433747077733,-6,-1,-4,-5,0,1,0,0
1558433747077733,-2,-7,-5,-5,-3,-2,-3,-3
1558433747093020,-1,7,3,-1,-2,-2,-3,-2
1558433747093020,-7,-3,-2,-1,-5,-4,-1,-1
1558433747099982,1,-3,-9,-2,-5,-3,-1,1
1558433747099982,0,3,3,0,0,1,0,-2
1558433747115923,-1,0,2,0,2,0,1,2
1558433747115923,1,0,1,1,-1,-2,-1,0
1558433747117628,-3,0,3,1,1,-2,-2,-1
1558433747117628,-1,-2,-12,-3,1,-3,-1,0
1558433747130869,9,7,6,-1,-2,-1,-2,-2
1558433747130869,-15,-20,-4,-1,-6,-5,-2,-4
1558433747137570,-2,1,-2,-2,-3,-1,-1,-2
1558433747137570,0,4,10,2,7,3,1,-1
1558433747152530,-1,-1,0,-1,-3,-2,1,-1
1558433747152530,5,5,-10,-3,-2,2,0,2
1558433747159562,1,4,2,4,6,3,-1,0
1558433747159562,-4,-6,2,1,-4,-4,-5,-3
1558433747175487,-2,4,-4,0,2,3,-2,1
1558433747175487,1,-1,1,-4,-4,-4,-1,-3
1558433747177462,-2,-4,0,-5,-13,-10,-5,-3
1558433747177462,-4,-5,-7,-4,-3,-1,-3,1
1558433747190743,-9,-10,-2,-1,2,4,-1,-7
1558433747190743,7,11,7,10,15,10,7,9
1558433747197721,3,2,0,0,5,3,1,0
1558433747197721,2,4,-2,0,-3,-4,-2,-2
1558433747212698,4,1,-2,-4,-10,-7,-2,0
1558433747212698,-10,-15,-6,-8,-9,-5,-4,-7
1558433747219351,1,3,2,1,2,4,3,2
1558433747219351,-3,-2,-2,-1,0,0,-1,-2
1558433747235309,1,2,-1,-1,-7,-5,-4,-4
1558433747235309,5,8,6,3,7,1,-1,0
1558433747237304,0,-7,-4,-1,2,1,-1,2
1558433747237304,-4,-1,0,-2,-2,1,1,-1
1558433747250587,-4,-4,-3,-1,4,3,1,-1
1558433747250587,-1,-4,-2,-2,-7,-6,-5,-4
1558433747257572,-5,-3,-1,-3,-3,-3,-2,-3
1558433747257572,8,7,2,2,-3,0,1,3
1558433747273291,-14,-11,-5,-2,-2,-4,-2,-2
1558433747273291,1,5,-10,-4,-1,1,-5,-9
1558433747288324,-1,-5,-1,-3,-8,-5,-1,-2
1558433747288324,-6,-11,0,6,14,3,7,4
1558433747295446,1,1,1,0,7,2,1,2
1558433747295446,9,2,-4,-3,-6,-4,0,2
1558433747296357,-11,2,2,-3,-5,-3,-5,-6
1558433747296357,-5,-5,-3,-3,-12,-4,-3,-3
1558433747311107,-8,-15,-11,-7,-8,-7,-8,-10
1558433747311107,4,6,11,3,11,7,7,6
1558433747317090,3,-1,-11,-1,-3,1,-1,0
1558433747317090,-2,1,1,-1,3,1,0,-1
1558433747333312,3,6,1,2,12,4,2,2
1558433747333312,-2,-3,-2,-4,-11,-3,-3,-2
1558433747340031,-3,0,-2,-2,-1,-4,-2,-1
1558433747340031,-2,-2,2,-2,-3,-2,-2,4
1558433747355255,1,2,-11,-3,-5,-1,-3,-8
1558433747355255,-2,-5,1,-3,0,-2,0,-1
1558433747355991,0,-6,-1,4,4,6,5,8
1558433747355991,4,4,1,2,4,2,-3,-3
1558433747370945,-7,-1,5,-1,-4,-3,0,2
1558433747370945,1,4,0,0,-2,-3,-1,0
1558433747376959,3,-3,-1,-2,-4,-5,-4,-3
1558433747376959,-1,0,-9,-7,-8,-4,-3,-2
1558433747393249,-2,-3,0,-3,-2,1,0,1
1558433747393249,-2,5,1,-1,4,0,1,1
1558433747400204,0,-5,4,-1,-2,-1,-2,-5
1558433747400204,1,-1,-3,4,7,8,4,2
1558433747417125,0,0,5,3,9,6,2,0
1558433747417125,-1,0,-2,0,-4,-3,-3,-3
1558433747417125,3,8,3,-2,-9,-9,-5,-1
1558433747417125,-8,-9,-1,-6,-12,-10,-5,-4
1558433747430789,-4,-5,-18,-2,-1,-1,-2,0
1558433747430789,8,9,11,7,11,7,5,3
1558433747437067,2,2,-3,1,8,5,3,3
1558433747437067,-5,-6,-3,-2,-9,-9,-7,-9
1558433747453723,4,-3,3,-3,-3,-2,-1,0
1558433747453723,-4,-4,-4,-1,-1,-1,-4,1
1558433747460039,0,2,-3,-1,-4,-3,-4,-1
1558433747460039,-2,-1,0,-3,-4,0,-2,-3
1558433747475847,1,2,3,3,3,1,0,1
1558433747475847,-7,-9,-5,-1,2,3,1,-1
1558433747475847,0,2,4,2,4,3,3,0
1558433747475847,-3,-11,-9,-4,-9,-6,-3,-2
1558433747490624,-1,3,3,-1,-7,-5,-4,-3
1558433747490624,-3,-6,-2,-3,-3,-1,-1,0
1558433747497609,-5,-5,-3,-4,-2,-1,-1,-1
1558433747497609,3,3,3,1,3,1,-1,-4
1558433747513567,1,-10,-7,-1,-1,0,3,1
1558433747513567,2,4,2,0,-6,-4,-4,-2
1558433747519547,-3,-4,-2,-1,0,1,-3,-2
1558433747519547,-3,1,2,0,0,1,-1,-2
1558433747534806,-1,-3,-1,1,3,1,-2,2
1558433747534806,0,0,2,-3,-4,-4,0,-3
1558433747535507,-1,-1,-4,-2,-1,-2,-2,-4
1558433747535507,2,2,-1,0,1,0,3,2
1558433747550751,-1,2,2,2,5,5,4,3
1558433747550751,-2,0,-4,-1,-4,-1,-1,0
1558433747557672,-5,-3,-2,1,-2,-1,-2,-4
1558433747557672,0,0,-1,0,5,0,-1,1
1558433747573408,-1,0,1,-3,-10,-9,-4,-1
1558433747573408,-3,-1,-2,-7,-12,-8,-3,-4
1558433747579388,-1,-5,-1,0,3,2,1,-4
1558433747579388,8,14,3,4,15,10,4,4
1558433747595692,-9,-13,0,0,-3,-1,-2,-3
1558433747595692,-4,-4,-2,0,0,-5,-2,1
1558433747595692,-4,-1,5,-5,-12,-7,-4,-3
1558433747595692,3,-6,-14,-3,4,4,2,1
1558433747619280,-7,-2,6,4,6,5,3,1
1558433747619280,1,2,-2,-2,-4,-4,-4,-2
1558433747619280,1,0,5,-1,-4,-4,-2,0
1558433747619280,-1,-1,-10,-4,-3,-8,-5,-6
1558433747633404,6,6,9,-1,-7,-2,1,0
1558433747633404,-5,-7,-6,-2,3,3,1,-4
1558433747639263,-1,0,-3,0,14,7,6,5
1558433747639263,2,-2,4,-2,-7,-4,-5,-3
1558433747655183,-7,-4,-6,-2,-3,-3,-2,-1
1558433747655183,-5,-5,-1,2,2,0,-4,-3
1558433747656181,4,4,-1,2,2,2,-2,-1
1558433747656181,2,1,-2,-1,0,-1,0,1
1558433747677126,-3,-4,1,-1,-5,0,-2,1
1558433747677126,2,6,-2,-3,-1,-5,-3,-5
1558433747678123,-1,-6,-1,0,0,-2,1,2
1558433747678123,-11,-6,-2,-2,-7,-4,-1,-1
1558433747693413,5,2,3,0,-3,-2,-2,-1
1558433747693413,-1,-1,-8,-1,4,5,3,2
1558433747700211,5,4,-4,-3,1,-5,-3,-1
1558433747700211,-9,-7,2,0,-4,0,1,-1
1558433747715358,3,-1,-9,0,4,1,-1,0
1558433747715358,-3,-4,6,-2,-9,-4,-4,0
1558433747722431,3,3,3,-1,-2,-1,-3,2
1558433747722431,1,4,-2,1,6,3,2,0
1558433747738431,1,3,-4,-2,0,-1,-3,-6
1558433747738431,-1,-5,-3,-1,1,2,0,-1
1558433747738431,-1,-4,-3,-5,-11,-8,-1,1
1558433747738431,1,1,1,-4,-10,-6,-5,-1
1558433747752922,5,3,-4,1,4,1,2,2
1558433747752922,-5,-3,3,4,10,7,0,-2
1558433747760240,5,0,-5,-1,-4,0,-2,-1
1558433747760240,-16,-9,3,1,3,1,2,-2
1558433747775052,6,9,-1,-5,-4,-5,-3,-1
1558433747775052,-1,-14,-10,-3,-7,-6,-2,-1
1558433747781845,-4,-1,1,4,8,6,2,-4
1558433747781845,7,6,3,0,-2,2,-3,-2
1558433747797803,-3,1,-1,-1,-4,-4,-1,0
1558433747797803,1,3,12,0,-3,-1,1,4
1558433747797803,-3,-10,-12,-5,-1,3,1,3
1558433747797803,0,-3,-4,-4,-2,-3,-3,-6
1558433747812797,-2,2,5,0,-2,-1,0,-1
1558433747812797,3,-1,-6,-2,-5,-8,-2,-3
1558433747819745,0,3,4,-1,-5,-7,-1,-1
1558433747819745,-6,-1,-3,0,-2,3,0,2
1558433747834810,-1,-16,-7,0,3,4,-1,-3
1558433747834810,-8,0,3,-1,8,5,0,-1
1558433747841687,-1,1,-3,0,-5,0,0,-2
1558433747841687,4,3,0,-1,-1,-2,-4,1
1558433747857984,3,6,-1,-2,-3,-6,-4,0
1558433747857984,-6,-9,-1,2,-1,-2,1,2
1558433747858984,-4,-1,1,0,2,0,1,0
1558433747858984,5,4,4,0,2,2,-1,-1
1558433747873604,-5,-12,-1,0,-3,1,-1,-3
1558433747873604,8,4,-4,-3,-4,-3,-2,2
1558433747879585,-12,-2,-4,-1,-4,-2,-4,-6
1558433747879585,2,1,4,-2,-4,-4,-2,-1
1558433747894545,5,9,1,1,4,3,2,1
1558433747894545,-3,-5,-6,-3,-2,-2,0,-2
1558433747901643,0,-5,-1,0,1,-3,-3,2
1558433747901643,1,0,1,-4,-7,-4,-1,1
1558433747918483,-3,-5,-3,0,3,-2,-1,-2
1558433747918483,-5,-6,-4,1,5,2,-1,-3
1558433747920621,3,3,4,2,3,0,0,1
1558433747920621,3,2,-8,-2,-4,-4,-2,1
1558433747933441,-6,-7,5,0,0,-2,0,1
1558433747933441,3,4,7,2,-4,-2,-2,-3
1558433747939830,-2,-6,-11,-1,7,5,1,-3
1558433747939830,4,8,-2,1,1,-1,10,4
1558433747954836,0,-4,4,-6,-4,-2,3,1
1558433747954836,-1,-1,-18,-6,-10,-7,-2,-5
1558433747962704,-6,-5,2,1,-3,0,-1,-3
1558433747962704,4,-1,1,2,5,5,-1,-1
1558433747977656,2,5,-7,-1,-2,-3,-3,-2
1558433747977656,-3,-3,1,-4,-4,-4,-4,0
1558433747978323,1,1,2,-3,-6,-2,-3,1
1558433747978323,-8,-9,-7,0,6,3,-1,-2
1558433747993281,4,3,3,2,-2,-4,-4,1
1558433747993281,3,2,4,4,7,5,-1,-1
1558433747999592,0,0,-3,-1,-3,0,-1,-1
1558433747999592,1,3,4,-1,-2,-1,1,0
1558433748014563,-1,-1,-1,-1,-3,-2,-4,-3
1558433748014563,-7,-11,-2,-2,-6,-3,-2,-3
1558433748022540,6,2,-7,0,5,2,0,0
1558433748022540,-9,-7,-4,-2,-2,-1,0,-1
1558433748038206,2,2,2,-1,0,1,0,-3
1558433748038206,2,13,6,2,-4,-3,1,5
1558433748038206,-1,-3,-2,-1,-4,-3,0,-1
1558433748038206,-1,-12,-3,-1,3,-3,-3,-3
1558433748053119,-7,-6,-9,0,-3,-1,-1,2
1558433748053119,1,-2,3,1,6,5,0,0
1558433748060209,0,5,5,0,-3,0,1,0
1558433748060209,-1,3,-4,-7,-12,-9,-7,-2
1558433748074174,-3,-5,1,-2,3,1,-2,-2
1558433748074174,4,5,6,6,13,10,3,0
1558433748082361,-1,-5,-6,-3,2,-1,-1,4
1558433748082361,-10,-5,0,1,-8,-6,-3,-8
1558433748098335,-2,1,1,-2,-1,0,-1,-4
1558433748098335,2,-4,-15,-5,-1,-3,-1,0
1558433748098335,-2,0,9,-2,-5,-3,-5,-4
1558433748098335,3,1,1,2,7,3,1,2
1558433748113258,0,1,-2,-3,-7,-4,-2,0
1558433748113258,-5,-6,-3,-3,-1,0,-2,-1
1558433748118946,1,1,-3,1,-2,-3,-2,-1
1558433748118946,0,3,1,2,-2,-2,-4,-4
1558433748134203,-3,-6,-7,2,3,3,2,3
1558433748134203,-1,5,8,1,-3,-3,-1,-1
1558433748141885,-4,-7,-3,-4,2,1,-1,-2
1558433748141885,3,-1,7,0,-1,1,0,0
1558433748157928,-12,-5,-13,-1,2,1,-2,-1
1558433748157928,3,3,-2,-1,-2,-1,2,-2
1558433748158898,0,-1,3,1,2,1,3,1
1558433748158898,-3,-4,-2,-1,0,-3,-6,-8
1558433748172802,8,7,6,-4,-6,-5,-3,0
1558433748172802,-13,-22,-15,-5,-12,-5,0,0
1558433748180087,2,3,-1,2,5,3,1,3
1558433748180087,-2,-4,-2,0,1,1,3,-1
1558433748194743,3,5,3,-2,-1,1,0,1
1558433748194743,4,4,0,3,4,0,-4,-4
1558433748201723,-6,-6,2,-2,-6,-5,-2,-3
1558433748201723,-5,-5,-12,-4,-5,-4,-5,3
1558433748217988,-1,-3,1,0,-4,-1,-1,-2
1558433748217988,1,6,-2,-1,-1,2,0,-1
1558433748218681,5,-2,2,4,5,2,4,2
1558433748218681,0,3,3,0,3,1,0,3
1558433748233639,-3,-6,-5,-3,-1,-2,1,-1
1558433748233639,1,2,6,-4,-3,-3,-2,0
1558433748239926,-1,3,-7,-2,-2,-1,-4,-7
1558433748239926,-3,3,-1,-3,-8,-8,-4,-4
1558433748254880,2,0,1,0,-7,-2,2,0
1558433748254880,-6,-7,1,0,10,6,1,-2
1558433748262560,-1,0,-1,2,0,-1,-1,-2
1558433748262560,-1,0,0,0,-3,1,2,0
1558433748277819,2,8,12,1,3,-2,-4,-1
1558433748277819,-1,-4,-12,-6,-5,-4,-1,-3
1558433748278757,-3,1,3,-3,-4,-5,-4,-4
1558433748278757,-2,-5,-8,0,3,4,0,0
1558433748293483,4,1,0,2,0,0,3,-1
1558433748293483,-3,-2,4,2,-6,-4,0,2
1558433748299754,-9,2,-4,-2,6,5,3,-3
1558433748299754,2,-3,-1,0,2,3,2,3
1558433748315744,-5,-4,-5,-3,-2,-6,-5,-3
1558433748315744,2,3,4,-1,-5,-4,-5,-5
1558433748322611,1,-3,-8,-5,-11,-9,-3,0
1558433748322611,3,6,9,-3,-3,0,-2,-3
1558433748338576,-5,-12,-11,-1,1,2,1,1
1558433748338576,-8,-12,-7,-2,4,0,1,0
1558433748344615,0,1,10,-1,3,2,0,1
1558433748344615,0,0,-10,-1,0,0,1,1
1558433748353319,3,5,3,-1,0,0,-2,-2
1558433748353319,8,7,4,-2,-5,-4,-1,1
1558433748367555,-3,-13,-4,2,-1,1,0,0
1558433748367555,-3,-2,-1,-4,0,-1,-1,-1
1558433748374264,1,3,-2,1,-3,1,-1,-2
1558433748374264,6,9,6,1,7,5,2,2
1558433748382523,-6,-14,-5,-1,-4,-3,-2,-3
1558433748382523,-6,-1,-1,0,-2,-3,-1,-2
1558433748399222,0,1,3,-3,-3,-6,-1,3
1558433748399222,0,0,-5,1,-2,-2,-4,-6
1558433748399222,2,6,2,1,1,1,-1,-1
1558433748399222,2,-3,1,-2,0,0,0,0
1558433748421565,2,4,-9,-3,-4,-2,-1,-1
1558433748421565,-5,-8,-3,-2,-4,-2,0,0
1558433748421565,2,2,2,1,6,4,3,2
1558433748421565,2,2,2,0,1,-2,-3,-2
1558433748434102,-7,2,2,4,5,6,3,2
1558433748434102,3,2,4,0,-6,-6,-4,-1
1558433748442290,-11,-10,-12,-6,-13,-8,-6,-4
1558433748442290,3,3,5,2,4,3,4,4
1558433748457414,0,-3,6,-1,6,2,-1,0
1558433748457414,-4,-3,-8,-4,1,-2,-2,-3
1558433748458038,0,2,0,-2,-8,-2,-1,-1
1558433748458038,-2,-5,-4,-2,-10,-7,0,0
1558433748473337,-4,-6,-3,2,4,2,0,-1
1558433748473337,2,8,3,5,10,6,-1,-3
1558433748480192,4,2,-2,0,3,2,1,2
1558433748480192,-4,-7,-3,0,0,-2,-1,-4
1558433748495012,0,-5,-2,-6,-13,-8,-4,-3
1558433748495012,-7,-10,1,-5,-9,-7,-2,-2
1558433748501921,-5,3,-7,-1,0,-4,-4,-3
1558433748501921,2,2,4,3,9,8,4,3
1558433748517916,-2,-4,-5,0,8,3,1,-2
1558433748517916,3,3,-5,-1,1,-1,-1,2
1558433748517916,-12,-10,-5,-4,-8,-7,-3,-4
1558433748517916,2,-1,1,-3,-7,-3,-2,-3
1558433748533061,3,10,4,-2,-3,0,-3,-3
1558433748533061,-9,-13,-1,3,7,7,4,5
1558433748540031,0,-2,-4,-3,3,2,-2,-2
1558433748540031,-1,1,0,-1,-1,-2,-3,-1
1558433748554778,0,-1,2,1,-1,-3,-1,1
1558433748554778,1,6,-4,-2,-5,-4,-1,-2
1558433748561980,3,1,7,0,-3,-1,2,2
1558433748561980,-4,-3,-4,-3,-1,0,-1,-4
1558433748577929,-3,-8,-3,-3,-3,-2,-2,0
1558433748577929,-4,0,-2,-4,-9,-5,-2,-3
1558433748578717,2,1,-4,0,1,0,-1,1
1558433748578717,1,1,-2,2,12,7,0,-2
1558433748593675,0,2,-2,-1,-1,0,-1,-1
1558433748593675,-4,-7,0,-2,1,0,0,-1
1558433748599658,4,8,9,2,-6,-5,-5,-2
1558433748599658,-6,-5,1,-1,0,-2,-1,-1
1558433748622932,-4,-9,-15,-1,2,2,-2,-4
1558433748622932,2,6,5,1,-2,-2,-2,1
1558433748623856,4,1,0,-3,3,-1,-2,-4
1558433748623856,-2,1,0,-1,-8,-5,0,0
1558433748636559,-1,-1,-3,-3,-6,-7,-3,-2
1558433748636559,0,0,3,0,-3,0,2,1
1558433748644877,5,5,3,0,6,5,5,5
1558433748644877,-5,-11,-3,-1,-6,-4,-4,-1
1558433748653519,-8,-6,1,2,2,2,1,-3
1558433748653519,-5,-6,-2,-1,5,1,1,2
1558433748659829,-1,2,-5,-3,-9,-9,-4,-4
1558433748659829,2,0,-3,-3,-5,-2,-2,0
1558433748674792,1,-2,1,1,2,1,0,0
1558433748674792,1,2,3,0,0,-1,-2,-3
1558433748681446,-4,-7,-2,-2,-2,0,-3,0
1558433748681446,3,4,-1,1,8,3,-1,0
1558433748696399,-7,-3,-5,-1,-4,-3,-1,0
1558433748696399,5,4,-2,-1,-2,1,-1,-3
1558433748704377,5,4,-1,2,3,2,3,5
1558433748704377,-10,-3,5,-1,-6,-3,-3,-4
1558433748713354,7,6,7,2,5,2,2,5
1558433748713354,-4,-8,-9,-5,-7,-7,-3,-2
1558433748719338,0,4,0,1,2,4,-2,-2
1558433748719338,2,1,2,4,11,7,1,3
1558433748734913,-1,4,-1,1,2,3,2,1
1558433748734913,-4,-2,-4,-1,-3,-7,-1,1
1558433748742201,-6,-6,0,-7,-8,-6,-3,-5
1558433748742201,-3,-5,-7,-4,-5,-5,-2,0
1558433748757154,0,0,-2,-2,-6,-7,-5,-4
1558433748757154,6,12,10,0,-3,0,-3,-1
1558433748765172,-2,-9,-3,-2,0,0,-1,-1
1558433748765172,-2,-1,0,2,11,9,7,4
1558433748773680,-4,-5,-5,-4,-2,-1,-4,-4
1558433748773680,3,0,2,-1,-5,-3,-2,-2
1558433748779663,2,-1,-6,-1,0,-4,-2,-3
1558433748779663,-2,0,-6,-4,-4,-3,0,1
1558433748795088,0,-1,3,-2,-4,-1,-2,0
1558433748795088,1,3,2,-1,-1,0,-1,4
1558433748801605,1,-1,-8,-1,0,1,0,-4
1558433748801605,8,-1,-1,1,7,4,2,0
1558433748817777,-10,-1,5,1,-2,-1,-2,-3
1558433748817777,3,0,-5,-1,2,0,2,2
1558433748824714,-1,4,4,-3,-8,-7,-4,-6
1558433748824714,-8,-10,-4,-4,-13,-11,-5,-2
1558433748839855,3,-4,-3,0,6,3,3,3
1558433748839855,-5,-5,-7,-2,-2,2,-3,-6
1558433748847834,-1,-4,3,2,2,1,0,1
1558433748847834,4,8,1,-1,1,3,2,-1
1558433748854849,-5,-7,1,1,10,6,-1,-1
1558433748854849,-5,-2,-7,-3,-5,-5,-2,-1
1558433748862587,0,-2,5,2,4,4,3,4
1558433748862587,-1,-1,0,-3,-8,-4,-6,-6
1558433748877140,0,1,-8,-4,-6,-3,1,2
1558433748877140,1,-1,0,0,4,4,-1,-4
1558433748884138,-13,-9,-1,-1,-2,-4,-1,-3
1558433748884138,-3,-9,-6,-3,-4,-2,2,1
1558433748899970,7,6,7,-1,-3,-3,-4,-1
1558433748899970,1,0,-10,-1,-2,-6,-3,-4
1558433748900735,-12,-1,-3,-3,-8,-5,-5,-5
1558433748900735,1,5,1,1,6,4,0,1
1558433748914925,1,-4,3,3,10,6,1,-1
1558433748914925,-5,-2,4,2,3,4,2,1
1558433748921681,3,1,0,-3,-7,-5,-3,1
1558433748921681,-2,2,-4,-3,-9,-6,-5,-4
1558433748936633,3,4,2,-2,-2,-2,1,0
1558433748936633,-7,-4,0,-1,1,0,-2,-1
1558433748944611,4,11,4,-1,3,-1,1,1
1558433748944611,-2,-2,1,-3,-8,-5,-1,4
1558433748959598,-2,-7,-6,0,0,0,-1,-5
1558433748959598,-1,-3,-1,1,4,5,1,1
1558433748960570,0,0,-2,-1,-3,-2,-2,-3
1558433748960570,-5,0,1,-1,-7,-6,-2,2
1558433748974533,0,-1,-2,-4,-8,-4,-3,0
1558433748974533,1,5,3,3,9,6,4,0
1558433748981516,-9,-18,-3,-2,1,0,1,2
1558433748981516,5,3,-3,1,4,0,-4,-7
1558433748997763,1,7,3,3,4,1,4,2
1558433748997763,-1,-7,0,-4,-7,-6,-3,1
1558433749004451,0,1,-2,3,3,2,2,1
1558433749004451,-3,-2,-3,0,-3,-2,-2,-2
1558433749020408,-4,-4,4,-2,-7,-3,-3,-1
1558433749020408,2,-1,-11,-4,-3,-1,-3,0
1558433749020408,3,4,1,-3,2,0,-1,3
1558433749020408,-10,-4,-4,-1,0,-2,-3,-7
1558433749034770,-2,-1,-3,-1,-3,-3,-2,-2
1558433749034770,1,-4,2,-1,1,-3,0,1
1558433749042807,4,-3,1,-2,-2,1,1,2
1558433749042807,0,2,1,1,2,-1,0,0
1558433749057309,3,5,-4,3,8,3,0,2
1558433749057309,2,5,11,-3,-6,-2,-2,-2
1558433749064637,-7,-5,-8,0,2,3,-3,-9
1558433749064637,2,-1,-10,-4,-8,-5,-2,1
1558433749080249,-2,-4,-4,-6,-10,-9,-4,-4
1558433749080249,3,2,-1,1,-1,-3,-1,1
1558433749080249,3,5,1,1,5,4,2,2
1558433749080249,2,6,8,2,4,-1,1,1
1558433749094213,-8,-8,-4,-2,-2,-4,-2,-1
1558433749094213,-2,0,-2,-1,-2,-1,0,-7
1558433749102199,1,-9,-7,-2,0,1,-2,1
1558433749102199,-3,-4,-1,0,2,1,1,0
1558433749117408,4,4,1,1,-3,-1,0,-2
1558433749117408,-2,1,5,-2,-5,-7,-3,-2
1558433749124376,-2,1,-5,-2,-5,-2,-4,-3
1558433749124376,6,-4,-1,-1,6,6,0,2
1558433749140341,-4,-4,-2,-2,1,-2,-2,0
1558433749140341,3,-3,-1,2,0,-2,1,0
1558433749141086,-18,-14,-1,-1,-6,-3,-1,-5
1558433749141086,2,0,2,-1,2,1,0,-2
1558433749154203,-3,-1,-8,-5,-9,-8,-4,-4
1558433749154203,3,3,-1,0,-1,3,2,2
1558433749162175,-1,-2,0,-1,-3,-3,1,5
1558433749162175,-2,2,5,1,2,1,0,-1
1558433749177136,1,-2,1,1,4,6,0,-1
1558433749177136,-9,-3,-1,0,4,-3,-4,-4
1558433749183972,-1,-4,-3,-4,-3,-3,-2,-2
1558433749183972,-4,-3,0,-1,-3,-1,0,1
1558433749200214,-1,-1,0,-2,-5,-4,-4,-5
1558433749200214,1,0,-2,-6,-7,-2,0,1
1558433749200925,9,10,6,5,13,9,4,5
1558433749200925,0,-2,2,-2,2,-3,-2,2
1558433749215887,1,-2,0,1,-11,-7,-6,-7
1558433749215887,-18,-4,-10,-6,-2,-1,-3,-4
1558433749221891,-2,-6,-2,-1,-9,-3,-3,-3
1558433749221891,-1,-4,-4,-2,-3,-5,-1,1
1558433749236836,1,6,5,0,6,5,5,1
1558433749236836,4,2,0,2,6,5,0,-1
1558433749243812,2,6,1,2,5,2,0,2
1558433749243812,-5,-5,-9,-5,-8,-5,-5,-4
1558433749259770,5,9,9,-3,-3,-3,-3,2
1558433749259770,0,-4,-8,1,2,1,3,0
1558433749260765,-8,-3,-2,0,0,0,-1,-2
1558433749260765,1,0,1,2,-2,-3,-3,0
1558433749275726,-7,-9,-10,-5,-7,-6,-2,-2
1558433749275726,2,-1,0,0,2,1,-3,0
1558433749281712,8,5,1,1,-1,-3,1,2
1558433749281712,-5,-6,1,-2,-6,-1,0,-2
1558433749304650,-7,-1,-1,1,8,7,4,2
1558433749304650,-5,-12,-5,-3,-5,-4,-3,-3
1558433749305647,3,5,1,-1,0,-1,2,-1
1558433749305647,0,5,0,0,2,2,0,-4
1558433749319608,1,-1,-4,0,1,-3,-3,-1
1558433749319608,4,0,4,0,-2,-2,2,3
1558433749320606,-4,0,5,-1,-3,-2,1,-2
1558433749320606,4,3,2,-3,-2,-1,1,-2
1558433749335573,-4,-3,-2,-3,-2,-2,-2,-3
1558433749335573,0,-2,1,0,0,-2,-1,0
1558433749341551,4,2,4,0,-2,0,0,0
1558433749341551,0,4,-1,2,3,1,-1,-1
1558433749356511,-8,-9,-6,-1,0,4,-1,-4
1558433749356511,5,6,-10,-2,-2,-3,0,1
1558433749364490,-8,-6,2,-7,-9,-4,-6,-7
1558433749364490,0,-1,0,-3,-11,-9,-4,-1
1558433749379477,-1,4,-1,3,1,3,2,1
1558433749379477,-5,-4,-2,4,15,12,5,1
1558433749380446,0,-8,-7,1,-1,-5,-3,-4
1558433749380446,-4,-2,-5,-6,-8,-6,-1,-1
1558433749395423,4,-2,-4,-2,-4,-7,-6,-3
1558433749395423,-1,2,6,1,-4,-1,-1,-1
1558433749401390,-3,1,-4,-2,2,0,0,-1
1558433749401390,-3,-2,0,-1,1,3,-1,1
1558433749416350,-3,-3,-1,-5,-9,-6,-5,-1
1558433749416350,2,-1,3,0,1,1,2,1
1558433749424581,0,-1,-1,2,9,5,0,-3
1558433749424581,6,3,0,4,3,4,5,2
1558433749440287,2,4,0,3,9,7,3,1
1558433749440287,-8,-6,-11,-11,-21,-14,-11,-9
1558433749440287,0,-6,-2,-4,-15,-12,-8,0
1558433749440287,6,7,1,7,24,14,7,2
1558433749455245,0,4,4,4,3,3,2,4
1558433749455245,-1,0,1,-1,1,0,-1,-2
1558433749462252,-1,1,-2,0,-3,-2,0,1
1558433749462252,-4,-4,-5,-3,-6,-3,-2,-2
1558433749477187,6,7,3,0,-4,-5,3,0
1558433749477187,-1,4,6,-1,-1,0,-2,-2
1558433749484228,-2,-5,3,2,6,3,0,-1
1558433749484228,-3,-8,-10,-3,-2,1,-4,0
1558433749500132,1,0,0,0,6,2,1,3
1558433749500132,7,3,0,-1,-2,-2,3,0
1558433749500132,-7,7,1,-3,-2,-3,-1,0
1558433749500132,-9,-17,-12,-5,-11,-7,-6,-6
1558433749516260,-2,-3,1,-1,1,2,0,2
1558433749516260,7,2,-3,-2,1,-2,-2,0
1558433749522251,-3,1,1,-4,-9,-7,-5,-3
1558433749522251,2,0,-7,-6,-13,-6,-2,-2
1558433749537026,-3,-6,1,1,5,6,4,1
1558433749537026,-3,-4,0,5,14,12,5,3
1558433749544217,5,4,-1,-3,-8,-5,-2,-2
1558433749544217,-2,1,2,1,-1,-3,-1,2
1558433749558970,1,1,6,-4,-4,-3,-7,-6
1558433749558970,0,5,-6,3,1,0,1,3
1558433749567124,-3,-14,-3,3,9,7,2,0
1558433749567124,1,5,3,-5,-13,-14,-6,-4
1558433749575923,-3,-6,-7,-1,-6,-9,-4,-1
1558433749575923,-1,2,11,1,4,6,2,2
1558433749582201,2,1,-3,-5,-12,-5,0,2
1558433749582201,-5,-3,5,5,15,11,2,-1
1558433749596867,7,1,-3,6,10,5,2,3
1558433749596867,-14,-5,-4,-1,-7,-3,-4,-8
1558433749603849,0,-5,-6,-4,-3,-3,-3,-1
1558433749603849,4,1,2,0,1,3,4,2
1558433749619059,-1,0,2,-1,-6,-4,-4,0
1558433749619059,2,3,-3,-3,-4,-5,-3,-1
1558433749627029,-3,-9,-6,-3,1,1,-2,-5
1558433749627029,1,1,3,-1,-1,-7,-4,-5
1558433749635970,-1,0,-2,-3,-8,-8,-1,-2
1558433749635970,5,-3,4,1,3,1,1,2
1558433749641955,0,5,-6,-3,0,3,1,0
1558433749641955,0,5,3,-1,-4,-1,-4,-1
1558433749657066,-3,-10,-6,-1,1,1,1,-1
1558433749657066,-6,-7,3,-1,-6,-7,-5,-3
1558433749664049,-1,2,1,1,-1,-3,1,-1
1558433749664049,2,5,6,5,12,13,5,6
1558433749678857,-2,-1,-9,-6,-8,-2,-2,1
1558433749678857,-7,-9,-7,-3,-8,-4,-3,-4
1558433749686833,1,0,3,2,12,6,0,0
1558433749686833,1,7,-3,0,-3,-4,-2,-2
1558433749695812,1,-4,4,-6,-5,-2,0,3
1558433749695812,-6,-10,-8,-4,-5,-6,-3,1
1558433749701797,6,6,0,0,-1,-4,-2,1
1558433749701797,-7,-11,-3,-4,-2,-2,-3,-6
1558433749716757,-1,0,-1,-5,-9,-5,-3,-5
1558433749716757,14,6,2,4,9,2,1,3
1558433749723737,-10,-1,-2,3,3,1,3,1
1558433749723737,-3,-2,2,-1,-1,1,0,-1
1558433749739714,0,-1,0,2,0,-1,-2,-3
1558433749739714,-7,-6,-1,-4,-10,-4,-6,-5
1558433749746672,3,0,-10,-2,-3,-1,0,0
1558433749746672,0,0,0,-1,1,4,0,0
1558433749762669,-2,-8,-3,0,4,3,2,1
1558433749762669,-2,3,7,5,4,-2,-1,-3
1558433749771941,-1,-3,0,-1,-3,-3,-4,-3
1558433749771941,-6,-7,-8,-5,-8,-8,-4,1
1558433749776594,6,10,3,-1,-1,0,-4,-1
1558433749776594,-6,-5,-3,-2,5,4,-1,0
1558433749784572,-3,-4,0,-2,-11,-6,-6,-7
1558433749784572,1,-4,0,-1,-5,-5,-1,-2
1558433749799533,-2,-2,2,6,10,11,7,1
1558433749799533,2,1,0,-3,-3,-3,1,-1
1558433749806513,-6,-6,-13,-3,-3,-1,-1,0
1558433749806513,2,5,8,1,6,5,-1,-2
1558433749822470,-7,-7,-5,-3,-8,-10,-4,-4
1558433749822470,3,4,-4,-3,-2,2,0,-1
1558433749823468,6,3,3,-1,6,9,6,4
1558433749823468,1,-9,-2,4,6,2,3,1
1558433749836470,-5,2,1,1,-1,-3,-2,-2
1558433749836470,-1,-3,-3,-2,-11,-7,-2,-3
1558433749844412,-3,-5,1,-2,-4,-4,-2,1
1558433749844412,7,9,3,0,6,1,3,4
1558433749860370,-7,-6,-7,-6,-5,-6,-6,-5
1558433749860370,5,1,3,-2,-3,0,0,4
1558433749866545,4,7,7,7,17,13,7,4
1558433749866545,-9,-13,1,-3,-8,-7,-3,-3
1558433749882311,-1,-1,-15,-4,1,-3,-5,-2
1558433749882311,-1,0,3,-3,-4,-4,-4,-2
1558433749883309,1,5,7,-2,-5,-1,3,0
1558433749883309,2,-2,-11,2,6,2,2,1
1558433749897280,-5,-1,5,-2,-4,1,-3,-1
1558433749897280,-2,-4,-2,0,2,3,4,-1
1558433749904472,2,7,5,-2,-2,-5,-5,-1
1558433749904472,-1,-2,-11,-6,-12,-7,-5,-6
1558433749919212,-10,-18,0,5,6,3,6,1
1558433749919212,-6,-6,-2,-2,-1,1,-2,-1
1558433749927192,4,5,6,1,1,-5,-1,0
1558433749927192,-13,-10,-8,-3,2,4,-1,0
1558433749942160,-1,6,11,-3,-6,-6,-3,-1
1558433749942160,-1,3,-2,0,-5,-2,-1,-1
1558433749943147,-1,-3,2,1,1,-2,0,1
1558433749943147,3,3,1,-1,0,1,-6,-2
1558433749957346,-4,-1,-3,3,4,0,1,-4
1558433749957346,1,3,1,4,7,2,0,0
1558433749964286,-7,-12,-6,-7,-10,-2,-1,-2
1558433749964286,2,2,1,-3,-8,-2,-2,-1
1558433749979051,5,8,9,3,3,0,1,3
1558433749979051,1,-2,-12,-3,0,2,-1,-2
1558433749987032,-1,-4,-6,-2,-3,-4,-3,-3
1558433749987032,0,3,6,2,3,-4,3,-3
1558433750002244,-1,-3,-4,-6,-16,-8,-7,-4
1558433750002244,-1,3,-1,2,0,-2,-2,-1
1558433750003241,5,4,5,5,14,12,5,2
1558433750003241,-7,-12,-5,-2,-9,-7,-5,-2
1558433750017351,8,9,3,1,4,4,6,2
1558433750017351,-2,-6,1,-1,-2,-5,-4,-2
1558433750024184,-1,1,-4,0,-3,-4,2,1
1558433750024184,1,6,5,5,10,3,0,-3
1558433750039148,-4,-2,-1,-1,2,5,0,0
1558433750039148,4,-4,-9,-5,-9,-5,-7,-3
1558433750047344,-3,-5,-4,-5,-10,-7,-5,-6
1558433750047344,-1,2,3,-2,-8,-5,1,3
1558433750062378,3,2,-2,1,7,3,0,4
1558433750062378,-2,-1,6,0,10,9,5,1
1558433750063081,1,4,-1,0,-6,-3,-6,0
1558433750063081,2,-1,-3,-1,-2,-6,-1,-3
1558433750077265,-2,-6,-14,-4,-8,-4,-3,-4
1558433750077265,2,7,14,3,-2,1,1,4
1558433750084246,-3,-2,-7,0,9,6,4,0
1558433750084246,-2,3,1,-1,4,6,3,0
1558433750107254,5,-4,6,1,-3,-3,-4,-2
1558433750107254,-9,-8,-3,-1,-5,-10,0,-2
1558433750107961,-1,2,-4,-2,-5,-6,-5,-3
1558433750107961,-1,-1,-2,-2,-4,-4,-4,-1
1558433750122922,-1,-2,-5,-1,3,5,4,-2
1558433750122922,-1,-6,-4,-2,6,4,-2,-1
1558433750122922,-1,-3,-2,0,-3,-3,-1,-2
1558433750122922,3,5,6,-1,0,5,-2,0
1558433750137996,-4,-7,-11,-2,-2,-2,2,3
1558433750137996,-5,-2,-6,-3,-12,-11,-7,-5
1558433750143864,2,4,5,3,12,14,7,2
1558433750143864,-2,-6,0,1,9,3,1,0
1558433750158825,3,5,-5,-1,-1,-5,-3,-1
1558433750158825,-3,0,0,-3,-7,1,-3,-1
1558433750166970,-3,-6,-8,-4,-4,-7,-4,-3
1558433750166970,7,4,-1,-1,-6,-12,-2,3
1558433750182760,4,9,9,6,13,4,5,5
1558433750182760,-5,-4,-8,-2,-3,0,-2,-9
1558433750182760,-6,-7,0,-3,-7,-4,-6,-6
1558433750182760,-2,-1,3,-1,-9,-3,-2,-2
1558433750196722,4,8,-2,0,-2,-5,-4,-1
1558433750196722,0,-3,7,1,7,7,6,4
1558433750204837,-7,-7,-11,-2,0,-1,-2,-2
1558433750204837,-5,-6,-8,-4,-9,-6,-5,-5
1558433750219663,-3,-7,1,-4,-10,-7,-3,-3
1558433750219663,10,12,2,2,6,0,1,7
1558433750226642,-12,-10,6,3,9,10,3,-2
1558433750226642,2,2,-6,2,8,6,4,2
1558433750242601,-4,-2,-3,-5,-11,-9,-5,-2
1558433750242601,-3,-4,4,0,-1,-2,2,0
1558433750242601,6,3,0,-1,-3,-8,-5,2
1558433750242601,-7,-4,-11,-4,-4,6,0,-1
1558433750256761,-1,0,5,-3,-3,-2,-2,-4
1558433750256761,2,0,-5,-1,-4,-6,-1,4
1558433750264541,2,-2,0,0,-3,-5,-3,-1
1558433750264541,-5,3,1,1,7,7,1,-2
1558433750279702,-1,-7,1,-3,-5,-5,-2,-1
1558433750279702,-6,-2,-4,-3,-5,-6,-4,0
1558433750286484,3,5,2,1,-1,3,1,0
1558433750286484,4,6,-1,0,1,-5,-3,0
1558433750310453,-4,-5,-4,0,9,8,2,0
1558433750310453,-3,-5,-4,1,-2,-2,-1,-2
1558433750311416,-3,-2,-1,-1,-2,4,1,0
1558433750311416,1,4,6,2,4,3,2,1
1558433750316405,1,2,-6,-1,-7,-6,-7,-5
1558433750316405,-6,-7,-6,-3,1,-3,-1,-1
1558433750324574,0,-3,-1,-2,-8,-3,-2,1
1558433750324574,-1,-5,-1,-1,0,-2,2,0
1558433750339341,5,5,2,0,1,2,-1,-2
1558433750339341,-8,-10,-10,-5,-7,-3,-5,-6
1558433750346325,-9,-5,5,1,1,-5,-5,-2
1558433750346325,-5,-13,-9,-2,-6,-7,-4,-1
1558433750362280,-3,-3,9,2,11,9,4,1
1558433750362280,3,9,2,-2,-4,-1,-1,-3
1558433750363279,3,-3,-4,-2,-3,1,2,1
1558433750363279,0,-2,-1,0,11,8,2,3
1558433750376243,-5,-3,-5,-3,-12,-10,-8,-5
1558433750376243,0,3,4,2,-1,-4,-1,0
1558433750384493,3,3,3,1,6,2,2,0
1558433750384493,0,-2,0,-2,-5,3,1,-3
1558433750399185,0,-1,-4,0,7,9,1,0
1558433750399185,-5,-2,-1,1,-1,-2,1,-2
1558433750407159,3,4,-6,-3,-7,-10,-2,3
1558433750407159,-10,-5,-2,-5,-10,-8,-6,-6
