timestamp,emg1,emg2,emg3,emg4,emg5,emg6,emg7,emg8
1558433858631341,0,2,8,5,4,1,2,2
1558433858631341,-1,1,-1,0,1,2,2,-1
1558433858632338,4,7,2,0,2,4,-2,-2
1558433858632338,3,9,14,9,-3,-5,-3,-3
1558433858633341,-4,-9,-12,-9,-11,-7,-6,-3
1558433858633341,0,-1,-13,-7,1,-5,1,4
1558433858637326,-3,-1,2,3,2,3,2,-3
1558433858637326,0,-1,-2,2,3,4,0,-2
1558433858639320,-1,10,12,6,4,4,3,1
1558433858639320,3,-3,-10,-1,-1,-4,0,2
1558433858652283,-21,-15,-3,-3,-5,-4,-5,-5
1558433858652283,4,-1,-16,-10,-7,-7,-5,-7
1558433858658268,3,9,7,2,-1,-5,1,0
1558433858658268,-1,-10,0,-4,-4,-1,-1,-1
1558433858674225,-1,0,-3,2,7,0,3,3
1558433858674225,-3,-5,3,1,4,4,4,2
1558433858682204,0,2,5,4,2,2,-5,-3
1558433858682204,3,9,-4,-5,-6,-4,-3,-4
1558433858689185,4,-8,-6,-3,-5,-2,-2,-1
1558433858689185,-3,0,4,-2,-1,-3,-2,-1
1558433858703148,2,-1,-13,-5,0,0,0,1
1558433858703148,-5,1,25,14,3,-2,0,-1
1558433858712123,0,-3,-22,-12,-11,-6,-2,-3
1558433858712123,-2,6,18,7,-2,0,3,3
1558433858750023,0,4,-15,-4,3,3,2,-1
1558433858750023,-6,-19,-2,-5,0,0,-1,-3
1558433858751020,2,15,9,4,0,-1,3,-1
1558433858751020,-4,-6,0,4,1,2,2,0
1558433858752017,3,8,-3,-6,-5,-3,-3,-1
1558433858752017,-9,-3,-4,-1,-4,-3,-3,-2
1558433858756007,0,-4,-3,-2,1,0,-3,-1
1558433858756007,4,8,10,2,-2,-1,-3,0
1558433858762988,-14,-8,3,4,8,3,2,-1
1558433858762988,7,14,-4,0,1,2,1,4
1558433858771968,-3,-17,4,4,3,2,-2,-4
1558433858771968,-4,-9,-12,-9,-7,-6,-5,-4
1558433858777947,4,-5,-11,-5,-4,-4,-3,-2
1558433858777947,-3,2,4,1,-2,-2,1,0
1558433858794902,4,12,6,0,-5,-7,-1,0
1558433858794902,-2,-5,-6,1,1,5,-1,0
1558433858800886,3,-5,21,7,4,5,4,1
1558433858800886,3,1,-31,-14,-5,-4,-2,-1
1558433858815848,-14,-19,-7,-3,-4,0,1,-2
1558433858815848,-2,5,-5,-4,-1,-5,-4,-3
1558433858822827,2,1,5,1,-6,-8,-6,-1
1558433858822827,5,5,12,7,2,6,2,1
1558433858831803,9,8,3,-1,2,0,-1,2
1558433858831803,-8,-4,-10,-3,0,-1,-1,-1
1558433858837789,-7,-11,2,2,4,4,-1,-1
1558433858837789,0,-1,-3,1,-4,-7,-8,-5
1558433858854743,-1,-9,-6,-3,-4,-2,-1,1
1558433858854743,1,2,2,-5,0,0,1,-1
1558433858860726,5,8,3,-1,-1,-3,1,0
1558433858860726,-5,-4,4,-1,-8,-9,-3,-1
1558433858875686,-4,-3,9,3,3,2,-1,0
1558433858875686,2,-1,-11,3,5,4,-2,-2
1558433858882667,-5,-5,2,4,3,1,-1,-2
1558433858882667,-5,-1,-9,-3,2,0,-2,-1
1558433858891644,0,5,-7,-6,-7,-4,-7,-2
1558433858891644,-4,-11,3,1,-3,-4,-8,-1
1558433858897627,3,1,-12,-10,-9,-2,-9,-2
1558433858897627,2,4,13,6,3,-1,-11,1
1558433858914581,11,11,3,1,1,1,-11,2
1558433858914581,-9,-13,-15,-5,-5,-3,-11,-7
1558433858920567,-13,-18,-9,-1,-2,1,-10,-3
1558433858920567,-2,-7,8,0,2,0,-2,-3
1558433858935528,-3,-1,-10,-5,-3,-1,1,-4
1558433858935528,9,15,13,3,1,1,6,3
1558433858943507,1,14,2,1,0,-3,3,0
1558433858943507,-1,-10,1,0,-2,0,2,-1
1558433858952482,-6,-7,-13,-3,1,-1,0,-7
1558433858952482,4,4,9,1,1,-1,8,0
1558433858958466,-5,0,-15,-11,-7,-7,0,-3
1558433858958466,8,8,2,0,0,1,6,2
1558433858974422,2,9,16,2,2,1,4,1
1558433858974422,-10,-13,-15,1,-3,-2,2,-4
1558433858980406,1,0,5,1,-3,-1,3,-2
1558433858980406,2,9,1,1,3,1,3,-1
1558433858995366,-3,-14,3,0,1,0,2,-1
1558433858995366,3,3,-5,-7,-8,-8,-4,-1
1558433859003346,-9,-5,4,1,-6,-10,-1,-4
1558433859003346,-1,5,-5,1,3,6,4,1
1558433859012320,1,-7,2,3,6,10,7,-1
1558433859012320,-4,4,-3,-2,7,6,4,-2
1558433859018304,0,-11,-13,-7,-3,-4,-1,-1
1558433859018304,-2,-1,-2,-1,-2,-5,-4,-1
1558433859034263,-2,8,0,-1,-8,-9,-3,0
1558433859034263,2,-1,7,2,-5,-2,3,2
1558433859040249,8,7,5,2,0,2,2,1
1558433859040249,-12,-17,-1,0,0,1,-1,-5
1558433859065181,0,-2,-19,-11,-9,-13,-7,-4
1558433859065181,3,3,9,-3,-4,-4,-6,-2
1558433859066178,1,-3,-6,0,1,4,2,3
1558433859066178,4,5,14,7,12,10,7,4
1558433859074464,-2,-4,-12,3,6,5,3,1
1558433859074464,-12,-11,-3,-3,-8,-6,-2,1
1558433859078145,-5,0,-3,-8,-7,-4,-3,-10
1558433859078145,0,2,1,-3,-9,-6,-2,-2
1558433859094102,-4,-9,-1,-1,-3,-1,-1,0
1558433859094102,4,8,4,2,0,1,0,1
1558433859101084,0,-4,-1,2,1,2,-1,2
1558433859101084,-4,-10,-7,-3,-3,-3,-4,-5
1558433859117041,6,15,4,-1,-2,-2,-2,0
1558433859117041,7,3,1,0,6,0,3,0
1558433859123024,-9,-5,-8,-2,0,0,1,-3
1558433859123024,-2,1,-1,-3,-5,-4,-2,-3
1558433859132001,1,-2,-2,-1,0,1,0,0
1558433859132001,0,4,-1,1,-3,-1,-3,-1
1558433859137984,4,-3,5,8,7,1,-1,3
1558433859137984,-6,-5,-3,-4,-2,2,0,0
1558433859154941,-1,-5,8,-2,-7,-4,-3,-4
1558433859154941,-4,-2,-18,-13,-6,-4,1,-5
1558433859160924,9,13,5,5,14,11,7,5
1558433859160924,-1,-3,0,1,-2,-2,-2,-1
1558433859175885,1,5,3,1,2,1,1,3
1558433859175885,-2,-2,3,1,1,-1,-1,0
1558433859182865,-1,0,4,2,-2,-2,1,2
1558433859182865,8,9,-1,-1,-2,-5,-1,0
1558433859191841,2,-1,-1,-1,5,4,-2,0
1558433859191841,-3,-5,14,5,-1,-1,-1,-3
1558433859197825,1,0,-15,-7,-3,-4,-2,-1
1558433859197825,-3,-4,-12,-5,-2,-3,-3,-1
1558433859214781,-4,-5,-8,-6,-9,-5,-4,-2
1558433859214781,-11,-11,-5,0,-6,-6,-5,-5
1558433859220764,4,13,14,2,-1,-1,-3,1
1558433859220764,-1,-6,-2,1,12,10,7,2
1558433859235724,-9,-12,-3,0,-2,-4,-3,-2
1558433859235724,9,5,7,4,6,3,2,5
1558433859242705,-2,-2,-15,-12,-10,-7,-4,-6
1558433859242705,-1,3,2,-1,-1,-4,-4,0
1558433859251680,-1,3,-7,-1,2,1,0,1
1558433859251680,0,0,9,4,4,5,1,2
1558433859258662,-2,-6,1,0,-4,-5,-3,-1
1558433859258662,7,15,1,0,2,4,2,0
1558433859274619,-13,-26,7,4,3,2,2,-1
1558433859274619,-5,4,-10,-7,-4,-7,-2,-5
1558433859280603,-1,2,-6,-1,-1,3,3,1
1558433859280603,-4,-9,-1,-1,0,2,3,-1
1558433859295564,5,9,-4,0,1,1,-1,1
1558433859295564,3,-1,3,1,-3,-2,-5,1
1558433859303542,-2,-4,0,2,0,0,1,-1
1558433859303542,-1,3,4,3,0,0,0,0
1558433859312519,13,24,16,3,-2,1,0,3
1558433859312519,-12,-4,6,3,4,5,4,-3
1558433859318502,-16,-38,-33,-15,-13,-7,-9,-7
1558433859318502,1,0,2,-3,-7,-3,-6,-2
1558433859342438,-2,2,-1,-2,-1,-1,-2,1
1558433859342438,4,2,-14,-12,-9,-2,-1,-2
1558433859343435,5,11,21,11,9,4,3,3
1558433859343435,-5,-9,-12,-3,1,-3,0,-1
1558433859357398,-3,2,-4,0,4,0,1,-1
1558433859357398,4,5,8,5,0,1,1,1
1558433859363382,-3,0,-5,-2,-3,-1,-3,-2
1558433859363382,-6,-7,3,-2,-7,-7,-5,-3
1558433859372362,-4,-14,-5,0,-5,-7,-5,-2
1558433859372362,6,4,-11,-2,-7,-2,-3,-2
1558433859378341,-4,-4,-13,-13,-6,-5,1,-6
1558433859378341,3,6,5,3,2,2,4,1
1558433859394299,-2,0,1,0,5,6,6,1
1558433859394299,-5,-13,0,5,3,-1,-1,-1
1558433859400284,9,13,12,8,1,-2,-5,0
1558433859400284,-1,2,-2,-2,-5,-5,-3,-1
1558433859417239,2,3,-7,-7,-8,-11,-3,-1
1558433859417239,1,0,-1,-1,-1,-2,-3,0
1558433859423223,-6,1,13,8,3,6,-3,0
1558433859423223,3,1,-2,3,5,4,-2,0
1558433859432197,-7,-6,-15,-4,3,1,-1,-2
1558433859432197,3,-3,-16,-8,3,3,-1,2
1558433859445166,-1,-3,-1,-5,-8,-5,-3,-3
1558433859445166,-3,-8,-2,-2,-6,-5,-4,-1
1558433859454139,3,3,4,1,-2,0,-5,-2
1558433859454139,1,0,5,2,4,0,1,0
1558433859468102,3,4,6,4,2,0,2,2
1558433859468102,3,4,-1,-1,-1,-1,-1,0
1558433859477078,0,5,-1,-2,-2,-3,-3,-4
1558433859477078,-1,-5,2,0,-5,-4,0,2
1558433859483062,-20,-28,-3,1,4,1,0,-2
1558433859483062,1,1,-15,-8,-3,-2,-1,-2
1558433859492038,-2,2,-5,-4,-5,0,1,-3
1558433859492038,0,2,9,0,-2,-4,-4,-3
1558433859506001,13,11,-1,-2,-1,-2,0,3
1558433859506001,-14,-12,-2,1,4,2,5,-1
1558433859514977,-5,-5,3,0,4,3,1,0
1558433859514977,-1,-1,-7,0,-1,-1,-2,-3
1558433859520966,9,16,10,2,0,3,2,0
1558433859520966,-4,-10,8,6,1,-2,-3,-5
1558433859536918,-5,-5,-20,-15,-10,-9,-3,-4
1558433859536918,2,0,0,0,-2,-1,1,-1
1558433859542902,-9,-5,-2,-2,0,-3,4,0
1558433859542902,3,2,-4,-2,8,6,2,2
1558433859551878,-2,-5,3,4,1,1,-3,-1
1558433859551878,0,2,-2,-1,-5,-5,-2,-2
1558433859565840,-2,-6,-4,-1,-5,-5,-8,-1
1558433859565840,1,3,8,5,3,7,-1,0
1558433859574817,4,8,1,0,3,2,1,-1
1558433859574817,6,10,-4,-4,-4,-5,-3,-4
1558433859580799,-10,-20,-12,-4,-4,-1,0,-2
1558433859580799,0,2,2,-3,0,-4,0,-1
1558433859596757,-7,-16,0,1,-2,1,2,-1
1558433859596757,2,6,-4,-3,0,0,-2,1
1558433859602742,11,14,5,-1,-3,0,-1,-1
1558433859602742,-4,-4,2,-4,-8,-6,-4,-2
1558433859611718,0,-7,-15,-6,-3,-3,-2,-3
1558433859611718,-2,8,11,6,5,1,2,2
1558433859625681,-10,-5,-7,0,1,0,-4,-4
1558433859625681,-3,-4,0,-3,-5,-3,-6,-2
1558433859634657,2,3,3,2,-4,-5,-4,-1
1558433859634657,-5,-6,6,6,5,4,-1,0
1558433859640642,3,5,-6,-5,3,-1,0,-2
1558433859640642,1,-9,-2,1,3,3,2,1
1558433859656599,-18,-16,-6,-2,-3,-1,-1,-3
1558433859656599,-5,-20,-14,-9,-9,-7,-3,-6
1558433859662582,0,1,2,1,-4,0,-1,-2
1558433859662582,5,5,1,0,-5,-1,-2,-4
1558433859672555,4,8,7,1,-2,-2,0,-2
1558433859672555,-3,-1,4,-3,-4,-5,-4,-1
1558433859685519,2,1,-1,2,1,-4,1,2
1558433859685519,4,14,10,9,14,6,5,5
1558433859694496,8,2,3,1,7,5,2,8
1558433859694496,-15,-17,-6,-1,-1,4,1,-4
1558433859700479,1,6,8,4,-4,-3,-4,-5
1558433859700479,-1,-11,-30,-21,-17,-14,-9,-8
1558433859717435,-1,3,10,4,5,0,0,1
1558433859717435,10,8,1,-2,2,4,1,3
1558433859723418,1,2,11,5,5,5,4,3
1558433859723418,-4,-2,5,5,-2,-4,-2,-3
1558433859738380,2,3,-1,-2,-6,-6,-5,-3
1558433859738380,-3,-1,-2,-3,0,3,-1,2
1558433859745359,-1,-6,-2,-1,0,-1,-5,-1
1558433859745359,5,13,-4,-1,6,3,1,0
1558433859761317,-6,-15,-7,-3,-3,-5,-1,-3
1558433859761317,-1,0,0,-2,-6,-7,0,-4
1558433859762342,0,-1,-1,-2,-4,-1,-3,-3
1558433859762342,-4,-7,-1,-3,-1,-2,-1,-3
1558433859777274,5,21,13,5,2,0,3,1
1558433859777274,0,-2,-4,0,7,5,4,4
1558433859783293,8,-4,-13,-6,-5,-1,-4,0
1558433859783293,-24,-24,-22,-13,-16,-9,-10,-6
1558433859798220,-2,-2,5,0,1,2,-3,-1
1558433859798220,8,11,9,4,1,2,4,0
1558433859805203,9,16,10,2,-4,-6,-1,-1
1558433859805203,0,0,4,1,-6,-2,-4,-2
1558433859821156,-1,-7,-5,0,1,3,2,3
1558433859821156,-1,2,3,2,6,4,0,-2
1558433859822157,-5,-3,-4,-2,3,-3,0,2
1558433859822157,-1,-1,1,0,-3,-2,1,1
1558433859837113,-7,-12,-8,-6,-6,-3,-4,-4
1558433859837113,-1,-1,-2,0,-1,0,-2,-1
1558433859843132,-2,-3,-1,-3,-6,-2,-4,-4
1558433859843132,0,3,-4,-4,-6,-5,-3,-3
1558433859858059,8,5,3,4,4,0,4,4
1558433859858059,-2,-1,-3,0,-2,-4,-3,-2
1558433859866036,4,12,11,4,10,7,3,1
1558433859866036,22,24,20,7,8,8,6,6
1558433859880997,-22,-41,-48,-22,-17,-13,-8,-7
1558433859880997,-3,-16,-6,-5,-4,-5,-4,-2
1558433859881995,-13,-4,0,-1,-3,1,0,-3
1558433859881995,7,11,4,2,7,2,0,2
1558433859896955,16,26,19,10,10,5,3,4
1558433859896955,-7,-10,-12,-7,-9,-7,-6,-5
1558433859902937,-1,-4,3,1,-1,1,1,0
1558433859902937,-5,-6,-3,-2,0,0,2,-2
1558433859917899,-3,0,4,1,-4,-6,-2,-3
1558433859917899,-1,2,-5,-3,-1,1,-1,1
1558433859925911,-2,-12,-2,0,-2,-3,-3,0
1558433859925911,-11,-9,-4,0,-5,-1,0,-3
1558433859940871,-2,2,6,4,0,2,3,2
1558433859940871,13,21,12,6,13,9,4,3
1558433859941833,5,15,2,1,7,4,1,1
1558433859941833,-14,-25,-33,-17,-10,-3,-7,-4
1558433859956802,-14,-27,-4,-6,-10,-2,-6,-6
1558433859956802,1,-2,-3,-1,-8,-6,-2,-2
1558433859971770,-9,-10,0,1,3,-1,-1,-1
1558433859971770,3,10,8,3,2,-2,2,3
1558433859977737,9,19,5,3,10,6,4,2
1558433859977737,-2,-12,3,6,2,3,1,2
1558433859985716,1,6,0,0,-4,-4,-1,-2
1558433859985716,-2,-8,-11,-9,-8,-7,-7,-7
1558433860001674,1,-4,-1,1,-4,-4,-3,-4
1558433860001674,-13,-3,-7,-8,-4,-5,-1,-3
1558433860001674,1,-1,-7,-4,0,3,4,-1
1558433860001674,-2,-1,4,2,-1,-1,1,-1
1558433860016633,-1,0,2,1,-4,-6,-1,-1
1558433860016633,-1,4,-2,2,8,3,4,1
1558433860023616,1,-2,-7,0,7,1,0,2
1558433860023616,-6,-8,-4,0,-1,0,-1,-1
1558433860038575,14,16,6,3,4,0,0,0
1558433860038575,3,3,0,-3,-7,-6,-7,-3
1558433860045556,-5,-13,-9,-8,-8,-4,0,1
1558433860045556,4,8,5,2,-1,-4,1,-2
1558433860061514,-1,-2,-1,-5,-7,0,0,-2
1558433860061514,2,-8,1,4,5,4,5,-1
1558433860061514,8,10,11,3,8,2,1,-1
1558433860061514,-12,-18,-18,-9,-4,-2,-4,-2
1558433860077471,-10,-8,0,-4,-2,-3,-3,-2
1558433860077471,-1,0,-16,-9,-8,-8,-5,-3
1558433860083456,-5,-15,-1,-1,-3,-2,-5,-5
1558433860083456,15,13,16,7,5,2,2,3
1558433860098415,-8,-8,-5,-2,6,3,2,0
1558433860098415,-2,2,2,2,-1,0,-1,-1
1558433860105398,-2,-9,-3,-2,-6,-5,-1,0
1558433860105398,-1,1,3,3,4,2,1,1
1558433860121354,5,6,-4,-2,-3,-4,-2,-1
1558433860121354,-15,-7,1,-2,-3,2,-1,-2
1558433860122352,0,4,0,1,-3,-2,-2,-2
1558433860122352,-5,-14,-3,-2,-6,-8,-7,-3
1558433860137312,0,6,-2,-2,-4,-2,-3,0
1558433860137312,8,-5,0,3,12,8,3,1
1558433860143295,-15,6,-4,1,4,4,2,-2
1558433860143295,-2,-3,-4,-6,-2,0,-2,0
1558433860158255,-1,-5,-5,-3,-6,-4,-4,-2
1558433860158255,-2,1,3,-3,-12,-8,-4,0
1558433860165237,3,-2,-4,2,6,8,4,0
1558433860165237,5,1,10,7,12,8,3,1
1558433860181196,3,5,-3,-4,-6,-5,-3,-4
1558433860181196,-7,3,2,0,-2,-2,-5,-4
1558433860182192,0,-8,5,-2,-4,-5,-1,1
1558433860182192,0,-1,0,0,0,2,1,-3
1558433860197153,-12,-16,-2,1,8,5,-4,-5
1558433860197153,-4,-15,1,-7,-7,-7,-7,-1
1558433860203136,0,4,-21,-12,-15,-9,-5,-5
1558433860203136,-1,1,0,-2,-1,-3,-2,-2
1558433860218094,4,3,-1,0,3,3,4,0
1558433860218094,11,11,10,6,8,4,4,1
1558433860226074,-9,-9,-4,-1,-6,0,-3,1
1558433860226074,-1,4,7,1,-5,-7,-4,-1
1558433860241033,1,6,-3,-3,-2,-1,-4,-4
1558433860241033,-5,-14,-16,-6,3,2,0,-2
1558433860242032,9,8,4,1,1,0,0,1
1558433860242032,-2,-2,1,-1,-3,-4,1,0
1558433860256991,-3,-3,9,6,2,-2,0,3
1558433860256991,2,9,-9,-6,-4,-2,-4,-1
1558433860262975,-7,-18,1,0,1,0,-3,-2
1558433860262975,3,8,7,4,1,4,3,1
1558433860277934,5,7,0,-4,-1,-1,-2,-1
1558433860277934,2,1,-13,-7,-8,-5,-4,-3
1558433860285913,-11,-13,2,2,1,0,0,-2
1558433860285913,6,10,-5,-5,-2,-3,0,1
1558433860300873,-2,0,9,5,1,1,4,1
1558433860300873,7,9,6,5,10,8,3,1
1558433860301871,-19,-4,0,-3,-4,-3,0,-2
1558433860301871,-2,-7,-10,-4,-5,-3,-5,-5
1558433860316831,-3,-3,-11,-5,-7,-3,-3,0
1558433860316831,-2,2,3,-2,-4,-5,-4,0
1558433860322816,4,1,-9,-6,-1,1,-2,0
1558433860322816,-9,-10,4,1,1,5,3,0
1558433860337774,0,7,1,-1,-1,-5,0,0
1558433860337774,5,6,9,6,6,2,3,3
1558433860345753,2,1,2,-1,2,-2,-3,-3
1558433860345753,-9,-19,-23,-9,-12,-6,-7,-7
1558433860361711,1,0,3,0,1,4,0,0
1558433860361711,-6,-8,-7,-1,-1,-2,-3,-1
1558433860361711,12,15,11,6,5,3,2,1
1558433860361711,0,4,3,0,4,0,0,6
1558433860376671,-7,-14,-1,0,-6,-4,-6,-5
1558433860376671,1,4,17,9,0,0,4,2
1558433860382654,21,13,-2,0,0,-1,0,1
1558433860382654,-33,-30,-26,-14,-7,-5,-4,-9
1558433860397614,9,12,1,-2,3,1,0,2
1558433860397614,-10,-13,-6,-4,-5,-6,-6,-3
1558433860405595,7,6,8,4,0,-5,2,3
1558433860405595,13,18,16,12,1,-2,4,3
1558433860420553,-2,-2,2,-2,3,5,3,0
1558433860420553,-3,-6,-12,-5,-1,-2,-3,-4
1558433860428532,-6,-6,-2,-3,-7,0,-4,-2
1558433860428532,3,7,0,-2,-6,-5,-5,-2
1558433860436510,-9,-12,-8,-3,-3,-5,-4,-2
1558433860436510,5,7,16,10,15,14,10,2
1558433860443492,-3,-6,-24,-11,-5,-4,0,-2
1558433860443492,0,5,2,0,2,4,1,0
1558433860458452,5,6,2,-1,-4,-3,-5,-3
1558433860458452,-6,-7,-2,-3,-7,-6,-3,-3
1558433860465433,2,5,6,1,0,1,0,3
1558433860465433,0,3,3,1,3,3,0,-1
1558433860480394,-10,-22,-9,0,5,0,4,5
1558433860480394,-18,-17,-11,-7,-3,-4,-2,-6
1558433860488372,-5,-3,1,1,-2,0,-2,-4
1558433860488372,15,17,2,0,4,3,3,4
1558433860497349,-1,4,12,6,2,2,-1,-2
1558433860497349,-2,-6,-15,-8,-8,-6,-5,-3
1558433860503331,-1,3,-3,-4,-4,-5,-6,-3
1558433860503331,0,-2,-1,-5,-5,-2,-3,-2
1558433860518291,-6,-7,-5,0,0,0,0,0
1558433860518291,10,11,12,3,-2,-2,1,1
1558433860525273,-3,-6,-7,-1,2,2,1,-3
1558433860525273,-1,0,-6,-2,4,1,0,-1
1558433860540233,-3,-9,-4,-2,0,0,0,-2
1558433860540233,-3,4,1,-3,-10,-5,-5,-2
1558433860548212,0,0,-2,-1,-1,-1,-2,0
1558433860548212,2,3,7,4,1,2,-1,-3
1558433860564170,1,7,-2,-6,-10,-4,-8,-3
1558433860564170,-11,-4,0,1,-3,-4,-3,1
1558433860564170,-2,-5,-11,-2,9,2,2,3
1558433860564170,3,2,-1,0,4,-1,-4,-1
1558433860578133,2,1,3,0,-2,-3,-2,-2
1558433860578133,7,3,-5,-5,-2,3,1,0
1558433860585148,-9,-8,-5,-7,-8,-3,-2,-3
1558433860585148,2,1,1,1,1,-1,2,1
1558433860601072,-4,-9,-3,-1,1,0,0,-4
1558433860601072,3,5,-5,-3,-8,-8,-4,-3
1558433860608087,-2,-7,3,-2,-7,-6,-5,-2
1558433860608087,-2,-3,0,3,3,4,-2,0
1558433860624009,5,19,5,5,10,7,6,7
1558433860624009,1,-3,5,3,9,7,2,2
1558433860624009,-9,-14,-11,-3,-4,-3,-1,-2
1558433860624009,-14,-5,4,-3,-5,-6,-4,-5
1558433860637971,5,3,-12,-7,-4,0,-2,-3
1558433860637971,-1,-6,-1,-2,0,-3,0,-3
1558433860645951,14,17,8,3,0,-1,-1,2
1558433860645951,-12,-15,-3,-2,-7,-5,-5,-4
1558433860660910,-1,-1,5,4,0,2,0,0
1558433860660910,1,-1,-3,3,8,5,4,-1
1558433860667893,0,0,-6,-3,-5,1,-1,0
1558433860667893,3,6,2,1,-1,0,1,1
1558433860683876,-1,-5,-8,-5,-4,-4,-1,0
1558433860683876,2,3,4,0,-5,-3,-5,-1
1558433860684847,-5,-3,4,5,6,2,0,0
1558433860684847,-2,-3,1,1,3,2,-1,-3
1558433860697813,8,10,7,3,1,2,0,-2
1558433860697813,-3,-13,-21,-9,-9,-7,-3,-3
1558433860705790,2,10,4,-3,-6,-3,-1,-3
1558433860705790,1,1,-8,-3,0,-2,-3,1
1558433860720751,2,-4,1,-1,-1,0,-2,0
1558433860720751,-2,6,10,6,15,12,4,0
1558433860727733,2,6,3,3,3,2,2,-1
1558433860727733,-1,-1,-1,-1,-10,-8,-1,0
1558433860743688,0,5,-6,-5,-2,-1,-1,-1
1558433860743688,-3,-2,-8,-5,-10,-10,-6,-1
1558433860751667,0,2,-9,-3,-2,-2,-1,-2
1558433860751667,5,8,8,2,4,1,-2,-2
1558433860757652,-26,-32,0,-1,0,-2,-2,-2
1558433860757652,-2,1,1,2,0,2,-1,-1
1558433860765629,-4,-14,-6,-6,-1,0,0,-2
1558433860765629,7,8,1,0,2,1,2,1
1558433860780591,3,-3,-6,-2,-3,-2,-2,-2
1558433860780591,-3,-3,10,4,-3,-3,-4,-3
1558433860788573,3,0,-1,2,0,-1,0,1
1558433860788573,-7,-12,-15,-8,-2,1,1,0
1558433860804308,-2,4,-6,-3,1,0,-2,-3
1558433860804308,-1,-2,3,-2,-5,-5,-4,-1
1558433860804954,1,-7,11,5,8,4,3,1
1558433860804954,3,-5,2,2,1,1,-2,0
1558433860818270,11,14,2,0,-1,-1,1,-1
1558433860818270,-4,-2,-4,-5,-2,-5,0,1
1558433860826086,-10,-12,-2,-2,-8,-4,-3,-5
1558433860826086,-2,-8,-2,1,-3,-1,1,2
1558433860840859,-3,-5,-6,-6,-5,-6,-5,-1
1558433860840859,8,14,3,4,8,8,-1,-1
1558433860848868,-5,-1,-1,-3,0,-1,-4,-2
1558433860848868,1,1,3,-1,-5,-3,-1,1
1558433860863798,-2,3,4,2,-7,-3,-3,-5
1558433860863798,1,-5,-1,0,-2,-2,0,0
1558433860864799,-1,6,7,4,7,5,3,1
1558433860864799,-3,-10,-13,-4,-1,3,2,-2
1558433860877760,-4,-4,-10,-4,-1,0,-2,-1
1558433860877760,-2,-5,0,0,2,2,1,1
1558433860886035,9,12,3,3,-2,-4,-1,-1
1558433860886035,-8,-2,3,-2,-7,-6,-4,-4
1558433860901061,0,-8,1,-1,-4,0,1,1
1558433860901061,-5,3,-5,-2,-2,-1,-1,-2
1558433860909045,-3,6,2,-1,-3,-4,-2,-2
1558433860909045,-2,-10,3,-2,5,0,3,2
1558433860923638,2,4,-1,0,2,0,1,3
1558433860923638,-3,-5,-8,-5,-3,-1,-3,-3
1558433860924635,4,10,-5,-1,-3,1,-4,-1
1558433860924635,1,2,1,-1,0,2,0,1
1558433860937734,0,3,4,3,4,4,0,-3
1558433860937734,0,-2,1,0,-7,-5,0,1
1558433860953847,-2,-4,-4,-2,0,0,0,-2
1558433860953847,5,-8,11,6,10,3,0,2
1558433860960818,-4,-1,-2,-1,2,3,0,-2
1558433860960818,3,3,-12,-8,-7,-3,-2,-2
1558433860968826,-4,-8,-4,-3,-10,-7,-2,-2
1558433860968826,-10,-11,-3,-2,-3,-3,0,-4
1558433860984622,-2,7,6,1,0,-3,2,0
1558433860984622,-2,-10,5,2,2,1,-1,2
1558433860984622,7,5,-2,0,2,2,1,2
1558433860984622,1,-1,1,-1,-4,-1,-2,0
1558433860998439,1,3,-14,-4,-5,-5,-4,-1
1558433860998439,-2,4,-3,-4,-2,-1,0,-1
1558433861005419,-6,-6,9,-1,0,-3,-2,0
1558433861005419,-1,-5,-22,-6,-1,-1,-5,-7
1558433861020412,-5,-6,6,4,2,1,0,0
1558433861020412,2,-4,-7,-2,4,3,2,0
1558433861028385,5,8,11,4,7,1,0,-2
1558433861028385,2,15,-1,-2,-3,1,-1,0
1558433861043419,-6,-24,-13,-8,-7,-5,-3,0
1558433861043419,3,1,1,-2,-4,-4,-3,-1
1558433861044388,-9,-3,1,2,-3,-1,-3,-3
1558433861044388,5,5,-1,-1,-6,-5,-1,-3
1558433861058383,-1,4,0,1,2,2,3,0
1558433861058383,4,0,9,4,5,0,3,2
1558433861065367,-6,-14,-9,-1,-3,-3,-1,-3
1558433861065367,12,11,5,1,4,0,0,2
1558433861080324,-13,-10,0,-4,-4,-1,0,-5
1558433861080324,-14,-12,-2,1,-2,-1,-1,-3
1558433861088271,8,4,0,-5,-5,-4,-5,1
1558433861088271,-2,0,-13,-3,-4,-1,-3,-3
1558433861104228,8,3,7,6,11,5,4,3
1558433861104228,-4,0,5,3,1,0,1,1
1558433861104228,4,14,-18,-11,-6,-2,0,0
1558433861104228,-2,-12,6,0,-4,-3,-4,-1
1558433861118193,-4,6,-6,-1,-5,-3,-8,-5
1558433861118193,-1,-7,4,5,1,2,3,0
1558433861125207,-24,-24,-8,-4,-1,-2,-2,-4
1558433861125207,2,4,9,1,-3,-4,1,2
1558433861140132,3,7,-6,-1,3,3,1,0
1558433861140132,0,-4,2,0,0,-1,-4,-1
1558433861148112,9,14,4,-1,-2,-3,0,3
1558433861148112,-9,-10,-3,-2,1,0,-1,0
1558433861164068,1,4,19,6,-2,-3,-1,0
1558433861164068,-5,-1,-33,-17,-10,-6,-6,-5
1558433861164068,0,-8,-1,2,10,4,2,-2
1558433861164068,1,8,3,0,4,2,3,0
1558433861178116,2,8,4,0,0,2,1,1
1558433861178116,0,-7,6,1,0,-3,0,-2
1558433861186146,-3,-1,-11,-3,-1,-2,0,-2
1558433861186146,-4,-6,5,3,2,4,4,1
1558433861200997,12,10,-2,-3,0,1,0,2
1558433861200997,1,13,12,1,-3,0,-1,-4
1558433861207952,-1,-15,-2,0,-3,-1,-3,-1
1558433861207952,4,11,2,-3,-5,-7,-6,-2
1558433861223909,-1,-12,-13,-7,-7,-6,-4,-1
1558433861223909,3,4,-4,-3,4,1,2,1
1558433861223909,3,0,5,2,3,4,1,3
1558433861223909,-8,-8,0,1,-1,-3,-3,-3
1558433861239867,5,3,-7,-4,-6,-3,-3,-3
1558433861239867,-9,-12,-1,-2,-4,-4,-2,-3
1558433861245976,-1,1,8,4,-3,-3,1,-1
1558433861245976,0,4,-6,1,9,9,5,1
1558433861261008,1,2,-4,-5,-3,-4,-3,-2
1558433861261008,-2,-7,-1,1,-1,-1,-1,1
1558433861267992,-3,-5,1,-1,-4,-3,-2,-3
1558433861267992,-8,-9,-2,-2,-6,-4,-1,-3
1558433861283747,-10,-11,-3,2,-3,-6,-1,-3
1558433861283747,3,10,4,0,5,5,1,1
1558433861284747,0,7,-3,1,2,4,1,-1
1558433861284747,11,9,6,5,4,1,1,4
1558433861299706,-9,-12,-5,-3,-1,-3,-3,-3
1558433861299706,-4,1,-11,-5,0,-1,-4,-2
1558433861305689,0,2,0,-1,-2,-4,-5,-3
1558433861305689,-18,-22,-8,-4,-8,-5,-4,-5
1558433861320786,2,6,1,-3,-1,0,2,-1
1558433861320786,2,-1,5,1,-1,-1,-1,1
1558433861328627,-1,2,3,0,-3,-3,-3,-2
1558433861328627,6,8,-2,-2,0,4,0,1
1558433861342662,-6,-7,6,2,2,4,1,1
1558433861342662,12,16,-10,-6,-4,-4,-3,-1
1558433861350648,-2,-16,-6,-2,3,-3,-2,-1
1558433861350648,-1,1,2,3,0,-1,-1,-2
1558433861359546,-3,1,5,1,4,3,0,1
1558433861359546,0,-4,-5,-4,-9,-4,-2,-3
1558433861365636,-2,0,1,0,-4,1,1,-1
1558433861365636,-1,-4,-10,-5,-3,-2,-6,-4
1558433861380676,10,16,13,5,2,0,1,3
1558433861380676,-2,4,-3,2,4,3,3,2
1558433861388592,-3,-12,-5,-7,-5,-7,-5,-2
1558433861388592,-10,2,5,0,1,3,1,-1
1558433861411593,2,1,-11,-5,-2,-5,-3,-2
1558433861411593,-10,-19,2,2,-5,-7,-5,-5
1558433861411593,3,8,-3,-3,-6,-2,1,0
1558433861411593,5,-1,5,2,3,5,2,0
1558433861419508,12,11,-11,-3,-2,0,1,1
1558433861419508,-25,-30,1,1,1,0,-1,-2
1558433861425559,2,6,6,4,12,8,4,3
1558433861425559,3,1,-6,-4,-4,-3,-3,-2
1558433861440480,5,12,6,-3,-7,-5,-4,-1
1558433861440480,-1,-12,-8,-1,0,3,2,-2
1558433861448461,-13,-8,-3,-2,-7,-2,-2,-4
1558433861448461,0,3,8,-2,-8,-8,-3,0
1558433861463422,-4,-15,-12,-5,-1,-1,-3,-3
1558433861463422,11,20,9,3,4,4,1,1
1558433861470405,2,0,-3,2,4,6,3,-1
1558433861470405,-13,-8,-7,-6,-6,-7,-4,-2
1558433861479349,-1,-3,5,2,-3,-5,0,2
1558433861479349,1,6,2,-3,-4,-2,-5,-3
1558433861485336,-4,-7,0,5,0,6,1,-3
1558433861485336,6,6,1,1,4,0,0,0
1558433861500321,-14,-23,-12,-3,-4,-3,-1,-3
1558433861500321,-1,-2,-1,-2,0,-2,0,4
1558433861516278,3,7,1,-3,-7,-4,-2,-4
1558433861516278,6,0,-1,3,4,2,2,3
1558433861523230,-5,-1,6,0,0,1,-2,-1
1558433861523230,6,9,-1,-3,-3,-5,-4,-3
1558433861530298,1,-7,-9,-7,-5,-6,-5,-2
1558433861530298,-4,1,-1,-1,3,3,0,-1
1558433861546197,-5,-8,-5,0,1,3,0,-2
1558433861546197,4,1,6,5,-5,-2,1,1
1558433861547167,-9,-12,-10,-4,0,-5,-4,-5
1558433861547167,2,6,4,2,-1,3,0,-1
1558433861560133,1,0,-1,-3,-1,-1,-1,-1
1558433861560133,1,-6,-5,1,2,2,1,1
1558433861568138,10,19,2,-1,2,2,2,3
1558433861568138,-2,-12,-3,-3,-2,0,0,-3
1558433861583102,1,0,6,1,-2,0,-1,-1
1558433861583102,-5,-1,-5,-6,-5,-2,-3,-4
1558433861591181,4,4,10,4,-4,-6,0,2
1558433861591181,4,11,-4,-3,4,3,1,1
1558433861606053,-5,-9,-12,-1,1,4,2,1
1558433861606053,0,-3,-4,-4,-2,-4,-7,-3
1558433861607051,-10,-11,-1,-2,-5,-4,-2,-2
1558433861607051,-4,-5,1,1,-5,-4,-1,-2
1558433861621014,5,7,11,4,3,1,3,2
1558433861621014,1,6,-6,-2,0,1,0,-1
1558433861628132,3,4,8,5,5,5,2,1
1558433861628132,-8,-21,-15,-5,-4,-7,-3,-4
1558433861643042,-5,-1,-3,-4,-2,1,-1,-3
1558433861643042,3,0,0,-2,-7,-6,-2,-3
1558433861650126,-1,4,0,-2,-6,-3,-3,1
1558433861650126,-4,-10,1,1,4,2,-1,0
1558433861666127,6,6,-1,-1,0,-3,-2,-3
1558433861666127,-9,-13,1,1,0,3,2,-3
1558433861667088,8,8,-2,0,10,7,3,3
1558433861667088,3,13,-2,-1,-3,-4,-3,-2
1558433861681050,-11,-13,-4,-3,-6,-4,-6,-2
1558433861681050,8,6,0,-4,-7,-3,-2,-2
1558433861688037,-11,-17,-2,0,1,0,0,0
1558433861688037,6,11,5,0,3,5,-2,1
1558433861702993,-2,-4,2,4,-1,-2,-1,0
1558433861702993,0,7,-3,-1,3,0,1,-1
1558433861710973,0,8,0,-2,-7,-2,-3,-2
1558433861710973,5,-4,-5,-6,-7,-3,0,-2
1558433861725933,-9,-7,0,-1,-1,-3,-3,-4
1558433861725933,5,4,1,2,3,-3,0,3
1558433861726928,-11,-9,1,3,6,3,4,-1
1558433861726928,13,18,3,4,6,4,2,4
1558433861740930,-25,-42,-13,-12,-8,-3,-1,-4
1558433861740930,0,-2,0,0,-2,0,-3,-3
1558433861747872,2,3,0,-4,-4,-1,0,-2
1558433861747872,-10,-9,-5,-5,-11,-8,-4,-4
1558433861763028,6,12,7,9,7,1,3,3
1558433861763028,-13,-3,4,1,0,-3,-5,-5
1558433861770856,2,-7,-1,-2,-3,-5,-3,-1
1558433861770856,-7,-3,-6,-2,0,-2,-2,-3
1558433861786768,5,3,2,1,-3,-1,-2,-1
1558433861786768,-3,4,-15,-9,-1,1,-1,-1
1558433861786768,13,7,3,1,0,3,1,1
1558433861786768,-11,-11,0,1,6,7,4,-1
1558433861800811,-2,4,7,0,-1,-3,-2,-2
1558433861800811,2,-6,-5,-3,-6,-3,1,3
1558433861807787,0,4,-11,-7,-1,-4,-2,0
1558433861807787,0,-2,-2,-2,-3,-3,-6,0
1558433861822672,7,9,2,-1,0,-2,-3,-4
1558433861822672,-6,1,8,4,5,5,1,1
1558433861830722,-1,-1,-3,-1,-3,-2,-1,0
1558433861830722,2,3,2,3,-5,-6,0,-1
1558433861846628,-2,-1,-8,-4,-4,-3,-3,-2
1558433861846628,5,1,-3,-1,-1,0,1,1
1558433861846628,4,4,2,2,1,-1,-2,0
1558433861846628,-13,-8,2,1,-2,-1,-2,-3
1558433861860605,-2,-2,-4,-2,-5,-4,-2,1
1558433861860605,-3,-13,0,0,1,1,1,0
1558433861867587,-6,-5,-4,1,8,6,0,-2
1558433861867587,11,-1,-4,-2,-4,-4,-2,-1
1558433861883517,1,11,6,3,0,2,5,1
1558433861883517,2,3,10,1,1,1,1,-2
1558433861890523,-6,-6,-8,-5,-5,-6,-5,-2
1558433861890523,9,3,5,5,8,3,2,2
1558433861906479,-1,0,-8,-6,-1,0,-3,-4
1558433861906479,-2,-1,7,5,1,1,-1,1
1558433861906479,1,0,-1,-3,-5,-3,-4,-2
1558433861906479,-7,-5,-8,-6,-9,-7,-7,-3
1558433861920439,2,3,-4,-2,-3,0,-1,-1
1558433861920439,0,6,0,0,3,1,0,1
1558433861928388,-4,-8,2,-1,-5,-2,1,-1
1558433861928388,1,0,5,3,0,0,0,1
1558433861943391,8,10,-2,2,5,4,-1,0
1558433861943391,-9,-14,-14,-5,0,-1,-1,-2
1558433861950555,1,-2,4,2,1,-1,1,0
1558433861950555,-5,-4,-5,-6,-3,-2,-2,-1
1558433861966441,14,0,-3,-2,0,-2,-2,-1
1558433861966441,2,2,1,1,-1,2,-1,-1
1558433861967441,-2,1,0,-3,-5,-3,-2,0
1558433861967441,0,9,-7,-2,-4,-4,0,0
1558433861980405,-7,-13,-1,-2,-5,-3,0,-1
1558433861980405,-2,-8,-2,1,2,-1,2,0
1558433861988228,-3,6,3,0,2,3,2,-1
1558433861988228,1,-2,1,0,-2,-1,-2,-2
1558433862003281,-4,-3,-3,-1,-1,3,2,2
1558433862003281,1,3,5,-1,0,-1,-4,-4
1558433862019182,-5,-9,-6,-2,-4,-9,-4,0
1558433862019182,6,4,-6,-1,3,2,-1,0
1558433862026159,-8,0,4,-1,1,1,-1,-2
1558433862026159,-6,-12,2,1,-2,-2,-4,0
1558433862027124,-3,1,-6,-4,-4,-1,-2,-4
1558433862027124,1,1,4,0,-2,-2,0,-1
1558433862040091,-3,-1,1,-1,-1,-6,-3,-5
1558433862040091,5,3,-9,-2,2,0,4,2
1558433862048101,-12,-11,-5,-1,3,5,1,0
1558433862048101,-1,-12,3,2,-1,0,1,0
1558433862063061,13,15,14,6,3,1,4,4
1558433862063061,0,2,-18,-10,-11,-10,-5,-4
1558433862071010,-2,-4,2,1,2,3,4,0
1558433862071010,-3,1,-7,-3,1,4,-1,0
1558433862086003,0,2,3,3,-2,-2,-3,-1
1558433862086003,-2,-2,8,5,-1,-4,-1,0
1558433862086965,3,11,-1,-2,-4,-3,-3,-6
1558433862086965,-7,-16,-3,-2,0,-3,4,-1
1558433862100927,0,3,-10,-4,-4,-3,-3,-2
1558433862100927,-7,0,4,-2,-1,2,-3,-2
1558433862107944,4,0,-5,-2,-2,0,-3,1
1558433862107944,0,3,4,1,-4,-3,-2,-1
1558433862122869,-6,-3,0,-2,3,1,1,-3
1558433862122869,10,10,7,4,1,0,1,2
1558433862130847,-27,-32,-17,-5,1,0,0,-5
1558433862130847,-4,-3,-6,-5,-4,-3,-3,-3
1558433862145806,-4,-9,-4,-2,-3,-2,-3,0
1558433862145806,2,5,4,2,2,6,4,1
1558433862146804,12,11,10,4,2,-3,-2,2
1558433862146804,2,6,-6,-3,-2,-6,-4,0
1558433862160768,-14,-16,1,0,-2,-1,0,-4
1558433862160768,5,10,-2,-1,4,9,4,1
1558433862169011,-2,-11,-2,-3,-5,-2,0,2
1558433862169011,-1,-2,-6,-6,-5,-5,-6,-5
1558433862183158,5,7,8,1,1,1,-2,2
1558433862183158,-6,-4,-4,1,2,2,2,2
1558433862191144,3,7,-2,0,2,-1,0,0
1558433862191144,3,1,8,3,4,2,2,3
1558433862207066,1,-4,-6,-5,-5,0,-3,-3
1558433862207066,-7,-11,-8,-5,-2,-5,-2,-6
1558433862207066,4,9,1,-1,2,-1,0,-2
1558433862207066,-6,-9,-1,2,5,3,1,1
1558433862221604,4,6,2,2,4,1,2,4
1558433862221604,1,-1,1,0,-3,-1,-3,0
1558433862228961,3,5,7,-2,-9,-11,-7,-3
1558433862228961,1,3,1,-2,-4,-1,0,1
1558433862242773,-4,-1,-9,-2,-1,-2,0,-1
1558433862242773,2,5,3,3,3,3,-3,0
1558433862250747,-3,-11,-12,-6,-7,-3,0,1
1558433862250747,-2,0,5,-2,-4,-3,-3,-3
1558433862265672,-5,-5,-5,-2,-2,-3,0,0
1558433862265672,-1,-1,-3,-1,2,-1,1,-1
1558433862281628,-8,-2,12,5,8,3,0,-1
1558433862281628,-1,-9,-7,-2,-2,0,-1,-1
1558433862283624,-2,-5,-13,-9,-7,-6,-4,-5
1558433862283624,-6,-5,-8,-7,-8,-9,-6,-4
1558433862287613,6,5,3,0,-1,2,3,2
1558433862287613,0,0,4,2,-1,3,0,0
1558433862302574,4,3,10,7,11,5,2,2
1558433862302574,-3,-4,-1,-1,4,0,-2,-2
1558433862311020,3,4,2,1,-2,-1,0,2
1558433862311020,-3,6,3,2,2,-1,0,1
1558433862325515,-11,-26,-30,-16,-14,-6,-6,-7
1558433862325515,-3,-1,6,2,-3,-3,-2,-2
1558433862334599,2,2,-2,1,1,1,-1,-3
1558433862334599,0,8,4,1,1,1,-1,0
1558433862340899,7,17,13,4,-1,-2,-3,0
1558433862340899,-7,-28,-19,-8,-4,-5,1,-1
1558433862348826,3,6,6,2,-2,-5,-1,1
1558433862348826,-3,-6,-5,-5,-3,0,0,-3
1558433862363411,-10,-6,-2,-1,6,4,1,-3
1558433862363411,0,2,5,-1,-4,1,-2,-3
1558433862370392,3,3,1,1,4,1,-1,1
1558433862370392,-6,-8,-5,-3,-3,-4,2,-1
1558433862386395,1,5,2,-2,-5,-3,0,3
1558433862386395,-2,2,0,-2,-3,-6,-4,-2
1558433862393667,-2,-6,-8,0,-1,3,-3,-3
1558433862393667,2,0,3,3,0,1,-3,0
1558433862400658,0,2,3,0,0,0,-1,-1
1558433862400658,5,6,-6,-6,-3,-6,-3,0
1558433862408292,-12,-21,-7,-3,-4,-5,-3,-6
1558433862408292,0,-1,4,4,3,4,5,0
1558433862423650,0,1,5,3,0,1,1,1
1558433862423650,0,1,-5,-3,0,4,1,0
1558433862431021,-3,1,-11,-6,-6,-8,-5,-5
1558433862431021,6,4,-3,0,-4,-3,-3,-1
1558433862445633,-7,-9,6,3,2,1,4,0
1558433862445633,4,-2,3,1,-5,-3,-3,-3
1558433862453962,5,5,3,1,0,3,3,-1
1558433862453962,-8,-6,1,-1,3,1,-1,-2
1558433862468918,0,-1,3,1,0,-2,-2,0
1558433862468918,3,0,-7,2,7,7,3,3
1558433862469572,-2,0,-2,-3,-4,-2,-2,-4
1558433862469572,2,3,-5,-4,-2,-4,-4,-1
1558433862483862,-1,-4,3,1,-4,-2,-2,-2
1558433862483862,-4,1,4,-1,-4,-3,-1,-2
1558433862490846,5,4,-6,-1,4,2,0,2
1558433862490846,-6,-2,3,-1,2,3,1,1
1558433862505473,0,-3,-8,-3,0,-3,-4,0
1558433862505473,-3,-2,1,-3,-7,-10,-4,-5
1558433862513794,1,4,4,-1,0,3,2,3
1558433862513794,1,1,0,-4,-7,-7,-3,-4
1558433862529668,1,5,1,2,3,4,3,0
1558433862529668,3,-5,3,7,11,5,4,2
1558433862529668,-5,-5,-1,-3,-5,-3,-4,-4
1558433862529668,-10,-15,-4,0,1,-2,0,2
1558433862543401,1,5,0,-5,-1,1,1,-1
1558433862543401,1,-3,-2,-3,2,2,0,2
1558433862551426,5,5,6,2,-2,0,0,-2
1558433862551426,-1,-6,-6,-3,-2,-3,0,1
1558433862566313,6,10,3,2,-1,-3,-2,-1
1558433862566313,-11,-15,0,2,-1,2,0,-2
1558433862574554,4,4,1,1,1,-1,2,0
1558433862574554,0,0,0,0,-2,-2,-2,-1
1558433862589248,3,2,-3,-1,2,2,3,1
1558433862589248,2,11,-10,-7,0,3,0,1
1558433862589248,-10,-18,-3,-1,-4,-2,-4,-3
1558433862589248,2,3,-7,-3,-7,-6,-5,-1
1558433862603248,0,-1,2,1,0,-1,0,1
1558433862603248,2,6,6,1,-3,-4,-2,-2
1558433862611329,7,10,3,-2,-2,1,3,3
1558433862611329,-3,-3,3,3,7,3,0,0
1558433862626443,-6,-8,-5,-1,0,2,-2,-2
1558433862626443,-3,2,-1,-2,-8,-5,-4,0
1558433862634465,2,0,1,0,-3,-1,-3,-4
1558433862634465,1,7,1,-1,-1,-2,0,-1
1558433862649434,-2,-6,-2,-3,-5,-9,-4,-3
1558433862649434,0,-3,-6,-2,2,0,0,-2
1558433862649434,-3,0,1,1,3,3,2,4
1558433862649434,2,0,4,-1,-3,2,0,-1
1558433862663151,-5,-5,-10,-5,-3,-2,-4,-2
1558433862663151,-5,-8,-6,-2,2,0,-3,-1
1558433862671031,-2,0,-6,-5,2,-1,0,2
1558433862671031,8,11,-1,1,2,1,0,-3
1558433862686334,-7,-14,3,1,-1,0,0,-2
1558433862686334,0,5,-3,-3,-9,-5,-3,-1
1558433862694312,-3,-4,0,-1,3,-1,-2,-2
1558433862694312,4,10,-7,-4,-5,-2,1,2
1558433862708934,0,-7,1,1,0,-3,0,2
1558433862708934,-2,0,13,5,5,3,-1,1
1558433862708934,4,4,-13,-3,0,2,-2,-1
1558433862708934,-14,-13,0,-3,-6,-6,-3,-1
1558433862722890,-1,4,-10,-6,-4,-1,-3,-4
1558433862722890,0,5,5,0,-2,-2,-2,-1
1558433862731177,-1,-5,2,2,-3,-5,-3,-3
1558433862731177,0,0,3,4,8,6,3,2
1558433862745829,5,11,-7,-4,1,1,1,-2
1558433862745829,-11,-24,-1,1,-5,-4,-1,-2
1558433862754123,-4,-7,-5,-5,-9,-3,-3,-3
1558433862754123,-1,-3,-4,0,-3,-4,-4,-2
1558433862769072,0,9,8,3,0,0,2,2
1558433862769072,9,10,1,-4,2,2,0,-2
1558433862770008,-6,-9,-1,0,-2,-3,0,0
1558433862770008,4,-4,-8,-7,-9,-4,-3,-2
1558433862783030,-12,-8,-7,-4,-1,-6,-4,-2
1558433862783030,4,3,0,2,0,0,1,0
1558433862798997,-1,6,11,4,4,7,1,2
1558433862798997,-3,-19,-13,-2,3,3,1,-2
1558433862805668,0,2,5,1,-6,-3,-2,-1
1558433862805668,-5,-3,-5,-5,-7,-6,-2,0
1558433862821629,0,2,0,-1,-6,-6,-6,-2
1558433862821629,7,10,7,4,10,5,0,0
1558433862829647,-2,-6,-6,-5,-1,4,0,-3
1558433862829647,1,3,-4,-4,-4,-5,0,1
1558433862829647,-3,0,1,-4,-2,-5,0,3
1558433862829647,-5,-1,0,1,-1,-1,-1,-3
1558433862843865,2,-8,3,1,-2,-2,-1,1
1558433862843865,-6,0,3,0,1,3,-1,-3
1558433862850861,-2,-2,-14,-9,-1,0,-2,-1
1558433862850861,-4,-4,4,1,-2,-3,-2,-2
1558433862865830,13,15,2,0,2,-1,-2,-1
1558433862865830,-9,-11,-5,0,-1,0,0,-3
1558433862873736,-6,-7,2,0,-1,2,3,-1
1558433862873736,-3,-5,0,1,2,2,3,2
1558433862888448,2,1,-2,2,1,-1,-3,-2
1558433862888448,1,4,2,-2,-6,-4,-1,0
1558433862889447,-5,-2,-2,-1,-2,-2,-1,-4
1558433862889447,7,5,2,3,5,6,1,3
1558433862903680,-12,-3,-4,0,2,2,1,0
1558433862903680,-2,2,0,1,4,2,1,-4
1558433862910648,-5,-9,5,3,-2,-5,-2,0
1558433862910648,1,4,1,-6,-11,-7,-2,-1
1558433862925349,-1,-4,-1,-4,-2,2,0,-1
1558433862925349,-1,0,-6,-2,3,1,-2,0
1558433862933327,2,4,1,2,3,0,1,1
1558433862933327,-5,-2,-3,-5,-5,-5,-4,-3
1558433862949671,1,3,6,1,-1,0,1,0
1558433862949671,0,1,4,1,0,1,0,2
1558433862949671,13,13,-2,-1,-7,-1,1,1
1558433862949671,-27,-22,-9,-2,1,-2,-3,-6
1558433862963284,-4,-17,-5,0,3,5,1,-1
1558433862963284,2,1,4,2,-1,-3,-3,-1
1558433862970690,2,5,-2,-3,-2,-1,-1,1
1558433862970690,-4,-1,3,-1,1,-1,0,-1
1558433862986451,0,4,-8,-2,-2,0,-1,-3
1558433862986451,-5,-3,2,-1,5,2,1,-1
1558433862994530,4,3,1,-3,-6,-6,-3,-2
1558433862994530,2,-4,-10,-6,-3,-3,0,-1
1558433863009500,-6,-13,0,0,-1,-1,0,-1
1558433863009500,5,2,0,1,2,-1,0,0
1558433863009500,-7,-1,-2,1,2,0,0,-2
1558433863009500,5,6,2,-1,-5,-5,-3,-2
1558433863023456,2,3,5,1,0,-1,1,3
1558433863023456,-2,0,-8,-4,-2,0,-2,0
1558433863030445,-3,-8,-2,0,1,0,-1,-2
1558433863030445,5,3,-1,0,-2,-1,1,2
1558433863046375,-7,-4,-1,1,2,2,2,-1
1558433863046375,8,7,-1,0,-2,-1,-1,-1
1558433863054143,-4,-6,-1,-2,-2,-4,-3,-4
1558433863054143,5,2,1,1,4,3,1,0
1558433863069272,-11,-8,-1,-2,-4,-4,-3,-1
1558433863069272,1,-2,0,-5,-10,-8,-2,-2
1558433863069272,-2,-2,-4,0,5,3,0,0
1558433863069272,-2,-1,0,-2,0,1,-3,-1
1558433863083239,5,8,-11,-5,-2,-4,1,3
1558433863083239,-3,-3,0,1,1,1,-1,-4
1558433863091198,1,3,2,4,2,1,2,2
1558433863091198,-4,-9,-5,-4,-5,-3,-3,-3
1558433863105865,0,8,7,0,-4,-2,-3,-2
1558433863105865,-1,4,1,2,-2,-3,0,3
1558433863113892,-1,-10,1,2,3,5,1,0
1558433863113892,1,6,-2,0,3,3,1,0
1558433863129068,1,-5,-1,-1,-1,-3,-3,0
1558433863129068,0,4,-4,-5,-10,-6,-3,-2
1558433863129804,-8,-15,-2,-1,0,2,-1,-3
1558433863129804,-9,-4,4,3,4,3,3,0
1558433863150780,1,-1,-1,1,-6,-5,-2,1
1558433863150780,5,5,1,4,5,0,1,-2
1558433863151744,-7,-11,-4,-2,1,0,1,0
1558433863151744,4,4,-1,-3,-4,0,0,-1
1558433863165740,2,3,1,-1,-1,-1,-3,-4
1558433863165740,-2,1,3,1,-1,-3,-4,0
1558433863173743,-2,-2,-1,-2,-5,-2,0,-1
1558433863173743,-3,-4,-9,-2,-2,-5,-4,-4
1558433863189641,-1,-5,-1,0,4,1,3,1
1558433863189641,2,0,3,2,4,2,3,0
1558433863196935,3,6,-1,-4,-2,-6,-3,-1
1558433863196935,3,3,-1,0,-7,-4,0,-1
1558433863202925,-7,-18,1,3,4,1,-1,-2
1558433863202925,-4,-4,-10,-5,-3,-2,-1,-3
1558433863210786,3,0,-7,-4,-7,-3,-3,0
1558433863210786,-4,-1,1,-1,4,2,1,0
1558433863225943,3,5,3,3,7,3,-1,-1
1558433863225943,0,1,2,2,3,3,2,-1
1558433863232924,1,-8,-1,-2,-1,-1,-3,-1
1558433863232924,3,3,-8,-2,-4,-2,-3,-2
1558433863248484,6,13,3,1,-3,-4,0,1
1558433863248484,-9,-10,-4,-4,-2,0,0,0
1558433863256918,5,-4,-4,-2,-1,0,0,-1
1558433863256918,-6,0,-1,1,-1,1,-4,-2
1558433863263463,-2,-3,-2,-2,-1,3,2,-1
1558433863263463,1,2,0,-2,-3,-4,-1,1
1558433863270875,-3,1,7,0,4,2,1,1
1558433863270875,-1,1,3,0,0,0,1,1
1558433863286495,-3,-9,-8,-1,-2,-5,-5,-5
1558433863286495,1,-3,-9,-6,-5,-3,-3,-1
1558433863301342,-10,-14,-5,-2,0,0,3,-4
1558433863301342,-4,5,7,1,5,0,1,1
1558433863308323,4,5,-2,-5,-6,-2,-2,-1
1558433863308323,-1,0,2,2,-1,-1,-1,-1
1558433863316304,-2,4,3,0,-5,-5,-5,-1
1558433863316304,9,5,1,0,2,-1,-1,1
1558433863323286,-6,-8,-10,-7,-4,0,3,-1
1558433863323286,-9,-13,-5,1,1,-2,-1,0
1558433863330266,0,4,1,0,0,-1,-1,0
1558433863330266,0,1,-1,-3,-2,-1,-1,-3
1558433863345230,6,4,5,1,3,3,-1,1
1558433863345230,-18,-13,-4,-4,-5,-2,-1,-4
1558433863353705,-3,-4,-2,0,0,1,-1,-1
1558433863353705,1,-7,4,2,-1,-3,-2,-1
1558433863368525,2,6,5,3,-2,-2,-1,0
1558433863368525,0,-5,-13,-9,0,3,0,0
1558433863376481,2,6,-3,-4,-2,-4,-4,-3
1558433863376481,-4,1,-2,-3,-2,-2,-3,-4
1558433863391441,2,-8,6,3,-1,0,1,1
1558433863391441,1,8,5,6,4,0,1,-1
1558433863392105,2,5,1,0,-4,-2,-1,-2
1558433863392105,2,-4,-4,-3,-2,1,4,2
1558433863405068,-6,-11,-4,-3,-4,1,-1,-2
1558433863405068,-2,-4,0,-3,-4,-4,-2,-1
1558433863413405,3,3,-1,0,1,-1,1,-2
1558433863413405,6,11,10,6,3,0,1,2
1558433863428343,-10,0,-5,-6,-5,-3,-2,-5
1558433863428343,-1,1,-1,-1,1,0,-1,0
1558433863437116,2,-1,-4,-3,-3,1,0,-1
1558433863437116,-1,-8,1,-3,-6,-3,0,-2
1558433863451940,0,3,4,3,-1,-3,-1,-2
1558433863451940,0,1,-1,-2,-3,-3,-2,-1
1558433863451940,0,4,-14,-5,4,1,0,1
1558433863451940,3,-12,0,0,-6,-3,-2,-1
1558433863466259,-9,0,-1,3,6,3,-1,-3
1558433863466259,0,-1,4,-3,-4,0,-2,-4
1558433863473173,5,12,1,0,4,0,-1,-1
1558433863473173,-13,-19,-8,-4,-2,-2,-3,-2
1558433863487843,4,2,-1,-4,-6,-8,-3,0
1558433863487843,-4,-7,1,2,2,3,3,-1
1558433863495854,-5,-5,-3,0,2,1,0,0
1558433863495854,-3,-2,0,-1,-5,-7,-3,-3
1558433863510783,-1,2,-2,-2,-2,-2,-1,-1
1558433863510783,4,-5,-5,1,2,3,2,2
1558433863511787,5,3,3,2,-1,1,-1,-3
1558433863511787,-8,-1,-4,-6,-4,-1,-4,-4
1558433863525777,3,-4,-1,-4,-5,-3,-2,0
1558433863525777,6,6,5,3,3,-2,0,0
1558433863532724,1,1,2,2,6,6,2,1
1558433863532724,0,6,-3,-1,1,4,0,0
1558433863547683,-3,-9,-4,-2,-2,2,0,-2
1558433863547683,-4,0,0,-2,-2,-2,-3,-1
1558433863557074,-11,-10,-1,-4,-8,-11,-2,1
1558433863557074,12,12,7,2,5,5,4,3
1558433863571621,-20,-12,-5,0,0,0,-2,-4
1558433863571621,2,-4,-2,1,-1,-2,2,1
1558433863571621,5,5,7,3,2,-2,-3,-4
1558433863571621,-1,-4,-4,-2,-1,-5,-2,1
1558433863585594,6,18,-2,-4,-4,-4,-4,-2
1558433863585594,-2,-9,-3,-1,0,1,-3,-4
1558433863601577,-6,-6,-7,-1,-3,3,1,0
1558433863601577,2,4,5,2,-5,-5,-2,-3
1558433863608524,6,7,-4,1,0,-4,-1,2
1558433863608524,-5,-6,-5,-1,3,1,-1,1
1558433863616501,6,10,10,3,6,6,4,2
1558433863616501,-3,-1,-4,-4,0,0,-2,-2
1558433863631879,-1,-4,-3,-2,-7,-4,-1,0
1558433863631879,3,10,6,-2,-9,-9,-4,-2
1558433863631879,-4,-13,-13,-5,0,0,-3,-4
1558433863631879,1,1,3,2,6,3,-1,0
1558433863645426,1,3,-2,-1,0,1,3,0
1558433863645426,0,-7,-3,-2,-4,-5,-3,0
1558433863653404,-7,0,6,1,-11,-11,-6,-3
1558433863653404,0,-5,-3,-1,0,1,1,2
1558433863668393,-2,5,-4,-1,10,6,2,2
1558433863668393,-2,-6,3,5,2,0,-3,-5
1558433863676454,0,-7,-2,-1,-5,-3,-1,-2
1558433863676454,-3,0,-2,-4,-7,-4,-1,-1
1558433863691300,2,-9,6,0,-1,-3,0,1
1558433863691300,3,7,-6,-2,2,5,1,1
1558433863692298,-2,-2,-5,-2,-1,-1,-1,-1
1558433863692298,2,5,5,3,0,-4,-1,0
1558433863705270,5,-1,-1,-2,3,4,-1,0
1558433863705270,-11,-7,-7,-7,-6,-3,-4,-6
1558433863713670,-17,-26,-14,-7,-9,-7,-4,-4
1558433863713670,0,3,1,0,1,1,2,0
1558433863728204,4,10,10,5,5,3,3,3
1558433863728204,6,12,0,0,1,1,2,1
1558433863736183,1,1,1,-1,3,1,0,1
1558433863736183,2,5,-2,-1,-6,-4,-5,-5
1558433863751140,-13,-16,-7,-2,-4,-3,-4,-5
1558433863751140,4,2,3,1,5,1,0,3
1558433863752137,1,7,5,2,4,4,4,3
1558433863752137,0,-11,-7,-5,-2,-1,-4,-2
1558433863766099,3,7,-2,-3,-3,-1,-2,-2
1558433863766099,-2,2,-3,0,-4,-3,1,0
1558433863773081,1,-2,2,2,8,4,2,1
1558433863773081,-6,-13,-6,0,1,-1,0,1
1558433863788044,0,-4,-3,-5,-6,0,-3,-2
1558433863788044,2,-2,-3,-6,-8,-6,-5,-4
1558433863796019,2,-1,1,1,-1,0,2,0
1558433863796019,4,7,2,3,14,7,4,3
1558433863810979,-2,2,-3,-5,-7,-7,-3,-2
1558433863810979,5,3,1,-1,-5,-2,-4,-1
1558433863811976,-7,-2,-1,-1,0,-1,2,-3
1558433863811976,-11,-10,-5,-2,-8,-8,-2,-2
1558433863826018,6,4,3,5,6,4,0,0
1558433863826018,-2,3,1,0,5,7,5,-2
1558433863832922,5,3,-8,-5,-10,-9,-5,-1
1558433863832922,-1,2,5,-1,-2,-3,1,-1
1558433863847882,-3,-1,3,2,1,1,1,0
1558433863847882,4,-3,-1,-4,-3,-2,-3,-1
1558433863855969,-3,1,-6,-9,-7,-4,-2,0
1558433863855969,-7,-14,-14,-9,-11,-8,-8,-7
1558433863870820,-3,-6,3,2,-5,-4,-2,-2
1558433863870820,0,-2,4,3,8,7,4,2
1558433863871818,8,10,5,3,7,4,0,1
1558433863871818,6,12,1,1,3,6,4,3
1558433863885901,-5,-7,-5,-5,0,-2,-1,-3
1558433863885901,-5,5,-1,0,-3,-8,1,0
1558433863892760,-6,-14,-5,-2,-1,-1,-4,-4
1558433863892760,-1,-3,0,1,4,0,-1,-1
1558433863907725,-2,-6,-5,-4,-6,-5,-5,-3
1558433863907725,-4,-4,-9,-5,-2,2,0,-1
1558433863915895,5,5,4,1,-2,-6,-4,0
1558433863915895,-9,-10,6,0,0,1,-1,-1
1558433863931656,5,3,-4,2,1,-1,1,1
1558433863931656,-12,-10,-5,0,-6,-2,-5,-6
1558433863931656,1,4,0,-4,-8,-6,-5,-2
1558433863931656,2,2,5,5,2,1,2,3
1558433863945640,-1,5,-2,-1,5,3,4,3
1558433863945640,5,-4,-3,-2,2,-1,-2,-1
1558433863952803,-10,-8,0,1,1,3,0,-1
1558433863952803,-6,-5,-4,-4,-5,-8,-7,-5
1558433863967564,2,5,3,0,-6,-5,-1,-2
1558433863967564,2,0,-5,-1,5,1,0,0
1558433863976538,3,8,8,3,4,2,2,3
1558433863976538,8,14,-2,-2,-5,2,-1,-1
1558433863991497,-12,-10,-4,-4,-4,-7,-5,-6
1558433863991497,-5,-17,-3,-3,1,-1,0,-1
1558433863991497,-6,-12,1,-1,-5,-6,-4,-3
1558433863991497,-4,-8,-6,2,3,0,0,1
1558433864005461,7,11,5,3,4,7,5,3
1558433864005461,0,4,-1,-1,-4,-1,0,-1
1558433864013438,2,5,-2,0,-1,0,0,-3
1558433864013438,0,0,-1,-4,-5,-2,-1,2
1558433864028399,-3,-4,0,-1,-2,0,-5,-4
1558433864028399,-5,-4,-3,2,2,1,0,1
1558433864036379,0,0,-9,-4,1,0,-1,0
1558433864036379,1,4,2,0,-4,-6,-1,-2
1558433864051336,-4,-6,3,3,4,4,0,0
1558433864051336,0,5,0,-3,-9,-9,-5,-2
1558433864051336,3,2,2,1,-3,3,-1,-2
1558433864051336,2,-5,-6,0,10,7,4,-1
1558433864065301,7,1,-4,-6,-7,-7,-4,-2
1558433864065301,-6,-12,5,2,-4,-5,-3,0
1558433864073280,6,11,7,4,8,6,7,5
1558433864073280,-8,-3,-5,-1,-4,1,-3,-3
1558433864088503,0,8,1,0,-3,-4,-1,0
1558433864088503,-1,-4,2,-1,-9,-8,-6,-2
1558433864096217,-9,-15,-11,-5,-7,-9,-4,-4
1558433864096217,6,2,-5,-1,11,9,5,1
1558433864111178,-10,-9,-6,-4,-4,-1,-1,-1
1558433864111178,0,3,-1,-2,-5,-2,-2,-1
1558433864112179,6,12,9,3,0,-5,-1,0
1558433864112179,-2,-5,0,-3,-5,-7,-5,-3
1558433864125141,-2,-1,-8,-2,3,-3,1,1
1558433864125141,1,5,5,1,3,2,3,1
1558433864133118,-4,-1,-8,-7,-6,-1,-7,-6
1558433864133118,-1,1,1,1,3,5,5,3
1558433864148078,-1,-6,2,0,-1,0,-3,1
1558433864148078,-3,-2,-2,-1,-1,2,-1,-2
1558433864156066,0,4,-11,-6,-5,-12,-3,-3
1558433864156066,1,-11,-4,-5,-7,-6,-6,-2
1558433864170019,2,5,2,1,0,-2,-1,0
1558433864170019,-11,2,11,5,4,4,4,-3
1558433864179030,-10,-22,-14,-1,8,15,6,0
1558433864179030,2,9,6,1,-4,-3,-3,-2
1558433864185985,3,-6,-2,-2,-3,-4,-3,-1
1558433864185985,2,3,-5,-4,-6,-2,-2,-2
1558433864192959,6,14,11,5,3,-2,-2,0
1558433864192959,-9,-14,1,3,7,6,4,2
1558433864207923,2,2,-3,2,9,11,7,3
1558433864207923,-2,-1,1,-3,-6,-5,-4,-4
1558433864215900,-4,-2,-5,-5,-10,-3,-2,-3
1558433864215900,6,7,1,0,-1,-6,-1,3
1558433864230863,-5,-5,3,0,0,-5,-4,-5
1558433864230863,4,-1,-9,-1,11,9,3,3
1558433864238836,0,-5,4,2,0,-1,-1,-1
1558433864238836,-6,0,-5,-6,-13,-6,-6,-4
1558433864253794,1,2,1,2,5,5,5,2
1558433864253794,5,6,1,-4,-2,-3,-3,-3
1558433864254799,-3,-4,2,3,-3,0,1,-1
1558433864254799,-1,0,-11,-2,4,6,3,0
1558433864267763,-8,-11,-1,-3,-5,-5,-4,-3
1558433864267763,3,-2,0,-3,-9,-8,-2,-2
1558433864275737,-1,0,13,5,8,5,2,1
1558433864275737,2,7,2,1,2,2,1,3
1558433864290698,-1,-4,-15,-10,0,2,-3,-1
1558433864290698,-4,-5,-5,-1,-3,0,-4,-2
1558433864298683,1,-5,-3,-1,-5,-7,-2,0
1558433864298683,-13,-5,6,1,1,0,2,-3
1558433864313646,0,7,-4,-1,-5,-4,-3,-3
1558433864313646,-1,-3,-1,0,3,1,1,0
1558433864314638,2,1,-2,-4,-6,-2,-5,-3
1558433864314638,4,3,5,4,4,6,6,3
1558433864327672,1,1,-4,-2,-2,0,1,0
1558433864327672,0,2,-1,1,6,4,0,-2
1558433864336645,-9,-11,-1,-4,-1,-1,-2,-1
1558433864336645,5,3,-5,-9,-16,-8,-8,-4
1558433864359512,-7,-7,3,1,-1,-1,2,2
1558433864359512,6,6,3,5,13,8,7,5
1558433864360512,0,3,-6,0,3,4,-2,-3
1558433864360512,5,5,3,-3,-11,-10,-8,-4
1558433864373475,-9,-10,-2,-1,-1,1,-2,-2
1558433864373475,-2,1,0,-1,-5,-5,1,1
1558433864374475,2,1,-10,-5,0,-4,1,0
1558433864374475,-4,-8,1,3,6,6,2,1
1558433864388443,5,5,7,3,3,3,-1,-3
1558433864388443,-2,-1,-8,-2,-6,-6,-7,-5
1558433864396413,-7,-15,1,-2,-7,-6,-1,-2
1558433864396413,1,6,2,-1,-4,-6,-1,0
1558433864410377,2,-2,0,0,2,3,1,0
1558433864410377,1,0,0,1,4,3,3,3
1558433864418355,7,11,1,1,-3,-3,-4,-3
1558433864418355,-4,3,1,0,2,4,2,-1
1558433864433315,-9,-14,3,3,4,-6,-4,-2
1558433864433315,-2,-7,-10,-9,-10,-4,-3,-3
1558433864434312,-1,8,5,3,8,6,3,2
1558433864434312,-3,-12,-5,0,5,3,-4,-3
1558433864448275,-2,6,-6,-4,-11,-7,-6,-5
1558433864448275,1,-1,6,0,-3,-6,-2,2
1558433864456260,-1,0,-3,-3,-5,-3,-2,0
1558433864456260,-4,-2,-1,-1,-2,-12,-6,0
1558433864470217,-3,-3,-2,-1,3,10,6,0
1558433864470217,2,-3,2,3,7,7,1,-1
1558433864478206,1,1,2,0,-4,0,0,0
1558433864478206,1,2,-15,-11,-11,-7,-7,-6
1558433864493157,1,-5,0,0,-5,-11,-1,1
1558433864493157,-6,-4,2,-1,-7,-7,-8,-5
1558433864494153,-1,-4,-3,2,4,5,1,0
1558433864494153,4,7,5,5,15,6,5,4
1558433864508116,-1,-3,-9,-10,-16,-8,-6,-3
1558433864508116,-4,-13,0,0,0,1,1,-2
1558433864516097,0,-1,-4,-3,5,3,-1,-3
1558433864516097,-1,-1,0,3,-2,-5,-2,-2
1558433864530057,7,10,8,7,9,1,3,4
1558433864530057,-1,3,-3,-4,-7,-3,-2,-3
1558433864539033,1,-2,5,-2,-6,-3,-7,-3
1558433864539033,-1,0,-7,-1,2,6,4,0
1558433864553993,1,2,7,1,4,7,3,3
1558433864553993,-3,3,-2,-2,-4,-8,-4,-2
1558433864554998,4,0,-1,1,5,-3,4,4
1558433864554998,-4,-7,-2,-7,-11,-1,0,-2
1558433864567955,-1,-1,-3,-3,-4,-2,-5,-5
1558433864567955,1,-8,-10,-3,1,-2,-1,0
1558433864575933,-3,5,4,0,1,6,3,0
1558433864575933,-2,-14,-6,2,1,-8,-1,-2
1558433864590910,2,3,2,2,6,4,-1,-2
1558433864590910,-3,1,2,-2,-5,-4,-2,-1
1558433864598876,-5,-4,-6,-1,-2,0,5,1
1558433864598876,4,1,2,-2,4,5,1,-1
1558433864613832,0,1,0,1,5,6,3,3
1558433864613832,1,3,-1,1,3,-1,1,-2
1558433864614829,-6,-5,-3,-4,-9,-11,-7,-4
1558433864614829,3,2,4,-1,-4,-1,0,2
1558433864627810,-9,-2,-2,-6,-7,-4,-7,-5
1558433864627810,-1,-2,-7,-4,-4,2,0,-2
1558433864635780,3,-7,4,4,3,-1,3,2
1558433864635780,-6,-11,-2,2,5,-2,-5,-1
1558433864650739,-4,-7,-18,-10,-6,0,-1,-5
1558433864650739,-2,4,1,0,-4,-3,1,1
1558433864658712,2,6,0,-3,-7,-4,-2,-2
1558433864658712,1,4,5,2,0,1,5,2
1558433864673672,0,0,4,2,4,3,2,1
1558433864673672,3,0,1,1,5,4,2,2
1558433864674670,3,3,-4,-1,2,0,0,1
1558433864674670,-6,-6,4,-1,-10,-9,-7,-5
1558433864689634,0,-3,-8,-5,-9,-5,-4,-3
1558433864689634,3,4,0,-3,-2,5,1,-4
1558433864696615,4,5,6,5,7,-5,3,6
1558433864696615,1,3,-2,-1,-1,1,-3,-3
1558433864710578,-15,-27,-2,0,-4,-4,-2,-7
1558433864710578,-3,-1,2,-2,-4,-5,-5,0
1558433864718605,-2,-2,-7,-9,-12,-8,-9,-5
1558433864718605,3,4,3,8,12,13,11,9
1558433864733513,12,15,2,4,7,3,5,5
1558433864733513,-15,-13,-3,3,5,4,-3,-4
1558433864734510,-4,3,-4,-4,-3,2,0,-1
1558433864734510,0,1,0,-1,-6,-8,-4,-2
1558433864748472,5,0,-1,-2,-9,-7,-6,-2
1558433864748472,4,-2,-5,-8,-7,-10,-6,-3
1558433864756452,-4,-5,1,2,6,7,1,-1
1558433864756452,-2,5,1,1,5,7,5,-1
1558433864770412,5,5,3,2,4,4,5,5
1558433864770412,3,3,2,0,-1,-6,-3,2
1558433864778392,-10,-11,-7,-3,-10,-7,-6,-5
1558433864778392,5,1,-3,-4,-3,-6,-2,2
1558433864793354,-3,0,4,1,-1,-3,0,-1
1558433864793354,-2,-6,-4,-4,-11,-7,-7,-5
1558433864794350,-11,-15,-2,0,5,2,0,-2
1558433864794350,-5,-5,0,-1,7,5,-3,-3
1558433864808314,4,7,-6,-2,-5,-4,-4,-4
1558433864808314,4,-3,3,1,-5,-10,3,4
1558433864816291,-1,-1,-5,-1,-1,-1,-3,-2
1558433864816291,-5,-6,-2,-1,-1,4,1,-2
1558433864830254,-1,-4,6,3,4,3,1,2
1558433864830254,7,15,1,0,1,5,0,1
1558433864838237,-2,-7,6,2,-3,-5,-1,-1
1558433864838237,-4,2,-9,-8,-7,-6,-4,-6
1558433864853192,1,-1,2,1,3,-2,1,0
1558433864853192,-3,-3,1,5,8,6,1,0
1558433864854190,-1,-3,-3,-4,-3,1,-3,-4
1558433864854190,-2,2,-2,-4,-9,-13,-11,-4
1558433864869150,9,1,2,-3,-1,-4,1,3
1558433864869150,-10,4,3,4,6,5,2,-3
1558433864875135,3,7,-1,-4,-1,4,3,2
1558433864875135,-4,-14,-6,-4,-7,2,1,-3
1558433864890093,-2,5,-4,-2,-1,-2,-1,1
1558433864890093,1,0,4,3,9,8,4,1
1558433864899070,8,12,5,0,-4,-6,-2,0
1558433864899070,3,4,1,-1,-5,-6,-2,0
1558433864914031,-2,1,-1,-2,-1,5,1,1
1558433864914031,1,-2,-3,1,4,5,3,-1
1558433864914031,-5,-10,-5,-5,-1,1,-1,-3
1558433864914031,-1,-5,-3,-1,-4,-5,0,1
1558433864927995,-2,1,1,0,-2,-5,-5,-3
1558433864927995,-2,-1,3,-3,-7,-2,-2,0
1558433864935972,4,6,0,-1,-2,-2,-4,1
1558433864935972,-3,-6,-2,1,2,4,2,1
1558433864950931,-4,-2,0,-1,3,3,0,-3
1558433864950931,0,-4,-4,0,-1,0,-2,-2
1558433864958913,-10,-10,1,4,2,-3,2,3
1558433864958913,1,9,-8,-9,-9,-10,-7,-5
1558433864973870,-6,-8,-4,-4,-7,-1,-3,-3
1558433864973870,-1,0,0,1,5,3,2,1
1558433864973870,2,0,0,0,-1,-2,-3,0
1558433864973870,-8,-6,3,0,2,4,4,0
