timestamp,emg1,emg2,emg3,emg4,emg5,emg6,emg7,emg8
1558433791395221,-1,-4,1,2,-3,-5,-2,2
1558433791395221,2,5,-8,-5,-1,-1,0,-3
1558433791395221,1,-1,0,-2,-5,-1,-1,0
1558433791395221,-2,-3,-1,3,3,5,5,0
1558433791396218,0,4,1,0,5,2,1,-1
1558433791396218,2,0,4,-2,-3,-3,-3,1
1558433791397216,-2,-11,5,3,0,-1,1,0
1558433791397216,-5,-9,-17,-8,-6,-9,-7,-3
1558433791409195,0,-1,-3,-6,-8,-1,-2,-3
1558433791409195,4,6,0,0,-1,-1,-1,1
1558433791416166,-1,1,3,3,8,6,1,-2
1558433791416166,5,2,9,3,4,2,3,4
1558433791424144,1,4,-3,1,4,0,2,0
1558433791424144,-12,-12,-4,-2,-6,-4,-7,-4
1558433791438106,0,2,-3,-3,-5,-4,-2,-1
1558433791438106,-4,-3,-1,-1,-4,-1,-3,-3
1558433791449076,3,3,0,2,1,3,3,4
1558433791449076,-1,1,5,5,4,4,3,-1
1558433791453066,-2,-2,-13,-6,7,1,-2,-1
1558433791453066,0,1,-4,-4,-4,-2,-1,-3
1558433791470021,0,-2,3,-1,-1,0,-3,-2
1558433791470021,-4,-5,0,0,-5,-2,-1,1
1558433791477003,0,3,1,1,0,-3,1,-1
1558433791477003,2,5,-3,0,-2,-6,-4,-4
1558433791515898,-6,-10,2,0,-1,-2,-1,-1
1558433791515898,-1,3,1,-2,0,2,1,0
1558433791516895,-1,-4,2,0,1,1,0,0
1558433791516895,-3,0,-5,-3,-6,-4,-3,-3
1558433791517893,4,5,0,-2,-2,-5,-3,1
1558433791517893,-1,-2,3,1,-2,1,1,1
1558433791520885,2,3,-4,-2,-3,-2,-2,-1
1558433791520885,-6,-10,-4,-4,-3,0,0,-3
1558433791528864,3,0,2,4,7,2,0,0
1558433791528864,0,0,-6,-2,0,3,2,1
1558433791535844,5,2,3,-1,-1,0,1,1
1558433791535844,-1,-3,-3,-1,-3,-4,-2,1
1558433791543823,-1,3,0,-3,-9,-8,-7,-7
1558433791543823,-7,-4,0,-2,-3,-3,-1,-2
1558433791557787,-2,2,-2,-1,-2,1,-3,-3
1558433791557787,-3,-5,1,2,2,0,0,-2
1558433791566761,-3,1,3,-1,-6,1,0,-1
1558433791566761,7,6,-3,3,5,2,2,0
1558433791572746,-5,-5,-5,0,3,0,-1,0
1558433791572746,6,8,5,1,5,2,-1,3
1558433791589701,-3,-6,1,0,-3,-2,-1,0
1558433791589701,-1,-3,1,-4,-9,-8,-6,-2
1558433791595684,-3,-3,-3,-1,-6,-2,-6,-3
1558433791595684,4,4,2,-3,2,2,0,-3
1558433791604660,-8,-10,-4,2,13,10,6,2
1558433791604660,2,0,-6,-4,-1,-6,-4,-3
1558433791617625,0,0,3,1,-2,-2,1,0
1558433791617625,3,5,1,0,-2,-1,-3,-1
1558433791626602,-10,-9,-7,-6,-10,-4,-5,-3
1558433791626602,-1,-3,-2,0,-3,-3,-2,-4
1558433791632585,1,1,4,1,1,-1,1,0
1558433791632585,-4,-7,-3,0,-2,-3,-1,-2
1558433791649539,5,6,-3,0,3,-2,2,2
1558433791649539,-4,-1,-5,-3,-2,-3,-4,-2
1558433791655558,1,4,-1,-3,0,0,-2,0
1558433791655558,-3,-9,4,0,-2,1,1,0
1558433791664500,-2,-4,-4,-1,-4,-1,0,0
1558433791664500,8,6,4,-1,-5,0,0,1
1558433791677465,-12,-5,-4,1,7,4,3,-2
1558433791677465,0,7,5,2,-1,-3,0,1
1558433791686481,2,-4,-17,-8,-6,-1,-2,-3
1558433791686481,4,3,6,3,3,0,0,0
1558433791692426,-5,-7,-2,-3,-7,-4,-1,1
1558433791692426,1,2,-2,1,6,3,-1,0
1558433791709382,1,-1,-1,-2,-4,-4,-2,-3
1558433791709382,-1,-2,-14,-6,-6,-3,-4,-2
1558433791715367,5,2,1,-2,-3,-2,-4,-2
1558433791715367,-5,-4,-4,-2,1,5,4,3
1558433791724342,6,9,11,3,4,5,2,0
1558433791724342,-3,3,4,0,1,-4,-3,1
1558433791738304,-5,-17,-7,-3,-3,-7,-1,-2
1558433791738304,-1,-2,-5,-3,-8,-3,-1,-1
1558433791747279,3,7,7,4,3,0,2,-1
1558433791747279,-1,-1,-4,-3,2,4,1,-4
1558433791753265,3,-5,-6,-5,-3,-5,-4,-3
1558433791753265,-1,6,-2,-1,-4,-5,-3,-2
1558433791769223,-1,-2,0,1,3,1,0,1
1558433791769223,0,3,9,8,10,8,3,3
1558433791775272,4,3,-3,1,-1,-1,0,2
1558433791775272,-2,-7,-10,-7,-9,-5,-3,-3
1558433791784182,-6,-4,2,-1,-1,-3,-3,-2
1558433791784182,-2,-4,-8,-3,-3,-5,-5,-6
1558433791798144,-3,0,4,0,3,3,2,4
1558433791798144,0,-3,2,1,8,4,2,-2
1558433791807122,1,8,-1,-1,-6,-3,-1,-1
1558433791807122,-5,-11,2,1,-1,-2,3,1
1558433791820085,-2,-9,-10,-3,-2,1,-1,-2
1558433791820085,-2,0,-3,-1,-3,-4,-3,0
1558433791829061,-6,-5,0,-4,-4,-2,-4,-4
1558433791829061,2,4,1,-2,-3,-1,-1,-2
1558433791835046,-1,2,8,1,-3,-4,-3,-2
1558433791835046,2,-3,-2,-1,3,2,3,7
1558433791844020,-2,2,-3,-2,3,0,-2,-9
1558433791844020,7,2,0,1,-3,1,3,4
1558433791857983,-16,-5,-5,-2,-3,-1,-1,-5
1558433791857983,2,4,12,1,-3,-4,-2,-2
1558433791872943,-2,-1,-4,-3,-1,-1,-2,3
1558433791872943,-1,-2,3,2,0,-1,0,-1
1558433791879925,6,7,5,3,8,8,2,1
1558433791879925,2,1,-3,2,5,3,1,-1
1558433791889166,-1,-5,2,0,-2,0,1,4
1558433791889166,-9,-3,-5,-4,-9,-8,-6,-6
1558433791894887,0,-6,-8,-7,-9,-10,-5,-2
1558433791894887,-5,-2,-2,-1,-5,-4,-3,-3
1558433791903864,7,5,-1,0,5,6,0,3
1558433791903864,1,-5,2,2,5,5,3,1
1558433791917824,4,6,-2,0,0,0,-3,-2
1558433791917824,-4,-6,5,0,-6,-6,-5,-4
1558433791926800,-1,-1,-1,1,3,2,5,2
1558433791926800,-6,-3,-8,-6,-1,1,-1,1
1558433791948742,0,0,6,3,4,1,0,-2
1558433791948742,-1,-3,-5,-4,-11,-4,-3,-3
1558433791950735,3,4,3,1,5,2,2,3
1558433791950735,1,2,4,3,6,5,2,2
1558433791955724,-2,-3,-6,-4,-4,-3,0,-5
1558433791955724,-5,-5,-4,-2,-3,-8,-7,-4
1558433791964699,5,6,1,-2,-7,-5,-4,-1
1558433791964699,-19,-13,-12,-7,-3,-4,-2,-3
1558433791986640,5,1,-2,0,-2,2,2,1
1558433791986640,1,-3,-1,-2,8,6,4,2
1558433791987638,-8,-8,1,0,-5,-6,-4,-5
1558433791987638,5,6,-1,-3,-5,-9,-7,-3
1558433792000613,4,6,3,-1,-2,0,2,0
1558433792000613,-5,0,-4,-2,0,3,4,-1
1558433792009586,2,-3,-16,-1,6,4,-2,2
1558433792009586,-5,-3,0,4,11,5,-1,-2
1558433792015566,-3,-3,2,-2,-12,-10,-3,-2
1558433792015566,2,4,-1,-5,-9,-6,-7,-7
1558433792024541,-2,-3,-3,-4,-4,-4,1,0
1558433792024541,3,-2,0,-2,-2,-2,0,-2
1558433792037512,-8,-6,6,2,5,2,-1,1
1558433792037512,4,6,0,4,8,6,2,3
1558433792046484,3,-1,1,1,-8,-7,-4,-3
1558433792046484,-4,-7,-8,-5,-7,-6,-2,-4
1558433792060443,5,13,7,2,3,5,3,4
1558433792060443,-4,-5,-5,4,14,9,2,-2
1558433792069418,-5,-10,4,0,-5,-4,-5,-4
1558433792069418,8,9,18,9,0,-2,3,3
1558433792075433,-6,-8,-25,-13,-5,-4,-6,-3
1558433792075433,-1,3,-1,1,5,0,0,-1
1558433792084377,-4,1,-4,-2,-4,-2,-2,0
1558433792084377,-1,-6,-1,-2,-12,-8,-5,-3
1558433792097344,-10,-1,4,1,2,4,1,-1
1558433792097344,2,-1,4,0,0,-3,-1,7
1558433792106319,-3,-3,-13,-6,-2,0,-2,-11
1558433792106319,-4,1,5,-2,-3,2,-1,-2
1558433792120281,7,3,-4,0,4,-2,-2,0
1558433792120281,-8,-6,-4,0,-1,0,-2,-3
1558433792129257,-9,-3,8,1,0,-3,0,6
1558433792129257,8,10,-2,-3,-1,1,-2,-6
1558433792135241,-17,-18,-5,3,3,0,-3,-8
1558433792135241,5,7,-4,-9,-8,-7,-1,3
1558433792150202,4,3,2,-5,-7,-3,-2,0
1558433792150202,-4,-7,0,1,0,2,2,2
1558433792158207,4,2,-1,1,7,3,2,3
1558433792158207,-6,-8,-6,-3,-4,-5,-4,-6
1558433792167156,0,1,0,-2,2,4,2,2
1558433792167156,4,12,3,0,-1,-3,0,5
1558433792189099,-9,-10,3,3,-5,-4,-3,2
1558433792189099,-3,0,1,-1,-3,-1,-4,-7
1558433792191092,-1,-1,-9,-4,6,8,5,1
1558433792191092,9,3,6,5,5,4,3,0
1558433792195082,1,3,-4,-1,-5,-4,-2,-3
1558433792195082,-7,-9,0,-4,-7,-3,-4,-4
1558433792210041,0,1,2,2,-7,-7,-4,0
1558433792210041,3,7,8,2,3,3,1,3
1558433792226996,9,8,2,2,9,3,2,2
1558433792226996,4,3,1,2,4,7,2,1
1558433792227993,-1,2,-9,-6,-4,-4,-4,-5
1558433792227993,-9,-15,-11,-6,-8,-5,-3,-3
1558433792239965,0,-4,7,-2,-9,-8,-4,-1
1558433792239965,-1,1,17,7,11,4,0,-1
1558433792248941,0,-10,-12,-2,-2,-2,0,-1
1558433792248941,-4,3,4,-1,1,-1,-1,-2
1558433792254921,1,3,-8,-3,-2,1,1,2
1558433792254921,2,-2,-3,2,2,2,1,0
1558433792269883,-1,0,10,6,1,-2,-1,1
1558433792269883,-12,-9,-4,0,-1,-3,-4,-1
1558433792277859,2,-4,-13,-9,-7,-4,-1,0
1558433792277859,0,1,7,-2,-7,-5,0,-1
1558433792286835,2,5,10,4,1,3,2,-1
1558433792286835,-2,-4,-18,-4,11,5,-1,-2
1558433792300800,-6,-3,5,0,-6,-3,-2,-1
1558433792300800,9,5,-3,-2,-3,1,1,3
1558433792308779,-12,-11,6,0,0,-6,-3,-6
1558433792308779,-4,-8,-12,-9,-10,-5,-2,-4
1558433792315761,2,5,8,2,8,0,0,-1
1558433792315761,4,4,-3,2,-2,-1,-2,0
1558433792330720,3,8,-2,-1,-1,-1,-1,2
1558433792330720,3,-5,4,-1,-2,-2,-1,0
1558433792337702,-12,-15,-27,-11,-7,-4,-2,-5
1558433792337702,4,6,5,1,-5,-2,0,1
1558433792346676,4,6,9,2,10,6,0,-1
1558433792346676,-11,-8,-11,0,-1,-4,-3,-5
1558433792360638,10,9,6,-3,-6,-3,-4,-4
1558433792360638,-3,-3,0,1,0,-3,-1,2
1558433792369614,5,6,-14,-8,-4,-1,-4,-3
1558433792369614,1,-3,14,0,1,3,3,3
1558433792375599,3,3,14,8,13,6,6,4
1558433792375599,-5,-6,-16,-4,1,2,-2,1
1558433792390558,1,-2,-11,-7,-4,-2,-2,1
1558433792390558,-5,8,5,0,-8,-7,-3,-4
1558433792397540,-7,-13,3,-2,-11,-7,-5,-2
1558433792397540,0,5,1,-1,-1,-3,-1,-4
1558433792406529,3,-1,7,7,9,5,4,5
1558433792406529,-2,-3,-6,-3,0,0,-3,-2
1558433792420482,2,2,-11,-3,0,2,-2,-2
1558433792420482,-1,4,11,6,5,1,2,0
1558433792429454,-15,-19,-14,-12,-17,-10,-6,-8
1558433792429454,6,6,8,4,4,5,5,2
1558433792435440,6,8,7,2,7,5,2,3
1558433792435440,-10,-7,-1,-5,-7,-5,-5,-7
1558433792450398,2,5,4,1,-2,-3,-1,0
1558433792450398,-7,-10,-5,-4,-3,-3,-3,-4
1558433792457382,0,0,-5,3,2,4,1,-2
1558433792457382,0,-2,1,-4,3,4,1,1
1558433792466355,0,1,4,5,8,7,3,1
1558433792466355,6,9,1,0,-3,-4,-2,-2
1558433792480320,0,-7,0,-2,-6,-6,-5,-2
1558433792480320,-6,1,-1,-5,-18,-13,-8,-4
1558433792496278,0,-3,7,0,1,2,4,1
1558433792496278,7,-4,-11,3,12,5,0,5
1558433792503258,4,5,-5,-2,-1,2,0,-5
1558433792503258,-15,-23,-10,-6,-4,-2,-2,-2
1558433792510241,5,9,12,5,-2,-1,-1,2
1558433792510241,1,8,7,-1,-2,1,4,0
1558433792527200,-4,-4,-13,-6,-5,-5,-4,-3
1558433792527200,8,0,13,6,3,2,1,0
1558433792528193,-9,-7,-30,-10,-7,-4,-5,-3
1558433792528193,-1,-1,7,2,1,2,1,1
1558433792540168,-2,6,6,1,12,9,4,4
1558433792540168,-3,-10,-5,-1,2,1,3,2
1558433792549137,4,6,9,5,0,-3,0,0
1558433792549137,0,0,-7,-4,-2,-7,-4,0
1558433792564096,2,2,0,-4,-12,-8,-5,-2
1558433792564096,-13,-5,-3,1,-1,-4,-4,-7
1558433792570081,2,-4,-9,-7,-1,-5,-5,-3
1558433792570081,-7,-4,-2,0,2,4,3,-2
1558433792587037,2,6,9,2,3,1,-1,1
1558433792587037,7,4,-4,1,0,0,1,2
1558433792588031,-2,3,11,3,-1,0,-2,0
1558433792588031,-3,-11,-21,-11,-11,-8,-7,-7
1558433792600002,-1,5,8,1,-3,-2,-1,-1
1558433792600002,1,-8,-6,-5,-1,0,3,4
1558433792608975,-1,-6,-9,-3,6,3,2,-7
1558433792608975,-7,1,-1,1,1,-1,1,3
1558433792623934,-1,-1,4,0,-5,-5,-2,-1
1558433792623934,0,3,-1,0,0,2,-3,-2
1558433792629919,0,-6,-2,-3,2,1,-1,1
1558433792629919,-3,2,12,4,0,-1,-1,-3
1558433792646873,-3,-9,-25,-10,-10,-10,-6,-5
1558433792646873,10,12,6,3,1,-1,-2,2
1558433792647869,-4,-8,-7,0,4,6,4,0
1558433792647869,2,-1,1,-2,5,6,4,1
1558433792660838,-3,1,11,2,-5,-1,0,1
1558433792660838,-12,-30,-27,-14,-11,-10,-4,-4
1558433792669813,3,5,2,-3,-9,-8,-8,-4
1558433792669813,-1,11,-1,0,-2,1,1,1
1558433792683786,0,-1,18,11,17,10,6,0
1558433792683786,-3,-4,-19,-7,2,1,-2,-1
1558433792690765,-2,-1,12,5,-4,-6,-4,-2
1558433792690765,-1,-5,-13,-10,-13,-10,-5,-2
1558433792706723,1,4,0,-5,-5,-2,-1,0
1558433792706723,7,13,15,9,11,5,4,1
1558433792707723,-3,-4,-5,-1,1,1,-2,1
1558433792707723,-9,-9,-1,-4,-5,-3,-4,-2
1558433792720678,-1,-5,-2,1,0,-1,1,0
1558433792720678,2,7,3,-2,-4,-2,-2,0
1558433792729664,1,1,7,4,-1,0,0,0
1558433792729664,4,1,-8,-3,4,2,-2,-2
1558433792743721,-4,-1,2,0,-3,-3,-4,-3
1558433792743721,2,6,6,2,-2,-4,0,3
1558433792750597,-6,-8,-19,-10,-7,-4,-3,-10
1558433792750597,3,6,4,4,0,2,0,1
1558433792766563,-4,-2,0,-3,4,2,-2,-1
1558433792766563,3,4,7,3,-1,-1,-2,-1
1558433792768550,-1,3,7,-1,-2,0,3,4
1558433792768550,0,-13,-17,-7,-7,-2,-1,0
1558433792780516,1,1,7,6,10,4,0,-5
1558433792780516,-5,-5,-11,-8,-6,-6,-2,-2
1558433792789491,2,4,-13,-8,-5,-4,-3,0
1558433792789491,-6,-7,8,4,-3,-2,0,-1
1558433792803455,2,-5,2,-1,-3,1,-2,3
1558433792803455,-4,2,-4,0,8,6,1,-6
1558433792810435,-2,-6,0,5,2,2,4,1
1558433792810435,4,11,9,1,-1,-5,-2,-1
1558433792826393,-4,-3,-4,-4,-10,-9,-5,-1
1558433792826393,3,-3,-13,-9,-6,-6,-3,-1
1558433792828388,-5,-6,1,0,1,2,-2,0
1558433792828388,2,-2,-2,2,4,3,-1,1
1558433792840415,-7,-2,-3,4,4,3,4,0
1558433792840415,0,-10,9,6,-1,0,1,3
1558433792849334,-4,-6,-8,-7,-7,-6,-3,-7
1558433792849334,-3,-2,4,-1,-1,-2,-2,-6
1558433792863293,-3,-3,-7,-5,1,0,-1,-4
1558433792863293,5,10,-2,2,4,7,0,3
1558433792872269,-2,-5,9,4,9,3,5,5
1558433792872269,1,0,1,0,-5,-3,-3,3
1558433792886236,-1,3,-3,-1,-6,-3,0,-1
1558433792886236,7,6,0,-6,-8,-5,-2,-2
1558433792888227,1,-4,8,5,2,1,-1,0
1558433792888227,-2,1,-5,-2,0,-1,-3,-4
1558433792900195,0,-1,4,0,2,2,2,3
1558433792900195,-6,-8,-3,-5,-4,-7,-4,-4
1558433792909184,-1,5,-9,-4,-8,-2,0,1
1558433792909184,2,-4,5,5,8,3,2,3
1558433792923136,2,0,-1,2,5,5,2,1
1558433792923136,-4,0,11,4,0,0,1,2
1558433792932111,0,3,-3,-3,-3,-1,0,-1
1558433792932111,1,3,-3,-2,-4,-5,0,-3
1558433792947075,-7,-4,-9,-10,-15,-14,-11,-8
1558433792947075,-1,-6,6,5,8,6,3,1
1558433792948068,-10,-1,0,3,5,6,1,2
1558433792948068,0,-5,1,-1,0,2,0,-2
1558433792960039,5,3,-10,-7,-6,-8,-4,-2
1558433792960039,-3,4,-1,-4,-8,-4,-3,-6
1558433792977003,7,10,12,6,8,3,1,1
1558433792977003,-9,-7,7,1,0,1,0,-2
1558433792982975,-2,-8,-6,-6,-3,-2,1,1
1558433792982975,-3,-6,-17,-8,-4,0,-2,-2
1558433792998937,4,3,1,-1,4,4,-1,1
1558433792998937,8,10,14,5,5,-3,-1,-2
1558433793007019,-1,1,0,3,-2,-1,-2,5
1558433793007019,-1,-7,0,-1,-1,-3,-3,-4
1558433793007912,-4,-5,-8,-5,-7,-2,-1,-2
1558433793007912,2,2,1,1,-1,3,1,3
1558433793020875,1,0,-1,-2,1,3,2,0
1558433793020875,7,12,9,3,0,-3,0,1
1558433793028853,-17,-26,-12,-7,-7,-4,-6,-7
1558433793028853,-2,-5,-4,-3,-3,-2,-1,-3
1558433793042814,-1,0,8,2,2,4,0,-2
1558433793042814,1,9,-7,-3,4,1,-1,1
1558433793051792,3,2,4,2,-2,-6,-1,-1
1558433793051792,-16,-17,-18,-6,0,1,0,-4
1558433793065753,2,-1,3,-3,-2,-2,-1,-2
1558433793065753,3,8,6,3,-3,2,-2,1
1558433793072734,-1,-7,-3,-4,-2,-1,1,2
1558433793072734,5,16,-9,-3,-1,-1,0,1
1558433793080713,-9,-8,-2,-1,-3,-1,-3,-6
1558433793080713,-5,-7,-1,0,1,1,-1,-1
1558433793089689,9,2,0,3,-1,-3,-1,0
1558433793089689,-4,-7,12,2,1,-1,-3,-1
1558433793103005,-3,2,-5,-3,-5,-3,0,-3
1558433793103005,-1,-7,-12,-4,1,0,1,1
1558433793111823,-2,8,9,3,3,4,0,2
1558433793111823,5,8,4,1,1,-1,1,1
1558433793126740,-2,-11,-3,2,0,-1,-3,1
1558433793126740,-5,-4,2,0,-4,-4,-3,-4
1558433793132760,-1,6,-9,-8,-12,-9,-3,-4
1558433793132760,-5,-14,-6,-4,-2,-1,-2,-2
1558433793149714,4,2,4,5,11,7,3,2
1558433793149714,0,1,6,5,6,4,3,0
1558433793150527,1,1,2,-1,2,2,0,-1
1558433793150527,1,9,-5,-2,-5,-4,-2,1
1558433793162496,0,-2,1,-2,-8,-8,-1,-1
1558433793162496,-6,-12,-8,-3,-4,0,-2,-2
1558433793179453,-3,-2,-3,-3,2,-1,-6,-7
1558433793179453,2,-3,-3,-7,-9,-5,-3,-2
1558433793186648,7,11,-1,1,5,0,0,1
1558433793186648,-7,-6,-10,-6,-3,-1,0,0
1558433793193630,-8,-5,9,4,-4,-1,-1,0
1558433793193630,1,-4,-17,-7,0,-2,-1,-2
1558433793200604,-7,-5,-5,-8,-5,-3,-1,-5
1558433793200604,3,7,8,2,0,0,1,-2
1558433793209372,5,4,-5,-3,2,3,1,3
1558433793209372,-4,-11,7,7,10,6,1,0
1558433793223339,-3,-6,5,4,2,0,-3,0
1558433793223339,3,2,-5,-3,-7,-5,-2,5
1558433793232308,-17,-10,-1,-2,-9,-8,-5,-12
1558433793232308,1,2,-5,-1,-5,-3,-1,-2
1558433793246273,1,3,-1,0,0,2,3,-1
1558433793246273,-2,-12,1,3,0,1,0,-1
1558433793253296,7,9,2,-1,0,-4,-1,4
1558433793253296,-5,-8,-15,-9,-10,-4,-1,0
1558433793268212,0,4,4,0,5,3,0,-2
1558433793268212,2,0,1,-2,0,-1,-3,0
1558433793277189,4,4,-2,-3,-9,-4,-5,-4
1558433793277189,-7,-2,-6,0,6,0,-2,-2
1558433793283170,1,2,6,2,0,-1,1,0
1558433793283170,-2,0,-1,-2,-3,-2,0,-2
1558433793292176,6,10,5,6,6,4,3,2
1558433793292176,-1,-7,-9,-7,-6,-3,-6,2
1558433793306137,-1,-8,3,0,-7,-4,-5,-1
1558433793306137,-9,-14,-10,-1,5,1,1,-3
1558433793313089,4,4,-2,-3,0,-2,2,3
1558433793313089,6,9,14,6,2,3,4,0
1558433793329294,-2,1,-3,1,3,-2,-1,-1
1558433793329294,0,-4,-1,-1,-5,-4,-4,-3
1558433793331077,-5,-5,-4,-3,-5,-4,-5,-3
1558433793331077,2,2,9,3,3,0,0,3
1558433793343363,-2,-4,-13,-5,-3,-1,-3,-3
1558433793343363,6,15,9,5,4,1,-1,-1
1558433793351988,-1,-1,-7,-2,1,-1,0,0
1558433793351988,-8,-13,6,-1,-5,-3,-3,-4
1558433793374279,-3,-6,-9,-5,-5,-3,-2,-2
1558433793374279,-4,-3,0,1,5,3,3,1
1558433793375924,2,-7,7,-1,2,1,-2,1
1558433793375924,-5,-2,-16,-8,-10,-9,-8,-9
1558433793389092,1,6,-1,-2,0,-1,4,2
1558433793389092,0,6,10,5,6,5,0,-1
1558433793390884,-3,-8,-2,1,2,4,1,3
1558433793390884,3,3,4,-2,-5,-5,-2,2
1558433793403086,-8,-12,-4,-3,-2,-3,-4,-5
1558433793403086,-3,1,-7,-7,-9,-6,-4,-3
1558433793411841,1,-3,1,0,0,-1,2,-1
1558433793411841,2,2,9,9,18,11,3,-1
1558433793426801,5,10,4,4,1,-1,-3,1
1558433793426801,-15,-17,-19,-11,-7,-6,-2,-3
1558433793432772,1,2,3,2,-3,-1,-4,1
1558433793432772,3,9,-10,-7,-5,-1,1,4
1558433793449914,0,2,12,6,2,1,0,3
1558433793449914,-5,-18,-7,-4,-10,-6,-3,-5
1558433793451724,1,5,3,3,3,2,0,-1
1558433793451724,4,6,7,4,6,3,2,1
1558433793462692,2,-4,-8,-3,-5,-1,0,-1
1558433793462692,1,10,5,4,1,0,-1,-1
1558433793479652,-8,-12,-19,-8,2,0,-2,-2
1558433793479652,-3,-1,11,4,-3,-1,2,-2
1558433793486630,4,4,11,1,-3,-2,-1,-2
1558433793486630,-4,-14,-22,-11,-11,-8,-4,-3
1558433793492619,-2,-6,-13,-6,-1,-2,3,-1
1558433793492619,3,5,4,2,9,4,1,1
1558433793509566,-3,-3,0,-2,0,0,1,2
1558433793509566,6,8,15,6,3,0,-1,2
1558433793510566,1,4,-2,-3,-1,2,-1,-1
1558433793510566,-6,-15,-8,-4,-8,-6,-1,-1
1558433793522561,0,-2,-3,-3,-2,-4,-2,-3
1558433793522561,-4,4,6,1,2,1,-3,0
1558433793531506,2,1,-9,-2,-2,-3,4,1
1558433793531506,-5,-11,-2,-6,-5,-3,-4,-5
1558433793545703,-1,1,-2,-4,0,1,-2,0
1558433793545703,2,4,-4,-3,-8,-9,-5,-3
1558433793553563,2,-2,4,2,4,3,0,0
1558433793553563,-1,2,3,1,1,4,2,0
1558433793569490,-1,2,-4,-2,1,-1,-3,-1
1558433793569490,-3,2,4,0,1,0,0,2
1558433793570580,-5,-6,3,2,0,1,-4,-2
1558433793570580,0,5,1,0,-6,-8,-2,-1
1558433793583534,-5,-8,1,-2,-6,-3,-2,-1
1558433793583534,3,-5,-12,-2,3,2,-2,-3
1558433793592356,2,4,4,-3,-4,-6,-1,-2
1558433793592356,-7,-4,-3,-2,-2,0,0,-3
1558433793605463,4,3,0,-3,-1,-1,0,-1
1558433793605463,3,0,4,2,3,5,3,2
1558433793614291,-14,-11,-7,-1,-1,1,-1,-4
1558433793614291,0,1,-1,-2,-1,-3,-4,-1
1558433793629288,-1,0,-5,-1,-2,-2,-1,-1
1558433793629288,-2,-1,1,-1,-3,-4,-2,-4
1558433793630244,3,4,2,0,0,-1,-1,1
1558433793630244,-1,2,2,1,-4,-4,-1,1
1558433793643223,-1,0,-4,4,9,8,4,4
1558433793643223,1,4,1,1,0,5,1,-3
1558433793652195,-1,-10,0,-1,0,-3,-4,0
1558433793652195,-1,-1,-5,-3,-7,-6,-2,-2
1558433793666151,1,1,7,3,3,1,-2,-1
1558433793666151,2,4,-1,-1,-3,-1,0,1
1558433793680113,1,2,3,-2,-1,-3,0,0
1558433793680113,-2,-5,-5,0,-1,-1,-2,0
1558433793689086,-1,1,-14,-10,-2,3,-1,-2
1558433793689086,-8,-6,8,2,0,0,1,0
1558433793691082,1,-10,-4,-2,-6,-6,-4,-3
1558433793691082,1,0,7,4,5,3,1,3
1558433793703051,-9,-8,-1,3,-1,0,0,-3
1558433793703051,-2,1,-8,-7,-3,-2,-2,-6
1558433793712050,2,2,-1,2,11,7,2,2
1558433793712050,6,4,2,3,1,1,0,3
1558433793725985,-16,-13,-14,-8,-8,-8,-7,-7
1558433793725985,2,-2,1,-2,-7,-7,-7,-4
1558433793733002,-3,2,-1,0,-4,2,5,0
1558433793733002,7,6,5,0,4,2,0,-2
1558433793749275,4,4,-2,-2,3,2,4,2
1558433793749275,-1,-4,0,-1,-2,-5,-4,2
1558433793750922,-4,-8,-10,-7,-11,-8,-7,-3
1558433793750922,-5,-4,-4,-1,2,3,3,0
1558433793762886,3,6,6,1,1,0,-2,-5
1558433793762886,0,-2,-8,-3,0,0,0,2
1558433793771895,5,9,3,-1,-4,0,0,-1
1558433793771895,-6,-12,1,0,4,2,-1,-3
1558433793785981,2,4,5,2,3,-1,0,4
1558433793785981,7,4,7,4,2,1,1,0
1558433793793064,-1,-3,-7,-4,-3,-2,0,-1
1558433793793064,-6,-9,-24,-12,-5,-1,-5,-5
1558433793810019,1,-3,4,0,-3,-1,0,-1
1558433793810019,4,9,8,4,-1,-3,-2,-2
1558433793810765,1,3,2,0,-6,-3,-2,0
1558433793810765,-3,0,-2,-1,-4,-1,-2,-2
1558433793823726,3,-3,1,1,0,1,0,0
1558433793823726,-1,9,4,6,4,4,6,2
1558433793831709,-6,-12,-6,-3,6,2,-4,-1
1558433793831709,0,2,-3,-4,-7,-8,-4,-4
1558433793845858,-6,-8,-4,-3,-6,-3,-2,-1
1558433793845858,-7,-14,-2,-1,-4,-4,-2,-2
1558433793852837,-3,3,3,4,5,5,4,-1
1558433793852837,4,4,-2,-3,-7,-6,-1,-1
1558433793869821,5,6,2,0,-3,-5,-2,1
1558433793869821,-1,-1,-3,-1,11,7,3,0
1558433793870604,-4,-1,13,6,5,1,0,-3
1558433793870604,-1,0,3,0,-3,0,0,1
1558433793882569,-4,-10,-23,-13,-11,-11,-6,-3
1558433793882569,4,-1,-11,-9,-5,-3,-1,-1
1558433793891555,0,0,-5,-3,-4,-1,-1,-6
1558433793891555,-1,4,7,5,5,5,4,0
1558433793906729,2,4,8,7,9,4,1,1
1558433793906729,2,-1,5,0,7,4,2,4
1558433793912506,0,-2,-5,-2,0,1,-2,-1
1558433793912506,-4,-12,-8,-7,-6,-5,-3,0
1558433793929443,-1,-1,-1,-2,-5,-3,-5,-5
1558433793929443,-4,3,-2,-1,-6,1,-2,-6
1558433793930439,0,1,7,0,-8,-10,-4,-1
1558433793930439,-4,-8,-12,-6,-2,-4,-1,1
1558433793943523,0,4,5,5,16,13,6,3
1558433793943523,-1,-5,0,1,0,-3,-2,-1
1558433793951681,3,3,-4,-3,-2,-3,2,4
1558433793951681,0,2,3,0,-4,-3,-4,-2
1558433793966648,-11,-6,3,1,-9,-7,-1,-3
1558433793966648,-1,7,-2,-3,-1,2,-1,-5
1558433793973615,-12,-4,-5,-3,6,5,4,-4
1558433793973615,5,-2,-2,-1,0,-3,1,1
1558433793988568,-2,-4,-1,-5,-12,-7,-5,-2
1558433793988568,1,3,5,4,2,1,3,4
1558433793995584,-2,-5,-2,0,7,3,1,0
1558433793995584,2,5,-5,-5,-2,3,-1,0
1558433794003512,1,-2,6,5,2,-2,0,-2
1558433794003512,-5,-8,-7,-5,-7,-6,-7,-4
1558433794012231,2,2,2,1,-7,-5,-2,0
1558433794012231,-1,5,2,4,5,1,-1,-4
1558433794026403,0,-9,-3,-2,2,1,3,1
1558433794026403,-4,-2,-5,-3,-7,-4,-3,3
1558433794033203,-1,-6,4,2,0,0,-3,-3
1558433794033203,-4,-5,-12,-4,-2,-4,-3,-4
1558433794048131,6,4,-1,-1,1,-1,0,1
1558433794048131,-6,-4,3,1,7,5,2,1
1558433794056115,6,3,2,-1,-8,-3,-1,-2
1558433794056115,-4,-1,1,1,0,1,-1,-1
1558433794072072,3,2,-1,-4,-3,0,-2,-1
1558433794072072,-3,-9,-14,-8,-9,-9,-4,-3
1558433794073059,4,7,11,6,0,3,3,3
1558433794073059,-4,-4,-4,-4,-2,-2,-2,-3
1558433794086032,-4,-5,-6,-3,1,-1,-2,-2
1558433794086032,5,7,-1,0,0,0,1,0
1558433794093014,-3,-3,-1,-2,-4,-1,-3,-1
1558433794093014,3,-5,2,-1,2,2,-1,1
1558433794109253,-14,-10,-6,-2,-1,-5,-4,-5
1558433794109253,0,7,5,-1,-1,1,2,-3
1558433794115946,-2,-8,-12,-9,-8,-7,-3,-3
1558433794115946,3,-3,4,1,2,0,0,3
1558433794122968,-2,2,-1,1,0,1,1,-1
1558433794122968,-1,-5,-4,2,-4,0,-1,-2
1558433794131903,2,6,2,2,7,5,-1,0
1558433794131903,1,2,4,0,-6,-3,-1,-1
1558433794144875,1,4,0,-1,-2,-3,-3,-2
1558433794144875,0,-3,-2,-2,-7,-6,-2,-2
1558433794153950,-13,-9,-3,-3,3,-2,-1,-2
1558433794153950,1,1,1,3,4,5,-1,-1
1558433794168916,4,6,8,3,0,1,3,1
1558433794168916,-4,-9,-14,-8,-2,-2,-2,-3
1558433794175837,-1,0,-3,-5,-3,-1,-2,-2
1558433794175837,-3,3,3,1,0,-3,-3,-3
1558433794191851,0,-1,2,0,-1,0,1,1
1558433794191851,2,1,5,2,-6,-5,-1,-2
1558433794192749,-2,1,-7,-6,-5,-5,-2,-2
1558433794192749,-1,3,3,1,3,0,0,1
1558433794205714,3,1,0,1,2,4,-1,0
1558433794205714,-3,-13,-14,-7,0,0,-1,0
1558433794212725,2,0,5,3,4,-4,-4,0
1558433794212725,2,7,3,-2,1,-2,-2,-2
1558433794228873,-5,-8,-4,-4,-5,-1,0,2
1558433794228873,2,4,11,6,4,2,1,3
1558433794235629,-3,0,0,-3,-9,-8,-2,0
1558433794235629,2,1,-13,-8,-9,-6,-4,-3
1558433794251591,3,2,3,5,11,5,1,-1
1558433794251591,-10,-6,3,-2,3,3,2,-2
1558433794253579,5,3,-2,-2,-4,-3,-2,-1
1558433794253579,-2,2,9,1,-6,-4,-2,1
1558433794266751,-4,-10,-6,-2,0,2,0,-2
1558433794266751,0,6,8,6,10,3,-3,0
1558433794273631,11,2,1,0,1,0,2,2
1558433794273631,-7,-5,-3,-1,0,-1,-1,0
1558433794296461,-2,-1,-6,-6,-13,-9,-6,-9
1558433794296461,-1,-6,-3,-1,-3,-3,-2,-3
1558433794298457,5,8,4,-1,1,6,2,1
1558433794298457,-4,-7,-4,0,3,3,5,1
1558433794312426,2,0,-10,-2,4,-1,1,1
1558433794312426,0,3,1,-1,-1,1,0,-1
1558433794313416,-4,-1,1,1,0,0,-5,-5
1558433794313416,2,-1,10,3,-1,1,1,-1
1558433794326385,-4,3,-16,-6,-4,-7,-2,-3
1558433794326385,-4,-6,-10,-7,-6,-5,-3,2
1558433794333363,-3,-4,-5,0,-3,1,2,1
1558433794333363,-4,-6,-5,-3,4,4,-2,-3
1558433794348322,3,5,12,4,1,-3,-2,-1
1558433794348322,2,6,1,1,0,-2,0,0
1558433794355482,-1,-2,-4,-2,1,1,2,1
1558433794355482,-2,-13,-6,-3,0,-1,2,0
1558433794372281,-4,5,2,-3,-5,-4,-3,-4
1558433794372281,-2,-3,-1,-4,-1,0,-2,1
1558433794373264,-2,-3,-2,1,1,4,-1,1
1558433794373264,1,9,1,1,-1,-1,-3,-2
1558433794386451,0,-5,-6,-4,-7,-3,-2,1
1558433794386451,0,-13,1,2,-1,-3,0,-1
1558433794393422,3,9,12,5,3,1,2,-2
1558433794393422,-5,-6,-12,-5,1,-4,-4,-3
1558433794409166,-2,-2,-9,-7,-7,-4,-3,-2
1558433794409166,3,5,6,3,-1,-1,3,2
1558433794415142,-2,0,-7,-3,-1,-3,-3,-1
1558433794415142,-1,0,8,7,10,6,2,0
1558433794432099,0,-1,1,0,4,3,0,0
1558433794432099,-2,-1,-6,-3,-4,-5,-3,-3
1558433794433100,-4,-10,0,-2,-5,-4,-5,-5
1558433794433100,1,6,-2,-1,-5,-1,2,1
1558433794446073,6,0,5,1,2,2,1,0
1558433794446073,-4,-2,-10,-2,6,2,-3,-5
1558433794453268,3,2,0,2,1,-1,-2,-1
1558433794453268,-20,-16,-1,-1,-1,-1,0,-1
1558433794469002,4,2,-12,-7,-2,-1,0,3
1558433794469002,-1,3,3,-3,-9,-6,-1,-1
1558433794475121,-4,-9,0,0,-2,-3,-1,1
1558433794475121,8,8,-5,-1,-1,0,0,-4
1558433794492151,-9,-9,3,3,8,3,0,-1
1558433794492151,-1,4,0,-2,2,1,-2,0
1558433794492945,-3,-4,-1,-1,-5,-4,-3,0
1558433794492945,0,-4,-1,-6,-11,-6,-3,-3
1558433794506048,-3,0,-11,-5,-1,-2,-1,-3
1558433794506048,7,7,1,1,9,5,2,0
1558433794512882,-3,-3,4,1,0,-1,-1,-3
1558433794512882,0,0,5,2,-9,-8,-4,0
1558433794529033,-6,-7,-11,-8,-10,-3,-2,-1
1558433794529033,-5,-5,-5,-3,3,2,-3,-1
1558433794534824,3,5,4,3,0,3,5,-1
1558433794534824,0,-4,-5,0,0,-2,-3,-2
1558433794551777,3,-1,6,2,-3,-3,0,0
1558433794551777,-2,-2,7,3,-10,-6,-1,-1
1558433794552778,5,14,-7,-5,2,0,0,0
1558433794552778,0,-6,-1,1,11,6,1,2
1558433794565740,-7,-6,5,3,4,2,0,-3
1558433794565740,2,2,-4,3,0,4,3,3
1558433794572757,0,0,0,-2,-1,-4,-3,1
1558433794572757,3,11,-3,-4,-8,-7,-2,-1
1558433794589002,5,4,6,2,3,1,-1,1
1558433794589002,-15,-15,1,0,1,-2,-1,-4
1558433794595808,-3,-5,0,0,-5,-5,-2,-1
1558433794595808,3,3,0,0,5,8,4,4
1558433794611962,-4,-4,-2,-5,-7,-3,-1,-5
1558433794611962,3,4,2,2,-5,-4,-3,-1
1558433794612616,-2,-4,3,2,8,5,2,1
1558433794612616,-3,-4,-2,-1,0,-3,-3,0
1558433794626867,1,2,0,0,-10,-5,-3,0
1558433794626867,3,4,5,-2,-2,-4,-2,-2
1558433794633697,-4,-2,-16,-7,0,2,-2,-1
1558433794633697,-7,-7,5,2,7,4,1,-5
1558433794648830,4,8,13,4,4,3,3,2
1558433794648830,-12,-19,-17,-8,-5,-3,0,-3
1558433794655746,2,3,-2,-3,-7,-5,-1,-1
1558433794655746,3,4,-1,1,-2,-1,-2,-1
1558433794672466,-2,-5,0,-3,-1,-1,0,1
1558433794672466,7,9,8,3,3,4,-2,1
1558433794673461,-2,1,-1,0,2,0,-3,0
1558433794673461,-3,-7,-12,-8,-9,-6,-6,-4
1558433794685431,-1,-2,1,2,-1,-3,-2,-1
1558433794685431,1,1,1,-1,-3,-1,0,0
1558433794694408,1,4,4,6,10,4,4,1
1558433794694408,-1,3,3,-1,-1,-1,1,1
1558433794709361,-7,-14,-20,-8,-5,-6,-3,-4
1558433794709361,0,1,-2,-6,-2,-3,-4,-2
1558433794715346,0,-1,3,0,-2,2,-1,-4
1558433794715346,1,-1,8,4,-1,-3,-1,-1
1558433794731301,-2,2,0,0,-4,-1,-4,-1
1558433794731301,0,-3,-1,3,5,1,0,1
1558433794733292,7,0,-3,-3,-3,-5,-4,-1
1558433794733292,-11,0,-5,-4,0,2,1,-2
1558433794745258,-5,-9,0,0,1,-4,-5,-4
1558433794745258,1,-5,-4,-4,0,3,1,1
1558433794754235,-6,-6,-5,-2,3,1,2,0
1558433794754235,4,4,3,-2,-4,-1,-1,0
1558433794768201,0,3,0,0,-2,-1,-1,-3
1558433794768201,2,6,5,2,-1,-3,-2,-2
1558433794775178,-3,-3,3,-1,-9,-6,-3,-2
1558433794775178,2,-1,1,2,4,3,2,0
1558433794791170,-4,-1,-13,-6,1,5,2,1
1558433794791170,-3,-1,-12,-7,-8,-5,-3,-4
1558433794793131,-7,-15,-7,-9,-9,-5,-1,-2
1558433794793131,0,0,4,2,-2,-7,-4,0
1558433794806108,3,3,10,6,6,5,2,3
1558433794806108,-2,2,7,6,11,7,5,5
1558433794814077,-3,3,-10,-7,-8,-2,-6,-5
1558433794814077,2,3,-3,-4,-3,-1,1,-3
1558433794829295,-1,2,1,3,5,1,0,-1
1558433794829295,-3,-12,-4,-3,-4,-1,-3,-3
1558433794836123,-1,-1,3,2,1,0,-3,-1
1558433794836123,4,-2,-5,-5,-2,-3,-4,-1
1558433794852331,-5,-3,3,0,0,-1,0,1
1558433794852331,0,7,1,-1,-2,-2,0,1
1558433794852973,-4,-10,-16,-10,-5,-2,-1,-2
1558433794852973,0,1,-1,3,7,6,2,2
1558433794866117,0,-2,-1,-1,-4,-4,-1,-1
1558433794866117,2,3,6,4,1,-3,-2,0
1558433794874229,0,1,-2,1,-1,-3,0,-1
1558433794874229,0,-3,-3,-4,-7,-5,-2,-3
1558433794889116,1,2,8,3,5,1,2,1
1558433794889116,-4,1,-4,-2,-1,-3,-1,-1
1558433794897166,5,5,2,1,-1,0,2,2
1558433794897166,-5,-7,-2,-1,-2,-2,-3,-4
1558433794912036,-2,-3,1,0,0,-1,-1,-1
1558433794912036,2,2,-10,-5,-3,-2,-2,-1
1558433794912825,2,0,3,1,3,1,1,2
1558433794912825,-8,-7,3,0,2,1,-1,-2
1558433794925781,0,4,4,0,-6,-6,-4,-1
1558433794925781,-2,-9,-6,-5,-2,0,-3,1
1558433794933767,-3,0,-4,-7,-4,-3,-2,-4
1558433794933767,2,0,2,3,1,-1,2,2
1558433794948717,6,-1,-6,-1,1,-1,-2,-1
1558433794948717,-9,0,3,1,-1,-2,-2,-3
1558433794955704,-2,-5,6,2,-4,-3,-2,1
1558433794955704,3,7,0,0,-1,1,-2,-1
1558433794970662,5,-1,-3,-1,9,6,4,3
1558433794970662,-8,-4,-2,0,-2,-2,-3,-3
1558433794977641,-1,0,5,3,1,3,0,0
1558433794977641,-9,-6,-5,-2,-4,-4,-2,0
1558433794985620,2,3,-1,-2,-5,-6,-2,1
1558433794985620,1,-8,-1,-1,3,1,-3,-5
1558433794994598,-3,1,0,0,2,2,1,-2
1558433794994598,-1,-7,-6,-3,-7,-4,-2,-2
1558433795008712,1,1,1,-1,0,-1,-2,-3
1558433795008712,2,-3,-3,0,0,3,2,1
1558433795015646,-6,4,10,4,4,0,1,1
1558433795015646,-2,-8,-21,-12,-6,-4,-5,-3
1558433795031632,-10,-13,-9,-4,-7,-4,-4,-5
1558433795031632,3,5,0,-3,-3,-1,0,-1
1558433795037775,0,-2,1,0,0,-2,-1,-1
1558433795037775,-1,4,-1,-1,-5,-6,-4,-3
1558433795045666,0,3,5,2,2,3,0,1
1558433795045666,0,4,10,6,3,0,1,2
1558433795054440,6,1,-10,-3,1,1,-1,0
1558433795054440,-6,-4,4,0,-2,1,-1,0
1558433795068622,-3,-8,-11,-6,-5,-2,-1,-3
1558433795068622,2,6,6,3,1,-3,-2,0
1558433795075601,-2,-2,-2,-2,-4,-4,-1,-2
1558433795075601,2,-6,-4,0,2,5,3,2
1558433795091559,-12,-5,3,1,0,1,-3,-5
1558433795091559,1,-2,-5,-5,-7,-6,-1,0
1558433795098316,-1,-2,-4,-1,1,2,-2,-2
1558433795098316,7,10,2,1,7,2,1,4
1558433795105299,2,-3,-2,-1,-3,-2,-1,-1
1558433795105299,-13,-13,0,3,0,-3,0,-4
1558433795114273,0,-3,-2,-1,-1,0,-2,-1
1558433795114273,1,1,4,0,-2,-2,-2,-4
1558433795128240,5,3,-1,-3,0,2,2,2
1558433795128240,-1,5,-7,-5,-7,-6,-6,-1
1558433795135256,0,-2,4,-1,-4,-2,1,4
1558433795135256,-2,-5,-10,-5,-3,-2,1,-1
1558433795151179,-3,0,0,-1,-4,-4,-1,-2
1558433795151179,4,7,4,0,3,5,0,0
1558433795165139,-5,-4,-8,-4,4,1,-2,-5
1558433795165139,0,1,8,3,0,0,-3,-1
1558433795174114,-1,-4,-15,-9,-7,-7,-3,-2
1558433795174114,3,0,6,2,1,1,2,2
1558433795175112,-8,-10,-11,-2,3,-1,-2,-2
1558433795175112,0,9,9,5,3,2,-1,-2
1558433795188076,-2,-3,-5,-4,-7,-2,-2,-1
1558433795188076,2,3,3,-1,-3,-2,-1,0
1558433795197051,5,3,2,-2,-8,-5,-3,-2
1558433795197051,-10,-10,-2,2,4,3,2,-1
1558433795211015,4,7,11,4,13,9,4,3
1558433795211015,1,-5,-8,-5,-4,-1,-2,-2
1558433795217994,-1,-4,-5,-1,-5,-5,-3,-4
1558433795217994,1,7,3,0,-6,-3,-1,1
1558433795233951,0,-7,-7,-2,5,1,1,3
1558433795233951,-2,-6,-1,-2,-7,-6,-1,-2
1558433795235947,-2,-1,-4,-3,-3,-3,-6,-4
1558433795235947,0,2,6,4,7,4,4,0
1558433795248913,1,5,-3,0,2,-3,-1,1
1558433795248913,-4,-5,-5,-6,-3,-1,-4,-6
1558433795254895,3,7,10,2,-2,-3,-2,0
1558433795254895,0,-12,-13,-4,3,4,3,0
1558433795270854,-3,-3,2,-2,-1,0,-1,0
1558433795270854,-2,-5,-7,-4,-5,-5,-1,1
1558433795277833,0,4,6,5,5,5,1,0
1558433795277833,3,8,7,1,-5,-5,-3,-2
1558433795293793,-2,-6,-6,-6,-9,-4,-2,-3
1558433795293793,-2,0,2,-1,1,-1,-2,-3
1558433795295787,3,5,3,0,-2,-2,3,3
1558433795295787,-9,-16,-6,-3,-1,0,-2,-2
1558433795308751,-2,-1,-8,-3,-3,-1,-1,-2
1558433795308751,2,5,4,0,0,-1,-2,1
1558433795315734,1,4,-1,-1,-3,-3,-1,0
1558433795315734,1,-4,-3,-2,3,-1,1,1
1558433795330693,0,0,5,2,-2,-2,-2,-2
1558433795330693,1,-2,-4,1,3,3,2,-1
1558433795337674,0,3,-6,-3,-1,-3,1,-1
1558433795337674,-4,-4,4,-3,-10,-7,-4,-1
1558433795353666,0,2,-3,-3,-4,-5,-2,-4
1558433795353666,-1,-5,-2,-2,-2,1,-1,0
1558433795355627,-6,-7,-2,0,1,1,1,-1
1558433795355627,3,9,3,0,0,-3,0,3
1558433795368594,4,3,7,4,4,3,0,-1
1558433795368594,-2,1,4,-1,0,-2,-2,-1
1558433795375574,-6,-12,-17,-7,-5,-5,-5,-1
1558433795375574,-2,-5,-4,1,-1,-3,-2,-3
1558433795390534,3,9,7,4,4,4,4,4
1558433795390534,-3,-15,-13,-5,-4,-3,-1,-4
1558433795397517,-10,-5,3,0,-2,-2,0,0
1558433795397517,2,2,-5,-4,-7,-3,-6,-2
1558433795414469,-1,0,6,2,2,2,1,2
1558433795414469,1,3,0,0,7,1,-1,-4
1558433795415466,6,4,3,1,0,1,-1,0
1558433795415466,-7,-3,-1,1,-2,1,0,0
1558433795428432,-3,-7,-3,0,0,-3,-2,-2
1558433795428432,-1,7,6,-1,-5,-5,-1,3
1558433795435412,-1,-10,-15,-3,0,-1,-3,-1
1558433795435412,3,9,-3,-4,-3,-1,1,-1
1558433795451370,-2,-4,4,-2,-5,-4,-6,0
1558433795451370,-1,3,1,1,1,-1,0,-2
1558433795465368,0,2,8,1,3,4,4,3
1558433795465368,1,0,-4,-1,1,2,3,3
1558433795474343,-2,-2,0,1,2,2,0,-1
1558433795474343,3,-8,-8,-5,-7,-6,-4,-2
1558433795475306,-8,-6,0,-5,-6,-7,-4,-3
1558433795475306,-4,0,-1,-3,-1,-2,-1,-2
1558433795488305,2,3,-2,0,5,5,5,4
1558433795488305,-8,-3,3,3,7,6,1,-3
1558433795495288,2,-1,2,1,0,1,2,-1
1558433795495288,4,2,4,-3,-5,-6,-7,-4
1558433795511210,-6,-3,-8,-5,-6,-3,-1,-4
1558433795511210,3,7,6,1,2,1,2,2
1558433795518193,-4,-9,-17,-7,-6,-4,-4,-3
1558433795518193,1,0,12,7,2,0,0,-1
1558433795534149,-2,-2,-18,-9,-6,-5,-6,-6
1558433795534149,-2,-5,-3,1,1,1,1,0
1558433795535147,0,0,6,1,-3,-3,-1,2
1558433795535147,1,0,-10,-6,-6,-4,-4,-2
1558433795548138,-8,-10,8,5,2,-2,0,-1
1558433795548138,0,0,-5,0,4,4,3,2
1558433795555092,2,3,3,4,9,5,0,0
1558433795555092,2,4,2,0,0,-2,2,1
1558433795571084,-1,-4,-3,-1,-8,-6,-2,-4
1558433795571084,-4,0,-7,-4,-8,-7,-3,-2
1558433795578066,1,3,6,0,-3,-2,-1,-2
1558433795578066,-1,-1,4,0,2,5,1,1
1558433795601967,8,1,-3,-2,3,-1,-1,-1
1558433795601967,-16,-10,-1,0,-1,-2,-2,-4
1558433795603961,3,4,4,1,0,3,1,1
1558433795603961,0,-3,-8,-3,-2,-7,-5,-2
1558433795607951,2,3,6,0,-6,-1,0,-2
1558433795607951,1,-2,-7,-6,-5,-6,-3,-1
1558433795622910,-2,-3,-1,-1,2,-3,0,-1
1558433795622910,0,4,4,3,4,9,3,1
1558433795630893,-1,1,7,3,8,5,4,3
1558433795630893,4,-3,-12,-5,0,-3,-4,-3
1558433795637905,-6,-3,-6,-5,-10,-8,-5,-4
1558433795637905,1,0,1,0,-4,-7,-3,0
1558433795653862,0,-3,-4,0,2,4,2,-1
1558433795653862,0,4,9,4,2,3,3,2
1558433795655825,0,-4,-10,-3,-3,-3,-3,-1
1558433795655825,-7,-10,-3,0,-3,0,-2,-2
1558433795667829,0,4,4,1,0,0,-1,1
1558433795667829,5,10,-1,-4,-3,-1,-3,0
1558433795676766,1,7,17,7,5,3,2,3
1558433795676766,-5,-10,-12,-7,-3,-3,-2,-6
1558433795690731,-2,-8,-7,-7,-4,-9,-5,-2
1558433795690731,-5,0,1,1,2,4,2,-1
1558433795697746,4,6,6,0,-3,-1,-1,-2
1558433795697746,1,-4,-5,0,2,0,1,2
1558433795721648,-4,2,0,-1,-3,-4,-5,-4
1558433795721648,1,-3,-1,-4,-8,-1,-1,-3
1558433795722648,0,1,2,2,5,8,5,1
1558433795722648,1,2,-5,-3,5,-1,-2,-2
1558433795727632,-5,-9,-4,-2,-5,-4,-2,-2
1558433795727632,-1,-4,-3,-1,-8,-5,-1,1
1558433795736608,-1,-6,0,1,6,3,1,2
1558433795736608,0,0,-1,-3,-4,-5,-5,-1
1558433795750569,0,8,2,2,0,0,-2,0
1558433795750569,-1,0,-1,1,6,2,-1,-2
1558433795757552,-1,-4,1,3,2,1,2,2
1558433795757552,-4,-3,-21,-10,-8,-5,-2,-3
1558433795774541,0,-4,0,0,-1,1,-1,-2
1558433795774541,0,1,10,5,0,-1,-1,2
1558433795775506,2,2,-2,-2,-2,-2,-1,-4
1558433795775506,7,8,5,1,5,2,0,1
1558433795787509,-14,-12,-12,-6,-9,-6,-3,-1
1558433795787509,1,-5,-2,1,1,-2,0,0
1558433795796449,-1,-3,-2,2,5,4,1,1
1558433795796449,8,6,9,1,-8,-2,0,-2
1558433795811407,3,0,0,-2,-2,2,4,0
1558433795811407,-3,1,2,1,8,3,1,2
1558433795817392,-6,-7,-6,-3,-5,-7,-7,-6
1558433795817392,1,5,3,-1,-5,-3,-4,1
1558433795834348,-4,-3,0,-2,-2,-1,-2,-6
1558433795834348,5,5,-2,-2,0,-1,0,1
1558433795835343,-5,-6,-4,-3,3,-1,-3,-1
1558433795835343,-7,-8,5,4,6,4,5,0
1558433795847311,1,0,-10,-4,-4,-3,-2,-2
1558433795847311,1,3,4,0,-6,-4,-2,-3
1558433795856313,-4,-7,-1,-2,-5,-2,-1,-2
1558433795856313,-4,-1,-3,-2,0,0,-1,1
1558433795871281,1,0,6,2,2,1,2,0
1558433795871281,1,-3,0,3,3,5,1,-1
1558433795877271,-2,5,-5,-2,-3,-3,-2,0
1558433795877271,-4,-13,-1,0,-1,-1,0,-3
1558433795893228,1,4,-3,-3,-2,-1,-3,-4
1558433795893228,-3,0,-4,-6,-6,-8,-3,-3
1558433795900447,9,7,6,4,1,1,-1,0
1558433795900447,-2,-1,-3,-1,1,2,-1,1
1558433795908175,-4,2,1,0,-2,-1,3,3
1558433795908175,0,-1,-7,-4,2,2,-1,0
1558433795916161,-16,-20,0,-3,-1,0,-2,-4
1558433795916161,3,6,3,0,-4,-5,-3,-2
1558433795931089,1,-4,1,5,7,2,-2,0
1558433795931089,0,3,0,-3,-4,1,0,1
1558433795938069,5,6,-9,-4,4,-3,1,2
1558433795938069,-9,-10,-2,-2,-5,-2,-4,-7
1558433795953029,1,3,3,1,1,4,2,2
1558433795953029,-3,-5,0,-1,-1,-3,0,-3
1558433795960010,-1,-2,-5,-7,-8,-7,-3,-4
1558433795960010,4,5,6,2,2,0,-2,-1
1558433795967987,3,2,-6,-6,-6,-7,-4,1
1558433795967987,-10,-14,-7,-4,-4,-2,-3,-6
1558433795976965,8,8,5,5,7,5,1,2
1558433795976965,-2,5,6,4,5,5,4,4
1558433795990926,-2,-5,-1,0,-4,-4,-4,-1
1558433795990926,0,-4,-13,-5,-4,-4,-4,0
1558433795997908,-5,-3,-5,-6,-9,-6,-2,-5
1558433795997908,5,4,-3,1,3,1,0,0
1558433796013866,1,-5,8,5,9,6,0,1
1558433796013866,0,2,-2,-2,-3,-3,-1,-1
1558433796028944,1,2,5,1,-7,-3,-3,-2
1558433796028944,1,2,-5,0,-1,2,2,2
1558433796028944,-9,-4,2,2,8,6,4,-2
1558433796028944,1,-3,5,2,2,4,2,2
1558433796036840,-1,2,-6,-2,-1,-5,-3,-1
1558433796036840,-7,-15,-3,-3,-9,-6,-4,-4
1558433796051765,-1,-2,-13,-6,-1,-2,-2,-1
1558433796051765,1,8,8,5,3,2,1,-3
1558433796058216,0,2,0,-2,-1,1,2,3
1558433796058216,-4,-4,2,-1,-3,-1,2,-2
1558433796074154,4,1,5,3,0,-3,-1,-2
1558433796074154,3,2,-1,-6,-2,-2,-1,3
1558433796080686,-15,-13,-17,-8,-9,-8,-4,-7
1558433796080686,2,3,3,2,6,4,0,-1
1558433796096655,0,0,-2,-4,-2,-1,0,1
1558433796096655,-1,1,6,6,3,3,0,0
1558433796099639,2,-4,-2,1,1,2,1,0
1558433796099639,-4,-6,-2,-3,0,-4,-5,-4
1558433796110642,-1,5,-4,-1,-6,-5,-5,-2
1558433796110642,2,8,4,-2,-2,-6,-1,0
1558433796117691,1,-3,3,-2,-4,-2,2,0
1558433796117691,-4,-7,-15,-3,4,6,1,-4
1558433796133604,1,2,6,4,1,-1,1,-1
1558433796133604,-2,-4,-7,2,-5,-3,-3,-2
1558433796140526,0,1,1,-1,-1,1,0,0
1558433796140526,2,1,7,3,5,-2,1,5
1558433796156485,6,8,0,-5,-7,-3,-1,1
1558433796156485,-13,-15,-9,-8,-3,-3,-5,-6
1558433796157485,-2,-5,2,7,12,8,3,-5
1558433796157485,2,-1,-2,-4,-2,-3,-3,-4
1558433796170446,-1,2,-2,0,-4,-4,2,2
1558433796170446,4,2,0,2,-1,0,-1,0
1558433796177428,2,5,2,0,0,2,2,3
1558433796177428,-4,-2,-2,-2,-5,-2,-3,-2
1558433796193385,-4,-11,-3,0,7,2,-1,-1
1558433796193385,-3,-6,-15,-8,-11,-4,0,0
1558433796200367,-1,1,1,3,6,0,-4,-3
1558433796200367,4,3,1,0,-4,-2,-1,-2
1558433796216325,-3,0,2,2,-3,0,0,-1
1558433796216325,1,-4,1,0,2,-2,-2,-2
1558433796218320,-1,-1,-6,-4,-3,-4,-1,-2
1558433796218320,0,3,8,4,5,3,3,4
1558433796231342,-4,-7,-10,-7,-5,-2,-4,-7
1558433796231342,0,-1,1,1,2,3,1,-1
1558433796237303,-2,0,0,-3,-7,-5,-3,-1
1558433796237303,-12,-5,-2,-1,-5,-4,-3,-5
1558433796253225,4,2,1,1,6,1,4,3
1558433796253225,-4,-3,2,0,2,0,-1,-3
1558433796260206,4,8,5,2,0,1,0,1
1558433796260206,4,7,-2,-4,-2,1,1,1
1558433796276163,0,-9,2,0,-2,0,-4,-4
1558433796276163,-15,-8,-3,-1,-6,-7,-3,-3
1558433796278158,1,-5,-5,-2,-6,-5,-3,1
1558433796278158,-1,2,5,2,-2,3,0,0
1558433796291123,1,7,2,5,16,14,5,2
1558433796291123,5,3,-4,-2,3,0,-2,0
1558433796298113,-5,-7,-6,-4,-9,-11,-2,-4
1558433796298113,-2,-5,-6,-4,-6,-7,-3,1
1558433796313065,4,3,4,-2,-7,-6,-3,0
1558433796313065,-4,-3,-2,0,4,7,1,0
1558433796320045,-2,-6,-3,0,7,7,2,-2
1558433796320045,1,-2,-8,-4,-8,-8,-5,-5
1558433796337011,-4,1,4,-1,-8,-6,-1,-3
1558433796337011,2,-1,7,7,6,6,3,1
1558433796338000,-2,0,-7,-3,4,2,1,1
1558433796338000,-1,-6,-12,-7,-4,-4,-3,0
1558433796350965,-7,0,6,-1,-9,-8,-5,0
1558433796350965,3,0,-10,-9,-7,-6,-4,-2
1558433796357944,0,3,3,0,0,4,-1,0
1558433796357944,2,-7,0,0,2,0,1,4
1558433796372905,-9,-5,-2,2,2,1,-1,-8
1558433796372905,0,1,3,0,-6,0,2,-2
1558433796379892,3,4,1,-2,1,0,-1,-1
1558433796379892,1,0,4,3,2,-3,-2,-1
1558433796396843,-5,-10,-4,-4,-4,0,0,3
1558433796396843,-1,-6,-15,-7,2,1,2,1
1558433796397845,-3,7,0,-1,-2,-2,-2,-3
1558433796397845,-1,-4,1,0,3,2,0,-2
1558433796410807,1,0,-2,-1,-3,-5,-4,0
1558433796410807,2,4,7,3,-5,-2,-1,-2
1558433796417786,-1,0,-5,-2,-3,1,-1,1
1558433796417786,-4,-1,-5,1,5,3,-1,-4
1558433796433743,0,-3,-2,-1,-2,-1,-2,-2
1558433796433743,0,5,5,2,6,1,2,2
1558433796439726,-2,-10,-1,-3,-8,-5,-3,0
1558433796439726,-1,4,2,-1,-3,-4,0,-1
1558433796456684,3,-1,-6,-3,7,0,-1,1
1558433796456684,3,5,6,3,-3,-2,-1,1
1558433796457688,5,5,-1,-2,-3,-3,-3,-1
1558433796457688,-14,-14,-13,-6,-5,-1,-2,-5
1558433796470645,1,2,-4,0,-2,2,1,-1
1558433796470645,1,-1,2,3,7,2,3,1
1558433796477627,1,-1,5,2,0,-5,-2,0
1558433796477627,3,0,-4,-2,-9,-5,-3,-5
1558433796493582,1,4,6,3,3,-1,0,-1
1558433796493582,-7,0,-1,-5,-4,1,-2,-4
1558433796500565,-1,-5,-5,0,2,0,1,0
1558433796500565,4,2,5,1,5,1,1,2
1558433796516522,-1,-5,-7,-4,-7,-6,-4,-2
1558433796516522,-5,-9,-6,-4,-9,-9,-7,-4
1558433796518520,-3,0,4,0,-7,-3,2,0
1558433796518520,-1,3,-1,1,2,0,3,0
1558433796530484,3,3,8,3,8,8,4,1
1558433796530484,1,4,0,1,4,3,2,1
1558433796537469,-8,-13,-6,-5,1,1,-4,-2
1558433796537469,-2,2,3,-2,-10,-8,-8,-7
1558433796553422,2,4,-5,-3,-6,-5,-2,1
1558433796553422,6,10,6,4,7,5,3,3
1558433796560406,-18,-25,-7,-2,2,3,-1,-4
1558433796560406,2,-2,-2,-3,-2,0,-1,1
1558433796576361,-2,1,-6,-7,-11,-6,-4,-4
1558433796576361,-4,-2,0,-2,-12,-9,-6,-4
1558433796578356,4,4,-3,1,1,3,-2,-1
1558433796578356,0,-3,2,5,11,5,6,4
1558433796599300,1,4,5,5,10,5,6,3
1558433796599300,-1,-3,-4,-1,-1,-4,-3,1
1558433796600298,8,6,2,2,-2,-1,-1,-3
1558433796600298,-8,-3,-7,-7,-10,-5,-6,-5
1558433796613269,-9,-10,-3,-2,4,0,-2,0
1558433796613269,-2,-4,-4,-1,0,-2,1,0
1558433796620245,-2,6,2,-1,-4,-9,-2,2
1558433796620245,0,-6,3,0,-13,-8,-4,-6
1558433796636204,3,4,-1,1,0,4,3,-2
1558433796636204,-7,-7,-4,-7,0,-1,-4,-6
1558433796638199,2,6,-4,-2,-1,-1,1,-1
1558433796638199,6,6,-5,1,6,5,4,5
1558433796650167,-8,-3,7,3,0,3,-1,-2
1558433796650167,-2,-7,1,-2,-7,-6,-6,-3
1558433796659143,3,5,5,1,-1,-2,-4,1
1558433796659143,-2,3,0,0,4,0,-1,-1
1558433796673107,5,2,-6,-6,-4,-6,-2,-1
1558433796673107,-1,-11,-2,0,0,1,3,2
1558433796680087,-4,3,1,-2,-3,-3,-3,-9
1558433796680087,-2,-2,-5,-5,-8,-6,-4,-2
1558433796704020,-1,-2,9,7,4,2,3,5
1558433796704020,1,10,-2,7,12,11,6,5
1558433796706014,-6,-11,-14,-8,-8,-4,-3,-1
1558433796706014,-1,-4,2,-1,4,4,1,-1
1558433796710003,3,5,-6,-3,-5,-7,-6,0
1558433796710003,-4,4,20,5,-5,-8,-4,-3
1558433796719980,2,-10,-21,-7,-2,3,2,0
1558433796719980,2,4,2,1,5,3,1,0
1558433796732942,-18,-23,-3,-2,-4,-5,-5,-6
1558433796732942,1,-7,-3,-1,-7,-5,-3,-2
1558433796739929,7,11,9,4,8,7,2,1
1558433796739929,-5,-2,-3,-4,1,-3,-2,2
1558433796756879,4,4,2,4,-1,-5,1,0
1558433796756879,-1,-2,-2,0,2,3,0,-3
1558433796757878,-1,1,-7,-3,-2,-9,-4,0
1558433796757878,-1,-2,6,2,1,4,5,-1
1558433796769848,4,8,0,-3,-8,-5,-5,-2
1558433796769848,-3,-6,-9,-4,2,1,0,0
1558433796778820,-4,-4,3,2,8,3,-1,1
1558433796778820,-2,0,-3,-3,-4,-2,-4,0
1558433796793780,-3,-3,-7,-2,1,2,1,-1
1558433796793780,3,4,-1,-3,-6,-8,-5,-2
1558433796800762,-2,1,4,1,-1,0,0,1
1558433796800762,-3,-3,-3,-2,-4,0,0,-2
1558433796815723,-1,-3,-1,-2,-2,-1,-1,-4
1558433796815723,2,3,-3,0,6,5,2,3
1558433796830681,1,4,10,7,7,4,3,0
1558433796830681,2,1,2,0,-5,-2,-1,-1
1558433796831679,-5,-7,-5,-1,2,4,2,0
1558433796831679,-6,-8,-15,-9,-5,-8,-6,-3
1558433796838661,-1,-1,5,2,0,-1,1,-1
1558433796838661,5,4,-2,-2,-2,-1,1,-2
1558433796853623,-9,0,3,0,3,0,-1,0
1558433796853623,2,-4,1,-2,-8,-5,-3,-4
1558433796861598,3,-2,-3,-2,-4,-4,-3,1
1558433796861598,1,4,-3,0,4,-1,0,1
1558433796875561,10,6,-8,-6,-3,0,-2,-1
1558433796875561,-13,-7,-3,-2,1,6,1,-2
1558433796882542,-1,0,2,0,-4,-5,-1,2
1558433796882542,-3,1,5,4,5,-2,-1,1
1558433796890522,2,-4,2,1,6,8,2,1
1558433796890522,3,1,-8,-6,-5,0,-2,-3
1558433796899496,-11,-11,2,1,-7,-3,-2,-2
1558433796899496,-4,-7,-11,-5,-4,-2,2,1
1558433796913460,3,9,7,2,-1,-5,-3,2
1558433796913460,2,5,-7,-4,3,4,1,-1
1558433796920443,-5,-12,-1,-1,-1,-1,-1,-2
1558433796920443,0,6,0,0,-5,-2,-3,-3
1558433796936401,6,-4,1,-1,-1,0,0,2
1558433796936401,-8,1,6,2,0,0,0,-2
1558433796942383,3,-3,-7,-6,-5,-4,-3,-1
1558433796942383,-5,-7,-6,1,3,3,1,-1
1558433796950361,3,4,-3,-1,-5,-3,-1,0
1558433796950361,4,5,7,3,-5,-8,-2,-2
1558433796959336,-6,-2,-6,1,9,5,5,-1
1558433796959336,-2,-8,-3,-6,-3,0,-2,0
1558433796973300,-2,3,-3,-3,-3,5,1,-3
1558433796973300,-2,-9,2,-2,-4,-3,-5,-1
1558433796980281,5,7,3,0,-3,-2,-1,-1
1558433796980281,-1,3,3,2,5,2,-2,-1
1558433796996239,-5,-5,-3,-1,-1,-3,-1,-1
1558433796996239,1,-1,-1,2,0,-3,-4,-2
1558433797002225,0,-2,0,-2,-7,0,-1,-2
1558433797002225,3,8,4,2,2,2,1,-2
1558433797019181,-6,-6,-7,-3,-4,-3,0,-3
1558433797019181,4,1,-1,-1,2,1,0,4
1558433797021171,-4,9,1,1,1,-2,-4,-1
1558433797021171,-9,-17,-5,-1,1,0,-3,-4
1558433797033139,0,1,1,-2,-4,-2,-1,-2
1558433797033139,-5,-7,-11,-6,-12,-10,-4,-4
1558433797040124,-1,1,-6,-1,1,0,1,2
1558433797040124,7,5,5,5,5,3,4,5
1558433797056080,-2,-4,-8,-6,0,0,-4,-3
1558433797056080,1,7,6,4,5,2,3,3
1558433797063070,-1,-4,1,-1,-5,-4,-6,-6
1558433797063070,-5,-3,-2,1,-1,-1,-1,-3
1558433797079018,1,-3,-1,1,4,-3,1,1
1558433797079018,-2,7,0,-6,-14,-7,-4,-1
1558433797080015,0,-1,1,1,2,2,4,-1
1558433797080015,-6,-14,-18,-5,10,8,1,2
1558433797092980,-6,-8,1,-2,-10,-9,-8,-7
1558433797092980,4,8,1,0,4,3,0,0
1558433797099960,1,6,6,-1,-5,-5,-2,-3
1558433797099960,6,4,6,2,-1,-3,0,3
1558433797115922,-10,-11,-3,0,4,3,3,-3
1558433797115922,-3,-6,-5,-3,-2,2,-1,-3
1558433797122910,1,-1,-3,-2,-3,0,-1,2
1558433797122910,1,2,2,1,-6,-5,-2,-1
1558433797138868,0,5,1,-2,-3,-7,0,3
1558433797138868,-1,-2,5,4,3,2,0,-4
1558433797140854,-2,0,2,4,0,-2,-3,-1
1558433797140854,0,-2,-3,1,7,6,3,-2
1558433797153820,2,4,-4,0,1,1,1,-1
1558433797153820,-3,-4,-4,2,2,3,1,0
1558433797159803,2,0,-7,-5,-6,-4,-4,-1
1558433797159803,-4,-8,6,-1,-10,-12,-4,-1
1558433797175835,5,5,3,1,2,2,1,1
1558433797175835,-6,-3,-1,0,6,3,1,-2
1558433797182740,1,-12,-4,-1,-2,-3,-1,-1
1558433797182740,-2,6,-4,-5,-15,-8,-9,-5
1558433797198700,-3,-1,0,3,7,5,6,3
1558433797198700,7,5,1,0,2,-5,-1,2
1558433797200724,-1,3,8,2,-1,0,-1,0
1558433797200724,1,0,-4,-5,-2,-2,-1,-2
1558433797213659,-10,-6,-5,0,5,6,-3,-4
1558433797213659,-1,-2,-2,-3,-16,-8,-4,-2
1558433797220640,-2,-2,0,4,16,6,6,4
1558433797220640,1,2,-6,-6,-6,-8,-2,-1
1558433797235605,4,3,4,-1,-1,-1,-2,-2
1558433797235605,-2,0,0,-1,-1,-5,-2,-2
1558433797242578,-1,3,-4,-4,-8,-3,-1,0
1558433797242578,-3,-1,5,5,3,5,2,3
1558433797258536,1,-3,-26,-9,-9,-5,-5,-5
1558433797258536,-4,-3,4,-1,-3,-2,-2,-2
1558433797260530,-2,-7,-5,-2,3,0,3,1
1558433797260530,4,10,3,-1,2,2,3,-4
1558433797273496,-3,-5,6,0,-5,-5,-3,-3
1558433797273496,3,1,-1,3,6,5,4,1
1558433797280478,3,4,1,-1,-4,2,-1,-1
1558433797280478,-9,-17,-2,-5,-7,-3,-4,-5
1558433797296438,6,0,-1,2,4,-3,-2,3
1558433797296438,2,6,-1,0,10,6,2,1
1558433797310404,-1,1,5,0,5,2,2,0
1558433797310404,-6,-7,-5,-3,-13,-9,-9,-3
1558433797319373,-11,-9,-3,-3,-9,-9,-3,-4
1558433797319373,3,-2,0,1,4,0,1,1
1558433797320371,-1,0,-4,-2,-1,3,3,-2
1558433797320371,11,16,17,9,7,6,4,3
1558433797333342,-6,-6,-10,-7,-6,-3,2,0
1558433797333342,-7,-13,-18,-8,-1,0,-5,-5
1558433797340318,-2,3,-4,-1,0,-1,-5,-5
1558433797340318,0,2,2,1,-2,-1,-2,-1
1558433797356275,8,9,17,6,6,2,4,6
1558433797356275,-4,-4,-8,-5,-8,-6,-4,0
1558433797362259,-4,-8,-3,-3,-12,-8,-4,-4
1558433797362259,2,-2,-5,1,9,3,3,-1
1558433797379217,-2,-9,-3,1,4,6,2,-1
1558433797379217,-2,7,4,-2,-2,2,2,1
1558433797380211,2,5,2,1,1,-4,-5,-2
1558433797380211,-5,-5,-4,-3,0,-2,1,1
1558433797393180,0,1,-6,-6,-8,-9,-5,-3
1558433797393180,1,-2,5,3,0,0,-2,-1
1558433797402154,1,-2,1,-2,2,5,2,0
1558433797402154,-2,-4,-10,-4,-6,-5,-3,-2
1558433797416115,-1,0,-1,0,4,3,3,0
1558433797416115,4,4,0,3,7,7,4,0
1558433797423097,-6,-6,-1,-1,-6,-7,-2,0
1558433797423097,2,0,1,0,0,-5,-6,-2
1558433797439060,-2,2,-4,0,-2,3,-3,-3
1558433797439060,0,-3,3,2,1,-9,-3,-1
1558433797440050,1,5,-2,3,9,10,4,1
1558433797440050,-4,-2,-5,-5,-7,-8,-6,-7
1558433797453017,1,-5,8,1,-8,-5,-2,-1
1558433797453017,-2,-1,0,2,-1,1,-1,4
1558433797459997,-2,3,0,-3,0,0,-2,-4
1558433797459997,-3,-5,-12,-6,-1,4,2,0
1558433797475955,-2,2,0,1,4,-3,-4,-2
1558433797475955,-1,-5,-1,-4,-5,-5,-3,-4
1558433797489938,-3,-4,-2,-2,-7,-6,-3,0
1558433797489938,2,7,10,4,9,11,10,4
1558433797498895,-1,-3,-1,-2,-6,-5,-5,-4
1558433797498895,0,1,-2,-1,-7,-5,1,1
1558433797500889,-7,-9,-3,-2,1,-1,0,-2
1558433797500889,-2,4,-4,-6,-5,-3,-7,-7
1558433797512860,-1,0,0,0,-2,-5,2,3
1558433797512860,-1,-1,-3,-1,4,6,3,0
1558433797521833,0,-6,4,1,8,7,4,1
1558433797521833,0,2,2,5,2,5,3,1
1558433797535797,1,-2,1,-5,-12,-3,-6,-5
1558433797535797,2,0,-4,-3,-6,-8,-6,-4
1558433797542783,3,5,-3,4,10,0,1,-1
1558433797542783,1,-2,7,2,2,1,5,5
1558433797558734,-5,-2,-7,-6,-7,-4,-5,-5
1558433797558734,0,-7,7,5,7,1,3,4
1558433797560731,-5,-5,-4,-5,-12,-8,-8,-3
1558433797560731,-4,-5,-4,-5,-14,-17,-11,-8
1558433797572700,4,9,12,10,12,14,9,4
1558433797572700,2,5,-4,2,14,15,7,5
1558433797581674,-3,6,-1,-2,-3,-2,-2,-3
1558433797581674,3,-6,-6,-2,-7,-4,0,4
1558433797595638,-6,-8,-4,-7,-10,-10,-7,-9
1558433797595638,5,4,4,1,4,0,2,1
1558433797602617,-5,-6,1,2,0,0,0,2
1558433797602617,-1,-3,3,0,6,6,0,-1
1558433797618574,-2,-7,-5,-6,-9,-7,-6,-3
1558433797618574,-7,-7,-21,-11,-10,-13,-4,-2
1558433797620568,4,3,-3,-4,-3,0,2,-2
1558433797620568,-6,-5,0,-1,-4,-1,-1,2
1558433797632536,2,0,0,3,5,1,0,2
1558433797632536,-1,2,8,1,0,1,-3,-5
1558433797641512,1,-2,-2,-3,-4,-4,-2,-1
1558433797641512,-2,-2,-5,1,2,3,1,1
1558433797655477,-4,-4,2,3,3,4,2,3
1558433797655477,-7,-14,-5,-4,-10,-5,-6,-6
1558433797662456,4,-1,-5,0,10,3,4,3
1558433797662456,2,5,5,4,11,3,1,0
1558433797679413,-1,2,-3,-5,-9,-7,-5,-5
1558433797679413,4,11,7,-1,-2,1,1,0
1558433797680407,-2,-8,-6,-2,-5,0,0,-2
1558433797680407,0,0,1,-1,1,0,2,0
1558433797692374,-10,-8,-9,-4,-4,-7,-7,-3
1558433797692374,-1,-3,1,1,-2,-1,0,-1
1558433797701351,6,6,0,-1,3,2,0,-1
1558433797701351,-4,-3,-3,1,1,-2,3,1
1558433797716326,1,-1,-3,-5,-4,0,-2,-1
1558433797716326,-3,-1,-3,-3,-9,-7,-7,-4
1558433797722301,-3,1,4,5,12,5,5,4
1558433797722301,0,-1,3,0,-3,-2,-7,-4
1558433797738254,3,5,6,2,3,2,4,2
1558433797738254,0,-5,-5,0,5,6,5,2
