timestamp,emg1,emg2,emg3,emg4,emg5,emg6,emg7,emg8
1558433891352148,0,0,1,-1,5,3,3,0
1558433891352148,-1,-1,-2,0,3,-1,1,0
1558433891353144,1,0,2,-1,-4,-4,-1,-1
1558433891353144,-3,-2,-1,-2,-9,-7,-5,-3
1558433891354141,0,4,0,-2,-2,-2,-2,-1
1558433891354141,-1,-5,-1,2,0,0,-2,-1
1558433891354141,-4,-6,-5,-3,1,0,0,-2
1558433891354141,-3,-1,-1,-2,-2,-1,3,0
1558433891365111,1,-1,-4,-6,-6,-1,2,-2
1558433891365111,-3,-2,-4,-2,0,0,-1,-3
1558433891374088,-3,-6,2,-1,-6,-2,-2,-2
1558433891374088,1,-2,-6,-3,1,-2,-2,-1
1558433891380071,-5,-4,-2,1,1,1,0,1
1558433891380071,3,7,3,3,3,6,0,0
1558433891395032,-3,3,-3,-3,0,0,1,-1
1558433891395032,-2,-1,-2,-3,-7,-6,-2,-1
1558433891403010,2,-3,-3,-1,-4,-5,-3,0
1558433891403010,-1,-4,-4,-3,-5,-1,0,1
1558433891409992,8,7,2,3,3,4,1,0
1558433891409992,-8,-4,-1,0,1,2,1,-1
1558433891424951,-2,-2,2,3,-2,-3,1,-1
1558433891424951,-2,-2,-10,-8,-6,-2,3,-2
1558433891473821,-2,37,-5,-4,-6,-2,-1,-2
1558433891473821,1,17,-2,-4,-10,-8,-4,-1
1558433891474818,1,3,0,0,-7,-2,-4,-2
1558433891474818,-6,-38,-1,-4,-7,-4,-4,-2
1558433891478807,4,-29,4,1,7,2,-1,1
1558433891478807,1,-35,-4,0,7,6,1,2
1558433891478807,-6,-35,-3,-3,-9,-5,-4,-3
1558433891478807,1,-19,1,-1,4,2,1,0
1558433891484791,-4,-27,-3,-3,-7,-5,-3,-4
1558433891484791,-2,-18,-3,-4,-5,-2,-3,-1
1558433891492772,1,-8,3,1,9,4,3,3
1558433891492772,4,-1,0,1,-2,-2,-1,0
1558433891499751,-7,-13,-5,1,-4,-3,-2,-2
1558433891499751,-2,-8,-4,-4,-6,-6,-3,-2
1558433891515708,0,1,-4,-2,-4,-6,-3,-1
1558433891515708,-4,5,1,2,2,1,-4,0
1558433891521692,-2,-3,5,-1,3,3,-1,-1
1558433891521692,-7,-1,1,-1,4,4,1,-2
1558433891529673,-3,-2,-9,-7,-6,-1,0,-2
1558433891529673,4,13,-1,-1,-3,-2,-1,-2
1558433891544631,-2,-11,-4,-5,-5,-5,-6,-3
1558433891544631,1,5,5,3,3,2,-2,1
1558433891552611,3,4,3,3,4,2,-1,1
1558433891552611,3,12,0,2,3,2,3,1
1558433891559591,-5,1,0,-1,-3,-2,-1,-4
1558433891559591,0,-7,-4,0,-4,-5,-3,-4
1558433891583527,1,3,-4,-4,-4,-1,-2,-2
1558433891583527,-8,-6,-2,2,-1,-2,0,0
1558433891584525,0,2,5,0,0,1,-1,1
1558433891584525,-1,5,-7,-4,-3,-5,-2,-3
1558433891589511,2,3,0,1,0,2,2,0
1558433891589511,3,3,2,-1,-3,-2,0,0
1558433891604471,7,11,6,5,10,4,3,2
1558433891604471,-9,-17,-4,-2,-8,-3,-2,0
1558433891612450,-3,-7,-8,-3,3,0,-1,0
1558433891612450,2,1,-3,-6,4,4,0,-2
1558433891619431,0,-1,-1,-1,-2,1,-2,0
1558433891619431,8,15,2,1,-6,-6,-4,-1
1558433891635389,1,8,4,1,-4,-3,-3,-3
1558433891635389,-20,-20,-4,1,4,1,3,-1
1558433891642370,2,0,-3,-3,2,0,-1,-1
1558433891642370,0,0,2,0,-1,1,1,-1
1558433891657330,-1,0,0,-2,-5,-4,1,-1
1558433891657330,0,1,-1,-1,-1,-4,-4,-2
1558433891664311,2,2,-1,0,-1,1,-1,0
1558433891664311,1,4,-3,1,0,-2,0,-1
1558433891681267,-3,-4,1,1,-2,-1,0,-2
1558433891681267,1,-1,0,-4,-1,-3,-3,-3
1558433891682263,-3,-1,-5,-2,-2,-2,2,1
1558433891682263,7,11,8,5,15,4,5,3
1558433891695229,-2,-3,-7,-4,-2,0,-2,-2
1558433891695229,1,2,0,-3,-10,-3,-1,0
1558433891702210,0,0,-5,-6,-9,-7,-2,-1
1558433891702210,0,2,3,5,6,3,-3,0
1558433891709191,-5,-6,2,-1,-3,-4,-5,-1
1558433891709191,2,3,-5,-2,-3,1,-1,-1
1558433891724157,3,4,0,-2,-1,-1,2,0
1558433891724157,-6,-5,-1,-5,-2,0,1,-1
1558433891733127,0,2,4,3,6,2,3,2
1558433891733127,4,4,3,1,3,3,-1,0
1558433891739111,0,-4,-1,-3,-5,-6,-4,-4
1558433891739111,2,0,-7,-4,-1,0,2,1
1558433891763046,-5,-8,3,2,0,1,1,-4
1558433891763046,4,4,2,2,3,-1,2,-2
1558433891765041,-8,-3,-2,-2,2,-2,1,-2
1558433891765041,-6,-6,-2,-3,-5,-6,-6,-5
1558433891770028,-1,4,0,-4,-3,-4,-1,-1
1558433891770028,-2,-2,-1,-1,-4,-3,-1,0
1558433891784988,-1,-3,1,3,4,4,1,1
1558433891784988,-2,1,0,-1,4,-1,-3,0
1558433891792967,-3,3,-3,-4,-5,-2,-3,-3
1558433891792967,-2,-1,-1,-1,-7,-3,-3,-2
1558433891799950,0,-1,1,0,1,-1,0,0
1558433891799950,3,8,3,1,0,3,3,0
1558433891814908,2,-4,-6,-1,1,-2,-1,-3
1558433891814908,-10,-18,-5,-6,-4,-4,-5,-4
1558433891821888,3,0,0,3,1,2,-2,2
1558433891821888,2,8,4,3,5,4,1,2
1558433891829867,-4,-10,0,1,1,-3,-2,-1
1558433891829867,2,3,-4,-1,-3,-1,-3,-1
1558433891844828,0,2,1,-2,-6,-3,-1,-1
1558433891844828,-3,-12,-5,0,-4,-6,-1,-3
1558433891852806,3,9,-1,-3,-2,0,-3,0
1558433891852806,6,0,-3,-3,-4,-2,-3,-2
1558433891859822,-5,-6,-2,-3,6,4,-1,-2
1558433891859822,-2,0,1,-5,-7,1,0,-1
1558433891875744,0,0,2,3,1,-1,-2,1
1558433891875744,-1,1,0,0,2,-1,0,0
1558433891881787,2,6,1,3,2,0,0,0
1558433891881787,-1,-6,-4,-3,-4,0,0,-3
1558433891889709,-2,-2,3,0,2,-1,0,-2
1558433891889709,1,6,-5,-1,0,1,1,-1
1558433891904702,0,-6,-5,-4,-7,-8,-3,-4
1558433891904702,-15,-13,-4,-3,-6,-4,-2,-4
1558433891912689,0,3,3,1,2,3,0,-2
1558433891912689,4,4,3,1,0,-1,-3,1
1558433891919664,-2,-3,-3,-3,-6,-4,-5,-2
1558433891919664,3,3,2,2,0,-2,-1,2
1558433891935585,-1,-5,-4,-2,7,2,2,1
1558433891935585,-4,1,-1,-4,3,2,0,-1
1558433891941568,-5,-3,-6,-5,-8,-3,-3,-4
1558433891941568,0,3,0,-3,-8,-10,-5,-3
1558433891949547,4,10,4,5,5,4,4,3
1558433891949547,2,-10,-3,1,1,5,-1,-2
1558433891964507,-12,-16,-3,0,3,2,-3,-4
1558433891964507,1,-1,-1,-2,-2,-1,-2,-2
1558433891972487,-4,-3,-11,-6,-8,-7,-4,-1
1558433891972487,-1,4,4,-2,2,-3,1,2
1558433891979468,3,6,3,0,0,2,0,0
1558433891979468,-1,-2,-3,2,0,2,-2,-3
1558433891995425,-4,-4,-2,-4,-6,-5,-7,-1
1558433891995425,0,0,-4,-1,-5,-4,-2,-3
1558433892002406,2,0,-8,-3,-2,-2,0,2
1558433892002406,2,0,-2,-2,6,3,2,-3
1558433892009388,4,5,1,1,0,1,1,0
1558433892009388,-4,-5,0,1,-1,-3,-2,-1
1558433892024351,-3,-8,-3,1,-3,0,0,-3
1558433892024351,4,10,3,0,0,2,0,2
1558433892032326,-3,-4,-1,-1,-7,-4,-4,-2
1558433892032326,-1,-1,-6,-1,3,1,1,-2
1558433892039309,4,4,0,1,7,2,0,3
1558433892039309,-1,-3,-1,-2,3,3,0,2
1558433892055265,-3,-5,2,0,-3,-3,-2,-2
1558433892055265,-1,4,0,-3,-8,-5,-5,-2
1558433892062246,5,5,0,2,-2,0,-2,-1
1558433892062246,-5,-3,-4,-1,-5,-2,-1,0
1558433892077206,-1,-6,-2,-4,-1,0,2,-3
1558433892077206,-6,-7,-1,-1,-2,-1,1,-1
1558433892084195,1,5,2,2,11,4,4,1
1558433892084195,1,4,0,-2,-2,-3,0,0
1558433892093163,1,-1,1,-1,-4,-1,-2,-1
1558433892093163,-1,-1,3,0,-1,1,-1,-2
1558433892099147,0,2,-4,-3,-2,0,1,-2
1558433892099147,-4,-8,2,-1,-6,-4,-1,-3
1558433892115104,1,2,-2,0,-1,3,2,0
1558433892115104,0,-3,0,2,7,2,1,0
1558433892122086,-3,-3,2,0,0,-1,-1,-1
1558433892122086,1,2,-2,1,2,-2,-2,0
1558433892138043,-6,-7,-2,-6,-9,-6,-4,-4
1558433892138043,-1,6,1,-2,-5,-1,-2,-1
1558433892145025,5,0,0,1,3,5,3,1
1558433892145025,-13,-11,-6,-2,-1,0,-2,-4
1558433892153004,0,3,-3,-2,-5,-3,-3,-4
1558433892153004,0,-4,-3,-3,-4,-5,-1,-1
1558433892159984,0,-1,2,0,-4,-5,-1,1
1558433892159984,3,0,-1,2,3,7,3,3
1558433892174945,3,8,0,0,8,4,3,0
1558433892174945,-2,-8,-2,2,1,2,0,-1
1558433892181925,-1,0,0,-4,-8,-8,-7,-3
1558433892181925,-2,-7,-3,-2,-2,-2,-1,-2
1558433892197883,1,1,-1,2,4,-6,-4,0
1558433892197883,-1,5,-3,-2,-2,-2,-2,-2
1558433892207108,-4,-6,0,0,1,4,3,0
1558433892207108,6,9,5,2,1,0,1,2
1558433892212844,-1,2,-2,-1,-5,-1,-2,-3
1558433892212844,-5,-10,-11,-8,-6,-7,-1,-2
1558433892219825,-5,-2,-3,-4,-7,-8,-5,-2
1558433892219825,1,1,-2,0,3,6,-1,1
1558433892234786,1,-3,3,5,9,8,5,4
1558433892234786,0,1,6,3,5,-1,-2,2
1558433892241767,0,4,0,-3,-6,-2,-6,-2
1558433892241767,0,-2,-6,-5,-7,-8,-5,-3
1558433892257724,-12,-9,-5,-5,-5,-3,-2,0
1558433892257724,-3,-10,-2,-2,0,3,2,-1
1558433892264706,2,1,3,2,7,1,5,2
1558433892264706,1,1,2,-1,-4,-5,-3,-3
1558433892272683,-2,-3,-6,-3,-6,-3,-5,-3
1558433892272683,-2,1,-3,0,-2,-3,-1,-2
1558433892279666,3,6,2,3,5,3,1,-2
1558433892279666,-6,-12,0,0,0,1,4,0
1558433892295623,1,0,0,-2,5,8,1,0
1558433892295623,2,2,0,-1,-4,-2,-4,0
1558433892301606,-3,-1,-3,-4,-8,-5,-6,-4
1558433892301606,2,1,-1,-2,-3,-4,0,-1
1558433892317562,0,2,2,0,-2,-3,-1,-1
1558433892317562,4,8,4,3,7,4,3,3
1558433892324546,-5,-5,-3,-1,2,2,0,1
1558433892324546,0,0,-1,-2,-3,-1,-4,-2
1558433892332524,0,2,2,0,-6,-3,-2,-1
1558433892332524,0,-1,-6,-3,-2,-4,-2,0
1558433892347483,-5,-5,-5,-3,-8,-4,-1,-1
1558433892347483,5,6,4,0,6,7,0,1
1558433892355463,1,0,-3,1,7,2,1,1
1558433892355463,-2,-2,1,-1,-5,-5,-1,-1
1558433892362443,-2,-4,0,0,-4,-8,-3,-2
1558433892362443,0,-1,0,-1,-1,-3,2,1
1558433892378401,-2,-2,-3,-2,-2,-2,-3,-1
1558433892378401,-3,-5,-6,-8,-4,-1,-2,-4
1558433892384386,-4,-11,-5,-2,-8,-3,-5,-5
1558433892384386,1,3,2,2,1,1,-2,-3
1558433892393361,0,3,4,5,7,4,2,1
1558433892393361,2,-3,1,3,0,-1,0,0
1558433892407323,-9,-4,0,0,1,1,3,0
1558433892407323,-4,-3,0,1,3,0,0,-1
1558433892416299,1,0,-2,-2,-3,-2,-3,-2
1558433892416299,-1,0,0,-3,-8,-5,-5,-3
1558433892422285,8,4,1,-2,-3,-2,-3,-2
1558433892422285,-2,-1,-2,0,-2,-4,-1,0
1558433892438241,1,0,1,1,6,7,4,0
1558433892438241,3,9,4,0,-3,1,-1,-1
1558433892444224,1,-8,-6,-4,-3,-1,-1,1
1558433892444224,-6,-5,-5,-5,-5,-5,-3,-1
1558433892459186,2,1,-2,-4,-4,-4,-1,-2
1558433892459186,-1,7,2,0,-1,0,-1,0
1558433892475142,-2,-3,4,6,10,5,3,-1
1558433892475142,-1,-6,-5,-3,4,2,-1,0
1558433892483120,-3,-4,-4,-5,-11,-11,-8,-3
1558433892483120,-2,-4,1,1,3,-1,1,-4
1558433892483120,0,8,2,0,3,3,1,1
1558433892483120,0,-1,-2,-3,-1,2,2,0
1558433892498081,3,3,2,1,7,2,-1,1
1558433892498081,-4,-5,-2,-3,-6,-1,-1,0
1558433892504066,0,1,-1,-3,-6,-4,-5,-2
1558433892504066,-5,-8,-5,-4,-6,-5,-4,-2
1558433892520022,2,3,3,1,1,4,0,1
1558433892520022,6,1,-2,-1,4,2,-1,0
1558433892527003,-6,-9,-3,-1,3,-2,-2,0
1558433892527003,2,5,-4,-1,-6,-5,-2,-2
1558433892542961,-4,-3,-3,-2,-4,-5,-3,-4
1558433892542961,-6,-7,0,2,0,4,0,1
1558433892542961,4,8,3,3,1,2,2,1
1558433892542961,-3,2,-1,0,5,1,-2,0
1558433892558918,-7,-9,-2,-2,-3,-4,-2,-2
1558433892558918,-1,3,-2,-3,-5,-2,0,-4
1558433892564904,0,-3,-2,-1,2,0,1,0
1558433892564904,-2,-2,2,-1,-7,-1,-2,-3
1558433892587842,1,-1,1,3,4,2,0,-1
1558433892587842,-5,-8,-5,1,5,-1,-1,1
1558433892588837,-5,-1,-4,-5,-8,-2,-3,-3
1558433892588837,3,3,1,1,2,-1,-2,-2
1558433892602800,-1,3,-1,-2,-4,-2,-1,1
1558433892602800,1,-3,2,-2,-2,-1,0,-1
1558433892603798,1,0,-2,0,3,1,0,-2
1558433892603798,0,-1,-4,-2,-3,-4,1,-2
1558433892618758,-7,-5,-1,-1,-7,-6,-3,-2
1558433892618758,2,5,3,1,0,-2,-2,-1
1558433892624748,-4,-3,-2,3,7,3,1,2
1558433892624748,0,0,-2,-2,-4,0,-2,0
1558433892639704,-1,-3,2,-2,2,5,0,-1
1558433892639704,-2,-6,-1,-1,-4,-3,-3,-1
1558433892646687,-2,0,-1,-7,-9,-6,-3,-2
1558433892646687,-3,-5,1,0,0,-3,-1,0
1558433892663643,2,3,1,0,-2,-1,2,1
1558433892663643,5,7,-3,0,3,4,3,0
1558433892663643,-10,-9,-3,-2,-4,-2,-5,-5
1558433892663643,-2,2,1,-2,-4,-2,-1,-3
1558433892678600,-5,-7,-3,-1,-3,-5,1,-3
1558433892678600,5,11,-1,4,13,5,6,3
1558433892684583,3,4,-1,0,-2,2,-1,-4
1558433892684583,-7,-15,1,-2,1,2,-1,-4
1558433892699543,0,-1,-2,-2,-4,-2,-2,-1
1558433892699543,2,-3,-3,-2,-8,-4,-4,-3
1558433892707521,1,4,-2,-5,-6,-4,-2,1
1558433892707521,-4,-1,0,-2,-5,-2,-3,-2
1558433892722480,3,-1,3,2,5,7,3,0
1558433892722480,-2,6,2,2,5,0,1,4
1558433892723478,0,-1,-2,0,1,-1,-1,-1
1558433892723478,-4,-16,-2,-3,-5,-4,-3,-1
1558433892738441,-4,-4,-7,-4,-4,-4,-7,-4
1558433892738441,-1,-1,0,-4,-6,-4,-4,-3
1558433892744421,1,-1,1,-2,-3,0,-1,-1
1558433892744421,-1,3,1,2,2,1,4,1
1558433892759383,2,1,-2,1,1,0,0,-1
1558433892759383,-4,-6,-1,-1,0,2,-1,-4
1558433892767360,5,3,1,1,-2,-5,-3,0
1558433892767360,-1,2,-3,-1,-6,-5,-2,-2
1558433892782320,-3,-3,1,-1,-2,-4,-1,0
1558433892782320,0,-2,-5,0,6,4,1,0
1558433892783320,-3,-3,1,-1,1,3,1,-1
1558433892783320,4,3,1,-1,7,2,-2,2
1558433892798277,1,1,-1,-2,-7,-3,-3,0
1558433892798277,-10,-10,-6,-8,-7,-4,-3,-1
1558433892804262,-10,-6,-1,2,4,2,2,1
1558433892804262,-1,1,-2,1,0,1,0,-2
1558433892819221,2,5,-5,-2,-5,-1,0,-1
1558433892819221,-3,-7,1,-3,-7,-6,-4,0
1558433892827199,2,-2,0,0,-1,-1,2,0
1558433892827199,-2,4,1,2,7,3,1,0
1558433892843156,1,0,1,-1,4,-3,-3,0
1558433892843156,-2,-3,-1,-1,-2,1,-3,-3
1558433892843156,0,2,-2,-3,-3,-2,-2,0
1558433892843156,2,2,0,-3,-7,-6,-3,-1
1558433892858117,4,6,-1,1,7,2,-3,-1
1558433892858117,0,-5,2,2,6,8,4,2
1558433892864101,-2,-8,-2,0,1,0,-2,-4
1558433892864101,-2,1,0,-1,-1,-2,-4,-2
1558433892879061,-5,-4,-2,-4,-6,-5,0,-3
1558433892879061,1,1,-5,-5,-9,-8,-2,-3
1558433892887040,-1,-1,1,0,0,-2,-2,-1
1558433892887040,2,0,-3,-2,1,2,0,2
1558433892903028,1,4,2,1,1,1,1,3
1558433892903028,-8,-6,-5,-3,-3,-2,-2,-3
1558433892903028,6,6,1,-2,2,-2,-1,-1
1558433892903028,2,-1,-1,1,-1,0,-2,0
1558433892926961,-12,-13,-3,-1,1,2,0,-3
1558433892926961,3,1,1,0,-5,-4,0,-1
1558433892926961,0,4,-3,-4,-8,-5,-6,-2
1558433892926961,2,1,2,-1,-4,-2,-4,-1
1558433892939898,-1,-4,-1,5,14,12,6,1
1558433892939898,-2,-6,-6,-1,0,-2,1,-1
1558433892946881,-5,-6,-3,-3,-3,-3,-2,-1
1558433892946881,-3,1,-4,-3,-8,-5,-3,-7
1558433892962837,-3,-4,-5,-6,-19,-15,-6,-4
1558433892962837,-1,0,0,-2,2,3,1,0
1558433892963834,2,8,4,3,12,9,5,4
1558433892963834,-4,-8,2,1,6,5,3,2
1558433892978794,0,-1,-1,-2,-3,-5,-4,-3
1558433892978794,0,2,4,1,-5,-5,-5,-1
1558433892984778,2,1,-5,-4,-6,-3,-1,-1
1558433892984778,5,5,0,-1,3,2,2,1
1558433892999776,-14,-13,-3,-2,-4,-3,-1,-4
1558433892999776,-7,-5,4,2,-2,-1,1,0
1558433893006747,1,1,1,3,1,-3,-1,1
1558433893006747,-2,0,-2,0,4,-2,-1,1
1558433893022678,7,3,0,-2,-2,0,-2,1
1558433893022678,2,5,-1,-1,-2,-1,-3,-3
1558433893023675,-2,-7,-5,-3,-1,-2,-2,-2
1558433893023675,-4,-1,-4,-3,-6,-2,1,-1
1558433893038634,-2,-8,-2,-3,-1,-4,-4,-4
1558433893038634,0,1,3,2,5,2,0,-1
1558433893044619,-3,-2,1,1,5,2,3,0
1558433893044619,3,2,0,-1,0,0,1,1
1558433893059577,5,5,3,0,-4,2,1,0
1558433893059577,-10,-1,-4,-4,-6,-5,-3,-2
1558433893066559,-2,-9,-5,-4,-8,-6,-5,-4
1558433893066559,2,1,-1,1,0,-2,-4,-1
1558433893082516,-7,-8,1,3,5,5,1,1
1558433893082516,6,2,1,-2,0,-2,1,1
1558433893083513,-2,3,5,-1,-3,-3,-1,0
1558433893083513,2,1,-7,-2,-3,-2,0,0
1558433893098475,2,-4,-5,-2,-6,-4,-4,-4
1558433893098475,-3,-8,-5,-2,1,2,-2,-1
1558433893104811,0,-2,0,-1,0,0,-2,0
1558433893104811,-5,-2,4,1,-2,1,0,-1
1558433893119584,3,8,2,0,3,2,0,-1
1558433893119584,0,-3,-6,-1,1,2,1,-1
1558433893127584,-1,2,0,-1,-2,-2,-1,-2
1558433893127584,-2,-10,0,1,2,3,-1,-4
1558433893142654,-1,-1,1,0,-2,1,1,0
1558433893142654,2,2,-5,-4,-4,-4,-1,-1
1558433893143355,3,0,-1,0,-5,-3,-5,-2
1558433893143355,0,2,-1,-1,-1,-4,0,1
1558433893158315,-6,-1,4,3,11,5,3,2
1558433893158315,1,1,2,2,5,1,-1,-1
1558433893164301,0,-3,-4,-4,-10,-9,-3,-1
1558433893164301,-4,-5,-2,-3,-2,-2,-1,-2
1558433893179257,1,1,6,0,1,3,2,0
1558433893179257,3,3,-9,-1,-3,-1,-3,-2
1558433893195219,-5,-3,-2,-3,1,1,-1,-3
1558433893195219,1,0,-1,-3,-3,-1,-1,-2
1558433893203217,-3,-4,-2,-2,-6,-6,-3,0
1558433893203217,3,2,5,3,0,1,2,1
1558433893203217,-1,2,-1,0,-2,2,1,-3
1558433893203217,-3,-1,-3,-4,0,-8,-6,-2
1558433893218154,2,3,0,-3,-4,0,0,-1
1558433893218154,-8,-9,3,4,7,1,0,2
1558433893224201,-2,-1,-1,2,4,5,2,1
1558433893224201,-1,-6,-1,-1,-1,-1,-1,1
1558433893240352,3,6,-5,-5,-5,-8,-5,-1
1558433893240352,5,-7,-2,-6,-12,-7,-6,-3
1558433893247417,-14,-11,-2,-4,-4,-2,-2,-4
1558433893247417,-1,-1,2,1,4,4,1,0
1558433893263354,4,6,1,2,4,3,4,2
1558433893263354,3,5,-2,1,11,7,0,0
1558433893263354,3,3,0,1,4,0,-1,2
1558433893263354,-5,-2,0,-3,-6,-5,-3,-2
1558433893278314,-1,4,0,-1,-2,-5,-2,-2
1558433893278314,-6,-4,1,-3,-11,-8,-4,-5
1558433893284983,-6,-12,-3,-6,-13,-4,-4,-5
1558433893284983,1,3,1,5,14,9,7,3
1558433893299936,0,-1,-8,-2,8,8,3,2
1558433893299936,0,7,4,1,-1,1,0,0
1558433893306945,-4,-3,-4,-2,-7,-5,-4,-4
1558433893306945,0,-2,1,-3,-11,-7,-3,-1
1558433893322212,0,-2,-3,0,-3,1,0,-1
1558433893322212,6,4,-2,-1,1,-4,-2,0
1558433893330186,-9,-1,-1,-3,-6,-4,-1,0
1558433893330186,-10,-12,-1,2,6,6,1,-2
1558433893338834,-4,-2,-2,1,8,4,0,2
1558433893338834,-2,-1,0,-2,-8,-3,-4,-2
1558433893344818,7,6,4,4,5,-1,1,2
1558433893344818,-3,2,-6,-2,-7,-5,-5,-3
1558433893359776,1,1,0,-4,-12,-9,-8,-3
1558433893359776,-12,-20,-6,-3,-7,-1,0,-4
1558433893367093,8,7,0,1,16,9,5,2
1558433893367093,0,2,0,0,3,1,-2,0
1558433893381717,-1,-7,1,1,-2,-1,-1,-2
1558433893381717,-1,4,-2,-4,-5,-8,-3,-1
1558433893390023,-2,-3,-3,-3,-6,-5,1,0
1558433893390023,1,7,-2,-2,-5,-1,-3,-6
1558433893405980,1,-2,3,2,9,4,4,1
1558433893405980,-4,-3,1,0,0,-1,2,0
1558433893405980,-1,1,0,2,1,5,2,0
1558433893405980,10,10,1,-1,0,2,1,3
1558433893420649,-15,-15,-9,-3,-9,-10,-7,-6
1558433893420649,-2,0,1,-5,-4,-1,-3,0
1558433893426636,3,0,-4,-1,-4,-3,-2,3
1558433893426636,9,11,8,4,8,4,1,-1
1558433893441567,-1,-4,-4,-2,5,1,1,-2
1558433893441567,-3,-7,-4,-2,0,-1,2,-2
1558433893449562,0,-2,2,-1,-1,-1,-2,1
1558433893449562,-4,-3,0,-4,-10,-4,-2,-2
1558433893458511,2,5,-3,-2,-7,-3,-2,-1
1558433893458511,-3,-2,0,-2,0,-3,-4,-2
1558433893464496,1,2,2,3,5,4,1,1
1558433893464496,-2,-8,0,3,12,3,3,1
1558433893480480,1,0,-2,-5,-6,-1,-2,-1
1558433893480480,-1,3,-1,0,-2,-1,-2,-4
1558433893487434,4,4,-1,-3,-8,-6,-6,-2
1558433893487434,-10,-13,-6,-4,-1,-3,-1,-2
1558433893502396,5,6,5,0,1,-1,1,0
1558433893502396,2,3,-2,0,-1,-5,-1,0
1558433893509375,2,0,0,-2,0,2,2,-2
1558433893509375,-3,-6,-7,-4,-3,-2,-1,-3
1558433893525331,-3,1,1,1,0,-1,1,2
1558433893525331,6,4,7,4,6,6,2,3
1558433893526329,-8,-9,-11,-5,-4,-6,-3,-3
1558433893526329,0,-2,-2,-5,-11,-6,-5,-2
1558433893541289,-3,-5,-1,-1,3,2,-4,-5
1558433893541289,2,5,2,2,10,3,1,3
1558433893547273,3,10,2,2,-1,-1,-3,-3
1558433893547273,-3,-8,-7,-4,-6,2,-1,0
1558433893562234,-5,-9,-4,-3,-11,-7,-4,-3
1558433893562234,2,0,1,1,4,1,3,1
1558433893569216,5,2,2,3,10,6,3,1
1558433893569216,-11,-7,-3,-2,0,0,0,-3
1558433893585172,-2,-1,-2,-2,-4,-5,-5,-4
1558433893585172,0,2,-4,-3,-9,-5,-5,-3
1558433893586170,4,-2,2,0,-1,0,1,1
1558433893586170,2,6,0,1,3,3,0,1
1558433893601130,-1,-3,0,0,2,0,0,1
1558433893601130,-7,-6,-5,-2,-5,-5,-3,-5
1558433893607114,-2,-2,-1,-1,-7,-7,-4,-3
1558433893607114,5,1,-4,-1,-2,0,-2,-1
1558433893623071,-1,-3,2,0,3,5,4,4
1558433893623071,3,2,0,2,8,4,1,-1
1558433893629054,-2,-4,0,-5,-4,-2,-1,-2
1558433893629054,-4,-5,4,0,-8,-7,-4,-5
1558433893645012,2,2,-6,-3,-3,-2,-2,-1
1558433893645012,-3,-1,-2,-2,5,6,2,-1
1558433893646009,-2,-3,-3,-2,-2,-1,-3,-3
1558433893646009,0,-1,0,-2,-1,-1,0,1
1558433893660969,4,4,6,1,-3,-4,0,-1
1558433893660969,4,1,1,-2,-2,0,0,2
1558433893666953,-12,-3,-5,-1,-2,-2,-1,-3
1558433893666953,2,4,2,0,-1,-7,-2,-1
1558433893681914,-3,-6,-2,1,0,3,0,-2
1558433893681914,-7,-4,-4,-2,0,1,-1,-3
1558433893689892,1,-2,4,-2,1,-3,-2,-1
1558433893689892,-2,-1,-4,3,3,0,2,-1
1558433893704852,6,5,-4,-4,-1,-1,-1,-2
1558433893704852,-2,-1,-3,0,-2,-2,-3,-1
1558433893705849,-4,-7,-7,-5,-3,-1,1,-1
1558433893705849,2,3,2,-1,0,0,-2,-1
1558433893720809,1,-2,2,3,4,1,-1,0
1558433893720809,-1,1,0,-1,-2,1,0,0
1558433893726793,1,-2,-3,-3,1,-5,-4,-3
1558433893726793,-1,2,-3,-1,-2,-4,-1,-2
1558433893741787,-3,1,-3,-4,-5,-2,-1,-3
1558433893741787,-5,-10,-1,-1,-3,-2,-1,-2
1558433893749770,-1,-3,1,3,2,3,3,2
1558433893749770,3,3,0,0,6,2,4,3
1558433893764692,-3,0,-2,-4,-7,-7,-6,-2
1558433893764692,-5,-2,3,-2,-3,0,-2,-2
1558433893765691,-1,0,-5,1,5,6,1,-1
1558433893765691,5,3,3,0,1,0,-4,-1
1558433893780649,-1,-3,0,-1,0,-4,-2,1
1558433893780649,-8,-4,-9,-3,-4,-3,-1,-3
1558433893786633,0,-5,-1,-4,-9,-5,-6,-4
1558433893786633,3,3,-5,-2,0,-1,1,0
1558433893801593,-2,-4,4,4,9,4,2,3
1558433893801593,4,3,3,-2,-4,-4,-3,0
1558433893809574,-1,2,4,-1,-3,-1,1,-2
1558433893809574,-5,-6,-5,-4,-2,-1,-2,0
1558433893825529,0,-2,-1,0,-1,1,-1,-2
1558433893825529,0,3,-3,2,2,2,1,1
1558433893825529,0,1,4,-1,1,0,-3,1
1558433893825529,-2,-3,-3,-5,-7,-4,-4,-3
1558433893840865,-3,2,2,-1,-3,-1,-1,-2
1558433893840865,5,2,-3,2,2,7,4,1
1558433893847823,-10,-6,1,2,3,3,0,1
1558433893847823,1,0,0,-3,-4,-3,-3,-4
1558433893862431,-3,-6,-4,-3,-8,-4,-3,-2
1558433893862431,0,5,4,-4,-3,-8,-4,-3
1558433893869446,0,-6,-11,-5,-3,-2,-1,-2
1558433893869446,1,-1,1,-1,4,3,-1,1
1558433893885370,-1,1,2,-1,-2,-1,1,0
1558433893885370,4,2,2,1,-2,0,-1,0
1558433893886679,0,3,2,2,1,-1,-1,-1
1558433893886679,-1,-2,-1,1,3,-3,-1,-1
1558433893901329,-1,-1,-7,-4,-7,-4,-1,-2
1558433893901329,-1,-4,-4,-4,-5,0,-1,-1
1558433893907718,3,4,1,1,2,1,1,1
1558433893907718,-9,-5,-1,0,-4,0,-3,-2
1558433893930619,-2,-5,0,2,5,1,-2,0
1558433893930619,1,2,4,3,0,1,-1,0
1558433893931248,1,0,-4,-5,-3,-5,0,-1
1558433893931248,-8,-2,-6,-2,-1,-2,1,2
1558433893945575,-2,1,-4,-4,-2,-4,-5,-5
1558433893945575,-5,-16,-3,-3,-1,-1,-1,0
1558433893946208,1,2,5,2,1,0,0,-1
1558433893946208,6,6,2,1,3,-1,0,0
1558433893961168,0,0,-3,-3,-6,-1,1,-1
1558433893961168,-2,1,-4,-2,-2,-2,-3,-2
1558433893975461,2,3,3,2,3,5,2,-1
1558433893975461,1,4,1,2,-6,-4,-3,-3
1558433893982110,-3,-6,-6,-5,0,-1,-2,-1
1558433893982110,-9,-5,-2,0,-2,-2,0,-3
1558433893990423,-2,-3,-3,2,4,1,-3,0
1558433893990423,1,-1,4,-1,3,2,-1,1
1558433894005394,-1,-4,-12,-8,-7,-3,-3,-3
1558433894005394,1,0,-3,-2,-5,-5,-2,1
1558433894006047,-1,1,-2,-3,-4,-4,-1,-2
1558433894006047,-6,-9,1,-1,-3,-1,2,-2
1558433894021007,-2,1,6,1,-2,3,0,-3
1558433894021007,5,-1,-6,-3,2,-4,1,-1
1558433894027341,-7,-1,2,2,4,4,1,1
1558433894027341,2,-1,-2,0,1,-2,-3,-1
1558433894042294,-4,-3,1,1,3,1,1,2
1558433894042294,1,1,3,0,-3,-1,-4,1
1558433894049929,-2,-2,-4,-2,-2,2,-1,-2
1558433894049929,0,0,0,0,-4,-2,1,-1
1558433894065257,0,0,0,0,-1,-2,-1,0
1558433894065257,-2,3,-2,-2,-2,-4,-2,-3
1558433894065888,5,8,2,-2,-6,-5,-2,0
1558433894065888,-3,-16,-3,-1,5,5,1,1
1558433894080848,1,0,0,-1,0,-1,1,-2
1558433894080848,2,-2,2,2,1,-1,1,0
1558433894087183,-4,-7,-9,-5,-9,-8,-8,-4
1558433894087183,2,8,4,0,-3,-2,-2,-2
1558433894101792,4,7,4,3,5,1,1,1
1558433894101792,-2,-6,-3,1,8,5,2,0
1558433894109771,-1,0,2,-1,5,1,-1,-1
1558433894109771,-1,0,-3,0,-5,-1,0,1
1558433894125954,2,6,3,0,-2,-2,0,0
1558433894125954,0,-2,1,0,0,-1,0,-2
1558433894125954,-12,-11,-7,-3,-6,-5,-4,-4
1558433894125954,-3,-9,-7,-6,-3,-3,-4,-3
1558433894140686,-3,-4,-3,-2,-7,-3,-4,-1
1558433894140686,2,6,4,2,5,4,3,1
1558433894147883,3,2,3,4,4,4,2,-1
1558433894147883,-2,4,7,2,2,3,2,1
1558433894162835,0,-2,-8,-3,-6,-3,-3,1
1558433894162835,0,-1,-4,-3,-5,-6,-3,-2
1558433894169955,1,-3,1,-1,0,-2,0,-1
1558433894169955,4,2,0,-2,-7,-2,1,-2
1558433894185566,-9,0,0,-2,2,-3,-3,-3
1558433894185566,-4,-6,-5,0,4,-1,-4,-1
1558433894185566,-3,-1,-2,0,1,4,1,0
1558433894185566,-1,2,-2,0,1,1,1,-2
1558433894200530,3,3,5,0,0,2,1,2
1558433894200530,-3,-7,-1,-2,-7,-4,-3,-3
1558433894215845,0,-3,-2,-4,-1,-2,0,1
1558433894215845,1,2,-4,-5,-9,-7,-4,-4
1558433894222826,3,-2,0,1,4,-3,1,0
1558433894222826,-14,-6,-4,-1,0,2,1,1
1558433894229808,4,3,6,3,-3,-2,-1,-1
1558433894229808,-1,2,0,1,1,1,-1,0
1558433894244762,-3,-6,-5,2,2,2,1,-1
1558433894244762,2,2,-1,-3,-6,1,-3,1
1558433894252388,1,-4,-7,-3,-4,-2,0,1
1558433894252388,-2,-3,-1,0,3,-5,-1,2
1558433894261364,0,1,1,-3,-4,-2,-1,-4
1558433894261364,1,-1,-4,-2,1,-3,-2,-4
1558433894267389,-2,2,2,-1,-2,-1,-1,-1
1558433894267389,2,0,-4,0,0,-1,-2,-2
1558433894282669,-7,-8,-4,-2,-4,-1,0,-1
1558433894282669,1,4,-1,-3,-3,-1,0,-1
1558433894289665,-1,-1,-3,-1,-1,-4,-3,-1
1558433894289665,-3,-1,5,1,-2,2,1,1
1558433894306248,0,0,-7,2,2,0,1,2
1558433894306248,2,2,-3,2,2,1,-2,-1
1558433894312571,2,1,5,0,0,-1,-1,-1
1558433894312571,1,0,-8,-2,-2,-1,0,0
1558433894327352,-4,-3,-1,-4,-1,-2,0,0
1558433894327352,-3,-4,3,-1,-4,-4,-1,-1
1558433894329182,-1,-2,-3,1,2,2,-1,0
1558433894329182,4,4,5,5,11,5,2,0
1558433894342537,2,3,-4,0,-1,-2,0,1
1558433894342537,-2,-3,-3,-1,0,-1,-1,-1
1558433894350381,-1,-2,4,-2,-7,-4,-3,-2
1558433894350381,-5,-4,-5,-5,-3,-3,-3,-3
1558433894365368,0,3,1,1,2,0,0,-1
1558433894365368,-1,-1,2,2,2,1,3,0
1558433894372316,0,-7,-9,-2,1,2,2,-3
1558433894372316,-18,-13,-2,0,-3,-2,-4,-3
1558433894381044,2,1,-1,-1,2,-1,-2,-2
1558433894381044,5,9,-1,-4,-9,-4,-2,-3
1558433894387274,-2,-1,-2,-4,-6,-5,-2,2
1558433894387274,1,-7,-1,0,2,-2,-1,1
1558433894401988,0,-4,-4,-3,1,1,-1,-2
1558433894401988,2,1,3,0,1,1,-3,0
1558433894409966,-12,-11,-7,-4,1,1,0,-2
1558433894409966,4,3,1,-2,-4,0,-1,-1
1558433894424926,-5,-3,2,1,-4,0,-2,-5
1558433894424926,2,1,0,2,5,-3,0,1
1558433894431909,0,3,3,1,-3,-5,-3,-1
1558433894431909,-1,0,0,-1,-6,2,-1,-1
1558433894448256,-2,-6,1,-1,3,4,-2,1
1558433894448256,0,2,-4,0,5,-1,1,-1
1558433894448256,2,3,-1,-1,-2,-2,-3,-4
1558433894448256,-2,1,1,-2,-4,-6,1,-1
1558433894461862,-8,-4,-8,-6,-9,-4,-2,-4
1558433894461862,-1,-4,0,0,1,0,-3,0
1558433894469806,-4,-2,1,1,4,2,0,0
1558433894469806,4,2,-6,-4,-3,0,-2,-1
1558433894484774,6,8,5,5,4,2,2,2
1558433894484774,-1,0,7,5,5,5,2,3
1558433894491749,1,-3,-10,-7,-1,-3,-2,-2
1558433894491749,-1,-3,-7,-3,-3,-3,-4,-2
1558433894507703,-9,-7,9,1,-2,-1,-1,-1
1558433894507703,-1,-1,-7,-6,-10,-4,-2,-2
1558433894508702,3,4,5,3,0,-2,-1,1
1558433894508702,0,-2,0,3,8,4,3,3
1558433894521666,5,0,-3,-3,-3,-4,-1,1
1558433894521666,-2,1,7,0,-3,-2,-3,-4
1558433894530066,0,-1,-7,-3,-8,-9,-3,-4
1558433894530066,-7,-8,-5,-1,1,1,1,-2
1558433894545119,5,6,5,4,13,5,2,2
1558433894545119,-7,-2,-4,-2,-7,-2,-1,-2
1558433894551656,3,0,2,1,0,-2,0,-1
1558433894551656,-3,0,-8,-5,0,-2,-2,-1
1558433894567615,4,2,6,2,-4,0,0,0
1558433894567615,0,-3,-14,-6,-1,1,0,-2
1558433894568611,-6,-6,2,1,0,0,-2,0
1558433894568611,6,7,2,3,3,3,1,1
1558433894582023,-7,-7,-1,-2,-4,-6,-4,-4
1558433894582023,3,7,4,0,-7,-1,1,1
1558433894590000,-2,-3,-10,-5,-1,1,1,0
1558433894590000,0,-3,2,-4,-3,-3,-3,-3
1558433894604518,1,2,-1,-1,-1,0,-3,-2
1558433894604518,-1,0,-2,-1,2,1,-1,-1
1558433894612835,-4,-7,-5,-2,-5,-4,-4,-3
1558433894612835,-2,-2,2,-1,-1,1,2,1
1558433894627453,2,1,-3,0,6,2,0,1
1558433894627453,0,-2,2,-2,-2,-2,1,0
1558433894628453,1,7,-1,-1,0,0,-1,1
1558433894628453,-4,-3,1,-3,-8,-6,-8,-6
1558433894642900,-3,-6,-4,-2,-3,-1,0,-2
1558433894642900,-4,-9,-1,1,4,2,2,-1
1558433894649889,1,1,1,1,0,1,2,1
1558433894649889,4,3,2,2,4,1,3,3
1558433894665458,-1,0,0,1,0,-3,-4,-3
1558433894665458,3,3,-5,-3,-4,-3,-5,-1
1558433894672788,-1,3,-1,0,1,1,2,0
1558433894672788,-4,-10,-5,-3,-1,-5,-1,-2
1558433894688620,2,0,4,-3,-5,-5,-5,-2
1558433894688620,-2,-2,-7,-2,-1,-4,-1,-2
1558433894688620,1,-1,-4,-4,1,5,-1,0
1558433894688620,1,4,4,0,3,5,2,0
1558433894702254,-1,1,-6,-2,3,0,5,3
1558433894702254,2,2,7,1,2,0,-2,1
1558433894710471,0,3,-1,0,-6,-3,-5,-1
1558433894710471,-4,-10,0,2,0,0,-3,-3
1558433894725432,3,2,3,4,0,3,3,0
1558433894725432,0,-4,-13,-5,-4,-6,-1,-1
1558433894732558,-3,-2,1,-2,-3,-3,0,-2
1558433894732558,-1,4,-2,-2,-3,-2,-2,0
1558433894748470,-4,-3,-3,-2,2,1,-4,-4
1558433894748470,3,6,5,2,2,-1,0,2
1558433894748470,-8,-8,-1,-3,0,3,0,-4
1558433894748470,0,4,-4,-3,-6,-5,-2,0
1558433894762413,-1,-7,-1,-1,2,2,2,-1
1558433894762413,-5,-6,-3,-2,-3,-1,2,-2
1558433894770297,6,6,6,1,-3,-2,0,0
1558433894770297,-6,-4,-3,-2,-7,-3,-3,-5
1558433894784035,-4,-1,-5,-1,-7,-5,-2,-2
1558433894784035,1,0,-4,-2,3,0,0,0
1558433894792322,-1,-2,-3,-6,-1,-3,-2,-3
1558433894792322,1,2,0,2,-2,0,1,-1
1558433894808256,-3,-4,-7,-6,-6,-2,-5,-4
1558433894808256,-3,0,3,0,-4,-1,-4,-1
1558433894809112,2,-1,6,6,15,9,6,4
1558433894809112,6,2,-9,-6,2,3,-2,-1
1558433894821936,-9,-8,0,-3,-2,-2,-2,-1
1558433894821936,0,0,2,2,-4,1,0,0
1558433894830209,-11,-6,-2,1,-2,-2,-2,-1
1558433894830209,6,7,5,-1,-3,-6,-4,-1
1558433894844872,-1,-3,-5,-1,-6,-3,1,1
1558433894844872,-5,-6,-6,-4,9,6,2,1
1558433894851858,7,3,-4,0,1,-1,-1,-1
1558433894851858,-5,-5,-1,1,1,4,1,-1
1558433894867814,-2,0,-1,-4,-8,-7,-5,-2
1558433894867814,-1,-2,0,-2,-2,-1,-1,-1
1558433894868808,2,2,-2,-4,-5,-2,-1,-1
1558433894868808,-5,-10,-2,-1,2,0,1,0
1558433894881775,0,1,0,2,3,2,-1,1
1558433894881775,-2,-9,0,2,1,4,1,0
1558433894890136,3,6,6,1,-2,-3,-1,0
1558433894890136,-2,2,1,-2,-9,-9,-3,0
1558433894905088,-10,-9,-11,-8,-9,-5,0,-3
1558433894905088,2,1,-4,0,14,9,1,-2
1558433894912819,-2,-2,0,0,1,1,-1,-2
1558433894912819,-1,2,5,1,2,1,2,0
1558433894928017,7,8,1,-2,-6,-9,-3,-2
1558433894928017,-2,-3,-1,-4,-14,-10,-4,-3
1558433894928649,-9,-13,-2,0,4,2,1,1
1558433894928649,0,3,3,7,14,7,2,-1
1558433894942892,3,1,-8,-4,-2,0,-2,-1
1558433894942892,-1,-1,4,-3,-9,-7,-3,-4
1558433894949974,2,1,-4,0,-4,-7,-4,-2
1558433894949974,-3,-5,-4,-1,-2,1,1,0
1558433894964891,1,2,6,1,3,6,2,2
1558433894964891,-4,-3,-1,-1,-4,-5,-4,-2
1558433894972838,-3,-5,-3,-4,-3,-1,-1,-2
1558433894972838,-3,1,-5,-5,1,2,-3,-2
1558433894987826,4,4,-4,1,3,-1,0,0
1558433894987826,2,-6,2,-3,-7,-6,-2,1
1558433894988493,0,2,1,0,-3,-2,1,-1
1558433894988493,-8,-11,0,1,-2,2,-1,-2
1558433895002748,3,4,4,4,8,4,1,1
1558433895002748,-1,6,1,1,1,2,1,1
1558433895009752,6,3,0,-3,-1,-4,-3,-2
1558433895009752,0,-3,-2,-2,-5,-1,-2,-1
1558433895024393,-1,-4,-4,-1,-5,-1,-1,0
1558433895024393,2,11,5,3,1,-3,-2,-1
1558433895032669,-1,-5,-6,-1,1,4,1,0
1558433895032669,-3,-5,-5,-7,-7,-7,-4,-3
1558433895048359,0,-7,-1,-2,-1,0,-2,-3
1558433895048359,-4,-5,0,-1,-2,-3,-2,-3
1558433895048359,2,4,2,1,0,-2,0,2
1558433895048359,2,2,4,2,0,0,1,0
1558433895062290,0,1,3,-1,0,2,0,-1
1558433895062290,-2,-3,-11,-1,2,3,1,-2
1558433895070272,-4,-2,-2,-3,-3,-1,0,-2
1558433895070272,-2,-2,-7,-6,-9,-9,-2,-1
1558433895084234,-1,-2,1,0,-3,-1,-2,-1
1558433895084234,1,-2,3,3,4,2,2,2
1558433895092525,8,6,9,5,6,2,-1,-1
1558433895092525,-20,-16,-11,-2,-3,-1,0,-4
1558433895108333,0,2,3,1,2,-3,-1,0
1558433895108333,-4,-3,-9,-5,-5,-1,-2,-2
1558433895108333,2,-1,-4,-3,-3,-5,-3,0
1558433895108333,5,7,6,4,10,6,2,1
1558433895122447,-2,1,1,-1,-2,-1,-1,-3
1558433895122447,-3,-3,-5,-5,-3,0,0,-3
1558433895130174,-7,-1,-3,-2,-3,-2,-3,-3
1558433895130174,6,9,8,2,-6,-7,-4,0
1558433895145190,-6,-14,-5,-1,1,2,2,1
1558433895145190,1,-4,-10,-5,-2,-4,-2,0
1558433895152367,-5,-8,0,-2,-5,0,-3,-3
1558433895152367,6,6,4,3,6,4,1,2
1558433895167016,-3,1,7,1,-3,-6,-1,-1
1558433895167016,-1,2,4,0,-1,-1,0,-1
1558433895175083,1,-5,-9,-4,1,0,-1,0
1558433895175083,-15,-14,-3,0,-2,-1,-3,-5
1558433895182294,1,1,-6,-4,-2,0,3,2
1558433895182294,-2,-3,1,-2,-3,-3,-3,0
1558433895190262,-2,1,0,-4,-6,-5,-1,-2
1558433895190262,6,3,2,3,0,0,-2,0
1558433895205214,-1,-1,-1,2,2,2,-1,-1
1558433895205214,-2,-4,-2,2,1,0,1,1
1558433895212199,4,6,3,3,4,4,0,-2
1558433895212199,1,0,-1,-3,-5,-1,-1,0
1558433895227144,-2,-1,-7,-1,-3,-3,-2,0
1558433895227144,4,7,8,4,5,1,0,3
1558433895235931,-5,-1,-2,1,2,2,-1,-2
1558433895235931,1,-3,-5,-2,2,-1,1,2
1558433895241811,-3,-4,-4,-3,-2,-3,-7,-4
1558433895241811,-2,0,6,1,-2,-2,-1,-3
1558433895250072,-1,0,2,2,-2,-1,0,1
1558433895250072,2,2,-3,-5,-5,-2,-2,-4
1558433895265109,-5,-5,-1,-4,-2,-1,2,-1
1558433895265109,5,4,-4,-3,0,1,-1,-1
1558433895272191,-9,-5,0,2,-1,-2,-2,-2
1558433895272191,0,-1,2,-1,-1,0,0,-1
1558433895287703,-4,-10,-4,1,0,0,-1,-2
1558433895287703,-3,3,2,0,-3,-4,-1,1
1558433895295019,6,1,-3,-3,1,2,1,1
1558433895295019,2,1,-2,0,-2,-5,-2,-2
1558433895303649,0,0,1,0,1,1,-1,-3
1558433895303649,-3,-6,4,4,5,4,2,2
1558433895309961,-1,0,-7,-5,-2,-1,-3,-3
1558433895309961,-3,-3,-8,-2,-4,-7,-2,0
1558433895324889,2,3,3,-2,-4,-4,0,-3
1558433895324889,1,-1,0,-1,-6,-4,-3,-3
1558433895332659,-2,-3,-2,-2,2,1,3,3
1558433895332659,4,4,1,-2,0,-3,0,-1
1558433895347855,-3,-3,-2,-1,1,3,0,0
1558433895347855,3,-2,-1,0,-3,1,0,0
1558433895354832,-12,-8,-1,-1,-2,0,-3,-4
1558433895354832,0,-1,-5,1,0,2,2,0
1558433895370790,8,9,4,3,0,0,-1,1
1558433895370790,-3,-3,-1,-1,-3,0,-1,-1
1558433895370790,0,-2,-3,1,-2,-5,-4,0
1558433895370790,8,12,5,1,1,2,-1,0
1558433895384431,-8,-8,-4,-5,0,-1,-2,-1
1558433895384431,-9,-13,-6,-2,-2,0,1,-1
1558433895392712,4,6,5,-1,-10,-5,-2,-4
1558433895392712,-5,-9,-12,-5,-1,-3,-2,-3
1558433895407441,6,9,3,6,13,6,5,5
1558433895407441,-3,-4,-1,-2,4,0,1,-1
1558433895414676,-3,-4,4,0,-5,-4,-4,-4
1558433895414676,0,3,2,-2,-2,4,3,1
1558433895430648,4,3,-3,-2,-3,-3,-3,-1
1558433895430648,4,6,-2,-3,-1,-4,-3,-2
1558433895431304,0,-4,0,0,2,1,3,3
1558433895431304,-6,-6,-3,-4,-6,-6,-5,-1
1558433895444575,1,-1,2,3,4,4,4,1
1558433895444575,-3,-1,-2,0,-4,1,0,-1
1558433895452517,6,6,0,0,-1,-1,0,-2
1558433895452517,-5,-7,2,0,-1,-2,-1,-1
1558433895467208,2,0,-7,-6,-5,-3,-4,-1
1558433895467208,-1,1,1,0,3,2,-4,-2
1558433895474306,1,2,-6,-2,2,4,1,-1
1558433895474306,-3,-9,1,0,1,0,-1,-1
1558433895491485,1,2,-2,-1,-2,-3,-2,-5
1558433895491485,-6,-5,-4,-4,-6,-3,-3,-2
1558433895492144,-3,-1,2,-1,1,0,2,2
1558433895492144,2,-3,-3,1,3,3,2,1
1558433895504538,-2,-3,2,0,1,-1,0,-2
1558433895504538,-3,-2,-4,0,-3,-6,-1,1
1558433895512340,2,5,3,-1,0,1,0,0
1558433895512340,1,7,-2,1,4,1,-1,-1
1558433895527049,-1,-11,-3,-2,-7,-5,-5,-2
1558433895527049,2,4,0,-1,-4,-6,-1,-2
1558433895534031,-3,-7,-6,-3,-2,-2,-3,0
1558433895534031,2,2,-3,-3,-4,-4,-1,0
1558433895549986,-2,4,3,-1,-5,-2,-2,-1
1558433895549986,0,0,-5,-2,0,3,0,-3
1558433895550985,4,0,2,1,11,6,0,1
1558433895550985,-2,-6,-2,-2,-1,0,0,-1
1558433895563949,-4,-2,1,2,3,-2,-1,1
1558433895563949,-2,-3,1,-3,-4,-2,-4,-1
1558433895572372,2,5,-7,-1,-1,-2,2,-2
1558433895572372,-4,-1,-1,0,5,4,2,0
1558433895586889,-4,-5,6,2,-8,-6,-3,-1
1558433895586889,0,1,3,-3,-6,-2,-2,-2
1558433895595310,-2,-6,-7,-1,-2,-1,3,-2
1558433895595310,0,3,-5,-3,5,0,-2,-1
1558433895611153,4,3,-1,0,0,3,1,0
1558433895611153,4,3,2,1,-1,-2,-1,-1
1558433895611153,-9,-3,4,-3,-7,-6,-3,-2
1558433895611153,1,1,-2,0,-6,-6,-2,-3
1558433895625206,-3,-3,-5,-2,4,2,2,1
1558433895625206,-3,-3,1,1,9,7,0,0
1558433895632212,4,3,2,1,-2,-4,-3,-2
1558433895632212,1,4,5,2,0,-1,1,0
1558433895647861,-2,-3,-1,-1,3,0,1,0
1558433895647861,3,3,-4,-1,0,-1,2,0
1558433895654709,-4,-4,-3,-4,-6,-5,-1,-3
1558433895654709,-5,-7,1,-5,-9,-7,-5,-5
1558433895670986,0,0,-2,1,-3,0,-2,-1
1558433895670986,-2,-3,-2,-1,2,1,1,1
1558433895670986,4,7,3,2,6,5,0,2
1558433895670986,1,3,5,2,0,-1,0,1
1558433895684626,-8,-10,3,-1,-6,-5,-2,-2
1558433895684626,-1,-2,-6,-1,1,1,-2,0
1558433895692836,-5,-10,-14,-5,2,4,0,-3
1558433895692836,7,3,1,0,-5,-2,-1,1
1558433895715966,-8,-3,0,0,2,3,-1,-2
1558433895715966,-12,-7,-1,-5,-4,-2,-3,-5
1558433895715966,1,-1,1,-1,-6,-5,-1,2
1558433895715966,1,1,3,2,6,5,1,-1
1558433895730828,0,1,-2,2,7,5,3,1
1558433895730828,0,-2,1,0,0,-1,-1,0
1558433895730828,-1,-7,-1,-1,-5,-5,-2,-1
1558433895730828,-4,-2,-2,-4,-7,-6,-2,-3
1558433895744788,0,2,-1,0,-4,-1,1,0
1558433895744788,0,-1,-5,-1,3,0,0,0
1558433895752797,1,4,3,-2,1,-2,0,0
1558433895752797,-2,3,-1,-2,-2,-1,-3,-2
1558433895767407,1,1,-1,-3,-2,0,-2,0
1558433895767407,-3,-5,-2,0,0,1,-1,-1
1558433895774685,-3,-5,-3,-3,-6,-4,-4,-2
1558433895774685,-2,-5,-2,-1,-2,-3,-3,-3
1558433895790459,4,8,-6,0,1,-1,2,-1
1558433895790459,2,4,3,0,-1,0,2,1
1558433895791568,-2,-9,-1,1,2,0,-1,-1
1558433895791568,-6,1,7,3,-1,2,-1,-2
1558433895805313,-4,-4,1,-2,-5,-3,-4,-2
1558433895805313,-2,-8,-18,-10,-4,-4,-2,-1
1558433895812286,-2,-1,1,1,2,-1,-1,-1
1558433895812286,2,-3,-2,-2,0,-4,0,2
1558433895827553,4,6,9,1,0,-4,-2,0
1558433895827553,-2,-1,1,0,0,1,-1,-1
1558433895834229,1,6,1,0,0,1,-2,-1
1558433895834229,-2,-4,-2,-1,-2,-2,-2,0
1558433895850187,-2,-3,-5,-3,-1,0,0,-4
1558433895850187,1,0,4,3,1,-2,-2,0
1558433895851181,-2,0,-9,-5,-3,-3,0,1
1558433895851181,-5,-6,-7,-2,-3,-2,-2,-2
1558433895865220,1,2,-3,0,-4,-1,0,1
1558433895865220,0,-3,1,1,-4,-3,-3,-2
1558433895872126,-1,7,14,6,2,1,1,-2
1558433895872126,-1,-6,-13,-5,-2,0,0,-4
1558433895887085,-11,-12,-18,-12,-9,-5,-4,-5
1558433895887085,0,1,3,-1,-2,0,2,1
1558433895894068,0,1,0,0,2,1,-1,-1
1558433895894068,2,2,6,3,1,1,0,2
1558433895910022,4,2,0,-2,2,4,-1,-2
1558433895910022,5,5,2,2,2,-1,1,2
1558433895911020,-18,-19,-9,-4,-6,-1,-1,-4
1558433895911020,6,5,0,0,2,0,-1,1
1558433895925203,0,1,-1,1,2,2,1,-1
1558433895925203,2,5,1,1,-5,-5,-3,-2
1558433895932317,4,-1,1,2,2,3,0,0
1558433895932317,-5,-3,2,-1,-1,1,-1,0
1558433895947274,0,-3,-2,-1,-7,-5,-2,-1
1558433895947274,-1,-1,2,0,2,-1,1,-1
1558433895954903,2,4,-4,-6,-4,-2,-4,-1
1558433895954903,-5,-9,-1,-1,2,2,1,0
1558433895971076,1,3,8,3,1,0,0,0
1558433895971076,0,0,-6,-4,-4,2,1,-1
1558433895971076,7,7,3,0,0,-4,0,0
1558433895971076,-5,-3,0,-2,-1,1,-1,-1
1558433895984823,-2,-8,-3,-1,-3,-5,-2,-1
1558433895984823,-6,-6,-2,-2,-4,-5,-2,0
1558433895992256,7,6,1,3,6,4,2,1
1558433895992256,4,4,-1,-1,-4,-1,-1,0
1558433896007246,-7,4,2,0,4,3,1,0
1558433896007246,0,2,2,-1,-2,0,-3,-2
1558433896022321,-7,-18,-2,-1,-3,-2,-2,-1
1558433896022321,-2,-1,-6,-3,-3,-1,-1,-1
1558433896030476,1,-1,2,-2,-6,-6,-4,0
1558433896030476,4,6,-3,-2,-3,-3,-2,-3
1558433896031183,-1,0,-2,-3,-2,0,-3,-2
1558433896031183,-1,2,1,2,2,0,-1,-2
1558433896045215,5,5,8,2,-1,2,1,1
1558433896045215,-4,-4,-7,-1,0,1,-1,-3
1558433896052401,-3,-2,-3,-5,-7,-6,-3,-2
1558433896052401,-1,-1,-2,-3,-4,-2,0,-3
1558433896067084,5,6,0,1,4,0,-1,-1
1558433896067084,-9,-7,7,3,2,0,-1,-2
1558433896074065,-1,-4,-6,-3,-5,-1,0,-1
1558433896074065,1,-1,0,-3,-1,-2,-2,0
1558433896098002,2,0,-10,-7,-7,-5,-2,-3
1558433896098002,-2,-1,4,2,5,4,2,1
1558433896098999,3,2,-4,0,3,2,-1,1
1558433896098999,-7,-6,-3,-3,-6,-4,-2,0
1558433896105479,-1,-5,-2,-2,-1,-1,-1,-2
1558433896105479,2,2,4,0,3,-1,-1,2
1558433896112466,-2,3,3,0,-1,-1,1,-2
1558433896112466,4,2,0,1,2,-1,0,-1
1558433896127408,-7,-2,-2,-2,1,0,-2,-1
1558433896127408,-4,-11,-4,0,-5,-2,-2,-3
1558433896134906,-3,-6,-3,-1,-2,-2,-1,0
1558433896134906,1,1,0,0,0,1,1,-1
1558433896150204,2,4,-4,0,2,0,-3,-1
1558433896150204,2,-1,-5,-2,-3,-3,-1,-1
1558433896157844,2,3,1,2,3,2,2,2
1558433896157844,3,0,0,0,5,4,2,1
1558433896165214,-13,-13,-2,-1,-1,0,-2,-5
1558433896165214,4,2,-3,-3,-3,-3,-2,-1
1558433896172158,-1,-2,1,-3,-7,-7,-4,-3
1558433896172158,0,-1,-2,0,1,2,2,3
1558433896187095,7,0,-10,-6,0,2,1,1
1558433896187095,1,-2,0,-2,-3,0,-2,0
1558433896194744,-2,0,2,1,1,3,1,0
1558433896194744,4,4,4,2,-2,-5,-5,1
1558433896209732,-5,-4,1,1,0,-2,-1,-3
1558433896209732,-1,0,-3,-2,-4,-2,-2,-1
1558433896217970,2,2,-3,-1,0,1,-1,0
1558433896217970,-1,0,-1,-1,-1,-1,1,-1
1558433896232669,-1,-4,1,1,5,0,1,1
1558433896232669,3,8,3,1,5,1,-1,-2
1558433896233642,-5,-4,0,2,8,7,2,-1
1558433896233642,-3,-5,-4,-4,-5,-4,-2,-4
1558433896246638,5,4,-1,-1,-8,-7,-2,0
1558433896246638,-12,-9,2,-1,-6,-4,-1,-1
1558433896254596,5,9,-7,-6,-4,-4,-3,-2
1558433896254596,-6,-13,-2,-2,-4,0,-2,-3
1558433896269971,0,-1,1,0,0,-2,-1,1
1558433896269971,6,8,6,2,7,6,4,3
1558433896277531,-2,-1,-3,-3,-3,-3,-4,-5
1558433896277531,-3,-1,-8,-3,1,3,0,-3
1558433896292481,1,2,7,4,1,1,-1,0
1558433896292481,3,5,0,1,1,-2,-2,0
1558433896293480,-12,-12,-2,0,-6,-6,-2,-2
1558433896293480,-2,0,-3,-1,-1,-1,-3,-1
1558433896306445,-5,-3,-3,-4,-2,4,3,-1
1558433896306445,-6,-6,-9,-5,-6,-3,-3,-4
1558433896314423,4,3,4,6,9,2,0,0
1558433896314423,1,6,4,-2,1,-4,-3,-1
1558433896329384,-4,-9,0,-2,-5,-5,-2,0
1558433896329384,4,4,-1,-4,-1,4,2,0
1558433896337364,-2,-4,-16,-5,-3,-3,0,0
1558433896337364,-1,0,0,2,0,-2,-3,-4
1558433896352322,-4,-2,0,1,0,1,-1,-2
1558433896352322,-4,-11,-1,-2,-4,-1,1,-2
1558433896353318,3,2,6,2,2,1,2,2
1558433896353318,-3,1,-1,0,2,-1,2,1
1558433896367282,4,3,-3,-1,-2,-2,-2,0
1558433896367282,1,-1,-2,1,3,0,-1,-1
1558433896374280,1,3,2,2,1,2,1,1
1558433896374280,-3,-7,0,-3,-2,1,-1,-1
1558433896389225,-2,0,-2,-2,-6,-4,1,-1
1558433896389225,-2,1,-4,-3,-2,-4,-1,0
1558433896397263,7,-1,0,1,7,4,3,-1
1558433896397263,-2,-2,-1,0,-4,-3,1,-1
1558433896412164,2,1,-1,0,0,1,-2,-2
1558433896412164,-1,-2,-2,-1,-2,-2,-3,-1
1558433896413161,-2,2,6,-2,-4,-1,-2,-2
1558433896413161,1,1,-5,0,0,-1,-1,0
1558433896427122,2,-3,-5,-4,-2,-6,-3,2
1558433896427122,-8,-3,-3,-3,-5,-5,-3,-3
1558433896434109,-3,-4,0,2,-1,-3,-5,-2
1558433896434109,-1,-2,3,-3,-2,1,-1,0
1558433896449063,2,7,6,2,5,4,1,-1
1558433896449063,-3,-4,-1,-1,-3,-3,-1,-2
1558433896458047,-8,-20,-12,-5,-7,-6,-4,-2
1558433896458047,-2,0,2,-1,-3,-1,0,3
1558433896472998,4,3,-8,-2,-6,-4,-2,-2
1558433896472998,0,5,3,1,7,2,1,1
1558433896473998,-3,0,2,0,2,3,1,-1
1558433896473998,1,-1,-4,1,-1,-3,-3,-3
1558433896486962,3,7,8,4,12,7,4,3
1558433896486962,5,1,1,1,0,2,0,1
1558433896494226,-14,-15,-7,-5,-8,-4,-2,-4
1558433896494226,-2,-1,-5,-6,-9,-8,-5,-2
1558433896509901,2,0,0,-1,-5,-2,-1,-2
1558433896509901,-11,-10,-7,-4,2,-1,-3,-3
1558433896517880,12,14,11,7,13,10,7,6
1558433896517880,0,-1,-2,1,2,2,1,1
1558433896532838,-4,-5,0,-1,0,0,-2,1
1558433896532838,0,-2,-4,-5,-10,-10,-7,-1
1558433896532838,2,5,-1,-4,-14,-7,-4,-6
1558433896532838,-6,-1,5,1,10,6,2,-1
1558433896546804,0,-4,-6,-3,1,-4,-3,-3
1558433896546804,-3,-10,0,1,-5,-7,-4,-4
1558433896554786,-1,1,-1,0,2,-2,1,3
1558433896554786,8,7,-1,-3,-6,-1,-2,0
1558433896578717,-15,-8,-4,-3,-9,-4,-6,-6
1558433896578717,7,6,5,5,6,9,8,4
1558433896579714,-5,-7,1,-3,-3,-6,-3,0
1558433896579714,-1,5,0,3,2,1,-1,-2
1558433896592678,-3,-10,-5,-3,0,0,-1,1
1558433896592678,-3,-4,-10,-7,-14,-12,-8,-6
1558433896593677,3,7,3,2,4,7,2,2
1558433896593677,0,-4,-2,-1,11,9,2,0
1558433896606642,1,3,4,5,5,0,3,1
1558433896606642,4,2,-3,-5,-7,-6,-1,0
1558433896614620,-1,3,0,-4,-3,-2,-2,-1
1558433896614620,-4,-6,-2,-3,-5,-5,-4,-3
1558433896629586,0,0,-2,-1,-3,2,0,-3
1558433896629586,-1,0,-1,-1,3,3,1,1
1558433896637559,-1,2,0,-1,-7,-3,-1,-1
1558433896637559,2,0,-5,-2,-1,-1,-1,-2
1558433896652520,-1,1,12,6,13,4,3,4
1558433896652520,-2,-3,-7,-3,-1,-2,-1,-2
1558433896653517,0,-2,-5,-7,-15,-8,-9,-5
1558433896653517,-1,-2,-1,2,5,0,1,2
1558433896667484,6,1,-5,-2,-6,-3,0,0
1558433896667484,-3,3,8,3,-1,2,1,0
1558433896674466,3,2,-1,-2,2,-3,-2,0
1558433896674466,1,-3,1,1,5,6,-1,-1
1558433896689420,-1,0,0,-2,1,1,0,0
1558433896689420,2,3,-2,-2,1,2,-3,-1
1558433896705378,-4,-5,1,2,1,2,1,-2
1558433896705378,-1,3,1,-2,-8,-5,-1,-1
1558433896712365,-4,-7,-10,-5,-8,-4,-6,-6
1558433896712365,-2,1,4,5,7,1,3,2
1558433896713357,2,3,-2,-2,2,-2,-3,-4
1558433896713357,-2,-3,0,-2,-2,-1,-1,0
1558433896727318,1,0,-1,1,-2,-5,0,1
1558433896727318,0,-1,0,-2,0,1,-2,-3
1558433896734311,-3,-3,2,-2,-1,-3,-2,-1
1558433896734311,-3,-2,-2,-4,-5,-6,-4,-4
1558433896749261,-4,-2,-2,-5,-15,-6,-7,-5
1558433896749261,-1,-1,1,1,4,2,5,3
1558433896757238,0,1,1,4,14,8,5,4
1558433896757238,1,-1,-1,-1,-2,-2,5,1
1558433896773196,6,11,4,1,3,4,0,0
1558433896773196,-6,-13,-3,0,0,-3,-5,-6
1558433896773196,-8,-11,-5,-4,-5,-4,-2,-1
1558433896773196,1,1,1,-3,-12,-13,-4,-2
1558433896787157,1,0,0,-1,0,5,5,1
1558433896787157,5,7,-1,-1,4,5,2,0
1558433896794140,-1,0,-6,-3,0,-1,1,0
1558433896794140,-3,-7,1,5,4,-1,-6,-3
1558433896809100,0,4,2,1,-2,-4,-3,-2
1558433896809100,-1,-2,-1,-3,-6,-1,-1,1
1558433896817082,-4,-9,-4,-2,-1,-1,-3,-5
1558433896817082,-1,2,-1,0,-3,1,1,0
1558433896833035,-4,-4,-3,-5,-5,-8,-6,-3
1558433896833035,-2,0,-2,-1,-3,0,-1,-3
1558433896833035,4,3,-1,0,0,-1,-1,0
1558433896833035,4,2,1,-2,-4,-8,-2,-2
1558433896847002,-9,-10,-5,1,4,3,0,0
1558433896847002,-9,-7,-3,-2,3,4,1,-2
1558433896854983,4,7,0,-2,-2,1,0,-2
1558433896854983,-6,-9,5,4,9,3,4,2
1558433896868978,1,5,-2,-2,2,-1,0,0
1558433896868978,0,-1,-4,-6,-11,-8,-2,-2
1558433896877916,-5,-11,-1,-2,-2,-6,-4,-2
1558433896877916,-5,0,-2,-3,-6,2,1,0
1558433896892877,1,0,2,1,1,-3,1,1
1558433896892877,2,4,-2,3,11,6,-2,-1
1558433896892877,0,4,-2,-2,-9,-2,0,0
1558433896892877,-2,-6,-4,-2,3,0,-3,-5
1558433896906838,-3,-3,1,-1,-2,-5,-1,-3
1558433896906838,3,2,-5,-1,-4,-6,1,2
1558433896914817,2,-1,5,3,10,8,3,4
1558433896914817,-1,-2,-2,-2,-4,-3,-3,-1
1558433896929777,-5,0,1,-2,-3,-3,-3,0
1558433896929777,2,1,0,-3,-10,-7,-4,-5
1558433896937906,1,4,0,2,-2,-2,0,-1
1558433896937906,-3,-1,2,1,9,11,6,2
1558433896952993,4,-1,-5,-2,-1,1,-5,-4
1558433896952993,-7,-4,0,-5,-9,-9,-1,-2
1558433896953721,1,6,5,2,-2,1,2,0
1558433896953721,1,-5,-6,-1,3,-2,-2,-4
1558433896966680,-5,-2,-2,0,0,2,3,1
1558433896966680,9,12,6,4,15,13,2,4
1558433896974656,-11,-15,-9,-9,-14,-16,-11,-5
1558433896974656,-5,-9,-3,-1,-6,-4,-1,0
1558433896989619,4,2,4,3,10,2,1,2
1558433896989619,-3,-4,-4,-4,-6,-4,-1,-1
1558433896997595,-2,2,-2,-2,-3,-6,-5,-4
1558433896997595,3,3,0,0,-1,7,2,1
1558433897012557,-3,-1,-2,1,6,5,7,3
1558433897012557,0,0,1,2,6,7,-2,-4
1558433897013555,-6,-6,1,2,-5,-5,1,0
1558433897013555,-1,-4,-7,-3,0,0,2,0
1558433897026518,-3,-5,-3,-3,-2,-4,-2,-2
1558433897026518,-1,2,0,-3,-2,0,-1,0
1558433897034510,6,4,-3,-4,-4,-5,-4,-3
1558433897034510,-2,4,-2,-3,-9,-5,-5,-4
1558433897058435,0,-1,4,3,9,6,4,0
1558433897058435,-8,-9,-2,-1,-5,-7,-2,-3
1558433897059431,5,3,-1,1,-1,-1,0,2
1558433897059431,-5,-8,-2,-3,6,3,-3,-5
1558433897072397,2,6,0,-3,-7,-4,-5,-1
1558433897072397,-2,-6,-3,4,-1,-6,-4,-2
1558433897080374,3,7,-1,0,9,14,10,4
1558433897080374,6,10,2,2,-1,-3,-1,1
1558433897087356,-14,-20,-5,-5,-7,-3,-2,-5
1558433897087356,-1,-1,-2,-6,-14,-12,-10,-3
1558433897094337,2,4,1,2,-3,-2,-1,1
1558433897094337,-10,-6,4,1,8,3,2,2
1558433897109297,1,0,-11,-9,-14,-15,-11,-8
1558433897109297,1,-1,2,1,10,13,11,3
1558433897117276,-2,-4,-1,5,10,5,0,-1
1558433897117276,5,7,-2,-4,-4,-1,0,0
1558433897132237,4,1,-1,-1,-4,-3,-4,-3
1558433897132237,-8,-3,-5,-3,-10,-12,-6,-6
1558433897140215,3,0,1,2,8,16,9,3
1558433897140215,0,-1,-1,-2,-5,-3,-2,1
1558433897147196,4,6,0,1,4,5,1,3
1558433897147196,2,-7,3,5,16,8,3,1
1558433897155174,-6,-3,-4,-5,-10,-14,-10,-6
1558433897155174,-1,-2,-2,-3,-14,-9,-1,-3
1558433897169136,0,2,1,2,11,6,7,7
1558433897169136,4,10,2,1,0,0,-2,1
1558433897177117,-5,-9,-4,-4,-7,-6,-7,-8
1558433897177117,0,-6,-4,-7,-10,-13,-10,-2
1558433897192076,-4,2,2,-1,-2,-1,-3,-2
1558433897192076,-5,-5,1,-3,0,5,8,1
1558433897200055,2,0,7,6,9,10,5,2
1558433897200055,1,1,-10,-3,2,4,-5,-2
1558433897207039,2,-2,-1,0,-8,-3,-1,0
1558433897207039,-8,-7,-2,0,-2,-5,-3,0
1558433897214018,1,0,-2,-4,-3,-1,-1,-1
1558433897214018,-2,-3,-5,-5,-4,-5,-4,-5
1558433897230971,-3,-4,0,-1,-1,3,-1,-1
1558433897230971,2,0,-4,0,5,4,6,3
1558433897236956,2,3,4,-1,3,-3,-6,1
1558433897236956,-2,4,5,4,3,3,1,-2
1558433897251920,-2,-5,-6,-3,3,0,-1,-1
1558433897251920,-4,-6,-5,-6,-19,-10,-6,-4
1558433897259894,-2,0,-2,0,3,-2,-1,-1
1558433897259894,0,-2,4,4,10,13,5,1
1558433897274865,5,7,-4,-5,-16,-16,-1,-2
1558433897274865,-6,-8,-3,1,0,-5,-6,1
1558433897275851,-5,-9,0,-1,2,3,4,0
1558433897275851,-3,-4,-7,-2,-3,-1,-2,-2
1558433897289815,1,0,4,-1,1,4,3,-1
1558433897289815,-2,0,5,3,9,4,1,0
1558433897296795,4,4,-10,-5,-7,-11,-3,-2
1558433897296795,-4,-3,3,1,2,1,2,2
1558433897311757,-3,-4,0,0,-3,1,1,-1
1558433897311757,2,2,-1,-4,-9,-14,-7,-4
1558433897319734,-1,0,2,0,-2,1,-3,-2
1558433897319734,6,6,3,-2,-4,-7,-4,-2
1558433897335698,-4,-7,-4,-2,-2,2,-1,-3
1558433897335698,3,8,-1,-2,-5,0,-4,-3
1558433897335698,-3,-10,1,5,12,12,9,3
1558433897335698,2,3,3,-1,-5,-11,-5,1
1558433897349655,-4,-1,1,1,-3,1,1,1
1558433897349655,4,8,2,5,19,15,8,2
1558433897356643,-11,-11,-9,-11,-22,-15,-15,-10
1558433897356643,-1,-1,-1,0,-1,-1,2,0
1558433897371596,0,-5,3,2,7,-1,3,2
1558433897371596,4,0,2,-2,-3,2,-2,0
1558433897380572,-1,3,-3,-2,-1,5,3,0
1558433897380572,-3,-4,-3,-5,-6,-3,-5,-5
1558433897395532,-12,-10,-4,-3,-11,-16,-7,-4
1558433897395532,2,1,-2,2,-1,2,5,2
1558433897395532,-2,-2,7,4,9,0,-1,-1
1558433897395532,-3,-3,-5,-4,-6,-1,-6,-3
1558433897409501,6,6,2,5,11,6,2,3
1558433897409501,-3,-7,-8,-7,-7,-6,2,-1
1558433897416476,-2,-4,-2,-1,-5,-4,-3,-2
1558433897416476,6,6,3,6,11,5,7,6
1558433897431436,0,3,2,1,5,5,-5,-3
1558433897431436,1,0,-1,-2,-7,-9,-7,-3
1558433897440411,-6,-4,-2,-6,-6,-2,0,-3
1558433897440411,-1,-10,-17,-10,-12,-3,-3,-4
1558433897455372,1,5,7,3,2,2,3,3
1558433897455372,-1,-3,1,2,5,-6,2,3
1558433897456368,4,2,-7,-4,-5,-4,0,-1
1558433897456368,-1,0,4,-3,0,-3,-1,-1
1558433897469335,-1,4,-4,-6,-4,-7,-5,-4
1558433897469335,-2,-8,3,0,3,8,2,-1
1558433897477314,0,-1,1,5,3,-2,-4,0
1558433897477314,-1,4,0,2,4,4,5,1
1558433897492272,6,6,-3,0,-1,4,3,0
1558433897492272,-8,-12,-3,-4,-1,0,-2,-3
1558433897500251,1,-2,1,0,-5,-8,-7,-2
1558433897500251,0,-4,-3,-3,-9,-6,-6,-4
1558433897515215,-4,-3,-2,-3,4,0,-1,-2
1558433897515215,4,6,-2,-3,-4,3,1,2
1558433897516210,5,7,0,-2,-2,-1,2,0
1558433897516210,-4,-5,1,4,8,8,4,0
1558433897537153,0,-1,-4,-6,-7,-2,-4,-5
1558433897537153,-1,5,3,3,4,1,3,4
1558433897538150,2,5,1,0,9,0,1,2
1558433897538150,-2,2,1,0,-6,-3,3,1
1558433897561091,-3,-5,0,2,2,5,-4,-5
1558433897561091,-1,-3,-4,-2,-8,-4,-4,-2
1558433897561091,3,3,1,-3,-2,2,7,3
1558433897561091,1,3,-2,-2,-1,-2,-6,-3
1558433897575051,-5,-9,0,5,4,-1,5,5
1558433897575051,1,5,-1,-3,-6,-5,-8,-6
1558433897576048,-11,-19,-3,3,2,4,1,-2
1558433897576048,3,3,0,-3,-2,-1,1,0
1558433897589013,0,-1,-4,-7,-15,-6,-1,-2
1558433897589013,4,10,2,0,-3,-7,-2,0
1558433897596992,-11,-11,-4,4,14,15,12,2
1558433897596992,-2,-3,-1,1,3,4,-4,-2
1558433897611954,-5,-10,-5,0,4,2,-1,-2
1558433897611954,-4,-3,-2,-1,-3,-2,-1,0
1558433897619936,5,9,0,-2,-4,-5,-7,-6
1558433897619936,-3,2,1,3,7,5,6,4
1558433897634901,4,0,-3,-3,-7,-10,-6,1
1558433897634901,2,1,2,0,4,4,1,-1
1558433897635890,-5,-2,-7,-6,-16,-12,-11,-6
1558433897635890,4,4,6,4,6,-4,5,4
1558433897649852,-12,-4,-4,-10,-6,-1,-3,-4
1558433897649852,-2,-6,-1,5,0,-2,2,-1
1558433897656834,3,0,0,-3,-1,-1,4,5
1558433897656834,0,2,0,-1,3,8,-2,-4
1558433897671792,3,-6,0,3,5,2,-3,-1
1558433897671792,0,1,-6,-3,0,1,-1,-4
1558433897679770,-13,-19,-4,-3,-14,-15,-8,-5
1558433897679770,0,1,-2,-2,-5,-6,-1,0
