timestamp,emg1,emg2,emg3,emg4,emg5,emg6,emg7,emg8
1558433806214597,1,8,3,1,0,-1,-1,-2
1558433806214597,-3,-6,7,-2,0,0,-1,-1
1558433806215602,-3,-2,-7,-3,-2,0,-1,-7
1558433806215602,7,3,1,-3,-6,-7,-3,1
1558433806215602,-10,-13,-8,-3,0,1,1,-1
1558433806215602,-2,5,3,-1,-3,-1,-1,0
1558433806216592,0,4,3,-1,2,-1,-1,3
1558433806216592,4,-3,5,4,2,1,1,-2
1558433806228575,1,3,2,1,-2,-2,0,-3
1558433806228575,1,-1,-15,-4,1,-1,0,2
1558433806236538,1,4,2,2,3,3,-1,-3
1558433806236538,-4,-3,-2,-4,-2,1,-1,-4
1558433806243518,-1,-8,-3,1,0,2,1,0
1558433806243518,-3,2,5,5,-3,-5,-3,-6
1558433806257481,2,1,3,2,-1,-5,-1,1
1558433806257481,-3,-1,-6,-7,-2,-1,0,-1
1558433806268453,1,6,-1,-2,0,2,-1,3
1558433806268453,-1,-3,-4,-4,-5,-2,-2,-1
1558433806272442,-3,-8,-8,-5,-9,-5,-2,-4
1558433806272442,0,0,8,3,0,2,1,-1
1558433806289397,-5,-3,-1,0,5,3,-1,-3
1558433806289397,8,8,3,2,3,-1,1,0
1558433806302364,-5,-4,10,6,2,2,-3,-2
1558433806302364,-16,-11,-25,-11,-7,-5,-3,-7
1558433806335275,-3,-1,-3,-3,-1,-5,-2,3
1558433806335275,0,2,2,0,11,5,1,0
1558433806336273,2,-9,-2,-1,-6,-4,-1,0
1558433806336273,-2,5,3,-1,-3,-3,0,-1
1558433806337269,0,-7,-2,-2,-6,-3,-2,-2
1558433806337269,-1,-3,-10,-5,-4,-4,-3,0
1558433806340262,2,7,-1,-1,5,1,-1,2
1558433806340262,-2,1,0,-6,-4,-3,-3,-5
1558433806349237,-5,-8,0,5,3,0,0,-2
1558433806349237,-4,-7,1,-1,-4,-1,-1,-2
1558433806355221,-1,0,4,2,4,5,0,-1
1558433806355221,6,8,-4,-2,-7,-7,-4,1
1558433806364197,1,3,-15,-8,-5,-4,-3,-1
1558433806364197,-8,-12,4,3,5,0,0,-2
1558433806377162,1,1,-5,-6,-2,3,3,-1
1558433806377162,3,0,10,4,1,3,3,1
1558433806386138,-1,7,4,2,7,3,1,-1
1558433806386138,4,0,-1,-2,-9,-5,-5,0
1558433806392122,-15,-13,1,2,0,-6,-2,0
1558433806392122,3,2,-6,-2,-2,1,0,-3
1558433806409077,2,2,5,-3,0,5,2,1
1558433806409077,-2,-5,-3,-1,3,3,2,-3
1558433806415061,-1,2,3,4,2,2,-2,2
1558433806415061,-3,-1,1,0,-2,-5,-7,-3
1558433806424037,-2,-4,-4,-3,-7,-3,-1,-2
1558433806424037,-1,2,-3,0,2,-2,1,1
1558433806437002,5,4,2,0,4,2,-1,0
1558433806437002,-3,-3,-6,-3,0,1,-1,3
1558433806445978,-2,-1,2,-2,-6,-4,-4,-6
1558433806445978,4,3,3,1,-6,-2,-2,-1
1558433806451964,1,0,-2,-4,-3,-4,-4,-5
1558433806451964,-14,-12,-6,0,0,2,1,-1
1558433806468918,5,9,9,9,17,12,7,4
1558433806468918,6,5,-2,0,0,-2,-2,0
1558433806474902,-3,-1,-4,-2,-5,-5,-2,-3
1558433806474902,1,-1,1,-2,-2,-3,-1,1
1558433806483878,-3,-4,-3,-5,-8,-6,-5,-2
1558433806483878,6,18,17,8,1,0,1,2
1558433806497841,-4,-11,-7,-7,-6,-3,-1,-2
1558433806497841,-4,-10,-21,-9,-8,-7,-5,-5
1558433806505818,0,-5,5,6,5,2,2,1
1558433806505818,5,1,3,-1,3,3,1,1
1558433806512802,1,4,-5,-3,-2,-4,-2,-1
1558433806512802,5,6,12,4,4,4,3,-1
1558433806528757,-8,-6,-7,-5,-4,-5,-2,-3
1558433806528757,2,-2,-1,-5,-5,-4,-3,-1
1558433806534741,-22,-22,-10,-6,-4,-1,0,-2
1558433806534741,-1,0,2,-1,1,1,-2,0
1558433806543717,6,6,3,5,7,2,-2,-2
1558433806543717,-7,-6,-3,-1,-10,-6,-4,-1
1558433806557679,8,11,11,3,2,1,3,2
1558433806557679,-5,-16,-23,-11,-6,-9,-3,-3
1558433806566655,4,6,13,5,3,4,1,0
1558433806566655,-7,-5,-5,-3,6,5,3,-3
1558433806572639,4,4,-7,-4,-3,-2,-1,0
1558433806572639,2,6,18,10,3,2,4,7
1558433806588597,-1,-6,-12,-9,-4,-4,-7,-5
1558433806588597,-1,-5,-9,-6,-9,-3,-4,-6
1558433806594581,5,4,9,3,-3,-1,-5,-2
1558433806594581,2,2,-1,0,1,0,-2,-2
1558433806603557,-2,1,-2,-2,0,0,1,2
1558433806603557,-1,8,4,2,4,2,0,3
1558433806617518,2,-2,-6,-2,-4,-3,-2,-2
1558433806617518,-14,-10,0,1,-3,-3,0,0
1558433806626496,-2,-11,-14,-10,-8,-5,-3,-1
1558433806626496,-3,-3,-9,-2,2,0,1,1
1558433806639461,2,2,7,5,6,2,1,2
1558433806639461,8,6,-1,3,-2,3,-1,1
1558433806648438,-4,-5,0,-1,-2,-3,-1,-2
1558433806648438,-3,-1,-16,-11,-8,-5,-4,-6
1558433806654421,0,-12,-4,-2,3,2,-1,-3
1558433806654421,0,0,0,1,7,1,1,-1
1558433806671375,3,8,4,1,-4,-3,-1,-1
1558433806671375,3,1,6,1,-2,-3,-1,1
1558433806677360,-2,0,-10,-2,-4,0,-3,-3
1558433806677360,1,-3,10,3,7,3,1,2
1558433806686335,0,-4,-7,-3,-5,-3,-3,0
1558433806686335,8,7,6,3,-1,1,2,-1
1558433806700299,-9,-7,-6,-2,2,0,0,-1
1558433806700299,6,5,5,1,6,5,2,3
1558433806709275,-14,-9,-13,-5,-4,-3,-3,-2
1558433806709275,5,4,11,4,-1,0,-2,-1
1558433806723238,-2,-4,-1,-1,-6,-2,0,-3
1558433806723238,-6,-7,-9,-6,-3,-3,-5,-8
1558433806725232,5,9,10,3,-2,-3,1,4
1558433806725232,-5,-7,-9,-4,-1,3,-2,-1
1558433806737201,1,5,5,2,2,0,1,1
1558433806737201,0,2,-4,-2,-4,-6,-1,-2
1558433806746176,-3,-4,-3,-2,-2,3,0,-3
1558433806746176,-7,-3,-1,-1,-2,-4,-5,-3
1558433806760140,4,5,5,2,0,2,3,4
1558433806760140,5,3,-2,-1,4,4,-2,0
1558433806769113,-6,-3,4,5,6,2,1,1
1558433806769113,-3,-7,-11,1,2,-1,2,0
1558433806775099,1,0,2,-2,-4,-2,-4,-5
1558433806775099,-10,-8,-10,-9,-16,-7,-5,-7
1558433806784076,4,0,-1,-3,-5,-3,-2,-4
1558433806784076,-1,0,8,3,9,5,2,2
1558433806797040,0,11,9,8,13,7,4,0
1558433806797040,7,-2,-8,-6,-4,-2,1,1
1558433806806016,-11,-5,-2,-5,-8,-4,-4,-7
1558433806806016,-3,-10,-4,-3,-3,-3,-6,-2
1558433806819977,-1,-4,-10,-3,-2,-6,-4,-2
1558433806819977,4,8,10,7,3,6,1,-1
1558433806828959,7,3,2,1,-2,0,3,5
1558433806828959,0,1,-2,-3,-4,-2,-1,-1
1558433806834938,-6,-8,-16,-8,-4,-4,-4,1
1558433806834938,-3,0,0,2,4,0,0,-5
1558433806843914,-7,-4,2,4,3,3,2,0
1558433806843914,-1,2,5,0,-1,-1,-3,-3
1558433806856879,0,-2,-3,-6,-13,-8,-7,-4
1558433806856879,-7,-12,-7,-3,-4,-5,0,-1
1558433806865854,4,4,2,-1,2,1,-4,-1
1558433806865854,2,6,10,5,7,6,3,0
1558433806879819,0,2,-11,-5,-6,-2,-5,-5
1558433806879819,-9,-10,3,1,-1,-2,-1,-1
1558433806888797,8,3,6,3,6,0,0,2
1558433806888797,-5,-3,-19,-12,-12,-8,-4,-2
1558433806894779,-1,-5,9,5,9,6,4,1
1558433806894779,3,13,0,2,4,7,1,6
1558433806909740,-5,-18,-1,-3,-8,-5,-4,-3
1558433806909740,-3,-6,-17,-10,-10,-7,-3,-1
1558433806925695,4,7,6,1,1,0,0,0
1558433806925695,5,7,6,0,4,0,1,3
1558433806927690,-1,-1,-4,-1,1,-2,-3,-4
1558433806927690,-11,-10,5,2,5,1,1,-2
1558433806939660,-4,-3,-4,-6,-6,-1,2,-1
1558433806939660,1,0,1,1,1,1,-4,-3
1558433806948633,4,8,-1,-5,-7,-3,-4,0
1558433806948633,-1,-5,-2,0,0,-3,1,3
1558433806954620,1,1,-3,1,0,-3,-3,-5
1558433806954620,1,4,4,-1,0,-2,-3,-4
1558433806969578,0,-6,-7,-3,0,1,0,-4
1558433806969578,-7,-6,1,-1,3,3,0,0
1558433806977556,2,-3,2,2,3,-1,1,1
1558433806977556,-5,-2,0,-4,-9,-9,-6,-4
1558433806986533,3,3,-6,0,7,3,0,0
1558433806986533,1,-1,0,-1,0,1,1,3
1558433806999499,-2,-1,1,-4,-5,-6,-2,2
1558433806999499,0,-7,3,2,0,-3,-2,-1
1558433807008485,4,8,9,3,4,5,5,5
1558433807008485,-10,-12,-11,-9,-7,-4,-4,-5
1558433807014460,-3,3,-5,-2,-2,1,-3,-8
1558433807014460,0,-7,2,2,-2,-3,-1,-2
1558433807031413,-5,0,-7,-1,-3,-2,-3,-1
1558433807031413,9,7,5,5,5,3,1,1
1558433807037396,-2,-4,-1,-5,-7,-5,-2,-1
1558433807037396,-6,-10,-6,-2,4,5,0,0
1558433807046373,3,6,7,5,5,5,4,2
1558433807046373,8,2,-18,-7,-3,-3,-3,-4
1558433807060334,-8,-1,5,3,-5,-8,-5,-3
1558433807060334,-1,3,-5,-4,-3,-2,1,-3
1558433807069311,-3,-2,1,-1,1,4,1,0
1558433807069311,7,8,9,4,1,0,0,-1
1558433807075296,3,-4,3,3,1,4,3,5
1558433807075296,4,6,1,0,0,0,-2,1
1558433807090254,-6,-5,-8,-5,-8,-12,-5,-6
1558433807090254,-1,0,-1,-3,-7,-4,-3,-1
1558433807097236,-3,5,4,4,11,11,5,2
1558433807097236,-3,-5,-8,-4,-7,-6,-6,0
1558433807106213,1,-9,4,0,-3,1,0,-1
1558433807106213,-2,5,5,4,5,3,1,-4
1558433807120186,6,5,-1,0,4,3,3,1
1558433807120186,-4,-3,-9,-5,-2,1,0,-3
1558433807129154,-3,-2,-2,-5,-2,-8,-4,2
1558433807129154,-1,-1,0,0,-11,-9,-4,0
1558433807135142,4,4,4,-1,1,-1,0,1
1558433807135142,4,4,5,4,10,6,4,0
1558433807150097,-12,-9,-20,-10,-9,-6,-6,-7
1558433807150097,-1,-7,1,1,3,7,5,2
1558433807157086,0,0,-2,-3,-3,-2,-3,-3
1558433807157086,-2,1,3,2,-7,-7,-5,-1
1558433807166061,1,-2,4,1,6,5,2,2
1558433807166061,-2,-1,2,1,5,2,-3,0
1558433807180015,6,-2,3,3,-3,-1,0,2
1558433807180015,-15,-10,1,-1,4,2,2,-2
1558433807188991,-5,-1,-21,-11,-7,-4,-3,-5
1558433807188991,-5,1,-1,-3,-3,-5,-4,-3
1558433807194976,-1,-5,1,-4,-7,-3,-1,-3
1558433807194976,3,3,-4,-4,-12,-8,-4,-3
1558433807209936,5,3,8,5,8,3,6,1
1558433807209936,-2,-4,0,3,6,5,-1,-2
1558433807217915,-4,-1,-3,0,0,-8,-5,-2
1558433807217915,7,10,4,0,0,2,4,6
1558433807225901,4,5,9,2,-3,4,-3,-1
1558433807225901,-12,-21,-26,-7,7,2,-4,-4
1558433807239855,-3,-2,0,0,-7,-4,-3,0
1558433807239855,-1,-2,-7,-2,-3,-2,-3,-2
1558433807248831,1,6,6,0,-8,-10,-6,-3
1558433807248831,1,2,6,-4,-12,-6,-1,-3
1558433807254822,-2,-3,-9,-5,5,2,2,0
1558433807254822,-2,0,-5,-2,7,7,5,-1
1558433807269778,-9,-8,-3,-3,-2,-5,-6,-5
1558433807269778,3,6,5,2,-7,-7,-3,-4
1558433807277757,-3,2,2,1,2,2,1,3
1558433807277757,-1,-12,-17,-6,0,-1,-2,0
1558433807286732,1,-3,3,4,1,0,-1,-1
1558433807286732,1,6,6,2,5,3,4,3
1558433807299704,1,0,2,0,-6,-5,-4,-2
1558433807299704,-6,-6,-2,-3,-1,-4,-6,-4
1558433807308674,2,1,-4,-2,-5,-3,-2,0
1558433807308674,0,4,-2,-3,-2,4,2,3
1558433807322646,5,-1,3,5,7,0,1,3
1558433807322646,-3,-3,2,2,-1,-1,-2,0
1558433807329619,1,1,0,-2,-4,-3,0,-2
1558433807329619,0,-3,7,1,5,0,4,2
1558433807346575,-9,-6,-11,-8,-4,0,-2,-5
1558433807346575,5,3,2,2,-1,1,0,-4
1558433807347567,1,3,-3,2,7,3,0,1
1558433807347567,-4,-8,4,0,-5,-7,-4,0
1558433807359545,1,0,1,-2,1,1,-2,-3
1558433807359545,-2,-2,-4,0,-2,-7,-1,-3
1558433807368513,2,2,9,3,5,6,4,4
1558433807368513,6,9,-4,-3,0,0,1,-2
1558433807383565,-6,-10,-8,-5,-4,-4,-2,-2
1558433807383565,2,6,4,-2,-4,-2,-2,-1
1558433807390455,-1,-2,-3,-2,-4,1,0,-2
1558433807390455,-5,-9,-7,0,-3,-4,-3,-4
1558433807406420,-2,0,2,0,-5,-1,-3,-3
1558433807406420,-1,2,-5,0,10,7,3,1
1558433807407409,1,1,2,1,-1,-3,-1,4
1558433807407409,8,10,-5,-5,-6,-4,-3,3
1558433807420373,-14,-7,-1,-3,-3,-3,-3,-4
1558433807420373,-7,-15,-5,-2,-8,-5,-3,-5
1558433807429350,0,-2,-3,-1,5,3,-1,-2
1558433807429350,4,3,5,4,6,6,4,1
1558433807443310,0,7,1,2,4,0,1,1
1558433807443310,0,-2,1,-3,-3,-2,-1,2
1558433807450292,-1,-3,-3,-3,-5,-1,-1,-4
1558433807450292,-4,-3,1,3,2,-2,-1,-3
1558433807466309,3,4,-2,-5,-7,-3,-2,-2
1558433807466309,-3,-1,3,-2,-4,-1,1,-2
1558433807467277,-3,-5,-14,-4,-2,-5,-1,-2
1558433807467277,1,6,4,-3,-4,1,-2,0
1558433807489206,6,-4,-6,1,7,2,1,2
1558433807489206,-4,-5,-7,-4,-9,-10,-3,-3
1558433807490186,3,9,10,5,3,5,2,2
1558433807490186,-4,-2,5,7,7,4,1,0
1558433807503217,-2,-5,-7,-3,-2,-3,1,2
1558433807503217,7,5,2,0,-4,-1,-2,-1
1558433807510204,-5,-6,-6,-1,6,3,0,0
1558433807510204,4,3,-2,-4,0,-2,-3,-5
1558433807526241,-9,-4,2,1,-4,-1,-2,0
1558433807526241,4,3,0,-2,-5,-3,-1,-1
1558433807528087,-16,-14,2,-1,-2,-1,-1,-2
1558433807528087,2,-1,-1,0,-1,-2,-2,-1
1558433807540201,6,7,10,3,4,-1,1,0
1558433807540201,0,1,-11,-6,1,-1,0,1
1558433807549028,-7,-8,-4,-5,-6,-6,-3,-4
1558433807549028,-1,-1,-1,-4,-7,-3,-1,0
1558433807562991,0,-1,2,1,1,3,0,-1
1558433807562991,-1,3,4,2,3,4,1,-2
1558433807569996,6,4,0,-3,-1,-3,-1,0
1558433807569996,-11,-7,-5,-3,0,-1,-3,-4
1558433807585964,-1,-3,-5,-1,-10,-7,-5,-3
1558433807585964,3,6,8,4,9,7,5,3
1558433807587925,5,11,6,5,4,3,3,2
1558433807587925,-5,-10,-11,-4,-8,-6,-1,-2
1558433807599897,-5,-15,-4,-2,1,0,-2,-2
1558433807599897,1,-3,6,3,-1,-4,-1,0
1558433807608868,-10,-5,-6,-1,-1,-2,-3,-5
1558433807608868,1,5,-8,-3,1,0,-2,1
1558433807622830,7,8,2,-1,-2,-2,-1,-2
1558433807622830,-7,-7,-4,-3,0,-5,-2,0
1558433807629812,3,-1,2,-2,-5,-1,-4,0
1558433807629812,1,3,7,1,-1,-2,-2,0
1558433807653747,2,5,2,0,6,5,1,-1
1558433807653747,-1,-3,-11,-5,-2,-3,-3,-1
1558433807654780,0,1,3,3,-2,-4,-2,1
1558433807654780,-1,-4,-1,-4,-8,-6,-2,1
1558433807668706,-2,-1,-4,-3,-3,2,1,-2
1558433807668706,2,4,3,8,14,7,2,0
1558433807669706,-4,-11,-12,-8,-10,-7,1,-1
1558433807669706,-2,-6,-5,-3,-5,-5,-5,-4
1558433807690648,1,2,7,4,4,2,1,1
1558433807690648,-2,-1,4,2,3,3,1,1
1558433807692651,3,4,-5,-1,4,1,0,-2
1558433807692651,-2,-4,3,0,-4,-3,0,0
1558433807706956,-1,1,-5,-3,-8,-5,-4,-4
1558433807706956,-1,0,6,3,-2,2,0,1
1558433807708600,1,-5,-3,0,3,-1,2,2
1558433807708600,-2,-3,-8,-5,4,5,1,0
1558433807720648,4,3,0,-3,3,0,2,2
1558433807720648,-7,-13,-2,-3,-6,-4,0,-9
1558433807728547,4,7,6,1,-4,-2,-4,-1
1558433807728547,-13,-8,-2,1,-3,-1,-2,0
1558433807743719,-1,-2,-1,0,4,3,0,-3
1558433807743719,3,6,-6,-3,-9,-6,-5,2
1558433807749803,1,1,4,1,5,5,2,-1
1558433807749803,0,-3,-1,-3,-4,-4,0,-2
1558433807766708,-6,-8,-9,-5,-7,-3,-1,0
1558433807766708,-3,-1,-1,-3,1,1,1,-2
1558433807767444,2,2,8,4,-2,-4,-4,-4
1558433807767444,3,2,0,1,-2,-1,1,2
1558433807780410,-7,-6,-14,-5,-3,-6,-4,-2
1558433807780410,0,-2,2,0,1,3,0,1
1558433807788603,-1,1,3,3,2,2,1,1
1558433807788603,2,5,5,2,7,3,2,-2
1558433807803522,0,2,-10,-5,-5,-5,-1,-3
1558433807803522,-8,-14,-4,-6,-9,-6,-6,-4
1558433807810329,0,-3,-1,-5,-9,-6,-5,-4
1558433807810329,3,0,5,4,5,2,2,2
1558433807826290,5,5,6,4,9,6,4,3
1558433807826290,-5,-1,-2,1,4,4,1,2
1558433807828283,-5,-8,-2,-3,-2,-2,-2,-3
1558433807828283,-4,-6,-7,-6,-7,-9,-6,-5
1558433807840303,1,-1,0,-2,-3,-2,-2,-2
1558433807840303,5,6,6,3,0,1,-2,-1
1558433807856206,-2,-1,-3,-3,-2,-4,-3,-4
1558433807856206,0,3,-1,-2,1,-2,-4,-1
1558433807863192,-2,1,6,3,-1,0,1,1
1558433807863192,-1,0,-8,1,7,8,3,0
1558433807870172,-2,-4,-4,0,4,3,0,1
1558433807870172,-1,1,-8,-1,-3,-2,1,-1
1558433807894107,0,-1,3,-2,-6,-7,-3,-2
1558433807894107,4,2,6,2,-1,-2,0,2
1558433807895113,-2,-5,-2,-2,3,3,3,1
1558433807895113,4,-1,-5,-2,3,4,1,-1
1558433807909067,-11,-12,3,0,-2,-2,-3,-1
1558433807909067,3,5,-5,-4,-4,-3,-2,0
1558433807910204,-1,4,-1,-3,-4,-2,-2,-2
1558433807910204,2,-1,6,0,-1,2,-1,-2
1558433807923266,-1,0,-2,-2,-2,1,1,-2
1558433807923266,-5,0,3,2,-1,-5,-1,0
1558433807930331,3,1,-2,0,4,3,1,3
1558433807930331,-3,0,-4,-3,-3,-3,-1,-1
1558433807945968,-7,-12,-6,-4,-2,-1,-5,-2
1558433807945968,-3,-3,0,0,-1,-5,-3,-5
1558433807953948,2,6,7,3,1,-3,-1,2
1558433807953948,-1,3,-2,0,3,6,3,1
1558433807969120,-2,-4,-5,-2,5,3,1,1
1558433807969120,5,6,1,-3,-7,-6,-3,-2
1558433807970900,-1,-2,3,1,1,0,-1,-2
1558433807970900,-9,-14,1,2,0,-3,-3,-3
1558433807983080,2,1,-6,1,2,-1,-1,-3
1558433807983080,-3,-5,-7,-7,-8,-8,-2,0
1558433807989851,0,2,-2,-1,-4,0,0,-2
1558433807989851,2,4,0,0,4,2,1,3
1558433808005808,1,3,-2,0,5,3,1,2
1558433808005808,-6,-12,-5,-4,-1,-2,-3,-3
1558433808012789,-5,-1,-7,-3,-9,-8,-4,-1
1558433808012789,2,-4,6,1,-3,-2,3,0
1558433808019769,1,7,3,0,-1,-2,0,-1
1558433808019769,1,-5,0,2,3,2,0,1
1558433808028746,-5,-7,-9,-3,4,3,1,-5
1558433808028746,-3,0,-11,-8,-9,-5,-4,0
1558433808042856,2,-2,2,0,-5,-7,-4,-4
1558433808042856,-9,3,3,-1,-3,-1,0,-1
1558433808049691,-2,-5,4,2,1,0,1,1
1558433808049691,0,2,-2,-2,0,-1,-2,-1
1558433808065677,2,0,-4,-3,-3,1,1,0
1558433808065677,0,-2,-5,-3,4,3,-1,-2
1558433808072846,1,1,4,3,1,0,-1,-2
1558433808072846,2,3,2,1,3,0,0,0
1558433808088803,-5,-6,-4,0,3,-1,0,2
1558433808088803,3,4,-3,-5,-7,-5,-3,-2
1558433808090800,-2,1,-2,-5,-10,-6,-6,-1
1558433808090800,6,3,2,2,1,1,2,0
1558433808103544,-1,6,7,4,1,4,0,3
1558433808103544,-4,-8,-11,-2,4,3,-1,-2
1558433808110569,0,0,-4,1,1,-2,-1,-1
1558433808110569,0,2,6,3,2,-3,0,-1
1558433808125724,-3,-5,-4,-4,-6,-3,-4,-7
1558433808125724,-1,-5,0,0,-6,-2,0,1
1558433808132671,-4,-3,-4,-7,-11,-6,-3,0
1558433808132671,2,1,2,2,4,0,-2,1
1558433808149442,-2,-4,1,0,4,1,-2,0
1558433808149442,-1,-2,0,3,2,5,4,-2
1558433808150430,1,3,-1,-2,0,1,3,0
1558433808150430,-5,-7,-14,-8,-7,-6,-3,-4
1558433808162397,1,0,3,0,-3,-2,2,1
1558433808162397,9,8,5,0,-2,-3,-2,0
1558433808171377,-15,-12,-10,-4,6,2,-1,0
1558433808171377,-3,1,7,1,-2,-2,-1,0
1558433808185640,-2,-5,-1,0,-3,-2,-4,-1
1558433808185640,4,2,-5,-5,-2,-3,-3,0
1558433808192571,5,2,7,4,-1,-1,1,3
1558433808192571,-7,-4,-8,-6,-3,-1,-4,-6
1558433808209468,2,-1,-20,-9,-5,-7,-2,-5
1558433808209468,-3,7,11,5,1,3,3,2
1558433808210265,5,2,0,2,6,2,-1,1
1558433808210265,0,-7,1,3,3,2,-1,0
1558433808222279,-4,-4,7,4,-1,-2,2,-2
1558433808222279,-6,-6,-11,-7,-8,-6,-5,-4
1558433808231205,1,2,-2,-3,-10,-6,-6,-6
1558433808231205,1,0,2,-1,-2,-5,0,0
1558433808245168,2,0,2,-1,5,6,1,-1
1558433808245168,5,10,2,3,9,8,4,2
1558433808252149,-12,-10,-4,-3,-3,-1,-4,-3
1558433808252149,1,-6,2,4,-8,-6,-1,-2
1558433808269112,0,0,9,2,-2,-5,0,4
1558433808269112,-6,-8,-13,-4,-2,-1,1,-2
1558433808270102,5,4,-13,-9,3,3,3,3
1558433808270102,-1,8,5,1,1,0,-3,-6
1558433808282105,-4,-7,-6,-5,-9,-6,-4,-2
1558433808282105,-7,-12,-8,-2,0,0,-2,-3
1558433808291042,5,4,1,-1,-4,-3,-1,1
1558433808291042,-5,-2,2,-2,-7,-1,0,2
1558433808306177,-3,0,1,-1,2,2,-1,-3
1558433808306177,1,0,5,2,1,-1,1,2
1558433808311988,2,0,0,1,1,2,1,1
1558433808311988,2,6,0,0,10,6,2,0
1558433808329943,-1,4,3,2,1,3,1,1
1558433808329943,5,-2,-1,-2,-3,-5,-1,-2
1558433808330941,-4,-7,-7,-2,-9,-6,-4,-3
1558433808330941,5,1,7,5,10,6,1,3
1558433808343063,-1,-1,-10,-9,-7,-4,-4,-5
1558433808343063,5,9,9,2,5,1,1,1
1558433808350931,4,-3,9,4,-3,-7,-1,3
1558433808350931,-8,-12,-16,-3,-9,-8,-5,-7
1558433808366069,-16,-13,-24,-14,-12,-6,-3,-9
1558433808366069,5,7,6,3,8,7,4,0
1558433808373035,-2,-5,-4,-1,1,0,0,-2
1558433808373035,8,12,9,2,0,1,3,4
1558433808388977,-5,-9,7,4,-1,-4,0,5
1558433808388977,-3,-2,-2,-3,-13,-7,-5,-4
1558433808389787,2,2,15,10,10,3,-2,-2
1558433808389787,-7,-15,-17,-8,-7,-6,-3,-5
1558433808402753,5,6,-10,-3,5,7,3,3
1558433808402753,-2,-3,4,-1,-1,-1,0,4
1558433808411738,7,11,3,2,0,1,1,7
1558433808411738,-11,-9,5,3,4,0,-3,-10
1558433808425695,7,12,8,-1,-3,-2,-1,-2
1558433808425695,-4,-7,0,-2,-7,-6,-4,-2
1558433808432719,-3,-2,-7,-7,-1,-2,-6,-10
1558433808432719,7,11,3,3,3,5,6,6
1558433808448630,8,7,-12,-2,4,3,6,8
1558433808448630,-14,-26,-15,-4,-1,-5,-7,-6
1558433808450620,-4,-1,-8,-7,-11,-8,-6,-7
1558433808450620,-4,1,3,-3,-6,-3,-4,-3
1558433808462587,3,-4,11,10,12,8,0,-1
1558433808462587,5,7,1,0,2,3,0,5
1558433808471562,-6,-3,2,-2,-1,0,4,-1
1558433808471562,3,0,-16,-4,6,3,-2,2
1558433808485557,0,5,11,3,-7,-7,-4,-5
1558433808485557,-18,-16,-2,1,-1,-2,-3,-5
1558433808492507,2,1,0,-2,1,1,4,4
1558433808492507,-4,-7,-3,-3,-9,-2,0,-1
1558433808508688,6,3,2,0,-1,-4,-2,-1
1558433808508688,4,2,6,1,-5,-2,-2,-2
1558433808510457,-1,-3,-7,-4,1,-2,-1,-3
1558433808510457,3,7,6,2,7,2,1,5
1558433808522707,-3,0,-8,-5,-5,0,-5,-2
1558433808522707,0,-4,7,0,-5,-2,-3,-4
1558433808531402,-4,-3,-12,-5,-6,-5,-2,-1
1558433808531402,2,6,9,3,5,4,-1,-4
1558433808545364,1,10,-1,-3,0,-2,-1,1
1558433808545364,-1,0,5,0,-3,1,1,1
1558433808552623,0,-20,-6,-3,-10,-8,-2,0
1558433808552623,-11,-7,5,1,-4,-9,-7,-8
1558433808569325,2,-6,2,6,9,7,-1,0
1558433808569325,2,13,-7,-5,6,1,2,1
1558433808570298,10,13,3,6,7,9,5,0
1558433808570298,-15,0,-1,-3,-4,0,-4,-2
1558433808582499,-16,-42,-18,-10,-7,-10,-1,-4
1558433808582499,5,6,-8,-5,-11,-7,-5,-1
1558433808591296,0,10,19,7,15,8,2,2
1558433808591296,3,7,-5,-3,-8,-2,-2,-2
1558433808605216,5,19,8,3,-3,-3,-3,0
1558433808605216,-24,-59,-19,-10,-8,-4,-1,-5
1558433808612187,5,16,4,1,5,3,3,0
1558433808612187,-6,2,-12,-7,-6,-5,-3,0
1558433808629147,7,20,-8,-1,2,6,2,0
1558433808629147,1,-17,9,5,11,4,2,2
1558433808630141,-13,-16,-6,-4,-10,-8,-2,-1
1558433808630141,12,-1,-2,1,-2,0,2,4
1558433808643107,-12,-9,3,4,5,1,-2,-3
1558433808643107,8,34,9,3,-6,-6,-3,-3
1558433808651310,-9,-18,-13,-6,-5,-1,-4,-5
1558433808651310,10,23,10,4,7,6,5,6
1558433808666275,-3,-22,-1,-2,0,-5,-1,1
1558433808666275,-5,6,-5,2,4,4,0,-3
1558433808673032,3,3,0,-5,1,4,1,2
1558433808673032,-5,-32,-13,-8,-10,-7,-1,-4
1558433808688981,0,5,15,4,-2,0,-1,3
1558433808688981,10,14,-2,0,4,-1,0,-3
1558433808689978,-8,-4,-1,1,0,-4,-5,-4
1558433808689978,0,1,10,5,-2,-2,-2,-2
1558433808701943,-5,-11,-24,-11,-3,2,1,-3
1558433808701943,11,23,-3,-5,0,-3,1,3
1558433808710919,-7,-12,3,4,-3,0,-2,-2
1558433808710919,-2,-1,13,4,5,3,3,4
1558433808725878,-1,-4,-11,-2,1,0,2,-5
1558433808725878,-27,-20,-15,-8,-5,-4,-5,-9
1558433808731863,6,2,-2,3,1,0,-1,-1
1558433808731863,-8,-7,-4,-4,-6,-7,-2,-2
1558433808749266,3,-4,6,2,-4,-4,-4,-5
1558433808749266,11,17,13,5,7,7,5,7
1558433808749817,-5,17,4,3,0,-6,-3,-2
1558433808749817,-4,-17,-8,-3,-7,-6,-4,-4
1558433808762780,0,13,-1,-6,-7,-1,-4,-3
1558433808762780,6,-5,10,4,3,6,6,4
1558433808771178,-10,-6,-1,3,5,3,-1,-3
1558433808771178,14,24,4,4,6,4,2,5
1558433808786048,-17,-14,3,-5,-6,-6,-3,-5
1558433808786048,6,-10,-15,-9,-1,-5,-4,-2
1558433808793036,2,-1,9,3,4,5,4,3
1558433808793036,-3,-4,-3,0,6,4,1,1
1558433808808960,7,2,11,4,-2,0,-1,3
1558433808808960,-10,15,5,-2,-10,-9,-6,-2
1558433808816640,-4,-21,-15,-7,-12,-9,-6,-6
1558433808816640,-8,-15,-6,-1,3,7,1,-3
1558433808822846,4,11,7,7,10,4,4,5
1558433808822846,2,-2,-6,-1,3,0,1,-2
1558433808831608,5,15,-2,-5,-4,-2,0,5
1558433808831608,-7,-20,2,1,2,2,-1,-7
1558433808845567,-10,1,-6,-5,-8,-8,-2,-2
1558433808845567,8,-5,-1,-3,-9,-4,-3,0
1558433808852755,-12,0,-7,-5,-7,-5,-4,-4
1558433808852755,-3,-8,-2,4,11,5,4,3
1558433808868638,7,5,4,8,10,5,3,2
1558433808868638,-2,-2,-4,-2,-4,-3,-5,-2
1558433808875667,5,13,13,0,-9,-4,-5,-4
1558433808875667,0,-7,-11,-7,-11,-8,-3,0
1558433808882677,-4,0,-3,-4,-8,-4,0,-4
1558433808882677,4,1,-1,4,14,13,4,-2
1558433808891440,0,-12,-13,-7,3,6,1,2
1558433808891440,2,17,4,1,-5,-1,-1,-5
1558433808905401,-5,-10,10,8,11,-3,-1,2
1558433808905401,4,10,-4,0,-2,-3,0,4
1558433808912411,-10,-36,-3,1,4,5,0,-5
1558433808912411,4,15,0,-1,0,0,-4,-1
1558433808928338,10,20,5,-2,-13,-6,-1,4
1558433808928338,-12,-1,-2,-4,-5,-4,-2,-4
1558433808935861,-6,-4,-9,-4,-1,0,-3,-4
1558433808935861,8,18,4,5,3,0,2,5
1558433808942728,1,-7,14,8,6,2,2,0
1558433808942728,-3,3,4,2,-1,-2,0,-1
1558433808951279,6,7,-12,-6,2,-1,0,3
1558433808951279,-4,-7,-6,-5,-5,-3,-2,-5
1558433808966237,2,0,3,-1,2,1,0,-1
1558433808966237,2,13,4,2,-2,-3,0,-1
1558433808972502,2,8,5,4,0,1,-1,0
1558433808972502,-7,-10,1,-2,-2,-1,-2,-2
1558433808988484,-2,-2,-14,-4,4,0,-2,-3
1558433808988484,-4,-23,-8,-3,-1,4,3,2
1558433808995162,0,7,7,3,1,1,0,3
1558433808995162,-3,-23,-8,-5,-3,-6,-2,-3
1558433809011146,1,20,12,3,-5,-2,-4,0
1558433809011146,-14,-31,-13,-8,-6,-4,-3,-3
1558433809013114,11,10,-21,-12,2,1,3,1
1558433809013114,0,16,7,-2,-6,-5,-3,0
1558433809026120,-3,-21,-13,-8,-5,-1,-4,-4
1558433809026120,6,14,14,7,8,4,2,3
1558433809034056,3,-1,9,6,3,1,0,0
1558433809034056,-1,-5,-9,-4,-4,-3,-2,-1
1558433809048225,-12,-17,-7,-3,-10,-4,-6,-9
1558433809048225,0,1,-1,-2,-4,-5,-1,3
1558433809055203,-1,4,0,-2,-6,-5,-4,-1
1558433809055203,6,19,2,1,4,3,3,4
1558433809071962,-11,-41,-16,-4,9,8,0,-6
1558433809071962,-1,3,1,1,-6,0,1,-2
1558433809072959,-4,-4,-1,-2,-4,-3,-2,-1
1558433809072959,2,5,10,4,-1,-5,-2,0
1558433809085916,1,7,-7,-5,-6,-6,-2,-3
1558433809085916,-8,-8,-18,-8,1,2,-2,-2
1558433809091905,5,7,5,-1,-7,-5,1,1
1558433809091905,-5,-8,3,2,8,3,1,0
1558433809108857,-2,8,1,-2,-4,-4,-3,-1
1558433809108857,5,-2,5,4,-3,-7,-4,-4
1558433809114840,-1,-3,10,5,5,-1,0,-1
1558433809114840,-4,-4,-13,-7,0,3,1,-4
1558433809130797,-5,3,-5,-4,-7,-4,1,3
1558433809130797,6,11,8,4,2,3,-1,-1
1558433809132792,-9,-5,-1,1,2,-2,0,3
1558433809132792,0,-7,1,1,-8,-4,-4,-3
1558433809145758,3,3,2,-4,-2,2,-4,-1
1558433809145758,3,1,-4,0,8,1,2,1
1558433809152738,-6,-6,-12,-6,0,0,1,2
1558433809152738,-1,0,-3,-3,-2,0,1,-8
1558433809167877,-3,-1,3,2,0,0,0,5
1558433809167877,-5,-10,6,2,-1,-3,-2,1
1558433809175677,2,-1,-1,-1,2,-3,-3,-6
1558433809175677,1,6,-3,-2,-5,-2,-1,4
1558433809191955,3,2,5,0,1,2,3,2
1558433809191955,-4,4,-3,0,-1,-1,-1,-3
1558433809192634,-1,-6,5,2,-4,0,-1,-2
1558433809192634,-6,-10,-28,-13,-9,-5,-2,-3
1558433809205939,-3,3,8,2,3,-1,2,-1
1558433809205939,3,0,-2,-4,-1,-4,-2,-1
1558433809212577,5,6,4,3,-4,-4,-3,-2
1558433809212577,-7,-5,9,8,5,2,-1,-3
1558433809227542,2,1,-11,-5,-4,-2,-4,-1
1558433809227542,0,1,-12,-5,-7,-3,0,-1
1558433809235693,3,-1,5,2,4,7,5,4
1558433809235693,-11,-4,0,2,3,2,-2,-1
1558433809251712,-5,-8,-1,0,-3,-4,-4,-6
1558433809251712,0,3,0,-4,-8,-3,-3,-1
1558433809252475,-1,-7,-3,-3,-6,-6,1,0
1558433809252475,2,-5,-2,-1,2,1,0,10
1558433809265629,-1,3,0,2,1,-2,-3,-8
1558433809265629,1,5,0,-1,2,3,-1,-1
1558433809280599,2,1,0,-1,2,1,-2,-1
1558433809280599,-11,-18,5,4,0,1,2,1
1558433809288498,8,9,-12,-5,-2,-4,-3,3
1558433809288498,-12,-12,4,-1,-8,-7,-4,-4
1558433809296357,-2,2,2,2,-6,-4,-3,-1
1558433809296357,6,6,-1,-3,1,0,-3,-2
1558433809311313,-3,-6,-4,-3,-2,0,0,1
1558433809311313,5,3,-1,-1,4,3,1,1
1558433809312310,-2,2,-1,1,1,-1,0,-1
1558433809312310,2,3,-1,-1,-3,-2,-1,-4
1558433809325304,-3,-10,2,1,2,3,1,0
1558433809325304,-4,-6,-3,-2,-1,-3,-2,2
1558433809332284,-2,-3,2,-2,0,1,0,2
1558433809332284,4,2,-2,-2,-3,-3,-3,-3
1558433809348274,-6,-1,-8,-4,-2,-1,-2,-4
1558433809348274,8,4,7,4,6,5,5,3
1558433809355705,-3,0,-6,-5,4,1,0,-3
1558433809355705,2,0,-7,-5,-7,-8,-4,-2
1558433809371663,2,3,4,2,2,4,2,-2
1558433809371663,2,0,7,-1,-2,-2,-4,-1
1558433809372152,-4,-1,-5,-3,0,0,-1,-1
1558433809372152,-6,0,0,-3,-6,-5,-3,-2
1558433809394095,2,5,3,3,-4,-5,-2,0
1558433809394095,-2,1,5,6,8,6,2,1
1558433809395091,-1,-7,-4,1,4,7,1,0
1558433809395091,2,-5,-8,-7,-5,-5,-4,0
1558433809408394,2,5,6,1,-4,-4,-1,4
1558433809408394,-8,-3,-6,-4,0,1,0,-4
1558433809415380,-6,-10,0,2,-2,-2,-5,-5
1558433809415380,4,8,5,1,-2,-1,1,0
1558433809431996,2,-9,-14,-3,-4,-4,0,-1
1558433809431996,-5,1,-3,-2,1,0,2,0
1558433809432994,2,9,11,3,7,6,0,1
1558433809432994,0,-4,-4,0,6,4,1,-1
1558433809445956,-1,16,3,2,2,0,-2,-2
1558433809445956,-5,-21,-10,-4,-9,-7,-6,-4
1558433809453109,-2,-3,-3,-3,-8,-6,0,0
1558433809453109,2,-1,6,2,0,-1,0,2
1558433809467898,-9,1,5,0,4,5,1,3
1558433809467898,7,10,-2,2,8,0,2,-1
1558433809475116,-3,-6,-7,-3,-6,-3,-3,-6
1558433809475116,1,-4,-1,1,0,1,-4,-5
1558433809491901,0,-2,4,0,4,1,-1,1
1558433809491901,-4,-5,-6,-5,-10,-4,-3,-2
1558433809492831,2,-4,-4,-2,-1,-2,0,1
1558433809492831,1,-2,2,1,4,5,5,2
1558433809504796,1,1,-2,-5,-6,-1,-4,-4
1558433809504796,-4,-5,6,3,-1,-1,0,2
1558433809513829,-1,-1,-10,-8,-6,-4,-2,-2
1558433809513829,1,10,0,-6,-9,-8,-2,-3
1558433809527734,-1,-8,4,2,6,0,1,1
1558433809527734,5,2,1,2,9,6,0,-1
1558433809535113,0,0,-11,-4,-1,-5,-2,0
1558433809535113,-7,-4,2,0,-4,-3,-3,-3
1558433809551196,-7,-13,4,3,0,2,3,1
1558433809551196,-7,0,-9,-8,-8,-7,-3,-3
1558433809552668,2,-1,9,7,4,4,2,1
1558433809552668,2,4,-8,-4,1,5,1,5
1558433809565103,2,2,-2,0,-2,-7,-3,-9
1558433809565103,0,2,4,0,-8,-3,-3,0
1558433809573614,1,4,10,0,-2,-3,-2,-3
1558433809573614,-3,-4,-11,-4,-2,-1,1,0
1558433809596956,0,-4,-4,-2,3,4,2,1
1558433809596956,3,-2,4,2,-2,-2,2,-1
1558433809597548,-17,-23,-12,-4,-3,0,-1,-3
1558433809597548,1,-2,4,-1,4,-1,-2,-2
1558433809611510,-2,3,-1,-3,-9,-5,-6,-1
1558433809611510,1,-1,-17,-10,-4,-1,-1,-2
1558433809612508,2,6,2,1,7,4,-4,-1
1558433809612508,5,4,6,1,0,-2,-1,-2
1558433809633728,-3,-8,1,2,4,0,0,1
1558433809633728,2,3,4,1,1,0,1,-2
1558433809635449,-2,7,-11,-9,-10,-8,-4,-1
1558433809635449,1,-11,2,-2,-3,0,1,0
1558433809648666,-8,0,-9,-4,-1,-1,1,-5
1558433809648666,-3,-6,3,-1,-2,-1,1,2
1558433809654660,2,0,4,2,2,-2,-3,-4
1558433809654660,-3,8,8,3,1,0,-3,2
1558433809671382,0,-10,-13,-5,-7,-5,-3,2
1558433809671382,-3,-4,0,1,3,1,-4,-2
1558433809672566,2,2,-5,-3,0,1,2,2
1558433809672566,-13,-8,-4,1,0,2,0,-3
1558433809685580,5,7,7,0,-3,-2,-3,0
1558433809685580,1,-2,3,1,-4,-3,-2,-1
1558433809694293,1,0,-11,-6,-7,-2,-2,-6
1558433809694293,-6,-8,2,0,-3,-2,-2,-3
1558433809708252,6,8,-1,-1,5,4,3,3
1558433809708252,-9,1,6,4,4,-1,-2,-2
1558433809715512,0,2,-3,-3,-6,-6,0,2
1558433809715512,2,-5,-6,-3,4,3,1,0
1558433809731195,-5,-11,-6,-3,-3,-4,-2,-6
1558433809731195,-1,-2,-3,-2,-5,-5,-6,-5
1558433809745153,5,8,6,3,0,5,0,2
1558433809745153,-10,-6,-4,0,7,0,-1,-3
1558433809746151,-9,-9,7,4,3,1,2,3
1558433809746151,2,1,-2,1,6,4,2,1
1558433809754130,-5,-3,-2,-5,-8,-5,-2,2
1558433809754130,6,5,0,1,-6,-5,-3,-7
1558433809768091,6,5,9,-1,-3,2,2,2
1558433809768091,-3,-2,-22,-13,-7,-6,-5,-3
1558433809775073,-4,-15,4,2,2,1,1,0
1558433809775073,9,9,-2,2,9,4,4,1
1558433809790033,-9,-8,-5,0,2,0,-4,-6
1558433809790033,-2,1,0,-2,-4,0,3,0
1558433809797023,2,2,-3,-2,-2,-3,-3,-1
1558433809797023,-1,-5,2,-1,-4,0,-1,1
1558433809805479,5,5,6,0,2,2,-1,0
1558433809805479,0,0,-2,1,-4,-3,-2,-3
1558433809813971,0,-3,2,2,4,2,2,0
1558433809813971,-2,-2,-3,-1,5,0,2,1
1558433809827932,2,5,-1,-2,-1,-3,-4,-7
1558433809827932,3,6,10,6,-3,-3,-1,-1
1558433809834914,-6,-2,10,4,2,4,2,0
1558433809834914,-14,-7,-27,-16,-15,-9,-7,-6
1558433809850394,6,2,-2,-2,11,10,3,4
1558433809850394,-1,-5,3,1,3,1,1,1
1558433809857843,6,6,2,0,-7,-7,-3,-2
1558433809857843,2,2,7,2,-2,1,0,1
1558433809874435,-5,-2,-9,-6,-6,-7,-6,-4
1558433809874435,1,-2,1,0,0,0,-1,5
1558433809875327,1,5,2,1,2,1,1,-9
1558433809875327,2,-2,0,0,3,1,1,-1
1558433809888642,2,3,-3,0,-2,-1,3,4
1558433809888642,0,-13,1,1,5,2,-2,-3
1558433809895273,-2,1,-7,-6,-4,-6,-5,-1
1558433809895273,-1,4,4,0,-7,-4,-2,0
1558433809910237,-2,-7,-4,0,-8,-4,-3,-3
1558433809910237,0,6,1,-3,5,4,0,0
1558433809917216,-6,-12,-14,-6,2,1,1,-1
1558433809917216,3,6,2,2,2,-1,0,-2
1558433809934198,4,4,-10,-4,-1,-5,-1,2
1558433809934198,-7,-4,2,0,-5,-4,1,0
1558433809935170,-2,-6,-2,-4,-5,-1,-1,-2
1558433809935170,4,7,9,4,6,1,1,3
1558433809948459,-5,-10,6,3,-3,1,4,-1
1558433809948459,4,1,-8,-7,-4,0,-3,-2
1558433809955478,-1,3,1,3,4,-1,1,0
1558433809955478,-8,-6,-4,-1,-6,-3,-5,-2
1558433809970410,7,6,7,6,7,2,-1,3
1558433809970410,-4,0,-2,-3,-5,-5,-2,-2
1558433809979050,1,-7,2,1,-4,-1,0,0
1558433809979050,-2,-4,-9,-6,-7,-6,-4,-6
1558433809994009,-8,-2,2,-2,2,4,1,0
1558433809994009,7,6,4,3,2,1,-1,-3
1558433809995006,-7,-6,-18,-8,-3,-4,-3,-1
1558433809995006,0,-6,1,-1,0,0,1,0
1558433810008314,1,3,2,0,1,2,1,0
1558433810008314,5,3,0,1,0,0,-1,1
1558433810015257,2,9,9,0,-2,0,-2,-3
1558433810015257,-3,-5,-13,-5,-2,-2,-1,1
1558433810031174,2,-1,6,1,-3,-2,-1,2
1558433810031174,-9,-8,-7,-2,-1,-1,-3,-1
1558433810037213,1,-1,2,1,0,0,-4,-2
1558433810037213,-2,-3,-7,-1,1,3,-1,-4
1558433810054171,-3,-2,0,-2,-1,-3,-1,-2
1558433810054171,-1,1,-2,-2,0,1,2,2
1558433810054848,0,3,8,5,2,1,3,4
1558433810054848,2,1,5,0,-6,-6,-4,5
1558433810068146,-2,-4,-3,2,0,-1,0,-10
1558433810068146,-4,-10,-3,-3,-3,-4,-5,-6
1558433810075072,2,7,-9,-5,4,3,-1,-2
1558433810075072,-5,-8,7,0,-5,1,-1,0
1558433810091043,-5,-3,-12,-8,-8,-7,-4,2
1558433810091043,5,4,5,4,1,-4,1,-1
1558433810098016,-7,-3,6,1,2,4,-1,-3
1558433810098016,7,1,-3,0,5,4,2,-1
1558433810113694,-8,-2,-6,-7,-10,-5,-4,-3
1558433810113694,-1,1,-12,-5,-10,-8,-4,-3
1558433810114691,5,6,0,3,-1,-2,-2,2
1558433810114691,-6,-9,-1,1,0,1,-2,-3
1558433810127652,0,4,6,3,6,6,1,3
1558433810127652,-1,0,12,7,3,1,1,5
1558433810134634,-1,-5,-11,-6,-6,-7,-2,-3
1558433810134634,0,7,-8,-6,-6,-5,-1,-2
1558433810150714,7,-2,-4,-2,-3,-1,-2,0
1558433810150714,-5,-1,-4,-5,6,2,0,0
1558433810157950,1,4,9,4,5,2,2,2
1558433810157950,1,4,6,2,-5,-4,-2,-4
1558433810173859,4,2,0,-1,-2,-5,0,1
1558433810173859,-1,3,-4,-2,3,8,3,3
1558433810175834,-3,-7,2,1,8,5,2,0
1558433810175834,-3,-1,1,3,4,0,-1,-5
1558433810188755,-12,-9,-4,-2,-10,-4,-6,-5
1558433810188755,1,-2,-2,0,-7,-2,-2,0
1558433810202757,-12,-12,-6,-4,0,-3,0,-4
1558433810202757,6,8,2,-1,4,3,3,5
1558433810210818,-4,-6,-1,-3,-4,-5,-4,-3
1558433810210818,-5,-7,-2,-5,-6,-1,1,-3
1558433810217961,7,10,7,2,3,5,3,3
1558433810217961,0,4,2,3,4,-1,0,0
1558433810233758,-4,-8,-1,3,4,0,1,1
1558433810233758,0,0,-3,-5,-9,-9,-5,-1
1558433810235023,-4,-9,-8,-8,-13,-6,-6,-2
1558433810235023,0,3,-1,0,4,4,2,2
1558433810248934,5,10,3,3,5,3,0,1
1558433810248934,0,-3,-6,-1,4,2,-1,-2
1558433810255941,0,1,7,4,0,1,0,0
1558433810255941,-2,-8,-9,-5,-7,-2,0,1
1558433810270901,-1,2,4,-3,-3,-2,-2,-2
1558433810270901,1,-1,0,0,3,3,3,3
1558433810277640,-6,1,-11,-4,-6,-8,-5,-9
1558433810277640,1,-4,5,2,1,0,-1,0
1558433810293789,5,2,3,0,4,2,3,-1
1558433810293789,-6,0,-2,-2,-4,-4,-4,-2
1558433810295592,2,0,0,-1,0,4,3,3
1558433810295592,-1,-3,-3,-3,1,1,1,-1
1558433810308732,-2,3,1,0,-3,-4,-3,-1
1558433810308732,-5,-4,3,1,2,-2,0,-1
1558433810315617,3,0,2,2,-3,-4,-2,0
1558433810315617,-5,-6,-9,-9,-2,-1,-3,-5
1558433810330497,2,1,-4,2,6,4,1,-1
1558433810330497,2,2,3,0,1,2,0,3
1558433810337481,2,1,10,6,0,-2,-2,2
1558433810337481,3,3,5,2,-4,-3,-4,-3
1558433810354473,-29,-28,-18,-12,-12,-6,-6,-10
1558433810354473,0,1,2,-2,-2,1,-2,-2
1558433810355805,-2,-2,-7,-3,-1,-1,2,2
1558433810355805,1,-1,5,3,5,3,3,0
1558433810368396,4,3,1,4,7,6,2,3
1558433810368396,0,-2,0,2,2,0,1,-4
1558433810374865,-2,5,2,1,-4,-3,-4,-4
1558433810374865,-1,-3,-5,-3,-8,-6,-4,1
1558433810390676,7,11,1,-1,-4,-4,0,0
1558433810390676,-8,-12,-1,-2,-3,-1,0,-2
1558433810397646,6,5,1,3,5,1,2,0
1558433810397646,-4,-3,-8,-3,2,2,1,-1
1558433810414375,1,-1,1,-2,-2,-2,-2,0
1558433810414375,-1,2,-6,-2,3,0,1,-3
1558433810415274,-1,-3,4,1,-4,-2,-4,-2
1558433810415274,-2,3,3,0,-3,-6,-1,-1
1558433810427240,1,-2,-3,-3,-2,-3,-1,2
1558433810427240,-1,0,-3,-1,-3,0,-2,-1
1558433810436320,2,-2,-2,0,3,0,-2,-1
1558433810436320,-4,-8,0,0,-2,1,0,2
1558433810451313,5,7,4,2,0,-1,0,1
1558433810451313,-4,-11,-8,-4,-4,-2,-1,-4
1558433810457196,2,3,2,-1,3,3,0,1
1558433810457196,-6,-3,0,-1,-5,-5,-4,-1
1558433810474434,-8,-10,-24,-12,-8,-6,-7,-11
1558433810474434,0,-4,7,0,1,-1,0,0
1558433810475114,2,-4,-8,-4,-2,-3,2,-1
1558433810475114,-10,0,3,1,0,-1,-1,-6
1558433810487188,0,0,5,-2,-4,-2,-2,4
1558433810487188,3,5,0,2,3,0,1,2
1558433810496370,-8,-6,-9,-6,-3,-3,-4,-6
1558433810496370,-1,-4,-3,-1,2,0,1,1
1558433810510323,1,0,1,2,0,3,3,3
1558433810510323,5,6,3,-1,3,0,0,1
1558433810517027,-4,-1,-1,-1,-6,-6,-4,-1
1558433810517027,0,-1,-4,-3,-4,-5,-1,-2
1558433810534282,0,-2,9,5,0,1,-1,0
1558433810534282,3,6,-1,-1,-3,-3,0,0
1558433810534950,-17,-24,-16,-7,0,0,-2,-1
1558433810534950,7,3,5,-1,3,5,1,2
1558433810546976,-12,-7,-3,0,4,3,1,-4
1558433810546976,3,8,4,2,-7,-4,-2,-2
1558433810555907,-8,-4,4,0,-3,-2,-2,-3
1558433810555907,1,3,4,2,-5,-3,-3,-2
1558433810570857,1,-4,-19,-9,-3,-1,1,4
1558433810570857,-2,-8,-3,-2,7,2,-1,1
1558433810577303,2,2,1,1,-3,-1,0,-4
1558433810577303,2,7,4,1,5,4,1,-1
1558433810593864,0,-1,4,-1,-9,-12,-2,-3
1558433810593864,-1,-1,-5,-4,-6,-5,-5,-2
1558433810594791,3,-1,-5,-3,5,4,2,1
1558433810594791,-3,-2,-6,-2,-4,-1,0,-1
1558433810608060,3,1,-5,-5,-4,-1,-2,4
1558433810608060,-15,-10,-9,-7,-4,-4,-3,-8
1558433810616082,7,13,12,5,3,-1,1,2
1558433810616082,3,2,-4,-3,3,2,1,-1
1558433810631076,-1,-3,10,8,4,0,-1,-1
1558433810631076,2,-6,-2,1,-2,0,0,-1
1558433810638050,-2,-5,-3,-2,-9,-4,-5,-2
1558433810638050,1,-1,-11,-6,-11,-8,0,-1
1558433810653637,5,6,2,1,13,7,2,2
1558433810653637,7,8,7,5,4,5,3,1
1558433810659899,-3,-11,-7,-3,-3,-3,-2,-3
1558433810659899,2,1,4,1,-3,-4,0,2
1558433810667883,4,3,2,1,-3,2,-1,-2
1558433810667883,-8,-7,-6,-4,-4,-2,-4,-1
1558433810676574,-7,-9,-5,-2,-4,-5,-3,-5
1558433810676574,-1,-6,-6,-1,3,5,2,2
1558433810690810,0,1,1,1,-1,4,2,2
1558433810690810,1,3,7,1,0,-4,-2,-2
1558433810697793,1,10,-4,-1,3,1,-2,3
1558433810697793,-5,-5,0,-5,-7,-5,-7,-6
1558433810713738,2,7,-3,-1,-2,-1,0,-3
1558433810713738,7,2,14,6,2,1,4,3
1558433810720455,-7,-7,-9,-3,-3,1,-1,-2
1558433810720455,-3,-12,-19,-12,-1,-3,-3,-3
1558433810727435,-6,-8,-4,-4,2,-2,-5,-6
1558433810727435,0,6,-1,-3,0,-1,3,1
1558433810736411,7,12,14,5,-2,-3,2,2
1558433810736411,0,-2,2,5,3,1,-4,1
1558433810750570,1,3,1,0,-4,-2,2,0
1558433810750570,2,4,0,0,4,3,1,1
1558433810757355,-3,-7,-17,-8,-2,-2,-3,1
1558433810757355,-7,-3,1,-1,-3,-2,-2,-9
1558433810773783,4,5,3,0,-8,-5,0,-1
1558433810773783,-14,-12,0,1,3,-3,-3,-5
1558433810780293,2,2,3,0,5,5,5,5
1558433810780293,2,4,7,6,8,2,2,1
1558433810787614,-1,-7,-1,0,0,-1,-2,-4
1558433810787614,-2,-1,-16,-4,-9,-4,-3,-2
1558433810796357,0,-7,-2,-7,-11,-8,-5,-2
1558433810796357,0,2,-7,1,0,0,-1,0
1558433810810215,2,10,9,5,7,5,2,5
1558433810810215,-1,-9,-2,3,5,2,-3,-1
1558433810817197,-4,-6,-7,-8,-6,-3,-2,-4
1558433810817197,4,3,1,-2,-4,-3,-1,-3
1558433810833153,-4,-6,-4,-1,-4,0,-1,0
1558433810833153,-2,1,4,3,7,-1,-3,0
1558433810840134,5,11,12,8,6,5,4,2
1558433810840134,-6,-14,-6,-5,-4,-1,-3,-2
1558433810847115,-3,1,-4,-3,-6,-6,-2,-1
1558433810847115,1,-3,-2,-5,-11,-6,0,-2
1558433810856381,1,2,4,2,4,3,1,-5
1558433810856381,-5,-5,-2,-1,-2,-1,1,3
1558433810870560,-7,-9,-7,-2,2,0,-8,-9
1558433810870560,0,4,0,-1,2,4,1,1
1558433810877359,0,-2,1,-1,-1,-3,0,2
1558433810877359,-1,-1,1,-1,-4,-6,0,0
1558433810893500,2,3,-1,-3,-1,-1,1,1
1558433810893500,2,6,3,1,4,2,1,-2
1558433810907464,-3,-3,-7,0,0,1,-2,-5
1558433810907464,-3,-13,-4,-7,-5,-3,-5,-4
1558433810916375,3,2,-3,-1,-1,-2,-1,-1
1558433810916375,-5,-4,0,0,-6,-5,0,2
1558433810917926,-9,-3,1,2,5,2,-1,-3
1558433810917926,2,6,-6,-4,-1,-2,-2,0
1558433810930895,-4,-3,5,1,-2,0,1,-1
1558433810930895,0,-2,0,-1,-2,-3,-3,-1
1558433810937212,0,-1,5,4,4,4,2,1
1558433810937212,1,3,0,0,1,-1,-2,-2
1558433810952832,-1,1,-2,-1,-4,-4,-3,0
1558433810952832,-1,0,-7,-6,-8,-5,-4,-8
1558433810960156,-1,-8,6,1,-2,-2,-2,0
1558433810960156,4,11,0,3,6,6,5,2
1558433810977005,-2,-6,-1,0,0,-3,-1,0
1558433810977005,-4,-4,-3,1,1,2,0,-2
1558433810977768,0,1,-17,-10,-2,-3,-1,-1
1558433810977768,-2,-6,7,2,-4,-3,-1,-1
1558433810991075,1,5,-2,-1,-2,-3,-1,-1
1558433810991075,-9,-11,6,1,-4,-1,-3,-2
1558433810998066,4,8,-2,-4,-5,-3,-1,0
1558433810998066,-1,4,7,5,5,1,1,1
1558433811013674,-1,-5,6,3,8,6,2,-1
1558433811013674,7,7,-3,-3,4,4,1,1
1558433811019997,-7,-9,-8,-3,-6,-3,-3,0
1558433811019997,0,3,2,0,-2,0,-2,-6
1558433811036948,-1,-1,0,-3,-7,-5,-1,1
1558433811036948,2,2,-1,0,-2,0,1,1
1558433811037611,6,5,2,0,6,0,0,1
1558433811037611,-8,-12,-4,-3,-3,0,-2,-2
1558433811050723,1,-1,-2,-1,-3,-3,-4,-3
1558433811050723,-7,-6,-5,-4,-5,0,2,0
1558433811057552,2,4,0,2,0,-2,-1,-2
1558433811057552,5,2,3,-2,-2,-3,0,2
1558433811072512,-9,-1,0,-2,-3,0,0,-5
1558433811072512,-3,-4,-14,-7,-6,-8,-5,0
1558433811079519,-1,-4,10,6,3,1,1,3
1558433811079519,2,8,8,6,3,2,-1,-2
1558433811096482,-10,-11,-18,-10,-5,-6,-4,1
1558433811096482,-1,-7,-4,-3,-1,-2,-3,-5
1558433811097445,-5,-1,-7,-2,-4,-3,-2,-1
1558433811097445,0,-6,5,2,0,-3,2,2
1558433811109449,-2,2,-1,-1,-2,0,-4,-3
1558433811109449,0,6,2,1,0,1,-1,-2
1558433811118389,2,1,8,1,3,3,-1,-2
1558433811118389,3,6,-7,-5,0,0,-1,-1
1558433811133403,-9,-8,3,1,3,3,2,2
1558433811133403,-1,1,0,-2,-3,-5,-4,-5
1558433811139391,-1,0,-1,-1,-3,-2,-2,-4
1558433811139391,1,3,-1,-1,-2,1,-3,-1
1558433811157293,0,-3,-4,-6,-2,-2,0,0
1558433811157293,3,1,4,2,1,-3,0,0
1558433811158282,-8,-9,-4,-2,-2,-1,0,-1
1558433811158282,-6,-7,-8,-3,-4,-3,-2,0
1558433811170250,7,5,-1,2,5,5,2,2
1558433811170250,1,-2,0,-2,-5,0,1,0
1558433811177237,2,0,-3,-3,-3,-5,-3,-4
1558433811177237,-11,-12,-4,-1,-1,-1,2,-2
1558433811193220,3,-3,3,1,1,-2,-3,-1
1558433811193220,-2,2,-1,2,2,0,-2,2
1558433811200185,2,0,-1,-2,-3,-3,-3,0
1558433811200185,-9,-3,2,-2,2,3,1,1
1558433811216129,3,6,-4,0,5,-1,-1,-2
1558433811216129,0,-2,-2,-4,-6,-1,-1,0
1558433811217125,1,3,5,1,-6,-4,-1,-3
1558433811217125,-1,-2,-6,-2,2,3,0,-3
1558433811230091,2,1,5,1,0,1,2,2
1558433811230091,-2,6,1,0,0,-1,-3,-3
1558433811237105,-5,-5,-5,-3,-4,-2,0,2
1558433811237105,17,15,6,2,-3,-3,-1,2
1558433811253029,-6,-7,-2,-1,-4,-6,-6,-3
1558433811253029,-2,-7,-5,-4,-2,0,0,1
1558433811260012,0,-1,-2,3,5,3,3,-3
1558433811260012,-2,4,-1,1,1,2,0,1
1558433811275969,6,3,4,4,6,3,1,-3
1558433811275969,-6,-9,-5,-4,-4,-4,-3,-3
1558433811277964,4,7,4,2,0,-1,-4,-1
1558433811277964,-4,-2,-2,0,3,-1,-3,-3
1558433811289933,1,0,-12,-8,-5,-1,0,1
1558433811289933,-1,1,1,-1,-1,-1,1,0
1558433811296916,-4,-4,-1,-2,0,2,0,-1
1558433811296916,-2,-9,-4,-4,-7,-8,-3,-1
1558433811312871,-2,0,2,-2,-6,-2,-1,-3
1558433811312871,2,6,9,4,4,4,2,4
1558433811319853,1,-3,-14,-5,1,2,-1,1
1558433811319853,-2,-1,-2,-1,-1,-3,-2,-2
1558433811335810,-2,-3,0,3,1,-6,-4,-2
1558433811335810,-4,-3,-2,-4,-2,2,-1,3
1558433811337802,2,5,7,-1,-1,3,6,5
1558433811337802,6,2,-2,-2,-2,-3,1,-1
1558433811349775,-7,1,1,3,4,3,-1,-5
1558433811349775,3,-3,0,2,2,0,0,0
1558433811358748,-8,-14,-9,-4,-3,-5,-4,-4
1558433811358748,-3,-1,-2,-5,-7,-7,-4,-3
1558433811372709,3,0,-3,-5,-13,-6,-2,-3
1558433811372709,-2,-3,3,3,14,6,4,2
1558433811379699,4,9,4,5,13,10,2,2
1558433811379699,1,-7,2,-4,-8,-5,-5,1
1558433811395649,-5,-3,-2,-2,-4,-6,-6,-5
1558433811395649,-2,2,-4,-2,-3,-3,-1,-5
1558433811397644,-4,-10,-9,-10,-9,-4,-2,0
1558433811397644,-3,0,0,4,7,4,0,-1
1558433811409613,1,-1,1,-1,-5,-7,-1,1
1558433811409613,0,-6,-7,-1,2,-1,-3,-4
1558433811418586,2,7,11,5,7,5,3,5
1558433811418586,-3,3,4,-1,-8,-4,-6,-7
1558433811441527,-2,-6,-20,-7,-2,2,0,1
1558433811441527,-7,-17,-7,-5,-4,-5,0,-5
1558433811442523,5,6,6,2,-7,-9,-5,-2
1558433811442523,0,-5,5,2,2,3,0,0
1558433811456486,5,10,10,3,3,-2,0,3
1558433811456486,3,4,-8,-7,-10,-2,-5,-3
1558433811457483,-7,-5,-10,-2,-7,-7,-5,-7
1558433811457483,0,5,3,-1,8,8,5,5
1558433811469450,5,0,-3,1,2,-1,1,-1
1558433811469450,-9,-13,3,-2,-3,-6,-3,-1
1558433811478427,-3,-8,-3,-1,-3,-1,-2,-2
1558433811478427,-3,2,-15,-7,-4,-6,-1,-3
1558433811493385,-5,-8,8,2,-3,1,1,1
1558433811493385,5,5,-8,-1,5,4,5,4
1558433811499371,2,2,2,3,5,3,-1,-2
1558433811499371,-4,-4,-4,-1,-3,-5,0,4
1558433811516325,-1,-2,3,2,0,0,0,-5
1558433811516325,-5,-1,-1,-7,-9,-4,-7,-8
1558433811517322,0,3,0,-1,1,0,-2,1
1558433811517322,-1,-1,2,4,1,-1,-3,-4
1558433811538268,-3,-5,-1,-3,-6,-3,-3,0
1558433811538268,1,2,-7,3,1,-1,4,5
1558433811540262,5,8,1,1,5,6,0,-2
1558433811540262,-7,-16,-4,-3,-8,-5,-4,0
1558433811561218,-6,-6,-2,-2,-5,-1,-6,-7
1558433811561218,2,12,11,3,0,1,1,0
1558433811563200,-5,-17,-13,-3,-4,-6,0,-2
1558433811563200,5,6,-4,-3,-5,-5,-1,-1
1558433811576165,-5,-10,-6,0,9,5,3,0
1558433811576165,-1,-2,-3,-2,1,-1,-4,-1
1558433811577163,-2,6,7,0,-4,2,0,-1
1558433811577163,-1,0,-1,-1,-1,-1,-2,-1
1558433811590127,0,2,1,-2,-2,-2,-1,1
1558433811590127,0,2,4,-1,-3,-2,-2,-1
1558433811599109,1,0,-1,-2,-5,-7,-2,-1
1558433811599109,-2,0,6,5,3,3,0,-1
1558433811613076,0,3,-3,-3,1,3,-1,1
1558433811613076,-1,-1,-7,0,-1,-5,-1,0
1558433811620047,0,-5,6,-3,0,-1,0,-1
1558433811620047,-11,-8,-5,-2,-5,-1,-3,-2
1558433811635008,9,12,5,3,5,2,6,5
1558433811635008,-9,-10,-5,-3,-1,-5,-2,0
1558433811641989,1,7,0,-3,-8,-4,-3,-4
1558433811641989,4,3,7,2,7,8,3,-1
1558433811649968,-2,-5,-16,-8,-4,-1,-2,-2
1558433811649968,-1,4,3,3,-4,1,-3,-4
1558433811658945,-6,-11,-6,-3,-9,-7,0,0
1558433811658945,7,6,5,5,11,7,2,1
1558433811672905,3,7,6,0,2,1,2,4
1558433811672905,1,1,1,0,-4,-6,-3,-1
1558433811679888,-3,-2,-5,-5,0,-3,-3,-1
1558433811679888,-2,0,-1,0,-2,0,0,-4
1558433811695846,1,1,-4,-2,4,0,-1,0
1558433811695846,-4,-2,2,-4,-4,-1,0,1
1558433811701828,-3,-4,8,6,5,-1,0,2
1558433811701828,-2,-7,-15,-7,-7,-1,-2,-2
1558433811709807,1,1,1,1,1,2,-1,-1
1558433811709807,-4,-5,2,1,-5,-3,0,-3
1558433811718783,3,10,1,0,-3,0,-1,-2
1558433811718783,-1,0,2,0,9,4,1,0
1558433811732746,-8,-17,-16,-6,-10,-9,-7,-6
1558433811732746,7,6,1,2,7,7,2,6
1558433811739728,-2,-3,-1,1,8,7,3,-3
1558433811739728,-2,2,2,0,-3,-5,-2,-2
1558433811755696,5,10,8,-3,-10,-11,-5,-5
1558433811755696,-9,-12,-5,-4,-3,-4,-2,-3
1558433811761670,-2,-3,-3,4,6,1,2,1
1558433811761670,-1,0,1,-1,1,1,1,1
1558433811778623,-2,1,-1,-3,-6,-3,-3,-1
1558433811778623,-1,-2,-12,-6,-8,-4,-5,-6
1558433811779620,-1,3,-2,-1,-1,-5,-3,0
1558433811779620,2,0,0,3,10,7,6,4
1558433811793584,-6,-11,-9,-2,-1,0,1,1
1558433811793584,3,5,6,3,-3,1,0,-2
1558433811799568,-5,-6,-8,-5,-5,0,-4,-7
1558433811799568,0,0,-4,-5,-9,-6,-1,0
1558433811815526,2,4,6,6,10,6,0,-2
1558433811815526,6,11,6,2,3,3,3,2
1558433811822506,-1,1,0,-2,-3,-4,-6,-3
1558433811822506,-5,-13,-2,-2,-9,-5,-1,-4
1558433811838464,-1,-4,5,4,9,8,5,1
1558433811838464,0,1,-1,-4,-7,-7,-4,0
1558433811840459,5,8,0,0,-1,2,-2,1
1558433811840459,-2,2,7,5,4,-1,-2,-1
1558433811853423,-3,-8,-6,-7,-6,-4,-7,-4
1558433811853423,4,0,-6,0,1,0,3,0
1558433811859408,-13,-17,-1,-2,-1,3,2,2
1558433811859408,-3,-4,-2,-3,-1,1,-2,-3
1558433811875365,-2,3,0,-1,1,3,5,2
1558433811875365,-1,3,-2,-3,-4,-5,-6,-2
1558433811882345,2,2,4,2,-7,-8,-3,-2
1558433811882345,1,-2,2,6,13,6,2,4
1558433811898303,-5,1,-7,-2,-4,-4,-3,1
1558433811898303,0,-7,0,-4,2,4,5,3
1558433811900298,0,5,-3,-4,-4,-2,-1,-4
1558433811900298,-3,-3,1,-4,-5,-6,-4,-2
1558433811913265,3,2,4,2,0,0,1,1
1558433811913265,-3,-1,-2,-1,-5,-1,-1,-2
1558433811919249,3,2,11,4,3,-3,1,-3
1558433811919249,0,2,-10,1,2,1,0,-1
1558433811935204,-5,-7,-2,-2,-2,-2,-4,-4
1558433811935204,0,0,0,1,1,3,3,1
1558433811944455,-2,4,3,-4,-7,-8,-2,0
1558433811944455,0,-3,-9,-10,-14,-10,-6,-4
1558433811958158,7,5,1,-2,0,0,-4,-3
1558433811958158,-4,-6,-1,3,6,0,-2,-1
1558433811960138,-1,-7,-5,-1,-3,-1,-1,0
1558433811960138,-3,-3,0,2,1,0,-2,1
1558433811973103,3,5,7,5,10,9,9,5
1558433811973103,0,0,-4,-5,-7,-5,-4,-4
1558433811980086,-6,-8,-9,-4,-9,-6,-7,-8
1558433811980086,4,7,4,1,0,2,2,1
1558433811995045,-2,-4,-1,2,-3,-6,-2,-1
1558433811995045,0,-1,-4,-2,5,4,0,-3
1558433812002026,-8,-7,1,4,12,7,4,3
1558433812002026,-2,-4,1,-5,-12,-7,-7,-5
1558433812018994,-3,-1,-8,-5,-12,-6,-1,-2
1558433812018994,2,3,2,3,9,3,2,3
1558433812019978,3,-2,2,2,3,0,0,4
1558433812019978,1,1,-1,-2,0,0,0,-4
1558433812032943,-1,-1,4,-3,-5,-3,-2,0
1558433812032943,-12,-13,-3,-1,-1,1,-4,-3
1558433812039942,-1,2,-5,-2,1,2,0,0
1558433812039942,5,5,-2,0,7,5,2,6
1558433812055883,2,-1,2,1,-5,-5,-2,-4
1558433812055883,0,-1,5,-2,-8,-6,-3,-6
1558433812062871,3,6,-17,-6,-4,-5,-4,-6
1558433812062871,-3,-3,0,-3,2,2,4,-1
1558433812078836,-3,-3,-5,2,8,4,1,0
1558433812078836,-1,-2,1,1,-2,-3,-2,4
1558433812079817,0,1,-3,-2,-5,2,0,-2
1558433812079817,-1,-6,-8,-4,-11,-10,-4,-3
1558433812092784,0,6,6,5,10,0,5,2
1558433812092784,-5,-5,-1,0,-5,-5,-6,-4
1558433812099764,0,1,-1,-1,-3,1,-1,-4
1558433812099764,4,4,-5,-2,3,2,3,6
1558433812115722,-5,-3,2,0,-5,-4,-5,-8
1558433812115722,2,1,2,3,3,1,3,4
1558433812122704,-1,0,-3,-4,2,1,-1,-2
1558433812122704,-5,-5,-2,-3,-8,-4,-3,-6
1558433812138661,-1,1,2,-2,-1,-1,1,6
1558433812138661,-7,-11,0,1,3,4,5,0
1558433812139658,0,1,-4,0,1,1,3,1
1558433812139658,-2,3,5,2,2,-1,-1,-4
1558433812152625,0,-3,3,1,-6,-6,-4,-1
1558433812152625,-5,-3,-6,-4,4,-1,-3,-4
1558433812159604,-5,-5,-6,-4,-5,-1,2,2
1558433812159604,-1,1,3,1,-1,1,2,0
1558433812175560,-5,-3,-6,-5,0,4,-4,-4
1558433812175560,5,6,5,2,-2,-5,0,2
1558433812182545,1,-2,6,1,-2,0,-2,-2
1558433812182545,-11,-8,-12,-6,-4,-6,-3,-4
1558433812198500,0,1,2,3,6,5,1,0
1558433812198500,0,0,-1,-1,0,0,-2,-2
1558433812199497,0,-2,-2,-2,-3,-4,-4,0
1558433812199497,2,5,2,0,-3,-3,-3,1
1558433812212464,-6,-11,-5,-2,-2,0,1,0
1558433812212464,-1,-6,-5,-7,-6,-2,-3,-2
1558433812219445,0,3,4,1,-5,-5,-4,-5
1558433812219445,0,1,1,2,-2,2,-1,-3
1558433812243379,5,8,8,7,17,12,6,-1
1558433812243379,7,8,-1,4,5,-3,1,3
1558433812245377,-4,-10,-7,-7,-12,-13,-8,-2
1558433812245377,-3,-5,-3,0,5,3,-1,-1
1558433812258341,-3,2,-4,-5,-5,-1,-1,-1
1558433812258341,3,3,1,-1,-6,-6,-5,-2
1558433812266319,5,-1,8,5,2,-1,1,1
1558433812266319,-11,-15,-10,-3,-1,0,-1,-3
1558433812273301,0,2,-2,-3,-6,0,-3,-7
1558433812273301,0,0,0,-4,-3,-2,-2,-2
1558433812279285,-1,0,0,1,1,4,5,2
1558433812279285,3,5,-3,-5,1,0,2,3
1558433812295242,-2,-8,-4,-5,-7,-8,-3,2
1558433812295242,1,6,0,2,7,4,3,1
1558433812302224,-5,-5,-2,-2,3,4,-1,-1
1558433812302224,1,0,4,4,-5,-8,-2,0
1558433812318180,0,-1,-9,-6,-5,-6,-2,-1
1558433812318180,-1,0,-6,-6,-6,1,1,-4
1558433812320175,-2,-6,-1,2,7,8,1,1
1558433812320175,0,3,4,0,2,-1,-1,-2
1558433812340121,-1,0,-1,-3,-13,-13,-9,-2
1558433812340121,-3,-6,-1,-3,-6,-4,-2,-1
1558433812341132,5,6,0,5,17,16,9,5
1558433812341132,7,4,0,0,-3,1,-5,-2
1558433812356078,-8,-7,3,3,1,-2,0,0
1558433812356078,0,3,-1,-1,-4,-3,2,-3
1558433812362064,-1,-3,-5,-6,-11,-9,-8,-5
1558433812362064,0,-3,-7,-2,1,-4,-4,-3
1558433812378020,3,2,-3,-4,-7,-3,-4,-3
1558433812378020,-2,-3,6,5,9,6,2,0
1558433812379017,-3,0,-1,-3,-3,-4,3,-2
1558433812379017,0,0,-1,-4,-8,-4,1,1
1558433812399963,-3,-6,-14,-8,-2,-1,-5,-4
1558433812399963,-2,0,-3,-2,0,4,-3,-1
1558433812400959,-4,-4,2,1,0,-6,2,-1
1558433812400959,-4,-4,0,3,8,6,1,-3
1558433812415918,4,8,4,-1,-1,2,-2,2
1558433812415918,-2,-8,-5,-2,-12,-11,-6,-3
1558433812421903,4,7,0,-1,3,5,0,5
1558433812421903,-1,-2,2,2,0,-2,-1,-5
1558433812444842,-3,0,0,0,-2,-3,1,1
1558433812444842,1,3,6,2,4,5,1,2
1558433812445838,0,4,4,4,2,4,0,0
1558433812445838,-1,-8,-3,-4,0,3,1,0
1558433812460799,0,-5,-14,-6,-7,-6,-4,-6
1558433812460799,-4,-10,-3,-5,-7,-10,-4,0
1558433812460799,-2,-1,2,7,14,11,7,6
1558433812460799,6,11,9,4,1,1,-4,2
1558433812475758,-1,-3,1,3,0,1,4,-1
1558433812475758,-2,-2,-3,-1,1,0,-1,-5
1558433812481746,2,3,0,-6,-11,-9,-4,-4
1558433812481746,-2,3,0,-1,-4,0,1,2
1558433812497700,-3,1,3,0,3,0,-1,1
1558433812497700,1,4,-1,0,7,5,0,3
1558433812498697,-1,-9,-5,-4,-3,-3,-4,1
1558433812498697,-9,-5,-9,1,0,3,2,-3
1558433812520639,-8,-11,0,-1,-4,-6,-3,0
1558433812520639,0,0,-3,0,-5,0,-1,-2
1558433812520639,-3,0,-1,-4,-7,-13,-6,-1
1558433812520639,2,-2,0,-3,-7,0,-2,-4
1558433812535599,4,-3,4,7,21,23,15,5
1558433812535599,-1,5,6,3,5,-2,-3,-1
1558433812542581,2,6,-1,0,-6,-4,-2,-2
1558433812542581,-7,-11,-11,-8,-13,-10,-6,-2
