timestamp,emg1,emg2,emg3,emg4,emg5,emg6,emg7,emg8
1558433874799467,-15,-8,-2,3,10,11,0,-2
1558433874799467,1,5,2,-5,-3,-4,-1,-1
1558433874800464,-3,-10,-13,-3,-5,-3,-2,-2
1558433874800464,-4,-11,-5,-6,-10,-8,-3,-4
1558433874801462,5,5,4,-4,-2,0,0,0
1558433874801462,-1,-2,4,5,3,4,1,0
1558433874802458,3,5,-2,-2,-1,0,-2,0
1558433874802458,0,8,2,-1,1,-2,-2,0
1558433874813431,-8,-20,-7,-4,-4,-3,-1,-3
1558433874813431,-1,0,-1,1,1,2,0,-1
1558433874822404,-3,1,5,0,-1,-3,-3,-1
1558433874822404,2,6,-6,-4,-7,-7,-1,-2
1558433874836368,4,4,1,-2,-7,-7,-2,1
1558433874836368,-1,-2,-2,-1,6,4,0,1
1558433874844346,3,9,3,3,3,6,3,1
1558433874844346,-2,-14,2,5,1,5,0,-1
1558433874859306,-3,-4,-8,1,1,-2,0,-2
1558433874859306,0,-2,0,0,-6,-6,-3,-3
1558433874860304,-1,0,1,-5,-5,-2,-3,-4
1558433874860304,-9,-4,-4,-3,-5,-4,-1,-2
1558433874873270,8,13,7,-1,-3,-2,1,-1
1558433874873270,-1,-8,-4,1,8,3,2,0
1558433874881248,-4,0,-7,-5,-1,-4,-1,-3
1558433874881248,0,-5,3,0,3,2,1,4
1558433874888229,-3,-5,-6,-5,-2,-2,0,-3
1558433874888229,-7,-1,-5,-4,-7,-6,-5,-4
1558433874926129,10,5,1,-3,1,2,-1,0
1558433874926129,-16,-10,-1,4,8,6,4,-3
1558433874935103,5,17,11,7,12,8,6,6
1558433874935103,-5,-23,-8,0,2,1,0,-2
1558433874936101,-2,0,-10,-9,-10,-10,-5,-2
1558433874936101,2,-1,0,-4,-10,-7,-6,-3
1558433874937100,-2,-6,-7,-4,-3,-1,-2,-3
1558433874937100,3,12,7,1,2,1,1,-1
1558433874948071,0,3,4,4,0,2,2,1
1558433874948071,2,-1,-5,-7,-6,-6,-3,-2
1558433874956047,-8,-9,-10,-5,-6,-5,-3,-4
1558433874956047,2,2,3,1,6,4,2,3
1558433874963030,-4,-8,-1,2,7,9,3,0
1558433874963030,6,12,4,6,8,2,0,0
1558433874977989,2,2,-1,-3,-4,-2,-2,-2
1558433874977989,-2,-1,-2,0,-4,-6,-4,-1
1558433874984970,-1,2,2,1,-5,-4,-2,-3
1558433874984970,0,-10,-2,-4,-4,-4,-2,0
1558433874993947,-4,-6,0,1,2,-1,-1,0
1558433874993947,-4,-6,-1,1,4,4,0,1
1558433875016886,0,4,4,1,2,1,1,-1
1558433875016886,0,-3,-17,-9,-3,-1,-2,-3
1558433875017883,-2,-7,-7,-5,-8,-7,-5,-5
1558433875017883,3,8,1,-1,-6,-3,-1,-1
1558433875030850,-5,-13,2,2,6,1,2,0
1558433875030850,-1,2,6,1,2,1,-1,0
1558433875037829,0,3,2,0,-5,-2,-1,0
1558433875037829,7,10,0,-6,-7,-7,-4,0
1558433875044813,-11,-12,-7,-2,-6,-6,-5,-4
1558433875044813,1,1,6,9,8,10,8,5
1558433875053787,-1,2,-11,-3,12,7,0,-1
1558433875053787,1,1,-2,0,-2,1,-2,-2
1558433875067748,2,5,3,-1,-5,-5,-2,0
1558433875067748,-2,1,2,-4,-6,-5,-3,-3
1558433875076725,-2,-3,7,2,-7,-6,-4,-3
1558433875076725,-1,4,7,-2,-4,-1,-2,-2
1558433875082708,-1,-2,-9,0,3,4,4,1
1558433875082708,3,8,-3,1,7,3,1,4
1558433875097669,-11,-31,-4,2,4,4,2,-1
1558433875097669,-1,-5,-7,-4,-3,-7,-3,-3
1558433875104650,2,4,10,1,-6,-5,-8,-3
1558433875104650,2,-3,-11,-6,-8,-6,-3,-3
1558433875113626,3,8,3,1,-1,-1,2,0
1558433875113626,-6,-6,-3,-4,-3,1,2,0
1558433875127589,2,5,2,1,3,3,1,-1
1558433875127589,0,6,3,2,10,4,4,3
1558433875136566,1,-1,4,1,0,-1,-1,2
1558433875136566,-6,-6,-3,0,-1,0,0,-3
1558433875142549,-2,-4,-5,-5,-7,-6,-6,-3
1558433875142549,-3,-5,0,-3,-8,-8,-4,-2
1558433875157509,0,3,-12,-5,1,2,-1,-2
1558433875157509,3,4,5,2,-2,-2,-2,-1
1558433875165488,2,-4,-3,-3,-1,-2,1,1
1558433875165488,-3,0,9,4,5,5,1,2
1558433875174465,6,7,6,5,4,7,2,2
1558433875174465,-1,-3,-6,0,4,3,1,0
1558433875187432,-13,-16,-8,-4,-7,-7,-2,-3
1558433875187432,0,-2,2,2,0,2,1,-3
1558433875196405,-6,-7,-2,-6,-9,-10,-6,-4
1558433875196405,0,3,-1,-2,-7,-4,-3,-2
1558433875202396,6,8,7,6,16,14,10,8
1558433875202396,1,3,0,4,6,3,1,-1
1558433875217350,-1,4,-1,-3,-6,-4,-4,-3
1558433875217350,-2,-3,-2,-5,-8,-6,-5,-4
1558433875225328,6,7,5,-1,-4,-5,-5,-1
1558433875225328,-12,-4,-4,-1,6,1,-1,-1
1558433875234304,-1,-6,-4,-4,-1,5,2,0
1558433875234304,-3,-7,-4,0,5,0,-1,-2
1558433875256244,2,3,-3,-3,-2,-4,0,0
1558433875256244,5,6,8,0,-5,-2,-5,-1
1558433875258240,0,3,1,2,3,2,-2,-3
1558433875258240,0,-1,-1,0,-4,-2,-1,0
1558433875271205,0,7,-3,-1,2,5,1,-1
1558433875271205,-3,-14,-6,-5,-5,-5,-1,-1
1558433875277190,1,7,2,-2,-4,-6,-2,-3
1558433875277190,-1,-6,1,1,1,4,0,-1
1558433875285168,-1,-1,-4,2,1,4,2,0
1558433875285168,2,4,-4,-3,-1,-2,-1,-1
1558433875308108,-2,-9,6,3,6,2,-2,1
1558433875308108,0,7,-5,-3,-4,-9,-6,-1
1558433875309103,-4,-6,-4,-4,0,-2,0,-1
1558433875309103,-3,-1,0,-4,-7,-2,0,-3
1558433875316085,0,-2,-2,-2,-2,6,2,0
1558433875316085,3,-4,1,-1,4,0,-1,0
1558433875323066,-9,1,2,4,0,-4,-3,-2
1558433875323066,0,-2,0,-1,-3,-1,0,0
1558433875338026,-1,4,-6,-4,-1,0,-1,1
1558433875338026,0,-6,-10,-5,-4,1,-1,-5
1558433875345007,-5,-5,-4,-4,-5,-2,-4,-3
1558433875345007,1,-1,2,-1,4,3,1,0
1558433875359986,-2,6,7,3,-5,-5,-2,-2
1558433875359986,-1,2,1,1,1,1,2,2
1558433875367949,2,0,-13,-5,3,2,-2,-2
1558433875367949,-7,-18,-1,2,0,2,-1,-4
1558433875376923,4,2,-2,0,-1,-2,-1,0
1558433875376923,-8,-3,-1,-1,0,-2,-1,-1
1558433875382907,2,6,2,-1,-8,-7,-3,-4
1558433875382907,-1,-4,-2,-1,-1,-2,-3,-1
1558433875397866,0,4,2,0,0,0,1,2
1558433875397866,2,9,0,-3,1,-3,-4,-2
1558433875404848,-10,-15,0,1,3,3,2,-1
1558433875404848,-2,-5,-5,-3,-3,1,0,-4
1558433875419808,-2,-2,1,0,-4,-2,-1,-4
1558433875419808,3,9,13,6,0,2,3,2
1558433875427786,0,3,-6,-7,-9,-5,-8,-7
1558433875427786,0,-7,-13,-5,-3,-5,-2,-1
1558433875436767,0,2,0,1,7,5,1,0
1558433875436767,-3,-8,0,1,7,7,3,2
1558433875450725,6,1,6,2,2,-1,-1,-1
1558433875450725,-1,6,2,-2,-7,-8,-3,0
1558433875465684,-3,-13,-10,-3,-8,-9,-5,-4
1558433875465684,1,4,10,4,0,2,1,2
1558433875466684,4,-2,-8,-3,0,3,1,2
1558433875466684,4,6,-8,-6,-1,1,-2,-1
1558433875479657,-14,-15,0,0,-2,-1,2,-2
1558433875479657,1,1,-2,0,-2,-1,-1,-1
1558433875487626,3,0,6,2,-4,-5,-4,0
1558433875487626,-5,-4,1,-1,-9,-4,-4,-2
1558433875496601,3,4,-5,-3,3,2,0,-1
1558433875496601,1,6,-3,-2,1,0,1,0
1558433875502586,2,5,10,8,10,9,7,1
1558433875502586,-1,-1,-1,-2,-1,-8,-6,-3
1558433875517546,-5,-12,-15,-8,-11,-8,-3,-4
1558433875517546,-4,-6,2,-3,-4,-1,-3,-3
1558433875525525,2,0,-3,-4,-2,-1,-2,0
1558433875525525,0,6,5,1,-3,2,0,-1
1558433875540485,2,8,8,0,0,1,-4,-1
1558433875540485,-4,-13,-13,-4,1,0,-2,-1
1558433875547466,5,9,6,6,6,2,5,2
1558433875547466,-3,-4,3,2,4,0,1,1
1558433875556442,-3,-11,-8,-5,-6,-7,-4,-2
1558433875556442,-1,0,-6,-4,-5,-4,-6,-4
1558433875562426,-6,-9,-3,-4,-9,-5,-2,-2
1558433875562426,5,13,0,1,4,2,0,1
1558433875577386,-4,-5,-1,3,9,10,2,1
1558433875577386,-3,-6,4,6,8,6,2,-2
1558433875585365,-6,-9,-8,-5,-2,-5,-2,-4
1558433875585365,5,2,0,-1,-6,-2,2,2
1558433875600325,4,6,5,-2,-3,-6,0,0
1558433875600325,-3,-4,-7,-5,-6,-2,-1,-2
1558433875607309,-2,-1,0,-2,-2,-2,-4,-2
1558433875607309,1,2,3,1,0,1,-2,-4
1558433875616282,-1,1,1,1,-2,-1,0,0
1558433875616282,3,3,2,0,0,-2,-3,-2
1558433875631243,2,-4,-14,-5,1,5,3,2
1558433875631243,-7,-9,2,1,1,-3,-1,1
1558433875637226,1,3,1,3,7,1,-1,-2
1558433875637226,1,6,2,1,0,-1,1,0
1558433875645206,1,3,8,2,-3,-2,-4,-1
1558433875645206,1,-11,-5,-4,-7,-4,-6,-4
1558433875660164,-4,-1,-6,-3,-3,-1,0,-1
1558433875660164,-4,-3,-2,-2,-1,0,0,0
1558433875667146,3,4,0,1,7,4,0,-2
1558433875667146,6,8,3,1,4,-2,1,1
1558433875676122,1,-7,5,2,-1,-4,-1,1
1558433875676122,0,-2,-2,-2,-1,1,0,-1
1558433875691081,-4,-3,2,1,-4,-2,-5,-3
1558433875691081,1,5,6,1,-4,-2,-2,2
1558433875698063,2,2,-11,-6,-2,-3,1,2
1558433875698063,-2,2,-3,-2,-2,-4,-4,-4
1558433875705045,0,-7,3,1,0,2,0,-3
1558433875705045,-6,-5,0,0,1,2,1,1
1558433875720005,1,5,4,-1,0,-2,-1,2
1558433875720005,-2,-6,1,-4,-9,-5,-2,-2
1558433875735961,3,9,3,1,-3,-5,-1,-3
1558433875735961,-5,-6,-7,-2,5,6,2,-3
1558433875737956,1,3,-1,-1,2,4,3,3
1558433875737956,4,2,-2,-1,4,-1,-6,-5
1558433875750922,-16,-17,-6,-3,-7,-7,-4,-3
1558433875750922,-2,-7,-4,-3,-6,-6,-3,-3
1558433875757903,1,2,2,0,-4,-2,-1,-2
1558433875757903,-2,1,3,1,0,-2,1,2
1558433875764884,4,4,8,5,3,3,-1,0
1558433875764884,-7,-5,-17,-10,-6,-1,-1,-2
1558433875779843,2,1,-1,1,3,3,1,0
1558433875779843,1,0,0,3,7,1,2,0
1558433875787823,-5,-9,-7,-6,-3,-3,0,1
1558433875787823,1,7,5,3,-3,-4,-5,-3
1558433875796801,0,0,0,-1,-3,-5,-5,-3
1558433875796801,-4,-2,3,0,-2,1,1,1
1558433875810762,7,19,3,0,2,3,1,2
1558433875810762,-5,-18,-7,-2,1,1,2,0
1558433875817743,-3,-7,-6,-2,1,1,-2,-3
1558433875817743,1,1,-3,-1,2,-1,-1,0
1558433875824724,-1,-1,2,-2,0,-2,-2,-2
1558433875824724,1,8,0,-4,-7,-1,-1,-2
1558433875839684,0,-2,2,-2,-8,-6,-4,-1
1558433875839684,-1,-2,2,-3,-6,-9,-4,-3
1558433875847663,2,0,4,-1,-4,0,0,1
1558433875847663,-8,-6,-14,-3,13,10,5,4
1558433875856638,-1,-1,3,1,5,5,1,-1
1558433875856638,-7,-5,-2,1,3,4,2,1
1558433875870601,-1,-9,-6,-3,-5,-8,-3,-3
1558433875870601,3,3,6,1,-4,-3,-2,0
1558433875877582,0,4,0,0,0,1,1,-4
1558433875877582,-1,-6,-4,-3,-4,-2,0,-1
1558433875884564,-3,-2,0,2,4,2,-3,-3
1558433875884564,6,9,12,9,5,2,0,2
1558433875900591,-4,-3,0,0,-3,-4,1,0
1558433875900591,-2,-7,-16,-7,-3,-2,-4,-3
1558433875907537,1,-3,-5,-1,0,-1,-3,-1
1558433875907537,-2,-5,-6,-7,-1,-1,-4,-4
1558433875922464,-2,-1,1,-2,-6,-2,-2,-4
1558433875922464,3,8,10,7,6,5,3,2
1558433875930471,-4,-6,-3,-3,-3,-1,-2,-3
1558433875930471,0,-1,0,-2,-10,-7,-5,-2
1558433875945428,4,4,7,5,8,3,2,-3
1558433875945428,-5,-8,-7,-6,-3,3,0,0
1558433875946399,5,11,-4,1,1,-3,3,4
1558433875946399,4,13,5,2,4,2,0,0
1558433875968378,-7,-30,-11,-6,-11,-6,-5,-4
1558433875968378,-5,-6,-2,-1,-5,-4,-5,-4
1558433875969339,-1,-2,0,-2,0,3,0,-3
1558433875969339,-4,3,2,-4,-10,-4,-2,-2
1558433875982341,5,13,1,0,-3,-2,0,2
1558433875982341,-1,-9,-2,2,13,11,5,3
1558433875990283,0,1,1,3,12,7,3,2
1558433875990283,0,-8,-2,0,2,-3,-3,-5
1558433876006238,-8,-2,-3,-3,-4,-3,-2,-3
1558433876006238,-1,3,5,-4,-15,-11,-5,-4
1558433876006238,0,1,-11,-4,-1,-1,1,1
1558433876006238,-1,-5,2,2,2,0,1,1
1558433876020202,3,13,4,-1,-1,1,-1,2
1558433876020202,-3,-6,4,5,15,9,3,-2
1558433876027183,-7,-12,-8,-3,0,-1,0,-1
1558433876027183,1,6,-4,-4,-8,-4,-3,-4
1558433876042144,4,0,-4,-5,-1,-2,-3,-3
1558433876042144,2,10,-4,-5,-9,-6,-3,-3
1558433876051156,-3,-13,4,-2,-5,-5,-3,-2
1558433876051156,2,1,8,5,4,1,1,4
1558433876066077,-7,-7,-11,-6,4,6,0,-2
1558433876066077,5,9,5,5,11,8,3,2
1558433876066077,-2,3,8,0,-9,-8,-3,-2
1558433876066077,-1,-2,-9,-5,-4,-4,0,-2
1558433876081072,4,1,2,1,0,-3,0,-1
1558433876081072,3,-5,1,-2,-5,-5,-2,-1
1558433876088019,-13,-6,-5,-6,-7,-5,-5,-7
1558433876088019,3,1,4,3,3,3,6,3
1558433876102981,-2,-1,2,4,9,3,2,0
1558433876102981,-5,-4,-4,-2,-2,-2,-3,-1
1558433876110958,2,-3,1,4,6,2,1,0
1558433876110958,-2,-2,-4,-5,-5,-3,-4,-4
1558433876125919,0,-2,-2,-2,-2,3,-1,-2
1558433876125919,0,4,1,-2,-7,-5,-2,0
1558433876126919,0,8,1,-3,-9,-6,-3,-4
1558433876126919,-6,-14,2,1,-1,2,0,0
1558433876139881,1,-2,-8,-2,12,4,4,3
1558433876139881,-3,0,-19,-9,-2,0,-3,-2
1558433876147860,-1,-1,0,2,5,7,1,0
1558433876147860,-3,-6,1,0,-1,-1,-3,-4
1558433876162820,2,6,13,7,-5,-3,-2,0
1558433876162820,1,8,0,-4,-10,-10,-5,-3
1558433876170798,2,-2,-8,-9,-9,-5,-4,-1
1558433876170798,4,3,-4,2,9,8,7,3
1558433876186756,-9,-11,2,2,12,4,1,1
1558433876186756,-2,-6,1,3,0,-1,1,-1
1558433876186756,1,3,0,-1,-7,-6,-4,-1
1558433876186756,2,1,0,-5,-6,-4,-5,-2
1558433876199721,-6,0,-6,-6,-12,-7,-4,-6
1558433876199721,-3,-12,0,0,-4,-1,-1,1
1558433876207700,3,4,2,5,10,4,4,3
1558433876207700,2,-1,1,2,2,3,-1,1
1558433876222660,3,8,-2,-2,0,-1,1,-2
1558433876222660,0,3,5,-1,-5,-3,-3,-2
1558433876230640,-2,-11,-8,-4,1,0,0,1
1558433876230640,-2,0,-7,-4,0,-2,-2,0
1558433876245598,-1,-8,-1,-3,-12,-8,-6,-3
1558433876245598,0,-1,-2,1,3,2,2,0
1558433876246595,2,7,4,3,8,2,4,2
1558433876246595,-4,-3,0,-1,0,3,1,0
1558433876259560,2,-2,1,2,0,1,0,1
1558433876259560,4,0,-4,1,-1,-3,-3,0
1558433876267540,-1,-3,0,-4,-6,-3,-2,-1
1558433876267540,-7,-1,2,-1,-5,-6,-3,-2
1558433876282499,-2,-3,-4,-3,-8,-4,-3,-3
1558433876282499,-10,-11,-3,1,7,1,3,-1
1558433876290477,0,6,-8,-3,-2,-2,1,-1
1558433876290477,-5,-3,-1,2,1,-2,-2,-3
1558433876305437,5,8,0,0,1,1,1,0
1558433876305437,3,2,4,2,-1,1,-1,-1
1558433876306434,0,5,6,2,-4,-2,-1,2
1558433876306434,-2,-7,-4,-3,-7,-7,-5,-4
1558433876320399,-6,-13,-1,-3,-6,-5,-3,-1
1558433876320399,2,3,2,3,8,8,7,2
1558433876327380,2,-3,1,1,13,11,2,-2
1558433876327380,-5,0,-5,-3,-4,-3,-3,-2
1558433876342344,-2,0,-2,-2,-3,-3,-4,-3
1558433876342344,-6,0,-1,-3,-9,-7,-4,-4
1558433876350440,7,4,2,0,-1,-1,3,2
1558433876350440,-9,-7,4,4,7,2,0,-1
1558433876366356,3,4,3,-1,-5,-5,-2,1
1558433876366356,-6,-6,-9,-4,-6,-4,-4,0
1558433876366356,7,8,-1,-2,-3,1,-3,-3
1558433876366356,2,-7,-2,-1,5,-3,-1,1
1558433876380245,-4,-1,-5,-2,-4,-4,1,-1
1558433876380245,-3,-4,2,-1,0,1,-2,-2
1558433876387223,-5,-13,-1,0,4,2,-2,-3
1558433876387223,3,-2,0,-2,-2,-1,-1,-1
1558433876402181,-1,4,-6,0,-2,-1,1,-2
1558433876402181,3,4,5,2,5,1,2,1
1558433876410159,-5,-6,-3,2,3,3,1,0
1558433876410159,0,3,-2,-5,-3,0,-1,-3
1558433876426116,-3,-4,-1,-2,-4,-3,-3,-4
1558433876426116,-2,-5,-5,-4,-10,-8,-4,-5
1558433876426116,-2,1,0,1,-4,-5,1,1
1558433876426116,7,13,7,5,9,7,4,2
1558433876440077,-12,-14,3,0,5,3,0,1
1558433876440077,3,4,-7,-5,-4,-5,-6,-3
1558433876448056,-16,-8,-4,-6,-9,-7,-3,-6
1558433876448056,3,0,-2,-2,-3,-1,-1,-2
1558433876463016,8,12,5,2,8,5,1,1
1558433876463016,-5,-4,-7,-1,1,3,-1,0
1558433876469998,3,-6,-6,-5,-8,-10,-5,0
1558433876469998,1,9,-5,-2,-2,0,0,-1
1558433876485957,-2,-13,-1,-1,4,3,-1,-2
1558433876485957,0,-4,2,0,-1,2,2,-2
1558433876486958,2,-3,1,-1,-3,0,-2,-1
1558433876486958,-3,1,-4,-4,-8,-8,-5,-3
1558433876499919,4,6,1,-1,-3,-3,2,3
1558433876499919,2,0,3,3,9,7,3,0
1558433876507956,-3,-2,5,3,7,3,2,2
1558433876507956,-1,-4,-5,-3,-2,-1,-1,0
1558433876522857,1,0,-10,-7,-8,-6,-2,-1
1558433876522857,2,6,3,-3,-8,-6,-2,1
1558433876529837,-3,-5,2,1,4,2,0,-4
1558433876529837,6,7,-1,-1,-2,-4,-4,-3
1558433876544797,-3,0,4,-1,0,1,3,1
1558433876544797,-2,-3,5,3,0,-3,0,0
1558433876553775,-5,-5,-12,-7,-4,-2,-5,-5
1558433876553775,-2,-8,-9,-1,5,3,2,1
1558433876559792,4,4,1,1,-2,0,-1,1
1558433876559792,-1,2,3,0,-6,-3,0,-1
1558433876567737,3,4,2,2,3,4,-1,-1
1558433876567737,-2,-2,0,-2,3,2,0,-1
1558433876582746,3,12,5,1,-1,0,-2,-1
1558433876582746,-4,-24,-3,-6,-6,-5,-6,-2
1558433876590702,-4,-2,-17,-4,-10,-11,-4,-1
1558433876590702,2,-5,4,4,13,5,5,5
1558433876604664,4,6,3,2,12,9,3,1
1558433876604664,1,8,6,2,0,1,2,1
1558433876613613,-6,-2,2,-5,-9,-6,-6,-6
1558433876613613,-3,-4,-1,-4,-9,-6,-4,-2
1558433876620620,3,2,-1,-2,-3,-4,-3,0
1558433876620620,-3,-1,-4,-3,-2,1,-3,0
1558433876627578,-3,-6,3,1,-4,-2,-4,-1
1558433876627578,-6,-13,-9,-3,-5,-2,1,-2
1558433876642536,1,-7,3,4,3,1,3,4
1558433876642536,5,10,-5,1,9,4,1,0
1558433876650516,1,3,4,0,2,0,1,0
1558433876650516,-3,4,0,-1,-6,-4,-4,-4
1558433876674450,-4,-5,-3,-3,-8,-7,-6,-5
1558433876674450,-1,-1,-4,-3,-1,-2,-1,-2
1558433876674450,-2,0,5,2,5,5,3,1
1558433876674450,2,1,-5,-4,-3,0,-5,-1
1558433876680434,-9,-15,-6,-4,-10,-5,-7,-9
1558433876680434,-2,2,2,0,-8,-4,-3,-2
1558433876687417,9,14,9,8,19,6,9,6
1558433876687417,2,-4,-1,3,7,8,4,3
1558433876702375,-3,-1,-2,-3,-2,-1,-1,0
1558433876702375,-2,-1,-7,-5,-7,-7,-6,-2
1558433876710387,5,10,-5,-6,-13,-8,-5,-4
1558433876710387,-13,-19,0,-2,-3,-4,-4,-3
1558433876725316,2,7,-2,-1,1,-2,-2,-1
1558433876725316,-1,-1,-2,-2,-6,0,-4,-4
1558433876733292,-9,-17,-4,-4,-10,-5,-4,-4
1558433876733292,3,7,7,8,10,4,6,4
1558433876748633,1,-6,3,1,11,10,2,2
1558433876748633,-1,2,-4,-1,9,8,4,4
1558433876749254,5,7,1,-2,-5,-6,-4,-2
1558433876749254,-5,-6,-8,-9,-10,-9,-5,-6
1558433876771216,-3,-2,-5,-4,-8,-5,-1,-4
1558433876771216,0,1,5,3,2,-3,0,0
1558433876771216,-2,-1,-5,-4,-2,-1,-3,-1
1558433876771216,5,6,4,2,-5,-4,-3,0
1558433876785482,-10,-18,-7,1,9,6,4,0
1558433876785482,2,3,4,2,7,6,2,0
1558433876793197,-3,-12,-2,-2,-4,-3,0,-1
1558433876793197,1,10,-1,-2,-3,-3,-2,-1
1558433876808411,-1,-3,0,-2,-4,-2,-4,0
1558433876808411,8,11,4,3,1,1,2,-1
1558433876809095,-6,-11,-12,-4,-7,-4,-4,-4
1558433876809095,-2,1,-5,-8,-15,-10,-4,-4
1558433876823358,1,-2,-1,-1,9,4,2,5
1558433876823358,6,12,6,6,25,13,6,6
1558433876830037,1,-5,1,2,1,2,1,3
1558433876830037,-3,-1,5,2,-1,-2,-2,-2
1558433876844995,-2,2,-5,-5,-14,-10,-5,-6
1558433876844995,-5,-9,-4,-4,-11,-11,-5,-3
1558433876852974,1,6,3,0,2,1,0,0
1558433876852974,-1,-5,-6,-5,-9,-1,-2,-1
1558433876869101,-2,5,-1,2,5,0,-1,-2
1558433876869101,0,0,-2,2,12,8,3,0
1558433876869101,-6,-5,1,1,1,0,-2,-3
1558433876869101,1,-1,2,-1,-8,-7,-2,-2
1558433876883204,2,-1,-4,-1,-4,-6,-2,1
1558433876883204,-1,-1,2,1,-4,-3,-1,0
1558433876890197,-1,-1,2,-1,0,0,-2,-1
1558433876890197,0,-1,-2,-2,-3,-2,-4,-2
1558433876905833,-1,1,-10,-10,-11,-7,-6,-4
1558433876905833,-8,-20,-9,-4,-5,0,-2,-2
1558433876913972,5,6,6,8,21,13,8,6
1558433876913972,4,9,8,6,11,9,4,4
1558433876927813,-3,-2,3,1,-1,-2,1,-1
1558433876927813,-3,-5,-2,-6,-15,-13,-6,-6
1558433876928772,1,-1,-3,-4,-8,-4,-5,-2
1558433876928772,-2,-3,1,1,4,3,2,-2
1558433876942763,6,7,-7,-5,-7,-4,-5,-2
1558433876942763,-15,-20,-7,-7,-8,-6,-2,-3
1558433876949748,3,8,0,2,4,3,3,2
1558433876949748,-2,-2,4,2,8,5,1,1
1558433876964707,-1,6,11,6,3,3,1,-2
1558433876964707,4,3,-4,-1,-4,-5,-2,0
1558433876973680,-6,-11,-5,-4,-9,-5,-3,-2
1558433876973680,-1,6,0,-3,-5,-3,-4,-3
1558433876988612,-10,-15,-11,-7,-3,-4,-4,-4
1558433876988612,0,-3,0,-3,-6,0,-2,-1
1558433876988612,3,9,-1,1,7,4,1,-1
1558433876988612,3,4,3,7,10,6,5,3
1558433877010582,5,2,7,5,6,2,2,3
1558433877010582,-13,-6,1,-1,-5,-6,-1,-2
1558433877011549,-4,-4,-6,-6,-14,-9,-6,-5
1558433877011549,-1,-3,0,-1,-3,-5,-2,-3
1558433877025515,1,0,-3,1,7,5,4,2
1558433877025515,0,1,1,-2,0,1,1,2
1558433877033492,3,5,-1,-1,6,7,4,1
1558433877033492,-5,-9,-8,-5,-1,-2,-2,-2
1558433877048451,-2,4,3,2,-1,-3,-3,-1
1558433877048451,3,6,0,0,-4,-1,0,-1
1558433877048451,-3,0,0,-2,-6,-5,-2,-3
1558433877048451,-5,-14,-10,-3,-3,-3,-2,1
1558433877062480,4,5,4,3,5,7,3,0
1558433877062480,-2,-10,-7,0,6,1,-2,-1
1558433877070391,-4,0,0,1,0,-3,-4,-2
1558433877070391,2,8,4,1,-5,-4,-1,-2
1558433877085352,0,1,8,-1,0,1,2,3
1558433877085352,2,-6,-11,-6,-1,2,-3,-2
1558433877093360,-3,-5,-5,-4,-7,-6,-1,-2
1558433877093360,-13,-16,-8,-2,-2,-2,-5,-5
1558433877108293,-1,0,4,3,3,3,0,0
1558433877108293,3,10,10,2,4,2,1,0
1558433877109289,1,-1,-2,0,2,-2,0,1
1558433877109289,1,3,-2,-5,-8,-3,-1,0
1558433877124248,1,5,0,-1,0,0,-2,-2
1558433877124248,-5,-4,-3,1,-1,-1,-2,-1
1558433877130260,0,0,-2,-5,-9,-7,-2,-3
1558433877130260,1,8,-1,-3,0,2,0,0
1558433877145302,2,-8,-4,-1,-2,-3,1,1
1558433877145302,-4,-3,1,2,7,4,1,-1
1558433877153171,1,-1,1,1,1,2,-1,0
1558433877153171,5,-1,4,1,1,4,2,1
1558433877168318,-8,-4,-5,-3,-10,-4,-6,-6
1558433877168318,2,3,5,1,-1,-1,0,0
1558433877169128,-7,-16,-13,-5,-3,-5,-3,-2
1558433877169128,3,0,0,0,2,0,-2,-2
1558433877183123,-2,5,-7,-9,-4,-2,-2,-2
1558433877183123,0,1,3,4,-3,3,2,1
1558433877190151,1,5,7,7,13,8,3,2
1558433877190151,-1,-7,2,1,1,-2,0,-1
1558433877205119,-7,-11,-2,-3,-5,-4,-2,-3
1558433877205119,5,9,-1,-3,-8,-7,-4,-2
1558433877213098,-11,-11,-3,-4,-9,-4,-1,-1
1558433877213098,2,4,-3,3,4,3,3,2
1558433877228190,2,-4,0,0,6,2,0,1
1558433877228190,3,3,-3,-1,-1,0,1,1
1558433877229107,1,-5,0,-1,-3,-1,-1,-1
1558433877229107,-3,-1,2,-2,-3,-4,-2,-3
1558433877242074,-1,-5,-4,-1,-2,-1,0,2
1558433877242074,0,3,0,-2,-2,-1,-3,-2
1558433877250051,2,8,3,0,-1,-1,1,5
1558433877250051,3,1,4,0,8,6,2,-1
1558433877265014,-7,2,0,2,4,2,0,-1
1558433877265014,-6,-11,-16,-7,-6,-4,-5,-4
1558433877272994,4,5,1,-1,-3,-1,-1,-1
1558433877272994,-1,-1,3,-1,-13,-11,-6,-2
1558433877287949,0,-1,-3,-3,-3,-2,0,-1
1558433877287949,3,6,11,2,4,1,2,1
1558433877288947,1,3,-5,-2,5,3,0,-1
1558433877288947,-2,-11,-8,-2,1,2,0,-1
1558433877302910,-9,0,-4,-3,-1,-1,-1,-2
1558433877302910,-3,-3,-1,-2,-6,-7,-4,0
1558433877310102,-3,-8,3,0,-6,-4,-2,-2
1558433877310102,3,4,1,0,0,-5,-3,0
1558433877325063,6,5,3,0,-3,0,0,0
1558433877325063,1,-5,-3,0,5,3,3,2
1558433877333042,-4,1,0,4,5,3,0,-1
1558433877333042,-6,-4,-5,-3,2,0,-2,-2
1558433877347881,-3,-6,-3,-4,-9,-6,-2,-3
1558433877347881,-1,-1,-3,-2,2,3,-1,0
1558433877348796,3,3,5,1,1,1,-3,-2
1558433877348796,4,6,-2,-4,-9,-3,1,0
1558433877362837,-3,-7,1,2,4,-4,1,-1
1558433877362837,-2,-6,4,2,0,1,1,-1
1558433877369730,0,2,-3,-1,1,1,-2,-2
1558433877369730,0,5,-2,-1,-1,-1,-3,-1
1558433877384727,-2,-9,-2,-4,-7,-3,-2,-2
1558433877384727,-11,-8,-8,-6,-9,-10,-6,-4
1558433877393700,4,6,4,2,4,0,4,3
1558433877393700,-4,-5,-2,2,6,6,0,-2
1558433877408662,1,-3,3,0,0,3,1,3
1558433877408662,-2,2,0,-1,-1,2,3,-1
1558433877408662,-2,-3,-4,-6,-6,-6,-6,-3
1558433877408662,-3,-5,5,1,-2,-1,-1,1
1558433877422591,0,0,-8,-3,-1,-6,-1,-1
1558433877422591,2,-1,0,1,1,3,-1,-3
1558433877429611,0,5,1,-2,-1,-1,3,1
1558433877429611,1,-3,-1,1,8,3,3,2
1558433877445563,-5,0,1,1,-6,-7,-6,0
1558433877445563,2,5,-1,1,1,1,-1,1
1558433877453508,-2,-7,2,3,5,4,1,-2
1558433877453508,-2,0,-7,-4,-7,-6,0,2
1558433877467561,2,1,1,-2,-7,-3,-4,-2
1558433877467561,3,1,-2,-4,-1,-1,2,0
1558433877475537,-13,-17,-12,-2,0,0,-1,-3
1558433877475537,0,2,5,2,5,4,0,-2
1558433877490473,1,5,2,1,3,0,0,-1
1558433877490473,2,2,3,2,-2,-4,-3,0
1558433877491404,3,6,-6,-4,-8,-4,-5,-2
1558433877491404,-5,-4,-1,-5,-10,-7,-4,-2
1558433877505368,-4,-11,-5,-3,5,4,0,0
1558433877505368,5,11,5,6,10,12,7,4
1558433877513449,4,1,3,1,5,3,3,5
1558433877513449,-7,-1,-4,0,-1,-5,-8,-6
1558433877527412,7,7,2,0,-1,0,1,-2
1558433877527412,-4,-6,1,0,-2,-4,-4,-3
1558433877535396,8,0,0,-2,-10,-9,-4,0
1558433877535396,-19,-13,-10,-10,-12,-5,-3,-8
1558433877551288,-8,-17,-3,0,3,1,-1,-1
1558433877551288,5,4,0,3,8,4,4,2
1558433877551288,-4,4,2,0,4,3,5,1
1558433877551288,5,0,5,0,-1,-3,-1,2
1558433877565319,1,1,0,-2,-13,-9,-3,-3
1558433877565319,-3,2,-7,-7,-13,-8,-5,-4
1558433877573290,-4,-10,-3,-1,5,3,-1,0
1558433877573290,1,0,-5,-1,4,8,3,0
1558433877587149,-1,5,-1,0,3,3,2,0
1558433877587149,-1,-2,-1,-6,-4,-5,-4,-2
1558433877596228,1,6,1,-2,-5,-4,-2,-1
1558433877596228,1,0,0,1,0,-1,0,1
1558433877602170,-1,-4,-3,1,4,5,1,1
1558433877602170,0,3,-2,0,1,-1,-2,-2
1558433877610160,-6,-15,-7,-7,-8,-3,-4,-3
1558433877610160,2,11,3,0,-5,-4,-1,-2
1558433877625090,-1,-3,-2,0,1,-1,1,2
1558433877625090,-1,-1,0,-1,0,-1,-1,1
1558433877633075,3,5,5,2,6,4,1,0
1558433877633075,-7,-5,0,-2,0,-1,-3,-2
1558433877648024,5,4,4,-2,0,-4,-3,0
1558433877648024,-11,-17,-10,-6,-10,-5,-4,-4
1558433877656009,-1,-2,-6,-1,1,-3,0,-1
1558433877656009,6,8,3,-1,3,0,0,0
1558433877670926,-2,-1,1,0,0,0,0,0
1558433877670926,0,6,3,1,4,6,2,0
1558433877670926,-5,-7,3,1,-2,-1,-4,-3
1558433877670926,0,-2,-2,0,-5,-3,1,-1
1558433877684938,-5,-3,-6,-4,-4,-4,-1,-3
1558433877684938,-3,-12,-8,-4,-6,-4,-3,-3
1558433877692866,-1,3,-3,1,8,3,-1,-1
1558433877692866,3,-2,-3,-2,-2,0,-2,-1
1558433877708023,3,4,5,-2,-5,-2,-2,-3
1558433877708023,0,5,-2,0,1,-3,2,1
1558433877716008,1,7,2,-2,-5,-2,1,0
1558433877716008,6,-1,-2,1,2,1,-1,0
1558433877730966,-8,-12,-5,-3,-2,0,-3,-6
1558433877730966,-8,-9,1,0,-5,-4,-5,-2
1558433877731762,0,3,1,2,-2,-1,0,1
1558433877731762,9,17,8,5,12,9,6,4
1558433877744923,0,-3,-13,-8,-3,0,0,0
1558433877744923,-1,1,-4,-1,0,-2,0,-1
1558433877753742,-2,-6,-1,-2,-9,-4,-2,-1
1558433877753742,-6,-1,3,-2,-8,-4,-5,-5
1558433877767667,2,0,8,2,-2,-1,2,1
1558433877767667,-1,1,-17,-2,7,5,2,-2
1558433877775799,-3,-3,-2,-3,2,0,2,-1
1558433877775799,-1,-3,-3,1,1,-1,1,-2
1558433877790708,-3,3,3,0,-2,-1,-3,1
1558433877790708,4,2,3,-1,-5,-5,-1,1
1558433877791603,-3,3,2,0,-6,-8,-4,-6
1558433877791603,0,-9,-3,-2,-1,1,5,6
1558433877804781,-11,-3,1,5,5,5,0,-4
1558433877804781,1,3,5,0,3,1,0,0
1558433877813686,3,6,-2,1,0,1,-2,-1
1558433877813686,-6,-7,0,-3,-5,-9,-4,-2
1558433877827786,5,2,-5,-3,-5,-4,0,1
1558433877827786,0,-1,3,-1,-6,-5,-3,-1
1558433877835747,-3,-3,3,2,1,2,0,1
1558433877835747,1,1,-8,-4,-1,3,0,-1
1558433877850729,-3,-5,0,2,5,3,3,-1
1558433877850729,0,3,-1,-2,1,0,3,1
1558433877851694,4,5,0,-3,-4,-6,-3,0
1558433877851694,-4,4,1,-2,-8,-4,-3,-3
1558433877864658,-6,-18,-9,-3,-1,-4,-2,-2
1558433877864658,0,0,1,-2,-1,1,0,-2
1558433877873634,0,-3,0,1,4,1,0,1
1558433877873634,-5,-6,-1,-1,-3,-1,-3,-2
1558433877887598,4,14,-1,-1,2,4,3,3
1558433877887598,-1,-3,2,-2,-4,-5,-4,-2
1558433877895588,-1,-3,-4,-3,-6,-4,-1,-2
1558433877895588,11,5,4,3,10,7,2,1
1558433877910535,-4,1,3,4,4,-3,-2,-1
1558433877910535,-6,-11,-7,-3,-3,1,-1,-1
1558433877911535,3,4,-8,-9,-9,-7,-6,-4
1558433877911535,-6,-9,-8,-7,-11,-7,-6,-3
1558433877925581,4,5,6,4,6,4,-1,0
1558433877925581,0,-7,0,4,8,4,3,1
1558433877933639,-2,-5,-7,-3,5,1,2,1
1558433877933639,-3,-4,-5,-3,-1,0,-4,-4
1558433877947529,2,7,2,-2,-7,-3,0,2
1558433877947529,-2,1,3,2,-2,-1,-1,-3
1558433877955503,-1,-4,1,2,1,2,-1,-3
1558433877955503,-2,2,-1,-1,1,3,2,1
1558433877970436,-4,0,-4,-1,5,-1,-4,-3
1558433877970436,4,-7,-1,-2,-3,-3,-1,-1
1558433877971374,-2,1,-1,0,1,1,1,0
1558433877971374,-5,-8,4,7,4,-1,-3,0
1558433877985368,3,0,-7,-5,-4,-1,0,0
1558433877985368,-1,3,-1,-2,-6,-3,-4,-3
1558433877992349,-3,-2,1,-3,-3,-4,-3,-1
1558433877992349,-4,-5,-6,-4,-4,-3,0,0
1558433878007401,3,-2,2,0,1,2,1,4
1558433878007401,-2,1,1,0,5,2,0,0
1558433878015386,-3,-6,-1,1,-1,-1,-1,-2
1558433878015386,5,2,8,3,0,-1,1,2
1558433878030344,4,4,-10,-7,-7,-4,-2,0
1558433878030344,-15,-9,-4,-3,-6,-3,-3,-3
1558433878031296,-1,-2,-3,-1,-4,-1,-2,-3
1558433878031296,-2,-5,0,-1,-2,-4,0,-2
1558433878045307,2,1,-2,-1,-1,-1,2,1
1558433878045307,3,2,-2,-1,6,4,4,0
1558433878053237,-4,-7,0,-1,-2,-3,-5,-3
1558433878053237,0,4,-3,-1,-5,-5,-2,-3
1558433878067203,-1,-2,6,4,2,2,2,1
1558433878067203,4,3,2,1,1,0,1,1
1558433878076183,3,3,-5,-2,2,4,6,4
1558433878076183,-5,-9,-3,-5,-4,0,-5,-3
1558433878091164,-3,0,3,-2,-4,-7,-4,-4
1558433878091164,0,3,-4,-1,-6,-4,-3,0
1558433878091164,-2,-5,5,6,8,8,3,2
1558433878091164,2,4,-4,-1,2,1,0,3
1558433878106095,0,3,3,0,0,0,-2,-1
1558433878106095,4,8,1,-3,-4,-5,-5,-1
1558433878113258,-12,-11,-6,-6,-8,-3,0,-3
1558433878113258,-4,-17,-2,1,-3,-2,-1,-2
1558433878128116,-12,-14,-3,-1,-2,-4,-3,-3
1558433878128116,4,4,2,0,4,2,1,-1
1558433878136015,2,6,5,2,0,-5,-2,0
1558433878136015,-4,-1,-14,-5,3,3,2,0
1558433878151188,3,4,5,2,-1,-1,-3,-2
1558433878151188,1,0,3,1,-1,-3,0,0
1558433878151188,-4,-2,-13,-6,-3,-1,-1,-5
1558433878151188,2,2,6,3,2,3,2,2
1558433878165154,2,0,-2,-1,-3,-2,-3,0
1558433878165154,-11,-12,3,1,-2,-3,1,-2
1558433878173128,1,-3,-1,0,-4,-5,-6,-3
1558433878173128,1,4,0,0,-2,-4,-1,0
1558433878188092,2,-1,-4,-3,-1,0,0,0
1558433878188092,-3,-1,-4,-1,-2,-1,-2,0
1558433878196071,2,4,3,3,3,1,1,0
1558433878196071,-3,-1,4,0,-1,-2,-1,-3
1558433878210895,4,7,2,4,2,3,1,0
1558433878210895,-11,-12,-3,-4,-6,-5,-3,-2
1558433878211870,1,-1,-2,-2,-5,-4,-3,-2
1558433878211870,2,3,1,-2,0,-1,-4,1
1558433878224809,-1,-4,-7,-2,-4,-7,0,1
1558433878224809,3,0,-4,0,5,7,2,-1
1558433878233756,-3,-1,2,2,7,8,4,1
1558433878233756,3,11,8,1,2,-1,0,1
1558433878247718,-14,-13,-6,-2,-2,-1,-3,-6
1558433878247718,-1,-4,-8,-8,-9,-8,-4,-2
1558433878255701,0,0,5,0,-2,-2,-1,2
1558433878255701,2,0,-3,1,5,5,2,0
1558433878270657,5,6,2,1,3,2,1,1
1558433878270657,1,2,2,2,1,-4,-3,-1
1558433878271654,-4,-3,-7,-6,-5,-4,-2,-4
1558433878271654,-3,-3,-3,-5,-13,-9,-4,-3
1558433878284649,-3,-2,0,0,3,3,-2,0
1558433878284649,2,0,1,3,4,4,3,2
1558433878292696,0,2,2,2,3,1,0,2
1558433878292696,-3,-3,2,2,1,1,1,0
1558433878307557,-1,0,-6,-3,-4,-2,0,-2
1558433878307557,0,-2,-2,0,-2,-2,-3,-2
1558433878315534,3,7,4,0,-2,-4,-2,-1
1558433878315534,-13,-16,-10,-3,-2,-2,-5,-6
1558433878330494,0,-4,-3,-5,-6,-4,-3,-1
1558433878330494,2,8,-2,1,4,7,6,2
1558433878331492,5,3,0,0,2,1,0,-1
1558433878331492,3,-1,-2,0,2,0,0,1
1558433878345454,-9,-8,-3,-4,-4,-5,-3,-3
1558433878345454,-1,-4,4,0,3,-2,-1,0
1558433878352472,3,6,0,-1,-4,-2,-4,-6
1558433878352472,-8,-5,-3,-3,-5,-4,-3,-5
1558433878367507,2,3,1,-2,-4,-2,-2,-1
1558433878367507,0,-3,1,-1,0,-2,-2,-2
1558433878375485,-1,1,4,1,-2,-3,0,2
1558433878375485,3,4,-5,-3,1,2,0,2
1558433878390439,1,4,3,2,6,4,1,-2
1558433878390439,-2,0,-9,-4,-7,-7,-5,-3
1558433878391406,-1,-3,-1,-2,-1,-2,-1,0
1558433878391406,6,6,4,1,-1,1,3,2
1558433878405444,-10,-7,0,1,4,5,3,-2
1558433878405444,0,-10,-6,-3,1,2,0,0
1558433878412709,-4,-2,-3,-2,-3,-3,-3,-1
1558433878412709,1,4,-8,-5,-5,-5,0,0
1558433878427671,3,4,11,5,3,0,0,0
1558433878427671,-2,-6,-6,-2,-3,-3,-2,-5
1558433878435560,-2,2,-3,-3,0,1,2,0
1558433878435560,-2,-3,1,2,1,-4,-5,0
1558433878450599,-4,-5,-5,-5,-8,-6,-1,0
1558433878450599,2,0,2,0,-2,-4,-2,-1
1558433878458557,0,-1,-1,0,0,4,1,0
1558433878458557,3,3,4,1,2,3,-1,-1
1558433878465560,0,-2,4,2,2,3,0,-3
1558433878465560,-5,-5,-7,-3,-3,-4,-2,-3
1558433878472269,2,-2,-2,2,2,-2,-2,0
1558433878472269,0,5,-2,-1,-1,1,1,0
1558433878487226,-7,-4,-6,-3,-7,-7,-3,-2
1558433878487226,0,-1,4,1,5,9,3,1
1558433878496515,-1,-2,-1,-2,0,1,1,0
1558433878496515,-1,-5,6,0,-1,-1,0,-2
1558433878510462,-2,-9,-19,-10,-11,-6,-2,-1
1558433878510462,6,8,2,-2,-8,-5,-5,-5
1558433878518142,-15,-12,-2,1,4,2,0,-1
1558433878518142,-1,0,4,3,8,5,3,3
1558433878527190,4,0,-1,-1,2,2,2,2
1558433878527190,-2,2,-1,0,-5,-4,-2,-1
1558433878533350,2,6,-8,-3,-4,-6,-5,-1
1558433878533350,-6,-9,-6,-7,-7,-3,-4,-6
1558433878547373,-2,-5,10,5,3,1,-2,-1
1558433878547373,-4,-3,-6,-5,-1,-3,0,2
1558433878556362,2,2,1,0,-1,-1,-1,-1
1558433878556362,6,9,3,3,6,4,4,2
1558433878570004,-7,-2,0,2,1,1,-1,-2
1558433878570004,2,5,2,-2,-1,-4,-2,-2
1558433878579102,-8,-13,-8,-4,-5,-2,-2,-3
1558433878579102,-2,-5,-1,0,-2,-3,-1,-1
1558433878585279,4,-3,2,1,2,3,2,3
1558433878585279,-2,4,5,0,1,1,-2,1
1558433878592944,8,7,3,2,-1,0,-2,-1
1558433878592944,-13,-12,-15,-6,1,1,0,-2
1558433878617182,4,6,0,-1,-1,-2,-1,-1
1558433878617182,-5,-2,-3,-4,-5,-7,-3,-3
1558433878617182,0,-3,2,-1,-5,-4,0,-1
1558433878617182,2,2,6,3,4,2,-1,0
1558433878630160,2,2,2,0,-2,-2,-5,-3
1558433878630160,-1,-1,-2,3,3,4,1,0
1558433878637823,-4,-3,-5,-5,-1,-1,-1,-3
1558433878637823,6,9,-1,2,-1,-1,0,2
1558433878652782,-9,-14,-9,-6,-4,-4,-2,-3
1558433878652782,-3,-4,6,4,1,0,-3,-3
1558433878654781,-3,-7,0,-7,-8,-4,-2,1
1558433878654781,-1,0,-11,-5,-8,-7,-5,-4
1558433878668039,7,9,10,6,10,8,5,2
1558433878668039,1,3,-2,1,5,4,3,1
1558433878675721,-5,-13,-4,0,4,-1,0,-2
1558433878675721,0,1,-1,-5,-9,-6,-6,-4
1558433878689722,12,16,0,-2,-4,-7,-4,-1
1558433878689722,-4,-4,2,1,1,1,-2,-1
1558433878698999,-4,-6,-1,3,3,6,4,-1
1558433878698999,3,2,4,3,1,1,6,2
1558433878713970,2,0,-5,-3,0,2,-1,-2
1558433878713970,2,5,3,1,-4,-7,-3,-3
1558433878713970,1,5,-3,-4,-2,-1,-1,-3
1558433878713970,-5,-15,-10,-7,-7,-3,-3,-3
1558433878727903,-14,-7,-10,-4,-5,-5,-4,-5
1558433878727903,5,8,-1,0,5,0,3,2
1558433878735569,-4,-10,4,4,-4,-1,-2,-1
1558433878735569,2,3,7,2,6,0,-2,-1
1558433878750863,2,6,6,-1,-7,-5,-3,-3
1558433878750863,-2,-8,-15,-10,-4,3,0,0
1558433878758624,2,4,-5,-1,6,3,-1,-3
1558433878758624,0,1,3,1,-3,-2,-3,0
1558433878773787,-1,-1,0,-1,5,0,3,1
1558433878773787,1,-8,3,4,-1,-5,-2,-3
1558433878774689,3,5,6,1,-1,1,3,2
1558433878774689,-6,-9,-6,-4,-3,-1,-2,-2
1558433878788437,-1,4,-1,1,-3,-7,-1,1
1558433878788437,3,1,-5,-2,0,1,-1,2
1558433878795753,-5,-1,-1,-3,-2,0,-2,-2
1558433878795753,-5,-5,3,2,1,1,2,-1
1558433878810363,1,-6,-8,-4,-4,-6,-3,-1
1558433878810363,-1,3,2,1,2,2,0,-1
1558433878818687,1,1,-1,-4,-5,-4,-2,-1
1558433878818687,4,10,7,1,3,0,-1,-1
1558433878833302,-4,-9,1,-3,-6,0,-1,0
1558433878833302,-5,-3,-19,-12,-8,-3,-2,-2
1558433878834298,1,-10,0,0,1,-1,1,3
1558433878834298,0,0,3,4,5,3,2,0
1558433878848263,3,4,-2,-1,1,1,-4,-4
1558433878848263,-7,-5,8,2,-1,-3,-4,-3
1558433878856557,4,5,-2,-1,-2,1,2,2
1558433878856557,-7,-6,-5,-3,-4,-2,0,-1
1558433878870201,3,7,4,3,2,5,5,2
1558433878870201,-2,-4,-1,2,5,4,1,-1
1558433878878498,-2,-4,-4,-3,-5,-7,-3,-3
1558433878878498,6,5,2,-1,-2,-1,-3,0
1558433878893142,-3,-2,2,-2,-4,-4,-3,-1
1558433878893142,-3,0,-4,-4,-10,-6,-2,-4
1558433878894137,1,-3,-3,1,-2,-3,-2,-1
1558433878894137,5,11,3,1,5,1,1,0
1558433878907138,-2,-14,4,2,6,7,0,0
1558433878907138,-6,-8,-4,-1,-2,-1,-3,-3
1558433878916499,-1,1,-12,-7,-4,-1,-1,-3
1558433878916499,-2,-2,-6,-7,-11,-9,-1,-1
1558433878930432,-2,-2,-4,-3,1,-3,-1,-3
1558433878930432,3,-6,11,5,4,1,2,4
1558433878938416,5,7,5,5,5,5,1,0
1558433878938416,-19,-11,1,1,-1,0,-2,-3
1558433878952994,-2,0,-5,-3,-5,-3,-4,-2
1558433878952994,2,3,-3,-4,-6,-5,-3,-3
1558433878953977,0,2,1,1,8,4,-1,0
1558433878953977,-1,-5,6,2,-1,-3,-1,0
1558433878968292,3,11,-5,1,-1,1,-2,-1
1558433878968292,1,0,0,-1,-5,-2,-1,-1
1558433878976116,-2,-4,-6,-4,-6,-5,-1,-2
1558433878976116,-8,-10,-1,-3,-2,-1,0,-2
1558433878990884,-1,-2,6,4,3,0,-2,0
1558433878990884,1,2,-13,-6,2,2,0,-1
1558433878999040,2,8,7,5,10,7,3,3
1558433878999040,-1,-7,-7,-5,-7,-3,-4,-1
1558433879014047,-3,3,-2,-3,-7,-3,-1,-2
1558433879014047,-1,1,7,3,2,-2,0,-1
1558433879014047,-3,5,7,3,0,-1,-2,0
1558433879014047,7,-2,-9,-7,-7,-3,-3,0
1558433879028095,-6,-4,-7,-5,-3,-4,0,0
1558433879028095,3,-1,8,6,13,5,3,3
1558433879035791,-9,-8,-7,-4,0,-1,0,0
1558433879035791,6,4,2,0,1,2,2,-2
1558433879050721,3,3,0,-3,-4,0,-1,-3
1558433879050721,-4,-2,-6,-2,-5,-4,-4,-4
1558433879058985,-1,3,-3,-2,-2,-4,-2,-2
1558433879058985,3,8,4,4,4,-2,-3,1
1558433879073656,-6,-12,-17,-10,-4,-4,0,-1
1558433879073656,-3,0,3,0,2,0,0,0
1558433879073656,3,3,1,-2,-6,-3,-1,-2
1558433879073656,-3,-4,0,0,1,-1,0,1
1558433879087619,2,0,5,2,-2,-1,-1,0
1558433879087619,-2,0,-2,-2,-6,-2,-4,-2
1558433879095599,2,-1,-2,-3,-8,-3,-2,-2
1558433879095599,-7,-2,1,2,9,4,2,-1
1558433879109595,-1,0,-7,1,14,5,5,2
1558433879109595,1,-1,1,1,-3,-3,0,-1
1558433879118996,-3,2,3,-1,-4,-2,-3,0
1558433879118996,-4,-21,-8,-4,-15,-10,-7,-8
1558433879133499,-2,-5,2,-2,-3,-1,1,1
1558433879133499,3,9,9,4,7,4,0,2
1558433879134852,6,8,-5,-3,1,-2,-2,-2
1558433879134852,-10,-11,-3,0,2,2,1,0
1558433879147923,-6,-8,-15,-11,-5,-4,-3,-4
1558433879147923,-7,-9,-5,-5,-6,-5,-3,-1
1558433879156645,2,1,9,5,2,-3,-1,-1
1558433879156645,8,12,1,0,2,2,-2,1
1558433879170398,-2,-1,5,3,-4,-5,-3,-1
1558433879170398,-3,5,-6,-4,-2,3,0,-1
1558433879178828,-6,-19,-5,-3,-5,-3,-1,-1
1558433879178828,-5,-4,0,0,-1,0,0,-2
1558433879193337,4,12,4,4,9,8,4,1
1558433879193337,7,4,3,-2,-2,-6,-1,0
1558433879194371,-12,-13,-6,-4,-8,-8,-2,-2
1558433879194371,2,7,1,0,2,4,5,0
1558433879207700,2,-2,-4,-1,-2,0,-1,0
1558433879207700,3,5,3,0,0,0,-3,-1
1558433879216600,-5,-8,-6,-1,4,2,0,-1
1558433879216600,6,8,4,-4,-7,-4,-4,-3
1558433879230491,-4,0,5,-1,-3,-4,1,-3
1558433879230491,-10,-14,-3,0,2,2,2,-1
1558433879238471,4,-1,3,-2,5,3,-2,-1
1558433879238471,-10,-13,-7,-1,-2,-2,-2,-2
1558433879253177,2,-1,-4,-3,-4,-1,-2,-2
1558433879253177,4,3,-1,-1,-1,-6,3,5
1558433879254175,0,2,0,1,0,0,-2,-2
1558433879254175,5,10,4,3,5,2,1,2
1558433879268284,-4,-5,-1,-1,-2,-3,-2,-3
1558433879268284,-3,-4,-6,-5,-5,-3,-2,-4
1558433879276120,-2,-4,3,1,4,5,4,1
1558433879276120,-5,0,-5,-3,0,-3,-1,0
1558433879290108,-2,-3,7,2,0,0,4,0
1558433879290108,4,7,1,2,0,1,0,-1
1558433879298085,0,1,-6,-4,-3,-4,-4,-2
1558433879298085,1,-2,-7,-4,-7,-3,-4,-3
1558433879314442,0,3,7,4,3,2,0,-2
1558433879314442,-6,-11,-16,-5,-1,0,-2,-1
1558433879321031,1,3,0,-2,-6,-2,1,0
1558433879321031,1,0,1,-1,-2,-4,-3,0
1558433879327321,2,2,-1,0,5,6,0,2
1558433879327321,1,-1,2,1,5,7,2,-1
1558433879335956,0,5,2,1,-4,-7,-4,0
1558433879335956,-1,-19,-5,1,-1,0,0,-3
1558433879349957,-2,-1,-6,-4,0,-1,-2,-1
1558433879349957,-10,-10,0,-4,-7,-5,-2,-3
1558433879357895,1,-1,-4,-3,-5,0,0,2
1558433879357895,2,12,9,2,7,4,2,2
1558433879372855,8,4,5,5,4,5,-1,-1
1558433879372855,-12,-13,-2,-1,-1,1,0,0
1558433879380835,0,9,-3,-1,-5,-4,-3,-2
1558433879380835,0,-6,0,-3,-5,-4,2,1
1558433879387816,-8,-12,-6,-4,-6,-5,-3,-3
1558433879387816,8,9,1,0,2,0,0,0
1558433879396232,-2,-2,3,2,-1,-2,-4,-3
1558433879396232,2,7,-6,-3,-6,-4,-2,0
1558433879409994,0,2,-3,-4,-1,-1,0,0
1558433879409994,1,-4,10,3,0,-2,0,-2
1558433879418989,-4,5,3,3,11,6,1,0
1558433879418989,0,4,-12,-5,1,1,-1,-2
1558433879433137,-6,-19,-2,0,-8,-8,-3,-3
1558433879433137,1,2,-2,-4,-6,-2,-2,0
1558433879440677,-1,0,1,1,0,-3,0,1
1558433879440677,3,2,5,4,9,0,1,3
1558433879448120,-1,-1,-2,-2,1,2,0,-1
1558433879448120,-1,1,-1,0,-2,2,2,0
1558433879455978,3,1,0,-3,-4,-2,-1,-3
1558433879455978,-2,-5,-2,-4,-8,-2,-1,-3
1558433879469599,-8,-4,-7,0,-6,-7,-5,-2
1558433879469599,3,9,6,1,6,1,2,2
1558433879478884,-1,-9,-10,-3,-2,2,3,-1
1558433879478884,3,4,2,-1,5,5,1,-1
1558433879492538,0,-4,4,-3,-1,-3,0,0
1558433879492538,-2,-4,-7,-4,-9,-6,-5,-1
1558433879500820,2,0,-4,-3,-1,-2,-3,0
1558433879500820,-6,-5,0,-1,3,0,-2,-4
1558433879507495,0,4,5,1,0,1,0,1
1558433879507495,-2,-1,-2,0,1,-1,-1,0
1558433879516472,1,7,4,0,-1,-5,2,1
1558433879516472,1,-2,-3,-2,-1,1,0,-2
1558433879530433,-4,-6,-3,-3,-5,-2,-1,-1
1558433879530433,-3,-8,1,-1,-4,-3,-4,-3
1558433879538892,-4,-9,-6,-1,2,5,1,1
1558433879538892,-3,-1,-2,2,-2,-3,-1,0
1558433879552402,3,7,1,0,4,4,0,1
1558433879552402,-2,-3,-1,-3,-2,-6,-4,-2
1558433879561562,6,5,6,0,-8,-7,-4,-3
1558433879561562,-5,-5,-2,0,0,-1,-1,-1
1558433879576312,-7,-3,2,1,4,2,3,0
1558433879576312,2,6,1,0,2,5,3,2
1558433879577309,-10,-14,-12,-3,9,6,0,-4
1558433879577309,3,-4,-3,-2,-11,-9,-7,-4
1558433879590623,4,2,0,-2,-7,-9,-4,-4
1558433879590623,3,7,1,0,2,4,2,2
1558433879599596,-4,0,4,3,6,7,3,2
1558433879599596,-1,-5,2,1,-2,-2,-1,0
1558433879613342,1,-4,-7,-5,-8,-5,-5,-3
1558433879613342,-2,-3,-7,-4,0,0,0,-2
1558433879621550,1,4,-2,-4,-2,-2,-2,-2
1558433879621550,-2,-1,-3,0,0,1,1,0
1558433879636151,2,3,3,2,3,2,-2,1
1558433879636151,-1,-4,3,0,-2,-4,-1,0
1558433879642138,2,3,4,-1,-5,-1,0,-1
1558433879642138,-11,0,1,-1,-3,-2,-2,-3
1558433879650115,0,-2,1,-2,-6,-7,-1,0
1558433879650115,-2,-2,-2,-1,1,2,0,-1
1558433879659092,-2,-3,-7,-3,2,0,2,1
1558433879659092,2,1,3,2,0,-1,0,1
1558433879672056,1,0,2,1,1,-2,1,1
1558433879672056,2,3,3,1,-9,-4,-5,-5
1558433879681058,-9,-10,-4,-1,-8,-5,-5,-4
1558433879681058,1,0,-4,-2,8,2,2,-1
1558433879695991,-6,-6,-10,-5,0,1,1,-1
1558433879695991,0,0,1,-1,-1,-5,-3,-1
1558433879702974,-3,-5,-4,-1,2,1,-2,-1
1558433879702974,-5,-7,4,0,-3,0,-3,1
1558433879709953,7,14,0,-3,-2,-2,-1,1
1558433879709953,-3,-3,-5,-1,2,-4,1,0
1558433879718930,0,-6,3,1,0,-4,-3,0
1558433879718930,-2,-1,-8,-4,0,-2,0,0
1558433879733313,8,5,1,1,2,3,-2,-1
1558433879733313,-16,-11,-2,-1,1,1,1,-2
1558433879740874,-1,-5,2,1,-5,-3,-2,0
1558433879740874,4,0,4,4,3,3,-1,-1
1558433879755107,-3,-6,-13,-6,-7,-4,-4,-2
1558433879755107,1,0,-6,-3,-4,-3,-2,-1
1558433879763823,0,3,3,0,2,1,0,-1
1558433879763823,0,0,0,-2,-3,-2,0,2
1558433879769796,-4,-3,1,2,5,6,2,-1
1558433879769796,0,1,-5,-3,2,2,1,-1
1558433879778776,4,4,5,0,-4,-3,-1,2
1558433879778776,-6,-9,-6,-4,-12,-7,-1,-3
1558433879792733,2,-1,-3,-2,-2,-2,-2,-1
1558433879792733,-7,-7,-2,1,7,3,1,-1
1558433879801708,3,2,4,2,4,7,4,0
1558433879801708,2,4,5,2,0,-3,-3,-1
1558433879814675,-1,0,2,0,-3,-4,-4,-2
1558433879814675,9,4,-2,-2,-6,-5,-4,-2
1558433879823649,0,5,-6,-7,-7,-5,-4,-4
1558433879823649,-7,-8,0,-1,2,3,1,-1
1558433879829926,-1,-9,-1,3,4,-1,2,1
1558433879829926,2,-1,8,2,1,1,-2,-1
1558433879838717,-1,-1,-13,-6,-5,-5,-2,-3
1558433879838717,4,9,1,0,-3,0,3,-1
1558433879852578,3,1,4,2,7,3,2,2
1558433879852578,-4,0,-3,-1,-2,-1,-4,-1
1558433879861550,-5,-5,1,-2,0,-1,-3,3
1558433879861550,0,0,-3,-4,-1,-4,-5,-4
1558433879874514,-2,0,-4,-1,-2,1,0,-3
1558433879874514,-1,0,1,1,-8,-5,0,1
1558433879883497,2,0,-3,-2,1,4,1,1
1558433879883497,-5,-5,-3,-4,-3,-2,-2,-2
1558433879889473,-1,3,4,2,5,4,0,0
1558433879889473,0,-6,2,4,4,5,2,2
1558433879898450,-2,1,3,-1,-6,-5,-1,0
1558433879898450,10,9,-2,-3,0,-1,-3,2
1558433879912412,-14,2,-4,-3,1,-7,-2,-5
1558433879912412,1,2,6,2,1,1,0,-1
1558433879921388,1,-2,0,-2,-1,-2,-1,-1
1558433879921388,-7,-7,-9,-3,-5,-1,-1,-2
1558433879935351,1,-4,2,1,0,3,-1,0
1558433879935351,4,10,1,0,4,3,0,1
1558433879944328,-5,-1,7,3,3,2,2,0
1558433879944328,2,5,-6,-3,-4,-4,-4,-4
1558433879950512,-2,-8,-6,-5,-7,-5,-3,-3
1558433879950512,-1,0,0,-5,-3,-4,0,0
1558433879959288,1,-2,-1,-1,-1,-2,-4,-2
1558433879959288,0,3,2,0,1,3,2,0
1558433879981586,-2,-4,0,1,-1,-3,-3,0
1558433879981586,-1,-7,-6,-6,-10,-7,-3,-2
1558433879982232,-10,-10,-12,-6,0,0,-1,0
1558433879982232,3,5,3,5,10,10,5,3
1558433879995193,-2,4,5,3,3,2,2,0
1558433879995193,7,1,5,4,-2,-5,-3,1
1558433880004183,1,4,-12,-7,-3,-4,-2,-2
1558433880004183,-1,-3,-4,-5,-1,-2,-1,0
1558433880010153,-1,-3,-4,-5,-8,0,-3,-2
1558433880010153,-5,1,2,4,7,6,1,-2
1558433880019134,-1,-3,7,5,1,-2,1,0
1558433880019134,2,2,2,-2,-6,-7,-5,-2
1558433880033099,2,-1,-2,-3,-7,-6,-1,-1
1558433880033099,-5,-7,-9,-6,-2,-3,-5,-6
1558433880041068,-4,5,0,-3,0,6,2,-2
1558433880041068,-2,-5,-2,1,2,1,2,0
1558433880055032,-3,-4,4,0,-4,-6,-3,1
1558433880055032,0,3,-4,-2,7,2,0,0
1558433880064008,-1,-5,2,1,-4,-1,-2,-2
1558433880064008,1,2,-7,-5,-3,-1,0,0
1558433880069997,0,6,3,4,4,4,3,-2
1558433880069997,-9,-11,-7,-4,-5,-2,0,-1
1558433880078968,4,4,3,-1,-2,-6,-6,-2
1558433880078968,-2,-7,2,1,2,2,-2,0
1558433880092930,5,8,1,-2,-1,-2,0,1
1558433880092930,2,-1,2,-2,-3,-2,1,-1
1558433880101906,-8,-14,-16,-6,-5,-3,-4,-5
1558433880101906,-2,-4,-3,-3,-8,-7,-2,-1
1558433880114872,1,4,3,1,4,2,-1,-3
1558433880114872,3,5,1,-4,-3,-2,-3,-2
1558433880123850,-1,1,2,0,0,-2,0,0
1558433880123850,0,-6,2,3,8,8,5,2
1558433880129832,-2,0,-1,-1,-4,-1,-1,-1
1558433880129832,-6,-7,-4,-1,0,-3,-2,-2
1558433880138807,4,0,0,4,7,3,1,-1
1558433880138807,0,9,1,-1,7,7,3,1
1558433880152772,-10,-16,0,1,-4,-3,-1,0
1558433880152772,-9,-10,-9,-7,-14,-5,-6,-6
1558433880161746,-2,-3,-9,-4,-7,-4,-3,-1
1558433880161746,0,-1,3,2,0,-5,-3,1
1558433880183848,3,-1,0,-1,8,5,2,1
1558433880183848,2,8,-5,-1,-3,-2,-1,-1
1558433880185682,1,-3,5,2,2,1,1,2
1558433880185682,-8,-5,4,1,-1,1,-1,-1
1558433880189672,2,2,0,-1,-4,-3,-1,-2
1558433880189672,0,-9,-12,-2,-2,-2,-2,-2
1558433880198646,2,2,-2,0,2,-3,4,2
1558433880198646,1,0,-2,0,3,2,-4,-1
1558433880212611,-1,1,-1,-2,-3,-1,-3,1
1558433880212611,7,14,9,1,-3,-1,-2,0
1558433880221585,-15,-17,2,-1,-4,-5,-1,-3
1558433880221585,-2,-11,-3,-3,-1,-3,0,-1
1558433880234810,-1,-2,-3,0,0,2,-3,-4
1558433880234810,1,-1,2,0,0,-4,1,3
1558433880243527,6,7,2,2,0,-4,-2,1
1558433880243527,-9,-2,-5,-5,-11,-6,-5,-6
1558433880249670,-2,-3,-4,-3,-7,-1,0,-3
1558433880249670,1,-1,1,4,15,6,7,3
1558433880258487,-1,4,7,4,-1,-2,-4,0
1558433880258487,4,2,-1,-2,0,-1,-2,0
1558433880272630,-1,3,-5,-5,-5,-3,-2,1
1558433880272630,-5,-5,-2,0,2,4,0,-2
1558433880281426,-5,-13,-10,-3,-8,-3,-6,-8
1558433880281426,3,8,2,3,9,4,2,3
1558433880295388,-5,0,0,2,4,3,0,-2
1558433880295388,-3,-8,3,3,0,-2,3,4
1558433880304374,4,9,3,-5,-16,-11,-9,-3
1558433880304374,-13,-17,-11,-8,-11,-12,-6,-5
1558433880310349,4,1,4,2,4,4,2,2
1558433880310349,0,10,2,-2,0,-4,-4,-4
1558433880319329,8,6,5,2,14,11,6,4
1558433880319329,-7,-3,-6,-3,-2,0,-2,-3
1558433880332289,-3,-6,-2,0,0,-5,0,-1
1558433880332289,-3,-10,-12,-5,-6,-3,-2,-3
1558433880341286,-4,0,5,1,-5,-3,-3,0
1558433880341286,6,10,-3,-4,-4,-2,-1,-1
1558433880355235,-4,-8,-7,-5,1,1,1,-1
1558433880355235,3,3,6,4,0,-2,-1,-1
1558433880364214,3,5,-1,1,6,6,5,2
1558433880364214,3,10,8,11,8,5,5,5
1558433880370189,1,1,-8,-8,-14,-6,-5,-5
1558433880370189,-4,-17,0,0,-1,-3,0,-1
1558433880379164,2,8,-7,-4,2,4,3,1
1558433880379164,-8,-9,0,-4,-6,-1,-5,-5
1558433880392299,3,11,6,2,4,3,1,-1
1558433880392299,2,11,-2,-3,-8,-1,-4,-2
1558433880401105,-4,-17,-3,2,1,-2,1,1
1558433880401105,-1,-1,-3,1,11,7,1,0
1558433880415085,0,2,3,3,-2,-5,-1,-1
1558433880415085,2,7,3,-1,3,0,-2,-2
1558433880424044,-6,-6,-4,-6,-4,-3,-1,-1
1558433880424044,-3,-10,-5,-1,-8,-10,-1,-2
1558433880430028,0,-3,6,3,-1,-2,-1,1
1558433880430028,0,1,-3,0,3,3,1,0
1558433880439004,-4,-4,-8,-11,-13,-5,-3,-3
1558433880439004,3,5,-1,-1,2,1,-2,-2
1558433880451969,2,-7,-3,1,5,1,0,-1
1558433880451969,-5,2,2,0,-9,-8,-3,-3
1558433880460944,0,-2,1,2,3,0,-4,-3
1558433880460944,5,4,3,2,3,7,7,5
1558433880474931,-5,-6,0,-5,-11,-8,-6,-2
1558433880474931,8,11,-2,2,9,3,6,3
1558433880483885,-4,0,-2,-2,6,1,-1,-1
1558433880483885,-9,-17,-3,-7,-11,-6,-8,-6
1558433880498845,8,9,0,6,12,6,8,4
1558433880498845,-4,-6,-10,-9,-11,-9,-7,-4
1558433880499845,3,6,4,2,-3,-1,2,0
1558433880499845,5,6,3,3,4,3,-1,2
1558433880512809,-2,-4,1,1,1,4,-3,-2
1558433880512809,-4,-8,-1,1,3,3,4,2
1558433880521783,-4,-6,-2,-3,-6,1,-6,-6
1558433880521783,4,5,1,-3,-9,-6,-2,-3
1558433880534748,0,8,-1,2,10,4,0,-1
1558433880534748,-1,-7,-5,-6,-5,-3,-1,0
1558433880543725,-5,4,-2,-1,3,4,2,-2
1558433880543725,-6,-4,1,-2,-12,-9,-2,-2
1558433880558684,-2,-8,-11,-7,-7,-10,-5,-2
1558433880558684,0,-2,-2,1,6,6,-1,0
1558433880560682,4,3,3,6,11,9,10,7
1558433880560682,0,4,-2,-4,-4,-4,-3,2
1558433880572665,-3,-1,-1,-3,-9,-7,-7,-8
1558433880572665,5,1,5,3,3,5,6,4
1558433880581624,-6,-7,-5,-3,-2,-6,-7,-4
1558433880581624,-3,6,9,4,2,0,2,-2
1558433880604567,-4,-10,-10,-1,9,5,2,4
1558433880604567,-6,-13,-7,-7,-10,-6,-7,-4
1558433880605561,3,-1,5,1,0,0,1,1
1558433880605561,5,6,-2,-4,-3,0,2,0
1558433880618530,-3,1,0,-2,-8,-2,-4,-3
1558433880618530,-4,-2,0,-2,-1,-2,-2,-2
1558433880620520,2,-3,-2,-4,-1,-5,-2,-1
1558433880620520,3,1,1,5,4,4,5,3
1558433880632486,1,0,-3,0,5,6,5,2
1558433880632486,-1,-4,-1,0,-2,1,-3,-3
1558433880641463,-2,-1,2,1,5,6,0,2
1558433880641463,1,-1,-1,-2,-4,-5,-5,-3
1558433880655425,-2,0,-4,-9,-13,-6,-2,2
1558433880655425,-6,-1,-1,-3,-10,-10,-7,-4
1558433880663404,6,-1,-3,1,9,8,2,-3
1558433880663404,0,-3,-5,-1,7,3,-1,-1
1558433880678365,1,4,1,0,-8,-7,-3,0
1558433880678365,-7,-6,-7,-8,-10,-4,-6,-4
1558433880680358,3,5,6,1,-1,1,2,3
1558433880680358,-1,-5,2,3,7,8,4,-2
1558433880692329,0,-1,4,0,-4,-11,-8,-3
1558433880692329,5,10,1,2,4,0,6,4
1558433880701303,-8,-14,-16,-8,-8,-5,-6,-6
1558433880701303,2,-1,-2,1,1,3,2,-1
1558433880715265,-3,-1,9,4,5,2,1,1
1558433880715265,-1,1,-1,-1,3,6,-2,-2
1558433880724241,-1,0,-1,0,-3,-4,3,2
1558433880724241,1,4,-1,-1,0,3,-3,3
1558433880739202,-2,-5,0,-2,3,8,2,-3
1558433880739202,-1,-2,2,0,0,-8,-7,-3
1558433880740198,1,4,5,1,-4,-4,-1,1
1558433880740198,-1,-6,-9,-7,-14,-9,-4,-5
1558433880761143,-6,-3,-2,3,3,5,2,-2
1558433880761143,3,3,1,-1,7,9,3,-1
1558433880763138,0,-3,-6,-4,-5,-5,-3,-2
1558433880763138,-2,1,3,0,6,-3,1,2
1558433880775105,-4,-6,-6,-4,-8,-3,-3,-2
1558433880775105,-2,-5,-1,-1,-4,-3,-4,-2
1558433880784082,3,12,2,1,-3,-1,0,-2
1558433880784082,-5,-13,-5,0,3,6,4,0
1558433880798045,4,-1,-3,-2,0,3,1,0
1558433880798045,-9,-9,0,-1,-3,-1,-2,-4
1558433880805025,1,5,5,3,2,-3,-2,1
1558433880805025,-4,-7,-9,-8,-11,-9,-4,-2
1558433880812007,1,-1,-1,1,7,-2,4,4
1558433880812007,1,4,0,-3,-6,-2,-6,-6
1558433880820982,-4,-7,1,0,1,2,-2,-2
1558433880820982,0,1,4,3,-1,-2,-2,-4
1558433880834949,3,5,-1,-3,-1,-2,-2,-3
1558433880834949,-1,0,1,3,2,2,3,6
1558433880843921,-3,-5,5,3,4,-3,1,2
1558433880843921,-5,-4,-14,-12,-16,-8,-11,-6
1558433880857890,1,1,0,2,4,3,1,2
1558433880857890,3,3,3,2,2,2,3,0
1558433880864865,-3,-7,-10,-5,-10,-4,-6,-4
1558433880864865,-2,0,7,6,8,2,4,3
1558433880872856,3,4,-1,-4,-1,-3,-1,-2
1558433880872856,0,0,-8,-1,6,9,5,2
1558433880881820,-2,-2,1,0,-1,-1,4,3
1558433880881820,-7,-9,0,-4,-1,2,-6,-5
1558433880894786,-3,3,-2,-3,-7,-6,-3,-1
1558433880894786,1,-9,3,1,-1,-8,0,0
1558433880903761,4,0,-4,-1,0,0,-3,-2
1558433880903761,4,3,2,7,10,2,5,5
1558433880918723,1,2,2,-4,-6,-1,-6,-7
1558433880918723,-11,-14,-5,-3,-14,-12,-4,-3
1558433880924707,3,5,-2,2,10,9,3,2
1558433880924707,-2,-2,5,2,0,-3,0,0
1558433880932685,0,2,2,-1,3,6,5,1
1558433880932685,4,9,2,-1,-3,-4,-6,-4
1558433880941660,-10,-18,-6,-7,-17,-12,-13,-10
1558433880941660,1,7,1,-4,2,3,1,-1
1558433880954627,-4,-11,-5,-1,1,-5,2,1
1558433880954627,4,9,2,0,0,-3,-2,0
1558433880963602,3,12,8,6,7,3,4,1
1558433880963602,-4,-6,-7,-1,4,7,3,-4
1558433880977564,-6,-10,-8,-8,-15,-9,-8,-3
1558433880977564,3,4,2,1,1,-5,3,2
1558433880986543,1,-1,3,5,8,6,2,0
1558433880986543,7,7,4,3,3,1,-1,3
1558433880992524,-8,0,-3,-8,-11,-5,-9,-6
1558433880992524,2,-2,-11,-3,4,8,3,1
1558433881001500,-2,-3,1,-3,2,2,3,0
1558433881001500,-1,-3,-1,-4,-13,-12,-9,-5
1558433881014466,3,1,2,6,5,1,1,2
1558433881014466,1,3,0,-2,3,8,-2,0
1558433881023441,-7,-10,-6,-7,-4,-4,1,-1
1558433881023441,-2,4,1,-5,-7,-8,-7,-4
1558433881037403,0,-7,-1,4,1,3,6,3
1558433881037403,2,0,2,2,4,2,2,-3
1558433881046382,1,8,-3,-2,6,3,1,-1
1558433881046382,-8,-13,-9,-13,-18,-13,-13,-10
1558433881052365,1,1,1,3,-6,-4,1,-1
1558433881052365,-2,-3,-1,0,17,14,8,7
1558433881061341,-1,6,-1,-2,-8,0,-1,-1
1558433881061341,5,4,4,5,12,9,7,4
1558433881075301,-6,-1,0,-2,0,-6,-1,0
1558433881075301,-1,-6,4,0,-19,-13,-10,-7
1558433881084281,4,0,-10,-9,-7,-6,-3,-5
1558433881084281,-1,2,4,4,7,3,7,7
1558433881097245,-4,-12,-5,-1,10,5,-7,-5
1558433881097245,-2,0,4,4,5,6,5,3
1558433881106221,3,3,1,0,-6,-4,-5,-2
1558433881106221,-1,-4,-2,-1,-10,-6,-5,-4
1558433881112205,-2,-1,-6,-3,2,0,3,2
1558433881112205,3,13,5,-2,-1,-5,-1,2
1558433881121179,-6,-7,-6,-7,-10,-9,-11,-6
1558433881121179,1,-3,-3,0,2,5,6,-1
1558433881135144,-4,-4,4,2,-1,-1,-3,-4
1558433881135144,-4,-6,-5,-1,8,10,7,4
1558433881144118,4,8,4,3,3,-3,3,4
1558433881144118,0,4,-2,-4,-11,-17,-11,-3
