timestamp,emg1,emg2,emg3,emg4,emg5,emg6,emg7,emg8
1558438330478773,-1,3,16,8,1,0,9,2
1558438330478773,-4,-4,-5,0,-8,-10,-11,-8
1558438330479772,-1,-4,-11,-7,-1,1,1,-1
1558438330479772,2,0,2,0,5,-1,5,5
1558438330479772,5,5,11,5,2,4,4,1
1558438330479772,3,11,8,1,2,0,-1,2
1558438330482763,-14,-27,-13,-5,-4,-6,-3,-5
1558438330482763,-5,-4,0,-2,-8,-2,-5,-5
1558438330491739,-5,-4,-29,-12,-5,-7,-8,-4
1558438330491739,3,-4,24,10,0,-2,3,3
1558438330498720,8,12,-8,0,0,1,5,5
1558438330498720,-4,-7,-22,-11,-8,-3,-11,-5
1558438330506699,4,9,10,1,0,6,-3,-3
1558438330506699,-5,-10,5,3,1,-1,-1,0
1558438330520661,-3,-2,-6,-4,-4,-2,-1,-4
1558438330520661,5,4,15,8,4,0,-1,4
1558438330531632,-8,-3,-9,-3,3,4,-1,0
1558438330531632,2,6,4,-2,-1,1,-5,-5
1558438330535621,-3,-4,4,-6,-1,-4,-2,1
1558438330535621,-1,4,4,3,0,-2,5,1
1558438330558559,5,0,8,4,3,0,0,0
1558438330558559,-6,-11,-24,-12,-4,3,2,0
1558438330559556,3,10,16,9,11,-3,5,5
1558438330559556,-8,-13,-31,-12,-11,-7,-9,-10
1558438330605434,-1,-8,-7,-3,-4,-3,-5,-3
1558438330605434,-1,-1,2,0,1,4,-3,-4
1558438330606431,-5,0,-7,-5,-2,1,4,-2
1558438330606431,7,4,11,3,7,5,0,5
1558438330606431,0,9,8,6,4,5,4,1
1558438330606431,3,-3,-6,-1,-2,0,-3,0
1558438330611418,1,1,-5,0,2,-5,0,2
1558438330611418,-6,1,8,0,-3,-2,-3,-4
1558438330626377,-3,-6,-10,-8,-8,-5,-3,-3
1558438330626377,0,2,6,2,6,-3,0,1
1558438330628372,1,4,13,8,1,1,-3,-4
1558438330628372,7,8,22,7,-3,-1,1,4
1558438330632363,-1,-3,-13,-12,-4,-4,-4,-1
1558438330632363,-19,-18,-8,-11,-3,3,8,-1
1558438330649317,2,1,-9,-6,-3,0,6,1
1558438330649317,-8,-10,-13,-5,-11,-12,-17,-11
1558438330655300,-1,3,30,13,7,11,0,-3
1558438330655300,1,-2,-24,-8,-4,-3,-5,-1
1558438330671257,-2,-5,-14,-7,-6,2,-1,0
1558438330671257,0,1,6,4,3,4,5,2
1558438330677241,0,4,-1,-2,-4,-7,-1,1
1558438330677241,1,-1,-3,2,1,-2,3,-1
1558438330686218,2,4,23,10,1,-8,-9,-4
1558438330686218,-7,-11,-26,-17,-10,-5,-1,-4
1558438330692202,0,0,10,7,4,4,1,2
1558438330692202,-2,-3,-18,-11,-1,-9,2,-1
1558438330709157,1,6,7,6,-5,1,-6,-3
1558438330709157,-8,-13,-18,-9,-10,-3,-3,-4
1558438330715141,1,-1,25,11,7,-5,-2,1
1558438330715141,0,-3,-23,-9,-6,-4,-2,0
1558438330731097,1,6,6,0,5,1,6,5
1558438330731097,-5,-11,-18,-4,2,0,3,-3
1558438330738079,-3,1,-4,-2,-7,-3,-5,-2
1558438330738079,3,8,25,9,1,3,-1,-1
1558438330746058,-5,-11,-17,-7,-8,-10,-15,-6
1558438330746058,-1,14,8,3,7,6,2,1
1558438330753041,2,-10,-9,4,7,1,14,5
1558438330753041,5,17,38,9,4,-4,-7,2
1558438330768996,-5,-4,-25,-9,1,1,6,1
1558438330768996,6,-1,-4,-3,-1,-1,-2,-1
1558438330774982,-5,-7,-15,-8,-2,1,-1,-2
1558438330774982,1,1,3,6,5,14,6,-1
1558438330791936,1,-1,17,4,-1,-1,-4,-1
1558438330791936,3,10,3,2,1,-9,0,3
1558438330797919,-5,1,-16,-11,-11,-6,-12,-6
1558438330797919,-2,-7,1,4,-4,-5,0,1
1558438330806895,0,0,2,0,8,1,12,4
1558438330806895,-2,-7,-12,-8,-4,1,0,-1
1558438330812880,2,5,8,4,5,2,2,-2
1558438330812880,1,2,2,-1,0,-6,-5,-1
1558438330828839,-2,7,30,7,-11,-2,1,-1
1558438330828839,-4,-5,-45,-15,-3,-4,-19,-7
1558438330834828,-3,-3,6,-2,2,5,6,-1
1558438330834828,-6,-9,-41,-15,-9,-4,-6,-4
1558438330851776,-1,-5,-5,0,4,2,1,2
1558438330851776,1,3,23,6,0,0,0,0
1558438330857762,-3,3,0,-9,-10,-8,-11,-5
1558438330857762,1,-1,9,6,4,4,0,1
1558438330866736,3,7,11,4,7,5,8,4
1558438330866736,3,4,24,15,5,3,7,4
1558438330872721,-3,-13,-39,-23,-8,-3,-4,-3
1558438330872721,-10,-4,-5,4,9,7,12,0
1558438330888676,-5,-11,-6,-10,-11,-13,-12,-6
1558438330888676,4,3,3,3,-1,-5,-8,1
1558438330895658,1,-4,-14,-4,-1,2,10,2
1558438330895658,2,10,17,-1,-1,1,2,-1
1558438330911615,-9,-20,-25,-3,-5,-5,-9,-9
1558438330911615,4,15,17,8,3,-2,9,1
1558438330917601,-6,-9,-12,-7,-5,0,-11,-3
1558438330917601,1,-8,7,2,-5,-5,1,-1
1558438330926575,0,8,1,1,2,-1,-2,2
1558438330926575,-6,-14,-3,-7,-10,-9,-7,-5
1558438330932560,0,5,-7,-3,-5,-8,-3,0
1558438330932560,2,12,20,6,2,4,3,2
1558438330949513,-5,-14,-20,-10,-4,-1,7,-1
1558438330949513,2,4,7,3,0,-2,-1,0
1558438330955497,-2,-1,4,5,0,-5,1,-2
1558438330955497,-5,-3,7,-2,0,4,-1,-3
1558438330970457,1,-2,-3,-9,-1,-11,-4,-2
1558438330970457,-4,-7,-18,-6,-4,5,7,0
1558438330977440,2,3,13,11,1,3,0,0
1558438330977440,6,11,23,2,-3,-7,-7,2
1558438330986415,-2,-5,-14,-6,-3,-2,-5,-2
1558438330986415,-4,-2,-1,-1,3,6,1,-2
1558438331000378,-3,-2,12,5,2,3,2,-3
1558438331000378,5,0,-4,1,-4,-4,6,4
1558438331009358,-13,-10,-10,-9,-7,-7,-12,-6
1558438331009358,0,-4,-9,-3,0,-3,-13,-5
1558438331015338,2,7,25,12,2,4,-6,0
1558438331015338,-2,-4,-21,-9,-4,3,-5,-2
1558438331038277,6,5,10,3,3,5,8,5
1558438331038277,-7,-6,-6,0,4,3,11,1
1558438331039273,-2,0,3,-2,-5,-10,-7,0
1558438331039273,0,3,9,6,3,4,0,-2
1558438331046256,-1,-4,-21,-10,-4,-2,-1,0
1558438331046256,-1,0,0,-4,-6,-1,-2,-1
1558438331060218,5,5,5,3,10,5,8,5
1558438331060218,-4,-6,-16,-4,-5,-7,-5,-4
1558438331069193,1,6,16,12,3,5,0,-2
1558438331069193,-2,-1,-3,-5,-1,-1,0,-4
1558438331075178,0,0,-1,-3,-7,-5,-5,-3
1558438331075178,-3,-3,-6,-4,-3,-8,-3,-5
1558438331091136,5,3,0,1,9,13,3,2
1558438331091136,3,0,18,7,5,1,5,3
1558438331098116,-4,-4,-21,-11,-3,-5,2,-1
1558438331098116,-3,-8,-11,-5,-7,0,-5,-3
1558438331106094,1,7,7,1,-4,4,-4,-2
1558438331106094,-7,-10,-4,-2,-3,-12,9,3
1558438331120058,-5,0,-4,-3,2,1,-1,-3
1558438331120058,0,0,-4,4,11,10,6,3
1558438331129034,6,5,10,4,-3,-2,-8,-2
1558438331129034,-10,-6,-2,0,1,5,-6,-3
1558438331135018,0,1,13,4,3,4,3,3
1558438331135018,-4,-6,-15,-4,-11,-16,-11,-7
1558438331151973,5,6,13,4,0,-1,2,-1
1558438331151973,4,2,-5,-4,5,5,-4,-2
1558438331157957,-2,-2,3,3,-2,1,0,-4
1558438331157957,-4,-5,-4,-7,-6,-1,-7,-2
1558438331166931,1,3,18,9,8,2,5,4
1558438331166931,1,2,-15,-7,-5,-4,3,-2
1558438331179898,-5,-9,-20,-13,-10,3,-7,-5
1558438331179898,-1,-2,6,5,1,-7,-1,0
1558438331188873,-2,-4,-2,-8,5,5,6,0
1558438331188873,2,2,12,4,4,0,6,1
1558438331194857,-4,-7,-17,-5,-3,-3,6,1
1558438331194857,-3,1,-13,-10,-9,-2,-15,-7
1558438331211813,-4,1,1,-1,-7,-9,-13,-8
1558438331211813,1,3,10,4,-1,-2,-4,-2
1558438331217796,6,4,2,3,5,3,1,3
1558438331217796,0,-4,-8,-10,-4,-2,7,3
1558438331226772,-5,-3,-5,2,4,4,-8,-4
1558438331226772,3,4,-5,-4,-4,-1,0,2
1558438331239738,2,-1,8,5,3,-3,3,1
1558438331239738,1,-1,7,2,1,1,-7,-5
1558438331248714,-1,1,10,2,3,6,5,3
1558438331248714,0,-2,-16,-2,-3,-9,-4,-2
1558438331254698,2,4,1,-5,2,-3,-1,3
1558438331254698,-3,-5,4,0,5,0,2,2
1558438331271652,1,1,11,1,-6,1,3,-1
1558438331271652,0,-2,-6,-3,-5,5,-1,-3
1558438331277636,0,1,0,-1,-1,-3,-4,-4
1558438331277636,-1,-2,-1,-4,2,2,3,0
1558438331286612,-7,-11,-26,-10,-6,-3,-4,-2
1558438331286612,1,3,15,8,0,0,-4,-3
1558438331300574,0,2,-7,-6,-4,-5,-4,-2
1558438331300574,2,4,22,10,5,4,4,1
1558438331308552,-2,-6,-20,-6,0,-7,3,2
1558438331308552,-1,-4,-4,-4,-4,-7,-2,0
1558438331315535,-4,-1,-2,-3,-10,-2,-7,-5
1558438331315535,0,3,0,4,8,14,4,-3
1558438331331492,1,-4,-5,-3,-7,-11,-2,0
1558438331331492,-1,-3,5,5,5,-10,0,2
1558438331337487,-2,-9,-12,-9,-3,-2,14,4
1558438331337487,2,4,11,5,-3,-4,-13,-6
1558438331346453,-8,-4,-7,-5,-5,-3,-7,-5
1558438331346453,2,1,2,0,6,13,5,3
1558438331360415,-2,0,3,5,4,-3,0,1
1558438331360415,4,8,11,0,4,3,5,2
1558438331369391,-1,-6,-34,-13,-9,-4,-7,-3
1558438331369391,-10,-13,2,-3,-6,-2,-7,-1
1558438331375375,-3,0,3,6,-2,-5,-12,-7
1558438331375375,4,-3,-4,0,-4,-8,1,2
1558438331391334,-12,-3,10,0,-3,-4,-4,-4
1558438331391334,0,4,-3,2,1,8,6,-2
1558438331397319,-3,-2,0,0,-1,-5,-3,-2
1558438331397319,-3,-3,-16,-10,-10,-9,-6,-1
1558438331406296,10,12,29,12,9,8,11,4
1558438331406296,-6,-7,-21,-8,-9,-8,-16,-8
1558438331420255,-1,-3,8,1,-2,5,2,1
1558438331420255,-2,-5,-1,-1,-4,-9,-4,0
1558438331429233,-2,-8,-16,-9,1,-1,1,0
1558438331429233,1,5,3,0,-2,3,2,2
1558438331435217,2,3,5,2,2,0,0,-1
1558438331435217,-3,-2,-1,-2,-1,3,2,-3
1558438331451173,-2,-7,-20,-6,-1,-1,7,2
1558438331451173,0,1,5,2,-3,-12,-2,-4
1558438331457157,3,0,3,1,4,4,3,2
1558438331457157,0,-2,5,0,7,2,2,3
1558438331466131,0,5,6,4,3,5,-1,0
1558438331466131,0,2,-1,-7,-15,-8,-3,-3
1558438331480095,-1,-1,5,2,10,2,0,0
1558438331480095,-1,-3,-14,-7,-3,4,2,-2
1558438331489070,1,-1,4,5,6,3,-1,0
1558438331489070,0,-1,3,0,-1,-2,-3,-2
1558438331495054,2,2,-15,-5,-8,-7,-2,-2
1558438331495054,-4,-3,-2,-2,-3,-1,0,0
1558438331512012,-2,-1,0,0,-5,-5,-2,-1
1558438331512012,0,1,3,-1,2,6,4,1
1558438331517994,2,-3,3,-4,-5,-2,-2,2
1558438331517994,-2,-1,-7,1,-2,-2,-7,-3
1558438331533950,4,4,6,0,2,0,2,-2
1558438331533950,1,4,14,7,7,0,2,0
1558438331539939,-8,-10,-15,-2,-5,-5,-13,-5
1558438331539939,0,-5,-6,-2,-5,-1,5,3
1558438331548913,0,4,14,-1,-7,-6,-7,0
1558438331548913,-1,-9,-26,-13,2,5,-9,-10
1558438331554896,4,5,10,1,6,7,8,2
1558438331554896,-1,-1,8,4,-3,-4,-1,-2
1558438331571856,-2,-2,-9,-4,-1,2,2,0
1558438331571856,-1,0,3,2,2,-4,6,3
1558438331577880,-1,0,-9,-4,-4,-2,-4,-2
1558438331577880,-4,-1,3,1,0,0,0,0
1558438331592863,3,-1,4,-3,-5,-6,-4,0
1558438331592863,-3,-1,-6,-7,2,6,14,2
1558438331599784,-3,-8,-4,-2,-3,-4,-9,-6
1558438331599784,0,5,10,2,-2,-8,-1,-1
1558438331615734,1,3,4,2,1,0,-2,-1
1558438331615734,-1,0,-10,-6,2,7,0,3
1558438331616731,-3,-3,3,3,0,0,0,-1
1558438331616731,2,6,5,3,-3,-2,-1,-1
1558438331631698,-3,-7,-19,-9,-2,-2,0,-4
1558438331631698,-3,-7,9,2,1,-5,-2,1
1558438331637677,3,10,10,3,2,2,3,2
1558438331637677,2,2,3,2,1,1,-8,-4
1558438331652641,-5,-6,-17,-7,-6,1,-3,-5
1558438331652641,3,1,4,4,0,-1,0,2
1558438331660614,-4,0,0,0,-1,-2,-3,1
1558438331660614,-3,-3,14,0,4,3,0,1
1558438331675578,1,1,7,4,6,9,16,5
1558438331675578,-4,-5,-11,-7,-10,-4,-20,-6
1558438331676573,4,2,12,8,6,8,5,1
1558438331676573,-1,0,-11,-11,-6,-12,-2,-1
1558438331691551,-1,1,3,1,2,4,-4,-2
1558438331691551,-3,0,-2,2,2,-1,0,0
1558438331697520,1,0,-12,-4,-4,0,-1,0
1558438331697520,-2,-2,-12,-7,-2,2,0,-2
1558438331712476,4,6,32,13,5,-6,6,3
1558438331712476,1,1,-21,-5,-1,-1,-3,-2
1558438331720452,-6,-7,-9,-7,-7,-3,-2,-2
1558438331720452,-5,-4,-4,0,2,8,-2,-1
1558438331735411,-2,1,4,2,1,2,-5,-3
1558438331735411,-5,-6,-2,-1,1,-2,9,1
1558438331736409,-3,-5,-8,-6,-15,-15,-14,-7
1558438331736409,1,1,2,1,12,13,14,4
1558438331751434,0,3,11,2,3,-7,-1,0
1558438331751434,-2,-3,1,-6,-11,-6,-4,-5
1558438331757414,1,0,-1,5,7,4,-9,-3
1558438331757414,-5,-3,-19,-12,-9,-7,-2,-4
1558438331772323,1,2,8,4,-1,-2,-4,-3
1558438331772323,2,0,-3,2,7,7,9,6
1558438331780294,-8,-2,-19,-11,-16,-10,-4,-3
1558438331780294,3,-1,3,-3,-9,-9,-6,-4
1558438331796258,-5,-6,-18,-5,2,7,5,0
1558438331796258,-1,-3,9,0,-11,-11,-16,-7
1558438331796258,3,2,23,6,6,1,7,3
1558438331796258,0,-2,-6,0,4,-1,0,1
1558438331812214,-3,-5,-11,-3,3,7,6,1
1558438331812214,2,5,19,9,5,1,1,0
1558438331818191,3,5,1,-5,2,5,5,0
1558438331818191,-5,-5,-2,-1,-7,-6,-7,-3
1558438331833151,-3,-6,-23,-7,-14,-15,-15,-7
1558438331833151,2,4,1,2,11,12,6,5
1558438331840141,0,-3,11,0,4,2,10,4
1558438331840141,-1,-1,-5,0,-3,1,5,3
1558438331856092,2,-2,8,-3,-4,-3,-11,0
1558438331856092,-2,4,-5,-3,-4,-9,-6,-2
1558438331856092,-5,-11,-17,-8,-3,-1,0,-5
1558438331856092,-3,-1,2,-1,-7,-13,-17,-8
1558438331872047,1,0,6,2,2,-1,8,3
1558438331872047,-8,-15,-35,-20,-7,0,1,-4
1558438331878034,10,11,44,15,7,5,1,2
1558438331878034,-1,-3,-34,-12,-3,-2,-1,-1
1558438331900968,-4,4,3,1,-7,-5,-8,-1
1558438331900968,-6,-11,-23,-9,-14,-3,1,-3
1558438331901967,-6,-5,-16,-8,13,10,3,3
1558438331901967,5,3,31,19,10,3,2,1
1558438331914932,0,2,-9,-9,-10,-10,1,-2
1558438331914932,13,12,19,5,10,7,11,5
1558438331922977,2,16,-9,-3,-4,-2,-14,-2
1558438331922977,-15,-25,-3,1,0,1,2,-4
1558438331931888,4,2,13,6,4,2,0,3
1558438331931888,-2,0,15,3,1,2,-7,-4
1558438331937903,0,4,-5,-2,-10,-6,-2,-2
1558438331937903,2,1,-11,-9,3,-5,7,5
1558438331953030,1,1,-10,-2,7,11,8,3
1558438331953030,0,-4,20,9,2,1,7,0
1558438331960848,5,10,8,3,1,2,-1,-2
1558438331960848,-6,-3,-18,-10,-9,-5,-7,-6
1558438331975799,-5,-10,15,0,-3,0,-3,-4
1558438331975799,0,1,-10,-1,1,-3,-4,2
1558438331982945,-8,-19,-27,-13,-11,-9,0,-2
1558438331982945,4,8,18,6,6,4,1,2
1558438331991728,3,9,-4,-5,-4,-3,-9,-3
1558438331991728,-6,-5,21,12,6,4,-3,-2
1558438331997739,-11,-16,4,-1,-5,-8,-6,-5
1558438331997739,7,2,-14,-8,-6,-3,3,1
1558438332012673,-6,0,11,7,2,5,-1,-2
1558438332012673,-6,-8,-35,-18,-10,-12,-5,-2
1558438332020652,3,4,19,14,9,4,6,5
1558438332020652,-2,-6,-22,-15,-17,-9,8,-2
1558438332035829,3,2,2,5,10,6,-10,-2
1558438332035829,1,13,19,5,1,1,-3,-2
1558438332042796,3,3,8,6,3,2,3,0
1558438332042796,-8,-4,4,-1,-5,2,-2,0
1558438332051569,3,-7,-9,-1,-4,-7,0,-2
1558438332051569,-2,0,-1,-1,1,3,6,1
1558438332057757,2,4,8,4,-4,-6,-13,0
1558438332057757,12,18,22,14,13,17,17,5
1558438332072555,-11,-15,-21,-11,-7,-4,-3,0
1558438332072555,5,-8,-3,3,0,4,-2,1
1558438332080497,4,37,-15,-17,-8,-8,4,-3
1558438332080497,-14,-41,-20,-2,-1,-3,-8,-5
1558438332095451,-3,4,29,14,-8,-14,-6,-4
1558438332095451,-2,11,-27,-18,-5,-1,0,-3
1558438332102433,-10,-37,37,14,10,0,7,4
1558438332102433,4,26,-61,-25,-10,-5,-10,-7
1558438332118389,2,-22,7,6,3,-1,1,0
1558438332118389,-9,-16,12,-2,-6,-7,-9,-7
1558438332119404,-1,7,-27,-14,-17,-15,-3,-4
1558438332119404,17,35,51,21,19,9,4,10
1558438332132353,-8,-21,-23,-8,0,3,0,-4
1558438332132353,3,12,3,1,-5,-4,-6,-1
1558438332140330,2,3,5,5,4,8,-6,-2
1558438332140330,-9,-21,4,2,-5,-5,-9,-5
1558438332155287,2,14,-20,-17,-9,-10,-2,-2
1558438332155287,-2,2,5,2,-3,0,-1,1
1558438332162269,0,-7,9,12,9,14,9,1
1558438332162269,3,2,19,5,16,14,7,3
1558438332178228,1,7,-35,-16,-20,-16,-3,1
1558438332178228,4,0,24,15,5,-3,0,1
1558438332179224,-8,-16,-43,-25,-11,-14,2,-8
1558438332179224,8,19,39,8,0,6,-11,-3
1558438332192189,0,-2,-16,-14,-7,0,7,1
1558438332192189,-11,-15,1,6,3,-1,-5,-3
1558438332200517,0,1,-2,1,-1,5,-4,0
1558438332200517,-6,-8,-4,-1,4,-3,0,-1
1558438332215498,-1,-1,-25,-16,-6,0,-1,-5
1558438332215498,11,22,12,9,0,-7,4,2
1558438332223233,-12,-21,-3,2,2,7,1,-3
1558438332223233,2,7,8,2,1,1,2,1
1558438332238490,3,3,13,9,2,1,0,2
1558438332238490,-12,-23,-36,-22,-4,-5,-3,-5
1558438332239065,6,6,8,-1,-1,2,-1,1
1558438332239065,-4,-12,-16,-1,-4,-3,4,0
1558438332254063,3,9,15,3,8,8,-9,-5
1558438332254063,8,11,2,-2,0,0,-3,-3
1558438332260318,-3,1,14,9,3,1,4,-2
1558438332260318,-7,-16,-17,-5,0,3,0,-2
1558438332276967,-3,1,6,-1,0,4,-1,1
1558438332276967,0,-1,-12,-9,-10,-2,0,0
1558438332283153,6,5,11,-2,4,-7,-2,3
1558438332283153,0,1,-2,6,-4,-7,-1,0
1558438332297916,-4,-5,3,4,13,13,4,2
1558438332297916,-6,-20,-40,-13,-12,-8,-8,-6
1558438332298914,5,9,4,-2,-3,2,-1,5
1558438332298914,3,0,16,8,5,1,8,3
1558438332313874,3,5,5,5,0,-16,-7,1
1558438332313874,1,2,2,-5,0,6,13,3
1558438332319852,-15,-25,-12,1,-5,-2,-19,-8
1558438332319852,-6,-3,13,-7,-16,-22,-22,-8
1558438332335808,9,7,1,3,18,13,14,4
1558438332335808,-1,7,-2,5,1,4,-1,-3
1558438332343108,-3,-6,-10,-9,-3,0,8,1
1558438332343108,1,2,-11,-8,-7,-12,-18,-5
1558438332358747,-9,-9,6,1,-9,-6,-3,-5
1558438332358747,7,13,30,13,12,5,4,5
1558438332358747,3,6,-3,-3,-1,3,1,0
1558438332358747,-6,-10,-5,-3,-8,-7,-5,-7
1558438332382681,-1,-3,-12,-6,-3,1,-1,-1
1558438332382681,-5,-12,-22,-6,1,-3,-1,-5
1558438332382681,-1,5,0,-5,-17,-25,-7,1
1558438332382681,3,8,-7,-5,8,14,11,3
1558438332403734,2,2,21,14,4,0,4,2
1558438332403734,-8,-10,11,1,-6,-3,-7,-4
1558438332403734,7,12,28,17,14,13,6,5
1558438332403734,-8,-11,-44,-22,-14,-10,-9,-7
1558438332418763,-3,-7,-12,-2,-2,0,-3,-2
1558438332418763,1,5,2,-4,1,-4,5,4
1558438332418763,0,1,0,3,5,5,1,-4
1558438332418763,5,8,44,24,21,21,15,6
1558438332433896,-10,-13,-45,-21,-15,-2,-5,-7
1558438332433896,2,0,14,2,1,7,5,-2
1558438332440752,4,-5,-13,-5,3,-10,0,2
1558438332440752,-13,-1,-7,-6,-8,-4,-6,0
1558438332454665,2,5,36,12,2,3,0,-7
1558438332454665,-3,-13,-21,-7,-5,-1,-12,-3
1558438332462645,6,17,-4,-3,0,-4,5,0
1558438332462645,-9,-31,0,4,0,0,4,1
1558438332478842,-8,2,2,-3,1,-1,-4,-8
1558438332478842,6,14,28,12,-1,-6,-1,-1
1558438332479600,-3,-17,-28,-10,-1,3,-8,-5
1558438332479600,5,2,4,1,4,4,8,3
1558438332492568,2,6,0,-4,-7,-8,-6,3
1558438332492568,-2,-2,7,7,0,-4,3,0
1558438332500566,0,-3,-21,-12,-4,-3,-3,-3
1558438332500566,2,5,4,4,7,9,-2,1
1558438332515503,-1,-5,5,6,-3,-5,-5,2
1558438332515503,1,13,16,4,2,-2,-1,0
1558438332522484,-7,-6,3,-4,-3,4,15,0
1558438332522484,-4,-5,-17,-11,-11,-14,-16,-8
1558438332538441,4,9,19,8,5,2,0,1
1558438332538441,-4,-10,-18,-9,-2,3,-2,-1
1558438332538441,-5,-9,-21,-8,-9,-8,0,-1
1558438332538441,4,4,2,-4,-2,0,-5,0
1558438332554901,1,5,15,5,-2,-8,-3,-1
1558438332554901,0,-3,-2,-3,2,2,-1,1
1558438332560897,-7,3,15,6,5,4,-3,-1
1558438332560897,-6,-16,-16,-12,-9,-9,1,0
1558438332575879,3,3,-5,1,5,5,2,2
1558438332575879,0,-7,-1,-4,0,-2,-5,0
1558438332583055,-3,-4,2,-2,-3,-2,-2,-3
1558438332583055,2,4,2,3,-3,-3,-6,-2
1558438332599083,-4,-2,-6,-2,-4,1,-1,1
1558438332599083,-3,-4,-10,-10,-6,-4,0,0
1558438332599083,5,8,15,7,2,0,-1,2
1558438332599083,0,3,4,-1,0,6,-3,-2
1558438332613678,2,-5,-1,-3,5,2,12,4
1558438332613678,1,1,-12,-3,1,-2,-2,-2
1558438332620926,0,-2,5,7,-5,-6,-9,-1
1558438332620926,0,2,-5,-6,-2,-4,5,0
1558438332635619,-7,-9,-13,-11,-4,-2,-14,-3
1558438332635619,6,7,23,10,7,2,15,11
1558438332642983,1,-3,-7,-5,4,5,2,3
1558438332642983,-5,-1,0,7,3,3,-10,-5
1558438332659017,1,-1,4,-2,-9,-9,0,1
1558438332659017,-3,-3,-4,-2,2,0,0,0
1558438332659017,2,3,8,5,6,8,8,0
1558438332659017,2,1,3,-5,-6,-8,0,1
1558438332674261,-1,-7,-10,-2,-5,-6,10,-1
1558438332674261,-7,-2,-2,-1,-2,-6,-14,-8
1558438332679947,1,7,14,4,3,6,1,-3
1558438332679947,-1,-3,-24,-10,-5,-4,5,-1
1558438332695255,6,9,17,10,8,5,1,1
1558438332695255,0,-5,11,-1,-3,-2,-7,1
1558438332703242,-10,-14,-50,-21,-15,-7,-7,-4
1558438332703242,-1,1,3,1,0,2,0,0
1558438332719090,0,-1,0,-2,3,8,5,1
1558438332719090,2,4,8,6,3,2,-4,-1
1558438332719090,1,0,4,4,2,9,7,-1
1558438332719090,2,2,8,5,1,-3,-4,2
1558438332733803,-4,-4,-7,-5,-4,-4,0,-2
1558438332733803,2,3,6,7,8,8,-2,1
1558438332739791,-4,-6,-11,-6,-8,-12,-8,-3
1558438332739791,-1,1,-3,-1,2,2,1,-1
1558438332754752,-2,-1,-1,-2,1,3,4,-1
1558438332754752,-1,-4,-9,-4,-7,-3,-4,-4
1558438332762729,3,0,9,2,1,-6,2,2
1558438332762729,1,3,6,5,2,3,7,0
1558438332778459,-3,-4,-12,-4,2,0,-8,-4
1558438332778459,2,2,-11,-4,-4,-3,4,2
1558438332779104,-1,-5,-2,-1,-6,-6,-12,-4
1558438332779104,-3,-3,5,1,-3,-4,-6,-5
1558438332794100,4,3,21,7,7,5,4,2
1558438332794100,-3,-6,-30,-10,-2,-4,6,0
1558438332800363,0,8,17,7,4,5,3,-1
1558438332800363,-4,-10,-30,-22,-24,-13,-9,-7
1558438332816033,1,2,19,10,6,8,0,3
1558438332816033,4,3,-12,-5,0,-7,2,2
1558438332823314,-6,-6,6,-3,-1,-4,-6,-4
1558438332823314,-2,-4,-4,3,5,5,6,2
1558438332838275,0,-6,-15,-6,-7,-2,-7,-5
1558438332838275,-3,1,17,4,-8,-9,-10,-4
1558438332844952,1,0,-4,0,7,1,2,4
1558438332844952,5,7,23,9,9,6,3,3
1558438332853902,-5,-6,-15,-8,-10,-9,6,-2
1558438332853902,-2,-3,6,2,2,7,-4,-2
1558438332860988,-4,-6,-11,-7,-6,-1,-3,-2
1558438332860988,-4,-4,-14,-7,-9,-11,-7,-4
1558438332875955,-3,-1,1,6,3,-1,-8,-2
1558438332875955,1,3,13,4,1,1,4,-1
1558438332883170,1,3,7,4,3,6,3,2
1558438332883170,2,-2,5,6,6,3,3,2
1558438332898107,-4,-7,-21,-9,-9,-6,-5,-5
1558438332898107,-1,0,-1,-2,0,6,0,0
1558438332905940,6,1,5,0,4,0,-8,-1
1558438332905940,3,1,1,5,-3,1,2,0
1558438332913740,-13,-5,0,-5,-4,-3,-3,-1
1558438332913740,-4,-6,-2,-1,-3,-4,-3,1
1558438332920764,-1,7,-7,-3,2,7,5,2
1558438332920764,1,5,17,4,-1,-4,-1,1
1558438332935983,2,-4,-19,-3,2,-2,1,-3
1558438332935983,0,1,18,8,6,7,5,0
1558438332942666,-3,-3,-36,-18,-16,-8,-6,-6
1558438332942666,-4,-4,3,-1,-6,-9,-4,-2
1558438332957625,4,0,-8,-8,3,4,6,4
1558438332957625,0,1,7,2,3,-1,-3,0
1558438332964609,1,0,5,3,-8,-13,-11,-5
1558438332964609,1,4,0,2,5,5,12,5
1558438332973976,-5,-5,5,4,-1,-5,-3,-3
1558438332973976,-2,2,14,3,2,3,-5,-2
1558438332980563,-1,-6,-10,-5,-2,-2,-5,-1
1558438332980563,-2,-6,-17,-6,-11,-8,-10,-4
1558438332995566,-2,-1,4,-1,-2,-2,1,1
1558438332995566,-2,-2,-8,-3,1,-6,5,5
1558438333002645,1,1,21,8,4,1,5,1
1558438333002645,-2,7,5,4,1,1,-2,-4
1558438333017817,3,-3,1,0,5,10,-1,4
1558438333017817,-3,-6,-23,-14,-11,-4,-2,-3
1558438333025798,-2,-1,6,3,0,-2,-1,-3
1558438333025798,5,4,11,3,5,0,3,0
1558438333041494,3,4,0,-4,-7,-5,-9,-7
1558438333041494,-18,-15,-3,2,-5,-3,-6,-7
1558438333041494,-3,-1,-2,-2,-2,-11,0,3
1558438333041494,3,5,1,-2,9,8,5,4
1558438333055719,-4,2,11,7,-4,-11,-14,-7
1558438333055719,-2,-3,-16,-16,-10,-6,-6,-7
1558438333062348,-4,-3,-7,-1,-4,-1,-1,-1
1558438333062348,-1,-1,3,-2,1,1,5,1
1558438333078361,6,4,12,5,4,2,7,5
1558438333078361,5,5,-9,0,5,4,5,0
1558438333085543,-2,-3,1,-3,-6,-2,0,-2
1558438333085543,-3,-3,0,-3,1,-1,-5,-1
1558438333101503,-5,-6,-16,-7,-4,-4,-1,-2
1558438333101503,2,2,7,3,-1,0,-2,0
1558438333101503,0,-2,1,1,1,2,4,1
1558438333101503,-1,0,15,10,6,7,-2,-4
1558438333115475,-7,-8,-33,-19,-13,-16,-4,-3
1558438333115475,0,-6,2,3,4,-1,-4,-1
1558438333122186,0,2,1,-1,3,3,-6,-1
1558438333122186,-4,-5,-5,-2,-5,0,3,1
1558438333137402,-3,6,8,6,-4,-3,-9,-5
1558438333137402,6,3,-9,-8,-2,5,5,2
1558438333145123,-8,-11,-10,-1,-9,-10,-16,-6
1558438333145123,1,3,5,0,5,6,11,4
1558438333161080,1,2,-1,-2,-1,1,-5,-3
1558438333161080,-5,-8,-3,1,1,-7,-10,-3
1558438333161080,-2,-3,1,-4,0,2,1,-4
1558438333161080,-3,-1,-1,-2,-2,-3,-3,-4
1558438333175046,-1,-3,6,2,7,11,10,3
1558438333175046,4,2,9,3,-3,-1,9,3
1558438333183357,1,4,-2,-1,6,4,4,3
1558438333183357,-1,-4,-23,-15,-10,-9,-9,-6
1558438333198301,4,5,10,4,9,8,11,4
1558438333198301,-7,-8,-18,-7,-9,-7,-14,-7
1558438333205290,3,2,4,7,3,4,0,4
1558438333205290,0,1,7,8,13,10,9,5
1558438333221249,1,4,23,7,1,-3,-4,-3
1558438333221249,-3,-7,-21,-18,-8,-6,0,0
1558438333221919,1,0,-5,-3,1,3,4,-1
1558438333221919,-4,-4,-8,-6,-4,-2,-5,1
1558438333234968,-3,-3,3,4,6,5,9,4
1558438333234968,-2,1,17,9,10,6,9,2
1558438333243202,-2,-3,-8,-8,-5,-3,1,-5
1558438333243202,-1,-6,-8,-5,-9,-6,-9,-5
1558438333258159,4,4,2,-2,-3,-6,-5,1
1558438333258159,-1,0,-2,0,-8,-9,3,0
1558438333265942,-1,-1,-2,-1,2,2,3,-1
1558438333265942,0,2,16,9,4,3,0,0
1558438333280851,-2,-8,-27,-12,-7,-5,-5,-1
1558438333280851,0,0,-3,7,1,1,5,0
1558438333281758,0,-2,0,-6,0,1,0,-1
1558438333281758,3,12,16,5,-3,-6,-3,-3
1558438333295045,-11,-20,-49,-30,-16,-9,-9,-5
1558438333295045,5,5,3,1,5,6,-1,1
1558438333302795,-3,-4,18,11,-4,-1,-1,-2
1558438333302795,-9,-9,-26,-8,-12,-12,4,-3
1558438333317988,2,7,20,8,8,2,-7,-3
1558438333317988,-2,-1,-10,-1,-5,-8,-17,-7
1558438333325975,3,3,10,2,13,11,9,4
1558438333325975,-7,-12,-5,-6,-2,-3,-5,-4
1558438333340600,2,3,7,2,-6,-5,-2,-4
1558438333340600,2,0,5,-2,-2,-1,-2,3
1558438333341600,2,4,3,3,7,4,7,4
1558438333341600,-1,-6,-12,-6,-1,2,-4,-3
1558438333355895,1,1,5,1,-2,-1,-8,-2
1558438333355895,3,6,7,2,6,5,13,8
1558438333362542,-2,-3,-7,-3,-6,-5,-1,-1
1558438333362542,2,1,-4,0,-2,-7,-2,-1
1558438333377504,-13,-5,5,2,2,1,-6,-2
1558438333377504,-2,-2,3,-4,-4,-3,-5,-4
1558438333385562,-2,-1,-4,-4,-2,1,-2,-1
1558438333385562,0,-4,-7,4,-2,1,-7,-2
1558438333401567,2,-1,2,-4,-2,-4,2,1
1558438333401567,-3,-7,-14,-11,-1,0,9,-3
1558438333401567,-1,-1,2,0,1,-1,-5,-3
1558438333401567,0,0,-1,-2,1,-2,-3,-1
1558438333415736,1,2,13,6,2,6,11,3
1558438333415736,-2,-3,-9,0,-2,-4,-13,-5
1558438333423385,-2,1,-4,-6,-2,-2,0,-4
1558438333423385,-1,3,3,1,0,0,5,2
1558438333437661,1,0,-2,0,-4,-4,-6,-1
1558438333437661,-3,2,7,1,3,4,-3,-4
1558438333445425,2,-5,-5,-2,-1,1,6,1
1558438333445425,-1,0,2,1,3,2,0,-3
1558438333461611,1,-2,6,-1,-4,-4,0,-1
1558438333461611,-4,-8,-11,-4,-5,-3,-5,-3
1558438333461611,-2,1,-3,0,2,-1,-4,-1
1558438333461611,4,1,-4,-6,-2,-2,0,1
1558438333475639,5,6,19,9,12,7,11,3
1558438333475639,-1,1,-11,-3,-1,2,1,-1
1558438333482220,-8,-10,-17,-7,-12,-10,-15,-8
1558438333482220,-2,-2,6,-3,-4,0,-9,-3
1558438333497949,3,3,-3,2,1,3,7,1
1558438333497949,1,5,23,8,3,0,-5,1
1558438333505952,-2,0,-18,-10,-14,-13,-1,0
1558438333505952,-1,-1,-4,0,5,7,8,2
1558438333520569,-1,-2,0,3,7,8,-5,-2
1558438333520569,0,-1,7,2,-1,-1,5,1
1558438333521563,0,1,8,3,1,-1,-3,1
1558438333521563,-2,-1,2,-2,6,2,4,0
1558438333535917,1,-1,-5,2,-7,-11,4,1
1558438333535917,-5,0,3,2,3,4,2,-4
1558438333542867,0,-2,-8,-6,-5,0,-1,2
1558438333542867,4,5,5,4,1,-5,9,7
1558438333557468,0,3,-2,-1,3,3,0,-2
1558438333557468,2,2,-7,-4,-5,-4,2,2
1558438333565446,-8,-15,6,-2,-11,-9,-8,-5
1558438333565446,3,-1,-9,-4,9,10,7,5
1558438333580407,-4,-4,-3,-5,-8,-6,-16,-9
1558438333580407,-1,-1,-1,-2,-5,-4,-4,-3
1558438333581402,3,2,4,2,5,5,6,4
1558438333581402,-1,-2,7,3,2,4,-5,0
1558438333595366,-3,-2,-3,-3,-1,-6,-9,-5
1558438333595366,-1,-2,-2,-2,-5,-2,-3,-4
1558438333602347,1,3,9,5,10,9,10,4
1558438333602347,1,1,10,6,4,4,2,-1
1558438333617307,-2,-3,-15,-4,2,1,-1,1
1558438333617307,-2,-3,-2,0,-4,-7,4,0
1558438333625790,-1,0,-9,-3,-1,-4,-6,-3
1558438333625790,-3,-3,0,-2,-8,-10,-11,-2
1558438333641129,-1,-3,-2,-6,-5,-2,3,0
1558438333641129,4,3,9,1,3,-2,0,1
1558438333641751,-1,3,17,16,8,4,0,2
1558438333641751,-3,-5,-15,-14,-11,-6,0,-3
1558438333656026,3,5,29,12,5,2,3,0
1558438333656026,-7,-12,-42,-15,-6,-4,-8,-4
1558438333662695,3,4,-15,-6,3,5,4,-1
1558438333662695,-1,0,6,4,6,6,1,-3
1558438333677657,0,0,-7,-1,-5,-3,11,2
1558438333677657,3,4,18,7,8,10,7,8
1558438333684637,-2,0,8,5,2,-1,-14,-5
1558438333684637,-2,-4,-14,-3,-7,-14,1,2
1558438333702588,3,1,2,-5,-4,-3,-7,1
1558438333702588,-2,3,-2,-1,3,0,5,1
1558438333703619,-5,-9,-7,-5,-8,-9,1,-1
1558438333703619,-3,-1,0,-4,-10,-6,-10,-2
1558438333715891,0,0,-5,0,1,8,3,2
1558438333715891,1,-4,-1,-6,-12,-6,-7,0
1558438333722843,-3,5,16,13,20,10,8,5
1558438333722843,0,-5,-5,-4,1,2,12,-1
1558438333737828,-4,-7,-21,-6,-7,-11,-24,-9
1558438333737828,0,-2,-8,-3,-3,-2,-11,-2
1558438333745479,3,2,9,3,-6,-5,6,-1
1558438333745479,-4,-4,-24,-11,-3,-3,-1,-3
1558438333760436,-1,3,9,5,8,4,5,5
1558438333760436,2,5,6,1,6,11,9,1
1558438333761431,-6,-16,-19,-17,-15,-7,-6,-5
1558438333761431,-1,0,9,8,-2,-8,-11,-3
1558438333775396,1,2,7,1,0,-3,8,1
1558438333775396,-3,-4,3,4,2,0,-6,-5
1558438333782374,2,4,5,1,3,-3,0,1
1558438333782374,-3,-2,1,-2,-7,-2,-6,-4
1558438333798578,-3,-4,-2,-1,-4,-4,-12,-8
1558438333798578,2,0,2,1,-1,-2,5,2
1558438333805807,3,5,-6,-4,-6,-2,-6,-2
1558438333805807,-2,-3,1,-1,-6,-6,-11,-4
1558438333820584,-1,-1,-2,-1,3,6,21,2
1558438333820584,-3,0,3,2,7,3,-1,-3
1558438333828593,4,3,-1,5,5,11,-5,-2
1558438333828593,-4,-2,-7,-2,-4,-5,-7,-4
1558438333835235,2,5,10,1,2,1,1,1
1558438333835235,-5,-9,-19,-3,-8,-8,-2,-5
1558438333843441,-4,-4,-18,-6,-3,-5,-4,-3
1558438333843441,1,2,12,5,7,8,7,3
1558438333858362,-3,-2,3,-3,-2,-3,-7,-1
1558438333858362,-3,-1,15,6,-2,-1,0,-4
1558438333865480,3,0,-2,-5,8,6,5,2
1558438333865480,0,0,8,4,1,-3,-9,-3
1558438333880113,-7,-10,-22,-11,-13,-8,7,-4
1558438333880113,-3,-7,-5,-2,1,-4,-7,-4
1558438333888093,3,2,12,3,-9,-8,-1,1
1558438333888093,0,3,-7,-2,8,6,4,1
1558438333895106,4,8,18,10,6,6,2,3
1558438333895106,-8,-9,-36,-20,-10,-5,-10,-5
1558438333903059,1,3,20,8,-5,-11,-7,-4
1558438333903059,-3,-7,-22,-12,-3,-2,-5,-1
1558438333918011,-3,-8,-12,-5,-5,-3,13,2
1558438333918011,3,2,6,6,8,7,4,2
1558438333932973,0,2,17,6,0,0,-9,-2
1558438333932973,0,0,-1,-8,-6,-1,-6,-3
1558438333939987,-4,-2,-9,-2,2,0,-2,-2
1558438333939987,-7,-8,-3,-10,-7,-4,0,-1
1558438333947965,0,2,3,0,4,6,7,0
1558438333947965,-4,-2,7,4,-2,0,3,0
1558438333954926,-1,-4,-25,-17,-4,-6,-7,-2
1558438333954926,5,8,29,14,5,5,-4,-1
1558438333962894,-6,-11,-35,-16,-9,-7,-18,-6
1558438333962894,-1,7,6,4,4,6,15,1
1558438333977853,-1,0,7,4,-4,-8,-12,-5
1558438333977853,2,-1,6,0,0,4,10,6
1558438333984872,6,4,6,8,8,2,-9,-3
1558438333984872,-10,-7,5,3,8,4,1,0
1558438333999794,-3,-3,-9,-9,-5,-3,-8,-5
1558438333999794,0,-2,0,0,-3,-3,10,0
1558438334007799,-6,-6,-13,-6,-11,-9,-7,-1
1558438334007799,7,4,2,3,3,5,8,7
1558438334023730,-4,-2,5,2,0,0,-12,-4
1558438334023730,-1,1,-4,-1,-8,-7,-4,-1
1558438334023730,1,2,5,-2,-1,1,11,5
1558438334023730,0,-1,4,2,3,3,-8,-6
1558438334037693,3,9,39,23,6,2,2,-1
1558438334037693,-3,-11,-60,-29,-17,-12,-12,-5
1558438334044672,-5,-7,-14,-8,-5,2,7,-2
1558438334044672,1,1,1,1,13,7,1,0
1558438334059632,3,3,5,2,2,-1,6,6
1558438334059632,3,13,62,30,12,7,8,2
1558438334068608,2,-3,-27,-11,-5,-7,0,0
1558438334068608,-5,-5,-10,-10,-16,-5,-4,-3
1558438334083568,4,-1,-19,-4,11,12,8,1
1558438334083568,-2,-3,-3,-2,1,-5,-9,-3
1558438334083568,-3,6,16,3,1,5,2,0
1558438334083568,2,0,17,7,-6,-9,-20,-6
1558438334097533,1,-1,0,0,2,3,15,4
1558438334097533,0,-4,-13,-5,1,3,-2,-1
1558438334105511,0,-4,-4,1,3,1,-2,-1
1558438334105511,5,5,-2,-4,-7,-8,-8,-3
1558438334120491,-5,-5,17,7,-2,1,-6,0
1558438334120491,-1,1,-27,-9,-1,5,4,-1
1558438334128449,-4,5,10,2,0,2,7,1
1558438334128449,-7,-15,-21,-9,-11,-15,-9,-4
1558438334143443,3,0,-3,0,4,8,2,4
1558438334143443,6,6,30,10,8,5,6,4
1558438334143443,-3,-7,-20,-16,-13,-6,3,-1
1558438334143443,4,4,6,6,7,6,-4,0
1558438334157372,-15,-12,-17,-9,-5,-8,-6,-4
1558438334157372,-4,2,14,5,-5,-10,-12,-4
1558438334165351,-1,3,13,7,6,7,16,2
1558438334165351,3,0,-4,-4,-2,1,9,2
1558438334180310,2,-1,-1,-1,-6,-8,-9,-6
1558438334180310,-3,-1,-7,-5,-6,-7,-3,-3
1558438334188290,-1,2,12,5,9,10,-3,0
1558438334188290,1,5,16,6,-4,-4,1,1
1558438334211226,-1,0,-14,-5,7,9,6,-3
1558438334211226,-6,-11,-21,-17,-1,3,1,1
1558438334212224,0,-1,-1,-5,-18,-14,-18,-9
1558438334212224,-2,-4,-1,1,-1,-10,5,4
1558438334217245,-2,-3,16,13,-2,-3,-9,-2
1558438334217245,0,3,-22,-12,-3,5,10,-2
1558438334225224,-5,-9,-22,-14,-6,-6,1,-2
1558438334225224,-3,-1,-1,-3,-7,-4,-2,3
1558438334240187,5,5,6,1,-8,-10,-10,-2
1558438334240187,3,6,26,17,12,10,21,7
1558438334248127,0,-3,-3,1,2,2,-16,-4
1558438334248127,0,9,9,1,2,-2,-4,-5
1558438334263089,2,-1,-6,-4,-6,-2,8,-1
1558438334263089,-8,-14,-30,-16,-12,-3,-23,-5
1558438334264087,1,4,3,-2,-4,-9,-4,-1
1558438334264087,5,2,0,5,21,12,13,7
1558438334277089,-1,-5,1,-2,0,4,-10,-1
1558438334277089,2,4,8,-1,-17,-8,-7,-7
1558438334285061,1,-1,3,3,1,-15,12,5
1558438334285061,-4,-11,-4,2,-4,-12,6,2
1558438334300024,2,6,-3,0,19,18,12,7
1558438334300024,-3,-3,2,-1,-5,-9,-7,-1
1558438334307967,0,5,7,2,-4,1,0,-1
1558438334307967,6,7,0,1,-8,6,6,-3
1558438334322957,-10,-10,25,11,17,4,10,6
1558438334322957,-5,-9,-36,-11,-2,-16,-12,-5
1558438334323926,1,1,2,2,-1,9,1,-1
1558438334323926,-5,-14,-12,-10,-12,-7,-11,-5
1558438334337887,4,8,3,-8,-13,-3,5,0
1558438334337887,-3,1,7,5,5,5,-14,-4
1558438334344870,-2,-7,-9,2,-1,-4,-5,-5
1558438334344870,-4,0,-11,-13,-3,2,-5,-1
1558438334359869,-2,-4,12,4,-7,-11,-18,-10
1558438334359869,-2,-5,-13,-8,-2,-2,15,3
1558438334367807,1,-1,1,-1,5,10,19,9
1558438334367807,0,5,8,8,4,-1,-17,-4
1558438334382769,3,5,1,-5,-4,0,-1,0
1558438334382769,-6,-7,-6,2,2,0,0,-1
1558438334383764,1,4,13,4,4,4,3,1
1558438334383764,-1,-1,10,1,-1,2,8,-2
1558438334398726,4,2,-31,-11,-2,0,-2,-3
1558438334398726,10,16,31,11,8,7,11,1
1558438334404712,-20,-22,-11,-4,-4,-9,-23,-10
1558438334404712,-4,-2,-17,-7,-3,-1,0,-3
1558438334419670,0,-11,-10,-6,-8,-3,-3,-1
1558438334419670,9,11,17,8,8,8,16,8
1558438334427647,3,2,14,9,1,1,3,1
1558438334427647,-10,-17,-37,-19,-13,-11,-11,-8
1558438334443640,-7,-6,-22,-10,-9,-7,0,-6
1558438334443640,11,6,19,14,16,7,6,11
1558438334443640,2,10,14,6,4,-1,-9,-4
1558438334443640,-2,-11,4,7,12,14,21,6
1558438334465581,0,0,-6,-6,-11,-6,-4,-2
1558438334465581,-3,-4,-3,-4,-7,-9,-1,1
1558438334466544,7,5,7,5,1,-2,1,3
1558438334466544,2,11,1,1,5,6,1,3
1558438334480508,-8,-3,-14,-12,-6,-7,-5,-2
1558438334480508,-1,-6,8,4,3,-2,3,0
1558438334487487,-3,-5,-5,-7,-6,-6,-9,-7
1558438334487487,1,-6,-10,-5,-14,-10,-6,-4
1558438334511462,2,7,8,8,19,22,9,5
1558438334511462,0,6,8,3,1,-3,-8,-3
1558438334512423,4,4,3,1,7,-2,9,4
1558438334512423,-2,-1,-9,-10,-11,-4,-5,-5
1558438334517409,-3,-4,3,-3,-3,0,-1,3
1558438334517409,-3,0,-6,-3,-5,-6,-4,-5
1558438334525385,5,1,23,10,6,0,-4,0
1558438334525385,-2,3,-2,-2,8,13,7,-1
1558438334540346,-3,-9,-18,-5,-6,-17,-5,1
1558438334540346,-2,-3,-11,-10,-10,-7,-23,-9
1558438334547327,-8,-8,-17,-7,-11,4,3,-3
1558438334547327,1,1,26,10,3,-10,-1,0
1558438334563285,4,0,6,2,3,7,-1,-4
1558438334563285,-4,-6,-8,-3,-4,-3,-1,0
1558438334564282,-2,-4,-21,-9,-8,-2,-6,-3
1558438334564282,-1,1,-9,-6,2,5,0,2
1558438334577280,-2,-3,-2,-1,-1,-2,-3,-2
1558438334577280,4,6,15,10,2,6,3,-2
1558438334585226,0,-1,-1,0,6,-1,-1,2
1558438334585226,2,-2,-2,-1,-2,3,4,-2
1558438334600187,-10,2,10,0,-5,-3,1,0
1558438334600187,-5,-14,-17,-6,-5,-6,10,-3
1558438334608165,-2,-4,-10,-9,-12,-7,-8,0
1558438334608165,2,2,-2,4,2,-8,4,1
1558438334623125,3,-3,-19,-6,-1,-3,5,0
1558438334623125,-5,1,4,-4,-4,-2,2,-3
1558438334624123,-2,-3,6,5,14,19,2,-2
1558438334624123,0,5,26,10,-5,-7,-6,-3
1558438334637087,-2,-1,-24,-10,0,0,2,-2
1558438334637087,-2,-3,-3,0,7,11,8,6
1558438334645066,-2,-5,-12,-5,-7,-12,-1,-2
1558438334645066,-5,-4,0,-1,-5,-5,-21,-5
1558438334660026,3,7,21,10,2,7,7,-1
1558438334660026,6,7,24,12,9,7,2,3
1558438334668004,-8,-12,-53,-30,-8,3,7,0
1558438334668004,-2,-3,-7,-4,-5,-6,-6,-5
1558438334682964,1,-3,8,5,-4,-5,-7,-3
1558438334682964,-3,-4,-2,-2,1,4,-1,-1
1558438334683962,3,5,31,14,6,-3,3,3
1558438334683962,-7,-7,-18,-8,-4,-1,6,-3
1558438334697924,-1,-5,-12,-4,0,-2,2,0
1558438334697924,0,3,9,3,8,9,-2,-3
1558438334704906,3,12,30,21,5,0,-6,1
1558438334704906,-1,-6,-42,-24,-9,-9,0,4
1558438334719867,-3,-3,6,0,-3,3,-6,-4
1558438334719867,-5,-9,-18,-9,-10,-14,-15,-3
1558438334727845,1,2,0,-1,-5,-5,1,-1
1558438334727845,4,8,36,19,15,12,1,1
1558438334742805,3,2,13,3,-5,-1,-3,-1
1558438334742805,-1,-4,-22,-11,-6,-4,-9,-3
1558438334751786,-1,0,-1,-1,5,5,10,1
1558438334751786,5,6,32,11,7,-2,0,1
1558438334758136,-7,-13,-44,-17,-14,-12,-13,-3
1558438334758136,-2,-2,9,0,-3,-2,6,1
1558438334765756,2,5,10,1,-1,2,1,1
1558438334765756,-8,-7,-14,-5,2,7,0,1
1558438334779713,-3,-6,-22,-11,-18,-18,-9,-3
1558438334779713,1,0,3,6,1,-3,7,-3
1558438334787907,2,0,1,-1,9,10,4,1
1558438334787907,-1,5,18,11,3,-9,-2,-4
1558438334802646,3,4,12,3,3,-3,-3,3
1558438334802646,-2,-3,-5,-5,-6,0,-7,-1
1558438334810930,-3,-3,-8,-4,-3,-2,7,1
1558438334810930,-1,-2,-1,-2,-1,6,5,0
1558438334817889,1,0,9,4,6,1,4,1
1558438334817889,-4,-7,-12,-6,-7,-7,0,-6
1558438334824869,-3,0,3,-4,1,0,-2,-4
1558438334824869,0,-5,-17,-4,-3,-7,-1,-1
1558438334839548,1,4,10,0,3,-3,3,0
1558438334839548,3,4,11,4,2,2,8,4
1558438334847525,-4,-6,-15,-6,-5,-3,-19,-8
1558438334847525,-1,-1,3,3,-6,4,-3,-5
1558438334862484,-4,-2,4,1,-2,-1,-3,-2
1558438334862484,1,4,18,9,8,0,3,6
1558438334870463,-1,-4,-27,-9,-5,-2,5,0
1558438334870463,-1,-2,-7,-8,-1,0,8,3
1558438334877444,2,4,9,7,5,4,-12,-8
1558438334877444,2,1,6,0,-3,-3,-4,-2
1558438334885427,-9,-8,1,1,-3,-4,6,-1
1558438334885427,3,5,5,4,7,8,-1,4
1558438334900437,-7,-7,6,-2,4,7,7,0
1558438334900437,-7,-6,-24,-12,-18,-8,-15,-7
1558438334907364,7,3,11,5,7,-2,3,4
1558438334907364,5,12,38,16,12,6,3,4
1558438334922324,-5,-7,-51,-22,-10,-6,-2,-5
1558438334922324,-4,-3,-7,-2,-7,-11,-3,1
1558438334930303,-1,-4,-2,2,7,9,-6,-2
1558438334930303,-4,0,4,2,-2,0,-4,-3
1558438334945263,7,8,22,7,5,1,4,4
1558438334945263,0,-3,-5,-7,-8,-6,-3,-1
1558438334946263,-1,2,2,5,-1,-5,-2,-1
1558438334946263,-3,-8,-6,-11,-4,-2,3,-2
1558438334960250,-3,-2,-4,2,-6,-15,-9,-3
1558438334960250,4,-1,-5,-6,-1,4,0,2
1558438334967206,-12,-8,6,1,4,3,7,2
1558438334967206,-5,-4,-16,-5,-4,-5,-14,-4
1558438334984159,0,2,3,2,-1,3,6,4
1558438334984159,1,-5,5,5,8,5,-2,-4
1558438334991140,6,10,-1,-4,-5,-9,-13,-3
1558438334991140,4,12,27,11,7,1,7,1
1558438335006100,-13,-31,-62,-32,-15,-4,-6,-5
1558438335006100,2,4,5,4,5,3,3,-2
1558438335006100,-1,-2,-3,-4,-10,-4,-6,-6
1558438335006100,0,10,4,-2,-3,-3,-2,-2
1558438335020063,3,5,14,6,8,1,5,6
1558438335020063,-4,-6,7,5,5,0,1,-1
1558438335027044,-4,-9,-11,-5,-5,1,-5,-3
1558438335027044,8,7,0,-1,-3,-3,-4,-3
1558438335042004,4,9,21,8,5,4,-8,0
1558438335042004,-2,-7,-20,-6,-3,-6,5,6
1558438335050980,9,12,1,0,-4,-3,12,6
1558438335050980,-23,-43,-21,-4,-1,9,-5,-8
1558438335065940,-5,1,9,6,8,5,1,-1
1558438335065940,2,12,10,-1,0,-3,-3,-1
1558438335065940,7,11,0,-1,-2,0,-3,-3
1558438335065940,5,-16,-12,-7,-2,-8,-4,2
1558438335079904,3,17,11,6,1,2,-1,-1
1558438335079904,-1,3,5,2,3,3,-1,-1
1558438335087881,-4,-4,-12,-11,-11,-11,-3,-4
1558438335087881,-1,3,-11,-8,-8,-4,-1,-5
1558438335102841,-1,-8,4,6,-1,-2,4,1
1558438335102841,4,7,19,17,20,14,10,3
1558438335110819,-7,-13,-8,-8,-11,-9,-15,-7
1558438335110819,-2,5,-13,-9,-5,-7,-1,1
1558438335133759,2,8,8,3,1,4,3,0
1558438335133759,-5,-13,-7,-4,4,2,3,-1
1558438335134756,4,14,4,3,3,0,-1,0
1558438335134756,-9,-28,-5,-3,-11,-13,2,-3
1558438335139743,-9,-8,2,-2,-6,-3,-9,-7
1558438335139743,2,6,-2,0,-4,-2,-5,0
1558438335147721,-5,5,5,2,10,3,1,0
1558438335147721,-1,2,-5,-4,-2,1,-2,0
1558438335162681,3,3,0,-2,-4,-7,-2,-1
1558438335162681,-5,-7,-3,-5,-5,-5,-4,-2
1558438335170666,2,-8,-4,-2,-4,-2,-2,1
1558438335170666,3,14,-5,-5,1,-3,0,3
1558438335185623,-1,-7,2,2,3,-2,-1,-4
1558438335185623,0,8,-5,-6,-3,3,-11,-3
1558438335186619,-7,-13,-1,2,3,8,20,-1
1558438335186619,2,7,3,5,10,11,-1,-3
1558438335199583,2,-8,-9,-5,-5,-2,3,2
1558438335199583,0,5,-7,-5,-4,-11,-3,-1
1558438335207873,-6,1,-3,-2,-2,-4,-7,-5
1558438335207873,-5,-14,-4,-1,-4,-2,1,-3
1558438335222524,3,7,4,0,-1,-5,1,-1
1558438335222524,5,2,3,3,1,9,-2,-1
1558438335230500,-5,-5,0,-3,-2,-3,0,-2
1558438335230500,6,8,3,2,2,-2,-1,4
1558438335246460,5,8,4,1,-1,1,1,1
1558438335246460,-8,-7,2,-2,-6,-5,-6,-4
1558438335253500,-5,-13,-10,-4,-8,-10,-4,-4
1558438335253500,1,7,0,2,4,5,11,1
1558438335260758,-2,-6,-2,0,2,5,-2,0
1558438335260758,-4,-4,-2,-2,-3,-6,2,-4
1558438335267706,5,7,13,10,10,0,-5,3
1558438335267706,-4,0,-7,-13,-9,-2,-4,-4
1558438335282686,-5,-9,-24,-6,-4,-1,2,2
1558438335282686,-2,-1,4,5,3,6,-3,-4
1558438335291527,2,-3,1,-3,-7,3,-7,-2
1558438335291527,1,-2,-3,4,6,7,11,4
1558438335306374,-3,-4,3,-2,6,7,5,-1
1558438335306374,-1,0,-4,-5,-11,-15,-5,-1
1558438335306374,3,-3,-1,4,7,6,0,4
1558438335306374,-2,-2,-1,-11,-10,-7,-13,-6
1558438335320559,0,-3,1,-1,-5,-8,0,-1
1558438335320559,1,-2,-6,-3,-2,-8,7,0
1558438335327242,-3,-2,-2,2,-3,-4,6,3
1558438335327242,-2,-2,-2,3,0,-3,-16,-4
1558438335342200,-5,0,1,-4,-9,-5,-1,0
1558438335342200,0,-2,3,3,3,3,7,2
1558438335351179,3,4,3,0,4,1,4,5
1558438335351179,-2,3,7,-4,-10,-10,-4,-2
1558438335366138,-2,-8,-26,-2,2,-2,-2,0
1558438335366138,-4,-1,6,-3,-10,-4,-5,-1
1558438335366138,-3,-2,-2,-4,-4,1,-2,-5
1558438335366138,-2,-3,-4,0,6,9,8,2
1558438335380102,-1,3,11,3,4,-2,-6,-4
1558438335380102,0,1,-2,-7,-2,2,-2,0
1558438335387203,-2,-6,-4,0,-2,-3,-7,-2
1558438335387203,1,0,4,5,7,1,5,4
1558438335402170,1,4,15,8,9,10,11,0
1558438335402170,-3,-4,-8,-6,-4,-2,-7,1
1558438335411220,3,2,-1,-1,7,4,9,3
1558438335411220,-1,-3,-6,-4,-10,-11,-2,-1
1558438335425977,0,4,4,0,-2,0,-12,-3
1558438335425977,-1,-3,0,2,5,3,5,0
1558438335426974,-5,-6,-4,-10,-13,-10,-19,-11
1558438335426974,-2,0,-1,2,1,-1,7,-3
1558438335440151,1,1,4,1,4,5,10,4
1558438335440151,0,-1,5,3,4,-2,4,1
1558438335447923,-2,-3,-10,-5,-1,3,-8,-2
1558438335447923,-3,-1,-3,-3,-9,0,-12,-2
1558438335462884,0,0,1,-5,-7,-14,6,2
1558438335462884,-2,-4,-16,1,6,11,2,1
1558438335470888,-1,-1,1,-1,3,-2,8,2
1558438335470888,3,4,9,5,1,-6,-13,2
1558438335485820,-2,-2,-5,-1,-1,6,-6,-4
1558438335485820,0,-2,4,1,-3,-1,5,-1
1558438335486817,1,-1,2,-1,-2,-6,-4,-5
1558438335486817,-3,-5,-12,-6,5,14,2,-2
1558438335499781,-2,0,9,0,-1,0,-12,-3
1558438335499781,2,0,-10,-1,3,2,2,1
1558438335507787,-1,-1,-1,-1,-1,1,-1,0
1558438335507787,-3,0,6,6,2,3,-5,-6
1558438335522728,-6,-5,-8,-7,-2,4,1,-4
1558438335522728,-2,-5,-2,-4,-5,-1,-13,-6
1558438335530700,2,-1,5,0,0,-4,15,4
1558438335530700,-1,-1,-8,0,1,1,0,0
1558438335545668,-2,-1,3,3,1,1,0,-1
1558438335545668,-2,1,10,4,-5,-2,-7,-2
1558438335546656,-2,1,1,-1,7,3,-8,-3
1558438335546656,-1,-5,-22,-6,-2,-5,2,1
1558438335559749,3,5,7,3,0,-4,-3,4
1558438335559749,-2,-2,0,-4,-3,-8,0,-2
1558438335567602,0,2,8,2,-1,4,-1,1
1558438335567602,0,-4,-7,-9,-4,-1,-5,0
1558438335582602,-4,-2,-2,-3,-2,-3,2,-4
1558438335582602,-1,-3,-1,2,0,1,-9,-7
1558438335598518,1,2,1,-2,-3,-4,5,1
1558438335598518,-6,-4,6,3,1,-2,-7,-2
1558438335606497,2,3,1,3,7,7,12,3
1558438335606497,0,-1,3,-1,0,1,-2,-1
1558438335606497,-5,-7,-5,1,-4,-11,-1,-2
1558438335606497,3,0,-6,-7,-6,-9,-2,0
1558438335620576,-1,-1,-4,-11,-17,-17,-28,-6
1558438335620576,-6,0,3,2,5,6,14,0
1558438335627439,2,6,-10,-1,0,4,0,-3
1558438335627439,-6,-14,2,0,-3,-8,-1,-3
1558438335642400,-4,-7,2,4,0,-1,3,-3
1558438335642400,9,11,2,1,2,-1,1,5
1558438335650378,-5,-15,-14,-6,-9,-1,-4,1
1558438335650378,-11,2,7,2,-1,-4,4,-3
1558438335665350,-1,-9,-3,-3,-4,2,5,-1
1558438335665350,-1,12,2,-2,-6,-6,-8,-2
1558438335673319,1,16,-3,-3,6,7,-3,0
1558438335673319,3,-12,0,1,-1,-2,4,0
1558438335680300,1,4,-3,-5,4,6,7,2
1558438335680300,-4,-14,-4,0,-3,-4,-9,1
1558438335687279,-2,5,4,2,4,6,-2,-3
1558438335687279,4,4,13,3,4,6,2,3
1558438335702240,6,9,3,4,6,1,3,3
1558438335702240,2,-7,-27,-20,-11,-1,-3,-2
1558438335710218,-16,-2,-5,0,-6,0,-8,-10
1558438335710218,0,-3,2,-4,-3,-2,-7,-5
1558438335725178,6,14,12,5,6,-2,2,4
1558438335725178,-8,-19,-11,-4,-2,-6,-9,-5
1558438335733157,3,-3,1,1,-4,-5,7,3
1558438335733157,3,3,-13,1,11,16,15,3
1558438335740137,2,8,4,2,-2,2,3,2
1558438335740137,8,17,14,8,-2,-7,-1,-3
1558438335747119,0,-11,2,0,6,6,9,4
1558438335747119,-11,-7,-27,-13,-11,-12,-12,-5
1558438335762079,-2,4,-3,-3,-5,-12,-9,0
1558438335762079,-7,-18,13,8,8,14,3,0
1558438335771055,9,9,6,2,-7,-11,-2,1
1558438335771055,6,13,17,5,2,1,1,1
1558438335785021,-15,-24,-29,-17,-6,-3,-3,-7
1558438335785021,-3,-3,-6,-8,-2,1,14,0
1558438335792996,7,4,14,7,2,-10,-26,-3
1558438335792996,15,21,18,6,10,8,-3,10
1558438335799980,-10,-15,-9,-2,-5,-4,0,-3
1558438335799980,-3,3,-1,1,-3,-4,-4,-6
1558438335807957,2,2,-1,-3,1,8,10,0
1558438335807957,-2,-12,9,0,-5,-7,-3,2
1558438335822917,1,4,10,4,4,6,6,0
1558438335822917,0,-2,-21,-7,-6,-7,5,4
1558438335830897,-7,-2,3,-3,-10,-10,-9,-5
1558438335830897,-4,1,-17,-8,-5,-5,3,-2
1558438335844859,2,3,7,5,8,6,2,3
1558438335844859,0,-1,0,0,4,10,-10,-2
1558438335860825,-7,-9,-9,-9,-5,-3,3,-2
1558438335860825,3,1,8,3,0,-10,4,0
1558438335867796,-3,-12,-7,-4,-7,-1,2,-7
1558438335867796,5,11,11,4,-2,-3,-10,-3
1558438335868795,5,8,11,3,8,10,10,5
1558438335868795,-12,-14,-28,-9,0,6,8,-2
1558438335882756,-1,-1,-1,4,0,-4,-7,0
1558438335882756,-5,-2,0,-3,0,-7,-3,-4
1558438335890735,4,-7,-5,-3,-4,-1,4,0
1558438335890735,2,4,6,3,2,-1,3,-3
1558438335904703,4,12,8,-1,-1,-8,-3,2
1558438335904703,0,-5,5,6,2,1,4,1
1558438335920931,-4,-9,-18,-12,-2,3,1,0
1558438335920931,-3,-5,-5,-3,-3,2,-2,-1
1558438335928633,3,-2,-3,-2,-8,-10,-6,0
1558438335928633,6,15,18,7,4,0,-2,2
1558438335928633,-4,-11,-21,-7,-1,0,3,1
1558438335928633,2,6,11,5,6,0,-1,-4
1558438335942598,-1,0,-4,-5,-5,-1,-3,-3
1558438335942598,-2,-8,-11,-3,-1,-4,-5,1
1558438335950577,-1,2,9,2,-3,-7,-6,-4
1558438335950577,0,-1,-17,-11,-10,-6,-8,-2
1558438335965535,-5,-3,6,8,5,4,2,-1
1558438335965535,-4,-1,-18,-8,0,0,1,-1
1558438335973516,-3,1,8,3,-2,-7,-4,-2
1558438335973516,-6,-12,-19,-12,-11,-6,-10,0
1558438335988477,1,1,7,7,-3,2,4,-3
1558438335988477,6,11,3,1,2,0,0,3
1558438335988477,-2,-5,10,-6,-5,-8,-5,0
1558438335988477,6,12,12,9,9,11,-2,-2
1558438336002446,-8,-19,-6,-3,-5,-5,-11,-6
1558438336002446,-8,-6,-13,-6,1,7,8,2
1558438336010425,1,-3,3,8,-1,0,2,3
1558438336010425,7,5,16,7,5,3,1,-1
1558438336025375,-7,-9,-28,-15,-4,-5,-2,-4
1558438336025375,4,3,4,-1,-4,-10,-17,-3
1558438336033356,-3,-3,-6,2,5,8,1,-2
1558438336033356,0,1,11,1,-9,-12,5,-1
1558438336056306,5,2,11,10,13,11,-3,5
1558438336056306,-2,4,6,0,-4,-1,3,-1
1558438336057291,-8,-15,-16,-10,-7,-9,-12,-6
1558438336057291,-5,-3,3,0,3,4,-3,-6
1558438336062276,9,16,26,14,3,-2,2,4
1558438336062276,-12,-26,-53,-29,-14,-8,4,-2
1558438336070268,2,10,13,11,8,7,-6,1
1558438336070268,-2,-8,-5,0,-2,0,1,-2
1558438336085217,8,10,-8,-10,-5,-2,-3,-1
1558438336085217,-10,-5,37,18,5,-1,18,5
1558438336093199,0,-2,-17,-10,5,5,-2,2
1558438336093199,-5,1,2,7,-1,-1,-1,1
1558438336108157,-1,-1,-6,-6,-2,1,-9,-2
1558438336108157,1,-2,6,2,-1,2,1,0
1558438336109150,-1,-1,-21,-7,-4,2,8,-1
1558438336109150,4,14,23,13,6,0,0,2
1558438336122117,-8,-13,-30,-12,-9,-11,2,-3
1558438336122117,-8,-15,10,6,8,9,-9,-4
1558438336131091,0,1,8,-3,-2,-3,-6,-3
1558438336131091,0,-3,-15,-9,-5,-1,2,-2
1558438336145057,-4,3,6,-1,-6,-2,-6,-2
1558438336145057,5,9,-2,-4,3,3,6,-1
1558438336153034,-2,-1,13,10,6,4,4,0
1558438336153034,-3,-5,-3,-2,-4,-6,-9,-3
1558438336167994,1,-3,-5,-7,2,1,7,-1
1558438336167994,0,1,-8,1,-2,0,-6,-2
1558438336168993,-2,-2,-6,-11,-11,-10,-2,-2
1558438336168993,2,9,36,19,4,3,1,2
1558438336181957,-11,-23,-62,-32,-8,3,6,-2
1558438336181957,6,12,12,10,4,-2,-7,-2
1558438336190931,0,-3,-6,-11,-1,2,-8,-1
1558438336190931,2,-4,-4,-6,-1,1,7,4
1558438336204898,3,7,10,8,3,4,11,4
1558438336204898,3,10,12,4,-5,-8,-19,-3
1558438336212877,-6,-20,-17,-1,1,8,6,-4
1558438336212877,4,9,19,6,7,-1,-2,2
1558438336227834,-10,-13,1,-3,2,1,-4,-4
1558438336227834,1,4,4,-1,3,0,10,3
1558438336228831,2,3,-5,6,1,-3,4,0
1558438336228831,1,9,-19,-11,-10,-4,-1,-1
1558438336242803,0,-9,26,12,4,0,-1,-1
1558438336242803,1,-6,-9,-3,-4,0,13,1
1558438336250772,-4,6,13,7,1,-5,-10,-4
1558438336250772,-13,-22,-30,-12,-5,-6,-12,-9
1558438336264735,4,15,7,1,-4,0,4,3
1558438336264735,1,3,18,9,2,-2,-12,-1
1558438336273710,-4,-5,-21,-14,-7,-4,1,-2
1558438336273710,-1,-3,-8,0,5,4,3,0
1558438336288669,-11,-7,-2,-3,-3,-2,-4,-5
1558438336288669,1,4,12,2,3,3,4,1
1558438336288669,4,8,-2,-4,-8,-6,-5,-1
1558438336288669,-5,-1,-4,-8,-2,-1,-14,-5
1558438336302634,5,-4,7,8,8,4,8,3
1558438336302634,6,10,9,7,2,-2,2,0
1558438336310616,-7,-4,-5,-4,3,2,6,-1
1558438336310616,-8,-17,-5,-2,-5,-1,-3,-1
1558438336324575,4,6,1,2,3,1,7,5
1558438336324575,-2,6,-2,-4,-1,4,-5,-2
1558438336333556,3,4,0,3,4,1,8,3
1558438336333556,2,1,4,1,3,2,7,0
1558438336348512,1,5,-7,-6,-10,-11,-6,0
1558438336348512,-2,-7,9,7,5,2,-3,0
1558438336348512,-4,-8,-17,-7,-6,-6,-5,-2
1558438336348512,-1,2,13,7,7,2,11,8
1558438336362474,0,-2,-14,-9,-10,-3,-14,-6
1558438336362474,5,2,-10,-6,-7,-1,-1,-4
1558438336370451,-10,2,1,-12,-16,-12,-3,-2
1558438336370451,-11,-22,-12,-2,0,-2,-2,-5
1558438336385410,1,3,5,6,3,0,-3,-1
1558438336385410,-2,-3,9,6,8,6,7,3
1558438336393390,6,7,12,9,5,7,-1,1
1558438336393390,-5,-3,-16,-11,-13,-7,-4,-2
1558438336408350,3,8,25,13,3,-2,4,1
1558438336408350,0,0,-5,-9,-1,-6,8,2
1558438336408350,-2,-3,-7,5,4,0,3,1
1558438336408350,0,3,-12,-10,-10,-5,-12,-3
1558438336422313,0,-1,10,6,4,2,-7,-2
1558438336422313,-2,-5,-6,3,-4,-6,-4,-1
1558438336430292,4,0,12,-2,1,0,6,3
1558438336430292,5,3,11,6,-1,0,-10,1
1558438336445252,-16,-20,-32,-19,-9,2,-13,-10
1558438336445252,3,9,-9,-5,-4,-8,4,5
1558438336453231,1,3,10,10,11,11,14,4
1558438336453231,6,5,6,1,1,-5,1,-4
1558438336468196,-6,0,21,10,3,-1,0,-1
1558438336468196,-8,-12,-29,-19,-8,-3,-11,-5
1558438336469187,1,-3,-2,0,0,3,-2,-1
1558438336469187,5,13,17,8,10,8,4,0
1558438336482153,2,4,-1,0,-1,3,-3,-1
1558438336482153,-10,-18,-29,-19,-13,-9,-13,-7
1558438336491128,4,11,42,19,3,-2,-3,-1
1558438336491128,-2,-7,-27,-14,-1,-1,2,1
1558438336505093,3,0,-9,-4,3,2,2,2
1558438336505093,-6,-6,-2,0,-2,6,-3,-1
1558438336513071,-4,-13,-3,-2,-3,-6,-9,-2
1558438336513071,1,0,14,9,-2,-4,-4,0
1558438336528029,12,17,44,15,13,6,5,4
1558438336528029,4,0,-1,5,2,9,14,2
1558438336529033,-13,-23,-65,-32,-12,-6,-11,-11
1558438336529033,-6,7,1,7,5,6,0,-2
1558438336542990,-7,-17,-34,-16,-7,-8,-8,0
1558438336542990,2,9,17,8,2,0,0,-1
1558438336549977,5,3,22,11,10,5,5,4
1558438336549977,2,1,-8,-7,-9,-4,4,-1
1558438336564931,8,10,2,1,0,0,-1,3
1558438336564931,-6,-7,8,-2,-8,-10,-1,-5
1558438336572909,2,8,-4,0,-5,-2,-11,-4
1558438336572909,-2,-3,9,6,11,7,5,0
1558438336587870,2,3,5,1,3,-4,-6,-3
1558438336587870,-3,-5,-19,-12,-1,0,-1,-1
1558438336595855,-7,-12,-5,-4,-10,-6,1,-5
1558438336595855,-2,-2,-4,-2,-1,-3,-2,0
1558438336602841,-4,-4,-3,-3,-6,-7,-4,-4
1558438336602841,1,1,1,0,1,1,-4,0
1558438336617791,6,14,13,4,-1,2,-3,3
1558438336617791,-1,0,4,2,3,1,4,0
1558438336624773,1,18,63,30,20,7,20,9
1558438336624773,-14,-36,-93,-46,-20,-7,-11,-7
1558438336632778,1,4,7,0,-6,-3,3,-2
1558438336632778,-1,-2,7,3,-3,-3,-5,-5
1558438336647710,1,4,-7,-12,-6,-4,10,0
1558438336647710,3,11,27,10,6,1,-11,-5
1558438336655688,1,-2,-4,0,2,0,-5,-1
1558438336655688,-1,0,-19,-11,-11,-2,-4,-1
1558438336662675,4,2,3,3,1,0,0,1
1558438336662675,-10,-11,14,10,5,2,-5,0
1558438336669650,-4,-6,-12,-9,-7,7,15,3
1558438336669650,3,6,24,14,8,-5,3,0
1558438336684612,0,-12,-30,-7,7,3,13,4
1558438336684612,2,2,20,10,0,-8,-4,-3
1558438336693587,0,4,-3,-1,5,2,-2,-1
1558438336693587,-7,-10,-16,-9,-10,-3,2,0
1558438336707550,-5,-9,-18,-13,-12,-5,-9,-5
1558438336707550,2,4,-2,1,0,-1,4,0
1558438336715539,4,9,33,16,6,2,-5,1
1558438336715539,-2,-6,-12,-10,-3,-4,2,3
1558438336722520,-2,-1,-21,-8,-6,-5,-11,-4
1558438336722520,1,3,32,12,11,11,10,6
1558438336730492,-3,-5,-16,-6,-3,-4,0,-1
1558438336730492,-5,-13,-11,-7,-6,-1,-7,-3
1558438336745451,1,-2,2,3,-6,-3,-3,-3
1558438336745451,4,9,11,9,7,-1,4,2
1558438336753436,-3,-4,-18,-6,-5,-8,-10,0
1558438336753436,-4,-6,-10,-7,-5,2,13,-2
1558438336767419,-5,-6,-10,2,3,7,-4,-5
1558438336767419,6,7,14,4,4,2,-9,0
1558438336775368,-2,1,1,0,1,0,4,1
1558438336775368,-3,-8,-7,-3,-4,-8,-9,2
1558438336790332,7,17,37,14,-1,3,5,2
1558438336790332,-15,-30,-67,-31,-13,-9,-2,-4
1558438336791326,1,-1,10,1,5,6,2,1
1558438336791326,-1,2,2,-4,-9,1,-7,-7
1558438336805289,1,5,10,5,4,-4,-4,0
1558438336805289,10,17,17,5,8,1,10,6
1558438336813267,-10,-18,2,6,2,3,1,-4
1558438336813267,-1,-5,-19,-9,-5,0,-2,-1
