timestamp,emg1,emg2,emg3,emg4,emg5,emg6,emg7,emg8
1558451825784080,1,-3,6,9,5,3,3,0
1558451825784080,3,6,5,-4,-2,0,3,1
1558451825789567,6,6,7,-2,-7,-3,-2,0
1558451825789567,-4,-3,-13,-4,-7,-5,-3,-3
1558451825790063,-4,-10,3,4,7,-2,-3,-4
1558451825790063,2,6,-2,-11,-8,-1,-3,0
1558451825792057,-4,-5,3,8,-2,-3,1,1
1558451825792057,-3,-8,-5,2,2,3,-1,-3
1558451825803034,4,9,5,-17,-4,-3,-2,0
1558451825803034,-4,-9,3,12,-4,-4,-5,-1
1558451825814024,0,4,0,0,3,-2,-5,-3
1558451825814024,2,9,5,-7,-3,2,2,0
1558451825817989,0,-5,-10,3,-1,1,2,4
1558451825817989,-3,-6,2,-5,-6,-4,0,-4
1558451825832947,0,-8,-16,-7,9,4,-1,1
1558451825832947,2,4,-2,8,-2,-2,1,0
1558451825840926,-7,1,-14,-5,-4,-3,-4,-3
1558451825840926,-2,0,-5,-2,-3,-2,-4,-1
1558451825848905,-4,-6,-6,-4,-7,-1,0,-2
1558451825848905,3,10,11,12,10,1,-5,-4
1558451825862904,2,1,3,-16,-5,-2,-3,-1
1558451825862904,0,-5,-12,7,0,-4,1,1
1558451825872841,1,6,8,3,7,5,-1,-4
1558451825872841,-2,-3,-2,-1,0,0,0,1
1558451825909743,-5,-14,-13,-8,-1,1,4,1
1558451825909743,1,4,-11,-8,-3,-4,1,1
1558451825910864,-3,-3,5,3,-10,-6,-3,-4
1558451825910864,-1,5,7,1,5,4,1,-1
1558451825911754,3,6,9,4,-1,-2,-2,0
1558451825911754,4,8,17,12,10,6,3,0
1558451825914730,-5,-14,-21,-23,-3,-2,-3,-4
1558451825914730,1,3,-4,-5,-3,-3,-1,1
1558451825922734,-1,-3,6,14,-1,-1,-3,-1
1558451825922734,-8,-11,-6,-10,-5,-2,0,-1
1558451825931683,6,21,12,8,7,0,2,0
1558451825931683,-5,-17,-4,1,-5,-3,-3,-4
1558451825937667,0,-5,-6,-8,2,0,2,0
1558451825937667,5,5,6,6,1,1,-4,-2
1558451825960151,-8,-5,-7,-15,-3,0,3,4
1558451825960151,-2,-10,-5,8,-5,-2,0,0
1558451825961280,1,7,7,5,5,2,-3,0
1558451825961280,-1,-5,2,-5,5,8,5,0
1558451825969127,-2,3,-18,-1,-8,-4,-6,-2
1558451825969127,-3,-2,-4,-13,-8,-3,-3,-2
1558451825991111,2,2,-7,1,-2,-1,3,0
1558451825991111,-5,-6,0,-17,-3,-3,-4,-5
1558451825993064,4,5,9,18,12,3,0,-1
1558451825993064,-1,-6,-1,-11,1,-3,-1,1
1558451825997053,-2,9,5,8,-3,-1,-2,-4
1558451825997053,-4,-7,-21,-5,-10,-7,-9,-4
1558451826012088,6,7,10,0,1,-2,-1,1
1558451826012088,-3,-7,-8,-4,-6,-4,0,-1
1558451826019991,-3,-6,-1,-9,-3,1,-4,-2
1558451826019991,0,1,15,10,1,2,-1,0
1558451826028967,-2,-4,-22,-21,-1,3,-1,-1
1558451826028967,2,2,7,24,-3,-1,1,0
1558451826041949,-1,-2,-8,-33,-7,1,0,-1
1558451826041949,-6,0,0,6,2,-2,2,0
1558451826051429,-3,-2,4,10,-3,-4,-4,-4
1558451826051429,0,0,2,2,1,0,-1,0
1558451826057413,-1,-10,-7,-1,-2,-6,-3,-1
1558451826057413,3,3,15,17,9,7,3,2
1558451826072375,1,1,-8,-27,-5,-4,-3,1
1558451826072375,-8,-7,-12,-20,-6,-2,1,-3
1558451826079353,4,5,3,9,3,-1,-4,-2
1558451826079353,0,-2,-3,-1,3,-3,-1,0
1558451826089008,-5,-13,3,19,1,2,0,-3
1558451826089008,1,8,2,0,-2,-7,-5,-1
1558451826102293,0,0,-5,1,7,3,-1,-1
1558451826102293,0,1,4,-8,-3,-3,2,2
1558451826111539,-3,-13,-18,-2,-1,3,-2,1
1558451826111539,1,-6,4,3,1,-2,0,0
1558451826117252,-3,3,2,3,-8,-7,-5,-4
1558451826117252,5,8,-9,-5,-3,0,-3,0
1558451826148201,0,-1,6,0,1,1,2,0
1558451826148201,-1,-2,-1,2,1,-1,-1,-1
1558451826149592,0,-2,6,5,2,-1,1,1
1558451826149592,-1,-4,-15,-15,-9,-7,-3,-3
1558451826155164,3,14,11,18,-3,-5,-8,-4
1558451826155164,-6,-17,-22,-37,3,6,2,-1
1558451826162145,-4,-1,4,3,-5,-2,1,-3
1558451826162145,1,-2,6,14,5,2,8,2
1558451826171655,0,-4,2,10,-1,0,-3,-3
1558451826171655,1,13,-3,-11,-2,0,-1,-1
1558451826193063,-4,-9,-11,-12,-7,0,-3,-4
1558451826193063,-5,-14,-3,-1,0,-5,-3,-2
1558451826200075,2,8,13,6,0,0,3,1
1558451826200075,1,6,3,11,5,2,-3,-3
1558451826201042,-8,-11,-18,-31,-11,-10,-10,-5
1558451826201042,-1,2,3,15,-2,-5,-8,-2
1558451826215007,-3,-12,-3,-24,2,3,8,2
1558451826215007,4,2,16,12,0,-1,-4,-4
1558451826222042,5,11,1,15,8,3,1,3
1558451826222042,-8,-4,-7,-8,-5,1,-3,-3
1558451826230965,-2,-7,1,-17,3,1,-3,-2
1558451826230965,3,12,9,10,-6,-3,-1,2
1558451826236947,2,2,2,-4,12,5,5,4
1558451826236947,-2,-12,9,16,3,1,0,-2
1558451826252454,2,5,0,2,-2,3,2,3
1558451826252454,-2,0,-26,-42,-6,-2,-4,-4
1558451826259435,1,-2,2,10,1,-2,-1,1
1558451826259435,-4,-5,-9,-21,-7,-2,1,-3
1558451826274485,-3,-5,2,0,-7,-4,-4,-3
1558451826274485,6,14,22,22,2,-1,-4,-3
1558451826282373,-2,-2,-2,-1,-2,4,2,-2
1558451826282373,5,7,1,4,5,1,2,4
1558451826291350,-12,-19,-14,-8,-8,-8,-5,-7
1558451826291350,-1,-2,4,8,6,0,-3,0
1558451826297333,-3,-7,-2,-4,-3,-3,-2,-2
1558451826297333,-1,2,2,4,-6,-1,-3,0
1558451826312298,3,9,-1,1,0,1,-1,2
1558451826312298,-3,3,4,16,5,3,-1,-2
1558451826320281,-2,-10,1,0,0,3,2,-3
1558451826320281,-2,-1,-25,-23,-1,0,0,-1
1558451826335239,4,5,8,7,3,-1,1,3
1558451826335239,-6,-11,-8,0,-2,-1,0,0
1558451826342225,0,1,1,11,-2,-2,-6,-3
1558451826342225,2,3,1,4,-1,1,1,-2
1558451826352379,-6,1,-9,-14,-4,-1,-4,-3
1558451826352379,5,2,10,8,8,9,11,3
1558451826357373,-3,-2,-5,-9,-9,-8,-3,-1
1558451826357373,1,-1,0,12,0,1,3,3
1558451826372373,-4,-7,-11,3,1,-3,-2,-3
1558451826372373,-5,-14,-2,-1,-6,-7,-5,-3
1558451826380311,2,6,4,0,8,1,-2,-1
1558451826380311,4,8,18,8,-1,-2,-3,1
1558451826395271,3,4,-19,-6,4,1,0,0
1558451826395271,-5,-3,2,-5,-9,-5,-4,-1
1558451826402255,-6,-12,-7,-10,-6,-5,1,-2
1558451826402255,-2,-3,-4,-2,3,-4,-6,-1
1558451826411661,0,0,7,0,3,3,3,2
1558451826411661,5,10,9,15,15,11,-1,2
1558451826425358,3,-9,-15,-30,-11,-6,-3,-3
1558451826425358,-12,-6,-5,8,-4,-6,-3,-4
1558451826432173,3,5,7,6,0,1,3,-1
1558451826432173,-2,-13,-3,1,-3,-5,0,-5
1558451826440160,6,10,16,10,5,4,1,6
1558451826440160,1,-8,-15,-19,-8,-4,1,-2
1558451826455060,2,3,11,9,0,-3,-2,-3
1558451826455060,-6,-2,-5,-10,-12,-2,-6,-2
1558451826462040,5,11,15,12,10,7,1,1
1558451826462040,-2,-10,3,10,0,-4,-2,1
1558451826471023,-4,-7,-11,-22,-9,-5,-5,-2
1558451826471023,0,-3,-19,-14,-4,-4,1,-2
1558451826485978,-3,2,11,16,4,4,2,-2
1558451826485978,2,10,6,-9,-5,-3,-3,-2
1558451826491959,-4,-12,1,10,-1,-4,-2,-1
1558451826491959,5,10,2,-13,-3,-2,2,1
1558451826499939,-8,-13,-15,-7,-12,-9,-7,-7
1558451826499939,-4,0,-4,-5,1,1,2,-1
1558451826514899,0,-4,17,19,9,6,2,0
1558451826514899,1,3,-6,-4,1,4,2,3
1558451826521880,-3,-5,-9,-6,-8,-6,0,-1
1558451826521880,2,6,7,-8,-3,2,-5,-3
1558451826531085,0,3,3,0,-8,-7,-5,-2
1558451826531085,-4,-8,-12,-3,11,4,2,-1
1558451826545816,3,6,9,8,3,3,1,1
1558451826545816,3,0,1,5,0,1,0,-1
1558451826552408,-5,1,2,4,-2,-5,-2,-2
1558451826552408,-4,-15,-4,-8,0,-1,-1,-4
1558451826560332,0,4,8,12,1,-2,-2,-1
1558451826560332,7,13,-4,-7,-2,0,0,-2
1558451826575293,1,-6,7,-5,2,5,4,3
1558451826575293,-3,0,19,21,-5,-9,-7,-3
1558451826582271,-7,-13,-34,-42,-6,-5,-2,-2
1558451826582271,2,6,3,5,1,3,-2,-2
1558451826591248,2,-1,-8,6,6,2,0,-1
1558451826591248,1,-1,1,-3,-5,-7,-4,-3
1558451826605286,0,5,16,19,3,7,8,3
1558451826605286,-5,-8,-16,-16,2,3,-1,-1
1558451826612192,3,7,-1,-6,-3,2,-1,0
1558451826612192,1,4,1,16,0,4,3,0
1558451826620171,-4,-3,-15,-11,-7,-5,-6,-1
1558451826620171,-1,-2,2,2,-8,-6,-1,-2
1558451826635131,-5,-5,-10,-9,1,0,2,-1
1558451826635131,-4,-9,3,0,-3,-5,-5,-2
1558451826642112,1,5,-3,0,2,2,-3,0
1558451826642112,-3,-7,-1,-8,0,-3,-3,-4
1558451826651088,6,6,-9,-6,-11,-8,-4,-2
1558451826651088,-8,-5,-1,-2,3,4,0,-1
1558451826665292,5,0,14,11,1,2,1,3
1558451826665292,-2,-6,-10,-35,-6,-3,0,-1
1558451826672277,1,0,7,16,-2,-5,-6,-1
1558451826672277,0,0,-5,-7,-4,-1,3,1
1558451826679545,-2,1,9,5,-2,-2,-1,-1
1558451826679545,-2,1,0,12,-1,-2,0,0
1558451826695007,-2,-4,3,-5,-1,0,-1,-1
1558451826695007,0,-4,-9,-2,4,3,0,0
1558451826702706,-2,7,5,3,0,-2,-1,-1
1558451826702706,-3,-14,-11,-5,-4,-6,-2,0
1558451826711064,-1,2,1,-5,0,0,-2,-2
1558451826711064,2,-1,3,6,-1,1,-2,0
1558451826725828,1,-2,4,9,5,0,1,0
1558451826725828,1,9,-2,7,4,1,-2,-2
1558451826731817,-1,-4,-4,-6,-2,1,0,-1
1558451826731817,1,1,-5,-10,-2,-5,-1,2
1558451826739803,-5,-12,-5,-10,-7,1,0,-3
1558451826739803,-1,-1,3,7,3,2,-1,-1
1558451826754942,-2,4,0,-2,2,-4,-5,-5
1558451826754942,4,6,3,-2,-4,-1,-1,-2
1558451826761903,7,8,14,12,9,9,9,5
1558451826761903,-8,-12,-13,-7,-7,-3,-3,-3
1558451826771582,2,-5,0,-3,2,2,6,1
1558451826771582,-8,2,6,6,0,-5,-3,-1
1558451826785160,-1,-6,-22,-16,-8,-6,-4,-1
1558451826785160,1,2,11,4,-1,3,5,1
1558451826794134,0,1,-3,3,0,-1,0,0
1558451826794134,-2,-3,-3,-6,-8,-10,-6,-6
1558451826799722,-2,-2,-10,-1,5,6,3,-1
1558451826799722,2,7,9,15,7,4,3,2
1558451826814681,0,-2,9,-9,1,4,1,1
1558451826814681,-7,-11,-32,-18,-11,-10,-5,-3
1558451826822659,-1,0,-7,-5,-2,-3,-3,-5
1558451826822659,-3,-9,-4,-5,-3,-2,-2,2
1558451826831636,-4,-5,5,9,-3,0,-1,-4
1558451826831636,5,7,15,9,5,0,-1,-1
1558451826844604,-1,7,-2,-4,-5,-5,-2,-2
1558451826844604,0,-2,-5,6,5,4,0,0
1558451826853676,-3,0,-8,-12,-10,-1,-1,0
1558451826853676,-1,-6,0,-7,0,3,1,2
1558451826859560,-1,-4,-4,6,-6,-8,-5,-5
1558451826859560,4,6,6,7,3,1,-2,-1
1558451826874520,-2,0,0,0,0,-1,-1,0
1558451826874520,10,20,5,1,-2,1,3,2
1558451826882499,-8,-20,3,3,9,9,6,1
1558451826882499,-7,-5,10,13,-3,-7,-5,-5
1558451826897008,0,1,-11,-5,-1,-1,-4,-2
1558451826897008,-2,-6,-18,-28,0,0,6,3
1558451826904983,2,4,11,11,0,-5,-3,-2
1558451826904983,-2,-1,-4,-3,-2,-2,-2,-1
1558451826920941,-1,3,8,7,2,0,1,-1
1558451826920941,-3,0,7,13,-3,-4,-7,-6
1558451826920941,-3,-2,-5,-5,3,9,2,-1
1558451826920941,0,4,2,-19,-6,-4,0,1
1558451826934937,-4,-11,-6,8,-8,-9,-7,-6
1558451826934937,0,5,6,7,4,6,-2,-1
1558451826941885,1,1,15,8,0,-4,-5,0
1558451826941885,-2,-5,-24,-27,-9,-4,4,-1
1558451826956926,2,1,0,1,-1,0,1,0
1558451826956926,-2,-3,-7,-3,2,3,1,-2
1558451826965053,-5,-13,-2,-12,-11,-11,-7,-4
1558451826965053,-1,6,15,15,9,1,1,2
1558451826980781,-5,-13,-15,-7,-7,-3,-2,0
1558451826980781,2,2,5,-11,2,3,2,3
1558451826980781,0,7,5,12,-1,-3,1,-3
1558451826980781,0,-4,-17,-9,-5,-5,-7,-6
1558451826994777,-2,4,-3,-4,2,-3,1,-1
1558451826994777,-5,-19,8,14,-4,-2,0,0
1558451827002762,3,9,6,-3,-2,3,3,2
1558451827002762,-6,-13,-15,-19,0,5,1,-3
1558451827017722,0,1,2,0,-3,-7,-7,-4
1558451827017722,3,3,-4,12,3,2,2,1
1558451827024703,2,8,3,-15,-3,1,2,1
1558451827024703,-5,-2,9,5,-6,-5,-3,-2
1558451827040660,3,8,6,-3,8,1,-1,1
1558451827040660,-1,-13,-3,-9,2,2,0,-1
1558451827047641,2,5,-7,-5,-9,-10,-6,-3
1558451827047641,3,7,12,13,9,7,-2,0
1558451827054689,-8,-9,2,4,0,3,3,1
1558451827054689,2,9,16,9,6,0,-1,0
1558451827062600,-6,-15,-22,-4,-6,-4,-2,-3
1558451827062600,3,-2,2,0,-4,-7,-4,0
1558451827077562,1,5,2,7,3,2,10,1
1558451827077562,-1,-2,0,3,0,2,1,-2
1558451827084543,-5,-8,-5,-3,1,-1,-5,-3
1558451827084543,-2,0,3,3,-1,2,2,0
1558451827100500,-1,1,3,2,0,1,-6,-2
1558451827100500,-3,1,-11,-3,-2,-5,-2,-1
1558451827101498,7,11,12,7,12,9,7,5
1558451827101498,-3,-4,-6,-15,-13,-8,-5,-3
1558451827114464,-4,-8,-6,-7,-3,5,0,-1
1558451827114464,4,9,5,-4,0,1,0,-1
1558451827122442,-3,-9,-10,5,3,-1,3,0
1558451827122442,3,6,12,7,-1,-4,0,0
1558451827137401,-2,-8,-20,-9,-3,-1,1,-3
1558451827137401,1,3,6,6,-1,-2,1,-2
1558451827144382,-10,-1,-8,-6,-2,-5,-4,-5
1558451827144382,-1,-5,-9,-4,1,2,0,0
1558451827160342,3,0,9,4,-1,-1,1,3
1558451827160342,-2,-5,-8,-3,4,0,-4,-5
1558451827161337,0,-4,-4,1,-3,-2,-3,-2
1558451827161337,0,6,0,-6,0,1,4,-1
1558451827174304,-5,-7,5,6,1,-2,-2,-1
1558451827174304,-5,1,-10,-6,-12,-7,-6,-5
1558451827182281,4,-1,10,16,11,6,1,1
1558451827182281,-1,-1,-7,-7,4,4,-3,0
1558451827198605,2,0,-1,-2,-3,-5,-1,-3
1558451827198605,-1,1,2,-1,1,7,0,-1
1558451827204588,0,-1,4,2,-3,-2,-3,-1
1558451827204588,0,-9,-13,1,-1,-5,-3,-1
1558451827220547,-1,5,-3,-7,0,0,-1,-2
1558451827220547,-3,-5,-3,-5,-4,-1,3,-1
1558451827221543,1,14,6,1,2,-3,-3,-2
1558451827221543,-1,-14,11,12,10,3,1,-1
1558451827234509,-9,-10,-19,-24,-14,-6,-7,-3
1558451827234509,2,-8,3,6,5,1,3,4
1558451827250466,5,9,7,4,-3,1,0,-2
1558451827250466,1,3,0,-10,-5,-2,2,-1
1558451827257447,5,2,9,11,6,-1,0,-1
1558451827257447,-4,-7,-3,8,-1,-5,-9,-4
1558451827264429,-7,-16,-29,-38,-10,-6,2,0
1558451827264429,-2,5,4,7,-1,-3,-4,-3
1558451827280386,5,8,12,4,-2,-3,1,3
1558451827280386,-1,1,-7,-2,6,4,1,-1
1558451827281382,-6,-17,-20,-8,-5,1,0,0
1558451827281382,-1,13,0,1,-4,-4,-1,-2
1558451827294349,-3,-17,-9,-12,-7,-6,-7,-3
1558451827294349,3,14,12,7,5,2,4,2
1558451827302327,-1,-2,-1,-1,-2,-2,-1,0
1558451827302327,0,-3,-1,3,-1,1,-4,-1
1558451827317287,-1,3,-3,1,3,5,1,-3
1558451827317287,2,2,-7,-11,-13,-10,-5,-2
1558451827324663,-9,-4,2,-2,-8,-7,-8,-5
1558451827324663,1,-11,0,10,-2,0,2,2
1558451827357182,-2,7,11,9,-2,2,1,-1
1558451827357182,-4,-13,-24,-18,-3,-1,-3,-2
1558451827357182,2,11,3,-10,-5,-3,-5,-3
1558451827357182,1,0,4,5,1,4,2,0
1558451827359176,-5,-8,-18,-6,-7,-9,-2,-2
1558451827359176,2,0,4,-18,-5,1,0,2
1558451827362168,6,3,2,8,6,1,2,2
1558451827362168,0,7,10,9,4,2,-3,-4
1558451827377127,0,-1,0,-3,6,7,3,-1
1558451827377127,0,3,15,12,0,3,4,2
1558451827385191,-4,-21,-30,-19,-11,-3,-1,-2
1558451827385191,-4,-1,0,-8,1,0,-2,-1
1558451827408330,1,7,4,3,3,3,0,1
1558451827408330,-2,-2,8,4,-2,-3,-1,1
1558451827409325,4,7,7,10,-4,-4,-6,-2
1558451827409325,1,-6,-10,-6,-4,-1,0,-4
1558451827414311,-1,-8,-13,-10,-6,-4,0,0
1558451827414311,-12,-3,3,8,-3,-5,-3,-6
1558451827422289,3,3,1,-2,-3,-3,1,-1
1558451827422289,-1,-1,2,-1,2,-5,-5,2
1558451827437251,8,10,14,13,7,8,11,7
1558451827437251,1,-3,-11,-7,-1,3,-1,-1
1558451827445229,-2,-4,9,13,5,1,0,0
1558451827445229,-4,-1,-19,-18,-12,-5,-2,-2
1558451827460274,-4,-6,-9,-8,-1,-2,-5,-2
1558451827460274,-1,2,3,3,-5,-11,-3,-4
1558451827468393,2,-2,14,9,8,6,4,2
1558451827468393,0,0,1,9,5,1,3,2
1558451827475148,-1,4,0,-10,-2,-4,-5,-2
1558451827475148,-4,-13,-4,13,-2,-9,-11,-2
1558451827482130,0,5,5,-7,4,6,6,3
1558451827482130,1,-4,-16,-16,0,1,3,0
1558451827497630,-5,-1,-1,5,-5,-4,-4,-3
1558451827497630,2,3,2,-6,1,1,-2,0
1558451827512590,-5,-10,-4,-3,-3,-3,0,-1
1558451827512590,-4,-4,2,12,-2,0,1,-1
1558451827519583,0,2,1,1,1,1,-2,-1
1558451827519583,0,4,0,-3,-2,2,1,2
1558451827527550,0,1,4,7,4,2,3,-2
1558451827527550,-7,-5,-2,-4,1,0,0,-3
1558451827542509,7,5,6,12,-4,-3,0,0
1558451827542509,-8,-2,-9,-27,1,2,4,1
1558451827543658,-3,-16,-12,3,-2,-3,-8,-3
1558451827543658,-1,5,4,4,-4,-6,-6,-2
1558451827557468,-3,-10,8,10,8,7,3,-1
1558451827557468,8,11,3,6,6,7,6,3
1558451827564452,0,8,12,8,-2,-2,-5,0
1558451827564452,-6,-5,-16,-7,6,12,8,1
1558451827579409,-4,-7,-13,-29,-14,-11,-6,-6
1558451827579409,2,2,2,6,-3,-3,-1,-3
1558451827588452,-1,3,-3,-13,-7,-3,-1,-4
1558451827588452,3,5,19,12,1,-5,-1,0
1558451827603347,-3,-7,-4,1,2,0,-3,-2
1558451827603347,-4,-7,-11,-5,-3,0,-3,-3
1558451827603347,-1,3,5,3,-2,0,4,1
1558451827603347,1,2,-1,-5,-3,-4,-5,0
1558451827617309,5,10,7,14,7,-1,3,2
1558451827617309,-9,-7,-9,-20,-10,-6,-2,-6
1558451827624291,-12,-25,-25,-13,0,0,-1,-1
1558451827624291,1,-1,4,-4,-10,-7,-4,-3
1558451827640247,1,-2,3,15,4,1,0,2
1558451827640247,6,14,11,13,1,0,3,1
1558451827655207,2,6,1,-3,0,0,0,-2
1558451827655207,-6,-14,-10,-8,-3,-1,-3,-2
1558451827663186,6,11,20,12,7,1,-5,-2
1558451827663186,-2,-5,-8,0,-1,1,3,1
1558451827663186,3,7,-27,-31,-2,0,-2,-1
1558451827663186,2,2,1,-1,-7,-6,-4,-1
1558451827677149,-9,-19,1,-6,-5,-3,-1,-2
1558451827677149,-3,-7,-5,-3,6,2,-3,-2
1558451827685126,-1,2,8,15,0,-2,-3,0
1558451827685126,4,8,5,7,2,-2,-1,2
1558451827700088,-5,-1,-17,-20,-3,1,-2,-1
1558451827700088,-5,-4,4,14,-4,-2,0,-3
1558451827708065,0,-1,5,3,1,-3,-3,0
1558451827708065,4,4,-1,-10,-1,1,4,0
1558451827723026,-6,-3,-5,4,-8,-9,-5,-3
1558451827723026,-2,-10,-12,-24,-7,0,-3,0
1558451827724022,-1,2,6,14,3,2,5,-2
1558451827724022,-2,-10,-5,-7,-3,-4,-1,0
1558451827736989,4,8,10,9,8,7,5,1
1558451827736989,2,0,3,6,0,-3,1,-2
1558451827744966,-2,0,-8,-27,-11,0,-1,1
1558451827744966,-1,1,5,5,1,-4,-1,-1
1558451827759927,1,-1,0,-3,-2,3,2,3
1558451827759927,0,7,1,3,1,-5,-8,-2
1558451827767907,-3,-9,8,5,-4,-3,1,-2
1558451827767907,-3,-1,-4,3,2,2,3,1
1558451827782865,2,1,-5,-6,0,4,3,2
1558451827782865,1,-1,-5,-4,3,0,-1,-1
1558451827783863,-2,-3,-1,11,-1,-4,-5,-4
1558451827783863,-4,-4,-6,-13,0,4,0,0
1558451827796828,2,2,-8,-1,-3,-11,-5,-5
1558451827796828,3,9,11,0,-2,-1,-1,-2
1558451827804417,-2,-12,-7,1,8,7,4,2
1558451827804417,-12,-9,13,27,-7,-8,-7,-7
1558451827819433,1,2,-12,-13,-5,0,-3,-1
1558451827819433,2,-3,8,8,-1,0,6,6
1558451827828408,2,8,-4,-9,-3,-10,-7,-2
1558451827828408,-1,-4,4,-6,2,-1,-3,-1
1558451827843262,0,-6,0,0,-2,0,1,2
1558451827843262,0,8,8,14,-3,-5,-6,-2
1558451827844160,0,-1,10,-11,3,5,1,1
1558451827844160,0,-5,-16,-4,-5,-2,-4,-3
1558451827857242,1,3,5,-5,-3,-3,0,-1
1558451827857242,-6,-19,-10,-14,-2,1,0,-2
1558451827865128,2,15,9,6,1,-2,-2,0
1558451827865128,0,-5,9,6,2,2,4,0
1558451827880195,4,8,19,5,3,1,1,0
1558451827880195,-5,-15,-27,-18,0,0,6,0
1558451827888258,-3,-3,0,4,-9,-8,-4,-3
1558451827888258,0,-5,-10,-3,4,4,-1,-2
1558451827903207,-3,-3,12,17,-2,0,-1,-1
1558451827903207,-2,-1,-17,-23,-9,-4,-3,-2
1558451827903207,2,8,-1,10,1,-3,-1,-2
1558451827903207,5,8,-2,-8,0,2,1,3
1558451827917486,-6,-8,-6,1,3,0,0,-4
1558451827917486,-3,-3,7,15,8,7,0,0
1558451827924355,-7,-10,-10,-10,-4,-3,-5,-7
1558451827924355,3,9,17,13,-1,-2,-4,-2
1558451827939313,-2,-7,-11,-10,1,1,4,1
1558451827939313,8,11,20,19,5,0,-1,0
1558451827947610,-1,5,-12,-14,-8,-4,-2,1
1558451827947610,-2,-13,-1,0,-1,-3,-3,-3
1558451827962669,-5,1,1,3,0,0,1,-2
1558451827962669,0,-10,-10,-15,-8,-5,-7,-5
1558451827963666,2,0,7,10,6,7,4,2
1558451827963666,-1,4,1,-6,-4,-3,-1,0
1558451827977711,0,1,-1,-5,-3,-4,-5,-2
1558451827977711,-4,1,6,6,0,-4,-3,-2
1558451827984845,5,6,5,-3,-7,-1,-1,0
1558451827984845,-2,-1,-17,-3,12,5,4,2
1558451827999626,-2,-8,3,7,-3,-1,-1,1
1558451827999626,-1,-2,-14,-3,-3,0,-1,-1
1558451828007605,-14,-16,-10,-8,-6,-7,-2,-4
1558451828007605,3,7,5,1,-1,1,2,2
1558451828023463,-3,-1,-6,3,5,2,0,-4
1558451828023463,4,3,2,-13,-3,-1,-3,0
1558451828030444,-3,-9,-6,-2,-2,-5,0,-1
1558451828030444,-2,-3,0,-3,-2,0,-4,0
1558451828037476,0,4,6,-7,-3,-5,-5,-1
1558451828037476,-6,-6,-14,-3,-4,-3,1,1
1558451828044427,1,6,-2,-8,4,2,-1,-1
1558451828044427,-2,3,5,6,0,2,3,0
1558451828059703,-2,-3,-5,-16,-8,0,0,-1
1558451828059703,1,2,13,12,3,2,-1,1
1558451828068522,1,-2,0,8,0,2,1,1
1558451828068522,3,7,3,0,1,-1,0,1
1558451828083026,-2,-2,-4,6,1,0,-1,-1
1558451828083026,-2,-1,7,-14,1,2,3,1
1558451828084083,0,4,-7,-7,-3,0,0,-1
1558451828084083,-4,-13,-6,-5,-7,-2,0,-4
1558451828096995,3,5,6,7,0,0,2,1
1558451828096995,-3,-1,-11,-7,-4,-2,-2,-1
1558451828104971,2,-1,4,12,6,-2,-5,-1
1558451828104971,-4,5,12,-2,-7,3,1,-3
1558451828119930,-4,-16,-27,-5,3,-3,-3,-1
1558451828119930,4,8,11,8,1,-2,0,0
1558451828127912,-1,0,7,21,3,-4,-2,-2
1558451828127912,2,-8,-18,-36,-9,-1,0,-2
1558451828142872,-1,7,8,6,1,5,3,0
1558451828142872,-3,-3,3,4,-3,-8,-1,-1
1558451828143867,0,-3,-10,-8,-3,0,-1,0
1558451828143867,0,2,3,4,2,-3,-2,2
1558451828156860,-2,0,-4,-14,-4,-4,-3,-2
1558451828156860,4,2,11,16,6,6,8,1
1558451828164811,-8,-14,-6,-7,-7,-6,-7,-6
1558451828164811,-1,5,-10,-2,0,2,6,2
1558451828179771,-1,-7,3,-5,-8,-10,-10,-3
1558451828179771,-1,0,0,10,5,7,0,1
1558451828195728,-1,-2,12,17,5,6,4,0
1558451828195728,1,-5,-8,-6,2,0,-4,-2
1558451828203220,-1,2,1,5,1,0,-4,-4
1558451828203220,-4,-5,-4,-21,-5,-3,-1,-2
1558451828203220,7,13,16,4,5,5,6,3
1558451828203220,-6,-6,-16,-13,-9,-7,-6,-4
1558451828217184,-2,3,9,13,5,3,2,0
1558451828217184,-1,-2,-2,-11,-6,-5,-1,0
1558451828233142,-8,-6,-5,-5,-3,-1,-2,-2
1558451828233142,2,0,3,7,3,-2,-7,-2
1558451828240122,3,2,10,0,2,4,2,2
1558451828240122,-6,-7,-23,-8,-5,-5,-2,-2
1558451828248100,3,-3,-2,-15,-9,-4,-1,0
1558451828248100,0,2,9,17,10,8,5,2
1558451828263062,-7,-10,-23,-29,-11,-7,-4,-3
1558451828263062,1,0,3,13,4,2,0,-1
1558451828264058,-1,-2,-6,-7,-13,-7,-6,-2
1558451828264058,-3,3,5,8,4,-1,-1,-2
1558451828277136,3,2,-3,-15,-3,0,3,2
1558451828277136,1,1,8,11,1,-1,-1,0
1558451828285001,-3,1,3,2,1,1,0,0
1558451828285001,-8,-3,-15,-16,-13,-15,-7,-3
1558451828299962,0,-7,2,9,4,8,7,11
1558451828299962,2,4,-10,0,0,6,8,2
1558451828308275,-4,-13,2,3,3,2,-1,0
1558451828308275,1,-3,2,-1,-5,-1,-4,-1
1558451828322235,-2,-3,-4,-5,-7,-8,-7,-5
1558451828322235,-2,6,10,13,1,-2,-5,-3
1558451828330214,4,1,2,0,1,3,2,2
1558451828330214,-3,-1,-9,-1,1,2,0,-2
1558451828345174,-10,-6,-4,-1,-6,-9,-8,-9
1558451828345174,4,5,14,3,2,0,-2,2
1558451828346172,-1,2,-17,-2,1,-1,3,-2
1558451828346172,1,-3,4,-2,-7,-5,-1,-1
1558451828360136,-7,-9,-4,0,5,-1,1,-1
1558451828360136,-3,-3,10,8,-6,-6,-4,-2
1558451828368113,1,3,-16,-11,1,0,-2,-1
1558451828368113,2,1,4,12,0,1,3,2
1558451828382076,1,7,-6,-20,-1,5,4,0
1558451828382076,-3,-8,0,-2,3,-1,0,-2
1558451828390054,1,-2,3,4,0,0,2,2
1558451828390054,0,10,2,1,2,1,1,-2
1558451828397037,0,-10,-5,2,2,-2,-2,-2
1558451828397037,0,2,4,2,4,6,7,4
1558451828404422,7,9,3,-5,-7,-6,-7,-2
1558451828404422,-8,-8,4,14,6,2,-2,-2
1558451828419367,2,1,-4,-20,-6,0,2,0
1558451828419367,-5,-7,-17,-18,-2,-2,-4,-6
1558451828428326,-3,-1,5,7,0,-6,-4,-3
1558451828428326,3,2,2,6,2,3,3,-1
1558451828442289,0,0,6,3,-6,-6,-7,-3
1558451828442289,-3,-2,-5,3,-2,-1,-2,0
1558451828458249,-4,1,-3,-13,-8,-8,-3,-4
1558451828458249,3,1,13,4,0,-4,-3,-1
1558451828460308,1,-1,-10,-4,-2,-2,3,0
1558451828460308,-9,-11,-26,-21,-9,-3,-9,-6
1558451828464233,-7,-7,4,0,1,-1,0,-2
1558451828464233,0,-6,-11,-20,-9,-3,-2,1
1558451828480186,0,0,5,13,6,4,3,0
1558451828480186,4,1,4,4,0,-2,-2,-1
1558451828488166,1,7,13,14,1,-2,0,0
1558451828488166,-5,-6,-14,-14,-2,6,3,-2
1558451828510731,2,3,2,-1,-2,-4,-2,0
1558451828510731,0,4,-4,5,8,4,-3,1
1558451828511725,-5,-9,-7,-5,-1,0,2,-1
1558451828511725,0,-6,4,1,-1,-5,-3,-2
1558451828525720,0,5,-3,5,2,0,-4,-2
1558451828525720,2,-1,17,11,-3,-5,-2,0
1558451828525720,-6,-4,-13,-14,0,0,-2,-3
1558451828525720,4,2,1,1,8,3,4,3
1558451828539685,0,2,4,5,6,-2,-2,-1
1558451828539685,-2,0,-4,-20,-14,-5,-3,-4
1558451828547671,-1,-11,-18,-7,-1,3,-2,-3
1558451828547671,-2,1,3,-5,-6,-5,-6,-2
1558451828571567,-9,1,-1,8,-6,-1,-1,0
1558451828571567,6,2,5,11,8,4,6,2
1558451828572135,0,0,19,8,0,-1,-1,-1
1558451828572135,-1,-5,-9,-5,0,2,1,-1
1558451828585528,6,6,-1,-2,6,11,4,1
1558451828585528,-4,-5,-6,-7,-7,-5,-1,-2
1558451828586527,3,11,7,2,-1,4,2,-1
1558451828586527,-5,-17,-10,-5,1,-2,-3,-4
1558451828599491,-4,-2,2,-4,-3,-3,-4,-3
1558451828599491,-1,2,11,21,7,-1,-2,0
1558451828607599,5,1,-8,-17,-3,4,3,3
1558451828607599,-3,4,-7,-13,-6,-2,-2,-1
1558451828622528,-3,-3,-4,2,-2,-1,-1,-3
1558451828622528,2,0,6,5,-1,-7,-3,-2
1558451828630504,1,7,-9,5,10,8,4,4
1558451828630504,-4,-14,-5,-12,-4,-6,-3,0
1558451828645465,-2,-6,-4,-6,-7,-6,-2,-1
1558451828645465,1,2,7,2,-5,-2,-4,-2
1558451828646463,3,8,11,17,4,3,-3,0
1558451828646463,-1,6,3,-10,-5,-2,4,0
1558451828659431,-12,-16,-12,-5,2,-3,-1,-3
1558451828659431,2,2,-6,-5,-2,-3,-1,-2
1558451828668403,-4,-4,1,-7,-2,-1,-3,-2
1558451828668403,3,3,6,17,4,3,0,-1
1558451828682365,5,14,20,18,8,5,2,2
1558451828682365,-8,-13,-27,-23,-2,1,0,-3
1558451828690377,-6,-9,3,1,-1,-3,-1,-2
1558451828690377,0,6,-7,8,-2,-2,-1,-4
1558451828705466,1,0,3,0,-1,1,-2,-2
1558451828705466,0,-1,-1,-11,-7,-4,-3,-1
1558451828706430,-1,-2,1,6,0,-6,-2,0
1558451828706430,-1,5,1,-3,-3,-3,-1,1
1558451828719619,0,1,6,11,-1,-3,-5,-2
1558451828719619,1,0,1,0,3,4,3,1
1558451828728372,-6,-10,-11,-11,-5,-3,-3,-2
1558451828728372,0,-3,-8,-1,0,4,0,-2
1558451828742368,0,1,-7,-22,-10,-6,-4,-2
1558451828742368,0,-3,1,2,2,1,1,0
1558451828750317,-3,-1,7,4,-4,-6,-4,-2
1558451828750317,-1,-7,4,10,1,2,-1,-1
1558451828765276,-2,-4,-15,-9,-4,-4,-1,-1
1558451828765276,3,7,13,12,-1,-2,0,-1
1558451828766317,2,4,-10,-3,8,2,2,-1
1558451828766317,-14,-12,-19,-20,-11,-4,-2,0
1558451828788339,2,0,6,8,-3,-1,0,0
1558451828788339,-4,-4,-5,-7,-5,0,-1,0
1558451828789642,1,-8,-3,2,-6,-9,-3,1
1558451828789642,4,8,13,5,-1,-2,0,-2
1558451828802459,-2,-3,-5,-3,3,2,-3,-2
1558451828802459,-3,-2,1,2,-3,-1,-1,0
1558451828810437,6,8,12,11,3,5,1,1
1558451828810437,-3,5,-11,-15,-4,-5,-4,-1
1558451828825402,-5,-16,-8,3,0,1,4,-3
1558451828825402,-4,-10,-9,-9,-4,-3,-2,-3
1558451828826395,1,5,13,3,1,3,1,-1
1558451828826395,4,6,8,10,-1,-5,-1,0
1558451828839361,1,3,2,-5,1,-1,2,1
1558451828839361,-4,-5,-4,2,2,1,-3,-1
1558451828863298,-2,-4,-1,0,-4,-3,1,-1
1558451828863298,2,5,12,4,0,0,-4,-2
1558451828865292,1,0,-12,-14,3,1,0,1
1558451828865292,0,-1,3,1,4,4,3,-1
1558451828870279,-4,-5,-13,-6,-7,-2,-3,-3
1558451828870279,-3,-8,-4,1,7,4,2,-1
1558451828885237,3,3,7,5,-6,-5,1,0
1558451828885237,2,5,6,4,1,1,-2,0
1558451828886236,7,14,11,8,2,-2,6,4
1558451828886236,-19,-19,-19,-19,-5,-2,-1,-3
1558451828901195,-2,-3,-4,-8,-10,-5,-2,-2
1558451828901195,3,7,-3,-1,3,1,4,3
1558451828908209,2,-1,2,-1,2,1,-3,0
1558451828908209,0,-10,13,5,-1,0,-2,-3
1558451828922139,-7,-8,-15,-2,-9,-9,-7,-5
1558451828922139,-1,0,-8,-11,-3,1,1,-1
1558451828930117,-3,0,-3,-7,2,0,0,-2
1558451828930117,9,7,13,12,5,5,1,3
1558451828945077,4,6,7,6,5,3,3,0
1558451828945077,-2,-1,-5,-7,4,4,1,0
1558451828946353,-7,-10,-7,-15,-10,-4,-3,-1
1558451828946353,0,1,-7,-2,2,-2,-1,-2
1558451828960037,0,4,-5,-9,-6,-4,-3,-5
1558451828960037,0,-8,-8,1,1,7,9,4
1558451828967023,-3,3,11,7,4,1,-1,-3
1558451828967023,-1,1,-4,-15,-4,-5,-6,-3
1558451828982018,2,-2,0,7,6,5,1,0
1558451828982018,-2,1,11,7,0,-2,-5,-3
1558451828989958,-1,-5,-12,-6,-3,-2,3,4
1558451828989958,3,0,7,11,-1,-7,1,-1
1558451829004917,1,2,-1,0,7,7,1,1
1558451829004917,4,5,9,4,-2,-1,-3,-1
1558451829005914,-2,5,-3,1,0,1,-1,-2
1558451829005914,-8,-12,-22,-26,-8,-4,-2,-2
1558451829019881,0,-8,11,6,-1,-2,-1,-1
1558451829019881,-4,-6,-10,-13,-9,-9,-13,-6
1558451829026858,5,3,8,8,-1,0,3,3
1558451829026858,6,7,5,13,2,0,-2,3
1558451829041819,-4,1,0,-1,-3,-4,-1,-2
1558451829041819,-2,-2,2,-7,-3,-3,-1,-2
1558451829050794,-4,-5,-8,-11,0,0,-4,-2
1558451829050794,0,6,-2,3,-3,-2,-1,-1
1558451829072736,2,-3,6,5,6,3,1,1
1558451829072736,-5,-9,-6,-1,-3,-5,-2,0
1558451829081711,-2,-1,4,0,3,3,1,-3
1558451829081711,0,2,3,4,-2,1,1,-2
1558451829087696,0,-2,-6,-12,1,-2,-1,1
1558451829087696,0,3,1,5,-3,-2,1,0
1558451829088896,-1,-6,-4,2,2,1,1,-1
1558451829088896,3,3,1,1,6,4,2,2
1558451829102656,-4,2,-12,-20,-8,-3,0,1
1558451829102656,-3,-7,0,7,-1,-3,0,-1
1558451829110214,-1,-7,-18,-14,-4,-7,-9,-6
1558451829110214,-4,-5,16,15,2,-2,-2,-2
1558451829126173,2,3,2,7,2,2,0,-3
1558451829126173,0,5,0,2,6,2,2,0
1558451829126173,-3,1,0,-7,-11,-9,-8,-5
1558451829126173,2,5,8,21,-1,-2,1,1
1558451829140134,-7,-2,-14,-14,-2,-4,-5,-3
1558451829140134,0,-6,2,-4,-5,0,0,-4
1558451829147116,1,1,-8,-15,-7,-7,-5,-1
1558451829147116,-8,-6,1,1,-4,0,-1,-3
1558451829162076,-5,-6,-7,-1,-1,-3,-1,-1
1558451829162076,5,8,8,1,3,-1,1,1
1558451829170055,-1,3,9,15,0,0,1,0
1558451829170055,-2,-7,-32,-38,-8,-4,-5,-6
1558451829185014,0,4,13,3,0,-3,0,1
1558451829185014,-1,3,-9,-5,0,2,1,2
1558451829186011,-5,-11,-2,0,-3,1,-1,1
1558451829186011,2,1,2,3,2,0,-2,0
1558451829199975,0,-2,5,4,0,1,-1,-2
1558451829199975,-2,-1,-16,-8,-4,-5,-5,-6
1558451829207018,-4,-2,-5,2,3,1,0,-3
1558451829207018,1,4,1,-7,-6,-4,-1,-2
1558451829221950,4,3,15,9,-1,4,2,2
1558451829221950,-2,-5,-3,-3,2,1,0,-1
1558451829230959,0,2,-5,-15,-8,-6,-1,0
1558451829230959,-6,-9,-2,8,5,2,-2,-2
1558451829244886,2,-1,1,4,-9,0,-2,-2
1558451829244886,2,4,2,4,5,1,-3,2
1558451829252865,1,-3,6,6,-2,0,0,0
1558451829252865,2,6,3,1,8,4,3,0
1558451829268299,-2,0,-14,-5,-2,2,4,-1
1558451829268299,-3,-18,-3,3,0,-5,-9,-3
1558451829268828,-6,0,-2,-1,3,5,9,2
1558451829268828,3,3,1,-1,-4,-4,-4,0
1558451829290795,2,4,7,13,9,4,-1,0
1558451829290795,2,8,9,-4,-7,-5,2,-1
1558451829291759,1,-6,-11,-2,5,-1,-4,-1
1558451829291759,-1,-5,1,8,-4,1,1,1
1558451829304841,-2,3,-11,-18,4,-1,-1,-1
1558451829304841,-5,-15,-11,-19,-13,-2,0,-2
1558451829312791,2,4,10,11,-2,0,-2,-3
1558451829312791,3,8,10,0,4,1,3,2
1558451829319773,-4,-9,-24,-18,-10,-8,-10,-5
1558451829319773,-4,5,4,3,-3,-4,1,-2
1558451829326790,0,-9,5,3,4,5,4,-1
1558451829326790,0,3,-2,-14,-10,-4,-4,-3
1558451829343708,-3,-3,5,9,2,2,1,-3
1558451829343708,-3,-2,-2,0,3,0,-4,-4
1558451829350691,2,7,0,6,6,0,-5,-1
1558451829350691,-1,-4,-13,-17,-6,-3,2,1
1558451829364652,-2,-2,3,1,-2,-3,0,-1
1558451829364652,0,-2,4,10,10,4,3,1
1558451829372804,1,4,-3,-2,-2,-3,0,0
1558451829372804,2,-3,-4,-2,6,2,-1,1
1558451829379614,-10,-4,5,10,5,5,2,1
1558451829379614,-1,-6,-24,-12,-15,-9,-1,2
1558451829387624,-2,4,9,8,6,1,-1,-3
1558451829387624,0,-2,-1,-7,-9,-3,-5,-5
1558451829402584,3,1,-2,-3,-6,-6,-1,-2
1558451829402584,-3,-1,6,8,0,-2,-1,-2
1558451829410134,-2,-6,1,-4,-3,-2,7,4
1558451829410134,0,5,-11,5,6,2,2,0
1558451829425059,0,2,-1,6,-5,-1,-3,1
1558451829425059,-3,-5,1,2,0,3,2,2
1558451829433041,-2,-4,-16,-18,-9,-3,-4,-2
1558451829433041,-5,-1,13,16,1,-3,-3,-1
1558451829456056,10,7,27,15,4,1,2,3
1558451829456056,-8,0,-48,-30,-17,-10,-7,-6
1558451829456978,-1,-12,5,15,9,8,-1,-1
1558451829456978,-2,-6,-3,-8,-4,-3,-4,-2
1558451829462046,-4,-3,-7,-1,-2,-2,-2,-3
1558451829462046,3,6,19,11,7,1,-1,-3
1558451829469941,0,6,-1,0,-3,-2,-3,-1
1558451829469941,-2,0,-6,-7,-1,3,8,1
1558451829484900,-4,-7,-5,2,2,2,3,2
1558451829484900,3,4,17,11,2,3,0,1
1558451829492879,-1,0,-18,-11,-2,-4,0,2
1558451829492879,1,-5,-2,2,2,3,1,2
1558451829508232,-3,-2,-7,-9,-8,-5,-5,-2
1558451829508232,2,-1,4,2,13,5,3,4
1558451829508841,1,8,7,-4,-9,-6,-6,-4
1558451829508841,0,-2,0,3,-3,-2,-1,-1
1558451829522222,-5,-12,0,5,-1,-3,0,-1
1558451829522222,5,7,-2,-6,-1,-2,-2,-3
1558451829530235,-3,-6,2,-3,-7,-5,-6,-2
1558451829530235,0,10,10,5,5,2,-3,-2
1558451829545132,-5,-16,-17,-12,-7,-5,-2,-3
1558451829545132,1,1,4,-6,-1,-7,-5,1
1558451829553111,-2,2,-8,-3,1,3,4,0
1558451829553111,3,4,23,20,3,0,-3,-2
1558451829568069,-3,-3,0,-4,-6,-2,-4,-2
1558451829568069,-5,-3,0,1,5,7,2,0
1558451829568473,0,-3,0,5,-4,-6,-3,-2
1558451829568473,-2,0,-7,-1,-1,-1,3,2
1558451829582076,3,2,-4,-14,12,12,6,2
1558451829582076,-6,-5,4,3,-8,-5,-3,-3
1558451829590013,-2,-3,-8,-7,6,4,6,3
1558451829590013,-1,0,-2,5,-6,-9,-7,-2
1558451829604972,-3,0,-5,-15,-4,-4,-5,-3
1558451829604972,-2,-2,-16,-9,-4,-1,0,-2
1558451829620784,-3,-8,-2,0,-3,-3,-3,-3
1558451829620784,1,2,-8,-5,0,-3,0,1
1558451829627732,4,7,11,9,4,3,3,4
1558451829627732,-6,-5,-3,-3,-1,-3,-3,-3
1558451829628730,-1,0,1,3,-2,-3,-2,-3
1558451829628730,-4,-10,-9,-2,-8,-6,-5,-4
1558451829642692,5,6,10,11,4,2,7,3
1558451829642692,0,1,-3,-6,-3,-3,-2,-1
1558451829650676,-1,2,8,8,2,-3,-4,-2
1558451829650676,-2,-3,-2,3,1,0,2,2
1558451829665183,-2,-4,-3,3,-8,-5,-5,-3
1558451829665183,-2,0,1,-1,1,-1,-1,0
1558451829672618,-4,-4,-7,-11,-4,-1,0,-1
1558451829672618,-1,-1,9,7,4,2,-1,-1
1558451829687578,-3,-2,-8,-4,-4,-2,-5,-2
1558451829687578,6,4,7,5,1,3,4,2
1558451829688880,-4,-3,4,7,-4,-3,-2,2
1558451829688880,0,-1,-9,-28,-4,0,0,1
1558451829702534,-8,-7,-13,-12,-8,-6,-5,-7
1558451829702534,-3,-4,0,7,0,-1,-3,-1
1558451829710147,4,3,6,-4,0,-1,2,-1
1558451829710147,-1,1,0,2,0,-4,-7,-3
1558451829725051,-1,-3,-9,0,2,4,3,1
1558451829725051,2,3,2,-15,-5,-2,0,3
1558451829733000,-4,-4,-4,-1,-2,-4,-7,-5
1558451829733000,-4,-5,3,7,3,1,4,1
1558451829747993,3,5,6,2,0,-2,-2,0
1558451829747993,-2,-1,1,5,3,3,0,0
1558451829748993,1,1,2,0,-1,1,1,0
1558451829748993,-3,-3,-5,-12,-8,-2,-4,-3
1558451829761999,-2,-4,-15,-23,-3,-1,-5,-6
1558451829761999,-4,-2,2,1,4,2,0,1
1558451829770899,-1,-7,-16,-10,-12,-7,1,0
1558451829770899,1,0,13,7,6,6,1,-2
1558451829784894,-8,-6,-8,-5,-2,-6,-2,0
1558451829784894,2,0,6,0,2,-1,-1,-4
1558451829793059,2,-1,-4,-6,0,0,1,-1
1558451829793059,1,1,2,6,-1,-3,-3,0
1558451829808310,1,2,8,8,-3,-3,0,2
1558451829808310,0,0,-2,2,2,4,4,2
1558451829808310,-2,6,6,2,5,-1,-2,-4
1558451829808310,-4,-10,-6,-5,1,2,-5,-4
1558451829822256,-4,-6,-1,-9,-7,-6,-2,2
1558451829822256,0,3,8,8,-3,-3,-2,-4
1558451829831150,0,0,-11,-5,-6,-1,-3,-2
1558451829831150,-3,-1,-10,-5,-4,-3,0,-2
1558451829845044,-1,2,9,8,3,-2,-5,-2
1558451829845044,-3,-4,-3,4,-5,-9,-7,-3
1558451829853027,-2,-3,-1,-5,3,4,2,0
1558451829853027,1,2,3,-1,1,1,1,-2
1558451829868090,1,1,8,26,6,1,1,1
1558451829868090,3,0,-15,-17,-5,1,0,1
1558451829868929,-2,-4,1,5,7,3,4,2
1558451829868929,-4,-2,-5,0,-3,-1,-4,-1
1558451829881893,1,2,9,17,2,-2,-1,-2
1558451829881893,-1,2,2,3,0,-4,-1,0
1558451829897891,1,-2,7,-1,0,-2,-3,-3
1558451829897891,1,-2,-9,3,7,6,4,3
1558451829904832,2,7,5,0,2,-1,-5,-1
1558451829904832,-3,-5,-20,-18,-4,5,5,2
1558451829913092,-1,-2,9,7,2,-5,-6,-2
1558451829913092,2,-1,1,1,-3,-2,-1,1
1558451829928055,0,-1,-6,-8,-3,-3,-2,-2
1558451829928055,-3,3,6,-3,-2,-1,-2,-3
1558451829929051,-1,0,-3,15,5,3,-1,1
1558451829929051,-1,-6,-1,-27,-7,-1,3,0
1558451829942020,2,0,-21,-38,-7,1,1,1
1558451829942020,-3,-4,4,10,-6,-2,-4,-5
1558451829950002,-2,2,-1,-1,4,2,0,-1
1558451829950002,-2,-3,2,6,-3,-2,1,-2
1558451829964989,-2,-1,3,-1,1,1,-1,-3
1558451829964989,-2,-3,2,-3,0,-1,1,0
1558451829972935,1,2,3,1,-2,0,-2,2
1558451829972935,0,1,-16,-11,-6,-6,-2,1
1558451829987896,0,-2,-6,-3,-2,0,0,-2
1558451829987896,0,-2,-2,5,3,-1,-3,-2
1558451829988892,1,1,5,-1,-7,-2,-1,-3
1558451829988892,-3,1,7,12,7,1,-1,-2
1558451830011391,2,0,-4,9,-1,-1,0,0
1558451830011391,-3,-4,-13,-27,-5,-4,-3,-2
1558451830011391,2,-1,1,4,4,4,2,4
1558451830011391,-1,-1,-6,-4,-1,2,3,-1
1558451830024356,-5,-5,4,6,2,-1,-2,-2
1558451830024356,2,6,16,23,0,-1,2,1
1558451830033376,-4,-4,-5,-5,1,0,2,0
1558451830033376,-5,-5,-21,-18,-8,-6,-8,-1
1558451830048294,1,4,13,11,1,2,3,2
1558451830048294,-1,-4,-1,6,1,-3,-3,-1
1558451830049155,-3,-4,-11,-21,-8,-8,-4,-4
1558451830049155,2,4,15,18,3,1,2,-1
1558451830071231,-5,-9,-7,-13,-3,1,3,-3
1558451830071231,-2,2,2,-9,-4,-2,-3,-3
1558451830072328,0,4,3,11,1,1,1,1
1558451830072328,-3,-4,-5,-2,-5,-7,-10,-5
1558451830085194,-3,-5,-7,-18,-5,-5,-3,-4
1558451830085194,0,-3,-4,-8,-7,-1,3,-2
1558451830093174,-1,7,13,8,6,3,3,1
1558451830093174,-1,-3,-7,-10,-1,2,3,2
1558451830108132,-9,-2,1,2,3,-1,-2,-3
1558451830108132,0,-1,-4,6,-1,-7,-4,-2
1558451830108132,2,3,-1,-5,-3,1,0,-1
1558451830108132,-1,3,0,-1,-3,-3,-1,0
1558451830122096,2,-1,-5,-6,-5,-3,0,-2
1558451830122096,-1,-4,-6,-2,3,1,1,3
1558451830130073,-2,-3,-5,-11,-9,-7,-5,-3
1558451830130073,0,0,10,7,5,7,3,0
1558451830145034,3,3,0,10,2,0,0,1
1558451830145034,-2,-3,-3,-5,-1,-2,0,-1
1558451830153012,-3,-10,-10,-9,-9,-7,-5,-4
1558451830153012,0,-2,6,6,1,-2,0,1
1558451830175951,-1,1,-2,2,-2,2,8,2
1558451830175951,4,5,3,-19,5,7,1,1
1558451830176949,-5,-3,-5,2,1,-1,-4,-3
1558451830176949,-6,-10,-7,-14,-8,-11,-7,-6
1558451830181935,2,2,10,11,4,0,-3,0
1558451830181935,0,0,-1,9,-1,1,1,1
1558451830189913,1,-4,-6,-3,-4,-6,-3,-3
1558451830189913,1,4,6,5,3,-1,-1,0
1558451830204875,1,-2,5,-1,2,5,0,1
1558451830204875,0,-2,-2,-6,3,0,-3,0
1558451830212412,-1,-1,-4,-2,-5,-1,-3,0
1558451830212412,-6,-3,-2,6,-2,-3,-2,-4
1558451830227368,2,3,8,-1,-3,-6,2,1
1558451830227368,1,-1,-3,3,4,3,3,2
1558451830235348,0,3,2,0,1,0,-2,0
1558451830235348,2,-2,-2,-4,-4,-1,-3,0
1558451830242327,3,0,2,4,6,5,2,0
1558451830242327,0,3,10,16,0,-3,-5,-3
1558451830250308,-5,-9,-10,-13,-4,-3,6,3
1558451830250308,2,4,11,7,5,-1,1,1
1558451830264271,-4,-3,-18,-16,-9,-7,-9,-5
1558451830264271,-1,-2,2,10,-3,-4,-1,-1
1558451830273246,2,3,0,4,10,7,0,0
1558451830273246,0,1,-5,-5,-8,-3,1,-1
1558451830287208,-1,-3,1,-2,-4,-2,0,-2
1558451830287208,-4,-6,-9,0,1,0,-1,-1
1558451830295188,1,1,1,1,0,-2,-2,-3
1558451830295188,0,1,-6,-22,-5,-3,-2,-1
1558451830302169,-2,-1,3,11,-2,-2,-4,-1
1558451830302169,-3,-6,-6,-8,-6,-7,-1,0
1558451830311213,-1,1,5,-5,0,2,-3,-3
1558451830311213,0,-2,1,10,2,0,0,-1
1558451830324177,3,4,-3,-8,4,6,-1,-1
1558451830324177,-1,1,5,4,-2,-5,-8,-7
1558451830333956,-12,-12,-14,-8,-6,-4,-4,-6
1558451830333956,3,3,-3,-5,3,2,3,4
1558451830347147,-2,-1,3,1,4,2,0,0
1558451830347147,2,3,-2,5,-1,0,-6,-2
1558451830356468,4,5,2,-1,-2,-4,-1,-1
1558451830356468,-3,-2,-8,-2,-1,3,0,-2
1558451830370057,-2,-6,-6,-2,-3,-3,-3,0
1558451830370057,-3,-3,2,0,-1,1,0,0
1558451830379030,1,4,-4,0,-2,2,0,1
1558451830379030,-1,-6,4,15,2,-2,1,-1
1558451830385015,1,0,-7,-23,-4,-1,1,-2
1558451830385015,-3,-2,0,7,0,-2,-2,-4
1558451830393991,0,0,14,14,10,2,3,2
1558451830393991,-3,-3,-15,-12,-2,0,1,0
1558451830406991,-5,-4,-8,-15,-12,-8,-5,-3
1558451830406991,0,-4,-6,-3,-4,-3,-1,0
1558451830415935,-3,-6,-3,-2,-2,-4,-3,-3
1558451830415935,2,0,4,-3,0,0,-2,-2
1558451830430927,1,-1,6,12,4,-3,-3,0
1558451830430927,1,4,-9,-10,1,5,5,1
1558451830432924,1,0,9,11,0,0,0,-1
1558451830432924,-1,-1,6,9,-4,-6,-8,-4
1558451830444888,-5,-5,-18,-8,-9,-7,1,0
1558451830444888,-1,1,7,3,4,5,-2,-2
1558451830460850,3,2,2,2,5,6,12,5
1558451830460850,-2,2,4,-7,-2,-5,-5,-3
1558451830466800,-1,-2,3,12,2,-1,-1,-4
1558451830466800,-3,-2,-1,0,5,0,3,-1
1558451830475805,1,0,-3,-4,-7,-8,-5,-2
1558451830475805,-3,-7,-10,-4,1,2,-1,-1
1558451830490733,-8,-5,0,9,-1,-4,-1,0
1558451830490733,1,-1,1,-2,-1,0,-1,-1
1558451830492730,2,5,1,-1,0,1,-2,-1
1558451830492730,1,5,3,0,-4,-5,-2,1
1558451830520707,-3,-5,-7,-4,3,2,-3,-4
1558451830520707,-1,-2,7,17,5,2,6,1
1558451830522702,0,-1,-7,-9,-4,-2,-3,-1
1558451830522702,-1,0,2,6,0,0,0,2
1558451830526691,0,0,4,3,0,-2,-5,-1
1558451830526691,-1,-1,-8,-12,-3,-4,-2,-1
1558451830535667,2,0,1,2,0,3,2,-1
1558451830535667,-2,2,1,4,-1,1,2,2
1558451830550627,-2,-6,1,-4,-1,-4,-4,-3
1558451830550627,-2,-3,-10,3,-3,-4,-1,0
1558451830552621,1,0,-7,-13,-2,-2,-3,-1
1558451830552621,3,3,6,3,4,4,2,1
1558451830564589,-1,-3,-5,-1,-2,-2,1,-2
1558451830564589,-2,-2,2,0,-2,0,-3,-3
1558451830579693,-1,-5,-5,-3,-5,-11,-4,1
1558451830579693,2,2,5,2,-1,4,4,1
1558451830587527,-1,1,-6,-1,2,3,1,1
1558451830587527,-2,-1,-2,-9,-10,-5,-6,-3
1558451830596503,-5,-2,-2,7,1,-2,-4,-3
1558451830596503,3,-1,-3,-3,3,0,-2,0
1558451830610470,-5,-2,5,0,-5,-2,-3,-1
1558451830610470,2,6,12,11,2,2,0,0
1558451830625426,-4,-11,-24,-24,-9,-2,-2,-5
1558451830625426,-4,-1,4,4,2,0,-2,0
1558451830626423,5,4,-3,0,5,6,4,2
1558451830626423,-3,-1,0,-5,-2,-2,0,0
1558451830634062,-3,-4,6,4,-1,-2,-1,1
1558451830634062,-2,-3,-6,-6,-3,-2,-3,-3
1558451830647371,4,3,6,5,2,3,1,1
1558451830647371,2,-1,-8,-7,2,-1,3,2
1558451830656428,-1,0,4,7,-3,0,-1,-1
1558451830656428,-6,-7,-9,-9,-4,0,-1,-2
1558451830669309,6,7,6,5,0,-2,-2,1
1558451830669309,-3,-6,-6,-7,-5,-1,1,-1
1558451830686266,1,3,3,4,7,7,5,2
1558451830686266,-4,-2,-1,1,-1,0,-4,-5
1558451830687618,-2,3,8,16,0,-4,0,-2
1558451830687618,-1,-4,-9,-38,-5,1,-1,0
1558451830693245,0,-1,-16,-9,0,3,0,1
1558451830693245,-2,-8,-2,8,-1,-4,-4,-6
1558451830707308,0,1,2,0,2,2,0,2
1558451830707308,-2,-1,0,0,-5,-6,-5,-5
1558451830716097,-3,0,6,4,0,-1,-4,-4
1558451830716097,0,-4,1,-5,-1,-2,-1,-2
1558451830730088,-1,0,-5,-10,-1,-1,-1,0
1558451830730088,2,-2,-1,3,-2,-2,0,1
1558451830737042,-2,-2,2,2,2,2,-2,-2
1558451830737042,1,1,-2,2,-3,-1,0,0
1558451830745020,-3,-1,-4,-6,-4,1,-1,-2
1558451830745020,-9,-11,-5,1,-3,-3,-2,-3
1558451830753996,4,4,13,10,-3,-6,-3,-2
1558451830753996,0,-3,-22,-18,-1,3,4,3
1558451830766963,0,-4,-6,7,0,-1,1,-1
1558451830766963,4,5,5,-20,-1,-1,-2,0
1558451830776020,-8,-10,-9,-8,-11,-8,-3,-2
1558451830776020,0,6,10,8,8,7,3,-1
1558451830789900,3,0,-1,-5,-4,-4,0,1
1558451830789900,-4,-5,-2,12,5,3,0,-1
1558451830798876,-2,-2,-6,-22,-5,-2,-2,-2
1558451830798876,-1,2,2,-6,-4,-3,-2,-4
1558451830804895,0,1,4,10,1,-2,-2,-3
1558451830804895,1,-1,-7,-10,-2,4,-1,2
1558451830820359,0,-1,-2,1,-1,-3,1,0
1558451830820359,-1,-1,0,3,-2,-6,-3,-2
1558451830826887,-1,-1,-4,-8,-4,1,3,1
1558451830826887,-6,-1,8,9,-1,-3,-1,-2
1558451830836862,1,0,3,11,5,4,4,0
1558451830836862,-4,-6,-20,-18,-5,-4,-3,-1
1558451830849828,1,2,9,12,0,0,-2,-4
1558451830849828,1,0,-7,-7,-2,0,-1,0
1558451830858803,-1,0,1,6,0,2,-2,0
1558451830858803,3,4,12,19,5,-1,1,2
1558451830864787,-4,-6,-13,-28,-12,-2,-1,0
1558451830864787,-3,-2,5,14,0,-1,-2,0
1558451830873763,-1,-2,-2,-2,-2,-5,-1,-1
1558451830873763,1,2,0,3,1,-1,0,2
1558451830887727,2,3,2,2,4,2,1,-1
1558451830887727,5,5,4,3,0,1,-1,0
1558451830895759,0,-1,-6,-1,0,3,1,-1
1558451830895759,-3,-3,5,-2,-7,-8,-6,-4
1558451830910663,0,-2,-9,-15,1,1,1,2
1558451830910663,-5,-6,-5,3,-3,-5,-2,-4
1558451830918634,-3,-1,-6,-1,2,1,0,-1
1558451830918634,0,-2,3,-1,-3,-2,-5,-1
1558451830932596,-2,-2,1,2,2,1,-3,0
1558451830932596,2,3,1,11,5,1,1,-1
1558451830941571,0,-1,0,-14,2,4,3,3
1558451830941571,-2,-2,-8,-4,-3,-1,1,-2
1558451830947555,-7,-8,1,8,-2,-4,-5,-3
1558451830947555,2,7,3,0,4,5,3,1
1558451830956529,1,3,5,-2,-4,-4,-5,-4
1558451830956529,-1,-1,-1,0,-4,1,-2,-2
1558451830969504,-1,-4,-5,1,3,3,4,0
1558451830969504,0,2,1,5,3,-4,-4,-1
1558451830978470,-3,-3,-3,-8,-9,-4,-6,-6
1558451830978470,3,5,1,5,1,1,1,0
1558451830985989,-1,-3,2,7,-4,-7,-4,-1
1558451830985989,-8,-12,-12,-10,-7,-2,-2,-2
1558451830993434,3,3,9,7,5,0,0,1
1558451830993434,-2,-2,-6,-6,0,3,1,2
1558451831007396,5,4,7,4,1,0,0,-1
1558451831007396,0,-1,-5,-8,-1,-3,-1,-1
1558451831023670,-3,-7,-4,-1,-8,-3,-2,-2
1558451831023670,-2,-2,-7,-4,-4,-4,0,0
1558451831029338,-2,-3,-3,-6,-1,1,-2,-2
1558451831029338,0,2,5,9,4,-3,-2,-3
1558451831038312,-2,0,-2,0,-3,-3,-2,-1
1558451831038312,-1,-2,0,-4,3,-1,-1,-1
1558451831044498,-2,1,1,3,0,1,0,-2
1558451831044498,0,0,1,-6,-2,1,-3,-2
1558451831061390,-2,-2,-4,5,-4,-1,-1,-2
1558451831061390,-3,-2,4,-2,2,2,-1,-1
1558451831068680,-1,0,-1,1,1,-3,-1,-1
1558451831068680,1,0,0,0,2,3,3,2
1558451831076212,0,1,-1,-4,2,0,0,0
1558451831076212,-1,0,2,4,3,2,-2,-3
1558451831090174,-2,-5,-9,-16,-12,-7,-6,-4
1558451831090174,-1,-2,3,6,-1,-4,0,1
1558451831098474,-3,-5,0,1,4,1,2,0
1558451831098474,1,1,0,-11,1,2,-1,-1
1558451831105219,0,3,0,3,0,0,-1,-1
1558451831105219,1,0,-5,-10,-8,-2,-4,-4
1558451831113181,-2,3,6,11,3,-3,-5,-1
1558451831113181,-2,-2,-3,-12,-6,-1,5,2
1558451831127157,0,1,2,-1,4,4,-1,-2
1558451831127157,-2,-3,-7,-2,-4,-5,-4,-1
1558451831136391,-2,-3,-5,-2,3,3,0,-1
1558451831136391,-4,-2,-2,-4,-8,-7,-6,-5
1558451831150092,-3,0,3,7,3,-1,-1,-1
1558451831150092,0,3,-6,-9,4,8,5,3
1558451831159064,-1,0,-3,0,-5,-2,-5,-5
1558451831159064,1,-3,-9,-7,-10,-5,-2,1
1558451831165165,0,4,-1,-1,0,-2,-1,0
1558451831165165,-7,-8,2,5,1,-1,-2,-3
1558451831174029,3,3,5,3,2,2,-2,-1
1558451831174029,0,-2,-8,-18,-8,-5,-2,1
1558451831186997,2,1,2,4,-1,2,-1,-2
1558451831186997,-8,-3,3,4,-3,-3,-2,0
1558451831195968,-2,-6,-14,-7,-4,-6,-1,-4
1558451831195968,1,1,7,13,9,10,3,-2
1558451831209934,-1,1,-1,-4,-3,0,-2,-1
1558451831209934,2,-1,-11,-3,3,2,2,3
1558451831219000,1,1,10,7,2,2,0,1
1558451831219000,-4,-4,-11,-22,-11,-13,-12,-6
1558451831224889,-3,-4,1,4,-9,-5,-3,1
1558451831224889,4,4,5,6,8,7,5,-1
1558451831233864,-6,-3,-6,-14,-6,-2,-2,-2
1558451831233864,0,-1,0,3,-2,-6,-4,-1
1558451831255955,-2,-1,5,8,5,1,0,1
1558451831255955,-3,-5,-8,-15,-6,-6,-4,-4
1558451831257801,2,1,-5,4,-1,-3,-1,0
1558451831257801,-1,1,10,18,7,6,4,0
1558451831269771,-5,-4,-3,-7,1,-2,-2,-1
1558451831269771,-1,-1,-15,1,-12,-7,-1,-1
1558451831278900,-1,-2,3,-2,-1,-2,0,-1
1558451831278900,-1,-2,5,6,6,3,-1,-1
1558451831293774,2,3,1,5,-3,-5,-2,-1
1558451831293774,-9,-8,-2,-3,-8,-4,-3,-3
1558451831294701,4,4,5,5,3,4,7,6
1558451831294701,1,1,3,6,-2,-3,-1,-1
1558451831306714,-1,-2,-13,-13,-4,-3,-2,-3
1558451831306714,2,-2,6,6,5,-1,-1,1
1558451831315646,-4,-1,-4,-10,-6,-4,0,0
1558451831315646,0,-1,6,10,7,6,3,4
1558451831329608,-3,-7,-14,-15,-2,-1,-3,-3
1558451831329608,0,1,3,4,-3,-3,-7,-4
1558451831338584,-2,-3,-4,-7,5,7,5,1
1558451831338584,-1,-1,-4,3,-3,-9,-2,1
1558451831352547,1,4,1,-10,1,3,6,3
1558451831352547,0,1,4,5,-1,-2,0,-3
1558451831361523,-2,-3,6,8,3,4,3,0
1558451831361523,-2,-4,-8,-5,-1,-2,-3,-1
1558451831367508,-2,-4,3,8,-1,-3,-4,-5
1558451831367508,2,5,-1,-7,-1,-1,0,0
1558451831376482,1,0,-4,3,-4,-5,0,-2
1558451831376482,-2,-1,-5,-7,-3,2,2,1
1558451831389449,-1,0,7,6,2,1,-1,-1
1558451831389449,-3,-7,-1,0,1,0,-5,-2
1558451831398539,1,0,-4,-2,-5,-5,-4,-2
1558451831398539,0,1,4,2,-1,2,-1,0
1558451831413388,1,0,-7,-5,-3,-2,0,0
1558451831413388,-6,-1,1,6,2,1,1,0
1558451831415379,4,4,-2,-4,0,2,0,1
1558451831415379,-8,-10,-13,-9,-7,-5,-5,-2
1558451831427356,4,3,6,1,4,2,2,1
1558451831427356,-1,-2,-7,-10,-8,-3,-1,0
1558451831436326,-2,-5,-1,1,-1,-3,-6,-4
1558451831436326,4,6,6,6,7,5,4,1
1558451831449293,-4,-5,-1,-10,-9,-3,1,-1
1558451831449293,-3,-2,-7,-16,0,-2,-2,-3
1558451831458854,1,3,2,5,3,2,0,1
1558451831458854,-2,-1,-7,-4,2,2,1,-1
1558451831473226,-4,-1,2,-2,-6,-6,-3,-2
1558451831473226,0,-2,1,8,-1,0,1,-1
1558451831475313,1,-4,-3,-7,-3,-1,-3,-1
1558451831475313,1,2,5,6,1,0,0,0
1558451831487187,-2,-3,1,5,-2,-2,-4,-1
1558451831487187,0,0,-4,-6,5,4,4,2
1558451831496364,-2,-4,-7,2,-1,2,1,2
1558451831496364,1,-2,-3,-5,1,-1,0,2
1558451831510126,1,0,-7,-5,3,5,2,0
1558451831510126,1,3,7,4,0,-1,-4,-3
1558451831519136,-1,-3,0,-6,-5,-8,-7,-2
1558451831519136,-8,-6,2,4,-1,-5,-2,-4
1558451831533088,0,0,1,2,4,7,1,1
1558451831533088,2,1,-6,-11,-3,-1,0,-1
1558451831535071,-1,-1,-2,3,3,2,-1,-2
1558451831535071,0,-3,-1,-6,-8,-2,2,-2
1558451831547027,-3,0,-4,-7,-3,-3,-1,-2
1558451831547027,-2,-2,3,3,-6,-6,-5,-4
1558451831556005,-2,2,9,5,2,0,0,-1
1558451831556005,2,0,-9,-7,2,4,3,2
1558451831570009,0,2,-2,-1,0,-2,-2,-1
1558451831570009,1,2,6,7,5,4,1,0
1558451831579059,-3,-2,-7,-19,-7,-4,-4,-1
1558451831579059,-2,-1,0,-5,-1,0,-7,-3
1558451831593906,-1,-2,0,7,0,-2,1,-2
1558451831593906,-2,0,2,-3,-5,-4,-2,0
1558451831595041,2,2,2,10,5,4,3,-1
1558451831595041,0,-3,-1,1,-4,0,-1,-2
1558451831606868,-3,-3,-3,-5,-5,-7,-3,-2
1558451831606868,2,3,1,3,2,0,1,0
1558451831615844,-8,-6,-3,-2,-1,0,-2,-1
1558451831615844,0,1,0,0,-3,-5,0,1
1558451831629806,0,0,0,-1,0,-1,-1,-1
1558451831629806,0,-2,0,5,7,1,2,0
1558451831638781,-1,0,-9,-13,-6,-1,-1,0
1558451831638781,0,0,10,9,4,1,-3,-4
1558451831653741,-1,-2,-9,-12,-9,-3,-3,-1
1558451831653741,1,1,-2,-2,-1,-1,-4,-1
1558451831654738,-2,-8,-4,-12,-6,-7,-3,-2
1558451831654738,-1,4,7,6,6,2,1,1
1558451831667703,-3,-5,-7,-4,-1,2,-1,-3
1558451831667703,-3,-5,5,5,-1,-1,-4,-2
1558451831675682,3,0,-2,0,0,-4,-2,0
1558451831675682,-7,-5,-7,-6,-6,-1,-1,-1
1558451831689700,3,4,3,5,6,4,3,3
1558451831689700,0,-1,-6,-8,-7,-3,-2,2
1558451831698699,-2,1,5,13,2,-3,-4,-3
1558451831698699,-2,-2,-2,0,-1,-2,2,-2
1558451831713580,-1,-3,-1,-5,1,-1,-1,1
1558451831713580,-1,-1,0,-2,-2,0,1,-1
1558451831714578,-1,2,3,1,0,0,0,-1
1558451831714578,0,0,-9,-13,-1,-2,-1,-1
1558451831726702,1,1,6,7,-2,-3,-1,-1
1558451831726702,0,-4,-6,-4,-2,0,0,2
1558451831736680,1,3,0,-4,3,1,-2,-1
1558451831736680,-1,-2,-3,-5,-8,-6,-6,-2
1558451831749772,-2,-4,3,3,0,1,-2,-3
1558451831749772,0,0,-2,-3,1,3,0,0
1558451831758616,-2,-8,4,6,2,-2,-1,-1
1558451831758616,4,3,-2,-18,-1,2,2,2
1558451831773576,-5,-6,-9,5,-5,-5,-5,-4
1558451831773576,2,3,3,1,1,1,-1,-2
1558451831774574,1,2,-7,-6,-1,2,0,0
1558451831774574,1,0,-3,0,2,2,-3,-1
1558451831787540,-4,-3,1,4,-1,1,1,2
1558451831787540,-2,-2,7,2,-3,-6,-1,-2
1558451831796515,1,1,5,7,6,5,-1,-1
1558451831796515,-2,-3,-13,-6,-10,-7,-5,-4
1558451831809788,-3,1,-10,-17,-4,-5,1,-1
1558451831809788,-2,-3,0,7,11,7,-2,0
1558451831818465,0,-4,-8,-15,-7,1,2,-1
1558451831818465,0,2,3,4,5,0,-2,-2
1558451831833657,0,0,1,-1,-1,-3,-3,-3
1558451831833657,-2,-1,3,-1,-3,-4,-2,-4
1558451831835412,-9,-4,-8,-5,-7,-4,-2,-2
1558451831835412,0,-5,-2,-1,1,-1,-2,-1
1558451831847380,3,6,5,4,2,6,5,1
1558451831847380,-1,1,-10,-6,-2,0,-1,1
1558451831856356,0,1,4,4,-2,-2,0,-1
1558451831856356,-3,-4,5,3,1,-2,-3,-1
1558451831869321,3,1,8,6,5,1,3,2
1558451831869321,-1,0,2,-1,-3,-1,2,1
1558451831878340,-1,0,-3,-2,-2,-4,-3,-3
1558451831878340,0,2,-1,-2,-3,1,0,0
1558451831893257,0,-4,-2,0,0,0,-3,-1
1558451831893257,-1,-3,-6,-5,-4,2,-1,-1
1558451831895252,0,2,9,1,0,-3,2,0
1558451831895252,1,0,-12,-2,-1,1,0,-1
1558451831907221,-4,-10,-4,-6,-5,-1,-4,-3
1558451831907221,-2,-2,-5,-6,-2,-4,-2,-2
1558451831916202,-2,1,6,5,1,2,-4,-2
1558451831916202,3,3,5,3,5,3,5,4
1558451831929626,-4,-2,-2,-2,-5,-1,-3,-4
1558451831929626,2,1,0,8,-3,-4,-1,-1
1558451831938474,-7,-4,-7,-4,0,-2,-5,-3
1558451831938474,1,3,6,-1,0,1,2,-1
1558451831953595,-7,-6,-3,1,2,-2,0,-3
1558451831953595,0,1,4,1,-2,-4,-4,-5
1558451831955342,2,0,-7,-7,-4,1,1,-1
1558451831955342,2,0,1,5,-2,-3,-1,1
1558451831967522,-1,1,-1,-3,1,-1,-3,-1
1558451831967522,-1,-5,-13,-13,-4,-2,0,0
1558451831976283,2,4,9,11,-1,-1,2,-1
1558451831976283,-8,-11,-8,-2,1,4,-2,-3
1558451831990246,3,6,8,6,-1,-5,-5,0
1558451831990246,-2,3,-6,-11,0,-5,0,0
1558451831998227,-1,-9,-5,-5,-1,5,2,0
1558451831998227,0,0,-2,3,-2,0,-2,-3
1558451832013619,-1,-1,10,7,6,5,3,-1
1558451832013619,-4,-7,-16,-7,-9,-1,-3,-2
1558451832015179,1,3,4,8,1,-4,-1,1
1558451832015179,4,3,8,-2,0,-3,0,0
1558451832027146,-3,-2,-10,-9,-7,-5,-2,1
1558451832027146,-1,0,6,6,6,2,-1,-2
1558451832036293,1,0,-8,-20,-2,2,2,-1
1558451832036293,-2,-3,0,8,1,-1,0,-1
1558451832050086,3,1,-1,-1,2,3,0,1
1558451832050086,-3,-4,10,1,-4,0,-1,1
1558451832059060,0,-2,-9,1,-5,-5,-2,-2
1558451832059060,-2,1,-1,-3,-3,0,2,-1
1558451832073022,-2,-6,-3,-1,-2,-2,-2,-2
1558451832073022,2,6,6,5,4,5,4,4
1558451832080004,0,-1,3,10,2,1,1,0
1558451832080004,-4,-3,-12,-5,-7,-6,-7,-4
1558451832086984,0,3,2,3,1,1,2,1
1558451832086984,-1,-5,1,-6,-4,-1,-3,-3
1558451832095960,-2,0,8,9,-1,-4,-3,-1
1558451832095960,0,0,-7,0,0,-1,-2,1
1558451832110014,-2,-3,-1,5,-5,-4,-3,0
1558451832110014,1,1,-9,-9,1,2,2,-1
1558451832119029,-2,-3,1,1,-2,-3,-1,-1
1558451832119029,-3,-5,2,2,2,2,-1,-2
