timestamp,emg1,emg2,emg3,emg4,emg5,emg6,emg7,emg8
1558438298624910,-1,4,13,7,1,1,0,0
1558438298624910,5,8,13,10,1,1,-1,3
1558438298627903,-4,-9,-24,-15,-5,2,12,-2
1558438298627903,1,-2,2,6,-3,-8,-25,-7
1558438298632890,2,6,-2,-1,1,-2,-1,0
1558438298632890,2,8,21,6,6,5,10,4
1558438298633888,-4,-12,-5,-2,-5,-2,-7,-3
1558438298633888,-13,-6,1,-2,2,1,6,1
1558438298639871,3,1,-3,-2,1,0,1,2
1558438298639871,-7,-6,-30,-16,-9,-7,-12,-9
1558438298647850,-2,-2,-8,-6,-8,-7,-8,-2
1558438298647850,13,6,14,4,4,8,10,3
1558438298654831,-13,-4,-5,0,7,5,-1,1
1558438298654831,2,-6,-3,-2,-2,3,1,-1
1558438298669791,-2,-5,6,5,-2,-2,-2,-3
1558438298669791,0,1,-6,-2,3,1,14,0
1558438298676772,6,11,44,16,6,4,-19,-1
1558438298676772,-3,-11,-42,-19,-6,-3,0,-4
1558438298687743,-9,0,-22,-7,-8,-7,-10,-5
1558438298687743,-2,-5,-4,-3,-4,-2,3,1
1558438298699710,4,-2,-7,-7,-7,-5,-3,-2
1558438298699710,-1,8,20,11,4,1,-8,-4
1558438298707690,6,7,11,3,4,1,-1,0
1558438298707690,2,7,-6,-4,-1,-1,0,2
1558438298754563,3,2,20,2,-1,-1,-4,-2
1558438298754563,-12,-22,-67,-26,-15,-6,-4,-6
1558438298755561,1,-2,-8,-2,-1,2,6,4
1558438298755561,5,13,8,-1,-1,0,-8,0
1558438298756558,3,-5,8,12,3,2,-2,-5
1558438298756558,2,3,37,15,6,1,5,2
1558438298758554,-3,9,-26,-14,-3,-2,-1,-2
1558438298758554,-3,-13,20,6,0,0,-4,0
1558438298767529,0,-4,-32,-14,-6,-3,-1,3
1558438298767529,3,9,8,3,5,3,2,-2
1558438298782489,0,-7,6,2,1,-2,4,0
1558438298782489,-7,4,1,0,-1,0,5,-1
1558438298784484,1,1,13,6,1,-4,-9,-3
1558438298784484,1,-3,-19,-6,1,2,3,3
1558438298796452,-6,-4,-8,-11,-12,-10,-5,-5
1558438298796452,1,-3,-17,-6,-2,-2,-9,-3
1558438298805428,0,1,7,-1,1,2,6,3
1558438298805428,0,1,23,5,-2,-9,-4,-6
1558438298811411,-6,-11,-37,-9,-3,-3,-11,-7
1558438298811411,3,-5,-14,-4,-2,0,1,-1
1558438298827368,-5,13,-2,5,5,7,10,3
1558438298827368,-11,-13,4,-7,-6,-5,0,-1
1558438298833353,-4,-4,-11,-9,-7,-1,-5,-4
1558438298833353,1,-3,-7,-4,-2,-2,3,-1
1558438298842329,2,4,5,2,1,1,0,2
1558438298842329,14,24,30,19,11,10,1,3
1558438298856291,-6,-18,-24,-10,0,-6,-1,0
1558438298856291,2,-1,-2,0,-5,-8,-7,-2
1558438298865267,2,9,5,-3,-4,-3,5,1
1558438298865267,-13,-31,-14,-6,-4,-5,-5,-2
1558438298871251,11,25,33,12,1,2,0,-2
1558438298871251,4,2,22,11,13,10,19,4
1558438298887210,-13,-27,-49,-17,-7,-7,-15,-13
1558438298887210,7,18,19,1,-2,-9,-4,1
1558438298893192,2,14,25,9,9,7,6,4
1558438298893192,-12,-26,-58,-26,-13,-7,-5,-5
1558438298910147,2,0,1,1,-1,0,-3,-2
1558438298910147,-3,1,-9,-5,-4,1,-2,-2
1558438298916132,10,14,33,12,3,-1,-7,3
1558438298916132,-8,-7,0,-1,-6,-5,-4,-4
1558438298925107,-5,-8,-2,-2,0,0,4,0
1558438298925107,3,-3,0,0,2,2,6,1
1558438298931092,6,4,17,4,4,3,0,1
1558438298931092,-8,-13,-19,-6,-1,0,6,0
1558438298948047,-7,-6,-7,-2,0,-3,-5,-2
1558438298948047,-4,6,-21,-10,-10,-6,-13,-11
1558438298954032,-10,-27,-3,-5,-7,-8,-6,-5
1558438298954032,7,8,-5,-4,0,1,5,5
1558438298963008,-1,-1,22,6,-1,0,-4,0
1558438298963008,2,8,8,6,5,3,3,1
1558438298975972,-7,-16,-21,-11,-2,3,-1,-3
1558438298975972,4,10,22,6,-3,-3,6,2
1558438298984948,2,5,2,1,0,0,-2,-2
1558438298984948,-5,-6,-9,-5,0,3,-4,-2
1558438298990932,-8,-5,-11,-2,-4,-9,-6,-6
1558438298990932,2,4,5,-3,-2,-1,4,-2
1558438299007887,8,10,18,7,0,-2,-10,1
1558438299007887,-4,-3,-29,-11,-4,2,4,-2
1558438299013870,1,8,14,5,3,4,2,0
1558438299013870,0,-5,7,4,0,-1,-7,1
1558438299022846,-3,5,15,5,4,-1,8,4
1558438299022846,-12,-19,-13,-7,-5,-1,1,-2
1558438299035812,1,4,1,2,-2,-6,-3,-3
1558438299035812,5,9,25,8,1,2,2,-1
1558438299044787,-6,-5,-32,-20,-7,-2,-10,-7
1558438299044787,-1,-23,-3,-2,-3,0,-1,3
1558438299067727,2,10,-8,-4,-5,-5,-1,-2
1558438299067727,-2,-2,5,2,0,-1,-7,-2
1558438299068724,7,11,17,6,3,6,14,7
1558438299068724,5,6,-5,-7,3,-2,7,2
1558438299073712,-3,-9,-3,5,0,-2,-11,-6
1558438299073712,-2,4,-3,-1,3,-2,-11,-3
1558438299082686,-3,-12,-18,-6,-9,-3,-2,-4
1558438299082686,6,11,12,5,1,3,6,7
1558438299096649,1,0,17,5,4,4,13,8
1558438299096649,-5,7,15,6,4,4,-7,-7
1558438299104627,0,-3,-29,-15,-9,-9,4,-1
1558438299104627,3,4,25,10,2,1,-2,-3
1558438299118590,-5,-5,-23,-7,-2,0,-9,-1
1558438299118590,2,-2,21,8,2,1,2,1
1558438299127566,-12,-8,-17,-6,-2,-3,3,-5
1558438299127566,4,7,-14,-6,-7,-8,-10,-5
1558438299133554,3,-1,2,-1,2,5,5,1
1558438299133554,-3,-3,-2,-3,0,3,3,4
1558438299142526,2,-5,8,10,7,2,-3,-1
1558438299142526,3,8,4,1,-3,-10,-4,0
1558438299156488,4,-3,-8,-4,0,0,12,6
1558438299156488,7,18,16,5,3,0,-9,-3
1558438299165464,-16,-31,-25,-15,-8,-6,-4,-7
1558438299165464,-5,-7,-2,1,0,-1,-1,-1
1558438299178429,-3,0,7,5,2,-4,-5,0
1558438299178429,-3,-8,-15,-10,-9,-7,-1,-4
1558438299187406,8,15,15,1,3,4,-1,3
1558438299187406,-2,-1,-4,-1,1,6,14,5
1558438299193390,0,1,5,1,-7,-7,-12,-8
1558438299193390,-2,-5,0,1,1,-4,-1,0
1558438299202366,-3,0,-7,-6,-1,-1,-7,-3
1558438299202366,2,3,28,7,2,0,-1,-3
1558438299216329,-3,-9,-30,-9,-3,4,5,-1
1558438299216329,-4,-1,10,5,-3,-4,-3,-3
1558438299225305,-4,-7,-31,-15,-8,-4,-1,-4
1558438299225305,-1,-4,-10,-5,-5,-5,-1,0
1558438299238270,9,20,31,13,9,7,2,0
1558438299238270,3,-6,-28,-4,2,0,-3,-1
1558438299247246,-6,-12,7,-1,-5,-3,-5,2
1558438299247246,-6,-4,-5,-4,-5,1,-9,-3
1558438299253230,3,-4,-11,-6,-2,-2,1,-1
1558438299253230,3,21,-5,-3,3,-2,22,10
1558438299262205,4,-5,43,20,7,0,-15,-3
1558438299262205,1,1,-27,-4,-6,-3,-8,-1
1558438299276169,-7,-5,-8,-8,-6,-4,5,-2
1558438299276169,-2,-10,8,3,7,9,-2,0
1558438299285145,2,7,-19,-8,-1,-2,5,3
1558438299285145,1,0,17,10,3,3,7,5
1558438299299107,-1,2,13,4,-1,1,-15,-7
1558438299299107,1,-9,-31,-13,-7,-8,-7,-4
1558438299308085,-2,5,8,3,1,0,3,3
1558438299308085,-1,-9,0,-1,4,5,-3,-3
1558438299314068,2,3,-2,-6,-2,-1,6,3
1558438299314068,-1,-7,-15,-8,-2,2,-4,-1
1558438299329027,-1,7,13,8,1,-1,9,1
1558438299329027,2,8,19,5,1,-1,-9,-4
1558438299336008,-5,-5,0,0,0,0,1,-1
1558438299336008,-4,-14,-50,-21,-17,-9,-10,-9
1558438299344984,-10,1,5,1,-1,-2,-1,1
1558438299344984,-6,-7,-23,-8,-3,-6,0,-2
1558438299358948,-3,-5,17,8,5,4,-3,-2
1558438299358948,-1,1,14,2,-3,-5,-7,-1
1558438299367924,7,9,5,0,2,2,6,3
1558438299367924,7,10,10,3,6,5,12,1
1558438299373907,6,11,39,20,14,8,6,8
1558438299373907,-13,-15,-22,-17,-7,-1,10,-3
1558438299388867,-4,-18,-43,-19,-14,-13,-20,-8
1558438299388867,-5,0,15,5,3,-4,-3,-2
1558438299395848,-2,-8,-17,-6,-5,-5,-5,-3
1558438299395848,4,11,30,13,9,7,4,3
1558438299404824,3,4,13,5,2,4,3,2
1558438299404824,1,3,-11,-7,-6,-7,-5,0
1558438299418786,6,-3,-1,-2,-7,-7,11,0
1558438299418786,-18,-7,8,6,7,7,-14,-1
1558438299427763,3,8,2,0,4,4,2,0
1558438299427763,-10,-7,-11,-5,-2,0,-7,-7
1558438299433747,2,2,-1,-5,-3,-4,-5,2
1558438299433747,3,1,1,1,-3,-4,0,0
1558438299448707,5,9,7,1,2,6,5,0
1558438299448707,-1,-6,2,-2,-6,-1,2,0
1558438299456687,-7,-6,-6,-3,0,-3,9,1
1558438299456687,6,14,24,9,3,2,-11,-4
1558438299464725,9,17,27,16,14,4,5,1
1558438299464725,-22,-39,-73,-34,-23,-10,-15,-10
1558438299478630,-9,-9,-10,-6,-4,-1,-10,-3
1558438299478630,8,10,1,8,4,4,12,2
1558438299487603,-5,-8,-15,-14,-12,-16,-5,-5
1558438299487603,12,13,31,12,8,2,2,5
1558438299493587,-7,-3,-13,-9,-7,-2,5,2
1558438299493587,-5,0,2,-1,-2,-8,-12,-2
1558438299508548,0,-11,-1,0,2,6,-2,-2
1558438299508548,-1,3,7,1,6,3,12,0
1558438299516526,0,0,0,0,-6,-10,-17,-4
1558438299516526,2,6,-1,-2,-1,3,4,-1
1558438299525508,0,7,10,2,-2,2,5,0
1558438299525508,1,-13,1,-1,-1,-10,-6,3
1558438299538474,1,6,-5,2,1,1,4,-3
1558438299538474,-13,-22,-28,-13,-10,-8,1,-5
1558438299547444,-3,3,-8,-4,-2,-4,2,-1
1558438299547444,-1,-3,18,7,1,4,-3,-1
1558438299553430,2,3,1,4,3,5,6,4
1558438299553430,3,-1,-3,-7,-2,4,3,1
1558438299568388,-3,-5,-13,-5,-2,1,0,1
1558438299568388,5,15,15,5,0,-3,-9,-2
1558438299576370,0,-5,-13,-5,-2,-3,-5,-4
1558438299576370,-6,-12,-17,-7,-4,-4,0,-2
1558438299585345,0,-6,18,7,1,5,1,0
1558438299585345,2,10,-2,1,-1,-5,4,0
1558438299598310,-2,-9,-20,-9,-6,-6,-6,-4
1558438299598310,12,20,30,15,12,6,11,7
1558438299607287,-12,-22,-14,-9,-11,-8,-15,-10
1558438299607287,5,3,-7,-2,1,-1,-4,-2
1558438299614266,-5,-5,5,-5,-1,6,-3,-3
1558438299614266,0,1,-16,-6,-5,-4,-2,0
1558438299629225,2,7,3,4,0,1,1,0
1558438299629225,-1,4,12,-1,1,6,11,2
1558438299636237,0,3,7,5,0,-2,-19,-7
1558438299636237,-10,-17,2,-1,0,-4,2,-2
1558438299645182,-5,-8,-15,-8,1,-1,-8,-4
1558438299645182,2,7,6,3,-2,3,3,-1
1558438299659144,0,6,-1,-4,0,-1,6,5
1558438299659144,-3,-6,10,6,-1,-3,-1,-3
1558438299667130,5,5,11,10,3,-2,-2,1
1558438299667130,-12,-24,-35,-14,-3,-2,2,-1
1558438299674105,-1,-4,1,-2,-7,-4,0,-5
1558438299674105,5,8,0,-6,-5,0,-9,-2
1558438299690064,-1,-6,34,10,8,4,13,5
1558438299690064,-3,1,-12,-2,2,-1,-13,-7
1558438299705036,-4,-8,-9,-8,-5,-5,-1,-1
1558438299705036,-4,-5,-20,-12,-9,-8,-6,-3
1558438299707047,8,11,-7,0,-3,1,3,-1
1558438299707047,1,5,11,7,2,3,-1,1
1558438299718987,-3,-3,3,0,1,-1,1,-3
1558438299718987,0,3,14,3,4,1,6,4
1558438299727964,2,7,9,3,-1,-4,-8,0
1558438299727964,-2,-6,-16,-9,-3,4,5,2
1558438299742126,-6,-8,-8,-1,0,-2,-12,-5
1558438299742126,5,9,14,4,-5,-3,-4,-3
1558438299749109,-3,-6,-10,-5,0,-5,3,-3
1558438299749109,1,-5,6,4,3,-6,-4,-3
1558438299765869,-6,2,-13,-9,-5,-2,-5,-3
1558438299765869,-5,-10,-4,1,-2,0,-2,-3
1558438299766856,3,3,20,4,0,0,4,0
1558438299766856,2,2,-17,-11,-3,2,0,1
1558438299779121,4,4,0,6,6,6,13,5
1558438299779121,0,7,1,2,-5,-11,-8,-4
1558438299787802,-4,-4,-19,-10,-10,-6,-5,-2
1558438299787802,-3,-9,15,8,0,4,1,0
1558438299801764,2,-4,3,2,2,3,2,0
1558438299801764,1,2,1,0,4,-3,-4,0
1558438299808774,3,6,-17,-8,1,8,12,2
1558438299808774,-10,-4,-8,-5,1,-7,-10,-5
1558438299825781,-2,-7,12,5,-2,-2,-1,-1
1558438299825781,-1,6,-21,-6,0,1,-1,-1
1558438299826777,0,4,4,-2,-2,4,-1,-2
1558438299826777,4,8,5,-2,-4,-2,-2,2
1558438299838753,-12,-14,-6,1,4,3,6,0
1558438299838753,-1,-2,7,4,2,0,-8,-3
1558438299847721,1,-2,37,16,7,1,8,4
1558438299847721,5,3,-31,-12,-3,2,-13,-8
1558438299861686,-2,2,-6,-6,-5,-4,4,1
1558438299861686,1,3,1,-1,-3,0,0,1
1558438299870660,-15,-21,-21,-9,-7,-5,-5,-5
1558438299870660,2,4,34,13,4,3,5,6
1558438299884622,5,10,25,3,7,4,10,4
1558438299884622,-9,-14,-37,-13,-3,-5,-12,-5
1558438299886616,6,13,6,2,-2,0,-5,-1
1558438299886616,-2,0,-7,-1,-1,-1,9,1
1558438299898621,-3,-2,-2,-1,-4,-3,-10,-2
1558438299898621,-2,1,5,0,1,1,4,-2
1558438299907561,2,-4,-4,-1,-4,-3,-2,2
1558438299907561,-5,-10,-5,-2,-5,-6,-12,-7
1558438299921735,1,0,-10,-4,-4,2,0,1
1558438299921735,0,5,39,13,6,5,9,4
1558438299929943,-6,-3,-41,-11,0,-2,-13,-5
1558438299929943,-3,-11,3,-3,0,2,8,1
1558438299944778,1,3,-12,-6,-5,-3,-6,-4
1558438299944778,1,0,-4,-3,-2,0,0,-1
1558438299946704,-5,-7,5,-2,-2,-3,-7,-2
1558438299946704,3,7,10,4,1,-3,3,2
1558438299958736,3,3,-4,-1,4,2,5,2
1558438299958736,-2,-9,3,4,1,-3,-5,0
1558438299967649,1,11,13,4,2,5,-5,-2
1558438299967649,-10,-18,-24,-6,-3,-4,-2,-5
1558438299990587,-4,-1,-9,-3,-5,-2,-1,-4
1558438299990587,1,-1,-9,-5,-6,-5,5,-2
1558438299991587,2,-2,0,1,1,-1,-2,-3
1558438299991587,1,9,7,0,4,5,5,0
1558438300005547,3,7,31,10,4,1,12,2
1558438300005547,-2,-10,-24,-14,-7,2,-18,-2
1558438300006545,-2,-11,-27,-12,-11,-13,-2,-4
1558438300006545,-7,-2,-2,1,-2,-8,-7,-1
1558438300018516,-2,-8,-10,-8,-4,-2,0,-1
1558438300018516,1,4,11,3,3,5,6,4
1558438300027492,3,3,6,-1,2,3,2,-1
1558438300027492,-1,0,4,-2,-4,-3,0,-1
1558438300041479,6,5,14,8,3,-3,-4,1
1558438300041479,-2,-2,-13,-13,-4,-3,3,0
1558438300050456,-6,-10,-3,0,-2,-3,-4,-2
1558438300050456,1,1,-6,-1,-1,1,3,0
1558438300065389,-3,0,5,3,-5,-8,-9,-4
1558438300065389,-3,-3,-18,-5,-4,-2,0,-4
1558438300066386,-3,-3,-2,-4,3,5,7,0
1558438300066386,-2,4,14,9,6,6,0,0
1558438300078352,3,0,-2,-1,1,-1,-3,0
1558438300078352,2,2,14,5,-2,-3,2,0
1558438300087329,0,-1,-14,-7,-3,2,4,-1
1558438300087329,-1,-2,3,0,-5,-10,-2,-3
1558438300101291,2,5,11,5,6,4,6,5
1558438300101291,-7,-5,-10,-2,-2,-3,-15,-9
1558438300110267,-3,-3,-2,2,-3,-2,1,0
1558438300110267,8,8,8,-2,-5,0,3,2
1558438300125227,-9,-3,11,7,5,4,0,1
1558438300125227,-5,-9,-8,-2,3,0,-5,-2
1558438300126224,-2,-7,-16,-9,-5,-3,-7,-3
1558438300126224,0,2,-3,-5,-5,-3,-4,-4
1558438300138191,1,1,-11,-6,-6,-1,3,-2
1558438300138191,-3,-3,8,6,2,1,8,-3
1558438300148268,-3,-6,12,4,3,3,-2,0
1558438300148268,-1,4,4,2,2,-2,-3,2
1558438300161344,2,-3,-7,-3,0,-1,1,1
1558438300161344,2,8,10,0,-2,0,1,2
1558438300170108,-4,-12,-22,-8,-5,-4,2,0
1558438300170108,4,6,6,4,-1,-4,-3,-1
1558438300185493,-6,-9,-10,-5,-4,-1,-7,-7
1558438300185493,3,4,0,1,1,3,-3,-1
1558438300186413,-8,2,12,5,0,-2,-4,-1
1558438300186413,-7,-3,-9,-3,1,7,7,2
1558438300199264,-3,-13,-17,-10,-6,-5,-7,-3
1558438300199264,5,3,15,7,5,5,8,4
1558438300213267,9,18,20,7,-2,-3,2,3
1558438300213267,6,0,-5,-4,4,5,0,0
1558438300221238,-15,-10,-10,-7,-1,-4,-10,-3
1558438300221238,-4,-5,-9,-6,-5,-4,-2,-1
1558438300230184,1,-1,1,-1,3,-2,-4,0
1558438300230184,1,3,4,2,-1,-3,-2,-1
1558438300245178,5,0,-2,-2,-1,5,-1,-2
1558438300245178,-2,0,-2,-3,-4,1,1,0
1558438300246145,8,11,19,8,5,-3,7,3
1558438300246145,-6,-14,-2,0,-1,-6,-12,-6
1558438300259108,0,3,-23,-10,-8,-6,-9,-2
1558438300259108,-4,-8,6,6,0,0,-3,-5
1558438300268080,-1,0,-2,-5,0,2,1,0
1558438300268080,3,5,2,1,0,1,3,2
1558438300281158,-10,-2,-1,0,-4,0,-1,-2
1558438300281158,-4,-9,0,0,-2,-5,2,0
1558438300290133,-1,1,0,2,3,6,6,2
1558438300290133,1,0,-3,-3,-2,-3,4,1
1558438300304096,9,9,19,9,8,7,-1,1
1558438300304096,11,17,5,3,6,3,7,3
1558438300311076,-21,-23,-32,-17,-14,-11,-13,-12
1558438300311076,-8,-15,-13,-7,-10,-10,-11,-6
1558438300319054,3,2,4,1,-1,-4,3,0
1558438300319054,3,5,12,5,7,5,1,2
1558438300328029,4,5,10,8,6,3,3,0
1558438300328029,-2,0,-12,-5,0,1,-1,1
1558438300340994,3,3,3,-2,-4,-7,-1,0
1558438300340994,-5,-5,-6,-3,-5,-5,3,0
1558438300349972,0,0,-6,-4,-6,-10,-11,-5
1558438300349972,-1,1,4,2,0,4,0,1
1558438300364930,1,-2,0,0,0,-1,-5,-6
1558438300364930,-5,-3,-5,-5,-1,-5,-2,0
1558438300379891,1,3,11,3,-1,2,2,1
1558438300379891,1,5,11,2,0,-3,7,1
1558438300379891,-4,-10,-28,-11,-4,-3,4,-2
1558438300379891,-4,-2,-10,-7,-1,-2,-10,-4
1558438300387878,-1,-1,1,1,0,-1,-4,-2
1558438300387878,-2,-1,3,0,-1,3,-2,-2
1558438300401832,2,5,5,1,-2,-3,-1,1
1558438300401832,1,-3,-2,0,-3,-3,5,1
1558438300409846,1,4,9,2,3,4,4,0
1558438300409846,-1,-1,-17,-5,2,2,-2,1
1558438300424817,-1,2,1,0,-3,-1,5,0
1558438300424817,-4,-10,-1,-3,-5,-3,-2,0
1558438300430795,-2,-2,-19,-6,-2,-3,-3,0
1558438300430795,0,-1,9,1,-6,-7,-10,-2
1558438300438738,-4,-4,-19,-7,0,1,4,-2
1558438300438738,2,3,5,4,4,5,5,4
1558438300447714,5,7,17,8,3,5,-1,1
1558438300447714,-5,-4,-24,-14,0,-3,6,-2
1558438300461703,7,8,34,16,5,-1,-11,0
1558438300461703,-13,-22,-40,-22,-9,-1,-8,-8
1558438300469685,-6,-8,-10,-2,-3,-3,-1,-2
1558438300469685,0,1,6,2,-2,1,0,-2
1558438300484613,1,3,6,1,-2,-2,1,0
1558438300484613,-2,0,13,5,3,1,-1,0
1558438300491592,2,3,3,-1,-2,-5,-5,0
1558438300491592,-2,-6,-7,-3,-6,-5,-1,-4
1558438300507556,-7,-5,5,1,7,6,5,1
1558438300507556,10,20,55,25,13,3,1,4
1558438300508548,-9,-19,-80,-36,-12,-5,14,1
1558438300508548,-6,-7,-9,1,-5,-2,-17,-9
1558438300530521,0,-2,4,-2,-3,-2,-5,-2
1558438300530521,-7,-7,-25,-9,-10,-5,-8,-6
1558438300532484,6,7,35,13,3,1,1,0
1558438300532484,1,7,3,-2,1,2,7,3
1558438300544485,0,-5,-4,-1,4,3,-4,-1
1558438300544485,1,3,-3,1,4,3,9,-1
1558438300551463,1,0,20,8,0,-3,-10,1
1558438300551463,-3,-10,-17,-9,-7,-1,1,-1
1558438300567392,2,7,20,5,3,1,-5,-3
1558438300567392,0,-4,-28,-13,-10,-4,-2,-2
1558438300569415,-2,6,13,5,-1,-2,-1,-3
1558438300569415,-2,-2,-5,0,5,5,4,2
1558438300581359,-4,-12,-5,-4,-4,-1,7,4
1558438300581359,1,2,3,-1,-1,1,5,3
1558438300590331,-5,-5,-1,0,2,-3,-28,-8
1558438300590331,0,4,13,6,7,2,2,0
1558438300612305,7,7,-5,-3,-4,-2,2,2
1558438300612305,-2,2,3,1,-3,-1,2,1
1558438300614265,-5,-14,-14,-6,-6,-1,-2,-1
1558438300614265,-2,-1,5,1,2,-3,-2,-3
1558438300627230,2,-1,1,0,1,-4,1,0
1558438300627230,-3,-9,-22,-10,-8,-5,-4,-3
1558438300629226,1,6,8,2,0,-2,0,-2
1558438300629226,1,8,9,2,1,0,-3,0
1558438300641225,-9,-18,-19,-5,-6,-3,2,-1
1558438300641225,-3,-2,3,-1,-2,-2,-8,-4
1558438300650169,-2,0,-4,0,5,2,8,2
1558438300650169,2,0,1,-1,-4,-6,-4,-2
1558438300665166,-2,7,6,-1,-1,-3,-7,-2
1558438300665166,2,5,13,8,8,5,8,4
1558438300671341,-2,-3,-8,-6,-6,2,8,-1
1558438300671341,-2,-2,-3,2,0,-7,-13,-5
1558438300688291,-2,4,2,-2,-4,-6,-6,0
1558438300688291,-3,-8,-14,-4,-2,-1,2,-4
1558438300689067,-2,0,-1,-2,-5,-4,-8,-4
1558438300689067,1,1,8,4,3,2,2,2
1558438300701036,1,0,0,3,3,-3,4,-1
1558438300701036,2,8,26,7,-2,-3,-10,0
1558438300710012,-4,-12,-49,-23,-8,-3,2,2
1558438300710012,-5,-1,15,5,-3,3,1,-2
1558438300724002,-3,-5,-26,-8,1,1,-3,-3
1558438300724002,-5,-2,5,4,1,3,4,0
1558438300732098,3,8,8,8,2,-2,-1,-2
1558438300732098,-2,-9,-2,-6,-5,-5,-5,1
1558438300748237,0,-1,3,-4,-8,-3,1,-3
1558438300748237,4,6,3,6,6,0,-3,0
1558438300748904,1,2,7,3,5,3,5,2
1558438300748904,-3,-4,-9,-1,0,0,0,0
1558438300761917,-4,2,4,0,-6,-5,3,0
1558438300761917,0,-4,-7,-5,-2,-4,-7,-3
1558438300770170,1,10,9,2,1,2,-3,0
1558438300770170,3,1,4,1,2,6,6,4
1558438300785041,-3,0,2,-2,-4,-3,2,0
1558438300785041,-6,-13,-35,-14,-4,-4,-6,-3
1558438300791840,-3,0,-13,-5,-3,-2,-2,-2
1558438300791840,-1,1,6,1,4,1,0,-2
1558438300807752,0,-6,-2,1,3,7,0,-1
1558438300807752,0,5,8,-1,-5,-2,0,-3
1558438300808748,-1,-5,16,6,-1,-3,0,3
1558438300808748,0,-1,-8,-4,-5,-6,-2,-6
1558438300821748,10,13,14,8,10,10,2,2
1558438300821748,-2,-7,-6,-1,2,1,7,5
1558438300829987,0,-2,0,-1,2,0,-6,-3
1558438300829987,-4,1,-2,-5,-5,-5,-6,-7
1558438300844859,-2,-1,-13,-5,-5,-1,-5,-3
1558438300844859,5,2,12,6,-2,1,-1,-3
1558438300851632,-4,-4,0,-2,-4,-3,-1,-3
1558438300851632,-1,-1,-4,0,0,2,3,4
1558438300867589,0,7,2,2,2,3,4,-1
1558438300867589,-2,-1,0,-2,0,-4,7,6
1558438300868589,4,3,30,12,4,1,-11,-2
1558438300868589,-5,-12,-45,-19,-10,-7,-5,-5
1558438300881922,-5,-4,-3,1,0,3,0,1
1558438300881922,1,3,-1,-6,-4,-3,-1,0
1558438300890526,-1,1,-5,-5,0,2,3,2
1558438300890526,0,-1,13,9,4,3,2,0
1558438300904845,-3,-7,0,1,0,-5,-3,-2
1558438300904845,-2,3,-10,-3,-1,1,-3,-4
1558438300910826,0,-4,-2,1,-2,-3,1,0
1558438300910826,2,5,7,3,4,7,6,5
1558438300935883,5,-6,-8,-7,-5,-7,-10,-2
1558438300935883,-3,4,27,12,2,0,-1,-2
1558438300936921,-6,-8,-6,-3,-1,-4,-1,-4
1558438300936921,-12,-17,-53,-26,-15,-7,-3,-5
1558438300941915,-3,-2,-3,-2,0,-5,-2,-4
1558438300941915,1,-2,-6,-5,-1,-2,-8,-1
1558438300950222,1,1,2,2,2,5,6,6
1558438300950222,3,3,19,8,6,1,6,3
1558438300965213,-2,3,6,1,-1,0,-1,-4
1558438300965213,0,0,-12,-3,-3,2,5,-2
1558438300971471,-7,-7,0,-4,-5,-7,0,-1
1558438300971471,-1,0,8,3,1,-4,-10,-3
1558438300988283,-3,-3,-3,-2,-2,4,5,-2
1558438300988283,-2,-2,3,1,-1,-3,-15,-7
1558438300989126,3,3,-4,-1,0,6,6,0
1558438300989126,4,5,15,6,-1,-3,1,3
1558438301002088,-2,-2,-12,-4,1,1,-2,1
1558438301002088,4,0,-4,-1,1,0,0,1
1558438301010062,-14,-13,-2,-1,-4,-4,-6,-4
1558438301010062,-3,-2,14,8,3,-1,-1,-4
1558438301025195,-3,-1,-13,-9,-4,-4,3,-1
1558438301025195,-1,0,-2,-2,-4,-2,1,0
1558438301031275,-1,-4,-15,-6,1,-1,-6,-4
1558438301031275,2,6,11,5,0,1,3,2
1558438301048196,0,0,7,2,-3,-5,-1,0
1558438301048196,-5,-9,-12,-6,0,0,2,2
1558438301054159,2,4,0,-1,2,-3,-7,-3
1558438301054159,-2,-5,7,0,0,3,5,1
1558438301061954,0,1,0,0,-2,1,-10,-2
1558438301061954,2,2,0,-1,-3,-4,0,-3
1558438301070103,3,5,4,4,2,-1,8,3
1558438301070103,2,1,-4,-5,-2,1,2,1
1558438301085032,-2,-7,5,0,2,0,2,2
1558438301085032,-4,-1,11,4,0,-4,-10,-4
1558438301091976,1,0,1,-2,-6,-3,-6,-2
1558438301091976,-4,-2,-36,-15,-8,-4,-5,-2
1558438301108038,-1,-7,-6,-3,-4,0,4,-2
1558438301108038,-1,-2,6,2,3,2,-1,1
1558438301108802,6,9,18,8,3,-2,0,1
1558438301108802,5,6,7,5,7,3,-4,3
1558438301121808,-2,-3,-9,-8,-6,-2,-1,-3
1558438301121808,-5,-6,-9,-5,-4,-4,1,-2
1558438301130210,1,3,-6,-4,-2,0,-1,0
1558438301130210,1,2,11,4,-1,0,0,-3
1558438301145198,-1,-3,-1,1,2,-1,-2,0
1558438301145198,5,2,0,-1,2,3,1,-2
1558438301150978,-2,-1,1,-3,-8,-7,0,-1
1558438301150978,1,4,13,5,4,-1,-4,-1
1558438301167951,-3,-4,-15,-2,3,2,2,-1
1558438301167951,-6,-2,-13,-9,-12,-9,-7,-6
1558438301168929,-2,-5,3,1,4,8,5,0
1558438301168929,0,0,-3,-3,-3,-3,-3,0
1558438301180933,0,5,3,0,-4,-7,-8,-3
1558438301180933,-1,-2,-1,0,-5,-3,-1,0
1558438301189873,1,0,-2,2,3,0,2,1
1558438301189873,2,3,7,0,-3,1,5,2
1558438301205259,-2,5,24,9,10,7,-4,3
1558438301205259,-2,-4,-16,-7,-4,-3,1,-1
1558438301212122,-2,-3,-5,-4,-7,-4,-11,-4
1558438301212122,1,-2,-8,-1,4,6,3,-1
1558438301228284,3,5,22,5,0,-4,3,2
1558438301228284,0,0,3,1,4,4,1,0
1558438301230034,-2,-5,-12,-6,-4,-3,8,-1
1558438301230034,-1,0,-6,-3,1,-2,-9,-3
1558438301242216,0,-1,4,4,-1,-2,0,2
1558438301242216,-3,-2,3,3,-1,0,0,1
1558438301249715,-1,1,-2,-3,5,6,-1,-2
1558438301249715,0,1,9,4,-5,-2,1,0
1558438301265073,-9,-20,-22,-14,-9,-12,-2,-6
1558438301265073,0,1,3,1,2,2,-4,0
1558438301272031,0,2,-3,-3,-2,3,2,1
1558438301272031,1,3,12,5,1,1,4,2
1558438301287728,-6,-4,-9,-4,1,-1,-7,-2
1558438301287728,-4,-8,-20,-9,-4,-5,-1,-3
1558438301293883,1,1,10,4,2,3,-2,-1
1558438301293883,-6,-10,-5,-4,-5,-2,-7,-3
1558438301301861,4,5,-1,-1,-1,1,10,-1
1558438301301861,6,7,13,4,4,-1,-1,0
1558438301310551,-10,-4,-1,3,0,-3,-5,-3
1558438301310551,-2,-4,-2,-3,0,-2,4,1
1558438301324514,-1,-1,-14,-4,-12,-9,-9,-2
1558438301324514,0,5,5,0,-1,-4,-10,-5
1558438301331496,1,-1,-10,-4,-2,0,2,1
1558438301331496,-4,-6,-5,-1,-3,-3,-5,-1
1558438301346492,5,11,5,3,5,3,8,5
1558438301346492,-5,-9,2,2,4,0,1,3
1558438301353470,5,8,22,6,-3,-3,7,3
1558438301353470,-5,-9,-16,-10,-8,-8,-15,-11
1558438301361883,-3,-8,-37,-14,-7,-2,-6,-6
1558438301361883,0,3,-2,-1,-1,-2,-3,0
1558438301369881,0,-5,-5,-3,-1,-3,2,-1
1558438301369881,1,2,16,5,4,4,6,2
1558438301385195,5,6,16,6,5,0,-1,-1
1558438301385195,1,-1,-5,-5,-6,-3,-1,-3
1558438301392108,-1,1,2,1,1,3,-3,-2
1558438301392108,-7,-5,-4,0,12,9,7,2
1558438301407483,-1,-4,4,6,0,-5,-4,0
1558438301407483,-4,-6,-7,-7,-9,-6,0,-1
1558438301414509,0,-1,-1,-2,-4,-3,-6,-2
1558438301414509,2,2,-12,-4,-2,0,-3,-1
1558438301430354,-3,-4,2,-1,0,1,2,-2
1558438301430354,3,2,10,4,6,5,3,-1
1558438301432007,3,2,-3,-2,-1,-3,0,0
1558438301432007,-3,-3,22,10,0,-8,-6,-3
1558438301444326,-4,-6,-28,-12,-4,1,-3,-2
1558438301444326,-1,0,-7,-3,-3,2,-1,-2
1558438301452952,-6,-8,-12,-5,-2,-5,-2,-1
1558438301452952,6,6,1,-1,3,2,13,5
1558438301466928,1,1,13,7,2,3,-11,-1
1558438301466928,0,0,11,2,1,1,7,1
1558438301473894,-4,-11,-18,-8,-7,-4,-11,-6
1558438301473894,2,6,-2,-2,-2,2,4,1
1558438301489990,-1,-3,5,5,4,5,1,-1
1558438301489990,2,2,3,0,-1,2,2,2
1558438301491848,-2,-6,-9,-5,-7,-7,-5,-2
1558438301491848,2,0,-7,-3,-9,-5,1,-4
1558438301505221,-3,0,-2,-5,-6,-4,-4,-2
1558438301505221,1,2,9,6,4,-2,1,3
1558438301511573,0,-1,32,15,7,1,4,1
1558438301511573,1,-3,-33,-14,-2,-2,-5,-3
1558438301527537,0,10,4,0,-7,-2,-6,-3
1558438301527537,-7,-18,0,2,0,0,-1,-2
1558438301534141,-3,-4,-13,-10,-6,-3,-1,0
1558438301534141,-5,-6,-7,-5,-1,3,3,0
1558438301550100,1,1,8,1,-1,-5,-3,0
1558438301550100,6,14,7,1,2,4,2,0
1558438301551098,-5,-4,-5,-5,1,2,-1,-4
1558438301551098,-1,-1,5,5,0,0,-6,-3
1558438301565120,1,0,4,-2,1,-2,8,0
1558438301565120,2,1,-13,-5,-3,-4,-13,-4
1558438301572091,-6,-3,2,4,2,3,1,0
1558438301572091,0,1,5,1,0,0,3,3
1558438301587351,-2,-4,-4,-3,-5,-3,-4,-3
1558438301587351,4,11,5,1,-2,-10,1,3
1558438301594314,-2,-3,-1,1,1,-1,2,1
1558438301594314,-6,-11,-8,-2,-1,-1,-3,-3
1558438301610268,0,-3,8,1,5,6,4,0
1558438301610268,-6,-9,-6,-1,-2,3,0,-4
1558438301611934,5,10,-8,-5,-4,-7,-9,-3
1558438301611934,7,16,9,4,-4,-9,-5,0
1558438301625222,1,4,13,9,9,6,8,4
1558438301625222,-26,-21,-23,-13,-7,-1,-6,-6
1558438301631882,2,-2,-7,-3,-2,2,6,-3
1558438301631882,1,-3,12,4,4,3,-8,-2
1558438301647148,0,2,-6,-2,-4,-1,-6,0
1558438301647148,12,8,4,1,-1,-10,3,5
1558438301654095,-15,-21,0,-3,-1,-1,1,-4
1558438301654095,-2,-1,5,2,-3,-7,3,-1
1558438301670950,0,0,-3,-5,-3,-4,-3,-1
1558438301670950,0,-2,-8,-4,-3,2,-2,-3
1558438301671778,5,4,0,0,-5,-6,-5,0
1558438301671778,0,2,-5,-4,2,1,-5,-1
1558438301684922,0,-3,-3,1,2,3,0,0
1558438301684922,0,2,15,6,-2,-4,-1,-2
1558438301692801,-1,0,-9,-3,-1,5,0,-3
1558438301692801,-2,0,3,-1,-3,-4,2,-1
1558438301707019,0,-4,-15,-7,-7,-7,-2,-4
1558438301707019,-1,-2,7,3,7,7,3,2
1558438301713742,7,9,10,6,3,-1,-3,3
1558438301713742,-5,-6,-8,-4,-3,-1,0,-1
1558438301729735,2,1,-3,-2,-5,-6,-2,-2
1558438301729735,7,10,10,5,7,10,6,1
1558438301731694,-3,-5,3,1,3,-1,-1,1
1558438301731694,-6,-8,-20,-9,-9,-7,-2,-3
1558438301744075,-4,-3,2,1,1,1,-1,1
1558438301744075,-3,-7,-13,-8,-6,-5,-6,-3
1558438301752775,2,10,17,4,2,4,11,3
1558438301752775,-2,-6,-17,-7,-3,-3,-14,-6
1558438301766601,4,5,11,5,6,2,1,0
1558438301766601,0,-3,-1,-1,0,3,0,0
1558438301773793,-3,-9,-29,-12,-7,-3,-8,-6
1558438301773793,4,6,9,1,0,-4,5,2
1558438301790756,-4,-2,-1,-1,-2,-3,-1,-2
1558438301790756,-2,1,6,3,-1,0,-4,-4
1558438301791535,0,0,4,4,-2,-7,1,1
1558438301791535,0,3,5,1,-3,-4,0,2
1558438301803813,5,8,-9,-4,0,2,4,0
1558438301803813,-2,-7,-4,-4,-3,-1,-5,-3
1558438301812679,-7,-7,-12,-4,-4,2,-6,-4
1558438301812679,0,-2,-1,-2,-6,-6,2,-1
1558438301827474,-3,-3,10,1,0,0,1,2
1558438301827474,1,3,-14,-7,-5,-3,1,0
1558438301833425,1,6,4,2,2,2,0,2
1558438301833425,-2,-2,8,4,10,9,2,0
1558438301857612,0,3,15,6,2,3,1,0
1558438301857612,-4,-5,-10,-6,-3,-1,-4,-1
1558438301859352,-1,1,-1,-5,-8,-7,0,1
1558438301859352,-1,0,-4,-2,-1,1,3,-2
1558438301863341,-5,-6,-4,-3,-2,-3,4,-1
1558438301863341,-2,0,7,3,3,1,-4,-2
1558438301872316,3,1,7,2,0,-1,-8,-3
1558438301872316,2,0,3,2,1,-2,2,1
1558438301887278,-2,-4,-9,-3,-5,-3,-2,-3
1558438301887278,4,3,4,0,0,-2,10,4
1558438301893260,0,6,2,2,4,5,-11,-3
1558438301893260,-4,-8,-12,-6,-2,1,-1,-1
1558438301910216,-5,-9,0,0,-4,-4,-6,-4
1558438301910216,-6,-9,-16,-6,-1,2,1,-2
1558438301911214,-3,3,0,-5,-4,-6,0,-1
1558438301911214,-1,0,8,1,2,-3,-4,-2
1558438301923180,2,1,4,0,0,1,-2,2
1558438301923180,-2,3,0,0,0,-2,-3,2
1558438301932156,6,5,18,9,10,8,20,3
1558438301932156,5,9,-1,-1,3,7,2,0
1558438301947175,-12,-17,-15,-10,-9,-4,-13,-8
1558438301947175,4,6,4,1,-1,-2,-6,-5
1558438301954099,-8,-10,-21,-10,-9,-8,-4,-4
1558438301954099,-4,7,10,7,-4,-4,-1,-1
1558438301970056,3,-9,-6,0,6,2,8,1
1558438301970056,0,-1,-1,-1,-2,-3,-1,0
1558438301971087,5,5,12,3,-1,4,-2,1
1558438301971087,0,-11,-6,-4,-4,-2,-2,-1
1558438301984018,-3,5,-1,-3,1,2,2,2
1558438301984018,-3,0,2,3,1,1,1,-2
1558438301992996,0,0,-5,-2,-4,-5,0,0
1558438301992996,-1,-5,-3,-1,-4,1,-2,-3
1558438302006984,-6,-2,-5,-3,-3,-3,-4,-3
1558438302006984,4,2,14,5,9,2,5,1
1558438302013977,2,3,-19,-11,-5,-2,-3,-4
1558438302013977,-3,2,3,-2,-2,-3,-7,-1
1558438302029961,1,4,-6,-1,-1,2,4,1
1558438302029961,-7,-16,-6,0,1,1,0,-1
1558438302031952,7,8,21,6,2,-2,1,3
1558438302031952,-8,-9,-8,-8,-6,1,-3,-3
1558438302043857,-3,-3,-20,-8,-10,-8,0,-4
1558438302043857,0,6,-3,0,3,4,3,2
1558438302052833,0,-7,-4,1,1,-6,-10,-2
1558438302052833,3,3,14,3,2,2,1,0
1558438302066797,0,0,3,-2,-4,1,-5,-2
1558438302066797,-9,-12,-5,-2,-9,-11,-7,-8
1558438302073812,-7,-10,-12,-2,5,3,4,0
1558438302073812,3,4,2,1,0,-2,-1,-1
1558438302089735,-1,-1,-6,-6,-2,-1,-7,0
1558438302089735,11,14,10,4,6,9,6,4
1558438302091729,-10,-14,-6,-1,1,-1,2,1
1558438302091729,0,3,2,2,2,3,-1,1
1558438302103724,0,-7,-18,-6,-7,-7,-3,-3
1558438302103724,-6,-8,0,-2,-8,-8,-6,-3
1558438302112674,-1,6,5,0,2,4,0,0
1558438302112674,-1,-2,5,7,8,8,8,3
1558438302126636,4,4,9,-1,-2,-6,-6,-1
1558438302126636,-1,8,-1,-2,-4,-5,-2,-4
1558438302133618,2,1,-6,-3,1,-1,2,-1
1558438302133618,-4,-8,-9,-4,-4,-8,-8,-4
1558438302149575,1,4,26,12,4,6,3,0
1558438302149575,-2,-7,-30,-12,-9,-8,1,0
1558438302151572,3,-3,10,2,3,5,-5,-2
1558438302151572,-1,-1,-1,-2,-2,-1,8,-1
1558438302163539,0,2,7,3,0,-6,-10,-3
1558438302163539,3,2,5,1,5,6,6,5
1558438302172513,-7,-2,-12,-6,-6,-2,7,-2
1558438302172513,-3,-3,8,2,-3,-3,-10,-3
1558438302186475,3,-3,-11,-8,-2,2,-2,-1
1558438302186475,-9,-11,5,3,-2,-1,-1,-1
1558438302193459,-2,-7,-13,-10,-7,-4,-7,-2
1558438302193459,-2,2,0,-1,0,-1,-4,0
1558438302217425,2,6,15,5,3,6,9,1
1558438302217425,0,-3,-15,-5,-4,-11,-10,-2
1558438302218391,2,2,6,1,2,3,3,1
1558438302218391,1,1,-7,-3,-3,-1,-8,-4
1558438302223377,-3,-3,-5,-2,-1,-2,1,0
1558438302223377,0,-1,-3,1,-1,0,3,0
1558438302232353,3,8,31,13,2,0,3,3
1558438302232353,-6,-16,-56,-20,-8,-6,-8,-5
1558438302246317,-1,2,4,3,1,2,2,-1
1558438302246317,1,-7,0,1,-3,3,-5,-2
1558438302253297,2,10,5,3,0,-2,5,0
1558438302253297,-4,2,14,1,1,4,14,2
1558438302269288,-2,-9,-5,-2,1,-3,-21,-6
1558438302269288,-11,-8,-13,-8,-10,-4,-3,-5
1558438302276237,1,-2,1,3,2,0,11,1
1558438302276237,4,8,7,4,1,-3,-10,-2
1558438302283219,-6,1,2,2,1,0,3,-1
1558438302283219,3,5,-2,-6,-1,-1,-3,-2
1558438302300172,-5,-9,2,3,-3,-4,-3,-3
1558438302300172,-4,-8,-11,-8,-7,-1,4,0
1558438302307153,-2,-3,-1,-4,-3,-2,3,0
1558438302307153,5,5,5,5,6,3,-5,0
1558438302313137,-2,-5,-27,-14,-9,-3,-4,-2
1558438302313137,3,3,7,2,3,-1,3,3
1558438302329095,-2,-5,10,4,3,3,-9,-3
1558438302329095,-1,-3,-15,-3,2,2,8,1
1558438302336077,-5,0,-5,-6,-4,0,-6,-5
1558438302336077,1,-2,11,5,-5,-5,-3,-2
1558438302344057,-1,1,-11,-1,-3,-6,-5,-6
1558438302344057,-4,-4,11,2,-4,-4,-1,-1
1558438302352033,-4,-7,-5,-1,-4,-5,-7,-1
1558438302352033,1,1,6,0,3,2,6,4
1558438302366995,10,13,18,7,11,10,11,5
1558438302366995,-3,-6,-10,-7,0,4,-1,-3
1558438302373974,1,5,16,5,3,2,-3,0
1558438302373974,-4,-5,-36,-16,-9,-8,-4,-4
1558438302388935,-3,-10,-1,2,-2,0,2,1
1558438302388935,3,-2,-2,-6,-5,-4,4,2
1558438302395917,0,2,9,7,2,-1,-10,-4
1558438302395917,4,5,4,0,3,4,9,4
1558438302412871,-1,3,-13,-6,-2,1,4,0
1558438302412871,-12,-8,3,2,1,-8,-7,-3
1558438302413868,-6,-8,-5,-4,-3,-3,-9,-5
1558438302413868,2,5,22,6,0,-1,-3,0
1558438302426833,-2,-7,-15,-8,-3,0,8,3
1558438302426833,6,10,26,13,1,0,-1,0
1558438302433817,4,3,-32,-14,-6,-2,-1,-1
1558438302433817,-11,-12,4,1,-1,-4,-5,-5
1558438302449771,4,-1,-5,-2,-5,-6,4,-2
1558438302449771,0,-1,1,-1,2,3,-3,0
1558438302455757,7,6,19,4,2,-1,-2,-1
1558438302455757,1,7,-10,1,4,9,-2,0
1558438302472710,-5,-7,-10,-7,-8,-12,-3,-1
1558438302472710,5,12,12,6,6,3,15,7
1558438302473708,-2,-10,-10,-4,-3,-3,-18,-4
1558438302473708,-3,1,13,3,-2,0,-2,-1
1558438302486672,-3,0,-1,-3,-3,-2,-5,-1
1558438302486672,1,1,6,3,-2,-2,-7,-2
1558438302493653,2,6,-4,-3,1,7,18,4
1558438302493653,-3,-9,-8,-3,1,-1,-4,-2
1558438302509611,-1,1,-1,-1,-2,-3,-1,0
1558438302509611,1,6,12,7,2,0,-6,-4
1558438302515604,-4,-10,-30,-12,-3,-3,2,-1
1558438302515604,5,5,3,4,0,-3,-4,-1
1558438302532550,0,2,6,0,-1,-3,-2,-1
1558438302532550,-2,-4,3,-2,-1,-1,6,-3
1558438302533549,0,-4,-3,3,1,1,-9,-3
1558438302533549,2,1,1,-3,-1,3,3,1
1558438302546551,0,2,-2,-3,-3,-3,1,0
1558438302546551,-10,-10,-20,-8,0,4,-3,-1
1558438302553496,-3,-1,16,8,0,-1,3,-2
1558438302553496,1,1,-17,-6,-2,0,3,-1
1558438302569486,-5,-6,12,1,0,3,0,-1
1558438302569486,6,8,1,0,-2,-5,-9,-3
1558438302576468,-4,-1,0,-2,-1,0,0,0
1558438302576468,1,-3,9,5,0,-2,-3,-1
1558438302600375,0,2,-2,-2,-1,5,4,-1
1558438302600375,3,3,-8,-5,-4,-5,-8,-3
1558438302601369,-5,-9,-5,-3,-3,-3,-1,0
1558438302601369,0,3,0,-4,-6,-5,0,-2
1558438302606354,-2,-4,-1,0,6,4,-5,0
1558438302606354,2,2,-8,-6,-6,-9,-1,-1
1558438302613334,3,5,10,4,5,6,2,1
1558438302613334,-4,-5,21,8,6,2,2,0
1558438302629330,-8,-7,-40,-12,-6,-5,1,-3
1558438302629330,-2,-7,-11,-7,-7,-3,-8,-6
1558438302636272,4,6,5,4,2,1,-1,-1
1558438302636272,-2,2,-2,-2,-4,-9,1,1
1558438302652231,-1,-5,5,2,3,1,-1,1
1558438302652231,-4,-1,6,1,-5,-6,3,-2
1558438302654226,-5,-1,6,1,0,-3,-7,-3
1558438302654226,0,-7,-20,-8,1,7,2,-2
1558438302667190,2,4,8,1,-2,-4,-2,-1
1558438302667190,-1,-1,1,-1,1,5,5,0
1558438302673174,2,-1,4,0,-6,-6,-9,-2
1558438302673174,-3,-5,-1,-4,-5,-7,-6,-1
1558438302689131,1,4,5,4,3,1,3,1
1558438302689131,-2,-7,-10,-3,2,2,-5,0
1558438302696455,-4,-6,-13,-8,-5,-7,0,1
1558438302696455,-6,-1,23,6,4,4,-9,-6
1558438302713382,-3,-7,-34,-10,-7,-5,-2,-6
1558438302713382,-2,-6,2,-3,1,6,5,4
1558438302714068,3,4,2,-3,-2,1,5,-2
1558438302714068,5,9,15,8,0,-3,1,3
1558438302727394,-13,-14,-13,-11,-3,-2,-5,-4
1558438302727394,1,1,-2,0,-2,-3,2,1
1558438302734044,-3,-3,-4,-7,0,-1,1,-1
1558438302734044,3,2,2,4,5,5,1,0
1558438302748971,1,-2,-18,-7,-4,-3,-5,-4
1558438302748971,0,-3,-1,0,1,3,-1,-1
1558438302755990,-10,-2,0,-1,-5,-2,1,-1
1558438302755990,3,2,6,3,3,3,3,1
1558438302772910,3,2,16,6,0,-4,-3,3
1558438302772910,-3,-4,5,2,2,-5,-2,-2
1558438302773916,2,0,4,2,2,4,-2,-1
1558438302773916,-1,0,-25,-9,-7,-6,-1,-3
1558438302786928,-3,0,-1,-3,-1,-2,3,0
1558438302786928,-3,-3,-1,-5,-2,4,-5,-6
1558438302794851,2,3,6,3,-4,-5,-2,1
1558438302794851,2,1,3,-2,-3,-4,-2,0
1558438302809808,10,12,28,16,16,18,11,10
1558438302809808,-3,0,-24,-6,-1,1,-7,-1
1558438302815795,-3,-8,-20,0,0,-4,2,0
1558438302815795,-2,-5,-12,-7,-9,-3,-7,-4
1558438302832747,0,3,22,5,-2,-2,-3,1
1558438302832747,-3,1,5,3,-3,-4,1,0
1558438302833745,5,2,6,2,6,4,-1,-1
1558438302833745,-6,-7,-14,-7,-4,-3,4,-1
1558438302846709,1,5,11,3,5,4,2,-2
1558438302846709,6,11,31,8,7,3,9,7
1558438302853730,-12,-11,-15,-9,-8,-10,-16,-7
1558438302853730,-4,-10,-11,-1,4,0,3,-3
1558438302868651,-3,-4,-12,-8,-10,-6,-7,-5
1558438302868651,2,-1,-14,-5,-6,-4,2,0
1558438302877627,-1,2,5,1,-4,-1,0,-1
1558438302877627,-5,-9,10,1,-1,0,-3,-2
1558438302899570,4,6,1,1,-1,-2,-6,-1
1558438302899570,6,1,1,-2,-4,-2,2,1
1558438302901565,-4,-4,4,1,1,0,5,2
1558438302901565,3,6,-3,2,13,9,9,3
1558438302906550,2,5,7,3,2,-1,-4,0
1558438302906550,-1,-2,5,-1,-2,-1,-9,-3
1558438302915525,-5,-6,-9,-9,-5,-6,2,-3
1558438302915525,-5,-3,-6,-7,-11,-7,-10,-6
1558438302929488,0,4,2,0,-2,-9,-5,-4
1558438302929488,-3,1,15,4,4,0,0,0
1558438302936529,1,2,-7,-2,-3,3,4,-3
1558438302936529,-1,2,1,0,-1,-1,-3,1
1558438302952427,-4,-5,5,2,0,-1,-5,-4
1558438302952427,-7,-8,-8,-3,0,-1,-9,-4
1558438302953425,4,1,-31,-16,-5,-3,3,1
1558438302953425,-3,-2,0,-2,1,3,4,3
1558438302966390,-2,-4,0,-2,-2,1,1,-1
1558438302966390,0,0,-4,-1,-3,-5,-3,-1
1558438302975366,3,-1,19,9,4,2,2,1
1558438302975366,1,3,-6,-3,-6,-4,-5,-2
1558438302989362,-2,-4,-14,-6,-5,-4,-2,-1
1558438302989362,-3,-7,-8,-2,1,2,1,-2
1558438302996311,6,7,23,9,1,-1,-3,0
1558438302996311,-2,0,-8,-3,3,0,-3,-3
1558438303012306,-2,-1,0,1,4,7,7,0
1558438303012306,1,1,-11,-2,-3,-2,1,-2
1558438303020280,-3,-5,-3,-3,0,-4,-4,-1
1558438303020280,-2,-3,2,-3,-3,-5,-5,-2
1558438303035207,-3,-1,2,2,1,2,-6,0
1558438303035207,-1,2,-2,0,-1,2,3,2
1558438303036203,3,7,4,1,0,0,-3,-1
1558438303036203,-6,-11,-2,0,1,-2,13,2
1558438303049168,-1,-3,-3,-6,-6,-5,-13,-6
1558438303049168,-5,-1,-5,0,-4,-5,-6,-3
1558438303056207,-9,-5,-17,-8,-2,2,-6,-4
1558438303056207,2,-3,2,-3,-3,0,5,3
1558438303072108,4,1,2,0,-1,-1,3,-1
1558438303072108,-14,-6,0,-1,-2,0,3,-1
1558438303074103,3,3,4,1,-3,-4,-1,0
1558438303074103,-2,2,-6,-2,-4,1,-11,-3
1558438303087068,0,-7,2,3,8,10,14,5
1558438303087068,5,-1,-4,-3,2,-3,-2,0
1558438303095045,-1,0,3,-1,1,3,5,0
1558438303095045,-1,1,4,2,-5,0,-11,-6
1558438303109009,-2,-2,-11,-6,-6,-5,-4,-2
1558438303109009,0,2,15,2,-2,-9,-2,1
1558438303115992,-1,-7,-9,5,7,7,6,2
1558438303115992,1,-5,-25,-16,-11,-7,9,1
1558438303132329,-5,5,13,4,1,-6,-12,-3
1558438303132329,-3,-4,-17,-10,-3,1,-1,-3
1558438303139139,-2,-2,6,2,-1,-2,-3,-2
1558438303139139,1,2,11,6,7,4,-2,-2
1558438303146915,0,-1,-3,-3,-2,0,7,1
1558438303146915,2,3,8,3,1,0,-4,0
1558438303155065,0,-2,14,5,7,1,1,2
1558438303155065,-4,1,-11,-5,-2,-3,-2,-3
1558438303170025,-3,-10,-12,-7,-5,-3,-3,-3
1558438303170025,0,0,6,3,-1,4,1,-1
1558438303176962,3,3,-3,-2,-3,-2,-3,-1
1558438303176962,3,3,5,2,1,0,-2,1
1558438303192103,-9,-1,1,-1,0,-2,-2,1
1558438303192103,4,5,4,1,4,5,9,3
1558438303199780,-4,-9,-1,-1,-4,-9,-6,-6
1558438303199780,-2,3,7,7,5,3,0,1
1558438303205753,-2,-6,-15,-9,-8,-3,-3,-4
1558438303205753,0,0,-2,0,-4,-5,-3,1
1558438303214990,-2,-3,10,1,1,2,0,-1
1558438303214990,1,0,11,4,1,2,1,0
1558438303229799,2,-1,0,-1,-3,-6,-2,1
1558438303229799,-1,4,-11,-3,-3,-2,1,-3
1558438303237665,1,2,-8,-6,1,1,-3,-2
1558438303237665,-8,-16,-9,-6,-1,-2,-4,-4
1558438303252659,1,-1,14,5,0,0,7,2
1558438303252659,-3,-10,-16,-5,-6,-5,-8,-6
1558438303258892,2,4,4,2,-7,-2,-4,-2
1558438303258892,3,9,-1,-2,1,5,3,3
1558438303265972,5,6,2,0,6,-1,7,4
1558438303265972,-7,-5,11,2,-2,0,5,2
1558438303274947,-5,-2,-1,3,1,-2,-7,-3
1558438303274947,-2,-7,-20,-11,-8,-10,-9,-2
1558438303289908,3,1,0,-3,0,4,2,-2
1558438303289908,6,7,-1,-3,1,-2,-6,-2
1558438303297884,0,-3,-2,0,-4,-3,3,3
1558438303297884,-3,-2,-5,-3,-3,-5,-5,-1
1558438303311846,-1,-2,5,6,-1,-1,-2,-4
1558438303311846,-1,1,-19,-9,-3,1,-1,0
1558438303318828,1,5,12,4,5,0,4,-1
1558438303318828,-9,-12,-13,-8,-5,-4,-4,-6
1558438303336062,-1,4,4,-2,-1,-1,-4,-2
1558438303336062,-2,-10,0,1,-5,-4,-2,-1
1558438303337066,-7,-10,-10,-4,-1,2,-2,-4
1558438303337066,6,5,5,2,-4,-6,-3,-2
1558438303349745,-2,2,-8,0,-1,2,0,0
1558438303349745,3,7,14,5,7,8,3,2
1558438303355939,0,-1,-5,-6,-1,-6,0,2
1558438303355939,-2,2,10,3,5,1,-1,-2
1558438303371688,-1,0,-8,-6,-4,-3,-6,-4
1558438303371688,-1,-8,1,-2,-1,-5,-4,-1
1558438303378672,-4,-1,-4,0,-3,0,-2,-1
1558438303378672,-2,-2,9,2,1,5,2,0
1558438303395719,0,3,-1,-1,-2,-5,1,-1
1558438303395719,-2,-2,0,0,-2,-4,-3,-1
1558438303396623,1,-1,-1,-2,-1,3,1,0
1558438303396623,3,5,15,6,-1,-2,3,2
1558438303409859,-5,-7,-21,-7,0,3,-8,-4
1558438303409859,-1,1,4,1,2,3,2,-3
1558438303416507,-4,1,-7,-4,-4,-7,-4,-1
1558438303416507,-2,-1,-7,-3,-6,-5,-3,-4
1558438303432467,3,-3,-3,-2,4,3,6,0
1558438303432467,-3,-2,-2,0,1,-1,-1,1
1558438303439446,9,11,4,-2,-4,-3,-3,1
1558438303439446,-3,4,17,9,6,2,3,4
1558438303455709,-10,-15,-15,-5,-6,-4,-8,-5
1558438303455709,-5,-6,-6,-3,-2,-4,-3,-2
1558438303456402,-1,-3,-15,-5,-4,-1,-1,-2
1558438303456402,9,8,3,1,1,1,-1,-1
1558438303469395,1,2,8,1,-4,-5,1,-1
1558438303469395,-1,0,8,4,8,10,4,-1
1558438303476350,0,2,10,5,4,2,-3,-1
1558438303476350,-1,-8,-20,-8,-2,-4,1,2
1558438303491338,4,3,-1,1,-2,0,-2,-2
1558438303491338,-9,-9,-7,-5,-2,3,-3,-2
1558438303498327,2,1,8,2,4,4,5,0
1558438303498327,-4,-4,-3,-2,0,-3,-6,-2
1558438303515242,3,2,2,2,1,-2,3,2
1558438303515242,5,5,10,3,-2,-2,-4,-1
1558438303516240,-5,-5,2,0,-1,-2,2,0
1558438303516240,0,1,-9,-4,-6,-2,6,0
1558438303529205,-2,0,2,-3,-5,-3,-14,-3
1558438303529205,-5,-9,-17,-5,0,0,2,-1
1558438303536186,-5,-10,-9,-5,-2,-2,-7,-3
1558438303536186,-1,1,3,1,1,2,-1,-1
1558438303552146,5,8,11,5,3,2,5,1
1558438303552146,-1,2,3,-1,-4,-2,2,1
1558438303558164,9,16,20,7,5,-5,1,2
1558438303558164,-17,-31,-32,-9,-1,-2,4,-2
1558438303575152,-2,0,13,5,-1,0,-3,-3
1558438303575152,2,2,2,-2,-6,-4,-5,-2
1558438303576081,-4,-10,-31,-14,-13,-1,-1,-2
1558438303576081,1,6,8,5,4,-1,-8,-1
1558438303590044,-4,-2,-2,-1,0,-3,1,1
1558438303590044,0,1,6,2,2,1,1,-1
1558438303597041,-2,4,5,2,-3,1,3,-1
1558438303597041,7,12,26,8,3,-2,-1,2
1558438303612002,-10,-17,-26,-14,-5,-4,3,-2
1558438303612002,2,3,-1,-2,-6,-5,-5,-1
1558438303618965,1,0,-2,-2,1,2,-5,-2
1558438303618965,0,-3,-8,-3,2,1,0,2
1558438303641964,1,4,9,3,1,-1,0,-1
1558438303641964,-1,-2,-6,-4,0,-2,0,-1
1558438303643898,-4,-8,-5,-5,-8,-3,-4,-2
1558438303643898,0,6,11,4,-2,-3,-4,-1
1558438303649084,1,5,0,0,3,3,2,3
1558438303649084,2,-1,-6,-4,0,-2,7,3
1558438303655882,-8,-12,-2,0,2,2,-2,-4
1558438303655882,-2,4,-1,-2,-4,7,-2,-5
1558438303671826,-4,-11,-7,-3,-4,-11,-8,-3
1558438303671826,0,-2,-3,-2,-5,-4,-3,-3
1558438303679103,2,1,-3,-1,-2,-2,-1,0
1558438303679103,9,4,0,0,6,13,4,1
1558438303694800,-8,0,7,3,0,-1,5,1
1558438303694800,0,1,-1,0,-1,3,3,1
1558438303696759,-2,0,-5,-3,-3,-5,0,-2
1558438303696759,-4,-7,4,2,-2,-3,-11,-4
1558438303709754,4,1,-20,-4,-2,2,0,-1
1558438303709754,-3,-2,-1,-1,-4,-6,-7,-2
1558438303715709,0,-1,1,1,1,1,3,2
1558438303715709,2,2,5,-2,-5,-5,-3,-1
1558438303731686,-4,-11,-9,-4,-3,1,3,-3
1558438303731686,0,1,-1,1,4,3,3,1
1558438303738648,2,2,1,0,3,2,6,0
1558438303738648,-2,-1,3,-1,-3,-6,-1,0
1558438303754606,-1,-1,2,-1,1,-1,-1,-1
1558438303754606,-2,-5,-9,-7,-5,-4,-9,-6
1558438303756598,-4,4,2,0,-3,-3,-6,-2
1558438303756598,1,-1,-1,-1,0,2,6,3
1558438303769565,4,-5,14,4,4,0,4,1
1558438303769565,-1,1,-10,-2,1,2,0,2
1558438303776546,-7,-16,-4,-4,-3,-3,-11,-7
1558438303776546,0,1,-5,-4,-4,-3,-3,-4
1558438303800482,-1,6,-2,-4,-2,-1,-1,-1
1558438303800482,3,1,-5,-2,-3,-3,-4,-2
1558438303801477,-4,-9,-6,-3,-2,-3,0,-4
1558438303801477,-1,2,5,0,8,9,1,-2
1558438303814559,4,5,25,11,6,8,5,1
1558438303814559,-3,-7,-17,-5,1,-1,4,0
1558438303816561,-5,-3,-7,-5,-3,-3,-1,-3
1558438303816561,-4,-5,-13,-7,-13,-13,-17,-5
1558438303830779,-2,1,1,0,-3,-3,-4,1
1558438303830779,-2,2,9,3,2,4,6,0
1558438303837502,3,1,-3,-2,-2,-3,3,1
1558438303837502,-1,-2,-2,1,-1,-2,2,-2
1558438303851460,1,2,-2,-3,0,0,-3,1
1558438303851460,3,4,10,3,2,-1,4,4
1558438303858442,7,10,39,19,10,4,5,5
1558438303858442,-5,-6,-42,-23,-8,-1,-7,-3
1558438303875394,-8,-14,-23,-10,-10,-7,-8,-6
1558438303875394,-11,-15,-2,-1,-4,-2,-7,-5
1558438303876392,0,4,3,0,2,3,-2,0
1558438303876392,0,1,13,5,-5,-2,1,0
1558438303888362,6,14,9,4,-1,-5,4,3
1558438303888362,6,4,11,6,9,4,4,3
1558438303897341,-9,-16,-19,-11,-3,-2,4,-3
1558438303897341,0,1,2,3,1,-6,-11,-6
1558438303911299,2,2,23,8,3,6,-2,-1
1558438303911299,-11,-17,-62,-27,-17,-9,-8,-5
1558438303918286,-2,2,-2,-3,-5,-3,2,0
1558438303918286,-3,-3,-1,2,1,0,6,3
1558438303935242,1,1,8,5,6,-5,0,2
1558438303935242,6,12,28,8,3,1,3,0
1558438303936233,0,-1,-7,-3,-2,-1,-7,-1
1558438303936233,2,-4,-3,-1,-1,3,4,1
1558438303948202,3,6,6,-1,-2,2,-3,-2
1558438303948202,-3,5,29,12,2,-1,1,2
1558438303957185,-8,-18,-48,-18,-10,-6,-5,-5
1558438303957185,0,1,2,0,0,-1,5,0
1558438303972136,-1,-2,-10,-5,-1,3,2,0
1558438303972136,1,9,20,6,2,-2,-10,-3
1558438303978121,0,-5,-14,-1,1,3,1,1
1558438303978121,0,0,18,4,3,0,-2,-3
1558438303995076,-3,-8,-26,-11,-5,-5,-2,-6
1558438303995076,0,2,-1,-1,-2,0,0,-3
1558438303996073,2,7,25,7,3,1,-6,0
1558438303996073,-5,-2,-10,-3,1,-2,7,2
1558438304009171,0,3,3,2,4,-2,7,2
1558438304009171,4,3,9,0,-1,0,-9,1
1558438304018016,4,0,4,2,-2,3,-1,0
1558438304018016,0,-1,-2,-2,-1,-1,-4,1
1558438304031977,-7,-7,-10,-2,-4,0,1,-2
1558438304031977,-5,-8,-8,-6,2,1,4,1
1558438304039053,-1,2,-2,2,1,-1,2,-4
1558438304039053,0,-7,-15,-4,-5,-1,-3,-2
1558438304053956,-10,3,14,6,3,-4,-7,-1
1558438304053956,-3,-11,-19,-11,-9,-10,-4,-3
1558438304060900,4,7,11,4,6,6,5,3
1558438304060900,6,14,15,7,4,2,-3,-1
1558438304068878,-5,-11,12,3,-3,0,-1,-3
1558438304068878,-1,-5,-27,-8,-5,-4,-5,-2
1558438304077854,-3,1,5,-2,-6,-12,-6,-4
1558438304077854,1,-1,-1,2,3,2,5,3
1558438304091885,2,0,-11,-8,-3,3,1,3
1558438304091885,0,4,13,4,-1,-5,-2,-1
1558438304105846,-1,-5,-5,-1,-4,-2,5,0
1558438304105846,-3,-2,-1,0,1,-4,-13,-7
1558438304113868,1,2,-2,-1,4,5,-3,1
1558438304113868,-3,-1,-3,-1,-2,2,1,-2
1558438304120806,3,5,2,-1,-1,-6,0,3
1558438304120806,-5,-8,-17,-7,-5,-4,5,-1
1558438304128785,5,3,8,4,-1,-5,-8,0
1558438304128785,0,-4,-2,-3,0,3,2,1
1558438304137767,-15,-11,-1,-2,1,9,0,-4
1558438304137767,2,5,1,-3,-1,1,1,0
1558438304151725,-4,-5,-10,-6,-5,-5,1,-3
1558438304151725,4,2,8,3,-2,-2,0,-3
1558438304158706,4,2,-1,0,-3,-4,-3,-2
1558438304158706,2,2,14,2,-1,-1,2,2
1558438304174664,2,6,-2,-4,0,-1,3,0
1558438304174664,-3,0,9,5,3,0,3,1
1558438304180646,-5,-7,-10,-5,-1,-4,-9,-2
1558438304180646,-2,-4,-2,-1,-2,-2,-3,-3
1558438304188626,-1,-7,-3,-1,-1,0,0,0
1558438304188626,1,4,6,2,-2,-2,-4,-4
1558438304197612,2,1,0,1,2,4,-1,2
1558438304197612,-1,2,1,0,-2,-4,2,1
1558438304211563,-1,-1,-1,-2,1,7,5,0
1558438304211563,0,-1,-3,-4,-2,-1,-4,-1
1558438304218548,9,10,12,4,9,6,3,1
1558438304218548,-7,-5,-10,-6,-5,0,-6,-6
1558438304234503,-3,-7,-12,-3,-5,-7,-3,-1
1558438304234503,-4,-5,-9,-5,-1,-1,5,0
1558438304241482,4,3,5,1,-4,-11,-3,-1
1558438304241482,-11,-7,2,1,-5,-5,-4,-1
1558438304257441,-1,0,-2,-1,1,5,10,2
1558438304257441,3,7,5,2,1,0,-6,-1
1558438304258438,2,1,10,1,1,2,-1,1
1558438304258438,1,-5,-5,-4,5,3,1,1
1558438304271404,-4,-2,-1,4,-2,-2,-5,-8
1558438304271404,-8,-10,-19,-11,-6,-2,-3,-4
1558438304278398,-3,-5,-9,-4,-5,-4,0,-3
1558438304278398,2,3,13,2,-3,-1,2,2
1558438304294349,0,1,1,-1,0,1,-5,-1
1558438304294349,3,3,6,4,4,2,-4,-1
1558438304301325,1,6,23,7,3,3,4,2
1558438304301325,-3,-6,-29,-14,-7,-2,1,-3
1558438304317282,-3,-7,-3,-4,-4,-4,-2,-3
1558438304317282,-5,-1,2,4,0,-1,-10,-3
1558438304319277,-3,-6,-9,-6,-9,-10,-4,0
1558438304319277,3,-1,-1,2,0,1,-2,0
1558438304332242,-2,-2,-2,-3,1,3,8,1
1558438304332242,1,3,0,-3,-2,-3,4,0
1558438304338225,-5,-3,-1,2,5,2,-11,-4
1558438304338225,0,2,1,2,1,1,-2,-1
1558438304354184,-2,0,25,6,-4,-4,-9,0
1558438304354184,-2,-10,-26,-10,-2,4,6,-1
1558438304361165,-1,0,-8,-2,3,6,6,0
1558438304361165,2,8,11,4,3,1,2,0
1558438304377136,-6,-11,-31,-14,-8,-3,-10,-5
1558438304377136,2,-1,18,8,-5,-4,-1,-2
1558438304379115,0,-2,-11,-7,-5,-2,1,-4
1558438304379115,0,-2,3,1,3,-1,5,2
1558438304399062,3,7,7,3,1,-2,-1,0
1558438304399062,2,2,1,-1,-1,2,0,1
1558438304407040,2,2,-5,-4,-2,1,-1,-2
1558438304407040,-4,-3,3,2,-3,-4,-5,-2
1558438304422001,1,1,-2,1,1,0,3,-1
1558438304422001,-2,-2,0,1,2,0,-1,-3
1558438304423995,0,-2,-2,-2,-5,-5,-5,-1
1558438304423995,-2,-2,-2,-2,-4,-2,-1,-2
1558438304444943,1,0,-1,-2,-5,-3,-6,-2
1558438304444943,9,10,31,10,11,7,25,10
1558438304445936,-15,-10,-29,-7,-2,-6,-25,-9
1558438304445936,2,4,-15,-10,-5,-2,-6,-5
1558438304459902,-12,-14,-16,-8,-7,-3,-6,-3
1558438304459902,-5,-8,-6,-3,-7,0,3,-3
1558438304460899,1,2,21,6,1,1,3,3
1558438304460899,2,-1,2,4,5,3,3,1
1558438304473866,2,3,2,-5,-3,-4,-2,-3
1558438304473866,1,2,-3,-1,0,-4,-4,0
1558438304480844,-4,-5,-13,-4,1,4,4,1
1558438304480844,-2,2,-1,-3,-4,-2,-6,-2
1558438304497797,5,5,10,3,6,2,6,2
1558438304497797,-3,-4,-1,-1,-3,-3,-10,-2
1558438304498795,-4,-3,4,0,-4,-3,1,-1
1558438304498795,1,-1,13,4,2,-3,5,0
1558438304511760,-4,-6,-29,-8,-3,-5,-5,-2
1558438304511760,0,2,-7,-3,4,3,11,3
1558438304518742,1,4,5,4,-1,-3,-6,-3
1558438304518742,-1,-2,19,6,2,2,-3,0
1558438304534699,1,-1,-1,-1,-1,-1,-3,-1
1558438304534699,-1,-4,-16,-10,-3,-5,-10,-3
1558438304540682,-11,-7,-5,-4,-4,0,6,-1
1558438304540682,-1,-3,3,0,-4,0,1,0
1558438304557637,0,2,-1,5,3,1,1,2
1558438304557637,-3,-4,-6,-1,-2,2,-5,-3
1558438304558637,6,5,6,2,1,0,6,0
1558438304558637,-1,-4,0,0,-1,-3,0,-2
1558438304571601,-1,-1,-15,-7,0,2,-2,-2
1558438304571601,-2,-1,11,3,-1,-2,-2,0
1558438304578582,4,3,4,2,2,-3,1,1
1558438304578582,-3,-8,-11,-5,-5,-3,-3,-4
1558438304594549,4,3,4,1,1,1,4,-1
1558438304594549,-2,3,3,0,0,-1,-1,1
1558438304600523,-1,-3,-3,-5,-4,-3,-1,1
1558438304600523,1,1,-9,-3,-3,-2,-1,-3
1558438304617478,1,-1,3,0,-2,-4,-4,-1
1558438304617478,2,6,9,1,5,5,2,-2
1558438304618476,-6,-7,-14,-2,1,-2,4,0
1558438304618476,-2,-1,1,1,1,5,-3,1
1558438304631440,0,-3,-5,-3,-8,-4,-8,-5
1558438304631440,-10,-10,-4,0,1,-11,-1,0
1558438304640416,8,5,8,1,-2,1,3,2
1558438304640416,-1,-2,-6,-6,-3,2,6,0
1558438304654379,2,7,20,7,3,2,-4,-1
1558438304654379,-3,-7,-18,-7,-4,1,-5,-1
1558438304661362,-3,-3,-5,-3,0,-3,-1,0
1558438304661362,-4,-1,-3,-3,-2,-7,-5,-2
1558438304677321,0,-2,13,4,-1,2,4,-1
1558438304677321,5,3,3,-1,-2,1,-5,-2
1558438304679313,-1,-2,-3,-3,-1,1,0,-2
1558438304679313,-3,0,0,-3,-4,-1,-2,-2
1558438304691286,0,-1,-1,0,2,-2,1,-1
1558438304691286,0,1,11,4,7,6,5,3
1558438304706247,3,0,12,4,6,4,-1,-3
1558438304706247,-4,-10,-22,-8,-2,-2,-6,-4
1558438304722198,-7,-8,-20,-11,-8,-3,-3,-1
1558438304722198,-4,1,0,0,-9,-10,-3,-5
1558438304724196,-1,-4,-5,-6,-4,-2,0,1
1558438304724196,1,5,13,6,3,2,0,1
1558438304737159,-2,0,-3,-1,1,-1,0,0
1558438304737159,5,2,0,0,1,4,2,0
1558438304739158,4,9,6,3,4,-3,-2,-1
1558438304739158,-7,-13,2,1,-2,-3,0,0
1558438304751122,2,0,-8,-7,-4,-1,0,1
1558438304751122,-7,-8,1,1,0,3,-4,-4
1558438304760102,0,-1,-2,1,-4,-2,-4,-3
1558438304760102,0,-1,-9,-5,-3,-2,-3,-3
1558438304774059,-2,-1,11,3,1,-2,0,1
1558438304774059,2,1,-7,-3,0,0,1,-1
1558438304781039,0,2,-1,2,8,11,7,3
1558438304781039,2,4,2,0,-1,-1,2,0
1558438304797000,-3,-1,6,2,2,-1,0,-1
1558438304797000,3,7,13,5,1,-2,-3,1
1558438304798992,-2,-6,-21,-10,-3,4,2,0
1558438304798992,-12,-12,-21,-9,-7,-5,-12,-8
1558438304810967,-3,-3,0,1,-1,-1,-4,-3
1558438304810967,-2,0,-4,-4,-2,-2,-1,0
1558438304819936,0,0,10,3,-4,-4,-1,-1
1558438304819936,5,4,6,3,5,4,6,4
1558438304833901,1,-1,-3,0,-3,-1,-1,-1
1558438304833901,-2,-2,0,-1,-3,-1,-4,-4
1558438304840884,0,1,1,-2,-2,-2,3,1
1558438304840884,3,4,0,3,2,-2,-4,0
1558438304857834,-4,2,5,-1,3,4,1,2
1558438304857834,0,-3,5,0,1,0,-3,0
1558438304858833,-7,-10,-16,-6,-8,-10,-5,-4
1558438304858833,-3,-12,-17,-9,-8,-3,-3,-4
1558438304870800,3,5,9,6,1,1,4,2
1558438304870800,-2,2,-10,-5,-6,-8,-3,-3
1558438304879775,2,3,14,3,1,3,1,0
1558438304879775,1,5,12,8,3,4,3,2
1558438304894735,-3,-5,-14,-8,1,-1,4,0
1558438304894735,-2,-9,-11,-4,-2,0,2,2
1558438304900720,-1,0,6,0,-4,-5,-6,-3
1558438304900720,7,14,14,6,3,3,4,3
1558438304917675,-4,-13,-9,-9,-7,-4,-7,-5
1558438304917675,-5,1,0,-1,-3,-1,-4,-2
1558438304918672,-1,-3,-9,-2,0,0,0,1
1558438304918672,1,3,8,1,0,0,1,1
1558438304930640,5,6,7,3,-1,0,-1,2
1558438304930640,2,-3,-3,-2,-1,-3,2,-1
1558438304939616,-6,0,-2,0,2,2,0,-3
1558438304939616,0,1,15,2,2,1,-3,-1
1558438304954575,-4,-8,-33,-10,-3,-5,-2,0
1558438304954575,-10,-12,-5,-2,-4,-3,-3,-1
1558438304961557,1,0,5,1,-8,-8,-4,-2
1558438304961557,1,1,-7,-1,2,-1,1,0
