timestamp,emg1,emg2,emg3,emg4,emg5,emg6,emg7,emg8
1558438347036741,2,2,0,-1,-5,-6,-12,0
1558438347036741,-1,0,-4,0,7,10,14,3
1558438347037737,-3,-2,-1,-1,-5,1,1,-1
1558438347037737,-3,-4,2,2,4,-3,-9,-6
1558438347037737,3,5,19,8,0,-3,2,1
1558438347037737,3,-3,-24,-14,-7,-4,-3,-3
1558438347038734,-13,-7,-5,-1,-4,3,0,-2
1558438347038734,3,0,-4,-4,-7,-8,-3,0
1558438347050702,-1,-4,-1,-1,2,3,5,-5
1558438347050702,0,0,7,1,-1,0,-7,-3
1558438347058681,2,4,20,9,11,3,4,3
1558438347058681,-3,-3,-18,-12,-8,-2,-3,-2
1558438347065663,-7,-13,-26,-12,-4,-5,0,0
1558438347065663,2,4,12,4,-3,-4,-1,1
1558438347079624,0,2,-7,-5,1,4,-7,-3
1558438347079624,1,4,7,5,-2,-4,3,2
1558438347088600,0,2,1,-1,-1,-2,-6,-4
1558438347088600,-4,-4,-1,-1,-7,-2,-2,-2
1558438347094585,0,0,2,1,1,-3,-3,0
1558438347094585,6,8,24,8,7,1,7,1
1558438347110543,-4,-10,-17,-11,-3,1,1,0
1558438347110543,-5,-9,-24,-7,-8,-14,-6,-4
1558438347118520,2,-1,0,-3,-6,-6,-2,-2
1558438347118520,0,2,-3,-2,-5,1,1,-1
1558438347158414,-7,-10,-7,-7,-4,2,-1,-5
1558438347158414,1,5,9,6,14,5,4,4
1558438347158414,5,8,9,3,3,3,3,2
1558438347158414,-9,-8,-16,-9,-7,-1,-5,-4
1558438347159411,-3,-1,-4,-2,-6,-2,-7,-3
1558438347159411,-2,-11,-14,-5,-7,-6,-9,-4
1558438347162403,0,-2,11,2,-2,-11,-1,-1
1558438347162403,7,4,-3,3,9,8,6,2
1558438347171379,-3,1,6,1,-5,-3,-3,-4
1558438347171379,1,1,4,0,0,0,7,4
1558438347177364,1,1,-1,2,-3,-4,-2,0
1558438347177364,-1,3,6,-3,-2,-1,-1,-1
1558438347193321,-3,-10,-23,-9,-2,-2,0,-1
1558438347193321,-3,-2,-5,-2,-5,2,-8,-6
1558438347199305,-3,-4,-7,-2,-7,-1,-1,-4
1558438347199305,4,6,13,6,4,-3,-5,2
1558438347208282,3,2,12,6,6,4,6,3
1558438347208282,-5,-3,-10,-8,-6,-10,-6,-5
1558438347214264,-5,-7,3,3,9,11,7,2
1558438347214264,-4,-4,-11,-6,-6,-2,-5,-3
1558438347231220,3,2,1,-3,-3,-8,-5,-4
1558438347231220,0,0,4,0,-2,2,-5,-1
1558438347237203,1,2,13,4,1,1,2,-2
1558438347237203,0,0,-2,-2,-1,2,2,0
1558438347253160,1,2,-9,-4,-5,-4,-4,1
1558438347253160,3,0,-4,-4,-7,-9,1,2
1558438347259144,-14,-11,-4,0,-2,4,-1,0
1558438347259144,-2,-7,-7,-2,1,-1,-2,-3
1558438347268121,0,7,4,4,1,3,3,-1
1558438347268121,-5,3,0,1,6,5,1,-1
1558438347274104,2,1,-5,-5,-7,-5,-4,-2
1558438347274104,0,-4,2,1,-6,-5,-4,-2
1558438347291059,2,-2,6,0,9,9,7,4
1558438347291059,1,2,8,-1,-2,-6,-5,-2
1558438347297043,-2,-1,-16,-8,-5,0,1,-3
1558438347297043,-4,-1,5,-1,-7,-1,-4,-4
1558438347322011,-2,-4,-10,-5,-4,-4,-5,-1
1558438347322011,1,2,-5,-5,-1,1,2,0
1558438347322011,3,0,13,10,9,-1,-7,-1
1558438347322011,-6,-10,-27,-10,-5,-3,0,-3
1558438347328958,-2,-1,3,-1,-3,1,-3,-3
1558438347328958,-1,-4,-14,-5,-4,-5,5,1
1558438347334941,0,-6,-4,-4,-1,4,-3,-2
1558438347334941,1,3,15,7,3,0,-2,0
1558438347350913,0,1,4,4,-1,-3,-2,-1
1558438347350913,-1,-3,0,-1,-3,-3,-1,0
1558438347356884,3,3,-2,-3,0,-3,5,-2
1558438347356884,-12,-5,2,-2,-1,1,-2,-1
1558438347373838,-1,-3,1,1,-3,-8,-2,1
1558438347373838,0,0,5,1,3,9,-3,-1
1558438347379821,0,-1,-14,-4,-1,1,-3,-1
1558438347379821,3,3,7,4,4,2,4,2
1558438347388800,-3,2,-5,-5,2,-5,-1,-2
1558438347388800,-2,0,9,5,5,10,2,-4
1558438347394782,1,2,-1,-3,-5,-5,0,1
1558438347394782,1,1,3,0,2,2,-4,-3
1558438347410740,-2,-5,-9,-7,-2,3,0,-1
1558438347410740,1,2,2,1,-3,-5,-2,0
1558438347416725,1,1,-7,-7,-3,-5,-3,-1
1558438347416725,-2,-3,3,5,-2,1,0,-3
1558438347433678,0,2,7,1,-2,-2,-5,-1
1558438347433678,-2,-3,-4,0,3,-4,2,-1
1558438347439662,-1,2,-1,-3,0,-4,-2,-2
1558438347439662,-1,1,-3,-1,1,1,1,0
1558438347448639,1,-3,2,-1,2,6,-2,-2
1558438347448639,-3,-5,1,1,-5,3,-1,-2
1558438347454624,5,7,16,11,8,1,1,5
1558438347454624,2,0,-20,-16,-7,-5,0,1
1558438347470580,-8,-2,-1,3,0,0,4,1
1558438347470580,0,-2,2,-1,-5,-4,-6,-4
1558438347477561,-7,-9,-13,-4,-2,-4,-1,1
1558438347477561,5,4,6,-1,6,3,4,1
1558438347493517,0,-3,-14,-7,-2,2,3,0
1558438347493517,0,2,6,1,0,-5,3,0
1558438347499503,-4,-2,1,1,-5,-1,-3,-4
1558438347499503,0,0,3,1,-3,-3,-7,-2
1558438347508477,-1,-1,5,1,-1,-3,4,2
1558438347508477,-2,-1,-3,-2,0,1,-3,-3
1558438347522441,-1,-1,-3,-6,-5,-1,-3,-2
1558438347522441,-1,0,2,4,4,0,3,2
1558438347531416,2,2,10,5,-2,-1,-5,-1
1558438347531416,-2,-1,-12,-5,-5,-8,4,2
1558438347537399,2,-2,-1,-1,4,2,3,1
1558438347537399,0,0,-2,-5,-6,-8,-5,-3
1558438347553357,0,1,-1,1,6,3,-2,1
1558438347553357,-6,-6,0,-2,-1,3,-6,-3
1558438347559342,-3,-1,-8,-5,-11,-5,-3,-3
1558438347559342,-2,-7,1,2,-1,-6,5,-1
1558438347568318,1,4,11,5,5,2,5,1
1558438347568318,-3,-3,-4,-3,-4,0,-6,-4
1558438347582281,0,-3,-13,-6,1,7,1,0
1558438347582281,-3,-2,6,3,-4,-3,-1,-3
1558438347591258,2,2,-7,-4,-7,-10,-6,-3
1558438347591258,2,3,7,4,7,11,2,4
1558438347597242,-5,1,4,-3,-5,0,0,0
1558438347597242,-3,-6,-21,-6,-1,-4,0,-1
1558438347613204,-1,-2,-1,-1,0,1,-3,-2
1558438347613204,1,2,1,1,1,-4,2,2
1558438347619182,3,0,7,2,1,-3,1,0
1558438347619182,0,2,6,-1,-5,2,-3,-3
1558438347628159,-2,-3,-1,-2,-3,-2,-5,-4
1558438347628159,-1,1,-1,0,5,-1,9,1
1558438347642122,0,0,2,0,2,-1,-4,2
1558438347642122,-1,-1,-8,-5,1,1,1,1
1558438347651096,-7,-13,-19,-8,-4,-3,-7,-4
1558438347651096,0,1,-3,-2,-5,2,0,0
1558438347657080,-1,2,7,3,0,0,-1,-2
1558438347657080,-2,-4,1,0,2,-2,0,1
1558438347673038,2,2,-1,0,2,4,2,-3
1558438347673038,0,-2,-2,-2,0,0,-2,-1
1558438347680019,-4,-3,-3,-1,-2,-3,-2,-3
1558438347680019,3,5,7,-2,-5,-5,-8,-2
1558438347687999,1,2,-3,-1,-3,-8,-3,3
1558438347687999,-5,-6,-2,0,3,2,0,0
1558438347701961,-3,-1,-11,-6,-7,0,-7,-5
1558438347701961,1,3,4,2,-5,-5,-3,1
1558438347710938,3,5,13,5,10,5,8,2
1558438347710938,-1,-2,-6,-5,-5,2,0,-3
1558438347716921,0,0,-5,-2,4,0,-1,-1
1558438347716921,-1,-3,4,2,-1,8,-3,-4
1558438347733876,-1,-5,-7,-3,-6,-16,-4,0
1558438347733876,1,0,1,-3,0,-1,1,0
1558438347739861,-1,-1,6,2,2,5,6,0
1558438347739861,0,-1,-9,-2,-3,1,-2,-3
1558438347748835,-2,4,-2,1,0,-1,3,0
1558438347748835,-3,-6,-1,-5,-1,-4,-3,-5
1558438347761802,-3,-8,-6,-1,-3,-10,-11,-5
1558438347761802,0,0,-9,-4,-1,-2,0,-1
1558438347770776,-2,-1,-1,-2,-6,-1,-5,2
1558438347770776,-1,2,-3,1,-4,-6,-6,0
1558438347776760,1,3,9,6,7,9,9,1
1558438347776760,2,4,10,6,12,7,5,4
1558438347793714,-4,-6,-16,-9,-4,3,3,-4
1558438347793714,-3,0,2,-1,-7,-4,-10,-5
1558438347799699,5,0,-4,-5,-8,-13,-7,-1
1558438347799699,-2,1,4,4,0,-2,3,1
1558438347808674,-2,-2,-8,-5,0,-1,-3,-2
1558438347808674,0,-3,-1,2,5,6,5,2
1558438347821639,-4,-3,0,1,-2,-2,-5,-2
1558438347821639,0,2,8,0,-5,-2,-2,-4
1558438347830616,-2,-4,-14,-6,-3,-1,1,-2
1558438347830616,-2,3,-5,-4,-5,-8,0,-1
1558438347836600,1,-1,3,0,1,1,-2,1
1558438347836600,1,4,1,0,-3,-8,0,0
1558438347853554,-4,-4,-1,-4,-3,-3,-7,-5
1558438347853554,2,0,2,2,5,6,-5,-1
1558438347859539,1,3,-3,0,1,6,7,5
1558438347859539,-2,-3,2,0,1,3,4,0
1558438347868515,0,-5,8,4,-3,-5,-2,-1
1558438347868515,-3,-3,-6,-2,-6,-5,-2,-3
1558438347882477,-2,-1,-1,-3,-2,-3,-6,-1
1558438347882477,-1,-4,-3,-2,3,4,-1,1
1558438347891453,4,4,11,5,2,2,1,1
1558438347891453,2,1,10,5,2,3,2,1
1558438347897439,0,3,-4,-4,-6,-5,-7,-4
1558438347897439,-3,-12,-19,-10,0,6,3,0
1558438347913394,1,11,23,12,9,-2,1,2
1558438347913394,-3,-7,-19,-15,-9,-5,-2,-3
1558438347919380,-3,-1,-1,-1,0,3,1,-1
1558438347919380,0,3,-2,-1,-3,-6,-6,-2
1558438347928357,5,5,4,0,-2,4,1,1
1558438347928357,-4,1,10,6,0,-4,-2,0
1558438347942318,2,2,3,-1,2,3,3,2
1558438347942318,-6,-16,-9,-1,0,-1,5,0
1558438347951292,0,-2,-6,-2,2,5,3,4
1558438347951292,-2,-1,-4,0,-2,1,-2,-4
1558438347957278,-5,0,-6,-7,-7,-3,-7,-5
1558438347957278,2,3,12,5,4,-5,6,1
1558438347973238,-2,-7,-7,-3,-2,4,-3,-3
1558438347973238,0,0,-5,-3,-9,-6,-4,-2
1558438347979218,1,1,8,5,8,5,7,2
1558438347979218,3,7,2,3,6,-3,1,2
1558438347988200,-3,-1,-2,-1,-3,-2,2,-1
1558438347988200,-1,-2,-8,-8,-4,-1,-3,-4
1558438348002158,-1,-7,-8,-4,-9,-11,-4,-4
1558438348002158,2,3,4,1,-1,-3,-4,0
1558438348011137,-1,-1,3,0,2,2,-2,-2
1558438348011137,-2,-4,0,0,-6,-6,-4,-2
1558438348017121,-2,0,4,1,-1,-3,1,0
1558438348017121,0,2,8,6,8,13,4,-1
1558438348033080,-1,-1,-12,-8,0,0,-1,0
1558438348033080,0,-1,0,-1,-3,2,-1,-2
1558438348040059,-6,-6,-13,-8,-4,-4,1,-1
1558438348040059,-4,-7,-1,-2,-8,-12,-8,-4
1558438348048039,1,2,6,2,0,4,-1,-3
1558438348048039,2,4,9,7,9,8,4,2
1558438348061999,3,3,10,6,6,2,-4,1
1558438348061999,-4,-5,-18,-12,-3,4,6,-3
1558438348070975,-1,0,3,-4,-10,-13,-11,-4
1558438348070975,1,-1,-3,-2,-4,-7,-5,-2
1558438348076963,-2,-3,-5,0,3,10,3,-3
1558438348076963,2,0,2,0,1,-3,-4,0
1558438348093916,-2,-2,-1,-1,4,1,5,1
1558438348093916,0,1,3,0,4,0,0,-2
1558438348099897,1,1,1,-2,-5,-5,-5,-5
1558438348099897,-4,-3,-2,-1,-3,2,-4,-1
1558438348108879,-1,-1,3,1,-5,-4,-1,-2
1558438348108879,1,4,3,3,0,-1,-2,2
1558438348121837,-3,-9,-5,-3,-2,-9,1,1
1558438348121837,0,2,-5,-6,-3,2,-2,-4
1558438348130813,-2,-2,-10,-4,-4,1,-2,-2
1558438348130813,-2,-4,3,4,6,3,2,0
1558438348144776,-1,1,-4,-3,-3,1,-1,-1
1558438348144776,-2,1,0,-2,-6,-4,-12,-1
1558438348153758,4,7,17,7,8,-3,9,3
1558438348153758,-4,-6,-21,-17,-10,-8,-6,-5
1558438348168717,-2,0,-15,-6,-1,2,1,0
1558438348168717,0,-1,-1,0,0,-4,0,-1
1558438348169718,-2,-1,-4,1,6,13,-1,-1
1558438348169718,-1,0,11,4,1,-4,0,-2
1558438348181681,0,-4,-5,-4,-5,-3,-10,-3
1558438348181681,2,1,-7,-3,-7,-8,1,2
1558438348190664,-11,-8,2,0,0,-1,5,1
1558438348190664,2,0,5,4,7,2,3,3
1558438348204627,1,2,6,6,-1,1,-7,-4
1558438348204627,-3,-6,-8,-6,-2,-5,-1,-3
1558438348213602,-1,-4,-9,-6,-8,-10,-8,-3
1558438348213602,-2,-3,-8,-4,1,6,2,2
1558438348228557,0,3,8,1,-3,-7,1,0
1558438348228557,3,4,5,2,3,7,-1,-1
1558438348229551,3,1,-3,-1,-2,-1,-2,1
1558438348229551,-5,-11,0,0,-1,0,4,-1
1558438348242633,-1,-3,1,0,-2,-1,0,-3
1558438348242633,-5,-3,-8,-6,-6,-3,-3,-3
1558438348251493,4,7,14,4,2,2,-6,-1
1558438348251493,-2,3,-12,-9,-7,-5,-2,-2
1558438348264898,-3,-6,-11,-5,7,6,2,3
1558438348264898,1,0,1,-2,-8,-5,-5,-3
1558438348273548,0,-1,3,2,3,-2,3,0
1558438348273548,0,2,7,6,5,4,8,0
1558438348288514,0,2,11,1,1,3,-2,-2
1558438348288514,-4,-2,-6,0,0,0,-1,-2
1558438348289501,0,-3,-6,-4,-8,-8,1,-4
1558438348289501,-1,-3,-7,-1,3,7,-1,2
1558438348302660,0,-1,-3,-2,-1,-2,2,0
1558438348302660,4,4,8,2,3,-4,1,0
1558438348317453,-2,-5,-6,-2,-3,0,-5,-4
1558438348317453,1,3,2,0,-2,-3,-5,-1
1558438348324407,-3,4,7,3,0,5,1,-1
1558438348324407,-1,1,-5,1,1,-3,1,2
1558438348333381,-9,-17,-16,-9,-9,-6,-2,0
1558438348333381,-1,-1,-6,-4,-2,-2,-10,-3
1558438348348343,-1,-5,-4,-1,1,-1,-3,-2
1558438348348343,2,6,5,1,1,-4,0,1
1558438348350336,1,1,5,0,-1,-7,-6,0
1558438348350336,2,1,4,3,7,11,5,4
1558438348371394,-1,0,-4,-5,-11,-15,-5,-2
1558438348371394,-2,-2,6,5,10,14,5,-2
1558438348372288,3,2,6,0,7,4,0,1
1558438348372288,-5,-5,-5,-4,-10,-12,-4,-3
1558438348384352,2,2,1,3,-2,-8,-2,-3
1558438348384352,-7,-7,-9,-7,-6,-4,-7,-4
1558438348393220,0,-2,8,3,1,4,-1,-2
1558438348393220,-1,4,1,1,5,1,2,0
1558438348408181,-2,-5,-1,-2,-8,-5,0,-2
1558438348408181,1,2,23,10,1,2,-3,-3
1558438348410176,-3,-5,-42,-15,-2,6,0,-4
1558438348410176,-2,0,-5,-6,-9,-10,-12,-3
1558438348422183,-2,-5,-10,-5,1,-4,3,4
1558438348422183,-4,-8,0,1,5,12,3,1
1558438348431119,3,8,18,8,5,1,5,0
1558438348431119,1,-2,-3,-2,-2,-4,-2,-1
1558438348445089,-1,2,-2,-2,-4,-3,-3,-2
1558438348445089,3,6,5,0,-1,-4,-3,-1
1558438348454059,-12,-7,-1,-2,-1,2,-5,-1
1558438348454059,0,-5,-7,-1,-2,3,1,-3
1558438348469018,1,-3,10,3,2,0,0,1
1558438348469018,-1,-4,-16,-5,0,0,0,0
1558438348470080,2,2,6,0,-9,-7,-5,-3
1558438348470080,0,0,1,-5,0,-1,-6,-5
1558438348482271,-2,-1,-1,3,4,10,9,2
1558438348482271,0,-2,-5,-3,0,-2,-3,-2
1558438348491297,1,6,4,3,7,-3,4,4
1558438348491297,0,-2,7,2,-3,-4,-3,-2
1558438348505338,1,-1,-9,-5,1,5,-2,-2
1558438348505338,0,1,0,-1,-3,-14,2,-2
1558438348513487,-2,-3,1,0,0,4,0,-3
1558438348513487,0,2,2,1,-5,-10,-3,-3
1558438348528198,1,0,-3,-5,3,7,-3,1
1558438348528198,-7,-7,-8,-4,-6,2,-7,-3
1558438348530189,-2,-3,-4,-5,-3,-5,-5,0
1558438348530189,1,5,8,3,-1,-2,5,3
1558438348542159,-1,0,-2,3,5,4,4,-1
1558438348542159,1,2,0,-2,-5,-9,-4,1
1558438348551134,-3,-5,-16,-7,-6,0,-6,-4
1558438348551134,-2,-5,-9,-5,-4,-5,4,0
1558438348565473,2,5,2,-2,-2,-3,-2,-3
1558438348565473,1,0,8,1,0,2,-2,0
1558438348573449,-1,-3,-4,1,2,2,3,-1
1558438348573449,-1,0,0,0,-1,-2,-5,0
1558438348587385,-1,-1,0,-3,-3,-4,-3,-1
1558438348587385,1,-1,-2,-1,-2,-1,-2,-1
1558438348596212,-4,-5,-2,0,-4,-2,-1,0
1558438348596212,-1,-2,3,-2,4,4,-2,2
1558438348602342,-2,2,1,0,-1,-2,0,1
1558438348602342,-3,-9,2,1,2,5,5,2
1558438348610975,4,6,-3,-3,-4,-5,-5,-1
1558438348610975,-4,-5,-3,-5,-3,0,3,-3
1558438348625361,-6,-2,7,5,1,2,2,-2
1558438348625361,1,3,-18,-6,-2,-2,4,1
1558438348634956,2,2,7,0,1,2,1,0
1558438348634956,-1,2,-5,-2,-2,-5,-3,-2
1558438348649069,-2,-7,-2,-4,-2,-2,-8,-1
1558438348649069,-1,2,5,4,-2,2,0,-3
1558438348649875,6,7,8,7,5,-3,3,1
1558438348649875,1,-2,-8,-3,0,7,-2,-2
1558438348661842,-2,-3,-5,-4,-9,-7,-2,-3
1558438348661842,-4,-3,-2,-2,1,-4,-1,0
1558438348670861,-2,-1,-2,1,-6,-2,-2,-3
1558438348670861,2,0,7,4,8,8,1,0
1558438348684784,2,2,2,4,3,1,0,3
1558438348684784,-1,-1,0,0,-3,-4,-5,-5
1558438348693754,-6,-10,-11,-9,-8,-5,-3,-4
1558438348693754,-5,0,0,-3,-9,-7,-4,-4
1558438348707718,-2,-2,4,2,7,5,3,-1
1558438348707718,0,-3,-6,-3,3,1,-5,0
1558438348714697,1,-1,6,-1,2,3,4,-1
1558438348714697,-3,-8,-5,-3,-3,-4,0,0
1558438348721681,1,3,1,-2,2,5,-2,-3
1558438348721681,-5,-1,-1,1,-3,-8,0,-1
1558438348730899,2,3,0,0,-3,-1,-7,-3
1558438348730899,-3,-2,2,-1,-1,1,-1,2
1558438348753591,2,-2,-9,-5,-3,-6,-5,-3
1558438348753591,-1,1,2,-1,0,3,0,-1
1558438348754600,-3,-2,-5,-3,-1,2,5,-2
1558438348754600,0,-1,1,2,1,4,2,2
1558438348767554,0,2,15,8,1,-2,6,2
1558438348767554,-1,-4,-13,-5,-4,0,-2,-2
1558438348774900,-1,-1,-2,-3,-1,-6,-2,2
1558438348774900,-4,-4,-6,-4,-5,-7,-3,-2
1558438348782521,-3,0,-6,-3,3,3,2,0
1558438348782521,-3,-3,6,3,-1,0,0,-2
1558438348790520,-1,2,4,1,-3,-5,-5,0
1558438348790520,1,2,-2,1,-2,-5,-7,-1
1558438348804456,-3,-1,-1,2,2,-2,3,2
1558438348804456,-1,2,0,-4,2,-2,0,-2
1558438348813431,0,-2,-3,-1,1,1,0,1
1558438348813431,-4,-5,8,5,2,0,-1,0
1558438348827395,-3,-6,-9,-7,-9,-1,-13,-9
1558438348827395,1,2,1,-2,0,-4,4,4
1558438348834435,-1,-2,1,1,3,8,0,-1
1558438348834435,3,1,-1,0,6,6,9,0
1558438348842355,-1,3,5,1,1,0,-9,-3
1558438348842355,-2,-3,-5,-1,3,7,2,0
1558438348851332,-3,-4,-8,-5,-4,-6,-6,-1
1558438348851332,2,3,-1,-1,-4,-1,-2,-1
1558438348864295,0,-4,-5,0,-1,-1,3,1
1558438348864295,2,1,7,4,-1,3,0,1
1558438348873273,-2,5,6,3,0,1,0,-3
1558438348873273,1,-5,-5,1,2,-1,-1,-1
1558438348888719,-3,-2,1,-5,-8,-9,-5,-1
1558438348888719,-4,-4,-20,-8,-7,0,-4,-4
1558438348894222,-1,-9,-4,2,2,-4,3,2
1558438348894222,-2,4,2,-2,-3,-1,-2,-4
1558438348911171,-3,-2,0,-1,0,2,0,-1
1558438348911171,1,2,7,1,0,3,1,1
1558438348917210,3,9,15,7,5,-4,-1,2
1558438348917210,-2,-2,-18,-7,-8,-9,-5,-4
1558438348924135,-2,-10,-18,-6,1,-2,6,5
1558438348924135,-3,-2,-3,-6,-5,-3,-4,-3
1558438348939096,-2,-3,-5,-3,-2,5,2,3
1558438348939096,2,4,13,4,5,7,3,-1
1558438348948404,0,2,4,0,-8,-11,-12,-4
1558438348948404,-1,-1,3,5,3,-3,4,-1
1558438348954058,1,-1,-1,-3,-1,-8,-5,0
1558438348954058,-2,-2,-2,-3,-4,-3,-5,0
1558438348971399,-3,-1,-5,-4,5,11,0,-1
1558438348971399,0,-3,5,1,-5,-13,-7,-1
1558438348974054,-2,-2,1,3,3,8,5,-4
1558438348974054,0,3,-1,0,-1,3,1,-1
1558438348985339,-2,-4,-4,-1,-3,2,-5,-5
1558438348985339,-1,0,9,3,3,3,-2,0
1558438348993333,2,1,-6,0,6,9,8,2
1558438348993333,-1,-1,-9,-6,-8,-8,-1,-5
1558438349008294,-2,-3,0,-4,-4,-4,-5,-3
1558438349008294,-5,-5,0,-1,-2,5,2,-4
1558438349015315,-1,-2,-6,-6,-3,-10,-5,0
1558438349015315,-2,-2,4,0,1,4,-2,1
1558438349031196,1,5,5,3,-1,-4,7,3
1558438349031196,1,2,3,-4,-7,-10,-14,-4
1558438349032854,-3,-5,1,0,-3,2,1,0
1558438349032854,3,-2,-10,-4,0,-4,2,0
1558438349044814,-7,-5,-3,-2,-1,-1,-3,-2
1558438349044814,4,1,6,6,7,7,-1,1
1558438349053790,-3,1,-2,-3,-4,0,-2,-3
1558438349053790,-3,-2,5,1,4,2,8,-1
1558438349067754,2,0,-8,1,0,-4,-1,1
1558438349067754,-2,-4,-9,-4,-2,-2,-1,-4
1558438349074967,1,-2,-2,-4,-7,-8,-3,-3
1558438349074967,0,-3,1,0,2,2,-1,0
1558438349091707,5,8,19,8,4,2,3,1
1558438349091707,-5,-6,-22,-14,-9,-8,-3,-2
1558438349092688,-3,-2,-6,-5,-7,-5,-11,-4
1558438349092688,0,5,-1,-1,-6,-9,-6,-2
1558438349104889,-4,-11,-2,-1,-1,-1,4,-1
1558438349104889,-1,3,3,3,4,2,4,1
1558438349113635,-2,1,3,2,1,3,-2,-4
1558438349113635,-5,-5,-12,-7,-5,-1,-5,0
1558438349127598,1,8,1,0,2,2,-2,-3
1558438349127598,2,-5,-1,-2,0,1,4,1
1558438349134779,2,-1,2,0,-3,-6,-6,0
1558438349134779,0,2,10,9,5,4,1,1
1558438349151694,1,-2,-11,-7,-5,-10,-7,0
1558438349151694,-2,1,8,2,-3,-7,0,-1
1558438349152528,0,1,1,-2,8,9,4,3
1558438349152528,-1,-1,-1,3,5,3,7,1
1558438349164521,-4,-9,-20,-15,-9,-6,-3,-5
1558438349164521,-2,-1,3,1,3,2,1,-1
1558438349174467,1,4,-1,4,-4,-2,-5,-5
1558438349174467,-2,0,6,-3,-5,-5,-5,1
1558438349188604,-5,-6,-13,-1,0,-1,4,-2
1558438349188604,0,2,1,-3,-5,-6,-4,-2
1558438349194419,0,3,3,4,8,3,1,1
1558438349194419,-5,-11,6,1,-3,4,-3,-7
1558438349211368,2,0,11,4,-1,-1,-1,-2
1558438349211368,-2,-1,-7,0,0,0,1,-1
1558438349212367,-5,-3,-3,-7,-6,-1,-4,-7
1558438349212367,0,5,-2,1,0,2,-1,0
1558438349225331,3,3,11,1,-4,-8,0,5
1558438349225331,1,1,-3,2,4,7,1,3
1558438349233630,-4,-3,-10,-5,-8,-5,-1,-1
1558438349233630,-1,-3,-13,-8,-4,-5,-10,-2
1558438349248431,4,5,5,2,-2,-5,0,-2
1558438349248431,-13,-13,-1,2,4,2,1,2
1558438349255275,-1,-4,3,-2,-4,-3,-1,-1
1558438349255275,1,3,0,0,0,6,10,1
1558438349271532,2,-2,-9,-3,8,0,1,2
1558438349271532,3,6,4,1,-3,-11,-1,1
1558438349273233,-5,-3,-2,-2,-1,4,-3,-6
1558438349273233,-2,-8,-11,-4,-1,-1,-1,0
1558438349285171,0,4,2,0,-4,0,-5,-6
1558438349285171,2,-1,5,0,-3,-4,-7,-4
1558438349293477,-4,-7,-13,-2,2,6,3,-1
1558438349293477,2,8,12,3,1,-4,0,0
1558438349308373,-6,-3,2,3,-1,-1,-1,-2
1558438349308373,-5,-4,-14,-6,0,6,-7,-4
1558438349315323,2,4,14,8,3,-4,-4,-3
1558438349315323,-5,-13,-30,-14,-7,-6,-1,-7
1558438349331269,-1,-2,0,-3,1,8,0,-1
1558438349331269,3,2,2,-3,-9,-9,0,0
1558438349332049,3,7,28,11,3,-3,1,3
1558438349332049,-1,-7,-16,-4,2,6,4,0
1558438349345012,0,-2,0,3,5,6,-2,0
1558438349345012,9,5,1,0,9,11,7,2
1558438349353988,-13,-10,-9,-5,-6,-5,-11,-5
1558438349353988,-2,6,16,3,-5,-9,-1,2
1558438349367953,-4,1,7,1,1,5,9,2
1558438349367953,2,-2,-8,-2,5,6,-5,0
1558438349374933,4,2,-15,-9,-2,-5,9,3
1558438349374933,1,0,26,11,8,7,-2,-3
1558438349391199,-9,-9,-27,-7,-10,-9,-6,-4
1558438349391199,-3,0,0,-3,-4,-3,-4,-3
1558438349393082,2,-1,-5,-2,1,5,7,2
1558438349393082,1,4,5,-4,-7,-9,-6,-2
1558438349405294,5,3,12,7,6,6,1,1
1558438349405294,-5,-2,2,-3,-1,1,0,-1
1558438349413831,0,0,0,-4,-4,-3,-10,-2
1558438349413831,-2,-4,-12,0,0,-2,8,4
1558438349427006,4,9,16,4,5,1,10,1
1558438349427006,-3,-2,-9,2,-3,-5,-13,-6
1558438349435768,-3,-7,-13,-8,-2,4,-8,-3
1558438349435768,0,3,5,2,3,4,-5,-1
1558438349451749,-3,-4,-12,-7,-9,-4,-2,-1
1558438349451749,2,4,18,7,7,3,10,4
1558438349452723,2,1,-7,0,-4,-1,4,-1
1558438349452723,-6,-5,-2,-4,-1,-2,-1,-5
1558438349465057,-2,-3,-6,-6,-5,-4,-5,-1
1558438349465057,-2,3,20,8,-2,-4,3,-1
1558438349473666,1,-3,-15,-4,-1,-4,-2,1
1558438349473666,0,-3,-7,-4,-1,1,4,-1
1558438349487943,0,2,6,4,1,0,-9,-5
1558438349487943,-5,-3,-11,-9,-3,-4,-3,-2
1558438349495887,-3,-8,5,-2,1,-3,2,2
1558438349495887,5,10,22,9,-2,-5,-5,-2
1558438349511566,-7,-10,-18,-10,1,3,1,0
1558438349511566,-1,-7,-22,-8,-3,6,1,0
1558438349512564,-1,3,3,2,4,-5,8,2
1558438349512564,-2,-4,-2,-3,-3,-2,-6,-1
1558438349524790,3,2,17,8,2,-1,-4,-1
1558438349524790,0,2,-8,-9,-7,2,-2,-2
1558438349533508,1,4,11,6,2,5,6,3
1558438349533508,-1,-4,-4,0,11,6,2,3
1558438349547470,0,2,-10,-5,-2,-4,-1,-1
1558438349547470,-3,-6,-6,-5,-9,-5,0,-2
1558438349556446,-6,-7,-3,-4,-12,-12,-3,-3
1558438349556446,3,4,8,6,3,-2,0,1
1558438349570408,2,0,2,-4,-4,-4,-6,-1
1558438349570408,-2,-5,-10,-3,3,4,7,-2
1558438349572402,0,2,7,2,0,5,-7,-4
1558438349572402,0,3,6,4,-1,-1,9,0
1558438349584738,-6,-11,-28,-14,-3,-1,-5,-3
1558438349584738,6,3,-1,-1,-3,-3,-1,1
1558438349593660,-4,-3,0,-1,-1,0,-8,-2
1558438349593660,-4,-1,-6,-5,-5,-6,-6,-4
1558438349616453,0,2,12,10,10,14,9,2
1558438349616453,6,9,20,10,4,1,1,1
1558438349617282,3,-1,-14,-9,4,7,6,2
1558438349617282,-5,-13,-21,-10,-10,-3,-3,-1
1558438349631550,2,3,5,1,-9,-6,-1,0
1558438349631550,-4,-2,-1,1,-3,-5,-8,-3
1558438349632246,2,5,11,6,5,-5,-6,1
1558438349632246,1,5,1,1,0,3,4,0
1558438349644211,-4,-6,-4,-4,-1,3,-8,-4
1558438349644211,1,3,12,8,3,-3,7,4
1558438349653508,-1,-1,-10,-5,-8,-13,-6,-5
1558438349653508,1,-2,3,0,0,-1,1,3
1558438349676159,0,0,-2,2,1,0,-4,1
1558438349676159,-3,-6,-8,-4,-2,-4,-7,-3
1558438349677122,-2,1,9,2,0,7,3,-3
1558438349677122,-1,-3,-5,-3,-2,-2,-2,-2
1558438349691102,0,2,4,0,1,-4,5,0
1558438349691102,1,2,3,2,5,4,2,0
1558438349697339,-4,-5,-7,-4,-6,-2,-5,-2
1558438349697339,-1,2,9,0,-2,-3,2,0
1558438349705047,-4,-6,-11,-5,-2,-8,-2,1
1558438349705047,4,3,8,1,0,4,1,0
1558438349713292,-3,-6,-12,-7,0,-4,-2,-2
1558438349713292,0,3,10,4,4,4,-2,-2
1558438349726995,0,1,0,1,-2,-2,1,-3
1558438349726995,-2,-1,-2,0,2,4,-1,0
1558438349735987,1,2,11,9,1,0,1,-4
1558438349735987,-4,-8,-26,-17,-7,0,-2,-3
1558438349750169,-4,-5,1,5,8,4,6,3
1558438349750169,-1,1,-7,-5,-9,-11,-13,-5
1558438349756940,2,-3,-1,-2,-2,-2,-4,0
1558438349756940,2,3,11,6,1,-9,-2,2
1558438349764887,-2,-3,9,4,1,1,2,-2
1558438349764887,-4,-6,-6,-5,0,4,2,-4
1558438349773863,-2,-2,-11,-3,-8,-5,1,-1
1558438349773863,0,1,1,-1,-2,-6,0,0
1558438349787990,-2,-3,-7,-5,0,1,1,1
1558438349787990,-3,2,12,3,0,-2,-10,-7
1558438349795804,0,-1,-3,-4,1,2,3,-2
1558438349795804,-1,-2,-13,-6,-4,1,1,-2
1558438349810178,-2,0,1,1,-1,-1,4,1
1558438349810178,0,1,12,8,4,5,1,1
1558438349817211,-1,0,-8,-6,-2,2,0,-1
1558438349817211,-5,-5,-4,-3,-5,0,-11,-5
1558438349833852,2,3,2,-1,-7,-8,2,1
1558438349833852,-2,-3,-7,-4,-1,-6,-5,0
1558438349835697,6,6,13,5,4,1,4,5
1558438349835697,-5,-4,-7,0,-3,-1,-3,-2
1558438349847907,-2,-3,-8,-7,-5,-3,-3,-2
1558438349847907,4,2,4,2,2,-2,6,3
1558438349855681,2,5,25,9,8,3,4,4
1558438349855681,-4,-9,-30,-13,-5,-3,-13,-6
1558438349870603,3,3,6,2,3,11,0,-1
1558438349870603,-4,-10,-16,-8,-10,-14,-6,-2
1558438349876588,-8,-4,2,1,-3,-4,-7,-5
1558438349876588,2,4,10,7,8,9,10,3
1558438349893543,0,3,14,3,-3,-2,-3,-4
1558438349893543,-6,-12,-31,-13,-4,-1,1,-3
1558438349894540,-1,-1,-2,-1,1,4,-1,-2
1558438349894540,-3,1,-4,-1,1,1,2,1
1558438349906507,0,0,5,-1,-5,-3,-12,-2
1558438349906507,2,2,4,1,0,4,5,1
1558438349915483,4,-1,-9,-5,0,-6,5,1
1558438349915483,-8,-4,10,4,-2,-5,2,-2
1558438349930445,-4,0,-1,1,5,5,-2,-2
1558438349930445,1,1,7,4,-1,6,6,-2
1558438349937451,-2,-8,-18,-9,-3,-4,-6,-1
1558438349937451,6,5,16,7,6,4,0,5
1558438349953382,1,1,-8,-5,-5,-5,-7,-2
1558438349953382,-5,-5,-13,-11,-5,2,-4,-4
1558438349954392,-5,-8,-4,0,-5,0,0,-3
1558438349954392,3,-1,10,3,-5,-10,2,0
1558438349967345,0,-3,-16,-2,5,2,0,1
1558438349967345,-4,-4,-10,-7,-8,-6,-5,-2
1558438349992279,1,3,5,3,5,5,-5,-3
1558438349992279,0,-4,-6,-4,-2,-1,2,0
1558438349993277,2,3,12,4,1,-3,1,1
1558438349993277,-1,3,5,4,6,-2,4,0
1558438349997265,0,0,7,2,0,2,6,3
1558438349997265,-2,-4,-11,-5,-5,0,-12,-3
1558438350013222,-1,-4,-6,-7,-7,-2,1,-6
1558438350013222,2,1,-4,-2,-1,1,2,2
1558438350015218,3,3,11,2,4,2,-2,0
1558438350015218,-2,0,7,3,0,-1,0,-3
1558438350027186,-2,-5,-14,-6,-3,0,-1,-2
1558438350027186,-1,-1,14,4,4,-5,-6,0
1558438350036161,1,-1,-17,-6,-9,-9,-5,-5
1558438350036161,0,4,1,-4,2,6,0,-2
1558438350050124,-6,-3,0,-1,-1,-3,-4,-2
1558438350050124,2,-1,7,5,1,-2,6,0
1558438350057105,2,4,5,1,8,10,4,3
1558438350057105,-2,-4,-6,-5,-5,-8,-7,-2
1558438350073063,-4,-5,-13,-6,-1,3,1,-3
1558438350073063,1,4,10,6,3,3,0,1
1558438350075057,-4,-5,-1,-6,-11,-19,-7,-5
1558438350075057,0,4,-3,-1,2,7,-2,-2
1558438350087025,4,3,11,4,-2,-8,10,6
1558438350087025,-3,-3,0,0,2,1,-1,0
1558438350096001,-3,-6,-12,-3,-3,0,0,-2
1558438350096001,8,1,3,2,5,8,3,0
1558438350109966,-7,0,8,2,-4,-7,-4,-2
1558438350109966,-4,-5,-21,-9,-5,-1,-12,-4
1558438350116945,0,2,5,1,1,4,4,1
1558438350116945,-3,-1,8,2,-6,-19,-4,0
1558438350132903,2,-2,-8,-2,8,12,-1,2
1558438350132903,3,2,13,3,3,1,6,3
1558438350134898,-5,-7,-22,-14,-10,0,-4,-5
1558438350134898,2,0,-1,1,-1,-2,-2,-3
1558438350146866,1,0,4,-1,0,-4,2,1
1558438350146866,1,7,8,6,1,-3,-5,0
1558438350155841,-2,-7,0,0,-4,-11,0,3
1558438350155841,-2,-1,-2,-2,-4,-2,7,1
1558438350169805,-3,-5,-8,1,3,-1,-11,-5
1558438350169805,0,3,-5,-2,0,4,2,0
1558438350176784,2,9,23,9,2,5,-2,4
1558438350176784,-4,-6,-20,-9,-5,3,0,-3
1558438350193740,-1,-3,-14,-7,-1,-12,3,1
1558438350193740,4,3,3,0,0,2,-2,1
1558438350194739,-2,-4,1,0,-2,-4,-5,-5
1558438350194739,-1,5,9,6,8,10,5,1
1558438350206708,3,2,-2,2,1,-2,2,3
1558438350206708,-8,-12,-14,-12,-8,-8,-2,-6
1558438350215680,4,5,17,7,-3,-10,-7,-1
1558438350215680,1,1,-6,-6,0,1,-11,-1
1558438350230640,-2,-2,1,1,-5,3,0,-2
1558438350230640,0,1,-9,-8,-5,-7,1,-1
1558438350238620,-7,-6,0,0,1,3,-3,-7
1558438350238620,-4,-3,-1,1,-2,-5,-3,-3
1558438350253613,-2,2,0,-1,2,4,-3,-4
1558438350253613,0,-2,10,5,1,-1,8,1
1558438350254576,-3,-1,-11,-5,0,2,0,-2
1558438350254576,3,-1,4,0,-2,-4,-4,-1
1558438350266544,2,1,8,1,1,4,3,1
1558438350266544,-1,-3,-10,0,-6,3,-9,-4
1558438350275555,-1,-2,-7,-4,3,0,4,0
1558438350275555,0,-1,6,3,5,0,-1,-1
1558438350290480,-4,-4,-5,-3,-5,-3,3,3
1558438350290480,0,0,4,1,1,1,-11,-7
1558438350297461,-6,-3,0,0,0,1,-3,1
1558438350297461,-4,-6,-22,-9,-8,-3,-5,-1
1558438350313420,3,2,13,5,3,-1,13,3
1558438350313420,-3,-1,-3,-2,0,-1,3,1
1558438350314418,7,10,4,6,3,2,4,3
1558438350314418,-1,-3,0,-4,0,0,1,-1
1558438350327383,-5,-7,-2,-4,-6,-2,-6,-6
1558438350327383,5,4,6,0,2,2,1,4
1558438350335395,0,-1,-21,-9,-6,-8,-4,-2
1558438350335395,1,5,22,9,2,-1,1,-1
1558438350350320,-4,-11,-33,-12,-3,-5,-1,-1
1558438350350320,-5,-2,4,2,2,3,-4,0
1558438350357301,-2,1,13,4,3,8,-3,-2
1558438350357301,-3,-1,-6,-1,-4,-3,-3,-3
1558438350373260,2,3,12,3,-2,-4,-8,-3
1558438350373260,-1,-2,-12,-6,1,0,8,3
1558438350375254,2,-3,9,9,6,2,2,2
1558438350375254,1,-1,-1,-6,-6,-2,0,-1
1558438350387249,-8,-4,-17,-5,-3,-4,-7,-4
1558438350387249,-1,0,-4,1,-1,-1,-4,-2
1558438350396199,-3,-2,-3,-4,-7,-5,-2,-2
1558438350396199,8,12,31,11,8,4,7,6
1558438350410160,-2,-11,-19,-7,-6,-6,-1,-2
1558438350410160,-8,-14,-19,-8,-7,-3,-3,-5
1558438350417142,-1,4,6,0,-1,2,3,-2
1558438350417142,-4,-7,-16,-5,5,9,2,-1
1558438350433134,4,9,7,2,2,-2,-4,0
1558438350433134,4,5,19,8,2,-7,-2,1
1558438350435096,-4,-11,-23,-16,-7,-3,-2,-2
1558438350435096,1,5,4,1,-4,1,-1,0
1558438350447061,-2,0,13,4,5,12,9,5
1558438350447061,1,-1,3,-1,0,1,-4,-3
1558438350456038,-3,-3,-8,-7,-7,-8,-4,-4
1558438350456038,-1,-1,-5,1,9,2,8,2
1558438350470027,0,1,7,1,-2,-2,0,-2
1558438350470027,0,-4,-4,-5,-8,-1,-4,-3
1558438350476984,4,4,-6,1,-3,-8,2,3
1558438350476984,-16,-16,-12,-6,-5,-6,-7,-5
1558438350492978,2,5,11,4,0,-1,-11,-3
1558438350492978,1,1,13,7,1,3,0,1
1558438350494934,-3,-2,-15,-7,-2,5,-1,-5
1558438350494934,2,-8,-8,-7,-2,-7,2,2
1558438350506940,0,9,3,0,0,-4,0,-1
1558438350506940,-4,0,2,-2,2,2,0,0
1558438350515880,-1,5,0,2,-1,-2,0,2
1558438350515880,0,-6,1,1,-2,-6,0,5
1558438350529870,-3,-4,5,1,1,3,-4,-1
1558438350529870,2,3,-5,-3,-6,-3,4,0
1558438350536856,1,1,8,3,3,2,-6,-3
1558438350536856,-1,2,-10,0,-2,-2,-4,-6
1558438350553776,1,2,16,8,4,3,1,-2
1558438350553776,-5,-7,-22,-11,-3,2,4,2
1558438350554774,-6,-17,-12,-6,-2,0,2,1
1558438350554774,5,6,5,1,-3,-3,-5,-2
1558438350566776,4,4,-3,-1,-7,-8,-3,-3
1558438350566776,-8,-2,12,7,-4,-9,-1,-2
1558438350575721,-1,-5,2,2,2,1,4,0
1558438350575721,0,0,-3,0,4,1,3,2
1558438350590707,3,4,23,10,2,2,1,-1
1558438350590707,-4,-7,-43,-20,-6,-3,-7,-3
1558438350596661,1,3,14,7,5,-3,6,2
1558438350596661,0,3,-8,-2,-1,-1,-5,-1
1558438350612620,-2,-5,-9,-9,-8,-6,-10,-5
1558438350612620,-1,2,5,4,6,4,-3,-1
1558438350619599,0,-2,11,5,3,3,3,6
1558438350619599,-6,-8,-10,-4,1,2,5,-2
1558438350626581,-4,-3,-4,-2,-1,2,-3,-2
1558438350626581,-1,-1,-2,-4,-11,-14,-17,-6
1558438350635557,1,2,3,2,2,3,5,1
1558438350635557,-2,6,8,-1,-3,-1,5,-1
1558438350650517,-3,-6,-13,-7,-1,-1,-3,-2
1558438350650517,0,-6,-2,-3,-4,0,-5,-3
1558438350656536,0,4,5,5,6,1,-1,2
1558438350656536,-2,-1,-1,-1,-3,-1,4,-1
1558438350672497,3,0,-2,-2,0,-2,0,2
1558438350672497,-3,2,2,2,7,8,7,2
1558438350679442,0,-2,8,1,-4,-3,-5,-3
1558438350679442,-2,2,-15,-5,-4,-3,-5,-2
1558438350687453,-2,0,9,-2,-5,-3,1,-2
1558438350687453,-1,-7,-6,2,4,-3,1,-2
1558438350695434,-4,2,-8,-11,-6,2,-5,-4
1558438350695434,0,-1,17,9,-1,-4,-5,3
1558438350710359,3,1,-10,-4,0,-1,8,1
1558438350710359,2,5,12,6,3,4,6,1
1558438350717373,-4,-2,-8,-5,-4,-4,0,-3
1558438350717373,1,0,12,3,-1,-1,-6,-1
1558438350732326,-4,-8,-15,-7,-5,-2,-12,-5
1558438350732326,4,4,9,5,5,2,11,4
1558438350739355,2,0,8,4,2,4,5,1
1558438350739355,4,10,10,5,1,2,-4,1
1558438350747761,-10,-13,-34,-19,-7,-6,-3,-4
1558438350747761,1,-3,-1,-5,2,3,-2,0
1558438350756235,-5,-9,-7,-5,-8,-10,-8,-6
1558438350756235,-5,-7,-1,-1,-1,3,-2,-5
1558438350770258,-1,4,12,6,8,8,-6,1
1558438350770258,4,5,1,4,1,1,6,5
1558438350784624,4,3,3,3,9,7,11,5
1558438350784624,-1,-4,-3,-6,-4,-1,-2,-3
1558438350793486,1,2,0,-1,-2,4,-3,-1
1558438350793486,0,0,9,0,-4,-6,-4,-2
1558438350799120,-1,-2,-8,-4,-3,-7,-4,0
1558438350799120,-3,-3,-18,-6,-1,2,-1,-2
1558438350816575,-4,-5,0,1,0,7,8,0
1558438350816575,-3,-4,-4,-6,-11,-9,-6,-2
1558438350817074,-1,-2,1,4,-1,3,1,-1
1558438350817074,1,-4,-7,-3,2,0,3,1
1558438350830038,0,3,9,3,1,0,1,0
1558438350830038,0,-3,1,0,-1,-2,-2,0
1558438350837018,2,10,24,14,8,3,1,4
1558438350837018,-8,-18,-29,-20,-13,-11,-5,-3
1558438350852975,1,0,-9,1,1,-3,0,2
1558438350852975,-1,-3,-3,1,1,1,7,-2
1558438350858959,-1,-3,-7,-6,-6,0,-7,-5
1558438350858959,2,5,26,12,10,-2,7,5
1558438350875923,2,5,6,6,1,-6,0,3
1558438350875923,-3,-5,-10,-11,-3,-5,-2,-3
1558438350876914,-5,-5,-13,-7,-9,-2,-5,-4
1558438350876914,2,8,8,5,-1,2,-4,-2
1558438350889879,2,3,12,6,-1,-4,7,2
1558438350889879,-1,2,8,3,-3,-8,-11,-4
1558438350904840,-9,-16,-40,-20,-1,3,-2,-5
1558438350904840,-4,-2,-4,-4,-4,-2,-8,-1
1558438350912815,-1,3,10,4,-2,-6,-1,-1
1558438350912815,0,4,13,8,3,5,1,-1
1558438350919796,0,-3,-2,-2,-2,-9,-3,0
1558438350919796,3,2,3,3,-1,-3,5,1
1558438350935756,-4,-6,0,3,6,6,-5,-4
1558438350935756,-6,-11,-15,-7,-9,-5,-5,-7
1558438350936753,-1,1,1,1,-5,-2,-7,-2
1558438350936753,-1,4,8,3,5,3,2,0
1558438350949717,1,-4,-17,-10,-7,-4,0,1
1558438350949717,-1,0,-12,-7,5,4,2,0
1558438350956698,-2,6,9,3,-3,-5,-6,-2
1558438350956698,5,0,9,4,2,-1,1,0
1558438350972655,-10,-8,2,0,2,3,4,1
1558438350972655,-2,2,-15,-5,-3,-3,-3,-1
1558438350979952,-1,-1,-3,-3,-3,-2,-2,0
1558438350979952,-3,2,0,-2,-3,2,-6,-5
1558438350995597,-3,-8,-11,-5,-4,1,0,-4
1558438350995597,1,1,12,5,-1,-7,-1,1
1558438350997621,2,0,5,1,3,4,4,0
1558438350997621,-2,-3,-9,-5,0,2,3,-1
1558438351010555,4,11,11,7,5,0,-3,4
1558438351010555,1,-1,2,-1,-1,0,-1,0
1558438351016539,-8,-9,-8,-4,-4,-4,-7,-5
1558438351016539,-5,-8,-5,-2,-8,-2,-6,-5
1558438351032496,-1,3,7,-4,-5,-5,-2,0
1558438351032496,3,5,-2,5,16,18,11,7
1558438351039478,-4,-7,-8,-4,-3,-4,-8,-3
1558438351039478,-3,-4,-3,-3,-3,-7,2,1
1558438351055434,-1,-1,-2,1,0,-6,5,-3
1558438351055434,3,5,14,5,3,-2,-9,-2
1558438351057428,2,1,2,1,3,2,5,3
1558438351057428,-3,-1,-10,-5,0,4,-6,-2
1558438351078410,-2,-2,-1,-4,-5,2,0,-1
1558438351078410,-1,0,-4,-2,-9,-11,-9,-4
1558438351079399,-2,-2,5,4,4,2,7,2
1558438351079399,-1,0,9,3,1,-6,-2,-1
1558438351092377,4,1,-8,-2,0,-3,0,0
1558438351092377,-5,-5,-16,-15,-11,-2,-2,-1
1558438351099317,6,1,-2,2,7,6,6,4
1558438351099317,-1,-4,-8,1,-5,1,-1,-2
1558438351116311,-3,-4,-13,-8,-4,-2,-1,-3
1558438351116311,0,-6,0,2,0,2,6,1
1558438351117270,1,9,18,6,-4,-13,-6,-4
1558438351117270,-2,-1,8,2,2,-5,-5,-2
1558438351130262,-2,-3,-15,-4,-1,0,-2,-2
1558438351130262,-5,-4,-6,-5,-7,-5,-3,-2
1558438351137214,-1,0,5,1,9,13,8,2
1558438351137214,0,-1,-1,3,-1,-4,-3,1
1558438351152209,1,2,8,2,-3,-5,-3,-2
1558438351152209,-2,0,-5,-7,-7,-10,-5,-2
1558438351159158,-6,-7,-18,-8,-10,-6,-8,-4
1558438351159158,-2,-2,-13,-8,-2,2,-6,-3
1558438351176305,3,1,8,5,4,-1,-4,2
1558438351176305,2,5,22,9,6,4,2,-1
1558438351177114,-3,-8,-7,1,1,7,7,1
1558438351177114,0,4,-7,-10,-10,-12,-1,-2
1558438351190074,-6,-12,-7,-3,-1,-1,-4,0
1558438351190074,-3,-3,-4,-1,1,2,1,2
1558438351197084,4,5,11,2,-7,-7,-14,-4
1558438351197084,-2,-3,-1,1,-2,-2,9,1
1558438351213013,7,13,35,15,6,6,2,0
1558438351213013,-5,-17,-72,-36,-13,-1,-2,-5
1558438351220031,-3,-4,-5,-3,1,-3,6,-1
1558438351220031,3,2,2,1,8,6,-9,0
1558438351236016,-2,0,0,-3,-6,-1,-1,-4
1558438351236016,0,5,25,13,5,-1,9,4
1558438351237013,-1,-2,0,-2,-3,-3,-3,-3
1558438351237013,0,-1,-2,-3,-2,2,-4,-1
1558438351249944,0,3,-5,-2,-1,-3,1,-1
1558438351249944,-5,-7,9,4,2,0,-2,-2
1558438351257957,1,-1,-10,-4,2,7,7,2
1558438351257957,2,6,12,5,2,0,5,1
1558438351272919,-2,-4,4,-4,-4,-1,-2,-1
1558438351272919,1,2,2,12,4,7,-3,-1
1558438351279893,-6,-9,-31,-17,-7,-10,-6,-2
1558438351279893,0,4,18,12,10,-1,5,0
1558438351295848,-3,-6,-30,-17,-5,-4,2,-1
1558438351295848,-1,5,13,5,2,3,-4,-3
1558438351296789,4,3,10,2,-4,-4,-8,-3
1558438351296789,-7,-5,-11,-5,-8,1,-13,-5
1558438351309756,1,0,7,5,7,6,1,2
1558438351309756,3,3,16,5,7,3,6,4
1558438351325738,-2,0,-11,-3,-6,-10,-2,-2
1558438351325738,-3,-9,-4,-6,-6,-5,-4,-6
1558438351332725,-5,-8,-7,-3,-4,0,-4,-4
1558438351332725,0,5,18,4,4,5,10,4
1558438351346695,4,1,-5,2,1,2,-5,0
1558438351346695,-4,-4,-18,-14,-9,-3,0,-1
1558438351355671,-1,-3,3,4,4,-5,5,3
1558438351355671,-2,-8,-3,2,7,1,-2,-3
1558438351357627,1,7,18,7,-2,-2,-6,-1
1558438351357627,-1,0,7,4,-1,4,-1,-1
1558438351369629,-5,-6,-19,-10,-8,-3,-5,-6
1558438351369629,0,2,1,-4,-6,-4,-2,2
1558438351378571,0,1,6,-2,-2,-4,3,0
1558438351378571,-2,1,-1,2,4,-3,-4,0
1558438351392534,1,-2,-8,-5,2,7,12,5
1558438351392534,-2,-4,-8,-3,-3,-6,-6,-4
1558438351399552,0,4,6,5,5,7,3,0
1558438351399552,-5,-13,-17,-12,-13,-9,-6,-4
1558438351416469,1,10,15,4,-2,-10,-4,0
1558438351416469,3,4,12,5,1,1,-5,0
1558438351423450,1,-5,-25,-15,-5,6,2,0
1558438351423450,-8,0,12,8,3,-10,12,7
1558438351429435,-1,-3,7,3,1,1,2,-2
1558438351429435,-5,-6,-19,-6,-5,-3,-5,-7
1558438351438410,-1,6,13,3,4,1,-1,1
1558438351438410,3,-1,-5,-3,-5,0,-5,-2
1558438351452372,-3,-4,-4,-1,-1,5,6,-1
1558438351452372,4,9,30,15,9,9,14,4
1558438351459545,-9,-16,-34,-13,-13,-20,-14,-6
1558438351459545,2,2,-7,-2,5,5,1,0
1558438351476308,-1,1,5,4,-3,-6,-9,-1
1558438351476308,1,-3,0,-5,-3,1,-2,0
1558438351477307,1,1,9,6,0,4,2,2
1558438351477307,1,2,-2,-2,0,2,3,2
1558438351489275,1,-4,-5,-1,-2,-4,-7,-2
1558438351489275,-4,1,-4,-2,-2,-2,1,-4
1558438351498250,0,-2,13,4,-4,-3,-2,-2
1558438351498250,1,-4,6,3,5,6,-1,1
1558438351513209,-1,0,-2,-1,2,6,1,0
1558438351513209,-5,-6,-23,-12,-13,-13,-8,-7
1558438351519382,1,1,8,5,9,7,10,3
1558438351519382,2,3,1,0,0,2,-2,-3
1558438351535339,2,1,-1,-1,-6,-4,3,1
1558438351535339,-12,-11,4,3,0,-3,-2,-2
1558438351542326,2,7,9,1,6,1,1,1
1558438351542326,-2,-7,-16,-7,-3,-1,0,-1
1558438351549302,-4,-3,-3,-3,1,3,-8,-4
1558438351549302,3,3,-5,-5,-11,-8,-6,0
1558438351558245,-3,-5,3,3,0,-3,7,2
1558438351558245,2,3,5,3,5,2,3,1
1558438351573208,-1,-2,-6,-5,-7,-2,-4,-3
1558438351573208,0,-3,7,5,1,-1,4,-3
1558438351579224,-2,-2,-4,-4,0,-1,0,-3
1558438351579224,0,3,0,-1,-4,-2,-10,-5
1558438351603118,-2,-6,-19,-6,3,0,19,5
1558438351603118,2,0,0,1,12,12,-8,3
1558438351605112,-4,-3,0,5,-2,-2,-3,-3
1558438351605112,0,6,16,7,1,3,-1,0
1558438351609100,-8,-11,-25,-20,-8,1,-9,-8
1558438351609100,3,4,-3,-3,-8,-11,3,-2
1558438351626074,0,-6,2,0,5,5,3,1
1558438351626074,-2,-3,-10,-4,-5,-4,-6,-3
1558438351633045,3,10,9,5,3,-3,-2,2
1558438351633045,-10,-13,-10,-4,-3,-2,-5,-4
1558438351640101,-2,-1,1,0,1,-1,-2,0
1558438351640101,0,-1,-4,-1,0,1,-2,-1
1558438351655189,5,7,29,12,5,-2,1,2
1558438351655189,-1,-6,-36,-17,-8,-8,0,-3
1558438351670004,2,0,-2,1,1,1,-1,-2
1558438351670004,-3,-3,0,-4,-3,1,8,1
1558438351671368,-2,-4,1,-2,-8,-5,-13,-7
1558438351671368,2,4,6,4,3,-3,0,1
1558438351678353,-3,-3,7,3,-3,-6,2,-1
1558438351678353,-4,-8,-19,-14,-4,-1,-2,-6
1558438351692348,-2,-2,-3,-1,-4,-5,-9,-2
1558438351692348,-1,-3,-5,-6,-5,-2,2,1
1558438351699328,2,6,4,1,3,3,1,0
1558438351699328,0,2,10,4,5,3,7,2
1558438351715288,-3,0,1,3,-1,1,-4,-2
1558438351715288,-1,-5,7,3,1,2,2,1
1558438351722272,0,5,-4,-1,2,2,-1,-4
1558438351722272,-3,-8,2,2,-2,-9,-6,-2
1558438351738234,-5,0,-1,-1,0,3,4,-3
1558438351738234,6,0,-7,1,12,6,6,4
1558438351740190,-2,-3,6,-5,-6,-5,-7,-1
1558438351740190,5,1,-4,-2,-2,-3,4,-3
1558438351753154,-4,1,-1,-1,-3,-10,-6,-3
1558438351753154,-3,-1,14,2,1,6,-3,-5
1558438351759184,-4,-3,-21,-8,-6,4,-4,-4
1558438351759184,-4,-8,-4,-2,-5,-9,1,5
1558438351775135,2,2,-1,-4,0,-3,3,-1
1558438351775135,1,4,-4,0,-2,-1,3,2
1558438351782076,-3,-4,-4,2,-1,-2,-1,2
1558438351782076,-1,5,15,7,-1,0,-4,-1
1558438351798066,-3,-8,-15,-5,0,1,4,0
1558438351798066,0,5,-3,-2,2,-1,-4,-1
1558438351800028,-3,-4,5,-1,-2,-5,2,0
1558438351800028,0,5,5,6,2,5,0,-3
1558438351812992,-2,-10,-20,-13,-9,-8,-4,-3
1558438351812992,-3,-1,-1,-1,-8,-8,-5,-1
1558438351818976,-1,-2,-2,0,-2,-3,-14,-5
1558438351818976,3,3,2,2,3,2,15,5
1558438351835001,0,2,16,9,3,3,-4,-1
1558438351835001,-4,-1,-12,-4,-1,-2,1,-1
1558438351841985,0,-3,6,-2,-1,3,-10,-4
1558438351841985,-4,-4,-8,-4,-3,-4,-2,-1
1558438351857942,5,5,6,4,2,0,3,2
1558438351857942,1,-1,-7,-7,-3,3,6,-2
1558438351859868,-9,-2,1,1,-3,-6,-4,0
1558438351859868,-2,-8,-2,-4,-3,2,4,-4
1558438351880810,-4,-2,4,6,3,4,3,0
1558438351880810,1,-1,-4,-7,3,2,-5,2
1558438351881808,2,-2,0,0,-1,0,8,4
1558438351881808,-1,3,3,-2,-6,-4,-11,-7
1558438351902753,0,-4,-7,-1,-1,-2,-1,1
1558438351902753,0,1,7,1,-4,-2,-7,-3
1558438351909733,2,2,-8,-7,1,3,12,0
1558438351909733,3,1,2,4,4,2,0,1
1558438351918932,0,5,9,-2,-2,0,-4,-3
1558438351918932,-2,-3,-5,-4,-2,-1,10,3
1558438351919708,-2,-5,-5,1,-2,-1,-10,-6
1558438351919708,-2,0,-1,0,3,2,-5,-1
1558438351932693,-2,-2,-12,-6,-4,-2,-2,-2
1558438351932693,-1,-3,5,2,-5,-6,-5,-1
1558438351939679,-6,-5,-8,-8,-5,-3,4,-1
1558438351939679,0,3,2,0,3,1,2,3
1558438351955619,2,1,5,3,1,2,-5,-1
1558438351955619,3,1,2,-1,-5,-1,0,-1
1558438351961596,-9,0,4,2,5,4,4,0
1558438351961596,-8,-11,3,-2,-1,0,-9,-9
1558438351978551,0,-3,-9,-8,-1,-5,3,-2
1558438351978551,0,6,16,9,5,3,-1,-1
1558438351979547,6,3,-4,-2,-5,-1,-4,-2
1558438351979547,0,3,0,-3,-6,-4,0,2
1558438351992515,2,4,-4,1,4,0,6,2
1558438351992515,-4,-11,1,0,-3,-5,-12,-6
1558438351999496,9,15,6,-2,3,-3,6,2
1558438351999496,-12,-9,-17,-7,-4,5,0,-4
1558438352015454,4,-4,17,7,0,-5,-2,1
1558438352015454,1,-2,-11,-1,3,3,3,1
1558438352021435,-8,-4,8,6,0,-2,-6,-5
1558438352021435,3,3,-15,-11,-9,-11,-2,1
1558438352038399,3,7,7,4,2,4,2,2
1558438352038399,-9,-14,-7,-1,-1,-4,-6,-3
1558438352039391,3,5,-4,-5,-6,1,-3,-1
1558438352039391,-4,-6,10,3,4,3,4,-1
1558438352052355,-2,0,5,3,-3,-6,-11,-3
1558438352052355,4,4,-5,-8,-1,2,4,1
1558438352059334,-1,-12,-9,-2,-4,-8,-2,-1
1558438352059334,1,6,-3,2,1,3,-1,-4
1558438352075290,-7,-8,1,-3,-4,0,-1,0
1558438352075290,-1,4,4,2,0,-1,3,-1
1558438352082280,0,1,3,-3,4,11,1,1
1558438352082280,6,5,10,5,1,-1,1,4
1558438352098233,-8,-10,-36,-17,-8,-5,-7,-5
1558438352098233,0,6,17,9,2,-8,1,0
1558438352100224,-7,-9,-28,-13,-11,-13,3,-3
1558438352100224,4,7,9,4,7,8,2,3
1558438352113228,1,7,11,4,3,10,2,1
1558438352113228,-3,-11,-10,-4,-3,-2,-4,-1
1558438352119267,5,4,10,4,3,-1,1,1
1558438352119267,0,-2,-17,-5,-1,2,-1,-4
1558438352135131,-3,-6,3,0,8,2,11,3
1558438352135131,-4,-6,-2,1,-3,1,-7,-4
1558438352142112,-1,2,10,7,-3,-10,-3,0
1558438352142112,-2,-2,3,0,-4,-4,-9,-4
1558438352158070,1,-3,-7,-5,1,2,-5,-1
1558438352158070,1,4,-6,-5,1,2,1,0
1558438352160065,-11,-12,-10,-3,-2,4,-4,-5
1558438352160065,-2,2,-2,-6,-10,-13,-7,-3
1558438352181009,0,-2,1,0,4,8,11,2
1558438352181009,3,6,9,4,0,-6,-8,-1
1558438352182007,0,2,1,0,2,3,-2,-1
1558438352182007,-3,-7,-9,-6,-4,-1,-3,-3
1558438352194971,-2,-1,4,3,-5,-7,-3,-3
1558438352194971,-3,-4,-5,-3,-1,-1,4,1
1558438352202952,7,7,28,13,9,2,9,7
1558438352202952,-4,-3,-33,-17,-5,-7,-9,-6
1558438352217913,-3,-12,-5,-1,6,12,7,1
1558438352217913,1,4,1,0,-4,-1,-10,-3
1558438352225888,0,-1,-4,-3,-8,-12,0,-2
1558438352225888,1,1,18,7,7,5,7,3
1558438352231909,3,5,-1,0,0,-1,3,3
1558438352231909,-3,3,-5,-5,-2,-2,-5,-3
1558438352240849,2,-7,2,1,-2,6,-1,1
1558438352240849,-12,-13,-10,-4,-6,-1,-1,-5
1558438352254955,-2,-5,0,4,-1,-5,-5,-3
1558438352254955,3,6,15,5,3,-1,-2,2
1558438352261793,-4,2,-13,-9,-2,3,6,1
1558438352261793,-5,-12,-11,-4,-9,-11,-8,0
1558438352278773,4,10,23,10,5,0,-2,1
1558438352278773,-4,-11,-24,-11,-6,-1,8,-1
1558438352279745,0,1,-12,-7,-1,-4,-5,-2
1558438352279745,2,0,2,0,-3,-3,4,0
1558438352291771,-4,-2,-3,-4,-7,-11,-11,-3
1558438352291771,-1,-4,10,4,2,5,0,-2
1558438352300691,0,-2,-5,-3,3,6,3,1
1558438352300691,1,5,6,5,3,1,5,2
1558438352314652,0,2,-1,-3,-8,-9,-10,-2
1558438352314652,-2,-1,-11,-10,-8,-7,-3,-2
1558438352321678,-2,-4,-6,-4,-3,2,0,-1
1558438352321678,2,6,7,3,-4,-4,-3,-1
1558438352338587,3,9,6,0,7,12,8,1
1558438352338587,-7,-28,-14,-5,-9,-8,-11,-6
1558438352339585,-7,-10,-4,4,7,3,-1,-3
1558438352339585,3,4,0,-6,-3,1,3,0
1558438352351552,-1,0,10,4,-4,-6,-6,-1
1558438352351552,3,6,-2,-2,6,3,6,3
1558438352360533,2,-2,-3,-2,-8,-7,-1,-1
1558438352360533,-2,-4,-8,-1,4,1,4,1
1558438352375488,-5,-2,-10,-6,-5,1,-2,-2
1558438352375488,4,14,11,7,8,1,-1,2
1558438352381529,-5,-10,6,-1,1,5,-7,-3
1558438352381529,1,1,3,4,1,-2,-3,1
1558438352398478,-3,-6,-9,-5,-3,0,0,-4
1558438352398478,-3,-3,1,-1,-10,-4,-4,-3
1558438352399425,1,4,-1,-3,3,-6,0,1
1558438352399425,2,1,-1,3,7,3,2,-2
1558438352411392,0,2,1,-1,-4,-3,-6,-3
1558438352411392,0,-1,-5,-3,-4,4,0,-3
1558438352420369,-7,-2,-3,-3,-1,4,-6,1
1558438352420369,-5,-7,6,3,-1,-2,7,3
1558438352435329,1,0,-6,-1,0,-2,3,1
1558438352435329,-3,6,4,3,3,1,2,0
1558438352442311,0,-2,-7,-3,-4,-1,-7,-4
1558438352442311,-3,-1,0,-2,-2,-7,2,-1
1558438352466245,0,-5,-5,-2,-3,-1,-6,-3
1558438352466245,-1,5,0,-1,-3,2,1,0
1558438352467243,2,1,11,6,-1,3,1,0
1558438352467243,0,1,-1,3,0,3,-5,0
1558438352472450,-3,-7,-10,-10,-4,-6,4,-1
1558438352472450,0,-1,-8,-4,-1,2,0,-2
1558438352481205,2,5,-8,-6,2,1,0,-1
1558438352481205,-1,-4,4,-1,-1,0,-1,2
1558438352495172,-1,1,0,0,-4,0,0,-1
1558438352495172,-5,-5,2,0,-3,-8,-7,-2
1558438352502149,-2,2,5,1,7,3,4,-1
1558438352502149,3,1,2,2,-2,-5,-1,1
1558438352518106,0,-4,-3,0,5,2,8,4
1558438352518106,-1,-2,2,-1,-1,-3,-10,-5
1558438352524091,5,2,-1,0,-4,-5,-2,0
1558438352524091,-5,-7,0,-2,1,-1,-13,-5
1558438352532069,-2,2,-4,-4,-4,5,2,0
1558438352532069,1,-3,-1,1,-1,-14,-2,2
1558438352541045,3,5,2,-2,1,-3,4,3
1558438352541045,1,3,1,-4,-2,5,-2,-3
1558438352555009,-3,-5,-1,-1,1,5,-3,2
1558438352555009,-2,-7,-3,1,4,6,0,-3
1558438352562026,0,3,5,-1,-4,-9,-3,1
1558438352562026,3,6,0,-1,1,3,6,-1
1558438352577949,-5,-7,9,4,-2,0,-9,-5
1558438352577949,-5,-5,-20,-7,-2,-2,9,2
1558438352583930,-3,-10,-18,-8,-2,1,2,-1
1558438352583930,3,9,6,1,-1,-2,-2,0
1558438352591911,-2,-4,-11,-8,-8,-6,-4,-2
1558438352591911,0,-1,0,-1,-6,0,-3,0
1558438352600886,1,3,10,8,2,2,-2,2
1558438352600886,-3,-1,-6,-3,2,4,6,3
1558438352614906,5,3,6,2,1,-10,1,-2
1558438352614906,2,0,4,0,-5,-5,0,0
1558438352621830,-4,-8,2,0,0,1,0,-3
1558438352621830,1,-2,-8,-3,0,0,2,1
1558438352637787,-5,-3,-7,-3,-2,-8,-1,-3
1558438352637787,1,-1,-3,-2,5,2,0,0
1558438352644769,-2,0,-6,-4,-9,-8,-7,-4
1558438352644769,-2,-2,3,0,1,-2,-3,0
1558438352660727,-1,-4,-8,-2,1,5,-3,-2
1558438352660727,-5,1,7,1,-2,0,4,-2
1558438352662720,0,3,3,0,-2,-3,0,1
1558438352662720,-2,-9,-4,-4,-3,-3,2,1
1558438352674692,0,4,-12,-7,-5,-6,1,-2
1558438352674692,-2,4,7,4,2,2,1,0
1558438352689648,-3,-6,5,-2,-7,-3,-7,-6
1558438352689648,-2,-1,-10,-3,5,4,8,1
1558438352697630,-1,12,12,8,1,-1,0,0
1558438352697630,-4,-8,-3,-3,-1,-2,1,2
1558438352704613,-2,-5,-14,-7,-1,5,-5,-3
1558438352704613,-3,-5,-16,-7,-9,-5,-2,-5
1558438352720572,0,0,-2,-1,4,1,0,1
1558438352720572,3,2,5,2,1,4,-4,-2
1558438352722563,0,0,6,2,-1,-2,4,-1
1558438352722563,4,4,12,5,-1,-8,-7,0
1558438352735575,-3,-1,-9,-3,0,5,-7,-4
1558438352735575,0,1,0,-1,0,-3,4,1
1558438352741514,-4,-5,-7,-3,-7,-12,-3,-5
1558438352741514,-3,-1,4,3,-2,0,-5,-2
1558438352757479,2,0,2,-2,0,0,2,0
1558438352757479,-1,-1,0,1,-1,-3,0,0
1558438352764454,-3,1,3,2,2,3,-2,-1
1558438352764454,1,3,1,2,2,1,5,-2
1558438352780406,-2,-4,19,7,0,-5,2,1
1558438352780406,-1,-3,-11,0,5,4,-3,-3
1558438352782401,-1,0,-7,-8,-2,0,1,-1
1558438352782401,-2,-2,-8,-8,-7,-7,-8,-7
1558438352795370,-1,3,-5,0,-1,1,2,0
1558438352795370,-5,-8,0,-2,-5,-4,-4,-4
1558438352802348,0,2,3,5,5,0,2,2
1558438352802348,-1,0,5,2,-5,-7,-3,-1
1558438352817307,1,0,4,0,1,5,5,1
1558438352817307,3,4,3,-1,7,3,3,3
1558438352824289,2,0,6,1,-4,-2,-10,-4
1558438352824289,0,-1,2,2,1,6,-7,-1
1558438352840251,-1,-1,4,2,5,2,6,1
1558438352840251,-4,-8,-26,-19,-15,-5,-4,-2
1558438352848224,-1,1,-2,-4,-4,-10,-8,0
1558438352848224,1,1,8,6,5,-4,2,3
1558438352855206,0,-2,3,2,-1,-5,2,0
1558438352855206,1,0,2,1,6,11,1,-2
1558438352862191,-2,1,-7,-5,-7,-7,-2,-3
1558438352862191,2,-4,3,3,3,3,3,3
1558438352877153,-3,-4,-4,-4,-1,0,-4,-3
1558438352877153,1,0,6,1,-4,-5,-2,1
1558438352884128,3,4,1,2,6,4,3,3
1558438352884128,-5,-1,5,0,-5,-3,0,-3
1558438352901083,-2,0,-3,-3,-4,-4,-6,-1
1558438352901083,1,-2,-12,-3,4,4,3,-1
1558438352902079,-1,-2,1,1,3,6,3,-1
1558438352902079,-2,1,7,2,0,2,1,-2
1558438352915044,-4,-10,-22,-15,-8,-1,-2,-4
1558438352915044,-1,8,20,6,-2,-7,-12,-5
1558438352922032,-2,-3,-19,-9,-7,-6,2,-1
1558438352922032,2,3,4,3,9,-1,13,4
1558438352937989,0,-7,-6,-3,-1,-1,-7,-3
1558438352937989,-3,2,8,2,0,-2,-3,0
1558438352943970,0,4,10,5,2,2,4,1
1558438352943970,-2,-2,5,-3,-10,-4,-10,-2
1558438352960925,3,0,-9,-1,-2,1,3,4
1558438352960925,-2,-9,-11,-7,-4,-6,3,-1
1558438352961920,-3,1,11,9,6,3,-5,-1
1558438352961920,1,-2,-12,-9,3,5,-2,0
1558438352974909,0,2,14,8,4,3,-1,-1
1558438352974909,1,-2,-9,-7,-9,-11,-2,-2
1558438352981866,-2,3,-2,-2,-2,2,3,0
1558438352981866,-4,-7,1,2,-5,-5,-3,-6
1558438352997827,-1,2,-2,-3,1,2,2,-3
1558438352997827,0,-5,-13,-6,-1,1,4,-2
1558438353004810,-6,1,6,0,1,-5,-8,-5
1558438353004810,-3,-4,-16,-7,0,1,3,0
1558438353020764,-2,-6,2,2,-4,-8,-3,2
1558438353020764,2,7,10,4,-1,-2,-1,-2
1558438353021760,-1,-7,-12,-5,1,3,-4,-5
1558438353021760,0,-1,6,2,2,3,-1,1
1558438353034726,-3,0,-7,-1,-1,-6,-3,-1
1558438353034726,3,6,21,5,1,1,-4,2
1558438353041708,2,-11,-24,-12,-9,-2,-2,-3
1558438353041708,-12,0,-5,-2,-5,-5,-10,-3
1558438353057667,-3,1,-4,-4,1,-2,5,-1
1558438353057667,-4,-6,2,4,6,4,7,3
1558438353064646,1,-1,0,-2,0,-5,-5,-5
1558438353064646,1,-5,-6,-8,-2,2,0,-3
1558438353080607,4,11,6,2,-6,-3,-3,-3
1558438353080607,-4,-13,-1,0,0,2,0,-3
1558438353082599,-2,-3,10,5,1,-1,2,0
1558438353082599,1,1,-6,-4,1,5,0,-1
1558438353095563,-6,-8,-11,-5,-11,-16,-6,-5
1558438353095563,0,5,1,3,8,6,-9,-5
1558438353101546,-1,-2,-3,-4,-5,-4,8,4
1558438353101546,-1,0,11,4,3,-2,-4,-2
1558438353117505,1,2,4,-4,-1,3,-4,-1
1558438353117505,-1,-1,-19,-6,-7,-11,2,-1
1558438353124488,-2,-3,-1,1,1,-2,-2,1
1558438353124488,-3,-1,8,3,-3,1,2,-1
1558438353140442,-4,-5,-7,-2,1,0,-9,0
1558438353140442,1,7,15,5,-1,3,2,2
1558438353142436,6,5,0,5,4,0,3,3
1558438353142436,-2,-19,-26,-17,-7,1,10,1
1558438353154405,1,7,9,2,1,-4,-4,-4
1558438353154405,-1,-3,1,0,2,5,-5,-1
1558438353163380,-1,3,1,-2,-3,2,2,0
1558438353163380,3,9,5,5,1,2,2,2
1558438353177348,-3,-12,-1,0,5,-1,1,1
1558438353177348,-3,2,12,3,-6,-7,-6,-2
1558438353192305,0,-3,2,-2,2,3,4,2
1558438353192305,0,-1,-20,-6,-1,-6,-8,-3
1558438353201282,-3,0,0,-3,-5,2,4,-2
1558438353201282,-1,-2,-7,1,3,-3,0,-2
1558438353202280,-4,-4,10,1,-2,-3,-9,-2
1558438353202280,-2,2,9,4,-3,-5,-8,-2
1558438353214248,0,-1,-9,-1,6,5,3,2
1558438353214248,0,1,0,-8,-10,-12,0,-2
1558438353223222,1,4,3,1,-3,3,-3,-1
1558438353223222,-8,-13,-21,-11,1,-3,-1,-1
1558438353238186,-2,-5,3,5,-2,2,5,-2
1558438353238186,2,-1,-3,0,2,6,3,0
1558438353244174,-8,-6,3,-1,0,-1,1,-1
1558438353244174,4,4,-3,0,-5,-8,-3,-1
1558438353261119,-4,-4,3,-1,3,7,1,2
1558438353261119,-3,-4,-9,-8,-10,-13,-6,0
1558438353263113,3,6,17,9,3,5,15,2
1558438353263113,0,-3,11,5,12,7,-7,-1
1558438353274084,-4,-8,-28,-14,-3,1,-3,-4
1558438353274084,0,-4,-7,-1,1,6,4,0
1558438353283064,1,1,-9,-6,-5,-5,-5,-4
1558438353283064,0,4,10,2,-7,-4,0,-1
1558438353298020,0,3,11,5,3,1,0,-1
1558438353298020,-2,-3,-8,-5,2,7,0,-3
1558438353304010,-6,-4,3,2,-4,-12,-2,-4
1558438353304010,5,13,25,14,11,7,-5,-1
1558438353319964,-3,-11,-29,-18,-10,-4,1,2
1558438353319964,-7,-1,-4,1,-5,-3,-4,-3
1558438353326949,-4,-10,-11,-3,-3,1,-3,-2
1558438353326949,0,-3,-6,0,-2,-2,4,2
1558438353334923,6,10,14,4,0,-5,-4,-3
1558438353334923,-12,-6,0,-6,-1,2,-3,-3
1558438353342902,1,-2,-3,0,2,8,0,-1
1558438353342902,0,-5,-6,-4,-1,-7,12,3
1558438353357860,11,9,21,11,11,4,-5,5
1558438353357860,-4,-6,-4,-3,1,-1,4,2
