timestamp,emg1,emg2,emg3,emg4,emg5,emg6,emg7,emg8
1558438312899851,0,2,7,1,1,4,-4,-1
1558438312899851,-5,-4,-11,-6,-7,-5,-5,-3
1558438312900848,-1,1,-2,1,-3,-8,-3,2
1558438312900848,0,2,1,-3,0,1,3,0
1558438312904837,-1,-1,1,-1,-1,-2,-2,0
1558438312904837,3,2,7,4,1,1,-3,-3
1558438312904837,-2,-1,-4,-8,-6,-3,0,-2
1558438312904837,2,4,3,2,5,2,0,0
1558438312914825,-7,-16,-24,-8,-6,-4,-1,-2
1558438312914825,0,-1,1,-1,4,0,1,-1
1558438312918802,2,-1,-1,1,4,0,-1,-3
1558438312918802,0,0,7,4,-2,-5,-1,0
1558438312934774,1,3,-1,-3,-1,-2,0,0
1558438312934774,-3,-1,-4,-3,-1,-5,2,0
1558438312942736,-3,1,7,1,-1,5,-4,-2
1558438312942736,-4,-5,-9,-2,-8,-8,-5,-4
1558438312948721,2,5,16,7,6,0,0,3
1558438312948721,-5,-8,-17,-9,-6,-6,0,-1
1558438312963680,-1,-2,-4,-2,4,6,2,-1
1558438312963680,0,-2,-1,0,-1,5,3,0
1558438312971658,0,5,3,1,-7,-9,-2,-2
1558438312971658,5,3,12,4,4,5,-2,2
1558438312978640,1,1,-4,-1,-4,-2,3,-1
1558438312978640,-2,-8,-14,-8,-5,-3,-3,-5
1558438313025514,0,1,8,4,0,4,3,1
1558438313025514,0,-2,-6,-5,-2,0,-1,-2
1558438313026512,-1,-2,-1,-1,-2,-3,0,1
1558438313026512,1,4,4,5,2,0,-2,-1
1558438313027509,2,3,-5,-8,-3,-2,-2,0
1558438313027509,-11,-9,-4,-2,-3,-3,-7,-2
1558438313030502,0,3,7,3,-1,-1,5,2
1558438313030502,1,-2,-19,-8,-2,-1,-4,-3
1558438313038481,-2,-1,3,4,1,0,1,-1
1558438313038481,2,0,5,3,-1,1,0,0
1558438313047457,-2,-5,-10,-3,4,5,0,1
1558438313047457,-1,5,10,2,0,-3,-2,1
1558438313061419,0,-1,0,-2,-1,-3,-4,-1
1558438313061419,-3,-5,-5,-2,-4,-3,3,-2
1558438313068402,0,3,2,2,0,2,-2,-3
1558438313068402,-1,0,3,-2,1,3,3,-1
1558438313075381,0,-5,-10,-3,-3,-4,-5,-1
1558438313075381,-2,2,4,1,-3,-8,-3,0
1558438313084357,-2,-2,-4,-3,-4,-5,-5,-4
1558438313084357,-1,-2,3,0,-2,0,-1,0
1558438313098320,-1,1,-1,-1,1,0,5,0
1558438313098320,3,1,-5,-2,0,0,-3,0
1558438313107296,1,0,-6,0,-2,-4,-1,-1
1558438313107296,-1,-1,-2,0,-2,-3,1,-1
1558438313113280,3,6,3,-3,-3,1,-6,-2
1558438313113280,-2,-6,-1,-1,0,4,7,1
1558438313128239,-3,-1,-11,-3,-3,-2,-5,-2
1558438313128239,1,0,5,0,2,3,1,0
1558438313136218,-1,-2,0,-1,-2,2,-5,0
1558438313136218,3,11,0,-1,-1,-3,4,0
1558438313144198,-4,-12,-6,-5,-5,-6,-7,-3
1558438313144198,0,-5,2,1,3,4,5,3
1558438313158159,-3,-3,-5,0,1,-2,0,1
1558438313158159,2,3,-1,1,0,5,-4,-2
1558438313167135,0,-2,8,4,0,-5,5,2
1558438313167135,0,0,-5,-4,-6,-10,-7,-3
1558438313173119,-2,-5,-5,-2,-2,2,0,-2
1558438313173119,1,0,-1,-2,0,-3,-4,1
1558438313188079,3,7,9,4,5,6,3,-1
1558438313188079,-4,-3,0,-2,-2,0,0,-2
1558438313196058,-3,-4,-8,-3,-3,-1,2,-1
1558438313196058,-1,-1,-1,-1,-1,-1,-4,-3
1558438313205049,2,3,5,-1,-1,1,3,1
1558438313205049,-4,-4,-4,-2,-1,-2,0,0
1558438313218034,-2,0,-4,0,-1,-5,3,-3
1558438313218034,0,-1,5,2,2,4,-3,1
1558438313226975,-1,-1,-3,-5,-4,1,-1,-2
1558438313226975,-1,0,2,-2,-1,1,-1,1
1558438313232971,3,0,3,-1,-1,-1,-2,-2
1558438313232971,-14,-10,-8,-1,-1,-2,-2,-4
1558438313247921,-1,-2,6,1,1,4,-2,-3
1558438313247921,-3,-2,-9,-6,-5,-2,-5,-3
1558438313255899,2,4,7,6,4,-3,5,0
1558438313255899,-4,-9,-1,-11,-2,-4,-2,2
1558438313264875,-3,1,-4,-2,-3,-4,-4,-1
1558438313264875,-1,-4,-1,1,-2,-2,-3,-2
1558438313277840,-3,-2,-8,-2,1,5,1,1
1558438313277840,5,5,8,4,-1,2,5,1
1558438313286816,1,4,4,0,2,-2,1,1
1558438313286816,2,0,-2,-1,0,-1,-3,2
1558438313292800,-3,-1,2,-1,-2,3,-1,1
1558438313292800,-4,-6,-7,-3,-6,-4,-8,-4
1558438313307759,-4,-5,-5,-4,-4,-5,-3,-2
1558438313307759,0,5,2,1,0,-4,0,-3
1558438313324715,-2,3,7,1,0,0,-4,-1
1558438313324715,3,-1,-4,-1,3,2,0,0
1558438313325712,3,5,3,1,-1,2,1,1
1558438313325712,-4,-1,13,3,4,5,1,0
1558438313338678,-9,-12,-29,-13,-9,-6,-7,-5
1558438313338678,0,3,-2,0,-3,-7,-2,0
1558438313346655,3,-1,1,-2,1,1,-1,-1
1558438313346655,-8,-7,-6,-2,-3,-2,-3,-1
1558438313353637,0,-2,1,0,0,-2,-2,1
1558438313353637,3,3,0,1,4,5,4,-1
1558438313368598,-1,-3,-3,-2,-2,0,-3,1
1558438313368598,4,5,1,1,-2,-2,2,0
1558438313375578,-1,0,4,-2,-1,-3,-6,-3
1558438313375578,-6,-7,1,-1,1,-3,2,-1
1558438313384556,-3,-1,-3,1,1,0,2,-1
1558438313384556,-1,-6,-9,-4,-3,1,-6,-2
1558438313398518,0,2,6,-1,-3,-4,-6,-2
1558438313398518,-1,0,-1,0,-4,0,1,-3
1558438313407494,-3,-4,1,0,1,2,-2,-2
1558438313407494,1,-3,-12,-2,-5,-4,5,2
1558438313413485,1,0,9,1,0,-3,-4,-1
1558438313413485,2,0,-4,1,-2,2,-3,-2
1558438313428438,-3,-3,-4,-3,3,0,1,1
1558438313428438,0,0,-2,-2,0,1,-3,-3
1558438313435420,2,3,14,5,2,5,-1,0
1558438313435420,-4,-6,-29,-11,-9,-9,-2,0
1558438313444395,1,2,4,2,1,-5,-3,-1
1558438313444395,1,-4,3,0,-1,2,0,1
1558438313458358,-3,-4,0,-1,-2,1,4,0
1558438313458358,4,7,16,4,4,0,0,-1
1558438313467333,-3,-6,-12,-9,-9,-8,-6,-1
1558438313467333,5,2,1,1,7,9,6,2
1558438313473317,-1,-1,3,0,-3,-3,1,-1
1558438313473317,-7,-5,-2,0,-2,0,-5,-5
1558438313488276,-1,0,-4,-1,-6,-5,-8,-4
1558438313488276,1,-2,-1,-1,1,4,0,0
1558438313495258,1,-1,-3,-1,-2,-6,2,0
1558438313495258,3,2,2,-1,-5,-6,0,1
1558438313511222,-3,0,-3,-1,1,-1,-3,-2
1558438313511222,-1,-2,9,1,-2,-7,-4,-2
1558438313518200,-3,-4,-9,-1,1,0,1,1
1558438313518200,0,-3,9,2,0,1,-1,-2
1558438313527173,2,4,15,7,0,4,0,2
1558438313527173,-8,-10,-31,-17,-12,-9,-6,-7
1558438313533159,-6,-3,-10,-4,-3,-4,-5,-4
1558438313533159,1,3,6,4,3,3,2,2
1558438313548117,1,-3,-1,-5,-2,3,2,0
1558438313548117,-2,1,6,8,0,-1,-3,-1
1558438313556108,-1,0,-1,-1,2,0,-1,-2
1558438313556108,0,2,3,-2,3,4,1,0
1558438313571056,0,-2,0,-1,-1,-3,0,0
1558438313571056,0,-2,-5,-2,-3,-6,-3,-2
1558438313578036,-2,-4,-6,-5,-4,-2,-4,-1
1558438313578036,0,0,3,0,3,3,2,0
1558438313587013,-3,-2,-5,-1,-1,0,0,1
1558438313587013,2,0,6,0,-1,-9,0,0
1558438313593994,0,1,-4,-4,-3,1,2,-1
1558438313593994,-1,-1,-1,0,2,1,-2,-1
1558438313607957,-3,-5,-7,-3,-3,-7,0,-2
1558438313607957,1,3,11,2,5,0,0,3
1558438313615936,0,3,15,6,2,4,-1,0
1558438313615936,-4,-12,-35,-14,-9,-10,-9,-4
1558438313638874,-5,-6,-8,-5,-2,3,-5,-2
1558438313638874,-2,4,-5,1,0,4,4,-1
1558438313639873,2,3,16,6,2,-5,1,1
1558438313639873,-2,-5,-3,-5,-1,3,-4,-1
1558438313646853,0,-1,-4,-2,-5,-2,2,-3
1558438313646853,-2,1,-1,-3,-5,-2,-4,-3
1558438313652836,2,-4,-5,-1,1,1,-7,-3
1558438313652836,0,5,16,5,4,0,1,1
1558438313667796,-3,-3,0,0,7,6,4,0
1558438313667796,-4,-2,-7,-2,-2,1,-1,-1
1558438313675776,-2,-1,-5,-3,-6,-3,2,-1
1558438313675776,2,5,4,-1,-5,-4,-4,0
1558438313690735,-2,-1,2,1,4,2,-1,-2
1558438313690735,4,3,5,0,-2,-6,-1,-2
1558438313698728,-8,-9,-9,-6,-1,1,-2,-3
1558438313698728,1,-2,-1,0,-2,4,3,-1
1558438313706693,3,5,8,4,4,5,3,0
1558438313706693,-1,-4,-10,-6,-8,-9,-9,-3
1558438313713674,-2,-1,-4,-1,0,2,4,2
1558438313713674,-3,2,3,2,2,-2,1,1
1558438313728633,-2,-1,3,-2,-6,-7,-7,-2
1558438313728633,1,0,11,5,1,4,4,1
1558438313735615,2,-3,-13,-5,0,2,-5,-3
1558438313735615,-2,0,1,0,0,-2,1,-3
1558438313750575,0,3,1,1,2,2,1,0
1558438313750575,-3,-6,-15,-6,-4,-2,-6,-3
1558438313758555,3,3,4,0,-2,-3,3,0
1558438313758555,0,0,5,2,1,2,3,0
1558438313767531,-4,-5,-8,-6,-5,-4,-3,0
1558438313767531,-4,0,1,1,1,-3,-4,-1
1558438313773514,4,4,6,3,4,4,2,3
1558438313773514,-1,-2,-3,-3,-2,-4,-5,-3
1558438313788473,0,-1,5,4,1,-2,2,-2
1558438313788473,-1,-5,-4,-3,1,5,5,-1
1558438313795454,-1,-4,-13,-3,-5,-4,-6,-5
1558438313795454,1,1,1,-1,-5,-7,-2,1
1558438313810415,2,0,-6,-2,-3,-4,0,1
1558438313810415,8,5,8,3,7,0,1,1
1558438313818393,-16,-12,-1,-1,-1,-1,3,-1
1558438313818393,1,-2,-1,1,2,2,4,-1
1558438313834350,0,1,5,-3,-5,-3,0,0
1558438313834350,-5,-3,-8,-4,-3,-1,-7,-4
1558438313841333,5,7,6,2,2,-1,-3,0
1558438313841333,-3,-5,-4,-1,-1,1,3,-2
1558438313848314,0,0,2,-2,0,-2,1,-1
1558438313848314,-5,-4,-5,-2,-5,-6,-5,-6
1558438313856294,-2,-2,-1,0,1,4,6,2
1558438313856294,-1,-1,-14,-6,-2,-6,-1,0
1558438313871255,3,-1,0,-1,0,0,-3,-2
1558438313871255,-3,-3,2,1,1,7,4,2
1558438313878238,0,1,3,-1,-1,-3,-6,-1
1558438313878238,2,2,11,5,0,-1,3,0
1558438313887213,-2,-3,-10,-6,-3,1,0,-1
1558438313887213,-1,-2,-4,-3,-1,0,-4,-3
1558438313901174,0,-4,-12,-7,-3,-7,-4,0
1558438313901174,1,1,5,3,1,1,-2,-1
1558438313908156,-2,-2,-4,-1,-2,-1,-6,-4
1558438313908156,-2,0,8,1,-4,-6,1,-1
1558438313916133,1,-1,3,1,0,-3,-4,-4
1558438313916133,1,1,-2,0,0,1,-2,0
1558438313931092,-1,-8,-6,0,4,5,2,0
1558438313931092,-3,1,-2,-2,-1,1,-2,-1
1558438313938079,-3,-5,-1,-2,-3,-1,-1,-3
1558438313938079,0,-1,1,-5,-6,-6,-5,-4
1558438313947051,-1,-1,4,1,1,3,2,-2
1558438313947051,2,2,-3,1,7,1,6,3
1558438313962015,3,7,7,1,1,0,-3,3
1558438313962015,-4,-6,-8,-2,-3,0,-3,1
1558438313967995,1,2,3,-2,-7,-8,-2,-2
1558438313967995,-1,-3,-2,0,-1,3,-1,0
1558438313975974,-2,-2,-7,-3,-4,-4,-1,-4
1558438313975974,-2,-1,-9,-3,-1,-2,2,0
1558438313990932,-1,-1,-3,-1,-2,-3,-3,0
1558438313990932,1,3,14,6,2,0,1,1
1558438313997916,2,-1,-2,0,-2,-1,2,-3
1558438313997916,1,2,6,0,2,1,-3,0
1558438314012886,-5,-5,-13,-6,-4,-2,0,-3
1558438314012886,-2,-2,0,-1,-4,-3,-3,-2
1558438314021856,1,1,1,2,5,5,-1,0
1558438314021856,1,0,6,0,0,-4,-1,-2
1558438314036819,3,7,4,2,3,0,0,1
1558438314036819,2,3,-2,-5,-4,-1,-6,-1
1558438314036819,-7,-8,2,-1,-5,-4,0,-2
1558438314036819,-2,-2,0,2,-1,3,-1,-4
1558438314050782,2,-1,-10,-4,-1,-2,2,0
1558438314050782,-7,-6,-4,1,-1,-4,-2,-2
1558438314058763,-1,4,6,0,-1,1,-3,-2
1558438314058763,0,7,2,0,0,0,0,0
1558438314073713,-3,-8,-10,-4,-1,-3,-6,0
1558438314073713,-1,0,-2,-4,0,2,5,-1
1558438314081690,-1,-2,-3,0,2,-5,3,1
1558438314081690,-3,-4,-2,-4,-5,-7,-3,-3
1558438314096650,-4,0,-1,-1,-3,0,-1,-3
1558438314096650,0,1,-2,-1,-1,1,1,3
1558438314096650,2,0,4,1,2,5,0,0
1558438314096650,-2,-3,-2,-3,-4,-2,-1,-1
1558438314110612,-3,-2,-1,-2,-2,0,-4,-3
1558438314110612,2,-1,8,3,2,2,2,0
1558438314118591,0,-2,-14,-3,-4,-9,-1,-1
1558438314118591,-1,-3,1,0,2,2,-2,-2
1558438314133552,-4,-1,3,-2,-2,0,-4,-2
1558438314133552,-1,0,-3,-3,-4,-1,-3,-2
1558438314141528,3,3,0,0,-3,-2,-5,-1
1558438314141528,-8,-6,-6,-2,0,3,3,2
1558438314156500,-1,-2,10,5,5,3,2,-1
1558438314156500,0,2,1,-2,-2,-2,-1,-4
1558438314157499,-3,-4,-9,-4,-5,-7,-3,0
1558438314157499,-2,-3,2,-3,-2,1,-1,-2
1558438314170464,3,5,3,3,1,0,-3,-1
1558438314170464,-2,-5,-2,-3,0,1,-1,-2
1558438314178442,1,3,1,-2,1,2,-1,-1
1558438314178442,-1,-1,2,-2,0,1,0,2
1558438314193401,-3,-2,-2,2,-3,-5,-2,-1
1558438314193401,-2,-2,-4,1,-1,2,-3,-5
1558438314201381,0,-3,-2,-2,-4,-3,-2,0
1558438314201381,2,3,-1,1,0,3,2,0
1558438314216335,0,-4,4,-1,1,-4,-1,0
1558438314216335,-3,-7,-18,-9,-6,-4,-1,0
1558438314217329,-1,-4,2,1,-2,3,-2,-2
1558438314217329,3,1,3,3,2,1,3,0
1558438314231301,-2,1,-4,-2,3,3,-4,-1
1558438314231301,2,4,9,2,-2,-3,3,-1
1558438314238281,-4,-2,-4,-2,2,2,0,-1
1558438314238281,1,1,1,-1,-2,-8,-2,-2
1558438314253333,1,5,-1,2,-1,2,0,1
1558438314253333,-3,-7,-4,-2,0,1,-2,-1
1558438314261251,1,1,4,-1,-1,-3,0,-2
1558438314261251,4,6,-7,-4,-2,-2,-2,1
1558438314276170,-9,-14,-2,-2,-2,-3,0,0
1558438314276170,-2,0,3,1,2,-2,0,-3
1558438314277169,2,-1,1,2,-2,3,2,1
1558438314277169,-4,-3,-3,-3,-2,-2,-9,-3
1558438314291130,1,5,0,-4,-2,3,3,-2
1558438314291130,-5,-6,-4,-1,-5,-4,-5,-1
1558438314298112,-2,2,-4,-2,3,-3,-1,-1
1558438314298112,2,1,0,-1,1,3,2,1
1558438314313071,-4,-1,-4,-3,-3,-3,-2,-1
1558438314313071,1,-1,-8,-1,0,-1,-1,0
1558438314321049,-1,1,4,0,-2,2,0,1
1558438314321049,-4,-2,2,0,-3,-4,-4,-1
1558438314337031,3,4,6,3,0,-2,8,2
1558438314337031,3,4,-7,-3,-2,-5,-5,-2
1558438314337031,-6,-9,0,-3,-2,-4,-1,-2
1558438314337031,-6,-9,-16,-5,-6,-5,-4,-5
1558438314350972,1,-1,-2,1,2,-2,-1,1
1558438314350972,2,1,2,2,1,5,0,0
1558438314357963,1,3,-1,-2,-2,0,-2,1
1558438314357963,-4,-6,2,1,-1,-2,-3,-3
1558438314372914,2,2,3,-2,-2,-2,-3,-2
1558438314372914,-6,-3,0,0,-1,-2,-1,-1
1558438314381886,1,-1,0,-1,-2,2,-4,-2
1558438314381886,0,1,-1,1,-1,-5,5,1
1558438314395848,1,0,-6,-4,1,2,5,1
1558438314395848,2,2,6,0,2,4,5,5
1558438314396846,0,-1,1,2,4,3,5,0
1558438314396846,-3,-3,-5,-3,-4,-5,-10,-3
1558438314411811,-1,-2,-2,-3,-8,-4,-4,-2
1558438314411811,-2,1,9,1,0,1,2,0
1558438314418790,-3,-1,-10,-4,-4,-2,1,-5
1558438314418790,0,2,16,5,4,3,2,2
1558438314442737,-3,-5,-26,-10,-4,-3,0,-3
1558438314442737,-5,-1,0,-4,-5,-9,1,-1
1558438314448718,1,0,4,2,-1,-5,-4,0
1558438314448718,-1,-2,-8,-5,-3,1,-2,-1
1558438314456797,-1,1,11,2,2,3,-4,0
1558438314456797,4,1,7,5,1,2,0,0
1558438314457689,-2,0,-14,-5,-3,-2,0,-1
1558438314457689,-4,-7,0,-1,3,1,0,0
1558438314470754,1,-3,0,1,-1,-2,-2,0
1558438314470754,0,1,1,0,0,-4,-4,-2
1558438314478640,-1,0,-5,-5,-2,-3,-2,-1
1558438314478640,-3,-4,-3,0,-5,-3,-2,-1
1558438314493715,-3,-1,0,-2,-1,0,-3,-2
1558438314493715,-2,-4,-2,1,2,3,0,-1
1558438314501672,1,2,6,0,3,1,-1,-1
1558438314501672,2,4,1,-1,2,0,3,-1
1558438314516528,-7,-7,-8,-5,-3,-1,-1,-2
1558438314516528,0,-2,0,-1,-3,0,-1,0
1558438314517526,-1,-4,0,0,-1,-4,-5,1
1558438314517526,1,1,-6,-5,-1,-1,2,3
1558438314530493,2,5,9,2,0,-5,-1,-1
1558438314530493,-5,-6,-14,-6,-5,-1,-2,-3
1558438314538471,-2,-2,0,0,-1,-3,0,-1
1558438314538471,1,-1,-10,-4,2,9,6,-1
1558438314553428,-10,-3,10,4,2,2,0,-3
1558438314553428,0,0,-11,-5,-4,-7,-1,-4
1558438314560408,-3,-2,12,1,-6,-5,-2,0
1558438314560408,-2,-2,-14,-6,-1,4,-3,-4
1558438314576365,4,2,3,4,-2,0,-2,0
1558438314576365,0,-3,1,-5,-4,-7,-5,-3
1558438314577363,-6,-6,-10,-2,-1,4,0,-2
1558438314577363,1,4,7,2,2,-2,-3,-2
1558438314590329,2,2,-5,-1,-1,-3,-2,1
1558438314590329,-1,-4,6,1,1,0,-2,1
1558438314598309,-2,-7,1,-1,-2,-2,-4,1
1558438314598309,0,2,4,2,-2,-3,4,0
1558438314613632,4,-1,-10,-4,-1,0,-3,0
1558438314613632,-3,1,2,1,0,4,1,0
1558438314621562,-1,1,0,-2,0,-1,4,0
1558438314621562,-5,-5,-3,1,-3,-4,-8,-4
1558438314637232,0,0,0,0,-1,-2,-1,-2
1558438314637232,3,6,1,-1,1,2,1,0
1558438314637232,-1,-5,-2,-2,-1,0,-1,-3
1558438314637232,-1,-4,-2,-2,-7,-6,-4,-2
1558438314652185,-1,-1,2,-1,-3,0,-2,-2
1558438314652185,3,1,3,3,4,1,3,2
1558438314658181,2,5,-1,0,6,8,6,2
1558438314658181,0,1,2,-1,-1,-5,-1,-1
1558438314674108,-4,-5,-6,-4,-5,-6,-5,-2
1558438314674108,-2,2,13,4,-3,-5,-2,0
1558438314681102,3,3,-8,2,-1,-4,-2,1
1558438314681102,-2,0,-10,-4,0,7,1,-1
1558438314697122,1,-3,7,1,4,3,2,0
1558438314697122,-1,-3,-5,-3,-1,-8,-4,-1
1558438314697122,1,-1,-5,-4,-4,-2,0,-2
1558438314697122,-1,-1,3,1,-1,-4,-4,1
1558438314711307,-3,-4,-4,0,-3,-5,0,-1
1558438314711307,2,6,3,-1,1,1,1,0
1558438314717998,-1,1,3,2,1,2,-4,-2
1558438314717998,-5,-4,-4,0,1,2,1,0
1558438314742022,-2,2,1,-2,-1,3,9,-1
1558438314742022,-1,-4,0,2,-2,-4,-1,-1
1558438314742022,0,1,-4,-3,-4,-3,-1,-3
1558438314742022,4,2,4,1,2,2,0,1
1558438314755893,1,-2,0,0,1,3,-3,0
1558438314755893,-4,-4,-14,-5,-3,1,-3,-1
1558438314771844,-1,-4,-1,-2,-4,-2,2,0
1558438314771844,0,1,10,0,-2,-2,-4,0
1558438314773837,-1,1,-6,-3,-1,-4,-4,-2
1558438314773837,1,2,-4,0,-1,-2,0,-1
1558438314779166,-6,-10,-1,-3,-1,-1,-5,-2
1558438314779166,1,3,17,7,0,-1,2,-1
1558438314794130,-2,-3,-18,-5,0,3,-1,0
1558438314794130,0,3,10,0,-1,1,-4,1
1558438314801089,-1,-2,-7,-2,2,3,1,-3
1558438314801089,-4,-5,-19,-7,-4,0,-1,-5
1558438314815728,-1,-1,6,0,1,-5,-3,0
1558438314815728,-3,-3,0,-1,-5,-3,-2,-1
1558438314824717,-1,0,8,5,1,3,-4,-2
1558438314824717,3,1,9,3,1,-1,0,1
1558438314830986,-4,-3,-5,-5,-5,-8,-6,0
1558438314830986,3,5,1,-1,3,9,8,2
1558438314838698,-2,0,-3,-3,-3,-1,4,-2
1558438314838698,-4,-10,-4,-3,-1,4,2,-3
1558438314853832,1,-1,0,1,-1,-3,2,0
1558438314853832,-7,-6,-9,-4,-7,-12,-8,-4
1558438314860643,1,2,1,0,0,-1,-1,-2
1558438314860643,-1,2,-4,-2,-1,-3,-3,-2
1558438314875652,-1,-2,5,2,2,0,2,0
1558438314875652,3,0,-3,1,4,2,1,0
1558438314884740,-7,-5,2,1,-2,-3,-5,-2
1558438314884740,2,3,-4,1,2,-1,1,-1
1558438314892528,-3,-2,5,0,1,0,-2,-1
1558438314892528,0,-3,-10,-7,-2,1,-4,-4
1558438314898509,1,-1,-2,-4,-3,-7,-5,1
1558438314898509,-2,-2,-5,0,-1,-5,4,2
1558438314913673,4,7,12,2,0,3,-2,0
1558438314913673,-2,-5,-9,-4,-4,-4,1,-3
1558438314921463,-3,-5,-6,-2,-4,-6,8,-1
1558438314921463,-5,-3,-2,-1,-4,0,-18,-4
1558438314936448,2,5,1,1,6,12,6,0
1558438314936448,-1,0,10,2,1,3,1,0
1558438314944595,0,1,1,-1,-2,-3,3,-1
1558438314944595,1,-2,-3,-5,-4,-9,0,1
1558438314959547,-3,-1,-5,-1,0,-4,-3,-2
1558438314959547,1,4,2,0,-1,2,-2,1
1558438314959547,0,2,1,0,3,4,1,3
1558438314959547,-1,-8,-3,-2,3,5,1,0
1558438314973308,0,-1,-3,-2,-3,-3,-4,-2
1558438314973308,-5,-1,-1,3,3,-1,1,-2
1558438314980288,0,-1,-1,-1,-3,-6,-6,-1
1558438314980288,4,4,6,-1,-3,-1,1,1
1558438314995246,-3,-4,0,-1,-7,-1,-4,-3
1558438314995246,0,-2,6,4,3,4,5,3
1558438315004485,2,2,-6,-6,3,4,0,0
1558438315004485,-4,-2,-8,0,-2,-1,-4,-3
1558438315019515,1,-2,-2,-3,-6,-7,2,1
1558438315019515,0,0,-5,-5,-4,0,-3,-2
1558438315019515,5,3,6,2,6,6,6,3
1558438315019515,1,2,3,0,0,-3,-7,2
1558438315034199,-3,-3,-2,1,-1,0,-1,0
1558438315034199,-6,-7,5,3,-4,-7,-4,-2
1558438315041444,0,-1,-3,0,0,1,1,0
1558438315041444,-3,-3,0,-2,3,2,6,-1
1558438315056412,2,1,5,1,0,-2,0,0
1558438315056412,2,-3,-6,-2,-1,3,-1,-2
1558438315072125,-3,-7,-6,-3,-4,-6,-3,-2
1558438315072125,0,2,3,0,0,-1,-1,0
1558438315079229,4,3,0,1,-3,-3,-7,-3
1558438315079229,-10,-7,2,3,0,-3,-3,-3
1558438315080031,-5,-7,-14,-7,-8,-5,-7,-5
1558438315080031,1,2,3,6,3,4,6,5
1558438315094031,-4,-8,-25,-11,2,4,1,-9
1558438315094031,3,4,-8,-4,-3,0,-2,-1
1558438315100967,0,3,12,4,-1,0,-1,-4
1558438315100967,-3,-3,-7,-3,-7,-10,-4,0
1558438315115928,1,6,9,3,-3,-6,-4,2
1558438315115928,-1,-3,-6,-3,-1,-1,-1,0
1558438315123908,2,4,11,6,5,3,3,1
1558438315123908,-1,-4,-6,-5,-2,-2,2,-2
1558438315138870,0,0,3,3,1,1,2,4
1558438315138870,1,2,1,0,-4,-1,-5,-3
1558438315139862,0,0,-3,-2,-1,-1,-6,-2
1558438315139862,-3,-8,-3,-2,-2,2,0,-3
1558438315152868,-1,3,19,9,5,2,3,3
1558438315152868,-4,-11,-27,-12,-3,-1,-2,-2
1558438315160844,1,2,2,-2,-1,-1,0,1
1558438315160844,0,4,-5,-3,-1,-5,1,-2
1558438315175762,0,0,0,-1,-5,0,-6,-4
1558438315175762,0,-1,23,8,2,-1,0,2
1558438315183769,1,3,-12,-2,7,7,2,0
1558438315183769,-2,-2,-5,-10,-6,-2,-8,-5
1558438315198701,-5,-10,-11,-6,-3,-3,-4,0
1558438315198701,1,9,1,-1,-2,0,0,-3
1558438315199699,0,3,13,5,-3,-3,1,1
1558438315199699,-1,-1,0,1,4,0,-3,6
1558438315212663,-4,-3,-4,-3,-4,0,6,-6
1558438315212663,-1,-3,6,3,5,4,-2,-3
1558438315220644,-2,-6,-24,-15,-9,-4,-3,1
1558438315220644,-9,-3,10,5,1,5,0,-5
1558438315236633,2,-4,-10,-5,-2,-5,-5,-3
1558438315236633,-4,1,9,4,2,3,2,-1
1558438315244673,-3,2,-15,-4,-3,-3,0,0
1558438315244673,-4,-10,-7,-5,-3,-5,1,-1
1558438315259629,-5,-7,-3,0,1,2,-1,1
1558438315259629,6,2,3,-2,-3,-4,-3,0
1558438315259629,0,1,11,3,5,-1,-2,-1
1558438315259629,-2,1,4,3,-2,-1,-2,-3
1558438315273848,3,3,12,5,1,-3,0,-3
1558438315273848,0,-4,-19,-7,-4,2,3,1
1558438315280784,-6,-16,13,5,-2,0,-1,0
1558438315280784,8,13,4,1,5,7,3,-1
1558438315296442,-9,-13,-29,-15,-11,-5,-4,-5
1558438315296442,4,10,9,4,1,-4,-3,1
1558438315304635,-8,-13,-7,-2,-2,-6,-8,-5
1558438315304635,1,3,-10,-5,-1,-1,2,-2
1558438315319566,0,-3,13,4,5,5,4,3
1558438315319566,-2,0,-1,0,-1,3,2,1
1558438315319566,3,0,18,2,-5,-5,-8,-1
1558438315319566,-2,-11,-19,-6,-3,-7,7,4
1558438315333345,5,16,-3,-3,1,2,-2,0
1558438315333345,2,-7,-4,1,-2,-3,2,1
1558438315341436,-7,1,9,4,1,1,-3,-2
1558438315341436,1,-1,-6,-4,-6,-5,-10,-7
1558438315356281,-2,5,12,1,-2,-3,-1,-1
1558438315356281,-3,-6,-18,-6,2,0,2,-1
1558438315364267,5,6,24,8,9,10,2,3
1558438315364267,-6,-2,-37,-18,-10,-5,0,-2
1558438315379426,5,3,3,3,-1,-5,2,3
1558438315379426,-2,3,10,2,-1,0,0,2
1558438315379426,1,0,-2,2,1,0,-6,-3
1558438315379426,-1,5,20,6,3,2,-2,-3
1558438315393181,0,-2,1,-1,-3,-5,-6,-4
1558438315393181,-4,-4,-3,-1,4,-1,3,0
1558438315401160,1,3,-14,-5,0,1,3,-2
1558438315401160,7,11,28,12,0,0,6,2
1558438315416392,-4,-9,-3,-4,-2,-1,-13,-3
1558438315416392,-4,-9,-22,-12,-9,-10,-6,-3
1558438315424421,0,-1,-5,-2,-3,2,1,-1
1558438315424421,2,1,7,6,2,-2,0,2
1558438315439393,-4,-8,-17,-7,-5,-3,-4,0
1558438315439393,0,3,9,-1,-2,-5,0,-2
1558438315440056,-12,-15,-41,-12,-10,-5,1,-5
1558438315440056,2,-6,9,4,4,2,-5,-5
1558438315453372,-6,-9,5,2,-1,-3,0,-1
1558438315453372,8,6,33,16,8,8,-1,2
1558438315461360,0,3,-31,-11,-6,-8,-3,0
1558438315461360,-2,-7,-3,0,-2,3,6,1
1558438315476329,7,13,15,11,8,6,8,4
1558438315476329,-6,-3,-27,-16,-6,-3,-11,-5
1558438315484274,-1,-2,30,7,-2,-3,0,-2
1558438315484274,-19,-35,-44,-13,-11,-8,-9,-5
1558438315498899,4,1,7,5,3,4,1,0
1558438315498899,-2,-2,6,-1,0,-2,3,-1
1558438315499896,-1,4,5,3,4,2,4,0
1558438315499896,6,11,17,6,3,1,-4,1
1558438315514038,-3,-3,1,-7,-5,1,5,1
1558438315514038,-3,-5,-14,-2,1,-3,-1,1
1558438315521109,7,9,31,9,3,4,4,3
1558438315521109,-3,-5,-41,-15,-9,-4,-7,-4
1558438315536019,-4,0,9,2,-3,-6,-7,-2
1558438315536019,-3,-4,-5,-6,-5,-6,3,0
1558438315544778,2,2,5,0,2,3,2,-3
1558438315544778,2,1,-9,-2,2,2,-4,2
1558438315558743,-1,4,-16,-7,-1,3,3,-1
1558438315558743,-3,-7,3,0,-3,-1,-5,-2
1558438315559738,-3,-7,11,7,0,0,2,-1
1558438315559738,3,19,30,12,5,0,-5,-1
1558438315573903,-15,-32,-20,-13,-3,-1,-5,-8
1558438315573903,0,2,-18,-7,-7,-8,3,1
1558438315580688,-2,-5,-16,-9,-4,-1,-6,-3
1558438315580688,1,-2,1,-4,2,2,2,0
1558438315595641,2,6,14,6,1,-5,-3,0
1558438315595641,3,3,-3,3,-2,-2,-4,-1
1558438315603619,-1,-4,-10,-3,-5,-2,-7,-1
1558438315603619,0,4,9,-2,2,1,1,1
1558438315618578,1,8,6,2,0,3,0,1
1558438315618578,-1,-5,13,6,4,6,10,0
1558438315619576,-4,-9,-43,-16,-7,-9,-6,-3
1558438315619576,4,7,27,9,7,8,2,1
1558438315633540,0,4,-3,0,1,1,4,-1
1558438315633540,-8,-8,-29,-13,-9,-4,-5,-2
1558438315641600,7,5,11,3,4,0,-3,4
1558438315641600,1,0,8,1,0,1,1,3
1558438315656342,-7,-10,-1,-1,-5,-8,-3,-2
1558438315656342,4,8,21,9,6,12,5,0
1558438315664250,-6,-3,2,-5,-4,-4,11,0
1558438315664250,-8,-15,-37,-9,-4,-5,-12,-8
1558438315678316,-1,3,-7,-3,-2,2,3,0
1558438315678316,1,-1,-1,-3,-3,-2,-15,-6
1558438315687103,-3,3,25,10,4,-1,0,1
1558438315687103,0,2,21,2,-4,-3,0,-1
1558438315693946,-3,-9,-39,-14,-5,-5,-3,-5
1558438315693946,0,-5,-24,-9,-2,-5,-1,1
1558438315700926,-3,-4,-3,2,-1,2,-1,-1
1558438315700926,1,12,2,-2,-7,-5,-3,-1
1558438315725104,1,-4,14,6,2,3,10,7
1558438315725104,1,3,20,8,8,5,-5,0
1558438315725104,-2,-5,-4,-1,-1,-2,-1,-3
1558438315725104,-2,0,1,-3,2,-2,5,0
1558438315738824,6,11,5,3,0,4,-7,-3
1558438315738824,-9,-8,-12,-6,-9,-6,-1,-3
1558438315747138,-4,-4,-25,-11,-2,1,5,0
1558438315747138,-1,-2,1,0,2,3,4,0
1558438315753315,9,14,20,7,7,9,6,4
1558438315753315,0,0,10,4,1,-7,-7,-1
1558438315761279,-1,2,-9,-4,-1,0,-3,-3
1558438315761279,-1,-6,-2,-2,-4,-1,0,-2
1558438315776262,-4,-2,2,-4,-5,-2,-6,-2
1558438315776262,9,11,9,5,4,2,3,3
1558438315784214,-4,-5,10,4,0,-6,-2,1
1558438315784214,4,8,3,-1,1,4,-3,1
1558438315797969,-10,-14,-4,0,2,1,3,-3
1558438315797969,-3,-6,-3,-8,-7,0,-4,-5
1558438315805950,1,-2,-10,-6,-4,-3,-1,0
1558438315805950,-2,-8,-25,-10,-8,-6,-12,-6
1558438315812930,-8,-5,12,7,1,1,12,4
1558438315812930,0,3,0,-1,-1,-2,-2,-4
1558438315820905,-1,2,0,-4,0,2,-4,-1
1558438315820905,2,2,14,3,-2,-6,0,0
1558438315835865,4,1,-8,-1,4,5,2,1
1558438315835865,1,2,7,3,2,3,2,1
1558438315843843,3,6,-10,-4,0,2,5,0
1558438315843843,-8,-7,14,3,-3,-8,-5,-3
1558438315858026,-5,-6,-21,-10,-4,-9,-7,-2
1558438315858026,-2,-1,-2,-2,-3,-1,3,1
1558438315867102,-1,-4,4,1,1,0,-8,-1
1558438315867102,5,2,8,4,0,3,15,4
1558438315881743,-1,3,3,4,4,2,-7,-3
1558438315881743,-6,-6,3,2,-1,-15,-14,-5
1558438315881743,-4,-18,-37,-16,-12,-6,-4,-4
1558438315881743,-4,2,-1,2,4,6,1,1
1558438315896072,2,-11,-6,-10,-6,-2,-3,0
1558438315896072,3,6,2,2,5,6,11,2
1558438315904051,3,5,16,6,3,-2,-7,0
1558438315904051,-2,-6,-13,-2,-2,-6,6,2
1558438315919138,3,9,13,5,-6,-6,-2,-1
1558438315919138,0,7,6,4,4,11,0,1
1558438315927106,-2,-1,-12,-6,-2,1,2,-1
1558438315927106,-1,-6,-13,-7,2,1,4,1
1558438315941935,-2,4,2,0,-2,-6,-5,-1
1558438315941935,0,-4,-8,-6,-9,-6,-8,-4
1558438315941935,7,16,38,16,16,12,21,7
1558438315941935,-11,-12,-18,-5,-8,-8,-15,-7
1558438315956571,0,-8,-12,-6,1,1,-1,-4
1558438315956571,-2,-1,4,-1,4,1,5,3
1558438315963779,9,15,18,4,-3,-3,-8,1
1558438315963779,-6,-5,6,0,0,6,2,-3
1558438315987467,2,4,2,-2,-7,-11,-11,-2
1558438315987467,0,-9,-15,-5,2,6,8,2
1558438315987467,-4,-3,3,1,-2,-4,-7,-2
1558438315987467,8,8,4,4,2,-3,-2,0
1558438316001641,-12,-20,-11,-10,-7,-4,-6,-7
1558438316001641,5,3,21,9,5,4,2,2
1558438316002423,1,-1,-12,-2,-2,1,12,2
1558438316002423,5,12,11,1,0,-1,-8,1
1558438316015389,-5,-4,-12,-6,-7,-6,-11,-4
1558438316015389,-3,-5,-4,-4,-7,-6,-5,-4
1558438316023394,-3,-8,5,1,-1,2,2,-4
1558438316023394,0,13,8,4,8,8,4,0
1558438316038325,2,-5,14,10,11,5,9,4
1558438316038325,-6,-5,-20,-13,-8,-7,-9,-3
1558438316046800,-3,-4,-5,-3,-2,0,-1,-3
1558438316046800,-6,-12,-11,-8,-12,-10,-4,-4
1558438316061786,4,12,-4,-3,-4,-5,-3,-1
1558438316061786,4,6,17,11,7,6,-1,5
1558438316062272,-2,-2,-23,-8,-5,-3,4,0
1558438316062272,-2,-13,-2,-1,2,-1,-6,-3
1558438316076535,-1,5,-3,-2,-2,1,0,-4
1558438316076535,-2,1,0,1,-1,-5,-5,-4
1558438316084522,0,4,-3,-4,-2,-5,-4,-2
1558438316084522,0,-2,-3,-2,-2,-3,-3,-1
1558438316098167,3,9,21,8,2,2,6,1
1558438316098167,6,9,15,7,-1,2,7,2
1558438316107208,-10,-8,-28,-10,-2,-7,-20,-5
1558438316107208,-13,-24,-12,-3,0,3,1,-4
1558438316122130,6,13,41,14,9,3,2,5
1558438316122130,-14,-26,-62,-29,-20,-17,-6,-11
1558438316122130,3,5,17,10,4,7,-1,-1
1558438316122130,4,2,5,1,-3,-4,0,0
1558438316136391,-1,2,-11,-5,-1,-4,6,-2
1558438316136391,0,7,19,4,5,8,-1,0
1558438316144042,-1,-3,13,5,1,-5,-7,-3
1558438316144042,3,4,1,-8,-3,1,4,0
1558438316158326,-5,-11,-35,-12,-3,-3,2,-1
1558438316158326,-3,-5,9,2,-2,-8,1,0
1558438316166012,0,1,7,3,4,2,-1,2
1558438316166012,-1,-2,1,-1,-2,0,3,0
1558438316180945,-5,-4,1,-4,-5,-2,-9,-3
1558438316180945,-1,0,-9,-2,3,5,6,2
1558438316181942,-3,-7,7,2,-3,-4,-7,-4
1558438316181942,-3,-6,1,1,-3,-2,-3,-3
1558438316196232,4,10,0,0,5,-1,2,2
1558438316196232,-1,-8,-6,-4,0,1,3,-1
1558438316203981,-2,-5,-12,-7,-6,0,10,2
1558438316203981,2,12,31,12,1,-5,-8,0
1558438316217846,-6,-17,-53,-20,-13,-6,-9,-6
1558438316217846,-5,-2,2,5,4,5,2,1
1558438316226819,2,2,-4,-4,-3,-1,-6,-2
1558438316226819,-3,-3,-3,-4,-3,-2,-1,-2
1558438316241779,-4,-12,5,5,0,0,3,-1
1558438316241779,0,5,20,5,2,6,1,-2
1558438316241779,1,-4,-14,-7,-5,1,2,0
1558438316241779,5,8,-1,-1,4,-14,4,4
1558438316255742,-2,5,16,10,5,1,-6,-3
1558438316255742,-3,-8,-13,-5,-9,-6,-4,-4
1558438316263720,-6,-15,-14,-5,-3,-4,-3,-6
1558438316263720,-5,-2,-11,-6,0,7,1,-2
1558438316278732,3,7,21,5,0,3,5,3
1558438316278732,3,0,-24,-13,0,-3,-8,-2
1558438316286903,-1,5,3,-1,-2,-3,-3,-4
1558438316286903,2,3,11,2,0,-1,1,1
1558438316301915,-5,-15,-29,-10,-3,1,-3,-3
1558438316301915,4,7,28,12,1,1,6,3
1558438316301915,4,10,8,4,3,1,-2,1
1558438316301915,2,4,2,-2,-3,-2,2,-1
1558438316315583,-10,-20,-17,-10,-8,1,-11,-6
1558438316315583,-7,-14,-6,-4,-9,-10,-7,-4
1558438316324590,-6,0,6,3,5,-1,2,0
1558438316324590,6,5,-6,-3,1,4,4,0
1558438316338783,6,15,16,8,5,4,6,3
1558438316338783,-4,-4,11,4,0,-1,-4,-4
1558438316346760,-3,-6,-13,-11,-8,-9,-2,0
1558438316346760,8,2,-8,0,3,4,0,-1
1558438316361712,-1,-1,8,-1,-1,-2,3,-1
1558438316361712,-4,-2,-27,-11,-3,1,-5,-3
1558438316362460,-5,-5,12,6,-6,-3,-8,-4
1558438316362460,0,0,-2,-2,3,-1,3,1
1558438316376515,3,0,-3,-1,5,6,1,2
1558438316376515,1,5,7,3,1,0,2,-4
1558438316383668,6,8,7,6,5,6,2,1
1558438316383668,-8,-13,-13,-6,-6,-3,-3,-4
1558438316398364,1,0,-18,-5,-6,-7,-8,-3
1558438316398364,1,10,13,6,1,2,-1,-1
1558438316406591,-4,-10,-20,-11,-5,0,2,0
1558438316406591,-1,-8,0,1,-2,3,-3,-1
1558438316421339,2,9,15,5,9,6,7,2
1558438316421339,1,-6,4,-1,1,-5,-7,2
1558438316422297,4,10,14,5,2,0,4,1
1558438316422297,-10,-12,-34,-11,-5,2,-1,-5
1558438316435263,-4,-4,-2,-4,-7,-1,-4,1
1558438316435263,4,-2,3,3,-3,-1,-3,-1
1558438316443241,-4,3,17,3,3,1,2,-1
1558438316443241,-1,2,-8,-3,0,-2,-4,-2
1558438316458535,-3,-1,5,0,-1,-2,0,0
1558438316458535,-1,1,-6,-5,-4,-4,-4,-3
1558438316467246,5,18,31,12,13,8,5,5
1558438316467246,-2,-7,-12,-5,-3,-4,-1,1
1558438316481138,-5,-10,-8,-5,-8,-6,3,-3
1558438316481138,-4,-6,-23,-12,-5,-2,-13,-6
1558438316482137,-3,-14,-21,-10,-10,-6,4,-2
1558438316482137,1,7,22,9,5,-2,-3,-1
1558438316497260,3,8,6,2,1,-1,-1,1
1558438316497260,1,4,18,6,3,-1,0,1
1558438316503410,1,2,0,1,-2,-3,1,-3
1558438316503410,-3,-8,-2,0,6,10,3,3
1558438316518375,3,6,15,4,3,1,-3,1
1558438316518375,-5,-7,-19,-7,-3,-5,-1,-1
1558438316527217,5,14,17,10,1,0,-7,-2
1558438316527217,-9,-24,-43,-19,-16,-11,-1,-4
1558438316542169,1,-4,6,5,5,2,-1,-2
1558438316542169,2,-1,-11,-6,-2,0,5,1
1558438316542169,-5,-4,-8,-9,-10,-10,-11,-7
1558438316542169,7,17,25,12,7,5,-1,2
1558438316556157,-9,-17,-2,1,1,-2,7,1
1558438316556157,-2,-1,-10,-5,-1,1,5,0
1558438316563964,1,-4,-11,-2,0,0,0,1
1558438316563964,-8,4,8,4,-1,-3,-3,0
1558438316578945,1,1,-6,-3,-6,0,-3,-1
1558438316578945,2,1,12,4,1,1,1,2
1558438316587092,3,-2,1,2,5,5,6,0
1558438316587092,7,11,25,8,4,1,3,3
1558438316601038,-8,-8,-57,-25,-12,-6,-16,-9
1558438316601038,-5,-4,6,0,-4,-4,0,-1
1558438316609020,-5,-8,-14,-6,-4,-5,-8,-3
1558438316609020,2,5,21,3,6,2,7,0
1558438316615779,-3,1,1,-2,-7,-4,-6,-3
1558438316615779,0,-5,13,8,4,6,3,-3
1558438316622918,4,0,-17,-12,-2,-3,2,2
1558438316622918,-3,-3,3,3,0,-1,-2,-2
1558438316638934,-5,-4,8,5,7,1,4,1
1558438316638934,-4,6,-4,-3,-1,0,1,0
1558438316654719,0,-7,16,6,4,2,-3,1
1558438316654719,0,-6,-12,-3,-4,-3,-5,-4
1558438316660659,4,4,2,5,-2,-3,-4,0
1558438316660659,-2,1,-5,-6,-3,0,0,-3
1558438316669045,-4,-13,1,-2,-1,1,9,2
1558438316669045,-1,8,5,1,-3,-1,-12,-3
1558438316676009,0,-5,-5,0,6,-1,5,4
1558438316676009,-3,2,2,3,1,3,-6,-3
1558438316684010,0,0,-11,-5,-3,-2,1,2
1558438316684010,-2,-4,-15,-7,-6,-3,-2,1
1558438316698571,4,7,17,4,1,1,5,1
1558438316698571,4,4,18,7,-1,-2,1,1
1558438316706886,-11,-7,-31,-15,-8,-9,-16,-9
1558438316706886,0,-2,3,1,2,5,4,1
1558438316721510,6,12,20,6,9,5,0,3
1558438316721510,-3,-6,-18,-7,-1,-3,2,0
1558438316729601,-2,-8,6,0,-5,-3,-1,-2
1558438316729601,-3,-7,-9,-3,-4,-2,-2,-4
1558438316744535,-7,-10,-16,-8,-9,-5,-6,-5
1558438316744535,5,7,3,2,2,2,8,3
1558438316744535,4,14,31,12,7,-7,4,-1
1558438316744535,-3,-10,-7,-4,1,-1,0,-1
1558438316758666,-2,-3,-25,-13,-10,-4,-3,-1
1558438316758666,0,-4,0,0,-2,-1,-5,-3
1558438316766648,-5,-3,0,1,-1,-1,5,0
1558438316766648,4,2,6,1,-2,-1,-8,-1
1558438316780609,-11,-5,15,7,5,4,4,-1
1558438316780609,1,7,-10,-4,0,0,-6,0
1558438316789555,-2,-3,-6,-5,-3,0,-1,-3
1558438316789555,-1,0,8,2,6,4,7,2
1558438316804558,6,7,9,3,-4,-4,-15,-3
1558438316804558,-2,-6,-12,-3,1,-1,-2,0
1558438316804558,3,1,-2,0,2,3,9,3
1558438316804558,-8,-6,-16,-8,-3,-2,-3,-2
1558438316818498,2,6,16,1,1,0,-3,-2
1558438316818498,4,2,17,5,-2,-2,-1,0
1558438316827214,-2,-7,-21,-4,1,5,4,2
1558438316827214,1,21,18,8,2,2,-5,-2
1558438316841450,0,-5,-3,-4,-1,-2,6,0
1558438316841450,-8,-10,-20,-8,-4,-5,-5,-3
1558438316849157,2,7,10,5,-1,-1,-4,-2
1558438316849157,-3,-9,-6,-5,-4,-6,1,-3
1558438316864124,-1,-2,-1,2,-1,0,1,0
1558438316864124,1,2,11,4,2,1,1,1
1558438316864124,-1,-7,-4,-5,-5,-2,-10,-3
1558438316864124,4,10,15,3,-1,-3,-6,2
1558438316878420,9,6,-17,-2,4,7,6,1
1558438316878420,-13,-17,-13,-5,-2,-4,1,-1
1558438316886393,-7,2,5,4,3,5,6,-2
1558438316886393,0,-1,0,0,-3,-4,-2,-3
1558438316910286,-4,-11,-10,-10,-7,-9,-5,0
1558438316910286,3,5,6,-1,-6,-4,-5,-1
1558438316910286,-2,-1,-7,-2,0,0,-4,1
1558438316910286,0,6,-1,2,0,-4,5,-2
1558438316923992,3,2,10,4,3,3,2,1
1558438316923992,-2,4,-4,-2,2,4,5,1
1558438316924952,1,3,16,3,-2,-1,-2,0
1558438316924952,-2,-14,-26,-10,-6,-10,-6,-3
1558438316947892,-5,-2,-5,-3,-4,-6,-5,-2
1558438316947892,0,-3,2,1,-1,2,2,-1
1558438316948888,3,7,22,9,1,0,2,0
1558438316948888,-7,-9,-29,-13,-6,-6,-8,-2
1558438316961199,-3,2,-2,-2,-4,0,-6,-7
1558438316961199,-5,-8,-4,-3,-2,-2,-3,-4
1558438316969171,1,-1,19,5,1,0,-2,-1
1558438316969171,3,1,-6,-1,2,1,9,3
1558438316984076,4,8,1,2,-1,-4,1,1
1558438316984076,-3,-3,-9,-8,0,5,-1,-1
1558438316984793,0,-5,-9,2,-1,-7,-2,-2
1558438316984793,-13,-12,7,0,1,4,-4,-4
1558438316997760,-2,-5,-3,-1,-1,0,5,1
1558438316997760,6,18,-1,0,0,-4,-2,1
1558438317007007,-7,-19,-11,-10,-6,-3,-7,-3
1558438317007007,-3,-7,-6,-4,-5,0,0,0
1558438317020947,2,0,-3,0,0,-1,-4,-2
1558438317020947,-1,5,16,6,1,-3,-1,-1
1558438317028674,1,6,-7,-4,4,-1,3,0
1558438317028674,4,2,13,4,1,2,0,1
1558438317044664,0,4,3,3,2,4,1,-1
1558438317044664,-5,-14,-31,-16,-10,0,-3,-4
1558438317044664,-4,2,1,1,1,-5,-5,-1
1558438317044664,2,-1,4,-1,-2,2,-1,-1
1558438317058607,-1,-1,13,3,-2,-4,3,1
1558438317058607,7,12,8,7,2,-9,-7,1
1558438317066572,-7,-15,-10,-5,-3,5,0,-2
1558438317066572,5,9,35,10,4,2,7,1
1558438317080885,-3,-5,-14,-4,0,-6,-5,-4
1558438317080885,-5,-6,-28,-9,-7,-4,-2,-3
1558438317089021,2,-2,-16,-5,-4,-7,-6,-2
1558438317089021,-4,5,4,3,2,2,0,0
1558438317103815,-4,-8,6,-2,0,2,-1,0
1558438317103815,-1,-8,3,0,1,1,1,-4
1558438317104473,-4,2,-1,-2,-2,-1,-2,-1
1558438317104473,3,-3,-9,-1,-1,2,2,0
1558438317118785,5,9,7,0,-1,-4,12,6
1558438317118785,2,3,21,10,11,4,-11,-4
1558438317126765,1,0,-8,-5,-5,-7,-2,-4
1558438317126765,-1,3,-10,-9,-4,-5,-5,-3
1558438317141134,-2,-1,4,0,3,4,1,1
1558438317141134,0,-2,-6,-3,-1,1,4,2
1558438317148767,1,2,27,11,4,4,1,2
1558438317148767,2,-4,-22,-3,-3,-3,0,1
1558438317164077,-6,-10,-10,-11,-9,-5,-8,-3
1558438317164077,-1,3,9,3,-1,-2,2,-1
1558438317164726,-2,3,-2,0,0,7,-1,0
1558438317164726,-2,3,3,0,4,0,1,0
1558438317179022,-1,-3,3,0,0,3,1,-1
1558438317179022,0,5,1,4,-2,-2,6,1
1558438317187009,2,-1,7,2,0,3,-5,-3
1558438317187009,3,2,-13,-11,-8,-4,0,-4
1558438317200957,-12,-11,-18,-3,0,1,-1,-3
1558438317200957,1,-4,6,0,-3,-5,-6,0
1558438317209606,-4,-3,2,2,-1,-4,1,3
1558438317209606,0,5,26,11,6,5,-1,-2
1558438317223874,2,2,-35,-16,-7,-11,-5,-2
1558438317223874,-1,-5,6,2,-2,-2,2,0
1558438317224565,1,3,-12,-6,3,6,-2,-1
1558438317224565,3,-2,0,0,-2,-1,-2,-1
1558438317238798,4,8,34,10,3,4,5,1
1558438317238798,-3,2,17,4,6,-1,-2,2
1558438317246835,-3,-10,-50,-19,-9,-8,-2,-2
1558438317246835,-1,-3,-1,-1,-1,-4,0,-1
1558438317260471,-7,-4,-2,4,1,0,-4,-5
1558438317260471,3,2,9,4,3,2,4,1
1558438317268481,6,11,26,8,3,0,5,4
1558438317268481,-6,-5,-24,-10,-8,-2,-2,-2
1558438317283409,1,-2,2,3,2,0,-3,-1
1558438317283409,0,-2,10,6,7,2,-2,-2
1558438317284404,-5,-10,-11,-7,-2,-4,-4,-2
1558438317284404,-6,-3,-15,-7,-9,-6,-2,-3
1558438317298374,1,-7,1,-2,-4,-5,-9,-4
1558438317298374,-13,-2,-13,-7,-5,-1,4,-2
1558438317306345,4,0,8,4,1,4,1,0
1558438317306345,-2,-2,17,7,0,-4,-5,-3
1558438317320308,-3,1,-13,-6,1,-4,1,-3
1558438317320308,3,-4,1,-2,-2,-5,0,1
1558438317329286,0,-2,-15,-7,-5,-3,-2,-3
1558438317329286,-1,0,-1,-3,-2,0,2,-1
1558438317344529,4,7,12,5,2,1,2,3
1558438317344529,-6,-14,-24,-8,-7,-1,-6,-7
1558438317344529,-2,4,3,0,-4,-2,-1,-5
1558438317344529,0,-1,1,3,6,3,0,2
1558438317358429,3,4,26,7,3,2,-3,2
1558438317358429,8,6,0,-1,-2,-2,-2,1
1558438317367187,-7,-7,-39,-23,-11,-4,17,-1
1558438317367187,-14,-26,-2,2,2,-2,-17,-6
1558438317380147,-3,0,-5,-5,-2,-5,1,-1
1558438317380147,3,7,22,9,6,2,-3,2
1558438317389123,4,5,6,4,-2,2,1,0
1558438317389123,4,5,-3,-3,0,1,9,4
1558438317404315,-2,-2,2,1,-4,-4,-7,-4
1558438317404315,0,0,-2,-2,-5,-5,1,-1
1558438317404315,2,2,6,2,5,1,-1,-1
1558438317404315,-2,-3,-12,-3,-1,-1,-4,-5
1558438317419765,-8,-18,-10,-1,0,-3,0,-2
1558438317419765,2,4,3,1,2,6,4,-1
1558438317426695,-4,-7,-6,-3,-2,-8,-9,-2
1558438317426695,3,5,8,2,1,2,0,1
1558438317440223,0,4,-10,-6,-7,-2,-1,-1
1558438317440223,-1,-5,-9,-4,0,1,0,-1
1558438317449202,3,4,14,7,5,3,-2,2
1558438317449202,3,16,8,0,-3,2,-2,-1
1558438317464159,-3,-2,35,15,6,5,1,1
1558438317464159,-11,-17,-62,-25,-5,-8,19,3
1558438317464159,-6,-6,-7,-2,-1,-2,-21,-8
1558438317464159,1,0,3,0,-1,-3,-2,1
1558438317478483,8,13,-12,-4,-7,-4,0,0
1558438317478483,-3,-4,28,7,2,5,-4,1
1558438317487259,4,4,6,2,1,-1,4,2
1558438317487259,-2,-7,-15,-4,1,0,-5,-3
1558438317501403,-1,2,9,5,2,4,1,-4
1558438317501403,8,17,16,3,1,-2,-4,0
1558438317509389,-17,-19,-28,-14,-4,0,4,-1
1558438317509389,-3,-4,12,1,-4,-3,-4,-4
1558438317524344,1,-3,-9,-5,2,-1,-3,0
1558438317524344,-5,-6,2,1,-4,-7,-5,-1
1558438317525240,5,6,18,10,4,0,-1,1
1558438317525240,0,3,-1,1,2,-1,4,-2
1558438317538296,-3,3,-6,-6,-2,4,-5,-3
1558438317538296,-5,-11,-7,-1,-3,5,-1,-3
1558438317547171,1,0,12,4,4,1,1,2
1558438317547171,0,7,31,13,10,-1,-4,3
1558438317561200,-6,-1,-45,-22,-12,-8,-8,-5
1558438317561200,-2,-4,-4,-3,-8,-7,-6,-5
1558438317569134,-2,-6,-5,-4,-7,-3,5,0
1558438317569134,-2,-3,-9,-2,0,8,7,0
1558438317583840,9,6,26,8,8,4,5,3
1558438317583840,-1,5,-12,-4,-2,-6,-3,0
1558438317591817,0,-5,-5,4,-4,-2,-10,-3
1558438317591817,3,1,6,-2,-4,-6,3,3
1558438317597804,7,12,11,2,2,2,0,-1
1558438317597804,-6,-9,-10,0,3,1,0,-1
1558438317606993,4,7,10,3,4,5,4,1
1558438317606993,-3,0,3,-1,-2,-2,-4,-3
1558438317620963,-9,-18,-25,-8,-8,-5,0,-2
1558438317620963,1,3,4,-4,-4,-5,-2,-2
1558438317628958,0,2,5,1,0,0,-1,-2
1558438317628958,3,0,-13,-5,-4,-1,-2,0
1558438317643925,-2,-1,15,5,-2,-1,3,0
1558438317643925,3,7,23,8,2,4,7,4
1558438317651906,-9,-7,-46,-17,-5,-14,-13,-8
1558438317651906,-3,-17,-18,-8,-1,2,0,-3
1558438317658874,-4,-8,-13,-4,-1,-5,-1,0
1558438317658874,4,4,9,2,-1,2,-3,1
1558438317666649,1,10,14,1,-1,4,2,-1
1558438317666649,-1,-4,7,4,-1,0,-3,-1
1558438317680653,-1,-2,-8,-5,1,1,-5,0
1558438317680653,-1,-3,-8,-2,0,-3,8,3
1558438317689555,0,4,4,3,5,0,-1,-2
1558438317689555,2,1,-10,-1,-1,-4,0,-2
1558438317703863,-4,1,11,1,-3,3,0,0
1558438317703863,-4,-7,-6,-4,-6,-2,-9,-5
1558438317711827,7,5,10,2,1,4,7,4
1558438317711827,-13,-8,0,-6,-4,-5,-2,-1
1558438317727797,0,-5,-12,-3,0,0,2,-1
1558438317727797,2,3,11,6,6,-1,-7,-2
1558438317727797,-3,0,13,6,0,-5,0,-2
1558438317727797,-1,-8,-27,-20,-9,-5,-7,-6
1558438317740420,-2,-3,-7,0,2,2,3,0
1558438317740420,-3,3,-8,-8,-5,-3,-6,-5
1558438317748405,2,0,24,7,3,5,0,2
1558438317748405,0,3,6,3,5,1,7,0
1558438317763392,-4,-3,-4,-2,-6,-5,-3,-1
1558438317763392,0,-1,4,0,0,3,-5,-3
1558438317771363,6,6,-1,2,5,0,10,5
1558438317771363,3,8,8,3,4,7,3,4
1558438317787293,-12,-13,-16,-9,-5,-3,1,-4
1558438317787293,-1,0,1,0,-3,-1,-10,-4
1558438317787293,-6,-6,-5,-5,-5,-2,-1,-1
1558438317787293,3,0,-8,-1,-2,-2,6,1
1558438317800671,6,8,11,3,5,2,-10,1
1558438317800671,3,8,9,7,1,3,8,1
1558438317809678,-7,-20,-6,-6,-5,-5,-3,-2
1558438317809678,1,7,-32,-13,-7,-7,-2,1
1558438317823646,-2,1,6,2,0,-2,1,0
1558438317823646,-3,-3,-6,-5,3,1,0,1
1558438317831177,3,-2,-7,-4,-2,0,-8,-4
1558438317831177,-10,-3,9,6,-2,-1,-2,-1
1558438317847133,-1,0,7,3,3,3,2,0
1558438317847133,-2,-6,-10,-4,-3,1,4,0
1558438317848132,5,15,16,9,-3,-3,0,0
1558438317848132,-6,-20,-25,-17,-7,-7,-8,-3
1558438317861098,3,2,-1,6,8,0,1,1
1558438317861098,0,3,-2,0,0,-2,1,0
1558438317870072,-4,-8,12,1,0,4,-1,-1
1558438317870072,1,1,-1,-2,-4,-1,-11,-3
1558438317883037,-2,-4,3,-1,2,0,2,-2
1558438317883037,3,-1,-4,-1,0,-1,0,0
1558438317891019,3,5,-5,-6,-5,-4,-3,-1
1558438317891019,-2,8,25,10,0,-1,1,-2
1558438317906976,2,-8,-6,-5,-3,-2,13,4
1558438317906976,-3,-5,-22,-12,-4,-3,-11,-4
1558438317907971,-6,-4,-13,-5,-1,0,0,0
1558438317907971,1,5,9,7,4,3,1,0
1558438317920937,-4,-12,-12,-7,-10,-9,-9,-7
1558438317920937,-1,3,-4,-3,2,1,2,-1
1558438317928920,3,-5,-10,-3,-1,-1,-1,1
1558438317928920,-6,-7,8,4,3,-2,5,0
1558438317942879,2,14,16,8,3,6,-3,1
1558438317942879,-5,-10,-15,-8,-10,-8,-5,-3
1558438317951854,-3,1,-1,-3,-2,-1,7,0
1558438317951854,1,-1,10,7,1,3,2,0
1558438317965818,3,2,-4,-3,0,-3,-5,-1
1558438317965818,-6,-1,1,-2,-3,-4,0,0
1558438317974792,0,5,-2,1,2,4,-1,-2
1558438317974792,1,-2,0,-3,-1,4,3,1
1558438317980779,-2,-6,-1,-3,-2,1,-1,-1
1558438317980779,1,2,8,3,-1,0,-2,-1
1558438317989753,-4,-2,-12,-6,-6,-5,-3,-1
1558438317989753,4,5,7,0,-3,-4,0,1
1558438318002718,2,10,28,9,2,2,14,8
1558438318002718,-6,-11,-25,-7,1,-3,-16,-9
1558438318011693,-1,2,-10,-5,-2,0,-2,-4
1558438318011693,-6,-13,-2,0,-1,-2,-6,-3
1558438318025657,2,0,-7,-2,-3,-3,0,-2
1558438318025657,-1,-6,9,1,-4,2,4,3
1558438318034632,-1,2,7,1,0,-2,-5,-4
1558438318034632,5,9,-3,-3,-3,-8,1,-2
1558438318040617,0,1,8,2,1,4,-1,-2
1558438318040617,-9,-12,-15,-7,-7,-4,1,-3
1558438318049596,-2,-9,-7,-5,-2,-2,-7,-4
1558438318049596,2,0,1,2,3,5,-4,-1
1558438318063554,-2,1,-5,-1,-2,-5,-4,-4
1558438318063554,3,4,5,2,3,5,7,0
1558438318071533,-3,1,2,-1,2,2,1,1
1558438318071533,1,7,0,-1,-3,-3,1,0
1558438318085497,1,-1,-3,-3,-2,-3,-4,-1
1558438318085497,0,-1,7,2,-1,0,-3,-3
1558438318094472,-3,-6,-11,-3,-3,-3,1,0
1558438318094472,-4,-5,-10,-5,-4,-1,-4,-2
1558438318100457,-1,2,-6,0,5,6,2,2
1558438318100457,5,7,25,10,5,-3,5,4
1558438318109441,1,-1,-7,1,0,3,6,3
1558438318109441,-3,-5,2,1,-4,-6,-11,-4
1558438318123395,-9,-8,-43,-21,-12,-5,-6,-5
1558438318123395,-4,-8,3,0,-3,-2,-4,-2
1558438318132371,3,6,2,1,4,2,5,1
1558438318132371,0,-6,5,4,1,-2,0,-1
1558438318145337,6,4,3,-2,-5,-3,-10,-1
1558438318145337,7,11,4,1,5,1,4,2
1558438318154314,-21,-16,-3,-4,-4,-3,-8,-5
1558438318154314,-1,2,2,1,-1,-3,1,-2
1558438318160297,-1,-8,9,0,1,3,-9,-4
1558438318160297,2,6,10,3,1,1,4,-1
1558438318169274,5,0,-7,-3,-4,-7,-5,-3
1558438318169274,-3,-1,-10,-5,1,5,0,0
1558438318183244,1,4,13,3,1,3,6,0
1558438318183244,0,-7,-24,-8,-6,-4,-6,-3
1558438318192211,1,7,9,3,-1,0,1,1
1558438318192211,-1,-1,1,-3,-1,1,1,0
1558438318205176,-3,-2,0,1,0,0,3,1
1558438318205176,1,7,17,6,3,5,4,4
1558438318214152,-4,-4,-4,-2,-2,-3,-10,0
1558438318214152,3,2,-5,0,-2,-7,16,5
1558438318220141,2,9,-1,2,4,2,-10,-2
1558438318220141,-3,-10,-9,-3,-1,4,-1,-2
1558438318229113,-3,-8,-15,-11,-7,-2,-1,-2
1558438318229113,-5,-7,-16,-5,-5,-8,-11,-5
1558438318243083,-2,0,10,2,-2,-1,11,3
1558438318243083,-1,1,-7,-2,-4,-1,-5,0
1558438318252050,1,3,4,2,1,-1,-1,-2
1558438318252050,1,2,8,1,2,1,-1,3
1558438318266018,-4,-5,-7,1,-1,-2,0,-2
1558438318266018,3,3,9,2,2,2,-2,-2
1558438318274989,4,3,16,4,2,-1,2,1
1558438318274989,-2,0,-8,-7,0,2,-3,-3
1558438318280974,-8,-16,-8,-3,-2,-5,-4,-4
1558438318280974,-1,-1,-3,-2,-3,-4,1,-1
1558438318289950,-1,1,4,3,1,-2,0,0
1558438318289950,0,4,2,0,-2,-3,-2,-3
1558438318302914,0,5,-3,-2,-5,-4,-3,-3
1558438318302914,-6,-9,1,1,3,4,3,-1
1558438318311891,5,6,24,8,3,5,6,0
1558438318311891,-6,-5,-5,-5,-4,1,-8,-5
1558438318325854,-5,-13,-27,-16,-5,-8,-2,-4
1558438318325854,-3,-4,-6,-1,-1,-12,-12,-5
1558438318334829,-3,-1,-13,-5,-3,-2,-2,-2
1558438318334829,3,4,13,5,4,7,11,4
1558438318340813,5,6,21,10,1,1,-3,0
1558438318340813,-7,-5,-18,-9,-4,0,0,-2
1558438318349793,3,2,9,5,3,2,-2,-1
1558438318349793,-1,-4,-3,0,0,-2,-4,-1
1558438318362754,1,8,-2,3,2,4,1,-1
1558438318362754,-2,-9,-1,-4,2,0,2,2
1558438318371732,-1,-5,5,4,0,2,-1,-2
1558438318371732,6,7,26,9,2,3,-1,0
1558438318385693,-9,-9,-56,-24,-15,-14,1,-2
1558438318385693,1,-3,2,1,-2,-2,-4,0
1558438318394669,-5,-3,-4,-4,-4,0,7,0
1558438318394669,-4,-8,-5,-1,1,3,-5,-5
1558438318400654,-1,-1,15,10,9,3,-6,-1
1558438318400654,-2,-3,4,0,-1,1,2,-1
1558438318409631,-5,-7,-20,-6,-5,-5,-7,-4
1558438318409631,1,2,0,-5,-5,-1,0,1
1558438318422594,3,3,11,4,1,0,4,0
1558438318422594,0,5,-7,-1,-2,-3,-2,-3
1558438318431571,1,-4,16,2,-1,-3,8,4
1558438318431571,5,6,10,7,4,1,-6,2
1558438318445532,-3,-5,-12,-6,1,5,-1,1
1558438318445532,-1,-3,-13,-8,-9,-7,-3,-4
1558438318454509,-1,0,-1,1,1,-6,-2,-2
1558438318454509,-9,-7,-4,-5,-6,-8,-6,-6
1558438318460494,2,6,21,6,1,1,-1,2
1558438318460494,4,6,20,11,3,1,0,-1
1558438318469472,3,8,-29,-14,-6,1,-1,-3
1558438318469472,-8,-18,-8,-4,-3,-3,1,-5
1558438318483433,-3,-2,7,1,1,-3,2,1
1558438318483433,0,4,3,-1,-3,-5,-6,-1
1558438318492408,-2,-5,2,3,2,1,-3,-2
1558438318492408,4,7,0,-1,-2,-1,-3,-1
1558438318505372,1,1,-5,-3,-2,3,2,-1
1558438318505372,2,7,19,5,4,4,5,3
1558438318514349,-1,-6,-13,-8,-4,-3,-6,-3
1558438318514349,-2,-3,-6,1,0,3,2,1
1558438318520333,-1,-10,-24,-11,-5,-2,-2,-4
1558438318520333,-3,-3,-2,-1,-2,-4,-1,1
1558438318529310,0,5,0,-1,2,3,-5,0
1558438318529310,-2,-3,1,0,-1,-5,-4,1
1558438318543271,1,-4,-7,-6,-7,-3,-4,-3
1558438318543271,0,6,4,2,3,8,10,-1
1558438318558231,1,-5,-3,-2,-2,-2,-13,-6
1558438318558231,8,5,-11,-3,-2,-14,2,1
1558438318565221,-5,-3,16,8,5,4,-1,1
1558438318565221,-2,-3,-6,-6,-5,-1,0,-4
1558438318574189,0,2,5,3,1,1,6,3
1558438318574189,3,0,5,1,-1,4,5,1
1558438318580178,2,13,9,2,-1,-4,1,-1
1558438318580178,-5,-13,-14,-6,-5,-5,-12,-5
1558438318589153,2,12,12,2,0,2,1,0
1558438318589153,-3,-10,-27,-7,0,-2,-1,0
1558438318603112,-7,-10,13,2,-3,-2,-1,-4
1558438318603112,3,0,-1,1,2,4,0,1
1558438318612088,-4,-7,-13,-5,-7,-8,-3,-1
1558438318612088,0,4,9,0,0,5,1,1
1558438318626050,6,8,8,2,2,-5,0,2
1558438318626050,0,0,1,3,8,8,6,2
1558438318635028,-3,-3,-4,-3,-3,-3,-1,-3
1558438318635028,0,1,-4,-3,-1,3,-1,-3
1558438318641010,-3,-7,1,-1,-3,1,-8,-6
1558438318641010,-6,2,-7,-3,-2,-6,1,0
1558438318656968,-2,-2,3,0,3,2,-6,-1
1558438318656968,-1,2,1,1,-1,0,2,0
1558438318662952,-2,5,9,4,6,3,-1,2
1558438318662952,1,-2,-16,-6,-6,-6,-4,-3
1558438318671928,-9,-12,-10,-3,-2,-4,-1,-2
1558438318671928,0,-3,8,0,-3,0,7,0
1558438318685891,1,-4,-15,-4,-2,-2,-6,0
1558438318685891,1,1,4,0,1,2,2,1
1558438318694866,2,3,12,5,2,0,-1,1
1558438318694866,-3,2,-3,-6,-5,-1,-5,-5
1558438318709825,-1,-7,-1,-4,-4,-2,4,0
1558438318709825,3,6,10,6,2,0,-1,3
1558438318710825,-3,-10,-15,-5,-1,-1,-5,-2
1558438318710825,-2,-5,-8,-1,1,-3,-8,-3
1558438318722793,4,6,4,-5,-8,-6,-2,-2
1558438318722793,0,6,1,-1,-2,0,2,1
1558438318731770,0,-4,12,7,5,3,3,2
1558438318731770,-1,-3,-21,-9,-4,-2,-1,-2
1558438318745730,-4,-7,-8,-3,-1,2,-2,2
1558438318745730,2,6,2,-2,-4,-2,3,-1
1558438318754706,3,7,16,6,4,0,2,0
1558438318754706,-3,-1,-4,-1,2,-1,-3,-2
1558438318769667,-3,-9,-8,-1,-2,-4,-1,-2
1558438318769667,-3,-5,-3,-3,-2,0,-3,-1
1558438318770667,2,0,4,-2,-4,-1,-1,-1
1558438318770667,9,7,12,7,2,0,4,3
1558438318782632,-11,6,9,4,2,2,2,-4
1558438318782632,-9,-9,-44,-20,-14,-16,-13,-9
1558438318792605,-6,-21,-28,-10,-3,-1,1,-3
1558438318792605,-1,3,5,2,0,4,2,0
1558438318805569,5,1,-1,2,-2,-6,-5,0
1558438318805569,3,5,20,9,6,7,-2,-1
1558438318814548,-3,-1,14,2,-3,-2,-3,1
1558438318814548,-3,-8,-8,-5,-2,0,0,-1
1558438318829506,5,4,-8,-3,-5,-3,-2,-2
1558438318829506,-6,0,6,0,-2,-1,-1,-2
1558438318830503,-2,-2,-9,-7,-1,0,3,0
1558438318830503,-7,-4,4,2,0,-3,-4,-2
1558438318843468,-1,0,-2,-5,-3,-1,0,-1
1558438318843468,4,-3,-1,1,1,-2,1,2
1558438318852447,5,12,17,7,2,1,5,-1
1558438318852447,-8,-10,-20,-11,-6,-1,-3,-5
1558438318865410,5,2,-8,-5,2,6,2,3
1558438318865410,-7,-9,-5,-1,0,-8,-4,0
1558438318874385,3,5,0,0,-3,-2,-5,-2
1558438318874385,9,15,30,9,3,-3,0,4
1558438318889347,-17,-16,-32,-17,-11,-4,-4,-8
1558438318889347,-1,-8,-3,-2,0,1,-2,-1
1558438318891341,-1,-2,-3,1,-3,-2,-4,-1
1558438318891341,0,-1,4,3,1,2,7,-1
1558438318903314,4,6,6,3,3,-3,-2,1
1558438318903314,1,10,8,2,2,3,-1,-1
1558438318912286,-5,-14,-10,-8,-5,-5,-4,-3
1558438318912286,2,6,3,-4,-2,-3,-6,-2
1558438318925250,-1,-7,-16,-4,-1,0,-1,-1
1558438318925250,-3,-5,1,2,-2,-4,1,2
1558438318934226,9,20,16,7,3,4,1,0
1558438318934226,-14,-25,-24,-8,-5,2,1,-1
1558438318949188,5,6,16,9,3,-6,-2,0
1558438318949188,-1,-2,-1,-6,-1,-1,3,-4
1558438318951180,-1,-2,-3,-1,-4,-2,-11,-7
1558438318951180,2,5,-9,-1,3,2,3,2
1558438318963149,-4,-3,7,4,1,-2,-4,-2
1558438318963149,1,0,5,1,0,-1,-1,0
1558438318972132,1,-3,-4,-3,-4,-2,-1,1
1558438318972132,1,3,2,-2,-4,-4,-7,-1
1558438318985090,2,5,20,8,7,7,2,2
1558438318985090,1,-3,-14,-1,4,4,1,2
1558438318994065,-2,2,-12,-4,-2,-12,-1,2
1558438318994065,-1,-3,-1,-2,-2,-1,-4,-3
1558438319009025,-1,-3,-4,-3,-3,-2,3,-1
1558438319009025,2,4,18,7,4,9,1,-2
1558438319011020,-1,-3,7,4,2,4,1,1
1558438319011020,-4,-3,-25,-10,-2,-4,-1,-1
1558438319022990,0,5,13,3,-2,-3,2,-1
1558438319022990,-3,-4,9,1,-3,-1,-1,1
1558438319031972,-5,-8,-22,-7,0,2,3,-3
1558438319031972,-1,1,10,4,-3,-5,-5,1
1558438319045926,3,1,-5,-3,1,1,5,1
1558438319045926,0,0,-4,-4,-5,-4,-7,-3
1558438319054903,-3,-2,10,3,-3,-1,-4,-1
1558438319054903,5,5,11,5,5,2,0,1
1558438319069863,-7,-12,-16,-11,-3,0,2,-2
1558438319069863,1,-5,-1,-2,-7,-11,-5,-3
1558438319070863,-3,7,6,3,3,1,0,1
1558438319070863,-1,3,6,5,4,5,5,3
1558438319082834,1,1,-6,-1,-2,-1,-4,-3
1558438319082834,-6,-7,0,2,2,0,7,1
1558438319091805,-3,-4,-14,-6,-5,-5,-6,-2
1558438319091805,5,6,-1,-4,-4,-5,-6,-2
1558438319105767,-4,5,11,6,4,3,-2,-1
1558438319105767,-11,-12,-20,-5,-8,-2,-1,-3
1558438319114746,-1,0,-4,-4,-1,0,1,0
1558438319114746,1,-3,17,8,5,1,2,3
1558438319127707,0,-4,-4,-3,-4,-5,2,0
1558438319127707,6,13,-4,-5,-4,-4,-11,-2
1558438319136685,-5,-8,-3,1,2,3,2,1
1558438319136685,-7,-11,-7,-3,-4,-3,2,-7
1558438319142669,4,2,9,3,-1,3,-4,-3
1558438319142669,-3,6,6,0,2,2,1,0
1558438319151644,0,1,-4,-3,0,1,-1,-1
1558438319151644,-5,-2,1,-1,-5,-5,-1,0
1558438319165609,-2,-5,-2,2,1,0,-1,-1
1558438319165609,5,7,8,4,2,0,2,-2
1558438319174593,2,4,6,3,1,2,7,1
1558438319174593,-1,-5,-8,-3,-5,-6,-7,-1
1558438319189542,-13,-8,-6,-3,-4,-3,-16,-7
1558438319189542,1,-8,-4,-4,-1,3,7,2
1558438319190541,-3,5,13,8,5,5,-6,-2
1558438319190541,2,-2,-11,-5,-2,-3,2,-2
1558438319203507,4,1,-3,-2,-5,-17,-2,-1
1558438319203507,2,8,2,1,3,1,4,1
1558438319211483,-4,-6,4,3,1,1,2,-4
1558438319211483,-3,-4,-11,-8,-4,3,-2,-3
1558438319225447,4,4,4,3,3,4,3,5
1558438319225447,0,0,1,4,3,-2,-3,2
1558438319234423,5,-3,-13,-10,-6,-5,-2,1
1558438319234423,-3,3,5,1,-2,0,-2,-1
