timestamp,emg1,emg2,emg3,emg4,emg5,emg6,emg7,emg8
1558453355679292,2,6,1,-17,-4,2,-2,-1
1558453355679292,-3,-7,-7,13,3,-6,-4,-2
1558453355684279,-9,-8,0,-9,-6,-2,1,-1
1558453355684279,0,-1,-6,-9,5,2,3,2
1558453355685487,-2,-2,-2,-1,-1,2,0,-2
1558453355685487,3,5,2,7,1,-3,-1,1
1558453355687271,-1,-2,0,-9,-2,-4,-1,-3
1558453355687271,-3,0,1,-2,-5,-1,-4,-5
1558453355698290,-1,1,3,15,-2,-2,0,0
1558453355698290,0,-1,-2,-7,8,6,0,-2
1558453355706220,0,0,-9,-10,-10,-3,1,1
1558453355706220,-2,-6,0,1,-7,-10,-3,-3
1558453355712204,1,0,5,7,-2,-5,-1,-1
1558453355712204,-1,3,1,-9,-2,1,0,-1
1558453355728162,2,0,4,7,1,-1,-4,0
1558453355728162,0,1,0,5,3,1,-1,1
1558453355736277,4,-1,-3,-16,-5,1,0,0
1558453355736277,-6,-6,-7,-5,-3,-2,-2,0
1558453355744185,2,4,4,3,6,5,3,0
1558453355744185,0,-4,-7,-10,-4,1,-1,-1
1558453355758081,-3,-4,1,11,6,1,0,0
1558453355758081,2,-1,-2,-15,-12,-3,-2,0
1558453355767151,1,2,-2,3,2,-2,-1,1
1558453355767151,0,1,6,4,-1,-2,0,-2
1558453355796140,-2,-2,-1,2,1,-1,-3,-2
1558453355796140,-3,-3,4,8,-10,-10,-5,-3
1558453355811988,1,1,-15,-19,6,7,-3,-2
1558453355811988,0,0,-1,14,-6,-2,-2,0
1558453355813208,0,0,-9,-3,3,0,2,1
1558453355813208,-2,-1,-2,-9,-2,0,0,-1
1558453355814558,-3,-2,3,-5,-6,-4,1,-1
1558453355814558,1,0,5,15,5,2,3,0
1558453355817371,1,-2,-5,-9,-4,-2,-1,2
1558453355817371,1,-2,-1,-10,-1,0,-2,-2
1558453355834933,-6,0,4,24,4,4,-4,-3
1558453355834933,0,-2,-15,-22,-6,-4,2,1
1558453355834933,-3,-3,7,5,1,3,1,-3
1558453355834933,0,2,-6,-8,2,1,0,-1
1558453355847891,0,-5,4,12,-2,-3,-2,-1
1558453355847891,1,2,6,-4,-1,-2,-3,-2
1558453355854873,1,3,0,-3,-5,-2,2,2
1558453355854873,-2,-3,0,12,4,-1,1,0
1558453355864093,4,7,5,8,-1,-2,2,3
1558453355864093,-6,-6,-11,-28,-9,-3,-4,-3
1558453355877062,-4,-10,4,-1,-7,-4,-5,-5
1558453355877062,1,-2,-14,-9,2,5,2,1
1558453355886038,1,1,3,2,1,-4,-1,0
1558453355886038,-1,-2,2,-2,-4,-5,-4,-2
1558453355892021,-1,0,2,10,3,1,-2,-2
1558453355892021,3,2,3,3,-4,-3,-3,1
1558453355907008,-3,-3,1,-4,3,2,0,-3
1558453355907008,-4,-1,-4,-5,-7,-9,-4,-2
1558453355914994,-3,-8,-14,-17,-4,3,0,-1
1558453355914994,1,2,10,10,0,-2,1,-1
1558453355923972,2,0,-9,-14,-8,-8,-1,0
1558453355923972,-1,-2,4,4,4,3,1,0
1558453355937899,0,2,5,7,5,3,-1,-1
1558453355937899,-2,0,-2,4,2,2,-1,-3
1558453355946598,-1,-4,-2,1,-4,0,0,1
1558453355946598,1,-3,-2,1,2,5,2,1
1558453355952860,1,5,-4,-11,-4,-5,-1,-1
1558453355952860,-5,-9,-3,-2,2,0,-4,-1
1558453355967819,-1,3,-3,2,3,3,0,-2
1558453355967819,0,-2,2,9,1,0,-2,-1
1558453355974800,-1,4,-2,-14,-6,-3,-1,0
1558453355974800,-3,-1,-2,-7,-1,-4,-3,-2
1558453355983779,0,-2,0,-9,-4,-3,0,3
1558453355983779,4,4,0,-2,4,6,1,1
1558453355997772,-4,-4,-6,-2,0,-4,-3,-3
1558453355997772,2,1,1,3,-6,-1,-1,0
1558453356006716,-3,-4,-7,-9,-3,1,-2,-4
1558453356006716,-8,-7,-2,5,-4,-3,-1,0
1558453356012699,2,0,5,14,11,3,2,3
1558453356012699,4,7,3,-4,-4,4,2,1
1558453356028656,-2,0,-7,0,-5,-10,-4,-2
1558453356028656,0,-1,-4,-16,1,2,-2,-2
1558453356034674,-1,0,1,5,1,4,3,0
1558453356034674,-3,-3,-3,-1,1,-3,-3,-2
1558453356043753,0,1,4,8,2,5,3,-1
1558453356043753,-3,-2,3,7,3,1,-1,-1
1558453356057609,-3,-3,-8,-22,-12,-13,-5,-4
1558453356057609,2,2,-4,0,2,1,0,-1
1558453356066120,2,-3,4,-6,3,4,3,-1
1558453356066120,-3,-4,-10,-7,-4,-8,-3,2
1558453356072129,3,0,4,10,-4,-2,-2,2
1558453356072129,-2,-2,-1,4,-1,0,4,1
1558453356087087,-5,-4,-2,-10,-4,-3,-5,-2
1558453356087087,2,1,-6,-2,0,-1,1,-1
1558453356095065,0,1,4,8,-2,-3,-4,-3
1558453356095065,-5,-1,-3,-5,-2,-3,-3,-1
1558453356109995,-1,0,3,2,-2,0,-1,-2
1558453356109995,0,-1,5,15,8,2,1,1
1558453356117973,0,0,-12,-26,-2,2,0,-1
1558453356117973,-5,-6,-3,-9,-6,-3,-4,-2
1558453356125954,-1,0,1,0,-3,-4,-2,-1
1558453356125954,1,1,0,6,-3,-1,-3,-3
1558453356132932,0,2,3,8,3,1,-1,1
1558453356132932,0,-1,3,3,1,-2,-3,-2
1558453356147892,-3,-3,-4,-2,0,-5,-2,-1
1558453356147892,-1,-1,1,-6,-2,-4,0,-2
1558453356154896,3,6,9,13,3,0,0,0
1558453356154896,-5,-7,-10,-13,-2,2,2,-2
1558453356170401,-2,-5,-5,-7,-3,-4,-2,-1
1558453356170401,-2,-1,4,6,-3,-3,-2,-3
1558453356177813,-3,-2,-2,-3,-2,-1,-1,-2
1558453356177813,5,5,7,9,0,2,-1,-1
1558453356186789,-2,0,-2,4,2,1,-2,-2
1558453356186789,-5,-2,0,-8,-4,1,-5,-2
1558453356192772,0,-1,-2,5,-6,-4,2,-1
1558453356192772,-4,-5,-3,-8,-2,-3,-4,-2
1558453356207732,0,-2,-1,1,-2,2,3,3
1558453356207732,2,3,1,2,3,-1,-3,-2
1558453356214715,0,-3,5,7,3,5,0,0
1558453356214715,-1,-2,-4,-2,-2,-3,-3,-2
1558453356229709,-1,1,0,4,2,-5,0,-1
1558453356229709,0,2,0,-2,-7,2,0,0
1558453356237689,-3,-5,1,-1,8,5,2,1
1558453356237689,2,3,-1,4,4,2,3,1
1558453356246734,1,0,3,-15,-1,2,0,1
1558453356246734,-3,-8,-10,4,-7,-6,-2,-4
1558453356252613,-5,-3,-3,-7,-5,-5,-4,-2
1558453356252613,2,0,-2,-13,1,-2,0,1
1558453356267613,-2,0,3,5,-2,-2,-1,-1
1558453356267613,0,3,3,3,1,0,1,1
1558453356274598,0,-1,1,4,-3,-4,-4,-2
1558453356274598,0,-5,-3,-3,-1,5,6,4
1558453356289557,-1,-3,-13,-9,-6,-3,-2,-3
1558453356289557,-1,-2,0,-4,3,2,-1,-1
1558453356297494,-1,-2,0,2,-6,-4,-4,-3
1558453356297494,2,4,5,5,-1,0,0,2
1558453356306470,2,2,7,8,11,3,1,1
1558453356306470,-3,-5,-13,-8,-5,1,1,-1
1558453356312455,-2,-2,-2,-6,-3,2,-3,-1
1558453356312455,-3,-4,1,-1,-3,-1,3,1
1558453356327414,-2,3,0,2,-3,-1,-3,-2
1558453356327414,2,0,3,4,6,-2,0,2
1558453356335417,2,2,0,-5,-5,2,0,-2
1558453356335417,-8,-4,-1,2,1,-5,-7,-3
1558453356350391,3,-1,4,10,11,12,5,2
1558453356350391,0,-1,-7,-10,-5,-2,-4,-2
1558453356366311,-1,-1,-4,-4,1,0,3,2
1558453356366311,3,0,-1,1,-4,-1,0,3
1558453356368388,-1,0,0,4,1,6,1,1
1558453356368388,2,0,5,4,1,-1,-1,1
1558453356372610,-2,-3,0,4,7,0,1,0
1558453356372610,0,2,-6,-14,-3,-6,-2,-2
1558453356387254,-2,-3,-3,-4,-9,-5,-3,-1
1558453356387254,0,0,1,-2,-1,-3,0,0
1558453356395233,-3,-6,-6,-3,1,0,0,-3
1558453356395233,1,3,-1,5,-1,1,-1,-2
1558453356410193,0,-1,1,0,-1,-1,-1,0
1558453356410193,-3,-1,-1,1,-1,2,-1,-2
1558453356417173,-2,-1,2,-1,-6,-5,-4,-3
1558453356417173,-1,-2,-1,1,-6,-5,-4,-2
1558453356426429,4,3,0,-5,2,8,2,0
1558453356426429,-2,-3,1,1,2,-2,-3,-2
1558453356441111,-1,-1,-5,-1,-2,-5,-2,-2
1558453356441111,-2,-1,-2,-1,-2,0,-1,-2
1558453356447094,1,-1,2,4,-1,-4,-3,-1
1558453356447094,0,-2,-6,-26,-7,0,3,0
1558453356455072,-2,-1,-5,5,2,2,0,2
1558453356455072,-4,-4,3,3,-4,-4,-5,-6
1558453356470155,0,0,-3,-5,-3,-5,-2,-2
1558453356470155,-2,-2,-7,-13,-3,-1,0,-1
1558453356478010,0,0,9,8,-1,0,0,1
1558453356478010,0,-2,-11,1,5,6,-1,-1
1558453356486776,-7,-6,-1,2,0,-3,-3,-1
1558453356486776,-3,0,-4,1,-4,-3,1,-1
1558453356500992,1,0,1,0,-2,-3,0,-1
1558453356500992,-1,2,6,5,3,2,0,0
1558453356507930,-1,-1,-4,-1,-1,3,0,1
1558453356507930,-2,-3,1,9,6,3,1,-1
1558453356514912,-1,0,-5,-2,0,0,0,0
1558453356514912,0,0,6,5,0,-1,-1,-1
1558453356530156,-2,0,-7,-3,-4,-10,-4,-1
1558453356530156,-3,-3,-2,0,-7,-6,-2,-2
1558453356537851,-9,-9,-3,-10,-4,-2,-1,-1
1558453356537851,3,1,-2,2,3,2,-1,0
1558453356546826,0,-2,2,1,-5,-3,-2,-2
1558453356546826,3,5,7,11,6,3,-3,-1
1558453356560789,2,5,7,13,4,1,-1,-2
1558453356560789,-3,-2,-5,-8,-3,4,2,0
1558453356567771,-5,-8,-6,6,5,1,-4,-3
1558453356567771,1,1,-1,-7,-4,1,0,0
1558453356574785,2,-4,-4,-3,-1,-3,-3,-3
1558453356574785,-2,-2,2,3,-5,-3,0,-1
1558453356589747,1,0,2,1,2,0,-1,1
1558453356589747,1,-1,1,0,6,2,2,3
1558453356597725,3,2,-1,-3,-4,1,2,1
1558453356597725,-1,0,-1,-12,1,-1,0,1
1558453356606762,-1,-3,0,1,-4,-5,-1,-3
1558453356606762,-3,-1,-6,-6,-3,-1,-3,-1
1558453356620665,-7,-5,-2,1,0,0,-1,-1
1558453356620665,1,3,3,3,0,-4,-3,-1
1558453356627644,-1,-4,-2,-6,0,1,0,-1
1558453356627644,3,0,7,9,3,5,3,0
1558453356635252,2,1,-2,-2,2,5,2,-1
1558453356635252,-8,-8,-9,4,1,-4,-7,-7
1558453356649588,0,1,-6,-21,-11,0,5,1
1558453356649588,-2,-2,3,4,-4,-5,-5,-3
1558453356657660,0,0,-1,-5,-4,-1,-2,-1
1558453356657660,2,0,1,3,2,1,-1,2
1558453356666729,-1,0,4,4,1,-3,0,0
1558453356666729,-1,-1,0,2,-2,-1,-2,-2
1558453356680540,0,-1,-1,-10,-2,-2,2,2
1558453356680540,-1,3,-4,-1,2,-1,-1,-1
1558453356687520,-1,-1,-15,-17,-10,-3,-3,-2
1558453356687520,-4,-5,-2,-1,-1,-3,-2,-3
1558453356694502,3,7,7,7,5,3,-1,1
1558453356694502,-6,-6,4,7,1,0,1,-3
1558453356709460,-3,-1,-2,-17,-4,-7,-6,-4
1558453356709460,0,-3,-3,-2,0,-2,1,1
1558453356717442,2,1,-8,-10,-2,1,-3,0
1558453356717442,-2,-4,-3,-4,-5,0,1,1
1558453356726416,1,6,4,15,12,3,0,0
1558453356726416,-2,-1,-1,-8,-3,-2,-2,-2
1558453356740379,-2,-3,-2,-1,-6,-7,-3,0
1558453356740379,2,3,0,-7,-3,-2,0,-2
1558453356747364,-1,-2,9,17,-2,-2,-3,-2
1558453356747364,0,-3,-1,3,0,-2,1,1
1558453356755338,-4,-3,-11,-6,-2,-3,-2,-3
1558453356755338,2,3,6,12,3,4,-3,0
1558453356770299,-1,-3,-7,-16,-8,-1,3,1
1558453356770299,2,6,6,8,2,1,-2,0
1558453356777944,-2,-4,-1,3,0,-2,-2,-2
1558453356777944,-1,-6,-5,-15,-5,-7,-2,-1
1558453356792902,-4,-1,4,16,4,5,0,1
1558453356792902,3,4,-5,-3,-4,-1,-1,0
1558453356800971,-3,-7,-3,-8,6,3,-2,-2
1558453356800971,0,-2,3,6,1,3,0,-1
1558453356815841,4,4,2,-1,-1,-5,-2,0
1558453356815841,-3,-2,0,1,-3,1,-2,-2
1558453356816627,0,5,8,15,-3,-3,0,0
1558453356816627,0,-2,-19,-27,-2,0,0,1
1558453356829806,-5,-9,-9,-11,-5,-2,0,-1
1558453356829806,-2,-3,1,3,-1,5,1,1
1558453356837816,0,0,4,4,1,1,-2,-2
1558453356837816,1,-1,3,-1,0,4,3,0
1558453356852749,-1,0,1,11,-2,-3,-7,-3
1558453356852749,-1,-2,-5,-13,-1,-6,0,1
1558453356860722,-1,0,2,10,0,1,-4,-4
1558453356860722,0,0,-3,-20,-9,-7,0,-1
1558453356875682,-7,-5,-4,-2,3,1,0,-2
1558453356875682,0,0,-2,2,1,1,-3,-3
1558453356876679,-3,-4,1,-5,-3,-1,0,-1
1558453356876679,0,1,0,-1,1,-3,-1,-1
1558453356889648,4,1,1,3,-3,-1,2,1
1558453356889648,-4,-2,3,13,4,2,0,0
1558453356897660,0,-2,-5,-14,-6,-2,0,0
1558453356897660,0,2,3,14,2,0,-4,-1
1558453356921593,-2,-1,-5,-8,6,6,0,-2
1558453356921593,-2,-1,0,-9,-5,-1,1,-2
1558453356921593,0,-1,-3,4,2,0,-3,-1
1558453356921593,-2,-3,4,4,-4,-4,0,2
1558453356935523,-1,-1,-2,-2,0,4,0,-2
1558453356935523,2,0,0,-11,4,5,1,1
1558453356936711,-2,0,-1,-5,-3,-6,-2,-3
1558453356936711,-3,-1,3,7,-3,-1,0,-4
1558453356949489,1,0,3,12,0,-3,-3,0
1558453356949489,2,-2,-12,-22,-5,-3,0,-3
1558453356957496,-6,-3,-2,-5,-4,-5,0,-4
1558453356957496,1,-1,-1,7,5,4,0,0
1558453356972716,-1,0,3,3,-6,-5,-1,-1
1558453356972716,-2,1,0,-2,7,2,1,0
1558453356980696,1,2,-2,4,-3,-4,-1,-1
1558453356980696,-4,-4,-7,-6,-3,-1,-2,0
1558453356995740,4,0,0,-1,-1,-5,-3,1
1558453356995740,-1,-3,10,7,3,5,5,3
1558453356996652,0,2,0,-1,4,6,1,-1
1558453356996652,0,-2,-7,-4,-6,-1,-4,-3
1558453357009616,2,0,1,-2,2,2,7,3
1558453357009616,-4,-3,-6,-7,-9,-10,-8,-5
1558453357017637,2,0,1,1,0,-1,-1,2
1558453357017637,0,-1,6,15,3,2,-2,0
1558453357032554,-1,1,-4,-10,-3,-2,-5,-3
1558453357032554,-2,-5,-3,6,4,3,1,1
1558453357040533,-2,-1,3,6,-3,-2,1,2
1558453357040533,-1,0,-2,-7,-1,-7,-3,-2
1558453357055559,1,1,-4,-4,1,3,0,-2
1558453357055559,-9,-8,-5,-4,-3,-5,-4,-3
1558453357056491,0,-3,1,0,4,4,2,1
1558453357056491,-2,-4,-1,7,-6,-6,-1,-3
1558453357069455,-1,0,1,-8,-6,0,-2,-5
1558453357069455,4,2,-3,1,-2,-1,-2,-1
1558453357077480,0,4,8,8,0,1,1,1
1558453357077480,-2,-4,-9,-15,-2,-1,4,3
1558453357092461,-4,-4,-5,-5,-2,0,-6,-2
1558453357092461,2,1,0,1,-7,-2,0,-1
1558453357100418,-3,-3,-5,1,7,0,1,0
1558453357100418,3,3,8,2,-1,0,1,0
1558453357115375,-1,-3,-6,3,1,-2,0,-2
1558453357115375,-2,-1,-5,-10,-2,0,0,-1
1558453357116373,-3,-4,-2,-8,-2,0,-2,-4
1558453357116373,0,0,4,9,-2,-2,-1,-1
1558453357130335,-2,-2,-2,-3,-4,-6,-2,-2
1558453357130335,3,5,9,14,2,-2,-2,-1
1558453357137317,-4,-5,-13,-13,-4,-3,0,0
1558453357137317,-4,-2,-1,-13,1,1,-3,-5
1558453357154270,-2,-5,6,10,4,1,0,1
1558453357154270,3,5,-2,-2,-4,-4,-5,-5
1558453357160758,1,-1,-3,1,1,2,2,3
1558453357160758,-1,4,-2,0,-1,2,-2,0
1558453357175215,1,4,5,3,1,-3,2,1
1558453357175215,-6,-13,-5,-6,0,1,0,-1
1558453357176214,-1,0,-1,4,-3,-3,-4,-3
1558453357176214,-2,-4,-6,-6,-1,1,-1,0
1558453357190175,-1,-1,6,2,0,-3,-7,-3
1558453357190175,2,0,-10,-12,1,2,5,3
1558453357197155,-2,0,2,5,-3,-1,-1,-1
1558453357197155,0,1,-3,2,2,1,1,2
1558453357212116,-2,2,2,1,1,2,-1,0
1558453357212116,-1,2,4,9,3,-1,-3,1
1558453357221091,3,2,1,-5,3,0,1,-1
1558453357221091,-1,-1,0,-17,-1,2,0,0
1558453357236051,-2,-6,-17,-14,-6,-3,0,-2
1558453357236051,-2,-7,8,15,-10,-8,-4,-2
1558453357236051,1,2,-9,-13,3,5,0,-1
1558453357236051,-2,-1,5,13,2,1,1,2
1558453357250014,-2,1,2,2,-1,-4,-1,-2
1558453357250014,-3,-2,-6,-7,-4,-3,-1,-1
1558453357256997,-1,-1,2,2,-11,-9,-5,-5
1558453357256997,3,0,0,10,8,7,0,0
1558453357272393,-3,-4,-10,-12,0,3,2,2
1558453357272393,-1,0,4,11,4,1,3,0
1558453357280377,0,-3,-6,-24,-11,-5,-5,-2
1558453357280377,0,-1,-2,3,1,-2,0,0
1558453357303315,2,-1,2,1,-1,-2,2,3
1558453357303315,-1,4,4,3,3,-1,-4,-1
1558453357304447,-2,-1,-3,2,1,1,0,1
1558453357304447,1,4,1,-5,-5,-5,-3,-1
1558453357310297,-2,-2,3,0,5,5,1,-2
1558453357310297,0,-1,0,-1,-3,-3,1,1
1558453357317277,0,2,3,6,-4,-3,-1,0
1558453357317277,-5,-8,-1,5,2,-5,-4,-4
1558453357332238,2,1,-6,-11,-9,-1,-1,-1
1558453357332238,-1,0,-1,-3,1,-2,-2,-2
1558453357340218,-4,-5,-2,3,2,1,-3,-4
1558453357340218,3,4,3,5,0,-1,0,0
1558453357355177,-1,-1,1,12,-1,-1,-1,0
1558453357355177,-6,-7,-11,-16,-4,1,-1,-3
1558453357363156,2,3,-1,-2,-3,-4,-3,-3
1558453357363156,0,-1,2,1,-2,-1,-1,0
1558453357370138,-2,-2,1,-2,-3,-1,0,-1
1558453357370138,0,-1,-9,-2,-3,-3,-4,-2
1558453357385682,-1,-1,1,0,1,2,1,0
1558453357385682,-2,-2,-2,-1,0,0,2,0
1558453357392773,-2,-2,-1,2,-3,-2,-3,-2
1558453357392773,1,2,6,9,1,0,0,1
1558453357400642,-2,-4,-9,-17,-7,-1,0,0
1558453357400642,-2,-3,-7,-4,1,-1,2,-1
1558453357414604,2,0,-1,-2,-3,-2,-4,-3
1558453357414604,2,1,1,1,4,1,3,1
1558453357423579,0,-3,7,14,0,-3,-1,-1
1558453357423579,-4,-6,-6,-4,-2,0,0,-2
1558453357438539,2,0,0,0,1,-1,-1,0
1558453357438539,0,1,-6,-6,-3,-5,-4,-5
1558453357438539,1,2,2,-1,3,2,1,2
1558453357438539,-2,-1,5,4,-2,-1,-2,-1
1558453357452503,-4,-5,-5,-4,-3,-2,-1,-1
1558453357452503,2,1,0,-4,-1,-2,-4,-1
1558453357460481,-6,-5,3,15,2,1,1,0
1558453357460481,0,0,-13,-21,-9,-5,-2,-2
1558453357476438,1,1,-2,-5,0,-3,-2,-1
1558453357476438,-1,1,-2,-5,-5,0,4,-2
1558453357483421,2,-1,-5,-2,7,4,1,0
1558453357483421,-2,-3,6,6,3,3,1,0
1558453357498382,0,1,-3,3,-1,0,-1,1
1558453357498382,-1,0,6,10,5,3,1,1
1558453357499174,-2,0,-10,-22,-5,-3,-5,-4
1558453357499174,1,3,3,-4,-3,2,-3,0
1558453357512343,-3,-5,-6,-2,-4,-3,-2,-2
1558453357512343,-3,-6,1,2,-4,-6,-4,0
1558453357520322,-2,0,3,4,-3,-2,-2,-3
1558453357520322,0,2,-3,-5,3,1,-4,-2
1558453357535281,-3,-3,2,1,1,-2,-2,-2
1558453357535281,0,1,-1,-1,-2,2,0,-1
1558453357543260,3,2,3,2,-6,-3,-1,-1
1558453357543260,-4,-6,-6,-8,-4,-4,-3,-1
1558453357558220,-4,-5,1,-2,1,0,0,-2
1558453357558220,2,4,-2,-4,-3,-2,-2,-1
1558453357559217,-1,-1,-4,1,1,0,-1,-3
1558453357559217,2,6,12,6,-2,2,0,-3
1558453357572187,1,-1,-5,3,4,4,2,1
1558453357572187,-4,-4,-9,-9,-3,0,-2,-3
1558453357581136,-1,-2,-4,-2,-9,-10,-5,-3
1558453357581136,-1,-3,-4,-15,-4,-4,-1,0
1558453357595098,-4,-3,5,4,-3,-3,-2,-1
1558453357595098,4,3,-1,4,3,6,4,2
1558453357603141,-2,0,1,5,-4,-2,-2,-1
1558453357603141,-3,-7,-1,4,4,2,3,-1
1558453357619491,2,4,8,10,4,5,2,1
1558453357619491,-1,-4,-10,-12,-5,-5,-4,-3
1558453357620030,-2,-4,0,0,4,2,0,-2
1558453357620030,0,-1,-5,1,-3,-1,-2,-1
1558453357632009,2,0,1,-3,-1,-3,-2,0
1558453357632009,3,5,4,0,-3,-3,-1,-1
1558453357641097,-4,-6,4,26,7,5,1,1
1558453357641097,-1,-6,-14,-24,-1,3,0,-1
1558453357664040,1,2,12,6,0,2,0,-2
1558453357664040,2,4,-1,-5,-3,0,-1,0
1558453357664911,-2,-10,-5,-7,-2,-4,-2,-2
1558453357664911,-4,-3,-1,3,-1,-4,-5,-3
1558453357677924,0,1,1,0,0,-2,-2,-2
1558453357677924,0,0,1,4,3,2,-2,-2
1558453357685874,2,5,3,-6,-3,0,0,2
1558453357685874,-1,-2,-1,9,-2,-3,3,1
1558453357692837,-3,-4,-1,-3,-1,0,2,0
1558453357692837,-4,-5,-2,-3,-1,-2,-3,-2
1558453357701076,-2,1,-4,-9,-4,-2,-1,-2
1558453357701076,0,-1,0,1,0,-2,-3,-2
1558453357714959,0,-2,-7,-2,-8,-5,-3,-2
1558453357714959,-1,-1,3,15,11,7,2,2
1558453357730737,7,7,-6,-16,-1,1,0,-1
1558453357730737,-5,-5,0,-6,-10,-10,-5,-3
1558453357737718,-6,-1,-5,2,6,2,-2,0
1558453357737718,-3,-4,4,7,0,1,3,-1
1558453357738912,-3,0,-2,-8,-3,-3,-1,-2
1558453357738912,5,6,6,13,2,1,2,-1
1558453357753674,0,0,-6,-5,-4,-5,-3,-1
1558453357753674,-2,-3,-9,-12,-7,-6,-2,0
1558453357759673,-2,-5,1,1,-1,-1,0,-1
1558453357759673,0,3,3,9,8,4,1,0
1558453357776830,-7,-11,-6,-17,-8,-4,0,-4
1558453357776830,-2,0,1,5,3,-1,-1,-2
1558453357783682,2,1,0,-14,-6,-7,-2,-2
1558453357783682,0,2,-6,-8,-4,3,0,1
1558453357798642,2,4,5,10,3,0,0,1
1558453357798642,-1,-3,1,-5,-1,2,1,-1
1558453357798642,-6,-7,-5,0,-1,-2,-1,-1
1558453357798642,-1,1,4,14,4,0,0,0
1558453357812610,5,3,-12,-22,0,2,1,1
1558453357812610,-4,-6,-2,-8,-10,-4,-5,-2
1558453357819651,-7,-7,-1,6,2,2,3,-1
1558453357819651,2,3,3,0,1,-1,-1,-2
1558453357834613,-1,-2,-3,1,0,1,-1,-2
1558453357834613,2,2,7,7,-2,-3,0,-1
1558453357843521,0,-2,-4,2,3,2,3,2
1558453357843521,1,2,-4,-2,2,-1,2,4
1558453357858482,-4,-2,-5,-11,-11,-6,-3,-1
1558453357858482,-4,-3,2,2,1,-3,-2,-2
1558453357858482,0,3,4,-5,1,6,0,0
1558453357858482,-2,-3,-3,-3,-3,-3,-4,-3
1558453357872554,-1,-3,1,-1,-3,-2,1,-1
1558453357872554,1,-2,0,8,8,3,2,0
1558453357880575,-2,-1,0,5,-1,-4,-4,0
1558453357880575,2,4,3,-8,-1,-1,-1,-1
1558453357894525,-5,-3,-10,-10,-9,-5,-3,-5
1558453357894525,-5,-7,-1,-5,-11,-6,-3,-2
1558453357903501,2,2,1,9,8,6,3,2
1558453357903501,-1,2,-1,-8,-1,3,-4,-5
1558453357918640,-2,0,16,23,8,5,5,3
1558453357918640,-6,-9,-21,-12,-4,-5,-1,-4
1558453357918640,-2,-2,-10,-30,-6,1,-1,-3
1558453357918640,-3,-7,-9,-5,-9,-9,-3,-2
1558453357932426,3,4,-1,-1,3,1,-2,-1
1558453357932426,0,6,7,10,-3,-3,0,1
1558453357940403,-4,-2,2,6,-4,-6,-4,-3
1558453357940403,0,0,-2,1,-5,-1,1,1
1558453357955363,1,1,2,3,8,4,0,1
1558453357955363,-4,-3,-1,-5,-2,0,-2,0
1558453357963345,1,-2,-6,4,-3,-2,-2,2
1558453357963345,-2,-2,3,6,-4,-4,0,-1
1558453357978551,2,3,-3,-7,2,3,3,1
1558453357978551,1,3,-1,-7,-2,-2,-5,-3
1558453357979377,-1,-3,1,7,-2,-1,0,-4
1558453357979377,-3,-6,1,8,8,-1,0,1
1558453357992343,3,-1,3,6,-3,-1,1,2
1558453357992343,-3,-4,-4,-7,-1,2,-2,-1
1558453358000329,-1,-4,-10,-10,-2,0,1,-2
1558453358000329,3,1,5,10,-1,-3,-1,-2
1558453358015390,-1,2,-1,-1,-2,-4,-6,-4
1558453358015390,2,-3,1,1,4,4,4,2
1558453358030289,-1,0,3,7,0,0,0,1
1558453358030289,-2,-3,-5,-11,-4,-2,-1,-3
1558453358038332,3,5,5,10,-1,6,-3,0
1558453358038332,-3,-2,-1,1,2,1,2,0
1558453358039222,-1,2,-3,-7,-2,-2,2,0
1558453358039222,-2,0,6,1,-3,-2,-2,-1
1558453358054245,-2,-5,-5,5,2,0,0,0
1558453358054245,-1,-2,-7,-15,-5,0,-1,-2
1558453358060405,1,1,0,-4,-4,-4,-4,-1
1558453358060405,-1,-2,-1,-2,-3,-4,-2,-2
1558453358076826,2,2,4,14,0,1,2,1
1558453358076826,-1,-4,-2,-7,-2,0,-1,-1
1558453358083752,2,3,0,5,1,-3,0,1
1558453358083752,-3,-4,-2,-4,-3,-2,0,-1
1558453358098182,-3,-3,0,1,-4,-3,-2,-3
1558453358098182,1,3,-6,-8,0,-3,-3,-1
1558453358098703,0,2,2,-2,1,0,-3,0
1558453358098703,-1,3,-1,11,1,-1,-1,-1
1558453358112665,-1,-4,-11,-23,-3,-3,2,-1
1558453358112665,-3,-2,5,17,2,1,1,0
1558453358119724,-2,-3,4,8,2,1,-1,-4
1558453358119724,-2,-2,-11,-11,-3,1,-2,1
1558453358136599,-1,1,-2,-7,-4,-4,-4,-3
1558453358136599,3,6,6,8,0,-2,-2,-2
1558453358143581,-1,-1,-2,-2,-1,1,0,-1
1558453358143581,-1,-5,4,5,1,7,3,2
1558453358158540,-5,-6,-12,-11,-2,-4,-2,-4
1558453358158540,0,-3,1,2,-4,-3,0,0
1558453358158540,-3,-2,-3,-1,-2,-3,-2,-5
1558453358158540,0,0,-1,-6,-3,-6,-3,-2
1558453358181195,0,-1,4,4,-1,-1,1,-1
1558453358181195,1,0,-5,-2,3,1,0,4
1558453358181195,-3,-4,-2,3,2,-1,-3,-3
1558453358181195,-4,-4,-8,-3,-3,-4,-5,-7
1558453358194979,6,5,2,4,-1,6,3,3
1558453358194979,-3,1,1,-2,5,1,-1,-3
1558453358202971,1,2,6,11,-1,-4,-2,2
1558453358202971,-2,-5,-7,-10,-8,-6,-2,-2
1558453358217928,-6,-6,2,2,1,-4,-2,-2
1558453358217928,0,-3,1,1,-1,-3,-3,-4
1558453358219208,-2,-4,-3,-2,-5,-2,-2,0
1558453358219208,-1,-5,-6,0,0,0,-1,1
1558453358232884,-2,-1,-4,-4,-3,-6,-3,-2
1558453358232884,2,4,2,0,-1,1,0,-1
1558453358239928,-2,-4,2,0,0,-3,-4,-3
1558453358239928,-1,3,3,6,0,1,1,-1
1558453358254888,-1,-4,-8,-17,-5,-4,-3,-2
1558453358254888,1,2,-5,-3,-2,2,2,2
1558453358262863,-3,-2,3,-2,-3,-5,-4,-1
1558453358262863,2,4,5,14,10,7,2,1
1558453358278711,-3,-6,1,6,2,3,2,2
1558453358278711,1,3,0,-4,-2,-4,-2,-3
1558453358279148,-1,-1,0,-1,-9,-3,0,-1
1558453358279148,1,0,-3,-5,4,1,-2,-1
1558453358292166,-3,-1,2,5,1,-3,-3,-4
1558453358292166,-2,-5,-3,3,-3,-4,0,1
1558453358308206,3,2,2,-1,0,3,0,1
1558453358308206,-1,-1,-11,-14,-7,-4,-3,-4
1558453358315052,2,5,11,15,5,-4,-4,-4
1558453358315052,-2,-11,-4,-23,-6,1,4,0
1558453358331007,1,1,-4,-2,-2,-1,1,1
1558453358331007,-6,-11,-10,-7,-4,2,1,-2
1558453358337994,0,3,-6,-7,-2,0,0,1
1558453358337994,2,5,5,8,1,-2,-5,0
1558453358345962,1,3,-1,4,5,2,4,0
1558453358345962,-1,-3,-2,-25,-5,-2,-1,-3
1558453358352945,2,0,1,1,-4,-5,-5,-1
1558453358352945,-2,-4,-6,4,-3,1,-1,-2
1558453358359927,-1,0,-3,-5,2,3,-1,-1
1558453358359927,1,3,3,8,-4,-5,-1,1
1558453358374883,-2,-4,-2,-5,3,2,2,0
1558453358374883,-2,-1,2,8,-3,-1,-4,-2
1558453358383187,-2,-6,-5,-5,-4,-5,-4,-1
1558453358383187,-5,-2,0,-7,-5,0,-2,0
1558453358397150,-3,-4,-3,-5,-2,-1,-2,-3
1558453358397150,-1,1,3,0,-6,-7,-2,-1
1558453358414142,4,5,-1,-4,3,2,1,1
1558453358414142,0,-2,1,8,-1,-1,0,-2
1558453358415102,-2,-6,-5,-2,0,3,2,0
1558453358415102,-4,-2,-1,-2,-1,-1,-4,-6
1558453358428241,-3,-4,-4,-5,-2,-4,1,0
1558453358428241,2,1,5,4,4,-3,-1,2
1558453358435089,-3,-4,-6,-4,-7,-9,-1,0
1558453358435089,1,2,3,11,9,5,-1,-3
1558453358451005,-3,-1,3,2,-7,-4,-4,-4
1558453358451005,-2,-2,1,3,7,5,3,1
1558453358456997,-3,-5,-5,-15,-8,-3,-4,-5
1558453358456997,-2,-3,-1,1,3,2,1,1
1558453358473945,1,1,-1,0,-4,-2,-2,0
1558453358473945,-1,0,-3,-2,-1,-2,0,-1
1558453358475344,0,2,1,7,2,2,0,-1
1558453358475344,-2,1,0,2,-3,-4,-1,2
1558453358480105,1,-2,0,-13,2,2,0,-2
1558453358480105,-1,-3,-2,-2,-2,-1,-2,0
1558453358496063,0,3,-1,-8,4,7,-1,1
1558453358496063,0,0,1,2,-4,-4,5,1
1558453358503043,-4,-4,-3,9,1,-1,1,-2
1558453358503043,2,3,-1,-2,1,-1,-4,0
1558453358517013,2,2,3,2,3,0,2,-1
1558453358517013,-1,-4,-1,-9,-6,0,-2,0
1558453358525984,1,-2,-10,-2,-5,-5,-1,-1
1558453358525984,0,-1,8,11,5,0,0,-1
1558453358540943,-3,-4,4,10,-1,-1,-1,-1
1558453358540943,-2,-1,-16,-25,-8,-2,-1,-1
1558453358540943,-3,-5,3,1,1,1,2,-1
1558453358540943,0,2,2,0,-1,-1,1,1
1558453358554905,-1,2,1,-3,-2,-4,-1,-2
1558453358554905,2,0,5,12,4,3,1,2
1558453358562954,-6,-6,-7,-17,-2,-1,-4,-3
1558453358562954,-1,-1,1,-2,-7,-1,-1,-2
1558453358585955,5,2,1,8,0,-1,-2,1
1558453358585955,-1,-3,-1,-7,1,0,0,3
1558453358586952,4,7,8,8,7,3,-2,2
1558453358586952,-2,-8,-2,5,-2,6,1,0
1558453358608893,-2,-4,-10,-24,-10,-10,-2,-1
1558453358608893,-1,1,-5,-13,-3,-3,-1,-1
1558453358609893,2,2,2,2,1,-1,0,0
1558453358609893,-2,0,-2,0,-1,-1,-1,-2
1558453358614878,2,2,4,9,2,3,5,5
1558453358614878,0,0,-3,1,3,2,-1,0
1558453358622855,-2,-6,-1,-3,-1,3,3,-1
1558453358622855,1,-1,-1,2,-4,-6,-3,-2
1558453358637815,-2,-1,-3,-5,3,4,0,1
1558453358637815,-2,-2,-3,1,-6,-8,-3,-2
1558453358645799,-3,1,0,1,-2,-2,-3,-2
1558453358645799,0,-3,-4,-6,0,1,-2,-1
1558453358660757,-1,2,5,3,-2,-4,-2,-2
1558453358660757,-2,-2,-2,3,-1,-3,-3,-4
1558453358661756,-1,-2,-2,8,2,-3,-4,-1
1558453358661756,4,7,-2,-10,6,12,10,4
1558453358684263,-2,-3,1,1,-4,-2,-5,-5
1558453358684263,-9,-10,-4,-1,4,0,-1,-2
1558453358690267,2,0,-1,4,-2,1,1,0
1558453358690267,-3,-1,2,4,5,-6,-2,-4
1558453358706251,1,3,-7,-4,-8,0,0,0
1558453358706251,1,1,-2,0,2,2,0,0
1558453358707205,-1,-1,4,1,-5,0,1,-1
1558453358707205,-4,-3,-14,-8,-2,-4,-7,0
1558453358721181,-4,-3,1,-2,-3,-3,-3,-3
1558453358721181,-1,-3,2,6,-5,-9,-3,-3
1558453358721181,0,2,-5,-6,0,2,0,-1
1558453358721181,-1,-2,8,15,1,-1,0,0
1558453358735127,-2,-3,-8,-15,-4,1,1,1
1558453358735127,0,1,-6,-15,1,0,-4,-2
1558453358743685,0,1,-2,-7,-6,-2,3,0
1558453358743685,0,-2,3,10,2,-1,0,-1
1558453358758098,0,-1,-5,-7,4,0,-2,-1
1558453358758098,2,2,3,8,2,2,1,0
1558453358766043,-2,-4,-4,-6,5,6,-1,-2
1558453358766043,-7,-12,-7,-12,-5,-1,-3,-2
1558453358781233,1,4,5,10,-1,-4,1,0
1558453358781233,1,1,-2,2,-3,-1,-3,-2
1558453358781233,0,0,-2,-4,-5,-5,-1,-1
1558453358781233,0,2,2,1,1,-1,0,1
1558453358795197,-3,-2,-1,12,11,2,-4,-4
1558453358795197,-3,-3,-2,-2,-2,-2,-1,-2
1558453358803175,0,-2,-8,-27,-7,-2,-3,-1
1558453358803175,1,0,0,0,-4,-4,0,1
1558453358817139,0,-2,2,2,-5,-2,0,1
1558453358817139,-1,0,-5,-3,-1,-4,1,-1
1558453358826114,-1,-3,2,6,4,2,3,2
1558453358826114,3,3,1,-4,1,1,0,-1
1558453358841073,-1,-4,-4,-4,2,3,1,0
1558453358841073,2,1,7,13,-3,-1,-1,1
1558453358841073,0,3,2,3,-3,-2,-1,0
1558453358841073,5,6,-1,-4,-7,-7,-7,-3
1558453358855212,-6,-9,4,1,-3,0,6,0
1558453358855212,-2,1,3,6,6,0,-2,-1
1558453358863323,0,-1,-7,-9,-4,0,-3,-2
1558453358863323,-1,-1,-1,-2,-3,-1,-1,-1
1558453358886136,1,-2,-8,-10,-9,-6,-3,-1
1558453358886136,2,2,5,-3,2,1,-2,-1
1558453358887133,-3,-2,-2,3,-5,-5,-4,-1
1558453358887133,-2,-4,-2,-1,-2,2,0,0
1558453358909080,-2,1,1,4,-4,-2,-4,-3
1558453358909080,-2,-5,-13,-17,-6,-1,2,0
1558453358909080,0,-2,0,3,0,-7,-4,-2
1558453358909080,-2,-1,3,0,0,-2,2,-1
1558453358915058,0,0,4,5,3,4,-2,0
1558453358915058,0,1,5,3,-2,-2,0,-3
1558453358923039,1,0,0,4,1,2,2,0
1558453358923039,-1,0,-7,-9,-5,-7,-2,-1
1558453358936995,-2,-4,-3,-11,3,1,-2,-1
1558453358936995,1,3,-3,-1,1,-1,-3,-1
1558453358945971,-3,-5,1,3,-1,-5,-2,-2
1558453358945971,-11,-5,2,5,-3,1,-1,-5
1558453358959933,0,3,-3,-5,1,1,-1,-1
1558453358959933,0,-2,-1,-1,-5,0,5,1
1558453358967913,-2,-1,3,7,7,1,-1,0
1558453358967913,1,-1,-10,-8,-3,2,-1,-1
1558453358974894,0,-2,3,7,4,0,0,0
1558453358974894,-2,0,-5,-9,-5,-3,-6,-2
1558453358982875,-2,-5,1,4,-2,0,0,-2
1558453358982875,2,3,3,0,2,-1,1,1
1558453358997833,-3,-6,0,4,-3,-3,-2,-1
1558453358997833,0,2,-4,-6,-1,-1,0,-1
1558453359005817,1,1,6,11,7,0,-1,-1
1558453359005817,-2,-2,-4,-20,-2,0,-1,-1
1558453359020881,-3,-1,-4,-4,-3,-2,-1,-2
1558453359020881,-3,-1,3,10,3,1,-4,-2
1558453359021773,-2,0,-3,-9,-4,-3,-2,-1
1558453359021773,2,1,3,6,-4,-4,-1,1
1558453359034851,3,1,0,5,7,0,-1,1
1558453359034851,0,-4,2,1,1,2,2,2
1558453359043713,-8,-5,-5,1,1,5,1,0
1558453359043713,-1,1,-1,-1,-6,-6,-4,-4
1558453359057787,-3,-3,-3,1,0,2,1,-2
1558453359057787,0,-2,-7,-3,-4,-6,-1,-3
1558453359065654,2,5,5,2,0,-2,-3,1
1558453359065654,0,-7,2,16,-1,-1,-1,1
1558453359080340,1,5,-3,-9,-3,-7,-5,-2
1558453359080340,-1,0,2,3,2,2,2,0
1558453359081337,1,-3,0,3,-5,-4,0,-1
1558453359081337,0,2,0,2,3,0,-1,-2
1558453359095302,2,-1,3,8,-3,-1,-3,-3
1558453359095302,0,-2,0,-17,1,2,-1,3
1558453359103334,0,3,-8,-8,-10,1,-3,-5
1558453359103334,2,1,-1,0,3,-1,1,-1
1558453359117428,-3,-3,4,4,3,0,2,0
1558453359117428,-6,-3,0,2,-2,1,0,0
1558453359126217,0,-1,-4,-2,-2,-3,-2,-4
1558453359126217,-1,-1,-6,-12,-6,1,-1,-2
1558453359141177,-4,-4,2,9,3,-2,0,1
1558453359141177,1,-2,-7,-7,-2,-2,0,2
1558453359141177,-1,-1,1,-4,-3,0,0,3
1558453359141177,2,3,5,6,7,7,2,0
1558453359164117,1,-2,-13,-22,-9,-8,-1,0
1558453359164117,-2,-4,5,16,-2,-4,0,-1
1558453359164117,0,0,4,2,3,2,-1,-1
1558453359164117,-3,-3,-6,-4,-6,-7,-2,0
1558453359178081,-4,0,-3,-2,1,0,-1,-5
1558453359178081,-1,1,0,-10,-5,-3,-5,-3
1558453359186514,2,1,2,5,1,2,-1,-2
1558453359186514,-4,-6,-3,-2,-1,-2,-4,-2
1558453359201019,2,2,6,5,3,6,7,3
1558453359201019,0,0,-4,1,1,0,-2,-2
1558453359201019,-1,1,2,4,5,2,2,2
1558453359201019,-2,-1,1,4,-4,-3,-4,-2
1558453359214983,-5,-9,-8,-11,-5,-3,-4,-1
1558453359214983,-2,-1,2,-1,-3,0,0,-3
1558453359223237,2,0,-4,-3,0,0,1,1
1558453359223237,1,2,4,6,5,1,3,0
1558453359237928,3,3,2,0,0,1,-1,3
1558453359237928,-7,-7,-6,-6,-1,5,1,-2
1558453359245895,2,-4,2,2,-2,-6,-3,0
1558453359245895,-1,-6,-8,-15,-1,3,3,2
1558453359260410,-1,3,-1,1,-3,1,-1,-3
1558453359260410,5,4,6,6,-1,-6,-3,-2
1558453359267954,-3,-5,-8,-15,-4,-1,-2,-1
1558453359267954,-2,-2,-2,1,5,3,0,-1
1558453359275055,-1,-2,1,5,-1,0,-2,1
1558453359275055,2,0,2,9,-1,-4,-2,-1
1558453359283060,-3,-3,0,2,0,-5,-2,0
1558453359283060,-1,1,0,2,-9,-11,-4,-3
1558453359297996,1,-1,-10,-13,1,1,-2,0
1558453359297996,1,0,-3,7,7,4,3,3
1558453359306007,-1,-4,0,-2,-1,2,1,1
1558453359306007,-4,-4,3,-3,-6,-6,-1,1
1558453359320052,0,-1,-1,10,-1,-3,-1,-1
1558453359320052,0,4,-6,-20,-4,-4,-7,-3
1558453359327867,1,1,1,8,0,2,2,-1
1558453359327867,0,0,-7,-4,0,3,1,1
1558453359335011,-9,-5,0,8,0,-2,-3,-5
1558453359335011,-2,-4,3,3,-3,1,-1,-2
1558453359343436,-4,-1,0,0,2,2,-1,-2
1558453359343436,1,3,0,0,0,1,-1,-1
1558453359357993,0,-5,2,4,-4,-6,-4,-2
1558453359357993,0,2,-1,3,-1,-1,0,1
1558453359365736,-2,1,-2,-6,-3,-5,-4,-1
1558453359365736,-1,0,-4,-2,1,1,2,0
1558453359380058,-1,-3,-7,-15,-3,-1,0,-2
1558453359380058,-1,-1,-4,0,-3,-2,-2,-1
1558453359388054,1,-4,0,0,-2,-1,1,0
1558453359388054,0,0,0,-1,-1,-7,-5,0
1558453359395089,-3,0,1,8,-2,0,-1,-1
1558453359395089,-4,-2,-1,-5,-2,-2,-1,-1
1558453359403008,1,0,2,4,-1,3,1,-2
1558453359403008,-1,0,-3,-5,4,4,-2,-1
1558453359417978,2,3,1,3,2,4,3,3
1558453359417978,1,-1,1,1,1,-2,-6,-4
1558453359425946,-2,0,-5,-8,-7,-4,1,-1
1558453359425946,-1,3,4,6,6,6,2,-3
1558453359439919,2,0,-5,-12,-2,-4,-2,-1
1558453359439919,-1,-1,5,7,-2,-3,0,2
1558453359447889,-4,-6,-6,-4,3,-1,-1,-2
1558453359447889,-1,-2,0,2,-3,-7,-4,-3
1558453359464069,0,5,4,-1,-1,-1,-1,-4
1558453359464069,-1,-4,-6,-29,-4,-2,0,0
1558453359464844,-1,-4,-5,-3,-2,-1,0,1
1558453359464844,-3,-3,1,-3,-3,4,0,-1
1558453359477807,-2,-5,1,10,-2,-5,-3,-1
1558453359477807,0,1,0,1,-3,-1,2,1
1558453359485796,2,5,2,-4,1,1,-1,-1
1558453359485796,-2,-8,-5,-5,-2,-3,-2,1
1558453359508725,2,-1,1,-4,-2,0,0,0
1558453359508725,-2,-2,-4,-8,-6,-2,0,-1
1558453359509724,-2,-4,-2,12,1,0,-5,-3
1558453359509724,0,5,2,-9,-4,-3,1,2
1558453359523902,-1,0,1,-2,-1,0,1,1
1558453359523902,1,1,6,9,5,2,0,-1
1558453359524879,-2,-1,-7,-1,-3,-5,-4,-3
1558453359524879,-8,-8,-4,5,3,0,0,-2
1558453359537694,1,-1,-1,-6,0,5,4,0
1558453359537694,0,0,-3,4,-2,-5,0,-1
1558453359545930,2,3,2,-2,-1,2,-1,1
1558453359545930,1,1,2,8,3,-1,-2,-3
1558453359559902,-2,1,3,1,-1,-1,-1,0
1558453359559902,-3,-4,-9,-2,-5,-3,-3,-4
1558453359568579,0,1,-3,-6,4,1,-1,-1
1558453359568579,0,-5,0,8,2,1,0,0
1558453359584003,-1,-2,-1,-15,-3,-3,-2,-1
1558453359584003,1,1,4,7,2,2,-1,0
1558453359584989,-5,-7,-3,-12,-7,-4,-2,-2
1558453359584989,3,0,0,5,2,-1,0,-2
1558453359597954,4,5,2,-5,-1,0,1,-1
1558453359597954,-1,-3,-1,-4,-3,-1,1,-2
1558453359606140,-2,1,3,4,3,3,0,-1
1558453359606140,0,0,1,-1,-7,0,1,0
1558453359619904,-1,1,-2,5,1,-4,-4,-2
1558453359619904,-2,-5,-5,1,4,5,1,1
1558453359627871,0,-2,-3,-7,1,-1,-2,0
1558453359627871,-6,-7,-4,5,-6,-2,-3,-3
1558453359644845,-3,0,-5,-13,-8,-6,-4,-3
1558453359644845,0,0,-2,-1,5,4,0,1
1558453359644845,-1,-2,-2,0,-3,-2,-2,-4
1558453359644845,1,4,3,-4,1,-2,-3,-2
1558453359657792,-3,-8,-12,-9,-4,-3,-3,-2
1558453359657792,1,5,7,20,11,5,2,1
1558453359672763,1,0,-8,-30,-12,-5,1,0
1558453359672763,-5,-7,-3,-3,-3,-3,-3,-3
1558453359680016,1,2,6,10,7,6,2,1
1558453359680016,-1,-4,1,-5,-3,-3,1,-1
1558453359695620,1,5,5,7,-2,-4,-2,1
1558453359695620,1,2,-4,-5,-4,-2,1,1
1558453359703909,-1,-3,-3,-4,10,4,2,0
1558453359703909,0,-3,4,11,0,2,-1,-1
1558453359704590,-3,-1,1,2,-3,-3,-4,-2
1558453359704590,-1,0,-4,-10,-3,-4,-4,0
1558453359717606,-2,-3,0,8,-2,-1,-2,-1
1558453359717606,0,1,-2,-6,2,3,0,-1
1558453359725536,-1,-2,5,9,-2,-6,-2,-1
1558453359725536,3,2,-2,2,1,3,0,-2
1558453359740494,-7,-4,-7,-12,-5,0,1,0
1558453359740494,-1,-2,5,5,-2,-5,-3,0
1558453359748473,-3,-3,-9,-5,-3,0,-1,-2
1558453359748473,1,2,2,-5,-1,-3,-1,2
1558453359763439,1,2,6,5,0,-2,-2,-1
1558453359763439,-3,-2,-10,-13,-7,-4,0,-2
1558453359763439,-4,-5,4,12,9,6,1,-1
1558453359763439,-1,0,-2,-10,-5,-1,-2,-3
1558453359777639,-2,-3,-1,4,1,1,4,1
1558453359777639,0,-2,-1,-3,-1,-2,0,0
1558453359785468,1,2,1,-4,1,-1,-1,1
1558453359785468,1,-1,-4,-1,-1,1,-4,-1
1558453359800427,0,3,-3,2,-6,-3,-1,0
1558453359800427,-5,-4,-3,-3,0,-3,-3,-5
1558453359808427,0,0,0,-4,-1,1,1,1
1558453359808427,-3,-4,-5,-13,-6,-4,0,-1
1558453359822370,0,-2,1,-1,3,2,-1,-1
1558453359822370,2,2,-3,0,-4,-6,-6,-2
1558453359831344,-7,-8,-1,5,0,0,0,-2
1558453359831344,2,7,7,16,0,-1,1,-1
1558453359837331,-1,-4,-11,-11,0,0,-4,-1
1558453359837331,-3,-5,-1,-2,-6,-6,-2,0
1558453359846304,4,3,0,-1,-3,-5,0,0
1558453359846304,-2,-4,-3,-3,1,1,1,0
1558453359860269,-2,3,8,11,-1,-1,-1,-2
1558453359860269,0,-1,-9,-8,3,4,2,1
1558453359869244,-4,-3,-3,-4,-7,-7,-6,-2
1558453359869244,-1,0,-1,0,1,-2,-1,-1
1558453359882456,0,0,2,9,0,-3,-4,-1
1558453359882456,-4,-1,1,-13,-4,-1,-3,-2
1558453359891439,0,1,4,9,5,4,1,1
1558453359891439,-4,-6,-15,-29,-8,-2,-2,-2
1558453359897424,1,5,5,4,-2,2,-1,-3
1558453359897424,1,1,1,14,6,2,0,3
1558453359906399,-1,-4,-1,-3,0,0,-1,-2
1558453359906399,1,0,2,6,2,1,4,3
1558453359920362,-2,-7,-1,-5,-8,-3,0,-1
1558453359920362,-1,3,-1,-3,0,1,-2,-2
1558453359929075,2,0,1,6,-4,-6,-4,-2
1558453359929075,-1,-3,-3,-1,12,14,4,3
1558453359942301,-4,-1,-8,-1,-1,-6,0,-3
1558453359942301,1,-1,1,-13,-4,-3,-1,-1
1558453359951468,-1,-3,1,11,6,4,1,-1
1558453359951468,2,0,-5,-19,-9,-5,-4,-3
1558453359957358,-2,-2,1,2,-1,0,-1,-2
1558453359957358,-3,-4,-4,7,0,-2,-3,-3
1558453359974221,-1,-2,-5,1,0,-4,-1,0
1558453359974221,0,1,4,5,-3,0,-4,-1
1558453359980204,-2,-4,-3,-6,4,3,0,2
1558453359980204,-5,-3,0,5,-4,-3,-2,-4
1558453359996317,-1,2,-8,-14,-5,-1,0,1
1558453359996317,-1,1,2,12,1,-3,-2,-2
1558453360002310,0,-3,-3,-6,-6,-4,1,1
1558453360002310,-1,4,7,4,1,0,-4,-2
1558453360019259,-4,-6,-6,-4,-4,-6,0,-1
1558453360019259,0,-2,-1,-15,4,5,3,2
1558453360026238,1,1,1,-4,-10,-11,-6,-4
1558453360026238,1,-4,1,7,10,9,6,3
1558453360027322,-2,3,-2,-6,0,2,0,0
1558453360027322,-2,-2,8,17,3,-2,-3,1
1558453360040203,-8,-7,-7,-7,-6,-2,-5,-4
1558453360040203,6,7,-5,-7,-4,-4,-1,-2
1558453360049178,-1,-3,5,8,3,0,-2,-1
1558453360049178,-5,-5,-11,-15,-11,-3,-1,-3
1558453360062140,5,3,-1,2,10,1,3,0
1558453360062140,-3,-1,0,3,-7,-5,-3,-2
1558453360071119,1,1,0,-3,-2,1,-1,-1
1558453360071119,0,0,6,17,1,-1,-2,-1
1558453360078097,-6,-5,-7,-1,-4,-1,-6,-6
1558453360078097,0,-3,-3,-7,-4,-1,1,3
1558453360086198,0,2,0,-5,3,-1,0,0
1558453360086198,-4,-8,2,9,2,1,0,-2
1558453360100202,-1,-2,-3,12,5,5,3,1
1558453360100202,0,-1,4,-3,0,2,-1,1
1558453360109129,-1,0,-1,5,-5,-4,-5,-2
1558453360109129,1,1,2,3,8,3,4,2
1558453360122099,4,5,-1,-9,-8,-7,-3,0
1558453360122099,-2,-1,6,14,9,3,4,1
1558453360131167,2,-2,-2,-11,-6,1,2,-2
1558453360131167,-1,-2,-4,1,-7,-8,-5,-3
1558453360138079,-4,-5,1,1,1,2,3,1
1558453360138079,0,0,-2,-4,-2,-1,-2,-2
1558453360146027,-1,1,1,8,-2,-3,-1,-4
1558453360146027,-1,-1,1,0,3,4,0,0
1558453360160045,3,1,-1,-2,-1,0,-1,2
1558453360160045,0,-2,-1,1,3,1,-1,1
1558453360168968,0,1,1,1,2,4,1,3
1558453360168968,0,1,1,3,-7,-5,0,-1
1558453360183356,-2,-2,-4,-12,-4,-2,3,1
1558453360183356,-2,-1,-2,-3,-4,-5,-2,-3
1558453360191346,-1,-5,-1,-1,1,5,0,0
1558453360191346,-2,-1,-5,-7,8,2,-1,0
1558453360197338,1,-2,2,-7,-2,-3,-3,-2
1558453360197338,-5,-6,-4,3,-7,-3,-2,-2
1558453360206308,0,0,-5,-10,0,-4,-1,0
1558453360206308,0,0,2,5,-2,-2,-3,0
1558453360229245,0,-1,-5,-3,-1,3,0,-1
1558453360229245,-3,0,-3,-5,-7,-7,-9,-5
1558453360230244,-2,-3,1,5,2,-1,-1,0
1558453360230244,-1,-3,-7,-4,0,3,2,-2
1558453360251451,0,2,0,-5,-3,-4,-3,-2
1558453360251451,2,1,-2,1,2,3,2,1
1558453360253184,-3,-3,1,0,-5,-3,0,-2
1558453360253184,3,2,-6,-12,2,-4,-2,-2
1558453360257173,-7,-5,2,7,3,2,0,-1
1558453360257173,-4,-6,-4,-14,-10,-6,-1,0
1558453360266150,0,0,-2,3,-1,0,-1,-2
1558453360266150,2,4,1,-3,-5,1,2,1
1558453360280110,1,-1,3,5,2,3,-1,1
1558453360280110,-1,-4,-4,-1,6,-1,-3,-2
1558453360289284,-2,-3,-5,-4,-5,-4,2,-1
1558453360289284,-2,-1,2,3,-3,-4,-4,-3
1558453360302250,2,2,-2,4,4,0,2,1
1558453360302250,-3,-3,-6,-16,-9,-7,-5,-6
1558453360311654,4,6,-1,2,10,6,5,2
1558453360311654,-3,-6,-1,1,-5,-4,-1,0
1558453360326186,-2,3,5,8,1,-4,-3,-2
1558453360326186,-4,-7,-5,-1,2,5,1,2
1558453360328179,-1,0,-2,-15,-6,-5,-3,-2
1558453360328179,-2,1,-3,4,1,-2,1,-1
1558453360340147,3,5,5,8,5,-3,-2,3
1558453360340147,3,1,0,-5,-1,2,4,2
1558453360356115,-9,-11,-1,-1,-3,-4,-4,-3
1558453360356115,0,3,-1,3,4,3,0,0
1558453360362863,0,-2,-2,-18,-9,-3,-2,-3
1558453360362863,2,3,2,3,2,1,3,2
1558453360371076,-1,-2,-2,2,-3,-4,-3,0
1558453360371076,-2,-1,6,4,-7,-6,-4,-5
1558453360386310,0,-4,-6,-9,-1,6,4,1
1558453360386310,1,2,6,11,3,3,1,-1
1558453360388134,0,-4,-10,-22,2,4,3,1
1558453360388134,-2,0,6,12,-1,-6,-2,0
1558453360400101,-1,-5,-6,-5,-2,-2,-1,-2
1558453360400101,-2,-4,-5,-5,-2,2,2,2
1558453360409082,-2,-3,2,6,0,-5,-8,-5
1558453360409082,-2,-1,-3,1,-2,1,0,0
1558453360422044,-1,1,0,-3,-6,-4,-3,-1
1558453360422044,1,3,-1,4,2,-1,-1,-1
1558453360431021,-1,-2,3,9,3,3,0,1
1558453360431021,2,-1,-6,-21,-3,1,1,-1
1558453360446976,-11,-10,0,6,0,-3,-3,-6
1558453360446976,1,-1,0,5,6,2,-2,-1
1558453360448110,3,6,-1,-1,-8,-4,4,2
1558453360448110,0,-3,-2,-5,1,1,-1,-2
1558453360459944,0,4,1,11,0,-3,2,2
1558453360459944,-4,-4,3,-4,3,2,3,1
1558453360468920,-3,0,-9,-15,-4,-2,-5,-5
1558453360468920,3,3,5,0,0,-2,0,1
1558453360482881,-2,-5,-12,-7,-6,-2,-1,-2
1558453360482881,-2,-2,1,12,1,-3,-1,-3
1558453360491858,0,-5,-1,-4,-1,1,-1,-1
1558453360491858,-1,0,-2,0,2,-2,0,0
1558453360506816,0,1,-2,-4,0,-1,-3,-1
1558453360506816,0,-2,1,2,-1,-1,1,0
1558453360507815,-1,-2,-2,8,3,2,-2,1
1558453360507815,-1,1,-1,-3,-1,1,-3,-2
1558453360528756,-2,-6,-4,-2,3,2,1,2
1558453360528756,1,2,-1,-7,-4,-5,1,-2
1558453360529879,-2,-3,-2,-5,-5,-4,-1,-4
1558453360529879,3,1,3,5,4,-2,-2,1
1558453360551697,-3,-1,-3,0,2,-2,0,-1
1558453360551697,-2,0,-3,-6,-8,-8,-5,-5
1558453360553170,2,2,-3,-1,-5,-3,-1,-1
1558453360553170,-2,-9,-4,0,0,1,1,-1
1558453360566675,3,7,12,9,-2,1,-1,-2
1558453360566675,-4,-4,-11,-12,-4,2,-3,-3
1558453360567655,-2,2,0,0,1,0,-1,0
1558453360567655,-2,-1,-1,-3,-5,-2,-1,-1
1558453360579624,-2,-4,-3,2,-3,-6,-2,-1
1558453360579624,1,0,1,5,3,2,-1,1
1558453360588599,-2,-2,-4,4,3,1,0,-1
1558453360588599,-7,-6,-4,-10,0,2,-3,-5
1558453360602640,0,-1,-5,-8,-9,-4,1,0
1558453360602640,0,1,1,0,5,3,1,1
1558453360611535,0,1,4,6,-2,-3,-2,-1
1558453360611535,-4,-6,-2,-4,-3,-2,-3,-3
1558453360627983,1,6,5,7,-1,-4,-3,-5
1558453360627983,-2,-2,-4,-21,-5,2,1,-1
1558453360632482,-1,-5,-2,-4,-1,-4,0,1
1558453360632482,1,1,-1,6,-1,1,1,2
1558453360639462,-9,-13,-1,-1,-1,2,0,-2
1558453360639462,1,2,-1,-2,-3,-8,-5,-1
1558453360648440,1,2,2,10,3,2,-2,-3
1558453360648440,1,2,-5,-7,3,3,2,-1
1558453360662405,1,-1,-6,-10,0,3,0,-1
1558453360662405,-2,-9,1,13,-3,-5,-5,-2
1558453360671378,-2,0,-7,-12,0,-1,1,3
1558453360671378,-1,2,0,-1,-2,-2,0,-1
1558453360685339,0,2,4,2,2,1,0,-3
1558453360685339,-1,-1,1,6,0,1,2,-2
1558453360693791,0,-2,1,6,1,-2,-3,-4
1558453360693791,-1,-2,-3,-5,-4,-3,0,3
1558453360699427,-2,1,0,-1,6,5,2,-2
1558453360699427,0,2,0,-3,-6,-5,0,1
1558453360709398,-5,-6,-1,0,1,2,0,-2
1558453360709398,-2,3,2,6,1,-6,-6,-3
1558453360722719,1,-2,-8,-13,-5,-3,-3,1
1558453360722719,4,5,1,2,2,4,0,0
1558453360731337,-2,-6,-1,1,-7,-2,-2,0
1558453360731337,-3,-2,0,3,7,3,2,-3
1558453360746299,2,3,0,1,3,-2,-1,1
1558453360746299,-3,-2,2,4,1,-2,-2,-1
1558453360747497,2,3,1,-3,-3,0,1,0
1558453360747497,-1,-2,-2,-4,-5,-1,-2,-1
1558453360760289,0,1,2,9,4,-1,-2,-3
1558453360760289,-5,-6,-6,-13,-6,0,-4,-2
1558453360768238,0,1,1,3,4,2,0,1
1558453360768238,-4,-5,2,-2,-9,-7,-4,-2
1558453360782200,-2,0,4,7,-1,0,-1,-2
1558453360782200,0,1,3,10,3,2,1,1
1558453360791204,0,0,-4,-13,-6,0,-1,0
1558453360791204,0,-1,-4,7,-2,-3,-2,0
1558453360807167,1,0,2,6,0,1,0,1
1558453360807167,-2,-1,-7,-13,-3,-3,1,-1
1558453360808159,-5,-4,-2,-1,-2,-6,-2,-4
1558453360808159,0,0,-1,-3,-4,-5,-6,-3
1558453360829105,5,1,1,2,-1,3,7,5
1558453360829105,-6,-4,2,9,6,3,1,0
1558453360830104,2,4,-2,-5,-1,-2,-4,-3
1558453360830104,-1,-3,1,1,0,1,2,2
1558453360842071,0,-2,1,2,-4,-5,-5,-2
1558453360842071,1,1,-3,-5,-4,-3,-1,-3
1558453360859028,-1,-1,3,8,1,-4,-1,0
1558453360859028,1,4,5,3,-2,0,0,-1
1558453360866009,-3,-4,-12,-14,-5,-4,-2,-1
1558453360866009,1,1,5,7,6,1,0,3
1558453360868002,-4,-5,-7,-1,-1,1,-1,-2
1558453360868002,0,0,-3,-3,-5,-2,2,-1
1558453360880085,-1,3,7,1,-2,1,-1,-2
1558453360880085,-3,-8,-8,-6,0,-4,-1,-2
1558453360889106,1,1,-2,-1,-11,-5,-1,0
1558453360889106,4,6,4,-3,4,3,2,2
1558453360902071,-1,-4,0,6,5,1,-1,1
1558453360902071,1,-1,-5,-12,-6,-4,-4,-2
1558453360912042,0,2,3,3,1,2,-1,1
1558453360912042,-2,-6,-9,-5,-5,-3,-1,-4
1558453360926108,-4,0,2,-7,-4,-2,-1,-1
1558453360926108,0,1,-1,5,0,0,2,1
1558453360927999,-2,-2,-1,0,4,4,2,-1
1558453360927999,-2,-3,1,-2,-1,0,1,1
1558453360939970,0,1,-4,-6,0,1,-4,-3
1558453360939970,1,1,-4,-5,-5,0,-1,0
1558453360948944,0,4,12,16,7,1,-3,-2
1558453360948944,-5,-6,-28,-29,-5,-2,-2,-4
1558453360962907,-2,-3,-2,2,2,1,-1,-3
1558453360962907,-3,-8,4,8,-6,-10,-3,1
1558453360970887,-2,4,-8,-27,-9,-1,-2,-3
1558453360970887,2,2,3,3,4,1,1,1
1558453360984848,-2,-3,0,0,-3,-8,-6,-3
1558453360984848,-3,-1,-3,11,0,-2,0,-5
1558453360993353,-2,-8,0,-2,-1,-3,0,-1
1558453360993353,-3,-3,3,4,3,0,-3,-1
1558453360999403,1,4,-3,-10,-7,0,-1,0
1558453360999403,-2,1,2,5,2,1,0,-3
1558453361008310,0,-3,-1,1,1,0,0,0
1558453361008310,-1,-1,3,-1,-5,-5,-1,0
1558453361022274,0,-4,-5,0,-1,-3,1,0
1558453361022274,0,0,1,-3,-2,0,-1,-1
1558453361031250,-2,1,-5,-3,3,3,0,2
1558453361031250,-2,-2,-2,-2,1,-2,-3,-4
1558453361046208,3,3,9,3,2,3,0,4
1558453361046208,-4,-3,-12,-19,-8,-2,-3,-3
1558453361047205,-2,-2,0,2,4,1,-3,-4
1558453361047205,4,6,-2,3,-3,-2,4,3
1558453361060171,-1,-6,0,5,4,3,1,1
1558453361060171,-2,0,2,0,2,1,1,-3
1558453361069148,2,-1,2,1,-2,1,0,-1
1558453361069148,-3,-5,0,4,-5,-2,-2,-1
1558453361082116,-2,1,1,3,0,-1,1,-2
1558453361082116,2,-2,-12,-22,-7,-1,1,2
1558453361091089,3,1,2,2,6,-3,1,3
1558453361091089,-6,-3,0,3,-2,-2,-2,1
1558453361105051,-1,-2,-4,-3,-3,-4,0,-1
1558453361105051,-2,-1,1,-6,-7,-2,0,-2
1558453361112032,-2,-1,-2,10,2,-2,0,-1
1558453361112032,-1,-2,-5,-16,2,2,-1,-2
1558453361120017,-6,-7,-7,-18,-4,1,0,-2
1558453361120017,-1,1,3,11,2,-3,-6,-3
1558453361128986,0,2,0,-3,-7,-6,0,1
1558453361128986,0,-1,8,10,1,-1,0,1
1558453361150931,-4,0,-17,-8,1,1,-3,-2
1558453361150931,2,0,8,8,0,-3,4,3
1558453361152924,-2,-2,-2,-8,-1,-2,-4,0
1558453361152924,-4,-4,-3,10,1,3,2,-1
1558453361165889,0,1,-1,0,-2,-6,-2,-2
1558453361165889,2,3,3,2,0,-4,-4,0
1558453361172875,-3,-3,-7,-9,0,-2,1,-1
1558453361172875,-1,0,0,3,-2,2,-3,-1
1558453361179854,-3,-1,-2,-2,-5,-2,-4,-1
1558453361179854,-1,-1,-1,-5,2,1,-1,-2
1558453361188891,-2,-4,-2,-2,1,1,-1,-1
1558453361188891,2,3,-4,-3,-5,-5,-3,-3
1558453361202864,1,-1,5,2,-2,0,2,0
1558453361202864,-8,-6,1,7,5,0,-1,-2
1558453361211844,1,3,2,6,-4,0,1,0
1558453361211844,-5,-8,-12,-30,-1,-4,-5,-4
1558453361225806,1,3,3,10,-5,-10,-1,0
1558453361225806,-1,2,-4,-12,-2,-2,-4,-3
1558453361232786,0,-1,5,6,3,5,5,0
1558453361232786,-2,0,-5,2,0,1,1,-1
1558453361248855,-2,-4,-3,-1,-1,-3,-2,-1
1558453361248855,1,1,-1,-10,1,4,-2,-1
1558453361249739,-3,-3,-1,-2,2,0,0,-3
1558453361249739,1,-1,2,-5,-7,-8,-2,0
1558453361262712,-2,-3,-4,-2,-1,2,-1,-2
1558453361262712,1,0,-1,3,-5,-4,1,3
1558453361271678,-1,0,-2,-1,-2,2,-5,-1
1558453361271678,1,-2,2,11,1,0,0,2
1558453361285642,-3,-4,-2,-9,-3,-2,-2,-2
1558453361285642,4,5,-1,0,-3,-5,-2,-1
1558453361293433,-1,-1,0,1,1,5,1,1
1558453361293433,2,1,5,7,2,3,-1,-1
1558453361308583,-4,0,2,-4,1,-3,0,-3
1558453361308583,-3,-10,-10,1,1,0,0,-2
1558453361310576,1,0,1,0,-4,-7,0,0
1558453361310576,0,-1,-1,-4,-3,-2,-1,-2
1558453361322543,2,3,5,-7,5,4,1,1
1558453361322543,-2,-2,-10,-3,-1,3,1,0
1558453361331518,-5,-5,1,4,-6,-4,-3,-4
1558453361331518,1,2,6,1,3,4,1,-1
1558453361345530,3,2,3,9,2,-1,-1,0
1558453361345530,-2,-2,-5,-3,3,2,0,1
1558453361359445,-2,-4,-2,-2,-6,1,-1,-1
1558453361359445,-3,-8,-6,2,-1,-5,-2,-1
1558453361368420,-2,-2,-3,0,-2,-3,-2,0
1558453361368420,1,1,4,3,-1,1,2,0
1558453361370413,3,4,-3,-7,1,-2,-2,-1
1558453361370413,-3,-4,3,7,-1,1,0,1
1558453361382514,-1,1,-2,7,-3,-5,-3,-3
1558453361382514,-1,-4,0,-12,-7,-2,-3,-1
1558453361390751,-2,1,-5,-7,-5,-2,-2,-3
1558453361390751,0,3,0,6,5,0,-2,0
1558453361405703,-2,-5,-4,-11,-3,1,1,1
1558453361405703,-3,1,9,6,-1,-2,-2,-2
1558453361412796,-3,-9,-11,5,-4,-7,-1,1
1558453361412796,-5,-4,-4,-7,-3,0,0,-3
1558453361428648,4,4,3,5,3,5,1,-2
1558453361428648,-1,4,7,6,-3,-3,-2,-3
1558453361430639,0,-1,-6,-17,-5,-4,-2,-1
1558453361430639,-1,-2,1,8,5,1,1,0
1558453361442604,-2,-1,-1,-1,-2,-3,-4,-1
1558453361442604,0,1,0,-1,3,-3,2,-2
1558453361451582,-2,0,0,0,3,5,-1,-3
1558453361451582,0,-1,2,-4,-6,-5,-3,-2
1558453361465634,-3,-7,-11,-14,-8,-3,-1,2
1558453361465634,-1,-3,0,6,-1,-1,-1,-1
1558453361472595,0,4,-2,-4,-3,-4,-1,-2
1558453361472595,1,4,0,-12,0,-1,1,2
1558453361488484,2,1,7,13,12,7,3,0
1558453361488484,0,-5,-9,-13,-4,-2,-2,1
1558453361489484,1,-3,-6,1,-5,1,3,2
1558453361489484,0,3,0,-4,-5,-7,-3,0
1558453361502881,0,-3,-2,2,0,-4,-2,0
1558453361502881,-1,0,1,-2,3,2,2,0
1558453361511596,-1,-3,5,5,4,2,0,-3
1558453361511596,-4,0,-5,-4,-3,-1,-4,-4
1558453361525596,2,3,4,3,-3,-1,-3,0
1558453361525596,-6,-6,-7,-2,-1,1,3,0
1558453361532538,0,1,0,-8,-3,-1,-1,2
1558453361532538,1,-1,6,11,3,-1,-1,-3
1558453361548492,-3,-3,-3,-15,-2,-1,-3,-3
1558453361548492,-1,0,-2,-3,-2,2,-1,-2
1558453361550488,0,2,3,11,1,0,-1,-2
1558453361550488,-1,-10,-13,-15,-9,-4,-2,-2
1558453361562456,1,4,-4,-1,-2,-2,1,-2
1558453361562456,2,-1,3,-2,-3,-1,-2,-1
1558453361571432,-4,-5,-2,0,-3,-4,-3,0
1558453361571432,2,1,1,1,-1,2,2,0
1558453361585394,0,1,7,10,4,2,0,-1
1558453361585394,-2,-2,-9,1,0,0,0,0
1558453361592407,-3,-6,0,-12,-5,-2,-3,-3
1558453361592407,1,2,0,3,3,8,1,1
1558453361616541,-2,-5,-5,-5,-3,-3,-1,-1
1558453361616541,4,8,8,8,1,-1,-3,-3
1558453361617337,-3,-7,-8,-10,2,1,0,2
1558453361617337,1,-1,1,2,-1,-4,-1,-2
1558453361622323,-2,1,-1,-3,-4,2,2,-1
1558453361622323,0,-2,-1,0,1,-2,0,0
1558453361638280,3,1,-1,8,1,-2,0,-3
1558453361638280,-7,-7,-3,-8,1,-1,-5,-1
1558453361645262,-7,-6,-3,0,2,-1,2,-2
1558453361645262,1,-2,1,6,4,1,0,1
1558453361652653,0,2,-4,-11,-4,0,-1,-2
1558453361652653,1,1,-2,-3,-3,-3,-2,-1
1558453361668253,-1,-1,3,6,1,0,-2,1
1558453361668253,-4,-2,-2,-6,-1,-2,-2,-3
1558453361670248,2,1,5,13,5,-4,-4,-1
1558453361670248,-3,-1,-7,-2,-1,1,0,-3
1558453361682462,-2,-7,-7,-1,-9,-6,-3,-2
1558453361682462,-2,0,-2,-16,-8,-1,-1,-3
1558453361691139,-2,1,3,2,3,1,0,-1
1558453361691139,0,0,-1,-1,-3,-3,0,0
1558453361705230,1,1,-2,5,-8,-6,-4,-3
1558453361705230,-3,-1,5,7,1,-1,-1,-2
1558453361714078,-1,3,-7,-3,-2,-3,2,0
1558453361714078,2,3,-1,-3,3,3,0,-1
1558453361736021,-3,-9,-3,-9,0,-1,-1,0
1558453361736021,3,1,4,2,1,3,-1,1
1558453361738015,0,1,1,0,-4,-1,-1,3
1558453361738015,-4,-4,-1,-1,1,-1,-2,-1
1558453361742032,5,6,1,4,1,2,-2,0
1558453361742032,-3,-5,2,14,9,4,3,1
1558453361751168,-2,-7,-12,-26,-11,-3,-3,-3
1558453361751168,1,2,1,1,1,4,3,0
1558453361764941,-2,-1,3,10,-4,-3,-1,-2
1558453361764941,0,0,-4,-3,-4,-4,-2,-2
1558453361774006,0,3,3,2,4,0,-5,-3
1558453361774006,0,-4,0,4,-2,0,3,0
1558453361788881,-2,0,4,-3,0,-2,-1,-4
1558453361788881,0,1,-11,-4,7,2,0,1
1558453361789876,-2,-1,3,5,-2,2,2,2
1558453361789876,-1,-4,0,2,-4,-4,-3,0
1558453361801908,5,4,1,-2,4,-1,-1,1
1558453361801908,-3,-3,0,7,-4,-2,-1,-1
1558453361810885,-1,0,-4,-11,-4,0,-2,-1
1558453361810885,-5,-4,-1,9,-1,-4,-5,-3
1558453361824849,-1,1,-6,-10,-1,4,2,0
1558453361824849,3,0,4,9,2,-1,-1,1
1558453361833823,-1,-2,-2,1,-6,-4,-2,-3
1558453361833823,-1,0,4,4,0,-3,1,-1
1558453361848784,-2,-4,-4,-7,-3,-1,0,0
1558453361848784,0,-1,-3,-11,-5,-4,-4,0
1558453361850592,-3,-4,8,22,3,1,1,0
1558453361850592,1,0,-13,-15,-4,1,0,1
1558453361862745,-1,-1,-4,-3,1,3,4,2
1558453361862745,-4,-5,-1,-1,1,1,0,1
1558453361871348,3,2,8,2,2,0,0,0
1558453361871348,1,0,-11,-1,2,-2,-3,-2
1558453361884725,-3,-5,-3,-14,-1,-4,-5,-4
1558453361884725,-1,3,2,0,-2,1,2,0
1558453361893667,2,5,4,8,1,-5,-4,-3
1558453361893667,-4,-6,-3,-10,-3,-3,0,-3
1558453361907626,-3,-1,0,6,2,0,-2,-2
1558453361907626,-1,-3,-3,-2,-1,-6,-2,-6
1558453361914610,-5,-6,-7,-12,-6,1,0,-2
1558453361914610,4,7,10,7,1,-3,-1,2
1558453361922587,-1,-2,-5,1,-4,-2,-2,-1
1558453361922587,-1,-1,1,-3,-5,-4,-2,-1
1558453361931562,2,2,-3,0,3,2,2,2
1558453361931562,-3,-4,0,3,-3,-3,-2,-3
1558453361944529,-3,-3,-5,-8,-4,-5,-2,-4
1558453361944529,1,1,-1,-8,-4,-2,-2,0
1558453361953505,-1,0,-1,5,3,0,-2,-2
1558453361953505,-3,-4,-2,-4,-7,-5,-1,-2
1558453361968631,-2,0,-3,2,-5,-4,-1,-3
1558453361968631,-2,-5,-3,-4,7,4,0,0
1558453361970533,-1,0,0,3,-1,-4,-1,0
1558453361970533,-3,-3,-6,-6,-4,1,2,-2
1558453361982430,-1,0,-1,-3,-4,2,-2,0
1558453361982430,0,3,-1,5,2,1,0,0
1558453361991403,1,2,-1,-2,-1,2,-1,-1
1558453361991403,0,-4,6,1,1,-4,0,2
1558453362005365,-8,-9,-1,0,4,5,1,-1
1558453362005365,-1,-4,-7,-25,-13,-7,-4,-3
1558453362013560,1,0,-5,7,4,1,1,1
1558453362013560,2,7,6,6,5,-1,-1,-4
