timestamp,emg1,emg2,emg3,emg4,emg5,emg6,emg7,emg8
1558451843384247,2,4,2,7,-2,0,0,0
1558451843384247,-2,-2,-4,-4,-1,-1,-2,0
1558451843384247,2,-2,-5,-3,4,3,2,0
1558451843384247,2,4,4,3,-1,-3,0,-1
1558451843385245,1,-4,-1,-3,-2,0,-1,0
1558451843385245,-1,-3,11,17,4,3,1,1
1558451843386562,-6,0,-19,-29,-9,-4,-5,-4
1558451843386562,-5,-6,-4,-6,-3,-2,-4,-2
1558451843400900,-2,-2,-1,-8,-2,-1,-2,-3
1558451843400900,3,2,2,7,2,1,-1,-3
1558451843405024,-2,-3,7,10,1,1,2,0
1558451843405024,-3,-1,-11,-7,-6,-6,-4,-3
1558451843413003,-1,2,4,1,1,-3,0,-3
1558451843413003,0,3,-7,-14,-2,1,-2,-3
1558451843427694,-4,-7,-4,-3,-5,1,-1,1
1558451843427694,2,3,8,5,1,-1,-1,-1
1558451843434906,-3,-7,-9,-4,3,0,0,-2
1558451843434906,-3,-6,-9,-16,-10,-5,-4,-2
1558451843443408,1,-3,4,7,2,-1,2,0
1558451843443408,3,3,5,7,1,3,0,0
1558451843457537,-1,3,2,-3,-3,-2,-4,-4
1558451843457537,-1,-4,-9,-4,-3,-3,-1,-3
1558451843465507,-1,3,5,5,1,-2,-4,-2
1558451843465507,-5,-10,-2,-1,1,0,1,-2
1558451843513030,-1,0,-1,5,4,-1,-1,-2
1558451843513030,0,1,1,-4,-1,-2,0,0
1558451843513030,-3,-3,-4,-3,-7,-7,-5,-3
1558451843513030,6,0,4,-3,3,1,3,2
1558451843514030,-8,-3,-1,3,-1,3,1,-1
1558451843514030,1,2,3,-8,-1,-3,-5,-3
1558451843516976,-1,2,0,-3,-3,-3,-4,-3
1558451843516976,-2,-4,-12,-13,-4,-4,-5,-3
1558451843524902,0,1,0,1,-2,1,0,0
1558451843524902,-1,-4,3,12,1,3,3,2
1558451843532161,0,6,6,10,0,-2,1,-1
1558451843532161,-1,3,-13,-13,-2,3,0,-1
1558451843538834,1,-9,-1,-2,0,2,3,3
1558451843538834,-2,1,-3,4,-2,-3,-3,-3
1558451843562250,2,0,5,7,3,0,2,1
1558451843562250,-6,-6,-9,-1,-4,-1,-3,-4
1558451843563247,-1,1,-4,-4,-7,-6,-5,-3
1558451843563247,0,1,-4,-4,0,0,1,1
1558451843577158,1,1,0,-9,3,3,4,4
1558451843577158,-3,-5,3,9,-2,-3,-2,-2
1558451843585338,-1,-2,-1,-5,1,1,-4,-4
1558451843585338,-3,-5,-4,-2,-3,-2,-1,-2
1558451843592190,0,1,1,-2,-3,-3,0,0
1558451843592190,-2,0,-1,0,-2,-6,-2,0
1558451843599356,2,1,6,7,5,4,0,0
1558451843599356,-3,-4,-6,-5,-5,-3,-1,-1
1558451843615833,0,0,4,15,2,1,0,0
1558451843615833,-3,0,-10,-18,-11,-6,-3,-3
1558451843622185,-1,-7,4,8,2,-1,1,-1
1558451843622185,1,-3,-10,-22,-5,-1,-2,0
1558451843636675,-8,-5,2,0,0,0,0,-4
1558451843636675,-1,-2,0,6,0,2,-5,-4
1558451843644888,4,8,7,6,8,2,5,3
1558451843644888,-2,-1,-4,-5,-4,-2,-3,-1
1558451843651635,-1,-10,-16,-10,-6,0,-2,-2
1558451843651635,0,-2,5,5,3,3,5,1
1558451843659612,1,-1,-3,-6,-2,-4,-4,-1
1558451843659612,-2,1,10,13,8,3,2,-1
1558451843674632,3,2,10,4,-2,-3,-4,1
1558451843674632,-1,-3,-24,-24,-5,-2,-1,-1
1558451843681553,-6,-8,-8,-15,-2,1,1,-1
1558451843681553,3,4,6,9,2,-4,0,0
1558451843696514,-2,2,-6,-7,0,-1,-3,-2
1558451843696514,0,-1,14,16,7,4,2,1
1558451843704492,0,0,0,5,-9,-6,-1,-3
1558451843704492,-5,-8,-11,-18,-10,-4,-1,-1
1558451843711665,0,-1,4,4,3,-1,1,0
1558451843711665,2,4,9,10,4,4,2,4
1558451843727476,-4,0,-10,-8,-4,-1,-2,-4
1558451843727476,-1,-7,4,11,3,5,3,-1
1558451843734456,0,1,-4,-7,-2,-3,-4,-2
1558451843734456,0,-1,4,4,-3,-4,0,-1
1558451843742176,0,0,-4,-6,1,-1,-3,-2
1558451843742176,0,5,5,9,-4,-4,-2,-1
1558451843756522,0,1,4,6,8,8,5,0
1558451843756522,0,-13,-25,-12,-3,1,1,0
1558451843765375,-7,-6,0,-8,-6,-3,-4,-2
1558451843765375,1,2,-1,2,0,0,-5,-3
1558451843771508,-4,-4,4,3,-1,-2,-2,-2
1558451843771508,1,6,16,16,6,5,0,0
1558451843779337,6,4,-3,3,-5,-6,-1,0
1558451843779337,0,1,-2,-4,-1,-1,-1,0
1558451843794309,1,0,-7,-9,-5,0,-2,-1
1558451843794309,-1,-6,6,1,-4,-3,1,-2
1558451843801344,-2,1,1,4,7,3,1,1
1558451843801344,0,3,5,2,0,-1,-2,-1
1558451843816446,1,-6,-6,0,-1,1,1,-1
1558451843816446,-1,3,-7,-10,-6,-8,-5,-3
1558451843824365,-2,1,-1,0,-6,-5,-3,-4
1558451843824365,1,-2,1,3,6,6,2,0
1558451843831334,0,-3,-10,-3,-2,-2,-1,0
1558451843831334,0,2,5,0,0,0,-3,-1
1558451843839312,1,0,-5,-7,-5,-4,-1,1
1558451843839312,-1,-3,-3,4,-2,-5,-5,-5
1558451843854333,-4,-6,-5,-10,-5,-5,-3,-1
1558451843854333,-1,0,7,8,4,4,1,0
1558451843861304,0,3,5,2,5,2,1,1
1558451843861304,-7,-7,-3,-7,-7,-4,-3,-4
1558451843876663,3,5,5,3,1,0,-5,-1
1558451843876663,-1,2,-7,-7,-2,0,0,1
1558451843885192,-9,-11,-3,2,0,-1,-1,-3
1558451843885192,5,5,5,2,-1,-1,1,0
1558451843892171,-4,-4,-4,5,2,-2,-3,-3
1558451843892171,1,2,8,4,-1,-4,-1,-1
1558451843907131,-1,-3,-6,-4,0,1,-3,-2
1558451843907131,-1,-2,-2,3,-1,-1,-1,1
1558451843914113,-5,-9,-8,-19,-3,2,4,-4
1558451843914113,-1,2,-8,-13,-6,-6,-2,1
1558451843921506,1,0,7,7,1,5,2,-1
1558451843921506,-2,2,-1,-2,0,-4,-1,-2
1558451843936514,-1,-11,-1,2,-3,-1,-3,0
1558451843936514,-1,0,0,0,-1,0,2,-1
1558451843944764,0,3,16,9,-3,-4,-1,1
1558451843944764,-3,-6,-33,-29,-6,-6,-4,-1
1558451843951452,1,7,9,8,-1,2,3,2
1558451843951452,-1,-3,-5,-5,-4,-3,-4,-4
1558451843967346,-2,-6,-5,-1,1,2,1,1
1558451843967346,-5,-6,1,4,-2,-1,1,0
1558451843974340,-1,6,-3,-9,0,-1,-1,-3
1558451843974340,-3,-1,3,6,-2,-2,0,-3
1558451843981309,5,6,-1,-4,-1,-2,-1,0
1558451843981309,1,2,14,10,-2,-1,2,4
1558451843998263,-2,-4,-15,-17,-1,0,3,2
1558451843998263,1,0,12,13,3,-2,-2,1
1558451844005279,-1,-2,-14,-18,-8,-2,-5,-5
1558451844005279,0,0,9,9,3,0,-3,-1
1558451844011228,0,1,6,2,3,-1,-2,-3
1558451844011228,-1,-3,-6,-6,-3,0,-1,0
1558451844027205,-2,1,5,4,-1,-3,3,0
1558451844027205,-1,1,-4,0,0,0,-2,-1
1558451844034188,-2,1,-4,-7,-8,-4,-1,-3
1558451844034188,-4,-5,0,1,2,0,-1,-2
1558451844042165,-3,-6,2,6,3,4,-3,-2
1558451844042165,2,4,1,-11,-1,0,0,-2
1558451844057125,3,1,2,4,0,-2,-3,0
1558451844057125,-1,0,6,4,-2,-4,-1,-3
1558451844065104,-1,2,-5,-9,-3,-1,-2,1
1558451844065104,-1,-8,-4,-2,0,0,-5,-3
1558451844072086,2,3,0,0,3,0,2,3
1558451844072086,-3,-4,-4,-5,-4,-7,-3,-3
1558451844087062,1,2,4,1,-4,-4,1,1
1558451844087062,-2,-1,0,3,6,8,3,1
1558451844094026,0,0,4,1,1,0,-1,-1
1558451844094026,0,1,-1,2,-3,0,-1,0
1558451844102151,-1,-3,-4,-1,0,-5,-3,-2
1558451844102151,0,-1,1,-1,-1,0,0,-1
1558451844116966,-1,-4,-8,1,-1,-2,-2,-3
1558451844116966,-3,-1,-3,0,3,5,2,-1
1558451844124473,0,3,14,17,2,-1,1,-2
1558451844124473,-5,-7,-34,-45,-13,-6,-6,-5
1558451844131454,-2,-1,5,11,-1,-4,-4,-3
1558451844131454,-1,0,8,2,5,6,3,2
1558451844147411,-2,-8,-22,-13,-4,-3,-3,-1
1558451844147411,2,8,12,15,7,4,0,-1
1558451844154393,-4,1,-1,-5,-5,-2,-1,-2
1558451844154393,-4,-5,0,3,3,0,-2,-3
1558451844163616,0,-7,-8,-11,-3,-4,-2,-4
1558451844163616,-3,4,4,6,1,1,4,0
1558451844176334,2,-5,-8,-5,-2,0,-2,0
1558451844176334,-1,-3,2,3,-2,-3,-2,-1
1558451844185310,1,5,6,3,2,5,3,3
1558451844185310,-2,-4,-9,-3,-9,-9,-5,-2
1558451844191296,-2,1,10,9,1,-3,0,-1
1558451844191296,3,5,-5,-3,-1,-5,-4,-2
1558451844207252,-2,-3,-9,-22,-5,2,2,1
1558451844207252,-6,-5,1,-3,-2,-2,-2,1
1558451844214443,-1,-4,-1,2,-4,-1,2,1
1558451844214443,0,-2,5,9,2,1,-2,-1
1558451844222155,2,3,-2,-21,-7,-2,1,-1
1558451844222155,0,2,3,2,1,2,1,0
1558451844236886,-5,-3,-9,-4,-1,-3,-3,-5
1558451844236886,1,-1,-6,-4,0,3,4,1
1558451844244999,-4,-2,12,15,2,-2,-6,-4
1558451844244999,2,2,-3,0,-3,-2,-2,0
1558451844251829,-3,0,3,0,-3,-4,-5,-2
1558451844251829,-3,-1,-5,-4,0,0,-1,-2
1558451844267788,1,2,-9,-8,-3,-5,-3,-2
1558451844267788,0,-2,9,10,6,1,-2,0
1558451844274642,-3,-1,-14,-19,-13,-5,-3,0
1558451844274642,-4,-3,0,-3,0,-2,-4,-2
1558451844281750,1,-2,2,10,1,2,1,0
1558451844281750,0,1,-3,0,5,0,-1,-3
1558451844297157,0,7,1,4,0,1,2,0
1558451844297157,-2,-4,0,-6,-5,-3,-1,0
1558451844304725,-4,-4,-4,-2,-1,-4,-5,-4
1558451844304725,-5,-10,-6,3,0,-1,0,-3
1558451844311798,3,3,11,5,9,4,3,2
1558451844311798,-1,1,-8,-9,-10,-6,-4,-2
1558451844327145,3,6,8,14,2,0,0,1
1558451844327145,-8,-8,-1,-5,-4,-4,-2,-2
1558451844334127,-3,-4,-2,4,3,3,-1,-2
1558451844334127,-2,-1,1,2,0,-4,-2,-2
1558451844342104,0,2,1,5,1,2,1,1
1558451844342104,1,4,1,-10,-5,-4,1,2
1558451844357065,-3,-8,0,6,5,4,0,-2
1558451844357065,0,-2,-3,-3,-3,-2,-1,0
1558451844365045,-2,-1,0,2,-4,-3,-3,-3
1558451844365045,2,11,4,2,1,0,-4,0
1558451844372024,-4,-15,-4,-3,-1,1,3,3
1558451844372024,3,4,2,8,6,4,2,-1
1558451844386985,2,4,5,-5,0,-1,0,1
1558451844386985,-1,-1,-6,-4,1,-1,-1,1
1558451844393966,1,3,2,3,-3,-3,-4,-3
1558451844393966,-3,-7,-8,-3,-5,-2,-2,-1
1558451844401945,1,-3,2,4,0,-2,-3,0
1558451844401945,3,7,3,-1,1,4,2,-1
1558451844416905,-3,-7,-3,4,-2,-2,-1,1
1558451844416905,2,3,6,-3,0,1,3,3
1558451844424887,-3,1,0,6,6,5,-1,0
1558451844424887,1,-9,1,7,-5,-5,1,0
1558451844432068,3,11,-3,-11,-1,1,-3,-3
1558451844432068,-2,-1,0,10,1,2,-1,-1
1558451844447821,-2,-6,-6,-9,-4,-5,-1,-1
1558451844447821,-2,-1,3,7,0,-2,-3,-3
1558451844453807,2,6,2,-9,-4,-1,3,0
1558451844453807,-3,-8,-6,-4,1,2,1,1
1558451844461785,0,1,-2,-2,0,-2,-1,-1
1558451844461785,-4,-7,-1,-6,-7,-7,-3,-4
1558451844476749,1,0,5,6,1,-3,-5,-3
1558451844476749,0,4,-3,1,1,-1,-3,1
1558451844484725,-6,-5,-12,-12,-8,-1,0,0
1558451844484725,0,-1,6,8,1,-6,-3,-2
1558451844507664,1,3,-4,-4,4,7,2,1
1558451844507664,-2,-2,3,-1,-4,-2,-1,-1
1558451844508745,-6,-7,3,17,7,3,-1,-2
1558451844508745,3,-1,-12,-19,-4,-1,-1,0
1558451844522206,-4,3,-8,-7,0,-1,-1,0
1558451844522206,-2,-7,0,1,-4,-3,-3,-5
1558451844523202,2,4,1,-1,-2,-4,-2,0
1558451844523202,-1,-1,1,5,-2,0,-2,1
1558451844537164,-1,-4,-2,2,-4,-5,-2,-3
1558451844537164,-1,4,2,-4,0,4,1,0
1558451844545143,-1,-1,-12,-15,-7,-3,2,-1
1558451844545143,1,-2,0,0,2,2,1,-1
1558451844559119,-2,6,2,6,1,-3,-1,0
1558451844559119,0,-10,1,1,-1,-2,-2,-2
1558451844567084,-3,-2,0,-7,0,0,-5,-3
1558451844567084,2,4,0,13,2,0,2,0
1558451844582043,-2,-4,-7,-9,-8,-3,-3,-5
1558451844582043,-2,-2,-12,-6,-2,0,1,-4
1558451844583044,0,1,1,-2,3,0,1,2
1558451844583044,-3,-1,0,-2,1,4,0,-2
1558451844597005,0,-2,6,5,2,-1,0,3
1558451844597005,-1,3,1,-3,-5,-3,-3,-2
1558451844611966,0,-6,-9,2,0,-1,-1,-4
1558451844611966,-3,-2,-5,5,2,3,1,3
1558451844618946,0,0,2,-2,-2,-2,-2,-1
1558451844618946,2,1,-1,-5,-2,-2,2,4
1558451844626977,0,3,0,0,0,0,-2,-1
1558451844626977,-1,-3,1,-6,8,8,4,0
1558451844641937,-3,-4,2,4,-12,-8,-4,-3
1558451844641937,2,3,-5,-8,-5,-4,-5,-1
1558451844643306,-3,0,0,9,4,1,3,3
1558451844643306,0,-3,-1,1,-2,-2,-2,-1
1558451844656897,-1,-3,-7,-3,2,-1,-1,0
1558451844656897,0,1,2,-2,-2,-4,-2,-2
1558451844663878,-1,0,3,4,-3,0,-1,-1
1558451844663878,-2,-3,5,0,-1,1,-2,-2
1558451844678837,-1,-1,-13,-10,-2,-2,2,1
1558451844678837,0,0,-2,2,-4,-5,-2,0
1558451844687814,-2,-2,-3,-4,0,1,-2,-3
1558451844687814,-1,0,-2,0,-5,-4,-3,-3
1558451844702773,0,-3,5,2,5,4,0,-2
1558451844702773,-1,0,-4,-2,-2,-2,0,1
1558451844703424,-1,-1,4,0,-4,-5,0,-1
1558451844703424,-4,-5,-12,-8,-7,-3,-2,-2
1558451844716736,-3,-2,-5,-9,1,1,-1,-3
1558451844716736,-1,-1,3,6,0,5,3,0
1558451844724255,-1,1,3,9,-2,-6,-3,1
1558451844724255,-7,-12,-1,-2,-3,-4,-1,-2
1558451844739215,3,4,5,6,2,-1,-2,0
1558451844739215,-1,-3,-8,-7,-2,-1,-2,-3
1558451844747195,-3,1,3,3,-4,-4,-4,-4
1558451844747195,1,1,-7,-7,4,3,-1,1
1558451844762455,-3,-10,2,1,-4,-5,-1,-1
1558451844762455,-2,1,3,-1,-1,-3,-1,-4
1558451844763151,4,5,9,0,0,2,2,2
1558451844763151,1,2,-4,2,2,0,-3,-1
1558451844777112,-1,-3,-1,-5,-2,-2,-3,0
1558451844777112,4,7,11,4,6,0,1,1
1558451844784107,-8,-14,-15,-8,-10,-3,-4,-4
1558451844784107,-1,2,5,0,3,3,7,1
1558451844799054,3,0,0,3,3,3,2,2
1558451844799054,0,-1,-6,-7,0,0,0,2
1558451844807061,1,0,2,-4,-4,-7,-1,-3
1558451844807061,1,0,3,10,-2,-6,-2,-1
1558451844821993,-3,-11,-10,-21,-5,-1,-2,-1
1558451844821993,2,15,1,2,-2,-2,-4,-3
1558451844830164,-8,-22,-9,-13,-3,-2,-4,-4
1558451844830164,-2,0,2,0,-3,-4,-2,0
1558451844837145,1,5,4,6,0,0,1,-1
1558451844837145,0,-1,-2,1,4,3,-1,-1
1558451844844130,0,-4,-8,-11,-1,-2,-5,-3
1558451844844130,-1,-1,1,-3,-5,-6,-3,-1
1558451844859087,-1,3,2,12,0,0,-1,1
1558451844859087,-2,-7,-4,-2,-2,-3,-2,2
1558451844867065,4,11,7,2,1,2,3,1
1558451844867065,-1,-1,4,-3,3,8,1,-2
1558451844882025,-2,0,-5,-1,-9,-5,-1,-1
1558451844882025,-4,-6,-7,1,3,4,-2,-2
1558451844890008,2,2,1,0,4,-1,-1,3
1558451844890008,0,2,-2,-3,2,-2,-2,-1
1558451844896988,-3,-5,-11,-19,-11,-1,-3,-1
1558451844896988,-1,-1,7,4,1,1,1,0
1558451844903971,5,2,1,6,2,3,2,-1
1558451844903971,-5,-6,1,1,4,1,-2,-2
1558451844919005,-3,-1,-8,1,5,1,-1,0
1558451844919005,-1,0,3,-4,-6,-4,-2,-1
1558451844927902,-3,-4,3,5,5,5,-2,-2
1558451844927902,2,0,-2,1,-2,-1,1,-1
1558451844941869,-1,0,-5,-7,-2,2,3,1
1558451844941869,0,-2,0,-2,-2,-5,-3,-3
1558451844949845,-1,4,0,10,-3,-2,0,0
1558451844949845,-1,0,-3,-7,-1,-2,-4,-2
1558451844956898,0,-3,-7,-8,-1,1,0,-2
1558451844956898,-3,-5,-8,-5,-5,-1,1,-3
1558451844963810,-2,-1,1,7,1,-2,-1,0
1558451844963810,-1,-3,-8,-15,-3,3,-1,-1
1558451844978766,-1,2,6,15,-1,-5,-1,-2
1558451844978766,-2,0,-4,-1,5,5,1,0
1558451844987746,-3,-4,0,-1,-3,2,-2,-2
1558451844987746,1,3,6,2,1,-2,0,0
1558451845010714,2,-1,-4,-8,-4,-4,-1,-1
1558451845010714,-3,-6,1,1,-3,-4,-1,-3
1558451845011678,2,2,-4,-2,1,-2,2,0
1558451845011678,-1,-2,0,-9,-10,-6,-2,-2
1558451845024648,-4,-4,9,8,7,3,-2,-4
1558451845024648,-2,-5,-6,-5,-3,-5,-3,-1
1558451845025869,0,1,2,-3,5,4,-1,0
1558451845025869,-1,4,4,-2,0,2,-2,-2
1558451845039603,-3,-6,-4,-8,-1,-4,-2,2
1558451845039603,-1,4,-1,3,-1,-1,-1,-2
1558451845047582,-4,-9,-3,-14,-6,-3,-4,-2
1558451845047582,3,1,-2,7,6,0,-2,-2
1558451845061545,-4,-1,3,0,-1,0,0,0
1558451845061545,-2,-4,-1,-11,-6,2,2,-1
1558451845069524,-4,-4,-5,4,-4,-2,-1,-2
1558451845069524,-5,-4,0,5,0,-7,-5,-2
1558451845084484,5,6,2,-5,1,0,0,-2
1558451845084484,1,1,4,14,-3,-3,-2,2
1558451845085481,-3,-3,-9,-9,-6,-3,-1,-2
1558451845085481,-1,-3,-1,-11,-6,1,1,-1
1558451845099471,-2,-2,3,11,-2,-5,-3,-4
1558451845099471,-2,-1,-6,-4,-1,-1,-1,2
1558451845107422,-1,-2,-2,-4,-2,0,-1,1
1558451845107422,1,1,5,16,5,4,5,3
1558451845121389,0,0,-11,-10,-4,0,-3,-1
1558451845121389,-1,-1,-1,-3,-3,-2,-2,-4
1558451845129706,1,1,4,-5,1,-3,-3,-2
1558451845129706,-5,-5,-12,-7,-9,-11,-8,-1
1558451845144912,2,2,8,4,2,5,3,2
1558451845144912,0,-3,-6,-9,0,0,0,0
1558451845145663,0,1,0,8,-1,1,-2,-2
1558451845145663,-1,0,1,-10,-1,-1,-4,0
1558451845168615,-2,-4,-1,3,-5,-6,-2,-2
1558451845168615,-1,-1,4,0,1,2,0,0
1558451845168615,2,4,1,2,-1,-5,-2,0
1558451845168615,0,1,10,9,4,2,3,-2
1558451845181787,-6,-11,-38,-34,-10,-5,-5,-4
1558451845181787,-6,-5,2,0,0,-3,-3,-4
1558451845189550,4,4,5,-2,2,6,3,1
1558451845189550,-2,-3,-11,-6,-5,0,-1,-3
1558451845205568,4,6,19,20,10,4,3,4
1558451845205568,-2,-2,-13,-10,-1,2,-1,-3
1558451845205568,-2,-5,0,-3,-5,-4,-1,-3
1558451845205568,0,1,-8,-6,-3,-1,0,-1
1558451845228552,-1,-3,12,4,-4,-3,-1,-1
1558451845228552,-2,-3,-6,-3,3,1,0,1
1558451845228552,-2,0,-6,-10,-3,-2,-1,-3
1558451845228552,-1,1,-2,-2,0,1,0,1
1558451845241518,0,3,8,7,1,0,1,0
1558451845241518,1,3,9,9,0,-3,1,-1
1558451845249959,-2,-7,-5,-3,0,-1,3,1
1558451845249959,-1,-2,-12,-14,-3,1,1,0
1558451845264457,0,0,2,-2,-1,1,-2,-3
1558451845264457,3,5,9,12,5,4,-3,0
1558451845265453,-1,0,-4,-5,-1,1,3,0
1558451845265453,0,-4,1,10,1,-1,-1,-2
1558451845279417,1,0,4,7,6,0,-1,2
1558451845279417,0,-2,-1,-6,-8,-5,-3,-1
1558451845287396,-1,2,3,8,0,-1,-2,0
1558451845287396,1,4,4,-3,4,2,0,-1
1558451845301356,-3,-8,-6,21,-3,-2,-2,-4
1558451845301356,-2,-5,-11,-21,-2,-2,1,0
1558451845310332,-3,-1,3,4,-2,-3,0,1
1558451845310332,-1,0,3,5,-4,-2,-1,-1
1558451845325292,-1,0,-1,-7,-1,3,0,-3
1558451845325292,-1,0,0,0,1,-1,-4,-2
1558451845325292,0,1,0,2,-2,-2,-3,-3
1558451845325292,1,2,3,2,1,0,3,0
1558451845339255,-2,0,-1,-8,-5,-2,-2,-1
1558451845339255,0,-3,1,10,5,0,3,2
1558451845347691,-1,-3,-2,-15,-5,-2,-3,-3
1558451845347691,1,1,7,10,1,0,-2,1
1558451845362194,-2,-6,-4,-10,-1,1,-1,-3
1558451845362194,0,4,-13,-12,-2,-2,1,1
1558451845370177,1,0,-2,12,0,-2,-2,-2
1558451845370177,-4,-12,-3,-8,-6,-1,-3,-2
1558451845385132,-1,2,4,3,2,0,1,-1
1558451845385132,2,0,7,3,-4,-4,-4,-2
1558451845385132,0,5,2,5,-1,-3,0,1
1558451845385132,-2,-2,-4,3,-3,-1,0,0
1558451845399433,2,2,-10,-20,3,7,1,-2
1558451845399433,-3,-4,2,9,-6,-9,-3,-2
1558451845407075,-3,-3,-7,-10,1,1,-2,1
1558451845407075,2,2,1,-1,-3,0,5,3
1558451845422036,-2,-1,1,5,4,-6,-4,-3
1558451845422036,0,-2,2,1,-1,4,1,-1
1558451845429541,-1,-3,-4,-11,2,0,-1,-2
1558451845429541,-1,-1,-3,0,3,0,0,-1
1558451845444499,-2,-2,-3,-9,-3,2,0,0
1558451845444499,-2,-1,-7,-9,-2,-2,-3,-3
1558451845445744,-3,-4,7,13,1,-1,0,-2
1558451845445744,1,1,-4,-11,-2,-2,0,0
1558451845459490,1,3,7,10,-2,-4,1,0
1558451845459490,1,-1,-4,4,3,3,0,-1
1558451845467437,-2,-2,9,-2,-2,-3,0,1
1558451845467437,-3,-3,-11,1,2,0,-2,-2
1558451845482126,1,0,0,2,0,-3,0,0
1558451845482126,0,2,9,2,2,2,-1,-1
1558451845489379,0,0,-12,-1,0,0,-4,-4
1558451845489379,-1,-2,-6,-12,-6,-6,-4,-2
1558451845513317,-3,-1,0,4,-3,-7,-4,0
1558451845513317,-1,1,7,8,-1,-2,-2,1
1558451845513317,1,-1,-9,-5,1,4,2,0
1558451845513317,-3,-3,1,-2,-1,-4,-4,-2
1558451845519299,-2,-1,-9,-14,-6,-2,-1,1
1558451845519299,-4,-2,0,-6,-6,-6,-4,-3
1558451845526896,1,0,3,11,1,-1,1,1
1558451845526896,-1,1,1,-2,0,-4,-2,0
1558451845541828,1,1,5,6,2,5,1,1
1558451845541828,-3,-5,-9,-9,-3,-2,0,0
1558451845549802,1,1,1,-3,-2,0,-3,1
1558451845549802,-1,-1,0,3,1,0,0,-2
1558451845564762,-2,1,-2,3,-2,-7,0,1
1558451845564762,-3,-3,-3,-10,-6,0,1,-2
1558451845565760,-1,-2,-2,2,5,3,1,0
1558451845565760,0,2,9,-1,-3,0,-1,0
1558451845578725,-1,0,-6,0,0,0,1,-1
1558451845578725,-1,-2,-1,-12,1,3,3,2
1558451845587704,2,1,3,4,1,-2,0,0
1558451845587704,0,0,1,9,-4,-4,-2,-1
1558451845601667,0,-3,-8,-14,-6,-2,-4,-1
1558451845601667,2,1,1,7,2,1,0,-2
1558451845609642,-5,-2,3,1,2,-2,-2,0
1558451845609642,2,0,-2,1,4,4,1,0
1558451845624603,-1,0,4,0,-2,-1,-3,-2
1558451845624603,-5,0,1,6,-3,-1,-3,-1
1558451845625641,0,1,-7,-8,-2,-8,-5,-4
1558451845625641,0,-1,1,5,1,-3,0,-1
1558451845639606,-1,-1,-4,-1,5,3,1,1
1558451845639606,-3,-3,-4,-3,-1,-2,-2,-3
1558451845647588,-1,-2,0,-2,0,2,1,0
1558451845647588,-2,0,0,2,0,-4,-2,-2
1558451845661552,-1,-2,0,-1,-3,0,1,-2
1558451845661552,2,1,0,3,0,-2,-1,0
1558451845669527,-1,0,-4,-9,3,0,0,-2
1558451845669527,-3,-3,-4,-22,-12,-8,-5,-2
1558451845684487,-3,-6,-11,-6,1,-1,-6,-2
1558451845684487,1,0,9,7,5,6,2,0
1558451845685485,-2,-3,3,0,-6,-3,-1,0
1558451845685485,-3,-3,-4,1,2,-2,-1,-1
1558451845699448,-4,-2,-2,-9,-4,0,-1,-2
1558451845699448,3,3,3,2,1,-2,-1,-3
1558451845707426,-3,0,6,1,-1,-1,-3,-1
1558451845707426,-5,-5,-3,0,-2,-1,-2,-2
1558451845721390,2,-1,-2,-3,0,-1,2,0
1558451845721390,0,-3,-12,-14,-3,-3,1,0
1558451845729367,-1,0,0,1,-4,-2,-2,-3
1558451845729367,1,0,-6,1,0,1,-3,-1
1558451845744364,3,2,8,10,-5,-7,-3,-1
1558451845744364,-1,-2,-1,-6,1,-1,-1,0
1558451845752337,-1,-4,-4,-2,-2,-2,0,2
1558451845752337,-1,-3,-6,-10,-5,0,2,-1
1558451845759289,-1,0,0,4,6,8,2,0
1558451845759289,-4,-3,2,3,-1,-3,1,1
1558451845767268,-1,-1,-3,0,0,-2,-2,-3
1558451845767268,1,-4,0,-9,-4,-2,0,-2
1558451845790204,1,2,-5,2,1,2,1,0
1558451845790204,-1,-1,2,0,-1,-3,0,1
1558451845791201,-4,-2,-9,-10,-2,-2,0,-3
1558451845791201,0,2,10,11,2,0,-3,-2
1558451845804170,3,0,4,-3,-2,-2,4,3
1558451845804170,-1,0,-8,-1,1,-1,-4,0
1558451845812178,-3,-4,-6,-4,-3,1,2,2
1558451845812178,-2,0,3,6,0,0,-1,-2
1558451845819131,-3,-1,4,11,3,-3,-4,-3
1558451845819131,0,1,4,-5,-4,-2,-3,1
1558451845827109,5,6,-5,-1,-5,-4,2,3
1558451845827109,2,2,0,2,5,6,4,2
1558451845842066,-2,-1,1,-3,-3,-4,-3,-1
1558451845842066,-4,-3,6,10,4,2,-2,-4
1558451845850058,-2,-3,-8,-6,-4,-2,-4,-3
1558451845850058,-3,-3,-5,-7,-2,-3,-3,-2
1558451845864044,-2,-2,-2,-6,-3,-2,-1,-3
1558451845864044,-1,1,-4,-4,-2,-3,-3,-1
1558451845871989,1,-1,5,4,-1,-2,-3,-1
1558451845871989,1,1,0,5,3,0,-1,-1
1558451845879000,1,-3,2,-3,-2,-4,2,2
1558451845879000,-3,-7,-5,-5,2,6,0,0
1558451845886946,-2,-2,-5,3,1,-3,-2,0
1558451845886946,1,1,4,-1,0,-3,0,-1
1558451845901910,-1,-2,-10,-3,-6,-3,-2,-2
1558451845901910,-1,2,7,7,-3,-4,-1,1
1558451845916865,-3,-1,-4,-1,-2,0,-4,-5
1558451845916865,-1,1,2,7,3,1,1,0
1558451845924000,-8,-8,-9,-8,-3,-5,-6,-4
1558451845924000,0,-3,-4,-3,-5,1,5,1
1558451845933377,2,1,2,-6,-3,-3,-3,-1
1558451845933377,0,3,8,5,-2,-6,-3,-1
1558451845948337,-1,-2,-1,-5,-1,2,0,-2
1558451845948337,-1,1,-5,3,-3,-7,-6,-3
1558451845949335,0,1,-3,0,7,2,1,0
1558451845949335,3,1,-1,-8,-3,3,4,3
1558451845961371,-1,-8,-2,0,-3,-2,0,0
1558451845961371,-4,-1,-3,-6,-2,-2,-1,-2
1558451845970363,-1,-1,8,14,-2,-2,-1,0
1558451845970363,-1,-1,-6,-5,1,-2,-4,-1
1558451845984272,1,4,-2,-2,-3,-2,-2,-1
1558451845984272,0,0,1,1,-1,-1,-1,0
1558451845993363,-1,-2,6,6,8,7,-1,-1
1558451845993363,-3,-7,-10,-8,-10,-5,1,-1
1558451846008209,-2,-1,-1,1,4,5,3,0
1558451846008209,-1,0,-4,-5,1,2,0,0
1558451846009174,-1,4,8,2,0,-3,-3,-2
1558451846009174,-2,-5,-9,-4,0,-1,-3,0
1558451846022140,2,1,0,-6,-3,-3,-3,-2
1558451846022140,2,1,8,5,2,2,4,1
1558451846031116,-2,0,1,-1,-1,2,2,2
1558451846031116,1,-1,-6,-4,-4,-4,-5,-2
1558451846044097,-1,-1,5,-1,2,2,2,-1
1558451846044097,-3,-4,-5,8,7,4,4,0
1558451846053058,-1,-2,-7,-10,-7,-3,-1,-3
1558451846053058,0,2,7,8,0,3,3,-1
1558451846068049,-4,-2,-4,-7,1,0,-4,-3
1558451846068049,0,1,-5,-2,-4,-1,-1,-1
1558451846069589,0,0,1,1,1,1,1,1
1558451846069589,-1,1,3,9,4,2,-1,-1
1558451846081984,-3,-2,-2,-11,-13,-10,-2,-1
1558451846081984,-1,-4,-5,0,1,-1,-1,-2
1558451846090956,-3,2,-1,-3,-6,-5,-3,-2
1558451846090956,-2,-8,1,-5,0,1,1,2
1558451846103954,1,0,2,15,10,7,2,2
1558451846103954,1,0,-4,-11,-7,-3,-3,-2
1558451846112901,-4,-2,-2,-2,-1,0,1,0
1558451846112901,-1,-1,2,3,-2,-1,-2,-2
1558451846127861,0,0,-8,-9,-4,-6,-4,-1
1558451846127861,-1,-1,5,6,0,-7,-3,-3
1558451846129855,5,1,-3,-4,2,3,1,1
1558451846129855,-4,-2,-2,-15,-7,-5,-3,-2
1558451846142053,-1,-3,5,5,5,1,2,-1
1558451846142053,-1,2,-4,-4,-3,-3,-3,1
1558451846150993,-2,-4,2,10,1,-1,-1,-1
1558451846150993,0,0,2,8,5,3,0,-2
1558451846164887,3,4,-2,-6,-5,-5,1,4
1558451846164887,-1,-3,0,-1,2,3,-1,-2
1558451846172740,-2,-1,6,2,-1,-2,-3,-1
1558451846172740,-4,-1,-10,-4,3,2,0,0
1558451846187703,-3,0,-1,4,2,2,0,0
1558451846187703,0,-2,-8,-12,-3,1,-2,-1
1558451846189693,0,-5,-2,1,-4,-7,-2,0
1558451846189693,-1,-1,4,0,-1,-3,-2,-1
1558451846201824,0,1,3,6,3,3,0,0
1558451846201824,-4,-3,-4,1,-3,1,4,0
1558451846210646,-3,-8,1,-5,-3,1,0,-3
1558451846210646,-3,-2,-12,-10,-9,-9,-4,-3
1558451846224928,-1,2,5,7,3,2,3,1
1558451846224928,2,-1,3,-1,2,-1,-4,0
1558451846232907,0,0,-3,-12,-2,2,-1,-2
1558451846232907,-1,0,-7,2,-3,-1,1,-1
1558451846247966,-1,-1,0,-1,-4,-6,-5,-1
1558451846247966,-2,-1,-12,-9,0,2,0,-2
1558451846253945,-3,-2,4,3,-4,-1,-2,-2
1558451846253945,0,0,-5,-7,3,6,-2,-1
1558451846262036,0,1,5,6,2,3,2,-2
1558451846262036,1,-2,0,-8,-3,-7,-3,0
1558451846270808,0,-3,2,4,0,0,1,0
1558451846270808,0,2,-2,-2,-4,-6,-2,-2
1558451846284768,-1,1,6,-1,-1,1,-2,-3
1558451846284768,-1,1,-4,4,0,-1,-3,-1
1558451846293745,-2,-1,-5,-3,-3,0,2,0
1558451846293745,-1,-3,4,7,2,0,-1,0
1558451846307707,-3,-3,-8,-7,-5,-5,-5,-3
1558451846307707,-2,-3,-2,1,-7,-6,-4,-4
1558451846314968,2,5,-4,-2,2,4,1,-1
1558451846314968,3,1,1,-1,-2,0,0,0
1558451846321890,-5,-8,0,5,7,3,-2,-1
1558451846321890,2,3,9,6,1,4,5,2
1558451846330646,-3,-4,-21,-22,-10,-7,-2,-2
1558451846330646,-3,-2,-2,2,3,1,-1,-1
1558451846344607,2,3,2,-3,-4,-3,-3,-1
1558451846344607,-1,-3,1,6,1,3,0,-1
1558451846353586,-1,0,8,5,7,-3,-4,1
1558451846353586,-1,-2,-3,0,-2,-2,-2,0
1558451846367316,-3,-6,-5,-4,-1,0,-1,-1
1558451846367316,0,1,6,4,-4,-2,-1,-1
1558451846375530,-3,-1,-13,-14,-8,-5,-3,-4
1558451846375530,-3,-6,0,3,-1,-2,0,-3
1558451846381887,-1,4,4,10,0,-2,-1,-1
1558451846381887,-2,-3,-4,-6,-4,-3,-2,0
1558451846390579,-2,-3,-2,-2,1,0,2,1
1558451846390579,-2,0,7,3,-3,-5,-5,-2
1558451846404663,-1,-1,-3,-1,-3,-1,1,0
1558451846404663,-1,-2,-2,-5,-3,-5,-2,-3
1558451846413435,0,0,1,-2,-1,1,-2,0
1558451846413435,1,4,0,1,9,12,6,4
1558451846426395,-2,-4,-4,-2,-7,-8,-5,-4
1558451846426395,-2,-1,-1,3,-2,0,-2,0
1558451846435932,-2,-2,-3,7,-2,-3,2,0
1558451846435932,-5,-3,-4,-14,-5,-4,-3,-1
1558451846441551,1,0,0,5,0,4,1,1
1558451846441551,1,0,2,4,5,-2,-2,0
1558451846450300,-1,1,2,4,4,2,-1,-1
1558451846450300,-2,-4,-2,-6,-9,-7,-4,-3
1558451846464411,1,1,2,2,-1,0,-2,0
1558451846464411,-3,-2,-2,-15,0,2,4,1
1558451846473240,-3,-4,3,7,-6,-2,-3,-4
1558451846473240,-1,-5,-7,-11,-3,1,2,-1
1558451846487201,-1,1,0,-1,-3,-6,-4,-2
1558451846487201,2,3,2,2,1,-1,-4,-2
1558451846495302,-2,-2,3,3,-1,1,2,0
1558451846495302,-1,-1,-1,-5,0,0,-4,0
1558451846502160,-2,-4,2,-5,-4,-2,1,0
1558451846502160,-3,-3,-12,-4,-1,-3,-4,-5
1558451846511137,1,-2,-2,0,-3,-2,1,-1
1558451846511137,0,1,2,10,3,0,-1,-1
1558451846524103,1,2,-2,-20,1,3,1,2
1558451846524103,-4,-3,-3,7,-5,-4,-2,-3
1558451846533372,2,0,0,1,5,4,-1,0
1558451846533372,-4,-3,-1,3,-4,-3,-1,-3
1558451846547045,-4,0,-9,-6,2,-1,0,-2
1558451846547045,0,2,6,4,-4,-1,1,1
1558451846556123,0,-3,-5,-8,2,2,0,0
1558451846556123,1,3,7,6,1,1,2,2
1558451846562038,-5,-2,-6,-5,-4,-6,-5,-4
1558451846562038,0,-8,0,-2,0,0,-1,-1
1558451846570977,1,1,3,5,2,-1,1,2
1558451846570977,2,3,3,-5,0,-2,-5,-4
1558451846583943,-4,-2,4,9,1,3,3,0
1558451846583943,-2,-5,-22,-36,-10,-3,-2,-2
1558451846592957,-1,1,1,0,-3,-5,-5,-3
1558451846592957,-1,-3,0,3,1,1,0,1
1558451846615857,3,2,-1,2,4,4,5,2
1558451846615857,1,2,10,1,1,-2,-1,1
1558451846616908,-2,3,-6,-1,-9,-5,-6,-4
1558451846616908,-2,-3,-2,-3,4,5,3,1
1558451846621881,-2,-2,4,10,-1,-4,-4,-3
1558451846621881,-4,0,-8,-12,-8,-3,0,-5
1558451846630925,-1,-4,-1,-11,-6,-5,-3,-4
1558451846630925,-1,1,0,11,8,7,6,3
1558451846643945,0,0,2,-2,-6,0,-2,-4
1558451846643945,0,-4,5,7,-1,-2,-2,1
1558451846660864,-2,-1,-3,-3,-3,-1,0,-1
1558451846660864,0,0,4,8,5,0,-1,-1
1558451846666838,1,-1,-9,-21,-3,-3,-2,-1
1558451846666838,-5,-5,-11,0,-1,0,0,-1
1558451846675813,2,1,9,15,0,2,3,1
1558451846675813,-2,0,-4,-6,-7,-5,-2,0
1558451846682024,2,1,-5,-3,1,4,2,2
1558451846682024,1,-4,8,9,5,0,-1,1
1558451846691096,-4,-3,-6,-7,3,-1,-2,-2
1558451846691096,1,0,-6,-14,-9,-5,-2,-3
1558451846703780,0,1,3,-2,-2,-5,-5,-2
1558451846703780,-1,3,4,6,-1,0,-1,-1
1558451846712983,1,0,0,9,10,7,2,3
1558451846712983,-4,-2,-3,-8,-9,-6,-2,-2
1558451846726677,-1,-2,0,6,0,1,-3,0
1558451846726677,-1,1,2,-1,-1,-2,0,-1
1558451846735804,-1,-1,2,2,4,3,1,0
1558451846735804,-1,-2,-6,1,2,0,-4,-4
1558451846741789,0,-5,-1,-3,-5,-5,-1,-1
1558451846741789,-1,2,2,3,-2,-5,-4,-5
1558451846750762,-3,-3,-6,-8,-2,-3,1,0
1558451846750762,0,1,2,5,2,5,1,1
1558451846764725,-1,-1,5,7,2,-1,-1,-2
1558451846764725,-1,-6,-14,-10,-2,-2,-2,-2
1558451846772704,-2,2,-7,-12,-6,-4,-4,-3
1558451846772704,-1,0,0,1,-3,-2,-1,-3
1558451846786667,0,0,0,3,-2,-3,-1,-1
1558451846786667,1,2,8,5,4,1,0,2
1558451846795645,-1,0,4,9,-4,-4,-2,-1
1558451846795645,0,-2,-8,-11,-4,-2,0,0
1558451846801794,-1,-2,-4,-4,2,0,-2,0
1558451846801794,-4,-2,1,2,0,2,3,0
1558451846810987,-1,-2,-3,-3,0,-1,-5,-1
1558451846810987,2,3,6,8,0,-1,0,-2
1558451846824737,-1,-7,-10,-9,-4,-4,-1,0
1558451846824737,1,1,-5,-2,0,3,2,2
1558451846833022,-1,0,5,4,6,5,2,2
1558451846833022,-4,-1,-3,-4,-3,0,-1,-2
1558451846846260,0,1,1,3,3,1,0,-1
1558451846846260,0,-1,4,4,1,0,-4,-2
1558451846855950,-4,-5,-6,-6,-6,-2,0,-3
1558451846855950,-4,-5,2,0,0,-2,-2,-1
1558451846870044,0,2,0,1,-2,1,0,0
1558451846870044,-2,-2,-6,-3,1,-2,0,-1
1558451846872366,1,3,3,-2,-6,-7,-2,-3
1558451846872366,-1,0,-3,-2,-3,-4,-2,-1
1558451846884385,-1,1,4,7,8,6,3,0
1558451846884385,-4,-2,-6,-3,-2,1,2,-2
1558451846892735,-3,-4,9,1,-3,-5,-3,-1
1558451846892735,-1,-6,-13,-19,-6,2,2,2
1558451846906756,-1,2,12,29,2,-2,-4,-3
1558451846906756,-3,-6,-17,-29,-6,-2,-4,-3
1558451846915691,1,1,1,3,6,5,3,-1
1558451846915691,1,1,4,5,-1,-2,-3,0
1558451846930635,-2,-2,-3,-6,-4,-3,-2,-2
1558451846930635,1,2,9,12,0,0,-1,-1
1558451846932365,-7,-5,-6,-6,-7,-4,-3,0
1558451846932365,1,-1,1,0,2,-3,-1,-1
1558451846944598,-4,-8,-16,-12,-5,0,-2,-2
1558451846944598,1,2,7,8,0,-1,-1,0
1558451846953574,2,-1,-7,-4,2,2,0,0
1558451846953574,-4,-4,2,4,-4,-1,0,-1
1558451846966538,-3,-1,7,1,6,4,-1,-1
1558451846966538,-1,0,-7,-8,-4,-3,-2,-3
1558451846975516,-2,1,-4,-7,-5,-3,-4,-2
1558451846975516,1,2,-6,-9,0,2,1,0
1558451846990569,-1,0,3,-6,0,1,0,-2
1558451846990569,-3,-6,-19,-7,-3,-4,-6,-3
1558451846991848,4,0,6,9,4,6,5,2
1558451846991848,-1,-1,-3,1,0,-5,-3,0
1558451847004530,-1,-2,-1,-3,-7,-4,0,-1
1558451847004530,2,3,14,9,2,-5,0,1
1558451847013509,-1,-4,-3,-2,-7,-2,-1,-1
1558451847013509,-2,-1,-1,2,2,3,1,0
1558451847026474,4,3,2,-1,-3,-3,-2,1
1558451847026474,2,2,8,9,6,4,1,0
1558451847035449,-2,-5,-4,6,1,-3,-7,-4
1558451847035449,-1,-1,6,2,0,-1,2,-2
1558451847050409,-1,-2,-15,-16,-3,-4,-3,-1
1558451847050409,0,1,6,6,-1,-1,0,0
1558451847052405,2,-1,2,1,7,6,3,0
1558451847052405,-5,-4,0,3,-1,-1,-3,-3
1558451847064375,1,0,-6,-4,-1,-2,-1,-1
1558451847064375,-9,-4,-2,-9,-9,-5,-3,-3
1558451847073347,3,5,1,2,0,0,0,1
1558451847073347,1,1,4,3,-3,-4,-3,-1
1558451847087109,-1,-1,-4,-2,2,3,3,0
1558451847087109,-2,-4,7,13,1,4,-1,-2
1558451847096083,-4,-3,-11,-16,-6,-6,-1,-1
1558451847096083,-2,-1,-7,-3,-1,0,-3,-3
1558451847118024,-1,-1,8,6,2,3,3,2
1558451847118024,-1,-2,-7,-4,-2,-5,-5,-2
1558451847119165,-2,0,4,2,-4,1,2,1
1558451847119165,0,0,-2,-2,1,-3,1,-1
1558451847124012,-6,-6,-16,-9,-3,-5,-7,-4
1558451847124012,3,3,15,17,3,6,0,2
1558451847133412,-2,-5,-16,-20,-7,-3,-1,-1
1558451847133412,-3,-2,-8,-4,-5,-4,-1,-1
1558451847146986,-1,-1,4,-3,-4,-4,0,-3
1558451847146986,0,1,8,5,11,2,6,3
1558451847155926,-1,-4,-11,-5,-3,-2,-5,-2
1558451847155926,-7,-4,2,2,2,2,1,0
1558451847169895,2,2,-5,3,2,1,3,1
1558451847169895,1,-2,-3,-13,-7,-3,-1,-1
1558451847172163,0,-1,4,7,3,-1,2,-2
1558451847172163,0,2,4,-2,-1,-5,-3,-2
1558451847183971,-2,2,-4,0,-1,-3,-3,-2
1558451847183971,-1,3,-1,-6,0,1,-1,-3
1558451847192941,0,0,-2,-12,-6,-3,-1,-1
1558451847192941,1,-4,-1,4,0,0,-3,-2
1558451847206911,-1,-3,3,-2,-5,-3,0,2
1558451847206911,5,5,4,3,4,2,2,2
1558451847215880,-5,-6,-13,-9,-2,0,-2,-2
1558451847215880,1,2,-5,-5,-5,-3,-3,-3
1558451847230963,-5,-5,5,0,-2,-6,-3,-5
1558451847230963,-4,-2,-6,-6,-2,4,2,0
1558451847232101,1,2,11,10,-1,-2,3,1
1558451847232101,-3,-6,-16,-19,-5,-3,-2,-2
1558451847244846,4,2,3,2,-2,2,-2,2
1558451847244846,-2,0,0,0,-2,-4,-2,-2
1558451847252782,-2,-1,3,9,4,4,-1,0
1558451847252782,5,4,6,4,0,0,-2,0
1558451847275770,-1,-3,3,7,0,1,2,0
1558451847275770,-7,-7,-4,0,-6,-8,-5,-4
1558451847277237,0,2,-2,-4,-4,-3,-5,0
1558451847277237,-1,1,6,6,2,1,-2,-1
1558451847290899,1,2,-8,-9,1,1,0,-1
1558451847290899,1,-1,9,12,2,2,2,2
1558451847291688,-3,-2,-11,-7,1,-2,-1,-1
1558451847291688,-2,-2,-2,-1,-4,-5,-3,-2
1558451847304642,-2,0,2,2,-3,-2,-4,-3
1558451847304642,2,-1,0,3,-1,3,3,1
1558451847312637,0,0,-1,-2,-1,-3,-3,-3
1558451847312637,1,1,4,-5,-1,-3,0,0
1558451847326807,-4,-5,-9,1,2,1,-1,-2
1558451847326807,-2,-4,-7,-17,-10,-4,-2,-2
1558451847335559,3,1,8,4,9,2,-2,-4
1558451847335559,-3,-4,-1,-4,-1,1,3,-1
1558451847350521,-2,-2,1,4,-6,-4,-1,-3
1558451847350521,-1,-1,-5,-6,5,3,1,1
1558451847351519,0,-4,3,1,-5,-5,2,-2
1558451847351519,-1,2,2,4,-1,0,-4,-1
1558451847364490,2,-2,2,6,2,2,0,-1
1558451847364490,-3,-3,-8,-6,1,-2,-2,-1
1558451847373461,2,4,9,16,1,-2,-1,0
1558451847373461,-3,-4,-19,-21,-2,-2,-1,0
1558451847386722,-4,-2,-3,0,1,3,-1,-1
1558451847386722,2,0,0,6,-4,-5,-3,0
1558451847395704,-4,-1,-3,-6,2,2,1,0
1558451847395704,2,3,9,9,-2,-2,0,0
1558451847410657,0,1,-5,-10,3,2,2,0
1558451847410657,-4,-6,-6,-7,-7,-3,-5,-4
1558451847411654,0,0,1,0,-2,-2,1,2
1558451847411654,-3,-2,8,11,3,2,2,0
1558451847424631,-2,-1,-2,-9,-5,-7,-3,-2
1558451847424631,2,1,4,7,-1,-1,2,0
1558451847432609,-1,-3,-7,1,3,0,-4,-2
1558451847432609,0,-2,2,-6,-1,1,0,-1
1558451847446612,0,0,-4,-4,-1,-4,-5,-2
1558451847446612,-2,-2,-4,-1,-2,-2,-2,0
1558451847455587,0,2,2,0,-4,-6,-2,-1
1558451847455587,0,0,-3,7,4,5,4,0
1558451847470506,-1,-5,1,3,-2,-5,-6,-2
1558451847470506,-1,-4,-11,-15,-5,-1,0,-2
1558451847472492,-1,-1,5,1,-4,-4,-3,-1
1558451847472492,-2,-1,-4,1,1,0,-3,-2
1558451847484461,2,4,-1,-5,-1,-2,-2,-1
1558451847484461,0,0,-2,-2,2,3,3,0
1558451847493444,-1,0,6,7,2,6,2,1
1558451847493444,-1,-3,-3,2,-5,-4,-3,-1
1558451847506413,0,1,4,-2,-4,-1,0,0
1558451847506413,-2,0,4,19,1,0,0,-1
1558451847515377,-2,-3,-6,-22,-6,-1,-1,-4
1558451847515377,4,2,2,9,3,-2,-1,0
1558451847530335,-9,-5,3,-2,0,-1,-1,-3
1558451847530335,0,1,-1,-3,0,-2,-3,1
1558451847532332,-1,-2,-2,5,-1,0,0,-2
1558451847532332,1,0,8,4,0,0,-2,-1
1558451847544300,2,-1,-13,-23,-7,-3,-1,0
1558451847544300,0,-2,3,4,1,-1,-2,2
1558451847553295,-2,-2,-9,-4,-3,-2,0,-2
1558451847553295,-2,-2,2,1,2,2,1,-1
1558451847566903,-2,2,3,7,-1,-2,-8,-3
1558451847566903,-4,-4,-13,-9,-2,1,3,-1
1558451847575257,2,2,3,-7,0,0,-4,2
1558451847575257,0,-4,-8,-2,0,-1,3,3
1558451847590736,-2,-1,2,6,-3,-5,-2,-2
1558451847590736,1,0,2,1,-2,1,-2,-2
1558451847591724,-1,-2,-1,2,2,-2,-2,-1
1558451847591724,-1,-2,-11,-4,-5,-1,-2,-2
1558451847604732,-3,-1,2,3,0,2,2,1
1558451847604732,1,2,2,-5,-3,-3,-3,-2
1558451847620648,-2,-4,-9,-6,-6,-3,2,1
1558451847620648,-1,-2,1,3,2,1,2,2
1558451847626687,2,0,1,1,2,4,3,-3
1558451847626687,1,2,6,4,-1,-3,-3,-1
1558451847635614,-2,-3,-12,-6,-2,4,1,-1
1558451847635614,-1,1,1,-1,-3,-1,-3,0
1558451847649767,0,0,-6,-8,-6,-2,2,1
1558451847649767,0,0,5,7,1,0,-1,-2
1558451847656659,-11,-10,-9,-6,-3,-5,-4,-4
1558451847656659,4,7,4,-7,3,2,1,0
1558451847664573,0,-1,0,7,0,1,4,3
1558451847664573,-1,-3,-1,-1,-2,-3,-2,-1
1558451847673506,0,-2,3,5,2,0,-2,-1
1558451847673506,-2,-3,-7,-5,-6,-2,1,-4
1558451847687089,-2,-1,1,-4,-5,-3,-4,-2
1558451847687089,1,0,-2,1,2,0,4,3
1558451847696077,1,3,3,4,2,3,1,0
1558451847696077,-3,-2,5,5,-4,-3,-4,0
1558451847710069,-1,-4,-3,8,2,-2,-2,-1
1558451847710069,-1,0,-8,-15,3,5,-1,-2
1558451847717101,-3,-3,9,4,-5,-6,-3,-2
1558451847717101,-4,-3,-11,-5,-2,-1,-2,-2
1558451847723991,2,1,2,-12,-3,1,3,2
1558451847723991,-2,-3,0,-2,-6,-5,-3,-4
1558451847732969,2,-1,1,9,2,0,-1,0
1558451847732969,1,2,-2,-8,4,2,0,1
1558451847746930,-3,-3,0,5,0,-1,-3,-2
1558451847746930,0,0,-3,-1,-2,0,-2,-2
1558451847755907,3,2,-4,-7,-2,1,3,0
1558451847755907,-5,-7,-1,1,-8,-5,-4,-4
1558451847769869,1,1,1,3,2,-1,0,0
1558451847769869,0,-2,3,8,3,3,0,-1
1558451847776916,-2,0,-11,-10,-4,-5,-1,-2
1558451847776916,1,2,3,3,0,2,0,-1
1558451847792808,-1,2,1,2,0,3,1,-2
1558451847792808,-1,-2,-2,1,-2,-5,-2,2
1558451847794803,2,3,11,6,8,6,4,1
1558451847794803,-2,-5,-5,-6,-4,-3,-2,-1
1558451847806770,-7,-6,-6,-14,-6,-1,-2,-3
1558451847806770,0,1,0,2,0,-2,1,0
1558451847815748,-3,1,1,-1,-2,-1,-2,-2
1558451847815748,3,4,2,-4,1,0,2,-1
1558451847829707,-5,-11,-17,-3,-5,-6,-5,-4
1558451847829707,-2,-1,4,4,1,-3,-4,-3
1558451847836804,-3,-2,-16,-17,-6,-5,-3,-2
1558451847836804,0,3,11,0,1,-1,-1,-1
1558451847852749,1,-1,0,-2,1,-2,-3,0
1558451847852749,-5,-4,-9,-9,-3,-2,0,0
1558451847859706,-1,0,7,10,0,0,0,0
1558451847859706,-2,-4,-4,0,-4,-1,-3,-1
1558451847866636,1,1,-3,-4,0,1,-1,-2
1558451847866636,0,1,1,6,-2,-3,0,-1
1558451847891107,2,0,-2,-6,-1,0,0,-2
1558451847891107,-2,-2,4,0,2,1,-1,1
1558451847891107,-1,-4,-9,-3,4,4,0,2
1558451847891107,-2,-2,-4,-10,-12,-10,-5,-4
1558451847897149,0,0,1,2,-1,-1,-4,-4
1558451847897149,1,3,8,10,3,4,5,2
1558451847913000,4,3,3,1,3,0,-1,-1
1558451847913000,-6,-9,-9,-12,-4,-2,0,-2
1558451847914995,0,-1,4,6,4,-3,0,1
1558451847914995,2,0,-5,-8,-1,3,-1,1
1558451847926969,2,2,4,3,-5,0,1,0
1558451847926969,-5,-5,-5,-3,-1,-2,-1,-1
1558451847935940,0,0,6,5,-2,0,-1,0
1558451847935940,-1,-2,-1,3,2,-3,-2,0
1558451847949901,-2,-4,-2,-2,-4,-4,-3,0
1558451847949901,3,3,0,-4,2,-1,0,0
1558451847956887,0,-1,-1,-6,1,2,-2,-2
1558451847956887,-5,-5,-1,-1,-6,-2,-1,-3
1558451847972840,-1,-1,-3,-3,-2,-1,1,-1
1558451847972840,3,2,-1,-1,0,-3,-2,-2
1558451847974834,-1,-2,-1,9,-2,2,-1,0
1558451847974834,1,-1,-1,-4,-2,-2,-1,-2
1558451847986864,-2,-1,10,7,4,3,-1,-1
1558451847986864,-3,-3,2,5,2,-2,-1,-1
1558451847995860,2,3,7,1,0,4,1,-1
1558451847995860,-4,-7,-25,-25,-10,-7,-7,-4
1558451848009744,-1,3,6,10,3,3,3,4
1558451848009744,2,3,-5,-5,-2,0,-2,-2
1558451848016725,-3,-5,2,6,-4,-1,1,1
1558451848016725,-3,-1,4,7,0,0,-2,-3
1558451848032682,-1,-3,-8,-12,-8,-7,-6,-3
1558451848032682,1,1,-1,-2,5,7,7,2
1558451848034681,1,1,-2,-1,-3,-4,-2,-1
1558451848034681,-4,-5,4,3,-3,-2,-4,-4
1558451848046643,-5,-2,-5,-6,-3,-4,-2,-2
1558451848046643,1,-1,1,1,2,3,-1,0
1558451848055621,-1,-2,-4,0,-1,-2,0,0
1558451848055621,0,2,-1,12,3,-1,0,-1
1558451848070607,0,-1,-5,-20,2,5,1,0
1558451848070607,-3,-2,2,7,-4,-2,-4,-2
1558451848076786,-2,-2,-5,-9,-2,-1,-2,-1
1558451848076786,1,2,2,3,1,-1,-2,0
1558451848093651,0,-1,2,3,0,-1,-1,0
1558451848093651,-2,-3,-3,-7,-4,-3,-2,-2
1558451848094609,0,-1,0,4,5,1,-1,-2
1558451848094609,0,-1,-3,-2,1,1,2,-1
1558451848106563,-1,-1,3,5,-4,-5,-3,-1
1558451848106563,-1,1,0,0,0,0,-3,-2
1558451848115824,2,-1,-10,-5,0,-1,-5,-3
1558451848115824,-9,-9,-1,-9,0,-1,1,0
1558451848138551,1,1,4,8,-2,-2,1,-1
1558451848138551,0,-2,4,4,-4,-5,-3,-1
1558451848139480,0,-1,-9,-23,-3,-1,0,-2
1558451848139480,2,3,10,13,5,0,-2,-3
1558451848153524,-1,-2,-12,-5,1,0,1,0
1558451848153524,-4,-4,-9,-14,-8,-5,-6,-2
1558451848154443,-3,-1,4,5,-1,-4,-1,-3
1558451848154443,-1,-5,-12,-12,-8,-5,-4,-2
1558451848166606,2,5,16,12,1,-2,-1,0
1558451848166606,0,1,0,2,3,4,2,1
1558451848175857,-2,0,1,2,-4,-5,-2,0
1558451848175857,-2,-2,-5,-11,-5,0,2,0
1558451848189474,-3,-4,-5,4,1,0,-1,-1
1558451848189474,-1,-2,0,-4,-2,-1,-2,-1
1558451848196498,-5,-1,-5,-5,-5,-6,-2,-2
1558451848196498,-1,0,1,2,-2,-2,-3,-3
1558451848213573,-1,-1,-2,5,-2,1,1,-3
1558451848213573,-2,-2,2,3,3,2,4,2
1558451848214403,3,1,10,9,6,8,2,3
1558451848214403,-2,-3,-5,-8,-5,-5,-6,-3
1558451848226415,0,-2,1,4,2,2,2,1
1558451848226415,-3,0,5,6,-3,-3,-1,-2
1558451848235450,-3,-1,-8,0,-3,-3,-2,-2
1558451848235450,3,3,-3,-1,-1,1,2,0
1558451848250305,-3,-3,1,-2,1,0,0,-2
1558451848250305,0,0,5,5,1,0,0,0
1558451848256291,-2,-5,-3,0,-3,-1,-2,-1
1558451848256291,1,2,-4,-6,-1,-1,-4,-1
1558451848273245,-7,-5,0,1,-1,2,3,0
1558451848273245,-1,-2,-5,-9,-3,0,-2,-2
1558451848274241,-1,0,5,0,-1,1,-2,-1
1558451848274241,1,2,-3,-1,-2,-3,0,1
1558451848287146,2,3,1,-1,-3,-1,-2,-3
1558451848287146,-3,-5,-1,3,2,2,3,-1
1558451848296065,-1,-2,-2,-5,-1,-1,1,0
1558451848296065,0,3,5,4,4,0,1,1
1558451848309614,-3,-1,-4,-3,-2,-1,-3,-3
1558451848309614,-5,-6,-28,-25,-8,-3,-2,-3
1558451848316594,2,4,3,-1,-1,-5,2,1
1558451848316594,-3,-3,5,7,5,5,5,1
1558451848332551,1,1,2,-1,-3,-5,-3,0
1558451848332551,1,2,9,10,3,-2,-2,-1
1558451848334566,1,0,-6,-6,-1,2,-1,-2
1558451848334566,0,0,-2,0,0,3,0,0
1558451848346708,-4,-5,-3,-7,-6,-6,-3,0
1558451848346708,-1,-5,1,3,6,4,1,-2
1558451848355490,-2,0,-2,0,-3,0,-1,-3
1558451848355490,0,0,-2,-1,2,0,-1,-1
1558451848370448,1,-3,-3,1,-1,1,3,0
1558451848370448,0,3,5,2,-4,-3,-2,-2
1558451848376432,-3,-4,-1,5,0,1,-3,-1
1558451848376432,0,1,6,2,1,0,0,2
1558451848393010,0,-3,-19,-17,-5,-5,-2,1
1558451848393010,-2,-1,0,0,-2,-2,-3,-1
1558451848394644,1,0,9,15,3,1,6,2
1558451848394644,-3,-4,-9,-10,-6,-9,-3,-2
1558451848406971,2,2,6,4,-1,1,-2,-1
1558451848406971,1,3,4,2,4,-1,1,1
1558451848415610,-5,-6,-4,-7,-8,-5,-6,-3
1558451848415610,2,2,-2,3,3,0,1,0
1558451848429551,0,2,7,3,2,-4,1,-1
1558451848429551,-3,-5,-11,-8,-1,3,-2,-1
1558451848436704,-2,-3,-1,-2,-4,-6,-5,-3
1558451848436704,-4,-4,-4,-8,-8,-7,-3,-2
1558451848452827,1,4,7,4,4,2,-2,0
1558451848452827,-2,-1,0,4,-3,1,-1,-1
1558451848454791,0,0,-5,-4,2,1,-3,0
1558451848454791,-3,-7,-1,-8,-5,-1,5,2
1558451848466760,-2,-1,-15,-3,-2,-1,-4,-2
1558451848466760,0,-2,1,-2,-2,-3,-3,-5
1558451848475821,1,0,9,6,4,0,1,0
1558451848475821,2,2,-13,-8,-6,-4,-3,-3
1558451848489698,-2,0,5,0,-2,-1,-2,-3
1558451848489698,0,1,-1,-3,0,-2,2,0
1558451848496747,0,-1,-1,1,0,-3,-1,-1
1558451848496747,0,1,9,9,4,2,-1,-1
1558451848513635,-5,-3,-1,-2,1,-1,-2,0
1558451848513635,1,-3,-11,-6,-9,-4,-2,-3
1558451848514633,2,2,3,-3,-2,-4,-2,1
1558451848514633,-1,1,4,12,8,6,2,-3
1558451848527050,-7,-10,-15,-13,-6,-4,-6,-5
1558451848527050,-4,0,10,5,-1,0,-2,-1
1558451848535619,-1,-2,-13,-6,-3,-3,-1,-1
1558451848535619,1,-2,3,-6,-5,-1,0,1
1558451848549571,0,-1,2,5,1,-4,-5,-3
1558451848549571,2,1,0,4,1,1,2,3
1558451848556921,2,1,3,-2,1,1,1,1
1558451848556921,-10,-6,-12,-8,-2,-5,-8,-7
1558451848572881,4,3,6,-5,-7,-3,-1,1
1558451848572881,0,-3,1,3,4,3,2,1
1558451848579460,-1,-1,1,3,1,-2,0,-1
1558451848579460,2,1,-4,-16,-1,0,-1,-1
1558451848586503,1,0,4,7,1,1,1,-1
1558451848586503,-2,-3,-6,-5,-5,-7,-5,-3
1558451848595416,0,-1,-9,-3,1,3,1,-2
1558451848595416,-1,1,11,16,2,2,-1,-1
1558451848610377,-2,0,-6,-8,0,0,0,0
1558451848610377,1,2,-9,-8,-3,-1,3,3
1558451848616363,-1,1,6,1,5,6,2,-1
1558451848616363,-1,-3,-4,11,-3,-4,-3,0
1558451848632317,-9,-7,3,-4,-3,-5,-1,-3
1558451848632317,0,0,1,-4,-3,-1,-3,0
1558451848639298,0,0,3,-2,0,1,-1,0
1558451848639298,2,1,-6,-5,-8,-5,-3,-2
1558451848646398,3,2,0,1,4,3,1,1
1558451848646398,-2,-1,5,2,-5,-10,-5,-1
1558451848655366,-1,0,-1,2,1,3,7,3
1558451848655366,1,-1,4,1,-1,-2,0,1
1558451848670215,-1,-2,-11,-8,-5,-4,-1,-3
1558451848670215,-2,-2,7,11,3,2,-1,-2
1558451848676201,-1,0,-2,-11,-6,-4,-4,-3
1558451848676201,-4,-6,-15,-13,-2,0,-1,-2
1558451848693155,0,1,3,5,2,3,3,0
1558451848693155,1,1,0,1,0,-1,-1,-2
1558451848699143,-4,-8,-2,2,-3,-6,-7,-3
1558451848699143,3,3,7,6,6,5,5,5
1558451848707117,-2,-2,-7,-14,-4,1,-2,0
1558451848707117,0,1,-1,0,-3,-3,-2,-1
1558451848715098,2,0,4,5,-1,-1,-4,-2
1558451848715098,-14,-9,9,11,1,-2,0,-4
1558451848730058,-1,-3,-15,-5,2,-1,1,2
1558451848730058,0,1,-7,-16,0,5,3,1
1558451848737038,0,-1,1,-1,-6,-4,-5,-1
1558451848737038,2,1,-2,-1,-1,-1,3,-1
1558451848752219,1,2,12,11,5,3,3,1
1558451848752219,0,0,-3,-1,1,-3,0,-2
1558451848758985,-6,-6,-7,-4,-5,-4,-5,-2
1558451848758985,1,-2,-7,-18,-8,-2,-1,-2
1558451848775938,0,-1,5,5,1,-1,0,-1
1558451848775938,-1,-3,1,-3,0,2,0,-1
1558451848776931,-2,-2,-4,-3,-4,-3,1,1
1558451848776931,0,2,0,-3,2,-2,-1,0
1558451848789896,-1,-1,-2,-4,-3,-2,0,-1
1558451848789896,1,-2,-2,-3,-1,-2,1,0
1558451848796884,-2,2,5,2,4,2,3,0
1558451848796884,-4,-3,0,2,-7,-5,-3,-3
1558451848811838,-3,-4,-6,-4,1,0,-3,-2
1558451848811838,-3,-3,-7,-9,-3,-1,-3,-2
1558451848818818,0,2,-1,3,-4,-5,0,-1
1558451848818818,-1,-1,0,0,3,2,-2,1
1558451848835772,0,-2,7,12,2,1,-2,-2
1558451848835772,0,2,9,12,-1,-3,-2,-1
1558451848836770,0,-4,-19,-15,0,1,-1,0
1558451848836770,2,3,-4,5,-3,-3,-3,0
1558451848849742,0,-1,2,4,0,0,-5,-4
1558451848849742,-2,-1,1,0,-1,0,-1,-3
1558451848856313,-7,-2,1,2,-2,0,2,-1
1558451848856313,0,-1,-5,-7,0,-1,-1,-4
1558451848872265,-1,-2,6,3,-3,-4,-4,-1
1558451848872265,2,2,-9,-9,-3,0,2,-1
1558451848879247,0,-1,4,6,5,4,2,-1
1558451848879247,-1,-2,-6,-8,-6,-4,-4,-2
1558451848895463,-1,2,1,-5,-2,-1,2,1
1558451848895463,-3,-2,2,3,1,-1,-2,0
1558451848897196,-2,-3,-4,-7,-1,-2,-3,-1
1558451848897196,2,0,12,14,3,1,1,1
1558451848910162,2,2,-8,-17,-3,-3,-1,-2
1558451848910162,-3,-4,0,5,5,1,-2,-2
1558451848916148,-1,-1,0,7,-3,-2,-2,-2
1558451848916148,1,0,-1,-2,-3,4,1,0
1558451848932106,-1,1,1,3,-1,-4,-2,-1
1558451848932106,-9,-4,-1,0,0,1,-3,-3
1558451848939094,0,-2,11,6,-2,-1,-2,0
1558451848939094,0,0,-6,-4,0,0,-2,-2
1558451848955108,3,2,-1,-5,2,7,0,1
1558451848955108,-1,-3,-4,3,-5,-5,-2,1
1558451848957103,-2,-3,-2,-1,-3,-7,-4,-5
1558451848957103,-1,1,6,2,2,3,4,0
1558451848970155,-3,-5,-3,-4,-1,-3,-3,-2
1558451848970155,1,2,-3,-7,-1,-3,-2,-2
1558451848977049,1,1,-5,-9,-1,1,0,1
1558451848977049,-3,-1,2,5,4,4,1,1
1558451848992469,0,-1,2,4,2,2,2,-1
1558451848992469,-1,-3,-2,-5,-5,-3,-3,-3
1558451848998992,-1,0,-2,1,0,-4,0,0
1558451848998992,-2,-1,-4,0,2,-1,-2,-1
1558451849014947,-3,-2,4,-1,-7,-6,-1,0
1558451849014947,-2,-2,-5,-6,6,8,2,1
1558451849016945,-1,-1,-4,-3,-4,1,-5,-4
1558451849016945,-1,-1,-3,-1,0,0,1,1
1558451849028911,-2,0,-1,2,3,-1,0,1
1558451849028911,3,2,2,4,-2,0,-1,0
1558451849037932,-3,-4,-8,-9,-1,-1,-1,-1
1558451849037932,1,1,6,2,-4,-2,-2,1
1558451849051855,0,1,7,10,3,1,0,-2
1558451849051855,0,-3,-14,1,-1,-1,0,0
1558451849058868,-1,-3,-5,-9,-4,0,-1,-1
1558451849058868,-1,-4,-5,-1,-2,-4,-5,-4
1558451849075785,-2,0,2,0,0,1,0,0
1558451849075785,0,-1,2,0,1,0,2,0
1558451849076783,0,3,10,7,-1,1,1,0
1558451849076783,-3,-3,-5,4,1,2,-1,-1
1558451849088750,0,-2,-5,4,1,1,0,-1
1558451849088750,1,1,1,-4,0,-3,-1,1
1558451849097751,1,-3,-5,-4,-2,-5,2,0
1558451849097751,-4,-4,3,-1,2,0,-1,0
1558451849112687,-2,-1,1,0,-2,-3,-3,-2
1558451849112687,-3,-2,0,1,-3,-2,-3,-2
1558451849118685,0,3,-2,1,-2,-3,-2,-1
1558451849118685,-1,-1,3,5,0,-3,1,1
1558451849135627,2,2,-3,-7,-3,-3,-1,-1
1558451849135627,-5,-6,-11,-12,-10,-8,-1,-4
1558451849136624,-5,-4,-3,-3,-2,-1,1,-2
1558451849136624,2,4,3,4,5,3,0,-1
1558451849148595,0,-3,-6,-10,-5,-2,-3,0
1558451849148595,-2,-1,-1,2,1,-4,-2,0
1558451849157567,-4,-3,5,-1,-2,-3,-3,-3
1558451849157567,1,1,0,-4,0,2,5,0
1558451849172527,-4,-4,-5,4,-5,-5,-3,-4
1558451849172527,2,-1,1,-5,-2,-3,-5,-1
1558451849179507,0,-3,-1,4,-2,1,3,1
1558451849179507,0,1,0,-7,-6,-3,-3,-2
1558451849195521,1,-1,-3,-2,-2,-1,0,0
1558451849195521,-3,-2,0,1,1,1,-1,-2
1558451849196462,0,0,4,1,8,4,2,1
1558451849196462,0,0,0,3,-5,-2,-2,-2
1558451849209445,-2,-3,-6,-6,-5,-2,3,1
1558451849209445,-1,-4,-7,1,5,7,3,0
1558451849218484,-1,0,1,6,5,2,-2,-2
1558451849218484,3,0,-5,-16,-4,-3,-2,-1
1558451849232366,-7,-4,1,1,-2,-3,-4,-4
1558451849232366,-2,0,3,3,0,1,2,0
1558451849239354,3,2,-1,-5,-7,-5,-1,0
1558451849239354,-2,-2,0,19,8,7,2,2
1558451849255517,-2,-1,-6,-12,-2,-2,-4,-1
1558451849255517,0,0,8,2,2,0,-2,1
1558451849256724,-3,-2,-2,0,-4,-5,-3,-2
1558451849256724,0,0,-3,-2,-3,-5,0,-1
1558451849269484,2,-2,3,3,5,1,0,1
1558451849269484,0,2,3,3,-3,-3,0,0
1558451849278458,-2,-4,-11,-19,-5,-1,-2,-3
1558451849278458,-9,-7,-1,-1,-2,-1,-1,0
1558451849292417,1,1,10,12,6,2,2,-1
1558451849292417,1,-3,-13,-22,-4,0,-2,-2
1558451849299403,1,0,0,3,0,-1,-3,-1
1558451849299403,1,-2,-2,-3,-3,-2,-2,-2
1558451849323339,0,-3,-4,2,0,-2,1,4
1558451849323339,-1,1,4,5,0,3,1,-1
1558451849324329,3,3,2,8,1,1,0,2
1558451849324329,-2,-3,-5,1,2,0,-4,-2
1558451849329481,-3,0,-13,-9,-6,0,1,-1
1558451849329481,2,3,8,7,1,-1,-4,0
1558451849338294,0,0,-1,0,-1,-1,-1,-1
1558451849338294,-2,-2,-3,-2,-2,-1,3,1
1558451849352262,0,0,1,1,0,2,-3,-3
1558451849352262,-2,-1,-6,-18,-6,0,-1,-1
1558451849359237,-1,-1,6,3,3,-3,0,0
1558451849359237,-1,-2,-2,-2,-5,-3,-1,-1
1558451849375272,0,3,0,1,1,3,0,-1
1558451849375272,-1,-3,0,1,1,3,0,-1
1558451849377190,-4,-5,-3,-12,-5,-2,-3,-2
1558451849377190,0,-2,-8,-3,-5,-6,-4,-3
1558451849389682,-1,-2,1,-1,2,1,1,-1
1558451849389682,0,2,4,7,3,0,0,-1
1558451849398352,0,-1,-2,0,-3,-5,-5,-3
1558451849398352,0,0,-4,-10,-2,3,0,0
1558451849412130,-13,-8,7,6,-4,-5,-3,-1
1558451849412130,2,-2,-6,4,1,0,-1,-3
1558451849419077,-1,-2,3,3,-1,-3,-2,-1
1558451849419077,2,1,1,-3,0,-5,-3,-2
1558451849435032,1,-1,-3,-9,-3,-2,0,-2
1558451849435032,-3,0,4,-3,1,0,0,0
1558451849437027,-2,-1,-6,0,4,2,0,-2
1558451849437027,-1,-5,-5,-3,0,0,-3,-1
1558451849448995,4,4,9,8,3,1,-1,1
1558451849448995,-2,-2,-5,-3,-3,-4,-1,0
1558451849457556,0,0,4,-3,-1,3,1,-1
1558451849457556,-3,-2,-1,-4,-8,-7,-3,-3
1558451849472516,0,0,3,6,5,4,2,-2
1558451849472516,-2,-4,-3,0,-5,-4,-2,-2
1558451849479500,0,-1,-3,1,1,0,-4,-3
1558451849479500,1,1,4,1,2,-1,1,3
1558451849494493,3,1,5,4,-2,2,1,1
1558451849494493,-4,-3,-3,-2,-2,-2,-1,-2
1558451849501444,-1,0,0,-4,-4,0,-2,-2
1558451849501444,-5,-6,-4,-2,-2,-3,-2,-3
1558451849509420,1,0,-6,-4,-3,-2,0,0
1558451849509420,1,0,4,5,1,-2,-3,-3
1558451849518394,-3,-2,-5,-8,-4,-1,3,2
1558451849518394,-2,1,8,6,4,3,-1,-1
1558451849532359,-3,-4,-8,0,-2,2,1,-2
1558451849532359,0,0,-2,-14,-5,-5,0,1
1558451849539400,-2,-2,-4,4,-3,-3,-1,2
1558451849539400,1,4,5,6,5,3,2,-1
1558451849554298,4,0,0,-13,-3,-3,-2,1
1558451849554298,-10,-12,-11,-4,-3,-4,-7,-4
1558451849561843,2,1,5,7,0,-3,2,0
1558451849561843,1,-2,-3,-7,-3,3,2,0
1558451849568627,0,0,-3,2,2,1,2,1
1558451849568627,1,2,6,4,0,0,-1,-2
1558451849578461,-1,-3,-3,-1,1,2,2,0
1558451849578461,-2,1,-1,-3,-3,-3,-3,-3
1558451849592559,1,2,-3,-1,-4,-5,-5,-2
1558451849592559,2,4,-1,-10,-2,2,-2,2
1558451849599560,-3,-4,-10,-9,-4,-3,-5,-6
1558451849599560,-2,-2,5,1,1,0,1,0
1558451849614504,-2,-3,-9,-6,-4,-7,-4,-1
1558451849614504,0,-1,3,5,3,6,11,4
1558451849621483,2,3,-1,-10,1,4,2,0
1558451849621483,1,0,1,-1,-3,-3,-5,1
1558451849629460,-2,-4,2,-3,-3,-6,-3,-1
1558451849629460,1,-1,-3,0,-4,-4,-2,-1
1558451849638435,-1,-1,-1,0,5,4,3,4
1558451849638435,-1,2,2,3,-4,-1,0,-2
1558451849652435,-3,-5,-4,-1,-2,-4,-4,-3
1558451849652435,-1,-2,0,7,3,0,-3,-3
1558451849659499,-2,-1,5,7,5,7,2,-2
1558451849659499,-2,-6,-14,-6,-4,-2,-1,-1
1558451849674500,-3,-1,-1,-2,-4,0,0,-3
1558451849674500,-3,-2,-6,-15,-11,-9,-6,-2
1558451849681391,1,0,5,7,3,1,-2,1
1558451849681391,1,1,0,4,3,1,-1,1
1558451849698414,-15,-8,-10,-18,-4,0,-2,-4
1558451849698414,0,3,5,14,0,-3,1,-1
1558451849699342,-1,-3,-8,-14,-7,-4,-3,1
1558451849699342,4,3,7,2,-2,-2,1,0
1558451849712310,0,-2,-4,-4,-1,-1,0,-1
1558451849712310,-3,-2,3,3,2,-2,-2,-2
