timestamp,emg1,emg2,emg3,emg4,emg5,emg6,emg7,emg8
1558453206458848,5,8,5,7,1,1,4,2
1558453206458848,-1,-1,-3,-12,-5,-3,-4,-2
1558453206460903,-3,-13,1,3,-3,0,1,2
1558453206460903,-3,3,-2,-3,-1,-2,-1,-4
1558453206472811,-2,-5,2,0,-1,-1,-2,0
1558453206472811,5,3,-5,0,6,1,2,1
1558453206491760,-3,1,3,-14,-10,-7,-5,-3
1558453206491760,-2,2,-2,-3,2,1,-2,1
1558453206494751,-3,-11,-1,6,4,8,2,3
1558453206494751,-2,0,-6,-9,-6,-5,-3,-6
1558453206506719,3,2,6,14,7,1,0,2
1558453206506719,3,-1,11,13,2,4,3,-1
1558453206519714,-6,-3,-15,-13,-11,-13,-9,-7
1558453206519714,1,3,0,-1,-2,-5,-2,-1
1558453206523107,0,3,2,8,6,5,2,1
1558453206523107,0,-3,-4,-17,-9,-2,-1,0
1558453206533648,-1,-1,6,11,1,-1,-3,-3
1558453206533648,-2,-4,-9,-6,-4,-3,-4,-4
1558453206541566,-1,0,-1,2,-1,-1,-3,-2
1558453206541566,-1,-8,3,10,4,5,2,1
1558453206555529,2,3,-7,-17,-4,-2,3,0
1558453206555529,1,12,10,11,1,-1,0,0
1558453206573480,-5,-16,-11,-15,-1,1,1,-3
1558453206573480,2,4,-8,3,-1,-2,-2,-3
1558453206586446,-2,0,4,-1,-2,-2,-1,-2
1558453206586446,-3,-7,0,7,3,2,1,2
1558453206588489,5,14,15,14,0,1,1,0
1558453206588489,-7,-13,-20,-19,-7,-4,0,-3
1558453206593426,1,-1,-4,4,4,7,5,5
1558453206593426,2,1,6,-12,-6,-2,1,0
1558453206634318,0,0,2,-2,0,-1,-1,-1
1558453206634318,-4,-2,5,9,0,-2,-3,-4
1558453206634318,-1,1,-2,-4,-4,-1,-3,-5
1558453206634318,-6,-8,-2,0,-4,-6,-4,-2
1558453206647281,-1,2,-7,0,0,0,1,-3
1558453206647281,-2,-2,-2,2,-3,-6,-2,-2
1558453206647925,-1,-3,-2,1,0,-2,-1,3
1558453206647925,4,3,1,6,1,2,3,-1
1558453206649278,-5,-3,2,4,-3,-5,-6,-4
1558453206649278,0,-6,2,-5,3,1,-1,-1
1558453206652511,0,-1,-8,-6,-2,0,-1,-2
1558453206652511,-3,-2,-1,1,5,1,2,-3
1558453206667229,3,3,4,-6,-6,-2,1,0
1558453206667229,-1,-2,-7,-5,-2,0,-1,0
1558453206675208,2,0,7,9,-1,-4,-1,-3
1558453206675208,-2,-1,-1,-14,-2,-3,-4,1
1558453206684184,3,-2,4,15,3,4,2,5
1558453206684184,-5,-4,-16,-15,-8,-5,0,-2
1558453206698392,0,-6,-1,3,4,4,2,0
1558453206698392,-2,-3,0,2,-4,-4,-5,-5
1558453206714104,-1,3,9,7,3,2,-2,-3
1558453206714104,1,5,2,-1,-4,-3,-4,0
1558453206715514,-5,0,2,5,2,-2,1,0
1558453206715514,0,-3,-9,-16,-7,-1,1,1
1558453206727071,-3,-5,-6,-6,0,-2,0,-2
1558453206727071,1,4,-7,-7,-2,1,-1,-4
1558453206735066,6,5,8,7,-1,0,-1,-1
1558453206735066,-3,-1,9,3,3,1,0,1
1558453206743891,-1,-7,-15,-21,-3,-2,-1,-2
1558453206743891,-2,-4,8,7,-1,-4,-3,-3
1558453206757855,-3,-6,-10,-10,1,-2,-2,0
1558453206757855,-1,-2,-2,3,1,2,-1,-4
1558453206781440,0,6,0,-2,-5,-4,-5,-2
1558453206781440,-1,-4,-3,6,4,4,2,-1
1558453206781789,1,5,12,5,3,2,0,0
1558453206781789,-4,-7,-17,-7,-3,-2,-2,-4
1558453206795755,0,0,-1,-8,-2,-1,1,1
1558453206795755,5,7,14,10,3,2,-1,1
1558453206796749,-3,-3,-14,-4,0,2,-1,-2
1558453206796749,-1,1,3,0,-5,-2,-2,-3
1558453206803729,-4,-7,3,11,0,-4,-1,-2
1558453206803729,1,1,5,1,2,2,1,5
1558453206817789,0,2,-2,-7,-1,3,3,1
1558453206817789,3,5,4,-1,-2,-2,-3,0
1558453206824674,-1,-7,-7,-10,-3,-1,2,2
1558453206824674,-1,-2,-1,1,4,5,-3,-4
1558453206832653,-4,-5,5,6,2,0,1,-1
1558453206832653,2,4,-4,-8,-2,-4,-2,2
1558453206848704,-1,1,12,18,8,2,0,1
1558453206848704,-6,-8,-13,-29,-11,-5,0,-1
1558453206854656,0,-3,-7,-8,1,2,1,-1
1558453206854656,2,9,0,5,-1,-2,-2,-2
1558453206880662,-1,-5,-2,14,-1,-4,0,-1
1558453206880662,2,4,16,6,4,2,1,2
1558453206880662,-3,-4,-3,-2,-8,-8,-6,-2
1558453206880662,1,-4,-10,-6,5,4,3,1
1558453206893188,0,7,-5,-10,-7,-4,-2,2
1558453206893188,0,-6,2,13,5,7,4,0
1558453206893696,-1,1,6,-2,-5,-6,-5,-2
1558453206893696,-3,-1,-6,-2,2,0,0,1
1558453206907513,1,4,8,-4,-1,0,-2,-1
1558453206907513,-3,-7,-20,-14,-3,-1,-2,-3
1558453206915494,0,-1,-3,-7,-6,-4,-2,-3
1558453206915494,-3,0,16,16,-1,-1,1,0
1558453206923472,-2,-5,-22,-14,-1,1,-3,-2
1558453206923472,-2,2,5,11,0,-6,-1,0
1558453206937492,1,1,-2,-4,2,2,0,0
1558453206937492,0,-1,1,-1,1,-1,-1,-1
1558453206946472,-1,8,-1,2,-6,-4,-1,-6
1558453206946472,-2,-15,-8,-4,-1,0,1,-1
1558453206952559,-1,-6,-7,-1,-2,-5,-2,-1
1558453206952559,2,6,4,4,-1,1,-2,0
1558453206967417,1,3,7,0,6,6,1,0
1558453206967417,-2,-1,-8,-9,-8,-7,-5,-5
1558453206975412,-4,-8,0,4,-3,-2,0,-4
1558453206975412,1,-4,1,-4,-6,0,2,3
1558453206983374,-3,3,1,4,3,1,-5,-5
1558453206983374,5,7,0,-4,0,3,7,6
1558453206998334,-2,-1,1,-4,3,5,1,1
1558453206998334,-1,-2,1,9,2,-4,-2,-2
1558453207005315,-2,-6,-4,-2,-2,-1,-1,-2
1558453207005315,0,-4,-4,-11,-1,2,2,4
1558453207020277,-2,3,1,-8,-5,-5,-2,-2
1558453207020277,0,-11,1,6,1,-1,-1,1
1558453207027435,0,-2,0,-7,-3,-6,-5,1
1558453207027435,3,8,1,4,0,3,1,-1
1558453207035235,-4,-4,-1,3,4,4,2,1
1558453207035235,2,5,-2,2,-1,0,-3,-4
1558453207044212,0,-8,-3,-9,-3,2,3,4
1558453207044212,0,4,8,12,0,-7,-6,-5
1558453207058177,0,-3,-7,0,0,-1,-4,-1
1558453207058177,-3,5,1,11,3,1,1,-3
1558453207065155,-6,-8,-17,-27,-6,-1,1,-2
1558453207065155,2,0,1,8,1,-1,-1,-2
1558453207072136,6,15,7,8,0,1,2,1
1558453207072136,-10,-29,-13,-13,-4,-4,-4,-2
1558453207087097,2,6,5,11,-1,1,-2,-1
1558453207087097,-3,-1,5,1,1,0,-3,-2
1558453207095075,2,4,3,3,3,1,1,1
1558453207095075,-2,8,-2,-10,-2,3,0,-2
1558453207104052,0,-3,-5,-1,2,2,5,3
1558453207104052,-4,-7,-3,0,0,-2,-3,-1
1558453207118014,0,-2,1,-2,-6,-5,-4,0
1558453207118014,3,5,4,0,2,0,1,0
1558453207124995,2,0,4,-4,-1,-4,-3,-2
1558453207124995,-5,-2,5,7,3,-2,-2,-1
1558453207140952,-3,-7,-15,-18,-10,-6,-5,-3
1558453207140952,-2,-4,5,2,0,0,-1,0
1558453207146936,1,5,4,8,2,-1,-3,-2
1558453207146936,1,1,-4,-5,-4,-4,-2,-2
1558453207154917,-1,2,7,3,5,4,1,-1
1558453207154917,0,-7,-9,-8,-5,-6,0,0
1558453207163892,-1,2,9,7,-1,-1,-2,1
1558453207163892,-3,-2,-4,6,8,6,5,2
1558453207185833,2,1,-1,-13,-5,-2,-4,0
1558453207185833,2,11,1,1,-4,0,-1,-1
1558453207187938,-6,-15,-16,-14,-1,-1,1,-2
1558453207187938,0,2,9,7,-5,-7,-2,-2
1558453207200793,-3,-1,-4,-1,2,3,0,-4
1558453207200793,2,6,11,2,13,10,5,3
1558453207207776,-7,-9,-7,-8,-12,-7,-8,-5
1558453207207776,3,7,-2,-6,-5,-1,1,2
1558453207223732,-11,-12,-9,-1,-2,-1,2,1
1558453207223732,2,1,3,8,-3,-5,-2,-2
1558453207224766,0,-2,-2,0,0,-2,-1,-1
1558453207224766,-1,-2,-4,-9,-1,0,-2,-3
1558453207237694,3,9,2,1,-4,-5,-5,-5
1558453207237694,3,3,21,35,8,1,-2,1
1558453207244774,-8,-8,-33,-54,-10,2,-2,-6
1558453207244774,-1,-7,-6,-6,-5,-1,0,0
1558453207260731,-1,0,10,10,1,-2,1,-2
1558453207260731,0,-2,-14,-7,-2,1,-1,-1
1558453207267813,4,4,21,21,4,1,-2,-1
1558453207267813,0,0,-1,-5,-1,-2,-3,-1
1558453207274690,3,2,1,4,4,3,1,2
1558453207274690,-4,-4,-6,-24,-7,-3,0,-1
1558453207284663,1,0,4,20,-2,-2,5,2
1558453207284663,-2,-3,-23,-18,-5,-4,-3,-1
1558453207298625,5,7,8,6,0,-1,1,0
1558453207298625,-5,-9,-9,-4,-1,-8,-6,-3
1558453207304855,0,-2,3,-16,-5,-6,0,5
1558453207304855,-3,-4,2,0,0,-1,-3,-2
1558453207328547,4,0,7,10,4,5,5,4
1558453207328547,1,7,-14,-16,-9,-2,-2,-2
1558453207330540,-4,-2,4,11,4,0,-1,-2
1558453207330540,-5,-2,9,12,2,4,-2,0
1558453207334529,-4,-2,0,-2,1,2,-2,-6
1558453207334529,-5,-6,-6,-2,-6,-8,-3,-4
1558453207343365,1,1,-6,4,1,-2,-4,-6
1558453207343365,0,-2,6,-6,-4,-3,-1,-4
1558453207358325,-3,-5,7,8,1,-2,1,2
1558453207358325,-5,-3,-13,-7,-6,-3,-3,-3
1558453207365304,-2,1,-2,-5,-3,-4,-4,-5
1558453207365304,0,5,4,3,-3,-6,-3,-1
1558453207380632,-1,-2,-14,-12,-4,-8,-5,-1
1558453207380632,-1,-6,6,-8,-1,0,0,1
1558453207387247,3,4,11,14,5,3,3,2
1558453207387247,-2,-5,-11,-14,-5,-2,-2,-2
1558453207395224,-1,-3,3,10,-3,-4,0,0
1558453207395224,0,4,-10,-23,-1,2,1,2
1558453207404201,1,6,0,7,1,-1,-1,-1
1558453207404201,1,3,9,0,2,0,1,0
1558453207418176,-5,-10,-12,-1,2,3,-4,-4
1558453207418176,3,3,2,7,-2,-5,0,3
1558453207425145,-9,-10,1,2,-1,-2,-3,-5
1558453207425145,1,-1,-11,-2,-2,-8,-3,-3
1558453207440156,-2,2,-6,-24,-14,-6,-1,-4
1558453207440156,0,-6,4,13,8,5,3,0
1558453207447139,1,7,5,4,-1,-2,-2,-1
1558453207447139,2,3,2,5,-2,-1,-3,-1
1558453207455116,-3,-10,-11,-5,-2,-2,-1,0
1558453207455116,1,1,0,-9,-1,-1,-3,-2
1558453207470075,7,9,15,14,9,5,1,2
1558453207470075,-1,6,4,6,-2,0,-1,-3
1558453207478055,-3,-15,-22,-13,-1,-4,-4,-2
1558453207478055,-1,-1,14,12,-6,-3,0,1
1558453207492016,1,-5,-8,1,2,-2,-1,-2
1558453207492016,-2,4,-4,-19,-5,1,1,-3
1558453207500997,1,1,3,9,1,2,-1,1
1558453207500997,-3,-3,1,6,2,3,-2,-3
1558453207506976,3,0,-2,-15,-4,-2,-2,2
1558453207506976,-2,-5,-2,4,5,5,3,1
1558453207515084,1,6,-4,-11,-1,-2,0,2
1558453207515084,0,-3,-2,1,1,-1,-2,-3
1558453207538892,-1,-4,-2,8,1,0,2,0
1558453207538892,2,-6,8,11,0,-2,-5,1
1558453207539888,2,12,-1,-1,-1,-2,4,5
1558453207539888,-5,-12,-12,-2,2,6,2,-2
1558453207544874,-1,0,-5,-13,-5,0,0,0
1558453207544874,-1,-5,4,0,2,1,3,1
1558453207560870,1,3,5,-2,-4,-3,-1,-2
1558453207560870,-2,0,-5,-10,-4,-5,-1,1
1558453207567814,3,5,2,6,-4,-3,2,1
1558453207567814,-1,-6,-15,-14,1,0,-3,-2
1558453207574953,-1,-5,11,15,0,-3,-1,-2
1558453207574953,0,-2,4,-1,1,-1,-2,-1
1558453207589756,-3,-1,0,2,-1,-2,-2,-2
1558453207589756,1,5,-10,-6,-7,-4,-1,-3
1558453207597760,3,0,1,0,4,3,3,-1
1558453207597760,-8,-3,-1,12,1,-5,-2,-3
1558453207606710,-1,-2,3,-16,-8,-7,-1,0
1558453207606710,1,4,-2,-6,4,3,-2,-2
1558453207621670,1,-2,-1,2,-2,-2,-3,-2
1558453207621670,3,1,-2,-3,-2,-2,-2,1
1558453207627656,3,6,-10,-8,2,5,6,5
1558453207627656,-6,-6,11,18,-3,-5,-2,-3
1558453207642676,-2,-4,-8,-13,1,3,0,-3
1558453207642676,2,0,13,17,5,5,1,0
1558453207649658,-5,-9,-17,-11,-4,-5,-5,-4
1558453207649658,2,14,-3,-2,0,2,1,1
1558453207666614,-3,-15,4,17,8,10,7,3
1558453207666614,3,8,6,-5,-3,-4,-3,-1
1558453207667608,-1,-4,-2,-4,4,7,0,0
1558453207667608,0,2,-2,0,0,-1,4,2
1558453207680577,-3,4,1,2,-2,-2,-5,-1
1558453207680577,-3,-7,-8,-11,-4,-5,-2,-3
1558453207687555,2,5,6,9,2,-2,1,2
1558453207687555,1,-1,6,10,-1,1,-3,0
1558453207703513,-6,-1,-8,-7,4,2,2,1
1558453207703513,0,-1,0,8,3,-1,3,2
1558453207709496,-3,-5,-5,-5,-7,-7,-7,-7
1558453207709496,-3,-7,-9,-9,-1,2,3,-1
1558453207726456,-2,-4,0,2,-3,-1,-7,-5
1558453207726456,-2,1,-4,-7,-2,-1,1,-1
1558453207727881,2,6,7,24,3,2,-2,-1
1558453207727881,0,-11,4,0,-1,-4,-1,2
1558453207740412,0,3,-7,-12,-7,-4,-4,-3
1558453207740412,-2,0,-1,-3,-1,1,-3,-1
1558453207747434,-1,-1,0,6,1,-2,0,2
1558453207747434,-2,-2,11,11,2,2,-1,-2
1558453207763388,-1,-3,-15,-15,-4,-1,1,2
1558453207763388,0,1,4,5,4,2,-2,-2
1558453207770370,-1,3,4,2,2,3,7,1
1558453207770370,-3,1,-9,-13,-5,-3,-5,-2
1558453207786327,0,-8,2,1,-2,-4,1,0
1558453207786327,3,8,-5,-4,-3,-5,-3,-3
1558453207787326,-8,-10,1,1,1,1,-1,-2
1558453207787326,-4,-9,-7,-5,-1,-1,-1,-5
1558453207800698,1,7,12,11,1,-1,-2,-5
1558453207800698,-1,-3,-7,-10,-4,-2,-1,-1
1558453207807383,-1,2,-3,-7,-2,-1,-2,-2
1558453207807383,-2,-1,-3,1,-2,-3,-2,-1
1558453207823228,-2,-5,4,4,1,-3,-2,-3
1558453207823228,5,6,2,4,3,2,4,2
1558453207830210,-11,-11,-19,-25,-9,-4,-4,-6
1558453207830210,1,0,3,1,-4,-5,-2,0
1558453207846168,0,4,12,3,2,2,-1,2
1558453207846168,-2,0,-17,-20,-10,-3,-2,0
1558453207848162,2,0,6,8,6,3,4,3
1558453207848162,2,2,-6,-17,-1,4,2,-2
1558453207860582,-4,-2,-2,-5,-3,-2,-1,-2
1558453207860582,-5,-12,-2,-3,-2,0,-2,-3
1558453207867352,-1,2,0,6,-2,0,-1,-3
1558453207867352,-2,-3,2,10,0,-4,-3,0
1558453207883110,3,9,-11,-11,-1,-1,-1,0
1558453207883110,-3,-1,6,3,-4,-3,-1,0
1558453207890049,-2,-1,2,3,-1,-4,-3,-4
1558453207890049,0,-6,5,-1,4,3,1,1
1558453207906007,-2,-5,-11,-8,-2,-3,-2,-3
1558453207906007,-2,-1,-4,2,-2,-1,0,0
1558453207908002,0,1,0,-1,-1,0,0,0
1558453207908002,1,6,9,14,0,-2,-2,-3
1558453207920968,0,-7,-10,-10,-3,2,-4,-4
1558453207920968,5,5,5,6,5,3,1,0
1558453207926951,4,6,-1,-6,4,4,-1,-2
1558453207926951,-7,-12,2,10,-4,-4,-4,-2
1558453207943036,-5,-4,-7,-3,-3,-3,-1,-2
1558453207943036,-4,-3,-2,4,-3,-2,-1,-1
1558453207950095,3,-2,-2,1,9,13,6,2
1558453207950095,3,3,-5,-15,-5,1,2,3
1558453207966790,1,3,9,14,1,-3,0,-3
1558453207966790,-3,-2,-13,-27,-8,-7,-4,-2
1558453207968065,1,-5,3,5,1,-4,1,3
1558453207968065,-4,-5,-5,-5,1,3,0,-2
1558453207979942,0,0,3,6,-3,-6,-1,1
1558453207979942,3,6,-3,-1,0,2,2,0
1558453207988918,-4,-12,0,0,1,5,1,-2
1558453207988918,4,7,3,6,0,-2,-3,0
1558453208002953,-2,9,-5,-3,-4,-2,2,1
1558453208002953,-1,-13,-1,3,2,3,-1,-4
1558453208009862,-4,-4,2,3,0,1,-1,2
1558453208009862,0,0,-5,-1,1,-2,-1,-2
1558453208025820,2,6,12,11,-1,2,0,0
1558453208025820,-1,6,-2,-12,-7,-7,-6,-4
1558453208027814,-3,-5,-5,2,-5,-1,-3,-1
1558453208027814,-10,-11,-9,-12,-1,-2,-2,-5
1558453208040780,4,4,5,3,2,1,0,0
1558453208040780,-3,-5,-7,-2,-1,0,1,0
1558453208047868,2,4,-2,-2,-4,-8,-7,-1
1558453208047868,-4,2,-8,-8,0,0,-1,0
1558453208062828,2,-2,6,9,6,6,4,4
1558453208062828,0,10,-18,-18,-3,-2,0,1
1558453208069814,-4,-21,-2,-4,-7,-5,-4,-5
1558453208069814,1,-3,-1,-1,-5,-3,0,4
1558453208094049,-1,-4,-6,-9,0,-1,-4,-5
1558453208094049,-1,3,11,16,-1,-1,-2,-2
1558453208094744,-3,2,-4,-6,-3,-5,-2,-1
1558453208094744,0,3,-3,-6,-2,1,0,-2
1558453208100728,0,0,5,17,5,-1,-1,-1
1558453208100728,0,-2,-9,-16,-7,-1,-1,1
1558453208109334,-6,-2,-5,-5,-3,-3,-2,0
1558453208109334,0,-4,1,5,0,-1,-2,-4
1558453208122669,1,0,2,-3,-1,-4,-3,-2
1558453208122669,1,2,7,12,10,7,2,-1
1558453208129650,-1,3,0,-3,-4,-1,-1,-2
1558453208129650,-1,-6,0,5,0,0,-1,0
1558453208146666,-6,-6,-10,-14,-4,-1,-3,-4
1558453208146666,-3,-6,-2,-1,0,-2,-1,-1
1558453208147670,3,15,1,-2,0,-2,1,1
1558453208147670,-3,-2,-3,-1,-3,-2,-1,-1
1558453208159702,-2,-6,-3,-5,-5,-3,-1,-3
1558453208159702,-5,-10,2,9,-5,-3,-4,-3
1558453208168597,-1,5,4,5,5,1,1,-1
1558453208168597,2,3,-7,-11,-4,-4,-2,-2
1558453208183370,2,1,-4,-5,0,4,4,3
1558453208183370,5,7,6,8,1,1,2,1
1558453208190356,-5,-10,-7,-6,-1,-3,-5,-3
1558453208190356,-4,-5,-1,4,-3,-5,-5,-4
1558453208206314,-4,0,-5,-6,-5,-5,-5,-3
1558453208206314,-1,-4,4,6,0,-3,2,1
1558453208207333,4,5,5,4,8,7,1,-1
1558453208207333,-4,0,0,5,-1,-5,-3,-3
1558453208220276,-1,-2,-14,-33,-12,0,1,0
1558453208220276,-3,-5,-2,-4,-3,-2,0,0
1558453208229252,-1,-2,0,-1,0,-2,0,0
1558453208229252,1,4,1,7,3,3,0,1
1558453208243215,-2,-4,-1,-7,-2,-3,-2,0
1558453208243215,-1,2,7,9,5,1,-2,-3
1558453208250196,-1,-7,-23,-21,-11,-7,-4,-3
1558453208250196,-1,-1,-3,0,2,8,4,2
1558453208266153,2,4,-1,7,-2,-4,-3,-4
1558453208266153,-2,-2,16,14,3,4,2,0
1558453208268148,-2,0,-6,-16,-4,-4,-1,-2
1558453208268148,3,6,10,6,0,-1,0,0
1558453208280117,-5,-8,-11,-4,2,3,-1,0
1558453208280117,1,-3,0,1,1,-1,-2,1
1558453208305173,1,7,-10,-2,-6,-5,-4,0
1558453208305173,-2,2,-4,-10,-4,-4,-2,-2
1558453208306087,-1,-7,5,9,3,0,-1,1
1558453208306087,-4,-2,-6,-6,-3,1,1,-2
1558453208310077,-3,-8,10,7,0,2,1,1
1558453208310077,-1,1,-3,-1,-1,-2,-3,-3
1558453208326035,1,2,-2,2,3,0,-2,0
1558453208326035,-5,-4,-11,-7,-3,-2,-2,-3
1558453208328035,0,2,-1,-10,-8,-2,0,-2
1558453208328035,-1,-2,2,-3,-3,-4,-4,-3
1558453208340033,-4,0,10,16,7,0,1,-3
1558453208340033,1,-1,-13,-33,-13,-4,-4,-2
1558453208348973,0,-1,5,9,3,1,1,-1
1558453208348973,0,2,-1,4,1,3,-1,0
1558453208362937,1,-2,9,12,1,-1,-2,3
1558453208362937,0,1,-10,-12,-2,-3,-5,-4
1558453208371673,-1,-7,-7,-2,-2,-3,2,4
1558453208371673,3,6,2,3,2,-2,1,1
1558453208385429,0,-12,-4,-6,-3,-4,-1,-3
1558453208385429,-1,3,6,12,1,-1,0,-2
1558453208392412,-3,-3,6,6,4,6,-1,-1
1558453208392412,-2,-3,-5,-8,-2,-3,0,-2
1558453208399392,3,7,0,-2,-2,-2,-1,0
1558453208399392,1,-3,1,3,3,3,3,1
1558453208409096,-1,6,2,9,3,-2,-2,-4
1558453208409096,-3,-3,-1,-16,-3,2,1,-1
1558453208438287,-6,-12,-14,-4,-1,0,-1,-1
1558453208438287,2,5,7,8,1,-2,0,1
1558453208440281,-4,-4,-1,-2,-4,-2,-3,-1
1558453208440281,2,1,2,0,2,3,1,1
1558453208445960,-4,-3,-7,-5,-8,-3,-1,-1
1558453208445960,1,-1,-2,-4,-1,-4,-2,0
1558453208452250,-1,9,-1,2,3,4,1,-5
1558453208452250,-3,-16,-5,-5,-7,-5,-3,-1
1558453208469205,1,4,8,3,6,3,2,1
1558453208469205,-1,-4,3,9,7,6,2,2
1558453208470200,2,7,7,4,-3,0,-2,-1
1558453208470200,-5,-5,-7,4,-2,-5,-5,-5
1558453208483166,-1,5,-7,-10,-10,-14,-5,-3
1558453208483166,-4,-8,-6,-8,-1,1,1,-1
1558453208489760,-1,2,3,3,1,-1,1,1
1558453208489760,1,-2,2,6,2,0,0,0
1558453208505687,1,2,0,-5,-4,-2,1,0
1558453208505687,3,6,2,5,-1,-3,-1,0
1558453208512667,-1,0,8,8,-1,-1,-2,1
1558453208512667,-2,-3,-19,-20,-1,3,0,0
1558453208528910,-3,0,-5,0,3,0,-2,-2
1558453208528910,-3,-7,-1,-1,-7,-5,-3,-2
1558453208530620,0,-6,-1,4,-4,-3,-4,-3
1558453208530620,-2,2,1,0,1,-1,-1,-1
1558453208542587,3,11,9,2,3,2,2,2
1558453208542587,-3,-4,0,7,-1,-2,-2,-2
1558453208557547,-3,-6,-18,-17,-4,-4,0,-2
1558453208557547,0,2,-1,-1,1,1,-1,-3
1558453208565525,-1,-5,6,4,0,0,-2,-2
1558453208565525,-3,5,3,-4,-1,0,-2,-2
1558453208579490,-2,-7,-8,2,-1,-2,-2,-1
1558453208579490,1,0,1,2,-3,-3,-2,1
1558453208588924,3,-3,3,6,1,7,1,1
1558453208588924,0,5,-3,-4,-1,1,1,1
1558453208589911,-2,-4,3,-2,0,-2,1,0
1558453208589911,-3,-4,-8,-4,1,0,2,1
1558453208602466,-1,3,5,7,-4,-3,-5,-4
1558453208602466,-3,-11,-2,-3,-3,-5,-2,-4
1558453208611708,0,2,1,1,3,2,-1,-1
1558453208611708,4,3,7,9,-2,-4,-3,0
1558453208633594,-4,-1,-2,-4,5,6,-1,-2
1558453208633594,-6,-5,-8,-8,-1,-2,-2,-3
1558453208635595,2,1,-5,-14,-4,-1,-1,-1
1558453208635595,0,2,8,7,-4,-4,0,1
1558453208649553,-1,0,-2,-1,1,2,1,-1
1558453208649553,0,-3,-10,-8,0,-2,-3,-1
1558453208663515,-1,-6,0,6,-3,2,-2,-4
1558453208663515,0,-4,0,0,-2,0,1,3
1558453208664511,0,13,3,-1,-3,-3,4,3
1558453208664511,-4,-22,-4,11,7,0,2,1
1558453208669498,0,-2,0,-1,0,-2,-1,2
1558453208669498,2,6,-12,-13,-4,-2,-4,0
1558453208694432,-4,-5,3,-2,-4,-7,-7,-7
1558453208694432,1,7,-1,-2,-1,0,2,0
1558453208695428,2,3,1,13,-1,-7,-1,0
1558453208695428,-6,-11,-4,-17,-4,-1,0,-3
1558453208708395,-3,-9,-6,-6,-2,-2,-4,-2
1558453208708395,0,9,0,0,-4,-1,-4,-3
1558453208710388,1,0,4,8,7,7,5,4
1558453208710388,1,6,8,11,7,4,0,-2
1558453208723354,1,-2,-10,-9,-4,-1,-1,1
1558453208723354,1,2,-5,-7,-7,-1,-2,-1
1558453208737318,-14,-18,-14,-11,-6,-3,-4,-4
1558453208737318,-1,0,10,11,4,2,-2,-2
1558453208746293,0,-4,-1,-2,1,3,3,0
1558453208746293,4,8,7,8,2,-2,1,1
1558453208753273,4,10,6,-9,-2,-3,-4,-1
1558453208753273,-4,-4,-16,-18,-7,-3,0,-2
1558453208776213,-6,-14,-4,3,-7,-7,-6,-5
1558453208776213,1,0,1,1,1,2,1,3
1558453208785191,3,4,4,-5,1,-2,0,-1
1558453208785191,-3,-2,1,11,-1,0,0,0
1558453208786231,2,5,-3,0,0,-2,0,-2
1558453208786231,-5,-5,1,1,1,-1,-4,-6
1558453208822584,1,-1,-4,-5,2,1,-3,-3
1558453208822584,3,5,5,-15,-7,-2,1,3
1558453208822584,-4,3,-1,4,-1,-2,-2,0
1558453208822584,-8,-28,-23,-19,-2,0,-2,-1
1558453208835585,-1,9,6,4,1,-2,-2,-2
1558453208835585,0,1,2,8,1,-1,-2,-2
1558453208844588,2,-4,1,3,-2,0,1,1
1558453208844588,1,4,4,2,-1,-1,-1,2
1558453208846525,-4,-5,-5,-3,-6,-7,-1,0
1558453208846525,-1,-4,-1,4,-1,1,-2,-2
1558453208847519,2,6,1,6,3,1,3,3
1558453208847519,1,3,-1,0,-1,0,-2,-1
1558453208867829,-8,-8,-3,-1,-1,-3,-6,-5
1558453208867829,1,4,-3,6,0,0,0,1
1558453208868462,0,-3,1,-7,1,-1,-1,-1
1558453208868462,-1,3,2,0,-5,-8,-5,-5
1558453208872455,0,-2,-4,-2,-5,-2,1,2
1558453208872455,-5,-9,4,9,9,7,4,-1
1558453208896388,1,-2,-4,0,-1,-2,-1,2
1558453208896388,0,7,-1,-17,-4,-2,-2,-2
1558453208898383,-3,-11,-4,-2,-3,-1,-1,-1
1558453208898383,0,-1,-3,2,2,1,1,-2
1558453208911348,-5,-6,-5,-14,-7,-3,-5,-3
1558453208911348,6,11,11,9,8,6,8,4
1558453208912347,1,5,3,5,-3,2,-3,0
1558453208912347,-3,-10,-8,-12,-3,-3,-1,0
1558453208925783,2,4,3,9,1,-2,-5,-3
1558453208925783,-2,-7,-2,-1,-3,-3,-5,-2
1558453208932662,-4,-4,4,2,-2,1,0,-2
1558453208932662,0,1,-14,-11,-8,-8,-4,-2
1558453208956636,4,6,3,1,1,-1,2,1
1558453208956636,0,2,14,18,4,3,-3,-1
1558453208964571,-5,-2,-11,-18,-6,-3,1,0
1558453208964571,0,-4,-3,-1,4,2,0,-1
1558453208964571,-8,-10,-2,-10,-7,-2,-1,-5
1558453208964571,1,2,0,6,-6,-6,-1,-2
1558453208971556,4,7,12,20,9,5,5,2
1558453208971556,-4,-2,-15,-18,-4,-3,-2,0
1558453208985549,-3,-3,-7,-5,1,0,-3,-4
1558453208985549,-1,0,-2,-11,-3,-2,0,-1
1558453208992530,1,5,3,2,-2,-4,-2,-3
1558453208992530,-2,-7,2,8,3,4,-1,-1
1558453209009484,3,2,-3,0,-4,0,2,0
1558453209009484,-5,-7,-6,-1,-2,-2,-4,-4
1558453209014478,5,10,1,8,3,-2,-3,-2
1558453209014478,-3,-7,2,-1,-2,-1,0,1
1558453209023853,-4,-10,-7,0,-3,1,1,0
1558453209023853,-4,-7,3,7,1,2,-2,-1
1558453209031800,0,2,-4,-14,-3,-1,1,2
1558453209031800,9,15,12,18,8,1,1,2
1558453209053809,-4,-2,-1,-9,-6,-7,-4,-2
1558453209053809,-6,-3,-8,-6,1,1,0,-2
1558453209054738,1,-2,3,12,5,7,2,1
1558453209054738,-4,-4,-2,-5,-4,-3,-4,-4
1558453209068745,2,-2,-1,0,-3,-7,-3,1
1558453209068745,2,5,-3,-7,6,11,6,5
1558453209091639,-3,-3,-1,-5,-3,-4,-2,0
1558453209091639,2,5,7,3,-3,0,1,1
1558453209092637,-1,3,2,5,6,4,3,0
1558453209092637,-5,-10,-8,-18,-10,-10,-3,-3
1558453209093696,-1,1,-3,-2,1,-1,-4,-2
1558453209093696,-2,-2,1,3,-1,0,-2,-3
1558453209113786,1,-2,13,8,5,3,1,4
1558453209113786,1,6,-4,-2,0,2,1,0
1558453209115574,-5,-16,-13,-12,-7,-7,-5,-3
1558453209115574,-1,9,2,1,-1,-3,-4,-3
1558453209128112,2,0,2,7,1,1,-1,0
1558453209128112,2,3,6,10,2,0,2,4
1558453209143038,6,3,-6,-19,0,-1,-1,-1
1558453209143038,-10,-11,2,7,-7,-7,-4,-1
1558453209144031,-4,-7,-16,-24,-6,-3,0,-4
1558453209144031,-2,-7,0,4,-1,1,-1,-2
1558453209151126,3,7,8,9,2,2,1,1
1558453209151126,2,2,-7,-15,-2,0,-1,-1
1558453209173954,0,6,0,3,1,1,3,4
1558453209173954,-2,-8,-4,-1,-1,-6,-2,-2
1558453209174978,-1,0,10,15,0,1,0,1
1558453209174978,-4,-6,-15,-20,-1,1,-3,-6
1558453209188946,-4,-3,-8,-10,-8,-7,-7,-3
1558453209188946,2,-6,1,8,4,4,3,3
1558453209190002,1,3,3,6,-2,-1,-1,0
1558453209190002,-1,4,-4,-2,-1,-4,-1,-3
1558453209201880,-1,-3,1,4,5,3,1,-1
1558453209201880,-3,1,2,8,-2,-3,-5,-3
1558453209219107,-2,0,-10,-22,-8,-2,-2,-3
1558453209219107,0,-1,4,5,-3,-4,-2,-1
1558453209225076,1,1,-1,4,-2,1,0,-2
1558453209225076,-2,-2,-1,0,1,-4,-2,-2
1558453209240002,-5,-5,-6,-3,-1,-1,-2,-2
1558453209240002,0,2,-1,-1,0,-2,1,0
1558453209249029,-2,0,1,2,2,5,-1,-1
1558453209249029,2,4,0,0,-3,-4,-2,-3
1558453209249972,-4,-8,-4,-1,0,0,-1,-3
1558453209249972,2,5,5,2,2,4,2,3
1558453209270919,-1,-7,2,4,1,-2,-2,-1
1558453209270919,-3,4,-8,-8,-7,-5,-6,-3
1558453209272911,-1,-7,-5,0,-1,-1,1,1
1558453209272911,0,0,6,9,6,5,6,3
1558453209285901,0,-1,-13,-7,-3,0,-3,-2
1558453209285901,1,2,7,9,0,-2,-2,0
1558453209299843,0,3,-9,-13,-5,2,2,1
1558453209299843,-6,-10,-4,-4,-3,-2,-3,0
1558453209307818,-1,5,14,14,3,2,0,-1
1558453209307818,-2,-1,-17,-15,-1,0,3,3
1558453209331619,-3,0,3,15,3,-2,-1,-2
1558453209331619,-2,-4,-2,-5,-2,-4,-2,-1
1558453209332616,-2,-1,7,5,-1,-5,-4,-2
1558453209332616,-2,-3,8,13,-3,-3,-4,-4
1558453209333734,1,2,-12,-23,-2,-2,-2,-3
1558453209333734,-4,-4,0,3,1,5,2,0
1558453209360545,2,3,2,-9,-5,-4,-1,-1
1558453209360545,-4,-8,-1,-1,-1,-1,-2,-3
1558453209370515,-2,-3,-5,-4,-1,0,-2,-2
1558453209370515,1,5,11,10,0,-1,1,1
1558453209370515,-1,-4,-15,-2,0,0,0,-1
1558453209370515,5,4,4,-3,0,1,0,0
1558453209374651,-3,-3,0,0,-4,-5,-4,-3
1558453209374651,-1,-4,-3,-4,-2,-3,-1,-1
1558453209391461,-1,2,-2,3,3,3,2,1
1558453209391461,-6,-8,-6,-15,-10,-6,-4,-4
1558453209392456,0,4,-3,5,2,-2,2,-1
1558453209392456,2,1,-2,-1,0,0,0,-1
1558453209406418,-1,-5,0,0,-4,-2,1,-1
1558453209406418,0,-1,-6,-12,0,1,-4,-3
1558453209420864,-1,5,9,6,-1,-1,-2,-1
1558453209420864,-3,-10,-5,0,-1,-3,-4,-4
1558453209427846,0,3,-11,-18,-2,3,0,2
1558453209427846,2,-4,4,13,3,-2,1,2
1558453209434832,-1,-5,4,4,-2,0,1,1
1558453209434832,4,9,-2,-4,-5,-6,-8,-3
1558453209450787,-3,-6,6,9,0,-2,-3,-3
1558453209450787,-11,-9,-5,2,-1,2,2,-2
1558453209452780,4,5,6,-1,3,1,2,3
1558453209452780,-1,-5,-5,5,0,0,0,2
1558453209465778,3,4,-1,-5,-2,-6,-3,-3
1558453209465778,1,1,-1,1,-6,-4,0,3
1558453209472731,-6,-5,-1,2,-4,-6,-3,-5
1558453209472731,4,6,6,2,1,2,1,0
1558453209487686,-2,-2,0,2,0,4,3,-1
1558453209487686,3,3,-1,-4,2,2,1,0
1558453209496664,-4,-12,-4,-1,-1,-2,-1,-2
1558453209496664,1,-1,-6,-9,-4,-1,0,1
1558453209511624,-2,0,-1,-1,1,-3,-1,-2
1558453209511624,1,5,-1,7,2,2,-1,-3
1558453209512621,-2,-1,5,2,1,1,-2,-3
1558453209512621,-2,0,-12,-18,-5,-2,-2,-1
1558453209525912,-2,-5,10,4,-4,-2,-3,-3
1558453209525912,0,1,-8,3,1,1,-1,-1
1558453209532745,-3,-8,-5,-4,-7,-5,-5,0
1558453209532745,-2,0,-2,4,3,3,2,0
1558453209556832,3,2,1,-1,0,-1,1,2
1558453209556832,3,5,1,-8,-2,-1,-1,-2
1558453209557795,-1,1,-3,12,4,2,-1,0
1558453209557795,-3,-2,4,-3,-2,-3,-3,-4
1558453209570787,-1,-5,-4,0,-5,-6,-5,-2
1558453209570787,1,0,4,5,6,5,5,3
1558453209587989,2,3,-4,-3,-5,-2,1,0
1558453209587989,-1,7,10,12,6,0,-1,-2
1558453209588711,-2,-11,-17,-16,-7,-3,-1,-1
1558453209588711,0,1,1,-13,-5,-5,-3,-5
1558453209592700,-2,-4,3,2,1,6,5,0
1558453209592700,-1,-2,1,8,-2,-2,-1,-4
1558453209616636,-1,1,3,4,1,-1,-1,1
1558453209616636,1,2,-5,-1,-4,-7,-4,-2
1558453209617791,-2,-6,2,-5,0,0,-2,-2
1558453209617791,0,-1,-4,3,0,0,0,-1
1558453209639737,-5,-2,3,2,-1,0,-5,-3
1558453209639737,0,-3,1,-1,-3,-2,-2,0
1558453209640735,5,7,3,0,2,-4,-3,-1
1558453209640735,-5,-8,-6,2,-6,-4,-1,0
1558453209645722,0,3,-4,-14,-2,1,1,1
1558453209645722,-2,-2,7,-1,0,2,0,-1
1558453209652704,-1,-8,-4,10,-1,-1,-1,1
1558453209652704,3,7,-5,-19,-2,-1,2,2
1558453209667664,-2,-7,-1,7,3,2,-1,0
1558453209667664,1,-2,-1,3,3,-1,1,0
1558453209674647,2,8,1,-1,4,5,3,3
1558453209674647,0,-3,0,-6,-8,-5,-2,-3
1558453209698612,3,11,-3,6,6,7,2,-2
1558453209698612,-8,-12,-7,-6,-4,-2,-2,0
1558453209700576,-2,-3,9,7,1,-2,-3,-2
1558453209700576,-1,-8,-4,-3,4,1,0,2
1558453209713540,3,10,-3,-5,-5,-2,1,1
1558453209713540,1,-7,-2,2,0,0,-1,0
1558453209715535,-1,1,-5,-6,-3,-3,-3,-2
1558453209715535,-3,0,0,5,2,-3,-3,0
1558453209728012,-4,-9,-6,0,-3,1,-1,-2
1558453209728012,4,12,13,5,1,-1,-1,0
1558453209741972,-6,-7,-18,-9,-8,-6,-4,-4
1558453209741972,-2,-5,-6,-9,1,2,-2,-1
1558453209750948,-1,-3,7,12,7,-1,-1,2
1558453209750948,0,1,-3,2,-4,-3,-3,0
1558453209752946,3,6,11,4,4,5,3,2
1558453209752946,-4,-7,-8,-1,-3,-1,0,-4
1558453209773886,-3,-7,-5,-7,-7,-4,-3,-2
1558453209773886,0,-1,-1,3,2,2,2,0
1558453209774884,6,11,1,3,4,2,1,2
1558453209774884,-2,-6,2,-1,-7,-4,-4,-3
1558453209787852,-3,-11,3,-4,0,-1,0,-2
1558453209787852,-1,5,-4,-12,-3,0,-1,0
1558453209802810,-1,-4,-8,-3,-1,-4,1,1
1558453209802810,-1,2,10,1,-3,-1,1,2
1558453209810820,-3,-1,-23,-25,-9,-9,-3,-2
1558453209810820,-3,-4,-4,-4,2,4,2,-1
1558453209812785,-1,4,5,-1,-1,-1,-1,0
1558453209812785,-1,-6,-7,-3,2,3,-1,-2
1558453209834106,1,6,9,11,1,0,-2,-2
1558453209834106,-3,-5,-6,-2,-4,-3,-3,-2
1558453209835107,2,1,7,-4,-8,-6,0,-2
1558453209835107,-4,1,5,8,5,3,2,1
1558453209864063,-2,-8,-4,-5,-2,-4,-2,-2
1558453209864063,-2,-2,-2,-2,0,2,-2,-5
1558453209865028,-1,-9,-4,0,-3,1,-3,-2
1558453209865028,2,12,4,-3,-3,-5,-3,-1
1558453209871007,-3,0,-4,-7,-3,1,1,-3
1558453209871007,-6,-15,4,8,3,-1,0,-2
1558453209873003,0,3,-1,-3,-1,-3,-1,0
1558453209873003,0,7,-9,-15,-5,-3,-2,-1
1558453209893948,-4,-14,7,9,0,-2,-5,-5
1558453209893948,1,7,0,3,-3,-2,2,1
1558453209895945,-4,-7,-21,-19,0,1,-3,-4
1558453209895945,4,2,0,5,2,0,1,1
1558453209924100,-2,5,8,7,5,1,0,-1
1558453209924100,4,11,5,-1,-3,-5,-5,-1
1558453209925375,-7,-10,5,1,0,-1,-1,-1
1558453209925375,0,-3,0,10,-2,-3,-3,-3
1558453209931072,0,-3,-11,0,-3,-3,-2,-3
1558453209931072,-1,-11,3,5,4,-1,0,0
1558453209933069,2,6,0,-4,0,0,0,-2
1558453209933069,-1,-3,-4,-4,-3,0,-3,-2
1558453209954019,4,5,6,3,3,5,3,3
1558453209954019,-3,-1,-8,-2,-3,-1,-2,-2
1558453209955351,-6,-9,0,0,1,-1,-3,-1
1558453209955351,0,-2,-3,-2,-3,-5,3,2
1558453209975957,2,9,4,1,-2,-2,-2,1
1558453209975957,0,1,-10,-11,-1,2,0,-4
1558453209982933,-2,0,1,5,4,3,1,-1
1558453209982933,-4,-13,-6,-8,-4,-5,-4,-3
1558453209990912,0,4,5,0,-4,-3,2,1
1558453209990912,1,6,-2,3,-2,-3,-3,-1
1558453209990912,-5,-9,-2,-1,4,0,-1,1
1558453209990912,1,1,-4,-16,-5,-4,-3,1
1558453210013850,-5,-4,-3,3,-2,-3,-2,-4
1558453210013850,0,1,2,-1,0,-8,-4,-1
1558453210019835,3,1,6,3,2,9,5,4
1558453210019835,2,2,-2,1,0,0,-3,-3
1558453210052746,1,3,-6,-8,-3,0,1,2
1558453210052746,0,4,6,0,-4,-1,-1,0
1558453210052746,-4,0,-7,-4,0,1,0,-3
1558453210052746,-1,-4,0,5,1,0,-4,-3
1558453210054817,0,-2,-5,-4,0,-3,-2,-1
1558453210054817,-2,-2,5,6,1,3,3,0
1558453210057734,-1,-1,-8,-10,-4,-2,-4,-2
1558453210057734,-1,-2,-1,-6,-2,1,3,2
1558453210080753,3,4,2,0,-2,-3,-2,1
1558453210080753,-2,-4,-2,3,2,-1,2,0
1558453210080753,-5,0,-11,-21,-10,-9,-2,1
1558453210080753,0,2,3,10,3,1,-2,-1
1558453210088724,-2,-8,1,2,8,8,5,0
1558453210088724,-2,-2,-5,-8,-6,-4,-3,-1
1558453210111592,1,1,5,8,-3,-2,-3,-1
1558453210111592,-2,-3,-6,0,-1,-4,0,-1
1558453210113583,2,6,0,-3,-5,-4,0,0
1558453210113583,-6,-12,-3,-2,1,4,-2,-4
1558453210113583,-2,-2,3,8,-2,-3,-1,-3
1558453210113583,-1,-2,-1,-6,-6,-7,-4,-1
1558453210141551,-3,1,2,-2,2,-2,0,0
1558453210141551,0,4,-7,1,0,-1,2,-1
1558453210142546,2,0,0,1,-6,0,0,-1
1558453210142546,-3,-4,5,3,4,4,3,1
1558453210148529,-4,-9,-7,-8,-4,-3,-2,-3
1558453210148529,3,8,8,1,1,-1,-3,0
1558453210171893,0,-1,-2,5,0,-2,0,-2
1558453210171893,-4,1,2,3,1,4,0,-2
1558453210173463,-3,-11,1,5,-3,-3,0,0
1558453210173463,0,1,-8,-26,-2,-2,-4,-2
1558453210174461,-2,-3,-6,3,-4,-5,-3,-2
1558453210174461,0,1,1,3,-1,0,0,-2
1558453210202385,-2,4,1,0,2,1,-1,-2
1558453210202385,0,-4,6,11,0,1,1,0
1558453210202907,-1,5,7,-10,-2,-3,-1,-1
1558453210202907,-5,-11,-18,-3,-2,-3,-4,-4
1558453210208402,-2,-1,-5,-12,-2,4,2,0
1558453210208402,-1,-3,-4,-1,0,-3,0,1
1558453210214386,2,3,5,10,3,-1,-1,-2
1558453210214386,1,10,5,1,0,-1,0,-1
1558453210231901,6,-1,1,6,0,-2,0,0
1558453210231901,-4,-2,-3,-1,-4,-3,-3,-4
1558453210232895,1,-5,-3,-3,-3,-2,4,1
1558453210232895,-3,-2,0,-5,2,1,-1,-1
1558453210252841,-1,0,-4,3,0,0,-2,-3
1558453210252841,-7,2,1,1,0,2,0,-2
1558453210253839,1,-2,7,12,3,1,1,0
1558453210253839,2,8,4,-1,-3,-3,-1,0
1558453210269023,0,-7,-5,-6,3,-1,-1,-2
1558453210269023,-4,-8,-16,-14,-10,-7,-1,1
1558453210274819,1,0,-3,-1,-2,3,3,2
1558453210274819,-1,-3,3,1,5,5,1,0
1558453210289775,-1,0,1,3,-1,-3,-5,-2
1558453210289775,1,-2,6,5,0,0,0,1
1558453210297745,1,5,-12,-11,1,6,-1,1
1558453210297745,2,1,5,9,-2,-3,1,1
1558453210314679,0,-4,4,7,0,-5,-2,-1
1558453210314679,-1,-5,-10,-23,-5,3,1,0
1558453210314679,1,11,7,6,3,1,-2,0
1558453210314679,-4,-10,-9,-12,-6,-4,-3,0
1558453210328201,-1,-8,-1,3,8,4,-1,-2
1558453210328201,1,3,-3,-2,-3,-1,0,0
1558453210335183,2,1,-3,3,-4,-7,-5,-3
1558453210335183,-5,1,-1,1,8,12,9,3
1558453210358151,-3,-4,-3,2,-2,-2,-2,-2
1558453210358151,0,-3,-6,-3,1,0,-3,-2
1558453210359115,-1,0,1,-1,-1,-1,-1,0
1558453210359115,0,-3,-1,4,-2,-3,-2,-2
1558453210373110,1,8,1,-8,-2,3,-1,1
1558453210373110,-1,-5,6,7,7,3,1,0
1558453210374108,-1,-1,-8,-14,-6,-2,-1,-1
1558453210374108,-2,-10,-7,2,0,-1,0,-2
1558453210389034,0,5,-1,-6,-1,-1,-2,-1
1558453210389034,-2,-5,4,10,-1,-4,-2,-3
1558453210395018,-3,0,-9,-8,-3,-2,-2,-4
1558453210395018,8,8,1,-1,-2,0,3,3
1558453210419250,-6,-8,-7,-6,-3,0,-1,-3
1558453210419250,1,5,4,4,-1,-2,-1,2
1558453210420324,-1,2,0,4,-1,-5,-4,0
1558453210420324,0,2,7,9,0,3,0,-1
1558453210433156,0,-1,-4,1,-3,-4,-3,-2
1558453210433156,-1,-4,1,-1,-8,-8,-1,-1
1558453210434208,-8,-9,-9,-23,-4,-6,-2,-4
1558453210434208,2,6,0,-2,4,2,-1,1
1558453210449758,-2,-2,1,2,-4,-3,1,-1
1558453210449758,-2,-5,-6,3,1,5,2,-1
1558453210454993,0,2,13,18,9,7,4,0
1558453210454993,-3,-2,-18,-15,-5,-6,-3,-3
1558453210479679,-2,5,8,1,0,0,-1,-2
1558453210479679,2,5,-3,-2,0,-1,-1,0
1558453210479679,-6,-12,-3,7,-1,0,-2,-1
1558453210479679,-1,-3,16,9,2,-2,-1,-2
1558453210500635,-2,-1,-7,-3,-3,1,2,0
1558453210500635,1,6,-1,-4,0,-2,-4,-1
1558453210501623,3,0,-5,-15,-1,1,-1,1
1558453210501623,-4,-2,10,8,-2,-4,-2,-5
1558453210523569,-3,-10,-17,-12,2,0,1,-1
1558453210523569,-3,-1,-6,-5,-5,-1,0,-2
1558453210524571,-2,-1,1,2,-2,-2,-5,-6
1558453210524571,-2,-9,-6,5,0,0,-1,0
1558453210529547,3,4,8,0,3,0,0,2
1558453210529547,-3,-1,-12,-6,0,1,-1,-1
1558453210545503,-4,-6,-4,-1,-5,-6,-4,-3
1558453210545503,0,5,3,1,-3,1,-4,-2
1558453210553484,-4,1,5,2,0,3,-1,-1
1558453210553484,-1,-6,-3,-2,0,-1,0,-1
1558453210553484,-1,-2,1,4,0,-2,-1,-2
1558453210553484,0,0,-4,-9,-3,-1,-2,-2
1558453210577419,7,7,9,7,1,3,7,8
1558453210577419,-8,-1,1,3,-4,-8,-6,-8
1558453210577419,1,-8,-12,-9,-4,-3,0,2
1558453210577419,-1,-1,-2,10,4,3,0,-1
1558453210590386,-7,-3,-20,-39,-12,-7,-7,-7
1558453210590386,3,-3,11,12,10,7,3,4
1558453210605345,-3,-2,-2,0,-3,-3,-1,-1
1558453210605345,-1,1,-1,6,-1,-6,-5,-1
1558453210620313,-1,-1,1,0,-7,-4,-3,-4
1558453210620313,-2,2,2,2,1,2,2,1
1558453210621305,2,3,7,7,1,-1,1,0
1558453210621305,1,-10,-4,-14,-5,3,3,1
1558453210636850,-11,-1,1,9,-5,-4,-2,-4
1558453210636850,1,5,-1,-4,2,1,-1,1
1558453210637848,2,-2,7,9,4,4,-1,3
1558453210637848,-1,6,2,4,0,-3,-3,-3
1558453210649814,1,-5,-10,-25,-10,-4,-3,1
1558453210649814,0,2,7,7,3,5,1,2
1558453210665887,-6,-7,-10,-7,-3,-4,-3,-4
1558453210665887,1,-1,1,2,4,-3,-2,1
1558453210672836,1,7,6,10,0,0,-1,0
1558453210672836,-1,-8,2,2,-4,-2,-2,0
1558453210673752,2,7,-8,-12,3,5,2,0
1558453210673752,-5,-9,-10,-16,-7,-1,-2,-3
1558453210696791,-1,-11,0,5,5,2,3,1
1558453210696791,4,6,11,7,-2,-2,-2,-2
1558453210697687,-4,0,-8,-3,-2,-2,0,-2
1558453210697687,-4,0,7,9,-5,-6,-1,-2
1558453210709737,4,5,5,7,3,3,1,1
1558453210709737,-4,-7,-13,-8,-2,1,-2,-3
1558453210725303,-1,0,3,1,0,-6,-2,-3
1558453210725303,6,1,-2,-4,-3,-4,-2,0
1558453210733382,-4,-9,-4,1,3,2,1,1
1558453210733382,2,5,5,10,-2,-8,-2,-2
1558453210733382,2,6,6,1,4,7,5,3
1558453210733382,-2,-9,-5,-9,3,4,3,-1
1558453210757175,3,4,4,11,4,3,-1,-1
1558453210757175,-4,-8,-23,-25,-13,-6,-1,1
1558453210758170,-3,4,3,-1,-5,-6,-4,-3
1558453210758170,4,-2,-1,10,6,3,-2,1
1558453210770196,-6,-1,-7,-16,-5,-4,-1,-3
1558453210770196,1,2,3,4,3,-1,-3,-2
1558453210777119,-1,2,6,9,-4,1,3,-1
1558453210777119,-4,-12,-8,-13,-3,1,-2,-2
1558453210793081,1,2,-10,-4,-1,-2,-3,-1
1558453210793081,-1,3,8,8,2,-2,-3,0
1558453210794076,-1,-14,-6,-9,-2,-3,-3,1
1558453210794076,-2,4,-4,-4,2,1,1,1
1558453210809036,-1,6,8,6,-3,-8,-5,-4
1558453210809036,-3,-7,-5,-5,-3,-3,-1,-2
1558453210815017,1,-4,3,10,0,1,-2,-1
1558453210815017,-5,-5,-3,-18,-5,0,0,-4
1558453210829542,-1,-1,2,10,0,-5,-5,-2
1558453210829542,-2,6,4,0,0,1,0,-1
1558453210837522,-7,-2,-5,-2,5,3,-2,-3
1558453210837522,-1,4,1,0,-6,-7,-3,-2
1558453210852475,2,8,-9,-14,1,3,-1,-2
1558453210852475,-3,-15,-3,-5,1,1,2,-3
1558453210854089,-3,0,9,12,-1,1,0,-1
1558453210854089,-4,-2,-14,-16,-4,-4,-3,-2
1558453210885388,3,-3,11,14,2,1,5,2
1558453210885388,-6,-12,-13,-27,-9,-4,-5,-3
1558453210885388,6,13,-3,-1,4,2,0,3
1558453210885388,-3,-6,-5,-8,-4,-1,0,1
1558453210889376,2,3,3,13,-1,-8,-4,-6
1558453210889376,-4,-3,-14,-13,-3,-2,-2,2
1558453210897355,-5,-7,-5,-1,1,-1,1,1
1558453210897355,5,7,19,10,4,-1,-1,-1
1558453210913311,-6,-9,-18,-14,-8,-5,-4,-1
1558453210913311,3,12,15,17,5,6,3,2
1558453210913311,-3,-7,0,-10,-4,-3,-2,-3
1558453210913311,2,3,-7,5,-2,0,3,4
1558453210929007,-3,-6,1,-4,0,0,0,-3
1558453210929007,-3,-1,0,2,-2,-2,-4,-3
1558453210934991,4,3,5,14,3,-4,-4,0
1558453210934991,2,7,2,5,-5,2,1,0
1558453210949950,-4,-6,-13,-13,-3,-2,-4,0
1558453210949950,1,-2,5,-2,3,10,5,1
1558453210956933,-2,-1,-3,5,1,0,-2,-1
1558453210956933,-1,-10,3,0,6,-3,-3,-1
1558453210972889,-9,-1,-1,5,4,7,-1,-4
1558453210972889,0,2,-2,5,-1,-3,2,-1
1558453210973964,-1,3,-1,-16,-8,-2,-2,-6
1558453210973964,6,9,11,11,6,0,3,4
1558453211004804,4,0,11,7,-6,-3,1,3
1558453211004804,-4,-8,-23,-22,-10,-9,-6,-8
1558453211005803,-1,-1,3,-4,1,5,2,0
1558453211005803,-5,-7,-9,-7,1,4,-3,-1
1558453211018770,2,11,2,2,2,-3,-1,0
1558453211018770,-3,-3,18,21,4,-2,1,1
1558453211035071,-2,-16,-22,-24,-7,-7,-4,-6
1558453211035071,-3,12,7,6,-4,-1,-2,-1
1558453211036587,0,-18,-3,5,1,-1,0,-1
1558453211036587,-7,0,-3,-11,-6,-3,-6,-5
1558453211037220,-1,2,8,8,-1,0,-2,0
1558453211037220,-1,-9,-6,-6,-8,-8,-3,-4
1558453211065000,6,12,6,4,2,2,1,3
1558453211065000,2,7,8,12,8,4,1,2
1558453211065987,-4,-9,-9,-23,-9,-4,-4,1
1558453211065987,-1,10,-8,-4,-3,-5,0,-4
1558453211069976,-4,-13,6,10,4,2,-2,0
1558453211069976,-1,-4,-8,-10,-2,-1,-5,-3
1558453211077965,-2,11,-5,-1,-5,-5,-5,-4
1558453211077965,4,-1,0,-9,-2,-1,3,3
1558453211094909,1,-6,-11,-4,2,3,2,0
1558453211094909,2,1,3,6,3,-1,0,2
1558453211094909,-1,3,7,-5,-4,0,-2,-2
1558453211094909,-1,-2,-9,-11,-4,-1,-3,-1
1558453211108871,-2,2,2,-2,0,0,5,1
1558453211108871,4,5,5,19,3,-1,1,2
1558453211122838,-2,-8,-2,2,-5,-3,-4,-4
1558453211122838,-3,-1,-5,-3,0,-1,0,-3
1558453211129818,-3,-10,13,6,-1,-1,-1,3
1558453211129818,-2,1,-8,-6,-1,2,0,-2
1558453211137887,1,3,-6,13,7,2,1,-2
1558453211137887,-2,3,3,-13,-4,4,5,6
1558453211152758,-4,-1,-1,-3,-5,-7,-8,-4
1558453211152758,3,3,8,6,3,-2,1,-4
1558453211153757,-2,-10,-9,-2,2,-1,6,1
1558453211153757,-1,2,-6,-5,-9,-7,-9,-8
1558453211168711,-2,6,5,15,8,5,2,1
1558453211168711,-5,-5,-15,-39,-15,-8,-8,-3
1558453211174704,5,9,5,10,3,2,1,-2
1558453211174704,-3,-15,1,10,3,2,3,-2
1558453211191664,4,3,-11,-16,-1,0,-3,2
1558453211191664,-1,-3,8,13,-1,-3,-1,-1
1558453211197640,-4,-10,-1,-1,-2,-2,-2,-1
1558453211197640,1,0,7,9,6,5,1,-2
1558453211220592,3,12,1,-9,-3,-3,0,-3
1558453211220592,0,-4,-12,-1,-3,2,-3,0
1558453211221573,0,-2,6,0,0,1,2,2
1558453211221573,-1,-2,-1,10,0,-5,-2,-2
1558453211228676,-1,1,7,4,1,0,-1,-2
1558453211228676,2,-3,-15,-14,-4,0,-2,-2
1558453211234919,0,-1,8,10,-1,-4,-4,2
1558453211234919,-6,-3,4,11,7,3,1,-2
1558453211252226,1,2,-11,-6,-11,-8,-6,-4
1558453211252226,1,2,-1,0,5,2,4,1
1558453211257643,3,2,0,13,0,0,-1,-4
1558453211257643,-6,-9,-8,-7,-8,-2,0,5
1558453211281533,5,7,10,15,6,7,2,0
1558453211281533,-6,4,5,2,0,-1,-3,-1
1558453211283156,-1,-12,-22,-17,-6,-5,-4,1
1558453211283156,-5,-7,-15,-25,-7,-3,-9,-7
1558453211288516,0,5,-8,-1,1,0,6,2
1558453211288516,-3,-17,1,-6,-6,-5,-1,1
1558453211303634,1,11,10,7,2,1,3,1
1558453211303634,6,10,7,7,2,-1,-4,1
1558453211311505,-9,-15,-10,-17,-6,-3,3,-1
1558453211311505,6,13,14,22,7,2,0,-2
1558453211317438,-4,-1,-11,-11,-7,-6,-3,-4
1558453211317438,-4,-7,-14,-16,-11,-8,-5,-3
1558453211348776,-2,-11,14,11,3,2,-4,-1
1558453211348776,-1,5,5,3,4,0,4,1
1558453211349362,-3,-11,-18,-20,-5,4,1,-1
1558453211349362,1,4,4,7,5,0,-3,-1
1558453211355380,-2,-8,-9,-12,-6,-2,6,0
1558453211355380,-2,-4,1,1,-4,-2,-3,0
1558453211356341,0,5,-1,7,6,1,-1,0
1558453211356341,3,8,6,-10,-4,1,0,0
1558453211370469,-1,1,-4,-2,-1,1,0,1
1558453211370469,2,-10,7,11,0,-4,-2,0
1558453211377474,-9,-4,1,1,-1,-1,-2,-5
1558453211377474,-3,-4,-13,-5,-1,0,0,0
1558453211392240,0,4,1,0,-3,-5,-4,0
1558453211392240,0,2,1,9,1,-1,-1,0
1558453211400471,-5,-4,-16,-24,-2,2,0,-2
1558453211400471,-2,-7,5,13,5,3,-1,-4
1558453211415178,-1,1,-5,1,-5,-5,-1,-3
1558453211415178,-6,-7,-14,-19,-3,0,2,1
1558453211416369,8,12,21,17,6,1,1,5
1558453211416369,-4,-4,-6,-5,-4,-4,-5,-3
1558453211430137,-1,-3,-5,6,5,5,-2,-1
1558453211430137,0,1,-4,-4,-3,-3,-2,0
1558453211437117,-5,-13,-14,-17,-8,-6,-2,-1
1558453211437117,6,16,8,9,3,3,1,-2
1558453211452076,2,-2,1,8,0,1,-1,-2
1558453211452076,0,1,1,-5,-2,-2,-1,-1
1558453211460055,4,6,4,7,2,0,2,1
1558453211460055,1,-2,1,2,0,-4,1,3
1558453211476014,-11,-18,-2,1,-1,-4,-4,-5
1558453211476014,-5,-12,-7,-3,-1,3,-1,-2
1558453211476014,3,3,5,4,3,1,1,-1
1558453211476014,2,5,10,7,-4,-3,1,0
1558453211490057,1,6,-5,-16,-1,-2,-5,-2
1558453211490057,0,4,0,7,1,0,-1,-2
1558453211497674,-3,-16,-4,-17,1,-2,-1,-2
1558453211497674,-5,-1,-6,-9,-1,-2,1,-1
1558453211512914,4,10,8,4,-2,1,0,-1
1558453211512914,-5,-6,-19,-7,-2,2,0,-4
1558453211519894,0,0,-2,-8,-6,-3,-3,-3
1558453211519894,1,-3,13,18,3,0,-2,-1
1558453211560075,-2,-4,-11,-21,-8,-9,-4,-4
1558453211560075,1,9,0,0,2,4,-2,-3
1558453211560919,-5,-9,-3,2,-1,-3,-4,-2
1558453211560919,-1,-2,-1,-2,-5,-7,-4,0
1558453211561915,-5,-4,-4,3,5,4,5,4
1558453211561915,1,-8,-3,-5,0,-2,1,1
1558453211589840,5,16,7,4,0,-5,-3,0
1558453211589840,-1,-1,5,10,1,-1,-1,0
1558453211591835,-2,-10,-14,-9,-6,-4,-5,-3
1558453211591835,-4,0,-5,-4,-3,-3,-2,-2
1558453211591879,1,0,9,13,3,0,-1,1
1558453211591879,-4,-2,-16,-22,-4,0,0,-2
1558453211597819,1,4,4,3,-2,-4,-1,-2
1558453211597819,0,1,-1,-5,-2,-1,1,1
1558453211597819,-4,-5,-6,-5,0,-1,0,-1
1558453211597819,3,1,5,19,0,2,0,1
1558453211619759,-2,-9,-1,-5,4,4,-1,-2
1558453211619759,0,-3,2,4,-1,-1,1,-2
1558453211619759,2,8,10,8,0,-1,-2,-2
1558453211619759,2,-2,-9,-8,-2,-5,-2,-2
1558453211650228,-1,6,9,1,3,8,5,3
1558453211650228,-1,6,6,-5,-2,-2,-6,-3
1558453211650228,-2,-15,-4,2,1,2,3,3
1558453211650228,-3,-6,-13,-25,-9,-5,-3,-7
1558453211680316,3,6,-2,0,-5,-8,-4,4
1558453211680316,-3,-2,2,2,-2,-2,-1,-2
1558453211680316,-3,4,8,10,0,-2,-1,-4
1558453211680316,4,5,-7,-6,2,4,1,4
1558453211682181,-3,-1,-6,-9,-5,-4,-1,-3
1558453211682181,0,-4,2,15,2,-1,-2,-1
1558453211685135,-3,1,-9,-21,-10,-5,-2,-1
1558453211685135,-8,-17,4,14,1,0,-1,-3
1558453211709083,1,1,5,4,4,8,4,3
1558453211709083,-1,4,-9,-10,-1,2,1,1
1558453211709083,2,9,16,19,4,2,-3,-4
1558453211709083,-12,-11,-20,-19,-2,-2,-3,-2
1558453211715057,2,-3,-6,-15,0,-1,-3,-2
1558453211715057,0,-4,5,-5,-2,-1,-2,1
1558453211716604,-2,-4,-8,-1,-4,1,1,2
1558453211716604,-1,4,6,3,5,3,3,2
1558453211739587,-2,-2,3,7,-3,1,-3,-1
1558453211739587,2,9,-2,7,7,5,2,2
1558453211740644,1,-4,-3,-1,-2,-4,-3,-2
1558453211740644,1,-1,8,9,2,-1,-1,2
1558453211752555,-4,-8,-3,-2,-4,-4,-1,-1
1558453211752555,-4,-5,-6,-1,-6,-5,-3,-3
1558453211769508,0,-4,-4,-6,-4,-2,2,3
1558453211769508,-2,4,-2,1,0,2,0,-1
1558453211775628,-1,-1,11,13,4,-1,-2,-3
1558453211775628,5,6,-14,-28,-12,-4,-2,-2
1558453211776492,-8,-11,-15,-8,1,1,-2,-3
1558453211776492,1,-3,13,5,-4,-4,0,2
1558453211799433,-1,7,-6,-11,-5,-5,-3,-4
1558453211799433,-1,-7,-5,-1,0,3,2,2
1558453211800504,1,6,12,14,3,1,3,-1
1558453211800504,1,5,4,-4,-5,-4,-1,-2
1558453211812393,-6,-15,-11,-8,0,1,-2,-1
1558453211812393,1,3,9,7,1,-3,-2,-1
1558453211828539,1,2,-4,0,-3,-1,-2,-1
1558453211828539,1,3,2,14,4,2,0,0
1558453211836132,1,5,-4,-14,-6,-6,-2,-2
1558453211836132,-8,-13,-5,-5,-6,-8,-5,-4
1558453211836517,-2,-10,-7,-8,-1,2,-2,0
1558453211836517,-2,-2,3,4,2,3,-1,-1
1558453211867432,0,-5,4,4,0,1,1,0
1558453211867432,-2,4,2,5,4,2,2,-1
1558453211870428,-2,7,-6,-9,-1,0,-5,-4
1558453211870428,3,-1,5,2,1,3,3,3
1558453211897347,-3,6,-16,-5,-4,-6,-3,-3
1558453211897347,-2,-10,-1,1,-1,-2,0,1
1558453211898345,0,-5,2,-1,-1,-1,0,-1
1558453211898345,5,14,4,11,1,-1,-2,0
1558453211899343,0,-7,-7,-6,3,-1,0,1
1558453211899343,-4,1,-2,-7,-7,-4,-2,-1
1558453211902334,2,4,2,7,-1,-4,-2,1
1558453211902334,-1,-9,-6,-13,-1,2,2,0
1558453211927267,-1,1,-1,3,-2,2,-2,-2
1558453211927267,0,5,9,7,1,0,-2,-1
1558453211928270,-2,-4,-1,3,7,5,4,2
1558453211928270,-4,-8,-1,-5,-2,-4,-1,-2
1558453211932474,-2,-2,-1,-2,2,2,-1,-1
1558453211932474,-2,-10,-7,-1,1,0,0,-2
1558453211940232,2,13,-2,-5,-2,-3,-4,-4
1558453211940232,-2,-4,12,11,2,0,-1,-3
1558453211957187,0,3,-3,-11,-4,-1,-1,0
1558453211957187,0,2,4,-3,-3,-2,-2,-2
1558453211957187,-7,-9,-2,3,-1,1,1,-1
1558453211957187,-1,1,-14,-6,-1,-5,-2,2
1558453211987107,-1,3,3,12,-2,-7,-3,-4
1558453211987107,6,3,5,6,1,0,-1,4
1558453211988103,-7,-7,-7,-13,-7,-4,-3,-6
1558453211988103,-2,-2,-12,-14,-3,5,3,1
1558453211992093,-1,1,4,5,1,-2,1,1
1558453211992093,-4,-12,-1,5,2,-2,-1,-3
1558453212017027,2,3,-2,-3,-5,-3,-3,-2
1558453212017027,0,2,-9,-5,-2,-5,-4,-1
1558453212018258,3,5,4,0,0,3,1,2
1558453212018258,-4,-2,5,13,4,-3,-1,-4
1558453212019024,-2,-4,-14,-18,-2,2,3,1
1558453212019024,1,6,0,-12,-4,-2,-1,-1
1558453212054360,2,2,7,21,0,0,2,-2
1558453212054360,-4,-10,-8,-6,-7,-3,-2,-2
1558453212055357,-7,-6,3,-1,0,-2,-3,-2
1558453212055357,-1,5,4,7,-1,-4,-2,-2
1558453212056356,-1,-10,-9,-8,-3,-5,-2,1
1558453212056356,2,14,6,-1,2,2,-2,-2
1558453212076302,1,3,0,2,-1,2,2,3
1558453212076302,-4,-17,-10,-11,-3,-2,-4,-2
1558453212084505,-2,-4,8,6,-1,0,0,-2
1558453212084505,-1,7,-4,-5,-4,-4,-2,-1
1558453212085289,2,-1,5,6,-1,-1,-6,-2
1558453212085289,0,6,2,-5,-2,1,1,-2
1558453212107350,1,2,-8,-13,-2,1,1,-1
1558453212107350,-7,-14,-10,-10,-2,-4,-6,-5
1558453212108216,3,10,8,-4,-1,2,2,1
1558453212108216,-2,-5,-3,2,-1,-4,-4,-3
1558453212112207,-4,-10,3,8,2,2,0,0
1558453212112207,4,7,-16,-16,-2,0,0,1
1558453212144371,-2,-6,6,10,-1,-5,-2,1
1558453212144371,2,6,17,17,5,3,2,1
1558453212145586,-5,-2,-33,-27,-6,-4,-2,-2
1558453212145586,-4,-10,-2,-11,-4,1,2,1
1558453212146368,2,4,10,19,2,-5,-3,-2
1558453212146368,-4,-5,-18,-21,-9,-2,-4,-3
1558453212151362,2,5,15,15,5,4,3,2
1558453212151362,-3,-5,-1,-1,1,5,1,0
1558453212173295,2,6,-7,-5,-3,-1,0,-2
1558453212173295,-3,-10,1,2,0,-1,-2,-1
1558453212175290,1,3,11,19,4,2,0,2
1558453212175290,-1,-4,1,-2,3,-2,-1,1
1558453212188288,1,2,11,8,-2,-4,-2,-3
1558453212188288,0,9,-4,-4,2,-2,-3,-6
1558453212196232,-5,-15,-2,-8,-6,-6,-3,1
1558453212196232,7,2,4,5,-2,2,1,2
1558453212202219,-3,3,-1,-1,2,-1,2,1
1558453212202219,0,-6,-8,-5,-7,-7,1,2
1558453212211196,-2,2,1,-1,-3,1,0,-1
1558453212211196,-4,-2,-7,-4,1,1,-2,-3
1558453212217177,3,-4,-4,-12,-4,-5,-3,1
1558453212217177,-1,2,0,4,-6,-3,-2,-2
1558453212233360,-1,2,-3,-4,3,6,-1,-2
1558453212233360,1,5,8,15,6,3,1,0
1558453212239341,-2,-8,-4,-5,-4,-2,-2,-1
1558453212239341,-6,-5,-4,2,-3,-4,-3,-3
1558453212264277,0,1,2,-3,-2,-1,0,0
1558453212264277,3,11,10,7,1,-2,-2,-1
1558453212265273,-2,-6,-6,-2,2,1,0,1
1558453212265273,-2,-5,6,10,6,4,-2,-3
1558453212271257,-4,-1,-11,-16,-6,-3,-1,-1
1558453212271257,-1,-2,3,5,0,0,-2,-3
1558453212277246,3,3,-5,1,1,4,1,1
1558453212277246,-1,1,-1,-6,-3,-2,-3,1
1558453212293200,-1,2,4,14,2,-1,-4,-4
1558453212293200,-6,-5,-9,-9,-3,0,1,0
1558453212300180,0,3,2,-10,-5,-3,0,0
1558453212300180,-6,-7,4,6,2,1,0,-1
1558453212316136,0,6,13,14,3,-2,-3,-4
1558453212316136,3,2,-10,-2,-1,1,1,0
1558453212322121,-5,-5,2,5,1,1,-3,-4
1558453212322121,-1,-5,-4,-7,-3,-1,2,-3
1558453212338182,-1,-3,-9,-15,-5,-4,-5,-1
1558453212338182,-1,-4,9,9,5,1,3,1
1558453212339075,-2,0,-4,-7,-6,-4,0,-2
1558453212339075,0,0,-8,-7,1,3,3,2
1558453212360023,-3,-3,2,1,3,5,2,-1
1558453212360023,0,4,-1,-7,-4,-8,-4,-4
1558453212361018,-3,-5,-9,-6,-2,2,-2,-1
1558453212361018,-1,1,10,11,0,0,0,0
1558453212382957,4,-3,-9,-8,-4,-3,-3,-1
1558453212382957,-4,-1,-7,0,-6,-6,-3,-1
1558453212384022,-6,-5,6,7,5,5,0,0
1558453212384022,-1,1,-1,1,-3,0,0,1
1558453212397965,2,2,-1,-4,-3,-4,-4,-2
1558453212397965,-4,-7,-7,-2,-3,-2,-3,-2
1558453212404901,-2,-3,-16,-7,-3,-2,-1,-2
1558453212404901,-2,-2,-13,-9,-3,1,-4,-2
1558453212413878,-1,-1,7,2,2,-5,1,0
1558453212413878,3,2,10,-5,1,9,2,3
1558453212419859,1,3,4,6,-2,-4,-2,-3
1558453212419859,2,4,1,-3,5,1,0,1
1558453212444793,-4,-14,-14,-14,-9,-8,-4,-1
1558453212444793,0,2,11,17,7,7,0,0
1558453212444793,-1,2,-20,-13,0,1,0,0
1558453212444793,2,7,14,6,-1,0,2,0
1558453212457758,-7,-11,-13,-4,-4,-2,-2,-2
1558453212457758,-3,-3,-2,-4,-8,-11,-3,-2
1558453212458756,1,-1,7,5,1,-3,0,0
1558453212458756,4,2,-4,-7,-5,-4,-2,-3
1558453212473751,0,2,2,7,4,7,0,0
1558453212473751,0,-2,-3,-6,0,2,3,1
1558453212479700,0,1,9,12,2,1,-1,1
1558453212479700,-2,-3,-11,-5,-4,-3,-2,-3
1558453212511615,-1,4,2,-3,-3,-3,-3,-1
1558453212511615,1,-4,-7,-6,-4,-5,0,0
1558453212511615,-2,-5,-7,-6,0,-1,-4,-5
1558453212511615,0,1,6,6,3,-4,-1,1
1558453212517599,1,2,-2,-1,-2,1,2,-2
1558453212517599,-4,-1,2,2,3,-2,2,-2
1558453212518595,-3,-5,9,15,-7,-8,-5,-5
1558453212518595,-4,-8,-27,-34,-8,-6,-2,-1
1558453212541533,2,5,10,11,5,4,5,2
1558453212541533,1,6,-5,-10,-3,0,-4,-2
1558453212542530,-1,-9,7,16,4,1,2,2
1558453212542530,-6,-5,1,-13,-3,0,-2,-4
1558453212554498,2,-1,8,19,8,0,-1,-1
1558453212554498,-2,-4,-20,-29,-14,-9,-5,-6
1558453212570456,3,2,2,0,-2,-3,1,2
1558453212570456,-3,-3,13,16,7,6,3,1
1558453212578122,2,2,0,-4,-4,-5,-2,0
1558453212578122,-5,-6,5,11,2,3,-1,0
1558453212578434,1,4,-5,-11,-2,0,1,1
1558453212578434,4,6,10,27,5,-1,0,1
1558453212608354,-6,-8,-24,-32,-10,-2,-4,-2
1558453212608354,-1,-3,-5,-4,-4,0,0,-1
1558453212609356,-3,1,-5,-3,-3,-3,-4,-1
1558453212609356,-4,-6,-3,2,1,-1,-3,-2
1558453212614338,1,4,8,14,2,-1,-1,-2
1558453212614338,2,0,7,13,-1,-4,-3,-1
1558453212630469,-2,-4,-15,-12,0,3,4,1
1558453212630469,1,1,5,2,1,1,-2,-1
1558453212638449,-2,-2,-4,-7,-8,-6,-4,-1
1558453212638449,-3,-6,-19,-12,-3,-3,-2,-1
1558453212638449,-1,-2,10,5,4,5,0,-3
1558453212638449,-2,0,-5,0,0,4,-1,-3
1558453212661390,-1,4,0,0,1,-3,-2,-2
1558453212661390,1,0,11,7,0,-5,1,1
1558453212662383,1,1,-2,-6,5,4,-1,1
1558453212662383,-5,-10,-17,-16,-11,-6,-2,-1
1558453212691308,-3,0,6,5,0,1,0,-3
1558453212691308,-1,3,3,-13,-3,-2,-3,-2
1558453212692305,2,0,-3,-5,-4,-8,-3,1
1558453212692305,3,2,1,1,3,5,2,3
1558453212698290,1,-1,6,5,-2,-4,-1,2
1558453212698290,0,0,-8,-7,-1,-2,-2,0
1558453212698290,2,2,0,3,2,4,5,-1
1558453212698290,-3,-3,4,3,-4,-3,-3,-1
1558453212720229,-1,-2,-2,2,3,2,3,0
1558453212720229,-1,-3,2,4,-4,-6,-3,0
1558453212721227,-1,1,3,-4,-1,-1,-1,1
1558453212721227,-1,0,-10,-4,-6,-6,-3,-2
1558453212750797,1,3,5,9,4,7,2,-1
1558453212750797,-3,-6,-18,-18,-4,1,1,-2
1558453212751797,-2,-4,3,6,10,9,2,1
1558453212751797,-1,-2,-4,-19,-6,-7,-1,-1
1558453212757778,-1,0,7,19,2,-2,-1,1
1558453212757778,-1,-1,-2,-4,-2,0,0,-4
1558453212758828,-2,-5,2,-13,-9,-7,-4,-3
1558453212758828,1,-1,-2,1,4,2,1,1
1558453212782717,4,7,8,0,-2,-3,-3,-3
1558453212782717,-1,0,9,16,6,3,0,2
1558453212787698,-7,-8,-6,-6,-6,-7,-4,-4
1558453212787698,0,0,-5,4,2,-2,-2,0
1558453212794678,0,1,-13,-14,-1,1,1,1
1558453212794678,0,-1,11,11,4,1,1,1
1558453212819623,-1,0,-4,3,-8,-5,-2,-3
1558453212819623,-3,0,-12,-11,2,5,1,0
1558453212820610,-4,-6,-3,-3,0,1,-1,-2
1558453212820610,0,2,3,5,-4,-5,-1,0
1558453212821607,1,1,-6,-7,-3,-3,-1,-2
1558453212821607,0,-2,5,12,2,0,0,-1
1558453212840052,-2,-2,0,-3,-3,-1,-1,0
1558453212840052,-1,-1,-2,8,4,5,0,-2
1558453212841132,-3,-6,-9,-18,-7,-5,-2,-3
1558453212841132,1,2,8,10,-2,-4,3,3
1558453212855091,-4,-13,-13,-11,-1,2,2,-1
1558453212855091,-4,1,14,10,3,0,-3,-5
1558453212870447,4,9,-2,2,8,6,3,1
1558453212870447,-6,-9,-10,-20,-11,-7,-4,-3
1558453212877951,1,0,10,5,5,5,2,2
1558453212877951,4,3,0,-5,0,-2,0,2
1558453212878945,-1,-5,4,13,5,5,-1,-1
1558453212878945,2,1,-8,-10,0,-1,-2,-2
1558453212908866,-6,-7,-6,-7,-11,-9,-4,-4
1558453212908866,-1,0,1,6,5,8,2,0
1558453212908866,2,5,8,5,-4,-4,-1,1
1558453212908866,-2,-3,-4,-2,0,-1,0,-2
1558453212915712,1,-1,0,2,3,2,-2,0
1558453212915712,-1,-1,-1,-2,-3,1,1,1
1558453212930805,-2,1,5,3,-1,-4,-3,-1
1558453212930805,-2,-2,7,6,0,-1,-5,-5
1558453212937850,3,4,-1,9,1,2,2,-1
1558453212937850,-4,-9,-27,-40,-8,-5,-4,-3
1558453212938784,-5,-5,-1,5,-6,-6,-4,-2
1558453212938784,2,5,7,5,-1,-5,-4,-1
