timestamp,emg1,emg2,emg3,emg4,emg5,emg6,emg7,emg8
1558441375465539,-3,-3,-29,-20,-10,-7,-3,-3
1558441375465539,6,9,12,6,6,1,1,1
1558441375471523,-2,-4,-8,-3,-6,-2,-3,-2
1558441375471523,3,2,-8,-4,-1,0,0,1
1558441375472520,-2,2,13,3,-1,-5,0,-1
1558441375472520,-1,1,16,8,1,0,4,-2
1558441375474515,0,-3,-12,-7,-1,0,-3,-2
1558441375474515,1,4,5,1,1,-4,-2,1
1558441375484490,3,3,18,9,-1,-1,-1,1
1558441375484490,-4,-8,-42,-15,-7,-6,-5,-4
1558441375496455,4,9,39,13,7,2,5,3
1558441375496455,-7,-18,-52,-25,-13,-5,-5,-6
1558441375499450,-2,1,-7,2,2,3,-3,-2
1558441375499450,1,3,23,9,4,3,0,3
1558441375514408,-3,-5,-17,-13,-5,-1,-1,-2
1558441375514408,-1,2,3,5,2,2,-3,1
1558441375523384,5,8,23,8,6,3,2,-1
1558441375523384,-3,-5,-6,-6,-3,-1,0,-1
1558441375531363,-1,0,4,6,-1,-2,-3,-1
1558441375531363,1,2,23,9,3,1,1,1
1558441375545325,-6,-11,-37,-15,-6,0,-3,-3
1558441375545325,2,4,11,3,-3,-2,-1,-1
1558441375554302,-3,-3,-4,-7,-3,-2,-3,-3
1558441375554302,0,1,11,7,3,0,3,1
1558441375592200,2,7,17,5,1,-1,-10,-4
1558441375592200,0,-12,-28,-14,-1,1,3,1
1558441375593197,-13,0,10,3,-3,-4,-4,-2
1558441375593197,-2,-12,-11,-6,-1,1,1,0
1558441375594194,-2,-4,-4,1,-6,-4,-6,-2
1558441375594194,4,10,30,9,-1,-11,-8,1
1558441375597187,3,-4,-25,-6,7,13,13,4
1558441375597187,1,5,14,3,4,1,-3,1
1558441375604169,3,1,8,5,2,-1,-3,2
1558441375604169,-6,-4,-11,-5,-4,2,5,-3
1558441375613144,-2,-5,2,-2,-6,-6,-5,-3
1558441375613144,-2,2,-8,-1,-2,2,0,-3
1558441375619128,2,-3,-5,0,0,0,1,0
1558441375619128,-3,-4,-18,-5,-3,-2,-5,-1
1558441375635086,5,5,0,1,-5,-8,-7,-3
1558441375635086,2,1,-1,-1,-3,-2,-4,0
1558441375642066,-6,2,8,1,2,-1,4,-1
1558441375642066,1,-1,5,1,2,6,2,2
1558441375657027,5,8,20,10,9,0,2,1
1558441375657027,-10,-7,-2,-9,-6,-9,-4,-3
1558441375665005,-4,-6,-24,-13,-8,-5,-2,-4
1558441375665005,-1,-4,-17,-3,-6,-7,-3,-1
1558441375673981,5,9,12,4,-2,0,-2,1
1558441375673981,6,5,19,8,7,5,6,3
1558441375679966,2,1,-12,-8,-1,2,1,0
1558441375679966,-6,-11,-23,-9,-3,-1,1,-1
1558441375694927,-5,-3,0,-1,-3,-8,-5,-2
1558441375694927,-7,-8,-9,-4,-4,-5,1,-5
1558441375701906,-2,-3,15,6,5,7,1,0
1558441375701906,5,6,19,8,2,-1,-5,0
1558441375710898,-3,-6,-30,-12,-2,2,7,0
1558441375710898,-2,3,-4,2,4,3,0,0
1558441375724845,0,1,3,-3,-6,-3,-2,0
1558441375724845,-5,-6,5,-2,-3,-1,-1,-4
1558441375733821,2,-5,-2,-3,2,1,-2,-1
1558441375733821,2,8,10,5,1,0,-2,-1
1558441375739804,-6,-11,-27,-11,-5,-3,1,-3
1558441375739804,-9,-4,7,3,4,-3,-1,-3
1558441375754764,2,5,11,5,-1,1,-3,-1
1558441375754764,4,4,9,3,-4,-5,-7,-1
1558441375778701,-4,-1,-19,-6,-5,-4,3,-1
1558441375778701,1,4,5,2,2,9,0,0
1558441375779698,3,5,13,1,0,1,0,1
1558441375779698,2,11,-4,1,3,1,3,2
1558441375784685,-14,-22,-8,-8,-6,-7,-6,-6
1558441375784685,0,-2,-8,-4,-2,-1,-2,-2
1558441375793660,0,-9,-14,-8,-5,0,-5,-2
1558441375793660,-6,-1,8,4,0,1,-1,1
1558441375799645,2,5,5,1,2,-3,-1,2
1558441375799645,5,12,9,6,2,-1,1,0
1558441375814605,-1,-2,-13,-10,-4,-2,-3,-2
1558441375814605,-7,-15,-10,-11,-8,-3,-1,-6
1558441375822584,0,-2,-2,0,1,2,1,0
1558441375822584,-1,0,-8,-2,-1,-3,-2,-2
1558441375837547,0,0,13,8,0,-4,2,0
1558441375837547,-2,1,-8,-6,-6,0,-1,-3
1558441375844528,4,-2,-2,0,-1,-1,-4,1
1558441375844528,-4,4,10,0,-1,-2,8,3
1558441375853504,0,1,4,3,6,11,3,1
1558441375853504,0,-6,-7,-3,0,-5,-1,-2
1558441375859488,-1,1,6,2,-2,-1,1,0
1558441375859488,6,6,12,1,0,4,-4,-1
1558441375882432,-8,-7,-10,-7,-5,-4,0,-3
1558441375882432,4,-2,-19,-7,0,2,1,0
1558441375890439,8,12,7,6,2,0,-3,-2
1558441375890439,-4,-5,2,-2,0,-10,1,1
1558441375897419,-4,-4,2,1,-3,-3,-4,-1
1558441375897419,6,7,14,1,0,3,0,2
1558441375904438,-6,-2,-1,-2,3,-3,0,-2
1558441375904438,-3,-7,-38,-15,-6,-4,-2,-5
1558441375913342,-5,-5,4,4,-2,-3,-1,-4
1558441375913342,-9,-9,-12,-2,-2,-2,-2,-4
1558441375919325,2,4,14,5,2,5,-1,-1
1558441375919325,1,-3,9,4,2,0,0,0
1558441375934287,1,5,-2,-4,-2,-3,3,0
1558441375934287,8,12,19,7,1,1,-2,0
1558441375950243,-10,-18,-23,-6,-3,-6,2,-1
1558441375950243,2,4,16,5,4,4,-1,1
1558441375957226,-2,-8,-24,-10,-4,-9,-6,-3
1558441375957226,3,2,0,3,-3,-1,-2,1
1558441375965217,-2,2,-6,-4,-5,0,-2,0
1558441375965217,-1,-3,10,3,-3,-1,-3,-3
1558441375973187,-8,-3,2,-3,-2,-2,1,-2
1558441375973187,-1,-4,-4,-4,-2,-3,-2,-2
1558441375979165,2,0,6,3,3,3,2,2
1558441375979165,-1,0,-3,0,-1,-1,-4,-3
1558441375995123,1,1,2,-1,-7,-3,-12,-2
1558441375995123,9,3,-5,-2,10,8,7,1
1558441376002106,-2,11,16,4,6,-7,6,2
1558441376002106,-2,-3,4,3,1,4,-1,-1
1558441376017067,0,-3,-4,-2,-2,3,0,-1
1558441376017067,-4,-13,-37,-16,-11,-9,-5,-4
1558441376025042,3,3,8,0,-6,-1,-6,-3
1558441376025042,1,7,6,3,4,2,5,3
1558441376034018,-1,-2,-10,-4,1,-6,-1,1
1558441376034018,-4,4,18,5,0,-5,-3,0
1558441376047981,0,-5,-1,1,0,1,-4,-4
1558441376047981,-9,-9,6,3,-5,0,-2,-6
1558441376054961,0,-1,-11,-11,0,0,1,-1
1558441376054961,-2,1,12,3,2,3,2,-1
1558441376061944,1,-2,-19,-8,0,2,-3,-3
1558441376061944,2,2,-7,-4,-7,-6,-8,0
1558441376076904,4,6,6,4,5,-1,4,3
1558441376076904,-9,-2,-1,0,0,-5,-4,0
1558441376084884,0,-7,5,1,2,4,0,-1
1558441376084884,-1,3,-2,-5,-3,-2,-5,-3
1558441376093858,-7,-6,2,2,0,-4,0,-2
1558441376093858,-4,-7,-12,-5,-7,-4,-7,-3
1558441376107821,5,8,9,3,0,-1,4,1
1558441376107821,0,-1,-8,-1,7,6,4,0
1558441376114802,4,5,14,4,0,6,1,0
1558441376114802,0,-3,1,0,0,-2,0,0
1558441376121783,-6,-7,-2,-4,-9,-4,-5,-3
1558441376121783,-3,-7,-14,-2,-3,-4,0,-1
1558441376136743,1,1,8,2,4,3,5,-1
1558441376136743,-2,0,-3,-3,-3,0,-3,-1
1558441376144722,1,1,-3,-1,0,-3,2,3
1558441376144722,-1,-1,7,4,-3,-3,-3,-1
1558441376153698,1,-1,-11,-3,-2,0,-5,-4
1558441376153698,2,-1,-3,-1,1,5,1,-3
1558441376167671,4,4,14,3,0,-2,2,0
1558441376167671,-1,4,-17,-9,-3,-5,-2,0
1558441376174642,3,3,19,8,5,3,0,0
1558441376174642,4,0,-5,-1,1,1,3,0
1558441376181622,-7,-6,-26,-9,-4,3,-1,-2
1558441376181622,5,11,14,3,-1,-4,-3,3
1558441376196583,-4,-12,-4,-5,-2,2,0,0
1558441376196583,-2,-3,0,0,-3,-4,-2,-2
1558441376204564,1,6,19,6,3,0,-4,0
1558441376204564,-3,-6,-8,-4,3,2,-1,-1
1558441376213538,-2,1,-7,-1,1,2,6,0
1558441376213538,0,0,7,2,0,-2,-1,-1
1558441376227502,-4,-10,-8,-5,-5,-4,-1,-1
1558441376227502,-8,3,8,0,1,2,-1,-3
1558441376234483,-2,-7,-9,-4,-5,-2,-7,0
1558441376234483,-10,-11,12,5,2,1,1,1
1558441376242460,4,0,-13,-6,-4,-6,-2,1
1558441376242460,1,-6,-14,-6,-5,-4,0,-1
1558441376257422,0,6,3,2,0,-4,-1,-1
1558441376257422,-1,2,3,-1,-3,-4,1,0
1558441376264403,-3,-1,-1,-3,1,6,-7,-1
1558441376264403,2,-1,2,4,1,4,7,-1
1558441376273379,-1,2,4,2,-2,-7,-4,-1
1558441376273379,3,2,-13,-3,-6,-4,-5,-1
1558441376287342,-1,1,-12,-5,-1,-4,-5,-2
1558441376287342,-6,-11,-5,-1,2,10,1,-2
1558441376294322,0,3,2,1,-2,-3,1,-1
1558441376294322,3,3,1,5,2,2,-1,-1
1558441376302301,-1,1,4,-2,-1,-3,3,-3
1558441376302301,-1,1,-7,-3,4,2,3,4
1558441376317259,-9,-7,-4,-4,-1,-2,-3,-3
1558441376317259,0,4,5,-1,1,3,-3,1
1558441376324242,-5,-4,-15,-8,-11,-3,0,-4
1558441376324242,8,11,12,1,-7,-5,-8,-1
1558441376333217,3,3,13,5,4,-6,6,4
1558441376333217,-4,-6,-13,-3,2,2,1,-2
1558441376348178,2,4,15,8,4,1,0,0
1558441376348178,-2,-3,-10,-4,-4,-8,-2,-3
1558441376354164,2,-2,-15,-8,-6,2,-6,-3
1558441376354164,0,0,-4,-5,-5,-5,-1,0
1558441376362141,-2,-4,21,8,4,0,-4,4
1558441376362141,2,-2,-8,-6,-5,0,-1,-1
1558441376377101,-1,-1,-2,2,-2,-2,-4,0
1558441376377101,-2,-6,-14,-10,-4,-6,1,-4
1558441376385079,1,7,15,7,7,4,2,1
1558441376385079,6,5,-1,-1,3,-1,1,0
1558441376393058,-7,-10,-16,-9,-4,0,-4,-2
1558441376393058,4,5,2,0,-5,-1,-5,-2
1558441376408024,-2,-3,6,1,-3,-5,0,-1
1558441376408024,2,9,15,6,6,4,-3,-1
1558441376414998,0,-1,-15,-5,0,3,5,0
1558441376414998,-4,-5,2,0,-2,-9,-1,-4
1558441376421985,0,-3,-25,-12,-5,-4,-3,-4
1558441376421985,-9,-5,12,5,0,-3,-4,-2
1558441376436942,-3,0,8,3,-1,7,-2,-3
1558441376436942,0,-3,2,-2,3,1,1,1
1558441376444920,-7,-8,-13,-2,0,-3,-2,-2
1558441376444920,9,6,0,-3,-7,-14,-4,-1
1558441376453896,-1,3,2,-1,5,10,3,1
1558441376453896,-7,-13,9,6,5,1,3,-1
1558441376467859,6,-3,-7,-1,0,3,-1,-1
1558441376467859,-3,-7,-3,-7,-6,-4,2,-1
1558441376474840,5,3,1,-2,-7,1,-4,-3
1558441376474840,2,5,2,-3,-8,-5,-7,-3
1558441376481822,0,4,8,6,15,17,14,4
1558441376481822,-1,1,1,1,-1,-9,2,-1
1558441376504760,0,-6,-9,-1,-3,-5,-7,-4
1558441376504760,-2,5,-1,-4,-9,6,-2,0
1558441376505757,6,9,-6,-2,-7,-1,-2,-4
1558441376505757,-5,-14,5,-1,4,-14,-1,3
1558441376513736,1,4,1,1,0,-6,-3,-1
1558441376513736,-2,-5,-16,-6,-2,0,0,-1
1558441376526700,0,3,3,-3,-6,4,-1,-1
1558441376526700,4,5,5,4,1,8,0,1
1558441376535676,1,-9,-4,-5,-6,-9,-3,-2
1558441376535676,-5,-4,4,-1,0,-1,-5,0
1558441376541663,-2,6,20,11,2,-2,2,2
1558441376541663,-8,-14,-30,-15,-7,0,-3,-5
1558441376556622,-3,-1,-4,-5,-3,-5,-3,-3
1558441376556622,3,6,2,2,2,5,2,1
1558441376564600,2,2,11,2,3,-4,3,2
1558441376564600,4,10,7,3,-1,2,-3,-1
1558441376579559,3,8,6,1,2,1,-1,1
1558441376579559,-12,-28,-17,-2,-1,-3,0,-4
1558441376587537,-6,-6,-17,-8,-3,-5,-8,-5
1558441376587537,-3,-3,-2,2,-2,1,-2,-2
1558441376602498,5,10,-1,-4,-1,1,-1,-1
1558441376602498,4,11,20,6,3,1,0,3
1558441376610476,0,-7,0,-1,1,-3,-2,-1
1558441376610476,2,4,2,2,1,4,1,0
1558441376617459,-4,10,-17,-6,-3,-2,1,0
1558441376617459,-3,-11,-4,-4,-1,-4,0,-1
1558441376624439,-1,-2,-4,-2,-4,0,-3,-2
1558441376624439,-1,-8,7,2,-3,-2,-2,-3
1558441376639399,3,5,8,3,3,-2,1,0
1558441376639399,3,9,3,0,1,1,2,2
1558441376647378,6,4,-5,2,1,0,-3,1
1558441376647378,-4,-7,-3,-3,-5,3,0,-1
1558441376662338,-8,-11,2,0,-4,-5,-2,-4
1558441376662338,0,10,-4,-3,0,-7,-1,-2
1558441376663335,-1,-5,7,2,4,-1,4,3
1558441376663335,-2,0,5,6,8,7,3,1
1558441376677298,1,-4,-2,-4,-6,-11,-7,-2
1558441376677298,1,6,-6,-1,1,6,2,0
1558441376684284,0,10,15,1,-1,-4,-5,-5
1558441376684284,-4,-6,-23,-7,-3,1,-1,-2
1558441376699238,-9,-18,12,4,-3,-1,-3,-4
1558441376699238,3,-1,-14,-7,1,6,-6,-4
1558441376707217,2,5,25,10,2,-1,-1,1
1558441376707217,-14,-11,-40,-24,-13,-12,-6,-4
1558441376723173,1,2,9,6,2,-5,2,1
1558441376723173,-1,-5,-4,-4,-6,-5,-4,-3
1558441376723173,-1,-13,-16,-6,-4,-1,-1,-4
1558441376723173,0,-5,10,4,4,15,4,-3
1558441376737137,0,-1,-8,-2,-1,-8,-6,-2
1558441376737137,0,1,11,5,3,-2,4,2
1558441376744119,2,3,-7,-3,3,4,2,0
1558441376744119,-1,6,4,3,0,-2,0,-1
1558441376760090,-3,-2,-6,-9,-6,-1,-4,-4
1558441376760090,-3,-13,-8,0,0,2,-3,-2
1558441376767056,-8,-6,-11,-7,-10,-11,-5,-3
1558441376767056,2,4,13,5,6,3,-1,3
1558441376783014,5,6,3,5,5,1,0,2
1558441376783014,-2,2,16,-1,-4,-3,1,0
1558441376783014,-5,-8,-28,-13,-7,-1,1,-3
1558441376783014,2,5,-2,-5,-7,-7,-5,-3
1558441376796979,-4,-1,14,8,8,14,4,0
1558441376796979,1,-5,-17,-5,-2,-7,-3,-1
1558441376804956,-8,-7,-6,-4,-9,-15,-6,-3
1558441376804956,7,9,11,3,-1,-4,-2,0
1558441376827895,0,-3,-1,4,3,6,4,1
1558441376827895,-7,-2,-1,1,2,5,-3,0
1558441376828893,6,9,4,2,1,0,2,1
1558441376828893,2,0,-3,1,-1,-9,-1,2
1558441376842854,-3,-5,12,3,1,4,1,0
1558441376842854,0,-5,-3,1,-2,1,0,0
1558441376843852,2,3,7,4,2,2,-3,0
1558441376843852,-1,0,5,1,2,1,-2,-1
1558441376856818,-5,-9,-14,-9,-4,-3,-2,-2
1558441376856818,0,6,6,1,-4,-3,-3,-3
1558441376864796,-4,-7,-4,0,-2,3,-3,-2
1558441376864796,1,-4,-6,-9,-5,-9,-1,-1
1558441376879756,5,3,5,5,9,8,9,4
1558441376879756,-6,3,-12,-11,-7,-12,-7,-3
1558441376886737,-8,-22,-3,0,5,12,0,0
1558441376886737,-3,-6,3,2,3,-2,1,1
1558441376902695,2,8,-6,-3,-1,-5,-3,1
1558441376902695,7,7,22,11,2,6,4,3
1558441376903692,-9,-4,-26,-12,-6,-12,-1,-3
1558441376903692,1,2,4,2,4,0,-1,-1
1558441376916658,2,-1,-12,-8,-5,2,0,-3
1558441376916658,0,-2,7,3,-2,-5,-4,-3
1558441376924635,0,0,9,1,0,8,-3,-5
1558441376924635,-2,-1,-2,4,-3,2,-2,-2
1558441376940593,-2,1,0,-5,-3,-2,-4,-3
1558441376940593,-4,-6,-20,-13,-9,-6,-7,-3
1558441376947574,3,2,8,4,11,11,8,6
1558441376947574,-2,2,-3,0,4,4,7,1
1558441376961536,1,3,10,3,-2,-7,-8,-2
1558441376961536,0,-7,-15,-4,-6,-4,2,-3
1558441376970513,-6,4,2,-1,-2,-9,-4,-3
1558441376970513,0,-6,0,0,0,5,1,-1
1558441376977494,-9,-7,-5,-5,3,1,2,0
1558441376977494,5,11,23,15,7,9,1,5
1558441376992454,4,1,-11,-13,-11,-13,-3,-2
1558441376992454,-1,-3,-23,-9,-9,-4,-8,-4
1558441376999435,-1,-1,11,3,-4,0,-2,-3
1558441376999435,-2,-5,-7,-3,1,1,0,0
1558441377007413,2,2,13,7,0,4,0,-1
1558441377007413,1,6,-3,-4,0,-8,3,2
1558441377022374,-5,-10,-14,-6,-8,-3,-5,-5
1558441377022374,4,9,11,8,11,6,8,4
1558441377030352,-11,-20,-11,-5,-7,-7,-4,-4
1558441377030352,1,11,2,-1,-3,2,-1,-2
1558441377037333,-4,-11,-7,-3,-4,-3,-1,-1
1558441377037333,1,0,-4,-3,-2,-6,-4,-3
1558441377052294,-2,2,10,7,11,13,7,3
1558441377052294,-2,-5,-7,-4,0,-5,-3,0
1558441377059314,1,3,-1,-2,-4,-3,-4,0
1558441377059314,3,2,9,2,-2,1,-2,-3
1558441377067254,5,8,-7,-5,3,0,5,4
1558441377067254,-5,-1,11,4,-3,-7,-4,-3
1558441377082214,-8,0,6,4,-5,-2,-1,-1
1558441377082214,-8,-20,-24,-14,-11,-12,-6,-4
1558441377090192,-3,-3,0,4,6,10,1,-1
1558441377090192,2,-1,4,1,3,0,-1,2
1558441377097174,2,6,-1,-2,2,-8,0,-1
1558441377097174,-3,5,14,4,-2,-1,1,0
1558441377104191,4,9,10,3,7,2,1,0
1558441377104191,7,1,12,6,0,6,3,1
1558441377119116,-15,-14,-34,-13,-6,-3,-3,-2
1558441377119116,-4,-3,-15,-7,-2,-6,-3,-1
1558441377127098,-8,-14,-2,-2,-8,-9,-6,-4
1558441377127098,-2,-1,-3,-4,-5,0,-4,-4
1558441377142053,10,13,14,4,4,8,1,0
1558441377142053,0,0,-2,-2,3,-2,4,2
1558441377150063,3,5,1,3,-5,-9,-6,-1
1558441377150063,-3,-5,0,0,5,5,6,1
1558441377165019,3,2,3,3,0,0,0,3
1558441377165019,4,11,13,1,2,4,3,-1
1558441377165990,7,-5,-16,-10,-7,-10,-11,-3
1558441377165990,-20,-18,-27,-11,-15,-3,-6,-8
1558441377179952,-1,-1,-7,-5,2,5,5,1
1558441377179952,-2,-5,12,7,7,3,3,2
1558441377186933,11,14,-4,-3,-2,-2,0,0
1558441377186933,0,-4,21,7,4,6,-2,-1
1558441377201930,-4,-4,-15,-4,-1,-3,-5,-3
1558441377201930,2,2,-11,-6,-3,-1,-4,-2
1558441377210869,-8,-11,5,-1,-5,0,1,1
1558441377210869,5,6,2,5,6,1,-3,4
1558441377224833,-5,-2,-1,-8,-6,-9,2,-1
1558441377224833,-7,-13,7,1,0,0,-5,-1
1558441377225829,-7,-2,-13,-8,-2,0,-4,-4
1558441377225829,3,3,5,4,1,3,1,-1
1558441377239839,9,2,3,3,4,6,3,2
1558441377239839,-4,1,-3,-2,-2,1,-1,-2
1558441377246811,2,8,20,5,-1,-2,3,1
1558441377246811,6,7,9,1,0,-4,-5,0
1558441377261733,-4,-5,-33,-12,-4,-4,-3,-4
1558441377261733,-12,-32,-50,-22,-13,-6,-4,-5
1558441377277693,0,-1,-1,2,-2,4,1,-1
1558441377277693,1,6,2,-2,1,-3,0,2
1558441377285669,6,6,22,9,1,1,-4,1
1558441377285669,2,3,7,3,0,0,0,2
1558441377285669,3,11,3,3,1,-4,0,-1
1558441377285669,1,-2,-1,-7,4,-1,7,2
1558441377299631,2,-2,9,7,2,4,2,2
1558441377299631,-2,1,2,0,-2,0,-1,-3
1558441377306615,-9,-12,-16,-6,-1,-2,-4,-2
1558441377306615,-2,-3,-4,-6,-8,-5,-3,-4
1558441377321610,-2,1,11,1,1,-3,-3,-3
1558441377321610,6,9,3,-1,-2,0,2,0
1558441377330549,4,5,9,4,0,-3,0,1
1558441377330549,-8,-15,-4,-1,-1,-4,0,-1
1558441377345546,0,-1,-5,-5,0,-2,-1,2
1558441377345546,0,2,7,4,-4,1,-4,-1
1558441377345546,3,2,-5,-4,-5,2,1,-4
1558441377345546,1,2,9,6,15,16,4,6
1558441377359473,-6,-4,-6,-3,1,-1,-1,0
1558441377359473,2,1,13,4,-2,-6,-4,-1
1558441377367450,-13,-24,-33,-15,-10,-5,-9,-9
1558441377367450,-1,5,-5,-6,-9,-6,-1,-3
1558441377382410,2,4,15,4,3,6,2,1
1558441377382410,1,2,-5,0,3,-10,1,0
1558441377390389,6,7,5,1,1,1,1,1
1558441377390389,-5,2,12,5,0,2,-3,-4
1558441377405350,-14,-13,-26,-11,-10,-8,-2,-3
1558441377405350,-8,-6,-2,-4,-1,-2,-2,-2
1558441377406348,4,2,4,2,4,4,-3,0
1558441377406348,-3,-2,-6,-1,-5,-6,-3,-2
1558441377419314,2,3,19,5,2,-1,1,-1
1558441377419314,0,5,1,3,3,5,-1,0
1558441377427291,-7,-8,-9,-5,0,4,5,0
1558441377427291,5,2,-8,-1,-2,-4,0,2
1558441377442252,4,1,-9,-9,-6,-5,-2,-2
1558441377442252,0,-1,9,2,1,1,1,0
1558441377450228,-1,-10,12,4,-2,-2,0,0
1558441377450228,-9,-4,-6,0,-4,-3,-3,-3
1558441377465217,-6,-19,-7,-1,-5,-1,-6,-6
1558441377465217,3,3,-1,1,9,6,7,2
1558441377466188,0,9,16,6,2,0,-3,-1
1558441377466188,1,0,0,-5,-5,-6,2,0
1558441377479154,0,-1,-12,-4,-2,-8,-2,-1
1558441377479154,-1,-7,-22,-14,-10,1,-4,-2
1558441377495177,-1,3,-5,-4,-2,0,0,-1
1558441377495177,2,3,5,-1,0,4,1,-1
1558441377502091,-4,-6,3,2,1,1,-3,-1
1558441377502091,1,2,5,1,-1,-3,-2,-1
1558441377510070,0,4,1,0,0,-1,2,1
1558441377510070,0,-4,-5,-1,-1,-3,0,0
1558441377525361,4,5,23,13,3,1,0,1
1558441377525361,-5,-6,-21,-18,-7,-5,-3,-2
1558441377526028,15,14,17,12,7,-1,0,2
1558441377526028,-20,-13,-22,-16,-11,-3,-6,-7
1558441377549251,-4,-20,-29,-10,-8,-9,-6,-5
1558441377549251,4,6,15,6,3,-3,1,1
1558441377549251,-5,1,27,10,4,-6,1,2
1558441377549251,-4,-10,-26,-10,-3,-2,-4,-3
1558441377563926,0,-1,5,1,0,5,2,1
1558441377563926,1,4,11,4,3,5,0,0
1558441377571042,5,4,-12,-7,-3,-7,-3,0
1558441377571042,-2,-8,6,2,0,-2,-2,-1
1558441377586864,-3,5,4,-1,0,-1,-3,0
1558441377586864,-1,-2,-1,1,2,3,2,1
1558441377586864,1,1,2,0,-5,-3,1,0
1558441377586864,5,4,-8,-5,-2,-4,-1,0
1558441377599862,-1,6,-1,-1,-2,-2,8,1
1558441377599862,-4,-5,9,5,1,0,-5,0
1558441377606837,-5,-6,7,3,1,1,-1,-5
1558441377606837,2,-2,-15,-5,-4,-2,-3,-1
1558441377621770,7,12,16,5,3,3,3,2
1558441377621770,-8,1,7,-2,1,-5,3,1
1558441377629749,-9,-12,-28,-11,-5,2,-3,-4
1558441377629749,4,4,16,7,-3,4,-1,-1
1558441377645706,2,2,3,-3,-2,-7,-5,-1
1558441377645706,1,-4,-7,-2,2,2,3,-1
1558441377645706,3,7,1,0,1,5,3,1
1558441377645706,-6,-4,16,6,2,-1,-1,-1
1558441377659669,-1,5,-7,-2,-3,1,-1,0
1558441377659669,-8,-19,-10,-6,-8,-13,-3,-3
1558441377666650,-1,1,0,-1,-2,-4,-4,-1
1558441377666650,-1,-6,-20,-8,3,5,6,1
1558441377681655,3,-3,-4,-1,-1,-3,0,-3
1558441377681655,7,15,30,16,5,7,-1,3
1558441377690587,-3,-7,-48,-22,-8,-5,-3,-4
1558441377690587,-1,-4,3,-2,-2,-3,0,-2
1558441377705547,-10,-19,-7,1,2,1,-3,-2
1558441377705547,12,15,16,8,3,2,4,2
1558441377705547,-14,-13,-13,-4,-4,-2,-4,-4
1558441377705547,4,2,14,5,2,0,-4,0
1558441377719512,-1,-3,-19,-8,-4,0,-3,-1
1558441377719512,-1,5,10,4,0,-1,-1,-2
1558441377727488,6,-1,-8,-2,-4,-2,0,-1
1558441377727488,-9,-2,4,3,0,-2,-4,-3
1558441377742448,3,7,4,0,-5,-6,-2,0
1558441377742448,-11,-21,-29,-13,-6,-3,-4,-5
1558441377750429,4,-1,6,2,6,7,5,0
1558441377750429,6,8,18,8,3,-3,2,1
1558441377765419,3,8,-7,1,4,2,2,1
1558441377765419,-9,-13,-18,-11,-8,-4,-7,-6
1558441377766383,-6,-6,-2,0,-6,-13,-5,-1
1558441377766383,3,2,-3,-7,-4,1,0,1
1558441377779389,4,9,24,11,3,-2,0,1
1558441377779389,-2,2,-16,-5,1,5,-1,-2
1558441377787329,-5,-6,9,-4,-6,2,-3,-3
1558441377787329,-4,-7,-3,0,-7,-9,-6,-3
1558441377802298,4,9,12,2,14,16,12,6
1558441377802298,6,8,9,4,5,-1,3,3
1558441377810268,4,9,10,4,6,2,0,-1
1558441377810268,-8,-12,-11,-4,-7,-1,-2,-3
1558441377825227,1,2,-19,-10,-7,-7,-7,-2
1558441377825227,-10,-1,9,4,-1,-2,3,-3
1558441377826226,2,-2,9,4,1,-1,3,1
1558441377826226,3,-5,-11,-7,1,2,-2,-2
1558441377839217,0,0,25,11,4,4,3,0
1558441377839217,0,-3,-29,-11,-2,-1,-2,-2
1558441377847199,-1,7,1,-2,-3,-7,-3,-1
1558441377847199,-3,-3,-1,0,0,-2,0,1
1558441377862128,-5,-5,0,1,-5,-5,-4,-3
1558441377862128,-2,4,0,-1,1,2,-3,0
1558441377878087,2,1,-21,-12,-3,1,3,0
1558441377878087,3,-1,6,6,4,1,3,0
1558441377885065,-6,-5,-14,-9,-2,7,0,-2
1558441377885065,0,-2,5,0,-4,-9,-4,0
1558441377886063,-4,4,9,2,-5,1,-7,-3
1558441377886063,9,7,1,1,7,5,4,2
1558441377899031,-6,-4,4,3,5,0,1,-2
1558441377899031,3,6,12,7,2,0,2,0
1558441377907008,3,-4,-9,-6,-2,-6,-3,2
1558441377907008,0,7,-8,-8,-9,-9,-9,-2
1558441377938922,-5,-9,-12,-3,3,7,6,2
1558441377938922,3,-5,2,2,-2,-1,-3,-3
1558441377938922,-4,-2,10,4,3,0,-2,-3
1558441377938922,3,7,2,-2,-2,-9,-2,-2
1558441377944906,4,1,1,-2,-2,-1,1,-1
1558441377944906,0,-5,-14,-8,-1,-1,4,0
1558441377953075,0,5,18,10,4,0,2,2
1558441377953075,-7,0,-25,-11,-9,0,-5,-3
1558441377959867,0,-5,4,0,-6,-7,-11,-4
1558441377959867,3,1,2,2,5,-4,6,4
1558441377966848,-6,-8,-1,1,1,2,-3,-1
1558441377966848,4,8,24,12,6,8,3,1
1558441377981839,-8,-2,-24,-11,1,1,0,-2
1558441377981839,0,4,11,1,-4,-6,-1,-1
1558441377990814,-3,-7,-24,-8,-3,-1,-1,-2
1558441377990814,-5,-10,3,2,-4,-5,-3,0
1558441378004775,-1,-5,-4,-6,-9,-3,-6,-3
1558441378004775,-4,-2,0,0,-4,1,-4,-3
1558441378012754,2,5,6,0,-2,-2,-1,-1
1558441378012754,2,7,7,4,7,2,3,-1
1558441378019735,4,5,16,10,10,3,9,3
1558441378019735,-6,-8,-15,-9,-3,-1,-6,-2
1558441378026689,2,0,-7,-8,-6,-3,-4,-2
1558441378026689,-9,-3,-2,1,-10,-7,-10,-7
1558441378049626,2,-2,7,1,2,3,5,3
1558441378049626,-1,-7,-10,1,2,5,4,0
1558441378057639,-12,-12,7,7,8,6,7,3
1558441378057639,5,4,6,-1,1,-1,1,0
1558441378064618,-1,1,-4,-4,-8,-9,-7,-4
1558441378064618,-4,-3,-11,-3,-6,-2,-4,-2
1558441378072598,-6,-15,-15,-9,0,1,3,-2
1558441378072598,4,0,-1,-3,3,-10,2,0
1558441378079577,-12,-9,8,2,-4,-7,-6,-3
1558441378079577,4,1,-3,-2,2,5,-3,-2
1558441378087524,2,8,3,-1,-5,-5,-5,-1
1558441378087524,-2,-2,1,0,-1,3,1,0
1558441378118476,4,0,-2,-2,5,4,5,2
1558441378118476,-2,7,0,-3,-1,0,-2,-3
1558441378119441,-3,-7,-3,0,2,3,-1,-2
1558441378119441,4,-4,-5,-7,-5,0,-2,0
1558441378124427,-2,-1,-8,-4,-9,-12,-8,-5
1558441378124427,-3,0,10,4,-1,4,4,-2
1558441378132435,3,4,10,5,9,9,5,5
1558441378132435,-7,-12,-4,2,2,1,2,0
1558441378147973,4,9,10,4,2,2,2,0
1558441378147973,1,-2,-37,-17,-18,-15,-11,-6
1558441378148972,-9,-13,2,1,-3,-1,2,-2
1558441378148972,0,-1,1,2,7,4,-1,0
1558441378161937,2,-1,1,0,2,-4,3,2
1558441378161937,0,4,12,4,-1,-2,-4,1
1558441378169915,6,6,-2,-3,-1,-5,-2,-2
1558441378169915,0,2,-1,-3,-4,2,-3,-1
1558441378184874,-6,5,2,-2,-5,-1,-5,-3
1558441378184874,2,-7,16,5,3,1,0,-2
1558441378192825,-1,1,-18,-8,-3,-1,-1,0
1558441378192825,-4,-8,3,1,-3,-7,-1,-1
1558441378207813,0,4,-7,-3,0,3,1,0
1558441378207813,0,-1,2,2,1,-2,5,5
1558441378208782,-2,-1,8,2,-1,2,-2,-5
1558441378208782,-4,-1,-13,-6,-1,-3,-2,-4
1558441378223742,2,-5,-1,-3,-7,1,-5,-1
1558441378223742,-3,-1,7,1,0,5,-2,-2
1558441378230723,-2,-9,-3,1,7,7,3,1
1558441378230723,5,5,9,1,-2,-6,0,1
1558441378244685,-4,-9,-25,-10,-3,-2,1,0
1558441378244685,-3,-7,-10,-2,0,3,-1,-2
1558441378252691,6,8,4,1,-4,-3,-6,-4
1558441378252691,2,8,8,3,4,10,4,1
1558441378267622,2,3,3,0,4,-3,1,1
1558441378267622,-4,-3,1,-1,-1,-2,0,0
1558441378268620,4,0,3,1,-2,-6,-4,-1
1558441378268620,-6,5,5,-1,-4,-4,-2,-3
1558441378281585,1,-1,-15,-4,2,1,-1,1
1558441378281585,-2,-5,-10,-3,2,4,1,-1
1558441378290734,-1,2,0,-1,-2,-5,-3,0
1558441378290734,-6,-13,-13,-8,-6,-12,-4,-1
1558441378304523,0,-1,7,-1,-3,-3,-3,-4
1558441378304523,1,2,3,-1,-3,0,-1,-4
1558441378312503,9,9,21,10,3,3,6,4
1558441378312503,-13,-11,-19,-5,2,-2,2,-1
1558441378327463,-2,-1,1,1,-3,3,-3,-2
1558441378327463,-2,-8,-12,-3,-6,-9,-9,-3
1558441378328461,0,4,-1,-4,-8,-7,-2,-1
1558441378328461,4,2,7,3,1,12,5,0
1558441378342424,1,-1,5,2,5,-1,4,3
1558441378342424,0,5,7,0,-1,-2,-2,0
1558441378350590,2,6,3,-2,-11,-18,-9,-4
1558441378350590,-1,-3,-4,2,15,23,10,5
1558441378365574,-4,-9,4,3,4,12,3,-2
1558441378365574,-2,-4,-18,-11,-12,-5,-6,-4
1558441378372440,-5,-8,-11,-3,-3,-2,-3,-1
1558441378372440,2,-1,0,-4,1,-6,1,1
1558441378404360,1,6,5,2,-6,-9,-3,0
1558441378404360,5,11,9,4,7,10,5,3
1558441378404360,2,2,-6,-3,-3,4,-3,-2
1558441378404360,-5,-9,-4,-1,-3,2,-8,-5
1558441378406322,-1,-1,4,0,1,1,0,0
1558441378406322,-2,-1,-4,0,-3,-6,-1,-2
1558441378409314,-8,1,-1,-3,4,-9,5,3
1558441378409314,4,3,6,4,4,7,5,3
1558441378457294,-3,-8,2,-1,-8,-10,-2,-2
1558441378457294,-9,-5,-12,-3,2,-4,-1,-2
1558441378458258,-7,-14,-5,-1,1,2,1,0
1558441378458258,1,2,-2,-3,-7,-11,-8,-4
1558441378459249,0,-3,-2,0,-4,0,-4,-1
1558441378459249,4,6,13,4,2,2,4,2
1558441378463283,-3,-5,-18,-8,-4,-2,1,-3
1558441378463283,0,0,-2,-1,-5,-2,-5,-1
1558441378465278,1,1,3,0,-1,-1,-1,-1
1558441378465278,1,-1,5,2,4,2,0,-1
1558441378469267,0,3,3,2,1,2,-2,-1
1558441378469267,0,1,7,3,-1,-2,0,0
1558441378517093,-1,6,-19,-9,-2,-3,-2,-1
1558441378517093,-1,-10,-7,-3,-1,-2,0,2
1558441378518092,-4,-1,4,2,1,1,0,-1
1558441378518092,6,5,0,-1,-2,-5,0,-1
1558441378519088,3,2,6,0,1,2,1,-1
1558441378519088,-13,-13,2,2,-2,-2,0,-1
1558441378523077,4,5,-5,-2,0,-1,-3,1
1558441378523077,2,-2,-6,-4,-3,-2,-1,-1
1558441378525102,-3,3,9,0,1,2,0,0
1558441378525102,6,4,0,3,2,2,1,0
1558441378529063,-3,-1,-4,-3,-4,-2,-5,-3
1558441378529063,1,-3,10,4,4,0,5,4
1558441378571067,-5,-15,-23,-9,-8,-4,-6,-2
1558441378571067,5,12,18,6,11,4,10,5
1558441378571067,-5,-6,-10,-6,-1,-7,-2,0
1558441378571067,2,8,-6,0,-2,5,0,-4
1558441378576050,-7,-18,12,7,4,6,5,0
1558441378576050,-4,-5,-19,-10,-9,-1,-7,-4
1558441378576934,6,5,4,3,-2,5,1,2
1558441378576934,-8,-7,-8,-7,-4,-11,-3,-2
1558441378581958,0,3,3,2,-1,0,-2,-2
1558441378581958,5,3,3,0,2,1,1,0
1558441378629945,-1,-4,6,-1,-1,-1,-3,-2
1558441378629945,-1,-4,-8,-3,0,3,2,-1
1558441378630790,6,9,18,7,11,7,5,4
1558441378630790,-7,-2,-14,-10,-3,-14,-5,-2
1558441378631786,-1,-10,4,2,-4,-3,-3,-2
1558441378631786,-5,-5,-10,-2,-2,-4,-5,-4
1558441378637771,-4,-1,-17,-11,-11,-21,-8,-3
1558441378637771,1,-3,3,1,7,25,9,0
1558441378643756,0,6,8,3,1,0,3,0
1558441378643756,3,9,5,3,1,-1,-1,0
1558441378644753,-1,-8,-7,-4,0,3,0,-1
1558441378644753,2,2,8,4,-4,-7,-4,-1
1558441378665761,-6,-4,-8,-7,-3,4,0,-3
1558441378665761,-5,-5,-7,-2,0,-3,-3,-4
1558441378667720,2,3,-6,-2,-1,0,-2,-1
1558441378667720,2,1,7,1,-5,2,-3,-4
1558441378673710,0,-2,0,-1,1,-1,1,-1
1558441378673710,2,3,3,-1,-1,0,1,1
1558441378688669,0,5,15,9,3,1,-1,0
1558441378688669,-3,-6,-16,-13,-5,-6,0,-3
1558441378689632,-3,-4,-2,-4,-4,-8,-4,-1
1558441378689632,-1,0,13,5,4,-1,-4,1
1558441378701631,-4,-5,-17,-7,-5,-1,-1,-2
1558441378701631,-1,0,8,3,1,-1,-4,-2
1558441378709581,0,-3,-10,-5,-4,-8,-6,-1
1558441378709581,2,4,-3,-1,-5,-2,-2,0
1558441378734544,0,-2,4,0,6,9,3,-1
1558441378734544,-5,-4,10,5,1,-8,1,-1
1558441378735510,-16,-11,-18,-6,-5,-5,-3,-3
1558441378735510,-4,-12,1,-1,-4,0,-1,-1
1558441378747478,5,12,-1,-4,-3,-10,-3,-3
1558441378747478,2,1,-2,-1,-1,-3,2,3
1558441378748474,4,0,3,-1,3,1,2,2
1558441378748474,-3,-5,-10,-3,-2,4,-1,-2
1558441378810309,-1,0,1,-2,-3,-9,-4,-1
1558441378810309,1,3,6,4,0,6,-1,-1
1558441378811308,3,-3,1,2,4,5,3,3
1558441378811308,-11,-3,-9,-7,-3,-10,-3,-2
1558441378847243,-3,-11,-14,-7,-4,0,-4,-3
1558441378847243,-8,-5,8,1,-2,1,-5,-1
1558441378848211,4,5,0,1,3,2,1,0
1558441378848211,2,2,1,-3,-6,-4,-4,-3
1558441378854231,1,8,-8,-7,-6,-8,-8,-2
1558441378854231,-3,-12,-6,0,-3,-7,-10,-4
1558441378855194,1,6,22,9,8,9,5,1
1558441378855194,-6,-9,-24,-11,-8,-11,-2,-5
1558441378860179,-2,-3,9,2,0,-2,-2,2
1558441378860179,1,1,7,4,0,6,1,1
1558441378867191,-4,-5,-4,-1,1,-4,0,1
1558441378867191,0,4,9,3,-1,-2,-1,1
1558441378891133,0,-4,-20,-11,-3,-4,-5,-5
1558441378891133,-3,2,1,-3,-3,3,1,0
1558441378915033,1,-7,0,0,2,5,3,-2
1558441378915033,-12,-2,1,0,-1,-9,-1,-1
1558441378915033,-1,0,-2,-2,-1,1,-2,-1
1558441378915033,2,-9,-4,-4,-3,-1,0,0
1558441378917025,2,7,15,6,-2,0,-1,-1
1558441378917025,1,2,-6,-5,-1,3,-2,-1
1558441378920050,-2,-2,-13,-4,0,-4,3,1
1558441378920050,0,5,3,0,0,-6,-1,-1
1558441378936008,-2,-4,1,1,6,9,5,2
1558441378936008,-2,-2,-5,-1,-5,0,-2,-2
1558441378936974,-1,0,-8,-7,-9,-7,-8,-5
1558441378936974,1,0,11,4,4,13,2,-3
1558441378957916,0,0,-5,-3,2,-11,6,2
1558441378957916,4,7,-2,-2,0,-8,-4,-1
1558441378958912,-4,-9,0,1,2,1,0,0
1558441378958912,3,3,6,0,0,-3,0,0
1558441378973871,0,-3,-8,-2,0,1,1,0
1558441378973871,-8,-4,2,-1,0,0,-2,-3
1558441378973871,2,6,11,4,-7,-11,-6,-2
1558441378973871,2,0,-11,-2,6,10,4,-1
1558441378995812,-5,-1,-5,-5,-7,-12,-7,-4
1558441378995812,3,-5,-1,-2,1,6,4,1
1558441378996812,1,6,-3,2,8,16,5,2
1558441378996812,-7,-8,5,2,-6,-8,-5,-4
1558441379009775,2,-1,-6,-5,0,-1,1,-1
1558441379009775,1,1,1,0,-2,-7,-4,-2
1558441379010773,-4,-2,-3,-3,0,0,0,-1
1558441379010773,0,2,-3,-1,-3,-5,-2,0
1558441379024932,-2,-1,7,0,-3,-3,-4,-2
1558441379024932,3,-1,-15,-5,-2,1,-1,-2
1558441379063805,-12,-14,4,1,-2,3,-1,-3
1558441379063805,-11,-7,-7,-4,-3,-11,-5,-1
1558441379072740,-4,0,1,0,-5,-5,-5,-2
1558441379072740,4,6,4,1,2,3,3,3
1558441379073606,2,-1,-2,0,1,1,1,-1
1558441379073606,1,2,0,-1,-3,-2,-2,-3
1558441379086696,-4,0,2,0,2,8,1,-1
1558441379086696,-4,-2,-3,-2,-3,3,-4,-1
1558441379087568,2,1,-2,0,-2,-4,2,1
1558441379087568,0,-2,-3,-2,-3,-7,-3,-1
1558441379088566,-2,0,1,2,0,-10,-2,0
1558441379088566,1,-2,0,-3,0,5,2,-1
1558441379124499,-1,2,-4,-3,-1,1,-3,-1
1558441379124499,-1,-1,1,-1,-4,0,1,0
1558441379126465,1,2,-1,0,3,-2,-1,2
1558441379126465,-1,-2,2,1,3,0,3,1
1558441379126465,-2,-1,3,2,1,5,0,-2
1558441379126465,2,0,-8,-3,-1,-1,-3,1
1558441379139513,-3,-5,-5,-6,-8,-5,-3,-4
1558441379139513,0,-3,-1,0,-2,-6,-3,-1
1558441379140426,0,-1,0,0,-1,-2,1,1
1558441379140426,1,2,-4,-4,-4,-4,-3,-1
1558441379144416,4,7,7,3,4,6,2,0
1558441379144416,-13,-12,9,2,3,3,1,-3
1558441379152592,1,-4,-23,-10,-8,-15,-3,-4
1558441379152592,2,2,-2,-4,-5,-4,-5,-4
1558441379167483,0,-2,0,3,3,10,7,3
1558441379167483,-2,0,-1,-2,-4,-3,-2,-3
1558441379175460,-1,0,11,4,7,12,4,0
1558441379175460,-2,0,-1,-1,0,-8,4,2
1558441379190424,1,1,-1,1,1,1,-6,-1
1558441379190424,1,3,-3,-2,-1,7,1,-1
1558441379191291,-4,-6,0,-3,-8,-11,-8,-6
1558441379191291,1,-2,-5,0,6,9,3,2
1558441379204383,-2,-3,-3,-2,-5,-1,-1,-1
1558441379204383,2,3,-4,-3,-4,-17,-5,1
1558441379213262,0,4,3,1,6,7,3,1
1558441379213262,-5,-10,3,0,-1,2,-1,-1
1558441379227194,-2,-2,-2,-2,-1,4,-4,-1
1558441379227194,0,-9,-6,-2,-5,-3,-3,1
1558441379235172,-6,0,1,0,-4,-3,-5,-2
1558441379235172,0,1,2,0,-4,-4,-1,-1
1558441379251252,-2,-4,1,0,2,3,3,0
1558441379251252,5,9,-5,-1,4,9,3,0
1558441379251252,2,-5,2,-1,-3,-11,-1,2
1558441379251252,-2,-4,0,0,1,6,3,-1
1558441379265128,-2,-2,-2,-1,0,-11,2,0
1558441379265128,2,5,0,-1,0,1,-1,-2
1558441379273300,0,-1,1,0,-1,0,-6,-1
1558441379273300,-3,-3,-13,-5,1,3,-3,-2
1558441379287129,0,2,6,0,2,6,3,-2
1558441379287129,1,1,4,2,2,-8,2,0
1558441379295108,0,3,-3,-3,1,-4,0,-1
1558441379295108,-1,-3,-3,1,-3,-2,-3,-3
1558441379310111,-1,2,1,-1,-4,-2,-5,-4
1558441379310111,-5,-4,-5,-5,-1,2,-2,-2
1558441379311108,-7,-2,3,-1,-6,-5,-6,-3
1558441379311108,1,2,3,2,4,7,4,3
1558441379324073,-1,-4,5,0,-2,-5,-1,0
1558441379324073,-3,-5,-14,-5,-3,1,0,-1
1558441379333077,9,5,13,8,4,0,3,3
1558441379333077,-4,-4,-10,-9,-7,-1,-3,-3
1558441379347191,-4,-2,-7,-2,-4,-2,-8,-3
1558441379347191,-1,0,-1,1,-2,-1,-2,-1
1558441379355170,3,4,12,2,7,5,7,3
1558441379355170,1,2,-2,-2,-2,0,-5,-5
1558441379370130,-1,-5,-8,-4,-9,-8,-4,-3
1558441379370130,5,7,3,2,0,-10,0,0
1558441379370947,-2,-8,2,4,1,-2,1,0
1558441379370947,-4,0,11,0,-2,0,-2,-3
1558441379386134,-5,-9,-31,-14,-4,0,-2,-3
1558441379386134,-1,4,13,5,3,4,2,0
1558441379400177,3,3,-17,-9,-3,1,1,0
1558441379400177,2,-2,5,1,0,-6,2,3
1558441379416134,5,-1,8,3,-2,0,-2,-2
1558441379416134,-15,-18,-9,-8,-8,-5,-6,-4
1558441379417092,-1,-1,-6,-3,-1,5,0,0
1558441379417092,-4,2,1,-1,0,-3,0,-2
1558441379430068,1,7,7,0,-2,-1,0,1
1558441379430068,0,-3,1,5,9,9,6,-1
1558441379431015,0,2,-9,-5,-4,-14,-4,-1
1558441379431015,-1,0,-1,1,0,-3,-5,2
1558441379445007,3,6,8,3,4,-3,-1,2
1558441379445007,2,-6,-14,-6,-3,4,-1,-2
1558441379452985,-5,0,13,4,-1,1,-1,-1
1558441379452985,2,1,-3,-4,0,3,1,0
1558441379466919,-6,-13,-19,-6,-13,-10,-7,-4
1558441379466919,-3,-11,-7,-5,-6,-6,-6,-3
1558441379474930,0,-1,-2,-1,4,-2,5,2
1558441379474930,0,-3,4,4,2,-5,4,2
1558441379489892,5,9,8,5,4,3,0,0
1558441379489892,-2,5,3,-3,0,8,1,1
1558441379490857,-1,-3,-4,0,-4,3,-3,-3
1558441379490857,-4,-4,-1,-1,2,-1,-2,-1
1558441379504927,-6,-11,0,-1,-5,-2,-4,-1
1558441379504927,2,4,-7,-2,3,0,-3,0
1558441379519896,-6,-1,-6,-5,0,0,-2,-2
1558441379519896,4,3,5,1,0,0,0,-1
1558441379528841,3,1,-2,1,1,3,3,2
1558441379528841,2,2,7,3,-6,-3,-2,-3
1558441379534855,-9,-4,-6,-4,-5,0,-2,-2
1558441379534855,-7,-7,0,1,-1,1,-4,-4
1558441379558762,-5,-5,7,-4,-1,-4,-5,-4
1558441379558762,-1,-3,-28,-9,-4,-6,0,0
1558441379559758,4,-4,-1,0,4,0,2,2
1558441379559758,3,3,2,-1,5,-1,3,1
1558441379564748,1,4,11,5,0,5,1,1
1558441379564748,4,8,7,-2,-2,0,-3,-2
1558441379572840,-2,1,4,0,-4,5,-4,-4
1558441379572840,-8,-13,-19,-7,-8,-8,-5,-2
1558441379586781,4,3,2,0,1,1,1,0
1558441379586781,0,-1,6,4,6,5,6,3
1558441379595661,5,4,3,0,0,-4,0,0
1558441379595661,1,4,3,2,4,-2,-1,0
1558441379609627,-3,1,-4,-3,2,-3,3,0
1558441379609627,0,-6,4,-4,-5,-4,-3,-1
1558441379610623,2,-2,3,2,-4,0,-2,-4
1558441379610623,-9,-1,12,5,0,0,-4,-4
1558441379624684,-5,-5,-47,-17,0,6,2,-1
1558441379624684,-5,-6,9,8,1,-4,-1,1
1558441379632659,3,3,-3,-3,-3,1,0,0
1558441379632659,7,-3,-7,-8,-9,-11,-4,-1
1558441379647525,-10,-2,11,2,6,2,1,-1
1558441379647525,-4,-3,3,3,1,-6,-1,-2
1558441379655602,-1,-3,-6,-6,-4,-1,-2,-1
1558441379655602,3,4,4,1,-3,3,1,-1
1558441379670622,5,3,6,-1,1,0,1,0
1558441379670622,-3,-4,1,0,-1,0,0,0
1558441379670622,-5,-6,-3,-3,-4,-7,-1,-4
1558441379670622,2,5,-2,5,9,8,5,3
1558441379684555,1,-3,1,-4,-4,-1,-3,-3
1558441379684555,0,0,-2,-1,-5,-7,-4,-4
1558441379692521,3,7,4,0,0,3,-3,-2
1558441379692521,-12,-15,-10,-2,-10,-4,-8,-4
1558441379715478,-2,-3,-23,-7,-2,7,2,-1
1558441379715478,-4,-4,11,5,11,-10,3,2
1558441379716440,1,-1,-13,-5,-1,-2,-2,3
1558441379716440,3,4,4,2,1,6,1,-2
1558441379730403,-2,-1,14,3,-3,-3,-3,-1
1558441379730403,2,2,-10,-8,-8,-2,-4,-3
1558441379731400,1,3,1,3,3,1,1,1
1558441379731400,3,4,11,0,0,-1,0,0
1558441379744365,-8,-3,-13,-2,-1,1,-3,-4
1558441379744365,-2,-2,3,-3,-8,1,-3,-3
1558441379752344,-4,-8,-11,-2,2,-6,0,-1
1558441379752344,0,-1,1,1,7,0,11,4
1558441379767304,11,9,10,7,6,3,2,0
1558441379767304,-3,3,0,-1,-4,1,-3,-3
1558441379775281,-5,-3,-6,-3,-10,0,-6,-6
1558441379775281,2,3,4,0,1,7,-3,-1
1558441379789465,-4,-10,-11,-5,0,-10,2,0
1558441379789465,3,5,3,2,2,1,1,0
1558441379798332,-1,1,6,0,0,3,0,-1
1558441379798332,0,5,-13,-5,-1,3,-3,-2
1558441379804429,-1,-12,8,2,-4,-6,-2,-4
1558441379804429,-2,-4,-6,-5,1,4,-1,-2
1558441379813298,-2,-2,1,2,0,-10,3,2
1558441379813298,-3,-2,-2,-5,-5,1,0,-1
1558441379828153,6,15,21,5,3,4,-2,1
1558441379828153,-6,-16,-23,-9,-11,-10,-4,-4
1558441379835329,0,-1,2,0,3,5,0,-1
1558441379835329,-1,-10,-9,-1,0,-14,2,-1
1558441379858223,2,-1,3,0,2,-1,-1,0
1558441379858223,0,5,15,5,0,2,-1,-2
1558441379859059,3,1,-11,-6,1,6,-2,0
1558441379859059,-11,-6,-7,-6,-11,-8,-5,-4
1558441379864044,1,3,10,4,-1,-2,-3,0
1558441379864044,4,4,-9,-1,1,2,2,3
1558441379880162,-1,-5,1,3,8,4,4,0
1558441379880162,4,-3,-1,-3,4,-1,-2,-2
1558441379887146,-4,0,-6,-2,-4,-8,-1,0
1558441379887146,0,2,-4,-4,-1,5,-3,-1
1558441379895128,-4,-5,0,-2,-8,-2,-7,-4
1558441379895128,0,0,-2,-2,-1,1,-2,1
1558441379909923,-3,-2,4,-1,-5,-5,2,-3
1558441379909923,1,2,1,-1,2,-5,-3,-2
1558441379918059,-1,2,4,2,0,-6,-2,-1
1558441379918059,2,6,-5,-2,2,7,-1,1
1558441379924998,-6,-17,-11,-5,-7,-6,-4,0
1558441379924998,1,2,6,3,3,5,5,4
1558441379939899,0,-4,-5,-5,-3,0,0,0
1558441379939899,-1,5,5,1,0,-2,-5,-1
1558441379946824,7,10,6,4,4,5,3,2
1558441379946824,-11,-16,-11,-5,-4,-8,-2,-4
1558441379954803,-5,-8,4,-1,-2,-2,-2,-3
1558441379954803,2,1,4,1,0,4,1,-1
1558441379969866,1,13,-11,-5,2,4,4,1
1558441379969866,0,5,9,1,1,0,-1,1
1558441379977743,-3,-14,7,2,-1,-3,0,1
1558441379977743,-3,-8,-19,-7,-8,-11,-5,-3
1558441379993699,-4,-3,7,3,-1,4,-5,-1
1558441379993699,6,8,0,0,7,9,3,3
1558441379994697,0,9,5,1,2,-4,1,0
1558441379994697,3,1,5,2,0,1,-1,1
1558441380006664,2,4,2,-1,-3,-2,-3,-3
1558441380006664,-16,-23,-14,-7,-10,-3,-6,-7
1558441380015639,0,6,-1,-1,2,1,-1,0
1558441380015639,-2,-9,-6,-6,-7,-4,-2,-1
1558441380029601,3,3,-3,-1,0,-3,-2,-1
1558441380029601,8,10,12,4,1,-5,-1,2
1558441380045561,-4,-3,-19,-9,-2,-3,0,-2
1558441380045561,-5,0,6,2,-1,-1,-2,-3
1558441380060520,-7,-17,-5,-1,1,6,1,-2
1558441380060520,2,-2,-5,-4,-8,-1,-3,-1
1558441380061518,1,1,5,3,3,3,2,0
1558441380061518,2,9,8,4,7,0,4,2
1558441380066541,-2,-1,4,-1,3,-5,3,1
1558441380066541,6,4,-13,-3,-4,-3,-1,-1
1558441380075479,-2,3,1,0,-7,-1,-3,-4
1558441380075479,-15,-18,-10,-2,-5,1,-2,-4
1558441380089670,-8,-8,8,3,3,6,0,-3
1558441380089670,1,-1,-11,-6,-3,-4,0,-2
1558441380105634,0,-1,-2,-1,-3,3,-2,1
1558441380105634,6,9,2,1,1,5,0,0
1558441380113606,-6,-3,-7,-2,-3,-5,-2,-1
1558441380113606,2,-4,6,1,5,-10,-1,0
1558441380114605,-1,3,6,1,3,3,1,-1
1558441380114605,-2,-6,-3,-2,0,0,1,-2
1558441380127342,2,-1,-2,-3,-6,-1,-4,-2
1558441380127342,3,3,4,1,-3,0,-1,-1
1558441380135547,-4,-5,-8,-2,-4,-4,-3,-2
1558441380135547,7,9,6,0,-1,1,-2,0
1558441380165667,3,1,5,4,4,0,5,3
1558441380165667,-9,-8,1,0,10,8,6,2
1558441380166522,2,-6,-6,-2,-1,-3,-1,-2
1558441380166522,1,3,-6,-4,-4,-2,-3,-3
1558441380172656,1,4,-3,-3,-9,-9,-5,-3
1558441380172656,6,9,20,7,-1,-3,0,2
1558441380173504,-9,-7,-9,-7,-4,-4,-5,-4
1558441380173504,-6,-3,-11,-8,-8,2,-2,-3
1558441380187523,-1,-2,-3,0,4,3,0,1
1558441380187523,-3,0,8,6,3,-19,1,1
1558441380195587,2,6,-3,-4,-1,0,-3,0
1558441380195587,3,7,15,7,5,0,2,3
1558441380218384,-9,-12,-26,-13,-6,3,-2,-4
1558441380218384,6,6,10,2,0,8,0,-1
1558441380219382,-14,-17,-15,-5,-8,-7,-4,-5
1558441380219382,-2,0,-4,0,0,-2,-1,-1
1558441380232570,6,4,8,0,1,0,1,3
1558441380232570,-3,-4,-3,0,1,10,1,-1
1558441380233534,5,9,10,4,0,-5,0,1
1558441380233534,-5,-3,1,1,5,6,3,1
1558441380247534,1,1,-1,-1,-4,-8,-3,-2
1558441380247534,1,9,-4,-5,-5,-1,-4,-3
1558441380255621,3,-3,4,1,-3,0,-2,-1
1558441380255621,-11,-16,-8,-1,-1,-3,-1,-2
1558441380269581,-3,-10,9,3,4,2,5,0
1558441380269581,-1,-3,-16,-7,-3,-6,-1,0
1558441380277677,4,6,2,1,0,-1,0,-1
1558441380277677,5,-3,0,0,-5,-7,-4,0
1558441380292567,-2,-4,-3,-1,-1,-1,-3,-3
1558441380292567,-16,-3,5,2,-2,3,-3,-5
1558441380293561,-2,-6,-12,-4,-2,2,0,-2
1558441380293561,3,4,5,-1,-3,-6,-3,0
1558441380306564,-2,2,-2,-1,4,5,3,3
1558441380306564,5,-2,-11,-5,-4,-4,-3,-2
1558441380322486,1,-1,2,-1,1,-1,1,1
1558441380322486,-10,-12,9,4,2,-2,1,0
1558441380330496,4,10,-3,-2,-3,-1,-1,0
1558441380330496,-6,-11,0,1,-2,4,-3,0
1558441380337476,3,0,-1,-4,-1,1,-2,-4
1558441380337476,-1,-4,-9,-4,-8,-6,-4,-5
1558441380353400,-1,2,8,3,7,-6,1,-1
1558441380353400,1,2,-10,-2,7,4,5,1
1558441380353400,5,8,9,3,0,1,0,0
1558441380353400,-10,-10,-4,-3,0,4,-1,-1
1558441380367396,-9,-1,-5,-6,-15,-16,-10,-6
1558441380367396,-3,-9,-6,-3,-3,6,-1,-3
1558441380382324,3,5,8,2,5,-2,2,2
1558441380382324,5,8,-1,-4,3,1,1,1
1558441380389305,4,-5,-2,1,-3,8,-2,-1
1558441380389305,1,2,23,5,-1,-5,-4,-1
1558441380398324,-13,-14,-22,-7,3,0,1,0
1558441380398324,3,5,-2,0,0,-4,1,-1
1558441380412434,1,2,-4,-3,-3,1,0,0
1558441380412434,1,-2,4,-1,-3,3,0,-1
1558441380421420,6,14,22,5,1,1,0,1
1558441380421420,-4,-7,-22,-10,-6,-6,-3,-1
1558441380435499,-2,-11,-4,-2,-2,-2,-1,-1
1558441380435499,-1,4,-1,1,-4,-3,-3,0
1558441380437381,-4,-3,8,-1,-4,1,-5,-3
1558441380437381,3,3,2,2,11,12,6,3
1558441380449353,2,5,-6,-3,2,-14,2,2
1558441380449353,3,-4,-7,-4,-1,0,0,-1
1558441380458326,0,2,4,4,-1,1,0,1
1558441380458326,1,1,6,-1,-8,-3,-11,-5
1558441380472306,-4,-6,-3,0,-3,-1,-5,-4
1558441380472306,1,6,-10,-3,-2,-6,0,0
1558441380498220,-7,-22,-12,-6,-4,-4,-3,-3
1558441380498220,-13,-9,-9,-5,-4,-5,-1,-6
1558441380498220,1,4,3,-2,0,0,3,1
1558441380498220,-3,-4,-2,-4,0,-3,-1,0
1558441380502459,-1,0,7,7,-3,-1,0,-1
1558441380502459,2,3,-3,-4,-1,-3,0,1
1558441380509207,-2,-12,-6,-2,1,1,-2,1
1558441380509207,1,2,1,0,-4,0,-5,-3
1558441380526143,1,2,-13,-3,5,8,2,0
1558441380526143,8,7,13,2,-2,-6,0,2
1558441380532269,2,5,5,1,-1,1,-1,-2
1558441380532269,-5,-7,-6,-6,-4,-2,-2,-3
1558441380549083,7,5,5,3,0,-5,-2,0
1558441380549083,1,-3,0,0,-3,3,-2,-1
1558441380550081,0,1,-9,-7,2,8,4,-1
1558441380550081,-7,-10,-11,-3,0,-3,-1,0
1558441380556064,-1,2,16,3,2,0,-3,-1
1558441380556064,6,6,-10,-3,3,6,4,1
1558441380569060,-6,-5,5,3,-3,-6,-2,-3
1558441380569060,4,4,1,-4,-3,0,-2,-2
1558441380578006,-1,3,-4,-1,0,-2,1,-1
1558441380578006,-4,-7,7,4,0,-1,0,-3
1558441380592176,3,6,7,1,0,2,-2,0
1558441380592176,-7,-4,-7,-5,-4,-2,-3,-2
1558441380600944,-1,-2,-6,-6,-2,-7,1,-1
1558441380600944,4,4,0,2,1,-5,-1,2
1558441380606926,-8,-9,-24,-12,-4,3,-3,-4
1558441380606926,1,-1,7,4,-3,4,0,-3
1558441380615902,1,1,2,0,-4,2,0,-1
1558441380615902,-1,0,-5,-2,1,-8,3,2
1558441380637844,-2,0,11,5,1,-7,-2,1
1558441380637844,-3,0,2,3,5,-2,1,2
1558441380639845,-3,-5,1,0,0,2,-2,-2
1558441380639845,1,1,-12,-5,0,7,-2,-1
1558441380660785,3,2,-1,-2,-6,-2,-5,-2
1558441380660785,0,1,3,-1,1,-2,1,1
1558441380662780,-3,-5,-4,0,-5,-5,-3,0
1558441380662780,2,7,21,9,7,5,2,2
1558441380666767,-2,8,0,-3,3,3,-1,-2
1558441380666767,-5,-16,-12,-4,1,-2,1,1
1558441380675743,-2,1,-8,-4,-4,-4,0,-1
1558441380675743,-3,-4,-1,-1,-11,-10,-7,-5
1558441380689707,2,3,0,-1,-2,3,0,2
1558441380689707,2,5,24,9,4,1,1,0
1558441380698681,1,3,-8,-4,-1,2,-2,-1
1558441380698681,-12,-16,-22,-9,-7,1,-5,-3
1558441380712647,-3,-6,2,1,-2,-5,1,0
1558441380712647,-4,5,6,5,5,0,-2,1
1558441380720680,-2,-4,-12,-9,0,0,0,0
1558441380720680,1,1,-4,-4,-3,1,-3,-2
1558441380726612,-2,-2,1,0,-3,-4,2,-2
1558441380726612,4,3,-5,-5,-5,2,-1,-1
1558441380735582,-3,3,20,6,-1,-2,-1,-1
1558441380735582,-2,-4,-13,-3,2,-4,1,-2
1558441380749548,-2,-12,-11,-3,3,-1,2,-1
1558441380749548,-3,3,6,-1,1,1,0,1
1558441380758521,0,-2,-16,-6,-2,-1,-2,-2
1558441380758521,-1,0,13,1,-8,-4,-6,-3
1558441380772485,1,3,2,1,-3,-6,-1,-1
1558441380772485,3,9,-3,2,2,-1,-2,-2
1558441380780463,-1,-4,6,2,2,-1,1,0
1558441380780463,1,5,-3,-3,-3,-8,-5,-1
1558441380803578,-7,-14,-8,-2,-4,6,-5,-3
1558441380803578,3,5,-3,-4,-2,3,2,-2
1558441380804399,3,0,2,1,6,-2,2,2
1558441380804399,-10,-7,3,4,4,6,6,1
1558441380809418,0,5,2,-3,-2,-1,-3,0
1558441380809418,-1,1,-2,-3,-9,-7,-1,-1
1558441380825343,1,1,11,4,5,-3,3,0
1558441380825343,2,-1,-12,-7,-5,-2,0,-2
1558441380832326,3,4,3,1,0,-1,4,1
1558441380832326,-8,-15,-8,-1,-3,-5,-7,-5
1558441380841301,0,0,-10,-6,-8,-3,-1,-3
1558441380841301,6,7,18,10,14,4,8,6
1558441380847286,-1,4,4,0,1,0,-1,1
1558441380847286,3,3,-2,1,1,2,-4,-1
1558441380856265,-5,-2,-3,-4,-11,-5,-10,-4
1558441380856265,-3,-3,-4,-5,-6,-12,-6,-5
1558441380869225,-1,-7,-2,3,10,16,7,2
1558441380869225,4,8,3,0,1,-3,3,2
1558441380878203,-1,1,-1,1,2,6,-2,0
1558441380878203,-1,5,21,3,-2,0,-1,-3
1558441380892301,-2,-9,-22,-9,-7,-8,-6,-4
1558441380892301,-3,-6,1,0,0,0,-1,-4
1558441380901141,3,6,0,-3,-3,-1,0,0
1558441380901141,4,5,-9,-4,2,7,1,2
1558441380916213,-7,-5,5,5,2,2,3,0
1558441380916213,3,-2,4,2,-1,-1,1,0
1558441380917100,-1,-2,-3,-3,-4,-15,-2,-2
1558441380917100,0,4,8,2,3,5,3,0
1558441380938069,-2,3,6,2,-3,-7,-3,-2
1558441380938069,-3,-8,-15,-7,-4,4,-2,-3
1558441380940048,-1,-3,-1,-1,2,8,-1,0
1558441380940048,0,0,-3,-3,-8,-14,-11,-1
1558441380952189,6,7,20,6,0,0,-4,1
1558441380952189,-19,-32,-36,-11,8,1,3,-1
1558441380967024,3,4,-3,0,-2,-3,1,1
1558441380967024,-4,-5,-8,-4,3,7,2,-2
1558441380975940,-5,-7,3,-2,-6,-4,-6,-4
1558441380975940,0,0,5,0,-7,-8,-3,-1
1558441380976940,-2,-5,-3,-1,1,-1,0,0
1558441380976940,3,-2,-13,-3,-6,-8,-1,-3
1558441380989903,2,4,-2,-2,-3,-4,-4,-2
1558441380989903,-2,2,6,2,-3,6,-1,-2
1558441380998879,-5,-2,-2,4,8,2,-1,0
1558441380998879,4,2,9,-2,4,-4,4,2
1558441381021825,-2,-4,-18,-7,1,-8,1,0
1558441381021825,5,7,2,-3,-4,-3,-3,-4
1558441381022814,0,3,3,2,-3,3,-3,-2
1558441381022814,-8,-20,5,3,0,3,-1,0
1558441381035825,4,1,-17,-8,-3,5,0,0
1558441381035825,2,3,6,0,-7,-10,-5,1
1558441381036796,6,10,-3,-5,-4,0,-1,-1
1558441381036796,0,-3,-8,-3,3,6,2,0
1558441381049742,-7,-4,11,6,6,-5,2,-1
1558441381049742,2,4,-14,-6,0,1,2,0
1558441381058719,-4,-8,-7,-1,-3,-2,-2,-1
1558441381058719,0,3,1,2,-3,6,-2,-3
1558441381080789,1,2,-7,-8,-7,-1,-6,-3
1558441381080789,-4,0,4,-1,0,-6,3,0
1558441381082654,-2,-5,3,0,1,2,-1,-3
1558441381082654,-2,1,-2,-1,-2,0,-1,-2
1558441381103600,4,9,11,6,0,-5,0,1
1558441381103600,3,5,6,0,0,-1,-3,-2
1558441381104596,-5,-6,-4,0,2,8,6,-1
1558441381104596,0,-4,14,5,3,-4,0,-1
1558441381109582,-6,-11,-23,-9,-4,-3,-5,-3
1558441381109582,3,-1,-1,-2,0,6,-1,2
1558441381118559,-1,2,9,2,-4,-9,-5,-2
1558441381118559,-2,-2,-6,-5,-8,-5,-4,-1
1558441381131526,2,5,10,4,1,1,0,1
1558441381131526,5,1,-2,0,3,7,1,0
1558441381140500,-4,-7,-2,-3,3,1,-2,-4
1558441381140500,1,5,-11,-3,-5,-2,-1,-1
1558441381155476,-1,-3,0,-3,-3,0,-2,-2
1558441381155476,0,0,2,3,0,-6,-3,0
1558441381161447,-1,1,0,-1,-2,-4,3,0
1558441381161447,0,5,6,1,6,14,1,0
1558441381169422,4,0,-1,1,4,-5,2,3
1558441381169422,0,2,-3,2,7,10,5,1
1558441381192375,-5,-9,-1,-1,0,-7,0,-1
1558441381192375,-4,-4,-4,-1,-2,-3,-5,-2
1558441381193359,-1,2,7,3,1,9,-2,-4
1558441381193359,-1,-2,-5,-6,-5,-1,-3,-2
1558441381208318,0,4,-3,-2,-3,0,-3,1
1558441381208318,2,1,-6,-2,-2,-3,0,-2
1558441381215302,-10,-18,3,-1,-1,-1,-2,-3
1558441381215302,-3,3,10,6,0,-1,-1,-3
1558441381217295,-2,-2,-8,-9,-7,-1,-5,-3
1558441381217295,-2,-10,-7,-4,-1,-15,-4,-1
1558441381246217,0,-1,-9,-3,5,4,4,4
1558441381246217,-3,-2,1,1,1,1,2,1
1558441381247214,2,5,4,1,-1,-1,-1,1
1558441381247214,2,-2,15,5,2,8,0,-1
1558441381252200,0,-4,-13,-9,-10,-5,-5,-3
1558441381252200,-1,-3,1,-2,-2,-11,-4,-1
1558441381261177,3,8,17,6,6,-2,2,1
1558441381261177,-4,-10,-33,-13,-4,-8,-4,-2
1558441381276139,-1,-2,0,0,0,9,1,-2
1558441381276139,1,1,2,-3,-6,0,-2,1
1558441381277136,2,-3,1,3,2,7,1,-1
1558441381277136,-1,5,9,3,0,1,-1,3
1558441381289108,0,5,3,0,-9,-10,-5,-4
1558441381289108,-3,-1,-6,-6,-6,-7,-5,-3
1558441381298077,0,-5,-8,-2,4,7,1,1
1558441381298077,2,-2,4,3,2,-4,4,2
1558441381312045,4,6,5,1,1,-4,1,1
1558441381312045,-8,-4,3,-1,-3,-5,-3,-5
1558441381321018,0,-4,-12,-6,-6,0,-3,-2
1558441381321018,-13,-13,-2,-3,-3,0,-1,-2
1558441381335978,0,3,5,1,4,5,-2,0
1558441381335978,0,2,-1,-1,-1,0,1,-1
1558441381336974,-3,-11,-5,-2,-4,-4,3,-1
1558441381336974,5,9,10,6,2,-4,-3,0
1558441381357931,2,-1,5,3,1,-4,-2,3
1558441381357931,-2,-2,-16,-4,0,2,1,2
1558441381359915,-9,-13,-21,-11,-6,-1,-3,-3
1558441381359915,-3,2,-3,-3,-9,-5,-7,-4
1558441381371880,-3,-1,2,1,1,2,-1,-2
1558441381371880,2,0,6,3,3,4,1,-1
1558441381380858,1,3,8,3,-2,0,-2,1
1558441381380858,2,2,2,-1,-4,2,-3,-2
1558441381395818,1,4,3,0,7,12,6,2
1558441381395818,-10,-2,0,1,1,-11,4,1
1558441381397813,0,-3,-3,-1,2,-4,-3,-1
1558441381397813,-2,-1,1,0,1,1,2,-1
1558441381409786,-2,-3,-6,-6,-9,-8,-6,-5
1558441381409786,-3,-8,0,-1,0,-3,-5,-3
1558441381418756,1,2,-6,-1,1,6,1,0
1558441381418756,4,7,2,1,2,1,3,2
1558441381431722,0,1,-1,-1,-1,-4,0,-1
1558441381431722,1,1,3,-1,-4,1,-2,-2
1558441381440697,-5,-2,-1,-2,-2,-5,-4,-1
1558441381440697,5,1,0,-2,-4,4,-2,-2
1558441381471614,-9,-4,-2,-1,-8,0,-5,-4
1558441381471614,6,4,11,4,-6,-8,-5,0
1558441381472611,-2,0,-5,-4,8,4,11,3
1558441381472611,3,1,-23,-4,11,4,11,3
1558441381473610,-4,-10,-8,-5,-4,4,0,2
1558441381473610,-4,-7,-3,-1,-1,5,-3,-2
1558441381478595,2,3,8,2,-5,-12,-8,-4
1558441381478595,0,0,3,-3,-6,-3,-6,-2
1558441381492558,-12,-17,-5,-3,3,-5,1,1
1558441381492558,0,3,-2,-4,-7,-5,-5,-4
1558441381500543,-2,-1,0,-1,-3,0,-2,-2
1558441381500543,1,8,9,1,1,6,1,1
1558441381523484,7,9,2,1,5,-2,2,1
1558441381523484,-1,-6,17,11,13,-3,8,5
1558441381524477,-4,-11,-15,-5,-3,1,-5,-3
1558441381524477,-2,-2,-4,-3,-8,-5,-7,-4
1558441381529461,3,3,-2,-5,-12,-7,-6,-4
1558441381529461,-2,1,7,3,5,12,3,2
1558441381545421,1,1,-3,-3,0,4,5,1
1558441381545421,-3,-4,9,0,-4,-4,-7,-3
1558441381552399,3,8,2,-1,-5,-4,-5,0
1558441381552399,-17,-22,-15,-5,2,0,-1,-5
1558441381561382,3,6,5,-3,-1,-5,-3,-2
1558441381561382,-6,-12,-15,-4,-8,-7,-4,-2
1558441381575344,2,4,5,5,12,7,7,1
1558441381575344,5,7,-2,-3,0,1,1,-1
1558441381582322,-3,-5,-2,-1,-7,-4,-4,-2
1558441381582322,-1,-2,5,1,1,1,-1,-1
1558441381606254,0,2,8,3,4,6,2,-3
1558441381606254,3,3,-6,-2,-4,-10,-4,0
1558441381607252,0,-5,-5,-1,5,5,1,-2
1558441381607252,-1,0,-5,-1,-1,3,0,-1
1558441381612238,1,-4,-7,1,2,8,2,1
1558441381612238,-5,-8,-8,-7,-6,4,-6,-3
1558441381621214,-1,5,8,3,-5,-10,0,1
1558441381621214,0,1,6,-1,1,-2,-1,1
1558441381635177,4,2,-1,0,-4,-8,-6,-2
1558441381635177,-4,-2,-2,-2,2,-4,4,0
1558441381642161,-1,3,6,3,0,-1,-3,-1
1558441381642161,2,3,5,-2,1,8,6,-2
1558441381657118,-10,-11,-10,-4,-5,-2,-3,-3
1558441381657118,5,1,-3,-1,0,-3,3,2
1558441381666093,-3,0,0,-2,3,3,3,2
1558441381666093,3,11,12,6,6,5,1,0
1558441381672083,1,-5,-7,-8,-5,0,-5,0
1558441381672083,-1,-6,-7,-3,-8,0,-6,-3
1558441381681054,-10,-4,2,0,1,-4,-2,-4
1558441381681054,3,2,1,1,3,-1,1,0
1558441381695022,-5,-6,-6,-4,-5,-6,-3,-3
1558441381695022,0,1,3,1,1,9,7,1
1558441381719012,6,3,3,-1,0,1,1,0
1558441381719012,-6,2,6,2,1,-8,1,3
1558441381719950,0,4,-10,0,1,-1,1,1
1558441381719950,-4,-8,-14,-8,-5,-6,-3,-1
1558441381720947,1,2,-3,-1,-3,3,-3,-2
1558441381720947,-7,-10,0,-2,-5,-3,-4,-2
1558441381731920,4,4,6,3,4,2,1,-1
1558441381731920,-2,3,1,2,1,5,3,0
1558441381747875,1,-2,0,2,5,5,1,1
1558441381747875,-4,-7,-9,-2,-1,-11,-6,-4
1558441381754859,-1,0,1,-2,-6,-6,-6,-2
1558441381754859,3,2,1,-3,-4,-2,-4,-5
1558441381769818,1,8,18,6,1,3,3,1
1558441381769818,3,3,-2,-5,0,-4,1,0
1558441381770816,-2,-11,-21,-11,-6,-1,-5,-2
1558441381770816,-4,1,-1,-2,-1,-1,-3,-4
1558441381778793,-14,-20,-18,-7,-6,1,-3,-4
1558441381778793,1,3,-1,-2,1,-3,-1,-1
1558441381791761,-2,-1,17,7,0,-1,6,2
1558441381791761,10,11,-1,0,0,-2,-1,4
1558441381800736,1,1,4,2,3,3,3,2
1558441381800736,-2,-2,3,4,1,4,1,1
