timestamp,emg1,emg2,emg3,emg4,emg5,emg6,emg7,emg8
1558441448386084,3,8,5,0,5,9,2,3
1558441448386084,0,-5,1,1,-1,1,-2,-3
1558441448387081,-13,-14,-6,-4,-5,-3,0,-4
1558441448387081,-2,1,0,-2,-2,-5,-4,-2
1558441448392068,0,-2,0,1,-2,-5,-3,-3
1558441448392068,2,6,-3,-1,6,11,5,0
1558441448395060,2,1,11,0,4,4,1,1
1558441448395060,-4,-4,-4,-3,-2,6,-1,-5
1558441448397054,-3,-5,-15,-9,-10,-10,0,-3
1558441448397054,1,3,7,2,0,-5,-4,1
1558441448409022,2,-3,-15,-5,-6,-2,-2,-3
1558441448409022,-2,0,5,3,-1,-2,-2,-1
1558441448420991,3,3,4,3,8,5,1,0
1558441448420991,-2,0,2,-4,-3,-6,-6,-2
1558441448428969,-3,-5,-3,1,1,0,0,-2
1558441448428969,0,0,2,-1,3,9,2,-3
1558441448435951,-2,-5,-5,-2,-6,-11,-3,-3
1558441448435951,-3,-1,-5,-3,-3,-3,-2,-1
1558441448453903,3,9,4,1,-2,-3,-5,0
1558441448453903,0,-5,-3,-3,-10,-4,-2,-1
1558441448457892,-4,2,2,1,6,10,3,-1
1558441448457892,-3,-6,0,2,5,0,1,2
1558441448503769,3,2,-1,-1,0,1,-2,-3
1558441448503769,-4,-5,-2,0,-2,0,-5,0
1558441448504766,1,6,1,-3,-4,1,-1,-1
1558441448504766,4,2,13,5,1,0,3,2
1558441448505763,-6,-8,-13,-5,-4,-6,0,-1
1558441448505763,2,0,3,2,-1,-2,0,-2
1558441448506761,-2,-4,0,-6,-4,-6,-5,-4
1558441448506761,-3,1,-12,-4,-1,7,0,-2
1558441448516734,3,-2,7,5,0,0,-1,1
1558441448516734,1,3,4,0,0,0,3,1
1558441448525710,1,3,-8,-1,1,-4,1,0
1558441448525710,-2,-2,0,0,-5,-5,-8,-4
1558441448531694,0,-8,1,-3,-3,-2,2,0
1558441448531694,-6,-3,-7,-2,4,7,6,1
1558441448547651,3,2,12,5,3,-9,0,3
1558441448547651,-2,-6,-11,-3,0,-2,-2,-2
1558441448554634,-1,1,1,-1,-2,6,-2,-4
1558441448554634,2,0,-3,-2,-7,-8,-8,-2
1558441448562611,-1,0,0,1,4,11,7,1
1558441448562611,0,0,2,-2,-2,-8,-2,-1
1558441448585552,-2,2,4,2,4,-1,-3,1
1558441448585552,1,4,-1,0,0,1,6,0
1558441448586548,3,-2,-1,0,-1,-2,-7,-1
1558441448586548,-11,-14,-1,-1,-7,-4,-7,-4
1558441448592532,0,4,-5,0,-5,-3,-5,-5
1558441448592532,-4,-7,-8,-6,-6,-5,-9,-4
1558441448607492,-2,-2,-9,-2,1,3,3,2
1558441448607492,1,4,5,-1,2,2,0,-1
1558441448614473,2,5,4,1,3,1,4,1
1558441448614473,2,5,8,1,-2,3,2,1
1558441448622451,-5,-13,-8,-5,0,1,-3,-4
1558441448622451,0,-3,3,0,-1,2,0,-1
1558441448637411,2,7,-2,0,1,-1,-2,-1
1558441448637411,-4,-8,-1,-5,0,-3,-2,-2
1558441448645389,-3,-2,-11,-8,-5,3,-4,-4
1558441448645389,0,-5,-5,-5,-8,-13,-3,-2
1558441448652371,-1,3,5,0,5,3,8,3
1558441448652371,0,-1,9,4,9,1,8,3
1558441448668329,2,4,3,1,-3,-1,-5,0
1558441448668329,-4,-4,-2,-3,0,4,-7,-1
1558441448674313,0,-3,2,1,-10,-11,-3,-2
1558441448674313,1,0,-8,-4,-3,-4,-5,0
1558441448682291,1,3,-1,2,-2,-4,3,0
1558441448682291,-3,2,-2,-1,6,12,3,-3
1558441448697251,-4,-14,-6,-3,-4,1,-4,-3
1558441448697251,-1,4,6,3,0,6,2,-1
1558441448705230,3,1,2,-3,1,-4,-3,-2
1558441448705230,3,7,-4,-1,3,-3,4,1
1558441448712212,-2,-7,-8,-3,3,1,-4,1
1558441448712212,-3,-6,-7,-1,1,8,-2,-3
1558441448736147,-2,3,8,3,-2,-6,-2,-1
1558441448736147,3,6,-1,1,1,5,2,2
1558441448737144,-7,-10,0,-5,-4,-6,-3,-4
1558441448737144,3,3,3,-1,1,-9,-11,-1
1558441448742132,-6,-9,-8,-5,-5,-4,0,-1
1558441448742132,3,7,7,4,7,8,3,2
1558441448757093,1,4,-6,-3,2,12,5,2
1558441448757093,1,-4,3,-1,-7,-8,-5,-3
1558441448765070,0,-3,-1,1,-2,-3,2,-2
1558441448765070,0,-2,1,0,-1,-5,-5,1
1558441448780029,-6,-3,-6,-5,-6,-2,-6,-2
1558441448780029,-1,2,-3,0,4,5,4,-2
1558441448795987,2,5,5,0,0,-8,0,-1
1558441448795987,6,4,-2,-4,-8,-11,-3,-1
1558441448796984,-9,-13,-3,-2,-5,-5,-2,0
1558441448796984,0,2,1,2,3,-4,1,1
1558441448801972,-12,-11,-4,-5,-3,3,-1,0
1558441448801972,6,1,7,5,3,8,1,0
1558441448816931,2,6,-8,-7,-2,-7,-5,0
1558441448816931,-4,-5,-7,-4,-7,-1,-4,-5
1558441448833886,-1,1,7,4,1,-2,0,-2
1558441448833886,-3,1,-2,-1,-3,-8,0,-2
1558441448834883,2,5,15,9,7,7,2,2
1558441448834883,-5,-8,-16,-7,1,1,5,0
1558441448847848,-2,-5,-9,-5,-4,-2,-7,-4
1558441448847848,-2,2,-1,-2,1,-5,1,1
1558441448854829,4,5,5,0,-2,-5,-1,-2
1558441448854829,-4,-4,5,1,-3,2,-5,-1
1558441448861811,-2,-4,-1,0,-4,3,-7,-2
1558441448861811,-3,-8,-3,-2,-3,-7,1,-1
1558441448878766,1,3,6,0,1,-5,-1,1
1558441448878766,-3,-2,-12,-3,1,-1,-1,1
1558441448893727,-3,-1,-2,-2,-1,7,2,-2
1558441448893727,-1,5,1,-1,-4,2,-4,-3
1558441448894724,-1,-10,-4,0,2,-3,1,1
1558441448894724,2,3,1,-3,-2,-6,-2,0
1558441448907689,-1,2,-3,0,4,4,4,2
1558441448907689,4,3,9,2,1,0,1,0
1558441448914670,-14,-6,-2,-1,-5,2,-2,-5
1558441448914670,0,-3,-8,-4,-4,-15,-7,-2
1558441448921654,3,3,3,3,9,18,9,5
1558441448921654,1,-3,-3,-2,-3,-15,-1,1
1558441448937608,3,4,-3,-3,0,3,4,2
1558441448937608,2,-1,11,4,-3,1,-1,-3
1558441448945588,1,3,5,2,-3,0,-3,-4
1558441448945588,-1,-8,-18,-7,-8,-13,-9,-3
1558441448952570,-3,-7,-11,-2,2,7,3,-1
1558441448952570,-3,3,6,2,-3,-3,-2,-1
1558441448967528,1,-5,2,0,0,0,-2,-1
1558441448967528,-1,5,9,5,8,17,8,2
1558441448974510,6,8,0,-1,-3,-9,-4,-2
1558441448974510,-3,-3,-6,-6,-4,1,-3,-2
1558441448982489,-1,-3,-3,1,-1,-5,-3,2
1558441448982489,-3,-6,-4,-3,0,0,3,-1
1558441448997448,1,7,3,2,2,3,-2,0
1558441448997448,-3,-9,-3,-2,3,8,2,-1
1558441449005429,-5,-7,-4,-5,-7,-5,-4,-4
1558441449005429,1,-2,4,-1,-8,-16,-5,-1
1558441449012409,4,5,9,1,1,0,-1,0
1558441449012409,0,8,-12,-4,0,7,5,2
1558441449027368,-5,-11,-12,-4,-6,-7,-4,-3
1558441449027368,-2,-2,4,-1,-2,5,-1,0
1558441449034349,1,-5,-13,-5,0,-4,-5,-2
1558441449034349,0,2,3,0,2,-4,0,1
1558441449042328,2,10,3,2,4,6,3,1
1558441449042328,-6,-7,-5,-5,-10,-8,-9,-5
1558441449057288,-2,0,4,1,7,10,6,2
1558441449057288,2,4,1,1,2,-3,3,2
1558441449073245,-2,-6,-1,-1,-1,-4,-2,-1
1558441449073245,-3,-1,-3,-2,-3,0,2,1
1558441449075240,-2,-4,-5,-3,-7,0,-7,-4
1558441449075240,-1,-2,1,0,1,3,-1,-2
1558441449088206,0,4,1,-1,-5,-10,1,-1
1558441449088206,0,-3,-1,0,6,6,3,2
1558441449094190,2,6,5,1,-3,-5,-3,-1
1558441449094190,-7,-10,-6,-5,-4,4,0,-2
1558441449110148,-4,-6,-10,-6,-3,-4,-6,-2
1558441449110148,-3,-3,-1,0,3,-1,1,-1
1558441449117129,-2,-3,-1,-4,-6,-8,-7,0
1558441449117129,6,8,11,5,3,-1,2,0
1558441449125119,5,9,11,4,-2,-7,-5,-2
1558441449125119,-17,-15,-9,-7,-3,0,-2,-6
1558441449132092,0,-3,-4,0,4,8,9,3
1558441449132092,0,-2,-3,-5,-8,-12,-8,-1
1558441449148045,6,0,0,1,5,5,1,0
1558441449148045,-2,3,2,1,-3,1,-4,-4
1558441449155027,0,2,1,-1,-4,-5,-4,-1
1558441449155027,-3,-3,1,-3,-5,-4,-8,-3
1558441449169987,3,1,3,2,-4,-7,-2,1
1558441449169987,7,5,0,-1,5,13,3,2
1558441449176967,-2,-6,-14,-6,6,6,7,2
1558441449176967,-2,-5,2,4,3,-10,2,3
1558441449184950,-1,5,0,-6,-5,-2,-7,-4
1558441449184950,-3,-9,-10,-4,-10,-6,-9,-5
1558441449199907,-3,0,4,1,4,9,4,1
1558441449199907,1,5,4,0,-2,-3,-1,-1
1558441449207886,-3,-5,7,1,0,-3,2,1
1558441449207886,-1,3,0,3,-6,3,-6,-2
1558441449214866,-1,-8,-16,-10,-3,-4,0,-1
1558441449214866,1,4,3,2,-2,-3,-2,1
1558441449230824,-4,-8,-2,-2,-1,1,1,-1
1558441449230824,-1,-1,-7,-2,-1,0,0,-1
1558441449236808,1,0,5,2,2,0,-4,-3
1558441449236808,0,-3,-3,-3,-5,1,-2,-4
1558441449245785,-2,1,-3,-2,0,2,1,-4
1558441449245785,2,4,4,1,4,4,7,4
1558441449253763,0,-3,5,4,-2,-9,0,-2
1558441449253763,-3,1,-1,1,5,-1,1,0
1558441449267726,-3,1,-5,-4,-1,-1,0,-1
1558441449267726,0,-4,-1,0,1,1,0,0
1558441449274708,-4,-6,-10,-4,-9,-7,-13,-4
1558441449274708,-2,-5,2,-2,-5,1,-3,-5
1558441449290664,2,5,14,9,10,12,6,1
1558441449290664,0,-2,-21,-7,-1,-3,-2,-3
1558441449297645,0,0,-1,-4,-1,-7,1,1
1558441449297645,-2,-1,-6,-2,-1,0,0,-1
1558441449305624,-7,-6,-6,-3,-5,-5,-7,-4
1558441449305624,4,-2,11,2,0,3,-1,1
1558441449312605,-1,3,9,4,0,-2,-2,-2
1558441449312605,-3,1,-7,-3,2,1,4,1
1558441449328562,4,2,0,1,3,-3,1,2
1558441449328562,2,4,14,3,1,2,5,2
1558441449335544,-4,-5,-15,-8,-10,-7,-10,-4
1558441449335544,0,0,4,1,5,9,0,0
1558441449350505,-8,-11,-11,-7,-8,0,-5,-7
1558441449350505,-2,0,2,0,-5,-14,1,0
1558441449357487,2,3,7,2,5,-3,10,3
1558441449357487,0,-3,2,3,5,4,-5,-2
1558441449365464,3,4,-2,-2,0,1,0,1
1558441449365464,-3,-3,-5,-1,-2,-4,-3,0
1558441449379426,-2,3,6,1,-7,-4,-3,-3
1558441449379426,-1,-1,-11,-2,0,7,0,2
1558441449387405,-1,-3,-5,-2,-1,-10,2,-1
1558441449387405,0,2,4,0,4,5,5,0
1558441449394387,-4,-6,-6,-4,-6,-4,-5,-3
1558441449394387,2,6,4,-1,-2,1,-1,-1
1558441449410343,0,0,9,4,3,6,-1,1
1558441449410343,1,-1,-8,0,7,-2,0,-1
1558441449417326,2,5,15,6,2,3,3,-1
1558441449417326,-5,-11,-24,-12,-9,-6,-5,-4
1558441449425304,-4,-6,-14,-8,-7,-4,-8,-4
1558441449425304,2,1,5,2,1,4,3,1
1558441449448242,-1,-1,3,4,5,-1,2,1
1558441449448242,3,4,8,1,-1,-10,-8,-2
1558441449449240,3,5,3,3,-3,1,7,4
1558441449449240,3,1,-5,-6,-2,-1,-6,-1
1558441449454226,-5,1,1,-1,-5,-7,-5,-4
1558441449454226,-8,-14,5,2,-3,-4,0,0
1558441449470183,3,5,-11,-3,6,5,0,-1
1558441449470183,-1,-4,1,0,-9,-6,-3,-3
1558441449477165,-3,-6,-10,-6,-2,7,-5,-2
1558441449477165,1,5,13,4,0,-1,5,1
1558441449493123,1,-3,-2,-2,5,2,10,3
1558441449493123,-2,4,7,3,3,-6,1,0
1558441449499106,1,-3,-20,-10,-7,-6,-3,-2
1558441449499106,-1,-2,-2,-1,-5,-2,-5,-2
1558441449516060,-1,2,2,1,-2,2,-2,-1
1558441449516060,-4,0,1,-1,-2,-2,-3,-1
1558441449517057,1,0,3,2,5,-1,-2,0
1558441449517057,1,2,1,1,3,5,3,-1
1558441449530024,0,4,11,4,3,-2,2,2
1558441449530024,-1,-4,-24,-9,-5,0,-3,-5
1558441449537009,-4,-8,0,-2,-5,0,-4,-3
1558441449537009,0,-3,-5,-3,-4,-3,-2,-3
1558441449552961,-1,-3,9,2,-2,-1,-2,-1
1558441449552961,-4,-7,-10,-7,-4,1,-2,-2
1558441449559943,6,9,1,1,7,-2,4,5
1558441449559943,5,9,2,0,1,4,5,2
1558441449575901,-7,-5,-1,-2,-6,-7,-6,-5
1558441449575901,2,2,13,5,6,7,-1,1
1558441449577895,4,1,-12,-7,1,-10,5,1
1558441449577895,-4,-2,-4,-2,-3,-3,-3,0
1558441449589863,-2,-5,-6,-3,-7,-9,-10,-4
1558441449589863,-3,-4,-4,-4,-7,5,-4,-2
1558441449596845,3,7,22,11,8,15,5,3
1558441449596845,-2,-1,-11,-6,0,-2,-2,-3
1558441449612802,-4,-10,-12,-5,-1,-1,1,-1
1558441449612802,1,4,8,2,0,-3,-1,-1
1558441449620782,-4,-5,-4,-1,-8,-7,-6,-5
1558441449620782,0,-2,5,0,2,3,2,0
1558441449635742,-1,1,-7,-4,-2,0,0,-2
1558441449635742,-2,-5,-3,-3,-1,-1,5,0
1558441449637735,1,6,7,2,0,2,1,0
1558441449637735,-1,4,-5,-1,2,1,-1,2
1558441449658679,0,-2,1,-5,-9,-9,-4,-1
1558441449658679,-9,-10,-10,-5,-4,-10,-4,-1
1558441449659676,0,-6,-6,-1,0,6,-3,-3
1558441449659676,-2,-4,3,1,-1,8,0,-2
1558441449673639,8,9,12,5,7,-7,3,2
1558441449673639,-7,-7,-20,-8,-6,-6,-7,-2
1558441449679623,-2,0,0,0,0,4,4,0
1558441449679623,2,6,0,-3,1,5,3,1
1558441449695579,-7,-15,-4,1,-2,5,-6,-3
1558441449695579,0,-1,5,1,-1,-6,6,-1
1558441449695579,-1,-4,-4,-3,-2,-7,-6,-1
1558441449695579,-4,2,-1,-3,-9,-7,-5,-3
1558441449710569,1,2,0,0,8,13,7,2
1558441449710569,3,5,11,5,8,-4,-2,2
1558441449717522,-6,-4,-15,-9,-1,1,1,1
1558441449717522,4,-3,6,4,-2,-10,1,-2
1558441449732509,-6,1,-14,-8,-11,-7,-10,-4
1558441449732509,-1,-8,-7,-5,-6,-3,-2,-3
1558441449739463,0,-2,1,-1,2,6,-1,-2
1558441449739463,0,-1,0,1,5,-5,3,1
1558441449755420,-2,2,8,4,2,6,2,-2
1558441449755420,3,8,-2,-1,-1,4,3,0
1558441449756418,5,8,2,-1,-5,-3,-7,-3
1558441449756418,-12,-21,-11,-5,-6,-7,2,-3
1558441449771378,0,-3,-4,-1,5,5,4,1
1558441449771378,1,-1,1,1,3,3,-4,-1
1558441449777363,-3,0,3,2,-1,3,-1,-2
1558441449777363,5,4,2,-2,-8,-8,-7,-2
1558441449792322,1,3,2,-1,0,-1,-3,-3
1558441449792322,-1,4,10,7,10,4,2,3
1558441449799303,2,3,8,-4,-3,-1,-1,2
1558441449799303,-5,-9,-16,-5,-1,-8,-4,-1
1558441449815261,-1,-5,-9,-6,-10,-8,-5,-1
1558441449815261,-1,2,-1,-2,-3,3,0,-1
1558441449816259,-3,-7,4,0,-2,-3,-5,-4
1558441449816259,-6,-6,4,2,0,7,-3,-2
1558441449831218,1,2,1,-2,-4,-18,4,2
1558441449831218,-1,-2,-5,0,2,-3,-1,-2
1558441449837201,-3,2,0,2,0,4,4,2
1558441449837201,1,3,1,0,1,3,-4,-2
1558441449852163,-2,-6,-9,-4,-4,-2,-7,-4
1558441449852163,2,0,2,0,0,1,1,1
1558441449859143,0,4,0,2,-6,-11,-1,0
1558441449859143,-5,-8,-8,-7,-4,1,-7,-4
1558441449875105,3,5,6,2,6,19,7,2
1558441449875105,-9,-5,-2,1,0,1,2,0
1558441449876100,-4,-8,2,1,6,-11,6,1
1558441449876100,4,9,5,-1,2,-1,2,0
1558441449891064,-3,2,-16,-7,-6,-6,-7,-5
1558441449891064,-3,-7,-1,-6,-8,5,-5,-5
1558441449897055,0,-1,-3,1,-2,3,-6,-4
1558441449897055,1,6,10,4,-1,-1,6,2
1558441449912068,1,-2,5,1,3,-10,-4,3
1558441449912068,3,1,0,-5,-2,-5,6,0
1558441449920043,-3,-7,-8,-2,1,5,-4,-2
1558441449920043,3,3,5,-1,3,1,-3,0
1558441449934944,0,5,0,0,-1,9,0,-2
1558441449934944,0,-8,-1,-1,-7,-9,-7,-4
1558441449935944,1,-2,0,-1,1,6,3,0
1558441449935944,-1,-2,1,1,-5,-3,-2,-4
1558441449950900,-4,-1,3,2,4,5,4,0
1558441449950900,5,7,-1,2,10,-4,8,6
1558441449956882,-7,-12,-13,-4,-2,-5,0,-3
1558441449956882,-1,2,-11,-4,1,3,0,1
1558441449971876,-3,-4,3,2,-4,-2,-5,-2
1558441449971876,-4,-5,0,-1,-4,4,-9,-6
1558441449979819,4,3,1,-2,-7,0,-1,-2
1558441449979819,-5,-3,-2,1,0,-7,1,0
1558441449994780,0,3,0,-1,7,0,5,1
1558441449994780,3,4,8,2,-2,-4,-5,0
1558441449995777,2,-3,-12,-6,-3,2,0,-2
1558441449995777,-2,1,5,0,-3,3,2,0
1558441450010776,-1,-1,-12,-6,-2,3,2,0
1558441450010776,-4,-4,-1,-3,-3,2,-2,-4
1558441450016721,-3,-6,5,2,-7,-8,-8,-6
1558441450016721,1,0,-7,-2,8,1,6,3
1558441450031681,1,1,3,0,0,-9,0,3
1558441450031681,1,4,4,2,2,1,0,-1
1558441450039661,-3,0,-6,-6,-1,8,-1,-2
1558441450039661,-1,-5,-1,1,-3,-1,-11,-2
1558441450055616,2,1,0,-3,-2,-1,2,-1
1558441450055616,-1,0,3,4,4,2,2,0
1558441450055616,2,-2,-2,-1,2,-3,2,1
1558441450055616,-1,5,0,-1,-1,5,-6,-5
1558441450070577,3,-2,7,3,0,0,3,-1
1558441450070577,-7,-7,-14,-5,-5,-7,-3,-2
1558441450077558,-2,-1,3,2,-1,-7,3,1
1558441450077558,2,3,4,0,-4,-6,-4,-1
1558441450092533,-3,-4,-3,3,-1,6,-3,-1
1558441450092533,0,-1,-12,-8,-5,-2,-3,-2
1558441450107480,1,3,8,3,6,-3,-3,1
1558441450107480,0,-4,-9,-2,-2,4,2,0
1558441450115458,-10,-3,4,-2,-3,-12,-1,-1
1558441450115458,2,4,8,6,11,16,5,2
1558441450116459,-5,-4,-10,-8,-5,-1,-4,-2
1558441450116459,0,-3,0,-3,-3,0,-2,-3
1558441450131414,0,-4,-5,-1,-3,0,-1,-2
1558441450131414,-2,3,-1,-3,-8,-13,-9,-3
1558441450137399,-1,2,0,1,5,6,3,2
1558441450137399,-1,-4,3,2,3,-4,4,3
1558441450153356,1,2,-1,-5,-6,-4,-6,-4
1558441450153356,-1,-4,3,-1,-4,-6,0,1
1558441450159339,2,-1,2,1,-1,-4,-5,-3
1558441450159339,0,-3,-1,1,4,8,-1,-2
1558441450175324,-5,-5,-6,-1,2,-1,3,-2
1558441450175324,3,0,2,-2,-4,-2,-3,0
1558441450176322,-1,0,-4,-1,-4,-10,1,2
1558441450176322,0,-2,0,-1,-6,-9,-8,-3
1558441450191256,3,6,10,5,3,8,0,1
1558441450191256,-1,-4,-28,-15,-3,1,-1,-3
1558441450197240,-2,-11,-1,-1,0,-1,3,2
1558441450197240,-12,-7,-3,0,-1,-11,-3,0
1558441450213195,-2,-4,0,-2,-6,-5,-6,-2
1558441450213195,1,0,4,3,4,6,7,4
1558441450219179,4,11,6,3,1,2,-3,0
1558441450219179,-2,-4,-10,-4,-1,-3,2,0
1558441450235141,0,-8,1,-1,-4,-2,-5,-3
1558441450235141,-1,0,6,4,0,-4,-5,-2
1558441450236135,1,4,-6,-5,-4,-3,-3,-2
1558441450236135,2,-1,5,0,-1,0,4,1
1558441450251094,-2,-1,-6,-3,1,4,0,-1
1558441450251094,-4,1,5,1,-2,-1,-4,-2
1558441450257129,-4,-2,1,1,-2,-2,0,-2
1558441450257129,-2,-2,3,0,0,2,-1,-2
1558441450274034,0,-5,-15,-6,0,-3,5,3
1558441450274034,2,0,0,0,0,-1,-3,-1
1558441450288022,-5,0,3,2,3,11,1,0
1558441450288022,4,4,4,2,-1,-4,-6,-2
1558441450294976,2,5,1,-2,-4,-5,-2,1
1558441450294976,-1,1,-2,-1,0,-6,3,1
1558441450295978,-5,-7,-7,-2,-5,-10,-2,-2
1558441450295978,2,-2,-6,-4,-2,6,-1,-1
1558441450311054,-15,-8,1,3,4,3,-2,-3
1558441450311054,-2,-7,0,0,1,-6,3,-1
1558441450317293,0,4,6,2,2,5,0,-1
1558441450317293,3,1,5,-2,-1,-4,2,0
1558441450333875,4,8,2,0,-4,-6,-5,0
1558441450333875,-1,-7,-17,-4,1,7,3,1
1558441450340382,1,-4,0,-2,-2,1,-3,-3
1558441450340382,-6,2,-6,-4,-5,-4,-4,-2
1558441450355130,3,-1,7,1,-2,-6,-5,-2
1558441450355130,-2,0,4,-1,-2,1,-1,-3
1558441450361839,0,-1,3,4,4,1,4,3
1558441450361839,-1,3,-9,-5,-4,3,3,0
1558441450371154,-1,-1,-3,-1,-3,-6,-4,-2
1558441450371154,1,-1,-5,-1,-4,3,-3,-3
1558441450378048,0,3,-1,-2,0,1,-1,-2
1558441450378048,-3,0,7,3,6,6,-2,-1
1558441450394003,-2,-5,-5,-1,2,-4,1,0
1558441450394003,-4,-5,-4,-5,-9,-3,-5,-3
1558441450400298,0,2,0,-1,-2,-7,0,0
1558441450400298,1,4,-2,0,4,5,1,-1
1558441450415253,5,4,3,-2,-1,1,0,1
1558441450415253,-6,-8,4,0,-8,-7,-5,-3
1558441450421931,0,-1,-6,-3,-3,-4,2,0
1558441450421931,-5,-7,-5,-1,2,2,2,-1
1558441450438884,2,4,4,3,0,1,-5,-3
1558441450438884,4,7,1,-4,3,9,3,2
1558441450438884,-6,-8,-3,-4,-3,-10,-4,-1
1558441450438884,2,-1,-3,1,-1,2,7,1
1558441450453843,5,1,-3,-3,0,5,0,0
1558441450453843,-3,-2,2,2,-3,3,-2,-3
1558441450460156,-1,5,3,-1,-4,-3,-3,-3
1558441450460156,1,-5,3,0,-1,-10,-1,-1
1558441450475784,-4,-2,-1,-6,0,-1,1,-1
1558441450475784,-1,-3,-14,-2,0,0,-6,-2
1558441450491028,-2,1,-11,-7,-8,0,-4,-3
1558441450491028,-2,-4,0,-1,-1,6,0,0
1558441450498038,-3,-4,1,1,-3,0,5,1
1558441450498038,3,4,8,0,-5,-20,-8,0
1558441450498725,-7,-5,-2,1,16,22,12,3
1558441450498725,-1,-1,-4,-2,0,-8,-2,-1
1558441450513686,-2,-1,-1,0,-4,-6,-4,-3
1558441450513686,-1,-1,1,-2,-2,4,0,-2
1558441450519668,4,3,2,0,0,6,-5,-2
1558441450519668,-9,-2,10,3,0,-7,-9,-1
1558441450534628,-5,-4,-8,-4,5,9,12,1
1558441450534628,-6,-6,-11,-4,-3,-12,-6,-3
1558441450542605,-2,-8,-1,0,-8,-8,-6,-3
1558441450542605,1,-3,-9,-5,-5,2,-1,-2
1558441450557599,6,3,6,3,-1,-12,-3,0
1558441450557599,0,5,-4,-2,-1,8,5,0
1558441450558563,2,-5,-1,-2,-3,0,0,-2
1558441450558563,-10,-7,0,1,-2,3,-2,-4
1558441450573605,-1,1,-1,0,2,2,0,-2
1558441450573605,-2,1,7,1,-2,-2,1,1
1558441450579782,3,7,18,7,5,-1,2,1
1558441450579782,0,-8,-27,-12,-8,-3,-3,-5
1558441450594742,-4,-5,-5,-4,-5,4,-7,-5
1558441450594742,-2,-1,0,2,7,-1,1,2
1558441450602447,1,2,1,-1,-3,-2,-3,-2
1558441450602447,4,4,5,1,-3,-5,-3,0
1558441450617407,1,2,2,0,3,0,4,2
1558441450617407,-1,1,-4,-2,1,5,-4,-3
1558441450618404,-2,-1,-2,-3,-3,-14,-4,-1
1558441450618404,2,3,2,-1,0,0,0,0
1558441450640345,0,-2,0,2,0,2,3,-2
1558441450640345,-6,-10,1,-2,0,6,-1,-2
1558441450641343,-2,0,3,0,1,0,-1,-1
1558441450641343,3,3,-16,-9,-6,-16,-3,1
1558441450654307,5,5,9,3,4,0,1,4
1558441450654307,-3,-2,-9,-2,3,2,1,1
1558441450662285,-5,-3,-1,0,-3,3,-4,-3
1558441450662285,0,1,2,-2,-1,1,0,0
1558441450679241,-5,-5,-11,-6,-10,-6,-6,-4
1558441450679241,0,2,10,1,-5,-5,-2,-3
1558441450680273,-3,-1,-6,-1,6,9,2,-3
1558441450680273,5,6,5,2,2,2,8,0
1558441450693202,-4,-7,-14,-4,1,-7,-1,1
1558441450693202,1,1,1,0,-3,-8,-2,-2
1558441450699187,-5,-6,-3,-3,-3,-4,3,1
1558441450699187,-4,-5,4,1,2,6,-4,0
1558441450723473,-3,0,-1,-1,-3,-1,-1,-1
1558441450723473,2,5,-3,-4,-3,-5,-1,-1
1558441450723473,-2,-4,-6,-5,-11,-7,-9,-4
1558441450723473,-5,-9,6,2,1,7,-2,-2
1558441450738433,0,5,5,4,13,5,9,5
1558441450738433,5,4,-10,-7,-6,-8,0,-3
1558441450738433,-12,-17,-8,-2,-4,1,-3,-2
1558441450738433,0,-6,-3,-2,-2,3,-1,-2
1558441450754040,-1,-1,0,-4,-11,1,-13,-8
1558441450754040,2,2,5,3,6,0,5,3
1558441450760488,4,2,3,2,2,-14,4,2
1558441450760488,0,3,-3,-1,-3,3,2,-2
1558441450775300,-3,-5,-2,0,9,13,3,-1
1558441450775300,-1,2,3,7,0,-1,2,0
1558441450782265,-2,-8,-23,-15,-8,-2,-6,-5
1558441450782265,-2,-1,5,2,-2,-8,-3,0
1558441450798229,1,4,-6,-5,-8,-5,-6,-2
1558441450798229,-4,-2,5,-1,-1,4,1,-1
1558441450799166,3,4,5,4,0,3,2,-2
1558441450799166,0,2,0,1,5,3,0,-2
1558441450813882,3,5,11,4,-1,-12,6,3
1558441450813882,-2,-7,1,1,-2,-6,-2,-3
1558441450820186,-2,-5,-18,-8,-6,3,-7,-2
1558441450820186,1,1,0,-3,3,5,8,2
1558441450835822,-4,-5,0,-3,-3,-9,-8,-2
1558441450835822,1,0,6,0,3,6,-2,-1
1558441450841852,4,8,7,3,3,-2,6,3
1558441450841852,-1,-3,-2,-1,2,-3,-4,-1
1558441450857765,5,7,1,1,0,5,5,0
1558441450857765,-4,-4,-11,-9,-9,-6,0,0
1558441450858761,1,3,9,4,6,1,-1,-1
1558441450858761,-3,-7,-11,-7,-3,-3,-2,-4
1558441450873721,-3,-8,-1,-1,0,-5,-2,0
1558441450873721,1,-3,-4,0,0,7,-2,-3
1558441450880026,0,6,8,0,-1,-2,-2,0
1558441450880026,1,9,12,9,6,-1,7,2
1558441450894980,-6,-8,-12,-4,-5,-3,-9,-4
1558441450894980,-2,0,-4,-3,1,9,-1,1
1558441450901646,1,2,4,0,-2,-2,-1,1
1558441450901646,-3,-5,-2,-3,-7,-8,-5,-3
1558441450917604,0,-1,3,-1,-1,4,-1,0
1558441450917604,-2,-6,-4,-2,3,-2,-1,-3
1558441450918601,0,2,2,-1,1,-2,3,-2
1558441450918601,-1,0,0,1,-1,2,-5,-1
1558441450933561,-3,-3,-1,-3,-1,0,-5,-3
1558441450933561,-2,-3,-4,-1,-3,-5,-5,-4
1558441450939820,-1,0,-1,0,0,2,0,-1
1558441450939820,1,1,-3,-2,2,4,3,0
1558441450954795,-5,-5,1,-1,-5,0,-1,-2
1558441450954795,-1,0,-3,-1,-3,-11,-4,0
1558441450992679,7,5,5,2,9,1,10,3
1558441450992679,-6,-4,-12,-4,-6,-6,-7,-2
1558441451003376,-1,2,2,2,-1,1,0,-2
1558441451003376,-2,-1,1,-2,-4,-3,0,-1
1558441451003376,-4,-10,2,-1,-4,1,-6,-2
1558441451003376,-3,-3,-10,-6,-4,0,-5,-2
1558441451008363,1,2,1,0,-5,-4,-1,-3
1558441451008363,4,1,-2,3,11,4,10,5
1558441451009357,-3,-1,-2,-1,0,-16,-4,1
1558441451009357,0,4,7,3,4,9,4,1
1558441451055587,1,-2,-3,-3,-5,-7,-5,-3
1558441451055587,-1,2,10,2,-2,12,-3,-3
1558441451055587,-2,-11,-6,-1,-2,-6,-5,-1
1558441451055587,2,-4,-1,-3,-3,-8,0,0
1558441451056553,-4,0,-10,-3,-4,-3,-1,-4
1558441451056553,-6,-7,-5,-3,-1,6,-3,-2
1558441451061536,-2,6,8,3,-3,2,0,0
1558441451061536,3,4,-4,-1,9,5,5,1
1558441451063530,1,0,2,1,4,-4,5,4
1558441451063530,-4,-4,-4,-2,-6,-10,-9,-5
1558441451063530,-1,-1,-2,-3,-9,1,-8,-6
1558441451063530,0,0,7,-3,-3,-4,0,1
1558441451083851,3,3,-2,-2,4,0,3,2
1558441451083851,0,3,1,-1,-4,-4,0,-2
1558441451090804,-11,-7,-3,-1,-6,-5,-4,-6
1558441451090804,1,3,4,-1,-1,4,2,0
1558441451098673,0,-3,-8,-3,2,2,0,0
1558441451098673,1,0,2,-1,2,-6,-1,0
1558441451098673,3,5,-4,-2,-1,-2,0,1
1558441451098673,-3,-4,-2,-1,-6,-6,-3,-3
1558441451113724,-6,-7,-2,-1,-5,3,-3,-3
1558441451113724,5,2,2,1,3,10,5,2
1558441451119398,-6,-5,-8,-6,-2,-3,-1,-3
1558441451119398,-2,-2,-2,-2,-6,-4,-6,-3
1558441451168255,0,2,2,-4,1,-1,-5,0
1558441451168255,2,0,1,2,4,-4,7,2
1558441451169253,1,2,1,-3,-2,2,-5,-2
1558441451169253,-1,-10,-2,2,4,0,3,0
1558441451174413,0,-1,4,2,1,7,1,-2
1558441451174413,0,4,11,4,-1,-2,0,1
1558441451175233,-2,-5,-22,-9,-7,-8,-8,-5
1558441451175233,-2,-3,-3,-3,-2,0,0,-2
1558441451176234,0,-5,-11,-5,-2,1,3,0
1558441451176234,-4,-4,0,1,5,8,2,-2
1558441451196386,2,-2,4,1,3,3,2,-1
1558441451196386,-1,-1,-1,-2,-7,-11,-6,-3
1558441451197173,-2,-1,5,3,2,7,2,-1
1558441451197173,-1,0,-5,-7,-8,-8,-7,-2
1558441451219117,6,4,5,2,3,6,2,4
1558441451219117,-4,-4,-7,-4,0,-2,-5,-1
1558441451221109,-3,-1,-2,-1,3,2,-3,-1
1558441451221109,-4,-2,1,0,-6,1,-4,-2
1558441451225310,0,0,-1,0,2,-14,4,2
1558441451225310,5,2,1,0,2,5,3,1
1558441451234080,0,-1,1,-2,-9,-10,-5,-3
1558441451234080,-1,-1,1,2,3,-1,-2,-1
1558441451248287,-2,5,0,0,2,10,0,1
1558441451248287,-2,-6,-5,-3,-1,1,-2,-2
1558441451279419,-5,-6,5,2,-2,-4,4,-1
1558441451279419,-2,0,-11,-5,-3,-8,-3,-2
1558441451279952,-3,-4,-2,-3,-7,1,-5,-4
1558441451279952,1,3,5,4,3,7,6,1
1558441451282289,3,3,-4,-2,1,2,-2,0
1558441451282289,-2,-5,0,-1,-1,-8,-2,-1
1558441451284938,-1,2,-5,-2,1,2,4,2
1558441451284938,-4,0,-1,-3,-12,-14,-11,-2
1558441451293914,4,4,6,4,7,7,-4,-2
1558441451293914,-2,0,4,2,-2,0,2,-1
1558441451340141,-4,-7,-21,-8,3,-8,1,0
1558441451340141,-3,1,5,2,0,-7,5,1
1558441451341810,1,3,-3,-3,-8,-6,-4,-2
1558441451341810,1,-1,3,1,-3,-6,-5,-2
1558441451342899,-9,-9,5,1,1,13,-1,-4
1558441451342899,1,-2,-4,1,1,2,-2,-1
1558441451346772,-7,-2,-3,-3,-5,-11,-3,-1
1558441451346772,-2,-4,-2,-3,1,4,-1,0
1558441451348095,5,6,4,2,2,-2,4,0
1558441451348095,0,2,0,-3,-1,-5,-1,1
1558441451392913,-3,-7,-4,0,3,8,4,1
1558441451392913,0,-2,-2,-2,-6,-8,-5,-1
1558441451393650,-3,-4,0,-2,-5,-4,-3,-3
1558441451393650,2,4,1,1,-1,5,-2,-3
1558441451399788,3,1,-1,-2,-3,-12,-5,-3
1558441451399788,-3,-6,-7,-4,-4,9,5,1
1558441451399788,3,3,7,4,7,-8,2,3
1558441451399788,0,4,9,5,3,-1,2,2
1558441451401631,-1,-2,-10,-5,-6,1,-3,-2
1558441451401631,-2,-3,-6,-2,0,-4,-5,-3
1558441451427789,-3,-4,-1,0,-2,6,-2,-2
1558441451427789,-5,-4,-4,-5,-8,-8,-5,-3
1558441451445509,-3,-3,0,0,2,4,0,0
1558441451445509,0,4,2,1,-1,-7,-6,-2
1558441451446506,2,1,-2,1,2,4,1,1
1558441451446506,-1,-1,2,1,3,-2,-2,-2
1558441451451495,2,5,-4,-2,-1,-2,0,-1
1558441451451495,-12,-15,2,-3,-2,6,3,-4
1558441451451495,0,-1,4,2,-3,5,0,0
1558441451451495,0,1,-9,-10,-3,-7,2,-2
1558441451472438,-1,-3,-2,0,-7,-3,-6,-5
1558441451472438,2,4,4,0,-1,-2,-4,-2
1558441451497719,4,5,-1,-2,-2,-6,-5,-1
1558441451497719,2,0,8,3,9,14,10,4
1558441451499460,-11,-9,-5,-3,-3,-4,-1,-3
1558441451499460,0,3,-2,-5,-1,-6,-2,0
1558441451504705,-3,-6,7,2,-6,-4,-5,-3
1558441451504705,-1,3,-2,-2,-2,2,-3,-2
1558441451505348,1,-1,-5,-1,-3,-7,0,0
1558441451505348,2,1,2,2,7,15,7,2
1558441451506346,0,-2,-9,-6,-4,-3,-1,0
1558441451506346,-2,2,-1,0,-3,-3,-7,-3
1558441451548404,-2,-3,4,-2,3,-4,4,3
1558441451548404,5,7,1,0,-5,2,-7,-3
1558441451557210,-10,-13,1,-3,0,-3,3,0
1558441451557210,-4,-14,-19,-6,-3,2,-1,-4
1558441451559635,1,5,5,1,4,-3,-1,1
1558441451559635,2,2,-4,-1,-3,-7,-5,0
1558441451559635,6,10,4,-5,-1,5,-2,0
1558441451559635,-6,-2,3,1,-8,-5,-2,-1
1558441451564191,1,-3,-2,-2,4,-3,1,2
1558441451564191,0,1,8,7,9,4,11,5
1558441451565189,3,-1,-14,-3,-7,-7,-3,-4
1558441451565189,1,3,6,1,-4,1,0,-2
1558441451596143,-4,-6,-11,-5,-6,-2,0,-3
1558441451596143,0,-1,-4,-2,3,-1,3,1
1558441451596143,-4,-2,-2,-1,-1,2,-5,-3
1558441451596143,0,-1,-1,-3,-2,-1,-7,-3
1558441451610069,0,0,7,1,-2,2,0,0
1558441451610069,0,1,-1,-1,-3,-5,-1,-1
1558441451611308,-1,-4,1,0,0,-13,-3,0
1558441451611308,0,-3,6,4,3,5,0,0
1558441451614818,1,1,-6,-7,-1,-2,-6,-3
1558441451614818,-5,-2,-12,-7,-5,-1,-1,-4
1558441451622789,-1,-1,1,0,2,4,2,0
1558441451622789,0,-1,-3,-1,1,-3,-4,1
1558441451670569,1,4,14,6,7,3,8,5
1558441451670569,0,-1,-3,0,1,3,-4,-1
1558441451670569,0,2,1,0,0,-1,3,0
1558441451670569,-1,0,-1,-2,-3,-3,-1,-2
1558441451672309,-6,-11,-8,-5,-7,3,-9,-7
1558441451672309,-2,-4,-4,-2,-10,-8,-7,-1
1558441451676744,1,2,11,7,10,8,7,3
1558441451676744,2,2,-4,-1,9,3,6,4
1558441451677294,2,6,2,0,2,-2,-3,0
1558441451677294,-2,-5,-2,-4,-7,-4,-6,-5
1558441451698234,-4,-5,-5,-4,-7,-7,-3,-4
1558441451698234,3,3,-2,-3,-2,-5,1,-1
1558441451700229,-3,-1,-2,1,1,3,0,-1
1558441451700229,0,0,3,3,-2,0,-1,-1
1558441451721174,1,3,6,0,-4,-4,-3,-3
1558441451721174,-3,-1,-6,0,-1,-1,-4,-4
1558441451723170,1,-1,3,-3,0,8,0,-1
1558441451723170,-3,-10,-16,-5,-7,-2,0,-3
1558441451724196,-1,0,-1,0,-1,-4,-2,-2
1558441451724196,-2,-1,0,0,-1,2,2,0
1558441451751101,0,0,8,4,5,0,3,0
1558441451751101,1,6,4,4,10,9,2,-2
1558441451752093,-3,-6,-5,-4,-2,-2,-2,-1
1558441451752093,-3,-3,2,-1,-5,-5,-4,0
1558441451766058,1,3,-3,0,-5,-4,-7,-1
1558441451766058,1,0,3,0,-4,-9,4,1
1558441451766058,1,-3,-5,-2,0,0,-1,-1
1558441451766058,-3,-2,-4,-2,-8,-3,-8,-5
1558441451781015,4,5,-1,-2,-2,1,4,-3
1558441451781015,0,1,-3,-1,0,-17,-2,3
1558441451781015,-5,-7,-3,0,3,11,-1,-3
1558441451781015,3,-2,3,1,-1,-5,-1,-1
1558441451803319,-1,-1,-4,-3,-3,0,-6,-1
1558441451803319,-5,1,-2,-4,-6,-4,-11,-5
1558441451803954,4,6,11,2,3,12,10,3
1558441451803954,0,-3,-11,-3,5,-3,2,1
1558441451826096,-2,-1,2,-2,-2,-1,2,-1
1558441451826096,-6,-10,-5,-3,1,7,3,-1
1558441451826096,1,1,-7,-4,-3,-11,-6,1
1558441451826096,2,2,7,4,-3,-10,0,3
1558441451840207,-1,0,4,0,0,-3,2,-1
1558441451840207,-1,1,0,0,0,2,2,2
1558441451840856,-3,-8,-8,-1,1,6,-6,-6
1558441451840856,0,-2,3,-5,-4,3,-1,-2
1558441451862795,-4,0,-10,-3,-1,-9,-3,0
1558441451862795,-2,-3,4,0,2,1,4,-1
1558441451863792,0,6,2,1,0,-3,2,1
1558441451863792,-3,-7,-4,-3,-4,-6,-8,-3
1558441451876800,-2,-2,-2,0,-5,4,-4,-2
1558441451876800,0,-2,-3,-3,-5,-1,-4,-2
1558441451884736,-1,2,0,-1,5,5,1,-1
1558441451884736,1,0,1,1,2,3,3,0
1558441451900696,-6,2,-1,-1,-8,-5,-4,-2
1558441451900696,4,-1,6,2,7,7,5,-1
1558441451900696,1,-3,-10,-3,-3,-11,-3,-2
1558441451900696,-8,-10,2,-1,-1,2,-3,-2
1558441451915015,5,1,-8,0,7,7,2,2
1558441451915015,-1,3,6,2,-4,-1,-7,-2
1558441451921989,-1,-1,-4,-3,-6,-2,4,-1
1558441451921989,-1,2,2,-3,3,4,1,0
1558441451937822,-3,-4,3,1,-1,-10,-3,0
1558441451937822,-6,-4,-4,-4,-5,-10,-3,1
1558441451944924,-2,1,-3,-2,-2,-4,-7,0
1558441451944924,-1,1,3,3,-1,1,1,-3
1558441451960887,-2,-3,-7,-4,0,3,3,-3
1558441451960887,4,2,6,0,-2,-1,1,0
1558441451960887,0,0,-5,1,5,12,5,0
1558441451960887,0,0,-8,-4,-2,-1,-3,-1
1558441451975259,2,1,7,1,-3,-11,-3,0
1558441451975259,-9,-8,-9,-5,-1,-6,-1,-2
1558441451982939,-5,-3,-1,-2,-8,-6,-5,-4
1558441451982939,-3,-3,-6,-3,0,5,-5,-4
1558441451997134,-2,-5,4,0,0,4,1,0
1558441451997134,1,3,7,4,5,5,5,1
1558441452005088,4,2,-2,-3,-1,-9,1,3
1558441452005088,0,6,-7,-4,-4,-10,-1,-2
1558441452019820,-8,-16,-8,-2,-3,2,-8,-6
1558441452019820,-1,0,-4,-3,-2,-1,0,-2
1558441452020782,-2,-2,2,1,0,7,-1,-1
1558441452020782,5,4,2,2,1,5,2,4
1558441452035743,2,3,0,-3,-5,-10,-6,-1
1558441452035743,-2,-3,-2,-2,-3,-4,-5,-5
1558441452041729,2,2,1,1,1,-2,3,1
1558441452041729,-2,0,-4,-1,3,-8,0,1
1558441452056726,-4,-2,-1,1,3,16,9,-1
1558441452056726,0,-1,0,0,0,0,-6,-1
1558441452064667,-4,-4,0,-1,-7,-9,-11,-2
1558441452064667,-2,0,0,0,-4,-4,1,1
1558441452080626,1,1,-4,-1,-2,-11,-2,-1
1558441452080626,2,2,0,2,10,7,9,3
1558441452080626,-1,1,-3,-1,-1,-3,2,0
1558441452080626,-1,-5,-2,-5,-7,-1,-5,-5
1558441452095991,2,0,5,1,3,9,2,-2
1558441452095991,3,6,-1,-1,0,-6,-5,2
1558441452102563,-4,-8,-4,-2,-5,1,-4,-3
1558441452102563,-3,-1,6,0,-6,-9,-3,-1
1558441452116907,-3,-3,-13,-5,2,0,5,3
1558441452116907,-2,-1,-4,-2,1,-3,0,-1
1558441452124691,-2,0,0,0,-7,-4,-4,-3
1558441452124691,0,-2,0,1,8,16,6,-2
1558441452140898,6,5,-5,-3,-5,-12,1,2
1558441452140898,-13,-15,-4,-2,-7,-4,-7,-4
1558441452140898,-2,-5,2,-1,0,-3,-1,0
1558441452140898,-2,0,0,-1,-3,-9,-1,-1
1558441452156422,4,5,4,1,2,4,0,0
1558441452156422,1,2,-2,3,-2,5,-3,-5
1558441452162809,0,0,0,-2,-3,-6,1,-2
1558441452162809,0,-2,-3,-1,-1,-5,-2,-2
1558441452177708,-3,-1,4,-1,-2,0,-3,-3
1558441452177708,2,0,-4,0,-3,0,-1,-1
1558441452184345,1,5,6,1,3,12,2,-1
1558441452184345,0,-4,-2,0,-2,0,1,-2
1558441452200307,-4,-7,-4,-5,-3,-10,-4,-3
1558441452200307,-3,-3,-6,-3,-5,-6,0,1
1558441452207607,0,3,0,0,0,-1,-3,0
1558441452207607,-4,-2,2,2,4,1,-1,-1
1558441452223467,-2,-1,2,1,2,9,-5,-1
1558441452223467,1,-2,-1,-6,-5,3,-5,0
1558441452223467,2,9,13,6,6,5,11,2
1558441452223467,-3,-4,-9,-5,-4,-11,-1,1
1558441452237517,-5,-4,-9,-3,-6,5,-5,-4
1558441452237517,2,2,-4,-2,2,1,4,1
1558441452245376,-1,-3,-2,1,0,-8,-2,0
1558441452245376,1,-2,3,0,-3,4,-3,-1
1558441452259145,3,3,10,4,5,7,1,2
1558441452259145,-2,-2,-10,-4,-4,-7,-1,-2
1558441452267123,0,-2,4,-1,4,14,1,-2
1558441452267123,2,5,1,1,4,-2,3,1
1558441452276100,-10,-8,-3,-1,2,-6,4,-2
1558441452276100,1,-1,7,1,-1,-3,-4,-1
1558441452282428,-2,-4,-6,-5,-7,-5,-8,-3
1558441452282428,0,-3,0,1,-1,7,4,2
1558441452297044,3,3,-1,-1,0,0,-1,-1
1558441452297044,-3,0,5,2,6,2,3,0
1558441452305366,-1,-1,-9,-4,-2,-1,1,0
1558441452305366,-4,-2,-2,-2,-2,1,-8,-2
1558441452319692,2,1,3,1,-3,1,1,2
1558441452319692,-3,-2,8,4,2,5,6,-1
1558441452327699,-1,-3,-10,-6,2,-10,-3,-1
1558441452327699,-2,2,2,1,-1,1,-3,-1
1558441452336343,-1,-2,-1,-3,-6,-15,0,0
1558441452336343,1,2,0,0,0,4,-1,0
1558441452342674,1,3,1,1,5,8,3,2
1558441452342674,-1,-3,-10,-5,-4,0,-1,-1
1558441452357402,-1,-2,-3,-4,-6,-7,-11,-4
1558441452357402,-2,-3,0,0,-4,-3,1,-2
1558441452365289,0,3,5,2,4,4,2,0
1558441452365289,-4,-8,9,3,1,-5,1,-1
1558441452380369,0,-5,-20,-9,-6,0,-6,-3
1558441452380369,-2,0,-2,-2,-5,-3,-4,-2
1558441452387482,-2,-7,1,0,-4,-3,-4,0
1558441452387482,0,5,7,2,6,6,4,2
1558441452403428,-3,-4,-16,-5,-7,-11,2,-1
1558441452403428,-2,-1,-1,0,4,5,-1,0
1558441452403428,0,-3,-4,-4,-8,-17,-10,-3
1558441452403428,-1,2,-1,0,0,0,0,0
1558441452417181,1,2,10,3,3,1,2,1
1558441452417181,1,0,-8,-4,-1,3,1,0
1558441452425356,3,1,-1,-2,-6,-5,-1,-2
1558441452425356,-1,-5,-1,-2,-7,-3,-6,-4
1558441452440347,0,1,3,1,4,-3,-1,0
1558441452440347,-2,-1,0,1,1,-6,-1,0
1558441452447331,-2,0,1,2,5,8,3,0
1558441452447331,-4,-1,-8,-5,-2,-1,-3,-2
1558441452463004,-3,-2,0,-1,-3,-5,-3,-2
1558441452463004,-2,-6,-7,-3,0,3,-2,-1
1558441452463004,-1,-1,2,1,0,-1,-1,-3
1558441452463004,1,0,6,1,-2,-2,0,-1
1558441452476965,0,6,3,0,2,4,-3,-1
1558441452476965,-5,-7,-3,-6,-4,2,-2,-3
1558441452484944,-3,-1,-5,-4,2,-1,0,0
1558441452484944,1,-7,-3,1,2,-3,5,4
1558441452500261,-1,3,9,1,0,0,1,-1
1558441452500261,3,-4,-3,-4,-11,-12,-9,-3
1558441452507205,-8,-10,-4,-2,0,13,2,-3
1558441452507205,0,4,0,-3,0,-4,1,0
1558441452523207,2,0,0,-1,0,-8,2,0
1558441452523207,1,8,7,2,2,0,3,0
1558441452523831,-4,-2,2,0,-2,-2,-4,-4
1558441452523831,2,2,-6,-1,0,-3,-6,-4
1558441452537881,-14,-11,0,1,-4,2,-1,-4
1558441452537881,0,-1,-6,-3,-1,4,-2,0
1558441452545125,1,-2,2,-1,-2,-3,0,1
1558441452545125,-1,1,-2,-3,-9,-7,-3,-2
1558441452559731,2,0,-2,1,3,0,4,1
1558441452559731,-1,-2,-2,-1,0,-3,2,0
1558441452567062,-3,0,0,3,5,3,1,3
1558441452567062,-1,-3,-9,-4,0,3,-1,-1
1558441452583678,1,0,3,-1,-6,-9,-5,-2
1558441452583678,2,2,2,1,0,-4,1,0
1558441452583678,3,-1,-3,-6,-4,-5,-3,-1
1558441452583678,-1,3,1,0,2,9,7,1
1558441452597914,-5,-11,2,0,3,3,5,0
1558441452597914,-3,-2,-4,0,-2,-6,-4,0
1558441452604949,1,1,5,2,-2,-13,-4,-1
1558441452604949,-1,-2,-16,-6,-2,3,-2,-5
1558441452619928,0,0,-3,-3,-6,-4,-5,-1
1558441452619928,-1,0,-2,-4,-1,2,0,1
1558441452627901,-5,-2,-1,-1,-8,-6,-2,-4
1558441452627901,-3,-2,10,4,-2,-6,-1,0
1558441452643507,4,-1,-3,1,4,4,1,1
1558441452643507,-2,-1,-1,1,5,-1,3,1
1558441452643507,1,-1,2,-2,-2,2,2,1
1558441452643507,-2,2,-2,-1,-3,-7,-6,-2
1558441452665447,0,-2,1,0,3,14,1,1
1558441452665447,4,3,-4,-4,-2,-4,-8,0
1558441452673617,-13,-11,-8,-3,0,-1,3,0
1558441452673617,-2,-2,-1,-2,-5,-11,-3,-1
1558441452680407,1,1,3,0,2,4,5,1
1558441452680407,1,2,3,2,3,1,1,-1
1558441452687389,2,2,-1,0,-2,3,-5,-4
1558441452687389,1,-1,11,6,-1,-2,-2,-2
1558441452702350,-5,-6,-31,-19,-6,-4,-5,-2
1558441452702350,-4,-5,-7,-3,-5,-7,-1,-3
1558441452703345,4,1,-1,0,-2,-2,-2,0
1558441452703345,1,1,7,6,3,0,1,0
1558441452717308,1,3,3,5,8,3,3,1
1558441452717308,0,1,3,0,-4,5,1,-1
1558441452733617,-4,-6,-6,-4,-7,-6,-6,-3
1558441452733617,1,-2,-3,-1,7,10,3,-1
1558441452740334,1,6,4,3,-4,-15,-2,1
1558441452740334,-4,-4,-4,-4,-5,-1,-5,-6
1558441452747273,-1,-4,3,2,1,5,-2,0
1558441452747273,-3,-2,-5,-5,-5,-5,2,-1
1558441452763185,-3,-6,2,1,-3,6,-1,-4
1558441452763185,1,2,1,1,0,-5,-1,2
1558441452763185,0,5,-1,-1,2,-1,5,0
1558441452763185,0,-4,-4,-2,-2,-2,-5,-2
1558441452777147,-1,2,1,0,-1,1,-5,0
1558441452777147,-2,-4,0,-2,-5,0,-1,1
1558441452784131,-1,1,0,1,1,-4,2,0
1558441452784131,-2,0,1,1,5,4,-1,-1
1558441452800319,5,4,4,0,-5,-6,-1,-1
1558441452800319,-15,-15,-10,-4,-1,8,-1,-4
1558441452807268,0,0,0,0,-3,-2,0,-3
1558441452807268,0,0,-3,-2,4,0,-1,-1
1558441452823286,-1,-3,-5,-2,1,-5,-2,-3
1558441452823286,0,2,4,1,0,0,1,-2
1558441452823286,-1,-3,-4,-6,-9,-8,-7,-5
1558441452823286,-2,0,0,2,-2,5,-2,-2
1558441452837185,0,6,7,2,-2,5,2,1
1558441452837185,-2,-5,-1,-1,2,-15,1,1
1558441452845221,1,0,4,0,6,6,4,3
1558441452845221,0,-2,-8,-4,-1,1,-2,-1
1558441452860184,0,2,-3,-1,-1,4,-4,0
1558441452860184,0,3,2,1,1,9,6,-1
1558441452866944,-5,-10,2,-1,-5,-5,-2,0
1558441452866944,-3,-6,-9,-7,-2,6,1,0
1558441452883113,-1,-3,-1,-3,-2,-15,-5,-2
1558441452883113,6,5,6,3,3,-9,-2,1
1558441452883865,1,4,-3,-2,3,6,2,0
1558441452883865,-3,-1,-1,-3,-4,-3,-2,-2
1558441452896836,-3,-4,-1,0,-6,4,-1,-5
1558441452896836,-1,0,-2,-4,-3,-6,-7,-1
1558441452904809,0,0,-1,0,-4,-7,-1,0
1558441452904809,-1,0,1,1,-2,-2,-1,0
1558441452919768,2,1,3,1,4,5,6,3
1558441452919768,1,1,3,-2,7,7,2,-1
1558441452926749,-1,-6,-14,-4,-1,1,-4,-5
1558441452926749,-2,-1,3,1,-3,-4,-4,-1
1558441452950686,0,-3,-9,-3,-5,-12,-4,-3
1558441452950686,5,3,1,-1,-7,-2,-5,-2
1558441452951683,-5,-3,6,3,5,13,-3,-2
1558441452951683,2,2,1,1,6,-1,7,1
1558441452957136,-8,-6,-1,-2,1,1,-3,-1
1558441452957136,1,0,-3,-2,-4,-4,-2,0
1558441452965132,1,3,-4,-5,-6,-14,-7,-3
1558441452965132,-1,3,7,1,0,4,-1,1
1558441452980027,0,-3,-4,1,0,-2,-3,-1
1558441452980027,-5,-7,-6,-5,-4,-4,-3,-3
1558441452987902,0,-2,1,-3,-3,-1,3,1
1558441452987902,0,0,-1,0,11,15,5,0
1558441453003572,-2,1,2,-1,-5,-3,-2,-3
1558441453003572,1,2,1,2,1,10,3,0
1558441453003572,2,0,-4,0,2,7,3,0
1558441453003572,-1,-5,-3,-4,-5,-18,-5,-2
1558441453016849,-2,-1,0,-2,-3,2,-2,-3
1558441453016849,1,2,8,5,6,3,1,0
1558441453024494,-2,-5,-20,-11,-10,-17,1,-1
1558441453024494,-3,-3,0,-2,-10,1,-4,-5
1558441453039715,0,0,-8,-5,-1,-7,-7,-4
1558441453039715,-5,-4,-2,-1,-2,1,-5,-2
1558441453047710,1,6,3,3,7,7,10,6
1558441453047710,1,-1,7,3,1,2,3,0
1558441453063492,-3,-5,-8,-3,-1,-5,-3,-1
1558441453063492,0,3,8,2,2,5,0,0
1558441453063492,0,-3,-8,-5,-2,-2,-6,-1
1558441453063492,-3,-4,-6,-6,-7,-11,-2,-1
1558441453077345,1,3,8,2,-2,9,-1,1
1558441453077345,-3,-2,-4,-3,-4,-9,-1,0
1558441453084327,3,4,6,3,8,5,0,1
1558441453084327,-3,-1,-3,-2,-3,-2,-2,-2
1558441453100284,-3,-7,-2,0,-3,-5,0,-2
1558441453100284,2,3,-3,-1,4,3,2,1
1558441453107177,-6,-6,2,1,-2,-5,0,-2
1558441453107177,2,2,-4,-4,0,3,-3,-2
1558441453122946,0,-1,4,0,1,9,0,-1
1558441453122946,-3,-5,-6,-2,-2,-9,1,1
1558441453139135,1,2,3,-1,-1,0,-5,-1
1558441453139135,-1,-4,2,2,0,-2,2,2
1558441453139662,0,1,1,-1,-3,3,-2,-3
1558441453139662,-2,-6,-6,-4,-3,2,-9,-2
1558441453145118,0,0,-5,-1,-2,-1,9,1
1558441453145118,0,-2,2,1,-1,-16,1,2
1558441453159609,-4,-2,1,-2,-1,-1,0,-1
1558441453159609,-1,1,-3,-1,-3,-4,-4,-1
1558441453167038,1,2,0,-1,-1,-1,-6,-2
1558441453167038,3,4,1,0,-2,6,-4,0
1558441453182938,-4,-2,-5,-4,0,-5,2,0
1558441453182938,-3,-5,-3,-1,-3,-1,-1,-2
1558441453190527,-2,-2,-1,0,3,14,1,1
1558441453190527,4,5,12,3,-7,-15,1,-1
1558441453197909,0,-5,-16,-6,3,7,4,-1
1558441453197909,-3,-3,-6,-2,-3,-9,1,2
1558441453205556,-1,-1,0,0,1,3,-3,-2
1558441453205556,-2,1,-3,0,0,7,-5,-4
1558441453220454,-2,-7,8,2,-5,-1,-4,-2
1558441453220454,0,0,-3,0,-3,-17,5,1
1558441453226960,0,0,1,-1,2,0,2,0
1558441453226960,-1,-3,-3,-3,0,-4,-2,0
1558441453241919,-2,-2,1,0,-2,1,-6,-2
1558441453241919,1,0,0,0,-1,9,-2,-3
1558441453249898,-2,-1,1,-1,-4,-8,-6,-4
1558441453249898,-2,-1,-5,-1,1,4,1,-2
1558441453256879,0,-2,6,1,3,0,-2,1
1558441453256879,0,1,0,-1,-3,0,1,-1
1558441453264857,-2,3,0,0,-3,-10,-6,-2
1558441453264857,-2,-4,-3,-4,1,7,2,2
1558441453279816,0,2,-5,0,-3,-8,-1,-1
1558441453279816,-4,-7,4,-2,1,8,0,-2
1558441453286799,2,1,0,-1,-7,-8,-1,-1
1558441453286799,0,-3,-6,-2,-5,-6,-5,-3
1558441453302755,3,4,3,1,5,0,3,2
1558441453302755,-1,4,2,-2,-2,-16,-4,-1
1558441453317716,0,-5,-1,-1,-2,1,-5,-2
1558441453317716,-5,-8,-2,-1,-1,2,-1,-1
1558441453325074,0,3,-1,-2,0,8,0,0
1558441453325074,-4,-7,-1,0,-2,11,-2,-3
1558441453325696,-4,-1,1,-3,-1,-9,-1,2
1558441453325696,1,1,-5,-6,-6,-7,-3,-1
1558441453339957,-1,-5,-2,1,4,-3,-1,-2
1558441453339957,0,-2,0,-1,0,3,-3,0
1558441453347836,-1,-2,0,-1,3,2,2,-1
1558441453347836,-2,-1,2,2,0,4,-1,-1
1558441453362616,0,1,0,-1,-2,-9,-2,1
1558441453362616,3,4,0,0,0,-5,2,-1
1558441453370575,-1,0,6,2,-1,-7,1,-1
1558441453370575,-4,-3,-11,-5,-5,2,-2,-1
1558441453385539,-1,-1,-1,-2,-5,-7,-1,2
1558441453385539,2,-4,-13,-2,2,7,3,1
1558441453385539,-7,-4,6,3,0,4,0,-2
1558441453385539,0,1,1,0,-5,-9,-9,-2
1558441453399496,1,2,1,1,2,7,3,2
1558441453399496,-2,-2,3,-2,-3,-4,-2,-2
1558441453415689,3,2,-5,-2,1,7,3,-1
1558441453415689,-5,-12,1,0,-1,-6,-3,-1
1558441453422436,-1,4,0,0,-2,-1,-2,-2
1558441453422436,-3,-5,-2,-4,-6,-5,-4,-4
1558441453430414,0,2,-2,2,3,0,-1,0
1558441453430414,1,3,4,3,2,-9,-5,0
1558441453445379,-1,-1,-2,-2,-5,-6,3,-1
1558441453445379,0,5,2,-1,1,4,-3,-2
1558441453445379,-1,-5,-8,-5,-4,-10,-5,-1
1558441453445379,0,1,-4,-3,-2,5,-2,-1
1558441453459359,-1,-5,2,0,6,8,5,0
1558441453459359,0,4,1,-2,-3,-4,-2,1
1558441453467317,-3,0,1,0,-3,4,-3,-1
1558441453467317,-2,-4,-7,-4,4,13,7,-1
1558441453482476,0,-1,-5,0,-5,-15,-8,-3
1558441453482476,-2,-3,0,-1,2,3,1,-1
1558441453490255,-2,1,6,2,-4,-3,0,-1
1558441453490255,-1,2,1,-1,10,5,5,1
1558441453505214,-3,-5,-2,-3,-1,3,-3,-4
1558441453505214,-1,0,1,0,0,-1,2,-1
1558441453506213,2,1,-1,1,0,4,-4,-2
1558441453506213,2,0,-1,-2,-5,-12,-3,0
1558441453519185,-11,-6,-1,-2,3,6,2,-1
1558441453519185,-2,-7,1,0,1,-9,-3,0
1558441453527155,0,-3,-4,-1,-5,-2,-4,-4
1558441453527155,-2,0,1,1,-5,0,-3,-2
1558441453542117,3,4,0,2,8,7,4,2
1558441453542117,1,5,3,1,-1,-1,-2,-2
1558441453550099,-1,0,-5,-4,-1,0,2,0
1558441453550099,-7,-17,-1,0,0,0,0,-2
1558441453565158,2,0,-3,-2,-9,-7,-4,-4
1558441453565158,0,-4,-1,3,10,7,7,3
1558441453566053,2,3,7,1,-3,-7,-3,0
1558441453566053,1,6,-6,-7,-9,-8,-1,-3
1558441453579098,1,-3,-1,0,1,10,0,0
1558441453579098,-6,1,-5,-3,-6,-8,-2,1
1558441453587032,-1,-6,-3,-3,4,7,-1,-2
1558441453587032,0,1,5,0,-3,-1,1,-1
1558441453601974,-1,-1,5,-1,-3,-14,-3,0
1558441453601974,1,2,-11,-4,0,-4,-3,-2
1558441453609938,-4,-3,-3,-3,1,0,1,-2
1558441453609938,-2,1,0,0,-1,4,-4,-2
1558441453624895,-1,0,-4,-3,0,6,5,2
1558441453624895,1,0,4,1,0,-6,1,0
1558441453625891,0,-1,0,-1,-2,-3,-4,-2
1558441453625891,0,1,-3,0,4,6,3,0
1558441453639855,-3,-4,6,0,-8,-7,-4,-3
1558441453639855,1,-2,-3,-2,3,7,0,1
1558441453646834,1,0,-12,-3,-2,-10,-1,1
1558441453646834,-5,-4,-2,-3,2,-1,-2,1
1558441453661997,-3,1,0,1,1,4,-1,-2
1558441453661997,-5,-1,-1,-4,-6,-1,2,-3
1558441453669775,4,5,12,2,0,2,2,0
1558441453669775,1,-3,-18,-4,-6,-4,-4,-4
1558441453693968,1,2,4,0,-1,-4,-3,-1
1558441453693968,1,0,-8,-1,6,5,4,2
1558441453693968,-1,2,-1,-1,0,-8,-1,2
1558441453693968,-3,-7,2,1,-4,-9,-1,1
1558441453699695,-2,-2,0,-2,-3,1,-1,-2
1558441453699695,0,1,1,0,-1,4,1,0
1558441453706676,-3,-2,-6,-3,0,2,3,-1
1558441453706676,2,5,10,3,1,-2,-1,0
1558441453721898,2,-1,-13,-5,-4,-2,-1,-3
1558441453721898,-1,-4,4,0,0,2,-2,1
1558441453730610,-3,-2,-1,0,1,2,4,2
1558441453730610,3,3,3,3,4,-5,4,0
1558441453753566,-7,-3,-7,-6,-7,-12,-5,-2
1558441453753566,-3,-3,-2,-2,-5,1,-8,-4
1558441453753566,-2,-7,-5,-1,3,15,1,-1
1558441453753566,-1,1,3,0,-1,-4,-2,-2
1558441453759533,3,-1,-1,2,3,-3,-2,1
1558441453759533,-1,-1,4,0,-3,1,1,0
1558441453767521,0,-2,2,-2,1,-2,-3,0
1558441453767521,-2,1,-2,-3,1,4,1,0
1558441453781740,0,-4,-11,-5,1,-2,0,0
1558441453781740,-1,-1,-1,-3,-4,-12,-7,-1
1558441453790451,2,2,-1,0,-7,-2,-7,-5
1558441453790451,-12,-8,-2,-2,-5,1,5,-1
1558441453813391,-1,0,8,4,3,9,1,-1
1558441453813391,-1,1,-3,-1,-2,-6,-1,-3
1558441453814389,-2,-6,-2,-3,0,-3,-1,1
1558441453814389,4,4,5,0,0,7,-3,-3
1558441453819375,0,-1,-6,-1,1,-11,-1,1
1558441453819375,-1,1,2,3,2,-3,-1,-1
1558441453827352,-1,-1,-1,-3,-7,0,-1,-1
1558441453827352,-2,-6,-17,-8,-2,-3,-3,-2
1558441453842312,2,2,4,-1,2,-2,3,0
1558441453842312,-1,-1,2,1,1,8,0,-3
1558441453849295,-4,0,-4,0,-4,-8,-3,0
1558441453849295,4,7,8,3,6,10,5,3
1558441453865251,-2,-3,2,0,-1,0,0,0
1558441453865251,0,-2,-5,-4,-4,-5,-3,-2
1558441453866250,-1,0,0,0,-1,-2,-2,-2
1558441453866250,-2,-3,-1,-1,-4,-4,-5,-3
1558441453879215,2,6,2,1,1,3,-1,1
1558441453879215,0,-4,-1,-1,-1,-3,2,0
1558441453887192,-4,-6,-5,-2,0,4,-5,-3
1558441453887192,3,5,0,1,3,0,4,0
1558441453910133,-3,-3,-9,-6,-5,-3,1,-1
1558441453910133,-2,2,-2,0,-4,-1,-4,-1
1558441453911130,0,0,4,1,4,7,6,4
1558441453911130,-2,-4,-6,-4,-2,-10,-6,-3
1558441453925275,2,1,9,3,0,1,-3,-3
1558441453925275,-1,-2,-9,-3,-4,-7,1,0
1558441453926272,-1,0,-9,-3,1,-10,-1,-4
1558441453926272,1,1,4,3,2,9,4,0
1558441453941232,4,0,9,1,-5,-6,-2,-3
1558441453941232,-12,-9,-12,-5,0,2,-6,-5
1558441453947441,0,1,10,1,-5,-1,2,0
1558441453947441,-3,-5,-18,-7,-6,-13,-3,0
1558441453962183,-3,1,2,-1,1,-3,1,1
1558441453962183,3,0,2,1,2,4,-2,-1
1558441453969168,-2,-2,-3,-3,1,-5,-4,-2
1558441453969168,0,2,3,3,1,-2,1,1
1558441454002077,-1,-2,1,-1,-6,-7,-7,-2
1558441454002077,0,-2,3,-3,-5,7,-1,-3
1558441454002077,1,0,-2,1,4,11,7,0
1558441454002077,1,1,9,2,1,-10,-2,1
1558441454004066,-2,-5,-17,-4,-2,-4,-3,-2
1558441454004066,-2,0,2,2,-2,-5,0,-3
1558441454007056,-1,0,-2,-3,-4,-2,0,-3
1558441454007056,0,2,-1,-3,-1,11,-3,-2
1558441454022165,1,-2,1,2,6,5,6,2
1558441454022165,-3,-3,1,2,4,-2,5,2
1558441454029995,-1,-4,-3,-1,-4,-10,-5,-2
1558441454029995,-4,-5,-4,-3,-2,5,-6,-3
1558441454054927,-2,2,-3,-3,-2,-4,-6,-3
1558441454054927,4,3,7,1,-1,1,3,1
1558441454056073,-2,-1,-2,-2,-6,-7,-4,-2
1558441454056073,-1,-1,0,-1,0,-1,2,0
1558441454060071,-2,-3,-3,-1,0,5,-4,-3
1558441454060071,3,2,-1,0,-1,-10,1,1
1558441454066897,-1,-2,-1,-1,2,10,3,-2
1558441454066897,-2,-2,-1,0,-1,-15,-5,0
1558441454081864,-1,0,1,0,-2,4,1,1
1558441454081864,-2,0,0,-2,0,2,-4,0
1558441454089833,3,4,-2,-1,-3,-6,-4,-2
1558441454089833,-2,-7,-2,-1,-7,-5,-4,-3
1558441454105791,-2,-2,0,0,3,9,2,-2
1558441454105791,3,3,5,0,6,-4,3,3
1558441454112839,-3,-6,-5,-4,-3,-3,-2,-4
1558441454112839,-3,-2,-5,-2,-3,0,-3,-3
1558441454119755,1,2,0,0,-4,-4,-3,-1
1558441454119755,-1,2,-4,-3,-2,9,0,-5
1558441454126736,0,-1,4,2,1,-4,-1,2
1558441454126736,4,1,0,-2,-1,-8,-3,-1
1558441454141694,-7,-5,0,0,-1,1,4,1
1558441454141694,-1,1,-1,2,2,8,-1,-1
1558441454149673,-3,2,3,-1,-1,2,2,-1
1558441454149673,0,-1,-5,-3,0,-2,2,-1
1558441454164634,1,1,0,-3,-3,-7,-2,-2
1558441454164634,-1,-5,-3,-1,3,1,-3,-1
1558441454172621,0,-3,-5,-2,-4,-5,-4,1
1558441454172621,-2,-2,3,1,0,11,1,-1
1558441454179594,-1,1,1,-1,0,-10,-7,-2
1558441454179594,-2,-4,-5,-2,-7,-5,-1,-2
1558441454186575,-1,-2,-2,-1,-2,1,0,0
1558441454186575,0,2,2,2,8,16,8,2
1558441454201536,-1,-1,-4,-2,-4,0,-2,-2
1558441454201536,-1,-2,-4,-5,-6,-9,-9,-4
1558441454209514,-2,-1,0,1,0,-3,-2,-2
1558441454209514,0,0,0,-3,-4,-8,2,-2
1558441454224689,-1,-4,-2,1,1,8,6,0
1558441454224689,-2,1,1,0,-4,5,1,-1
1558441454232453,-2,0,-1,-1,3,-3,-3,0
1558441454232453,-2,0,2,2,4,-4,1,-1
1558441454247411,-2,-1,-4,-2,-2,-1,-3,-2
1558441454247411,0,-3,-4,-4,-7,5,-2,-3
1558441454248411,-1,0,1,0,-5,-7,-2,-2
1558441454248411,0,-2,-3,-2,2,1,-1,2
1558441454262371,0,-2,-1,-2,1,0,-2,0
1558441454262371,-2,-2,0,1,-1,-8,-2,-1
1558441454269386,-3,-3,0,-2,-1,5,1,-1
1558441454269386,-1,-1,-2,-2,-9,-10,-9,-3
1558441454284318,0,-1,-1,1,5,8,6,2
1558441454284318,-1,-2,-2,-3,0,-1,-2,-3
1558441454292294,2,0,0,0,0,2,1,-1
1558441454292294,0,-1,-1,-3,-5,-4,-6,-4
1558441454307252,0,-2,-4,-3,-8,-15,-2,-2
1558441454307252,0,1,1,1,4,-5,4,3
1558441454308250,-2,-1,1,1,3,1,3,-1
1558441454308250,-4,-2,5,0,-2,0,-1,0
1558441454330190,-2,0,-1,1,-1,6,-1,-3
1558441454330190,-2,-1,-6,-1,1,5,-2,0
1558441454331206,-3,-5,-6,-4,-4,-2,-4,-2
1558441454331206,-1,0,0,-3,-6,-9,-4,-1
1558441454344154,1,0,6,1,8,10,4,1
1558441454344154,0,0,-4,-1,-4,-1,-1,-1
1558441454352132,-1,-3,-2,-1,-2,3,1,-2
1558441454352132,1,-1,2,3,4,5,1,1
1558441454368093,0,0,-1,-1,-4,-5,-3,0
1558441454368093,-2,-1,6,-2,-1,3,3,0
1558441454368093,1,0,2,-4,-4,-7,0,0
1558441454368093,-5,-5,-16,-5,-3,-8,-2,-4
1558441454382052,-1,0,1,-2,-2,2,0,-3
1558441454382052,1,-1,3,3,3,1,-4,0
1558441454389038,0,1,3,1,0,3,0,0
1558441454389038,1,2,8,-1,-1,1,-2,-1
1558441454404995,-3,-1,-13,-4,-2,-6,0,-1
1558441454404995,-2,-2,4,-3,-4,-7,-5,-3
1558441454411972,0,-5,-7,-1,1,0,0,-1
1558441454411972,0,1,0,0,2,7,1,1
1558441454427934,1,0,2,-1,-6,-3,-3,0
1558441454427934,2,2,-4,-2,-4,-3,-5,-3
1558441454427934,-6,-1,3,2,3,2,2,0
1558441454427934,-2,1,0,1,2,6,3,0
1558441454443890,0,-5,1,2,1,-6,-1,-1
1558441454443890,-1,2,0,-5,-5,-4,-1,-1
1558441454449875,2,-1,-16,-7,-9,-11,-3,-3
1558441454449875,0,-7,1,4,6,2,2,1
1558441454464837,-3,-3,-2,-1,4,-2,1,0
1558441454464837,-2,-7,6,5,4,3,1,0
1558441454472887,-1,-1,-7,-3,-3,1,-8,-3
1558441454472887,-2,-1,-5,-5,-6,4,0,1
1558441454487773,6,2,2,0,0,0,-2,-1
1558441454487773,-10,-8,-3,-1,-3,-15,-1,-3
1558441454488770,6,12,18,9,6,10,1,1
1558441454488770,-5,-13,-28,-15,-9,0,-3,-6
1558441454501735,1,7,1,-1,1,2,-1,2
1558441454501735,3,1,-5,-2,-2,-3,-1,1
1558441454509711,-3,-4,6,1,0,-2,-2,-2
1558441454509711,0,6,3,4,4,-3,0,-1
1558441454534643,-3,2,-2,-2,-4,3,-2,-4
1558441454534643,-2,-8,-2,1,2,6,1,0
1558441454535642,0,3,-1,-1,-3,-16,-2,-2
1558441454535642,-1,3,6,1,1,0,0,-2
1558441454547613,-5,-11,-6,-2,-1,2,-1,-2
1558441454547613,3,8,5,1,2,4,1,1
1558441454548607,-4,-7,-9,-4,-4,6,1,-1
1558441454548607,-1,-1,-1,-3,-5,1,-7,-4
1558441454561573,1,3,6,1,-3,-9,-3,0
1558441454561573,-2,0,-1,0,1,2,5,0
1558441454569554,-1,-2,3,3,0,-3,-2,-2
1558441454569554,0,1,0,-1,2,-10,-3,0
1558441454584514,-3,0,0,-2,-6,0,-1,-2
1558441454584514,-2,-4,-6,-5,-5,-3,-4,-4
1558441454592489,0,2,6,3,10,14,7,2
1558441454592489,7,3,6,3,-2,-1,-3,0
1558441454607450,-12,-13,-9,-1,0,0,0,-3
1558441454607450,0,4,0,-2,-3,-8,-3,-3
1558441454608447,-1,0,-9,-4,-2,1,0,0
1558441454608447,-1,1,10,4,-1,-6,1,0
1558441454622409,3,2,2,-2,-1,-3,-3,1
1558441454622409,-1,-2,-5,-2,-3,-2,-5,-2
1558441454629391,1,2,10,4,1,2,0,-3
1558441454629391,-2,-7,-12,-7,-2,2,-4,0
1558441454644362,-1,-3,0,1,-6,0,-1,-2
1558441454644362,-2,-3,0,1,8,-10,4,4
1558441454652338,1,2,4,-3,-2,-1,-2,-1
1558441454652338,-1,-2,-5,-2,-3,-2,-3,-3
1558441454667293,2,4,-4,-1,4,0,-4,-1
1558441454667293,-3,-10,0,0,0,8,1,1
1558441454668295,-3,-5,-10,-7,-9,-14,-7,-2
1558441454668295,-3,-2,4,5,3,5,1,1
1558441454682258,0,2,1,-2,1,-1,1,-1
1558441454682258,1,2,-3,0,-3,2,-2,-3
1558441454689230,-1,0,3,-1,-5,-7,-3,-2
1558441454689230,-2,6,5,-1,-3,-6,-2,-1
1558441454704192,1,-1,1,1,4,10,2,1
1558441454704192,3,6,-2,-3,-1,-5,-4,0
1558441454712172,-5,-3,-9,-5,0,12,2,-1
1558441454712172,-3,-4,4,1,-6,-6,-5,-4
1558441454728129,1,3,4,2,1,-5,0,-1
1558441454728129,-2,3,-3,-2,3,6,5,0
1558441454728129,1,-1,-1,-1,2,-1,-2,0
1558441454728129,-1,-4,0,1,0,7,4,1
