timestamp,emg1,emg2,emg3,emg4,emg5,emg6,emg7,emg8
1558441489955109,-1,-1,3,-1,-5,-1,-3,-1
1558441489955109,-3,-1,-1,0,-4,-3,-3,-1
1558441489962090,1,2,-3,0,0,-6,3,-1
1558441489962090,-2,-5,7,2,3,4,-1,1
1558441489971068,0,-1,-4,-4,8,-2,8,0
1558441489971068,-3,-4,-8,-4,-8,-5,-7,-4
1558441489971068,-1,-2,0,0,0,9,1,0
1558441489971068,-1,1,-2,-3,-3,1,0,-4
1558441489975056,-2,-4,1,0,-6,-4,-7,-6
1558441489975056,0,2,4,2,12,7,3,2
1558441489976052,-1,0,1,-3,1,-3,1,0
1558441489976052,1,-1,-4,0,-4,-7,-7,-3
1558441489987024,4,2,-1,3,0,1,0,-1
1558441489987024,-12,-6,-5,-6,-5,-8,2,-2
1558441489999989,1,-1,0,0,2,5,-1,0
1558441489999989,-1,1,2,-1,-4,-8,-3,-1
1558441490005972,0,-3,-1,-1,-1,-2,0,0
1558441490005972,5,0,-12,-1,1,-1,-2,0
1558441490029909,-1,0,5,1,-2,3,-1,-1
1558441490029909,-3,-3,-3,-3,-3,3,-4,-5
1558441490030907,-2,1,4,0,0,4,0,0
1558441490030907,5,1,6,2,7,4,-1,-1
1558441490036891,-3,-4,-9,-6,-2,-9,2,-1
1558441490036891,-5,-9,-2,-1,-7,1,0,-2
1558441490044869,-1,-1,0,-2,-3,-9,-6,-1
1558441490044869,1,-2,-2,-1,0,5,-2,-3
1558441490091743,-2,-3,-6,-4,-5,-5,-4,-1
1558441490091743,-2,-1,-3,-1,-6,-3,-2,-2
1558441490092741,1,1,1,1,2,2,7,3
1558441490092741,0,0,1,0,2,-11,0,1
1558441490092741,-2,-1,1,1,4,4,0,0
1558441490092741,0,0,-5,0,-1,4,-3,-2
1558441490104709,-2,-4,-1,-3,-9,-3,-8,-6
1558441490104709,4,3,2,1,0,7,7,2
1558441490105706,-14,-12,-11,-5,-7,-11,-3,-4
1558441490105706,0,-1,-1,0,3,5,2,-1
1558441490110693,-1,1,5,2,5,-5,-2,-3
1558441490110693,-2,-3,-9,-2,-1,-3,-4,-2
1558441490135627,1,2,8,1,0,3,-2,-2
1558441490135627,1,0,-2,-2,-1,-3,-1,1
1558441490135627,-4,-4,-4,-3,-2,1,2,2
1558441490135627,-2,-5,-1,-1,-5,1,-4,-3
1558441490142607,3,1,-1,-2,4,2,1,1
1558441490142607,1,-1,4,-1,-5,-13,0,-1
1558441490155573,5,10,8,5,5,1,2,3
1558441490155573,-2,0,-5,-4,-2,-9,-3,-1
1558441490164548,-3,-9,-8,-3,-7,1,-6,-3
1558441490164548,0,1,3,1,-1,-11,-1,0
1558441490170532,-1,-3,-5,-3,-3,7,1,-1
1558441490170532,-1,1,0,1,2,12,1,-2
1558441490187487,3,5,9,3,3,-11,4,1
1558441490187487,-2,-3,-2,0,0,0,-3,-3
1558441490193471,-5,-9,-14,-10,-7,-3,-7,-4
1558441490193471,2,0,-3,-1,-3,0,-5,-1
1558441490202447,6,4,1,1,-4,-14,1,1
1558441490202447,-5,-6,-4,-4,1,3,0,-1
1558441490215413,-1,-2,2,0,-1,1,-3,-2
1558441490215413,-2,-5,-6,-4,-2,6,-5,-2
1558441490224388,1,2,0,-3,0,3,0,-2
1558441490224388,1,2,3,-1,-2,-9,3,1
1558441490230373,-1,1,0,2,2,0,-4,0
1558441490230373,-1,-2,-1,-2,3,-4,2,0
1558441490247328,-4,0,-3,0,2,10,-4,-2
1558441490247328,-3,-4,-3,-1,-1,5,-3,-1
1558441490262288,-1,2,3,2,-1,0,9,2
1558441490262288,-2,-4,-2,-1,-3,-11,-1,-2
1558441490263284,1,-3,-4,-4,-5,-7,-7,-1
1558441490263284,2,3,2,-1,-2,1,0,0
1558441490275253,-2,-5,2,1,4,-1,7,0
1558441490275253,-1,0,-2,2,0,2,-5,-3
1558441490284227,-3,-4,1,-1,-1,5,-3,-5
1558441490284227,-2,0,-5,-4,-5,2,-1,-2
1558441490298193,0,1,2,0,-3,-5,-2,-1
1558441490298193,0,0,-5,-3,0,-7,4,3
1558441490307167,0,1,-1,2,6,16,4,3
1558441490307167,-1,-4,-6,-3,-4,-5,-2,-1
1558441490313152,1,-2,-3,-5,-3,-11,-7,-2
1558441490313152,-13,-9,2,3,4,15,7,1
1558441490322127,2,4,3,-1,0,-13,5,1
1558441490322127,0,-2,2,-1,0,5,-1,0
1558441490336089,1,0,-7,0,3,-2,1,-1
1558441490336089,0,3,11,-1,-2,-1,-8,-2
1558441490351050,-1,-2,-9,-3,-5,1,-1,-1
1558441490351050,2,3,-2,0,1,-4,4,1
1558441490352047,-4,-4,-7,-1,2,10,-2,-2
1558441490352047,-1,2,-1,0,1,2,6,0
1558441490367007,1,-2,4,1,-1,-6,2,-1
1558441490367007,1,2,-7,-2,-2,3,-5,-1
1558441490372991,1,2,7,-2,-2,-6,-3,0
1558441490372991,-4,-11,-5,-2,-3,-4,-5,-2
1558441490381967,-2,-1,-2,-1,-5,-9,-4,-3
1558441490381967,-2,-4,5,0,-1,4,0,-4
1558441490395930,-5,-2,-8,-4,-6,-3,-7,-2
1558441490395930,1,4,2,2,4,6,10,3
1558441490404906,1,-2,-1,-3,0,-15,-6,1
1558441490404906,0,-2,-2,-2,4,3,-2,-1
1558441490410889,0,2,7,3,2,-3,2,1
1558441490410889,1,-1,-3,-4,-2,7,-4,-5
1558441490426848,0,-3,1,0,-3,6,2,-1
1558441490426848,-12,-7,-3,2,3,-1,1,-3
1558441490432832,-2,-1,-1,-1,-3,-6,-4,0
1558441490432832,1,1,-9,-3,-7,-16,-8,0
1558441490441807,-2,-1,1,-3,-5,-4,-1,-2
1558441490441807,4,4,8,0,0,5,0,0
1558441490455769,-6,-6,-5,0,4,8,5,-2
1558441490455769,3,5,4,2,7,4,2,3
1558441490464767,1,5,-4,-1,3,5,-3,-2
1558441490464767,-1,-8,1,-2,-1,8,3,0
1558441490470730,-1,0,-3,-3,-7,-8,-3,-1
1558441490470730,-1,2,4,-1,0,-6,0,-1
1558441490487685,-2,-1,-1,2,1,0,2,-1
1558441490487685,1,0,-1,-2,0,-3,2,0
1558441490493669,1,1,-2,-4,-1,4,4,-1
1558441490493669,0,-1,-4,0,-3,-11,-1,-2
1558441490502644,0,2,1,-3,2,4,-6,-2
1558441490502644,-6,-4,0,2,-2,0,-1,-1
1558441490515610,-2,-5,-9,-5,-1,-3,-2,-2
1558441490515610,1,-3,5,-1,-6,-10,-6,-3
1558441490524585,-1,2,0,0,-1,-8,3,0
1558441490524585,4,0,-8,-2,1,-7,0,1
1558441490530570,3,3,7,1,-1,5,-1,-2
1558441490530570,-8,-8,-2,-3,0,5,-3,-4
1558441490547524,-1,-3,3,-1,2,9,2,0
1558441490547524,-2,4,-8,-3,0,-10,-9,-2
1558441490553508,1,-2,1,1,-1,-7,2,2
1558441490553508,2,2,6,2,-5,-13,-8,-3
1558441490562484,-4,-2,-9,-4,-3,11,2,-2
1558441490562484,-1,0,-3,-2,2,10,4,-2
1558441490576446,2,-1,-2,-1,-3,0,-5,0
1558441490576446,3,5,8,4,4,-7,2,6
1558441490584425,-2,-5,1,-1,1,-2,-6,-2
1558441490584425,-4,-1,-5,-4,-3,-6,-2,-4
1558441490590410,-2,-2,-9,-3,-6,-1,-4,-3
1558441490590410,1,-1,3,-2,3,6,0,1
1558441490607364,2,3,2,1,-2,-4,5,1
1558441490607364,0,-1,5,0,-2,-2,-3,2
1558441490613348,-4,-3,2,0,-1,0,1,-4
1558441490613348,1,-1,0,0,0,8,2,-1
1558441490622324,0,-3,-11,-5,-4,-7,-1,0
1558441490622324,0,0,1,0,2,-6,-1,0
1558441490636286,1,0,0,0,0,-1,-5,-1
1558441490636286,-2,1,-5,-4,-3,11,2,-3
1558441490644266,1,-1,1,3,-2,-5,-2,-1
1558441490644266,-7,-13,-4,-3,-8,-5,-8,-6
1558441490650250,3,3,-1,-2,2,4,5,1
1558441490650250,-6,0,2,0,-3,-11,-1,-2
1558441490667205,0,0,-1,3,7,5,-5,1
1558441490667205,1,0,3,1,1,1,9,4
1558441490673188,-6,-6,-1,-1,-2,1,-6,-3
1558441490673188,1,-3,-14,-6,-6,-3,-3,0
1558441490690143,-1,4,1,0,-4,-7,-2,-2
1558441490690143,-1,-1,3,1,-4,1,-3,-1
1558441490696127,0,0,-6,-2,1,-2,2,-1
1558441490696127,-2,1,4,-1,-2,-11,0,-1
1558441490705103,0,1,1,1,5,2,2,2
1558441490705103,-1,0,0,-2,-3,0,-5,-3
1558441490711087,0,-4,-7,-7,-8,-10,-3,-2
1558441490711087,-1,1,3,0,7,21,5,1
1558441490727048,-5,-8,-8,-5,-4,5,-5,-5
1558441490727048,3,3,3,4,2,-2,1,0
1558441490733028,-2,-1,3,0,2,-1,-3,0
1558441490733028,-3,-2,-3,-2,-8,-10,-7,-5
1558441490742004,-1,0,4,3,7,10,0,-1
1558441490742004,1,3,-1,-5,-5,-1,3,1
1558441490755966,-2,-8,-7,-5,-4,-6,-2,-3
1558441490755966,-2,-4,-7,-2,0,5,-4,-1
1558441490770928,0,1,4,2,2,3,1,-1
1558441490770928,4,3,2,-1,0,-7,-8,-1
1558441490771924,-6,0,8,3,-2,-2,2,2
1558441490771924,4,1,-7,-3,1,-2,3,2
1558441490787881,-5,-6,-3,-4,-7,-11,-5,-5
1558441490787881,1,4,-5,-2,2,3,1,-2
1558441490792868,3,5,4,2,3,4,-1,-1
1558441490792868,-6,-16,-8,-3,-1,7,-5,-5
1558441490801843,-2,-2,-3,-2,-7,-10,-8,0
1558441490801843,-2,-2,0,0,0,2,3,0
1558441490815809,1,4,4,1,-7,-5,-5,-1
1558441490815809,1,4,4,3,9,11,6,2
1558441490824782,-1,0,-4,-2,2,-3,5,1
1558441490824782,-5,-7,-6,-4,-3,-7,-5,-4
1558441490830767,1,1,8,2,0,-3,1,-2
1558441490830767,-2,-1,-10,-7,-5,-3,-2,-3
1558441490855700,2,1,0,-1,-3,-2,2,-1
1558441490855700,-1,-1,5,2,2,-11,2,2
1558441490855700,-1,0,0,0,3,-1,7,3
1558441490855700,1,0,-2,0,-3,-2,-5,-3
1558441490862681,-1,-2,-2,-3,4,3,1,-1
1558441490862681,0,1,1,0,-3,6,-1,-1
1558441490875647,-2,0,-4,-3,-1,3,-3,1
1558441490875647,0,1,5,0,-3,-5,-1,1
1558441490884623,2,3,1,0,-1,6,-2,-2
1558441490884623,2,4,-1,-1,0,4,2,0
1558441490890609,-6,-2,5,3,4,3,-2,0
1558441490890609,1,-1,-4,0,2,0,6,0
1558441490907561,-5,-8,-6,-2,-5,2,-2,-3
1558441490907561,1,-1,-2,-4,-2,-2,-5,-3
1558441490913546,1,0,-5,-4,-3,0,-6,-3
1558441490913546,1,3,5,3,0,-11,5,1
1558441490922522,-1,-2,2,0,-1,-1,0,0
1558441490922522,-1,2,-2,1,1,-4,-1,0
1558441490935487,0,-5,-3,-2,-2,-5,-5,0
1558441490935487,-4,-4,-7,-5,-10,-6,-9,-4
1558441490944462,-2,-7,0,1,3,7,1,-2
1558441490944462,-1,2,5,3,3,-3,5,1
1558441490950451,5,1,0,0,10,1,5,0
1558441490950451,-2,-2,-2,-3,-7,-4,-8,-4
1558441490967401,0,2,-3,-1,-2,-2,-3,1
1558441490967401,-2,-4,-4,-4,-6,-2,-5,-5
1558441490973385,-1,0,-2,1,0,5,4,-2
1558441490973385,-1,0,-1,-1,0,-3,-1,-1
1558441490982362,0,-1,1,-3,-7,-4,-4,-2
1558441490982362,-4,-5,-1,1,1,4,2,1
1558441490995325,1,4,10,6,5,-1,0,3
1558441490995325,-2,-2,-9,-6,-4,-7,-2,2
1558441491004302,6,5,-3,-3,-5,-15,-1,0
1558441491004302,-21,-17,-1,-2,0,-5,-6,-4
1558441491010286,-1,-5,-7,-2,-1,10,-2,-4
1558441491010286,-3,-2,3,0,0,-2,-3,-4
1558441491027241,-1,1,4,2,7,8,8,0
1558441491027241,4,3,1,-3,-6,-11,3,4
1558441491033225,-4,-1,-5,0,0,1,4,-2
1558441491033225,0,3,3,2,-1,-4,-4,0
1558441491048197,-1,-7,-1,-2,1,9,0,-1
1558441491048197,2,1,-3,0,-2,8,-4,-5
1558441491056163,-3,-3,-1,-5,-7,-5,-5,-5
1558441491056163,3,2,6,2,4,5,7,3
1558441491065140,-2,2,1,-1,-2,-13,-5,-1
1558441491065140,4,2,-5,0,0,-8,-4,1
1558441491079104,-2,-5,-6,-9,-12,-15,-10,-3
1558441491079104,-1,-6,-1,1,2,3,1,2
1558441491087081,-2,-2,3,2,6,12,2,0
1558441491087081,-1,-2,1,-3,-6,0,-3,-2
1558441491102051,2,6,0,-1,2,-1,3,0
1558441491102051,-4,1,0,1,3,3,4,-1
1558441491103045,-3,-4,1,3,4,1,0,0
1558441491103045,0,0,-6,-2,-1,4,1,-1
1558441491116011,2,2,2,1,2,1,-1,0
1558441491116011,-1,0,1,-1,-6,0,-6,-3
1558441491124983,5,5,2,0,-2,-8,-2,-1
1558441491124983,-14,-13,-7,-6,-10,-8,-5,-6
1558441491138953,-1,2,6,4,9,14,9,2
1558441491138953,1,-1,1,-1,3,-4,-7,-1
1558441491146932,-2,-2,-13,-3,-3,-6,4,-1
1558441491146932,3,3,-1,-3,-1,-4,-8,-3
1558441491161980,-3,-12,-6,-4,-10,-5,-4,-1
1558441491161980,-2,-1,3,-2,-9,-6,-7,-1
1558441491163876,1,1,2,3,10,18,3,0
1558441491163876,0,2,0,-1,1,2,1,1
1558441491175845,-2,3,0,1,-1,0,1,0
1558441491175845,3,0,2,0,4,-3,4,-1
1558441491184820,-6,-5,-5,-8,-12,-15,-15,-6
1558441491184820,0,0,-4,-2,1,7,2,-1
1558441491197787,-2,2,0,-2,1,-1,-4,-1
1558441491197787,-2,-3,-5,0,2,3,-2,-2
1558441491206803,0,1,2,2,-2,-1,5,0
1558441491206803,2,-2,5,0,1,-4,0,1
1558441491222777,1,-5,-9,-4,-5,-9,0,-2
1558441491222777,-1,0,0,-2,-2,-7,-3,1
1558441491223719,-2,-1,1,-4,-10,-8,-4,-3
1558441491223719,0,-1,-2,2,3,5,3,2
1558441491244815,-2,-2,2,0,4,-4,3,-1
1558441491244815,2,1,-5,1,6,6,3,1
1558441491245660,-4,0,-1,-1,-1,-3,0,2
1558441491245660,4,5,2,0,-6,-13,-3,0
1558441491258774,-1,-9,-2,-2,-1,-9,-5,-3
1558441491258774,2,2,1,0,-6,-5,-3,-3
1558441491274578,-13,-11,-6,-3,-8,-2,-4,-3
1558441491274578,0,-1,-4,-1,3,15,5,1
1558441491289571,0,7,5,3,6,11,7,0
1558441491289571,-6,-5,-10,-9,-4,-7,-2,-3
1558441491291537,2,1,-5,0,-2,-12,-1,-2
1558441491291537,1,1,8,0,0,-1,-1,-2
1558441491295523,-3,-3,-8,-6,-7,-1,-9,-3
1558441491295523,-2,0,-3,-3,-2,0,-3,-1
1558441491304500,0,-8,-4,-3,-6,-1,-1,0
1558441491304500,0,-3,1,2,2,-1,4,1
1558441491318496,1,4,3,2,4,0,-2,0
1558441491318496,-2,-1,-3,-2,-2,-2,-1,0
1558441491327438,0,2,0,0,-3,-2,-3,-1
1558441491327438,-2,-1,-2,0,2,1,-3,-3
1558441491342401,-2,-2,-4,-2,-2,8,1,-1
1558441491342401,0,1,3,-2,-4,-2,-2,-2
1558441491344396,1,1,2,1,0,6,-1,-1
1558441491344396,1,-1,2,1,2,-1,6,1
1558441491356361,1,4,3,0,1,-1,-3,0
1558441491356361,-3,-5,-1,2,-2,1,2,-2
1558441491364342,-3,-5,-3,-2,0,-4,2,1
1558441491364342,-6,-5,-11,-8,-6,-2,-8,-4
1558441491378302,-1,-1,-2,0,-6,-8,-6,-3
1558441491378302,0,-3,-2,1,1,9,1,-2
1558441491387280,1,5,2,-3,-2,3,-2,-3
1558441491387280,0,-2,-2,1,7,6,6,2
1558441491401240,-2,-5,2,-1,1,2,4,1
1558441491401240,0,-1,4,-1,-7,-17,-1,-1
1558441491409219,-1,0,0,0,5,3,3,2
1558441491409219,4,1,-2,-1,-6,-4,-10,-3
1558441491416212,-1,0,-4,-4,-8,-9,-4,-1
1558441491416212,-1,-2,3,1,1,-3,0,0
1558441491425262,4,5,2,2,4,10,-2,0
1558441491425262,0,-7,-3,-2,2,-8,3,1
1558441491438326,0,-6,-4,-4,-2,2,1,1
1558441491438326,-3,2,-4,-3,-3,-2,-3,-2
1558441491447119,-1,0,8,0,3,-4,-2,1
1558441491447119,-3,0,0,2,-4,-4,-4,-4
1558441491470056,-1,-1,-6,-6,-7,-6,-8,-2
1558441491470056,-1,-4,-4,-5,0,6,2,-1
1558441491471053,0,1,-4,0,-1,-9,-1,1
1558441491471053,0,1,-1,0,8,15,3,-1
1558441491501169,2,4,-1,-1,1,-8,-2,0
1558441491501169,0,-1,-2,0,-1,6,-3,-3
1558441491503003,-5,-10,-3,-4,-10,1,-8,-5
1558441491503003,0,0,3,0,0,-2,1,2
1558441491503003,-1,1,-4,2,5,-12,5,1
1558441491503003,0,-1,7,2,3,-2,3,3
1558441491507052,6,1,-4,0,-1,-4,2,-1
1558441491507052,-15,-11,-7,-7,-8,-6,-10,-5
1558441491522027,-3,-1,1,-2,-6,4,-6,-3
1558441491522027,-2,-2,-2,-1,0,2,7,0
1558441491553868,-1,1,0,1,5,-6,3,0
1558441491553868,-2,1,-2,-4,-6,-1,-7,-2
1558441491553868,2,2,8,4,6,2,8,1
1558441491553868,-3,-4,-5,-3,-8,-10,-9,-3
1558441491555828,-2,-6,-2,-3,-3,4,-1,-2
1558441491555828,3,0,-2,1,2,-1,1,1
1558441491557892,-3,-4,-2,-1,-3,-6,-2,0
1558441491557892,4,0,-1,-1,1,2,-1,3
1558441491566827,-3,-1,1,-2,0,-4,-5,-1
1558441491566827,1,3,1,0,-1,1,0,2
1558441491581789,-2,-1,2,-1,3,11,1,-1
1558441491581789,-2,-5,-8,-1,1,1,1,-1
1558441491587843,-2,2,-5,-4,-4,-13,-6,0
1558441491587843,-3,-6,1,0,-2,-6,0,-1
1558441491611752,0,3,6,1,-2,5,-2,-1
1558441491611752,-2,-2,-2,-2,-2,0,-1,2
1558441491613747,-1,-1,-1,-1,1,13,5,-2
1558441491613747,5,5,3,0,-7,-17,-4,0
1558441491617737,0,-3,-7,-1,2,-6,-1,1
1558441491617737,0,3,4,-1,1,1,0,0
1558441491634691,-2,-1,1,-2,0,4,2,1
1558441491634691,-1,0,0,-1,-3,6,-1,-5
1558441491641698,-1,0,-2,-3,-5,-1,-7,-2
1558441491641698,-1,-5,2,2,5,5,7,1
1558441491648653,-2,-5,-1,2,4,3,0,-1
1558441491648653,0,3,4,1,2,6,5,0
1558441491664609,-3,-2,0,0,-2,-10,-3,-4
1558441491664609,0,-1,-7,-3,-7,-5,-6,-3
1558441491670621,0,0,0,0,-2,2,4,0
1558441491670621,-2,-3,-6,-5,-2,1,0,0
1558441491687550,2,1,5,2,2,1,5,1
1558441491687550,-1,0,0,1,3,2,-4,-3
1558441491688546,-2,1,-10,-4,0,-9,-3,-3
1558441491688546,0,1,-1,-1,-3,-3,-4,-1
1558441491726448,-4,-8,-7,-4,-8,1,-2,-3
1558441491726448,-2,0,5,0,1,-1,4,-1
1558441491727445,0,-1,7,2,5,4,-2,1
1558441491727445,0,1,-8,-2,-3,-2,-1,3
1558441491728445,-1,-1,2,-2,-3,1,-4,-2
1558441491728445,-1,-1,2,-1,-1,2,-2,-1
1558441491732429,-1,2,5,2,-1,0,0,0
1558441491732429,2,-1,-1,-1,2,-1,3,-1
1558441491738456,3,0,-4,-1,2,9,-2,-1
1558441491738456,-3,-5,-2,-2,2,-2,-2,2
1558441491747389,2,0,1,-2,-5,-8,-7,-3
1558441491747389,-11,-6,1,2,3,10,5,-1
1558441491761389,1,0,-2,0,-1,-4,-3,-2
1558441491761389,-1,1,-3,-5,-5,-2,-4,-2
1558441491768333,-2,0,0,1,2,0,3,2
1558441491768333,-1,1,2,-2,-3,-9,-1,-2
1558441491784296,-6,-3,-5,-3,-4,-7,-2,0
1558441491784296,-1,2,1,1,0,1,-1,-1
1558441491786291,1,-2,-2,-3,-2,-6,0,-1
1558441491786291,2,1,-5,-2,0,-3,-7,-2
1558441491798262,0,0,2,0,4,11,5,0
1558441491798262,0,4,5,2,-2,-4,-3,-2
1558441491823186,-2,-5,-7,-3,-4,7,2,0
1558441491823186,-4,-7,1,1,4,0,2,1
1558441491824184,0,2,-3,-2,-3,-10,-11,-2
1558441491824184,-1,2,4,2,-1,4,8,3
1558441491828171,-4,-3,-13,-6,-3,-6,-7,-3
1558441491828171,-1,-2,-1,-4,-7,4,-8,-4
1558441491845439,-2,-1,0,1,-1,-3,0,0
1558441491845439,0,5,-4,-5,-3,2,-7,-6
1558441491846123,0,-4,6,4,0,0,5,2
1558441491846123,2,1,-2,1,3,-1,-2,3
1558441491858441,-12,-12,0,1,-1,-4,2,-3
1558441491858441,0,0,-8,-6,-4,-5,-2,-3
1558441491867071,1,2,2,2,1,6,-11,0
1558441491867071,4,3,2,2,1,-2,4,1
1558441491882081,0,0,1,0,0,-1,-1,-4
1558441491882081,-4,-4,-7,-2,-3,2,-1,-1
1558441491888338,-3,-3,-4,-3,-6,-9,0,0
1558441491888338,-1,0,1,-3,-1,-7,-1,-2
1558441491905295,1,4,-1,3,2,3,-2,1
1558441491905295,-1,-3,1,2,2,6,3,1
1558441491905966,2,4,-2,-4,-6,-6,-7,-4
1558441491905966,0,-3,4,3,4,2,7,1
1558441491918930,-3,0,0,-2,-5,-3,-1,-3
1558441491918930,-2,-4,-8,-4,-1,-3,-5,-3
1558441491933959,-1,-3,-5,-5,-6,-1,2,0
1558441491933959,0,3,1,-1,-2,5,-1,-4
1558441491941872,0,-5,-2,-2,-1,-4,-1,0
1558441491941872,1,3,9,4,5,-1,-1,2
1558441491947855,-1,0,-2,1,4,6,-1,1
1558441491947855,-1,-3,-8,-4,-7,-3,-9,-3
1558441491965809,1,-2,-3,-2,-4,-2,9,4
1558441491965809,3,-1,2,0,1,-3,0,-2
1558441491966804,1,4,6,0,-2,-1,1,-1
1558441491966804,-4,-5,-4,-2,1,-1,-1,0
1558441491977770,-1,-1,2,-1,-2,-2,-11,-2
1558441491977770,-3,-4,-11,-5,-3,1,-1,0
1558441491986781,1,1,4,0,3,-2,8,2
1558441491986781,0,1,-1,-1,-1,-3,1,-1
1558441492001709,0,1,-2,-1,-3,4,-3,-2
1558441492001709,-4,-5,0,1,-4,1,-7,-1
1558441492008690,1,0,1,-3,-4,-3,-7,-2
1558441492008690,1,-3,4,6,6,6,6,4
1558441492024680,-2,-4,-13,-7,0,-6,0,-2
1558441492024680,-2,-2,3,0,-1,0,0,-2
1558441492026641,-2,-3,-4,-2,-3,-3,-4,-2
1558441492026641,0,2,0,-4,-9,-8,-5,-3
1558441492038608,2,3,1,2,10,15,4,2
1558441492038608,-1,-2,9,5,8,-8,7,3
1558441492054690,-3,-1,-3,-3,-1,4,1,-2
1558441492054690,-2,-1,-1,-4,-5,2,-7,-3
1558441492061546,-2,-3,-3,-2,-2,2,2,0
1558441492061546,2,2,-2,-2,-5,-18,0,-1
1558441492068832,2,0,-2,3,1,-11,0,3
1558441492068832,3,4,2,-3,2,5,0,2
1558441492084806,-13,-5,-11,-6,-4,-4,-7,-6
1558441492084806,3,2,8,1,0,1,3,2
1558441492086482,-3,-7,-6,0,0,-1,-2,-2
1558441492086482,-2,-3,-1,-1,1,0,-8,-4
1558441492098888,2,4,7,4,1,-2,1,1
1558441492098888,1,1,-2,-1,2,2,-6,-2
1558441492107425,-7,-9,-9,-7,-8,2,-1,-4
1558441492107425,-2,2,-2,-1,-1,-7,2,-1
1558441492121708,-2,-5,-1,-3,-7,0,-3,-4
1558441492121708,-2,-3,1,0,-4,-13,-4,-1
1558441492128677,2,7,3,2,10,14,5,1
1558441492128677,-1,0,-5,-2,2,-2,-3,-1
1558441492145337,1,-2,4,0,-3,3,-5,-2
1558441492145337,-3,-4,-12,-7,-8,3,-3,-3
1558441492146324,0,0,1,4,2,-10,5,4
1558441492146324,-1,0,-2,-3,-5,-7,3,1
1558441492158499,0,2,2,2,10,4,5,1
1558441492158499,-1,-3,-5,-2,-5,6,-4,-2
1558441492167271,-1,1,7,-2,-6,-2,-7,-4
1558441492167271,-1,0,0,3,4,10,0,-2
1558441492182234,2,1,1,-2,-1,-8,-5,0
1558441492182234,0,0,4,0,2,-5,1,-1
1558441492188419,-1,2,-8,-4,1,9,-2,-1
1558441492188419,-3,-2,0,-1,-4,-2,-5,-4
1558441492205350,0,-9,-1,0,-3,-6,4,2
1558441492205350,0,0,4,0,1,-2,-1,0
1558441492206165,1,-4,-12,-6,-1,-3,-3,-3
1558441492206165,-1,0,-1,1,2,3,-4,-2
1558441492218138,0,5,-9,-7,-6,-2,-4,-2
1558441492218138,-2,3,3,2,3,-8,3,3
1558441492227105,-3,-5,2,2,-4,-20,-4,1
1558441492227105,0,-1,2,0,3,5,4,2
1558441492242063,0,-3,-3,1,-2,-2,-2,-3
1558441492242063,0,-4,-8,-5,-5,6,-5,-5
1558441492248048,0,1,-1,-1,3,10,4,1
1558441492248048,0,-3,-3,-4,-3,-9,-3,0
1558441492265003,-1,-2,0,-4,-7,-11,-2,-1
1558441492265003,-3,-2,-2,-1,-3,10,-1,-4
1558441492271310,0,1,7,3,4,5,4,3
1558441492271310,-3,-4,-2,-2,1,-10,0,2
1558441492278969,3,3,0,-2,1,6,0,-3
1558441492278969,1,4,3,2,0,-1,0,-2
1558441492287139,-9,-15,-7,-1,-7,-7,-3,-8
1558441492287139,2,2,1,-1,1,8,0,0
1558441492302192,3,2,-2,1,-1,6,0,2
1558441492302192,-12,-9,-6,-4,1,-4,-5,-2
1558441492308942,6,7,8,-1,-6,-5,-5,-2
1558441492308942,-5,-6,-7,-1,1,6,0,-2
1558441492324135,-2,-1,-1,-1,0,1,4,0
1558441492324135,1,-6,-1,-1,5,9,4,0
1558441492330828,-3,0,1,0,1,4,-6,0
1558441492330828,-2,-6,-5,-3,-9,-18,-7,-4
1558441492338811,-2,-2,-4,-3,-1,3,-2,-2
1558441492338811,1,6,6,3,2,-8,-1,2
1558441492346785,0,-1,-4,0,2,-2,2,0
1558441492346785,1,0,-2,-4,-7,-1,-3,-5
1558441492362040,-3,0,0,0,-4,-1,-1,-2
1558441492362040,1,-1,-7,-2,-1,-1,1,-2
1558441492368727,-2,-2,1,1,2,3,1,2
1558441492368727,3,6,4,1,-1,-9,1,0
1558441492384253,0,-4,2,-1,-1,-10,0,0
1558441492384253,0,-2,-1,-1,-7,-1,-5,-3
1558441492398927,-1,1,5,-1,2,7,1,-3
1558441492398927,-3,-4,-9,1,8,12,7,0
1558441492399643,-1,1,3,0,-4,-14,-4,2
1558441492399643,2,2,-5,-3,-5,-1,-3,-1
1558441492407624,-1,1,2,0,-4,0,-2,-2
1558441492407624,2,2,-4,-1,1,-11,0,2
1558441492421583,2,1,-1,0,2,7,3,-1
1558441492421583,-6,-10,0,-1,-4,-1,-4,-2
1558441492428595,-3,-1,-1,-1,0,4,-1,-3
1558441492428595,0,1,3,-1,-3,-7,-5,-2
1558441492443555,1,0,-6,-3,1,5,1,-1
1558441492443555,-2,1,1,-5,-8,0,-1,-3
1558441492450848,2,2,1,3,5,0,1,1
1558441492450848,-1,-1,3,0,2,-4,-1,3
1558441492467796,-3,-2,6,0,10,11,9,4
1558441492467796,-3,-2,-15,-6,-5,-5,-7,-6
1558441492469460,-2,-4,-5,-4,-12,-8,-8,-3
1558441492469460,2,2,2,0,3,15,6,1
1558441492481495,1,-2,0,0,3,-1,1,-2
1558441492481495,-3,-5,-1,2,2,-7,0,0
1558441492489451,1,1,0,0,1,-5,1,1
1558441492489451,-2,-3,-1,-2,-5,4,0,-1
1558441492504663,-2,-1,-2,-3,-7,0,-8,-5
1558441492504663,2,3,5,3,1,-2,7,4
1558441492518671,2,1,-3,-1,7,-5,2,2
1558441492518671,-2,0,0,-1,-2,4,5,0
1558441492527654,-7,-10,-4,-1,-3,-1,-11,-6
1558441492527654,-1,-4,0,0,-1,-2,-5,-3
1558441492528565,0,-2,0,-1,-7,-8,4,2
1558441492528565,3,0,-1,2,2,-2,-2,1
1558441492541587,4,3,-5,-4,1,0,1,2
1558441492541587,-9,-5,3,0,5,11,-2,0
1558441492566197,-1,2,-5,-2,-1,8,1,-3
1558441492566197,-2,-4,-3,-4,-6,-7,-9,-6
1558441492566197,4,4,0,2,4,2,4,1
1558441492566197,3,3,5,1,0,-8,0,4
1558441492579166,-2,-4,-6,-6,-3,2,-3,-5
1558441492579166,-3,-3,-2,-2,-8,1,-8,-7
1558441492603101,-3,-1,0,0,4,-3,-3,1
1558441492603101,6,6,8,3,10,6,12,5
1558441492604098,-1,-3,0,0,-5,-3,-3,-2
1558441492604098,-4,-8,-7,-4,-3,-6,-5,-2
1558441492605101,-1,2,3,-1,1,0,-2,-5
1558441492605101,-3,-4,-7,-3,-4,6,1,-3
1558441492610081,-1,-2,-6,-3,-5,-7,-3,0
1558441492610081,-2,1,0,1,2,-3,-3,-3
1558441492632023,-5,-4,-2,-2,-5,-1,0,0
1558441492632023,2,-1,-2,-3,0,-4,-5,-2
1558441492633021,0,0,-1,-1,-3,2,0,0
1558441492633021,0,0,2,0,1,7,1,0
1558441492671149,1,0,-3,0,-6,-18,-4,-4
1558441492671149,0,1,-2,1,1,6,1,-3
1558441492673057,-3,-2,1,0,0,4,1,-1
1558441492673057,1,0,1,1,0,-7,5,3
1558441492673057,1,2,1,-3,-7,-15,-2,1
1558441492673057,0,-3,-7,-4,-8,3,-3,-1
1558441492676901,-1,0,1,0,3,-1,-4,-1
1558441492676901,-2,-5,1,0,-4,3,0,0
1558441492684132,1,2,-1,1,4,5,4,0
1558441492684132,-3,-3,-4,-6,-12,-7,-7,-4
1558441492691124,-4,0,1,-1,1,5,-5,-4
1558441492691124,2,2,-3,-2,-2,-7,-2,-3
1558441492708075,-5,-7,-5,-2,-7,-3,-4,-2
1558441492708075,3,5,-7,0,16,11,4,3
1558441492708819,-3,-6,3,2,6,7,3,2
1558441492708819,1,2,2,1,-2,-6,2,0
1558441492721016,-1,-3,1,-3,-4,-4,-2,-1
1558441492721016,-2,1,3,1,2,0,1,0
1558441492729759,2,2,1,2,-1,4,2,0
1558441492729759,-1,0,-3,-1,4,3,-1,0
1558441492744985,-1,-1,-3,-3,-5,-3,-1,-1
1558441492744985,-1,-1,0,-1,-4,-12,-9,-3
1558441492750962,1,-2,-3,-1,-4,-5,-2,1
1558441492750962,-1,0,2,2,5,13,2,0
1558441492766932,-5,-2,0,-1,-2,4,-4,-3
1558441492766932,-1,-1,2,-1,1,-7,0,-1
1558441492773903,1,-3,-7,-4,-6,-7,-4,-2
1558441492773903,-5,-3,-2,-2,-3,2,-5,-1
1558441492780624,2,1,-4,-1,3,13,2,1
1558441492780624,-5,1,10,6,-3,-8,4,1
1558441492836474,3,3,-7,-3,0,-9,2,-1
1558441492836474,-1,0,-4,-3,-2,2,-5,-2
1558441492837472,-5,-10,1,2,-1,-8,-2,-3
1558441492837472,0,-4,-10,-7,1,21,2,-3
1558441492842489,-3,-2,1,0,0,-3,-2,-1
1558441492842489,1,4,1,-1,2,-8,7,4
1558441492843455,2,6,1,-2,-1,2,-4,-1
1558441492843455,0,-2,3,-1,-8,-5,0,-2
1558441492844488,-1,-2,-2,0,-4,-4,-3,-2
1558441492844488,1,-2,-1,2,8,8,8,4
1558441492849438,-1,-1,4,3,-1,3,-1,-3
1558441492849438,-3,-5,2,-3,-8,-5,-9,-6
1558441492863402,0,5,-4,-2,-2,-6,-1,-1
1558441492863402,2,1,-6,-3,1,1,5,2
1558441492895758,-6,-13,4,3,0,3,5,0
1558441492895758,1,0,1,-2,2,-7,-3,-1
1558441492896316,-4,-4,-5,-3,1,8,2,-2
1558441492896316,5,4,0,0,0,0,-5,0
1558441492897311,-2,0,-4,-5,-8,-9,-5,1
1558441492897311,0,-2,1,-1,0,-2,5,0
1558441492901228,0,2,0,-2,-3,-6,-5,-3
1558441492901228,0,0,2,0,-4,-3,-2,-3
1558441492909793,-5,-5,-6,-5,-4,-5,-3,-4
1558441492909793,2,3,0,2,-5,0,-1,-1
1558441492932190,0,2,7,3,7,11,0,-2
1558441492932190,-2,-10,-7,0,-5,-7,1,-3
1558441492933808,0,-3,-5,-6,-6,-9,-6,-4
1558441492933808,-7,-3,-7,-2,-1,5,-2,-2
1558441492948121,3,5,8,2,4,-4,3,6
1558441492948121,-2,3,3,1,-4,-14,-5,-3
1558441492948690,2,3,-5,0,4,-2,3,1
1558441492948690,-2,-1,4,2,-2,2,3,-2
1558441492960970,-1,-4,-4,0,-7,-4,0,-2
1558441492960970,-3,-6,-1,-4,-9,-6,-14,-7
1558441492969632,0,2,0,0,-2,1,-1,-1
1558441492969632,0,-2,-5,-1,4,-3,6,3
1558441493000783,0,-2,2,1,5,-4,2,4
1558441493000783,-4,-1,-3,-2,1,1,-3,-1
1558441493001549,1,5,4,0,0,4,1,0
1558441493001549,-1,-4,-1,-2,-6,-6,-3,-2
1558441493014513,-3,-1,-5,-3,-11,-4,-6,-4
1558441493014513,-1,0,1,1,8,6,5,3
1558441493015512,-1,-2,-1,1,5,7,0,-3
1558441493015512,0,-2,3,0,-5,-9,-6,-3
1558441493020705,-1,-3,-6,-2,2,-2,-3,-3
1558441493020705,-3,5,-4,-3,-3,-8,-1,0
1558441493054405,0,2,3,1,1,10,-1,0
1558441493054405,-4,-7,-3,-1,-2,2,1,0
1558441493054405,-2,1,3,-2,-3,9,0,-2
1558441493054405,1,3,-2,2,-1,-4,-4,-1
1558441493058420,0,1,-4,-5,-1,-15,1,1
1558441493058420,1,2,0,0,-4,-3,-6,-1
1558441493067370,-3,-5,-9,-4,4,3,2,0
1558441493067370,-1,-1,3,0,-3,4,-2,0
1558441493068368,-1,0,1,1,-1,-2,-2,1
1558441493068368,0,2,6,2,0,1,-1,1
1558441493106266,-1,-5,-10,-5,-4,-7,-5,-4
1558441493106266,0,-3,-2,-2,-1,4,-1,-1
1558441493107264,-3,-2,-2,-2,-1,-2,0,-2
1558441493107264,-2,-1,0,-1,2,-3,-1,0
1558441493108260,0,1,5,4,3,5,1,0
1558441493108260,1,0,-2,-3,-1,-5,0,0
1558441493112251,2,4,-1,-3,-5,0,-6,-2
1558441493112251,-9,-13,-7,-5,-8,-7,-6,-6
1558441493127561,-1,2,2,0,9,4,10,5
1558441493127561,2,3,2,1,3,0,1,-1
1558441493128567,1,0,2,0,-7,-1,-2,-2
1558441493128567,-4,-3,-9,-6,-5,6,-7,-4
1558441493141491,2,1,8,1,4,-1,3,5
1558441493141491,-1,-1,-2,-2,-7,-13,-3,0
1558441493149502,-1,-4,-4,0,2,-4,-3,0
1558441493149502,5,10,3,0,0,6,4,1
1558441493165568,-4,-9,-8,-2,-3,-2,-5,0
1558441493165568,-3,-4,-3,-3,-7,-11,-1,0
1558441493172375,-2,1,4,2,7,10,4,1
1558441493172375,2,2,3,2,5,5,7,0
1558441493188333,1,5,8,4,1,2,-3,-1
1558441493188333,-4,-6,-8,-4,1,-2,-3,-1
1558441493189047,-3,-3,-4,-4,-5,-13,-5,-1
1558441493189047,-5,-11,-5,-4,-6,-4,0,1
1558441493218272,0,0,0,-2,-9,0,1,-2
1558441493218272,1,1,5,4,4,9,3,0
1558441493218967,-1,0,0,0,0,-3,0,-1
1558441493218967,6,10,8,4,8,-4,5,2
1558441493224221,-3,-8,-19,-8,-6,-11,-5,-4
1558441493224221,-3,-2,-3,-3,-8,-13,-9,-3
1558441493230963,-2,-2,1,-4,-1,11,0,-3
1558441493230963,-3,-2,-4,0,-2,-5,-4,-1
1558441493246891,-2,-2,0,-3,-3,1,0,-2
1558441493246891,3,-1,2,1,5,5,5,3
1558441493248915,-1,-2,-3,1,10,1,5,1
1558441493248915,-1,0,-2,-3,-4,-1,-3,-3
1558441493278149,-4,1,4,-1,-4,3,-6,-5
1558441493278149,-1,-3,-9,-3,-4,-3,-3,-3
1558441493278808,-2,-1,4,1,1,1,3,1
1558441493278808,1,0,-4,-3,-1,-4,-2,-1
1558441493284075,2,-2,0,0,-7,-9,-5,-4
1558441493284075,-9,-1,6,1,8,14,3,-2
1558441493298855,1,-4,-7,0,-1,2,0,1
1558441493298855,-1,0,-4,-3,2,1,-2,-1
1558441493306774,1,3,3,0,4,-12,6,5
1558441493306774,0,-3,-2,-3,-12,-9,-12,-5
1558441493331669,0,0,1,1,0,1,2,0
1558441493331669,-1,1,-2,3,4,2,1,0
1558441493337699,0,-2,-5,-5,-3,-5,-7,-5
1558441493337699,0,0,5,1,-2,-5,4,3
1558441493338654,-1,-2,-2,-1,0,3,0,-1
1558441493338654,-3,-5,-11,-8,-4,-3,-5,-2
1558441493343900,-5,0,-3,1,-3,6,-3,1
1558441493343900,-1,-5,1,-1,-1,2,-2,-2
1558441493350881,1,0,5,0,-9,-3,-4,-3
1558441493350881,3,4,3,-2,-2,-10,-6,0
1558441493367837,0,-5,0,3,-2,0,-3,1
1558441493367837,-2,-1,-13,-3,8,3,3,1
1558441493396491,1,2,4,2,3,8,3,3
1558441493396491,-1,-2,-2,-3,-1,0,-1,-2
1558441493405736,-2,-2,-1,-5,-6,-8,-5,-5
1558441493405736,0,1,4,1,-4,-2,0,0
1558441493407468,4,0,-1,0,-2,-7,-2,-1
1558441493407468,-10,-6,3,1,0,-4,-8,-3
1558441493408460,2,3,-1,0,2,17,4,-3
1558441493408460,0,-3,-1,0,1,1,3,0
1558441493412449,-2,2,-6,-5,-5,-14,-5,-2
1558441493412449,2,-1,3,2,1,4,0,3
1558441493443515,-3,0,11,3,4,4,5,2
1558441493443515,-3,-4,-20,-9,-6,-5,-6,-3
1558441493444363,-1,-2,3,1,2,-2,-1,-1
1558441493444363,4,5,2,0,3,7,7,0
1558441493449349,-2,3,1,-2,-5,-7,-3,-1
1558441493449349,-1,-3,-4,-3,-4,3,-3,-4
1558441493451344,-6,-7,-9,-6,-1,-8,2,1
1558441493451344,3,2,8,5,2,-1,-2,-1
1558441493464311,0,1,-2,-2,1,1,-2,1
1558441493464311,2,5,7,3,-1,5,6,2
1558441493478301,-2,-4,-18,-7,-11,-6,-3,-4
1558441493478301,-1,-4,-2,-3,4,18,8,2
1558441493495330,2,2,13,7,0,-11,-5,1
1558441493495330,3,3,10,2,-2,-9,1,0
1558441493496225,-14,-15,-21,-8,-1,7,-2,-5
1558441493496225,2,9,-1,0,-5,-8,-5,-2
1558441493517428,-2,0,-1,-2,-4,3,4,-1
1558441493517428,-10,-19,-8,-3,-2,1,-8,-7
1558441493518166,5,9,26,12,8,8,6,0
1558441493518166,-4,-5,-27,-12,-7,-14,1,-2
1558441493524430,2,4,1,-2,0,-3,-4,-1
1558441493524430,5,4,22,9,7,3,3,4
1558441493538401,2,2,-13,-7,-4,-1,-2,0
1558441493538401,-5,-2,12,2,-3,-2,-8,-2
1558441493571300,1,-4,-9,-4,1,0,7,3
1558441493571300,-1,5,0,0,1,1,1,0
1558441493572244,0,-5,-9,-5,-5,-2,-4,-2
1558441493572244,0,-2,3,2,2,8,8,1
1558441493573019,-2,-1,-1,0,0,1,-1,0
1558441493573019,4,9,0,-4,1,0,-1,0
1558441493577007,-1,-7,9,5,-4,-7,-5,0
1558441493577007,-1,-2,8,4,5,2,-1,-3
1558441493585083,-7,-13,-26,-14,-7,3,-2,-4
1558441493585083,1,5,6,2,-1,-9,3,2
1558441493598225,5,8,-7,-3,3,0,-2,2
1558441493598225,-13,-10,1,-2,-9,-7,-1,-2
1558441493606189,0,-1,6,5,7,10,-6,-3
1558441493606189,0,0,-7,-6,-9,-2,-1,-3
1558441493612917,-1,0,2,-1,-5,-6,-4,-5
1558441493612917,5,7,13,6,-1,-4,-1,1
1558441493629881,-2,-4,-8,-2,9,8,0,1
1558441493629881,-2,-2,-3,0,-3,-9,2,3
1558441493630865,-4,-1,-6,-5,-5,2,-2,-2
1558441493630865,-3,-6,-14,-7,-4,5,-2,-4
1558441493643855,2,4,11,5,2,-9,1,0
1558441493643855,-6,-11,-15,-5,-3,-9,-2,-1
1558441493657796,-1,1,7,4,7,11,-1,0
1558441493657796,5,5,-2,-4,-4,-4,-1,-2
1558441493667017,-3,0,-5,-1,-1,-3,-3,-1
1558441493667017,0,-3,12,7,2,3,-4,-2
1558441493672752,-2,-3,-4,-2,-7,-4,3,-4
1558441493672752,2,-3,-11,-7,-6,0,-4,1
1558441493689709,3,6,6,3,5,5,7,0
1558441493689709,0,-2,7,0,-3,-5,-2,-1
1558441493691870,0,5,1,-2,5,6,0,0
1558441493691870,-1,-3,3,-2,-3,-9,-3,-3
1558441493704135,2,-2,-11,-3,-9,-3,-1,-2
1558441493704135,-3,-6,-2,-3,-6,0,-8,-4
1558441493711083,2,2,2,2,5,1,5,5
1558441493711083,-1,-1,-7,-1,4,-3,1,1
1558441493726963,-4,-2,1,-2,-6,-4,-3,-4
1558441493726963,-2,-1,-5,1,2,16,0,-4
1558441493733923,-1,0,8,0,1,-9,-5,-1
1558441493733923,-1,-4,-2,3,2,3,-1,-2
1558441493749874,-2,-3,5,-2,3,-2,5,1
1558441493749874,1,-2,-12,-4,-1,8,0,-2
1558441493750544,-1,-4,0,-2,-7,-5,-1,-3
1558441493750544,-1,2,-4,-3,-3,-9,-3,-2
1558441493764622,1,3,5,3,0,-3,0,2
1558441493764622,1,5,2,0,1,-3,-2,0
1558441493771490,0,2,-1,-2,-1,2,-5,-2
1558441493771490,0,2,4,4,5,9,2,0
1558441493786745,-10,-16,-16,-7,-2,-1,-9,-3
1558441493786745,2,6,-2,-4,-9,-12,-7,-3
1558441493793431,-1,-10,-3,-1,-2,-14,5,3
1558441493793431,2,1,13,3,4,14,1,0
1558441493809696,3,2,-3,2,2,-4,3,-1
1558441493809696,-3,-6,-16,-11,-10,-4,-5,-3
1558441493811382,-3,-5,1,2,1,-6,-3,1
1558441493811382,-1,4,0,-2,-3,-8,-1,1
1558441493824636,1,2,7,4,9,4,2,3
1558441493824636,-2,-4,2,1,-1,1,0,-2
1558441493831456,-2,-7,-2,-2,-4,4,1,-3
1558441493831456,2,3,-10,-5,-5,-2,1,1
1558441493846287,-4,-11,5,1,-4,2,-1,-2
1558441493846287,2,0,1,-1,-4,-13,-6,-2
1558441493854526,-2,12,-13,-4,-3,12,3,-4
1558441493854526,-4,-18,-6,1,4,-6,1,-1
1558441493869493,-3,-3,-3,-2,-4,-2,-7,-5
1558441493869493,-2,4,2,-1,3,1,7,4
1558441493871221,2,-2,9,-1,-7,-14,-10,-2
1558441493871221,0,7,12,5,7,13,11,3
1558441493884188,2,-4,-19,-6,-5,-6,-2,-1
1558441493884188,5,11,7,0,6,14,2,0
1558441493891475,-3,14,-2,-4,-4,-13,-9,-3
1558441493891475,-13,-43,-13,-7,-7,-11,-5,-1
1558441493907193,8,14,12,3,6,0,5,5
1558441493907193,-1,7,4,2,0,1,-2,-4
1558441493913108,-4,-14,-8,-2,-5,9,-1,0
1558441493913108,0,38,10,1,1,-3,1,-4
1558441493929066,-4,-27,-11,-3,-4,-10,-6,-3
1558441493929066,14,38,-3,-3,6,5,6,6
1558441493931065,-16,-27,-1,-3,-1,1,-4,-8
1558441493931065,-8,-38,2,3,-4,1,-5,-5
1558441493943320,-6,3,-20,-13,-6,-5,-2,0
1558441493943320,-13,-38,-6,0,-2,-7,-1,-5
1558441493952008,8,24,8,2,1,10,3,0
1558441493952008,8,11,-1,-1,-1,-15,-7,0
1558441493966246,2,7,7,1,1,6,3,0
1558441493966246,-1,-3,2,0,0,-5,-2,0
1558441493973249,2,5,2,1,7,3,6,4
1558441493973249,0,5,-1,-1,-2,2,-10,-5
1558441493990199,0,5,6,0,-7,-4,1,0
1558441493990199,-5,-10,-20,-6,-10,-3,-8,-5
1558441493990901,-1,-4,5,7,5,7,-1,-3
1558441493990901,4,4,-18,-8,-4,-5,0,0
1558441494004003,-3,1,6,-3,-4,-5,-11,-6
1558441494004003,-3,-11,16,5,3,-3,5,1
1558441494019828,0,-1,-14,-7,1,-5,0,-1
1558441494019828,-3,1,-8,-2,0,5,-1,-2
1558441494027087,-5,-4,3,2,-3,6,-1,-2
1558441494027087,-3,-3,-5,-4,-8,-11,-8,-1
1558441494033927,5,3,14,8,7,4,4,3
1558441494033927,2,2,-2,-5,-3,-1,-1,0
1558441494050018,-3,1,-5,-3,-3,-1,1,-2
1558441494050018,2,-3,2,4,6,13,0,-1
1558441494050743,0,3,-1,1,2,-12,-2,1
1558441494050743,-7,-10,-1,-6,-6,0,-4,-4
1558441494062710,6,6,18,9,5,7,7,2
1558441494062710,1,-5,-14,-1,-1,-3,-3,-2
1558441494071968,-9,-12,-12,-12,-4,-1,-5,-3
1558441494071968,-4,-1,3,1,0,-1,-1,-3
1558441494086646,-3,3,-3,-2,-4,-1,0,-2
1558441494086646,0,3,9,6,8,9,2,-1
1558441494093625,-3,-9,-21,-8,-6,-3,4,-3
1558441494093625,1,0,0,1,-9,-16,-11,-4
1558441494110092,0,1,1,1,5,6,0,-2
1558441494110092,0,-1,1,-1,6,10,0,0
1558441494111937,3,3,5,-3,-10,-6,-6,-2
1558441494111937,0,3,1,1,3,3,2,2
1558441494123605,-2,-1,2,6,6,8,10,2
1558441494123605,-6,-8,-8,-13,-4,-2,-4,-4
1558441494132540,10,12,6,3,-3,4,-3,0
1558441494132540,-13,-11,-4,-3,-4,-9,0,-4
1558441494162442,-4,-10,7,2,-1,-6,-5,0
1558441494162442,3,6,-5,-1,3,-6,5,3
1558441494163438,-5,-5,4,2,3,8,4,1
1558441494163438,9,10,-1,1,3,6,0,1
1558441494169422,-3,-5,-6,-6,-3,-4,-6,-2
1558441494169422,-6,-4,-1,-2,-9,-10,-9,-2
1558441494170420,-1,-4,-8,-1,0,2,1,-4
1558441494170420,4,6,10,6,10,8,11,6
1558441494183616,-2,0,-4,-5,-8,-9,-14,-7
1558441494183616,1,2,-4,-3,-3,1,-5,-1
1558441494198624,-4,-5,-1,-2,1,0,0,1
1558441494198624,0,-2,-3,3,-1,-2,2,-1
1558441494206357,5,5,7,2,5,1,3,3
1558441494206357,-7,-5,-8,-3,-4,-4,-7,-6
1558441494213309,0,1,1,1,-4,0,-2,-1
1558441494213309,-2,-6,-5,-3,-1,3,5,-1
1558441494229269,3,6,5,-1,-3,-2,1,1
1558441494229269,-2,3,-7,-1,2,-1,2,1
1558441494236339,-1,-6,9,3,4,-6,-1,0
1558441494236339,1,0,-6,-5,-4,2,-2,0
1558441494243509,-5,-5,-4,-2,-7,-4,-5,-4
1558441494243509,1,5,7,0,0,7,6,-1
1558441494252204,1,2,5,5,7,7,5,2
1558441494252204,0,3,-5,-5,-3,-10,-1,2
1558441494266464,-4,-5,-12,-4,-4,4,-6,-5
1558441494266464,3,3,6,4,3,1,2,0
1558441494273145,1,0,-1,-6,-6,-17,-6,-2
1558441494273145,-14,-14,-1,0,-1,0,-5,-4
1558441494289102,-1,2,0,1,0,0,9,3
1558441494289102,-1,-4,4,-1,3,-1,-1,0
1558441494296083,1,4,1,3,-3,4,-3,-3
1558441494296083,-1,-2,-5,-6,-7,-3,-3,-5
1558441494312039,-2,-3,-9,-5,-1,-3,-2,-4
1558441494312039,-2,-2,6,3,4,-4,3,3
1558441494313039,2,5,4,-1,-2,-6,1,0
1558441494313039,2,1,-6,-4,0,8,3,1
1558441494326353,-2,-7,-11,-4,-2,-1,-5,-2
1558441494326353,0,1,3,1,-3,-2,2,1
1558441494333320,-2,-1,6,4,5,-3,0,1
1558441494333320,4,0,-13,-10,-1,0,-5,-1
1558441494349277,-2,-5,-4,-8,-4,-3,-2,-1
1558441494349277,-4,3,-1,1,-4,-2,-1,0
1558441494356258,-3,-3,-6,-4,-5,-3,-4,-5
1558441494356258,5,5,17,7,4,4,1,-1
1558441494362905,5,7,-6,-3,0,-3,5,1
1558441494362905,-7,-18,-8,-3,1,-5,-4,-1
1558441494372335,2,2,-5,-1,0,10,5,1
1558441494372335,-2,-3,12,4,-1,-4,3,-1
1558441494388861,-1,7,-5,-2,-1,-1,-8,-2
1558441494388861,-3,-4,10,3,1,0,2,1
1558441494393879,-2,-6,-23,-9,-7,-10,-4,-5
1558441494393879,-2,-3,1,-1,-8,-7,-9,-3
1558441494409120,0,-6,-3,-1,2,2,2,0
1558441494409120,6,8,3,3,1,3,2,0
1558441494416103,-14,-8,-4,-4,4,-4,1,0
1558441494416103,3,4,8,3,0,5,2,0
1558441494432748,-5,-1,-13,-7,-6,-5,-9,-4
1558441494432748,-1,-5,-6,-2,2,5,-5,3
1558441494433748,4,1,6,3,-3,2,7,4
1558441494433748,-4,0,-3,-3,-2,1,-1,-2
1558441494446681,3,8,11,2,-4,-13,-7,-3
1558441494446681,3,-5,-14,-6,1,2,0,-2
1558441494453844,-9,-13,-2,-2,1,-5,0,-1
1558441494453844,1,-2,2,-1,-4,-5,-1,3
1558441494468740,4,5,11,4,5,11,2,2
1558441494468740,-2,-7,-1,-3,0,3,1,-1
1558441494475603,2,11,6,0,-4,5,-3,-6
1558441494475603,-1,6,-7,-1,2,2,1,-2
1558441494491560,-2,-15,2,-1,1,-14,-5,0
1558441494491560,4,12,1,2,-1,4,-3,-2
1558441494493554,-6,-16,-11,-10,-11,-12,-6,-4
1558441494493554,3,8,-4,-2,3,1,5,3
1558441494506521,-4,-6,0,0,-1,4,6,1
1558441494506521,-3,-5,-2,1,-2,-1,-2,-3
1558441494513502,4,3,12,4,3,5,-2,1
1558441494513502,-3,-3,-14,-5,-1,0,4,-2
1558441494529459,-1,4,2,-2,-6,-9,-5,0
1558441494529459,5,4,-8,-5,-2,6,7,1
1558441494537439,-7,-8,-6,1,3,4,-2,2
1558441494537439,-1,0,3,1,1,-5,-8,-3
1558441494552890,-4,-12,-7,-2,-5,-9,1,-2
1558441494552890,-5,-4,4,-1,0,2,-4,-3
1558441494553398,5,10,2,2,0,-7,1,1
1558441494553398,-1,-8,1,-1,1,5,-7,-2
1558441494566402,-1,-7,-1,2,7,3,6,1
1558441494566402,-5,-13,-9,-5,-4,-2,-2,-2
1558441494573797,5,-1,1,-4,-1,2,4,-2
1558441494573797,1,3,5,0,-6,-13,-10,-2
1558441494589792,1,15,1,2,-1,2,0,1
1558441494589792,-4,-11,1,0,-5,-7,-5,-5
1558441494595663,-1,-5,-4,-3,-3,4,-6,-2
1558441494595663,0,0,-9,-3,4,-1,3,1
1558441494612239,0,-8,-2,-1,0,5,-1,0
1558441494612239,-2,6,-3,1,1,-5,1,0
1558441494613278,6,10,7,2,-3,-4,-7,-2
1558441494613278,7,4,9,4,6,4,1,2
1558441494626560,-10,-22,-13,-5,-3,1,-2,-2
1558441494626560,-3,2,5,-2,-3,2,-1,-3
1558441494633510,4,20,-1,-2,-1,-8,-6,-4
1558441494633510,-18,-53,-7,2,3,12,4,0
1558441494649622,12,44,20,5,6,-4,7,4
1558441494649622,-15,-30,-15,-5,-11,-11,-8,-7
1558441494663102,1,-4,3,-2,2,0,2,2
1558441494663102,2,8,-4,-4,-5,-11,-5,-2
1558441494672529,1,6,3,0,-1,7,0,0
1558441494672529,10,24,6,1,4,1,2,1
1558441494674294,-7,-13,-1,-1,-3,-1,-1,-3
1558441494674294,-1,-1,-7,-3,-5,3,-5,-4
1558441494686513,-11,-22,0,0,-1,-1,-5,-3
1558441494686513,0,1,0,-4,-3,-20,-1,-3
1558441494693080,-2,1,-5,-1,2,6,-2,2
1558441494693080,-3,-10,-10,-4,-5,2,7,-4
1558441494708978,9,33,7,3,0,7,-1,0
1558441494708978,4,18,3,-3,3,4,2,3
1558441494716348,-3,-13,-3,2,2,-5,-4,-1
1558441494716348,-4,2,-7,-7,-7,-7,-6,-2
1558441494731920,-3,-21,-8,-2,-5,-4,-5,-3
1558441494731920,7,21,3,1,7,0,10,5
1558441494733912,-2,0,5,-1,-6,-7,-8,-4
1558441494733912,3,19,12,4,-1,10,0,-1
1558441494745880,6,5,-1,-1,0,-5,0,1
1558441494745880,-3,-4,5,1,0,0,-1,2
1558441494753897,-9,-25,-8,-5,0,5,11,0
1558441494753897,-5,-16,-7,1,-4,-5,-3,-6
1558441494768820,-1,-5,-13,-8,-4,-13,-6,-2
1558441494768820,0,3,0,3,-2,8,-2,-2
1558441494776144,5,12,5,1,4,1,-1,0
1558441494776144,1,7,7,1,-1,-3,0,2
1558441494791759,-8,-4,4,6,3,3,1,-2
1558441494791759,-3,-7,-8,-12,-5,-6,-4,-4
1558441494793753,-4,-2,-9,-3,-8,-2,-8,-3
1558441494793753,5,5,-11,-6,-1,1,0,-1
1558441494806716,3,5,5,-1,1,3,2,2
1558441494806716,-11,-17,1,5,5,6,0,-4
1558441494812727,0,14,4,0,-1,-6,0,0
1558441494812727,-2,-3,2,1,4,-8,4,3
1558441494828660,6,5,3,1,4,3,-1,-1
1558441494828660,-6,-22,-11,-5,-2,8,2,-2
1558441494835640,-3,-7,3,4,2,0,2,-2
1558441494835640,8,16,2,1,-2,-3,0,0
1558441494851597,-7,-13,-3,-2,1,5,9,-1
1558441494851597,-2,3,-2,0,-4,-8,-10,-3
1558441494853604,-3,-2,11,3,-2,3,0,-3
1558441494853604,-2,-7,-15,-5,-2,-1,-3,0
1558441494866940,1,6,5,-1,1,6,3,-1
1558441494866940,3,8,-2,-3,-1,-14,4,0
1558441494873913,-3,-17,5,1,-3,2,-4,-2
1558441494873913,1,7,-2,-4,2,9,1,-2
1558441494889686,1,-6,-10,-3,1,-12,-2,0
1558441494889686,3,0,1,0,-4,-6,-3,0
1558441494895488,-7,-3,-5,-4,-5,-2,3,1
1558441494895488,-1,3,14,5,-2,-7,-5,-2
1558441494912434,-5,-11,-16,-8,-4,8,-8,-4
1558441494912434,5,6,-7,-3,-4,1,-2,0
1558441494913436,10,20,3,0,1,-4,-5,-2
1558441494913436,-11,-21,6,3,5,-5,0,-1
1558441494925400,-9,-9,-12,-9,-13,-11,-6,-5
1558441494925400,1,13,9,6,5,6,6,4
1558441494934401,-3,-13,-11,-3,-3,-6,-2,-4
1558441494934401,2,9,7,2,-2,0,-3,-2
1558441494949340,0,0,3,-2,-1,-1,-3,-1
1558441494949340,-6,-10,-7,-5,-3,1,2,-1
1558441494955640,9,17,0,2,5,-5,0,5
1558441494955640,-1,-12,0,-1,-1,-7,-1,1
1558441494972276,1,-4,5,1,0,4,1,-1
1558441494972276,1,2,11,6,1,-4,-3,-2
1558441494973275,-3,-11,-17,-9,-3,-1,2,1
1558441494973275,6,16,-10,-5,-4,0,-1,-2
1558441494985666,-5,-7,-4,-3,0,-4,-3,-1
1558441494985666,4,-4,10,4,-2,5,-1,0
1558441494995298,-4,9,-2,-3,-5,-5,-11,-6
1558441494995298,-6,-19,-5,-1,0,3,4,0
1558441495009177,3,9,0,0,1,-3,3,2
1558441495009177,3,9,4,3,4,4,3,2
1558441495015173,8,11,11,2,5,11,7,3
1558441495015173,-14,-11,-8,-7,-11,-10,-9,-4
1558441495032115,-9,-15,0,-1,-5,0,-6,-5
1558441495032115,-3,-4,0,-1,-1,-5,-1,-1
1558441495033112,-1,-8,-3,0,2,4,-2,1
1558441495033112,2,13,10,5,1,-5,7,2
1558441495046077,9,12,3,-2,2,-5,2,3
1558441495046077,-6,-23,-17,-10,-8,-1,-6,-2
1558441495054058,-24,0,0,-1,-1,5,2,-4
1558441495054058,3,-2,-1,2,4,5,1,-1
1558441495069016,-4,-4,9,4,3,3,-3,-1
1558441495069016,-1,3,-6,-5,-9,-2,-3,-4
1558441495075996,2,-6,-18,-5,4,3,7,2
1558441495075996,0,3,5,-1,-1,-5,-3,0
1558441495091956,-4,-6,-6,-2,-3,4,-2,-1
1558441495091956,4,7,8,3,1,-4,-3,1
1558441495097940,4,3,11,4,6,4,6,5
1558441495097940,-8,-7,-14,-7,-3,1,-3,-4
1558441495105918,3,3,-2,-1,-7,-3,-2,-2
1558441495105918,-6,-6,-3,-5,-3,-1,-6,-4
1558441495114893,3,1,-5,-2,-9,-15,-11,-5
1558441495114893,6,2,-1,-1,0,6,4,2
1558441495128857,-6,-7,1,1,0,-3,-2,-2
1558441495128857,2,-2,0,0,7,12,9,2
1558441495136132,3,7,6,2,-2,1,-1,-1
1558441495136132,-5,-18,-7,-7,-6,-2,-7,-3
1558441495151795,5,17,0,1,0,5,7,3
1558441495151795,-11,-13,-6,-1,-4,-11,-4,-2
1558441495157983,8,7,1,1,4,3,0,-2
1558441495157983,5,16,6,0,-2,-7,-6,-1
1558441495165997,0,11,7,-1,0,-2,4,0
1558441495165997,-4,-27,-8,-4,-3,-7,-9,-2
1558441495174741,-4,-16,-3,-2,-1,2,0,0
1558441495174741,2,8,-7,-2,-2,-2,-8,-4
1558441495188695,0,-1,0,-2,1,6,0,2
1558441495188695,8,24,9,4,-3,0,3,2
1558441495195680,-4,-5,-4,-3,4,5,7,0
1558441495195680,-15,-12,3,2,-3,-3,-2,-3
1558441495211634,-1,-8,-2,-4,-3,-5,-2,-4
1558441495211634,3,11,-2,-2,-1,4,-5,-4
1558441495217620,0,-5,0,1,-1,1,-5,0
1558441495217620,16,28,2,2,7,0,6,6
1558441495225598,-12,-11,-8,-4,-7,-5,4,1
1558441495225598,4,-4,4,2,-1,-3,-3,-1
1558441495234573,-9,-16,-13,-13,-10,-10,-6,-7
1558441495234573,-5,-5,4,1,3,7,3,2
1558441495248539,2,-1,6,5,5,3,-1,-1
1558441495248539,10,20,-2,-4,-3,1,1,2
1558441495255519,1,3,7,1,-5,-7,-4,-2
1558441495255519,-4,-8,-9,-3,1,-8,5,-1
1558441495271474,-4,-8,-2,-1,-2,-6,-3,-5
1558441495271474,-1,0,0,2,7,13,5,0
1558441495278456,1,0,1,-2,-3,2,3,-3
1558441495278456,-1,4,9,3,3,8,-5,-1
1558441495285599,3,-2,-8,-5,-2,-5,-3,-3
1558441495285599,-9,0,4,-2,-6,-8,-1,-3
1558441495294412,-1,-4,-3,3,-3,-3,-5,1
1558441495294412,5,5,1,0,8,1,9,4
1558441495308377,3,7,-11,-3,-4,-4,-7,-2
1558441495308377,3,3,-6,-5,-2,-2,-1,-2
1558441495315362,-15,-15,-9,0,-6,-2,-5,-4
1558441495315362,0,-8,7,1,-7,-6,0,-2
1558441495331313,-4,-10,10,5,6,1,9,4
1558441495331313,-3,1,-14,-5,2,-7,-2,-4
1558441495338328,7,13,-1,-3,-3,1,-2,-1
1558441495338328,0,-4,-2,-3,-1,2,-3,0
1558441495354252,2,4,-2,1,-7,-6,-8,-4
1558441495354252,1,6,7,-2,2,2,1,2
1558441495356249,-8,-26,-2,1,-1,3,-1,-1
1558441495356249,-10,-6,-9,-5,-3,1,-3,-6
1558441495369249,4,1,2,0,-1,2,2,0
1558441495369249,-7,-6,7,1,-1,-8,-5,-1
1558441495376198,6,13,-4,-4,-3,-7,1,1
1558441495376198,-1,-15,-1,1,-3,-5,-2,-3
1558441495392197,-1,8,-1,-2,-2,0,-2,0
1558441495392197,-8,-25,-7,-3,-1,2,-1,-5
1558441495398140,3,1,-3,0,0,-2,3,1
1558441495398140,13,16,12,3,2,-3,3,5
1558441495414111,-14,-21,-1,-1,-4,-8,-3,0
1558441495414111,1,4,-7,0,2,3,5,3
1558441495416088,2,1,-1,0,1,3,0,1
1558441495416088,-2,-3,-2,-3,-2,4,-4,-3
1558441495429056,1,2,6,0,-1,1,-1,-2
1558441495429056,-1,-1,-1,0,-2,-5,-8,-4
1558441495436039,1,8,5,-2,2,11,4,3
1558441495436039,2,6,2,3,-3,-8,-3,0
1558441495450994,-8,-14,-6,-5,4,6,4,0
1558441495450994,-2,-1,-11,-4,0,-2,0,-1
1558441495457975,4,5,5,1,-1,-11,-3,-1
1558441495457975,-1,6,-2,-1,0,6,-2,0
1558441495474930,1,-1,-2,-3,-1,9,-10,-2
1558441495474930,3,5,11,3,1,-1,8,4
1558441495480914,-14,-16,-19,-4,4,2,2,-3
1558441495480914,-1,0,0,-5,-10,-16,-5,-3
1558441495488891,-8,-9,-3,-1,1,2,-4,-3
1558441495488891,1,-6,2,0,-7,7,-1,0
1558441495495875,11,13,13,6,7,-2,3,3
1558441495495875,-3,-6,-8,-3,1,5,3,1
1558441495511832,2,11,3,1,-5,-2,1,-2
1558441495511832,-2,-1,-1,-1,-1,7,-5,-3
1558441495518021,0,-1,2,1,-4,-2,-7,-4
1558441495518021,-1,-7,-9,-5,-4,-15,1,2
1558441495534986,3,11,0,2,2,-4,4,0
1558441495534986,-2,-6,1,0,-1,-6,-1,0
1558441495535772,-1,1,-1,-1,0,-2,-5,-4
1558441495535772,-4,0,0,0,3,13,0,-1
1558441495548736,0,0,-2,-4,-4,-9,-2,-2
1558441495548736,-7,-4,-3,0,-5,-3,-2,-3
1558441495555717,0,-3,-1,-4,-7,-6,-9,-3
1558441495555717,3,2,8,4,5,9,3,2
1558441495571670,1,2,-5,0,8,14,6,1
1558441495571670,-1,-1,0,-2,-6,-14,-9,-3
1558441495585650,-6,-8,-6,-3,-2,-1,-1,-2
1558441495585650,-1,-4,-8,-4,-6,-10,-7,-5
1558441495594669,5,1,2,-2,-7,-4,-4,-1
1558441495594669,-6,1,-6,-2,8,5,6,-2
1558441495595607,-3,6,1,1,-2,4,-1,1
1558441495595607,-1,-8,8,4,-2,1,2,-1
1558441495608600,-5,2,-17,-5,-2,-9,0,-3
1558441495608600,1,-12,-1,0,-1,-1,-8,-2
1558441495615726,2,7,1,-1,1,5,4,0
1558441495615726,-7,-7,-4,-1,2,2,-4,-6
1558441495631570,0,-5,3,2,-1,2,1,1
1558441495631570,4,9,-3,-4,-3,-1,4,2
1558441495638491,0,-4,-5,-3,-6,-2,0,-1
1558441495638491,-3,-12,0,-2,-5,-11,-3,0
1558441495654625,3,6,7,2,7,12,1,1
1558441495654625,-5,-3,-7,-3,-1,-8,-3,-3
1558441495655448,0,-5,2,1,5,7,5,1
1558441495655448,-1,4,-8,-5,-5,-3,-4,-4
1558441495668411,0,-3,4,0,-3,-7,-1,0
1558441495668411,1,2,4,1,-1,8,2,0
1558441495675422,-2,6,1,-3,-6,-6,-6,-4
1558441495675422,-3,-2,-6,0,-5,-2,-5,-1
1558441495691350,-3,-8,-2,2,6,9,3,2
1558441495691350,5,-3,-7,-6,0,-2,-2,0
1558441495698333,-12,-8,-1,-2,-1,-15,-4,-3
1558441495698333,-2,-6,-3,-2,0,6,-2,-2
1558441495714292,4,8,4,1,1,1,0,1
1558441495714292,1,1,7,1,-3,1,-3,-1
1558441495716285,2,3,-8,-4,-4,-4,-2,-3
1558441495716285,-1,1,5,2,5,-2,8,3
1558441495729249,-7,-13,-5,-5,-9,-11,-7,-2
1558441495729249,-1,-2,1,4,5,11,3,2
1558441495735239,1,2,-2,-1,0,1,3,3
1558441495735239,-1,-10,-4,-4,-7,-1,-7,-2
1558441495751220,2,0,-6,-5,-5,-16,-2,-1
1558441495751220,-4,-6,0,-1,2,4,-2,0
1558441495765156,0,1,1,-2,-6,-1,-1,-1
1558441495765156,5,14,2,1,6,9,6,2
1558441495774129,2,4,3,3,3,2,-1,-1
1558441495774129,-12,-13,-7,-5,-5,-3,-4,-2
1558441495776127,-1,-6,7,4,3,6,-1,-2
1558441495776127,-2,-1,-6,-2,-5,-8,-2,1
1558441495789123,1,4,-5,-4,-9,-7,-11,-4
1558441495789123,6,4,-4,-4,-4,-13,-3,-1
1558441495796072,-11,-10,1,1,2,3,6,1
1558441495796072,2,6,4,5,14,10,8,3
1558441495811106,-3,-9,5,3,-2,-7,-2,-1
1558441495811106,-1,0,-10,-5,-5,-4,-1,-4
1558441495818017,3,-1,-1,0,3,3,-2,1
1558441495818017,-3,-10,-3,-5,-8,-4,-9,-6
1558441495834028,-5,0,1,-6,-10,-9,3,1
1558441495834028,8,15,15,6,14,7,15,8
1558441495835964,-2,-15,-7,1,4,0,3,1
1558441495835964,-5,-2,-14,-8,-3,7,-1,-3
1558441495847933,-2,-9,-5,-3,-1,5,-3,-4
1558441495847933,-3,3,5,3,-7,-1,-5,-3
1558441495856910,4,2,-2,-2,-3,-13,-4,0
1558441495856910,1,2,5,1,1,-3,-2,-2
1558441495870930,-3,1,0,-2,-6,-1,-4,-3
1558441495870930,2,3,1,-1,-1,-4,0,0
1558441495877853,-8,-4,-2,-1,3,-3,1,-2
1558441495877853,0,-3,-1,0,-3,-5,-7,-3
1558441495894807,-15,-15,-1,1,9,15,2,-2
1558441495894807,-1,0,-1,-1,-5,1,-2,-2
1558441495895805,5,6,-2,-2,-5,-1,-3,-1
1558441495895805,-1,-8,-3,-2,2,-12,3,0
1558441495907775,4,13,10,2,0,-2,6,0
1558441495907775,-2,2,-8,-1,7,8,0,-1
1558441495916748,-3,-8,-7,-3,-6,-1,-7,-4
1558441495916748,2,12,5,-1,-3,3,-1,-2
1558441495931955,3,0,4,6,7,-1,-3,0
1558441495931955,-4,-8,-4,0,-1,-11,-3,-1
1558441495938771,1,1,-2,-6,-7,-2,-2,-2
1558441495938771,-2,-1,5,2,1,-5,-1,-1
1558441495961627,2,3,-13,-7,-3,3,0,0
1558441495961627,-4,-5,-5,-2,-4,-6,-1,0
1558441495963624,-5,-6,-1,1,-2,4,-1,-2
1558441495963624,3,0,-1,-1,-1,0,-1,0
1558441495967822,-2,-1,-3,-2,-2,-7,-3,-2
1558441495967822,-3,-1,2,-1,2,14,0,-3
1558441495976588,8,2,4,3,-2,-26,1,3
1558441495976588,6,15,16,1,-3,4,-3,1
1558441495991771,-9,-20,-29,-11,-5,-3,-1,-2
1558441495991771,-7,-15,-4,-2,0,-5,-4,-4
1558441495998529,-2,2,8,3,-1,8,-3,-3
1558441495998529,-6,-10,-4,-5,1,-1,-3,0
1558441496014487,11,17,5,-2,-3,-3,5,3
1558441496014487,-10,-24,-3,-3,-5,0,-6,-5
1558441496015484,2,3,5,2,7,9,9,3
1558441496015484,4,5,5,4,3,2,2,1
1558441496028450,-5,0,4,-1,0,6,-3,-4
1558441496028450,-4,0,-6,-2,-4,-9,-4,-1
1558441496037426,4,6,0,-1,0,3,2,-1
1558441496037426,-10,-17,-13,-4,-7,-9,-5,-5
1558441496051387,1,-2,-1,0,3,-1,-1,-1
1558441496051387,2,10,8,0,-6,-2,0,-1
1558441496058369,-1,-1,-2,-2,3,-10,-3,2
1558441496058369,1,-4,-3,2,6,14,2,0
1558441496073332,-4,5,6,3,-4,-6,-7,-4
1558441496073332,5,2,1,-4,-4,-9,-2,-1
1558441496080310,-4,3,2,0,-7,0,-8,-6
1558441496080310,-6,-8,-24,-13,-8,2,5,-2
1558441496088290,-11,-21,6,3,4,-2,0,1
1558441496088290,6,5,0,2,4,7,2,1
1558441496097267,1,0,-1,-2,-2,5,1,-1
1558441496097267,4,12,16,7,6,4,3,1
1558441496111229,3,0,1,-2,4,0,-2,0
1558441496111229,-3,-4,-15,-7,-8,-20,-3,1
1558441496118211,-3,0,3,2,1,-2,0,-3
1558441496118211,0,2,-5,-2,-4,-3,-10,-1
1558441496134358,0,-5,1,2,-2,3,6,0
1558441496134358,-1,2,7,1,3,0,-1,-1
1558441496140150,1,-2,-7,-6,-4,-1,-5,-2
1558441496140150,0,-1,2,3,4,3,2,1
1558441496148149,4,9,1,-2,-3,-1,-2,0
1558441496148149,1,-1,5,2,-1,-9,-1,3
1558441496157105,-2,-1,-10,-6,-4,0,-5,-5
1558441496157105,-3,-1,4,-1,0,5,1,-2
1558441496171068,-5,-5,-9,-2,-2,4,-4,-4
1558441496171068,3,-1,0,0,-2,-4,1,-1
1558441496178049,9,10,6,1,4,5,1,3
1558441496178049,-14,-11,-12,-6,-11,-14,-11,-2
1558441496202045,-1,-4,0,1,5,10,9,2
1558441496202045,-6,-1,-6,-1,2,1,-1,-2
1558441496202986,-2,-4,-3,-1,-3,2,-1,0
1558441496202986,5,10,4,1,-1,-8,1,0
1558441496207969,4,5,0,0,1,-7,-5,2
1558441496207969,5,9,3,0,-2,0,4,0
1558441496216944,-11,-9,1,-1,-1,-4,-2,-2
1558441496216944,-3,0,1,-1,0,7,3,-2
1558441496230907,-4,1,-4,-6,-10,-6,-8,-9
1558441496230907,-5,-16,-24,-8,-5,-9,-5,-2
1558441496237925,1,2,1,1,0,3,0,2
1558441496237925,1,3,0,-1,-2,4,3,-1
1558441496254104,0,-7,2,-1,-2,1,-1,-3
1558441496254104,0,7,11,5,4,2,3,2
1558441496267810,-6,-4,-5,-2,-2,-11,-3,-1
1558441496267810,-5,-11,-2,1,0,3,-4,0
1558441496276784,2,4,2,0,5,3,6,3
1558441496276784,-1,0,-4,-4,-5,5,-3,-3
1558441496278781,0,-4,-2,-2,-4,-6,-3,-1
1558441496278781,8,7,7,1,3,-9,0,2
1558441496291747,-5,6,1,2,3,6,0,-4
1558441496291747,-11,-25,-11,-5,0,4,2,-2
