timestamp,emg1,emg2,emg3,emg4,emg5,emg6,emg7,emg8
1558441420841746,-3,-6,1,-2,-2,-2,-1,1
1558441420841746,0,3,1,0,-2,1,0,0
1558441420842744,7,14,4,0,-3,1,-4,0
1558441420842744,-2,-3,-3,-1,1,-2,1,-1
1558441420844738,-7,-17,-9,-4,-3,-7,-6,-5
1558441420844738,3,1,5,1,-2,2,1,0
1558441420845747,-8,-16,-11,-4,3,11,1,-2
1558441420845747,-1,7,-3,-3,-11,-11,-6,-3
1558441420852716,2,2,3,-4,-4,-7,-5,0
1558441420852716,-1,0,-4,0,9,4,5,3
1558441420858702,1,7,12,3,3,-1,1,-1
1558441420858702,2,-2,-10,-5,1,9,1,0
1558441420866680,-5,-9,-1,0,-5,2,-6,-3
1558441420866680,-4,-2,-2,-3,-2,-5,-1,-4
1558441420881640,-4,-11,-4,-3,-7,-18,-2,0
1558441420881640,-2,4,11,3,5,6,0,1
1558441420888621,0,-1,-10,-1,6,5,6,0
1558441420888621,-2,-3,-7,-3,-4,4,-6,-4
1558441420904578,-1,2,4,1,0,-3,-5,-1
1558441420904578,3,5,5,-3,0,0,-4,0
1558441420911560,11,20,6,3,1,0,4,2
1558441420911560,-10,-24,-6,1,-1,1,-2,-5
1558441420919539,-5,-13,-3,-3,-6,-5,-4,-5
1558441420919539,-4,-7,-5,-1,2,-3,-6,-1
1558441420925522,1,1,-2,-2,4,1,2,-2
1558441420925522,1,8,1,-5,-9,-11,-4,0
1558441420964420,-1,2,0,2,-2,1,1,-1
1558441420964420,2,0,1,0,1,-9,-1,1
1558441420972397,-5,-2,6,2,5,6,1,2
1558441420972397,4,0,0,3,0,-4,-4,1
1558441420973394,-9,-10,-23,-14,-11,-2,-10,-6
1558441420973394,0,0,1,2,-3,-3,3,-2
1558441420974391,-1,3,-3,-3,-8,-4,-3,-2
1558441420974391,-1,-6,12,8,6,-4,2,3
1558441420985362,-8,-11,-2,0,4,-15,1,1
1558441420985362,-1,0,-7,-6,-4,5,-7,-3
1558441420994338,2,13,-1,0,2,10,1,0
1558441420994338,0,1,3,-1,-5,3,0,-3
1558441421000322,5,4,5,2,2,1,-5,-1
1558441421000322,-7,-5,-13,-9,-8,-15,-4,-2
1558441421015281,-10,-24,-5,2,7,10,6,-1
1558441421015281,2,11,1,0,0,-6,1,0
1558441421023260,3,-1,6,-2,-5,-9,-2,-1
1558441421023260,1,3,5,1,3,6,3,2
1558441421032236,6,4,0,-3,-6,-10,-4,0
1558441421032236,0,3,9,-2,-5,0,-2,-2
1558441421045218,0,7,-3,4,8,4,1,-1
1558441421045218,-1,-2,-5,-7,-1,7,1,-3
1558441421054177,3,9,-3,-4,-8,-6,-5,-3
1558441421054177,-17,-16,-8,-3,-1,-6,-7,-6
1558441421060161,4,0,0,0,-4,2,2,1
1558441421060161,2,6,9,2,4,6,0,2
1558441421075122,-12,-15,-4,-3,-1,-10,-3,-2
1558441421075122,9,6,-1,-1,0,-3,2,3
1558441421083100,-4,-8,4,1,-4,0,6,1
1558441421083100,-3,-6,-1,0,1,-2,-4,-3
1558441421092076,2,2,5,1,1,-2,1,2
1558441421092076,-4,-4,-23,-15,-10,-3,-6,-7
1558441421106039,-5,-5,3,-1,2,11,2,-2
1558441421106039,0,-11,-1,-1,-2,7,6,-3
1558441421114017,8,12,7,3,-3,-7,-3,0
1558441421114017,2,-1,6,4,11,5,4,4
1558441421120998,1,-2,-3,-2,0,-6,-2,-3
1558441421120998,-9,-9,1,1,-2,-2,-6,-2
1558441421135958,0,-2,-9,-5,-5,0,-3,-2
1558441421135958,-2,0,-6,-6,-3,3,2,0
1558441421142941,5,5,0,-2,-2,0,-5,2
1558441421142941,5,12,2,2,-1,0,-6,0
1558441421151916,-8,-24,-6,-1,-1,1,2,-1
1558441421151916,4,6,2,0,0,-7,2,1
1558441421165884,3,12,4,1,7,7,5,1
1558441421165884,-7,-25,-3,-1,0,-6,-4,-3
1558441421174855,3,9,0,1,-4,-7,-4,-3
1558441421174855,-5,-7,-5,-5,-8,5,-4,-5
1558441421180840,-1,0,-2,-3,-6,-4,-4,0
1558441421180840,4,12,2,1,0,6,-2,2
1558441421195799,-2,1,3,-1,8,6,10,1
1558441421195799,3,-2,-1,1,4,-1,2,1
1558441421202780,-2,1,3,0,-2,-4,-2,-3
1558441421202780,-1,-8,-2,1,-1,-6,-2,0
1558441421211756,-3,-7,-12,-6,-2,0,-7,-5
1558441421211756,-9,-3,3,0,-3,-2,-4,-2
1558441421225719,-4,0,0,-4,-7,-6,-7,0
1558441421225719,2,9,6,4,7,-3,5,5
1558441421234697,8,14,4,2,10,11,5,5
1558441421234697,-11,-10,-5,-3,-1,4,-5,-5
1558441421240680,-3,-9,-4,-4,-6,-1,-1,-4
1558441421240680,-7,-3,-2,1,-6,0,-1,-3
1558441421255639,0,-7,-6,-5,-6,-11,-4,-1
1558441421255639,-2,-16,-1,0,-2,-8,-3,-1
1558441421262622,-1,1,-2,-2,2,-1,7,2
1558441421262622,1,4,-2,-2,3,4,2,1
1558441421271596,2,8,2,-1,-1,-6,-5,0
1558441421271596,0,-2,1,0,0,5,0,1
1558441421285560,1,7,-1,1,2,5,0,0
1558441421285560,3,1,-4,-5,-7,-11,-4,-4
1558441421294536,-6,-10,7,2,1,4,-1,-4
1558441421294536,7,10,10,3,-5,-7,-3,1
1558441421300519,-5,-12,-12,0,6,0,-1,0
1558441421300519,-4,-3,-13,-5,-3,-5,-4,-4
1558441421315480,6,4,-1,0,-3,-2,1,-3
1558441421315480,-2,2,-2,1,-3,-1,-2,-2
1558441421323458,4,5,13,9,1,-2,3,1
1558441421323458,1,-1,4,-3,4,3,1,2
1558441421332434,-8,-12,-13,-5,-8,-6,-6,-4
1558441421332434,3,1,0,2,3,6,8,1
1558441421345399,1,-4,0,-3,-2,0,-4,-3
1558441421345399,-13,-9,-1,-1,-3,-2,-1,-3
1558441421354376,-1,-2,3,-1,0,3,1,0
1558441421354376,3,9,-4,-3,0,-8,-2,3
1558441421360359,-4,0,1,0,-1,4,-3,-1
1558441421360359,3,0,-2,0,4,13,6,0
1558441421375320,1,2,5,1,3,-3,-1,1
1558441421375320,1,0,-3,-1,-4,-7,1,3
1558441421383298,5,9,5,-3,-2,-5,-3,-1
1558441421383298,0,6,-7,-5,-8,-11,-11,-4
1558441421392274,-6,-9,-5,-2,-2,6,6,-3
1558441421392274,-8,-9,0,-2,-2,10,2,-4
1558441421406236,4,-1,2,0,-1,-15,-2,2
1558441421406236,9,12,2,2,-2,-6,4,1
1558441421414215,-10,-10,-5,-6,-2,-5,-5,-2
1558441421414215,1,9,-5,-3,-4,5,-1,-5
1558441421420198,-1,-8,-4,-7,-2,0,-4,-2
1558441421420198,-8,-16,7,5,6,5,6,1
1558441421435160,1,14,-1,2,-2,-1,-5,-2
1558441421435160,-1,-5,1,-1,0,4,-2,-3
1558441421443138,-4,-8,-2,1,1,0,-2,-3
1558441421443138,0,-4,-6,-2,6,9,1,0
1558441421458097,1,-1,5,2,0,-6,2,1
1558441421458097,0,-1,2,-1,0,2,-5,-2
1558441421465079,0,9,-5,-3,-8,2,0,0
1558441421465079,-1,-7,4,-1,-12,-15,-11,-3
1558441421474054,4,4,-5,-3,14,10,11,8
1558441421474054,-1,-1,1,-2,1,-1,-2,-2
1558441421481036,0,0,-1,-1,-5,-2,-4,-6
1558441421481036,-6,-6,-7,-2,0,6,2,-1
1558441421495995,6,10,6,0,-11,-9,-11,-3
1558441421495995,-9,-8,-2,2,1,-6,5,-1
1558441421502977,-8,-18,-9,-4,0,2,-4,-1
1558441421502977,3,9,9,5,5,6,5,0
1558441421517937,-6,-2,-6,-8,-4,1,-3,-5
1558441421517937,5,6,-11,-5,-1,-1,-2,1
1558441421525916,-1,2,-2,0,-3,0,-3,-2
1558441421525916,5,9,3,-2,1,-3,-1,1
1558441421534892,1,-9,1,2,-3,-4,-9,-3
1558441421534892,-8,-1,2,5,6,7,-1,1
1558441421540876,-2,-2,5,4,5,-1,12,5
1558441421540876,1,-3,-6,-3,-3,-1,-4,-2
1558441421555836,1,3,4,1,1,2,0,1
1558441421555836,-3,-2,-8,-6,-8,-12,-10,-2
1558441421562818,2,3,3,1,1,6,3,-2
1558441421562818,-3,2,-3,-5,-5,1,-5,-3
1558441421577777,1,-1,5,2,0,-3,4,4
1558441421577777,9,6,1,-1,3,-8,-1,0
1558441421585756,5,17,2,0,5,3,2,2
1558441421585756,-9,-23,-4,0,-2,3,2,-2
1558441421594732,-6,-4,1,1,-2,7,-4,-2
1558441421594732,-2,-9,-8,-9,-4,-1,0,0
1558441421600716,6,8,5,2,1,-3,-3,-1
1558441421600716,1,3,-11,-7,2,-1,0,1
1558441421615676,-1,-1,-3,0,-3,-9,-4,0
1558441421615676,4,8,8,1,-3,2,0,-1
1558441421622659,-2,-8,-5,-2,-5,6,-1,-2
1558441421622659,-2,-2,10,2,2,-14,0,-2
1558441421637618,-5,-12,-22,-11,-7,-1,-5,-2
1558441421637618,2,-5,0,2,2,3,6,2
1558441421645597,-1,-5,0,-1,3,-5,3,4
1558441421645597,-3,4,-2,-3,-6,-5,0,-2
1558441421654572,3,11,4,0,2,-4,-1,-3
1558441421654572,-4,-1,-1,-1,-9,-1,-7,-6
1558441421660556,-1,-11,-3,-3,3,-1,-1,0
1558441421660556,4,11,3,2,2,3,2,2
1558441421675518,-10,-4,-3,0,-4,-1,-3,-5
1558441421675518,1,-9,-5,-1,0,8,-1,-4
1558441421683495,-1,1,4,1,-4,-7,-3,-3
1558441421683495,2,3,9,4,3,3,-1,1
1558441421698455,0,-2,-16,-7,-7,-2,-2,-3
1558441421698455,-7,-3,-6,-4,-1,-6,-7,-4
1558441421705437,-6,-4,0,0,-6,4,0,-3
1558441421705437,3,-1,-9,-3,7,-3,0,2
1558441421714412,0,-1,8,5,8,15,6,1
1558441421714412,1,5,1,0,1,0,-6,-2
1558441421728374,-5,-3,-2,-3,-1,-2,-8,-4
1558441421728374,-3,-3,-4,-4,-12,-6,-3,-3
1558441421735357,4,3,9,4,5,1,8,3
1558441421735357,5,0,-4,0,10,2,8,0
1558441421743335,-12,-17,-7,-5,-5,-5,-8,-4
1558441421743335,1,4,-4,-3,-1,-1,-3,0
1558441421758295,2,-2,-3,-5,-9,-10,-7,-1
1558441421758295,-9,-3,7,3,4,9,-2,-2
1558441421774252,4,6,-1,3,3,12,7,3
1558441421774252,-8,-3,-2,-3,-1,-1,-2,-2
1558441421776247,1,2,2,0,-2,0,0,-2
1558441421776247,5,6,4,1,-2,3,-2,2
1558441421789213,-3,-5,-5,-4,-1,-13,2,1
1558441421789213,-5,-15,-6,-3,-7,-1,-3,-4
1558441421795196,-1,-4,2,1,1,-1,-6,-4
1558441421795196,-1,2,0,-1,-1,7,1,0
1558441421803174,3,8,-3,0,-4,-7,-6,-2
1558441421803174,6,-1,11,7,8,7,8,5
1558441421818134,-4,-2,-14,-6,3,-2,6,2
1558441421818134,-3,-7,-12,-7,-9,-4,-1,-2
1558441421826116,-4,-3,-6,-5,-6,1,-2,-2
1558441421826116,5,6,3,0,-5,-15,-5,0
1558441421834092,-6,-5,1,-2,0,5,-3,-3
1558441421834092,0,-3,1,1,1,-5,2,-2
1558441421849052,2,4,0,-1,-4,-5,-3,-2
1558441421849052,-1,-3,-4,-1,-4,5,-4,-1
1558441421856034,8,8,15,7,6,9,8,5
1558441421856034,-3,-3,0,2,5,-6,-5,2
1558441421863016,-6,2,-1,-5,-1,0,4,1
1558441421863016,-8,-13,-8,0,-5,-4,-4,-4
1558441421877977,-3,-8,-3,-2,-5,-1,-4,-2
1558441421877977,2,-1,3,1,-2,3,-4,-1
1558441421885959,5,2,2,1,1,-14,1,1
1558441421885959,2,13,5,0,6,6,3,1
1558441421894932,-4,-13,-7,-4,-2,-1,1,0
1558441421894932,0,-4,0,-2,-5,-11,-1,-1
1558441421908895,3,2,5,6,9,26,4,3
1558441421908895,1,5,2,0,-1,-9,-1,-2
1558441421923856,-4,-2,-13,-9,-12,-15,-10,-4
1558441421923856,2,6,-1,0,7,9,8,2
1558441421924850,-9,-11,-1,-2,0,-6,-2,-2
1558441421924850,3,1,-5,-1,-4,5,-6,-6
1558441421937815,1,4,6,5,0,4,1,3
1558441421937815,1,3,1,0,0,-15,-2,1
1558441421945794,-4,-14,-2,-1,-5,1,2,-2
1558441421945794,-1,0,-3,-3,1,-3,2,1
1558441421960762,-15,-11,-10,-3,-5,-3,-4,-5
1558441421960762,1,2,0,-1,-7,-7,-6,-2
1558441421968740,0,-7,-2,-1,3,4,-2,0
1558441421968740,13,17,10,2,-1,-4,0,2
1558441421983696,-12,-16,8,4,10,10,2,-1
1558441421983696,-8,-14,-12,-9,-11,-5,-4,-6
1558441421984690,0,-1,-8,-3,-4,-7,-6,-4
1558441421984690,-3,-7,-5,-3,-3,1,-1,-1
1558441421997666,9,10,10,3,2,0,0,1
1558441421997666,-3,-1,-1,1,3,15,5,2
1558441422005634,1,4,1,-3,0,-5,-3,-2
1558441422005634,-1,5,8,6,2,-6,1,0
1558441422020595,1,1,-5,-7,-2,-11,-2,-2
1558441422020595,-4,-6,-8,-5,-7,-2,-4,-6
1558441422028574,-3,4,-3,-2,-4,6,0,-2
1558441422028574,1,-3,1,-1,0,4,2,-1
1558441422043635,5,1,3,0,-2,-9,0,-2
1558441422043635,2,3,1,1,3,1,2,0
1558441422044532,-1,4,4,4,-1,-1,-1,1
1558441422044532,-7,-10,-4,-4,1,8,-1,-2
1558441422058493,0,1,-11,-5,-6,-3,-7,-2
1558441422058493,1,-2,0,2,-1,-3,1,2
1558441422065476,-3,-2,3,-1,-3,-4,-6,-4
1558441422065476,2,-1,0,2,5,0,3,1
1558441422080434,7,11,7,7,4,3,6,4
1558441422080434,-5,-5,2,-1,0,-1,-1,-3
1558441422088415,3,1,0,2,0,-3,2,-3
1558441422088415,-8,-8,-16,-11,-13,-20,-9,-4
1558441422103374,-3,-6,-13,-7,-1,5,4,1
1558441422103374,3,2,7,5,4,-4,1,1
1558441422104370,3,4,2,-4,4,0,0,-1
1558441422104370,-2,0,3,2,-3,-1,1,-3
1558441422118345,2,3,2,0,-5,3,-4,-1
1558441422118345,1,3,2,-2,5,6,5,1
1558441422125323,-15,-16,-8,-1,-6,-14,-4,-1
1558441422125323,2,9,0,-2,-1,7,-2,-1
1558441422140278,-6,-4,1,0,-4,-9,-7,-3
1558441422140278,0,-6,3,2,2,6,-1,-1
1558441422149265,2,5,-5,-2,1,4,0,0
1558441422149265,4,7,-1,0,3,5,0,0
1558441422164217,-4,-12,2,2,-3,-2,-3,-4
1558441422164217,-3,-1,-1,-1,-5,-6,-6,-2
1558441422164217,1,4,-7,-4,-6,-5,-1,-3
1558441422164217,-3,-1,1,-1,3,-3,1,1
1558441422178210,4,3,6,6,5,3,3,2
1558441422178210,-1,-5,-6,-6,-3,-10,0,0
1558441422186152,2,0,-5,1,-3,-5,-8,-2
1558441422186152,3,3,-2,-4,-7,5,1,-3
1558441422201111,-1,1,0,-1,4,14,3,0
1558441422201111,-3,1,-1,0,-1,-2,0,-1
1558441422209097,-1,-2,2,-2,1,-4,2,0
1558441422209097,3,2,3,2,4,0,-3,-1
1558441422224053,-13,-10,-15,-3,-4,0,0,-3
1558441422224053,-1,3,5,0,-7,0,-2,0
1558441422224053,7,2,0,0,1,2,0,-1
1558441422224053,-4,-7,-9,-2,0,3,1,-1
1558441422238013,2,3,3,3,-1,-11,1,-1
1558441422238013,-7,-7,-3,-4,-2,1,-1,-2
1558441422253969,-1,6,-2,-2,-4,-7,-9,-1
1558441422253969,-8,-12,0,0,-7,-1,-3,-4
1558441422260950,2,-3,0,-2,3,7,8,4
1558441422260950,3,6,6,5,2,-5,2,1
1558441422268928,0,-9,-4,-6,-4,-2,-1,-2
1558441422268928,-5,-3,4,0,1,5,-9,-1
1558441422283888,-2,-7,-15,-11,-9,-4,-5,-5
1558441422283888,2,5,-1,0,-2,-3,4,-2
1558441422284886,1,0,3,0,2,3,4,-1
1558441422284886,-8,-1,2,0,1,6,0,-3
1558441422297851,5,14,15,9,5,-10,-2,3
1558441422297851,-12,-19,-10,-5,-1,0,-7,-6
1558441422305832,0,6,0,-4,-8,-2,-8,-3
1558441422305832,-8,-14,-7,-4,-9,-12,-5,-3
1558441422320792,2,-8,3,2,5,4,0,-2
1558441422320792,2,3,2,0,-2,-1,-2,-1
1558441422328774,-7,-4,-5,3,3,12,2,-2
1558441422328774,9,6,-4,-5,0,-15,5,5
1558441422343735,-2,-3,3,-1,-2,-7,-2,-2
1558441422343735,0,0,-5,-1,-2,-2,-3,1
1558441422344730,-4,-11,-5,-3,-5,4,-2,-1
1558441422344730,0,4,4,1,-4,2,-2,-2
1558441422357695,2,2,-1,-3,1,-4,0,1
1558441422357695,4,11,4,-1,-2,1,-2,1
1558441422365676,0,-2,5,1,7,9,3,0
1558441422365676,-6,-8,-7,-2,0,1,2,-1
1558441422380636,-3,-6,1,-3,-6,-6,-1,-2
1558441422380636,-2,-2,-4,-4,-9,-6,-11,-6
1558441422388615,3,4,-1,1,4,-3,4,2
1558441422388615,2,2,1,0,1,0,0,0
1558441422403573,1,7,-5,-5,-4,12,-1,-1
1558441422403573,5,8,-2,-3,-2,0,2,0
1558441422404570,-1,-17,-2,3,4,-12,-2,-1
1558441422404570,-6,-9,8,6,1,3,0,-1
1558441422418530,-6,4,-2,-5,-3,-3,-3,-1
1558441422418530,-2,-3,-8,1,1,6,1,0
1558441422425552,5,7,2,0,-3,0,0,0
1558441422425552,0,0,2,1,1,2,-3,-1
1558441422440471,1,0,-4,-2,-3,-6,-4,-1
1558441422440471,-3,6,0,-1,-4,-2,5,0
1558441422448454,-10,-13,-7,-2,-2,-1,2,-2
1558441422448454,3,0,-3,2,6,0,2,1
1558441422463409,0,-1,6,2,-2,2,-4,-2
1558441422463409,3,7,5,-3,-1,-14,-9,0
1558441422464407,-4,-6,-6,-2,0,13,10,2
1558441422464407,-2,-1,-2,-3,-9,-14,-4,-1
1558441422478368,2,4,6,5,3,2,-1,2
1558441422478368,-4,-6,-11,-6,-3,-6,-5,0
1558441422485351,3,15,8,-2,-5,-9,-4,1
1558441422485351,-2,-10,-13,-5,-1,2,-1,-1
1558441422500308,2,-1,7,3,2,-3,-1,-2
1558441422500308,-1,-7,-8,-1,1,8,3,-5
1558441422508290,-7,-2,2,0,-1,1,0,-3
1558441422508290,8,15,0,-6,0,-1,2,0
1558441422524260,-6,-10,8,3,2,-1,-4,-3
1558441422524260,3,-5,-18,-6,-2,3,-1,-5
1558441422524260,-2,-3,-2,-1,-1,-8,-5,-2
1558441422524260,6,5,4,-2,-6,-2,-7,-3
1558441422538209,1,2,-1,-3,-2,-5,3,0
1558441422538209,-7,2,14,10,13,14,8,5
1558441422545251,4,-2,0,-1,-2,-2,1,1
1558441422545251,-7,-8,-4,-2,-1,-3,-4,-1
1558441422561148,3,16,-3,-3,-8,0,-7,-4
1558441422561148,-2,-13,-1,0,-4,2,2,-1
1558441422568201,-2,6,-6,0,1,-5,-1,-1
1558441422568201,1,0,5,4,0,-10,4,1
1558441422584172,-5,1,-7,1,5,10,4,-2
1558441422584172,-2,0,2,-1,-7,-4,-3,-4
1558441422584172,3,7,6,1,-1,6,-1,0
1558441422584172,-3,-1,-3,2,1,0,-4,0
1558441422598113,3,0,-17,-12,-7,-8,-5,0
1558441422598113,-6,-7,3,4,8,-1,5,3
1558441422614071,-3,-6,3,-3,-1,-6,-1,-2
1558441422614071,-3,-4,-2,0,-4,-3,-3,-2
1558441422620989,2,8,-4,-5,-3,-1,0,-2
1558441422620989,-1,-3,-3,-3,0,-1,-4,-3
1558441422627970,-5,-19,0,1,4,-2,1,1
1558441422627970,-1,-6,2,-1,0,0,2,0
1558441422643926,-4,-3,-1,0,-4,-5,0,-2
1558441422643926,3,1,0,0,-3,-4,-5,-1
1558441422644924,5,7,1,-1,-1,9,-1,1
1558441422644924,-4,7,-2,-2,2,5,5,-1
1558441422657889,-4,-14,-2,1,4,-10,2,5
1558441422657889,-1,-3,5,0,-3,-10,-2,-2
1558441422665907,3,8,1,-2,-2,5,-3,1
1558441422665907,2,11,-1,-1,1,2,-2,0
1558441422681178,-1,-5,-3,-1,-3,2,-1,-1
1558441422681178,-3,-8,1,-1,0,-2,-4,-2
1558441422687807,3,4,0,1,10,16,6,3
1558441422687807,-1,-1,1,-2,-4,-5,-1,-2
1558441422703820,-7,-10,-1,0,-2,-4,-2,-1
1558441422703820,0,4,-2,-5,-6,-7,-6,-3
1558441422711944,-4,-1,-4,-2,-8,-6,-6,-5
1558441422711944,-4,-7,-6,-5,-4,3,-3,-2
1558441422726811,2,4,6,3,6,5,9,2
1558441422726811,0,-1,0,0,-1,-11,1,2
1558441422726811,-4,1,-1,-1,0,-1,-1,1
1558441422726811,-1,-1,0,-1,0,0,-5,-2
1558441422740861,-1,-3,-3,-3,-5,-3,-6,-4
1558441422740861,2,3,1,0,0,11,0,0
1558441422748809,-6,-9,-4,-3,-4,-15,-4,-4
1558441422748809,4,1,-1,-1,3,-5,3,1
1558441422763607,-2,-3,-2,-3,-2,-3,-4,-1
1558441422763607,1,8,3,2,2,7,3,1
1558441422771625,-8,-15,-8,0,-2,2,0,-2
1558441422771625,-2,-7,-6,-2,-3,4,0,-2
1558441422779571,-1,-4,1,0,-4,-2,-4,-2
1558441422779571,-1,-2,-3,-1,3,-6,6,2
1558441422785857,4,9,-5,-2,-7,-4,-5,-4
1558441422785857,-4,-4,0,-3,-4,2,0,-3
1558441422800522,1,7,-4,-1,3,-5,2,-1
1558441422800522,3,6,7,1,2,8,-1,2
1558441422808693,-8,-22,-3,0,4,-3,4,-1
1558441422808693,-3,-3,0,0,4,11,3,2
1558441422823488,0,5,3,-2,-6,-12,-6,0
1558441422823488,-2,0,-5,-4,-4,3,-5,-5
1558441422831636,-1,-3,3,-2,0,-5,-2,0
1558441422831636,4,5,4,2,0,-7,-4,-4
1558441422838411,-3,-8,-13,-6,-1,-4,-2,1
1558441422838411,-4,0,-3,-2,-2,1,-2,-3
1558441422845607,2,-2,4,1,-2,-1,3,3
1558441422845607,3,4,1,1,-2,-1,-1,1
1558441422860348,5,5,7,1,4,3,3,2
1558441422860348,-15,-27,-8,-2,-2,-12,-5,-1
1558441422868626,0,5,-6,-8,-2,7,-5,-5
1558441422868626,-5,-4,-4,-1,-4,-1,2,-2
1558441422884285,5,8,1,0,-7,-5,-3,-2
1558441422884285,8,16,4,3,2,-3,0,0
1558441422891267,-5,-13,0,0,5,5,11,3
1558441422891267,-1,1,-2,1,0,2,-6,-1
1558441422906224,-4,-6,-10,-3,-2,4,-4,-4
1558441422906224,0,2,13,4,-2,-3,4,-1
1558441422907222,-2,3,-10,-7,-4,-11,-9,-3
1558441422907222,-4,-4,-9,-6,-6,-13,-5,-1
1558441422920384,-5,-4,6,4,9,18,8,0
1558441422920384,8,8,-2,-2,0,3,1,-2
1558441422928215,0,1,9,6,2,4,0,-2
1558441422928215,-2,-5,-13,-7,-2,-4,2,-3
1558441422943319,-5,-14,-5,-3,-4,1,-6,-3
1558441422943319,-7,-2,-6,-2,-1,0,-1,-2
1558441422951303,3,7,3,0,2,-5,5,3
1558441422951303,-2,-3,6,2,1,1,-4,-1
1558441422967361,1,6,-2,-1,-3,-5,-3,-1
1558441422967361,-2,-7,-12,-11,-4,3,-1,-2
1558441422967361,2,3,2,1,-1,0,0,-2
1558441422967361,-2,-1,2,-2,3,-8,-2,0
1558441422982058,1,4,1,0,-1,3,0,0
1558441422982058,-2,-7,-6,-4,-4,-6,-7,0
1558441422988011,5,18,1,-1,-2,0,8,1
1558441422988011,0,0,0,1,0,1,-4,-1
1558441423011985,-2,-18,3,3,4,2,9,0
1558441423011985,2,0,-4,0,-6,-8,-11,-2
1558441423012941,2,8,0,0,-2,7,-1,1
1558441423012941,2,-1,4,2,-1,-11,-1,0
1558441423035120,-4,4,-5,-5,-5,-14,-3,-1
1558441423035120,-1,-6,2,1,1,8,3,-1
1558441423035120,-6,-11,-6,-4,-6,-7,-13,-6
1558441423035120,-4,-1,-3,-1,-4,4,4,0
1558441423041132,8,7,3,2,4,1,-1,1
1558441423041132,-2,-6,0,-2,0,-1,1,-2
1558441423048120,-1,2,-5,-3,1,5,-3,-3
1558441423048120,0,3,4,1,1,2,2,0
1558441423063142,-4,-2,-3,-1,-2,-4,-3,-3
1558441423063142,-2,0,-1,-1,-2,0,0,-1
1558441423071123,0,3,3,3,1,0,-4,0
1558441423071123,-2,-13,-4,0,0,-2,2,0
1558441423086081,4,10,-1,-1,6,2,3,0
1558441423086081,-5,-9,-4,-1,-2,-1,1,-3
1558441423087078,-3,-4,-5,-2,-6,-3,-6,-1
1558441423087078,0,0,-4,-6,-8,-8,-6,-3
1558441423101042,0,2,4,2,2,5,1,1
1558441423101042,2,5,10,5,8,6,2,2
1558441423108279,-10,-1,-12,-6,-6,-5,-2,-3
1558441423108279,-4,-15,-2,-2,-3,-1,-4,-3
1558441423122981,-2,-1,0,1,-2,-4,-4,-1
1558441423122981,-1,1,-1,-1,-3,-6,2,0
1558441423131958,5,2,0,-2,2,-1,2,1
1558441423131958,0,5,-8,-8,-7,-4,-6,-3
1558441423145951,-1,-7,5,-1,5,11,5,0
1558441423145951,4,15,6,4,5,1,2,1
1558441423146918,-3,-17,-7,-5,-1,-1,-6,-3
1558441423146918,-1,4,2,0,-1,1,-2,1
1558441423160886,-8,-14,-9,-5,-9,-9,-8,-2
1558441423160886,6,7,2,0,-1,0,6,2
1558441423168408,3,9,6,3,1,-11,-2,-1
1558441423168408,-1,-6,-6,-3,-2,2,-3,-3
1558441423183322,1,8,3,0,-7,2,-7,-5
1558441423183322,-2,-14,-14,-5,10,8,8,1
1558441423191090,-6,-12,0,1,-1,-4,2,0
1558441423191090,-5,-4,3,2,3,4,2,0
1558441423206068,-2,4,0,-1,-5,-1,-9,-3
1558441423206068,-3,5,5,-4,-11,-5,-6,-8
1558441423207040,3,1,-3,0,1,0,-4,-1
1558441423207040,14,19,6,4,8,0,7,6
1558441423221034,-21,-33,-8,-4,-2,-7,-2,-3
1558441423221034,-3,-3,-2,-1,-1,1,-2,-1
1558441423228171,-2,-3,0,-2,-6,-4,-4,-2
1558441423228171,2,4,2,1,2,6,0,0
1558441423243155,5,6,0,1,0,-5,-3,1
1558441423243155,1,-2,0,-1,-2,-5,-3,-2
1558441423259084,0,6,3,0,0,8,-4,0
1558441423259084,-1,5,-6,-2,-2,3,2,-1
1558441423265887,-4,-13,-6,-2,-1,1,12,2
1558441423265887,-2,-8,-4,-1,1,-4,-7,-2
1558441423266880,4,12,7,2,-2,-3,0,-1
1558441423266880,-3,-13,4,-1,-1,8,-1,-3
1558441423281063,0,1,-6,-5,-8,0,-7,-2
1558441423281063,-4,-3,-8,0,0,0,4,1
1558441423287824,5,4,4,-1,2,-9,6,3
1558441423287824,-1,7,7,3,5,-6,5,2
1558441423302813,2,-1,-2,0,1,-3,2,1
1558441423302813,-5,-4,-4,-5,-7,-8,-5,-2
1558441423312118,0,-3,-3,-1,-5,1,-8,-6
1558441423312118,-2,-1,-3,-2,0,3,1,-1
1558441423326090,-7,4,9,-2,-8,-11,-7,-7
1558441423326090,4,1,-7,0,4,-2,2,3
1558441423327716,-3,-10,-12,-3,3,7,10,2
1558441423327716,-1,-9,-6,-3,-1,-6,-5,-4
1558441423341047,-3,6,-1,-2,2,7,4,-1
1558441423341047,-2,-8,3,2,-4,-1,-7,-4
1558441423348890,-6,2,2,-2,-2,-8,-5,-2
1558441423348890,5,4,2,0,0,3,-2,-1
1558441423363918,2,-2,-1,0,1,-2,2,3
1558441423363918,1,-1,3,-1,1,-1,2,2
1558441423371599,4,11,12,4,4,4,-4,0
1558441423371599,-6,-8,-12,-7,-6,-1,-6,-2
1558441423394585,-3,-11,-2,-2,-4,0,-3,-1
1558441423394585,-5,-8,-5,-3,-3,-3,-2,-3
1558441423395794,-3,-9,-5,-1,2,0,0,0
1558441423395794,-2,7,6,1,-5,-7,-6,-4
1558441423400805,7,12,8,4,3,-2,3,2
1558441423400805,0,5,-4,-2,8,3,0,1
1558441423408715,-4,-13,-4,-5,-9,-9,-6,-5
1558441423408715,-9,-14,-2,1,5,6,10,0
1558441423423500,3,3,-7,-4,-4,-3,-2,1
1558441423423500,-2,2,7,1,-3,1,-6,-3
1558441423431661,8,9,-1,-3,-3,5,3,1
1558441423431661,-2,-1,3,5,2,-3,4,1
1558441423446613,3,1,9,-1,3,3,0,-2
1558441423446613,3,17,-9,-4,-6,-5,-1,0
1558441423447397,-8,-17,4,0,-1,2,-2,-1
1558441423447397,-1,-11,-7,-2,-7,-3,-7,-5
1558441423461360,0,0,-9,-2,2,-1,0,1
1558441423461360,-3,-3,5,2,-1,1,-1,-1
1558441423468553,2,4,-9,-5,-5,-7,-3,-1
1558441423468553,-1,0,7,1,1,0,0,-1
1558441423483306,0,9,1,2,1,-2,0,0
1558441423483306,0,-11,-1,-1,7,13,6,-3
1558441423491281,-5,-6,2,4,-1,-12,4,1
1558441423491281,4,8,6,-1,0,3,0,1
1558441423514217,-7,-11,-14,-8,-8,-2,-9,-6
1558441423514217,-4,-5,-4,-6,-13,-10,-15,-3
1558441423515257,-8,-9,-4,1,-2,2,-3,-3
1558441423515257,3,1,2,0,0,0,-2,-2
1558441423520201,6,8,8,5,11,16,9,5
1558441423520201,11,18,5,1,2,-6,-3,1
1558441423528181,-21,-11,-4,-5,-4,-2,-4,-4
1558441423528181,-15,-21,-9,-2,-7,-4,-5,-4
1558441423543138,0,-6,-3,0,-2,-6,-6,-2
1558441423543138,-3,-10,0,-1,-5,-6,-2,-3
1558441423551117,7,15,8,2,3,4,2,1
1558441423551117,5,13,5,3,7,8,10,6
1558441423566112,-5,-8,-9,-6,-3,-7,-2,-5
1558441423566112,-1,-7,-10,-4,-5,-5,0,0
1558441423567116,4,8,-6,-7,-3,2,0,-3
1558441423567116,-4,-3,-2,-3,-4,-5,-6,-1
1558441423581495,4,0,5,3,0,-4,0,1
1558441423581495,-1,3,3,-1,-1,3,-3,0
1558441423588024,2,-7,1,2,-5,-3,-2,-1
1558441423588024,7,13,12,5,1,4,4,1
1558441423603417,-9,-11,-13,-4,1,-6,1,-1
1558441423603417,-8,-10,-13,-5,1,-2,1,-1
1558441423610958,1,7,0,3,1,4,-1,1
1558441423610958,-1,-7,-3,-4,-6,-6,-6,-2
1558441423626373,6,15,10,4,3,6,5,3
1558441423626373,-1,-6,14,0,-6,-5,-3,0
1558441423634282,7,15,-1,2,4,9,5,-1
1558441423634282,-2,-16,-20,-8,6,-4,2,0
1558441423641246,-11,-9,1,2,-5,-6,-3,-3
1558441423641246,5,4,-9,-1,2,8,2,0
1558441423648203,4,2,9,3,2,-1,2,2
1558441423648203,-1,4,-3,-1,-4,-8,-5,0
1558441423665116,1,1,-9,-8,-4,3,-2,-2
1558441423665116,-4,-2,9,4,3,6,2,-3
1558441423670799,7,2,2,2,4,-2,1,2
1558441423670799,-4,-2,-6,-3,-5,0,-2,-2
1558441423694736,0,-4,6,1,-1,-7,-7,-2
1558441423694736,-7,-13,-8,-4,-6,-6,-1,-2
1558441423694736,0,-4,-8,-5,0,-6,-11,-2
1558441423694736,4,4,8,0,-1,1,1,1
1558441423700720,0,13,-3,-1,1,-1,-3,0
1558441423700720,-1,-3,7,2,3,3,0,0
1558441423707699,1,-1,2,1,2,0,0,2
1558441423707699,2,2,-6,-5,-1,0,-2,-1
1558441423722677,-6,0,0,-3,-6,0,-5,-3
1558441423722677,-3,-5,-12,-3,-3,-2,1,-1
1558441423732092,2,-6,1,1,-2,-12,-1,0
1558441423732092,1,5,-1,0,2,2,0,-2
1558441423746344,3,-3,-1,0,2,10,5,0
1558441423746344,-7,-1,5,1,-2,-4,-3,-2
1558441423754064,-2,-12,-9,0,-5,-4,0,-1
1558441423754064,-6,-7,-9,-5,2,1,-1,-2
1558441423769396,0,4,3,2,0,2,-2,-2
1558441423769396,1,7,3,0,-1,2,-4,-1
1558441423769396,-3,-6,4,-3,-2,4,1,-1
1558441423769396,-1,-1,-10,-7,-4,-6,-4,2
1558441423784354,6,5,0,2,-1,-3,3,0
1558441423784354,1,-6,-3,1,0,-4,1,-1
1558441423791330,-1,8,2,-2,0,-6,-5,-1
1558441423791330,-6,-12,2,1,1,-3,0,-1
1558441423805924,0,-5,-7,-7,-8,0,-4,-2
1558441423805924,2,5,6,2,-3,2,3,-3
1558441423814242,-3,0,-3,-2,-5,-16,-5,-2
1558441423814242,1,2,5,0,-1,-1,-4,-1
1558441423829161,-3,-4,-9,-2,-3,-5,-3,-1
1558441423829161,3,5,-1,1,2,1,0,2
1558441423829861,-3,-6,-9,-6,-7,8,2,-4
1558441423829861,-11,-1,0,2,6,0,0,-1
1558441423843086,1,2,5,0,-1,-6,-2,0
1558441423843086,-3,-2,-5,-3,-3,-2,-2,-2
1558441423852039,5,-1,5,0,2,7,0,0
1558441423852039,-2,-6,-4,-1,-9,-10,-6,-1
1558441423866011,2,-2,-10,-3,4,5,8,3
1558441423866011,5,15,2,2,0,-7,6,3
1558441423873990,-13,-9,-1,0,-1,0,-5,-3
1558441423873990,2,-5,0,1,-4,1,-3,-1
1558441423888705,1,2,-1,-5,0,1,-1,0
1558441423888705,1,-5,2,-2,-1,1,1,0
1558441423889702,0,3,0,-1,-2,-13,-2,0
1558441423889702,2,-1,-4,-2,0,0,6,0
1558441423902694,2,4,11,5,-1,-5,-3,-2
1558441423902694,1,-3,-4,-1,0,-1,-4,-2
1558441423911641,-4,-9,-10,-7,-2,5,-1,0
1558441423911641,-4,-1,-7,-3,-2,5,-8,-5
1558441423926074,3,3,3,2,0,-5,-1,0
1558441423926074,-1,-5,0,-3,-3,-6,-1,-2
1558441423934699,-6,-2,2,-1,-1,-1,-1,-3
1558441423934699,4,4,4,2,-5,-2,-2,-1
1558441423949002,-4,-7,1,1,-2,2,-7,-8
1558441423949002,-1,8,-6,-3,2,4,4,3
1558441423950539,-1,-6,4,1,1,-6,9,2
1558441423950539,3,-2,-2,-1,1,0,-4,-1
1558441423963886,-8,-5,-7,-5,-5,-2,-7,-3
1558441423963886,0,-7,0,1,2,12,2,-1
1558441423971484,6,10,-5,-1,1,-10,3,3
1558441423971484,0,-2,4,1,2,-6,3,2
1558441423985765,4,2,1,1,-1,1,1,0
1558441423985765,-10,-6,-1,1,-1,2,-7,-4
1558441423993738,1,-8,-4,-1,6,16,1,-1
1558441423993738,0,10,3,1,-2,-11,-1,-2
1558441424009382,2,-2,-1,-3,-4,-3,-5,0
1558441424009382,0,-5,-7,-5,-6,-12,-3,0
1558441424009382,1,5,14,7,10,11,7,3
1558441424009382,0,0,-11,-4,-4,0,-3,-2
1558441424023373,-2,1,-2,-6,-4,-2,0,-2
1558441424023373,0,-2,-3,-2,0,6,-1,0
1558441424031350,-1,-3,-4,-2,-7,-4,-7,-3
1558441424031350,-7,1,0,2,1,0,-1,-2
1558441424045332,-1,1,9,1,0,2,2,2
1558441424045332,-4,-5,-6,-1,-7,-6,-1,-5
1558441424053547,3,10,-4,-4,4,-1,0,-1
1558441424053547,-2,-8,0,1,2,4,2,0
1558441424069462,0,-2,-3,-1,-2,-3,-1,-1
1558441424069462,5,9,2,1,0,4,-2,0
1558441424069462,-6,-10,-3,0,-4,1,-3,0
1558441424069462,-8,-10,-5,-3,-8,-7,-7,-4
1558441424083188,-2,-5,-1,-1,9,9,6,0
1558441424083188,2,7,5,-1,0,-9,-3,2
1558441424091163,1,-1,-3,0,-5,-3,-2,-4
1558441424091163,2,3,-2,-5,-4,-5,-5,-2
1558441424105126,-5,-10,-5,0,-3,2,-4,-6
1558441424105126,2,0,3,1,-1,-9,2,2
1558441424114495,5,11,0,-5,-2,-2,-2,-1
1558441424114495,-5,-11,-5,-5,-1,1,1,1
1558441424129348,-4,-1,0,0,3,5,2,3
1558441424129348,-2,-1,-7,-3,-3,-5,-2,-3
1558441424129348,-2,-2,2,2,-1,4,-1,0
1558441424129348,7,8,3,-2,-2,2,0,-3
1558441424143370,-8,-3,3,1,0,-5,-2,1
1558441424143370,-3,-4,-3,-2,2,-2,0,-2
1558441424151337,-5,-6,-10,-2,0,8,0,-3
1558441424151337,2,5,-6,-3,-1,-1,2,-2
1558441424166227,-5,-17,-3,-1,-5,-5,-3,-3
1558441424166227,-1,-6,2,1,-3,-3,-3,-4
1558441424174025,0,0,3,-1,-8,-6,-3,-2
1558441424174025,6,16,14,10,13,12,9,4
1558441424189899,1,-4,-6,-4,3,-9,-3,3
1558441424189899,-7,-9,-7,-4,-4,-2,0,-3
1558441424196919,-5,-6,-8,-4,-9,-5,-6,-2
1558441424196919,4,6,7,0,-4,3,-4,-2
1558441424203861,6,5,-1,1,5,4,5,0
1558441424203861,-3,-2,0,-1,2,-5,-2,-1
1558441424211841,1,5,1,-2,-3,1,-4,0
1558441424211841,-4,-5,1,-1,0,-5,2,1
1558441424226105,0,-2,1,2,-6,-9,-5,-1
1558441424226105,3,1,1,-1,3,3,6,2
1558441424234177,6,4,2,2,3,-2,4,0
1558441424234177,-15,-6,-6,-6,-8,-7,-5,-3
1558441424249422,-5,-4,-11,-6,-7,-2,-7,-4
1558441424249422,2,6,1,1,1,8,-4,-1
1558441424249422,1,0,14,6,4,-7,-6,0
1558441424249422,3,-2,4,1,3,2,10,3
1558441424263362,-4,1,-16,-2,0,-1,0,-1
1558441424263362,-4,-7,-4,-3,-6,-3,-5,-4
1558441424271083,-2,0,-4,-5,-3,-7,-3,-1
1558441424271083,4,4,7,2,2,2,-3,0
1558441424286295,-4,-8,3,1,-1,-1,3,1
1558441424286295,3,4,0,1,0,10,3,2
1558441424294024,0,6,1,-1,-1,-8,-2,-2
1558441424294024,-6,-15,-4,-1,3,4,-1,-4
1558441424308981,6,13,8,0,5,-1,3,2
1558441424308981,-3,-5,3,2,5,-4,-3,2
1558441424308981,-7,-8,-9,-3,-7,1,3,-2
1558441424308981,3,6,6,-1,-8,-5,-4,-3
1558441424323414,1,-2,-19,-7,-1,7,-3,-4
1558441424323414,-3,-6,-3,-4,-4,-3,-1,-1
1558441424331382,4,5,1,-1,1,-2,0,1
1558441424331382,-8,-13,0,1,3,7,-1,0
1558441424345900,1,2,8,3,-3,-9,1,1
1558441424345900,1,3,-14,-4,2,1,2,3
1558441424354164,2,1,-7,-4,-8,-5,-4,-5
1558441424354164,-8,-6,-4,0,-2,1,0,-2
1558441424369264,0,4,8,3,4,9,6,2
1558441424369264,-3,-12,0,1,2,-3,-2,-1
1558441424369819,0,-2,-2,-2,-3,-5,-6,-2
1558441424369819,2,3,0,-2,-10,-10,-6,-3
1558441424383978,2,1,5,1,5,13,1,1
1558441424383978,2,8,3,0,1,0,-3,-1
1558441424391176,-2,0,-7,-6,1,2,5,4
1558441424391176,2,5,-3,-2,-3,-7,-8,-3
1558441424405723,-13,-17,-8,-3,-11,-16,-6,-4
1558441424405723,-1,-4,-10,-5,-9,-5,-6,-6
1558441424414059,-4,-8,1,-1,0,7,-6,-4
1558441424414059,5,5,2,-2,2,-3,3,1
1558441424428777,10,18,6,2,4,3,3,2
1558441424428777,-10,-21,-6,-3,4,1,3,-4
1558441424429659,-16,-11,-6,-1,-6,-6,-5,-4
1558441424429659,2,1,-3,1,5,11,1,0
1558441424442927,0,-2,3,1,-3,0,-3,-3
1558441424442927,-1,5,6,-1,-4,-6,-4,-1
1558441424450899,-1,-2,-4,-1,-1,-3,5,1
1558441424450899,-1,-2,-3,-2,-3,-6,-2,0
1558441424465832,-2,-4,-1,-4,-7,-4,-8,-5
1558441424465832,2,6,1,1,0,7,2,0
1558441424474537,6,2,3,3,11,8,7,3
1558441424474537,-7,-4,2,5,11,1,5,3
1558441424488501,9,14,24,9,5,4,-3,1
1558441424488501,-1,-2,-24,-11,-11,-1,-3,-3
1558441424489499,-9,-12,-9,-4,-7,-1,-4,-4
1558441424489499,-1,-11,-8,-2,-3,-3,-2,-4
1558441424502464,1,1,-3,-1,1,-5,0,0
1558441424502464,4,13,14,5,3,-2,-6,0
1558441424510442,2,0,6,1,-1,0,2,0
1558441424510442,1,2,-15,-5,-2,10,5,1
1558441424525401,-13,-12,2,2,2,-4,-2,-4
1558441424525401,2,3,-1,-2,-2,0,0,0
1558441424533383,4,1,-3,-1,-1,-3,-2,0
1558441424533383,-3,5,5,-5,-9,-12,-10,-7
1558441424548375,2,-4,-1,1,0,2,3,2
1558441424548375,0,5,1,1,3,6,4,0
1558441424564298,-5,-10,-5,-5,-5,-4,-4,-5
1558441424564298,2,-3,3,1,-1,-1,-2,-1
1558441424565295,-2,-3,-3,-2,-6,-10,-3,-1
1558441424565295,-1,4,4,-1,1,-6,1,0
1558441424570281,-3,4,4,5,0,2,-2,-2
1558441424570281,4,0,-2,-3,-3,-2,1,3
1558441424587237,-4,-4,-14,-5,3,-2,-1,0
1558441424587237,0,-6,1,1,0,3,-4,-1
1558441424593220,3,11,2,0,1,3,-3,-1
1558441424593220,-10,-15,-2,-2,-4,-10,-2,-1
1558441424608182,-2,-2,-5,-5,-8,-3,-2,-4
1558441424608182,2,-2,3,2,0,1,4,0
1558441424616160,4,11,6,5,9,2,8,5
1558441424616160,5,-3,-4,-4,1,10,-4,-1
1558441424623140,-21,-17,-8,-3,-6,-3,-4,-5
1558441424623140,-2,-2,2,-1,-1,-3,-7,-2
1558441424630121,3,-2,1,-1,2,-3,2,-2
1558441424630121,0,17,8,0,1,-2,3,-2
1558441424645081,4,-12,-5,-2,-1,5,-5,1
1558441424645081,-2,-3,1,-2,-4,-1,3,-1
1558441424654058,-3,-6,-4,-1,1,-3,-5,0
1558441424654058,2,10,0,1,0,-4,1,0
1558441424668019,1,-1,-4,-6,-1,-5,1,2
1558441424668019,-1,2,-2,-2,-4,1,-6,-4
1558441424675998,-4,-15,0,-4,-8,0,-1,-3
1558441424675998,-1,4,3,1,-2,-5,-3,1
1558441424690959,2,1,-1,1,4,-3,-2,0
1558441424690959,-3,-5,1,-1,0,2,1,-1
1558441424691956,-1,3,-7,-1,-3,0,1,-2
1558441424691956,-10,-10,-3,-4,-2,4,-1,-4
1558441424705918,5,8,-1,1,1,-3,1,2
1558441424705918,2,-6,-6,-1,-2,-1,0,0
1558441424713896,-12,-7,0,-2,1,-4,-2,-2
1558441424713896,3,-2,0,0,-5,-1,-3,-2
1558441424727861,5,9,5,0,-2,3,-3,-3
1558441424727861,-2,2,3,3,3,-10,0,3
1558441424735838,-2,-9,-2,-2,-2,2,-2,0
1558441424735838,-4,-8,-7,-4,-2,2,-2,-3
1558441424750799,-1,1,-4,1,0,6,2,-1
1558441424750799,5,3,-2,-2,-1,-6,-2,-2
1558441424751796,0,4,-5,-2,-1,1,-4,0
1558441424751796,2,-2,4,0,0,3,0,1
1558441424765759,-6,-9,-2,-2,-6,-5,-4,-4
1558441424765759,-6,-2,8,6,-2,-5,-1,-2
1558441424773737,-1,-3,-13,-7,-3,-3,-3,-1
1558441424773737,3,6,-1,0,4,10,6,2
1558441424787701,-4,0,0,-2,2,-8,6,2
1558441424787701,1,-6,-1,0,0,0,2,0
1558441424795679,0,8,4,1,-5,-7,-10,-4
1558441424795679,-1,-3,-3,-3,-3,-3,-7,-2
1558441424811636,-1,-9,1,-1,-3,-3,2,-2
1558441424811636,1,2,-2,-2,-2,-2,-5,-4
1558441424811636,0,-3,0,1,2,3,-2,0
1558441424811636,2,7,2,3,7,0,7,5
1558441424825600,-1,-3,-5,-2,1,-1,-2,-3
1558441424825600,-3,2,-1,-5,-2,3,-5,-2
1558441424833576,2,-1,0,-3,-12,-11,-1,-2
1558441424833576,-2,-1,3,1,1,-7,-2,-2
1558441424847574,2,8,-6,-3,1,11,4,0
1558441424847574,-2,-10,-2,-1,1,4,3,-3
1558441424856516,2,7,0,2,0,3,1,-3
1558441424856516,1,0,4,0,-2,-4,-1,-1
1558441424871477,-4,-11,-6,-3,0,-10,-4,0
1558441424871477,-2,-2,-4,-7,-5,0,-6,-1
1558441424871477,-2,-2,2,1,8,7,12,6
1558441424871477,-4,-2,-1,-2,-7,-6,-3,-2
1558441424885476,4,15,4,1,-1,2,-2,0
1558441424885476,-5,-9,-13,-6,-6,-3,-3,-4
1558441424893416,0,-1,3,1,7,9,6,1
1558441424893416,-3,-4,-8,-5,-5,-8,-7,-3
1558441424908377,-1,2,3,-1,-5,1,1,1
1558441424908377,6,8,6,4,5,-14,2,3
1558441424916355,-3,1,1,-1,-4,-5,-5,-1
1558441424916355,-2,8,9,3,0,-3,3,1
1558441424931375,3,-11,-2,0,2,12,-3,-2
1558441424931375,-20,-13,-9,-2,1,4,3,-1
1558441424932312,2,1,-5,-1,-2,-3,-8,-3
1558441424932312,0,2,1,0,1,7,1,0
1558441424945312,-6,-5,1,-3,-4,-10,-7,-3
1558441424945312,3,-2,8,1,-3,-11,-3,1
1558441424953258,2,-1,4,1,0,-2,0,0
1558441424953258,-3,-5,-17,-11,-8,1,-3,-2
1558441424968256,2,5,4,2,6,3,7,3
1558441424968256,1,1,-1,1,0,4,1,-2
1558441424976195,-1,-3,6,-1,-3,-1,-4,-1
1558441424976195,1,-4,-6,-2,-5,-3,-2,-2
1558441424991156,-2,-11,-6,-4,-5,-5,-7,-7
1558441424991156,-1,-1,2,0,2,-7,-1,2
1558441424992154,5,5,13,4,11,-7,11,4
1558441424992154,2,2,-10,-4,-4,5,-4,-2
1558441425005118,-6,-9,-10,-6,-4,0,2,2
1558441425005118,6,5,4,4,0,5,2,-2
1558441425014095,-5,-1,-6,-3,-4,-3,-6,-7
1558441425014095,0,-6,6,5,8,4,3,2
1558441425028095,5,8,8,2,2,4,1,1
1558441425028095,0,2,-8,-6,-6,-9,-5,-3
1558441425036078,2,1,-7,-8,-5,-3,0,-1
1558441425036078,-5,-12,2,1,5,-1,4,1
1558441425050994,-4,-3,-4,-2,-2,-1,-5,-5
1558441425050994,5,2,3,-1,0,7,1,0
1558441425051994,-1,0,-3,-2,-4,0,-7,-2
1558441425051994,0,2,3,-1,-4,-2,-5,-1
1558441425065957,5,7,3,1,0,-7,3,2
1558441425065957,-5,-6,-3,-3,2,5,3,-1
1558441425073933,-1,-3,-3,1,2,2,1,-1
1558441425073933,-3,-7,-1,2,2,-3,-4,-3
1558441425087899,-1,-8,-3,-2,-2,4,0,-2
1558441425087899,-6,1,-7,-5,-9,-4,-7,-4
1558441425095909,-1,-4,-1,-3,0,2,-1,1
1558441425095909,1,1,6,5,5,1,2,1
1558441425118815,0,0,-6,-8,-4,-6,-4,0
1558441425118815,3,2,-6,-4,-1,4,1,1
1558441425119812,-5,-5,-7,0,2,-2,-3,-2
1558441425119812,1,5,0,-3,-9,-8,-6,-5
1558441425125796,-1,1,3,-1,2,2,3,-2
1558441425125796,-3,-9,5,1,4,5,-2,-2
1558441425140756,2,-2,-1,1,-1,-1,-2,0
1558441425140756,-2,3,3,1,4,-2,1,1
1558441425147736,-6,1,0,0,-2,-3,-5,-2
1558441425147736,4,9,-2,-2,1,6,0,0
1558441425155716,-6,-21,-5,-1,-2,-5,-1,-3
1558441425155716,2,2,-6,-3,-3,4,-6,-3
1558441425171673,-5,-3,1,0,-2,-8,1,2
1558441425171673,2,12,4,1,-3,-8,-1,1
1558441425171673,-3,-7,1,2,2,7,4,2
1558441425171673,0,-7,2,-2,6,2,11,2
1558441425185678,-3,-6,-12,-3,-2,-4,-1,-4
1558441425185678,0,0,5,6,-5,-4,-2,-1
1558441425194935,1,6,6,-5,-2,-3,-4,-1
1558441425194935,-4,-4,-5,-2,-6,-2,-5,-3
1558441425207603,-1,0,-5,-1,-3,6,-1,-2
1558441425207603,-4,-5,-5,-4,-7,-7,-6,-4
1558441425216598,5,4,-1,-1,2,4,1,1
1558441425216598,-1,-1,6,2,3,2,5,3
1558441425231512,1,3,12,4,4,-6,-6,-1
1558441425231512,-8,-12,-11,-4,-2,3,0,-3
1558441425231512,0,6,-6,-3,-9,-6,-4,-3
1558441425231512,-3,-6,-7,-6,2,-10,-6,-3
1558441425245476,4,9,0,-1,-7,-5,-3,0
1558441425245476,-4,-12,7,3,6,5,1,0
1558441425253454,0,-1,9,4,1,-2,4,2
1558441425253454,1,5,-13,-6,-2,-4,-1,-2
1558441425268416,-2,-9,2,0,-1,5,0,-2
1558441425268416,0,1,-11,-5,-5,-4,0,-1
1558441425276393,-4,-6,-5,-3,-3,-9,-3,-2
1558441425276393,-3,0,1,1,-7,-5,-4,-2
1558441425291353,4,4,4,1,3,6,0,0
1558441425291353,5,5,3,3,5,5,10,5
1558441425291353,-7,-4,-3,0,-1,1,-4,-4
1558441425291353,-8,0,-3,-3,-8,-2,-5,-5
1558441425305316,-3,-8,-6,-3,0,5,0,-1
1558441425305316,1,4,6,3,4,-2,1,1
1558441425313295,0,-5,-7,-4,-3,-5,1,2
1558441425313295,1,-3,0,-1,-1,-2,-6,-2
1558441425328270,2,9,0,1,2,14,3,-1
1558441425328270,2,-2,2,-1,-3,-4,0,-1
1558441425336233,2,2,2,1,4,-1,1,1
1558441425336233,-4,-2,-7,-3,-1,-6,-1,0
1558441425351195,-2,-3,8,1,-6,-5,2,-2
1558441425351195,0,-3,-13,-5,-3,-5,-3,-1
1558441425352191,-6,1,-4,-4,-8,-4,-8,-2
1558441425352191,1,-4,1,3,4,15,5,3
1558441425365155,2,4,1,1,-2,-10,1,0
1558441425365155,-2,3,3,0,7,-6,-2,-1
1558441425374490,2,-2,-1,-3,-4,4,-4,-4
1558441425374490,-12,-15,-14,-6,-8,2,-5,-6
1558441425388097,-1,-4,0,0,7,2,5,3
1558441425388097,-4,-4,-2,0,-2,-4,-4,0
1558441425396535,-2,3,4,-1,0,0,-1,-3
1558441425396535,4,1,6,-1,-4,-3,-1,-1
1558441425411118,0,3,1,-2,-2,-6,-7,-1
1558441425411118,-2,3,-5,-5,0,4,5,-1
1558441425412031,-1,-13,-5,0,5,1,2,2
1558441425412031,7,7,4,0,-3,-7,1,0
1558441425426218,-13,-20,-11,-6,-6,0,-10,-6
1558441425426218,2,5,2,-1,-2,6,-1,0
1558441425434188,0,5,-2,-2,-9,-3,-4,-4
1558441425434188,-1,-8,-2,2,4,9,9,2
1558441425448243,6,8,4,2,11,-4,7,4
1558441425448243,-4,-3,-2,-3,-5,1,-6,-5
1558441425455913,-2,0,-4,1,-3,1,0,-2
1558441425455913,0,2,3,-1,2,-14,0,1
1558441425470872,0,3,-2,-2,-4,6,-2,-1
1558441425470872,0,0,-2,-2,-1,-2,-3,-1
1558441425478850,-2,0,-2,-3,-2,1,-1,-1
1558441425478850,2,0,-1,2,0,-10,-1,0
1558441425485833,0,-2,-5,-5,-6,-7,-5,-1
1558441425485833,2,1,4,2,2,8,-1,-1
1558441425493811,-1,-2,0,1,3,4,6,1
1558441425493811,-3,-1,-1,-2,-4,2,-1,-1
1558441425507808,-1,2,-3,0,2,-3,0,-2
1558441425507808,-3,-2,0,0,-3,-2,2,1
1558441425515752,1,2,-1,-2,0,-4,-2,0
1558441425515752,-1,-2,0,-1,0,7,-4,-4
1558441425530713,1,2,0,-2,1,-14,3,2
1558441425530713,0,-2,3,-1,-2,3,-5,-2
1558441425538722,-2,2,-2,-1,-2,1,-3,-2
1558441425538722,-2,0,-4,-4,-3,5,-4,-4
1558441425545671,-2,-11,-5,-4,-7,1,-3,-4
1558441425545671,-1,0,6,3,-1,-6,-4,-1
1558441425553650,2,2,1,-1,0,-5,1,0
1558441425553650,0,5,-2,2,5,-1,3,2
1558441425567647,-1,0,-2,-3,0,8,2,0
1558441425567647,-8,-15,-5,-1,-4,0,-1,-4
1558441425576590,3,3,5,1,-1,-5,-1,1
1558441425576590,0,1,-3,-2,-3,-1,-4,-3
1558441425590551,1,7,3,0,-2,-6,-4,0
1558441425590551,2,-2,-4,-2,0,7,-2,2
1558441425598530,-1,5,-1,-1,1,3,1,2
1558441425598530,-3,-9,-2,-1,-2,-9,2,-1
1558441425605570,-5,-4,-6,-2,-10,-4,-2,-5
1558441425605570,0,3,2,1,5,1,-2,-3
1558441425621469,-4,-5,-2,1,4,7,0,-1
1558441425621469,-1,-1,0,-3,-4,-13,-2,-2
1558441425644519,4,8,10,4,-4,-7,-7,-1
1558441425644519,-6,-2,-9,-5,-4,5,3,-3
1558441425645406,-2,-3,-9,-3,5,3,6,1
1558441425645406,0,0,0,0,-3,3,-4,-1
1558441425650453,-4,-4,-7,-2,-4,-1,-3,-4
1558441425650453,5,1,5,-1,-2,-12,1,0
1558441425658370,-15,-12,0,0,-1,2,-5,-3
1558441425658370,3,9,4,-2,0,0,-1,-1
1558441425674328,-2,1,0,-2,-4,-8,-5,-4
1558441425674328,-6,-14,-2,3,9,9,6,1
1558441425675326,2,-4,-8,-6,-2,-10,-5,-1
1558441425675326,0,-1,-2,0,-2,5,-1,-1
1558441425688293,-1,1,-1,1,-3,4,4,0
1558441425688293,1,9,0,-1,-5,-15,-3,0
1558441425696268,2,1,4,2,-3,-2,-2,-2
1558441425696268,0,-4,-4,-4,0,5,-3,0
1558441425710231,-4,-8,0,-1,5,6,0,1
1558441425710231,-4,-3,1,0,-6,-3,-7,-3
1558441425718211,2,5,-1,-4,-7,-7,-1,-1
1558441425718211,1,3,10,3,-1,-4,-1,1
1558441425734167,-2,-5,-13,-4,4,7,4,0
1558441425734167,-1,3,-6,-4,-2,-4,-4,-1
1558441425735165,-1,0,0,-2,-5,-2,-7,-5
1558441425735165,-4,-4,2,2,-5,-2,-2,-3
1558441425748130,-2,-7,2,3,4,10,1,2
1558441425748130,-2,-10,0,2,2,-7,3,0
1558441425756109,2,2,-6,-5,-6,-11,-9,-1
1558441425756109,2,0,2,2,6,5,7,4
1558441425770071,3,3,-5,-2,-2,2,0,-3
1558441425770071,-1,1,-3,-2,-5,-4,-2,-1
1558441425779048,-1,-5,6,3,0,-2,-6,-2
1558441425779048,-2,-5,-10,-3,-4,0,4,-3
1558441425794008,2,4,-4,-4,-7,-4,0,-3
1558441425794008,0,3,1,-2,-4,-3,-2,-1
1558441425799991,1,1,3,-1,2,2,0,0
1558441425799991,1,0,0,0,4,0,-1,1
1558441425807970,1,-4,-7,0,4,-7,2,1
1558441425807970,2,6,-2,-2,-2,3,-3,-5
1558441425816947,-5,-10,-4,-3,-4,-3,2,-1
1558441425816947,-6,-7,4,0,-6,-9,-7,-4
1558441425847864,-1,-1,4,0,-4,4,-11,-3
1558441425847864,0,2,-4,-2,2,5,6,2
1558441425854849,1,2,1,4,7,2,9,4
1558441425854849,1,8,0,0,2,7,0,0
1558441425855845,-10,-18,0,-1,-3,-6,-5,-3
1558441425855845,2,5,0,-2,-4,-1,-5,-3
1558441425861828,2,-2,-2,-1,0,-6,0,-1
1558441425861828,4,2,-4,-1,0,-1,3,2
1558441425867810,-8,5,0,-3,1,3,2,-1
1558441425867810,-3,-14,-1,-4,-10,-2,-6,-5
1558441425907716,-2,5,1,2,4,4,6,3
1558441425907716,0,1,0,-2,-5,-11,-4,-2
1558441425907716,1,3,9,6,5,5,4,3
1558441425907716,-3,-5,-15,-1,0,-16,-3,-1
1558441425909701,-3,-6,0,-6,-12,2,-4,-5
1558441425909701,-3,-4,-8,-4,-1,0,-3,-1
1558441425912692,2,0,11,5,12,14,8,5
1558441425912692,2,4,0,-3,-2,-3,0,2
1558441425921677,-7,-7,-4,0,-1,1,1,-3
1558441425921677,-2,-2,0,-2,-5,0,-3,-4
1558441425953582,2,7,1,-1,-3,-8,-5,-2
1558441425953582,6,9,5,1,4,5,6,4
1558441425954580,-7,-15,-5,-3,-3,-1,-7,-3
1558441425954580,-1,0,-2,-1,-3,-4,1,-1
1558441425955580,-2,-13,-1,1,-2,-4,0,0
1558441425955580,1,1,8,1,-2,-2,-4,-4
1558441425959566,-1,1,-6,-4,-5,-2,-2,-4
1558441425959566,-3,-4,-1,-2,-1,4,2,1
1558441425972533,6,8,0,-1,3,1,-1,1
1558441425972533,-6,-8,-3,1,4,4,2,2
1558441425981507,2,2,-1,-1,1,-7,-4,1
1558441425981507,-1,2,1,-2,-5,-6,-5,0
1558441426020403,4,4,6,1,-1,3,2,-2
1558441426020403,-1,2,-3,-1,3,3,5,0
1558441426022400,3,6,2,-1,1,1,2,2
1558441426022400,-3,-5,-6,-2,-2,-7,-1,-1
1558441426023397,-4,-2,-7,-6,-13,-11,-8,-3
1558441426023397,-3,-3,3,1,-4,3,-5,-4
1558441426027387,5,8,15,8,7,3,13,5
1558441426027387,-2,-1,-12,-7,-2,4,-6,-1
1558441426033369,-2,-6,-5,-1,-2,-12,2,1
1558441426033369,2,-2,0,1,2,7,1,-1
1558441426081241,-3,-4,-2,-1,-3,0,-4,-2
1558441426081241,-2,-10,4,4,5,13,1,-1
1558441426082237,3,8,2,0,0,-9,-1,-1
1558441426082237,-8,-5,-3,-3,2,-11,0,1
1558441426087225,2,3,-2,-2,-2,4,-2,-1
1558441426087225,0,2,7,1,1,-5,0,-2
1558441426087225,-4,-8,-7,-1,-5,4,-5,-2
1558441426087225,1,-1,4,2,-2,-1,-2,-1
1558441426093207,-5,4,-2,-1,8,5,1,-1
1558441426093207,-3,-13,3,-1,-1,-4,-5,-1
1558441426124126,-1,-1,-1,-1,-6,-13,-8,-2
1558441426124126,-2,2,-1,-2,2,0,1,1
1558441426132104,3,3,2,-1,5,3,-2,2
1558441426132104,2,6,1,1,-2,1,4,2
1558441426134102,0,3,-5,-4,-1,4,-8,-4
1558441426134102,-5,-6,-4,0,0,0,2,-2
1558441426135098,-4,-11,-3,-1,-5,-7,6,0
1558441426135098,-4,-7,-4,-4,-4,-5,-8,-3
1558441426139096,6,6,4,3,5,8,11,1
1558441426139096,1,6,-2,-1,-2,-1,1,1
1558441426169011,-6,-3,-4,-5,-4,-8,-6,-5
1558441426169011,2,-1,-3,-1,1,3,-2,-1
1558441426200920,-3,1,4,-1,-1,0,2,-4
1558441426200920,2,2,2,0,1,5,-3,-3
1558441426201917,7,3,-5,-2,0,1,-2,-1
1558441426201917,-11,-13,-6,-4,-4,-2,-3,-4
1558441426213886,-1,0,-4,-3,-8,-3,-12,-7
1558441426213886,-7,-11,3,-3,-3,8,1,-5
1558441426252781,7,9,4,2,9,0,5,6
1558441426252781,7,10,3,3,7,-7,6,2
1558441426254778,-2,-3,-3,-2,-4,4,-1,-1
1558441426254778,5,4,-1,-3,-3,-8,1,-3
1558441426260762,-6,-4,0,1,3,3,1,1
1558441426260762,3,13,7,1,2,-9,2,2
1558441426261757,-3,-3,5,0,-8,-2,-6,-1
1558441426261757,-7,-12,-16,-6,0,10,5,-3
1558441426290680,-5,-9,-8,-3,-6,-9,-4,-2
1558441426290680,7,11,17,7,5,2,1,3
1558441426291676,-2,-7,-12,-5,8,2,6,-1
1558441426291676,-2,-1,-8,-6,-8,-5,-8,-3
1558441426292675,-7,-8,-3,-1,1,9,3,0
1558441426292675,4,-2,2,-2,-6,-7,-3,-2
1558441426296669,-4,-1,2,0,-4,-3,0,-5
1558441426296669,2,-1,3,2,3,3,0,0
1558441426298658,6,4,-1,1,2,0,2,-2
1558441426298658,-13,-4,1,3,8,4,5,0
1558441426310631,-8,-10,-7,-6,-6,-8,-4,-1
1558441426310631,4,2,-4,-3,-2,3,0,-3
1558441426319608,-10,-4,6,2,-4,-12,-8,-2
1558441426319608,1,-6,-5,1,5,5,-2,0
1558441426349523,0,2,-5,-4,-2,1,-3,-1
1558441426349523,-3,-2,1,-3,-9,-6,-4,0
1558441426351521,5,0,0,-1,0,5,7,2
1558441426351521,5,8,3,3,4,-12,3,2
1558441426352514,4,7,21,8,4,-3,1,-1
1558441426352514,-4,-4,-27,-11,-4,6,-7,-4
1558441426364484,-7,-17,-2,-5,-7,2,-5,-4
1558441426364484,-3,-4,-3,-3,-5,-5,-6,-3
1558441426370467,1,-2,-3,-2,-3,1,0,0
1558441426370467,-3,1,10,3,-2,-5,-4,-2
1558441426379442,2,8,-2,-1,4,-1,0,0
1558441426379442,0,-1,-2,-1,4,3,2,0
1558441426402380,1,3,10,4,2,3,-2,1
1558441426402380,1,-4,-6,-1,2,-4,5,-2
1558441426404383,-2,3,-2,0,-1,6,0,0
1558441426404383,1,-5,-6,-3,-2,8,-3,-3
1558441426408365,-1,7,-4,-6,-5,-4,-4,-1
1558441426408365,-2,-6,10,1,-2,-1,-3,2
1558441426417341,3,1,4,3,4,3,5,0
1558441426417341,7,3,3,1,4,-10,2,3
1558441426430306,-4,-6,-8,-3,-2,-1,-4,-3
1558441426430306,1,-1,1,-4,-6,-9,-3,2
1558441426462224,-3,3,-6,-4,-5,-12,-3,-2
1558441426462224,-3,-2,2,-1,-4,13,-4,-4
1558441426463225,-4,-7,-5,0,-2,-5,-4,-2
1558441426463225,3,4,5,2,-1,-7,2,0
1558441426470200,-7,-6,-7,-2,-3,2,-3,0
1558441426470200,2,4,-1,1,6,4,4,5
1558441426471200,4,12,10,0,1,3,5,2
1558441426471200,-7,-15,-16,-7,-3,1,-4,-4
1558441426477182,-2,-2,2,1,-1,-5,0,-1
1558441426477182,-1,-1,-8,-7,-6,-3,1,-1
1558441426523061,-2,-3,-1,1,2,11,5,0
1558441426523061,1,8,11,3,0,2,-1,-2
1558441426524056,2,4,-6,-3,0,-6,-5,-1
1558441426524056,-3,-10,0,-1,-6,-13,-3,-1
1558441426530053,4,9,2,2,0,-10,-4,-3
1558441426530053,1,2,1,-1,0,0,-1,0
1558441426531036,-3,-6,-4,-3,-6,-2,-3,0
1558441426531036,2,3,-6,-2,-3,1,-11,-5
1558441426532034,-3,-6,-4,1,2,7,6,-1
1558441426532034,0,3,5,3,8,2,4,0
1558441426537036,0,3,6,2,1,1,4,1
1558441426537036,0,3,0,-4,-8,-7,-6,-1
1558441426574923,-5,-17,-10,-5,-7,2,-2,-2
1558441426574923,-3,0,3,4,-4,0,-2,-3
1558441426575918,1,1,-7,-5,1,3,-2,-2
1558441426575918,-2,0,0,5,6,7,5,1
1558441426576914,-4,-3,-2,-1,0,-2,-5,-2
1558441426576914,-1,1,5,4,0,6,1,2
1558441426581901,4,0,6,-1,0,-7,2,3
1558441426581901,-1,-2,-12,-4,0,-7,3,-1
1558441426587888,-3,-11,-7,-5,-4,-1,-3,-3
1558441426587888,-1,3,-5,-1,-1,-1,1,-2
1558441426635756,-6,-4,2,1,-2,3,-2,-3
1558441426635756,-1,0,-3,-4,-8,-14,-8,-3
1558441426636754,3,7,10,6,7,5,9,5
1558441426636754,-7,-9,-12,-4,1,0,-3,-2
1558441426637752,2,4,3,0,0,4,1,-1
1558441426637752,1,2,9,3,-2,-1,-3,0
1558441426641746,-4,0,-10,-5,-2,-3,-4,-3
1558441426641746,-1,-8,2,-2,-1,-5,0,1
1558441426642739,-1,2,-3,0,1,-5,0,-1
1558441426642739,-2,-7,1,1,-3,6,0,-3
1558441426679640,2,5,7,2,-3,2,-3,-3
1558441426679640,-6,-11,-18,-8,-4,-7,3,0
1558441426695597,-1,3,2,1,2,-5,-3,-3
1558441426695597,-4,-2,-3,-5,-6,2,-3,-2
1558441426696594,5,5,6,1,1,-2,0,2
1558441426696594,-1,-2,1,1,1,-1,3,1
1558441426697591,-1,-2,-2,0,-2,2,0,-2
1558441426697591,-1,1,3,-2,-5,-2,-6,-4
1558441426701581,-5,-6,-6,0,8,6,1,-1
1558441426701581,5,5,-4,-4,-4,1,1,0
1558441426703575,-8,-5,0,-2,0,-3,-1,0
1558441426703575,0,-8,3,4,4,9,5,0
1558441426740477,0,-3,-7,-2,-8,-11,-7,-3
1558441426740477,1,9,0,-5,-2,-3,-7,-4
1558441426742471,-1,-15,-5,3,-5,4,2,0
1558441426742471,3,9,8,3,6,5,-3,2
1558441426742471,-6,-2,-5,-2,-1,0,8,0
1558441426742471,0,1,1,3,3,-10,-3,2
1558441426746461,0,3,9,2,5,-7,1,0
1558441426746461,-8,-8,-20,-8,-4,-3,-2,-4
1558441426752445,2,-2,-5,-4,-6,-1,-4,-2
1558441426752445,2,3,6,2,3,16,2,1
1558441426762423,-1,3,-2,-2,-3,1,-4,-2
1558441426762423,1,-3,2,-1,-3,-10,-3,-2
1558441426801313,1,1,3,0,2,-3,-2,1
1558441426801313,0,-2,-1,-1,-7,-7,-3,-5
1558441426802319,-1,0,1,1,2,11,3,0
1558441426802319,-4,0,-1,-2,1,-1,3,-3
1558441426803309,-1,0,0,-3,-4,-7,-2,0
1558441426803309,3,3,-2,1,3,7,2,2
1558441426806300,4,-7,-4,-5,-4,-3,-4,-2
1558441426806300,-3,-1,-6,-4,-6,0,-1,-2
1558441426813285,-9,-12,4,1,-4,-2,-8,-5
1558441426813285,1,-3,-3,0,1,-4,-1,2
1558441426854172,8,5,-8,-1,8,-5,10,6
1558441426854172,-3,-9,-3,-1,0,-3,-1,-3
1558441426854172,2,3,3,1,-1,-4,-3,-3
1558441426854172,5,6,4,-3,-5,-4,-4,-3
1558441426860158,-7,1,-10,-4,-6,4,0,-4
1558441426860158,0,2,-3,2,2,-11,0,2
1558441426860158,-7,-8,-5,-3,-3,-3,-1,-3
1558441426860158,-5,0,5,2,1,4,1,-1
1558441426862151,2,0,4,1,-5,-6,-5,-3
1558441426862151,2,2,-2,-1,3,3,4,3
1558441426873123,4,5,-1,-1,-1,0,-1,-2
1558441426873123,-6,-3,-2,-4,-4,1,-2,-2
1558441426906034,-1,0,5,1,2,6,0,0
1558441426906034,-5,-3,0,-2,-6,3,-6,-3
1558441426907032,0,-3,-3,-3,-2,-11,-1,2
1558441426907032,5,4,1,2,6,0,4,2
1558441426911021,-1,1,4,0,0,-5,-7,0
1558441426911021,5,2,-3,-2,1,7,2,2
1558441426912018,0,-2,1,0,-3,0,1,0
1558441426912018,-6,-4,-5,-1,-2,0,-1,-4
1558441426919004,1,-1,-2,-2,-5,0,-2,-1
1558441426919004,2,6,0,0,3,3,-1,0
1558441426965880,-2,-3,-1,1,6,1,3,3
1558441426965880,2,7,3,4,-1,-8,0,0
1558441426966873,1,-6,-3,-1,-2,4,1,-2
1558441426966873,0,3,4,1,-2,5,-3,-1
1558441426967868,-12,-19,-20,-9,-1,-2,-3,-5
1558441426967868,2,-3,3,1,8,4,7,3
1558441426972859,-2,0,-4,-3,-5,-7,-5,-2
1558441426972859,-5,-5,5,1,-2,1,4,-1
1558441426973855,6,8,3,-1,-4,4,0,0
1558441426973855,-1,-7,3,2,1,-10,-4,-1
1558441426979840,-3,0,-1,-4,-3,-6,-5,-4
1558441426979840,-1,0,-4,-5,-1,-1,-5,-4
1558441426992803,-2,3,-6,-1,-2,1,0,-1
1558441426992803,-4,-3,-4,-7,-7,-2,-2,-3
1558441427001778,5,4,3,3,3,4,6,2
1558441427001778,-10,-5,6,5,5,-6,0,0
1558441427016737,0,-2,-7,-5,-4,-1,-3,0
1558441427016737,-10,-13,-2,-3,-8,-6,-10,-5
1558441427017735,-2,-3,-1,-1,2,4,1,-1
1558441427017735,1,0,-1,0,2,1,4,-1
1558441427030704,2,8,9,2,0,5,0,-1
1558441427030704,5,5,-5,1,0,-7,0,3
1558441427039678,-6,-5,0,-2,-2,-4,-9,-4
1558441427039678,-2,-4,-3,-4,-6,-8,-2,2
1558441427053641,-2,-5,-9,-3,-3,-1,2,-1
1558441427053641,0,-1,-6,-1,-4,4,-3,-2
1558441427061619,2,0,-2,0,-1,-7,2,0
1558441427061619,-8,-7,-5,-2,-4,1,-3,-3
1558441427076577,3,8,5,1,2,8,0,-1
1558441427076577,0,-10,2,1,0,0,-1,0
1558441427078571,-6,-5,0,-1,-2,-5,-4,-1
1558441427078571,1,-5,-1,1,-1,2,-3,-3
1558441427090540,3,5,5,4,0,-2,-1,-1
1558441427090540,-2,2,-7,-6,-1,-8,1,-3
1558441427099517,3,-1,-2,1,3,4,2,-2
1558441427099517,3,4,-1,-1,-1,3,-4,-2
1558441427112482,-3,-2,4,0,-2,-1,3,-1
1558441427112482,3,4,4,4,3,4,2,2
1558441427121458,0,4,-4,-1,-2,-2,-4,-1
1558441427121458,-4,-8,-3,-2,4,-6,8,3
1558441427136417,-2,-9,-3,-2,-7,-7,-6,-3
1558441427136417,-2,-1,-6,-6,-6,-3,-5,-3
1558441427142403,-3,0,-5,-2,-1,8,2,-2
1558441427142403,1,-2,3,0,-3,5,-3,-3
1558441427150383,1,0,2,1,2,-8,5,2
1558441427150383,-1,1,1,4,3,-3,-2,0
1558441427159357,-2,-1,-6,-5,-4,-5,-2,-1
1558441427159357,3,8,0,0,3,6,-6,-2
