timestamp,emg1,emg2,emg3,emg4,emg5,emg6,emg7,emg8
1558441434285714,2,3,4,0,1,1,2,-1
1558441434285714,3,4,-3,-3,-5,-1,-5,0
1558441434287708,-7,-12,-4,-1,-2,4,-1,-3
1558441434287708,-2,-1,-2,-3,-5,-1,-6,-5
1558441434288706,3,0,0,-1,1,-5,0,-1
1558441434288706,-1,-1,-1,0,1,-6,3,0
1558441434289703,2,10,3,-1,-3,0,-3,0
1558441434289703,1,-1,-1,-1,5,9,2,2
1558441434299676,-14,-9,-2,1,2,6,-4,-3
1558441434299676,0,-2,-4,-1,-2,3,1,-1
1558441434300673,-1,0,-3,0,-3,-1,2,0
1558441434300673,0,1,8,2,5,-11,0,0
1558441434308652,3,2,2,4,0,-5,-1,1
1558441434308652,-7,-11,-15,-12,-10,-2,-7,-5
1558441434321617,-1,-1,-4,-3,-1,4,2,-1
1558441434321617,1,4,0,0,3,5,3,2
1558441434329596,3,6,-1,1,-3,6,-2,1
1558441434329596,-1,-12,6,2,-1,-7,-5,-1
1558441434336578,-2,0,-1,-2,2,-8,5,2
1558441434336578,1,0,0,2,-4,-6,-2,-2
1558441434359516,1,0,-8,-6,2,3,1,1
1558441434359516,-2,1,3,1,-2,-2,0,-3
1558441434360513,0,0,0,-1,1,7,-1,-2
1558441434360513,0,-3,-4,-3,-7,-9,-5,-4
1558441434369489,-8,-8,-5,-3,-2,2,-2,-2
1558441434369489,4,9,3,1,5,-1,2,1
1558441434381457,4,6,8,2,3,-7,3,1
1558441434381457,0,-3,-2,-3,-2,-4,-1,-1
1558441434389437,-8,-10,-7,-5,-9,-5,-8,-5
1558441434389437,0,2,2,0,-2,2,-4,0
1558441434436310,-3,-4,-7,-3,-4,-3,-1,-3
1558441434436310,2,8,-1,2,0,-6,-7,1
1558441434437309,-2,-7,0,-2,-2,-8,-2,0
1558441434437309,4,10,-6,-2,0,2,-3,1
1558441434437309,-5,-11,-1,-1,-3,-4,-2,-3
1558441434437309,2,3,-2,-3,-1,-6,1,1
1558441434440299,-1,1,-1,-2,-4,2,-2,-3
1558441434440299,1,0,2,1,2,-4,2,3
1558441434448279,3,3,4,4,5,3,2,2
1558441434448279,-7,-7,-8,-7,-4,-1,0,-2
1558441434455260,1,4,-1,1,4,9,1,0
1558441434455260,0,-4,-3,-2,-3,-4,0,-2
1558441434462241,-1,-2,-5,-2,-4,-2,-5,-3
1558441434462241,-1,-1,4,1,-2,4,0,-2
1558441434477214,-1,1,-1,2,6,7,4,1
1558441434477214,-1,-8,-7,-3,-4,-5,-2,0
1558441434486177,2,6,4,0,2,-7,1,3
1558441434486177,2,-4,3,2,4,8,3,0
1558441434492161,0,-2,-2,-3,-4,-5,-7,-4
1558441434492161,-2,-1,3,1,-1,5,-2,-3
1558441434509116,1,-1,-11,-7,-7,-1,-3,-4
1558441434509116,-11,-8,-1,0,0,-9,3,0
1558441434523079,-1,2,-1,-2,2,0,3,2
1558441434523079,-3,-6,-3,-3,-3,-10,-6,-2
1558441434524076,3,2,2,-1,-3,3,-5,-2
1558441434524076,3,6,-5,-2,1,6,2,-2
1558441434538038,-2,-6,-1,1,-2,0,1,-1
1558441434538038,-4,-1,2,1,2,9,3,0
1558441434561974,4,2,-3,2,5,-4,2,3
1558441434561974,2,3,-2,-4,-1,3,-3,0
1558441434562971,1,-2,-7,-5,-9,-8,-5,0
1558441434562971,-3,1,-1,-2,-2,-1,-2,-5
1558441434576934,0,4,7,2,5,7,4,-1
1558441434576934,-4,-10,1,1,2,-5,0,0
1558441434577932,-2,4,0,-1,-2,-4,-4,-1
1558441434577932,0,-4,2,0,-1,1,-1,0
1558441434582918,-3,-3,-4,-1,-3,1,-4,-3
1558441434582918,0,5,-6,1,-5,-2,-1,-2
1558441434597879,-2,-4,5,0,-3,-2,-2,-2
1558441434597879,-2,3,0,1,2,-2,0,0
1558441434613835,-9,-10,4,0,0,1,1,0
1558441434613835,0,-6,-10,-9,-1,5,2,0
1558441434615831,1,2,-4,-3,-6,-2,-4,-4
1558441434615831,0,2,3,-1,-4,-3,-2,0
1558441434636774,5,4,5,2,-1,-11,0,0
1558441434636774,2,6,3,0,5,3,-1,-1
1558441434637772,-4,-5,1,3,-4,-3,-2,0
1558441434637772,1,-5,-16,-7,0,2,1,1
1558441434642759,-10,-4,-2,-3,-1,4,0,0
1558441434642759,-3,-10,9,3,-4,-1,-4,-4
1558441434658715,-4,-1,-8,-6,2,0,-1,-1
1558441434658715,-4,-5,-4,1,-4,-11,-2,-2
1558441434665695,3,3,-2,-2,0,5,1,-1
1558441434665695,3,5,1,0,-5,-3,-3,0
1558441434672679,-9,-7,-2,-1,3,5,0,-1
1558441434672679,1,6,7,-1,4,7,4,0
1558441434688637,-2,-2,-3,-1,2,-1,-4,-2
1558441434688637,-3,-9,4,2,-1,-4,-1,1
1558441434694619,2,5,4,3,0,-8,2,1
1558441434694619,0,-4,0,1,3,0,1,-3
1558441434710578,-3,3,-6,-4,-5,1,0,-2
1558441434710578,3,4,1,-1,-9,-4,-7,-4
1558441434717558,0,-7,-4,-3,-1,-8,-2,-4
1558441434717558,-1,4,6,1,-1,0,3,3
1558441434725537,7,5,5,2,3,-3,1,0
1558441434725537,-5,-4,-4,-1,0,1,-2,-3
1558441434740497,-9,-13,-12,-7,-1,-2,0,-3
1558441434740497,-5,-2,-4,-3,-4,2,-3,-3
1558441434748475,4,3,4,2,2,-2,-3,0
1558441434748475,-10,-9,-6,-4,1,-3,2,2
1558441434755457,2,1,4,3,3,3,0,-1
1558441434755457,-1,-2,-12,-7,-3,1,-2,-3
1558441434762440,-10,-13,-3,-3,-7,-3,-4,-3
1558441434762440,4,2,3,-2,-2,-11,-10,-3
1558441434777398,3,9,10,7,11,8,7,3
1558441434777398,-1,-4,-9,-5,-2,-8,-2,1
1558441434785376,-3,-8,0,0,-4,1,1,-1
1558441434785376,-2,-3,-5,-2,-2,-3,-3,-2
1558441434800337,1,-2,0,-3,-5,-2,-4,0
1558441434800337,5,5,4,0,4,5,0,0
1558441434808316,-7,-3,-1,-3,-3,5,3,-1
1558441434808316,1,3,4,5,7,5,2,4
1558441434815297,3,-4,0,-3,0,-9,1,0
1558441434815297,-4,-6,-5,-2,-3,2,-6,-1
1558441434822282,2,1,-1,-2,-1,-4,-2,-2
1558441434822282,-6,-3,5,2,-1,3,1,-3
1558441434837239,5,9,-12,-5,-4,2,-3,0
1558441434837239,-2,-4,5,1,3,-4,-2,0
1558441434846214,1,-8,-4,-3,-1,-3,-3,-3
1558441434846214,-1,2,1,-3,-6,-3,0,-2
1558441434860177,-4,-3,-3,-1,-2,1,-1,-3
1558441434860177,-2,1,5,2,0,-5,2,0
1558441434868155,0,-5,-3,2,1,-7,-2,3
1558441434868155,2,4,3,-4,1,0,-4,0
1558441434875137,-9,-9,-7,-3,-4,-3,-3,-1
1558441434875137,-2,0,-12,-9,-5,2,-3,-3
1558441434883115,1,9,4,2,0,-6,1,1
1558441434883115,-2,-10,-5,0,-4,-3,-1,-3
1558441434898074,1,5,-2,-3,-1,0,2,2
1558441434898074,10,7,5,2,-1,0,-1,1
1558441434905057,-15,-16,-3,0,2,10,-1,-1
1558441434905057,7,4,-4,-3,-2,-2,1,0
1558441434920017,1,3,10,4,-4,-1,-5,-6
1558441434920017,2,-6,-8,-2,0,-5,0,0
1558441434927996,5,10,-1,1,7,3,6,4
1558441434927996,-5,-9,-10,-5,-7,2,-2,-3
1558441434934976,-1,-5,2,2,5,10,4,1
1558441434934976,-3,1,10,6,-3,-6,-2,0
1558441434942956,-2,-4,-6,-7,-5,-6,0,1
1558441434942956,-1,5,6,1,4,3,0,-4
1558441434957915,4,3,-6,-3,0,3,0,1
1558441434957915,-12,-10,-2,-3,-6,-12,-4,-3
1558441434965895,1,5,5,0,-3,-5,-4,-3
1558441434965895,-1,-2,-2,0,1,-1,3,1
1558441434980854,0,-3,-3,-3,-6,-4,-3,-4
1558441434980854,-1,-2,0,0,3,12,2,0
1558441434987837,10,19,1,-2,-1,-19,-4,0
1558441434987837,-6,-7,2,0,4,7,5,1
1558441434994818,-12,-17,-3,-3,3,4,2,0
1558441434994818,3,1,-6,-2,1,-2,2,1
1558441435002795,-2,-6,-2,-2,-3,-3,-1,-1
1558441435002795,8,12,7,1,4,4,-2,1
1558441435017755,-3,-8,-17,-5,-7,-8,-3,-3
1558441435017755,-1,0,6,0,-1,4,-2,-3
1558441435025734,-1,-4,-2,-2,0,7,2,0
1558441435025734,1,0,0,1,1,-4,-1,-2
1558441435039697,2,9,12,3,1,0,-2,-3
1558441435039697,-4,-4,-5,-6,-11,-8,-12,-7
1558441435048672,-5,-12,-11,-3,4,15,5,-1
1558441435048672,-1,0,-4,-1,-3,-9,2,3
1558441435054657,4,3,4,1,2,-4,-1,1
1558441435054657,3,7,5,3,3,-1,-1,1
1558441435070614,-1,5,4,-2,-2,4,-6,-3
1558441435070614,1,-8,-5,-4,-6,-2,-3,-1
1558441435077595,0,6,3,-1,-2,-5,1,0
1558441435077595,1,-4,4,2,4,10,2,-1
1558441435085576,1,1,-5,-2,1,-7,4,1
1558441435085576,-4,-10,-8,0,-4,-6,-2,-2
1558441435100534,-1,-2,2,-3,-6,-6,-4,0
1558441435100534,1,4,-1,1,0,-3,2,2
1558441435108513,-1,-1,9,3,3,5,-1,-2
1558441435108513,1,3,-6,-3,0,-3,0,-3
1558441435115494,-4,-7,-2,-2,-7,-4,-7,-4
1558441435115494,-5,0,3,1,1,12,3,1
1558441435130454,-2,-4,-18,-9,-7,-5,-4,-3
1558441435130454,1,5,1,-1,7,4,4,0
1558441435137435,-3,-6,2,0,2,-6,-2,-1
1558441435137435,1,-1,4,-1,-2,-8,-1,1
1558441435145414,0,-3,-5,-1,-2,3,-6,-2
1558441435145414,-3,-1,-1,-4,-9,-4,-6,-2
1558441435160374,1,0,-4,-3,-2,-2,-3,-1
1558441435160374,0,4,-1,-2,-4,0,-2,-2
1558441435168353,8,8,6,4,7,-1,11,4
1558441435168353,-11,-7,2,1,5,0,3,2
1558441435182318,-4,-5,-4,0,5,3,2,-1
1558441435182318,-6,-13,-9,-5,-5,-6,-9,-4
1558441435190294,-4,0,-4,-4,-7,2,-7,-3
1558441435190294,5,4,-3,-3,-4,1,-1,-3
1558441435197276,6,8,4,2,-1,1,0,1
1558441435197276,-3,-4,-2,-3,1,2,5,-1
1558441435206251,-1,0,0,1,6,1,2,2
1558441435206251,3,2,3,1,2,-2,-1,1
1558441435220215,-1,2,4,1,3,4,3,1
1558441435220215,-5,-13,-7,-2,-4,-6,1,-2
1558441435228192,-5,-6,-4,-3,-6,-2,-4,-2
1558441435228192,0,3,-1,-1,-5,-6,-8,-4
1558441435235174,2,0,0,-1,-3,-3,0,0
1558441435235174,3,8,10,4,7,-2,3,0
1558441435251130,-6,-12,-7,-4,-3,-8,-2,-3
1558441435251130,-2,-1,-2,-1,4,8,-1,0
1558441435257117,0,0,-5,-1,-4,1,-5,-1
1558441435257117,-3,-3,1,1,4,-3,0,2
1558441435273073,-2,3,6,1,-5,-13,-3,1
1558441435273073,0,0,3,-2,-3,-3,1,-1
1558441435280054,-3,-1,-4,-3,-1,3,2,0
1558441435280054,3,8,18,7,-1,4,-2,2
1558441435288033,-3,-12,-25,-13,-4,3,-5,-4
1558441435288033,-7,-15,-8,0,-6,-4,-3,-2
1558441435295014,1,-1,0,0,-2,-4,-1,-3
1558441435295014,-7,-1,-8,-5,-7,2,-2,-4
1558441435310971,7,6,14,6,2,4,2,0
1558441435310971,1,3,4,1,12,-1,10,6
1558441435317953,3,0,1,1,4,-7,3,3
1558441435317953,3,6,-2,0,-1,-6,-4,-3
1558441435325931,-8,-14,-7,-5,-8,1,-5,-6
1558441435325931,0,1,-4,-3,-6,1,-2,-3
1558441435339894,-2,5,4,2,-2,2,-2,-3
1558441435339894,-2,-4,-7,-5,-2,-2,0,1
1558441435347873,0,6,7,4,3,3,-2,0
1558441435347873,-2,-8,-5,-1,-3,1,-3,-3
1558441435354854,1,2,3,-5,-3,-5,-6,-2
1558441435354854,6,2,-1,-1,0,2,-3,1
1558441435370813,-14,-10,0,4,7,11,4,-1
1558441435370813,1,1,-2,-2,4,-6,2,3
1558441435377792,-1,0,4,3,3,3,-1,-1
1558441435377792,-2,-9,-15,-8,-8,-8,-4,-2
1558441435385776,2,2,5,3,0,-4,2,0
1558441435385776,-1,2,5,1,-2,5,-5,-5
1558441435399741,-5,-3,-10,-5,-2,-5,0,1
1558441435399741,-4,-1,-1,0,0,-6,-1,-3
1558441435408712,7,5,1,-1,-6,-5,-4,-4
1558441435408712,-8,-12,-2,-1,-1,1,-1,-3
1558441435422674,2,-1,4,1,-5,-1,-4,-3
1558441435422674,-1,1,-10,-7,-9,-7,-5,-4
1558441435430657,-7,-7,1,-1,10,6,7,3
1558441435430657,8,7,0,2,11,4,9,6
1558441435445672,-6,-13,0,2,4,6,2,0
1558441435445672,3,5,3,1,-1,-2,1,0
1558441435446611,-2,3,-6,-7,-11,-9,-12,-4
1558441435446611,1,3,1,2,-4,-4,-5,-1
1558441435461571,-1,-4,-5,-3,2,0,1,-2
1558441435461571,-1,-3,-2,-2,1,-2,-1,0
1558441435468551,2,3,0,-1,-4,-5,-2,1
1558441435468551,-3,0,1,-1,-3,1,-1,-1
1558441435482548,-2,0,4,3,0,2,-3,-1
1558441435482548,1,1,-8,-7,-2,4,-2,-3
1558441435490524,-6,-8,3,1,3,-6,3,1
1558441435490524,1,5,1,-1,-2,-3,-1,-1
1558441435505451,3,0,-13,-6,-2,0,-6,-3
1558441435505451,-7,-6,-1,1,-1,4,-2,-3
1558441435506448,0,-1,3,-1,-9,-8,-7,-2
1558441435506448,0,0,-1,0,4,9,5,1
1558441435520411,0,3,-2,-3,5,-3,2,-1
1558441435520411,-9,-15,-2,2,2,-1,0,-1
1558441435528391,1,3,-2,-2,2,6,2,-1
1558441435528391,-1,-2,0,-2,-8,-6,-7,-3
1558441435542361,-2,2,1,-2,-3,1,-3,-2
1558441435542361,-2,-2,-8,-5,-4,-2,-3,-3
1558441435551331,0,1,5,1,-5,-6,-4,0
1558441435551331,2,-1,-4,0,4,2,7,0
1558441435574270,3,3,5,4,4,0,6,2
1558441435574270,-2,-5,3,0,0,-1,-2,-1
1558441435574270,3,5,-4,-2,3,12,1,-2
1558441435574270,-1,-1,9,1,-5,-10,-4,-2
1558441435580252,1,3,-14,-9,-8,-8,-2,-1
1558441435580252,-2,0,5,5,6,7,5,1
1558441435588232,-4,-13,-7,-2,0,-2,-5,-3
1558441435588232,5,0,-3,-4,-3,-1,-3,0
1558441435602233,-14,-8,2,3,3,5,5,-2
1558441435602233,7,8,4,2,4,3,4,3
1558441435611179,-1,7,4,2,3,2,4,1
1558441435611179,-2,2,4,-1,-7,-9,-7,-3
1558441435626159,2,1,-4,-4,-6,-5,-6,-1
1558441435626159,-7,-12,-5,-1,-5,-4,-6,-5
1558441435626159,1,0,0,-1,-2,5,0,-4
1558441435626159,-7,-6,-5,-3,-4,-1,-4,-4
1558441435640090,4,5,3,-3,-2,-14,-2,-1
1558441435640090,2,3,-3,-1,5,1,8,3
1558441435648070,-1,-7,2,1,3,-3,2,-2
1558441435648070,-1,2,-4,-4,-3,2,-4,-2
1558441435663064,0,-5,-2,-4,-5,0,-4,-3
1558441435663064,-7,-4,8,1,1,-3,-2,0
1558441435671008,0,-3,-4,0,-6,-13,-6,-1
1558441435671008,-1,-2,-3,-1,-1,3,-2,-1
1558441435685967,5,0,-2,2,9,11,7,4
1558441435685967,1,6,3,1,1,3,3,2
1558441435685967,1,2,-4,-4,-4,-2,-4,-2
1558441435685967,-2,2,10,0,-4,-5,-5,-4
1558441435699992,2,0,-16,-7,-3,3,-1,-1
1558441435699992,-5,-10,-1,0,-3,-3,-4,-4
1558441435707911,2,5,0,0,4,5,3,-1
1558441435707911,0,1,-1,0,3,1,8,2
1558441435722868,-4,0,5,2,-2,-5,0,0
1558441435722868,2,0,-2,-3,-2,-1,-2,1
1558441435730915,-2,1,0,-2,-4,-1,-3,-3
1558441435730915,3,-3,-3,0,-1,-3,-3,-2
1558441435744812,-17,-18,-5,0,0,-1,0,1
1558441435744812,4,12,-2,-3,-4,-8,-2,-4
1558441435753787,-5,-10,-10,-4,-7,-3,-6,-3
1558441435753787,-1,1,-4,-3,6,1,4,2
1558441435759774,0,1,7,1,2,-10,-2,4
1558441435759774,6,2,5,3,7,13,3,1
1558441435768746,-8,0,3,0,-1,-1,-2,0
1558441435768746,-1,-8,-14,-6,-7,-4,-4,-2
1558441435782716,4,5,3,-1,-6,2,-3,-2
1558441435782716,-12,-8,0,-1,-5,-3,-3,-3
1558441435791691,-1,-8,5,0,2,-5,4,0
1558441435791691,-5,-3,-3,0,3,1,1,-2
1558441435805650,-3,-8,-3,-2,-3,-3,-2,-2
1558441435805650,1,4,-6,-5,-6,-6,-5,0
1558441435813631,4,4,-2,0,1,8,2,2
1558441435813631,-4,-6,0,-1,-2,-12,-3,1
1558441435820614,-1,0,4,0,-3,-3,-4,-3
1558441435820614,4,5,3,3,10,4,8,2
1558441435828592,-1,1,-2,-2,-1,-9,-2,1
1558441435828592,-1,3,-3,-2,-2,7,1,-1
1558441435842553,-5,-11,-6,-5,-4,4,-2,-3
1558441435842553,1,-2,-2,-2,-4,-6,0,-1
1558441435851528,2,6,1,1,3,2,0,0
1558441435851528,0,5,-1,-2,-3,-4,-1,-2
1558441435865610,-4,-7,0,2,1,7,2,-2
1558441435865610,1,-2,-2,0,-6,-4,-5,-2
1558441435874468,4,9,2,1,-1,0,-1,-2
1558441435874468,-6,-9,2,1,2,1,0,0
1558441435880457,-7,-7,-11,-5,-1,1,-4,-2
1558441435880457,5,0,5,2,0,-5,0,1
1558441435889425,-23,-17,-7,-4,-5,1,-1,-5
1558441435889425,4,-2,-3,-1,-2,6,-4,-1
1558441435902439,4,4,1,1,3,-15,-1,2
1558441435902439,-2,-1,-3,-6,-4,-7,-3,-4
1558441435911562,6,4,4,0,-2,-5,-1,3
1558441435911562,-1,-3,-5,-5,-4,0,-5,-2
1558441435934303,2,6,5,4,11,16,9,3
1558441435934303,2,5,1,-2,-2,-4,-1,0
1558441435935303,0,3,-5,-4,-7,-7,-5,-1
1558441435935303,-8,-13,-2,0,-8,-6,-4,-1
1558441435940331,4,6,2,0,7,4,4,2
1558441435940331,-2,-3,-2,0,1,-3,0,0
1558441435949266,3,1,-1,-1,-4,-4,-1,-4
1558441435949266,1,4,6,0,-2,0,-2,0
1558441435962300,0,6,-3,0,-6,-4,-4,0
1558441435962300,-4,-2,-5,-4,1,-1,0,0
1558441435971207,-1,-10,-1,1,-1,1,-3,-1
1558441435971207,3,5,7,2,1,-8,0,2
1558441435985196,-5,-6,-11,-6,-7,0,-2,-4
1558441435985196,0,5,-3,-1,2,12,1,2
1558441435994143,1,-6,-7,-3,-1,-15,-5,0
1558441435994143,2,2,8,2,3,-3,1,1
1558441436000127,-10,-3,4,3,-5,-4,-4,-4
1558441436000127,-7,-8,-5,-1,6,19,7,0
1558441436009105,3,6,3,-1,2,1,2,1
1558441436009105,-1,-8,-6,-3,-2,-1,0,-2
1558441436023419,1,2,6,3,-2,-2,0,-2
1558441436023419,-2,-3,-4,-2,-4,-1,-4,-3
1558441436032095,-1,-7,-4,-2,-5,-5,-2,0
1558441436032095,1,7,1,3,5,4,6,1
1558441436046010,-5,-10,-1,0,0,-4,-1,-1
1558441436046010,-3,-6,-10,-6,-6,-9,-4,-1
1558441436053988,3,3,5,1,3,7,2,-1
1558441436053988,-2,-1,-14,-7,-8,-5,-9,-3
1558441436061121,5,9,11,3,4,3,6,4
1558441436061121,0,-5,5,1,-2,-10,-4,0
1558441436069437,-4,-4,-18,-7,0,-1,-1,-1
1558441436069437,-3,-1,-4,-4,-3,-4,-6,-4
1558441436082428,3,2,1,0,-4,-6,-6,-2
1558441436082428,1,1,11,4,6,10,5,1
1558441436091498,-2,-2,-5,-3,-4,-1,0,-5
1558441436091498,0,-2,-1,1,-1,5,-1,-2
1558441436105339,0,0,-6,-7,-3,-12,-3,0
1558441436105339,2,6,0,-2,-3,-7,-3,-1
1558441436114317,3,-1,10,5,3,4,0,3
1558441436114317,-11,1,-1,-1,-3,-7,2,-3
1558441436120302,-7,-16,-7,-4,-5,2,-3,-2
1558441436120302,0,6,0,-3,-3,-2,-1,-2
1558441436128531,-2,-2,-5,0,0,-2,0,-3
1558441436128531,1,-5,6,3,0,2,5,-1
1558441436159449,-1,1,-9,-5,-6,-7,-5,-4
1558441436159449,-2,-3,-2,-1,6,5,1,1
1558441436160448,6,8,9,1,1,-2,1,1
1558441436160448,3,5,-1,1,7,13,2,2
1558441436165437,-2,-2,-2,-3,0,-8,1,0
1558441436165437,-1,-7,-4,0,-7,-4,-3,-5
1558441436174441,-3,2,2,1,-2,5,-3,-1
1558441436174441,-3,-5,4,-1,-5,-8,-5,-1
1558441436189565,-2,-8,-2,0,-1,4,-3,-3
1558441436189565,0,0,-6,-1,-3,-12,-6,-1
1558441436190372,3,3,4,0,0,-2,-1,0
1558441436190372,-1,1,-2,-1,5,2,0,-1
1558441436202455,2,13,4,2,-1,-3,0,0
1558441436202455,0,-2,-2,1,-6,0,-5,-3
1558441436211381,-9,-23,-4,-1,0,-3,0,-2
1558441436211381,4,2,6,1,3,-2,-3,-1
1558441436226301,4,7,3,2,6,7,7,1
1558441436226301,-11,-4,-5,-3,-2,5,1,-1
1558441436234252,0,7,7,0,-1,2,6,0
1558441436234252,1,-1,-12,-5,-2,-11,-3,0
1558441436249448,1,-6,5,-1,-1,-1,-1,-1
1558441436249448,-1,-5,-6,-4,-4,-4,-3,-3
1558441436250209,5,1,2,4,5,7,3,0
1558441436250209,-9,0,4,-1,-2,1,1,0
1558441436263398,2,0,0,2,6,13,1,1
1558441436263398,-1,-4,1,-1,-1,-9,-5,-3
1558441436271150,-5,-10,-4,1,-5,-7,-3,-3
1558441436271150,5,2,-2,-2,2,2,4,0
1558441436285347,-2,1,-1,-2,-3,1,-6,-4
1558441436285347,0,2,-4,-1,-1,-1,-3,-1
1558441436294092,-1,8,3,1,-1,-2,2,2
1558441436294092,-3,-6,0,-1,-5,0,-2,-3
1558441436309259,-1,-5,9,3,3,5,-1,0
1558441436309259,-3,-11,-28,-15,-10,-9,-4,-4
1558441436310047,2,9,-2,-2,2,10,0,0
1558441436310047,-3,-1,-3,0,-2,-15,-1,-1
1558441436323016,1,-3,2,2,-4,-3,-1,-2
1558441436323016,2,6,13,2,-1,6,1,-1
1558441436331988,-2,-4,-11,-5,-2,2,-1,-2
1558441436331988,0,0,3,3,11,8,4,2
1558441436344955,-1,4,-4,-3,-1,-7,-1,2
1558441436344955,7,-1,3,0,-3,-10,-4,-2
1558441436353931,-19,-17,-6,-3,-5,0,-5,-3
1558441436353931,-1,-3,3,0,-4,1,-3,-4
1558441436368888,1,9,-1,-2,1,2,1,-1
1558441436368888,-4,-5,-8,-3,-2,-1,-3,0
1558441436370882,2,0,11,4,-8,-11,-10,-3
1558441436370882,4,1,-16,-8,-8,-5,0,1
1558441436392110,-8,-12,-2,-5,0,0,3,-1
1558441436392110,-1,-1,3,4,2,1,-7,-4
1558441436398080,3,1,-2,-2,-1,-5,0,0
1558441436398080,5,8,4,4,9,9,2,2
1558441436405876,2,5,-6,-3,-5,-1,2,1
1558441436405876,-6,-8,12,5,5,-2,0,-1
1558441436414072,1,4,-4,-4,0,3,0,1
1558441436414072,-3,-7,-8,-8,-13,-11,-9,-4
1558441436428994,-1,2,1,-1,2,6,4,-1
1558441436428994,1,0,-4,0,3,-2,7,3
1558441436430724,4,2,4,-1,3,-7,-3,-1
1558441436430724,-3,1,9,1,-7,-1,-3,-2
1558441436442720,-5,-21,-21,-8,-10,-9,-9,-3
1558441436442720,1,10,6,-1,4,7,8,3
1558441436451670,0,0,-5,-2,2,2,4,0
1558441436451670,0,1,3,3,-3,-2,-5,-3
1558441436465930,4,2,5,-2,-5,-3,-1,-1
1558441436465930,-6,2,-4,-4,-6,-1,0,-1
1558441436473890,1,-11,-7,-4,-4,-4,-5,-2
1558441436473890,-6,-9,2,4,15,4,9,4
1558441436504525,-1,0,1,2,-5,-13,-3,-2
1558441436504525,4,-2,-1,-1,-4,-2,-3,0
1558441436513564,-1,4,1,-1,-5,4,-1,-2
1558441436513564,-1,1,-3,-4,-2,2,2,-3
1558441436514504,0,2,5,0,4,-8,-5,-2
1558441436514504,-1,-4,-5,-1,2,5,-1,-1
1558441436517709,-5,-3,-7,-6,-5,2,0,-1
1558441436517709,4,-2,-2,-2,-6,-11,-5,-1
1558441436525649,-1,3,0,-1,-6,3,1,-2
1558441436525649,3,11,7,3,2,-4,2,2
1558441436534448,0,-14,-8,-6,-5,-8,-8,-3
1558441436534448,-5,-2,-1,0,7,14,5,1
1558441436556418,0,-4,-3,-2,-4,-1,-4,-1
1558441436556418,-1,-3,2,1,-4,7,-1,0
1558441436557385,10,14,9,4,8,-8,7,4
1558441436557385,-7,-7,-11,-6,-4,0,-1,-3
1558441436562370,-5,-12,0,-1,2,0,-6,-1
1558441436562370,2,-1,11,4,4,8,1,0
1558441436571347,2,7,-5,1,1,4,-3,-2
1558441436571347,-5,-4,-12,-10,-8,-6,-7,-5
1558441436618235,1,3,4,2,4,11,2,-1
1558441436618235,0,-1,6,-1,-5,-9,-2,0
1558441436619218,-5,-4,-12,-3,1,1,0,1
1558441436619218,4,4,6,0,1,-4,4,0
1558441436620217,-10,-10,-2,1,0,8,0,-1
1558441436620217,-1,-1,-6,-3,-3,-21,-8,-4
1558441436624265,-1,6,12,3,5,8,4,3
1558441436624265,0,-5,-8,-5,-3,1,2,1
1558441436625201,2,1,-7,-4,-3,0,-5,-3
1558441436625201,-1,-2,-2,-1,1,3,4,-1
1558441436631569,-6,-7,4,1,2,0,-3,-3
1558441436631569,2,2,-2,0,-4,-5,-2,-2
1558441436662145,2,6,3,-1,-1,-3,2,1
1558441436662145,-7,-4,-11,-6,-4,-1,-1,-3
1558441436663102,3,0,2,2,-7,-8,-2,-2
1558441436663102,1,-1,7,2,3,3,1,2
1558441436669104,2,2,-14,-7,-9,-9,-7,-3
1558441436669104,-2,5,3,2,1,2,-1,2
1558441436684045,-2,-14,2,5,11,0,12,5
1558441436684045,-2,-1,-3,0,-2,-2,-5,0
1558441436684045,4,4,-3,-3,-4,0,-7,1
1558441436684045,2,2,0,0,-2,-1,2,0
1558441436691062,-10,-3,-3,-3,-2,4,-2,-3
1558441436691062,1,1,5,1,-1,-13,-6,-1
1558441436730243,-2,-3,-4,2,6,1,0,0
1558441436730243,1,-4,1,1,4,16,2,0
1558441436731917,0,3,4,-1,-6,-8,-2,-1
1558441436731917,-3,-2,-3,1,1,4,-1,-3
1558441436732914,-5,-1,-5,-5,-12,-6,-6,-4
1558441436732914,1,-6,2,1,2,-2,-2,-2
1558441436736906,-4,-1,4,1,1,-5,3,1
1558441436736906,-3,0,-15,-6,-3,-6,-3,-1
1558441436742887,-3,-3,4,1,2,-1,5,0
1558441436742887,0,2,0,-1,-4,3,-4,-1
1558441436751866,-5,-13,-8,-5,-6,-3,-9,-4
1558441436751866,1,2,7,1,-1,9,1,1
1558441436781815,-1,3,7,5,5,1,7,1
1558441436781815,0,-4,-11,-5,4,-10,2,0
1558441436782780,0,1,-5,-4,-4,6,-6,-4
1558441436782780,-8,-6,0,0,0,1,0,-1
1558441436787768,1,0,4,3,1,3,1,-1
1558441436787768,1,4,3,4,-4,-3,1,-1
1558441436795842,2,8,0,-1,-2,5,-9,-2
1558441436795842,-2,-13,4,-3,-1,5,3,0
1558441436802727,-1,-2,-12,-5,1,-8,6,2
1558441436802727,-4,-1,0,0,1,-3,-4,-5
1558441436811706,3,2,4,-2,-5,-3,-10,-4
1558441436811706,1,3,3,5,1,8,-4,-3
1558441436825834,-1,5,-1,-2,-2,-7,0,-2
1558441436825834,2,7,-8,-3,4,1,5,3
1558441436849635,-3,-7,1,0,1,3,5,2
1558441436849635,1,-3,-1,1,-2,-11,0,-1
1558441436850601,2,-1,2,-2,3,12,-1,-1
1558441436850601,-6,-9,-5,-4,-8,-4,-7,-4
1558441436856583,-2,5,0,-1,4,2,4,-2
1558441436856583,-1,3,1,0,0,0,0,-1
1558441436871776,-1,-2,2,-1,-5,-5,-5,-2
1558441436871776,0,0,10,-1,-6,-9,0,0
1558441436894721,4,1,-20,-6,1,7,6,3
1558441436894721,-4,-2,-2,-3,-2,3,3,1
1558441436895484,0,-5,-2,-1,2,-2,2,1
1558441436895484,-3,-5,4,-3,-5,-7,-7,-3
1558441436896479,3,1,0,-3,-4,-5,-7,-3
1558441436896479,5,6,-4,0,5,2,1,0
1558441436907672,-3,4,5,2,-2,3,-5,-5
1558441436907672,-2,-4,5,2,-2,4,1,-1
1558441436916571,-5,-4,-13,-7,-7,-7,-3,-2
1558441436916571,0,4,0,1,-2,6,-1,1
1558441436947341,1,2,1,-1,0,-9,-1,1
1558441436947341,0,2,0,4,4,-2,2,2
1558441436949336,-5,-14,-4,-3,-5,3,-1,-2
1558441436949336,1,2,5,0,-5,-13,-10,-3
1558441436950336,-4,-8,-8,-3,-2,1,2,0
1558441436950336,3,3,-2,-1,5,-1,4,3
1558441436954323,1,5,-2,1,2,2,1,1
1558441436954323,0,-5,7,2,2,9,-1,-2
1558441436968527,-4,-5,-10,-2,-4,-15,-4,-1
1558441436968527,-4,-5,-8,-5,-7,4,-4,-3
1558441437006184,9,4,8,3,5,-4,2,5
1558441437006184,-3,2,-10,-4,-2,-12,-5,1
1558441437015391,-5,-10,6,3,0,8,3,0
1558441437015391,-1,-4,-6,-4,-7,-4,-6,-1
1558441437017161,-4,-4,1,0,1,4,4,0
1558441437017161,4,-3,-3,-5,-3,1,-8,-2
1558441437017161,2,5,2,0,-3,1,2,1
1558441437017161,-2,-1,2,2,3,3,3,-1
1558441437021145,2,4,7,0,3,-6,0,1
1558441437021145,-3,0,-6,0,-3,-5,0,0
1558441437029153,-2,-3,-2,-3,0,2,-1,-1
1558441437029153,-3,-10,-13,-8,-7,-1,-4,-2
1558441437045082,-5,1,2,0,-4,-7,-6,-4
1558441437045082,3,3,5,3,10,11,10,3
1558441437045082,0,3,8,4,1,-7,-1,-3
1558441437045082,2,-2,-8,-6,-5,-4,-1,-1
1558441437059046,-7,-16,-8,-1,-4,-8,-5,-4
1558441437059046,-4,-7,-7,-4,-3,-8,-1,-2
1558441437065264,2,2,10,3,0,-1,-2,-1
1558441437065264,-1,5,2,2,4,2,0,-1
1558441437074057,0,4,-2,0,3,18,7,-2
1558441437074057,-1,0,0,-2,-6,-13,-3,-1
1558441437119880,3,1,2,1,7,9,0,2
1558441437119880,2,5,2,-1,-1,-5,0,1
1558441437121876,-6,-8,-2,-1,-4,-3,-8,-3
1558441437121876,4,-2,-3,-4,0,-4,5,2
1558441437122904,-7,-6,-8,-5,-1,4,-1,-1
1558441437122904,-8,-10,-8,-2,-4,0,-7,-5
1558441437127091,1,7,1,0,-3,-6,-3,-2
1558441437127091,-1,-3,3,3,0,1,3,-2
1558441437127862,4,5,7,-2,-2,-6,-4,-2
1558441437127862,-3,-2,3,3,5,3,1,0
1558441437134091,1,-1,-7,-7,-3,-5,0,2
1558441437134091,-4,0,-7,-4,-7,-1,-6,-4
1558441437172739,-2,-9,0,0,-2,-3,1,-1
1558441437172739,2,1,2,3,7,13,7,0
1558441437174733,3,3,5,-2,-3,-13,0,0
1558441437174733,-1,4,3,1,-1,0,-7,-1
1558441437175730,0,0,-5,-1,1,0,-1,-1
1558441437175730,2,-3,4,1,5,-1,2,2
1558441437178722,-4,-3,-1,2,0,0,1,0
1558441437178722,-1,4,-4,-3,-4,-1,-3,-1
1558441437184708,-3,-4,3,0,-4,5,-2,-1
1558441437184708,-1,2,-4,1,-1,1,-4,-2
1558441437193681,-1,-1,-6,-6,-1,-4,0,0
1558441437193681,-3,-1,4,1,-2,-1,1,-1
1558441437225596,1,2,-5,-3,1,0,-5,-1
1558441437225596,1,-5,-7,-7,-6,-3,0,-1
1558441437232893,-6,0,13,10,5,-1,0,1
1558441437232893,1,-1,-10,-6,-1,2,2,1
1558441437232893,-1,-2,-2,-2,-1,0,0,0
1558441437232893,-4,-3,5,0,-3,-5,-2,-3
1558441437234574,1,3,-3,-1,0,6,0,-3
1558441437234574,-3,-1,5,0,-2,-7,-4,-1
1558441437245879,0,-2,-5,-3,-2,-5,4,-1
1558441437245879,-2,-3,-5,-4,-6,-4,-4,-3
1558441437253522,2,-2,-4,-3,-2,0,-4,-2
1558441437253522,-4,-1,10,7,6,7,1,-1
1558441437267898,2,5,-23,-14,-6,-4,-4,0
1558441437267898,-9,-13,0,2,-1,-2,-2,0
1558441437276461,8,7,0,-1,-2,-2,2,2
1558441437276461,-7,-6,-1,2,0,-6,0,-3
1558441437291768,0,6,15,6,3,0,-2,-2
1558441437291768,-2,-13,-21,-10,-5,-3,0,-2
1558441437292419,0,-3,-2,-1,0,2,1,0
1558441437292419,4,1,-8,0,0,2,-1,-1
1558441437305737,-2,4,4,-2,-4,-3,-1,-1
1558441437305737,2,9,12,5,1,-1,-2,-1
1558441437321544,-5,-7,-12,-5,-2,-3,1,-3
1558441437321544,1,-2,-3,-1,-3,-2,0,-2
1558441437328352,-3,-4,-1,0,-2,0,1,0
1558441437328352,1,0,-3,0,0,0,-3,1
1558441437336304,-10,-1,-4,-4,-3,-5,-4,-2
1558441437336304,3,-2,5,-1,1,-7,-1,0
1558441437351288,-1,1,-5,-2,0,-1,2,-1
1558441437351288,0,2,4,-1,0,4,1,-2
1558441437353255,0,3,6,2,-3,-2,-1,0
1558441437353255,-3,0,-2,-1,3,-2,1,1
1558441437365222,-6,-9,-1,-2,0,1,-5,-3
1558441437365222,-1,6,0,2,-4,-11,-4,-1
1558441437374202,0,-9,-10,-5,1,10,3,0
1558441437374202,-5,1,-1,-2,-1,4,-1,-2
1558441437387167,-1,-4,3,1,-4,-2,-4,-3
1558441437387167,1,3,6,2,6,16,0,0
1558441437397375,6,3,5,4,-2,-17,3,1
1558441437397375,-1,-2,0,-1,-2,-2,-1,-1
1558441437412306,-7,-6,-6,-2,-6,-7,-5,-2
1558441437412306,1,-3,-11,-4,-7,0,-3,-3
1558441437413095,-1,-1,6,2,5,1,-2,2
1558441437413095,4,-2,-4,-3,0,-3,0,1
1558441437425401,1,2,2,0,2,-1,1,-1
1558441437425401,1,1,4,0,0,-4,-1,-1
1558441437434039,3,4,-4,-2,-2,0,-3,-1
1558441437434039,-3,0,0,0,-1,4,-1,-3
1558441437448364,1,-3,-2,-2,-3,3,-3,-3
1558441437448364,1,1,4,3,5,-3,3,1
1558441437456982,-3,-8,2,1,1,3,1,0
1558441437456982,-5,-10,-15,-9,-7,-10,-6,-1
1558441437472257,-2,-3,-6,-2,0,-5,-3,-1
1558441437472257,2,8,10,3,3,2,3,0
1558441437472938,-5,-1,-3,-2,-2,0,-1,-3
1558441437472938,-3,-1,-3,-4,-2,3,-4,-3
1558441437494188,2,4,10,5,3,3,3,1
1558441437494188,-2,-10,-20,-10,-2,-8,-4,-2
1558441437494877,-3,6,2,-1,-8,-5,-7,-5
1558441437494877,-5,-14,3,0,-4,-2,2,-1
1558441437508176,4,2,-4,2,5,11,2,1
1558441437508176,1,5,1,-3,-5,-5,3,-1
1558441437516821,-4,-2,-4,-2,0,6,-2,0
1558441437516821,7,7,10,3,-2,-6,-5,0
1558441437532081,0,-4,-18,-9,-2,-4,1,-1
1558441437532081,5,1,7,3,-1,0,0,1
1558441437532776,-7,-3,-5,-1,-2,-3,-3,-5
1558441437532776,-7,-8,-23,-13,-9,-6,-3,-4
1558441437545791,5,0,3,1,2,2,3,2
1558441437545791,-1,2,1,-1,2,3,0,-2
1558441437553719,5,3,10,3,0,3,3,2
1558441437553719,-2,-11,3,1,2,1,-2,-3
1558441437567988,-5,-1,-4,-1,-5,-5,-5,-2
1558441437567988,-1,-2,-5,-6,-6,-3,2,0
1558441437576659,1,3,4,1,2,-2,0,2
1558441437576659,0,3,5,3,2,5,3,1
1558441437591945,3,6,2,1,-1,-1,-1,-1
1558441437591945,-7,-13,-14,-6,-4,-5,-2,-3
1558441437597601,-2,-9,-1,-4,-3,-3,-4,-2
1558441437597601,-3,3,-12,-4,-1,2,-3,0
1558441437605910,0,0,16,8,9,3,5,4
1558441437605910,-2,7,7,2,-3,-3,-4,-2
1558441437613923,0,3,-19,-8,2,10,5,-1
1558441437613923,-1,-9,3,3,0,-1,4,-1
1558441437627520,-2,2,-2,-3,-6,-6,-5,-3
1558441437627520,-2,-3,7,2,7,5,2,2
1558441437636498,3,-3,-1,-2,-6,-9,-6,-2
1558441437636498,-9,1,3,0,-3,-3,-5,-3
1558441437651493,2,-1,-8,-3,-5,2,3,-1
1558441437651493,0,1,2,1,-2,-1,-1,0
1558441437652454,-4,-8,3,2,-3,0,-6,-2
1558441437652454,12,16,16,8,8,4,4,2
1558441437665418,-24,-34,-45,-22,-9,-10,-4,-6
1558441437665418,2,-3,5,2,-1,1,-1,-3
1558441437680817,-1,-1,-7,-3,2,2,0,1
1558441437680817,4,5,6,1,-2,-3,-3,-1
1558441437688587,3,7,13,2,-3,-3,-1,1
1558441437688587,5,7,0,4,14,18,10,2
1558441437696774,-5,-8,-5,-5,-3,-5,0,0
1558441437696774,0,-2,-7,-3,-2,0,-1,-1
1558441437711725,3,3,3,-2,-4,-3,-7,-1
1558441437711725,-9,-4,-7,-5,-7,-2,-2,-3
1558441437713292,2,7,13,6,6,5,-4,-2
1558441437713292,-4,-6,-14,-8,-4,-2,-1,0
1558441437725491,2,-1,4,3,0,-6,3,0
1558441437725491,2,6,12,5,-1,-4,-6,-1
1558441437734239,1,-2,-21,-12,-3,4,-1,-2
1558441437734239,-11,-7,3,0,-2,-4,-4,-2
1558441437747640,-2,-5,-9,-6,-4,-7,-3,-2
1558441437747640,-1,-2,-3,3,1,2,3,2
1558441437756600,-4,0,0,-1,-5,-5,-1,-3
1558441437756600,2,0,4,2,6,11,4,2
1558441437772164,5,10,15,6,6,-3,2,4
1558441437772164,-5,-15,-11,-6,-6,-11,-5,-4
1558441437773161,-1,1,-6,-4,-5,0,-6,-3
1558441437773161,-3,-6,-8,-3,-2,9,-3,-3
1558441437785101,-1,3,8,5,4,10,6,2
1558441437785101,-1,-6,-1,-1,-2,-6,-3,0
1558441437794078,4,5,10,5,3,-2,-1,2
1558441437794078,-12,-10,-12,-6,-7,-13,-8,-5
1558441437808365,0,-3,-2,1,2,2,1,-1
1558441437808365,-2,1,1,-2,-2,3,4,-2
1558441437816357,-2,0,6,1,-3,-6,1,-3
1558441437816357,2,-1,-8,-3,2,-3,3,1
1558441437832326,-2,-5,-5,-1,-1,5,-6,-2
1558441437832326,3,3,-5,-1,-1,4,0,1
1558441437832973,-2,-3,-2,2,5,-3,0,0
1558441437832973,9,8,5,-2,-6,-9,-1,-1
1558441437845260,-6,-2,-2,-2,-2,4,-3,-3
1558441437845260,-1,0,2,0,-2,-4,0,0
1558441437853915,1,2,5,1,-2,-5,3,0
1558441437853915,4,-1,-1,-1,-3,-2,-3,-1
1558441437868216,0,1,9,6,-2,1,-6,-2
1558441437868216,-3,-4,-19,-5,-1,-10,2,2
1558441437876859,-1,-2,0,-3,2,5,3,1
1558441437876859,-2,0,3,0,-3,-2,-5,-3
1558441437891149,0,-3,3,0,-4,-2,-5,-3
1558441437891149,-1,4,10,5,7,2,2,3
1558441437898135,1,-1,-2,2,1,-2,3,2
1558441437898135,0,0,-7,-3,0,-1,0,0
1558441437905900,4,4,10,2,4,9,2,0
1558441437905900,-2,-1,1,0,-6,-6,-6,-1
1558441437914088,-4,-5,-20,-10,-4,-2,-5,-5
1558441437914088,-3,-3,0,-1,-4,-1,0,-2
1558441437936694,-1,-1,-3,-4,-3,-8,-2,0
1558441437936694,-2,2,2,-1,-1,-7,-3,-3
1558441437937828,2,4,14,8,4,-9,-2,0
1558441437937828,-4,-9,-17,-5,-5,2,-4,-3
1558441437950983,-2,0,-9,-5,2,2,2,0
1558441437950983,3,-1,3,-1,-3,2,-8,-3
1558441437957953,-8,0,10,1,-2,7,3,0
1558441437957953,3,-3,1,2,5,-3,0,-1
1558441437965951,0,-3,-2,0,-2,-3,2,-2
1558441437965951,-2,0,-4,-3,-6,4,-4,-3
1558441437973950,0,0,-1,0,-6,-5,-5,-4
1558441437973950,3,8,13,5,7,5,6,5
1558441437987878,-5,-4,-10,-6,-2,-8,-3,0
1558441437987878,0,-1,-2,-2,2,2,-5,-2
1558441437996534,-3,-6,-9,-4,-7,-4,1,1
1558441437996534,-2,1,6,0,-2,-1,-3,1
1558441438010496,2,3,0,-1,-5,5,-4,-4
1558441438010496,-2,-3,1,1,1,0,2,-1
1558441438017828,-1,-7,-2,-1,0,-17,-6,-2
1558441438017828,-1,4,2,0,1,4,0,1
1558441438034824,-1,-6,-2,0,0,3,3,-1
1558441438034824,-5,-3,-4,-4,-2,4,1,-1
1558441438035430,-1,-3,-7,-3,-1,2,-2,-1
1558441438035430,-1,3,6,3,0,-5,0,-3
1558441438048433,3,4,0,0,1,-2,-3,2
1558441438048433,-1,-2,-6,-3,-2,3,0,-2
1558441438056650,3,-1,0,0,2,3,0,-1
1558441438056650,-13,-11,-3,-6,-6,-9,-2,-5
1558441438071497,-1,-1,-1,-1,-2,-6,-3,0
1558441438071497,-1,0,2,1,2,-3,-1,2
1558441438078384,4,2,-1,0,-1,4,1,3
1558441438078384,1,2,4,3,0,1,2,-2
1558441438094595,-5,-5,-4,-2,-4,-2,1,-2
1558441438094595,-2,-3,-4,-3,-4,-6,-4,-2
1558441438095271,-2,-2,-13,-5,-3,5,-3,-2
1558441438095271,2,3,7,4,8,13,6,3
1558441438108264,-2,-4,-4,-1,-3,-17,-3,-3
1558441438108264,4,7,12,7,3,8,5,2
1558441438116559,-5,-6,-11,-6,-5,-4,-3,-2
1558441438116559,-3,-7,-10,-3,-2,5,1,0
1558441438131535,2,1,4,2,-1,-4,0,-1
1558441438131535,0,4,6,1,4,1,0,-1
1558441438138206,-3,2,5,-3,-2,1,-2,-1
1558441438138206,-4,-5,-5,-1,-8,-8,-4,-1
1558441438154423,2,1,-8,-7,-4,-2,-6,-4
1558441438154423,-4,-6,2,0,-5,-14,-5,-3
1558441438155110,2,5,3,1,4,5,6,2
1558441438155110,-2,-10,-7,-3,2,-1,-3,-1
1558441438168364,0,-2,4,1,3,-1,0,0
1558441438168364,4,2,-1,0,-2,-3,-1,-1
1558441438177276,-3,3,0,-2,-4,-4,-4,-3
1558441438177276,2,1,-1,-5,-14,-8,-10,-6
1558441438191276,0,-1,-8,1,3,10,3,2
1558441438191276,0,-5,-8,-4,10,-11,7,6
1558441438198015,-4,-10,-7,1,4,2,4,1
1558441438198015,-1,7,8,2,2,7,1,-2
1558441438214225,-3,-1,1,0,-5,-3,-2,-3
1558441438214225,-1,-3,-1,-5,-8,-3,-7,-3
1558441438215979,1,0,6,2,-2,-1,-4,-2
1558441438215979,0,1,-8,-6,-5,-5,-1,-1
1558441438235924,1,7,17,6,1,-5,0,0
1558441438235924,0,-1,-21,-6,6,16,6,0
1558441438242992,-5,-9,1,-1,-4,-9,-6,-2
1558441438242992,-3,0,2,1,1,-3,-1,0
1558441438251215,-3,-4,-8,-4,2,1,-1,1
1558441438251215,-3,0,-1,0,-7,-4,0,-3
1558441438258190,2,-1,0,-1,-2,2,-2,-2
1558441438258190,4,4,2,1,4,-2,1,2
1558441438274154,0,-1,7,3,0,0,1,0
1558441438274154,-4,1,6,2,-4,-1,-2,-3
1558441438275790,6,4,-15,-6,0,8,2,-2
1558441438275790,-16,-14,-17,-9,-4,-8,-3,-3
1558441438288114,-2,-8,1,1,5,-2,3,1
1558441438288114,-8,-7,0,-1,-2,-13,-4,-2
1558441438296732,-1,4,10,4,3,1,3,0
1558441438296732,6,8,7,2,-2,-2,-1,1
1558441438311087,-6,0,-6,-5,-8,1,-7,-5
1558441438311087,-1,-2,0,-1,2,1,0,-1
1558441438318028,3,0,14,9,6,1,4,1
1558441438318028,5,1,-8,-1,1,4,-2,-1
1558441438334764,-2,-3,-4,-3,-3,0,-8,-1
1558441438334764,2,1,9,-1,-7,-4,-3,1
1558441438335632,-2,-3,-17,-5,-1,-2,1,0
1558441438335632,-2,-5,-3,1,-3,-4,2,-3
1558441438347944,1,0,1,1,0,4,-3,-2
1558441438347944,0,2,-2,-1,-2,6,-5,-4
1558441438356574,0,2,10,2,-2,-3,-3,-1
1558441438356574,1,2,14,3,6,0,5,4
1558441438370561,0,-2,-20,-8,1,-8,4,0
1558441438370561,2,0,-3,-1,-2,-5,-1,-1
1558441438377516,-4,-3,-3,-3,0,5,-2,-2
1558441438377516,1,1,3,2,-3,3,-2,-3
1558441438393473,4,3,6,0,2,-10,5,1
1558441438393473,-7,-10,-12,-5,-3,-3,-3,-4
1558441438395495,0,0,-1,1,-3,-3,-1,-2
1558441438395495,-5,-3,-3,-3,1,5,4,-2
1558441438407434,-2,-1,2,0,-8,6,-4,-3
1558441438407434,0,0,-2,0,4,7,4,1
1558441438416410,0,3,6,1,1,-15,-4,4
1558441438416410,3,4,-1,-1,-1,-3,-1,0
1558441438431550,-3,-4,-15,-8,-7,-2,0,-3
1558441438431550,2,4,0,-3,0,2,1,-2
1558441438437355,-9,-20,-9,-4,-5,3,-5,-5
1558441438437355,4,6,10,1,5,-2,1,4
1558441438453788,-1,3,3,3,7,2,3,2
1558441438453788,-6,-12,0,0,-1,-2,-1,0
1558441438455784,-3,5,9,3,-1,1,-3,-3
1558441438455784,-4,-6,-15,-5,-8,-7,-1,-4
1558441438468114,0,5,1,1,3,10,3,-2
1558441438468114,2,-1,-2,-1,-4,-7,-3,1
1558441438476518,1,1,5,5,-1,1,2,0
1558441438476518,4,5,-1,1,0,-1,-3,0
1558441438491513,-17,-13,-6,-4,-3,-3,-5,-5
1558441438491513,1,3,2,0,5,9,2,1
1558441438498456,-2,1,-3,-3,-2,-4,0,-2
1558441438498456,3,6,11,6,3,0,-2,0
1558441438515169,3,-1,1,0,-2,-5,1,3
1558441438515169,-1,-4,-12,-5,-2,0,0,-1
1558441438516466,-2,-3,-4,-2,-2,-18,-2,-3
1558441438516466,1,1,-3,-4,-1,4,-2,-3
1558441438528381,0,-8,4,0,-3,-10,-3,-4
1558441438528381,1,2,10,6,9,19,5,1
1558441438536030,4,5,0,1,0,-3,4,-1
1558441438536030,-5,-9,-5,-5,-3,0,-4,-4
1558441438552201,3,7,9,3,4,9,1,0
1558441438552201,0,1,-7,-7,-11,-9,-10,-4
1558441438558251,-5,-3,-14,-7,-2,-6,0,0
1558441438558251,-2,-3,-1,-1,1,5,4,0
1558441438574223,-4,-5,-1,-1,-5,-10,-3,-1
1558441438574223,0,2,2,0,2,4,-1,0
1558441438574926,1,-1,2,0,0,11,1,1
1558441438574926,2,-3,1,-2,-7,-21,-6,0
1558441438588197,5,6,2,1,1,9,-2,-3
1558441438588197,-4,-6,-8,-4,-7,-18,-2,-3
1558441438596868,-2,0,0,-4,2,8,-1,-1
1558441438596868,-2,-2,-4,0,3,2,3,3
1558441438610826,3,4,8,1,-1,-2,0,0
1558441438610826,-2,-6,0,3,1,6,4,-1
1558441438617810,-1,0,-3,-2,0,3,-4,-3
1558441438617810,2,2,-2,-1,-1,-5,0,-1
1558441438633764,-9,-15,-10,-6,-4,2,-4,-4
1558441438633764,3,5,1,-1,-2,-3,-4,-2
1558441438635760,0,-2,-4,-1,-4,-5,1,1
1558441438635760,7,11,4,1,1,2,-4,0
1558441438647727,-5,-6,1,-1,1,-3,4,-2
1558441438647727,-6,-8,4,1,-4,-1,-2,-2
1558441438656713,6,4,-2,-2,2,-4,-2,0
1558441438656713,-7,-10,-3,0,-2,-4,-2,0
1558441438678645,2,5,14,4,2,-2,-1,0
1558441438678645,0,0,-6,-5,-1,-1,-1,-3
1558441438680639,-1,0,-7,-1,-1,2,-2,-1
1558441438680639,-3,-6,-8,-7,-6,0,-2,-2
1558441438693606,-4,-4,-10,-3,-1,1,2,-2
1558441438693606,3,5,14,7,1,-3,3,0
1558441438695599,-10,-5,-2,-4,-2,-2,-3,-3
1558441438695599,-1,-5,-3,1,2,2,-1,-4
1558441438707604,4,1,8,2,1,0,-2,2
1558441438707604,-4,-2,-17,-6,-2,-4,-4,0
1558441438716543,2,-1,5,-3,-5,1,-6,-3
1558441438716543,-3,-2,-7,-3,-3,-1,-3,-4
1558441438730507,1,0,4,4,8,1,6,1
1558441438730507,1,-1,0,3,5,-5,4,0
1558441438737557,-1,-4,-1,-2,-3,-1,-1,-2
1558441438737557,-3,-4,5,2,-4,0,-2,0
1558441438754449,1,1,-5,-2,-2,2,-3,-1
1558441438754449,0,3,3,-2,-4,-4,-5,-3
1558441438755442,0,0,-8,-5,-4,0,-5,-4
1558441438755442,-6,-12,-7,-5,-1,1,-7,-5
1558441438767685,-2,0,-2,1,-1,-4,2,0
1558441438767685,-1,-2,-1,1,2,10,5,1
1558441438776504,8,4,11,5,4,-10,1,2
1558441438776504,-9,1,-7,-4,4,5,-2,0
1558441438791499,1,-1,-9,-4,-5,-3,-3,-3
1558441438791499,2,0,-5,-5,-6,-3,-2,-1
1558441438797611,-5,-2,2,0,-4,-1,0,0
1558441438797611,2,-3,6,3,2,5,4,2
1558441438813286,1,3,-5,-1,-2,-9,-3,0
1558441438813286,2,1,1,-3,-3,0,-8,-1
1558441438820267,-1,-1,10,3,3,4,3,1
1558441438820267,-1,-3,-6,-6,-5,-3,1,-3
1558441438828360,-1,1,-5,-5,-8,-1,-5,-4
1558441438828360,-7,-7,0,4,5,1,5,0
1558441438844230,1,2,7,3,2,-6,2,1
1558441438844230,-1,3,2,0,1,3,-2,0
1558441438851699,3,-3,-7,-5,-1,-1,-1,1
1558441438851699,-2,-8,-4,-6,-5,-3,-6,-2
1558441438858293,-4,-5,2,1,-2,2,-3,-1
1558441438858293,3,4,3,1,0,-7,2,2
1558441438873547,0,1,0,-1,-5,-4,-7,-3
1558441438873547,0,6,2,-2,1,-3,2,0
1558441438880497,-3,-12,-4,0,1,1,3,1
1558441438880497,1,2,4,0,0,1,-2,-3
1558441438888332,2,1,-2,-5,2,-1,-5,-1
1558441438888332,-7,-3,5,2,-3,-3,-2,-1
1558441438904069,1,5,-5,-7,-7,0,-3,-2
1558441438904069,-1,-7,-6,-2,-1,-1,1,0
1558441438911413,0,-1,4,2,0,-1,2,-1
1558441438911413,1,3,1,-1,-1,-2,-1,-2
1558441438918362,-3,1,-10,-3,0,1,-2,0
1558441438918362,2,0,0,0,-1,-1,-2,0
1558441438934022,-5,-5,0,0,0,0,3,0
1558441438934022,2,2,1,-1,-1,-4,-3,-1
1558441438940266,2,-1,-9,-2,0,-1,1,-2
1558441438940266,-5,-3,-1,-1,-2,-2,-2,-4
1558441438948252,-2,-3,1,0,0,4,0,-1
1558441438948252,-7,-8,-2,-1,-2,-1,-1,-2
1558441438956930,2,0,-2,-3,-2,0,-2,0
1558441438956930,1,0,-3,-2,-6,-3,-6,-3
1558441438970893,1,4,3,1,-2,-10,1,3
1558441438970893,-3,-3,-5,3,9,3,5,3
1558441438978177,1,2,5,3,13,18,6,1
1558441438978177,-2,-4,-14,-8,-9,-14,-6,-3
1558441438993893,0,4,2,2,2,10,0,-2
1558441438993893,-3,-8,-12,-6,-9,-5,0,-3
1558441439000103,2,5,9,5,7,-5,1,2
1558441439000103,3,3,11,6,1,8,3,2
1558441439024046,-7,-10,-10,-6,0,0,-4,0
1558441439024046,6,11,3,0,-4,-2,-5,-1
1558441439025777,-7,-5,-4,-6,-7,-6,-3,-3
1558441439025777,2,-1,2,-1,-1,2,-3,-3
1558441439031032,-4,-3,-4,0,-1,1,-2,-2
1558441439031032,0,-5,-1,-2,2,0,1,0
1558441439037716,-2,0,0,1,-3,-7,0,0
1558441439037716,1,5,2,1,2,0,4,1
1558441439052707,-3,0,-2,1,5,5,0,-1
1558441439052707,0,1,-6,-3,-2,1,-1,-2
1558441439060684,-3,-5,-3,-1,-2,5,-2,-1
1558441439060684,-2,1,-4,-4,-4,-1,-3,0
1558441439076875,2,3,4,-4,-2,-1,1,-2
1558441439076875,-10,-12,10,3,6,0,6,0
1558441439077609,1,-1,-2,0,-5,-10,-9,-5
1558441439077609,1,1,-7,-1,2,8,4,2
1558441439089573,-13,-5,-3,1,2,-5,1,-1
1558441439089573,1,0,-5,-2,-3,-4,-6,-4
1558441439098553,0,-1,10,4,1,4,0,-1
1558441439098553,-2,-3,-4,-4,-1,4,2,0
1558441439113510,1,-3,-10,-4,-5,0,-6,-3
1558441439113510,3,7,1,-2,-4,-7,-4,-2
1558441439119493,-3,-7,-4,-1,1,2,1,-1
1558441439119493,-2,1,3,1,0,-3,0,-1
1558441439136449,7,5,7,3,-2,-8,0,1
1558441439136449,0,3,-7,-2,0,8,0,0
1558441439137472,-11,-7,-14,-7,-4,-10,-6,-5
1558441439137472,-1,3,14,6,0,-7,-2,1
1558441439150954,-4,-10,-13,-7,-5,-4,1,-2
1558441439150954,-2,-2,0,-3,-6,-13,-6,-3
1558441439159394,3,4,-5,-4,-8,-4,-6,-3
1558441439159394,-3,-2,-1,3,7,10,7,2
1558441439173709,3,7,11,5,6,6,-1,1
1558441439173709,9,6,6,1,-3,-5,-1,3
1558441439180335,-9,-7,-16,-6,-2,6,1,-1
1558441439180335,-11,-14,-4,-2,-7,-12,-9,-4
1558441439197289,0,0,-7,-3,4,7,3,2
1558441439197289,0,2,4,3,3,3,1,1
1558441439198542,4,3,9,2,3,6,4,-1
1558441439198542,2,3,-3,-5,-4,4,-2,-4
1558441439210253,3,-1,6,5,1,-12,1,2
1558441439210253,2,1,4,0,-2,-7,-1,-1
1558441439219229,3,8,3,0,-1,2,-3,-1
1558441439219229,-3,-8,-18,-8,0,-1,-2,-3
1558441439233194,-8,-16,-17,-8,-6,-3,-5,-4
1558441439233194,-2,-6,3,2,-1,-5,1,-2
1558441439240171,1,2,2,0,-4,-1,0,0
1558441439240171,6,12,17,6,9,11,6,3
1558441439256127,0,3,11,3,-1,-2,-2,0
1558441439256127,-4,-3,-11,-6,-6,-4,-8,-2
1558441439258125,0,-2,-4,-3,-3,-5,-2,-1
1558441439258125,1,-1,-4,-1,-4,-9,-2,-2
1558441439270098,-1,-3,-7,-7,-4,-3,-8,-3
1558441439270098,-10,-9,2,3,-1,0,1,0
1558441439279069,-2,-6,0,0,3,4,4,3
1558441439279069,2,1,4,1,-1,-10,-2,0
1558441439293030,3,-3,-1,-4,-5,1,-4,-1
1558441439293030,2,5,-1,-3,-6,-4,-6,-3
1558441439300214,0,-8,0,0,0,-1,1,0
1558441439300214,-1,1,3,3,3,3,4,-2
1558441439316429,3,10,9,3,2,-2,1,0
1558441439316429,-10,-12,-30,-13,0,5,1,-2
1558441439317963,1,-3,1,-2,-3,-3,-3,0
1558441439317963,-1,-4,2,0,-2,-4,-6,-4
1558441439330144,-1,3,2,3,-3,1,2,2
1558441439330144,2,4,5,1,-1,4,-1,0
1558441439338906,-1,-4,-7,-4,-3,-4,-2,-2
1558441439338906,1,0,-5,-3,0,-1,0,1
1558441439352869,-5,-3,1,2,-5,-2,1,-3
1558441439352869,3,3,-2,-2,1,5,0,-2
1558441439367830,2,2,4,3,2,-2,5,3
1558441439367830,-4,0,-8,-4,-4,0,-1,-4
1558441439376806,-1,-14,3,0,-1,-2,0,-1
1558441439376806,1,-2,-10,-1,2,4,2,1
1558441439377802,0,5,6,2,0,-5,-1,-3
1558441439377802,-3,-6,-6,-5,-5,-4,-5,-1
1558441439389782,-3,2,-8,-5,-1,-1,-3,-3
1558441439389782,-1,-1,2,1,0,-4,0,-1
1558441439398746,3,3,3,2,1,0,-3,0
1558441439398746,0,-1,6,-2,0,0,2,3
1558441439412871,-1,-5,-8,-2,-6,-3,-1,-2
1558441439412871,0,3,10,1,0,-5,3,0
1558441439419691,0,0,-14,-4,2,8,1,0
1558441439419691,-4,-5,0,-1,-4,-9,-6,-2
1558441439436649,-1,-1,2,2,2,6,4,3
1558441439436649,-2,6,5,4,-1,-3,-1,-3
1558441439437648,0,0,-1,-3,-2,3,-1,-2
1558441439437648,-6,-3,-5,-2,-1,-5,1,0
1558441439458879,1,-2,-7,-3,0,-1,-1,1
1558441439458879,1,-2,0,1,-4,-5,-4,-2
1558441439460582,1,0,-1,-3,0,1,-5,0
1558441439460582,-7,-3,0,-1,1,6,-2,-1
1558441439473546,-1,-4,-1,-2,-5,-14,-2,-4
1558441439473546,3,2,5,2,5,4,2,2
1558441439479595,0,2,6,3,-4,-3,-4,-1
1558441439479595,3,-5,-9,-3,-1,-5,-1,0
1558441439496497,-3,4,-3,0,4,9,5,0
1558441439496497,2,6,1,0,0,7,1,2
1558441439497483,-8,-17,-8,-6,-3,-7,-2,-2
1558441439497483,4,4,9,2,-2,6,1,0
1558441439509485,6,1,-1,-2,-1,-6,-8,-3
1558441439509485,-1,3,-5,-2,3,-4,2,-1
1558441439519429,-1,1,-3,-3,-5,-8,1,-1
1558441439519429,1,2,-7,-2,-3,-3,-6,-1
1558441439533387,-1,1,4,0,2,9,7,2
1558441439533387,2,3,0,0,-1,1,3,1
1558441439540369,-2,-2,1,-1,0,-3,-2,-3
1558441439540369,6,4,6,5,7,3,7,5
1558441439556325,-4,3,3,-2,-5,-21,-5,-1
1558441439556325,-1,-10,-20,-10,-8,-5,-5,-4
1558441439558347,-5,-8,0,0,-4,4,0,-3
1558441439558347,-2,0,-1,-3,-7,-10,-11,-6
1558441439570288,1,0,-9,-3,7,10,10,5
1558441439570288,-2,-5,16,7,5,1,1,1
1558441439579274,-3,-5,-16,-8,-6,-4,-3,-3
1558441439579274,3,6,1,-4,0,1,-2,0
1558441439593226,-2,-2,-6,-2,-1,0,-3,-3
1558441439593226,-5,-7,-1,-1,-5,-7,-7,-3
1558441439607189,4,5,3,2,2,3,4,0
1558441439607189,0,2,4,2,0,1,2,-1
1558441439616166,-2,-3,10,6,-2,-3,0,0
1558441439616166,-3,-5,-19,-13,-6,-9,-2,0
1558441439618160,-1,3,8,3,3,-2,-1,2
1558441439618160,-2,-2,-6,-1,0,-2,1,-2
1558441439630127,6,5,5,-1,1,8,-2,-1
1558441439630127,0,-1,4,3,-2,5,-6,-5
1558441439639107,-12,-9,-7,-2,-2,0,3,0
1558441439639107,-3,-2,-4,-3,-8,-2,-7,-5
1558441439653072,-1,0,0,0,-1,-5,-1,1
1558441439653072,4,5,3,1,-1,-1,-2,0
1558441439660048,2,7,3,-3,-1,-18,-6,1
1558441439660048,-2,-3,-2,-1,0,4,2,-1
1558441439677015,-1,6,9,5,4,16,5,-4
1558441439677015,-7,-11,-17,-7,0,-1,2,1
1558441439678002,-3,-2,1,3,-6,-3,-2,-3
1558441439678002,-1,-3,-3,-1,-4,-3,-4,-3
1558441439689968,1,2,-1,0,-1,-15,-6,-1
1558441439689968,2,3,8,0,1,6,4,0
1558441439698945,7,9,1,0,2,3,0,2
1558441439698945,2,-4,1,-1,1,2,-4,0
1558441439713121,1,5,-9,-5,-11,-1,-11,-7
1558441439713121,-11,-11,7,3,1,-7,8,1
1558441439719892,-3,-4,-14,-5,5,-5,3,0
1558441439719892,-1,-4,-1,1,8,14,13,5
1558441439735846,0,0,3,1,-1,-2,-11,-3
1558441439735846,1,3,1,-3,-3,-18,-10,-3
1558441439742828,1,2,0,0,-5,5,-2,-2
1558441439742828,-3,-3,-6,-4,-4,-8,-2,-1
1558441439749858,-1,0,-4,-3,2,15,5,0
1558441439749858,0,-1,9,5,-4,2,-1,-2
1558441439758785,-3,-4,-4,-1,2,-4,1,0
1558441439758785,1,2,5,1,-6,-18,-3,-1
1558441439772747,-6,-15,-6,-4,-2,-2,-5,-1
1558441439772747,2,6,2,2,4,10,0,1
1558441439779727,-2,1,-2,-5,-4,-6,-5,-2
1558441439779727,-4,1,2,-1,1,8,0,-1
1558441439795686,-10,-13,-9,-5,-11,-11,-5,-4
1558441439795686,3,8,8,5,9,6,7,6
1558441439802668,4,-7,-19,-6,4,12,10,3
1558441439802668,-4,1,7,2,0,-2,-9,-2
1558441439809647,-1,-3,-10,-7,-7,-8,-3,-1
1558441439809647,-4,-2,-9,-7,-6,-1,-7,-5
1558441439818624,3,4,12,5,1,7,4,1
1558441439818624,5,3,0,2,3,-3,0,0
1558441439833602,4,1,1,3,3,-6,4,2
1558441439833602,0,4,2,-1,-6,3,0,-3
1558441439839568,0,3,-3,-3,-3,-1,-6,-2
1558441439839568,-5,-11,1,0,-3,0,7,0
1558441439855524,-6,-7,-14,-9,-6,-2,-9,-7
1558441439855524,1,0,-1,-1,-2,-3,-5,-4
1558441439870488,0,1,11,3,3,-5,-1,-1
1558441439870488,1,2,-2,1,1,6,1,0
1558441439871482,0,-3,-7,0,8,6,10,7
1558441439871482,-2,1,2,-1,-2,-11,-5,-1
1558441439878495,-4,0,-6,-3,-5,-6,-5,-5
1558441439878495,-2,-4,1,-1,-2,-2,-4,-1
1558441439893424,3,1,-5,-3,-1,2,-1,2
1558441439893424,-5,-4,4,0,-1,7,-5,-1
1558441439901403,7,3,1,3,-4,-16,3,3
1558441439901403,-5,1,3,-1,-4,-4,0,-3
1558441439915365,-7,-6,-8,-5,-2,7,-3,-6
1558441439915365,6,3,-7,0,1,-4,-1,0
1558441439930325,-3,-1,6,2,-1,1,-2,0
1558441439930325,0,-2,-10,-1,5,6,6,2
1558441439939305,3,8,4,0,1,-3,3,2
1558441439939305,-4,-4,-7,-4,1,4,2,-1
1558441439940298,-6,-11,-1,-2,-4,1,-2,-5
1558441439940298,0,-1,-1,-2,0,-4,-9,-2
1558441439953265,-2,0,12,4,-5,-5,-7,-5
1558441439953265,8,11,-11,-4,3,0,6,3
1558441439960251,-3,-7,6,3,1,0,4,-1
1558441439960251,-2,-8,-2,-2,-7,-11,-3,-4
1558441439984259,-4,-4,-6,-5,-5,-5,-6,-4
1558441439984259,-2,-5,4,0,-4,3,-2,-4
1558441439985184,0,3,5,0,1,3,-5,-2
1558441439985184,4,6,0,-1,1,-2,-2,3
1558441439999141,-1,2,11,7,8,0,8,5
1558441439999141,-9,-16,-19,-6,-1,-2,3,-3
1558441440000139,-1,0,-1,-2,-3,3,-2,-6
1558441440000139,-3,-2,-5,-7,-6,-7,-3,0
1558441440013104,4,2,0,2,2,0,5,2
1558441440013104,-2,-2,2,-3,-7,1,-1,-2
1558441440020086,2,0,2,1,5,5,-2,-1
1558441440020086,4,9,7,2,3,1,2,0
1558441440036043,-1,-2,-11,-9,-7,-14,-4,-2
1558441440036043,-9,-17,-8,-2,-5,-3,-8,-3
1558441440042026,0,2,-2,-2,0,7,1,1
1558441440042026,1,3,14,5,-1,4,1,-1
1558441440058980,-2,-2,-9,-4,1,-4,-4,-1
1558441440058980,1,3,2,2,3,4,0,-1
1558441440060180,0,0,0,-1,-3,-6,-2,-2
1558441440060180,-4,-8,-17,-5,-4,-5,-2,-1
1558441440072944,2,8,11,6,0,4,-1,-1
1558441440072944,4,0,10,4,9,2,3,3
1558441440079924,-4,-7,-9,-3,-1,0,-5,-3
1558441440079924,-7,-8,-7,-8,-4,-1,-2,-1
1558441440095883,2,-1,3,3,-2,-2,1,0
1558441440095883,-2,7,-1,-4,-11,-13,-2,-2
1558441440102877,4,5,6,4,4,12,2,2
1558441440102877,-6,-16,-11,-4,2,-6,0,2
1558441440118821,-1,2,9,3,0,0,0,0
1558441440118821,4,2,5,2,7,3,0,3
1558441440119820,-3,3,-5,-3,-9,-10,-6,-3
1558441440119820,-5,-11,-10,-8,-13,-4,-4,-5
1558441440132783,2,0,1,1,8,10,7,3
1558441440132783,-1,1,6,7,8,-5,1,2
1558441440139765,-1,-1,-3,-4,0,5,-1,0
1558441440139765,-3,-1,1,-1,-1,0,-4,-3
1558441440155722,-5,-3,-6,-3,-9,-14,-8,-3
1558441440155722,2,2,-3,-3,-7,2,4,-3
1558441440162703,-5,-7,1,1,1,1,0,1
1558441440162703,4,8,11,5,6,-3,7,2
1558441440178660,-2,1,4,-1,0,8,-1,0
1558441440178660,0,-6,-19,-8,-8,-13,-8,-3
1558441440180655,-4,-5,2,-1,-2,-6,-3,-3
1558441440180655,-2,0,-12,-6,-11,-8,-1,-5
1558441440193620,0,1,14,6,9,10,5,-2
1558441440193620,-3,1,-12,-6,5,9,2,1
1558441440199604,-3,-9,-10,-6,-6,-3,-4,-3
1558441440199604,5,5,-2,-2,-3,-3,-7,0
1558441440215562,-4,0,-4,-5,-6,0,1,-3
1558441440215562,0,2,7,0,-9,-14,0,-3
1558441440222544,2,3,0,4,14,11,3,2
1558441440222544,-2,-12,1,-1,5,1,-3,-1
1558441440238500,-3,-1,-1,-2,3,2,1,1
1558441440238500,-5,-9,-1,-2,-4,0,-9,-5
1558441440240496,0,3,-10,-7,-12,-10,-5,-2
1558441440240496,1,9,10,5,3,7,3,-1
1558441440253462,1,-5,-5,-4,-9,-12,-4,-2
1558441440253462,-4,-10,10,8,5,-1,1,-1
1558441440260442,-1,2,-9,-5,2,1,-1,-1
1558441440260442,1,3,0,2,6,11,9,3
1558441440275402,-2,-3,-7,-3,-4,-7,-8,-4
1558441440275402,-1,4,3,-1,-1,-6,-2,-1
1558441440282383,2,1,8,3,0,-2,2,1
1558441440282383,-2,-1,-2,-4,1,-12,-2,-2
1558441440299346,-2,-2,0,0,4,9,6,-2
1558441440299346,1,5,-1,-1,-5,0,-3,-1
1558441440300338,0,1,9,3,0,0,-4,-3
1558441440300338,-3,-7,-8,-2,-5,0,-2,-4
1558441440313304,-1,-2,-14,-8,-7,-1,-5,-1
1558441440313304,4,-6,-13,-3,3,-3,0,3
1558441440320284,-15,-7,3,0,-2,-3,7,1
1558441440320284,7,6,7,6,3,1,-1,2
1558441440335242,3,2,4,2,3,4,-3,-1
1558441440335242,-1,3,4,0,-2,7,0,2
1558441440342228,-1,-3,-10,-5,-4,-7,-6,-1
1558441440342228,-2,2,-3,-2,-1,-2,-1,0
1558441440359179,0,3,3,-1,0,1,1,-2
1558441440359179,-8,-10,0,-3,-3,-2,6,-2
1558441440360176,0,0,4,3,-2,-1,-5,-3
1558441440360176,-3,-4,-4,-4,4,-2,-2,-1
1558441440373143,4,7,5,5,3,2,7,3
1558441440373143,2,2,-2,-2,-4,-5,-3,0
1558441440380123,1,-5,-16,-10,-1,6,1,0
1558441440380123,1,7,21,8,-2,1,1,-1
1558441440396080,-2,-6,-26,-12,-8,-5,-13,-4
1558441440396080,-2,-3,4,0,2,3,2,-1
1558441440402064,1,1,2,0,-2,-9,-4,-3
1558441440402064,-2,1,-7,-3,-2,-3,-2,-3
1558441440419019,-2,-1,18,5,5,3,5,1
1558441440419019,2,1,-14,-5,-3,-1,-3,-1
1558441440420015,0,8,6,2,-3,-4,0,0
1558441440420015,-3,-6,-10,-3,3,11,6,2
1558441440432981,-5,-6,3,-2,-4,-8,-7,-4
1558441440432981,2,5,10,3,4,4,0,-4
1558441440440960,3,-1,-1,-2,-7,-5,-4,0
1558441440440960,-3,-4,-3,0,1,10,-4,-5
1558441440455920,-2,-1,2,0,2,-3,0,4
1558441440455920,-1,1,-4,-3,-3,1,-2,-2
1558441440462899,-2,-12,-1,0,4,2,1,0
1558441440462899,-1,0,-7,-4,-3,-3,0,-2
1558441440478864,-1,-3,-4,-4,-5,-6,-2,-2
1558441440478864,-1,-1,-5,-3,-1,2,-3,-3
1558441440479856,2,3,2,-1,0,3,3,1
1558441440479856,1,-4,0,1,-1,1,2,0
1558441440492822,-7,-7,-12,0,-2,-15,-6,-1
1558441440492822,-3,3,7,-1,1,-2,6,3
1558441440501796,-3,-5,-13,-8,-3,0,-5,-6
1558441440501796,1,2,11,6,-4,0,-2,1
1558441440515765,1,-1,-8,-10,-5,3,4,-1
1558441440515765,-1,-3,7,4,0,-4,-4,-1
1558441440522745,0,-1,-12,-4,1,3,0,-2
1558441440522745,-6,-5,-1,-5,-2,-6,-2,-2
1558441440538711,1,3,5,5,5,2,1,2
1558441440538711,-1,3,11,2,-2,5,-3,-1
1558441440540692,4,5,-1,-2,-2,3,0,-1
1558441440540692,-3,-10,-15,-7,-2,-4,-3,2
1558441440552661,-3,-5,1,-1,-4,-2,0,-1
1558441440552661,-1,-7,-4,-2,1,-2,-1,0
1558441440561639,3,4,13,4,0,-1,0,2
1558441440561639,-1,4,1,2,-1,1,0,-2
1558441440575600,-4,-11,-9,-5,-4,2,1,0
1558441440575600,0,3,-5,-3,-4,-6,-7,0
