timestamp,emg1,emg2,emg3,emg4,emg5,emg6,emg7,emg8
1558441503665383,2,0,0,0,2,1,2,0
1558441503665383,-2,-1,3,1,-5,-2,-1,-2
1558441503666380,-3,-3,-11,-7,-4,-19,-13,-4
1558441503666380,1,2,0,-2,4,3,7,2
1558441503667379,-2,0,4,4,2,2,-8,-1
1558441503667379,2,1,0,-3,0,0,2,0
1558441503667379,-2,-3,-8,-4,-6,-1,-1,-2
1558441503667379,4,8,2,-3,-5,-10,-3,-1
1558441503673362,0,-1,-7,-5,-5,-2,1,-2
1558441503673362,-2,-2,-1,-3,-3,-2,-10,-3
1558441503675355,-4,-7,4,5,3,10,10,3
1558441503675355,-1,-1,9,4,1,-1,-13,-5
1558441503679346,-3,-2,-11,-8,-2,3,5,1
1558441503679346,6,10,4,4,2,-2,12,6
1558441503704278,2,5,0,-1,1,-1,2,-1
1558441503704278,0,-6,-8,-1,-5,0,4,-1
1558441503705276,-2,0,3,0,-5,-6,-16,-6
1558441503705276,-1,1,-2,0,1,-7,4,1
1558441503716247,-4,-3,5,1,2,-3,2,-2
1558441503716247,0,-1,4,2,3,2,9,5
1558441503724225,-2,-4,-5,-2,-2,4,-4,-4
1558441503724225,2,6,1,-2,-8,-2,-10,-5
1558441503731206,-4,-8,2,0,5,0,11,2
1558441503731206,5,4,-4,-2,-4,-6,-12,-7
1558441503764119,-15,-13,-9,-3,-5,-3,-3,-2
1558441503764119,-6,-8,-3,-3,-1,0,-5,-2
1558441503766114,5,11,2,0,-4,-1,-2,0
1558441503766114,-2,-4,2,-1,5,4,-2,1
1558441503769106,0,-2,3,-1,-5,-6,3,0
1558441503769106,2,3,-3,3,6,12,3,0
1558441503769106,-4,-2,-6,-6,-3,0,-1,-2
1558441503769106,-4,-3,-4,-3,-3,-4,1,-2
1558441503845900,-2,-4,-10,-6,-5,-5,-6,-2
1558441503845900,-2,-6,-5,0,1,6,1,-1
1558441503846897,1,-2,3,-2,0,0,-4,0
1558441503846897,1,3,3,0,-2,2,-1,-3
1558441503847894,-8,-20,-3,1,2,8,4,1
1558441503847894,-1,3,-1,-5,-5,-18,-2,0
1558441503882801,-2,-3,-4,-2,-5,-5,-5,-3
1558441503882801,0,4,-1,2,3,8,-1,2
1558441503884795,1,-2,-10,-3,-8,-8,-4,0
1558441503884795,3,5,-2,-6,-6,-11,-4,-2
1558441503890779,-3,1,-1,-1,-1,-2,3,1
1558441503890779,-3,-11,2,3,-1,9,-1,-2
1558441503890779,3,1,5,4,8,5,4,2
1558441503890779,-4,-3,2,2,2,-4,2,0
1558441503895767,1,-2,-9,-6,0,1,3,1
1558441503895767,-5,-2,-9,-6,-8,-10,-5,-4
1558441503896764,1,3,4,2,6,7,19,3
1558441503896764,-2,-4,-13,-2,-8,-7,-14,-7
1558441503936656,0,6,11,2,1,1,-5,-4
1558441503936656,1,3,-1,1,2,-3,4,1
1558441503936656,-2,-4,-1,0,-1,-8,-4,0
1558441503936656,-3,2,4,4,2,1,3,0
1558441503941643,2,-2,-6,-3,-7,-5,1,-1
1558441503941643,-1,-1,6,-1,6,10,4,5
1558441503942640,-1,1,-8,-3,-6,-6,-8,0
1558441503942640,5,7,10,2,5,1,5,0
1558441503947627,-7,-9,-11,-4,-2,-6,-9,-4
1558441503947627,-3,-8,0,-2,-8,-7,-10,-6
1558441503955606,0,0,0,-1,1,-2,4,3
1558441503955606,0,0,-1,0,-5,-5,-6,1
1558441503995502,4,4,-4,-4,-1,-7,-2,0
1558441503995502,0,-2,1,3,6,11,12,4
1558441503996499,-4,-4,-2,-3,-3,-4,-9,-5
1558441503996499,-2,-3,1,0,1,13,1,-1
1558441503997494,2,8,1,0,3,1,-1,2
1558441503997494,2,7,-2,-1,2,-1,1,-2
1558441504000487,-1,-7,-1,-1,-9,-7,0,-4
1558441504000487,-3,-5,5,4,9,10,10,3
1558441504007468,-3,-1,0,-2,-2,0,-5,-3
1558441504007468,0,1,-8,-4,-10,-1,-4,-4
1558441504048358,-3,2,-4,0,6,14,0,-5
1558441504048358,-2,-5,1,-2,-5,1,-5,-1
1558441504049355,1,-1,4,7,9,0,5,4
1558441504049355,-1,-1,-1,-4,-8,-9,-6,-4
1558441504050353,-3,-3,-9,-6,-6,1,-10,-5
1558441504050353,-2,-2,-4,0,-1,10,-4,-2
1558441504055339,6,15,11,6,2,3,9,3
1558441504055339,-1,-15,1,-1,7,-2,8,6
1558441504056337,5,9,3,3,3,-1,6,3
1558441504056337,-11,-13,-9,-9,-3,-6,-2,-4
1558441504067307,-1,-5,2,2,-8,-2,-11,-7
1558441504067307,2,10,2,0,3,10,6,1
1558441504100219,-4,-3,-7,-3,1,-1,-2,0
1558441504100219,1,0,-4,-4,-1,-8,3,-1
1558441504102214,0,1,1,-2,-2,-7,0,3
1558441504102214,2,1,1,-1,-2,0,-1,0
1558441504102214,1,-3,10,4,1,-7,-5,-2
1558441504102214,0,1,-2,0,-1,-5,-5,-2
1558441504106203,-5,-8,-14,-7,2,8,1,-2
1558441504106203,-1,-4,-8,-5,-1,-3,-7,-2
1558441504113185,-8,-13,-6,-7,-12,-2,0,-3
1558441504113185,4,1,8,4,6,-7,9,5
1558441504128145,0,-1,4,4,0,-17,-9,-3
1558441504128145,1,4,-3,1,0,-2,-3,1
1558441504160062,1,7,6,0,6,9,7,2
1558441504160062,-3,-2,-7,-7,-11,0,-12,-8
1558441504162054,-7,-16,-3,-2,1,-1,2,-1
1558441504162054,-4,1,-1,-1,0,3,-2,-5
1558441504163052,1,1,-2,0,-3,2,0,-1
1558441504163052,10,4,5,0,0,-18,-5,3
1558441504167041,-9,-1,1,0,-1,1,9,-2
1558441504167041,-1,-1,2,1,5,6,0,0
1558441504211921,-3,2,-1,-1,-4,-1,-6,1
1558441504211921,1,-6,5,0,2,3,4,2
1558441504220958,4,5,-6,-6,-5,-4,-6,-1
1558441504220958,-3,-5,2,2,-1,-5,0,1
1558441504221894,-3,0,-5,-3,0,-5,-3,-3
1558441504221894,-1,2,-4,-1,0,-3,-4,-2
1558441504226938,4,1,2,-2,-5,-3,-4,-3
1558441504226938,0,3,9,4,3,8,14,4
1558441504227879,-3,-8,-13,-6,-2,-6,-8,-5
1558441504227879,-5,-3,-10,-5,-7,-5,1,0
1558441504229894,-1,-6,-1,-4,-7,-4,-7,-4
1558441504229894,1,1,-1,-2,-2,-4,-1,-2
1558441504248823,0,1,1,1,4,3,-5,-1
1558441504248823,-2,0,5,2,3,12,6,1
1558441504250817,0,-2,-7,-2,-1,-6,-2,-2
1558441504250817,-5,-1,-3,-2,-1,-3,-4,-2
1558441504255803,0,-2,0,-2,-4,5,0,-3
1558441504255803,0,3,3,0,0,-8,-5,-2
1558441504270762,-4,-3,-6,0,-4,-3,3,-2
1558441504270762,-2,-2,-5,0,-3,0,-5,-2
1558441504286722,1,0,8,3,2,-6,-1,4
1558441504286722,2,1,-7,-2,-6,2,0,-1
1558441504287720,-14,-7,-2,-1,-8,-9,-6,-3
1558441504287720,1,-3,-2,1,9,7,5,1
1558441504308662,0,7,1,1,1,2,3,0
1558441504308662,-3,-11,1,-2,0,1,6,2
1558441504310662,5,1,5,-2,-5,-4,-8,-3
1558441504310662,3,6,1,-2,-4,6,-9,-4
1558441504324619,-3,-6,1,-6,-2,-6,9,3
1558441504324619,-5,-2,-10,-4,9,11,3,0
1558441504339579,1,-2,4,5,5,12,2,-1
1558441504339579,-1,-5,-17,-8,-8,-11,-4,-2
1558441504339579,3,2,6,2,-3,-7,-1,1
1558441504339579,1,4,2,0,-4,-13,-5,-4
1558441504345564,-3,1,2,-1,-2,4,2,2
1558441504345564,2,6,9,1,0,-4,2,2
1558441504361521,-4,-10,-12,-7,-6,-6,-3,-5
1558441504361521,-5,-5,-6,-1,4,11,0,-3
1558441504367505,5,9,5,3,4,-3,4,3
1558441504367505,-4,-7,2,-2,-6,-9,-9,-5
1558441504375483,2,3,0,-3,-5,4,3,0
1558441504375483,0,-2,-1,-1,-2,1,3,-3
1558441504391440,-2,1,0,-2,1,0,6,3
1558441504391440,-3,-3,-2,0,-3,-8,-7,-3
1558441504398422,-7,-7,-9,-8,-9,-10,-6,-2
1558441504398422,5,0,7,2,4,3,-4,-1
1558441504429339,2,1,-7,-2,4,7,8,3
1558441504429339,2,3,1,-1,-4,-10,4,1
1558441504430337,-3,-8,-3,0,0,2,-6,-4
1558441504430337,-6,4,11,3,-5,-3,-5,-5
1558441504436320,-5,-4,-13,-6,4,4,2,-2
1558441504436320,3,4,-4,0,-3,-1,-8,-2
1558441504436320,0,2,2,2,0,-4,1,0
1558441504436320,-2,-5,0,0,1,-4,-5,1
1558441504450283,1,2,5,2,-4,-3,-9,-3
1558441504450283,-2,-6,-3,-2,0,6,9,1
1558441504481200,-2,-1,-6,-4,0,5,4,-3
1558441504481200,-1,-2,-3,-3,-3,0,-6,-2
1558441504498155,3,1,5,1,-4,-12,-4,-1
1558441504498155,-4,-1,5,5,7,9,5,0
1558441504498155,-2,-5,-4,-1,-9,-6,-8,-1
1558441504498155,-1,0,-2,-3,-4,-5,-2,-2
1558441504500150,5,2,3,-1,2,3,2,-1
1558441504500150,-14,-10,-6,-3,-5,-6,-15,-3
1558441504503154,5,5,6,4,13,21,12,6
1558441504503154,-1,1,-4,2,2,-3,-2,-3
1558441504510125,-3,-7,-4,-4,-8,-2,6,-1
1558441504510125,2,-2,4,2,1,-11,-10,-2
1558441504542044,-4,-1,-11,-3,-4,2,-7,-2
1558441504542044,0,4,5,0,-3,-2,2,2
1558441504543035,3,3,2,3,6,4,3,4
1558441504543035,3,4,-1,-4,4,14,7,-1
1558441504549019,-7,-14,-5,-5,-4,-11,-4,-5
1558441504549019,2,0,-2,0,-1,10,4,1
1558441504551014,-1,-3,1,0,-1,-6,-6,-2
1558441504551014,3,3,5,3,-1,5,5,2
1558441504555008,7,10,11,5,9,-2,5,4
1558441504555008,-2,-3,-12,-7,-1,0,-14,-4
1558441504569966,-4,-4,5,2,-2,0,6,1
1558441504569966,1,3,-6,-3,-2,-9,0,0
1558441504586918,-4,-2,-1,-1,-5,0,-5,-6
1558441504586918,-5,-1,-4,-4,-2,2,-2,-2
1558441504588912,-5,-8,-3,-2,-3,-12,-10,-1
1558441504588912,1,-1,2,-1,-3,-1,-3,-1
1558441504600880,6,3,3,2,-1,0,4,1
1558441504600880,-12,-9,-9,-3,1,-11,-2,2
1558441504607862,1,2,-4,-4,-2,6,4,-3
1558441504607862,-2,0,-2,-1,-3,2,-5,-3
1558441504614843,-5,-5,-1,-2,-2,-4,-10,-3
1558441504614843,6,1,6,5,4,12,19,3
1558441504630800,2,3,-2,1,8,-4,-1,0
1558441504630800,-1,-5,-1,-1,2,3,6,0
1558441504637782,-3,2,-4,-3,-7,-2,-8,-4
1558441504637782,3,3,5,0,-7,-12,-12,-5
1558441504662716,-2,-2,1,1,1,9,1,2
1558441504662716,-3,-6,-11,-10,-6,-7,-4,-3
1558441504663712,0,0,2,-2,0,1,-1,-2
1558441504663712,-3,-6,-3,-2,-7,-3,3,-2
1558441504667702,3,3,3,-3,-1,3,6,2
1558441504667702,1,7,3,3,1,-6,-6,0
1558441504675680,0,-3,-3,1,8,6,14,5
1558441504675680,-4,-7,0,0,-2,-8,-7,-2
1558441504700613,3,3,-1,-1,-4,-8,-6,-2
1558441504700613,-2,-6,-12,-9,-12,-11,-9,-4
1558441504701611,-1,2,4,4,5,2,0,-1
1558441504701611,2,5,0,0,7,18,9,1
1558441504705599,-3,-4,-5,-2,-1,2,-5,-6
1558441504705599,-1,1,6,0,1,-12,0,2
1558441504720563,0,-4,2,4,2,4,1,-1
1558441504720563,0,2,-4,-7,-4,-12,-3,1
1558441504727541,0,-5,-16,-8,-6,-2,-9,-5
1558441504727541,-8,-12,-1,2,0,0,5,0
1558441504735521,3,4,1,-4,2,-4,0,2
1558441504735521,3,6,13,7,-1,-6,5,3
1558441504750479,-7,-11,-14,-8,-3,3,-3,-2
1558441504750479,3,6,1,2,3,0,4,-1
1558441504758458,-2,-2,-2,-3,-5,-8,-4,-2
1558441504758458,-6,-9,-4,-1,-1,3,-5,-4
1558441504765442,0,5,5,1,-8,-6,-2,-1
1558441504765442,1,-1,-7,1,7,1,8,5
1558441504781396,-2,0,-4,-4,0,6,0,-1
1558441504781396,2,2,3,-1,4,7,-5,1
1558441504787381,-4,-2,0,-1,-7,-10,-7,-6
1558441504787381,-2,-5,1,-1,-4,5,2,-2
1558441504803340,4,3,5,-2,-1,-8,-3,-1
1558441504803340,-5,-7,-12,-6,-7,-5,-9,-4
1558441504810321,-3,-3,2,1,5,9,-4,-3
1558441504810321,1,5,3,0,-4,2,-2,1
1558441504827274,1,-3,3,2,0,0,3,1
1558441504827274,1,-1,-10,-4,2,5,14,3
1558441504828274,-1,3,5,3,6,8,3,-1
1558441504828274,-4,-4,-13,-7,-8,1,-8,-3
1558441504841239,1,2,1,2,-3,-1,0,-2
1558441504841239,-1,0,6,1,-2,-4,-2,0
1558441504848218,3,-1,-6,-1,2,1,2,1
1558441504848218,-1,2,16,5,-2,-7,-4,-4
1558441504863179,-6,-5,-15,-4,3,13,-2,-3
1558441504863179,-1,3,1,0,-9,-7,1,-1
1558441504870159,3,2,1,3,4,-15,8,6
1558441504870159,1,0,4,0,1,7,-7,0
1558441504886118,0,3,1,1,-3,-12,-9,0
1558441504886118,0,-6,-8,-4,-1,4,-2,-3
1558441504894096,-6,-4,-10,-4,-11,-7,-7,-1
1558441504894096,1,-5,-4,-1,2,6,6,3
1558441504901077,0,2,4,1,-1,-3,-4,-3
1558441504901077,2,1,4,-1,-4,-5,0,-2
1558441504908060,-1,-4,6,2,1,5,-5,-1
1558441504908060,0,2,-5,-5,-9,-10,-2,-5
1558441504923023,-2,-1,-6,-2,1,10,3,2
1558441504923023,0,0,4,2,10,9,0,-2
1558441504930001,3,0,-4,-6,-6,-7,4,-1
1558441504930001,-5,-1,-1,0,-1,-6,-8,-4
1558441504946956,-1,-4,0,-1,-7,-8,-10,-4
1558441504946956,0,2,12,7,9,9,9,3
1558441504947951,-2,-2,-14,-2,-2,-1,-1,1
1558441504947951,-2,-4,-8,-5,-3,0,-6,-4
1558441504960916,-2,-6,-6,-3,-7,-5,-3,-1
1558441504960916,3,2,3,1,4,-10,1,6
1558441504967897,2,6,13,5,2,3,-1,-3
1558441504967897,-5,-9,-14,-11,-10,-5,1,-5
1558441504983855,1,4,8,4,6,6,7,1
1558441504983855,-1,-3,-12,-6,-12,0,-9,-6
1558441504989839,-1,-5,1,1,-2,-8,-2,1
1558441504989839,2,5,6,5,15,6,9,8
1558441505006794,-1,-2,-5,-4,-6,-10,5,0
1558441505006794,-1,0,-2,2,4,1,1,-1
1558441505007791,-4,-4,-4,-5,-12,-1,-15,-8
1558441505007791,-3,-1,-2,-2,-6,6,-4,-1
1558441505020756,2,0,8,5,10,-3,8,5
1558441505020756,-2,1,-1,0,0,0,0,1
1558441505027738,2,2,5,-2,-1,-1,3,-2
1558441505027738,-5,-7,-12,-4,2,-1,-3,-4
1558441505043695,-1,-3,-3,-3,-9,-3,0,-1
1558441505043695,-2,-3,-7,-5,-6,-7,-4,-5
1558441505050676,-4,-3,3,-1,5,10,-1,-1
1558441505050676,4,5,6,5,1,4,7,1
1558441505066635,-2,2,4,-2,0,-4,-5,0
1558441505066635,-3,-6,-9,-7,-8,-7,-3,0
1558441505067641,2,4,-1,0,2,-11,2,2
1558441505067641,-2,-4,-1,-2,2,6,-3,0
1558441505080597,-1,-2,-7,-1,-1,1,-6,-1
1558441505080597,-1,1,4,1,2,0,-5,0
1558441505087578,-4,-2,2,1,0,5,-5,-1
1558441505087578,2,-1,-4,-5,-5,-9,-1,-3
1558441505103535,-1,-2,1,-3,-1,0,2,0
1558441505103535,3,-1,4,2,10,5,12,3
1558441505110516,-1,-3,-7,-5,-2,-1,-2,-3
1558441505110516,-1,0,-1,2,2,-7,0,1
1558441505126473,-4,-2,-7,-3,-10,-2,-11,-6
1558441505126473,-2,1,-6,-4,-6,3,-4,-1
1558441505128470,-1,0,6,3,3,-3,1,-3
1558441505128470,0,1,2,-2,-5,-2,2,-2
1558441505140436,-2,-2,-5,-2,-4,-4,-7,-5
1558441505140436,-3,-3,-3,-3,-3,-11,-4,-3
1558441505149412,-5,-4,-1,1,-1,11,4,-4
1558441505149412,1,1,-1,0,3,-7,-1,-2
1558441505163402,0,-1,2,1,0,2,1,-3
1558441505163402,-3,-3,-3,-3,-6,-4,-5,-2
1558441505170383,1,1,-2,-2,0,2,2,0
1558441505170383,-2,-2,1,0,2,4,-4,-3
1558441505186375,-2,-4,0,-1,-1,2,1,-1
1558441505186375,3,1,1,4,5,4,3,1
1558441505188372,-2,0,-3,-4,-6,-7,-6,-1
1558441505188372,-5,-4,-1,1,4,7,3,1
1558441505200277,1,1,-2,-4,-2,-9,0,0
1558441505200277,-2,-4,-2,-4,-10,-10,-8,-6
1558441505209253,1,2,3,-1,4,3,1,0
1558441505209253,0,0,0,-2,1,5,-4,-1
1558441505224252,-7,-7,-7,-4,0,9,8,-2
1558441505224252,-3,-2,-1,2,-1,-1,-6,-4
1558441505230196,-3,-5,-6,-3,-9,-18,-14,-1
1558441505230196,1,2,7,5,0,3,-3,-3
1558441505247187,2,-1,-8,-2,6,2,16,6
1558441505247187,-3,-1,-1,2,5,3,-10,-4
1558441505249145,2,-1,-3,0,-4,1,2,1
1558441505249145,1,2,-1,-2,-3,-5,0,3
1558441505260118,2,3,11,6,2,1,-5,-2
1558441505260118,-3,-3,-7,-7,-6,-6,0,-3
1558441505269092,-1,-1,2,0,-3,3,0,1
1558441505269092,0,1,5,4,0,-10,13,4
1558441505283056,1,-3,-10,-7,-2,-4,-4,-1
1558441505283056,-11,-7,2,0,1,0,-4,-2
1558441505290036,1,3,2,0,-1,3,-4,-3
1558441505290036,1,0,-9,-7,-7,-7,-7,-1
1558441505306992,-2,-2,6,3,5,-2,4,3
1558441505306992,3,3,-1,0,-3,0,1,0
1558441505307989,-6,-10,-1,-1,2,6,0,-3
1558441505307989,-2,-1,-1,0,2,10,-2,1
1558441505319957,0,4,0,-2,-7,-11,-12,-4
1558441505319957,1,-2,4,1,3,13,3,2
1558441505329930,-2,0,-11,-2,3,4,11,5
1558441505329930,2,4,-2,1,0,-9,0,-1
1558441505343891,-3,-1,1,1,1,2,-1,-3
1558441505343891,-1,-2,-3,-5,-3,-6,-1,-2
1558441505349877,3,6,9,5,8,3,6,2
1558441505349877,0,-4,-4,-4,-6,5,-7,-2
1558441505366832,-2,-7,-2,-2,-7,-5,1,2
1558441505366832,-3,-6,1,-1,-4,-11,-1,0
1558441505367827,-2,-8,-8,-3,0,4,-3,-4
1558441505367827,-2,-1,2,1,2,-3,0,-3
1558441505380793,2,8,4,2,7,11,0,-1
1558441505380793,1,0,3,0,-1,-7,1,4
1558441505396750,0,1,-7,-6,-11,-6,-9,-4
1558441505396750,-12,-10,-7,-4,-2,3,2,-1
1558441505403733,3,1,3,0,2,-1,10,2
1558441505403733,0,-1,0,1,0,-6,2,0
1558441505409717,0,-1,-2,2,3,6,6,-1
1558441505409717,2,4,-5,-4,-10,-8,-10,-2
1558441505425672,-4,-4,-5,-2,0,-5,-8,-2
1558441505425672,3,3,3,1,-1,-4,2,-1
1558441505432655,2,5,4,-1,3,-9,0,1
1558441505432655,-3,-10,-6,-2,-6,0,-8,-6
1558441505440633,-4,-5,3,1,-6,1,-4,-3
1558441505440633,0,6,-6,-3,7,18,3,1
1558441505449609,-3,-9,-2,-2,-6,-5,-4,-1
1558441505449609,1,3,3,-2,2,-3,6,4
1558441505463571,0,-2,1,-1,2,-9,-10,-5
1558441505463571,-2,-5,-2,-1,-5,1,2,-3
1558441505470555,-1,1,-7,-4,-1,-7,4,-3
1558441505470555,-4,-2,-3,-3,0,7,-2,-4
1558441505485514,-6,-3,-7,-5,-14,-12,-10,-2
1558441505485514,2,1,-3,0,7,3,5,3
1558441505492497,0,0,7,3,5,-7,4,3
1558441505492497,3,1,4,1,0,5,-3,2
1558441505500472,-1,3,-4,-3,-1,-2,2,0
1558441505500472,0,0,-1,0,-1,7,-8,-7
1558441505509450,-7,-5,-2,0,-5,-10,-5,-2
1558441505509450,-2,-1,2,-1,0,-8,1,0
1558441505523422,2,5,-2,-1,-1,2,-3,-3
1558441505523422,-6,-14,-12,-7,-7,-1,-6,-2
1558441505530394,1,0,1,-1,2,5,-3,0
1558441505530394,1,2,9,5,0,-6,8,2
1558441505546385,0,0,3,0,7,7,4,-1
1558441505546385,1,5,-3,-2,2,-4,-1,3
1558441505560467,-3,-4,-7,-5,-10,-10,-6,-4
1558441505560467,-3,-3,-2,0,3,5,-2,-2
1558441505569374,-2,-1,-1,-2,-5,4,-1,-1
1558441505569374,0,8,6,2,-1,-7,-4,-3
1558441505570287,-2,-10,3,0,8,15,6,3
1558441505570287,-2,-1,6,1,-1,-4,-1,-4
1558441505584250,-2,-4,-11,-4,-3,-12,-3,-3
1558441505584250,-2,0,-4,-2,-1,10,-8,-2
1558441505590493,2,6,-2,-1,-3,0,2,-1
1558441505590493,-1,-7,-5,-4,-1,-3,9,2
1558441505605506,-1,-4,0,2,3,-1,-15,-6
1558441505605506,-1,-2,1,0,-5,-10,0,0
1558441505612487,0,5,-3,-6,-6,0,-5,-2
1558441505612487,0,0,-3,0,4,10,-6,-2
1558441505636424,1,0,4,0,4,7,16,8
1558441505636424,-2,-2,-2,-1,-4,-8,-7,-1
1558441505638418,0,-1,6,1,-3,-3,-7,-6
1558441505638418,-1,0,-3,-4,-7,-3,0,-1
1558441505643405,1,-2,-5,-1,-1,-3,1,-3
1558441505643405,2,0,5,1,3,-2,5,-1
1558441505650385,-1,-1,1,1,-2,-1,-1,1
1558441505650385,-1,-1,1,-3,-4,1,-11,-4
1558441505666344,-2,-3,-18,-7,1,-1,0,2
1558441505666344,2,3,3,1,0,-1,10,3
1558441505674321,-11,-8,-3,-1,0,-2,-10,-6
1558441505674321,2,4,9,7,1,-7,3,3
1558441505689282,-3,-6,-4,-6,-7,-4,-4,-2
1558441505689282,2,1,-6,1,1,7,2,2
1558441505690279,0,1,-1,-4,1,4,1,1
1558441505690279,0,2,3,-2,2,-6,-4,-4
1558441505703244,-2,-4,-3,-1,-3,-1,-1,1
1558441505703244,-1,-2,1,-2,-6,0,1,-3
1558441505710268,-1,1,1,1,8,1,3,1
1558441505710268,0,0,2,-1,-2,-5,-2,-1
1558441505726241,0,3,4,0,-6,-7,-5,-4
1558441505726241,-3,-4,-6,-2,4,16,-6,-3
1558441505733196,1,-1,1,0,-6,-8,-2,0
1558441505733196,0,-2,-8,-3,3,-4,3,0
1558441505749121,-2,0,3,3,7,4,-3,1
1558441505749121,-5,-5,4,-1,-6,-2,-7,-5
1558441505751115,1,3,-1,-2,-2,-3,2,-1
1558441505751115,-5,-8,-20,-8,-10,-7,-4,-4
1558441505763084,-2,-2,-6,-4,-4,4,-2,0
1558441505763084,0,1,7,2,0,-8,4,2
1558441505770128,1,0,4,3,-3,-3,-9,-1
1558441505770128,-1,-2,-11,-6,4,3,3,2
1558441505786023,-2,-3,-5,0,1,3,0,-2
1558441505786023,0,-1,-3,-2,-3,-11,-5,-4
1558441505799985,0,0,0,-3,-3,1,4,1
1558441505799985,1,1,8,2,1,-2,2,0
1558441505808963,-2,2,8,2,-1,0,-3,-1
1558441505808963,-2,-4,-4,-3,0,-1,1,2
1558441505810962,1,0,0,0,-3,-1,0,1
1558441505810962,-1,-3,-5,-7,-7,-1,-15,-4
1558441505822962,1,1,7,3,10,1,15,3
1558441505822962,-1,-1,0,-1,-3,-4,-1,-2
1558441505829906,0,0,0,0,4,0,2,0
1558441505829906,-2,-3,-3,0,-4,4,0,-3
1558441505845871,-2,-1,-1,0,-7,-9,-17,-3
1558441505845871,1,0,-1,-5,0,0,0,2
1558441505852844,-2,-1,-2,-3,0,5,3,-2
1558441505852844,-3,-1,-3,0,-4,4,-1,-2
1558441505868803,2,0,-3,0,-2,1,5,0
1558441505868803,-1,-2,0,-3,-2,-19,-5,1
1558441505870797,0,-1,-6,-2,-2,4,3,1
1558441505870797,-1,-1,6,0,1,2,1,-1
1558441505883760,1,2,7,2,4,10,5,1
1558441505883760,0,1,2,0,0,2,5,-1
1558441505897723,-1,-4,-9,-8,-10,-13,-11,-6
1558441505897723,3,0,2,0,3,-6,1,2
1558441505905705,-9,-7,2,3,0,4,-7,-4
1558441505905705,1,2,4,2,2,5,6,0
1558441505912684,-1,-1,-2,2,2,3,-3,-2
1558441505912684,0,2,-5,-2,-1,1,5,2
1558441505930636,0,-2,2,-4,-2,-8,0,-2
1558441505930636,-1,-2,-7,-4,0,-2,-10,-1
1558441505931669,-1,1,1,0,-4,-6,1,1
1558441505931669,-1,0,0,1,0,-2,4,3
1558441505943991,3,1,1,1,1,5,2,-1
1558441505943991,-2,-2,-2,-2,-5,3,-6,-2
1558441505950817,0,0,-2,3,8,3,13,4
1558441505950817,-1,0,-1,0,0,-1,-3,-1
1558441505966639,1,1,0,-3,0,0,-4,-1
1558441505966639,-3,-3,-4,0,-3,0,-1,-4
1558441505973522,1,0,8,4,5,8,-9,-2
1558441505973522,-3,-3,-3,-1,-6,-6,-6,-4
1558441505989478,-4,-5,-14,-8,-2,4,5,-1
1558441505989478,-2,2,10,4,3,-4,1,-1
1558441505990476,-3,-7,-25,-11,-3,-10,2,0
1558441505990476,-2,0,7,4,0,3,-1,-3
1558441506003441,-4,-2,-2,-4,-7,-5,-5,-3
1558441506003441,-5,-3,-2,-1,-4,-4,-12,-5
1558441506010422,-1,2,9,2,0,-8,-4,-2
1558441506010422,2,0,1,-1,0,2,-1,-1
1558441506026388,4,2,-1,0,-5,-11,-3,1
1558441506026388,-10,-8,-3,-2,-4,0,-3,-1
1558441506032365,-2,-2,4,3,3,4,2,0
1558441506032365,-1,0,2,-2,-5,-13,-3,2
1558441506049699,1,1,-1,3,7,12,8,1
1558441506049699,3,-3,-6,0,8,11,4,1
1558441506050316,-4,-3,-4,-3,-7,-4,-5,-4
1558441506050316,-3,-1,-1,-6,-4,-4,-3,0
1558441506063281,-2,-1,2,0,-7,-11,-9,-3
1558441506063281,1,3,-1,0,6,9,10,5
1558441506071633,2,2,11,5,3,9,8,1
1558441506071633,-2,-4,-18,-6,1,4,-8,-4
1558441506086572,-3,-4,-6,-3,-7,-16,-1,1
1558441506086572,2,1,2,0,2,-7,1,0
1558441506093553,1,4,2,0,-2,0,-2,-1
1558441506093553,-1,-1,4,0,-2,0,-3,0
1558441506108554,-1,-3,5,1,3,8,-1,1
1558441506108554,0,-4,-8,-3,0,-13,-5,-1
1558441506117138,0,-3,2,-1,-1,5,-1,2
1558441506117138,4,3,3,4,10,5,18,9
1558441506123473,-5,-3,-7,-4,-8,-4,-15,-10
1558441506123473,-1,0,4,2,-6,2,2,-4
1558441506132099,-1,1,-2,-1,6,3,0,0
1558441506132099,-4,-3,-9,-3,-1,4,-6,-5
1558441506146061,2,1,3,1,3,-4,10,4
1558441506146061,-2,-1,-1,-2,-4,-7,-7,-5
1558441506153378,-1,-4,1,-1,-2,6,-1,-3
1558441506153378,2,2,6,4,3,-1,0,0
1558441506169030,-2,-3,-17,-10,-6,-9,3,-1
1558441506169030,1,2,5,1,7,15,4,1
1558441506175011,-4,-4,-9,-6,-7,-10,-9,-2
1558441506175011,-1,-1,4,-1,-5,3,2,-4
1558441506182990,-1,0,7,0,-5,-6,-10,0
1558441506182990,-2,-2,-5,-3,2,3,-4,-2
1558441506191938,1,-2,-1,2,6,12,4,1
1558441506191938,-3,-2,-4,-3,-8,-14,-5,-1
1558441506205936,0,1,4,2,4,-2,0,-1
1558441506205936,-1,1,0,-3,-5,-5,2,0
1558441506219898,-4,-4,-8,-3,-4,-2,-9,-5
1558441506219898,-2,-2,1,1,4,0,-2,-2
1558441506228929,2,3,9,4,1,2,3,2
1558441506228929,-4,-6,-14,-7,-3,1,2,1
1558441506230922,-4,-2,0,-1,-7,-8,1,-3
1558441506230922,-1,-3,-7,-1,-1,-13,-4,-6
1558441506242921,-2,0,2,-2,-2,6,-5,-5
1558441506242921,3,0,6,2,4,2,6,3
1558441506251868,4,3,4,1,4,-11,6,2
1558441506251868,-5,-5,-3,-4,-4,6,0,-2
1558441506265857,0,3,-1,1,0,0,-2,-1
1558441506265857,0,1,0,-1,-6,1,-1,-1
1558441506279793,0,1,-5,-2,-1,1,-3,-1
1558441506279793,-3,-1,14,4,3,12,-3,-3
1558441506288796,-1,-6,-17,-9,-10,-7,2,0
1558441506288796,-3,-4,-8,-4,1,-12,-6,0
1558441506290791,2,2,2,0,-4,-17,0,0
1558441506290791,3,4,4,2,2,-4,2,3
1558441506303727,0,-1,5,2,5,13,-3,-1
1558441506303727,0,-2,-4,-2,-6,2,-5,-2
1558441506311706,-2,-5,0,-1,-3,-4,-4,-4
1558441506311706,0,3,-2,-1,2,0,2,0
1558441506325800,-4,-2,-2,-3,-7,-5,-2,-1
1558441506325800,-1,2,1,0,-7,-3,0,-2
1558441506334668,-3,-2,-5,-1,4,-9,-3,3
1558441506334668,-2,-3,-7,-6,-10,-3,-5,-4
1558441506348733,3,1,0,1,7,2,2,1
1558441506348733,0,-1,5,0,1,1,6,2
1558441506355793,-6,-3,0,-1,0,7,-9,-8
1558441506355793,2,1,-4,0,4,7,6,2
1558441506362749,-2,-2,-5,-1,-4,-8,-3,-5
1558441506362749,-1,-2,-3,-2,-4,-5,3,0
1558441506371721,-2,-1,0,-2,-6,-1,-10,-1
1558441506371721,0,-1,0,-1,-2,-17,3,1
1558441506393731,-4,-3,4,2,4,11,8,1
1558441506393731,1,0,-1,-1,-1,-7,-8,0
1558441506395656,1,0,4,1,6,6,10,2
1558441506395656,-2,1,0,-1,-4,1,-5,-3
1558441506416630,0,-2,-4,-2,-2,-9,1,-2
1558441506416630,-2,-2,-5,-4,-10,-10,-9,-7
1558441506417598,-1,0,3,0,3,13,2,0
1558441506417598,1,0,-3,2,5,7,8,2
1558441506422621,-1,0,3,2,6,-5,-4,1
1558441506422621,1,-2,-14,-4,0,0,1,0
1558441506431594,-9,-6,-4,-5,-8,-4,-4,-6
1558441506431594,-4,-2,-3,-5,-10,1,-13,-6
1558441506446554,1,2,7,4,5,7,13,2
1558441506446554,0,1,2,1,4,-3,2,1
1558441506452538,4,2,-1,-2,2,3,9,2
1558441506452538,-2,-1,-1,0,-4,-8,-11,-2
1558441506468495,-2,-4,1,-3,-10,-4,-14,-6
1558441506468495,0,2,8,5,3,11,6,-2
1558441506475481,3,0,-10,-2,-2,-11,3,5
1558441506475481,0,-1,2,-1,5,7,4,0
1558441506482459,-2,-2,-2,-4,-5,-5,-3,-5
1558441506482459,-4,-3,-4,-3,-8,-5,-11,-5
1558441506491406,2,1,-3,-2,1,4,-1,1
1558441506491406,0,-1,1,2,-1,-7,-8,-1
1558441506506360,1,1,-4,-2,4,14,5,4
1558441506506360,-2,-2,3,1,0,-5,-2,-4
1558441506512344,-3,-3,6,0,4,6,3,-2
1558441506512344,1,1,-2,-3,-4,-4,-4,-3
1558441506527304,1,1,-10,-4,-8,-9,-6,-2
1558441506527304,-2,-5,1,-4,4,-1,1,3
1558441506535282,1,-2,-7,0,-1,1,2,2
1558441506535282,-2,-2,6,-1,0,-1,0,0
1558441506567277,1,0,0,1,1,5,4,-1
1558441506567277,2,5,-1,0,-3,7,-4,-3
1558441506568194,-12,-6,-1,0,-4,-7,-12,-6
1558441506568194,-2,-3,-6,-3,-4,-8,-3,-3
1558441506569209,-3,-3,0,1,7,6,8,4
1558441506569209,1,-1,0,2,-1,-6,5,4
1558441506573215,2,1,-3,-3,-2,6,5,1
1558441506573215,-3,-1,-2,0,-6,-10,-5,-4
1558441506597134,-2,-4,-1,-3,-9,-11,-10,-3
1558441506597134,-1,0,-1,-1,4,13,3,1
1558441506598115,2,2,0,1,-6,-4,-1,1
1558441506598115,-2,-5,-5,-4,-9,1,-2,-2
1558441506611081,-1,0,-1,1,6,8,-2,-3
1558441506611081,0,0,5,0,1,-5,1,1
1558441506611081,2,1,0,-1,-3,-9,-3,0
1558441506611081,0,1,-3,-1,4,2,-5,1
1558441506627091,-1,0,0,-3,-8,-5,-7,-1
1558441506627091,-5,-7,-12,-4,-3,3,1,-3
1558441506641035,-3,-4,-4,-6,-5,-10,-7,-3
1558441506641035,-1,-2,-7,-3,6,9,16,4
1558441506648019,-2,-2,1,2,5,4,-4,-3
1558441506648019,-1,1,1,-2,-3,-11,-4,-5
1558441506655001,1,1,0,2,2,8,4,0
1558441506655001,-1,0,8,1,-6,-11,-2,-1
1558441506671957,-1,-4,-9,-7,-4,0,-5,-3
1558441506671957,4,3,8,5,4,1,6,5
1558441506672916,-1,-1,-10,-6,-7,-1,-12,-8
1558441506672916,-7,-7,-2,-1,4,8,9,0
1558441506686878,2,2,2,2,1,-1,3,3
1558441506686878,-4,-1,1,-2,-8,-9,-4,-3
1558441506692896,5,2,4,1,6,-7,1,4
1558441506692896,1,1,-1,-2,-3,6,-3,-4
1558441506707856,-2,-3,1,0,2,-5,0,1
1558441506707856,-1,-2,-10,-4,-7,-1,-4,-5
1558441506723779,1,1,3,4,8,13,9,1
1558441506723779,0,-1,-1,0,-2,-9,-5,0
1558441506730762,-3,-4,-6,-8,-10,-8,-4,-3
1558441506730762,-1,1,-1,0,-4,-6,-8,-3
1558441506731761,-1,0,0,-1,0,-6,-6,-1
1558441506731761,-1,-6,-6,-3,0,3,3,-3
1558441506746718,1,4,5,3,2,-4,4,1
1558441506746718,-2,-3,-3,-5,-2,3,-1,1
1558441506752913,-4,-5,-4,-1,-4,4,-2,-3
1558441506752913,-1,1,3,0,4,8,-3,-2
1558441506767742,1,1,2,2,-4,-13,2,1
1558441506767742,-2,-1,3,0,-1,-1,-9,-6
1558441506775721,-2,-5,-7,-6,-12,-20,-8,-3
1558441506775721,-2,0,-8,-2,7,15,5,2
1558441506790679,-2,-7,-3,-2,0,0,-2,0
1558441506790679,1,-1,0,-2,-3,-5,-1,0
1558441506791597,2,1,3,0,-6,-5,-2,-2
1558441506791597,-5,-4,-3,-1,-3,-2,-3,-2
1558441506807624,1,3,2,-2,-2,-6,2,-2
1558441506807624,1,2,4,2,1,6,-1,0
1558441506812571,-4,-4,-7,-5,-4,0,-9,-3
1558441506812571,6,6,5,3,4,-2,6,3
1558441506835479,-2,0,1,0,5,7,0,0
1558441506835479,-4,-5,-12,-6,-5,-8,2,0
1558441506836477,-1,3,1,-1,-4,-2,-2,0
1558441506836477,-2,0,1,0,-2,-4,-2,-1
1558441506874376,1,1,8,3,2,3,7,2
1558441506874376,-2,-2,-7,0,6,9,4,-1
1558441506875373,-1,-2,-3,1,-2,3,-5,-1
1558441506875373,0,0,1,-2,-4,-9,-2,1
1558441506883384,-1,-1,0,-1,-3,2,-11,-4
1558441506883384,-1,-1,0,-1,3,4,2,0
1558441506884354,-3,-1,-3,-1,3,4,6,-1
1558441506884354,0,-1,1,-1,1,-1,-1,-3
1558441506897314,1,1,0,-1,0,1,2,1
1558441506897314,-2,-2,2,-2,-2,-12,-7,-2
1558441506898312,-1,-4,-2,-1,1,5,-2,-2
1558441506898312,1,1,-2,-4,-6,-7,-7,1
1558441506918347,-5,-3,-9,-2,0,4,5,-3
1558441506918347,-1,1,-1,2,-2,1,2,-4
1558441506919256,3,5,17,8,10,4,7,5
1558441506919256,-1,-6,-13,-2,-3,-8,-6,-4
1558441506926239,-4,-4,-14,-8,-1,-1,-3,-1
1558441506926239,-5,-6,-2,-2,-3,1,-9,-2
1558441506933378,-2,-2,1,-1,-4,-3,-6,-8
1558441506933378,6,4,6,-1,-7,-16,-2,-1
1558441506949191,-5,-2,5,4,4,10,-3,-1
1558441506949191,1,0,-7,-5,-5,0,4,1
1558441507003082,-4,-4,-1,-1,0,3,-8,-4
1558441507003082,3,2,0,0,5,2,13,5
1558441507004031,-2,1,3,4,-3,-19,-12,-3
1558441507004031,3,2,5,-1,-1,1,2,0
1558441507005034,-2,-2,-9,-4,-6,-10,-1,-1
1558441507005034,-1,-2,3,3,9,16,7,2
1558441507010060,3,0,-1,-2,-2,-4,-2,1
1558441507010060,-1,0,1,2,-2,1,6,1
1558441507011013,-4,-2,-3,-3,-4,-8,-6,-4
1558441507011013,-4,-1,-2,-2,-3,5,-4,-4
1558441507012009,0,1,1,2,6,-1,2,2
1558441507012009,0,-3,-4,0,1,-8,-4,0
1558441507046924,-1,-3,-2,-3,-3,3,3,0
1558441507046924,-5,-5,-3,-3,0,8,-7,-7
1558441507062875,4,0,2,1,1,7,6,1
1558441507062875,0,-2,-7,-1,1,3,-3,-1
1558441507063872,1,3,1,0,3,2,7,4
1558441507063872,-3,1,6,3,1,-5,4,-1
1558441507064871,-3,-5,-9,-6,-10,-4,-6,-5
1558441507064871,-1,-3,6,1,1,-7,-3,1
1558441507100769,2,2,-6,1,4,7,4,1
1558441507100769,-1,3,0,0,-3,-7,-4,0
1558441507101767,-1,4,2,-2,-2,-11,-5,-4
1558441507101767,0,2,3,2,5,13,5,0
1558441507102764,-1,-8,-6,-3,-4,-2,-2,-1
1558441507102764,-1,-4,-7,-7,-12,-9,-4,-4
1558441507115763,4,3,3,4,5,14,8,3
1558441507115763,-9,-4,-2,-1,-3,-20,-10,-4
1558441507116727,1,2,-1,-1,3,9,4,2
1558441507116727,1,1,4,3,8,10,1,2
1558441507121935,-2,-3,-6,-3,-6,-3,-5,-4
1558441507121935,2,2,-3,-5,-1,8,3,-1
1558441507122932,2,3,4,1,-1,-6,0,4
1558441507122932,-4,-7,-4,-3,-1,2,-6,-5
1558441507135694,1,2,4,-1,0,-4,-1,2
1558441507135694,-1,-3,0,0,-4,-10,-4,-2
1558441507136675,-4,-3,-4,-4,-6,-6,-4,-4
1558441507136675,1,0,3,1,4,4,4,0
1558441507152632,-1,1,5,3,-3,-12,0,0
1558441507152632,1,-1,2,0,1,4,2,-1
1558441507153628,-7,-7,-22,-11,-10,-11,-11,-6
1558441507153628,-1,2,0,-2,-15,-23,-5,-1
1558441507166595,-1,-2,-3,-1,4,18,7,2
1558441507166595,0,2,3,5,7,-5,-1,0
1558441507172733,3,1,5,2,4,-3,1,1
1558441507172733,-1,-3,-3,-2,-1,5,-2,-3
1558441507213469,-3,-4,-4,-6,-13,-7,-4,-4
1558441507213469,1,2,0,-1,-2,7,3,3
1558441507214468,2,1,7,1,5,5,-6,-2
1558441507214468,-4,-4,-6,-5,-2,-9,-4,-2
1558441507218487,0,0,-1,-3,-4,-1,-4,-3
1558441507218487,-1,0,-3,-3,-5,-1,-2,-1
1558441507227436,-1,0,6,3,3,2,3,2
1558441507227436,-2,-1,2,-1,2,2,-6,-2
1558441507279293,-1,-1,-2,-3,0,-3,-4,-4
1558441507279293,-2,-2,-1,-1,-6,-13,-7,-4
1558441507280290,0,-1,0,1,-1,8,7,-2
1558441507280290,-1,3,0,0,-1,4,0,1
1558441507289265,1,2,1,4,4,1,4,2
1558441507289265,-13,-11,-6,-6,-5,-3,-3,-4
1558441507289265,1,1,1,0,-3,-4,0,0
1558441507289265,-2,0,0,-1,1,0,-14,-2
1558441507333202,-3,-6,-4,0,0,2,4,-1
1558441507333202,3,2,-3,2,1,6,5,3
1558441507334145,0,0,-1,-2,2,1,1,-1
1558441507334145,0,-5,-8,-3,-5,-6,-2,-2
1558441507335144,-4,-2,-1,-3,-9,-8,-10,-2
1558441507335144,1,1,-6,0,5,10,9,4
1558441507340188,1,1,14,0,-1,-11,-3,-2
1558441507340188,1,2,-5,-2,1,2,3,-1
1558441507341129,-2,-5,-1,0,0,8,3,1
1558441507341129,-2,-4,-2,-3,-5,-3,-8,-4
1558441507342125,2,4,-3,-7,-2,-9,3,2
1558441507342125,0,-4,-1,3,3,6,3,-1
1558441507378122,-2,0,-5,-4,-2,-2,-6,-1
1558441507378122,0,0,0,0,-2,9,-2,-3
1558441507379118,1,1,1,3,3,0,6,3
1558441507379118,2,-1,7,1,1,1,2,0
1558441507380117,-3,-4,-6,-1,-4,-4,-6,0
1558441507380117,-1,-5,-2,-6,-9,-5,-6,-2
1558441507391140,-1,2,-4,-1,0,-2,-6,-3
1558441507391140,3,5,5,-1,-1,-5,6,7
1558441507392841,-1,-4,-11,-1,0,10,-6,-5
1558441507392841,-10,-9,-6,-2,0,6,-3,-4
1558441507397881,-1,-1,1,-2,-3,-5,2,-1
1558441507397881,-2,0,-4,-4,-4,-5,-5,-5
1558441507436760,3,2,5,2,-1,-5,-1,1
1558441507436760,2,1,0,-2,-3,-1,-6,0
1558441507437728,-1,-5,-3,-2,-2,5,-3,-1
1558441507437728,2,2,1,-1,-2,-7,3,1
1558441507444709,-3,-2,-3,-3,1,6,0,-1
1558441507444709,1,4,2,3,5,-6,3,-2
1558441507445704,-1,-1,7,1,-6,-6,-2,-4
1558441507445704,-3,-6,-16,-6,-7,-2,-6,-4
1558441507450691,-2,-2,-1,-2,-1,-4,1,3
1558441507450691,1,0,1,2,10,3,6,1
1558441507481651,-2,-4,2,-1,-2,-4,-4,-4
1558441507481651,-4,-1,-2,-3,-9,-3,-11,-9
1558441507483602,3,-1,2,1,0,4,11,0
1558441507483602,-1,-3,-5,-4,0,-9,4,2
1558441507505549,-1,-1,4,2,1,10,4,-2
1558441507505549,-5,-5,-9,-5,0,-4,-1,-4
1558441507506541,-2,0,0,-2,-3,-3,-1,-2
1558441507506541,1,2,-3,1,0,7,0,-1
1558441507507540,-2,-2,0,-1,3,-3,-9,-4
1558441507507540,2,2,4,2,3,-3,6,2
1558441507558451,0,2,6,0,-2,-2,2,1
1558441507558451,-1,0,-1,-3,-5,-13,-4,-2
1558441507559400,0,0,-6,-1,1,7,0,0
1558441507559400,0,-1,0,1,-1,4,-3,-2
1558441507564466,-1,-3,-1,-3,-1,-1,1,-1
1558441507564466,1,1,7,-2,-2,8,0,-3
1558441507565383,-3,-1,-2,-1,1,-2,-3,-1
1558441507565383,-3,3,-2,-2,-1,-7,2,2
1558441507603312,1,-1,-3,-1,1,-2,-3,-2
1558441507603312,-1,-2,-1,1,-1,1,4,-1
1558441507603312,0,0,-3,-2,-2,1,1,-1
1558441507603312,-3,0,1,-1,-3,3,-3,1
1558441507605278,2,2,3,0,3,-9,-5,2
1558441507605278,1,-1,-3,0,12,13,7,4
1558441507617275,-3,-1,0,1,-5,-3,-2,-4
1558441507617275,0,-1,1,-1,2,2,0,1
1558441507618243,-4,0,-3,-2,-6,-5,-8,-3
1558441507618243,-1,-2,1,-2,1,5,-3,-1
1558441507619242,1,1,-2,-3,2,-3,8,4
1558441507619242,2,-1,-3,-2,0,-7,2,1
1558441507630241,0,-3,-5,-5,-7,-5,-7,-2
1558441507630241,-5,-4,-7,-6,-14,-6,-7,-1
1558441507670213,1,-1,-1,2,8,8,6,2
1558441507670213,-2,-1,3,1,2,-2,2,-1
1558441507672179,-2,-2,0,2,4,7,-2,-1
1558441507672179,-1,-6,-2,-6,-3,4,-2,-3
1558441507673174,0,0,2,-3,-9,-2,-4,-2
1558441507673174,2,0,0,-1,-6,-26,6,2
1558441507677161,-1,0,-4,2,5,12,3,-1
1558441507677161,-3,-1,0,2,-1,2,-1,-2
1558441507678163,0,0,5,1,0,0,-4,-1
1558441507678163,-1,-4,-9,-6,-4,-5,-12,-5
1558441507708084,-9,-5,-2,0,3,1,5,-2
1558441507708084,2,4,3,3,0,1,-1,-1
1558441507715066,1,2,-6,-3,0,-10,0,0
1558441507715066,-1,-1,0,4,5,18,0,3
1558441507717053,0,2,-2,-4,-4,-5,-7,-3
1558441507717053,0,-3,2,-2,-2,-13,-2,-2
1558441507720079,-3,-1,0,1,1,4,3,2
1558441507720079,1,0,2,-2,1,5,3,-1
1558441507729023,1,-2,0,2,3,4,2,0
1558441507729023,-1,-1,3,0,-3,-13,-3,-2
1558441507751984,1,0,2,0,-2,3,-8,-3
1558441507751984,-2,-2,-10,-6,-3,0,-4,-3
1558441507752957,0,-1,2,1,-4,-2,3,-1
1558441507752957,1,-2,-2,0,6,4,7,1
1558441507758053,-2,-4,-7,-2,2,-3,1,1
1558441507758053,-2,-2,4,-1,0,5,-4,-4
1558441507781966,-2,2,7,1,0,2,-3,-1
1558441507781966,3,2,-2,-3,-3,-8,-4,1
1558441507782877,-2,-1,0,-1,4,3,5,2
1558441507782877,1,-3,7,7,5,-5,4,3
1558441507813795,-4,-6,-9,-9,-4,-3,-9,-6
1558441507813795,1,0,1,2,-3,-6,1,1
1558441507814827,1,0,-5,-4,-4,1,-4,-1
1558441507814827,-9,-3,0,0,-2,6,0,-2
1558441507818869,2,-1,0,-3,-5,-12,-7,-2
1558441507818869,-2,-3,0,1,9,4,5,2
1558441507834826,2,1,2,-1,0,0,0,0
1558441507834826,-3,0,1,0,-5,1,-7,-1
1558441507835734,-2,-4,-8,-5,-2,-5,4,4
1558441507835734,-3,-2,-3,-1,-3,-5,-8,-7
1558441507836732,-2,-2,-4,-4,-2,-3,2,2
1558441507836732,1,3,2,2,3,6,3,0
1558441507848758,0,3,3,2,1,3,-6,-2
1558441507848758,2,-3,3,-2,1,4,4,2
1558441507855684,-1,-3,-9,-3,-1,-10,-4,-3
1558441507855684,0,0,0,-3,-5,-4,-4,0
1558441507878619,1,1,2,3,-3,-4,-1,1
1558441507878619,-3,-1,-1,-2,0,-1,-2,-2
1558441507878619,1,-1,-1,1,0,4,-1,-2
1558441507878619,-1,0,-5,-4,-2,-3,-2,-3
1558441507894578,2,2,-1,0,4,1,2,1
1558441507894578,-3,-8,-6,-2,-8,1,-11,-6
1558441507895574,0,-2,0,1,-2,-8,4,0
1558441507895574,2,0,0,-1,-1,1,2,2
1558441507948433,-1,0,4,0,5,4,3,1
1558441507948433,0,3,-2,1,-1,-6,1,2
1558441507949431,-1,1,0,-5,-13,-2,-7,-4
1558441507949431,-6,-7,-5,2,6,-2,7,1
1558441507955415,-1,0,3,0,-2,-1,0,-3
1558441507955415,-2,2,-1,-1,-3,2,-5,0
1558441507956412,-1,-1,-2,1,-2,4,-1,0
1558441507956412,-2,-3,-4,-6,0,-3,2,0
1558441507957409,-1,-5,-9,-3,-7,-5,-4,-4
1558441507957409,1,2,2,-1,-3,-10,-2,-1
1558441507976585,0,-3,4,3,5,11,-3,0
1558441507976585,3,1,5,2,2,0,-2,-1
1558441507992542,1,0,0,-2,-2,0,1,2
1558441507992542,-3,0,-4,-1,-4,-9,-5,-6
1558441507993508,-3,-2,-1,-2,1,-3,-1,-2
1558441507993508,-1,-3,-7,-5,-7,0,-2,-3
1558441507994311,1,-2,-3,-2,-6,-1,-5,-6
1558441507994311,0,-1,-6,-1,-1,3,-4,-1
1558441508006503,-2,3,0,-1,5,0,5,4
1558441508006503,-1,-5,-2,-1,-3,-1,0,-2
1558441508013362,-5,-4,4,-2,-11,-5,-9,-4
1558441508013362,-2,-1,2,-1,0,4,3,-2
1558441508014257,0,0,-3,1,2,0,4,0
1558441508014257,-1,2,5,-2,-2,-9,-7,-1
1558441508039191,1,-1,-3,0,7,14,6,1
1558441508039191,-2,-1,-1,-1,0,4,-3,-1
1558441508044179,0,-1,-7,-3,-4,-10,0,-2
1558441508044179,-2,0,4,1,-2,3,3,1
1558441508050205,-1,-2,3,0,-2,1,-10,-2
1558441508050205,-1,-3,-11,-5,-2,-13,6,4
1558441508058145,-1,-3,2,-3,3,5,-3,1
1558441508058145,1,-2,-1,-1,-2,-2,-1,-1
1558441508106018,-2,-1,-5,-1,1,-4,2,-1
1558441508106018,3,3,9,4,10,11,8,3
1558441508107017,-3,-4,-4,-5,-8,-19,-7,-3
1558441508107017,0,3,2,1,-3,-1,-7,-4
1558441508112000,-3,0,1,-2,-5,-7,1,-2
1558441508112000,-1,-1,-16,-6,-1,3,-2,-2
1558441508113001,-2,-8,-1,2,2,6,0,-1
1558441508113001,0,1,-4,-5,-1,-3,-7,1
1558441508114996,3,2,2,4,2,6,5,1
1558441508114996,-1,1,4,0,1,2,6,0
1558441508117979,-1,0,1,0,-2,4,-4,-4
1558441508117979,1,0,-1,1,1,-11,1,-1
1558441508134934,-3,-2,-3,-3,-5,-4,-10,-4
1558441508134934,-1,-2,3,0,1,-5,1,3
1558441508135932,-2,2,-3,-2,-3,-4,-1,-2
1558441508135932,1,3,0,0,1,5,0,-1
1558441508165850,-4,-6,-10,-2,0,-4,2,-2
1558441508165850,-4,-5,1,-1,-2,7,-4,-5
1558441508165850,0,2,5,2,0,-4,-2,-2
1558441508165850,-1,-2,-9,-3,2,0,3,3
1558441508169842,4,6,6,2,1,-9,1,1
1558441508169842,-6,-9,-12,-11,-10,-3,-6,-3
1558441508210732,-1,3,1,-2,-3,5,1,-1
1558441508210732,0,-3,0,1,-1,-2,-3,-3
1558441508211728,-2,-5,8,4,4,5,2,1
1558441508211728,-3,-4,-14,-10,-8,-12,-4,-2
1558441508212725,1,1,0,4,5,-2,-1,1
1558441508212725,-2,0,-3,-5,-5,-1,-6,-5
1558441508223731,-1,0,-6,-4,0,-2,-1,-1
1558441508223731,0,4,14,10,9,15,9,4
1558441508224694,-1,0,3,-2,-6,-9,-4,-3
1558441508224694,2,-2,-17,-9,-9,-8,-5,-3
1558441508229715,-6,-10,-4,-4,-3,1,-3,-1
1558441508229715,2,2,2,0,1,4,-6,-2
1558441508253697,-1,0,-1,-2,-1,-8,8,4
1558441508253697,-2,2,9,6,0,-6,-5,-2
1558441508255625,3,4,-9,-6,-3,3,8,3
1558441508255625,-2,-5,3,0,-9,-8,-10,-4
1558441508260616,-2,-1,-1,0,1,10,-4,-4
1558441508260616,1,1,2,-3,1,1,-1,0
1558441508284542,-4,0,-9,-4,1,-3,-1,-1
1558441508284542,-2,-6,2,2,-2,-1,-6,-3
1558441508284542,2,-1,7,2,-4,-2,1,0
1558441508284542,-4,-2,-8,-4,-1,-1,-1,-3
1558441508330452,1,-4,-1,1,5,-1,1,3
1558441508330452,3,9,7,1,-3,-3,-3,2
1558441508331410,1,-4,-12,-6,-3,5,0,1
1558441508331410,-4,-9,5,1,-1,0,-2,-2
1558441508332408,4,0,4,3,5,-5,2,1
1558441508332408,-5,-2,-4,-2,5,-2,9,2
1558441508337398,-4,-6,-3,1,-7,-5,-9,-5
1558441508337398,0,8,15,5,-2,4,0,-2
1558441508338392,-1,-6,-14,-6,-10,-2,-2,-2
1558441508338392,7,15,2,4,8,1,8,2
1558441508339389,-2,9,1,-1,0,-3,-2,0
1558441508339389,-9,-21,-2,-4,-5,-3,-1,1
1558441508391250,-4,-11,-1,-1,-11,-5,1,-3
1558441508391250,9,10,7,2,0,5,-19,-1
1558441508392249,-7,-16,-2,-1,7,12,12,2
1558441508392249,3,4,3,3,2,-9,2,0
1558441508397264,-7,19,0,0,2,7,-4,-5
1558441508397264,7,14,-2,-6,-3,3,1,-3
1558441508398231,-5,-21,6,3,1,-6,0,2
1558441508398231,-6,-5,4,4,8,1,-1,1
1558441508399231,12,17,8,4,-3,-2,-8,0
1558441508399231,-2,10,-12,-6,-5,4,10,-1
1558441508450123,11,21,17,6,10,-8,-5,2
1558441508450123,0,2,-4,-1,1,-7,2,2
1558441508451091,-13,-35,-13,-7,-16,-19,-8,-7
1558441508451091,4,0,-4,5,8,20,5,1
1558441508452087,-4,8,7,-1,-7,1,0,-6
1558441508452087,3,6,-1,-1,10,12,12,5
1558441508465234,12,32,11,4,2,-4,-9,-3
1558441508465234,-12,-18,-17,-8,-6,-6,-10,-7
1558441508487990,-3,-15,4,1,-2,5,9,0
1558441508487990,-6,-10,-13,-10,-11,-5,-2,-3
1558441508488987,-2,2,-3,-4,-2,2,-3,-1
1558441508488987,8,11,9,3,10,4,10,7
1558441508489987,7,8,10,5,6,-3,3,2
1558441508489987,-11,-22,2,3,-3,-7,-21,-8
1558441508501984,-2,4,-5,1,1,4,3,0
1558441508501984,-3,-2,-11,-9,-11,-4,-10,-4
1558441508503979,-2,-3,-3,-5,-9,0,-5,-3
1558441508503979,-4,-3,5,5,7,6,15,5
1558441508503979,-3,8,2,-3,4,-1,-5,-6
1558441508503979,4,2,5,-1,3,-11,4,2
1558441508562816,1,-4,-10,-1,0,-3,-2,0
1558441508562816,1,-1,-1,-2,-5,5,-2,-2
1558441508563787,-3,-6,5,0,-2,-5,0,0
1558441508563787,6,14,11,5,7,11,3,2
1558441508564784,4,9,-1,1,4,4,-3,0
1558441508564784,-8,-23,1,1,-3,0,1,1
1558441508607670,-5,4,0,-1,-3,-1,-7,-4
1558441508607670,-1,-14,-13,-8,-15,-14,-11,-4
1558441508609665,3,16,10,5,4,4,3,1
1558441508609665,11,19,16,6,12,-3,-5,3
1558441508614651,-27,-23,-7,-2,-1,8,1,-2
1558441508614651,1,13,5,-1,-7,-6,10,3
1558441508615648,2,-1,-16,-8,0,-9,-1,1
1558441508615648,-2,-5,11,5,1,-1,-4,0
1558441508616645,12,23,14,4,-2,-21,3,5
1558441508616645,-4,0,-2,-5,-7,-3,-9,-6
1558441508628615,2,-3,4,5,11,20,10,1
1558441508628615,-7,-8,-2,1,4,9,-1,-2
1558441508653547,-3,6,4,1,-1,-6,-5,-2
1558441508653547,10,-3,-5,-3,-6,-6,1,1
1558441508654544,-6,21,9,3,5,3,2,0
1558441508654544,-2,3,-5,0,-3,6,3,1
1558441508665526,-13,-41,-9,-8,-7,-12,-19,-7
1558441508665526,-4,-2,-7,-3,2,-2,8,-3
1558441508674491,3,1,6,2,-1,-1,-3,-2
1558441508674491,20,38,4,-3,4,1,7,3
1558441508675491,-1,-17,-2,-1,-6,7,-3,-4
1558441508675491,-3,-4,-13,-4,-3,-9,-11,-4
1558441508680496,5,-7,8,6,5,11,5,3
1558441508680496,-16,-8,-6,-6,-1,-14,1,-3
1558441508697431,2,-16,8,3,8,2,-2,-3
1558441508697431,-7,-11,-24,-15,-8,-5,-1,-2
1558441508698428,-2,-7,11,3,-8,-4,2,0
1558441508698428,8,21,-13,-9,-3,-2,-7,0
1558441508710395,-3,11,5,3,3,3,8,1
1558441508710395,-3,-7,13,8,11,13,-4,-2
1558441508717560,0,4,-11,-9,-10,-5,-4,-2
1558441508717560,3,6,9,5,-3,-3,-2,1
1558441508732371,0,-1,-5,-5,1,7,4,1
1558441508732371,4,8,4,0,-2,-7,-3,-1
1558441508740315,-12,-26,-1,-7,-11,-9,-6,-5
1558441508740315,-4,-7,-13,-4,4,12,10,1
1558441508756274,0,4,3,-1,-4,3,-6,-5
1558441508756274,2,-2,-9,-1,5,8,-1,0
1558441508756274,-10,-5,4,-1,-2,-4,5,2
1558441508756274,9,18,10,6,4,1,-2,-1
1558441508770234,-7,-16,-1,1,6,3,1,-1
1558441508770234,-3,-10,-3,0,-4,-5,5,2
1558441508778214,5,8,1,-1,-1,1,-10,-5
1558441508778214,-7,-14,-6,-1,-5,-1,0,-3
1558441508793532,9,16,8,1,1,-7,1,4
1558441508793532,-6,-7,-1,2,0,-5,-2,-5
1558441508800316,2,-3,-11,-7,-4,-5,-5,-1
1558441508800316,0,7,11,5,1,5,9,2
1558441508816111,2,6,-2,-1,0,-1,-12,-4
1558441508816111,-9,-13,-8,-9,-14,-11,1,0
1558441508816111,8,0,-8,-4,4,-2,-5,0
1558441508816111,2,-3,-4,1,-1,2,-3,-2
1558441508830075,-7,5,4,3,1,-2,-3,0
1558441508830075,-2,-4,-8,-4,-2,-6,-6,-3
1558441508838054,-5,-6,4,4,4,0,-1,-1
1558441508838054,1,-1,0,-6,-13,-19,-6,-4
1558441508853012,9,13,-2,-2,6,12,11,7
1558441508853012,0,8,12,4,0,1,2,-1
1558441508860245,-12,-20,-17,-9,-11,-12,-4,-3
1558441508860245,0,6,4,0,-3,-3,-8,-5
1558441508875953,-7,-21,-18,-6,-2,2,-3,-4
1558441508875953,-1,-6,0,0,-1,8,-2,-4
1558441508882934,1,13,8,2,1,-5,-4,-2
1558441508882934,-7,-15,3,3,7,4,3,3
1558441508891909,0,5,-4,-2,-8,-9,-2,-3
1558441508891909,6,13,6,2,5,0,5,3
1558441508897895,3,-6,-7,0,3,4,-2,-1
1558441508897895,1,-8,1,-1,-4,-5,-2,3
1558441508912853,-1,9,-8,-6,-7,-9,-3,-5
1558441508912853,-2,12,-1,-1,4,11,-2,-2
1558441508919835,-1,-13,3,2,4,9,6,1
1558441508919835,-16,-21,-18,-10,-3,-4,5,-2
1558441508936789,5,1,6,3,-5,-3,1,1
1558441508936789,3,6,-3,-2,2,-2,5,0
1558441508943770,3,10,9,5,4,-2,-2,1
1558441508943770,-5,-8,-3,-5,-3,1,-6,-3
1558441508949789,-2,0,7,2,-3,-2,-12,-3
1558441508949789,-4,-9,-27,-14,-8,-2,3,-2
1558441508957874,8,15,19,7,10,-7,4,2
1558441508957874,-8,-9,-22,-6,-8,-2,-9,-4
1558441508972692,-7,-5,4,2,4,8,1,-1
1558441508972692,3,2,15,9,1,-5,-5,-3
1558441508979674,-5,-5,-15,-11,-5,-1,3,-2
1558441508979674,2,1,5,2,2,4,-9,0
1558441508995634,10,11,10,2,-2,-5,3,0
1558441508995634,-20,-23,-15,-8,1,5,1,-2
1558441508996635,-6,-12,-10,-3,-8,-4,1,0
1558441508996635,3,14,7,5,2,-2,-2,-4
1558441509010590,3,-1,-5,-5,1,-5,0,3
1558441509010590,2,-3,13,5,-1,-5,0,1
1558441509017574,3,14,14,4,-3,2,1,-1
1558441509017574,1,-1,-15,-2,0,1,3,2
1558441509032533,-4,-8,-13,-6,-5,-2,3,-2
1558441509032533,0,0,1,3,-1,6,-6,-3
1558441509040512,-3,8,5,0,0,9,-5,-1
1558441509040512,2,-3,-1,-4,7,0,4,1
1558441509055473,0,1,-4,-3,-3,-8,1,-1
1558441509055473,2,1,-2,-3,2,-6,-2,1
1558441509056471,-2,-7,2,0,-2,-1,-1,-1
1558441509056471,2,1,6,1,1,-1,-1,0
1558441509071432,7,16,3,1,3,4,-4,0
1558441509071432,-4,-1,0,-3,-5,-3,5,0
1558441509077450,2,-1,12,4,-4,-17,-6,-1
1558441509077450,-8,-4,-28,-14,-6,3,3,-1
1558441509092373,-5,-5,-4,1,7,7,7,3
1558441509092373,4,1,3,3,-3,2,-2,-1
1558441509108331,-1,-1,3,-2,2,9,5,2
1558441509108331,-2,1,-4,1,-9,-8,-9,-5
1558441509116310,3,5,2,3,-3,-6,-1,0
1558441509116310,0,-3,8,1,5,2,-4,0
1558441509116310,-3,-3,-22,-4,0,-5,0,-3
1558441509116310,3,-1,18,4,2,1,2,0
1558441509131275,-2,0,7,3,-3,3,-3,-3
1558441509131275,-8,-16,-29,-18,-14,-11,-8,-9
1558441509138321,1,3,2,2,4,7,-7,-1
1558441509138321,-2,-2,3,2,2,-4,3,0
1558441509154208,-2,-3,-3,-9,-9,-8,0,-3
1558441509154208,7,8,14,8,9,0,3,6
1558441509168344,-14,-14,-22,-9,-6,1,3,-1
1558441509168344,0,3,8,1,4,7,-2,0
1558441509175331,0,-2,-1,-2,0,7,2,1
1558441509175331,2,5,3,7,1,1,-3,3
1558441509182135,0,-5,-1,-1,-3,-6,-4,-5
1558441509182135,0,-5,3,2,-3,-2,7,-2
1558441509191108,-2,-3,-4,-1,3,7,-1,0
1558441509191108,-6,-3,-3,-1,1,-1,9,2
1558441509198091,5,6,7,8,3,-2,-1,1
1558441509198091,-2,-8,-8,-8,-1,5,1,-3
1558441509213050,0,3,-1,1,-4,-3,-9,-2
1558441509213050,1,-1,-3,-6,-2,-3,4,-2
1558441509220031,-3,0,-2,-1,-1,-3,-11,-4
1558441509220031,-2,-3,9,4,-1,-9,5,2
1558441509234993,-1,3,-9,-1,3,5,-3,-4
1558441509234993,-2,1,20,10,4,2,-1,0
1558441509251946,0,-4,-20,-14,-9,-6,2,-1
1558441509251946,7,15,15,5,9,-9,-8,2
1558441509252943,-8,-15,-19,-9,-2,1,2,-2
1558441509252943,4,17,8,3,2,11,1,1
1558441509257933,4,1,6,2,4,8,3,-2
1558441509257933,-10,-11,-3,4,-3,1,-9,-2
1558441509272889,-3,-3,5,-2,-5,-10,7,1
1558441509272889,-1,-6,-9,-5,-5,-2,-13,-4
1558441509279871,3,8,7,0,-3,-2,-8,-6
1558441509279871,1,1,-5,-3,2,3,12,3
1558441509294835,4,5,4,0,-1,-2,-10,-1
1558441509294835,-7,-12,1,-1,-5,2,3,3
1558441509302815,-4,-1,-9,-5,-5,2,3,-2
1558441509302815,0,-12,-3,-1,1,3,-4,-2
1558441509318774,6,7,1,-1,5,-1,0,1
1558441509318774,-11,-12,2,2,5,-3,8,1
1558441509318774,0,-4,6,3,0,-5,-14,-5
1558441509318774,2,6,-7,-3,-7,0,5,-2
1558441509332735,-9,-10,-11,-6,-8,-10,-4,-3
1558441509332735,3,-5,-3,3,3,6,-2,-2
1558441509339717,0,-4,2,1,-1,-2,10,5
1558441509339717,-3,9,-3,-2,-1,0,-10,-2
1558441509354671,5,9,9,6,2,-9,2,1
1558441509354671,3,-8,-12,-11,-7,-4,-8,-1
1558441509362650,-12,-13,-4,-3,1,6,-1,-5
1558441509362650,0,-2,1,-2,-4,0,0,0
1558441509378611,-3,1,3,2,2,3,0,-1
1558441509378611,3,19,-2,-4,-8,-9,-7,-4
1558441509378611,3,-16,1,3,9,1,5,8
1558441509378611,0,5,8,2,-1,0,5,1
1558441509392570,-1,-3,-7,-1,1,-1,0,1
1558441509392570,-6,7,3,4,13,14,8,2
1558441509400558,2,2,-25,-10,-14,-8,-5,-3
1558441509400558,-5,-3,8,-1,-5,-1,-1,-1
1558441509415538,-5,-17,-8,-1,-6,2,-11,-4
1558441509415538,5,23,7,0,2,-2,-4,-2
1558441509422488,0,-12,18,9,1,3,12,5
1558441509422488,-3,-9,-26,-11,-5,-6,-18,-6
1558441509439705,1,10,9,1,-3,-6,9,3
1558441509439705,1,-5,-1,-3,-2,-11,1,0
1558441509445429,-8,0,2,-1,-2,1,5,1
1558441509445429,3,-4,-4,-1,-1,-2,0,-3
1558441509452409,-1,-2,5,1,-2,4,-10,-6
1558441509452409,0,0,0,-2,-6,-7,4,0
1558441509460395,-1,3,-14,-10,-1,-5,-7,0
1558441509460395,5,13,10,7,0,5,3,0
1558441509475348,-12,-4,-6,-1,3,2,1,1
1558441509475348,-8,-33,-10,-3,-7,-2,-1,-4
1558441509482331,1,8,9,2,0,0,3,-5
1558441509482331,0,1,-5,-6,0,-9,-10,-3
1558441509499287,3,10,3,2,0,0,5,-2
1558441509499287,5,5,14,6,1,0,-2,-1
1558441509500281,-12,-14,-32,-17,-7,-9,-9,-5
1558441509500281,-1,2,10,6,2,8,10,2
1558441509512252,1,-2,-4,-1,-1,-8,-1,0
1558441509512252,1,-4,-1,2,2,1,5,2
1558441509520228,9,23,21,6,9,5,2,2
1558441509520228,-3,-12,4,-1,-5,-6,-11,-5
1558441509535187,0,-5,-18,-7,0,-4,10,0
1558441509535187,0,9,-5,-2,-1,2,-2,-3
1558441509543169,-1,-1,14,10,5,7,-1,-3
1558441509543169,1,4,-2,-4,2,9,1,5
1558441509558150,1,-3,14,6,-2,1,6,2
1558441509558150,-9,-10,-17,-11,-7,-13,-18,-4
1558441509559130,1,-8,-3,1,2,3,1,-1
1558441509559130,-3,-2,11,3,-2,-5,-1,2
1558441509573087,0,-5,-16,-8,-3,4,-8,-4
1558441509573087,-2,-2,-12,-5,-7,-9,0,-1
1558441509580069,2,6,-4,0,-2,-8,7,1
1558441509580069,0,0,-3,-2,-3,-5,-7,-4
1558441509595028,1,1,20,6,9,8,-1,3
1558441509595028,1,-3,-3,-3,-4,2,-2,-2
1558441509603006,-2,1,-5,-6,-4,-7,-7,-4
1558441509603006,-3,-4,3,2,0,-13,6,0
1558441509617966,-1,6,-7,-5,-4,-6,2,-3
1558441509617966,-6,-14,-9,-2,1,10,-7,-6
1558441509618966,1,11,4,-1,0,-1,8,5
1558441509618966,3,5,6,0,4,-7,-10,-5
1558441509632926,-8,-20,-4,1,-2,-1,-2,-1
1558441509632926,-1,-3,0,0,1,0,-1,0
1558441509639908,7,6,-3,0,-7,-2,-4,1
1558441509639908,-2,0,-11,-3,2,3,5,1
1558441509654867,-1,-8,-1,-3,-4,-6,-4,-1
1558441509654867,-4,0,10,4,8,9,4,-1
1558441509662853,-4,-5,1,0,-5,-8,-6,-2
1558441509662853,2,2,-13,-8,-3,-3,3,-2
1558441509678806,-3,-3,-4,-7,-2,-1,-7,-4
1558441509678806,0,1,-1,1,0,-5,3,1
1558441509678806,3,1,-7,-4,-5,-3,6,0
1558441509678806,-7,-2,5,5,-1,2,-1,-5
1558441509692768,-1,-4,2,2,1,0,-5,-2
1558441509692768,1,-11,3,-1,0,-1,7,2
1558441509699748,-7,1,-4,-5,-9,-10,-20,-11
1558441509699748,3,-2,-7,-1,-5,2,1,0
1558441509714707,1,5,2,-1,3,-1,3,2
1558441509714707,1,11,8,3,0,-4,-5,1
1558441509722818,-2,-7,0,-2,3,0,0,0
1558441509722818,-3,-14,-8,-2,-4,5,-1,-1
1558441509738645,3,9,8,4,-1,8,-6,-1
1558441509738645,6,10,-12,-10,-7,-14,0,0
1558441509738645,-8,-16,2,3,6,4,9,6
1558441509738645,-4,-6,0,-1,0,-6,-6,-5
1558441509752608,1,-3,0,0,1,-2,7,3
1558441509752608,1,0,0,2,0,-1,-5,-2
1558441509760586,-1,3,-2,-5,-7,-8,-9,-8
1558441509760586,0,4,10,3,9,8,10,5
1558441509775552,-4,-2,-8,-2,-3,1,-2,-1
1558441509775552,-3,-3,-21,-9,-4,2,-7,-3
1558441509782528,-1,1,-4,-6,-1,-6,1,-1
1558441509782528,-9,-19,-7,-2,-6,-4,-4,-3
1558441509798484,3,2,3,-1,-4,-6,0,-1
1558441509798484,1,1,-1,1,3,9,10,3
1558441509798484,2,0,2,4,0,2,-9,0
1558441509798484,-1,4,1,-2,-3,1,-2,2
1558441509812446,-2,3,2,1,1,-2,3,0
1558441509812446,1,-1,8,2,-3,-4,-7,-3
1558441509820424,-2,-2,-7,-2,0,0,3,1
1558441509820424,1,11,0,-4,3,4,4,-1
1558441509835387,-1,-13,-5,-2,-4,-7,-5,-4
1558441509835387,-2,1,3,-2,-2,1,1,0
1558441509842608,-1,-1,2,1,0,3,-6,-1
1558441509842608,-12,-8,-8,-3,-3,0,0,-3
1558441509858325,-2,-6,0,-3,6,10,-3,-2
1558441509858325,0,4,0,1,1,-5,10,2
1558441509859320,3,0,7,6,0,1,3,0
1558441509859320,4,4,0,-2,-2,0,2,2
1558441509872286,-4,0,-7,-4,-10,-14,-15,-5
1558441509872286,-1,1,2,-1,2,1,5,3
1558441509888244,-2,-9,-6,-1,0,-1,-6,-1
1558441509888244,0,-2,-5,-2,-2,-1,-2,-1
1558441509895257,-3,-4,5,-1,-5,2,-3,-3
1558441509895257,-2,-3,-4,1,-3,1,-6,-2
1558441509902206,1,4,3,1,2,-5,5,3
1558441509902206,3,6,10,7,6,-3,3,3
1558441509918163,-4,-2,-15,-10,-4,-6,-2,-2
1558441509918163,-4,-4,0,0,-5,1,-7,-6
1558441509919161,-2,-8,5,5,2,0,4,-1
1558441509919161,5,6,-7,-9,-8,0,-3,-2
1558441509932126,1,6,-4,-6,-9,-6,-6,-2
1558441509932126,-11,-16,3,3,4,-7,2,1
1558441509940106,-2,-1,-10,-6,0,2,5,3
1558441509940106,-4,-9,2,5,2,-3,-1,-2
1558441509955145,3,5,5,0,-1,5,7,2
1558441509955145,0,0,1,-1,2,3,-4,-3
1558441509963043,2,5,-2,-2,-6,-4,-5,-3
1558441509963043,0,-2,9,3,5,5,-4,1
1558441509978006,-2,-2,-1,2,9,-5,14,8
1558441509978006,0,-2,-7,-6,-7,-4,-3,-2
1558441509979007,-3,0,4,3,5,2,-1,-3
1558441509979007,0,1,-12,-6,-7,1,-9,-6
