timestamp,emg1,emg2,emg3,emg4,emg5,emg6,emg7,emg8
1558441145223785,-1,-1,-2,-9,0,5,3,0
1558441145223785,0,-1,0,3,8,2,-2,-1
1558441145229769,-3,-1,-1,7,-1,3,-1,-1
1558441145229769,-4,-1,-3,-9,-8,-15,-9,-2
1558441145230766,-1,-1,-3,-5,4,1,4,-2
1558441145230766,0,1,2,9,0,1,2,1
1558441145231763,-1,1,-2,-4,-3,-9,-7,-3
1558441145231763,2,0,0,-4,3,8,0,1
1558441145243732,0,-2,-4,7,-4,4,2,1
1558441145243732,-2,-2,1,-4,-1,1,0,-3
1558441145250714,-1,-3,0,-7,0,-5,-1,-3
1558441145250714,-2,-1,0,2,-4,2,0,-2
1558441145257694,-1,-2,3,6,4,-7,-4,-2
1558441145257694,2,-2,-3,-5,0,1,-3,0
1558441145272655,-3,-3,-4,-7,-2,1,2,-1
1558441145272655,0,-2,-1,7,2,4,3,-1
1558441145280634,-4,-2,-1,-5,-6,-4,-4,0
1558441145280634,-2,-2,-3,-7,-4,-3,-2,-1
1558441145288612,0,-1,0,6,-4,-6,-4,-2
1558441145288612,0,-2,-2,-3,2,-6,0,0
1558441145303571,1,3,3,2,15,18,14,5
1558441145303571,-1,-1,-4,-2,-8,-8,-5,-4
1558441145311551,-2,-1,0,-1,-2,4,0,-2
1558441145311551,-1,-2,-1,-6,-9,-6,-3,-3
1558441145350446,1,0,0,-3,3,2,3,0
1558441145350446,-1,-2,-1,14,5,9,2,2
1558441145351444,0,-1,-3,-9,-3,-11,-4,-2
1558441145351444,-1,-2,-3,-10,-2,-2,1,-1
1558441145352441,-1,-1,-2,9,-7,0,0,2
1558441145352441,-2,0,0,-3,2,1,-3,-1
1558441145354436,-4,-2,-1,-6,-1,2,0,-2
1558441145354436,1,0,1,7,2,4,6,3
1558441145363411,0,-2,3,1,4,-4,-4,0
1558441145363411,1,-2,-6,-12,-8,-5,-3,-1
1558441145369396,-1,-1,-5,-2,-5,-5,-2,0
1558441145369396,-1,-1,-1,6,-4,-4,-7,-5
1558441145377375,-2,-3,-3,-7,-4,-6,-3,-3
1558441145377375,2,4,5,-1,9,14,11,4
1558441145392335,-1,-1,0,6,1,3,1,0
1558441145392335,-5,0,0,-1,5,1,-1,0
1558441145400313,2,1,-1,-5,2,-2,-2,-1
1558441145400313,-1,-2,-3,-4,-8,-10,-6,-4
1558441145408291,0,-2,-2,0,-6,-2,-7,-3
1558441145408291,2,-1,0,-6,2,-3,3,1
1558441145423252,-2,-1,-3,-1,-2,-1,0,-2
1558441145423252,-4,-2,1,-1,-7,-4,-4,-2
1558441145430232,-1,1,3,1,11,9,4,2
1558441145430232,1,1,0,0,-2,0,-2,-2
1558441145437214,0,-2,0,2,1,-4,-1,-2
1558441145437214,-2,0,-1,0,2,4,2,-1
1558441145452174,1,0,-2,-2,-3,-11,-5,0
1558441145452174,-3,-3,-4,-1,-7,-4,-8,-3
1558441145460153,1,3,3,1,3,-1,3,3
1558441145460153,-3,-2,-1,-2,-3,0,2,0
1558441145469128,-2,-1,-1,0,1,7,0,0
1558441145469128,-1,0,-1,1,-5,-6,-4,-3
1558441145483102,-2,-3,-1,-3,-8,2,-2,1
1558441145483102,-2,-2,-1,-1,9,-2,-1,-4
1558441145490072,0,0,2,3,-1,-5,1,-1
1558441145490072,-1,1,-1,-1,0,0,1,-2
1558441145497057,-1,-1,-4,-4,-1,3,-2,-4
1558441145497057,1,0,-1,0,-10,-13,-6,1
1558441145512015,-1,0,-4,-3,-4,3,3,-2
1558441145512015,-3,-2,0,-3,-1,-4,-4,-1
1558441145519992,-1,-1,2,0,5,1,0,1
1558441145519992,-3,-4,-6,-4,-8,-4,-4,-2
1558441145528968,1,0,2,4,1,5,3,0
1558441145528968,1,2,0,1,17,11,6,3
1558441145542931,-3,-2,-6,-1,-2,-4,-1,-3
1558441145542931,1,-2,0,-1,-5,-6,-3,-1
1558441145549913,0,-4,-1,-4,-4,-5,1,1
1558441145549913,-1,-1,-2,2,4,7,1,-1
1558441145556893,-2,-3,-1,-4,-4,-5,-5,-2
1558441145556893,-1,1,-1,-1,4,3,0,-1
1558441145572851,-3,-1,-1,-3,-8,-8,-6,-4
1558441145572851,-2,-2,-2,-3,-3,4,2,-1
1558441145579832,-1,0,2,-1,-1,-9,-1,-2
1558441145579832,-2,-1,0,1,3,0,0,-1
1558441145588808,2,1,0,4,5,5,1,1
1558441145588808,-1,-1,-4,-6,-6,-5,-4,-2
1558441145602770,-1,-2,-2,-3,-3,4,-1,-1
1558441145602770,0,-2,-1,-1,-6,-10,-6,-2
1558441145609754,-2,0,-2,-2,4,-5,-3,-1
1558441145609754,-1,-1,1,1,3,7,3,-1
1558441145617731,-1,-4,-3,0,-5,-8,-8,-2
1558441145617731,0,-3,-1,-4,-9,-4,-4,-3
1558441145633687,0,1,-1,-1,2,4,2,-1
1558441145633687,1,0,-3,0,-1,-2,0,1
1558441145639672,1,2,3,3,12,14,5,3
1558441145639672,-3,-1,-1,-2,3,1,-1,-1
1558441145654632,-1,-2,3,-1,-5,-9,-5,-3
1558441145654632,0,-2,-2,-1,-8,-10,-5,-1
1558441145662620,0,-2,0,-2,-2,4,-1,-2
1558441145662620,1,-2,-2,-1,-3,-1,-2,-1
1558441145669592,-1,-2,-2,-3,-4,-7,-2,-2
1558441145669592,-1,-1,2,0,1,-5,0,4
1558441145677572,-2,-2,-1,-1,1,4,0,0
1558441145677572,1,0,1,3,2,5,3,0
1558441145692530,-2,0,1,-3,-3,-3,-2,-2
1558441145692530,-3,-3,-5,-4,-9,-9,-7,-6
1558441145699512,0,2,1,0,6,3,4,1
1558441145699512,0,-1,-2,1,12,6,3,0
1558441145714473,-1,-2,-1,0,0,7,1,0
1558441145714473,-1,0,0,-3,-4,-7,-3,-3
1558441145723449,0,2,-1,-2,-8,-5,-3,-2
1558441145723449,-1,2,2,1,7,6,7,3
1558441145738415,-2,-1,0,0,5,2,1,0
1558441145738415,0,-2,-1,0,-1,4,1,-1
1558441145738415,-2,-2,-2,-3,-6,-5,-6,-4
1558441145738415,-1,-4,-4,-5,-12,-11,-10,-6
1558441145752371,0,0,-2,-1,-1,7,3,1
1558441145752371,1,1,2,4,10,8,3,1
1558441145759353,-1,1,2,1,1,-7,-1,-1
1558441145759353,-1,-2,-2,-1,-3,0,-3,0
1558441145775310,-1,-3,-5,-1,-8,-5,-7,-5
1558441145775310,0,-2,-3,-4,-3,1,0,-2
1558441145791268,-2,-2,-4,-1,-2,-4,-3,-2
1558441145791268,-1,1,1,-1,-1,-4,0,0
1558441145792264,-1,-3,-1,-2,-3,1,1,0
1558441145792264,1,0,3,2,9,11,4,0
1558441145797253,0,-2,-2,1,-2,-3,-4,0
1558441145797253,-2,1,1,-1,-4,-4,0,1
1558441145812211,-2,-3,-2,-4,-7,-9,-10,-5
1558441145812211,-2,-1,-3,-4,-10,-11,-7,-2
1558441145820189,2,1,0,2,5,9,10,3
1558441145820189,0,1,0,1,2,6,1,0
1558441145835150,2,1,2,2,7,1,3,2
1558441145835150,1,1,1,5,7,0,-3,0
1558441145843135,-3,-2,-5,-4,-6,-3,-4,-3
1558441145843135,1,-2,-2,-4,-6,-5,-3,-3
1558441145850110,-2,0,-3,-4,-8,-7,-1,-1
1558441145850110,-2,0,1,1,3,8,5,1
1558441145857091,-2,0,1,1,1,2,0,0
1558441145857091,1,-1,-1,0,5,1,-1,-1
1558441145872051,-3,-3,-2,-3,-6,-5,-8,-2
1558441145872051,-2,-2,-3,-4,-6,-8,-4,1
1558441145880029,-2,-2,-1,-1,-2,3,0,0
1558441145880029,-1,0,-1,2,2,-3,2,1
1558441145894990,1,0,0,-1,1,1,-1,-1
1558441145894990,-1,-2,-2,-2,-3,3,0,-3
1558441145902968,0,-2,-4,-3,-7,-8,-2,-4
1558441145902968,-1,1,2,3,2,1,1,-1
1558441145909951,-1,-2,1,0,5,8,3,-2
1558441145909951,0,-2,-3,-6,-8,-13,-3,-1
1558441145916931,-2,-1,-1,-1,-7,-9,-4,-2
1558441145916931,-2,-3,1,-3,-1,-2,-1,-4
1558441145931890,-3,0,-1,1,2,7,3,1
1558441145931890,-4,-2,0,-1,-6,-10,-7,-2
1558441145939870,0,-2,0,1,1,4,0,-1
1558441145939870,-1,0,-3,-4,-3,-1,1,3
1558441145954830,0,-1,-4,-1,-5,2,-3,-3
1558441145954830,0,2,2,0,7,6,-1,-3
1558441145962808,0,0,0,-1,0,-4,-2,3
1558441145962808,-1,-1,-3,-1,4,9,1,-3
1558441145969789,1,-1,-1,0,1,-1,-1,-1
1558441145969789,-1,-2,-2,-6,-6,-16,-3,0
1558441145985747,-2,-1,-1,-4,1,0,0,-3
1558441145985747,-1,-3,-2,-1,-6,-3,-6,-3
1558441145992729,0,0,1,0,2,-3,-1,-1
1558441145992729,-1,-1,0,0,0,5,0,-1
1558441145999717,-1,0,-1,-4,0,-3,-3,1
1558441145999717,0,1,-2,1,-1,-5,3,0
1558441146014669,-2,1,-2,-1,-1,-2,0,1
1558441146014669,-1,-2,-2,-1,-5,1,-3,-3
1558441146022648,-1,0,-2,-1,-6,-1,-3,-6
1558441146022648,0,-1,-1,1,1,2,-4,-2
1558441146029629,-1,0,-1,-1,4,4,2,1
1558441146029629,-1,-3,2,1,-2,-7,0,0
1558441146045587,0,-1,1,0,4,3,0,1
1558441146045587,1,2,3,1,3,4,4,0
1558441146052568,-2,-3,-2,-4,-6,-6,-4,-4
1558441146052568,-2,-1,-5,-3,-8,0,-6,-4
1558441146059549,-4,-1,-2,-2,-6,-3,-2,-1
1558441146059549,0,1,1,4,12,1,2,1
1558441146074510,1,0,2,2,2,-1,0,1
1558441146074510,1,-1,-2,-2,2,-7,1,2
1558441146083485,1,0,-2,-2,-2,2,1,-1
1558441146083485,-2,-3,-4,-5,-11,-6,-5,-4
1558441146089469,-3,-2,0,-2,-4,2,0,-1
1558441146089469,-1,-2,-1,0,-4,-6,-10,-4
1558441146105427,-1,0,1,2,5,6,6,4
1558441146105427,0,1,2,1,10,0,-4,3
1558441146137342,-1,-2,-5,-5,-4,0,0,-2
1558441146137342,1,-2,-4,-4,-4,0,0,-1
1558441146138339,-4,-2,-1,-1,-5,-1,-3,-3
1558441146138339,-2,1,0,-2,-1,1,-1,0
1558441146139336,1,0,0,-1,-1,-6,-1,-1
1558441146139336,0,0,0,5,6,3,-1,0
1558441146143325,1,-2,-2,-3,0,0,-1,0
1558441146143325,-2,-4,2,-3,-5,-4,-2,-1
1558441146157288,-2,-2,-2,2,0,-4,-3,-2
1558441146157288,-2,-1,-3,-4,0,4,-2,0
1558441146166265,1,-1,1,0,0,-9,-1,0
1558441146166265,-1,0,-2,-3,-1,0,0,-1
1558441146173246,-2,2,0,3,0,7,5,3
1558441146173246,0,1,-1,0,9,7,4,-1
1558441146188206,0,-1,1,-1,-2,-9,-5,-1
1558441146188206,-2,-2,-6,-2,-6,-4,-3,-2
1558441146195187,1,-1,1,0,2,-3,-5,-1
1558441146195187,-2,-2,1,-1,-4,-4,2,-1
1558441146203165,-3,-2,-3,-1,-2,6,0,-1
1558441146203165,0,-3,0,-1,-6,-1,1,-3
1558441146210146,0,1,0,-2,8,8,4,1
1558441146210146,-1,-1,0,-1,-2,-2,-2,0
1558441146257022,-2,1,-2,1,2,0,3,-2
1558441146257022,-2,-1,-1,-1,-4,-4,-5,0
1558441146259017,0,-1,-2,-1,-3,-3,-5,-3
1558441146259017,-3,-2,-3,1,2,2,1,1
1558441146259017,-1,0,-5,-2,-2,-3,-3,-2
1558441146259017,0,0,-2,-2,-12,-11,-4,-1
1558441146265002,-3,0,1,1,2,7,1,0
1558441146265002,-1,-2,-1,0,-1,2,1,1
1558441146265997,-2,-3,-1,-3,-1,-4,-1,-1
1558441146265997,0,-2,-1,-1,6,1,2,3
1558441146269987,1,-2,0,-1,-5,-1,-4,-2
1558441146269987,0,1,0,0,-2,-6,-1,0
1558441146302898,1,0,2,-1,6,6,3,-2
1558441146302898,-3,-2,-4,-4,-4,1,0,-3
1558441146303895,0,-2,0,-1,-3,-9,0,1
1558441146303895,-2,-1,-2,-1,-5,0,-2,-4
1558441146307885,-1,-2,0,1,-4,-5,-6,-2
1558441146307885,-1,0,0,1,5,4,4,1
1558441146314866,-5,-3,-10,-8,-9,-5,-8,-4
1558441146314866,-1,3,1,1,2,4,4,4
1558441146325108,0,0,-2,0,-4,-4,-3,0
1558441146325108,-2,-2,1,-1,1,4,-3,-5
1558441146344785,0,-2,-3,-1,-3,-9,-3,-1
1558441146344785,2,0,1,-2,4,-3,2,1
1558441146361741,2,0,1,3,14,8,4,2
1558441146361741,-2,-3,-5,-5,-7,-7,-4,-2
1558441146363735,-1,0,1,-2,-5,0,-3,-3
1558441146363735,-1,0,-2,-3,-8,-14,-7,-1
1558441146363735,2,1,1,3,8,17,7,1
1558441146363735,-2,-1,-2,-1,-2,-5,-3,0
1558441146374707,-1,-2,-1,1,-1,0,1,-1
1558441146374707,1,-1,0,-5,-2,3,1,-2
1558441146382684,-2,1,1,-2,-3,-6,-3,-1
1558441146382684,-1,0,0,1,-3,-3,-3,-2
1558441146422579,1,1,2,-1,3,-1,-2,0
1558441146422579,-3,-1,-5,-2,-4,-2,-2,-3
1558441146423576,-1,-2,-4,-3,-5,-6,-1,-1
1558441146423576,0,0,2,1,2,4,1,0
1558441146424573,0,-2,0,-1,3,0,-1,0
1558441146424573,1,-2,0,1,2,2,-1,-1
1558441146427564,-4,-4,-6,0,-4,-3,-4,-4
1558441146427564,-1,-1,-2,-3,-4,-9,-7,-2
1558441146434546,0,0,1,1,2,6,7,2
1558441146434546,-1,-1,-1,1,2,8,-2,0
1558441146450503,-3,-1,-3,-5,-8,-8,-2,-1
1558441146450503,0,0,-1,3,-2,1,1,0
1558441146467457,-2,-1,-3,1,10,1,2,-2
1558441146467457,-2,-4,0,-1,-1,0,-1,-4
1558441146468454,0,-2,2,-1,1,-1,-4,-1
1558441146468454,-2,-1,-2,-3,-8,-7,-2,-2
1558441146480423,-3,-2,-1,-3,-7,2,-2,-2
1558441146480423,-1,0,2,3,4,7,1,0
1558441146481420,0,-3,-5,-2,-3,-6,-2,-1
1558441146481420,2,2,-1,2,7,-3,2,1
1558441146494385,-2,-4,-3,-3,-5,-2,-3,-1
1558441146494385,1,-1,-1,-3,-4,-5,-4,-2
1558441146503361,0,0,1,1,-8,-4,-5,-3
1558441146503361,-1,0,0,2,5,9,3,-1
1558441146525303,1,0,-1,-2,-2,0,-2,-3
1558441146525303,-1,0,2,1,8,1,2,2
1558441146533282,-1,-2,-3,0,2,-4,0,0
1558441146533282,-2,-3,0,-6,-7,-4,-3,-2
1558441146540262,2,0,0,1,2,-2,0,2
1558441146540262,1,-1,-1,0,-3,3,0,-1
1558441146541260,-3,-1,0,-2,-5,-5,-4,-2
1558441146541260,-1,-4,-2,-1,-1,-5,-4,-2
1558441146555226,-2,-2,-2,-1,-1,-2,-4,-1
1558441146555226,0,0,2,2,-2,-1,3,3
1558441146578196,-1,0,-1,-3,7,-2,-1,0
1558441146578196,-1,1,-1,1,1,3,-1,0
1558441146580157,-2,-1,1,1,-9,-5,-4,-2
1558441146580157,-4,-3,-5,-4,-4,-3,-3,-4
1558441146585178,-3,-2,-2,-2,-6,1,4,0
1558441146585178,0,0,1,3,12,14,8,2
1558441146600129,1,1,1,1,4,-8,-2,2
1558441146600129,0,1,3,-2,-4,-3,-7,-3
1558441146601100,1,-1,-4,-2,-8,-1,-2,-1
1558441146601100,-1,-1,1,1,4,6,4,1
1558441146633015,0,-2,0,0,1,0,4,-1
1558441146633015,-1,-1,-2,-2,-6,-5,-2,-3
1558441146634013,-3,-4,0,-3,-5,-3,-5,-5
1558441146634013,0,2,-1,-1,-5,-9,-1,0
1558441146638999,0,2,1,2,10,14,6,3
1558441146638999,-1,0,-2,0,5,-2,-1,1
1558441146645982,2,1,0,-2,1,-3,-3,-1
1558441146645982,0,-3,-1,-1,-1,4,2,-1
1558441146660947,-4,-3,-3,-1,-7,-7,-4,-3
1558441146660947,-3,-1,-5,-2,0,4,-2,-3
1558441146660947,-2,-3,-1,-2,-5,-2,-5,-1
1558441146660947,-1,0,1,-1,1,0,-2,0
1558441146682883,2,3,-1,-1,13,7,5,2
1558441146682883,-2,-1,-2,-1,-4,-3,-1,-1
1558441146683881,0,1,0,0,0,3,2,0
1558441146683881,-3,-1,-1,0,-1,-2,-7,-4
1558441146697847,-2,-2,-1,-3,-6,-4,-3,-3
1558441146697847,-1,-3,-2,-1,0,3,1,-2
1558441146705821,0,1,-1,1,-1,-12,-6,-1
1558441146705821,-2,-3,-1,-4,-7,-3,2,1
1558441146720782,0,3,3,2,-2,-1,2,-1
1558441146720782,1,1,0,1,9,-1,-1,0
1558441146751770,3,-2,0,0,1,6,2,0
1558441146751770,-5,-3,-5,-5,-9,-3,-5,-3
1558441146752702,-4,-5,-5,-7,-13,-14,-5,-3
1558441146752702,0,0,4,0,-3,1,4,3
1558441146758688,1,1,2,3,15,8,4,2
1558441146758688,-1,0,-2,-3,-1,0,-1,-1
1558441146760676,0,-2,-1,1,5,4,2,-1
1558441146760676,-2,-3,-3,-4,-12,-9,-5,-3
1558441146765701,0,-1,1,-1,6,4,4,2
1558441146765701,1,-2,-2,0,-3,-2,-4,-3
1558441146780627,-2,-1,-3,-5,-11,-11,-6,-2
1558441146780627,0,0,-1,-2,1,0,-2,-2
1558441146796619,-2,-3,3,1,4,9,2,-1
1558441146796619,0,-3,-3,1,-5,-8,-3,-3
1558441146797583,1,-1,0,0,6,4,2,0
1558441146797583,-2,1,-1,-2,-4,-8,-2,-1
1558441146802664,-2,0,-2,1,-3,3,-1,-3
1558441146802664,-1,2,1,-3,2,3,3,-1
1558441146817627,-1,-3,0,-3,-6,-8,-3,-1
1558441146817627,-3,-1,-1,-1,-5,-1,-4,-3
1558441146825721,-1,-4,-2,-2,-7,-2,1,-4
1558441146825721,1,1,1,0,6,1,-1,3
1558441146857416,0,-1,2,1,4,2,1,0
1558441146857416,0,-1,-4,2,-2,3,-1,-1
1558441146858414,-2,1,-2,-2,-3,-1,3,0
1558441146858414,0,2,2,-1,2,-9,2,1
1558441146863399,-3,-4,-5,-1,-3,-4,-6,-2
1558441146863399,1,0,0,0,2,1,1,0
1558441146863399,0,1,-1,1,7,9,3,0
1558441146863399,-1,-3,-2,-1,-6,-3,-3,-3
1558441146877364,0,2,0,-1,8,3,2,-1
1558441146877364,-4,-1,-1,-4,-5,-1,0,-4
1558441146886337,-1,-4,-3,-4,-12,-13,-10,-5
1558441146886337,-1,1,0,0,2,-7,-3,2
1558441146910304,-1,-1,1,2,1,13,10,4
1558441146910304,-1,-1,1,0,6,8,3,0
1558441146911435,1,1,3,2,0,-10,-5,0
1558441146911435,-2,-4,-3,-4,-8,-11,-7,-4
1558441146915603,-1,-1,-3,-7,-10,-7,-6,-4
1558441146915603,-2,-5,-5,-2,-11,-11,-2,-1
1558441146922248,-2,1,2,3,10,8,6,1
1558441146922248,1,1,3,4,12,10,3,0
1558441146937556,-2,0,-2,-1,-6,-3,-5,-2
1558441146937556,-1,-2,-2,-2,-4,-5,-6,-3
1558441146970425,-2,-1,-1,-3,5,-1,-3,1
1558441146970425,-1,-1,-6,-5,-3,1,-1,0
1558441146971111,-2,-1,-1,1,-2,-1,-3,-1
1558441146971111,1,1,0,-2,-2,-4,-1,1
1558441146972108,0,-2,-1,-2,-4,0,-2,-2
1558441146972108,-4,-4,0,-2,-4,0,-2,-3
1558441146976397,1,0,1,2,0,3,1,1
1558441146976397,2,-2,3,2,9,9,6,3
1558441146982112,0,-2,-3,-3,-3,-2,-1,0
1558441146982112,1,2,4,4,6,7,5,3
1558441146997073,-1,-2,-2,-5,-9,-16,-10,-5
1558441146997073,-3,-2,-1,-2,0,0,-1,-2
1558441147005021,2,3,1,1,2,4,3,2
1558441147005021,0,-3,-3,-2,1,4,1,-3
1558441147020010,-1,-2,-1,-1,-2,-5,-4,-3
1558441147020010,-1,0,1,2,8,6,7,5
1558441147027958,-2,-1,0,-1,-5,-8,-4,-3
1558441147027958,-2,-2,-2,-5,-12,-4,-5,-1
1558441147034980,1,-1,-4,-2,0,-1,-1,-2
1558441147034980,0,-1,-1,0,1,-8,-6,-1
1558441147041921,-1,-1,-2,-3,-6,6,2,-3
1558441147041921,-2,-3,1,-1,2,5,0,0
1558441147056882,-4,-1,0,2,2,0,1,-1
1558441147056882,-1,-1,-2,-5,-6,-7,-5,-2
1558441147073974,-4,-3,-3,-3,-2,-8,-2,-1
1558441147073974,2,1,0,3,2,2,-1,-1
1558441147080249,0,1,0,1,8,7,3,3
1558441147080249,-2,-1,-3,1,-2,2,-3,-3
1558441147087800,-3,-2,-4,-4,-13,-8,-8,-5
1558441147087800,-1,0,0,0,0,2,6,1
1558441147102757,-2,-4,-2,-2,-4,-2,-2,-1
1558441147102757,0,0,2,1,4,3,5,1
1558441147103755,-1,-2,-3,-2,1,-1,-3,-3
1558441147103755,-1,0,-2,0,0,-3,0,-1
1558441147134025,-1,-1,-1,-2,-3,-2,-5,-4
1558441147134025,-2,-1,-2,-2,-3,1,0,-1
1558441147134674,-3,-1,0,-1,-3,-6,-1,1
1558441147134674,0,-1,-2,2,1,4,-1,1
1558441147139677,0,-1,2,-1,3,6,5,1
1558441147139677,-1,-1,-3,-5,-6,-13,-9,-1
1558441147148778,0,3,0,0,-5,-8,-1,0
1558441147148778,1,0,1,-1,5,0,2,3
1558441147163691,0,-2,-1,-1,0,3,1,-2
1558441147163691,-1,-3,-5,-2,-3,6,-1,-2
1558441147164623,0,0,0,0,4,1,4,1
1558441147164623,-4,-1,-2,-2,-6,-11,-7,-5
1558441147177675,-2,0,0,1,3,6,3,1
1558441147177675,-1,0,0,0,2,-5,-1,1
1558441147185898,-2,-2,-2,-1,-3,-3,-6,-2
1558441147185898,-2,-3,-5,-5,-14,-11,-11,-6
1558441147200664,-1,0,2,-2,1,3,1,-1
1558441147200664,-2,1,0,-1,2,11,4,-3
1558441147208721,-1,-2,0,0,0,0,1,1
1558441147208721,-1,0,0,-2,-1,-15,-3,-1
1558441147223438,0,-2,-3,-3,0,-5,-1,1
1558441147223438,0,-1,0,2,1,-2,-3,-1
1558441147223438,-2,-3,-3,-3,-9,-1,-2,-2
1558441147223438,-2,-2,2,-1,0,9,-1,-2
1558441147237457,1,2,-5,0,17,3,-1,0
1558441147237457,-1,-3,0,-1,-6,-8,1,-2
1558441147245387,0,-3,-2,0,4,6,1,0
1558441147245387,-1,-4,-3,-4,-8,-8,-2,-4
1558441147260339,-3,-3,0,1,-12,-11,-6,0
1558441147260339,0,0,3,1,6,6,5,2
1558441147268317,-1,-1,-1,-1,4,2,1,-1
1558441147268317,0,-1,0,1,8,8,4,1
1558441147291594,0,-1,2,-2,-6,-1,-1,-1
1558441147291594,-3,-1,-3,-5,-9,-8,-7,-3
1558441147292253,2,2,1,0,2,-9,-4,0
1558441147292253,-1,0,1,1,1,4,-4,-2
1558441147297577,0,1,-1,-1,1,-4,1,3
1558441147297577,-1,-1,-1,-1,-11,-2,-5,-4
1558441147305220,1,1,1,3,15,8,3,1
1558441147305220,-1,-1,-1,-2,0,4,1,-2
1558441147320512,-2,-2,-2,-4,-7,-8,-3,-2
1558441147320512,-1,-2,-2,1,2,-2,-4,0
1558441147336499,1,-2,-2,-2,-6,-12,-3,0
1558441147336499,-3,0,-2,-1,2,6,3,-1
1558441147351456,-2,-2,-2,-1,-5,-4,-1,-1
1558441147351456,0,-1,-4,-3,-3,0,-1,-1
1558441147359376,1,0,-2,1,2,7,0,-2
1558441147359376,1,1,0,-1,1,-1,1,2
1558441147360117,-2,0,0,2,-3,1,2,-1
1558441147360117,-2,-3,1,-1,-2,-5,-5,-1
1558441147366323,-4,-2,-4,-3,-7,0,-1,0
1558441147366323,-1,-2,-1,0,-3,-3,-1,-1
1558441147380262,0,-1,0,-1,5,5,3,1
1558441147380262,0,-1,0,-1,-3,-2,-1,-1
1558441147388037,-1,-4,-1,0,2,5,1,1
1558441147388037,-3,-3,0,-3,-6,-4,-4,-4
1558441147404085,1,-1,-2,-1,1,-1,-2,-1
1558441147404085,2,1,1,1,11,4,6,1
1558441147404085,-2,-1,-4,-4,-11,-8,-8,-7
1558441147404085,-1,-3,-6,-7,-13,-12,-7,-1
1558441147416961,2,2,3,0,3,4,3,1
1558441147416961,-1,-1,2,3,9,1,4,0
1558441147425941,-3,-3,0,-4,-1,0,-3,-1
1558441147425941,2,-1,0,1,6,2,-3,-1
1558441147439930,-2,-2,-4,-2,-6,0,-2,-2
1558441147439930,-1,-1,-1,-2,-8,-8,-4,-1
1558441147447879,-1,-1,1,-2,1,2,2,0
1558441147447879,-3,-2,-1,-3,-2,2,0,-2
1558441147462834,1,1,3,0,0,-10,-2,-1
1558441147462834,-1,-2,-2,-4,0,-1,-4,-1
1558441147463832,1,-1,0,1,1,1,0,1
1558441147463832,0,0,1,3,3,8,6,1
1558441147476797,-3,-2,-4,-3,-6,5,-1,-4
1558441147476797,0,0,1,1,13,5,4,0
1558441147485776,-1,-4,-3,-2,-12,-15,-6,-3
1558441147485776,-1,-2,-2,1,3,4,3,2
1558441147500197,-3,-1,0,-1,1,-2,-3,-4
1558441147500197,-1,-2,-6,-6,-14,-11,-7,-4
1558441147507715,-1,-1,1,3,8,14,7,1
1558441147507715,1,0,1,0,1,-6,0,4
1558441147522711,-1,-2,-1,-1,-2,-1,-4,-2
1558441147522711,1,2,3,-1,-3,-3,0,-1
1558441147523673,1,3,1,-1,4,4,5,-1
1558441147523673,-1,1,-1,-2,1,4,-2,-1
1558441147537638,-1,-2,-3,1,-2,-4,-2,0
1558441147537638,-2,-1,-2,-1,-6,3,0,-1
1558441147545971,-1,-2,-2,-3,-3,-7,-6,-1
1558441147545971,-1,1,0,0,8,1,0,0
1558441147559578,-1,-2,1,1,-1,4,1,0
1558441147559578,0,0,2,-2,-4,-1,-1,-1
1558441147568891,-2,-1,-2,0,0,0,-2,-2
1558441147568891,-2,-5,-3,-4,-12,-11,-8,-5
1558441147583718,0,0,0,-1,1,7,1,0
1558441147583718,0,-1,1,2,4,2,6,2
1558441147583718,-1,-1,0,1,2,-2,-3,-2
1558441147583718,-2,0,-1,0,-1,-5,-2,1
1558441147597815,-2,-1,-4,-4,-8,-4,-3,-3
1558441147597815,-2,-3,-1,-1,-5,-2,-5,-3
1558441147606453,-1,-1,-3,-1,4,2,-1,1
1558441147606453,0,-1,0,0,1,1,5,1
1558441147620626,-2,-2,0,-1,-2,-10,0,0
1558441147620626,-1,0,-2,1,9,14,5,1
1558441147628618,-2,-1,-1,-3,-8,-1,-3,-4
1558441147628618,-2,0,0,-1,0,-2,0,0
1558441147643389,2,0,-1,-3,-5,-2,-5,-1
1558441147643389,-2,-2,-3,-2,-5,-9,-8,-3
1558441147643389,0,-2,-2,1,1,4,3,1
1558441147643389,0,-2,-3,2,10,13,5,0
1558441147657319,-2,-1,-2,-2,-1,-6,1,-2
1558441147657319,-2,-3,-3,-4,-7,-4,-4,-1
1558441147666298,-3,1,-2,-2,-5,-7,-2,-1
1558441147666298,-3,-1,-4,-2,-7,-8,-5,-3
1558441147680254,1,0,1,1,4,1,-2,0
1558441147680254,-2,-1,-2,-4,-9,-9,-6,-3
1558441147688233,1,0,2,1,3,2,1,2
1558441147688233,2,1,2,3,7,1,-1,-1
1558441147703483,0,0,1,-2,-1,-1,-2,0
1558441147703483,1,-1,0,1,2,5,8,2
1558441147703483,0,0,2,1,-1,-5,-3,-1
1558441147703483,-1,-2,0,-3,-7,-3,-3,-2
1558441147717437,-1,-3,-4,-4,-6,-6,-6,-2
1558441147717437,-1,0,-1,1,8,12,5,4
1558441147726327,0,-1,1,0,1,3,2,0
1558441147726327,-1,-1,-1,-4,-4,-1,-1,-1
1558441147740385,-1,-2,-1,0,-3,-5,-5,-4
1558441147740385,-2,-2,-3,-2,-8,-6,-3,0
1558441147748347,-2,1,0,-2,8,9,3,0
1558441147748347,-1,-3,0,0,-3,-9,-3,-1
1558441147763302,-3,-3,-1,-2,-8,-5,-2,0
1558441147763302,0,0,-2,-1,-6,-7,-9,-3
1558441147764031,-1,-1,2,2,5,10,6,1
1558441147764031,-1,0,-4,-2,-3,-5,-3,0
1558441147776997,2,2,3,3,15,16,11,3
1558441147776997,1,-1,-2,-2,-1,-2,0,-2
1558441147786190,-4,-5,-5,-2,-12,-9,-8,-3
1558441147786190,-1,-4,-4,-5,-16,-10,-7,-4
1558441147800217,0,-1,0,-1,4,3,2,-1
1558441147800217,1,0,0,2,8,-3,-2,-1
1558441147808182,0,-2,0,0,-5,-1,1,-2
1558441147808182,0,2,2,2,13,7,7,2
1558441147822988,-3,-1,-1,-2,-5,-2,-7,-3
1558441147822988,-3,0,0,-1,-3,-1,-1,0
1558441147838830,0,0,-1,-3,-4,-8,-9,-3
1558441147838830,0,-4,-3,-3,-12,-5,-3,-2
1558441147839995,-2,2,0,2,11,7,6,2
1558441147839995,2,-2,-1,1,10,14,9,1
1558441147846104,-2,0,-4,-2,-4,-8,-4,0
1558441147846104,0,0,-1,-2,-6,0,-4,-3
1558441147859776,-2,-2,-4,-3,-9,-8,-7,-4
1558441147859776,0,-2,-1,-3,-6,-2,-1,0
1558441147868835,0,1,1,0,7,-5,5,4
1558441147868835,2,0,2,4,9,5,4,1
1558441147882712,0,-3,-1,-2,-5,-3,-3,0
1558441147882712,-1,-1,0,1,6,8,1,-1
1558441147890693,-3,-3,-3,-6,-8,-5,-7,-5
1558441147890693,-1,0,0,-1,-1,-6,-2,-1
1558441147897674,0,-2,-1,-2,0,-3,-1,0
1558441147897674,0,2,3,2,4,11,5,1
1558441147905652,-1,-4,-3,0,5,6,2,1
1558441147905652,-3,0,-4,-2,-2,-7,-2,0
1558441147920036,1,0,-2,2,2,-1,1,0
1558441147920036,-3,-3,-4,-1,-7,-10,-3,-3
1558441147928709,-2,-2,0,-4,-7,1,-2,-4
1558441147928709,-2,-1,-5,-2,-2,-1,-2,0
1558441147942862,-3,-2,-5,-3,3,2,4,0
1558441147942862,0,-1,-1,-2,-1,-1,0,-1
1558441147950858,0,2,0,0,3,-2,-2,2
1558441147950858,2,0,3,2,6,2,2,0
1558441147957813,-1,-1,-1,1,-6,2,1,1
1558441147957813,-1,-2,-2,-1,2,-2,-3,-2
1558441147965806,-2,-1,-2,-1,-5,-5,-2,-3
1558441147965806,0,-2,0,-1,-6,-1,-2,-2
1558441147980635,-3,-4,-2,-3,-4,-3,-4,-3
1558441147980635,-2,1,0,-2,0,-4,1,1
1558441147988429,0,-3,-3,1,-6,-2,-2,-3
1558441147988429,-1,0,-1,-2,-1,4,0,0
1558441148002705,1,-1,2,-1,5,-1,-3,1
1558441148002705,-3,-5,-2,-4,-9,-5,-6,-6
1558441148010372,-1,1,1,0,5,-4,1,1
1558441148010372,-2,-1,2,0,5,4,5,3
1558441148026644,-2,-2,-1,-2,-6,-2,-2,-4
1558441148026644,1,2,1,1,3,0,-1,-1
1558441148027329,-2,-5,-4,-3,-2,0,-3,-1
1558441148027329,-2,-3,-3,-2,-3,-2,-1,-2
1558441148040576,0,1,0,0,1,0,2,1
1558441148040576,-1,2,2,2,1,0,-1,1
1558441148048554,-1,0,-3,-5,-3,-7,-2,-2
1558441148048554,-2,-2,-4,-5,-8,-7,-5,-1
1558441148062490,-2,-3,-1,0,-2,-2,0,-3
1558441148062490,-2,-2,-4,-3,2,6,0,-1
1558441148070506,1,1,1,0,-1,3,1,0
1558441148070506,2,-1,2,1,2,-3,-1,-2
1558441148086168,1,-1,-3,-1,-4,-2,-3,-2
1558441148086168,-3,-3,-1,-2,-7,0,-3,0
1558441148087168,2,2,2,4,17,7,6,3
1558441148087168,-4,0,-3,-1,-1,-2,0,-2
1558441148100130,-2,-2,-2,-1,0,1,-2,-2
1558441148100130,1,0,-1,-2,-2,-6,-1,-2
1558441148108452,0,0,0,0,0,7,2,0
1558441148108452,-1,-3,-1,-2,-5,-3,-2,-1
1558441148122071,-1,0,0,-2,-5,-8,-3,1
1558441148122071,0,1,1,4,6,-1,-1,0
1558441148130952,-1,-1,-4,-3,0,10,5,0
1558441148130952,-2,-2,-1,-5,-5,-1,-3,-4
1558441148153856,-2,-1,-1,0,-1,-4,-2,-1
1558441148153856,1,-3,-1,-3,-3,-11,0,0
1558441148154462,-2,-1,2,0,-7,-2,-3,-4
1558441148154462,1,1,0,3,8,9,4,1
1558441148159448,1,2,0,0,0,-7,-3,2
1558441148159448,-1,-3,-3,-2,0,2,-2,-3
1558441148168423,-1,-2,-2,-5,-6,-6,-7,-5
1558441148168423,-2,-2,1,0,-5,-1,-1,-1
1558441148182420,0,0,1,1,5,6,2,0
1558441148182420,-1,-1,-1,-2,-3,-2,-1,-3
1558441148190400,-2,-2,-3,0,-7,-5,-3,-1
1558441148190400,-2,-1,-2,-1,-1,0,0,0
1558441148206322,1,0,0,-2,1,-1,-1,-1
1558441148206322,-1,-2,0,-1,-3,1,-1,2
1558441148207320,0,0,0,0,-2,2,1,-2
1558441148207320,1,-1,-2,-4,-3,-5,-4,-2
1558441148220285,-1,-1,-2,-1,1,4,2,-2
1558441148220285,-2,-2,-1,0,-4,-7,-5,-2
1558441148229261,-3,-2,-1,-2,-6,-5,-3,1
1558441148229261,4,2,0,2,10,5,2,2
1558441148242576,1,0,1,4,4,2,2,0
1558441148242576,0,0,0,0,5,1,1,1
1558441148251241,-1,-1,-3,-3,-3,-5,-2,-1
1558441148251241,-2,-1,-2,-3,-8,-2,-4,-2
1558441148265627,-2,-3,-3,-2,-2,2,0,-2
1558441148265627,-3,-1,-3,0,-1,2,-2,-1
1558441148274143,-1,-2,-1,-1,-1,0,-1,-3
1558441148274143,-1,0,2,2,0,-7,0,-1
1558441148280126,2,1,3,-3,1,1,0,1
1558441148280126,-2,-2,0,-1,1,0,-1,1
1558441148289101,-4,-2,-3,-2,-4,-4,-4,-2
1558441148289101,-3,-2,-2,-2,-1,-3,0,1
1558441148302067,-1,-2,-3,0,-5,0,1,-1
1558441148302067,0,1,0,0,2,5,3,1
1558441148319022,0,-1,0,4,5,4,1,3
1558441148319022,0,-2,-1,-2,-2,-7,-2,-2
1558441148325063,-3,-5,-6,-3,-12,-14,-9,-5
1558441148325063,-1,-1,-2,-1,-10,-8,-3,1
1558441148351933,-1,-1,-3,-2,5,5,-1,-2
1558441148351933,0,1,0,2,9,9,2,1
1558441148351933,-2,0,-1,1,-3,3,-2,-3
1558441148351933,-2,-3,0,-3,-4,-3,-1,-4
1558441148354926,2,3,4,1,1,-4,2,4
1558441148354926,-2,-1,-2,-2,1,0,2,-1
1558441148362959,-2,-1,-1,-3,-2,-7,-4,-2
1558441148362959,0,-2,-2,-2,-1,2,4,0
1558441148370887,1,0,-2,-1,-2,-1,0,0
1558441148370887,-3,-1,-1,2,6,8,0,-2
1558441148385329,-1,-2,0,0,4,-2,1,0
1558441148385329,-3,-2,-2,-4,-6,-4,-4,-5
1558441148393823,-1,0,-2,-1,-8,-2,-4,-4
1558441148393823,-1,-1,-1,0,0,-2,-1,2
1558441148400287,-2,0,1,-1,-2,2,-1,-2
1558441148400287,2,2,-1,2,8,-4,-1,0
1558441148408782,0,-2,-3,-2,-2,-2,2,-1
1558441148408782,0,-1,-2,-2,-3,-2,-2,-2
1558441148423091,0,0,0,-2,-5,0,2,0
1558441148423091,-2,-3,-1,-2,-5,-1,0,0
1558441148431721,-2,-2,0,1,8,6,5,2
1558441148431721,0,-1,-2,-1,-1,-4,-4,-1
1558441148454048,-2,-1,-2,1,0,3,1,1
1558441148454048,-1,-1,-3,-2,-3,4,-3,-4
1558441148454659,-1,-2,-3,-3,-8,-12,-7,-3
1558441148454659,-3,-2,0,-3,-1,-1,-2,-1
1558441148460051,1,-1,-2,-2,-7,-8,1,-1
1558441148460051,2,0,0,3,1,1,1,3
1558441148468794,1,3,2,3,16,9,3,1
1558441148468794,-2,-5,-4,-2,-9,-5,-7,-4
1558441148482962,-1,1,2,1,4,-5,-1,0
1558441148482962,-3,-3,-6,-6,-14,-16,-8,-4
1558441148491560,-2,0,-3,-2,-2,2,0,-2
1558441148491560,-2,-3,-1,-3,-2,5,-1,0
1558441148504525,1,1,1,0,4,3,-2,-2
1558441148504525,-1,-1,1,0,-2,-2,-3,-2
1558441148513500,-3,-4,-2,-1,-12,-6,-6,-4
1558441148513500,-1,-1,-2,-1,3,5,5,1
1558441148519485,0,-1,0,-2,1,-1,-2,-2
1558441148519485,0,2,2,4,7,5,5,4
1558441148528460,-1,-1,-3,-2,-1,-2,0,-2
1558441148528460,1,0,-2,-1,-6,-7,-1,-5
1558441148542425,-1,-2,-4,-1,-5,0,-2,0
1558441148542425,0,-1,-1,-3,0,-3,-5,-1
1558441148551404,-2,-1,3,-1,0,-5,-3,1
1558441148551404,2,0,4,4,5,7,5,3
1558441148565686,2,1,0,-1,11,4,1,0
1558441148565686,-2,-1,-3,-3,-7,-1,-1,-1
1558441148573343,0,-2,-3,-2,-4,-9,-6,-3
1558441148573343,0,1,1,0,-2,1,2,0
1558441148580808,-1,0,-1,-2,-5,5,-1,-1
1558441148580808,0,-3,-2,-1,0,1,0,2
1558441148588318,-1,-1,0,1,-4,0,0,-1
1558441148588318,-4,0,1,-3,-3,-10,-2,-2
1558441148602701,-2,-2,-1,-1,4,1,3,0
1558441148602701,-3,-3,1,1,2,0,-1,-1
1558441148611249,0,0,-1,0,6,7,1,2
1558441148611249,-1,-3,-2,-4,-5,-6,-5,-1
1558441148625213,-2,-1,-3,-1,-5,-4,-2,1
1558441148625213,-2,-2,-3,-2,-2,1,-1,-4
1558441148634184,-2,-2,-1,-2,-6,-5,0,-3
1558441148634184,1,1,1,1,6,3,1,3
1558441148640168,0,0,0,1,0,0,2,1
1558441148640168,1,0,-2,-2,7,4,3,-3
1558441148649142,-1,-1,0,-1,-2,0,-6,-3
1558441148649142,-3,-3,-5,-2,-11,-19,-9,-3
1558441148663137,-1,-2,1,0,-2,-7,-3,1
1558441148663137,2,1,2,3,12,8,8,5
1558441148671082,0,0,0,0,2,0,3,-1
1558441148671082,-2,-2,-3,-2,-7,1,-2,-4
1558441148685293,-2,-5,-3,-5,-11,-10,-7,-2
1558441148685293,0,2,0,3,4,7,1,0
1558441148694025,0,0,-3,-1,-5,-8,-6,0
1558441148694025,1,0,-2,-2,3,2,2,1
1558441148700006,-3,-2,-2,-4,-3,0,-2,-5
1558441148700006,-2,-1,-2,-5,-9,-6,-2,-3
1558441148708980,1,2,2,2,3,6,3,2
1558441148708980,-1,0,1,0,6,1,-1,0
1558441148721945,-2,-3,-3,-1,5,8,1,-3
1558441148721945,-1,0,-3,-2,-8,-13,-6,-2
1558441148730918,-2,-5,-5,-6,-10,-6,-3,-3
1558441148730918,-1,-2,-3,-3,-5,2,-3,-4
1558441148745188,0,1,4,4,5,1,6,3
1558441148745188,0,2,0,0,7,3,4,3
1558441148753859,-3,-3,-4,-3,-4,-2,1,-1
1558441148753859,-2,0,3,1,5,4,-2,-1
1558441148760158,-1,-3,-2,-2,-5,-4,-6,-3
1558441148760158,0,-2,0,-1,-6,-8,-6,-1
1558441148768823,0,-2,-1,1,4,4,2,-1
1558441148768823,-1,-3,0,-1,-2,3,1,-1
1558441148783024,0,-2,-2,-3,1,5,3,-2
1558441148783024,-3,-2,-1,-1,1,3,2,-1
1558441148791068,-2,2,1,2,7,1,0,1
1558441148791068,-1,-1,-3,-2,-10,-13,-6,-3
1558441148804724,0,0,-2,2,3,2,4,2
1558441148804724,-2,-1,-3,-2,-3,2,-1,-1
1558441148820715,-1,-3,-1,-1,3,5,2,-3
1558441148820715,0,2,1,-2,-1,1,0,1
1558441148820715,-2,-3,-4,-4,-12,-12,-9,-5
1558441148820715,-5,-5,-6,-5,-14,-6,-5,-6
1558441148828662,2,3,5,3,17,12,15,9
1558441148828662,-3,-1,-1,-2,-4,-5,-4,0
1558441148851839,-2,-1,-1,1,-1,-5,-2,1
1558441148851839,0,-2,0,-1,-1,0,-6,-5
1558441148852600,-1,0,-3,-2,-8,-5,-6,-5
1558441148852600,0,0,-2,2,7,3,5,0
1558441148865596,-1,2,1,0,2,0,2,3
1558441148865596,-1,-2,-1,-1,0,-8,-1,1
1558441148873668,-1,-2,-2,-3,-2,-3,-4,-3
1558441148873668,0,-2,0,3,2,6,3,1
1558441148880574,1,2,0,0,8,7,3,1
1558441148880574,0,1,1,0,3,7,3,0
1558441148888499,-1,-4,-2,0,-5,-5,-4,-2
1558441148888499,-3,-4,-2,-5,-2,3,0,-3
1558441148902462,0,-2,-1,-2,-5,-7,-5,-1
1558441148902462,-1,-2,-3,-2,-3,-6,-3,-2
1558441148911439,-2,-2,-1,-2,-10,-7,-5,-1
1558441148911439,0,2,0,-1,1,3,1,3
1558441148924403,0,-2,0,6,15,10,4,3
1558441148924403,-2,0,-2,-2,-1,-9,-7,-3
1558441148933378,-3,-1,-2,-3,-6,3,0,-4
1558441148933378,-1,-2,-2,-3,-5,-6,-4,-5
1558441148939363,-2,1,0,1,-2,-11,0,1
1558441148939363,-2,-2,-1,-1,4,10,4,2
1558441148949336,-1,0,-1,-3,-1,-5,-3,-1
1558441148949336,1,-1,1,4,-2,-6,-6,0
1558441148962531,0,-2,0,-4,-2,7,-1,-3
1558441148962531,0,0,1,-2,-2,-8,2,0
1558441148971280,-1,-3,-3,-3,1,1,-2,1
1558441148971280,-3,-1,-3,-1,1,6,2,-1
1558441148985528,-1,0,-3,-3,-6,-7,-8,-4
1558441148985528,0,0,2,-1,-4,-4,1,-1
1558441148993248,-1,-4,1,-2,-5,-6,-1,0
1558441148993248,0,0,0,-1,2,-1,-3,-2
1558441149009264,0,-4,-3,-3,-1,-1,0,-1
1558441149009264,-1,-1,-1,0,-2,0,-1,0
1558441149010176,-2,1,-2,0,-3,-4,-2,-2
1558441149010176,-2,-2,-3,-1,-2,-3,-2,0
1558441149022143,0,1,-1,1,2,5,2,-1
1558441149022143,-1,-2,1,2,6,5,0,-1
1558441149031298,1,-2,-5,-7,-5,-8,-6,-1
1558441149031298,-3,-4,1,-4,-5,-6,2,1
1558441149045321,-3,-2,-2,-2,-11,-4,-4,-3
1558441149045321,1,2,-1,2,10,14,6,2
1558441149054058,0,2,1,4,8,4,3,0
1558441149054058,-1,1,0,-1,-4,-3,-2,-2
1558441149069292,-3,-2,-3,-4,-5,-4,-4,-1
1558441149069292,-3,-4,-2,-3,-9,-7,-7,-4
1558441149070016,1,-1,-2,0,-3,-3,-1,0
1558441149070016,2,-1,0,0,4,4,1,1
1558441149081982,-1,-3,0,1,0,3,0,-2
1558441149081982,-1,-2,-1,-1,-3,1,0,-1
1558441149091237,-1,-1,-1,0,4,2,2,0
1558441149091237,-2,-1,-4,-3,-8,-5,-5,-1
1558441149104919,1,1,1,-1,6,6,3,0
1558441149104919,-2,-4,-2,-1,-2,-2,-3,-1
1558441149113900,-1,-1,0,-1,1,-4,1,1
1558441149113900,-1,0,-2,-2,-2,-11,-1,-1
1558441149128886,-5,0,0,0,-1,8,-1,-2
1558441149128886,0,0,-1,1,-2,-6,-5,-2
1558441149129852,-2,-2,1,-3,1,1,-1,-1
1558441149129852,0,-1,-3,0,-3,2,2,0
1558441149143090,0,-3,-1,-1,-2,1,-1,-1
1558441149143090,0,-1,0,-2,-2,5,1,1
1558441149151074,-1,-1,0,1,1,-4,2,-1
1558441149151074,0,3,-2,1,3,4,0,-2
1558441149165036,-1,-2,-3,-3,-8,-10,-8,-4
1558441149165036,-2,0,-1,-1,3,5,3,1
1558441149173789,-1,0,-3,1,-1,1,-2,0
1558441149173789,0,0,2,-3,-2,-7,-3,-2
1558441149188696,-2,0,0,-3,-3,0,1,2
1558441149188696,-1,-2,-1,-2,-1,-11,-5,2
1558441149189693,-1,0,1,3,1,-1,-2,-2
1558441149189693,-3,-2,-4,-6,-5,-1,-2,-2
1558441149202927,1,1,0,0,6,11,6,0
1558441149202927,-1,-2,-4,-3,-8,-9,-4,-3
1558441149211647,1,0,2,0,7,5,6,2
1558441149211647,-1,0,0,-1,0,-4,-4,0
1558441149225629,-2,-3,-1,0,-2,-1,-1,-1
1558441149225629,-4,-1,-1,-1,-5,-5,-1,-5
1558441149233815,-1,-2,-3,-2,-9,-7,-7,-2
1558441149233815,0,1,2,3,8,9,5,0
1558441149248806,0,0,0,1,5,5,5,-1
1558441149248806,-1,0,-2,-3,1,4,-1,-2
1558441149250575,0,0,-1,-1,-8,-1,-4,-2
1558441149250575,2,-1,2,3,5,2,3,1
1558441149262776,0,-1,-1,-4,-5,-13,-5,-1
1558441149262776,-1,2,1,-1,-3,0,0,0
1558441149271475,-2,-2,-5,-6,-3,-1,-1,-4
1558441149271475,-1,-1,0,2,0,4,0,-3
1558441149285458,-1,-1,2,-1,-4,-3,-1,-1
1558441149285458,-1,-3,-2,1,-1,-7,-1,-1
1558441149293427,1,1,2,2,6,5,2,2
1558441149293427,-4,-2,-3,-4,-2,3,0,-1
1558441149308376,-1,-2,-4,-3,-3,-7,-5,0
1558441149308376,0,0,0,0,-1,7,2,0
1558441149310371,0,0,0,1,4,5,4,1
1558441149310371,-1,-2,0,-4,1,-3,1,0
1558441149322340,-3,0,0,1,-4,-6,-2,-3
1558441149322340,-1,-2,0,-3,-5,-8,-4,-1
1558441149333338,-4,-1,-1,-1,-3,1,-2,-2
1558441149333338,1,-1,-2,2,2,5,-1,-1
1558441149353598,-1,-3,-2,-3,1,-2,4,3
1558441149353598,0,-1,0,0,1,0,-3,-1
1558441149355250,1,0,1,-1,-1,-5,-3,-1
1558441149355250,-4,-2,-1,1,-2,-3,-2,-1
1558441149369540,-2,-1,1,0,-3,-1,-3,-2
1558441149369540,4,0,0,-1,11,3,2,4
1558441149370210,-3,-2,-2,-1,-1,-2,-2,-2
1558441149370210,-2,-4,-2,-1,-7,-6,-5,-2
1558441149383187,-1,0,-2,-1,1,6,-3,0
1558441149383187,-4,-1,0,-1,-6,-5,-4,-3
1558441149391410,-2,-2,-1,0,1,2,-2,-1
1558441149391410,-1,1,0,0,-1,-3,3,3
1558441149405117,-1,0,0,-1,0,-6,1,0
1558441149405117,0,-1,2,0,0,-2,-1,-3
1558441149414093,-2,-3,-5,-4,-6,-6,-2,-1
1558441149414093,-2,-2,-1,-3,-5,-4,-2,-2
1558441149428437,0,-2,-1,2,1,3,1,0
1558441149428437,0,0,-1,0,2,2,-2,-3
1558441149436383,-2,0,3,0,-1,5,-1,-1
1558441149436383,-2,-2,-3,0,0,1,-1,0
1558441149443177,-1,1,0,0,0,-5,-1,0
1558441149443177,-3,-1,-2,-3,-1,-5,0,0
1558441149451991,-3,0,1,2,3,0,0,1
1558441149451991,-3,-3,-4,-9,-7,-5,-3,-4
1558441149465277,0,-1,-2,-2,1,1,0,-3
1558441149465277,0,-2,-2,-1,-2,3,0,-3
1558441149480242,-1,-3,-2,-2,-7,-3,-3,-2
1558441149480242,-1,1,2,1,8,3,1,1
1558441149488901,-1,-2,0,0,1,-1,0,-1
1558441149488901,-1,-1,-1,0,4,-1,0,3
1558441149490089,-3,-1,-2,0,-5,-2,-4,-3
1558441149490089,-1,-2,0,-2,-4,-6,-6,-2
1558441149503122,-1,-1,-3,-2,-3,-4,-4,-2
1558441149503122,-2,-2,-5,0,-3,1,-1,-3
1558441149511162,-2,-1,-2,-3,-2,3,1,-3
1558441149511162,-1,-5,-1,-3,-3,-1,-1,-1
1558441149524798,-2,-2,0,-1,-6,-5,-2,-3
1558441149524798,2,0,3,3,7,4,-3,1
1558441149533772,1,-2,-2,-1,2,3,3,1
1558441149533772,-1,0,-1,-2,-4,-7,-8,-4
1558441149548733,1,-1,1,2,4,3,2,-1
1558441149548733,-3,-1,-4,-4,-7,-3,-1,-2
1558441149549729,-1,-3,-1,-4,-3,-4,-4,-3
1558441149549729,2,1,3,4,6,7,2,-1
1558441149562694,-2,-4,-6,-7,-9,0,-2,-2
1558441149562694,-1,-2,-2,1,4,5,5,-2
1558441149571674,2,0,-2,0,-3,-17,-3,1
1558441149571674,-2,-1,-1,0,0,-4,-1,0
1558441149584635,1,0,-3,-2,-5,-1,-6,-1
1558441149584635,-1,-1,0,1,1,8,2,-3
1558441149593611,-2,-2,0,0,-1,5,2,-1
1558441149593611,0,0,0,-2,3,-11,-3,0
1558441149609016,1,1,-2,2,11,8,3,2
1558441149609016,-1,-1,-2,-2,-4,-7,-8,-3
1558441149609570,-3,-3,-3,-3,-6,1,1,0
1558441149609570,1,1,-2,-3,-3,6,5,1
1558441149622533,-2,-1,1,1,-2,-7,-5,-1
1558441149622533,1,1,1,-2,1,0,1,1
1558441149631544,1,0,1,-1,3,0,-3,0
1558441149631544,-2,-2,-1,-2,-3,1,-2,-1
1558441149644664,-3,-1,-4,-3,-7,-2,-3,-3
1558441149644664,0,-2,-4,0,-1,-5,0,0
1558441149653452,2,0,1,0,7,0,1,2
1558441149653452,-1,-1,-1,1,0,3,1,1
1558441149669550,-2,-1,1,-4,-7,-1,0,-3
1558441149669550,-2,0,2,0,-3,-3,0,0
1558441149670783,-3,0,-4,-1,-1,5,0,-3
1558441149670783,-1,0,-2,3,4,-3,0,1
1558441149682773,-2,-2,0,-2,5,-2,2,1
1558441149682773,-2,-3,-3,-4,-8,-10,-9,-3
1558441149691354,-3,-5,-5,-4,-17,-13,-5,-3
1558441149691354,1,-1,-2,0,7,14,1,0
1558441149704319,0,-1,-1,-1,0,0,0,-2
1558441149704319,-1,2,3,3,6,5,4,1
1558441149713590,0,1,-3,-3,0,-2,0,-2
1558441149713590,-2,-3,-6,-7,-18,-17,-7,-4
1558441149728254,1,1,1,0,-2,-6,-2,0
1558441149728254,-2,-1,0,-3,-1,-2,-1,1
1558441149735232,-1,-2,1,1,4,8,2,-2
1558441149735232,-1,0,3,1,1,2,3,-1
1558441149742216,-3,1,-1,1,-2,1,-1,0
1558441149742216,-3,-1,-2,-5,-11,-11,-8,-2
1558441149751191,-1,-1,-1,-1,-2,-7,-4,0
1558441149751191,3,2,3,1,2,5,0,-2
1558441149765188,1,-2,-2,0,4,-1,4,2
1558441149765188,-1,-2,-1,1,2,4,2,2
1558441149773166,-2,-1,-1,-1,-1,-1,1,-2
1558441149773166,-3,-3,-2,-2,-6,-2,-5,-1
1558441149788092,0,-2,0,-3,-4,-3,-3,-3
1558441149788092,-1,-1,-2,2,-4,6,1,-1
1558441149795528,1,0,2,-1,6,2,-1,1
1558441149795528,-3,-1,-2,-1,-4,-6,-2,-3
1558441149803174,1,1,-1,1,3,1,6,3
1558441149803174,-2,-1,2,1,0,0,-2,-2
1558441149812065,0,-1,0,-1,0,5,-1,-1
1558441149812065,1,-1,1,0,1,0,1,-2
1558441149826153,-2,-4,-5,-5,-14,-4,-7,-3
1558441149826153,2,-1,-1,-1,4,-4,-1,0
1558441149833970,-1,1,1,2,5,6,3,-1
1558441149833970,-3,0,-5,1,0,1,0,2
1558441149848304,-1,2,2,-2,3,0,2,1
1558441149848304,-2,-4,-6,-7,-13,-7,-5,-4
1558441149854913,-1,1,1,1,-4,-1,-1,-1
1558441149854913,-2,-3,-4,0,1,-4,-2,0
1558441149863141,-2,0,0,1,7,8,4,0
1558441149863141,-2,-2,-1,0,1,3,3,-1
1558441149870871,-2,-3,-3,-2,-4,-3,-2,1
1558441149870871,-2,-2,-1,-2,-8,-8,-5,-2
1558441149885119,-1,-2,0,-2,2,4,-2,-2
1558441149885119,0,0,-1,1,7,6,3,2
1558441149893812,-1,-1,0,0,0,-9,0,1
1558441149893812,-1,1,3,-1,3,8,7,2
1558441149908022,-2,-2,-1,-1,-3,-7,-8,-2
1558441149908022,-2,-2,-4,-6,-10,-10,-6,-5
1558441149915006,-2,0,-2,-1,3,3,2,0
1558441149915006,-3,-1,-1,-3,-1,-4,-1,0
1558441149938719,1,0,-1,2,3,-2,0,1
1558441149938719,-2,-3,0,-3,-8,-1,-2,0
1558441149939688,2,-1,0,0,2,-6,-2,-1
1558441149939688,2,0,0,0,-1,-3,-2,-3
1558441149944702,-1,-2,0,3,2,2,2,0
1558441149944702,1,1,-1,0,0,-1,-2,-1
1558441149953648,-2,-4,2,-1,-6,0,-6,-1
1558441149953648,-1,-2,-2,1,1,1,0,-2
1558441149968774,0,1,-1,-3,-1,-8,-4,0
1558441149968774,1,0,0,-1,2,3,2,-2
1558441149975790,-2,0,-3,-2,-3,3,0,-2
1558441149975790,-1,-2,-2,-2,-3,-3,-3,-3
1558441149992032,-2,-2,-3,-3,-10,-5,-6,-4
1558441149992032,2,0,1,4,12,5,5,5
1558441149992549,-1,-1,-4,-2,-5,-10,0,-1
1558441149992549,-2,-2,-3,-1,1,5,-2,0
1558441150004514,-3,-2,0,0,3,7,-1,-2
1558441150004514,0,0,4,4,8,0,2,1
1558441150013831,-2,-2,-1,-3,-1,0,-1,-2
1558441150013831,0,0,-3,-5,-8,-7,-5,-3
1558441150028485,-2,-1,-1,0,1,5,-1,-2
1558441150028485,0,3,-1,0,-7,-6,1,0
1558441150035690,0,-1,0,3,9,4,2,0
1558441150035690,-1,-2,1,-1,-2,-1,-1,-1
1558441150051747,0,-3,-3,-7,-9,-12,-9,-3
1558441150051747,-2,-4,-5,-2,-3,3,-4,-3
1558441150053382,1,1,1,1,2,5,2,-1
1558441150053382,-2,-1,-2,1,0,3,0,-3
1558441150064354,-2,1,1,-1,-3,-4,4,-1
1558441150064354,-1,-2,-3,-4,-5,-3,-2,0
1558441150073363,-1,-4,2,2,4,-1,-6,0
1558441150073363,0,1,2,2,10,4,4,2
1558441150088287,0,0,-4,-1,2,2,3,0
1558441150088287,-2,0,-2,0,3,1,-1,-2
1558441150102251,-1,-1,-2,-3,-9,-4,-6,-3
1558441150102251,-1,-2,-1,-2,-4,3,0,-2
1558441150111228,-1,-1,-1,-1,-3,-8,-1,-1
1558441150111228,0,-1,-1,-3,3,-2,-1,-2
1558441150112251,-3,-1,-2,-1,-3,1,-1,-2
1558441150112251,1,2,2,0,2,-4,-4,2
1558441150125598,0,-2,-3,1,-1,-2,-4,-2
1558441150125598,-1,-1,0,1,4,9,2,1
1558441150134224,-1,0,-1,-4,-2,-10,-3,0
1558441150134224,-1,-3,-3,-2,-5,2,2,-1
1558441150148130,-3,-3,-1,-1,-5,-4,-4,-2
1558441150148130,-2,-1,1,1,0,0,-1,0
1558441150155110,1,1,-1,-1,1,0,3,0
1558441150155110,0,-4,-3,0,1,2,0,0
1558441150171066,2,0,1,2,8,4,3,0
1558441150171066,-1,-1,-1,-3,-7,-15,-9,-2
1558441150173061,-2,-1,-2,-1,-5,0,-4,-2
1558441150173061,0,1,1,-2,-1,1,1,1
1558441150185263,-3,-2,0,-3,-2,-3,-3,0
1558441150185263,0,-4,-1,-2,-10,-1,-3,-3
1558441150199990,-1,1,-1,-2,2,0,1,1
1558441150199990,1,1,1,0,3,-3,-3,-3
1558441150207969,-1,0,-1,0,-2,8,3,-1
1558441150207969,-2,1,-3,-3,-3,-6,-1,-1
1558441150214960,-1,-5,-4,-4,-8,-7,-5,-2
1558441150214960,-2,-3,-2,-1,1,2,1,-2
1558441150231126,-1,1,3,2,3,6,3,0
1558441150231126,-1,-3,-3,-3,0,-1,0,-2
1558441150232902,-3,-4,-2,0,-3,-6,-4,-3
1558441150232902,-3,-2,0,1,-3,-1,0,2
1558441150245077,0,-3,-3,-3,-4,-9,-9,-5
1558441150245077,0,1,0,-1,-1,5,0,-1
1558441150253851,0,-1,-2,0,4,8,4,0
1558441150253851,-3,-3,-3,-2,-6,-9,-7,-3
1558441150267811,0,-1,-1,-1,-6,-8,0,-1
1558441150267811,-1,-2,-2,-1,4,4,1,0
1558441150274791,0,0,1,1,3,1,0,1
1558441150274791,-2,0,-1,-1,3,10,6,-1
1558441150290749,-2,-1,-1,-2,-1,-2,-1,-1
1558441150290749,0,1,1,-1,-4,-4,0,-3
1558441150292779,1,2,-1,-3,1,0,2,3
1558441150292779,0,0,-2,-3,1,-3,-3,0
1558441150304714,0,-1,-2,-2,2,4,5,2
1558441150304714,-1,-1,-1,1,5,2,-2,-2
1558441150313686,-2,-2,-1,-3,-7,-2,0,-4
1558441150313686,0,0,4,-1,-1,-4,-3,1
1558441150327650,-1,-3,-1,-1,-4,-3,-2,-1
1558441150327650,-2,-2,0,-1,1,4,0,2
1558441150343619,-1,-2,-1,-2,5,2,-2,-2
1558441150343619,-2,-3,-4,-1,-8,-9,-7,-3
1558441150351585,0,0,0,3,2,4,2,3
1558441150351585,1,-2,-1,-2,-2,-2,0,-1
1558441150352586,1,-1,3,1,-1,-4,-2,-1
1558441150352586,-1,-1,-2,-1,-1,6,1,0
1558441150364586,-1,-3,-3,-2,6,6,1,0
1558441150364586,-2,0,-2,0,-4,-10,-3,0
1558441150373526,1,-1,-4,-1,-5,-5,-3,-2
1558441150373526,0,0,1,-3,-2,-6,-4,-1
1558441150387524,-3,-2,0,-2,-13,-6,-4,-3
1558441150387524,3,0,3,1,6,0,-2,3
1558441150396465,-4,-1,-3,-4,3,8,0,-1
1558441150396465,0,-2,-1,1,3,2,1,0
1558441150411424,0,-1,0,-2,1,-2,0,-2
1558441150411424,-4,-1,-2,-3,-10,-5,-5,-5
1558441150412422,0,0,2,1,-3,0,1,0
1558441150412422,0,-1,-2,-2,-2,-11,-2,-2
1558441150424390,0,1,1,1,0,-2,-1,0
1558441150424390,-3,-1,-3,-3,-7,0,-3,-3
1558441150433408,0,0,0,0,2,3,-1,-1
1558441150433408,-2,0,-2,0,-1,-1,-1,-1
1558441150456304,2,0,0,1,6,8,6,2
1558441150456304,0,-1,-2,-1,1,-1,0,0
1558441150457301,-2,-2,-2,-2,-3,-3,-1,-3
1558441150457301,0,-1,1,3,3,6,3,2
1558441150471266,-3,-3,-2,-5,-10,-12,-10,-5
1558441150471266,-1,-3,0,-1,-5,-1,-1,-3
1558441150472262,0,1,-2,0,3,-3,-2,0
1558441150472262,0,0,0,-1,1,-2,1,1
1558441150484229,-2,0,1,1,4,8,5,0
1558441150484229,0,0,0,1,8,4,2,1
1558441150501185,-3,-3,-1,-3,-10,-8,-7,-3
1558441150501185,-1,-1,1,-3,-3,-5,0,-1
1558441150507185,-1,0,-2,-1,-1,-4,-3,0
1558441150507185,-3,-1,0,-1,-4,-2,0,-4
1558441150516145,0,0,-1,-3,-3,-2,2,-2
1558441150516145,0,0,1,-3,7,3,-1,1
1558441150531105,0,-2,-3,-2,-2,-9,-7,0
1558441150531105,1,-2,-2,-1,-2,-1,-2,-3
1558441150533098,-1,0,-3,-1,1,4,3,2
1558441150533098,-2,-2,2,0,-1,4,-1,-3
1558441150545242,-1,0,1,-3,-2,2,-1,-1
1558441150545242,-1,-3,0,0,2,-3,1,0
1558441150554044,-2,-4,-4,-3,-9,-6,0,-3
1558441150554044,-1,-1,-4,0,5,4,2,-1
1558441150567010,-3,-2,-1,-2,-5,5,-2,0
1558441150567010,-3,0,-1,-1,5,2,0,1
1558441150576035,1,0,3,2,0,-7,-5,0
1558441150576035,-2,-2,-3,-4,-1,1,1,0
1558441150590946,-1,-2,-4,-1,-2,-12,-7,-2
1558441150590946,-1,-3,-1,-1,-4,0,-1,-1
1558441150592968,-1,-1,0,0,0,1,0,0
1558441150592968,-1,0,0,-1,-6,-4,-3,-3
1558441150604912,0,0,-3,-2,-5,-4,-2,-2
1558441150604912,-2,-1,-1,0,1,-2,-1,1
1558441150613919,-1,0,-2,-1,6,4,1,2
1558441150613919,0,-3,2,0,-5,-5,-4,-3
1558441150626859,1,-1,-3,0,1,5,5,0
1558441150626859,-1,-2,-2,-3,-6,-8,-6,-4
1558441150635857,2,-2,-3,-2,-1,0,-1,-3
1558441150635857,2,1,-2,1,3,5,1,1
1558441150650824,0,2,2,-2,0,-3,2,-1
1558441150650824,1,1,1,-1,4,7,3,1
1558441150656768,-3,-3,-2,0,1,-3,-2,0
1558441150656768,-4,-1,-2,-2,-13,-9,-4,-1
1558441150664747,-2,-3,1,-1,4,4,-1,-3
1558441150664747,-1,-2,-6,-3,-4,-10,-3,-3
1558441150673725,1,0,4,2,6,8,7,4
1558441150673725,1,3,2,2,8,6,5,3
1558441150687685,-2,1,-1,-1,1,0,0,1
1558441150687685,0,1,0,1,1,6,4,0
1558441150695664,-2,-4,-3,-3,-4,-6,-7,-5
1558441150695664,-1,-3,0,-1,-5,-9,-7,-3
1558441150710639,-1,-1,1,1,-4,-3,-3,-2
1558441150710639,-1,-1,-2,-3,-3,0,-3,0
1558441150717848,0,0,-1,1,3,5,3,2
1558441150717848,-1,-2,-2,-3,-1,3,0,-3
1558441150724587,-1,-1,-1,1,2,-1,-1,-2
1558441150724587,-2,-1,-3,-4,-3,-7,-4,-1
1558441150733564,-3,-1,1,-3,-7,-6,-5,-3
1558441150733564,-1,-2,-3,-2,-5,-8,-7,-4
1558441150747524,-1,-5,-3,-3,-6,-4,1,-1
1558441150747524,-1,0,4,3,6,6,6,2
1558441150756502,3,3,4,9,18,16,6,3
1558441150756502,-2,1,-1,-1,2,0,-1,-1
1558441150770499,-2,0,-7,-5,0,0,-2,-1
1558441150770499,-1,-3,-1,-2,-9,-9,-5,-4
1558441150777604,-4,-4,-4,-3,-9,-7,-3,-4
1558441150777604,0,0,-1,-3,-6,0,-6,-2
1558441150784428,-1,-1,1,0,2,-3,2,1
1558441150784428,2,0,1,3,7,8,7,3
1558441150793405,-2,0,1,0,0,-5,-4,-1
1558441150793405,0,0,-2,-3,1,-2,2,-2
1558441150807528,0,-2,1,-1,-5,-6,-4,-3
1558441150807528,-1,0,-2,0,1,6,2,0
1558441150823618,-1,0,-1,-3,0,-9,-3,-1
1558441150823618,0,1,-1,-1,-1,2,2,1
1558441150830322,1,-1,-3,0,-3,-3,-3,-1
1558441150830322,0,-1,1,-1,1,0,-1,0
1558441150837287,1,-1,-1,0,5,6,2,-1
1558441150837287,-2,-2,-2,2,3,2,1,0
1558441150853282,-1,-1,3,1,-2,1,-1,-1
1558441150853282,0,-1,-2,-2,-3,-7,-5,-1
1558441150855238,-3,-3,-4,-6,-9,2,1,-2
1558441150855238,0,-2,-1,0,4,-2,0,2
1558441150867206,-1,0,0,-1,2,0,0,1
1558441150867206,-1,2,0,-1,0,-5,0,-1
1558441150876181,-1,1,-1,0,-5,-6,-3,-1
1558441150876181,-5,-3,-1,-2,-6,-3,-7,-3
1558441150890256,-4,-2,-3,-4,-4,-3,-6,-2
1558441150890256,-1,-1,-2,-2,-1,-2,-1,0
1558441150897128,-1,-1,-3,-2,0,-1,-2,0
1558441150897128,1,-1,-1,0,2,6,6,0
1558441150914088,-2,-3,1,1,3,4,3,-2
1558441150914088,-1,-1,-2,0,-3,0,-2,-4
1558441150915077,-1,-1,-3,-3,-8,-19,-6,-1
1558441150915077,-2,-1,-2,-3,-3,-4,-5,-4
1558441150927152,0,0,2,0,5,3,4,1
1558441150927152,-1,-1,0,-2,7,4,1,0
1558441150936021,-1,-1,-2,-3,-3,3,-1,-3
1558441150936021,0,1,-2,1,1,3,0,1
1558441150958964,-2,-2,-3,-4,-6,-5,-3,-1
1558441150958964,-1,-2,0,-2,-5,-5,-5,-2
1558441150959961,-1,-2,-2,0,-4,-8,-4,-1
1558441150959961,1,1,4,-2,2,0,5,3
1558441150973958,0,-1,-1,0,3,4,2,2
1558441150973958,0,0,2,3,2,5,1,1
1558441150974917,-3,-2,-2,-3,-6,-8,-7,-5
1558441150974917,-4,-4,-1,-3,0,2,-1,0
1558441150986884,0,-2,-2,-2,-1,4,0,1
1558441150986884,-4,-1,-4,-2,-3,-2,0,-3
1558441150995919,0,0,3,0,1,5,5,1
1558441150995919,-1,-1,-1,0,2,3,1,-1
1558441151010940,-1,-1,-2,1,-1,-2,-5,0
1558441151010940,-1,-1,-2,0,-1,-1,1,-2
1558441151016804,0,1,2,0,6,4,3,1
1558441151016804,0,-3,-4,-5,-8,-8,-5,-2
1558441151033762,0,-2,1,0,-4,-1,-2,-2
1558441151033762,0,-3,-1,-3,-2,-8,-5,-2
1558441151034873,1,-3,-2,-1,-1,6,3,0
1558441151034873,-1,-1,-1,2,0,1,-1,-3
1558441151046877,-2,0,-2,-2,0,-4,-1,-1
1558441151046877,-1,-2,0,-5,-5,0,0,-1
1558441151055729,-2,0,-1,-1,-1,-4,-1,-1
1558441151055729,1,0,1,1,10,6,6,0
1558441151070696,-1,-2,-1,-1,-5,-4,0,-2
1558441151070696,-2,-3,0,-3,-6,-4,-5,0
1558441151077641,2,1,-1,2,1,3,2,1
1558441151077641,-3,-1,-3,-4,-3,-6,-4,0
1558441151093805,1,1,-1,0,2,4,-1,-2
1558441151093805,-2,-2,-1,1,-1,-3,-6,-3
1558441151094597,-2,-1,-1,-4,-2,3,-2,-1
1558441151094597,0,-1,1,-1,-4,-5,0,-1
1558441151116678,0,-1,-2,-1,-1,-3,1,1
1558441151116678,0,1,-3,-2,-8,-6,-5,-1
1558441151117536,0,-2,-2,-1,5,9,1,-2
1558441151117536,0,-1,3,3,7,1,4,1
1558441151130802,-1,0,0,1,-3,-1,-2,-2
1558441151130802,-1,-3,-1,-3,-2,1,0,0
1558441151137482,-2,-4,-2,-5,-8,-9,-5,-2
1558441151137482,0,0,-3,0,-2,-3,-4,-3
1558441151153440,-2,-1,0,0,7,7,2,1
1558441151153440,-2,2,-1,0,3,5,3,1
1558441151155434,-3,1,1,1,-1,0,0,-1
1558441151155434,-1,-2,-4,-3,-6,-1,-4,-3
1558441151167402,-2,1,-1,-2,-4,-5,-2,-2
1558441151167402,0,-2,-1,-1,-2,-11,-3,0
1558441151176380,0,-1,0,-2,-6,-1,-2,0
1558441151176380,-1,-2,-3,-1,3,-4,-3,-2
1558441151198323,0,-1,-1,-2,-3,4,0,0
1558441151198323,-1,-1,-2,1,4,2,0,-1
1558441151200314,0,-3,0,-1,3,0,1,1
1558441151200314,-2,-2,-2,-6,-11,-7,-6,-1
1558441151213280,-3,-1,0,1,-1,-2,-1,-3
1558441151213280,-4,-2,-1,-2,-4,1,-1,-3
1558441151215315,0,0,-4,0,-4,-13,-5,-1
1558441151215315,1,2,0,2,6,8,7,1
1558441151227242,1,1,1,2,11,6,1,1
1558441151227242,1,0,0,0,0,0,3,0
1558441151236218,1,-1,-1,-4,-1,-10,-1,3
1558441151236218,-3,-2,-2,-2,-6,-4,-5,-4
1558441151250486,-2,-2,-3,-3,-11,-9,-9,-5
1558441151250486,0,0,-2,-2,-1,6,1,0
1558441151265142,-2,-1,2,2,5,4,2,-3
1558441151265142,-1,-2,1,-2,-4,-2,0,0
1558441151273279,0,-1,-1,-1,-3,0,0,-1
1558441151273279,0,-1,-3,-1,-5,-11,-8,-5
1558441151275114,1,1,1,-1,-2,3,0,0
1558441151275114,-3,0,-2,-3,8,7,-2,0
1558441151287087,-1,1,2,1,2,-2,-1,2
1558441151287087,-2,-3,-2,-3,-6,-3,-2,-1
1558441151296057,-4,-3,0,-1,-3,-1,-1,-4
1558441151296057,-2,-3,-3,-3,-8,-6,-2,-4
1558441151311017,1,0,-1,4,6,12,6,0
1558441151311017,-2,0,1,-1,-1,-8,-4,-1
1558441151317030,-2,0,0,-2,-6,-6,-1,-2
1558441151317030,1,1,3,0,6,4,6,4
1558441151334119,-3,0,-1,-1,5,2,0,0
1558441151334119,-1,0,-2,-1,-2,5,2,-1
1558441151334955,0,-2,-3,-1,-6,-3,-4,-3
1558441151334955,0,-3,-3,-2,-7,-5,-7,-3
1558441151355898,-2,0,0,-4,-7,-8,-5,-3
1558441151355898,0,1,1,0,7,3,2,1
1558441151357893,-2,-1,-1,0,7,11,2,1
1558441151357893,0,-2,0,-2,-4,-4,-2,-1
1558441151370862,0,-2,-3,-3,-2,0,4,1
1558441151370862,0,-2,-3,-3,-5,0,2,-2
1558441151376851,1,0,1,3,5,0,-1,-1
1558441151376851,-1,0,0,-3,-4,-4,-3,-2
1558441151393797,-2,-2,-2,-3,-2,-3,-2,-1
1558441151393797,1,0,2,2,2,-6,0,2
1558441151394795,-2,-1,-1,-4,-1,1,-1,-2
1558441151394795,-4,-3,-2,1,-5,-1,-2,0
1558441151406762,-1,-2,0,-1,-3,0,-2,-2
1558441151406762,-3,-3,-3,-1,-1,-1,-1,-2
1558441151415738,-2,-3,-3,-5,-9,-9,-4,-2
1558441151415738,3,2,4,2,5,4,8,3
1558441151430698,-2,1,2,3,3,1,4,0
1558441151430698,1,-2,-4,0,4,4,-1,0
1558441151436714,0,-1,-2,0,7,12,3,0
1558441151436714,-3,0,-4,-1,-11,-11,-6,-4
1558441151461615,-1,-1,-2,-5,-6,-9,-5,-1
1558441151461615,-3,-2,1,-2,-5,-6,-4,-1
1558441151467605,-2,-3,-3,-4,-5,2,-4,-4
1558441151467605,1,-1,3,2,2,5,6,2
1558441151468596,1,0,-1,-2,6,0,2,1
1558441151468596,-1,0,-2,2,0,3,0,-2
1558441151482558,-2,-3,-2,-1,-3,-4,0,-1
1558441151482558,-2,-1,-4,-4,-5,-4,-6,-2
1558441151490542,0,-2,0,-2,-2,2,-1,0
1558441151490542,0,-2,0,-2,4,1,-2,-1
1558441151497524,1,0,0,2,4,7,6,3
1558441151497524,-2,-1,1,-1,-2,3,-2,-3
1558441151521460,0,-1,-1,1,3,-4,2,2
1558441151521460,-1,-1,-1,-2,0,-1,0,-2
1558441151527441,0,-1,2,3,-2,-6,-5,0
1558441151527441,-1,-2,-2,-3,1,-4,-4,-2
1558441151528439,-3,-3,-3,-5,-9,-6,-8,-4
1558441151528439,-2,0,-1,-4,-9,2,-2,-3
1558441151536415,-2,1,0,1,1,3,3,-1
1558441151536415,-1,1,-1,2,7,-7,-4,-3
1558441151550378,-1,-2,-1,0,4,3,1,0
1558441151550378,-2,-1,-4,-5,-6,-5,-3,-2
