timestamp,emg1,emg2,emg3,emg4,emg5,emg6,emg7,emg8
1558441201627430,-1,1,2,-3,10,10,4,4
1558441201627430,-1,-3,-2,-21,-2,1,-3,-3
1558441201628427,-3,-2,-4,13,-4,-4,-3,-2
1558441201628427,-2,-1,-3,-2,-7,-8,-7,-2
1558441201629424,-1,-1,-2,-12,-1,1,2,0
1558441201629424,2,2,0,11,9,5,6,2
1558441201629424,-2,-1,2,3,-2,-5,-6,-1
1558441201629424,-3,-2,-3,-9,-2,-3,-2,-2
1558441201641393,2,-3,-2,-1,-2,-1,2,-4
1558441201641393,1,-4,1,11,-8,-9,-6,-3
1558441201652364,-3,-2,-4,-10,1,8,4,-1
1558441201652364,-1,-2,0,-9,-10,-5,0,0
1558441201656354,-1,1,2,16,16,10,3,2
1558441201656354,0,1,2,1,8,3,3,2
1558441201670315,1,0,-2,-10,3,-2,-2,0
1558441201670315,-2,-1,-3,4,-2,2,-2,-2
1558441201680289,-3,-4,-4,-2,-16,-6,-6,-4
1558441201680289,-2,-3,-3,-9,-5,-2,-4,-2
1558441201685276,0,-2,2,-4,-1,-5,2,1
1558441201685276,-1,-2,-3,3,1,5,1,-2
1558441201701233,2,2,3,1,5,2,0,-1
1558441201701233,0,-1,-4,-4,-2,-3,-4,-3
1558441201709212,2,-1,0,4,0,-3,0,-3
1558441201709212,1,1,-1,2,6,7,3,1
1558441201749106,-1,-4,-4,-22,-10,-7,-5,-3
1558441201749106,1,-2,-1,11,0,4,3,-3
1558441201749106,-1,-1,1,6,4,-3,-3,1
1558441201749106,-1,1,1,-12,1,0,2,0
1558441201750102,-3,-1,-5,3,2,4,3,-1
1558441201750102,-2,0,1,9,-3,3,2,0
1558441201753094,1,-2,1,-8,2,-1,0,0
1558441201753094,0,-1,-4,-7,-3,1,-1,-4
1558441201761074,-1,-2,2,13,-6,-8,-10,-3
1558441201761074,-3,1,-1,-11,3,1,-3,2
1558441201768054,-4,-2,-1,-12,-13,-10,-3,-3
1558441201768054,-2,-1,-2,9,1,2,-2,0
1558441201776032,-2,-1,1,3,10,2,4,1
1558441201776032,2,-1,0,-11,-1,-4,-1,0
1558441201790993,-1,1,0,1,2,8,2,-3
1558441201790993,-1,-2,-2,3,-6,-6,-3,-1
1558441201798971,-3,-2,-2,-7,-9,-10,-6,-2
1558441201798971,-1,-1,-3,-5,0,2,1,-2
1558441201805952,0,-1,-2,5,-2,-3,-2,-1
1558441201805952,-1,-2,1,-3,2,-1,-1,1
1558441201820913,-1,0,0,-3,3,7,3,0
1558441201820913,-2,-3,-3,0,-12,-9,-5,-1
1558441201827894,-1,-1,-1,1,2,-1,-2,0
1558441201827894,-1,0,0,-1,3,7,4,1
1558441201835871,0,2,-1,1,8,8,4,2
1558441201835871,-1,-2,-2,-2,-4,-7,-6,-3
1558441201850833,-2,-1,-3,0,-3,1,0,-1
1558441201850833,-1,-2,-3,-5,-3,-7,-6,-2
1558441201858812,2,-2,0,2,-3,0,-1,-1
1558441201858812,-1,-2,-4,-5,-7,-6,-1,-1
1558441201865793,-1,0,-1,-1,5,7,5,1
1558441201865793,-2,-1,-2,5,-7,-5,-3,-2
1558441201880752,1,3,1,1,6,3,5,2
1558441201880752,2,-2,0,-2,7,9,0,-2
1558441201887733,-1,-3,-3,-1,-9,-12,-5,-2
1558441201887733,1,-2,2,-1,3,-2,-1,-1
1558441201895712,-2,-1,-1,-4,-9,-1,-2,-2
1558441201895712,-2,1,3,1,5,1,3,0
1558441201910672,-3,-1,-2,-1,-3,-1,-2,0
1558441201910672,-1,-2,-3,-3,-8,-5,-3,-1
1558441201918651,-1,-3,-2,-3,-1,-1,-1,-2
1558441201918651,0,1,1,0,6,3,1,1
1558441201926629,-1,-1,-1,-2,-1,-5,-3,-3
1558441201926629,-4,2,-1,-2,1,-1,-4,-4
1558441201941589,0,-2,-3,1,-2,-5,1,0
1558441201941589,-4,-2,-1,-3,-1,1,-2,-2
1558441201947573,-1,-1,1,-3,-1,4,1,1
1558441201947573,-1,-4,-1,0,-4,-4,-2,0
1558441201955553,-1,1,3,1,2,-1,-3,2
1558441201955553,-1,-1,-4,-1,-4,-9,0,0
1558441201970512,1,0,-1,-1,-2,1,3,-3
1558441201970512,1,0,-2,1,-1,-1,-1,-2
1558441201978490,-1,-4,-1,-2,-3,-2,-7,-5
1558441201978490,1,-1,-1,-2,1,0,2,0
1558441201985472,0,0,0,1,1,1,-2,0
1558441201985472,-2,0,-3,-1,-2,7,1,3
1558441202009407,0,1,-3,-2,-1,-7,0,0
1558441202009407,-3,-1,-3,0,-5,-6,-9,-3
1558441202010406,-1,-1,0,0,1,4,-2,-1
1558441202010406,0,-1,-1,-4,1,4,5,0
1558441202015392,-1,-2,-2,0,1,-2,-1,0
1558441202015392,0,0,2,0,-3,1,1,-1
1558441202030353,-1,-2,-2,-1,-5,-10,-3,-1
1558441202030353,1,-2,-1,-4,4,3,-1,0
1558441202039329,-2,0,-3,1,1,9,3,-2
1558441202039329,-2,-1,0,-3,-2,-1,-1,0
1558441202053297,-2,-3,0,-1,5,4,-4,-3
1558441202053297,-1,0,-2,-1,-8,-11,-7,-3
1558441202062269,0,-1,-2,-2,-5,-3,-2,-1
1558441202062269,0,0,-3,-3,-2,0,-5,-2
1558441202068252,0,1,0,2,5,0,4,1
1558441202068252,-1,0,2,2,3,2,1,0
1558441202084208,0,-2,-2,-4,0,5,2,-1
1558441202084208,-1,-1,-1,-3,-3,-6,-4,-1
1558441202090192,-3,-1,-1,0,-5,-6,0,1
1558441202090192,0,1,3,2,8,1,4,0
1558441202099170,-2,0,-2,-5,-4,-2,-1,-1
1558441202099170,-2,-3,-2,0,-4,-1,-2,-2
1558441202113130,0,0,0,-1,-1,4,1,0
1558441202113130,-1,-3,0,-2,-1,-1,-1,-1
1558441202122111,-1,-1,0,0,-6,-4,-5,-3
1558441202122111,-1,-1,1,2,8,8,5,-1
1558441202128091,2,2,-3,-2,1,-2,1,1
1558441202128091,0,-1,0,-2,-3,-9,1,0
1558441202144048,2,-1,-1,1,0,0,0,-1
1558441202144048,-2,1,-1,0,-4,-3,-3,0
1558441202150035,0,1,1,-4,5,8,2,0
1558441202150035,-3,-3,-3,1,2,6,0,-4
1558441202159008,-2,1,1,-2,-4,-8,-2,-3
1558441202159008,0,-1,-2,-2,0,-1,1,1
1558441202172970,-1,0,-1,1,-5,-7,-7,-1
1558441202172970,-3,-1,-4,-1,-3,2,0,-1
1558441202181947,0,-1,0,-3,-1,7,-1,-2
1558441202181947,-1,-2,2,-1,-2,-6,-3,-4
1558441202187934,-2,-2,-1,0,-2,-6,-1,-1
1558441202187934,-1,-1,-1,-5,-1,0,-3,-2
1558441202203887,-2,-3,-2,-2,-6,-7,-3,-1
1558441202203887,1,1,2,1,3,8,3,0
1558441202210869,-1,-3,-3,-4,-1,2,-1,-2
1558441202210869,-1,0,-2,-5,-10,-12,-6,-2
1558441202219846,1,-1,0,2,5,3,2,2
1558441202219846,1,2,1,3,12,4,3,2
1558441202232811,-2,0,1,0,1,4,-1,-2
1558441202232811,1,-1,-1,-1,-2,1,-4,-2
1558441202241787,-3,-1,0,-2,-10,-13,-5,-4
1558441202241787,-1,0,-1,-4,2,-3,1,-1
1558441202247771,1,-1,-2,-1,-1,2,2,0
1558441202247771,-1,-2,0,2,-2,0,-4,-1
1558441202264726,-4,0,0,-5,-3,-1,-1,-1
1558441202264726,0,0,-3,-2,-11,-11,-3,-1
1558441202270709,-2,0,-1,-1,-1,-6,-2,-1
1558441202270709,0,-1,1,2,4,1,0,1
1558441202279686,0,-1,2,0,3,4,0,0
1558441202279686,-2,-1,-2,-2,0,2,2,-1
1558441202292651,0,-2,-5,-4,-8,-2,-1,-2
1558441202292651,-1,0,0,-2,0,-1,1,-1
1558441202301627,1,0,-1,1,3,-7,-4,1
1558441202301627,-2,-3,-2,-1,-4,0,-3,0
1558441202307610,-2,-2,-1,-2,-2,-2,-1,1
1558441202307610,-1,0,0,-2,0,3,1,0
1558441202324566,1,0,4,6,6,7,4,2
1558441202324566,-1,0,0,-3,-4,-8,-3,-2
1558441202330549,-1,-1,-2,0,-3,0,-2,-2
1558441202330549,0,1,-1,3,10,3,1,0
1558441202339525,-2,-3,-4,-2,-6,-3,-4,-2
1558441202339525,-1,-4,-2,-2,-5,-3,-7,-5
1558441202352491,1,-1,2,0,-1,-8,-2,-1
1558441202352491,3,0,1,1,1,-9,0,2
1558441202361466,1,0,-1,-1,2,7,1,0
1558441202361466,0,0,-1,-1,1,-1,1,1
1558441202367450,-3,-2,-3,-3,-9,-7,-4,-4
1558441202367450,-2,-4,-2,-3,-7,1,1,-1
1558441202384405,0,0,0,0,7,2,3,0
1558441202384405,-1,-1,-3,-2,-6,-5,-3,-2
1558441202390389,0,-4,1,4,1,2,0,-1
1558441202390389,1,0,-2,-3,-2,-5,-5,0
1558441202399365,-1,-1,-2,-3,0,0,-4,-1
1558441202399365,-1,0,-2,1,-1,2,-1,1
1558441202413329,-1,-1,0,-2,-2,-11,-4,-4
1558441202413329,0,0,1,-1,4,6,5,1
1558441202422304,-1,0,-2,0,-2,-6,-2,-1
1558441202422304,-3,-2,-2,-1,-2,-6,-2,-1
1558441202428287,-2,-3,-3,-4,-7,-1,-5,-2
1558441202428287,-1,-1,-1,0,-5,1,-2,-3
1558441202444245,-1,1,-1,0,-2,-5,1,0
1558441202444245,0,1,2,1,13,12,6,1
1558441202450229,1,1,0,0,-3,-3,-2,-1
1558441202450229,0,-5,-4,-3,0,0,0,-3
1558441202459206,-3,-1,-1,-4,-6,-2,-4,-3
1558441202459206,-1,-2,-2,-3,-4,2,1,-2
1558441202473169,1,1,-1,2,5,8,3,-2
1558441202473169,-1,1,0,0,-3,-2,-4,-3
1558441202482145,-1,-2,0,-1,-3,-2,-1,-1
1558441202482145,0,-4,0,0,-4,0,0,0
1558441202488128,-1,0,-2,1,3,-1,-1,2
1558441202488128,-1,1,1,-2,0,-2,-1,-1
1558441202504086,-4,-3,-3,-2,-3,-3,-1,-2
1558441202504086,-2,-1,1,1,1,7,3,0
1558441202510068,-1,-1,-1,-3,4,5,2,-1
1558441202510068,-2,0,-2,-4,-7,-16,-6,-1
1558441202519045,0,0,0,0,1,-9,-5,1
1558441202519045,1,0,0,0,0,5,0,-1
1558441202533008,-2,0,1,-1,2,5,1,1
1558441202533008,-2,-1,-1,-1,-3,-1,1,-1
1558441202541984,-2,0,0,0,2,4,-2,0
1558441202541984,-1,-3,-4,-4,-7,-7,-6,-2
1558441202547968,-2,0,1,-2,-3,-6,-1,0
1558441202547968,-1,0,2,5,3,-1,-5,-1
1558441202563927,1,-1,-1,-2,0,2,1,-1
1558441202563927,-1,-2,-4,-3,-4,-3,-7,-4
1558441202570906,-3,-3,-2,-1,-3,-1,-1,-3
1558441202570906,1,1,1,1,2,7,9,2
1558441202578889,3,2,0,-1,4,-2,3,1
1558441202578889,2,1,1,2,7,8,5,1
1558441202592848,-1,-1,-1,-2,-6,-3,1,-2
1558441202592848,-2,-1,-1,-2,-4,-6,-5,-1
1558441202601825,-1,0,-2,-5,-4,-7,-3,-3
1558441202601825,-2,-1,-1,2,-4,-8,-5,-2
1558441202607807,1,0,0,-2,3,6,3,-2
1558441202607807,-1,-1,-1,-1,0,-2,-4,-1
1558441202624763,-2,-3,-1,0,-4,0,-3,-4
1558441202624763,-5,0,-4,-5,-8,-5,-1,0
1558441202630747,0,0,0,0,3,7,4,2
1558441202630747,1,0,0,0,3,-1,2,1
1558441202639723,0,1,1,0,-1,0,-2,-1
1558441202639723,1,-3,0,-3,-4,-6,-2,-2
1558441202652687,0,-1,-1,-3,5,-3,-3,-1
1558441202652687,-3,-4,-1,1,-2,3,-2,-2
1558441202661663,-1,-3,-2,-2,-1,2,1,0
1558441202661663,-2,-2,-1,1,2,-2,0,1
1558441202667648,-3,-4,-4,-4,-10,-9,-10,-3
1558441202667648,1,-1,-3,-3,-8,0,1,0
1558441202684602,-1,-2,0,1,5,-1,1,-1
1558441202684602,0,0,2,1,4,1,2,0
1558441202690586,1,1,1,3,2,-1,3,1
1558441202690586,-4,-4,-3,-3,-1,-3,-6,-4
1558441202699563,-2,-3,-2,-4,-8,-3,-4,-3
1558441202699563,2,2,0,5,7,3,4,0
1558441202712535,-2,-2,-1,-2,-1,-1,-5,-3
1558441202712535,-2,-2,-4,-3,-5,-1,-3,-3
1558441202729483,-2,-1,-1,-2,-5,-4,-5,-1
1558441202729483,-3,-2,-2,-3,-4,-4,-2,-2
1558441202735466,-1,0,0,0,3,6,5,2
1558441202735466,1,1,3,3,4,2,2,0
1558441202744442,-1,1,1,3,6,0,0,2
1558441202744442,-2,-2,-3,-4,-5,-6,-5,-4
1558441202759402,-1,-2,-3,-3,-6,-1,-4,-4
1558441202759402,-3,-2,0,1,-7,3,0,0
1558441202760399,-1,0,-2,-2,1,2,2,0
1558441202760399,0,-1,0,-1,3,2,-1,-1
1558441202773366,-1,-3,-3,-1,-6,-3,-2,-2
1558441202773366,-2,-1,-4,-2,2,0,-3,-1
1558441202781345,-1,0,1,-2,-7,-11,-1,0
1558441202781345,1,0,1,2,1,4,4,1
1558441202804284,-1,-1,-2,1,2,-4,-2,0
1558441202804284,-2,-1,0,-3,-3,-4,-2,-1
1558441202805279,1,-2,-2,-2,-1,3,1,1
1558441202805279,0,0,1,2,1,3,-1,0
1558441202819254,0,1,2,-1,4,5,4,-1
1558441202819254,-2,0,-3,-1,-3,-6,-3,-2
1558441202820240,1,-1,1,2,-2,2,1,0
1558441202820240,0,-1,1,-4,3,-9,-6,-1
1558441202833213,0,-2,0,-3,-4,-8,-2,-1
1558441202833213,0,0,-4,0,-7,1,1,-1
1558441202842195,1,1,0,3,13,9,2,0
1558441202842195,-1,-1,-5,-6,-12,-12,-7,-4
1558441202855157,-1,-2,1,1,6,3,1,1
1558441202855157,-2,0,-1,3,1,-5,0,0
1558441202864129,-2,-1,0,-5,-6,-2,-4,-2
1558441202864129,-1,-1,1,0,2,0,2,1
1558441202879091,-1,-3,-3,-2,-6,-8,-5,-2
1558441202879091,0,-1,-3,-5,1,-3,-1,-1
1558441202881078,-2,-2,-6,-2,-7,2,2,-1
1558441202881078,0,0,0,2,1,2,-3,0
1558441202893227,-3,-3,1,-2,-3,-7,-4,-1
1558441202893227,1,-1,2,0,4,3,-2,-1
1558441202902022,-1,-1,-1,0,5,2,2,0
1558441202902022,-2,-1,0,1,-1,0,0,-1
1558441202915985,0,-1,0,-1,-4,3,1,-1
1558441202915985,0,-1,-2,-5,0,3,-2,-2
1558441202923963,0,-2,-1,1,-3,-1,1,-1
1558441202923963,-1,0,-2,-3,-6,-9,-3,-1
1558441202938922,-2,0,-1,-1,1,3,1,-1
1558441202938922,-2,-2,0,1,1,3,1,-1
1558441202940917,1,-1,-2,0,-2,4,1,3
1558441202940917,-2,-2,-2,-2,4,5,3,0
1558441202952890,-1,0,-1,1,1,2,-1,-2
1558441202952890,-1,0,-1,1,0,-2,-4,-3
1558441202961861,-3,-2,-3,-5,-12,-10,-12,-4
1558441202961861,1,0,-1,-1,6,2,7,5
1558441202975827,0,3,0,1,-1,-5,0,1
1558441202975827,2,-1,0,-2,-1,3,2,0
1558441202984801,2,-2,3,5,15,1,-1,0
1558441202984801,-2,0,-2,-3,-6,-4,-6,-4
1558441202999761,-1,0,-2,-3,-3,-2,-3,0
1558441202999761,-2,-2,0,-2,-5,0,1,-2
1558441203000758,-2,-4,-6,-4,-13,-5,-3,-5
1558441203000758,0,0,-1,0,0,-1,2,-2
1558441203012733,-2,-1,0,-2,2,-5,-1,1
1558441203012733,1,1,-1,-2,2,0,1,1
1558441203021706,-2,1,-1,0,-3,1,2,-3
1558441203021706,-3,-2,0,-1,2,5,0,-2
1558441203035664,-1,-4,-1,-2,0,3,1,-1
1558441203035664,-1,-1,0,-1,-8,-15,-7,-1
1558441203044642,-2,1,-1,0,4,1,-4,-2
1558441203044642,-1,-2,-2,-1,0,3,2,0
1558441203059598,-2,-3,-1,-2,0,4,2,0
1558441203059598,-3,-3,-3,-1,-5,-7,-5,-3
1558441203060596,-4,-2,-2,-5,-10,-5,-1,-1
1558441203060596,2,1,2,3,14,5,3,2
1558441203072565,0,0,1,2,2,4,-4,-2
1558441203072565,-2,-1,0,-2,3,4,5,1
1558441203081540,0,-3,-4,-4,-6,-12,-5,-1
1558441203081540,-1,-2,-1,-1,-7,1,-3,-2
1558441203095504,0,-1,-2,-1,-2,-2,2,0
1558441203095504,-1,0,2,-2,4,0,2,0
1558441203104479,-1,-1,-1,-1,0,3,5,0
1558441203104479,-4,-2,-2,1,-13,-10,-6,-4
1558441203119439,-2,-2,-2,-1,6,6,5,0
1558441203119439,-3,-1,-3,-1,-3,6,1,-2
1558441203120436,2,0,3,5,13,6,2,4
1558441203120436,0,-1,-1,-3,0,-2,-4,-1
1558441203133401,-3,-2,-1,-2,-6,-6,-6,-1
1558441203133401,-3,0,-4,0,-4,-10,-5,-1
1558441203141388,0,0,-2,-3,-1,2,0,-3
1558441203141388,-2,-2,-3,-5,-13,-6,-5,-4
1558441203155347,-1,0,-1,-1,-4,-4,-3,-3
1558441203155347,0,0,0,3,9,12,8,2
1558441203164320,-2,0,0,-1,0,3,-1,-2
1558441203164320,2,1,2,-1,7,-7,1,1
1558441203178289,1,-1,-1,2,3,-1,1,1
1558441203178289,0,-1,1,-3,1,4,2,1
1558441203193244,-1,-1,-2,-2,-9,-10,-5,-2
1558441203193244,-4,-2,-2,-3,-12,-4,-5,-3
1558441203194243,1,-1,0,1,6,3,1,-2
1558441203194243,0,1,2,-2,3,0,3,1
1558441203202221,-1,-1,-2,2,6,5,0,0
1558441203202221,0,-3,-1,-1,-6,-4,-5,-2
1558441203215192,-2,0,-1,-4,-6,-4,-3,-2
1558441203215192,-1,-3,-3,-3,-5,-5,-2,-1
1558441203224197,-3,-2,-1,0,-2,2,-1,-3
1558441203224197,0,0,3,2,12,9,3,2
1558441203239185,-1,-1,-3,-4,-6,-8,-5,-4
1558441203239185,0,-3,-2,-2,-13,-9,-9,-6
1558441203246118,2,3,3,0,2,-1,7,4
1558441203246118,0,1,1,4,11,0,3,2
1558441203253212,-1,0,0,-2,-5,-4,-2,0
1558441203253212,-1,-2,-4,0,2,1,-1,1
1558441203262061,-3,-2,-1,-3,-5,-4,-6,-2
1558441203262061,-3,-3,-4,-5,-10,2,-2,-3
1558441203286115,-2,0,1,2,-2,-2,1,0
1558441203286115,-1,-1,-3,-5,-4,-8,-6,-4
1558441203290984,1,0,1,2,7,4,5,0
1558441203290984,0,-2,-1,1,0,-1,0,0
1558441203298967,0,0,-4,-4,-9,-7,-9,-3
1558441203298967,0,0,1,1,5,2,4,2
1558441203305941,-1,-2,0,1,5,1,2,0
1558441203305941,-5,1,-1,-4,-4,3,-1,-3
1558441203312925,-3,-2,-3,-3,-5,-2,-1,-1
1558441203312925,-1,-1,-3,-2,-9,-9,-7,-5
1558441203321900,0,0,-1,2,4,-4,2,2
1558441203321900,2,-1,-2,0,8,8,5,2
1558441203335860,0,-3,-2,0,2,3,-1,-1
1558441203335860,-1,0,1,4,0,-1,-1,0
1558441203344073,-2,-4,-3,-5,-10,-9,-5,-2
1558441203344073,-1,-1,1,0,-3,-6,-5,-1
1558441203358798,1,-2,-4,1,0,4,2,-1
1558441203358798,-1,-1,0,0,1,0,0,0
1558441203365788,-1,0,1,-1,2,4,4,-1
1558441203365788,-3,-2,-4,-1,-5,-3,-2,-3
1558441203372791,0,-1,-1,2,4,4,1,-1
1558441203372791,-1,1,1,0,1,5,4,2
1558441203381740,-1,1,-1,-1,5,-1,-5,0
1558441203381740,-3,0,-1,-2,-7,-9,-3,-1
1558441203395950,-4,0,-1,-3,-6,-5,-5,-2
1558441203395950,-3,-1,-3,-1,3,10,1,0
1558441203404676,-1,-1,0,2,-3,-3,4,0
1558441203404676,0,-2,-3,-3,0,3,0,-2
1558441203418851,1,0,-2,-3,-6,-11,-3,0
1558441203418851,0,-3,-3,-4,1,0,-3,-1
1558441203425620,-1,-3,0,1,-2,1,-1,-2
1558441203425620,0,0,0,0,1,-4,4,1
1558441203432603,-1,0,0,-2,6,5,0,1
1558441203432603,-2,-2,-1,2,-2,0,0,-3
1558441203441778,-3,-5,-6,-4,-8,2,-1,-3
1558441203441778,-1,-4,-2,-2,-4,-4,-4,0
1558441203455542,0,0,3,0,3,2,2,-1
1558441203455542,2,2,0,2,10,2,0,2
1558441203464516,-3,0,1,-3,1,-1,-2,-1
1558441203464516,-2,-1,-4,-2,-7,-4,0,-4
1558441203478703,-2,-1,-2,1,-3,-2,-1,-3
1558441203478703,-1,-2,0,-3,-6,-6,-3,-1
1558441203485650,-1,-3,-3,-3,-5,-4,-8,-5
1558441203485650,0,1,1,3,6,8,3,-2
1558441203502463,-1,0,0,1,4,5,4,3
1558441203502463,0,-1,-1,-2,-2,-9,0,-1
1558441203503417,-2,0,-4,-3,-5,-2,-2,-1
1558441203503417,-1,0,0,0,0,-4,-4,-1
1558441203515381,-2,-1,-3,-2,-2,0,-3,-2
1558441203515381,-3,-2,1,-3,-2,-2,0,1
1558441203532337,2,1,0,0,-5,-2,-4,0
1558441203532337,-1,-1,0,-3,4,4,2,1
1558441203538325,2,0,0,2,8,2,5,1
1558441203538325,-2,-1,-2,0,-4,-6,-6,-1
1558441203545303,-2,-2,-3,-3,-1,4,1,-2
1558441203545303,-3,-2,-4,-4,-11,-9,-11,-5
1558441203561256,-3,-1,-3,-2,-4,-7,-1,-2
1558441203561256,-2,-2,1,0,0,-1,5,1
1558441203563252,1,1,1,2,9,6,-2,0
1558441203563252,-1,-1,0,0,4,9,3,1
1558441203575414,-1,-3,0,0,-1,-1,-4,-2
1558441203575414,1,-1,-3,-4,-7,-6,-4,-1
1558441203584509,-1,0,-2,-1,-3,-6,0,-1
1558441203584509,0,-3,1,0,-2,-4,-2,-2
1558441203598162,-2,-1,-1,-3,-3,-1,2,-1
1558441203598162,0,-2,-1,-1,-3,1,-4,-1
1558441203605139,1,-1,-1,2,5,0,0,3
1558441203605139,-1,-1,-2,-2,-5,-10,-3,1
1558441203622313,1,0,-1,-2,-3,-2,0,0
1558441203622313,-2,0,-2,1,-1,5,-2,-3
1558441203623151,-5,-2,-1,1,-5,0,-4,-3
1558441203623151,0,-1,-2,-3,-1,-5,-1,0
1558441203636086,-1,0,1,1,8,-1,-2,0
1558441203636086,1,-1,-2,0,-2,-1,0,-3
1558441203644273,-2,-4,-2,-6,-8,-9,-5,-4
1558441203644273,-3,-2,0,-2,-3,3,1,-1
1558441203658001,-3,-3,-3,-1,-6,1,-2,-2
1558441203658001,-3,1,0,-1,2,1,-1,0
1558441203667016,1,1,1,-1,3,-4,-1,0
1558441203667016,-1,-2,-1,-1,3,1,0,-1
1558441203681943,-2,-1,-1,0,-3,1,1,-1
1558441203681943,1,-2,-1,-2,-1,-4,0,-3
1558441203682936,0,-1,0,0,0,-1,-3,-2
1558441203682936,-2,-1,-2,1,2,0,-2,-1
1558441203696202,-2,-2,-3,-2,-3,10,2,1
1558441203696202,-3,-2,-3,-3,-7,-12,-4,-3
1558441203703896,-1,0,0,2,4,0,0,0
1558441203703896,-3,-1,0,1,3,3,-1,-2
1558441203718041,0,-2,-2,-1,3,5,-1,-3
1558441203718041,-3,-2,-2,0,1,4,0,-2
1558441203726818,-1,-5,-2,-4,-10,-14,-2,-1
1558441203726818,1,-1,-1,-4,-4,0,-2,0
1558441203741994,1,-1,2,-1,3,4,0,-1
1558441203741994,3,0,1,4,8,-4,1,2
1558441203743772,0,-1,-1,-3,-1,-1,-1,-2
1558441203743772,-3,-3,-3,-2,-11,-9,-6,-2
1558441203755740,-2,-1,0,1,-3,-5,-4,-3
1558441203755740,-2,-2,0,-1,3,3,2,1
1558441203764716,-1,1,-1,1,4,6,7,3
1558441203764716,0,1,1,1,5,4,2,1
1558441203777680,-1,-1,-2,0,-4,-4,-4,-4
1558441203777680,-1,-3,-2,-3,-4,1,-3,-2
1558441203793664,-2,-3,-4,-5,-13,1,-3,-1
1558441203793664,0,-1,-3,4,4,-4,2,0
1558441203801743,-3,0,1,-1,0,-1,1,0
1558441203801743,1,0,1,1,5,5,4,2
1558441203803611,1,2,0,1,0,1,0,-1
1558441203803611,0,-2,-2,-1,-1,2,2,-1
1558441203815578,-1,0,-1,-3,-2,-6,-4,-1
1558441203815578,-3,0,0,-2,-4,4,-2,-5
1558441203824556,-2,-1,1,2,0,1,-2,-1
1558441203824556,1,1,1,1,1,-2,2,0
1558441203837518,1,0,0,1,5,-9,-1,-2
1558441203837518,0,-1,1,1,3,10,4,-1
1558441203846498,0,0,-2,-2,2,0,-2,-2
1558441203846498,0,0,0,-3,-6,-6,-6,-2
1558441203860456,1,-4,-2,0,-6,-5,-5,-1
1558441203860456,-2,0,-3,-3,-2,-2,-1,-1
1558441203869433,-1,-1,-1,-1,3,3,-1,-1
1558441203869433,-1,-4,-1,-3,-5,-3,1,-1
1558441203875417,2,0,-2,1,1,-1,0,-1
1558441203875417,0,0,0,-2,1,2,1,0
1558441203884393,-3,0,-2,-2,1,-3,3,0
1558441203884393,-1,-1,0,-1,-1,3,-4,-2
1558441203898356,-3,-1,-1,-2,-3,-1,0,-2
1558441203898356,2,-1,-2,1,3,2,-1,0
1558441203907331,1,0,0,1,-1,-7,-4,-2
1558441203907331,-3,-2,-3,-3,-3,-1,-6,-2
1558441203921295,0,-4,-1,-4,-7,4,6,1
1558441203921295,-4,-1,-3,2,3,2,0,-2
1558441203923488,2,1,0,3,9,1,5,3
1558441203923488,0,0,0,-2,3,5,3,-1
1558441203935716,-2,0,-2,-4,-4,-13,-5,0
1558441203935716,-1,-3,-4,-2,-13,-12,-12,-5
1558441203950216,-3,-4,-2,-4,-4,4,0,-1
1558441203950216,2,0,-1,2,8,4,7,2
1558441203958616,-1,-1,0,2,-1,-7,1,0
1558441203958616,0,1,0,-3,1,4,4,2
1558441203967175,-4,-2,-4,-4,-3,-6,-10,-5
1558441203967175,0,-1,0,0,-8,-7,-5,0
1558441203982139,-3,-1,-1,1,0,4,1,0
1558441203982139,0,-2,0,0,2,-5,-5,0
1558441203983130,2,0,-1,-1,-3,-9,-3,-2
1558441203983130,0,0,0,1,4,7,5,0
1558441203996306,-2,0,0,-4,-2,-1,-3,-1
1558441203996306,-5,-4,-3,-6,-15,-12,-7,-5
1558441204004103,0,-1,0,3,-3,10,6,2
1558441204004103,0,2,2,2,12,2,0,0
1558441204018260,2,-2,1,1,6,7,1,0
1558441204018260,-1,-2,0,0,1,-4,-1,0
1558441204027019,-3,-4,-4,-4,-10,-5,-4,-5
1558441204027019,-3,-3,-2,-5,-12,-9,-7,-3
1558441204041979,-2,2,1,0,1,5,4,0
1558441204041979,0,0,2,4,9,5,0,1
1558441204042971,-1,-1,-2,-3,-4,-1,-3,-2
1558441204042971,-2,-1,-4,-1,2,-7,0,1
1558441204056141,-1,-2,-1,0,-3,0,-1,-1
1558441204056141,0,0,-1,-2,-3,-12,-1,1
1558441204064912,-1,-2,-2,-1,-1,3,1,0
1558441204064912,0,0,0,-2,-2,9,-1,-2
1558441204078071,0,-2,-4,0,-3,-1,-4,-2
1558441204078071,-1,-1,0,-4,-5,-5,-4,-3
1558441204086859,-2,1,0,-1,3,-6,0,0
1558441204086859,-4,-2,-2,1,-9,-3,-2,-2
1558441204102030,1,-1,0,0,11,5,3,1
1558441204102030,-1,-1,0,-2,5,9,3,-1
1558441204102811,0,0,0,0,0,3,2,-3
1558441204102811,-1,-1,2,-2,-8,-8,0,-1
1558441204115780,-2,-1,-1,-3,-2,-3,-3,-1
1558441204115780,-1,-1,-3,3,6,9,0,-1
1558441204124752,-2,-2,-2,-3,-2,0,-5,-2
1558441204124752,1,1,-2,0,0,-6,-1,0
1558441204146903,-1,-3,2,-2,-5,-3,-3,-1
1558441204146903,-1,0,-3,1,3,-5,0,-2
1558441204148689,-2,-2,3,0,2,13,8,0
1558441204148689,-1,-2,-2,-4,2,4,-1,-3
1558441204161652,-1,0,-3,1,-6,-9,-3,-2
1558441204161652,-2,-1,-1,-3,-2,3,0,-1
1558441204163647,0,-1,-3,-5,-10,-11,-9,-2
1558441204163647,0,-2,-1,2,7,3,1,0
1558441204175618,1,3,2,4,10,8,7,2
1558441204175618,0,-2,0,-2,-4,0,2,-1
1558441204184592,0,1,0,-2,-4,-7,-2,0
1558441204184592,-2,-4,-2,-2,-10,-8,-8,-5
1558441204197555,-2,-3,-3,-5,-6,-5,-6,-1
1558441204197555,1,2,4,2,6,0,6,4
1558441204206887,-1,0,0,4,5,3,0,1
1558441204206887,-4,-1,-2,-2,-6,-5,-1,-1
1558441204221851,1,-3,-5,-5,-3,-8,-4,-5
1558441204221851,0,0,-2,0,-8,-4,2,1
1558441204228772,0,-3,-2,-2,-2,-2,-6,-3
1558441204228772,0,-1,0,1,5,7,3,0
1558441204235768,-3,-2,1,-1,-1,2,3,-1
1558441204235768,0,-2,-3,1,-3,-4,-2,0
1558441204244430,1,0,-1,-2,-2,-7,-2,0
1558441204244430,-1,-2,-3,-3,-5,-1,-5,-4
1558441204258641,0,-2,-2,2,-4,-2,-4,-1
1558441204258641,1,-2,1,-2,6,8,3,1
1558441204266374,-2,0,-3,0,-1,2,2,-2
1558441204266374,-2,0,-3,1,1,5,0,-2
1558441204281335,-1,-1,0,-2,0,-2,-3,-3
1558441204281335,0,1,-1,-1,-7,-8,3,0
1558441204288319,0,-2,2,0,3,4,3,-1
1558441204288319,1,0,2,2,6,-4,-4,0
1558441204295491,-2,0,0,-3,-5,-5,-2,1
1558441204295491,2,0,1,0,6,3,1,1
1558441204304333,-2,-2,-5,-5,-9,-11,-4,0
1558441204304333,0,0,-1,-3,-4,2,-3,-4
1558441204318427,1,0,-1,0,9,16,7,1
1558441204318427,-3,-4,-5,-1,-7,-13,-7,-3
1558441204327221,1,3,2,3,8,9,4,2
1558441204327221,-2,-2,-3,-3,-4,-4,-2,0
1558441204341358,1,-1,-2,-1,-6,-10,-8,-5
1558441204341358,-2,-1,-3,-2,-5,-3,-3,-3
1558441204348155,2,0,4,3,8,5,8,3
1558441204348155,0,0,0,-2,5,2,2,0
1558441204355134,-3,-2,1,4,2,1,-1,0
1558441204355134,-5,-4,1,-4,-2,1,0,-2
1558441204364112,-1,-2,-2,-5,-6,-8,-10,-5
1558441204364112,1,-2,-1,-2,-4,-1,1,2
1558441204378297,-1,-1,-1,-1,-2,-3,0,-1
1558441204378297,-2,1,-2,-3,-4,-3,-6,-3
1558441204387052,-2,-3,-3,-3,-6,-2,-2,-2
1558441204387052,0,0,-1,3,4,-2,3,2
1558441204401015,0,-1,1,-2,1,-2,-1,0
1558441204401015,-1,-1,-3,-1,-2,-3,-5,0
1558441204408258,-2,-1,0,2,3,1,1,0
1558441204408258,-1,-3,-3,-2,-6,-3,-4,-5
1558441204425175,-3,-3,-4,-3,-5,-2,-1,-2
1558441204425175,0,-1,-1,1,-1,-7,-3,-1
1558441204426271,-1,-1,1,-3,-1,7,0,-3
1558441204426271,1,1,2,0,1,-3,1,1
1558441204438256,0,-2,1,0,5,4,3,2
1558441204438256,-2,-4,-3,-1,-2,4,-3,-3
1558441204446929,-2,-2,-5,-4,-6,-10,-6,-2
1558441204446929,-2,-3,-3,-1,-1,10,4,0
1558441204461888,-1,-2,-3,-2,-9,-7,-6,-2
1558441204461888,1,1,2,1,5,5,11,4
1558441204468190,0,1,-1,0,6,2,-1,2
1558441204468190,-3,-1,-3,0,-3,-5,-3,-1
1558441204484935,-1,-1,-2,-2,0,-3,-1,-2
1558441204484935,-2,-2,-2,-6,-9,-1,-5,-4
1558441204485788,-5,-2,-1,-2,-6,-1,-2,-3
1558441204485788,1,0,1,0,-5,-2,0,-1
1558441204497753,1,0,1,0,3,-5,-2,2
1558441204497753,0,0,-2,-1,0,4,-2,-2
1558441204514709,2,0,3,4,9,7,5,4
1558441204514709,-4,-1,-1,-1,4,3,-3,-1
1558441204521735,-5,-2,-2,-6,-6,-5,-1,-2
1558441204521735,-1,-2,0,-1,-8,-5,-3,-2
1558441204527674,-1,-2,-5,-2,-4,-3,-1,-1
1558441204527674,-1,-2,-2,-2,1,-1,1,-1
1558441204544909,-1,-4,-3,-2,-7,-8,-4,-3
1558441204544909,-1,0,3,3,8,9,7,3
1558441204545627,-1,-1,2,1,6,3,-1,-2
1558441204545627,-1,-3,-2,-1,0,-2,1,1
1558441204566864,1,-1,0,3,3,6,3,1
1558441204566864,-2,-2,-5,-6,-9,-13,-8,-3
1558441204568568,-3,-3,-2,-4,-16,-7,-3,-4
1558441204568568,-2,0,2,3,5,9,5,1
1558441204581527,0,3,0,2,11,0,0,0
1558441204581527,0,0,-2,0,2,7,3,0
1558441204587512,-1,-2,-3,-2,-5,-6,-7,0
1558441204587512,0,-4,-1,-6,-13,-12,-7,-3
1558441204604477,0,0,1,-1,1,5,2,0
1558441204604477,-1,-1,0,2,3,2,0,0
1558441204605465,1,-1,0,3,1,-1,0,1
1558441204605465,-1,1,-2,-1,-2,-3,0,-2
1558441204617435,1,0,-1,0,3,3,3,-1
1558441204617435,-1,-3,-3,0,-5,-6,-4,-3
1558441204627405,-2,1,0,-2,3,2,4,0
1558441204627405,-3,-1,-2,-5,-6,-3,-4,-3
1558441204641720,-4,-4,0,-2,-5,-2,0,-2
1558441204641720,1,3,1,1,8,2,1,0
1558441204647390,0,-1,1,-1,3,4,1,-1
1558441204647390,-1,1,3,1,6,-1,-2,-2
1558441204671644,-2,-2,-4,-2,-6,-6,-6,-1
1558441204671644,-2,-1,-2,-7,-3,-1,-2,-1
1558441204673365,0,-3,-2,-3,-8,1,-3,-2
1558441204673365,2,2,1,1,5,-2,1,0
1558441204678724,0,1,3,0,-1,-11,1,3
1558441204678724,-1,0,-2,0,4,1,-1,-1
1558441204687245,-3,-1,-2,-3,-1,0,1,-2
1558441204687245,-3,-2,-3,-1,-4,3,-1,-1
1558441204702259,0,2,-3,-1,1,8,-1,-1
1558441204702259,-1,-1,0,-1,-1,2,0,-1
1558441204708469,0,0,-3,-1,-4,-4,-1,-1
1558441204708469,0,-5,-2,-5,-7,-12,-6,-2
1558441204724365,0,-1,0,0,1,11,3,0
1558441204724365,1,1,1,4,10,8,0,-1
1558441204726148,0,1,2,0,5,2,2,1
1558441204726148,0,2,-3,-2,-3,-7,-2,-1
1558441204738116,-4,-2,-4,-4,-6,-3,-4,-1
1558441204738116,1,-2,-3,-4,-6,-4,-2,-3
1558441204747086,3,2,2,1,2,-4,9,2
1558441204747086,0,-2,-3,-2,6,5,0,0
1558441204761349,-2,0,3,1,-4,1,-2,-4
1558441204761349,-2,-2,-1,-4,-4,-10,-5,-1
1558441204768198,-1,-3,-3,-2,-6,-2,-7,-3
1558441204768198,1,-1,1,2,-3,-6,-2,1
1558441204799973,1,-1,0,0,7,6,1,0
1558441204799973,-4,-5,-1,-3,-3,2,1,-2
1558441204800942,-1,1,-2,-1,-6,-9,-7,0
1558441204800942,0,1,0,0,1,2,1,1
1558441204801938,-3,-3,-3,-4,-7,-4,-4,-3
1558441204801938,-1,-1,-2,-3,-11,-6,2,-2
1558441204806925,1,-1,0,5,14,7,5,2
1558441204806925,-2,-2,0,2,9,8,1,-1
1558441204821996,0,0,0,-2,0,-4,0,-1
1558441204821996,-2,-3,-2,-2,-6,-9,-6,-3
1558441204828243,-3,-3,-1,-7,-16,-8,-3,-2
1558441204828243,1,1,-3,-2,-2,0,-2,-4
1558441204843827,-1,-1,-1,2,6,7,3,-2
1558441204843827,2,1,1,0,1,-6,2,5
1558441204845821,-1,-2,-1,-1,2,2,-1,-3
1558441204845821,-3,-3,-2,-4,-7,-5,-5,-3
1558441204858093,-1,0,0,0,-5,1,0,-3
1558441204858093,-1,0,2,1,6,3,2,-1
1558441204866766,-3,-1,-1,-3,-2,-10,-7,-3
1558441204866766,-1,0,0,0,-5,-7,0,1
1558441204880739,1,-1,-1,0,3,3,-2,-1
1558441204880739,-2,-1,0,2,10,11,3,-1
1558441204887712,0,-4,-4,-2,-11,-5,-5,-3
1558441204887712,-1,1,2,4,10,9,4,1
1558441204904663,-4,-2,0,-1,-1,-5,-2,2
1558441204904663,-3,-2,-2,-2,-2,-1,-3,1
1558441204905660,-3,-1,-3,-1,-7,-1,0,-1
1558441204905660,0,-1,-1,-2,2,0,-2,-2
1558441204917667,1,-1,0,-3,0,-3,0,0
1558441204917667,0,1,1,2,1,-4,0,-1
1558441204926606,-2,-2,0,-3,-1,3,-2,-4
1558441204926606,-2,-3,-5,-4,-15,-5,-4,-3
1558441204940605,-2,-1,-2,3,8,7,4,0
1558441204940605,-1,-2,0,-3,-3,-7,-6,-4
1558441204947549,-1,-2,-1,-1,-1,-1,-3,-2
1558441204947549,-3,-2,-1,0,-3,-3,-2,0
1558441204964076,-2,-3,-4,-2,-4,-3,-3,-5
1558441204964076,-1,0,-2,-4,-11,-2,0,-2
1558441204965960,-1,0,2,1,11,4,8,4
1558441204965960,-1,1,0,3,6,7,-1,-1
1558441204978327,1,0,0,-2,2,-1,1,1
1558441204978327,-1,-1,-4,-3,-7,-7,-8,-2
1558441204986905,-1,-2,-1,1,-3,-5,-1,-3
1558441204986905,2,1,0,-2,4,5,5,1
1558441205017240,2,1,2,2,-2,-13,-5,0
1558441205017240,3,-2,-1,-1,4,9,2,0
1558441205017822,-2,-4,-5,-3,-11,-7,-5,-2
1558441205017822,-3,-3,0,-1,-5,-10,0,1
1558441205025193,0,-1,0,0,1,-3,3,2
1558441205025193,0,0,0,4,6,6,-1,-1
1558441205026799,-1,0,-1,-1,2,5,-2,-2
1558441205026799,-2,-2,-2,-3,-7,-5,-2,-4
1558441205037769,-2,-2,-3,-3,-8,-2,-6,-2
1558441205037769,0,0,-1,0,1,1,1,-1
1558441205046968,-3,0,-1,0,7,4,1,-1
1558441205046968,1,-2,-1,-2,-4,0,-2,-2
1558441205077010,-2,-1,-1,1,1,-1,-2,-1
1558441205077010,-2,-2,-3,-4,-9,-2,-5,-3
1558441205078668,2,1,-1,-2,2,3,-1,0
1558441205078668,-1,0,0,1,0,-4,0,0
1558441205084983,-1,-1,-2,-5,-8,-6,-7,-3
1558441205084983,-1,-4,-3,-7,-11,-2,-1,-2
1558441205085641,3,4,5,9,19,12,6,4
1558441205085641,0,-1,1,-1,2,1,2,1
1558441205097610,0,-1,-1,-1,-1,5,1,1
1558441205097610,-3,-1,-3,1,-3,-6,-3,-2
1558441205106925,-1,1,-1,-2,-4,-8,1,2
1558441205106925,-2,-1,-3,-5,-5,-6,-2,-2
1558441205121792,-1,1,0,-1,-1,0,2,0
1558441205121792,-2,-2,1,2,3,4,0,-1
1558441205128818,-5,-4,-2,-5,-9,-8,-9,-8
1558441205128818,0,1,-3,-1,12,5,8,4
1558441205143831,2,2,0,3,5,4,7,4
1558441205143831,0,0,-1,0,7,3,-3,-2
1558441205150829,-1,-2,0,-3,-6,1,0,0
1558441205150829,-3,-1,-2,-3,-7,-4,-4,-4
1558441205158741,-4,-3,-2,-5,-8,-2,-3,-3
1558441205158741,1,0,-1,0,-1,-4,4,3
1558441205166786,1,1,0,3,19,10,5,2
1558441205166786,-3,-2,-3,2,-7,-4,-6,-1
1558441205181386,-2,-1,-4,-3,-6,-5,-5,-1
1558441205181386,-1,-2,-3,-3,-5,-6,-1,-1
1558441205188365,0,-1,-3,-2,-12,-11,-5,0
1558441205188365,0,-2,-1,0,0,-2,0,1
1558441205203325,-4,-2,-2,-2,-1,-1,-2,-3
1558441205203325,-1,-2,-1,0,1,1,1,-1
1558441205210337,2,-1,1,4,9,6,4,1
1558441205210337,-2,-4,0,-6,-6,2,-3,-4
1558441205218585,-1,-2,-2,-6,-10,-8,-6,-3
1558441205218585,-1,-1,2,0,-1,-6,-2,0
1558441205242523,0,0,0,-1,3,-2,2,2
1558441205242523,0,0,3,2,4,7,1,0
1558441205242523,-2,-1,-1,-1,-3,-3,-5,-5
1558441205242523,-3,-1,-2,-2,-4,-2,3,-1
1558441205248207,-3,-4,-3,-3,-2,3,0,-3
1558441205248207,2,-2,-2,1,-3,-6,-7,-3
1558441205263477,2,-1,0,1,4,-1,1,2
1558441205263477,1,-1,-1,-1,1,1,0,-1
1558441205271146,-4,-3,-4,-5,-11,-7,-9,-4
1558441205271146,0,0,0,3,1,7,3,-1
1558441205278422,-3,0,-1,-7,-3,0,1,-2
1558441205278422,-1,-2,-2,1,-1,-4,2,0
1558441205294388,1,-2,-2,-1,-3,-7,-6,-2
1558441205294388,-4,-4,-2,-4,1,-2,-3,-3
1558441205301357,-1,-1,-1,-2,-5,1,0,0
1558441205301357,-2,1,1,1,3,4,0,2
1558441205308329,0,1,0,-1,-2,-9,-2,2
1558441205308329,-1,-1,-3,-2,2,1,-4,-2
1558441205324322,0,-1,0,2,5,6,3,2
1558441205324322,-4,-2,-2,-2,-4,-7,-3,-4
1558441205329989,-3,-1,-3,-3,-5,2,0,-1
1558441205329989,-1,1,-1,-1,1,0,1,2
1558441205347314,-2,-3,-2,4,1,4,1,-1
1558441205347314,0,-1,1,-3,4,7,2,0
1558441205349331,-1,-3,0,-1,-5,-7,-3,-3
1558441205349331,-2,0,1,-2,-4,-6,-2,0
1558441205361568,2,-2,-1,1,-4,-2,-6,-2
1558441205361568,-2,0,-3,-2,3,7,1,0
1558441205368499,-1,-1,-1,-2,1,1,3,0
1558441205368499,0,1,-1,0,1,2,2,1
1558441205384349,1,0,1,0,0,-1,-1,-1
1558441205384349,1,-2,-2,-3,-7,-13,-10,-3
1558441205390197,-3,-4,-1,-2,-8,-5,0,-4
1558441205390197,2,0,1,0,1,3,3,0
1558441205407175,-1,1,0,-1,10,0,-1,-1
1558441205407175,-2,-3,-1,1,-4,-2,0,-2
1558441205408148,1,3,1,0,12,10,2,3
1558441205408148,-2,-2,-1,-3,-5,-6,-3,0
1558441205421222,-5,0,1,-2,-1,-2,-1,-2
1558441205421222,-3,0,-1,0,0,7,0,1
1558441205428441,-1,-3,-3,-1,-8,-1,-4,-3
1558441205428441,-2,-2,-2,-2,3,3,0,-3
1558441205444393,1,0,-3,-2,-4,-7,0,-1
1558441205444393,-2,-1,-1,-2,-3,-2,-2,-3
1558441205458343,2,2,1,0,1,-2,-2,0
1558441205458343,1,-2,-2,0,3,9,5,1
1558441205467369,-2,-1,1,-1,-3,-4,-1,-1
1558441205467369,0,1,-1,1,7,0,1,-1
1558441205467992,-3,-1,-1,-2,-1,0,0,-1
1558441205467992,-2,-3,-2,1,-6,-7,-4,-1
1558441205480292,1,0,0,-1,6,2,1,1
1558441205480292,-1,-3,-3,-4,-8,-5,-4,0
1558441205489284,-1,0,-2,1,-2,-2,-1,-1
1558441205489284,-2,-1,-3,-4,-2,-3,-3,-3
1558441205520029,-2,-2,-2,-2,-5,2,-2,-3
1558441205520029,1,-1,-1,1,2,8,5,1
1558441205520848,-3,-2,-1,-2,-3,-7,-4,0
1558441205520848,0,2,1,1,9,8,6,2
1558441205527076,1,-3,-2,0,1,-3,0,0
1558441205527076,-1,-2,0,-1,-1,-4,-5,-2
1558441205527830,0,-1,1,-1,4,6,2,2
1558441205527830,-1,-2,-2,-2,-8,-11,-5,-2
1558441205541039,0,-1,-2,1,0,5,2,0
1558441205541039,-2,-2,-5,-4,-3,-3,-5,-3
1558441205549769,0,-1,-1,-2,-4,0,0,-4
1558441205549769,-1,0,1,2,1,5,0,1
1558441205571743,0,-1,2,3,4,-5,2,2
1558441205571743,0,-1,-2,-6,-8,-10,-3,-3
1558441205573834,-1,-3,-3,-2,-6,0,-3,-1
1558441205573834,1,-1,-2,3,4,5,0,0
1558441205586917,-3,-2,-3,-4,0,-1,-3,-1
1558441205586917,-1,-1,-2,0,-2,0,-2,-2
1558441205588700,-1,1,1,1,3,1,1,0
1558441205588700,1,-2,-3,-5,-7,-6,-4,-4
1558441205600877,-1,0,-1,-2,-7,0,0,-3
1558441205600877,6,3,4,7,19,6,8,4
1558441205609611,-2,-1,-2,-2,-1,-5,-3,-2
1558441205609611,0,-2,-1,-3,-8,-4,1,0
1558441205623600,0,0,-1,0,2,-1,-2,-1
1558441205623600,-3,-2,-1,-1,-3,0,-3,-1
1558441205630553,0,0,-1,-1,-1,2,0,-2
1558441205630553,-2,-1,-1,-2,-3,-14,-8,0
1558441205646995,-1,-2,-2,-2,-8,-1,-4,-2
1558441205646995,1,-2,-1,-1,2,10,3,1
1558441205648505,0,-1,-1,0,5,2,2,-1
1558441205648505,-1,0,-2,0,-3,-6,-3,-3
1558441205660781,-1,-3,-4,-5,-8,-6,-5,-2
1558441205660781,0,0,3,0,1,-8,0,1
1558441205676777,-2,-3,-2,0,2,6,-1,-1
1558441205676777,-3,-1,-1,-1,-1,4,3,0
1558441205683715,-2,2,3,0,4,-4,-3,0
1558441205683715,-1,-1,-4,-3,-7,-7,-5,-3
1558441205690698,-2,-1,-1,1,-3,3,4,-1
1558441205690698,2,1,2,0,4,-3,3,1
1558441205707475,-1,-3,-3,-1,-1,-2,-3,0
1558441205707475,-3,-1,-1,1,-3,2,-2,-2
1558441205708347,0,-1,0,-2,-1,-4,-3,-1
1558441205708347,-1,0,-1,-4,0,3,-3,-3
1558441205720652,-1,-4,-2,-2,-6,-4,1,-1
1558441205720652,0,0,1,-1,1,1,-2,-1
1558441205737277,-2,-3,-2,-2,-1,-4,-4,-3
1558441205737277,-2,-3,0,1,2,4,2,-1
1558441205744386,-1,0,-2,1,1,-1,1,0
1558441205744386,-3,-2,-3,-3,-6,-7,-4,-2
1558441205750510,-1,0,-1,-4,1,-6,1,2
1558441205750510,-2,-1,-3,1,-7,-2,-8,-4
1558441205767425,0,-1,1,-2,3,5,3,-1
1558441205767425,2,0,2,1,11,7,5,3
1558441205768191,0,1,-1,0,-6,-10,-5,0
1558441205768191,0,-1,2,1,0,-2,-2,1
1558441205780433,-3,-1,-3,-2,-1,2,-1,-2
1558441205780433,-2,-2,-5,-5,-15,-7,-7,-6
1558441205797112,0,-2,0,1,-1,0,3,0
1558441205797112,2,1,2,2,12,4,5,3
1558441205803348,1,0,-2,1,5,7,-1,1
1558441205803348,-1,-2,-2,-1,0,-2,-2,-1
1558441205812072,-2,-3,-1,-4,-7,-10,-5,-3
1558441205812072,-4,-1,-3,-6,-9,-8,-4,-4
1558441205827027,-1,-1,1,1,2,4,2,0
1558441205827027,0,-1,-1,1,1,4,0,-1
1558441205828025,-2,-1,0,-3,1,0,-2,-2
1558441205828025,0,-3,-3,-1,-3,3,-2,0
1558441205848969,-3,0,0,-1,-1,-10,2,0
1558441205848969,0,-1,0,-3,-2,-7,-2,-1
1558441205850966,1,0,-1,0,6,3,3,1
1558441205850966,-2,0,-1,0,-1,7,2,0
1558441205863929,-2,-1,-1,-1,0,-1,-10,-3
1558441205863929,0,-3,0,-2,-2,-1,4,-2
1558441205870910,1,1,-1,2,0,-2,0,-1
1558441205870910,-3,-2,-1,-1,2,-3,0,0
1558441205886869,-2,-3,-1,-2,-2,1,-2,-1
1558441205886869,-2,-1,0,-3,-5,0,-2,-1
1558441205887866,3,-2,-1,2,4,7,3,1
1558441205887866,1,2,2,1,7,8,8,2
1558441205901198,-2,-1,0,-1,-4,-1,2,-1
1558441205901198,-3,-3,-3,0,-6,-6,-7,-4
1558441205909164,-1,0,-2,-3,-7,-9,-8,-4
1558441205909164,-1,-2,-2,-2,-6,-10,-3,-2
1558441205924459,-1,1,0,3,9,8,3,0
1558441205924459,-2,-2,-2,-3,-8,-9,-8,-3
1558441205930462,-3,-1,-2,-4,-7,-6,-5,-3
1558441205930462,1,-1,-1,0,2,8,2,-1
1558441205946508,1,1,1,2,4,-1,2,0
1558441205946508,0,0,-2,-4,-1,3,0,1
1558441205952525,-1,-3,-3,-4,-7,-11,-7,-2
1558441205952525,-1,-3,-1,1,3,-1,-1,0
1558441205960498,0,-1,-3,-5,-8,-2,-4,0
1558441205960498,-1,-2,-1,1,3,3,-1,-1
1558441205969445,-3,-1,0,-1,-4,2,1,-2
1558441205969445,1,1,2,3,7,-2,4,4
1558441205983407,-2,-3,-3,-2,-4,1,2,-2
1558441205983407,1,-1,-1,-1,3,-7,0,1
1558441205990389,-2,-2,-1,0,-4,-4,-6,-2
1558441205990389,0,0,-3,-4,-9,-8,-7,-4
1558441206007629,1,1,-1,0,3,5,1,0
1558441206007629,-4,-1,-1,1,1,4,2,-1
1558441206008805,-1,0,-2,-1,2,1,0,1
1558441206008805,-2,-2,-2,-4,-7,-6,-5,-4
1558441206020487,1,1,2,2,1,-4,0,2
1558441206020487,-1,-2,1,-1,1,4,2,-1
1558441206029542,2,-2,0,-1,0,-3,-3,0
1558441206029542,-2,-1,-3,-2,-2,1,-1,-1
1558441206043249,-1,-1,-1,3,-5,-6,-2,-1
1558441206043249,1,2,1,2,13,13,10,5
1558441206050266,-1,0,-1,-1,-4,-4,-2,-2
1558441206050266,-2,-2,-3,-2,-10,-12,-4,-3
1558441206066186,-2,-4,-2,-5,-5,0,-1,-2
1558441206066186,-1,1,-1,0,3,1,1,0
1558441206073655,-1,-2,-2,1,2,2,3,1
1558441206073655,0,-1,1,-1,2,-3,-7,-1
1558441206080588,-1,1,0,-1,1,-6,-3,1
1558441206080588,-1,0,-1,-2,-9,-2,-7,-3
1558441206089490,0,-1,-2,1,3,14,2,-2
1558441206089490,-1,2,0,-1,2,3,2,0
1558441206104466,0,-1,-1,-2,-3,-16,-3,-1
1558441206104466,0,0,-2,1,-5,2,-3,-2
1558441206110500,-2,0,1,0,6,5,5,2
1558441206110500,-1,-4,-1,-1,1,1,0,-1
1558441206126486,-3,-3,-3,-2,-4,5,-3,-3
1558441206126486,-1,-1,-2,-2,-4,-7,-1,1
1558441206133420,-2,-3,-1,-4,-5,4,-3,-3
1558441206133420,1,0,1,2,4,-8,2,1
1558441206141358,-1,1,2,0,3,0,2,-1
1558441206141358,-2,-1,-2,-1,4,3,-1,-1
1558441206148965,-1,1,0,-1,1,6,4,3
1558441206148965,0,0,1,2,-4,-2,-2,-1
1558441206163926,-1,-2,-2,-1,-2,2,-2,-4
1558441206163926,-2,0,0,-3,-4,-5,-4,-2
1558441206169912,1,-2,1,2,-1,-10,-3,1
1558441206169912,-1,-2,-2,-2,-1,4,1,2
1558441206186454,3,0,-1,-3,-3,-4,-1,0
1558441206186454,-1,-3,-1,-3,-4,0,-2,-2
1558441206193491,-3,0,-3,-1,-7,-6,-3,-4
1558441206193491,1,0,-1,-2,-1,-7,-1,1
1558441206201202,-1,-1,-1,0,4,9,2,-2
1558441206201202,0,-1,-3,2,-4,0,-1,-2
1558441206209181,1,-1,0,-1,6,5,3,1
1558441206209181,-2,-3,-5,-7,-10,-21,-13,-5
1558441206223171,-2,1,0,1,-9,2,1,0
1558441206223171,1,1,4,2,17,17,12,5
1558441206230120,-1,-1,-1,0,4,-1,-3,-1
1558441206230120,-5,-2,-5,-4,-9,1,-5,-5
1558441206255190,1,0,2,3,4,-2,5,2
1558441206255190,-5,-6,-3,-5,-7,-13,-5,-3
1558441206256518,-1,-1,-1,0,2,2,-1,1
1558441206256518,-3,-3,-3,1,-6,-6,-4,-2
1558441206277470,-1,1,-1,-3,-1,-3,-6,-3
1558441206277470,2,3,-1,-4,-8,-7,-1,-1
1558441206279081,-1,-1,0,0,-3,-2,-2,-1
1558441206279081,0,-1,-1,2,15,20,5,2
1558441206284431,-3,-2,2,-2,1,0,1,-1
1558441206284431,0,2,3,4,6,-3,0,0
1558441206291300,-1,-2,-3,-6,-6,-1,2,-4
1558441206291300,-1,-1,-4,-4,-5,2,-1,-1
1558441206306373,-1,-1,-3,-5,-7,-16,-10,-2
1558441206306373,-1,-2,1,2,3,-6,4,3
1558441206313331,-1,-1,0,-3,-3,3,2,2
1558441206313331,0,-1,1,0,6,5,2,0
1558441206330088,-1,0,-1,0,2,-5,-4,-1
1558441206330088,-3,-3,-4,-2,-6,-2,-4,-3
1558441206330852,0,0,1,0,-1,-6,-2,-1
1558441206330852,-1,-1,0,1,4,12,5,0
1558441206344398,-1,-3,0,1,-5,-1,-3,0
1558441206344398,-1,2,-1,-4,-4,0,-3,-3
1558441206350492,0,-3,-3,-1,0,2,1,-2
1558441206350492,0,0,1,1,-4,-9,-3,0
1558441206366452,0,-1,-3,-3,4,9,4,-1
1558441206366452,0,0,-2,-1,2,0,1,0
1558441206373408,-4,-2,-1,2,1,-1,-5,0
1558441206373408,-2,-1,-2,-3,-3,-2,-3,-2
1558441206389377,-3,-1,-1,-3,-1,-4,1,-1
1558441206389377,0,-2,-2,-2,-1,-6,-4,-2
1558441206391102,-2,1,-1,0,-2,-14,-6,0
1558441206391102,1,-1,2,-1,4,8,0,-2
1558441206403335,0,0,-3,-3,-5,4,-1,-3
1558441206403335,0,-2,-3,0,-5,-7,-4,-1
1558441206410049,0,-1,0,-3,3,-4,-3,-1
1558441206410049,0,1,0,-1,-1,1,3,-1
1558441206426007,0,-1,-1,2,1,7,2,0
1558441206426007,-4,-4,-4,-4,-8,-5,-4,-3
1558441206432993,0,0,0,0,2,0,3,1
1558441206432993,-1,-1,0,-1,1,1,0,1
1558441206448945,1,-2,1,0,0,1,-1,1
1558441206448945,0,-1,1,-2,-2,-1,0,0
1558441206450945,-1,-4,-3,-4,-6,2,-4,-3
1558441206450945,-2,0,-1,-1,-9,-13,-5,-2
1558441206463906,1,-2,0,-1,2,-3,-1,-1
1558441206463906,-1,0,1,2,4,10,4,0
1558441206471054,0,1,-2,3,3,0,0,-1
1558441206471054,-1,0,-1,-2,-2,-8,-3,0
1558441206485847,-2,-4,-3,-3,-2,2,0,-1
1558441206485847,-2,-1,-2,-1,-2,-2,0,-2
1558441206492860,1,-1,-2,-1,-2,-4,0,0
1558441206492860,-2,-1,-2,-1,-1,2,-3,-1
1558441206508818,-4,0,0,-1,0,1,0,-2
1558441206508818,-4,-2,-1,1,-4,1,-3,-1
1558441206510813,-3,-2,-4,-6,-13,-7,-8,-4
1558441206510813,0,1,1,1,9,-3,6,3
1558441206523744,0,2,1,2,3,1,4,0
1558441206523744,-2,1,0,-2,3,5,-1,0
1558441206530726,-2,-2,-1,-2,-6,-3,-5,-3
1558441206530726,-1,-3,-2,-3,-12,-13,-6,-6
1558441206546125,-1,-1,-2,0,7,3,-1,0
1558441206546125,5,1,4,0,11,6,3,2
1558441206553112,0,0,1,2,3,6,0,1
1558441206553112,-1,-4,0,2,1,6,2,0
1558441206569622,-4,-4,-2,-3,-12,-11,-7,-2
1558441206569622,-2,-1,-1,-3,-2,-8,-4,-2
1558441206570811,-1,0,-1,2,-3,0,-1,-3
1558441206570811,-2,-2,-3,-5,-8,-1,-1,-5
1558441206583960,-1,-1,-1,-1,4,3,4,0
1558441206583960,0,-1,2,2,4,4,1,0
1558441206590565,-3,-1,-1,-2,-2,-2,-1,-1
1558441206590565,-2,-1,-2,-3,-6,-7,-7,-2
1558441206606523,-1,-1,0,-1,3,4,2,2
1558441206606523,-1,-3,-1,-1,-1,-2,-1,-1
1558441206614509,0,-1,1,-3,0,2,3,0
1558441206614509,0,-3,-3,-2,4,2,0,2
1558441206629462,-1,-1,-4,-1,-9,-12,-7,-4
1558441206629462,-1,-2,-2,-2,-5,-2,0,-1
1558441206630460,-1,0,-2,-1,-2,0,0,0
1558441206630460,2,2,0,4,10,6,3,1
1558441206643425,0,0,0,-3,-1,1,-1,-1
1558441206643425,-2,-2,-4,-4,-6,-5,-3,-2
1558441206650406,0,-1,1,-1,6,1,2,1
1558441206650406,-1,-1,0,0,-1,1,2,0
1558441206666651,1,0,-2,-3,-7,-6,-4,-2
1558441206666651,-2,0,-1,-3,-3,0,-3,-2
1558441206672348,-1,2,-1,1,3,2,1,-1
1558441206672348,-2,-2,-2,-2,0,1,-2,0
1558441206689302,-2,-1,0,-1,-1,-1,0,-1
1558441206689302,-2,-2,0,0,-3,-4,0,-2
1558441206690325,-1,-4,-2,-3,-4,-3,-5,-4
1558441206690325,0,0,1,-3,-1,-5,2,-1
1558441206703272,0,-2,0,-2,1,6,3,-1
1558441206703272,0,0,-2,4,1,0,-1,1
1558441206718257,0,1,-1,-2,2,0,1,0
1558441206718257,0,-1,-2,-1,3,1,-3,0
1558441206742210,-3,-3,-2,-5,-15,-9,-10,-4
1558441206742210,-1,2,1,-1,1,-1,5,1
1558441206743160,0,0,0,3,12,0,4,3
1558441206743160,-1,-3,-2,0,-4,2,-1,-3
1558441206749146,-4,-3,-1,-4,-5,-6,-5,-2
1558441206749146,1,0,0,-1,1,-1,2,0
1558441206751136,-4,0,0,-2,-6,-6,-4,-2
1558441206751136,-2,-1,-3,-2,-11,-8,-8,-2
1558441206763106,0,0,-2,2,10,11,7,2
1558441206763106,0,-1,-1,-1,1,-1,-1,-3
1558441206772083,0,-2,-1,0,-5,4,-2,-3
1558441206772083,-2,-3,-3,-4,-3,-3,-2,-3
1558441206794022,-2,-1,0,-2,-5,-11,-5,-1
1558441206794022,0,0,2,3,6,12,5,4
1558441206796027,-4,-2,-2,-1,0,1,-2,-2
1558441206796027,0,0,1,-3,-5,-3,0,0
1558441206809980,3,0,0,1,6,1,-2,-2
1558441206809980,-3,-3,-3,-2,-1,-5,-5,-5
1558441206810978,1,-1,-1,-2,-3,-3,1,-3
1558441206810978,-3,-1,-3,-2,-8,-3,0,3
1558441206822945,0,-1,-2,3,8,12,2,1
1558441206822945,-1,-3,0,-3,-3,-9,-3,-1
1558441206831921,-1,1,2,-2,0,-3,2,3
1558441206831921,-3,-2,-1,-2,-4,-14,-7,-4
1558441206846105,0,2,0,2,2,8,4,3
1558441206846105,0,1,2,1,9,11,2,-4
1558441206852864,-1,-4,-6,-4,-9,-6,-2,-2
1558441206852864,-2,-1,-1,1,-1,0,-2,-3
1558441206868988,0,0,0,-2,-2,-2,0,0
1558441206868988,-1,-2,-3,-3,-4,-5,-2,-2
1558441206870848,1,0,2,0,6,6,1,1
1558441206870848,-1,-2,-1,-2,0,3,0,0
1558441206882785,0,-1,-2,-3,-5,-3,0,-2
1558441206882785,-2,-1,-1,1,-2,-5,0,1
1558441206907724,-1,-2,-1,-3,-5,-5,-6,-2
1558441206907724,0,-1,2,-1,4,10,-1,-2
1558441206908715,-2,-2,0,0,0,-9,-4,-2
1558441206908715,1,2,-2,-1,0,-8,1,3
1558441206912703,-2,-2,-2,0,1,8,2,-1
1558441206912703,1,0,-1,-1,3,2,3,1
1558441206929721,-1,-3,-3,0,-1,-4,-1,-4
1558441206929721,-1,-2,0,-3,-10,-7,-5,1
1558441206930656,-1,1,1,-1,6,2,1,2
1558441206930656,0,1,2,6,12,9,5,2
1558441206959579,-2,-1,-1,-3,-5,-2,-4,-2
1558441206959579,-3,-3,-4,-6,-9,-2,-4,-3
1558441206960585,-3,-2,-3,-1,-4,-6,-4,-2
1558441206960585,2,1,3,0,-2,1,5,2
1558441206966577,-1,0,0,-2,2,-7,-2,0
1558441206966577,0,-1,1,1,4,7,2,-1
1558441206972544,1,-2,-1,3,-2,0,-1,-1
1558441206972544,-3,-1,-1,-5,-3,-2,0,-4
1558441206989501,-2,-2,-4,-2,-7,-2,-1,-1
1558441206989501,0,3,-1,1,1,0,0,1
1558441206990496,-1,0,-1,-1,0,-3,-1,1
1558441206990496,-2,-1,-2,-3,-3,-4,-4,-2
1558441207002467,0,-3,1,-1,-1,1,-1,-1
1558441207002467,-2,-2,-4,-1,-8,-1,-6,-6
1558441207011442,-2,0,-2,-3,-6,-9,-8,-2
1558441207011442,-2,0,-1,0,1,-6,-3,0
1558441207026401,0,-2,0,1,-2,4,1,1
1558441207026401,1,-1,0,0,10,5,0,2
1558441207032384,-1,0,0,-2,-2,0,0,-3
1558441207032384,-2,-4,-3,-2,-11,-4,-2,-2
1558441207048348,-1,0,-1,-1,3,-6,-2,0
1558441207048348,-3,-1,0,-3,-2,2,0,-2
1558441207055337,-1,-3,-1,-3,-7,-2,-7,-2
1558441207055337,-1,0,-1,-1,-1,-1,5,1
1558441207072277,1,-1,-1,0,6,0,-3,0
1558441207072277,0,-4,-1,-4,-8,-4,-3,-1
1558441207073277,-1,0,2,4,8,8,5,4
1558441207073277,0,1,-1,-4,-1,0,-4,-2
1558441207086240,-3,-2,-2,-2,-7,-2,-1,-1
1558441207086240,0,-1,-3,0,-3,-4,-4,-4
1558441207093221,1,-3,0,-3,-4,-6,0,-1
1558441207093221,0,1,1,2,6,1,-2,0
1558441207108484,-1,1,1,2,1,2,0,-2
1558441207108484,0,-1,0,-3,-6,-9,-7,-2
1558441207124138,-2,0,-1,-2,-2,-1,1,-1
1558441207124138,-1,-3,-1,-1,-1,3,2,0
1558441207124138,-3,0,-3,-3,-4,-7,-2,-1
1558441207124138,-2,-3,-2,-3,-3,5,1,-2
1558441207132117,1,-2,-1,1,10,11,2,0
1558441207132117,-2,-2,-2,-1,-5,-11,-5,-2
1558441207146081,3,3,4,3,11,9,8,4
1558441207146081,-1,0,-1,1,-1,-5,2,2
1558441207153064,-3,-2,-1,1,0,-3,-1,-3
1558441207153064,-2,-2,-2,-4,-4,1,-4,-2
1558441207184976,-4,-4,-6,-8,-17,-7,-5,-6
1558441207184976,0,0,-2,-2,-7,-5,0,-1
1558441207185973,2,1,2,5,17,10,4,4
1558441207185973,-3,-1,1,-2,0,-4,-3,-2
1558441207186973,-2,-3,-2,-4,-11,-4,-2,-4
1558441207186973,0,-2,0,4,7,3,1,0
1558441207198961,-2,-2,-2,-3,-9,-5,-3,-3
1558441207198961,2,-2,-4,-1,-1,-2,-3,1
1558441207205984,-4,0,-3,-2,-6,-9,-7,-1
1558441207205984,-2,0,0,0,0,4,5,1
1558441207228918,-1,1,-2,-3,2,6,0,-2
1558441207228918,0,0,1,1,9,3,0,0
1558441207229857,0,-3,-2,1,-5,-4,-2,1
1558441207229857,0,1,1,-3,8,-4,-5,-1
1558441207235064,-6,0,0,-3,-9,-6,-3,0
1558441207235064,0,0,-2,0,-7,2,3,0
1558441207252002,2,-1,0,0,11,-5,-4,-1
1558441207252002,-2,-2,-2,-3,-4,-1,-2,-4
1558441207252795,3,0,-1,2,3,2,2,2
1558441207252795,-5,-1,-2,-1,-2,5,0,-2
1558441207265760,-3,-2,-1,-1,-1,4,2,-1
1558441207265760,0,0,0,-1,-1,0,0,-1
1558441207272775,-2,-2,-1,-1,-3,-6,-5,-3
1558441207272775,-1,-2,-3,-1,-5,0,0,-2
1558441207288859,0,2,1,-3,-1,-1,-2,0
1558441207288859,-1,-2,-2,1,2,-1,-5,-2
1558441207295680,0,-3,-1,-2,-1,-2,2,0
1558441207295680,1,-2,-1,-3,-5,-2,2,0
1558441207311637,-2,-2,-2,0,-3,-1,0,-2
1558441207311637,0,0,0,2,7,-2,0,0
1558441207313632,-2,-1,-1,-1,3,7,5,0
1558441207313632,-2,1,-1,-1,-4,-6,-3,-2
1558441207334576,-1,-1,-1,1,6,-2,-2,0
1558441207334576,-2,-1,0,-3,-7,0,-1,1
1558441207335575,-2,-1,0,-2,-3,-4,-8,-3
1558441207335575,1,-1,-2,4,7,6,0,-1
1558441207348539,-2,-2,-3,-2,-8,0,-1,-2
1558441207348539,0,1,0,-1,1,-3,0,0
1558441207355523,-2,0,-4,-1,-8,2,-3,0
1558441207355523,-3,-1,1,0,-2,6,3,-2
1558441207371483,0,-1,2,0,0,-11,-2,0
1558441207371483,0,-3,0,-1,3,3,2,-1
1558441207373473,-2,-3,-1,-1,-15,-15,-5,-1
1558441207373473,-2,-2,-2,-4,2,7,-2,0
1558441207386439,-2,1,-1,0,7,6,5,1
1558441207386439,-2,-1,-3,-3,-11,-5,-4,-2
1558441207392422,1,-1,-3,-2,3,3,0,-3
1558441207392422,2,1,0,1,5,-4,2,2
1558441207408379,-2,0,-1,0,-4,-5,-2,0
1558441207408379,-3,-2,-2,-2,-3,3,-1,-2
1558441207415359,-2,0,-2,-2,-9,-9,-3,-4
1558441207415359,-2,-1,0,-1,-4,-5,-3,-1
1558441207431319,0,1,1,3,11,15,6,2
1558441207431319,-1,-1,-2,0,2,2,2,1
1558441207433312,0,-1,-2,-2,-3,-4,0,0
1558441207433312,0,1,0,1,-3,-6,-1,0
1558441207446278,0,-1,1,-3,1,-3,-1,-2
1558441207446278,-2,-1,-2,-2,-1,-5,-5,-1
1558441207453259,-3,-2,-2,-2,-3,-3,-3,-2
1558441207453259,-2,-3,-2,-4,-2,2,-5,-4
1558441207468218,0,1,-2,-2,-3,5,5,-1
1558441207468218,0,0,2,2,2,-8,-3,1
1558441207475201,-2,-1,0,0,1,-1,0,-2
1558441207475201,-2,-2,-3,-3,-4,-1,-2,-2
1558441207492155,-1,-3,-3,-3,-6,-1,-4,-3
1558441207492155,1,1,-1,1,8,2,7,3
1558441207493153,-2,-2,0,-3,2,-2,-3,-1
1558441207493153,-3,-3,0,-2,-6,-2,-3,-2
1558441207506118,-1,-2,-3,-1,-6,1,-7,-5
1558441207506118,1,0,-1,-1,0,-1,3,0
1558441207513100,4,2,1,1,9,3,6,3
1558441207513100,-2,-1,-3,1,1,2,-1,-2
1558441207528062,-5,-2,0,-2,-9,-8,-6,-3
1558441207528062,-3,-1,0,-4,-6,4,-2,-3
1558441207535040,-1,-1,-2,0,3,-1,0,1
1558441207535040,5,2,4,3,8,-1,4,4
1558441207551994,-1,0,-1,0,3,0,2,1
1558441207551994,-4,-3,-1,-3,-2,4,2,-3
1558441207552993,-3,-3,-3,-1,-8,-4,-3,-2
1558441207552993,-2,-1,-2,-2,2,-1,-2,0
1558441207565958,-1,0,1,-1,4,2,1,1
1558441207565958,0,-1,-3,-2,-3,-5,-3,-2
1558441207572938,-2,-2,-1,0,1,1,0,1
1558441207572938,-2,-2,0,-1,2,3,-1,1
1558441207588899,0,-1,-1,-3,-6,-13,-3,-2
1558441207588899,0,-1,0,1,-1,-6,1,0
1558441207594887,-1,-1,0,-2,-3,-1,-2,-1
1558441207594887,-2,0,-2,-1,2,3,2,-2
1558441207611834,-5,-2,-4,0,1,5,2,-2
1558441207611834,-3,-3,-3,-3,-7,-7,-5,-4
1558441207613830,0,0,-3,-2,-5,2,2,-1
1558441207613830,-2,-3,-1,-2,-9,-8,-8,-4
1558441207625800,1,-1,-1,1,5,5,-1,-1
1558441207625800,-2,0,-2,-2,5,8,1,1
1558441207632778,-1,0,-1,0,8,-2,0,1
1558441207632778,-2,-1,-2,-2,-5,-2,2,-1
1558441207648736,-1,0,-2,-3,-4,-6,-4,-2
1558441207648736,0,-2,1,-4,-6,-8,-3,-1
1558441207655716,-1,-1,0,1,-1,4,3,0
1558441207655716,1,-1,-3,-4,-6,-6,-4,-3
1558441207671676,-4,-3,-2,-1,-7,-3,-2,-1
1558441207671676,0,0,0,3,6,7,4,2
1558441207672672,-2,-1,0,1,-1,3,2,0
1558441207672672,2,1,1,2,9,-1,2,1
1558441207685637,-1,-3,-2,-3,-4,0,-3,-2
1558441207685637,-2,-2,-2,-1,-5,-3,-6,-5
1558441207692619,0,-1,-1,-5,-2,-1,-6,-1
1558441207692619,-1,1,1,0,2,5,4,2
1558441207708579,1,2,2,1,9,10,6,1
1558441207708579,-2,0,-1,-2,-4,-2,-4,-1
1558441207715564,-3,-2,-2,-3,-8,-13,-10,-3
1558441207715564,2,1,-1,2,6,8,3,1
1558441207731514,-2,-1,-3,-1,-5,-6,-2,0
1558441207731514,-1,-3,-2,-2,-2,-1,2,-1
1558441207733510,-2,-3,-3,-3,-7,-2,-3,-5
1558441207733510,0,-1,-1,-1,-5,-12,-6,-1
1558441207745482,-1,-4,-1,-1,-2,-2,2,-2
1558441207745482,2,1,3,2,6,5,1,1
1558441207754454,-1,-1,-2,0,-3,1,2,-2
1558441207754454,-1,0,-2,-3,-8,-1,-2,0
1558441207768421,1,1,-2,0,10,-3,-3,-1
1558441207768421,-4,-1,-2,-1,-6,-8,-5,0
1558441207792351,0,-1,0,-1,6,7,1,0
1558441207792351,-1,-2,0,-4,-4,-6,-1,-1
1558441207793349,0,0,-3,-4,-6,-4,-2,0
1558441207793349,-1,-3,-2,0,1,4,-1,-1
1558441207794346,3,0,-1,0,4,1,2,1
1558441207794346,-2,-3,-2,-4,-7,-1,-6,-6
1558441207805322,-1,-1,1,0,-8,-3,-7,-3
1558441207805322,-3,-2,-2,-2,1,-3,2,2
1558441207814296,0,0,0,-2,-5,-6,1,0
1558441207814296,-1,-2,-1,0,-3,-4,-2,-2
1558441207828256,0,1,0,2,10,8,3,0
1558441207828256,1,0,0,-1,-3,-7,-2,-1
1558441207835237,0,0,1,0,-1,7,2,-1
1558441207835237,-2,-3,-2,3,3,9,3,0
1558441207851195,-1,-5,-2,-3,-2,1,-1,-4
1558441207851195,-2,-2,0,-2,-9,-9,-6,-2
1558441207853189,-2,-2,-3,-3,-6,-18,-9,-1
1558441207853189,-2,0,-2,-2,-3,-5,-4,0
1558441207865157,-1,2,1,0,8,15,9,1
1558441207865157,-4,-1,-2,-2,-1,8,1,-1
1558441207874135,-4,-3,-3,-3,-10,-7,-4,-3
1558441207874135,2,0,1,0,6,-7,0,1
1558441207897072,0,2,0,-1,0,-3,-1,2
1558441207897072,-2,-1,-1,2,4,3,3,0
1558441207898075,-1,0,-1,-1,0,11,3,0
1558441207898075,-4,-3,-3,-5,-6,-10,-6,-1
1558441207912040,-1,-3,-1,-1,-11,-8,-4,0
1558441207912040,2,-2,-2,-4,-4,2,-4,-3
1558441207913030,-1,-1,1,1,10,8,0,0
1558441207913030,0,0,-2,4,8,10,11,3
1558441207924996,-3,-3,-2,-1,-2,-8,-4,-2
1558441207924996,-2,-1,-6,-4,-7,-7,-4,-1
1558441207933974,-2,-2,-1,0,0,0,1,-2
1558441207933974,1,-2,-1,-2,-3,1,-3,-1
1558441207956911,0,0,-1,-1,-3,0,0,-2
1558441207956911,-2,-2,-1,0,3,-2,-1,-2
1558441207957908,-3,-1,-1,-1,-8,-5,1,0
1558441207957908,-2,0,0,-2,5,7,2,-1
1558441207970879,1,0,-2,0,1,1,-3,-3
1558441207970879,-2,-2,-4,-2,-7,-12,-6,-3
