timestamp,emg1,emg2,emg3,emg4,emg5,emg6,emg7,emg8
1558441088726133,0,-1,-4,-23,11,13,5,-2
1558441088726133,1,0,-2,10,-6,-4,-6,-4
1558441088727130,-2,-1,-1,4,-5,-2,-4,-2
1558441088727130,-2,-3,-1,-11,-1,-7,1,0
1558441088728128,0,-3,-5,1,-4,-3,-1,-2
1558441088728128,1,-2,0,9,-3,0,-2,3
1558441088728128,-1,0,-1,-11,-4,1,-4,-3
1558441088728128,1,-2,-2,-7,-1,-4,1,-4
1558441088752064,-1,2,2,18,-1,1,3,2
1558441088752064,-2,-1,-1,-8,5,1,1,0
1558441088753062,-1,-2,-3,-13,-7,-4,-2,-3
1558441088753062,-1,1,-1,12,-3,-8,-5,-2
1558441088755056,-1,-1,-1,-2,-3,-3,-3,2
1558441088755056,-2,-2,-3,-12,-6,-6,-2,-2
1558441088770016,1,0,1,7,10,4,7,0
1558441088770016,-2,-1,-1,3,3,8,0,0
1558441088777995,-3,-3,0,-3,-1,-5,-4,-4
1558441088777995,-3,-2,-1,-6,-3,-2,0,-4
1558441088783979,-3,-1,1,6,-1,-5,-3,-1
1558441088783979,0,-1,1,0,0,4,0,-1
1558441088807915,4,2,-2,-7,4,0,2,0
1558441088807915,-1,-1,-4,0,-4,-4,-3,-2
1558441088808912,-2,-1,-1,0,-1,-2,-2,-1
1558441088808912,-1,-2,-1,-5,-2,6,1,-1
1558441088815894,-2,-2,2,3,0,-5,0,0
1558441088815894,0,1,2,1,1,-2,1,-2
1558441088830853,-1,-1,-1,-2,6,6,4,-1
1558441088830853,-2,-2,-2,-1,-7,-4,-6,-5
1558441088867754,-2,2,2,6,0,-12,-3,-2
1558441088867754,-2,0,-1,-16,3,7,2,1
1558441088868752,0,0,-2,2,0,0,-1,-3
1558441088868752,0,1,-2,9,-2,2,-1,1
1558441088875735,0,0,-2,-7,3,9,-1,-1
1558441088875735,-3,-3,-5,-11,-13,-9,-4,-4
1558441088876732,-3,0,1,15,-1,0,2,3
1558441088876732,2,1,4,-1,9,5,7,4
1558441088881718,-1,-3,-5,-15,-1,0,1,2
1558441088881718,4,3,1,18,7,4,-2,-2
1558441088890694,-5,-1,-4,-7,-4,-1,-3,-3
1558441088890694,-2,-2,0,-11,-10,-10,-6,-7
1558441088896677,-1,-2,0,7,2,0,2,-2
1558441088896677,-3,-2,-2,2,-3,-3,-1,2
1558441088913632,3,-1,-3,-10,-6,-12,-7,2
1558441088913632,1,1,1,0,10,12,9,1
1558441088919616,-3,-2,2,11,3,-1,-3,-4
1558441088919616,-5,-3,0,0,3,-1,-5,-3
1558441088928593,-2,-2,-4,-9,-5,5,-3,-3
1558441088928593,-3,-4,-4,2,-12,-16,-7,-1
1558441088941557,2,2,0,-1,-2,-5,4,2
1558441088941557,0,0,4,0,0,0,2,1
1558441088975467,-1,2,1,2,11,9,5,1
1558441088975467,-3,-2,-6,-6,-5,-3,-5,-1
1558441088975467,-3,-2,0,-3,-6,-11,-4,-2
1558441088975467,1,-2,-2,-3,-3,-5,-6,-2
1558441088979457,1,1,2,4,-1,-1,1,-1
1558441088979457,-1,-2,-2,-2,-3,1,-4,-1
1558441088980453,0,1,1,-2,-1,-1,-1,2
1558441088980453,-1,1,-1,4,1,-6,-1,1
1558441088988432,-1,-1,3,0,2,-5,-5,-2
1558441088988432,-3,-2,-3,-6,-5,-5,-4,-1
1558441089001397,-1,-4,-5,-1,-11,5,-2,-3
1558441089001397,-1,-1,-1,2,4,14,6,-1
1558441089026330,-1,0,-2,-2,2,-9,3,-1
1558441089026330,-1,-1,0,2,0,-8,0,0
1558441089027328,0,0,0,0,-2,3,-4,-1
1558441089027328,-2,-3,-4,-7,-10,-3,-1,-1
1558441089033313,1,1,4,3,5,10,4,4
1558441089033313,-2,-1,-3,2,3,0,-2,-3
1558441089039296,-4,-5,-4,-8,-10,-2,-4,-6
1558441089039296,1,0,2,0,8,-1,0,0
1558441089054255,-3,-3,-3,-2,-13,-9,-4,-2
1558441089054255,-1,-2,3,-1,-4,-3,-3,-1
1558441089062235,1,2,1,3,12,11,9,3
1558441089062235,0,-2,-3,-6,1,6,3,0
1558441089070213,-1,-1,-2,3,7,9,4,0
1558441089070213,-1,0,0,0,3,0,-5,-3
1558441089084175,-1,-1,-3,0,-3,-13,-4,-1
1558441089084175,-2,0,0,0,-6,-2,1,-1
1558441089093152,-1,-2,-1,-4,-6,-1,-5,-2
1558441089093152,-2,-4,-5,-4,-9,3,-1,-3
1558441089099137,-1,0,1,2,4,4,-2,0
1558441089099137,0,2,-3,1,7,-6,0,-2
1558441089114095,0,0,-4,-3,1,7,2,-1
1558441089114095,-1,3,0,-3,10,6,4,2
1558441089153990,-3,-3,0,-3,-9,-10,-7,-3
1558441089153990,-3,-4,-5,-2,-13,-6,-7,-5
1558441089155983,0,-1,1,-3,-6,-7,-4,-3
1558441089155983,1,1,2,6,13,3,8,3
1558441089156982,0,-1,-3,-4,3,6,3,1
1558441089156982,1,0,1,-1,1,-1,3,1
1558441089160971,-2,-3,-3,-2,-5,-5,-1,-2
1558441089160971,-1,0,1,-3,-4,-2,-4,-3
1558441089161970,1,2,1,-3,0,1,-4,1
1558441089161970,-4,-4,-3,0,-6,-6,-9,-7
1558441089173936,-2,-2,-3,-4,-2,-3,-3,-1
1558441089173936,0,-2,-2,-1,-4,-1,0,0
1558441089190890,-1,0,2,1,4,6,5,2
1558441089190890,-2,-2,0,1,-1,-6,0,0
1558441089191888,0,-1,0,3,6,2,3,0
1558441089191888,-3,-2,-6,-11,-6,0,0,-4
1558441089196874,-1,-5,-2,3,0,-5,-5,-5
1558441089196874,0,0,-2,-5,-6,-4,-1,0
1558441089212832,-1,2,1,-2,-1,1,0,1
1558441089212832,-2,-1,1,5,2,-1,3,1
1558441089219813,-1,0,-2,-4,-5,-4,-3,-2
1558441089219813,0,-2,0,-1,2,5,-3,1
1558441089251728,-2,-4,-1,-3,-8,-6,-6,-4
1558441089251728,-1,-2,0,-1,-7,-5,-4,-2
1558441089251728,-4,0,-4,-4,2,2,1,1
1558441089251728,-1,0,1,1,5,-4,0,3
1558441089253723,-1,1,-2,2,1,1,-1,0
1558441089253723,1,1,1,1,1,0,3,1
1558441089264693,-3,0,-2,-4,-4,-4,-6,-5
1558441089264693,-2,-3,-4,-1,-11,0,0,-2
1558441089272671,1,0,0,-2,6,-4,1,-1
1558441089272671,1,-2,0,0,4,0,-1,-1
1558441089279653,-2,-2,-1,3,1,2,-2,-3
1558441089279653,-1,1,1,3,-5,-9,-3,1
1558441089295610,-1,-1,-4,-4,7,12,4,-2
1558441089295610,-2,-1,-2,-2,-6,-9,-6,-3
1558441089301594,0,-1,-3,-3,-9,-3,0,0
1558441089301594,-2,-1,-1,-3,7,7,3,2
1558441089310570,-1,-2,2,2,0,-3,-2,-3
1558441089310570,1,1,-4,-1,-4,2,-2,-1
1558441089316554,-1,-1,-1,-5,-7,-7,-4,0
1558441089316554,0,0,4,2,7,5,1,-1
1558441089333509,2,-1,0,3,2,-5,-1,1
1558441089333509,-2,-3,-1,-4,-8,-3,-3,-3
1558441089339492,0,0,1,-2,-5,-5,-3,-1
1558441089339492,1,0,-3,0,9,9,1,1
1558441089354455,-2,-3,1,1,-3,-9,-4,0
1558441089354455,-1,-3,-1,-2,-2,2,-1,-2
1558441089361434,-1,-1,-1,0,-2,-1,-1,-1
1558441089361434,0,1,2,5,-2,-3,2,0
1558441089370425,-1,-2,-7,-7,-5,1,-1,-1
1558441089370425,2,-1,-2,1,4,1,1,-2
1558441089376395,-3,-3,-1,1,4,1,-2,-2
1558441089376395,-2,0,-2,-3,-8,-10,-11,-6
1558441089393349,-4,-3,0,-4,-10,-4,-2,0
1558441089393349,-2,1,-1,0,4,3,0,2
1558441089407311,1,2,1,6,9,1,4,2
1558441089407311,0,-1,-1,-2,1,2,2,-3
1558441089414293,0,-2,-2,-5,-13,-8,-8,-6
1558441089414293,-1,-1,-1,0,-2,1,-2,1
1558441089422270,-1,-2,-4,-3,-4,-2,1,0
1558441089422270,1,-1,-1,-3,3,8,2,-1
1558441089430250,-1,-1,-1,-2,-2,-13,-3,1
1558441089430250,1,1,2,3,3,-1,1,0
1558441089444212,-2,-2,-1,-3,2,4,0,-2
1558441089444212,-3,-4,-9,-5,-8,-4,-5,-2
1558441089453189,-2,-1,1,2,0,6,-1,-3
1558441089453189,-1,1,-1,-3,1,2,4,-1
1558441089467151,2,1,2,1,4,2,3,-1
1558441089467151,-1,0,0,-1,-2,-6,-3,0
1558441089474133,-2,-1,-4,-3,-8,-7,-5,-3
1558441089474133,1,-1,0,-5,1,3,3,1
1558441089482110,1,-1,1,2,6,5,6,1
1558441089482110,0,0,1,2,5,4,-1,-2
1558441089491087,-1,-1,1,1,2,-3,-4,-2
1558441089491087,-2,-4,-5,-5,-13,-9,-4,-2
1558441089513029,-1,-2,-4,-3,-9,-8,-7,-4
1558441089513029,1,-2,0,-3,2,0,2,3
1558441089515022,0,-1,1,0,-2,5,-1,0
1558441089515022,-1,-1,2,5,7,0,-1,0
1558441089526991,0,0,4,-2,0,6,1,0
1558441089526991,-5,-1,0,-3,-8,-6,-4,-2
1558441089533972,-2,0,-3,0,1,7,3,-4
1558441089533972,-1,-4,0,-1,-4,0,-5,-1
1558441089541951,-2,-2,-1,-2,-4,-7,-4,-1
1558441089541951,2,2,3,1,9,2,7,2
1558441089550927,-2,-2,0,-3,0,-5,0,0
1558441089550927,-4,-2,-3,-4,-15,-11,-9,-5
1558441089572869,2,2,3,3,13,14,4,3
1558441089572869,-1,0,1,-1,-3,2,-4,-2
1558441089579850,1,1,-1,0,4,0,-1,1
1558441089579850,0,1,-1,-2,6,-2,1,0
1558441089580848,-4,-3,-5,-5,-13,-5,-4,-4
1558441089580848,-2,-3,1,-3,-8,-3,-1,0
1558441089593813,-1,0,0,0,8,3,1,-1
1558441089593813,0,0,0,0,-8,-12,-5,-4
1558441089601791,0,-1,-1,0,-1,1,2,-1
1558441089601791,0,-1,-1,0,4,3,5,2
1558441089610767,-2,-4,-1,-6,-8,-2,-3,-2
1558441089610767,-3,-1,-3,0,-5,-4,-5,0
1558441089641685,2,1,0,1,9,0,2,1
1558441089641685,-4,-3,-2,-4,-10,-10,-11,-8
1558441089642681,-1,-2,-2,2,0,7,4,1
1558441089642681,-3,0,1,2,6,12,5,0
1558441089643679,-3,0,-1,-3,-7,-13,-3,-1
1558441089643679,-1,-2,-4,-3,-2,-3,-3,-2
1558441089654650,-1,1,1,3,7,4,4,1
1558441089654650,1,0,1,-1,6,4,3,-1
1558441089661632,0,-3,-2,-2,-6,-4,-4,-3
1558441089661632,1,-1,-2,4,-6,-4,-3,-1
1558441089670607,-2,-2,-1,-8,1,-1,-1,-3
1558441089670607,2,0,-3,-2,-3,-1,-2,-1
1558441089693545,-2,-3,-6,-1,-3,-2,-2,0
1558441089693545,0,2,2,-1,6,5,2,1
1558441089694543,1,-1,-2,0,-4,-1,-1,1
1558441089694543,-1,-2,2,0,1,-1,-2,-2
1558441089699529,-1,1,-1,0,-2,-5,-2,-1
1558441089699529,-1,-3,-2,-1,-1,-2,0,-1
1558441089715487,2,2,2,1,4,3,3,1
1558441089715487,-4,-2,-3,-3,-4,-1,-4,-2
1558441089721472,0,-3,-1,-1,1,2,0,0
1558441089721472,-1,-2,-1,-4,-6,-4,0,-1
1558441089730447,0,1,0,4,3,2,-1,-1
1558441089730447,-2,-3,0,0,3,-1,-1,-1
1558441089744410,0,1,0,-1,3,3,0,0
1558441089744410,-3,-1,-3,-3,-3,-5,-2,-2
1558441089753386,-2,0,-1,-2,-1,4,1,-1
1558441089753386,0,-1,0,0,1,-3,-4,-1
1558441089759371,-2,-3,-3,-6,-5,-3,-6,-3
1558441089759371,0,-2,1,-2,-1,-6,1,1
1558441089775327,1,0,3,1,10,5,4,4
1558441089775327,1,0,-2,-2,-1,4,0,0
1558441089781311,-2,-1,1,2,2,0,0,-4
1558441089781311,-4,-3,-5,-6,-13,-14,-9,-5
1558441089790287,-2,-4,-3,-6,-12,-6,-5,-3
1558441089790287,4,2,4,8,13,2,6,6
1558441089804249,1,-1,1,-2,5,7,7,2
1558441089804249,-1,0,0,0,6,6,-1,-2
1558441089813226,-4,-4,-5,-4,-10,-10,-7,-3
1558441089813226,-3,-4,-4,-2,-8,-5,-3,-6
1558441089819210,-1,-1,0,-2,-8,-5,-2,-3
1558441089819210,1,1,2,0,8,3,-1,1
1558441089835166,-1,-2,-2,0,-5,-4,-5,-3
1558441089835166,-1,-2,-3,-3,0,-4,-1,2
1558441089842147,-1,0,-2,-1,-1,-1,-3,0
1558441089842147,-1,-1,1,5,3,4,0,-2
1558441089857108,0,-1,-1,-7,-5,-9,-6,0
1558441089857108,-1,2,1,1,7,11,5,2
1558441089864098,-2,-1,-1,-2,-1,-3,-1,-3
1558441089864098,-1,-3,-2,1,-1,-3,0,-2
1558441089880047,-2,-3,-3,-3,-6,3,-2,-2
1558441089880047,-1,-1,0,-2,-1,-9,-2,-2
1558441089881044,1,2,-3,2,-3,-8,-4,1
1558441089881044,1,-1,0,0,3,6,2,-1
1558441089896006,-1,0,0,1,3,1,1,-2
1558441089896006,-3,-4,-3,-1,-8,3,0,-3
1558441089901994,-1,2,1,1,2,6,2,3
1558441089901994,0,1,1,-1,5,-3,0,2
1558441089916947,-1,-2,-5,-6,-7,-10,-3,-2
1558441089916947,-2,-1,-3,-5,-12,-8,-8,-3
1558441089923929,-1,-2,2,0,-1,3,4,1
1558441089923929,1,2,1,3,12,7,3,1
1558441089939887,-2,1,3,5,8,4,3,3
1558441089939887,-2,-1,0,-3,-1,-2,-1,-3
1558441089940883,0,-2,-3,-5,-5,-5,-5,-4
1558441089940883,-1,-2,-1,0,-9,3,-4,-4
1558441089955844,0,-1,1,1,1,-3,-5,0
1558441089955844,1,-3,-2,-2,-2,3,-1,0
1558441089961829,2,1,0,4,5,-5,0,0
1558441089961829,-1,-1,-3,0,4,0,4,3
1558441089976788,0,-2,-1,-2,-3,-2,-2,-5
1558441089976788,-3,0,1,-2,-1,-7,-2,-1
1558441089984766,-3,-3,-2,-1,-3,-2,-5,-3
1558441089984766,0,-3,-3,-2,-4,5,1,0
1558441089999726,-2,-4,-5,-2,-4,5,3,0
1558441089999726,1,1,3,1,4,3,3,2
1558441090000726,-2,-2,-1,-1,-6,-3,-1,0
1558441090000726,1,1,3,-1,2,-7,-1,-1
1558441090015683,-2,1,1,2,8,8,2,-2
1558441090015683,-3,-2,-4,1,-3,-6,-3,-6
1558441090021667,-2,-3,-3,-5,-3,-5,-6,-1
1558441090021667,-1,2,-3,-1,-4,4,-1,1
1558441090036628,0,-2,-2,1,-4,-1,1,0
1558441090036628,0,1,0,-1,3,-3,-3,1
1558441090044606,-2,-2,-3,-4,-3,-1,-2,-2
1558441090044606,-5,-2,-1,-2,-8,-4,-5,-1
1558441090059566,0,0,2,4,9,-1,2,1
1558441090059566,0,-1,0,-2,0,0,1,-1
1558441090060563,-2,0,-4,-7,-6,-1,-5,-3
1558441090060563,-2,0,-3,-2,-9,-5,-7,-4
1558441090075523,-1,-3,1,-2,-1,-6,-2,-2
1558441090075523,0,1,2,1,9,7,9,3
1558441090081507,0,0,-1,3,0,-3,-2,2
1558441090081507,-1,-2,-2,-1,4,5,0,-2
1558441090096467,-1,0,-4,-12,-11,-9,-8,-3
1558441090096467,-1,-3,-3,-2,-9,-6,-5,-3
1558441090104447,0,-2,1,0,4,6,3,0
1558441090104447,3,0,2,1,9,-2,1,0
1558441090119406,0,0,-3,-2,-3,1,2,-1
1558441090119406,-1,-1,-3,-3,-7,-6,-5,-4
1558441090120403,0,-2,0,-2,-5,-1,-4,-3
1558441090120403,-3,-3,-1,-1,-1,1,2,1
1558441090135362,1,-1,-2,1,0,-1,-2,1
1558441090135362,0,1,0,-1,2,7,2,1
1558441090141347,-2,-1,3,2,0,-4,-3,-2
1558441090141347,-3,-2,-2,-1,-8,-5,-5,-3
1558441090156308,-2,-2,0,3,-4,-12,-5,-1
1558441090156308,-2,-1,-1,-1,9,7,2,0
1558441090164286,-1,-1,-2,0,1,3,-1,-2
1558441090164286,0,-1,-1,0,-2,4,2,-1
1558441090180244,-3,0,-2,-4,-5,-6,-1,-3
1558441090180244,-1,-3,-4,-6,-15,-16,-10,-2
1558441090180244,-1,0,-1,2,4,10,9,2
1558441090180244,-1,-2,-1,-2,2,0,-2,-2
1558441090195203,0,1,1,3,4,6,4,1
1558441090195203,-3,-2,-1,2,1,3,-2,-2
1558441090202186,-1,-2,-3,-4,0,-3,-2,-2
1558441090202186,1,1,1,-3,-3,0,2,2
1558441090217145,-1,-1,-1,-1,0,2,-1,-2
1558441090217145,-1,-1,0,4,-4,-5,-3,-5
1558441090224125,0,-2,-3,-9,2,1,0,0
1558441090224125,-1,0,2,1,2,1,1,0
1558441090240083,-2,-2,-3,-3,-5,-7,-4,0
1558441090240083,0,0,-2,-3,-4,5,0,0
1558441090240083,-1,-3,-2,-1,-6,-1,-2,-2
1558441090240083,0,0,2,3,12,0,3,0
1558441090256041,2,0,-1,-4,0,-2,-2,-1
1558441090256041,0,0,0,0,6,9,2,1
1558441090262026,-2,1,-1,-2,-4,-6,-2,0
1558441090262026,-3,-3,-4,-3,-11,-4,-3,2
1558441090276983,-2,1,2,5,11,14,2,0
1558441090276983,-2,-2,-3,-4,-5,-11,-5,-4
1558441090291945,-1,0,1,3,3,2,-2,1
1558441090291945,-2,-4,-4,-5,-8,-5,-2,-3
1558441090299923,1,1,-1,-3,-7,-6,-1,-1
1558441090299923,1,1,3,6,12,8,9,2
1558441090300921,3,-3,-1,-2,2,9,7,1
1558441090300921,-2,-2,-3,-3,-8,-6,-4,-3
1558441090315880,-1,-1,0,1,-6,-5,-6,-3
1558441090315880,-2,-2,-2,-1,-2,7,0,-1
1558441090321864,-2,0,-2,-2,-11,-16,-7,-2
1558441090321864,1,2,1,1,11,9,10,4
1558441090336824,1,3,1,4,10,8,7,3
1558441090336824,-2,-3,2,1,1,-2,-1,-1
1558441090352782,-2,0,-1,-4,-1,-2,-1,-3
1558441090352782,-2,-2,-5,-4,-11,-10,-10,-5
1558441090358766,-3,-3,0,-2,-8,-5,-4,-3
1558441090358766,0,-1,-2,-5,0,-6,4,0
1558441090366745,-1,-2,-2,1,-2,-2,-1,-1
1558441090366745,1,0,1,1,5,-2,-1,0
1558441090375721,0,1,1,0,5,2,-2,-2
1558441090375721,0,-1,-2,-1,-7,-5,-5,-3
1558441090381705,-4,-2,-2,1,-1,3,-1,-3
1558441090381705,-1,1,-2,-5,-7,-7,-4,-2
1558441090396664,-1,-3,-3,-4,-7,-6,-3,0
1558441090396664,-3,-1,-3,-1,-5,0,-1,-1
1558441090404642,-1,-1,0,-2,3,0,-1,0
1558441090404642,-2,-1,-1,-3,-8,-8,-4,-2
1558441090419603,2,1,2,4,19,14,5,5
1558441090419603,-1,1,-1,0,1,-1,-1,2
1558441090426584,-1,-1,0,1,-1,-3,-5,-4
1558441090426584,-4,-4,-7,-10,-6,0,-2,-4
1558441090435560,1,1,1,2,-4,-1,4,2
1558441090435560,-1,0,-1,-3,0,-4,0,-2
1558441090441543,1,1,-1,-2,-6,-2,-1,-3
1558441090441543,-2,-3,1,2,2,-5,-4,-4
1558441090456504,-4,-1,-1,-5,-4,0,0,0
1558441090456504,3,0,1,2,14,18,7,4
1558441090464482,-1,0,-3,2,-4,-8,-5,-1
1558441090464482,0,0,-1,2,-2,-4,-4,-2
1558441090479442,-2,-4,-4,-6,-8,-7,-5,-4
1558441090479442,-1,-1,-2,-1,-9,-11,-4,-3
1558441090486424,0,-2,0,3,3,7,4,1
1558441090486424,0,-1,2,-1,3,1,1,1
1558441090495400,-1,0,0,4,5,8,4,0
1558441090495400,-2,-4,-7,-11,-9,-6,-6,-2
1558441090501384,0,-2,-1,-3,0,-4,-2,0
1558441090501384,0,-1,-2,-4,-7,0,-2,-2
1558441090516344,0,-1,0,2,1,-11,-8,-2
1558441090516344,0,1,1,2,-3,-1,0,-1
1558441090524368,0,0,1,-1,1,9,2,0
1558441090524368,2,1,3,3,4,5,5,2
1558441090539325,-2,-1,1,0,-1,2,0,-2
1558441090539325,-1,-2,1,-1,2,0,-2,-1
1558441090546302,-5,-3,-1,-4,-2,-5,-3,0
1558441090546302,-1,-1,0,1,-5,-3,0,-2
1558441090562223,0,-1,-4,-4,-1,1,1,2
1558441090562223,-1,1,0,0,2,-4,-4,0
1558441090563219,-3,0,1,1,1,2,-1,-1
1558441090563219,0,1,-1,1,4,6,4,2
1558441090577181,-3,-4,-4,-6,-7,-5,0,-4
1558441090577181,0,0,0,2,2,3,2,-1
1558441090584162,1,-1,-4,-2,-1,-5,-4,0
1558441090584162,-2,0,-3,-1,4,6,2,0
1558441090599123,-2,-2,-3,-3,-10,-10,-5,-2
1558441090599123,-1,1,0,3,-3,-10,-2,0
1558441090607131,1,-1,0,-2,3,5,5,2
1558441090607131,2,2,2,1,11,4,2,2
1558441090622062,-1,-2,-1,-1,2,7,1,-1
1558441090622062,-4,-2,-1,-1,-5,-3,-6,-4
1558441090623058,-1,-1,1,-4,-5,-7,-5,-4
1558441090623058,1,-1,0,0,1,4,7,0
1558441090637065,0,-2,0,1,1,-4,-3,-2
1558441090637065,-1,-3,2,-2,-5,-3,-1,1
1558441090651983,-1,0,-4,-3,-2,-5,-1,0
1558441090651983,-4,-1,-3,0,-3,2,-1,2
1558441090658964,-2,-1,-2,-2,-1,4,0,-1
1558441090658964,-1,-1,-3,-4,-2,0,-1,-1
1558441090666942,-2,-2,0,2,-4,-6,-2,-3
1558441090666942,-1,-1,1,0,1,-6,-4,-4
1558441090683895,0,-2,-3,0,-1,-3,-1,-3
1558441090683895,2,1,-3,-2,-3,-2,1,-1
1558441090684894,-1,-2,2,2,-7,-3,-4,-2
1558441090684894,-2,-2,-2,-7,-4,-9,-1,1
1558441090696895,-1,0,0,0,5,10,-3,-2
1558441090696895,-1,-1,-1,1,-3,-2,-3,-1
1558441090703843,1,2,0,0,4,4,1,1
1558441090703843,-1,-2,-3,-3,-12,-7,-8,-5
1558441090718869,-3,-3,0,-1,-4,0,1,-1
1558441090718869,0,0,-6,-2,2,-5,2,2
1558441090727255,-2,-1,1,-2,2,-8,-1,-3
1558441090727255,0,-2,0,-2,-1,2,1,0
1558441090743928,0,1,1,1,5,5,-1,-1
1558441090743928,-4,-4,-2,-3,-5,-2,-3,0
1558441090744734,1,0,2,1,5,1,4,3
1558441090744734,-1,-2,-1,-1,-6,-10,-7,-3
1558441090757054,-2,-1,-3,-4,-3,-5,-1,0
1558441090757054,0,-1,1,-2,1,6,2,-1
1558441090764681,-1,0,-3,5,-3,-4,-1,-1
1558441090764681,-2,-1,-3,-7,-2,4,-3,-2
1558441090779659,-2,-1,0,0,-3,0,1,-1
1558441090779659,0,0,0,2,4,2,1,-2
1558441090787006,-2,-4,-4,-1,-5,-1,-4,-2
1558441090787006,-1,-1,0,1,1,0,-5,-3
1558441090802579,-1,-3,-1,-2,-2,-8,-4,0
1558441090802579,-2,-3,0,0,-3,-5,-2,-2
1558441090803644,0,0,1,-2,0,8,5,0
1558441090803644,0,1,-1,2,9,6,4,2
1558441090816669,0,-1,-1,1,-4,-4,-2,0
1558441090816669,2,0,-2,-1,3,5,2,2
1558441090824647,-1,0,-2,-3,-5,-7,-3,-4
1558441090824647,-2,-1,-1,-3,-7,-7,-4,-1
1558441090839513,-2,-1,-2,-4,-3,-4,0,-1
1558441090839513,-3,-3,-1,-3,-4,4,1,0
1558441090846494,-2,-2,-3,0,2,0,0,-2
1558441090846494,-2,-1,0,2,2,-2,2,1
1558441090862420,0,1,0,-3,2,1,2,1
1558441090862420,-2,0,-1,-1,-2,-1,-1,-1
1558441090863419,0,1,0,0,5,5,2,1
1558441090863419,-3,-2,-4,-1,-9,-6,-6,-5
1558441090876414,2,-1,1,1,1,0,1,1
1558441090876414,-1,-3,-2,-8,-3,-3,-1,-1
1558441090884390,-4,0,-1,-1,5,7,0,-1
1558441090884390,1,0,2,-2,-1,-5,3,2
1558441090915306,-2,0,0,0,-4,0,-3,-1
1558441090915306,-1,0,-1,1,-3,-1,-2,-4
1558441090916274,2,-2,-2,-4,-3,-3,1,1
1558441090916274,0,-2,-2,-1,-1,-6,-2,-2
1558441090922259,-2,-3,-3,-3,-7,-3,-3,1
1558441090922259,1,0,3,5,13,6,3,3
1558441090923256,-2,-1,0,-1,1,-2,-2,-1
1558441090923256,-1,1,0,0,2,8,1,0
1558441090937234,0,-1,2,1,-3,-3,0,0
1558441090937234,-1,-2,-1,-2,0,-3,-2,0
1558441090944245,-1,-1,-1,-2,-5,-2,-2,-2
1558441090944245,-1,-1,-1,2,0,4,3,1
1558441090967165,0,1,-1,-4,-2,-4,0,-1
1558441090967165,0,-2,-1,1,-4,0,-1,-3
1558441090968136,-1,-1,-1,-3,5,5,2,0
1558441090968136,-2,-2,0,1,-1,4,-1,-2
1558441090982128,-2,-2,-4,-6,-2,-6,-4,0
1558441090982128,1,-1,-3,-1,-5,-5,-3,0
1558441090983096,0,-2,1,1,-5,-15,-7,1
1558441090983096,0,-1,-3,-4,0,9,4,0
1558441090997060,2,1,2,3,10,9,8,0
1558441090997060,-3,-1,0,1,-2,-5,-4,-4
1558441091004041,-3,-2,-3,-2,-5,-5,-5,-4
1558441091004041,-1,-3,0,-5,-7,-7,-4,-1
1558441091020995,-2,0,-4,-1,-3,-6,-5,-3
1558441091020995,-2,-1,-1,-3,-3,0,0,0
1558441091027167,-1,1,4,5,7,11,7,3
1558441091027167,-2,1,1,1,10,3,1,1
1558441091043006,0,-2,0,2,0,0,0,-3
1558441091043006,-1,-3,-1,-3,-3,-7,-3,-2
1558441091043006,0,-3,-2,-3,-5,2,-3,-4
1558441091043006,-2,-1,-2,-2,-5,-8,-4,-3
1558441091056901,-3,0,-1,-1,2,2,1,1
1558441091056901,1,3,1,4,7,2,5,4
1558441091080833,2,0,-1,1,1,-1,-1,-1
1558441091080833,-2,0,2,0,3,8,4,-2
1558441091081831,-3,-2,1,-5,-5,-4,-4,-3
1558441091081831,-4,-2,-2,0,-6,1,-1,-2
1558441091086818,-1,-3,-3,1,1,-4,-1,2
1558441091086818,0,0,1,-1,2,-10,-4,-1
1558441091102776,-3,-1,-3,-3,-9,-9,-5,-2
1558441091102776,-2,0,2,0,0,3,-1,-3
1558441091102776,1,0,2,2,13,14,5,0
1558441091102776,0,-2,-2,0,-1,0,-2,-1
1558441091117822,-2,-2,-4,-5,-4,-2,0,-1
1558441091117822,-2,-2,-3,-5,-9,-16,-7,-2
1558441091132837,0,-1,2,-1,4,7,1,-2
1558441091132837,-1,-3,-1,2,-1,-4,-1,0
1558441091139746,1,0,0,4,6,4,0,1
1558441091139746,-1,-2,-3,-5,-3,-2,-3,-1
1558441091146658,-2,-1,-1,0,-4,-6,-5,-4
1558441091146658,-3,0,-4,-1,-6,0,-3,-1
1558441091162617,-3,-1,1,0,1,2,0,-3
1558441091162617,1,1,-1,-4,-1,-3,3,-1
1558441091163640,-1,-1,-2,-1,-3,-6,-2,-1
1558441091163640,-1,-2,0,-1,1,1,-1,2
1558441091193542,1,-2,-1,0,5,8,4,0
1558441091193542,-1,-1,-4,1,6,2,-3,-2
1558441091193542,-2,-1,-1,-2,-3,-1,-4,-2
1558441091193542,0,-3,-3,-5,-12,-10,-6,-3
1558441091199573,-2,-2,-1,-1,-5,-5,-3,1
1558441091199573,1,-1,1,3,10,5,0,2
1558441091206563,-1,-1,-1,-1,-3,-4,3,0
1558441091206563,-2,-3,-2,1,2,1,-2,1
1558441091222485,-1,-1,0,0,-6,-4,-5,-1
1558441091222485,-1,1,1,-1,-1,-1,-1,-1
1558441091223482,-2,-4,-5,-6,-9,-7,-8,-4
1558441091223482,0,0,2,0,-4,1,2,-1
1558441091236446,1,-1,-1,0,1,3,2,0
1558441091236446,0,-2,1,1,7,3,1,1
1558441091244397,1,-2,-1,0,-4,-1,1,2
1558441091244397,-3,-1,-2,-1,-3,-5,-6,-3
1558441091259393,-3,0,-1,-4,-5,-11,-3,-1
1558441091259393,-2,-2,-1,-1,-10,-2,-1,-2
1558441091266367,-3,1,1,3,8,8,2,2
1558441091266367,-2,-1,-4,-4,-1,-2,-2,-2
1558441091282324,1,-2,0,2,6,8,5,2
1558441091282324,1,-2,-3,-2,-1,-1,-1,-2
1558441091283294,-1,-2,1,2,-2,2,-2,-3
1558441091283294,-1,-3,-7,-10,-10,-5,-5,-5
1558441091298254,-1,-2,1,1,3,-3,0,1
1558441091298254,-2,0,3,4,1,-8,0,1
1558441091304268,-2,0,-2,-2,0,4,1,0
1558441091304268,1,-2,1,0,0,-1,-2,-1
1558441091319229,-2,-3,-2,-3,-6,-3,-5,-4
1558441091319229,-3,-2,-4,-4,-6,-1,-3,-2
1558441091327201,1,0,-1,-2,2,-2,1,0
1558441091327201,0,2,2,4,2,2,3,2
1558441091342173,1,-2,-2,-5,-5,-10,-3,-1
1558441091342173,-3,-1,0,1,9,5,0,1
1558441091358127,-1,0,0,-3,0,-3,-2,1
1558441091358127,-3,-1,-4,-1,-3,-4,0,-1
1558441091359090,2,0,1,0,-2,-2,-4,0
1558441091359090,2,-1,-2,-5,0,7,-1,-2
1558441091364108,0,0,0,1,-3,-12,0,0
1558441091364108,0,1,3,4,4,5,3,1
1558441091379039,-1,-1,-7,-11,-8,-6,-4,-2
1558441091379039,-2,-3,-2,1,-6,0,-2,-3
1558441091387045,-3,-2,-1,-2,-3,-2,-3,-1
1558441091387045,-1,2,3,0,2,1,1,-2
1558441091410954,-1,-1,-1,-2,-2,-4,-3,-1
1558441091410954,-1,-1,-1,2,-3,4,0,1
1558441091410954,0,-1,-1,-2,5,4,-1,-1
1558441091410954,-2,-2,0,0,3,-1,1,0
1558441091416964,-1,0,1,3,3,5,0,0
1558441091416964,1,-1,0,1,0,-6,0,1
1558441091423949,-3,-4,-5,-7,-10,-3,-4,-5
1558441091423949,-1,-1,-2,-2,-3,-13,-6,0
1558441091438912,0,-1,-1,2,3,8,3,0
1558441091438912,0,0,-1,-4,-3,-2,1,-1
1558441091446858,-1,-2,-1,-1,2,2,1,-1
1558441091446858,1,1,2,-2,2,7,4,-2
1558441091470848,-3,-1,-2,-1,-5,-10,-6,-2
1558441091470848,0,-1,1,-1,-1,0,-2,-2
1558441091470848,-2,-4,-4,-1,-8,-1,-3,-2
1558441091470848,0,0,0,-3,1,-1,1,1
1558441091484776,-2,0,-2,0,-1,5,0,1
1558441091484776,0,0,0,0,4,-3,0,0
1558441091485754,1,1,2,3,4,4,5,3
1558441091485754,-2,-5,-5,-4,-8,-5,-4,-3
1558441091498716,0,1,2,1,5,4,1,1
1558441091498716,-2,-2,-4,-3,-8,-7,-4,-2
1558441091514702,-3,0,-2,-4,-5,-8,-3,-2
1558441091514702,-2,-1,-1,-2,-4,-11,-6,0
1558441091521658,0,-2,0,1,1,1,1,-1
1558441091521658,-2,-1,-1,-3,3,3,-3,0
1558441091529664,0,-1,0,1,-4,2,2,2
1558441091529664,1,0,2,8,9,10,2,0
1558441091544594,-1,-4,-3,-11,-5,-7,-2,-3
1558441091544594,-3,-2,-4,-6,-12,-11,-7,-4
1558441091545591,-1,-1,-1,-2,2,2,1,-2
1558441091545591,-2,-2,-2,-1,-1,5,1,-1
1558441091559556,-2,0,1,4,-3,-1,3,-1
1558441091559556,1,0,1,0,12,9,4,1
1558441091566565,0,0,-1,-1,-4,-11,-7,-4
1558441091566565,-1,-2,-2,-5,-3,0,-3,-1
1558441091581525,0,0,-1,-1,-2,4,1,0
1558441091581525,0,-2,-3,-1,-10,-15,-6,-1
1558441091589512,0,0,-2,3,4,8,6,2
1558441091589512,-2,0,2,-1,4,0,4,1
1558441091604466,-1,-1,1,2,0,-8,-6,-2
1558441091604466,-3,-1,-5,-7,-9,3,-2,-3
1558441091605431,1,2,2,2,10,8,4,0
1558441091605431,-2,-1,-4,-4,-4,1,-2,-3
1558441091620390,-1,-2,0,2,-3,0,0,0
1558441091620390,-2,0,1,1,4,-2,0,0
1558441091626409,-1,-2,-3,-5,-10,-11,-5,-2
1558441091626409,-2,-2,-2,0,-2,5,3,0
1558441091641335,0,-2,0,0,3,3,1,-2
1558441091641335,1,4,3,2,11,12,7,3
1558441091649317,0,-2,-1,0,-7,-13,-9,-3
1558441091649317,-1,-2,-3,-3,-8,-2,-4,-1
1558441091665300,-2,1,-1,0,1,-4,0,-1
1558441091665300,-2,-1,-2,-2,-2,1,1,1
1558441091665300,0,0,1,2,1,-1,-1,1
1558441091665300,2,-2,-1,-3,-4,-6,-7,-3
1558441091679236,-2,-1,-4,-3,0,7,0,-1
1558441091679236,-2,-1,-1,2,0,-1,0,-2
1558441091687213,0,0,-1,-1,-1,-4,0,-2
1558441091687213,-1,-1,-1,-6,3,0,-1,-3
1558441091702307,-1,0,-1,-1,-2,-6,-2,-1
1558441091702307,0,-1,-2,-1,-4,-2,-3,-2
1558441091709343,1,1,0,0,9,9,5,1
1558441091709343,-1,0,-1,2,1,-2,-2,-2
1558441091725157,-1,-2,-3,1,-2,-2,1,0
1558441091725157,-4,-2,-3,-5,-10,-12,-8,-5
1558441091725157,0,-1,1,-4,-4,6,4,1
1558441091725157,0,0,3,4,6,2,-1,2
1558441091739118,-1,-1,-4,-2,-5,-3,-2,0
1558441091739118,3,-1,-1,-5,3,2,2,0
1558441091747093,-3,-2,-2,-2,-5,-4,-4,-4
1558441091747093,-1,2,-1,-2,0,-1,-2,-2
1558441091762012,-2,0,1,0,-5,-4,-5,-2
1558441091762012,-1,0,0,-1,3,7,4,2
1558441091769022,-3,-3,-4,-2,-6,-8,-6,-2
1558441091769022,-1,0,-1,-3,-2,7,1,0
1558441091784979,0,-2,-2,-2,2,-10,-7,-1
1558441091784979,1,-1,0,1,0,-1,4,1
1558441091785976,-1,2,1,0,3,2,-1,-1
1558441091785976,0,-4,-5,-3,-9,-4,-4,-2
1558441091798913,0,-2,0,-2,-1,2,0,-3
1558441091798913,0,-1,0,1,3,2,-3,-1
1558441091814901,-2,-3,-1,-3,2,-3,-2,-1
1558441091814901,1,-1,-1,1,4,-1,3,0
1558441091821884,0,0,2,3,7,4,2,2
1558441091821884,-2,-1,-1,-2,-3,-6,-6,-3
1558441091828835,-3,-1,-1,-3,-11,-6,-4,0
1558441091828835,-3,-1,-4,-5,0,5,4,3
1558441091844792,0,1,0,-2,5,1,3,1
1558441091844792,-1,-2,-1,0,-2,-6,1,-3
1558441091845788,0,-4,-2,1,-3,2,0,-2
1558441091845788,-1,-1,3,1,-2,-5,-4,0
1558441091858781,-1,-1,-3,-5,-5,1,-3,-2
1558441091858781,0,-2,-1,1,3,4,-2,-1
1558441091874899,1,1,0,4,8,4,4,2
1558441091874899,-3,-4,-5,-5,-9,-7,-4,-5
1558441091881864,-3,1,1,-1,-1,5,0,-3
1558441091881864,-6,-1,-3,0,-6,-3,-5,-5
1558441091889789,0,0,-3,-4,-2,-4,0,-2
1558441091889789,1,2,-1,2,9,0,3,2
1558441091904744,0,-1,-1,0,-1,-1,1,0
1558441091904744,-1,0,2,-1,-2,-2,-2,-2
1558441091905645,-2,-3,-5,-2,-5,-5,-3,-3
1558441091905645,0,-1,0,-8,-2,-5,-2,0
1558441091919627,-1,-3,-3,2,-5,-7,-4,-2
1558441091919627,-1,1,2,1,1,3,0,-1
1558441091926573,-2,-3,-2,-5,-8,-2,0,0
1558441091926573,-2,1,0,4,5,-1,1,-1
1558441091941576,1,-1,0,-2,3,1,-1,-2
1558441091941576,0,-1,-2,-2,0,6,3,3
1558441091949549,1,1,2,3,4,-7,-3,-1
1558441091949549,0,-2,0,2,-1,-5,-7,-3
1558441091964507,-2,-2,-2,-3,-7,0,-1,-2
1558441091964507,2,0,-2,1,-4,2,2,2
1558441091965470,-2,0,-1,1,4,6,0,-1
1558441091965470,-1,0,-1,0,0,3,1,0
1558441091980428,1,1,1,0,4,-2,0,0
1558441091980428,-1,-2,-1,2,-5,-7,-5,-3
1558441091986441,-1,-2,-2,-9,0,8,1,0
1558441091986441,-2,-1,1,0,-4,-5,-3,-1
1558441092001471,-3,-3,-4,1,-3,-5,-1,-2
1558441092001471,-3,-3,-1,-5,-3,-4,-3,0
1558441092009456,-1,-1,1,0,1,-3,0,-2
1558441092009456,1,0,-1,0,2,1,2,1
1558441092024456,-2,-1,-2,1,3,3,-1,0
1558441092024456,-2,-3,-1,-3,-4,-7,-4,-2
1558441092025427,-3,-3,-5,-4,-9,-7,-6,-4
1558441092025427,0,-2,1,-1,-4,0,-3,-3
1558441092039422,-2,-1,1,0,-4,-2,-1,-3
1558441092039422,2,0,-1,-1,6,7,5,2
1558441092046369,-2,-2,1,0,-2,-4,-2,-3
1558441092046369,-3,-2,-6,-3,-9,-1,-4,-1
1558441092061329,1,0,0,-2,5,5,3,0
1558441092061329,0,-1,-2,0,6,1,0,0
1558441092069307,-2,-1,1,5,-2,-3,-1,0
1558441092069307,-3,-4,-6,-12,-9,-2,-5,-1
1558441092085264,-1,-1,0,-1,2,-3,-2,1
1558441092085264,0,1,0,2,5,3,5,-1
1558441092085264,-1,1,-1,-1,0,1,-3,-2
1558441092085264,-1,-2,0,0,-7,-8,-3,-3
1558441092099227,0,-2,0,0,-2,-1,2,0
1558441092099227,-4,-3,-2,-2,-5,-1,-3,-4
1558441092106208,0,-2,-1,-1,8,4,1,3
1558441092106208,1,1,3,5,7,7,-1,0
1558441092122254,-1,-2,-4,-3,-7,-1,-1,-2
1558441092122254,-1,0,-1,-3,-5,-8,-3,-1
1558441092129146,-1,-1,0,-3,4,8,3,1
1558441092129146,-1,-1,-3,1,-1,-7,-3,-2
1558441092153178,0,-2,0,2,-4,-10,-4,-1
1558441092153178,0,-1,-3,-7,-3,0,-1,1
1558441092154081,0,-2,-2,1,-2,-3,-5,-1
1558441092154081,1,-1,-1,-1,-1,4,2,0
1558441092159168,-2,1,-2,-3,-1,-1,-1,-1
1558441092159168,-2,0,-2,2,-1,-7,-2,-2
1558441092167045,-2,0,-1,0,0,5,3,-1
1558441092167045,-2,-2,2,1,-3,1,2,0
1558441092182078,2,-1,-2,-3,2,-1,1,1
1558441092182078,0,-1,0,5,1,5,3,0
1558441092189064,-3,-3,-5,-2,-6,-10,-4,-3
1558441092189064,-1,-1,-2,-2,3,-4,-1,0
1558441092205029,1,-1,-1,1,0,7,-1,0
1558441092205029,-1,0,0,0,-1,-4,-4,0
1558441092205946,0,-3,-6,-7,-10,-1,-2,-3
1558441092205946,0,-1,0,-1,3,2,0,0
1558441092218958,-1,-2,0,1,1,-3,2,-1
1558441092218958,1,0,2,1,6,3,1,0
1558441092234914,-4,-1,-2,-4,-9,-15,-6,-3
1558441092234914,-1,1,-2,2,-1,-2,2,0
1558441092241875,-2,1,-1,-4,-1,4,-2,0
1558441092241875,0,-3,0,-4,-4,-2,-3,1
1558441092248859,2,-1,1,3,6,5,4,3
1558441092248859,0,-1,0,-1,-5,-4,-5,-1
1558441092263817,0,-2,-3,-3,-5,1,1,-1
1558441092263817,-1,-1,-2,1,7,6,0,-1
1558441092272765,1,0,-1,0,2,2,0,-1
1558441092272765,-2,-3,-2,-2,-1,1,0,-1
1558441092278748,-2,1,-2,-4,-7,-1,-4,-3
1558441092278748,2,-1,-1,3,2,-5,0,-1
1558441092286755,0,0,2,0,-3,-7,-2,3
1558441092286755,-1,-2,-2,-5,2,3,4,0
1558441092301715,-3,-3,0,4,-2,1,-2,-1
1558441092301715,-4,-3,-7,-12,-11,-3,-5,-3
1558441092309681,-3,0,-1,-1,2,-1,-4,-2
1558441092309681,0,1,-1,2,1,-2,0,0
1558441092324623,-2,-2,1,1,2,-7,-1,2
1558441092324623,1,1,2,-1,3,4,0,-1
1558441092332632,0,-2,-2,-3,-3,1,-3,-1
1558441092332632,-3,-2,0,0,-10,-5,-3,-2
1558441092339619,1,1,0,0,8,-4,1,0
1558441092339619,-2,-1,-4,-1,-4,0,2,-1
1558441092346595,-1,2,0,2,7,5,3,1
1558441092346595,-2,-1,1,0,5,1,1,-2
1558441092361531,-3,-3,-2,-5,-5,-2,-2,-3
1558441092361531,1,-1,-2,-2,-8,-8,-6,-2
1558441092369539,0,-2,0,0,-2,2,0,-1
1558441092369539,-1,-1,1,-1,1,0,-2,-2
1558441092384499,-1,-2,-3,-4,-11,-4,-6,-2
1558441092384499,-2,1,1,0,5,5,2,1
1558441092392483,1,0,-1,0,7,8,4,0
1558441092392483,-1,1,0,2,1,-4,-3,1
1558441092399457,-2,-1,-5,-6,-2,-8,-4,-3
1558441092399457,-1,-1,-2,-1,-5,-1,1,-1
1558441092406443,-3,0,0,-2,-3,-7,-3,-1
1558441092406443,-2,-3,-3,-1,-1,4,2,0
1558441092421368,0,1,-1,6,5,11,2,-1
1558441092421368,-3,-1,-1,-1,1,-3,-2,1
1558441092429376,1,0,1,0,4,2,1,-1
1558441092429376,-2,-1,-2,-3,-9,-9,-1,-2
1558441092444438,-2,-2,1,-1,-3,0,0,-1
1558441092444438,0,0,2,-1,-1,-3,2,-1
1558441092452377,-1,-1,-2,1,-3,-1,-2,-1
1558441092452377,1,-2,-3,-4,-3,-4,-3,0
1558441092467337,1,-1,-1,-2,0,5,6,1
1558441092467337,-1,0,0,3,1,-5,-4,-2
1558441092468338,-2,-2,-1,-2,-1,1,0,0
1558441092468338,0,-1,-2,-2,3,0,-1,0
1558441092481300,-5,-3,-2,-1,-5,-5,-5,-3
1558441092481300,-1,-4,-3,0,-9,-3,-4,-2
1558441092489634,0,0,1,-4,-2,-2,1,-2
1558441092489634,-2,-3,-3,-1,-4,-4,-5,-3
1558441092504724,1,4,5,9,8,1,2,1
1558441092504724,1,-1,-3,-6,9,12,5,0
1558441092512216,-2,0,-2,-3,-9,-9,-4,-3
1558441092512216,1,0,0,1,1,4,3,1
1558441092527522,-2,-1,-2,-2,-4,-5,-5,-4
1558441092527522,-2,-2,-3,-6,-9,-6,-5,-4
1558441092528175,-2,-2,-3,-3,-9,-4,-6,-3
1558441092528175,0,2,2,4,6,2,3,1
1558441092542468,0,1,-3,-6,2,1,3,1
1558441092542468,-1,-1,1,1,-2,-6,-2,-2
1558441092549118,0,-3,-1,-2,-3,-2,-1,-2
1558441092549118,-1,1,2,0,-2,-2,0,-1
1558441092564431,0,-2,-1,-4,5,4,-1,-1
1558441092564431,-1,-4,-3,-1,-6,-8,-2,-3
1558441092573262,0,-2,-3,0,0,-3,0,2
1558441092573262,-1,-1,0,-2,3,9,3,1
1558441092588082,1,1,2,3,7,10,6,1
1558441092588082,-2,-1,-1,2,1,0,-4,-3
1558441092588082,0,-1,2,0,1,-2,2,-1
1558441092588082,-1,-4,-4,-6,-11,-8,-6,-2
1558441092602212,-1,-4,-1,-2,-7,-2,-4,-3
1558441092602212,1,2,2,4,5,1,3,2
1558441092609517,-1,0,-2,-5,4,2,1,-1
1558441092609517,-1,-1,-2,0,1,1,2,-2
1558441092624469,-3,-2,-2,-1,-8,-9,-4,-2
1558441092624469,1,-2,-2,-1,-3,-1,-2,-3
1558441092633249,-2,-4,-2,-2,-4,2,-1,-1
1558441092633249,2,2,1,2,6,-1,4,1
1558441092648094,0,-1,-2,-1,0,-6,-7,-1
1558441092648094,0,-2,-1,1,-1,-3,-3,-2
1558441092648094,-2,0,0,4,3,6,1,-2
1558441092648094,-3,-2,1,-3,-6,-6,-5,-4
1558441092662056,1,-3,-3,-2,-1,0,-1,0
1558441092662056,-2,-1,-1,-1,-5,-6,0,2
1558441092669041,-2,-2,-2,-2,0,0,-1,-1
1558441092669041,-2,-2,-3,-4,-6,-8,-5,-2
1558441092692973,0,1,2,3,2,-3,2,1
1558441092692973,0,-1,0,0,6,6,3,1
1558441092693970,-1,0,3,1,3,0,-2,1
1558441092693970,-1,-1,-3,-2,-4,0,-2,-4
1558441092708183,-3,-1,-4,-1,-1,-2,-4,-2
1558441092708183,-1,-1,-2,-3,-2,2,3,2
1558441092708183,0,-1,1,5,1,-1,1,1
1558441092708183,-1,-2,-3,-4,1,4,-2,-1
1558441092722185,1,-2,1,3,-1,-7,0,1
1558441092722185,-1,-1,-5,-12,-8,-2,-3,-4
1558441092729906,0,1,-1,0,0,-3,-3,-1
1558441092729906,-1,-1,0,3,0,6,0,-1
1558441092744132,-1,-1,-1,-2,-3,0,-1,0
1558441092744132,-2,0,0,0,-3,-4,-4,-2
1558441092752843,2,-2,-2,-2,-4,-4,-2,-1
1558441092752843,1,2,2,-1,7,3,5,3
1558441092768033,-3,-2,-2,-2,-1,1,0,-1
1558441092768033,-2,-2,2,5,1,-2,-2,-1
1558441092768033,-2,-2,-5,-5,-4,0,1,-1
1558441092768033,-2,1,1,3,8,10,5,0
1558441092782031,0,-2,0,-2,5,-3,0,2
1558441092782031,1,0,-2,4,-2,-5,0,2
1558441092788716,0,-2,0,-3,-3,-4,0,-2
1558441092788716,-1,-2,-2,1,0,3,2,0
1558441092805035,-3,-3,-5,-7,-12,-8,-5,-3
1558441092805035,-4,-2,0,-3,-2,1,-3,-2
1558441092812653,0,-2,-1,0,-2,-5,-3,-1
1558441092812653,0,-3,-1,2,-2,-4,-4,-2
1558441092827636,-1,1,1,3,14,16,7,3
1558441092827636,-1,-2,1,-2,-2,-3,-2,-2
1558441092827636,-3,-3,-3,-3,-5,-10,-4,-3
1558441092827636,1,0,-1,2,-8,-9,-7,-2
1558441092849890,-1,-3,-2,-3,-3,-2,-1,-2
1558441092849890,1,0,2,2,11,9,7,2
1558441092850554,-1,-1,-3,0,-7,-1,2,-1
1558441092850554,0,1,0,-3,4,1,0,0
1558441092864935,-1,1,-2,1,-3,-2,-4,-3
1558441092864935,-4,-3,-5,-2,-8,-11,-6,-3
1558441092872263,0,-1,1,1,5,9,-2,-2
1558441092872263,-2,-2,-3,-5,-4,-5,1,0
1558441092886874,1,0,3,-1,2,0,3,1
1558441092886874,-1,0,0,1,-1,-5,-4,-1
1558441092888872,-4,1,-3,-3,-2,0,-2,0
1558441092888872,-4,-3,-2,-5,-10,-5,-5,-5
1558441092902124,1,0,1,2,2,4,-1,1
1558441092902124,0,-1,-1,0,1,-7,0,0
1558441092908815,1,0,2,3,8,8,3,2
1558441092908815,0,0,-3,0,8,7,1,-1
1558441092923774,-2,-1,-2,-2,-8,-10,-1,-2
1558441092923774,-1,-2,-3,-6,-10,-7,-4,-4
1558441092933079,-1,1,-1,-1,-1,3,5,0
1558441092933079,-3,-3,-1,1,0,0,-2,0
1558441092948044,-3,-3,-2,-3,0,7,-1,-2
1558441092948044,-1,-1,-1,-4,-2,-2,1,0
1558441092948044,-1,-2,-2,2,-6,-10,-6,-1
1558441092948044,2,1,1,-2,2,2,4,0
1558441092961676,0,0,-5,-5,2,-4,1,0
1558441092961676,-3,0,-3,2,2,8,-2,-3
1558441092969986,0,-2,-1,-2,-3,0,1,-3
1558441092969986,-1,-3,-4,-2,-2,-8,-5,0
1558441092984957,-2,1,4,5,2,3,1,-1
1558441092984957,-1,-2,-4,-6,-9,-4,-4,-2
1558441092992939,-2,-3,-2,-2,-1,-1,2,0
1558441092992939,-1,0,-3,1,3,-6,-2,0
1558441093007871,0,-1,-1,0,-3,-1,0,-1
1558441093007871,0,1,-1,0,2,1,-2,-1
1558441093008523,0,-1,1,2,9,8,2,2
1558441093008523,-4,-3,-1,1,-5,-3,-3,-2
1558441093021835,0,-3,-1,-5,-4,0,-1,-2
1558441093021835,-1,1,-1,-2,-1,0,2,1
1558441093029833,-2,0,-4,-3,-3,-5,-5,-2
1558441093029833,2,-1,0,1,2,-1,0,0
1558441093044434,-1,-2,-1,0,0,-2,0,-2
1558441093044434,-3,-2,-3,-2,-6,6,-2,-3
1558441093052516,1,2,2,4,2,0,2,2
1558441093052516,-2,2,0,0,6,10,2,0
1558441093067693,0,-1,-1,0,-3,-9,-3,-2
1558441093067693,0,0,-1,2,5,4,2,1
1558441093068365,-2,-2,-1,-4,-10,-4,-6,-4
1558441093068365,-2,-2,-3,-5,-4,-5,-5,-2
1558441093082563,0,-1,1,1,-2,-9,-1,1
1558441093082563,-1,1,4,7,15,18,7,1
1558441093089307,-2,-5,-3,-6,-5,-5,-2,-5
1558441093089307,-1,-2,-1,-1,-3,2,3,-1
1558441093104268,-1,-2,-4,-4,-6,-11,-5,-2
1558441093104268,0,-2,-1,-4,-7,-11,-4,-1
1558441093112246,-4,-3,-3,-1,-7,0,-5,-1
1558441093112246,1,1,2,3,4,2,3,2
1558441093127205,1,1,-1,1,4,7,-1,-1
1558441093127205,-1,-3,0,-2,-2,-4,-3,-2
1558441093128203,-2,-1,-2,-1,-2,-6,-3,-1
1558441093128203,-1,-1,0,-2,-1,0,-1,-3
1558441093141205,-2,0,-2,0,3,5,4,-1
1558441093141205,0,-1,-2,-3,-1,0,2,-3
1558441093149388,1,1,2,1,6,3,2,1
1558441093149388,-3,-1,-2,-6,-9,-12,-4,-1
1558441093164140,0,0,0,2,0,12,5,0
1558441093164140,-1,-2,0,2,1,-5,-6,-3
1558441093173247,-1,-1,1,-1,2,-4,-1,2
1558441093173247,0,-2,-2,-1,-2,0,0,-1
1558441093187499,-2,-5,-3,-3,-6,-10,-5,-4
1558441093187499,0,-1,-3,-1,-2,4,3,3
1558441093195026,2,2,2,0,6,2,3,2
1558441093195026,-1,0,-1,1,1,0,-2,0
1558441093202466,-2,-2,0,0,-5,1,-1,-3
1558441093202466,-2,-4,-3,-5,-8,-7,-7,-3
1558441093210129,-1,0,-1,-1,-3,-7,-1,-1
1558441093210129,0,-1,-2,-2,-8,-7,-3,-1
1558441093225062,-4,-1,-3,-2,4,5,2,-2
1558441093225062,0,-1,4,-1,7,4,1,1
1558441093233328,0,-4,-3,2,0,5,4,1
1558441093233328,2,2,3,4,9,4,2,1
1558441093247365,1,0,1,-4,-5,-5,-3,1
1558441093247365,-1,-1,-1,0,5,10,6,3
1558441093255302,-3,-2,-3,-2,-7,-9,-6,-3
1558441093255302,-3,-3,-1,-6,-8,-2,-4,-2
1558441093261848,-3,-2,-1,0,-1,-8,-8,-1
1558441093261848,1,2,3,6,12,9,7,4
1558441093270081,1,-1,-2,-1,-2,-3,-2,0
1558441093270081,-2,-2,-1,-2,-3,-7,-3,-3
1558441093283789,-3,1,1,-1,0,1,2,0
1558441093283789,-4,-2,0,-1,-10,-6,-5,-2
1558441093299744,0,0,-1,-4,-4,-8,-3,0
1558441093299744,-2,-3,-2,-4,-8,2,-2,0
1558441093306728,1,1,0,2,7,3,0,1
1558441093306728,1,0,-1,1,7,0,-3,-1
1558441093314732,1,1,1,0,11,9,5,-2
1558441093314732,-4,-2,-2,0,-2,-9,-4,-2
1558441093321908,-1,-1,-3,-1,-10,-2,-2,-1
1558441093321908,-1,-2,-3,-5,-9,-5,-5,-4
1558441093329664,-1,-2,1,5,6,6,5,1
1558441093329664,-1,0,-2,-7,-2,-4,-1,0
1558441093354601,0,0,0,-4,3,9,4,1
1558441093354601,-1,-1,1,-1,-4,-12,-4,-2
1558441093355603,-3,-4,-4,-2,-8,-4,-5,-4
1558441093355603,-1,-3,2,0,-1,2,0,-1
1558441093366934,-2,-2,-2,-4,-1,1,3,-1
1558441093366934,-1,0,-2,1,-2,-2,-3,-1
1558441093375670,-1,-3,0,-3,-1,-3,-5,-2
1558441093375670,1,-1,-3,-2,5,7,0,-3
1558441093390797,-1,0,-1,-2,-6,-7,-5,-3
1558441093390797,-4,-1,-3,0,-2,0,0,-2
1558441093390797,0,4,4,1,7,2,2,1
1558441093390797,0,-2,-3,-1,0,-1,3,1
1558441093405651,-2,0,0,2,1,-6,-5,-1
1558441093405651,-1,-3,-4,0,-4,-3,0,-2
1558441093411446,-2,-4,-5,-10,-11,2,-3,-4
1558441093411446,-3,0,0,2,-1,-3,0,-2
1558441093427445,5,2,5,3,17,5,6,4
1558441093427445,-2,-1,0,-5,-2,-8,-3,0
1558441093435556,-1,-3,-2,1,-5,-7,-6,-2
1558441093435556,0,-3,0,-1,-3,4,0,-2
1558441093458647,0,-4,-4,-2,-1,-2,-2,-1
1558441093458647,-1,-1,-1,0,-5,-6,-1,-2
1558441093458647,-1,-1,1,0,4,6,2,1
1558441093458647,-1,1,0,-1,1,-1,-1,0
1558441093464625,-4,-1,-1,1,-6,-3,-4,-3
1558441093464625,0,1,0,-2,2,6,5,1
1558441093472475,-1,-1,-2,-4,-3,-7,-5,-1
1558441093472475,1,1,2,5,-2,-3,0,1
1558441093487533,-1,0,-1,-4,-3,-4,-6,-3
1558441093487533,0,-2,-1,1,5,3,-3,0
1558441093495222,-5,0,-2,-3,-2,-2,-1,0
1558441093495222,0,-1,0,0,-3,0,-2,-1
1558441093510182,-3,-2,-3,-2,-5,-4,-1,-1
1558441093510182,-1,0,0,-1,-2,-1,0,0
1558441093510182,0,-1,-1,1,5,6,6,2
1558441093510182,-3,-1,-2,1,-3,-4,-1,-2
1558441093525174,-1,-2,0,-4,-6,-5,-5,-2
1558441093525174,0,0,-3,-5,2,4,1,-1
1558441093532123,-1,0,-1,2,-3,-2,0,-4
1558441093532123,-2,0,-1,0,2,6,5,1
1558441093547082,-2,-2,1,0,1,2,0,0
1558441093547082,0,-2,0,-1,-4,-7,-5,-2
1558441093555061,0,-2,-2,1,0,-1,-4,0
1558441093555061,-2,-1,-1,-4,1,-1,-2,-1
1558441093578000,-3,-1,-3,-3,-4,1,1,-1
1558441093578000,-2,-2,1,4,-7,-8,-4,-2
1558441093578999,2,2,3,1,15,10,5,4
1558441093578999,-1,-1,2,0,5,-2,0,-2
1558441093584125,1,0,1,1,-6,-4,-3,-1
1558441093584125,-4,-2,-2,-4,-6,-5,-2,-1
1558441093591996,0,-1,-1,2,-1,4,3,-2
1558441093591996,-1,-1,-2,-2,-1,-2,-1,-1
1558441093606923,-1,-1,-2,-1,-2,-1,2,-1
1558441093606923,-1,0,0,1,8,2,2,3
1558441093615272,-2,0,-1,-3,-5,-1,-1,-3
1558441093615272,1,0,-1,1,3,-1,-2,-1
1558441093630057,-2,-2,-4,-4,-10,-7,-5,-4
1558441093630057,1,-1,0,-1,1,9,3,-2
1558441093630859,-2,-2,1,-1,-2,-4,-4,-2
1558441093630859,-2,-2,-2,-5,-3,-2,-1,-2
1558441093643824,2,-1,2,3,2,-3,0,2
1558441093643824,2,1,0,-5,8,7,2,1
1558441093651830,-2,-1,-2,1,-7,-6,-3,-2
1558441093651830,-1,-3,-2,-4,-3,7,3,2
1558441093666944,-3,-2,-2,-3,0,-3,-3,-1
1558441093666944,0,0,-1,0,-3,2,-2,-2
1558441093682724,-2,-1,-3,-4,-2,-7,-1,0
1558441093682724,-1,0,0,1,-1,-1,-3,-1
1558441093689702,-2,0,-2,2,7,5,1,0
1558441093689702,-3,0,-2,-1,-6,-3,-2,1
1558441093690698,-2,0,-2,-3,-6,-2,-3,-1
1558441093690698,-2,-1,-2,-1,1,-5,1,-1
1558441093703865,1,0,2,2,11,6,2,0
1558441093703865,-4,-3,-2,-2,-6,-3,-4,-7
1558441093711656,-1,-1,-4,-3,-7,-6,-4,-3
1558441093711656,-1,-2,-3,0,-3,-4,-4,-2
1558441093742561,-1,0,-2,-5,-4,-2,-3,-1
1558441093742561,-1,0,0,1,1,1,0,0
1558441093743557,0,0,1,-5,2,0,1,0
1558441093743557,-1,-3,-2,-6,-1,-2,-4,-3
1558441093749545,0,-1,1,0,-1,2,2,-1
1558441093749545,0,-1,0,1,1,-6,1,2
1558441093750539,-3,-2,-4,-4,-11,-6,-6,-4
1558441093750539,-1,-1,0,-2,-3,-1,-2,-3
1558441093764503,1,-2,-2,-2,4,4,0,-2
1558441093764503,0,-2,-3,1,-3,-13,-6,-1
1558441093771483,0,0,1,2,13,18,11,1
1558441093771483,1,-1,-1,-2,-4,-2,-3,-1
1558441093788439,1,-2,-1,0,-5,-9,-5,-1
1558441093788439,-1,0,-1,-1,0,-6,-3,0
1558441093794423,-2,0,-3,-4,-4,-1,-1,-2
1558441093794423,-2,0,1,1,3,6,5,0
1558441093809383,-4,-1,-2,-1,-7,-1,0,-1
1558441093809383,1,0,0,-3,0,4,-1,-2
1558441093810378,-1,-3,-3,1,0,1,-3,-2
1558441093810378,-2,-1,2,7,-5,-6,-4,-3
1558441093824528,-1,-1,-4,-13,-8,-2,-1,-2
1558441093824528,1,-1,0,1,10,6,4,2
1558441093831324,0,0,1,3,-2,-5,-2,1
1558441093831324,1,0,1,0,6,2,2,2
1558441093846289,0,-1,-1,1,0,-2,-2,-2
1558441093846289,-4,-4,-3,-3,-7,3,-4,-5
1558441093855261,0,-2,0,-1,1,-4,-3,-2
1558441093855261,-2,-3,-4,-2,-10,-11,-6,-2
1558441093870222,-1,1,1,4,11,9,5,4
1558441093870222,0,1,1,2,-1,-2,2,1
1558441093870222,-2,-2,-1,-2,-3,0,-4,-1
1558441093870222,-1,-1,0,-3,-3,-1,-6,-2
1558441093884182,0,-3,-1,0,-1,-3,-2,0
1558441093884182,-2,1,-1,-1,-1,-2,2,-1
1558441093891347,-1,-2,1,-4,-6,-12,-5,-2
1558441093891347,-2,-1,-5,-2,-2,2,4,0
1558441093908118,-4,-1,1,-1,-2,7,1,0
1558441093908118,-1,-3,-3,-3,7,-1,-3,-3
1558441093915098,-2,-1,0,0,-3,-5,3,2
1558441093915098,1,-2,-1,1,-1,-1,-2,-1
1558441093930061,-1,-2,-3,-3,-6,-6,-4,-2
1558441093930061,-2,0,-1,-4,-9,-6,-5,-3
1558441093930061,-1,-1,-1,2,-2,1,-2,-2
1558441093930061,0,0,-2,-4,1,2,3,0
1558441093944039,3,2,4,4,14,-2,1,1
1558441093944039,-1,-2,-2,-2,-5,2,-2,-3
1558441093959988,0,-2,0,0,0,1,0,-2
1558441093959988,0,-1,-2,-4,-6,-15,-7,0
1558441093967213,-2,0,-1,-1,-4,-1,3,1
1558441093967213,-3,-1,-1,4,1,1,-1,1
1558441093974939,-1,-3,-2,-5,0,8,4,0
1558441093974939,-2,-3,-1,-1,-1,-3,1,0
1558441093989899,-2,-1,1,2,10,2,-3,-2
1558441093989899,0,2,2,-2,-5,-4,-3,1
1558441093990898,1,-1,-1,-2,2,1,-3,0
1558441093990898,0,0,-1,-2,0,-4,-3,-2
1558441094003964,-2,-2,0,1,-6,-5,-4,-2
1558441094003964,1,-1,-2,-4,-2,5,4,0
1558441094011847,-1,1,2,2,8,3,1,2
1558441094011847,-3,-1,-1,1,0,-1,-1,-2
1558441094026899,-1,-2,-3,-3,-5,-3,-5,-3
1558441094026899,-1,-2,0,-1,-3,-1,1,-2
1558441094034884,2,1,1,3,1,-4,-2,-2
1558441094034884,0,1,-1,-6,-3,1,-1,-1
1558441094049738,1,-2,0,0,-1,-7,0,2
1558441094049738,-2,-1,-3,-3,3,10,6,1
1558441094050737,-4,0,0,-1,-5,-1,-4,-2
1558441094050737,1,-2,1,1,11,11,2,-1
1558441094072689,-2,-1,-2,-7,-10,-9,-5,-8
1558441094072689,1,-2,2,4,0,-2,-2,0
1558441094072689,-1,-1,-1,-4,2,-5,1,-1
1558441094072689,-1,1,2,-1,-3,1,2,0
1558441094086640,-2,0,-2,1,3,6,3,0
1558441094086640,-1,-2,0,-1,5,1,0,-1
1558441094094618,-2,-2,-2,-3,-7,-4,-2,-3
1558441094094618,-1,-1,-1,0,-3,-6,-3,-2
1558441094108582,-1,1,-1,-2,-3,-7,-1,2
1558441094108582,-2,2,-1,-1,3,8,0,-1
1558441094117747,0,-1,0,1,1,0,-2,-1
1558441094117747,-2,-1,0,-1,-1,-2,-3,-1
1558441094125536,-3,-3,-3,-4,-15,-5,-5,-4
1558441094125536,-2,-1,-2,1,3,0,1,-2
1558441094131704,-1,-1,-5,-5,-4,-5,-1,2
1558441094131704,-1,0,1,0,4,3,2,1
1558441094146507,-1,-1,-2,0,3,10,2,2
1558441094146507,1,-2,-1,1,-4,-10,-8,-3
1558441094154461,-2,-2,-4,-5,-12,-10,-5,-5
1558441094154461,1,2,1,1,-1,3,5,2
1558441094178396,-1,2,2,3,6,-7,-1,0
1558441094178396,0,-3,-2,1,0,1,0,0
1558441094178396,0,-2,-4,-1,-6,-1,-6,-3
1558441094178396,-4,-3,-3,-2,-3,-4,-8,-3
1558441094184409,1,-3,-2,0,-1,4,1,-2
1558441094184409,1,0,2,1,-2,-3,-1,1
1558441094191363,-1,0,-1,-3,2,-2,4,0
1558441094191363,-3,-2,0,0,-3,3,0,-1
1558441094206323,-1,-2,-3,-2,-7,-2,-5,-3
1558441094206323,-1,1,1,0,-2,-5,-2,0
1558441094215298,1,2,3,4,4,0,2,1
1558441094215298,1,1,-3,-2,4,2,1,0
1558441094229258,0,1,1,1,10,5,0,-1
1558441094229258,1,-1,-3,-3,-6,-2,1,-2
1558441094237239,-2,-4,-1,-3,-5,-6,-6,-3
1558441094237239,-1,-4,-1,-1,1,-1,-4,-2
1558441094244218,-1,-1,-2,-2,1,5,4,1
1558441094244218,-3,-3,-2,-2,-3,-2,-2,-1
1558441094251200,-1,-1,3,2,2,4,3,-1
1558441094251200,-3,-2,-2,-2,-3,-4,-5,-3
1558441094266180,1,2,0,-1,-1,-3,1,2
1558441094266180,-1,1,0,3,10,7,5,1
1558441094282117,1,-1,-2,-1,-1,-2,-2,-2
1558441094282117,0,-2,0,-2,0,1,-1,-1
1558441094289099,-2,-3,-3,-5,-11,-7,-5,-3
1558441094289099,-4,-2,-4,-6,-9,-16,-6,-1
1558441094297079,1,0,-2,-1,0,2,1,2
1558441094297079,0,-2,0,1,-4,1,3,1
1558441094312037,-1,1,3,3,16,13,2,-2
1558441094312037,-2,-2,0,2,1,4,-1,-2
1558441094313034,-5,-2,-3,-7,-6,-8,-5,-3
1558441094313034,-4,-2,-3,-3,-7,-9,-2,-2
1558441094327206,-1,-1,-2,-3,-5,-5,1,0
1558441094327206,1,-2,-2,-2,-2,1,-2,-2
1558441094335166,0,0,-2,3,-2,-6,-4,-1
1558441094335166,3,3,1,0,4,4,2,1
1558441094349073,-4,-1,-2,-1,2,-1,-2,-2
1558441094349073,1,0,1,2,0,4,-1,0
1558441094356918,-2,-2,-2,-4,-3,2,-1,-2
1558441094356918,-3,-3,-2,-4,-2,-6,-6,-4
1558441094371878,1,-2,-3,-1,-4,-5,-4,-1
1558441094371878,0,0,1,0,2,-3,2,1
1558441094372877,0,0,0,0,1,3,-1,-3
1558441094372877,-1,-2,-1,-2,-4,-3,-1,-3
1558441094386838,-3,-2,-1,-2,-8,-3,1,-2
1558441094386838,-1,-2,-1,-2,1,3,2,1
1558441094394815,0,2,0,0,8,6,5,5
1558441094394815,1,0,-2,3,2,-3,0,-1
1558441094409774,3,-2,-1,0,-1,-4,-5,-1
1558441094409774,-1,-4,-2,-6,-8,-5,-3,-4
1558441094416756,-1,-3,-1,3,-1,5,1,1
1558441094416756,-2,-3,-1,-5,-2,-3,-3,0
1558441094432714,-1,-1,-3,-4,-3,-8,-4,-3
1558441094432714,-1,1,-3,-3,-6,-8,-7,-5
1558441094432714,0,0,1,3,5,8,7,2
1558441094432714,1,3,4,4,11,6,4,1
1558441094446676,-1,-1,-1,-2,-4,0,-1,-1
1558441094446676,-3,-3,-4,-1,-2,-3,-3,-2
1558441094454776,-3,-2,1,-2,-4,-6,-2,-2
1558441094454776,-1,-1,-2,-1,-6,-2,-2,0
1558441094468618,1,0,2,3,2,8,2,1
1558441094468618,-2,2,0,2,4,-7,-6,-1
1558441094477596,-2,2,0,1,2,-1,4,3
1558441094477596,1,-1,0,0,10,7,4,2
1558441094492671,-1,-2,-1,-2,-7,-3,-1,-1
1558441094492671,-1,-1,-3,-4,-8,0,-3,-4
1558441094492671,-1,-4,-2,-2,-5,-3,-4,-3
1558441094492671,0,-3,-2,-1,1,-9,-3,-2
1558441094506710,-2,0,0,-2,0,1,1,0
1558441094506710,0,-1,0,-1,0,1,0,-1
1558441094514495,-1,0,-2,2,3,8,1,-3
1558441094514495,-2,-2,-2,-1,-3,1,0,1
1558441094529455,-2,-2,-1,-3,-3,-9,-7,0
1558441094529455,0,-2,-2,-1,-7,-4,-1,-2
1558441094537562,-1,0,2,5,8,8,2,0
1558441094537562,-2,0,-1,-1,-5,-7,-7,-3
1558441094552433,-1,-1,-4,-3,-5,-9,1,-1
1558441094552433,0,1,3,6,12,13,11,4
1558441094553392,-2,-2,0,-6,-2,-6,-5,-3
1558441094553392,-1,-2,-1,-1,-2,2,2,-1
1558441094566356,-1,-1,2,2,-2,1,-2,-2
1558441094566356,-2,-2,-4,-6,-13,-8,-10,-3
1558441094575333,-3,-2,-4,-6,-9,-15,-3,-2
1558441094575333,-1,1,2,2,2,4,2,-1
1558441094589296,1,1,1,4,9,1,1,1
1558441094589296,-1,-1,-3,-2,3,6,4,2
1558441094597274,1,-2,-1,-3,-2,2,-3,-1
1558441094597274,-1,-3,-5,-3,-11,1,1,-3
1558441094612238,-1,-1,0,-2,-5,-5,-1,-1
1558441094612238,-2,-2,0,-2,5,-1,-3,-2
1558441094613234,0,0,0,4,0,-3,-4,1
1558441094613234,-2,0,-4,-4,-8,-11,-8,-3
1558441094626196,-2,-4,-2,-2,4,13,7,1
1558441094626196,0,-1,2,3,8,3,2,0
1558441094635174,-3,-1,-2,-1,-6,3,-3,-3
1558441094635174,0,1,-2,-2,0,-3,-3,-1
1558441094649134,1,1,-2,-2,2,-8,-1,-1
1558441094649134,-2,-2,0,-3,-6,-1,2,1
1558441094657114,1,-1,-2,-3,-4,-5,-3,0
1558441094657114,-3,-1,-1,-1,-1,5,1,-1
1558441094672088,0,-2,0,-1,-3,-6,-1,-1
1558441094672088,0,1,3,5,10,7,2,1
1558441094673072,-1,1,-3,-10,0,1,0,1
1558441094673072,-4,-2,-5,-3,-9,-6,-5,-3
1558441094687033,-4,-2,-3,-2,-9,-2,-4,-3
1558441094687033,-1,-2,0,-2,-4,-2,1,0
1558441094695014,-1,-1,2,2,8,0,2,-1
1558441094695014,0,-2,-1,1,2,2,1,-1
1558441094708975,-3,-1,-1,-2,-1,-2,-2,0
1558441094708975,-1,-2,-2,-2,-5,-7,-3,-3
1558441094716954,1,-3,-1,2,-4,-1,-4,-2
1558441094716954,1,-1,1,1,3,8,4,2
1558441094731915,1,2,1,1,2,1,0,1
1558441094731915,0,1,-2,-3,1,0,0,-1
1558441094732912,-1,0,-2,2,-1,-3,-1,1
1558441094732912,-1,1,1,1,7,5,4,2
1558441094746874,-1,-1,-2,-4,-6,-4,-4,-1
1558441094746874,-1,-3,-3,2,-9,-10,-6,-4
1558441094754853,1,-1,-3,-6,1,0,-1,-1
1558441094754853,0,-1,-1,-1,3,4,1,0
1558441094768814,-1,0,1,2,3,-4,0,-2
1558441094768814,-2,-1,-1,-1,-4,4,1,-1
1558441094776794,-2,0,-1,3,8,4,3,-1
1558441094776794,1,-1,1,-1,-2,-2,-3,-1
1558441094792752,-3,-2,-5,-2,-4,-6,-8,-4
1558441094792752,0,-1,-2,-7,-3,-1,0,0
1558441094792752,0,1,2,-1,-3,-2,0,-2
1558441094792752,-1,0,1,1,2,2,2,-3
1558441094806714,-3,-4,-2,-2,-6,-5,-3,-2
1558441094806714,-2,-3,-2,-2,-1,-5,-3,-1
1558441094814693,-3,-1,-5,1,-1,4,2,-2
1558441094814693,-2,-1,-3,-3,-2,-3,-1,-1
1558441094828655,1,0,1,-2,-2,3,-2,0
1558441094828655,-1,0,-1,1,3,1,2,0
1558441094837630,-2,-2,-1,0,-4,-8,-5,-1
1558441094837630,1,-1,0,0,2,0,0,-2
1558441094852592,1,1,0,3,4,10,2,1
1558441094852592,2,0,-1,-2,0,-6,-4,0
1558441094852592,0,-1,3,-2,-1,-2,-5,-3
1558441094852592,-4,-3,-5,-7,-10,-13,-4,-2
1558441094866553,0,-2,1,0,1,1,1,-1
1558441094866553,-1,-1,-2,-1,-1,-1,0,-1
1558441094874532,-3,-3,-2,-3,-1,-6,-4,-1
1558441094874532,-1,-1,-1,-1,-1,2,1,0
1558441094897476,-1,1,1,3,6,4,2,1
1558441094897476,0,-3,-2,-4,-4,1,-1,-1
1558441094898470,-1,-1,-1,-2,-6,-3,0,-2
1558441094898470,-2,-1,0,3,4,4,2,0
1558441094912435,-1,0,-3,-2,1,2,0,-3
1558441094912435,-2,-2,-3,-3,-3,-6,-4,-3
1558441094913445,-1,-2,-3,-1,-2,-1,0,0
1558441094913445,1,-1,0,-1,-4,0,-2,-1
1558441094926394,-3,-1,-2,-6,-2,-9,-2,0
1558441094926394,0,0,1,3,-2,-1,1,1
1558441094934377,2,-1,-1,0,-3,2,3,0
1558441094934377,1,1,3,0,9,7,0,1
1558441094949333,0,0,2,0,1,-5,-2,0
1558441094949333,-3,-2,-2,-1,4,9,-2,0
1558441094957316,-3,-1,0,-2,-2,-1,0,-1
1558441094957316,2,0,1,0,0,1,-1,-2
1558441094972271,0,-2,-3,-2,-8,-7,-5,-4
1558441094972271,-1,1,0,-1,-1,-3,1,1
1558441094973268,1,0,1,1,6,6,3,0
1558441094973268,0,-1,-1,1,1,-4,-3,-2
1558441094986236,-1,-1,1,-1,-2,4,1,2
1558441094986236,-3,-2,-1,-5,-10,-6,-1,-2
1558441094995211,-1,-2,0,-3,-5,-2,4,-1
1558441094995211,0,2,3,4,15,-6,-2,2
1558441095009178,1,-3,-2,-1,-3,2,1,-1
1558441095009178,-4,-3,-5,-6,-8,-9,-8,-6
1558441095017151,0,-1,0,2,3,7,-1,1
1558441095017151,-1,-1,-1,-4,-4,2,0,0
1558441095032114,0,-1,-1,0,4,3,2,-1
1558441095032114,-2,0,2,1,2,-4,-1,-2
1558441095033109,-1,-2,-1,0,-5,-10,-6,-3
1558441095033109,-1,-1,-2,-4,1,6,6,0
1558441095047077,0,-1,0,-1,-4,-1,-3,0
1558441095047077,0,-2,-2,2,-3,-10,-3,0
