timestamp,emg1,emg2,emg3,emg4,emg5,emg6,emg7,emg8
1558441056306667,1,0,2,-5,6,-3,1,1
1558441056306667,1,1,-1,-17,0,7,5,-2
1558441056311654,-2,-1,1,15,6,4,1,-3
1558441056311654,0,1,1,3,-1,2,-4,0
1558441056312651,-2,-1,0,-10,-2,1,0,-1
1558441056312651,-2,-2,-5,4,-4,-8,-3,-2
1558441056313648,-1,-2,1,2,1,-2,3,2
1558441056313648,-3,-3,0,-9,-2,2,0,-1
1558441056335588,-2,-1,-5,-6,-7,-5,-3,-3
1558441056335588,1,1,-1,11,10,14,2,3
1558441056337584,-2,-1,-1,-8,-2,0,-2,1
1558441056337584,-1,-1,-2,-9,-1,-2,-2,-3
1558441056341573,0,-1,-1,11,-2,-7,-3,-3
1558441056341573,-2,0,1,-5,-10,-10,-6,-3
1558441056356548,1,-1,-3,-13,-6,-9,-5,-2
1558441056356548,-1,1,2,10,2,-2,-1,-1
1558441056363515,-2,-2,-6,-4,0,6,-3,0
1558441056363515,1,0,0,-2,7,5,4,2
1558441056371493,0,-2,0,-4,0,0,2,-1
1558441056371493,-1,-4,-4,0,-10,-5,0,-1
1558441056387451,-1,0,0,2,8,5,-3,-4
1558441056387451,-3,-3,-4,-7,-6,-13,-9,-2
1558441056393435,-1,2,0,3,3,5,5,3
1558441056393435,-3,-1,1,0,-2,-4,-1,-2
1558441056440309,-3,-1,-5,12,-6,-3,-4,-2
1558441056440309,0,0,3,6,4,3,2,3
1558441056440309,0,-1,1,-12,2,0,2,-2
1558441056440309,1,-3,-1,3,-5,-3,-3,-3
1558441056441306,-2,-4,0,9,-6,-3,-7,-1
1558441056441306,-3,-2,-7,-15,-3,2,-2,-3
1558441056442304,2,0,2,-1,3,3,4,3
1558441056442304,1,2,1,13,6,3,4,3
1558441056453274,-1,-2,-1,-11,-1,-1,0,-1
1558441056453274,-1,-3,-3,-10,-7,-6,-2,-3
1558441056460256,-1,-3,-3,10,-6,-8,-5,-2
1558441056460256,-3,-2,-1,-1,5,7,0,0
1558441056469232,0,0,2,-9,6,-1,-1,1
1558441056469232,-2,1,1,6,-1,-1,-1,-3
1558441056483194,-2,-1,2,4,1,-4,-3,2
1558441056483194,-1,-3,-3,-8,-6,-2,-3,-3
1558441056490176,-1,-2,-5,-8,-7,-3,-3,-2
1558441056490176,-1,-1,-2,6,-1,-2,-2,-1
1558441056498156,-3,0,-1,-3,-2,3,-1,-1
1558441056498156,-2,0,2,-3,6,-1,2,-2
1558441056513114,0,-1,0,6,-2,-3,-1,0
1558441056513114,1,-3,-5,-9,-7,0,-2,0
1558441056520096,-1,-3,-1,-2,2,5,-2,0
1558441056520096,-2,-2,-2,-1,-5,-5,-4,-1
1558441056529071,-2,1,-2,-1,-3,0,1,-4
1558441056529071,-1,-2,1,-1,-5,-8,-3,-2
1558441056544032,2,0,-5,-3,-2,-3,1,-1
1558441056544032,0,-1,-6,-2,6,10,3,1
1558441056550015,1,0,1,-1,4,1,1,1
1558441056550015,0,1,3,2,-2,-5,-3,-2
1558441056557994,-2,-2,0,2,-5,-2,-1,-2
1558441056557994,-1,-2,0,-1,2,-3,-2,-2
1558441056573952,-2,-1,0,-1,1,-1,0,-3
1558441056573952,-1,-2,-3,-6,-2,-2,-1,-1
1558441056579935,-3,-3,-2,-3,-9,-6,-5,-3
1558441056579935,0,-1,-1,-4,-5,-1,1,0
1558441056588914,1,0,0,2,4,2,0,-2
1558441056588914,-1,0,2,5,3,2,0,-2
1558441056603871,-1,0,-3,-4,-2,-4,-3,-2
1558441056603871,-2,1,0,-2,0,0,-2,1
1558441056610852,-2,-1,-4,-3,1,-1,-2,2
1558441056610852,-2,-2,1,1,-2,0,0,-2
1558441056617834,0,0,-2,-2,-4,0,3,-1
1558441056617834,0,-2,-1,1,0,-1,-4,-2
1558441056632808,-1,-2,2,-2,0,-3,-2,0
1558441056632808,-1,-1,1,-1,5,9,0,0
1558441056640773,-1,-3,-5,-3,-8,-4,-6,-3
1558441056640773,-2,0,1,-3,-6,-5,3,1
1558441056649749,-2,0,1,2,4,3,0,-2
1558441056649749,-4,-5,-5,-2,-5,-5,-3,-3
1558441056662715,0,0,3,6,8,1,1,-2
1558441056662715,-2,-1,-4,-4,-11,-8,-6,-1
1558441056671690,0,0,-2,-4,1,7,3,-1
1558441056671690,0,2,1,3,8,1,3,1
1558441056677674,0,-1,1,-4,1,-2,-3,-2
1558441056677674,-2,-3,1,1,-7,-5,-4,-2
1558441056692635,-1,-3,-3,-1,-3,0,2,0
1558441056692635,-1,-2,-3,0,-3,3,1,1
1558441056700613,0,0,0,0,3,0,0,-1
1558441056700613,3,0,-1,2,3,-2,1,-1
1558441056709588,-1,-1,0,-1,-1,3,-2,0
1558441056709588,0,1,2,1,3,3,-2,2
1558441056722555,-2,-2,-3,-2,-1,-6,-3,0
1558441056722555,-1,0,-3,-3,-3,-2,1,-1
1558441056731531,0,-1,-1,-4,-6,-10,-3,-2
1558441056731531,1,0,0,6,9,6,2,-1
1558441056737517,-5,-4,-4,-7,-12,-2,-4,-3
1558441056737517,-1,-1,-1,-3,-1,-3,-4,-3
1558441056752474,-1,-2,-2,-4,1,1,1,1
1558441056752474,-1,1,2,2,5,4,2,1
1558441056760453,1,-2,3,3,7,-2,0,1
1558441056760453,-1,-1,-2,-3,-3,-6,-3,-1
1558441056769428,-5,-2,-1,-3,-11,-5,-3,-2
1558441056769428,0,0,-6,-2,1,1,-3,-2
1558441056782394,-3,0,-3,-2,2,3,2,-2
1558441056782394,0,0,-1,-2,4,2,1,0
1558441056791370,1,-1,1,5,-1,-7,-2,-1
1558441056791370,0,0,1,3,-1,-4,1,1
1558441056798353,-3,-3,-3,-8,-4,1,-4,-4
1558441056798353,0,0,1,3,2,4,-2,0
1558441056813311,-2,-3,-2,-1,-1,0,-2,-3
1558441056813311,2,-1,0,-4,-9,-8,-2,1
1558441056820293,-1,0,-1,4,4,5,0,-1
1558441056820293,-1,-1,1,3,1,-1,1,0
1558441056829269,-2,-1,-6,-8,-8,3,-1,-1
1558441056829269,0,-2,-1,-2,1,-7,-1,-2
1558441056843247,-1,0,4,4,-4,-2,3,1
1558441056843247,0,-1,-3,-3,5,10,2,0
1558441056852208,1,0,2,3,5,-3,-2,-1
1558441056852208,-2,-3,-3,-4,-9,-6,-7,-4
1558441056858192,-1,0,1,0,0,0,-1,0
1558441056858192,-2,-2,-2,-3,-7,-4,-4,-1
1558441056873152,0,0,0,-3,-1,-1,-1,1
1558441056873152,-1,-1,-3,-1,-4,-5,-3,-3
1558441056880135,1,1,3,3,10,12,7,2
1558441056880135,-1,-3,-1,0,-2,-2,-1,-2
1558441056889108,-2,0,-1,0,-7,-11,-3,-4
1558441056889108,-2,-3,-1,-4,-1,0,-4,-2
1558441056903072,-1,0,-2,1,1,-3,-3,1
1558441056903072,-2,-1,-2,-2,-3,0,-1,1
1558441056912046,1,-2,1,-1,-2,-1,-1,1
1558441056912046,0,-1,-3,-3,-3,-5,1,1
1558441056918031,1,-2,-1,1,4,3,0,0
1558441056918031,-2,0,1,2,1,0,-1,-1
1558441056932992,-2,-1,-1,-2,-1,1,-1,-2
1558441056932992,-2,0,0,0,-1,-1,0,-2
1558441056939972,1,-1,-6,-2,-3,0,0,-2
1558441056939972,-1,-1,-1,-2,-5,-7,-4,-3
1558441056948949,1,2,3,4,17,12,3,0
1558441056948949,1,-2,-2,-1,-1,1,1,0
1558441056962910,1,0,1,-1,-1,-4,-1,1
1558441056962910,1,-2,0,-3,-7,-4,-4,-4
1558441056971888,0,-2,-2,2,-1,-2,-1,-1
1558441056971888,-2,-1,-4,-3,1,5,-1,-3
1558441056977871,-2,-2,-2,-3,-7,-8,-8,-5
1558441056977871,-2,0,-1,-2,-1,2,-1,0
1558441056992833,0,-1,1,0,-3,-12,-3,1
1558441056992833,-1,0,3,-1,4,4,4,1
1558441057000811,0,-2,-3,-3,-5,0,-1,-2
1558441057000811,-2,-2,-4,-3,-6,-4,-1,-3
1558441057008789,-2,-1,-5,-3,-2,-6,-7,-3
1558441057008789,0,0,1,1,11,8,5,0
1558441057022751,-1,0,0,0,2,1,-1,-2
1558441057022751,-1,1,1,1,0,-2,-2,3
1558441057031727,-1,-1,0,-2,2,7,4,2
1558441057031727,-3,-6,-6,-7,-12,-6,-2,-2
1558441057045690,-1,-1,0,3,2,-4,-2,0
1558441057045690,1,0,3,0,1,-2,-1,0
1558441057052671,-2,0,-5,-6,-7,-9,-4,-2
1558441057052671,-1,0,0,0,-1,2,0,1
1558441057060650,-1,1,0,1,2,3,0,2
1558441057060650,0,-2,-2,-3,0,-1,-2,-4
1558441057069626,-1,-1,1,1,1,4,2,-1
1558441057069626,-2,-1,2,5,-4,-4,-4,-2
1558441057082591,-3,-1,-3,-6,-4,-2,-4,-3
1558441057082591,1,-2,-4,-5,-5,2,2,-1
1558441057091566,1,0,0,0,-1,-3,-2,-1
1558441057091566,2,0,-1,0,3,4,4,3
1558441057106526,0,-2,0,2,-3,-3,-1,-3
1558441057106526,-1,-1,-2,1,-2,-4,-6,-2
1558441057112512,-1,0,-2,-3,-3,-4,-6,-2
1558441057112512,-1,1,1,2,3,2,-2,-3
1558441057120490,-1,-2,1,1,-2,-6,-2,-1
1558441057120490,-2,-4,-4,-3,-5,1,2,0
1558441057129466,-3,0,2,0,0,6,3,1
1558441057129466,1,1,-2,-1,5,-2,-3,0
1558441057142431,-1,-1,-1,-1,2,1,-3,-1
1558441057142431,-2,-2,-1,-3,-5,-6,-2,-1
1558441057151410,1,-1,1,2,2,5,2,-2
1558441057151410,1,0,-2,0,-5,-6,-2,-3
1558441057166367,-2,-1,-3,-4,-3,1,0,-1
1558441057166367,1,1,4,4,12,9,6,2
1558441057173349,1,2,0,2,6,6,2,1
1558441057173349,-3,-2,0,-1,-7,-5,-5,-3
1558441057180330,-2,-1,-4,-3,-7,-7,-4,-3
1558441057180330,-2,0,-1,-4,0,1,-3,-2
1558441057189306,-3,-4,-5,0,-8,-7,-6,-2
1558441057189306,3,0,3,1,8,8,7,1
1558441057203268,-2,-1,1,-2,-1,-4,-1,-1
1558441057203268,0,-2,-1,2,2,-2,-1,-1
1558441057211248,-1,0,-1,-6,-4,-3,-5,-3
1558441057211248,-2,0,-3,-3,-5,-10,-4,1
1558441057226206,2,-1,0,4,2,6,0,0
1558441057226206,0,1,2,3,6,-2,-2,1
1558441057233189,0,-1,-3,-5,-2,-6,-1,-1
1558441057233189,-3,-3,-1,-2,-6,-1,-2,-3
1558441057240169,-2,-1,-2,-1,-5,-6,-3,-1
1558441057240169,-2,-2,1,-3,-4,-2,-3,-2
1558441057249146,1,1,2,1,0,1,-1,-1
1558441057249146,2,0,1,3,3,6,1,0
1558441057263108,2,-1,-2,-4,-2,5,0,1
1558441057263108,-1,-2,-3,-4,-6,-9,-4,-2
1558441057272084,0,-1,5,3,6,1,2,-2
1558441057272084,1,1,1,1,3,1,3,3
1558441057286047,0,-1,-4,-3,3,3,2,-1
1558441057286047,-2,-1,-2,-2,-4,0,-3,-1
1558441057293027,-1,-1,-3,-2,-5,1,-2,-2
1558441057293027,0,-2,0,0,-2,0,-4,-2
1558441057308984,-1,-2,3,-4,-3,-1,-4,-1
1558441057308984,2,0,-2,0,7,-2,4,3
1558441057314969,-5,0,0,-1,1,2,1,0
1558441057314969,0,-1,-1,0,4,2,-1,-2
1558441057331923,-4,-1,-5,-4,-9,-5,-3,-4
1558441057331923,-2,0,-2,-4,-3,-2,-5,-1
1558441057332922,-1,-1,2,0,0,0,3,1
1558441057332922,0,0,-4,-7,-5,-12,-4,-1
1558441057345887,-1,-1,2,2,1,-5,-2,-1
1558441057345887,-1,-3,-3,-2,0,4,-1,-2
1558441057352868,-1,0,-1,-1,-1,0,-1,1
1558441057352868,-2,-3,-3,-1,-4,-1,-2,-3
1558441057359849,-1,0,1,3,3,0,-1,-1
1558441057359849,-4,-3,-4,-10,-8,-5,-3,-2
1558441057375808,0,0,-1,2,2,0,2,0
1558441057375808,-4,1,-1,-2,-1,0,-1,-1
1558441057382788,-1,-1,0,-1,6,5,1,-2
1558441057382788,3,0,-1,3,1,6,3,0
1558441057391763,1,-3,0,2,4,-2,-1,0
1558441057391763,-1,-4,-2,-4,-5,-10,-5,-2
1558441057405726,-2,-3,-2,-5,-7,-6,-3,-2
1558441057405726,-1,2,3,7,6,3,3,2
1558441057412707,0,-1,-7,-6,-4,3,-1,-3
1558441057412707,-2,0,-1,-1,-2,0,0,-1
1558441057428715,0,0,3,3,5,-6,-2,1
1558441057428715,-2,-3,2,1,2,-1,-2,-2
1558441057435647,0,0,0,0,-3,-3,-3,0
1558441057435647,-2,-2,-2,-3,-3,0,-2,-4
1558441057443625,0,-1,-4,-2,-8,0,0,2
1558441057443625,1,1,3,3,5,2,1,-2
1558441057451604,2,-1,0,3,5,1,1,3
1558441057451604,0,0,0,-4,-3,-2,-2,-1
1558441057465568,-1,0,4,1,3,4,5,2
1558441057465568,-1,-1,-1,-3,-4,-8,-5,-2
1558441057472548,0,-1,-2,0,2,5,-1,-2
1558441057472548,-5,-5,-4,-4,-9,-12,-4,-4
1558441057488504,-1,-2,-1,-3,-2,5,3,-1
1558441057488504,2,1,0,-2,-1,-3,0,-2
1558441057495485,-1,1,1,2,3,-4,-1,-3
1558441057495485,-1,-1,-1,-2,-3,-3,-6,-1
1558441057511443,-2,-2,-2,-4,-5,-7,-3,-3
1558441057511443,-4,-2,-3,0,0,2,0,0
1558441057513439,-1,-2,-2,-6,-3,0,-2,-2
1558441057513439,0,-2,1,0,2,0,1,-2
1558441057526404,-2,-4,-7,-4,-11,-8,-5,-3
1558441057526404,0,1,4,1,8,3,-1,1
1558441057532388,-3,-3,3,-1,-3,-5,-2,-3
1558441057532388,-1,1,0,1,1,4,2,1
1558441057548345,1,-1,-2,2,-1,-1,-2,-1
1558441057548345,-2,-4,-8,-14,-12,-5,-1,-2
1558441057555327,0,2,1,0,2,-3,1,1
1558441057555327,-3,-2,3,4,5,4,1,1
1558441057571283,1,0,0,-2,1,-2,-2,-1
1558441057571283,-5,-3,-4,-2,-8,-6,-7,-7
1558441057573278,-3,-2,-4,-1,-8,-4,-5,-3
1558441057573278,1,1,0,0,3,-2,2,2
1558441057586244,1,0,1,-2,7,4,3,1
1558441057586244,0,0,-1,1,3,5,4,2
1558441057593225,-3,-3,-2,-5,-7,-7,-6,-3
1558441057593225,0,0,1,0,-3,0,-4,0
1558441057617162,-1,-1,-1,-3,-2,3,1,-1
1558441057617162,0,0,-1,5,8,3,1,-2
1558441057618158,0,-2,-4,-2,1,4,0,0
1558441057618158,-1,-1,-6,-7,-6,-7,-1,-1
1558441057632128,-2,-1,0,1,0,-9,-3,-1
1558441057632128,-1,1,1,1,1,5,2,-1
1558441057633118,-2,1,-2,-3,2,2,0,0
1558441057633118,-1,1,0,6,5,5,2,-1
1558441057646100,-2,1,-2,-7,-1,0,-1,0
1558441057646100,-3,-3,-1,-1,-7,-9,-3,-2
1558441057653064,-1,-1,0,-3,-6,-3,-5,-2
1558441057653064,-2,0,1,3,0,1,0,-1
1558441057669023,-3,-3,-6,-3,-4,-8,0,-3
1558441057669023,1,1,1,1,-1,3,1,1
1558441057675006,-2,0,-1,1,9,5,2,-3
1558441057675006,-2,-3,-1,-2,-3,-5,-5,-3
1558441057691960,0,1,1,-1,2,0,0,1
1558441057691960,-4,-2,-2,0,-7,-6,-4,-1
1558441057697943,1,-1,1,1,-4,-2,-1,1
1558441057697943,-3,-3,-3,-6,-7,-6,-5,-3
1558441057705923,-2,-1,1,2,1,10,3,-1
1558441057705923,0,2,2,5,9,4,0,-2
1558441057712904,-1,-1,0,-3,-3,-10,0,1
1558441057712904,-1,-3,-5,-4,-6,-2,-6,-4
1558441057729213,0,-3,1,0,0,1,-1,-2
1558441057729213,1,-1,1,1,2,1,3,2
1558441057736162,0,-2,-4,-2,3,0,1,-1
1558441057736162,-1,-3,-3,-4,-10,-6,-1,-3
1558441057751803,-2,0,-2,1,-2,-6,-4,-1
1558441057751803,-1,0,1,-1,2,3,-1,1
1558441057752800,-1,-1,-3,-2,-5,-8,-7,-1
1558441057752800,2,-1,2,1,3,0,2,1
1558441057765763,0,0,1,-3,0,4,0,0
1558441057765763,-2,-2,-2,-5,-3,-1,-2,-2
1558441057780759,-2,-2,-2,0,-5,-1,-4,-1
1558441057780759,0,0,-1,-2,2,2,3,4
1558441057788706,0,1,-1,1,2,3,3,-2
1558441057788706,0,-2,-2,-2,2,-3,0,-2
1558441057795685,-2,-4,-2,0,-4,-2,0,-2
1558441057795685,0,-1,4,-1,3,2,0,-1
1558441057811640,-1,0,-3,0,3,0,-2,0
1558441057811640,-2,1,-1,1,-8,-1,-3,0
1558441057812637,-3,-1,-1,-2,0,2,0,0
1558441057812637,-3,-2,-2,-2,6,-3,0,-1
1558441057834580,-1,0,1,1,1,-5,2,0
1558441057834580,-2,-1,-4,-3,-5,-2,-3,-3
1558441057835576,-2,0,2,-3,-7,-3,-1,-3
1558441057835576,-2,0,-1,2,-5,-4,-5,-2
1558441057848541,-3,-3,-4,-5,-5,-1,-4,-2
1558441057848541,0,-2,-2,-2,-4,-6,-1,-3
1558441057855534,2,1,2,2,6,7,4,1
1558441057855534,1,0,-1,1,5,8,0,-1
1558441057871491,-3,-7,-5,-6,-7,-5,-6,-3
1558441057871491,1,0,0,0,-3,-5,-1,0
1558441057873502,-2,0,-2,-1,-9,-8,-4,-2
1558441057873502,-3,-1,0,-2,-4,3,-1,0
1558441057894437,0,3,4,8,22,22,7,2
1558441057894437,2,-2,-3,-3,-3,-6,-2,-1
1558441057895417,-2,-1,-5,-3,0,-2,0,0
1558441057895417,-1,-1,-2,-1,-3,-3,1,0
1558441057908381,0,-5,-3,-3,-12,-12,-8,-5
1558441057908381,-3,0,1,1,0,3,-3,-1
1558441057915363,1,0,0,-1,4,5,1,-1
1558441057915363,-1,-2,-3,-4,-6,-6,-2,-1
1558441057948274,-1,0,0,1,-3,1,4,-1
1558441057948274,1,0,2,3,16,9,4,0
1558441057949274,-2,-3,-1,-2,-4,-5,-5,0
1558441057949274,-3,-1,-1,-1,-4,0,-5,-5
1558441057950269,-2,1,2,0,-4,-8,-3,-1
1558441057950269,-2,-2,-7,-7,-4,-5,-1,-1
1558441057954260,-1,0,-1,0,3,1,4,2
1558441057954260,2,1,0,3,8,4,6,2
1558441057968221,-1,0,0,-4,-3,-4,-6,-2
1558441057968221,-2,-2,1,-1,-4,-6,-4,-2
1558441057975204,2,0,-1,2,-1,4,0,2
1558441057975204,-1,-4,-5,-3,-4,-3,-6,-5
1558441057999139,-1,-1,-1,0,4,4,4,1
1558441057999139,-1,-1,-2,0,-3,-1,1,0
1558441058000138,-4,-2,0,-1,-2,-4,-1,-2
1558441058000138,-1,-2,1,-4,-5,-3,0,-1
1558441058005162,0,-1,-1,-1,-6,0,-3,-2
1558441058005162,-1,0,-2,0,2,-3,-3,-1
1558441058014100,0,1,0,-2,4,5,3,1
1558441058014100,-1,0,2,0,1,0,1,1
1558441058028062,-1,-3,-2,-1,-7,-7,-8,-2
1558441058028062,-1,-2,-3,-6,2,8,3,-3
1558441058035042,0,0,0,1,3,5,4,-1
1558441058035042,1,0,2,1,4,-7,-5,0
1558441058059092,-1,-3,0,-1,1,-1,1,3
1558441058059092,-4,-4,0,-4,-12,-10,-7,-3
1558441058061007,-1,-1,-1,2,3,3,2,0
1558441058061007,-1,-3,-5,-1,-3,-2,-1,-4
1558441058064963,0,0,-3,-2,-3,0,1,-2
1558441058064963,-1,0,-2,-2,-1,1,-1,1
1558441058073939,-2,-1,0,2,0,0,1,-1
1558441058073939,1,1,5,3,7,3,-1,2
1558441058089281,0,-1,-2,-1,1,3,2,1
1558441058089281,-3,-4,-6,-4,-8,0,-1,-2
1558441058096125,-2,-2,-2,-4,-2,-6,-6,-2
1558441058096125,-1,0,-2,-4,-6,0,1,-2
1558441058112057,-2,1,-1,0,0,-4,-1,-1
1558441058112057,-1,-1,2,4,6,6,-1,2
1558441058113077,0,-2,-2,-2,-3,-3,-2,-2
1558441058113077,-2,-1,-1,-2,2,-1,1,0
1558441058126143,0,-2,-3,-1,-4,0,1,-1
1558441058126143,-2,-1,0,-1,-5,-4,-3,-2
1558441058134175,-1,-2,-4,-4,-5,0,-3,-1
1558441058134175,1,0,-1,1,-4,2,0,0
1558441058148134,-1,1,0,-2,2,-5,-4,-3
1558441058148134,-2,-2,1,0,-2,-1,-2,-1
1558441058163096,-1,0,1,2,3,0,1,0
1558441058163096,-1,-1,-4,-1,-3,-2,-1,0
1558441058172070,-1,0,-3,-6,0,-1,2,-2
1558441058172070,1,0,-2,-2,-3,-5,-3,-1
1558441058173067,-1,0,0,-1,-5,-3,-4,-1
1558441058173067,-1,-1,-1,-3,-1,0,-1,2
1558441058185484,-4,-1,1,4,5,5,2,-3
1558441058185484,1,1,3,4,7,3,4,1
1558441058199997,-2,0,-2,-3,-3,-4,-3,-2
1558441058199997,-4,-2,-2,-2,-2,0,-2,-3
1558441058224992,-2,-1,0,-2,-6,-6,-5,-3
1558441058224992,-1,-2,-2,-1,-3,0,1,-1
1558441058225928,-1,-3,-3,-3,-6,-1,-2,-3
1558441058225928,-1,-1,0,-2,-2,-5,0,-1
1558441058231912,0,-1,0,1,2,-4,-2,1
1558441058231912,1,1,2,2,6,5,2,0
1558441058232914,0,-2,-2,-1,-1,-1,-1,-4
1558441058232914,-2,-2,-4,-1,-5,0,-5,-2
1558441058246179,0,-2,4,-1,-1,-2,-2,1
1558441058246179,0,-1,-2,-3,-6,-7,-2,-2
1558441058253853,-1,-1,-2,1,4,-1,1,-1
1558441058253853,0,-4,1,-1,-7,-4,-3,-2
1558441058269136,1,0,-1,-1,4,3,-2,0
1558441058269136,-1,-1,2,-1,-2,6,0,2
1558441058276121,-3,-1,2,3,-2,-2,-1,-3
1558441058276121,-1,1,0,0,4,-2,1,0
1558441058291866,0,-2,-5,-5,-8,-1,-1,-2
1558441058291866,0,-1,-2,0,-1,-3,-2,-1
1558441058298077,0,0,-2,0,-4,1,-1,-2
1558441058298077,1,0,-1,-1,1,1,0,-1
1558441058305817,-1,-2,-2,-2,-5,-5,0,-2
1558441058305817,-2,-1,-1,-3,-5,-11,-6,-1
1558441058314691,0,0,2,-1,3,1,-1,2
1558441058314691,0,-2,-2,0,5,8,2,1
1558441058328693,-2,0,0,3,4,3,2,3
1558441058328693,-2,-2,1,-1,2,-3,1,1
1558441058336629,-1,-3,-3,-5,-3,-7,-5,-1
1558441058336629,-4,-3,-2,-2,-11,-8,-7,-4
1558441058350666,-3,-2,-2,-3,-6,-2,-3,-1
1558441058350666,1,1,0,0,10,5,4,4
1558441058357688,1,2,1,2,7,3,-1,0
1558441058357688,2,1,-2,2,5,3,0,-1
1558441058365665,0,0,0,-4,-1,-4,-3,-3
1558441058365665,-2,0,-1,0,-3,-1,2,-1
1558441058390597,0,-2,-2,-2,-6,-2,-1,-2
1558441058390597,-1,0,-1,-5,-6,1,-1,-3
1558441058391624,0,1,3,1,2,-1,0,1
1558441058391624,0,1,-6,0,5,-2,0,-1
1558441058395766,-4,-2,2,-1,-5,-6,-1,-1
1558441058395766,-2,-3,-4,-1,5,1,0,-2
1558441058411626,-1,-2,-2,-1,-4,-2,-1,-1
1558441058411626,1,0,-1,-1,-1,3,-1,-3
1558441058418527,-3,-3,-1,-4,-3,-9,-4,-5
1558441058418527,1,-2,0,-1,0,-3,0,0
1558441058425505,0,0,-1,3,0,4,1,-1
1558441058425505,-1,-4,-2,-3,-10,-5,-6,-2
1558441058450438,-1,0,-1,0,0,2,0,2
1558441058450438,-2,0,-1,1,0,-2,0,-2
1558441058451435,-2,-1,-3,-2,1,-2,-3,1
1558441058451435,-1,-1,-1,-2,-2,0,-1,-1
1558441058455428,-1,-3,-3,-2,-6,-4,-3,-1
1558441058455428,1,2,2,0,0,2,3,4
1558441058471381,0,1,-2,-3,3,-2,0,1
1558441058471381,-1,-2,0,-2,-5,-4,-2,-4
1558441058477365,0,1,1,7,7,8,4,2
1558441058477365,1,0,0,-2,2,-1,-2,-3
1558441058502298,1,-2,-2,-2,-2,0,-4,-4
1558441058502298,0,0,-1,1,6,5,2,1
1558441058503297,1,-3,-3,-4,-3,1,0,-1
1558441058503297,-2,0,1,-1,-2,-7,1,-3
1558441058508470,-1,0,-1,1,1,-2,-2,0
1558441058508470,-6,-3,-3,-3,-4,-4,-5,-3
1558441058515266,1,-1,-1,-3,2,4,2,1
1558441058515266,-2,-1,1,-1,-4,-6,-4,-2
1558441058531419,-3,-2,-4,-1,-7,2,-2,-1
1558441058531419,0,-2,0,-4,-6,-9,-5,-1
1558441058562151,-4,-2,-4,-4,2,-1,1,0
1558441058562151,1,0,0,2,3,1,3,2
1558441058563136,-3,-1,-1,-1,-3,-2,-2,-4
1558441058563136,-1,1,-1,2,3,4,0,1
1558441058564134,-1,-1,0,-2,-1,4,1,-1
1558441058564134,-2,0,1,0,2,-2,-2,-1
1558441058568150,-3,-1,-3,-3,1,-2,1,1
1558441058568150,-1,-3,-2,-3,-3,4,4,-2
1558441058583083,0,-3,-3,0,-8,-5,-3,-3
1558441058583083,-1,-2,-2,-3,1,2,-2,-1
1558441058591092,1,2,2,0,1,1,2,-1
1558441058591092,1,0,3,4,1,-4,-2,-1
1558441058614998,-2,-1,-3,-2,-4,-7,-3,-1
1558441058614998,-5,-2,-2,-5,-11,-3,-4,-2
1558441058615995,-1,-1,-2,2,1,6,1,1
1558441058615995,-1,-1,-1,-3,2,3,2,0
1558441058616993,-2,-1,-2,-1,2,-2,0,1
1558441058616993,-1,-2,-1,1,2,4,1,1
1558441058628962,-2,-2,1,-1,-6,-8,-5,-4
1558441058628962,0,0,0,-1,1,-4,0,0
1558441058634974,0,-1,0,2,-1,1,1,0
1558441058634974,1,0,-1,4,8,6,0,0
1558441058650934,-2,-1,-4,-3,-2,0,-4,-2
1558441058650934,1,-2,-2,-3,-4,-4,-4,-3
1558441058664865,-2,-1,-5,-3,-8,-10,-7,-2
1558441058664865,0,0,5,1,-2,1,-2,0
1558441058673880,0,-1,1,-1,3,1,3,0
1558441058673880,0,-2,-1,0,3,3,4,-1
1558441058675843,0,-2,-1,0,6,4,-2,1
1558441058675843,-2,-1,-2,-6,-4,-3,2,1
1558441058688847,-1,-1,-4,-1,-7,-9,-7,-2
1558441058688847,-2,-2,-2,0,-7,-1,-3,-1
1558441058695831,0,1,1,-1,6,5,2,1
1558441058695831,-2,-4,-2,-3,-6,-5,-1,-2
1558441058726745,-1,-2,1,-1,1,-6,-4,0
1558441058726745,0,-1,-3,-2,2,4,2,0
1558441058728694,0,-1,1,-2,-4,-5,-4,-1
1558441058728694,1,0,-1,0,-1,-3,-5,-1
1558441058741704,-2,-2,-1,1,-4,0,1,0
1558441058741704,-1,0,-1,0,1,-2,1,0
1558441058743659,-3,-1,2,-3,2,1,-1,-4
1558441058743659,0,-4,-4,1,-8,-5,-3,-2
1558441058748647,-1,-1,-4,-6,1,4,5,-1
1558441058748647,-2,0,1,-1,-2,-12,-3,-2
1558441058755625,1,1,-3,1,-1,0,3,1
1558441058755625,1,-2,-4,-5,-3,-4,-3,0
1558441058779612,0,-3,0,-2,-3,5,0,-2
1558441058779612,0,0,0,3,6,7,3,1
1558441058780561,-1,-1,1,-1,-5,-6,-4,-3
1558441058780561,-2,-1,-3,-4,-3,-8,-6,-2
1558441058794520,-1,0,0,-1,0,-2,1,0
1558441058794520,-2,0,-1,0,-7,-3,-5,-2
1558441058795515,-2,-2,-2,-2,-4,0,-2,-1
1558441058795515,-2,-3,-3,-3,-3,-1,-1,0
1558441058808544,-2,0,-1,1,-1,-4,-4,-1
1558441058808544,-2,0,1,0,4,8,3,1
1558441058815499,-1,0,-1,-1,3,-1,2,0
1558441058815499,0,-2,-3,1,3,2,-1,-1
1558441058831640,0,-1,2,1,3,-2,-2,0
1558441058831640,-1,-4,-2,-6,-4,-3,-2,-2
1558441058838536,0,-2,1,1,0,4,2,-1
1558441058838536,0,0,0,2,-2,-2,0,-2
1558441058854668,0,-1,-1,1,7,7,1,-2
1558441058854668,-2,-1,-6,-7,-9,-8,-4,0
1558441058855588,-2,-1,-1,-2,-6,-7,-2,-2
1558441058855588,-3,-1,0,-2,0,-1,1,0
1558441058868604,-1,-3,-2,-1,0,6,1,0
1558441058868604,-2,-1,2,2,-5,-5,-6,-2
1558441058875536,-1,-1,-4,-1,-1,-1,-3,0
1558441058875536,0,2,-1,0,10,12,5,0
1558441058891306,-1,-2,0,-2,-3,-4,-1,-2
1558441058891306,-1,-3,-3,-4,-6,-2,-2,-3
1558441058898273,0,-1,-1,-3,-1,-3,-3,-2
1558441058898273,-1,-2,1,-2,-4,-7,-4,-2
1558441058914445,0,0,0,0,2,4,1,4
1558441058914445,-3,-3,-1,0,5,3,-2,-1
1558441058915207,-2,-1,-3,-2,-1,0,-4,-2
1558441058915207,-4,-4,-2,-2,-4,1,-1,-3
1558441058929277,-3,-1,-2,-2,-3,-5,2,-1
1558441058929277,1,2,-2,-1,3,2,0,-1
1558441058935180,1,-2,-1,-1,-4,-3,-3,-1
1558441058935180,0,1,3,3,8,8,5,2
1558441058951104,-1,-2,-2,-5,-5,-8,-4,-2
1558441058951104,-1,-2,-2,0,-4,0,-5,-4
1558441058958151,-1,-1,1,2,-2,1,1,0
1558441058958151,0,0,-3,-3,-2,-3,-5,-1
1558441058974047,-1,-2,-1,-3,-3,-3,0,-1
1558441058974047,-3,-2,-2,0,1,-4,-2,-2
1558441058976035,-1,0,0,1,2,2,2,-1
1558441058976035,-1,-4,-3,-1,2,-3,-2,0
1558441058996986,-3,-2,-4,-2,-4,-2,-4,-3
1558441058996986,1,-2,0,2,-3,-3,-2,0
1558441058997975,0,-3,-2,-5,-7,-3,-2,-3
1558441058997975,-1,-2,-1,-2,-1,-4,2,-2
1558441059018948,-1,0,1,3,5,5,0,0
1558441059018948,-2,-2,0,-2,1,3,-1,1
1558441059020941,-3,0,1,0,1,-3,0,-1
1558441059020941,1,-1,-2,0,-3,-1,-1,0
1558441059033878,-1,-1,-4,-2,-5,-4,-5,-4
1558441059033878,-1,2,1,-2,-2,2,1,1
1558441059035876,-1,1,0,-1,6,7,5,2
1558441059035876,0,1,-2,2,-5,-8,-3,-2
1558441059048146,-2,-3,1,-1,-3,-2,-1,-1
1558441059048146,-1,-1,1,0,1,-6,5,0
1558441059056816,-4,-3,-5,-1,-5,-3,-5,-3
1558441059056816,-1,-2,-1,-2,1,6,-1,0
1558441059071873,1,-2,-1,-1,3,2,-1,2
1558441059071873,0,-1,0,-1,-3,-4,-3,-2
1558441059078070,-1,-3,2,0,-5,-6,-3,-2
1558441059078070,-1,-1,-2,-6,0,2,-2,-2
1558441059094791,-3,-1,-4,-3,-3,-6,-3,-4
1558441059094791,0,2,3,6,9,6,4,4
1558441059095717,1,-2,-2,-1,0,0,-1,-1
1558441059095717,-1,-3,0,-3,-6,2,-1,-1
1558441059116663,0,0,2,2,1,0,-1,0
1558441059116663,-2,-2,-6,-5,-4,-6,-3,-2
1558441059118653,0,0,1,-2,-2,-6,-4,-2
1558441059118653,-3,-2,-3,0,-8,-10,-6,-2
1558441059131631,0,1,2,-1,3,3,4,1
1558441059131631,-2,-1,-2,-1,2,4,1,-3
1558441059137794,-2,-1,-2,-2,0,1,0,1
1558441059137794,-2,-2,-1,1,2,2,1,1
1558441059170554,2,1,1,1,4,0,-2,1
1558441059170554,-3,-4,-1,-4,-13,-7,-5,-6
1558441059171516,-1,0,1,3,4,2,3,3
1558441059171516,0,0,-1,1,9,8,4,1
1558441059172523,-2,0,-2,-1,-2,-2,-2,2
1558441059172523,0,-2,-4,-1,-5,-3,-6,-3
1558441059176685,-1,-1,-3,-3,-2,-1,2,-2
1558441059176685,-1,-2,0,-3,-4,-4,-1,-2
1558441059191458,-1,0,-1,0,-6,-5,-1,-2
1558441059191458,1,0,1,3,4,-1,3,2
1558441059198159,1,0,2,2,9,3,-3,1
1558441059198159,0,-1,-4,-1,2,0,1,0
1558441059213817,-4,-2,-4,-3,-7,-6,-4,-3
1558441059213817,-2,-3,-2,-5,-14,-4,-2,-2
1558441059220116,1,-2,0,-2,-2,0,1,0
1558441059220116,1,0,2,4,6,6,0,-1
1558441059228125,0,0,-3,-1,0,-3,-2,-1
1558441059228125,0,0,-3,-3,-1,2,-1,-1
1558441059236759,-3,-2,-3,-1,-7,-7,-2,-2
1558441059236759,0,2,0,0,3,4,3,1
1558441059251062,1,-1,-2,-2,3,-1,2,0
1558441059251062,0,0,-3,-3,0,-1,-1,0
1558441059257802,1,-1,-1,2,-2,2,-3,-1
1558441059257802,-4,-3,-3,-4,-10,-10,-9,-4
1558441059273984,0,-1,-1,-1,-1,1,2,-1
1558441059273984,0,-2,0,-3,2,6,0,-1
1558441059280639,0,-1,-2,-6,-9,-9,-5,-4
1558441059280639,-1,-1,1,-2,-6,-7,-2,0
1558441059287910,2,1,3,5,9,8,3,3
1558441059287910,-3,-1,-1,2,3,2,-3,-4
1558441059296724,-1,0,1,-2,0,4,3,0
1558441059296724,-2,-2,-3,-4,-4,-1,-1,-4
1558441059311774,-5,-2,-2,1,-6,-6,-4,-4
1558441059311774,-1,-1,-2,-4,2,-1,2,1
1558441059317576,0,-3,0,0,-4,-7,-3,-1
1558441059317576,0,0,1,4,9,8,4,0
1558441059333518,-1,-2,0,-2,-1,1,1,0
1558441059333518,0,-1,-1,-1,-1,-4,-4,1
1558441059340485,-2,0,-5,-3,3,2,3,-1
1558441059340485,1,0,-4,-3,-8,-5,-2,-1
1558441059347465,-2,-3,-1,-3,0,3,0,-3
1558441059347465,-3,-1,2,-1,0,4,-2,-2
1558441059356442,2,-3,-1,4,-1,-3,2,1
1558441059356442,0,-3,-3,-6,-4,-9,-2,0
1558441059371614,-1,-1,-1,-1,-1,-6,-3,-2
1558441059371614,-1,0,0,2,1,2,2,0
1558441059378560,0,-1,0,-1,-2,-2,-3,1
1558441059378560,-2,-1,-1,0,4,2,-2,0
1558441059393343,-2,-3,-5,-4,-7,-5,-4,-2
1558441059393343,-1,0,-1,-1,-10,-8,-2,-2
1558441059400319,-1,2,0,-1,6,6,1,-3
1558441059400319,2,0,0,3,6,0,1,1
1558441059416276,-1,-2,-4,-2,2,4,-1,0
1558441059416276,-3,0,0,0,-1,-5,-5,-2
1558441059418272,-2,-1,0,-2,-5,-4,-3,-3
1558441059418272,-2,-3,-2,-2,-7,-1,-2,-1
1558441059439213,0,-1,2,-2,-1,-3,0,-1
1558441059439213,0,0,-2,-3,2,4,5,-1
1558441059440212,-4,-1,0,-1,-1,-1,-3,-2
1558441059440212,-1,1,1,1,0,-3,-2,-1
1558441059453175,-2,-2,-1,-4,-1,1,-1,-2
1558441059453175,-2,-1,-2,-1,-2,-11,-5,0
1558441059460159,-1,-1,0,1,6,7,2,1
1558441059460159,-1,0,0,-3,-3,2,0,0
1558441059477451,-2,-1,-1,0,1,-7,-4,0
1558441059477451,-1,-2,-2,0,-6,-2,-2,-1
1558441059478112,-3,-2,-1,1,9,3,0,-3
1558441059478112,1,-1,-3,-2,-1,2,3,-2
1558441059491425,0,-2,-2,-1,-8,-4,0,-2
1558441059491425,1,-3,-1,0,3,-5,-1,0
1558441059498055,-1,-1,-2,-2,-5,0,0,-1
1558441059498055,0,1,0,0,8,9,3,1
1558441059513017,0,0,-1,1,-1,-2,-1,0
1558441059513017,1,0,0,-3,-5,-5,-2,0
1558441059520034,1,1,-5,-5,-6,-6,-2,2
1558441059520034,-5,-3,-2,1,-1,0,-4,-6
1558441059536951,-1,2,-1,-2,-3,3,0,1
1558441059536951,0,-2,0,-1,0,-3,-1,-2
1558441059537949,0,1,0,1,0,-2,-1,-2
1558441059537949,-2,1,0,1,5,5,1,2
1558441059551421,-2,-1,0,-1,-1,-1,-2,-1
1558441059551421,-1,-2,-3,-3,-2,-1,-2,-1
1558441059558340,0,-2,0,1,-4,-2,0,0
1558441059558340,-2,-2,-2,-5,-6,-4,-3,-3
1558441059574305,1,-2,2,1,4,4,2,-2
1558441059574305,1,-1,0,-1,1,-3,2,1
1558441059581290,-1,-3,1,-5,-3,-3,1,0
1558441059581290,0,-2,0,1,5,0,0,0
1558441059597287,-2,-1,-1,-1,-4,3,1,0
1558441059597287,-1,0,1,0,0,4,-3,-2
1558441059597789,-1,0,-1,-1,0,-4,-4,-1
1558441059597789,-5,0,1,-2,-1,-2,3,0
1558441059611791,-1,-1,-2,1,0,-5,0,-2
1558441059611791,1,-2,0,-1,-3,2,2,-1
1558441059625713,0,-2,0,-1,-6,-7,-4,-2
1558441059625713,-2,0,0,2,-1,-1,0,-4
1558441059633693,-2,0,-2,-1,3,5,-3,1
1558441059633693,-3,-2,-2,-2,-1,2,-1,-3
1558441059640674,-1,-2,0,3,4,5,1,0
1558441059640674,0,-2,1,-3,-6,-5,-2,0
1558441059657152,2,0,3,2,9,5,2,-3
1558441059657152,-1,-1,-2,0,4,8,3,1
1558441059657636,-3,-2,-3,-1,-5,-12,-2,-2
1558441059657636,0,-3,-3,-5,-8,-11,-5,-1
1558441059671101,-1,-2,-4,-2,-4,2,0,-1
1558441059671101,-1,0,-1,1,-5,-8,-4,-2
1558441059678068,-2,-1,-1,-3,-3,6,-1,-1
1558441059678068,3,-1,1,-2,1,-5,-1,0
1558441059694007,1,1,3,3,5,1,3,4
1558441059694007,-3,1,-2,1,3,-4,-4,0
1558441059700801,1,0,-1,-1,-4,0,-1,-2
1558441059700801,-1,-1,3,3,-3,4,0,-3
1558441059717467,-2,-3,-5,-5,-5,-9,-4,-2
1558441059717467,-1,-2,-3,-3,4,7,2,-1
1558441059718484,-1,1,2,0,1,1,0,0
1558441059718484,-1,0,2,1,-3,-9,-6,-2
1558441059731508,0,0,1,0,5,5,4,0
1558441059731508,0,-1,-2,-2,-3,0,-1,1
1558441059737708,-3,-2,-2,-2,-2,-6,-7,-4
1558441059737708,-3,-3,-5,-4,-7,-8,-7,-2
1558441059753608,-2,-2,-2,-2,-7,-8,-1,-2
1558441059753608,2,1,0,0,4,5,-1,-2
1558441059760556,0,1,-2,3,0,-2,1,0
1558441059760556,-2,-2,-4,-9,-2,-2,-3,-1
1558441059777353,-2,-2,-1,-2,-5,-4,-4,0
1558441059777353,1,0,2,6,1,6,5,-1
1558441059778292,-1,-4,-5,-6,1,3,-1,-1
1558441059778292,-1,-1,1,-1,-2,-6,-4,-1
1558441059791443,-3,-2,-1,-2,-9,-2,-1,-2
1558441059791443,-1,1,1,0,0,-5,-2,-2
1558441059798240,1,3,4,3,11,5,5,4
1558441059798240,-2,-3,-6,-1,-3,-2,-3,-1
1558441059814228,-2,2,2,3,-2,5,-1,0
1558441059814228,2,-1,-3,-4,-1,3,2,1
1558441059821173,-2,-3,-3,-3,-4,-10,-7,-7
1558441059821173,0,1,4,4,3,-3,2,3
1558441059837341,0,-1,-1,-3,0,-1,1,-3
1558441059837341,-4,-4,-4,-7,-7,4,2,-1
1558441059838137,-3,-2,-1,0,-1,0,-5,-1
1558441059838137,2,-1,0,-1,-1,-3,0,0
1558441059851185,-2,0,2,1,7,7,1,-2
1558441059851185,-1,-3,-3,0,-2,0,-2,-2
1558441059859173,1,-2,0,0,-5,-1,3,-1
1558441059859173,-1,-1,1,2,2,5,3,-2
1558441059874252,-2,-1,-2,-8,-11,-12,-6,-1
1558441059874252,-2,-1,-2,0,-5,-5,-2,-1
1558441059881092,-2,0,0,-2,5,3,5,0
1558441059881092,2,-1,-1,-1,6,5,3,2
1558441059897219,1,1,1,4,5,6,1,2
1558441059897219,-6,-6,-6,-8,-13,-17,-11,-8
1558441059897968,-1,-1,0,-1,5,4,2,2
1558441059897968,-2,-1,-3,1,1,0,2,-1
1558441059911050,-1,-5,-1,-4,-8,1,0,-1
1558441059911050,-2,0,3,-1,3,-7,-6,0
1558441059919150,-2,-1,-3,-1,-1,4,-2,-3
1558441059919150,-5,-6,-6,-4,-9,-2,-2,-4
1558441059934118,5,1,-2,3,3,-17,-1,2
1558441059934118,-2,0,-1,-1,-2,-1,-1,-3
1558441059939854,-1,-2,-1,-1,-3,-1,-3,-2
1558441059939854,-2,0,-1,-2,-3,5,2,0
1558441059957278,-3,-3,-6,-4,-15,-14,-14,-7
1558441059957278,2,4,4,4,9,5,11,4
1558441059959119,2,2,2,2,10,7,4,5
1558441059959119,-4,-1,-5,-4,0,8,-2,-7
1558441059971270,-2,-3,-3,-5,-1,-1,2,-1
1558441059971270,1,-1,4,2,-3,-17,-6,2
1558441059979169,-3,-1,-3,-1,-2,5,-3,-5
1558441059979169,3,1,0,0,0,0,2,0
1558441059994025,0,0,0,1,-6,-12,-5,-3
1558441059994025,-2,-2,-2,0,5,15,1,-1
1558441060000970,1,-2,-2,-2,-5,-11,-4,-3
1558441060000970,-2,-5,-1,-1,-11,-6,-10,-4
1558441060016650,-4,0,-1,-2,5,6,0,-2
1558441060016650,0,-1,-1,-2,-2,-2,4,3
1558441060017652,-2,-1,1,2,5,5,1,-1
1558441060017652,-1,-1,-2,2,2,0,0,0
1558441060030873,2,-3,-2,-4,-2,0,-1,1
1558441060030873,-4,-4,-4,-6,-10,-7,-8,-5
1558441060039590,-1,-2,-7,-4,-7,-3,-2,-3
1558441060039590,-1,-1,-2,1,5,6,1,1
1558441060053581,0,0,2,0,3,1,0,-4
1558441060053581,1,0,-2,2,6,6,3,3
1558441060060795,0,-1,1,-3,-8,-7,-3,-1
1558441060060795,-2,-1,0,-3,-1,-5,-3,2
1558441060076519,0,2,0,2,8,8,6,2
1558441060076519,-4,0,-1,2,4,4,2,-6
1558441060078485,-1,-2,-1,-6,-9,-8,-3,-1
1558441060078485,-1,-1,3,0,1,-9,-1,0
1558441060090712,-1,-1,-2,-1,-2,0,-1,-4
1558441060090712,-1,1,2,-2,-1,-1,0,1
1558441060099429,-1,-1,-6,-4,-13,-5,-3,-4
1558441060099429,-2,1,4,6,16,16,7,0
1558441060113688,-1,-2,-2,-5,2,-5,-3,2
1558441060113688,1,-1,-3,-3,1,3,3,1
1558441060120664,-3,-1,1,-1,-2,0,-1,0
1558441060120664,1,-2,0,3,-4,-10,-4,0
1558441060136515,-2,0,-2,-4,-3,1,4,-1
1558441060136515,-2,-3,-1,-2,-3,-2,-4,-3
1558441060143543,0,-3,-2,2,5,2,1,1
1558441060143543,-2,-1,-3,-6,-13,-11,-10,-4
1558441060159551,-4,-2,-1,0,5,6,-2,-7
1558441060159551,-2,0,-2,3,-2,-3,2,1
1558441060160494,-2,-1,-2,1,2,6,2,0
1558441060160494,0,2,0,0,9,-2,1,1
1558441060174241,0,-1,2,3,1,-1,0,1
1558441060174241,1,-1,0,-2,-3,2,-3,-2
1558441060180502,-4,-3,-3,-4,-7,-7,-7,-4
1558441060180502,0,0,-1,0,-4,1,1,0
1558441060196453,-2,-3,0,2,-3,0,0,0
1558441060196453,0,0,-1,-1,1,-5,-3,-1
1558441060203450,2,0,1,-2,2,1,0,0
1558441060203450,-3,-2,-6,-3,-5,-2,1,-1
1558441060210418,0,2,2,3,3,6,4,2
1558441060210418,1,-2,-2,-4,3,7,5,1
1558441060219109,-1,0,0,0,-4,-11,-6,-2
1558441060219109,-3,-4,-1,1,-4,0,-4,-5
1558441060234299,-2,1,-3,-1,4,3,-2,-2
1558441060234299,-1,-2,-1,-3,-5,-3,-2,0
1558441060240341,-1,2,1,5,6,0,3,2
1558441060240341,2,0,0,-5,2,1,0,0
1558441060256009,0,-5,-2,-5,-9,-4,-5,-2
1558441060256009,1,0,0,4,3,4,0,0
1558441060263284,-2,0,-2,-2,0,-3,0,-1
1558441060263284,0,-1,-1,-3,-5,-3,-1,-1
1558441060269970,2,2,2,1,2,0,-2,0
1558441060269970,-3,-1,-1,-1,-2,-4,-4,1
1558441060278962,-1,-2,-2,-6,-8,-6,-3,-3
1558441060278962,-1,2,1,0,7,6,5,2
1558441060294359,-2,-2,-3,0,-2,1,-3,0
1558441060294359,-1,1,-1,0,3,-7,-3,-4
1558441060299892,1,-1,0,-1,3,1,1,-2
1558441060299892,-1,0,-1,1,-1,1,2,-1
1558441060315851,0,-3,-2,-4,-5,-4,-2,-3
1558441060315851,0,0,0,-2,-7,-10,-3,0
1558441060323279,0,-1,1,1,5,10,4,4
1558441060323279,-3,0,-2,-1,-1,0,-3,-6
1558441060340022,0,-1,-3,-3,-4,-13,-4,-2
1558441060340022,-2,-1,-2,-3,-4,0,-1,-2
1558441060340783,-2,-1,0,3,-4,1,1,-1
1558441060340783,-2,-2,1,1,2,0,0,2
1558441060354112,-2,-1,-5,-6,2,-3,1,0
1558441060354112,-1,0,-1,2,-1,-1,-3,-3
1558441060361057,-2,-1,0,-7,-4,-5,-5,-3
1558441060361057,1,0,1,-2,-5,-6,-4,1
1558441060376717,-1,1,1,3,1,0,-2,-1
1558441060376717,-2,-5,-6,-1,-3,1,-3,0
1558441060390971,-3,-3,-3,-2,7,11,3,-4
1558441060390971,0,0,-4,-3,0,-2,1,-1
1558441060406845,1,-1,-4,-1,-4,-6,1,-1
1558441060406845,-3,-1,1,-3,-2,0,-2,-4
1558441060408602,-1,0,-3,-2,-13,-5,-2,-1
1558441060408602,1,-2,-5,-1,4,-6,0,1
1558441060413834,0,-2,1,4,5,5,3,1
1558441060413834,-1,-2,-4,-7,-2,0,0,0
1558441060420568,-1,-2,-1,1,0,0,-1,-1
1558441060420568,-2,-3,1,-1,-9,1,-2,0
1558441060436770,0,1,1,-1,3,2,2,5
1558441060436770,-4,-2,-3,1,-1,-2,-2,-3
1558441060442509,-2,-2,-1,1,2,2,0,-1
1558441060442509,0,-1,-1,-3,-2,0,0,-1
1558441060459465,-3,-2,0,0,-8,-9,-6,-7
1558441060459465,2,0,1,2,3,2,2,0
1558441060460461,0,0,-4,-3,4,2,-3,-1
1558441060460461,0,2,-1,0,3,3,3,0
1558441060473426,-4,-1,-2,0,-8,-2,-3,-2
1558441060473426,0,0,-1,-2,-3,-3,-1,-1
1558441060480408,0,-3,-2,0,0,-1,3,1
1558441060480408,0,-2,1,-1,5,1,-1,-2
1558441060496365,-3,-2,3,4,0,-1,0,-1
1558441060496365,1,0,-6,-9,0,-2,1,2
1558441060502348,-2,-1,-1,-3,-8,-5,-7,-5
1558441060502348,-3,-4,-4,-1,-4,-5,-5,-2
1558441060519302,0,-1,1,-3,4,4,4,0
1558441060519302,-4,-1,2,3,2,1,0,-3
1558441060520300,1,-3,-3,-1,-5,-4,-5,-2
1558441060520300,-4,-2,-2,-3,-10,-2,-2,-4
1558441060533265,3,2,0,0,14,14,6,6
1558441060533265,1,2,1,-1,-1,-2,-5,-2
1558441060540247,-1,0,0,1,-1,-8,2,2
1558441060540247,-1,-3,3,1,5,3,0,-1
1558441060556204,-3,-2,-7,-10,-6,-9,-5,0
1558441060556204,0,-1,0,2,-5,-3,-5,-4
1558441060563186,-2,2,2,0,10,7,3,-2
1558441060563186,-3,-2,-1,-2,-4,-7,-5,-3
1558441060579143,1,-3,-2,1,-4,-1,3,-2
1558441060579143,-3,-1,-1,1,-2,-5,-5,-3
1558441060580140,1,0,-2,-5,-6,4,-3,-1
1558441060580140,1,2,1,2,2,5,2,2
1558441060593106,-2,1,-1,1,6,5,-1,-1
1558441060593106,-2,-2,-2,-1,-6,-6,2,-1
1558441060600089,-1,-2,0,-2,-4,-1,1,1
1558441060600089,-1,0,-2,3,3,5,2,-2
1558441060616045,0,1,0,0,4,1,3,1
1558441060616045,-1,-3,0,-1,1,-2,-2,-1
1558441060623025,0,-2,-2,-1,-3,-2,-3,-1
1558441060623025,-1,-2,-3,-4,-11,-13,-4,0
1558441060638982,0,0,1,1,-1,3,-6,-6
1558441060638982,1,0,0,1,5,2,4,2
1558441060640977,-2,-2,-2,1,0,-3,1,0
1558441060640977,-3,-2,-3,-4,-2,-5,-4,-5
1558441060652945,-1,-1,-2,-2,-6,0,-2,0
1558441060652945,0,2,-2,2,4,12,3,2
1558441060659927,0,1,0,0,6,-4,-1,-1
1558441060659927,-2,-4,-1,-4,-8,-6,-3,-1
1558441060675889,-2,-2,-2,-2,-4,-4,-5,-3
1558441060675889,2,0,4,3,5,5,7,4
1558441060682865,-3,-1,-3,-4,-10,-10,-5,-2
1558441060682865,1,1,1,2,9,10,6,5
1558441060698824,-3,-2,-1,-1,2,1,0,-6
1558441060698824,-3,-4,-2,-6,-9,-6,-9,-5
1558441060700818,0,-2,-2,2,-4,-3,1,-1
1558441060700818,2,0,1,3,10,6,4,1
1558441060713783,-1,0,-2,-6,-5,-5,-2,2
1558441060713783,-5,-1,-4,-2,-5,-4,-5,-5
1558441060719767,-2,-1,-3,-3,-1,-1,-5,-3
1558441060719767,0,-1,1,3,2,6,0,1
1558441060735724,-1,-2,-3,-1,-3,-6,-1,0
1558441060735724,-1,-3,-3,-2,-8,-8,-1,-1
1558441060742712,-1,-2,1,4,3,6,0,0
1558441060742712,0,-1,-2,-3,2,-2,-1,-2
1558441060759664,0,-1,0,-3,1,4,0,-1
1558441060759664,-2,-2,-2,-4,-8,-13,-2,0
1558441060760664,4,2,3,1,2,-1,4,7
1558441060760664,-1,0,0,2,5,7,-2,-4
1558441060774624,-4,-3,-5,-2,-7,-3,-4,-2
1558441060774624,-2,-1,-1,-2,-1,0,-3,1
1558441060781605,1,2,-6,-5,-1,0,1,3
1558441060781605,-8,-3,1,-1,-5,-3,-4,-10
1558441060796565,0,-1,-3,1,-1,-4,-2,-1
1558441060796565,-1,-1,1,-1,1,4,2,-2
1558441060802550,-1,0,-1,-2,-1,-8,0,1
1558441060802550,-1,-1,-3,-1,-9,-9,-6,0
1558441060819516,-3,-3,-4,-3,-4,2,-1,-3
1558441060819516,1,-1,-1,-1,3,-2,-1,0
1558441060826484,1,-1,3,4,9,14,5,0
1558441060826484,-1,0,-1,-2,-4,1,3,3
1558441060832480,-2,-2,1,-3,-3,-3,-2,-1
1558441060832480,-3,-2,-3,0,0,3,0,-1
1558441060841531,-4,-3,-1,-5,-10,-13,-9,-4
1558441060841531,0,-1,-3,-5,-6,-7,-2,2
1558441060856492,5,2,5,4,20,8,11,5
1558441060856492,0,1,-4,1,4,2,0,-3
1558441060863442,-3,-1,-1,-2,-5,-3,-4,-4
1558441060863442,0,0,-2,-6,-6,-1,1,1
1558441060879379,-5,-2,-1,3,-8,-7,-6,-7
1558441060879379,-4,-2,-2,-3,-1,-1,-4,-3
1558441060880341,-1,0,-2,-1,4,5,1,-3
1558441060880341,-2,-4,-4,-4,-8,-8,-5,-1
1558441060892307,2,2,3,4,6,5,6,6
1558441060892307,1,0,2,2,9,4,7,4
1558441060901282,0,0,-2,-3,-4,-4,-3,-1
1558441060901282,0,1,-1,3,-2,-4,-1,-2
1558441060916243,-4,-2,-4,-6,-11,-7,-7,-6
1558441060916243,-3,-1,-1,-4,-2,-1,-3,-2
1558441060922255,0,2,1,5,5,4,2,2
1558441060922255,-4,-2,-5,-5,-2,0,-6,-5
1558441060939541,0,-2,-2,-5,-14,-9,-1,-2
1558441060939541,4,0,1,6,12,2,7,5
1558441060940179,2,-2,-2,-2,7,9,1,0
1558441060940179,0,0,1,3,7,4,2,-2
1558441060953491,-5,-1,-2,-4,-8,-8,-7,-7
1558441060953491,-5,0,0,2,-9,-6,-8,-6
1558441060962119,0,-3,-1,-2,-1,-2,-2,-2
1558441060962119,-1,-1,0,-3,2,8,5,1
1558441060976419,1,0,0,2,9,4,4,4
1558441060976419,0,1,1,-3,-2,-2,-1,1
1558441060983065,-3,-5,-3,-4,-6,-4,-3,-3
1558441060983065,2,1,0,0,-1,-5,-2,0
1558441060999024,1,-2,0,-3,3,7,3,-2
1558441060999024,0,0,-3,-4,-6,0,-4,-2
1558441061001015,-1,-2,1,0,1,-4,-1,-3
1558441061001015,-3,-3,-3,-1,-6,-10,-5,-1
1558441061021209,0,2,1,-1,1,3,1,2
1558441061021209,0,-2,-2,-2,-5,-6,-5,-3
1558441061021963,-1,2,0,4,4,1,6,1
1558441061021963,0,1,-2,-5,1,5,4,4
1558441061036923,-3,-1,-3,-5,-3,-3,-2,-2
1558441061036923,-5,-3,-1,0,0,2,-5,-8
1558441061043119,-2,0,-1,0,-11,-11,-7,-4
1558441061043119,0,-2,1,0,6,2,1,1
1558441061058053,0,-2,-2,-3,-5,-3,-5,1
1558441061058053,0,-2,0,0,-3,-6,-2,2
1558441061064853,-3,-2,-1,-4,-1,-1,-1,-3
1558441061064853,-1,-1,-3,-2,-6,1,-3,-2
1558441061080840,2,2,3,6,11,8,6,5
1558441061080840,3,-1,0,-1,0,-1,-1,1
1558441061081801,-2,0,0,-2,-1,-2,-3,-3
1558441061081801,-2,-1,-3,-3,-5,-5,-3,-4
1558441061096776,-4,-4,-3,1,-7,-1,-1,-4
1558441061096776,-2,0,-1,-3,-3,-3,-1,-2
1558441061103005,1,0,-1,-2,0,2,0,0
1558441061103005,-1,2,2,4,0,-4,1,2
1558441061117707,1,-2,-2,-2,3,1,-4,-1
1558441061117707,0,-1,-4,-5,-2,0,-1,-1
1558441061125684,1,-1,2,3,3,-2,-1,3
1558441061125684,-6,-4,-4,-3,-6,-7,-8,-7
1558441061140931,-1,0,0,-3,-6,-8,-3,-1
1558441061140931,0,-3,0,2,-1,1,-2,0
1558441061141640,-1,-2,-1,0,2,1,-2,-3
1558441061141640,1,0,1,1,2,-2,3,0
1558441061156750,2,2,2,1,12,18,11,2
1558441061156750,-4,-4,-1,0,-5,-3,-4,-5
1558441061162585,-4,-3,-5,-6,-12,-6,-6,-3
1558441061162585,0,-1,-1,2,6,8,1,1
1558441061177583,-4,-2,-3,-1,-8,-9,-3,-1
1558441061177583,1,2,3,3,13,5,8,4
1558441061185559,-2,-3,-3,-5,-4,2,0,-2
1558441061185559,-3,-3,-3,-4,-9,-7,-4,-5
1558441061208461,-3,-2,-2,-3,-7,-7,-8,-3
1558441061208461,2,3,3,0,5,9,7,3
1558441061209460,-1,0,2,1,4,2,0,0
1558441061209460,0,0,0,0,-2,0,-1,0
1558441061216439,-2,-1,0,-3,-2,-5,-6,-3
1558441061216439,-2,-3,-1,-2,-3,-1,0,-2
1558441061222851,-1,0,-1,4,0,3,2,2
1558441061222851,-1,-1,-1,-1,1,2,0,0
1558441061238730,0,0,-1,-2,-1,-4,-1,0
1558441061238730,-1,-2,-1,-1,-6,-6,-4,-2
1558441061245877,0,-1,-1,0,-3,-1,-1,-1
1558441061245877,-2,0,-1,-1,3,4,-1,-2
1558441061261765,0,-1,2,2,9,5,2,2
1558441061261765,-1,0,-2,-3,-4,-1,-2,0
1558441061261765,-3,-3,-3,-5,-5,-5,-2,-1
1558441061261765,-3,-2,-3,-3,-4,-6,-3,-2
1558441061276280,-5,-4,-6,-2,-18,-18,-7,-5
1558441061276280,2,3,6,5,18,20,15,7
1558441061282270,1,-1,-3,-5,-2,-1,-1,1
1558441061282270,0,-1,2,5,4,3,-1,-2
1558441061298221,-1,-1,-1,-4,0,1,-1,-2
1558441061298221,-5,-3,-5,-6,-16,-17,-11,-3
1558441061305203,0,-2,0,0,3,1,5,-2
1558441061305203,0,-1,-1,-1,-1,-5,-3,1
1558441061321198,2,0,3,1,6,3,4,2
1558441061321198,-3,-4,-7,-7,-5,0,-5,-5
1558441061321198,-1,0,0,0,-1,0,-4,-3
1558441061321198,-4,-2,0,-2,0,-3,0,-3
1558441061337116,2,-1,0,3,7,2,-1,1
1558441061337116,0,1,0,1,3,2,0,1
1558441061343328,0,-2,-3,-2,-5,-4,-1,0
1558441061343328,0,2,-1,1,8,7,2,1
1558441061358061,-3,-2,-2,0,-7,-5,-6,-4
1558441061358061,-2,-2,-3,-2,-2,-1,-2,-2
1558441061365042,-1,-1,0,-4,-3,0,-2,-2
1558441061365042,-1,-2,-4,-4,-8,1,-1,-1
1558441061381045,-2,0,0,1,-2,-4,-2,1
1558441061381045,4,1,2,0,4,4,2,-2
1558441061381998,-1,-1,2,1,2,-2,-1,-1
1558441061381998,0,-3,1,2,1,-1,-2,1
1558441061397052,2,-4,0,-2,3,7,0,0
1558441061397052,-2,-2,-5,-4,-3,-11,-3,-4
1558441061403187,0,1,-1,3,4,3,2,1
1558441061403187,-1,-2,-2,-1,-5,-1,-2,-1
1558441061417900,-2,-2,-2,0,2,8,2,1
1558441061417900,1,-1,2,0,-1,1,2,0
1558441061424883,-2,1,2,1,2,-5,-1,-1
1558441061424883,-1,1,-3,-2,-4,-7,-3,-4
1558441061440840,-1,-1,-2,-2,-2,0,2,-2
1558441061440840,0,0,-1,3,2,1,2,-1
1558441061441839,-2,0,-1,-2,0,-3,-3,-3
1558441061441839,-1,-1,1,0,2,2,1,-1
1558441061456797,-1,0,-3,-6,-8,-9,-7,-3
1558441061456797,-2,-2,-3,-1,-1,2,0,2
1558441061462781,0,0,0,-3,1,1,1,0
1558441061462781,-1,-2,2,0,0,3,1,2
1558441061477741,-1,-2,-2,-1,0,-4,-4,-4
1558441061477741,-2,-1,-1,-2,-7,-6,-6,-2
1558441061484721,-1,-3,0,-2,-3,-2,-1,0
1558441061484721,0,-1,-4,-1,2,-2,-2,-2
1558441061500678,-4,0,-4,-2,-8,-4,1,2
1558441061500678,0,0,0,-2,0,0,-4,-2
1558441061501676,-2,-1,2,4,2,5,4,0
1558441061501676,-1,-1,-2,-6,1,1,2,2
1558441061516638,2,0,1,0,-1,-6,1,1
1558441061516638,-4,-2,-4,-3,-8,-4,-3,-2
1558441061522825,-2,-5,-3,0,-9,-4,-7,-3
1558441061522825,0,0,1,-1,2,1,0,1
1558441061537715,0,1,1,1,7,2,2,-4
1558441061537715,-3,-3,-2,-1,-5,-2,-4,-2
1558441061545559,0,0,-5,-3,-1,2,0,-2
1558441061545559,-2,-3,-5,-5,-5,-4,-1,-1
1558441061560517,-1,0,0,-1,-4,-2,-3,-1
1558441061560517,-1,0,-1,1,-1,-7,0,0
1558441061561516,-1,0,-3,-3,4,4,0,-3
1558441061561516,0,-1,-2,-4,-6,-5,0,-3
1558441061576487,0,1,0,4,7,6,5,1
1558441061576487,-2,-3,0,-4,-4,-4,-5,-4
1558441061582466,-1,-3,-1,-2,-6,-5,-2,0
1558441061582466,0,-2,2,2,3,-10,-6,0
1558441061597524,-2,-2,-2,-2,-5,0,1,0
1558441061597524,-2,0,0,4,7,7,2,2
1558441061605399,0,1,-1,-6,-4,-2,-2,-2
1558441061605399,0,-2,-1,-4,-7,0,-2,-2
1558441061621355,-1,-1,-2,-1,4,-7,-4,-2
1558441061621355,0,0,2,-3,-1,5,4,2
1558441061621355,0,-1,-1,3,3,-1,0,0
1558441061621355,0,-1,3,4,-4,-1,-1,-2
1558441061636317,1,-3,-1,-4,5,8,2,0
1558441061636317,0,-1,-3,1,-1,-1,-2,-1
1558441061642299,0,-1,2,2,3,2,0,0
1558441061642299,-1,1,-1,-1,0,-6,-1,-1
1558441061659256,-5,-4,-4,-2,-10,-8,-5,-6
1558441061659256,-1,1,-1,2,6,1,4,-1
1558441061665240,2,0,0,-1,-1,-2,-2,0
1558441061665240,1,-1,0,-2,0,5,4,4
1558441061681207,0,-2,-1,3,2,1,0,0
1558441061681207,-2,-4,0,-3,-4,-1,-2,-2
1558441061681207,-4,1,0,-4,-2,-5,-3,-3
1558441061681207,-1,2,-1,2,-3,-1,-3,-2
1558441061697152,0,-1,-1,-3,-4,-2,-1,-1
1558441061697152,1,1,-2,-4,-5,-5,-3,-2
1558441061703138,0,-1,3,8,1,-3,1,0
1558441061703138,-1,-2,-2,-7,-2,5,-1,-4
1558441061719094,-1,-1,1,-1,12,10,4,1
1558441061719094,-2,-4,-4,0,-1,-4,-2,-1
1558441061725079,-2,-1,-2,-1,-3,-5,1,-1
1558441061725079,1,-1,-1,-1,0,-2,0,1
1558441061741035,0,0,0,-2,-10,-5,-2,-2
1558441061741035,-2,-2,-2,-1,-2,0,1,-3
1558441061741035,0,-3,0,-4,-3,-6,-6,0
1558441061741035,0,-3,0,0,0,3,-1,1
1558441061757014,-2,0,0,2,6,8,0,-2
1558441061757014,-2,1,3,0,0,3,-3,0
1558441061762985,-1,-1,-3,-4,-6,-6,-4,-4
1558441061762985,0,1,0,0,-1,-1,1,1
1558441061777946,-1,0,-3,1,-2,-2,-1,1
1558441061777946,0,-1,-2,-5,-5,-3,-3,-3
1558441061784919,0,-1,-3,-1,3,-1,0,3
1558441061784919,-4,-2,0,2,3,2,-2,-5
1558441061800875,-1,0,1,2,-3,0,0,1
1558441061800875,1,-1,-1,-2,1,2,0,-1
1558441061801875,-1,-2,-3,-2,1,2,-5,-2
1558441061801875,-3,-2,0,-1,-6,-11,-6,-1
1558441061824815,0,2,3,-1,2,-6,0,0
1558441061824815,-3,0,-1,-3,-6,-7,-1,1
1558441061825811,-3,-1,-4,-1,-3,4,1,-1
1558441061825811,-1,-1,-2,-1,1,5,3,0
1558441061837837,-1,-3,-2,-6,-3,-2,-4,-4
1558441061837837,0,-1,-1,0,-1,-4,1,-2
1558441061844761,-1,1,1,1,-1,1,-1,-2
1558441061844761,-4,0,-5,-3,4,-1,0,-1
1558441061860716,1,-1,-1,0,-7,-7,-1,1
1558441061860716,1,-2,4,6,4,3,-2,-1
1558441061861722,-3,-3,-5,-12,-5,-6,-4,-1
1558441061861722,-3,-2,-2,1,-7,-2,-4,-4
1558441061876678,-1,1,-3,-3,4,8,2,2
1558441061876678,1,2,-2,0,5,-4,-3,-1
1558441061882660,-3,1,1,1,-2,3,4,1
1558441061882660,0,-1,-1,3,3,2,2,0
1558441061897620,0,-1,-1,-3,-4,-2,0,-4
1558441061897620,-1,-3,-4,-4,-4,-5,-4,-3
1558441061905596,-1,0,-2,3,0,-2,1,-2
1558441061905596,1,-1,3,-3,1,-4,1,2
1558441061920556,-4,-2,-3,1,1,4,-1,-3
1558441061920556,-3,-3,-2,-5,-7,-5,-4,-3
1558441061921556,-1,-2,-1,1,-1,0,-4,-2
1558441061921556,-3,-3,-5,-5,-7,-1,0,-3
1558441061943495,1,1,-1,0,1,7,4,2
1558441061943495,-1,-1,-1,2,-1,-6,0,2
1558441061944491,-1,0,0,4,4,3,1,-1
1558441061944491,0,0,-3,-10,-3,-3,-2,-1
1558441061959452,0,-4,-1,3,-2,-5,-5,-2
1558441061959452,-1,1,0,-2,2,2,1,1
1558441061965439,-1,2,-1,-1,-3,1,-1,-1
1558441061965439,-1,-2,0,2,0,0,-5,-2
1558441061981396,-4,-4,-3,-4,-9,-5,-2,-4
1558441061981396,-1,0,-2,0,5,-2,2,-1
1558441061981396,1,-1,1,-1,4,1,2,1
1558441061981396,1,1,4,6,8,6,2,1
1558441061996352,-2,0,-3,-8,-6,-9,-8,-1
1558441061996352,-2,-3,-4,-4,-10,-5,-7,-5
1558441062003334,-2,-1,-3,0,-7,-1,1,0
1558441062003334,2,1,0,2,13,3,2,2
1558441062017296,0,-1,1,-2,-3,-1,1,0
1558441062017296,1,-1,-1,4,3,3,2,-2
1558441062025279,-1,-1,0,0,4,10,5,0
1558441062025279,-5,-3,-3,-5,-14,-11,-8,-3
1558441062040246,1,0,1,1,3,0,3,1
1558441062040246,-1,0,3,2,-1,3,-1,0
1558441062048218,2,0,3,5,9,0,-2,0
1558441062048218,-3,-2,-8,-8,-9,-4,-1,-6
1558441062056198,1,0,-1,1,-2,-7,-4,0
1558441062056198,1,1,0,-2,2,2,0,0
1558441062063178,1,0,0,-2,-1,-4,-1,-1
1558441062063178,0,-1,1,2,-4,1,-2,-1
1558441062078143,-5,-3,-3,0,-4,2,-5,-5
1558441062078143,-1,-1,-2,-7,-4,-2,1,-1
1558441062085116,2,0,-1,3,8,7,3,2
1558441062085116,0,-1,1,3,1,-11,-5,1
1558441062100080,0,-3,-2,-3,-2,-4,-3,-2
1558441062100080,-3,-1,-1,-1,-4,-2,-2,-1
1558441062108062,-4,-1,-1,-4,-8,-3,-3,-4
1558441062108062,-1,-2,-3,-4,-4,-3,-3,-3
1558441062117030,-1,0,2,1,3,6,7,2
1558441062117030,1,-2,2,5,12,11,7,4
1558441062123015,-1,-2,-1,0,0,-5,-2,-3
1558441062123015,1,0,-1,-1,4,4,0,-1
1558441062137974,-1,1,-3,-3,-1,-6,-4,0
1558441062137974,-2,0,-2,-1,-13,-10,-6,-4
1558441062144961,0,-3,-2,-5,-4,-5,-4,-1
1558441062144961,0,0,2,3,-1,0,1,1
1558441062159920,3,2,3,5,7,5,-1,-2
1558441062159920,0,-1,-3,-8,2,2,2,2
1558441062167894,-3,-2,-1,-4,-3,-9,-3,-2
1558441062167894,-1,-1,0,0,-4,-4,2,-2
1558441062184850,-2,-4,-5,-7,-14,-4,-2,-2
1558441062184850,-2,1,1,3,3,5,-3,1
1558441062185849,-1,1,-1,0,4,-2,3,1
1558441062185849,-1,0,1,-1,2,1,2,4
1558441062198812,-4,-2,-2,-1,0,-4,-2,-6
1558441062198812,1,-1,-3,-1,1,-4,-3,-3
1558441062205801,-1,-2,0,-1,-6,-1,-3,0
1558441062205801,-2,-1,-1,-2,-4,-3,-6,-2
1558441062220755,-3,-2,-2,-3,-5,-9,-6,0
1558441062220755,-1,0,-2,1,-1,2,3,-2
1558441062227739,0,1,-1,0,-1,5,5,2
1558441062227739,1,-1,1,0,5,5,2,-1
1558441062243693,0,-1,-2,-2,0,-1,-3,-1
1558441062243693,-2,-1,-2,1,-5,-5,-4,-1
1558441062243693,0,-2,-1,-4,-4,-5,-3,-2
1558441062243693,-2,-2,-2,-3,-8,-3,-1,-3
1558441062259653,0,-1,2,1,-3,-6,-5,-2
1558441062259653,2,2,-2,-1,9,17,9,2
1558441062265638,0,-1,-3,-1,3,2,0,0
1558441062265638,1,-1,-2,1,3,6,3,0
1558441062280599,0,0,4,1,4,-3,-2,1
1558441062280599,-2,-2,1,-7,-13,-10,-3,-3
1558441062287574,-2,-3,-5,-2,-2,1,-2,-3
1558441062287574,-1,1,0,2,2,-6,-6,-1
1558441062303532,0,0,0,-3,0,3,5,3
1558441062303532,-3,-1,1,-1,-2,-4,2,1
1558441062304529,-1,0,-3,0,2,2,-3,-1
1558441062304529,-6,-5,-4,-1,-6,0,-3,-4
1558441062319488,0,-3,-2,-3,0,-1,2,-1
1558441062319488,-2,-1,-3,-1,-5,-5,-3,-5
1558441062325473,-2,-3,-2,-1,-4,-3,0,-1
1558441062325473,1,1,1,1,8,7,2,2
1558441062340438,0,0,2,-1,3,7,2,2
1558441062340438,-2,-1,-2,5,3,3,-2,-2
1558441062347419,1,0,-1,-5,-10,-7,-5,-2
1558441062347419,0,-2,-1,-2,0,0,-2,-4
1558441062363370,-2,-3,-2,1,-2,0,2,-2
1558441062363370,0,-2,1,-1,-2,-5,-5,-2
1558441062364370,0,0,2,0,2,0,0,2
1558441062364370,1,0,0,4,-3,-9,1,4
1558441062379329,0,-1,-2,-6,0,-2,1,2
1558441062379329,-1,-4,-1,-4,-4,0,-5,-4
1558441062385325,-4,-1,-4,-1,-5,-2,-4,-5
1558441062385325,0,-1,0,-3,-2,0,2,-1
1558441062400273,-2,1,0,1,3,0,-1,-1
1558441062400273,-1,0,-2,-2,1,1,2,0
1558441062407254,0,-1,0,0,-2,-3,-1,-1
1558441062407254,-3,0,-2,0,-2,-2,-2,1
1558441062423215,-2,1,-4,-2,1,4,0,-5
1558441062423215,-2,0,-2,1,-2,-2,1,1
1558441062424209,0,0,0,-1,3,2,1,0
1558441062424209,1,2,1,0,6,8,3,-1
1558441062439171,-2,-4,-2,-3,-10,-7,-8,-5
1558441062439171,0,-1,-1,3,0,1,-3,0
1558441062453142,0,-1,1,-5,-1,-4,4,0
1558441062453142,-1,-3,-2,-1,0,-4,-2,-3
1558441062460119,0,0,0,3,1,4,0,0
1558441062460119,0,-1,1,-1,-1,-3,-4,-1
1558441062468092,-4,-1,1,4,-4,2,0,-2
1558441062468092,-3,-2,-6,-6,-8,-8,-4,-2
1558441062483052,-3,-1,-2,-3,-3,-6,-1,0
1558441062483052,1,-3,0,-2,1,1,-2,-1
1558441062484048,2,0,4,4,12,9,3,-1
1558441062484048,0,-1,-1,1,-3,-2,0,0
1558441062499010,-2,0,1,3,0,1,1,1
1558441062499010,-2,1,-1,-4,-1,-5,-1,-1
1558441062504993,0,-2,-4,-3,-7,-5,-6,0
1558441062504993,-2,0,-1,-1,-2,4,-1,-4
1558441062519958,-2,-1,0,1,3,3,-2,-1
1558441062519958,-1,2,3,3,2,0,4,3
1558441062527931,-1,1,-1,1,-1,-4,-2,-2
1558441062527931,-2,0,-2,-5,0,2,1,1
1558441062542890,0,-2,-6,-1,-5,-3,-1,-3
1558441062542890,-2,-3,-1,-2,-7,-4,-5,-3
1558441062543888,1,0,2,1,-4,-6,2,2
1558441062543888,-3,-1,-5,-5,10,4,1,-2
1558441062558847,-2,1,3,-1,-4,-2,-2,1
1558441062558847,0,-1,-1,0,7,11,6,0
1558441062564831,-3,-1,0,-3,-3,-2,-2,-4
1558441062564831,0,-2,0,1,-7,-9,-3,-1
1558441062579793,-1,0,-2,-2,0,0,-2,-2
1558441062579793,-2,-3,-3,-1,-1,-8,-5,-1
1558441062587770,1,-2,-1,-3,-2,7,1,1
1558441062587770,1,1,3,4,6,7,3,1
1558441062603728,0,-1,0,-3,-3,-6,-4,0
1558441062603728,-2,0,-2,-4,-9,-6,-2,1
1558441062603728,-3,-2,-4,0,-3,0,-1,-3
1558441062603728,-2,0,0,-2,-6,-2,-3,-3
1558441062627664,2,-1,0,0,5,3,3,0
1558441062627664,1,0,1,0,-3,-3,-1,0
1558441062627664,-2,-1,-4,-4,0,2,-2,-1
1558441062627664,-1,-2,-1,-6,-9,-4,-6,-3
1558441062639637,-1,-1,-3,0,-8,-8,-5,-3
1558441062639637,1,0,2,3,7,-1,3,1
1558441062647610,0,-2,1,2,7,5,5,2
1558441062647610,-2,0,-1,-2,-5,-8,-3,-3
