timestamp,emg1,emg2,emg3,emg4,emg5,emg6,emg7,emg8
1558441038612971,-3,0,3,18,1,-1,-2,-1
1558441038612971,-2,-1,-3,-10,-8,-8,-7,-2
1558441038613969,-1,-1,-3,-15,-5,-1,-4,-4
1558441038613969,1,1,2,17,2,0,2,2
1558441038614965,0,-1,-2,-5,-4,-4,-2,0
1558441038614965,2,-3,-2,-9,3,1,3,3
1558441038614965,-3,-2,1,10,-5,-3,-4,-4
1558441038614965,-3,-4,0,0,-7,0,-4,-1
1558441038619954,-1,-1,-5,-11,5,4,3,0
1558441038619954,-2,1,0,4,1,2,-3,-5
1558441038634912,1,0,-3,3,-5,-7,-3,0
1558441038634912,-2,-1,-1,-9,0,-5,-2,-1
1558441038641894,-1,1,0,-5,-2,0,2,-2
1558441038641894,0,0,-2,9,-2,-3,-1,1
1558441038649872,0,-3,1,2,8,9,0,-1
1558441038649872,0,-2,-2,-9,-2,-1,-5,-3
1558441038665829,0,-1,0,4,-1,0,-1,-1
1558441038665829,-1,-1,2,3,5,5,2,0
1558441038679796,0,-1,1,-5,-1,-2,0,2
1558441038679796,-1,-1,-4,-1,-5,-4,-2,-6
1558441038682785,-5,-3,-3,-1,-4,-3,-5,-2
1558441038682785,-4,-3,2,-3,-2,0,0,-1
1558441038694753,0,-2,-2,-4,1,-1,1,3
1558441038694753,0,-3,0,5,5,7,2,1
1558441038732652,-1,-1,1,-5,6,4,0,1
1558441038732652,2,-2,-4,-19,-4,-3,-2,-2
1558441038733649,-4,-2,-2,14,-6,-4,-3,-5
1558441038733649,-1,0,0,-1,-2,-6,1,-1
1558441038734646,1,0,1,-9,1,4,1,-1
1558441038734646,-1,-1,-2,8,-4,-6,-2,-2
1558441038734646,-1,-1,-1,1,0,-1,-2,-1
1558441038734646,2,0,1,-8,-1,-2,-3,2
1558441038747611,0,-1,-5,-4,-3,-4,2,-2
1558441038747611,-1,-1,-1,8,3,7,1,1
1558441038753595,0,-1,-2,-8,2,1,-1,-1
1558441038753595,-1,-3,-3,-7,-3,-2,0,-1
1558441038762572,-3,-1,-2,9,-9,-11,-5,-5
1558441038762572,-2,0,2,0,-5,1,-3,0
1558441038792492,-1,-2,1,-7,11,7,1,3
1558441038792492,-2,-2,-1,3,-4,3,1,0
1558441038794486,1,0,-1,2,3,2,6,2
1558441038794486,-2,-1,-1,-6,-6,-5,-2,-2
1558441038795484,-2,-1,-1,-2,-6,-8,-4,-3
1558441038795484,0,0,1,6,3,-3,1,2
1558441038807451,-1,-1,0,-5,0,-5,-5,-2
1558441038807451,-1,0,1,-2,-1,-3,1,-2
1558441038813436,-1,0,1,3,-1,2,0,-1
1558441038813436,-3,-1,-1,-2,-5,1,-5,-6
1558441038822411,-3,-2,-2,-4,-6,-2,-6,-4
1558441038822411,1,-1,0,3,3,1,3,2
1558441038836373,0,-1,1,-1,2,-4,1,-1
1558441038836373,1,0,-3,-3,0,-3,-1,1
1558441038845350,1,0,2,3,5,9,3,1
1558441038845350,0,-2,-1,1,6,2,-2,1
1558441038851333,-2,-4,-4,-4,-6,0,1,-2
1558441038851333,-1,-1,-1,-4,-8,-10,-8,-6
1558441038867291,0,1,1,4,1,5,2,2
1558441038867291,0,-1,-2,-4,2,0,0,1
1558441038873276,-1,-2,-5,-8,-11,-3,-2,-4
1558441038873276,0,1,0,5,6,1,6,0
1558441038882252,1,-1,-1,2,1,-2,-4,-1
1558441038882252,-2,-1,0,-4,-6,-3,-1,-2
1558441038896214,0,1,-2,1,1,0,0,-2
1558441038896214,-2,-3,-2,-2,-6,-2,-4,-2
1558441038905188,0,-2,-1,-3,-1,0,1,-1
1558441038905188,-1,-1,-2,0,-2,2,-1,-2
1558441038911174,-2,2,3,1,-1,-11,-5,-2
1558441038911174,-3,-1,-5,-4,-5,2,-4,-2
1558441038927144,-1,-1,-1,0,-4,-1,-2,-2
1558441038927144,0,1,0,2,16,7,2,0
1558441038933128,1,-1,1,1,1,3,3,1
1558441038933128,-1,1,1,1,4,4,-1,-2
1558441038942105,-2,-2,-3,-4,-9,-8,-10,-5
1558441038942105,2,-2,0,-1,-1,2,2,2
1558441038965040,0,-2,0,-1,7,0,4,0
1558441038965040,-2,-3,-3,-4,-2,-1,1,-4
1558441038966029,-1,-3,-1,-2,-4,-1,-3,0
1558441038966029,-4,-3,-2,-3,-10,-6,-6,-5
1558441038971018,0,1,2,0,2,1,-2,-1
1558441038971018,-2,-1,-2,2,3,1,2,1
1558441038987971,-5,-2,-4,-7,-5,-2,-1,-2
1558441038987971,-2,-2,-1,0,1,-3,-2,-2
1558441038993960,-2,-1,-2,-2,-5,-3,-2,0
1558441038993960,1,1,1,2,7,3,-1,2
1558441039002929,-1,-1,1,1,1,1,-1,-4
1558441039002929,-3,0,-3,-6,-11,-11,-4,-3
1558441039015895,-1,-2,-1,-4,-10,-5,-1,0
1558441039015895,-1,-2,3,4,12,8,4,2
1558441039024869,2,1,0,2,7,-3,4,1
1558441039024869,0,0,-2,-3,-3,-2,-2,0
1558441039030853,-2,-1,-3,-5,-3,-4,-9,-5
1558441039030853,3,-1,-2,-3,-6,-2,-1,-1
1558441039047808,-1,-1,-2,0,-3,3,1,0
1558441039047808,-1,0,3,0,-3,3,3,0
1558441039053794,0,2,2,4,5,0,3,3
1558441039053794,-4,-1,1,-1,-1,0,1,-3
1558441039062768,-1,-1,-4,-4,-1,-5,-5,-1
1558441039062768,1,0,-1,-3,-6,-2,-1,-2
1558441039075733,0,0,0,0,0,5,1,-2
1558441039075733,2,-2,-2,1,0,-7,-3,0
1558441039084709,-3,-3,-1,-4,-8,-7,-6,-2
1558441039084709,0,-2,0,-1,5,4,5,3
1558441039090696,-2,-1,-1,-1,1,3,-3,-5
1558441039090696,1,-1,-1,-1,1,8,-1,-2
1558441039107649,2,1,0,2,-1,-5,-1,1
1558441039107649,-2,0,-2,3,2,-7,-2,-2
1558441039113632,-1,-1,-3,-4,-3,3,1,0
1558441039113632,-3,0,1,-3,-2,-6,-5,-5
1558441039122608,2,0,1,2,3,9,3,0
1558441039122608,0,0,-1,-3,1,0,-2,0
1558441039135574,-1,-2,-4,-5,-4,-1,-4,1
1558441039135574,0,-1,-2,-2,-2,-3,0,3
1558441039144557,-1,1,3,3,7,8,4,-2
1558441039144557,-3,-1,-1,-3,-2,-3,-2,-3
1558441039151531,-2,-4,-3,-3,-4,-5,-1,-3
1558441039151531,-2,-3,1,-1,-6,-4,-4,-3
1558441039167488,-1,0,-3,-3,-3,-2,0,0
1558441039167488,-1,-2,-1,-1,-5,-3,-4,-1
1558441039173472,-1,1,1,2,2,0,0,-1
1558441039173472,0,2,1,7,7,1,0,2
1558441039182448,-2,-2,-2,-3,-2,-1,-2,-3
1558441039182448,-2,-1,1,-2,-4,-2,-4,-3
1558441039196412,-2,-2,-1,2,-3,3,0,3
1558441039196412,1,1,-1,-5,-4,-7,-1,-1
1558441039205388,0,0,-2,-2,-1,-4,0,0
1558441039205388,0,2,0,3,7,-1,-1,-1
1558441039218359,-2,-2,-2,-3,-2,1,1,1
1558441039218359,-3,-2,-4,-4,-5,-2,-3,-4
1558441039227328,-1,-3,-4,-2,-11,-3,-2,-1
1558441039227328,-2,-2,-1,1,-4,0,-1,-2
1558441039233312,1,2,3,3,17,7,5,2
1558441039233312,-2,-2,-2,-3,-4,2,-1,0
1558441039242289,1,0,0,0,3,-8,-2,4
1558441039242289,-3,-2,-3,-2,-4,-5,-2,-2
1558441039256251,-1,2,-1,-1,-5,2,-1,-6
1558441039256251,-1,1,0,2,3,6,0,2
1558441039265228,-4,0,1,-3,-2,-6,-5,-5
1558441039265228,0,0,-3,-2,-2,-1,-1,1
1558441039278192,0,-1,-5,-4,-6,-2,0,-1
1558441039278192,0,-1,-2,-2,1,0,0,-2
1558441039287167,-1,0,2,1,2,4,1,0
1558441039287167,2,0,-1,1,6,3,1,0
1558441039293151,-2,-3,-1,-3,-9,-12,-7,-3
1558441039293151,0,-1,-2,-4,-13,-8,-3,-2
1558441039302127,1,1,2,1,6,4,1,2
1558441039302127,0,1,-1,2,6,4,0,-1
1558441039316091,-1,0,0,0,0,-4,-4,-1
1558441039316091,-1,0,-1,-4,2,3,2,-1
1558441039325066,-1,-2,-5,-2,-6,-5,-2,-3
1558441039325066,-1,-1,2,0,-3,1,-1,0
1558441039338034,-3,-2,0,-2,5,7,1,0
1558441039338034,-2,-2,-2,-3,-5,-3,1,-1
1558441039347009,1,0,-2,3,4,3,0,-1
1558441039347009,-3,-2,-2,-1,-4,-1,-5,-5
1558441039352992,1,-3,-3,-3,-4,-2,0,1
1558441039352992,-1,1,1,3,-2,-2,-2,-1
1558441039368949,-6,-3,-4,-2,2,3,0,-4
1558441039368949,-2,1,1,1,3,-3,-2,-1
1558441039375931,-2,-2,0,0,-2,-3,-2,-1
1558441039375931,-1,-1,-3,-2,1,0,1,-1
1558441039384907,2,0,1,-1,1,-1,0,1
1558441039384907,0,-1,-1,0,-5,-6,-3,0
1558441039398869,-3,-2,-4,-7,-10,-11,-9,-7
1558441039398869,-4,-3,-4,-2,-6,1,-1,-2
1558441039406848,0,3,3,4,19,21,9,2
1558441039406848,0,-1,3,6,10,5,5,0
1558441039413831,1,-1,0,0,1,0,1,1
1558441039413831,0,-3,-3,-5,-5,-12,-4,0
1558441039422807,-3,-1,-2,-2,-6,-2,-1,-2
1558441039422807,0,-2,-5,-3,-8,1,-3,-3
1558441039435770,-2,-1,-2,-3,-4,-5,-5,-2
1558441039435770,-1,2,1,-1,0,-4,1,-1
1558441039444746,0,-1,0,1,-4,-2,-2,-1
1558441039444746,-1,-1,0,-6,0,3,-3,0
1558441039467685,-2,0,-1,0,2,1,-2,0
1558441039467685,-2,-3,0,1,-2,-1,-2,-1
1558441039468682,0,0,1,-3,-6,-5,-3,0
1558441039468682,-2,0,0,-2,2,-3,-2,-1
1558441039473670,-1,-2,-3,0,-6,-2,0,0
1558441039473670,2,1,2,4,18,17,9,4
1558441039482646,1,-3,-2,-2,-2,-8,-3,-1
1558441039482646,-1,-2,0,-4,-8,-2,-3,-2
1558441039495610,0,2,1,2,-1,-7,0,-3
1558441039495610,-2,-3,-2,-2,-2,-2,-5,-5
1558441039504586,-2,0,-2,-4,-2,3,2,0
1558441039504586,0,0,0,2,1,-1,-1,-1
1558441039518557,0,0,0,0,0,2,0,0
1558441039518557,-1,-1,-2,-2,-3,-7,-3,-2
1558441039527525,0,0,1,-2,-4,-6,-2,0
1558441039527525,-1,-2,0,1,0,0,1,-3
1558441039533512,0,0,0,0,3,9,3,1
1558441039533512,0,0,0,-3,1,-2,-1,-3
1558441039548469,-1,-2,-4,-1,-2,-5,-1,-1
1558441039548469,-1,-1,0,-4,-2,0,2,-1
1558441039555451,-1,-1,0,2,-5,0,-1,-1
1558441039555451,-1,1,2,2,9,2,-2,0
1558441039565433,-2,-3,-4,-6,-2,-3,-4,-1
1558441039565433,-2,0,-3,-1,-7,-4,-4,-4
1558441039578394,0,-1,-1,-1,1,-4,0,1
1558441039578394,-2,-2,-2,-2,-8,1,0,-1
1558441039587364,-2,-3,-1,0,2,5,1,-1
1558441039587364,0,-2,0,1,0,-4,-4,0
1558441039593355,-1,1,2,-1,0,-3,-2,2
1558441039593355,0,-1,0,-2,-5,-3,-3,-4
1558441039608309,-2,-2,-4,-5,-7,-3,-3,-5
1558441039608309,-1,-2,-2,0,0,-1,0,-1
1558441039616286,0,-1,0,-3,1,-7,-1,0
1558441039616286,1,-1,0,-1,0,4,1,3
1558441039632254,1,3,3,9,11,10,3,-1
1558441039632254,0,-1,-4,-5,0,2,-2,0
1558441039638229,-2,-1,-1,1,1,-1,-4,-4
1558441039638229,-1,-3,-5,-5,-4,-5,-3,-1
1558441039647207,-1,-2,-2,-3,-10,-7,-3,-2
1558441039647207,-2,1,1,1,1,-3,0,3
1558441039653193,0,0,0,-1,3,0,1,1
1558441039653193,0,1,0,1,1,2,1,-3
1558441039668152,0,-1,-2,0,0,2,-1,-1
1558441039668152,-2,-5,-3,-4,-4,-1,-2,-4
1558441039676166,-2,-2,-3,-3,-5,-3,-1,-3
1558441039676166,-1,-1,0,2,2,3,4,4
1558441039685107,1,1,1,-1,0,-3,-1,-2
1558441039685107,-2,-2,-4,-2,-4,1,1,-2
1558441039698074,0,-1,1,4,7,10,2,2
1558441039698074,-3,-2,-1,-4,-5,-6,-6,-8
1558441039707047,-1,-3,0,-2,-7,-10,-5,1
1558441039707047,0,1,3,5,6,2,3,0
1558441039722016,-2,1,1,0,3,2,-1,0
1558441039722016,-1,1,0,-1,3,2,1,-1
1558441039727999,-4,-3,0,0,-3,-3,-3,-2
1558441039727999,0,0,-3,-1,-1,3,-1,-3
1558441039760908,3,-4,-4,-5,-10,-5,-4,-1
1558441039760908,0,0,6,6,6,1,2,-2
1558441039761906,-3,-2,-3,-1,-3,0,0,-1
1558441039761906,-1,-3,-4,-5,0,0,-1,2
1558441039762899,1,0,-1,-3,-1,-5,2,2
1558441039762899,1,1,-1,2,-2,0,-2,-1
1558441039767884,-2,-3,0,0,-1,-9,-6,-5
1558441039767884,1,0,2,-1,-1,-2,1,2
1558441039781951,-4,-2,-1,-2,-7,-3,-6,-4
1558441039781951,0,-4,-5,-5,-7,2,1,3
1558441039788828,0,-1,1,2,12,10,3,-2
1558441039788828,-2,0,0,1,-5,-4,-2,-2
1558441039804785,-2,-2,-1,-1,-2,-5,1,-2
1558441039804785,-4,-3,-3,-3,-6,-8,-2,-1
1558441039806781,0,1,-2,-6,-6,3,0,3
1558441039806781,-1,-2,0,2,3,0,-2,-2
1558441039818750,0,-1,0,1,7,8,1,-1
1558441039818750,0,-3,-3,-4,-7,-8,-3,-2
1558441039827730,0,1,-2,-2,-6,-7,-4,1
1558441039827730,3,5,2,0,1,-4,0,3
1558441039841685,-2,-1,-3,-2,0,-4,-2,-4
1558441039841685,-2,-3,0,2,2,4,4,0
1558441039848667,1,-1,-1,5,0,5,2,0
1558441039848667,-2,-5,-7,-15,-6,-6,0,0
1558441039864623,2,0,2,2,5,4,-1,1
1558441039864623,0,-1,-1,-2,-1,0,-4,-2
1558441039866620,0,-2,-1,-4,-3,-3,-4,-3
1558441039866620,-2,-3,-2,1,-7,-5,-3,-2
1558441039878590,0,0,-3,-1,2,4,5,2
1558441039878590,-1,0,-1,-5,-5,-2,-4,-2
1558441039887567,0,0,-1,0,3,1,-1,1
1558441039887567,1,1,4,6,10,2,5,0
1558441039901530,1,0,2,3,0,-3,0,-2
1558441039901530,-1,1,-1,-4,0,-1,-1,0
1558441039908508,-3,-2,-1,-1,-4,-1,-3,-5
1558441039908508,-2,-1,-2,-1,1,3,-3,-3
1558441039925462,-3,-2,-2,-3,-4,-9,-3,1
1558441039925462,0,0,-1,2,1,-5,1,0
1558441039926460,-4,-3,-3,-8,-10,-9,-4,-3
1558441039926460,-2,-1,-3,0,-2,5,0,-3
1558441039938428,-1,-2,1,-1,-4,-1,-2,-2
1558441039938428,4,2,1,3,6,4,6,6
1558441039947404,-1,3,-1,1,6,1,2,-3
1558441039947404,-1,-2,-1,-2,-5,-4,-4,-5
1558441039962372,-3,0,-1,-2,-4,3,-1,-2
1558441039962372,-5,-3,-1,0,-7,-4,-4,-3
1558441039968355,1,1,3,1,1,5,4,2
1558441039968355,-2,-1,0,-1,6,1,0,2
1558441039984808,-2,-1,2,5,1,0,3,-2
1558441039984808,-2,-2,-5,-11,-5,2,-4,-1
1558441039986298,4,-1,-3,0,1,-4,-2,1
1558441039986298,-1,1,4,3,5,8,1,0
1558441039998267,1,-1,0,-1,-2,-5,-2,0
1558441039998267,-3,-1,0,-2,5,0,-1,-5
1558441040007241,-2,-1,-7,-6,-7,-5,-1,-2
1558441040007241,-1,0,0,-1,-9,-5,0,-1
1558441040021204,0,0,-1,1,3,6,-2,-1
1558441040021204,0,0,0,-2,-7,-9,-5,-1
1558441040028186,0,0,-1,1,-2,-4,-2,-2
1558441040028186,3,1,1,-1,4,7,2,3
1558441040045141,-1,2,1,-1,11,9,4,4
1558441040045141,-1,-2,-3,1,-3,-5,-3,-4
1558441040046138,-2,-4,-1,1,-3,-4,-3,-2
1558441040046138,-2,-1,0,-1,-8,-2,-2,0
1558441040058105,-2,-3,-7,-11,-9,-4,-2,-4
1558441040058105,2,-2,2,4,4,-2,0,0
1558441040067081,-3,0,0,3,13,6,2,-1
1558441040067081,1,2,0,-4,0,-1,1,-2
1558441040082047,-1,-3,-2,0,-8,-6,-4,0
1558441040082047,-2,0,0,1,-4,-3,-2,-1
1558441040088033,-1,-1,-2,-7,-2,6,2,2
1558441040088033,-2,-1,-3,1,-1,-1,-2,-2
1558441040104986,-2,-2,-2,-3,2,-6,0,1
1558441040104986,2,0,1,1,3,0,-1,0
1558441040105979,-1,-3,2,-1,-4,-3,-2,-3
1558441040105979,-4,-4,-3,-1,-5,-5,-7,-3
1558441040118944,0,-2,2,-1,-10,-3,-1,-1
1558441040118944,1,0,-3,-1,3,4,5,1
1558441040126928,1,2,1,2,14,8,3,2
1558441040126928,0,0,0,2,3,1,1,-1
1558441040140945,-4,-1,-1,-4,-2,-3,-4,-3
1558441040140945,-2,-2,0,1,-7,-6,-4,-3
1558441040149872,-1,-2,-4,-2,-10,-5,-4,-3
1558441040149872,0,0,-3,-8,-10,-7,-2,2
1558441040164949,-3,-3,-3,3,-6,2,-5,-6
1558441040164949,1,0,2,5,17,9,7,2
1558441040166819,2,3,1,3,5,1,4,3
1558441040166819,-1,-3,1,-7,1,-3,-3,-4
1558441040178912,-2,-1,-3,0,-3,-2,-3,0
1558441040178912,-2,-2,-4,-7,-11,-3,-7,-3
1558441040187762,-4,-2,2,2,-4,-2,-3,-2
1558441040187762,0,-2,-3,0,-3,-5,-2,-2
1558441040200727,2,-2,0,-3,-3,-4,-1,-3
1558441040200727,-3,2,2,1,4,10,5,1
1558441040209720,1,1,1,-1,4,0,1,4
1558441040209720,-3,-1,-4,1,-6,-5,-5,-3
1558441040225671,1,0,0,-1,1,2,1,-1
1558441040225671,-1,0,1,1,5,3,-1,-1
1558441040226660,-3,-3,-2,-6,-8,-5,-2,-1
1558441040226660,-1,-1,-3,-1,1,-2,2,1
1558441040238627,0,-1,1,1,3,4,4,2
1558441040238627,1,-1,-2,-3,0,1,3,2
1558441040247600,-2,-1,-4,-2,-7,-8,-7,-5
1558441040247600,1,-1,-1,-4,-3,-3,-4,-1
1558441040261568,0,-1,-2,-2,-4,3,-3,-2
1558441040261568,0,-1,0,1,3,7,0,-1
1558441040269541,3,0,1,1,3,-9,-3,0
1558441040269541,-2,2,2,4,5,-3,1,2
1558441040284501,-4,-2,-3,-1,0,-6,-2,-2
1558441040284501,-4,-4,-4,-12,-18,-7,-7,-3
1558441040286495,1,0,-1,2,6,12,6,1
1558441040286495,-3,-2,1,0,0,1,-4,-5
1558441040298461,-2,-2,-1,-1,-4,-8,-3,-2
1558441040298461,0,0,-2,4,4,2,2,1
1558441040307438,-1,-1,-2,-4,-2,0,0,-2
1558441040307438,1,-1,0,3,-1,-1,0,2
1558441040321403,0,0,0,-3,4,3,-1,-1
1558441040321403,-1,0,-1,-1,-3,-4,-2,-2
1558441040329381,-1,-1,-4,-1,-7,-4,0,2
1558441040329381,0,-1,1,0,1,4,3,-1
1558441040345339,0,0,-3,-1,0,-2,-3,-2
1558441040345339,-3,-4,2,2,-7,-2,-2,-1
1558441040347333,-1,0,1,1,10,5,2,2
1558441040347333,-2,-2,-3,-3,-3,-6,-6,-3
1558441040358302,1,-3,-2,-4,-2,-5,-1,-2
1558441040358302,-3,-1,-1,-1,-7,-3,-3,-2
1558441040367278,0,-1,2,2,4,8,-1,-4
1558441040367278,-2,-4,-3,-4,2,-1,2,1
1558441040381242,-2,1,0,0,4,3,3,1
1558441040381242,-1,-2,-3,-4,-6,-6,-3,-2
1558441040390218,-5,-3,-1,-6,-10,-4,-3,-2
1558441040390218,-2,-1,-3,-2,-5,2,-4,-5
1558441040412158,1,2,4,7,10,7,6,3
1558441040412158,-3,-4,-3,-8,-4,-7,-1,0
1558441040414153,-2,-2,-3,-4,-5,-8,-3,-3
1558441040414153,-2,1,0,4,4,3,0,1
1558441040418143,0,0,0,0,0,-4,-4,-1
1558441040418143,0,-1,-1,-3,-3,-3,-3,-2
1558441040427119,-3,-4,-3,-2,-10,-2,-3,-5
1558441040427119,-1,-1,-1,-1,6,7,0,-2
1558441040441080,0,0,-1,-5,-6,-7,-2,2
1558441040441080,-2,0,-1,5,9,8,1,1
1558441040466015,1,0,1,2,4,4,4,3
1558441040466015,0,0,-3,-6,-9,-8,1,-2
1558441040467012,-1,0,3,3,10,6,1,1
1558441040467012,0,0,-6,-4,-11,-12,-7,-1
1558441040471001,-1,-1,-1,-3,-3,0,0,-1
1558441040471001,1,1,2,1,6,2,1,-1
1558441040477982,-1,-3,-6,0,-4,-1,0,0
1558441040477982,-1,0,3,2,3,0,-1,-2
1558441040486960,-2,-2,-3,-8,-4,0,-1,-3
1558441040486960,-2,-2,-2,-2,-5,-1,-1,-2
1558441040500921,-2,-1,0,-3,-3,-4,-5,-3
1558441040500921,-1,-4,1,1,2,-2,-1,-3
1558441040516877,1,1,0,4,6,-3,-1,0
1558441040516877,3,-2,0,1,4,4,3,2
1558441040523859,-2,-2,-1,-4,-4,1,3,0
1558441040523859,-1,2,-1,2,9,7,4,2
1558441040530844,-2,-3,-5,1,-6,-5,-4,-3
1558441040530844,-2,-2,-4,-7,-9,-2,-1,-1
1558441040538820,0,2,4,1,4,-1,0,0
1558441040538820,0,0,-1,-1,3,0,3,-1
1558441040546799,0,0,1,1,2,0,-2,0
1558441040546799,1,-2,-3,-4,-9,-7,-5,0
1558441040569737,-1,-4,-5,0,-3,3,-4,-4
1558441040569737,-2,-2,-3,-4,-4,1,1,-2
1558441040570734,0,0,0,-1,2,-7,0,-1
1558441040570734,-4,-2,1,1,-2,2,-1,-3
1558441040583699,1,-2,-2,-3,-2,0,-3,-1
1558441040583699,-3,-1,0,-3,-4,-5,-5,-3
1558441040590680,-2,-4,-3,-1,-7,-5,-3,-2
1558441040590680,-1,1,1,2,1,-4,-1,0
1558441040598661,-2,-1,-2,-3,0,3,2,1
1558441040598661,2,-2,2,1,8,4,0,1
1558441040607638,-1,1,0,-2,-1,1,3,0
1558441040607638,1,0,0,-1,3,-1,-2,-1
1558441040629578,-2,-2,-1,-2,-5,-3,-3,-2
1558441040629578,-1,0,-1,2,-3,-3,-3,0
1558441040631572,-2,-2,-1,4,-4,3,0,-3
1558441040631572,1,-1,0,-4,1,1,1,0
1558441040644537,-3,-1,-4,1,4,-2,-3,-5
1558441040644537,0,-2,0,0,-1,-2,-1,-5
1558441040650521,0,-1,1,-2,2,3,2,2
1558441040650521,-2,-1,-2,-2,-3,0,0,-1
1558441040667475,0,0,1,-3,-6,-7,-1,0
1558441040667475,-2,-1,-3,-3,-6,-4,-6,-2
1558441040668472,0,0,-2,-2,1,1,-1,2
1558441040668472,-1,0,0,1,7,5,0,-2
1558441040680443,-2,-1,1,1,2,5,2,1
1558441040680443,0,-1,-1,0,3,-1,2,1
1558441040689417,0,1,0,-1,1,-3,-4,-1
1558441040689417,-2,0,-1,3,-8,-6,-2,-2
1558441040704377,-2,-3,-7,-12,-13,-7,-4,0
1558441040704377,-4,-1,1,0,8,1,0,-7
1558441040711359,-1,-3,1,0,0,2,-1,-1
1558441040711359,0,1,0,2,6,0,3,1
1558441040743273,0,-1,1,-1,-4,-5,-3,-1
1558441040743273,1,0,-1,-2,-11,-7,-3,2
1558441040744270,-1,-2,-2,-3,-3,-5,-4,0
1558441040744270,-1,-4,-3,-3,-2,0,0,-2
1558441040745268,0,0,-1,0,0,2,2,1
1558441040745268,-2,-1,-2,3,2,1,0,1
1558441040750255,0,-2,2,1,0,0,-1,-1
1558441040750255,-3,-2,-1,-1,-4,-3,-1,-1
1558441040764218,0,-3,-4,-2,-3,-3,-2,-3
1558441040764218,0,-2,2,1,-5,0,-3,-2
1558441040771198,-2,-1,-4,-1,2,-3,-2,-1
1558441040771198,1,-1,1,-7,1,1,2,2
1558441040811092,-2,-1,-1,3,3,-1,-3,-1
1558441040811092,-1,0,-1,-5,-6,1,0,-1
1558441040812089,0,-1,-2,-2,-3,0,0,1
1558441040812089,-4,-3,-2,0,-8,-11,-9,-4
1558441040813085,-1,-1,3,-1,-1,-3,1,0
1558441040813085,1,-2,-3,-2,4,-1,2,-1
1558441040818073,-2,1,1,0,0,3,1,-1
1558441040818073,2,1,0,-1,2,4,0,-1
1558441040824056,1,1,-2,-1,0,0,-3,-2
1558441040824056,-1,-3,-5,-5,-10,-4,-4,-3
1558441040833032,-1,0,0,4,-1,1,2,1
1558441040833032,-1,1,0,-3,4,2,-1,0
1558441040854974,1,1,1,0,1,1,2,0
1558441040854974,-1,1,-1,1,3,4,-2,1
1558441040855972,1,1,-1,-2,0,-2,1,-1
1558441040855972,-3,-3,-1,2,-2,-1,-1,-2
1558441040860959,0,-2,1,4,2,0,0,-1
1558441040860959,-1,-1,-6,-7,-8,-4,0,-1
1558441040869935,-6,-3,-2,-3,-6,-4,-6,-8
1558441040869935,-2,-2,-3,-1,-2,-1,-2,1
1558441040883896,-1,-2,4,3,0,3,-1,-1
1558441040883896,-1,-1,1,0,0,-1,-1,2
1558441040890878,1,-1,-4,-4,-3,1,-2,0
1558441040890878,1,1,0,3,6,5,3,1
1558441040906834,-3,0,-3,1,-3,-3,-4,-2
1558441040906834,-1,-3,-3,-9,-11,-13,-4,-1
1558441040908830,0,0,0,2,4,6,6,3
1558441040908830,1,0,-1,-1,5,4,0,0
1558441040920796,0,1,-2,-3,-2,0,0,-2
1558441040920796,-3,-3,-1,3,0,-9,-4,-4
1558441040929773,1,0,1,2,3,-3,-1,1
1558441040929773,-2,-3,-5,-6,-7,-7,-2,-4
1558441040974655,0,-2,-1,-2,0,1,-3,0
1558441040974655,-1,0,-1,2,-1,2,0,-1
1558441040983628,-2,-3,-2,-2,-6,-3,-1,-1
1558441040983628,0,-1,2,-1,-5,-2,-1,1
1558441040984627,-3,-3,-3,-2,-3,-3,-4,-3
1558441040984627,-2,0,4,7,9,8,1,2
1558441040987867,0,-1,-3,-9,0,-1,1,0
1558441040987867,-1,-2,-2,-6,-7,-7,0,-1
1558441040989614,0,0,0,0,2,-1,-1,0
1558441040989614,0,1,-3,0,5,6,3,2
1558441040991609,-1,-1,-3,-1,0,-2,-4,-4
1558441040991609,0,-2,0,1,-3,-6,-2,0
1558441041004573,-2,-2,0,-4,-7,-5,-1,-2
1558441041004573,0,-2,1,1,4,4,-1,0
1558441041019536,-2,-4,-3,3,-5,-5,-5,-3
1558441041019536,-1,-1,2,0,2,2,3,1
1558441041027513,3,1,0,-2,1,-2,1,-2
1558441041027513,-2,0,-1,-2,1,3,1,-2
1558441041028510,-2,0,-1,0,0,-2,-2,-2
1558441041028510,-1,-1,-2,-1,-1,4,1,-2
1558441041040504,0,-1,1,2,1,-3,-5,-1
1558441041040504,1,-2,-3,-1,-2,-9,-2,-2
1558441041049453,-1,-1,2,-2,-1,2,1,1
1558441041049453,-1,1,1,1,4,5,0,0
1558441041079373,-1,-1,-2,0,-2,-4,0,-1
1558441041079373,0,-1,-2,-4,-3,0,1,1
1558441041081368,-3,-3,1,-1,-2,-6,-4,-2
1558441041081368,-1,-3,-2,-2,-8,-7,-5,-2
1558441041087355,-2,-2,-3,-4,4,7,5,1
1558441041087355,-1,1,4,-1,6,5,1,-1
1558441041088350,1,-1,-1,-2,-2,-5,-3,-1
1558441041088350,3,0,-3,1,3,2,-2,-1
1558441041101316,-1,-4,-3,-2,-7,-6,0,2
1558441041101316,-2,-1,0,-1,-1,-2,-3,-3
1558441041109293,-1,-2,-2,-1,0,2,-1,-2
1558441041109293,-3,2,3,0,4,8,2,2
1558441041132232,0,1,0,0,-2,-5,-2,1
1558441041132232,2,0,0,5,7,6,5,1
1558441041133229,-3,0,-1,-9,-8,-8,-5,-2
1558441041133229,-4,-2,-2,0,-6,-8,-5,-4
1558441041147192,-2,0,-1,-1,10,6,2,1
1558441041147192,-3,-2,-2,0,-6,-7,-4,-2
1558441041148190,0,-1,-2,1,-4,0,1,0
1558441041148190,2,0,-2,-3,5,2,4,2
1558441041161154,-3,-1,0,2,1,3,1,-1
1558441041161154,-2,-2,-1,-2,-8,-5,-6,-2
1558441041170132,2,1,2,4,9,3,3,0
1558441041170132,-2,-2,-6,-8,-10,-8,-5,-4
1558441041184092,1,-1,-1,2,-3,-3,-4,-2
1558441041184092,-1,-1,-1,-7,-3,0,-3,1
1558441041191074,-3,-2,0,-2,-3,3,2,-3
1558441041191074,1,0,1,0,-3,-10,-3,-2
1558441041207031,-1,-2,-1,-1,2,1,1,-1
1558441041207031,1,-2,-4,-3,-1,0,-2,-3
1558441041209028,-1,-2,0,0,-5,-4,-2,-2
1558441041209028,-4,-3,0,1,5,12,4,0
1558441041220994,0,0,-1,2,0,3,1,1
1558441041220994,0,2,1,-4,5,-4,0,-1
1558441041229970,0,0,2,3,3,0,-1,-1
1558441041229970,0,0,-2,-2,-2,-4,-6,-3
1558441041243934,-5,-6,-7,-12,-13,-8,-7,-4
1558441041243934,-2,-3,-2,4,-3,2,3,2
1558441041250916,0,0,-2,-2,0,1,2,1
1558441041250916,-3,-2,-1,1,2,-1,-1,-2
1558441041266871,1,1,5,7,5,4,-1,0
1558441041266871,-1,-1,-2,-9,-8,-4,-4,-3
1558441041268867,-2,-4,-3,-5,-7,-4,-4,-1
1558441041268867,-1,-1,0,2,-4,-3,1,2
1558441041280835,-3,-1,-2,-4,0,-1,1,-3
1558441041280835,-1,2,0,-1,4,5,1,2
1558441041289810,-2,-1,-4,2,0,-2,-2,-2
1558441041289810,-2,-2,-3,0,-4,-3,-2,-4
1558441041303812,-1,-3,-2,-7,-4,1,-3,-3
1558441041303812,-1,-1,0,4,-2,-3,4,-1
1558441041310753,1,2,0,-4,8,2,3,2
1558441041310753,1,-1,-1,0,-4,-2,-2,3
1558441041327710,-3,-4,-3,-6,-4,-3,-3,-6
1558441041327710,-2,-1,0,3,-1,3,2,1
1558441041328707,0,-2,0,-1,-6,-8,-7,-2
1558441041328707,0,-3,-1,-7,-4,-4,-3,0
1558441041340677,-1,0,1,1,2,2,0,-4
1558441041340677,-4,-2,-3,1,0,-2,-1,-1
1558441041349874,-3,-1,-5,-2,3,0,0,-1
1558441041349874,1,0,3,1,1,-2,1,1
1558441041364758,-1,0,1,-3,-6,1,-1,2
1558441041364758,-1,0,0,1,2,-3,1,-2
1558441041371596,-2,-1,-4,-1,-2,-2,1,0
1558441041371596,-1,-1,1,3,-5,0,0,-3
1558441041386776,2,-2,-1,4,9,5,3,3
1558441041386776,1,-1,-1,-2,0,0,-4,-4
1558441041393870,-2,-3,-1,-7,-3,-3,0,1
1558441041393870,-1,0,-3,-5,-9,-5,-4,-1
1558441041400519,0,-2,-3,-1,-5,-5,-2,-4
1558441041400519,4,-2,0,1,12,8,0,1
1558441041409775,-4,-3,-3,-1,-9,-3,-4,-4
1558441041409775,-2,0,0,-2,5,0,2,1
1558441041424452,0,4,1,-1,2,-1,1,3
1558441041424452,-4,-1,-1,1,-6,2,-2,-3
1558441041430437,0,-1,-1,2,4,5,0,-1
1558441041430437,0,-1,-1,-5,-9,-8,-2,2
1558441041447388,1,-1,0,2,-1,-1,-3,0
1558441041447388,-1,0,0,0,-4,-1,-2,-3
1558441041453373,-3,0,-2,-5,1,1,-1,-1
1558441041453373,-2,-4,-2,-1,3,1,0,-2
1558441041461359,0,-1,-1,1,-1,-2,0,0
1558441041461359,-1,-2,1,-2,-2,-6,-2,0
1558441041470328,0,1,0,-1,-7,-4,-2,-1
1558441041470328,1,0,-1,0,3,6,-1,-2
1558441041484291,-5,-1,1,1,-6,-2,1,0
1558441041484291,1,-1,-1,3,10,5,1,1
1558441041491272,-1,-1,-5,-8,0,-1,2,-1
1558441041491272,-4,-2,2,4,2,0,-2,-2
1558441041506231,-3,-3,-5,-7,-4,-2,-2,-2
1558441041506231,-1,-1,0,-2,-7,-4,-2,-3
1558441041513212,1,-1,1,6,0,-1,-1,-1
1558441041513212,-3,-2,-5,-5,-5,-2,-2,-2
1558441041521192,-2,0,0,-1,-5,-4,-3,-1
1558441041521192,-1,0,-4,-1,3,4,2,0
1558441041537148,1,0,4,4,5,0,3,1
1558441041537148,-3,-2,-6,-5,-3,-4,-2,-1
1558441041544130,-2,-4,-4,-5,-3,-1,-1,-2
1558441041544130,0,-1,-3,-2,-4,-5,-4,-1
1558441041551113,-1,-1,1,2,-3,-1,-4,0
1558441041551113,-4,0,4,-1,-2,1,-1,-3
1558441041575048,0,0,4,3,4,9,4,1
1558441041575048,0,1,4,4,10,3,4,1
1558441041576044,0,-1,-1,-5,1,-1,-2,-3
1558441041576044,0,-2,-3,0,0,0,-1,-2
1558441041590064,1,-1,0,0,-2,-8,-2,0
1558441041590064,-4,-3,-3,-3,-8,-4,-3,-1
1558441041591006,-1,-3,1,-2,-5,0,0,2
1558441041591006,0,-1,-1,1,1,0,-3,-2
1558441041603969,0,0,1,-1,1,2,-1,-1
1558441041603969,-4,-2,-3,-1,-8,-7,-7,-4
1558441041610980,-1,-2,-4,-6,-7,-3,-1,-2
1558441041610980,0,0,1,0,11,9,3,-2
1558441041627008,-1,0,-1,-2,-1,-6,-1,1
1558441041627008,-1,-1,0,-3,-2,-2,0,2
1558441041632894,-1,0,0,1,-2,-5,0,-1
1558441041632894,-1,0,-1,-1,0,-1,0,-4
1558441041649881,-1,-3,-4,-6,-3,-2,-3,1
1558441041649881,-3,-3,-2,-3,-7,-1,-3,-1
1558441041650844,0,-1,3,3,0,2,-1,-2
1558441041650844,3,2,2,2,9,6,1,1
1558441041663810,0,0,-4,2,7,1,2,-1
1558441041663810,-1,0,-4,-6,-4,-3,-2,-1
1558441041670791,-2,-2,-1,-7,-9,1,1,-3
1558441041670791,2,2,2,5,3,6,5,2
1558441041686787,-1,1,3,9,11,4,-2,-1
1558441041686787,1,-2,-7,-11,-4,1,0,1
1558441041693730,0,-2,0,2,4,-7,0,3
1558441041693730,-1,-2,0,-4,-11,-7,-4,-1
1558441041709714,-1,0,-1,-1,-1,5,0,-5
1558441041709714,-1,0,2,1,-5,-5,-3,-3
1558441041710711,1,3,-2,5,1,-1,0,2
1558441041710711,-1,-1,0,-3,-1,2,-1,0
1558441041723649,0,0,1,0,-2,-5,-1,-1
1558441041723649,-2,-2,-2,2,2,-4,-3,0
1558441041730633,-3,-3,-3,-3,-1,1,-4,-2
1558441041730633,-1,-2,-2,-8,-5,-3,-2,0
1558441041746650,-1,-2,-1,-2,-5,-7,0,0
1558441041746650,-3,-1,-1,-4,-4,1,0,-4
1558441041753631,-3,-4,0,1,3,1,0,0
1558441041753631,-1,-1,-1,-1,-3,-4,-2,-1
1558441041769593,-1,1,-5,-4,-2,2,-1,1
1558441041769593,2,3,3,1,2,1,2,-1
1558441041771526,-1,-3,-4,-5,-6,-3,-2,-4
1558441041771526,-1,-3,-5,0,1,-6,0,-1
1558441041784499,0,1,3,3,4,2,0,0
1558441041784499,-1,1,-2,-1,1,0,2,2
1558441041791479,0,1,1,-1,-1,2,-1,0
1558441041791479,-3,-1,1,7,1,4,0,0
1558441041806558,0,-3,-3,-6,-6,-5,-1,0
1558441041806558,-2,-1,0,-4,-1,0,-1,-1
1558441041813418,1,0,1,4,0,-1,-1,-1
1558441041813418,0,-3,-2,-3,2,1,2,-2
1558441041830373,0,-1,-1,4,-1,-3,-3,1
1558441041830373,-2,0,-3,2,-4,-4,-5,-4
1558441041831368,-3,-2,-3,-4,-5,-1,-1,-1
1558441041831368,2,0,0,1,3,-1,-1,-2
1558441041844369,-2,-2,-2,-5,-7,-7,-3,-3
1558441041844369,3,-1,1,4,9,-1,2,3
1558441041851312,-2,-1,-1,-1,1,-1,0,-4
1558441041851312,-1,-1,-3,-4,-7,-2,-2,1
1558441041866743,-1,0,-1,-1,1,-4,-1,-1
1558441041866743,-2,-1,1,2,-5,1,-2,-1
1558441041873454,0,-3,-3,-9,-7,-2,0,1
1558441041873454,0,0,2,2,8,3,3,3
1558441041889410,-1,0,0,-1,-2,-2,-2,1
1558441041889410,-2,-3,1,3,1,-2,-2,-4
1558441041891411,1,0,-2,-3,2,6,-1,-3
1558441041891411,-3,-2,-5,-3,-7,-4,-6,-4
1558441041903372,-2,0,1,2,0,-4,0,-1
1558441041903372,2,0,-3,-1,3,4,4,1
1558441041912352,-5,-2,-3,-1,-6,-3,-2,-4
1558441041912352,-3,-2,1,-4,-9,-12,-3,-3
1558441041926312,2,0,2,4,11,6,4,2
1558441041926312,1,-2,1,-5,2,0,1,1
1558441041941281,0,-1,-2,-1,2,4,1,1
1558441041941281,-1,-2,-2,-4,-7,-4,-6,-1
1558441041965496,0,1,-2,-2,-5,-3,-3,-2
1558441041965496,-4,-3,-3,-2,-6,-4,-1,-3
1558441041967203,1,1,1,2,2,-1,0,1
1558441041967203,2,0,0,1,8,8,4,0
1558441041967203,-2,-4,0,-2,-6,-4,-2,0
1558441041967203,-1,-4,-4,-6,-8,-7,-3,-6
1558441041972222,-1,1,0,0,2,-2,0,1
1558441041972222,-1,0,2,4,8,9,4,0
1558441041987270,-1,0,0,0,3,-4,-1,1
1558441041987270,0,-1,-4,-1,2,-1,-3,1
1558441041994154,-1,-2,-1,-4,-4,-3,-2,3
1558441041994154,-3,-3,-5,-2,-9,-5,-5,-9
1558441042010358,-2,-4,-7,-8,-7,-6,-4,-4
1558441042010358,0,1,1,1,2,0,4,2
1558441042011086,0,2,3,7,8,6,1,-3
1558441042011086,0,0,-1,-3,0,-1,-2,2
1558441042024148,-1,-4,-2,-3,-5,3,-2,-2
1558441042024148,-3,-1,-3,-2,-6,-2,-3,-4
1558441042032298,0,-2,0,-1,-2,-5,1,-1
1558441042032298,2,1,4,-1,5,-8,3,1
1558441042047262,-1,-2,-4,1,-3,-2,0,-3
1558441042047262,-2,1,2,5,6,3,-2,2
1558441042054189,-2,-2,-3,-6,4,3,-1,-2
1558441042054189,-2,-3,-4,-4,-7,-5,-1,-1
1558441042076942,-1,-2,2,3,0,0,-2,-2
1558441042076942,-1,-3,4,-4,-5,-5,-1,0
1558441042078937,-3,-1,-2,-1,-2,-3,-2,-3
1558441042078937,-2,1,0,2,-6,-1,-2,-3
1558441042082923,1,0,-2,-3,5,4,-2,-1
1558441042082923,-1,-1,-1,0,0,-2,2,-3
1558441042091900,-1,-1,0,3,7,4,3,-2
1558441042091900,0,-2,-2,-4,-5,-1,0,1
1558441042106829,-1,2,-1,-1,3,7,-3,-2
1558441042106829,2,0,0,-1,-3,-2,-1,0
1558441042114066,1,-1,1,4,0,-8,0,-1
1558441042114066,-5,-1,-3,2,-3,-3,-6,-6
1558441042129769,-3,-3,-5,-14,-9,-3,1,4
1558441042129769,-3,-4,-3,0,2,2,-2,-6
1558441042130765,-1,2,0,-1,-3,1,-1,1
1558441042130765,2,-1,-1,0,0,-4,-1,0
1558441042143729,-1,0,3,3,-5,-5,-4,-4
1558441042143729,2,1,0,0,10,5,2,5
1558441042152706,-1,-1,-2,-5,-5,-1,1,1
1558441042152706,-4,-2,-3,-2,1,0,-2,-5
1558441042166672,0,0,-6,-4,-9,-6,-3,-2
1558441042166672,0,-3,-3,-7,-8,-2,0,0
1558441042190604,-2,-2,1,4,10,4,2,-5
1558441042190604,0,-1,-2,-3,-7,-4,-4,1
1558441042191603,-3,-1,0,3,6,7,5,-1
1558441042191603,-2,0,2,0,1,-2,-1,3
1558441042192600,0,-2,-1,0,-6,-5,-5,-1
1558441042192600,0,-1,-2,-1,-2,-2,1,2
1558441042203569,-1,-2,-8,-6,-5,-3,-2,-5
1558441042203569,-2,1,1,-1,-4,0,-2,-3
1558441042212548,-1,-1,-1,0,7,4,-2,0
1558441042212548,-4,-1,2,0,0,0,-5,-2
1558441042242471,1,1,1,5,1,-2,2,3
1558441042242471,-2,-2,-4,0,-3,-6,-4,-5
1558441042243463,-1,-2,-2,-3,-11,-7,-1,1
1558441042243463,3,-2,-2,-8,0,4,4,4
1558441042249447,-3,-2,2,4,4,3,0,-4
1558441042249447,-3,1,2,2,-1,-3,-1,0
1558441042251442,-1,-1,-3,-1,-5,-7,-7,-5
1558441042251442,-4,-3,-2,-3,3,2,3,0
1558441042263410,0,0,1,-2,0,1,2,-1
1558441042263410,-2,-2,-4,-4,-9,-6,-2,-1
1558441042272390,1,0,1,2,3,4,4,3
1558441042272390,-2,-1,-2,2,-2,-1,-3,-5
1558441042286481,-1,-1,-2,-7,-2,-4,-1,0
1558441042286481,-2,0,1,-1,3,5,0,1
1558441042293461,-1,0,-2,1,-2,-1,-2,-2
1558441042293461,-2,-1,0,-5,-4,-10,-2,-3
1558441042309289,0,0,-2,-4,-2,-2,-1,1
1558441042309289,0,0,-4,-4,-4,-3,-1,-2
1558441042316273,0,-1,0,2,5,4,2,0
1558441042316273,0,-2,0,1,3,7,2,0
1558441042323249,-2,-1,-3,-1,-3,-1,-3,-3
1558441042323249,-2,-1,-1,1,3,1,-1,-1
1558441042332366,-2,-1,-2,-5,-5,-8,-3,-5
1558441042332366,-1,-1,0,-2,-4,-5,-3,-3
1558441042346198,1,-2,-1,1,-3,-2,0,1
1558441042346198,1,0,-2,1,5,-1,0,2
1558441042353171,0,-2,2,0,2,7,4,3
1558441042353171,1,0,0,1,-1,-5,-2,-2
1558441042369130,-2,-4,0,4,-2,2,4,1
1558441042369130,-1,-5,-3,-7,-2,-1,-2,-2
1558441042376383,-2,0,-1,2,0,1,-3,-2
1558441042376383,0,0,-3,0,4,6,3,1
1558441042383373,-3,-4,-2,-6,-8,-7,-6,-5
1558441042383373,3,0,-2,1,-3,-8,0,3
1558441042400046,-2,-3,-2,-2,-4,-1,-2,-2
1558441042400046,-1,2,2,7,10,9,1,-2
1558441042407026,-2,-1,-4,-3,-3,-2,-1,0
1558441042407026,-2,-1,-1,-4,-2,7,5,1
1558441042414075,1,-1,-2,0,0,-1,1,0
1558441042414075,-3,1,-1,-2,-9,-7,-4,-2
1558441042428974,0,-2,0,0,1,-4,-1,-1
1558441042428974,-3,0,0,-1,-2,-2,-3,-2
1558441042436184,-1,-3,-2,-4,-5,-3,-3,-3
1558441042436184,1,-2,2,2,4,9,5,2
1558441042444077,0,0,1,5,6,-2,-1,1
1558441042444077,-1,-3,-4,-3,-9,-5,-2,-2
1558441042452904,-2,0,-1,-4,-4,3,0,-1
1558441042452904,-2,-2,-3,0,1,-5,-5,-1
1558441042466899,3,3,2,0,-4,-1,0,2
1558441042466899,0,-2,-2,-1,6,5,0,1
1558441042474116,0,1,0,0,5,3,0,-1
1558441042474116,-2,-3,-2,-4,-5,1,-3,-5
1558441042489861,-4,-1,-1,-2,1,-1,3,-2
1558441042489861,-3,-3,-1,-3,-7,-6,-4,-6
1558441042496057,-2,-3,-3,2,-6,0,-3,0
1558441042496057,2,-2,-1,-5,-2,0,1,2
1558441042520941,0,-2,0,2,6,0,1,0
1558441042520941,-1,-1,-2,-2,-2,-4,-2,-1
1558441042521722,-1,-1,-3,0,3,0,0,0
1558441042521722,1,0,-1,0,-3,-1,-3,0
1558441042526706,-3,-4,-2,-6,-6,-5,-7,-3
1558441042526706,3,0,3,6,2,-4,1,3
1558441042533696,-1,0,2,0,7,2,0,-1
1558441042533696,0,0,0,1,5,2,3,2
1558441042548648,0,1,0,-1,-1,0,-1,3
1558441042548648,-2,-2,-2,-3,-5,3,-2,0
1558441042555917,-4,-6,-2,-3,-8,-6,-8,-7
1558441042555917,0,-1,-3,-2,-2,-12,0,2
1558441042572928,-1,1,1,2,4,6,0,-2
1558441042572928,0,1,1,0,7,11,4,-1
1558441042573582,2,-1,-7,-5,-5,-7,-2,-1
1558441042573582,-2,-2,-2,0,-13,-8,-3,-2
1558441042586546,-3,0,-2,-3,-4,4,3,1
1558441042586546,-1,-1,0,3,6,-1,-2,-2
1558441042593903,-2,-1,2,2,-3,-7,-3,-5
1558441042593903,0,-1,-2,-1,4,-2,2,-1
1558441042609752,-1,-1,-2,-3,-6,-4,0,-2
1558441042609752,2,1,0,2,3,12,6,0
1558441042616658,-3,-1,-3,-1,-5,-3,-2,1
1558441042616658,1,0,1,-1,-2,-8,-1,3
1558441042632721,1,1,4,4,8,7,-3,0
1558441042632721,-3,-4,-5,-8,-11,-10,-5,-5
1558441042633421,-1,-1,-2,-2,-1,3,3,2
1558441042633421,-2,-1,-1,-1,-6,1,-1,-1
1558441042646834,-2,-3,-4,-5,-8,-6,-5,-3
1558441042646834,0,2,5,3,5,4,2,0
1558441042653679,2,2,2,-2,3,4,2,0
1558441042653679,-2,0,-3,3,3,3,-1,-1
1558441042669357,-3,-2,-2,1,-3,-2,-3,-2
1558441042669357,-3,-4,-5,-8,-11,-14,-7,-3
1558441042676584,0,2,0,-2,-2,-4,4,4
1558441042676584,0,0,2,3,3,6,2,0
1558441042692523,0,0,0,0,3,-3,-2,4
1558441042692523,-3,-2,1,2,-6,-5,-5,-3
1558441042694258,1,-1,-1,-5,1,4,3,5
1558441042694258,-4,-5,-6,-5,-1,-7,-6,-12
1558441042706489,-2,0,-3,-3,-4,-2,-1,-4
1558441042706489,-1,-3,-4,-1,-8,-6,-3,-3
1558441042713468,-2,-2,1,1,3,4,-1,-2
1558441042713468,1,1,1,-1,1,5,1,1
1558441042729426,1,-1,-3,-3,1,-1,-1,-4
1558441042729426,-3,-1,-3,-2,-7,-9,-3,2
1558441042736147,-3,-4,-3,-2,-6,-9,-4,-4
1558441042736147,1,2,3,0,9,7,3,2
1558441042752137,1,0,1,3,-1,2,5,2
1558441042752137,1,1,0,2,10,11,0,0
1558441042754101,-5,-3,-2,-4,-8,-7,-8,-6
1558441042754101,-1,-2,-2,-4,-7,-1,0,-1
1558441042767066,-1,-1,-1,-1,4,-4,1,1
1558441042767066,-1,-1,0,-3,-4,-9,0,-2
1558441042773050,-1,-2,-1,3,7,2,2,1
1558441042773050,-3,-1,1,1,-3,-1,-7,-4
1558441042789316,-1,-2,-4,-7,-6,3,-1,-1
1558441042789316,-2,-4,-4,-4,-1,1,-1,-1
1558441042796383,2,3,1,0,-4,-3,2,0
1558441042796383,0,-3,-1,4,2,-3,-4,-2
1558441042813030,-2,0,-1,-1,7,2,0,-1
1558441042813030,0,-1,1,-2,3,1,1,0
1558441042813939,1,-1,0,3,-5,-5,-1,1
1558441042813939,-1,0,-4,-5,-7,1,1,2
1558441042827034,0,-1,-1,-1,-3,-2,-4,-4
1558441042827034,-2,-1,-5,-2,-4,-4,-7,-4
1558441042833239,0,-2,0,-3,-3,-1,-1,-5
1558441042833239,-1,-1,2,-2,6,2,3,0
1558441042849869,1,-1,3,6,4,0,3,5
1558441042849869,-1,-3,0,-1,-2,-6,-2,-5
1558441042856165,0,0,-4,-2,-1,-1,-1,1
1558441042856165,-1,-2,-1,-1,-4,1,-2,-3
1558441042873021,-1,1,0,3,-2,-2,-3,-2
1558441042873021,1,0,-4,-7,-6,-2,1,2
1558441042873778,-5,-1,-1,-2,1,2,-1,-1
1558441042873778,1,1,0,1,5,0,2,1
1558441042886950,0,0,2,2,5,7,3,-5
1558441042886950,0,-2,1,-1,-2,-1,-2,0
1558441042893937,-2,-4,-2,-1,-13,-13,-10,-4
1558441042893937,2,0,-4,-5,-1,-8,-1,4
1558441042909795,0,-1,-3,-4,-4,-7,-5,0
1558441042909795,-1,-2,0,3,3,3,3,3
1558441042916701,1,1,1,2,7,10,6,1
1558441042916701,-2,-2,-1,-2,-3,1,-2,-2
1558441042932852,-3,-1,-1,-3,-3,-4,-4,-6
1558441042932852,0,-1,3,6,2,-3,-1,-2
1558441042933622,-1,-4,-2,-10,-5,2,-1,0
1558441042933622,-1,0,-1,-1,-4,-8,-3,-1
1558441042946828,-2,-4,-3,-4,-10,-7,-4,-2
1558441042946828,-1,1,0,1,8,9,3,4
1558441042953565,1,2,0,0,8,0,0,-1
1558441042953565,0,-4,-3,-2,0,5,2,2
1558441042969521,-6,-3,0,1,-5,-5,-6,-11
1558441042969521,-2,-2,-2,-6,-12,-10,-4,-3
1558441042975507,-1,-4,-6,-4,1,-4,3,0
1558441042975507,-3,0,0,1,2,4,-2,0
1558441042993487,1,-1,-3,-3,-7,-3,-1,3
1558441042993487,2,1,4,2,9,8,6,2
1558441042993487,-1,1,0,3,-2,-6,-7,-4
1558441042993487,-4,-3,-3,-2,-7,-5,-6,-6
1558441043006683,-1,-2,-4,-7,-3,7,4,1
1558441043006683,3,2,5,7,8,-1,4,1
1558441043014680,-2,1,0,0,11,7,3,1
1558441043014680,0,-1,-1,-2,-4,-5,-4,-3
1558441043029395,-1,-1,1,-5,-7,-7,-7,-1
1558441043029395,-1,-3,-5,-6,-10,-5,-6,-1
1558441043035351,-2,-2,-1,3,2,1,2,1
1558441043035351,-1,-2,-2,-2,-2,1,1,-1
1558441043052538,-1,0,0,4,5,4,1,3
1558441043052538,3,3,-2,-2,9,3,1,3
1558441043053299,-4,-3,0,-2,-6,-3,-3,-4
1558441043053299,-3,0,-1,1,3,-3,-2,-3
1558441043066544,-1,1,2,0,-5,-3,-1,0
1558441043066544,-2,-2,-5,-4,-3,0,4,-3
1558441043075239,-3,-2,-7,-2,-10,-10,-9,-4
1558441043075239,1,-1,0,2,0,-1,-1,-1
1558441043089432,0,0,-2,0,4,4,2,4
1558441043089432,-3,0,1,2,5,9,-2,-7
1558441043096186,-2,-2,1,1,-5,-8,-4,-2
1558441043096186,-2,0,0,-4,-6,-15,-4,-1
1558441043112379,2,0,-3,-6,-2,-1,1,1
1558441043112379,-2,0,0,1,-3,-3,-6,-2
1558441043114141,-1,-1,-1,-4,0,5,2,0
1558441043114141,-1,1,0,0,0,5,2,-1
1558441043126310,-3,-3,-1,-1,-2,-2,-4,-3
1558441043126310,0,-2,2,5,8,-8,-1,2
1558441043135079,0,-1,-4,-5,-5,-2,-3,-1
1558441043135079,2,-2,-1,-3,1,1,-1,1
1558441043149043,0,-2,-4,0,-2,-5,-2,-2
1558441043149043,-3,1,-2,-1,-6,4,0,-1
1558441043156021,-1,-1,2,0,-3,-3,-1,-2
1558441043156021,0,1,1,5,7,9,4,1
1558441043179958,-3,-2,-3,-3,2,-5,-2,-1
1558441043179958,-2,-4,-2,-2,-5,-4,-4,-3
1558441043180955,1,-2,-3,0,0,4,2,1
1558441043180955,0,-3,-3,-3,-9,-8,-2,0
1558441043185944,1,2,-1,-1,3,0,-2,0
1558441043185944,-4,-2,-3,-2,-1,2,5,-3
1558441043201899,-1,0,2,0,-2,-6,-2,0
1558441043201899,-1,1,-2,-4,-2,2,-3,-3
1558441043208881,-1,-1,1,-1,5,5,3,-1
1558441043208881,0,0,-1,2,-1,-2,-2,1
1558441043216298,-2,-1,0,0,0,2,0,4
1558441043216298,-3,-2,2,1,-3,-5,-5,-9
1558441043231853,-2,-3,-3,-4,-5,-1,-2,-3
1558441043231853,1,-1,-1,-5,-3,4,0,-1
1558441043233814,-1,0,1,1,6,-1,0,-3
1558441043233814,2,-3,-2,-1,-2,-3,-2,2
1558441043245783,0,-1,3,1,-3,-2,-1,1
1558441043245783,2,-1,1,-3,-3,-3,-1,-1
1558441043254759,4,1,-4,-1,2,4,5,5
1558441043254759,0,1,0,2,7,4,8,2
1558441043268758,0,0,-1,2,7,6,2,-3
1558441043268758,-1,-3,-1,-3,-6,-5,-5,-2
1558441043276146,0,0,-1,-4,-4,-1,-7,-5
1558441043276146,-4,-4,-5,-4,-11,-1,-2,-2
1558441043291999,-2,2,0,-1,0,-1,-1,0
1558441043291999,-1,0,-3,1,-4,-6,1,0
1558441043299000,-1,-4,0,1,10,8,2,-3
1558441043299000,-1,-2,1,-2,-1,0,-2,0
1558441043314948,1,-1,-2,1,1,-2,2,0
1558441043314948,-2,-2,-3,0,-4,3,0,-4
1558441043316883,-3,-2,-1,-3,-7,-2,-2,-2
1558441043316883,-1,-2,1,-2,3,-6,-2,0
1558441043329917,-1,-3,-2,0,-4,-2,0,2
1558441043329917,-1,0,0,-1,6,3,2,-1
1558441043336755,-5,-2,-5,-3,-6,-8,-9,-4
1558441043336755,-3,0,-1,0,-8,-5,-4,0
1558441043351500,3,1,2,1,4,3,2,3
1558441043351500,0,0,-1,2,7,4,-1,-2
1558441043358834,0,-1,2,1,0,-1,0,3
1558441043358834,-2,-2,-3,-6,-5,-6,-3,-4
1558441043366838,-4,-1,-4,-5,-12,-8,-4,-1
1558441043366838,-1,0,1,-2,1,-2,3,4
1558441043374439,2,0,-2,2,-1,0,3,2
1558441043374439,-1,-1,-5,-9,-6,-3,-3,2
1558441043389398,-1,-3,0,-1,0,1,-6,-7
1558441043389398,0,-2,-2,-2,-6,3,3,-2
1558441043395383,0,-1,1,4,7,-5,1,-1
1558441043395383,-1,-1,1,0,2,4,5,1
1558441043411824,-4,-2,-2,0,4,-4,-3,-5
1558441043411824,-4,-4,-4,-3,-3,0,-5,-5
1558441043418323,-2,-3,-3,-3,-9,-7,-6,-4
1558441043418323,-1,-2,-1,0,0,0,0,0
1558441043426755,-1,1,3,1,0,2,1,2
1558441043426755,-1,0,-1,-2,-3,-7,-4,1
1558441043434281,1,-1,-2,-1,6,7,3,-2
1558441043434281,-1,-1,-2,2,4,0,1,-1
1558441043449238,2,1,0,5,4,0,-3,0
1558441043449238,-3,-3,-3,-7,-4,2,0,-1
1558441043456218,0,0,1,-1,-4,-7,0,0
1558441043456218,-1,0,0,6,7,2,1,3
1558441043471178,-1,-1,-2,-2,-2,3,3,2
1558441043471178,-5,-3,-4,-3,-7,-7,-10,-11
1558441043478159,-2,-2,1,0,-4,-1,-6,-4
1558441043478159,1,0,-4,-4,-6,0,-3,-1
1558441043495114,-2,-3,-2,-1,-1,0,-2,-6
1558441043495114,1,3,1,2,3,-3,4,8
1558441043496111,-3,-1,-4,-1,0,-1,1,-1
1558441043496111,-1,0,0,-2,-2,-2,-1,-3
1558441043509469,-1,-1,-2,-5,-4,-6,2,-1
1558441043509469,1,-1,0,-2,-2,-5,-3,2
1558441043516060,0,1,1,-1,-2,1,1,0
1558441043516060,2,0,3,3,13,8,3,0
1558441043531392,-2,-3,-4,-1,-8,-4,-5,-2
1558441043531392,-1,-2,-1,1,0,5,0,1
1558441043539228,0,-2,-1,-4,1,1,-1,-2
1558441043539228,-3,-1,-1,-4,-6,-11,-4,-2
1558441043555302,-4,-1,-5,-4,-9,-5,-2,-5
1558441043555302,-2,-1,-2,0,6,4,3,0
1558441043555953,1,0,0,4,7,3,-1,1
1558441043555953,-4,-5,-6,-8,-6,-3,-3,-3
1558441043568919,0,-2,4,-1,-5,-2,-3,0
1558441043568919,-1,-1,-2,0,0,-1,-2,-3
1558441043575902,-2,0,0,3,4,4,1,-4
1558441043575902,-1,0,2,4,3,2,-1,-2
1558441043591856,0,0,-2,-5,0,-2,-2,1
1558441043591856,-1,-1,-2,-2,-9,-6,-5,-2
1558441043598837,-1,0,0,-5,-6,-7,3,0
1558441043598837,1,-1,-3,-2,3,5,3,5
1558441043614797,1,0,-3,-1,-1,-4,-1,-1
1558441043614797,0,0,2,5,0,-3,-2,0
1558441043615793,0,2,2,-3,-1,4,1,4
1558441043615793,-3,-1,-3,-3,-6,-13,-9,-7
1558441043629194,1,-2,4,4,7,9,5,0
1558441043629194,-1,0,0,-2,5,3,-2,-2
1558441043635741,-1,-3,-3,-5,-10,-5,1,0
1558441043635741,-1,-2,-1,-3,-1,-5,1,0
1558441043651700,-1,0,2,3,4,3,1,2
1558441043651700,-3,-2,1,-1,-2,-5,1,-7
1558441043658677,1,0,1,1,3,5,5,2
1558441043658677,2,0,2,6,3,-2,-2,0
1558441043682613,-4,-2,-6,-11,-6,-6,-5,-3
1558441043682613,0,-3,-3,-3,-7,-4,-1,4
1558441043683615,-4,-6,-5,-3,-3,1,-5,-5
1558441043683615,0,-1,1,0,0,4,2,0
1558441043688598,-3,0,-2,-1,0,-4,-5,-3
1558441043688598,0,-1,-1,1,0,2,-1,-1
1558441043695580,1,2,-2,0,4,4,4,3
1558441043695580,-1,-1,-3,-2,-3,-4,-2,-1
1558441043711574,-4,-3,-3,-1,-2,3,2,-2
1558441043711574,-1,0,0,1,-1,-2,-1,0
1558441043718518,2,1,2,-2,-4,-8,-4,0
1558441043718518,0,-1,0,2,5,-1,-2,-5
1558441043734482,1,1,3,5,7,4,2,1
1558441043734482,0,-1,0,2,-2,2,2,1
1558441043736472,0,-2,-5,-8,3,-2,-5,-3
1558441043736472,-1,-3,-4,-3,-13,-3,-1,0
1558441043749436,-2,-1,-1,3,2,-1,-1,-1
1558441043749436,-1,-5,-1,-3,1,0,-1,2
1558441043756416,-3,-4,-2,0,-4,-7,-7,-5
1558441043756416,-3,-1,-2,-1,-3,2,1,-1
1558441043771377,0,-2,1,-2,2,0,0,0
1558441043771377,0,2,4,1,-1,-4,-3,-1
1558441043778358,-2,-1,-6,-2,-9,-4,-2,-1
1558441043778358,-1,-1,0,0,8,7,0,0
1558441043794323,1,2,-2,-5,0,3,7,3
1558441043794323,-2,-2,-1,-2,-1,-2,-1,-4
1558441043796310,-2,-1,2,2,0,-10,-5,1
1558441043796310,-4,0,0,-5,-11,-4,-1,3
1558441043809276,-1,-2,-3,3,2,0,-3,-6
1558441043809276,-2,-1,-4,-5,0,-4,-3,-5
1558441043816256,0,1,1,0,1,7,4,1
1558441043816256,0,-1,-1,-1,2,0,-1,-1
1558441043831217,0,-1,-2,-1,-7,0,0,-1
1558441043831217,-3,-2,-1,-1,-2,-6,0,-1
1558441043838295,-2,-2,1,1,5,2,-2,1
1558441043838295,0,-1,4,5,1,2,-2,-2
1558441043862133,-2,-4,-7,-5,-8,-11,-7,0
1558441043862133,1,0,-2,-5,-4,5,1,1
1558441043870189,0,0,1,0,5,3,1,-3
1558441043870189,-1,-1,0,2,4,2,-2,1
1558441043870189,-2,-3,2,1,0,-3,0,0
1558441043870189,-3,-3,-6,-4,-6,-4,-1,-1
1558441043876099,0,-2,0,-2,-7,-3,0,5
1558441043876099,1,0,-2,-4,-3,-5,-1,-4
1558441043891059,1,1,2,1,11,9,-1,6
1558441043891059,-4,-2,0,-1,-5,-3,-6,-7
1558441043898038,-1,-1,-3,1,-4,-3,1,-4
1558441043898038,-2,-2,-2,-3,-3,1,-3,-3
1558441043915143,0,-2,-3,-3,-2,-5,-2,-1
1558441043915143,1,2,3,6,4,-1,6,7
1558441043915990,-2,0,-5,-3,3,3,0,-1
1558441043915990,-1,-1,-3,-4,-6,-3,2,-3
1558441043928982,0,-1,0,1,-10,-5,-3,-1
1558441043928982,1,-1,1,1,8,7,0,1
1558441043935938,0,-1,0,2,4,-1,-2,0
1558441043935938,0,-2,-2,-3,-4,-3,1,2
1558441043951902,-1,-2,1,0,-3,-3,-2,-2
1558441043951902,2,1,3,0,7,6,4,0
1558441043958941,-2,-3,0,-4,-5,-3,-1,-2
1558441043958941,0,-1,0,2,2,-2,-1,0
1558441043974984,-1,-1,-3,-4,-7,-4,-2,-1
1558441043974984,-2,-2,-2,-1,4,3,-3,-2
1558441043975836,-3,-2,-1,3,-3,2,-1,-2
1558441043975836,-1,-2,-2,-4,-4,-6,-6,-1
1558441043988819,-1,-1,1,-1,-1,-2,4,0
1558441043988819,0,1,0,3,3,2,3,1
1558441044004753,-2,-3,-4,-8,-5,-2,-3,-4
1558441044004753,-3,0,1,1,-1,6,3,0
1558441044011734,3,2,1,0,1,-2,0,2
1558441044011734,-1,0,-2,0,-5,-4,-1,1
1558441044018717,-3,-2,-1,2,2,-1,-4,-3
1558441044018717,1,-1,-4,-4,-5,-7,-1,-3
1558441044034684,-3,-3,-2,1,-2,-6,-6,-4
1558441044034684,0,0,1,-1,5,6,2,0
1558441044035671,0,-2,-3,-1,-3,3,3,1
1558441044035671,-2,-1,0,-2,2,2,-3,-2
1558441044048635,-2,0,1,-1,-2,-3,1,-1
1558441044048635,1,-2,-2,-4,-9,-10,-2,1
1558441044057610,-2,0,-2,-1,-5,-6,-6,-7
1558441044057610,1,1,2,5,4,3,2,4
1558441044071580,-5,-2,-4,-3,3,5,-2,-11
1558441044071580,0,1,-3,-2,-4,-2,-1,-1
1558441044078715,-1,-1,-3,0,4,2,2,-1
1558441044078715,0,-1,-1,0,2,0,0,0
1558441044094512,-1,0,-1,-1,0,-1,-3,2
1558441044094512,-3,-6,-3,-3,-10,-8,-7,-7
1558441044096514,-1,0,2,3,4,3,2,2
1558441044096514,-2,-3,-3,-4,-4,-3,0,-3
1558441044108475,0,0,1,-2,2,2,0,1
1558441044108475,-1,-2,0,3,-2,-1,-1,-2
1558441044123434,0,-3,-1,-2,-4,-8,-5,-1
1558441044123434,0,-1,0,2,2,1,0,-1
1558441044131573,2,-2,-2,-1,-1,-1,1,2
1558441044131573,0,0,-4,-6,-3,0,-3,2
1558441044138490,-2,0,0,-2,-5,0,2,-1
1558441044138490,-4,-3,-2,-2,-11,-10,-11,-6
1558441044154354,0,-1,-2,4,14,2,6,2
1558441044154354,-3,0,-1,-2,-2,-1,1,-1
1558441044156347,1,2,2,1,1,4,2,2
1558441044156347,-2,-1,2,0,-2,-2,0,2
1558441044168317,-2,-3,-3,-4,-6,3,-2,-7
1558441044168317,0,1,1,0,4,2,1,-4
1558441044177291,-2,-1,0,3,6,5,1,-1
1558441044177291,-1,-1,-2,-2,2,3,-1,0
1558441044199233,-3,-2,-3,-3,-10,-9,-6,-2
1558441044199233,-2,-1,0,-4,-5,-1,0,0
1558441044201227,-1,-1,-2,-2,-3,-2,-1,-2
1558441044201227,-1,0,0,-1,1,-3,3,0
1558441044214193,3,1,0,5,8,6,4,3
1558441044214193,-1,-2,-1,-4,-1,-2,-2,-3
1558441044221175,-1,-2,-2,-7,-7,-2,-2,1
1558441044221175,-1,1,-3,-4,-2,-7,-3,-2
1558441044228155,-3,0,0,-3,-9,-10,-3,-2
1558441044228155,0,1,1,2,3,10,3,0
1558441044237135,0,-2,-1,0,0,-6,-3,0
1558441044237135,-1,-1,-1,2,6,6,3,1
1558441044251094,-2,-2,1,-1,-2,0,-4,-1
1558441044251094,0,-1,1,2,2,-2,1,2
1558441044258183,-1,-2,-4,-4,-5,0,-1,2
1558441044258183,1,1,0,3,-1,0,1,1
1558441044274043,-3,-1,-2,-3,-7,-3,-2,-4
1558441044274043,-3,-3,-3,-4,-6,-12,-6,-5
1558441044281014,1,-1,-1,2,-3,-1,-1,-1
1558441044281014,-2,-3,-2,-4,-3,1,-1,-3
1558441044287995,1,0,3,1,4,3,4,2
1558441044287995,2,1,-1,5,9,4,1,5
1558441044296970,-3,-3,-2,-8,-2,-8,-3,-2
1558441044296970,0,-2,-2,-4,0,4,-4,-5
1558441044311938,-2,-3,-2,-3,-4,1,-1,-4
1558441044311938,-3,-2,-2,-1,-10,-7,0,1
1558441044317930,0,2,3,3,0,-2,-1,-1
1558441044317930,-1,-2,0,1,14,9,3,1
1558441044333871,-2,-1,-2,-1,-5,0,-1,0
1558441044333871,-2,-2,-2,-3,-3,-5,-5,-1
1558441044340854,-3,-3,0,-2,-2,-4,-4,-4
1558441044340854,-3,-3,-1,1,-6,2,0,-3
1558441044347833,0,0,-1,0,2,-1,1,0
1558441044347833,-2,-1,-3,-4,-2,-1,-4,-1
1558441044356810,-2,-1,-2,0,-1,0,-1,-4
1558441044356810,0,0,-1,1,-1,-2,-1,1
1558441044371773,-1,-2,-3,-5,-3,-4,-1,-2
1558441044371773,-1,-1,-2,-1,-2,1,2,-2
1558441044378762,0,1,1,2,6,3,1,-1
1558441044378762,-1,0,-2,-5,-4,1,-2,-1
1558441044393794,-1,0,2,0,-4,-4,-3,0
1558441044393794,-1,-1,-2,1,3,0,1,0
1558441044400697,0,-1,0,4,2,-2,-1,0
1558441044400697,-4,-2,-5,-10,-5,-2,-2,-3
1558441044417649,0,-1,-1,1,5,10,5,-1
1558441044417649,-3,-2,0,0,-1,-5,-6,0
1558441044418645,1,-1,-3,-2,-2,-4,0,1
1558441044418645,-1,-1,0,0,0,-10,-3,-2
1558441044431611,-2,-3,-2,0,-5,-3,-2,-2
1558441044431611,-3,1,2,0,2,6,6,0
1558441044438594,-2,-1,-3,-3,-4,-2,0,2
1558441044438594,1,1,1,2,0,-1,-1,0
1558441044454549,0,2,-3,-4,1,0,0,1
1558441044454549,-1,-3,-3,-3,-3,-1,-2,-6
1558441044460534,2,-2,-1,-2,-3,-4,-5,1
1558441044460534,-3,-3,0,1,-4,0,1,-4
1558441044477496,0,0,2,1,11,4,-1,-4
1558441044477496,2,1,-1,-3,-1,-2,2,2
1558441044478484,-1,-2,-2,-4,1,-1,-1,-2
1558441044478484,-2,0,-2,-2,-4,-7,-3,-1
1558441044491453,-1,-2,-1,-3,0,3,1,1
1558441044491453,-3,-2,1,6,0,-5,-3,-3
1558441044498431,-2,-3,-1,-4,-7,0,-2,-1
1558441044498431,3,0,0,0,4,2,1,2
1558441044514388,2,-1,0,-4,-4,-2,-4,-2
1558441044514388,-1,-2,0,0,0,2,1,-2
1558441044520373,1,0,0,1,3,5,6,-1
1558441044520373,-2,-2,0,-4,-2,-6,-6,2
1558441044537335,-3,0,0,-2,-9,-12,-3,0
1558441044537335,-3,-2,-2,-4,-7,0,1,3
1558441044538325,-2,1,1,3,12,5,1,-3
1558441044538325,-1,1,1,4,6,7,2,0
1558441044551290,1,-2,0,-1,0,-3,-1,0
1558441044551290,-2,-2,-8,-10,-9,-7,-9,-2
1558441044558273,-4,-3,-2,-2,-4,-5,2,0
1558441044558273,-1,-2,-1,1,-6,1,-2,-2
1558441044574287,0,-1,-1,1,7,5,3,1
1558441044574287,1,-2,1,2,5,2,0,-1
1558441044581211,-1,0,-1,-1,-6,1,-4,-4
1558441044581211,2,0,-3,-4,4,4,3,1
1558441044597167,-3,-1,0,2,-3,-5,-3,-1
1558441044597167,-2,-1,-4,-5,-4,-2,-5,-6
1558441044598165,-2,-2,-2,-1,-4,-2,-2,-3
1558441044598165,-1,-3,-2,-3,-3,-2,-3,-1
1558441044620106,0,-3,0,1,0,-1,1,4
1558441044620106,-2,1,2,3,1,1,-3,-2
1558441044621105,-2,0,-2,-1,5,1,-3,-3
1558441044621105,-1,-3,-6,-6,-6,-6,-1,-4
1558441044634070,-2,-2,-2,-2,-8,-5,-5,-4
1558441044634070,-2,-1,2,2,4,3,1,3
1558441044641049,3,-1,-2,-4,-8,-5,-2,1
1558441044641049,-1,-1,-1,1,-5,-1,-2,1
1558441044657008,-2,0,-2,0,14,9,-1,0
1558441044657008,1,-1,2,-1,1,0,2,0
1558441044659003,0,-1,-1,2,-5,-7,-1,-1
1558441044659003,0,0,-2,-2,-4,-4,1,-2
1558441044671966,-3,-2,-4,-5,-9,-6,-3,-1
1558441044671966,2,0,-1,2,8,9,3,3
1558441044677951,-4,0,2,5,3,3,-1,-3
1558441044677951,0,1,0,0,3,-4,1,0
1558441044693908,-1,-1,-2,-2,-7,-4,-4,-1
1558441044693908,-5,0,4,3,1,-1,0,-3
1558441044700890,-3,-2,-1,-7,-8,-6,-2,0
1558441044700890,1,0,-3,-1,2,-4,3,0
1558441044716849,3,-1,2,2,2,2,-1,2
1558441044716849,1,0,-4,-3,0,1,-1,0
1558441044718842,-1,0,0,1,4,6,1,-1
1558441044718842,-3,0,0,-4,-5,-6,-5,-2
1558441044731808,0,-1,-4,1,-6,-8,-4,-3
1558441044731808,0,-2,-2,-5,-8,-4,-3,-1
1558441044737790,1,1,2,2,6,6,4,3
1558441044737790,-1,-1,0,4,8,7,0,0
1558441044753750,-1,-1,-1,-2,-2,1,2,0
1558441044753750,-2,-3,-2,-1,-3,-6,-4,-6
1558441044760729,2,-1,-2,-2,-3,-6,-1,-1
1558441044760729,-5,-2,-1,-6,-9,-2,-5,-6
1558441044776688,-2,1,-3,-3,3,2,-1,-2
1558441044776688,-5,-2,-3,-1,-4,-6,-5,-8
1558441044778681,-2,-1,-2,0,5,4,0,0
1558441044778681,1,-1,4,2,5,-2,3,3
1558441044791649,-2,-2,0,-2,-2,-3,-1,-2
1558441044791649,3,2,0,3,0,0,3,2
1558441044798628,-3,-3,-2,-4,-10,-5,-5,-3
1558441044798628,-3,0,-3,-1,-6,-6,-6,-1
1558441044814586,0,2,1,4,6,4,2,-2
1558441044814586,1,1,3,2,6,-1,2,3
1558441044820569,2,-2,3,1,0,-1,0,2
1558441044820569,1,-1,-4,0,2,8,3,2
1558441044837544,-3,-3,-3,-3,-7,-7,-4,-5
1558441044837544,-2,1,-1,-2,0,1,1,1
1558441044839524,-4,-1,-2,0,0,-2,-3,-2
1558441044839524,-1,-2,-2,0,-3,0,2,-1
1558441044851489,0,0,-1,-1,7,5,-1,1
1558441044851489,0,-2,-1,-4,-2,-4,-1,0
1558441044858470,-3,1,0,-1,-6,-7,-4,-7
1558441044858470,2,1,-3,-1,-2,3,3,2
1558441044874426,2,0,1,-2,3,3,7,7
1558441044874426,-1,-2,-2,0,-5,-3,-3,-5
1558441044880414,0,1,0,-1,1,4,0,-3
1558441044880414,-5,-1,-1,-2,-3,-1,-2,-2
1558441044897390,-4,-2,-2,-1,-5,-6,-2,-1
1558441044897390,-2,-3,-3,-3,1,-1,-2,4
1558441044898364,1,-1,-3,-2,-7,-3,-5,-1
1558441044898364,-1,1,-1,-3,0,0,1,-5
1558441044911325,-3,-2,-1,-2,-4,2,2,-1
1558441044911325,0,0,2,3,5,3,3,1
1558441044919305,-1,-5,-5,-6,1,0,-1,-1
1558441044919305,1,0,1,0,-2,-2,-1,1
1558441044934275,-1,-1,-1,2,-2,2,-4,-1
1558441044934275,-2,-1,-3,-6,-8,-8,-7,-2
1558441044941250,-1,-1,-1,2,0,1,1,-2
1558441044941250,-3,-3,0,4,3,1,0,-1
