timestamp,emg1,emg2,emg3,emg4,emg5,emg6,emg7,emg8
1558439871970641,-1,-2,2,12,-1,-1,-3,-2
1558439871970641,-1,-1,3,-2,1,-2,3,4
1558439871971640,4,1,1,-7,5,-1,1,1
1558439871971640,3,1,-4,8,8,7,5,2
1558439871971640,-5,-4,0,0,-3,-1,-5,0
1558439871971640,-3,-4,-4,-7,-5,1,-2,-4
1558439871972635,-1,-1,0,3,-5,-5,-4,-2
1558439871972635,-1,0,-1,3,-4,-3,-3,-2
1558439871983608,4,3,1,-5,5,3,3,1
1558439871983608,-1,0,-4,-5,-7,-1,-5,-5
1558439871991583,-3,-2,0,8,0,0,0,-1
1558439871991583,-1,0,-2,-2,3,-4,0,4
1558439871999563,-3,-3,-5,-8,1,4,1,-2
1558439871999563,-1,2,2,6,-2,-2,-1,1
1558439872014523,-2,-2,-2,-1,-2,-6,-5,-1
1558439872014523,-2,-1,-1,-8,-4,-1,-5,-5
1558439872021504,0,1,-1,1,-6,-7,-2,-1
1558439872021504,1,-3,0,3,0,2,-3,-3
1558439872028485,0,0,-1,-3,1,-2,-1,-1
1558439872028485,2,3,6,2,5,-4,1,3
1558439872043449,0,-2,-3,1,2,2,2,0
1558439872043449,-1,-2,-3,-2,-2,-4,-2,-1
1558439872052421,-2,-2,-2,-5,-6,0,0,-2
1558439872052421,-1,-2,-1,1,-4,-6,-8,-4
1558439872091317,-3,0,-1,-1,1,7,2,-2
1558439872091317,0,-2,-3,-13,-6,-4,-5,-4
1558439872092315,1,-1,0,4,3,1,7,2
1558439872092315,0,0,2,5,4,4,7,6
1558439872093312,0,2,0,-4,5,1,-3,-2
1558439872093312,-2,-1,-2,0,-1,1,-1,-3
1558439872096305,-2,-1,-2,1,-7,-3,-4,-3
1558439872096305,-1,-3,-5,-6,-5,-2,-4,-5
1558439872103286,-1,-2,-1,-7,-6,-1,2,-2
1558439872103286,0,-2,0,9,-4,-7,-4,-2
1558439872110266,-1,-1,0,-7,-11,-24,-16,-3
1558439872110266,1,3,6,-1,16,14,13,6
1558439872119243,0,-2,-2,5,1,-1,1,1
1558439872119243,-3,-2,1,1,-2,3,2,0
1558439872134217,-1,-1,-4,-5,6,11,4,-1
1558439872134217,-2,-2,-5,-4,-10,-12,-10,-7
1558439872141184,-3,-2,-3,2,-5,-1,-6,-1
1558439872141184,-1,-1,-1,-5,-6,-8,-3,-2
1558439872148165,1,-2,0,0,8,6,5,2
1558439872148165,-2,-1,-2,5,-1,5,2,0
1558439872163125,-1,1,0,-1,1,-3,3,-1
1558439872163125,-1,1,-2,-2,5,3,4,3
1558439872171103,-2,0,-2,-1,-2,3,-2,-6
1558439872171103,-2,-1,1,-1,-4,-5,-1,-2
1558439872180079,0,-1,0,-4,-9,-9,-6,-3
1558439872180079,-3,-3,-3,-2,-9,0,-5,-2
1558439872194043,0,1,1,4,9,3,5,2
1558439872194043,2,2,4,1,3,-10,-1,2
1558439872201024,-1,-1,1,0,2,4,-1,-1
1558439872201024,0,0,1,5,7,1,1,0
1558439872208005,-2,-2,-5,-4,-6,-3,-3,-3
1558439872208005,-2,-3,-4,-7,-8,-2,-4,-5
1558439872222966,1,-1,-2,-1,-7,-7,-2,-2
1558439872222966,0,-1,1,-3,1,8,1,-3
1558439872230943,-1,-4,-3,-2,-2,-1,-2,1
1558439872230943,1,0,0,2,7,1,0,2
1558439872239920,-2,1,-1,0,2,-1,-2,-1
1558439872239920,0,0,1,-1,2,-5,1,2
1558439872253883,2,1,4,0,2,6,4,3
1558439872253883,-4,-4,-6,-2,-8,-3,-5,-4
1558439872260864,-1,-1,-1,-3,-3,-2,-3,-4
1558439872260864,-3,-3,-4,-3,-4,-2,-2,-1
1558439872276822,-3,1,6,3,-3,-9,-4,0
1558439872276822,-1,-2,-1,-2,9,10,2,1
1558439872283804,-1,-3,-3,-1,0,-3,-3,-1
1558439872283804,0,-3,-3,-3,-9,-7,-6,-4
1558439872290783,0,-3,-1,-2,1,-3,-1,0
1558439872290783,-1,0,-2,-3,-4,-3,1,-1
1558439872299759,-1,1,-2,0,4,5,3,3
1558439872299759,0,1,2,0,6,8,5,1
1558439872313722,-2,-3,-7,-6,-10,-4,-3,-5
1558439872313722,-2,-2,-2,-1,-4,-1,-3,-1
1558439872320703,2,0,0,0,5,1,3,1
1558439872320703,-2,2,0,3,4,4,2,1
1558439872328682,-3,-1,-3,-2,-4,1,-2,-3
1558439872328682,-2,-2,-5,-3,-12,-16,-6,-4
1558439872343643,-4,-4,0,-4,-2,1,-2,-2
1558439872343643,1,-1,1,1,-2,2,-2,0
1558439872350625,-2,-2,-2,0,4,1,2,1
1558439872350625,-3,0,3,2,4,3,-1,-1
1558439872359600,0,-2,-2,-4,-3,-1,-2,0
1558439872359600,-2,-2,-5,-6,-4,-12,-6,-2
1558439872373562,-3,-4,-4,-4,-3,7,2,-1
1558439872373562,0,-3,0,-1,8,6,1,0
1558439872380543,-1,2,1,1,4,3,4,2
1558439872380543,-3,-3,-5,-2,-4,-2,0,1
1558439872388523,2,3,1,-2,-2,-6,-3,0
1558439872388523,0,-3,-3,-4,-8,-3,-2,-4
1558439872403483,-2,-3,-2,-3,-5,-2,-4,-3
1558439872403483,0,-1,-1,-2,-4,-7,-5,-1
1558439872410463,1,2,1,1,11,2,1,3
1558439872410463,0,0,4,1,2,3,1,0
1558439872419439,-1,-1,-2,2,1,0,2,-1
1558439872419439,-2,1,2,-3,-4,1,-3,-1
1558439872434399,-2,-3,-2,-2,-5,-1,-4,-5
1558439872434399,0,-1,-4,2,4,-4,-1,2
1558439872440663,1,1,-1,-1,0,2,3,0
1558439872440663,-1,-2,0,1,7,7,3,-1
1558439872456340,-3,-5,-3,-3,-7,-4,-7,-6
1558439872456340,-1,0,-3,-3,-10,-8,-7,-2
1558439872463322,0,0,2,-1,-3,-4,3,0
1558439872463322,1,3,3,4,8,3,5,2
1558439872471300,0,-1,-2,-2,-7,-1,-5,-3
1558439872471300,0,1,2,-1,-4,1,4,2
1558439872479280,0,-4,-2,-2,0,0,-4,1
1558439872479280,0,-2,-1,-1,1,-2,-2,1
1558439872494240,-1,-1,-1,0,4,-3,2,1
1558439872494240,-3,0,-3,-1,-1,1,-3,-1
1558439872501220,-2,-2,-4,-4,-6,-6,-9,-5
1558439872501220,-2,2,1,0,2,4,2,-1
1558439872516180,0,0,4,2,9,8,3,3
1558439872516180,-2,-2,-1,-1,2,4,2,-1
1558439872523162,-3,-2,-1,1,-1,-1,2,-3
1558439872523162,-2,0,-1,-2,-9,-9,-7,-6
1558439872539119,-1,-3,-2,-3,-5,-3,0,-2
1558439872539119,-1,-3,-1,1,4,-8,-2,-1
1558439872541114,0,0,2,0,6,7,6,0
1558439872541114,0,-3,-2,0,-4,-6,-2,-3
1558439872554081,-1,3,0,2,3,8,6,4
1558439872554081,1,0,-2,-3,-7,-1,-5,-4
1558439872561060,0,-3,1,-1,-4,-12,-7,-1
1558439872561060,-1,-3,-7,-4,-4,-5,-5,-1
1558439872576020,0,1,-1,0,5,7,7,3
1558439872576020,0,1,4,2,3,-1,0,-2
1558439872583011,-3,-1,-3,-2,-5,1,-1,-2
1558439872583011,0,-2,1,3,0,1,2,0
1558439872590981,-2,-3,-5,-5,-6,-9,-8,-5
1558439872590981,1,-1,-2,-1,-2,6,1,1
1558439872599957,1,2,5,6,8,-4,2,2
1558439872599957,-2,-3,-1,-2,-5,0,-2,-1
1558439872613920,-1,-3,0,-2,-1,-3,1,-1
1558439872613920,-3,-4,-3,-4,-2,-5,-4,-2
1558439872620901,-4,-4,-4,-1,-7,7,-1,-4
1558439872620901,1,0,0,-3,-3,-6,-5,-1
1558439872636857,1,2,2,2,2,-8,2,0
1558439872636857,-1,-2,1,0,-8,0,1,-1
1558439872642842,-2,0,-2,-1,3,4,0,-1
1558439872642842,-1,-2,3,2,7,9,3,0
1558439872650821,0,-1,-1,0,-5,2,-1,-2
1558439872650821,2,3,-3,-3,-1,-8,-4,-1
1558439872659797,-1,1,-2,0,1,1,0,0
1558439872659797,-1,-2,0,-2,3,9,9,1
1558439872673760,-2,0,-3,1,2,-4,-2,0
1558439872673760,-1,1,1,-3,-5,-5,-2,0
1558439872680741,0,0,-1,-3,-9,-8,-3,-3
1558439872680741,-3,-2,-1,0,1,1,-6,-3
1558439872696697,-2,-4,-1,1,-3,4,2,-3
1558439872696697,2,2,2,1,-3,-13,-6,-1
1558439872703680,-1,1,1,1,8,1,0,3
1558439872703680,1,-1,-2,-1,6,4,4,2
1558439872710660,-4,-3,-1,-4,-7,1,-6,-4
1558439872710660,-1,-4,-3,1,-2,-6,-3,-3
1558439872719637,0,-2,0,-1,-6,1,-4,-4
1558439872719637,0,0,1,-2,1,-3,1,2
1558439872733599,1,0,-1,-2,-7,-2,-6,-4
1558439872733599,-3,-2,-2,-3,-4,-1,0,-2
1558439872740580,0,1,0,1,2,-9,-2,-1
1558439872740580,-2,-4,-7,-5,1,2,0,-1
1558439872756537,-2,-1,1,1,-3,-8,-3,0
1558439872756537,-2,-2,2,-2,-1,1,1,-1
1558439872763519,0,-4,-3,-2,-6,-2,-3,-2
1558439872763519,0,1,-1,1,-2,-5,-3,-1
1558439872770500,-1,0,1,-2,-4,-2,-6,-2
1558439872770500,-3,-3,-4,-2,3,-3,-2,0
1558439872785459,0,1,0,-1,2,4,3,0
1558439872785459,-1,-1,0,1,-5,-3,-3,-3
1558439872793440,1,4,2,-1,8,6,5,4
1558439872793440,-2,-2,-2,-1,-1,7,-2,-3
1558439872800420,1,-1,-4,0,1,-5,0,2
1558439872800420,-3,-1,-1,-1,1,2,-1,-1
1558439872816380,-3,-4,-4,-4,-11,-8,-4,-4
1558439872816380,0,0,-1,1,3,8,4,0
1558439872823359,0,1,-1,-2,-2,-8,-6,-1
1558439872823359,-4,-2,-4,-2,-6,-3,1,-2
1558439872830342,-1,-1,-2,1,7,4,-1,1
1558439872830342,0,0,-2,1,-1,3,0,2
1558439872845300,1,0,3,-1,5,5,6,2
1558439872845300,-1,0,0,-2,-2,-9,-5,-2
1558439872854277,-3,-5,-5,-5,-9,-9,-2,-6
1558439872854277,0,-4,-4,-4,-1,-4,-3,-1
1558439872861258,-4,0,-1,-1,-2,4,0,-2
1558439872861258,-1,-2,1,4,5,4,3,3
1558439872876237,-1,0,1,1,2,2,1,0
1558439872876237,-3,0,-4,-2,-4,-5,-5,-2
1558439872883199,-3,-4,-4,-5,-11,-13,-10,-5
1558439872883199,0,0,0,1,4,3,3,2
1558439872891178,1,0,1,1,4,-1,-1,1
1558439872891178,-2,-2,-1,-1,-3,4,0,-4
1558439872906138,0,0,-3,-1,-3,-3,-3,0
1558439872906138,-2,-2,-2,-5,-4,-3,-2,-2
1558439872914117,2,-1,0,0,3,2,4,2
1558439872914117,-1,2,2,3,1,3,2,0
1558439872921097,-2,-1,1,-3,-8,-2,-5,-4
1558439872921097,-1,-2,-2,-3,-9,-11,-4,-1
1558439872936058,-1,-1,-1,-1,4,-2,1,0
1558439872936058,1,1,-1,3,9,3,3,0
1558439872943039,-2,-4,-4,-1,0,3,0,-3
1558439872943039,-3,-1,-2,-3,-5,-4,-7,-2
1558439872951018,-3,-3,-1,-2,-7,-5,-4,-2
1558439872951018,-1,-1,3,1,2,2,1,1
1558439872966976,-4,-1,1,0,0,-1,-3,-2
1558439872966976,-1,-3,-6,-5,-3,-1,-3,-3
1558439872973956,1,2,6,5,5,4,9,4
1558439872973956,1,-1,-3,-3,-2,-2,-2,-2
1558439872980937,1,-1,1,-2,10,5,5,4
1558439872980937,0,-1,0,1,-3,-4,-5,-2
1558439872996894,0,-1,-4,-5,-7,-9,-9,-6
1558439872996894,-1,0,-1,-1,-1,8,2,-2
1558439873003880,-2,-1,0,2,-4,-1,4,1
1558439873003880,-1,-1,-2,-2,4,3,5,2
1558439873010858,-1,-1,-2,-1,0,-3,-3,0
1558439873010858,-1,-3,-2,0,-4,-8,-7,-1
1558439873025819,-2,-1,-4,-3,-2,4,-5,-3
1558439873025819,-1,0,0,0,-3,5,-1,-4
1558439873034796,-2,1,-2,-1,-3,-2,-6,-4
1558439873034796,0,0,2,1,1,-3,6,3
1558439873041781,3,-1,2,2,8,5,3,2
1558439873041781,2,1,2,1,-1,-4,-1,1
1558439873056807,-2,-1,-8,-3,-2,4,1,-2
1558439873056807,-1,0,-3,-5,-2,-1,-4,-3
1558439873063751,-3,-3,-3,-2,-5,-11,-6,-3
1558439873063751,1,-1,-1,1,-1,-2,-2,-1
1558439873078683,1,1,4,-1,4,-1,1,3
1558439873078683,-2,0,-1,0,3,2,3,2
1558439873085696,2,1,-2,-1,-3,2,2,-1
1558439873085696,-2,-3,1,-2,-3,-5,-2,-4
1558439873101715,-2,-2,-1,-3,-1,3,2,-2
1558439873101715,-2,-1,-1,1,-3,-3,-2,-3
1558439873109597,0,-3,-1,2,1,1,0,-1
1558439873109597,-3,0,-4,-4,-7,-4,-4,-1
1558439873116695,0,-1,-1,-1,-4,-3,-3,1
1558439873116695,2,0,0,-3,2,3,6,1
1558439873123678,-2,-4,-4,-2,-1,-2,1,1
1558439873123678,2,2,1,0,3,5,-1,0
1558439873139616,-3,-4,-1,-1,2,-2,-1,-4
1558439873139616,-2,-3,-3,0,-1,2,-2,0
1558439873145533,0,4,1,-2,-4,-6,-3,0
1558439873145533,0,0,-1,1,1,0,2,1
1558439873162571,-2,-1,1,3,4,6,1,-1
1558439873162571,-3,0,-1,-2,-3,-1,-5,-3
1558439873163453,-2,-4,0,-3,-2,-3,-1,-2
1558439873163453,-1,1,-1,-1,-3,-3,0,0
1558439873176415,-1,-3,-4,-1,-4,-8,-7,-2
1558439873176415,1,0,0,-2,0,-1,-1,1
1558439873183397,-2,-2,1,0,1,6,3,-1
1558439873183397,0,-1,-3,-2,4,1,-4,-4
1558439873198544,-1,-3,0,0,0,-4,-1,0
1558439873198544,1,-2,2,-1,1,0,2,1
1558439873205521,-2,-4,-4,-4,-11,-10,-9,-4
1558439873205521,-3,-1,-2,-1,-1,2,6,1
1558439873222475,2,4,1,2,8,7,7,4
1558439873222475,0,-1,-3,0,0,-3,-2,-3
1558439873223475,1,1,-3,-1,0,-2,-5,-3
1558439873223475,-4,-3,-2,-3,-5,-9,-3,-3
1558439873236443,-2,-3,-5,-5,-8,-4,-3,-2
1558439873236443,-4,-2,3,2,-4,-2,-1,-2
1558439873243421,-1,-1,1,-1,4,2,1,1
1558439873243421,-3,-1,-2,0,6,7,-1,0
1558439873259378,-3,-2,-2,0,-2,2,2,0
1558439873259378,0,0,0,-1,-4,-6,-6,-1
1558439873266359,1,1,0,2,5,3,2,2
1558439873266359,-3,-4,0,-2,-3,-8,-2,0
1558439873282316,0,-3,-3,-2,-3,3,0,-1
1558439873282316,-3,0,0,-1,-2,1,-3,-2
1558439873283313,1,0,1,0,2,-5,-1,2
1558439873283313,-1,0,0,1,-2,-4,0,-3
1558439873296279,-1,0,-2,-4,-4,-5,-5,-2
1558439873296279,-3,-2,-2,-2,-5,3,-2,-1
1558439873303259,-1,-3,-3,-2,-8,-2,-1,-4
1558439873303259,-1,0,2,-1,2,3,-3,-1
1558439873319218,3,2,2,2,10,8,6,1
1558439873319218,0,2,-2,2,6,-4,3,2
1558439873326199,-3,1,0,-2,1,-2,-1,0
1558439873326199,-2,-5,-4,-4,-10,-5,-5,-3
1558439873342155,0,-2,-1,-2,-5,-4,-4,-4
1558439873342155,-2,-1,-1,-1,-2,-3,-7,-5
1558439873343154,-4,-3,-2,-3,-2,3,0,-1
1558439873343154,-1,-2,0,0,-2,-1,-3,-1
1558439873356117,0,2,6,4,6,-8,3,5
1558439873356117,1,-3,-1,-2,5,3,4,1
1558439873363097,0,-1,-1,1,5,4,1,-2
1558439873363097,-1,0,1,1,-3,2,2,-3
1558439873379056,-1,1,-2,-1,-3,-8,-3,0
1558439873379056,-2,-1,-1,-2,-12,-4,-6,-4
1558439873386039,-3,-1,-3,-1,-3,-4,-6,-3
1558439873386039,4,4,1,3,15,8,13,7
1558439873401995,-5,-3,-4,-4,-3,1,-3,-2
1558439873401995,-1,-2,-3,-5,-2,-6,-1,-2
1558439873403989,-2,-1,1,1,-7,-3,-6,-3
1558439873403989,1,-2,1,-1,2,4,4,0
1558439873416959,0,0,-1,-1,-2,0,-4,-4
1558439873416959,-2,-2,-4,-2,0,2,0,-1
1558439873422945,-4,-3,0,0,0,5,-1,-3
1558439873422945,-1,1,0,-2,-7,-10,-6,0
1558439873438897,0,0,-1,0,1,2,4,2
1558439873438897,0,0,0,1,1,2,-3,-1
1558439873445877,0,-3,-1,-1,-1,0,6,2
1558439873445877,-1,0,-1,0,1,-1,-1,0
1558439873461839,-3,0,-3,-2,-3,-3,-5,-2
1558439873461839,-2,-1,-4,-3,-1,-2,1,-1
1558439873463828,0,1,-2,-3,-7,1,-3,-4
1558439873463828,0,1,3,3,5,5,6,1
1558439873475796,-3,-7,-3,-3,-4,-4,-1,0
1558439873475796,1,0,4,2,7,-4,2,1
1558439873484772,-1,-1,-2,1,-3,-5,-3,-2
1558439873484772,-1,-3,-4,-2,-2,4,-1,-3
1558439873498742,-1,-1,-3,-3,1,2,-1,-2
1558439873498742,0,0,0,-1,1,3,4,1
1558439873505975,-1,0,0,-1,-1,-6,-2,1
1558439873505975,-2,-2,-2,-1,-4,-7,-5,-3
1558439873529654,-2,-3,-4,-3,-3,4,2,-3
1558439873529654,-2,-3,-3,-2,-6,-1,-1,-3
1558439873530652,-1,1,-1,-1,4,-4,-4,-1
1558439873530652,-1,0,0,1,2,2,-1,0
1558439873535670,-1,-3,-1,-3,-3,-4,-3,-1
1558439873535670,0,0,-1,-2,-8,-6,-6,-1
1558439873544656,-3,-1,-2,-1,0,3,5,0
1558439873544656,-1,0,-2,-2,3,3,1,-1
1558439873574533,-1,-1,1,0,-1,0,-4,-4
1558439873574533,-1,-1,-1,0,4,3,1,0
1558439873576529,0,-5,-1,0,-1,-5,-5,-1
1558439873576529,-2,-2,-1,-2,-7,-8,-7,-2
1558439873582515,-1,1,2,0,2,3,5,-2
1558439873582515,1,-1,1,0,4,1,-1,-1
1558439873583510,0,1,0,-1,2,6,4,0
1558439873583510,-1,0,3,0,-1,-4,-1,-1
1558439873595479,-3,-3,-6,-7,-12,-15,-10,-3
1558439873595479,0,-2,-3,-2,2,4,5,0
1558439873612432,-1,-1,-2,-1,-2,0,3,1
1558439873612432,-3,-5,-3,-6,-8,-6,-9,-5
1558439873619414,1,1,2,3,5,5,5,4
1558439873619414,-2,0,1,-1,-2,-6,-3,-2
1558439873625396,-3,0,-4,-5,-3,0,-2,-3
1558439873625396,-1,-2,-2,-1,-2,2,2,-2
1558439873642351,-1,2,1,-1,-8,-12,-8,-3
1558439873642351,-1,-2,-1,0,3,-4,-2,3
1558439873643349,1,0,3,2,10,11,7,1
1558439873643349,0,-2,-4,0,2,4,-1,-1
1558439873655317,-1,0,-1,0,-4,3,-1,-2
1558439873655317,-2,0,-2,-4,-11,-8,-4,-4
1558439873664647,-2,0,1,-1,-2,-5,0,-2
1558439873664647,1,0,0,0,2,4,0,1
1558439873694218,0,-1,-1,0,8,11,6,3
1558439873694218,0,-1,-3,-2,-2,0,-1,0
1558439873696212,-3,-1,0,0,-4,-8,-3,-1
1558439873696212,-1,1,0,-2,-1,-7,-2,1
1558439873701195,-2,-2,-2,-1,-7,-8,-7,-2
1558439873701195,-1,1,-1,-2,1,7,3,0
1558439873708179,2,-1,1,3,3,1,1,-1
1558439873708179,-2,-2,-2,-5,-4,-7,-3,-2
1558439873716160,0,2,5,5,10,9,3,1
1558439873716160,0,1,-3,-2,-2,2,-1,-1
1558439873732115,0,-2,-1,-3,-6,-1,-3,0
1558439873732115,-1,0,-1,-4,-7,-2,-3,-4
1558439873739105,-1,-1,-1,-1,0,-3,-1,-1
1558439873739105,-1,-1,4,0,6,3,5,5
1558439873746116,-3,-4,-2,-1,-5,-3,-3,-2
1558439873746116,-1,-2,-2,0,-3,-1,2,-1
1558439873762090,-1,-1,-2,-1,-4,1,-3,-2
1558439873762090,-2,-2,-2,-1,-3,0,-2,-2
1558439873769015,0,-2,-2,-3,-3,-11,-6,-1
1558439873769015,-3,-2,-4,-1,0,-2,4,1
1558439873776044,0,-2,-1,-1,4,5,2,-1
1558439873776044,-1,-2,-2,-3,-1,-3,-3,-2
1558439873784979,0,0,0,0,2,0,-2,-1
1558439873784979,1,-1,1,3,2,0,0,3
1558439873806921,-2,-1,-2,-4,-8,-7,-4,-5
1558439873806921,0,-3,-2,-2,-5,-1,-1,-4
1558439873808909,0,3,2,4,7,5,8,3
1558439873808909,-2,-2,-2,-6,-4,-3,-3,-3
1558439873821880,-1,-1,-1,-1,-4,2,1,0
1558439873821880,-2,0,0,1,-4,-14,-11,-2
1558439873827863,-1,-1,0,-1,5,3,0,0
1558439873827863,0,-1,-1,-1,-3,-3,-3,-2
1558439873851794,0,0,-2,-1,3,6,4,0
1558439873851794,-2,-3,-2,-2,-4,2,-3,-4
1558439873853786,-1,-3,-2,-2,-8,-5,-4,-2
1558439873853786,1,1,3,4,11,12,7,2
1558439873858773,-2,-2,-2,-2,-3,-11,-3,-1
1558439873858773,-2,-2,0,0,1,-1,1,0
1558439873865753,-1,1,0,-3,-1,4,-3,0
1558439873865753,-2,-4,-4,-5,-9,-13,-9,-5
1558439873889689,1,0,-2,-1,1,0,2,2
1558439873889689,2,1,4,1,6,-2,0,0
1558439873890687,-1,0,-2,1,4,0,2,3
1558439873890687,-2,-3,-2,-1,-1,5,-2,-3
1558439873904649,-2,-2,-3,-2,-4,-4,-6,-5
1558439873904649,-4,-1,-4,-5,-7,-9,-4,-4
1558439873905649,-1,-2,-1,-1,-1,4,1,0
1558439873905649,-1,0,-4,0,5,6,4,2
1558439873927600,0,1,3,1,-1,-2,2,3
1558439873927600,-2,-1,0,-1,-6,-3,-4,1
1558439873928586,1,-3,-4,-1,5,5,1,0
1558439873928586,1,1,0,-2,-2,-3,-2,-1
1558439873941561,-2,-1,-2,-1,-3,-4,-1,-2
1558439873941561,-1,-2,-1,-1,0,5,2,-2
1558439873948539,-1,-1,-1,-2,-2,0,0,-2
1558439873948539,-2,-2,0,0,-1,-9,-2,0
1558439873972469,0,0,-1,-2,-2,-3,-3,-2
1558439873972469,1,0,-3,-2,-2,-7,-4,-2
1558439873973467,-1,-1,-2,-3,-4,-5,-1,-1
1558439873973467,2,1,2,1,3,6,4,3
1558439873978453,-1,-4,1,0,3,-3,-2,-2
1558439873978453,-3,-4,-3,0,2,9,2,0
1558439873985439,0,-1,-3,-4,-8,-10,-7,-4
1558439873985439,0,2,0,1,9,9,6,-1
1558439874001396,0,-1,-3,-4,-4,-3,-3,-2
1558439874001396,1,1,1,0,-1,-5,-2,-1
1558439874008377,-1,-4,-1,-1,-6,-7,-5,-3
1558439874008377,0,0,5,1,-1,8,5,2
1558439874024335,1,-1,-2,-2,2,2,1,0
1558439874024335,-3,-1,-3,0,-3,-4,-1,-1
1558439874026327,-2,-1,-3,-2,-6,0,-2,-3
1558439874026327,-2,-5,-5,-4,-8,-15,-10,-3
1558439874047275,-3,-1,2,2,5,7,2,0
1558439874047275,-1,-1,-1,1,3,4,3,1
1558439874048277,-3,0,-2,-1,2,-5,-1,-1
1558439874048277,-3,0,-1,0,-5,-1,-3,-3
1558439874061233,2,-2,-4,-3,-7,-8,-3,-1
1558439874061233,0,-1,1,-3,-3,-3,-4,-1
1558439874068215,2,0,2,2,9,6,5,3
1558439874068215,0,-1,1,2,-1,1,1,-1
1558439874084171,-3,-1,0,-1,0,0,1,-1
1558439874084171,0,-2,-3,0,5,2,-1,1
1558439874086163,-2,-1,-2,0,-7,-1,-3,-2
1558439874086163,-1,0,-2,-1,-1,0,-2,-2
1558439874099133,0,0,-1,-2,-3,3,-1,-1
1558439874099133,-1,1,0,-2,-4,4,2,-3
1558439874106118,-2,-3,-4,-1,-3,-2,-4,-2
1558439874106118,2,2,1,0,9,-7,4,4
1558439874130050,1,-2,0,2,4,2,1,0
1558439874130050,0,1,3,-1,-3,-3,-2,0
1558439874131046,-2,-3,-3,-4,-2,2,-2,-3
1558439874131046,-4,-2,-4,-3,-7,0,-6,-4
1558439874145008,-1,1,1,0,0,-1,-2,0
1558439874145008,0,0,-2,0,-2,-7,-1,1
1558439874146007,-2,-1,-1,-4,-1,-4,-2,0
1558439874146007,0,-1,2,0,0,-4,-3,1
1558439874166953,-2,-1,-1,0,3,3,3,1
1558439874166953,0,-2,-1,-1,4,2,2,-2
1558439874168945,-1,1,1,-1,-2,-3,-2,-2
1558439874168945,-3,0,-3,-2,-5,-2,-6,-3
1558439874181921,-2,-2,-5,-3,-7,-6,-5,-3
1558439874181921,-2,2,-1,-2,-2,5,0,-1
1558439874195874,0,-1,2,2,1,-5,2,1
1558439874195874,1,-2,2,1,6,3,2,2
1558439874204850,0,-2,-4,-2,0,5,2,0
1558439874204850,-1,-3,-2,0,-3,-8,-4,-2
1558439874205846,2,0,-4,0,0,-1,-2,-1
1558439874205846,-3,-2,-1,-2,-8,-1,-6,-6
1558439874218941,1,0,0,-1,2,-1,0,0
1558439874218941,-3,-3,-2,-1,2,5,3,-1
1558439874225794,0,-4,0,-3,-10,-6,-6,-4
1558439874225794,-1,0,-2,-1,3,-12,1,3
1558439874241752,-1,0,3,4,8,7,3,-1
1558439874241752,-1,-2,-2,-4,-6,-7,-5,-3
1558439874248732,-2,0,0,0,2,5,0,0
1558439874248732,-3,-4,-2,-1,0,8,2,-3
1558439874264696,-3,-1,-2,-5,-12,-7,-9,-5
1558439874264696,2,-2,-3,0,1,-2,-1,1
1558439874265686,-1,-3,0,0,5,0,4,1
1558439874265686,-4,-2,-6,-4,-3,-4,0,0
1558439874286628,-2,1,0,-1,3,3,1,0
1558439874286628,-3,-3,-3,-3,-14,-6,-7,-5
1558439874288623,1,-2,-1,0,-4,-4,-2,-3
1558439874288623,2,1,-1,1,8,8,4,0
1558439874301715,-3,-4,0,-4,-7,-11,-7,-1
1558439874301715,0,1,1,1,6,10,1,0
1558439874308570,0,0,0,-2,-3,-4,-2,0
1558439874308570,3,2,0,0,5,3,2,1
1558439874324529,-1,0,0,-1,3,2,3,-2
1558439874324529,0,0,1,-1,-3,-1,1,0
1558439874326522,-2,0,-3,-4,-5,-6,-7,-3
1558439874326522,-4,-4,-2,-4,-14,-5,-12,-7
1558439874339610,-2,-3,-2,-1,-6,-2,0,-1
1558439874339610,3,2,1,-1,7,-10,6,6
1558439874345471,-2,2,1,3,11,9,7,5
1558439874345471,-2,-1,-2,0,-3,-1,-1,-1
1558439874361644,-1,-2,-2,-2,-5,-4,-8,-5
1558439874361644,-3,-5,-3,-4,-5,4,-1,-4
1558439874368549,0,0,-2,0,-2,0,2,1
1558439874368549,0,0,-2,0,4,-6,-1,2
1558439874384580,-1,-4,-6,-5,-1,-6,-3,0
1558439874384580,1,-1,1,3,3,8,3,2
1558439874386369,-1,0,-1,-1,0,6,-3,-5
1558439874386369,-3,-3,-3,-6,-3,-2,1,-2
1558439874398541,-2,2,-1,1,4,2,4,2
1558439874398541,-1,0,1,0,1,-2,-2,-3
1558439874407320,-2,-4,-3,-1,-5,-1,-2,-2
1558439874407320,-2,0,0,-4,-4,0,-1,-1
1558439874421272,0,3,4,-1,-3,-9,-5,1
1558439874421272,-1,-2,-3,2,4,4,1,3
1558439874428261,1,0,1,-1,-1,1,-1,0
1558439874428261,0,-2,1,1,-5,-2,-1,-3
1558439874444209,0,-1,-2,1,0,-4,-3,-1
1558439874444209,-1,1,1,-3,-3,-3,-2,-4
1558439874446203,-1,1,-3,-2,-5,0,0,-4
1558439874446203,0,1,-2,2,1,1,-1,-1
1558439874458172,0,1,4,4,9,5,7,3
1558439874458172,-2,-1,-1,-1,1,-1,-1,-1
1558439874467150,-1,-1,-2,-2,-2,-4,-5,0
1558439874467150,-1,-1,-1,1,-7,2,-2,-3
1558439874481108,0,-1,-2,-3,-9,-11,-5,-3
1558439874481108,0,-2,-2,-1,3,-2,-3,-3
1558439874496234,0,1,2,3,13,13,13,5
1558439874496234,0,-1,3,0,1,2,-2,-2
1558439874505227,-1,-4,-3,-3,-7,-3,-3,-3
1558439874505227,0,-1,-2,-3,-10,-5,-6,-3
1558439874506044,-1,-4,-2,-1,2,-2,-4,-1
1558439874506044,0,1,0,1,1,-5,1,2
1558439874527192,-1,1,1,-2,-1,6,2,0
1558439874527192,-3,-4,-1,-1,-4,-3,-5,-2
1558439874528980,-1,0,-2,-5,-8,-11,-9,-4
1558439874528980,-2,-2,-2,0,1,1,0,0
1558439874541946,0,-2,-1,-2,7,8,2,0
1558439874541946,-1,-1,-2,-1,-4,-1,0,-2
1558439874548236,-1,-1,-1,-2,-3,-6,-1,-1
1558439874548236,-3,-2,-1,0,0,1,-1,-3
1558439874564914,-3,-3,-4,-2,-12,-3,-2,-4
1558439874564914,0,-1,1,-2,2,-5,-1,0
1558439874566006,2,1,1,3,8,-4,2,1
1558439874566006,-4,-1,2,-3,-4,-2,-5,-2
1558439874577884,2,0,-1,-2,2,9,4,0
1558439874577884,-2,0,-1,-1,-1,-3,1,0
1558439874587018,-2,-2,-2,-2,-9,-2,-4,-3
1558439874587018,-2,-1,-2,-4,-11,-7,-6,-3
1558439874602046,0,0,-2,-1,7,9,6,2
1558439874602046,1,0,1,2,7,6,7,1
1558439874608781,0,0,-2,2,3,3,-1,2
1558439874608781,3,1,1,0,3,-1,3,1
1558439874624728,-3,-5,-3,-3,-12,-9,-9,-5
1558439874624728,-1,0,-4,-1,-4,-2,-3,-3
1558439874638975,-2,0,1,0,-2,-3,1,-1
1558439874638975,-1,0,-5,-3,1,-3,-3,-3
1558439874639694,0,-1,-2,1,2,-2,0,0
1558439874639694,-1,-2,1,-1,-2,-2,-2,0
1558439874647666,-1,-1,0,-3,-4,-2,-2,-1
1558439874647666,-3,-3,-5,-1,0,-2,-2,-1
1558439874661626,0,3,2,1,2,-5,-3,0
1558439874661626,-2,0,-4,-1,0,7,1,0
1558439874668609,-2,-4,-3,-4,-7,-2,-4,-4
1558439874668609,2,0,-1,0,-5,-5,-1,-3
1558439874683568,-2,-2,-1,-1,6,0,1,3
1558439874683568,0,1,3,0,5,6,4,2
1558439874690556,-2,0,-1,2,4,-8,-3,-1
1558439874690556,0,-3,-1,-2,3,5,5,3
1558439874698528,-2,-3,-6,-2,-8,-2,-3,-4
1558439874698528,-1,-2,-3,-1,-5,-3,-6,-2
1558439874707502,0,-1,-1,-1,-2,0,-2,-2
1558439874707502,-2,-2,-1,-2,-4,0,-5,-2
1558439874721464,-3,-1,0,-1,0,3,2,-1
1558439874721464,2,3,2,-2,9,2,6,5
1558439874728475,-1,-1,1,-1,0,3,4,0
1558439874728475,2,0,-2,-3,-2,-10,-3,2
1558439874752767,-1,-1,-1,0,-7,-7,-6,-2
1558439874752767,-3,-4,0,1,2,5,-2,-3
1558439874753379,0,-3,0,-1,1,7,5,-1
1558439874753379,-1,1,-1,0,-8,-7,-8,-6
1558439874758369,-3,-6,-7,-4,-1,-5,-3,-2
1558439874758369,2,2,0,2,3,0,4,4
1558439874767345,0,-1,-1,-2,3,-3,-1,-1
1558439874767345,-4,-3,1,-1,5,5,0,0
1558439874781312,0,-2,-1,-2,-8,-5,-5,-3
1558439874781312,-5,-2,-7,-6,-13,-8,-6,-6
1558439874788290,0,-1,-1,1,-4,-6,3,2
1558439874788290,-2,-2,-2,-2,-3,-5,-3,-1
1558439874804250,0,4,3,1,1,2,0,1
1558439874804250,-1,-1,-1,1,6,2,6,0
1558439874811226,-2,3,-2,-1,-2,2,-4,-1
1558439874811226,-1,-1,-2,-1,-1,1,2,2
1558439874827190,0,-1,0,-1,3,2,-3,-1
1558439874827190,-2,-3,-2,-1,-7,-7,-6,-4
1558439874828182,-1,-2,-3,-3,1,3,-1,-1
1558439874828182,0,-1,-1,-2,-4,0,2,-1
1558439874841285,-1,0,1,-1,-7,-3,-6,-4
1558439874841285,0,-3,-3,-1,1,1,-2,1
1558439874848236,-1,0,2,0,4,6,3,3
1558439874848236,-1,-3,-2,3,12,6,4,2
1558439874864085,-1,1,2,2,2,2,4,3
1558439874864085,-3,-3,-5,-5,-9,-5,-6,-6
1558439874871072,1,-2,-2,-4,-10,-10,-8,-4
1558439874871072,-1,0,0,-2,-9,-6,-2,-3
1558439874887033,-1,-1,-3,-3,3,7,4,-1
1558439874887033,-3,-2,-1,0,-2,-4,-6,-3
1558439874889019,2,3,2,2,5,-5,2,4
1558439874889019,0,-3,0,1,2,3,3,0
1558439874901994,-1,-4,-5,-2,-2,-3,0,0
1558439874901994,-3,-1,-1,-3,-10,-6,-5,-3
1558439874915977,-1,-2,-3,-1,0,2,-2,-2
1558439874915977,-1,2,-1,-2,0,-2,-3,-2
1558439874924085,1,-1,0,0,3,2,0,-3
1558439874924085,-3,2,-1,-1,-5,0,-4,-2
1558439874931063,-3,-5,-7,-4,-7,-7,-5,-4
1558439874931063,4,3,4,5,19,10,16,10
1558439874947020,0,1,1,2,2,2,3,1
1558439874947020,1,0,-4,-5,-2,-6,-2,0
1558439874948889,-4,-3,-1,-4,-5,-3,-5,-7
1558439874948889,-4,-5,0,-3,-12,-5,-8,-5
1558439874962099,3,1,1,3,9,4,8,4
1558439874962099,-1,0,0,-1,1,3,1,2
1558439874968976,-3,0,-2,-2,-6,-3,-3,-3
1558439874968976,-1,-3,-5,-3,-10,-8,-8,-5
1558439874983770,-1,-1,2,-2,-2,-12,-6,-1
1558439874983770,2,0,4,2,10,7,8,4
1558439874990774,1,1,-1,0,5,5,2,0
1558439874990774,-1,-1,0,1,3,4,2,0
1558439875007794,-2,-1,-6,-5,-8,-3,-6,-4
1558439875007794,-2,-4,-4,-2,-9,-4,-4,-6
1558439875008699,0,-1,-2,-1,-2,-10,-5,-1
1558439875008699,-1,2,1,-2,-1,3,0,-3
1558439875021947,0,0,0,-1,-5,-1,0,-1
1558439875021947,2,1,5,5,18,9,9,5
1558439875028913,0,0,2,4,9,4,5,2
1558439875028913,-2,-4,-4,-1,-4,-6,-7,-4
1558439875043605,-2,0,-4,-3,-4,-3,-2,-1
1558439875043605,-2,-3,-3,-4,-7,-2,0,-1
1558439875050816,-2,-1,0,-1,0,-3,-2,-2
1558439875050816,-2,0,-1,-1,-3,-6,-5,-1
1558439875067734,-3,-1,0,-1,0,0,-1,-1
1558439875067734,-2,-3,-4,-3,-9,-4,-7,-5
1558439875068548,-2,0,-1,-2,-6,0,-1,-2
1558439875068548,1,-1,-3,1,0,5,4,-2
1558439875082504,-2,-4,-3,-3,-1,-7,-1,0
1558439875082504,3,3,4,5,19,-3,6,6
1558439875088485,-1,-2,-4,0,-2,-2,-3,-1
1558439875088485,1,0,1,-4,3,7,5,2
1558439875103444,-4,-3,-2,0,-8,1,-2,-4
1558439875103444,-1,1,1,1,-4,-2,-2,0
1558439875110425,-1,-1,0,-1,2,6,4,-3
1558439875110425,-2,2,2,1,1,-5,0,0
1558439875126382,0,2,1,-1,-1,-4,-1,-1
1558439875126382,-6,-6,-6,-5,-14,-9,-8,-5
1558439875127380,1,-1,2,-1,1,2,-2,-3
1558439875127380,-2,-1,-3,-3,-4,-2,-2,-1
1558439875142339,-3,0,2,-1,5,2,2,0
1558439875142339,1,-1,-2,-2,-3,-2,-2,-1
1558439875148322,-2,-4,-3,-3,0,4,1,0
1558439875148322,1,-1,0,0,-1,-1,-2,-2
1558439875171616,-1,-1,-1,-2,-2,-2,-5,0
1558439875171616,-2,1,1,-2,-3,-13,-3,-2
1558439875172260,0,-3,-3,-2,-2,-3,-2,1
1558439875172260,0,-3,-2,-1,1,6,3,3
1558439875187249,0,2,0,0,7,6,3,0
1558439875187249,1,2,-1,-2,-2,8,2,-1
1558439875187249,-1,0,1,1,-4,-6,-2,1
1558439875187249,-4,-4,-3,-3,-7,-8,-7,-4
1558439875210158,0,-1,-1,1,4,7,1,1
1558439875210158,-1,-2,-1,-1,0,-6,-2,-1
1558439875211154,0,0,-2,-2,-4,-8,-2,-2
1558439875211154,-2,-1,-1,-2,-4,-2,-2,-1
1558439875223434,0,-1,-2,-1,-3,-4,-6,-2
1558439875223434,-2,-3,-2,-4,-9,-7,-7,-4
1558439875231391,-1,0,0,-2,-3,0,0,-1
1558439875231391,1,-1,-1,0,1,1,-1,0
1558439875247136,3,2,2,4,13,2,6,5
1558439875247136,-3,-2,-3,-2,-1,7,-1,-3
1558439875247136,-2,-2,-2,-2,-3,3,1,-2
1558439875247136,-3,-2,-2,0,-1,-3,-5,-2
1558439875262062,-2,-2,0,-2,-5,-4,-3,-3
1558439875262062,-3,-1,-4,-2,-8,-5,-4,-1
1558439875269002,-1,0,1,-1,1,-4,-1,0
1558439875269002,1,1,-1,2,3,-3,4,-1
1558439875284961,-1,-3,-1,-4,-9,-3,-4,-3
1558439875284961,1,-1,2,2,4,5,3,1
1558439875291165,-3,-3,-2,0,4,-1,-4,-1
1558439875291165,0,-2,-1,-4,1,-5,-4,-1
1558439875306900,-1,0,0,-2,-5,-2,-4,-4
1558439875306900,-2,-2,-1,-1,-8,-4,-4,-5
1558439875306900,0,-2,-2,-1,-3,3,1,-1
1558439875306900,1,0,2,1,4,-2,0,4
1558439875321858,-1,-2,-3,-2,1,3,0,-2
1558439875321858,0,0,-1,0,4,5,5,0
1558439875327843,2,1,0,-1,2,1,1,-2
1558439875327843,-2,-2,-2,-2,-10,-4,-4,-4
1558439875352777,-3,-2,1,-1,-6,-2,-4,-1
1558439875352777,4,3,2,1,9,-12,0,5
1558439875353775,0,0,2,5,11,11,9,4
1558439875353775,-1,0,-2,-2,-1,2,-4,-3
1558439875366937,-3,-2,-6,-4,-11,-8,-6,-6
1558439875366937,-3,-4,-1,-4,-5,3,-1,0
1558439875367949,1,1,-1,1,1,-2,0,2
1558439875367949,2,1,2,3,4,-1,3,1
1558439875390675,-3,-1,-2,-1,1,2,-2,-3
1558439875390675,-2,-1,-2,-4,-6,-5,-4,-4
1558439875390675,0,2,-1,1,-1,2,0,-1
1558439875390675,-2,-4,-3,-4,-3,-5,-6,-3
1558439875404672,0,-2,-1,1,6,-5,2,2
1558439875404672,0,-1,1,1,-2,4,0,-3
1558439875410622,-1,0,3,-2,-4,2,-4,0
1558439875410622,1,1,2,1,3,-6,5,3
1558439875426579,1,-3,1,0,2,0,-1,0
1558439875426579,-2,0,-3,0,0,3,4,-1
1558439875426579,-1,-2,-4,-4,-5,-6,-4,-2
1558439875426579,-1,-1,-3,0,0,9,1,-2
1558439875442536,-1,-1,0,1,0,-2,-2,0
1558439875442536,-1,-3,-1,-2,-2,2,-2,0
1558439875448561,0,-2,-2,-2,0,-3,-2,-1
1558439875448561,-2,-1,-2,-2,-7,-7,-5,-5
1558439875464651,-1,-1,-2,-4,-4,-5,2,0
1558439875464651,0,0,-2,2,6,3,4,2
1558439875471512,-3,0,-1,-2,-6,-8,-6,-2
1558439875471512,-3,-4,-6,-2,-1,2,-3,-2
1558439875486656,0,-2,-1,2,6,12,3,1
1558439875486656,1,1,0,0,1,-3,-1,2
1558439875487420,-1,-1,0,0,-5,-5,-1,-2
1558439875487420,-1,1,0,-2,4,0,1,-1
1558439875502377,-3,-2,-7,-6,-6,-4,-3,-5
1558439875502377,-2,-3,-3,-4,-10,-18,-10,-5
1558439875508398,-1,-2,-2,4,9,11,11,4
1558439875508398,-1,0,2,-1,3,7,4,-1
1558439875524611,-2,-2,-1,-1,-1,1,-2,1
1558439875524611,-4,-1,-1,-3,-3,3,-4,-4
1558439875531451,-2,-2,-2,-3,-8,-2,-9,-5
1558439875531451,-1,-3,0,-2,-5,-7,-2,0
1558439875554449,-1,3,0,0,4,-2,0,1
1558439875554449,-3,0,0,2,-1,0,0,-1
1558439875554449,-2,-2,2,-2,-1,-4,-1,0
1558439875554449,-1,2,0,0,2,4,2,2
1558439875569444,0,0,-1,-2,-4,0,-3,-3
1558439875569444,0,-2,-3,-1,0,2,-3,-2
1558439875569444,1,-1,-1,1,7,1,3,1
1558439875569444,-3,-3,-2,-2,-4,-10,-3,-1
1558439875585155,-2,-1,-3,-1,-3,3,2,-2
1558439875585155,0,-2,-1,-2,-1,9,3,-1
1558439875591357,0,-2,-2,-1,-5,-10,-6,-2
1558439875591357,1,0,4,2,5,4,7,3
1558439875606329,1,3,1,2,6,3,-2,2
1558439875606329,-1,0,0,0,0,5,3,-2
1558439875613320,-2,0,1,-5,-10,-6,-4,-4
1558439875613320,-5,-4,-4,-4,-13,-8,-12,-4
1558439875630283,1,1,3,2,14,8,9,2
1558439875630283,-2,-1,-2,-3,-3,-8,-7,-2
1558439875631033,0,0,-2,1,4,0,2,1
1558439875631033,1,-1,-2,-2,-3,2,0,-2
1558439875644998,-1,-3,-3,-1,-3,1,1,-2
1558439875644998,1,1,1,0,6,1,2,2
1558439875651213,-3,-2,-1,-2,-5,1,-2,-3
1558439875651213,-1,-2,1,2,-2,-6,-4,0
1558439875666150,1,-1,1,0,-2,-3,1,1
1558439875666150,-1,3,1,-1,1,2,4,1
1558439875673953,-3,-2,-4,-3,-2,-4,-3,-4
1558439875673953,1,0,1,0,6,7,5,1
1558439875689103,-2,-1,0,-5,-9,-10,-6,0
1558439875689103,-4,-2,-1,0,0,1,0,0
1558439875689881,-2,-1,-1,1,1,1,-1,-1
1558439875689881,-3,-3,-3,-2,-6,-5,-4,-2
1558439875704841,-1,-4,-3,-3,-3,-2,-4,-5
1558439875704841,1,0,2,6,6,5,7,3
1558439875710822,3,0,2,0,3,0,2,4
1558439875710822,-5,-3,-6,-5,-3,-1,-4,-5
1558439875725779,-2,-3,-2,-1,-7,-6,-2,-2
1558439875725779,0,2,1,0,-3,-7,-4,-1
1558439875732760,0,-1,0,-2,6,5,1,2
1558439875732760,0,1,2,1,2,5,3,0
1558439875748720,-1,1,1,1,-4,-1,-4,-4
1558439875748720,-2,-3,-7,-6,-6,-3,-1,-4
1558439875749722,0,2,2,1,2,-6,2,4
1558439875749722,0,-1,-1,-1,-2,-3,-5,-3
1558439875764674,-2,-2,-3,-5,-5,-2,-1,-3
1558439875764674,-1,-5,-3,1,0,3,-1,-2
1558439875770659,0,0,-2,0,-1,-1,-6,-4
1558439875770659,0,-1,-1,-1,4,4,1,0
1558439875785620,0,1,0,-2,0,-3,1,0
1558439875785620,-1,-2,-1,-2,-7,-1,-3,-4
1558439875793598,-5,-1,-2,-1,-3,2,-5,-3
1558439875793598,1,2,-2,-1,1,-1,0,1
1558439875808556,0,-1,-1,3,3,-2,-2,1
1558439875808556,-1,-3,-1,-2,3,-1,-4,0
1558439875809553,-3,-7,-5,-5,-10,-9,-3,-4
1558439875809553,-2,2,1,0,-4,-4,-2,-1
1558439875824561,-2,-2,-3,1,-1,-1,-1,-1
1558439875824561,-2,-1,-3,-1,-3,3,0,0
1558439875831498,-1,-3,-1,-3,-5,-1,-3,-4
1558439875831498,0,-1,1,-1,-7,-11,-4,-2
1558439875845683,-2,0,-1,0,3,-5,2,3
1558439875845683,-1,0,0,-3,2,1,0,-2
1558439875853668,2,1,-1,-2,0,6,0,1
1558439875853668,-3,-2,-3,-1,-4,2,0,-3
1558439875869577,-3,-3,-1,-4,-11,-10,-8,-2
1558439875869577,0,2,1,-1,6,5,4,2
1558439875869577,0,0,-2,-2,-2,1,1,-2
1558439875869577,-2,-1,-1,0,2,-6,-3,-1
1558439875885354,1,-2,-2,0,5,8,3,-1
1558439875885354,0,-1,4,2,-6,-5,0,-1
1558439875891473,-3,-1,-1,-1,0,-6,4,2
1558439875891473,1,-1,0,1,0,3,0,-1
1558439875906456,-2,-2,-3,-6,-9,-7,-5,-4
1558439875906456,1,2,-3,-3,4,1,0,0
1558439875913501,-1,-2,-1,2,2,3,3,-1
1558439875913501,-1,-1,1,-1,-2,-4,-2,-1
1558439875929240,-2,0,1,1,1,4,1,-2
1558439875929240,-2,-2,-4,-4,-7,-2,-7,-4
1558439875929240,-1,0,0,-1,-5,-6,-4,1
1558439875929240,-2,-3,-6,-1,-2,3,-1,-2
1558439875944194,3,4,2,-1,8,2,4,5
1558439875944194,-3,-2,-1,-1,3,-4,1,1
1558439875951175,-4,-3,-2,-3,-3,-2,-2,-2
1558439875951175,-1,-1,-1,2,0,-2,0,0
1558439875966139,-3,-3,0,-2,-4,-2,-4,-6
1558439875966139,-2,-2,-2,0,3,5,3,-1
1558439875973118,-2,0,-2,1,-4,0,-4,-3
1558439875973118,-2,-1,-2,-4,-2,2,3,2
1558439875989388,1,0,-2,1,-1,1,2,1
1558439875989388,1,-2,-1,0,0,-4,-3,-1
1558439875990071,1,-1,0,0,0,-2,-4,-4
1558439875990071,0,0,-4,-3,1,-1,3,1
1558439876005032,-2,-2,-2,-1,1,3,-2,-2
1558439876005032,-2,-5,0,-2,-4,-4,-6,-2
1558439876011484,0,0,0,-1,5,4,3,1
1558439876011484,-1,-1,-2,-3,-5,-2,-4,-5
1558439876025975,-2,-3,-5,-1,1,2,4,-1
1558439876025975,-2,0,-1,-2,-7,-9,-5,-2
1558439876033146,-1,-2,-4,-2,2,7,1,-1
1558439876033146,0,-1,0,-1,1,-12,-2,0
1558439876049364,1,0,3,1,-2,-6,-5,-2
1558439876049364,-4,-1,-2,-1,-3,-1,-1,-3
1558439876049912,0,-1,-1,-1,2,0,0,1
1558439876049912,2,-1,-1,2,0,4,2,1
1558439876064873,-1,-2,-5,-4,2,6,1,-2
1558439876064873,-1,0,-2,-1,-5,-5,-4,-2
1558439876071183,-2,-1,-5,-3,-7,-1,-5,-4
1558439876071183,-1,-2,-2,-2,0,-4,1,1
1558439876086123,1,0,4,3,4,-5,1,4
1558439876086123,1,1,2,0,5,4,1,-1
1558439876093825,-3,-4,-2,-4,-6,-6,-8,-4
1558439876093825,-3,-2,-1,-3,-6,0,-6,-4
1558439876108755,-1,1,-1,-2,-3,-10,-1,-1
1558439876108755,-1,-1,-1,0,5,5,6,2
1558439876109753,3,0,0,1,2,-1,0,-1
1558439876109753,-1,0,-1,-1,3,5,2,-2
1558439876124711,-4,-1,-2,-1,-11,-4,-6,-3
1558439876124711,-1,-1,-2,-2,0,-6,-4,1
1558439876131002,-2,0,2,1,3,-1,2,1
1558439876131002,-2,0,0,1,-1,3,-1,-4
1558439876145940,-2,-3,-4,-2,-6,0,-1,-2
1558439876145940,-3,-3,-5,-2,-3,0,-4,-1
1558439876153634,0,0,-1,-1,-2,0,0,1
1558439876153634,1,1,3,1,8,-4,3,3
1558439876168895,0,-1,1,-1,4,4,1,0
1558439876168895,-2,-1,0,-2,-7,-1,0,-4
1558439876169592,-1,-1,1,2,2,-2,1,1
1558439876169592,-2,0,-4,-4,-8,-5,-7,-4
1558439876184551,-2,0,-1,0,0,-1,-2,-2
1558439876184551,3,1,1,1,2,6,6,1
1558439876190840,-4,-5,-3,-3,-7,-6,-3,-4
1558439876190840,-2,-1,-1,-2,3,1,-1,-2
1558439876206523,-1,-1,3,0,3,-1,3,4
1558439876206523,0,-2,-1,-1,-2,-6,-3,-1
1558439876213764,0,-1,-2,0,-1,5,-2,-1
1558439876213764,-1,-2,0,-1,-3,-7,-5,-2
1558439876229545,-3,-3,-3,-5,-9,-2,-8,-6
1558439876229545,-1,1,-1,-3,-2,-9,-5,-1
1558439876229545,1,3,0,0,4,3,6,3
1558439876229545,-1,-1,-3,-1,0,6,-1,-1
1558439876245388,0,-3,0,1,4,2,3,0
1558439876245388,-1,-1,1,1,-2,0,3,-1
1558439876250379,-2,-2,-3,-3,-6,-6,-5,-2
1558439876250379,2,-2,0,0,-1,5,3,0
1558439876266566,0,2,-1,-1,0,-3,-1,-2
1558439876266566,-2,-2,-3,-2,1,-4,-4,-3
1558439876273747,1,3,2,3,5,7,5,0
1558439876273747,0,-1,1,-1,-5,-3,-1,-3
1558439876289716,-1,0,0,-2,-2,-1,-4,0
1558439876289716,0,-4,-2,0,1,-4,1,0
1558439876289716,1,2,2,1,8,6,3,2
1558439876289716,0,0,-1,-2,0,6,0,-1
1558439876304708,-1,0,-4,-2,-4,1,1,-1
1558439876304708,-1,-1,-3,0,-2,-3,-5,1
1558439876311505,0,0,1,-2,-5,-6,-4,0
1558439876311505,-1,-1,-1,1,2,0,-2,0
1558439876325175,-1,-3,-1,-1,-1,-1,0,-2
1558439876325175,-2,0,-2,-3,-6,-4,-1,-4
1558439876333616,-4,-6,-2,-2,-5,-1,0,-4
1558439876333616,1,-2,2,2,4,1,0,3
1558439876349407,-2,-1,-3,-4,-4,-2,-6,-3
1558439876349407,0,1,0,0,9,14,9,2
1558439876349407,-3,-3,-2,-3,0,-7,-2,1
1558439876349407,-2,0,0,-2,-5,1,-2,-3
1558439876365071,-1,-3,-5,-1,0,0,0,2
1558439876365071,-3,-1,-3,-4,-10,-11,-12,-5
1558439876371053,2,-1,1,3,0,3,2,0
1558439876371053,-2,-2,-1,-1,6,4,3,-1
1558439876386254,1,1,1,-2,0,2,0,-1
1558439876386254,-1,0,-1,0,-3,-4,-4,-3
1558439876392994,-1,-1,-6,-3,1,-2,-1,0
1558439876392994,1,-1,0,0,-2,-1,-1,0
1558439876408951,0,1,3,1,3,4,4,-1
1558439876408951,-1,-3,-1,-2,-2,-2,1,1
1558439876409956,0,-3,-1,-3,0,-2,1,-2
1558439876409956,-1,-1,-4,-1,-1,-3,-2,0
1558439876424909,-1,-2,0,0,-2,1,2,-2
1558439876424909,1,0,2,-1,-3,-9,1,2
1558439876431147,-1,1,-1,0,1,2,-3,-3
1558439876431147,-3,-1,-4,-1,0,0,0,-1
1558439876446112,0,-3,-2,-3,-7,-6,-5,-3
1558439876446112,0,0,0,1,4,6,4,3
1558439876453918,-1,0,-5,-1,-2,-5,-5,0
1558439876453918,-3,-2,-2,0,-2,0,3,-3
1558439876468798,-2,-2,-3,-2,-2,-3,-3,-3
1558439876468798,-2,-5,-4,-3,-4,2,-1,-3
1558439876469790,0,-2,2,0,-5,-9,-5,-1
1558439876469790,1,1,1,0,3,-3,0,3
1558439876484753,0,0,-2,-1,2,-1,-1,-4
1558439876484753,0,2,2,1,1,4,0,-2
1558439876491000,-1,-1,-1,-2,0,-4,1,-2
1558439876491000,0,0,0,0,0,3,6,2
1558439876505955,-2,-1,-1,-1,-1,-5,0,0
1558439876505955,-2,-3,-2,-1,-1,-1,-5,-3
1558439876513908,-3,-4,-2,-4,-6,4,-3,-4
1558439876513908,-2,-3,0,-4,-6,-2,-5,-5
1558439876528884,3,3,5,5,12,4,3,5
1558439876528884,1,-1,-3,-3,4,0,2,2
1558439876535875,-2,0,-3,-3,-10,-8,-4,-4
1558439876535875,0,-2,-4,-2,-5,-5,-5,0
1558439876544589,1,0,2,-1,5,1,3,1
1558439876544589,-3,0,-2,0,4,6,3,-1
1558439876550825,0,-2,1,-1,1,7,2,-1
1558439876550825,-1,1,1,-2,-15,-26,-9,-4
1558439876566529,-1,-1,-1,0,-2,-1,-4,0
1558439876566529,0,0,6,3,10,7,2,3
1558439876573514,0,1,0,-1,-5,0,-4,-3
1558439876573514,-3,-5,-5,-2,0,5,2,0
1558439876588736,-1,2,-1,-2,-1,-9,-1,1
1558439876588736,-1,0,1,3,0,-4,-2,-1
1558439876595452,1,0,-2,-1,5,2,2,2
1558439876595452,0,-2,-1,-2,1,1,-2,-1
1558439876604428,-1,-2,-3,-2,-2,6,1,-3
1558439876604428,-2,-3,-3,-3,-7,-4,-6,-5
1558439876610411,-4,-1,-1,-3,-4,-6,-3,-3
1558439876610411,-3,-2,-5,-2,-3,1,0,-2
1558439876625372,1,1,1,1,5,2,6,2
1558439876625372,0,-1,0,-4,-3,2,-1,-2
1558439876633388,-2,-1,-3,-3,1,2,0,-2
1558439876633388,-2,-1,1,1,2,-1,-2,0
1558439876648311,-3,-2,0,-2,-8,-3,-6,-3
1558439876648311,1,-1,-2,-3,-1,3,-3,-2
1558439876656606,2,-3,-1,2,1,-10,3,2
1558439876656606,-1,1,0,-1,2,4,1,-2
1558439876664746,-4,-3,-4,-6,-12,-3,-3,-5
1558439876664746,0,0,-1,-3,3,-1,6,4
1558439876670687,-2,-2,-1,-1,2,-2,-7,-1
1558439876670687,-3,-1,-1,-1,1,2,1,0
1558439876686424,-1,-3,-3,-2,-6,-7,-4,-4
1558439876686424,-3,-3,-5,-2,-9,-7,-7,-4
1558439876693190,-1,-1,-1,0,2,6,5,4
1558439876693190,3,1,0,1,6,2,2,1
1558439876708329,-3,-1,1,1,-4,3,-3,-3
1558439876708329,-4,-1,-3,-1,0,-4,0,1
1558439876716460,1,2,2,0,3,-7,-2,0
1558439876716460,0,-2,-3,-1,-4,-1,-3,0
1558439876732117,0,-1,0,-1,0,6,4,-1
1558439876732117,-3,0,-1,-1,-3,-1,-3,-2
1558439876732117,-1,-1,0,-3,-5,-7,-3,-2
1558439876732117,-4,0,-5,-3,-5,-4,-4,-2
1558439876746390,0,-1,-1,3,9,6,4,3
1558439876746390,-1,-2,-2,-1,-1,-3,-6,-5
1558439876753355,-1,0,0,0,1,7,4,-2
1558439876753355,0,-3,0,0,-6,-5,0,0
1558439876768335,1,1,-1,-2,0,-3,-3,1
1558439876768335,-3,-1,-2,-1,-2,1,-1,0
1558439876775972,-4,-4,1,1,-2,-3,-2,-2
1558439876775972,2,0,1,-2,5,-1,0,-1
1558439876790928,-3,0,1,0,-1,-2,0,-2
1558439876790928,-1,-3,-2,0,0,-1,1,1
1558439876791925,0,1,-2,-2,-7,-5,-2,-2
1558439876791925,0,-3,1,-1,-1,-3,1,-1
1558439876805922,-1,-3,-2,0,-1,-3,-1,-2
1558439876805922,0,-1,-5,-3,-4,3,-2,-2
1558439876812870,0,0,-2,1,6,5,4,2
1558439876812870,-1,1,2,-3,-2,-5,-5,-3
1558439876827829,-2,-5,-4,-3,-4,-2,-1,-2
1558439876827829,-1,0,2,-1,-4,-5,-1,1
1558439876835808,-3,0,-1,0,2,2,-2,-3
1558439876835808,0,0,-2,1,-1,-1,-2,0
1558439876851765,-1,-1,2,0,4,4,2,0
1558439876851765,1,0,0,-2,-2,-2,1,0
1558439876851765,-1,-3,-4,-2,-6,-1,-6,-2
1558439876851765,-3,0,0,-1,-3,-1,-2,-2
1558439876865733,-3,-1,-5,-6,-8,-11,-8,-4
1558439876865733,0,1,4,5,9,6,7,1
1558439876872710,0,-1,-1,1,5,0,-1,3
1558439876872710,-2,-3,-2,0,2,5,-1,-1
1558439876888668,1,-1,-2,0,2,1,1,1
1558439876888668,-3,-1,0,2,-1,-1,0,-2
1558439876895651,-1,-1,-1,-4,-3,-1,0,-4
1558439876895651,-1,1,0,-2,-2,-1,3,0
1558439876911607,-1,0,0,0,-1,-6,-3,0
1558439876911607,-3,-3,-3,-3,-11,-5,-8,-4
1558439876911607,-1,2,2,0,2,5,5,1
1558439876911607,-2,-3,-2,-1,-2,2,-1,-3
1558439876925569,1,1,3,4,3,4,5,2
1558439876925569,-1,-2,-3,-4,-2,-2,-3,-1
1558439876933549,0,-1,-6,-8,-10,-5,-8,-6
1558439876933549,-5,-5,-1,0,-1,-3,0,-1
1558439876948507,1,3,2,-1,1,-4,-1,2
1558439876948507,2,1,2,2,4,3,3,1
1558439876955489,1,0,2,3,7,7,3,2
1558439876955489,0,-1,-4,-3,-4,-1,-4,-2
1558439876971452,-3,0,-1,-5,-9,-2,-5,-4
1558439876971452,-2,0,-3,-3,-2,-11,-4,-1
1558439876972444,-3,-4,-4,-1,-4,-3,-3,0
1558439876972444,1,0,0,0,1,-4,-2,1
1558439876985412,-1,-1,-4,-1,2,-1,-1,-1
1558439876985412,-2,-2,-2,-1,-6,-1,-1,-3
1558439876993394,-2,-1,0,-3,-9,-6,-3,-5
1558439876993394,-1,-1,-2,0,2,5,5,2
1558439877008354,-1,-2,0,1,0,4,0,1
1558439877008354,0,-1,-1,0,4,-8,-1,1
1558439877015329,1,-1,0,-1,5,4,3,1
1558439877015329,-2,-1,1,-1,-6,0,-2,-3
1558439877031285,-2,-3,-6,-1,-3,0,-4,-5
1558439877031285,0,-1,-1,-1,-2,0,2,2
1558439877032282,-1,-1,-1,1,1,-7,-1,-1
1558439877032282,0,1,0,2,8,10,6,3
1558439877046250,2,-3,-1,-5,1,-3,-4,-1
1558439877046250,2,1,1,1,2,2,0,0
1558439877053233,-3,-3,-6,-4,-9,-6,-4,-3
1558439877053233,-1,-2,0,-1,-2,-6,-3,-1
1558439877068193,0,0,0,1,3,0,3,-1
1558439877068193,-3,-3,-4,-2,-2,1,0,-3
1558439877076184,0,-3,-3,-2,-2,-3,-4,-2
1558439877076184,1,3,0,0,1,-1,-2,-1
1558439877091126,-4,-3,-3,-2,-4,0,-1,-2
1558439877091126,-3,-3,-3,-2,-4,4,-2,-4
1558439877092125,1,2,2,2,3,-4,5,5
1558439877092125,-2,-3,-4,-3,-5,-14,-7,-3
1558439877106085,0,-1,-2,2,1,4,0,-1
1558439877106085,-2,-2,1,-2,0,-2,1,2
1558439877113067,-1,0,0,0,2,4,1,0
1558439877113067,0,-1,-1,1,5,6,4,0
1558439877128030,0,2,4,3,3,1,2,2
1558439877128030,0,-2,-3,-4,-2,3,-2,-2
1558439877136006,-2,-4,-4,-3,-7,-6,-6,-5
1558439877136006,1,-1,-1,0,-7,-8,-4,-1
1558439877150972,-3,-4,-5,-4,-6,-6,-5,-6
1558439877150972,-2,0,3,0,-5,-4,-5,-3
1558439877151967,-1,1,1,2,7,7,2,1
1558439877151967,0,2,2,1,6,8,4,2
1558439877166924,-3,0,0,0,1,-4,-1,1
1558439877166924,1,-4,-3,-2,-1,-3,-3,-1
1558439877172908,-1,-4,-6,-2,-7,-1,-2,-2
1558439877172908,0,0,2,-1,0,-1,-3,-1
1558439877187867,-2,-1,-4,-2,-7,-9,0,2
1558439877187867,1,3,1,-1,-4,-2,-2,-1
1558439877195846,-3,-1,0,-2,4,9,7,-1
1558439877195846,3,2,1,2,5,1,0,0
1558439877211803,1,2,2,2,5,3,2,2
1558439877211803,-1,-2,-1,-1,-3,-12,-9,-5
1558439877211803,-1,-1,2,-2,-1,5,-1,-2
1558439877211803,-3,-5,-4,-4,-8,0,-1,-3
1558439877226764,0,-2,-2,-2,-6,-19,-6,0
1558439877226764,0,-2,-2,0,4,5,4,3
1558439877232770,-1,1,0,1,1,0,-2,-1
1558439877232770,-3,-3,-6,-4,-8,-3,-4,-5
1558439877247982,1,1,0,-3,3,3,2,0
1558439877247982,-1,-3,1,0,3,3,2,-1
1558439877255903,1,-2,-2,-2,2,-4,-4,-1
1558439877255903,-1,0,1,-1,5,-1,4,1
1558439877271868,-2,-5,-4,-3,-14,-5,-8,-6
1558439877271868,-2,-1,-2,-1,1,5,6,2
1558439877271868,1,1,2,2,3,2,2,1
1558439877271868,0,0,-1,-2,-2,-3,-2,-1
1558439877286833,-1,-1,-3,0,-3,-1,-2,-3
1558439877286833,3,-4,-4,-1,3,2,-4,-3
1558439877292822,-2,-1,-1,-2,-5,-5,1,1
1558439877292822,1,2,1,2,8,7,4,0
1558439877307765,0,-3,-1,1,4,4,0,2
1558439877307765,-3,0,0,-3,-7,-11,-4,-2
1558439877315743,-3,-1,-2,-4,-12,-9,-7,-5
1558439877315743,0,0,0,0,8,7,5,3
1558439877331705,-1,0,-1,3,12,10,7,2
1558439877331705,-1,-3,-2,-1,-5,-2,-3,0
1558439877331705,0,-2,-2,-2,-2,-2,-1,0
1558439877331705,-3,-3,-1,-2,-9,-8,-6,-4
1558439877346660,-1,-3,-1,-5,-4,-2,-1,-2
1558439877346660,0,2,3,0,3,-1,1,3
1558439877352709,-1,0,-2,-1,-5,-1,-2,-2
1558439877352709,-2,-4,-5,-4,-7,-3,-10,-6
1558439877369606,0,2,3,3,8,14,12,4
1558439877369606,-1,0,-2,0,-1,-10,-2,-2
1558439877375589,-1,0,2,2,6,10,6,1
1558439877375589,0,-3,-3,1,3,-2,0,-1
1558439877391541,-4,-4,-3,-5,-7,-5,-11,-3
1558439877391541,-2,0,2,0,-3,5,4,0
1558439877391541,1,0,-2,-1,-3,-6,-2,-1
1558439877391541,0,-1,1,-2,-6,-7,-3,-1
1558439877407497,-1,-3,-3,1,1,0,2,0
1558439877407497,-1,1,-1,0,3,5,-3,-1
1558439877413481,-2,-1,-2,-1,-3,-2,-4,-1
1558439877413481,-1,1,0,1,2,-3,2,2
1558439877428441,-2,-2,-2,-1,-8,-10,-8,-5
1558439877428441,0,-1,-1,-3,-6,-6,-4,-3
1558439877435422,-1,-2,-2,-2,2,0,3,-1
1558439877435422,-1,-1,0,0,-6,-4,1,-1
1558439877450417,-4,0,-3,-1,-2,6,-2,-2
1558439877450417,-2,-1,-2,1,5,4,5,1
1558439877458363,4,1,2,2,4,-4,-2,1
1558439877458363,-2,-3,-3,-2,1,-2,-2,-1
1558439877467339,-1,2,0,-1,-2,-4,-2,-2
1558439877467339,-3,-2,-1,-1,-8,-5,-5,-3
1558439877473322,-2,0,-1,1,-1,5,1,0
1558439877473322,-1,-2,-2,-3,-1,1,0,0
1558439877488311,2,-3,-2,-2,-6,-1,-3,-3
1558439877488311,1,-1,-1,1,4,-5,1,3
1558439877495264,-4,-2,-1,-1,1,2,1,-1
1558439877495264,-1,0,0,-1,0,-4,-3,1
1558439877512216,0,1,1,-1,-6,-7,-5,-2
1558439877512216,-1,-2,1,-4,-8,-5,-6,-2
1558439877518299,0,-2,-2,0,-2,-2,-3,1
1558439877518299,-3,-2,-7,-5,-5,1,-1,-2
1558439877527177,-1,-1,-1,1,0,1,1,-2
1558439877527177,0,1,1,0,9,11,7,3
1558439877533161,-1,-3,-4,-2,3,-8,-2,-2
1558439877533161,0,-1,0,0,-1,4,0,0
1558439877548122,0,0,-1,-4,-4,-6,-4,-2
1558439877548122,0,-1,-1,-3,-5,-5,-4,-5
1558439877555285,-3,-2,0,0,0,5,0,1
1558439877555285,0,0,-3,-3,-4,-9,-1,0
1558439877571073,-2,-2,2,-1,7,6,4,2
1558439877571073,0,-1,1,1,2,9,3,3
1558439877578040,-3,-4,-2,-2,-6,-7,-10,-5
1558439877578040,1,1,1,-3,-3,-13,-6,-2
1558439877587016,1,1,1,1,3,4,3,1
1558439877587016,-4,-1,-4,0,0,-3,-4,-4
1558439877593013,0,2,4,0,-2,-3,2,-1
1558439877593013,-1,2,3,1,-2,9,2,0
1558439877607960,-2,-4,-3,0,1,-3,-3,0
1558439877607960,1,-2,1,2,4,6,5,2
1558439877615975,3,0,-2,-1,1,5,-1,1
1558439877615975,-3,0,1,1,-5,-2,1,-2
1558439877631085,-2,-3,-2,-3,2,-4,2,0
1558439877631085,-1,-1,0,0,3,2,-1,1
1558439877637882,-4,-1,-1,-3,-8,-6,-5,-5
1558439877637882,1,-2,-2,0,-2,-4,-3,-2
1558439877654129,-2,2,2,-1,0,-5,0,1
1558439877654129,-1,-2,-3,-1,2,3,1,0
1558439877654836,-1,-3,-2,-2,-3,-1,-4,-3
1558439877654836,2,-1,-3,-1,1,1,0,1
1558439877667968,0,2,1,-1,-2,-2,0,0
1558439877667968,-1,-2,-1,-1,-5,-3,-5,-4
1558439877675783,-2,0,3,0,0,0,2,-2
1558439877675783,-4,-6,-8,-5,-1,-3,-4,-2
1558439877690739,1,3,2,-1,0,0,-1,0
1558439877690739,-1,-3,-3,-3,-1,-3,-2,-1
1558439877697888,-1,1,-1,-1,0,2,-3,-1
1558439877697888,0,1,5,3,5,5,6,4
1558439877713679,-2,0,-4,1,0,-2,-2,0
1558439877713679,-2,-4,-7,-6,-9,-3,-3,-4
1558439877714675,-2,-1,-4,-3,-8,-6,-2,-2
1558439877714675,-4,-4,-2,-1,-3,-6,-7,-4
1558439877728646,0,0,1,0,1,-3,-2,1
1558439877728646,0,-1,1,1,-1,-4,-2,-2
1558439877735619,-1,-1,-3,-3,-1,4,2,-2
1558439877735619,0,1,1,0,3,4,-3,-3
1558439877750583,1,-3,-1,-2,1,4,8,2
1558439877750583,-4,-2,-3,-2,-5,-2,-2,-3
1558439877758560,-2,-2,-1,0,0,-10,-1,2
1558439877758560,-4,-3,-4,-3,-6,-1,-3,-3
1558439877773739,-3,-3,-3,-3,-4,1,-2,-3
1558439877773739,2,3,1,3,8,-5,-4,3
1558439877774515,-2,-2,-3,-2,-1,-1,-1,-2
1558439877774515,1,1,3,3,2,5,0,1
1558439877788541,-2,-4,0,-2,-1,-2,1,-2
1558439877788541,0,2,0,0,1,1,2,-1
1558439877795461,0,0,3,0,0,2,-1,0
1558439877795461,1,-3,-5,-2,-3,-2,-4,-1
1558439877810419,0,-1,-3,-1,-1,-1,-4,-2
1558439877810419,-3,0,-1,-2,-5,-1,-5,-3
1558439877826377,-2,0,0,0,-3,-2,0,0
1558439877826377,-1,-3,-2,1,7,1,4,1
1558439877833358,0,-1,-1,1,4,-1,3,2
1558439877833358,-1,-1,-1,-2,-5,-3,-2,-2
1558439877834355,-3,-2,-1,0,0,4,1,-5
1558439877834355,-1,-2,1,-1,-3,2,2,-2
1558439877848318,-3,-2,-6,-5,-7,-9,-8,-3
1558439877848318,-2,1,1,2,1,-1,3,3
1558439877855300,1,2,0,1,4,6,3,1
1558439877855300,-2,1,-1,-1,-9,-3,-5,-5
1558439877870274,-1,-1,0,1,9,1,-1,1
1558439877870274,-2,-4,1,2,-4,-4,-2,-1
1558439877878458,-1,-3,-4,-3,-1,-2,0,1
1558439877878458,-3,-2,-1,-3,-2,0,2,-2
1558439877894195,-2,-2,-2,-4,-10,-3,-5,-4
1558439877894195,0,-1,-1,0,-2,0,-2,-2
1558439877894195,-1,-1,-3,-3,-4,-2,-6,-1
1558439877894195,-1,2,0,0,-3,-6,-3,1
1558439877908159,-1,-1,-2,1,4,5,4,2
1558439877908159,1,3,4,2,12,3,5,2
1558439877915141,-1,0,3,2,5,5,4,2
1558439877915141,-3,0,-3,-2,-1,0,-3,-2
1558439877930102,-2,1,2,0,-6,2,-1,-2
1558439877930102,0,-4,-3,-4,-10,-6,-5,-4
1558439877938079,1,-2,-6,-3,3,-1,-5,-1
1558439877938079,-1,-2,0,3,6,-6,4,3
1558439877954036,0,0,2,0,0,-3,-1,1
1558439877954036,-1,-1,-1,-2,-1,-1,-2,-5
1558439877954036,-1,0,1,1,3,-2,1,0
1558439877954036,1,0,-1,-2,0,6,2,0
1558439877968007,0,1,-3,-2,-5,-4,-5,-2
1558439877968007,-2,-5,-3,-5,-8,-5,-3,-2
1558439877975988,1,1,2,-1,-4,-5,-4,-2
1558439877975988,1,0,1,-2,4,4,5,2
1558439877990939,0,0,1,2,3,5,5,0
1558439877990939,-1,-1,-4,0,3,5,1,0
1558439877997921,-3,-4,-5,-3,-7,-11,-8,-4
1558439877997921,0,-1,-1,-2,-1,-7,-7,-2
1558439878013876,-2,0,1,0,-2,0,1,1
1558439878013876,1,1,1,-1,-2,4,1,1
1558439878014873,-2,-4,2,0,3,2,3,0
1558439878014873,-2,-4,-2,0,-6,0,-1,-5
1558439878027840,2,-2,1,-2,-2,-7,-4,-1
1558439878027840,-1,-3,-2,0,9,7,6,3
1558439878035817,-1,-1,-3,-2,-7,-5,-3,-1
1558439878035817,-2,2,0,0,-3,2,-2,-1
1558439878050777,0,-1,-2,-1,0,-1,-2,-1
1558439878050777,-1,0,-2,0,-2,-1,0,0
1558439878057759,0,-1,-4,-2,-7,-3,-3,-4
1558439878057759,0,-1,1,0,6,-2,3,3
1558439878073714,-3,-1,-3,0,0,0,-3,-4
1558439878073714,1,-2,0,0,-1,-1,0,-1
1558439878074718,-1,-2,-2,-1,2,3,2,-1
1558439878074718,-1,-2,-4,-4,-7,-6,-7,-5
1558439878087677,-2,-2,1,-1,0,1,-1,-2
1558439878087677,-1,-2,-2,0,-5,-1,-1,0
1558439878095656,-2,0,4,3,7,-4,3,3
1558439878095656,-3,-4,-5,-4,2,2,2,-2
1558439878110619,1,1,-1,0,-3,-3,-4,-2
1558439878110619,-5,-5,-5,-3,0,-8,-2,-3
1558439878117599,-1,0,-3,-3,-1,7,5,0
1558439878117599,-2,0,4,2,-6,-5,-3,0
1558439878133564,-2,-4,-4,-1,6,12,3,-1
1558439878133564,-1,-1,1,1,-5,1,-1,-1
1558439878134552,1,2,-2,0,1,-16,-5,2
1558439878134552,-2,-1,0,-1,2,1,1,0
1558439878148515,-1,0,0,-4,-4,-5,-1,-2
1558439878148515,0,0,-1,-3,0,3,-1,-1
1558439878155496,-2,-4,-1,-1,-3,0,-5,-1
1558439878155496,-2,-2,-1,-1,-4,5,-2,-1
1558439878170456,0,0,2,0,1,-2,-1,0
1558439878170456,-1,1,-1,0,2,-5,1,0
1558439878178434,1,0,-3,-5,-1,4,-1,-3
1558439878178434,1,0,0,-1,2,2,2,1
1558439878193400,-1,0,0,0,0,-3,0,-1
1558439878193400,-2,0,-3,-1,-5,-4,-3,-1
1558439878194396,-2,-1,-1,-4,-5,0,-1,-3
1558439878194396,-1,-2,-3,-2,-2,-3,-3,-2
1558439878208358,1,0,1,0,-2,3,1,0
1558439878208358,-2,0,-2,-2,1,-3,1,0
1558439878224313,0,-1,-3,-2,0,-1,-1,-2
1558439878224313,-1,-1,-2,-1,-4,-5,-2,-1
1558439878230297,0,-3,-4,-3,-4,-3,-3,-3
1558439878230297,0,1,1,0,0,4,-1,-2
1558439878238275,-1,0,-1,-2,0,-4,-4,-1
1558439878238275,3,1,1,3,10,7,7,5
1558439878262221,-2,-3,-5,-3,-6,-2,-3,-2
1558439878262221,-2,-2,2,-1,-4,3,-3,-4
1558439878263209,-2,-3,-1,-1,-4,0,-1,-2
1558439878263209,-1,-1,-4,-4,0,-8,-2,-1
1558439878268200,0,2,-3,-1,-1,-5,-7,-2
1558439878268200,-1,-1,-3,-2,-6,-8,-3,-1
1558439878276177,-3,0,2,3,5,13,9,2
1558439878276177,0,0,1,1,2,4,1,0
1558439878290153,-4,-3,0,0,-1,-3,2,0
1558439878290153,0,0,2,1,-2,-3,-5,-3
