timestamp,emg1,emg2,emg3,emg4,emg5,emg6,emg7,emg8
1558439966197198,0,-2,-2,-10,-4,1,-1,-3
1558439966197198,0,1,-1,7,-2,-1,-3,-3
1558439966199195,-2,0,1,1,-3,-4,-5,-1
1558439966199195,-3,-6,-4,-8,-3,-3,-1,-6
1558439966201187,1,-2,-3,1,2,1,1,-1
1558439966201187,-1,-3,-3,3,-5,-8,-1,-2
1558439966202185,0,-2,-2,-5,-2,4,-2,-2
1558439966202185,0,2,1,-2,5,1,-1,1
1558439966210163,-1,0,-1,5,1,0,3,3
1558439966210163,-2,-1,1,-5,-5,-2,-3,0
1558439966218142,1,1,-2,-5,0,1,-1,-1
1558439966218142,2,0,0,6,-4,0,-2,-1
1558439966226120,-1,-4,-1,1,0,-1,-4,-2
1558439966226120,-2,-1,-2,-7,-1,0,3,-1
1558439966241081,0,-2,-1,-1,-5,-9,-2,-1
1558439966241081,-1,0,3,5,3,-2,0,3
1558439966248063,-3,-2,-2,-4,2,-3,-2,-1
1558439966248063,2,-2,-1,-3,3,3,-2,-1
1558439966256042,-1,-2,1,2,-4,-1,-2,-2
1558439966256042,-1,1,1,-4,-3,1,-1,-1
1558439966271003,-4,3,1,-5,-9,-5,-6,-3
1558439966271003,-1,-5,-4,-3,-6,-13,-9,-1
1558439966278979,0,2,-1,3,5,5,8,3
1558439966278979,1,-1,1,-2,7,3,3,3
1558439966316878,0,2,0,-1,2,-1,0,2
1558439966316878,-1,-2,-3,-12,-7,-8,-5,-5
1558439966324857,0,1,0,8,7,4,5,3
1558439966324857,-1,3,2,-1,-11,-15,-8,-3
1558439966325853,0,-1,-2,-6,1,1,4,0
1558439966325853,1,1,3,2,11,2,4,4
1558439966326851,-3,-5,-2,0,-3,-1,-3,-4
1558439966326851,-1,-1,2,-4,0,-1,3,0
1558439966346797,-2,-4,-5,-5,-8,-9,-10,-8
1558439966346797,0,0,-1,8,-3,-4,0,-1
1558439966347795,-3,-4,-3,-7,-4,-7,-7,-1
1558439966347795,-1,-5,-1,-7,0,2,-2,0
1558439966352781,-2,2,-1,5,5,13,6,1
1558439966352781,-1,1,0,1,-2,-2,0,-1
1558439966367743,-1,0,-4,-7,-2,-1,-2,-2
1558439966367743,0,-1,-5,-1,-10,-6,-5,-6
1558439966374723,-2,-3,-3,1,0,-2,-3,0
1558439966374723,-2,-5,-4,-5,-2,1,-2,-2
1558439966383699,2,-1,2,1,7,10,9,4
1558439966383699,0,1,3,5,5,-2,-2,3
1558439966398660,-2,0,-2,-2,4,5,2,-1
1558439966398660,-3,0,-1,-3,-6,-5,-5,-2
1558439966404643,-1,-3,-4,-1,-9,-12,-3,-2
1558439966404643,0,-1,1,1,5,1,4,0
1558439966412623,-1,-3,1,-1,1,-5,-2,0
1558439966412623,-3,-4,-4,-1,0,1,-3,-2
1558439966427582,-1,2,1,0,0,1,-5,-3
1558439966427582,-2,-1,-4,-3,-4,-8,-3,1
1558439966435560,2,-3,0,1,3,7,5,0
1558439966435560,0,-2,-3,1,-5,-7,-4,-5
1558439966443538,-2,0,0,1,3,6,5,0
1558439966443538,0,1,0,1,4,10,4,3
1558439966458500,-1,-2,2,1,-1,-5,-2,-1
1558439966458500,0,-1,-1,-1,0,3,2,-2
1558439966465482,-1,-1,-5,-5,-6,-10,-9,-3
1558439966465482,-1,-3,-3,-2,-7,-6,-1,-4
1558439966472462,0,0,0,0,0,2,1,-1
1558439966472462,2,3,5,3,13,11,10,6
1558439966487423,1,0,2,-2,-5,-7,-4,-3
1558439966487423,-2,1,1,1,3,2,-5,-4
1558439966495408,-3,-5,-2,-3,-11,-8,-7,-5
1558439966495408,-2,-4,-1,-2,-1,-1,0,1
1558439966504378,0,1,-1,-2,-7,-8,-4,-2
1558439966504378,-1,1,-4,-2,2,5,-2,-1
1558439966518339,0,2,-1,-2,-4,-7,-2,0
1558439966518339,-1,-3,-4,0,2,7,4,1
1558439966525320,1,2,3,1,5,7,1,0
1558439966525320,0,-2,-3,-2,0,-1,0,0
1558439966532303,-3,-3,-4,-6,-8,-11,-9,-5
1558439966532303,0,1,-1,0,3,0,2,0
1558439966547262,-4,-1,-2,-1,-2,-1,0,-1
1558439966547262,-1,-3,-2,-1,-1,4,1,-2
1558439966555240,3,5,6,3,5,3,3,3
1558439966555240,1,3,1,-2,-4,-3,-4,-2
1558439966564217,-2,-3,-2,-2,3,3,0,-2
1558439966564217,-1,-1,-2,-3,-2,-7,-5,-3
1558439966578179,-2,-2,-3,-4,-11,-5,-1,0
1558439966578179,-1,0,0,-2,-4,-1,-3,-1
1558439966585162,-3,-2,-2,-1,2,-4,-4,-2
1558439966585162,0,0,0,1,4,4,4,1
1558439966592144,-4,-3,-1,-1,-1,5,1,0
1558439966592144,0,2,4,1,-4,-5,-6,-2
1558439966608100,-3,-4,-4,-2,-9,-2,-4,-3
1558439966608100,0,-2,-5,-5,1,-8,-3,1
1558439966615082,-1,-2,-1,1,6,3,2,-1
1558439966615082,-2,-2,-1,1,-2,1,1,1
1558439966630041,0,-2,1,-2,-4,-7,-3,-1
1558439966630041,-1,-1,0,0,-1,4,-2,-2
1558439966638019,-1,1,-2,-2,-2,-1,1,-1
1558439966638019,0,-1,-3,-3,-4,-6,-6,-3
1558439966645001,0,-1,-1,1,2,0,2,2
1558439966645001,2,0,0,0,1,-2,2,0
1558439966652979,1,1,0,2,5,6,-1,-1
1558439966652979,-3,-1,1,-1,-4,-6,-2,0
1558439966667939,0,2,-3,-3,-9,-8,-6,-1
1558439966667939,-4,-4,0,0,0,3,-2,-2
1558439966674920,0,-1,2,0,2,-1,3,0
1558439966674920,-1,-2,-3,-4,-4,-4,-6,-4
1558439966689879,-1,-3,-1,1,2,2,2,-1
1558439966689879,-2,-1,0,-1,-3,-3,-3,0
1558439966697859,0,-2,-2,-4,-6,-8,-4,-1
1558439966697859,-1,-4,-1,-1,-2,0,-3,-2
1558439966704842,0,-1,-3,0,2,2,0,-2
1558439966704842,-2,-4,0,-1,-4,-8,-3,-2
1558439966712819,-2,-3,0,-2,1,-1,-1,-2
1558439966712819,0,-1,0,0,1,4,3,0
1558439966727779,-2,0,0,-3,-5,1,-2,-2
1558439966727779,-1,-1,1,0,4,7,7,2
1558439966734760,-1,0,-1,0,-4,-16,-8,-1
1558439966734760,-1,-5,-3,1,8,6,2,-1
1558439966749721,-2,-1,2,1,2,6,1,-2
1558439966749721,-2,2,-3,0,1,7,2,-1
1558439966758696,-1,-1,-3,-4,-7,-9,-8,-2
1558439966758696,-2,-2,-5,-2,-1,0,3,1
1558439966764681,0,-3,-2,0,3,1,1,-1
1558439966764681,-2,-2,2,0,-4,4,-2,-6
1558439966772661,-1,-3,2,1,-2,-5,-3,-3
1558439966772661,0,-3,-3,-2,1,-4,-4,-1
1558439966787620,-1,1,-2,-2,0,4,3,1
1558439966787620,-2,-2,-4,-2,-4,-8,0,-2
1558439966795598,2,2,0,-2,-2,1,1,2
1558439966795598,-3,3,2,-1,-6,-4,-3,0
1558439966810557,2,0,2,3,9,-3,1,0
1558439966810557,0,-1,-3,-2,-2,3,-2,-1
1558439966818536,-3,-3,-2,2,3,4,3,0
1558439966818536,0,2,2,0,4,1,3,0
1558439966825518,-3,-5,-4,-5,-7,-1,-2,-3
1558439966825518,-1,-1,-2,-1,0,-3,0,1
1558439966832499,1,-2,-1,-1,0,2,-3,-3
1558439966832499,0,-2,0,-3,-6,-3,-4,-4
1558439966847459,-1,3,2,-1,11,7,2,2
1558439966847459,-2,-4,1,-1,1,2,-2,0
1558439966855438,-3,2,-3,-3,-4,-1,-3,-3
1558439966855438,-2,0,-1,-2,-6,-5,1,-2
1558439966870399,1,1,4,3,0,-4,-1,0
1558439966870399,-2,1,-4,-3,-5,-6,-2,-2
1558439966878376,-2,-2,-4,-4,-2,6,-1,-3
1558439966878376,-2,-3,-3,-3,-5,0,-3,-3
1558439966885358,-4,-3,-2,-1,1,0,0,0
1558439966885358,0,0,0,-2,-1,-4,-2,-1
1558439966900318,-2,-3,-3,-2,-3,-4,-4,-2
1558439966900318,0,3,1,1,-1,0,0,2
1558439966907299,-1,1,1,-1,-2,1,3,1
1558439966907299,0,-3,-2,0,1,2,2,-2
1558439966915278,-1,1,4,0,0,-1,2,0
1558439966915278,-2,-4,-3,-1,2,1,-1,-1
1558439966930237,1,-1,-1,1,1,-3,-3,-1
1558439966930237,-1,-3,-1,-2,-3,-6,-6,0
1558439966938217,-1,-2,-4,0,0,2,0,-1
1558439966938217,0,0,-1,0,2,-4,0,-1
1558439966945197,-1,-5,-2,-4,-10,-7,-7,-5
1558439966945197,2,4,5,3,1,2,3,0
1558439966961156,1,2,1,1,3,2,3,2
1558439966961156,-1,-3,-3,-5,-7,-8,-7,-2
1558439966967139,-2,1,-1,1,1,5,4,0
1558439966967139,-3,-2,-3,-2,-10,-1,-6,-5
1558439966975118,-2,-2,-3,-2,-1,-4,-1,-1
1558439966975118,4,4,4,4,7,1,2,2
1558439966990077,-1,1,-2,-3,-3,-3,-3,-3
1558439966990077,-1,-1,0,1,8,11,7,3
1558439966998056,0,-5,-2,-1,-4,-7,-2,-1
1558439966998056,-4,-3,-4,-3,-5,-2,-3,-4
1558439967005036,-3,-2,0,-1,-5,-2,-2,-2
1558439967005036,0,0,1,-3,-2,-7,-2,1
1558439967020995,1,-1,-1,1,5,11,2,-1
1558439967020995,-2,-1,-1,-1,-3,-6,-4,-2
1558439967027976,1,-1,-3,-3,0,3,2,0
1558439967027976,-2,0,0,0,-2,-3,-2,-2
1558439967034957,0,-1,2,3,8,10,6,3
1558439967034957,0,-4,0,-1,-1,6,4,1
1558439967049917,2,2,2,-2,-2,-16,-8,2
1558439967049917,-1,-2,-2,-1,-4,-4,-3,-4
1558439967057897,-1,1,2,-1,2,4,2,2
1558439967057897,0,0,-1,1,5,-2,-2,1
1558439967064878,-2,-1,-1,-3,-7,-5,-1,-1
1558439967064878,-3,0,0,-3,-9,-4,-5,-5
1558439967080835,-2,-3,-2,-2,-4,-7,-7,-4
1558439967080835,1,-1,0,-2,-2,1,1,-1
1558439967087816,1,0,-1,1,-2,-4,-2,0
1558439967087816,0,-1,-4,-1,6,-1,-2,0
1558439967094797,-1,0,-1,0,-3,-1,3,1
1558439967094797,-1,-3,-2,-2,-6,-4,-5,-4
1558439967109757,0,-3,2,2,8,8,8,3
1558439967109757,-2,1,-2,-2,0,7,0,-4
1558439967118733,-2,-2,-2,-3,-5,-3,-1,-1
1558439967118733,-2,0,-2,-4,-3,-5,-4,-1
1558439967124717,-2,-3,-2,-3,-6,-6,-9,-4
1558439967124717,0,-4,-3,0,-1,4,4,4
1558439967140673,-1,1,2,1,3,-2,3,2
1558439967140673,0,-2,1,0,6,2,0,0
1558439967147656,-1,-3,-2,-3,-1,1,0,-3
1558439967147656,1,-1,1,1,-2,-11,-4,-1
1558439967154637,-1,-2,-5,-3,-13,-7,-5,-2
1558439967154637,0,-2,1,0,1,6,5,1
1558439967169597,2,-1,-3,0,-1,-5,-4,-2
1558439967169597,-3,-1,-1,0,4,6,6,1
1558439967177575,1,0,0,1,-1,-6,-4,-1
1558439967177575,-1,0,0,0,-2,4,0,-1
1558439967186552,-2,-2,-3,0,2,5,0,1
1558439967186552,0,-3,-1,-2,-2,-5,-4,-2
1558439967200515,-2,-3,-4,-5,-2,-1,-1,-3
1558439967200515,-2,-2,-1,0,-2,1,0,-2
1558439967207496,1,1,1,-1,-4,-5,-4,-2
1558439967207496,-1,0,-1,0,5,2,1,2
1558439967215475,0,1,1,-1,3,0,-6,-3
1558439967215475,-3,-2,-3,-1,-4,0,-2,-1
1558439967230433,-3,-2,-1,-2,5,7,13,4
1558439967230433,0,3,1,1,7,3,0,2
1558439967237416,-1,-1,0,-2,-9,-3,-4,-5
1558439967237416,2,-4,-2,-3,-4,-13,-5,-1
1558439967246391,-1,0,-2,-1,-4,-3,-5,-1
1558439967246391,0,1,1,-1,3,-2,0,1
1558439967260353,-1,-2,-1,-1,-5,-4,-1,0
1558439967260353,-2,-1,-2,-1,1,2,2,1
1558439967275315,1,1,1,-1,-1,1,-1,0
1558439967275315,-4,-2,-4,-2,-12,-6,-8,-7
1558439967276310,1,2,2,1,9,12,6,3
1558439967276310,-1,2,3,0,0,0,-2,-3
1558439967290274,0,0,-3,2,8,8,5,4
1558439967290274,-1,-2,-1,-5,-11,-7,-3,-3
1558439967297255,-2,-2,-2,-3,-5,-3,-5,-4
1558439967297255,0,-1,1,1,3,-7,-2,2
1558439967312216,-3,-3,1,-1,-2,-8,-4,-2
1558439967312216,0,-1,-2,-1,2,5,5,3
1558439967321193,0,-2,-5,-2,1,-8,-3,-2
1558439967321193,-3,-3,-3,-1,-2,9,0,-2
1558439967336153,-2,2,-1,-2,-8,-3,-7,-4
1558439967336153,-2,-4,-3,-3,-12,-14,-8,-4
1558439967336153,1,-1,-1,1,3,5,3,0
1558439967336153,-2,-1,0,-1,0,-3,0,-1
1558439967350115,0,2,1,1,5,8,3,1
1558439967350115,-3,-2,-3,-1,-6,-4,-7,-3
1558439967357095,0,1,4,2,6,7,5,2
1558439967357095,-1,0,-1,-4,-10,-7,-9,-5
1558439967381033,-4,-4,-7,-7,-17,-10,-7,-6
1558439967381033,3,6,9,6,17,10,10,6
1558439967382028,2,2,2,1,8,-13,0,4
1558439967382028,-1,-1,1,3,-2,2,3,-1
1558439967395992,0,-1,1,0,4,2,-1,-4
1558439967395992,0,-2,-1,-3,0,5,-2,-3
1558439967396990,-8,-2,-3,-6,-12,-6,-6,-7
1558439967396990,-1,-2,-2,-1,2,-4,-1,-2
1558439967409955,-1,-2,-1,-3,-5,-1,-1,0
1558439967409955,0,0,-1,1,6,7,3,0
1558439967417933,0,2,2,0,-1,-2,-2,0
1558439967417933,-2,-1,-1,0,1,-3,-2,0
1558439967441869,-3,-3,-1,-5,-3,-3,-3,-4
1558439967441869,-2,-1,-1,-2,-3,-7,-7,-1
1558439967441869,-4,-5,-5,-1,-9,3,-4,-5
1558439967441869,-1,0,-1,-2,2,-5,0,0
1558439967455859,4,2,5,3,10,-5,4,4
1558439967455859,1,1,1,2,0,1,1,0
1558439967456857,1,-1,0,1,1,3,0,0
1558439967456857,0,-1,-3,-1,-2,0,0,0
1558439967469831,-3,-3,0,-2,-2,0,0,0
1558439967469831,0,0,-1,-3,-6,-7,-3,-3
1558439967477811,-3,0,-4,-2,-4,3,-3,-4
1558439967477811,0,-2,0,-2,1,0,-1,1
1558439967501709,0,-3,-1,3,5,0,1,-2
1558439967501709,1,-3,-2,-1,1,1,0,-2
1558439967501709,-2,-3,0,-2,-5,-7,-2,-2
1558439967501709,-2,1,-2,-2,-6,-2,-5,-4
1558439967515671,-1,1,-2,0,5,0,4,0
1558439967515671,-2,-4,-3,-2,-1,4,4,1
1558439967516668,4,1,1,1,4,-7,-2,1
1558439967516668,-1,-3,-5,1,6,10,4,0
1558439967529633,-3,0,-1,-2,-11,-9,-8,-4
1558439967529633,-3,-3,-5,-2,-2,-6,-5,-4
1558439967537612,1,0,-2,0,1,5,2,0
1558439967537612,-3,-3,0,-3,-2,2,3,-2
1558439967552572,-4,-2,-3,-2,-6,-3,-6,-4
1558439967552572,-3,-1,0,1,-3,-3,0,1
1558439967560552,1,-1,1,2,10,1,4,4
1558439967560552,0,1,2,-1,2,2,-2,-1
1558439967575547,1,-1,-6,-1,4,9,3,0
1558439967575547,-2,1,-4,-6,-8,-8,-8,-5
1558439967576508,-3,-3,-4,-7,-7,-8,-6,-2
1558439967576508,0,1,3,1,0,-3,4,3
1558439967590471,0,-2,3,2,0,1,1,0
1558439967590471,-1,-1,-2,-2,-3,-5,-2,-2
1558439967597454,-2,-1,-2,2,8,6,0,2
1558439967597454,2,0,0,1,1,0,5,1
1558439967612411,-1,0,-4,-3,-7,-3,-5,-3
1558439967612411,-2,-1,-3,-3,-7,-2,0,0
1558439967620390,-2,-4,-2,-4,-5,-6,-3,-2
1558439967620390,-2,-1,-1,-1,-1,-1,-4,0
1558439967635350,-2,-2,0,-2,1,1,-3,1
1558439967635350,1,0,-1,2,11,9,6,2
1558439967636348,-2,1,-6,-1,-7,-4,-2,-1
1558439967636348,-2,-2,-6,-4,-8,-4,-6,-4
1558439967650310,-2,-4,-3,-1,-8,-11,-7,-2
1558439967650310,-3,-1,4,3,6,0,6,4
1558439967657292,-1,-2,1,1,0,4,-1,-3
1558439967657292,-3,-4,-3,-3,3,5,-1,-4
1558439967672252,2,1,0,0,0,-1,-3,0
1558439967672252,-3,-3,-1,-3,-3,-9,-8,-3
1558439967681228,-2,-3,0,-2,-3,-3,0,1
1558439967681228,1,-1,-1,1,4,-3,0,2
1558439967696188,0,1,-1,3,1,4,-4,-2
1558439967696188,-1,-4,-2,-2,-3,-1,-1,0
1558439967696188,1,1,1,-1,6,5,4,1
1558439967696188,-2,-4,-3,-4,-9,-4,-4,-5
1558439967710150,-2,-2,2,-2,-1,-1,1,-2
1558439967710150,0,2,1,0,-2,-4,-3,-1
1558439967717131,-3,-1,-3,0,-9,-4,-5,-4
1558439967717131,0,2,-1,0,5,-6,2,5
1558439967734086,0,1,4,0,6,0,0,2
1558439967734086,1,2,0,5,14,18,10,3
1558439967741106,-4,-1,-1,-1,-5,-3,-3,-1
1558439967741106,-1,1,0,-3,-3,1,-2,-2
1558439967756063,-1,-2,-5,-5,-10,-4,-2,-4
1558439967756063,-4,-2,1,-2,-5,-6,-7,-5
1558439967756063,-1,-6,-4,-3,-2,-5,-2,2
1558439967756063,-3,-5,-5,-1,-2,-4,-2,-4
1558439967770022,0,0,3,1,10,1,5,4
1558439967770022,-2,-3,-2,-2,-2,4,1,-3
1558439967777968,0,1,0,-1,-1,-2,0,-1
1558439967777968,-1,-1,-1,-1,-7,-3,-5,-3
1558439967792929,-3,-6,-7,-4,-7,-7,-2,-1
1558439967792929,0,-2,3,1,3,6,4,1
1558439967800908,1,0,0,-1,7,1,2,1
1558439967800908,3,1,4,4,2,3,0,2
1558439967815868,-3,-4,-1,-1,-4,-3,-5,-1
1558439967815868,2,1,-4,-6,-4,-7,-5,0
1558439967816866,-2,-2,-3,-3,-1,9,3,-3
1558439967816866,1,1,3,2,3,1,7,2
1558439967829830,0,4,3,-1,-2,-1,2,-1
1558439967829830,-5,-4,-1,-3,-9,-5,-10,-6
1558439967837809,4,2,5,4,7,-8,-2,4
1558439967837809,-5,-2,-8,-5,-5,-2,-5,-4
1558439967852768,-1,1,1,0,-2,-6,-2,0
1558439967852768,-1,2,1,0,-1,-2,0,0
1558439967860749,-1,-1,-1,0,-1,8,3,-3
1558439967860749,0,-1,0,-2,-5,2,-2,-3
1558439967875714,-5,-5,-4,-2,-2,0,-2,-1
1558439967875714,1,3,4,0,5,-6,2,0
1558439967883689,-2,-2,0,1,-2,-1,-2,0
1558439967883689,0,0,-3,1,8,-4,-1,0
1558439967889681,0,0,-3,-4,-4,6,0,0
1558439967889681,-4,-3,-4,0,-8,-10,-6,-4
1558439967897651,-4,-3,-6,-5,-11,-2,-6,-7
1558439967897651,-1,-1,-1,-3,-5,-7,-1,0
1558439967912622,0,2,-1,1,9,3,-1,0
1558439967912622,-1,-3,-2,-2,0,2,2,0
1558439967921589,0,2,2,0,3,5,5,3
1558439967921589,0,2,3,2,0,3,2,0
1558439967935632,-2,0,-4,-3,-4,-5,-4,-4
1558439967935632,-3,-4,-6,-2,-11,-12,-12,-8
1558439967943533,-1,3,3,4,7,3,6,2
1558439967943533,0,0,1,-3,0,6,4,1
1558439967950545,-2,-2,-2,-3,-2,6,-1,-2
1558439967950545,4,2,2,6,9,-3,6,6
1558439967957490,-2,-4,-4,-4,-3,-2,-4,-3
1558439967957490,-2,0,2,0,2,-1,-2,-2
1558439967972449,-1,-1,1,-3,-7,-5,-5,-5
1558439967972449,-2,-4,-5,-5,-8,1,-1,-1
1558439967980427,-3,-4,-2,-1,-4,-3,-2,-1
1558439967980427,1,1,3,2,5,2,2,0
1558439967995389,3,3,1,1,5,1,1,2
1558439967995389,6,4,3,-1,2,8,4,4
1558439968003366,0,0,-1,0,-3,1,-3,0
1558439968003366,-6,-3,-5,-4,-13,-10,-6,-5
1558439968010348,2,0,5,4,12,11,11,3
1558439968010348,-2,1,0,4,7,6,2,1
1558439968017330,-2,-3,-3,-6,-3,-4,-7,-5
1558439968017330,-3,-3,-3,-5,-8,0,-2,-2
1558439968032291,-1,0,-2,-2,-4,-9,-4,-2
1558439968032291,-3,-2,1,0,4,0,-1,-3
1558439968041264,2,1,2,5,8,2,4,3
1558439968041264,-3,-1,-5,-2,-1,-5,-3,1
1558439968055229,-1,-2,-2,-2,-5,-2,-2,0
1558439968055229,-1,-2,-3,-1,-9,4,-4,-1
1558439968063241,-2,1,3,-5,-4,-5,-8,-6
1558439968063241,1,-5,0,1,8,2,5,0
1558439968078225,3,-2,-2,-2,1,-1,0,2
1558439968078225,-1,2,0,-2,-4,-9,-4,-1
1558439968079191,0,-2,-1,4,3,4,3,1
1558439968079191,-1,0,0,-3,-7,-7,-3,-2
1558439968092168,-2,3,-1,0,0,1,-1,0
1558439968092168,-1,-4,-6,-5,-5,-1,1,-3
1558439968101104,-2,0,0,0,-3,-5,-4,-2
1558439968101104,2,5,3,6,16,14,9,6
1558439968115068,-2,-6,1,3,0,-4,-2,0
1558439968115068,-2,0,-3,-4,-3,-5,-3,-3
1558439968123046,0,-3,-4,-3,-13,-9,-6,-6
1558439968123046,0,-2,-3,-6,-15,-6,-6,-4
1558439968138007,-4,-3,-6,-2,-4,-6,-1,-2
1558439968138007,1,-2,-1,-2,7,4,-1,1
1558439968139003,-1,-3,-5,-2,2,9,5,1
1558439968139003,-1,0,6,3,4,5,2,-2
1558439968152966,3,3,1,-6,-4,-7,1,2
1558439968152966,-3,-4,-4,-2,-4,-2,-5,-6
1558439968160946,0,0,-1,-3,-7,-6,-1,2
1558439968160946,-2,-4,-4,1,4,-1,-5,-2
1558439968174907,-2,-3,-1,0,2,11,2,-3
1558439968174907,0,1,1,2,7,0,4,4
1558439968182885,4,3,4,1,4,1,2,3
1558439968182885,0,-2,-2,-3,-11,-8,-9,-7
1558439968197847,-5,-4,-2,-1,-7,-8,-7,-6
1558439968197847,0,2,-4,-3,3,5,8,4
1558439968198844,-4,-3,-3,-2,-7,-5,-5,-4
1558439968198844,-1,1,5,1,2,-1,1,1
1558439968212809,1,1,-2,4,6,7,1,-1
1558439968212809,-3,-3,1,-2,-2,4,1,1
1558439968220784,-1,4,-4,-3,2,5,6,2
1558439968220784,-3,-6,1,-1,-9,-8,-5,-3
1558439968234746,1,0,-2,-2,-2,-7,-4,1
1558439968234746,1,-1,0,0,2,-3,-3,0
1558439968243722,-3,-3,-3,2,2,0,-1,-1
1558439968243722,0,0,1,-1,4,8,10,2
1558439968258683,-5,-2,-4,-4,-4,-1,-3,-5
1558439968258683,0,-2,2,2,-5,-4,-4,-1
1558439968258683,2,-1,-5,-3,1,-4,1,-1
1558439968258683,-4,-3,1,-2,-4,-5,-5,-1
1558439968272645,0,-2,2,1,2,4,5,2
1558439968272645,-2,1,2,-2,-5,-1,-2,-1
1558439968280624,-9,-9,-4,-1,-1,-3,-12,-10
1558439968280624,5,2,-2,0,-1,-5,-1,0
1558439968294587,1,-1,-1,-2,-5,0,-4,-3
1558439968294587,2,0,-1,-1,4,8,6,1
1558439968303562,-1,-4,-4,-3,-6,-2,-1,0
1558439968303562,-2,1,-1,0,6,5,4,2
1558439968318523,0,0,0,-1,8,-4,1,2
1558439968318523,0,-2,-5,-3,0,-3,-1,-1
1558439968318523,-3,-1,4,0,-5,0,-2,-3
1558439968318523,-1,-2,-3,-1,-4,-4,-6,-3
1558439968332490,0,2,-3,-6,-2,-3,0,-2
1558439968332490,-3,-5,-3,-2,-5,-2,-1,-3
1558439968340467,-1,-2,2,-1,3,3,2,-1
1558439968340467,-1,0,-6,-4,-6,-8,-2,-1
1558439968355431,-1,-1,5,6,-2,1,-2,-1
1558439968355431,-1,0,-4,-3,-1,-6,-3,-1
1558439968363408,0,-1,-1,-2,-1,1,-4,-1
1558439968363408,-2,-2,-3,-3,-1,6,0,-2
1558439968378471,0,-1,-5,0,1,-8,2,2
1558439968378471,-6,-4,2,1,-2,-5,-5,-4
1558439968379368,2,2,3,-3,2,-1,1,1
1558439968379368,-1,3,0,0,0,1,0,-2
1558439968392439,-2,-3,-3,-3,0,-3,-5,-2
1558439968392439,0,-2,-2,1,-3,1,1,0
1558439968400306,0,1,-7,-5,0,-6,-1,1
1558439968400306,-3,-6,4,2,3,4,0,-1
1558439968415265,-3,-4,-3,-3,-8,1,-3,-5
1558439968415265,1,2,4,1,0,-1,5,2
1558439968423531,-1,-2,-1,1,0,0,-4,-1
1558439968423531,-1,-1,-7,-5,-9,-11,-10,-3
1558439968438203,-1,-4,-2,-1,1,4,2,-1
1558439968438203,0,-4,5,2,-1,-2,-5,-2
1558439968439203,0,1,1,4,0,0,2,2
1558439968439203,0,0,-1,-2,0,1,1,0
1558439968453419,-1,1,-2,0,1,1,-1,0
1558439968453419,1,-1,-1,-2,-4,-3,-4,0
1558439968461510,1,-1,3,3,3,-1,6,1
1558439968461510,1,2,-1,1,7,15,1,0
1558439968475448,-2,-2,-2,-1,-7,-1,-3,-3
1558439968475448,2,3,-1,-5,-1,-15,-3,3
1558439968483084,-5,-3,-2,-1,-1,-1,-2,-1
1558439968483084,-4,-4,-6,-6,-8,-9,-6,-3
1558439968507180,-3,0,4,-1,-6,3,2,-3
1558439968507180,-2,-4,-6,-1,-2,8,-5,-4
1558439968507180,2,1,1,3,6,-7,2,3
1558439968507180,0,-2,0,2,11,3,6,4
1558439968513317,-1,-2,-2,-4,-5,-6,-2,1
1558439968513317,-1,1,1,2,3,2,1,-1
1558439968521041,0,-1,-1,-4,-9,2,-7,-5
1558439968521041,-1,-2,-4,-2,-4,-4,-4,-2
1558439968534991,2,-1,-1,-2,4,6,6,2
1558439968534991,-2,-2,0,0,3,0,1,-1
1558439968543132,-2,-1,0,1,-1,3,-1,-2
1558439968543132,2,3,1,0,4,-5,1,5
1558439968558883,-1,2,4,2,-1,-2,-1,-2
1558439968558883,0,-2,-2,-2,-1,-6,-2,-1
1558439968558883,-2,-3,-2,-6,-10,-4,-4,-3
1558439968558883,-2,-3,-2,-4,-12,-7,-5,-5
1558439968573077,1,0,1,0,0,-4,3,4
1558439968573077,-1,-1,-3,4,14,15,6,2
1558439968580822,0,1,-2,-2,5,12,4,0
1558439968580822,-1,-2,0,-3,-6,-4,-5,-1
1558439968595860,0,-1,-3,-4,1,-4,0,2
1558439968595860,-4,-4,-1,-3,-11,-8,-3,-6
1558439968602764,1,0,-1,0,-4,-6,-5,0
1558439968602764,4,1,1,3,10,9,11,6
1558439968618975,-4,-1,-1,2,0,-6,-10,-5
1558439968618975,-1,-1,0,-2,-5,-4,-1,0
1558439968618975,-2,-3,-2,-1,-1,-5,-2,-4
1558439968618975,-1,0,-1,-4,-2,2,1,-2
1558439968632685,1,-2,0,-1,-2,4,2,0
1558439968632685,-2,0,-3,-2,-4,-7,-4,-3
1558439968640664,-3,0,-1,3,-4,1,-3,-4
1558439968640664,-1,-2,-5,-5,2,-2,0,0
1558439968654795,-1,0,0,-1,-2,-1,-2,-2
1558439968654795,-3,-3,-3,1,-4,-4,-4,-2
1558439968663601,1,-2,-1,-2,9,3,6,2
1558439968663601,-2,-2,5,4,3,6,-2,-5
1558439968679032,-3,-3,-3,0,2,6,2,2
1558439968679032,-1,2,-2,-5,-3,-9,-5,0
1558439968679032,0,-1,-4,-2,-6,-8,-6,-2
1558439968679032,-2,0,-1,1,-1,2,1,-2
1558439968692983,-3,-1,-2,-3,-7,-7,-8,-7
1558439968692983,0,0,0,-2,-2,-2,-3,0
1558439968701511,3,3,3,2,7,-2,5,4
1558439968701511,-1,-1,0,0,-6,-7,-7,-4
1558439968714958,3,2,1,2,6,6,5,3
1558439968714958,-3,-2,-1,-5,-1,8,1,-2
1558439968723226,-3,-2,-1,0,0,3,-3,-2
1558439968723226,0,-1,-2,-1,-4,-8,-4,-1
1558439968737925,0,-1,1,-1,3,2,1,-2
1558439968737925,0,-3,-1,1,1,4,0,0
1558439968738895,-1,-3,-3,-4,-7,-2,-3,-3
1558439968738895,-2,0,0,0,-3,-4,0,-2
1558439968752884,0,1,-2,-2,-3,-9,-4,0
1558439968752884,-1,-2,-1,-1,-2,-7,-1,0
1558439968761134,-2,-3,-1,-3,0,-1,1,-1
1558439968761134,-3,-4,-1,-6,-14,-9,-13,-6
1558439968774799,0,-1,-2,0,-1,3,2,-1
1558439968774799,3,5,5,4,18,12,11,3
1558439968782804,0,-1,3,3,1,5,-1,1
1558439968782804,-1,-3,-8,-2,4,5,3,1
1558439968798732,-2,-2,1,-5,-9,-9,-11,-5
1558439968798732,-3,-4,-2,-4,-12,-8,-7,-4
1558439968798732,0,-1,-2,-2,5,4,3,1
1558439968798732,1,1,6,4,2,1,2,2
1558439968812695,0,1,0,1,5,0,0,0
1558439968812695,-1,-3,-10,-3,-5,4,0,-4
1558439968820675,-3,-2,0,-3,-8,-7,0,1
1558439968820675,-1,-1,1,-3,4,-1,-4,-1
1558439968835559,0,-2,-2,-2,2,-4,0,0
1558439968835559,-2,-2,0,-1,-4,-1,-4,-4
1558439968843076,-1,0,-6,-2,-7,-10,-4,-3
1558439968843076,0,-2,1,2,3,5,4,1
1558439968858505,2,-2,-1,-3,0,1,3,1
1558439968858505,0,1,1,2,4,2,4,0
1558439968866404,-3,-2,0,-1,-8,-4,-9,-6
1558439968866404,-2,-4,-7,-4,5,-1,0,-1
1558439968872996,-1,-3,0,1,2,3,0,0
1558439968872996,2,-1,0,-4,-2,0,2,1
1558439968880975,2,1,1,1,4,2,4,2
1558439968880975,-5,0,-4,1,-8,-7,-8,-5
1558439968895940,-4,0,-2,-1,-2,-5,-2,-2
1558439968895940,-1,-1,-4,-2,-4,-1,-1,-3
1558439968904024,-3,-4,-7,-4,-9,-15,-9,-3
1558439968904024,2,-1,4,4,7,-4,3,2
1558439968918243,-1,0,-2,-1,8,14,7,0
1558439968918243,-4,-3,2,1,-4,-1,-3,-2
1558439968926215,-1,1,0,3,7,6,4,0
1558439968926215,1,-1,-4,-4,-2,1,2,0
1558439968933267,-2,-5,-5,-4,-8,-7,-4,-2
1558439968933267,-1,0,-2,1,1,2,-4,-3
1558439968941191,-3,-4,-3,-5,-6,-3,-7,-2
1558439968941191,1,-1,2,0,2,-2,2,2
1558439968955775,2,0,0,-1,1,2,5,1
1558439968955775,0,-1,2,2,3,4,2,1
1558439968963758,1,-2,1,-2,-3,-8,-4,-2
1558439968963758,-1,0,-1,-2,-3,-1,-4,-4
1558439968978005,-4,-6,-5,-3,-10,0,-4,-4
1558439968978005,-3,-2,-5,-4,-8,-9,-2,0
1558439968985962,3,4,4,4,24,15,12,8
1558439968985962,2,2,4,4,8,0,0,3
1558439969001929,-3,-1,-1,-2,-4,1,-1,-3
1558439969001929,-1,0,-2,0,-11,-13,-12,-6
1558439969001929,-3,-6,-4,-6,-10,2,-2,-5
1558439969001929,-2,0,-1,2,4,4,6,3
1558439969014618,3,0,0,1,4,-4,0,2
1558439969014618,0,-2,-1,0,2,5,3,-1
1558439969023850,-1,-1,-2,-2,-11,-10,-8,-4
1558439969023850,-2,-1,0,0,7,1,6,0
1558439969037557,-2,1,2,0,-1,-4,-4,-2
1558439969037557,1,-1,-2,0,9,2,-1,1
1558439969045809,-1,2,3,-1,-2,8,1,-1
1558439969045809,-4,-5,-9,-5,-17,-9,-11,-8
1558439969061530,0,0,2,2,4,-6,0,0
1558439969061530,0,-1,1,1,10,2,7,5
1558439969061530,-1,-1,2,0,4,3,1,2
1558439969061530,-2,0,-5,-4,-6,-3,-3,-1
1558439969075729,-2,-4,-4,-3,-7,-5,-10,-5
1558439969075729,0,-1,0,-3,-4,-4,-3,-2
1558439969083672,-1,3,0,0,2,-1,0,-2
1558439969083672,-1,0,-2,0,-2,3,-2,-2
1558439969097398,0,1,1,3,4,7,2,0
1558439969097398,-3,-2,0,-6,-7,-7,-4,-2
1558439969106409,0,-1,-4,0,-2,-1,1,1
1558439969106409,0,1,1,0,-3,-5,2,1
1558439969120613,-2,1,2,1,8,6,3,2
1558439969120613,-2,-1,-2,2,10,2,0,1
1558439969121335,2,-1,3,0,-4,-7,-3,-3
1558439969121335,-4,-3,-5,-5,-6,-1,-4,-4
1558439969135565,-1,-3,-6,-4,-12,-14,-11,-6
1558439969135565,-2,-3,0,1,-5,2,3,2
1558439969143567,1,-2,3,1,9,4,2,0
1558439969143567,1,-1,0,-4,5,7,2,-1
1558439969158350,1,-1,2,-1,-5,-4,-2,0
1558439969158350,-1,-1,-2,-2,-8,-2,-6,-5
1558439969166439,-3,-5,-7,-5,-8,-6,-5,-3
1558439969166439,0,-2,0,0,4,0,0,0
1558439969181174,-3,-1,0,1,-2,6,2,1
1558439969181174,2,0,0,0,3,1,1,-1
1558439969181174,-2,0,0,2,4,0,7,3
1558439969181174,-3,-3,-2,0,-6,-9,-6,-4
1558439969195169,-2,-1,-3,-3,-1,-1,-2,-3
1558439969195169,-4,-1,-1,-3,-5,-5,-3,-4
1558439969203112,0,-1,-3,-1,0,2,0,-2
1558439969203112,-1,0,1,-1,-3,-4,-4,0
1558439969217115,1,-3,-1,0,-3,-7,-5,-4
1558439969217115,1,1,-3,-6,5,9,6,3
1558439969226051,0,-1,-2,0,5,3,2,-1
1558439969226051,-2,-1,1,-4,-4,0,0,-1
1558439969241012,-2,0,-1,1,-3,-2,-4,-2
1558439969241012,0,0,1,1,0,-6,-3,-3
1558439969241012,0,-2,-3,-2,1,1,-4,-3
1558439969241012,1,-2,-1,-1,0,3,1,3
1558439969254974,-3,-2,-1,-3,-5,-3,-1,-2
1558439969254974,0,-5,-4,-3,-12,-11,-9,-4
1558439969262952,-1,-1,1,2,8,6,3,2
1558439969262952,1,-1,3,2,7,1,6,3
1558439969278294,2,1,0,0,11,10,7,5
1558439969278294,-2,-2,-4,0,-1,0,1,3
1558439969286242,-2,1,-3,-6,-19,-13,-10,-6
1558439969286242,-4,-1,-2,-3,-10,-5,-7,-3
1558439969301203,0,0,3,5,13,14,13,3
1558439969301203,1,3,-1,-1,1,-5,-4,0
1558439969301850,-1,-1,-3,-1,4,9,4,-1
1558439969301850,0,4,-1,-1,0,6,-1,-2
1558439969314817,-1,-2,-3,-1,-3,-9,-5,0
1558439969314817,-1,-2,1,-3,-7,-5,1,-1
1558439969323147,1,-1,0,1,-6,-6,-6,-2
1558439969323147,-2,-1,-2,-2,-10,-13,-9,-5
1558439969337752,-2,-5,-2,-2,-1,1,-2,0
1558439969337752,-2,0,2,3,11,9,6,3
1558439969346169,-1,-1,3,-2,1,-1,0,1
1558439969346169,-2,-4,-1,0,-4,2,-1,-4
1558439969361041,-1,-3,-5,-5,-9,-11,-9,-5
1558439969361041,1,-1,-2,-4,-2,-6,0,0
1558439969361690,-1,1,0,0,4,-1,2,1
1558439969361690,-1,-2,0,2,1,-2,-1,-4
1558439969375817,0,-1,-3,-1,-1,2,-2,-1
1558439969375817,-2,0,-2,0,-2,4,-4,-4
1558439969383631,-2,-2,-5,-4,-4,-6,-5,-3
1558439969383631,1,-3,3,4,7,4,10,7
1558439969397596,0,-2,0,-2,-1,-2,1,-1
1558439969397596,-6,-3,-1,-3,-6,-2,-6,-3
1558439969406569,-2,0,-1,-1,-2,0,-1,0
1558439969406569,-2,0,-5,0,4,7,0,-1
1558439969420864,0,1,2,2,6,1,4,3
1558439969420864,2,-1,0,-1,-4,-11,-7,-1
1558439969421529,-2,-1,2,3,1,10,6,1
1558439969421529,0,0,0,-1,1,-2,1,-1
1558439969435505,-1,0,-5,-4,-10,-4,-3,-1
1558439969435505,-2,-3,-4,0,0,0,1,-2
1558439969443472,-1,0,0,-3,-8,-7,-4,-2
1558439969443472,-5,-3,-4,-2,-5,0,-6,-3
1558439969457855,-2,-2,-1,0,5,7,4,-1
1558439969457855,-1,-2,-2,-2,-9,-9,-3,-3
1558439969466617,-3,-5,0,0,-3,-4,-3,-2
1558439969466617,1,1,-2,0,2,-1,-1,-2
1558439969480588,0,1,0,0,4,-5,-3,-1
1558439969480588,0,-3,-2,-1,2,3,1,-2
1558439969481370,-2,-1,-2,-2,1,2,-1,-3
1558439969481370,-1,-2,-3,-5,-10,-11,-5,-1
1558439969495702,-2,0,1,-1,-5,-8,-5,-2
1558439969495702,1,-3,-3,-2,0,0,4,3
1558439969503312,-1,2,0,1,-2,-1,1,2
1558439969503312,-3,-2,1,3,8,12,0,-3
1558439969518296,0,1,0,-2,3,-3,2,1
1558439969518296,-4,0,3,1,6,9,2,-2
1558439969526594,-1,-1,-3,-1,-6,0,-1,-1
1558439969526594,-1,-4,-3,-3,-12,-16,-2,1
1558439969541407,0,-1,-2,-2,-3,0,-2,-3
1558439969541407,-1,-2,-3,0,3,1,-1,1
1558439969541407,1,0,2,-2,2,-4,0,1
1558439969541407,-1,2,-1,-1,2,2,0,1
1558439969555173,-2,2,3,4,5,5,3,2
1558439969555173,-2,-2,-5,-7,-9,0,-2,-2
1558439969563493,-1,-1,0,-1,-5,-6,-8,-1
1558439969563493,3,1,-1,0,4,-1,-1,0
1558439969578412,-3,-3,-2,-1,-5,-5,-3,-4
1558439969578412,1,1,4,4,9,6,5,2
1558439969586435,-2,-1,1,1,5,5,5,0
1558439969586435,-2,-2,-2,-3,-6,3,0,-2
1558439969601413,-1,-4,-5,-5,-9,-11,-8,-3
1558439969601413,2,0,1,2,5,9,-2,-3
1558439969601413,-1,-4,-1,0,-3,-9,-2,1
1558439969601413,1,2,4,1,4,0,2,0
1558439969615012,0,-1,0,-3,1,11,9,2
1558439969615012,-1,0,-6,-4,-8,-15,-7,-2
1558439969623326,0,0,-5,-4,-2,0,0,-1
1558439969623326,-3,-4,-3,-3,-9,-3,-6,-4
1558439969637949,-3,-2,6,2,3,1,0,-4
1558439969637949,-1,-1,0,0,3,0,3,3
1558439969646237,0,0,2,1,4,4,3,-1
1558439969646237,-1,-4,-1,0,-3,2,2,-1
1558439969660888,0,-2,-1,0,2,-8,1,1
1558439969660888,1,0,-1,-2,-7,-2,-4,-4
1558439969661888,-4,-6,-3,-4,-4,-3,-2,-3
1558439969661888,1,0,1,-1,2,-2,-1,0
1558439969675848,-2,-3,-3,-1,-7,-4,-8,-5
1558439969675848,0,1,-2,-3,-3,-6,-4,-2
1558439969683116,-1,1,2,1,5,8,3,0
1558439969683116,-2,0,-2,-2,-3,-8,-3,-3
1558439969697791,-1,-1,-3,-4,-3,0,3,2
1558439969697791,0,-1,0,0,0,1,-1,0
1558439969707021,1,-1,-1,0,3,2,-5,-3
1558439969707021,0,2,1,0,6,4,3,2
1558439969720035,-2,-1,-3,0,1,-3,-5,-1
1558439969720035,-2,-5,-2,-4,-7,-5,-2,-5
1558439969736750,-2,-2,-1,-2,-16,-14,-8,-4
1558439969736750,2,0,1,2,8,7,5,3
1558439969737683,0,0,2,-1,8,1,4,2
1558439969737683,-3,-2,-2,-1,-1,6,1,-2
1558439969744695,0,-1,2,0,-1,-1,-1,0
1558439969744695,-3,-4,0,-4,-10,-7,-5,-5
1558439969757929,0,-1,0,-1,-6,-8,-3,-1
1558439969757929,0,-1,-2,3,2,3,0,-2
1558439969766610,2,-2,-5,-2,-2,-10,-6,-4
1558439969766610,-1,1,-4,1,7,5,2,0
1558439969779611,-2,-2,0,-2,-5,2,3,-2
1558439969779611,-6,-4,-1,-5,-2,-5,-2,0
1558439969788546,-2,-1,-5,-3,-8,-4,-5,-3
1558439969788546,-2,1,-1,0,-3,-2,-3,-1
1558439969795527,0,1,3,5,11,16,8,1
1558439969795527,0,-1,-3,-2,14,5,6,1
1558439969803508,0,-2,-4,-1,0,2,0,0
1558439969803508,-3,-3,-1,-5,-12,-9,-7,-4
1558439969817471,-1,-2,0,-3,-5,-2,-4,-2
1558439969817471,0,3,4,2,0,-3,-2,2
1558439969826741,-3,-3,-4,-4,-8,-10,-3,-3
1558439969826741,2,2,0,3,19,20,13,2
1558439969840411,-4,-3,-7,-3,-9,-3,-6,-2
1558439969840411,0,-1,2,3,0,3,-2,-1
1558439969849384,1,0,3,2,7,3,1,2
1558439969849384,1,-2,-5,-4,-9,-7,-5,-3
1558439969855368,-1,-3,-1,0,-4,-6,-6,-3
1558439969855368,-2,0,2,-1,-6,-8,-2,0
1558439969864346,-1,-3,0,-4,6,4,3,0
1558439969864346,-2,0,1,2,-4,-1,2,0
1558439969878345,1,3,0,5,12,17,9,5
1558439969878345,-3,1,-2,-4,-9,-13,-4,-1
1558439969886618,-2,0,-2,1,-2,0,-3,-1
1558439969886618,0,-1,-2,-1,2,-2,-1,0
1558439969900577,-4,-4,-6,-7,-15,-19,-9,-6
1558439969900577,0,-1,2,3,3,6,4,0
1558439969909226,0,-1,-1,0,3,4,3,0
1558439969909226,1,-1,-1,-2,-2,-6,-5,-3
1558439969915209,-1,-1,-1,-3,-3,2,-3,-3
1558439969915209,0,1,-3,0,2,2,-1,-2
1558439969924187,-2,-1,0,0,-5,-6,-2,0
1558439969924187,-1,-3,0,-2,0,4,-1,0
1558439969938147,-2,-3,-4,-4,-12,-7,-4,-4
1558439969938147,0,-2,-2,0,-6,-7,-3,-2
1558439969952490,2,3,5,4,20,19,14,6
1558439969952490,-3,-2,-2,1,-3,-2,-6,-2
1558439969960443,0,0,0,-1,1,-3,0,1
1558439969960443,-3,-4,-1,-2,-6,-5,-7,-3
1558439969969065,-4,-2,-3,-3,-8,-3,-4,-4
1558439969969065,-1,-2,-5,-3,-4,-11,-6,-2
1558439969984361,-1,-3,-3,-2,-3,-5,-7,-3
1558439969984361,-3,-3,-3,-1,4,14,9,0
1558439969985023,1,-1,0,0,-2,-1,-3,-2
1558439969985023,-2,-2,-2,-1,-5,-4,-1,-1
1558439969997990,0,-1,-5,-1,2,-2,-2,-3
1558439969997990,-1,-3,0,-3,-2,-2,-3,0
1558439970006357,-2,-1,1,0,2,2,-1,-1
1558439970006357,1,0,0,-2,-4,-5,2,0
1558439970020693,-1,-2,2,1,-3,2,0,0
1558439970020693,1,2,-1,-1,0,-5,1,4
1558439970029326,0,0,-5,-4,1,-4,-2,0
1558439970029326,-3,-1,4,1,-5,-2,-2,-2
1558439970044283,1,1,0,2,7,7,6,-1
1558439970044283,1,-6,-4,-2,-1,1,-4,-4
1558439970045385,-3,-6,-3,-4,-3,0,0,-1
1558439970045385,1,3,-1,0,2,-5,1,0
1558439970057399,-2,2,0,1,-1,-1,0,1
1558439970057399,-2,1,4,1,4,6,-1,-1
1558439970066226,0,-2,-4,0,-4,-4,-3,-4
1558439970066226,-2,-4,-2,-4,2,3,-2,0
1558439970080330,-3,-2,3,-2,-6,-2,-4,-2
1558439970080330,0,-4,-8,-5,-1,-11,-5,-4
1558439970089166,-1,1,0,-2,-9,-8,-4,0
1558439970089166,-3,-1,-4,-1,-4,4,1,1
1558439970104282,2,1,-3,0,10,6,3,1
1558439970104282,-2,-1,-2,-2,-6,-8,-3,-2
1558439970105393,-1,0,1,0,1,0,-3,-3
1558439970105393,0,-1,-4,-2,-7,0,-2,-4
1558439970117733,-1,-1,-1,-5,-7,-8,-5,-3
1558439970117733,-3,0,-1,3,3,6,8,1
1558439970126659,1,-1,0,0,10,6,4,2
1558439970126659,-4,-1,0,-1,1,0,0,-1
1558439970140663,2,1,0,-3,-2,-10,0,4
1558439970140663,0,0,-1,-2,-4,-7,-6,-4
1558439970149308,0,0,3,3,2,6,5,2
1558439970149308,-4,-5,-3,-1,1,5,-2,-2
1558439970164240,-3,-2,-4,-2,-6,-6,-5,-2
1558439970164240,2,0,-6,-3,-3,-2,2,2
1558439970165355,-1,-1,-2,-1,-4,-9,-7,-3
1558439970165355,3,3,6,1,6,-1,1,2
1558439970178414,-1,-1,1,2,7,2,1,0
1558439970178414,-1,0,-2,-1,-4,3,-2,-2
1558439970186180,-1,-1,-6,-6,-4,1,-1,-2
1558439970186180,0,-1,0,2,-1,-3,-1,-2
1558439970200144,-1,-3,-3,-1,-4,-2,-3,-3
1558439970200144,1,0,-1,-2,-2,-2,-1,2
1558439970209119,-2,-1,3,2,4,5,5,1
1558439970209119,-1,0,-3,-4,-3,-2,0,-1
1558439970224424,2,1,2,0,9,4,6,3
1558439970224424,0,1,-2,-5,-2,-3,-2,0
1558439970225364,-3,-3,-1,2,-6,-8,-6,-2
1558439970225364,0,3,-1,-1,0,2,-1,0
1558439970246020,-3,-3,-4,-7,-11,1,-9,-6
1558439970246020,0,-4,0,-1,-7,-9,-1,2
1558439970248015,3,3,2,3,18,10,10,8
1558439970248015,0,-2,3,3,2,-4,-1,0
1558439970259983,-1,-2,0,0,-3,2,-2,-1
1558439970259983,-4,-3,2,-1,-3,-2,-1,-4
1558439970268959,-3,-1,-4,-4,-12,-5,-8,-6
1558439970268959,-1,-2,-1,-2,-2,-8,-5,-1
1558439970283920,0,-2,-5,-1,5,2,4,1
1558439970283920,0,1,1,3,6,5,4,3
1558439970284916,0,-1,0,-1,2,4,-1,0
1558439970284916,0,-1,1,2,4,4,0,-2
1558439970297892,-4,-3,-1,-5,-12,-9,-7,-5
1558439970297892,1,2,3,1,-2,-1,-3,-3
1558439970306857,-6,-2,-4,1,-4,-3,2,-1
1558439970306857,-1,-2,-4,-4,3,8,5,1
1558439970320080,0,-1,2,-1,-1,1,-1,-2
1558439970320080,1,1,-2,0,4,1,1,1
1558439970329119,-1,-1,2,-2,-6,-8,-7,-3
1558439970329119,-2,-2,-5,-3,-14,-14,-7,-3
1558439970343148,2,1,1,1,17,13,11,5
1558439970343148,1,0,0,4,9,4,-1,-1
1558439970350919,-1,-4,0,-2,-2,2,1,-3
1558439970350919,-2,0,-1,-1,-4,-8,-3,-1
1558439970358106,-2,-2,-3,1,-4,-3,0,-2
1558439970358106,-3,-1,-5,-3,-5,-4,-5,-1
1558439970366736,-2,-3,-1,-2,-2,-9,-4,-1
1558439970366736,0,-1,-1,0,0,8,1,-2
1558439970380059,-2,2,0,-1,-4,-8,-3,-2
1558439970380059,1,1,1,0,5,7,2,-1
1558439970389833,1,-4,-3,-4,-4,-4,1,2
1558439970389833,1,0,0,-1,-2,1,1,-1
1558439970403599,-1,-3,-4,-2,0,1,-2,0
1558439970403599,-2,-3,0,-6,-11,-7,-5,-6
1558439970410017,-2,-1,-3,1,-4,-7,-3,-2
1558439970410017,0,3,2,1,13,14,4,1
1558439970418352,0,0,-3,0,-6,-6,-4,-1
1558439970418352,-4,-2,-2,0,-5,-5,-2,-2
1558439970426907,1,3,4,1,4,5,1,1
1558439970426907,1,1,3,3,12,3,5,3
1558439970440874,0,-1,-2,-6,-8,-13,-5,-3
1558439970440874,-3,-2,-6,-1,5,13,8,-1
1558439970448853,-3,1,1,0,-12,-9,-7,-8
1558439970448853,-3,-6,-11,-7,-10,-4,-5,-3
1558439970463158,4,7,7,4,9,-1,5,7
1558439970463158,-2,-3,-4,-2,-2,-2,-1,-1
1558439970469916,-1,-1,-2,-5,-11,-4,-4,-5
1558439970469916,-1,-1,3,2,5,0,2,1
1558439970477775,0,-1,1,1,7,15,9,2
1558439970477775,0,2,-1,0,-2,0,-1,0
1558439970486753,-2,-1,-3,0,-3,-6,-2,2
1558439970486753,-2,-2,-5,-5,-9,-10,-3,-4
1558439970500893,0,2,0,1,2,1,-2,-3
1558439970500893,-1,-3,0,-4,2,1,1,1
1558439970508692,-1,0,-3,-1,4,5,2,-1
1558439970508692,-2,-4,-3,-5,-6,-9,-4,-2
1558439970522653,-3,-3,-2,-2,-2,0,-2,-3
1558439970522653,-2,-1,-2,0,-5,-3,-4,-2
1558439970531636,-3,-4,-1,-3,-1,4,1,-2
1558439970531636,-1,-1,1,-1,1,0,-1,-2
1558439970537613,0,0,3,3,-1,-5,-4,0
1558439970537613,0,1,6,0,2,-3,-2,1
1558439970546589,-1,0,0,1,10,12,7,2
1558439970546589,2,0,-1,-1,-3,-4,-2,0
1558439970559565,-2,-5,-5,-1,-3,3,-1,-4
1558439970559565,-1,-3,1,-3,-7,-7,-5,-3
1558439970568531,1,5,3,-1,1,-4,-5,0
1558439970568531,-2,-1,-3,-1,3,6,1,0
1558439970582493,-1,3,3,-3,-7,-1,1,-1
1558439970582493,0,0,-1,0,5,-8,0,0
1558439970591469,0,-2,-3,-1,7,4,5,0
1558439970591469,-1,1,4,1,-1,0,-3,0
1558439970597454,-2,-4,-3,-3,-4,-3,-3,-2
1558439970597454,-1,1,-1,1,2,3,-2,2
1558439970606429,-1,-2,-5,-5,-13,-14,-6,-3
1558439970606429,-4,-2,-1,-2,-3,-3,-3,-3
1558439970620392,-1,-3,1,1,2,-2,3,0
1558439970620392,1,2,0,3,5,9,0,-2
1558439970629369,-2,-5,0,0,-4,-2,0,2
1558439970629369,-2,-1,2,3,4,4,3,1
1558439970642333,1,-3,-3,-3,-3,-3,-3,-1
1558439970642333,-1,-4,-2,-3,-4,1,0,0
1558439970651309,3,4,2,2,8,6,5,2
1558439970651309,0,2,3,0,-2,-7,-4,0
1558439970657294,-7,-4,-4,-4,-7,-1,-1,-3
1558439970657294,0,-1,-3,-1,-3,-3,-3,-3
1558439970666270,-2,-4,-6,-5,-9,-12,-5,-5
1558439970666270,2,-2,-4,0,2,3,7,1
1558439970680233,0,1,2,1,9,8,3,2
1558439970680233,0,-2,-1,-3,-2,4,0,-1
1558439970689210,0,-1,-1,-1,-2,3,-5,-3
1558439970689210,-3,-3,-5,-2,-8,-8,-8,-6
1558439970702174,-2,1,-1,-2,-2,-3,0,1
1558439970702174,-3,0,0,2,4,0,0,-1
1558439970711150,0,-3,-3,0,-2,-3,-1,0
1558439970711150,-1,-1,-4,-7,-4,-4,1,0
1558439970717133,-1,-1,-3,0,3,2,-1,-2
1558439970717133,1,0,2,0,-1,4,2,1
1558439970726109,0,2,-1,1,1,-1,0,0
1558439970726109,-2,-2,-1,-3,-7,-4,-8,-6
1558439970740079,1,1,1,-1,-3,1,-3,-2
1558439970740079,-1,-3,0,2,1,-4,9,4
1558439970749049,1,1,3,-1,2,-1,0,-1
1558439970749049,1,0,2,-1,3,4,0,1
1558439970763012,-2,-2,-4,0,-1,0,-1,-4
1558439970763012,-1,-1,-2,-1,-5,-3,-3,-2
1558439970770995,-5,-3,-3,-4,-9,1,-2,-2
1558439970770995,0,1,1,2,5,3,4,1
1558439970777975,3,3,5,3,11,6,6,6
1558439970777975,-2,-4,0,-1,1,-5,-9,-4
1558439970786950,-4,-6,-5,-5,-8,-8,-4,-3
1558439970786950,-1,-1,-3,-3,-9,-2,-4,-3
1558439970799919,-1,-2,0,0,-6,-4,-2,-3
1558439970799919,-1,0,-5,-2,2,-1,-1,-1
1558439970808890,0,1,0,1,-3,0,-2,-2
1558439970808890,-1,-2,-1,-4,-4,-8,-5,1
1558439970822863,-4,-5,-1,0,-4,-4,0,-2
1558439970822863,-4,-4,-2,-1,-3,0,0,-1
1558439970831829,2,0,5,3,10,6,3,3
1558439970831829,0,-4,-4,-2,-1,2,1,-1
1558439970837923,1,-1,-3,-4,-6,4,-3,-1
1558439970837923,-1,-2,-1,-2,-6,0,-4,-2
1558439970853831,1,-2,-2,-1,3,-3,1,3
1558439970853831,-2,-2,-2,2,-1,0,0,-2
1558439970859763,-2,1,-3,-2,-3,-9,-4,-2
1558439970859763,-3,0,-3,-1,0,0,0,-1
1558439970868732,-1,-4,-5,-6,-8,-12,-8,-3
1558439970868732,-2,1,1,2,9,9,5,3
1558439970882739,-1,2,1,1,5,0,1,2
1558439970882739,2,1,2,0,0,5,2,-2
1558439970891672,-4,-3,-5,-2,-5,-2,-6,-6
1558439970891672,0,-3,-2,-1,-7,-10,-8,-2
1558439970906627,-2,-2,-1,-1,-3,1,1,0
1558439970906627,1,0,3,-1,5,-1,1,3
1558439970907624,-1,-1,-4,0,-4,-1,0,-2
1558439970907624,1,0,2,0,1,8,9,2
1558439970928570,1,-2,-4,-4,0,-9,-3,-1
1558439970928570,-1,-1,-2,-2,-10,-11,-6,-4
1558439970930563,-1,-1,5,1,3,4,1,0
1558439970930563,-3,-3,-1,-2,-3,0,-4,-5
1558439970942538,1,-2,-1,2,1,1,1,0
1558439970942538,1,4,3,3,6,-1,4,2
1558439970951507,-3,-1,-2,-6,-5,2,-4,-3
1558439970951507,-3,2,3,2,2,1,3,0
1558439970974450,-2,-3,-1,-1,-3,-3,-1,0
1558439970974450,-2,-4,-4,-5,-9,-8,-8,-3
1558439970975446,-1,-3,-2,1,4,3,-1,-2
1558439970975446,0,-6,-7,-4,-8,-9,-7,-4
1558439970980434,1,-1,-1,-2,2,-10,-4,-1
1558439970980434,-4,-2,0,2,0,3,2,-1
1558439970989411,0,0,3,2,6,4,8,5
1558439970989411,-4,1,-4,-8,-9,-6,-8,-2
1558439971011478,-2,-2,0,-3,-6,-5,-5,-3
1558439971011478,0,-3,-2,-4,0,-2,-1,-2
1558439971013346,-1,0,-2,3,3,0,-3,-2
1558439971013346,-3,0,-1,-1,-2,-6,-5,0
1558439971026522,0,0,-2,-2,-1,3,6,1
1558439971026522,3,1,4,1,6,5,0,2
1558439971028305,3,2,-1,-3,9,9,11,4
1558439971028305,2,1,4,3,-1,-3,-4,-3
1558439971049250,-3,-3,-3,-2,-4,-4,-6,-6
1558439971049250,-3,-2,-4,-3,-7,-4,-4,-1
1558439971050249,-1,-1,0,0,1,0,2,1
1558439971050249,0,0,0,-1,4,4,1,2
1558439971062212,1,0,-2,-1,-2,2,1,-1
1558439971062212,-1,-2,-5,-4,-7,-5,-2,-4
1558439971071188,0,-1,1,0,-2,-4,-2,0
1558439971071188,0,0,-5,-1,1,1,2,-1
1558439971094164,-3,-3,0,-2,-6,-7,-11,-4
1558439971094164,-1,-1,4,-3,1,4,4,0
1558439971095124,1,-1,-1,-2,-2,-5,-2,-3
1558439971095124,0,-2,-3,0,11,10,5,3
1558439971100109,-2,0,-2,0,8,11,8,3
1558439971100109,-1,2,-1,0,-4,-8,-4,0
1558439971109113,-2,-1,-1,-1,-10,-7,-8,-4
1558439971109113,-4,-5,0,-2,-8,-10,-6,-2
1558439971131028,1,1,1,-2,1,5,1,-1
1558439971131028,0,1,-1,1,0,2,-1,1
1558439971133022,0,1,3,0,8,8,6,1
1558439971133022,-2,-1,0,-3,-7,-10,-5,-4
1558439971146985,-1,2,-3,0,0,-2,-1,1
1558439971146985,-1,-1,-1,0,-1,7,2,-1
1558439971147983,-2,-2,-3,-1,-2,-1,-4,-3
1558439971147983,-2,-1,0,0,-4,3,-1,-4
1558439971159952,-1,-2,-1,0,-7,-9,-7,-4
1558439971159952,-1,-1,-1,-3,-4,-12,-4,-4
1558439971169133,-1,-1,-3,-4,-1,1,1,-2
1558439971169133,0,-1,1,0,8,11,5,3
1558439971182890,-1,1,4,4,11,11,8,6
1558439971182890,-3,-2,-6,0,-8,-4,-7,-3
1558439971191867,-5,-2,-5,-7,-8,-7,-5,-4
1558439971191867,2,-1,-3,-5,-4,-3,3,0
1558439971205827,1,0,-2,-4,-9,-7,-9,-5
1558439971205827,0,-1,2,3,10,4,1,2
1558439971207821,0,1,1,3,-1,-2,-3,-1
1558439971207821,2,1,1,3,4,4,3,1
1558439971219791,-1,-2,-4,-2,-3,-4,-2,-2
1558439971219791,-3,-9,-7,-2,-7,-1,-3,-2
1558439971228768,0,1,1,-1,2,0,-1,1
1558439971228768,-1,1,-1,-1,1,-5,-2,-2
1558439971251705,-1,-1,1,2,-1,1,-2,-1
1558439971251705,0,0,-4,-5,-3,-3,-4,-3
1558439971252704,2,0,-1,-3,-4,-4,-4,0
1558439971252704,-1,-3,-1,-1,-2,-1,4,1
1558439971266665,1,0,3,1,9,5,4,2
1558439971266665,0,-1,-2,-2,-2,0,-6,-4
1558439971267667,-5,-2,2,-1,-5,-2,-4,-4
1558439971267667,-1,-1,-1,0,-7,-3,-4,-1
1558439971288611,-2,-3,-1,-6,-6,-7,0,1
1558439971288611,5,4,4,2,19,7,16,8
1558439971290601,1,0,0,0,1,-1,-3,-2
1558439971290601,-4,-3,0,0,-8,-5,-9,-7
1558439971302569,-2,-1,-6,-1,-2,-5,-1,-3
1558439971302569,-4,-4,-2,-1,-2,-4,-2,-4
1558439971311544,-1,-1,1,2,1,4,6,1
1558439971311544,1,2,0,1,8,7,5,2
1558439971326504,-1,0,0,-3,-6,-6,-6,-1
1558439971326504,-1,-1,-3,-4,-6,-6,-6,-3
1558439971327502,-2,-2,-6,-1,-11,-4,-4,-3
1558439971327502,-2,-2,1,-1,-5,1,-4,-2
1558439971339472,2,3,2,2,8,-2,3,0
1558439971339472,-2,0,2,0,2,0,5,2
1558439971348492,-1,-2,0,-1,3,8,4,0
1558439971348492,-1,-1,-1,-4,-9,-13,-9,-4
1558439971362407,-1,-2,-5,-3,-6,3,-5,-4
1558439971362407,-3,-4,3,2,2,6,1,0
1558439971371384,1,-1,-2,0,5,-2,1,2
1558439971371384,-2,-3,-6,0,-4,-6,-5,-2
1558439971386353,1,-2,-1,-2,5,8,2,2
1558439971386353,-1,-1,1,-3,-4,-3,-7,-5
1558439971387341,2,-1,-1,1,4,9,9,4
1558439971387341,1,0,5,1,1,-5,1,1
1558439971409287,-1,-2,0,-2,-8,-5,-1,-4
1558439971409287,1,-1,-4,-1,3,11,3,1
1558439971410285,-3,-1,3,1,3,-1,-4,-1
1558439971410285,-1,-1,-3,-2,4,-5,2,2
1558439971422508,-2,-2,0,-1,-6,-4,-4,-3
1558439971422508,2,-1,-4,-4,-8,-7,-3,-2
1558439971431224,-4,-2,-3,-3,-3,-4,-4,-5
1558439971431224,0,-1,-3,-6,1,6,3,-1
1558439971446185,-5,-2,0,1,1,0,1,-1
1558439971446185,2,3,4,3,9,5,7,6
1558439971448186,1,0,-7,-4,-1,-1,-4,-2
1558439971448186,0,0,-2,1,-4,0,-2,-2
1558439971460148,-3,-3,-2,1,-2,-2,-4,-2
1558439971460148,-2,0,-4,-5,-7,-2,-1,1
1558439971476109,-2,1,-1,-1,-7,-7,-4,-4
1558439971476109,-2,-4,-3,-2,-1,-2,0,-3
1558439971482088,-1,0,6,0,3,1,0,-1
1558439971482088,0,-2,-2,0,5,1,0,0
1558439971491066,-3,-4,-5,-6,-8,-6,-3,-2
1558439971491066,-1,0,-4,-2,-2,1,-2,-2
1558439971506070,0,-1,-1,0,2,-4,-2,1
1558439971506070,-3,-1,0,-2,-4,-9,-4,-2
1558439971508019,1,0,-3,-5,1,4,-1,0
1558439971508019,-2,-1,-1,-3,-2,5,-2,-5
1558439971519988,1,1,1,-1,3,-8,3,3
1558439971519988,0,-4,-2,3,1,4,3,0
1558439971528964,1,2,1,2,2,-4,0,2
1558439971528964,-3,-3,0,0,3,-1,0,-2
1558439971543004,-2,-4,1,-2,-7,-3,-4,-5
1558439971543004,-4,-3,-3,-5,-13,-9,-9,-5
1558439971551901,0,-1,-1,-1,1,4,4,2
1558439971551901,-1,2,2,2,7,6,3,3
1558439971566932,-3,1,-6,-1,-4,1,-1,-3
1558439971566932,-2,-5,-2,-1,-13,-11,-8,-6
1558439971567863,1,0,-1,0,-2,-4,-2,0
1558439971567863,1,1,0,-1,3,-2,9,3
1558439971580040,1,0,2,0,13,8,3,2
1558439971580040,1,2,0,1,1,0,-1,-1
1558439971588807,-1,-2,0,-1,-2,-2,1,-2
1558439971588807,1,0,-3,-4,-12,-16,-11,-5
1558439971602766,-3,-4,-3,-2,-8,-2,-4,-1
1558439971602766,-4,0,-1,-1,4,9,5,1
1558439971611742,-2,-3,1,3,7,7,2,-1
1558439971611742,1,-2,4,1,1,-2,-1,-1
1558439971625705,-1,-3,-2,-3,-9,-9,-5,-4
1558439971625705,0,-1,1,2,4,-2,-3,0
1558439971632707,-1,-2,-5,-6,-8,-7,-7,-4
1558439971632707,-2,-4,-6,-2,-5,1,-2,-1
1558439971639668,2,1,-2,3,4,7,7,3
1558439971639668,2,0,1,0,3,-3,5,1
1558439971648644,-3,-2,-2,-1,-1,-3,-2,0
1558439971648644,-2,0,1,2,1,4,0,1
1558439971662744,-2,-2,-1,-2,2,6,2,-2
1558439971662744,-1,1,-1,-3,-4,-3,-4,-3
1558439971671582,-3,-2,-4,-3,-10,-13,-10,-6
1558439971671582,-3,-2,-5,-3,-13,-9,-7,-4
1558439971685544,-1,-1,-2,0,6,13,10,5
1558439971685544,-2,-2,-1,1,10,4,-1,-2
1558439971692530,-1,-1,3,1,1,1,-2,-2
1558439971692530,1,-4,-3,-6,-1,0,2,2
1558439971699507,-1,-1,-2,0,-3,-5,-4,-2
1558439971699507,0,1,-3,-2,-12,-9,-6,-3
1558439971708484,-2,-1,-1,-3,-4,-1,2,1
1558439971708484,0,-2,5,0,11,-4,1,2
1558439971722447,-2,-4,-5,-2,-6,0,-5,-5
1558439971722447,2,2,4,1,5,5,7,3
1558439971731421,-1,-2,-3,-2,0,3,1,0
1558439971731421,-2,1,2,0,-4,5,-1,-2
1558439971745514,0,0,-2,-1,-6,-16,-12,-3
1558439971745514,-1,-2,-2,-1,4,8,0,1
1558439971752364,-1,0,-1,1,-5,-1,-1,-2
1558439971752364,-1,-2,-4,-2,2,2,1,1
1558439971760675,0,2,0,-2,-2,-5,0,-1
1558439971760675,-5,-3,-3,-2,-2,-5,-6,-4
1558439971769321,0,-2,3,-1,2,1,4,0
1558439971769321,1,1,-1,1,-2,-3,-4,-1
1558439971782420,-2,-2,-5,-2,-2,-2,-3,-2
1558439971782420,-4,-4,-1,-2,-10,-3,-2,-5
1558439971791274,-3,-3,-6,-3,-3,0,-8,-4
1558439971791274,-2,1,0,0,3,4,3,0
1558439971805491,3,1,2,1,9,5,4,3
1558439971805491,0,-1,0,-2,-1,-4,1,1
1558439971812220,-4,-4,-1,2,-2,-4,-1,0
1558439971812220,0,-1,-2,-4,-7,-3,-5,-5
1558439971829395,-2,1,-3,-3,-3,-1,0,-1
1558439971829395,-1,-1,-3,1,3,5,0,0
1558439971830157,0,1,1,-2,-6,-6,-1,-4
1558439971830157,0,-1,1,-2,1,6,3,0
1558439971842125,-1,-3,-6,-1,-5,-1,0,-2
1558439971842125,-2,-4,2,-4,-3,-1,0,-1
1558439971851193,3,2,4,2,12,-11,1,4
1558439971851193,1,0,0,4,9,10,4,1
1558439971866061,-3,-2,0,-4,-9,-5,-4,-1
1558439971866061,0,0,-10,-6,-6,-1,-1,-3
1558439971873046,-2,-3,-2,2,0,4,1,0
1558439971873046,-1,-2,-3,0,-3,-4,-3,-1
1558439971889000,-1,-2,2,-2,5,11,4,-2
1558439971889000,-3,-3,-3,-5,-9,-14,-6,-4
1558439971889997,0,-1,2,0,0,-4,0,-2
1558439971889997,1,-1,-1,1,1,0,-1,-1
1558439971902969,-2,-3,-5,-1,-5,3,3,-1
1558439971902969,3,2,3,0,6,9,7,2
1558439971918920,-2,0,-6,-2,3,2,-2,-2
1558439971918920,-2,0,6,0,-3,-10,-8,1
1558439971926129,-2,0,0,0,1,-1,-9,-3
1558439971926129,-1,0,-2,0,-10,-1,-2,-1
1558439971932882,0,-1,-1,1,2,-1,2,1
1558439971932882,0,1,-2,-2,3,0,2,1
1558439971949102,0,-2,-2,-1,-3,-2,-1,-2
1558439971949102,-2,-1,1,2,12,5,0,1
1558439971949839,1,-1,2,0,-5,0,-3,-1
1558439971949839,-2,-2,-2,-3,0,6,1,-2
1558439971962802,-2,-3,-3,-3,-10,-12,-7,-4
1558439971962802,-4,-3,-3,-6,-13,-9,-6,-6
1558439971971778,1,-3,-3,-1,1,7,6,2
1558439971971778,0,2,1,2,5,-2,7,3
1558439971985743,0,0,1,-1,4,1,0,1
1558439971985743,-2,-3,-3,-1,-4,-3,-9,-4
1558439971992721,-3,-2,-2,-1,-9,-6,-6,-3
1558439971992721,2,1,0,2,9,12,9,5
1558439972008922,-1,2,-3,-3,-3,-7,0,-1
1558439972008922,-1,0,2,1,0,-3,-5,-2
1558439972010674,-5,-3,-1,-3,6,10,2,-1
1558439972010674,1,-1,-1,-2,-6,-6,-4,-3
1558439972022641,3,0,2,-1,1,-6,0,1
1558439972022641,2,1,2,3,4,-2,4,3
1558439972031638,-2,-2,2,-4,-10,-7,-6,-5
1558439972031638,-3,-3,-1,-2,-5,-2,-4,-5
1558439972045581,-1,-5,-1,0,-1,-2,2,0
1558439972045581,-1,1,-2,-2,1,0,0,3
1558439972052562,3,2,-2,2,11,9,5,0
1558439972052562,-3,1,2,2,0,-2,1,-2
1558439972068519,-2,0,-3,-5,-9,-7,-10,-4
1558439972068519,-4,-5,-4,-2,-6,-7,-5,-5
1558439972070514,0,-1,2,2,9,4,8,4
1558439972070514,-3,-5,-6,-5,-11,-7,-6,-4
1558439972082482,-1,-2,-1,-3,-5,2,-2,-1
1558439972082482,2,2,2,2,12,4,9,2
1558439972091458,-2,-1,-2,-3,-8,-5,-5,-4
1558439972091458,1,-1,-3,-1,0,1,2,-1
1558439972105426,-4,-1,2,0,0,2,-2,-4
1558439972105426,1,0,0,0,1,-1,1,2
1558439972112405,-1,0,-2,-3,-9,-13,-6,-4
1558439972112405,-3,-4,-6,-4,-5,0,-6,-1
1558439972128362,-1,0,0,2,12,6,7,6
1558439972128362,-2,0,1,1,-2,0,-4,-5
1558439972130354,0,-2,-3,-8,-5,-2,-2,-2
1558439972130354,0,-1,0,0,0,0,-1,-1
1558439972142321,-1,1,3,-1,-5,1,-4,-3
1558439972142321,-2,-4,-2,-1,0,4,3,-1
1558439972159279,2,2,-2,0,0,-2,-1,0
1558439972159279,1,-2,-5,-2,0,-1,-1,-1
1558439972165269,0,0,-1,1,4,2,2,-2
1558439972165269,0,0,-2,-1,-7,-1,-2,-1
1558439972172244,-2,-3,-2,-2,-5,3,-2,-5
1558439972172244,-1,0,3,2,6,1,3,2
1558439972189197,-3,-3,-5,-1,1,-4,-2,-2
1558439972189197,1,-3,-2,-3,-8,-8,-6,0
1558439972190195,-2,-1,-2,4,5,3,6,3
1558439972190195,-2,-3,1,-3,-4,-2,-3,-4
1558439972202165,-1,-2,-4,-4,-12,-10,-8,-5
1558439972202165,-1,-2,-6,-5,3,4,-2,-1
1558439972211139,3,2,1,1,4,-9,1,2
1558439972211139,-1,-1,2,1,-3,2,1,0
1558439972226097,-1,0,2,1,3,5,1,-2
1558439972226097,-4,-4,-3,0,-6,-4,-8,-7
1558439972232087,0,2,0,1,5,8,8,2
1558439972232087,1,4,-2,-3,-1,-6,-5,0
1558439972249037,-1,-3,-4,-1,-1,-3,2,0
1558439972249037,2,0,0,-2,-2,0,0,-1
1558439972250035,-1,-2,1,-2,-2,-8,-8,-3
1558439972250035,-1,-3,-3,-1,0,-3,0,-1
1558439972262006,-1,-2,-1,0,0,1,2,3
1558439972262006,1,0,1,0,1,-3,1,1
1558439972270983,-5,-3,0,-1,-1,3,0,1
1558439972270983,-3,-3,-5,0,-6,-3,-3,-5
1558439972285939,1,-1,-2,-1,5,2,-1,-1
1558439972285939,-2,0,0,1,0,5,3,-2
1558439972292920,-1,-2,5,2,-3,-13,-4,-2
1558439972292920,1,0,-4,0,0,-1,0,1
1558439972308878,-3,-2,-3,-6,0,3,0,-2
1558439972308878,-2,-1,-2,-2,-12,-5,-5,-4
1558439972309874,-1,-2,-2,-2,1,11,4,1
1558439972309874,0,1,2,2,9,7,2,1
1558439972322839,1,0,3,3,4,-2,1,0
1558439972322839,0,0,-4,-4,-4,-4,-3,-3
1558439972331815,0,-3,-3,-2,-2,2,-3,-4
1558439972331815,-1,-1,-2,-3,-7,-5,-2,-2
1558439972353757,-2,0,-3,-2,-3,-3,1,2
1558439972353757,0,0,3,3,7,0,-2,1
1558439972354753,-1,-5,-1,-2,-5,-6,-4,-2
1558439972354753,-3,-2,3,1,0,5,3,0
1558439972368716,0,1,-2,0,-1,1,-1,-1
1558439972368716,-3,-2,0,0,-3,-4,-2,-3
1558439972370710,0,-1,-8,-5,-2,-5,-5,0
1558439972370710,-2,-4,-3,0,-1,0,-1,-1
1558439972382687,-3,-2,-1,-1,-2,-4,0,1
1558439972382687,-2,0,2,3,2,-1,4,5
1558439972391655,-5,-3,-3,-2,-3,5,2,-2
1558439972391655,-1,-3,-1,-5,-1,-2,0,0
1558439972405618,1,2,2,1,3,3,-2,-2
1558439972405618,-3,-4,-4,-2,-2,-5,-2,-3
1558439972412599,-1,-1,-5,-3,-4,-8,-2,0
1558439972412599,1,0,5,4,7,10,4,0
1558439972428557,-2,-3,-1,-3,-8,-8,-2,-2
1558439972428557,1,3,6,1,-2,1,-4,-1
1558439972430551,-2,-2,1,1,1,5,-1,-2
1558439972430551,1,3,-1,0,-1,-6,-3,0
1558439972442519,0,2,1,4,6,4,3,2
1558439972442519,-3,-5,-5,-3,0,-4,2,1
1558439972451496,2,1,-6,-6,-6,-2,-3,-2
1558439972451496,-2,-4,-2,0,-5,-1,-4,-3
1558439972465457,-3,-3,0,1,-7,-6,-3,-2
1558439972465457,-1,-1,-4,-4,1,-2,-1,-1
1558439972472464,1,3,3,2,-5,-6,-1,0
1558439972472464,-2,-3,-7,-2,-2,-5,-2,-1
1558439972488397,0,-1,2,2,10,13,8,4
1558439972488397,-1,1,1,0,-2,1,2,1
1558439972490392,-2,-4,1,-1,-4,-8,-11,-5
1558439972490392,-2,0,-1,-3,-8,-5,-2,-1
1558439972502361,0,-1,-1,0,4,4,1,-1
1558439972502361,-1,-1,-8,-3,-1,0,1,-2
1558439972519314,0,-1,-2,0,4,0,1,2
1558439972519314,-1,0,-4,-3,-7,-5,-7,-5
1558439972525298,-1,-2,-6,-5,-6,0,-5,-4
1558439972525298,1,0,8,5,1,-2,-1,-1
