timestamp,emg1,emg2,emg3,emg4,emg5,emg6,emg7,emg8
1558439853021096,2,0,-1,-11,2,4,6,5
1558439853021096,1,1,5,6,5,-4,-5,-3
1558439853021096,-2,-4,0,4,-3,2,-3,-1
1558439853021096,-3,-3,-1,-10,-1,4,0,-3
1558439853025086,-2,0,0,-4,-11,-14,-5,-3
1558439853025086,-1,2,0,10,8,10,8,1
1558439853028078,2,1,0,-3,2,-3,-3,0
1558439853028078,-5,-7,-10,-9,-11,-8,-16,-9
1558439853041044,0,3,9,12,8,7,9,3
1558439853041044,-2,1,2,-1,6,9,5,1
1558439853042040,0,-1,-2,-4,3,2,-1,-4
1558439853042040,0,-1,-3,3,-3,-4,1,0
1558439853054009,-5,-6,-2,-1,-14,-10,-14,-9
1558439853054009,0,-1,-4,-7,-7,-5,-2,1
1558439853062986,-2,2,3,0,8,3,5,0
1558439853062986,-1,0,1,5,1,-4,-1,1
1558439853070964,-3,1,0,-2,-1,-5,0,1
1558439853070964,0,-3,-2,-6,-4,-1,-1,0
1558439853083929,-1,-1,-1,0,-7,-6,-7,-4
1558439853083929,0,2,0,5,9,9,10,3
1558439853095902,0,-2,2,-6,5,8,6,1
1558439853095902,-1,-1,-4,-5,-10,-12,-7,-4
1558439853107865,-1,1,-3,-2,-5,-8,-5,-4
1558439853107865,0,2,6,3,8,8,5,1
1558439853145764,-2,1,0,12,-4,-6,-7,-2
1558439853145764,0,-1,-2,-1,-2,-3,-1,1
1558439853146762,-1,-2,-2,-9,4,0,-2,-1
1558439853146762,0,0,-2,2,-5,-5,-7,-4
1558439853147760,-1,-2,1,1,-3,0,3,2
1558439853147760,-1,-1,-1,-5,-3,-6,-1,-1
1558439853147760,2,3,1,-4,-5,-3,-3,-2
1558439853147760,-5,-7,-5,2,-8,-5,-4,-4
1558439853158729,1,0,2,-6,1,-7,2,0
1558439853158729,-1,-2,-2,-3,10,12,7,2
1558439853166707,2,1,4,11,4,-2,1,4
1558439853166707,-1,0,-2,-2,2,7,-1,0
1558439853173688,-3,-1,-2,-7,-10,-2,-8,-5
1558439853173688,-1,-1,-4,-1,-5,-3,-1,0
1558439853189646,-3,-2,-2,2,3,1,5,0
1558439853189646,0,-1,-3,-7,-1,-3,-3,-3
1558439853196626,-1,0,5,4,1,0,-4,-1
1558439853196626,-1,1,2,3,-3,-6,-5,-2
1558439853203608,-2,-3,-3,-2,-4,2,-1,-1
1558439853203608,2,0,0,-4,2,-1,0,0
1558439853218568,-2,-5,-7,-1,-5,-1,-2,-3
1558439853218568,1,1,0,0,-3,-6,-3,0
1558439853226547,-2,-2,-4,-7,-4,0,1,-2
1558439853226547,-2,-4,1,3,-1,-7,-4,-2
1558439853235523,3,1,4,1,5,4,6,6
1558439853235523,-3,-4,-7,-7,-4,3,-2,-4
1558439853249486,-1,-4,-5,-2,-8,-2,-3,-6
1558439853249486,1,4,4,7,3,0,3,3
1558439853256468,-2,-4,-8,-11,-3,-3,-5,-4
1558439853256468,-1,-2,1,-1,-6,-2,4,0
1558439853263448,2,1,1,2,10,6,1,3
1558439853263448,-3,-3,-2,-3,-5,-3,-3,-4
1558439853279406,1,1,-2,-2,3,5,0,-3
1558439853279406,-2,0,-2,2,-5,-3,-7,-3
1558439853286388,-3,-4,-2,-2,-5,-12,-7,-2
1558439853286388,-2,-6,-5,-2,3,2,7,5
1558439853295363,1,2,0,-1,1,-5,2,1
1558439853295363,1,4,2,4,8,3,-3,1
1558439853309325,-3,-2,-1,-3,-7,-2,-7,-5
1558439853309325,-2,-1,-1,-1,-1,6,0,-3
1558439853316306,-2,-5,-3,-1,0,2,2,-2
1558439853316306,1,-2,-2,-2,-3,-6,-4,-2
1558439853324284,2,1,2,0,-1,-3,2,3
1558439853324284,1,4,4,2,7,3,3,4
1558439853339244,-2,-1,-2,-1,-4,0,-3,-3
1558439853339244,-2,-3,-3,-2,0,-5,-2,-3
1558439853346226,-1,-2,-4,0,2,0,0,-4
1558439853346226,0,-2,-2,-4,-6,1,-1,-4
1558439853355202,-2,-1,0,-1,-7,0,-2,-1
1558439853355202,-3,-4,-1,0,0,3,-4,-3
1558439853369165,0,1,0,1,0,-16,-1,2
1558439853369165,0,-2,-3,-1,4,-2,2,-1
1558439853376147,-2,-1,0,-2,2,3,3,-1
1558439853376147,1,0,-2,-1,-7,1,-3,-2
1558439853392104,0,-2,-1,-2,0,10,1,-2
1558439853392104,-3,-1,1,0,-3,-1,-3,-1
1558439853399086,0,0,-5,0,2,0,-3,-2
1558439853399086,-2,-2,1,2,2,3,1,-1
1558439853406067,0,-1,-1,-3,5,3,1,2
1558439853406067,3,1,1,1,-1,-2,-1,2
1558439853415045,-1,-4,0,-1,0,-3,-2,0
1558439853415045,-3,-3,-1,-6,-7,-3,-1,-1
1558439853430005,-1,-1,-1,0,-5,-5,-4,-4
1558439853430005,-2,1,1,3,4,6,0,0
1558439853435986,1,3,2,3,4,0,2,2
1558439853435986,0,-3,-4,-4,5,-3,3,-2
1558439853443966,-2,0,1,1,-6,2,-1,-3
1558439853443966,-2,-2,-2,-6,-4,-12,-2,-3
1558439853458925,0,1,0,-2,0,1,-2,-2
1558439853458925,-3,0,2,1,-2,-3,-7,1
1558439853466904,-2,-1,-2,3,8,10,6,0
1558439853466904,2,0,-4,-2,0,4,3,3
1558439853474883,-2,-3,3,0,2,-1,-2,0
1558439853474883,-2,-2,-5,-5,-11,-6,-4,-1
1558439853489844,-5,-1,-2,-3,-8,-11,-4,-2
1558439853489844,1,-2,0,-2,-2,3,1,0
1558439853496825,1,0,-4,0,4,0,3,-1
1558439853496825,0,3,4,3,2,-6,3,-1
1558439853503805,-2,-1,2,0,-1,5,2,-1
1558439853503805,-3,-1,-4,-1,-6,-9,-8,-6
1558439853518769,0,-1,-2,-2,0,-2,-2,-1
1558439853518769,-1,-2,-2,-4,0,7,2,-1
1558439853526744,-1,-2,-4,-4,-9,1,0,0
1558439853526744,-1,-2,1,3,-3,-10,-4,-3
1558439853535733,-1,1,3,-1,-1,-4,-5,-2
1558439853535733,0,0,0,1,11,6,3,1
1558439853549682,1,-1,-2,2,1,0,-1,0
1558439853549682,-1,0,1,-1,-2,8,2,-1
1558439853556663,-5,-7,-11,-12,-17,-11,-10,-4
1558439853556663,3,1,4,4,1,-7,5,3
1558439853563646,0,-1,2,0,8,8,3,-1
1558439853563646,1,0,-3,-3,-5,1,-4,-2
1558439853595560,-2,1,-1,-1,-1,-1,-3,0
1558439853595560,2,1,0,4,2,-2,3,3
1558439853596557,-1,-1,0,-1,-3,-6,-5,0
1558439853596557,0,3,2,-1,4,-8,-3,0
1558439853598552,0,3,1,2,2,5,3,-2
1558439853598552,-1,-5,-4,-4,-5,5,-1,0
1558439853609522,-4,-2,-3,0,0,0,2,-1
1558439853609522,1,3,2,5,11,2,5,3
1558439853616503,-1,-1,-1,0,0,-2,-2,-5
1558439853616503,-2,-1,1,-1,-8,-9,-6,-5
1558439853632461,-3,-1,1,-2,-2,2,-2,1
1558439853632461,-2,-3,-1,-3,-1,7,2,1
1558439853638446,2,-2,2,2,5,-4,2,1
1558439853638446,-1,-2,-3,-5,-1,-3,-4,-1
1558439853646424,0,-1,1,-1,-8,-11,-6,-3
1558439853646424,-3,-2,-1,-4,0,6,-3,-3
1558439853655400,-1,-4,-2,-1,-7,-2,-3,-1
1558439853655400,-3,-3,-3,-1,-1,-2,1,1
1558439853669362,1,0,1,-5,3,2,4,1
1558439853669362,-2,-4,-5,-4,-7,-5,-1,-1
1558439853676344,-4,0,0,1,1,4,0,-3
1558439853676344,-3,-3,-2,-1,-8,-1,-6,-6
1558439853692300,-3,-1,-1,-3,-1,-2,-2,-2
1558439853692300,1,0,0,1,4,3,-2,1
1558439853707263,-4,-5,-6,-2,-10,-11,-5,-3
1558439853707263,0,0,-1,-3,5,7,11,2
1558439853708260,2,2,-2,2,9,-2,-5,0
1558439853708260,-4,-2,-3,-3,-8,0,-3,-5
1558439853715240,0,3,3,3,1,-3,3,4
1558439853715240,0,-3,-5,-6,-9,-8,-15,-6
1558439853729208,-1,-1,3,2,3,4,8,2
1558439853729208,-5,-2,-3,-3,-10,-10,-5,-4
1558439853736183,1,2,2,-2,6,4,5,3
1558439853736183,-1,1,1,3,4,3,5,2
1558439853752142,1,1,0,5,7,5,-2,-2
1558439853752142,1,0,0,-1,-1,0,-3,0
1558439853759122,-3,-2,-2,-3,-2,0,-2,-4
1558439853759122,-3,-4,-3,-4,-2,-4,-1,-2
1558439853766104,-3,-1,-1,-7,-10,-8,-7,-4
1558439853766104,0,1,1,-1,0,-3,9,6
1558439853775079,-1,-1,1,2,8,11,4,-1
1558439853775079,-1,1,-1,1,3,6,0,-2
1558439853790041,1,0,1,-2,0,-1,0,-2
1558439853790041,-1,-4,-3,-2,-2,-6,-4,-1
1558439853796024,0,-3,-4,-3,-10,-3,-6,-2
1558439853796024,-1,-3,-1,-1,-1,6,-2,-1
1558439853827938,1,3,2,-2,-7,-12,-2,0
1558439853827938,-1,-1,-4,2,6,3,0,1
1558439853829933,2,1,2,1,6,2,4,2
1558439853829933,0,5,7,3,3,4,-1,-1
1558439853830931,-2,-5,-6,-1,3,10,6,0
1558439853830931,-2,-4,-3,-5,-8,-4,-4,-5
1558439853834931,-2,0,-3,-3,-3,-4,-4,-1
1558439853834931,3,2,2,-1,2,1,4,0
1558439853849881,-2,-2,-3,-4,-5,-11,-8,-4
1558439853849881,-2,1,3,2,0,2,2,-1
1558439853856861,3,-1,1,-1,2,6,6,1
1558439853856861,-1,-3,-6,-3,-7,-6,-8,-4
1558439853871821,-2,-3,-4,-2,-4,-4,-4,-2
1558439853871821,2,1,1,1,8,2,6,3
1558439853878802,1,-1,-2,0,-3,-7,-3,-1
1558439853878802,1,1,5,4,9,6,2,5
1558439853886781,0,0,-4,0,-7,-4,-6,-3
1558439853886781,-4,-1,-2,-4,-4,-1,-6,-3
1558439853895758,-3,-2,0,0,-2,7,2,-1
1558439853895758,0,-1,-1,-1,-5,-10,-4,-4
1558439853909719,-1,-3,-2,-3,-3,2,1,0
1558439853909719,0,-1,0,4,7,-3,-1,-2
1558439853916701,-1,-4,-3,-4,-4,-10,-8,-3
1558439853916701,-2,-1,1,3,7,11,7,0
1558439853931660,-1,-1,-3,-3,-8,-3,-5,-5
1558439853931660,0,-1,-3,-7,-5,-5,-2,0
1558439853938641,-2,-2,1,-1,-4,-9,-6,-2
1558439853938641,0,-1,-2,-1,5,-5,-2,2
1558439853946621,2,2,3,4,7,8,6,2
1558439853946621,1,2,-3,-3,-4,-1,-2,-5
1558439853955596,-1,-1,-2,-1,4,7,4,1
1558439853955596,-2,-2,-3,-2,-13,-10,-8,-3
1558439853969560,0,0,-1,-1,6,8,5,4
1558439853969560,1,-1,0,2,2,2,-2,0
1558439853976540,-1,-1,3,2,-5,-6,-3,-1
1558439853976540,0,1,-1,2,6,3,8,0
1558439853992498,-2,0,-2,-5,-4,-4,-8,-3
1558439853992498,-5,-2,-2,-4,-4,-3,-4,-4
1558439853998481,-1,-2,-4,-5,-5,4,-2,-4
1558439853998481,-5,-3,-4,-6,-13,-11,-9,-5
1558439854006460,1,-3,-2,2,6,-7,5,5
1558439854006460,0,-2,3,5,5,2,0,0
1558439854022419,0,-2,-4,-3,-1,-4,-1,0
1558439854022419,-3,-1,2,-1,5,4,0,-2
1558439854029399,-1,-1,-3,-4,-7,-5,-5,-5
1558439854029399,0,-1,-2,1,0,1,1,3
1558439854036381,3,4,3,1,2,-2,-2,1
1558439854036381,-2,-3,-6,-3,-4,5,-1,-4
1558439854052340,-1,0,-1,2,0,3,0,1
1558439854052340,0,-1,1,-1,1,-3,2,0
1558439854059324,0,-4,-6,-2,-2,-2,-5,-3
1558439854059324,-2,-1,-2,1,-3,-3,0,0
1558439854066300,-2,-2,5,2,0,5,-5,-5
1558439854066300,-5,-1,-1,-3,-11,-11,-3,-5
1558439854081262,-2,-4,-8,-7,-11,-9,0,-2
1558439854081262,2,2,2,2,9,0,3,6
1558439854089240,-2,-4,-1,0,0,0,0,0
1558439854089240,0,1,2,0,2,11,-1,0
1558439854096221,-1,-1,1,-1,-4,-5,-1,-2
1558439854096221,0,0,-1,0,-4,-6,-3,-3
1558439854112181,-2,0,1,0,2,2,3,0
1558439854112181,-3,-3,-3,-4,-4,-3,-2,-3
1558439854119160,-4,-1,-2,-2,-3,1,-4,-2
1558439854119160,1,1,2,3,5,7,6,2
1558439854134122,0,0,0,-2,-3,-9,-5,-3
1558439854134122,-1,-1,-2,0,6,2,2,-1
1558439854141100,1,1,0,2,13,13,11,3
1558439854141100,-4,-1,-2,-3,-8,-9,-13,-6
1558439854149080,0,-1,-3,0,3,5,3,1
1558439854149080,0,-5,-4,-2,-7,-4,-2,-2
1558439854158055,0,1,-1,-2,-7,-6,-6,-2
1558439854158055,-2,-5,-4,-2,-10,-6,-3,-3
1558439854172018,-1,2,-1,-2,-5,-7,-5,-1
1558439854172018,3,3,2,3,13,13,10,4
1558439854179000,-1,-1,-3,1,4,5,2,1
1558439854179000,-4,-3,-4,-7,-5,-3,-4,-3
1558439854194957,-4,-4,-1,-5,-9,-5,-6,-4
1558439854194957,0,-3,0,-3,-10,-7,-5,-4
1558439854200940,-1,0,1,4,4,4,3,0
1558439854200940,0,-1,2,4,12,8,8,2
1558439854217895,1,0,-3,-3,-1,-3,-4,-2
1558439854217895,-2,-2,-3,-2,-3,-10,-6,-2
1558439854218893,-3,-2,-1,-2,-4,-4,-1,-2
1558439854218893,1,4,-1,-4,-4,-2,-5,-3
1558439854231862,0,0,-1,4,1,-1,-4,-3
1558439854231862,-1,0,0,-2,-1,-3,-1,0
1558439854238844,-2,-3,-2,-4,-7,-7,-4,-1
1558439854238844,2,1,2,1,3,0,3,1
1558439854254802,-2,0,0,2,6,1,1,1
1558439854254802,-1,-2,-5,-6,-6,-8,-9,-4
1558439854261781,2,1,1,1,4,11,6,1
1558439854261781,-2,-4,0,1,-4,5,2,-2
1558439854277735,-1,-2,-4,-3,-4,-1,-1,1
1558439854277735,-2,0,1,-2,2,-4,0,2
1558439854279731,0,-3,-1,3,4,1,4,1
1558439854279731,0,-3,-1,-3,2,3,1,1
1558439854292697,-2,-3,-2,-3,-9,-5,-4,-3
1558439854292697,-4,-3,-7,-3,-3,3,0,-5
1558439854298681,-4,-4,-4,-4,-12,-11,-12,-5
1558439854298681,0,0,1,3,6,5,6,6
1558439854314643,-1,-2,-4,-5,-9,-5,-2,-2
1558439854314643,0,-2,0,0,-1,-6,-4,-1
1558439854321747,1,3,4,2,13,4,4,1
1558439854321747,-4,-2,-5,-3,-3,-3,-3,-4
1558439854345567,-1,-1,-2,0,3,1,1,-1
1558439854345567,-3,-1,1,1,-5,-7,-3,-1
1558439854346553,-1,-3,-1,-3,-4,1,-2,-7
1558439854346553,-1,-1,0,-1,-5,-2,-5,-2
1558439854352621,2,2,-1,5,9,1,5,3
1558439854352621,-1,-1,-2,-5,-2,-1,-2,-1
1558439854359560,-3,-3,-6,-4,-5,-2,-3,0
1558439854359560,-1,-2,-3,-2,-7,-5,-6,-4
1558439854374715,1,0,1,0,3,3,4,1
1558439854374715,0,1,5,4,3,3,5,1
1558439854381466,-3,-1,-1,0,-7,-4,-5,-4
1558439854381466,-3,-6,-6,-4,-10,0,-1,-4
1558439854397418,-2,-1,-2,-5,0,-23,-7,2
1558439854397418,3,0,1,2,14,10,4,3
1558439854399412,1,1,0,2,3,5,2,1
1558439854399412,-3,-1,-2,-2,-4,2,-3,-5
1558439854412376,-2,-3,-1,-5,-7,-4,-6,-5
1558439854412376,-1,1,-2,-2,-11,-4,-5,0
1558439854426338,0,0,3,1,2,-1,5,3
1558439854426338,1,-2,-3,0,10,-3,-2,4
1558439854434315,2,-1,0,1,5,9,7,2
1558439854434315,0,-1,-5,-4,-7,-3,-1,-3
1558439854441298,-3,-2,-5,-4,-12,-7,-7,-4
1558439854441298,0,0,-2,-1,-7,-8,-5,-3
1558439854465233,0,1,3,2,4,12,5,1
1558439854465233,0,3,3,2,3,3,2,-1
1558439854466230,-3,-6,-1,-5,1,-4,-2,0
1558439854466230,-1,2,0,1,3,-3,0,2
1558439854472214,1,-1,-1,-4,-5,-4,-4,-2
1558439854472214,-5,-3,-2,-2,-6,1,-3,-4
1558439854479203,1,1,0,0,-2,-3,0,0
1558439854479203,2,-1,0,0,3,-2,6,3
1558439854494163,-3,-3,-1,-1,-3,2,-4,-4
1558439854494163,-2,-3,-6,-1,-1,0,-4,-1
1558439854503135,-3,-4,-1,1,-4,-4,-4,-3
1558439854503135,-2,0,3,1,9,10,7,3
1558439854518131,0,-2,1,1,0,-6,-1,1
1558439854518131,0,0,-2,-3,-1,0,-1,-1
1558439854519092,-1,-1,-4,-3,-5,-5,-5,-3
1558439854519092,0,0,1,-2,-7,-1,-3,-2
1558439854541032,-5,-5,-5,-4,-14,-3,-8,-7
1558439854541032,-3,-4,-3,-2,0,1,0,2
1558439854542036,4,3,4,4,18,3,12,7
1558439854542036,0,0,2,2,8,1,-2,-2
1558439854555103,0,-2,1,2,4,3,0,-3
1558439854555103,-7,-7,-10,-11,-19,-10,-12,-10
1558439854560984,-1,-2,-6,-5,-11,-4,-5,-5
1558439854560984,0,-1,2,1,9,3,5,5
1558439854577942,1,-2,-3,1,-1,-2,-2,-2
1558439854577942,4,1,5,3,14,6,7,5
1558439854578930,-1,0,1,1,1,3,-1,0
1558439854578930,-2,-3,-3,-5,-10,-6,-4,-2
1558439854592106,-5,-2,-2,-3,-7,-1,-3,-3
1558439854592106,-1,-3,-3,-1,-9,-7,-3,-2
1558439854599087,1,0,-1,2,4,6,1,2
1558439854599087,-2,-2,-3,-4,-6,-2,-8,-5
1558439854614839,1,3,1,2,1,-2,7,5
1558439854614839,3,3,8,5,8,-1,3,3
1558439854622039,-2,-1,-1,-3,0,4,-2,-3
1558439854622039,-1,-2,-3,-2,-3,4,0,-3
1558439854637994,0,-1,-3,-4,-3,-6,2,0
1558439854637994,-2,-2,0,1,2,2,-1,2
1558439854638772,-3,-2,-1,-4,-6,-11,-7,-4
1558439854638772,1,-1,-1,-1,-7,-6,-7,-2
1558439854651771,-1,-1,1,-2,7,13,2,0
1558439854651771,0,0,2,3,6,5,11,3
1558439854659716,-1,-1,0,0,3,5,1,0
1558439854659716,-4,-3,-3,-1,-1,0,0,-1
1558439854674980,-2,-2,-3,-4,-8,-10,-8,-4
1558439854674980,-2,-3,-4,-5,-12,-3,-6,-7
1558439854681854,-3,0,-1,-1,-6,0,-3,-4
1558439854681854,3,4,7,2,8,3,8,4
1558439854697785,3,3,5,6,15,3,8,8
1558439854697785,4,4,-1,2,11,4,3,5
1558439854699613,-2,-3,-3,0,0,-3,-5,-2
1558439854699613,-4,-5,0,-7,-12,-7,-8,-7
1558439854711575,-8,-5,-6,-6,-21,-6,-10,-8
1558439854711575,-1,2,1,1,-6,-10,-8,-2
1558439854720556,4,3,4,2,17,14,13,7
1558439854720556,-1,-2,-3,1,2,-1,-1,0
1558439854734549,-2,-4,-1,0,1,-3,-1,-1
1558439854734549,-2,-2,-3,-3,-8,-3,-3,-3
1558439854741696,-2,-5,-5,-4,-10,-11,-9,-4
1558439854741696,2,3,1,1,3,-1,3,3
1558439854757526,-1,-1,-3,-2,-3,4,0,-1
1558439854757526,-3,-4,-7,-3,-2,1,-5,-3
1558439854765439,0,-2,0,2,-2,-7,0,2
1558439854765439,2,2,3,3,14,-2,7,6
1558439854771645,-1,0,2,-2,5,1,0,-2
1558439854771645,-1,0,1,-1,2,7,5,1
1558439854780396,-2,-3,-4,0,-1,2,-5,-4
1558439854780396,-1,-3,-6,-4,-13,-7,-6,-6
1558439854794360,0,1,-1,1,0,-4,-5,-1
1558439854794360,-1,-3,-4,0,-7,-6,-2,-3
1558439854801337,1,3,3,1,9,3,2,1
1558439854801337,-2,0,-4,-1,1,-1,-4,-1
1558439854817292,0,1,1,0,2,2,4,2
1558439854817292,-3,-5,0,-1,-4,-3,-2,-2
1558439854819288,-3,-2,-3,-7,-14,-8,-6,-4
1558439854819288,-2,-2,-2,-4,-13,-4,-3,-2
1558439854831254,1,4,3,8,18,1,9,8
1558439854831254,2,1,0,0,8,5,3,2
1558439854840393,0,-3,-1,1,3,3,3,0
1558439854840393,-2,-2,-4,-4,0,-1,-2,-1
1558439854855384,-5,-7,-6,-8,-15,-4,-7,-7
1558439854855384,-1,1,1,-2,-5,-1,-2,-2
1558439854861178,-1,0,0,0,-1,5,1,-1
1558439854861178,0,-1,-1,1,-1,0,-3,-4
1558439854878131,1,-1,-2,-2,8,0,6,2
1558439854878131,-4,-1,2,1,-1,-6,-3,-2
1558439854879129,-1,-4,-2,0,-4,1,-3,-3
1558439854879129,-3,-2,-3,-3,-5,-5,-4,-4
1558439854891100,-1,-1,-4,-3,-8,-7,-5,-1
1558439854891100,2,1,3,1,4,1,2,-1
1558439854900352,1,3,3,1,4,-1,5,4
1558439854900352,-3,-3,1,0,3,-4,3,1
1558439854915030,1,0,-3,0,4,8,3,1
1558439854915030,-4,-1,-4,-5,-3,-4,-7,-4
1558439854922097,-1,-1,-2,-2,-5,-10,-3,-2
1558439854922097,-2,0,0,-2,-1,-3,-5,-2
1558439854937010,-2,0,0,-2,-8,-6,-8,-3
1558439854937010,-2,-5,-1,-3,-2,8,7,3
1558439854944179,1,-1,-2,0,2,3,2,0
1558439854944179,0,-1,-1,2,3,-4,0,-1
1558439854951162,1,-1,-1,1,0,2,-1,-2
1558439854951162,-1,-1,-3,-4,-3,-4,-4,-3
1558439854960134,-5,1,-2,-2,-3,-1,-5,-5
1558439854960134,-1,-2,-2,-2,-9,-4,-4,-4
1558439854975091,1,1,2,0,6,6,2,1
1558439854975091,-1,-3,1,2,10,8,6,1
1558439854981852,0,0,-2,-1,-9,-9,-5,0
1558439854981852,0,0,-1,-2,2,2,-1,0
1558439854997851,-1,0,-2,-2,-9,1,-3,-4
1558439854997851,-2,0,-2,2,6,0,2,2
1558439855003986,-4,-2,0,-3,-5,-6,-4,-3
1558439855003986,-1,2,-2,-3,-7,-8,-5,-2
1558439855011777,-1,1,1,-3,-2,3,3,-3
1558439855011777,2,2,0,1,-3,-5,-3,1
1558439855020749,-1,-3,-3,1,5,1,-1,1
1558439855020749,-3,-4,-4,0,2,-1,0,-1
1558439855034711,3,2,3,3,4,-1,0,1
1558439855034711,-1,-1,-3,-3,-3,-3,-4,-4
1558439855041918,-2,-2,-5,-5,-8,-3,-5,-5
1558439855041918,-5,-5,-1,-1,-4,6,-2,-2
1558439855056651,-2,0,2,-1,-5,-8,-9,-4
1558439855056651,-2,-5,-4,1,4,0,8,3
1558439855063633,4,2,2,1,11,4,3,4
1558439855063633,0,1,1,2,4,4,3,0
1558439855071707,-3,-3,-3,-4,-5,-2,-3,-3
1558439855071707,-2,-1,0,-3,-12,-6,-6,-4
1558439855080614,-5,-4,-3,-2,-6,1,-1,-4
1558439855080614,-3,-1,-2,-5,-5,-3,-1,0
1558439855094561,-3,-1,-4,-4,-10,-13,-8,-3
1558439855094561,1,1,0,2,13,7,6,3
1558439855101559,2,-1,0,-1,6,1,4,2
1558439855101559,3,2,1,2,4,6,3,1
1558439855117857,-4,-2,1,-3,-2,-2,-4,-3
1558439855117857,-2,-1,-2,-3,-8,-5,-9,-3
1558439855124711,-2,2,0,-1,-2,2,1,1
1558439855124711,1,2,4,3,3,-6,3,3
1558439855140726,2,1,-1,3,8,6,9,4
1558439855140726,-2,-2,-3,-5,-1,0,-4,-3
1558439855142454,0,-2,1,1,-2,2,-3,-1
1558439855142454,-1,0,-4,-3,-9,-5,-7,-3
1558439855154393,-3,-2,-2,-1,0,3,1,0
1558439855154393,-1,3,1,0,0,-2,-1,-2
1558439855161375,-1,-1,-3,-5,-7,-9,-3,-1
1558439855161375,-1,2,4,2,4,4,4,1
1558439855177512,2,-3,0,2,9,7,9,4
1558439855177512,-1,-3,-2,1,-2,-1,-4,-2
1558439855191535,-3,-2,-1,0,-1,-3,-1,-1
1558439855191535,0,-2,-2,-4,-6,-7,-7,-4
1558439855200270,-3,-4,-5,-4,-10,-7,-8,-4
1558439855200270,3,3,3,4,6,-1,7,4
1558439855201265,-3,1,0,0,0,4,-1,0
1558439855201265,0,1,0,-2,7,7,2,0
1558439855214232,-4,-3,-4,-4,-2,-3,-3,0
1558439855214232,-1,-2,3,0,-7,-4,0,-2
1558439855221239,-1,-1,-1,-1,0,-6,-4,-1
1558439855221239,-3,-4,-8,-4,-1,7,1,0
1558439855237168,0,-1,2,3,2,4,-1,-2
1558439855237168,0,-2,-4,-5,0,-3,1,2
1558439855251131,0,-2,-1,1,1,3,-1,0
1558439855251131,2,2,3,4,7,7,6,2
1558439855260106,-2,-3,-5,-6,-1,3,-1,-3
1558439855260106,0,-1,-1,-1,-6,-4,-3,-2
1558439855262102,-2,-1,0,-3,-3,-1,1,-3
1558439855262102,-1,-2,0,-1,-3,-11,-2,-1
1558439855275551,-1,-1,2,4,12,6,6,2
1558439855275551,-2,-2,-1,-2,-2,2,-3,-4
1558439855281051,-2,-2,-2,1,-2,-1,-2,-4
1558439855281051,-2,0,-3,-3,-10,-8,-7,-1
1558439855298007,1,1,-1,-3,-3,-6,-3,1
1558439855298007,0,0,0,0,2,9,4,2
1558439855304347,0,0,-1,-2,0,-10,-3,-1
1558439855304347,1,-1,0,2,1,3,2,-2
1558439855321024,-2,-3,-7,-4,-8,-7,-7,-6
1558439855321024,-1,-2,-2,-3,-5,-4,-4,-2
1558439855321943,-1,-3,-1,-1,-4,5,1,-1
1558439855321943,0,-3,1,-4,-2,-8,-9,-4
1558439855335045,-1,-2,-1,2,4,4,1,0
1558439855335045,1,3,4,5,16,9,10,4
1558439855342272,-1,0,-2,-3,-4,-4,-3,-1
1558439855342272,0,-3,-1,-3,-8,-9,-3,-1
1558439855357846,0,1,1,-1,-2,-1,-4,-2
1558439855357846,-1,1,0,-2,-4,-6,-5,-3
1558439855363830,-1,-3,-4,-1,6,9,5,2
1558439855363830,-4,-4,-3,0,-4,-3,-6,-5
1558439855381013,-2,-1,2,-1,0,-1,-2,0
1558439855381013,-1,1,0,-2,-7,-8,-5,-2
1558439855381783,1,2,1,2,2,2,0,0
1558439855381783,1,0,-3,-1,6,17,9,3
1558439855394754,-1,-2,-3,-2,-4,-6,0,-3
1558439855394754,-3,-2,-4,-1,-4,-2,-3,-2
1558439855401730,1,-3,-8,-8,-13,-13,-10,-3
1558439855401730,0,0,1,0,9,13,8,3
1558439855416930,0,1,3,3,4,1,2,2
1558439855416930,-1,-1,-3,-3,-6,-6,-6,-3
1558439855423909,-1,-1,3,1,6,7,5,1
1558439855423909,-1,-4,-3,-1,-1,-3,-6,-3
1558439855440628,-2,-3,-3,-4,-9,-9,-7,-1
1558439855440628,2,1,1,-3,0,-1,1,3
1558439855441622,-2,0,-1,0,3,-2,-3,-1
1558439855441622,-3,-1,-2,1,-3,2,2,0
1558439855454814,-1,-1,1,0,0,5,0,0
1558439855454814,-3,-5,-5,-4,-6,-3,-1,-2
1558439855461569,-3,-1,0,1,2,-7,-2,0
1558439855461569,-3,1,1,-1,-8,-5,-3,-2
1558439855477525,-1,-1,-7,-6,-2,6,0,-4
1558439855477525,0,-1,-2,2,9,6,-1,0
1558439855483509,1,-1,3,1,-4,-1,1,-2
1558439855483509,-1,-2,-2,-4,-6,-8,-2,-2
1558439855500465,-2,-2,0,-1,-5,0,-2,-3
1558439855500465,-3,-3,-3,-1,-2,-1,-3,-5
1558439855501460,-3,-2,-4,-3,1,4,1,1
1558439855501460,0,-2,-2,-1,-5,-2,-2,0
1558439855514776,0,2,3,3,5,-9,-4,0
1558439855514776,1,0,-1,-2,3,3,2,2
1558439855521762,-4,-1,-1,-3,-8,-8,-6,-5
1558439855521762,-2,-2,-2,-2,-2,1,0,-4
1558439855537365,-1,-1,-2,2,0,-1,3,1
1558439855537365,1,-2,3,3,9,4,6,6
1558439855544347,0,-1,1,-1,-1,0,2,0
1558439855544347,-1,-2,-2,-1,-4,-6,-7,-1
1558439855560654,1,0,-2,-3,1,2,-3,-4
1558439855560654,-4,-4,-5,-5,-8,-6,-6,-5
1558439855561303,-2,-5,-5,-2,-5,-1,-5,-5
1558439855561303,0,-1,-3,2,4,-2,2,2
1558439855575306,0,3,3,2,-2,-4,0,2
1558439855575306,-4,-2,-4,-3,-2,0,0,-2
1558439855581613,0,-1,2,4,5,4,1,3
1558439855581613,0,0,-3,-5,-1,3,-1,-1
1558439855597533,-2,-2,0,-3,-4,-2,-5,-4
1558439855597533,-3,-3,-2,-2,-10,-11,-8,-4
1558439855604216,0,1,-1,1,9,6,3,2
1558439855604216,1,0,2,0,3,3,5,0
1558439855628122,1,0,-3,-1,0,-5,3,0
1558439855628122,0,-3,-2,-2,-7,-4,-4,-5
1558439855629120,1,0,-1,-2,-6,-7,-4,-1
1558439855629120,-1,-1,-1,0,5,3,0,-2
1558439855634159,0,-5,-6,-7,-8,-1,-3,-1
1558439855634159,0,-2,-1,-1,1,4,0,0
1558439855643082,0,-1,0,0,1,0,-3,0
1558439855643082,-1,-3,2,0,-2,-5,-1,0
1558439855657044,-1,0,1,1,4,0,2,2
1558439855657044,-2,0,-1,-5,-5,-3,1,-1
1558439855664026,-1,-2,-2,0,1,7,1,-1
1558439855664026,0,3,3,1,7,2,4,2
1558439855679983,-5,-4,-4,1,-3,-5,-6,-5
1558439855679983,0,-1,-1,-1,-4,0,1,-1
1558439855681978,0,-4,-6,-7,-9,-10,-4,-2
1558439855681978,-2,-3,-2,-2,-5,-3,-8,-6
1558439855693945,0,3,1,-3,2,7,3,0
1558439855693945,-2,2,0,3,3,-3,-4,-1
1558439855702922,-3,-3,-1,-2,-2,-2,-1,-4
1558439855702922,-1,0,0,-2,-3,-11,-3,1
1558439855716884,0,-4,-4,-2,-6,-2,-1,-3
1558439855716884,1,3,5,4,4,4,5,2
1558439855723865,2,2,-1,-1,4,7,2,-1
1558439855723865,1,0,-1,-3,-2,-1,0,-1
1558439855739823,-1,1,2,3,6,3,5,2
1558439855739823,0,-1,0,0,-4,-1,-4,-3
1558439855741817,1,-1,0,0,-5,-3,-2,-2
1558439855741817,-5,-7,-7,-3,-7,3,-2,-2
1558439855753785,1,0,1,0,7,2,4,5
1558439855753785,0,-1,-1,0,7,1,-1,2
1558439855762762,0,0,0,3,-1,1,2,0
1558439855762762,-1,1,0,-4,-5,-7,-8,-5
1558439855776724,-3,-4,-5,-5,-12,-8,-8,-7
1558439855776724,-2,-4,-5,-3,-2,-2,-1,-3
1558439855783706,2,4,2,2,8,-3,6,6
1558439855783706,-2,1,-1,0,2,0,-1,1
1558439855799663,-4,-1,-1,1,-5,-3,-5,-3
1558439855799663,0,1,1,-1,0,-7,-2,-2
1558439855801658,-4,-4,-4,-2,-3,-1,-6,-2
1558439855801658,4,3,0,1,5,4,3,0
1558439855813625,1,-1,-4,-1,-3,1,-2,-2
1558439855813625,-1,-2,-3,-3,-8,-7,-6,-4
1558439855822601,-6,-3,0,0,-8,-4,0,-3
1558439855822601,2,1,0,0,10,8,6,2
1558439855836564,0,-2,0,1,2,1,-3,-1
1558439855836564,-1,-3,1,-2,5,-1,2,0
1558439855851524,0,0,-1,1,-5,-2,0,-3
1558439855851524,-2,-3,-2,2,-11,-9,-7,-5
1558439855860500,1,3,0,-2,1,6,1,1
1558439855860500,1,-3,-5,-1,4,6,3,2
1558439855861499,2,0,0,1,9,3,1,2
1558439855861499,-3,-3,-1,-2,-5,-1,-4,-3
1558439855873466,-1,-1,-2,-3,-7,-6,-5,-2
1558439855873466,0,0,-1,2,0,-1,1,1
1558439855888431,1,1,2,0,3,2,2,1
1558439855888431,-4,-3,-5,-4,-1,-1,-3,-1
1558439855897409,-2,-3,-2,-2,-3,-7,-5,-3
1558439855897409,-2,-3,-2,-1,-5,1,-4,-4
1558439855903390,-1,-2,-1,-2,-4,-3,-1,-1
1558439855903390,0,-2,-2,-3,-6,-11,-3,-3
1558439855919346,1,1,3,2,3,7,6,2
1558439855919346,-1,-2,-5,-4,-3,-6,-5,-2
1558439855926341,1,0,0,-2,-1,0,1,0
1558439855926341,0,1,3,3,6,7,3,0
1558439855942406,0,-2,-7,-5,-4,0,0,-3
1558439855942406,-4,-3,1,-2,-2,4,-1,-2
1558439855943284,-3,-3,-3,-3,-6,-12,-9,-4
1558439855943284,0,0,0,0,4,7,6,0
1558439855964267,-2,-1,2,-1,0,-3,0,0
1558439855964267,-3,-4,-4,-2,-3,2,0,-2
1558439855972265,0,0,1,-2,-3,0,0,0
1558439855972265,-1,-1,1,1,4,1,-2,2
1558439855979190,2,0,0,2,7,1,4,1
1558439855979190,-1,0,0,-1,-6,-4,-4,-3
1558439855987165,0,3,2,1,-3,1,1,0
1558439855987165,-2,-4,-2,-2,-1,-2,0,-1
1558439856002180,-4,-2,-2,-3,-6,-4,-5,-5
1558439856002180,-1,1,-1,1,1,-3,1,1
1558439856003130,-2,-2,0,-3,5,4,2,0
1558439856003130,0,3,-1,0,3,9,5,0
1558439856018085,-5,-3,-2,-1,-7,-7,-9,-3
1558439856018085,-1,-1,-4,-5,-4,-2,0,-2
1558439856024294,-3,-3,-7,-9,-10,-7,-7,-4
1558439856024294,1,2,4,1,1,-3,-3,3
1558439856039277,2,-2,5,4,10,6,5,2
1558439856039277,0,0,3,-1,-2,-2,-4,-5
1558439856046008,-4,-4,-4,2,0,0,0,-2
1558439856046008,-2,-1,-5,-3,-9,-7,-3,-4
1558439856061968,-1,0,-1,-2,-2,5,1,0
1558439856061968,0,-2,-1,2,3,-3,-1,1
1558439856062983,-1,0,0,-2,-4,-2,-2,-3
1558439856062983,-2,-2,-3,-3,2,-1,3,0
1558439856077931,0,-2,-1,-1,2,-1,2,1
1558439856077931,0,0,2,1,2,4,2,1
1558439856083908,-3,-2,-4,0,1,-1,-2,-5
1558439856083908,-2,-1,-4,-3,-7,-6,-4,-4
1558439856098901,0,-1,-3,-4,-11,-10,-5,-3
1558439856098901,0,-1,1,2,9,11,6,4
1558439856106847,1,0,-2,-2,3,-2,2,0
1558439856106847,3,2,2,1,6,2,2,-1
1558439856121835,-4,-2,-2,-2,-6,-6,-6,-6
1558439856121835,-1,0,-1,-5,-14,-9,-8,-4
1558439856122801,-2,0,1,2,9,7,7,2
1558439856122801,1,-2,-1,2,8,3,6,4
1558439856137760,1,-3,-3,-3,-3,-3,-6,-2
1558439856137760,1,0,-2,-2,0,3,0,-1
1558439856144051,-2,0,1,-1,-9,-6,-6,-1
1558439856144051,-1,-2,2,0,0,-10,-2,2
1558439856158999,2,-2,-2,-2,-2,-1,-1,0
1558439856158999,0,-2,-1,-3,-1,1,-4,-4
1558439856166988,1,1,-1,0,0,3,1,0
1558439856166988,-1,-2,1,-2,-5,0,-3,-3
1558439856182731,-3,-2,-2,-1,5,-4,-2,-2
1558439856182731,-1,2,0,-1,3,-1,2,-2
1558439856182731,-1,0,-1,-2,-2,3,1,0
1558439856182731,-2,-1,0,-2,-8,-1,-5,-5
1558439856197722,-1,1,1,-2,0,1,1,-1
1558439856197722,1,-2,-1,1,3,-2,2,3
1558439856204677,0,-1,4,0,4,2,0,0
1558439856204677,-4,-4,-2,-2,-4,2,-2,1
1558439856218584,-1,1,-5,0,0,2,1,0
1558439856218584,-1,-2,-3,-3,-10,-11,-7,-4
1558439856226740,0,-3,-2,-5,2,6,4,0
1558439856226740,-1,-2,-2,0,-6,-5,-5,-2
1558439856249629,0,-2,1,1,0,5,1,0
1558439856249629,-2,-1,2,2,7,1,0,2
1558439856250474,-2,1,-1,0,-2,-4,-1,-3
1558439856250474,-5,-5,-8,-4,-8,-5,-6,-6
1558439856257494,0,1,2,-1,1,0,7,2
1558439856257494,-3,1,-2,-2,-2,5,-1,-1
1558439856264426,0,-1,-2,0,1,-5,-6,-1
1558439856264426,0,-2,0,-1,4,-3,4,-1
1558439856279382,0,-2,-3,-2,-7,-2,-4,-2
1558439856279382,-1,-3,1,1,-4,0,1,-2
1558439856286364,0,1,2,2,3,4,0,-1
1558439856286364,1,0,-1,0,0,-4,1,1
1558439856302320,1,1,-1,-1,5,-2,3,1
1558439856302320,0,-4,-2,1,1,-1,1,0
1558439856302320,-2,-1,0,-3,-5,1,0,-2
1558439856302320,0,1,0,-1,-4,3,1,-1
1558439856317279,-3,-1,-1,-1,-5,-3,-8,-2
1558439856317279,-2,-1,0,-1,3,5,2,0
1558439856324259,2,1,0,0,3,-5,0,2
1558439856324259,-1,-3,-2,-3,1,8,4,-1
1558439856339258,-3,-3,-4,-3,-6,-2,-1,-2
1558439856339258,-2,-1,-4,-2,-5,-5,-6,-4
1558439856346233,-2,-2,-1,-3,-6,-4,-3,-2
1558439856346233,0,2,3,3,5,1,-1,2
1558439856362161,0,1,-2,-1,0,3,1,0
1558439856362161,-1,0,0,-1,-2,0,-1,-2
1558439856362161,-1,-1,-2,0,-1,-7,-2,-4
1558439856362161,-2,-2,-1,-2,-1,3,-4,-4
1558439856378117,-2,-2,1,-1,-2,-4,-2,-1
1558439856378117,2,3,1,3,9,0,3,5
1558439856384140,0,-1,-1,1,1,-1,-1,0
1558439856384140,1,-1,0,-1,0,-2,-2,-2
1558439856399260,-3,-2,-2,-1,-2,3,-2,-3
1558439856399260,-2,-4,-2,-3,-11,-4,-7,-6
1558439856407135,-3,-7,-5,-5,-6,0,1,-1
1558439856407135,1,1,0,1,4,-2,6,6
1558439856422228,-1,1,0,4,8,5,1,1
1558439856422228,1,2,2,0,6,0,0,-1
1558439856422999,1,-1,0,-6,-9,-8,-9,-3
1558439856422999,-3,-2,-5,-2,-4,-1,-6,-3
1558439856444993,2,-1,2,-1,2,5,5,2
1558439856444993,2,-2,-4,0,-4,-3,-4,0
1558439856444993,-2,-1,-2,1,0,-1,0,0
1558439856444993,-2,1,-1,1,-2,-5,-4,-3
1558439856459112,-1,-1,-1,-1,2,-4,-1,1
1558439856459112,-2,0,-1,-2,-6,2,-2,-1
1558439856466882,-1,-3,-2,1,-5,-6,-5,-2
1558439856466882,2,0,2,-1,-2,-3,0,-2
1558439856483836,-1,0,-2,0,5,9,1,1
1558439856483836,0,-1,-4,0,1,-2,1,-2
1558439856483836,0,1,0,1,1,-1,3,3
1558439856483836,-3,-2,-2,-3,-6,-3,-7,-4
1558439856497800,-1,-2,-2,-4,-11,-2,-6,-4
1558439856497800,0,-2,1,-1,-2,-6,-3,-1
1558439856503780,1,3,1,1,5,2,2,2
1558439856503780,0,-1,-2,0,-3,-3,-2,-2
1558439856518740,-1,1,2,4,7,3,4,2
1558439856518740,-1,-1,-3,-3,-2,2,-2,-1
1558439856526756,-2,1,-1,0,0,-2,0,-2
1558439856526756,-1,-2,-2,1,0,2,5,0
1558439856542768,-1,-4,-1,-4,-8,-8,-4,-3
1558439856542768,-2,0,1,0,1,0,2,1
1558439856542768,0,-1,1,-3,-3,-10,-8,-4
1558439856542768,1,1,2,0,-3,0,-5,-4
1558439856557931,-2,-1,-1,-1,-2,4,1,-1
1558439856557931,0,-1,0,-1,2,3,3,0
1558439856564618,-1,-2,-1,-3,-4,1,-5,-3
1558439856564618,0,1,1,-2,0,-7,2,-1
1558439856578598,0,1,-1,0,3,-10,-3,-1
1558439856578598,0,0,-1,1,-1,1,-1,0
1558439856586756,-5,-6,-8,-3,-7,3,-5,-1
1558439856586756,-2,-1,-2,0,1,8,-2,-2
1558439856602747,1,-1,2,2,6,3,3,0
1558439856602747,-1,-2,-6,-3,0,0,1,1
1558439856602747,-1,0,-3,-3,1,1,0,-1
1558439856602747,-3,-3,-1,-3,-5,-9,-7,0
1558439856617642,-2,-2,0,0,-4,1,-2,-3
1558439856617642,1,1,4,0,2,2,1,0
1558439856624511,0,0,-1,1,3,-8,1,-2
1558439856624511,-1,-1,0,2,5,2,4,-1
1558439856639421,-1,0,-3,-4,-9,-10,-8,-3
1558439856639421,-3,-4,-1,-5,-6,1,-1,-3
1558439856646401,-1,-1,0,-1,-1,0,-1,-1
1558439856646401,1,-2,-4,1,-1,-2,-1,2
1558439856661381,-1,0,0,-2,-7,-6,-6,0
1558439856661381,0,-2,0,0,0,-7,-2,0
1558439856669366,0,0,1,2,4,5,5,1
1558439856669366,0,-2,1,-3,0,0,0,-2
1558439856678323,-2,0,-4,0,7,6,-2,-3
1558439856678323,-2,-1,-3,-1,-3,-9,-4,-1
1558439856684370,-1,0,0,-2,-1,0,-2,-1
1558439856684370,-2,-2,-3,-3,-1,0,2,-2
1558439856699261,0,-2,0,-2,-3,0,0,0
1558439856699261,0,-1,2,3,-2,-7,-5,-1
1558439856706240,0,-3,-4,-1,2,3,0,0
1558439856706240,-1,1,-3,-6,-4,-5,-3,0
1558439856722226,-2,-2,-3,-2,-6,-1,-2,-2
1558439856722226,-4,-4,-3,-5,-1,2,-2,-1
1558439856722226,2,2,6,3,3,1,0,3
1558439856722226,-2,0,2,3,3,1,0,-1
1558439856738154,-1,-1,-3,-2,4,2,7,3
1558439856738154,-1,-1,-1,0,-2,2,-1,-4
1558439856744137,-3,-1,-3,-5,-16,-14,-11,-7
1558439856744137,-2,-1,-3,-3,-2,2,-2,2
1558439856759452,0,-1,2,2,6,-4,0,3
1558439856759452,3,0,1,-1,5,6,2,3
1558439856767170,0,-3,-3,1,6,9,7,1
1558439856767170,-3,-2,-4,-2,-8,-5,-4,-4
1558439856782640,-2,-2,-2,0,-2,-2,-2,-3
1558439856782640,-1,-1,-1,0,0,-6,-4,1
1558439856782640,-3,-4,-4,-3,-4,-4,-5,-2
1558439856782640,0,1,3,0,1,5,1,0
1558439856797616,-4,-1,-2,-2,-3,-2,-2,-2
1558439856797616,1,0,-1,0,1,-4,1,-1
1558439856804427,0,2,3,0,6,0,2,2
1558439856804427,1,1,0,-3,-1,1,-1,-2
1558439856819610,-2,-3,0,-3,-7,0,-4,-4
1558439856819610,-2,-2,-3,-3,0,1,0,0
1558439856827321,-1,-1,-1,0,-1,7,3,0
1558439856827321,1,-5,-1,5,1,0,-3,-1
1558439856841483,3,7,4,-3,5,-5,0,2
1558439856841483,-1,-2,-3,-4,-7,-6,1,-1
1558439856849260,0,-2,-1,1,2,-5,-2,0
1558439856849260,-1,-1,0,-3,-3,-3,-3,-2
1558439856858238,-5,-6,-5,-2,-6,6,-1,-3
1558439856858238,-1,-2,-1,0,-2,-5,-2,-3
1558439856864222,0,0,1,1,-1,-3,2,-1
1558439856864222,0,-1,0,-1,4,4,3,-1
1558439856879181,1,2,-2,-2,0,-4,0,2
1558439856879181,0,3,0,0,-1,6,4,-1
1558439856887161,-1,-1,-2,0,4,7,1,-1
1558439856887161,0,-1,0,1,5,2,-1,3
1558439856901129,0,-2,-1,0,-3,-5,-2,-2
1558439856901129,-1,-2,0,-2,-9,2,-4,-4
1558439856909332,-3,-1,-2,-4,-7,-3,-3,-3
1558439856909332,-1,0,0,1,5,1,4,4
1558439856926057,2,-2,1,4,11,12,5,4
1558439856926057,-2,-1,0,-3,-5,-3,0,-1
1558439856931042,-2,-1,-1,-1,-4,-4,-7,-4
1558439856931042,-2,-1,-2,-4,-8,-4,0,-2
1558439856940018,1,0,2,1,-2,-3,-3,-2
1558439856940018,0,-2,-3,-1,4,-2,-3,0
1558439856946001,-3,-1,-2,0,1,2,-1,-2
1558439856946001,0,-1,1,2,4,0,2,2
1558439856960961,3,-2,0,-3,-6,-2,-1,-1
1558439856960961,-2,1,1,1,-3,-3,-4,-3
1558439856969023,1,-1,-4,-2,0,0,-1,-1
1558439856969023,-2,0,0,-5,-8,-2,-2,-2
1558439856977917,-4,-2,-2,-2,-3,1,-1,-4
1558439856977917,0,1,3,3,5,0,-2,-1
1558439857000414,-1,0,1,-1,-4,-1,0,2
1558439857000414,-1,2,-1,-2,-1,-9,-3,-2
1558439857002096,-1,2,2,1,-3,-4,0,2
1558439857002096,0,0,-2,1,6,6,4,1
1558439857007138,0,-1,0,-2,-3,-2,0,-2
1558439857007138,-2,-2,-3,-3,-7,-4,-8,-4
1558439857021045,-2,0,-2,-1,-6,-5,-4,-3
1558439857021045,-1,-2,-2,-3,0,-1,1,2
1558439857029025,1,-1,3,0,3,3,3,3
1558439857029025,0,-3,-3,0,-2,-3,-1,-3
1558439857045995,0,-1,-2,-2,-1,1,0,-3
1558439857045995,-2,0,-1,1,3,-5,-2,0
1558439857047006,-2,-2,-5,-5,-8,-4,-6,-5
1558439857047006,-2,-1,-1,-2,-5,-3,-7,-4
1558439857060208,-1,0,0,-1,4,-1,-1,-4
1558439857060208,-3,-6,-5,-3,-2,5,2,0
1558439857067110,4,3,3,1,9,-3,6,5
1558439857067110,-1,1,-1,0,7,3,1,-2
1558439857082882,-2,-2,-2,-4,-7,-6,-3,-3
1558439857082882,0,0,1,0,-6,-2,-3,-1
1558439857088916,-2,-3,-2,-2,-1,0,-3,-1
1558439857088916,-2,-7,-4,-4,-3,2,-1,-2
1558439857105054,-1,-2,-2,-2,-5,-5,-5,-4
1558439857105054,1,1,0,0,4,-8,-3,2
1558439857105054,-2,-2,1,4,11,11,9,2
1558439857105054,1,3,1,0,-2,-3,-1,1
1558439857119785,-2,-4,-4,-3,-3,2,0,0
1558439857119785,-1,-1,2,0,-7,-6,-3,-4
1558439857134742,-2,-2,-6,-5,-16,-4,-10,-8
1558439857134742,0,2,-1,0,4,-6,-2,2
1558439857141987,3,2,2,3,12,8,12,7
1558439857141987,0,-2,-2,-4,0,-4,-7,-1
1558439857157837,-1,0,0,2,-3,0,-3,-2
1558439857157837,-2,-4,-1,-3,-5,0,-3,-4
1558439857164661,-3,-2,-2,-1,-6,-8,-8,-5
1558439857164661,-1,-3,-1,-2,-1,2,3,0
1558439857164661,1,1,1,3,3,4,0,-1
1558439857164661,-1,-3,-1,-3,0,-1,1,1
1558439857180618,0,-1,0,-2,-1,-6,-2,1
1558439857180618,-1,-1,-4,0,3,9,4,0
1558439857194581,-2,-1,0,-2,-3,-3,-2,-3
1558439857194581,0,1,-2,0,4,10,0,-2
1558439857201634,0,-2,-1,-1,-2,-3,-1,-2
1558439857201634,-1,-3,-1,-2,2,-1,0,-2
1558439857209019,1,-3,2,-1,-3,-5,-2,2
1558439857209019,-2,1,-1,1,2,1,4,-1
1558439857224817,-2,-1,-3,-1,-1,3,-3,-2
1558439857224817,-2,-1,-4,-2,-6,-2,-6,-6
1558439857225499,-1,-1,-2,-1,-5,-6,-1,1
1558439857225499,1,2,7,2,5,-5,1,3
1558439857240462,-2,-1,-3,-1,-2,-1,-1,-3
1558439857240462,-2,-3,-2,-2,-5,0,-4,-4
1558439857246725,0,1,-1,-1,-1,-7,-2,-3
1558439857246725,0,-2,1,-1,0,4,-1,1
1558439857261406,-2,0,-3,-1,-2,0,-2,0
1558439857261406,-1,2,2,-1,-2,-2,-1,-1
1558439857269636,1,-3,-1,-1,0,0,3,1
1558439857269636,-1,-3,-3,-3,-1,-1,0,-2
1558439857284372,-1,0,1,1,3,2,-1,0
1558439857284372,0,-2,-3,0,-3,4,-3,-3
1558439857285341,-4,0,-3,-6,-5,-8,-4,0
1558439857285341,1,-1,-1,-2,3,0,6,3
1558439857300301,4,-2,0,-1,0,-4,-1,2
1558439857300301,0,1,2,-3,1,-1,-2,0
1558439857306601,-2,-1,-1,-1,0,2,-1,-3
1558439857306601,-2,-2,-1,1,-2,-3,-2,-1
1558439857322249,-1,1,1,1,-2,0,-2,-2
1558439857322249,-1,-2,-2,-3,-8,-7,-4,-1
1558439857329222,-2,-2,-1,-2,-2,8,-1,-4
1558439857329222,1,-4,-2,0,-8,-7,-6,-2
1558439857344184,0,1,2,0,7,2,6,0
1558439857344184,0,3,1,0,5,-2,3,3
1558439857345180,0,1,2,1,0,3,-2,-3
1558439857345180,-4,-5,-8,-5,-9,0,-5,-7
1558439857360139,0,-1,-2,-6,-9,-8,-4,0
1558439857360139,2,1,0,2,10,6,6,4
1558439857366126,-3,-4,-4,1,7,1,-2,-2
1558439857366126,1,5,4,-1,1,2,5,1
1558439857381086,-4,-6,-6,-5,-7,-4,-7,-5
1558439857381086,-4,-4,-2,-3,-9,-7,-5,-3
1558439857389060,-1,1,2,1,8,8,5,2
1558439857389060,0,0,2,3,11,9,3,3
1558439857404021,1,2,1,2,8,3,3,0
1558439857404021,-2,-1,-2,0,-3,2,4,-1
1558439857405018,-3,-4,-3,-5,-13,-14,-10,-7
1558439857405018,-3,1,-1,-2,-5,-5,-2,-2
1558439857419978,-1,0,1,-1,-1,-3,2,1
1558439857419978,-1,-2,-1,-1,0,-1,-2,-2
1558439857427206,0,-1,-2,-1,3,0,0,2
1558439857427206,-1,-2,0,0,-5,-2,-5,-4
1558439857442178,2,3,-2,0,4,9,5,2
1558439857442178,0,-3,-3,-2,-3,-6,-3,-3
1558439857449371,-3,-3,-4,1,4,2,2,1
1558439857449371,-2,0,-2,-5,-6,-7,-8,-3
1558439857471841,0,-3,0,1,4,-2,4,3
1558439857471841,-1,-2,1,-3,-3,-3,-1,-2
1558439857472838,1,3,0,0,1,7,5,1
1558439857472838,-1,-2,-1,-2,-5,-8,-7,-4
1558439857480222,0,-3,-3,-2,0,-4,-6,-1
1558439857480222,-4,-4,-4,0,-5,0,-4,-3
1558439857486231,-2,-3,-3,-5,-9,-9,-8,-2
1558439857486231,1,0,3,1,8,9,7,3
1558439857502123,-1,1,1,0,3,-2,-1,-2
1558439857502123,0,1,1,0,-2,-6,0,-2
1558439857509069,-2,-2,0,-2,-1,2,2,-1
1558439857509069,-3,-3,-6,-4,-4,-4,-5,-4
1558439857524983,-3,-2,-3,-1,-8,-4,-5,-4
1558439857524983,1,3,1,-1,3,3,0,1
1558439857525728,-1,0,1,1,4,-3,3,2
1558439857525728,3,4,-1,2,1,2,2,2
1558439857540655,-2,-1,0,0,-1,2,1,0
1558439857540655,-4,-4,-5,-3,-7,-1,-4,-4
1558439857546669,-1,0,-4,-4,-6,-3,-5,-1
1558439857546669,0,1,2,2,7,4,3,2
1558439857561601,0,-2,1,-2,-1,-1,0,-2
1558439857561601,-2,-2,-1,0,-2,-2,0,-1
1558439857568583,1,0,1,0,-4,-6,-4,-3
1558439857568583,-2,-5,-4,-1,-2,2,1,-3
1558439857584570,-1,1,0,-1,2,9,4,-1
1558439857584570,-2,-1,1,1,-3,-4,-2,-1
1558439857585537,-3,-3,-5,-1,4,1,-3,0
1558439857585537,-1,0,-2,-4,-6,-5,-4,-3
1558439857600498,-3,0,-1,-2,-5,-4,-2,-3
1558439857600498,1,3,4,1,11,9,6,5
1558439857606514,-6,-3,-5,-4,-4,-3,-6,-6
1558439857606514,-5,-4,-1,-2,-12,-6,-7,-5
1558439857621469,-1,0,1,3,5,2,1,1
1558439857621469,-1,-1,1,-1,-1,-6,-5,-1
1558439857628421,1,-2,-3,-3,-5,-5,-1,-1
1558439857628421,-1,-2,-2,-3,2,0,1,0
1558439857644380,-1,-4,-5,-3,-6,6,0,-3
1558439857644380,0,-3,-5,-4,-8,-2,-7,-3
1558439857645383,2,1,3,6,10,-1,9,5
1558439857645383,0,-2,1,1,7,0,-2,-2
1558439857660338,-2,-2,-3,-4,-3,5,-1,0
1558439857660338,-1,-3,-2,-1,-4,0,-3,-4
1558439857674335,1,-1,-3,-4,-11,-7,-6,-3
1558439857674335,2,2,1,1,7,8,8,3
1558439857681318,1,0,4,1,5,-1,-2,-1
1558439857681318,-2,-1,-1,-2,5,1,-2,-2
1558439857689258,0,-2,1,-3,-7,-6,1,1
1558439857689258,-5,-3,-5,-1,-6,-9,-6,-5
1558439857712233,1,0,0,-3,2,-3,-1,2
1558439857712233,-1,0,-1,-1,6,1,2,1
1558439857713194,-3,-2,-2,-2,-1,-2,-2,-2
1558439857713194,-3,-3,-2,-2,-14,-9,-6,-4
1558439857720181,1,0,1,3,0,-1,-1,-1
1558439857720181,1,-1,1,0,2,3,1,0
1558439857726200,0,1,2,0,0,-1,-2,0
1558439857726200,1,0,-2,1,6,-3,1,3
1558439857741160,-3,-4,-4,-5,-3,3,-2,-4
1558439857741160,-1,0,-1,-2,-7,-7,-3,-1
1558439857749101,0,-1,0,2,0,-1,3,-1
1558439857749101,2,0,2,-1,4,3,3,1
1558439857764093,-1,0,-1,-1,-6,-6,-4,-5
1558439857764093,-1,-2,-3,0,2,5,2,-2
1558439857771041,-1,-3,-1,-2,-2,10,2,-2
1558439857771041,1,1,0,-2,0,-7,-3,1
1558439857780017,0,-2,-1,-1,3,-5,2,3
1558439857780017,-1,-2,-3,-2,-5,-7,-7,-1
1558439857793977,-2,1,0,-3,-4,-6,-7,-4
1558439857793977,1,-1,0,-1,4,10,6,2
1558439857800988,-3,-4,-4,0,-7,-7,-6,-3
1558439857800988,0,1,3,2,6,5,7,1
1558439857808972,-1,0,0,0,-4,-2,-4,-4
1558439857808972,-2,-3,-7,-3,-5,0,-4,-4
1558439857831907,1,2,2,-1,2,-5,3,0
1558439857831907,-2,-1,-2,-1,-3,-2,-2,-1
1558439857832875,1,-2,-1,1,4,-3,-1,0
1558439857832875,-3,-1,0,1,-4,5,1,-1
1558439857848831,0,0,-1,-2,-4,-2,-6,0
1558439857848831,0,-2,-2,-2,-1,-3,-3,-2
1558439857848831,-1,3,1,0,1,-4,2,4
1558439857848831,-2,-2,-2,-2,-3,-4,-5,-2
1558439857860803,-2,-3,-3,0,-3,5,1,-2
1558439857860803,1,1,0,-3,-5,-9,-8,-2
1558439857869053,-3,-5,-4,-5,-8,-5,-7,-4
1558439857869053,2,0,1,3,13,9,9,3
1558439857883768,-4,-3,0,-2,-2,-4,-2,-2
1558439857883768,-1,-1,0,1,-3,5,2,-4
1558439857891739,3,-1,-3,-3,0,-3,-1,-1
1558439857891739,-1,1,6,2,8,9,6,2
1558439857899694,-4,-2,-4,0,-3,0,-2,-4
1558439857899694,-4,-5,-8,-3,-9,-6,-2,-2
1558439857906675,-3,-1,-2,-4,0,-3,-4,-2
1558439857906675,1,-1,-1,-3,-4,-4,-5,-1
1558439857921635,-1,0,0,0,-1,-8,-2,-2
1558439857921635,0,0,-2,-4,0,0,1,-3
1558439857928619,-2,-2,-1,1,2,12,4,-2
1558439857928619,0,0,-1,-2,-2,-10,-1,1
1558439857943587,1,2,4,0,1,-5,-2,1
1558439857943587,-3,-1,-1,-2,6,5,5,2
1558439857951557,-2,1,1,1,-3,4,2,0
1558439857951557,-1,-1,-3,-4,-5,-2,-6,-3
1558439857967864,-1,-4,-4,-3,-8,-2,1,-1
1558439857967864,-1,-3,-3,-1,0,3,0,-2
1558439857967864,2,-1,0,2,9,8,7,1
1558439857967864,-2,-2,-3,-1,-3,-5,-8,-2
1558439857981476,-1,1,-1,-2,-1,-3,-4,-2
1558439857981476,-1,-1,3,2,0,5,3,1
1558439857988460,-3,-2,-4,-4,-8,-6,-2,-4
1558439857988460,-1,1,-3,-2,-9,-8,-5,-2
1558439858003420,1,-2,0,1,8,13,8,2
1558439858003420,-2,1,4,2,5,0,2,1
1558439858011400,3,0,-6,-2,0,1,5,-1
1558439858011400,-2,-1,1,4,3,-1,0,-2
1558439858036333,0,0,-1,-1,0,3,-5,-1
1558439858036333,-4,-3,-4,-3,-9,-9,-8,-4
1558439858037330,-1,-2,0,0,-2,1,2,-1
1558439858037330,-2,-4,-1,2,-1,4,-2,-1
1558439858041375,-2,-2,-2,-5,-3,-1,-1,0
1558439858041375,2,-2,-3,0,-1,-3,-2,1
1558439858048362,-1,2,1,1,5,0,-4,1
1558439858048362,-3,-4,-5,-4,-10,-7,-5,-4
1558439858064292,0,1,1,0,1,8,2,-1
1558439858064292,1,-3,0,2,3,0,3,0
1558439858071267,-3,-2,2,-1,-4,-11,-5,1
1558439858071267,0,0,3,1,1,1,2,0
1558439858087199,-1,0,-4,-2,-1,-2,0,-1
1558439858087199,-1,-1,-4,-4,-4,-4,-5,-2
1558439858087199,0,-1,-2,-1,0,1,0,-2
1558439858087199,-1,1,-2,-1,2,3,3,2
1558439858109137,-4,-2,-1,-1,-7,-3,-5,-4
1558439858109137,0,-2,2,1,1,2,2,0
1558439858110148,-3,-2,-1,-1,-3,-3,-1,-2
1558439858110148,1,-1,-4,-4,-3,-1,0,2
1558439858124160,0,-2,-2,-3,-3,-9,0,-1
1558439858124160,-1,1,-2,-2,-3,-4,-2,-1
1558439858131079,-3,-2,-2,0,4,2,-5,-4
1558439858131079,-2,0,-2,0,-3,-3,-1,-3
1558439858156043,1,0,0,1,9,6,2,0
1558439858156043,-1,-2,0,-1,-7,-8,-6,-4
1558439858157007,-1,0,2,0,-6,-4,-5,-2
1558439858157007,-2,0,0,-1,0,-4,-3,-1
1558439858160998,-2,-2,-2,0,2,1,2,2
1558439858160998,0,2,-3,0,-3,-5,0,-1
1558439858168979,-1,-3,-2,-2,0,6,3,1
1558439858168979,-1,-1,-4,-4,-5,-2,-4,-1
1558439858183937,1,-1,0,1,4,8,2,1
1558439858183937,0,0,-1,0,1,5,4,1
1558439858190917,0,0,2,0,-1,-4,-4,-2
1558439858190917,0,-1,4,-1,-1,-9,-5,0
1558439858206875,-3,-2,-3,-1,-9,-8,-6,-5
1558439858206875,-2,-2,-3,-3,0,-2,-5,-4
1558439858207872,1,0,0,-1,5,8,7,4
1558439858207872,1,-1,1,2,2,2,5,-2
1558439858230810,-2,0,0,-2,-6,-2,-4,-2
1558439858230810,1,0,3,2,17,8,5,4
1558439858231807,-2,-1,1,-1,-2,-1,-1,-2
1558439858231807,-2,-2,-5,-3,-8,-7,-9,-7
1558439858243783,-1,-5,-4,-5,-13,-12,-9,-6
1558439858243783,2,0,1,1,10,14,12,3
1558439858251754,2,0,-1,2,3,0,-2,1
1558439858251754,-1,-2,2,0,1,7,5,-1
1558439858266872,-3,-2,-1,-3,-6,-9,-6,-4
1558439858266872,-4,-3,-6,-6,-15,-15,-12,-6
1558439858267710,-4,-4,-4,0,-4,0,3,0
1558439858267710,0,-3,-3,-4,3,1,1,0
1558439858281711,0,0,-2,0,5,0,0,1
1558439858281711,1,0,-1,0,-5,-6,-3,-1
1558439858288654,2,0,-1,-3,1,4,2,-1
1558439858288654,-1,-1,-2,-2,-8,-6,-6,-5
1558439858303616,1,1,2,4,10,4,5,1
1558439858303616,-6,-1,0,-2,-8,0,-3,-3
1558439858311595,-2,0,-1,-2,-3,-4,-3,-3
1558439858311595,-1,-1,2,1,3,4,1,2
1558439858326581,3,4,4,1,8,8,7,4
1558439858326581,-3,-4,-4,-3,-7,0,-3,-4
1558439858327551,-1,-3,-3,-4,-10,-10,-4,0
1558439858327551,-1,-1,1,-1,-3,-1,0,2
1558439858349492,-1,0,0,-1,-2,-1,-1,0
1558439858349492,0,0,-2,0,4,5,1,0
1558439858350489,0,1,-1,1,6,-3,-1,1
1558439858350489,-2,-2,-3,-4,-5,-2,-1,-2
1558439858363456,0,-2,-1,-1,-3,4,3,-1
1558439858363456,-1,-5,-2,0,4,-3,-4,-2
1558439858371437,-1,-1,1,-2,0,3,-1,-2
1558439858371437,0,0,-2,2,3,9,6,0
1558439858388388,-1,2,1,-1,-1,-5,-4,-1
1558439858388388,-2,-4,-3,-3,-6,-8,-2,-2
1558439858389386,-2,-2,-2,0,1,-8,-3,-1
1558439858389386,-2,-1,0,0,5,9,2,-2
1558439858401353,-4,-3,-5,-1,-5,3,-1,-1
1558439858401353,-1,0,1,-3,-3,-9,-2,1
1558439858408335,2,3,3,1,-1,-3,-1,1
1558439858408335,1,-2,-2,0,6,1,1,0
1558439858433268,-1,-2,-3,-4,-7,-7,-5,-2
1558439858433268,0,1,-1,-3,-6,-2,-2,-4
1558439858434266,-3,-2,-4,-1,-1,2,-2,-1
1558439858434266,1,1,3,1,1,-8,-1,3
1558439858447231,-2,-3,-3,-2,-2,3,-3,-3
1558439858447231,0,4,3,1,5,5,4,1
1558439858447231,2,-1,3,4,2,-6,1,-1
1558439858447231,1,-1,-2,-5,-7,-9,-11,-2
1558439858469190,-2,-1,-6,-5,-4,-3,-2,0
1558439858469190,0,0,0,1,-7,-3,-5,0
1558439858470170,-2,-3,-4,-2,2,4,3,-1
1558439858470170,-1,2,0,0,1,-5,3,1
1558439858484132,0,0,0,1,3,1,-1,-1
1558439858484132,0,-1,1,2,2,2,0,0
1558439858491115,-1,0,-3,-5,-8,-6,-5,-4
1558439858491115,-3,-3,-3,-2,-7,-7,-4,-4
1558439858507071,-1,-3,0,2,9,3,4,4
1558439858507071,0,-1,0,-3,0,4,4,1
1558439858507071,-1,0,0,-1,-3,-1,-2,-1
1558439858507071,-3,-4,-5,-1,-5,5,2,-3
1558439858521033,-1,-1,-2,-1,2,1,0,-1
1558439858521033,0,3,1,-1,2,-4,-2,1
1558439858529012,-1,-4,-3,-2,-7,-3,-7,-4
1558439858529012,-2,2,-2,0,4,1,3,2
1558439858544974,-1,0,2,-2,-9,-2,-3,-2
1558439858544974,0,-3,2,3,9,12,7,1
1558439858550953,-1,-2,-5,-6,-4,-13,-8,0
1558439858550953,-1,-2,-3,-3,-3,1,-1,-1
1558439858566916,-1,-2,-1,0,0,-1,-1,-1
1558439858566916,-1,-1,-1,-1,-4,-3,-4,-4
1558439858567908,-2,1,2,-1,-2,4,2,-1
1558439858567908,1,1,-1,1,1,-2,-2,-2
1558439858590846,0,2,2,2,6,2,5,2
1558439858590846,-2,-2,-4,-1,-6,-3,-2,-2
1558439858591844,-2,-1,-1,-2,-1,4,7,3
1558439858591844,-1,-3,-1,-2,-5,-1,-5,0
1558439858603812,2,0,-1,-1,-6,-12,-5,-3
1558439858603812,-2,-1,-2,-2,4,-2,1,1
1558439858610793,-2,1,1,-1,6,9,3,-2
1558439858610793,-3,0,0,-1,-4,-3,0,-3
1558439858626752,-1,-1,0,-2,-7,-1,-8,-5
1558439858626752,-2,-3,-4,-3,-1,-1,0,0
1558439858627750,0,-2,-2,3,1,-5,-1,1
1558439858627750,1,2,3,0,8,12,4,1
1558439858641716,-3,-4,-4,-5,-9,-11,-5,0
1558439858641716,-1,-3,-3,-4,-1,-5,-2,-2
1558439858648697,-2,1,2,-1,-1,0,0,-1
1558439858648697,0,2,2,-2,-4,1,-2,-1
1558439858665652,0,1,1,1,7,5,5,-1
1558439858665652,-2,-3,-3,1,-4,-2,-2,-1
1558439858671632,1,-1,0,1,1,1,0,1
1558439858671632,-3,-2,-1,0,0,-2,-3,-1
1558439858686600,0,4,3,0,0,-7,0,2
1558439858686600,-1,-1,-1,1,2,3,3,0
1558439858694584,-3,-2,-5,-2,-5,-2,-4,-5
1558439858694584,-3,-1,-5,-3,-11,-11,-6,-1
1558439858701551,0,-2,0,0,-1,7,0,-1
1558439858701551,1,0,0,-4,3,-5,-5,0
1558439858708534,1,-1,2,0,3,5,4,0
1558439858708534,0,-1,0,-1,3,2,1,-1
1558439858723491,1,0,-3,1,4,6,5,3
1558439858723491,1,1,0,-3,-10,-15,-6,-2
1558439858731475,-2,-3,-1,1,2,5,1,0
1558439858731475,-2,-2,-1,0,-2,-3,-3,-3
1558439858746434,-3,-5,-2,-2,-6,-1,-3,-4
1558439858746434,-2,-1,0,0,0,4,-1,-3
1558439858753412,-1,-1,-3,-1,-7,-6,-8,-3
1558439858753412,2,1,1,1,4,6,8,5
1558439858769372,-3,-3,-2,-1,1,-4,-1,-2
1558439858769372,-1,2,1,1,-2,-1,-4,1
1558439858770369,-3,-1,-3,-2,-6,-1,-2,-4
1558439858770369,0,2,-1,-1,5,-2,0,0
1558439858783343,-1,-3,-3,1,-1,-2,-2,-2
1558439858783343,-2,-3,-1,2,-2,3,2,-1
1558439858791314,-1,-2,-3,-5,-4,0,-5,-1
1558439858791314,-1,-3,1,-1,-3,4,-4,-2
1558439858806270,0,0,0,-1,1,-10,0,0
1558439858806270,-1,-1,0,-1,3,3,4,2
1558439858813252,-2,-3,-6,-5,-3,1,-4,-4
1558439858813252,-1,0,3,3,4,2,1,1
1558439858822233,-1,1,0,-3,-3,-5,-2,1
1558439858822233,1,0,1,1,-1,6,2,0
1558439858829214,0,2,3,4,8,3,2,0
1558439858829214,-4,-3,-5,-4,-13,-7,-9,-7
1558439858844171,-1,-2,0,-2,-2,-1,-5,-1
1558439858844171,0,-2,-2,-2,1,0,2,1
1558439858851152,1,2,3,0,-1,1,5,3
1558439858851152,-5,-2,-6,-3,-5,-7,0,-3
1558439858868106,1,2,4,2,12,18,11,3
1558439858868106,-2,-3,-5,-3,-10,-11,-13,-4
1558439858874091,-2,-5,-2,-4,-10,-19,-6,-2
1558439858874091,1,-1,2,0,6,10,4,-2
1558439858889049,-4,-3,-8,-2,-8,-5,-2,-2
1558439858889049,-1,-1,1,-2,3,-1,-1,-1
1558439858890046,-3,-3,-2,-3,-2,5,-4,-3
1558439858890046,0,3,3,1,2,-11,0,2
1558439858905007,-1,-1,1,-2,-4,-2,0,-2
1558439858905007,-2,1,-3,-1,-4,1,-7,-5
1558439858910990,0,-4,-2,-3,-6,-6,-1,-1
1558439858910990,3,2,3,5,16,16,11,6
1558439858925961,-3,-1,-2,-2,-3,-1,-4,-4
1558439858925961,-1,-2,-6,-6,-4,-5,-3,-1
1558439858941915,2,2,-5,3,8,8,5,1
1558439858941915,-1,0,2,-1,-4,-10,-5,-2
1558439858948894,0,-3,1,0,-1,4,1,0
1558439858948894,-5,-4,1,-6,-7,-3,-7,-5
1558439858949886,-3,-3,1,1,-5,-5,-5,-2
1558439858949886,2,-1,-3,-1,6,-3,4,2
1558439858963849,0,1,-4,-5,-10,-4,-4,-2
1558439858963849,0,-1,-1,1,1,0,2,0
1558439858970829,0,2,1,2,9,14,7,3
1558439858970829,-3,-3,-2,-7,-12,-3,-10,-3
1558439858987787,-2,-3,-1,0,-1,-4,-4,0
1558439858987787,-2,-1,-2,-2,2,3,7,4
1558439858993769,0,2,2,3,5,0,4,-1
1558439858993769,-2,-4,-6,-2,-11,-14,-9,-5
1558439859009726,2,0,1,-1,1,2,-3,0
1558439859009726,-1,-2,1,0,2,2,2,-3
1558439859009726,-6,-7,-7,-4,-7,0,-4,-5
1558439859009726,-3,-1,-6,1,1,2,-3,-1
1558439859024686,1,1,0,-7,-4,-11,-5,-1
1558439859024686,-1,-3,-2,3,4,-8,-4,0
1558439859031699,2,2,3,1,4,6,1,2
1558439859031699,-2,-4,-8,-7,-7,2,5,-3
1558439859046628,-2,-2,5,5,5,4,3,2
1558439859046628,0,0,-6,-11,-3,-2,2,2
1558439859061591,2,1,-3,1,-6,-14,-12,-1
1558439859061591,1,4,3,2,7,-1,6,0
1558439859069567,-1,-3,-1,-1,5,9,2,-2
1558439859069567,-1,1,1,3,-4,2,-1,-3
1558439859070563,6,2,1,-4,5,9,7,3
1558439859070563,-7,-6,-1,1,-7,-14,-10,-4
1558439859083530,1,2,-6,-3,-2,5,6,-2
1558439859083530,0,-3,6,0,-3,-8,-1,1
1558439859099487,-4,-3,-5,-5,-11,-11,-8,-5
1558439859099487,0,0,4,3,7,8,-4,0
1558439859106469,-1,-1,0,-1,0,0,2,-1
1558439859106469,3,1,-3,1,5,-2,1,0
1558439859113476,-1,-1,-2,-4,-4,-7,-4,1
1558439859113476,-2,-2,4,1,-2,4,0,-2
1558439859137511,-3,-2,-1,-1,-6,-6,-5,-1
1558439859137511,3,3,-3,-5,0,10,3,2
1558439859138387,-6,-3,1,0,-2,-7,-4,-5
1558439859138387,3,-1,-3,1,3,2,7,2
1558439859143370,3,-2,0,-1,6,1,3,3
1558439859143370,-2,1,1,3,-3,-1,-5,-4
1558439859151349,0,-1,-3,-4,0,2,1,-2
1558439859151349,-3,-6,-7,-7,-4,2,-3,-1
1558439859166311,-2,-2,4,3,-4,-9,0,-3
1558439859166311,2,1,-1,1,0,2,0,2
1558439859173290,-2,-2,-2,-5,-3,-2,-3,0
1558439859173290,0,-2,-4,1,-3,-1,-1,-2
1558439859189246,-3,-4,-3,-4,0,-7,-5,-2
1558439859189246,-3,-2,-2,3,3,2,-3,-4
1558439859190243,-2,0,-1,3,4,0,3,2
1558439859190243,2,4,1,-1,-3,2,-1,2
1558439859203210,-3,0,3,1,-3,1,0,-3
1558439859203210,-2,-1,0,-2,0,-7,-4,-4
1558439859219264,0,-5,0,-3,-1,8,4,2
1558439859219264,-1,0,-5,-1,-1,4,0,0
1558439859226149,1,1,-1,-1,5,1,1,0
1558439859226149,1,-1,0,0,-4,-3,-2,-1
1558439859234127,-1,-2,-2,1,2,0,3,0
1558439859234127,-2,-2,1,-4,-4,-5,-4,-4
1558439859249086,1,0,-7,-2,-2,-12,-5,1
1558439859249086,-5,-6,-1,-3,-8,-12,-6,-4
1558439859250085,2,2,3,2,8,7,7,4
1558439859250085,-4,-6,-4,-2,-5,-1,-7,-4
1558439859264045,-2,-2,-2,-3,-7,-1,-2,-5
1558439859264045,0,-1,2,1,-4,-7,6,2
1558439859271033,-1,2,4,2,6,-4,-12,-2
1558439859271033,1,3,-2,-5,1,2,4,0
1558439859285988,-3,-2,-5,-1,-1,5,-4,-4
1558439859285988,-3,-4,-4,-5,-9,-6,-7,-5
1558439859293974,-2,-4,-1,1,-4,2,6,1
1558439859293974,1,0,4,2,5,-6,-2,2
1558439859308925,1,2,3,3,-5,-4,-4,-1
1558439859308925,-4,0,1,-1,7,15,10,1
1558439859309922,0,1,-4,0,-3,-7,-4,-1
1558439859309922,-3,-3,0,-5,-4,-3,6,3
1558439859323886,-2,-2,-3,-4,-3,-5,-12,-3
1558439859323886,3,-2,1,4,10,10,10,5
1558439859339844,0,1,0,-3,1,-5,-3,-4
1558439859339844,-3,-2,2,1,-5,-3,-6,-2
1558439859345828,1,-1,-2,-6,5,12,8,6
1558439859345828,1,2,-7,-2,-4,-5,-11,0
1558439859353971,-1,0,5,4,-4,-8,-4,-1
1558439859353971,1,2,-2,-4,-9,-13,1,-1
1558439859369762,0,-6,-4,-1,5,9,6,0
1558439859369762,-8,0,-1,3,7,5,1,-4
1558439859369762,0,1,1,1,3,2,-2,0
1558439859369762,0,2,4,1,4,1,-2,0
