timestamp,emg1,emg2,emg3,emg4,emg5,emg6,emg7,emg8
1558439888472156,-4,-3,-2,9,-5,-5,-6,-3
1558439888472156,-2,1,1,-1,2,6,6,3
1558439888477142,1,0,-1,-8,-3,-6,-4,-3
1558439888477142,1,3,0,5,5,-2,4,2
1558439888478139,1,2,2,2,3,2,3,1
1558439888478139,-3,-4,-6,-7,-3,-4,-5,-3
1558439888479137,0,0,1,2,5,1,3,1
1558439888479137,-4,-2,-2,3,-7,-1,-6,-6
1558439888490108,-2,-1,-2,-8,-7,1,-2,-4
1558439888490108,0,-6,-3,-7,-9,-8,-7,-4
1558439888502075,3,1,4,10,13,-6,2,5
1558439888502075,-3,-1,-2,-5,2,0,1,2
1558439888506639,0,-2,-2,-6,3,4,4,2
1558439888506639,-2,0,0,4,-4,-3,-5,-3
1558439888530002,-2,-1,-3,-1,-9,-4,-3,-2
1558439888530002,0,2,2,-1,-1,-1,-6,-2
1558439888536982,-2,-4,-6,-5,-7,-6,-5,-3
1558439888536982,-1,1,1,1,-3,-6,-3,-2
1558439888540972,-1,-2,-1,-3,2,4,3,1
1558439888540972,0,-3,-3,-6,-1,-4,-2,-2
1558439888551942,0,-1,-2,1,-3,-1,0,-4
1558439888551942,0,1,4,3,7,6,2,-1
1558439888567899,0,1,-1,-3,1,2,1,-2
1558439888567899,-3,-5,-4,-3,-9,-2,-4,-4
1558439888567899,1,-1,0,1,-3,-4,-5,-4
1558439888567899,2,-2,-2,-3,3,-7,2,5
1558439888613779,-1,1,0,6,-3,1,-3,-1
1558439888613779,0,-2,-2,-7,-5,-2,-4,-2
1558439888614774,-2,-3,-2,-8,-3,-1,-2,-5
1558439888614774,-3,-1,1,9,-3,-2,-2,-2
1558439888614774,-2,-3,-4,-5,-2,1,4,1
1558439888614774,-1,3,1,-4,2,3,-3,-3
1558439888618763,-2,1,0,9,3,0,3,1
1558439888618763,-1,1,0,-2,-3,-6,-1,-2
1558439888624749,-1,-2,-1,-6,-4,0,-3,-3
1558439888624749,-2,-4,-3,2,-8,-5,-4,-6
1558439888632733,-2,0,-4,-1,-3,1,3,-1
1558439888632733,-2,-2,-1,-6,-3,-3,0,0
1558439888641702,3,5,3,3,15,-1,2,4
1558439888641702,-3,-2,2,5,-3,-2,-2,0
1558439888655665,-3,-1,-3,-5,-4,0,-5,-4
1558439888655665,1,-2,-4,-5,2,0,2,0
1558439888662645,-2,0,-1,1,-11,1,-2,-7
1558439888662645,-1,-1,-5,-3,-4,-10,-1,1
1558439888678603,3,2,7,4,15,8,5,4
1558439888678603,1,0,0,2,8,17,7,2
1558439888685584,-4,-2,0,0,-3,-3,-5,-5
1558439888685584,0,0,-2,-2,-5,-3,-2,-1
1558439888692565,-4,0,-4,-6,-14,-10,-8,-4
1558439888692565,-1,0,0,1,0,-2,-1,0
1558439888701541,0,-4,-3,-2,1,-2,-2,-3
1558439888701541,0,1,-2,-2,4,4,4,1
1558439888715504,-1,-1,1,0,-3,-6,-4,-1
1558439888715504,0,-3,-1,-1,1,1,-2,-3
1558439888722486,-2,-2,-3,-3,-6,-1,-3,-2
1558439888722486,-2,-1,-1,2,1,1,-1,-3
1558439888738443,-1,-2,1,-1,1,0,3,2
1558439888738443,-6,0,-3,-3,-10,-6,-10,-7
1558439888745424,-2,-1,1,-1,3,-7,0,0
1558439888745424,-1,-1,2,0,8,9,6,2
1558439888752406,1,0,-1,0,5,6,3,1
1558439888752406,0,0,-2,-1,-5,-1,0,-2
1558439888761381,-2,-3,-5,-3,-8,-4,-6,-3
1558439888761381,0,2,2,1,4,-1,3,3
1558439888776341,1,-2,-2,-3,-5,-8,-6,-4
1558439888776341,-1,-1,0,0,-1,1,-1,-2
1558439888782326,0,0,-1,1,1,0,0,1
1558439888782326,-3,-6,-6,-9,-9,-3,-5,-2
1558439888798282,-2,-3,-2,1,0,-5,1,2
1558439888798282,2,1,1,-1,2,2,-1,1
1558439888805263,-2,-2,-2,-2,-4,1,0,-3
1558439888805263,0,-2,0,1,-2,-4,0,-2
1558439888813242,-1,0,-2,0,-6,-8,-6,-2
1558439888813242,-2,-3,-2,-3,-3,-2,-6,-5
1558439888821221,0,0,-1,-1,2,0,4,2
1558439888821221,0,2,2,4,5,4,5,2
1558439888836181,-2,0,3,-2,1,1,-4,0
1558439888836181,0,2,1,-3,-2,-4,-2,3
1558439888843162,-3,-3,-1,0,2,3,0,-2
1558439888843162,2,-2,-2,0,-5,-2,-4,-2
1558439888858125,1,1,-1,-1,5,6,3,0
1558439888858125,-3,-3,-2,1,-1,-3,-4,-3
1558439888865105,-2,-2,0,-4,-11,-10,-7,-3
1558439888865105,0,-1,-3,-2,1,3,2,1
1558439888873082,-2,-4,-3,-3,-3,-4,1,-1
1558439888873082,-1,-2,-2,-2,-2,-5,1,1
1558439888882059,3,3,3,1,6,6,5,4
1558439888882059,-2,-1,0,1,6,5,0,-3
1558439888896021,-2,-2,-2,-2,-10,-4,-6,-5
1558439888896021,-2,-2,-3,-1,0,2,2,0
1558439888903018,-2,-3,-5,-2,-7,-7,-3,-1
1558439888903018,0,1,3,0,-5,-12,-5,1
1558439888917963,1,-1,-1,4,7,10,4,1
1558439888917963,0,-2,-2,-1,0,1,1,-2
1558439888926939,3,3,1,0,6,7,4,3
1558439888926939,-2,-2,-2,-2,-9,-4,-6,-4
1558439888941898,-2,-1,-2,-3,-7,-7,-5,-5
1558439888941898,-2,0,0,-1,1,0,4,1
1558439888942896,-1,0,4,2,2,1,1,-1
1558439888942896,-1,-2,-1,-3,0,-1,-1,0
1558439888955862,-1,-1,0,-2,0,1,-1,2
1558439888955862,0,-3,-2,-2,-6,1,-5,-5
1558439888962843,1,1,-2,-2,-3,-4,0,1
1558439888962843,-3,-1,-3,-2,-1,3,-4,-1
1558439888978800,-2,-2,-1,-2,2,-5,1,0
1558439888978800,0,-4,-3,-1,-3,-5,-2,-3
1558439888984784,-3,-2,-3,-2,-2,2,-1,-2
1558439888984784,0,1,1,2,8,0,7,3
1558439888992763,2,0,1,3,0,6,1,0
1558439888992763,-2,2,2,-1,1,0,-1,0
1558439889007723,-3,-2,-6,-6,-9,-9,-10,-6
1558439889007723,0,-2,-3,-4,-11,-9,-9,-5
1558439889015701,-1,-2,-1,0,4,5,5,-1
1558439889015701,0,-2,-2,-1,-2,-2,0,0
1558439889022682,0,3,-1,0,0,0,-2,0
1558439889022682,1,2,1,2,9,2,5,6
1558439889038641,-1,0,-2,-3,-2,1,-1,-3
1558439889038641,-2,0,-1,-2,-5,-3,-2,-2
1558439889045621,0,-2,-2,-1,-1,3,4,0
1558439889045621,0,0,1,1,1,0,-1,-3
1558439889052602,-4,-1,1,-1,-4,-6,-5,-2
1558439889052602,-3,-3,-2,-3,-3,0,0,-2
1558439889067563,-5,-4,1,1,5,2,-2,0
1558439889067563,3,1,2,3,2,-2,2,2
1558439889075541,1,0,-1,-1,-2,-6,-2,-2
1558439889075541,1,-1,-4,-2,-4,-5,-5,-1
1558439889082524,0,-1,2,0,0,1,0,0
1558439889082524,-4,-5,-2,-1,-1,1,-1,-3
1558439889098480,-1,0,-1,-1,-3,1,-2,-2
1558439889098480,-4,-1,-3,-3,-12,-7,-8,-6
1558439889105462,-2,-3,-2,-1,-2,-3,0,-1
1558439889105462,0,1,3,2,11,7,9,4
1558439889112443,1,1,1,1,0,-5,-1,2
1558439889112443,1,0,2,2,8,1,-1,0
1558439889127403,-2,0,-2,-1,-5,-1,-4,-1
1558439889127403,-4,-3,-4,-4,-11,-1,-5,-2
1558439889135382,-5,-4,-1,-4,-7,-5,-7,-4
1558439889135382,-3,-1,-2,0,0,2,0,-2
1558439889142363,3,3,1,4,11,8,9,4
1558439889142363,1,-1,-1,-2,-1,-11,-4,-3
1558439889158320,1,-1,-2,-1,2,0,0,1
1558439889158320,-4,-3,-2,-1,-3,-2,-4,0
1558439889165301,0,-4,-1,-1,-1,1,-2,0
1558439889165301,-3,0,-4,-5,-2,0,-1,-1
1558439889173279,-4,-2,-3,-3,-9,-1,-4,-5
1558439889173279,2,-2,2,3,5,4,3,1
1558439889189237,-1,0,3,0,8,-5,3,3
1558439889189237,0,0,1,-1,-5,1,0,-2
1558439889196218,-2,-3,-2,-1,-2,-1,-1,-1
1558439889196218,-1,-1,-4,-4,-2,-1,-3,-1
1558439889202203,-2,-2,-3,-4,-7,-1,-3,-3
1558439889202203,0,-1,-3,-2,-1,-6,-4,-1
1558439889218159,1,-1,2,1,7,7,5,1
1558439889218159,-2,0,0,-1,-1,-2,1,-1
1558439889225142,0,-1,-2,-1,5,4,4,0
1558439889225142,-3,-4,-1,-1,-4,-1,-5,-3
1558439889233119,-2,-2,-3,-3,-9,-5,-4,-2
1558439889233119,2,-2,-1,-1,2,-7,-1,1
1558439889248081,0,1,2,1,2,3,1,0
1558439889248081,0,-1,-2,-2,-5,-2,-2,-2
1558439889256059,-1,-1,-1,-2,-1,2,0,-3
1558439889256059,-1,2,1,1,7,12,8,2
1558439889263040,-3,-2,0,-4,-6,-12,-8,-4
1558439889263040,-3,-3,-5,-2,-5,0,-4,-2
1558439889277999,1,2,2,4,12,9,6,4
1558439889277999,-3,-1,-3,-1,-4,-7,0,1
1558439889284980,-1,-1,-1,-2,-4,0,-6,-3
1558439889284980,-2,-1,2,0,-5,-4,-1,-1
1558439889292960,-2,0,-4,-2,5,5,-1,-1
1558439889292960,0,1,-1,-2,-2,-5,-4,-3
1558439889307921,-4,0,0,0,2,-1,4,2
1558439889307921,1,0,1,1,6,10,4,-2
1558439889315898,-2,-2,-2,-1,-2,-3,-1,-2
1558439889315898,1,-1,0,0,-4,0,-2,-2
1558439889322880,-2,-1,-1,-2,-7,-7,-7,-4
1558439889322880,0,1,-2,-2,-6,-11,-6,1
1558439889338836,0,-1,2,0,6,10,7,2
1558439889338836,1,0,0,0,3,-5,1,1
1558439889344821,-1,-3,-1,-2,-2,-2,-2,0
1558439889344821,1,-1,1,2,4,8,4,1
1558439889352800,-1,1,1,-2,-5,-6,-8,-4
1558439889352800,-4,-3,-2,-1,-8,-8,-5,-3
1558439889367760,1,-1,-3,-2,0,-1,1,1
1558439889367760,-1,-1,1,-1,7,6,3,-1
1558439889375738,-1,-2,3,1,-3,-9,-3,0
1558439889375738,-2,-2,-2,-2,-4,-2,-3,-2
1558439889382719,0,-2,-6,-3,-3,-7,-3,0
1558439889382719,-2,-1,-4,-2,3,6,2,2
1558439889398677,-1,-2,-2,-2,1,-1,1,-3
1558439889398677,-1,-1,2,-1,-2,3,1,-1
1558439889405658,1,-1,1,1,-1,-1,-3,-3
1558439889405658,-4,-3,-5,-2,-12,-11,-9,-5
1558439889412639,-2,-3,-4,-3,-2,-1,-2,2
1558439889412639,0,-3,-2,-2,5,5,5,1
1558439889427600,-1,0,-1,1,-1,-7,-2,-1
1558439889427600,0,1,3,1,2,-1,-4,-3
1558439889435579,0,-3,-3,-1,-6,-2,-1,-3
1558439889435579,0,0,4,1,1,9,4,1
1558439889442560,-1,1,1,0,-2,-1,3,2
1558439889442560,2,-1,-2,-1,2,7,6,1
1558439889466495,-1,2,-3,-2,-2,-4,-4,-1
1558439889466495,0,-1,1,0,1,3,3,1
1558439889467492,0,0,0,0,-5,3,-1,-3
1558439889467492,0,-2,-2,-1,6,-7,-6,-1
1558439889472478,0,0,-2,-3,2,0,1,-1
1558439889472478,-1,-2,1,-3,-6,-7,-5,0
1558439889487440,-5,-6,-2,-4,-10,-2,-7,-6
1558439889487440,-2,-4,-1,-2,-1,5,3,-2
1558439889495418,-1,0,-1,1,2,-2,1,0
1558439889495418,0,3,1,0,4,-8,-6,-1
1558439889502400,-3,0,-3,-2,0,3,-2,-3
1558439889502400,-4,-5,-4,-2,-9,-5,-6,-4
1558439889518357,-1,-4,-4,-3,-6,-2,-1,0
1558439889518357,2,1,0,3,6,5,3,2
1558439889525340,-1,-4,-4,-2,-2,-5,-2,-2
1558439889525340,1,2,3,2,7,9,4,1
1558439889541296,-2,-2,-2,-3,-6,-6,-4,-5
1558439889541296,-2,-3,-2,-3,-6,-4,-1,-2
1558439889547279,-1,1,2,-1,5,-2,5,3
1558439889547279,-1,1,3,0,1,1,2,1
1558439889556256,-3,-3,-3,-4,-8,-5,-7,-2
1558439889556256,0,-1,-4,1,2,3,1,2
1558439889562240,0,0,3,1,3,5,-1,-1
1558439889562240,-2,1,0,-4,-7,-8,-6,-4
1558439889578196,-2,1,2,2,0,3,1,-1
1558439889578196,-3,-2,-2,-1,-7,-2,-2,-6
1558439889585177,1,1,-1,-2,3,1,2,2
1558439889585177,1,-1,1,-1,1,-9,-2,-1
1558439889601135,2,1,3,3,5,4,3,2
1558439889601135,-4,-4,-5,-2,1,7,1,0
1558439889608116,-2,-1,-3,-2,-7,-3,-6,-2
1558439889608116,-3,-1,-1,-4,-5,-3,-1,-3
1558439889624075,-1,-2,-1,-1,-4,-8,-5,-4
1558439889624075,0,-1,1,-1,0,3,3,-1
1558439889625086,-1,-3,-4,0,-1,-2,-5,-3
1558439889625086,0,0,0,2,4,5,3,5
1558439889638036,-2,1,-1,-3,-6,-9,-3,-1
1558439889638036,0,-2,-3,-2,-4,-6,-4,-1
1558439889645017,-2,-3,-1,1,2,-1,-1,-3
1558439889645017,-3,-4,-3,-1,-5,3,0,-4
1558439889661001,-3,-4,-4,-2,4,5,1,-1
1558439889661001,-1,-1,-4,-3,-5,-5,-4,-4
1558439889667955,0,-1,0,-3,1,3,1,0
1558439889667955,0,0,0,1,2,-5,0,2
1558439889683913,-1,2,2,2,-3,0,-2,0
1558439889683913,-2,1,0,-2,-3,-1,-4,-3
1558439889685908,-1,2,-1,0,-3,-1,2,-1
1558439889685908,1,0,1,-1,-2,-3,0,-1
1558439889697876,-1,-1,-2,-1,0,-4,-3,-3
1558439889697876,-1,-1,1,0,7,4,7,3
1558439889706852,-1,0,-1,-1,-1,0,1,0
1558439889706852,0,-2,-3,1,-1,5,-4,0
1558439889720815,-1,-4,-2,-2,-7,-4,-1,0
1558439889720815,-1,0,0,-1,3,-2,0,-1
1558439889727795,-1,-1,-1,-2,-2,-2,-3,-4
1558439889727795,-1,-1,-3,0,-3,-7,-5,-2
1558439889743754,1,1,2,0,1,-3,2,1
1558439889743754,0,-4,-6,-2,-3,2,1,0
1558439889745749,-1,2,1,3,7,9,5,1
1558439889745749,-2,-2,-3,-4,-5,-2,-7,-6
1558439889757718,-1,-2,-1,-1,-2,-4,0,-1
1558439889757718,1,3,2,0,-1,-4,-2,0
1558439889766693,-2,-2,0,-4,0,-3,-3,-1
1558439889766693,-1,0,2,-1,1,-2,3,2
1558439889780656,-4,-2,-2,1,1,4,0,-3
1558439889780656,-2,-3,-5,-3,-1,1,-2,-2
1558439889787694,1,-4,-4,-3,-3,-8,-4,0
1558439889787694,-4,-3,-1,-1,-3,-2,0,-4
1558439889803593,1,0,-1,-1,4,2,1,-1
1558439889803593,-3,-2,2,-1,-5,-2,-2,-2
1558439889805588,-4,-2,-2,-3,-8,-10,-3,-4
1558439889805588,0,0,-3,-1,3,2,1,-1
1558439889817618,2,3,-1,-1,2,1,-2,0
1558439889817618,1,0,1,2,11,6,6,2
1558439889826533,-2,-1,-1,-1,-3,-1,-4,-3
1558439889826533,0,0,-4,-3,-7,-4,-1,0
1558439889841493,2,-1,2,2,8,8,5,4
1558439889841493,-3,-3,0,-2,-3,-5,-5,-2
1558439889847485,-1,-1,2,0,-3,2,2,0
1558439889847485,-1,-2,-4,-4,-5,-2,-4,-1
1558439889864433,-1,-3,0,1,-3,-5,-3,-1
1558439889864433,0,3,0,1,6,-1,1,0
1558439889865431,-1,-3,-7,-4,-2,5,0,-4
1558439889865431,-1,0,-1,-2,-3,-11,-2,-1
1558439889877395,-3,-3,-2,0,-1,5,1,-1
1558439889877395,0,-2,2,2,-4,-13,-5,-2
1558439889886371,0,-2,-3,-1,-2,6,-1,0
1558439889886371,1,0,2,-1,5,6,3,1
1558439889901331,-1,0,-1,-4,-9,-10,-7,-2
1558439889901331,-2,-2,-4,-1,0,0,1,0
1558439889907316,-1,-2,-2,0,1,5,2,0
1558439889907316,-1,-1,-1,3,-1,-3,-1,0
1558439889923274,-1,0,-2,-3,0,-3,-3,-1
1558439889923274,-2,-4,-6,-6,-16,-5,-7,-7
1558439889930255,3,2,2,3,6,0,4,3
1558439889930255,-2,-2,-2,0,4,0,-2,-3
1558439889937237,-1,-1,-1,-2,-3,-1,-1,-1
1558439889937237,0,-1,0,0,4,1,-2,0
1558439889946213,-1,-2,2,-1,-5,-5,-5,-3
1558439889946213,-4,-3,-5,-4,-8,-1,-1,-2
1558439889961184,1,-1,-1,0,4,2,0,1
1558439889961184,1,2,-1,1,-1,-5,-5,-3
1558439889968155,-1,-2,1,1,2,-2,3,0
1558439889968155,2,3,1,1,8,10,7,3
1558439889983125,-5,-4,-5,-4,-11,-10,-7,-5
1558439889983125,-1,1,0,-3,-6,-5,0,0
1558439889990096,-1,-4,-4,-2,-6,-7,-3,-3
1558439889990096,-3,0,2,0,-1,-4,-5,-3
1558439889998084,-2,-1,-2,1,2,6,4,1
1558439889998084,-3,-1,-1,-1,0,4,-1,0
1558439890007076,-2,1,3,-1,-4,-6,-5,-3
1558439890007076,-1,-2,-1,1,6,10,7,0
1558439890021115,0,-1,0,-2,1,-2,-2,0
1558439890021115,-2,-4,-1,-3,-9,-6,-6,-5
1558439890028099,0,1,-1,-2,-5,-1,3,2
1558439890028099,0,-1,-1,-1,1,-2,-3,0
1558439890043993,1,-1,-1,0,3,4,-1,0
1558439890043993,0,0,-1,0,0,7,2,0
1558439890050947,0,-2,-2,0,5,2,0,1
1558439890050947,-3,-1,0,-2,-6,-8,-3,-3
1558439890057918,-4,-2,-4,-2,-5,-6,-3,-2
1558439890057918,-2,-1,-1,-1,2,2,4,1
1558439890066890,-2,-1,-1,1,6,10,5,1
1558439890066890,0,1,0,-1,-1,-3,-7,-2
1558439890081067,-2,-2,-3,-2,-2,-3,-1,0
1558439890081067,-4,-2,-4,-5,-7,-5,-7,-3
1558439890088054,1,-1,2,-1,0,5,1,-1
1558439890088054,0,-5,-4,-4,-9,-15,-7,-2
1558439890103799,1,-1,3,0,2,-1,3,-1
1558439890103799,0,0,2,-1,3,-2,0,1
1558439890109776,-3,-2,-4,-1,0,-2,-4,-2
1558439890109776,-3,-2,-5,-1,-5,4,1,1
1558439890126730,-2,-1,0,-3,-5,-2,1,-1
1558439890126730,-1,-1,1,1,4,4,-1,0
1558439890127727,-2,-2,-2,-2,-5,-9,-9,-2
1558439890127727,1,0,-1,-1,5,5,5,0
1558439890140694,-1,-2,-2,-2,-5,2,-2,-3
1558439890140694,2,1,3,1,9,4,7,4
1558439890148671,-1,1,1,0,-3,0,1,0
1558439890148671,-1,-2,-2,-5,-8,-8,-7,-2
1558439890171958,2,3,5,4,8,-3,-2,0
1558439890171958,-3,-3,-9,-4,-7,1,-2,-3
1558439890172983,-2,-3,0,-3,-4,-9,-5,-4
1558439890172983,-1,0,-2,-1,-2,-2,-1,-4
1558439890186918,0,1,1,-1,4,3,2,2
1558439890186918,-1,-2,2,-2,-2,3,-2,-2
1558439890187567,-4,-3,-5,-7,-11,-7,-6,-3
1558439890187567,0,0,0,1,4,-3,1,2
1558439890201632,1,1,2,1,3,2,-1,-1
1558439890201632,-1,-5,-5,0,1,4,0,-2
1558439890207513,1,1,0,1,8,10,4,0
1558439890207513,-2,0,-1,-1,-5,0,-2,-2
1558439890223472,-2,-1,-2,-4,-5,-4,0,1
1558439890223472,0,0,2,0,6,-3,6,4
1558439890230526,0,0,-1,1,0,-3,-3,-3
1558439890230526,0,-2,-1,-1,1,2,-1,0
1558439890246439,1,-2,-2,-2,-4,0,0,-3
1558439890246439,-3,0,-1,-1,-6,1,-4,-3
1558439890248404,0,0,0,2,7,-3,4,5
1558439890248404,-1,-3,-2,-3,-4,-5,-4,-2
1558439890261368,-2,-1,-4,-1,-3,2,-1,-1
1558439890261368,-3,0,0,-1,-5,-6,-1,-1
1558439890267353,-2,-2,-3,-1,3,5,2,0
1558439890267353,-1,0,0,-1,3,-1,-1,0
1558439890283601,-2,-2,-1,-1,-9,-7,-6,-5
1558439890283601,0,-3,-3,-4,-6,-4,-4,-1
1558439890290293,1,0,-2,0,1,6,2,-2
1558439890290293,0,0,2,4,10,7,9,3
1558439890306532,-4,0,-2,-3,4,-3,-3,-1
1558439890306532,2,0,-1,-2,1,-1,-2,1
1558439890308251,-3,-1,-7,-3,-8,-5,-5,-5
1558439890308251,0,-1,-1,-1,-5,-2,-3,-3
1558439890321482,3,1,3,-1,0,-1,7,4
1558439890321482,-3,-4,-2,-1,2,-6,-6,-4
1558439890327193,-3,-1,1,2,2,6,4,1
1558439890327193,0,2,1,-1,-2,1,-3,-2
1558439890344149,-2,-2,-4,-2,-1,0,-5,-4
1558439890344149,2,0,2,1,4,4,3,1
1558439890350133,-2,-2,0,-1,-3,-6,-4,0
1558439890350133,-1,-2,-1,-4,-7,-3,-3,-3
1558439890366347,-3,-2,-2,-2,-4,-7,-2,-2
1558439890366347,-1,-1,-2,1,-2,-2,-1,-2
1558439890374067,2,-2,-1,-3,-1,5,3,-1
1558439890374067,-1,-1,0,-1,2,5,1,1
1558439890381052,-3,-1,-2,1,-1,-2,-3,-2
1558439890381052,2,3,0,-1,2,0,2,0
1558439890388316,-3,-4,-4,-4,-10,-8,-5,-3
1558439890388316,0,-3,-1,1,2,-8,-3,0
1558439890402990,-1,-3,0,1,9,13,5,2
1558439890402990,-1,4,1,0,5,3,-1,-4
1558439890410236,-1,-2,-4,-4,-3,-6,-2,0
1558439890410236,-2,-2,-4,-4,-6,1,-1,-3
1558439890427187,0,-1,0,-2,-3,-3,-3,-1
1558439890427187,-1,0,2,0,-8,-5,-2,-3
1558439890427926,0,-1,0,3,3,0,-2,0
1558439890427926,-4,-1,-2,-4,4,5,5,2
1558439890440889,1,0,-1,-3,-2,-2,-1,-2
1558439890440889,-1,-3,-2,-1,-1,1,2,-1
1558439890447902,2,2,0,-1,-5,-4,-4,-4
1558439890447902,1,2,-1,-2,-2,3,-3,-1
1558439890463860,-1,0,1,0,1,-7,-5,0
1558439890463860,-2,-4,-3,-2,-4,-6,-4,-2
1558439890470924,-2,1,-1,-1,4,6,4,-2
1558439890470924,-2,1,0,0,-5,-13,-6,-3
1558439890487010,-1,1,-2,-1,-1,3,-1,0
1558439890487010,0,0,2,2,11,9,8,5
1558439890487763,-2,-2,1,-1,-5,-6,-3,0
1558439890487763,-2,-4,-4,-2,-7,4,0,-3
1558439890501002,-5,-2,-2,-3,-10,-8,-4,-4
1558439890501002,-1,-4,-6,-2,-3,-3,-5,-4
1558439890507714,2,1,4,5,19,19,16,6
1558439890507714,-2,-3,1,1,-4,-11,-4,-3
1558439890523670,-1,-2,-4,-4,-1,-5,-3,1
1558439890523670,-4,-1,-2,-3,-8,0,-4,-1
1558439890530650,-2,-3,-3,-2,-4,-6,-5,-2
1558439890530650,1,0,0,-1,2,0,-1,-2
1558439890546874,-3,-4,-8,-4,-6,-1,-3,-4
1558439890546874,2,3,1,1,-3,-8,-1,1
1558439890547606,0,1,-1,1,8,3,1,1
1558439890547606,-1,-1,-1,-2,0,0,-5,-3
1558439890560597,-1,-1,-2,0,3,7,0,-1
1558439890560597,-2,-1,-1,-2,-1,-3,0,0
1558439890567586,-2,-4,-3,-5,-14,-14,-11,-5
1558439890567586,0,-2,-1,-1,4,0,3,2
1558439890591485,-1,1,2,4,5,11,4,1
1558439890591485,0,-1,0,0,-2,-2,-3,0
1558439890592483,0,1,0,0,-3,-2,2,2
1558439890592483,-1,0,-1,-1,-7,-3,-6,-3
1558439890606619,1,-3,1,-2,-7,-14,-4,0
1558439890606619,3,2,4,2,11,9,6,2
1558439890608440,-2,-1,-2,-2,-3,-8,-4,0
1558439890608440,-2,-2,-2,0,1,8,4,-1
1558439890620756,-2,0,-1,-1,-6,-1,-1,-4
1558439890620756,-2,-2,-3,-4,-3,-3,-1,1
1558439890629390,-1,2,3,0,-3,-9,-5,-1
1558439890629390,0,-3,-4,-3,0,2,2,-1
1558439890643614,1,0,0,0,6,7,5,1
1558439890643614,0,1,1,0,3,5,1,0
1558439890650611,0,0,0,-1,-2,4,-1,-2
1558439890650611,0,0,2,2,6,5,4,3
1558439890667328,1,1,2,0,2,-3,-1,2
1558439890667328,1,0,0,-1,-9,-10,-7,-3
1558439890668288,-1,-2,-1,0,6,10,6,1
1558439890668288,-1,1,1,0,-6,-10,-5,-3
1558439890680250,0,0,1,-1,0,-6,3,0
1558439890680250,-2,-3,-3,-1,-3,-7,-3,-2
1558439890689227,-2,-2,-4,-4,-3,3,0,-1
1558439890689227,-2,-3,-2,-4,-9,-2,-5,-4
1558439890703460,-4,-2,-3,-1,-3,-1,0,-2
1558439890703460,-1,-2,-1,1,5,0,5,3
1558439890710421,-3,-2,-2,0,1,-1,-6,-4
1558439890710421,-1,1,1,1,1,3,2,1
1558439890727312,-3,-1,-2,-4,-7,-6,-7,-4
1558439890727312,-1,1,-1,2,1,-1,-1,-1
1558439890728122,0,-1,-3,0,1,4,4,1
1558439890728122,2,3,1,2,6,3,4,4
1558439890740089,1,-1,2,0,-3,-4,1,0
1558439890740089,-1,-3,-2,-3,-10,1,-2,-3
1558439890749231,-3,-1,-3,-3,-6,-6,-4,-4
1558439890749231,-1,-2,0,-1,-1,-15,-7,-1
1558439890763027,1,1,1,1,2,10,0,2
1558439890763027,0,-2,-3,-3,3,3,2,1
1558439890771047,1,2,2,-2,0,0,-3,-2
1558439890771047,-1,-1,-2,-4,-13,-10,-6,-5
1558439890787399,-5,-5,-4,0,-4,-5,-6,-3
1558439890787399,2,3,5,2,14,9,6,4
1558439890788997,-2,-4,-1,-4,-5,-6,-4,-3
1558439890788997,-2,0,0,1,3,8,4,1
1558439890801024,0,-2,-3,-5,-2,-5,-4,-3
1558439890801024,-3,-2,-3,0,0,-1,2,-1
1558439890809049,2,1,3,3,7,6,7,2
1558439890809049,-3,-1,-3,-1,-5,-3,-4,-2
1558439890822866,-5,-3,-6,-4,-8,-3,-1,-1
1558439890822866,1,1,-1,-2,-4,-10,-7,-1
1558439890829882,1,3,3,2,7,-1,2,3
1558439890829882,-2,-3,-3,-1,2,-1,0,-1
1558439890846802,2,1,2,0,1,5,5,0
1558439890846802,-2,-2,0,-2,-6,0,-3,-4
1558439890847800,1,-5,-5,-2,-1,-1,-3,0
1558439890847800,-2,0,0,-2,-4,-3,-3,-2
1558439890859767,-2,-1,-1,1,-2,-2,-1,-1
1558439890859767,-3,-3,-2,-2,-4,-5,-5,-2
1558439890870070,-2,0,-1,0,3,8,5,0
1558439890870070,0,1,1,1,7,7,3,3
1558439890884393,-3,1,-3,0,2,2,0,-1
1558439890884393,-3,0,-2,-2,-10,-4,-6,-4
1558439890890157,0,-4,1,-3,-7,-2,-5,-3
1558439890890157,2,-3,-2,1,0,-3,-2,-4
1558439890906326,-1,-1,2,1,4,-6,4,2
1558439890906326,-2,0,-4,-2,-1,-1,-2,-3
1558439890913035,-1,0,1,-2,-6,-12,-5,1
1558439890913035,-2,0,-1,0,0,6,5,2
1558439890921023,1,0,1,0,4,6,3,-1
1558439890921023,-2,-1,0,0,3,2,2,-1
1558439890928917,-1,0,-1,-2,-3,-9,-3,-4
1558439890928917,0,-2,-2,-4,-8,-2,-2,0
1558439890944099,-2,-2,-1,0,3,5,3,1
1558439890944099,3,2,2,2,8,5,5,3
1558439890951037,-4,1,-3,-1,-1,6,1,1
1558439890951037,0,4,3,0,-1,-4,-2,2
1558439890973837,-2,-1,-6,-4,-9,-11,-7,-5
1558439890973837,-5,-6,-5,-4,-8,-3,-3,-4
1558439890975790,-2,-3,-4,-1,3,0,0,-1
1558439890975790,0,0,1,-1,3,2,2,-1
1558439890988764,-1,-1,2,2,2,6,3,-1
1558439890988764,2,-1,1,-3,-9,-12,-6,-1
1558439890988764,0,-1,-1,-2,-6,-6,-7,-4
1558439890988764,-2,-3,-7,-3,3,9,6,-1
1558439891003776,-1,-3,-2,-1,-1,0,1,1
1558439891003776,0,0,2,2,2,2,4,2
1558439891009728,-2,-2,2,0,1,1,-4,-2
1558439891009728,0,-2,0,-2,-1,-7,-3,-2
1558439891025656,-2,-3,-4,-4,-5,-7,-6,-5
1558439891025656,0,1,0,1,3,10,6,1
1558439891032667,-1,0,-1,1,3,3,3,2
1558439891032667,-1,-1,2,0,3,2,1,-1
1558439891048624,0,0,1,-3,-5,-6,-7,0
1558439891048624,-2,-1,-4,-2,-2,-2,-1,0
1558439891048624,-1,-3,-4,-1,-5,-8,-2,-2
1558439891048624,0,-1,-2,1,0,2,-1,-3
1558439891064553,1,1,0,-1,0,3,0,-1
1558439891064553,-3,-3,0,0,-1,0,-2,-4
1558439891070590,-2,-1,-2,-3,-4,2,-2,-3
1558439891070590,-1,-3,-5,-4,-7,-5,-7,-2
1558439891085536,2,0,1,-1,-1,2,2,1
1558439891085536,1,0,-3,-4,-2,-4,-2,-3
1558439891092513,-2,0,0,2,1,2,4,-1
1558439891092513,0,-3,-2,0,-3,-15,-3,-1
1558439891108470,0,2,2,2,8,6,4,3
1558439891108470,-2,-5,-4,-3,-3,-2,-5,-4
1558439891109435,1,0,-1,-2,-3,-5,-4,-3
1558439891109435,-2,-2,-1,0,-2,4,-3,-1
1558439891124396,-2,-2,1,-3,-7,-5,-4,-2
1558439891124396,-1,-1,-3,-1,-1,-9,-3,-1
1558439891130382,1,1,0,0,3,3,6,3
1558439891130382,0,-2,-2,1,1,0,-3,-3
1558439891145337,0,-3,-2,-2,-3,-1,-2,-3
1558439891145337,-3,-2,1,1,-2,3,3,0
1558439891152347,-1,-1,0,-2,-4,4,-1,-3
1558439891152347,-2,-2,-4,-4,3,-8,2,4
1558439891168438,-2,-1,-1,2,7,6,4,1
1558439891168438,1,-2,-1,-1,-2,-2,-3,-2
1558439891169272,-3,-2,-1,-4,-7,-6,-7,-3
1558439891169272,-1,1,-1,-2,-2,0,-1,-2
1558439891184237,0,-2,-5,0,-4,-4,-7,-1
1558439891184237,-2,2,2,0,4,8,7,4
1558439891190216,0,0,2,1,0,1,-1,0
1558439891190216,-2,-2,0,1,0,0,-2,-3
1558439891205221,-2,-3,-4,-4,-6,-5,-6,-2
1558439891205221,0,0,-2,-3,-3,-8,-2,-2
1558439891212186,-2,-5,-5,-3,-5,0,2,-1
1558439891212186,0,0,0,-1,-3,3,0,0
1558439891228144,0,0,0,1,9,7,7,3
1558439891228144,-3,-3,1,1,-2,1,-4,-4
1558439891229112,-3,-1,-1,1,1,-7,-5,-4
1558439891229112,-1,-2,0,-2,-1,0,-2,-1
1558439891244072,-1,1,1,-1,-9,-8,-2,0
1558439891244072,1,1,1,-1,4,4,6,2
1558439891250087,0,1,0,1,5,-6,-3,1
1558439891250087,-1,-3,-3,-1,-3,1,0,0
1558439891265050,-2,-1,1,0,-3,-1,-3,-4
1558439891265050,-1,-2,-3,-3,-7,-6,-6,-5
1558439891273001,0,-2,-2,-4,-2,-2,-1,-2
1558439891273001,1,-2,0,-1,4,4,4,1
1558439891287990,-2,-4,-1,0,-5,-5,-4,-2
1558439891287990,0,0,1,-3,-1,-5,-2,1
1558439891288955,3,1,1,0,0,0,3,1
1558439891288955,-1,1,1,1,2,6,2,0
1558439891303913,-1,-2,0,-1,2,-2,0,-2
1558439891303913,-2,1,-2,-2,2,2,-7,-2
1558439891309934,-2,1,-1,0,-5,-1,-3,-4
1558439891309934,1,1,3,-5,-8,-9,-1,0
1558439891324858,1,0,-3,-1,0,1,4,1
1558439891324858,0,-1,2,0,2,7,4,2
1558439891332841,0,-2,0,-1,-2,2,1,-1
1558439891332841,-3,-2,-2,-1,-1,1,-2,-1
1558439891348794,-3,-1,-1,-2,-4,0,-5,-3
1558439891348794,-1,-3,-6,0,-3,-6,-4,-1
1558439891348794,-1,-1,0,-2,0,-4,-1,3
1558439891348794,-4,-1,-3,-1,-3,-3,-1,-3
1558439891363754,-1,2,4,4,9,8,5,1
1558439891363754,0,-3,-4,-1,-1,-1,-3,-3
1558439891369736,-2,-4,-5,-1,-1,4,2,-2
1558439891369736,-2,-4,-1,-3,-1,-6,-5,-4
1558439891384695,-1,-1,-1,-3,-4,-6,-6,-6
1558439891384695,-2,-1,-2,-2,-1,-3,0,-1
1558439891392863,-1,1,-1,-1,1,2,3,0
1558439891392863,-2,-2,-1,-1,-7,-2,-5,-2
1558439891408633,-1,0,0,-1,0,-2,-1,0
1558439891408633,1,1,0,-1,3,1,5,2
1558439891408633,-1,-2,-2,-1,-1,1,-4,-1
1558439891408633,1,3,2,2,4,6,7,3
1558439891424592,-1,-2,-3,-3,-6,-5,-3,-1
1558439891424592,-2,-1,-2,0,-5,-5,-7,-4
1558439891430603,0,0,0,0,-2,1,-3,-1
1558439891430603,0,2,-1,-1,-4,-12,-6,-2
1558439891445582,0,2,0,-1,6,1,8,4
1558439891445582,0,-3,-3,-2,-6,-4,-4,-1
1558439891452547,0,0,1,0,7,8,1,1
1558439891452547,-1,-1,-1,0,3,8,2,0
1558439891468626,2,-2,-2,-1,-5,-6,-6,-2
1558439891468626,-4,-4,-5,-4,-4,-4,-5,-4
1558439891468626,-1,0,4,1,-1,-6,-2,-2
1558439891468626,1,-3,-3,-5,3,5,3,0
1558439891484548,-2,1,0,-1,-1,-10,-5,0
1558439891484548,0,1,3,0,4,5,4,1
1558439891490536,-3,-1,-2,-3,-6,-2,-6,-2
1558439891490536,-2,-2,0,2,-3,2,-3,-3
1558439891505530,-1,-1,-2,-3,0,1,0,1
1558439891505530,-4,-5,-5,-4,-9,-7,-8,-4
1558439891512509,0,1,0,1,-2,-3,0,0
1558439891512509,1,3,1,2,8,1,7,5
1558439891528466,-1,-3,-4,-1,-3,3,1,-4
1558439891528466,-1,1,4,2,7,6,4,0
1558439891529428,-4,-1,-3,-2,-6,-5,-2,-3
1558439891529428,-3,-1,-2,-3,-7,-7,-8,-4
1558439891544388,-3,-1,-3,-2,-5,-2,-6,-3
1558439891544388,0,0,-1,0,1,3,4,0
1558439891550371,-1,-2,-2,-3,0,-10,-3,-1
1558439891550371,1,0,-1,1,6,8,3,2
1558439891565358,-1,0,3,3,3,8,2,0
1558439891565358,-5,-3,-4,-6,-14,-11,-7,-5
1558439891572348,-1,0,-3,-6,-7,-9,-5,-2
1558439891572348,-1,-3,-2,0,10,5,2,1
1558439891588304,1,-2,0,0,3,6,3,0
1558439891588304,1,1,2,-2,0,-3,-2,-1
1558439891589298,-2,-1,0,2,5,5,4,1
1558439891589298,-3,-3,0,-2,-6,-8,-3,-6
1558439891612207,-1,1,-1,-2,-2,6,2,1
1558439891612207,1,-2,-1,-1,-1,-10,-7,0
1558439891613332,-2,-6,-5,-1,-1,1,-5,-3
1558439891613332,-3,-3,-1,-3,-8,-7,-8,-3
1558439891625175,-2,-2,-2,1,11,4,9,4
1558439891625175,1,0,1,2,2,7,5,1
1558439891633181,-2,-3,1,1,-1,1,-3,-3
1558439891633181,-2,-2,-2,-3,-8,-2,-1,-2
1558439891648551,-4,-3,-2,-1,-6,-5,-4,-5
1558439891648551,0,3,-3,0,3,-7,-3,2
1558439891649422,-2,0,-1,-1,5,-1,2,2
1558439891649422,0,2,-1,-3,-3,-1,-1,-1
1558439891664382,2,-2,0,-2,-4,-11,-6,-1
1558439891664382,-2,-2,-1,1,3,6,4,0
1558439891670428,-2,-1,-2,-1,-1,4,-2,-1
1558439891670428,-1,-1,3,1,0,0,1,0
1558439891685368,0,-2,-2,-2,-2,-3,-3,-1
1558439891685368,0,0,1,1,4,1,3,1
1558439891692340,2,2,1,0,-4,-5,-1,1
1558439891692340,-2,-3,-4,0,0,1,-2,-3
1558439891708298,-2,-2,-1,-3,0,-5,-2,-1
1558439891708298,-2,0,-1,-1,-3,-1,-1,-4
1558439891709263,0,-2,-2,0,3,5,4,-1
1558439891709263,1,-2,-1,1,2,0,3,0
1558439891724222,-3,-1,-1,-2,-5,1,-3,-5
1558439891724222,-2,-3,-4,-4,-10,-11,-8,-2
1558439891730243,0,0,-2,-3,-6,-14,-4,2
1558439891730243,0,0,0,0,6,1,-2,-1
1558439891745165,0,-1,-1,1,9,10,3,2
1558439891745165,-2,-1,1,1,1,2,3,-1
1558439891752147,-2,-2,-1,-2,-3,-2,-1,-3
1558439891752147,-2,0,-6,-3,-10,-6,-4,-3
1558439891768161,-1,-3,-2,-1,0,4,-1,-1
1558439891768161,-1,-1,3,-3,0,3,-2,-3
1558439891769103,1,3,2,1,2,2,5,1
1558439891769103,1,-2,-2,-4,-3,-2,-2,0
1558439891784063,-2,-4,-4,-3,-5,-5,-5,-4
1558439891784063,-1,0,-1,0,-3,3,0,2
1558439891790046,0,0,0,-2,-1,5,1,-1
1558439891790046,-1,1,3,1,3,-6,-3,1
1558439891805039,-1,-1,-7,-3,-3,-5,-5,-3
1558439891805039,0,-2,-3,-2,-3,-9,-4,-2
1558439891813013,1,-1,-1,0,4,12,7,2
1558439891813013,-1,0,2,-1,-1,2,2,0
1558439891827972,-3,-2,0,-3,-5,-5,-2,-2
1558439891827972,0,3,2,2,6,0,0,2
1558439891843931,-2,-3,-4,-1,-6,-4,-8,-2
1558439891843931,-2,-3,-3,-3,-3,4,1,-4
1558439891845896,0,1,2,0,0,-2,0,2
1558439891845896,-3,-1,-1,1,5,1,4,2
1558439891849919,-4,0,0,-1,-3,-2,-3,-2
1558439891849919,-4,0,-1,-2,-3,-4,-5,-1
1558439891866843,0,0,-3,-2,0,-2,2,1
1558439891866843,-1,-3,-2,-2,-3,4,2,0
1558439891880807,-2,-3,-3,-2,2,4,0,-3
1558439891880807,-1,-3,-3,-1,-2,-3,-3,-1
1558439891887787,0,-1,0,0,-2,-7,-4,-2
1558439891887787,-1,-2,1,-1,-3,-1,3,-3
1558439891894796,-2,-2,-3,-1,-4,-1,0,0
1558439891894796,0,2,2,2,2,1,1,1
1558439891903769,-1,-2,-3,-1,3,-2,-7,-4
1558439891903769,3,-1,1,2,7,8,6,1
1558439891909727,1,-1,1,-1,4,5,5,2
1558439891909727,-2,-3,-2,-5,-3,-8,-3,0
1558439891926679,-1,1,1,-3,-7,-2,-3,-1
1558439891926679,-4,-3,-4,-3,-10,-8,-5,-4
1558439891932861,-3,-1,-1,0,1,-1,-4,-1
1558439891932861,-1,0,0,-1,-2,-2,1,-2
1558439891947865,-1,-2,0,0,0,0,1,3
1558439891947865,-1,2,0,0,-1,-5,-9,-3
1558439891954847,1,0,-5,-5,-3,-1,-3,-2
1558439891954847,0,0,-1,0,6,7,5,0
1558439891963822,-3,-5,-2,0,-1,0,-3,-4
1558439891963822,-2,-1,-1,-4,-6,1,-3,-2
1558439891969954,-3,-6,-2,-3,-7,-11,-5,-4
1558439891969954,-1,1,-1,-1,1,-4,-4,-1
1558439891986763,3,0,3,1,6,6,7,1
1558439891986763,-1,-3,-4,-2,1,-1,-2,-2
1558439892000788,1,-1,1,1,-3,-3,-2,-4
1558439892000788,-1,-2,-6,-5,-11,-7,-9,-3
1558439892008767,-4,0,1,2,7,8,9,2
1558439892008767,-1,-2,-1,-2,0,-3,-2,-1
1558439892014749,-1,-3,0,-1,-5,-4,1,-3
1558439892014749,-1,-2,-1,0,0,4,0,-3
1558439892030706,0,1,-2,-1,-1,5,-5,-3
1558439892030706,1,1,0,0,3,2,6,1
1558439892031640,-2,0,-2,-1,-1,-13,-3,0
1558439892031640,-1,-3,-1,-4,-7,-6,-6,0
1558439892046601,-1,-1,-1,-4,-7,-3,-1,0
1558439892046601,0,1,2,2,5,2,2,0
1558439892052621,1,0,0,1,6,5,0,0
1558439892052621,-2,1,0,2,7,7,2,1
1558439892067578,-1,0,-3,-2,-3,-4,-2,-2
1558439892067578,-4,2,-1,-4,-12,-10,-9,-3
1558439892083532,-2,-6,-2,-3,-9,-5,-7,-5
1558439892083532,0,-2,-1,3,8,7,6,2
1558439892090481,2,-2,1,-1,3,5,4,3
1558439892090481,-1,-1,-4,0,4,0,0,-1
1558439892091483,0,1,0,0,5,3,5,2
1558439892091483,0,-1,-2,-3,-4,-4,-5,-1
1558439892106441,0,-1,0,-2,-6,-5,-5,-2
1558439892106441,-2,-3,0,0,-3,4,-1,-4
1558439892120438,0,0,1,-1,-4,-1,0,0
1558439892120438,3,1,2,3,4,-9,2,4
1558439892127416,3,2,0,1,5,-1,1,2
1558439892127416,-2,-1,0,-1,2,1,-2,-1
1558439892135398,-1,-2,-1,-1,-1,-3,-4,-4
1558439892135398,-2,-1,-1,-2,-5,2,1,-2
1558439892167276,-4,-4,-5,-4,-7,-7,-6,-3
1558439892167276,1,0,3,3,3,0,3,3
1558439892168273,-3,-1,-3,-3,1,2,0,-1
1558439892168273,2,2,0,-2,0,-2,-1,-2
1558439892169271,-2,-3,0,2,0,2,-2,-5
1558439892169271,-1,-2,-2,-4,-4,-1,-2,-2
1558439892172365,1,1,-2,-2,6,1,0,2
1558439892172365,-5,-5,-3,-3,-8,-7,-6,-4
1558439892188254,-2,-1,0,-2,0,3,3,0
1558439892188254,0,-3,-5,-2,-7,-5,-6,-2
1558439892203421,0,-1,0,1,-4,-5,-2,0
1558439892203421,0,-2,0,3,7,3,4,4
1558439892211316,0,1,2,0,1,-1,0,0
1558439892211316,-2,-2,-2,-4,-3,-1,-3,-2
1558439892212156,-4,-1,-2,-2,-9,-2,-5,-3
1558439892212156,-2,1,-1,0,-3,3,2,-3
1558439892226271,-1,-2,-4,-1,5,4,5,0
1558439892226271,0,-1,-3,-1,-5,-7,-6,-4
1558439892241275,3,2,5,6,8,7,8,4
1558439892241275,-3,-2,-4,-4,3,-3,0,0
1558439892247260,-2,-3,-2,-3,-8,-6,-2,-3
1558439892247260,-3,-1,-4,0,3,5,1,2
1558439892255234,0,0,-1,-2,0,-1,-5,-1
1558439892255234,0,-2,-4,-1,-5,1,1,0
1558439892278253,2,2,4,2,2,-3,-1,0
1558439892278253,0,0,1,-1,3,5,0,0
1558439892286232,-1,-1,-1,-1,0,1,-2,-2
1558439892286232,-1,-2,0,-1,-8,-7,-7,-5
1558439892288188,-3,-1,-6,-4,-7,-5,-4,0
1558439892288188,-1,-1,0,1,3,6,9,6
1558439892292179,-3,-1,1,-1,-2,-8,-7,-2
1558439892292179,-1,-1,-1,-2,-1,2,1,-2
1558439892308132,0,-3,-1,0,2,7,3,0
1558439892308132,1,-4,-1,0,-1,0,2,0
1558439892323134,0,2,0,4,4,-4,3,2
1558439892323134,-1,0,-3,-1,-3,-2,-7,-5
1558439892331203,1,3,-1,-3,-9,-9,-3,-1
1558439892331203,0,-1,1,-2,1,2,1,-1
1558439892331203,0,-1,-1,-1,5,5,3,0
1558439892331203,0,0,2,0,-1,-5,-3,-2
1558439892346159,-1,-3,-2,-1,3,5,-1,1
1558439892346159,0,1,0,-2,-8,-8,-7,-2
1558439892361119,-2,-2,-5,-6,-8,0,-4,-4
1558439892361119,-1,-2,-3,-1,-1,-2,2,3
1558439892368085,-2,-2,-2,-1,-7,0,-3,-5
1558439892368085,1,2,0,-1,3,-7,-3,0
1558439892375049,-2,-1,0,0,-1,-3,-2,-3
1558439892375049,0,0,0,-1,-1,0,-1,1
1558439892398113,-2,-1,-5,-4,-3,0,2,-1
1558439892398113,-2,0,-1,0,-2,1,-2,-4
1558439892398985,-1,-2,-2,0,3,0,-2,-3
1558439892398985,-3,-3,-3,1,1,-1,-3,0
1558439892406977,1,-1,3,2,-1,-6,-2,1
1558439892406977,0,-1,-1,-3,-5,-3,-3,-3
1558439892413077,-2,-3,-5,-5,-10,1,-2,-2
1558439892413077,-1,-2,-1,-3,-8,-3,-4,-3
1558439892443952,0,2,2,3,14,2,4,3
1558439892443952,-3,1,-1,4,3,1,-2,2
1558439892444862,0,0,0,-1,-3,-8,-5,-1
1558439892444862,2,-1,0,0,1,-3,1,0
1558439892450879,1,-3,-6,-1,1,2,0,-2
1558439892450879,-2,-3,-5,-4,-5,1,-1,-3
1558439892451877,0,-3,0,-2,-1,9,3,-2
1558439892451877,0,1,0,-1,-7,-11,-4,0
1558439892466807,2,1,2,2,4,-4,2,3
1558439892466807,1,3,1,1,4,-1,1,0
1558439892480806,-5,-3,-1,-1,-2,-5,-3,-3
1558439892480806,-1,0,1,2,8,9,2,1
1558439892487756,-3,-2,-2,-5,-10,-7,-6,-6
1558439892487756,0,-3,-2,-4,-4,-3,-1,1
1558439892494764,0,0,0,0,-3,3,-1,0
1558439892494764,-1,-3,-2,1,6,6,2,0
1558439892519050,-1,1,1,0,-5,-9,-6,-2
1558439892519050,-1,-2,-3,-1,1,5,2,-1
1558439892519050,-1,0,-1,3,0,-2,0,-1
1558439892519050,1,-1,-2,-3,-4,-4,-1,-1
1558439892526647,0,1,0,-2,-1,-2,-2,0
1558439892526647,-2,-1,-1,-1,-3,3,0,-4
1558439892532670,0,-3,-4,-5,-10,-12,-1,-2
1558439892532670,2,2,4,0,10,4,2,3
1558439892547623,-1,1,-1,1,-2,0,-6,-3
1558439892547623,-1,-2,2,2,4,0,2,1
1558439892555566,0,-1,-2,-2,5,1,4,1
1558439892555566,-4,-4,-5,-5,-14,-7,-7,-5
1558439892570566,-1,-2,-2,-1,-2,1,2,-1
1558439892570566,0,0,0,-1,4,0,-4,-3
1558439892571527,0,-1,0,0,0,-1,-3,-1
1558439892571527,-2,-2,-2,-3,-2,0,0,-3
1558439892586483,-1,1,5,1,-1,-1,-1,-1
1558439892586483,-1,-1,-4,-4,-10,-9,-6,-4
1558439892600446,-2,-1,-4,-2,6,9,4,2
1558439892600446,2,0,-1,-1,1,0,-1,-2
1558439892607429,-4,-3,-3,0,2,7,1,0
1558439892607429,1,-2,2,3,2,-1,5,4
1558439892615877,-2,0,2,1,-5,-7,-7,-2
1558439892615877,-1,0,-3,0,0,3,-1,-3
1558439892638783,-1,-3,-2,-3,-1,4,2,-1
1558439892638783,-2,-2,-2,-2,-4,-11,-1,-1
1558439892639342,-3,-3,0,-1,2,7,1,2
1558439892639342,-3,-1,2,-1,2,2,2,0
1558439892646326,-2,0,-3,-2,-4,-4,-1,-2
1558439892646326,-2,-2,-4,-1,-2,0,-5,-3
1558439892653565,0,-2,0,-2,-4,-2,-1,-1
1558439892653565,0,-1,-1,-1,2,-4,2,1
1558439892676548,-5,-2,-2,-3,0,0,-2,-2
1558439892676548,-4,-2,-4,-3,-13,-5,-6,-4
1558439892676548,0,0,0,1,5,-1,-2,1
1558439892676548,0,0,1,2,4,3,7,5
1558439892691203,-2,-1,0,-3,-3,-3,-1,-3
1558439892691203,-3,-3,-2,-3,0,-3,-2,-4
1558439892691203,-1,0,-1,3,-1,-1,1,-3
1558439892691203,1,-2,-2,-2,-4,1,-4,-1
1558439892723119,0,-2,-2,1,4,3,1,1
1558439892723119,-1,-1,2,-1,-1,2,0,-1
1558439892723119,-2,-2,-3,-2,-9,-9,-6,-4
1558439892723119,-2,-2,-4,-3,-4,0,1,-2
1558439892728314,0,0,1,2,5,3,3,2
1558439892728314,0,-2,-5,0,3,3,0,-1
1558439892735308,1,1,-1,-4,0,1,-2,0
1558439892735308,-1,-3,-3,-4,-9,-12,-8,-3
1558439892758027,0,-1,0,0,-1,1,-1,-3
1558439892758027,-1,-1,2,1,4,1,1,2
1558439892759025,0,-1,0,0,-2,-3,-2,-1
1558439892759025,-1,-2,-2,-5,-5,-4,-5,-6
1558439892767003,-2,-4,-3,-3,-5,-6,-4,-3
1558439892767003,-1,-1,0,-2,-2,-7,0,-1
1558439892772996,1,0,2,1,5,5,4,4
1558439892772996,-3,0,0,-1,-2,0,-1,-3
1558439892796126,0,1,1,-2,1,3,-2,-1
1558439892796126,3,3,0,1,4,2,8,6
1558439892796924,1,-2,-1,-1,-7,-13,-6,-4
1558439892796924,0,1,3,4,5,7,6,-1
1558439892809886,-2,-3,-4,-3,-2,1,0,0
1558439892809886,1,-2,0,0,5,9,1,-1
1558439892817864,0,-1,-1,1,-2,-7,-2,-1
1558439892817864,-1,1,0,-1,0,-4,-2,0
1558439892841798,1,-1,-2,-2,-5,-3,-3,-2
1558439892841798,-1,0,-2,-1,-6,3,-4,-2
1558439892841798,-1,-2,-3,-3,-7,-10,-3,-2
1558439892841798,4,1,4,4,8,3,5,6
1558439892847812,-1,-4,-3,-2,-4,-9,-6,-1
1558439892847812,-3,-3,-5,-3,-2,-1,0,-1
1558439892855979,0,2,1,-2,7,17,9,2
1558439892855979,-3,-3,-1,-2,-5,-9,-8,-6
1558439892879113,0,-1,3,2,2,-1,2,0
1558439892879113,-1,-2,0,-3,-2,1,-2,-2
1558439892879113,-5,-6,-7,-3,-10,-7,-3,-6
1558439892879113,1,0,-3,-2,1,-1,2,4
1558439892886682,2,-3,-3,-2,-2,-4,-4,-3
1558439892886682,-2,-1,0,0,-3,-7,-5,-4
1558439892893029,1,1,4,4,11,8,5,5
1558439892893029,-3,-3,-2,-3,-5,1,-5,-4
1558439892916603,-4,-2,-1,-1,-2,-6,-3,-2
1558439892916603,-1,0,2,0,-3,-6,-3,-2
1558439892916603,2,2,1,1,10,11,6,4
1558439892916603,-1,-2,-3,-1,1,-4,2,-3
1558439892929566,-2,-1,-3,-3,-9,-6,-6,-4
1558439892929566,0,-3,-4,-1,-5,3,-3,-5
1558439892937575,-3,0,-1,-2,-2,-4,-2,-2
1558439892937575,0,-2,0,0,-2,-1,0,0
1558439892954499,0,1,1,3,7,10,9,3
1558439892954499,-1,-2,0,-1,-5,-8,-4,-2
1558439892955534,-2,-4,-7,-5,-2,0,-1,-3
1558439892955534,0,2,1,0,6,2,6,5
1558439892967492,-1,0,0,0,0,-1,1,0
1558439892967492,1,2,2,1,5,2,3,1
1558439892975441,1,0,1,-3,-4,-10,-5,-1
1558439892975441,-6,-7,-6,-3,-11,-2,-4,-7
1558439892990402,1,1,3,-1,-1,4,0,0
1558439892990402,1,1,3,-1,2,-6,-2,0
1558439892997384,0,-1,0,0,5,11,3,0
1558439892997384,2,2,2,1,6,-1,-1,3
1558439893013698,-1,-2,-4,-5,-9,-4,-6,-3
1558439893013698,-4,-3,-4,-2,-6,-6,-1,-1
1558439893014339,-1,2,1,3,4,4,6,2
1558439893014339,-1,-1,0,-2,-3,3,-4,-4
1558439893028312,0,0,2,0,3,1,3,-2
1558439893028312,0,0,0,2,4,0,-2,0
1558439893035501,-3,-2,-5,-7,-8,-3,-1,-2
1558439893035501,-1,-1,-2,-2,-1,3,0,-1
1558439893050633,-1,1,-1,2,0,-5,-1,0
1558439893050633,-1,-2,-2,-2,2,0,-1,-2
1558439893057225,0,-2,2,2,-1,-2,-4,-2
1558439893057225,-1,-2,0,0,0,5,-5,-3
1558439893073181,-1,-1,-2,-1,-3,-3,1,2
1558439893073181,-2,-3,-4,-5,-3,-5,1,1
1558439893074189,1,0,1,2,4,6,3,-1
1558439893074189,-3,-2,0,-2,-2,-1,1,1
1558439893088469,-1,0,-1,-1,-2,-4,-5,-3
1558439893088469,-3,-2,0,0,-7,2,-4,-2
1558439893095405,0,0,-2,3,10,13,8,1
1558439893095405,1,1,-1,0,3,-7,1,3
1558439893111407,-1,-3,-1,-1,-4,-9,-1,-2
1558439893111407,-2,-2,-3,-2,-2,-1,-4,-1
1558439893118349,-3,-3,-2,0,-7,1,-3,-2
1558439893118349,0,-2,2,0,1,0,-3,-3
1558439893134114,0,-2,-3,-2,0,-3,-3,-2
1558439893134114,2,-1,-5,-1,-1,-2,-1,-1
1558439893134114,0,-2,1,-1,2,-2,0,0
1558439893134114,-3,-3,-3,-4,-1,2,-1,0
1558439893155958,-1,-2,-1,-1,-3,0,0,-2
1558439893155958,-2,-2,-4,-3,-6,-5,-2,-1
1558439893155958,-3,-1,1,0,-4,-4,-4,-5
1558439893155958,-1,0,-2,-1,0,1,2,2
1558439893170213,-1,-1,0,-2,3,4,3,0
1558439893170213,-2,-1,-3,-3,-2,-2,-4,-3
1558439893178186,0,-1,-2,-2,-7,-12,-7,-4
1558439893178186,3,1,1,2,-2,0,0,-2
1558439893194858,-1,2,1,1,6,2,2,2
1558439893194858,2,1,2,4,10,13,10,3
1558439893195853,-1,-3,-2,-5,-12,-8,-8,-2
1558439893195853,-2,-1,-2,-2,-5,-4,-6,-5
1558439893207823,2,0,0,0,1,-3,-2,1
1558439893207823,0,0,2,1,-1,3,3,-3
1558439893215080,1,-2,-3,-1,-3,-4,-3,-2
1558439893215080,0,-5,1,-1,-3,-3,-3,-3
1558439893231760,-3,0,1,-2,2,5,5,-1
1558439893231760,0,-1,-2,-3,2,4,0,-1
1558439893238040,-2,-2,-1,-2,-4,-3,-4,-2
1558439893238040,-1,0,-1,-1,-5,-10,-1,2
1558439893254062,-2,-1,-1,0,-1,-6,-7,-3
1558439893254062,-3,-5,-2,-3,-10,-7,-3,-1
1558439893254062,1,2,2,3,17,14,14,7
1558439893254062,-1,2,1,2,8,13,5,-1
1558439893268025,-4,-3,-4,-3,-4,0,-2,-2
1558439893268025,1,2,-2,-3,1,-9,-3,1
1558439893275799,-1,-2,-3,-3,-9,-6,-6,-3
1558439893275799,-1,-3,-2,0,-6,-7,-3,-2
1558439893289675,-3,-1,-2,0,3,0,3,0
1558439893289675,-2,0,1,3,-2,6,1,-1
1558439893297983,-2,-4,-3,2,1,2,3,1
1558439893297983,0,-1,-3,-5,5,5,-1,1
1558439893313951,1,-3,-3,-3,-8,-3,-5,-3
1558439893313951,-3,-2,-1,-2,-6,-6,-2,-2
1558439893313951,-2,0,2,1,0,-3,-3,-1
1558439893313951,2,2,1,-3,-6,-11,-3,-2
1558439893327610,1,-1,-1,3,6,13,6,0
1558439893327610,-1,-4,0,1,1,2,-3,-3
1558439893343567,2,1,-1,-3,-3,0,-4,-1
1558439893343567,-4,-2,-5,-3,-2,-7,-2,-1
1558439893350513,0,-1,-2,-1,-5,-7,-5,-1
1558439893350513,2,3,3,1,6,7,8,1
1558439893357495,-5,-4,-5,-4,-10,-12,-8,-5
1558439893357495,-2,-3,-1,0,5,8,5,0
1558439893373452,-2,-1,-3,-1,-3,1,0,-2
1558439893373452,-2,-4,-5,-3,-4,-7,-9,-1
1558439893373452,2,3,4,4,8,8,10,3
1558439893373452,-1,0,-4,0,-4,-1,-5,-4
1558439893388416,-1,1,0,-1,2,4,4,1
1558439893388416,-1,4,0,-2,0,-13,-3,1
1558439893395395,-4,-2,-4,-4,-14,-14,-9,-5
1558439893395395,-2,-1,1,1,-4,0,-3,-1
1558439893410354,0,-3,0,3,5,8,3,-1
1558439893410354,2,-3,-1,1,8,2,2,2
1558439893417334,1,0,1,-2,1,-1,0,-1
1558439893417334,-1,-1,-2,-1,-4,-6,-2,0
1558439893433323,-2,1,-4,-4,-4,-9,-3,1
1558439893433323,-4,-3,-2,-2,-1,2,1,-2
1558439893434289,-1,-2,-3,-5,0,2,-2,-3
1558439893434289,-3,-5,-3,-3,-8,-2,-1,-3
1558439893447273,2,0,3,2,3,-4,-2,1
1558439893447273,-1,2,2,2,5,2,2,0
1558439893455241,1,0,2,2,4,9,3,1
1558439893455241,-1,-1,0,0,2,-2,-4,-3
1558439893470193,-3,-2,-5,-1,-7,-7,-5,-3
1558439893470193,-2,0,0,-3,-8,-5,-7,-5
1558439893477638,1,1,-1,-1,4,-2,3,1
1558439893477638,-1,-1,-3,1,1,2,0,0
1558439893493132,0,-2,0,-2,0,8,2,-2
1558439893493132,-2,-1,-1,-1,0,-7,-2,1
1558439893494128,-4,-3,1,-1,-6,-8,-10,-5
1558439893494128,1,-1,0,2,7,15,10,3
1558439893507098,1,2,1,-3,0,-5,-4,-1
1558439893507098,0,-1,-3,-2,-5,-2,-1,0
1558439893515074,1,1,0,-1,6,1,3,3
1558439893515074,-3,-1,1,0,-2,4,-2,-3
1558439893530133,-4,-4,-3,0,-11,-4,-9,-6
1558439893530133,2,0,1,2,9,-1,3,4
1558439893538014,-2,-2,-4,-2,-6,-6,-5,-2
1558439893538014,-1,-3,-2,-2,1,0,5,1
1558439893553001,-4,-5,-2,-4,-6,-1,-2,-3
1558439893553001,-5,-3,-2,-4,-13,-5,-8,-5
1558439893560949,0,0,-3,-1,4,1,2,0
1558439893560949,1,-1,-2,-3,1,-4,-2,0
1558439893567931,-2,-1,-2,0,2,2,-2,-1
1558439893567931,0,2,2,1,4,4,2,-1
1558439893574914,0,-3,-4,-3,-7,-1,-6,-4
1558439893574914,-2,0,-1,-1,-1,1,7,2
1558439893589906,-1,0,-1,-1,6,5,9,3
1558439893589906,-2,-4,-4,-4,-10,-7,-5,-3
1558439893597850,1,-1,2,1,1,-2,4,1
1558439893597850,-4,-4,-2,-3,-6,-4,-6,-3
1558439893612813,2,1,2,0,-2,-7,2,1
1558439893612813,0,0,-1,0,1,3,-1,-2
1558439893613809,-1,-3,-5,-2,-3,1,-2,-4
1558439893613809,0,0,2,-2,0,-3,-6,-2
1558439893627944,-2,-3,-3,0,-1,0,1,0
1558439893627944,0,-1,-3,-1,1,0,-3,-2
1558439893634752,0,0,1,-1,-2,-3,0,2
1558439893634752,-2,1,0,-1,0,4,-1,-1
1558439893649745,1,-2,-1,-3,-2,-3,-4,-2
1558439893649745,-1,1,-1,0,5,4,5,0
1558439893657691,-5,-3,-5,-5,-9,-4,-2,-5
1558439893657691,-1,-1,0,1,-3,-2,-1,-4
1558439893672650,-1,0,5,2,4,-3,3,3
1558439893672650,-1,-3,-4,-3,-2,-5,2,1
1558439893680695,-2,-2,0,-2,-6,-1,-9,-5
1558439893680695,-1,1,-1,2,-2,-4,1,0
1558439893688609,-1,-2,-2,-5,-5,-10,-12,-6
1558439893688609,0,-1,-2,-1,-1,-4,-1,2
1558439893694730,0,2,4,3,17,14,12,4
1558439893694730,-1,-2,-4,-3,-3,0,-6,-2
1558439893710590,0,1,0,2,-1,6,-1,1
1558439893710590,-1,-2,-3,-1,-8,-4,-6,-4
1558439893717651,-2,-1,-1,-3,-11,-15,-9,-4
1558439893717651,1,0,0,4,9,7,8,3
1558439893732494,1,2,-4,-3,-3,-3,-3,1
1558439893732494,-5,0,0,-1,-6,6,-2,-4
1558439893740469,2,0,-5,-3,-5,-11,-7,0
1558439893740469,3,1,3,2,14,13,7,3
1558439893755659,-2,-3,1,2,-1,-4,1,-3
1558439893755659,-1,-5,-3,-2,-4,1,1,-2
1558439893756428,1,-1,1,0,2,-3,-4,1
1558439893756428,-1,-2,-3,-1,-10,-13,-12,-6
1558439893770622,0,2,2,-1,4,2,7,0
1558439893770622,0,2,-2,-2,4,5,4,1
1558439893777507,-3,-3,-3,0,-8,-3,-3,-3
1558439893777507,-1,-3,-7,-3,-6,-8,-4,-3
1558439893792332,1,0,1,-2,2,-6,-1,3
1558439893792332,-1,-2,1,2,2,10,0,-2
1558439893800493,-3,-3,-3,-2,-5,-3,0,-1
1558439893800493,-2,1,2,0,0,0,-3,-3
1558439893809285,-4,-6,-15,-15,-12,4,-3,-6
1558439893809285,1,1,-1,5,7,-2,4,1
1558439893815272,-1,2,3,6,7,4,2,2
1558439893815272,0,-2,0,-8,-9,-11,-4,0
1558439893830417,-3,-2,10,-7,-4,-2,-6,-3
1558439893830417,-2,0,-2,-2,-7,3,-3,-1
1558439893838208,2,-3,0,-4,6,-1,4,3
1558439893838208,0,-1,-5,-3,-4,0,-3,-5
1558439893852170,0,-2,-3,7,3,6,2,1
1558439893852170,-2,-1,2,-1,1,-4,2,-1
1558439893860148,-2,0,-4,-1,-3,3,-1,-4
1558439893860148,-2,-3,-3,-1,-4,-2,-4,-1
1558439893876110,-3,-1,-1,-1,5,-6,0,1
1558439893876110,1,-1,1,1,0,-6,-1,-2
1558439893876110,-2,-1,-2,-1,2,2,0,-4
1558439893876110,-1,-3,-3,-5,-4,-7,-6,-3
1558439893890076,3,0,1,7,6,5,3,1
1558439893890076,-1,-1,-2,-2,2,3,2,0
1558439893897171,0,0,1,0,0,3,-2,-2
1558439893897171,0,3,3,0,-2,1,3,1
1558439893913010,-1,0,1,-1,-6,-7,-6,-1
1558439893913010,0,-1,1,2,2,0,-1,-1
1558439893919990,0,-2,0,-2,-3,0,1,1
1558439893919990,-3,0,-1,1,9,6,4,3
1558439893935958,-2,-2,-5,-1,-4,-7,1,-1
1558439893935958,-2,0,-1,-1,1,2,2,0
1558439893936945,-1,0,-1,-1,-6,-3,-5,-3
1558439893936945,-1,-1,1,1,-3,-6,-2,0
1558439893950113,2,1,-2,-1,1,-6,-3,2
1558439893950113,-3,-5,-6,-6,-11,-7,-11,-6
1558439893957889,1,-2,1,1,5,6,7,1
1558439893957889,0,-1,1,0,-2,-3,-5,-3
1558439893972848,2,-2,-2,1,8,5,3,1
1558439893972848,-1,-1,-3,-2,-2,-2,-1,-2
1558439893979831,-2,1,1,4,-1,-4,-3,-1
1558439893979831,-4,-2,-4,-5,-14,-6,-8,-6
1558439893995818,-2,0,1,0,0,6,3,-1
1558439893995818,1,-2,0,1,4,7,6,2
1558439893996784,-3,-3,-5,-4,-8,-1,-4,-3
1558439893996784,0,-1,1,3,2,3,4,1
1558439894009749,2,3,1,-3,2,-1,1,1
1558439894009749,0,-2,1,2,1,-5,-2,-3
1558439894017730,-1,-2,-2,-1,4,-3,-2,-2
1558439894017730,-3,-2,-2,-2,-13,-11,-10,-2
1558439894032688,-6,-6,-5,2,-4,6,-2,-4
1558439894032688,3,-1,4,0,6,-2,4,5
1558439894039669,0,1,0,-1,6,4,2,4
1558439894039669,-1,-1,-2,1,7,5,6,1
1558439894055628,-2,-1,-3,-4,-11,-8,-7,-7
1558439894055628,-6,-3,-2,-5,-11,-6,-7,-4
1558439894056629,-2,-2,0,-1,0,-4,2,-1
1558439894056629,0,1,-2,-2,5,5,6,4
1558439894070585,0,-2,-3,-2,0,3,-1,0
1558439894070585,1,-1,-1,0,1,2,2,-2
1558439894077765,-1,-1,-2,-6,-7,-10,-7,-2
1558439894077765,1,-1,-1,0,-2,-1,1,1
1558439894092603,-2,1,1,-1,-5,-5,-3,-5
1558439894092603,-2,-2,1,2,4,3,3,2
1558439894100519,1,0,-2,3,10,9,8,4
1558439894100519,-1,0,5,-2,-3,-7,-8,-4
1558439894115465,-2,-3,-5,-4,-5,1,-1,-1
1558439894115465,-3,-2,-2,-3,-8,-1,-7,-5
1558439894116464,0,0,-1,-1,-2,-1,1,1
1558439894116464,1,0,3,3,7,0,3,1
1558439894130428,0,1,2,0,4,-1,2,2
1558439894130428,-1,0,-2,-1,-1,-6,-3,0
1558439894137407,-1,0,-3,-3,-2,1,-5,-5
1558439894137407,-2,-2,-3,-2,4,6,4,-1
1558439894152372,-4,-4,0,1,-7,-2,-5,-4
1558439894152372,-2,0,-4,-6,-7,-6,-5,-1
1558439894160348,1,2,7,4,6,-5,2,4
1558439894160348,4,2,0,2,3,3,3,2
1558439894184313,-1,-1,-1,-2,-2,-1,-1,-2
1558439894184313,2,1,-3,-7,3,6,7,4
1558439894184313,-4,-5,-3,-1,-13,-7,-10,-9
1558439894184313,-1,-1,-3,-2,-4,-1,-5,-3
1558439894190274,4,-2,-1,2,6,5,4,2
1558439894190274,0,0,3,-1,-7,-5,-6,-3
1558439894197277,-1,1,0,1,2,5,3,1
1558439894197277,1,-2,0,-1,5,1,7,3
1558439894212208,0,0,-1,-1,-3,-3,-5,-1
1558439894212208,-2,-1,-4,-2,-7,-6,-3,-2
1558439894220197,0,-1,1,-1,-1,1,3,1
1558439894220197,-5,-5,-5,-4,-1,1,-6,-8
1558439894236150,0,-1,2,3,2,6,7,4
1558439894236150,1,1,4,4,8,-2,2,2
1558439894236150,-4,-4,-8,-6,-12,-7,-9,-6
1558439894236150,-1,-1,0,-3,-3,0,3,0
1558439894250107,-3,-1,0,2,6,8,1,-2
1558439894250107,1,-3,-2,-1,0,4,-2,-1
1558439894257090,3,3,-1,-3,5,-1,1,1
1558439894257090,-1,-1,1,1,-2,-1,-4,-3
1558439894273045,-2,1,0,-3,2,-3,2,0
1558439894273045,0,2,0,1,1,4,2,0
1558439894280027,-3,-2,-4,-3,-6,-4,-6,-4
1558439894280027,-4,-3,-4,-3,-3,-2,-3,-2
1558439894295987,0,-2,-1,0,-4,-1,-1,-2
1558439894295987,0,-1,2,0,1,-3,1,0
1558439894295987,2,2,2,1,5,5,2,1
1558439894295987,1,2,0,-3,-3,-3,0,-1
1558439894309948,-2,-2,-3,-2,-2,0,-7,-5
1558439894309948,-2,0,-1,-1,0,-6,-3,-1
1558439894317936,-1,-4,-1,-2,-2,-4,-4,0
1558439894317936,4,2,2,0,7,9,8,5
1558439894332896,-1,-1,-2,0,0,-5,-2,-3
1558439894332896,-2,-3,-2,-1,-10,-8,-6,-5
1558439894339867,-2,0,-2,-3,3,2,4,2
1558439894339867,-2,0,0,-1,-4,-12,-7,0
1558439894355827,-1,-1,-1,-1,-5,-3,-4,-3
1558439894355827,-1,0,-1,-1,6,9,5,1
1558439894356821,-2,-1,4,2,5,5,4,3
1558439894356821,0,-2,-2,0,-3,-4,-7,-3
1558439894369800,-2,-2,-4,-4,-11,-9,-7,-4
1558439894369800,1,-1,-1,-1,-1,0,1,1
1558439894377766,-2,-1,-3,1,0,-1,-2,-3
1558439894377766,-1,-2,2,0,4,5,5,2
1558439894392736,-3,-5,-5,-7,-10,-12,-11,-4
1558439894392736,0,-2,1,2,-1,3,1,-3
1558439894399718,0,-2,0,0,1,-7,-1,-1
1558439894399718,-4,-4,-4,-2,-1,0,-2,-4
1558439894415671,-3,-1,-4,-1,-2,-2,-2,-2
1558439894415671,-2,-1,0,0,9,16,7,0
1558439894416662,0,2,-1,-2,-12,-10,-8,-1
1558439894416662,-1,0,-1,-1,-2,-7,-1,0
1558439894429626,-2,-1,-4,0,-2,-3,-2,-3
1558439894429626,1,0,-1,-1,2,2,0,-1
1558439894437608,0,1,0,1,3,4,4,-1
1558439894437608,-2,-3,-1,-1,-8,-1,-3,-2
1558439894452573,-1,-3,-2,1,5,1,-1,0
1558439894452573,-1,-4,-3,-5,-4,-1,-3,0
1558439894459552,1,-1,1,0,2,-1,1,1
1558439894459552,-2,-1,-4,-3,-10,-7,-5,-5
1558439894475503,-1,0,1,0,-1,2,7,-1
1558439894475503,-1,-1,-4,-1,1,0,-3,-2
1558439894476500,-2,-2,-2,-1,-6,-2,-5,-2
1558439894476500,2,1,0,4,10,9,8,4
1558439894490463,1,0,-2,-4,7,7,3,2
1558439894490463,-4,-2,0,1,-9,-10,-6,-4
1558439894497445,-2,-2,-2,-1,-5,-6,-5,-3
1558439894497445,1,3,-4,-1,3,-2,2,-1
1558439894512405,-1,-1,3,3,-3,-1,-1,0
1558439894512405,-3,-2,-3,-5,-6,-7,-4,-2
1558439894520384,-2,-2,-3,-2,-1,5,-1,-2
1558439894520384,0,0,-1,-2,-3,-2,-3,-2
1558439894535343,2,2,0,1,5,-1,3,6
1558439894535343,0,-1,2,0,2,0,1,0
1558439894536340,2,0,0,0,2,1,-2,0
1558439894536340,-1,-2,-3,-5,-3,6,3,-1
1558439894550303,-1,-2,-1,-1,-7,-3,-5,-3
1558439894550303,1,1,1,1,3,-8,-2,0
1558439894557287,-2,-4,-5,-6,0,1,3,-2
1558439894557287,-2,-3,1,1,3,0,-1,-1
1558439894574243,-2,-1,1,-2,-1,-1,-1,-1
1558439894574243,-1,-2,-6,-4,-7,0,-4,-4
1558439894580223,0,-3,-1,6,4,5,5,1
1558439894580223,-1,0,0,0,-2,-7,-7,0
1558439894595183,-2,-2,-2,-3,-6,-2,-1,-3
1558439894595183,-3,-1,1,3,0,3,1,-1
1558439894596180,-1,-4,-4,-3,-3,-2,-2,-1
1558439894596180,-1,-3,0,-3,-2,-7,-5,-2
1558439894610144,1,1,1,-2,3,-1,2,3
1558439894610144,0,0,1,2,2,-3,3,1
1558439894617123,-2,-1,0,-1,2,7,1,-2
1558439894617123,-4,-4,-5,-2,-6,4,2,-2
1558439894632084,-1,-1,-2,-1,-4,-8,-9,-3
1558439894632084,0,2,-3,-1,7,4,8,6
1558439894640063,-3,-1,1,0,0,0,3,0
1558439894640063,-1,-1,0,2,-8,-12,-9,-2
1558439894655022,2,2,0,0,7,9,8,1
1558439894655022,-1,-2,-1,-2,-1,3,-2,0
1558439894663001,0,2,1,0,-3,0,-1,-1
1558439894663001,-4,-2,-1,1,0,2,-1,-2
1558439894669986,-1,-1,-1,-1,-4,-5,-3,-1
1558439894669986,-1,0,0,-3,-5,-9,-5,-3
1558439894677962,-1,-1,3,0,2,-3,-1,1
1558439894677962,-2,-2,0,-2,-2,-2,-3,-1
1558439894692922,-1,2,-1,6,9,7,4,2
1558439894692922,-5,-3,-5,-3,-6,-1,-2,-1
1558439894699903,-1,-2,0,0,-4,-1,-4,-5
1558439894699903,-1,0,0,-1,-4,-6,-2,-2
1558439894714862,1,2,-2,0,4,1,4,4
1558439894714862,-2,-3,-1,0,-2,-2,-6,-1
1558439894722842,-3,-4,-2,-5,-5,-3,-5,-4
1558439894722842,-2,-4,-5,-4,-6,1,-2,-2
1558439894729825,-2,-1,2,2,-1,-7,0,0
1558439894729825,1,0,2,2,11,4,6,2
1558439894737804,0,1,1,0,0,0,-3,-2
1558439894737804,-2,1,0,-3,-1,2,3,1
1558439894752760,-2,-4,0,-3,-11,-5,-6,-5
1558439894752760,-2,2,0,-1,-2,-13,-7,-1
1558439894759744,-1,-2,-5,-2,0,2,1,0
1558439894759744,1,2,-1,1,5,5,2,2
1558439894774703,0,-1,-2,-5,-3,-2,-2,-2
1558439894774703,0,0,4,1,0,2,0,0
1558439894782681,-2,-3,-8,-3,-1,1,-2,-3
1558439894782681,2,1,2,1,1,-7,-2,0
1558439894797648,-3,-2,-3,-2,-8,-1,-5,-6
1558439894797648,-2,0,-1,0,2,6,0,1
1558439894798638,2,3,0,0,-4,-14,-3,3
1558439894798638,-1,-2,3,0,-3,7,2,-2
1558439894812601,-1,-2,-2,1,0,-4,-1,-1
1558439894812601,-3,-3,-2,2,8,8,5,2
1558439894819582,-2,-2,1,-2,0,5,1,-1
1558439894819582,0,-2,-4,-4,1,-5,-4,0
