timestamp,emg1,emg2,emg3,emg4,emg5,emg6,emg7,emg8
1558439902293686,1,-4,-1,7,-7,0,-5,-1
1558439902293686,-3,-3,-1,2,-6,-3,-2,-2
1558439902294683,-2,-3,-2,-8,-1,-4,1,-2
1558439902294683,0,0,0,2,0,1,0,-2
1558439902299670,1,0,2,5,4,4,3,3
1558439902299670,-2,-1,0,-2,8,5,10,3
1558439902302662,0,0,-1,-4,-4,-1,-5,-3
1558439902302662,-4,-4,-4,3,-5,-1,-2,-1
1558439902313633,-3,2,0,-4,-1,0,-1,-1
1558439902313633,-3,-1,-4,-8,-6,-3,-10,-5
1558439902315628,-1,0,2,9,1,-1,0,-1
1558439902315628,2,-1,-3,-3,3,-2,3,1
1558439902327595,-2,1,-2,-7,-4,-1,-2,-2
1558439902327595,-2,-2,-3,3,-5,-8,-7,-1
1558439902354524,0,0,1,2,5,-1,0,0
1558439902354524,-3,-5,-3,-5,-4,4,-2,-4
1558439902355520,-1,-2,-4,-5,2,-4,0,1
1558439902355520,0,1,-2,3,2,-1,1,-1
1558439902358513,-4,-3,-4,-6,-10,-4,-8,-5
1558439902358513,-3,-3,0,-2,-1,-3,0,-1
1558439902366490,0,-2,-4,2,3,4,2,-2
1558439902366490,2,1,2,1,5,3,7,3
1558439902389429,-3,-2,-1,-2,-1,-3,2,-2
1558439902389429,1,2,1,3,1,3,1,0
1558439902390432,0,2,4,1,-2,-2,-4,-2
1558439902390432,-2,-4,-4,-1,-6,-7,-6,-3
1558439902398405,2,0,-2,1,8,12,8,5
1558439902398405,-1,1,2,-2,-6,-10,-7,-5
1558439902402395,-6,-4,-5,-4,-7,-3,-7,-4
1558439902402395,1,-2,1,-1,1,-1,3,2
1558439902419351,-2,-1,-2,0,2,-1,-1,0
1558439902419351,0,2,0,-2,4,6,5,3
1558439902433313,-3,-6,-3,-3,-1,-2,-2,-3
1558439902433313,-1,1,0,-1,-6,-1,-2,-5
1558439902473206,-3,-1,-2,4,-10,-10,-7,-2
1558439902473206,-1,2,5,-3,9,2,8,7
1558439902474203,-2,-2,-1,-4,2,6,3,0
1558439902474203,-3,0,1,8,0,-1,-5,-4
1558439902474203,-1,-2,-2,-3,-2,-1,-2,-2
1558439902474203,0,-2,-2,-7,-7,-2,-3,-4
1558439902478193,0,-1,-4,5,-3,-6,-1,-2
1558439902478193,2,1,-1,-2,3,1,5,5
1558439902480187,0,3,1,-6,6,4,3,-1
1558439902480187,-3,-4,-5,1,-5,-8,-8,-4
1558439902485173,-1,0,4,4,2,4,0,0
1558439902485173,-4,-4,-8,-14,-9,-11,-3,-2
1558439902517087,2,2,-1,-1,1,1,0,2
1558439902517087,-1,-2,1,5,-1,1,2,0
1558439902517087,-3,-1,-2,-4,-2,-5,-8,-4
1558439902517087,-1,-2,-2,-3,-4,-5,-2,-1
1558439902519083,-2,1,-1,4,3,3,4,1
1558439902519083,-3,-2,0,0,-1,5,0,-2
1558439902522075,2,-1,2,-3,0,-2,1,1
1558439902522075,-1,-4,0,0,0,4,-2,-3
1558439902547270,-2,-2,-2,-1,-2,-8,-1,1
1558439902547270,1,-2,0,-3,-1,-3,-7,-4
1558439902547270,-3,-1,-2,-4,-7,-1,-6,-4
1558439902547270,0,-2,-2,2,2,6,6,1
1558439902562009,1,-1,3,1,6,6,3,2
1558439902562009,-1,-2,-2,-2,0,-4,0,0
1558439902566954,0,0,-1,-1,1,-3,0,1
1558439902566954,0,-1,-2,-1,-6,-4,-7,-5
1558439902575929,-2,-4,-4,-6,-6,-1,-4,-4
1558439902575929,-2,0,-3,0,-5,-8,-5,-3
1558439902589895,1,2,3,3,6,0,5,3
1558439902589895,-1,-1,-1,0,2,5,-3,1
1558439902598870,1,-2,0,1,0,0,4,2
1558439902598870,2,-1,-1,1,4,1,1,0
1558439902604893,0,-1,1,-4,-6,-3,1,-1
1558439902604893,-2,-1,-5,-2,-1,0,-1,-4
1558439902629808,-4,-4,-3,-3,-6,-1,-7,-8
1558439902629808,3,-1,0,-2,-3,-3,-3,1
1558439902629808,-2,-2,-4,-2,1,6,2,-1
1558439902629808,-2,1,6,3,-3,-4,-2,-1
1558439902635770,-2,-3,-2,0,8,5,5,2
1558439902635770,-2,1,-2,-2,0,-3,0,0
1558439902642751,-1,-1,-2,-1,-6,-4,-5,-4
1558439902642751,-2,0,0,0,-3,0,-1,-1
1558439902666688,-2,0,-1,-2,-5,-12,-11,-3
1558439902666688,1,-2,-4,-1,-3,-2,-3,-1
1558439902667687,0,1,2,3,4,2,4,2
1558439902667687,-1,-4,0,0,2,-3,-1,0
1558439902680651,-1,1,1,0,-1,1,0,-3
1558439902680651,-3,-2,-3,1,-1,3,-2,-3
1558439902687632,-3,-3,-5,-3,-6,-1,-5,-3
1558439902687632,1,0,-2,-2,-7,-5,-3,-3
1558439902710571,0,0,0,3,3,6,3,2
1558439902710571,0,-1,1,0,3,0,2,1
1558439902711569,0,-2,-3,-1,1,-1,-3,-4
1558439902711569,0,0,-2,-2,0,-3,-3,0
1558439902718549,1,1,-1,-3,-7,-8,-7,-2
1558439902718549,-3,-3,-3,-1,-6,-2,-2,-4
1558439902724533,-1,-4,-3,-1,-1,2,1,-1
1558439902724533,-1,-4,-2,-2,-1,1,-1,-2
1558439902749467,-1,-2,-1,-2,1,4,0,-2
1558439902749467,-2,1,3,0,-2,-3,-1,1
1558439902750464,1,0,-1,2,0,-4,-1,1
1558439902750464,-1,-2,-2,-1,2,0,4,2
1558439902756449,-1,0,0,-1,0,-2,-1,0
1558439902756449,-2,2,0,0,-1,2,1,0
1558439902769414,-2,0,-4,-1,-7,-4,-6,-2
1558439902769414,-1,2,3,1,7,12,5,2
1558439902786368,-2,0,-2,-2,-4,-1,-2,-3
1558439902786368,-2,-1,-4,-3,0,-6,-4,-1
1558439902787365,0,1,2,-1,5,-2,3,4
1558439902787365,-1,-2,-2,-2,-4,-5,-4,-2
1558439902801329,-1,-4,0,-1,-7,-10,-2,-4
1558439902801329,2,0,-2,-2,-2,1,0,-1
1558439902807314,0,-1,0,0,4,2,0,0
1558439902807314,-1,-4,-3,1,3,5,-1,-1
1558439902823288,-2,-1,-2,-3,-6,-7,-7,-2
1558439902823288,-1,-1,-3,-2,-3,7,7,-1
1558439902829253,0,-2,0,-2,-2,-3,2,-2
1558439902829253,-1,0,0,3,-2,-5,0,2
1558439902838231,1,1,1,0,6,5,5,3
1558439902838231,0,-3,-3,-2,-2,-5,-5,-1
1558439902844213,-1,1,-1,3,3,12,5,0
1558439902844213,1,2,2,-2,-3,-12,-6,-1
1558439902861168,-3,-4,-4,-1,-3,-4,-5,-3
1558439902861168,0,-1,0,-2,-9,-10,-7,-4
1558439902867154,-1,1,4,1,2,-1,4,0
1558439902867154,-1,-1,-1,1,7,9,6,-1
1558439902876128,0,1,2,1,-1,2,1,1
1558439902876128,-2,0,-2,0,0,-4,-7,-1
1558439902890092,-3,-3,-5,-6,-9,-6,-8,-3
1558439902890092,0,4,2,-1,-1,-3,3,1
1558439902899067,2,-1,1,0,8,8,4,0
1558439902899067,0,1,2,1,4,7,6,2
1558439902905051,-5,-3,-3,-5,-5,-1,-5,-3
1558439902905051,1,1,0,-2,-4,0,-1,1
1558439902921008,-1,-2,-4,-1,-3,-16,-5,1
1558439902921008,0,-1,0,-1,3,3,-1,1
1558439902926993,-1,-2,0,-3,-2,-5,-2,-3
1558439902926993,-2,1,-1,0,-4,1,-2,-3
1558439902943946,0,0,-2,-1,-4,3,-5,-3
1558439902943946,2,3,2,3,11,10,6,1
1558439902949931,-1,-2,3,3,5,-2,1,2
1558439902949931,-3,-3,-5,-5,-1,5,1,-4
1558439902958907,0,-1,-4,-4,-2,-5,2,1
1558439902958907,-1,-1,-4,0,-2,-5,-3,-1
1558439902964891,-1,0,-4,-2,-6,-2,-3,-1
1558439902964891,-1,-3,-1,-2,-3,-4,-6,-2
1558439902981847,-2,-2,-1,0,1,5,1,-3
1558439902981847,-1,-1,1,-2,-4,-6,-2,-3
1558439902986831,1,-1,-1,1,2,-1,3,1
1558439902986831,3,0,-1,0,1,0,0,1
1558439902995812,-2,-1,-2,-1,-5,-3,-5,-2
1558439902995812,-2,0,2,-1,-2,2,0,-1
1558439903009772,-2,-2,-5,-3,-4,-1,-6,-1
1558439903009772,-3,-2,0,1,3,-7,3,1
1558439903025728,0,2,0,0,0,2,1,0
1558439903025728,-1,-2,-1,0,-1,-2,-1,0
1558439903025728,-1,1,1,-1,1,-4,-4,-2
1558439903025728,-1,-2,-1,2,1,3,2,-2
1558439903040689,-1,-2,0,-2,-3,3,2,1
1558439903040689,-2,-3,-2,-1,-1,0,2,-1
1558439903047670,-1,-3,-2,-2,-4,-13,-5,-1
1558439903047670,-3,-2,-2,-2,-3,-7,-9,-3
1558439903062629,-1,-1,-2,-4,0,2,0,-2
1558439903062629,-1,0,-1,0,2,6,4,1
1558439903069612,-3,-1,0,-1,-2,1,2,-1
1558439903069612,1,2,0,-1,-4,-11,-5,0
1558439903078586,-2,-3,-2,2,-2,-2,-2,-3
1558439903078586,-2,-2,-2,-1,-2,3,-4,-3
1558439903084573,0,-1,-1,-1,0,-4,-2,2
1558439903084573,0,1,3,1,6,6,4,3
1558439903109504,-2,1,0,2,-3,-3,1,1
1558439903109504,0,-1,-2,-3,-2,-3,-1,0
1558439903110501,0,-2,-3,-1,0,7,4,-3
1558439903110501,-1,-3,-2,0,-7,-8,-4,-4
1558439903116486,-1,1,1,0,6,3,1,1
1558439903116486,-1,-2,-1,-3,-3,-4,-4,-3
1558439903129451,0,1,-2,-2,-5,-5,-2,-1
1558439903129451,-3,-3,-1,-2,-2,2,-1,-2
1558439903146405,-1,-1,0,-2,-4,0,1,1
1558439903146405,-2,0,1,-1,-4,-9,-4,-2
1558439903147403,-1,-4,-2,0,-3,0,-4,-2
1558439903147403,-1,-2,-1,-4,-4,-4,-5,-4
1558439903161364,1,0,1,2,9,9,6,4
1558439903161364,0,-4,-2,0,4,8,5,2
1558439903183306,0,2,0,-1,-1,-4,0,-2
1558439903183306,-1,1,-1,-1,4,4,2,1
1558439903185300,0,-3,-3,-3,-3,-3,-4,-3
1558439903185300,-1,-2,-4,-3,-4,-8,-5,-4
1558439903189298,3,-1,-2,-2,-4,1,0,1
1558439903189298,0,-1,-1,-1,-2,-5,-2,-1
1558439903198266,-2,-1,-2,-1,-3,-1,-2,-1
1558439903198266,-1,-2,-2,-1,0,1,3,-1
1558439903204250,1,0,4,1,3,1,4,0
1558439903204250,-1,-3,-5,-1,-3,0,-5,-4
1558439903221205,-2,2,2,-3,-1,-4,-2,1
1558439903221205,-5,0,-2,0,-3,2,-2,-1
1558439903227189,-3,-1,-4,-2,3,-2,-3,-1
1558439903227189,-2,0,-1,-2,0,1,4,0
1558439903236165,2,-1,2,1,5,-3,3,-1
1558439903236165,1,-1,-1,-1,1,-1,-2,-3
1558439903250126,0,-2,-3,-1,-6,-8,-6,-3
1558439903250126,-2,0,0,-2,-6,-2,-5,-1
1558439903259103,-1,-5,-4,-3,-6,-2,-7,-4
1558439903259103,0,0,3,5,10,9,10,2
1558439903265088,-1,0,2,-1,5,1,-2,1
1558439903265088,1,-1,-3,-2,-1,1,-1,-2
1558439903281044,-3,-1,-2,-2,-6,-1,-2,-4
1558439903281044,-1,-1,0,-1,-5,-6,-5,2
1558439903287031,-3,-3,-1,0,2,7,1,-1
1558439903287031,-4,-4,-4,-2,-8,-5,-2,-3
1558439903296005,-1,-3,1,1,2,-2,3,1
1558439903296005,-1,-1,-2,-1,0,1,-1,1
1558439903309967,1,0,-3,-2,2,2,2,1
1558439903309967,1,-2,1,0,-3,-4,-2,-4
1558439903318943,-1,-3,-3,-5,-6,0,-3,-5
1558439903318943,1,-1,-2,-4,-4,-5,-3,-2
1558439903324928,0,1,2,1,-1,0,1,-1
1558439903324928,0,2,1,1,9,9,5,4
1558439903340884,0,0,-1,-1,3,0,1,2
1558439903340884,-3,-2,-4,0,-5,-5,-8,-2
1558439903346868,-1,0,1,-1,0,-3,-1,-2
1558439903346868,-2,-2,-2,-2,-1,-3,0,-3
1558439903355847,-2,-1,-2,-1,-7,-6,-6,-4
1558439903355847,1,-1,1,0,0,4,5,-1
1558439903369807,-1,1,4,-2,-5,-5,-6,-5
1558439903369807,-3,-3,-2,-2,6,8,6,1
1558439903378784,1,3,1,3,6,1,2,0
1558439903378784,-2,-1,-2,0,0,0,1,1
1558439903384766,-1,0,1,0,4,5,3,1
1558439903384766,-2,-2,-1,-3,-5,-4,-6,0
1558439903400724,-2,-1,0,-1,-3,-4,-5,0
1558439903400724,0,0,-1,-2,-1,2,-2,-4
1558439903406711,-1,-2,-1,-2,-4,0,-2,-2
1558439903406711,-2,-4,-2,-1,-8,-4,-6,-5
1558439903415712,1,1,-1,-2,3,-3,2,1
1558439903415712,-3,0,-2,-3,-7,-7,-4,-2
1558439903429646,-2,-2,-6,-3,-5,-3,-2,-2
1558439903429646,-1,-3,-2,3,9,4,3,3
1558439903438623,-1,1,2,-1,-3,-3,-3,1
1558439903438623,-1,-4,0,-3,-8,-8,-9,-4
1558439903452586,-1,-2,0,1,2,2,3,1
1558439903452586,3,2,2,-1,2,5,7,2
1558439903461561,1,-1,1,1,1,-3,1,1
1558439903461561,1,1,1,0,2,3,1,1
1558439903476521,-2,-1,-3,-4,-8,-3,-8,-5
1558439903476521,-2,0,-3,-2,-3,-5,0,-1
1558439903477521,0,-3,-3,1,1,0,1,0
1558439903477521,-1,0,2,0,4,-6,2,2
1558439903489493,-3,-4,-1,-3,-1,2,1,1
1558439903489493,-2,-1,0,2,6,7,-1,1
1558439903498464,-3,-2,-2,-1,-3,-4,-4,-5
1558439903498464,-2,-5,-6,-4,-4,-3,-3,-1
1558439903512426,1,-2,1,0,3,2,2,2
1558439903512426,-1,1,1,-2,-6,-9,-6,-1
1558439903521424,-1,-1,-3,-5,-7,-3,-5,-1
1558439903521424,0,-2,-5,-4,-8,-9,-4,-5
1558439903536362,-4,-2,-4,-1,-4,-4,-4,-4
1558439903536362,2,0,5,3,10,14,10,5
1558439903542348,-1,-2,-1,2,2,5,1,-3
1558439903542348,-1,1,1,1,7,9,4,2
1558439903549326,1,1,1,2,-1,-3,4,1
1558439903549326,0,-1,-5,-4,-10,-11,-9,-3
1558439903558337,0,-2,-2,-2,-2,3,2,-2
1558439903558337,1,1,2,1,4,-1,3,2
1558439903572266,-1,-1,0,-1,7,1,0,-1
1558439903572266,-1,0,-1,-3,-6,-8,-7,-3
1558439903581241,-2,-1,0,-1,0,3,0,0
1558439903581241,-2,-1,-2,-1,-4,-7,-5,-2
1558439903596201,0,3,2,0,-1,-3,-3,2
1558439903596201,-3,-3,-5,-4,-12,-6,-4,-5
1558439903597229,0,-1,-1,1,4,2,6,4
1558439903597229,1,1,1,-2,2,5,-1,-1
1558439903618181,-1,-4,-3,-1,-5,-7,-5,-2
1558439903618181,-1,0,2,1,7,9,6,1
1558439903620139,-2,0,-2,-1,-1,2,-2,-3
1558439903620139,-4,-5,-5,-2,-1,-2,-1,-4
1558439903632105,0,-3,-2,-5,-15,-15,-13,-7
1558439903632105,2,2,2,1,3,1,3,3
1558439903641082,3,1,3,3,10,3,9,5
1558439903641082,0,0,2,2,3,3,1,1
1558439903656042,-4,-2,-3,-3,-5,5,-1,-4
1558439903656042,-4,-6,-6,-5,-15,-13,-9,-6
1558439903657039,-1,1,4,-1,4,-6,1,2
1558439903657039,-2,0,-1,-1,-4,-5,-3,-2
1558439903670003,-2,-1,-2,-2,-1,-5,-4,-1
1558439903670003,-1,-2,-1,-1,4,2,2,-1
1558439903679021,-4,-1,-1,-1,1,10,5,-2
1558439903679021,-3,-4,-4,-4,-8,-2,-4,-5
1558439903691979,0,2,0,1,1,2,1,1
1558439903691979,1,1,1,-2,4,-2,-2,1
1558439903700921,0,-4,-4,-2,-1,-4,-2,-4
1558439903700921,-2,-1,0,-1,0,3,2,-2
1558439903715883,0,0,2,1,11,11,9,2
1558439903715883,-2,-2,-3,-2,-1,-9,-5,-1
1558439903717876,2,1,1,-3,-5,-9,-6,0
1558439903717876,-1,0,1,0,-1,6,4,1
1558439903729845,-1,-2,-2,0,-4,-11,-7,-2
1558439903729845,0,3,1,-1,1,0,1,0
1558439903738820,-3,-4,-4,-3,-7,-1,-8,-6
1558439903738820,-1,1,-2,-3,-1,0,3,-2
1558439903752782,-1,-3,1,0,2,4,0,-4
1558439903752782,0,-3,-2,-2,-4,-4,-4,-2
1558439903760761,1,-2,-3,-3,-2,2,1,2
1558439903760761,0,-1,1,3,4,1,1,0
1558439903775721,-3,1,-1,-1,3,2,-1,1
1558439903775721,2,0,1,-2,-3,0,5,1
1558439903777715,-2,-5,-6,-2,-9,-8,-5,-1
1558439903777715,-1,-1,-3,-1,5,2,1,1
1558439903789686,-1,0,1,1,3,5,1,-1
1558439903789686,0,1,2,1,4,8,1,1
1558439903798660,0,1,1,-2,-9,-18,-10,-1
1558439903798660,0,2,1,0,0,-1,1,2
1558439903812627,-1,-1,-2,-2,-3,-3,2,-1
1558439903812627,-2,-2,-1,0,-3,-1,-3,-4
1558439903820634,-3,-3,-4,-4,-5,-1,-4,-3
1558439903820634,-2,-3,1,0,5,6,4,3
1558439903836558,-1,0,1,-1,2,-2,2,1
1558439903836558,-2,0,-3,-3,-8,-6,-3,-2
1558439903837556,-1,0,0,-3,-2,5,-1,-2
1558439903837556,0,-2,-1,-2,-7,-11,-7,-3
1558439903849523,1,-3,-4,-1,-3,2,2,0
1558439903849523,-1,0,-1,-1,3,0,3,2
1558439903858500,0,0,0,1,5,1,1,1
1558439903858500,-4,-1,-1,0,-1,-3,-3,1
1558439903872463,0,0,-1,-2,-3,1,-3,-3
1558439903872463,0,-2,-2,-1,-3,-6,-9,-3
1558439903881439,-1,0,-1,0,1,2,6,0
1558439903881439,0,-1,1,-1,1,-5,-7,-3
1558439903896404,0,0,-1,0,5,6,8,1
1558439903896404,-4,-1,0,0,-2,-3,-1,-2
1558439903897395,-2,2,-1,-1,-2,-5,-4,-1
1558439903897395,0,-1,0,-1,2,9,4,1
1558439903909370,0,1,0,-2,-4,-4,-7,-2
1558439903909370,0,-2,-2,-2,-4,-7,-4,-3
1558439903918341,-1,-2,1,0,6,4,5,-2
1558439903918341,0,-2,-4,-5,-8,-5,-5,-6
1558439903932306,-1,-2,-3,1,-2,-4,-1,-1
1558439903932306,-2,2,2,-2,4,7,4,0
1558439903941281,-1,1,-1,-2,-2,3,1,-1
1558439903941281,0,0,0,2,1,2,2,1
1558439903956239,-1,-2,-4,-4,-4,-3,-4,-1
1558439903956239,0,-1,1,-4,-5,-12,-6,-1
1558439903957236,-1,-1,-1,0,3,7,3,2
1558439903957236,0,-2,2,2,6,4,0,0
1558439903970202,-2,-5,-5,-2,-2,-2,0,0
1558439903970202,-2,1,-2,-1,-6,-1,-5,-5
1558439903978181,-1,2,2,0,-4,-13,-4,-2
1558439903978181,0,-2,-1,-1,7,6,4,1
1558439903992144,-3,-4,-2,-2,-3,-3,-3,-1
1558439903992144,1,-1,-3,-1,-3,-1,1,-1
1558439904001118,-2,-3,-2,-2,-4,1,-2,-2
1558439904001118,1,2,0,-2,-5,-5,-3,-1
1558439904015081,1,-1,1,-1,2,2,2,0
1558439904015081,-1,-1,-3,0,-2,2,1,-1
1558439904022062,-1,1,-1,0,-1,-3,-4,-1
1558439904022062,-2,-1,-1,0,-1,-5,0,-1
1558439904030040,-2,0,-3,-1,-3,-1,-3,-2
1558439904030040,-2,-3,-2,-2,-4,-1,0,0
1558439904039018,-1,-2,2,-1,-1,4,4,2
1558439904039018,1,0,0,0,-3,-3,-1,-1
1558439904051981,-1,0,0,2,4,11,4,0
1558439904051981,0,0,-1,0,0,-3,-3,-2
1558439904060958,1,-1,1,0,8,6,3,0
1558439904060958,-1,-1,-1,1,2,-8,-4,-2
1558439904074922,-1,-2,-1,-3,-5,-6,-3,-3
1558439904074922,-3,-3,1,-2,-4,0,0,0
1558439904081936,-2,-4,-1,-1,-3,-6,-4,-2
1558439904081936,1,1,-1,0,4,7,9,1
1558439904090089,0,1,-1,-2,2,-3,-3,-2
1558439904090089,1,-1,0,1,2,6,1,-1
1558439904098856,-1,-3,-5,-2,-11,-12,-9,-4
1558439904098856,-2,-2,-2,-2,-3,3,0,-2
1558439904111823,-1,-1,-1,2,3,-9,-2,1
1558439904111823,-1,-3,-1,0,1,-2,0,1
1558439904120799,2,0,-1,-1,3,3,4,0
1558439904120799,-2,-2,-3,-2,-7,-1,-7,-4
1558439904135816,-1,-4,-6,-3,-9,-1,-1,-3
1558439904135816,1,1,1,1,8,5,8,5
1558439904141741,-2,-3,-3,1,4,-1,-4,-2
1558439904141741,-3,-3,-4,-1,-3,-4,-2,-1
1558439904158696,-1,0,1,1,-2,5,1,-2
1558439904158696,-1,-2,-3,-2,-7,-11,-5,-3
1558439904159694,2,3,3,1,9,4,7,4
1558439904159694,0,1,0,-2,2,-4,-1,1
1558439904172659,-4,0,1,-1,-1,0,-3,-2
1558439904172659,1,-3,-3,-2,-7,2,-6,-5
1558439904180639,-5,-5,-7,-3,-9,1,-8,-6
1558439904180639,4,0,1,0,3,-5,3,2
1558439904195713,3,1,1,3,12,6,6,3
1558439904195713,-5,-2,-2,-1,1,2,0,-2
1558439904202579,-3,-2,-4,-4,-11,-7,-6,-4
1558439904202579,-1,-1,-6,-4,-9,-9,-7,-5
1558439904218541,1,0,-1,-1,0,0,3,-1
1558439904218541,-1,-1,1,0,1,4,0,0
1558439904219560,0,0,1,-2,1,-8,-1,1
1558439904219560,-2,-1,1,-1,0,6,0,-3
1558439904232534,1,-2,-2,-1,-6,-11,-5,0
1558439904232534,-1,-3,-3,-3,3,0,-2,1
1558439904241476,1,0,0,-1,3,3,2,1
1558439904241476,-2,-4,0,-1,-3,1,0,-2
1558439904255439,-3,-5,-3,-3,-4,-3,-1,-3
1558439904255439,-1,1,2,1,1,-1,1,1
1558439904262446,-2,0,1,-1,-4,-7,-1,0
1558439904262446,-1,-3,-1,3,5,7,3,1
1558439904278377,-2,-1,-1,-3,-5,-1,-4,-4
1558439904278377,-1,0,-3,-4,-2,-7,-5,-1
1558439904280373,0,-2,-3,0,4,10,6,0
1558439904280373,-3,-2,-2,-4,-9,-6,-3,-3
1558439904292398,1,1,1,-1,3,1,1,1
1558439904292398,0,0,0,4,3,-4,-4,0
1558439904301317,-4,-4,0,-1,0,1,-3,-4
1558439904301317,0,-3,-4,0,2,3,2,3
1558439904315654,-4,-1,-2,-1,-2,0,2,-1
1558439904315654,1,1,0,-1,0,-9,0,0
1558439904322273,1,0,-1,-1,-3,-1,-4,-4
1558439904322273,-1,0,0,-2,-6,0,-2,-2
1558439904338395,-2,-3,-4,0,-1,1,0,-2
1558439904338395,-4,-3,-5,-2,-4,2,2,-1
1558439904340211,0,0,-3,0,1,-5,-3,-1
1558439904340211,-4,-1,0,2,-1,0,0,-1
1558439904352507,1,0,-1,-3,-6,-8,-5,0
1558439904352507,1,-2,3,1,11,10,10,4
1558439904361155,0,0,1,0,-3,-8,-4,2
1558439904361155,-3,0,0,0,0,3,-3,0
1558439904376243,-4,-2,-4,-3,-4,-5,-6,-3
1558439904376243,0,-1,0,0,-5,-1,1,-2
1558439904390079,1,-1,-1,-1,-1,-2,0,0
1558439904390079,0,-1,0,-2,5,-2,-3,0
1558439904399055,0,-3,0,0,-4,3,1,-1
1558439904399055,-1,-2,-2,-1,-5,-13,-4,-1
1558439904400071,-2,-1,-1,0,1,13,3,-1
1558439904400071,0,-1,-2,-3,-4,-5,-4,-3
1558439904412303,-1,0,1,1,3,-4,0,1
1558439904412303,-2,1,0,-1,0,3,-2,0
1558439904421271,-4,-2,-1,-3,-7,-3,0,-2
1558439904421271,0,-2,-2,-2,2,1,0,-1
1558439904434990,1,2,0,1,4,-2,1,2
1558439904434990,1,0,-1,-1,0,-1,-1,1
1558439904442608,-3,-2,-3,-2,-7,-5,-4,-1
1558439904442608,-1,1,0,2,3,7,0,1
1558439904458565,-1,2,1,1,9,3,5,3
1558439904458565,0,-1,-2,-2,-1,-1,-2,-1
1558439904459535,2,-2,1,0,-2,1,-3,-2
1558439904459535,0,2,0,-1,-12,-9,-3,-3
1558439904472502,-3,-4,-3,0,0,-4,-2,-2
1558439904472502,1,0,-2,-1,2,6,1,-2
1558439904481504,1,2,2,1,1,1,2,0
1558439904481504,-2,0,-2,-2,-3,-8,-4,-1
1558439904503453,0,1,-1,-4,-1,6,3,0
1558439904503453,-4,-4,-4,-3,-7,-3,-4,-5
1558439904505435,-1,-2,-2,0,1,0,-1,-1
1558439904505435,-2,-3,-2,-2,1,-4,-3,-1
1558439904518415,1,0,-1,1,2,1,3,3
1558439904518415,-1,-1,0,-1,0,1,0,-1
1558439904520374,0,0,0,-1,-2,0,0,-2
1558439904520374,-1,0,0,-2,-1,2,0,0
1558439904532377,-2,-1,-1,-1,-3,-2,-9,-4
1558439904532377,-2,-3,-3,-2,-3,3,0,-4
1558439904541414,0,0,1,0,2,-15,-6,1
1558439904541414,2,-3,-1,-1,-2,-2,3,-1
1558439904555371,-1,-1,-1,-3,-3,1,-1,-2
1558439904555371,-2,0,-1,-2,-3,1,0,0
1558439904562352,-2,-3,-5,-2,-5,-2,-4,-4
1558439904562352,-3,-1,-4,0,-1,1,3,-1
1558439904578376,-2,0,0,-1,4,5,3,0
1558439904578376,-3,1,1,-1,-3,-5,-4,-3
1558439904580305,-2,-2,0,-1,-4,-2,-4,-1
1558439904580305,4,0,2,1,8,1,2,0
1558439904592302,2,-1,-1,0,-2,-1,-1,-1
1558439904592302,0,0,-3,-3,-2,1,-4,-2
1558439904616210,-3,-1,-2,-2,1,-1,0,-1
1558439904616210,-3,1,1,-2,-9,-5,-8,-4
1558439904617204,1,0,1,2,3,-3,5,4
1558439904617204,3,2,1,2,1,-1,5,4
1558439904622207,-1,-2,-1,-3,1,7,2,0
1558439904622207,-1,-5,-1,-1,1,-4,-6,-1
1558439904638149,-2,-2,-2,-3,0,-1,-2,-2
1558439904638149,0,-2,0,0,5,1,0,-2
1558439904640147,1,0,-3,-2,-4,-3,-1,-2
1558439904640147,-2,-1,-3,0,-1,0,1,0
1558439904652112,-1,-2,0,0,-3,2,-2,-2
1558439904652112,-2,-2,2,-2,0,-2,0,0
1558439904661090,0,-1,1,2,-1,0,3,-1
1558439904661090,0,1,-1,-1,0,5,3,0
1558439904675240,0,-1,-1,-3,-2,-2,-5,-4
1558439904675240,-2,-1,-2,-2,-4,-7,-5,-2
1558439904684220,-2,-3,0,0,2,5,0,-1
1558439904684220,1,1,-2,-4,-8,-11,-5,-2
1558439904699008,-2,-1,0,-1,-2,0,0,-1
1558439904699008,1,-4,-5,0,-1,0,0,0
1558439904699985,0,0,-2,-3,1,-13,-2,1
1558439904699985,0,0,-1,1,10,2,4,4
1558439904711994,-2,-3,-3,-2,-5,-3,-7,-4
1558439904711994,-3,-2,-3,-1,-3,5,0,-4
1558439904720927,-1,-2,-2,-2,-5,3,-3,-6
1558439904720927,-2,1,4,0,-2,-4,1,-2
1558439904734934,0,-2,0,-1,2,-4,1,-2
1558439904734934,0,0,2,0,5,5,9,3
1558439904743869,1,0,0,-1,-1,6,-2,-2
1558439904743869,-4,-6,-6,-1,-1,-1,-6,-3
1558439904758955,-2,1,1,-2,-6,-5,-8,-3
1558439904758955,-1,-1,-1,0,2,-3,-1,0
1558439904759910,-3,-3,-6,-2,-2,-5,-3,-2
1558439904759910,-3,-1,-1,-1,-5,-3,-6,-3
1558439904771876,-3,0,0,-1,3,2,6,1
1558439904771876,0,-1,-1,-1,3,4,4,-1
1558439904780883,-2,-3,-1,0,-3,-5,0,-2
1558439904780883,-1,1,-2,-1,-2,-1,1,0
1558439904794856,-2,-4,-4,-2,-3,-5,-1,-1
1558439904794856,-3,0,-1,-1,-6,-4,-7,-2
1558439904803795,1,-3,-3,-4,-1,5,-2,-1
1558439904803795,-2,0,-1,0,1,3,2,-1
1558439904818752,0,-2,-1,2,4,8,3,-1
1558439904818752,-1,-1,0,-3,0,-2,-1,1
1558439904819751,-3,-3,-2,-1,-3,-5,-4,-3
1558439904819751,0,0,-2,0,4,4,3,0
1558439904831747,0,0,1,1,-3,-2,-2,0
1558439904831747,-1,-1,1,-1,-5,-10,-4,-2
1558439904840692,-2,-2,-2,-2,0,6,2,0
1558439904840692,-3,-2,-2,-3,-2,-2,-2,-1
1558439904854655,0,1,-1,0,1,-6,-3,-2
1558439904854655,1,-3,-1,-1,-4,1,-4,-2
1558439904863630,3,1,1,1,1,-2,2,-1
1558439904863630,2,-1,-1,-2,0,-4,1,1
1558439904886627,-2,-6,-6,-4,-2,0,0,-1
1558439904886627,-4,-1,-5,-1,-7,-11,-9,-4
1558439904887568,-3,0,2,1,3,0,1,2
1558439904887568,-1,0,2,1,1,8,2,-1
1558439904892762,-2,1,-1,-2,-4,-7,-2,0
1558439904892762,-1,-1,-2,0,3,4,4,0
1558439904901699,0,-3,-2,-2,-1,-1,-4,-1
1558439904901699,-1,-1,-1,-3,-5,-3,-3,-2
1558439904914652,-1,0,-1,-1,-6,-2,-1,-1
1558439904914652,-1,-1,2,1,5,2,5,1
1558439904923470,0,-2,0,-1,-1,-4,3,-2
1558439904923470,-1,0,-1,-2,0,1,-2,-1
1558439904937549,1,2,2,0,-2,-7,-6,-3
1558439904937549,-1,-2,-3,-3,-1,-1,-2,1
1558439904944526,0,1,1,3,7,8,6,4
1558439904944526,-3,-4,-4,-2,-5,-7,-3,-2
1558439904952395,-1,-2,-2,-3,-3,3,-1,-4
1558439904952395,-1,0,0,1,4,-2,-1,-2
1558439904961371,0,-2,3,2,-1,-2,-1,0
1558439904961371,-1,-4,-2,-4,-6,-3,-3,-5
1558439904974375,0,0,-1,1,5,1,2,1
1558439904974375,0,-2,0,1,-1,4,1,0
1558439904983363,-1,0,-3,-1,-2,-4,-3,0
1558439904983363,-1,0,-4,-1,-6,-3,-4,-2
1558439904998310,-3,-2,2,-3,-9,-1,-4,-3
1558439904998310,-1,-1,0,-2,-9,-5,-10,-6
1558439905004313,3,3,2,4,25,16,22,13
1558439905004313,-3,-3,2,0,-1,-7,-2,0
1558439905012283,-2,-4,-4,-2,-2,-1,-2,-2
1558439905012283,0,-1,-3,1,3,5,2,0
1558439905021210,-4,-3,-4,-5,-15,-4,-11,-10
1558439905021210,1,0,-1,-3,-6,1,-4,-3
1558439905035208,0,1,0,0,1,-2,0,1
1558439905035208,0,-3,1,0,3,0,2,1
1558439905043180,-1,-2,-3,-2,-4,-12,-6,-1
1558439905043180,-3,0,2,3,10,9,8,4
1558439905058143,0,-1,-1,-2,-5,-2,-5,-1
1558439905058143,-1,-1,-1,-2,0,6,2,-1
1558439905065168,-1,2,-2,0,-6,-7,-6,-2
1558439905065168,-2,-3,2,-2,-7,-7,-7,-3
1558439905072076,-2,-2,-1,-1,5,12,5,1
1558439905072076,-1,1,-1,-2,-4,-11,-6,1
1558439905081054,-1,-3,-1,0,-1,-4,0,-1
1558439905081054,2,1,-1,0,3,4,4,3
1558439905095046,2,0,0,3,8,1,7,1
1558439905095046,-2,-2,2,0,1,2,-1,-1
1558439905103990,-5,-2,-2,-4,-8,-2,-5,-5
1558439905103990,0,1,-1,-3,-7,-12,-7,-4
1558439905117984,0,-2,-2,0,-2,4,-2,-2
1558439905117984,-1,1,-1,0,-2,-4,-3,1
1558439905124965,2,2,2,2,7,1,5,3
1558439905124965,-1,0,2,4,10,10,6,0
1558439905140922,-2,-2,0,-1,-3,-6,0,-1
1558439905140922,1,0,-3,-4,-2,-1,1,-1
1558439905142919,-5,0,0,0,-6,-3,-4,-2
1558439905142919,-2,-3,-3,-2,-3,-5,-5,-1
1558439905154852,-3,-1,-5,-6,-3,-2,-3,-2
1558439905154852,-5,-3,-3,-6,-13,-5,-6,-8
1558439905163831,1,-2,-2,-1,2,1,4,1
1558439905163831,2,3,2,5,12,3,8,3
1558439905177792,-1,0,1,-1,-4,-5,-4,-2
1558439905177792,-2,-1,-1,2,2,6,1,1
1558439905184772,-1,-2,-2,-2,-6,-1,-6,-3
1558439905184772,-1,-3,0,-3,-6,-11,-8,-2
1558439905200868,2,0,0,0,-1,-2,2,0
1558439905200868,0,-2,-1,0,0,-3,1,1
1558439905202724,-1,-1,-2,-1,-3,0,-1,-3
1558439905202724,0,-2,-3,0,2,12,5,-1
1558439905214828,-3,1,3,0,-1,-8,-7,-2
1558439905214828,-1,2,-3,-1,3,-4,-5,0
1558439905223668,0,2,2,-2,0,6,7,4
1558439905223668,1,-2,-3,-1,-3,-7,-2,-2
1558439905237769,0,-1,0,-1,-2,-6,-6,-3
1558439905237769,0,-1,1,3,8,11,11,4
1558439905244746,-2,-2,-3,-2,2,1,-1,-1
1558439905244746,-1,-2,-4,-2,-4,3,0,-3
1558439905261567,-4,-2,1,-2,-3,-3,-6,-2
1558439905261567,-3,-1,0,-5,-8,-12,-7,-6
1558439905262568,0,-2,-4,-2,-1,-2,-4,-2
1558439905262568,-5,-2,-3,-5,-6,1,0,-1
1558439905274562,1,0,1,2,4,2,3,1
1558439905274562,2,1,2,3,10,6,5,1
1558439905283508,0,2,3,-1,-1,1,-1,1
1558439905283508,-1,-3,-2,-2,-4,-7,-3,-2
1558439905298498,-2,-1,-3,-4,-2,0,2,1
1558439905298498,-4,-5,-5,-1,-8,-5,-5,-5
1558439905304488,0,1,-1,-4,2,0,2,0
1558439905304488,4,2,4,0,1,-4,-2,3
1558439905321410,-1,-1,-3,0,1,7,1,1
1558439905321410,0,0,1,-2,-1,1,0,-1
1558439905322408,-1,0,-1,0,-5,-10,-6,-1
1558439905322408,-1,-1,-3,2,4,4,4,1
1558439905334408,-5,1,-4,-3,-4,-5,-3,-2
1558439905334408,-1,-2,0,1,-2,-2,-5,-2
1558439905343364,-2,-4,2,2,-3,3,-1,-4
1558439905343364,-3,-2,-3,-4,-5,-5,-4,-1
1558439905358345,1,-2,-4,-3,-1,-3,2,0
1558439905358345,-1,-2,-3,-3,-7,-3,-3,-1
1558439905364293,-1,0,-2,1,-1,-3,1,1
1558439905364293,1,0,2,1,4,-2,-3,0
1558439905381246,0,1,-3,-1,-3,2,0,-1
1558439905381246,-1,-1,-2,1,1,-1,0,-1
1558439905382244,1,-2,-2,0,7,-1,3,1
1558439905382244,-3,-1,0,-1,-4,-4,-4,-4
1558439905394213,1,-1,2,2,-1,0,-2,-3
1558439905394213,1,3,4,0,1,-4,0,1
1558439905403189,-3,-4,-7,-7,-5,0,-6,-3
1558439905403189,-1,-1,-3,-2,-4,-2,-2,2
1558439905418349,0,0,2,3,7,7,5,3
1558439905418349,-1,-3,-3,-3,-1,1,-2,-2
1558439905425467,-3,0,1,-1,-3,0,0,-2
1558439905425467,-1,0,-3,-2,-3,2,0,-2
1558439905441437,-2,-3,-2,-3,-7,-8,-4,-3
1558439905441437,1,-2,-1,-1,-3,-3,-2,-3
1558439905442463,0,-3,0,2,6,8,1,2
1558439905442463,-1,0,-1,-1,1,-3,-1,-1
1558439905455052,1,-1,-1,1,0,0,1,1
1558439905455052,-1,-5,-5,-4,0,-5,-4,1
1558439905464027,-2,-2,-2,-4,-5,-4,-5,-2
1558439905464027,-2,0,0,0,-1,8,0,-4
1558439905478103,-6,-3,1,-4,-7,-2,-5,-5
1558439905478103,0,0,-1,3,3,-5,4,3
1558439905485320,2,2,1,-1,1,-2,0,2
1558439905485320,0,-4,-5,-1,-4,-6,-1,-1
1558439905500928,0,-1,1,0,3,5,0,0
1558439905500928,-3,-3,0,-2,-8,3,-2,-2
1558439905502924,1,2,1,0,-2,-3,-4,0
1558439905502924,-2,1,1,1,2,4,1,0
1558439905524182,0,0,0,-2,-2,-3,2,-1
1558439905524182,-2,-3,-2,-3,3,-2,-4,0
1558439905524863,-1,-4,-4,-3,-9,-9,-4,-4
1558439905524863,0,-1,-2,0,2,-5,1,0
1558439905538122,0,-2,-1,0,4,-2,-1,-1
1558439905538122,-2,2,1,0,0,-1,-2,0
1558439905544819,-4,-2,-3,0,-1,-1,-1,-5
1558439905544819,-1,-1,1,-1,-6,-5,-3,0
1558439905561203,0,-2,-3,-2,-2,-1,-1,-3
1558439905561203,-2,-1,-1,-2,8,16,10,0
1558439905562761,0,-2,1,2,2,-13,-3,0
1558439905562761,-1,-1,-2,-1,3,6,1,-1
1558439905574729,0,1,-1,-2,-2,-3,-4,0
1558439905574729,3,1,0,1,-6,-2,-6,-4
1558439905583708,0,-1,-1,0,-2,5,3,-2
1558439905583708,0,-1,0,-4,-1,2,3,0
1558439905597669,-3,-2,-2,-2,-6,-10,-5,-2
1558439905597669,-3,0,-3,-1,-6,-7,-5,-2
1558439905604649,-1,-1,-1,-2,2,-2,-1,0
1558439905604649,2,1,1,3,5,7,4,3
1558439905620606,-3,-1,0,0,3,1,3,1
1558439905620606,-3,-2,-2,-1,1,2,-1,-3
1558439905622603,-2,-2,-4,-6,-9,-7,-8,-3
1558439905622603,-1,-2,0,0,-1,-4,-5,-2
1558439905635006,0,-2,-2,-2,1,1,3,2
1558439905635006,2,1,3,1,-2,1,1,0
1558439905643547,-1,0,0,1,4,2,5,3
1558439905643547,-2,0,-1,-3,0,4,2,-2
1558439905658827,-1,-1,-6,-4,-3,-2,-3,-3
1558439905658827,-4,-4,0,-2,-7,-7,-3,-3
1558439905664943,1,1,1,0,-1,-2,-3,-3
1558439905664943,-2,-1,0,0,1,-7,0,-1
1558439905681905,-2,0,2,2,-1,-3,-3,-2
1558439905681905,1,0,-3,-3,-3,-2,1,2
1558439905683494,-3,-1,0,-1,-6,0,-2,-3
1558439905683494,-2,-2,-5,-7,-6,-7,-8,-4
1558439905694410,0,4,2,4,10,10,7,4
1558439905694410,-2,2,0,2,5,1,1,1
1558439905703767,1,0,-1,1,-4,-6,-3,-1
1558439905703767,-1,-2,-1,-1,-8,-2,-5,-5
1558439905718710,-2,-3,-2,-1,-3,5,-1,-2
1558439905718710,2,0,-1,-2,2,-3,1,3
1558439905725442,-3,-2,-1,0,-1,-1,-1,-1
1558439905725442,-2,-1,-2,-1,-6,-10,-6,-6
1558439905741564,-2,-2,-5,-4,-4,0,-1,-4
1558439905741564,0,-1,1,0,3,4,1,-1
1558439905742282,-2,-1,-2,-1,-4,2,1,-1
1558439905742282,0,-1,1,1,4,0,5,1
1558439905754518,-2,0,0,-3,-2,-6,-5,1
1558439905754518,-2,-3,0,-2,-5,-7,-9,-3
1558439905763489,-1,-2,-3,-1,-4,-4,-4,-2
1558439905763489,-1,1,0,0,7,14,9,3
1558439905778188,0,1,1,2,3,-8,-2,0
1558439905778188,-2,-4,-6,-1,-1,7,2,-4
1558439905784200,0,1,-2,-5,-4,-1,-3,-2
1558439905784200,1,-1,-3,-2,-6,-13,-7,-1
1558439905801163,2,-1,0,3,6,4,6,3
1558439905801163,0,-2,-1,-1,0,-4,-6,-2
1558439905802158,-2,0,2,0,1,4,0,-1
1558439905802158,0,-4,-5,-3,-2,-1,-2,-1
1558439905815399,-2,-1,1,-1,-5,0,2,0
1558439905815399,-1,0,0,0,1,0,3,0
1558439905824066,0,0,0,-1,2,2,0,1
1558439905824066,-3,0,1,3,-1,6,-2,0
1558439905838095,-1,-2,-4,-6,-7,-8,-7,-2
1558439905838095,-2,-1,-1,-2,-5,-2,0,-1
1558439905845080,2,2,4,1,8,1,6,6
1558439905845080,-1,-2,2,3,5,-3,-2,2
1558439905860287,-1,-2,-2,-2,-1,12,1,-4
1558439905860287,-3,-2,-3,-3,-10,-14,-6,-3
1558439905867944,0,-3,-3,0,-4,-9,-4,-2
1558439905867944,0,-1,0,-1,5,9,6,2
1558439905874927,0,-2,-3,0,4,-5,-3,-2
1558439905874927,0,-1,-4,-3,-7,0,-6,-4
1558439905883931,-2,-3,-1,-1,4,6,7,0
1558439905883931,-2,-2,-1,-1,2,3,6,0
1558439905897895,-1,-4,-1,-3,-7,-3,-3,-1
1558439905897895,-2,-1,-2,-3,-3,-9,-3,-1
1558439905904846,-3,-1,-2,-1,2,7,-2,-4
1558439905904846,-3,-1,-1,-2,-7,-8,-9,-2
1558439905919805,2,2,0,3,6,1,4,3
1558439905919805,-2,-1,0,0,3,4,3,-2
1558439905926787,-1,-2,-2,-2,-4,1,-2,-1
1558439905926787,-1,-1,-1,1,-6,-8,-5,-2
1558439905934767,-4,-3,-1,-3,-9,-14,-9,-3
1558439905934767,-1,0,0,1,5,11,5,4
1558439905943745,-1,-2,0,1,-2,-9,-4,-1
1558439905943745,-2,1,-2,0,-2,-4,-3,-4
1558439905958742,-1,-3,-2,-2,-2,-3,-2,-4
1558439905958742,1,2,4,1,7,6,5,2
1558439905965056,0,-2,1,0,-3,7,5,-3
1558439905965056,0,-5,-3,-5,-8,-5,-8,-3
1558439905981004,-2,0,0,0,4,4,5,-1
1558439905981004,-3,-3,-4,-2,-6,-1,1,-4
1558439905987624,0,-1,-3,-4,-7,-14,-11,-3
1558439905987624,2,3,3,4,14,12,10,4
1558439905994971,-2,-1,1,1,-2,-2,-5,-1
1558439905994971,0,-1,0,-2,1,-2,-1,0
1558439906003582,-1,-1,-2,0,1,6,3,1
1558439906003582,-1,-1,-5,-2,-6,-3,-2,-2
1558439906018769,1,4,1,3,4,1,1,1
1558439906018769,-2,-3,-4,-3,0,-4,-1,-1
1558439906024945,-1,-1,-1,-4,-8,-9,-8,-5
1558439906024945,-2,-3,-1,-1,-4,0,-1,-4
1558439906040863,-1,-1,2,-2,0,5,3,0
1558439906040863,1,-1,-1,-1,-1,-9,-2,0
1558439906047620,1,1,1,4,10,4,4,0
1558439906047620,-2,-1,1,1,0,7,-1,-1
1558439906063713,-3,0,-3,-2,2,0,0,-2
1558439906063713,-4,-1,-1,0,-3,1,-3,-3
1558439906065673,-3,-2,-4,-4,-8,-7,-7,-4
1558439906065673,-2,-1,-1,-4,-1,-9,-5,-1
1558439906078686,-1,-2,-2,-3,-4,-3,-4,-1
1558439906078686,1,0,2,2,4,0,2,3
1558439906084683,-1,-4,-1,-3,1,4,4,0
1558439906084683,2,0,2,-1,4,3,2,2
1558439906100597,0,-1,1,-1,-3,-6,-4,-1
1558439906100597,0,-1,-6,-4,-1,-1,-2,-3
1558439906107306,-1,1,-1,0,-3,0,-2,0
1558439906107306,-2,-2,0,-2,-4,-7,-4,-3
1558439906124315,-3,-3,-3,-1,2,4,0,-2
1558439906124315,-1,0,0,-1,-6,-2,-4,-1
1558439906125260,0,-1,-1,-3,5,1,1,2
1558439906125260,0,-1,0,0,0,2,-1,-2
1558439906146440,-3,-5,-3,-3,-5,-4,-3,-2
1558439906146440,0,-1,0,0,1,4,2,1
1558439906148217,0,-1,-2,2,-1,1,-1,-1
1558439906148217,-1,2,2,-2,3,-2,0,2
1558439906161187,0,0,1,0,2,7,5,1
1558439906161187,-1,-2,-1,-2,-8,-7,-6,-3
1558439906167414,-3,-4,-1,-1,-3,-5,-4,-1
1558439906167414,-3,-1,-3,-1,-4,2,-2,-4
1558439906184319,3,2,0,0,5,-2,1,3
1558439906184319,1,-2,-1,1,2,1,1,0
1558439906185099,-2,-2,-6,-5,-4,-4,0,-2
1558439906185099,-1,-3,-2,-2,-7,-5,-5,-1
1558439906198062,0,0,-1,2,5,5,6,2
1558439906198062,-1,0,2,-1,0,-1,-2,-1
1558439906205045,1,1,3,-1,-1,1,0,0
1558439906205045,-4,-4,-7,-2,1,0,-3,-1
1558439906221270,-3,-1,-1,-1,-11,-10,-7,-6
1558439906221270,-3,-1,1,-1,2,2,4,3
1558439906227350,0,0,-1,-1,1,-4,-4,-2
1558439906227350,0,0,5,2,4,9,9,2
1558439906244269,2,0,0,-1,3,-1,2,2
1558439906244269,-3,-2,-2,-2,-5,-7,-6,-3
1558439906244939,-1,-1,-3,1,-4,-3,1,-2
1558439906244939,-3,-1,-1,-3,-3,2,1,-1
1558439906258225,-2,-2,-2,-3,-6,-1,-9,-6
1558439906258225,-3,-3,-2,-2,-7,-7,-5,-4
1558439906265204,0,1,-1,-2,0,-4,2,1
1558439906265204,0,0,0,0,8,6,2,2
1558439906281155,0,-1,-2,0,1,2,3,-1
1558439906281155,1,1,1,0,5,6,0,0
1558439906287967,-1,-3,-3,-4,-4,-8,-6,-3
1558439906287967,-1,-5,-2,-5,-10,-15,-8,-2
1558439906304056,-2,-3,-4,-1,0,4,-1,-1
1558439906304056,0,1,0,1,3,4,1,-3
1558439906304778,-3,2,-1,0,-1,7,0,-2
1558439906304778,1,0,-1,-1,4,1,3,3
1558439906318007,-2,-4,-3,-2,-3,-1,-1,0
1558439906318007,-3,-4,-2,-2,-2,-1,0,-2
1558439906324978,-2,-1,1,-1,-2,-4,-4,2
1558439906324978,-2,-1,-4,1,-4,-7,-1,-1
1558439906348920,2,1,4,-1,0,-1,-4,0
1558439906348920,0,0,-2,0,1,3,0,0
1558439906349660,0,0,2,1,2,7,2,-1
1558439906349660,-1,-2,-1,-3,-4,-7,-2,-1
1558439906363619,-2,-3,-2,-2,-3,-1,-1,-2
1558439906363619,-2,-1,0,-1,-2,-4,-3,-1
1558439906364616,-1,0,3,1,6,0,4,2
1558439906364616,-1,-2,-3,-1,-1,2,-3,-3
1558439906377585,-1,1,-1,1,-3,-5,0,0
1558439906377585,-1,-2,-2,-3,-5,-4,0,-2
1558439906385560,-6,-3,-7,-5,-8,-1,-4,-5
1558439906385560,-1,0,5,2,-1,-1,-2,-1
1558439906400964,-2,0,-3,0,7,4,2,1
1558439906400964,-1,2,0,-1,-1,1,3,1
1558439906407502,1,-1,-1,-1,-1,-3,-4,-1
1558439906407502,0,1,0,0,0,-1,1,-1
1558439906439417,-1,-1,-2,-3,-5,-4,-6,-3
1558439906439417,-2,-5,-1,-2,0,-6,0,2
1558439906441442,0,-3,-1,0,-2,4,3,0
1558439906441442,-2,-2,-2,-2,-4,-2,-3,-4
1558439906442496,-3,0,-2,-3,-4,-11,-10,-3
1558439906442496,1,3,0,0,4,4,6,0
1558439906446401,-3,-2,-2,1,-7,-10,-6,-4
1558439906446401,-1,-2,-3,-2,-4,-6,-4,-2
1558439906460688,0,2,-2,1,5,7,6,0
1558439906460688,2,-3,-2,0,-1,-3,-4,-4
1558439906474352,2,0,-2,0,3,5,4,1
1558439906474352,0,1,0,-4,-8,-4,-6,-3
1558439906483613,-1,-2,-2,-4,-4,-13,-2,-1
1558439906483613,1,-1,0,1,4,7,3,2
1558439906485296,-1,-3,1,0,2,0,2,-1
1558439906485296,-1,-1,-2,0,6,9,1,0
1558439906497589,-4,-5,-3,-5,-11,-7,-7,-3
1558439906497589,1,0,0,1,1,-7,-1,2
1558439906506238,-4,-4,-4,-4,-6,-3,-4,-1
1558439906506238,0,-1,1,1,1,2,5,1
1558439906520500,-1,-1,0,-2,-7,-7,-8,-2
1558439906520500,-3,-2,-1,-3,0,1,1,-4
1558439906527448,0,0,-1,-1,2,6,1,0
1558439906527448,-1,-1,0,0,-4,-10,-6,1
1558439906551335,0,-1,0,0,1,1,2,-2
1558439906551335,1,1,-1,-3,-1,-2,-3,-3
1558439906552128,-1,-2,0,1,4,2,2,0
1558439906552128,0,-1,-1,-1,-3,-1,2,-3
1558439906556109,-1,-2,-3,-2,-11,-10,-6,-3
1558439906556109,-1,-1,-1,1,1,0,-1,1
1558439906566079,-2,1,1,-1,1,5,3,0
1558439906566079,-1,-4,-3,0,1,0,-3,-1
1558439906596220,0,1,2,1,4,6,1,4
1558439906596220,-1,1,1,0,-1,-7,-1,1
1558439906596997,0,0,-4,-3,-2,-7,-2,-1
1558439906596997,-1,-4,-7,-4,-5,-3,-3,-4
1558439906604223,-1,0,-1,-1,-1,4,1,-2
1558439906604223,-1,-3,-4,-3,-6,3,-5,-3
1558439906604973,0,0,5,2,11,3,5,6
1558439906604973,0,1,1,2,1,-5,-3,1
1558439906616941,1,-2,-1,-2,2,4,1,1
1558439906616941,0,-1,0,-2,-3,1,-1,-2
1558439906625916,-4,-1,-3,-3,-7,-7,-4,-5
1558439906625916,-3,1,-1,-2,-4,0,-3,-4
1558439906641195,1,-1,-1,1,2,2,3,1
1558439906641195,-1,-1,-1,-1,-2,-3,-4,-1
1558439906648119,2,1,0,1,4,6,2,1
1558439906648119,-1,1,1,1,3,4,3,-1
1558439906671125,0,-2,-1,-1,1,-3,1,1
1558439906671125,-1,0,2,0,-5,-8,1,0
1558439906672823,0,-2,0,-1,0,-2,-6,-4
1558439906672823,-2,-2,-4,-3,-4,1,-2,-1
1558439906677102,-2,-2,-1,0,-3,-5,-2,0
1558439906677102,0,-1,0,1,3,7,5,2
1558439906686102,-1,-4,0,-1,-1,-7,-7,-2
1558439906686102,-1,-2,-4,-3,-4,1,-3,-3
1558439906716771,0,2,3,2,0,0,3,1
1558439906716771,-5,-4,-5,-3,-2,-1,-2,-1
1558439906717678,-2,-1,-1,-1,-2,5,3,0
1558439906717678,0,0,2,1,3,0,-2,0
1558439906723688,-1,-1,-1,-3,-6,-4,-3,-3
1558439906723688,-1,-2,-3,-2,-2,2,-4,-3
1558439906724918,-2,-2,-1,-1,-1,3,0,1
1558439906724918,1,-1,-1,-1,1,0,3,1
1558439906737884,1,0,-1,2,3,8,5,-3
1558439906737884,-3,-2,-1,-2,-4,-6,-6,-2
1558439906753577,-3,-2,-2,-3,-4,-3,0,-3
1558439906753577,-2,2,1,-3,-5,-4,-2,-3
1558439906760791,-4,-1,-1,0,3,7,-1,-2
1558439906760791,1,1,0,3,3,-11,-6,1
1558439906767771,3,3,2,0,0,0,2,2
1558439906767771,-1,-4,-5,-1,1,-3,1,0
1558439906791476,1,-1,0,-1,1,3,1,0
1558439906791476,-5,-3,-4,-3,-6,2,-6,-5
1558439906792472,-2,0,-2,-1,-6,-7,-3,-2
1558439906792472,0,3,1,1,-1,-4,1,2
1558439906797463,-2,-3,-4,-1,-4,-13,-8,-2
1558439906797463,-3,-4,-1,-1,4,14,8,1
1558439906806436,0,-1,0,0,-2,-2,2,-1
1558439906806436,-4,-3,-2,-1,-5,-3,-6,-3
1558439906828375,0,0,-1,-2,0,-2,-4,-3
1558439906828375,0,3,-1,0,0,1,4,0
1558439906830371,-2,-1,-4,-1,-1,-5,-2,1
1558439906830371,0,-1,-1,1,0,-1,-1,0
1558439906842338,-1,1,0,-2,1,2,0,0
1558439906842338,-1,-3,-4,-4,-2,2,-2,-3
1558439906849318,0,1,2,1,2,0,2,0
1558439906849318,1,0,0,-2,2,-6,-2,1
1558439906874525,-2,-3,-1,-3,-10,-6,-5,-5
1558439906874525,1,1,2,1,-1,-1,-1,1
1558439906875540,-2,-1,-2,-1,2,-3,-3,-2
1558439906875540,-1,-1,-2,-4,-2,2,2,-1
1558439906880516,-2,0,-1,1,2,2,1,2
1558439906880516,-1,-3,-1,-1,-1,0,-1,-1
1558439906887491,-1,-3,-5,-3,-8,-10,-6,-4
1558439906887491,0,-1,4,2,5,12,9,2
1558439906911302,-4,-2,-4,-1,-1,-2,-4,-1
1558439906911302,-1,-2,-2,-3,-3,1,-1,-1
1558439906912502,0,1,1,0,2,2,-3,-2
1558439906912502,-1,-2,-2,-2,-5,-4,-3,-3
1558439906917489,-1,-1,2,-1,2,5,5,1
1558439906917489,4,1,4,0,1,-6,-1,1
1558439906926143,-1,-1,-1,0,-1,6,-1,-1
1558439906926143,-3,-2,-2,-1,-5,-4,-8,-3
1558439906941101,1,3,2,-1,0,-10,2,2
1558439906941101,-2,-4,-2,-3,-8,-8,-5,-4
1558439906949053,-1,-2,1,0,4,6,4,0
1558439906949053,-3,-2,1,-1,2,2,-2,-3
1558439906963015,1,0,1,2,9,11,7,2
1558439906963015,0,1,2,2,0,-7,-4,1
1558439906969996,-2,-3,-4,-3,-8,-5,-7,-5
1558439906969996,0,2,1,0,1,0,1,2
1558439906993933,-3,-3,-7,-1,-6,-6,-1,-1
1558439906993933,-3,0,-1,-2,1,2,2,0
1558439906994932,-3,0,-2,-3,-6,-3,-4,-4
1558439906994932,2,0,1,0,4,2,3,2
1558439906999918,-2,-1,1,-1,-5,-2,-2,-3
1558439906999918,1,0,0,-1,2,1,-2,0
1558439907006898,0,1,-1,-2,-3,2,-1,1
1558439907006898,-4,-3,-3,1,-6,-7,-5,-3
1558439907030835,0,-4,1,-2,-1,-4,-2,1
1558439907030835,-1,-2,-2,-2,1,-1,1,0
1558439907032828,-1,-1,0,1,4,0,1,-1
1558439907032828,0,1,2,0,-2,-5,-4,0
1558439907045795,0,-4,-5,-2,0,0,-1,-2
1558439907045795,-3,-4,-3,-3,-7,-7,-6,-4
1558439907047792,-1,1,0,1,-1,-8,4,2
1558439907047792,0,0,0,0,5,8,3,1
1558439907060806,-3,-1,-4,-3,-7,-3,-7,-2
1558439907060806,-1,2,1,1,2,4,6,3
1558439907068061,-1,1,2,0,-3,0,-1,-1
1558439907068061,-2,-5,-5,-3,-9,-10,-4,-5
1558439907083181,0,1,0,0,3,3,-2,-2
1558439907083181,-3,-3,-3,-4,-10,-6,-3,-4
1558439907089678,0,0,1,1,3,1,1,2
1558439907089678,2,3,-1,1,7,9,7,5
1558439907105635,-3,-2,-1,-1,-2,-4,-4,-2
1558439907105635,1,0,0,-3,-2,-5,-3,-3
1558439907107629,-1,0,-1,-1,-1,-2,-2,0
1558439907107629,0,-1,-1,-2,-6,1,-4,-6
1558439907120595,-3,-2,-2,-2,-3,1,2,-1
1558439907120595,3,2,1,2,10,2,3,5
1558439907126577,0,-4,-4,-1,-5,-3,-3,-2
1558439907126577,-1,-2,-3,-3,-5,-4,-5,0
1558439907150548,-1,-1,0,1,3,4,3,2
1558439907150548,-3,1,-1,0,3,2,1,-2
1558439907152546,0,-1,0,3,2,3,2,1
1558439907152546,-3,-4,-5,-5,-11,-11,-7,-3
1558439907165472,0,0,1,0,-4,-4,-1,0
1558439907165472,0,-2,-2,2,4,4,0,2
1558439907167469,0,-3,-2,-4,2,3,1,-2
1558439907167469,-4,-2,-2,-3,0,-1,-5,-5
1558439907188432,0,0,-1,0,-4,4,3,-1
1558439907188432,0,2,2,-2,1,-3,0,1
1558439907189411,-4,-3,-4,-4,-4,-5,-9,-3
1558439907189411,1,-1,-1,0,0,1,1,1
1558439907202602,-2,1,1,1,7,8,4,0
1558439907202602,-1,1,1,-3,-11,-6,-3,-3
1558439907209356,-1,-2,-2,-2,-2,-8,-5,-1
1558439907209356,1,-1,1,2,6,0,2,3
1558439907226313,2,-2,-2,-1,-2,-9,-5,-2
1558439907226313,-3,-4,-4,-2,0,5,-1,-3
1558439907227309,-3,-1,-2,0,-2,6,5,0
1558439907227309,-1,0,-1,-1,3,0,2,2
1558439907240275,-1,-3,-3,-5,-8,-6,-9,-3
1558439907240275,1,-2,-4,0,-1,1,0,-2
1558439907247439,-2,0,-3,-2,0,-2,-3,-1
1558439907247439,-2,-1,-1,-1,2,4,5,-1
1558439907271191,0,0,-1,-3,-1,0,-1,1
1558439907271191,-3,-3,-1,-2,-9,-6,-6,-2
1558439907272194,1,1,0,-1,0,-5,-3,1
1558439907272194,0,0,0,2,7,11,5,2
1558439907286152,0,1,0,0,1,-3,0,0
1558439907286152,-2,-3,-3,-1,0,-5,-5,-1
1558439907287147,-3,-2,1,0,-5,2,-2,-3
1558439907287147,-2,-2,0,-1,1,-2,0,-2
1558439907308102,-1,-3,-5,-2,5,-4,2,1
1558439907308102,0,1,2,1,3,6,4,1
1558439907310088,1,0,0,-1,1,7,2,0
1558439907310088,-1,-1,-2,-3,-11,-12,-6,-4
1558439907323053,-3,-1,-1,-2,2,5,2,-1
1558439907323053,0,0,1,0,4,6,6,2
1558439907330035,-1,0,-1,-2,-2,-10,-7,-1
1558439907330035,-2,0,0,-2,-6,1,-5,-4
1558439907345991,-3,-1,1,-2,-2,-8,-2,0
1558439907345991,-1,0,-1,1,5,4,-1,0
1558439907346989,2,-1,0,-1,-1,2,1,0
1558439907346989,-2,-3,-3,0,4,3,4,-1
1558439907360110,1,2,1,1,-1,-2,-5,-3
1558439907360110,0,-1,1,0,1,6,2,-1
1558439907366935,-3,-3,-3,-5,-7,-13,-6,-3
1558439907366935,0,-1,2,0,-1,-2,-2,0
1558439907382891,-2,-1,-3,-2,-5,1,-1,-1
1558439907382891,-3,-5,-3,-1,2,3,0,-1
1558439907389907,-1,-1,-1,-1,1,2,0,-1
1558439907389907,1,-2,-2,-2,-2,-6,1,1
1558439907414054,-3,-3,-2,0,-7,-4,-4,-4
1558439907414054,-2,-1,2,-1,-2,-3,-2,2
1558439907414813,-3,-6,-5,-2,-2,-1,1,-2
1558439907414813,0,1,2,1,4,3,2,0
1558439907420792,0,-3,-2,-3,-5,-2,-4,-4
1558439907420792,-3,-3,-6,-4,-2,-5,-4,-3
1558439907428776,0,1,3,5,1,1,1,-1
1558439907428776,0,4,1,-2,1,3,-1,-2
1558439907442733,1,-2,-3,-3,2,0,3,4
1558439907442733,2,2,-2,-2,-8,-11,-7,-4
1558439907449714,-1,0,0,-1,1,1,-1,0
1558439907449714,-2,1,-2,-2,-2,-9,-8,-1
1558439907465672,-1,0,0,2,10,16,14,3
1558439907465672,-1,-1,-1,0,-7,-10,-5,-3
1558439907467669,-1,1,0,-1,1,5,0,-3
1558439907467669,-3,-1,-2,-1,-3,4,2,1
1558439907479817,-2,-4,-3,0,-1,-4,-4,0
1558439907479817,1,1,0,0,2,2,0,2
1558439907488609,1,-3,-3,-2,3,5,0,-2
1558439907488609,-2,-1,-2,-3,-11,-10,-6,-3
1558439907502573,-1,-1,3,1,1,-3,0,-1
1558439907502573,-1,0,0,-1,1,2,3,0
1558439907509555,0,-2,-3,-3,-2,1,-2,-2
1558439907509555,-1,0,-3,1,7,6,-2,-3
1558439907525512,0,2,-1,-2,2,1,-2,1
1558439907525512,-2,-3,1,-3,-6,-5,-4,-2
1558439907527507,0,1,0,3,3,-1,3,0
1558439907527507,2,-3,-2,-1,4,9,9,4
1558439907548451,-2,-4,-2,-2,-7,-7,-7,-4
1558439907548451,-1,-1,-2,1,-3,-1,-4,-1
1558439907549448,-1,3,3,2,3,4,4,1
1558439907549448,-1,-3,-3,-3,-4,-3,-3,-4
1558439907562415,0,0,0,-2,6,-1,3,2
1558439907562415,-2,-4,-5,-4,-6,-1,-5,-3
1558439907577375,-2,-1,-1,-3,-2,-1,-2,1
1558439907577375,-3,-1,1,0,0,3,-1,-2
1558439907586349,-2,0,-1,5,-3,2,-5,-4
1558439907586349,-2,-3,-4,-2,-6,-12,-2,0
1558439907587349,-2,-3,-2,-2,-5,-1,-2,-1
1558439907587349,-2,-2,1,-3,2,-2,-1,0
1558439907599315,0,-1,1,-2,-3,-3,-1,0
1558439907599315,-1,-2,-5,-1,0,1,-1,-3
1558439907608291,0,-1,-3,-3,1,-3,4,2
1558439907608291,-2,-6,-1,2,-1,1,0,0
1558439907623249,2,-1,4,1,0,2,-3,-1
1558439907623249,1,0,1,1,2,-1,-1,-3
1558439907629234,1,0,-5,-3,-5,-8,-3,0
1558439907629234,0,1,-1,-2,-4,0,-5,-3
1558439907646189,-2,1,-1,0,0,2,4,0
1558439907646189,1,0,4,3,6,5,4,3
1558439907647186,-4,-3,-2,0,-4,0,-2,-1
1558439907647186,0,1,0,0,1,-10,-1,3
1558439907659154,-1,-1,-3,-6,-6,-3,-3,-3
1558439907659154,-2,-1,-3,-2,-2,4,0,-1
1558439907674118,1,0,-1,-2,1,0,-1,-2
1558439907674118,-2,-2,-1,1,0,4,2,1
1558439907683090,1,0,1,-1,4,3,4,2
1558439907683090,-2,-2,-5,-1,-4,-5,-3,-3
1558439907707062,-1,-2,2,-1,-3,-1,-1,-3
1558439907707062,-1,-1,6,2,-2,-5,-3,-1
1558439907707062,-3,-2,-4,0,-7,-6,-3,-2
1558439907707062,-1,0,-1,-3,-2,-1,-4,-2
1558439907709021,-2,0,-1,-2,2,2,4,1
1558439907709021,1,2,-1,5,2,4,2,2
1558439907719989,0,-3,-1,-7,-3,-3,-1,-3
1558439907719989,-1,1,-1,-1,-6,-2,-4,-6
1558439907728967,-3,-2,-2,1,-5,-9,-9,-2
1558439907728967,2,0,1,-3,4,1,4,3
1558439907742934,1,2,0,2,1,-3,-3,0
1558439907742934,-1,-1,-2,2,-1,5,7,3
1558439907749913,-1,0,0,-1,1,-1,-2,-2
1558439907749913,-1,0,1,-2,4,-4,-6,-4
1558439907764930,0,-1,0,0,-3,-5,2,-2
1558439907764930,-3,-2,1,0,4,9,2,1
1558439907779840,0,-1,-5,-5,-5,-6,-2,0
1558439907779840,0,-1,-3,2,-1,0,3,-1
1558439907780827,-1,-3,-4,-4,-5,-3,-7,-3
1558439907780827,0,0,4,-4,4,1,0,-1
1558439907788808,-2,0,-1,1,3,0,-2,0
1558439907788808,-4,-5,-4,-5,-10,-10,-7,-5
1558439907802778,-2,0,1,1,-3,-1,0,-1
1558439907802778,1,-1,-1,-2,1,1,8,2
1558439907809755,-3,-4,-3,-2,-7,-9,-5,-2
1558439907809755,1,1,-5,-2,7,10,5,0
1558439907825709,0,-3,1,2,-2,-2,-3,-3
1558439907825709,-2,-1,3,0,-4,-6,-5,-3
1558439907831692,2,-3,-3,0,5,8,4,-1
1558439907831692,-2,0,1,-6,-7,-9,-1,0
1558439907839675,-1,-1,-6,-1,2,0,0,-2
1558439907839675,1,1,-1,2,1,0,-2,-1
1558439907848647,-1,1,5,4,2,8,-2,-2
1558439907848647,-2,-4,-6,-4,-4,-1,-1,-3
1558439907862610,-1,1,2,-3,-1,-6,-9,0
1558439907862610,1,1,1,-1,-5,-11,-3,2
1558439907869591,-1,-1,0,-1,2,2,1,1
1558439907869591,-2,-2,0,1,-7,-6,-7,-2
1558439907885778,-4,-2,5,4,2,7,7,-1
1558439907885778,-1,-1,-3,-1,-2,-1,-3,-2
1558439907892528,-1,-2,-4,-5,-1,3,0,0
1558439907892528,2,-3,-4,-1,1,-3,5,1
1558439907899512,-3,-2,-3,-1,4,5,-7,0
1558439907899512,-2,0,0,-1,-2,-4,-4,0
1558439907908488,0,-2,1,-2,-7,-11,-2,-2
1558439907908488,-2,-1,-4,-1,-3,-7,-6,-3
1558439907922449,0,3,0,-1,0,0,1,0
1558439907922449,-1,-4,1,-1,5,11,10,0
1558439907929433,0,-1,-1,1,-4,-1,-4,-2
1558439907929433,0,1,0,-4,-6,-5,-6,0
1558439907945387,1,1,-1,0,7,3,3,1
1558439907945387,0,0,-4,-2,-2,-3,-8,-1
1558439907952370,-1,-4,0,3,1,-1,1,-3
1558439907952370,-1,-1,-1,-2,-1,2,3,0
1558439907968326,-1,-1,-4,-3,-1,2,-1,-2
1558439907968326,-2,-4,0,-2,0,-10,-7,-2
1558439907970324,0,-1,1,-1,1,0,-2,-1
1558439907970324,0,1,0,1,-1,3,-2,2
1558439907983293,-2,-2,0,-1,-4,-4,2,-2
1558439907983293,-3,-1,-2,-2,-3,0,4,0
1558439907989279,0,-1,-3,-3,-2,0,-3,-5
1558439907989279,-5,-3,-3,-3,-3,3,-3,-4
1558439908005227,1,-1,1,0,3,-3,6,3
1558439908005227,0,0,-1,-3,-5,-4,-6,-2
1558439908012208,-2,-2,-3,-1,-1,-1,5,5
1558439908012208,-3,-2,-2,2,3,1,-5,-4
1558439908028166,-1,-2,-1,0,-5,-1,-3,-3
1558439908028166,0,-1,-2,0,9,12,11,3
1558439908030161,-2,-1,-1,-1,-4,-6,-6,-4
1558439908030161,0,-1,0,-4,-5,-6,-6,-3
1558439908043159,-3,-1,-3,-4,-5,-4,-3,0
1558439908043159,-1,1,1,3,-4,-6,-5,-3
1558439908049145,2,3,-1,-2,0,3,4,4
1558439908049145,-1,-1,2,2,1,4,2,-3
1558439908073046,-3,-1,3,0,0,-6,-6,-4
1558439908073046,2,2,0,-1,-2,3,0,1
1558439908075040,0,1,2,1,4,-3,-2,2
1558439908075040,1,0,-1,-1,5,7,6,2
1558439908088007,-4,-2,-5,-3,-13,-1,-5,-7
1558439908088007,-1,-3,-3,-1,1,2,5,0
1558439908090002,1,0,4,1,10,5,3,1
1558439908090002,0,-2,-3,-2,-7,-13,0,1
1558439908102967,1,-3,1,-2,-4,-3,-5,-1
1558439908102967,-1,0,-3,-4,3,6,1,0
1558439908109948,-3,-3,-7,-4,-11,-5,-5,-8
1558439908109948,-2,-2,2,1,1,2,-1,-1
1558439908124909,0,2,-1,1,6,2,1,4
1558439908124909,-2,-4,-4,-2,-6,-10,-9,-4
1558439908139925,1,1,3,1,2,5,3,0
1558439908139925,-2,0,-1,-4,0,0,-1,0
1558439908148847,1,-1,-2,-1,-1,1,-2,-5
1558439908148847,0,0,6,8,8,13,11,4
1558439908149842,-3,-3,1,0,1,-13,-3,-1
1558439908149842,-4,-6,-7,-2,-9,-10,-7,-6
1558439908162807,-1,-3,-4,-5,-2,-1,-4,-1
1558439908162807,0,-1,-2,-3,-1,-5,-5,-2
1558439908169946,-1,0,-3,-2,-2,5,1,0
1558439908169946,0,0,2,1,-3,-5,-2,-2
1558439908193725,1,2,0,4,7,11,1,-3
1558439908193725,-3,-3,-3,-2,-4,-2,-1,-2
1558439908194735,-2,2,2,-1,-2,-5,-7,-1
1558439908194735,-1,-4,-2,-1,-1,-3,4,3
1558439908208699,-1,-3,-2,-3,-4,-9,-3,1
1558439908208699,-3,-3,-2,-3,2,3,-1,-1
1558439908209681,-1,-2,-3,1,1,0,1,-2
1558439908209681,1,1,4,2,7,11,1,1
1558439908222648,-4,-2,-2,-1,-2,3,1,-1
1558439908222648,-4,-4,-4,-5,-8,-13,-6,-5
1558439908229628,-1,-5,-2,0,-6,-9,-5,-2
1558439908229628,0,2,2,-1,2,8,4,1
1558439908245765,-1,-1,1,-1,1,-6,-4,-2
1558439908245765,0,2,-2,0,0,-2,0,2
1558439908251572,-2,-2,-3,-2,0,-3,-3,0
1558439908251572,-1,-3,-2,-3,3,9,5,0
1558439908268523,-1,-1,-4,-1,-8,-9,-7,-4
1558439908268523,0,-2,-2,1,4,9,8,2
1558439908269521,-4,-1,1,1,0,3,-2,-6
1558439908269521,-4,-5,-3,-6,-6,-11,-9,-6
1558439908290484,-5,-1,-1,0,-1,0,3,1
1558439908290484,0,1,0,-3,2,-2,-4,0
1558439908292459,2,1,-1,-2,4,11,3,1
1558439908292459,3,1,3,5,-1,3,-1,0
1558439908305427,1,0,2,-1,0,-1,1,0
1558439908305427,-1,-1,-2,-3,-7,-10,-3,-1
1558439908312405,-1,-1,-1,2,-2,-4,-5,-2
1558439908312405,-1,1,-1,0,-1,-5,-1,0
1558439908328375,-1,-4,-3,-3,-4,5,1,-1
1558439908328375,1,1,1,0,-2,-6,-7,-2
1558439908330363,-2,-1,-1,-2,-4,-1,-1,-2
1558439908330363,-1,0,-3,-2,2,1,4,0
1558439908351305,2,1,-1,1,7,9,4,0
1558439908351305,-2,-1,1,1,1,12,0,-3
1558439908352302,-2,0,1,-5,-11,-17,-7,-2
1558439908352302,1,-1,-3,-3,-4,-12,-6,1
1558439908365272,-2,0,1,3,2,4,5,0
1558439908365272,0,-1,-5,-3,-2,-4,-4,-2
1558439908372248,-1,-3,-3,-3,-1,8,4,1
1558439908372248,-3,-2,-2,1,-2,-1,-2,-2
1558439908388204,-1,1,0,-2,1,-5,-4,-2
1558439908388204,0,1,1,-1,-1,-7,-2,-2
1558439908390198,0,0,2,2,0,0,-1,0
1558439908390198,-1,0,-6,-2,0,1,-1,-1
1558439908403166,-2,-2,2,-3,-2,0,-2,-1
1558439908403166,0,-2,0,-1,0,-3,1,2
1558439908410144,-1,-2,-2,-1,-4,-2,-1,0
1558439908410144,-1,-3,-1,-1,-3,-3,-4,-3
1558439908425107,2,0,-2,0,3,0,0,3
1558439908425107,0,-1,0,-1,0,1,1,-2
1558439908432114,-2,-4,-4,-2,1,0,1,-2
1558439908432114,-3,0,-2,-3,-8,-6,-3,-3
1558439908448049,-4,-5,-4,-6,-16,-9,-7,-7
1558439908448049,-1,2,5,3,5,5,5,2
1558439908450040,1,1,0,3,11,10,9,6
1558439908450040,-2,3,3,-1,-1,3,-4,-1
1558439908462008,-1,-2,-4,-1,1,-4,1,0
1558439908462008,-4,-3,-6,-2,-4,-4,-8,-2
1558439908470982,-1,-3,-2,-4,-5,-1,0,0
1558439908470982,4,-1,0,0,1,-4,0,4
1558439908484945,1,-2,1,1,-2,-2,-4,-4
1558439908484945,-1,-1,-1,-2,-5,-1,-6,-5
1558439908491926,-4,0,-7,-6,-8,-6,-6,-6
1558439908491926,-2,-1,1,-1,-1,-4,0,-2
1558439908508880,3,1,3,3,19,6,15,9
1558439908508880,0,-1,-1,1,3,1,3,-2
1558439908509878,-1,-3,0,1,3,2,-3,-1
1558439908509878,-2,-2,-5,-4,-6,1,-4,-3
1558439908522847,-3,-3,-4,-4,-11,-8,-5,-4
1558439908522847,-2,-3,-3,-1,-1,-1,0,1
1558439908530823,-2,-2,-2,-1,0,0,-3,-3
1558439908530823,-1,-1,2,1,0,5,0,0
1558439908545781,-2,1,-2,0,4,4,2,5
1558439908545781,-2,-3,-1,0,-3,1,-1,-2
1558439908551766,0,1,1,-1,0,-6,-2,-2
1558439908551766,1,0,-1,-1,4,1,-3,-3
1558439908568733,-1,-3,-4,-3,-8,1,-3,-4
1558439908568733,-2,2,1,-4,-2,-2,0,-1
1558439908569727,1,0,1,0,4,0,5,2
1558439908569727,-2,-1,-2,-2,-1,-7,0,2
1558439908582682,0,0,1,-1,-3,-5,-3,-2
1558439908582682,-2,-4,-6,-4,-4,0,-3,-2
1558439908590665,1,1,1,-1,-1,4,4,1
1558439908590665,-1,-2,-3,-1,3,2,-2,-2
1558439908605624,-3,-1,-1,-2,-7,-6,-8,-6
1558439908605624,0,2,2,1,9,2,6,5
1558439908611614,-2,-3,-3,0,-2,-4,-2,-3
1558439908611614,0,0,-2,-1,-1,-4,-3,0
