timestamp,emg1,emg2,emg3,emg4,emg5,emg6,emg7,emg8
1558441889897592,1,-1,2,5,0,-1,2,-1
1558441889897592,-1,0,-1,-8,0,2,0,0
1558441889898590,0,3,8,6,5,0,0,1
1558441889898590,-5,-4,-12,-9,-9,-8,-3,-2
1558441889898590,-1,-1,-3,6,5,0,-2,2
1558441889898590,0,-1,5,3,7,-1,0,1
1558441889901582,-2,-6,-12,-12,-10,4,0,-3
1558441889901582,-1,-1,2,3,6,12,-1,-5
1558441889908563,3,3,0,-1,-1,-10,3,2
1558441889908563,-1,-1,-2,-1,-3,1,-1,-4
1558441889916542,-3,-1,-3,0,8,4,2,1
1558441889916542,-2,-1,1,-4,-4,-6,-5,-2
1558441889923523,-4,-3,-3,-4,-8,0,-8,-6
1558441889923523,1,1,5,7,5,3,0,0
1558441889938483,0,-1,-6,-11,-4,-7,-5,-1
1558441889938483,-1,2,-2,1,-5,-4,1,-2
1558441889944466,2,0,5,5,12,18,8,6
1558441889944466,-3,-3,-4,-6,-8,-4,-2,-1
1558441889956434,-6,-3,-2,2,-6,-4,-7,-4
1558441889956434,0,-2,-4,-3,-5,-7,-3,-1
1558441889968403,-1,-1,-2,-5,-1,0,2,1
1558441889968403,1,2,0,2,4,5,3,2
1558441889976382,3,-1,1,3,0,1,-5,-1
1558441889976382,-1,-2,4,3,-3,2,4,1
1558441890023255,-1,0,1,-1,0,-8,-6,-1
1558441890023255,0,-2,0,0,3,-1,3,-1
1558441890024253,1,0,2,1,4,0,4,0
1558441890024253,-2,0,-2,-3,-3,0,-3,-4
1558441890024253,-3,-4,-12,-8,-8,-4,-7,-4
1558441890024253,1,2,2,5,3,8,0,0
1558441890027246,-2,-3,-10,-17,-11,-1,-3,-3
1558441890027246,1,0,5,3,11,0,10,4
1558441890036221,-1,-1,-4,2,2,4,4,-1
1558441890036221,-2,-1,2,-5,-9,-3,0,-2
1558441890042205,1,0,1,-3,0,3,0,1
1558441890042205,-1,1,-5,-1,-2,-6,-10,-3
1558441890051181,3,1,0,1,7,4,2,3
1558441890051181,1,-1,8,5,6,-1,5,2
1558441890065144,-2,-1,-1,4,1,4,-4,-4
1558441890065144,-3,-6,-12,-12,-12,-10,-4,-3
1558441890074120,-1,-2,2,0,-5,-4,-7,-4
1558441890074120,-4,-4,-6,-6,-12,-9,-6,-4
1558441890080105,1,0,2,6,3,-6,0,1
1558441890080105,-3,-3,-8,-8,-4,4,-1,-4
1558441890096061,1,2,3,-2,0,12,5,0
1558441890096061,1,0,0,1,6,-4,0,0
1558441890102045,-3,-3,-9,-4,-9,-2,-4,-3
1558441890102045,-1,1,6,5,3,-9,-1,3
1558441890111021,1,4,7,4,7,0,1,-1
1558441890111021,-3,-5,-15,-10,-3,3,-1,-2
1558441890124984,-4,-5,2,-2,-2,-4,0,-2
1558441890124984,0,2,-1,1,-2,-10,5,2
1558441890133960,-3,-5,4,0,-2,4,3,1
1558441890133960,1,2,-1,2,-4,-7,-4,1
1558441890139943,0,1,-1,6,2,3,-5,-3
1558441890139943,-2,-5,-6,-18,-12,-8,-9,-4
1558441890155900,-2,1,2,4,3,8,8,-1
1558441890155900,3,3,-1,6,6,1,9,4
1558441890161885,-5,-8,-6,-12,-4,-1,-2,0
1558441890161885,2,0,4,3,2,11,0,-1
1558441890170861,-2,-2,-6,-1,-5,-11,-2,-1
1558441890170861,0,-1,6,-1,1,-3,-6,-3
1558441890184824,-6,-1,-4,-2,-4,3,-5,-6
1558441890184824,-1,-1,1,8,4,10,9,0
1558441890200781,2,0,-8,-11,3,-14,-5,3
1558441890200781,-3,-2,8,2,-1,0,-1,-3
1558441890200781,1,0,0,-2,-5,-10,-2,-2
1558441890200781,1,-2,0,2,1,5,-3,-3
1558441890215741,1,-5,-5,-3,-13,-11,-6,-5
1558441890215741,0,3,7,4,17,22,9,6
1558441890222722,1,1,-3,0,2,-1,1,1
1558441890222722,-2,-2,-3,0,-7,0,-5,-2
1558441890231698,-2,0,-1,-1,-8,-3,-7,-3
1558441890231698,-2,-2,-2,-2,-3,-1,-3,-3
1558441890244663,-1,0,4,5,5,-2,1,3
1558441890244663,0,-2,-6,0,7,9,12,3
1558441890253639,-2,-1,0,-5,-3,-4,-3,-2
1558441890253639,-7,-5,-5,-14,-13,-5,-6,-7
1558441890259624,-1,-1,4,7,3,2,0,0
1558441890259624,-1,1,8,1,-1,-9,-3,-1
1558441890276579,-2,1,-3,0,1,1,4,-2
1558441890276579,-1,-4,-11,-6,-8,-2,-7,-3
1558441890282563,3,2,2,-6,5,6,9,2
1558441890282563,0,-2,-2,-4,-1,-6,-4,0
1558441890291539,0,-4,3,4,-2,-5,-3,-2
1558441890291539,0,-2,-3,-4,-2,-1,-7,-4
1558441890304504,0,1,-1,-1,1,7,-5,0
1558441890304504,-2,-4,-4,-1,-8,-8,-3,-1
1558441890313479,4,2,-2,-4,6,-7,11,6
1558441890313479,2,5,2,10,2,-5,-3,2
1558441890327442,-3,-4,-7,-7,-8,-4,-5,-4
1558441890327442,1,2,9,8,5,10,0,-2
1558441890336419,-4,-2,4,3,-3,1,-8,-3
1558441890336419,-1,-3,-11,-13,-5,-11,-3,1
1558441890342402,-1,5,4,4,0,2,0,-5
1558441890342402,-4,-7,-10,-11,-12,-14,-7,-2
1558441890358359,0,-3,6,9,4,8,1,-2
1558441890358359,1,-1,-1,-1,-4,-5,-1,-1
1558441890365343,-2,-2,-1,1,1,-13,-3,1
1558441890365343,1,3,7,8,9,15,2,-1
1558441890373320,-5,-1,-3,-7,2,3,-5,-4
1558441890373320,-1,-1,1,-2,-3,0,-1,-4
1558441890387282,-1,-3,1,2,2,-5,-1,0
1558441890387282,-1,0,-2,-4,-4,-3,-5,-1
1558441890396258,-2,-7,-7,-6,-8,1,1,2
1558441890396258,3,3,5,9,3,1,3,1
1558441890402243,-3,-5,-5,-13,-7,0,-1,-1
1558441890402243,-1,0,-1,2,5,-7,-2,-1
1558441890411219,-1,0,-2,-5,-5,-2,-5,-4
1558441890411219,-3,-2,-5,-1,-8,-4,-12,-8
1558441890425181,0,-1,2,3,5,10,4,3
1558441890425181,0,-1,-10,-2,2,-1,4,3
1558441890433160,-1,-3,0,-6,-5,-6,-1,0
1558441890433160,-1,2,-1,-1,5,4,1,1
1558441890448121,2,3,7,5,0,-7,7,1
1558441890448121,-3,-3,-3,-1,-1,5,-2,-3
1558441890456099,2,1,-3,2,-2,-7,-5,1
1558441890456099,1,-3,-5,-8,-2,0,7,4
1558441890462081,2,1,1,6,8,11,6,3
1558441890462081,0,2,7,0,3,2,1,-1
1558441890471058,0,1,0,-3,5,11,5,0
1558441890471058,-2,2,3,3,-1,-3,-2,-1
1558441890485020,-1,-2,-4,-4,-1,-7,-3,-1
1558441890485020,0,-1,6,5,-4,-4,-3,-1
1558441890493996,-1,-3,-15,-6,-2,-7,0,1
1558441890493996,-4,-5,-1,0,-3,0,-11,-6
1558441890506967,-2,0,-2,4,4,3,8,0
1558441890506967,-1,0,2,1,0,1,0,0
1558441890515938,-2,-2,-1,-3,-3,3,-3,-5
1558441890515938,-2,-3,1,-1,-2,-4,-4,-2
1558441890521923,-1,0,-5,3,1,-7,-5,0
1558441890521923,0,-1,1,-4,0,-12,6,0
1558441890530898,1,4,12,6,6,14,5,3
1558441890530898,-4,-6,-12,-4,0,11,5,-1
1558441890544861,0,-1,-1,-7,-6,-5,-5,-3
1558441890544861,-1,0,-6,-2,-4,-4,-9,0
1558441890554834,-3,-2,2,3,-6,-6,-10,-5
1558441890554834,0,0,5,0,4,2,8,3
1558441890566803,0,-1,-1,-2,-8,-13,-4,-1
1558441890566803,-1,-1,-6,-7,0,6,-2,0
1558441890575778,-2,2,5,5,-1,-4,0,0
1558441890575778,-1,-2,-8,5,-3,0,-6,-3
1558441890581762,-1,-4,-10,-25,-7,7,2,-1
1558441890581762,1,2,3,-2,0,-12,1,-1
1558441890590738,-3,-3,-3,2,3,1,2,-1
1558441890590738,-2,-3,2,-6,-5,-9,-2,1
1558441890604702,1,2,3,7,1,2,-4,-1
1558441890604702,-2,-1,-2,-3,-5,-3,-4,-1
1558441890613676,1,-1,0,-4,0,-10,-1,-1
1558441890613676,-2,-2,-4,2,11,15,10,1
1558441890627639,0,0,1,3,-1,-2,-7,-3
1558441890627639,-3,-4,-9,-5,-2,9,-6,-3
1558441890636615,0,0,7,7,0,-6,1,-2
1558441890636615,1,1,-7,-11,-10,-9,3,-1
1558441890642599,-5,-2,6,0,-2,2,-9,-5
1558441890642599,2,2,2,7,6,7,13,6
1558441890657560,-1,-1,-9,-8,3,2,-3,-1
1558441890657560,0,0,10,7,4,5,-3,-1
1558441890664541,1,-1,2,0,-9,-12,-1,-1
1558441890664541,-2,-5,-13,-18,-6,0,-5,-3
1558441890673515,-1,-4,-1,2,2,1,1,1
1558441890673515,2,3,8,8,6,2,1,1
1558441890687479,-3,-3,-10,-6,-10,-17,-1,0
1558441890687479,-1,0,2,1,10,9,1,0
1558441890696455,-1,1,2,-2,-5,-5,-7,-2
1558441890696455,-2,-1,2,1,1,5,-1,-1
1558441890702440,-3,-8,-15,-5,-6,-10,-1,-2
1558441890702440,-1,-1,2,-1,-5,-8,1,-2
1558441890725378,2,1,-2,4,5,6,1,0
1558441890725378,-2,-3,-3,-7,-9,-9,-10,-4
1558441890726375,-1,2,8,3,8,-1,1,-1
1558441890726375,-1,-1,-1,-1,-3,-10,-5,-1
1558441890740338,-3,-1,-1,-1,0,2,-2,-3
1558441890740338,-1,0,1,-2,-2,-4,-1,-3
1558441890747319,-1,-6,-7,-7,-4,0,4,1
1558441890747319,2,-1,-1,-1,3,-2,0,2
1558441890756295,-3,0,0,2,-3,3,2,0
1558441890756295,-2,-2,-4,2,1,-6,0,0
1558441890762279,0,0,1,-7,2,10,-2,-2
1558441890762279,-2,4,1,3,-3,-1,-2,-3
1558441890777239,-3,-3,-4,-7,2,-5,4,0
1558441890777239,0,-3,-2,-1,5,9,5,4
1558441890785218,2,1,9,8,2,-5,-4,0
1558441890785218,0,-3,-11,-11,-8,5,2,-1
1558441890793197,0,1,-1,-3,-1,0,-6,-1
1558441890793197,-2,2,-6,2,-2,4,1,-3
1558441890807159,-3,-3,1,-5,-2,0,-8,-4
1558441890807159,0,0,5,3,-3,-2,-3,1
1558441890816135,2,0,-8,-13,-8,-8,1,2
1558441890816135,0,-5,3,1,3,0,-1,0
1558441890822119,-2,0,-4,0,-1,5,-1,-1
1558441890822119,-3,-3,-1,2,0,7,-7,-1
1558441890837079,0,1,5,4,-3,-15,-5,-1
1558441890837079,0,-1,-6,-3,-5,-13,-2,0
1558441890845057,1,0,-6,-1,2,8,6,0
1558441890845057,-4,-1,5,5,3,5,1,-3
1558441890854033,-2,0,8,4,2,19,3,-3
1558441890854033,-3,-4,-13,-13,-14,-12,-9,-5
1558441890866999,2,0,-4,6,10,-4,2,3
1558441890866999,-1,0,-1,-4,-7,-4,-15,-5
1558441890875975,1,-1,-5,2,5,11,9,1
1558441890875975,1,0,3,4,0,-15,-3,0
1558441890881959,1,-2,4,1,-7,1,-2,-3
1558441890881959,0,-1,0,1,-1,3,4,-1
1558441890896919,1,0,8,6,6,-2,-3,0
1558441890896919,-2,-3,-9,-4,0,5,-1,0
1558441890904897,-3,-2,-2,-1,-3,-3,-7,-2
1558441890904897,-1,-3,0,-1,-2,-7,-1,-3
1558441890913873,-3,-4,-6,-10,-7,7,-1,-4
1558441890913873,1,3,2,0,4,6,8,2
1558441890926838,-2,1,1,1,6,4,0,0
1558441890926838,-2,-2,3,2,-1,-8,-2,-3
1558441890935814,-2,-5,-9,-11,-8,-10,-6,-2
1558441890935814,-2,-4,-8,-5,-5,1,-4,-3
1558441890941799,-4,-3,-2,-1,-11,5,-2,-4
1558441890941799,-2,0,-2,-1,5,-2,5,0
1558441890957755,-1,1,5,6,7,-18,-2,2
1558441890957755,-1,-2,0,-4,-4,-5,-3,2
1558441890964738,1,1,2,2,5,2,3,3
1558441890964738,1,0,-1,-5,-7,1,-3,-1
1558441890973712,0,-3,-1,0,-3,5,-2,-1
1558441890973712,-3,-1,-6,-6,-4,-3,-5,-3
1558441890987676,-2,-3,-1,0,-7,-10,4,-3
1558441890987676,0,1,1,-1,10,5,3,2
1558441890995655,-2,-2,1,1,-3,4,-2,-3
1558441890995655,-1,-2,6,0,-1,1,1,-1
1558441891010614,0,0,-9,-4,-2,2,-5,1
1558441891010614,1,0,7,7,-1,-13,0,-1
1558441891017596,-1,-3,-12,-4,-3,3,0,0
1558441891017596,0,1,4,-1,3,6,3,1
1558441891033553,0,-1,1,-1,4,-4,0,-1
1558441891033553,-2,-5,-6,-1,-5,1,-4,-3
1558441891035547,1,4,6,8,6,2,1,1
1558441891035547,-1,0,-1,-1,2,2,4,-4
1558441891047515,-2,-2,0,-5,-9,-9,-4,-2
1558441891047515,0,-1,-3,-5,0,-7,1,0
1558441891056491,2,-1,-2,0,-1,2,2,-1
1558441891056491,-2,-1,-1,6,5,6,0,2
1558441891070454,-2,1,3,4,-2,-2,-4,0
1558441891070454,-2,0,-5,-3,4,11,7,1
1558441891077435,-1,-2,-2,-7,-7,-2,-5,-1
1558441891077435,3,2,7,0,0,-8,-2,0
1558441891094391,1,0,-4,0,2,4,0,1
1558441891094391,-2,-3,-9,1,-6,3,-1,-2
1558441891095388,-2,3,9,9,-1,-8,-5,-3
1558441891095388,-1,-3,-16,-11,0,3,6,3
1558441891107355,1,2,8,-1,4,4,8,3
1558441891107355,0,5,1,0,-4,-4,-1,-4
1558441891116332,-5,-6,-9,-6,-10,-15,-6,-3
1558441891116332,1,3,13,6,4,4,3,-1
1558441891130295,-2,-7,-9,-3,-3,-8,-3,-2
1558441891130295,1,1,4,-4,0,7,-6,0
1558441891137274,-2,-4,0,2,1,-6,0,0
1558441891137274,-2,-1,-13,-11,-11,-19,-8,-2
1558441891153232,-2,-2,3,-2,0,14,6,-3
1558441891153232,-3,-2,-3,-6,-5,-6,-8,-3
1558441891155228,-2,-2,-3,-2,-6,3,0,-2
1558441891155228,4,3,6,-2,6,1,1,3
1558441891167196,-2,-3,-9,-10,-11,-9,-2,-2
1558441891167196,0,-3,3,3,-4,-14,3,0
1558441891176171,2,2,-1,-1,7,13,4,1
1558441891176171,-4,-1,-1,3,-7,1,-3,-2
1558441891190134,1,2,2,1,1,1,-5,0
1558441891190134,1,2,7,3,0,-2,0,0
1558441891197115,-3,-2,-9,-6,-4,-1,-2,-1
1558441891197115,2,4,7,8,4,2,-1,-2
1558441891214070,-2,-2,-5,-7,1,-3,1,-1
1558441891214070,0,1,-4,-1,0,-5,-3,0
1558441891215069,0,0,1,0,1,4,1,-2
1558441891215069,-4,-1,4,-1,-7,-5,-10,-4
1558441891227035,-2,1,-1,5,-1,-8,-4,-3
1558441891227035,0,2,5,4,9,11,2,2
1558441891236011,-5,-5,-13,-6,-7,1,1,0
1558441891236011,-1,-2,3,-3,-8,-10,-5,-3
1558441891250971,-1,0,-6,-4,-1,-1,-8,-3
1558441891250971,2,-3,-5,2,11,18,11,4
1558441891256955,1,3,3,3,0,-3,4,0
1558441891256955,-2,-3,1,0,-4,-9,2,-1
1558441891273910,3,2,0,2,0,-10,-1,-1
1558441891273910,-3,-6,3,-3,-6,-3,-6,-2
1558441891274908,3,3,5,4,5,0,4,3
1558441891274908,-3,-4,-7,-6,2,8,6,0
1558441891286875,-1,0,-4,-2,-5,-4,-6,-3
1558441891286875,-1,-4,-6,-2,1,2,0,-1
1558441891295851,1,3,4,-2,3,-7,-2,1
1558441891295851,-1,-3,6,2,1,-2,-5,0
1558441891310816,0,-1,8,4,1,13,5,-1
1558441891310816,-5,-6,-16,-1,-9,-15,-8,-5
1558441891324776,1,0,-3,-8,-1,3,1,0
1558441891324776,-1,0,-3,2,9,16,1,1
1558441891333752,-2,0,4,6,9,8,8,3
1558441891333752,-1,2,2,-11,-9,-10,2,-2
1558441891334748,-2,-1,-7,-2,-2,1,-7,-5
1558441891334748,3,3,-2,0,-3,-8,-3,-1
1558441891356688,-3,-6,1,-1,-4,1,-4,-3
1558441891356688,-1,1,6,3,4,7,-4,2
1558441891357690,-2,-1,-3,-3,0,-14,-2,1
1558441891357690,1,0,6,-3,2,0,0,-1
1558441891370654,-3,-5,-11,-4,-7,-10,-1,-4
1558441891370654,-1,1,-4,-5,-7,2,-5,-3
1558441891377633,-2,-4,0,6,-7,-4,-12,-4
1558441891377633,0,-1,0,4,10,0,5,2
1558441891393596,0,1,10,4,3,9,2,1
1558441891393596,-3,-3,-8,-6,-4,-5,-5,0
1558441891395586,-3,0,-1,4,3,7,7,-1
1558441891395586,-2,-3,-6,-7,-16,-12,-8,-7
1558441891407559,1,0,2,3,3,-2,-2,-1
1558441891407559,0,0,-2,6,7,7,5,0
1558441891416532,0,-2,2,-3,-5,0,-6,-4
1558441891416532,-3,-5,-13,-5,-7,-11,-2,-2
1558441891430553,3,2,0,-4,3,6,4,4
1558441891430553,-1,-2,-1,-2,2,-6,1,-2
1558441891437511,-1,-2,-1,0,-3,-5,-1,-2
1558441891437511,-2,1,-1,-8,-6,-3,-4,-4
1558441891453447,-4,-3,-2,-1,-8,-4,-10,-4
1558441891453447,-3,-5,3,-1,-4,2,-4,-4
1558441891461412,1,2,-12,-6,3,-5,2,0
1558441891461412,1,-2,2,8,-4,-5,4,0
1558441891467403,-1,-1,-5,-4,11,12,9,5
1558441891467403,-2,-2,-2,-2,-3,-1,2,0
1558441891476378,-2,-1,6,1,-2,3,-2,-2
1558441891476378,-3,-3,-1,-2,-4,1,-2,-2
1558441891490567,0,-1,-9,-6,-9,-12,-1,-4
1558441891490567,-1,-1,0,7,4,4,6,3
1558441891498318,1,-1,5,-12,2,1,1,1
1558441891498318,-1,3,-7,-4,-3,-5,-4,3
1558441891513277,-1,-1,3,6,3,3,6,0
1558441891513277,1,1,-1,-4,3,4,3,-1
1558441891515266,0,-3,-4,1,-8,-13,-8,-4
1558441891515266,0,2,5,8,12,16,0,0
1558441891527235,-1,-2,-4,-16,-13,1,1,-2
1558441891527235,-1,1,5,5,-2,-19,-3,0
1558441891536210,-2,-4,-10,-6,-3,1,-1,-2
1558441891536210,-1,-1,0,-2,-1,4,-4,0
1558441891550174,-2,-1,4,13,6,-1,-1,-1
1558441891550174,1,-1,0,-15,-5,-1,-5,-3
1558441891566129,0,-1,-2,-1,-2,5,-6,-3
1558441891566129,-1,-1,-2,1,3,11,9,4
1558441891573142,-2,-2,-1,-2,1,-7,1,-1
1558441891573142,-1,0,3,4,-3,-4,-2,-1
1558441891580093,-2,-4,-2,0,-2,-4,6,1
1558441891580093,-2,-2,5,-1,-10,-5,-9,-6
1558441891587072,-1,-1,-6,-1,-1,-12,-6,0
1558441891587072,-1,-1,0,3,3,5,9,-1
1558441891596048,-1,-1,0,-3,-4,-1,-2,1
1558441891596048,-1,-3,-7,5,-2,-3,-4,-2
1558441891610050,-4,-2,-1,-2,-3,4,-2,-2
1558441891610050,0,0,-3,0,-2,-16,-5,2
1558441891619021,0,-2,3,-3,3,9,2,0
1558441891619021,-1,0,3,0,-1,-4,-3,-3
1558441891632957,0,-3,-2,-1,-4,-2,-7,-2
1558441891632957,-1,-1,-2,-2,0,4,-4,1
1558441891639993,1,1,6,9,5,-6,8,2
1558441891639993,1,-1,-9,-13,-10,-10,-1,-1
1558441891646918,-4,-4,1,-2,0,6,-4,-5
1558441891646918,3,3,5,8,2,-1,3,2
1558441891655934,-3,-3,-7,-8,-4,2,-5,-3
1558441891655934,-2,-3,-4,-5,-1,3,-4,-2
1558441891669958,1,-1,6,0,2,-11,3,1
1558441891669958,-1,1,-2,1,5,4,-1,-3
1558441891678830,-2,1,2,5,3,-2,1,-1
1558441891678830,1,-2,-4,-11,-5,-1,8,-3
1558441891692796,5,5,3,2,9,21,7,3
1558441891692796,-5,-4,-9,-6,-10,-7,-7,-7
1558441891699772,0,2,3,4,4,-8,-1,2
1558441891699772,-6,-3,3,4,2,0,-2,-1
1558441891707752,0,1,-1,-4,-7,-9,-6,-2
1558441891707752,1,-1,4,-1,0,4,1,-1
1558441891715756,-4,-5,-14,-13,-10,1,-1,-5
1558441891715756,-1,-1,7,6,5,-2,-1,1
1558441891729692,-1,-1,-9,-5,-2,-1,-4,-1
1558441891729692,-3,-1,7,4,-3,1,-4,-3
1558441891738675,-1,-1,-3,-3,-5,-8,-5,-1
1558441891738675,3,1,0,0,5,2,3,4
1558441891752629,0,0,1,-3,-7,-9,-2,-1
1558441891752629,2,0,-4,-3,-1,2,0,0
1558441891767589,0,0,4,8,1,3,6,0
1558441891767589,-2,1,-6,-1,5,5,2,0
1558441891776902,-1,2,-2,-1,2,-1,0,1
1558441891776902,-1,0,9,2,-1,-3,-2,-1
1558441891777565,1,1,-1,0,-5,-1,-6,-2
1558441891777565,-2,-5,-11,-20,-5,1,2,-2
1558441891790528,-2,-2,10,12,7,7,3,1
1558441891790528,-3,-2,-11,-7,-5,-4,-2,-2
1558441891798506,0,0,3,0,5,2,1,1
1558441891798506,0,-2,0,2,-2,-8,-4,-3
1558441891813736,0,0,-1,2,-1,-1,-1,-4
1558441891813736,1,-1,-2,-4,-2,0,-1,1
1558441891819803,-2,-1,1,-1,1,0,-2,-1
1558441891819803,-4,-3,-2,1,-2,-1,-2,-1
1558441891836759,-2,0,0,2,-3,-5,-5,-1
1558441891836759,0,-1,-7,-2,-3,-1,-1,-2
1558441891837404,-3,-2,-1,-1,-7,-1,-3,-1
1558441891837404,-1,0,-5,-1,4,5,3,1
1558441891859388,3,2,10,6,9,4,10,4
1558441891859388,-1,-5,-11,-9,-1,-3,1,-1
1558441891860345,-2,-3,1,-3,2,-1,-4,-5
1558441891860345,3,1,3,9,3,-1,5,1
1558441891873353,-3,-5,-8,-11,-14,-10,-12,-8
1558441891873353,-1,-2,1,4,-1,3,5,-2
1558441891880511,1,-1,1,4,4,-8,0,0
1558441891880511,0,-1,3,1,-3,-8,-8,-4
1558441891896545,-2,-2,-2,-5,-6,1,-5,-4
1558441891896545,-1,-2,-3,1,3,5,-5,0
1558441891897250,0,0,-2,-4,4,11,8,2
1558441891897250,-1,1,0,3,-1,3,-1,0
1558441891910433,0,-2,-6,1,-3,-9,-1,-1
1558441891910433,-1,-1,1,-3,-3,3,-5,-3
1558441891919195,-1,-4,-2,5,3,3,-3,-2
1558441891919195,-1,-1,0,0,1,-7,0,1
1558441891933153,0,0,2,-10,-5,-1,1,-1
1558441891933153,-2,-2,-4,6,-2,-2,-6,-3
1558441891940133,0,-4,-15,-15,-9,-11,-6,-1
1558441891940133,-2,0,8,3,3,1,0,-1
1558441891956086,0,-1,0,4,2,-4,1,1
1558441891956086,-1,-1,-1,-4,-4,-2,-4,-2
1558441891958082,0,1,5,10,6,6,2,-3
1558441891958082,-2,-1,-2,-13,-3,2,0,-2
1558441891970054,-1,1,-2,-1,-2,1,2,2
1558441891970054,-4,-4,-2,-3,-1,-1,1,-3
1558441891979054,1,-1,1,3,1,2,1,0
1558441891979054,2,3,2,-2,-4,0,2,4
1558441891993239,-2,-2,-4,-1,4,1,1,1
1558441891993239,0,0,-1,-5,3,2,10,3
1558441891999969,-2,0,1,-2,-5,-2,-5,-2
1558441891999969,-2,-3,-7,5,0,-1,-1,-3
1558441892016191,0,1,-1,4,1,-8,-4,0
1558441892016191,0,-1,2,0,-9,-11,-9,-4
1558441892017922,-1,-1,-6,-9,6,8,5,-1
1558441892017922,-2,-2,-1,-2,-3,0,-3,-2
1558441892030217,-2,-2,-5,2,-3,2,-6,-4
1558441892030217,-1,-2,-3,-1,-1,-7,-2,0
1558441892045114,-1,1,6,-2,-5,-7,-6,-2
1558441892045114,1,1,3,3,-1,4,-4,1
1558441892052831,-1,-2,-7,-6,3,7,4,1
1558441892052831,-3,-1,-3,1,-4,-22,-4,-1
1558441892076984,0,-1,2,2,-2,4,3,2
1558441892076984,-3,-2,-3,-1,-2,-9,-6,-2
1558441892077768,1,0,4,0,3,7,3,1
1558441892077768,1,3,9,3,6,18,6,3
1558441892078759,-4,-5,-14,-11,-16,-18,-6,-5
1558441892078759,-3,-1,-6,3,4,5,0,-1
1558441892089731,2,1,7,0,3,-6,2,3
1558441892089731,-2,-3,-3,6,2,3,-1,-1
1558441892098704,-1,2,7,6,3,5,3,2
1558441892098704,0,1,-2,-5,-5,1,-1,-2
1558441892113710,-2,0,-3,-1,-7,-4,-4,-3
1558441892113710,-2,-1,1,-3,5,1,0,0
1558441892120648,-2,0,-2,0,-8,-7,-4,-2
1558441892120648,-1,-1,3,5,6,12,2,-1
1558441892136822,-1,-1,-1,0,-2,-5,-4,-2
1558441892136822,-1,0,-1,-3,4,-5,5,2
1558441892137605,2,2,-2,-1,2,4,1,0
1558441892137605,-2,-4,-5,-4,-7,-13,-7,-3
1558441892149577,1,-3,-5,-6,-2,8,2,-2
1558441892149577,1,0,4,6,-3,-2,-5,-1
1558441892158548,-3,-4,-3,-7,0,-4,1,0
1558441892158548,0,0,5,1,0,2,1,1
1558441892173686,-3,-6,-13,-3,-3,-5,-7,-2
1558441892173686,-2,-2,-3,-5,-5,-2,4,-1
1558441892179489,0,2,3,2,2,1,-3,-2
1558441892179489,-1,-1,-1,-2,-3,-4,-4,-3
1558441892196696,-1,-2,1,1,0,-1,1,0
1558441892196696,0,1,1,1,0,8,1,1
1558441892197441,-2,1,-3,1,4,-3,1,0
1558441892197441,0,-4,0,2,0,-1,2,2
1558441892210544,1,-1,1,-3,1,-2,-1,-3
1558441892210544,-2,-5,-8,-10,-13,-10,-12,-4
1558441892218422,0,2,2,3,1,1,0,-2
1558441892218422,2,-2,5,2,0,-10,2,0
1558441892233346,-3,-2,-3,-7,-5,3,-3,-5
1558441892233346,-2,-1,-3,1,6,7,1,0
1558441892239329,1,-2,1,-3,-1,-12,-2,3
1558441892239329,-3,-1,-6,-3,-2,-2,-4,-3
1558441892256321,-4,-3,-4,-4,-9,-7,-9,-6
1558441892256321,-1,1,3,-5,-9,-2,2,-2
1558441892262266,-3,0,-4,-1,1,7,1,-3
1558441892262266,-3,-2,-8,-10,2,-8,4,0
1558441892269249,-1,-1,5,9,3,-3,-4,2
1558441892269249,-2,-4,-11,-6,-6,-3,-5,-3
1558441892278224,-1,-2,-2,-1,-5,-3,-5,-2
1558441892278224,-1,0,3,-1,0,11,4,0
1558441892293276,-2,-1,-1,-4,-2,-1,0,-2
1558441892293276,-1,-3,-5,-1,-2,-3,-6,-3
1558441892300509,-4,-2,2,-1,-8,-7,-10,-4
1558441892300509,-1,-2,0,5,7,2,6,0
1558441892315125,0,-1,-4,-11,1,5,5,1
1558441892315125,3,3,8,8,1,-8,2,1
1558441892324102,-2,-4,-10,-11,-2,-7,-3,-2
1558441892324102,-2,0,-7,-4,-9,-6,-6,-4
1558441892330557,-2,-2,3,7,4,9,4,1
1558441892330557,-3,-1,0,-7,-4,9,1,-2
1558441892339062,0,0,5,8,3,4,-6,0
1558441892339062,1,-1,0,-1,-8,-7,-7,1
1558441892353473,1,1,-8,-2,-1,-6,4,3
1558441892353473,0,-1,10,6,7,1,4,2
1558441892360450,0,-3,1,1,1,9,-1,-2
1558441892360450,1,2,4,1,-3,-2,-5,-3
1558441892376014,-1,-3,-4,1,4,1,5,1
1558441892376014,0,0,-6,-8,6,-3,1,4
1558441892377958,-3,-3,-1,-1,-1,-3,2,0
1558441892377958,-2,-5,-5,-6,-4,0,-8,-3
1558441892390309,-2,3,1,5,-5,-7,-5,-3
1558441892390309,-3,-5,-2,0,-4,1,-2,-4
1558441892398901,0,1,-4,-3,-3,-10,3,1
1558441892398901,2,5,5,0,2,6,3,0
1558441892413246,-1,-1,2,-2,0,-5,-2,-1
1558441892413246,0,-1,-6,-12,-4,8,-6,-2
1558441892419846,-2,-3,1,3,2,5,6,-2
1558441892419846,1,0,-3,2,5,-5,5,4
1558441892436153,2,2,5,2,5,5,2,1
1558441892436153,-2,-1,-1,-1,-7,-6,-4,-5
1558441892437797,1,-3,-3,-6,-5,-2,-4,-3
1558441892437797,-4,-2,-1,5,0,5,-1,-1
1558441892450032,-1,-3,-4,-16,-13,-6,-6,-1
1558441892450032,6,6,15,9,19,5,11,5
1558441892458745,-5,-5,-10,-1,-3,-5,0,-1
1558441892458745,1,-1,0,-7,-7,-3,8,1
1558441892472894,-2,-3,-2,0,-4,-8,-6,-3
1558441892472894,-4,-1,-2,2,2,6,-5,-2
1558441892487853,1,2,3,1,2,7,4,-1
1558441892487853,-4,-1,3,-2,-9,-11,-6,-4
1558441892496838,-1,-1,-3,-1,5,3,5,2
1558441892496838,0,-1,-6,-3,-4,-1,3,-2
1558441892497641,1,-1,2,1,1,-4,-5,-4
1558441892497641,-2,-4,-3,-5,2,15,-6,-1
1558441892510604,-3,-2,-3,-4,-8,-14,0,1
1558441892510604,-1,-2,0,2,-1,-10,-3,0
1558441892518714,-1,1,4,-1,7,15,4,3
1558441892518714,-1,-2,-5,-3,-4,-1,-8,-5
1558441892532555,1,0,6,6,2,7,-2,-3
1558441892532555,-1,-5,-8,-13,-9,-6,1,-1
1558441892539744,2,-1,-1,-1,-5,-16,-1,5
1558441892539744,-1,-1,0,0,1,-7,-2,0
1558441892563691,-3,0,3,5,3,11,-1,-2
1558441892563691,-4,-1,-6,0,-7,2,-5,-6
1558441892565462,-1,0,2,0,1,2,1,-1
1558441892565462,-1,1,2,7,14,10,8,5
1558441892569484,0,-3,-3,-2,-5,-1,-2,-3
1558441892569484,0,0,-5,-4,5,2,4,0
1558441892578425,-1,1,-3,-13,-8,-4,-6,-1
1558441892578425,-1,-1,3,0,-6,-5,-7,-4
1558441892591691,-1,-2,-2,2,3,7,4,-1
1558441892591691,2,4,4,6,5,2,0,5
1558441892599364,-4,-5,-6,-3,-8,-11,-5,-2
1558441892599364,-2,1,-1,-3,-1,-3,6,-2
1558441892615322,0,1,-3,1,2,1,-2,-2
1558441892615322,0,-1,9,3,-2,-1,-3,-4
1558441892622307,-1,-2,-12,-1,0,10,1,-3
1558441892622307,1,-1,-2,1,-3,-17,-7,0
1558441892630622,-1,-2,-2,-2,2,-3,-1,1
1558441892630622,-3,1,7,3,1,3,4,-3
1558441892638612,-2,-5,-7,0,-2,5,-4,-2
1558441892638612,-2,0,-1,-7,-4,2,-2,-2
1558441892661546,-1,1,-1,-6,-13,-20,-5,-1
1558441892661546,-4,-7,-8,-3,6,3,0,-4
1558441892662534,2,6,7,5,7,0,6,4
1558441892662534,-3,-1,-2,-4,-3,-6,-6,-3
1558441892676206,-1,-6,-5,-6,-5,1,-4,-4
1558441892676206,-1,-2,-2,0,-12,-8,-6,1
1558441892682602,2,0,4,3,2,-7,2,3
1558441892682602,2,-1,0,9,6,9,8,1
1558441892698559,0,1,-4,-4,5,4,-2,-2
1558441892698559,0,2,3,5,2,1,-1,-1
1558441892700553,-2,-5,-6,-5,-9,-5,-8,-2
1558441892700553,-1,-2,-2,-5,-2,8,-2,-1
1558441892713799,-2,3,0,5,1,5,3,-1
1558441892713799,-1,-2,-7,-7,0,-2,-2,0
1558441892719810,-1,3,7,1,-1,1,-3,-4
1558441892719810,1,-2,-1,-3,-10,-11,-6,-2
1558441892735465,-2,-2,-3,3,6,5,1,1
1558441892735465,4,0,0,-2,4,-2,11,6
1558441892743671,0,2,1,2,4,-5,-3,0
1558441892743671,-4,-6,-12,-9,-11,-10,-4,-5
1558441892758634,-1,-2,4,5,2,-1,-2,-3
1558441892758634,-1,0,-2,-3,-11,-10,-8,-1
1558441892760397,1,2,4,7,13,12,10,4
1558441892760397,1,4,9,1,6,-5,-3,0
1558441892773586,-3,-5,-6,-7,-8,-4,-6,-2
1558441892773586,-1,-3,-6,-5,-5,2,-1,-3
1558441892779516,-2,-3,-2,-4,-3,7,9,-2
1558441892779516,1,2,0,1,5,2,1,0
1558441892795537,1,2,6,3,-5,-6,-3,-1
1558441892795537,1,-1,-4,-3,3,1,-4,-1
1558441892802314,-2,-3,-2,0,-6,-2,-6,-4
1558441892802314,1,0,3,2,6,9,2,2
1558441892819365,0,-2,-7,-10,5,0,2,2
1558441892819365,-2,1,2,3,-8,-4,-7,-5
1558441892820239,1,1,4,-5,1,-11,8,1
1558441892820239,-1,-1,-5,2,-1,-2,4,-1
1558441892833199,-1,-2,-2,-3,0,4,-4,-1
1558441892833199,-4,-3,-4,4,1,4,-7,-4
1558441892840446,-2,-4,-1,-9,-10,-2,-14,-4
1558441892840446,-1,0,-6,0,-9,-10,2,0
1558441892856150,-1,-1,-3,-6,-2,-15,0,0
1558441892856150,1,-2,0,-1,0,-1,0,0
1558441892862420,-3,3,4,5,3,2,-1,0
1558441892862420,-1,-4,-4,-2,2,4,-1,-3
1558441892879372,-3,-1,-2,3,0,6,-2,-4
1558441892879372,-4,-3,-1,-3,-11,-11,-8,-6
1558441892880074,2,4,3,-1,1,-6,0,3
1558441892880074,-2,-5,-6,5,-1,-4,0,-3
1558441892893341,-2,-2,5,-12,-5,0,-4,-6
1558441892893341,-2,0,-6,-4,-1,1,-3,0
1558441892900338,1,-1,-4,-3,-5,-4,-3,0
1558441892900338,2,0,-2,-2,-1,-3,2,1
1558441892916256,1,1,3,10,6,14,3,0
1558441892916256,-2,-3,1,-5,-7,1,-5,-3
1558441892922708,2,1,1,4,8,8,4,2
1558441892922708,-2,-1,5,0,1,-8,-1,1
1558441892938950,-1,0,-4,-1,-4,-13,3,2
1558441892938950,-3,0,1,-1,10,15,8,0
1558441892940739,-4,-4,-7,0,-5,7,-3,-4
1558441892940739,-1,-3,-2,-2,0,7,-2,-2
1558441892953232,3,4,5,2,-1,-7,4,3
1558441892953232,-1,-4,-10,-6,-11,-15,-7,-2
1558441892960203,1,0,2,4,1,-6,0,0
1558441892960203,-2,-1,4,1,2,4,0,0
1558441892976126,0,2,0,-5,-4,1,-3,-1
1558441892976126,-1,-3,-2,-3,-2,-3,-1,-2
1558441892981897,-1,-5,-8,-6,-3,-4,-1,-1
1558441892981897,-1,-1,1,0,-1,-3,0,0
1558441892998849,-1,0,2,-4,-3,-6,-1,2
1558441892998849,1,1,2,7,4,-11,2,1
1558441892999846,0,-2,-1,-6,5,10,7,1
1558441892999846,-6,-6,-7,-8,-7,2,-7,-5
1558441893012840,-2,-1,-11,-1,-7,-4,-6,-4
1558441893012840,1,2,1,-3,1,-11,2,0
1558441893019826,0,-3,0,1,-1,7,-3,-2
1558441893019826,-1,-1,1,2,7,1,3,0
1558441893035750,-2,-3,0,-1,2,4,2,0
1558441893035750,-1,0,4,4,-2,-4,-3,1
1558441893043002,1,3,1,0,2,-7,-1,-1
1558441893043002,-1,1,-2,-5,-4,0,-3,-3
1558441893059041,-2,-2,-10,-4,-5,2,-5,-5
1558441893059041,-2,-5,-2,2,4,11,5,0
1558441893060750,-3,-2,2,3,-4,-7,-5,-2
1558441893060750,1,-1,1,-4,-7,0,-3,0
1558441893073729,3,1,3,5,4,-11,2,4
1558441893073729,-1,0,4,-5,1,-5,-2,-2
1558441893080049,-7,-8,-9,-4,-8,5,-3,-4
1558441893080049,-2,-5,-10,-10,-10,-5,-6,-4
1558441893096119,2,-1,5,10,8,-4,0,1
1558441893096119,5,6,1,-1,9,6,5,2
1558441893103081,-1,-1,1,2,0,-1,-1,0
1558441893103081,0,2,3,3,4,3,0,0
1558441893119047,-3,-3,-5,-6,-11,0,-6,-7
1558441893119047,-1,1,6,1,0,-3,0,1
1558441893119610,-5,-7,-16,-12,-7,-5,-4,-3
1558441893119610,-1,0,7,8,4,-9,1,0
1558441893133917,0,-2,-1,0,-1,0,2,3
1558441893133917,2,0,-3,0,-2,3,1,-2
1558441893139893,2,1,-1,-11,-5,-11,-5,-1
1558441893139893,-2,0,0,-1,-3,1,-3,-5
1558441893155767,-2,-7,0,-4,-2,5,-2,-2
1558441893155767,-4,-1,-6,-2,-11,-13,-11,0
1558441893162735,-2,0,-5,-7,6,-5,10,4
1558441893162735,1,2,-2,-1,-1,1,-1,-2
1558441893178684,0,3,7,3,5,-1,-1,1
1558441893178684,-1,-4,-11,-5,-8,5,-4,-6
1558441893180452,0,0,4,2,-6,-3,-6,-4
1558441893180452,-1,-1,3,3,11,6,7,3
1558441893192415,-3,-2,-4,0,0,1,2,-1
1558441893192415,0,-2,0,-1,-2,-2,-4,0
1558441893201395,-1,0,4,5,-5,-3,-6,-2
1558441893201395,-2,-1,2,-1,-1,4,0,-2
1558441893215391,-1,-4,-11,-6,-6,-3,1,-2
1558441893215391,-1,0,1,2,6,-1,10,0
1558441893222335,1,1,4,2,4,7,0,-4
1558441893222335,2,3,-2,-4,3,6,2,2
1558441893238350,-2,-1,7,7,-1,-9,-3,-2
1558441893238350,-1,-3,0,-2,-5,-4,-2,-2
1558441893240344,1,-1,-2,0,6,-2,9,3
1558441893240344,-2,-3,-7,-1,0,-2,-4,1
1558441893252634,1,-1,-2,-2,2,9,4,1
1558441893252634,0,0,3,-1,3,0,3,1
1558441893261291,-5,-3,2,2,-7,-3,-7,-7
1558441893261291,-1,-1,0,-1,-6,-8,-5,-2
1558441893276228,0,1,0,-8,1,2,0,0
1558441893276228,-4,-2,0,6,-4,0,-6,-3
1558441893282176,-1,0,-8,-1,2,5,0,-1
1558441893282176,0,-4,-2,-5,-5,-7,-3,-2
1558441893298133,0,-1,0,-2,-1,-4,1,1
1558441893298133,4,4,9,3,7,-3,1,2
1558441893300128,-4,-9,-21,-16,-7,1,-5,-3
1558441893300128,-1,-2,-1,-1,-9,-12,-3,-1
1558441893312153,-2,-3,-4,1,-4,-2,-3,-4
1558441893312153,-1,1,3,-5,-3,-1,1,1
1558441893321069,-1,-1,4,2,5,8,7,2
1558441893321069,-5,-3,-2,-1,0,13,3,0
1558441893335094,2,0,0,-1,-1,-3,-8,-1
1558441893335094,0,3,1,1,-1,-2,-1,2
1558441893342015,0,1,-2,-1,2,0,-2,-1
1558441893342015,-2,-2,-3,-2,-5,-2,3,0
1558441893359463,1,2,7,5,-1,-5,1,4
1558441893359463,-1,-3,-7,-3,9,12,3,2
1558441893361060,-2,-3,3,4,-1,-2,-2,-1
1558441893361060,-1,-1,-3,-1,-4,-3,-7,-5
1558441893373070,-8,-4,-7,-8,-7,-2,-7,-12
1558441893373070,2,1,7,7,4,3,2,1
1558441893380912,1,1,2,9,8,7,8,3
1558441893380912,2,2,-4,-14,-2,-7,3,5
1558441893394874,-11,-10,-7,-3,-13,-12,-10,-12
1558441893394874,-3,-3,-6,-3,-3,3,-3,-4
1558441893402177,-3,0,2,3,2,7,-2,-1
1558441893402177,-2,1,0,2,2,2,1,-2
1558441893419139,1,-1,-2,-1,3,6,1,2
1558441893419139,1,-1,-3,-1,-2,-10,-1,0
1558441893419806,0,1,6,5,-4,-3,-4,-2
1558441893419806,0,-3,3,-2,-4,-9,-5,-1
1558441893432775,5,4,-2,4,6,11,2,4
1558441893432775,-3,-3,-9,-7,-3,-4,0,-2
1558441893441096,3,4,9,5,7,-6,1,3
1558441893441096,-3,-1,3,4,4,1,1,-1
1558441893456024,0,2,-1,-6,-3,-2,-2,-1
1558441893456024,-6,-7,-11,-6,-13,-2,-10,-8
1558441893462910,1,-1,-2,-1,-3,-2,2,0
1558441893462910,-1,-3,1,1,-3,-3,-4,-3
1558441893478802,1,3,6,7,13,10,11,6
1558441893478802,1,0,0,-4,-1,-3,-2,0
1558441893484959,-4,-3,-1,-3,-6,-2,-3,-4
1558441893484959,-3,0,-6,0,1,4,-4,-3
1558441893492945,0,-4,-4,-14,-8,0,-5,-3
1558441893492945,2,1,5,3,4,1,3,2
1558441893507879,-1,-3,-4,1,-4,-17,-7,-1
1558441893507879,1,0,-2,-1,2,6,8,6
1558441893516157,-2,-1,-5,1,0,-5,-3,-1
1558441893516157,-4,-2,1,2,-1,6,1,-3
1558441893522920,0,0,5,-2,-2,-4,-2,-1
1558441893522920,-3,-5,-8,-3,-5,-5,-8,-5
1558441893538129,0,-1,1,4,7,5,4,4
1558441893538129,-2,-2,-3,-4,0,-4,3,2
1558441893545151,1,3,5,-1,-2,7,1,0
1558441893545151,-2,-3,-4,-3,0,1,0,0
1558441893552972,-3,-3,-4,-4,-9,-11,-4,-4
1558441893552972,-1,-2,-2,-1,-2,-5,-5,-2
1558441893561077,-1,1,-2,3,-3,-1,-3,-4
1558441893561077,-1,-2,1,-18,-2,4,-1,1
1558441893576035,0,2,4,10,3,-9,7,3
1558441893576035,-3,-6,-9,-10,-7,-4,-7,-6
1558441893581764,-2,-3,-8,-7,-2,6,-3,-3
1558441893581764,-1,-2,-2,6,-1,3,-2,-3
1558441893597719,-2,0,12,-1,-2,3,0,1
1558441893597719,3,2,-5,-3,1,-11,-1,2
1558441893604700,-1,-2,-4,-4,-7,-6,-5,-3
1558441893604700,2,1,4,4,2,5,1,0
1558441893612678,-2,-2,-4,-1,2,10,3,0
1558441893612678,-1,0,4,13,1,9,0,0
1558441893621655,-2,-4,-2,-9,3,7,1,1
1558441893621655,-1,0,-4,1,-3,-12,-2,-1
1558441893636038,2,-1,-1,-3,-6,-8,-7,-2
1558441893636038,0,2,-2,-10,3,-4,0,1
1558441893643101,1,0,-2,5,10,-8,7,4
1558441893643101,2,0,5,-2,1,5,-3,3
1558441893658426,-2,-3,-9,-4,-6,-4,-4,-6
1558441893658426,-1,-1,-3,-2,-5,-2,-9,-5
1558441893664516,-1,-1,1,-2,3,10,1,2
1558441893664516,-1,0,1,-4,-1,-11,2,-3
1558441893681473,-1,2,6,-1,-4,0,-4,-2
1558441893681473,-1,-1,-6,-2,-2,-5,-5,-1
1558441893682481,-4,-3,-5,1,-1,3,-4,-2
1558441893682481,0,-1,3,3,2,7,-2,0
1558441893695845,-2,-4,-1,6,2,0,0,-1
1558441893695845,0,0,3,0,3,4,5,-2
1558441893710564,0,-1,-1,-3,-5,-4,-5,-3
1558441893710564,-1,0,2,0,-3,1,0,-2
1558441893718375,0,1,-4,-4,0,-3,-3,0
1558441893718375,-2,-3,5,10,2,7,3,0
1558441893725532,-3,-2,0,-2,-6,-13,-5,-4
1558441893725532,-2,-2,-8,-1,-2,1,-1,-1
1558441893741622,0,-1,-6,-7,2,0,2,2
1558441893741622,-2,0,3,-2,-2,-13,-1,1
1558441893743306,-2,0,-1,2,1,6,0,0
1558441893743306,0,1,3,-4,-6,1,0,-2
1558441893756272,-2,-1,0,-2,2,1,-5,-1
1558441893756272,0,-2,-7,-1,-4,2,4,-1
1558441893762575,-3,-5,-1,-2,-3,-3,-7,-4
1558441893762575,-2,-4,-4,1,-4,-7,1,-3
1558441893778533,-1,0,3,1,5,1,4,0
1558441893778533,1,-2,4,3,2,3,-1,1
1558441893785511,2,2,-1,-3,-1,-4,-1,0
1558441893785511,-3,-1,-2,-1,-4,-4,-7,-1
1558441893801464,0,1,0,-4,0,-1,-2,1
1558441893801464,-3,-4,-3,-1,-3,-5,1,0
1558441893802151,0,-2,-10,-5,-4,1,2,-2
1558441893802151,0,4,1,4,6,5,3,0
1558441893815114,-1,-3,0,-7,-8,-9,1,2
1558441893815114,-1,2,0,-3,4,8,3,2
1558441893822406,0,0,3,0,-4,-5,-2,0
1558441893822406,-2,-3,-2,-2,-2,1,-4,-4
1558441893838371,-4,-4,-2,-7,-5,1,-3,-6
1558441893838371,-2,-2,5,10,2,3,-1,-1
1558441893845381,0,1,-1,-16,0,-4,1,1
1558441893845381,-1,-3,-13,2,0,0,4,3
1558441893861372,-2,1,-1,1,2,-3,0,-1
1558441893861372,0,-1,-4,-9,-8,-4,-9,-5
1558441893861990,0,-1,3,3,-4,1,-3,-2
1558441893861990,0,1,3,0,4,1,2,1
1558441893876292,-1,-1,-2,2,-2,4,-5,-3
1558441893876292,-4,-4,-5,-8,-7,-1,-3,-2
1558441893882932,-4,-3,-4,2,0,-11,-4,-3
1558441893882932,-1,0,-3,-5,2,3,5,3
1558441893897897,0,-1,-3,1,-3,-4,-1,-2
1558441893897897,0,2,8,5,4,-1,2,0
1558441893905192,-1,3,1,-1,-1,0,-3,-1
1558441893905192,-4,-5,-11,-7,-9,-7,-10,-5
1558441893920933,0,-2,-1,0,2,2,-1,-2
1558441893920933,-1,0,-3,-4,4,-1,-2,2
1558441893922827,0,-3,-1,-5,-6,2,3,-3
1558441893922827,1,0,7,9,-1,-10,-2,-3
1558441893936082,0,2,3,2,6,-7,5,5
1558441893936082,-3,-3,-6,-3,-4,7,4,-1
1558441893943037,-2,-3,-2,3,-1,6,0,0
1558441893943037,-1,1,0,1,4,7,-3,-2
1558441893966947,-1,-2,0,-1,-7,-5,0,-2
1558441893966947,0,1,2,-2,7,4,4,1
1558441893967708,-2,-1,-6,1,-3,-2,-5,0
1558441893967708,-4,-6,0,-4,-9,-3,-3,-5
1558441893980674,-1,-3,1,5,3,-6,-5,3
1558441893980674,1,1,-4,-4,5,-7,7,4
1558441893987218,1,2,5,4,-1,-8,-4,-4
1558441893987218,-1,-1,-1,1,10,12,4,2
1558441893996193,-3,-3,-5,-9,-8,-8,-8,-6
1558441893996193,1,0,2,-4,-5,1,1,-1
1558441894001924,2,0,5,5,9,14,3,1
1558441894001924,-2,-2,-4,-4,-1,-3,0,2
1558441894018208,0,1,3,1,-2,-4,-5,-4
1558441894018208,-1,-1,-2,1,-3,-4,-1,-3
1558441894025220,-3,-4,-6,-12,-6,-5,-4,-1
1558441894025220,0,0,1,-1,-1,6,-1,-1
1558441894040822,-1,1,1,1,2,8,7,0
1558441894040822,-1,-2,0,4,-1,-11,-2,-2
1558441894042818,1,2,1,-1,5,3,3,3
1558441894042818,-2,-3,3,2,-3,-14,-7,-3
1558441894055780,0,-1,2,2,6,4,5,1
1558441894055780,-2,-2,-5,-2,-6,-6,-5,-1
1558441894063216,-2,2,6,4,5,4,3,1
1558441894063216,0,-2,-7,-5,-3,-8,-2,-2
1558441894078210,-4,-4,-9,-5,-2,-5,-3,-2
1558441894078210,-1,0,-2,-6,-9,-5,-7,-3
1558441894085243,-2,-1,-4,-1,0,-6,-2,-1
1558441894085243,1,2,4,4,5,5,1,3
1558441894101837,2,1,-1,-4,1,8,3,2
1558441894101837,-1,-2,-4,-1,8,10,7,1
1558441894102656,-1,0,0,0,-4,-17,-2,-2
1558441894102656,-4,2,5,0,-7,-6,-5,-3
1558441894114625,-1,-3,-2,-5,2,7,5,0
1558441894114625,-2,0,-2,1,0,-12,-8,-1
1558441894123725,0,0,3,0,0,7,4,1
1558441894123725,-1,0,-5,-1,4,4,2,-1
1558441894137890,-3,-7,-6,-9,-11,-5,-2,-5
1558441894137890,-1,-1,4,0,-5,-2,-7,-3
1558441894144846,-1,-6,-7,-6,-7,-2,-2,-2
1558441894144846,-1,0,1,-1,2,6,2,0
1558441894161802,1,2,6,12,6,5,-1,-2
1558441894161802,-5,-3,-7,-14,-3,0,-1,-3
1558441894162497,1,1,-3,-4,-4,-12,-5,1
1558441894162497,1,-2,0,-4,1,7,11,0
1558441894175492,0,0,-3,1,2,-5,2,2
1558441894175492,0,-1,-1,1,2,2,-2,-3
1558441894183677,-4,3,-1,-2,0,11,-2,-2
1558441894183677,0,-3,-3,-7,-8,-11,-2,-4
1558441894198402,-1,-2,0,-6,-10,-12,-3,-1
1558441894198402,-1,-2,4,5,3,4,0,0
1558441894204383,-2,-1,0,-2,-2,-10,-3,0
1558441894204383,0,4,5,5,9,5,9,2
1558441894221337,-5,-3,-6,-3,-8,-1,-3,-4
1558441894221337,0,-1,-12,-5,-5,-3,-3,-3
1558441894223332,-4,-7,-4,3,-6,-1,-3,-2
1558441894223332,0,-3,2,-1,-7,-11,-11,-2
1558441894234303,1,2,0,0,8,6,-1,3
1558441894234303,0,-1,4,5,3,5,5,1
1558441894243740,-3,-1,0,-5,-3,0,-6,-3
1558441894243740,-3,-2,-6,-1,-4,-17,-6,-3
1558441894258605,1,2,-1,4,7,6,3,3
1558441894258605,-3,-2,-2,-7,-4,2,0,-1
1558441894264223,0,-1,0,2,3,2,-2,0
1558441894264223,0,3,4,-2,2,3,-3,0
1558441894281178,-2,-2,2,4,1,2,-1,-3
1558441894281178,-1,-1,-4,-2,-4,-6,-5,1
1558441894282213,1,-3,-5,-5,-5,-8,4,-3
1558441894282213,-2,-2,3,2,2,13,2,-2
1558441894294620,-1,-1,-5,-1,-1,-5,1,-2
1558441894294620,-1,-1,-5,-5,0,0,-3,-3
1558441894303594,-1,-1,4,2,-3,-5,1,-2
1558441894303594,-1,-2,-6,-8,-2,2,1,2
1558441894318597,0,-1,4,5,3,3,5,1
1558441894318597,0,3,5,3,3,3,1,0
1558441894324831,-2,-3,-4,-1,-4,0,-5,-4
1558441894324831,1,-4,-8,1,-1,-5,-3,-1
1558441894341790,0,1,-4,-5,1,5,-7,-2
1558441894341790,-3,-4,-2,-6,-1,2,2,-2
1558441894342491,1,1,0,2,2,8,5,1
1558441894342491,-1,0,5,5,-4,-12,-6,-3
1558441894354458,0,-1,-6,-5,-4,-10,3,2
1558441894354458,-1,0,9,5,-4,-7,-7,0
1558441894363433,-2,-3,-15,-13,-1,10,-1,-3
1558441894363433,-1,1,-1,4,2,7,3,1
1558441894377427,-1,-2,0,-5,-7,-21,-7,-1
1558441894377427,2,-1,3,5,4,1,0,0
1558441894384378,3,3,4,4,5,-4,6,5
1558441894384378,-3,-3,0,-1,2,8,1,-6
1558441894400335,-2,-4,-3,-4,-7,-10,-9,-3
1558441894400335,0,2,0,3,3,10,3,1
1558441894407316,-1,-4,-2,-5,1,-1,0,-3
1558441894407316,2,1,1,-1,0,1,2,2
1558441894414299,-4,-1,-7,-5,-5,4,-4,-5
1558441894414299,1,2,4,5,4,2,4,1
1558441894423732,-4,-8,-3,2,1,-8,-6,0
1558441894423732,-4,-3,1,-13,-7,-3,-6,-2
1558441894438236,-1,-4,-4,-3,-5,-8,1,1
1558441894438236,0,1,-7,-4,0,5,-4,-1
1558441894444218,-1,1,1,5,-1,3,3,-2
1558441894444218,-1,0,1,-3,1,-6,-4,-1
1558441894460234,-1,0,8,9,-1,1,-3,-1
1558441894460234,-1,1,0,3,4,-1,2,2
1558441894467217,2,2,-3,-4,5,4,6,3
1558441894467217,-1,-4,1,-2,-1,4,-2,-2
1558441894475315,1,1,1,0,-3,3,0,0
1558441894475315,3,-4,-7,-7,-3,-5,2,-2
1558441894484112,-10,-1,6,4,-2,0,-4,-4
1558441894484112,-3,-1,-8,-4,-5,-5,-4,-5
1558441894498073,2,0,-2,0,9,7,8,5
1558441894498073,-4,-2,-3,-3,-8,-7,-10,-8
1558441894505525,3,-2,2,0,-1,-2,-1,0
1558441894505525,1,0,-3,0,4,9,2,1
1558441894521332,-1,0,3,6,-5,-4,-7,-5
1558441894521332,-5,-4,1,-2,0,-2,11,1
1558441894527507,1,1,-5,-2,0,1,-3,-1
1558441894527507,-2,-2,-3,0,-1,1,-1,1
1558441894544295,0,-1,1,-6,3,8,0,-1
1558441894544295,-2,-4,-4,0,-11,-9,-11,-3
1558441894545953,1,-3,-2,-8,-5,-6,-4,0
1558441894545953,2,2,6,3,8,12,12,5
1558441894558234,-3,-5,-6,-7,-2,-6,-3,-4
1558441894558234,-1,1,6,0,0,0,-4,-3
1558441894564895,-1,-1,-8,-4,-8,-3,0,-2
1558441894564895,3,1,1,5,-3,-13,-5,-2
1558441894580854,0,0,-1,-2,-1,5,-2,-1
1558441894580854,-1,-3,-1,-3,4,2,8,7
1558441894587947,0,-3,-5,3,3,2,-3,-3
1558441894587947,-3,-3,-7,-11,-17,-7,-7,-2
1558441894603772,0,2,9,5,3,5,3,-1
1558441894603772,-2,-1,-8,-3,-2,-8,-1,-4
1558441894604512,-1,-3,-2,-7,-1,7,-4,-2
1558441894604512,1,-1,5,5,6,-10,3,5
1558441894618499,-1,0,1,5,0,-1,4,1
1558441894618499,1,-1,0,-3,-6,8,-1,-1
1558441894632432,-3,-3,1,-5,-6,-6,-7,-4
1558441894632432,-2,-4,-10,-2,-1,-2,-5,-3
1558441894640444,0,0,3,-2,2,3,3,-1
1558441894640444,-2,0,-7,-2,-8,-5,-4,-5
1558441894647394,0,-1,0,2,0,-6,2,1
1558441894647394,-1,1,0,-2,-3,-2,-2,1
1558441894663747,0,0,-4,1,1,5,0,1
1558441894663747,-1,0,2,5,5,-9,0,-1
1558441894665363,-3,-3,-2,-7,-3,-2,-2,-3
1558441894665363,-2,-3,-3,-2,-6,-3,-8,-3
1558441894678779,1,-1,3,-3,0,-4,2,-2
1558441894678779,-5,-6,-7,-4,-1,-6,0,-1
1558441894685655,1,3,5,4,3,6,5,4
1558441894685655,-2,-3,-3,0,-7,-7,-10,-8
1558441894700711,-4,-4,0,0,-3,0,-3,-1
1558441894700711,3,3,10,6,8,10,3,3
1558441894708139,0,-2,-9,-3,-2,-7,-5,-1
1558441894708139,-3,-3,-3,-2,-3,4,-2,-3
1558441894724078,0,0,-6,-2,0,-8,1,1
1558441894724078,1,-2,2,-3,-3,1,-4,-2
1558441894725970,4,1,2,3,0,1,-2,1
1558441894725970,-1,-1,1,0,3,0,5,1
1558441894737542,-3,-3,-8,-7,-4,4,-6,-7
1558441894737542,-3,-4,-4,-4,-6,-4,-5,-4
1558441894744523,1,3,9,9,8,-3,8,4
1558441894744523,-1,1,-2,-1,2,-19,3,1
1558441894760480,0,0,1,6,3,11,3,0
1558441894760480,-2,-2,-2,-9,-7,1,0,-3
1558441894767489,-2,-3,-4,-3,-4,-3,-6,-2
1558441894767489,1,0,4,0,1,5,6,1
1558441894783419,-2,-6,-9,-6,-5,-11,-9,-3
1558441894783419,0,0,-3,1,0,9,1,-1
1558441894785414,1,0,5,4,1,-3,3,1
1558441894785414,0,0,0,-10,0,-6,-4,-1
1558441894797383,-4,-2,-1,-2,-7,4,0,-3
1558441894797383,-3,-2,-7,-7,-8,-7,-5,-3
1558441894804721,-1,0,-1,0,1,-10,-1,-1
1558441894804721,1,1,-4,2,5,3,2,0
1558441894820695,1,2,4,1,2,3,-3,-2
1558441894820695,-1,-1,-2,0,-3,-3,2,-1
1558441894827694,-2,1,2,1,3,6,-3,-2
1558441894827694,-1,-3,-3,2,-1,3,-1,2
1558441894843436,-1,0,-3,-4,-8,-11,-5,-3
1558441894843436,-3,-2,0,-2,-1,-6,2,2
1558441894845255,-1,-1,2,-2,-1,2,5,1
1558441894845255,-4,-3,-3,-3,-12,-4,-9,-7
1558441894858221,3,2,1,-3,10,5,4,1
1558441894858221,-1,-2,-4,-1,-2,-3,-7,-2
1558441894864204,-3,-2,2,-3,-3,1,3,-2
1558441894864204,-3,-4,-5,4,5,9,4,0
1558441894880163,-2,-2,4,1,-8,-23,-7,-2
1558441894880163,1,3,5,0,5,-4,1,2
1558441894887144,-2,-4,-11,-7,-3,8,-4,0
1558441894887144,-3,-4,-4,-3,-1,3,0,-3
1558441894903337,-1,-3,0,1,3,4,0,0
1558441894903337,-1,-1,-1,-2,-7,-12,-9,-3
1558441894905095,1,7,8,6,2,5,1,-1
1558441894905095,-1,-1,-6,-7,-3,-3,1,0
1558441894918060,1,2,7,8,4,-7,2,3
1558441894918060,1,-3,-19,-17,-7,2,-2,-1
1558441894925297,-1,0,3,1,-5,-3,-2,-6
1558441894925297,-3,-1,4,6,2,0,-4,-3
1558441894940006,-1,-3,-9,-13,-9,-1,1,1
1558441894940006,0,4,7,6,7,-4,5,2
1558441894946983,0,-3,0,-3,-5,-14,-3,0
1558441894946983,2,1,6,7,11,11,4,2
1558441894963948,-1,-1,-1,0,2,4,0,-1
1558441894963948,-2,-3,-1,-2,-2,4,-4,-2
1558441894964935,-1,-2,-7,-2,-7,-7,-8,-4
1558441894964935,1,-1,-2,-3,1,2,3,1
1558441894977901,-1,0,0,3,0,5,3,2
1558441894977901,0,0,1,-2,4,-1,1,1
1558441894984880,1,-2,-2,-3,0,2,-2,0
1558441894984880,-1,1,5,1,-3,2,-2,-5
1558441894999843,-2,-2,-8,-4,0,3,0,-4
1558441894999843,-1,-1,3,5,-1,0,-2,-2
1558441895006990,0,-2,-3,-3,-3,4,1,-2
1558441895006990,1,0,-2,-2,0,-6,-2,-1
1558441895023778,-1,-1,-3,0,-3,-6,-2,2
1558441895023778,0,2,-1,-5,11,2,6,5
1558441895024776,-4,-1,8,4,-4,-8,-5,-2
1558441895024776,0,-1,-9,-10,-13,0,-9,-5
1558441895037741,1,-1,1,3,4,-6,0,-1
1558441895037741,-2,-5,-11,-2,-8,0,-2,-5
1558441895044723,-1,-3,1,5,0,0,0,1
1558441895044723,-2,3,5,2,6,11,7,3
1558441895060707,-1,-3,-1,1,4,-6,0,0
1558441895060707,-2,-1,-5,-5,-5,2,-5,-2
1558441895066663,-2,-3,-7,-9,-4,-2,-3,-4
1558441895066663,-4,-4,-3,5,-5,6,0,-2
1558441895083619,-2,0,-2,-2,-4,1,-3,-4
1558441895083619,4,1,9,13,7,1,5,3
1558441895084615,-1,-4,-11,-13,-9,-17,-9,-4
1558441895084615,0,4,7,7,13,6,2,1
1558441895097581,-3,-2,-10,-18,-15,-3,-2,-3
1558441895097581,-4,-3,0,5,-3,0,-6,-5
1558441895106682,-1,-1,-2,0,-1,-1,-3,0
1558441895106682,2,-2,4,-3,-4,-9,-5,1
1558441895120770,-1,1,-1,3,4,3,3,-1
1558441895120770,-1,-1,1,-3,-3,-2,-2,-1
1558441895127758,-3,-2,-5,-3,-1,10,2,-1
1558441895127758,-1,-1,-2,-2,1,-4,1,2
1558441895143458,-2,1,4,9,7,6,3,1
1558441895143458,0,-2,-2,-5,0,4,-1,-2
1558441895144455,-2,0,0,-7,7,6,9,3
1558441895144455,-1,1,-4,-2,-11,-9,-5,-2
1558441895157422,-2,-4,-11,-11,-8,-4,-5,-4
1558441895157422,0,2,6,12,7,-6,4,1
1558441895166397,0,0,4,1,3,0,-2,1
1558441895166397,0,-2,-4,-8,-6,-10,1,-2
1558441895180369,-2,-2,0,0,0,2,-2,-3
1558441895180369,-2,-2,0,2,-3,6,1,-3
1558441895187632,-1,-1,-5,0,-7,-7,-1,0
1558441895187632,-1,0,-1,1,4,-4,-1,1
1558441895203504,1,0,0,-1,-8,2,-9,-4
1558441895203504,1,0,-4,-5,5,3,6,5
1558441895205292,-1,-2,9,16,6,-3,2,-2
1558441895205292,-1,-3,-8,-22,-10,-2,-4,-2
1558441895217268,-1,-3,-1,6,2,-1,3,2
1558441895217268,0,2,-2,-6,-2,-2,-4,-3
1558441895226236,1,0,-4,-3,-2,-12,-1,-1
1558441895226236,-2,-2,1,4,2,4,1,-1
1558441895240199,2,1,2,0,2,3,1,2
1558441895240199,-1,-1,1,-1,-9,-21,-7,-1
1558441895247185,-4,-6,-5,1,0,14,-5,-3
1558441895247185,-4,-4,-8,-6,-7,-3,-1,-2
1558441895263137,1,2,6,0,7,-4,3,5
1558441895263137,1,-1,-3,2,-4,-3,0,1
1558441895265132,0,-1,-2,-3,4,6,1,-1
1558441895265132,-2,-2,0,2,-6,-2,-5,-4
1558441895277160,1,-1,-3,-2,1,3,-1,-2
1558441895277160,1,-1,3,2,8,13,8,2
1558441895286076,-1,0,-4,3,0,-3,3,-2
1558441895286076,0,0,3,-4,-7,-10,-6,-4
1558441895300047,-3,-6,-6,-5,-5,-6,-5,-2
1558441895300047,-4,-6,-5,0,-2,-1,-1,-3
1558441895307027,-1,0,0,-3,-2,-5,-2,-1
1558441895307027,0,2,3,5,4,3,3,1
1558441895323190,-2,1,0,-1,-3,-2,-6,-6
1558441895323190,-1,-1,3,1,0,8,-3,1
1558441895329964,0,3,-2,-1,4,-7,6,2
1558441895329964,0,-5,-6,-8,-3,-3,-6,0
1558441895336944,-1,-1,-2,-13,-7,-6,-4,-2
1558441895336944,-2,-3,2,2,-1,9,1,-3
1558441895353897,0,2,6,6,6,13,2,2
1558441895353897,-1,2,2,3,5,-1,3,3
1558441895360904,-3,-3,-4,0,-5,0,-10,-5
1558441895360904,0,1,-2,-4,-6,-2,-4,-1
1558441895374838,0,2,-1,0,4,-4,6,2
1558441895374838,-3,-2,-2,-2,3,-8,2,-2
1558441895382817,4,4,13,9,4,7,0,-2
1558441895382817,-6,-9,-16,-12,-16,-17,-8,-8
1558441895389799,0,-1,-2,-4,-5,-3,-4,-2
1558441895389799,1,-1,-3,4,7,15,3,1
1558441895396780,0,-1,5,6,3,-12,7,4
1558441895396780,0,1,1,-1,3,1,-3,0
1558441895405756,-4,-3,-9,-4,-10,-5,-8,-6
1558441895405756,0,-1,6,8,3,3,0,-2
1558441895420716,-1,1,-3,-5,7,8,9,3
1558441895420716,-1,2,-3,-2,-2,0,-1,-1
1558441895426701,-4,-4,-1,-5,-4,-2,-8,-2
1558441895426701,2,1,-3,-1,-2,-3,0,2
1558441895442656,-2,-4,-3,2,-2,-8,0,-1
1558441895442656,0,1,4,2,3,4,3,-1
1558441895449648,-1,0,0,-6,-5,0,0,-3
1558441895449648,-2,-3,-2,2,4,1,1,1
1558441895457622,0,-1,0,-2,4,-11,0,2
1558441895457622,0,0,-1,3,0,-3,-3,-1
1558441895465600,1,-3,-3,-10,-6,6,-2,-2
1558441895465600,-1,1,-3,-3,-10,2,-6,-4
1558441895480557,0,1,-1,2,1,4,2,1
1558441895480557,-3,-2,-2,-4,-2,-2,-4,-3
1558441895487537,-1,0,-2,1,0,-2,10,3
1558441895487537,-1,0,8,4,6,-2,4,-1
1558441895502497,-3,-3,-11,-14,-4,1,-2,-3
1558441895502497,-1,-3,4,1,1,3,-5,-3
1558441895509478,-1,-2,-5,-1,1,-5,-3,-3
1558441895509478,-1,-2,-5,0,-1,1,-1,0
1558441895526432,-3,-2,-3,-2,-13,-10,-8,-3
1558441895526432,1,1,-1,2,2,1,2,0
1558441895527432,1,-3,-2,-1,3,8,0,-2
1558441895527432,-2,-1,-1,-2,-4,-8,-5,-1
1558441895540402,0,0,7,10,13,8,4,2
1558441895540402,-1,0,2,1,-5,-21,-2,-1
1558441895547380,-2,-3,-7,-9,-9,-4,-4,-1
1558441895547380,-1,2,1,0,2,6,3,2
1558441895563339,-3,-3,-7,-5,-6,3,-3,-4
1558441895563339,-1,3,-1,4,5,8,1,2
1558441895569318,-2,-1,2,5,-6,-9,-9,-3
1558441895569318,-3,-6,-4,-7,-7,-6,0,-4
1558441895586272,2,2,4,0,2,0,0,1
1558441895586272,2,-1,-7,-1,3,-3,1,2
1558441895587272,1,1,-3,0,3,4,0,-2
1558441895587272,-4,-3,-8,-5,-8,-5,-3,-4
1558441895601231,-2,-2,5,3,-1,8,0,-2
1558441895601231,-3,-3,1,-3,-7,-5,-3,-4
1558441895607220,-3,-3,-2,-4,-7,-6,-5,-2
1558441895607220,1,0,4,6,12,-3,5,3
1558441895623174,-1,0,-6,4,8,4,6,3
1558441895623174,-3,-3,7,-8,-2,0,-2,-1
1558441895629256,-5,-7,-8,-3,-6,3,-7,-4
1558441895629256,1,0,-1,-1,-10,-9,-7,-4
1558441895646116,-1,-3,-2,-5,-3,-13,0,1
1558441895646116,-1,0,-3,1,1,2,-5,-2
1558441895647110,2,2,7,6,2,1,-2,0
1558441895647110,1,3,-1,-4,0,6,5,1
1558441895660077,-1,-3,-3,0,-4,-1,-4,-3
1558441895660077,-1,-1,-3,-1,3,11,2,1
1558441895667060,1,0,5,0,0,-10,3,3
1558441895667060,0,-3,-8,-1,-1,6,-2,-2
1558441895683014,0,2,3,0,-3,1,-1,0
1558441895683014,-1,-1,-3,-2,-4,-2,-3,-1
1558441895690203,-1,-2,-4,-3,-1,6,-4,-2
1558441895690203,0,-1,-1,-1,-1,-5,-3,1
1558441895705981,-1,0,1,-1,5,3,8,-1
1558441895705981,0,2,11,6,-1,-11,8,1
1558441895706950,2,1,-7,7,10,5,7,4
1558441895706950,0,-2,0,-13,-7,0,-3,-2
1558441895721938,-2,-4,-7,-1,-11,-3,-12,-6
1558441895721938,-3,-8,-8,-8,-7,-8,-7,-2
1558441895727128,-3,1,8,5,0,0,1,0
1558441895727128,-2,-1,-3,0,0,-2,-4,-4
1558441895742854,-3,1,0,-3,-3,1,1,-1
1558441895742854,-1,3,2,5,-2,-8,-5,-2
1558441895749837,0,-1,0,2,9,6,8,4
1558441895749837,-3,-2,-1,0,6,4,3,0
1558441895765792,1,0,-3,-2,-1,-1,-3,-1
1558441895765792,0,-2,-4,-5,0,-3,4,-3
1558441895771777,-2,-3,1,-6,-9,-7,-9,-5
1558441895771777,-2,-2,-1,-2,-7,-4,-6,-4
1558441895780754,-1,-3,-1,0,-1,-4,-2,-3
1558441895780754,3,1,3,3,9,9,5,5
1558441895786736,-1,1,3,-4,-3,-12,0,-1
1558441895786736,1,-2,2,4,7,-1,4,0
1558441895802694,-1,-2,-3,-7,-7,1,-5,-2
1558441895802694,1,1,1,2,1,7,1,2
1558441895809674,-2,-4,-3,3,-3,-8,-2,-2
1558441895809674,-2,-1,-2,0,-4,-5,-2,-2
1558441895825644,0,0,-3,0,1,3,-3,-4
1558441895825644,-1,0,0,-1,2,10,-2,-1
1558441895827628,-1,-1,-4,-8,-7,0,-5,-4
1558441895827628,3,0,2,7,6,-3,-1,2
1558441895840657,3,1,5,-2,1,-5,3,3
1558441895840657,0,-2,-5,-4,-5,-2,-1,-3
1558441895847576,0,-1,4,3,3,3,2,-1
1558441895847576,-1,1,5,2,-1,-2,-4,1
1558441895862534,-3,-3,-10,-14,-7,-3,-1,-2
1558441895862534,-5,-3,-3,-1,-5,-7,-5,-3
1558441895869515,-1,3,-1,0,8,11,4,1
1558441895869515,2,-1,1,-1,0,-1,4,2
1558441895885473,-2,-1,3,6,-3,-3,-4,-2
1558441895885473,-5,-4,-5,-8,-8,-7,-8,-3
1558441895887466,-2,-4,-5,-4,-7,-1,-10,-3
1558441895887466,1,5,13,5,7,1,10,5
1558441895900433,0,-2,-13,-1,1,-7,-5,2
1558441895900433,-3,-6,-8,-8,-9,-1,-1,-1
1558441895907414,0,-1,-5,-8,0,-6,0,0
1558441895907414,-5,-4,-4,-4,-8,1,-5,-4
1558441895922374,-2,-3,2,-2,-12,-13,-9,-4
1558441895922374,4,5,8,7,19,15,11,7
1558441895929354,0,1,1,3,2,3,8,2
1558441895929354,-1,-1,3,6,-2,-10,-6,-2
1558441895946312,-3,-2,-6,-12,-1,8,2,-3
1558441895946312,-3,-5,-5,-3,-4,-4,-6,-5
1558441895947307,0,-3,-2,3,0,0,4,4
1558441895947307,0,-1,2,-2,-1,-5,0,0
1558441895960276,1,4,13,15,13,13,4,1
1558441895960276,-1,2,-1,5,-3,-3,-3,-5
1558441895967254,-3,-5,-11,-18,-7,-8,-6,-4
1558441895967254,-1,0,-3,6,0,-1,-7,-2
1558441895983217,-2,-5,-1,-12,-2,-1,3,3
1558441895983217,-1,1,4,1,1,-11,-2,1
1558441895989220,-4,-3,-2,3,-5,2,-4,-3
1558441895989220,-2,-2,-3,-5,-1,2,4,0
1558441896006150,0,0,-2,2,2,3,3,0
1558441896006150,-2,-1,-5,-2,-8,3,-4,-3
1558441896007146,0,-1,6,1,-4,-14,-8,-3
1558441896007146,3,1,-3,-1,20,21,23,8
1558441896020118,1,2,4,5,0,-6,-3,1
1558441896020118,0,-3,-1,-4,-3,-4,-1,2
1558441896028091,3,4,2,4,1,1,-1,2
1558441896028091,-4,-6,-7,-4,-12,-2,-9,-6
1558441896043051,-1,-4,-7,-13,-6,2,-3,-2
1558441896043051,0,0,-1,2,1,2,0,-3
1558441896050033,-3,0,4,-4,-11,-3,-5,-4
1558441896050033,-1,-1,-1,2,3,-16,-7,0
1558441896073969,3,-1,-3,2,5,2,6,3
1558441896073969,-2,-3,-1,-4,2,4,0,-1
1558441896074973,-2,-3,-4,1,3,7,1,0
1558441896074973,-4,-1,-5,-11,-13,1,-7,-6
1558441896079953,-3,-3,7,11,-1,-4,-4,-2
1558441896079953,1,2,-2,-2,6,-7,7,2
1558441896088928,1,1,3,2,0,-3,-3,-1
1558441896088928,0,0,-6,-6,-9,1,-6,-5
1558441896102890,-2,-1,0,1,-3,-1,1,-2
1558441896102890,5,3,15,13,13,2,9,6
1558441896109872,-4,-6,-16,-15,-4,0,4,1
1558441896109872,-2,-1,-3,-4,-7,-15,-6,-1
1558441896125829,0,-1,-6,-1,-3,2,-2,-4
1558441896125829,0,0,0,2,-1,6,-4,-2
1558441896127825,-3,-2,6,-5,-3,-1,-2,-3
1558441896127825,-2,-1,2,-3,-1,3,-9,-4
1558441896139792,-2,-4,-5,1,-4,6,2,0
1558441896139792,0,1,-5,-9,-1,-8,-2,-2
1558441896148768,-1,3,3,8,4,-1,-3,-2
1558441896148768,-1,-2,-6,-3,-7,-9,-4,0
1558441896162736,0,3,4,4,3,1,-1,-3
1558441896162736,-3,-5,-5,-3,-5,-3,-2,-2
1558441896169713,5,3,2,5,6,0,6,4
1558441896169713,-5,-4,-2,-5,2,11,5,1
1558441896185675,-2,-1,1,4,-6,-9,-8,-3
1558441896185675,-3,-5,-5,-4,-11,-7,-9,-5
1558441896187663,-1,-2,-4,-8,-7,3,-2,-2
1558441896187663,2,3,6,7,5,3,6,0
1558441896208613,-1,-1,-1,-4,1,-3,5,1
1558441896208613,-1,0,-2,-4,3,-4,-4,1
1558441896209605,-2,-4,9,7,-1,-5,-10,-4
1558441896209605,2,0,-8,-2,5,6,-4,0
1558441896222574,-1,1,4,-3,0,6,6,1
1558441896222574,-1,-3,-9,0,-3,3,3,-3
1558441896229553,-2,-2,1,-1,6,6,-1,-1
1558441896229553,0,-1,4,7,-5,-19,-4,-1
