timestamp,emg1,emg2,emg3,emg4,emg5,emg6,emg7,emg8
1558441903858860,-3,-4,9,3,-3,-5,-6,-3
1558441903858860,-1,-1,2,-2,-2,3,1,0
1558441903859857,-1,-2,0,5,0,6,1,-2
1558441903859857,-2,0,0,-2,-8,-8,-6,-4
1558441903860855,-2,-2,-7,-11,-8,-7,-2,-2
1558441903860855,2,3,3,4,11,12,9,3
1558441903860855,1,-1,1,-1,1,5,0,2
1558441903860855,-1,-2,-2,3,3,7,3,-3
1558441903873821,0,-1,-2,-2,-7,-21,-7,-2
1558441903873821,-2,-1,-8,-2,-4,-4,-5,-1
1558441903880801,2,2,1,2,2,0,2,1
1558441903880801,0,-3,-3,-2,2,8,-2,-1
1558441903887784,-3,-3,-3,-2,2,4,1,-1
1558441903887784,0,2,2,-1,1,-5,-1,-1
1558441903902742,0,-2,0,-2,-1,-1,0,-2
1558441903902742,-2,-1,1,-1,-3,-6,-1,-3
1558441903909723,0,1,-3,-3,-1,0,-1,-1
1558441903909723,-4,-3,-3,-2,-6,-7,-2,-2
1558441903917703,-3,1,-1,4,1,-3,-3,-1
1558441903917703,1,1,-7,-16,-2,0,-2,2
1558441903933659,-1,-1,3,7,4,0,0,1
1558441903933659,-3,-2,-5,-10,-10,2,-6,-5
1558441903939643,-3,-3,-4,-4,-7,-3,-4,-4
1558441903939643,1,4,6,8,13,-4,3,8
1558441903986523,-1,-4,-2,-6,-1,0,-2,-4
1558441903986523,-2,-2,-5,0,-2,1,-3,-3
1558441903986523,-1,-4,-3,-4,-8,-4,-3,-2
1558441903986523,-1,0,-3,1,1,6,0,-2
1558441903987515,1,1,5,3,8,18,5,2
1558441903987515,-1,-2,2,5,-2,-10,-5,-1
1558441903988512,-1,-1,-10,-6,2,-1,1,3
1558441903988512,0,1,-2,-4,-1,-5,-1,-1
1558441904000480,0,0,-10,-3,-8,-10,-7,-4
1558441904000480,-1,-4,8,7,6,10,1,2
1558441904007461,-1,1,5,-1,-8,-4,-4,-3
1558441904007461,-1,-3,3,1,-1,-5,-2,-1
1558441904014443,1,3,1,2,11,0,11,3
1558441904014443,-3,-1,-2,-6,-10,-5,-4,-4
1558441904030403,-1,-2,6,2,3,3,-2,0
1558441904030403,-1,-3,-10,-10,-6,0,-5,-1
1558441904036384,1,2,1,-9,-8,-5,-7,-1
1558441904036384,-6,-7,1,9,12,10,10,-1
1558441904044362,-3,-3,-2,-6,-2,0,0,-2
1558441904044362,-1,-1,3,5,1,7,1,-1
1558441904059323,-1,0,-3,-7,-2,3,3,1
1558441904059323,-3,-3,-10,-10,-9,-7,-13,-3
1558441904067303,1,0,-3,3,3,-2,1,-1
1558441904067303,0,-3,6,2,-1,-13,-5,-2
1558441904074283,-4,-2,2,7,0,9,2,-1
1558441904074283,4,2,5,-2,-3,-2,6,3
1558441904090240,-2,0,-8,-7,-4,-3,-1,-3
1558441904090240,-1,-2,-10,-7,-8,-1,-2,-1
1558441904097222,1,2,4,8,10,5,3,3
1558441904097222,-1,1,-2,0,-1,-11,2,1
1558441904104205,1,-1,0,9,5,9,-3,-1
1558441904104205,-1,0,-3,-3,-4,4,2,-3
1558441904119163,-4,-4,-2,-7,-10,-9,-11,-2
1558441904119163,-1,-3,-3,-6,-1,-4,1,-3
1558441904127142,0,1,4,4,3,0,-8,-1
1558441904127142,-5,-6,-3,0,3,8,3,-1
1558441904134124,0,0,-4,-4,-5,-15,-2,-1
1558441904134124,1,4,8,0,1,9,2,1
1558441904150080,-2,-4,-9,-6,-6,-7,-2,-4
1558441904150080,2,4,7,10,2,0,-3,0
1558441904157062,-5,-9,-18,-19,-10,-1,-2,-4
1558441904157062,2,2,0,-2,-6,-11,-1,4
1558441904164059,-1,1,8,2,2,4,2,-4
1558441904164059,-4,-1,-4,-4,-4,2,-4,-5
1558441904179002,2,-2,5,7,3,-3,-1,1
1558441904179002,4,6,-7,-5,5,5,-1,0
1558441904187978,-4,-4,2,0,-8,-6,-1,2
1558441904187978,0,-8,4,3,9,4,6,8
1558441904193963,-5,-2,0,1,-7,-13,-10,-10
1558441904193963,-1,-4,-3,1,4,11,3,0
1558441904209920,2,4,-2,-1,3,10,3,0
1558441904209920,1,4,2,2,0,-5,0,2
1558441904216902,-2,-3,-1,0,-4,-5,-7,-3
1558441904216902,0,-1,-2,-6,0,7,-3,-1
1558441904223884,1,-3,-4,-5,-6,-21,-1,-1
1558441904223884,2,7,4,1,2,1,-1,-2
1558441904238845,-3,-7,-8,4,6,9,7,0
1558441904238845,-4,-2,-2,1,2,1,-4,-2
1558441904247821,-5,-1,0,-4,-5,4,-4,-4
1558441904247821,-5,-4,-1,-4,-5,-15,-6,-4
1558441904254803,3,1,2,-1,3,1,1,4
1558441904254803,0,0,-2,-3,-4,-4,-3,-6
1558441904269789,-1,0,4,4,1,-2,-1,3
1558441904269789,3,6,-4,-7,1,6,2,-6
1558441904276753,5,12,5,0,1,4,-1,1
1558441904276753,-4,-14,-5,0,-11,3,0,0
1558441904284725,2,8,-8,-3,-2,-4,-8,-1
1558441904284725,-9,-11,-7,-5,-2,1,1,-3
1558441904299682,-13,-20,0,3,3,-5,5,-1
1558441904299682,2,3,1,0,11,5,3,2
1558441904307659,0,-4,5,5,-2,3,4,-3
1558441904307659,4,8,-3,-3,-5,-4,-9,1
1558441904314646,1,6,2,1,-8,-11,-4,-3
1558441904314646,-2,0,0,-3,-1,-3,1,0
1558441904329603,1,2,-2,-3,7,14,2,-1
1558441904329603,-2,-2,0,5,-3,-3,-3,-1
1558441904336583,3,2,1,-1,-5,0,1,0
1558441904336583,-3,2,-2,-1,-5,-14,-7,-4
1558441904344561,-2,-8,-15,-10,-4,2,-4,1
1558441904344561,4,0,8,4,8,-12,7,5
1558441904359520,0,2,-5,-10,-4,5,3,-1
1558441904359520,-5,0,7,9,1,3,-2,-8
1558441904366502,-1,-3,-6,-14,-1,-2,-1,-3
1558441904366502,-3,-2,1,-3,-6,-4,-3,-4
1558441904375477,-3,-1,13,9,4,-3,-2,1
1558441904375477,1,0,-12,-8,-3,-9,-1,2
1558441904390437,-5,-5,1,8,-1,3,1,-2
1558441904390437,0,1,-4,-3,-1,3,-2,6
1558441904396424,-1,1,-1,1,0,0,-3,-10
1558441904396424,1,1,-1,-5,4,9,5,0
1558441904404403,0,-2,5,4,2,-6,-4,-1
1558441904404403,0,-1,-3,-3,-6,-1,0,0
1558441904419362,0,-1,-5,9,0,-5,-5,0
1558441904419362,-2,0,4,2,1,7,3,2
1558441904426345,0,-1,-5,-7,-8,-9,-3,-2
1558441904426345,1,-1,2,-3,4,-3,6,3
1558441904435318,-2,-5,-11,-10,-6,5,-3,-2
1558441904435318,-2,-2,5,4,0,-5,-5,-2
1558441904450280,0,0,4,-1,-1,-1,-3,0
1558441904450280,-2,-2,-7,-2,-5,-8,-4,1
1558441904457258,-2,0,-3,-15,-3,-9,-1,-3
1558441904457258,1,1,-2,-3,-2,3,1,2
1558441904464242,-1,0,-1,5,6,8,8,-2
1558441904464242,-3,-4,2,0,-8,0,-6,-5
1558441904479200,-3,-4,-10,-5,-2,4,-2,0
1558441904479200,-2,-2,1,-3,-1,0,0,-2
1558441904487180,2,3,3,-2,-3,-5,-3,2
1558441904487180,-4,-3,-9,-5,-2,6,-1,-5
1558441904496154,-2,-7,-8,-2,-4,-8,-4,-1
1558441904496154,-1,-2,-3,0,-1,-4,-1,-2
1558441904510117,1,1,7,4,2,-3,-1,-3
1558441904510117,0,-1,-7,0,7,9,-1,2
1558441904517099,0,2,0,-9,-3,-6,-9,-1
1558441904517099,2,1,-3,-1,1,2,-3,0
1558441904524080,-1,1,-2,-6,-1,0,6,1
1558441904524080,-4,-3,7,9,-4,-6,-5,-9
1558441904539043,-1,1,2,3,12,23,10,4
1558441904539043,1,-2,-4,-3,2,-3,-2,0
1558441904547020,-4,-9,-2,0,-3,-6,0,0
1558441904547020,3,2,-6,-3,1,3,5,-1
1558441904556022,-1,-1,4,-2,1,2,-5,-2
1558441904556022,-2,1,-1,-1,-4,-4,-5,-2
1558441904569958,-2,1,-8,-7,-13,-12,-3,1
1558441904569958,-4,-4,2,-1,2,1,1,-2
1558441904576940,7,6,14,14,19,29,12,7
1558441904576940,-1,-2,-10,-6,-5,-5,2,0
1558441904592898,2,2,-3,3,4,-6,-1,-1
1558441904592898,-2,0,-1,-7,-8,-5,-4,-4
1558441904598880,-2,1,2,-1,-5,-5,-3,0
1558441904598880,-5,-10,-3,-2,-1,-6,-6,-2
1558441904606859,-1,-1,1,8,4,13,2,-1
1558441904606859,-2,0,0,-1,1,-5,-2,2
1558441904615835,-2,-4,0,7,-2,-6,-2,-4
1558441904615835,-3,-1,-3,-12,-10,0,4,-2
1558441904629798,-4,-10,-4,-7,-5,-5,-6,-6
1558441904629798,1,1,2,2,-5,-3,-3,1
1558441904636780,4,5,1,4,8,0,4,2
1558441904636780,1,4,-2,-6,-8,-11,-3,1
1558441904652736,-3,1,-3,3,4,3,2,2
1558441904652736,-3,-6,-4,-9,-6,5,-3,-3
1558441904659717,-2,-1,3,1,-10,-7,-8,-3
1558441904659717,0,2,-2,4,4,2,-3,-4
1558441904666701,1,-1,5,8,7,9,2,5
1558441904666701,5,9,8,0,6,-2,4,-1
1558441904675675,-5,-11,-14,-6,-5,-9,-4,-4
1558441904675675,-11,-8,4,0,-2,-5,-4,0
1558441904689637,0,0,-2,-5,-6,-8,-8,-2
1558441904689637,1,5,1,-6,1,2,3,1
1558441904696619,4,4,-2,-6,-1,-15,-1,1
1558441904696619,1,-3,-9,2,-2,8,-3,-1
1558441904713573,-5,-4,1,-5,-5,-2,-6,-5
1558441904713573,-3,-9,-5,6,2,-2,-7,-3
1558441904719558,-2,-1,0,-2,-4,5,-3,-2
1558441904719558,3,6,10,5,1,-1,0,-2
1558441904726539,-1,1,-6,-6,0,1,8,-1
1558441904726539,3,3,1,2,3,0,1,2
1558441904735514,3,4,-1,1,2,0,4,2
1558441904735514,-2,-4,4,10,-1,-2,-2,-2
1558441904750474,-2,-1,-19,-21,-10,0,-5,-4
1558441904750474,-4,-7,2,-2,-10,-3,-11,-4
1558441904756459,-2,-5,-10,-5,-5,-13,-1,-2
1558441904756459,2,4,12,-2,9,17,10,2
1558441904772428,1,1,-1,4,4,5,4,-1
1558441904772428,0,1,-5,0,3,3,2,2
1558441904779399,-1,-1,3,-1,-1,-10,-1,3
1558441904779399,0,-2,-6,-7,-6,-2,-6,-3
1558441904787376,-3,0,5,3,-1,0,-3,-4
1558441904787376,-3,1,1,0,4,-2,2,1
1558441904795355,-6,-11,-2,0,-4,3,-2,-6
1558441904795355,-1,1,-8,-6,-7,-13,-7,-2
1558441904810314,5,1,5,3,7,7,1,7
1558441904810314,-4,-2,4,0,-5,7,-2,-6
1558441904817295,2,4,3,4,0,-7,3,7
1558441904817295,0,-2,-4,-5,-4,0,-3,-1
1558441904832255,1,2,8,9,8,1,0,2
1558441904832255,-1,-1,-15,-5,-1,3,-2,-3
1558441904839237,-5,-7,-3,-14,-10,-8,-3,-1
1558441904839237,1,5,-4,1,10,8,1,1
1558441904847216,1,3,9,7,-9,-16,-2,-2
1558441904847216,-1,-4,-8,-8,-4,-1,-2,-1
1558441904862176,0,-3,-9,-6,0,10,5,2
1558441904862176,-8,-11,5,10,0,-6,-8,-2
1558441904870154,-3,-3,-1,0,1,-2,5,-6
1558441904870154,0,2,0,-5,-7,-13,-1,-1
1558441904877136,3,8,0,-2,0,8,-2,-2
1558441904877136,3,-3,3,2,1,-4,3,4
1558441904893093,-2,-3,-1,-1,1,-1,2,2
1558441904893093,-1,-3,-2,-1,-5,-10,-3,-2
1558441904901074,1,5,5,5,3,-2,-3,-2
1558441904901074,-3,-4,-3,-5,-2,2,2,1
1558441904907056,-2,-1,1,-1,-1,3,-3,-9
1558441904907056,-2,-4,-12,-6,-6,-2,-7,-2
1558441904922016,1,-1,5,1,-2,1,-1,-1
1558441904922016,0,1,-1,2,-1,6,-6,-6
1558441904929994,-4,-1,5,5,0,-3,-3,6
1558441904929994,2,2,0,0,4,-7,-2,0
1558441904936976,-2,-1,0,0,6,16,7,-2
1558441904936976,1,1,3,3,1,-7,-2,0
1558441904952932,0,-8,-12,-12,-10,-20,-1,4
1558441904952932,2,1,0,1,5,12,5,3
1558441904958917,-5,-4,1,8,-4,2,-10,-8
1558441904958917,0,-1,3,-2,5,-2,10,-1
1558441904974873,1,1,-7,-9,-5,4,0,4
1558441904974873,5,8,11,15,6,-3,-2,-1
1558441904981856,2,9,-7,-12,-6,-6,0,-2
1558441904981856,-17,-27,-11,-13,-10,2,-4,-6
1558441904988837,-7,-10,-6,0,-8,-3,-9,-8
1558441904988837,-2,-2,-4,-8,5,-4,-2,0
1558441904997822,3,3,8,6,2,5,2,-1
1558441904997822,10,16,1,-4,1,1,2,1
1558441905012774,0,0,-3,-6,6,5,-6,-4
1558441905012774,-13,-12,-5,-6,-10,2,1,-3
1558441905018760,-4,-11,-5,1,-3,-18,-7,-3
1558441905018760,0,-1,-2,2,0,-11,2,2
1558441905034713,2,0,0,-3,-5,4,0,0
1558441905034713,4,4,7,8,0,-3,7,7
1558441905041696,-2,-2,-10,-11,-2,6,-2,-4
1558441905041696,1,3,6,0,-6,7,-2,0
1558441905057652,1,0,-13,-3,-6,-17,-9,0
1558441905057652,0,0,9,-1,11,18,10,0
1558441905059648,-2,-3,-1,-4,0,-6,-2,3
1558441905059648,-3,-4,-12,-4,-7,-5,-3,-4
1558441905072612,1,3,4,3,0,-4,-4,-2
1558441905072612,-6,-4,-2,-7,-8,-2,-8,-5
1558441905079594,-5,-6,-5,2,-3,-9,-2,-1
1558441905079594,0,6,4,1,6,1,-1,-9
1558441905094555,0,0,1,0,0,-1,2,2
1558441905094555,-2,-4,-6,0,0,2,-2,-3
1558441905101535,3,1,1,-2,-2,-1,-4,3
1558441905101535,1,0,7,4,-1,-4,0,0
1558441905118492,-2,-3,-3,-5,-4,5,-4,-5
1558441905118492,2,-1,4,4,4,1,2,7
1558441905119487,0,3,3,5,11,6,10,1
1558441905119487,-3,-4,-2,-1,-5,-2,-5,-1
1558441905132453,-2,-1,0,-3,3,10,9,-1
1558441905132453,-1,-1,-1,3,1,-1,-4,-3
1558441905139435,-4,-3,-1,-3,1,-7,-3,-4
1558441905139435,2,2,-5,-1,-1,10,2,9
1558441905155392,-3,0,5,-3,-2,-12,-4,-4
1558441905155392,-2,-1,-2,2,0,-7,-4,-4
1558441905161375,-1,-1,-2,1,1,10,4,0
1558441905161375,-1,1,-1,-7,-3,-2,-3,-1
1558441905178330,-1,-1,-2,3,3,11,3,5
1558441905178330,-1,-2,-3,-8,-12,-11,-3,-1
1558441905179331,-4,-2,-4,-10,-9,-4,-7,-2
1558441905179331,0,1,-8,-1,6,-4,5,2
1558441905192295,-2,-3,9,5,7,4,0,0
1558441905192295,-2,2,3,0,1,0,-2,-3
1558441905199278,0,-3,-6,0,-5,0,1,1
1558441905199278,0,0,-4,-5,-5,-7,5,-3
1558441905215237,-5,-3,0,2,-2,0,-3,-6
1558441905215237,-5,-9,-6,-2,0,-3,-10,-5
1558441905222212,-1,1,6,9,-3,-2,1,2
1558441905222212,1,5,8,2,7,-1,2,4
1558441905238171,0,-1,-6,-5,-1,-5,1,1
1558441905238171,-1,-2,-7,-4,-7,11,0,3
1558441905239169,1,1,-2,-5,-5,-6,-5,-10
1558441905239169,2,-1,3,8,0,-6,-1,1
1558441905252132,3,4,4,-1,7,0,3,2
1558441905252132,-3,0,0,1,3,14,6,0
1558441905259113,-3,-2,1,1,-3,-8,-6,-3
1558441905259113,-3,-4,-11,-11,-7,-9,-5,-2
1558441905275072,-1,0,1,4,2,3,-3,-1
1558441905275072,2,2,6,-3,0,3,1,-2
1558441905282053,1,0,-9,-6,1,3,-9,2
1558441905282053,-6,-8,-6,-11,-20,-15,-9,-9
1558441905298011,2,0,4,5,15,12,10,4
1558441905298011,2,2,9,4,4,-7,2,2
1558441905300005,-4,-4,-7,0,-3,-2,-2,-2
1558441905300005,-6,-3,-1,-8,-4,4,-1,-4
1558441905312970,-2,-1,2,3,-8,-4,2,0
1558441905312970,-2,-6,0,3,3,2,-2,-7
1558441905318953,2,0,0,-4,-3,-5,4,3
1558441905318953,0,-1,-4,0,-3,5,-5,-1
1558441905334910,-1,2,-2,-4,6,8,10,5
1558441905334910,-2,-3,-2,-2,0,-10,-2,1
1558441905341891,-1,-1,-4,-7,4,13,3,0
1558441905341891,-1,-1,-4,-3,-5,-3,-7,-3
1558441905357850,-2,2,7,1,-7,2,1,-2
1558441905357850,0,-1,-9,-3,0,-6,12,7
1558441905359845,1,3,4,10,6,-4,3,2
1558441905359845,-1,-2,0,-4,-3,-5,1,1
1558441905372848,1,0,-2,-3,1,-1,-6,-2
1558441905372848,-6,-7,-14,-5,-14,-7,-10,-4
1558441905386801,0,2,10,-3,-2,1,2,-4
1558441905386801,1,0,1,4,7,2,6,-1
1558441905394750,-1,0,0,1,7,0,-3,-1
1558441905394750,-1,-2,-6,-6,-4,6,-8,-2
1558441905401733,1,-1,0,-3,-6,0,2,1
1558441905401733,-1,-3,-2,-6,-4,-3,-6,0
1558441905417690,-2,-3,-4,-6,-2,-4,-2,-1
1558441905417690,2,2,0,2,4,0,3,1
1558441905419684,-5,-4,1,-7,-12,-10,-7,-3
1558441905419684,-3,2,3,0,1,10,-8,-5
1558441905432683,-4,-3,-10,1,-6,-4,2,-6
1558441905432683,3,4,3,-3,6,-5,2,4
1558441905439683,-1,-1,-4,1,-4,-6,6,1
1558441905439683,-2,-1,4,7,10,8,2,0
1558441905454625,0,-3,3,1,-7,-3,-10,-1
1558441905454625,-2,0,-3,-3,-6,-5,-2,-3
1558441905461610,-2,1,6,0,1,1,-3,-1
1558441905461610,1,-4,-7,6,8,0,5,3
1558441905478526,-2,-2,2,-1,-7,-1,-3,-10
1558441905478526,-2,-2,-10,-8,2,10,5,0
1558441905479525,-3,-3,1,-3,-5,-19,-13,-4
1558441905479525,0,3,2,6,-1,-4,0,3
1558441905492489,0,1,0,1,7,8,7,5
1558441905492489,0,-1,4,2,-2,-7,-5,-1
1558441905499472,-2,-1,-2,-4,-3,-4,-6,-4
1558441905499472,-1,0,-3,1,-5,-2,3,-2
1558441905515428,-3,-3,2,3,0,-7,-9,0
1558441905515428,-2,1,-2,-1,0,5,2,1
1558441905521413,-1,-2,-6,-9,-3,3,-1,-2
1558441905521413,1,-3,4,5,-4,-15,-7,0
1558441905538366,-4,-2,-5,-15,-10,-8,-1,-2
1558441905538366,-1,-1,-8,-6,-2,-1,2,-2
1558441905539363,1,2,2,9,4,7,0,-1
1558441905539363,3,1,1,-5,2,4,1,2
1558441905552329,-1,-4,-6,-6,-9,-2,-3,-5
1558441905552329,0,0,2,1,-5,-8,-6,-4
1558441905560347,3,1,-2,0,1,2,7,3
1558441905560347,-4,-4,-2,-1,2,5,-1,-4
1558441905575268,-1,-1,-7,-3,0,-2,-5,-4
1558441905575268,-4,-4,2,-2,-7,-5,-7,-5
1558441905589257,-1,-2,-3,-1,4,0,-1,1
1558441905589257,1,1,-1,7,6,1,11,6
1558441905598241,0,3,10,1,7,2,2,-2
1558441905598241,0,1,-1,1,-4,-2,-8,-5
1558441905599238,0,3,0,7,4,10,1,-3
1558441905599238,1,5,0,-5,-1,8,0,0
1558441905612169,4,3,-4,-4,-3,-3,1,5
1558441905612169,-3,-5,-8,-2,-2,-8,-3,-2
1558441905621144,-6,-6,12,10,7,10,6,-3
1558441905621144,0,1,-4,-7,-7,-11,-6,-1
1558441905635109,4,6,-1,1,-6,-5,-4,-3
1558441905635109,1,0,3,-4,3,3,6,2
1558441905642130,-10,-21,-8,0,-4,-7,-12,-3
1558441905642130,-1,2,0,1,-5,2,-1,-4
1558441905658047,0,-4,-3,-9,0,0,3,0
1558441905658047,3,6,6,7,3,1,2,3
1558441905660042,6,9,-3,1,4,-11,0,3
1558441905660042,-6,-10,2,-7,-3,4,-5,-4
1558441905672043,-6,-5,-5,4,-6,-10,-6,-5
1558441905672043,3,5,-2,-8,2,8,3,0
1558441905680985,0,-5,-1,-4,5,-6,4,2
1558441905680985,4,5,-2,-1,2,-6,-1,5
1558441905694947,0,4,11,15,6,4,0,-1
1558441905694947,-11,-18,-15,-14,-13,4,-9,-11
1558441905701929,-2,0,-2,-4,-7,2,-4,-2
1558441905701929,2,2,-5,2,0,-8,2,-4
1558441905717888,-2,-3,9,6,4,3,2,3
1558441905717888,3,6,7,4,2,-9,6,4
1558441905719881,0,1,-9,-1,0,9,-1,-1
1558441905719881,-4,-3,2,0,-6,-2,-9,-5
1558441905731848,-4,-1,-10,-10,-10,-7,-5,-4
1558441905731848,6,9,2,2,1,2,0,-1
1558441905740825,-5,-10,1,-4,-2,-3,-5,-3
1558441905740825,-5,-7,-5,-5,3,4,2,1
1558441905754787,-2,-5,-8,-4,-6,-16,-6,1
1558441905754787,2,1,0,3,-2,-4,1,3
1558441905761768,4,13,15,2,13,16,9,2
1558441905761768,-2,-5,-19,-12,-11,-8,-4,-2
1558441905777725,-2,-4,-6,-9,-5,-1,0,0
1558441905777725,2,0,7,7,7,-1,8,2
1558441905779722,-5,-3,2,4,-2,-12,0,-1
1558441905779722,5,4,-1,-3,2,10,1,4
1558441905791688,-3,-4,2,4,-1,7,-6,-3
1558441905791688,-8,-5,-4,-4,-9,-9,-16,-18
1558441905806731,6,10,-2,-6,-4,-3,-3,-1
1558441905806731,-7,-14,6,6,4,-2,-4,-2
1558441905814628,1,0,-4,-2,5,3,5,4
1558441905814628,-10,-12,0,3,5,-3,-2,2
1558441905821983,-1,0,-9,-8,-6,3,-1,-1
1558441905821983,5,10,4,2,0,-1,1,1
1558441905838165,3,5,-5,-8,-6,-10,-6,1
1558441905838165,-2,-3,7,16,0,3,-1,1
1558441905845125,2,2,1,-2,2,4,1,1
1558441905845125,-1,1,1,0,-4,-3,-4,-1
1558441905852243,1,-5,-4,-7,-1,2,6,4
1558441905852243,2,3,7,2,-1,-2,0,-4
1558441905861024,1,-2,-8,2,-1,2,0,2
1558441905861024,-2,-2,5,6,3,5,2,2
1558441905875287,0,2,4,14,4,0,-4,-2
1558441905875287,2,4,-20,-31,-8,-2,-3,-1
1558441905882271,-8,-7,3,8,-3,-1,-5,-4
1558441905882271,-3,-4,-7,-12,3,4,1,-2
1558441905896923,-7,-12,1,-2,-1,-3,4,-4
1558441905896923,4,2,12,11,12,8,14,10
1558441905905900,0,-3,-15,-5,-4,-8,-3,1
1558441905905900,2,8,0,-7,-5,-8,-16,-10
1558441905911883,4,7,1,3,0,3,-1,0
1558441905911883,-4,-6,1,5,5,12,3,-4
1558441905920859,-8,-7,-4,-8,-3,8,3,0
1558441905920859,-4,-5,-8,3,-5,-9,-6,-8
1558441905934878,2,2,-1,-7,-4,-8,-2,1
1558441905934878,5,9,5,5,-2,-4,0,4
1558441905941829,8,10,1,-1,3,-1,0,1
1558441905941829,-10,-14,-9,-7,-13,1,0,-1
1558441905957760,-7,-8,-1,7,8,9,-3,-10
1558441905957760,-2,-3,-8,-5,-3,-9,-2,6
1558441905964756,-1,0,8,8,4,-1,0,-4
1558441905964756,4,6,6,7,5,4,2,-3
1558441905980698,-4,-7,-11,-20,-9,-7,-1,-4
1558441905980698,-1,0,-4,-10,-4,0,-3,3
1558441905981697,2,0,0,-2,-5,0,3,-2
1558441905981697,-2,3,10,11,9,-1,4,7
1558441906003636,-3,0,-1,6,2,-1,-2,-5
1558441906003636,-2,-3,1,2,-3,-11,-6,-7
1558441906004633,6,6,-1,0,5,7,-4,5
1558441906004633,2,1,0,-5,-3,3,11,7
1558441906017599,-12,-19,-9,-4,-3,3,-11,-10
1558441906017599,2,0,5,6,-3,-6,2,-1
1558441906024580,-2,-5,-14,-22,-8,-9,5,-8
1558441906024580,-3,-3,0,0,0,-10,-4,-2
1558441906040539,7,10,5,4,-1,-1,-3,7
1558441906040539,-2,-1,-5,-1,-1,10,-2,3
1558441906042534,-3,-7,-1,2,-6,-4,-6,-5
1558441906042534,3,5,5,2,-1,-11,8,-3
1558441906054502,2,-3,1,0,4,6,10,4
1558441906054502,-4,-4,-2,-7,-8,4,-4,-5
1558441906061482,-1,-2,-9,-5,-2,-1,-4,-2
1558441906061482,5,4,1,1,2,3,0,3
1558441906077439,-1,6,-2,-9,-3,-5,4,1
1558441906077439,2,-2,0,3,5,-2,-1,1
1558441906091402,-1,-4,2,2,5,6,3,5
1558441906091402,-6,-4,-5,-6,-6,1,-2,-8
1558441906100416,-1,4,1,1,-2,-7,4,4
1558441906100416,3,-1,-8,-9,-10,-10,-7,-7
1558441906102372,-6,-3,11,8,-2,-12,-5,5
1558441906102372,-1,8,2,4,8,15,-2,-2
1558441906115337,-1,-6,3,-1,2,-2,4,1
1558441906115337,-6,-6,-5,-3,-6,-5,-10,-6
1558441906121351,1,-3,0,3,-4,-8,-6,-8
1558441906121351,0,0,-1,5,0,-5,-3,-8
1558441906137279,3,5,-1,2,2,2,4,6
1558441906137279,-3,1,6,6,1,0,0,-3
1558441906144303,-3,-2,-5,-7,-6,-1,-2,-3
1558441906144303,2,5,0,-2,2,4,0,-6
1558441906160268,-2,-6,-5,-4,-12,-7,-21,-4
1558441906160268,-1,-5,-1,2,1,2,15,2
1558441906162214,1,3,-1,-6,2,-4,1,5
1558441906162214,-1,-4,0,-3,-7,-7,-5,0
1558441906175177,-2,-1,-13,-4,0,8,2,-1
1558441906175177,-4,-2,11,3,5,2,-9,-2
1558441906182189,-1,3,2,8,5,-6,4,-1
1558441906182189,1,-1,-8,-6,0,-4,2,2
1558441906197167,-1,1,7,-3,-2,6,-4,-3
1558441906197167,0,0,-12,-11,-5,-9,-3,3
1558441906204100,-5,-6,0,7,-1,4,5,-7
1558441906204100,-2,-2,2,-2,2,2,-2,-1
1558441906221054,0,-1,0,1,-1,-3,-10,-5
1558441906221054,0,1,-2,0,-4,-2,-1,3
1558441906222052,2,3,9,8,12,0,9,9
1558441906222052,0,-5,-9,-10,-5,0,1,0
1558441906235512,-5,0,10,14,0,-1,-7,-14
1558441906235512,0,-1,-7,-11,-12,-6,5,6
1558441906242499,-4,-2,-3,-12,-13,0,-13,-6
1558441906242499,0,0,7,11,6,0,7,6
1558441906257957,4,2,-4,-1,4,1,8,7
1558441906257957,-1,-2,-6,-1,-3,-1,-12,-9
1558441906263940,-1,-3,7,13,4,9,-1,-1
1558441906263940,-4,-4,-11,-13,-7,-13,-5,-12
1558441906280931,0,1,0,2,1,-1,2,0
1558441906280931,1,3,6,8,1,0,-5,-1
1558441906281894,-3,1,-15,-12,-9,1,-3,-1
1558441906281894,-3,-3,0,-3,0,6,-4,1
1558441906294859,-2,-3,-11,-8,-7,-8,2,2
1558441906294859,-1,1,12,12,15,0,6,-1
1558441906301840,0,-3,-2,-5,-2,-4,-6,-1
1558441906301840,-4,-3,3,4,0,5,3,-1
1558441906317806,-1,1,3,13,1,9,5,-2
1558441906317806,-5,-5,-12,-30,-11,-7,2,2
1558441906325137,4,7,0,1,12,4,7,3
1558441906325137,-2,-6,3,2,-6,0,-11,-11
1558441906341110,-1,-2,5,3,6,13,-1,2
1558441906341110,0,0,1,12,3,-3,6,-3
1558441906342828,-2,-3,-8,-21,-12,-6,-7,-3
1558441906342828,2,1,1,-1,-7,-9,-2,3
1558441906355808,-1,0,4,0,1,-8,-4,1
1558441906355808,-2,-3,-3,5,7,16,0,-2
1558441906362054,-1,1,0,-1,3,2,2,-5
1558441906362054,0,2,13,5,5,1,2,5
1558441906377996,-2,-5,-19,-11,-12,-4,-1,-1
1558441906377996,-2,-2,-7,-11,-9,-6,-10,-6
1558441906384805,-1,2,-3,1,5,-5,8,2
1558441906384805,-5,-4,2,13,-8,-10,-3,1
1558441906400764,1,-2,-8,-16,1,2,4,2
1558441906400764,1,2,9,11,3,-2,2,-3
1558441906402573,2,-2,3,12,-1,6,-1,0
1558441906402573,0,-4,-5,-9,1,-4,-6,-3
1558441906423807,-1,2,4,1,0,-1,3,8
1558441906423807,0,-4,-5,-2,-7,-2,-11,-1
1558441906424515,-4,-3,-2,-1,-5,-11,-5,-6
1558441906424515,2,1,-6,-7,5,8,8,2
1558441906437481,-1,-2,6,12,3,-3,-6,-5
1558441906437481,0,-1,-8,-13,-3,9,-3,-1
1558441906444766,3,3,11,14,-4,-7,0,2
1558441906444766,-2,-1,-8,-9,4,-6,2,1
1558441906461455,-3,-3,-17,-9,-3,-1,-4,-4
1558441906461455,-4,-11,1,0,-1,-7,2,2
1558441906462411,-2,-1,-3,-4,-4,-9,-9,-3
1558441906462411,-1,-3,-5,-1,-7,1,-3,0
1558441906483770,1,5,8,-1,-2,-11,-3,0
1558441906483770,0,1,-1,-3,4,9,12,4
1558441906484497,-3,-1,-2,0,2,3,3,-5
1558441906484497,0,-1,-5,-7,-7,-8,-3,-1
1558441906498458,0,0,5,0,2,3,1,4
1558441906498458,-1,1,-2,3,1,-9,-7,-1
1558441906504722,-6,-7,-8,-3,-9,-8,-2,-1
1558441906504722,-3,-3,4,-1,-3,6,-13,-7
1558441906519433,-3,-3,7,6,2,9,8,1
1558441906519433,3,3,0,6,10,-2,11,8
1558441906520397,2,3,-3,-4,5,7,2,-1
1558441906520397,-5,-5,-4,-8,-15,-14,-9,-6
1558441906542599,-1,-1,3,5,6,4,1,-2
1558441906542599,3,3,5,0,0,2,-4,4
1558441906543339,-4,-6,-15,-2,-12,-4,-4,-10
1558441906543339,4,3,2,5,-1,-6,-1,7
1558441906558299,-3,-6,-10,-14,-2,-7,-4,-2
1558441906558299,-2,-3,-1,1,3,0,-1,-10
1558441906564320,-2,-3,-4,-12,-9,8,-4,0
1558441906564320,2,3,15,12,9,5,8,2
1558441906580273,-1,-1,-6,-7,-5,-13,-4,-2
1558441906580273,-3,-1,-3,2,-1,7,0,-8
1558441906580273,0,-2,1,4,-1,5,-6,0
1558441906580273,0,4,-6,-6,5,5,3,-2
1558441906602217,0,3,-1,-4,-5,-3,-1,0
1558441906602217,-1,-5,1,4,6,4,5,3
1558441906603175,-1,-2,-1,-12,-3,-14,2,2
1558441906603175,-2,-2,0,2,6,11,2,1
1558441906618136,1,2,1,3,-3,-2,-1,-4
1558441906618136,-1,0,-13,-14,-14,-5,-10,2
1558441906625158,1,1,5,5,-1,5,-4,-4
1558441906625158,1,1,-5,-1,6,-4,4,3
1558441906641422,-5,-8,3,0,-3,3,2,-8
1558441906641422,-1,-3,-2,4,4,-12,1,2
1558441906642075,-3,-2,-4,-5,0,2,-2,2
1558441906642075,-4,-3,1,2,-10,-3,-7,-7
1558441906662202,0,3,-1,-1,4,-1,6,1
1558441906662202,-2,2,12,8,3,-1,-8,-6
1558441906663017,-4,-6,1,-4,-7,2,-5,-3
1558441906663017,-3,-5,-13,-2,3,11,3,0
1558441906678976,1,0,-4,-1,0,-12,-4,0
1558441906678976,1,-2,-5,-6,-4,-10,3,-1
1558441906683960,1,0,3,3,4,-4,-1,5
1558441906683960,-1,-2,5,7,3,2,-3,-8
1558441906700682,1,1,-4,-5,-4,4,-8,-3
1558441906700682,-5,0,-4,-8,-6,6,16,1
1558441906700682,1,4,6,13,5,-4,0,-2
1558441906700682,-4,-2,-5,-8,-8,-10,-4,3
1558441906722344,3,1,-5,-3,3,-4,4,0
1558441906722344,-1,-1,1,2,0,4,-10,-2
1558441906723340,0,-1,-1,-2,2,7,6,2
1558441906723340,-2,2,9,5,8,4,6,-2
1558441906738301,-1,-2,-1,5,-1,4,-7,-5
1558441906738301,-6,-8,-7,-9,-15,-7,-10,-6
1558441906744728,2,0,-10,-17,1,-19,0,3
1558441906744728,0,2,2,7,2,3,0,1
1558441906759743,-1,2,3,2,1,5,-4,1
1558441906759743,1,3,-2,0,-1,5,4,-1
1558441906767720,-1,-4,3,11,5,14,5,4
1558441906767720,1,-1,-6,-13,-7,-9,8,2
1558441906783180,-2,-4,4,2,-3,-2,-5,4
1558441906783180,-4,-3,-6,-6,-9,-2,-2,-13
1558441906783180,-4,4,3,3,6,6,-2,-2
1558441906783180,0,-3,-3,3,2,2,0,4
1558441906806418,0,1,9,1,8,2,-4,2
1558441906806418,-1,-4,-11,-2,-4,-4,-1,2
1558441906807117,-1,0,-5,-9,-10,-9,-2,-2
1558441906807117,-3,-1,1,0,-4,1,-4,0
1558441906819150,1,0,-3,-2,-2,-3,1,-3
1558441906819150,0,0,6,-1,2,-3,-8,-1
1558441906827137,0,0,2,0,-1,-4,-1,-1
1558441906827137,3,0,-1,-3,2,0,-2,0
1558441906842091,-1,-1,-8,-7,-5,-5,-2,2
1558441906842091,-2,0,10,9,7,9,5,-4
1558441906843020,-1,-5,-14,-4,-5,3,0,0
1558441906843020,1,0,3,-2,0,0,-6,-5
1558441906857981,-7,-12,-7,6,-5,-24,-5,-2
1558441906857981,2,1,2,-3,6,7,1,2
1558441906864703,0,0,-1,-4,-5,-1,-5,3
1558441906864703,-2,0,2,1,4,10,8,-1
1558441906879669,-1,2,-1,-3,-2,-1,1,-4
1558441906879669,-2,-3,-2,1,-1,-1,-7,-4
1558441906886678,-1,-1,7,7,1,-2,0,-2
1558441906886678,-2,-3,-10,-10,-14,-14,-14,-4
1558441906902636,-2,0,-3,-8,-8,-5,-10,-6
1558441906902636,-2,3,3,4,13,7,21,5
1558441906903604,-1,1,4,-2,3,-1,-1,-2
1558441906903604,-3,-3,0,8,-2,1,-2,-2
1558441906918594,-2,-3,-3,-5,-8,-1,-8,-2
1558441906918594,-1,-1,-8,-14,-7,-7,-8,-8
1558441906924558,1,1,1,7,4,4,0,-1
1558441906924558,-1,-5,-4,-6,0,-7,1,4
1558441906939507,1,3,3,3,1,1,9,3
1558441906939507,0,0,-2,-3,-2,2,-6,1
1558441906946488,-6,-5,3,-4,-7,-5,-5,-2
1558441906946488,-1,0,0,-7,-8,-8,-3,-5
1558441906962488,1,-1,-11,-2,6,12,1,0
1558441906962488,4,3,3,12,5,-5,-1,6
1558441906963445,-1,-2,-9,-9,-3,-1,3,0
1558441906963445,0,0,4,3,-3,2,-4,-2
1558441906978403,-1,-1,5,-5,4,5,3,3
1558441906978403,1,0,-2,1,1,-17,-5,3
1558441906984387,0,-2,1,1,4,7,1,0
1558441906984387,-1,1,-6,4,2,5,2,1
1558441906999540,0,-2,-3,-2,1,4,0,-1
1558441906999540,-6,-4,0,-2,-14,-10,-7,-8
1558441907007364,2,1,11,8,3,-2,-2,-3
1558441907007364,1,4,-5,-6,-4,-1,0,0
1558441907022473,1,-4,-7,0,-1,-2,6,0
1558441907022473,3,2,5,4,4,9,4,7
1558441907023283,0,1,-2,2,1,-9,-4,-3
1558441907023283,-2,-3,-1,-3,1,7,5,3
1558441907038243,-1,-1,3,2,-3,-2,2,0
1558441907038243,1,-1,-1,-1,2,6,-2,-1
1558441907044228,-2,1,2,0,-7,-3,-2,-4
1558441907044228,-1,-4,-3,-3,-4,-7,-4,-5
1558441907059303,-5,-5,-1,-7,-6,0,-2,-7
1558441907059303,2,2,-2,-2,10,17,9,3
1558441907067275,-1,-2,-1,-1,0,-3,5,7
1558441907067275,-1,-1,-2,3,8,-5,3,-3
1558441907082236,-2,3,1,-7,-8,-2,-9,0
1558441907082236,-3,-4,-2,-4,-7,-11,-4,-2
1558441907083122,-2,-4,-11,-11,-3,2,-3,-2
1558441907083122,0,-4,-1,1,-3,-1,-8,-2
1558441907098085,2,3,0,5,-1,-3,-1,-1
1558441907098085,-4,-2,7,-2,-3,2,4,-4
1558441907104108,2,1,-7,2,6,-10,3,3
1558441907104108,-3,-3,6,4,3,0,2,0
1558441907119028,-3,-4,2,4,11,9,2,-3
1558441907119028,-4,-3,-10,-8,-11,-3,-11,-1
1558441907127008,-2,-3,-3,-1,-4,5,1,-4
1558441907127008,4,2,-2,-6,-2,-12,-1,1
1558441907141966,0,2,5,4,5,4,2,1
1558441907141966,-2,-3,-1,-1,-4,-4,-6,-6
1558441907142962,-1,-2,3,1,-8,-2,-10,-6
1558441907142962,-2,-1,-9,-14,-10,-6,-11,-3
1558441907158037,-1,-1,4,-4,3,-1,9,7
1558441907158037,0,2,7,13,17,12,16,1
1558441907164903,-3,-4,-10,-10,2,1,1,-1
1558441907164903,-4,-1,3,-5,-4,2,-3,-2
1558441907178869,-1,-6,-10,-2,-11,-6,-8,-4
1558441907178869,0,2,0,-5,-6,-4,-3,-1
1558441907186967,2,3,4,3,-3,4,-4,-2
1558441907186967,-4,-4,-2,0,-5,-3,4,-1
1558441907202936,1,2,4,0,9,-5,5,1
1558441907202936,3,0,-2,-1,3,-3,-1,1
1558441907202936,3,-1,-2,1,0,1,1,4
1558441907202936,-4,-6,-6,-3,-4,-2,-1,-4
1558441907217885,-1,-2,4,1,-9,-9,-14,-9
1558441907217885,-1,-1,-7,-1,0,0,0,1
1558441907224738,-5,-2,1,-1,-7,-9,-10,-2
1558441907224738,0,2,-1,6,4,3,5,1
1558441907239741,-2,-4,0,2,4,11,3,-3
1558441907239741,-1,-2,-2,-3,-2,1,-1,-2
1558441907246683,0,0,3,-3,5,-16,-2,0
1558441907246683,3,1,2,3,1,-3,6,4
1558441907262640,-4,-1,-6,-8,-5,2,3,-5
1558441907262640,-2,3,8,6,1,-2,-1,4
1558441907263647,-5,-5,-2,-3,-4,0,-1,-7
1558441907263647,-1,1,-8,-5,2,3,3,0
1558441907278599,-2,-3,-4,-5,-5,-3,-5,-2
1558441907278599,-2,-4,-4,-5,-11,-4,-9,-6
1558441907284611,2,0,2,3,5,-6,1,3
1558441907284611,4,4,4,2,8,-4,0,5
1558441907299626,5,3,-8,-5,0,1,2,3
1558441907299626,-3,1,6,1,2,1,2,3
1558441907306631,-5,-2,0,-1,-6,0,-7,-8
1558441907306631,-3,-6,-2,-4,-11,-4,-4,-4
1558441907322550,4,4,5,5,16,7,14,8
1558441907322550,-1,-4,-7,-7,-8,-12,-4,-1
1558441907323547,3,-1,-5,-1,1,7,5,2
1558441907323547,0,2,5,6,-2,-5,-8,-4
1558441907338509,0,1,1,-6,-7,6,-2,-3
1558441907338509,-2,-2,8,5,3,-2,-11,-7
1558441907344492,-1,0,-4,-1,-3,6,1,-2
1558441907344492,-1,-5,-10,-5,-1,5,0,1
1558441907359453,-2,-1,3,8,-3,-3,-7,-4
1558441907359453,1,-1,0,-4,3,-4,0,1
1558441907366469,-1,0,2,-4,1,-7,1,1
1558441907366469,-2,1,2,3,2,0,3,1
1558441907382388,-2,-5,-1,0,-5,-7,-8,-3
1558441907382388,-1,-3,-7,-5,-8,-4,1,-3
1558441907383387,-2,2,-6,-5,-8,-1,-6,-6
1558441907383387,-5,-1,13,9,-1,-1,1,-2
1558441907398348,-8,-9,-8,2,12,7,9,0
1558441907398348,-1,-1,-7,-16,0,-15,2,0
1558441907404362,2,-2,-2,-3,1,7,4,3
1558441907404362,2,4,2,-4,1,-6,-3,1
1558441907420318,-2,2,2,6,-4,-1,-8,-4
1558441907420318,-1,0,-1,-1,-8,3,-2,-2
1558441907426375,-4,-1,1,-1,-3,-4,2,-3
1558441907426375,-2,-3,-6,-5,-6,1,-6,-4
1558441907442332,-2,-1,1,-2,3,1,2,1
1558441907442332,2,2,-4,3,9,-2,8,5
1558441907443297,0,0,0,-3,-2,-7,-4,-1
1558441907443297,-2,-1,0,1,-4,0,-2,-1
1558441907458258,0,-1,-2,-1,-7,-9,-6,-1
1558441907458258,2,0,3,-1,-4,4,-3,-2
1558441907464243,0,-1,0,-1,-3,-1,-3,-2
1558441907464243,-1,-4,-4,-1,5,8,5,-1
1558441907479210,2,6,9,1,2,-1,2,2
1558441907479210,-2,-1,2,7,3,-1,-1,1
1558441907487391,-3,0,-1,-2,3,7,-1,-3
1558441907487391,-1,-4,-2,-1,2,6,-2,-2
1558441907502174,-1,-4,-7,-12,-10,-15,-9,-3
1558441907502174,-2,-4,-8,1,-9,-7,-7,-4
1558441907503139,0,-1,-4,-6,0,5,2,-1
1558441907503139,-4,-1,0,-1,-7,2,-3,-3
1558441907518128,-1,-3,-2,-8,-10,-6,-7,-5
1558441907518128,3,1,5,9,11,11,5,4
1558441907524081,-1,-1,2,8,7,-5,10,-1
1558441907524081,3,2,2,-3,9,6,6,3
1558441907539040,0,1,1,2,-1,-6,0,-2
1558441907539040,0,2,-3,-5,-8,-3,-2,-2
1558441907547019,-2,1,2,4,-1,10,-4,-1
1558441907547019,-1,-7,-6,-3,-1,-7,3,1
1558441907562236,-1,0,-6,-3,1,9,3,1
1558441907562236,-2,0,1,5,7,9,-1,-3
1558441907562976,-2,-6,1,-8,-15,-6,-5,-2
1558441907562976,0,1,6,3,3,-8,-4,-1
1558441907585914,-1,-3,-9,-9,3,6,3,3
1558441907585914,-1,-2,0,-2,-5,-4,-1,-1
1558441907586912,-1,1,-4,-3,-6,-3,-7,-4
1558441907586912,-3,-2,-7,0,1,0,-2,-2
1558441907600150,0,-2,2,5,0,-3,0,-1
1558441907600150,-1,-1,0,-2,-1,0,-1,1
1558441907606860,-1,-4,-2,2,6,3,3,3
1558441907606860,3,3,2,2,-4,-14,-4,0
1558441907623267,-2,1,-3,-10,-5,2,-2,0
1558441907623267,-2,-4,-6,-3,-6,-15,-4,-3
1558441907623267,0,1,7,4,4,6,-1,-2
1558441907623267,-2,-1,-8,-8,-5,0,-2,0
1558441907646761,2,0,-1,2,-7,-15,-7,0
1558441907646761,1,1,9,3,4,11,1,-2
1558441907646761,-3,-3,-14,-4,4,2,5,3
1558441907646761,-3,-1,-3,-5,-4,0,0,-4
1558441907660170,-3,-2,-1,-9,-4,-9,-5,0
1558441907660170,-2,-2,-6,-2,-1,3,-4,-1
1558441907667161,1,0,7,3,2,-1,-1,1
1558441907667161,-3,-6,-10,-9,-10,-7,-7,-3
1558441907682118,1,4,2,7,4,21,6,-1
1558441907682118,-2,7,-2,-5,-5,-9,0,-3
1558441907689638,-3,-8,-1,1,1,-7,1,0
1558441907689638,2,1,5,-4,4,8,4,3
1558441907698616,0,-1,0,4,0,-6,1,0
1558441907698616,1,0,0,0,1,6,-2,0
1558441907705050,0,1,-3,1,-3,0,-1,-2
1558441907705050,-4,-2,1,-1,-12,-10,-12,-6
1558441907720010,-2,-3,-4,-4,-9,-11,-3,-7
1558441907720010,2,0,3,4,11,9,11,5
1558441907726975,0,-2,-5,-5,2,-10,-1,2
1558441907726975,4,3,0,10,8,11,4,4
1558441907741941,0,-1,8,4,6,6,4,1
1558441907741941,-4,-5,-9,-7,-14,-10,-9,-2
1558441907749539,-5,-3,-4,-6,-7,-4,-3,-6
1558441907749539,-2,2,9,8,4,1,-3,-2
1558441907758514,-2,-3,-17,-17,-8,-3,-5,-4
1558441907758514,-2,-6,-1,0,-4,-11,-8,-2
1558441907764497,1,2,3,1,9,10,8,4
1558441907764497,0,-5,-4,-3,-1,-2,2,1
1558441907779458,-1,2,5,4,-1,-2,0,0
1558441907779458,-1,-5,-9,-4,0,0,3,0
1558441907786442,0,2,2,-3,-3,-3,-7,-2
1558441907786442,1,-2,-5,-1,-1,0,-2,-2
1558441907802526,1,1,1,1,-3,1,-5,-2
1558441907802526,-3,0,-3,-10,-19,-12,-18,-13
1558441907809743,-1,-1,-1,11,13,18,11,4
1558441907809743,2,-2,1,1,13,-27,6,11
1558441907818747,0,-2,2,0,8,7,9,2
1558441907818747,-1,1,8,2,2,-5,-2,-1
1558441907825127,-5,-4,-6,-1,-19,-11,-18,-10
1558441907825127,-2,0,-7,-15,-10,1,-5,-6
1558441907840089,2,2,-1,4,10,15,5,1
1558441907840089,0,-1,4,3,2,5,12,3
1558441907847068,0,1,-2,-7,3,-11,4,3
1558441907847068,-4,-1,5,3,0,8,-2,-3
1558441907863025,0,1,1,2,-2,-3,-7,1
1558441907863025,-2,-4,-10,-4,-2,11,-1,-2
1558441907869119,-1,0,-1,-1,-4,-6,-3,-1
1558441907869119,-2,-3,-6,-2,-1,-2,-3,-4
1558441907885046,-2,-1,-1,-2,-12,-4,-9,-5
1558441907885046,-1,-4,-2,8,2,2,7,4
1558441907885965,2,1,-2,-11,-2,-17,1,3
1558441907885965,2,7,3,-2,9,14,7,1
1558441907900087,-5,-6,-1,6,-4,-1,-3,-3
1558441907900087,0,-3,-4,2,3,-3,5,2
1558441907907230,-3,-5,4,2,-9,-5,-11,-3
1558441907907230,-3,-2,2,4,2,10,3,-1
1558441907921871,-1,-1,-6,-11,-4,-9,-5,-3
1558441907921871,-1,3,-1,-1,2,4,-2,-2
1558441907928852,0,-2,0,-4,-4,4,4,0
1558441907928852,-1,-2,-1,7,2,-4,2,2
1558441907944838,4,1,6,1,6,-4,2,3
1558441907944838,-3,0,-1,-8,-5,-1,-8,-2
1558441907945805,-2,-3,-3,-1,1,4,-4,-4
1558441907945805,-1,1,-2,-3,-5,-3,-2,-2
1558441907959513,-2,-1,-5,-1,-4,-1,0,-3
1558441907959513,-2,1,7,1,-2,-3,-7,1
1558441907967487,2,0,5,-5,4,-6,8,2
1558441907967487,-1,-1,-12,-7,2,9,5,2
1558441907982506,0,-2,4,18,13,4,2,1
1558441907982506,-5,-9,-13,-14,-12,-5,-2,-6
1558441907989432,0,4,3,0,-7,4,-7,-1
1558441907989432,-2,-6,2,-1,-4,-3,-6,-5
1558441908005374,0,-1,-3,-5,0,-4,5,4
1558441908005374,2,4,4,7,6,-6,8,1
1558441908012059,3,7,2,-4,11,13,4,2
1558441908012059,-4,-3,1,-5,-9,-7,-8,-6
1558441908020998,-6,-9,-6,-4,-5,0,-3,-2
1558441908020998,-3,-6,-6,-6,-4,1,0,-1
1558441908027333,-2,-3,-1,2,-6,1,-1,-3
1558441908027333,3,4,2,4,-1,-4,0,0
1558441908049957,1,5,3,-2,3,-6,0,3
1558441908049957,1,1,2,7,5,0,-3,-1
1558441908050918,-1,-1,-2,-7,-7,-12,1,-3
1558441908050918,1,-2,0,-1,0,11,-3,-1
1558441908065264,-2,-3,-2,-6,-6,-4,-8,-4
1558441908065264,2,1,6,7,11,-1,3,1
1558441908065878,-4,-3,-8,0,-1,2,-2,-2
1558441908065878,-2,-2,-2,-1,-6,-5,-5,-2
1558441908080846,-3,-4,-4,-4,-9,-5,-6,-2
1558441908080846,0,-1,-1,-2,6,11,1,0
1558441908087008,0,-2,0,3,3,4,-1,-1
1558441908087008,0,2,6,3,2,-2,6,2
1558441908101923,-1,1,-6,-2,5,2,4,2
1558441908101923,-2,-1,1,-5,-10,-12,-8,-4
1558441908109801,-2,-5,2,1,-4,8,-5,-4
1558441908109801,-1,1,-5,-2,-4,-12,-3,-1
1558441908124939,-2,2,-5,-1,1,2,3,-2
1558441908124939,-2,1,-2,4,5,-3,2,-2
1558441908125722,-5,-13,-5,4,1,-6,-1,-1
1558441908125722,2,2,-4,-12,-2,-1,4,5
1558441908140678,-1,-2,0,0,-1,3,-3,0
1558441908140678,0,0,-2,0,-8,-6,-11,-3
1558441908146677,0,1,-5,-8,-5,0,-2,1
1558441908146677,-1,-2,3,9,2,-1,-2,-2
1558441908161656,1,-1,1,-8,-1,-5,5,1
1558441908161656,0,3,0,-5,-6,3,0,-3
1558441908169599,0,-2,-4,1,1,6,-7,-3
1558441908169599,-2,-2,-4,-4,4,3,4,0
1558441908185867,2,7,12,5,7,-3,5,3
1558441908185867,-4,-6,-5,-4,-5,-8,0,-2
1558441908185867,0,-1,-6,0,-4,-7,-7,-1
1558441908185867,-3,-5,-9,-16,-14,-9,-15,-8
1558441908200871,2,-1,-2,1,5,9,7,3
1558441908200871,2,3,2,1,4,1,6,2
1558441908206993,0,3,7,0,2,-3,2,3
1558441908206993,0,0,0,2,1,1,-1,-1
1558441908222709,-3,-2,-2,-2,-7,1,-8,-6
1558441908222709,-4,-7,-6,-3,-5,-4,-4,0
1558441908229439,0,1,-1,3,8,-3,2,-2
1558441908229439,-3,-1,0,3,0,9,1,-5
1558441908245401,-1,-5,-2,-6,-5,-6,-7,-4
1558441908245401,2,1,1,2,1,2,6,1
1558441908245401,1,1,2,1,2,-6,1,-1
1558441908245401,-4,-3,0,-2,1,0,-1,1
1558441908260752,1,1,-2,7,10,10,6,4
1558441908260752,-3,-6,0,-4,-11,-18,-8,-6
1558441908267476,-3,-2,-6,-7,-9,-5,-10,-4
1558441908267476,0,1,2,0,-8,2,-1,-1
1558441908282395,-2,-5,-6,3,-3,-2,-3,-4
1558441908282395,3,3,-6,-1,9,2,2,4
1558441908289281,-4,-7,-1,-2,-2,0,-1,-2
1558441908289281,0,-1,3,4,-3,-10,-5,-1
1558441908305585,-3,1,5,3,4,7,1,-2
1558441908305585,1,1,-7,-6,2,7,3,1
1558441908305585,1,0,0,-5,-2,5,2,1
1558441908305585,1,-4,-11,-8,-5,2,-1,-5
1558441908320539,-1,-3,9,1,-7,-16,-3,2
1558441908320539,0,0,0,-4,-3,0,-12,-4
1558441908327524,0,2,1,4,2,4,11,5
1558441908327524,-2,0,-5,1,3,10,3,2
1558441908342479,0,-1,2,-3,5,-11,-4,2
1558441908342479,-1,-5,0,-1,-2,-1,3,0
1558441908349450,0,-2,-3,0,-5,3,-3,-2
1558441908349450,0,-3,-1,0,-1,-9,-3,-3
1558441908365076,2,5,7,11,7,7,2,-2
1558441908365076,-9,-11,-6,-6,-3,-1,-2,-1
1558441908365076,2,5,8,1,7,-4,2,3
1558441908365076,1,3,1,0,0,6,6,1
1558441908381068,-2,-2,-6,-4,-5,0,-5,-5
1558441908381068,-2,-7,1,5,-2,-2,-4,-5
1558441908387017,-3,-2,-5,-2,-7,-4,2,-4
1558441908387017,1,-2,2,0,2,-11,-1,2
1558441908401976,-2,-1,-3,-3,1,4,3,-1
1558441908401976,1,5,-1,-3,-4,-2,-2,1
1558441908408993,-2,-4,-4,-1,0,-7,0,1
1558441908408993,3,0,3,2,-1,-10,-2,-4
1558441908424915,-3,-2,-4,-9,-9,-4,-2,-2
1558441908424915,-4,-5,2,9,6,12,1,-3
1558441908425912,-3,-4,-9,-11,-2,0,-6,-1
1558441908425912,-4,0,3,-1,-5,-11,-4,-1
1558441908440872,1,0,-2,-2,0,0,-2,-3
1558441908440872,1,0,-1,-2,-4,-3,-1,-1
1558441908446858,-3,-1,1,4,-3,-3,0,-2
1558441908446858,-1,0,-4,-4,2,13,0,1
1558441908462102,-3,-2,-2,-3,-4,-3,1,0
1558441908462102,0,2,-1,-2,3,1,5,3
1558441908468799,1,0,-3,-2,-8,-3,-7,-5
1558441908468799,-1,-3,1,4,9,11,5,1
1558441908485693,0,-3,-2,-2,-2,-4,-6,-1
1558441908485693,3,4,0,-4,-5,0,1,2
1558441908485693,1,2,12,11,4,5,4,-2
1558441908485693,-6,-11,-8,-10,-2,5,-1,-2
1558441908500659,-1,-6,-8,-5,-2,-1,1,0
1558441908500659,-1,0,0,1,6,3,5,0
1558441908507299,-1,-2,-6,-3,-6,3,-5,-2
1558441908507299,3,7,9,6,-3,-18,-4,1
1558441908522125,-3,-1,-3,0,0,1,3,1
1558441908522125,0,0,7,-1,-4,-7,-8,-3
1558441908529106,4,5,-5,8,7,3,7,3
1558441908529106,-1,-5,1,-6,-3,4,1,0
1558441908545065,1,-1,3,-2,-9,-7,2,0
1558441908545065,-3,-2,-16,-12,-2,-3,-2,-1
1558441908545065,-1,-3,0,0,0,-2,-5,1
1558441908545065,-1,0,-3,0,-5,-1,-3,-4
1558441908561021,-2,1,3,3,5,12,1,0
1558441908561021,-1,0,6,5,3,3,3,2
1558441908567004,-3,-3,-3,-4,-9,-8,-8,-4
1558441908567004,-2,1,-5,-7,-3,-12,-6,-1
1558441908581991,1,-1,-1,-2,-3,-9,-6,-1
1558441908581991,3,3,1,1,6,5,8,3
1558441908590150,0,2,0,-3,5,-1,2,2
1558441908590150,-2,-1,0,4,1,7,6,-1
1558441908604513,-2,0,0,4,-3,4,-2,-4
1558441908604513,0,1,-3,-14,-11,-5,-8,-5
1558441908612097,-2,-7,-9,-1,7,-13,-1,3
1558441908612097,-1,2,0,-3,-4,5,2,1
1558441908628238,-2,-4,0,0,0,-8,1,-2
1558441908628238,-3,-6,-6,-4,-7,1,-8,-3
1558441908628238,0,3,9,4,8,15,7,-2
1558441908628238,0,0,-3,-3,-2,-9,-2,2
1558441908642344,-1,1,-1,-3,-4,2,-3,0
1558441908642344,-4,-5,-5,5,-1,-4,-1,-7
1558441908649310,-1,1,-6,-15,-8,-3,-7,-5
1558441908649310,-2,0,-4,-1,-3,-5,-2,0
1558441908665953,2,1,4,-2,4,-3,6,3
1558441908665953,-1,-1,3,4,4,-1,-6,0
1558441908671942,0,-2,-2,-7,-14,-5,-4,-1
1558441908671942,-1,-3,1,1,1,8,-2,-3
1558441908680914,-2,-3,-4,-4,-5,-13,-5,0
1558441908680914,2,1,1,3,10,7,11,6
1558441908687222,-1,2,4,6,9,1,4,3
1558441908687222,-1,-4,-4,-2,-7,-4,-12,-4
1558441908701956,4,2,-1,3,-2,2,-3,-3
1558441908701956,-5,-4,-3,-3,-5,2,5,-3
1558441908708835,-5,-5,0,-3,-4,1,-2,-2
1558441908708835,-4,-6,-4,-1,-6,-13,-1,0
1558441908723795,-2,-3,-3,-5,2,1,-6,-2
1558441908723795,1,6,4,-1,0,-6,0,3
1558441908731801,1,-1,0,4,4,3,7,-2
1558441908731801,0,0,-1,0,0,-3,-1,0
1558441908740784,-2,-4,-2,-6,-7,2,-7,-4
1558441908740784,0,-2,1,0,-2,1,-7,-2
1558441908746733,1,-2,2,4,6,0,4,1
1558441908746733,0,0,-5,-5,1,0,2,1
1558441908761693,-2,-1,-4,-3,-5,-2,3,-2
1558441908761693,-1,0,1,-2,1,-4,0,0
1558441908769674,-3,-1,-5,1,-5,2,-8,-4
1558441908769674,-2,-2,2,3,1,7,-3,-2
1558441908785066,-3,0,0,-1,-7,-13,-3,-3
1558441908785066,-1,-3,-4,1,10,3,1,0
1558441908792776,0,2,0,-3,0,-1,0,1
1558441908792776,-1,-3,-5,1,2,-2,-2,-4
1558441908807923,-1,2,-4,-4,-4,2,-3,-2
1558441908807923,-3,-6,-4,-4,-14,-14,-9,-7
1558441908807923,-1,0,0,1,-8,-1,-7,-4
1558441908807923,-2,2,5,5,14,19,12,4
1558441908821533,-1,0,-2,2,0,-7,0,2
1558441908821533,2,2,-2,-9,3,3,-1,2
1558441908829517,1,-1,-2,-4,0,1,1,-1
1558441908829517,-4,-6,1,5,-7,-2,-6,-2
1558441908844872,0,-4,-4,-11,0,0,-1,-1
1558441908844872,-3,-4,-2,-1,-10,0,-6,-6
1558441908851642,0,-1,-2,-2,-9,-4,-3,-3
1558441908851642,0,4,-1,-2,0,3,-2,-1
1558441908867412,3,-4,0,8,9,11,14,5
1558441908867412,1,-1,0,2,-1,-3,2,-1
1558441908868409,0,0,1,-3,2,-8,0,-2
1558441908868409,1,2,3,6,1,-3,1,1
1558441908881376,-2,1,3,7,5,8,-2,-2
1558441908881376,-3,4,-9,-8,-11,-7,-2,1
1558441908889356,-2,-6,5,8,8,3,6,4
1558441908889356,0,0,-2,-2,-2,-6,0,-1
1558441908904313,0,-2,-1,5,1,1,-4,-1
1558441908904313,2,0,4,5,13,2,2,0
1558441908911295,-2,2,-1,1,-5,3,-4,0
1558441908911295,0,0,-1,-9,-5,-10,-5,-1
1558441908927451,-1,-1,1,-1,-2,0,1,-1
1558441908927451,-1,0,-5,-2,-9,-11,-8,-3
1558441908928273,-2,0,0,0,5,7,7,2
1558441908928273,0,1,2,-3,2,-7,-4,-2
1558441908942233,-2,-2,1,-8,-3,9,-2,-3
1558441908942233,-5,-5,-6,-2,-7,2,-3,-1
1558441908949192,-4,-1,-5,-4,-9,-11,-10,-6
1558441908949192,-2,-4,-7,-1,4,8,4,1
1558441908964154,0,0,2,7,10,-14,1,4
1558441908964154,0,-1,1,0,1,7,0,-1
1558441908971134,-1,-1,-2,-5,-3,5,-6,-3
1558441908971134,-1,-2,0,-4,-14,-3,-7,-5
1558441908987124,-1,2,0,-3,3,1,-1,0
1558441908987124,2,2,10,5,9,8,5,3
1558441908988092,-3,-5,-7,-1,0,-2,4,3
1558441908988092,-1,-1,-5,-4,-1,-6,-3,-2
1558441909002061,-1,-2,-3,3,1,4,-2,-1
1558441909002061,-3,3,-3,-5,-8,-10,-2,-1
1558441909009034,-1,0,-3,-6,-7,-8,-14,-6
1558441909009034,-1,-2,7,6,9,16,12,1
1558441909023993,0,0,-3,-2,-1,-2,6,2
1558441909023993,0,0,1,0,3,-13,-3,0
1558441909031972,-1,-2,-3,-2,-7,-12,-5,-1
1558441909031972,0,3,2,-2,-5,-5,-1,1
1558441909046941,-2,-2,-4,0,4,20,-1,-2
1558441909046941,0,-1,0,2,1,2,3,-2
1558441909047944,-1,-1,0,3,5,-2,3,0
1558441909047944,0,0,2,-3,4,-4,3,1
1558441909061891,0,0,-1,-1,-2,8,3,-1
1558441909061891,-4,-7,-8,-10,-14,-9,-8,-2
1558441909068873,0,-3,-2,1,-4,3,2,3
1558441909068873,-2,0,3,-2,-1,-15,-6,-6
1558441909084006,-3,3,1,-4,-6,-3,2,-1
1558441909084006,1,-3,0,5,3,-10,-2,0
1558441909091851,4,3,2,0,9,7,12,3
1558441909091851,3,-2,5,3,-2,-3,-5,0
1558441909107992,-4,-6,-23,-24,-12,-6,-10,-3
1558441909107992,-3,-2,-3,0,0,7,1,1
1558441909107992,-3,2,-1,0,-3,-6,-6,-1
1558441909107992,-1,0,-2,-1,3,5,0,1
1558441909121731,-3,-2,7,7,-2,-3,-2,-3
1558441909121731,1,-1,-8,-7,-3,-3,2,-1
1558441909129710,0,-1,-3,-3,0,4,2,0
1558441909129710,-2,0,-1,-1,-7,-5,-6,-5
1558441909143674,-1,-1,-3,-6,-10,-22,-7,-3
1558441909143674,-2,1,8,2,4,3,3,1
1558441909151662,2,0,5,1,4,3,5,2
1558441909151662,0,-5,-18,-18,-5,9,-2,-2
1558441909167609,0,0,0,6,-1,4,-3,-3
1558441909167609,-1,-6,1,-7,-3,4,0,-4
1558441909167609,-2,-2,-3,-5,-7,-16,-6,-5
1558441909167609,-2,0,1,3,-2,4,0,-1
1558441909181707,1,2,0,-2,-4,-7,-1,4
1558441909181707,-1,0,-4,-2,1,15,-1,-5
1558441909189550,-3,-2,4,7,-2,3,-7,-3
1558441909189550,1,-1,-9,-8,-9,-15,0,-1
1558441909204512,2,3,1,-2,7,-4,1,4
1558441909204512,1,3,5,4,4,9,3,2
1558441909211492,-1,1,1,0,0,-7,-5,1
1558441909211492,-2,-4,-1,4,2,7,4,2
1558441909227449,0,-3,-5,-6,-14,-17,-5,-5
1558441909227449,-3,-2,-1,2,3,3,-1,1
1558441909228447,0,-2,0,-3,-6,-4,-2,-1
1558441909228447,-2,-2,-4,-4,-9,-13,-4,-2
1558441909241412,-3,-3,-4,-1,1,11,-4,-2
1558441909241412,-2,0,0,4,1,-2,-4,-2
1558441909249496,2,1,-1,-1,1,7,5,0
1558441909249496,0,0,1,4,7,7,3,-1
1558441909264350,0,-5,4,3,9,6,5,-1
1558441909264350,2,1,-1,3,-4,-16,-4,-1
1558441909280309,-5,-2,-6,-10,-11,-5,-10,-5
1558441909280309,-1,-1,-3,-4,-10,-5,-6,-1
1558441909287291,1,1,4,4,5,6,0,1
1558441909287291,0,3,3,1,3,0,5,1
1558441909288286,-1,-3,-8,-3,6,3,0,-1
1558441909288286,0,-2,-3,-1,4,4,1,0
1558441909302284,-1,-3,0,2,-8,-15,-2,-3
1558441909302284,0,-2,3,-2,0,2,2,1
1558441909309489,-2,-2,-3,-8,-5,-3,-2,-2
1558441909309489,-1,0,-5,-3,-2,2,-6,-2
1558441909324189,-2,2,5,-1,0,-5,-5,-3
1558441909324189,-3,-7,-3,-5,-3,5,1,1
1558441909331172,2,1,-2,4,2,1,3,-2
1558441909331172,1,3,1,-3,0,-8,-4,-2
1558441909347162,-3,-3,-3,-7,-4,2,4,-2
1558441909347162,2,4,4,6,6,-5,2,3
1558441909348130,-1,0,2,9,1,8,-3,-1
1558441909348130,-4,-3,-4,-6,-5,-1,-4,-2
1558441909362087,0,-8,-6,-2,3,9,-2,1
1558441909362087,-1,2,0,-1,-1,3,1,0
1558441909369275,-1,-3,-4,-3,-4,-21,3,0
1558441909369275,0,0,3,4,-3,-7,-1,-2
1558441909384031,0,1,1,1,2,2,-1,0
1558441909384031,-2,-2,-2,-3,-6,5,-8,-6
1558441909392010,1,-2,1,0,4,9,3,1
1558441909392010,-1,-1,1,2,-1,-2,2,2
1558441909407981,-3,-3,-5,-2,-1,-7,-7,-4
1558441909407981,-1,-5,-3,5,2,-1,-1,-3
1558441909414947,1,4,4,-2,1,1,4,6
1558441909414947,-2,-5,-2,-2,-1,-1,-2,-4
1558441909421930,-3,1,-4,-8,-6,2,0,-1
1558441909421930,-2,1,2,6,-5,-7,-11,-4
1558441909428910,-2,-4,-7,-3,5,10,4,1
1558441909428910,-2,-5,3,4,6,0,4,3
1558441909443869,0,0,1,0,-4,-3,-6,-2
1558441909443869,0,1,-6,-7,-10,-7,-6,-2
1558441909451849,2,3,5,2,4,-4,0,-1
1558441909451849,2,1,1,2,8,6,6,4
1558441909469800,3,4,8,10,8,6,-1,-1
1558441909469800,-7,-9,-15,-30,-13,-1,-5,-5
1558441909469800,-1,-3,-1,3,-4,-1,-5,-2
1558441909469800,-1,3,1,-3,-8,-15,-5,-3
1558441909481768,-1,-6,-14,-4,-1,-1,1,1
1558441909481768,1,3,8,4,8,5,7,1
1558441909488764,-5,-8,-2,-4,-4,1,-9,-2
1558441909488764,0,-4,-1,-1,-1,4,-1,-2
1558441909503711,0,-1,3,1,-3,-3,2,-1
1558441909503711,3,1,-1,1,-1,-2,1,2
1558441909511688,1,-1,4,-4,1,0,-1,-1
1558441909511688,2,3,-4,3,6,0,-4,1
1558441909527647,-4,-4,-4,-11,-8,2,6,2
1558441909527647,-1,-5,-5,2,0,-9,-1,0
1558441909527647,-2,-1,-3,-1,-8,-11,-3,-3
1558441909527647,-2,-1,5,4,6,12,3,2
1558441909541608,-2,0,3,1,4,4,-1,-3
1558441909541608,-2,-4,-5,-2,-9,-8,-6,-6
1558441909549595,0,0,0,-3,1,-3,1,1
1558441909549595,-2,1,5,5,5,-10,3,3
1558441909564547,0,2,0,2,3,-3,-3,-1
1558441909564547,-3,-2,3,1,-4,0,-1,1
1558441909571531,-2,-3,-2,-5,-1,6,0,-4
1558441909571531,-1,2,-6,-5,-5,-5,-1,0
1558441909586490,-2,-2,-5,-2,-3,-9,-4,0
1558441909586490,1,0,3,5,2,-3,-1,-2
1558441909594472,0,-1,-5,1,7,16,9,2
1558441909594472,-2,-3,0,-2,-3,-8,-3,-3
1558441909601449,-1,-2,4,2,-4,-1,-2,-4
1558441909601449,0,0,-2,-3,0,7,-4,0
1558441909609427,-1,0,-1,1,8,2,1,0
1558441909609427,-2,-2,-2,-6,-4,8,5,-2
1558441909624387,2,2,3,2,0,-16,1,0
1558441909624387,0,-5,-1,1,2,7,1,2
1558441909631372,-1,2,4,-2,-8,-6,-8,-3
1558441909631372,-5,-6,-9,4,0,0,-3,-2
1558441909646330,-1,-1,-3,-8,-6,-14,-6,-2
1558441909646330,2,2,-4,-3,2,3,4,1
1558441909655304,-1,-2,0,-2,-7,-9,-9,-6
1558441909655304,0,0,1,2,0,12,3,0
1558441909661289,1,1,2,-5,1,5,1,1
1558441909661289,-2,-2,3,9,2,-3,-1,-2
1558441909669267,-4,-3,-8,-10,-7,-5,-6,-5
1558441909669267,-2,-1,-1,-7,-9,-9,-6,-4
1558441909684238,2,0,1,1,11,9,9,5
1558441909684238,-1,0,5,4,-1,-10,-8,-2
1558441909691210,-2,1,-1,3,3,8,1,1
1558441909691210,0,4,5,0,2,-3,1,1
1558441909707165,0,-4,4,9,2,-1,-1,0
1558441909707165,-1,-1,-6,-15,-9,2,-3,-4
1558441909715144,-2,0,-2,-2,-10,-5,-4,-2
1558441909715144,2,-1,3,-6,-3,5,-3,-1
1558441909730106,-2,-5,-9,10,5,-1,-2,0
1558441909730106,-3,-6,-8,-7,-3,-7,2,-1
1558441909730106,3,-2,-3,-1,1,-6,-2,0
1558441909730106,-1,1,5,-3,-2,5,1,-1
1558441909744068,-2,1,1,1,-9,0,-13,-9
1558441909744068,-2,0,-5,-2,2,9,5,1
1558441909752048,1,0,4,1,1,-1,1,0
1558441909752048,-2,-2,-1,1,5,0,-1,0
1558441909767004,0,4,0,-4,4,10,10,4
1558441909767004,-1,-2,2,0,4,-2,-1,1
1558441909774985,1,0,-3,0,-4,-5,1,2
1558441909774985,1,-2,-1,3,-6,-8,-4,-3
1558441909789946,-7,-14,-16,-31,-25,-16,-10,-5
1558441909789946,-1,1,4,7,15,11,5,2
1558441909790941,-2,0,5,5,1,1,-1,0
1558441909790941,-1,-3,-5,-3,-5,0,-6,-2
1558441909803909,0,3,3,2,-1,-2,3,1
1558441909803909,-1,1,0,-4,-3,-9,2,-1
1558441909811886,-1,-4,1,-1,-3,0,2,1
1558441909811886,-3,-4,-8,2,-1,5,5,-6
1558441909826867,-2,-1,2,1,2,-1,1,-2
1558441909826867,0,-1,-7,-6,-5,-19,-5,0
1558441909834826,0,0,-1,2,4,3,0,0
1558441909834826,-2,-2,-5,-4,-3,4,-2,3
1558441909849785,1,0,9,14,7,-5,-1,3
1558441909849785,0,0,-3,-11,-11,-4,1,1
1558441909850781,2,0,-2,-6,5,-2,8,4
1558441909850781,-4,-4,-3,-4,-4,-5,-6,-5
1558441909863749,-3,0,-3,-5,-10,-4,-12,-8
1558441909863749,-2,-4,0,5,-1,-1,-2,-1
1558441909871726,-1,-3,-4,-3,-2,-2,-2,-2
1558441909871726,2,3,1,-3,3,-3,0,0
1558441909886685,-1,1,3,5,3,7,-3,-1
1558441909886685,0,1,-6,-11,-4,-4,0,-3
1558441909893674,-5,-5,0,-3,-7,-6,-5,-5
1558441909893674,0,2,3,8,8,4,6,2
1558441909909631,-1,0,-9,-9,-5,-1,-1,-2
1558441909909631,0,1,6,4,5,11,0,2
1558441909910622,-3,-3,-4,-1,-5,0,-4,0
1558441909910622,-1,-1,2,1,-1,-11,-6,-4
1558441909924584,-1,1,6,3,3,4,4,1
1558441909924584,1,-2,3,7,6,8,1,0
1558441909931565,-1,-2,-10,-6,-8,-6,-1,-4
1558441909931565,2,-2,1,-1,-1,-6,0,1
1558441909946526,0,-1,-6,-2,-2,-4,1,-1
1558441909946526,1,5,7,7,2,-3,2,1
1558441909954510,0,-2,1,-2,-3,-6,-5,-4
1558441909954510,-2,-3,-9,-3,4,5,1,2
1558441909969464,0,-2,-6,-2,-1,-6,-3,0
1558441909969464,-4,-4,-2,-2,-8,-3,-6,-3
1558441909970463,1,2,1,0,5,3,7,3
1558441909970463,2,3,-1,-4,0,-3,1,1
1558441909984423,-2,-6,0,1,-2,1,0,0
1558441909984423,-1,0,-3,-2,-5,1,-4,-4
1558441909991406,-2,-1,0,3,-9,-8,-11,-3
1558441909991406,-1,-1,5,3,1,-6,-1,-1
1558441910006366,-2,-3,-6,-15,-6,-1,-1,-1
1558441910006366,-2,-3,1,3,7,8,1,-2
1558441910014344,1,1,1,0,7,10,6,1
1558441910014344,-1,-1,-6,1,-4,-3,-5,-3
1558441910030301,-1,-2,3,-2,-4,-4,-9,-3
1558441910030301,0,-2,-8,-4,-8,-9,-2,1
1558441910030301,1,1,1,0,5,-1,6,-2
1558441910030301,-1,-1,-1,-3,-6,-2,-5,-5
1558441910044263,1,0,2,2,1,-1,1,1
1558441910044263,1,-1,-6,-4,-5,-4,-8,0
1558441910051245,3,4,4,7,9,8,7,4
1558441910051245,-3,-4,-1,-8,-1,1,0,-1
1558441910066205,0,-2,2,10,2,4,2,-1
1558441910066205,0,-1,2,7,1,-1,-2,-3
1558441910082163,1,1,-1,-15,-9,3,-2,2
1558441910082163,-1,-1,-4,-1,1,-11,0,2
1558441910090144,0,2,1,-1,2,11,1,0
1558441910090144,-1,1,2,0,-1,-11,1,-3
1558441910090144,-4,-5,-8,-5,-6,4,-5,-6
1558441910090144,-1,-3,0,-3,-14,-5,-7,-3
1558441910104109,0,0,0,-1,6,-2,-3,0
1558441910104109,1,2,2,3,8,-11,10,2
1558441910112084,-2,-3,-7,-4,-2,-2,-8,-2
1558441910112084,-3,-5,0,0,-3,4,-2,-2
1558441910127046,-2,-3,-5,0,-6,-5,0,-2
1558441910127046,-3,-5,-2,-11,-4,2,-4,1
1558441910134025,1,1,-1,0,-1,-6,-7,-3
1558441910134025,2,-1,-1,2,8,5,7,2
1558441910149983,-3,-3,3,1,-4,-2,-1,-1
1558441910149983,0,0,-2,1,5,9,5,-1
1558441910150979,-4,-2,-1,0,-6,-8,-3,-1
1558441910150979,-4,-1,-3,-3,-7,3,-9,-7
1558441910163944,3,3,-3,2,7,-2,3,2
1558441910163944,-2,1,1,-8,-1,-2,-1,0
1558441910171926,-2,-3,-1,-2,0,4,7,3
1558441910171926,2,2,9,5,5,10,5,-1
1558441910186886,-2,-2,-7,-9,-4,-10,-4,-1
1558441910186886,-2,-5,-5,3,-4,3,-9,-3
1558441910193869,1,1,0,3,-4,-8,-2,-2
1558441910193869,1,0,-1,-1,-4,-7,4,3
