timestamp,emg1,emg2,emg3,emg4,emg5,emg6,emg7,emg8
1558441876110550,-3,-4,-4,-5,-8,-2,-5,-3
1558441876110550,3,2,8,7,8,-3,2,4
1558441876112544,-2,-6,-6,-2,2,-6,-1,-1
1558441876112544,0,0,6,2,1,8,4,0
1558441876113540,-3,-2,-10,-11,0,-2,-4,-3
1558441876113540,0,0,3,1,-7,-2,-3,-3
1558441876114539,-2,-2,1,0,-2,-3,-2,-3
1558441876114539,-1,-2,-9,-2,0,3,-4,0
1558441876123513,0,1,-3,2,-3,8,0,-4
1558441876123513,1,1,3,-2,5,-1,10,4
1558441876131494,-3,-1,-1,1,-8,-12,-3,-2
1558441876131494,0,0,4,1,-3,-6,-3,-2
1558441876139473,-1,-3,0,6,3,1,6,1
1558441876139473,-1,-3,-12,-12,-5,1,1,0
1558441876154432,1,-3,3,1,-1,7,1,-6
1558441876154432,0,-2,-1,0,1,-9,0,-1
1558441876160415,-1,-2,4,-3,1,-10,-2,0
1558441876160415,-2,-2,-2,0,3,6,4,0
1558441876170389,1,2,-6,-3,-4,-2,-3,1
1558441876170389,-3,-2,-4,-4,-2,6,-2,-1
1558441876184351,0,1,4,2,6,9,-1,1
1558441876184351,-1,-2,1,5,-1,-4,-6,-1
1558441876191338,0,1,4,-1,2,-10,6,2
1558441876191338,-1,-2,-5,1,2,2,0,-1
1558441876229231,0,1,2,5,4,10,-1,-2
1558441876229231,0,-2,0,-2,-2,-2,-1,1
1558441876237210,-2,-2,-1,0,-1,1,-7,-2
1558441876237210,0,0,1,4,-4,-9,4,1
1558441876238207,-2,0,-6,-17,0,3,4,0
1558441876238207,0,1,4,5,3,-7,6,2
1558441876239204,-1,0,1,2,1,-3,-7,-1
1558441876239204,2,-2,2,1,0,3,-2,-1
1558441876251173,0,-1,-2,1,-11,-8,-5,-1
1558441876251173,2,-1,-1,-4,4,7,3,3
1558441876258155,-3,0,2,-3,3,1,3,0
1558441876258155,-1,1,-7,-4,0,4,-4,-4
1558441876265136,3,1,12,12,12,4,7,2
1558441876265136,-4,0,-5,-2,-7,-1,-7,-6
1558441876280095,-1,-3,1,2,-4,-1,-5,-3
1558441876280095,-2,0,-4,-2,4,9,0,1
1558441876288075,-2,-3,-2,-5,-4,-4,-3,-3
1558441876288075,-2,-1,-2,0,-1,-3,-5,-4
1558441876297050,-1,-1,-2,5,2,2,2,0
1558441876297050,-2,-1,-2,-8,-8,-5,2,1
1558441876311012,0,1,0,2,-3,-12,-3,1
1558441876311012,0,-1,3,6,4,11,0,1
1558441876317995,2,-1,-5,-12,-1,-1,6,4
1558441876317995,-2,-5,0,-1,4,3,-4,-4
1558441876324975,0,-3,-4,-4,-9,-13,-6,2
1558441876324975,2,1,-2,-13,-3,-2,0,1
1558441876339935,-1,-5,-6,-6,-7,4,-1,-5
1558441876339935,-1,-1,3,7,2,4,-3,-1
1558441876347914,-2,0,-2,-3,1,-5,-1,1
1558441876347914,-3,2,-2,2,2,7,6,-1
1558441876356890,-1,1,3,4,4,1,4,2
1558441876356890,-1,-3,-5,-4,-8,-11,-4,-2
1558441876370853,-3,-1,0,-2,-5,1,-4,-5
1558441876370853,0,-4,-2,0,-4,-1,-2,-1
1558441876377834,-1,0,4,1,3,7,-1,-1
1558441876377834,-2,-1,-5,0,1,-3,0,1
1558441876393792,0,0,-5,-6,-2,-5,-8,-2
1558441876393792,-2,-1,-1,7,12,13,6,0
1558441876399775,-3,-2,1,-1,-10,-10,-4,-1
1558441876399775,-1,-2,-5,-16,-9,-15,-8,0
1558441876407753,0,1,-2,0,2,3,0,1
1558441876407753,-3,-4,-4,-2,-4,4,-10,-4
1558441876416729,0,0,-2,2,2,-2,3,-3
1558441876416729,3,2,3,5,9,13,7,3
1558441876430692,0,-1,11,6,-3,-8,2,-2
1558441876430692,-2,-2,1,-5,-13,-16,-9,-4
1558441876437675,-1,-3,-8,-6,-2,0,0,-1
1558441876437675,-3,-2,1,2,3,9,-4,-3
1558441876445654,-1,0,-5,-3,3,9,7,1
1558441876445654,0,-2,0,2,-1,-16,-1,2
1558441876460613,-1,2,4,0,-6,-7,-8,-2
1558441876460613,-2,-2,-5,-4,-3,2,-3,-1
1558441876467593,0,-2,-4,2,6,7,7,3
1558441876467593,1,2,8,7,0,-16,2,-1
1558441876476569,-1,-4,-16,-17,-3,-2,-6,-3
1558441876476569,1,2,0,-9,-7,-3,-4,-1
1558441876490534,-4,-3,5,13,13,5,11,-2
1558441876490534,-2,-2,-9,-10,-12,0,-1,-1
1558441876497575,1,0,1,5,1,-9,-4,-2
1558441876497575,-1,2,-1,2,2,4,3,1
1558441876505492,-2,-1,-2,-7,-5,-8,-10,-2
1558441876505492,-1,-1,0,4,-3,0,-5,-2
1558441876520454,0,0,2,6,-1,1,-2,-1
1558441876520454,3,-1,3,-7,2,1,4,0
1558441876527442,-2,-5,-8,-4,-9,-13,-10,-4
1558441876527442,-2,-4,-2,-3,-3,-5,-5,-3
1558441876542393,-3,0,1,-2,4,14,3,0
1558441876542393,-3,-3,2,6,-1,-3,0,-3
1558441876550372,0,-1,-2,-3,-8,2,-8,-4
1558441876550372,0,-3,-2,-4,1,5,10,3
1558441876559348,0,0,4,6,2,-9,6,3
1558441876559348,1,0,-2,-7,3,-7,2,1
1558441876565332,-1,-3,-13,0,2,7,-3,-3
1558441876565332,-3,-3,-5,-11,-7,-1,-7,-5
1558441876580293,-3,-3,2,1,-8,-5,-8,-6
1558441876580293,-2,0,6,14,8,1,3,-1
1558441876587274,0,2,3,-7,0,8,5,1
1558441876587274,-1,1,1,5,3,-4,-1,-1
1558441876603230,0,-2,-2,-4,-2,2,-1,-1
1558441876603230,-2,-3,-6,-6,-11,-5,-5,-3
1558441876611209,-3,-5,-4,2,4,1,-3,1
1558441876611209,0,0,1,3,3,-4,1,4
1558441876618191,0,1,2,0,3,7,4,3
1558441876618191,-1,1,5,4,-3,-3,-8,-1
1558441876625172,0,0,4,-1,-10,-5,-1,-1
1558441876625172,2,-2,-11,-9,0,-4,1,0
1558441876640133,3,2,0,-1,2,-2,-1,1
1558441876640133,-1,-1,0,5,10,0,2,1
1558441876648110,-3,0,-3,-10,-8,-3,-4,-2
1558441876648110,-9,-6,8,8,-7,-6,-9,-7
1558441876663070,-2,-4,-6,-20,-5,-3,-2,0
1558441876663070,0,0,-6,-6,-7,2,-3,-3
1558441876671050,1,-2,0,4,3,0,1,2
1558441876671050,-1,2,7,2,4,4,1,-2
1558441876678031,-2,-1,-1,2,-2,6,-3,-4
1558441876678031,-2,-2,-6,-4,-9,-14,-3,-2
1558441876685013,1,-2,-2,-4,3,3,-1,1
1558441876685013,3,0,0,0,3,13,-2,-1
1558441876699983,2,5,7,7,8,-10,11,7
1558441876699983,-3,-4,-4,-5,-8,-6,-2,-1
1558441876707951,-1,0,-5,-1,4,-1,2,-1
1558441876707951,1,0,1,3,5,1,1,2
1558441876722911,-1,-4,-6,-25,-17,-9,-7,-6
1558441876722911,-2,-5,5,6,-3,-2,-9,-3
1558441876730890,0,1,1,3,13,11,13,4
1558441876730890,-2,0,0,-2,-6,-9,-2,-2
1558441876737871,-1,-3,-5,4,4,9,-1,-2
1558441876737871,-2,-3,-4,1,3,-2,0,-1
1558441876744853,-1,-2,0,-7,-5,-10,-9,-7
1558441876744853,0,2,-8,-5,-3,2,-2,-2
1558441876769785,-3,0,1,6,2,2,2,0
1558441876769785,1,0,2,1,1,-6,1,-1
1558441876770783,-2,0,5,6,6,1,1,3
1558441876770783,-1,-2,5,3,3,3,-1,-2
1558441876782752,-2,-4,-15,-6,-11,-4,-5,-3
1558441876782752,0,1,-2,-1,-1,-2,6,1
1558441876789739,0,2,1,1,0,-6,1,-1
1558441876789739,-2,-3,-7,-11,-13,-12,-12,-5
1558441876798709,-2,-2,10,12,8,7,4,2
1558441876798709,0,0,3,5,8,17,4,1
1558441876804691,-3,0,-4,-1,-1,0,0,-2
1558441876804691,0,5,4,5,5,13,3,1
1558441876820650,-1,-1,-4,-9,-3,-19,-3,0
1558441876820650,0,-3,-2,1,-2,-6,1,0
1558441876827631,-3,1,-1,0,-5,2,-3,-3
1558441876827631,0,-2,-1,-1,0,2,-2,-2
1558441876842591,0,-4,-1,2,3,9,5,0
1558441876842591,0,2,4,1,7,2,3,1
1558441876850569,2,0,0,-2,-3,4,2,-1
1558441876850569,-3,-2,-6,0,-1,-9,-5,0
1558441876859546,-4,-4,-5,-7,-9,2,-1,-1
1558441876859546,1,1,4,0,-8,-8,-6,-1
1558441876873508,-2,-5,-6,-6,-7,-7,-8,-3
1558441876873508,0,2,5,6,17,20,19,7
1558441876880489,-1,0,0,-1,-5,-19,-11,-3
1558441876880489,-3,-1,3,7,4,11,-3,-2
1558441876887471,-1,-2,-1,-9,-6,-3,-2,-3
1558441876887471,2,-1,-4,-5,-2,-4,0,-1
1558441876902430,-1,0,-1,5,6,5,6,-1
1558441876902430,-3,-3,-6,-9,-11,-4,-2,-5
1558441876910409,-2,-4,1,1,0,0,-6,-2
1558441876910409,-3,-1,-4,-4,0,-5,2,-1
1558441876919385,1,2,7,6,5,4,-1,-3
1558441876919385,1,-3,-1,1,-1,-9,-3,0
1558441876933351,1,0,0,2,7,13,6,1
1558441876933351,-2,2,1,-3,-8,-12,-9,-2
1558441876940330,-1,-2,-3,0,-6,-5,-11,-5
1558441876940330,-3,-3,-9,-10,-7,1,-3,-3
1558441876947310,1,-4,4,3,10,-6,6,1
1558441876947310,1,1,2,-5,5,3,7,3
1558441876962271,-1,-2,4,5,6,-1,-5,-1
1558441876962271,0,1,-7,-4,0,6,2,-1
1558441876970249,-2,-1,-4,0,-8,-2,-7,-2
1558441876970249,-1,-2,-1,-2,-10,-13,-6,1
1558441876979225,-3,-2,0,3,-1,-2,-1,-1
1558441876979225,1,2,4,-6,9,12,8,3
1558441876993187,-1,1,3,0,1,-10,-7,-1
1558441876993187,-4,-5,-10,-2,-6,-4,-4,-4
1558441877000169,-2,-3,-1,-2,-5,-4,4,-3
1558441877000169,-3,0,-3,2,-1,-5,-5,-3
1558441877008147,0,0,1,-7,-5,1,0,-1
1558441877008147,-1,-3,1,5,6,11,0,-2
1558441877023107,0,1,-6,-7,-2,-1,-7,-1
1558441877023107,0,-1,0,0,-2,5,1,0
1558441877030089,0,-1,1,-1,-8,-13,-6,-3
1558441877030089,0,1,2,0,-1,-9,3,1
1558441877039065,2,2,7,0,8,5,6,2
1558441877039065,-2,-5,-15,-1,5,4,3,0
1558441877053029,-1,-1,3,0,-2,9,-6,-1
1558441877053029,-3,-2,-3,-4,-2,3,-2,-2
1558441877060010,0,5,3,8,7,-4,9,2
1558441877060010,2,2,1,-8,-10,-16,-1,1
1558441877067987,0,-1,-2,1,-8,-1,0,-1
1558441877067987,-1,-4,0,-5,2,9,-4,0
1558441877082949,-1,0,-3,-1,-3,4,1,1
1558441877082949,-1,-2,5,1,5,-1,0,-1
1558441877098905,0,-2,-2,2,4,0,8,2
1558441877098905,1,1,1,-1,-6,-9,-4,-1
1558441877100900,-4,-1,-4,2,-5,-3,-9,-3
1558441877100900,-2,0,1,-5,3,6,-2,-2
1558441877113890,-2,-2,-3,0,0,-18,-3,1
1558441877113890,-1,-1,7,6,5,2,4,-1
1558441877119851,1,-3,-19,-18,-9,-9,-3,0
1558441877119851,-3,-2,3,8,-2,-7,-5,-4
1558441877127888,-4,-2,-7,-7,-1,6,-8,-4
1558441877127888,-4,-5,6,0,-1,-3,0,-3
1558441877142860,0,-1,-3,-3,-5,-4,-2,-1
1558441877142860,-1,0,0,-7,-4,-3,-2,0
1558441877150767,-3,-6,-4,-2,-7,2,-3,-5
1558441877150767,3,1,-2,3,2,1,-1,0
1558441877158806,-1,0,9,4,12,15,5,-1
1558441877158806,-1,1,-3,-4,-1,-2,-5,-1
1558441877173710,-1,2,7,7,2,4,-1,-3
1558441877173710,-3,-1,-8,-4,-7,-2,-1,-1
1558441877180724,-1,-4,1,-9,-2,-7,-3,-1
1558441877180724,2,1,-2,0,-1,-3,-1,1
1558441877187670,-1,1,-5,-3,-5,-3,-1,-1
1558441877187670,1,-2,-1,-2,-1,0,9,0
1558441877202636,0,1,1,9,1,-3,-1,-2
1558441877202636,-2,-2,6,5,-5,-7,-2,0
1558441877210613,-2,-2,-10,-3,2,-1,-1,1
1558441877210613,-3,0,-6,-4,1,3,-6,-3
1558441877225740,-1,-1,1,0,2,6,-5,-1
1558441877225740,-1,-2,-4,-5,-11,-13,-2,-2
1558441877233755,1,1,0,-2,8,16,9,1
1558441877233755,0,-1,3,7,0,-11,-8,-1
1558441877248677,-1,-2,2,1,-2,-1,-1,-2
1558441877248677,0,-1,1,2,-2,3,-4,-2
1558441877248677,0,2,1,-4,5,-6,1,2
1558441877248677,-2,-4,-5,-4,-7,4,1,0
1558441877262873,-2,-2,1,0,-3,8,-2,-2
1558441877262873,-3,0,2,3,10,13,1,-1
1558441877270813,1,0,1,7,-2,-13,-5,-1
1558441877270813,0,2,-1,-3,5,5,7,3
1558441877285636,-5,-5,-3,0,-5,-4,4,-1
1558441877285636,0,-1,-8,-6,-3,-6,-1,-1
1558441877300630,-2,-4,3,1,1,5,-3,-1
1558441877300630,-2,-1,0,-2,-3,-8,-6,-5
1558441877308848,0,-3,-6,-4,-4,-2,-12,-4
1558441877308848,-2,2,7,4,5,6,5,-1
1558441877309792,2,-1,-6,-2,-2,-10,1,3
1558441877309792,0,-2,-2,-3,4,0,2,0
1558441877322568,0,0,-1,-2,0,-11,1,-2
1558441877322568,-3,-6,-6,-4,-10,-8,-6,-4
1558441877330517,-5,-2,1,1,-1,18,-2,-5
1558441877330517,-2,-2,-5,-4,-2,-1,4,-1
1558441877345757,3,2,1,3,4,-25,-6,3
1558441877345757,-2,-4,-1,-4,5,11,5,-2
1558441877353725,-2,-3,-1,-4,-6,-6,-3,-4
1558441877353725,-1,-2,-3,-4,-4,7,-7,-4
1558441877368644,1,0,-4,-3,-2,-7,6,2
1558441877368644,2,2,0,1,5,-3,3,2
1558441877369414,1,-1,-2,-1,1,-1,2,1
1558441877369414,-3,-1,2,2,1,10,-4,-4
1558441877382381,-1,0,1,2,-5,8,2,-1
1558441877382381,1,-3,-9,-6,-10,-23,-6,1
1558441877390359,-2,-2,-9,-9,-7,-1,-3,-5
1558441877390359,0,-1,4,6,10,-13,7,4
1558441877405319,0,-1,5,0,3,12,3,1
1558441877405319,-3,-4,0,4,-7,9,-6,-5
1558441877414562,-1,-1,-2,-4,-9,-7,-7,-3
1558441877414562,-1,0,0,-2,0,-3,-3,-1
1558441877428482,-3,-3,-5,-7,-5,2,-4,-3
1558441877428482,2,0,7,6,2,-2,0,3
1558441877429257,0,-2,-7,-4,-7,-18,2,-1
1558441877429257,-2,-5,-9,-12,-5,5,3,2
1558441877443353,0,4,4,8,9,2,5,3
1558441877443353,-3,0,3,-5,-5,6,-5,-2
1558441877450198,-2,-1,-2,-3,-1,-8,-12,0
1558441877450198,-1,-1,1,3,-2,-4,-2,-1
1558441877465162,0,1,-2,-2,1,-5,-3,-3
1558441877465162,-1,-2,-7,-5,-8,-3,2,-3
1558441877473136,2,2,7,3,9,7,4,1
1558441877473136,-1,3,-1,-5,-5,-3,-5,-4
1558441877488097,-4,-7,-3,0,-4,3,-7,-5
1558441877488097,0,0,2,-1,-1,2,1,2
1558441877489093,-1,1,4,6,13,14,9,1
1558441877489093,2,-1,-2,-1,-6,-11,-11,-2
1558441877503055,3,0,1,0,0,0,11,4
1558441877503055,-1,-1,-1,-2,2,-3,-5,-2
1558441877510037,-2,-1,2,-3,-11,-4,-6,-3
1558441877510037,0,0,-6,2,5,5,2,0
1558441877525006,-4,-1,-1,3,-4,-3,-9,-4
1558441877525006,-3,-2,-5,-5,0,-7,-5,-2
1558441877532977,-1,3,2,-1,3,7,3,1
1558441877532977,-2,-3,6,8,-1,-5,-1,-1
1558441877549024,1,-4,-6,-14,-8,-4,-2,-2
1558441877549024,1,-1,-2,4,10,5,7,1
1558441877549024,-3,-1,-3,-2,-1,-4,-2,0
1558441877549024,-2,-1,5,3,3,2,2,-3
1558441877562960,-4,-1,-3,-1,0,10,5,0
1558441877562960,-1,-3,2,1,-4,-9,1,1
1558441877569921,1,-1,-5,-5,-1,-10,4,3
1558441877569921,1,1,-1,0,0,-5,-2,1
1558441877584876,0,0,-3,-5,-9,-6,-12,-7
1558441877584876,-4,2,-2,2,2,9,-2,-2
1558441877593848,-2,-2,-6,-8,1,-8,6,3
1558441877593848,-4,-3,-5,-4,-6,-2,-2,-1
1558441877608813,0,1,6,-4,-5,-2,-4,2
1558441877608813,-3,-4,-4,2,-4,-5,-1,-3
1558441877608813,-2,-3,2,3,2,16,2,-3
1558441877608813,2,-1,0,0,4,-2,2,4
1558441877622801,0,0,-5,-2,-1,-3,-5,-2
1558441877622801,1,2,1,2,-3,-10,-1,1
1558441877638899,0,0,3,5,5,12,3,1
1558441877638899,0,0,-4,-8,-6,-9,0,0
1558441877645870,-2,0,5,5,7,7,-1,-1
1558441877645870,0,-1,-2,-2,3,4,-1,1
1558441877653990,-2,-3,-3,1,-6,-10,-3,-3
1558441877653990,-2,0,-3,-11,-6,12,-2,-2
1558441877668922,-1,0,1,7,0,-8,-2,-2
1558441877668922,2,-1,0,-4,4,4,4,0
1558441877668922,-2,-1,4,7,7,9,-1,-1
1558441877668922,1,-2,-4,-4,1,6,1,-2
1558441877682611,-1,-2,-4,-2,-4,1,11,4
1558441877682611,-4,-1,1,3,2,7,0,-3
1558441877690623,-3,-4,-12,-2,-5,-11,-9,-2
1558441877690623,-2,-2,-2,1,1,-4,-3,-1
1558441877705578,-1,0,3,2,4,-4,-2,-1
1558441877705578,-2,-2,-5,-9,-6,-7,1,1
1558441877713527,-2,0,6,-1,1,8,1,-1
1558441877713527,-3,-2,-3,1,-6,-3,-5,-4
1558441877728488,-2,-4,-4,-5,-3,0,-1,-2
1558441877728488,1,0,3,2,2,-3,-2,-2
1558441877729485,-1,-1,-2,-5,-3,-13,-5,-3
1558441877729485,-2,0,6,3,-6,-6,-5,-3
1558441877743633,1,-3,-10,-1,1,5,3,0
1558441877743633,0,3,2,-1,8,13,3,0
1558441877750432,0,-2,-6,-8,-7,-3,3,2
1558441877750432,-3,-3,-1,0,-2,-4,0,-1
1558441877765548,-2,-1,0,-3,0,0,0,0
1558441877765548,-2,0,0,4,4,0,-7,-2
1558441877773573,2,3,7,-3,-6,-6,-7,-1
1558441877773573,1,-1,-4,2,5,0,9,0
1558441877788362,-4,-3,-5,-13,-4,2,3,0
1558441877788362,2,-1,-2,0,-1,-3,0,-2
1558441877796655,0,0,6,5,2,-7,0,-2
1558441877796655,-3,-4,-1,0,-3,1,-17,-4
1558441877803615,1,1,1,3,-3,-6,-1,1
1558441877803615,0,2,-2,-3,3,4,6,4
1558441877810581,-4,-1,-4,-2,-2,1,-6,-4
1558441877810581,1,0,-2,-6,-10,-2,2,1
1558441877825453,0,0,2,7,11,2,2,2
1558441877825453,0,-2,3,-2,-10,-7,-5,-4
1558441877833211,-2,-5,-14,-8,1,4,4,0
1558441877833211,-3,-1,-3,-4,-1,0,-4,-4
1558441877848397,0,0,4,-2,2,5,2,3
1558441877848397,-1,-3,-2,11,-3,-4,-1,0
1558441877856374,0,1,1,-4,1,4,2,-1
1558441877856374,1,0,4,4,7,2,-4,-2
1558441877863344,2,0,-1,0,-6,-14,0,-2
1558441877863344,0,-1,4,-1,3,4,-5,-2
1558441877870116,0,3,-2,-3,-7,0,0,-1
1558441877870116,-3,-4,-3,-5,-6,-5,-5,0
1558441877885097,-1,0,1,1,1,-4,0,1
1558441877885097,-2,-1,-3,-6,-3,-6,-1,-1
1558441877894148,-3,-3,2,9,-1,6,-1,-2
1558441877894148,0,0,0,-13,-1,0,1,0
1558441877908217,1,0,-5,5,7,2,-1,0
1558441877908217,-3,-2,-5,-14,-8,-4,-2,-3
1558441877915987,-1,-5,3,-1,-8,-9,-7,-4
1558441877915987,0,4,-3,3,3,0,5,2
1558441877922966,-3,-3,2,-1,-8,-8,-8,-3
1558441877922966,-2,0,-5,-5,1,1,-1,0
1558441877929947,-3,-2,-2,1,3,1,2,0
1558441877929947,1,0,6,3,2,0,4,0
1558441877946102,0,0,-3,-6,-3,0,0,0
1558441877946102,0,-4,-6,0,-2,-1,-4,-1
1558441877953882,-2,-2,0,-1,-4,-4,0,-1
1558441877953882,1,-1,1,5,1,4,-4,0
1558441877967845,-1,-3,-2,-11,-2,-3,-3,-2
1558441877967845,-2,-3,5,3,1,-3,-1,-1
1558441877975824,1,-2,-2,0,0,5,3,0
1558441877975824,-1,1,-5,-5,-8,-3,-3,-3
1558441877991065,-4,1,-1,2,1,7,-8,-4
1558441877991065,0,-2,-2,-3,0,5,3,3
1558441877991784,1,2,4,2,9,4,3,1
1558441877991784,-4,-8,-1,-2,-5,-4,1,-3
1558441878006009,0,1,-1,-2,0,-4,2,0
1558441878006009,-2,-3,-6,-5,-7,-5,-4,-7
1558441878014098,-3,-1,1,-4,-10,-11,-10,-3
1558441878014098,2,2,-1,2,4,3,11,6
1558441878027686,1,0,-3,-4,0,-2,-6,0
1558441878027686,-2,1,4,0,0,7,5,1
1558441878035859,-2,-4,-7,-1,-3,-4,-4,-4
1558441878035859,0,-1,1,4,5,-2,-1,0
1558441878051641,3,-1,1,1,-1,-5,-1,0
1558441878051641,0,-1,-4,-10,-3,-14,-3,-1
1558441878051641,2,-1,-4,0,2,7,-1,-2
1558441878051641,-4,0,3,-1,-1,0,-8,-4
1558441878065605,-4,-1,0,4,-4,-1,-3,-2
1558441878065605,1,0,-6,4,4,8,2,0
1558441878073596,3,2,4,-1,4,1,9,4
1558441878073596,-1,-1,-8,-4,1,-13,0,0
1558441878087746,-2,-2,1,-1,-9,3,-5,-3
1558441878087746,-3,-1,2,2,-5,-11,-4,-3
1558441878095538,-1,0,2,0,3,8,5,1
1558441878095538,2,0,0,1,5,1,3,1
1558441878110495,-2,-2,-1,-2,2,2,-3,-2
1558441878110495,1,0,6,3,5,-4,0,1
1558441878118472,-3,-2,-7,-2,-7,-6,-5,-5
1558441878118472,0,0,-2,-2,-7,2,1,-2
1558441878125425,-3,-1,-2,2,4,7,5,0
1558441878125425,-2,-2,-1,2,2,-2,-6,-2
1558441878133405,0,2,2,-1,1,-1,-1,1
1558441878133405,2,2,-1,3,3,2,-10,-2
1558441878147367,-3,-4,-3,-8,-10,-3,2,-1
1558441878147367,0,-1,2,-1,-1,10,2,0
1558441878156342,-3,-5,-8,-1,-7,-12,-9,0
1558441878156342,-2,-3,-3,-3,-1,4,-2,1
1558441878171741,-2,1,3,3,2,8,5,-1
1558441878171741,-2,-2,-5,-10,-4,-4,-2,-2
1558441878172300,-1,-1,1,0,-3,0,-1,0
1558441878172300,3,2,3,2,6,1,-1,0
1558441878185719,-2,-2,-2,-9,-4,-6,3,1
1558441878185719,-2,-4,-1,5,-1,0,-1,0
1558441878194336,0,1,1,0,-5,-15,-6,0
1558441878194336,-1,1,-2,-4,-4,-4,-1,-3
1558441878208592,-1,-1,0,-6,0,3,2,1
1558441878208592,-4,-3,-4,3,-2,4,-3,-6
1558441878216184,-1,1,4,2,11,13,6,2
1558441878216184,-2,-3,-3,-8,-9,-10,-3,0
1558441878231512,2,-1,-3,0,-2,-5,-7,0
1558441878231512,0,-1,-8,-4,-4,-2,-4,-1
1558441878231512,-4,-2,-1,-2,-7,-1,1,-2
1558441878231512,-2,-1,5,5,8,6,5,3
1558441878262059,-1,0,-4,-11,-10,-23,-7,-3
1558441878262059,1,-1,-1,5,5,8,2,1
1558441878262059,-1,0,4,-2,0,5,0,-2
1558441878262059,-2,-5,-12,-5,-7,-7,-1,-3
1558441878268044,2,3,1,6,4,-4,4,2
1558441878268044,-2,1,3,-2,-3,-5,-3,-2
1558441878276023,-2,0,-6,3,6,5,5,0
1558441878276023,-3,-1,-3,-14,-3,6,-1,-1
1558441878291013,0,-1,3,3,2,4,4,1
1558441878291013,0,2,1,2,3,1,2,-1
1558441878291980,-1,-1,5,-1,-6,3,-4,-4
1558441878291980,0,-2,-2,2,-3,4,-4,-5
1558441878305274,-1,-3,-4,-3,4,8,8,0
1558441878305274,0,2,-7,0,5,3,3,3
1558441878313526,-2,-2,2,-2,-6,-7,-7,-4
1558441878313526,-2,-1,3,-2,0,-1,5,-2
1558441878328211,-3,-2,-10,1,-5,-12,-4,0
1558441878328211,-4,-4,-2,-1,0,-1,-2,-2
1558441878336455,1,-1,-3,-3,6,6,-1,0
1558441878336455,2,0,1,2,-2,-6,-4,-2
1558441878351150,0,-1,5,3,2,1,-8,-3
1558441878351150,-1,0,-3,-4,0,7,8,3
1558441878351150,-1,-1,1,9,-3,-8,-7,-5
1558441878351150,-2,1,2,-4,1,10,3,2
1558441878365113,-2,-3,0,-2,-3,-6,-3,-2
1558441878365113,-2,1,3,-2,-6,-3,-5,-2
1558441878373093,-3,-5,-6,-9,-2,-8,-6,-3
1558441878373093,0,-2,2,8,6,10,4,-2
1558441878388524,0,0,-4,-4,-1,-5,-5,-2
1558441878388524,0,-2,0,-1,1,-9,1,0
1558441878396030,-1,-1,-1,-2,-3,-11,0,-1
1558441878396030,-2,-2,0,-1,-6,-1,-5,-4
1558441878410991,-1,-2,1,2,1,5,0,1
1558441878410991,0,-1,-5,-11,-3,-4,-1,2
1558441878411992,0,-1,-2,3,0,-1,-2,1
1558441878411992,1,0,-3,1,0,-9,3,4
1558441878426072,-1,-1,3,6,-1,8,4,-4
1558441878426072,-2,-2,-3,-8,-10,-6,-5,-2
1558441878433386,-1,-1,5,1,4,7,1,1
1558441878433386,-4,-2,-8,-6,-3,-9,-1,1
1558441878448572,-1,0,-1,5,3,5,-4,-1
1558441878448572,0,0,5,8,9,-3,6,3
1558441878456780,-1,-1,-1,-6,-5,1,-3,-5
1558441878456780,0,-2,2,1,-3,-6,-9,-4
1558441878471631,-3,0,-4,-8,-5,2,5,0
1558441878471631,-2,0,-6,-4,-8,-2,-9,-6
1558441878471631,1,-1,5,5,1,-1,-1,1
1558441878471631,3,1,-2,-5,0,-18,2,5
1558441878485468,-2,-4,-4,-9,-1,-2,-10,-4
1558441878485468,1,0,3,3,4,10,2,-1
1558441878493494,-3,-2,-7,-3,-8,0,0,0
1558441878493494,-2,-1,2,2,-3,-1,-5,-2
1558441878508447,-1,2,-1,-1,1,-2,-3,-3
1558441878508447,0,0,6,2,-2,-8,-1,-2
1558441878516167,2,0,-2,0,10,12,7,1
1558441878516167,-2,-3,-5,-2,-8,-6,-8,-5
1558441878531123,0,-3,9,3,4,0,1,3
1558441878531123,0,-3,-4,-3,-4,-2,-8,-3
1558441878531123,-1,-2,-2,3,5,-9,-6,1
1558441878531123,2,2,4,-1,-5,-1,-2,0
1558441878545112,-3,-1,-5,-1,-7,4,1,-2
1558441878545112,3,1,4,4,7,-1,8,2
1558441878554204,-2,-1,-3,-5,0,-6,-1,1
1558441878554204,-6,-4,-11,-4,-7,10,-2,-5
1558441878568025,2,0,3,5,3,-3,-1,-3
1558441878568025,0,0,-2,-1,-5,-7,7,3
1558441878576339,-2,1,-1,-1,1,8,4,-1
1558441878576339,-2,1,4,2,-1,-3,-4,-3
1558441878590967,-1,-5,-4,-6,-6,-2,-8,-4
1558441878590967,-4,-1,-1,2,1,4,1,0
1558441878591961,-1,0,-2,-6,-4,-12,-1,-1
1558441878591961,0,-2,3,4,9,4,7,4
1558441878605012,-1,1,-1,4,-2,-14,-8,0
1558441878605012,-3,-4,-8,-15,-6,4,-3,-4
1558441878613234,-1,-1,-4,-4,-6,-4,-2,-2
1558441878613234,3,3,7,1,5,3,7,2
1558441878627866,0,-1,1,9,8,0,2,2
1558441878627866,-1,-2,-2,-4,-5,-4,-8,-1
1558441878636166,-2,0,-4,-2,-6,1,-2,-4
1558441878636166,-6,-5,-7,-7,-6,0,-5,-6
1558441878651160,-3,-1,0,1,0,0,1,-2
1558441878651160,-2,-1,-2,0,-2,1,-3,0
1558441878651807,-1,-1,2,-1,-1,5,2,0
1558441878651807,1,3,5,5,6,-11,-2,2
1558441878665081,-2,-2,-8,-8,-10,-1,-5,-4
1558441878665081,-4,-6,2,-1,0,1,1,-4
1558441878672822,2,0,-2,0,4,2,3,0
1558441878672822,-2,-2,-1,-1,-7,3,1,-1
1558441878687705,-2,2,3,1,4,-6,-2,1
1558441878687705,-1,-1,-2,-2,-4,1,2,-1
1558441878696680,0,-1,-4,0,-4,-6,-7,-1
1558441878696680,-4,-3,1,-1,1,1,-2,-3
1558441878711983,-1,-4,-7,-7,-1,0,-3,0
1558441878711983,1,0,1,2,2,-1,-3,0
1558441878711983,0,-2,-2,1,0,-1,4,-1
1558441878711983,0,1,5,2,0,-5,-2,-1
1558441878733585,-3,0,-9,-7,-4,-1,-5,-3
1558441878733585,-2,-2,-1,3,-2,-2,-3,-1
1558441878733585,0,-2,2,5,3,2,-2,1
1558441878733585,-3,-1,4,-11,-1,0,-3,-3
1558441878747849,0,3,-2,1,3,7,6,1
1558441878747849,-1,2,5,2,5,-6,1,1
1558441878755542,-1,-1,-1,2,-2,1,-4,-3
1558441878755542,0,-1,-6,-4,-2,5,1,1
1558441878770485,1,-1,4,-10,0,-15,-3,0
1558441878770485,0,0,-1,4,-3,4,-4,-1
1558441878778771,-3,-3,-4,-6,-4,-1,-5,-3
1558441878778771,-1,0,-3,2,3,-6,0,3
1558441878785742,-4,-3,1,-3,-1,12,9,-1
1558441878785742,-2,-3,-6,-1,-7,-10,-7,-4
1558441878793539,-1,2,4,0,3,-2,-1,0
1558441878793539,1,2,-2,1,2,2,1,1
1558441878808427,2,2,1,4,-4,0,-3,1
1558441878808427,-1,-2,-3,-2,-1,-2,0,0
1558441878816359,-2,2,-2,1,0,1,6,1
1558441878816359,-6,-6,-4,-1,1,9,-8,-6
1558441878830628,0,-2,4,7,-2,-3,-2,-4
1558441878830628,0,1,-1,-12,-3,-1,3,-2
1558441878838589,-1,0,-6,-5,-1,-3,5,1
1558441878838589,-3,0,-6,-3,-1,-12,0,1
1558441878845584,0,0,5,3,0,5,3,0
1558441878845584,-1,0,-2,-4,-5,-11,-10,-3
1558441878853544,-2,-3,-3,-5,1,5,-3,-1
1558441878853544,1,0,2,0,0,9,6,1
1558441878869219,-4,-2,-4,-2,-3,-7,-2,-4
1558441878869219,-2,-1,-2,2,-2,-6,-2,-4
1558441878876427,2,1,5,-1,2,-3,1,-1
1558441878876427,-2,0,-2,2,2,-1,3,-1
1558441878890195,0,-3,0,0,2,8,5,0
1558441878890195,-1,-1,-3,1,1,2,3,3
1558441878898406,1,2,-3,-2,-2,8,0,2
1558441878898406,-2,-3,4,4,1,2,-4,-3
1558441878914140,-1,-2,-6,-3,-4,-8,-4,-1
1558441878914140,-4,-1,4,2,1,-11,-1,0
1558441878914140,-1,-4,-5,-7,-4,-1,-1,-3
1558441878914140,0,-1,-4,2,-7,-9,-5,-1
1558441878928319,-1,0,0,-5,1,5,-1,4
1558441878928319,1,0,1,3,2,6,0,0
1558441878936042,0,-1,-1,1,-1,-2,0,-1
1558441878936042,-1,1,-2,0,-2,3,2,-2
1558441878950007,-3,-3,-1,3,-3,-2,-8,-4
1558441878950007,0,0,-3,-8,4,7,3,2
1558441878958013,-2,-1,2,-5,-6,-1,-4,-3
1558441878958013,-1,0,0,-4,2,5,2,0
1558441878973939,-2,-4,-8,0,-4,-11,-4,-4
1558441878973939,-2,-1,-1,0,-3,-2,-8,-4
1558441878974936,-1,0,2,4,3,4,3,1
1558441878974936,1,0,-2,-1,1,1,-3,-3
1558441878988238,-1,0,1,-2,2,3,4,2
1558441878988238,-2,-2,2,-1,-2,-20,-6,0
1558441878996232,-2,-1,-1,-1,-1,3,-2,-3
1558441878996232,-3,-6,-8,-2,-12,-2,-10,-7
1558441879011067,0,0,-3,-9,2,-1,-1,1
1558441879011067,3,1,7,14,10,4,6,5
1558441879019163,-4,-3,-7,-17,-11,-14,-9,-5
1558441879019163,1,1,-1,7,8,0,5,3
1558441879033779,-3,3,-3,-3,-5,5,-1,-2
1558441879033779,-4,-4,-4,-5,-3,11,1,-5
1558441879034807,1,-3,-2,5,1,4,2,2
1558441879034807,2,2,7,9,7,-10,1,3
1558441879056780,2,1,-1,-2,4,-9,8,2
1558441879056780,-2,-4,-3,0,-8,-4,-4,-3
1558441879057983,-3,-1,5,3,-4,7,-5,-3
1558441879057983,-2,-5,-14,-2,-13,-10,-9,-5
1558441879070991,1,2,5,-6,5,1,2,3
1558441879070991,-2,1,-3,0,1,5,3,0
1558441879078943,-1,-3,-5,-1,-3,-3,-3,-3
1558441879078943,1,-2,4,0,5,4,3,2
1558441879093882,-1,-2,2,6,-2,-3,-6,-4
1558441879093882,2,-1,2,1,9,4,9,5
1558441879093882,-2,-1,0,-5,-5,-8,0,-3
1558441879093882,-1,-1,-2,-7,-6,-4,-2,-3
1558441879107827,-2,-2,-3,1,-2,-3,-7,-4
1558441879107827,0,0,-5,-7,-3,9,0,-2
1558441879115565,-2,-4,-1,2,1,-11,-4,-1
1558441879115565,1,2,-1,-11,-2,1,2,2
1558441879130776,-1,-2,0,6,1,0,0,-1
1558441879130776,-4,-2,-2,-5,-1,-9,-1,-3
1558441879138501,-3,0,4,2,-2,-8,-3,1
1558441879138501,-3,-4,-3,-4,-14,-9,-8,-7
1558441879153461,-1,-1,3,1,7,17,6,2
1558441879153461,4,1,-5,-2,-2,-5,-10,-2
1558441879154459,1,0,3,5,-2,-10,5,1
1558441879154459,0,-2,-6,-7,8,17,11,3
1558441879169417,-4,-2,4,2,-3,-1,-8,-4
1558441879169417,-2,-3,0,0,-7,3,1,-4
1558441879175400,1,-4,-11,-5,1,-3,-2,-3
1558441879175400,0,4,5,1,1,4,-2,1
1558441879190359,-2,-5,-6,-3,3,0,-1,-3
1558441879190359,-3,-2,2,1,-5,1,-5,-2
1558441879198339,1,-1,0,-7,-1,-3,-1,0
1558441879198339,0,-1,0,-5,0,-8,-1,3
1558441879213297,4,5,4,6,6,0,17,6
1558441879213297,-3,-3,3,2,-3,-5,-5,0
1558441879214330,-4,-2,-6,-7,-6,5,-5,-2
1558441879214330,-3,-2,-3,2,1,-1,-1,-2
1558441879227260,-2,-1,-1,-3,-5,-12,-10,-3
1558441879227260,-1,-1,1,3,4,3,2,0
1558441879236305,0,-1,2,5,4,2,2,1
1558441879236305,-1,-1,-2,-1,0,3,2,0
1558441879250200,-4,-5,1,0,-13,-5,-8,-5
1558441879250200,2,1,-7,-9,-3,-3,-3,0
1558441879259209,3,-2,5,0,-3,-12,0,1
1558441879259209,-2,-2,-5,-5,8,8,2,0
1558441879273584,-1,-1,-1,1,-5,-7,-2,-2
1558441879273584,-1,1,5,5,4,6,0,-1
1558441879274137,-5,-4,-7,-8,1,5,-2,-7
1558441879274137,-3,1,1,0,-4,0,-4,-5
1558441879288579,1,-1,-6,-8,-9,-1,-1,0
1558441879288579,2,1,5,-2,8,-6,6,3
1558441879296514,-3,-2,-1,3,0,-3,-7,-3
1558441879296514,3,0,1,4,3,1,6,3
1558441879310406,-3,-3,-2,-11,-2,7,-6,-3
1558441879310406,-4,-4,-11,-6,-8,4,-5,-6
1558441879318829,2,3,4,3,4,-10,7,5
1558441879318829,-1,-2,0,2,-4,-5,-6,-1
1558441879333445,0,-1,1,-7,-3,2,-1,-1
1558441879333445,0,-4,-5,1,3,3,1,1
1558441879334438,1,4,4,9,10,18,4,3
1558441879334438,-5,-5,2,-4,-10,-5,-7,-4
1558441879347405,-4,1,-7,0,1,-15,-7,1
1558441879347405,-4,-2,-2,-5,-10,-4,-4,-3
1558441879356381,0,1,-2,0,-3,-2,0,-1
1558441879356381,4,1,2,1,7,1,2,2
1558441879370374,4,-2,3,4,2,1,4,1
1558441879370374,0,-1,0,-1,-3,-5,-1,-1
1558441879378319,-2,-2,-5,-11,-7,3,-1,-1
1558441879378319,1,2,-2,3,4,2,-1,0
1558441879401285,-2,-1,-4,-9,-6,-2,-3,-3
1558441879401285,0,0,5,6,3,-7,4,2
1558441879402254,-2,-1,-3,1,-5,2,-10,-5
1558441879402254,-3,-4,-7,-6,-5,0,5,0
1558441879407242,3,5,11,6,13,7,12,7
1558441879407242,-2,-3,-2,-3,-3,1,-6,-3
1558441879416219,-1,0,0,2,-2,-7,-2,-1
1558441879416219,-2,-5,-5,-6,-5,-3,-6,-5
1558441879430553,-1,-4,-8,-4,-4,5,1,-4
1558441879430553,0,2,5,3,0,-5,-6,0
1558441879438536,0,0,-1,-5,0,-8,0,-2
1558441879438536,-2,3,6,8,2,-7,-1,-3
1558441879454149,-1,-3,-9,-13,-1,2,4,0
1558441879454149,-3,-2,-3,-2,-3,1,-1,-4
1558441879454149,-3,-1,-1,3,1,3,-1,0
1558441879454149,1,2,0,7,0,-15,-4,1
1558441879468080,-1,0,6,1,2,2,-2,-1
1558441879468080,-2,-2,-10,-9,-8,-5,-4,-5
1558441879476396,-3,-2,-1,5,-5,6,-3,-2
1558441879476396,-1,-2,-5,-7,3,8,6,3
1558441879490349,-2,-2,1,2,3,-2,2,-1
1558441879490349,1,1,-1,-2,-1,-12,-2,0
1558441879498337,0,1,-1,1,6,10,-3,0
1558441879498337,0,-4,-1,-3,-5,6,3,0
1558441879514109,-1,-1,2,6,-10,-6,-10,-6
1558441879514109,1,2,-6,2,7,5,4,0
1558441879514109,-2,-2,1,1,7,2,7,2
1558441879514109,-2,0,2,-2,-1,-5,-5,-3
1558441879528201,-5,-6,-10,-1,-6,4,-1,-4
1558441879528201,0,-1,1,0,-4,-4,-1,0
1558441879536189,2,-1,-1,-1,-3,-12,-2,-1
1558441879536189,-2,-1,2,-2,0,6,-1,-1
1558441879550994,-2,1,0,2,-5,-2,-2,-4
1558441879550994,-4,-2,0,-2,-1,4,0,-2
1558441879559194,-1,-2,-6,-3,3,2,0,-1
1558441879559194,-2,-2,-3,-1,-7,-11,-5,-3
1558441879574154,-1,0,-1,-6,-5,2,3,0
1558441879574154,-2,-3,-1,1,-3,-8,0,0
1558441879574154,-1,-1,2,-5,-1,-6,-3,-1
1558441879574154,-2,-2,-3,-4,-9,-9,-7,-4
1558441879589084,-1,-1,-1,7,6,4,-6,-2
1558441879589084,1,-1,-1,-1,1,7,-1,0
1558441879596321,0,-1,-3,-9,-10,-8,-3,0
1558441879596321,-2,-2,0,3,2,1,3,0
1558441879610353,-1,-4,-5,-6,-4,-12,-3,1
1558441879610353,0,1,6,3,10,8,2,0
1558441879619060,-3,-7,-10,-1,-10,1,0,-3
1558441879619060,0,2,3,-2,6,5,4,2
1558441879632963,1,2,7,4,-2,-7,0,1
1558441879632963,-5,-6,-14,-3,-3,-3,-2,-2
1558441879635000,0,1,2,-6,-5,0,-10,-3
1558441879635000,-5,-4,-5,-2,-10,-3,-2,-4
1558441879648454,3,1,3,2,13,11,11,6
1558441879648454,1,1,1,-3,0,-3,0,0
1558441879656432,-2,-1,4,8,2,3,-1,-1
1558441879656432,0,-1,-2,0,0,-7,-4,-2
1558441879670395,2,1,6,5,2,5,2,-1
1558441879670395,-3,-3,-4,-1,-3,2,-6,-5
1558441879679232,-2,-1,-1,-3,-4,0,-1,-3
1558441879679232,2,1,3,-1,2,1,-1,0
1558441879693409,0,0,-9,-2,3,-2,3,1
1558441879693409,-4,0,-4,-5,-6,-1,-1,-1
1558441879701737,-2,-1,1,2,-2,-5,0,0
1558441879701737,-2,-6,1,-1,-1,3,-6,-5
1558441879707477,-4,-1,-1,-4,-4,-3,-4,-3
1558441879707477,3,2,7,5,8,-1,7,6
1558441879716352,1,-1,-4,-2,0,-1,-3,-1
1558441879716352,2,3,-4,-9,-10,-16,-9,-1
1558441879730625,-2,-5,1,9,5,11,0,0
1558441879730625,-2,-1,2,-6,1,5,-1,-1
1558441879738523,-1,-1,-5,-4,1,3,4,3
1558441879738523,0,2,-1,3,2,-7,1,2
1558441879753419,-2,0,-5,-8,-11,-9,-8,-5
1558441879753419,-2,-1,1,-1,-2,-4,0,-1
1558441879761466,-2,0,1,0,1,1,0,-3
1558441879761466,1,2,-1,2,-1,-2,-5,-2
1558441879767216,-4,-1,0,4,3,4,1,0
1558441879767216,-1,-2,1,-3,-1,1,2,0
1558441879776421,-2,-2,-2,0,-2,-1,-1,0
1558441879776421,-1,0,-1,-4,-2,4,5,-1
1558441879790157,0,1,6,8,4,-6,-4,-1
1558441879790157,1,-2,-7,-9,-7,-1,-2,-4
1558441879798132,2,3,7,5,6,2,6,2
1558441879798132,-4,-5,-1,0,3,15,0,0
1558441879813459,-1,0,-7,-10,-9,-4,-1,-1
1558441879813459,1,2,1,4,-1,-16,-6,1
1558441879821431,1,1,-1,-3,8,-4,3,2
1558441879821431,-3,-3,0,-1,-5,4,-2,-4
1558441879828421,-2,-5,-5,-2,-6,-14,-6,-5
1558441879828421,2,1,-3,0,0,7,0,-1
1558441879836384,0,-1,0,3,10,4,5,3
1558441879836384,0,1,3,0,4,0,1,1
1558441879851094,-2,2,2,-2,-2,1,-2,-1
1558441879851094,-2,-4,-4,-3,-10,-5,-6,-4
1558441879859274,-2,-5,-3,-1,-7,-8,-3,-1
1558441879859274,0,-1,-9,-6,-4,1,-1,-1
1558441879873320,2,-1,0,-1,-2,0,-5,-1
1558441879873320,-1,0,0,-1,4,5,10,1
1558441879881271,0,2,2,2,1,2,4,2
1558441879881271,-5,-4,-4,-5,-5,-3,-2,-3
1558441879897228,1,-1,-2,-5,-1,-8,-3,3
1558441879897228,0,0,1,4,2,2,-3,-3
1558441879897228,1,-1,2,0,-2,-3,2,0
1558441879897228,-1,0,2,2,-3,-2,2,-3
1558441879911010,-3,-5,-6,-1,0,5,1,0
1558441879911010,-3,-3,-2,-2,-4,4,-3,-2
1558441879919056,0,4,7,4,-2,-8,-7,-2
1558441879919056,0,0,-5,-4,9,9,7,3
1558441879932773,-2,-5,-11,-5,-5,-13,-4,-4
1558441879932773,-2,0,7,2,-1,1,3,-2
1558441879941754,-2,-6,-6,-5,-7,2,-8,-7
1558441879941754,-1,2,1,2,-5,-5,-6,-5
1558441879955715,0,-3,-7,-4,7,15,7,1
1558441879955715,-1,-1,-1,-1,0,-6,-3,-3
1558441879962694,-2,-1,-2,-3,-7,-3,-5,0
1558441879962694,0,-1,2,2,4,-2,0,-1
1558441879970674,-2,3,6,2,-2,-6,-6,-2
1558441879970674,-2,-2,-6,-2,1,7,2,-1
1558441879978651,-2,1,-2,-8,-5,2,-1,-4
1558441879978651,-1,0,-8,-3,-9,-15,-7,-3
1558441879992874,0,-2,-2,1,-2,-2,-3,-2
1558441879992874,-1,0,3,-1,2,-1,1,3
1558441880001687,-3,1,0,3,4,3,-1,-2
1558441880001687,-3,-3,-8,-5,-2,-1,-6,-2
1558441880015650,0,2,3,4,2,-7,6,4
1558441880015650,0,-3,-1,-2,-7,-7,-6,-1
1558441880023180,0,0,-1,-8,-2,0,-4,-3
1558441880023180,-1,-2,1,0,-1,2,0,0
1558441880030549,0,2,-1,-2,2,3,7,-1
1558441880030549,-2,0,-2,-1,-3,-4,1,2
1558441880039141,-3,-6,-6,-2,-2,-11,-2,0
1558441880039141,0,-2,6,5,1,5,2,0
1558441880053518,-1,-1,-7,-10,-8,-3,-5,-4
1558441880053518,1,-2,3,6,2,4,6,1
1558441880062080,1,1,-1,4,6,11,7,1
1558441880062080,-1,2,2,-1,5,2,2,3
1558441880075178,0,-3,0,2,4,8,2,-1
1558441880075178,0,-3,-2,-10,-12,-16,-13,-5
1558441880084065,-2,-5,-12,-5,-1,-5,-1,1
1558441880084065,0,-1,1,3,-1,-5,0,-1
1558441880090109,0,-1,1,-1,-2,0,-5,-2
1558441880090109,-2,-1,-3,-2,1,3,4,0
1558441880098983,1,0,10,3,1,1,2,0
1558441880098983,0,-4,-13,-6,-4,5,-2,2
1558441880113263,-1,0,5,4,0,-7,3,0
1558441880113263,-5,1,-14,-16,-6,-3,-8,-5
1558441880121922,-2,-4,2,-1,-5,-1,-1,-2
1558441880121922,-2,3,0,4,1,-5,3,2
1558441880144859,0,0,1,-5,0,3,-2,-2
1558441880144859,-1,-2,-1,9,7,13,5,0
1558441880145858,-2,0,-2,-4,-8,-7,-3,-3
1558441880145858,-1,-2,5,-1,-4,-4,-6,-3
1558441880149848,0,-4,-1,0,-1,1,-2,2
1558441880149848,1,-1,3,4,-2,-1,-3,-3
1558441880159070,-1,-2,3,2,-1,4,-3,-1
1558441880159070,-2,-4,-10,-12,-1,-8,-1,-1
1558441880172785,0,1,1,-1,1,-1,-6,0
1558441880172785,-1,0,-1,0,3,-5,-2,0
1558441880181761,0,-2,-3,0,-1,-2,0,-1
1558441880181761,-2,0,1,2,-2,4,-3,-4
1558441880194724,-3,-2,-6,-5,-3,2,0,-1
1558441880194724,0,0,5,3,5,-4,1,2
1558441880203702,0,1,2,0,2,4,0,-2
1558441880203702,-1,0,-1,2,-2,5,-2,-2
1558441880211069,-2,0,-2,-5,-6,-3,0,-3
1558441880211069,0,0,3,9,5,2,4,-2
1558441880219348,-1,-2,-6,-5,-7,-13,-3,-2
1558441880219348,1,-4,1,-5,-3,-12,-6,-3
1558441880233119,3,-1,4,6,10,10,7,2
1558441880233119,-2,-2,-4,-2,-5,5,-3,-4
1558441880241097,1,0,-5,-3,4,5,-1,-2
1558441880241097,1,2,1,3,0,-5,4,1
1558441880255060,-3,-2,-3,-8,-8,-10,-5,1
1558441880255060,-2,0,-3,-4,1,-2,-5,1
1558441880264036,-4,-3,-4,-2,-6,-4,-4,-2
1558441880264036,-1,-2,4,9,0,3,-1,-1
1558441880270021,-1,0,-2,-10,-1,-3,2,0
1558441880270021,0,-2,-1,-5,-4,-10,-3,-3
1558441880278996,-3,-5,-2,-1,-2,3,0,0
1558441880278996,-2,-1,-3,-5,1,-1,0,-1
1558441880302313,0,-1,3,5,2,2,1,0
1558441880302313,-2,-2,-2,-3,-7,-1,-6,-1
1558441880302946,-1,-1,-8,2,4,-7,-3,-1
1558441880302946,-2,-4,-5,-9,-8,-9,-5,2
1558441880315277,0,3,-3,2,1,-2,5,-1
1558441880315277,0,-2,-2,-2,-8,-12,-6,-6
1558441880324226,2,1,4,4,16,23,12,4
1558441880324226,-1,1,1,-1,-2,-8,-3,-2
1558441880330970,-5,-6,-5,-5,-9,3,-9,-6
1558441880330970,2,3,5,3,-3,1,-1,1
1558441880338837,1,0,1,0,1,-14,2,3
1558441880338837,0,-1,-2,-1,3,6,4,0
1558441880353316,1,0,3,4,4,-2,-1,2
1558441880353316,-2,-2,-4,-1,-1,4,3,0
1558441880361777,-1,0,1,1,-9,-5,-11,-4
1558441880361777,-2,3,4,0,0,9,4,2
1558441880376036,0,-1,-2,-7,-5,-14,0,0
1558441880376036,-3,-2,-6,-4,-2,9,-2,1
1558441880383718,0,3,2,4,-1,-7,1,1
1558441880383718,-2,2,4,6,4,-3,0,-2
1558441880389703,-5,-1,-2,4,1,2,-1,-3
1558441880389703,-4,-1,-2,-2,-1,0,-4,-2
1558441880398728,-5,-3,-4,-2,-11,-9,-8,-8
1558441880398728,-1,-3,3,3,2,8,5,-1
1558441880421945,1,-1,-3,-4,2,0,1,2
1558441880421945,-1,-1,0,-4,-2,-9,4,0
1558441880422673,-2,-2,-2,-4,-4,3,-3,-3
1558441880422673,-1,1,-5,-2,-2,6,3,0
1558441880435976,0,0,2,0,6,-4,0,1
1558441880435976,-1,-1,-3,-3,1,1,-3,-1
1558441880444648,0,-4,-2,-3,-7,-1,-5,-2
1558441880444648,1,-2,-2,-6,-2,-6,0,3
1558441880449606,0,-2,3,5,-6,-8,-5,-3
1558441880449606,1,0,-4,-5,0,-4,2,0
1558441880458921,-1,0,1,-4,3,-7,0,2
1558441880458921,-1,0,-2,-3,-1,1,-3,-2
1558441880472876,-2,-2,-5,4,-5,1,-2,-4
1558441880472876,-1,-1,6,4,7,5,0,1
1558441880481739,2,1,1,1,-4,-1,2,2
1558441880481739,-2,-4,-2,-5,-4,-5,-3,-1
1558441880495766,-3,-1,-4,-2,0,-2,-1,-2
1558441880495766,-1,0,2,-3,-2,2,-3,-3
1558441880504464,-1,-2,-3,2,2,-2,0,1
1558441880504464,-1,-1,2,3,6,1,-1,-1
1558441880510706,-2,0,-4,1,-1,9,2,0
1558441880510706,-2,-6,-4,-7,-6,-7,-6,-3
1558441880519452,1,1,0,-4,3,-9,2,4
1558441880519452,-1,0,1,4,-3,-9,-4,-3
1558441880532388,-3,0,2,-1,0,10,0,-1
1558441880532388,0,-1,-1,0,1,0,4,2
1558441880541618,-3,-1,0,2,1,8,-3,-4
1558441880541618,-1,-3,-1,-8,-8,-14,-1,-2
1558441880555577,3,1,-5,-2,9,5,8,5
1558441880555577,-2,3,5,3,-6,-7,-7,-2
1558441880564303,-4,-8,-11,-3,3,8,6,0
1558441880564303,-3,-5,-5,-12,-5,-3,-3,-4
1558441880570544,-3,-3,-4,-4,-5,-3,-4,-2
1558441880570544,-2,1,0,1,-1,-5,0,-1
1558441880579263,1,-1,3,0,-4,-7,-4,-2
1558441880579263,-1,-1,-4,4,1,7,-4,-4
1558441880593398,1,1,9,9,-1,-10,1,-2
1558441880593398,2,0,-6,-7,4,2,1,1
1558441880601200,1,1,2,-1,6,10,7,3
1558441880601200,-1,-1,-6,0,-1,6,-2,0
1558441880615162,-2,-1,4,-1,-8,-4,-12,-3
1558441880615162,-3,-5,-10,-3,-1,1,0,0
1558441880624138,-3,-1,-3,0,2,3,2,-4
1558441880624138,2,-1,2,0,1,0,-1,1
1558441880630121,0,1,2,-2,-4,-5,2,0
1558441880630121,-1,-6,-4,-5,-5,-3,-3,-3
1558441880639097,0,-1,2,7,6,2,2,-1
1558441880639097,-2,0,-2,-7,-7,-3,-2,-4
1558441880653530,0,-3,-6,-3,-5,-8,-8,-4
1558441880653530,0,-1,0,5,5,12,9,3
1558441880661075,-3,0,0,-5,-4,-14,-2,-2
1558441880661075,1,-1,5,8,3,2,1,0
1558441880675035,-1,-1,-3,-2,-3,-3,1,-3
1558441880675035,1,2,0,-2,-4,-4,-2,-2
1558441880683978,-2,0,-1,-4,-2,4,-4,1
1558441880683978,-2,1,-3,0,4,6,4,4
1558441880690995,-4,-4,-5,-6,3,4,0,-1
1558441880690995,-1,-1,7,8,4,-9,1,-1
1558441880698939,-1,2,-2,-13,-13,-9,-8,-5
1558441880698939,0,-4,-5,-1,1,4,3,-1
1558441880713354,-2,-3,-2,-3,5,11,4,0
1558441880713354,-3,-1,5,8,2,2,-2,-1
1558441880721877,-2,-2,-3,-8,-6,-3,-1,-2
1558441880721877,0,0,-1,3,2,-6,0,1
1558441880736187,1,-1,-2,-1,2,3,-1,-1
1558441880736187,-1,-1,-3,-3,-3,2,-3,-3
1558441880744287,1,0,3,0,-2,-8,1,-2
1558441880744287,-1,0,-4,-2,-2,1,-6,-5
1558441880749804,-4,-2,-1,1,-9,-19,-6,-4
1558441880749804,-1,0,6,3,8,1,10,1
1558441880759132,-3,-1,-8,-10,1,11,0,-2
1558441880759132,1,0,-1,-1,-4,-13,0,2
1558441880772856,1,0,4,1,1,3,-6,0
1558441880772856,2,2,-1,-2,-5,0,-3,-1
1558441880781754,-1,-3,-7,3,0,1,-5,-2
1558441880781754,-3,-1,-1,3,0,1,-2,3
1558441880794688,0,-2,1,-5,-4,-11,2,3
1558441880794688,-1,-1,-2,-6,-1,-1,0,1
1558441880819617,-2,1,0,3,-2,-5,-3,1
1558441880819617,-2,-2,0,-2,-3,-4,-7,-4
1558441880820613,0,0,2,1,2,7,2,0
1558441880820613,1,-3,2,0,-3,-2,-8,-5
1558441880821893,1,-4,-6,-2,-4,-8,-2,-1
1558441880821893,1,1,5,0,8,6,10,5
1558441880832612,-1,3,2,8,7,7,-2,-3
1558441880832612,-1,-1,-3,-16,-5,3,6,3
1558441880841558,-1,0,5,6,-1,2,0,-1
1558441880841558,-1,-2,-5,-4,-1,-3,1,0
1558441880855925,0,-1,0,3,0,-4,-1,0
1558441880855925,-1,-1,-2,2,-1,-7,-7,-3
1558441880863904,-1,-4,-2,1,-6,-1,-8,-5
1558441880863904,1,0,-1,-8,0,-1,1,1
1558441880878904,0,0,1,-1,0,-4,1,2
1558441880878904,2,1,-2,4,9,11,7,3
1558441880880877,-3,-3,-4,-4,-4,0,3,1
1558441880880877,-3,-5,-5,0,-5,0,-8,-5
1558441880892824,-3,-2,-4,-1,-6,-8,-6,-3
1558441880892824,-1,1,6,6,-1,-7,-5,-1
1558441880901800,0,2,-1,-1,-2,-6,-5,-1
1558441880901800,-1,-2,-1,1,-6,-4,-3,-4
1558441880914764,-2,-3,1,-4,4,12,6,0
1558441880914764,-1,-2,-12,-3,0,4,-2,0
1558441880923740,0,-1,4,4,7,5,8,3
1558441880923740,-3,-1,-1,-4,-4,-9,-8,-2
1558441880938760,0,-4,0,1,-5,-5,3,-3
1558441880938760,-2,-2,-3,-1,-4,-2,-4,-2
1558441880940760,3,3,-1,-1,7,8,3,2
1558441880940760,-3,-2,11,3,-7,-7,-6,-4
1558441880952664,-2,-5,-8,-1,1,0,-3,-1
1558441880952664,-1,-3,-6,-10,-4,-13,-4,-2
1558441880961640,0,0,2,8,4,8,3,1
1558441880961640,-1,-1,-7,-12,-2,1,1,0
1558441880974605,0,1,0,-2,1,7,-1,-2
1558441880974605,-1,-4,-3,-3,-7,-8,-6,-3
1558441880983583,-2,-1,2,0,3,1,-3,-3
1558441880983583,-2,-3,2,5,5,-3,3,2
1558441880998545,-3,2,-1,-5,-5,-6,-6,-1
1558441880998545,-2,-1,4,3,-5,-9,-5,-5
1558441881000536,0,-1,-3,-5,-8,-3,-4,-2
1558441881000536,-1,0,4,2,6,17,8,0
1558441881012506,0,-2,-6,-1,-4,-4,-3,1
1558441881012506,2,0,2,0,5,-11,7,3
1558441881021480,1,-1,-3,-6,-4,2,-5,-2
1558441881021480,-1,-1,3,12,2,-4,-3,-1
1558441881035503,0,2,3,-3,0,0,1,2
1558441881035503,-4,-4,-6,-6,-7,-3,-1,-2
1558441881044421,-2,-4,-5,2,2,2,0,-1
1558441881044421,-2,-1,-7,-15,-7,-2,-1,-4
1558441881059378,2,1,6,1,0,-13,0,1
1558441881059378,-1,0,-7,4,1,4,-2,0
1558441881060377,-4,-4,3,-2,-5,-14,-3,1
1558441881060377,0,0,-1,1,-3,2,-2,0
1558441881072346,-1,-3,-6,-3,-5,3,-1,-4
1558441881072346,0,-1,0,-2,4,10,0,0
1558441881081320,1,-2,3,6,7,-1,5,1
1558441881081320,0,-1,-2,-2,2,0,1,-1
1558441881095284,-2,-2,-4,-5,-10,-6,-7,-4
1558441881095284,-1,-3,-1,1,-3,-3,-2,-3
1558441881104262,0,0,-1,-1,-2,-8,-5,-2
1558441881104262,-1,-2,-4,2,1,1,7,1
1558441881119219,-2,-2,-9,-3,3,7,3,1
1558441881119219,0,1,3,3,1,10,1,1
1558441881120216,0,0,0,-1,-3,-6,-4,-1
1558441881120216,-1,-1,-1,4,-1,-4,-3,-2
1558441881133185,-2,1,-5,-18,-8,-5,-6,-3
1558441881133185,-1,-1,1,3,4,9,4,1
1558441881141160,0,0,-2,-5,-4,-9,2,1
1558441881141160,-2,0,1,4,0,3,-4,-3
1558441881155125,0,-3,0,5,0,6,-2,-3
1558441881155125,-1,1,1,-5,-6,-2,-1,-1
1558441881164099,0,1,4,5,12,11,4,3
1558441881164099,0,-1,-6,-5,-3,2,-3,-2
1558441881179059,-1,-1,6,4,2,-16,-4,0
1558441881179059,-1,-2,-4,-1,4,15,5,-1
1558441881180056,-2,0,0,-2,-8,-2,-5,-4
1558441881180056,0,-3,-2,0,1,-2,7,2
1558441881193021,-2,0,0,0,0,5,-2,-2
1558441881193021,0,-1,0,1,-5,-9,2,0
1558441881201998,-2,-1,-4,-1,-4,-2,-4,-3
1558441881201998,1,2,10,3,3,-8,-3,2
1558441881214967,2,3,-1,3,5,-3,3,4
1558441881214967,-1,-1,0,-1,-4,-11,-3,-1
1558441881223940,-4,-4,-10,-5,-6,-1,-5,-5
1558441881223940,-1,2,-1,3,5,13,0,-2
1558441881238899,-3,-6,-5,-3,-5,3,-2,-4
1558441881238899,-1,1,2,2,5,-2,6,1
1558441881239896,-1,-3,-4,-2,-4,-1,0,-1
1558441881239896,-2,-4,-1,-8,-5,-2,-2,-1
1558441881252862,3,2,2,3,8,7,6,3
1558441881252862,-5,-6,-6,-6,-5,-1,-10,-7
1558441881261838,1,2,6,5,2,2,2,1
1558441881261838,-3,-1,-5,-15,-7,-7,1,-2
1558441881274803,0,-3,-4,1,0,0,-4,-3
1558441881274803,-1,0,0,-1,-2,-22,3,2
1558441881283778,0,0,0,2,1,5,-2,-2
1558441881283778,0,-1,-5,-2,-3,4,-5,-3
1558441881298739,-1,-1,2,-1,-3,-6,0,-2
1558441881298739,-2,1,4,3,-1,3,-5,-2
1558441881300734,0,-1,4,1,8,6,3,2
1558441881300734,-1,-2,-3,-5,-4,-5,-4,0
1558441881312702,-6,-8,-9,-3,-9,-4,-10,-8
1558441881312702,-2,-1,0,3,-6,2,-4,-4
1558441881321677,1,1,-2,-2,5,0,7,4
1558441881321677,0,0,-1,-5,-8,-11,-8,0
1558441881334645,1,-1,-5,-4,-2,7,5,0
1558441881334645,-1,1,2,1,1,-3,-2,0
1558441881343620,-3,-5,-2,-3,-9,0,-7,-6
1558441881343620,2,0,-1,3,2,-9,4,1
1558441881358581,-1,0,3,3,9,7,0,1
1558441881358581,-2,-3,-1,-11,-9,-5,-7,-4
1558441881360573,0,0,-1,-2,-2,5,3,3
1558441881360573,-1,-3,1,5,4,8,-1,-2
1558441881372541,-2,-2,-2,-3,-3,-2,4,-2
1558441881372541,0,2,0,-2,3,0,-3,1
1558441881381519,-2,-3,-9,-5,-6,-9,-6,-4
1558441881381519,-1,0,8,7,2,7,0,-1
1558441881395480,-2,-4,-10,-1,-3,1,-5,-2
1558441881395480,1,-2,-8,-16,-2,10,6,2
1558441881404456,-1,-2,-2,-5,-7,-12,-8,-4
1558441881404456,1,2,8,6,2,-3,0,2
1558441881419416,1,0,1,-1,-1,-6,-2,1
1558441881419416,0,-1,-2,4,3,3,5,1
1558441881420420,3,3,5,2,9,-6,8,5
1558441881420420,-4,-3,-6,5,2,-2,-6,-5
1558441881432381,-2,1,1,-10,-3,-1,-10,-5
1558441881432381,0,-3,-1,3,-4,6,-2,-2
1558441881441358,-5,-5,-11,-9,-11,-3,-4,-4
1558441881441358,-2,-1,4,4,1,3,-3,-2
1558441881455319,0,0,2,1,2,-5,5,3
1558441881455319,-1,1,-1,1,2,-6,-2,0
1558441881464295,0,-2,-1,-4,-4,-2,-4,-2
1558441881464295,-1,-2,-6,-4,-2,2,-2,-4
1558441881479256,-1,-1,0,2,-7,-4,-2,-4
1558441881479256,1,1,3,-5,-1,-1,-3,1
1558441881480254,1,3,9,14,13,5,6,6
1558441881480254,-4,-5,-9,-11,-7,-4,-1,-3
1558441881492226,2,2,4,7,-3,-8,0,4
1558441881492226,-1,-2,-9,-4,-5,-2,-4,-5
1558441881501197,-3,-2,1,1,0,8,-1,-1
1558441881501197,2,2,-1,-5,1,-8,6,3
1558441881515159,0,-2,0,2,3,4,3,2
1558441881515159,-3,-6,-2,1,-3,-5,-2,-2
1558441881524151,0,-2,1,0,-6,-5,-8,-3
1558441881524151,0,0,-3,-7,1,11,5,0
1558441881538098,-1,-1,-1,-2,3,-4,-5,-3
1558441881538098,1,-3,-6,-6,-3,-5,0,1
1558441881545079,-2,-4,-2,-3,-8,-8,-2,-3
1558441881545079,-1,2,1,6,15,20,7,5
1558441881553061,-2,-2,-1,-2,-4,-3,-3,-2
1558441881553061,0,2,3,4,4,3,0,1
1558441881561036,0,0,3,2,2,2,1,-3
1558441881561036,-3,-7,-9,-9,-9,-8,-7,-2
1558441881575001,0,-2,4,1,2,-3,0,1
1558441881575001,-1,-1,2,5,2,-4,-2,-2
1558441881583976,-1,0,-4,-1,-2,8,1,-2
1558441881583976,-2,-3,-3,-6,-11,-7,-12,-2
1558441881597938,-1,-3,-4,-6,6,2,5,3
1558441881597938,-1,0,4,2,-2,3,-2,-2
1558441881604920,0,0,-2,-2,-2,-9,-2,0
1558441881604920,-2,-1,4,6,3,9,0,-4
1558441881612899,3,2,-3,-1,-3,-1,-3,-1
1558441881612899,0,0,2,1,6,6,3,3
1558441881621874,-1,-3,-5,-3,7,-6,3,1
1558441881621874,-1,-2,-11,-15,-7,-4,0,-3
1558441881634840,-4,-2,0,-1,-3,3,-2,-5
1558441881634840,-5,-3,4,7,-6,-12,-3,-4
1558441881643816,0,1,-6,-10,0,8,1,-3
1558441881643816,0,0,1,2,4,-12,-1,0
1558441881658776,-1,-3,0,2,-5,-14,0,-4
1558441881658776,-1,-2,-3,-3,-2,9,-10,-5
1558441881664761,0,0,0,1,5,12,7,3
1558441881664761,0,2,4,-2,-4,-5,-4,-3
1558441881672739,-2,-4,-7,-3,-3,5,-2,-2
1558441881672739,-2,-2,1,2,-1,-8,-5,0
1558441881688695,1,0,-1,-2,-1,-7,-8,1
1558441881688695,0,-1,2,4,-1,-1,0,2
1558441881694682,3,1,-1,2,5,5,6,1
1558441881694682,-6,-6,-9,-8,-3,-1,4,-2
1558441881703656,-2,-3,0,-1,-5,-13,-5,-3
1558441881703656,-1,0,-2,5,2,7,4,-1
1558441881718615,-1,3,3,-5,-8,-7,-10,-2
1558441881718615,2,0,4,0,-1,-2,1,3
1558441881724600,-1,2,6,4,2,8,3,2
1558441881724600,0,-1,-5,-2,5,-2,-2,1
1558441881741554,-1,-2,0,-5,-10,-4,-5,-3
1558441881741554,2,4,-7,1,12,-2,11,3
1558441881742551,-3,1,6,2,0,0,-4,-4
1558441881742551,0,-2,-5,0,-2,-7,-2,2
1558441881755516,-2,-1,-2,-2,4,10,6,1
1558441881755516,-3,-6,-8,-4,-10,-4,-9,-8
1558441881764493,0,0,2,-3,-2,8,3,-1
1558441881764493,2,3,5,4,3,-3,-2,1
1558441881778456,-1,0,2,1,4,2,4,2
1558441881778456,-2,-2,-4,-4,-5,-12,-7,-2
1558441881785437,-2,-4,-7,-6,-4,-5,-5,1
1558441881785437,-6,-5,-5,-5,-4,1,-1,-5
1558441881801399,0,-1,-3,-2,4,8,3,3
1558441881801399,1,3,9,3,0,2,1,2
1558441881803388,0,-3,-8,-4,0,-2,-3,-2
1558441881803388,1,0,5,2,-2,-15,0,-2
1558441881815357,-2,0,-5,-2,-4,-20,-2,0
1558441881815357,0,0,2,11,5,8,0,0
1558441881824333,1,0,-7,-18,3,11,8,-1
1558441881824333,-5,-6,-3,-11,-12,-3,-7,-4
1558441881838295,-3,-2,7,5,-1,-8,-4,-3
1558441881838295,1,2,2,3,10,20,11,3
1558441881845277,-3,-6,-11,1,-9,-11,-7,-2
1558441881845277,-1,0,1,3,3,4,-2,-1
1558441881861236,0,-2,-6,-5,-5,-15,2,2
1558441881861236,1,0,4,-2,-3,-5,-9,-3
1558441881863230,-2,-2,-4,0,-1,-4,-2,0
1558441881863230,-1,-1,-5,-12,-7,-9,0,-1
1558441881875197,-1,-4,-5,2,2,15,-3,-2
1558441881875197,-1,0,1,-3,-4,-6,2,1
1558441881884176,-4,-1,0,5,1,-4,6,0
1558441881884176,0,0,2,10,-1,-8,-6,-4
1558441881898135,1,0,-2,-1,4,4,1,-1
1558441881898135,0,-2,-5,-9,-3,0,0,-3
1558441881905117,0,-1,-1,-1,-4,2,-4,-3
1558441881905117,-1,-1,6,5,4,-1,4,-2
1558441881921074,0,2,8,1,1,9,3,0
1558441881921074,-3,-6,-15,-6,-5,-1,-2,-1
1558441881923070,2,5,6,8,5,-4,-1,0
1558441881923070,1,0,0,2,3,0,7,3
1558441881935059,-2,-6,-4,-16,-10,-7,-8,-4
1558441881935059,0,0,-1,-2,-2,-3,-1,-1
1558441881944019,-3,-2,-2,-1,-5,-5,-7,-2
1558441881944019,-2,-3,-1,7,0,4,1,-3
1558441881957976,-1,-1,-5,-5,-7,-1,1,-1
1558441881957976,-1,1,6,0,7,-2,3,1
1558441881964958,-1,-2,0,0,-1,1,-3,-2
1558441881964958,1,3,4,-2,3,2,-7,-2
1558441881981912,-2,-5,-3,3,2,-2,1,1
1558441881981912,-2,-1,-3,-6,-5,-3,-3,-4
1558441881982914,-1,0,4,-3,0,10,-1,-1
1558441881982914,-1,-1,-6,0,-7,-7,-7,-5
1558441881994878,1,2,-4,2,0,-9,-4,0
1558441881994878,-4,-2,-3,-5,-2,10,3,-2
1558441882003867,-2,-4,-1,-5,-10,-17,-5,-3
1558441882003867,0,2,-6,-8,1,7,-2,-2
1558441882017815,0,-2,4,7,0,1,-4,-1
1558441882017815,4,1,-1,1,2,-4,1,3
1558441882024797,-2,-4,10,-1,1,13,2,2
1558441882024797,-5,-6,-9,-3,-9,-16,-4,-2
1558441882041752,-2,3,3,4,6,-5,-1,-4
1558441882041752,-3,-2,-2,2,-3,-1,-6,-3
1558441882042748,-1,-1,-3,-3,-3,-15,-2,-4
1558441882042748,2,1,-3,-2,4,17,6,3
1558441882054718,0,-2,4,3,6,3,0,2
1558441882054718,-1,-2,-1,-1,-5,-18,-3,-4
1558441882063692,3,1,-1,6,2,-4,7,5
1558441882063692,-1,-1,0,-11,1,6,-1,1
1558441882078652,-2,-4,-10,-5,-11,-8,-8,-8
1558441882078652,1,4,11,6,10,13,1,2
1558441882084637,-2,-5,-9,-6,-1,2,-2,0
1558441882084637,0,-2,3,-6,-2,-2,-3,-1
1558441882101591,-4,-2,-3,-8,-8,2,-7,-3
1558441882101591,-2,-1,-5,0,-1,1,-3,0
1558441882102588,-2,-1,-3,-12,-11,-11,-3,-4
1558441882102588,-2,2,2,7,2,-1,0,1
1558441882115554,-2,0,4,1,3,4,0,3
1558441882115554,0,-4,-3,-5,-5,-21,-2,-7
1558441882123532,3,4,-3,5,13,18,10,3
1558441882123532,-1,-3,-4,-5,-13,-3,-4,-4
1558441882138492,-1,1,6,3,5,6,-2,-1
1558441882138492,-2,-6,-7,-4,-6,0,0,-1
1558441882145473,-3,0,2,1,-5,1,-7,-5
1558441882145473,2,3,4,3,7,2,7,1
1558441882168413,4,3,3,3,6,-8,5,3
1558441882168413,0,1,-3,-3,-2,6,1,2
1558441882170407,-2,-2,0,6,0,3,-10,-5
1558441882170407,-2,-4,-12,-12,-9,-3,-2,-2
1558441882175397,-2,1,1,1,-2,-7,-2,-3
1558441882175397,-3,-5,-5,-6,-6,-9,-5,-3
1558441882184371,-1,2,-1,1,2,5,3,3
1558441882184371,1,5,19,11,8,6,4,4
1558441882198332,-5,-9,-10,-6,-6,0,-2,-5
1558441882198332,2,0,-3,1,-1,-4,3,3
1558441882205315,2,-1,3,4,3,1,4,4
1558441882205315,-1,0,0,2,0,1,-2,-4
1558441882221271,1,1,-2,-9,-4,6,0,-3
1558441882221271,-3,-2,-2,-8,-2,1,-3,0
1558441882223266,0,0,3,0,2,-8,-2,2
1558441882223266,0,-2,-6,0,1,-4,6,2
1558441882235233,0,0,1,5,3,-8,0,1
1558441882235233,-4,1,0,-3,-3,-4,-1,-2
1558441882244210,0,3,7,-1,-2,-5,0,-2
1558441882244210,-4,-8,-11,-5,-5,0,-10,-4
1558441882258173,-3,-1,-3,-1,4,12,4,1
1558441882258173,-1,-2,1,2,2,5,-5,-2
1558441882265153,-1,-1,1,-6,-6,-2,-7,-1
1558441882265153,1,0,-2,0,-4,-2,6,8
1558441882281111,1,1,-4,4,3,-2,-1,-6
1558441882281111,-1,1,4,1,1,-1,4,0
1558441882283110,1,-4,-4,4,2,3,1,-4
1558441882283110,1,-1,-2,-6,-2,2,-7,-2
1558441882295075,-2,-3,-6,-11,-10,-1,1,-1
1558441882295075,0,1,2,6,3,-2,-1,3
1558441882304049,-2,-2,1,1,0,-9,0,-4
1558441882304049,1,1,3,0,-4,-4,2,-1
1558441882318015,3,0,3,3,10,11,11,6
1558441882318015,-6,-7,-6,-5,-7,-2,-10,-10
1558441882333972,-3,0,-4,-1,-2,3,2,1
1558441882333972,-4,-1,5,8,-5,-10,-9,-5
1558441882340951,0,-3,-11,-11,-3,-10,-3,1
1558441882340951,-1,-1,5,2,4,9,5,5
1558441882342945,-2,-4,-11,-8,-1,6,-4,-2
1558441882342945,-1,1,2,1,-1,-6,-2,-2
1558441882354913,2,2,4,4,-4,-10,-3,-1
1558441882354913,1,-3,-3,2,6,9,6,0
1558441882363889,0,0,3,-1,-5,-6,-8,-2
1558441882363889,-1,-1,-8,-1,-2,-11,2,-1
1558441882377852,-5,-5,-4,-6,-9,0,-5,-3
1558441882377852,-3,-1,-1,-2,-6,-5,-11,-4
1558441882386834,-1,-3,-3,-4,8,13,6,2
1558441882386834,4,1,-1,4,8,-2,7,3
1558441882401788,1,-1,6,3,-2,3,2,0
1558441882401788,-2,-2,-9,-6,-9,-8,-5,-5
1558441882402785,-2,-2,-5,-12,-9,-1,-4,-4
1558441882402785,-4,-2,1,-2,0,6,-6,-1
1558441882423729,0,-2,3,1,1,-2,4,1
1558441882423729,2,2,4,3,4,1,4,0
1558441882425724,-1,-2,-3,5,-4,-9,-5,-2
1558441882425724,-1,0,-3,-4,1,-5,-5,-4
1558441882437694,-2,3,0,-3,0,7,1,-1
1558441882437694,-2,-1,2,2,-4,-5,-2,0
1558441882446669,-2,-3,-5,-6,-6,-11,-5,-3
1558441882446669,-3,-4,-5,-4,-1,7,-3,-2
