timestamp,emg1,emg2,emg3,emg4,emg5,emg6,emg7,emg8
1558441931534866,0,-1,3,9,-5,-7,0,0
1558441931534866,-1,-3,-1,-4,-1,7,1,-4
1558441931534866,-2,-4,-10,-12,-11,-4,-4,-5
1558441931534866,-4,-3,-1,-2,0,-7,0,0
1558441931535863,3,2,1,3,7,0,3,2
1558441931535863,-1,-3,2,-2,3,-4,-2,-1
1558441931538854,-2,-1,-1,0,2,7,-1,0
1558441931538854,0,-1,-4,0,1,10,3,-2
1558441931546834,0,1,-2,-3,-1,-6,-2,-2
1558441931546834,-1,0,-2,-2,-8,-12,-8,-1
1558441931554812,1,0,5,2,4,8,4,-4
1558441931554812,-1,-1,1,-4,-3,5,0,-3
1558441931560797,-3,-4,0,1,2,-4,-4,-2
1558441931560797,0,3,0,-1,5,-6,7,5
1558441931575756,-1,-4,-8,-3,-3,-9,-6,-1
1558441931575756,-1,-1,-3,-5,-2,-1,-5,-4
1558441931585729,-2,0,-1,-3,-3,16,1,-4
1558441931585729,-1,-1,-3,0,-8,-12,-3,-3
1558441931590716,3,4,2,-6,11,-7,9,7
1558441931590716,-4,-6,0,0,-4,-5,-4,-4
1558441931614651,-2,-5,-5,-7,-6,0,-3,-3
1558441931614651,-3,0,-4,0,-4,3,-5,-5
1558441931616648,-4,-2,1,2,-1,5,1,-1
1558441931616648,1,1,4,4,6,7,4,5
1558441931661526,-2,1,-3,-1,-7,-4,-4,-1
1558441931661526,0,1,5,10,11,0,2,1
1558441931662524,0,0,-2,-10,-6,0,2,0
1558441931662524,1,0,-6,-5,1,-1,1,1
1558441931663522,-4,-3,0,0,-4,-2,-7,-2
1558441931663522,-2,-2,-2,-1,-7,-3,-4,-3
1558441931674492,0,-1,1,1,5,-5,0,1
1558441931674492,-3,-1,1,-3,-2,4,-2,0
1558441931676488,0,2,3,1,-2,-3,1,-1
1558441931676488,-1,-4,-6,-8,-3,4,0,-1
1558441931680477,-3,-7,-5,-4,-5,-7,-7,-3
1558441931680477,0,0,0,2,-1,-2,-1,-2
1558441931689452,0,0,-4,0,2,-3,0,2
1558441931689452,-3,0,0,-6,-7,-6,-2,-2
1558441931704413,-3,1,-1,1,-3,5,0,-2
1558441931704413,3,2,6,9,3,0,0,1
1558441931710397,2,1,3,-1,8,5,4,1
1558441931710397,0,1,-5,-3,4,4,5,3
1558441931726353,2,0,-4,-5,-4,-5,-4,-3
1558441931726353,-1,-2,-2,4,-5,-4,-5,-6
1558441931733335,0,-1,3,0,2,1,5,0
1558441931733335,-1,0,-4,0,3,0,2,0
1558441931741313,-3,2,8,3,-4,0,-3,-1
1558441931741313,-4,-5,-2,-3,-8,2,-5,-3
1558441931750289,0,-4,-4,-12,-2,-2,-1,-1
1558441931750289,0,0,6,8,5,-2,0,2
1558441931764251,0,0,1,5,6,0,-3,-2
1558441931764251,-1,0,-5,-15,-7,-6,-1,1
1558441931771234,-3,-5,-12,-9,-13,-6,-6,-4
1558441931771234,-2,-1,4,7,4,7,1,-2
1558441931786193,0,0,4,4,0,-2,4,1
1558441931786193,0,-1,-2,0,8,-1,3,1
1558441931793176,-1,-1,3,9,6,9,3,1
1558441931793176,0,-3,1,-9,-12,-11,-6,-4
1558441931801154,-3,-6,-7,2,-5,-12,-10,-4
1558441931801154,1,3,2,9,10,13,9,4
1558441931810144,-2,1,-2,-11,-7,-11,-6,-2
1558441931810144,0,-3,0,3,4,4,0,-1
1558441931824092,-2,-1,-5,-4,-5,-2,-3,-2
1558441931824092,-4,-3,-1,-2,-5,4,0,-3
1558441931831073,0,4,3,7,12,7,6,3
1558441931831073,-2,-1,-2,-5,-6,-2,-5,-3
1558441931847030,-3,0,0,2,-1,-9,-5,-1
1558441931847030,-1,2,0,-15,-4,-8,-2,1
1558441931853015,-1,-6,-8,0,1,6,-1,-1
1558441931853015,-4,-4,-4,-9,-13,-8,-7,-4
1558441931860993,2,1,1,5,9,14,5,3
1558441931860993,1,-1,2,4,-3,-11,-4,0
1558441931869969,0,0,1,3,3,-8,-2,0
1558441931869969,0,0,-2,-2,2,-4,-3,0
1558441931883932,-4,-4,-6,-16,-11,-6,0,-4
1558441931883932,-4,-3,2,6,2,2,-3,-3
1558441931891910,-1,0,-8,-14,-2,10,2,2
1558441931891910,2,0,3,0,-5,0,-3,-4
1558441931906875,0,-2,-8,-4,2,0,10,4
1558441931906875,1,-1,1,-2,0,-4,4,0
1558441931913853,-3,-3,4,7,-5,-8,-6,-5
1558441931913853,-3,-1,-6,-10,-9,1,-3,-1
1558441931920835,-1,-1,3,2,-4,3,-2,-2
1558441931920835,0,0,-6,-1,4,7,0,-1
1558441931929810,-1,0,5,2,-2,-7,-4,-2
1558441931929810,3,3,-2,2,5,-4,5,2
1558441931943773,2,-1,0,-4,2,3,4,-3
1558441931943773,-3,-3,-1,5,-1,-8,-6,-2
1558441931952749,-1,1,-4,-5,-4,-3,-3,-5
1558441931952749,-5,-5,-13,-15,-17,-12,-11,-5
1558441931966711,1,0,0,2,10,16,6,6
1558441931966711,-1,1,1,-2,1,0,-1,-1
1558441931973692,1,-3,6,13,2,-1,-2,0
1558441931973692,0,-1,-3,-6,1,0,6,4
1558441931980674,-2,-1,-2,-2,-1,1,-2,-2
1558441931980674,-3,-2,-5,-2,-8,3,-2,-3
1558441931995634,-2,0,5,4,-2,-16,-3,-1
1558441931995634,2,0,3,5,5,-3,2,2
1558441932003613,-2,-2,2,1,2,-1,-1,-3
1558441932003613,-1,1,-1,0,1,7,3,0
1558441932012588,-4,0,-3,-1,-6,0,-3,-5
1558441932012588,1,1,7,13,7,-2,-1,1
1558441932026551,0,-2,-7,-5,-7,-9,-5,0
1558441932026551,0,-4,-1,-6,-5,4,-5,-3
1558441932033531,0,-4,-3,-4,1,6,5,2
1558441932033531,-2,-1,0,7,6,10,1,1
1558441932040513,0,1,0,-3,2,0,2,-1
1558441932040513,0,1,3,-3,0,-15,-3,2
1558441932055473,1,0,-2,3,5,6,-1,1
1558441932055473,-1,0,-2,-11,-2,2,-1,-3
1558441932063452,-4,-5,-6,-2,-3,6,-2,-4
1558441932063452,0,0,2,1,2,-2,3,-2
1558441932072427,0,-1,1,1,1,-3,2,1
1558441932072427,0,0,2,5,2,-1,1,-1
1558441932086391,-4,1,-2,-5,-10,-9,-13,-4
1558441932086391,-4,-2,-7,-4,-1,2,-2,-1
1558441932093372,0,-2,-5,-7,-3,1,3,-1
1558441932093372,0,-1,6,6,8,8,1,-2
1558441932101350,1,-1,2,5,2,1,2,0
1558441932101350,0,2,-1,4,5,-7,-7,1
1558441932116311,-3,-3,-9,-11,-5,8,-2,-3
1558441932116311,-2,-1,-1,0,-3,-3,-2,-1
1558441932123292,1,3,11,4,-2,2,0,0
1558441932123292,0,-5,-4,1,2,-6,-2,3
1558441932132269,-1,1,4,3,4,4,2,-1
1558441932132269,-2,-1,-3,-11,0,-6,-2,1
1558441932146231,-3,-1,-2,-3,-4,-18,-8,-1
1558441932146231,-2,-3,1,3,-4,0,-3,-5
1558441932153213,0,0,2,0,-3,-7,-1,-2
1558441932153213,-1,-2,-7,-9,2,10,3,-3
1558441932161191,0,-2,-3,-4,-7,-9,-3,-1
1558441932161191,1,-1,-6,-7,6,3,5,4
1558441932176151,-3,-1,0,3,-4,-4,-5,-4
1558441932176151,-3,-2,1,-2,-4,2,-1,-3
1558441932183133,-1,0,3,7,6,-1,3,1
1558441932183133,-2,-1,-7,-10,-9,-6,-6,-4
1558441932192115,0,-2,-2,0,7,14,3,3
1558441932192115,0,0,3,4,-2,-4,-1,0
1558441932207067,-3,-5,-11,-8,-1,3,-7,-4
1558441932207067,-3,-3,-2,-2,-9,-4,4,-3
1558441932213052,1,1,1,-5,-3,-25,-8,-1
1558441932213052,-2,0,0,2,-5,-1,-6,-2
1558441932221030,-1,-2,1,1,-2,2,-1,0
1558441932221030,-2,-2,-2,1,2,3,2,-1
1558441932235991,1,-1,3,-3,-1,7,2,0
1558441932235991,-3,-3,-6,-1,-5,-8,-1,-2
1558441932242972,1,0,2,2,4,4,-3,-3
1558441932242972,1,-2,-1,2,-6,7,-2,-2
1558441932251949,-2,-1,-8,-13,-5,-16,-2,-2
1558441932251949,1,-1,1,4,2,-6,3,1
1558441932266908,-1,0,-2,-3,-6,1,-3,-3
1558441932266908,-3,-2,-1,-3,-6,-4,-9,-4
1558441932272892,-1,-1,-1,-1,1,5,0,1
1558441932272892,2,-1,-4,1,6,1,5,4
1558441932288849,0,-2,4,2,8,5,4,0
1558441932288849,1,2,3,4,3,-1,-2,2
1558441932295831,-4,-3,-2,-1,-7,-5,-8,-6
1558441932295831,-4,-3,-3,1,-8,-1,-12,-7
1558441932303808,2,-1,-4,-10,-4,-1,6,4
1558441932303808,2,2,5,4,5,1,5,0
1558441932312785,-1,-5,0,-4,1,8,0,-3
1558441932312785,0,3,-2,-5,1,-12,0,2
1558441932326748,-1,2,6,9,3,1,1,0
1558441932326748,-3,-4,0,-9,-12,-6,-6,-4
1558441932333730,-1,1,-6,5,0,-4,0,1
1558441932333730,1,-2,-7,3,-3,4,-3,-2
1558441932340710,0,-1,1,-7,0,-7,-2,0
1558441932340710,2,1,0,3,7,4,2,1
1558441932355670,2,4,6,11,6,5,5,2
1558441932355670,-3,-2,-1,-2,-3,1,-4,-3
1558441932363649,0,-2,-5,-2,-2,-8,-4,-1
1558441932363649,-1,0,2,3,0,3,1,-4
1558441932372626,-1,-4,-7,-4,-8,-4,-5,-5
1558441932372626,-2,2,1,-7,-5,-2,-1,1
1558441932386589,2,1,2,0,4,1,2,1
1558441932386589,-2,-1,-1,-3,4,-4,2,-1
1558441932393569,-2,0,0,5,3,3,-4,2
1558441932393569,-1,-2,-1,3,-4,-3,0,-1
1558441932400553,-2,-1,-4,-9,-9,-2,-5,-2
1558441932400553,-3,0,0,0,3,3,5,-4
1558441932415511,-1,-2,-2,-4,-3,-2,-3,-2
1558441932415511,1,-4,-3,-3,7,2,0,-2
1558441932423496,-1,1,-2,1,-1,3,0,-1
1558441932423496,-3,-2,-5,-2,-10,-9,-6,-3
1558441932432465,-3,0,4,-3,-1,-4,2,0
1558441932432465,1,1,-1,15,10,-3,3,0
1558441932446428,1,0,-4,-16,-4,2,1,0
1558441932446428,-3,-2,-4,-5,-7,-6,-8,-4
1558441932453409,-1,-2,1,4,-4,-5,-5,-3
1558441932453409,-3,-2,-7,-13,-4,3,0,-1
1558441932460390,-1,0,3,7,1,-6,-2,-2
1558441932460390,0,0,-3,-3,-3,2,-4,-1
1558441932476347,3,2,-1,-1,5,0,3,2
1558441932476347,1,0,1,-3,4,-4,2,2
1558441932483340,-4,-1,4,11,5,6,5,0
1558441932483340,-1,-2,0,-3,-4,-2,-4,-1
1558441932492305,-4,-6,-6,-7,-12,-9,-8,-5
1558441932492305,0,-2,2,-2,-2,-5,-2,-2
1558441932506268,0,-3,-5,0,3,10,1,-2
1558441932506268,3,0,0,0,4,-9,3,4
1558441932513248,0,0,-1,1,0,8,3,1
1558441932513248,0,2,4,9,6,8,2,-3
1558441932521226,-4,-4,-9,-19,-10,-8,-6,-1
1558441932521226,-4,-2,2,2,-1,-6,-4,2
1558441932536187,-3,-3,-3,-7,-9,-4,-4,-3
1558441932536187,0,0,-1,-1,0,9,2,2
1558441932543171,0,2,2,9,4,-2,1,-2
1558441932543171,0,-3,-1,-2,3,7,5,1
1558441932560126,0,-1,2,1,7,0,0,0
1558441932560126,-3,-5,-2,-3,-14,-5,-9,-7
1558441932566107,2,4,3,3,8,-4,0,1
1558441932566107,0,2,3,6,5,-1,6,4
1558441932573089,0,-2,-3,-9,0,6,-1,-2
1558441932573089,-1,-2,-1,-1,-5,-3,-6,-2
1558441932581069,-1,-2,-8,-8,-5,3,0,-4
1558441932581069,0,1,3,2,5,5,4,0
1558441932596028,0,1,0,2,4,-2,3,1
1558441932596028,-1,-2,0,-5,-2,4,0,0
1558441932603025,-1,-4,-1,3,-4,1,-2,-5
1558441932603025,0,-2,-5,-4,-4,-5,-8,-4
1558441932611984,-3,0,-1,-1,-3,-5,3,2
1558441932611984,-2,1,-3,-4,1,0,1,0
1558441932626945,-1,1,3,9,7,6,6,4
1558441932626945,-1,-1,-1,1,-2,5,-1,0
1558441932632931,-1,-1,-3,-10,-7,-3,-6,-3
1558441932632931,-3,-3,-5,-3,-6,-2,-4,-2
1558441932648885,-1,-1,-1,-4,-3,0,-5,-3
1558441932648885,2,4,2,2,8,-5,3,2
1558441932655871,-1,-1,-1,2,0,-7,0,2
1558441932655871,-2,-1,2,-2,-4,-6,-3,-1
1558441932671832,0,-1,-1,2,2,9,-2,-5
1558441932671832,0,-7,-8,-14,-15,3,-2,-6
1558441932673820,2,-1,2,-2,4,0,5,2
1558441932673820,2,4,2,2,10,2,11,5
1558441932686789,-3,-4,-3,1,-6,-6,-5,-2
1558441932686789,-1,1,0,1,2,0,-3,0
1558441932693766,-2,0,2,3,6,11,4,-1
1558441932693766,-4,-3,-4,-1,-4,-7,-2,-1
1558441932708727,-1,-2,2,-6,-6,-11,-5,-2
1558441932708727,-2,-2,-7,-1,-3,2,-3,-3
1558441932723690,-2,-4,-8,-6,-2,1,-7,-2
1558441932723690,0,2,5,6,2,5,2,1
1558441932732662,-1,-2,-1,-2,-8,-18,-1,1
1558441932732662,-2,-1,-1,-7,-11,-13,-8,-6
1558441932733662,1,2,6,8,4,1,3,-2
1558441932733662,0,-2,-3,-1,4,8,3,0
1558441932745628,-3,0,0,0,-3,3,-3,-2
1558441932745628,0,-1,-4,-2,0,10,1,-1
1558441932754604,0,2,0,6,6,-5,4,4
1558441932754604,2,0,0,-6,3,5,2,4
1558441932769564,-2,-2,-4,-1,-1,4,0,-5
1558441932769564,-2,-2,2,6,-3,-5,-8,-3
1558441932775548,-4,-3,-4,-6,-7,-5,-4,-3
1558441932775548,-1,-1,2,2,0,5,-1,-2
1558441932792503,3,1,-1,3,4,-14,-1,3
1558441932792503,0,0,-3,-5,-5,0,0,-1
1558441932793500,-1,-1,-9,-6,-6,1,-3,-2
1558441932793500,0,-2,0,-1,-9,-9,-6,-4
1558441932806466,-4,-5,1,0,-4,-1,-5,-4
1558441932806466,1,1,3,5,12,2,8,4
1558441932814475,1,0,2,5,5,4,-1,1
1558441932814475,-2,1,0,-2,-2,-7,-3,-4
1558441932829407,-1,0,-4,-4,3,10,1,1
1558441932829407,-3,-3,-3,-3,-2,5,-3,-1
1558441932835454,0,0,4,4,3,-10,2,1
1558441932835454,-3,-3,-5,-1,-6,0,-3,-5
1558441932852349,1,2,1,1,-1,-1,-1,1
1558441932852349,-3,-1,-2,-1,-1,-3,1,-1
1558441932853341,-1,0,1,5,1,-7,-6,-3
1558441932853341,0,0,3,3,-2,-4,-4,-2
1558441932866303,0,-4,-5,-11,-3,3,3,-1
1558441932866303,0,0,1,-4,-3,5,0,-2
1558441932875280,-2,-4,-8,-6,-6,4,-1,-3
1558441932875280,-1,-2,3,3,6,-4,3,4
1558441932889247,-2,0,-1,-2,1,-1,-4,0
1558441932889247,-2,0,-3,-4,-1,-4,-1,0
1558441932896225,-3,-1,-1,-3,0,11,1,-1
1558441932896225,-1,1,3,2,-2,-5,-1,0
1558441932912282,-4,-4,0,1,-7,-4,-6,-5
1558441932912282,-1,-3,-2,3,1,7,0,0
1558441932914178,1,-2,-4,-5,5,8,2,0
1558441932914178,0,-3,-6,-5,-6,-16,-1,0
1558441932926148,1,-1,-4,-7,-3,-9,4,3
1558441932926148,-2,-2,3,5,-2,-11,-4,-4
1558441932935127,-2,-1,-1,-3,-4,3,-6,-2
1558441932935127,-3,-4,-3,-5,-2,8,-7,-4
1558441932957269,0,2,6,5,5,2,3,3
1558441932957269,2,2,3,-3,-1,-5,0,0
1558441932959059,1,3,-1,2,5,14,3,-1
1558441932959059,-3,-3,0,-1,-4,-12,-9,-6
1558441932972022,-2,-2,-2,3,-4,-8,-3,-1
1558441932972022,-1,0,4,1,9,0,2,4
1558441932978007,-3,-2,-6,-8,-11,-7,-2,-4
1558441932978007,-1,0,-2,-3,-4,-1,-1,-3
1558441932985989,-1,-1,-2,-1,2,4,1,-1
1558441932985989,0,-1,-1,6,5,4,3,3
1558441933001165,0,-3,5,-3,-3,-8,-2,-1
1558441933001165,-1,0,-5,-5,-5,2,-3,-1
1558441933008924,-3,-2,1,-2,-1,9,0,-1
1558441933008924,-2,-1,-4,-5,-7,-5,-4,-3
1558441933015905,2,-1,4,7,6,2,2,3
1558441933015905,-2,-4,0,3,9,12,3,1
1558441933031896,1,2,-4,-4,1,-3,2,3
1558441933031896,-1,1,1,-2,-5,-14,-6,-6
1558441933038842,-2,0,-2,-3,-4,4,0,-1
1558441933038842,0,-2,1,2,3,-1,-1,-2
1558441933045825,-1,-2,-4,-3,-6,-7,-9,-2
1558441933045825,-3,-4,-1,-12,-10,-10,-1,-2
1558441933054802,-1,-1,4,6,0,3,0,-1
1558441933054802,0,-1,-5,-2,3,0,3,2
1558441933069817,-2,0,0,-2,-1,-4,-2,-2
1558441933069817,-2,0,-6,-2,-5,1,-9,-3
1558441933075745,-1,-1,-2,2,-5,-11,-5,-3
1558441933075745,0,1,-1,-4,3,14,6,2
1558441933091886,1,-2,-1,0,-1,-5,1,0
1558441933091886,-1,-1,1,2,4,1,3,1
1558441933098683,0,0,3,-1,10,6,7,4
1558441933098683,-1,-2,-7,-11,-13,-7,-5,-4
1558441933105942,-1,-2,1,6,0,4,-4,-3
1558441933105942,-2,0,-3,-1,-2,-10,-3,-3
1558441933114823,-1,-2,-6,-9,-1,0,3,0
1558441933114823,1,1,0,3,3,10,2,1
1558441933129602,-1,1,5,1,-5,-13,-2,-3
1558441933129602,-2,-2,-7,-2,3,2,-2,0
1558441933137622,-4,-4,-4,-7,-17,-12,-6,-3
1558441933137622,-1,-2,-1,-4,-1,-4,-5,-3
1558441933151744,1,0,-2,2,13,28,13,2
1558441933151744,1,2,6,5,5,-5,2,2
1558441933158728,2,0,-4,2,-4,-7,-2,-1
1558441933158728,-1,-2,-2,-6,-5,-2,-5,-1
1558441933175559,-4,-4,-4,-5,-5,1,-3,-2
1558441933175559,0,-2,-4,-4,0,-2,1,1
1558441933176476,-3,-2,-1,-1,-11,-4,-5,-5
1558441933176476,0,0,3,5,1,-8,1,2
1558441933189442,-3,1,-3,-3,3,4,1,0
1558441933189442,1,-1,-7,-2,-2,9,0,0
1558441933195425,-2,-2,3,7,-3,-13,-7,-4
1558441933195425,-2,-3,-2,-11,-6,-5,-3,-1
1558441933211383,1,-1,-2,-6,1,0,5,2
1558441933211383,-2,-2,-1,0,-4,-1,-3,0
1558441933226341,-2,1,-1,-2,1,4,-7,-3
1558441933226341,0,2,3,4,9,7,9,3
1558441933234320,-2,-1,-2,1,-3,-10,-1,-1
1558441933234320,2,0,3,-2,2,-2,1,-1
1558441933236315,2,-1,2,-3,2,-4,-1,1
1558441933236315,-1,-2,-3,-4,-4,-3,-2,-2
1558441933249316,-1,-2,-8,-7,-5,1,-5,-3
1558441933249316,-2,-2,2,9,-2,-3,-2,-3
1558441933256262,-2,1,-1,1,5,4,2,1
1558441933256262,-1,-2,-9,-3,-8,-5,-3,-3
1558441933272364,2,0,6,-1,-1,-2,-2,2
1558441933272364,-1,0,1,-3,-2,5,-3,-1
1558441933278571,0,-2,-1,2,1,1,3,2
1558441933278571,-4,-3,-8,-4,0,0,0,-6
1558441933295480,-1,-2,-3,-6,-7,-9,-6,-2
1558441933295480,0,-3,-1,-4,-7,-4,-2,-4
1558441933296304,-1,-1,0,2,10,9,7,2
1558441933296304,1,1,3,3,2,-6,2,2
1558441933309268,1,3,1,-2,7,1,4,2
1558441933309268,-1,-1,0,-2,2,1,-1,0
1558441933315613,-3,-3,-2,0,-9,-4,-5,-4
1558441933315613,1,-1,-1,-3,-8,-13,-5,-1
1558441933331832,-2,-3,-2,8,-1,8,-7,-1
1558441933331832,-4,-3,-2,-7,-1,7,3,-5
1558441933338775,0,0,-7,0,8,3,3,1
1558441933338775,-1,0,2,4,2,4,-1,-1
1558441933355512,0,-1,0,3,2,3,3,0
1558441933355512,-2,-5,-3,-4,-7,-10,-5,-3
1558441933356511,0,-1,1,-1,2,3,1,-1
1558441933356511,-1,-2,3,-1,-2,-10,0,0
1558441933369469,-1,-2,-4,-1,-5,-4,-4,-4
1558441933369469,-1,0,-6,-4,-2,6,0,0
1558441933375454,-2,-2,2,-3,-3,-1,-5,-3
1558441933375454,-2,0,3,5,0,5,-1,1
1558441933391656,-1,0,3,1,3,-2,1,-2
1558441933391656,-1,0,-3,2,-2,0,-4,-2
1558441933398584,-2,-1,1,-2,-4,-1,-1,0
1558441933398584,1,1,-1,5,3,0,0,0
1558441933414356,-1,1,-2,-6,-2,-2,-2,-1
1558441933414356,2,0,0,2,3,0,3,3
1558441933416343,-3,-3,-5,-4,-9,-9,-8,-4
1558441933416343,-3,-2,0,-6,-9,-6,-7,-4
1558441933429308,1,1,0,6,8,5,3,-1
1558441933429308,0,-1,-6,0,0,-1,5,2
1558441933436288,-3,-4,0,-2,2,2,-1,-2
1558441933436288,-2,-1,1,3,1,5,-2,-4
1558441933451253,0,2,-2,3,-3,-8,-7,-2
1558441933451253,-1,0,6,-3,2,1,6,1
1558441933458233,0,-2,-1,0,-7,-22,-4,2
1558441933458233,-1,0,-8,-12,-3,3,2,2
1558441933475185,-3,-4,-6,-2,-4,6,-2,-4
1558441933475185,2,1,-4,-1,6,-4,0,2
1558441933476182,0,2,4,4,3,2,1,-2
1558441933476182,-1,-3,-2,-2,-5,-1,-2,-3
1558441933489146,-2,-4,2,-2,-6,-9,-5,-4
1558441933489146,1,2,4,0,2,10,4,0
1558441933496479,-2,-2,-7,3,4,3,4,-1
1558441933496479,2,2,3,3,2,-1,2,2
1558441933512414,-1,-1,-1,-3,-3,-3,-3,1
1558441933512414,-2,-5,1,-2,-4,-7,-9,-3
1558441933518068,2,4,-3,4,1,-3,-3,1
1558441933518068,-2,-2,2,-9,-5,-5,-1,-3
1558441933535338,-1,-4,-5,0,0,1,1,-1
1558441933535338,-2,-1,2,-1,0,5,0,0
1558441933536022,-3,0,-2,-3,3,8,4,-2
1558441933536022,-2,-2,-4,1,0,-9,-4,-1
1558441933549276,0,1,2,-1,-1,0,4,2
1558441933549276,-2,-3,-7,-4,-3,0,-3,-2
1558441933556005,-2,-4,3,0,-7,-5,-10,-2
1558441933556005,-1,3,-3,-2,10,20,6,-2
1558441933571924,-1,-3,-2,-1,5,1,3,1
1558441933571924,-3,-2,-1,9,1,-8,2,0
1558441933577911,0,1,2,-8,-4,-5,1,3
1558441933577911,0,0,1,1,-2,-9,-4,0
1558441933594863,-1,-1,-3,-2,-4,-3,-3,-3
1558441933594863,0,-2,-1,1,-4,8,-2,-2
1558441933595860,-2,-4,-4,-8,-11,-1,-8,-7
1558441933595860,-1,2,0,2,3,3,1,0
1558441933608826,2,4,8,11,15,-3,11,7
1558441933608826,-3,-2,-8,-20,-3,-5,1,-2
1558441933615807,2,-2,1,3,2,3,3,0
1558441933615807,-3,-6,-6,-2,-10,0,-8,-3
1558441933631766,-2,-1,-1,-6,-11,-6,-8,-4
1558441933631766,0,1,6,12,4,2,-4,-2
1558441933639254,-1,-5,-12,-11,3,-5,3,1
1558441933639254,-2,-3,-4,-3,0,6,1,-2
1558441933655150,-3,-2,-1,3,-2,-7,2,2
1558441933655150,2,1,4,-3,-3,-17,-6,-1
1558441933655702,-2,0,-5,-4,-5,-7,-5,-3
1558441933655702,0,0,3,9,1,-9,2,-3
1558441933669125,-1,1,-7,-13,-6,2,2,-2
1558441933669125,1,-1,1,4,7,23,2,-2
1558441933677644,-3,-3,-4,-7,-7,-8,-2,0
1558441933677644,-1,-2,-1,-1,1,-5,-6,0
1558441933692389,-3,-3,-6,-4,-7,0,-8,-2
1558441933692389,-2,-4,-3,-7,-10,-9,-1,-1
1558441933698452,0,1,5,5,7,6,3,-1
1558441933698452,2,-2,-2,5,3,7,4,-1
1558441933715435,-2,-3,-2,-6,-7,0,0,-3
1558441933715435,1,-1,1,7,3,4,-3,-2
1558441933716060,0,1,-2,3,3,1,6,2
1558441933716060,-1,0,-4,-14,-2,-10,4,3
1558441933728412,-2,-2,-4,0,1,3,-1,-2
1558441933728412,-3,-3,-3,-3,-2,-5,-4,0
1558441933737360,-1,-1,2,3,-5,-3,-6,-4
1558441933737360,-1,1,4,2,1,4,-2,0
1558441933751962,-1,-2,2,1,0,1,-3,-2
1558441933751962,-2,1,-4,-7,1,-4,1,1
1558441933757975,-2,-3,1,3,0,-2,0,-3
1558441933757975,0,1,1,3,3,7,2,0
1558441933774929,3,2,1,6,3,-17,-1,2
1558441933774929,-4,-4,0,-4,-5,4,0,-3
1558441933775898,2,-1,-2,-2,-6,-4,-4,-2
1558441933775898,1,-2,4,4,3,0,2,0
1558441933788863,-3,-4,1,-1,-5,-20,-8,-2
1558441933788863,0,-2,-8,-3,3,7,1,-1
1558441933796841,-2,2,0,-4,4,5,-1,-2
1558441933796841,-3,-5,-9,-7,-9,1,-6,-5
1558441933811801,-3,0,1,2,2,8,-4,-3
1558441933811801,-1,-2,3,0,-10,-19,-8,-4
1558441933818806,0,0,3,0,1,4,7,6
1558441933818806,-1,-1,-3,1,2,3,-1,-2
1558441933835739,-1,-1,-1,-6,-5,4,-2,-4
1558441933835739,-1,1,-3,-5,2,0,2,3
1558441933836735,-1,0,-3,2,5,1,5,0
1558441933836735,-3,0,1,-2,1,-7,-1,0
1558441933857679,0,-3,-3,-5,0,4,2,0
1558441933857679,0,-1,3,5,-1,-1,-2,-2
1558441933858677,0,-2,-2,-2,-2,3,-2,-2
1558441933858677,-2,-2,5,0,-2,-7,2,1
1558441933871704,-2,-2,-6,0,3,-1,-2,0
1558441933871704,2,1,0,0,-2,4,4,3
1558441933878658,-1,-3,-8,-6,-5,-3,-8,-2
1558441933878658,1,-2,-1,0,1,-2,-3,-2
1558441933894615,1,3,4,2,-3,-4,-4,-5
1558441933894615,-2,0,-1,2,-1,-3,-3,-2
1558441933895612,-2,0,3,5,0,-4,1,-2
1558441933895612,0,1,-5,-7,-2,1,-1,1
1558441933908543,-1,1,6,3,1,6,1,-1
1558441933908543,0,-1,-7,-8,0,4,1,-2
1558441933917521,-1,0,0,2,-5,-10,-8,-4
1558441933917521,-1,-3,-5,-5,-1,1,-1,-1
1558441933931481,-1,-2,-1,-7,4,3,5,2
1558441933931481,-2,-2,0,2,-1,0,2,-1
1558441933945484,1,2,1,-2,-1,-5,4,1
1558441933945484,-1,0,-3,3,-2,-7,-3,-3
1558441933954422,-3,-3,2,1,-6,-7,-4,-2
1558441933954422,-2,-1,-1,0,3,-1,4,1
1558441933960439,0,2,3,-2,3,3,3,1
1558441933960439,-1,-1,-2,6,-1,2,-1,-3
1558441933968383,1,-1,-4,-3,-1,9,-1,-3
1558441933968383,-1,-1,1,4,3,-3,-5,-1
1558441933977360,-2,-4,-6,-10,-8,-10,-3,2
1558441933977360,-3,0,4,6,6,7,3,-2
1558441933991321,-1,0,-6,-6,-4,0,-4,-1
1558441933991321,-1,-2,0,-1,-2,-3,-5,-4
1558441933998303,1,3,-3,4,4,12,0,-3
1558441933998303,-4,-6,3,-4,-9,-7,-7,-2
1558441934014261,3,-1,-4,1,10,1,11,7
1558441934014261,-2,0,1,2,-3,-11,3,1
1558441934029689,-4,0,2,-1,-3,1,-8,-5
1558441934029689,-5,-3,-3,-6,-6,0,-1,-1
1558441934029689,-2,-1,-6,-1,-2,-3,-3,-1
1558441934029689,1,2,-2,-6,-1,4,-1,0
1558441934037495,-1,-1,0,1,3,1,3,0
1558441934037495,-1,2,5,1,3,2,-2,0
1558441934052454,-4,-2,-2,0,-3,-1,-5,-4
1558441934052454,0,0,1,-1,-1,-2,1,0
1558441934058595,0,-1,0,-3,-5,1,-4,-1
1558441934058595,-2,-2,-7,-2,-5,-10,-3,-4
1558441934074472,1,-1,-3,-4,-3,9,0,-1
1558441934074472,-1,2,5,2,2,-1,4,2
1558441934081456,-2,-5,-8,-9,-2,-2,1,-5
1558441934081456,3,2,1,5,3,-1,1,2
1558441934097398,-3,0,0,-2,0,-6,-1,-2
1558441934097398,-2,-1,1,0,-5,-6,0,-3
1558441934099038,0,-4,-6,-6,2,9,3,3
1558441934099038,-2,-3,3,4,-1,-2,0,0
1558441934112447,2,2,5,8,8,-9,1,0
1558441934112447,-2,-5,-9,-8,-6,5,-7,-4
1558441934119284,0,1,0,3,0,0,-2,0
1558441934119284,0,-1,-6,-7,-8,-1,-1,-3
1558441934134298,0,2,1,0,0,11,0,0
1558441934134298,-1,0,-1,-1,7,6,4,0
1558441934141302,-1,2,-2,5,-2,-17,-3,1
1558441934141302,-2,-2,-5,-14,-3,7,-6,-3
1558441934157956,1,1,-3,0,1,2,6,3
1558441934157956,-3,-4,-3,-1,-4,-16,-7,-2
1558441934158875,-2,-1,4,4,-1,0,-2,-2
1558441934158875,2,1,2,1,1,-4,3,3
1558441934172139,-3,-4,-1,-6,-7,-7,-3,0
1558441934172139,0,-1,-3,0,-4,8,-4,1
1558441934179110,-3,-5,-1,-2,-2,1,-2,-6
1558441934179110,2,3,2,4,6,-4,3,4
1558441934194819,0,-3,-2,-8,-9,-1,-4,-4
1558441934194819,-1,-2,-1,2,-4,-5,-4,-2
1558441934200795,-3,-4,-6,-9,-5,-2,-1,0
1558441934200795,1,1,2,5,5,-1,0,1
1558441934217981,-1,-2,0,6,6,7,2,0
1558441934217981,-2,-1,-3,-3,-5,4,-1,-3
1558441934218718,1,-2,-3,-4,0,-4,-2,2
1558441934218718,0,0,-4,-3,-3,-10,1,1
1558441934231959,0,-1,1,6,5,1,2,1
1558441934231959,-3,-1,1,-4,-5,-2,-3,-4
1558441934238942,-2,1,-1,-1,-7,-7,-10,-4
1558441934238942,-1,-2,-3,2,-2,1,0,1
1558441934254850,2,1,2,2,10,3,8,5
1558441934254850,0,-1,1,1,4,6,5,2
1558441934268585,0,0,-2,3,0,-2,-2,-1
1558441934268585,-3,-3,-4,-9,-13,-9,-11,-5
1558441934277558,-6,-2,-4,-4,-7,2,-7,-6
1558441934277558,1,0,-4,-2,-7,-7,-5,-2
1558441934278554,2,3,7,7,17,-4,11,10
1558441934278554,-3,-2,-4,-2,-2,3,-2,-6
1558441934291901,-2,-5,-1,-3,-7,-10,-3,-1
1558441934291901,1,0,0,-3,5,3,3,3
1558441934298843,0,-1,1,5,-6,-5,-7,-3
1558441934298843,-2,0,4,0,3,11,3,0
1558441934314787,-3,-4,-7,-4,-5,-1,-2,-2
1558441934314787,-1,-2,0,-5,-11,-16,-9,-2
1558441934321581,1,0,-1,1,9,22,12,3
1558441934321581,1,-1,-1,0,7,-4,4,2
1558441934337754,0,1,0,3,-2,-2,1,0
1558441934337754,-1,-1,0,-5,2,8,3,0
1558441934339429,-1,-3,-4,-7,-9,-3,-9,-5
1558441934339429,-3,0,2,-1,-1,0,1,-2
1558441934351702,0,1,0,4,-1,-5,-8,-3
1558441934351702,2,-1,-5,-11,-2,-1,-2,-2
1558441934366488,-2,-1,7,4,-1,-13,-1,-1
1558441934366488,0,-1,-2,4,0,-6,4,1
1558441934374719,1,-1,-2,-5,-5,-8,-3,0
1558441934374719,-2,-1,0,9,6,12,1,0
1558441934381677,-1,-2,-2,-4,-3,3,-4,-2
1558441934381677,0,0,-2,-3,-3,-1,-8,0
1558441934397959,0,1,1,2,-4,-8,-4,-3
1558441934397959,-2,-2,-7,-2,0,9,5,1
1558441934398650,0,2,3,-3,1,-8,6,1
1558441934398650,-3,-2,-3,2,0,-1,-2,-2
1558441934411645,-2,-2,-3,-11,-1,2,0,-1
1558441934411645,1,1,0,-1,1,-7,6,-1
1558441934418780,-2,-2,2,3,-5,-1,-2,-3
1558441934418780,-2,-2,-5,-1,-1,4,-4,-4
1558441934434591,0,1,-6,-7,-5,2,-5,-1
1558441934434591,-1,1,8,-1,9,-5,4,2
1558441934441584,-1,-2,-8,-4,0,-11,-4,3
1558441934441584,0,-2,3,-1,-6,4,-1,-3
1558441934457733,0,-1,-3,-3,-3,-5,0,-3
1558441934457733,0,1,4,10,8,14,5,0
1558441934458490,-2,-2,-3,-6,-1,2,0,-1
1558441934458490,-3,-1,-3,-2,-1,-6,-5,-2
1558441934471454,-4,-5,4,4,-8,-5,-9,-4
1558441934471454,-1,-4,3,-4,-6,-3,-4,-2
1558441934478770,-3,-2,-9,-5,-2,-5,2,0
1558441934478770,0,0,1,3,4,8,2,1
1558441934494757,1,4,4,2,12,10,8,2
1558441934494757,-3,-4,-1,6,-3,-7,-4,-5
1558441934501633,-1,-2,-6,-6,-9,3,-3,-4
1558441934501633,-2,-1,-3,-3,-4,3,-1,-1
1558441934517676,-3,-3,1,-3,-9,-13,-7,-3
1558441934517676,0,-1,-3,1,3,2,0,3
1558441934518640,-2,0,-1,1,4,-1,2,-1
1558441934518640,2,2,4,9,5,-14,4,2
1558441934531292,-2,-3,-8,-12,-1,4,-1,0
1558441934531292,0,0,-1,3,-1,-7,-3,0
1558441934539052,-2,-2,2,-1,-3,5,-1,-2
1558441934539052,1,0,-3,-4,-4,0,-8,-2
1558441934555009,-1,-3,-1,0,-5,-2,4,2
1558441934555009,-1,0,1,7,2,-13,1,-3
1558441934561766,-1,1,-3,-18,-7,-3,-2,-2
1558441934561766,-1,-1,3,-7,4,6,3,4
1558441934577979,0,1,-1,7,8,2,2,2
1558441934577979,1,-1,-3,0,0,8,1,3
1558441934578586,-1,0,2,2,-5,-2,-7,-3
1558441934578586,-1,-2,-3,-3,-9,-6,-4,-5
1558441934591749,1,2,2,6,9,9,5,1
1558441934591749,-2,-3,-2,-8,3,-7,0,0
1558441934599855,0,1,-4,-2,3,2,-2,-1
1558441934599855,-1,-3,-2,-2,-6,-4,-8,-2
1558441934613492,-1,-1,-1,5,3,-2,3,2
1558441934613492,-3,-3,-2,-1,-7,3,-8,-6
1558441934620471,-1,-4,-2,-3,-5,0,-2,0
1558441934620471,1,-1,1,4,10,-3,3,1
1558441934636429,1,2,3,1,4,1,7,3
1558441934636429,-3,-1,-7,-1,-7,-1,-3,-1
1558441934643412,-2,-1,1,2,-3,-1,-6,-4
1558441934643412,0,1,0,-2,3,11,4,-1
1558441934650394,-3,-2,-6,-4,-3,-2,-6,-5
1558441934650394,0,2,1,0,-4,-4,-2,-2
1558441934659368,-2,-4,2,4,-3,2,2,-1
1558441934659368,-1,1,5,2,2,-4,-3,0
1558441934674327,-2,-3,-7,-8,-7,-9,-1,1
1558441934674327,-1,-2,-2,-3,0,1,-3,-4
1558441934680311,3,-1,1,4,3,6,-1,0
1558441934680311,-4,-3,-4,-5,-10,-1,-3,-3
1558441934697266,1,0,2,2,0,-7,-1,3
1558441934697266,1,1,-4,-10,0,-4,3,2
1558441934698264,0,0,1,1,4,4,3,1
1558441934698264,-1,-2,-4,-2,-4,0,-2,-3
1558441934711488,4,1,3,3,-4,-6,-6,-2
1558441934711488,-1,-2,-5,-8,-4,1,-4,-1
1558441934719208,2,0,1,6,6,0,2,2
1558441934719208,-2,-1,-1,-3,-3,3,0,-2
1558441934734167,-2,-2,-4,5,-2,3,-2,-3
1558441934734167,-1,0,6,2,7,9,2,2
1558441934741148,-3,0,2,2,1,-4,0,0
1558441934741148,-2,-2,-6,0,-5,-13,-5,-2
1558441934757106,-2,-5,-3,-14,-6,6,-1,-4
1558441934757106,0,0,-4,0,-3,-7,0,-2
1558441934759102,0,-1,2,2,10,7,0,3
1558441934759102,0,-1,-4,1,-9,-5,0,-5
1558441934771069,-3,-1,2,-3,1,-1,-7,-5
1558441934771069,3,1,2,3,9,-1,6,4
1558441934780044,-1,0,-3,-4,-4,-5,-4,0
1558441934780044,-1,-1,-3,-7,-7,-2,-2,-2
1558441934794007,-3,-1,4,-4,-5,0,-4,-5
1558441934794007,-6,-5,-13,-12,-12,-3,-7,-6
1558441934800988,1,1,4,9,11,-1,7,4
1558441934800988,-1,-4,-1,1,4,-5,0,4
1558441934816945,-2,1,0,1,0,10,1,0
1558441934816945,-2,-4,-1,-4,-10,-8,-7,-3
1558441934818940,0,-1,-6,0,-2,5,3,-3
1558441934818940,0,-1,3,0,8,-1,4,1
1558441934830908,0,0,-1,0,-5,-1,-5,-1
1558441934830908,0,0,4,7,10,14,5,1
1558441934839884,0,-1,-7,-4,-7,-14,-10,-4
1558441934839884,-2,1,6,-1,-6,-1,-4,-1
1558441934853846,-4,-3,-4,-8,2,0,3,-1
1558441934853846,1,3,3,4,1,-5,1,0
1558441934860829,-5,-7,-10,-13,-12,0,-1,-3
1558441934860829,-1,-1,1,7,8,-6,1,-1
1558441934876786,-1,1,-3,-3,1,2,3,-1
1558441934876786,-4,-3,2,3,-7,-8,-10,-5
1558441934883767,0,1,0,-10,-3,-1,1,-1
1558441934883767,2,-2,-3,2,4,17,5,2
1558441934890748,2,-1,1,3,8,8,4,4
1558441934890748,-4,-4,-4,-5,-11,-8,-4,-4
1558441934899725,-2,0,1,2,-9,-5,-4,-4
1558441934899725,-2,-2,-7,-7,1,-1,-4,-2
1558441934913687,2,0,-3,2,1,-5,-3,0
1558441934913687,1,1,5,4,3,5,-1,3
1558441934920668,-1,-2,-1,5,-4,-9,-4,-2
1558441934920668,-1,-1,-3,-12,-3,-3,-2,0
1558441934936625,1,-3,1,4,-2,-3,-4,-1
1558441934936625,1,-2,-1,-4,-7,-8,-4,-1
1558441934951586,-3,-1,3,1,6,9,4,2
1558441934951586,-2,0,-10,-6,1,-2,0,-4
1558441934952583,2,1,-1,3,4,4,3,3
1558441934952583,-1,-1,3,4,5,7,8,2
1558441934959565,0,-1,2,-4,-6,-5,-3,-2
1558441934959565,0,3,-2,7,0,1,-4,1
1558441934973527,0,-1,6,5,2,2,2,-1
1558441934973527,-3,-1,-5,-8,-6,-3,-7,-4
1558441934980509,-1,0,-1,0,7,2,4,2
1558441934980509,-1,-1,-3,-1,-2,-12,-1,2
1558441934996465,2,-2,-4,-3,-5,-3,-4,-2
1558441934996465,0,-1,5,11,5,9,5,1
1558441935003447,-1,1,-3,-8,0,-6,-2,-1
1558441935003447,0,-1,3,1,-5,-5,-6,-3
1558441935010428,-2,-3,-2,-5,-3,-9,-5,1
1558441935010428,-1,-2,-2,4,1,3,3,-2
1558441935019404,-1,-2,-1,-3,-1,10,-2,-4
1558441935019404,0,-3,-5,-2,-2,-2,2,-1
1558441935034364,-4,-3,0,-6,-7,-15,-4,-3
1558441935034364,-2,1,-6,-7,-1,4,-3,-1
1558441935040347,0,0,2,5,3,0,3,2
1558441935040347,-1,0,-1,-2,-3,1,-2,2
1558441935056306,-2,-4,3,4,5,6,3,-5
1558441935056306,-1,-4,1,11,0,-10,-1,-1
1558441935063287,-2,-1,-4,-9,-7,-8,-2,-1
1558441935063287,-1,-2,0,-5,-2,6,-2,-2
1558441935079245,-4,-1,-3,-1,-4,-6,-5,-2
1558441935079245,0,2,-3,-2,-1,-2,-1,2
1558441935081238,2,-2,3,3,7,-11,1,1
1558441935081238,-3,-6,2,0,-7,-3,-4,-2
1558441935094205,-2,0,-1,3,1,11,4,0
1558441935094205,-1,-3,-4,-7,-4,-8,-8,-4
1558441935101185,0,0,-2,-2,0,3,2,-1
1558441935101185,-1,-2,0,-3,0,1,-1,-3
1558441935116146,0,0,0,0,4,1,5,4
1558441935116146,1,2,0,1,1,-5,1,-1
1558441935123127,-4,-4,-5,-3,-11,-1,-6,-2
1558441935123127,1,1,-1,4,4,13,3,0
1558441935139085,-3,1,3,2,-3,-10,1,-2
1558441935139085,1,-2,-5,-9,-4,2,1,2
1558441935141079,-2,-3,-4,1,1,-7,-5,-4
1558441935141079,0,0,3,4,1,1,0,-1
1558441935155044,0,-1,-4,-3,-2,-2,1,1
1558441935155044,0,0,1,-3,-5,-9,-7,0
1558441935169017,-4,-4,-2,-1,-3,2,-1,-2
1558441935169017,-3,1,3,4,0,-7,-3,-2
1558441935175989,-1,-2,-10,-12,-7,3,0,-3
1558441935175989,-2,-1,0,0,6,3,1,-2
1558441935182979,-2,-3,-2,-6,-8,-1,-7,-5
1558441935182979,-1,-1,5,5,3,-2,-1,-4
1558441935198936,-2,-1,-4,-6,-10,-5,-3,1
1558441935198936,-2,-1,-5,-4,-1,-1,-1,-5
1558441935199924,-1,2,3,6,0,-8,-1,0
1558441935199924,2,0,-4,-4,14,12,9,7
1558441935214887,0,-1,3,3,0,-3,-5,-2
1558441935214887,1,-1,3,2,-5,-3,-4,3
1558441935220918,-3,-3,-3,-4,0,4,2,-5
1558441935220918,-1,0,-8,-13,-11,-12,-7,-4
1558441935235833,-2,-3,2,5,4,2,1,1
1558441935235833,-3,0,3,5,1,0,2,0
1558441935243807,1,-1,-1,1,-1,3,-1,1
1558441935243807,-2,-4,-3,-3,-7,-11,-2,0
1558441935258778,1,1,0,4,-1,3,-1,0
1558441935258778,-3,-3,-8,-16,-6,-2,-3,-5
1558441935259769,-1,-1,0,2,0,8,0,2
1558441935259769,-1,-1,2,2,2,6,0,0
1558441935274727,2,5,-2,-8,-2,-3,1,1
1558441935274727,-3,0,3,1,-5,-5,0,-3
1558441935280708,3,3,1,-3,7,3,6,2
1558441935280708,-1,-2,1,8,1,-2,-4,-3
1558441935295669,-3,-4,-7,-5,-9,-6,-4,-4
1558441935295669,-2,2,4,6,7,16,0,0
1558441935303646,-4,-9,-8,-3,-6,0,-4,-1
1558441935303646,3,1,5,0,3,1,3,5
1558441935318635,-2,-2,-2,-3,-3,-3,-5,-2
1558441935318635,-1,0,-4,1,-7,-14,-6,-6
1558441935319602,1,2,-4,-12,-1,2,-1,0
1558441935319602,-1,-3,1,2,3,6,5,1
1558441935334727,1,-1,-2,5,6,-1,5,3
1558441935334727,3,-3,-2,-2,3,-1,-1,2
1558441935340614,-4,0,-1,4,-13,-14,-9,-7
1558441935340614,1,0,-3,-7,-5,-4,-1,-2
1558441935355554,-3,0,-4,-8,4,5,1,-2
1558441935355554,-4,-5,8,4,0,-1,-4,-2
1558441935363487,0,-1,-2,-2,-3,-10,-6,0
1558441935363487,-2,-1,-2,2,0,5,-1,-3
1558441935379463,1,0,-2,-3,-6,-3,1,-2
1558441935379463,0,-2,-3,-6,-1,-3,-1,0
1558441935379463,0,2,7,8,12,8,8,4
1558441935379463,-4,-1,-8,-8,-14,-7,-5,-2
1558441935394411,-2,-2,5,7,7,3,-2,-1
1558441935394411,-2,-3,-10,-8,-7,4,-1,-2
1558441935401385,-2,-1,-3,-7,-6,-10,-5,-3
1558441935401385,-3,-1,1,5,-1,2,5,-2
1558441935416348,-3,-4,-1,-5,-3,-1,-6,-3
1558441935416348,-1,-1,-2,1,2,9,6,2
1558441935423378,-1,-1,3,4,4,3,3,3
1558441935423378,1,0,-5,-5,-2,-9,-4,0
1558441935439336,-1,-3,-6,-5,-1,5,1,-3
1558441935439336,-1,-2,5,6,4,1,1,3
1558441935439336,-1,-1,1,3,3,-6,-1,-3
1558441935439336,-1,2,1,1,-2,3,-4,-2
1558441935455240,-1,-3,1,4,-7,0,-5,-2
1558441935455240,-1,-3,-10,-22,-9,-5,-4,-5
1558441935461232,2,2,1,8,8,2,7,3
1558441935461232,-1,-1,2,-2,2,-4,0,0
1558441935476184,-2,0,3,4,0,1,-1,1
1558441935476184,3,0,-1,5,2,6,2,-1
1558441935483241,-4,0,-2,-2,-6,1,-6,-2
1558441935483241,0,-2,-5,-5,-7,-5,-3,-4
1558441935499137,-2,-3,-3,-5,-9,-6,-8,-5
1558441935499137,-4,-3,0,1,-4,-9,-4,-2
1558441935500120,1,3,7,5,10,5,7,6
1558441935500120,1,-1,1,-4,5,-4,6,3
1558441935515088,-1,-1,0,-3,3,-1,3,1
1558441935515088,-2,-2,-3,-3,-9,-8,-5,-3
1558441935521070,-3,-4,-1,4,-2,11,-3,-7
1558441935521070,-1,0,-4,-3,0,4,-3,-1
1558441935536025,-4,-3,-1,-11,-9,-10,-6,-2
1558441935536025,1,2,2,2,2,-2,1,1
1558441935543008,-4,-4,-7,-7,-5,-5,-4,1
1558441935543008,-4,-5,1,7,1,-8,-2,-2
1558441935558993,3,1,6,5,9,1,6,4
1558441935558993,0,-1,1,3,5,11,6,3
1558441935559961,-1,-3,-3,-4,-5,-2,-1,-1
1558441935559961,-2,-1,-1,-3,-5,1,-1,-3
1558441935574930,0,0,0,5,3,3,-3,-2
1558441935574930,-2,0,-9,-8,-12,-5,-6,-4
1558441935580959,2,0,9,6,7,-14,2,0
1558441935580959,1,2,5,3,3,4,3,2
1558441935595917,-3,-1,-2,1,0,-5,-4,0
1558441935595917,-2,-3,-2,1,1,-3,0,0
1558441935603921,0,1,-4,-3,4,10,1,3
1558441935603921,-2,1,-3,-3,1,2,-2,-1
1558441935619804,-3,-2,0,0,-4,-3,0,-2
1558441935619804,-1,-1,-1,-1,0,2,-2,-2
1558441935619804,0,-1,-5,-2,-6,-1,-6,-1
1558441935619804,-1,-2,0,-4,-3,-5,-4,-5
1558441935634775,2,2,-1,1,4,9,8,5
1558441935634775,-2,-1,-3,-6,-6,-18,-3,0
1558441935640854,-2,1,-2,-2,-6,-2,-2,-3
1558441935640854,0,-1,-1,-1,2,12,2,0
1558441935657711,-2,-3,-5,-2,-6,-3,-2,-5
1558441935657711,0,-1,4,3,4,0,-5,-1
1558441935663732,-2,-2,-4,-7,-9,1,-7,-3
1558441935663732,-2,0,-1,0,3,-2,2,4
1558441935679644,2,1,7,2,7,-19,4,3
1558441935679644,1,0,1,-2,6,5,5,1
1558441935679644,-3,-3,-8,-13,-9,2,-7,-4
1558441935679644,-5,-6,1,3,-10,-5,-12,-8
1558441935694602,-1,0,-4,-2,1,2,1,2
1558441935694602,0,3,0,2,8,6,11,3
1558441935700584,0,-1,5,5,4,0,0,-1
1558441935700584,-1,-1,-9,-11,-7,-4,-5,1
1558441935717541,-1,-2,2,4,-9,-8,-10,-6
1558441935717541,-1,-1,-2,-10,-1,-4,-3,-2
1558441935723522,0,0,-3,2,0,1,4,1
1558441935723522,1,1,-1,-2,0,-3,3,0
1558441935738482,-3,-2,-2,-5,-2,-4,-1,-3
1558441935738482,0,1,-2,-2,4,7,0,1
1558441935739479,-1,-2,0,2,-5,1,-1,-3
1558441935739479,-1,2,3,8,-1,-3,-2,0
1558441935754439,0,-2,-5,-10,-3,6,-1,-3
1558441935754439,-3,0,4,10,5,5,0,-1
1558441935760458,-2,0,-4,-8,4,1,1,2
1558441935760458,-1,0,-1,0,-3,0,-2,-2
1558441935777378,1,0,-6,-5,-7,-7,-6,-1
1558441935777378,0,-2,0,4,-3,1,1,-4
1558441935783361,2,2,-1,2,6,-5,-3,1
1558441935783361,-5,-4,5,-2,1,5,0,-1
1558441935806305,1,-1,3,9,3,-5,2,1
1558441935806305,2,4,0,0,6,-3,4,5
1558441935807303,-3,-5,4,0,-6,-4,-8,-8
1558441935807303,1,0,-7,-7,-9,-5,-4,-5
1558441935814285,-1,-1,-5,0,-3,2,-1,-2
1558441935814285,-3,-3,2,5,3,11,-2,-7
1558441935821384,-2,-1,-8,-16,-5,-5,2,2
1558441935821384,1,-1,10,12,7,1,6,3
1558441935837318,0,-3,2,-2,2,-1,1,2
1558441935837318,-2,-2,5,10,2,-1,-6,-2
1558441935843206,0,-1,-6,-7,-12,0,4,-1
1558441935843206,0,-2,0,2,0,0,-1,1
1558441935858216,0,-1,-3,-2,-6,-6,-1,-3
1558441935858216,0,1,-1,1,6,7,6,3
1558441935866257,-1,-1,-6,-5,-1,6,-1,-3
1558441935866257,-1,1,-3,0,-1,-3,0,-1
1558441935889209,-1,2,1,-4,1,-20,-1,0
1558441935889209,-5,-3,-6,-6,-11,-2,-3,-2
1558441935890090,-3,-1,2,8,-2,1,-2,-2
1558441935890090,-1,-2,-8,0,-1,0,-4,-1
1558441935897061,-1,-1,2,2,6,10,0,-1
1558441935897061,0,-2,-9,-20,-5,-6,2,1
1558441935903051,0,-1,8,8,5,3,0,-2
1558441935903051,0,0,2,-3,-4,-15,-4,-1
1558441935918003,-1,1,-4,1,4,7,-2,0
1558441935918003,0,-2,3,4,-4,-6,-5,-2
1558441935925983,1,-1,1,6,9,3,-2,-3
1558441935925983,-2,-3,-4,-7,-5,2,2,-1
1558441935941939,-2,0,-2,-5,2,8,1,-1
1558441935941939,-4,-1,-4,-3,-7,1,-3,-2
1558441935941939,1,3,7,7,0,-16,-5,0
1558441935941939,-3,-4,-6,-10,0,2,-2,-4
1558441935956901,0,-1,3,1,5,-3,4,3
1558441935956901,1,-2,-8,-7,-2,4,0,-2
1558441935962942,-2,-2,0,2,0,5,-2,-4
1558441935962942,-1,-2,2,1,-2,-7,-2,1
1558441935978841,-2,-2,-1,-1,-8,-2,-2,-1
1558441935978841,-1,1,0,1,-1,-6,-8,-2
1558441935985881,1,0,-2,-4,2,6,5,2
1558441935985881,0,0,-4,1,1,2,1,-2
1558441936001800,-2,0,-3,-5,-1,1,-3,-1
1558441936001800,-2,-1,-2,2,-2,0,-1,1
1558441936001800,-1,-2,-4,-8,-8,-20,-3,2
1558441936001800,-4,0,3,4,-2,-6,-4,-2
1558441936017736,-1,1,3,7,1,11,4,0
1558441936017736,-3,-2,-2,-5,-6,-6,-4,-3
1558441936023808,-1,-2,-2,-1,6,10,5,1
1558441936023808,-1,-2,0,-2,-2,-7,0,0
1558441936038738,-2,-2,-6,-2,-8,-2,-8,-6
1558441936038738,-1,-3,-5,-12,-6,-11,-4,-3
1558441936045670,-2,1,0,1,3,12,1,-1
1558441936045670,0,0,-1,0,-1,0,-3,-1
1558441936061620,2,-1,-4,-6,-4,-9,1,1
1558441936061620,0,-2,2,-1,1,-5,0,0
1558441936062616,-1,-1,0,2,0,-6,-4,-2
1558441936062616,0,1,0,6,4,12,0,-1
1558441936077584,-1,-1,-4,-15,-8,-4,-5,-2
1558441936077584,-1,0,-4,-1,-2,2,-3,2
1558441936083670,-2,0,4,4,3,4,4,-1
1558441936083670,0,1,0,1,2,-12,1,1
1558441936098629,-1,-4,-1,2,-3,-4,-4,-3
1558441936098629,1,0,0,2,-2,-6,-3,1
1558441936105550,2,-2,-5,-5,-4,-3,-2,1
1558441936105550,-2,-1,-2,-4,-3,-2,-3,-1
1558441936121469,-2,-1,1,0,1,9,0,-1
1558441936121469,-1,-1,0,3,-1,0,-3,-3
1558441936122464,-1,-2,-1,2,-4,3,-5,-3
1558441936122464,1,-2,-4,-8,2,4,3,1
1558441936137416,-2,-4,-2,1,-4,-16,-5,-2
1558441936137416,-1,1,-1,4,6,7,5,-1
1558441936143400,0,0,-2,-3,3,2,0,1
1558441936143400,-1,0,4,5,2,5,2,-1
1558441936158358,-2,1,3,-5,-1,4,-2,-2
1558441936158358,-2,-5,-4,-11,-10,-6,-3,-4
1558441936165340,-2,1,-2,-1,8,9,5,4
1558441936165340,-2,-3,-1,1,-6,-7,-3,1
1558441936181331,1,1,-1,2,5,5,1,0
1558441936181331,0,-2,0,6,-3,-8,-3,-2
1558441936182330,-2,-3,-1,-8,-4,-3,-6,-3
1558441936182330,-1,-3,-3,0,1,5,1,-2
1558441936197265,0,0,-5,0,1,5,4,2
1558441936197265,-2,-2,0,-4,-1,-1,0,-1
1558441936203253,0,0,5,5,-4,-15,-5,-2
1558441936203253,1,1,-3,-4,4,5,0,-1
1558441936218313,-1,-3,-3,-2,-3,-8,-2,-1
1558441936218313,1,0,5,3,2,-4,-1,1
1558441936226182,-3,-1,-2,0,-6,-2,1,-2
1558441936226182,-2,0,-2,0,0,2,0,-1
1558441936241248,-2,0,0,-5,-7,-6,-6,-2
1558441936241248,-1,2,-4,-4,2,5,1,0
1558441936242137,-4,-3,-2,-1,-6,-13,-9,-4
1558441936242137,1,-1,-1,2,-1,8,4,2
1558441936257145,-1,-3,-6,-7,-3,-1,-2,-2
1558441936257145,-1,-1,9,11,6,3,6,3
1558441936264078,1,0,0,-1,2,-2,-4,-1
1558441936264078,-2,0,-2,-9,-2,0,-3,-2
1558441936280034,1,1,7,14,0,-12,-3,-1
1558441936280034,-1,-2,-4,-6,2,8,0,0
1558441936286233,-1,-2,-3,-2,0,3,2,-1
1558441936286233,0,0,4,2,-3,-11,-3,-2
1558441936302198,0,-2,-1,6,4,6,0,-2
1558441936302198,-3,-1,-3,-5,-8,-7,-5,-6
1558441936302198,-1,-2,0,-4,-2,-4,0,1
1558441936302198,0,-1,-3,-4,3,7,1,1
1558441936317934,0,0,4,5,7,-1,3,1
1558441936317934,2,0,-1,0,3,5,2,0
1558441936322919,-1,0,0,-4,-2,2,0,-1
1558441936322919,-1,-3,-3,-5,-7,-2,-5,-5
1558441936337878,-2,-2,-9,-9,-8,2,-3,-3
1558441936337878,-3,-1,12,18,9,0,-2,-3
1558441936345858,-1,-1,-8,-19,-7,-4,-1,0
1558441936345858,-2,0,5,6,2,-3,0,2
1558441936361817,-2,0,-7,-8,-2,-2,-3,-3
1558441936361817,-1,-3,-6,-2,-7,-4,-3,-5
1558441936361817,1,0,1,4,7,6,6,1
1558441936361817,-4,-3,-7,-8,-8,-10,-5,-2
1558441936376775,-2,0,4,3,9,15,5,4
1558441936376775,0,-2,-8,-10,-11,-18,-6,-1
1558441936383769,0,0,3,4,-1,-4,-1,-1
1558441936383769,-1,2,6,0,4,1,4,1
1558441936399089,-1,-1,5,6,0,4,0,-1
1558441936399089,-1,-1,-12,-15,-10,0,-3,-3
1558441936414045,2,0,-2,3,2,-8,0,1
1558441936414045,-1,-3,-2,-2,4,1,-2,-1
1558441936422033,0,-2,2,0,-6,4,-4,-3
1558441936422033,0,0,1,-1,4,4,-1,1
1558441936422033,-4,-3,-3,-4,-10,-4,-5,-4
1558441936422033,-1,2,-2,0,-3,-5,-3,-2
1558441936437612,1,3,-2,-1,11,4,6,4
1558441936437612,-4,-5,1,-1,-9,-3,-4,-4
1558441936443009,-1,-3,-2,-1,-4,5,-1,-3
1558441936443009,2,2,1,1,4,12,11,7
1558441936458229,2,2,-3,-7,1,-18,-2,-2
1558441936458229,-1,-1,-1,6,-2,-6,-1,-3
1558441936465950,-5,-5,-1,-6,-7,-1,-4,-4
1558441936465950,-2,-5,-5,-3,-10,-1,-7,-7
1558441936481907,-1,0,0,2,-1,4,-1,2
1558441936481907,3,2,0,2,10,17,8,2
1558441936481907,1,-1,-3,-1,-1,-7,-6,-1
1558441936481907,2,1,-4,-4,-1,-16,-2,1
1558441936496895,-4,-4,1,-3,-5,-3,-5,-5
1558441936496895,-1,0,-4,-3,3,5,1,4
1558441936502889,-1,1,1,6,2,11,3,2
1558441936502889,1,1,-1,1,-2,-21,-1,0
1558441936519801,-2,-3,0,-4,-5,0,-3,-3
1558441936519801,-2,-3,6,4,2,-4,1,1
1558441936525786,3,1,0,5,3,-2,1,2
1558441936525786,-3,0,-3,-5,-1,-2,-4,-1
1558441936541744,-5,-5,-5,0,-11,-11,-6,-7
1558441936541744,1,-1,-3,-2,-1,2,3,0
1558441936541744,-1,0,3,2,-8,-11,-7,-6
1558441936541744,1,-1,-4,-6,9,17,5,1
1558441936556730,1,2,0,-3,4,-5,4,5
1558441936556730,-4,-3,-2,-8,-9,-9,-9,-4
1558441936563698,1,1,-1,1,5,2,7,4
1558441936563698,0,-1,-1,2,-5,-2,-3,-1
1558441936579018,-2,-2,3,5,1,5,-3,-2
1558441936579018,1,1,-1,0,-6,-6,-6,-2
1558441936586732,-1,-2,-1,-3,-3,1,-4,-5
1558441936586732,0,-2,-5,-9,0,0,1,2
1558441936601936,1,2,-2,4,4,6,5,3
1558441936601936,0,2,1,2,3,0,4,2
1558441936602581,-1,-4,-3,-1,-2,-5,-2,-2
1558441936602581,-3,-4,-1,2,-1,8,-2,-3
1558441936617540,-1,-4,-2,-4,-8,-10,-6,-3
1558441936617540,-1,-2,-6,-12,0,6,3,0
1558441936623526,0,0,4,12,6,7,1,1
1558441936623526,-3,-3,-3,-3,0,-9,-2,-1
1558441936638485,-3,-2,-4,-7,-6,-4,-1,-2
1558441936638485,-2,-1,-2,1,-5,-6,-3,-3
1558441936645468,0,0,-2,-5,2,-4,1,1
1558441936645468,-3,-2,0,-1,-9,1,-8,-6
1558441936661427,-2,-3,0,3,-3,-2,-5,-2
1558441936661427,1,2,3,5,10,-3,4,2
1558441936662422,-1,-1,-3,-3,-1,-9,1,2
1558441936662422,-1,-4,-6,-12,-14,-1,-9,-9
1558441936677382,-1,-3,-1,0,2,4,2,0
1558441936677382,2,3,4,2,13,3,9,5
1558441936683517,-2,1,-2,0,-1,5,-1,-1
1558441936683517,-1,0,1,0,-6,-9,-4,-3
1558441936698678,0,0,-2,-3,-6,-8,-5,-2
1558441936698678,-1,0,-4,1,5,16,0,-2
1558441936706303,-2,-2,-3,-4,0,3,2,0
1558441936706303,-2,-1,1,1,3,12,4,1
1558441936720268,-1,1,7,2,0,-12,-5,0
1558441936720268,-2,0,-2,0,-3,-4,-3,-1
1558441936728244,1,-3,-2,-7,-7,-10,-5,-3
1558441936728244,0,1,-5,-2,1,0,3,-1
1558441936737220,1,0,0,4,5,11,5,1
1558441936737220,-1,-2,-1,-4,-3,-3,-4,-2
1558441936743206,-2,-2,-2,-2,-3,6,-5,-1
1558441936743206,0,0,0,4,1,0,-1,0
1558441936758166,-3,-1,-3,0,-1,9,-2,-6
1558441936758166,-4,-3,-5,-5,-16,-14,-13,-7
1558441936766151,0,0,0,-4,12,7,10,6
1558441936766151,3,2,10,9,12,-9,6,5
1558441936781104,2,-1,-4,2,9,9,9,4
1558441936781104,1,-2,-4,-2,-3,0,-4,-4
1558441936788298,-5,-4,-4,-10,-18,-9,-18,-11
1558441936788298,-2,0,-6,-5,-1,3,3,0
1558441936797273,-1,1,9,5,16,15,11,5
1558441936797273,-3,-3,0,0,-6,-8,-4,0
1558441936803262,2,0,-2,5,0,-5,2,2
1558441936803262,0,-1,-1,1,-8,-5,-9,-4
1558441936818224,-3,-2,-5,-8,-11,1,-3,-3
1558441936818224,-2,0,2,1,11,2,6,3
1558441936826201,-3,-2,-2,-2,-2,-8,-3,-1
1558441936826201,-1,-2,3,5,-1,5,-4,-1
1558441936841155,3,0,-7,-11,-3,-2,1,1
1558441936841155,0,-2,1,0,-1,-8,-4,-2
1558441936848138,0,-1,1,6,5,5,7,0
1558441936848138,1,0,4,5,13,10,4,0
1558441936857142,-2,-3,-9,-15,-13,-5,-6,-1
1558441936857142,-4,-1,-1,-2,-6,-6,-2,1
1558441936863097,-1,-1,-4,-1,-6,0,-2,-5
1558441936863097,-2,-1,4,8,0,-9,0,0
1558441936878062,-2,0,0,5,3,3,-5,-2
1558441936878062,1,-2,-4,-13,-13,-3,-5,-1
1558441936886046,-3,0,1,8,-1,2,0,-3
1558441936886046,-1,-2,-2,-9,-5,-7,0,1
1558441936901012,-2,-1,7,8,10,-3,4,1
1558441936901012,-2,-1,-7,1,-5,-1,-5,-4
1558441936907977,1,0,0,-2,1,10,1,0
1558441936907977,-4,-3,-6,-5,-4,-1,-2,-3
1558441936923935,-3,-3,1,0,-7,-12,-7,-4
1558441936923935,-1,-2,0,3,-2,3,1,0
1558441936924932,0,0,0,-5,10,7,3,3
1558441936924932,-2,-1,0,-5,-8,-5,-4,-3
1558441936937903,2,0,-4,0,-2,-5,0,-2
1558441936937903,-2,-3,4,6,-1,-3,-2,-3
1558441936945878,-1,-3,-3,-2,4,3,5,4
1558441936945878,1,0,-3,-6,3,-10,-2,2
1558441936960838,0,-2,-1,1,-6,-9,-4,-3
1558441936960838,-2,0,0,0,-1,6,1,-3
1558441936967830,-1,-3,-2,0,-13,-10,-11,-7
1558441936967830,2,2,1,3,16,11,11,6
1558441936983785,-1,-2,0,0,-4,1,-2,-2
1558441936983785,-1,1,3,3,9,11,6,0
1558441936984771,-2,-2,0,-4,-5,-1,-4,-2
1558441936984771,-2,-1,-5,-3,-10,-6,-7,-4
1558441936997750,-1,0,-1,1,6,6,3,3
1558441936997750,2,0,-1,-5,-4,-2,5,3
1558441937005717,0,-1,1,-7,4,-1,-1,-1
1558441937005717,-4,-4,-4,-4,-9,-6,-7,-4
1558441937028662,-3,-1,-1,0,-5,-17,-4,-3
1558441937028662,-1,0,-1,7,10,10,2,1
1558441937029655,-2,-2,-10,-19,-7,3,0,-3
1558441937029655,-1,-2,3,3,-5,-6,-7,-5
1558441937043618,-3,-5,-5,-5,3,-1,1,-2
1558441937043618,0,-1,0,1,-1,-7,-6,-1
1558441937044612,0,0,-1,4,-5,-14,-6,0
1558441937044612,-2,-1,0,-5,-3,6,1,-3
1558441937058576,0,0,0,1,-6,0,-1,0
1558441937058576,1,-1,-2,-4,-1,-3,3,0
1558441937065558,-1,-2,-1,4,2,-5,-1,-2
1558441937065558,-3,-3,2,1,1,1,-2,-3
1558441937080526,-4,-3,-7,-19,-16,0,-3,-4
1558441937080526,-1,-1,-3,-4,0,2,1,0
1558441937088505,5,4,10,14,18,-7,8,7
1558441937088505,-2,-2,-2,-2,1,-2,1,2
1558441937103465,-1,-3,-2,1,3,7,-3,-5
1558441937103465,-3,-4,-6,-10,-18,-2,-11,-8
1558441937104450,-2,-1,-3,-3,2,9,7,1
1558441937104450,0,-1,-2,2,5,-6,2,2
1558441937118426,0,2,-1,-3,2,1,1,1
1558441937118426,1,-1,4,1,-4,-10,-4,-2
1558441937126397,-1,0,0,2,-5,-6,-4,-5
1558441937126397,0,1,2,2,6,19,7,4
1558441937140355,-3,-2,0,1,-2,1,-5,-4
1558441937140355,-2,-4,0,6,2,-2,0,0
1558441937148335,1,0,-5,-13,0,-7,-4,0
1558441937148335,-1,-1,0,-1,-3,-5,-5,-2
1558441937164304,2,-1,-2,-3,-4,-9,-2,2
1558441937164304,0,0,1,-1,6,5,3,1
1558441937164304,-4,-1,-4,1,-5,2,-3,-1
1558441937164304,-2,-3,-2,0,-3,-9,-5,-4
1558441937178254,1,-1,2,0,6,9,4,2
1558441937178254,2,1,3,5,-3,-5,-2,-1
1558441937185238,0,2,3,-7,12,8,9,3
1558441937185238,-5,-6,-5,-11,-12,-2,-7,-4
1558441937201193,0,-3,0,3,-9,-3,-6,-3
1558441937201193,-1,-1,-7,-7,6,-4,2,3
1558441937208175,2,0,4,15,9,12,5,0
1558441937208175,1,0,2,-5,-4,-11,0,-1
1558441937224132,-2,1,1,4,5,-3,0,-2
1558441937224132,-2,-3,-6,-11,-18,-9,-10,-7
1558441937225128,-1,-4,-1,1,-4,2,0,1
1558441937225128,2,1,-1,3,2,-5,1,0
1558441937238099,-1,0,-1,-3,-1,0,-1,1
1558441937238099,0,-1,-3,0,5,3,3,-2
1558441937246077,-1,0,1,4,0,9,-4,-2
1558441937246077,-1,0,-8,-13,-6,-4,-3,-4
1558441937261032,0,1,2,1,1,0,3,1
1558441937261032,-1,0,-6,-5,-4,-9,-2,-2
1558441937268015,-3,-2,3,3,-7,-3,-3,-4
1558441937268015,2,1,0,0,7,18,6,4
1558441937283973,-1,2,3,9,4,-5,-5,-2
1558441937283973,0,-1,-5,-23,-1,4,1,1
1558441937284973,-1,-1,1,10,-3,-15,-5,0
1558441937284973,-1,-1,-7,-6,-11,-11,-5,-1
1558441937297938,1,0,-1,-1,0,1,4,0
1558441937297938,-1,-2,-1,5,5,-5,1,-1
1558441937305914,-4,-4,-10,-11,-7,-2,-8,-6
1558441937305914,2,3,2,5,6,2,4,-1
1558441937320876,-4,-3,-4,-2,-5,2,0,0
1558441937320876,-4,-1,4,8,6,3,2,1
1558441937327857,1,1,-3,-8,-6,-12,1,1
1558441937327857,-2,-1,2,6,6,1,-1,1
1558441937343811,0,-2,-4,-4,-5,-3,-4,-3
1558441937343811,-3,-4,4,4,-2,4,-3,-4
1558441937344808,-2,-1,-3,-3,-2,4,-3,-2
1558441937344808,0,-1,-3,1,-8,1,-5,-4
1558441937357780,2,-1,-1,-8,3,-6,3,3
1558441937357780,4,5,2,1,11,1,7,6
1558441937365753,-2,-1,2,-2,3,0,4,3
1558441937365753,-3,-1,-1,4,-3,-1,-6,-6
1558441937380721,-4,-2,-5,3,-8,-3,-7,-6
1558441937380721,-1,-1,0,5,-3,5,2,-1
1558441937387697,-1,1,4,3,3,0,-3,0
1558441937387697,-2,-1,1,-6,-2,-4,-2,0
1558441937403652,1,0,1,2,4,1,6,1
1558441937403652,0,-2,-5,1,-1,-6,1,0
1558441937404648,-4,-3,-4,-5,-9,-4,-6,-4
1558441937404648,2,-2,-1,1,3,2,0,0
1558441937419610,-1,0,1,-6,0,3,0,-1
1558441937419610,-2,-1,2,-4,-1,5,-3,-2
1558441937425592,-2,-2,0,8,-5,-8,-2,-3
1558441937425592,-1,-1,-1,-11,-4,-12,-4,-1
1558441937440553,-2,-2,-5,-2,0,4,0,-3
1558441937440553,1,-2,-2,-2,-4,-7,-2,0
1558441937448533,-2,0,-5,-5,-1,2,-1,-2
1558441937448533,-2,-1,4,5,5,4,3,2
1558441937463491,-4,0,2,4,-1,-7,-6,-1
1558441937463491,-2,-1,-5,-3,-7,-4,-4,-1
1558441937464488,3,-1,4,3,13,9,10,3
1558441937464488,2,1,-1,3,3,-1,0,0
1558441937479448,-2,-3,-1,-5,-4,0,-3,-2
1558441937479448,-4,-1,-1,-4,-7,-3,-3,-1
1558441937485437,-2,-2,-9,-18,-6,-7,-4,-2
1558441937485437,-2,-2,-5,0,0,-1,1,-1
1558441937500401,0,-3,-1,1,2,5,0,-1
1558441937500401,-3,-1,2,3,-4,5,-7,-6
1558441937508376,-2,-3,0,-2,-6,-5,-3,-3
1558441937508376,1,2,4,1,14,6,14,10
1558441937524332,-1,0,-4,-3,-1,-9,-4,-3
1558441937524332,-1,-2,2,2,-2,0,-3,-2
1558441937524332,-2,-1,-4,-6,-11,-6,-6,-3
1558441937524332,-2,0,2,3,-1,5,-2,-3
1558441937539297,-1,-3,-2,2,1,3,0,-3
1558441937539297,-1,0,0,-3,4,0,3,1
1558441937554247,-1,-2,-2,-1,-2,-4,0,-3
1558441937554247,-2,-2,-2,-1,-12,-9,-10,-5
1558441937561242,0,1,1,0,-2,-4,0,-2
1558441937561242,-2,-1,-6,-10,-2,0,2,-1
1558441937568211,-2,-2,2,1,-2,0,1,-2
1558441937568211,0,0,-2,-4,-1,2,3,0
1558441937584168,0,1,4,3,5,-2,3,5
1558441937584168,-2,-1,0,2,-2,-3,-3,-1
1558441937584168,0,-1,-3,-2,4,5,2,-1
1558441937584168,-2,-1,-2,7,-6,-1,-6,-3
1558441937599130,-4,-4,-8,-22,-17,-8,-8,-4
1558441937599130,3,2,-4,-5,1,-20,2,3
1558441937606111,-2,-1,5,11,12,17,4,3
1558441937606111,-1,-1,0,0,-4,0,-1,-2
1558441937621069,1,-1,3,4,5,1,4,3
1558441937621069,-1,-1,1,2,0,4,1,-1
1558441937628052,-1,-1,-3,-4,-3,-6,-4,-3
1558441937628052,-3,-2,-5,-4,-4,2,-6,-3
1558441937644007,-1,2,2,1,0,-6,-1,2
1558441937644007,-2,-3,1,0,-2,-4,0,-3
1558441937645009,2,1,-1,2,0,-2,1,2
1558441937645009,-3,-2,-1,5,2,7,-4,-3
1558441937659973,1,-1,-4,-8,-7,-2,-2,-1
1558441937659973,0,0,3,5,3,2,0,1
1558441937665950,-2,1,-3,-1,-4,-1,-2,0
1558441937665950,0,0,0,-7,6,-5,5,2
1558441937680913,4,0,-1,2,5,2,6,2
1558441937680913,-1,-3,-3,0,-3,1,-5,-6
1558441937687899,-1,-3,-3,-4,-7,5,-4,-5
1558441937687899,0,4,2,8,6,-3,0,1
1558441937702856,-1,1,2,-2,8,-3,10,5
1558441937702856,-3,-3,-4,-4,-2,-4,-4,-2
1558441937710831,-2,-3,-3,-4,-9,-5,-6,-2
1558441937710831,0,-3,-1,0,-2,-5,-1,-2
1558441937719807,0,-1,-4,2,2,10,0,-1
1558441937719807,-1,-2,2,4,-4,0,-1,-1
1558441937725794,-1,-1,0,1,1,-2,-1,-2
1558441937725794,-1,-4,-3,-9,-8,-1,0,-4
1558441937740749,-1,0,0,2,0,-3,-4,0
1558441937740749,0,-2,-1,-2,2,2,3,4
1558441937748735,0,0,2,4,3,-1,0,-4
1558441937748735,-2,-4,-4,-6,-6,-3,-3,-5
1558441937762696,-3,-2,0,0,-6,4,-6,-6
1558441937762696,0,0,-2,0,-6,-11,-3,-2
1558441937770670,1,2,-2,-2,9,4,11,8
1558441937770670,-1,1,1,0,3,0,0,2
1558441937779646,-1,1,-4,3,-2,2,-2,-3
1558441937779646,-2,-7,-3,-9,-6,-7,-10,-6
1558441937785630,-1,-1,4,-1,-9,-15,-1,1
1558441937785630,-2,-3,-2,-6,-1,2,0,0
1558441937800592,-1,0,-2,2,3,5,4,1
1558441937800592,1,5,4,4,10,0,3,3
1558441937808569,-2,-3,-7,-9,-7,-9,-6,-7
1558441937808569,-3,-1,-1,4,3,5,3,-1
1558441937831513,-3,-6,-5,-8,-12,-15,-10,-7
1558441937831513,1,0,-5,-7,-1,6,-2,0
1558441937832505,0,-2,11,12,13,10,5,3
1558441937832505,-2,-1,2,-7,-5,1,-2,-1
1558441937846471,-2,-3,-5,-3,-7,-14,-9,-1
1558441937846471,-1,-1,-2,2,8,17,5,1
1558441937847465,2,1,0,0,9,-5,1,1
1558441937847465,-1,0,0,-2,0,0,1,-1
1558441937860433,-2,-2,2,1,-11,-4,-4,-4
1558441937860433,-1,0,-11,-12,-14,-7,-6,-4
1558441937868408,0,-2,3,1,4,0,4,3
1558441937868408,1,1,2,3,8,6,3,6
1558441937883369,1,1,3,6,1,1,-3,-1
1558441937883369,-1,3,0,-3,4,7,-1,1
1558441937890350,-3,-3,-6,-10,-13,-1,-12,-8
1558441937890350,-2,-1,-10,-7,-10,-11,-5,-1
1558441937906307,0,4,5,9,15,7,9,6
1558441937906307,-3,-8,4,3,5,8,-2,-3
1558441937907304,0,1,-3,-4,-5,0,-3,0
1558441937907304,0,-3,-1,3,-5,-18,-4,-4
1558441937920271,2,-2,-2,-8,-3,-3,1,1
1558441937920271,1,1,3,2,6,8,7,1
1558441937928248,-3,-4,-5,-2,-7,1,-4,-4
1558441937928248,1,2,5,4,9,16,5,4
1558441937943210,-1,-1,-2,-2,-1,2,-1,-1
1558441937943210,-1,-2,2,2,2,-8,4,2
1558441937950188,-1,1,1,5,0,-6,-5,-1
1558441937950188,-2,-3,-5,-2,-10,-8,-8,-6
1558441937966152,-1,-1,1,-2,4,9,2,-1
1558441937966152,-2,-2,-3,2,-5,3,-3,-2
1558441937967144,-2,0,-1,-2,-5,-4,-2,-1
1558441937967144,-1,-2,-1,-1,-1,2,0,0
