timestamp,emg1,emg2,emg3,emg4,emg5,emg6,emg7,emg8
1558441987798724,1,1,0,7,-1,-12,-1,6
1558441987798724,-2,-1,-2,-4,-6,-3,-7,-11
1558441987798724,-3,-8,-15,-16,-10,-6,-2,-4
1558441987798724,0,0,0,-1,-2,1,0,0
1558441987803709,-1,-1,1,-3,-2,2,-4,-4
1558441987803709,-2,-1,-2,-3,-1,7,-3,-1
1558441987804707,1,2,3,10,6,0,4,3
1558441987804707,2,2,-5,-8,1,-3,2,-5
1558441987809694,-1,-3,-2,3,1,-3,-2,-3
1558441987809694,-1,-1,-4,-4,4,2,-1,2
1558441987817671,-4,-3,4,1,-5,2,-9,-6
1558441987817671,-1,-1,-4,-7,-3,-4,-1,2
1558441987832632,2,3,5,5,2,-2,6,1
1558441987832632,0,-1,-3,-2,-1,-3,1,1
1558441987839612,-1,1,2,3,1,3,0,1
1558441987839612,-2,-2,2,6,2,2,-3,-4
1558441987847592,-3,-4,-2,-15,-12,-7,-3,-3
1558441987847592,-2,-2,-3,6,0,-1,1,-3
1558441987863549,0,3,-2,-3,-4,-3,-3,-1
1558441987863549,-1,0,2,5,2,1,-5,0
1558441987869533,-2,0,-3,-3,2,7,-4,0
1558441987869533,-1,-1,-2,2,6,7,4,1
1558441987924385,1,1,3,6,4,6,-2,-6
1558441987924385,0,-1,9,0,1,0,0,-1
1558441987924385,0,-1,-1,5,-1,-3,1,-1
1558441987924385,0,0,-7,-1,-5,-5,-2,-3
1558441987925383,-2,-2,1,-7,-3,-7,-4,0
1558441987925383,-1,-1,-4,0,1,6,5,-2
1558441987926381,1,2,0,2,1,5,-1,-2
1558441987926381,-2,-3,-2,-3,-6,-22,-7,-2
1558441987930370,0,-1,4,1,4,6,0,0
1558441987930370,-2,-4,-9,-4,-7,-9,-4,-2
1558441987936354,-3,-1,-1,3,6,7,3,2
1558441987936354,0,0,2,-4,5,10,2,0
1558441987945330,-3,-3,-3,-13,-10,-8,-7,0
1558441987945330,0,1,2,5,7,2,3,1
1558441987959292,0,-1,-1,-4,-6,-8,-6,-3
1558441987959292,-2,0,-6,-3,-2,4,-6,-4
1558441987966274,0,2,-3,7,-2,10,5,0
1558441987966274,0,0,0,-6,-1,-1,1,3
1558441987974253,-2,-4,0,5,4,-12,0,1
1558441987974253,0,0,3,1,3,5,2,3
1558441987989212,-3,-2,0,-1,-2,-7,1,2
1558441987989212,-1,0,-3,-4,-11,-4,-10,0
1558441987996194,-2,-3,-2,-6,-5,6,0,-5
1558441987996194,-3,-5,3,-4,-5,1,-2,-3
1558441988005171,-2,-3,-10,-3,9,1,2,-1
1558441988005171,1,0,-1,0,4,0,3,2
1558441988020131,0,-1,-1,1,-2,-1,-2,-2
1558441988020131,-2,0,1,-4,-10,-3,-5,-3
1558441988026113,-2,-1,0,-2,3,2,3,0
1558441988026113,-2,-1,0,6,-1,-3,-2,-2
1558441988050051,-1,-1,-4,-9,0,6,-2,1
1558441988050051,1,-1,-2,3,1,5,0,-2
1558441988052046,-1,1,7,4,4,-1,4,1
1558441988052046,2,2,7,3,6,-2,4,-1
1558441988056033,-1,-2,-9,-11,-10,-1,-4,-2
1558441988056033,0,-1,-6,-1,3,2,7,2
1558441988065009,-2,-3,-5,-4,-13,-8,-5,-3
1558441988065009,-3,-4,-1,-3,0,0,-3,-1
1558441988079970,0,3,7,6,1,3,1,-3
1558441988079970,-1,-2,-7,-2,1,0,-2,-1
1558441988094930,-3,0,1,-3,-7,-6,-9,-5
1558441988094930,2,1,0,1,6,7,5,2
1558441988094930,-1,-1,2,-2,2,-11,-4,1
1558441988094930,-2,-3,-1,-2,-5,-4,-1,0
1558441988109899,0,0,0,-1,0,6,2,1
1558441988109899,-3,0,-2,-1,-2,1,-4,-3
1558441988116871,-3,0,5,7,0,-5,-4,0
1558441988116871,1,2,0,-12,7,2,5,0
1558441988125847,-1,-1,-5,-4,-6,-1,-3,-2
1558441988125847,-4,-2,-7,-4,-8,-5,-6,-5
1558441988171725,1,0,1,-2,2,-2,-1,0
1558441988171725,0,2,-2,6,0,1,-2,-1
1558441988172722,-3,-1,2,0,-2,-8,-3,-2
1558441988172722,-2,-4,-7,-6,-1,7,4,-2
1558441988173719,0,-1,-4,-1,-6,1,0,0
1558441988173719,-2,-2,4,1,-1,1,-6,-2
1558441988178721,2,2,-4,2,6,7,1,0
1558441988178721,-2,-1,2,-2,-7,-5,-7,-3
1558441988179704,-3,-1,-2,0,0,-3,7,1
1558441988179704,1,3,2,-6,10,-1,10,6
1558441988185687,1,-1,-4,0,0,-5,2,-2
1558441988185687,-1,-1,5,1,-4,-6,-5,-3
1558441988199650,-3,-2,-6,-4,-4,1,-1,-3
1558441988199650,-2,-4,-2,1,-8,-2,-4,0
1558441988206632,-1,0,-5,-8,-3,-13,-4,-5
1558441988206632,-2,-1,1,3,0,1,-1,3
1558441988213613,-2,-5,-1,-3,1,8,2,-3
1558441988213613,2,3,8,8,0,-21,3,4
1558441988228572,-4,-5,-10,-11,-1,5,-2,-2
1558441988228572,1,1,-6,-4,4,2,3,0
1558441988236551,-2,0,5,1,-1,-10,-7,-2
1558441988236551,0,0,-3,-4,-9,7,0,-2
1558441988245527,-3,-6,-2,2,-4,-6,-8,-4
1558441988245527,0,0,1,-5,2,-1,2,-1
1558441988259490,-1,-1,-1,1,3,8,0,-1
1558441988259490,-2,0,2,5,7,1,0,-1
1558441988266471,0,0,-7,-2,-7,-3,-5,0
1558441988266471,-1,-5,0,-3,-2,0,-5,-3
1558441988274451,1,1,3,1,0,-13,-5,0
1558441988274451,-2,-2,0,-5,-2,5,0,-1
1558441988289409,0,-3,-4,-5,1,7,1,-1
1558441988289409,-4,-4,0,-2,-7,6,-5,-7
1558441988296392,-3,-4,-14,-11,-19,-12,-6,-3
1558441988296392,7,6,9,10,28,9,21,8
1558441988305366,0,-2,2,9,5,-11,0,3
1558441988305366,1,0,1,-3,-3,-5,-3,-2
1558441988319330,-2,0,-3,-8,-6,11,-3,-3
1558441988319330,-4,-4,-5,-4,-14,-4,-12,-8
1558441988326311,2,4,6,1,6,9,5,2
1558441988326311,2,1,-3,-1,2,2,3,2
1558441988334290,0,-2,4,2,-1,-16,-3,-1
1558441988334290,-3,-4,-7,-7,-13,-3,-9,-4
1558441988349249,-4,0,-1,-2,-6,0,-8,-6
1558441988349249,0,-1,2,5,7,-3,5,2
1558441988356231,3,2,4,6,13,6,13,8
1558441988356231,-2,-2,-1,3,1,-1,2,-4
1558441988365208,-1,-1,-1,-10,-7,2,1,-1
1558441988365208,-3,-2,-10,-5,-8,-5,-5,-1
1558441988380167,-2,-3,-1,-5,-1,8,-2,-3
1558441988380167,-5,-6,-4,-10,-14,-7,-16,-8
1558441988386152,-2,0,0,6,-7,-10,-1,-2
1558441988386152,1,4,5,3,13,6,9,4
1558441988394129,-3,-1,-5,-1,2,-1,2,0
1558441988394129,-2,-1,-4,-1,-2,3,-6,-2
1558441988409089,-1,-2,0,1,1,9,4,-3
1558441988409089,1,0,0,0,-4,-3,-4,-1
1558441988416071,0,0,0,-3,1,-2,0,0
1558441988416071,-1,-2,1,5,4,-1,-2,0
1558441988425047,-1,-3,0,-8,-9,-4,-3,1
1558441988425047,1,-1,0,3,-3,-5,0,-1
1558441988440006,-3,-3,-3,3,-3,0,-5,-6
1558441988440006,-1,0,-1,-2,3,0,6,2
1558441988446988,4,5,8,8,15,5,2,4
1558441988446988,-4,-7,-10,-12,-12,-2,-5,-6
1558441988453970,0,0,-3,-1,-4,-3,-2,-2
1558441988453970,1,-1,2,-1,0,-5,-3,2
1558441988468930,-1,1,-4,3,1,0,-2,-1
1558441988468930,-3,-1,2,2,0,0,-3,-1
1558441988476909,-1,-4,-2,-4,-2,9,-4,-2
1558441988476909,-5,-4,-7,-5,-13,-7,-3,-3
1558441988484887,0,-2,-5,-5,-5,-5,-3,-4
1558441988484887,2,0,1,4,18,29,14,3
1558441988499847,0,2,1,3,3,-14,4,2
1558441988499847,3,2,3,3,6,-4,2,4
1558441988506828,-1,-2,1,-2,-1,-6,-1,2
1558441988506828,-4,-5,-5,-1,-11,-13,-14,-6
1558441988521793,-3,-2,-2,-5,-9,0,-3,-3
1558441988521793,0,0,1,0,7,10,4,1
1558441988528770,-1,-1,0,0,-3,3,-4,-1
1558441988528770,-1,2,-1,-4,3,-4,2,1
1558441988536749,1,0,3,3,8,-7,2,5
1558441988536749,-3,0,2,-2,-13,-12,-5,-3
1558441988545724,-2,-3,-4,1,5,6,6,0
1558441988545724,0,-2,-6,-4,-7,-9,-3,0
1558441988559686,0,2,-3,-1,-3,0,-3,-3
1558441988559686,-3,-3,-2,-5,0,5,-3,-4
1558441988566668,-3,0,3,2,-3,-8,-6,-2
1558441988566668,0,0,3,11,5,6,5,1
1558441988582625,0,-1,-1,-14,-6,2,-4,-6
1558441988582625,0,-4,-9,-5,-2,3,1,-1
1558441988597586,2,3,-3,-2,4,-11,5,5
1558441988597586,-1,-1,4,3,1,-6,-3,-1
1558441988597586,-2,-1,-2,0,3,6,1,0
1558441988597586,0,1,1,0,-5,-5,-8,-2
1558441988611549,0,-3,-1,-2,-4,-1,0,-4
1558441988611549,-2,-2,-4,-4,-3,-5,-5,-3
1558441988619528,-1,1,0,-1,-2,1,-2,-1
1558441988619528,-5,-3,-4,0,-3,3,-2,-5
1558441988626508,-1,1,0,0,2,6,2,2
1558441988626508,-4,-2,4,-6,-1,-4,1,-2
1558441988642465,0,-1,-4,-2,-5,-11,-2,1
1558441988642465,0,-1,1,3,4,1,-3,-2
1558441988649447,2,2,5,4,5,4,4,1
1558441988649447,-1,-2,-6,-13,-12,-1,-2,-1
1558441988656428,-2,-2,0,3,2,-1,0,0
1558441988656428,1,-1,-4,0,-5,-7,0,1
1558441988665404,-1,-4,-5,-6,-6,-1,-6,-3
1558441988665404,0,2,5,2,-1,-3,-2,0
1558441988679367,-2,-2,-3,-7,-3,8,-1,-3
1558441988679367,-2,1,-3,-1,-5,-6,-1,1
1558441988686350,0,1,6,0,1,-2,-2,-2
1558441988686350,1,-1,-2,2,3,-5,0,-1
1558441988702305,-1,-2,-4,-3,-4,0,-3,-4
1558441988702305,-1,0,0,0,-2,2,0,-1
1558441988709287,-1,-1,8,0,-1,-1,-4,-1
1558441988709287,-1,-1,-6,1,5,5,6,2
1558441988725244,0,1,2,5,8,4,3,3
1558441988725244,0,-1,0,-3,1,3,-1,-1
1558441988727239,-3,-2,-5,-7,-10,-6,-8,-4
1558441988727239,-2,-3,0,-1,-4,1,-3,-4
1558441988740204,0,-2,-9,-7,-2,-1,3,1
1558441988740204,1,1,7,8,9,1,3,3
1558441988746188,-3,-3,-5,-1,1,-10,-4,-3
1558441988746188,0,1,1,1,-2,3,-2,-2
1558441988762145,-1,2,2,0,3,7,5,-1
1558441988762145,-3,-4,-4,-4,-3,-3,-4,-2
1558441988769127,0,-1,-2,-2,-6,2,-1,-1
1558441988769127,0,1,-3,-1,5,0,0,3
1558441988776108,-2,-2,-2,-2,-4,-1,-6,-2
1558441988776108,0,0,5,-1,-3,0,-2,-4
1558441988791067,0,1,-4,2,-2,-9,2,1
1558441988791067,0,0,2,0,5,4,3,1
1558441988800043,-3,-3,0,0,2,3,0,0
1558441988800043,0,-3,-2,1,0,3,-3,-3
1558441988806027,-4,-3,-2,-1,-1,7,3,-2
1558441988806027,-2,1,-2,-5,-4,-8,-3,-1
1558441988821985,-2,-3,-3,-3,-10,-19,-9,-3
1558441988821985,1,2,0,2,7,9,6,5
1558441988828968,-1,1,0,0,5,4,-1,-1
1558441988828968,0,0,-4,-6,-11,-8,-1,-3
1558441988836946,-3,-2,8,10,5,1,-5,-4
1558441988836946,-2,-2,-2,-1,2,4,3,1
1558441988851911,-1,-1,-2,-7,-3,-2,1,-4
1558441988851911,-3,0,3,0,-2,6,-3,-4
1558441988859884,-1,-1,-7,-4,3,8,4,2
1558441988859884,-1,0,0,1,-2,-11,-7,-1
1558441988866866,1,-2,0,7,6,11,2,1
1558441988866866,0,-2,0,-7,-11,-11,-5,-3
1558441988881825,0,-1,7,6,-6,-6,-3,-2
1558441988881825,-1,1,-3,-4,5,5,2,0
1558441988890802,-3,-1,4,0,4,9,4,2
1558441988890802,-1,-4,-6,2,2,-14,-3,-1
1558441988904766,1,-1,-1,0,3,5,-1,-1
1558441988904766,-2,1,-1,-3,-9,-7,-1,-2
1558441988911746,-1,-1,0,-2,-4,-8,-4,-4
1558441988911746,-2,0,-3,-4,0,3,0,3
1558441988918728,0,0,2,2,4,4,2,2
1558441988918728,-2,-4,-3,-7,-2,0,-6,-6
1558441988927703,1,0,-2,3,0,3,-3,-1
1558441988927703,-1,1,4,1,2,1,2,1
1558441988942663,-3,-5,-6,-9,-14,-17,-11,-5
1558441988942663,-1,0,-1,0,-1,6,6,2
1558441988948645,0,0,-2,-2,5,-2,1,1
1558441988948645,1,-3,0,-1,1,-1,2,1
1558441988964603,0,-2,2,2,0,3,0,-1
1558441988964603,-2,-3,-2,-3,-7,-9,-5,-3
1558441988971586,1,1,-4,-2,0,1,-3,-3
1558441988971586,-5,-3,2,-1,-6,-6,-2,-4
1558441988987542,-1,1,-3,2,1,-2,-2,0
1558441988987542,-5,-3,-1,-4,-4,0,-3,-2
1558441988989537,-1,-1,1,2,-3,1,0,0
1558441988989537,1,0,-2,0,2,2,1,0
1558441989002502,1,0,1,0,7,5,3,0
1558441989002502,1,0,5,3,-1,-14,1,1
1558441989009490,-4,-4,-10,-14,-8,1,-4,-4
1558441989009490,-2,0,0,1,-2,4,1,-2
1558441989024445,-2,0,-1,-2,0,-3,-1,2
1558441989024445,-3,-2,-3,0,2,6,1,-1
1558441989031427,-2,0,0,4,4,1,4,0
1558441989031427,-1,-1,-2,-3,-8,-5,-6,-4
1558441989048395,0,0,0,1,6,7,6,3
1558441989048395,1,1,-3,-5,0,-17,-4,2
1558441989049379,0,-1,0,-2,-4,-8,-3,1
1558441989049379,-2,-1,-2,-3,4,13,1,-1
1558441989062343,0,-1,3,5,-1,8,4,-2
1558441989062343,-1,-1,-1,2,-4,1,-4,-3
1558441989069327,1,1,4,0,0,-11,-2,0
1558441989069327,-1,-2,-6,-7,-1,-4,-2,-1
1558441989085280,-2,-1,-1,-1,-3,3,-2,-3
1558441989085280,-1,-2,-6,-3,-6,1,-1,-2
1558441989091265,3,0,3,8,11,4,9,6
1558441989091265,0,1,3,1,-5,-13,-5,0
1558441989108225,-3,-4,-5,-10,-7,-1,-4,-5
1558441989108225,-2,-3,4,10,2,-5,-5,-2
1558441989109219,-3,-1,-5,-4,-8,-3,-6,-3
1558441989109219,0,0,-1,3,-1,5,-1,-1
1558441989122183,1,1,-2,4,3,-7,-2,-2
1558441989122183,2,1,-4,-9,2,4,5,0
1558441989129170,-1,0,1,0,-3,-10,-4,0
1558441989129170,-3,-2,2,-3,2,10,0,0
1558441989145129,-1,-1,-3,1,-7,-5,-4,-1
1558441989145129,-3,-4,-11,-11,-2,2,-1,-1
1558441989159084,2,0,-3,0,6,1,1,0
1558441989159084,2,0,2,-2,-1,0,7,3
1558441989168060,-2,-2,9,11,5,2,0,-2
1558441989168060,0,1,3,0,0,-1,-1,1
1558441989169058,-4,-6,-12,-5,-10,-8,-5,-2
1558441989169058,0,2,0,2,7,6,2,-1
1558441989182023,0,-1,-2,0,0,1,1,-1
1558441989182023,-2,0,2,-3,-6,-11,1,0
1558441989189003,-2,-1,2,-2,-5,2,-5,-3
1558441989189003,0,-2,-4,-1,-1,6,-1,-4
1558441989204960,-3,-3,-3,-6,-5,-3,-5,-2
1558441989204960,-2,-4,-3,-4,-4,2,-7,-4
1558441989211941,0,1,2,1,-1,0,1,-2
1558441989211941,-3,-5,0,0,-6,-22,-6,-1
1558441989227899,1,1,1,-4,8,7,4,4
1558441989227899,0,1,2,7,5,5,2,1
1558441989228895,-3,-5,-4,-3,-1,-2,0,0
1558441989228895,-3,-2,-5,-2,-5,-4,-5,-1
1558441989242859,-3,-1,-5,-7,-8,-11,-9,0
1558441989242859,1,2,2,9,12,22,11,1
1558441989248845,0,-1,0,-7,3,-3,5,3
1558441989248845,0,-2,-1,1,-2,-1,-5,-2
1558441989264805,-2,-2,-4,-7,-3,-4,-2,0
1558441989264805,-2,-4,2,0,-6,-2,-8,-4
1558441989271785,0,0,-5,-3,3,9,-2,-1
1558441989271785,-5,-4,2,-3,-3,-6,0,-2
1558441989287741,2,-1,-3,-3,-6,-10,1,0
1558441989287741,2,1,3,2,6,-5,2,2
1558441989289736,-1,-2,2,0,-6,0,-3,-4
1558441989289736,0,1,-2,0,-1,-2,-3,-1
1558441989301706,-2,0,0,3,0,2,-1,-3
1558441989301706,-2,-1,-5,-6,-4,-3,-2,-4
1558441989308690,-1,-3,-2,-5,-8,-8,-4,-2
1558441989308690,2,1,-2,-4,5,5,6,1
1558441989324645,0,-2,1,4,3,2,1,0
1558441989324645,-1,-1,0,3,-2,-8,-1,-1
1558441989331627,0,1,3,4,11,11,6,3
1558441989331627,-3,-1,-4,-1,-2,-3,-5,-3
1558441989355564,1,3,2,0,0,5,4,0
1558441989355564,-1,-2,-1,2,-2,0,0,-1
1558441989356555,-3,-2,-2,-1,-10,-8,-7,-4
1558441989356555,-1,-2,-3,0,-1,7,2,0
1558441989362547,2,0,3,-1,5,0,4,4
1558441989362547,0,-3,-6,-2,-3,1,-2,-2
1558441989368527,-2,-4,-1,-1,-6,-7,-2,-2
1558441989368527,-2,-3,1,-4,-1,-2,-4,-1
1558441989385481,-3,-4,-6,2,-4,-1,-10,-5
1558441989385481,1,0,2,-4,5,8,8,3
1558441989391470,1,1,-1,2,6,-7,1,1
1558441989391470,-2,-3,-2,-2,-9,-13,-7,-4
1558441989408497,1,3,3,2,6,0,6,2
1558441989408497,0,-1,-3,-3,-4,0,0,3
1558441989409417,-1,-2,-1,1,1,9,1,0
1558441989409417,1,0,-1,10,4,-1,-5,-2
1558441989422486,-2,-1,0,-13,-14,-2,-7,-3
1558441989422486,1,-1,-8,-1,-2,-10,-4,-2
1558441989429576,-1,-3,-4,-6,-5,10,1,-2
1558441989429576,-1,1,6,8,6,2,1,0
1558441989445515,-1,-3,-6,-1,-4,0,-2,-2
1558441989445515,0,-1,4,0,1,-1,-3,0
1558441989451522,0,0,1,1,5,-4,2,1
1558441989451522,-1,-2,-2,0,-2,-5,1,-1
1558441989468259,-2,-1,-5,-10,1,6,3,-1
1558441989468259,-2,-1,1,-1,-2,-6,-6,-4
1558441989469256,-1,-3,1,7,-2,-11,-3,-2
1558441989469256,-1,-1,-1,-9,-4,3,1,-1
1558441989481222,0,-1,0,-1,-2,-1,0,-1
1558441989481222,-2,-3,-9,-7,1,2,-3,-1
1558441989490198,-2,0,1,1,-2,-2,-1,-3
1558441989490198,-2,-2,-4,-7,-8,3,-5,0
1558441989504194,-2,0,4,5,-1,-6,-1,-1
1558441989504194,-2,-2,0,-2,-1,-1,-5,-1
1558441989511140,1,-1,6,6,6,5,1,-1
1558441989511140,-2,-2,-3,-6,-7,-4,-4,-2
1558441989528095,1,-2,-4,-1,1,0,-3,-1
1558441989528095,-1,-1,3,1,-3,-4,0,-1
1558441989529093,1,0,-5,-2,-2,-5,3,4
1558441989529093,-5,-3,2,3,-1,-8,-2,-1
1558441989542269,-3,-2,0,-4,-13,-9,-9,-5
1558441989542269,1,-1,-4,-5,2,8,6,1
1558441989550414,0,1,0,1,8,-1,1,2
1558441989550414,1,1,-2,2,6,15,5,0
1558441989565232,-3,-3,-3,1,-5,-12,-5,-3
1558441989565232,0,-3,-1,-2,0,0,-1,-2
1558441989572201,-3,-3,-3,-3,-4,4,-3,-4
1558441989572201,-2,1,-1,-1,-1,-2,0,-1
1558441989588292,0,0,1,1,2,-1,3,0
1558441989588292,2,2,4,3,0,-4,4,0
1558441989588935,-1,0,-2,4,5,-1,-1,1
1558441989588935,-1,-2,-4,-11,-3,-8,-2,-1
1558441989602050,0,-1,4,1,-3,3,-1,-1
1558441989602050,-1,0,0,-2,-2,-4,-4,-2
1558441989610875,1,-1,2,2,-2,1,-8,-4
1558441989610875,-2,-1,-3,2,5,-4,-1,0
1558441989625090,-2,-2,-5,-8,1,4,5,1
1558441989625090,0,0,4,13,9,1,5,4
1558441989632070,-3,-2,-1,-14,-9,-2,-5,-3
1558441989632070,0,-2,-1,4,-4,0,-3,-2
1558441989647809,3,1,4,0,7,-1,5,5
1558441989647809,-1,-2,-4,5,0,-1,-4,-2
1558441989649771,-2,-1,2,0,-3,0,1,-1
1558441989649771,-3,-3,-9,-9,-3,1,0,-1
1558441989661743,-1,-1,-3,-2,-4,4,-5,-2
1558441989661743,-1,-1,-1,-6,-8,-4,-3,-2
1558441989670715,0,-3,-2,0,-3,-4,1,2
1558441989670715,3,-1,2,0,1,-2,3,0
1558441989684711,-3,-4,-4,2,-1,-1,-2,-3
1558441989684711,-3,0,-1,-3,-1,11,2,-2
1558441989691658,-2,-2,1,-2,-1,-3,1,0
1558441989691658,-2,-2,1,0,-4,-5,-5,-2
1558441989708055,-2,0,-4,1,2,3,1,0
1558441989708055,-1,-3,-6,-6,-3,2,0,0
1558441989709611,-1,0,-3,4,4,5,0,-2
1558441989709611,1,1,0,-5,-5,0,-3,-3
1558441989722062,-1,-5,-5,-3,-5,-4,-7,-5
1558441989722062,-5,-2,1,-3,-10,-6,-8,-6
1558441989730682,-1,2,-5,-8,-2,-5,1,0
1558441989730682,1,-2,-3,2,9,10,7,2
1558441989745642,-1,0,-3,-13,-4,-1,2,1
1558441989745642,-1,-3,-6,1,-8,-16,-2,-1
1558441989751953,0,-3,9,4,4,-5,-2,-1
1558441989751953,0,1,-1,0,-6,-1,-7,-5
1558441989767787,-2,0,3,5,7,7,4,3
1558441989767787,1,-1,-1,-6,2,6,1,1
1558441989774767,-1,0,1,1,1,-8,-4,-2
1558441989774767,0,-2,-7,-4,-6,1,-3,-3
1558441989781749,-3,0,1,8,2,1,-2,-1
1558441989781749,-5,-4,-3,-13,-8,-4,-5,-4
1558441989790469,2,2,-5,-6,0,-3,2,1
1558441989790469,-1,1,11,12,8,4,3,1
1558441989804651,0,0,-1,1,0,-8,-3,-1
1558441989804651,0,-1,-3,13,2,0,-3,0
1558441989811611,-4,-4,-9,-18,-9,0,0,-3
1558441989811611,2,1,0,-1,-3,-13,2,2
1558441989827552,0,-2,6,1,2,7,-1,-1
1558441989827552,-3,-2,5,3,4,-2,-4,-2
1558441989834485,1,-2,-6,2,-2,0,-4,-1
1558441989834485,-2,-1,-2,3,3,5,5,1
1558441989841461,-1,0,-5,-7,-2,-10,1,-1
1558441989841461,0,0,4,0,4,3,0,0
1558441989850279,-2,-6,-1,5,-4,3,-2,-3
1558441989850279,1,-1,-1,-8,-5,-11,-6,-1
1558441989865413,1,1,1,10,-1,-8,0,0
1558441989865413,-1,-1,-6,-9,-4,1,1,-2
1558441989871184,-2,-1,-1,2,-1,10,-2,-2
1558441989871184,-3,0,3,5,4,-1,2,1
1558441989887174,-1,-1,-1,-3,-3,-7,-4,-2
1558441989887174,0,-2,-4,-4,-3,-9,-2,-1
1558441989894118,-1,-1,1,-1,-2,1,1,-3
1558441989894118,0,-2,-5,0,-2,6,1,-2
1558441989911101,-1,-1,-3,-3,-1,2,2,3
1558441989911101,3,0,-1,4,0,-3,-2,-3
1558441989912289,-4,-1,1,-4,-3,-3,-2,-2
1558441989912289,-3,-1,-2,-2,2,0,0,2
1558441989925386,1,1,1,-1,-3,-6,-2,-2
1558441989925386,0,0,-1,0,2,3,7,3
1558441989932340,2,-1,3,5,3,1,-2,1
1558441989932340,-1,-4,-1,2,-2,-2,-4,-1
1558441989946976,0,-3,-3,-6,-3,-1,1,1
1558441989946976,0,0,2,1,-2,-3,-4,0
1558441989953958,-2,-2,-5,-5,-5,-2,-2,-2
1558441989953958,-2,-1,-3,-7,-2,0,-1,-3
1558441989977894,-1,2,5,2,1,-1,-3,-1
1558441989977894,-1,0,-8,-14,1,3,4,0
1558441989980050,-3,-1,4,6,-3,-4,-2,-2
1558441989980050,-1,-2,-4,-4,-5,0,-5,-2
1558441989985172,1,-1,4,3,-1,-3,2,-1
1558441989985172,-3,-2,-5,-5,-1,-3,-2,-2
1558441989992156,2,3,0,1,4,-3,0,1
1558441989992156,-2,-2,-4,1,-6,3,-6,-5
1558441990007814,-1,0,1,1,5,9,6,-1
1558441990007814,-1,1,5,1,2,-1,1,3
1558441990014028,-3,-5,-12,-9,-14,-12,-4,-2
1558441990014028,2,-1,5,1,-4,-12,-4,1
1558441990030998,-2,-4,-6,-8,2,5,1,0
1558441990030998,-1,-2,4,11,-2,0,-2,-2
1558441990031752,-1,0,-2,-5,3,6,1,-2
1558441990031752,1,-1,3,1,2,1,3,0
1558441990044964,-2,-2,-9,-15,-7,-7,-4,-1
1558441990044964,-1,-2,0,-3,-8,-3,-9,-4
1558441990051948,0,1,5,7,8,15,6,2
1558441990051948,-1,-1,-4,0,4,-2,1,-2
1558441990067900,0,-1,-3,3,-2,0,-3,-2
1558441990067900,-2,-3,-3,-3,-5,-15,-6,-3
1558441990073887,-4,-3,-1,-1,-1,-3,-7,-3
1558441990073887,1,1,3,-2,6,6,7,3
1558441990090838,-3,-3,-5,1,-5,-3,-3,-3
1558441990090838,0,2,-2,-6,-7,-1,-8,-5
1558441990091599,0,-1,1,2,2,9,4,-1
1558441990091599,0,0,2,2,5,-7,3,2
1558441990105552,0,0,2,1,-3,-6,0,-1
1558441990105552,2,-3,0,-2,-5,-3,1,0
1558441990111535,-1,-1,0,1,5,-3,-3,-1
1558441990111535,1,-1,-1,1,2,6,-1,-1
1558441990127492,-3,-3,-4,-5,-6,-10,-4,-2
1558441990127492,-3,-1,-5,0,3,4,2,-1
1558441990134915,-1,2,1,-3,-5,-3,-1,0
1558441990134915,0,-1,1,-4,-4,-1,-1,-2
1558441990150909,-1,0,-3,4,0,0,-5,-3
1558441990150909,-3,-2,2,-1,0,-2,-1,0
1558441990151430,-1,0,-1,0,5,-2,3,4
1558441990151430,-3,-2,-3,-3,-4,-4,-2,-2
1558441990165536,-3,-2,0,-6,-11,-6,-2,-2
1558441990165536,0,2,0,2,5,0,1,2
1558441990171768,0,-2,-1,1,-4,1,0,-2
1558441990171768,0,-1,-1,-2,-2,-5,-4,0
1558441990187705,0,-2,-1,3,4,3,-4,-2
1558441990187705,0,0,0,0,1,-7,1,-1
1558441990201631,0,1,-1,-4,3,12,3,1
1558441990201631,0,-1,-1,1,-3,-9,1,1
1558441990210571,-1,1,6,7,5,-3,-3,2
1558441990210571,-3,-2,-4,-14,-4,3,0,-1
1558441990211271,-2,-1,-8,-5,-11,-6,-5,-4
1558441990211271,-2,-2,-2,-4,-5,4,-4,-4
1558441990225444,1,2,3,6,10,18,9,2
1558441990225444,2,2,7,4,8,4,3,1
1558441990232253,0,-1,-5,-5,-1,-7,0,-1
1558441990232253,-5,-4,-1,0,-10,-7,-4,-1
1558441990247176,-2,-3,-3,-4,-6,-6,-6,-6
1558441990247176,-3,-2,-4,0,-4,9,-5,-4
1558441990254153,1,2,5,4,7,11,5,2
1558441990254153,2,4,0,-6,2,-23,1,4
1558441990270110,-3,-5,-7,0,0,5,-1,-1
1558441990270110,0,-3,-3,0,-2,-6,-1,-1
1558441990272107,0,-1,-1,1,-6,2,-7,-6
1558441990272107,-1,1,1,1,0,1,2,1
1558441990285073,4,2,3,0,5,-11,4,2
1558441990285073,-5,-3,-5,-1,2,11,1,-3
1558441990291055,-3,-2,-2,-6,-7,-12,-3,-2
1558441990291055,-1,-2,-2,3,5,4,2,-1
1558441990307384,1,1,0,-5,-4,-5,-3,-1
1558441990307384,-2,-2,4,3,-4,-2,-2,-3
1558441990314367,0,-2,-7,-4,-3,0,-2,-3
1558441990314367,-4,-2,0,-4,-5,6,-4,-6
1558441990331080,-2,-3,-12,-7,-5,3,-3,-3
1558441990331080,-1,-1,6,5,1,0,0,0
1558441990331949,0,2,3,-2,2,-17,0,4
1558441990331949,1,0,-2,1,8,5,3,3
1558441990345293,0,2,12,7,2,1,0,1
1558441990345293,-2,-4,-12,-13,-8,-7,-6,-3
1558441990352185,-3,-5,-5,-4,-12,-4,-4,-4
1558441990352185,-1,-2,-4,-3,1,12,-1,1
1558441990367945,2,1,7,2,3,-4,5,1
1558441990367945,1,2,1,6,4,-12,2,3
1558441990374831,-3,-3,-5,-4,-1,-9,-6,-2
1558441990374831,-1,-1,-3,-7,-6,-4,-7,-6
1558441990391164,-4,-3,-3,3,-4,5,-3,2
1558441990391164,1,-1,3,1,-2,-1,0,0
1558441990391786,1,-1,5,7,4,4,3,0
1558441990391786,-2,-3,-2,1,-3,4,1,-2
1558441990404855,0,1,1,3,3,-6,1,-1
1558441990404855,-1,-1,-7,-8,0,2,2,3
1558441990413034,-1,1,-1,-6,-1,-3,-4,2
1558441990413034,-3,-7,-1,1,-1,3,-1,-3
1558441990427986,-1,-2,0,4,4,-6,0,-1
1558441990427986,-2,-1,-3,-9,-7,-9,-5,-2
1558441990434760,0,-1,-1,-1,-4,2,0,-1
1558441990434760,3,3,2,5,6,1,7,2
1558441990450906,-3,-2,-7,-6,-5,-2,-4,-2
1558441990450906,-3,0,5,4,4,2,-1,0
1558441990451629,-2,-1,-4,0,-3,-6,-4,-3
1558441990451629,-3,-1,-2,-11,-7,-1,-4,-3
1558441990464792,-2,-2,-6,-4,-2,6,-2,-2
1558441990464792,0,0,-3,1,0,5,1,-1
1558441990472830,-1,-2,6,2,-6,-14,-7,-2
1558441990472830,1,1,3,5,10,8,4,3
1558441990487531,1,-1,2,-3,-1,-3,2,3
1558441990487531,-1,-1,8,4,0,2,0,-2
1558441990494752,-3,-6,-15,-5,-9,-1,-1,-3
1558441990494752,-1,0,-2,-1,-3,-7,-2,-1
1558441990510469,-1,0,-1,-6,-4,2,0,-2
1558441990510469,1,-1,2,9,6,-3,2,1
1558441990511466,1,-1,-2,-3,2,-1,-2,0
1558441990511466,-3,-3,0,0,-5,-3,-7,-2
1558441990524805,0,1,-2,-2,2,8,1,0
1558441990524805,-2,-3,-4,-5,-5,1,-3,-1
1558441990532900,-1,-1,0,3,-3,-7,-1,-3
1558441990532900,-1,-3,2,-1,-2,-1,1,-2
1558441990547720,-1,0,2,4,5,2,2,-1
1558441990547720,0,0,-4,-4,4,2,2,0
1558441990554753,0,2,7,1,-1,7,3,3
1558441990554753,-1,-2,-11,-3,-5,-9,-3,-1
1558441990570312,-1,-4,-4,-1,-5,-2,-4,-4
1558441990570312,-1,0,0,3,-5,-2,-3,-2
1558441990571306,-1,-4,-4,-2,-2,-8,-2,0
1558441990571306,0,1,0,-5,2,0,1,2
1558441990593573,-1,-3,0,-4,-1,2,-4,-5
1558441990593573,-2,-2,-5,-3,-5,3,-1,-4
1558441990595241,1,2,6,7,10,5,9,4
1558441990595241,-1,1,1,4,-5,-13,-2,0
1558441990607212,1,1,1,-1,-2,-2,-2,0
1558441990607212,-3,-2,0,2,-2,2,0,0
1558441990614548,-1,-3,-6,-14,-6,6,-6,-6
1558441990614548,-2,-4,-7,-2,-2,0,-6,-5
1558441990631146,-1,0,2,0,4,6,7,1
1558441990631146,1,-1,4,6,7,2,4,6
1558441990632445,1,1,0,-4,1,-4,0,1
1558441990632445,-2,-3,1,-1,-6,1,1,-2
1558441990653093,1,-2,-5,-4,0,2,-1,-1
1558441990653093,0,-1,2,0,3,-5,-2,-3
1558441990654257,0,1,-2,3,8,9,4,1
1558441990654257,-2,-2,-2,-6,-7,-3,-8,-3
1558441990667077,0,0,0,0,-6,-4,-1,-1
1558441990667077,1,-3,-5,-8,-5,-12,-4,-2
1558441990674030,0,1,11,8,7,-2,2,1
1558441990674030,0,-4,-14,-12,1,6,1,-1
1558441990705946,-3,-3,-7,-4,-6,1,-5,-2
1558441990705946,-3,0,-4,-6,-3,-1,-5,-2
1558441990706943,-3,-6,-1,1,-5,-6,-5,-2
1558441990706943,-1,1,9,9,2,5,0,0
1558441990707941,0,-2,-5,-2,4,-3,3,3
1558441990707941,0,1,1,0,-2,-4,1,-2
1558441990712927,1,-2,-9,-4,-2,2,-2,-2
1558441990712927,0,1,6,7,3,-4,-2,0
1558441990727358,-3,0,3,0,-4,-15,-5,-3
1558441990727358,-2,-2,-1,-1,-4,3,-2,-4
1558441990734328,1,-2,-5,-8,-5,0,1,-2
1558441990734328,3,2,3,5,4,2,4,2
1558441990758275,-2,0,-3,-6,-7,-12,-7,-4
1558441990758275,-1,-1,1,3,2,8,0,-1
1558441990758805,-5,-3,1,1,-2,5,-4,-4
1558441990758805,-2,0,-4,-5,3,-7,4,5
1558441990773227,-1,0,0,1,4,4,9,2
1558441990773227,3,1,1,-2,-2,-5,1,0
1558441990773765,-2,0,4,4,1,0,-3,-2
1558441990773765,-6,-4,-4,-4,-9,3,-8,-5
1558441990788127,-1,-1,-1,1,-1,-3,0,0
1558441990788127,0,1,1,-4,7,0,5,1
1558441990794885,-4,-6,-8,-10,-9,-8,-7,-3
1558441990794885,-1,-1,1,0,-6,-7,-8,-6
1558441990818345,2,-1,-4,0,4,7,-1,-1
1558441990818345,-2,0,-1,2,0,4,3,-1
1558441990819075,3,2,5,7,3,0,2,0
1558441990819075,-1,-2,-4,1,2,1,-1,0
1558441990833268,-4,-1,3,-8,-8,-5,-7,0
1558441990833268,-1,0,-2,-2,-5,-13,-5,1
1558441990834037,-2,0,-2,-2,2,3,3,3
1558441990834037,0,-1,-6,-5,4,11,6,-2
1558441990847000,-3,-4,5,9,0,-1,-1,-2
1558441990847000,-1,-3,-3,0,3,-1,-1,-1
1558441990869946,-2,1,0,0,-6,-5,-3,-2
1558441990869946,0,0,-2,0,0,-1,-2,0
1558441990870934,-1,0,0,1,-2,1,-4,0
1558441990870934,-2,-3,0,-6,-3,-1,2,1
1558441990876919,-1,-3,0,-1,1,1,2,-2
1558441990876919,-3,-2,-3,0,-4,-2,-1,-2
1558441990892884,1,-2,-7,-6,-3,-8,-4,0
1558441990892884,1,0,-1,-2,0,1,-3,0
1558441990893878,1,1,-2,4,2,-2,-2,1
1558441990893878,0,2,5,3,2,-4,1,0
1558441990907835,0,1,-5,-15,-2,5,5,0
1558441990907835,-2,-1,13,7,-2,2,-2,-3
1558441990929777,0,-4,-8,-7,-6,-5,-6,-5
1558441990929777,-1,-2,2,2,5,4,3,0
1558441990930774,1,-3,-3,1,3,9,2,2
1558441990930774,1,0,-8,-3,-2,-12,-2,-1
1558441990936758,-2,1,3,0,-1,-4,-3,-3
1558441990936758,-3,-2,2,3,-8,1,-5,-3
1558441990952723,-6,-6,-4,-19,-10,-5,-2,-5
1558441990952723,1,2,-1,4,2,-3,2,5
1558441990954687,1,-1,-3,-2,8,8,3,1
1558441990954687,0,-1,-8,-5,-8,-8,-3,1
1558441990983060,1,6,8,5,7,14,6,2
1558441990983060,-2,-2,-6,3,-4,-1,-6,-6
1558441990984624,0,-2,0,-4,-2,1,2,3
1558441990984624,-2,-5,-1,-3,-2,-11,-5,-1
1558441990997905,-2,-2,-5,4,-1,3,-5,-2
1558441990997905,1,-2,-2,-8,-3,0,-5,-3
1558441990999572,1,3,0,-1,1,-4,-1,1
1558441990999572,1,0,5,4,5,9,0,1
1558441991013682,-3,-4,-5,1,-5,-22,-3,1
1558441991013682,-3,-2,-2,-4,-2,-11,-1,-2
1558441991014787,-1,0,-1,0,1,12,2,-2
1558441991014787,1,-1,-1,-1,0,4,5,-1
1558441991027836,-1,1,3,-11,-6,-15,-6,-6
1558441991027836,-4,-3,-1,-4,-3,3,-5,-1
1558441991034785,-4,-2,-1,-1,-7,-10,-4,-2
1558441991034785,-2,0,3,3,5,8,1,-1
1558441991049724,1,1,1,9,2,9,-2,-1
1558441991049724,-1,-5,-2,-1,-1,5,5,-2
1558441991056664,-1,1,3,5,2,-4,2,1
1558441991056664,-1,2,-3,-6,-5,-12,-5,0
1558441991073436,-2,-2,5,9,6,0,0,-1
1558441991073436,0,-1,-1,-6,-4,3,-2,0
1558441991074374,-3,-4,-7,-7,-5,-4,-9,-3
1558441991074374,2,2,2,5,3,3,6,2
1558441991087338,-2,0,-5,-4,-2,-18,-4,-1
1558441991087338,-1,-1,-5,-1,-1,6,-1,-2
1558441991094538,0,-2,-2,6,0,9,6,2
1558441991094538,-2,0,-5,-12,-6,-9,-6,-4
1558441991109311,-4,-4,-3,-5,-5,8,-1,-4
1558441991109311,-2,0,-2,0,-1,-5,-4,0
1558441991116295,1,1,2,2,-3,-15,-2,1
1558441991116295,0,-3,-2,-2,4,9,4,1
1558441991133651,4,4,7,6,6,13,5,3
1558441991133651,0,2,0,1,-5,-2,-2,-3
1558441991135264,-6,-11,-11,-8,-5,1,-4,-6
1558441991135264,-3,0,0,-4,0,-6,-3,-3
1558441991147227,-2,0,2,3,7,6,3,3
1558441991147227,0,2,2,2,-6,-8,-1,-1
1558441991154219,-1,0,1,-12,-4,-2,-2,-1
1558441991154219,-3,-5,-8,-6,-11,-8,-8,-5
1558441991170114,1,-2,-2,-3,-1,5,0,1
1558441991170114,-2,2,-5,-2,4,2,1,1
1558441991176609,-2,-8,3,4,0,1,0,-3
1558441991176609,-1,0,1,-1,-5,-1,-5,3
1558441991193052,1,2,1,4,3,-2,1,-4
1558441991193052,0,-1,-3,0,3,6,4,2
1558441991194362,2,5,-1,-10,9,2,3,-5
1558441991194362,2,2,-6,4,3,15,10,4
1558441991207332,0,0,2,3,-9,-6,-11,-9
1558441991207332,-3,-12,-6,-15,-8,-13,-2,-4
1558441991214317,-2,-1,3,8,7,-9,-1,1
1558441991214317,0,-2,-8,-13,-8,-10,-6,-1
1558441991230287,-2,0,-5,-4,-3,3,1,-3
1558441991230287,-1,3,3,4,1,14,-1,-2
1558441991235941,1,2,6,8,-2,-5,1,1
1558441991235941,-4,-2,1,-12,-3,-15,-5,-4
1558441991252895,0,-1,-4,0,2,0,2,2
1558441991252895,-2,2,0,-2,6,3,0,1
1558441991254164,-1,-3,-2,2,-1,-1,-5,1
1558441991254164,0,-1,5,8,6,17,6,3
1558441991267887,-5,-6,-5,-7,-8,-15,-7,-7
1558441991267887,1,-4,-2,1,-3,2,0,-1
1558441991274083,1,4,0,-3,1,-1,0,-1
1558441991274083,0,-1,0,-2,-1,-5,-2,-1
1558441991290054,-2,-2,-2,0,5,0,2,4
1558441991290054,-1,-1,-3,0,-3,-1,0,-7
1558441991303757,-2,0,-5,-3,-11,3,-5,1
1558441991303757,-1,-2,2,7,2,-13,-4,-3
1558441991312734,-1,-1,-1,-15,-4,-3,0,0
1558441991312734,1,3,2,9,6,3,7,7
1558441991314728,0,2,0,-8,0,10,6,1
1558441991314728,-3,-1,11,17,5,4,-1,-7
1558441991326723,-2,-4,-6,1,-4,-10,-3,-1
1558441991326723,-2,-4,-8,-10,-1,-1,-5,-2
1558441991335671,-3,0,-4,-3,-11,-9,-5,-2
1558441991335671,2,1,1,-2,6,6,0,1
1558441991349633,0,4,3,4,2,-10,5,0
1558441991349633,-2,-5,-7,0,-9,-13,-7,-2
1558441991356629,-5,-4,1,-7,-6,-2,0,-2
1558441991356629,-1,-2,-7,-8,-2,8,-5,-3
1558441991373580,-2,-2,7,9,-5,3,-5,-6
1558441991373580,0,-1,-4,-3,12,4,5,2
1558441991374604,-3,-4,-5,0,-4,2,-5,-5
1558441991374604,0,-4,-8,0,1,6,2,-2
1558441991386536,2,2,5,-4,7,-3,5,5
1558441991386536,1,2,3,1,-1,-9,1,2
1558441991395512,2,-1,2,3,2,2,-1,0
1558441991395512,-5,-4,-4,-3,-7,-2,-3,-8
1558441991409896,1,1,2,3,1,3,0,2
1558441991409896,-4,-2,0,-8,-5,-11,-4,-4
1558441991416896,0,0,-4,1,3,1,0,2
1558441991416896,0,-2,0,1,2,6,6,3
1558441991433427,-4,-1,-5,-8,-11,-10,-8,-6
1558441991433427,1,3,9,10,7,11,3,2
1558441991439737,0,0,-4,-11,2,-4,-1,2
1558441991439737,-2,0,0,-6,-1,-4,1,-2
1558441991446695,-4,-4,-9,1,0,3,-3,0
1558441991446695,-2,0,6,1,-5,-6,-5,-3
1558441991455460,1,2,1,3,4,-9,2,0
1558441991455460,-3,-4,-4,-3,-5,-3,0,1
1558441991469320,0,-1,-2,-4,0,13,1,-5
1558441991469320,-3,-5,-4,-2,-9,-7,-8,-4
1558441991476298,-2,-2,4,3,6,8,3,-2
1558441991476298,1,2,-3,-1,5,6,6,2
1558441991492254,-1,-3,-2,4,-4,-10,-6,1
1558441991492254,2,3,1,-3,5,7,4,4
1558441991494247,0,0,6,6,-6,-4,-7,-2
1558441991494247,-1,-3,-6,-11,-10,-13,-10,-4
1558441991506538,-1,1,-5,-4,7,10,8,1
1558441991506538,-3,-1,-6,4,-5,-9,-1,-4
1558441991515191,0,-1,1,2,6,4,4,1
1558441991515191,1,3,5,4,0,-6,-5,2
1558441991530629,-2,1,2,-6,-7,-13,-8,-6
1558441991530629,0,-5,-7,-1,8,9,3,2
1558441991536135,-3,-1,-3,-3,-5,-6,-4,-5
1558441991536135,1,0,4,8,1,-7,-3,-1
1558441991553091,-5,-4,-4,-4,-2,7,-3,-3
1558441991553091,2,4,6,3,6,-1,6,3
1558441991554088,-2,-2,-2,4,0,2,-1,0
1558441991554088,-1,-2,1,-9,-8,-8,-2,3
1558441991567105,-1,-3,-5,2,3,3,2,-6
1558441991567105,-1,1,14,4,3,6,2,1
1558441991575366,-1,-3,-22,-9,0,-2,2,3
1558441991575366,-2,-2,-2,0,-7,-4,-6,-9
1558441991590329,1,0,-6,-1,-1,-3,-3,2
1558441991590329,-3,-1,0,-4,-1,8,1,-5
1558441991597161,-1,-3,-1,-11,-6,-8,-5,-4
1558441991597161,-3,-4,1,4,3,12,2,0
1558441991612255,0,2,-3,-7,-2,4,3,6
1558441991612255,-1,-2,-8,-4,-8,-8,-8,-5
1558441991618915,-2,0,10,5,-3,-6,-6,-5
1558441991618915,-3,-3,-7,-3,1,6,0,-2
1558441991635170,2,0,10,6,5,7,5,5
1558441991635170,2,4,0,-1,3,-16,-3,3
1558441991635170,-3,-3,-1,-5,-4,-5,1,-2
1558441991635170,-1,-6,-7,3,-2,-3,-6,-6
1558441991650828,0,0,1,-2,1,14,3,-1
1558441991650828,-2,-4,-8,-11,-5,-3,-2,-2
1558441991657112,-3,-5,-2,-3,-4,3,-3,-5
1558441991657112,-2,-2,4,0,-1,3,1,3
1558441991672027,1,-2,-3,1,-5,-25,-8,0
1558441991672027,-2,-1,3,9,-2,-1,0,-3
1558441991678785,-2,2,1,-6,4,13,1,-7
1558441991678785,0,3,2,3,6,-5,1,2
1558441991703688,-1,-4,-4,-5,1,-6,-4,-1
1558441991703688,-1,-1,-3,-2,-6,0,-2,1
1558441991704754,1,1,4,5,6,-11,-2,1
1558441991704754,-1,0,-5,-1,-5,1,-2,-3
1558441991710672,-1,-1,3,-1,-4,2,-2,-3
1558441991710672,1,-1,-2,1,8,8,5,1
1558441991716653,1,1,1,4,1,12,3,2
1558441991716653,0,1,-2,-4,-9,-12,-1,-2
1558441991731963,-5,-4,-6,-2,-6,-15,-7,-4
1558441991731963,-2,-2,0,0,-6,-5,-6,-4
1558441991739672,2,1,1,10,11,6,8,5
1558441991739672,-2,-1,5,-4,-1,1,0,-2
1558441991754893,-1,-1,-1,-7,-2,-1,-1,-1
1558441991754893,-1,-4,-7,-4,-7,4,-5,-2
1558441991755550,2,2,2,-4,-2,-10,0,3
1558441991755550,1,1,6,12,11,-1,11,2
1558441991770509,-1,0,-4,-1,3,-1,3,0
1558441991770509,-2,-1,6,1,-2,-6,-7,0
1558441991776811,0,-1,-2,5,2,13,8,-2
1558441991776811,0,-2,-6,-7,-6,-6,-8,-1
1558441991791807,-3,0,5,-2,7,8,5,-1
1558441991791807,0,2,1,2,4,-6,4,6
1558441991799824,-6,-5,-14,-11,-16,-7,-10,-5
1558441991799824,1,-1,1,-3,1,-4,-4,-3
1558441991814390,0,-2,-7,-1,-6,-1,-3,-2
1558441991814390,1,-1,-3,-2,-4,-4,-2,-1
1558441991815412,-1,-2,-2,-2,1,-7,-4,-2
1558441991815412,-4,-1,-7,-7,-1,-3,-4,-3
1558441991830529,0,-2,2,-3,-9,-3,-9,-4
1558441991830529,-3,-1,-2,-5,-5,7,0,2
1558441991836333,0,2,2,0,7,-1,5,1
1558441991836333,0,1,3,0,4,2,-1,-2
1558441991851639,2,0,8,8,5,3,0,0
1558441991851639,-5,-5,-14,-12,-12,1,-3,-5
1558441991859599,3,1,3,5,6,-1,8,5
1558441991859599,0,1,-2,-1,-3,-6,-3,-2
1558441991874558,-4,-3,-2,-4,-5,1,-4,-1
1558441991874558,-3,-3,-3,0,-1,5,-2,-8
1558441991875229,-1,0,0,1,0,-1,1,0
1558441991875229,1,0,0,-2,3,6,1,3
1558441991890458,-2,-3,-8,-2,-5,0,-2,-2
1558441991890458,-1,-1,1,-1,-7,-20,-8,1
1558441991897203,0,-1,-4,-5,2,7,-3,-3
1558441991897203,2,-1,3,5,-4,-12,-3,-2
1558441991912218,3,3,3,8,11,14,5,2
1558441991912218,1,2,-2,-7,9,12,6,2
1558441991919114,-5,-9,0,-3,-8,-6,-9,-3
1558441991919114,0,0,-5,-11,-8,-6,2,2
1558441991934356,-1,0,5,9,4,0,-3,-3
1558441991934356,1,5,11,8,10,-3,4,2
1558441991935072,-6,-7,-19,-18,-9,-11,-8,-4
1558441991935072,0,-1,-5,-5,1,9,2,-1
1558441991950313,-1,-2,9,3,-1,-8,-4,-2
1558441991950313,-3,-4,-8,4,-1,4,-6,-4
1558441991956012,-3,-3,4,-2,-10,-4,-4,-1
1558441991956012,0,0,3,2,4,2,1,0
1558441991970973,1,-3,-16,-9,-1,4,6,-1
1558441991970973,1,0,5,-3,1,-2,1,1
1558441991979200,-2,3,-4,1,-6,-1,-5,-7
1558441991979200,-2,-3,0,-1,-6,-7,-3,2
1558441991995192,1,1,11,8,15,11,10,2
1558441991995192,0,-2,-10,-6,-1,-2,-4,-1
1558441991995192,-2,-1,1,-4,-5,-4,-3,-4
1558441991995192,-1,-2,-2,-4,-5,-4,-7,-6
1558441992018844,-4,-3,-1,-10,-7,-6,-5,-1
1558441992018844,1,0,5,11,4,1,1,0
1558441992018844,2,3,5,2,-1,-4,3,3
1558441992018844,-2,0,-8,0,-2,6,-1,0
1558441992032072,-1,0,-8,0,-10,-8,-4,-3
1558441992032072,-2,-1,-2,-9,-5,-2,1,2
1558441992039061,0,0,5,8,4,0,0,-2
1558441992039061,-1,-1,6,7,13,4,10,2
1558441992055024,-1,-3,-10,-13,-7,-2,-6,0
1558441992055024,-1,0,1,-2,-8,-3,-8,-5
1558441992055746,1,0,-3,0,-7,0,-1,2
1558441992055746,-5,-9,3,-10,2,1,-2,-3
1558441992070710,0,-1,-9,0,2,3,1,0
1558441992070710,-3,-5,4,2,-6,-2,-8,-3
1558441992076966,1,-2,-1,-4,0,0,9,6
1558441992076966,-1,2,-2,1,-2,3,-3,-10
1558441992091651,0,1,-1,-4,-4,-8,-4,2
1558441992091651,2,3,10,7,16,0,9,5
1558441992099628,-1,1,-1,5,6,5,-4,1
1558441992099628,-4,-5,-13,-18,-20,2,-4,-2
1558441992114871,-1,0,-1,3,0,-6,3,-5
1558441992114871,1,-2,-6,1,0,-7,1,0
1558441992115587,-1,-1,5,5,6,3,1,-1
1558441992115587,0,0,1,4,0,-2,-2,2
1558441992130550,-2,0,1,4,2,15,0,-5
1558441992130550,-5,-5,-6,-12,-17,-10,-7,-4
1558441992136531,-1,-2,-1,-1,-6,-13,-5,-3
1558441992136531,1,4,-1,3,12,7,5,2
1558441992151492,-2,-1,1,-1,-6,1,-5,-1
1558441992151492,-1,0,2,5,5,5,-1,-3
1558441992158771,2,0,0,-3,6,-1,6,3
1558441992158771,-1,-2,1,4,0,-6,-7,-2
1558441992174754,-3,-3,4,0,-5,-4,-1,0
1558441992174754,-2,-2,-5,-4,-10,-9,-6,-4
1558441992175429,0,0,-7,-3,5,16,1,-1
1558441992175429,2,2,1,0,-4,-7,-4,4
1558441992190412,1,2,5,3,10,-13,6,2
1558441992190412,-2,-2,-1,0,-1,1,-4,-1
1558441992196685,-1,-2,0,-1,-6,1,-6,-5
1558441992196685,2,1,-4,0,2,2,4,-1
1558441992211656,0,0,-3,-4,-5,-4,-6,-1
1558441992211656,-5,-6,4,1,-1,2,2,-3
1558441992219309,-4,-3,1,0,-3,-3,-4,-5
1558441992219309,0,-1,-1,2,-2,-5,1,1
1558441992234543,3,2,2,0,-1,-1,1,2
1558441992234543,1,0,-5,2,4,8,3,1
1558441992235267,-3,-3,-4,-6,-2,-8,-6,-3
1558441992235267,-1,0,2,6,-3,-2,3,-2
1558441992250324,0,-2,4,-6,-3,-2,-1,0
1558441992250324,1,4,2,-4,5,8,4,1
1558441992256493,-5,-5,-12,-8,-2,2,-3,-1
1558441992256493,0,0,-2,-4,-7,-6,-5,2
1558441992272167,-2,-2,0,8,-1,-11,-6,-3
1558441992272167,1,0,3,-1,1,-1,4,1
1558441992279448,1,3,5,6,4,14,7,-1
1558441992279448,-4,-4,-3,-3,-4,2,0,-3
1558441992295391,1,-1,0,2,8,7,3,4
1558441992295391,-1,-3,-8,0,-7,-4,-2,-3
1558441992295391,1,1,8,-3,2,2,-1,2
1558441992295391,-3,-2,-2,3,7,7,1,-5
1558441992310356,-2,-1,-4,-6,-8,1,-5,-4
1558441992310356,-2,-1,-4,-8,-7,-6,-6,-2
1558441992316050,2,0,-4,5,3,-5,0,4
1558441992316050,-1,1,4,-17,1,-5,1,2
1558441992332244,-4,-6,-2,8,-3,3,0,-1
1558441992332244,-1,-1,-3,-3,2,2,1,0
1558441992339268,-4,0,-10,-1,-11,-6,-8,-7
1558441992339268,-1,-1,2,5,-7,-3,-6,-4
1558441992354945,-1,-2,-6,-12,3,6,2,-1
1558441992354945,-2,-2,6,5,-1,-6,-4,-3
1558441992354945,1,1,1,0,1,-6,1,1
1558441992354945,1,1,8,6,13,6,7,4
1558441992369905,-4,-3,-5,-6,-8,-5,-9,-2
1558441992369905,-4,-3,-6,3,-6,4,-4,-4
1558441992375889,0,0,1,-9,-4,-4,4,3
1558441992375889,1,-2,-1,6,0,-5,-8,-4
1558441992391845,0,0,4,-1,3,8,1,-3
1558441992391845,-1,1,-2,-1,1,-5,0,-1
1558441992398827,0,-2,1,6,4,2,2,0
1558441992398827,-1,-2,-4,-10,-7,-9,-4,-1
1558441992414783,-1,1,-4,0,-1,-3,-1,0
1558441992414783,-1,1,-5,-14,-6,4,-1,0
1558441992415781,-3,-6,-4,-2,-8,-11,-9,-9
1558441992415781,1,4,5,8,15,18,11,6
1558441992430742,1,-2,-3,-5,-2,-4,0,0
1558441992430742,-3,0,-1,-2,-5,2,-2,-1
1558441992436726,-3,-5,-2,-1,-7,-11,-7,-4
1558441992436726,-1,-2,-1,1,1,11,5,1
1558441992451487,-1,0,-2,1,5,2,5,2
1558441992451487,1,3,5,1,1,-11,-4,-1
1558441992459283,-3,-3,-2,-8,-6,-1,-5,-4
1558441992459283,-1,1,0,3,-1,-7,-2,-2
1558441992475038,-1,-2,-9,-12,-4,-4,-4,-4
1558441992475038,0,-5,-3,-2,-3,-3,0,-2
1558441992475038,2,3,7,7,7,-3,5,4
1558441992475038,0,-2,-4,-5,4,12,-2,-2
1558441992490318,-1,-1,2,4,-6,-2,0,-2
1558441992490318,1,-2,2,3,4,1,3,2
1558441992497240,1,0,-5,-3,0,5,0,-3
1558441992497240,-3,-2,-1,0,-5,-10,-8,0
1558441992512219,-3,-3,1,4,-14,-16,-11,-7
1558441992512219,-1,-4,-7,-9,8,26,10,0
1558441992518914,0,1,9,7,3,-6,1,1
1558441992518914,0,1,-4,-1,3,1,1,3
1558441992534169,-2,-2,-3,-6,-5,-2,1,-1
1558441992534169,-3,-2,-2,-1,-6,-15,-7,-2
1558441992541850,0,1,-3,-1,1,8,2,3
1558441992541850,-4,-5,1,-1,0,-5,-1,-4
1558441992549831,1,2,7,4,6,1,4,2
1558441992549831,-1,-1,1,3,2,-2,-2,-3
1558441992556810,-3,-3,-6,-7,-7,3,-8,-2
1558441992556810,0,-2,-1,-2,-14,-12,-6,-5
1558441992571770,0,-1,-3,-1,5,-1,-1,-1
1558441992571770,0,-1,-5,0,8,1,2,1
1558441992578752,0,-1,-1,0,-6,-2,-4,-4
1558441992578752,-3,-3,-5,-4,-5,-6,-2,-1
1558441992594168,-2,0,3,0,4,3,2,-4
1558441992594168,-1,1,0,2,1,-8,-4,0
1558441992601992,-2,-4,2,-2,-4,0,-4,-5
1558441992601992,2,5,9,0,5,13,7,4
1558441992610667,-4,-8,-8,4,1,-12,-3,1
1558441992610667,-4,-3,-7,-2,-10,-2,-6,-5
1558441992617162,-2,-2,3,7,8,4,3,1
1558441992617162,-1,-3,-2,-6,-4,-6,-5,-4
1558441992633072,0,0,6,1,1,8,0,-1
1558441992633072,0,-2,-4,-3,-1,-4,0,0
1558441992646569,2,0,1,2,-1,-2,1,2
1558441992646569,-1,-2,4,3,-4,3,-5,-6
1558441992653552,0,0,-2,-3,1,6,-2,0
1558441992653552,1,4,3,-2,-7,-16,1,0
1558441992661529,-1,2,-5,-6,2,-3,4,5
1558441992661529,0,-2,-4,-2,-3,-6,-3,-4
1558441992678486,0,4,1,3,3,12,1,-1
1558441992678486,0,-3,1,2,1,3,-1,-1
1558441992679512,-1,-1,-4,-5,-2,0,-1,-1
1558441992679512,1,-2,-3,-6,-6,-2,0,1
1558441992692448,-1,-3,-1,1,-6,-13,-8,0
1558441992692448,2,2,6,4,10,18,4,0
1558441992698451,3,3,-2,-7,0,4,5,0
1558441992698451,-7,-5,-6,3,4,-8,-1,-1
1558441992713766,1,2,6,-2,2,3,4,4
1558441992713766,-2,-1,-1,3,3,3,-3,0
1558441992721370,-3,-3,0,0,-7,0,-6,-3
1558441992721370,1,0,-10,-7,-8,-4,-5,-2
1558441992737328,-4,-1,-1,-1,-5,-6,-3,-3
1558441992737328,1,-1,-4,-4,4,2,3,3
1558441992737328,-2,0,2,1,4,-4,3,0
1558441992737328,-2,-2,-3,-7,-7,-2,-5,-2
1558441992753289,-1,-2,-6,-8,-3,2,-5,-4
1558441992753289,0,-2,-2,-10,-11,-9,-4,0
1558441992759273,-4,0,2,5,2,7,-11,-10
1558441992759273,4,3,3,4,7,-9,8,6
1558441992774228,0,-1,3,5,2,0,-4,-2
1558441992774228,-2,-3,3,-5,-5,1,-5,-3
1558441992781219,-2,-4,-12,-6,-12,-10,-9,-3
1558441992781219,-3,-5,-9,-7,-7,9,-2,-2
1558441992797168,0,3,4,2,12,10,8,4
1558441992797168,-1,-2,0,5,-3,-19,-2,1
1558441992798176,-1,0,5,3,6,8,5,1
1558441992798176,-3,-3,-4,-2,-4,-10,-8,-4
1558441992813136,0,-3,-5,-2,-8,-2,-2,-2
1558441992813136,0,0,0,-6,8,15,6,1
1558441992819109,1,0,13,11,9,8,2,5
1558441992819109,-1,-1,-1,8,-1,0,-4,-5
1558441992834068,-1,0,-5,-8,-2,-2,-1,-1
1558441992834068,-1,-2,-4,-6,-12,-14,-8,-3
1558441992841309,-4,-3,-5,-7,2,6,3,-3
1558441992841309,-2,1,4,4,-9,-10,-6,-1
1558441992857007,1,-1,1,-2,6,2,5,2
1558441992857007,-2,2,3,8,5,9,-4,-1
1558441992858005,-3,-3,-10,-10,-7,-3,-4,1
1558441992858005,-1,0,1,4,1,-10,-3,0
1558441992872965,0,0,2,-2,-4,-4,0,-2
1558441992872965,1,0,-4,-1,0,2,1,-2
1558441992878950,-1,-1,8,8,5,6,-2,-4
1558441992878950,-2,-5,-8,-6,-4,1,-3,-4
1558441992896145,-2,-3,-4,-6,3,-4,8,1
1558441992896145,-1,1,2,4,3,3,4,1
1558441992900892,0,0,-4,-4,-3,1,1,-2
1558441992900892,0,1,4,-5,1,-5,1,4
1558441992918845,-2,1,3,6,0,-9,-3,3
1558441992918845,-4,-5,-6,1,-2,7,-3,-3
1558441992918845,-1,-2,-4,-2,0,1,2,0
1558441992918845,2,0,5,-4,-3,1,3,-1
1558441992932805,0,-2,-4,0,-8,-8,-10,-2
1558441992932805,0,0,-4,-11,-2,-5,2,1
1558441992938788,0,-2,-5,-2,-5,-6,-2,-3
1558441992938788,-1,0,6,8,9,14,5,1
1558441992953749,-1,-1,-3,1,-3,-7,-7,-3
1558441992953749,-1,-2,-3,-1,-2,-2,-2,0
1558441992961879,1,-1,3,3,8,-7,6,5
1558441992961879,-1,-1,-4,-4,-8,0,-3,-3
1558441992978837,-2,-4,-5,-7,-9,-1,-5,-3
1558441992978837,-3,-2,5,4,1,-7,-3,-3
1558441992978837,0,0,-7,-10,-5,-5,-1,0
1558441992978837,-3,-1,-3,7,3,-4,-3,0
1558441992992799,0,-2,-9,-10,-12,4,-4,-6
1558441992992799,-1,-3,1,-8,-4,-2,1,0
1558441992998784,-1,-3,-2,3,-1,-11,-5,-1
1558441992998784,1,1,3,-4,-3,2,4,-1
1558441993013744,-1,-2,-5,-1,2,-15,4,4
1558441993013744,-1,-3,0,3,3,2,-2,-2
1558441993038677,-2,-1,-3,-4,5,11,2,-1
1558441993038677,0,1,-3,-4,0,-6,-1,1
1558441993039677,-1,-1,1,2,1,6,-5,-2
1558441993039677,-2,-1,-4,-4,-8,-2,-3,-3
1558441993040673,0,1,-3,2,10,12,9,4
1558441993040673,1,-1,1,4,-1,2,-2,-2
1558441993053643,1,0,8,-1,13,15,12,5
1558441993053643,-1,2,0,0,-8,-14,-3,-3
1558441993058623,-3,-3,0,-4,-15,-11,-14,-7
1558441993058623,2,-1,-5,-1,3,3,4,3
1558441993090598,-1,0,-1,3,-4,2,-1,-3
1558441993090598,-1,-5,1,-1,3,2,-2,1
1558441993090598,-3,-3,-3,-4,-7,0,-4,-3
1558441993090598,0,1,-3,-2,7,7,2,-1
1558441993096521,-3,-3,1,3,-10,-18,-3,-4
1558441993096521,1,2,0,0,7,5,6,3
1558441993097518,-2,-3,-3,7,5,-5,2,1
1558441993097518,0,-1,-2,-7,-4,4,1,1
1558441993112480,0,-2,1,-1,-4,-1,-4,-1
1558441993112480,-2,-4,-11,-3,-9,-6,-4,-4
1558441993118472,0,1,5,-2,-2,-1,0,0
1558441993118472,0,-2,1,6,4,-5,-3,-1
1558441993133427,-1,0,0,3,3,6,0,-2
1558441993133427,0,1,2,3,2,11,1,-2
1558441993149529,-2,0,-2,-6,-10,-6,-7,-5
1558441993149529,-2,1,-5,-6,-1,-5,-1,-1
1558441993164637,0,-1,-2,-6,-4,6,2,0
1558441993164637,1,3,5,14,18,-4,9,5
1558441993165338,-4,-1,-5,-13,0,5,0,-2
1558441993165338,-3,-3,-5,-14,-17,-11,-9,-8
1558441993172320,-5,-6,-3,2,2,-1,-3,-4
1558441993172320,2,1,-3,0,-1,-3,-3,0
1558441993179301,1,1,6,7,6,4,6,3
1558441993179301,-1,-1,2,-1,-3,-1,1,-1
1558441993203243,-3,-4,-7,-5,1,4,-5,-2
1558441993203243,-1,-1,0,-1,-3,-6,-1,0
1558441993204236,0,0,-5,-1,-2,-8,4,2
1558441993204236,-1,-1,3,-2,-2,-4,-1,-1
1558441993217359,-1,-1,3,5,-4,-4,-6,0
1558441993217359,-1,-2,-5,-4,-4,1,-4,-8
1558441993218196,0,-2,-4,-3,-8,-6,-8,-3
1558441993218196,-1,-2,-6,-1,0,10,0,0
1558441993233155,3,4,6,1,12,3,8,5
1558441993233155,-3,-4,-4,-1,-3,-6,-2,0
1558441993255100,0,-3,3,-6,-5,-5,-4,-2
1558441993255100,-4,1,-1,0,-2,2,-6,-4
1558441993257095,-4,0,0,3,0,-1,2,0
1558441993257095,-3,-1,3,-8,-1,10,-1,0
1558441993261084,-1,-5,-10,-1,-2,-13,-5,-1
1558441993261084,-1,0,6,7,8,3,2,3
1558441993277043,2,1,-6,-10,-5,-5,4,0
1558441993277043,-2,-2,-2,-2,-3,4,-3,-4
1558441993278037,-1,1,0,-1,-9,3,-4,-4
1558441993278037,1,-4,-1,-2,-5,-5,0,-2
1558441993292998,-1,0,1,2,3,0,3,3
1558441993292998,-2,-3,-2,2,-4,-9,-7,-4
1558441993306958,3,5,6,7,14,19,9,7
1558441993306958,0,-1,-2,-1,5,-2,-1,-2
1558441993313940,0,-1,-4,-4,-5,3,-4,1
1558441993313940,1,-1,2,0,0,2,3,1
1558441993320923,-3,1,-4,-5,-9,-9,-4,-1
1558441993320923,-2,-1,2,1,1,-9,1,0
1558441993336882,2,0,-5,-3,0,1,-2,0
1558441993336882,1,-2,0,-1,-6,-10,-3,0
1558441993337881,-1,-4,6,5,-3,0,1,-2
1558441993337881,2,-1,-10,-6,0,2,2,1
1558441993368794,1,4,3,5,3,4,-2,-1
1558441993368794,-5,-2,-7,-6,-6,4,-3,-2
1558441993369793,-3,-3,-7,-6,-5,-2,-3,-3
1558441993369793,-1,0,3,0,2,-14,0,1
1558441993373781,-2,-3,-3,0,-2,-7,-4,-1
1558441993373781,4,2,-3,3,9,10,3,1
1558441993381760,-2,-3,7,-4,-4,-2,-3,-5
1558441993381760,-3,-3,-7,-4,-6,8,-7,-4
1558441993396722,-3,-2,1,-2,-8,-11,-1,0
1558441993396722,0,1,3,6,2,-11,1,0
1558441993397716,-3,-3,-1,0,0,-6,-9,-3
1558441993397716,3,0,-3,2,11,20,8,5
1558441993428636,-3,-1,1,1,-6,0,-1,-7
1558441993428636,0,-2,-1,-3,-6,6,-6,-3
1558441993429630,2,2,-3,1,5,-7,7,6
1558441993429630,-2,-3,0,2,-1,-4,-4,-3
1558441993433620,-1,1,7,-1,3,-1,-5,0
1558441993433620,-2,-2,2,-4,-6,-4,3,-3
1558441993449576,-2,-5,-8,-2,-5,5,1,-2
1558441993449576,-1,0,-1,0,-1,-16,-3,1
1558441993456560,1,-1,-5,-2,2,1,1,-1
1558441993456560,-2,-2,-4,-1,-7,-6,-11,-4
1558441993457555,0,0,0,-2,-2,2,-5,-2
1558441993457555,0,0,4,7,4,17,7,1
1558441993480494,0,-2,-12,-15,-3,-4,0,-1
1558441993480494,-3,-4,0,-3,0,-5,1,0
1558441993481491,-3,-3,-4,-2,-5,-1,0,-1
1558441993481491,-2,2,0,3,0,-12,-3,0
1558441993495454,-1,1,2,8,10,9,3,1
1558441993495454,-1,-2,-3,-4,-8,-4,0,1
1558441993501440,-1,0,-1,0,2,-1,-4,-4
1558441993501440,-1,-1,1,-3,-2,7,2,2
1558441993516399,1,2,4,2,0,-12,-4,-4
1558441993516399,-3,-4,-7,-4,3,5,-2,-3
1558441993533358,0,-2,1,1,0,-6,-2,2
1558441993533358,-3,-3,0,0,-8,-5,-9,-6
1558441993534351,-4,-7,-5,-5,-10,1,-5,-4
1558441993534351,0,1,0,8,4,6,5,2
1558441993539337,1,2,1,0,9,1,5,3
1558441993539337,-2,-1,3,0,-1,3,5,-1
1558441993562277,-3,-4,-4,-5,-13,-9,-7,-2
1558441993562277,2,2,0,-2,2,-2,-3,-3
1558441993562277,-2,2,0,2,3,-5,4,2
1558441993562277,-1,0,0,4,6,2,4,3
1558441993593194,-2,-4,-1,-3,-2,-6,-4,-2
1558441993593194,1,2,-4,-4,-5,2,-4,-3
1558441993594191,0,-5,-3,-4,-10,0,-5,-5
1558441993594191,-4,-5,-8,-5,-3,5,-4,-7
1558441993595188,2,5,12,6,9,4,9,3
1558441993595188,-5,-4,-4,-12,2,-2,-2,1
1558441993599176,0,1,-4,5,4,5,-3,-3
1558441993599176,-2,-3,0,-6,-3,2,3,1
1558441993614139,-1,-2,-3,1,-2,2,-2,0
1558441993614139,-1,-1,-2,-2,-6,-13,-6,-2
1558441993622116,1,0,8,8,8,-2,6,2
1558441993622116,2,2,5,0,4,0,-1,3
1558441993646052,-1,0,-5,-1,1,9,0,-3
1558441993646052,-2,-1,1,5,3,2,2,-1
1558441993647049,-4,-2,-4,-4,-9,-5,-11,-6
1558441993647049,0,-1,-1,-3,-9,-12,-3,-1
1558441993660020,-2,-2,-3,-5,-4,-3,-1,-2
1558441993660020,0,0,-3,0,0,13,4,0
1558441993660020,-2,0,2,-3,-2,-2,1,-2
1558441993660020,0,0,2,3,9,9,3,2
1558441993673977,-3,-1,-2,-1,-11,-15,-11,-4
1558441993673977,2,4,6,8,8,2,2,4
1558441993680960,1,1,0,-3,0,-4,0,5
1558441993680960,-3,-2,-2,-1,-5,3,0,-6
1558441993705892,-1,-3,0,0,-4,-4,-5,-3
1558441993705892,0,-2,0,6,5,4,3,2
1558441993706889,1,1,-7,-15,4,8,4,4
1558441993706889,-2,-1,-5,-4,-7,-15,1,0
1558441993719856,-2,-1,0,-5,-7,3,-2,-1
1558441993719856,1,0,-2,7,6,-4,2,0
1558441993719856,-3,-4,-2,0,-7,-2,-5,-5
1558441993719856,2,2,-2,-4,4,1,0,3
1558441993733817,0,0,2,0,-1,-8,-2,-1
1558441993733817,4,0,5,0,3,-5,6,4
1558441993757764,-2,0,-2,0,-2,-4,-1,1
1558441993757764,-3,-3,-6,-6,-9,3,-7,-8
1558441993758753,-1,-1,2,6,10,7,5,1
1558441993758753,-1,0,-2,-8,-9,-10,-9,-4
1558441993763739,-5,-5,2,0,-10,-9,-7,-4
1558441993763739,-1,0,-1,-5,2,-9,-1,1
1558441993779703,-1,1,-5,-9,-1,6,3,1
1558441993779703,-2,-2,-1,1,0,2,-1,-2
1558441993780693,-1,-2,6,2,4,10,4,0
1558441993780693,-5,0,-8,-1,-7,-8,-10,-3
1558441993793660,-1,-3,-2,-9,-3,-4,4,0
1558441993793660,2,-3,3,3,4,6,4,-1
1558441993809619,1,4,0,1,0,-3,-1,-3
1558441993809619,0,-3,-4,1,-6,-10,-5,-1
1558441993816595,-2,-5,-2,2,0,4,-4,-7
1558441993816595,-4,-2,-6,-8,-9,-7,-6,1
1558441993840532,-1,2,-2,6,8,12,9,1
1558441993840532,1,1,6,7,7,0,5,1
1558441993842526,-2,0,-3,2,-3,0,-3,0
1558441993842526,-3,-4,-2,-9,-15,-5,-9,-7
1558441993842526,0,1,0,2,2,-3,-3,0
1558441993842526,4,1,1,0,6,0,2,4
1558441993870456,-1,-1,3,8,8,7,6,2
1558441993870456,-4,-2,-2,-3,7,-1,0,-1
1558441993871452,0,-2,-5,-12,-8,-5,-5,-1
1558441993871452,-2,-3,-5,-3,-5,7,1,-2
1558441993876437,1,1,-2,-1,-6,-9,-4,0
1558441993876437,-2,1,-1,1,-2,0,-3,-3
1558441993883418,0,-1,4,2,1,-7,0,-3
1558441993883418,-2,0,-2,2,-4,-14,0,-1
1558441993899377,-1,0,-2,-7,-7,-8,-2,0
1558441993899377,-2,-2,-4,-2,-3,3,-3,1
1558441993900373,-1,-2,-2,1,1,5,-2,-7
1558441993900373,0,-3,0,-2,2,12,0,-2
1558441993923311,0,1,2,4,1,-8,-2,1
1558441993923311,-1,-3,2,3,6,5,5,-3
1558441993924308,0,-2,-7,-16,-1,1,-3,4
1558441993924308,-2,1,3,1,2,7,-1,-2
1558441993936277,0,-3,-7,-6,-4,2,1,-3
1558441993936277,-1,-2,-4,-5,-9,-6,-5,-2
1558441993944255,-1,-5,-5,3,-1,-6,2,1
1558441993944255,-1,0,1,1,-4,-3,-3,0
1558441993959219,-2,0,0,-3,1,-4,-4,0
1558441993959219,3,1,-3,5,-1,3,3,0
1558441993960212,-1,1,2,5,3,4,-1,-2
1558441993960212,-1,0,4,-2,-5,-10,-8,-5
1558441993983151,-3,-2,-5,-2,2,2,3,-1
1558441993983151,-2,-2,2,-3,1,3,1,-1
1558441993984149,1,-1,0,4,0,-13,0,3
1558441993984149,-2,-4,2,-2,-4,-3,-6,-4
1558441993996115,4,6,3,5,9,7,5,2
1558441993996115,-3,-5,-14,-10,-13,-12,-9,-5
1558441994004096,1,2,6,6,11,12,11,6
1558441994004096,0,-2,-2,-1,-2,2,1,-1
1558441994036013,-4,-4,-6,-3,-5,7,-4,-3
1558441994036013,0,2,4,5,2,-4,0,2
1558441994037006,0,0,-13,-18,-8,-10,0,-3
1558441994037006,-1,-1,1,3,1,1,-1,0
1558441994038003,-2,-1,6,0,0,-4,-3,-1
1558441994038003,-1,0,5,0,-2,2,-5,-4
1558441994049971,-5,-4,-5,2,-7,-11,-10,-3
1558441994049971,3,1,-3,1,3,7,6,2
1558441994055955,-3,-4,-1,1,3,7,-1,-1
1558441994055955,-3,-3,-2,-7,-4,-15,-3,-4
1558441994063938,-1,-2,3,5,0,-3,-2,-2
1558441994063938,-1,-1,-4,-11,-9,-5,-8,-3
1558441994087870,3,2,3,6,7,2,4,5
1558441994087870,1,5,1,0,6,10,3,1
1558441994088869,-2,0,-3,12,4,12,-1,-4
1558441994088869,-3,-5,-10,-16,-12,-10,-4,0
1558441994101834,1,1,2,1,4,7,6,1
1558441994101834,2,4,4,5,3,-5,0,3
1558441994102831,-3,-1,2,-1,-6,-1,-5,-3
1558441994102831,-3,-1,-1,0,-5,4,-6,-3
1558441994115801,-3,-6,-6,4,3,2,0,-2
1558441994115801,3,0,4,-10,-2,-9,6,3
1558441994123780,-2,-3,-10,-7,-7,1,-4,-2
1558441994123780,-3,0,0,6,2,3,-1,-3
