timestamp,emg1,emg2,emg3,emg4,emg5,emg6,emg7,emg8
1558441917458484,0,-2,-3,-2,0,4,-2,-1
1558441917458484,1,1,3,4,1,0,-1,-3
1558441917458484,-2,-2,-6,-9,-3,2,-1,-5
1558441917458484,-1,0,-5,-1,-3,4,-2,-2
1558441917463469,2,4,12,4,1,4,-1,0
1558441917463469,-7,-13,-17,-5,-5,2,0,-4
1558441917466461,-3,-1,-2,1,1,1,2,2
1558441917466461,0,-1,2,-1,4,-3,2,-1
1558441917468457,0,-1,0,-5,-5,-3,-1,-4
1558441917468457,-2,-2,-8,-4,-3,-3,-3,-4
1558441917477432,-1,-1,-2,-1,-12,-9,-7,-4
1558441917477432,1,-1,0,-2,6,16,10,6
1558441917484413,0,1,1,7,4,-7,-1,-2
1558441917484413,0,-1,3,1,3,4,1,1
1558441917495384,-1,-2,-3,-1,0,-9,-1,0
1558441917495384,-2,0,-1,-10,-5,-13,-9,-4
1558441917508349,-2,1,7,9,2,13,5,0
1558441917508349,-3,-5,-5,-2,0,4,3,0
1558441917514332,-2,1,2,0,0,4,0,-3
1558441917514332,-3,0,-5,-4,-3,0,0,0
1558441917522311,2,-2,-5,-1,-2,1,1,0
1558441917522311,2,3,4,9,3,-6,-2,-2
1558441917537272,-2,-3,-1,-7,-6,-2,-4,-2
1558441917537272,1,0,3,3,4,-3,-5,-3
1558441917577165,0,0,1,0,-2,2,-1,-2
1558441917577165,-3,-7,-5,-3,-5,-10,-6,-1
1558441917578162,-2,-2,-1,-2,5,10,-1,0
1558441917578162,0,0,1,-2,-6,-8,-1,0
1558441917579160,2,2,3,5,10,5,5,2
1558441917579160,0,2,2,3,2,-4,5,2
1558441917581155,-1,-2,-2,-4,-5,-5,-6,1
1558441917581155,-2,-4,-8,-6,-5,7,-4,-7
1558441917589133,-3,-1,2,-2,-9,-4,-9,-5
1558441917589133,0,0,-2,1,0,-14,3,3
1558441917596114,1,0,5,7,10,13,1,3
1558441917596114,-1,-2,-6,-4,-1,4,6,3
1558441917604093,-2,-3,0,-1,2,4,-1,-2
1558441917604093,-1,-3,-1,1,-5,4,-5,-6
1558441917619054,0,1,-2,-7,-6,-18,2,-1
1558441917619054,-1,2,3,-7,1,-6,1,2
1558441917627032,-1,-2,-2,-1,-1,-1,-2,-2
1558441917627032,-1,-2,-8,-7,-6,-3,-7,-3
1558441917634013,2,0,1,4,0,1,2,-2
1558441917634013,0,-1,5,0,-2,-3,-2,-1
1558441917649971,-4,-6,-12,-6,-5,-4,-2,-2
1558441917649971,0,1,3,1,4,13,-1,-3
1558441917655954,-2,-1,-2,1,-1,-5,1,1
1558441917655954,0,1,4,1,-3,-11,-5,2
1558441917663933,2,3,2,3,12,5,7,5
1558441917663933,0,1,3,-1,-2,8,-4,-3
1558441917678893,-4,-3,-2,5,-1,1,-5,-5
1558441917678893,0,-3,-7,-9,0,9,7,1
1558441917686871,-2,3,-8,-8,-10,-14,-9,-4
1558441917686871,-3,-7,4,2,3,5,6,0
1558441917693855,-1,0,-4,-12,-5,-4,-6,-5
1558441917693855,-4,0,-1,10,7,3,-1,0
1558441917717789,-1,-2,-4,-5,-4,4,-4,-1
1558441917717789,1,2,1,2,3,3,5,1
1558441917718786,-1,-1,1,2,-5,-12,-4,-2
1558441917718786,-1,-3,-2,-2,0,9,-2,-4
1558441917723774,2,-1,0,0,-3,-7,2,1
1558441917723774,-1,2,3,5,8,-2,-2,-1
1558441917747708,-2,-3,2,-2,2,12,2,-1
1558441917747708,-3,-2,-5,0,-8,-13,-6,-4
1558441917748707,2,-1,3,2,4,-2,4,3
1558441917748707,-3,-2,-7,-7,-4,-2,-5,0
1558441917753692,0,-1,-4,-5,-6,-2,-5,-2
1558441917753692,1,2,3,3,9,8,6,3
1558441917777629,-4,-4,2,0,-5,0,-4,-4
1558441917777629,-1,-1,0,-2,-3,-6,-1,1
1558441917779623,-2,0,-1,8,-3,-3,-2,1
1558441917779623,-1,-3,-5,-9,-4,0,-7,-6
1558441917783613,0,0,-2,-1,3,5,6,0
1558441917783613,0,0,1,0,-4,-6,-4,0
1558441917798573,1,0,5,2,2,4,5,1
1558441917798573,-2,0,0,7,2,-4,-6,-2
1558441917806551,-3,-3,-5,-5,-7,-7,2,-4
1558441917806551,-1,0,-3,-7,-2,-1,3,-1
1558441917813534,2,3,-1,0,5,6,8,0
1558441917813534,0,-1,-1,-4,-1,3,-2,-1
1558441917829490,-3,0,-1,3,3,3,-3,-3
1558441917829490,1,-1,0,0,1,2,0,0
1558441917836471,-2,-5,-5,0,-3,-8,-2,-3
1558441917836471,-1,-2,-5,-18,-13,-17,-2,-3
1558441917843453,0,0,4,4,5,6,1,2
1558441917843453,-3,0,-5,-8,-6,-4,-3,-2
1558441917858414,1,1,0,-3,-1,-1,-4,-2
1558441917858414,-3,1,-2,6,1,-2,1,0
1558441917867388,-1,0,1,-2,-7,-4,-4,-3
1558441917867388,-1,0,0,0,-3,0,-4,-2
1558441917881352,0,0,-4,-2,3,-7,10,4
1558441917881352,-3,-3,0,5,3,2,-2,0
1558441917889330,-1,0,0,-2,-5,-9,-3,-1
1558441917889330,-1,-2,-1,2,5,3,-5,-2
1558441917896311,0,0,0,-2,-8,1,-6,-2
1558441917896311,2,2,6,5,10,4,6,1
1558441917904290,1,0,0,3,2,4,-1,-1
1558441917904290,-1,-3,-2,-6,-3,1,-2,-2
1558441917919250,-3,0,7,1,-1,-4,-3,-4
1558441917919250,-3,-4,-7,3,1,-2,-1,-2
1558441917927228,-2,-2,-1,-5,-5,-2,-3,-1
1558441917927228,0,0,-1,1,-2,-8,-1,0
1558441917941191,-2,0,-1,-2,-1,2,-2,-2
1558441917941191,1,1,-2,2,-3,-3,-2,-3
1558441917949170,0,-1,-2,-3,-4,-7,-1,-4
1558441917949170,-2,0,2,3,7,6,6,-1
1558441917956151,0,-4,-6,-15,0,7,0,1
1558441917956151,-1,-2,2,-1,-9,-6,-1,-1
1558441917964141,-1,-1,3,3,6,-6,-1,1
1558441917964141,-2,-1,-6,-2,-1,-1,-2,-3
1558441917979092,-1,-1,-1,1,-2,4,-8,-4
1558441917979092,-3,-2,3,-4,-11,-12,-11,-5
1558441917987068,3,2,1,0,6,7,9,5
1558441917987068,1,1,-2,3,4,-1,0,0
1558441918001031,0,1,0,6,4,-4,3,5
1558441918001031,-3,-4,-1,-4,-5,3,-4,-3
1558441918010007,-2,-3,-4,-5,-5,4,-4,-3
1558441918010007,0,-1,3,0,-3,-4,-1,1
1558441918015990,-3,-1,3,0,-9,-9,-3,-5
1558441918015990,0,-1,-6,0,4,2,-2,0
1558441918023971,1,0,-4,0,11,16,7,2
1558441918023971,-1,-1,7,4,-2,-16,1,1
1558441918038931,-1,-3,-8,-9,-5,-1,-2,-3
1558441918038931,-2,0,7,3,2,-3,1,1
1558441918046909,-5,-2,-3,-3,-8,-11,-9,-3
1558441918046909,-3,-7,-4,-4,-4,2,-6,-3
1558441918069847,0,1,1,-2,4,4,-1,2
1558441918069847,2,0,-1,6,9,16,14,3
1558441918070845,-3,-5,-5,-7,-8,-19,-4,-2
1558441918070845,1,1,-6,-2,0,0,3,2
1558441918076830,0,-2,3,5,0,3,-1,-1
1558441918076830,1,2,-2,-10,-1,0,-1,3
1558441918083810,0,-1,4,-1,0,6,1,-1
1558441918083810,-3,0,-4,1,-1,3,-4,-4
1558441918098769,-1,-4,-3,-2,-7,-7,-5,-2
1558441918098769,-2,-2,0,0,3,6,-3,-2
1558441918106749,-1,1,3,4,5,0,5,4
1558441918106749,-2,0,-4,-7,0,-1,-4,-1
1558441918121708,-1,-1,0,2,2,6,1,-1
1558441918121708,0,-1,-4,-7,-12,-14,-10,-3
1558441918129687,-1,-1,-2,3,-9,-1,-4,-2
1558441918129687,-4,-2,-2,-2,3,7,8,1
1558441918136668,-1,1,3,-2,11,-2,12,4
1558441918136668,1,2,-2,2,-1,-6,1,0
1558441918143650,-1,-4,-1,0,-4,2,-4,-4
1558441918143650,-1,0,-2,-13,-12,-6,-9,-5
1558441918158610,-3,-4,-4,-1,-5,-2,0,-2
1558441918158610,1,-2,1,4,9,9,4,1
1558441918166588,3,4,5,4,10,11,8,3
1558441918166588,-1,-3,-3,-3,-10,-3,-2,-1
1558441918181549,-2,0,0,1,-3,-6,-6,-2
1558441918181549,-1,2,0,-3,2,6,3,1
1558441918189528,-3,-3,-4,-3,-7,-5,-7,-2
1558441918189528,-3,-6,2,1,-3,2,-2,-3
1558441918196508,1,3,-2,-3,2,2,3,1
1558441918196508,0,0,4,2,0,-12,-1,2
1558441918212465,-3,-1,-2,-1,0,-4,-6,-3
1558441918212465,1,-3,-3,0,-6,-11,-2,-2
1558441918218453,-3,-3,-1,1,-1,3,-5,-4
1558441918218453,-2,-2,-4,0,-2,6,1,-1
1558441918227426,0,-2,-10,-14,-7,-2,1,-1
1558441918227426,-1,0,-1,3,1,-1,-2,-2
1558441918241388,0,-4,-5,-3,-3,-3,-2,-3
1558441918241388,-1,2,4,0,2,4,3,0
1558441918249367,-2,0,5,4,-2,-4,-5,-3
1558441918249367,-4,-3,-10,-5,-9,-5,-6,-4
1558441918256348,-1,4,4,0,13,13,11,4
1558441918256348,-1,0,1,-2,4,-2,9,2
1558441918272308,1,-1,4,9,0,-7,-2,-3
1558441918272308,-1,-1,-6,-10,-3,3,-7,0
1558441918279289,-4,-2,-1,-3,-12,-14,-16,-7
1558441918279289,-1,-1,-3,6,8,12,2,1
1558441918287269,-1,2,-3,-5,-2,-7,4,1
1558441918287269,2,2,5,5,2,2,0,-1
1558441918301229,-1,-3,-4,-2,-4,1,-1,-1
1558441918301229,-3,-4,-3,-4,-8,-10,-10,-6
1558441918309207,-1,-1,8,5,3,5,-1,2
1558441918309207,-1,2,-2,1,2,0,5,-1
1558441918316189,1,-4,-4,-3,-6,-12,-4,-1
1558441918316189,2,0,4,0,-1,2,-1,-2
1558441918332145,-5,-2,-4,-8,-3,2,-3,-4
1558441918332145,-2,-1,-3,0,-6,1,-4,-2
1558441918339126,-1,-1,0,-1,-1,-5,-2,0
1558441918339126,1,-1,0,1,5,-11,5,2
1558441918348104,-2,-1,0,0,0,3,-1,-3
1558441918348104,1,2,4,4,7,5,5,3
1558441918361069,-3,0,-1,-9,-2,4,-2,-2
1558441918361069,-7,-9,-14,-10,-16,-5,-10,-4
1558441918370045,-4,-4,-4,-10,-7,0,-4,-3
1558441918370045,-2,-2,-4,6,1,-10,-2,1
1558441918376034,2,1,10,7,8,-6,3,4
1558441918376034,-2,-1,0,-2,-3,5,-2,0
1558441918392982,0,1,-1,5,-6,-3,-2,-3
1558441918392982,-1,0,1,-3,0,4,3,0
1558441918398969,-1,-2,-8,-10,-2,-2,-3,-2
1558441918398969,-3,1,2,0,0,0,-3,-3
1558441918407949,-1,1,-3,0,0,-1,-2,-1
1558441918407949,-1,0,7,6,3,3,2,-1
1558441918420911,-3,-3,-8,-2,-6,-4,-5,0
1558441918420911,-1,-3,4,-4,-10,-1,-8,-6
1558441918430883,1,-1,-9,0,7,-5,7,5
1558441918430883,3,3,3,0,15,8,9,6
1558441918435869,0,1,-2,1,2,4,2,1
1558441918435869,0,-1,-2,-1,-7,-9,-2,-3
1558441918452825,-1,-2,0,0,-2,1,-3,-4
1558441918452825,-2,-1,0,-4,-6,-1,-7,-4
1558441918458807,0,1,3,-1,-6,-5,-2,-4
1558441918458807,0,1,-5,4,8,9,4,0
1558441918467784,-1,-2,5,-4,-9,-10,-6,-2
1558441918467784,-3,-6,-8,0,-3,7,1,2
1558441918481746,2,1,0,-7,-1,-6,1,3
1558441918481746,0,-1,-7,2,0,-11,3,2
1558441918490724,3,1,15,13,17,14,8,3
1558441918490724,-2,-2,2,1,-7,-8,-7,-4
1558441918496708,0,-3,-1,2,-1,3,-2,-1
1558441918496708,0,0,-2,-3,2,2,1,-1
1558441918512664,-1,-1,-8,-7,-2,-5,-5,-1
1558441918512664,-1,0,4,-1,-6,7,-4,-4
1558441918518652,-3,-3,-2,-1,-8,-3,-3,-4
1558441918518652,2,0,-1,0,12,-5,6,6
1558441918527625,-2,-1,-2,-1,-2,2,-1,-2
1558441918527625,0,1,-2,-3,1,4,5,-1
1558441918550563,-3,-1,-1,6,2,7,-2,-3
1558441918550563,-7,-6,-5,-21,-28,-17,-12,-6
1558441918551567,0,-3,-7,-1,5,7,2,2
1558441918551567,2,2,2,-4,-1,-10,-2,0
1558441918563535,-1,0,0,2,5,9,5,-1
1558441918563535,-2,-2,3,3,-1,2,-1,-3
1558441918572539,0,1,2,2,4,12,5,0
1558441918572539,-3,-3,-3,-5,-4,-4,-4,-1
1558441918587521,1,2,6,7,4,6,0,-2
1558441918587521,-3,-1,0,2,4,4,-4,0
1558441918593514,-2,-1,1,1,-3,-15,-7,-1
1558441918593514,-1,-5,-14,-8,-3,-9,-2,0
1558441918601488,-2,1,0,-1,-1,2,1,-1
1558441918601488,-1,0,0,-1,-4,4,-1,-3
1558441918610403,2,2,4,1,2,7,2,0
1558441918610403,2,1,2,1,-2,-8,-3,0
1558441918624372,-1,-3,-6,-8,-1,-5,0,1
1558441918624372,-1,-3,0,-4,-6,-5,-8,-5
1558441918632345,-4,-5,-5,3,-5,-3,-3,-3
1558441918632345,-1,2,3,0,1,5,3,3
1558441918647303,1,1,-1,-2,-4,-1,2,0
1558441918647303,-2,-2,-3,1,-2,-1,-4,-3
1558441918654315,-1,0,0,-2,-3,-4,-5,-1
1558441918654315,0,-2,-1,-1,5,9,2,1
1558441918661269,-3,-1,-3,-9,0,-10,-5,-1
1558441918661269,3,5,1,2,1,-2,6,5
1558441918670241,-2,-5,-9,-4,-2,-3,1,-4
1558441918670241,0,-1,6,5,-2,-3,-1,-4
1558441918684431,-2,-4,-9,-1,-2,-5,-5,-3
1558441918684431,-1,-1,0,0,-1,0,-2,-1
1558441918693404,0,-3,-12,-19,-12,-4,0,2
1558441918693404,-1,1,6,6,3,-5,-8,-3
1558441918707180,-1,-1,1,1,2,-2,2,-1
1558441918707180,-2,-3,1,-1,-1,4,0,0
1558441918715231,1,2,2,4,4,4,3,0
1558441918715231,-2,-1,-1,-1,2,-4,0,0
1558441918721369,-2,-2,-1,-6,-5,5,0,0
1558441918721369,0,1,0,0,-3,-7,-1,2
1558441918730218,-1,0,1,1,-3,-1,-5,-6
1558441918730218,-4,-4,-3,-1,-2,0,-1,-1
1558441918744044,-1,-3,-4,0,-3,-6,-5,-3
1558441918744044,0,0,0,-2,4,3,-2,-1
1558441918753023,-3,-1,-1,0,0,-2,0,2
1558441918753023,1,2,0,4,3,0,6,0
1558441918766984,-2,3,5,3,0,-1,1,-1
1558441918766984,-2,-4,-6,-1,0,-1,-2,-4
1558441918775008,-1,0,9,6,1,-2,-3,-2
1558441918775008,0,-2,-9,-15,-6,-3,-3,-3
1558441918780948,1,1,0,4,-3,3,-3,0
1558441918780948,-1,2,7,10,3,3,2,1
1558441918790922,-4,-4,3,-3,-7,-4,-1,-2
1558441918790922,1,1,-4,-1,13,6,10,5
1558441918803887,1,-1,-2,-4,0,-8,1,2
1558441918803887,0,3,0,0,2,2,-6,-1
1558441918812861,0,0,-4,-6,-10,-6,-1,-2
1558441918812861,0,-5,1,0,-4,2,-5,-3
1558441918826874,-5,-7,1,1,0,4,-1,-4
1558441918826874,1,2,-7,-3,4,-8,6,1
1558441918834817,-1,-1,2,8,-3,-5,-5,-2
1558441918834817,-4,0,-2,-12,-10,-4,-8,-4
1558441918841786,-1,1,-4,-2,5,2,4,1
1558441918841786,-2,-3,3,2,-2,12,-1,-1
1558441918849761,2,0,-4,-5,2,-9,-5,2
1558441918849761,0,0,1,3,2,-5,3,-1
1558441918863723,-1,2,8,9,4,4,-3,0
1558441918863723,-3,-5,-2,-8,-10,-7,-4,-2
1558441918872701,-1,-2,-6,-4,4,-1,1,1
1558441918872701,-1,-1,0,3,-7,-4,-4,-1
1558441918886662,1,-2,-3,-5,3,9,0,2
1558441918886662,2,1,3,1,4,-9,0,-5
1558441918895639,-2,-3,-3,-5,-5,2,-3,-1
1558441918895639,-1,-1,-2,2,-4,-2,1,0
1558441918901628,1,-1,0,-2,-1,-14,-1,3
1558441918901628,-4,-5,-11,-7,-5,-1,-3,-2
1558441918910600,-1,0,3,1,1,4,3,-2
1558441918910600,-1,0,0,2,-1,3,-1,-2
1558441918923564,-2,0,1,0,1,-4,-6,-1
1558441918923564,1,0,2,-7,2,7,6,3
1558441918932559,-1,-1,-2,-5,-1,-8,-3,2
1558441918932559,-1,-3,-6,-3,8,7,4,1
1558441918946508,0,0,-1,9,-7,-1,0,-4
1558441918946508,-5,0,-3,-8,-5,4,-4,-5
1558441918955480,-1,-2,-2,-3,-3,4,3,2
1558441918955480,-4,-1,2,4,2,-13,-6,-3
1558441918970635,1,0,-1,-6,1,5,-1,-1
1558441918970635,0,-2,-2,4,2,-6,0,1
1558441918971554,1,2,1,0,0,2,4,0
1558441918971554,0,-3,-7,-4,-5,6,-4,-5
1558441918984521,-3,-4,-3,-3,-5,-8,0,-2
1558441918984521,-1,1,2,3,3,-2,-1,0
1558441918992576,-4,-3,-6,-4,-2,-2,-5,-3
1558441918992576,0,0,3,5,-1,-4,-1,2
1558441919006583,-1,-3,-5,-10,-3,-3,2,-2
1558441919006583,-2,-2,-5,-17,-10,0,-1,0
1558441919015440,-1,-2,4,8,4,11,4,0
1558441919015440,-2,-2,-8,-10,-6,-5,-4,-1
1558441919021524,2,0,2,11,7,-2,2,3
1558441919021524,1,-1,-1,3,1,-1,-1,2
1558441919030398,-3,-1,3,-1,-5,-12,-3,-1
1558441919030398,-1,0,5,3,-1,3,1,-4
1558441919053359,-3,-2,-4,-6,-1,8,0,-3
1558441919053359,3,5,6,5,11,5,7,2
1558441919059321,0,-1,-9,-2,-1,-2,-5,-1
1558441919059321,-2,-2,-3,-7,-2,-1,-1,0
1558441919066303,-2,-3,-5,-4,-9,-16,-10,-2
1558441919066303,0,-1,2,0,-10,-11,-2,-3
1558441919075284,-1,0,2,7,8,12,2,1
1558441919075284,-1,0,0,-2,0,-2,-2,-2
1558441919081269,-3,-1,-2,1,2,7,-3,-2
1558441919081269,-3,-5,-6,-9,-15,-13,-12,-7
1558441919090237,-3,3,10,7,7,12,5,2
1558441919090237,0,-7,-4,-4,6,-5,0,2
1558441919104199,-1,0,-3,0,-5,-5,-3,-1
1558441919104199,-2,1,3,5,3,2,5,3
1558441919113174,0,0,1,2,-1,-4,-6,-7
1558441919113174,-2,3,0,-9,-2,7,6,0
1558441919135117,-3,-2,1,3,5,8,2,-1
1558441919135117,0,-1,1,0,1,-7,-1,-1
1558441919137465,2,1,-8,-5,-5,-8,-2,0
1558441919137465,1,0,0,3,2,8,2,2
1558441919142176,-2,-3,-5,-6,-8,-5,-7,-2
1558441919142176,-1,-1,4,4,0,10,-3,-3
1558441919151076,1,-1,-3,-3,1,-3,-2,-1
1558441919151076,-1,-2,4,0,-8,-2,-2,-1
1558441919164384,-4,-3,-4,-3,-5,-3,1,1
1558441919164384,2,4,5,4,6,-2,7,4
1558441919173016,-2,-5,-1,1,0,-11,-4,0
1558441919173016,-2,-1,-4,-3,-6,-3,-4,-3
1558441919186329,0,1,2,0,1,3,-1,-1
1558441919186329,0,0,4,6,3,10,-5,-2
1558441919194956,-3,-4,-11,-8,-7,2,-2,-4
1558441919194956,0,0,-1,-1,-4,-14,-5,3
1558441919202044,0,-3,1,-1,-1,3,7,-1
1558441919202044,1,-1,2,8,9,3,4,0
1558441919210170,0,4,3,-7,0,5,5,1
1558441919210170,-1,-3,0,3,2,1,-1,-3
1558441919223883,-2,-1,0,-2,0,5,-3,-1
1558441919223883,1,-1,-5,-4,-3,1,0,-2
1558441919232855,-1,-2,-4,-5,-7,-2,0,-1
1558441919232855,-3,0,5,2,1,-4,-1,-1
1558441919245820,1,1,-1,0,3,1,-2,-1
1558441919245820,-3,-2,-6,-5,-8,-8,-7,-4
1558441919254796,-1,-1,1,4,2,4,0,0
1558441919254796,-1,-2,-5,-5,-4,-4,1,3
1558441919261777,0,1,3,3,0,0,7,3
1558441919261777,-1,-3,-4,-3,0,-3,-4,-2
1558441919269756,1,3,0,3,2,-4,0,0
1558441919269756,-1,-4,1,-6,-6,1,-6,-4
1558441919283719,-1,-1,-2,-1,1,1,-1,1
1558441919283719,-1,-4,-4,-5,-8,1,-2,-1
1558441919292695,-3,0,-1,-6,-5,-13,-4,0
1558441919292695,0,2,-2,5,10,5,5,-3
1558441919315010,-1,3,-2,1,-1,-5,-4,-1
1558441919315010,2,2,8,0,8,17,7,2
1558441919316686,-1,-5,-11,-3,-3,-7,-3,-1
1558441919316686,2,-2,2,2,0,-7,0,2
1558441919330968,-3,-3,-6,-6,-6,-4,-4,-4
1558441919330968,-2,-1,-2,0,-4,-8,-3,0
1558441919331592,-1,1,7,3,-3,1,-2,-4
1558441919331592,-2,1,-8,-5,-4,7,-3,-3
1558441919352910,-1,-4,4,6,9,-6,-3,-1
1558441919352910,-4,-2,-3,-7,-8,-15,0,1
1558441919354530,1,-3,7,1,6,-4,3,1
1558441919354530,1,1,1,6,-3,-5,-4,-2
1558441919366873,0,2,0,1,-2,3,3,0
1558441919366873,-4,-4,-6,-3,4,14,-4,-2
1558441919375475,0,-3,0,-3,-8,-1,-4,-4
1558441919375475,1,-1,-1,3,3,5,6,2
1558441919390719,3,2,7,-2,5,9,3,0
1558441919390719,-3,-4,-7,-2,-7,-19,-5,-1
1558441919392430,-4,-1,-5,-7,-4,1,-4,-8
1558441919392430,2,0,-2,0,3,3,-3,-1
1558441919404633,-1,1,0,-4,-1,8,3,0
1558441919404633,2,4,5,13,11,-1,2,0
1558441919413374,-2,-1,3,-3,-6,-11,-4,1
1558441919413374,-5,-2,-10,-10,-7,-5,-5,-3
1558441919426643,-1,-3,-2,3,-9,-11,-12,-5
1558441919426643,2,-1,-3,-4,1,4,-1,0
1558441919435325,0,-2,1,1,2,4,1,-1
1558441919435325,1,1,6,3,7,5,6,4
1558441919450479,0,1,-1,1,7,2,7,5
1558441919450479,-1,-3,-9,-7,-5,4,0,-1
1558441919451276,1,0,-1,0,1,6,-1,-2
1558441919451276,-5,-5,-6,-7,-6,-5,-9,-3
1558441919464236,-2,-1,2,-2,-12,-17,-7,-4
1558441919464236,-2,-1,-3,-3,5,13,3,0
1558441919473214,-1,2,-2,-4,1,1,0,-1
1558441919473214,0,-3,1,4,-5,-2,0,-2
1558441919486188,-1,-8,-6,-1,2,-6,5,0
1558441919486188,-3,0,1,-1,-7,-8,-5,-2
1558441919495154,-2,-1,-2,2,2,7,-1,-2
1558441919495154,0,2,6,2,4,8,4,1
1558441919518400,-2,0,-3,-4,-5,-13,-6,-2
1558441919518400,-2,-2,-2,-2,-5,-5,-5,-2
1558441919519090,-2,-2,-3,-2,-5,-7,0,0
1558441919519090,0,0,0,-4,6,4,6,2
1558441919524415,-4,-1,2,2,2,0,-4,-2
1558441919524415,2,2,4,-6,1,2,4,1
1558441919533053,-1,-3,-10,-5,2,-12,0,2
1558441919533053,-3,-2,-3,1,-5,-2,-2,-2
1558441919555308,-1,2,0,-3,-2,8,-1,-2
1558441919555308,-3,-4,-2,-1,-4,-7,-7,-5
1558441919557330,-2,-3,-1,-3,-7,3,-4,-4
1558441919557330,0,0,4,4,0,-13,6,1
1558441919570280,2,4,-2,-2,3,8,-1,1
1558441919570280,-1,-1,7,7,4,0,-4,-2
1558441919571948,1,0,1,1,3,-2,1,1
1558441919571948,-2,-4,-7,-1,-4,5,-4,-3
1558441919584179,-3,-2,-1,0,-3,5,-6,-2
1558441919584179,-2,-3,-5,-6,-9,-13,0,-3
1558441919592894,2,2,-1,-1,-1,-6,-1,1
1558441919592894,-1,3,6,3,5,5,2,0
1558441919606856,0,1,4,5,4,0,2,-2
1558441919606856,-2,-2,-10,-5,-2,8,1,1
1558441919615832,1,-2,3,3,1,3,3,1
1558441919615832,-3,-1,-2,-2,-10,-10,-11,-7
1558441919630793,-2,-3,-3,-5,-5,-13,-1,1
1558441919630793,-1,-3,7,4,-4,5,2,-3
1558441919631791,-2,-2,-5,-4,1,-6,-4,1
1558441919631791,-1,0,-5,-2,8,9,3,1
1558441919643918,-2,-2,-6,-5,-7,0,-1,0
1558441919643918,2,3,0,-2,-4,-10,-1,-1
1558441919652736,-1,-1,-1,-2,-7,0,-3,-3
1558441919652736,-4,-2,4,2,-2,1,-10,-4
1558441919667011,1,0,-4,-7,2,8,7,2
1558441919667011,0,-2,-8,-4,2,-10,3,0
1558441919675670,-3,0,9,11,4,2,0,-2
1558441919675670,-1,-3,-8,-7,-9,-5,-2,-4
1558441919690631,2,0,5,2,8,10,6,2
1558441919690631,0,1,2,1,5,1,-3,0
1558441919691636,-1,-2,-8,-7,2,7,2,2
1558441919691636,-1,-1,-1,3,-4,-7,-4,-3
1558441919703596,-4,-3,-3,-1,-9,-7,-7,-6
1558441919703596,-3,-1,-1,-3,-4,-2,-5,-3
1558441919712571,3,4,4,4,14,10,9,6
1558441919712571,0,-1,1,-3,-2,-4,0,3
1558441919726842,1,-2,-2,-3,-4,-3,-2,-2
1558441919726842,-2,-3,-6,-3,-3,0,-9,-6
1558441919735511,-4,-3,-4,-5,-10,3,-6,-6
1558441919735511,0,-1,1,0,-1,-1,1,0
1558441919750798,0,0,-3,-3,0,-15,4,1
1558441919750798,0,1,1,2,6,4,3,2
1558441919751468,-3,-4,2,1,-3,-9,-6,-5
1558441919751468,0,0,-3,-11,-2,1,-1,0
1558441919764598,-3,0,-2,-1,-3,-2,-7,0
1558441919764598,-3,-4,4,1,-3,-1,1,-2
1558441919773616,-1,-2,-9,-5,-1,3,0,-2
1558441919773616,-3,-4,-9,-4,-3,-7,-4,-3
1558441919786607,-1,-1,0,5,5,1,-4,-2
1558441919786607,1,4,1,-5,3,1,6,6
1558441919795522,-2,-4,-5,0,0,-4,-3,-5
1558441919795522,1,-2,2,1,-7,-12,-1,-2
1558441919810531,-3,-2,-5,-2,-2,7,-4,-5
1558441919810531,-1,0,0,3,0,0,-6,0
1558441919811479,0,0,-1,0,-1,-2,0,0
1558441919811479,1,1,-5,-2,5,5,3,4
1558441919824593,1,2,4,2,-4,-6,2,1
1558441919824593,-1,-1,-4,-7,-5,3,0,-2
1558441919832609,-2,0,-1,-2,0,-4,-1,3
1558441919832609,-5,-6,-3,-10,-8,-11,-6,-3
1558441919846393,-1,-1,-1,1,1,2,0,-2
1558441919846393,-2,-2,2,-1,-6,5,-2,-1
1558441919855365,0,-3,0,2,-2,-15,-6,0
1558441919855365,-1,0,1,0,3,1,-5,-1
1558441919870322,0,-1,0,-3,-7,-1,6,2
1558441919870322,-2,-4,-10,0,0,-4,-2,-3
1558441919871322,-3,-2,-3,-7,-3,0,3,-3
1558441919871322,-1,0,7,5,9,8,4,1
1558441919884487,-1,-1,2,-2,5,11,3,-1
1558441919884487,-1,0,-3,6,1,-11,-2,0
1558441919893275,2,1,3,1,1,-5,0,4
1558441919893275,-1,-3,-7,-1,-11,-15,-11,-9
1558441919906266,1,-1,-5,-11,-2,4,1,1
1558441919906266,2,3,5,1,6,10,3,1
1558441919915201,0,-5,1,-2,-2,2,-2,2
1558441919915201,-1,1,4,5,4,3,2,-1
1558441919930159,-2,-3,-6,-1,-10,-6,-9,-5
1558441919930159,-4,-3,-1,-2,-8,-10,-6,-3
1558441919931156,1,2,1,-3,-2,0,1,0
1558441919931156,1,-1,1,-2,-2,4,2,1
1558441919944129,-1,-2,-6,3,3,1,1,-2
1558441919944129,2,-1,4,6,6,-3,3,3
1558441919953098,0,2,-3,0,3,2,-3,-3
1558441919953098,-3,-3,-2,-2,5,6,6,1
1558441919967180,-2,-1,-4,-2,-5,-7,-12,-4
1558441919967180,1,1,2,-4,-7,3,8,0
1558441919975334,-4,-1,0,4,1,10,3,-4
1558441919975334,-1,-1,-5,-8,-9,0,-2,0
1558441919991016,0,-1,3,-1,6,-8,6,3
1558441919991016,-1,-3,1,-2,-5,-7,-7,-5
1558441919992368,2,-1,-3,-1,9,15,2,1
1558441919992368,-1,-2,0,-2,-6,-5,-4,-1
1558441920003961,0,-2,-1,1,0,5,4,1
1558441920003961,-2,0,-3,-6,-8,-11,-7,-7
1558441920019922,-1,1,1,-1,-3,-2,-6,-3
1558441920019922,0,2,1,5,6,4,0,-1
1558441920025904,-1,-3,7,4,-1,-14,0,0
1558441920025904,-1,-4,-14,-11,0,6,-2,1
1558441920035019,-1,-1,-2,-2,-3,-5,0,-3
1558441920035019,-2,-1,-4,-2,-3,-3,0,-3
1558441920058161,-3,-4,-3,-2,-3,1,1,-3
1558441920058161,0,0,4,0,0,10,-2,-2
1558441920059869,-1,-2,-3,-1,0,7,0,1
1558441920059869,2,0,1,1,0,-7,6,4
1558441920064143,-1,-1,-2,-4,1,-5,-4,0
1558441920064143,-1,-1,3,6,1,6,2,-2
1558441920073160,-1,0,-5,-5,-9,-17,-7,-3
1558441920073160,3,2,-1,1,3,6,8,3
1558441920086404,2,-2,-2,0,1,4,-4,-1
1558441920086404,-3,-2,2,-7,0,-1,-3,-2
1558441920095102,-3,-2,-1,9,-6,-4,-3,-2
1558441920095102,-2,-1,0,-5,-2,0,0,-1
1558441920110081,0,1,-1,2,2,3,-2,0
1558441920110081,2,0,1,3,6,4,4,2
1558441920116301,1,0,3,-3,-2,0,1,-1
1558441920116301,-4,-3,-2,2,-4,-6,-5,-1
1558441920124026,-1,0,3,-2,-3,-5,0,-2
1558441920124026,0,-4,-10,-2,-7,-20,-4,-2
1558441920133002,3,1,0,-3,8,2,5,3
1558441920133002,-3,-2,-1,0,-6,6,-6,-6
1558441920145967,2,2,2,1,1,3,-1,-1
1558441920145967,-1,1,-3,-3,-3,-7,-1,0
1558441920154941,-1,0,5,0,1,1,4,0
1558441920154941,2,-3,-1,0,0,3,-5,-2
1558441920169902,-1,-1,-3,1,4,6,7,4
1558441920169902,-2,0,1,2,2,1,-3,0
1558441920176115,-2,-5,-5,-2,-6,-1,-2,0
1558441920176115,0,0,1,-4,4,5,2,3
1558441920184111,-2,-3,-4,-6,-10,-11,-8,-4
1558441920184111,0,0,1,0,4,3,6,1
1558441920192844,-4,-5,-1,0,-9,-5,-8,-4
1558441920192844,-2,1,-2,-4,-2,4,2,0
1558441920207033,-1,0,-3,-3,-1,-4,3,0
1558441920207033,-2,-4,-9,-1,-4,-1,-4,-1
1558441920215024,-2,-2,3,-7,10,11,2,-2
1558441920215024,3,1,-3,1,-2,-5,3,1
1558441920229968,-1,-3,-4,-7,-4,0,-6,0
1558441920229968,1,7,9,4,-3,-4,1,0
1558441920236962,-4,-4,-7,4,1,9,1,-2
1558441920236962,-4,-2,0,-3,-7,-4,-1,-5
1558441920252930,-1,0,2,2,6,3,4,5
1558441920252930,1,0,1,2,1,-1,-1,-4
1558441920253681,-2,-3,-7,-8,-8,-10,-7,-4
1558441920253681,-2,-1,-3,1,3,-1,0,1
1558441920266880,1,-1,-2,-2,-3,-6,0,-3
1558441920266880,-3,-2,-2,-4,-2,6,-5,-3
1558441920275622,-4,-4,-3,-4,-7,-3,-5,-3
1558441920275622,-2,-5,2,5,4,-5,1,-1
1558441920289818,1,-1,0,-1,3,4,1,1
1558441920289818,2,0,2,1,9,8,4,3
1558441920296563,-3,-2,-2,0,-4,-3,-1,0
1558441920296563,-1,3,4,3,-4,-6,-5,-1
1558441920312553,-1,-2,-5,-2,-3,-4,-4,-3
1558441920312553,-1,-4,1,6,7,-2,1,-1
1558441920314515,1,1,2,-5,-4,-6,-2,1
1558441920314515,-2,-4,-4,-5,-7,-1,-5,-4
1558441920326483,-1,0,0,-7,-7,-2,0,-2
1558441920326483,-2,-2,-2,1,6,4,3,0
1558441920335458,2,4,3,3,7,-11,2,0
1558441920335458,0,-4,-1,2,4,-1,-3,1
1558441920349423,-5,-1,-4,-1,-8,-1,-9,-7
1558441920349423,-5,-8,-7,-13,-10,-10,-12,-5
1558441920356404,4,4,1,1,3,8,9,4
1558441920356404,-1,5,5,-2,-1,-2,6,2
1558441920372359,-1,0,9,9,5,6,4,1
1558441920372359,-3,-6,-9,-7,-4,5,-1,-3
1558441920374353,0,-3,0,3,1,7,4,1
1558441920374353,6,5,1,2,4,-6,-1,3
1558441920386331,-4,-4,-6,-2,-3,5,1,-3
1558441920386331,0,1,8,3,-2,-5,-1,1
1558441920395299,-2,0,-3,0,-5,-5,-2,-1
1558441920395299,-3,-5,-3,-5,-7,-5,-3,-2
1558441920410515,0,3,0,2,5,1,2,2
1558441920410515,-1,1,-2,-7,-3,-1,-2,-1
1558441920416596,-1,-1,-1,3,-2,0,-2,-1
1558441920416596,0,-4,-2,-3,-3,5,-5,-2
1558441920433523,-4,-7,-2,-3,-3,3,-2,-3
1558441920433523,3,0,-1,5,2,-7,3,2
1558441920434196,0,0,2,2,4,-2,-1,-1
1558441920434196,-1,0,-4,-5,-7,-5,-2,-3
1558441920446567,-1,-3,-6,-6,-6,-12,-6,-4
1558441920446567,-1,-1,1,4,5,11,4,1
1558441920455424,0,-2,-3,-2,-3,-6,-3,-2
1558441920455424,-2,-1,-2,1,0,-3,-8,-3
1558441920470330,1,0,0,0,7,17,6,1
1558441920470330,0,-1,0,-2,-4,-5,0,-2
1558441920476370,0,-2,-1,-4,-3,-7,-7,-1
1558441920476370,1,3,0,-1,-3,-17,1,0
1558441920493271,-2,1,4,6,2,2,-1,1
1558441920493271,-2,-1,-5,-7,-3,-2,2,-2
1558441920494036,-2,-3,-6,-17,-7,4,-3,-5
1558441920494036,-2,-5,-5,1,2,10,3,-1
1558441920507062,0,-1,-5,-5,-7,-14,-8,-3
1558441920507062,-4,1,6,12,-2,2,0,1
1558441920515197,-2,1,-2,-4,1,-5,1,0
1558441920515197,-1,-2,-2,-3,2,7,3,-2
1558441920529941,0,-1,2,0,-5,-8,-5,0
1558441920529941,-3,-3,-6,-3,-3,4,0,-3
1558441920543902,2,1,5,6,4,1,4,2
1558441920543902,-1,0,-1,0,2,-2,3,1
1558441920552877,-3,0,-1,1,-2,-13,-2,1
1558441920552877,0,1,0,-9,-2,-1,1,1
1558441920553874,-2,1,-6,-5,-4,-3,-1,-3
1558441920553874,-5,-7,-2,-4,-2,7,-1,-5
1558441920565885,1,-3,-1,-2,-8,-3,-4,-2
1558441920565885,1,2,0,0,-4,0,-4,-2
1558441920574819,-1,-2,-5,1,-2,-1,-3,-2
1558441920574819,5,4,0,-2,6,-5,0,3
1558441920590128,-1,-2,0,3,-1,-4,-2,-2
1558441920590128,-1,-3,9,5,8,12,8,2
1558441920597086,-1,-1,-6,-1,-2,-6,-1,-1
1558441920597086,-5,-3,-5,-4,-4,1,-5,-3
1558441920613143,-2,1,1,-2,2,3,3,1
1558441920613143,-2,-3,-5,-6,-9,-9,-7,-4
1558441920614180,1,-3,4,4,-2,7,-2,-4
1558441920614180,0,-1,-2,-4,-8,-16,-5,-1
1558441920627111,0,2,1,7,9,2,5,2
1558441920627111,1,1,-4,-5,2,-4,4,0
1558441920635126,-1,-2,3,2,5,7,2,0
1558441920635126,-1,2,1,1,-1,9,2,1
1558441920650483,0,-3,-4,-3,-8,-4,-7,-4
1558441920650483,-5,-3,-6,-4,-5,-10,-6,-1
1558441920657201,-1,2,3,6,6,9,4,1
1558441920657201,0,-2,-1,-1,-1,-4,-6,-4
1558441920673344,-1,0,0,-1,3,3,5,2
1558441920673344,2,0,-1,3,1,-14,1,2
1558441920675009,-2,0,-1,-5,-4,-6,-3,-1
1558441920675009,-2,0,-1,-3,2,6,2,0
1558441920685953,-2,-3,-3,-7,-5,2,0,-2
1558441920685953,-1,-2,-2,-1,-3,-10,-8,-2
1558441920694927,-1,0,-2,0,-4,2,-2,0
1558441920694927,-1,-2,2,4,4,1,0,-2
1558441920710280,0,0,-4,-5,3,-10,-3,0
1558441920710280,1,2,-1,0,1,4,2,1
1558441920717066,-3,-6,1,-5,-4,-6,-6,-3
1558441920717066,-2,-2,-1,0,5,11,2,0
1558441920732852,1,0,3,1,1,5,-2,-2
1558441920732852,-1,-2,-3,2,-4,2,-2,-2
1558441920733823,-3,-2,-5,-6,-7,-9,-4,-2
1558441920733823,1,-1,1,3,-6,-12,-2,0
1558441920747233,-1,-2,-3,-2,2,0,1,0
1558441920747233,-4,-2,0,0,0,3,2,-2
1558441920754766,1,2,3,4,8,10,8,2
1558441920754766,-3,-3,2,-1,-1,1,-3,-4
1558441920770183,-2,-1,-4,-4,-6,-4,-5,-2
1558441920770183,1,0,-2,0,-1,-3,-3,-1
1558441920777214,0,0,-3,-1,-1,-5,1,-1
1558441920777214,0,-3,0,-1,-2,-4,-2,-1
1558441920793040,-1,-2,-1,-4,-1,-2,-3,-4
1558441920793040,-1,-1,2,2,1,7,0,0
1558441920793664,-2,-3,-2,-3,-4,0,0,-1
1558441920793664,-2,0,-1,-1,-1,-1,-1,-3
1558441920807003,2,0,5,3,3,-4,1,1
1558441920807003,0,-4,-7,-4,-6,-1,-3,0
1558441920815606,-1,-1,3,0,-2,0,-4,1
1558441920815606,-4,-3,-7,-4,4,-1,2,0
1558441920830710,-2,-2,1,-1,-5,-8,1,1
1558441920830710,0,2,-2,-1,0,2,0,-3
1558441920836924,-2,-1,2,0,-2,-6,-2,-2
1558441920836924,-4,-2,-3,0,-5,1,-6,-2
1558441920852841,0,1,0,-3,6,14,4,1
1558441920852841,0,1,0,0,0,3,1,1
1558441920854504,1,-4,-6,-7,-7,-13,0,1
1558441920854504,1,-1,3,11,5,-4,1,0
1558441920866736,-4,-2,-6,-17,-9,-7,-5,-4
1558441920866736,-1,0,1,2,4,7,-1,-2
1558441920875449,-1,6,6,2,5,7,-1,-4
1558441920875449,-2,-5,-13,-4,-7,-6,-2,0
1558441920888414,-2,-2,-5,3,-2,2,-1,0
1558441920888414,-1,-1,-2,-6,-8,-13,-3,-2
1558441920897385,0,-1,1,-1,3,0,2,-1
1558441920897385,2,2,7,1,6,10,7,2
1558441920912348,-2,-2,-1,2,1,1,-4,-3
1558441920912348,-4,-4,-3,-4,-9,2,-5,-4
1558441920914341,0,-1,1,4,1,-11,-4,1
1558441920914341,1,1,-1,-8,-8,-7,-4,-3
1558441920926347,2,0,-2,5,7,9,8,1
1558441920926347,3,3,4,-5,-1,-17,-1,1
1558441920935284,-2,-3,-9,-1,-3,5,-5,-3
1558441920935284,-2,-1,-3,-4,-7,-1,-6,-3
1558441920949281,-3,-2,2,6,-3,-9,-3,-1
1558441920949281,-2,-2,-3,-1,5,2,-3,-2
1558441920958223,-2,-2,-3,0,-3,-9,1,0
1558441920958223,1,-1,-2,-6,0,7,0,-2
1558441920972185,-1,1,3,5,-2,7,-1,-3
1558441920972185,-4,-2,-5,-4,-4,-1,-2,-2
1558441920974180,1,1,2,-1,1,-5,-3,-1
1558441920974180,0,-2,-3,5,-3,-4,3,0
1558441920986150,1,-3,6,-1,-3,-2,-3,0
1558441920986150,1,-4,-15,1,5,8,4,0
1558441920995126,-2,-1,-2,-6,0,11,2,-2
1558441920995126,-2,0,-5,-8,-8,-3,-3,-2
1558441921009099,1,1,2,5,3,-2,0,0
1558441921009099,0,-1,4,3,2,-11,-3,0
1558441921025044,1,0,3,7,5,12,4,1
1558441921025044,0,-2,-4,-7,1,5,-1,0
1558441921032086,-2,-2,-3,-3,-5,-1,-6,-3
1558441921032086,-1,-1,0,-4,1,5,3,0
1558441921039042,0,-1,0,1,-6,-12,-1,3
1558441921039042,0,1,11,-3,-5,-6,-6,-2
1558441921046021,-3,-4,-26,-11,-5,-3,1,-2
1558441921046021,1,2,2,-1,4,7,7,5
1558441921054963,-1,2,0,4,1,-8,-2,-3
1558441921054963,-4,-2,1,5,-3,3,0,-5
1558441921068961,-4,-2,0,-5,-9,-9,-12,-6
1558441921068961,6,6,9,5,16,-1,8,6
1558441921077906,-2,-3,-8,2,-6,-8,0,0
1558441921077906,-2,-6,-7,-1,-1,-5,-5,-1
1558441921091864,-1,2,5,-1,5,9,2,-1
1558441921091864,-4,-3,-3,-2,-12,-6,-8,-4
1558441921098880,1,2,4,-2,3,8,-2,2
1558441921098880,2,-1,-3,-1,0,-3,-2,-3
1558441921105830,-2,-2,0,-3,-5,2,-2,-1
1558441921105830,3,2,10,6,2,1,-4,-4
1558441921114805,1,0,-14,-16,1,10,1,-1
1558441921114805,-1,-2,3,2,0,-6,3,1
1558441921128765,3,5,3,5,6,-5,5,3
1558441921128765,-3,-4,0,5,-4,-6,-1,1
1558441921137741,-3,-3,-3,-3,-8,-4,-7,-1
1558441921137741,1,0,1,1,1,11,0,0
1558441921160681,2,1,4,3,10,8,6,2
1558441921160681,-1,-1,-4,-3,-2,-3,-2,-4
1558441921161680,-4,-3,0,0,-5,-8,-4,-5
1558441921161680,-2,1,4,-3,-4,-3,-5,-1
1558441921182629,-4,-4,-10,-2,-4,-2,-7,-2
1558441921182629,1,1,1,-1,5,13,7,2
1558441921183621,-2,-4,3,3,1,-1,-1,-2
1558441921183621,0,-1,-6,0,-1,0,2,-1
1558441921188641,0,0,0,-8,-1,-5,-2,-1
1558441921188641,-4,-4,-3,-5,-4,-1,-5,-2
1558441921197582,3,4,3,8,3,4,6,2
1558441921197582,-1,-1,-2,1,3,-3,-3,0
1558441921211549,-4,-4,3,4,-1,5,5,-1
1558441921211549,-2,-1,-10,-10,-9,-14,-8,-3
1558441921218527,0,0,5,-2,-1,1,1,-2
1558441921218527,1,0,-2,-3,1,-12,-1,-1
1558441921235482,2,-2,-4,-6,-7,0,-2,1
1558441921235482,-4,0,1,-3,-5,-2,-2,-2
1558441921236480,-4,-3,-3,0,-1,-4,-2,-1
1558441921236480,-2,0,-2,-8,-1,2,1,0
1558441921248480,-1,0,-1,-2,-3,-1,-1,-2
1558441921248480,0,-1,4,1,3,6,2,2
1558441921257421,-2,-3,-4,-1,-7,-6,-4,0
1558441921257421,-1,1,1,-5,-3,5,2,-2
1558441921272381,-2,-4,4,8,2,-4,-5,-3
1558441921272381,-2,-2,-8,-5,-6,-2,-4,-2
1558441921278367,2,0,3,-2,8,-3,4,4
1558441921278367,1,2,3,9,8,4,2,2
1558441921295322,-2,-1,-5,-12,-7,-8,-9,-2
1558441921295322,-2,-4,-4,4,-1,-3,1,-1
1558441921296320,-2,-3,-1,-4,-9,-2,-7,-2
1558441921296320,-4,-2,-5,-10,-6,-6,-6,-3
1558441921309284,2,4,5,3,3,5,1,0
1558441921309284,-2,-2,1,1,1,-11,-2,0
1558441921317262,1,1,1,1,2,4,-1,2
1558441921317262,1,1,1,3,-3,0,-2,-2
1558441921332222,-3,-8,-7,-5,-6,2,2,-3
1558441921332222,0,2,3,5,5,7,4,-1
1558441921346185,-1,-5,-7,-8,-4,-5,0,-1
1558441921346185,1,-3,-1,4,6,9,3,2
1558441921355162,-3,0,-3,-3,-6,-6,-4,-3
1558441921355162,1,1,-1,-2,-3,5,-2,-2
1558441921356158,-1,0,3,4,1,-6,1,-2
1558441921356158,1,2,3,2,6,-2,6,7
1558441921369123,-2,-2,-2,2,0,-4,0,-3
1558441921369123,-3,-3,-8,-4,-3,4,-6,-3
1558441921378100,-2,-3,-3,-4,-2,7,-2,-3
1558441921378100,0,1,-1,2,4,-1,3,3
1558441921392063,-2,1,5,2,1,-7,-2,0
1558441921392063,-2,-3,0,-1,-6,-6,-6,-5
1558441921399078,0,1,3,1,4,-2,2,1
1558441921399078,-2,-2,-3,4,-1,1,2,-3
1558441921415002,2,1,-2,-5,4,1,2,0
1558441921415002,-1,-6,-2,-2,-4,-1,-1,-3
1558441921416996,0,1,-5,-8,-5,-3,-7,-5
1558441921416996,-5,-3,-1,0,0,4,0,-1
1558441921428963,-1,3,0,2,1,-5,-3,2
1558441921428963,0,1,-2,-1,-4,-9,-4,0
1558441921437939,-5,-6,-5,-3,-2,7,-1,0
1558441921437939,-3,-1,1,-1,-3,-3,-4,-3
1558441921451900,2,0,-1,2,6,6,8,2
1558441921451900,-1,0,5,-1,-1,-2,0,-1
1558441921458882,1,5,4,1,1,-8,2,0
1558441921458882,-3,-7,-5,0,-4,-11,-6,-4
1558441921474874,-2,-4,-10,-7,-3,5,-6,-1
1558441921474874,3,1,3,-3,4,1,1,2
1558441921476836,-1,-1,-5,3,0,-3,1,0
1558441921476836,0,-1,-1,0,1,6,2,1
1558441921488851,2,4,9,9,1,-1,-1,-2
1558441921488851,-5,-5,-9,-4,-4,-2,-4,-3
1558441921497778,0,1,1,1,8,7,-1,0
1558441921497778,-2,1,-3,-4,-7,-11,-4,-3
1558441921511743,-3,-4,-4,-2,-6,-2,-1,-3
1558441921511743,-1,0,-3,-1,1,11,3,-1
1558441921518757,1,-1,4,4,1,-1,3,-1
1558441921518757,0,-4,-6,-9,-7,0,-6,-5
1558441921534715,0,-1,3,5,4,-6,1,1
1558441921534715,2,2,1,10,7,1,2,1
1558441921536713,-4,-3,-7,-9,-3,-8,-5,-1
1558441921536713,-1,0,-1,-8,-7,-6,-3,-2
1558441921548643,-3,-4,-3,-4,-7,-4,-5,-2
1558441921548643,-1,0,3,-5,2,9,7,1
1558441921557618,1,3,2,8,1,3,3,0
1558441921557618,-2,-4,1,0,4,5,0,-3
1558441921571581,-4,-6,-10,-4,-9,-10,-9,-6
1558441921571581,2,1,-2,-7,-7,-15,-6,-1
1558441921578563,2,0,1,-2,4,7,2,2
1558441921578563,0,0,2,3,3,3,6,3
1558441921595520,2,2,3,9,7,5,6,3
1558441921595520,-2,1,-3,-6,-2,-4,-5,-2
1558441921596515,0,-1,0,2,-5,-5,-6,-3
1558441921596515,-1,-2,-2,-1,-5,-8,-6,-2
1558441921608482,0,1,8,5,12,5,8,2
1558441921608482,-4,-4,-2,-10,-12,-3,-4,-3
1558441921617458,-2,-4,-3,-6,-8,-1,-6,-2
1558441921617458,0,-6,-5,-3,-1,7,4,0
1558441921632418,-1,1,0,-1,2,-4,3,2
1558441921632418,-1,2,-1,4,3,-3,2,0
1558441921638404,-3,0,-1,1,2,1,-1,0
1558441921638404,0,1,-2,-6,0,-4,-4,0
1558441921662340,-3,-3,-6,-5,-4,-8,-4,-1
1558441921662340,-3,-3,-2,-1,-6,-1,-1,-2
1558441921664333,1,0,6,4,3,7,4,0
1558441921664333,-1,-2,-5,-2,6,3,2,-2
1558441921668333,-3,-1,-7,-9,-9,5,-2,-2
1558441921668333,1,-2,0,2,0,-15,-3,-2
1558441921677300,1,3,0,0,-1,-3,-5,-1
1558441921677300,-4,1,3,4,-6,-9,-4,-3
1558441921692261,1,1,-1,-5,6,11,7,5
1558441921692261,-2,-5,-1,1,-6,-9,-5,-2
1558441921699241,-3,-4,-6,-6,-5,-2,-1,-3
1558441921699241,1,0,0,2,5,5,1,-1
1558441921715232,1,0,0,1,1,4,-2,-1
1558441921715232,-1,1,0,2,2,0,-2,-3
1558441921716225,-4,-5,-7,-2,-5,-8,-4,-3
1558441921716225,2,-1,-1,-13,0,-6,-4,3
1558441921729162,-2,-2,5,5,-3,-2,0,1
1558441921729162,-1,-1,-11,-11,0,7,4,2
1558441921738137,-4,-5,0,0,-2,-2,-4,-6
1558441921738137,-1,2,-4,1,-2,7,-1,-2
1558441921752100,1,4,7,2,3,-6,-2,1
1558441921752100,-2,-11,-5,-4,-2,-7,3,-1
1558441921759471,0,-1,-2,-2,3,10,6,2
1558441921759471,-1,0,4,5,0,-3,-2,0
1558441921775395,-5,0,-2,-1,2,1,-4,-6
1558441921775395,-2,0,2,-1,-6,3,-6,-3
1558441921776036,2,-3,-1,-6,-2,-9,0,1
1558441921776036,0,1,1,-1,-2,-5,3,3
1558441921789228,0,-2,-2,-2,-3,6,-2,-1
1558441921789228,-1,0,2,-1,-1,-6,-2,1
1558441921797979,-1,-1,-3,1,-5,-1,-4,-5
1558441921797979,0,-3,-1,4,5,3,-1,0
1558441921811945,-2,-5,-4,-4,-7,-12,-1,0
1558441921811945,-1,1,-1,2,5,17,3,2
1558441921818977,0,2,1,-3,0,-7,-1,3
1558441921818977,0,0,1,4,0,-8,-2,-3
1558441921842858,0,-1,-6,-2,-4,-9,1,-3
1558441921842858,0,-2,6,5,3,5,0,-2
1558441921843853,-4,-3,-4,-7,-9,-2,-4,-2
1558441921843853,-4,-2,-5,-2,-5,3,-4,-5
1558441921848841,0,-2,0,1,-2,-6,0,1
1558441921848841,0,1,0,-1,4,1,2,2
1558441921857817,-1,0,0,4,4,2,3,1
1558441921857817,-1,-1,1,3,2,3,3,-1
1558441921871778,1,0,0,-9,0,6,1,-2
1558441921871778,-4,-3,-7,-5,-10,-6,-8,-6
1558441921878770,-5,-10,-3,0,-1,2,-5,-2
1558441921878770,-1,0,5,-2,-2,2,-1,-1
1558441921894717,0,-4,-9,-3,-7,-9,-2,-1
1558441921894717,3,4,2,5,7,2,1,0
1558441921896738,0,3,2,-2,-2,-8,-2,1
1558441921896738,-1,-2,-7,-5,-2,-2,-1,-1
1558441921908681,-2,2,3,6,6,3,-2,-1
1558441921908681,-3,-2,-5,-9,-7,1,-3,-3
1558441921917656,0,0,-3,-1,-3,-6,1,-1
1558441921917656,-1,-2,-3,1,-6,-6,-5,-2
1558441921931631,0,0,-2,-3,-7,-5,-5,-3
1558441921931631,4,2,0,-4,11,1,15,6
1558441921938658,-1,-2,-2,-5,5,9,2,-3
1558441921938658,-3,1,4,1,-3,1,0,-3
1558441921954557,-1,-2,1,-2,-4,-8,-5,-1
1558441921954557,-4,-3,-6,2,-6,-1,-11,-4
1558441921961539,-1,0,0,1,3,-4,3,2
1558441921961539,2,2,1,-1,6,-6,7,7
1558441921968519,-4,1,4,1,5,9,-1,-3
1558441921968519,2,0,-3,3,0,5,-2,-2
1558441921977496,2,1,-2,-5,-9,-3,-6,-5
1558441921977496,-2,-4,-7,-7,-8,-7,-3,-3
1558441921991458,-4,-5,6,3,3,-2,2,2
1558441921991458,0,-3,-2,-1,2,1,1,1
1558441921998439,-2,-2,-7,-4,2,3,-4,0
1558441921998439,-1,1,10,9,1,1,-3,-1
1558441922014398,-1,-2,-14,-12,-10,-4,-6,-3
1558441922014398,-2,0,8,6,5,0,5,2
1558441922021377,-1,-1,-1,0,-1,4,3,-2
1558441922021377,2,-2,2,0,1,9,1,-2
1558441922028360,2,1,-1,2,4,-5,-2,0
1558441922028360,-1,0,-3,-3,-12,-12,-7,-3
1558441922037397,0,0,1,1,5,7,4,2
1558441922037397,0,0,-4,-1,5,-2,4,2
1558441922052469,-4,-1,-1,-4,-9,-2,-1,-2
1558441922052469,-3,-2,-4,-3,-4,2,-5,0
1558441922059277,1,2,3,2,-1,2,-2,-5
1558441922059277,-2,-1,2,-1,-5,-5,-7,-4
1558441922074238,-1,-3,-5,-8,2,10,6,3
1558441922074238,-3,-1,-6,-6,-5,-13,-5,-4
1558441922081249,1,-5,1,4,4,8,4,2
1558441922081249,-4,-3,-1,3,-1,-7,-4,1
1558441922088226,-1,0,2,2,-3,-3,-3,-3
1558441922088226,-4,0,3,-1,4,15,3,-1
1558441922097221,0,-2,-2,-1,-7,-12,-4,-2
1558441922097221,1,3,3,-3,3,3,3,1
1558441922112137,-1,-3,-3,-2,-5,-5,-5,-1
1558441922112137,-3,-4,-3,-2,-8,-7,-4,-5
1558441922119117,-3,1,-2,-5,0,1,0,2
1558441922119117,-3,-1,-3,-4,1,4,1,-3
1558441922134078,0,2,4,3,6,8,4,2
1558441922134078,-1,-2,-2,0,-3,-3,-2,-1
1558441922141058,-2,0,-2,-1,0,-2,-1,0
1558441922141058,-2,-2,-3,0,-2,-10,-6,-1
1558441922164993,-1,0,-1,-1,-5,-6,-1,1
1558441922164993,-1,-3,4,3,3,3,0,-4
1558441922166989,-4,-1,1,3,-3,-2,2,-2
1558441922166989,1,-1,-9,-4,-4,-3,-3,0
1558441922172010,-3,-2,-5,-5,-1,3,-3,-2
1558441922172010,1,1,2,4,4,-2,5,3
1558441922178958,1,1,3,2,-2,-10,-5,-2
1558441922178958,-2,-4,-2,-7,-8,-3,-5,-5
1558441922194915,-1,-2,-2,3,-1,-5,-3,-1
1558441922194915,-2,1,6,-2,3,8,2,0
1558441922201382,-1,-4,-4,-1,-1,-3,2,2
1558441922201382,-2,-1,-5,0,2,7,3,1
1558441922217361,0,-2,5,2,-2,1,-3,-1
1558441922217361,0,-2,-7,-4,-5,-1,-4,1
1558441922219354,-3,1,0,-4,1,-5,-6,-4
1558441922219354,-1,0,-4,-5,-6,-8,0,1
1558441922232592,-1,-2,-6,-3,-3,-4,-4,-4
1558441922232592,-1,-1,3,-2,-4,-5,-2,-3
1558441922239421,1,-1,-1,-2,3,10,6,3
1558441922239421,-1,1,5,2,4,0,5,1
1558441922254559,-2,-3,-3,0,1,4,1,-2
1558441922254559,-1,1,-1,-5,-3,2,-5,-2
1558441922261241,0,-3,-6,-3,-6,-11,-6,-4
1558441922261241,0,2,0,-1,-3,-3,-3,-2
1558441922277200,0,0,0,0,1,-2,1,1
1558441922277200,-1,0,-2,0,0,1,1,-1
1558441922279193,-3,-2,1,5,-2,2,-2,-4
1558441922279193,2,-1,-5,-12,1,4,1,-1
1558441922292189,-1,0,0,1,3,2,2,-3
1558441922292189,-2,-2,-1,-1,-2,-8,-2,0
1558441922299139,-3,-2,9,3,-3,-6,-2,0
1558441922299139,-1,-3,-9,-5,3,8,-6,-3
1558441922314099,0,0,-1,0,-5,3,0,-1
1558441922314099,0,-3,-6,0,3,-7,1,2
1558441922321080,3,2,-3,-7,6,-7,7,5
1558441922321080,-3,0,2,5,-3,0,-4,-4
1558441922338035,0,2,6,2,5,9,2,-1
1558441922338035,-1,-2,-2,0,-4,-7,-2,-1
1558441922339034,0,-1,-5,-5,-7,-6,-7,-4
1558441922339034,-3,-9,3,8,4,3,3,1
1558441922352075,0,-3,-10,-16,-6,1,0,-1
1558441922352075,2,1,3,3,4,0,2,1
1558441922358984,-3,2,-1,-3,-3,-3,1,3
1558441922358984,-3,-2,-3,-3,-5,-3,-1,-4
1558441922373948,-3,-3,0,1,-3,-4,-6,-4
1558441922373948,2,1,2,-2,1,0,2,1
1558441922381919,2,-1,-1,0,0,8,0,-5
1558441922381919,0,2,-1,0,0,-2,-2,0
1558441922397912,0,3,1,0,5,-7,1,1
1558441922397912,-1,-1,0,-2,-3,-14,-3,-1
1558441922398875,-3,-1,-2,-1,0,8,-2,-3
1558441922398875,0,-2,-1,-1,-9,-12,-8,-2
1558441922411853,2,1,2,-6,5,4,-1,2
1558441922411853,0,-2,-1,3,0,3,1,-1
1558441922418820,-5,-3,-9,-4,-4,-11,-3,-2
1558441922418820,-3,0,5,-1,-7,4,-4,-4
1558441922434822,-1,-2,-7,4,2,-2,0,-1
1558441922434822,0,-2,-1,-6,4,3,1,0
1558441922440887,0,-4,3,3,-2,-2,-4,0
1558441922440887,-2,0,-2,-1,-2,-6,0,3
1558441922457717,1,3,5,5,-1,0,-4,-7
1558441922457717,-1,-4,-4,-3,-3,8,2,2
1558441922458718,-3,-3,3,5,-2,2,2,0
1558441922458718,-1,-1,-6,-5,6,0,2,0
1558441922471682,-3,0,2,-2,-4,-6,-4,0
1558441922471682,-1,-1,-8,-1,-4,-1,-1,-3
1558441922478665,0,-3,-3,-10,-1,-1,-1,1
1558441922478665,-1,1,9,5,4,7,3,-2
1558441922494620,-4,-7,-16,-14,-9,-12,-6,-1
1558441922494620,-2,1,0,2,0,10,-2,-4
1558441922501600,3,4,2,2,13,14,9,8
1558441922501600,0,-3,-3,1,-1,-6,-2,-2
1558441922517559,-3,-3,4,2,-1,-1,-2,-1
1558441922517559,-4,-4,-2,-7,-8,-7,-6,-3
1558441922518554,-2,-2,-2,3,-3,5,-2,1
1558441922518554,1,1,1,4,7,5,3,-1
1558441922531518,2,1,-6,-5,2,-10,7,2
1558441922531518,0,-1,1,-1,-5,-8,-7,-1
1558441922538507,-1,0,-8,-6,-7,-1,-6,-5
1558441922538507,-1,-6,1,0,-4,-5,-1,0
1558441922554457,-2,-2,0,6,6,11,1,2
1558441922554457,-1,0,2,3,4,1,5,2
1558441922561442,1,3,3,-1,-2,-6,-3,-1
1558441922561442,-1,-2,-7,-7,1,1,1,0
1558441922577400,-2,0,6,5,-4,2,-2,-4
1558441922577400,-3,-3,-3,-1,3,-7,-4,-3
1558441922579394,-2,-1,-1,-6,-8,-7,-3,-3
1558441922579394,-1,-1,-2,-6,0,4,3,1
1558441922592355,1,-3,-1,0,-3,-10,-2,0
1558441922592355,2,3,2,3,-1,2,-3,-2
1558441922598362,-2,2,-3,-6,0,6,-1,-2
1558441922598362,-1,-2,-2,-4,-3,-3,-6,-1
1558441922614297,1,0,4,6,2,2,7,0
1558441922614297,-1,-4,-8,-12,-6,-8,-5,-4
1558441922621282,-2,-5,-1,5,3,1,2,-2
1558441922621282,-2,1,3,1,-3,-4,-4,-1
1558441922637235,-3,-1,0,1,3,2,-2,-1
1558441922637235,-1,2,2,2,1,-2,0,2
1558441922639232,2,0,-3,1,-1,-2,-1,0
1558441922639232,-1,-3,-2,-2,0,7,-2,-1
1558441922651199,0,1,4,1,0,1,4,0
1558441922651199,-3,-3,-4,0,2,0,0,-3
1558441922660174,-2,-3,-8,-8,-6,-2,-4,-3
1558441922660174,-1,2,3,3,2,4,2,-2
1558441922675366,1,-3,-4,-4,-7,-2,-5,0
1558441922675366,0,0,0,-1,2,-12,2,5
1558441922681120,-1,1,4,2,4,0,0,-1
1558441922681120,0,-3,-2,-1,-1,1,-3,-2
1558441922697077,-2,-3,1,-2,-2,8,2,-3
1558441922697077,-3,0,-4,0,-2,5,-4,-6
1558441922699071,-2,-3,-6,-3,-2,-5,1,0
1558441922699071,3,6,6,6,6,-4,8,5
1558441922711042,-5,-5,-12,-17,-7,-5,-3,-3
1558441922711042,-2,0,2,-1,-10,-3,-2,-2
1558441922720014,0,0,4,6,5,7,1,0
1558441922720014,-3,-4,-7,-8,-7,-5,0,1
1558441922733976,-2,-5,0,4,1,-4,-4,-5
1558441922733976,-1,0,-1,-6,-4,-2,0,-3
1558441922740958,-2,-2,2,1,-5,-1,-6,-4
1558441922740958,-1,1,-1,0,1,-6,-1,-2
1558441922757915,3,5,2,5,8,6,1,0
1558441922757915,0,-3,-2,-2,-5,-16,1,1
1558441922758911,-2,-2,1,5,2,0,0,0
1558441922758911,0,-3,-3,-12,-6,-7,-5,-2
1558441922770879,-3,-2,-5,-2,0,7,-2,0
1558441922770879,2,-1,5,7,0,9,-1,-2
1558441922779854,-1,0,-4,-7,-3,0,-1,0
1558441922779854,0,-2,2,7,6,-2,0,-1
1558441922794819,-1,0,1,-1,2,-5,1,1
1558441922794819,-1,1,-1,3,6,13,1,0
1558441922800798,2,1,2,0,-8,-2,1,2
1558441922800798,-4,-5,-14,-9,-8,-5,-3,-3
1558441922817781,1,-1,1,6,-1,-6,-2,-1
1558441922817781,-3,-2,-4,-12,-3,-3,-3,0
1558441922818751,0,-3,2,0,2,1,0,-2
1558441922818751,0,-1,-1,3,3,6,-4,-1
1558441922831717,0,2,-4,-7,-5,-1,-3,-3
1558441922831717,-1,-1,-1,1,0,-3,1,0
1558441922839696,-3,-1,-2,-1,-3,-4,-4,-2
1558441922839696,-1,0,-3,-3,-7,-6,0,-1
1558441922854655,-1,-4,1,1,2,3,-1,-1
1558441922854655,-4,-3,-4,-3,3,-3,-4,0
1558441922861637,-2,-2,-2,-3,4,-10,4,2
1558441922861637,-1,1,2,8,-1,-1,-4,-5
1558441922876594,-1,1,-1,-2,-7,-2,-1,-2
1558441922876594,1,-1,5,-2,0,12,6,1
1558441922883578,-1,-2,0,-3,0,1,0,1
1558441922883578,-2,0,-2,1,0,-9,-1,0
1558441922891558,-2,-2,-8,-5,-7,-5,0,-1
1558441922891558,-1,-2,-4,3,5,10,-4,-2
1558441922900535,-1,-3,-8,-7,-6,3,0,-2
1558441922900535,1,0,5,-2,-3,6,1,-3
1558441922914501,2,2,6,1,-1,3,-5,1
1558441922914501,-2,-1,-5,4,4,1,3,0
1558441922921477,0,1,1,3,0,-12,-1,-1
1558441922921477,1,-2,-1,-2,-1,0,2,1
1558441922936436,-3,-2,-2,2,-1,-12,-2,-1
1558441922936436,-1,-1,-1,-4,-3,5,-4,-1
1558441922943418,-3,-2,4,4,2,5,0,-2
1558441922943418,-1,-2,-5,-12,-3,-2,5,1
1558441922951395,-1,-2,1,-1,-1,1,-1,-3
1558441922951395,0,2,0,-1,1,2,3,0
1558441922960378,-2,-1,3,5,2,-5,-3,-4
1558441922960378,-2,-2,-4,-5,-5,-8,-7,0
1558441922974336,-1,-3,-6,-3,-1,2,-2,-1
1558441922974336,0,-1,-4,-5,0,-2,2,3
1558441922981317,-1,-2,-4,-6,-6,-4,-5,-2
1558441922981317,1,2,9,4,8,10,2,-1
1558441922997273,-2,-2,-3,1,-3,-2,5,1
1558441922997273,-1,0,4,1,-6,-14,-2,-3
1558441923003258,-2,-1,-9,0,1,-3,0,2
1558441923003258,-3,-1,-3,-10,-8,-3,-4,-4
1558441923011237,-1,-1,-1,-1,0,1,-5,1
1558441923011237,1,2,0,2,-2,1,1,-2
1558441923020213,1,1,0,1,2,7,2,3
1558441923020213,-2,-1,-5,-5,-5,-5,1,-7
1558441923034174,-4,-6,0,2,8,-5,3,1
1558441923034174,-2,-3,3,0,-5,-1,-6,-4
1558441923041154,0,3,0,0,1,2,0,-1
1558441923041154,0,-1,-1,2,1,-3,-2,0
1558441923057115,1,1,0,-6,-5,-4,-3,-3
1558441923057115,0,0,0,5,9,8,6,3
1558441923071074,-1,-2,-2,-5,-6,-2,-3,-2
1558441923071074,-1,-4,-3,5,3,7,-2,3
1558441923080051,-2,-1,-3,-6,-4,3,0,-2
1558441923080051,-2,-2,-2,-4,-5,-12,-4,-1
1558441923081049,0,2,0,-5,6,2,3,0
1558441923081049,-1,-1,3,7,-1,3,3,1
1558441923095013,1,-2,2,3,-2,-7,-2,-1
1558441923095013,0,-1,-2,-1,-3,0,-5,-4
1558441923100995,-3,-2,0,2,3,5,1,1
1558441923100995,-1,-1,-4,-3,-4,-2,1,1
1558441923116953,-2,1,-2,-6,-1,-1,2,0
1558441923116953,2,1,-3,-2,0,1,-1,-2
1558441923123934,-1,-3,0,2,1,3,0,-2
1558441923123934,-2,0,4,6,4,1,-2,1
1558441923139892,1,1,-4,2,0,0,-1,1
1558441923139892,-3,0,0,2,0,-4,-2,-2
1558441923141886,-6,-5,-5,-21,-13,-5,-4,-6
1558441923141886,-1,2,7,3,-1,-4,0,0
1558441923153853,0,-1,-5,-3,-1,-2,-4,-2
1558441923153853,-1,-2,-9,-7,-2,2,0,-2
1558441923160838,-1,0,-1,8,4,-3,-1,0
1558441923160838,-1,-2,2,0,0,0,2,-2
1558441923176792,2,0,0,-1,-3,0,0,-2
1558441923176792,-2,-2,0,-4,-3,0,-2,0
1558441923183774,1,0,0,-3,-2,-3,-1,-1
1558441923183774,-1,-2,-5,-5,-3,-4,-5,0
1558441923207710,-1,-4,-1,-2,-4,-2,0,-3
1558441923207710,-2,-3,2,4,4,4,3,0
1558441923208706,-2,1,2,0,2,0,-2,-1
1558441923208706,-4,-3,-8,-3,-4,-6,-5,-4
1558441923214690,0,3,2,-7,1,2,2,0
1558441923214690,-2,-5,-4,-8,-5,0,-2,-2
1558441923221674,-1,-2,1,3,3,2,1,-1
1558441923221674,0,1,-11,-13,-10,-4,0,0
1558441923236638,-3,0,6,5,-2,-2,-5,-3
1558441923236638,0,-3,-8,-10,-7,-14,-5,-2
1558441923243615,4,1,7,8,7,3,9,4
1558441923243615,-2,-2,-1,2,4,3,-4,-4
1558441923267552,-3,-4,-4,-5,-5,5,-2,-3
1558441923267552,0,2,3,3,-2,-7,-2,2
1558441923269544,-1,-2,-7,-1,-3,-11,-4,-2
1558441923269544,2,0,3,1,6,9,4,1
1558441923274535,-2,-1,2,2,-2,2,-6,-4
1558441923274535,-1,-1,-4,-10,-2,3,1,0
1558441923281514,-2,-2,-5,-5,-5,-4,-3,-2
1558441923281514,-2,0,4,2,-1,-7,0,-2
1558441923296473,0,-1,-3,-2,1,1,0,-1
1558441923296473,2,-1,4,7,2,11,1,-2
1558441923303455,0,-1,-3,-2,-7,-2,-6,-2
1558441923303455,0,-2,-1,-4,3,-3,1,1
1558441923320408,-2,1,3,11,8,-8,1,0
1558441923320408,-1,1,-4,-10,-3,-6,4,1
1558441923321405,-2,0,1,0,-3,2,-6,-4
1558441923321405,-3,-2,-6,-2,-13,2,-4,-6
1558441923334372,0,-5,-2,-1,6,0,7,5
1558441923334372,0,0,2,7,10,-3,3,2
1558441923341352,-1,0,3,1,1,8,2,-1
1558441923341352,-2,-2,-3,-1,-4,-2,-8,-3
1558441923357311,-2,-5,-13,-17,-14,-11,-11,-5
1558441923357311,-2,3,2,3,4,6,4,0
1558441923363293,-1,-5,-2,-3,2,-6,1,1
1558441923363293,0,1,2,4,3,6,0,-2
1558441923380248,-2,-1,-1,1,-8,-6,-6,-4
1558441923380248,0,-2,-1,0,-5,-2,-5,-1
1558441923381249,-1,-1,-5,-5,-2,1,0,-4
1558441923381249,-1,-3,-1,0,1,-1,1,-2
1558441923394214,-1,-1,1,4,4,-2,1,1
1558441923394214,-1,-1,-1,-1,-6,-2,-4,-1
1558441923401193,2,2,2,3,4,3,4,1
1558441923401193,0,-1,-2,-4,-3,-4,-1,-1
1558441923417155,1,0,1,0,-2,-2,-3,0
1558441923417155,-2,-2,1,3,7,1,2,1
1558441923424131,-1,-4,-8,-7,-5,3,-3,0
1558441923424131,1,-1,-1,0,-2,5,1,-2
1558441923440090,1,2,5,3,2,-2,4,1
1558441923440090,-3,-2,-4,-1,-2,-6,-2,-3
1558441923441086,-2,-2,-9,-17,-10,-11,-5,-2
1558441923441086,1,0,3,-1,8,9,5,4
1558441923454052,-2,-1,4,5,1,-1,-4,-3
1558441923454052,-2,-3,3,1,2,-3,1,-2
1558441923461048,-4,-2,-7,-1,-7,-3,-2,-3
1558441923461048,1,-1,3,0,-1,-6,-1,0
1558441923476990,1,-4,-9,-6,-1,3,2,0
1558441923476990,1,1,4,3,8,1,1,2
1558441923483976,-2,-4,6,5,-1,-5,-5,-1
1558441923483976,-2,-1,-9,-5,-6,-2,-4,-2
1558441923499929,0,3,0,3,1,3,-2,-3
1558441923499929,2,2,-1,-3,-5,1,-3,-2
1558441923501924,-3,-6,-4,-8,2,5,2,-1
1558441923501924,-2,0,3,8,3,-6,-1,0
1558441923513896,1,-1,-1,-2,1,8,5,4
1558441923513896,-4,0,-2,-2,-10,-6,-6,-6
1558441923522868,-1,-1,3,2,-5,-2,-3,-1
1558441923522868,0,-1,-3,-2,3,1,1,-1
1558441923536830,-3,-3,-4,-5,1,2,-1,0
1558441923536830,1,0,-2,-1,-3,-7,-4,1
1558441923543811,1,3,6,9,15,8,8,3
1558441923543811,-1,-3,-2,-4,1,1,-5,-2
1558441923559768,-1,-1,-3,-2,-9,-3,-4,-4
1558441923559768,0,-1,-5,-4,-7,-6,-3,0
1558441923561763,0,-1,-1,0,3,-15,3,0
1558441923561763,-2,0,1,-1,0,4,-1,1
1558441923573731,-2,-2,-1,-2,3,10,1,2
1558441923573731,-4,-3,-3,-2,-9,5,-2,-5
1558441923582707,-1,-1,-9,-14,-14,-14,-10,-4
1558441923582707,-1,1,1,1,6,9,3,1
1558441923596670,0,-2,-2,-2,3,-3,1,1
1558441923596670,-2,-1,-1,0,3,7,4,-1
1558441923603650,0,0,3,4,-2,-10,-6,-1
1558441923603650,-1,-3,-4,-5,-7,-8,-2,-3
1558441923619612,-2,0,-1,2,-2,-1,-4,-2
1558441923619612,2,0,4,2,7,1,2,3
1558441923621602,-4,-4,-4,3,0,7,-5,0
1558441923621602,-3,-1,-1,0,-1,-5,-2,-4
1558441923633570,-1,0,-1,-4,0,1,2,-2
1558441923633570,-3,-2,-4,-2,-7,-7,-6,-3
1558441923642546,1,3,3,3,9,12,5,1
1558441923642546,-2,-2,0,-1,-7,-13,-4,0
1558441923656509,-4,1,-1,3,-1,-2,-1,-1
1558441923656509,2,0,-3,-1,-1,2,0,-2
1558441923663491,-1,-1,0,-4,-4,-6,-3,-2
1558441923663491,-1,0,-2,2,0,0,-2,-1
1558441923687427,-1,0,-1,-2,-3,-5,-2,0
1558441923687427,-2,-2,5,1,1,4,0,-1
1558441923689422,-3,-4,-11,-3,2,5,0,-1
1558441923689422,-1,-3,0,-2,-1,-1,0,-1
1558441923693410,0,-4,-5,-5,-3,2,-3,-1
1558441923693410,0,1,-2,0,-1,-15,-2,2
1558441923702386,-1,1,4,2,-1,-3,0,-2
1558441923702386,-1,-1,-3,-3,-3,-1,-2,-1
1558441923716349,-2,-2,-1,-1,-1,2,-3,-3
1558441923716349,-1,-2,0,-3,-3,0,0,-1
1558441923723331,0,-1,-2,0,-5,-2,0,0
1558441923723331,1,0,0,2,5,5,2,-3
1558441923739307,0,0,2,0,1,-8,0,0
1558441923739307,-1,-2,0,-2,-1,-6,0,0
1558441923746269,1,-1,-2,-1,-3,-4,-5,-5
1558441923746269,-1,-2,-2,-3,-5,-2,-5,-1
1558441923753255,0,1,0,-2,-4,4,1,-1
1558441923753255,-4,-2,-1,3,2,-1,-1,-2
1558441923770204,0,2,-2,0,4,6,7,5
1558441923770204,-1,-1,2,0,-3,-3,-4,0
1558441923777187,1,-5,-6,-3,4,-4,2,-1
1558441923777187,-3,-2,-1,-1,-1,9,-2,-1
1558441923784168,0,1,4,1,-5,-1,-4,-5
1558441923784168,-3,-5,-11,-5,-1,-3,-2,-4
