timestamp,emg1,emg2,emg3,emg4,emg5,emg6,emg7,emg8
1558441945797585,1,1,-2,-1,2,5,5,2
1558441945797585,0,1,5,10,7,-13,-2,5
1558441945798583,-1,-5,-10,-20,-13,-10,-8,-3
1558441945798583,-2,-4,-1,0,-6,0,-3,-7
1558441945798583,2,0,7,6,10,7,0,2
1558441945798583,-3,0,-6,0,2,4,3,0
1558441945799579,0,2,0,-2,5,3,6,2
1558441945799579,-4,-9,-2,2,1,-1,-1,1
1558441945818529,-1,-4,-6,2,-5,5,-2,0
1558441945818529,2,-1,5,3,-4,-12,-3,-7
1558441945819525,0,3,8,7,7,0,-1,-1
1558441945819525,-3,-3,-15,-8,-9,-1,-6,-2
1558441945829499,0,2,6,9,11,10,10,2
1558441945829499,1,1,-4,-14,2,8,1,3
1558441945841467,-2,-2,-4,-1,-8,0,-6,-3
1558441945841467,-1,1,0,-2,-5,-12,-2,-3
1558441945849445,-1,-3,-5,-12,-12,-14,-9,-5
1558441945849445,1,0,-2,0,4,-6,-2,5
1558441945856427,0,0,5,5,14,-4,6,-1
1558441945856427,-2,0,7,5,6,18,5,3
1558441945871387,-5,-8,-3,5,-3,-9,-4,-2
1558441945871387,-1,-3,3,-9,-11,4,-1,-4
1558441945878368,1,2,-2,6,3,11,-3,-1
1558441945878368,0,3,2,2,2,1,-1,-4
1558441945925243,1,4,6,2,4,6,6,2
1558441945925243,-2,2,-4,0,2,1,2,-1
1558441945926240,-1,-2,-3,3,-2,-4,-2,3
1558441945926240,-1,-2,-6,-13,-4,0,0,-7
1558441945927238,2,0,5,4,-1,-10,-3,1
1558441945927238,2,1,-1,2,6,2,1,1
1558441945930229,-2,-3,0,-6,-4,1,1,-3
1558441945930229,-3,-1,-3,-4,0,3,0,1
1558441945938208,-4,-3,-4,0,-6,3,-4,-3
1558441945938208,-1,0,-1,-1,0,4,-2,-1
1558441945947184,1,1,0,6,1,-4,-5,-2
1558441945947184,0,0,3,1,-1,-4,4,2
1558441945953168,-3,-3,4,6,8,4,1,-2
1558441945953168,-1,-3,-6,-3,-13,-17,-4,-3
1558441945969125,2,4,8,4,15,13,14,5
1558441945969125,2,1,-7,2,-5,-4,-8,-3
1558441945975113,-1,-5,-3,-2,5,10,2,1
1558441945975113,-3,-4,2,1,3,1,1,2
1558441945990071,0,2,-2,-6,-6,-1,-6,-3
1558441945990071,1,0,3,6,4,-4,0,1
1558441945998048,-1,1,-2,-5,-6,-6,-5,-5
1558441945998048,1,-1,-2,-4,-7,0,-7,-4
1558441946007023,-2,-3,3,8,-3,0,-2,-4
1558441946007023,-3,-4,-2,-15,-9,1,-4,0
1558441946013008,-1,0,-9,-2,0,-13,4,4
1558441946013008,1,0,0,4,8,-3,6,4
1558441946028964,-2,2,12,5,3,6,1,-1
1558441946028964,-1,0,-3,1,0,7,-3,-4
1558441946034950,-3,-4,-5,-6,-12,-7,-7,-5
1558441946034950,0,-1,1,-1,-4,-12,-3,-3
1558441946050906,0,-4,-4,1,-6,-6,-7,-3
1558441946050906,-1,0,2,2,0,3,5,0
1558441946057888,0,-1,0,-5,9,11,2,1
1558441946057888,-3,-4,-2,0,0,4,-1,-2
1558441946066864,-2,-3,-6,-9,-7,-7,-5,-4
1558441946066864,-1,-4,0,6,-2,-1,-5,-4
1558441946072847,3,4,-7,-8,-2,-1,2,0
1558441946072847,-3,2,9,9,-1,0,-2,-2
1558441946089802,-2,-3,-5,-5,3,4,1,0
1558441946089802,-1,1,-1,-8,-4,-9,0,-2
1558441946095788,-3,-2,-1,5,-7,-6,-8,-3
1558441946095788,0,0,0,-5,3,6,1,0
1558441946110746,4,3,-8,-4,10,10,14,11
1558441946110746,-1,3,6,7,5,0,4,-1
1558441946117728,-4,-11,-3,-2,-5,-5,-7,-5
1558441946117728,-5,-4,-3,-6,-11,-4,-6,-5
1558441946126704,1,1,0,1,2,-13,-1,1
1558441946126704,1,0,-2,1,0,-1,4,1
1558441946132687,0,4,3,0,-1,-6,-3,-3
1558441946132687,-1,-1,-5,-15,-5,5,0,-3
1558441946149642,-1,-1,-6,2,-6,-8,-5,-2
1558441946149642,-2,-2,5,-3,5,7,2,2
1558441946155627,-1,-3,-5,-7,-1,1,-2,0
1558441946155627,-1,0,2,3,-1,3,-3,0
1558441946170587,-2,1,1,-5,0,-6,-3,-3
1558441946170587,-2,-4,-14,-10,-10,-2,-1,-2
1558441946177567,-1,0,9,9,-1,-1,-1,0
1558441946177567,1,-4,0,1,6,-2,6,3
1558441946186544,0,-1,-2,-3,-2,-2,-2,-2
1558441946186544,-2,0,0,7,-2,-2,-4,-1
1558441946192528,1,0,0,-5,0,-5,2,0
1558441946192528,0,0,-4,-2,-5,5,-5,-4
1558441946217461,-3,-3,-1,2,-3,-3,-3,-2
1558441946217461,-1,-1,-1,1,1,-4,-4,-2
1558441946218458,-3,2,-4,-2,-3,2,-2,0
1558441946218458,-1,-1,-1,-1,-3,-3,-2,-2
1558441946230427,0,-2,-1,-3,-3,4,2,-3
1558441946230427,4,1,3,0,15,3,9,4
1558441946237409,0,-1,-2,0,-2,-2,1,-1
1558441946237409,-1,-1,-3,0,1,-2,0,0
1558441946246384,-2,-2,-1,-6,-7,-3,-6,-1
1558441946246384,-2,-4,-4,-2,-10,-11,-12,-5
1558441946253366,-2,-1,-1,-2,-4,-6,-4,-4
1558441946253366,0,-1,2,1,11,13,8,2
1558441946269324,-1,1,5,0,5,1,4,1
1558441946269324,-1,-2,-7,-1,0,3,-2,1
1558441946275307,-1,0,-2,-1,0,7,1,-4
1558441946275307,-4,-2,-3,2,-11,-13,-8,-5
1558441946290266,0,-2,-13,-17,-11,-6,-1,-2
1558441946290266,-1,2,8,8,8,-2,0,2
1558441946298246,-2,-2,0,-2,-4,1,-6,0
1558441946298246,0,1,0,0,8,9,5,2
1558441946307222,-4,-4,1,14,-3,0,-3,-1
1558441946307222,-2,1,-4,-14,-9,-6,-2,-1
1558441946313205,-4,-4,0,-7,-2,-3,-3,-3
1558441946313205,1,1,-4,0,-2,-6,-2,1
1558441946329162,-2,-3,9,10,7,-8,-4,0
1558441946329162,-2,-6,-7,-5,-4,3,-2,-1
1558441946335147,-1,-2,-4,-3,0,1,0,0
1558441946335147,-1,2,2,3,0,-4,-2,-1
1558441946350106,-2,-2,-9,-11,-7,-4,-2,-2
1558441946350106,2,1,3,7,4,5,4,-4
1558441946358086,-2,0,-1,-3,-3,11,4,-2
1558441946358086,0,1,-3,-3,8,10,5,0
1558441946367062,-2,-1,-2,-4,3,-22,-1,2
1558441946367062,-2,1,7,7,3,2,-8,-1
1558441946373044,-3,0,-8,-2,-7,0,-3,-2
1558441946373044,0,-2,2,0,-1,5,0,-1
1558441946389002,0,3,0,0,2,6,0,-1
1558441946389002,0,-3,-1,-3,-3,-4,-2,-2
1558441946394986,0,1,4,5,12,-1,8,5
1558441946394986,-5,-2,-4,-6,-4,-2,-2,-3
1558441946409949,-2,-1,-1,-2,-7,-2,-5,-5
1558441946409949,1,1,6,1,0,0,1,0
1558441946417925,0,-3,-11,-2,-5,-2,-5,-2
1558441946417925,-1,-2,1,-1,1,4,2,2
1558441946433881,-3,1,-4,-1,-3,6,-2,-3
1558441946433881,-5,-5,-3,-5,-11,-11,-10,-6
1558441946440864,1,2,6,7,8,-3,4,4
1558441946440864,0,1,2,-1,2,-16,-1,3
1558441946448843,-1,-1,0,-2,2,13,2,0
1558441946448843,1,0,0,3,3,7,5,1
1558441946455824,1,0,-2,-2,2,-1,0,-1
1558441946455824,-3,-5,-5,-5,-10,-5,-5,-8
1558441946470785,-1,-3,-6,-4,-3,6,-3,-1
1558441946470785,-3,2,1,4,-7,-11,-7,-5
1558441946477767,3,3,8,12,16,5,11,6
1558441946477767,-5,-9,0,-1,-2,-3,-3,-1
1558441946486740,-1,0,0,-2,-1,-3,-1,-1
1558441946486740,-2,-4,-8,-5,-5,1,2,-1
1558441946500704,2,4,5,-7,-1,-1,-6,-3
1558441946500704,0,1,-2,5,-6,-4,-5,-3
1558441946509680,0,-2,2,3,-2,-6,-3,-2
1558441946509680,0,1,1,5,5,-2,-1,1
1558441946515664,2,-2,-10,-4,-1,3,1,-1
1558441946515664,-4,-1,8,-4,1,1,3,3
1558441946530623,0,-3,-5,-2,0,-4,-3,0
1558441946530623,0,0,6,-2,0,5,0,-1
1558441946537606,0,-1,-11,1,-2,7,3,0
1558441946537606,1,2,1,1,1,7,-2,-3
1558441946546580,-3,-4,-17,-11,-12,-18,-6,-3
1558441946546580,-2,-1,7,1,5,3,1,2
1558441946560543,-4,-4,-3,1,-4,-3,-6,-3
1558441946560543,0,2,4,-6,-4,-8,-2,-2
1558441946569520,-2,0,1,3,-4,1,-8,-4
1558441946569520,0,-3,-8,-6,8,9,9,4
1558441946575504,2,5,12,2,4,-9,4,2
1558441946575504,-5,-8,-7,-3,-9,-7,-7,-3
1558441946590463,-1,-2,1,-2,3,-3,1,-1
1558441946590463,-1,-3,-11,-4,-2,0,-6,-3
1558441946597444,-4,-5,2,-3,-4,2,-4,-5
1558441946597444,0,0,-1,5,-1,-5,-2,-1
1558441946606421,-1,3,2,-4,-3,0,2,0
1558441946606421,-3,-2,4,4,3,1,3,2
1558441946620384,-4,-8,-8,-6,-5,-11,-6,-4
1558441946620384,2,3,-7,0,5,-8,0,2
1558441946629365,-3,-1,4,-4,-2,5,1,-2
1558441946629365,-1,0,0,-1,-9,-6,-3,-3
1558441946635344,0,1,7,1,1,3,4,2
1558441946635344,-4,-6,-16,-8,-6,7,-5,-3
1558441946651309,3,3,5,1,1,-5,0,0
1558441946651309,-1,1,0,3,6,-12,4,2
1558441946658282,-4,0,-3,-5,-10,-3,-10,-4
1558441946658282,2,2,1,0,1,0,-1,0
1558441946667258,-1,-2,1,2,7,10,5,-2
1558441946667258,-2,-2,-3,-4,-3,-4,-4,-3
1558441946680225,-1,0,2,2,3,7,4,2
1558441946680225,-1,1,-2,-7,-4,-4,-4,-2
1558441946689199,-1,-2,1,2,-3,3,-3,1
1558441946689199,1,0,-10,-2,1,1,4,0
1558441946695184,-4,-5,1,-5,-9,-22,-8,-4
1558441946695184,0,0,3,0,-5,-10,-3,-3
1558441946712138,0,0,-1,4,6,12,2,0
1558441946712138,-2,-2,-2,-2,-9,8,-3,-3
1558441946718122,0,-2,-4,-1,-2,4,2,0
1558441946718122,3,3,3,7,20,11,16,7
1558441946727098,0,-1,-1,-11,-1,-12,0,0
1558441946727098,0,1,-6,-9,-9,-5,-7,-4
1558441946749038,0,1,-2,2,-7,-2,-6,-4
1558441946749038,-1,-4,1,1,-3,8,-4,-4
1558441946751034,-1,-3,-6,-4,-1,5,3,-1
1558441946751034,2,1,1,0,3,-4,1,0
1558441946755024,-2,-2,-7,-10,-10,-8,-4,-2
1558441946755024,-2,-3,10,8,3,-2,-2,0
1558441946771979,-3,-4,-1,1,-3,-5,-6,-4
1558441946771979,-1,-3,-4,-6,-13,0,-2,-2
1558441946777962,0,0,-1,1,3,3,-2,-1
1558441946777962,3,2,-7,-6,6,-6,7,5
1558441946786938,1,1,2,6,7,2,3,3
1558441946786938,-3,-4,1,-1,-3,-9,-5,-2
1558441946799903,-2,-1,-1,0,0,13,-3,-4
1558441946799903,0,0,-3,-4,-3,5,-2,0
1558441946808880,0,0,0,6,2,-5,1,2
1558441946808880,-2,0,2,-2,-3,3,0,-3
1558441946815870,2,2,2,0,5,-8,9,5
1558441946815870,-1,-2,-4,-2,-4,-1,-4,-3
1558441946831820,-1,-2,-1,-4,1,4,-2,-4
1558441946831820,3,0,1,2,-4,-4,0,2
1558441946837801,-2,-3,-7,1,3,-2,-1,-1
1558441946837801,0,1,0,-3,-3,-3,-1,-1
1558441946846778,-1,0,-2,-1,-5,-3,-3,-3
1558441946846778,-1,-2,-3,0,1,2,-2,-1
1558441946860741,-1,-2,4,-2,-4,7,-1,-2
1558441946860741,-3,-2,-1,0,-5,-3,-2,-4
1558441946869716,-1,1,-1,-5,1,9,1,0
1558441946869716,0,0,1,6,2,-15,5,4
1558441946875702,-5,-8,3,5,-3,-22,-4,-3
1558441946875702,-2,-4,-18,-16,-2,1,-1,-2
1558441946891658,-3,-1,3,2,-5,2,-4,-3
1558441946891658,-2,-2,-4,-1,1,-4,-1,-2
1558441946897641,-3,-2,-1,-4,-3,8,-3,-1
1558441946897641,-2,-2,5,6,-6,2,-3,-5
1558441946914596,1,1,-2,-6,-7,-14,0,0
1558441946914596,2,3,0,-1,14,23,7,3
1558441946920579,0,0,-1,1,-1,-2,-3,-1
1558441946920579,-1,-3,1,0,2,9,2,0
1558441946935540,1,0,1,3,4,-6,3,4
1558441946935540,-2,1,0,0,-5,-20,-6,-1
1558441946936537,1,2,-6,-7,-2,4,-1,-2
1558441946936537,2,3,4,6,1,-6,1,0
1558441946951497,-4,-4,5,-4,-8,-6,-8,-4
1558441946951497,-5,-4,-2,-8,-5,0,-4,-4
1558441946957481,0,-1,-7,-3,4,10,5,0
1558441946957481,-1,0,-4,-3,-5,-5,0,1
1558441946972441,-1,-1,-6,6,0,1,0,-2
1558441946972441,-3,-1,1,-7,-5,-4,-3,-2
1558441946980421,0,4,5,1,3,4,1,0
1558441946980421,-2,-3,-2,-2,3,-2,-6,-4
1558441946996378,0,-2,2,3,3,8,1,0
1558441946996378,2,-1,2,-1,4,-11,3,1
1558441946996378,2,2,-1,3,8,3,3,3
1558441946996378,-2,0,4,0,-6,-4,-2,-2
1558441947011338,-4,-4,1,-2,-5,1,-6,-4
1558441947011338,-3,-4,-16,-15,-4,1,-3,0
1558441947018318,0,-1,-3,-3,-5,-20,-4,-7
1558441947018318,-1,0,8,5,10,7,2,3
1558441947033278,-1,-6,2,-1,-2,0,0,0
1558441947033278,0,-1,-1,4,1,6,0,0
1558441947040259,-2,-1,-1,2,-2,-6,0,1
1558441947040259,-2,-3,-9,-6,-4,5,0,-3
1558441947056217,2,2,-1,2,-1,-1,-2,1
1558441947056217,-2,-2,2,-9,-7,-4,-3,-3
1558441947057215,-2,-2,0,1,1,3,-3,-1
1558441947057215,-1,2,5,3,2,-3,0,0
1558441947072174,-1,0,-4,-2,-4,-3,0,-1
1558441947072174,-3,-4,-3,-1,-5,-2,-4,-3
1558441947078158,2,0,2,6,6,14,2,2
1558441947078158,-3,-3,0,-4,-8,-2,4,-1
1558441947093118,2,2,0,-1,5,-11,-1,0
1558441947093118,1,3,2,3,-2,-2,-3,-2
1558441947100099,-4,-4,-11,-17,-8,-6,-5,-3
1558441947100099,-2,-2,-5,1,2,6,-3,-1
1558441947116056,0,0,0,0,-2,-9,4,4
1558441947116056,-1,2,1,4,1,-2,-2,-5
1558441947117053,0,-5,1,-3,-1,3,2,1
1558441947117053,1,-2,-2,1,0,-1,0,-3
1558441947132015,-2,0,-5,-7,-3,5,-2,-4
1558441947132015,0,-1,-4,0,-2,1,-3,0
1558441947137998,1,-2,3,3,3,-5,0,1
1558441947137998,-2,0,-1,-2,-4,-8,-3,-3
1558441947154074,-1,-2,-3,-1,-1,-2,0,0
1558441947154074,0,0,2,4,1,5,1,0
1558441947159974,-2,-2,-2,-2,-10,-3,-6,-6
1558441947159974,0,0,-3,-4,-4,0,0,1
1558441947175896,-3,0,-1,-1,2,-2,-2,0
1558441947175896,-3,0,4,0,7,8,3,1
1558441947176894,0,2,9,5,-8,-20,-6,-1
1558441947176894,1,-6,-15,-2,6,-2,11,1
1558441947191855,-2,-1,-7,-14,1,6,2,-1
1558441947191855,-2,-2,-6,-8,-6,-4,0,0
1558441947197838,-1,-1,6,5,0,7,-2,-3
1558441947197838,-1,2,9,7,-3,-4,-7,-1
1558441947212799,-2,-2,-5,2,-1,10,1,-1
1558441947212799,0,-2,0,0,4,5,1,-1
1558441947220780,0,0,-2,-1,4,0,4,2
1558441947220780,-1,2,-1,-5,-8,-9,-6,-2
1558441947236018,-2,-2,2,3,-6,-5,-8,-5
1558441947236018,0,-1,-8,-14,2,6,3,1
1558441947236736,-2,-1,-1,5,1,-4,3,0
1558441947236736,3,2,0,3,1,0,1,-2
1558441947252693,1,2,1,-10,-1,-5,-1,2
1558441947252693,-1,-7,7,14,-7,-14,-9,-4
1558441947257681,-3,-4,-14,-8,-6,-8,-2,-1
1558441947257681,-2,-2,0,-1,-3,2,-6,-3
1558441947273791,-2,-1,2,4,8,8,4,-1
1558441947273791,0,3,0,0,3,7,4,-1
1558441947280845,1,1,-2,-5,3,8,4,0
1558441947280845,-3,-1,3,5,-1,-3,-4,1
1558441947296660,-2,-1,0,-2,-10,-12,-8,-3
1558441947296660,-3,-2,-1,3,1,-6,-2,0
1558441947296660,-1,-2,-3,-5,-1,2,0,-3
1558441947296660,-2,-3,-4,-6,-5,-4,-3,-2
1558441947311679,1,-2,-1,5,7,7,5,2
1558441947311679,1,0,2,2,1,0,2,0
1558441947318647,-2,-3,-4,-3,-8,-2,-4,-5
1558441947318647,-3,-1,-1,-3,-3,-1,-1,-3
1558441947333695,2,0,-2,-1,3,-12,0,2
1558441947333695,1,2,2,2,4,5,1,2
1558441947340463,0,0,1,3,0,-8,-2,2
1558441947340463,0,-2,-4,-8,3,2,-2,1
1558441947355708,-1,-3,0,-1,-4,4,-2,-4
1558441947355708,0,2,1,-1,0,7,0,-1
1558441947363664,-1,-3,-3,-3,-1,7,-2,-2
1558441947363664,0,-3,-5,-3,-8,-12,-3,-3
1558441947371659,-4,-1,1,2,4,1,3,0
1558441947371659,1,-1,-2,0,4,0,1,0
1558441947378624,-1,2,4,0,1,3,2,3
1558441947378624,-1,1,0,-3,-3,-6,-2,-2
1558441947393585,1,-1,-2,-2,-5,-2,-3,-1
1558441947393585,-1,0,7,4,6,-3,2,0
1558441947400582,-1,-1,-6,0,0,4,-2,-2
1558441947400582,-2,-2,1,0,1,3,-2,1
1558441947415290,-1,-2,-6,-5,-4,-3,1,-1
1558441947415290,0,-3,-6,-1,-6,-2,-3,-2
1558441947423273,-1,0,5,-2,-2,-10,-3,0
1558441947423273,0,3,4,5,8,8,4,2
1558441947432212,-1,-3,-3,-3,-5,-3,-4,-4
1558441947432212,0,2,1,-7,-5,-2,-2,-3
1558441947438224,-1,-2,-8,4,1,3,-1,0
1558441947438224,0,1,-3,-4,-3,-3,-2,-1
1558441947453597,0,1,1,5,3,5,-1,0
1558441947453597,-3,-8,0,-2,4,2,0,-1
1558441947461367,1,2,-1,-3,-2,0,2,0
1558441947461367,-1,-3,2,-2,-5,-1,-1,-2
1558441947475099,0,-1,-4,0,1,3,0,1
1558441947475099,-2,2,-2,0,-6,-6,-3,-2
1558441947483249,-2,0,0,-1,1,-9,1,1
1558441947483249,0,-2,3,0,3,0,1,1
1558441947492054,0,-2,-1,-4,-2,-2,1,0
1558441947492054,-2,-1,0,4,-1,-2,-1,-2
1558441947498521,-1,-3,1,-5,-6,-6,-7,-3
1558441947498521,1,0,1,-3,1,0,1,0
1558441947513749,-4,-5,-10,-9,-10,0,-3,-4
1558441947513749,0,0,-1,6,7,12,5,1
1558441947520772,-1,2,1,2,0,-4,1,0
1558441947520772,0,0,-2,-5,-1,-5,-5,-1
1558441947535460,-1,-1,5,4,-2,-4,-1,-3
1558441947535460,-2,-1,-9,-9,-9,-3,-2,-1
1558441947543404,-1,0,0,-3,-2,3,-1,-5
1558441947543404,0,-3,-4,-3,3,5,2,-2
1558441947558368,-1,1,0,3,6,-1,3,1
1558441947558368,-5,-1,-3,0,-1,-8,0,0
1558441947559362,0,-1,1,1,0,-4,-1,-2
1558441947559362,-3,-3,-5,-9,-9,-3,-3,-5
1558441947573352,0,0,0,2,2,6,0,0
1558441947573352,2,-4,2,-1,-1,1,-2,-1
1558441947580305,-1,-3,-2,-2,-2,-3,-4,0
1558441947580305,-2,-1,-2,3,3,-7,0,1
1558441947595265,2,3,3,1,-1,-8,-3,0
1558441947595265,-4,-1,-5,-4,-5,2,-4,-3
1558441947603243,-2,-1,-3,0,0,4,-1,-3
1558441947603243,0,-3,-3,0,-2,9,0,-2
1558441947619289,-1,2,3,1,3,-4,1,0
1558441947619289,-1,-2,0,-2,-2,-5,2,-1
1558441947619289,-4,-6,-7,-6,-4,-1,-2,0
1558441947619289,-2,2,1,3,-1,13,0,-3
1558441947633165,-2,-4,-3,1,-7,-13,-2,-3
1558441947633165,3,2,6,1,3,-9,-1,-2
1558441947649413,0,0,-1,1,4,10,5,2
1558441947649413,-1,-2,0,-2,-2,-4,-1,3
1558441947655403,0,-1,-4,-3,2,13,0,0
1558441947655403,0,1,0,2,-9,-6,-6,-3
1558441947663126,0,0,1,-7,-2,-19,-4,1
1558441947663126,1,1,-4,-1,-2,-6,-2,-2
1558441947680038,-2,1,4,3,6,10,2,0
1558441947680038,-1,-2,-8,-5,1,4,-3,-4
1558441947681035,-1,1,1,3,-3,5,0,-2
1558441947681035,0,1,-1,-1,0,-5,2,3
1558441947693655,-2,-3,-6,-3,-5,-3,-3,-1
1558441947693655,0,-1,0,-2,2,3,-2,1
1558441947700746,1,0,1,0,2,-3,1,1
1558441947700746,0,-3,-3,0,-2,-7,-2,-2
1558441947715704,-1,0,-2,-5,-4,-6,-5,-3
1558441947715704,-4,-4,-2,-4,-12,-6,-4,-2
1558441947723612,1,0,1,3,4,9,8,5
1558441947723612,-1,-1,5,6,10,2,7,3
1558441947739295,-3,-2,-3,-8,-5,1,-6,-2
1558441947739295,0,0,-3,-3,-3,-6,-5,-5
1558441947739295,-5,-4,-1,2,-4,4,-7,-6
1558441947739295,-2,-5,-9,-4,-4,-5,1,-1
1558441947753507,0,1,4,4,6,3,4,0
1558441947753507,-1,-4,-3,-1,-5,3,-2,-3
1558441947760483,1,2,-1,-6,2,4,4,2
1558441947760483,-1,-1,1,1,-2,-3,-4,-3
1558441947775195,-1,-2,1,2,-4,-4,0,1
1558441947775195,-3,-3,-2,0,-5,-11,-5,-4
1558441947783410,-2,0,-1,3,6,15,6,1
1558441947783410,0,0,1,-3,3,-13,4,5
1558441947798358,-5,-5,-5,-1,-4,7,-3,-8
1558441947798358,-1,0,-1,0,-3,4,-1,-3
1558441947799145,2,-1,-4,-7,-7,-16,-6,-4
1558441947799145,2,4,5,2,1,5,-1,-2
1558441947813093,0,-4,-9,-6,-2,-2,0,0
1558441947813093,-4,-3,-1,-2,-3,0,1,0
1558441947821170,-1,-2,4,1,1,-6,-3,0
1558441947821170,1,-2,-1,2,4,5,-1,-1
1558441947835035,0,-2,-4,-6,-1,-6,-3,0
1558441947835035,-5,-5,-5,-3,-2,-1,-3,-1
1558441947843015,-2,0,0,-1,-5,-2,-1,-4
1558441947843015,-2,-1,1,-4,-6,-2,-1,-2
1558441947858971,0,1,0,1,0,2,2,-1
1558441947858971,1,1,2,-2,5,2,3,3
1558441947858971,-3,-4,-8,-5,-6,-5,-6,-4
1558441947858971,-1,0,2,2,0,5,-3,-1
1558441947872932,2,1,6,4,4,-4,1,3
1558441947872932,0,1,-2,1,5,-3,4,-1
1558441947879914,-2,-2,-2,2,2,0,0,0
1558441947879914,-2,-2,-4,-3,-6,-1,-2,-2
1558441947894874,-1,-1,2,2,-1,7,-1,1
1558441947894874,1,2,3,6,4,0,0,1
1558441947903851,-2,0,-1,-3,-4,0,-2,0
1558441947903851,-3,-4,-5,-5,-8,-10,-4,-4
1558441947919125,1,2,3,2,7,-2,3,0
1558441947919125,0,-2,0,-4,-3,-7,-3,-1
1558441947919125,-2,-4,-4,-2,0,3,-3,-4
1558441947919125,-4,-1,-4,-2,-4,1,-2,-2
1558441947933133,-3,0,1,-1,0,4,-1,-1
1558441947933133,2,1,1,2,5,3,3,3
1558441947940752,1,-2,0,-3,-7,-10,-6,-2
1558441947940752,0,-3,-6,-6,1,11,2,0
1558441947955711,-2,0,-3,-2,-8,-9,-2,-5
1558441947955711,-2,-2,-4,-1,0,2,1,0
1558441947963021,2,2,5,4,3,-3,1,1
1558441947963021,-2,-4,-4,-2,-7,-12,-5,-2
1558441947986964,0,-2,-1,-2,-1,6,-2,-1
1558441947986964,1,4,-1,-1,1,0,3,3
1558441947987627,-2,-1,-4,-3,-5,6,-2,-4
1558441947987627,-1,1,4,5,-3,-5,-2,-3
1558441947993749,3,2,0,3,13,0,13,7
1558441947993749,-1,-2,-1,0,-2,-3,-4,-2
1558441948000926,-1,0,0,-2,-8,-2,-8,-3
1558441948000926,-4,-3,-3,1,4,3,0,0
1558441948015552,-2,-2,-2,-14,-5,2,2,1
1558441948015552,-2,0,2,3,4,-3,-3,-2
1558441948023543,-1,1,6,1,2,9,1,-3
1558441948023543,-1,-4,-13,-4,-5,-12,-7,-2
1558441948038492,1,-4,-6,0,1,-5,0,1
1558441948038492,-1,-1,1,-4,-3,5,-2,-1
1558441948039489,-1,-1,-1,1,2,0,5,0
1558441948039489,2,5,6,3,7,0,6,3
1558441948052481,-1,-2,7,4,-8,-13,-9,-5
1558441948052481,-1,-2,-14,-8,-2,2,-2,-2
1558441948060432,1,-1,4,8,7,6,3,3
1558441948060432,-3,-3,-4,-10,-8,2,-5,-5
1558441948075391,-2,0,-4,-4,-4,-1,-6,-2
1558441948075391,-2,-1,9,3,-5,-2,-2,0
1558441948083587,0,2,-2,-4,0,0,1,1
1558441948083587,1,1,-3,3,8,5,7,3
1558441948098643,-3,-8,-8,-4,-7,-27,-8,-3
1558441948098643,0,-1,1,-4,-6,-4,-4,-4
1558441948099328,-1,2,-2,0,-3,-2,-1,-1
1558441948099328,-5,-4,2,-1,-5,4,-3,-8
1558441948113290,0,1,6,6,2,5,-3,-2
1558441948113290,1,1,-4,-4,6,-2,7,4
1558441948120579,-1,-8,-1,1,5,-3,-1,8
1558441948120579,0,2,4,2,0,13,1,-4
1558441948135537,-3,0,-7,-6,-7,-5,-9,-4
1558441948135537,-4,-5,-1,6,4,4,2,-1
1558441948143516,1,2,-7,-10,-8,-7,-1,-2
1558441948143516,1,-1,6,2,4,4,-1,1
1558441948160167,1,2,4,4,3,15,5,-1
1558441948160167,2,1,-6,2,-3,-3,-4,-2
1558441948160167,-3,-3,-4,-11,-1,-8,-1,-2
1558441948160167,-2,-2,-5,0,-6,-5,-4,-1
1558441948173421,-2,0,-2,-5,-3,-6,1,0
1558441948173421,-2,-2,-6,-9,-5,2,-1,-2
1558441948180408,-4,-5,-2,4,-1,-8,-1,-1
1558441948180408,1,0,2,-5,-4,-6,-2,0
1558441948196150,1,0,1,0,5,6,2,0
1558441948196150,-4,-2,4,-2,-4,-1,-1,0
1558441948203300,-3,-2,1,1,1,1,0,-2
1558441948203300,-5,-4,-9,-4,-2,-2,-4,1
1558441948219007,-2,-1,-4,-3,-4,7,-5,-3
1558441948219007,2,1,2,2,4,-1,3,-1
1558441948219007,0,0,1,0,-3,-9,-3,-2
1558441948219007,-2,-3,-6,-2,1,0,1,-1
1558441948232970,0,-1,6,6,2,-5,0,2
1558441948232970,-3,-1,-13,-14,-4,-6,-4,0
1558441948239981,-1,0,-2,1,-1,8,2,-2
1558441948239981,0,2,3,1,1,-1,0,-2
1558441948256181,-1,-4,-3,-1,-4,-6,-3,-4
1558441948256181,-1,0,6,3,-4,-5,-3,-2
1558441948263173,0,-3,-1,0,2,5,-2,0
1558441948263173,2,2,7,2,2,-12,5,6
1558441948279118,-2,-1,-6,-5,-1,0,-1,-1
1558441948279118,-2,-1,3,2,3,8,0,-2
1558441948279118,-1,1,-5,-4,-3,-7,-2,-2
1558441948279118,-3,-1,0,-1,-5,-1,-2,-4
1558441948294805,-1,-1,0,1,-3,-3,-1,-2
1558441948294805,-3,-2,-2,-3,-4,0,-3,-3
1558441948301070,-3,-4,-5,-4,-7,3,-7,-5
1558441948301070,-1,0,4,4,7,3,5,3
1558441948316025,0,1,2,-1,2,-16,2,1
1558441948316025,1,-1,-1,-1,-6,-10,-8,-2
1558441948323001,0,3,9,6,7,10,10,3
1558441948323001,-2,-4,-10,-9,1,6,-2,-2
1558441948337967,-2,-2,-2,-1,-10,1,-8,-6
1558441948337967,0,0,-9,-8,1,-7,1,0
1558441948345962,-1,-2,4,4,4,3,4,1
1558441948345962,-1,-2,0,-1,-2,2,-4,-2
1558441948354646,-2,-2,1,1,1,6,0,-2
1558441948354646,-1,-3,1,1,-2,5,-1,-1
1558441948360907,2,3,4,1,-3,-9,-5,-3
1558441948360907,0,-1,1,4,0,-5,0,0
1558441948375618,-1,2,-4,-10,8,10,8,5
1558441948375618,-1,0,-3,5,-5,-5,-4,0
1558441948383641,-6,-3,-11,-7,-7,-1,-3,-5
1558441948383641,-2,-1,5,1,-2,-2,-3,-1
1558441948397563,-1,0,2,0,-4,-9,-4,-3
1558441948397563,-1,-2,0,0,1,-1,0,0
1558441948406788,1,-1,-1,-3,-2,9,1,1
1558441948406788,0,1,0,0,-3,-7,-3,-3
1558441948412762,-1,-2,-1,1,3,9,5,2
1558441948412762,1,0,2,0,10,4,10,3
1558441948420473,1,-3,-3,-2,-4,-6,-5,-3
1558441948420473,0,0,2,3,2,-2,-5,-2
1558441948435716,0,-2,-6,-13,-2,0,3,1
1558441948435716,1,2,-3,0,1,5,-1,-4
1558441948442439,-5,-3,-1,4,-2,-2,-6,-4
1558441948442439,-3,-2,2,-4,-5,-7,-1,-1
1558441948458367,-5,-5,-9,-7,-9,0,-7,-4
1558441948458367,-3,0,8,3,0,6,-2,0
1558441948466613,2,1,-5,-3,-3,-14,-1,0
1558441948466613,0,-2,-2,0,2,-5,-1,0
1558441948481583,-1,2,7,8,7,-2,3,5
1558441948481583,-3,-2,-2,-3,-9,-2,-6,-9
1558441948482304,-3,-1,-3,-3,-3,0,-3,-1
1558441948482304,1,-2,0,1,0,8,3,1
1558441948495543,1,-1,0,5,4,-2,1,-1
1558441948495543,-2,-2,-7,-13,-4,-3,2,1
1558441948503513,-1,0,-3,-5,-4,-7,-3,-2
1558441948503513,0,-2,0,-4,-4,6,-1,-3
1558441948518477,-2,-1,-2,1,-2,-4,-2,-1
1558441948518477,-2,-3,1,4,-1,-2,-2,-1
1558441948525190,0,-1,0,-2,-4,-5,0,-2
1558441948525190,0,-1,-6,-3,4,5,4,2
1558441948541148,-1,-2,-1,2,-2,8,-6,-4
1558441948541148,-1,-1,0,0,0,-3,-2,-1
1558441948542145,-1,0,-2,-3,4,1,1,-1
1558441948542145,-4,-2,-2,-2,-4,-9,-3,-3
1558441948556108,-1,0,1,0,-3,-8,2,-3
1558441948556108,0,-3,-2,-5,-5,-4,-4,-1
1558441948563375,0,-2,-2,2,1,4,0,2
1558441948563375,0,-1,-3,-2,3,11,4,-2
1558441948578308,-2,-2,-1,3,0,1,-1,-1
1558441948578308,2,1,4,2,2,-12,1,2
1558441948586172,2,2,1,-3,4,4,2,2
1558441948586172,0,0,-3,-5,-7,-3,-4,-1
1558441948601245,-3,-2,-5,-2,-4,0,-4,-4
1558441948601245,-4,-3,-5,-3,-4,2,0,-2
1558441948601985,-2,0,0,2,0,-8,-2,0
1558441948601985,0,0,-2,-2,0,-2,-1,-1
1558441948615560,2,0,3,-1,2,-8,1,1
1558441948615560,-2,-1,-2,5,2,1,1,-2
1558441948623539,-2,-4,-2,-5,-6,-2,-1,-3
1558441948623539,0,-1,2,4,-4,-7,-3,-2
1558441948638500,-1,-1,-2,-1,-1,2,2,0
1558441948638500,0,0,0,-1,2,7,2,2
1558441948645200,-2,-2,2,4,1,1,-2,-1
1558441948645200,-2,-1,-5,-7,-8,-8,-4,-3
1558441948661415,-1,-2,-6,-2,-8,-7,-6,-5
1558441948661415,-1,1,-1,-2,-1,4,4,2
1558441948662154,-1,0,-1,0,6,14,4,0
1558441948662154,-2,-3,-1,3,2,7,4,0
1558441948675120,0,-1,1,-1,1,-7,-3,0
1558441948675120,-2,-3,-2,-3,-4,-12,-5,-1
1558441948683354,-1,0,0,0,-4,-3,-1,-1
1558441948683354,-1,1,-2,-11,-2,5,0,-2
1558441948698086,-2,-2,-4,-3,-3,2,-1,-2
1558441948698086,-1,-1,0,0,2,3,0,-2
1558441948706096,0,-2,-4,-3,6,9,1,-1
1558441948706096,1,0,4,6,-6,-8,-4,-1
1558441948721273,-3,-2,-7,-4,-2,-7,-3,-4
1558441948721273,1,2,0,-4,-1,13,4,0
1558441948721996,0,-1,6,5,5,-7,1,-1
1558441948721996,0,-1,-1,5,-2,5,0,0
1558441948736191,2,-1,-3,-11,-6,1,-3,1
1558441948736191,-1,-1,1,4,-3,-12,-4,0
1558441948743190,-1,1,-9,-12,-4,1,1,0
1558441948743190,-5,-3,1,8,1,0,-4,-4
1558441948757898,-1,0,4,6,3,3,1,-1
1558441948757898,-1,-2,0,1,-1,-6,-4,-3
1558441948766158,1,0,-5,-8,-7,-5,-3,4
1558441948766158,-1,0,4,4,1,-15,-2,-2
1558441948780865,-4,-2,-11,-5,-2,7,-4,-3
1558441948780865,-3,-2,2,3,-2,-2,-3,-3
1558441948781834,-1,1,-4,-4,0,0,-2,0
1558441948781834,1,0,-2,-10,2,1,0,2
1558441948795794,0,-1,5,1,-5,2,1,0
1558441948795794,2,-1,-3,-1,3,1,1,1
1558441948803042,-1,-2,5,4,-1,-1,-1,-2
1558441948803042,-1,-2,-3,-4,-2,-3,0,1
1558441948818005,0,1,1,0,0,-1,2,1
1558441948818005,1,0,6,3,1,-6,-1,-1
1558441948825973,0,-3,-3,-1,-3,-1,-3,-4
1558441948825973,0,0,-6,-5,-6,-3,-2,-3
1558441948840676,-3,-3,0,6,7,1,1,4
1558441948840676,-2,-2,-1,0,0,7,6,-1
1558441948841672,0,0,5,3,-2,-6,-1,-3
1558441948841672,-1,-3,-5,-2,0,1,0,3
1558441948855645,-1,2,2,-1,-7,-3,-7,-5
1558441948855645,-1,0,-2,-1,5,9,-2,0
1558441948862615,-1,-1,2,-1,4,-1,-1,2
1558441948862615,2,2,1,6,1,-15,-4,1
1558441948877577,-2,-1,1,2,0,0,1,1
1558441948877577,-4,-7,-4,-2,-5,6,-1,-5
1558441948885985,-2,-1,-5,-3,-5,-8,-4,-4
1558441948885985,-3,-5,-11,-16,-4,7,-1,-1
1558441948900515,-2,-1,9,6,3,-3,5,2
1558441948900515,3,2,-9,-8,2,2,2,1
1558441948901512,-2,-3,3,9,-3,2,-6,-1
1558441948901512,-2,-1,6,4,-5,0,-2,-3
1558441948915473,4,5,0,-5,12,11,6,3
1558441948915473,2,3,3,7,0,-5,2,3
1558441948922455,-1,-3,-8,-3,-3,-5,-1,-3
1558441948922455,-3,-3,-6,-2,-2,-2,-2,-2
1558441948937414,-1,0,7,-6,-7,4,-3,-2
1558441948937414,1,1,-7,-4,-3,-10,-3,-1
1558441948945393,2,6,13,21,16,3,9,5
1558441948945393,-7,-5,1,-13,-4,-4,-3,-5
1558441948961387,-3,-5,-15,-6,-6,-1,-3,0
1558441948961387,-3,-5,2,-2,-7,-4,-7,-3
1558441948961387,3,1,-10,-10,-10,-3,-1,-3
1558441948961387,-1,2,7,12,18,12,13,7
1558441948975318,-1,-2,1,-5,-1,-9,-2,-3
1558441948975318,-2,-2,-4,-10,-4,-3,-6,-3
1558441948983487,-4,-4,-2,-1,-5,-4,-5,-2
1558441948983487,1,1,0,3,2,5,1,1
1558441948998589,0,-2,-2,-2,-4,-3,-4,-2
1558441948998589,-4,-2,-8,-2,-1,-5,-1,-2
1558441949006236,0,-2,-4,-7,0,-2,1,1
1558441949006236,-1,2,-1,0,1,-1,-5,-3
1558441949021654,-1,0,-3,0,-1,0,-2,1
1558441949021654,-2,-2,-2,-3,-9,0,-3,-3
1558441949022189,-1,-2,4,-1,-4,-3,-3,-1
1558441949022189,3,1,-2,-2,1,3,3,0
1558441949035154,-1,0,1,5,-3,-8,-4,-3
1558441949035154,-4,-2,0,-9,-6,-4,-2,-1
1558441949043135,-3,-4,-18,-4,4,10,8,2
1558441949043135,0,-1,-2,6,0,-7,4,-1
1558441949058096,1,0,-3,-1,-4,1,-3,-3
1558441949058096,-1,-3,4,3,0,2,1,2
1558441949065534,-1,0,3,-2,0,-8,-4,-2
1558441949065534,2,1,-2,0,5,0,1,0
1558441949081429,-2,-3,-4,-1,-1,-1,0,-2
1558441949081429,-1,0,2,-1,-5,-7,-3,-2
1558441949082030,-1,-1,1,1,1,4,-2,0
1558441949082030,0,-3,-3,3,-3,-2,-3,-1
1558441949096989,-1,-1,-5,-15,-1,-2,-1,0
1558441949096989,-2,1,5,5,6,15,0,-3
1558441949103301,-5,-3,-7,-7,-10,-10,-3,-4
1558441949103301,1,4,1,-1,3,-15,-1,1
1558441949118256,0,-4,-2,5,0,8,4,-2
1558441949118256,-2,-6,4,2,4,-3,-1,2
1558441949126113,1,0,-1,-2,-1,6,-2,-4
1558441949126113,-1,-3,-6,-6,-3,5,0,-1
1558441949140871,-2,-1,0,2,0,-5,-3,-2
1558441949140871,-1,1,-2,3,1,-1,-2,-1
1558441949141870,-5,-3,2,-3,-6,-3,-3,-2
1558441949141870,1,-1,0,-2,-11,-6,-6,-1
1558441949155125,2,0,2,0,6,-1,3,2
1558441949155125,-1,-2,-8,-5,-3,4,0,-2
1558441949163137,-1,-1,4,1,-1,3,-2,-1
1558441949163137,0,0,-2,-4,-3,-3,2,-1
1558441949178062,0,3,7,5,-1,-8,-6,-1
1558441949178062,-1,-1,-4,-4,1,-4,2,0
1558441949186056,-4,-9,-6,-5,-5,-7,-2,-2
1558441949186056,-2,-1,-2,-3,2,1,-5,-2
1558441949201827,0,-1,2,9,0,5,2,-1
1558441949201827,0,3,-2,-5,-4,-5,-2,0
1558441949201827,-2,1,3,2,0,-2,0,-1
1558441949201827,-4,-6,4,-1,-9,-3,-8,-5
1558441949215939,-1,-2,-7,-2,3,-2,-2,0
1558441949215939,0,-4,-3,-3,-2,4,0,-2
1558441949222906,0,0,3,2,3,-1,0,1
1558441949222906,-2,-2,-5,-1,2,7,6,2
1558441949237613,0,-1,2,-3,-4,-7,1,0
1558441949237613,-2,-1,1,0,-5,-4,-3,-6
1558441949245841,0,0,-1,-1,0,-1,-5,-3
1558441949245841,3,4,3,-4,-1,-8,2,2
1558441949260555,-2,-2,-4,-2,1,-2,-4,2
1558441949260555,-1,1,-1,1,4,7,4,2
1558441949268559,-1,1,-1,2,-7,3,-1,-2
1558441949268559,1,1,1,-2,3,-6,-2,0
1558441949275514,-1,0,0,-4,-2,0,-1,-4
1558441949275514,1,0,3,4,4,-3,-1,2
1558441949283673,-2,-1,-3,-3,3,3,0,-1
1558441949283673,-5,-4,-5,-3,-9,2,-2,-3
1558441949299449,-3,-4,-1,1,-3,-1,-2,-3
1558441949299449,-1,-1,-6,-11,0,-6,-2,0
1558441949305754,0,0,4,2,0,0,4,4
1558441949305754,0,0,0,2,4,11,1,0
1558441949320719,-2,-4,-4,-5,-1,1,-1,-2
1558441949320719,-1,-2,0,3,-4,-7,-5,-2
1558441949328679,0,-2,-4,-4,-1,-1,2,1
1558441949328679,-1,-1,0,1,3,0,-1,0
1558441949335676,1,2,7,3,3,9,5,1
1558441949335676,-3,-4,-3,0,-1,-1,-2,-2
1558441949343666,4,1,2,0,-1,-5,-1,0
1558441949343666,-1,-2,-4,2,-5,-3,-2,-2
1558441949359379,0,-1,-6,-4,2,6,-1,0
1558441949359379,-2,0,4,0,-4,-4,-2,-2
1558441949365595,-2,0,-4,-1,-2,-5,-4,-2
1558441949365595,0,-1,-2,-1,-1,3,-3,-4
1558441949380294,0,-1,-4,-4,-6,-5,-2,-1
1558441949380294,-1,-1,-3,-2,6,-1,3,2
1558441949389336,-2,1,-1,2,4,2,1,1
1558441949389336,-2,-1,-2,-3,-6,4,0,-3
1558441949395466,-5,-6,1,0,-3,-8,-2,-2
1558441949395466,0,2,2,3,-1,2,-4,-1
1558441949403447,-2,-5,-9,-5,-3,1,-1,-2
1558441949403447,0,-3,0,1,5,-2,0,1
1558441949418418,1,3,2,3,-3,-10,-5,-1
1558441949418418,-2,-1,-9,-5,-9,-3,1,-1
1558441949426162,-1,-1,2,-2,-3,6,0,-2
1558441949426162,-3,0,2,0,0,-5,-1,1
1558441949440072,1,0,1,1,7,9,3,-1
1558441949440072,2,0,7,4,8,-2,1,2
1558441949448053,2,0,-3,1,-5,-7,-5,-4
1558441949448053,-2,-3,-8,-12,-12,-5,-2,-2
1558441949464382,-3,-1,-2,-3,-3,0,-4,0
1558441949464382,-3,-4,-5,-2,-5,2,-1,-2
1558441949464382,0,5,5,4,5,5,1,2
1558441949464382,-2,-2,4,4,5,1,-1,-1
1558441949477970,0,-2,-4,-1,-1,1,0,0
1558441949477970,0,-1,0,2,-8,-4,-5,-5
1558441949486232,-2,-4,0,-6,1,9,1,0
1558441949486232,2,-2,-2,-3,0,-11,-1,0
1558441949501191,0,1,1,-3,-2,-7,1,2
1558441949501191,-2,-4,-4,-4,0,7,-1,-4
1558441949509263,-5,-2,0,3,2,-5,2,-1
1558441949509263,-1,3,2,-3,2,7,0,1
1558441949523848,-3,-8,-4,2,-9,-14,-2,-2
1558441949523848,-2,0,-1,-9,-4,-2,-3,1
1558441949523848,-1,-3,-4,2,2,0,1,-4
1558441949523848,-2,2,1,-1,-1,4,-3,-3
1558441949538179,-1,1,-1,-3,-1,0,-5,-2
1558441949538179,2,1,2,1,5,3,4,3
1558441949546018,-1,1,3,-2,-2,0,-1,-1
1558441949546018,-2,-5,-7,-1,0,-1,-3,-3
1558441949561049,-1,0,-1,2,-1,-4,-1,-1
1558441949561049,1,-1,-1,-1,-6,-5,-1,-3
1558441949569047,0,0,2,-4,-2,-6,0,1
1558441949569047,1,2,0,2,2,1,0,-2
1558441949583951,-1,-1,-1,-5,-3,3,-3,-1
1558441949583951,-5,-5,0,2,4,6,2,-1
1558441949583951,0,0,1,5,1,-6,-3,1
1558441949583951,-1,-5,-9,-7,-11,-12,-4,-5
1558441949597883,0,1,3,-3,6,7,4,3
1558441949597883,2,3,-2,-2,-3,-1,-1,-1
1558441949605906,1,1,0,-2,-4,-6,-3,0
1558441949605906,-10,-6,-4,0,4,-3,2,-1
1558441949620869,0,-5,-2,-5,-4,3,-4,-4
1558441949620869,-3,-3,-5,4,-3,-2,-3,-3
1558441949628827,-1,2,2,-12,-2,0,4,2
1558441949628827,-2,-7,-10,-2,-5,-12,-7,-2
1558441949643774,-1,1,1,9,0,2,-1,0
1558441949643774,1,-3,1,0,-1,-2,-3,-2
1558441949644528,-1,-4,-7,-1,-1,-5,-7,-4
1558441949644528,2,5,4,-4,-6,3,4,0
1558441949657489,-3,-1,-5,-1,2,-2,0,-2
1558441949657489,-1,0,0,-3,2,1,0,2
1558441949665510,1,1,1,5,2,1,0,-1
1558441949665510,-1,-3,6,2,0,9,0,-1
1558441949689669,-2,0,-1,-2,-5,-3,-4,-3
1558441949689669,0,3,2,1,6,5,3,-2
1558441949689669,1,-5,-7,-5,-4,-15,-6,0
1558441949689669,5,0,-4,-12,1,-5,-2,0
1558441949703636,-1,-2,-3,3,-1,3,3,0
1558441949703636,-3,-2,-1,-4,-1,2,-3,-3
1558441949704368,-7,-5,-3,4,0,10,2,-3
1558441949704368,5,7,7,7,-2,-11,-1,2
1558441949718493,-2,-4,-11,-12,-2,-6,-3,-6
1558441949718493,1,-2,-1,2,-1,-4,-3,1
1558441949725313,0,1,3,6,-2,2,-1,-2
1558441949725313,-2,1,5,0,1,7,3,2
1558441949740269,1,1,-4,-4,6,11,4,3
1558441949740269,-3,0,5,4,-5,-9,-2,-2
1558441949749244,-3,-4,-11,-10,-3,0,-2,0
1558441949749244,-3,-2,4,8,-1,1,-1,-3
1558441949763448,1,3,5,-1,2,-6,2,2
1558441949763448,3,-4,-1,-3,1,-4,1,-1
1558441949764207,0,-1,4,2,-1,-1,-5,-1
1558441949764207,-2,-2,1,1,2,8,3,0
1558441949778170,-2,-3,-2,-3,-4,-4,-3,-3
1558441949778170,2,2,-5,-6,-1,-3,-1,0
1558441949785418,-3,-2,0,0,0,0,1,0
1558441949785418,0,1,-4,-1,-1,1,-5,-4
1558441949801138,-1,2,4,0,-6,-6,-4,-1
1558441949801138,-2,-9,-6,-8,-3,-6,-2,-1
1558441949809202,2,1,1,-4,-2,3,1,1
1558441949809202,-3,-4,-3,-1,0,3,-3,-1
1558441949823322,-2,-4,-2,4,-7,-7,-2,1
1558441949823322,-1,0,-3,-6,0,0,1,-3
1558441949824045,0,1,1,-2,5,-12,-2,2
1558441949824045,0,-2,-1,-2,-5,-4,-3,-3
1558441949838279,3,2,6,1,9,11,11,6
1558441949838279,-2,1,-3,1,-3,4,-1,-1
1558441949845240,-4,-4,-6,0,-6,-1,-2,-4
1558441949845240,0,3,8,3,3,-8,-1,2
1558441949859948,-3,-4,-8,-9,-5,-1,-4,-2
1558441949859948,-2,-2,-2,-1,3,6,0,-1
1558441949868923,1,1,4,4,4,6,0,-1
1558441949868923,2,3,0,-1,1,-2,-1,-1
1558441949884256,-2,-4,-8,-7,-14,-9,-11,-5
1558441949884256,0,0,1,2,0,0,1,1
1558441949884256,0,0,-3,-3,-5,-13,0,0
1558441949884256,-3,-4,-9,-1,1,11,3,-2
1558441949897857,-1,-1,0,3,3,-5,0,-3
1558441949897857,-1,0,-4,-5,-6,0,-5,-3
1558441949906234,-3,-2,2,1,-1,5,3,0
1558441949906234,-4,-1,-4,-5,-1,0,1,-3
1558441949921251,5,3,1,3,3,-7,1,1
1558441949921251,-8,-5,-3,1,-3,-10,-4,-1
1558441949929241,0,-2,-2,-3,3,9,4,2
1558441949929241,-2,-2,0,2,-2,-2,-4,0
1558441949944201,-2,1,-1,0,0,7,-1,-3
1558441949944201,3,4,4,8,1,-4,1,2
1558441949944201,-5,-8,-6,-9,-1,-2,1,-1
1558441949944201,0,-4,-3,1,1,1,1,-1
1558441949957690,-2,-3,3,0,-3,1,0,-3
1558441949957690,0,2,3,2,0,-9,-4,2
1558441949965664,-3,1,0,0,-4,-1,-8,-7
1558441949965664,-2,-1,-4,-8,-12,-2,-4,-2
1558441949980626,-3,-3,-2,2,4,-1,1,1
1558441949980626,0,-1,-8,-12,-3,3,5,-2
1558441949988602,-1,2,-1,-2,-4,-9,-3,-2
1558441949988602,0,-2,-6,-1,2,7,-2,-1
1558441950003562,0,1,3,1,0,2,1,2
1558441950003562,-2,-1,-3,3,0,-4,2,3
1558441950004588,1,0,3,-9,0,-2,-4,-2
1558441950004588,-1,2,-2,0,1,4,3,-2
1558441950017561,-3,-5,-3,-3,-6,-10,-6,-5
1558441950017561,0,-3,3,-1,0,1,-2,-2
1558441950025504,-1,-1,-3,3,-2,4,0,-1
1558441950025504,0,-1,3,1,-1,-7,0,2
1558441950040465,4,2,6,7,4,-4,0,3
1558441950040465,-4,-3,-8,-10,2,7,1,-1
1558441950049504,4,-1,-5,-11,-5,-2,-5,0
1558441950049504,-2,2,4,-1,3,-3,0,1
1558441950063886,-1,-3,-2,3,0,-3,-1,1
1558441950063886,-1,-3,1,2,-2,-8,-1,1
1558441950064416,-3,-1,-2,1,-2,3,1,0
1558441950064416,5,1,0,4,1,3,1,2
1558441950077829,-8,-3,0,-6,-1,-2,-1,-5
1558441950077829,0,0,2,4,1,1,-2,-2
1558441950085344,-2,-3,-8,-3,-6,-6,-5,-4
1558441950085344,-3,-4,-2,-6,-2,4,0,-1
1558441950100828,0,0,2,2,-7,-4,-5,-1
1558441950100828,-2,1,3,2,4,4,1,1
1558441950108284,-1,1,2,8,5,1,5,3
1558441950108284,0,0,-4,-3,-3,-7,-3,0
1558441950123670,-3,-4,-10,-17,-4,6,-2,-3
1558441950123670,-2,0,5,2,-8,-12,-7,-4
1558441950124240,1,0,-3,0,4,2,0,2
1558441950124240,-2,-4,-7,-3,1,-11,-3,-2
1558441950138637,-1,-2,-4,-4,0,4,-1,-2
1558441950138637,2,1,0,0,-1,3,-2,-2
1558441950153989,0,-1,4,1,0,4,4,1
1558441950153989,-3,-2,3,0,-4,0,-3,-2
1558441950160350,0,-2,-1,-1,-2,-4,-1,1
1558441950160350,0,2,0,-3,6,10,4,0
1558441950169338,-2,-1,3,1,-3,-9,-5,-1
1558441950169338,-1,-1,-3,0,-3,-4,-4,-1
1558441950183267,2,0,-2,-5,2,3,1,1
1558441950183267,0,2,-4,-8,-2,1,1,2
1558441950190895,-2,-1,-2,5,-5,-12,-5,-4
1558441950190895,1,-1,-2,0,-1,-6,1,-1
1558441950198134,-4,-4,3,5,7,3,3,1
1558441950198134,-3,-4,-3,-2,-5,-1,-2,-2
1558441950206106,1,1,3,-1,-4,2,0,0
1558441950206106,1,1,-11,-5,1,3,4,1
1558441950221082,0,0,2,2,-5,-4,-4,-1
1558441950221082,0,1,0,2,6,4,1,0
1558441950229155,2,-1,-1,-2,-4,1,-3,-3
1558441950229155,-1,-3,4,2,-1,2,1,0
1558441950243353,1,1,-5,-2,-2,3,2,0
1558441950243353,-1,-2,-4,-3,-6,-16,-5,-1
1558441950251314,-4,0,0,-1,0,6,-1,-1
1558441950251314,0,-2,5,-1,2,-1,-1,-2
1558441950258062,-3,-1,-3,-2,-1,0,-3,-2
1558441950258062,-2,-2,2,1,-8,-4,-4,-4
1558441950265316,-3,-3,-1,3,0,2,-1,-4
1558441950265316,-4,-6,-3,-7,-12,-2,-9,-6
1558441950280002,1,0,-1,-5,7,5,6,3
1558441950280002,3,2,3,6,9,-11,3,3
1558441950288977,-1,-1,1,0,5,-2,5,2
1558441950288977,-1,0,0,0,3,5,3,3
1558441950302940,-2,-2,-2,-2,-10,-2,-8,-5
1558441950302940,-1,-1,-2,-1,-4,10,-2,-3
1558441950310965,-1,2,-1,-5,-5,-14,-7,0
1558441950310965,-3,-5,3,1,-1,-8,-3,-3
1558441950317957,-1,-3,-1,0,7,8,6,3
1558441950317957,0,0,0,-1,1,0,1,-1
1558441950324881,-3,-3,-5,1,-6,-1,-2,-3
1558441950324881,1,1,-3,-6,0,-1,-1,1
1558441950341836,0,1,2,3,1,1,-1,0
1558441950341836,-2,-4,-5,-1,-4,2,-6,-3
1558441950348048,-1,-4,1,-5,0,-1,0,-1
1558441950348048,0,0,0,6,3,-3,5,2
1558441950362780,-3,-3,-5,-5,-2,-2,-1,-4
1558441950362780,1,1,3,0,-5,2,-4,3
1558441950370757,0,-2,-3,-1,3,-6,-4,-4
1558441950370757,0,0,-1,-2,-3,-1,-2,-3
1558441950386219,0,0,3,5,-3,-10,-3,-3
1558441950386219,-2,-3,-4,-12,1,5,5,0
1558441950386716,-2,-4,-7,-3,-5,-2,-3,-3
1558441950386716,-2,1,4,0,1,4,0,0
1558441950400778,0,-1,1,3,1,-1,-2,-2
1558441950400778,0,-2,4,2,-1,4,-2,-2
1558441950407264,1,4,-5,2,7,1,4,3
1558441950407264,-4,-4,-6,-12,-8,-3,-4,-5
1558441950423679,-4,-3,-5,-2,-7,-4,-4,-2
1558441950423679,-1,2,6,4,4,-4,2,0
1558441950431199,0,0,1,-1,-3,-2,-1,0
1558441950431199,1,0,-3,2,1,-2,-4,-2
1558441950446516,-1,-1,0,1,3,9,3,0
1558441950446516,1,-3,-2,0,1,-2,4,2
1558441950447155,-1,0,2,-2,4,1,0,2
1558441950447155,-2,1,2,1,1,2,-4,-1
1558441950461149,0,-1,-2,1,-9,-11,-8,-3
1558441950461149,-2,-1,-5,-2,3,1,-1,-1
1558441950468390,2,-1,-3,-2,2,7,3,2
1558441950468390,-1,-1,-2,0,0,-2,1,-2
1558441950483314,-1,0,4,-3,-2,-4,-5,-2
1558441950483314,-3,-2,-4,4,-3,2,0,-1
1558441950491042,-4,-3,-3,-1,-4,-6,-3,0
1558441950491042,0,-2,-6,-5,2,-2,6,3
1558441950506031,-2,-1,-2,-1,1,5,2,-1
1558441950506031,-1,-1,-5,-3,-6,2,-1,-1
1558441950506995,-3,-4,-3,-1,1,-5,-2,-4
1558441950506995,0,0,3,4,-3,-7,-4,0
1558441950521061,2,3,2,-2,-2,0,-1,-1
1558441950521061,0,-1,-2,1,4,9,4,1
1558441950528346,0,2,12,6,6,9,5,1
1558441950528346,-4,-1,-3,-2,-8,-6,-7,-4
1558441950542899,-3,-3,-6,-6,-3,-4,0,0
1558441950542899,-1,0,-2,-1,6,-3,-1,-2
1558441950551331,-1,0,-3,1,-3,0,0,-1
1558441950551331,-1,-1,-1,0,4,2,5,-1
1558441950566197,2,1,4,3,0,2,-1,-2
1558441950566197,-2,-4,-3,-3,-8,-8,-7,-2
1558441950566839,-4,-2,-3,-5,1,-1,-2,-2
1558441950566839,0,-1,0,-1,-3,3,-1,-1
1558441950581115,-1,0,1,1,0,-12,1,1
1558441950581115,1,1,7,3,2,-1,0,2
1558441950588133,0,-1,-9,-6,-7,3,0,-2
1558441950588133,-2,-2,-5,-5,-2,4,-3,-4
1558441950603736,-1,-2,-2,-1,2,2,-1,1
1558441950603736,-2,-2,-3,-3,-7,-19,-7,-3
1558441950611755,-3,-1,1,-1,0,2,-4,-1
1558441950611755,4,3,8,5,8,11,8,5
1558441950626796,0,-1,-9,-8,3,2,1,2
1558441950626796,0,1,6,3,-3,-3,1,-2
1558441950626796,0,-4,-7,-17,-9,-6,-4,-1
1558441950626796,-1,-1,-5,-1,-6,-3,-3,-3
1558441950640638,-1,-3,0,-2,1,1,-2,-3
1558441950640638,-4,-1,1,3,-2,-3,-1,-2
1558441950647954,-1,-2,-6,-2,-1,4,-1,-2
1558441950647954,1,-1,4,0,6,5,5,2
1558441950662580,-1,-2,-3,-1,-6,-24,-10,-3
1558441950662580,-3,-5,-6,-5,-5,3,-7,-5
1558441950670556,3,2,6,3,-2,8,5,2
1558441950670556,-2,-1,-3,-1,1,1,0,-1
1558441950685562,-3,1,4,2,-2,-4,-3,-1
1558441950685562,0,-1,-4,-4,-3,-6,0,-1
1558441950686516,1,1,5,3,3,-9,0,3
1558441950686516,-2,-3,-8,-7,-7,1,-6,-4
1558441950700504,1,-2,1,3,2,6,1,-3
1558441950700504,-5,-2,-4,-4,-7,-2,-4,-3
1558441950707459,2,0,4,1,3,3,-1,1
1558441950707459,1,0,3,9,2,-6,-4,-1
1558441950723417,-1,-2,-12,-7,0,-1,1,0
1558441950723417,-1,-4,-7,-5,-1,-2,-1,-3
1558441950738837,-3,-1,-7,-3,-3,3,-3,-3
1558441950738837,-2,-1,8,7,3,0,5,1
1558441950747685,1,2,3,3,0,2,2,0
1558441950747685,1,0,-4,-8,-2,0,-2,-1
1558441950748350,0,-1,1,0,3,-5,0,0
1558441950748350,-2,-1,-1,-3,-3,-4,-7,-4
1558441950760318,-4,-1,-1,-1,-1,11,2,0
1558441950760318,0,0,-2,0,-2,5,4,1
1558441950768297,-1,0,2,-1,-3,-14,-6,-3
1558441950768297,0,-1,1,0,1,8,0,-1
1558441950783257,-1,-2,0,-1,0,-11,-1,-1
1558441950783257,0,0,-4,-3,3,1,2,0
1558441950791237,-2,-1,1,3,1,-1,1,-1
1558441950791237,-4,-2,-6,-8,-8,-6,-6,-4
1558441950806196,-2,0,-2,-2,-4,2,-2,-4
1558441950806196,-2,-1,4,4,-1,1,-3,-1
1558441950806196,0,-3,-7,-6,5,12,5,1
1558441950806196,1,4,6,2,5,-7,4,3
1558441950820158,0,-1,-3,-7,-3,-3,-3,-1
1558441950820158,0,-1,3,5,-2,4,-6,-5
1558441950828138,-3,-3,-2,1,-3,1,-2,-2
1558441950828138,-3,-2,-4,-5,-4,0,-2,-2
1558441950843133,-1,1,2,2,3,-1,3,1
1558441950843133,3,4,0,4,3,-12,4,1
1558441950851259,-2,-4,-1,-7,-7,-2,-3,-3
1558441950851259,0,-1,-2,-2,-10,-3,-3,-1
1558441950866036,-1,-2,-3,-5,-2,6,-1,-1
1558441950866036,-3,-2,-4,-4,0,-1,-1,-2
1558441950867031,1,1,2,6,3,0,1,3
1558441950867031,-2,-2,-1,-3,-1,-5,0,0
1558441950879999,-2,-1,-3,0,2,12,7,2
1558441950879999,-1,-2,7,0,1,-3,1,0
1558441950888004,-2,-3,-11,-4,-1,8,-3,-5
1558441950888004,-1,0,3,0,-3,-8,-5,-1
1558441950902938,-1,0,-1,-1,-6,-9,-4,0
1558441950902938,0,-2,-1,-2,1,-5,1,1
1558441950910917,-2,1,1,1,1,2,1,-2
1558441950910917,1,0,-3,1,10,12,5,2
1558441950925876,0,1,4,0,-2,-4,-2,-2
1558441950925876,-2,-4,-2,-1,-4,0,-5,-2
1558441950926872,-2,-1,-1,-1,-5,-2,-2,-3
1558441950926872,-2,-2,-9,-7,-5,-7,-3,0
1558441950940127,0,1,1,2,-4,-5,-5,-2
1558441950940127,0,1,-2,-10,3,4,2,2
1558441950963774,-2,-2,-1,1,-1,2,0,1
1558441950963774,-1,-1,-1,0,-1,2,1,0
1558441950965768,1,-2,1,1,-1,-2,-3,-1
1558441950965768,0,1,1,0,2,8,4,2
1558441950970771,-3,1,-2,-1,-8,-9,-3,-1
1558441950970771,-3,-4,0,0,3,6,-2,-1
1558441950986036,0,-1,1,-2,1,-6,0,1
1558441950986036,1,-1,5,4,3,2,0,1
1558441950986713,1,0,-1,0,3,-2,0,-2
1558441950986713,-1,-2,-4,-6,-6,-3,0,-2
1558441951000676,-1,0,-3,0,0,2,-1,-3
1558441951000676,0,0,1,1,-1,0,-2,0
1558441951007657,1,1,-8,-7,-6,-10,-4,-2
1558441951007657,0,-1,0,4,0,-3,1,-1
1558441951024614,-6,-5,-8,-4,1,3,-2,-4
1558441951024614,-3,0,-3,-2,3,1,-1,1
1558441951030595,-2,0,5,3,-1,-2,-2,1
1558441951030595,1,-1,-2,-4,-6,-2,-3,-3
1558441951045555,1,-1,1,-2,2,-4,-2,-2
1558441951045555,1,0,-3,-1,2,-8,0,1
1558441951046551,0,-2,5,4,-3,3,-4,-2
1558441951046551,-2,-3,-3,-3,3,5,5,1
1558441951060519,0,0,6,-6,-2,0,-2,-1
1558441951060519,-3,-5,-13,-3,-6,3,-2,-5
1558441951067496,1,-1,-3,-1,-2,-10,-3,0
1558441951067496,0,0,3,3,0,1,-2,0
1558441951082469,-1,0,6,0,-3,-3,-3,0
1558441951082469,1,0,3,2,5,10,0,-1
1558441951091431,0,-2,-4,-6,-3,0,-4,-3
1558441951091431,-3,-4,-6,-3,-7,-2,-8,-3
1558441951105401,0,3,1,6,9,4,9,3
1558441951105401,0,-1,-3,-5,-7,-13,-5,-1
1558441951113386,0,-1,0,-1,3,3,-1,1
1558441951113386,-2,2,1,4,-5,-6,-7,-4
1558441951120354,-2,-3,-4,-1,-2,5,2,0
1558441951120354,-1,0,1,-4,3,-8,3,5
1558441951127336,-3,-2,0,2,-3,-7,0,-1
1558441951127336,1,0,0,-1,2,-3,-2,-2
1558441951142295,1,0,-6,-2,2,4,0,1
1558441951142295,2,0,0,2,-1,5,1,-3
1558441951151274,0,-3,1,2,2,-5,3,1
1558441951151274,-2,-3,1,-3,-2,-12,-3,0
1558441951174214,-2,-4,2,-3,-5,-2,-3,-1
1558441951174214,-2,-2,-7,-2,-3,2,0,-2
1558441951175208,2,3,4,4,1,0,-2,-1
1558441951175208,3,0,-4,-12,3,7,4,3
1558441951180352,-5,-4,-5,-1,0,-1,-2,-2
1558441951180352,0,-1,2,1,-7,-3,-8,-4
1558441951188176,1,1,-1,-1,-3,-3,-2,-1
1558441951188176,-5,-6,-1,5,8,3,8,2
1558441951203285,0,-1,-4,-7,0,2,-3,-4
1558441951203285,-1,-2,0,-1,-4,0,-1,-2
1558441951211112,-2,-1,-2,-2,-2,-6,-1,-1
1558441951211112,2,0,2,-1,-4,-8,-1,-2
1558441951225074,-2,-2,-5,-3,-9,-7,-5,-5
1558441951225074,0,2,9,11,15,8,7,5
1558441951233052,1,2,-1,-6,2,3,0,-1
1558441951233052,-3,-1,0,0,0,9,1,1
1558441951240034,1,1,-7,-1,-7,-9,-4,1
1558441951240034,-2,-2,-5,-11,-3,-7,-4,-2
1558441951248013,-2,-9,0,2,5,4,4,1
1558441951248013,2,2,0,4,2,1,-3,-2
1558441951262973,-5,-7,-1,0,-3,5,0,-2
1558441951262973,0,3,-2,-2,-4,-8,-4,-3
1558441951272162,-1,0,-4,-3,2,4,3,0
1558441951272162,-2,-2,-2,-3,-8,-7,-2,-4
1558441951293892,3,-1,2,2,3,4,0,-2
1558441951293892,0,-3,-5,1,1,2,-1,0
1558441951294889,-3,-2,4,0,5,7,2,1
1558441951294889,1,1,2,7,-2,-2,-2,0
1558441951308853,2,-1,-5,-9,-2,-18,-1,1
1558441951308853,-4,-2,-2,1,-4,-9,-8,-4
1558441951308853,-2,-2,-5,-8,-6,-3,-2,-2
1558441951308853,1,0,-2,3,1,13,2,-1
1558441951322813,-2,-1,2,6,3,12,3,0
1558441951322813,-2,-3,-1,-1,0,0,1,-1
1558441951330791,1,0,0,2,-6,-2,-3,-1
1558441951330791,1,0,0,-3,7,-1,4,0
1558441951344754,-1,0,2,-2,0,-4,-3,-4
1558441951344754,-1,-4,0,-6,-9,-7,-9,-3
1558441951353732,1,0,-4,0,3,7,2,3
1558441951353732,-1,-2,0,-3,-3,-8,-4,-1
1558441951368690,-1,0,2,0,-2,3,1,-1
1558441951368690,-1,0,-4,-2,-5,2,-1,-2
1558441951368690,-3,-4,-4,-2,-4,-1,-2,-2
1558441951368690,-3,-1,-3,5,1,3,0,-1
1558441951382654,-1,3,-2,-4,-1,-4,-3,2
1558441951382654,3,1,-1,-4,0,1,3,1
1558441951390631,-3,-4,6,2,0,-1,1,-4
1558441951390631,-3,-4,-4,-1,-4,-11,-8,-3
1558441951405894,2,0,-10,-3,-1,7,0,-1
1558441951405894,-2,-2,2,2,1,-3,-3,2
1558441951413571,4,3,2,0,0,-4,-2,1
1558441951413571,-2,-2,2,-2,3,1,-1,0
1558441951436509,-4,-1,3,-1,-4,-2,-5,-1
1558441951436509,0,1,2,1,-1,1,4,-3
1558441951437508,1,0,0,-1,10,6,3,4
1558441951437508,-2,-1,1,0,-4,0,0,0
1558441951442492,0,0,-1,-3,0,-4,-2,0
1558441951442492,0,-1,0,-1,-4,-1,-3,-2
1558441951450637,-1,2,0,0,-5,-13,-5,-3
1558441951450637,-2,-9,-6,-8,-3,-2,-1,-3
1558441951465494,1,-2,1,2,2,4,4,0
1558441951465494,-2,-1,0,2,-3,-4,-2,-3
1558441951473410,-1,0,-2,-2,4,4,3,-1
1558441951473410,-1,3,-2,-3,-3,-3,-3,-1
1558441951488370,-2,-2,0,-1,-5,-4,-3,-3
1558441951488370,-2,0,-2,-1,-1,4,-1,-1
1558441951489367,-2,-2,-5,-5,-7,-5,-4,-2
1558441951489367,0,0,0,-2,0,-1,-1,-1
1558441951503331,-1,0,2,3,1,-2,0,0
1558441951503331,0,-3,1,4,3,2,-1,0
1558441951511309,-3,-4,-1,-6,-5,2,-5,-3
1558441951511309,-1,-3,-4,-2,-7,1,1,-1
1558441951525297,1,1,2,4,7,-3,8,3
1558441951525297,1,1,-2,-2,2,-4,0,-1
1558441951533250,-1,-4,-1,-1,-3,-1,-2,0
1558441951533250,-2,-1,-2,-2,-5,-11,-5,-1
1558441951548211,-1,-1,-4,-6,-4,4,-3,-3
1558441951548211,-4,-5,-1,6,-3,2,1,1
1558441951549207,-3,2,3,2,-2,-1,-3,-3
1558441951549207,0,2,-2,-2,-2,1,0,-2
1558441951579332,0,-2,1,-2,4,-1,0,-2
1558441951579332,1,1,-2,-4,4,3,2,2
1558441951580125,0,-2,-3,0,-2,-1,-1,-1
1558441951580125,-2,-5,0,-1,-3,-13,-3,-1
1558441951585112,-3,1,-1,-2,-3,-2,-2,0
1558441951585112,-2,-2,-4,0,-2,-3,-4,-3
1558441951593301,1,-1,-3,-2,-4,0,1,-1
1558441951593301,0,1,1,3,0,1,3,-1
1558441951608052,-2,-3,-5,-9,0,-7,-3,-1
1558441951608052,-2,-1,-1,-5,-2,10,2,-2
1558441951609047,-1,-1,1,3,-1,-4,-2,-2
1558441951609047,0,-1,-1,-3,-3,-8,-1,-2
1558441951623009,-2,-4,0,3,3,10,4,3
1558441951623009,0,1,-1,-4,-2,-11,-1,1
1558441951631155,-3,-2,-2,2,3,4,-2,-1
1558441951631155,-2,0,2,-1,-4,5,-2,-2
1558441951644951,-2,0,-3,-3,-7,-11,-2,-1
1558441951644951,-3,-3,-2,-2,0,0,3,0
1558441951653928,-2,-1,1,1,2,0,2,0
1558441951653928,1,0,0,0,5,3,1,1
1558441951668888,0,3,3,-2,4,3,2,1
1558441951668888,-2,-1,-3,-1,-2,-7,-6,-2
1558441951668888,-1,-4,-5,-5,-4,4,0,-1
1558441951668888,1,2,-3,0,-2,3,-3,0
1558441951682851,0,3,2,3,1,-6,1,0
1558441951682851,-3,-8,-2,-1,4,-2,2,-3
1558441951690828,-3,-2,-4,-3,-3,-5,-4,-5
1558441951690828,-2,-4,0,-4,-3,-3,-2,-1
1558441951704794,1,-2,0,5,-6,-4,-5,-3
1558441951704794,0,2,-4,-11,-5,-1,-2,0
1558441951713769,-3,-3,-3,-2,2,0,0,0
1558441951713769,-1,0,1,0,1,-2,1,1
1558441951728934,-2,0,-3,1,-1,-1,-2,-1
1558441951728934,1,0,3,3,0,1,0,-3
1558441951728934,-1,-1,-2,-3,-5,-3,-4,-3
1558441951728934,-1,-1,-1,-3,-2,7,1,0
1558441951742690,0,-2,1,-1,-3,-2,-3,-1
1558441951742690,-1,-2,-4,-4,-7,-14,-3,-2
1558441951758657,2,0,1,3,7,3,4,1
1558441951758657,0,0,-2,-5,-2,-5,-4,1
1558441951767907,-1,-2,0,0,-2,4,-3,-4
1558441951767907,1,3,5,1,2,5,0,0
1558441951773608,-1,1,-2,-2,-4,-2,1,-1
1558441951773608,-1,-1,2,8,9,8,5,3
1558441951788599,-3,-2,-5,-7,-7,-1,-2,-1
1558441951788599,-3,-1,0,-2,-5,-2,-4,-2
1558441951789563,-2,-1,2,-3,-9,-13,-8,-4
1558441951789563,-2,0,0,1,8,6,2,0
1558441951802532,-1,-2,-4,3,0,-4,-3,0
1558441951802532,-2,-1,0,4,-1,-1,-2,1
1558441951810509,1,2,-3,-3,4,1,4,1
1558441951810509,-2,-1,-3,-4,-2,4,1,-1
1558441951825779,0,-3,0,1,1,0,-1,-2
1558441951825779,-2,0,-3,-3,-2,0,-2,-2
1558441951833447,-1,-4,-1,-9,-5,-3,-4,-3
1558441951833447,-3,-4,-6,-1,-2,-2,-2,-3
1558441951848407,-2,-1,0,-3,2,2,3,1
1558441951848407,1,2,-3,0,2,-2,2,1
1558441951849404,-1,0,-1,1,-5,-6,-5,-1
1558441951849404,-2,-4,-1,-4,-1,1,-2,-2
1558441951863435,-1,-3,1,-1,-2,-3,-2,-2
1558441951863435,-3,0,3,1,1,5,0,0
1558441951871346,0,0,-1,1,-2,3,2,2
1558441951871346,-2,-3,-6,-6,-3,-6,-2,-2
1558441951885309,1,-1,0,1,-2,-2,0,-2
1558441951885309,0,-3,-1,-2,2,-4,1,1
1558441951894286,-1,-3,-2,-4,-3,3,3,-1
1558441951894286,-2,0,-1,-1,-10,-10,-9,-6
1558441951908249,-2,1,3,7,5,2,1,-2
1558441951908249,1,-1,-4,-16,-1,3,1,1
1558441951909245,-1,-1,-1,-4,-2,-7,-3,0
1558441951909245,-3,-7,-6,0,0,2,1,-1
1558441951923209,-2,0,3,-3,-1,-4,-1,0
1558441951923209,-3,-4,0,7,0,1,-2,-3
1558441951931185,-2,2,-1,-1,2,5,0,-1
1558441951931185,0,3,2,-3,-4,4,-3,-2
1558441951954125,0,-2,-3,0,8,-4,1,3
1558441951954125,2,1,3,3,-6,-5,0,-1
1558441951955121,3,5,0,0,3,-1,-3,-3
1558441951955121,-14,-11,-1,-2,0,1,-2,-4
1558441951969084,0,-2,-4,-5,-4,-2,0,-1
1558441951969084,1,4,1,2,-1,-1,-2,-1
1558441951969084,-3,-10,-3,0,-4,-4,-3,-5
1558441951969084,5,6,0,-1,-1,4,1,-3
1558441951983316,-1,2,-6,-2,-2,4,-2,3
1558441951983316,-6,-14,-3,0,1,-8,-2,-2
1558441951991026,0,4,3,6,0,-3,-1,2
1558441951991026,2,-1,2,-5,-2,-2,-3,-1
1558441952004989,0,1,2,-1,-1,9,0,-3
1558441952004989,4,2,-2,-1,7,13,7,3
1558441952013000,-1,0,-2,-2,0,0,2,0
1558441952013000,2,0,2,1,-2,-15,-2,1
1558441952027928,-1,0,0,0,1,3,0,-2
1558441952027928,-4,-3,-5,-10,-9,5,-5,-4
1558441952028923,-4,-8,-5,-4,-3,2,-3,-5
1558441952028923,4,5,0,0,1,-9,3,1
1558441952043075,2,2,3,4,-1,-5,-3,0
1558441952043075,-3,0,-5,-5,1,3,0,-1
1558441952050925,-3,-6,1,2,0,4,0,0
1558441952050925,1,1,-3,3,-4,-4,-3,-1
1558441952065057,-1,-2,-1,-1,1,-8,-1,-2
1558441952065057,-1,0,1,3,-1,-2,-2,-1
1558441952073806,1,2,0,-2,-4,-7,-4,-1
1558441952073806,-2,-2,0,-1,-3,2,-4,-2
1558441952087768,-4,-3,-9,-4,7,11,5,0
1558441952087768,2,0,-1,0,0,-6,2,0
1558441952095745,-3,0,1,3,4,0,-4,-1
1558441952095745,0,-2,4,-1,-5,0,-4,0
1558441952102726,0,0,3,0,-8,-6,-4,-1
1558441952102726,0,-2,-2,-3,0,2,1,0
1558441952110707,0,-1,2,2,-1,-4,2,3
1558441952110707,0,0,-2,-6,2,-7,0,0
1558441952125664,-2,-4,2,0,-2,7,-2,-3
1558441952125664,-1,1,0,1,-7,-6,-4,-4
1558441952133653,4,0,-5,-7,2,-1,2,0
1558441952133653,-5,-4,-4,2,2,13,4,0
1558441952147606,1,2,0,0,-1,-9,-2,1
1558441952147606,-1,0,0,-1,-2,-5,-2,-1
