timestamp,emg1,emg2,emg3,emg4,emg5,emg6,emg7,emg8
1558441959486897,0,3,2,6,5,-1,5,5
1558441959486897,-1,2,-1,-1,-1,-11,-4,-3
1558441959487894,-3,-1,-1,-2,-4,-1,3,-2
1558441959487894,-1,0,4,10,0,-5,-8,-2
1558441959492882,-1,-5,-2,-6,-2,8,-4,-6
1558441959492882,1,0,-6,-4,2,5,3,3
1558441959493878,-1,-2,-3,-3,-5,-2,-8,-1
1558441959493878,-1,-2,0,3,1,0,1,-4
1558441959497867,0,-1,2,-2,2,-2,-1,-2
1558441959497867,-3,-5,-6,0,1,9,6,0
1558441959508837,2,1,-4,-5,-1,-4,-4,-3
1558441959508837,-2,-2,-1,3,3,-2,2,0
1558441959521803,-1,-1,-6,-1,-3,-8,-4,0
1558441959521803,-3,-2,5,-6,-9,-13,-7,-2
1558441959527792,-2,0,2,7,1,7,-1,-5
1558441959527792,-1,-1,-8,-18,1,11,6,0
1558441959535765,-1,1,3,5,7,-8,-2,2
1558441959535765,-1,0,-1,1,2,14,-1,0
1558441959559702,-1,-3,-1,-1,-8,-16,-1,2
1558441959559702,-1,-1,0,-1,-8,-6,-5,-5
1558441959561696,1,2,7,1,6,8,3,0
1558441959561696,-1,-6,-16,-3,-1,-1,-1,-2
1558441959566683,-1,4,9,2,3,-4,-6,-3
1558441959566683,1,-1,-2,0,-5,-1,-1,2
1558441959613557,-1,0,-3,-12,-5,3,-2,-4
1558441959613557,-2,0,-2,2,3,8,4,-1
1558441959614556,0,2,4,-4,-6,-8,6,5
1558441959614556,-3,-1,-4,-5,-8,-7,-1,-6
1558441959614556,-3,-4,-5,2,1,0,-5,-4
1558441959614556,-1,-3,-4,-2,-8,-8,-6,-1
1558441959617547,-1,2,2,1,4,7,7,0
1558441959617547,1,2,-2,-4,4,3,5,2
1558441959625525,-1,-1,8,1,-8,-14,-6,-1
1558441959625525,1,2,-3,2,5,2,-4,0
1558441959632506,-2,-4,-5,-8,-1,-6,-8,-1
1558441959632506,0,0,-4,1,-3,0,-2,2
1558441959639488,-1,-1,5,8,3,8,0,-3
1558441959639488,-1,-1,-5,-6,3,12,8,1
1558441959655450,0,-2,1,4,1,-8,-3,-2
1558441959655450,1,0,-3,-4,-5,-6,-3,-1
1558441959663424,-1,-3,-5,-3,-6,-6,-11,1
1558441959663424,1,1,1,1,3,-3,5,-1
1558441959670405,2,-2,-1,2,3,15,1,-2
1558441959670405,1,-4,1,0,-2,-9,-4,-3
1558441959685365,0,3,1,0,1,-2,4,0
1558441959685365,-3,0,5,5,-1,-15,-8,-2
1558441959692347,0,-2,-8,-14,-1,11,3,1
1558441959692347,-1,0,6,9,6,0,-1,-1
1558441959708304,-3,-3,-1,-2,-3,0,-3,-1
1558441959708304,1,3,3,1,0,-7,3,1
1558441959715285,-3,-6,-4,-1,-5,-8,-9,-7
1558441959715285,-2,-1,-1,0,-2,9,-2,0
1558441959723264,-1,-1,-3,1,3,8,3,2
1558441959723264,0,0,6,-1,-5,-5,-1,1
1558441959730245,-3,-3,-5,-7,-2,-12,-4,-4
1558441959730245,1,-3,-8,-8,5,17,3,-2
1558441959745206,-1,-2,-4,-8,-7,-6,-2,-1
1558441959745206,2,-1,4,5,2,-12,-2,2
1558441959754182,-1,2,4,5,-1,1,0,-1
1558441959754182,-2,3,-4,-5,-10,-11,-6,-5
1558441959760165,-3,-4,3,3,2,1,-4,-2
1558441959760165,-2,-4,-4,7,4,14,5,0
1558441959775126,1,-1,-2,-4,-2,0,2,1
1558441959775126,-1,0,0,-4,7,2,1,0
1558441959783103,0,1,-3,2,-10,-3,-3,-5
1558441959783103,-4,-4,-6,-9,-12,-4,-13,-8
1558441959790084,0,4,4,9,9,-2,8,7
1558441959790084,-1,-3,4,2,-1,-2,3,1
1558441959806043,0,0,0,0,8,4,3,1
1558441959806043,-3,-5,-5,-7,-5,5,-5,-1
1558441959812028,-2,-1,-1,-7,-14,-9,-7,-4
1558441959812028,-2,-4,-5,-5,-4,-13,-3,-4
1558441959820005,1,1,-1,2,5,3,6,2
1558441959820005,-6,-2,-8,-10,-10,-5,-11,-10
1558441959835963,-4,-1,0,1,2,14,-7,-3
1558441959835963,-1,0,4,10,5,2,4,1
1558441959842944,1,1,3,-7,-1,-3,2,-1
1558441959842944,1,3,1,2,5,-5,5,3
1558441959849925,-2,-2,-4,3,-8,-7,-10,-6
1558441959849925,-3,-2,-9,-13,-11,-1,-4,0
1558441959865882,0,-1,-1,-3,4,1,1,0
1558441959865882,0,-1,0,0,3,-2,2,3
1558441959872867,2,2,4,4,2,6,1,-3
1558441959872867,4,5,3,3,12,4,7,5
1558441959879851,-6,-7,-7,-6,-12,-7,-8,-6
1558441959879851,-1,1,-4,-3,-4,3,3,1
1558441959896802,1,1,-2,-3,-1,-2,0,-1
1558441959896802,-4,-4,-1,-6,-14,-1,-18,-9
1558441959902786,0,-1,-4,2,7,10,8,2
1558441959902786,4,1,3,0,3,-6,1,4
1558441959917744,-5,-5,-3,-1,2,4,-4,-4
1558441959917744,-1,-2,-2,-12,-3,-4,1,3
1558441959925722,-3,0,0,5,-6,-20,-4,-3
1558441959925722,-3,-3,1,-2,0,5,-1,-2
1558441959932707,-1,-2,-8,-2,0,8,5,1
1558441959932707,1,0,6,6,2,-5,-3,-1
1558441959939686,-1,0,-2,1,2,0,2,-2
1558441959939686,2,0,0,-3,-1,-8,5,3
1558441959954645,2,3,1,-4,0,-6,-4,0
1558441959954645,-1,-3,-2,0,0,7,-2,-4
1558441959962623,1,3,1,3,5,10,2,0
1558441959962623,-2,0,1,5,-9,-7,-6,-6
1558441959977585,-2,-1,0,-2,2,5,1,0
1558441959977585,0,-1,3,8,4,6,3,1
1558441959985562,2,1,4,-13,-3,-10,-3,4
1558441959985562,-1,-5,-18,-5,2,6,3,0
1558441959992544,-1,-1,0,-9,-6,-10,1,-1
1558441959992544,-1,-2,-4,4,-8,-6,-5,-2
1558441960008501,-4,-2,2,0,1,4,-3,-3
1558441960008501,0,2,2,7,7,3,1,1
1558441960014485,0,-1,3,1,-5,-5,-1,0
1558441960014485,2,-1,-6,-10,1,-2,1,0
1558441960023461,1,0,-2,3,-2,-3,2,-2
1558441960023461,-4,-9,3,0,1,9,-1,1
1558441960037424,-3,-2,-2,6,2,1,4,-1
1558441960037424,-4,-4,-4,-1,-3,-10,-2,-2
1558441960045402,1,-1,-6,-2,-3,6,-4,-3
1558441960045402,0,1,2,-5,-6,-8,-2,-2
1558441960052383,1,0,5,2,1,1,-2,0
1558441960052383,-2,-1,-7,-3,1,13,3,-2
1558441960060362,1,-1,-3,-2,-4,-7,-7,-2
1558441960060362,-4,-2,-1,-2,-4,1,2,1
1558441960075322,0,1,-2,-2,3,-2,2,1
1558441960075322,0,0,5,2,5,-1,2,-1
1558441960083300,-3,-3,-4,0,3,3,3,1
1558441960083300,-3,-3,0,4,-2,12,-7,-7
1558441960097264,-1,-1,-4,-6,-5,1,-6,-1
1558441960097264,2,2,5,2,-3,-27,-5,3
1558441960105242,0,0,5,0,-2,3,3,-1
1558441960105242,-2,-4,-7,-5,-3,-1,-8,-4
1558441960112223,0,1,-3,0,5,6,6,3
1558441960112223,-1,2,3,2,-4,0,3,-1
1558441960120202,1,-1,2,1,3,-2,-1,2
1558441960120202,1,4,-1,-1,7,-2,4,2
1558441960151119,-4,-6,-5,4,-3,-3,-9,-8
1558441960151119,-3,-2,-5,-11,-15,-10,-7,-2
1558441960153114,0,3,7,13,8,7,1,2
1558441960153114,-1,-4,0,-5,-1,5,-1,-1
1558441960157104,1,0,0,-3,-2,-8,-6,-2
1558441960157104,-2,-2,-1,-3,-5,-3,-1,-4
1558441960182037,-3,-4,-6,-2,-4,-5,-2,-3
1558441960182037,1,2,8,2,5,1,-3,-1
1558441960183034,-3,-3,-1,1,-3,-2,0,-1
1558441960183034,-2,-1,-2,2,-4,2,-7,-1
1558441960189019,-3,-2,-3,-8,-2,6,-2,-2
1558441960189019,1,1,-2,3,4,-2,0,2
1558441960195002,0,-3,1,1,1,-7,4,0
1558441960195002,-1,-2,-7,-6,1,13,1,-2
1558441960203978,-1,-1,-3,0,2,0,1,-1
1558441960203978,-1,-1,4,0,-1,-5,-1,-1
1558441960216944,-3,-5,-9,-16,-9,0,0,-2
1558441960216944,-4,-1,-2,7,-2,-4,-2,-2
1558441960225919,-2,-3,-2,-3,-1,3,3,1
1558441960225919,1,-1,1,0,2,-1,-2,-3
1558441960232902,2,1,6,0,-2,8,3,2
1558441960232902,0,-2,-2,-4,1,-4,0,0
1558441960248859,0,0,1,2,-2,-7,-1,0
1558441960248859,-2,1,-2,-1,-2,-5,-4,-5
1558441960263825,-2,-3,-4,0,-2,-2,1,-1
1558441960263825,0,-2,1,0,9,20,5,-1
1558441960264823,-1,-3,-1,1,-4,-10,-4,-1
1558441960264823,3,1,2,0,1,-2,8,3
1558441960277780,0,4,-7,-8,4,4,-4,0
1558441960277780,-4,-1,9,16,-1,4,1,-2
1558441960286757,-4,-8,-10,-15,-12,-8,-3,-2
1558441960286757,-3,1,1,2,-5,-2,-4,0
1558441960292741,-3,-4,-4,-5,-4,-3,-4,-2
1558441960292741,-2,-1,-6,-2,3,-2,-1,-1
1558441960308699,-1,-1,3,2,1,2,1,0
1558441960308699,-4,-4,-7,-8,-3,2,3,1
1558441960314682,0,0,8,10,2,-13,-2,-3
1558441960314682,2,3,-2,2,7,-2,4,4
1558441960323658,-1,-1,-3,-1,-2,-2,-1,-1
1558441960323658,-1,1,-5,-8,-8,-4,-5,-3
1558441960337621,0,3,9,7,4,10,-1,1
1558441960337621,-2,-7,-5,1,1,-2,4,-1
1558441960346597,-1,-2,3,-7,-15,-17,-9,-4
1558441960346597,-3,-5,-6,-7,-6,4,-5,-2
1558441960359562,2,1,-2,-2,2,-5,1,4
1558441960359562,4,4,8,5,13,10,4,4
1558441960368538,0,0,-5,1,2,7,1,-1
1558441960368538,0,3,3,-5,-4,-12,-6,-6
1558441960374522,-5,-6,-11,-19,-6,8,-2,-3
1558441960374522,-4,-4,6,4,-2,-6,-4,0
1558441960383498,2,2,-2,1,12,9,9,2
1558441960383498,1,1,3,5,7,-2,7,2
1558441960397461,0,-2,-1,4,-4,-6,-4,-1
1558441960397461,1,0,-4,-4,-3,3,-3,2
1558441960406437,-5,-6,-4,-14,-21,-13,-13,-8
1558441960406437,0,-1,-2,2,2,5,0,3
1558441960412422,1,4,8,4,8,9,2,2
1558441960412422,-1,-1,-9,0,5,3,10,4
1558441960429376,1,5,4,3,3,-7,-2,0
1558441960429376,-5,-4,-6,2,-9,-10,-11,-4
1558441960435359,-2,-3,-2,-3,2,10,3,1
1558441960435359,1,-2,-8,-13,-2,-8,-2,-1
1558441960444335,0,2,9,9,10,2,5,1
1558441960444335,-3,-2,-7,-5,-1,-3,1,-4
1558441960457301,-3,-4,-3,-1,-13,-10,-10,-5
1558441960457301,1,2,6,2,-1,1,2,1
1558441960466278,1,2,-3,-8,6,-3,6,0
1558441960466278,-2,-2,0,7,-6,3,-5,-2
1558441960472262,0,3,6,8,0,-5,-2,-1
1558441960472262,-3,-3,-4,-17,-14,-2,-13,-6
1558441960489215,-3,-8,-6,5,-6,-5,-1,-2
1558441960489215,2,0,0,-2,8,2,2,4
1558441960495200,1,2,2,8,14,13,14,2
1558441960495200,-2,-2,0,-1,-8,-8,-3,-2
1558441960504174,1,5,2,-1,2,8,1,2
1558441960504174,-2,-5,0,-4,-7,0,0,3
1558441960517139,-6,-10,-8,-3,-10,-23,-8,-13
1558441960517139,3,5,7,0,7,-6,5,3
1558441960526116,0,-1,-2,10,0,4,-2,0
1558441960526116,-3,1,1,-8,0,6,0,-2
1558441960532102,1,5,1,2,-2,3,-2,4
1558441960532102,-3,-4,-5,-1,0,3,4,-2
1558441960549054,-5,-5,-11,-7,-15,-13,-8,-4
1558441960549054,2,-3,-2,4,11,6,3,0
1558441960555038,0,0,-1,-2,-6,-4,-3,0
1558441960555038,-3,-2,1,3,1,2,-1,-3
1558441960564014,0,2,2,-2,3,5,-2,0
1558441960564014,0,-1,0,-5,-7,2,1,-4
1558441960576980,-1,-2,-3,-7,-3,-12,-1,2
1558441960576980,2,3,1,4,-1,-7,-3,-3
1558441960585955,1,-1,-6,1,-4,-1,3,0
1558441960585955,0,0,-1,-4,0,-3,2,-1
1558441960599918,-5,-3,0,0,-3,-5,-7,-3
1558441960599918,-2,-7,-6,-4,-6,3,-6,-3
1558441960608895,3,5,5,0,7,3,5,2
1558441960608895,-3,-5,-4,-4,-12,-7,-14,-8
1558441960623855,-1,2,3,0,-1,2,2,-2
1558441960623855,-2,-2,-3,1,11,5,4,3
1558441960624852,-1,-3,-4,-6,0,11,3,-1
1558441960624852,1,3,-1,6,3,-9,0,-1
1558441960637816,-1,-3,-1,-4,-2,0,-10,-1
1558441960637816,-3,0,-3,-2,-3,-1,-3,-3
1558441960646796,-3,-4,-1,-2,-8,-5,-4,-2
1558441960646796,2,-1,-2,-6,2,-9,6,1
1558441960659759,2,1,-3,2,4,5,-1,0
1558441960659759,0,3,9,4,-2,-11,2,3
1558441960668734,0,-2,-2,-2,0,0,-3,0
1558441960668734,-6,-4,-3,1,-7,3,-9,-6
1558441960683694,1,2,0,5,12,6,5,0
1558441960683694,-1,-2,-2,-5,-4,-1,-2,-2
1558441960685689,3,0,-4,-1,0,-1,-1,-2
1558441960685689,-1,-6,2,-3,7,10,6,3
1558441960697658,-1,-3,-2,2,1,-3,-1,-3
1558441960697658,-2,-4,0,-1,0,-4,-1,0
1558441960706634,-2,-1,-4,-6,-11,-11,-7,-3
1558441960706634,0,3,0,2,-1,-1,-8,0
1558441960719599,-3,-4,0,-7,-2,4,8,-2
1558441960719599,-1,0,-5,0,1,0,0,-2
1558441960728574,-5,-5,-7,-3,-4,-11,-7,-2
1558441960728574,0,1,2,5,6,-3,6,2
1558441960743534,-1,-2,-5,-7,-4,-1,-2,-2
1558441960743534,-3,0,1,-6,-11,-9,-10,-7
1558441960745530,1,1,4,5,7,6,1,-1
1558441960745530,1,1,-4,0,9,14,7,3
1558441960757497,-2,-2,-1,5,-6,-12,-9,-2
1558441960757497,-1,0,2,5,6,13,12,5
1558441960766472,-2,-1,-6,-6,-6,-3,-3,-5
1558441960766472,1,-2,-2,-5,-5,0,-7,-4
1558441960780436,3,2,-2,3,6,-7,6,6
1558441960780436,-1,-2,5,3,1,5,-5,0
1558441960788415,-2,0,-2,-9,0,-2,-9,-2
1558441960788415,-1,0,2,6,7,6,3,0
1558441960803374,1,0,1,-4,-7,-10,2,2
1558441960803374,-2,-3,-7,-2,-3,-5,-9,-3
1558441960805370,0,-1,3,2,6,6,0,-2
1558441960805370,-2,-1,-4,-10,-13,-2,-4,-4
1558441960817337,-1,-1,-6,3,3,11,-1,-2
1558441960817337,1,0,14,6,3,-3,8,-2
1558441960826313,1,0,-3,7,7,-2,3,-1
1558441960826313,-3,-4,-11,-12,-13,-14,-4,-5
1558441960840276,-3,-2,-1,3,-4,2,-10,-7
1558441960840276,-5,-4,-12,-17,-11,-3,-8,-4
1558441960849256,2,5,10,5,6,6,7,2
1558441960849256,0,0,2,3,-1,-15,-6,-4
1558441960863214,-3,-2,-4,-11,-6,-1,0,1
1558441960863214,4,2,0,3,5,-3,1,1
1558441960870196,-3,-7,-4,-9,-6,2,-7,-5
1558441960870196,2,1,1,3,0,-2,2,3
1558441960877176,0,-2,-1,0,-2,2,0,-3
1558441960877176,4,4,-3,2,-2,6,3,2
1558441960886152,1,4,15,0,7,3,7,4
1558441960886152,-5,-12,-17,-9,-6,5,0,-3
1558441960900122,-3,-1,1,-1,-2,-10,-3,-2
1558441960900122,-3,-1,-7,-5,0,-7,-4,-1
1558441960909094,2,4,4,5,9,1,6,4
1558441960909094,-2,0,0,-2,-5,2,-4,-3
1558441960923054,1,1,5,4,8,9,7,0
1558441960923054,-3,-2,5,9,2,-6,-4,-3
1558441960930037,-2,-3,-5,-14,-13,-6,-4,-1
1558441960930037,1,2,-1,2,3,-13,-2,3
1558441960937018,3,2,4,4,6,10,10,5
1558441960937018,-3,-1,-4,-3,-4,5,-7,-7
1558441960946993,-2,-6,-9,2,-4,1,4,-3
1558441960946993,-2,1,2,2,5,9,-1,0
1558441960959955,-1,0,-2,-4,-8,-9,-3,-4
1558441960959955,-1,-4,-3,-2,3,-1,0,-2
1558441960968932,2,3,-2,2,0,-6,-1,0
1558441960968932,0,-2,5,3,2,-2,8,1
1558441960982895,-3,0,-2,-18,-7,-1,-1,3
1558441960982895,-2,-4,2,5,-1,0,-1,-2
1558441960990874,-1,-3,0,4,2,-9,-4,-3
1558441960990874,1,2,-5,1,-2,0,-9,-5
1558441960997855,0,-2,7,11,5,4,2,-1
1558441960997855,1,3,-4,-17,-8,-6,-6,-1
1558441961005836,-4,-1,-6,-4,-6,1,-2,-1
1558441961005836,-1,2,5,2,0,-1,3,0
1558441961019795,-1,1,-1,3,7,-9,0,1
1558441961019795,-2,-2,-7,-5,-8,-2,-5,-2
1558441961028774,-1,-1,1,-4,-1,5,-2,0
1558441961028774,-2,-5,12,13,6,3,-9,-1
1558441961042770,2,-3,-7,-5,-8,4,6,-1
1558441961042770,1,1,4,1,3,-5,3,-1
1558441961051712,-2,-1,-6,-3,4,0,0,1
1558441961051712,-2,-4,-5,-15,-11,-6,-6,-3
1558441961057729,-6,-7,-4,-4,-7,0,-6,-6
1558441961057729,-1,-1,4,6,2,5,4,4
1558441961066673,1,1,1,-1,-1,-11,-2,-4
1558441961066673,-1,1,-4,-13,-5,-2,4,3
1558441961079635,-1,1,-5,3,2,3,-5,-3
1558441961079635,-2,-4,-3,-9,-6,11,2,-1
1558441961088612,-1,-2,-3,6,1,0,0,0
1558441961088612,3,0,-1,0,5,1,6,1
1558441961102576,-4,-2,7,1,-3,-4,-4,-2
1558441961102576,-3,-1,-2,1,1,-3,1,0
1558441961111550,-1,-2,-5,3,9,17,4,3
1558441961111550,-2,-1,0,-5,-5,-4,-6,-2
1558441961117595,0,0,-8,-1,1,-2,-2,-1
1558441961117595,1,1,0,1,-4,-10,-5,-2
1558441961126509,-3,-2,7,4,-6,-3,-3,-1
1558441961126509,-3,0,1,7,2,2,3,-3
1558441961139476,-3,-1,-7,-6,-2,-5,-8,-4
1558441961139476,0,1,-7,-4,-1,-4,-3,0
1558441961148451,3,1,4,1,-1,2,0,0
1558441961148451,-2,-3,-4,7,2,1,-1,-1
1558441961162416,-1,1,1,-3,0,-7,3,3
1558441961162416,-1,0,6,5,9,2,5,6
1558441961171390,-3,-3,-12,-11,-8,-6,-9,-5
1558441961171390,-1,1,3,2,-2,9,7,-3
1558441961177375,-2,-1,-5,2,0,7,0,-3
1558441961177375,0,0,-7,-8,-9,-14,-10,-6
1558441961186351,0,-2,3,2,8,5,-2,4
1558441961186351,2,2,5,4,7,2,12,5
1558441961200312,-1,-2,-3,-1,0,4,0,-1
1558441961200312,-2,-3,1,1,4,0,1,0
1558441961209290,-1,-1,-2,-1,-6,-11,4,1
1558441961209290,-1,1,3,-1,-6,-7,-9,-4
1558441961222254,-1,-1,-10,-10,-8,2,-6,-1
1558441961222254,1,0,-3,4,2,9,1,-2
1558441961231229,-2,-2,1,-7,-6,-12,-9,-4
1558441961231229,-2,-1,-3,-3,-4,-3,-5,-1
1558441961237214,2,3,1,-1,3,6,6,0
1558441961237214,-4,-6,1,1,-1,2,-3,0
1558441961246190,-1,-3,-4,-6,-8,-5,-7,-6
1558441961246190,-1,-1,-2,-3,-4,-5,-3,-2
1558441961260153,-2,3,4,-3,7,3,0,3
1558441961260153,0,1,-2,1,-1,-8,2,2
1558441961269128,-4,-5,-7,-16,-1,2,5,1
1558441961269128,-2,-3,-5,-1,-6,-8,-2,-4
1558441961283093,-1,-3,3,-2,-5,-7,-7,-4
1558441961283093,-2,-5,-6,-3,-5,1,1,-4
1558441961291069,-1,-2,1,6,-2,0,3,0
1558441961291069,-3,-2,-7,-12,-2,1,-4,-3
1558441961297055,-1,2,6,9,8,-1,3,3
1558441961297055,-1,-2,-7,-8,-5,-12,-3,0
1558441961306032,-2,-1,1,3,-2,1,-1,-3
1558441961306032,0,-1,1,3,1,-1,-1,-1
1558441961319992,1,-1,-2,0,-6,1,-7,-1
1558441961319992,1,0,4,2,-1,3,-4,-3
1558441961328969,-1,-4,-1,-4,1,4,0,0
1558441961328969,2,2,0,5,4,-6,1,2
1558441961341933,-3,-6,-6,-6,1,2,4,-3
1558441961341933,-1,0,0,-2,-3,-1,-2,-3
1558441961350910,0,1,-2,2,-2,1,-5,-1
1558441961350910,2,2,1,2,7,12,7,3
1558441961365930,0,0,-4,-3,-5,-8,-7,-1
1558441961365930,0,1,0,-2,1,2,1,-2
1558441961367922,0,0,1,4,-5,2,-3,-3
1558441961367922,-1,-2,-7,-13,-1,0,-5,-2
1558441961379833,-1,0,0,2,2,-25,-5,-1
1558441961379833,1,-2,-3,-5,5,10,1,1
1558441961388809,0,2,2,1,3,6,-2,5
1558441961388809,-2,-2,-1,3,-6,-8,2,-3
1558441961402810,0,-2,0,-3,-3,4,1,-3
1558441961402810,-1,0,3,3,-4,-7,-3,0
1558441961411748,0,0,-3,2,1,2,-6,-4
1558441961411748,0,-2,-2,-2,3,9,0,2
1558441961426715,0,1,3,-3,0,-9,4,3
1558441961426715,-4,-2,-7,-6,-6,-3,-5,-4
1558441961427704,-1,-2,-3,6,8,13,10,1
1558441961427704,0,-1,3,-6,-2,-6,-2,-4
1558441961439718,-2,-5,-13,-8,-10,-7,-7,-5
1558441961439718,1,2,1,7,5,4,4,1
1558441961448649,-2,-1,6,-2,-1,-1,0,0
1558441961448649,0,2,1,3,-1,2,-9,2
1558441961462645,-6,-2,0,2,-7,-18,-11,-7
1558441961462645,0,-1,-3,0,13,10,4,3
1558441961471586,1,0,-5,-5,-4,-10,-1,-3
1558441961471586,0,-1,3,2,-1,-5,-4,-2
1558441961486548,0,-2,-2,-2,-1,17,4,-1
1558441961486548,-3,-3,-4,0,-10,-3,-6,-3
1558441961487545,1,4,3,-9,0,-8,0,5
1558441961487545,-2,-2,-5,-4,-6,-7,1,-1
1558441961499551,-2,-1,-4,0,-4,-1,-1,-1
1558441961499551,-2,-2,-1,-2,-3,-3,-2,-3
1558441961508523,1,-3,-5,-4,-1,-6,-2,-1
1558441961508523,0,1,6,-2,-1,2,-2,0
1558441961522451,-2,-2,1,5,10,9,11,1
1558441961522451,-1,-2,0,-2,-10,-2,-5,-4
1558441961531428,0,1,0,1,-3,-2,-5,0
1558441961531428,-1,-4,-8,-8,-3,-6,7,4
1558441961553370,1,1,3,2,3,-4,-7,-4
1558441961553370,0,-1,1,1,-4,-8,-4,-2
1558441961562372,-2,1,-2,-9,-3,-5,-4,-1
1558441961562372,-2,-1,-8,-3,-1,15,-1,-2
1558441961562372,-1,-3,-2,-5,-2,5,1,2
1558441961562372,-2,-2,3,-1,-3,-9,3,0
1558441961568328,-4,0,-2,0,-2,-4,-5,-2
1558441961568328,-1,-2,0,2,2,-4,3,2
1558441961582291,0,2,3,4,2,3,-2,1
1558441961582291,-4,-7,-14,-7,-4,-7,-7,-5
1558441961591268,2,0,-3,-6,7,11,8,1
1558441961591268,-3,-1,3,8,0,-6,-8,-6
1558441961607224,-2,-1,4,0,-11,-8,-7,-3
1558441961607224,3,1,1,-1,10,9,11,3
1558441961608222,-4,0,-1,3,-4,-5,-13,-6
1558441961608222,2,0,-8,-11,-8,-5,1,-1
1558441961620190,-3,-4,-1,6,3,0,-5,-6
1558441961620190,1,-1,0,-5,-4,-8,-6,-2
1558441961629213,-3,-4,2,4,-2,-1,3,-3
1558441961629213,1,2,4,6,9,10,-1,0
1558441961642130,1,0,-2,-3,-4,5,-6,1
1558441961642130,-3,0,-2,6,0,8,-2,-2
1558441961651106,1,0,6,4,6,1,7,2
1558441961651106,1,-1,-4,-8,1,-3,4,1
1558441961666097,-1,-3,-7,-2,-2,-3,5,2
1558441961666097,-4,0,9,3,2,7,3,-4
1558441961668094,-4,-3,-2,0,-7,-2,-7,-6
1558441961668094,-2,-4,-5,0,0,1,-1,-1
1558441961680031,-1,0,-1,-3,0,-10,0,0
1558441961680031,2,1,-1,1,4,5,1,1
1558441961696022,1,1,1,4,3,10,10,0
1558441961696022,-3,-1,-3,-7,-7,-5,-5,-5
1558441961702009,2,0,1,0,0,-7,-6,0
1558441961702009,-2,-2,0,-1,-4,1,-2,-3
1558441961710981,-3,-2,-9,-13,-4,-19,-5,-2
1558441961710981,-2,1,3,0,2,8,1,0
1558441961725933,-2,-3,-3,-6,-5,6,2,-1
1558441961725933,0,0,0,-1,-6,-8,-4,-1
1558441961727930,0,0,-2,-2,9,9,7,4
1558441961727930,-2,-1,1,2,-3,-7,2,-1
1558441961739919,0,2,0,3,-2,-7,-5,-1
1558441961739919,2,2,1,-1,-3,-5,-9,-3
1558441961748845,-3,-9,-11,-8,-3,8,2,-2
1558441961748845,-1,0,7,2,-3,2,2,0
1558441961762847,0,-2,-1,-1,7,-1,3,3
1558441961762847,1,1,-7,-9,4,6,11,4
1558441961771785,-4,-5,-10,-7,-11,-19,-11,-6
1558441961771785,-3,-2,-1,1,-10,-5,-11,-6
1558441961785752,-2,-3,-7,-5,-1,1,-7,-3
1558441961785752,3,2,5,4,8,7,7,4
1558441961788760,-1,-1,1,3,0,-3,0,-3
1558441961788760,3,-1,-4,-7,4,3,2,1
1558441961808686,-2,-1,-2,7,-6,-9,-3,-2
1558441961808686,-5,-4,-6,-18,-10,-2,-10,-3
1558441961810681,0,0,2,1,-6,1,-6,-2
1558441961810681,-4,-1,-2,4,3,-7,6,2
1558441961822649,0,2,4,3,8,9,3,5
1558441961822649,0,-1,6,4,3,2,5,0
1558441961831627,-1,-2,-2,-2,-3,-3,-4,-2
1558441961831627,1,1,-1,3,2,5,-3,1
1558441961846812,0,-1,3,-2,-3,-7,0,-2
1558441961846812,-5,-1,1,6,2,4,-3,-1
1558441961847684,0,1,-5,-2,3,-3,-4,1
1558441961847684,1,-1,-1,1,-1,-3,-3,0
1558441961859551,0,0,-3,-8,2,2,4,-1
1558441961859551,-4,-3,-3,0,-6,-5,-8,-4
1558441961868528,-1,-1,-1,3,-3,4,-1,-2
1558441961868528,1,-1,1,-6,1,-5,10,4
1558441961882487,1,1,0,5,12,9,6,3
1558441961882487,-2,-3,-6,-4,-7,-10,-5,0
1558441961891464,0,2,7,6,2,3,3,-1
1558441961891464,-1,-5,-9,-8,-9,0,-7,-5
1558441961906430,2,0,3,-3,-2,9,5,0
1558441961906430,2,1,2,2,8,3,8,3
1558441961907421,-2,-2,-5,-1,-2,-2,2,2
1558441961907421,-1,1,3,-5,0,-5,-6,-3
1558441961919388,-4,-6,-7,-5,-5,-5,-5,-3
1558441961919388,-3,-8,-6,-3,-5,-8,-7,-1
1558441961928367,-1,1,3,2,-4,0,2,-2
1558441961928367,0,3,4,6,6,-9,0,2
1558441961942327,-2,-1,-1,-2,-9,-6,-3,-4
1558441961942327,2,2,-3,-5,5,8,2,-1
1558441961951305,1,-2,-1,7,-2,-2,-8,-2
1558441961951305,0,1,0,-3,2,5,3,-5
1558441961966263,0,1,0,-2,-2,0,1,2
1558441961966263,-2,1,5,-1,-1,-4,-5,-3
1558441961967262,-1,-5,-8,-4,-3,-2,-1,1
1558441961967262,-3,-4,-7,-4,-7,-1,-8,-4
1558441961980227,0,0,-2,3,0,4,-3,-4
1558441961980227,0,-2,2,-3,-7,-8,-4,-3
1558441961989203,2,2,2,3,0,-14,1,2
1558441961989203,2,1,10,8,17,13,11,6
1558441962002168,-4,-5,-14,-9,-1,-3,-2,0
1558441962002168,0,-1,-4,0,-7,-1,1,0
1558441962011145,0,0,0,-3,0,2,-3,0
1558441962011145,-2,-4,1,9,-5,-12,-12,-9
1558441962026104,3,0,5,5,7,13,7,6
1558441962026104,-3,-1,-6,-6,-6,-8,-4,-3
1558441962028099,0,3,8,1,6,11,3,1
1558441962028099,0,-5,-8,-7,-4,-1,-3,-1
1558441962040068,-3,-2,2,2,-5,-3,-7,-4
1558441962040068,2,0,-3,1,3,-1,4,1
1558441962049043,-1,-2,2,3,0,-4,5,1
1558441962049043,0,7,4,-3,-4,-4,-2,1
1558441962062007,-2,-2,-5,-4,-5,-9,-8,-6
1558441962062007,0,-2,-2,2,3,2,2,3
1558441962071029,-4,2,2,3,3,7,-1,-1
1558441962071029,-3,-3,-5,0,-6,-2,-2,1
1558441962087000,0,-2,0,-7,-1,-2,1,-1
1558441962087000,-1,0,5,-1,-5,-3,-6,-4
1558441962087972,0,-3,-4,-1,5,-1,1,0
1558441962087972,1,1,8,8,8,-4,5,3
1558441962099944,-1,1,2,3,0,0,-2,-1
1558441962099944,-2,-2,1,1,2,3,-4,-2
1558441962114866,2,1,7,-2,-6,2,-11,-3
1558441962114866,-5,-6,-22,-20,-10,-7,-3,-5
1558441962122857,2,2,4,4,10,-1,8,2
1558441962122857,-3,-2,-3,-3,3,2,-1,-3
1558441962130823,-2,-1,-6,-2,-3,0,4,2
1558441962130823,-1,-3,2,4,-5,-2,-10,-3
1558441962145784,3,5,7,1,0,7,7,2
1558441962145784,-3,-3,1,7,2,-3,3,2
1558441962152764,-3,-2,1,-7,0,0,-4,-4
1558441962152764,-4,-2,-4,1,-9,0,-7,-5
1558441962159746,-4,-5,-4,-5,-5,7,1,-2
1558441962159746,0,0,3,0,-1,-10,2,0
1558441962168721,1,1,2,2,9,-4,8,2
1558441962168721,-3,-4,-7,-12,-4,-2,0,1
1558441962182685,-4,-4,2,8,-6,-10,-14,-3
1558441962182685,-1,-1,-6,-7,-6,2,-4,-5
1558441962191661,0,-1,-7,-3,-2,-1,-8,-1
1558441962191661,2,-1,9,7,13,4,7,3
1558441962205623,-1,-1,-7,-3,-3,-2,4,0
1558441962205623,0,1,0,-2,4,8,5,2
1558441962221105,0,2,3,-1,-13,-11,-13,-7
1558441962221105,-5,-5,3,4,-2,2,-1,-4
1558441962221584,0,0,-2,-7,2,6,1,0
1558441962221584,-3,-5,-12,1,0,-16,-2,-3
1558441962228922,-2,-1,0,-1,8,15,12,0
1558441962228922,1,2,3,-1,-3,-7,-7,0
1558441962251505,-2,-2,3,0,-2,-8,1,-3
1558441962251505,-1,-1,0,-4,-6,11,0,-1
1558441962252501,1,3,-2,2,3,-9,-2,1
1558441962252501,0,0,0,1,4,-6,-5,2
1558441962265701,-1,1,-2,-4,-14,-8,-7,-2
1558441962265701,1,-1,-5,-5,-1,-6,0,3
1558441962272452,-3,-3,4,6,0,1,3,-4
1558441962272452,-1,0,0,-2,1,8,1,1
1558441962288616,1,1,-2,1,3,-7,3,4
1558441962288616,-5,-4,-9,-16,-5,-1,-9,-1
1558441962290401,-4,-2,1,-1,-3,4,4,-3
1558441962290401,-6,-2,-6,-3,-7,-4,-7,-8
1558441962302592,0,4,6,4,8,-2,1,-1
1558441962302592,0,-5,-2,-1,-6,-4,1,1
1558441962319320,1,-2,-4,-3,-1,-10,-7,2
1558441962319320,0,1,-3,-1,-8,0,-7,-7
1558441962326339,-1,-4,0,-5,-5,8,-6,1
1558441962326339,-1,1,6,2,-1,-7,4,-1
1558441962333283,0,-2,-4,3,5,-13,1,1
1558441962333283,1,5,3,-1,7,10,8,1
1558441962349482,0,-2,-8,-3,-2,9,2,-3
1558441962349482,-1,-1,-2,-5,-5,-8,-10,-5
1558441962350241,-2,-5,-3,-6,-12,-17,-7,0
1558441962350241,1,-1,-6,-6,-1,8,-1,0
1558441962362461,-1,1,5,0,0,-6,4,-3
1558441962362461,-3,-4,2,7,9,22,8,0
1558441962371446,0,2,-4,-4,-4,-1,-2,-3
1558441962371446,-4,-5,-4,-6,-3,-5,2,-4
1558441962385143,-3,-3,2,-2,-9,-12,-13,-2
1558441962385143,0,-1,-10,-12,-3,-7,-4,0
1558441962392126,0,3,9,6,7,10,5,5
1558441962392126,-2,-2,-7,0,-7,-15,-4,-1
1558441962409121,-1,-3,-10,-2,-2,3,-1,-5
1558441962409121,1,4,5,3,2,-8,-6,-1
1558441962410077,-3,-3,-3,-3,3,10,8,2
1558441962410077,1,1,2,3,3,-3,-1,-1
1558441962432056,1,0,-7,-8,-3,-2,-3,0
1558441962432056,-2,-3,5,4,-10,-13,-8,-4
1558441962433362,-4,-1,-2,-1,7,14,-2,-2
1558441962433362,0,0,5,0,0,-7,3,1
1558441962446180,-4,-4,-2,1,4,2,1,-6
1558441962446180,-1,2,-2,-1,-1,7,4,0
1558441962453130,-2,-5,-3,-4,-7,-6,-6,-4
1558441962453130,-3,-2,3,1,2,5,6,-1
1558441962469263,-1,1,3,5,11,5,4,5
1558441962469263,3,3,-1,-2,-4,-12,1,3
1558441962470192,-6,-5,6,6,-10,-10,-11,-5
1558441962470192,1,2,-4,4,8,13,2,0
1558441962483201,2,1,3,1,3,3,5,2
1558441962483201,-1,-1,-2,-7,2,14,2,-2
1558441962490908,-1,-1,-21,-17,-14,-3,-4,1
1558441962490908,0,3,11,8,4,-16,-2,1
1558441962505824,-3,-4,-1,6,2,3,-4,-2
1558441962505824,-4,-4,-2,-5,-4,5,2,-2
1558441962512847,1,0,1,-2,-1,4,3,-1
1558441962512847,-3,-3,-2,-4,-13,-4,-9,-5
1558441962528810,0,-1,-1,0,4,-7,-2,1
1558441962528810,3,2,1,-1,5,-8,0,5
1558441962529759,-1,-2,-4,-4,-4,-9,-12,-6
1558441962529759,-1,0,0,0,5,18,0,0
1558441962543016,-2,-2,-2,-3,-8,-6,-4,-4
1558441962543016,-2,-1,-3,3,1,3,-4,-3
1558441962551701,1,1,-1,-7,5,1,11,5
1558441962551701,0,-1,4,0,-3,-14,2,3
1558441962565663,-8,-5,-9,-9,-7,-3,-3,-5
1558441962565663,-2,-1,2,10,3,6,-1,-3
1558441962572642,0,1,0,-17,-10,-8,-8,-3
1558441962572642,-2,-5,-4,0,-3,4,-3,-1
1558441962588600,-2,-3,-7,-7,-1,5,4,2
1558441962588600,1,1,4,10,4,-7,-5,2
1558441962590594,0,-1,1,3,3,0,2,-2
1558441962590594,-1,-1,-9,-3,0,3,7,0
1558441962602561,-3,2,1,-3,-10,-12,-4,-2
1558441962602561,-2,-2,-2,-3,6,7,-4,-3
1558441962611539,3,1,4,9,8,9,5,-1
1558441962611539,0,-1,6,3,2,3,0,1
1558441962625499,-4,-1,-8,-4,-5,-6,-3,-6
1558441962625499,-1,-1,-2,0,-2,0,2,-2
1558441962632832,-5,-2,4,3,0,2,-5,0
1558441962632832,-2,0,-10,-9,-9,-2,0,-1
1558441962648742,0,-1,4,3,1,-13,-5,1
1558441962648742,-3,-4,2,0,2,-1,3,0
1558441962650433,-4,-3,-2,-1,-6,2,-6,-4
1558441962650433,-1,-4,-5,-1,0,-5,-5,-1
1558441962662751,3,4,11,9,9,14,4,1
1558441962662751,-1,-3,-18,-23,-15,-10,-9,-4
1558441962671392,2,-2,-4,3,1,-1,11,5
1558441962671392,0,2,-1,-4,-1,1,2,4
1558441962686367,0,0,0,2,-1,-8,-6,0
1558441962686367,0,-1,4,-4,-4,-1,-3,-1
1558441962700758,-1,-1,-3,-5,-6,-7,-8,-6
1558441962700758,2,1,-3,-6,5,6,-2,-3
1558441962709693,-2,-4,-3,3,-6,3,-1,-1
1558441962709693,-1,1,2,-3,2,6,7,2
1558441962710275,-2,-1,7,6,1,-3,-5,0
1558441962710275,0,-2,-8,-8,2,-3,0,1
1558441962722244,0,-1,1,-1,1,1,5,1
1558441962722244,-3,-6,-9,7,-5,-6,-4,-7
1558441962731219,0,0,1,-5,3,5,1,-2
1558441962731219,-2,-1,4,2,-3,-3,-4,-2
1558441962746556,1,3,-6,-18,-4,-1,4,2
1558441962746556,-1,0,6,9,3,-2,0,-1
1558441962752598,3,2,5,1,5,0,3,4
1558441962752598,0,0,0,4,-9,2,4,-4
1558441962769117,-3,-6,-11,-3,-1,-1,-4,-3
1558441962769117,4,7,8,1,9,-3,8,6
1558441962770113,-6,-2,-12,-6,-10,-7,-4,-4
1558441962770113,-5,-9,-3,-1,0,-10,-6,0
1558441962782490,1,0,3,-5,2,2,2,4
1558441962782490,2,0,1,14,8,2,7,1
1558441962791087,3,-2,-2,-16,-8,2,2,2
1558441962791087,-1,4,-3,-4,-12,-10,-13,-4
1558441962806018,2,0,-2,-2,2,-5,1,1
1558441962806018,-4,-1,2,7,11,14,8,3
1558441962812331,-1,1,-6,-6,-13,-9,-8,-4
1558441962812331,-2,-3,3,0,-2,2,2,-1
1558441962835979,-1,0,7,-3,-7,-5,-4,-4
1558441962835979,-3,-2,-8,-9,5,-8,-2,-1
1558441962837933,0,1,6,13,9,-2,2,3
1558441962837933,-2,-5,-11,-8,-6,-1,-7,-4
1558441962841962,-1,-1,2,1,-5,-2,-9,-2
1558441962841962,0,0,-6,-10,-14,-2,-6,-5
1558441962851014,-2,-4,-1,2,4,4,4,-6
1558441962851014,-2,-1,2,5,0,-9,-6,-4
1558441962865979,0,-1,-2,0,-1,-3,1,0
1558441962865979,-1,-2,2,1,-2,6,-4,0
1558441962872917,3,2,-5,7,6,11,6,1
1558441962872917,-1,2,8,-2,7,3,4,2
1558441962888899,2,4,5,4,6,-6,5,5
1558441962888899,-2,-2,-4,-6,-12,-12,-11,-4
1558441962889873,-3,-2,-4,3,-1,0,0,1
1558441962889873,-1,-4,0,4,4,4,5,1
1558441962902840,-2,-1,-4,-2,-2,10,3,-2
1558441962902840,0,-1,2,2,3,-8,-9,-1
1558441962911814,0,3,5,5,8,3,2,-2
1558441962911814,-1,-2,-10,-8,-3,6,0,-2
1558441962925805,0,0,4,0,0,0,-1,-4
1558441962925805,-1,3,3,3,-5,1,1,-3
1558441962932760,-3,-5,-7,-13,-7,-10,-8,-7
1558441962932760,1,-1,-1,-6,1,0,-1,3
1558441962948745,-2,-3,1,1,9,10,1,-3
1558441962948745,-2,-2,6,4,-1,2,-3,-2
1558441962949713,-5,-2,-3,0,-8,-2,-2,-3
1558441962949713,-3,-1,-2,3,3,8,1,-1
1558441962962678,4,2,-3,-1,3,-19,7,6
1558441962962678,-1,-6,-1,-4,-1,-5,-5,-1
1558441962971653,0,-2,-7,-1,1,7,6,4
1558441962971653,0,2,7,5,-2,-3,-6,-4
1558441962985616,-2,-1,3,6,-1,12,-2,-3
1558441962985616,2,1,-9,-7,4,4,5,2
1558441963009641,-1,-4,-2,-4,-2,-7,-2,-1
1558441963009641,-2,-2,2,5,-4,-2,-4,-5
1558441963010564,-5,-7,-1,-5,-10,-1,-6,-6
1558441963010564,-1,3,-5,3,-5,-9,-2,-3
1558441963011548,4,3,9,4,9,1,9,5
1558441963011548,0,1,-2,-3,1,-4,2,3
1558441963022518,-7,-7,4,6,4,-4,-4,-2
1558441963022518,-3,-4,-3,-4,-7,4,-4,0
1558441963031726,-5,-2,-2,2,-4,-2,-7,-7
1558441963031726,-1,2,1,-7,-2,-2,-1,2
1558441963046004,2,1,4,9,4,1,0,1
1558441963046004,0,-4,-10,-15,-5,-6,3,2
1558441963052875,1,-1,2,1,3,-6,-1,2
1558441963052875,-4,-3,-8,-5,-6,-4,-2,-2
1558441963068004,0,1,-9,-8,-9,-9,-10,-3
1558441963068004,2,1,9,6,15,18,13,1
1558441963082963,2,1,4,4,4,-3,2,4
1558441963082963,1,0,6,2,-4,-8,-2,-6
1558441963084318,-3,-5,-17,-10,-4,-8,-3,-4
1558441963084318,-3,-2,-4,3,-12,-6,-6,-4
1558441963091302,-4,-2,-1,0,-6,-8,-8,-5
1558441963091302,2,-2,5,6,4,5,-1,-1
1558441963105267,2,3,-1,-2,3,11,11,7
1558441963105267,3,5,-4,-16,0,3,0,-4
1558441963112276,-6,-11,-3,-1,-10,-1,-15,-6
1558441963112276,0,1,-3,0,1,-2,4,2
1558441963128240,1,2,-3,0,3,-10,-1,4
1558441963128240,-2,-2,4,3,0,-2,-2,-2
1558441963135223,3,3,1,-3,-6,-1,-3,-2
1558441963135223,0,0,-3,-10,-3,-2,2,-2
1558441963142199,-4,-5,4,6,-7,-1,-3,-4
1558441963142199,-4,-1,-7,-4,-6,-14,-5,-2
1558441963151145,0,0,0,-1,7,1,5,4
1558441963151145,0,-3,0,5,-1,0,-5,0
1558441963165137,0,0,-1,-3,-1,6,-1,-2
1558441963165137,-3,-4,3,3,-6,-6,-5,-6
1558441963174179,-2,-2,-3,-8,-7,4,0,-4
1558441963174179,-3,-3,-4,-6,-5,-11,3,-1
1558441963188172,2,2,-2,8,17,13,11,3
1558441963188172,-2,-4,-2,-4,4,1,0,2
1558441963195123,0,-1,0,-3,-6,-2,-1,1
1558441963195123,1,2,2,-1,-6,0,-1,-2
1558441963202103,-2,-2,-5,-2,-5,0,-2,-1
1558441963202103,3,0,1,0,7,0,4,3
1558441963211078,-2,-4,0,9,4,2,2,-1
1558441963211078,-1,-1,2,1,1,0,-1,3
1558441963225137,2,3,6,-2,-1,-3,-4,-2
1558441963225137,-1,0,-6,0,4,5,4,-1
1558441963234342,-1,-1,-2,-2,-1,5,2,-1
1558441963234342,1,3,3,5,7,0,1,1
1558441963248403,-1,-3,-3,-1,-7,-6,-10,-1
1558441963248403,-2,-2,6,4,0,1,0,2
1558441963255289,3,2,-1,-1,4,7,0,-1
1558441963255289,-1,-2,0,0,0,5,1,-1
1558441963271347,-3,-1,-11,-10,-8,-4,-7,-4
1558441963271347,1,0,3,2,-6,-5,-1,1
1558441963272245,-1,-2,-3,1,0,-10,-3,-5
1558441963272245,-4,0,-5,-5,-4,-3,-4,-2
1558441963285310,-1,0,12,1,7,1,5,1
1558441963285310,-4,-2,-9,2,-2,-3,-7,-3
1558441963294213,-4,-4,-11,-10,-12,-10,-6,-3
1558441963294213,-3,-5,-6,-1,0,-4,0,-5
1558441963308178,-2,-4,-2,-3,-7,0,-7,-5
1558441963308178,0,2,9,5,-2,1,-8,-6
1558441963315158,1,-1,-3,-7,2,1,2,5
1558441963315158,0,0,2,7,5,-4,8,4
1558441963331117,-1,-2,-7,-21,-6,-5,1,0
1558441963331117,-1,3,3,3,8,1,1,3
1558441963333111,-1,-2,1,-2,-9,-12,-6,-3
1558441963333111,2,2,3,-1,6,8,2,0
1558441963345080,-4,-7,-4,3,6,3,-1,-1
1558441963345080,-1,-2,-2,3,-9,-6,1,2
1558441963354027,0,0,7,5,1,-5,-4,1
1558441963354027,-1,0,-2,-1,-1,5,4,-4
1558441963368023,1,3,8,10,3,2,1,0
1558441963368023,-4,-5,-10,-8,-1,7,5,-1
1558441963375000,-3,-7,-11,-17,-16,-11,-9,-4
1558441963375000,-1,-1,-1,1,-1,3,-1,-1
1558441963390930,-2,2,-1,-1,6,3,5,-1
1558441963390930,-1,-2,2,5,-3,0,3,2
1558441963392922,1,3,-2,0,4,-6,-1,2
1558441963392922,-2,-2,3,2,0,-2,-3,-2
1558441963404889,-3,-3,-2,-2,-7,-3,-6,-4
1558441963404889,-2,-2,-2,-1,4,11,-3,-1
1558441963413866,0,0,1,1,4,7,-1,1
1558441963413866,1,-1,2,3,2,-3,0,0
1558441963428070,-1,-1,-5,-9,-7,-6,-7,-6
1558441963428070,1,-2,-5,-8,-8,-8,0,-5
1558441963435045,0,4,7,3,3,9,6,1
1558441963435045,-3,-8,-2,3,1,2,-1,4
1558441963451764,-2,-1,-7,-5,1,3,2,0
1558441963451764,-1,0,-2,-1,-9,-19,0,-2
1558441963452763,-1,-1,-1,1,5,1,-1,-1
1558441963452763,1,3,-2,-2,-6,-2,-1,-4
1558441963464797,-3,-5,-9,-5,-6,-2,-8,-4
1558441963464797,-5,-2,4,1,1,-1,-10,-5
1558441963473707,2,3,11,10,7,2,6,0
1558441963473707,-2,-2,-5,-8,-5,-7,-5,-3
1558441963487701,3,2,2,4,4,3,5,2
1558441963487701,0,0,-3,-4,-1,-4,-2,-1
1558441963494679,-2,-2,-5,-1,0,0,-3,-2
1558441963494679,0,1,1,-7,2,6,0,2
1558441963511634,-2,-4,1,-4,-18,-12,-11,-4
1558441963511634,-1,0,-8,-2,4,2,3,2
1558441963512601,1,0,-1,7,6,8,8,2
1558441963512601,-2,-4,-3,-10,0,2,-2,-3
1558441963524602,-4,-7,-2,6,4,-9,1,-1
1558441963524602,3,1,6,3,6,4,-2,2
1558441963533560,-2,-2,-2,-4,-4,0,3,-4
1558441963533560,-2,1,-4,2,-4,-1,-4,-4
1558441963548539,1,2,2,3,3,5,2,0
1558441963548539,0,-1,5,0,3,1,3,1
1558441963554491,-3,-3,-5,-3,-7,-11,-9,-1
1558441963554491,2,-4,-6,-6,11,17,9,6
1558441963571478,0,1,2,3,4,-7,2,4
1558441963571478,-1,-3,-4,-11,-11,-6,-4,-6
1558441963572442,-1,-2,-2,-4,-9,-9,-15,-5
1558441963572442,3,3,2,8,10,14,18,7
1558441963584413,-2,0,3,3,1,-3,-2,-3
1558441963584413,-4,-4,-3,-4,-8,-1,-5,-5
1558441963593385,1,-1,-2,-4,-1,-10,-1,3
1558441963593385,-1,-1,2,0,3,-7,-2,-2
1558441963608345,-1,2,1,-3,-4,4,-4,-6
1558441963608345,-3,-4,-6,-4,-6,1,-5,-3
1558441963615373,3,3,5,3,14,6,12,6
1558441963615373,-3,1,5,11,-1,-7,-9,-4
1558441963631495,1,-2,-5,-11,-4,-3,6,0
1558441963631495,3,3,2,3,9,9,8,3
1558441963633317,-2,-7,-5,-3,-9,-2,-7,-4
1558441963633317,-1,-3,-6,-4,-6,-3,-5,-4
1558441963645462,-1,3,6,3,1,2,-7,-1
1558441963645462,-3,-6,-5,2,-3,2,-4,1
1558441963654226,0,0,-2,-3,2,6,3,-6
1558441963654226,-1,-1,4,1,-5,-12,-2,0
1558441963668405,4,4,7,6,7,8,3,2
1558441963668405,0,-1,-7,-15,-5,-13,-4,-2
1558441963675379,0,3,-3,1,0,3,5,3
1558441963675379,-3,-5,-3,-2,-10,-2,-8,-5
1558441963691337,0,-1,-1,1,1,0,-7,0
1558441963691337,0,0,6,5,4,4,4,1
1558441963692121,0,0,2,1,4,-5,-3,1
1558441963692121,0,-2,-5,-8,-11,-7,-2,-1
1558441963705157,-2,-3,-3,5,4,2,-3,-1
1558441963705157,-1,0,-7,-7,-5,-9,-3,-1
1558441963714062,-4,-2,4,2,-6,-1,-1,-2
1558441963714062,2,5,-2,-3,6,-2,7,6
1558441963728109,-3,-1,5,2,-6,-8,-8,-6
1558441963728109,-5,-11,-10,-4,-7,2,-4,-1
1558441963735069,-1,-1,8,7,4,3,5,1
1558441963735069,-3,-3,-7,-7,-9,-14,-14,-4
1558441963751000,2,-1,-3,-1,0,7,8,-1
1558441963751000,2,3,4,-1,7,4,6,3
1558441963752960,-6,-6,-10,-4,-8,1,-11,-6
1558441963752960,-4,-6,-6,-13,-11,-2,-5,-4
1558441963764957,0,-2,-5,-1,2,-2,6,4
1558441963764957,-1,0,1,6,2,2,-3,-1
1558441963773903,1,-1,4,0,2,3,1,0
1558441963773903,2,4,4,-3,1,-17,-5,0
1558441963787866,-1,-2,0,1,-4,-3,-5,-3
1558441963787866,0,-1,0,1,9,9,10,0
1558441963794850,0,0,2,6,2,8,3,0
1558441963794850,0,-3,-7,-10,-1,-1,-5,-5
1558441963810805,0,-2,-7,-7,-2,-2,6,2
1558441963810805,4,5,8,9,9,-1,-3,0
1558441963812800,-2,2,-3,-2,-6,0,-6,0
1558441963812800,-2,0,3,6,4,3,2,-1
1558441963824766,-5,-9,-6,-9,-7,2,-5,-2
1558441963824766,1,1,0,3,2,-4,0,1
1558441963833741,-1,1,4,-6,-3,-4,-6,-4
1558441963833741,-3,-1,-4,0,-1,8,-4,-4
1558441963848721,-4,-5,-5,-3,-3,-4,-3,-4
1558441963848721,1,0,2,-5,-11,-14,-3,-1
1558441963854913,-2,-1,-4,-11,2,1,0,0
1558441963854913,-1,-3,-12,-2,-3,-3,1,1
1558441963871804,-3,0,4,4,-1,2,4,-5
1558441963871804,0,-2,-2,3,2,2,-6,-5
1558441963872638,0,0,0,-9,-1,-3,-1,0
1558441963872638,2,1,2,1,-5,3,-1,-2
1558441963884824,1,4,4,0,6,7,4,6
1558441963884824,-2,-1,7,2,-4,-5,-3,-3
1558441963893593,-3,-4,-13,-4,4,-8,1,-1
1558441963893593,3,2,11,7,14,10,14,6
1558441963908541,-2,-2,-6,-10,-4,-6,0,0
1558441963908541,0,0,4,-2,-4,-14,-5,-2
1558441963914607,-1,-2,-2,7,-3,-4,-1,-2
1558441963914607,-2,-4,2,0,-4,-3,-5,-3
1558441963931570,1,3,5,3,3,-2,4,1
1558441963931570,-7,-4,-12,-18,-11,-4,-8,-4
1558441963932481,-2,-4,-9,-5,0,-2,2,0
1558441963932481,-3,1,-1,7,-3,3,-5,-3
1558441963944445,-3,-8,-3,-5,-4,2,-6,-5
1558441963944445,-1,0,1,8,12,0,6,2
1558441963953451,-1,0,1,4,1,1,-1,-2
1558441963953451,-1,2,4,-1,1,-6,-3,2
1558441963968524,1,3,-6,-10,-4,-5,-6,0
1558441963968524,-5,-6,-3,5,-4,3,-2,-2
1558441963975390,1,2,-4,-13,-2,5,-3,-2
1558441963975390,0,-4,-7,3,0,-2,-3,-3
1558441963990465,3,4,13,8,7,3,3,3
1558441963990465,-3,-3,-12,-4,-4,-4,3,-1
1558441963997305,0,2,7,7,5,7,4,1
1558441963997305,-2,-2,0,-4,1,4,5,2
1558441964005283,-2,-4,-10,-2,-4,-8,-6,-5
1558441964005283,2,1,1,3,0,9,-6,-1
1558441964013290,0,1,9,7,-5,-11,1,1
1558441964013290,-4,-6,-12,-10,-5,-9,-5,-3
1558441964028258,1,2,4,3,2,4,4,6
1558441964028258,-1,0,2,-3,5,9,5,-1
1558441964035203,1,-3,1,8,-1,-4,0,-4
1558441964035203,-2,-5,3,-2,-6,-3,-6,-3
1558441964050163,-1,-2,-7,-7,-7,-12,-3,-2
1558441964050163,2,2,5,7,7,8,-1,3
1558441964057179,-1,1,1,1,0,-3,2,1
1558441964057179,1,-1,-5,-4,8,10,4,2
1558441964065344,-6,-7,-13,-6,-8,-11,-4,-2
1558441964065344,-1,-3,3,-3,-1,2,-1,0
1558441964074099,0,-1,3,3,5,-5,4,4
1558441964074099,4,4,-1,0,-5,-5,1,-1
1558441964088286,-4,-5,-5,-5,-13,-7,-11,-11
1558441964088286,-1,1,-1,-2,-1,-8,-3,-1
1558441964095420,0,1,3,1,4,16,3,0
1558441964095420,-4,-1,-1,1,-2,1,-3,-3
1558441964110490,0,1,-8,-2,2,-2,9,3
1558441964110490,1,1,1,-2,-6,-5,2,-3
1558441964117424,-5,-4,-2,-1,-8,-7,-6,-1
1558441964117424,-5,-4,-9,1,0,-3,-6,-4
1558441964125306,0,1,4,-9,0,1,-7,-4
1558441964125306,-2,-2,-2,-4,-6,-1,1,1
1558441964134307,0,-3,-6,-4,-5,0,-5,-2
1558441964134307,0,-1,-1,2,-3,-3,3,1
1558441964148558,2,-1,3,7,4,-4,0,2
1558441964148558,-2,1,4,4,-3,-7,0,-1
1558441964154608,1,-3,-1,-4,5,-3,2,-3
1558441964154608,-2,1,4,2,-7,-16,-3,-3
1558441964170537,0,-3,1,6,9,22,11,3
1558441964170537,1,0,-5,-6,-7,-7,-4,-4
1558441964177488,-1,-2,-3,3,7,6,-1,-3
1558441964177488,1,1,2,-2,-3,0,-3,-2
1558441964193475,-1,0,4,7,-3,2,-11,-4
1558441964193475,-1,0,0,1,-3,-13,3,1
1558441964195439,-4,-2,-3,-12,-7,-5,-3,-3
1558441964195439,0,1,-2,4,14,17,10,5
1558441964208444,-2,-1,-1,-4,-6,-11,-10,-2
1558441964208444,-3,-3,-4,0,-1,12,2,-2
1558441964214419,1,1,-7,-9,-8,-13,3,0
1558441964214419,-1,0,8,1,4,6,1,-1
1558441964230388,-2,1,-5,6,-6,-1,-3,-3
1558441964230388,0,-2,-2,-12,1,-2,0,1
1558441964237325,-4,-8,-12,-3,-11,-6,-10,-1
1558441964237325,2,2,13,6,7,13,2,2
1558441964254312,-2,-1,-14,-10,4,8,14,5
1558441964254312,-1,-1,8,15,0,-23,-7,-5
1558441964255276,1,3,1,-5,3,6,0,0
1558441964255276,0,-2,-2,-3,-1,2,8,0
1558441964268412,0,0,0,-1,5,3,0,2
1558441964268412,-4,-4,-10,-7,-14,3,-7,-4
1558441964275390,-3,-3,-5,-3,-5,3,-8,-6
1558441964275390,-1,2,4,2,-6,-19,-7,-4
1558441964290183,4,4,3,3,11,-3,8,2
1558441964290183,-1,-7,-3,-1,9,9,9,6
1558441964305143,-1,2,13,4,-1,3,-4,-1
1558441964305143,-1,-3,-18,-13,-10,-3,-4,-2
1558441964314118,-3,0,-1,-2,-8,-5,-11,-5
1558441964314118,3,5,10,8,10,3,3,2
1558441964315117,2,-3,-9,-4,5,2,4,2
1558441964315117,-5,-7,-4,-5,-13,-2,-13,-6
1558441964328081,2,2,6,3,-2,3,6,4
1558441964328081,5,7,1,-1,12,-1,10,1
1558441964335098,-3,-7,-1,2,-2,-9,-6,-3
1558441964335098,-1,-2,-6,1,-4,2,3,2
1558441964351021,-3,-4,-2,-3,1,2,-1,1
1558441964351021,-1,-2,-2,-4,-12,-9,-6,-2
1558441964357006,1,5,6,9,12,5,2,4
1558441964357006,1,-1,-1,-3,-6,-12,-4,-3
1558441964373991,-3,-2,-3,1,-2,1,-2,-3
1558441964373991,-2,-2,1,0,-6,-2,-5,-4
1558441964374956,-3,-3,-8,-9,-9,-7,-9,-3
1558441964374956,1,-1,2,1,5,12,8,3
1558441964388165,1,0,2,6,-1,-5,1,2
1558441964388165,-3,-3,-8,-7,-3,-3,-4,0
1558441964395149,-3,-4,-5,0,-4,-1,-1,0
1558441964395149,-2,0,3,-2,4,7,-2,-4
1558441964410862,0,1,1,1,2,-2,5,0
1558441964410862,-3,-1,-2,-2,-3,-2,-8,-13
1558441964417027,-4,-6,-2,-7,-2,9,-1,-2
1558441964417027,-2,1,2,-1,3,0,8,0
1558441964433952,0,-4,-3,-3,1,1,-2,-3
1558441964433952,-3,-3,-13,-6,-3,8,-8,-2
1558441964434798,2,5,10,6,-3,-5,1,-4
1558441964434798,-4,-5,-3,-4,-10,-13,-11,-6
1558441964447762,-2,-5,-8,-13,-3,2,-11,-1
1558441964447762,-1,0,6,10,14,12,11,4
1558441964454746,-1,-1,-1,0,-1,-2,2,0
1558441964454746,1,0,-3,-2,4,7,1,2
1558441964470699,-4,-3,4,5,-8,-12,-9,-7
1558441964470699,-5,-5,-13,-15,-8,-6,-4,-3
1558441964477683,2,3,8,5,2,-4,-1,1
1558441964477683,2,3,-9,-6,0,-7,3,3
1558441964493640,1,1,1,2,9,9,7,6
1558441964493640,-2,-1,0,0,3,4,4,2
1558441964495634,-1,-1,-3,-1,-7,-5,-5,-6
1558441964495634,0,-1,4,6,-1,1,-4,-4
1558441964508608,-2,-1,-1,-4,-3,-11,-5,-1
1558441964508608,2,5,7,12,10,-1,4,3
1558441964514762,2,5,1,-8,-6,0,-2,1
1558441964514762,-1,-3,-3,3,6,1,-4,-1
1558441964530579,-4,-5,0,2,-3,6,-4,0
1558441964530579,-3,-1,-4,-11,-8,-5,-3,2
1558441964537521,-1,-3,-9,-4,-7,-9,-10,-3
1558441964537521,-2,-2,-1,-4,1,1,9,4
1558441964553515,5,4,12,9,11,11,8,3
1558441964553515,1,0,-1,-3,-1,2,3,1
1558441964555474,-3,0,4,5,3,2,-1,0
1558441964555474,-1,-1,-11,-5,-8,-11,-9,-5
1558441964568438,-3,-5,-14,-22,-11,-6,-7,-5
1558441964568438,0,0,5,8,5,4,3,-1
1558441964574425,1,1,1,1,4,-7,8,6
1558441964574425,-2,-3,6,1,-3,3,-5,-2
1558441964590383,-1,0,1,-2,-9,-3,5,-1
1558441964590383,2,0,-5,2,0,-6,-12,-1
1558441964597389,1,1,0,-2,5,2,6,2
1558441964597389,-4,-6,-5,-11,-4,-11,-9,-3
1558441964615314,-1,-2,-8,-4,-3,4,-2,-5
1558441964615314,-2,-6,1,-5,-5,5,-8,-2
1558441964616311,0,4,5,6,9,2,5,-1
1558441964616311,-2,2,-1,-1,-2,-6,0,2
1558441964628279,-1,0,-2,1,7,-3,1,1
1558441964628279,-4,-5,3,6,2,-4,4,0
1558441964636262,0,-1,-10,-10,-6,1,3,2
1558441964636262,-3,-2,0,-1,3,12,0,1
1558441964650219,-3,-3,-5,-7,-20,-16,-15,-11
1558441964650219,1,4,11,9,11,18,10,2
1558441964657209,-3,-6,-10,-6,-4,-14,-4,-5
1558441964657209,-1,0,-2,11,4,-6,-2,0
1558441964674156,-1,-1,-3,-18,-4,-4,0,2
1558441964674156,-3,-6,-4,-1,-12,-7,-11,-6
1558441964675155,0,3,-1,2,4,15,4,2
1558441964675155,-2,3,5,-1,-3,0,1,-1
1558441964687124,-2,-4,-2,6,3,-4,-3,-2
1558441964687124,0,-1,-6,-8,-2,-2,-2,-1
1558441964696097,-4,-2,2,5,1,0,-2,-4
1558441964696097,2,-1,5,2,6,3,1,-1
1558441964710065,-2,-1,10,10,-3,-3,-2,2
1558441964710065,0,0,-4,-9,-2,2,-4,-4
1558441964717041,1,-3,-11,-7,-10,-13,-3,0
1558441964717041,0,-1,10,3,-5,-4,-3,-2
1558441964733998,-3,-8,-19,-12,5,14,3,-1
1558441964733998,-1,-2,8,7,1,-2,1,1
1558441964734996,-5,-3,-7,-5,-1,3,-3,-4
1558441964734996,-2,0,-6,-7,-8,-4,-4,-4
1558441964747964,1,7,12,13,16,4,5,6
1558441964747964,-2,-2,1,-3,0,-2,-1,2
1558441964755943,0,-1,0,0,-4,2,-3,-4
1558441964755943,-4,-5,-4,-3,-5,-12,-2,-1
1558441964770903,-1,1,1,7,1,4,0,-2
1558441964770903,0,-1,-9,-10,-2,-7,-7,-4
1558441964778883,-2,-3,1,-4,-8,4,-2,-6
1558441964778883,-4,-7,-10,-6,-2,-4,-6,-1
1558441964793841,3,2,9,5,4,-5,8,0
1558441964793841,-4,0,8,0,-2,-2,-3,0
1558441964794834,0,-2,-8,-3,0,-1,-2,-3
1558441964794834,0,-1,-6,-2,-5,0,-6,-4
1558441964806802,-3,-6,-10,-4,-4,-1,-1,-1
1558441964806802,1,1,3,-3,-7,-8,3,0
1558441964815778,-3,-1,-6,-11,-7,-1,-6,-1
1558441964815778,-1,0,1,-1,-3,0,3,0
1558441964830738,0,0,5,-1,-4,-3,-6,-3
1558441964830738,0,2,-6,-1,3,13,4,0
1558441964837721,1,0,8,9,6,-4,8,5
1558441964837721,-3,-3,-3,1,7,9,3,-1
1558441964853677,-2,0,6,0,-5,-10,-9,-2
1558441964853677,-2,-4,-17,-12,-16,-14,-5,-5
1558441964854676,-1,1,6,8,4,12,6,0
1558441964854676,1,2,0,-10,6,9,5,1
1558441964867644,-3,-1,-5,-1,-1,-7,-6,2
1558441964867644,-1,-1,-1,5,-4,-13,-4,-5
1558441964883596,1,1,5,1,10,-5,1,0
1558441964883596,3,0,0,-5,-5,6,1,0
1558441964890578,-2,-3,-7,-4,1,5,-2,-2
1558441964890578,-5,-4,-9,-3,-3,-1,-6,-3
1558441964897562,-2,-1,-2,1,-5,2,-5,-1
1558441964897562,0,2,4,5,10,0,1,1
1558441964913517,2,6,8,6,-1,1,4,-2
1558441964913517,-1,-2,-1,5,-2,5,0,0
1558441964919502,-1,1,-4,-9,-2,-20,-6,0
1558441964919502,-4,-2,-9,1,1,0,3,1
1558441964927479,-2,-3,-2,-10,-10,-6,-6,-5
1558441964927479,0,0,6,8,8,7,-2,-2
1558441964936456,2,-2,2,-2,-2,-2,-2,-1
1558441964936456,0,-1,-4,2,1,-1,5,1
1558441964950419,-3,-5,-9,-8,-6,-2,-5,-7
1558441964950419,0,0,5,6,5,8,-3,0
1558441964957400,-2,-4,4,10,8,13,13,3
1558441964957400,-1,0,4,-1,-4,-13,-4,-3
1558441964973358,0,-1,-3,0,2,2,2,0
1558441964973358,-1,0,0,-3,-4,-7,-3,-2
1558441964979346,0,-1,-5,-4,-5,-7,-6,-1
1558441964979346,1,2,9,16,9,6,-3,2
1558441964987319,-1,-3,-6,-9,-6,-8,2,0
1558441964987319,1,-1,-10,-2,0,-5,-1,0
1558441964996295,0,1,1,-1,-7,-5,-4,-2
1558441964996295,-4,-4,0,0,2,8,2,-1
1558441965010257,-2,1,0,-1,-5,-2,-2,-3
1558441965010257,-1,-3,-1,2,2,7,10,2
1558441965017239,0,-1,-1,-4,-1,-1,-6,-4
1558441965017239,1,2,6,5,-4,2,4,1
1558441965033200,-1,-3,-11,-2,4,-2,1,0
1558441965033200,2,2,6,-2,-2,-5,-2,-2
1558441965040178,-4,-6,-8,-2,-1,3,0,-2
1558441965040178,-1,-1,-5,-6,-5,-8,-9,-2
1558441965047158,1,1,7,4,3,7,9,4
1558441965047158,2,1,5,-1,-1,-2,-7,-1
1558441965056137,-2,-1,-9,-7,-5,-3,1,0
1558441965056137,-1,1,7,6,8,-9,5,-3
1558441965070100,-5,-8,-7,2,-9,2,-5,-3
1558441965070100,-3,-2,-4,-7,-2,-8,-9,2
1558441965077078,-1,-2,2,1,-5,1,-3,-1
1558441965077078,0,3,-5,3,-1,1,2,0
1558441965093037,-1,3,14,1,5,-1,1,2
1558441965093037,-4,-4,-6,-5,1,-4,5,-1
1558441965100024,-2,-3,-8,-1,-2,1,-4,0
1558441965100024,1,0,1,-1,-5,-9,-4,0
1558441965115974,-1,-2,-10,-1,-1,-2,-1,-3
1558441965115974,-1,1,-6,-22,-15,-6,-6,-4
1558441965117969,-2,-2,2,9,8,6,3,-1
1558441965117969,-2,-1,8,-2,1,7,5,-2
1558441965130934,-1,1,-6,2,12,6,2,-2
1558441965130934,-3,-2,0,-1,-10,-4,6,-4
1558441965136918,-2,-1,-5,-7,1,-6,-5,-2
1558441965136918,-2,-3,-5,-5,-10,-5,-3,-4
1558441965152875,1,2,4,-3,-9,-8,-4,0
1558441965152875,2,3,-2,6,12,9,13,5
1558441965159857,-2,-2,7,6,5,6,6,-1
1558441965159857,-5,-12,-10,-14,-2,-4,-8,-4
1558441965175816,-1,0,3,-3,-3,-1,-3,-1
1558441965175816,0,-2,0,-2,0,-10,-4,0
1558441965177809,2,3,7,4,4,5,3,3
1558441965177809,-1,-2,-6,-6,-3,-2,-6,-2
1558441965190776,0,-1,6,1,2,10,-6,-2
1558441965190776,-4,-4,-7,0,0,4,8,-3
1558441965196761,-3,-2,-9,-11,-8,-11,-2,-2
1558441965196761,1,-2,-6,8,5,-9,-1,-2
1558441965212716,-1,1,-1,-5,-10,-12,-5,-4
1558441965212716,-2,1,-5,-9,-8,7,-4,-3
1558441965219700,0,-2,7,8,11,3,3,1
1558441965219700,-2,-3,-13,-15,-9,-6,-3,1
1558441965235655,1,0,5,9,6,4,4,4
1558441965235655,0,0,6,3,7,5,5,-1
1558441965237649,-2,-3,-6,-8,-7,3,-2,-4
1558441965237649,-1,1,2,-3,-5,-4,-5,-1
1558441965250615,1,0,1,3,3,0,2,1
1558441965250615,-1,-2,0,1,4,-5,-3,-3
1558441965257597,-1,1,0,3,-9,-8,-7,-2
1558441965257597,-1,-1,-3,-13,0,0,3,2
1558441965272560,-5,-7,-7,-4,-5,6,-1,-5
1558441965272560,-3,1,2,3,-1,9,-9,-4
1558441965279538,2,1,-1,1,1,-7,0,1
1558441965279538,0,0,-1,6,-2,-10,1,0
1558441965296497,4,2,0,-1,6,2,4,6
1558441965296497,-2,-1,1,2,-1,-8,-4,-4
1558441965297490,-5,-2,1,4,5,14,3,0
1558441965297490,-2,1,1,2,-6,4,-3,-3
1558441965310457,-1,-2,2,-3,-5,-14,-18,-4
1558441965310457,1,-2,-2,-3,0,10,6,5
1558441965317436,-1,-2,0,-5,-5,0,-2,-3
1558441965317436,2,3,9,6,12,4,5,3
1558441965333394,1,-1,-16,-1,-2,-8,-1,-1
1558441965333394,-2,-2,-3,-4,-4,-1,-5,-3
1558441965339380,-3,-5,0,-5,-3,0,-6,-5
1558441965339380,-2,0,4,-1,-6,2,1,3
1558441965363314,0,2,3,-1,0,-16,0,-2
1558441965363314,0,-3,1,12,4,3,4,2
1558441965365326,-1,-3,-9,-8,-3,8,4,2
1558441965365326,-5,-2,-1,4,-4,-7,-8,-9
1558441965370294,-1,0,1,0,-4,0,0,-4
1558441965370294,-3,-1,1,-11,-9,-2,3,-2
1558441965377275,4,1,1,6,4,2,0,1
1558441965377275,3,3,-1,3,12,1,9,7
1558441965393234,-2,-3,2,-3,-6,-8,-3,-2
1558441965393234,-1,0,0,3,-1,0,-2,1
1558441965400213,-4,-2,-5,0,-1,0,-9,-5
1558441965400213,-1,-4,-7,-10,-10,0,-4,-3
1558441965416180,0,0,2,6,8,6,8,1
1558441965416180,2,-1,-5,-10,-4,-17,-3,3
1558441965417173,0,0,3,0,-9,-9,-4,1
1558441965417173,1,2,5,11,6,7,6,1
1558441965430136,-4,-6,-14,-20,-10,-2,-7,-5
1558441965430136,0,0,6,6,0,-9,-5,3
1558441965437116,-1,-1,-10,-12,-4,-7,-4,-2
1558441965437116,1,1,2,4,2,4,0,-1
1558441965453073,0,3,5,4,8,9,4,2
1558441965453073,-3,-8,-5,0,-3,1,-5,-6
1558441965460054,-1,-1,2,3,-4,-10,-7,-5
1558441965460054,-2,-2,-6,-6,-2,-3,-2,-1
1558441965476011,0,2,-1,-5,-2,8,10,5
1558441965476011,0,0,-5,-5,1,-7,-4,1
1558441965478006,-1,0,6,2,-2,2,5,2
1558441965478006,-3,-8,-14,-9,-11,-7,-11,-7
1558441965498950,-1,-3,-3,0,-9,-7,-4,-1
1558441965498950,3,5,7,1,9,15,13,7
1558441965499947,4,4,2,4,13,1,8,4
1558441965499947,-1,-1,0,-1,1,2,-1,0
1558441965512921,-2,0,1,3,0,0,-3,-1
1558441965512921,-3,-4,-3,-8,-10,-11,-9,-6
1558441965519894,-1,1,-5,-5,-3,-1,-2,-1
1558441965519894,-1,3,2,2,2,14,4,-1
1558441965535853,-1,-8,2,1,-2,1,-3,-2
1558441965535853,-5,-5,-12,-2,-9,-17,-5,-4
1558441965537850,-2,-1,-4,-11,-1,-1,-3,2
1558441965537850,0,0,1,5,4,-4,1,4
1558441965550816,1,2,7,6,10,15,9,1
1558441965550816,1,-1,3,3,0,8,2,-1
1558441965556799,-1,-4,-8,-7,-10,-13,-10,-5
1558441965556799,-3,-4,-7,-10,-17,-16,-11,-3
1558441965572756,1,3,5,11,16,19,10,2
1558441965572756,-3,0,1,-2,5,3,1,3
1558441965579737,-1,0,3,2,1,-4,-1,-2
1558441965579737,-2,-4,-2,-4,-3,2,-5,-2
1558441965595696,-1,-2,-2,-3,-13,-11,-11,-5
1558441965595696,3,3,6,8,0,-13,-1,1
1558441965597690,-3,-4,-5,-20,-2,5,3,3
1558441965597690,0,-2,-4,-2,-3,-4,5,-1
1558441965609653,-6,-6,-10,-9,-10,-6,-3,-6
1558441965609653,-4,-1,-4,1,2,9,-2,-3
1558441965618630,0,6,10,10,7,6,8,0
1558441965618630,-2,-1,-2,-5,-3,-14,-9,0
1558441965632596,-2,-7,-1,-1,9,4,4,2
1558441965632596,1,-1,-5,-3,3,11,7,-2
1558441965639578,0,-3,0,0,-7,-9,-9,-6
1558441965639578,-3,-4,-7,-4,4,14,4,-4
1558441965656530,0,0,-2,2,-6,-5,-6,-2
1558441965656530,0,-2,7,12,10,4,3,2
1558441965657530,-4,-5,-5,-10,-8,-4,-2,-2
1558441965657530,2,-1,2,0,-2,-4,-2,0
1558441965669495,-2,1,4,-6,-8,-11,-6,-5
1558441965669495,1,1,-6,-4,-6,-2,-11,-4
1558441965678470,-1,-3,-7,7,3,5,9,2
1558441965678470,-1,0,5,-3,5,-7,1,-1
1558441965693429,0,-1,-7,-4,1,2,9,5
1558441965693429,0,0,2,-3,-6,-5,-4,-3
1558441965699416,-3,-2,1,1,-2,-1,-3,-4
1558441965699416,-2,-1,-2,3,1,5,-7,-2
1558441965716371,0,1,4,1,-1,-3,-6,1
1558441965716371,-1,-1,-1,1,0,5,-1,-2
1558441965717367,1,-3,-2,-2,5,2,3,4
1558441965717367,1,2,2,6,4,-5,7,-2
1558441965729335,0,2,2,0,4,5,-5,-4
1558441965729335,-3,-2,-11,-8,-7,-4,-7,-4
1558441965738309,-2,1,6,9,-1,4,2,-1
1558441965738309,-3,-5,-3,-14,-7,-1,-10,-3
1558441965753269,-3,-4,-13,-4,-14,-17,-6,-7
1558441965753269,-1,-4,-2,-10,1,2,9,2
1558441965760261,3,3,7,5,8,-7,4,1
1558441965760261,-1,1,1,1,2,2,-2,-2
1558441965776213,0,2,4,-2,0,-2,-1,-1
1558441965776213,-4,-6,-13,-4,-10,-4,-5,-4
1558441965777209,0,-1,2,3,-3,-7,-6,-1
1558441965777209,2,0,3,3,4,14,9,1
1558441965790173,-2,-1,0,-1,0,-2,4,1
1558441965790173,3,2,-3,-12,-5,-12,-8,0
1558441965799149,-1,0,-1,1,4,14,-2,-2
1558441965799149,1,0,-5,-2,4,0,7,2
1558441965813115,-1,2,12,6,6,4,-1,2
1558441965813115,-4,-4,-8,-8,-10,-6,-6,-4
1558441965820093,-3,-6,-3,-3,-3,-3,-6,-4
1558441965820093,0,-4,-5,2,2,4,6,1
