timestamp,emg1,emg2,emg3,emg4,emg5,emg6,emg7,emg8
1558441974034325,-2,-2,0,1,-6,-1,-5,-2
1558441974034325,-3,-3,1,2,-4,-11,-7,-2
1558441974035323,0,-1,-1,-1,-6,-7,-5,-2
1558441974035323,2,1,3,0,4,3,5,0
1558441974035323,-1,0,-3,-3,1,8,1,-2
1558441974035323,-2,0,4,0,0,0,2,0
1558441974036322,-1,0,-9,-4,-1,-3,-4,-1
1558441974036322,-5,-7,-2,-1,-8,-2,-8,-4
1558441974048288,0,-3,-1,0,2,6,0,0
1558441974048288,-1,-3,-1,1,-3,-3,-5,-2
1558441974055276,1,0,0,0,6,10,7,3
1558441974055276,-2,-1,-5,-2,-3,-6,-1,-1
1558441974063248,-2,-2,-2,-4,-5,-3,-1,-1
1558441974063248,-1,0,-2,3,-5,-8,-4,-4
1558441974077211,-2,-3,1,3,-1,-7,-2,-3
1558441974077211,-2,-2,-7,-15,-4,0,2,-2
1558441974088182,1,-1,2,7,2,-5,-5,-3
1558441974088182,-2,0,-5,-7,5,13,5,2
1558441974092172,0,-1,4,0,-1,-8,4,0
1558441974092172,-2,-2,1,6,0,3,0,-3
1558441974107131,0,-1,-4,-4,-11,-14,-9,-1
1558441974107131,-1,0,2,-4,12,16,5,2
1558441974116107,-3,0,-5,-8,-15,-15,-4,-1
1558441974116107,-2,-2,2,3,4,-4,-6,0
1558441974155004,2,1,-3,-4,-3,6,5,-1
1558441974155004,0,-2,-1,-2,2,-7,-1,-1
1558441974156000,-1,1,3,-1,-1,0,-4,0
1558441974156000,-2,0,0,6,-1,-1,-7,-2
1558441974156997,-1,-2,1,-9,-5,-9,-3,-2
1558441974156997,0,-1,-2,-4,6,13,8,1
1558441974159989,0,1,-1,0,1,-3,3,-1
1558441974159989,0,-2,-1,-7,-4,-8,-3,0
1558441974166970,-2,-2,-5,0,1,8,0,-2
1558441974166970,1,0,-2,0,-4,-6,-1,-1
1558441974182928,-3,-3,-2,-3,-7,1,-2,-1
1558441974182928,-1,0,-3,-2,0,7,2,0
1558441974184923,-2,0,0,1,-2,-12,0,0
1558441974184923,1,2,5,1,10,7,2,4
1558441974196890,-2,-3,-4,-4,-3,5,-3,-5
1558441974196890,-2,-2,-2,6,-3,0,-5,-4
1558441974205867,0,0,3,4,7,0,5,5
1558441974205867,-2,-4,-4,-8,-9,-6,-1,-5
1558441974211852,0,-2,0,-6,-4,-5,-3,-3
1558441974211852,2,-1,-3,-6,-5,1,-3,-2
1558441974226811,1,1,-1,0,-4,-6,-8,-3
1558441974226811,-5,-1,0,8,3,9,-1,-1
1558441974234789,-2,0,0,-2,-2,0,1,1
1558441974234789,-4,-2,0,-1,-3,-4,-2,-2
1558441974243766,0,1,0,5,5,16,3,1
1558441974243766,-1,-3,-10,-13,-12,-11,-1,-1
1558441974256730,2,0,0,5,5,-12,4,2
1558441974256730,-2,-4,-6,-13,-4,-5,-3,-2
1558441974265705,-1,-3,7,10,2,-1,3,0
1558441974265705,-1,-2,-4,-8,-7,1,-8,-3
1558441974271691,-4,-4,-3,-1,-8,2,-9,-5
1558441974271691,1,3,3,7,7,3,17,6
1558441974288645,0,3,4,-4,-1,-26,-3,0
1558441974288645,-3,-4,-1,7,3,8,-2,-4
1558441974294630,-1,-2,-2,-2,-8,-5,-8,-2
1558441974294630,-3,-2,3,5,2,16,-9,-5
1558441974303605,-2,-6,-11,-22,-8,3,-1,-2
1558441974303605,-1,-2,3,6,1,-17,-4,-1
1558441974316571,3,2,5,5,9,3,7,5
1558441974316571,-2,-4,-4,-1,-5,-3,-7,-6
1558441974325547,-1,-2,2,3,-2,0,1,0
1558441974325547,-1,0,-4,-6,-5,-14,-5,-1
1558441974331530,-2,-2,-1,3,8,9,3,2
1558441974331530,0,1,1,-2,-1,-7,-1,1
1558441974348485,-2,-3,-1,2,-1,-2,-4,-4
1558441974348485,1,2,2,-4,-1,1,3,-1
1558441974354816,-1,-2,-4,-7,-7,0,-3,-4
1558441974354816,0,2,1,2,3,0,3,2
1558441974363797,-2,-3,-2,-1,-8,-4,-7,-3
1558441974363797,-2,-1,1,1,2,4,-1,0
1558441974376859,1,1,0,1,9,2,4,4
1558441974376859,0,-2,-3,-1,3,-3,1,0
1558441974385738,-1,-3,-7,-4,-7,1,-5,-3
1558441974385738,-3,-3,6,3,-3,1,0,-2
1558441974391719,-3,-1,-2,-8,-5,-3,-3,-3
1558441974391719,-1,-1,-1,-2,-3,-4,1,-2
1558441974408674,1,2,-3,4,8,8,6,2
1558441974408674,-2,-3,2,4,-1,-19,-4,-3
1558441974414702,-1,-3,2,1,2,-5,-3,-2
1558441974414702,1,1,-4,-12,-9,-10,2,1
1558441974423633,-3,-3,-3,1,0,5,0,-2
1558441974423633,0,1,-3,0,2,16,2,0
1558441974436601,-6,-3,4,8,-8,-3,-6,-3
1558441974436601,2,0,0,1,9,9,2,3
1558441974445575,1,0,-3,-3,-6,-3,-5,-1
1558441974445575,-1,0,2,2,-3,2,-1,0
1558441974459537,0,-3,-9,-8,-2,-7,1,-4
1558441974459537,-2,0,3,4,6,5,-1,0
1558441974468513,-2,0,4,3,3,4,1,0
1558441974468513,0,0,-3,1,-1,-6,-3,-2
1558441974474497,0,-1,-5,-8,-8,0,-2,0
1558441974474497,-1,-2,-3,-1,-4,-13,-1,-1
1558441974483472,2,-1,1,-2,2,-16,-7,-2
1558441974483472,2,1,-2,-4,-2,4,5,1
1558441974497435,2,0,-1,6,1,1,-2,0
1558441974497435,-3,-3,-2,-4,-3,13,0,-5
1558441974505413,-5,-1,3,1,-4,0,-10,-6
1558441974505413,1,-1,2,3,-2,3,1,0
1558441974519375,1,-1,-10,-3,7,5,10,3
1558441974519375,-1,-3,2,-1,-2,-4,-4,-2
1558441974528353,0,-1,-2,1,-4,-3,-7,-4
1558441974528353,-2,0,-1,1,0,8,1,2
1558441974534336,3,4,11,8,10,-2,4,1
1558441974534336,-1,-2,-3,-7,-4,-9,-3,-2
1558441974543312,-2,-1,-1,-1,5,-4,3,0
1558441974543312,0,2,-3,2,5,3,3,1
1558441974557275,-2,0,-4,-9,-14,-7,-6,-4
1558441974557275,-1,0,-1,4,-4,-17,-1,-1
1558441974566252,-1,-1,5,3,5,2,0,-1
1558441974566252,0,-1,-1,1,-6,0,-4,-3
1558441974579216,-3,-7,-12,-15,-5,1,-5,-2
1558441974579216,1,1,-1,-2,-3,0,2,-1
1558441974588192,-2,-1,-7,-4,-7,-1,4,-1
1558441974588192,0,0,1,4,2,-5,0,0
1558441974594176,0,-1,2,4,1,3,-3,-4
1558441974594176,-2,2,2,-4,-4,-7,-3,-1
1558441974603152,-2,-2,-3,6,7,14,1,-1
1558441974603152,-1,-2,-2,-6,0,14,2,0
1558441974617114,1,1,2,3,1,-5,2,2
1558441974617114,2,0,3,4,5,-8,3,1
1558441974626090,1,0,4,2,0,11,3,0
1558441974626090,-3,-2,-3,-5,-5,-13,-8,-4
1558441974639056,-3,-1,-3,-4,-1,5,-1,-3
1558441974639056,-1,-1,-1,6,-6,-2,-1,-3
1558441974648031,-2,-2,1,-2,0,3,3,1
1558441974648031,-1,-3,-2,-3,0,-7,-8,-2
1558441974654018,0,2,1,5,0,3,2,2
1558441974654018,1,-1,0,-3,2,6,-2,1
1558441974662992,-4,-4,-6,-10,-9,-8,-7,-2
1558441974662992,-1,-1,1,3,-2,-9,0,0
1558441974676955,-3,-2,-3,-10,-1,-4,-11,-5
1558441974676955,0,-2,-1,4,1,-3,2,2
1558441974685930,1,1,4,-1,2,-7,7,1
1558441974685930,-1,1,-3,-6,-3,3,0,-2
1558441974699893,-2,-3,1,-1,-2,-6,-3,-2
1558441974699893,-2,-2,0,10,5,24,1,-2
1558441974707871,-1,-2,-7,-12,-1,-6,0,3
1558441974707871,-2,-1,-3,-1,3,2,5,0
1558441974714855,-1,0,0,4,4,10,6,1
1558441974714855,-5,-3,1,-3,-3,-1,-5,-3
1558441974723829,0,1,0,4,2,-10,-4,-1
1558441974723829,-1,-3,-4,-7,-5,-1,-2,-2
1558441974736795,2,0,-2,1,-5,-12,-6,0
1558441974736795,0,2,-3,-8,2,9,4,0
1558441974745770,-3,-1,-3,-1,-8,-4,-1,-4
1558441974745770,0,0,4,2,0,-6,-1,-1
1558441974759732,-1,-3,-3,1,6,1,-2,-1
1558441974759732,-3,-4,-1,-1,0,3,-1,-2
1558441974768710,-2,-1,-5,-2,-2,5,-1,-1
1558441974768710,-3,0,-2,-1,-4,-3,-6,-3
1558441974774693,-2,-1,6,7,-1,3,1,1
1558441974774693,2,1,1,2,8,2,5,1
1558441974789653,0,5,1,-7,-6,-1,2,2
1558441974789653,-1,-2,-2,4,4,3,1,-2
1558441974796634,-3,-1,-5,-3,-4,-2,-8,-3
1558441974796634,0,-1,1,4,-6,-22,-3,0
1558441974805609,1,-2,-2,-13,-4,-8,-4,-2
1558441974805609,0,1,8,3,2,3,2,0
1558441974819575,-2,-1,-6,0,0,5,2,-1
1558441974819575,1,0,-2,-2,4,9,4,2
1558441974828549,-2,-4,-3,1,-1,1,-2,-3
1558441974828549,-2,-3,1,5,-4,-12,-6,-3
1558441974836772,-1,-4,-8,-9,-9,2,1,-3
1558441974836772,-3,0,-1,-3,2,1,0,0
1558441974849494,-1,-1,-3,4,5,3,-2,-3
1558441974849494,-1,-1,1,1,-7,-5,-7,-2
1558441974856474,2,-1,4,-2,1,-3,4,0
1558441974856474,0,-3,-4,-5,-4,-8,-4,0
1558441974865451,-4,-4,4,-1,-8,0,-6,-4
1558441974865451,1,1,-10,-5,3,2,1,0
1558441974879414,-1,-1,4,4,-5,-7,-4,-2
1558441974879414,-3,-2,-6,-6,4,6,1,3
1558441974888389,0,2,-1,0,6,19,9,5
1558441974888389,-1,0,3,4,3,-4,4,1
1558441974902352,-1,1,1,2,5,-2,1,1
1558441974902352,-2,-4,-1,-1,-9,-2,-5,-6
1558441974909335,1,0,-4,0,-5,-11,-6,-2
1558441974909335,-2,-3,-6,-7,-7,6,-3,-1
1558441974917311,3,2,7,6,3,-4,6,3
1558441974917311,0,0,-6,-3,4,-6,1,-1
1558441974926288,-1,-2,0,0,-4,-1,-7,-4
1558441974926288,-1,2,-2,2,3,8,4,1
1558441974939254,-1,-2,-4,-5,-6,-10,-7,-2
1558441974939254,-1,0,0,-4,-7,-5,-4,-2
1558441974948229,3,1,7,7,13,3,5,3
1558441974948229,-1,0,-9,-11,-1,9,0,-1
1558441974954224,0,2,0,10,4,12,7,3
1558441974954224,0,-1,0,1,-3,-7,-5,-2
1558441974969174,-2,3,4,6,1,6,1,0
1558441974969174,-1,-4,3,-5,-7,-10,-2,0
1558441974977151,1,1,1,1,3,-5,-2,-2
1558441974977151,-6,-6,-11,-24,-21,-4,-11,-9
1558441974986128,2,2,1,5,13,0,13,6
1558441974986128,-1,1,-3,1,4,-2,2,0
1558441974999093,-3,-3,2,-2,-5,4,-11,-6
1558441974999093,-1,0,-1,4,-6,-4,-4,-2
1558441975008070,4,-1,0,-8,9,0,0,1
1558441975008070,-2,0,-3,4,2,1,-3,-1
1558441975014053,-3,-5,-2,-3,-6,-4,-1,-1
1558441975014053,-2,-2,2,1,-10,-10,-8,-2
1558441975029012,-1,1,-1,0,4,-1,4,3
1558441975029012,-5,-4,-4,0,-8,-18,-6,-1
1558441975036992,-2,0,2,-8,9,13,8,1
1558441975036992,1,1,-2,-6,-2,-9,3,0
1558441975045967,-4,-2,1,4,-11,2,-8,-8
1558441975045967,-1,-1,1,-7,-3,0,-5,-5
1558441975059930,0,0,-2,-6,-5,-3,-8,0
1558441975059930,-1,1,2,2,8,8,6,3
1558441975068907,0,-3,-6,-4,-5,-11,-5,1
1558441975068907,3,-3,-2,-2,-3,2,3,0
1558441975074889,-4,-5,-3,-3,-9,-16,-8,-2
1558441975074889,1,-1,8,6,18,13,6,4
1558441975089851,-3,-5,-5,1,-15,-9,-12,-9
1558441975089851,0,-1,-6,-4,-4,2,-2,-2
1558441975096833,4,2,0,1,7,-9,8,5
1558441975096833,0,1,1,6,3,8,2,1
1558441975105808,-3,-1,-4,-9,-7,-1,2,-2
1558441975105808,1,3,3,7,11,10,6,4
1558441975119774,-2,-2,-3,-7,-12,1,-4,-4
1558441975119774,-2,-2,-8,-9,-3,2,-1,-3
1558441975128748,-1,1,8,17,13,0,1,0
1558441975128748,-2,-6,-5,-12,-5,0,1,-2
1558441975142712,-5,-2,3,3,-5,-4,-7,-4
1558441975142712,0,0,-4,1,-3,-8,-4,-4
1558441975149695,-2,-1,0,-4,-2,12,9,0
1558441975149695,-2,-2,-3,1,0,-7,0,-2
1558441975165652,1,-1,-3,-3,1,-4,1,-1
1558441975165652,0,-2,2,0,-4,0,0,-3
1558441975167645,0,1,-5,-5,3,3,-4,1
1558441975167645,-2,-1,-1,-4,-8,-1,-4,-1
1558441975179613,-2,-4,0,-1,-1,6,2,-1
1558441975179613,-1,1,2,7,5,11,2,0
1558441975188588,4,2,-7,-8,1,-13,7,4
1558441975188588,-2,-1,6,8,2,1,-4,0
1558441975202549,-2,0,0,2,1,2,5,-1
1558441975202549,-1,-2,-2,-8,-3,-9,-9,-1
1558441975209530,-1,-2,0,0,1,4,-2,0
1558441975209530,2,1,-3,-6,-6,-14,-3,0
1558441975225490,-1,0,3,6,-4,-6,-3,-2
1558441975225490,-1,-1,-2,-2,-1,1,-4,-3
1558441975227483,-1,-3,-4,-7,-8,0,11,4
1558441975227483,-2,-2,-5,-2,-2,-4,-6,-3
1558441975239450,0,-2,-1,0,3,11,1,-1
1558441975239450,2,3,4,6,10,-2,5,6
1558441975248427,-3,-4,-4,-7,-5,-3,-9,-4
1558441975248427,-4,1,3,-2,4,2,2,0
1558441975262389,-1,2,-1,-2,7,6,6,1
1558441975262389,-2,-1,0,1,-2,1,4,0
1558441975269374,-4,-3,-8,-2,-10,-4,-8,-6
1558441975269374,2,0,2,3,-1,1,-1,-1
1558441975286326,-2,-3,-7,-10,-8,-15,-8,-4
1558441975286326,0,-1,-1,1,-1,4,-1,-2
1558441975287323,-1,-5,-7,-3,-5,-7,-9,-3
1558441975287323,-1,-3,-2,-4,-3,-1,-4,-3
1558441975299354,-1,-1,-5,3,-2,1,-2,2
1558441975299354,-2,-1,-1,-5,-3,8,0,-1
1558441975308271,-1,-1,5,2,13,6,4,1
1558441975308271,0,2,-1,-4,-2,-8,0,0
1558441975322233,0,-2,-2,-2,0,-5,1,0
1558441975322233,1,-1,4,5,4,-1,4,0
1558441975329214,-1,-1,2,1,-5,1,-7,-5
1558441975329214,-2,-2,-5,-7,-4,-2,-4,-3
1558441975346170,-2,-4,-2,0,2,4,2,-1
1558441975346170,1,0,-7,-13,-1,-6,3,3
1558441975347165,1,1,2,6,-3,-9,-8,-4
1558441975347165,-3,-3,-2,-4,0,4,4,2
1558441975359130,1,4,3,3,2,-2,-2,2
1558441975359130,-4,-5,-3,1,-11,-4,-9,-7
1558441975368108,-1,-3,-5,-11,-10,-5,-5,-3
1558441975368108,3,1,4,10,12,4,7,4
1558441975383284,-1,-4,-1,-11,-10,-11,-7,-2
1558441975383284,-2,0,-1,-1,7,4,3,2
1558441975389078,0,2,2,2,3,3,3,2
1558441975389078,-3,-4,-5,0,-5,-3,-3,-4
1558441975406005,-3,-4,-4,-6,-5,13,-3,-4
1558441975406005,-2,-1,-1,-2,-7,0,-3,-6
1558441975407002,0,0,-1,-1,0,-10,1,3
1558441975407002,2,-1,-2,3,3,0,3,-1
1558441975419967,2,6,10,9,6,5,1,1
1558441975419967,-4,-5,-7,-4,-14,-13,-14,-8
1558441975428945,0,1,8,11,7,8,-3,0
1558441975428945,-2,-3,-12,-20,-9,-6,-8,-3
1558441975442906,1,1,0,9,7,-6,7,4
1558441975442906,5,3,9,9,16,3,8,6
1558441975449886,-1,-3,-8,-1,-6,6,-3,-3
1558441975449886,-2,-1,2,-1,-6,-1,-4,-3
1558441975465871,0,1,-4,-4,-7,-7,-5,-5
1558441975465871,-3,-1,5,1,4,4,0,1
1558441975466842,0,0,-4,-1,2,-2,4,-1
1558441975466842,1,-1,7,8,2,-2,-5,0
1558441975479807,-4,-3,-10,-4,-6,-2,-5,-3
1558441975479807,0,-4,-9,-13,-1,11,4,1
1558441975488783,-4,-3,2,2,-5,2,0,-5
1558441975488783,1,4,5,0,7,-10,3,3
1558441975502806,1,1,-1,2,3,-1,-1,-2
1558441975502806,-1,1,-1,7,-8,-8,-3,-7
1558441975509787,0,-2,1,-9,0,6,0,0
1558441975509787,0,-1,-6,-4,2,5,-1,-1
1558441975525751,0,-2,2,-1,7,5,9,3
1558441975525751,-2,0,0,-2,-4,-8,-8,-2
1558441975527679,-3,-2,-1,1,-7,-5,-1,0
1558441975527679,1,0,-3,3,-1,0,-1,-1
1558441975539648,0,-4,-10,-16,-4,-7,-2,2
1558441975539648,1,1,5,6,4,-2,-3,-1
1558441975548624,-2,-1,-3,-7,-5,-1,-1,-2
1558441975548624,-4,-4,-3,-1,-1,10,2,-1
1558441975562688,-2,-3,0,-2,-4,6,-4,-2
1558441975562688,-1,-1,-3,-5,-2,-2,-2,-2
1558441975569672,0,-3,1,0,1,-9,-3,2
1558441975569672,-1,1,6,7,-3,-8,1,1
1558441975586522,-4,-1,-3,4,4,7,-4,-2
1558441975586522,2,0,-7,-9,-6,-10,0,0
1558441975587526,-2,-1,3,3,-2,3,-1,-2
1558441975587526,0,-1,-2,0,6,23,4,0
1558441975599532,0,1,8,7,1,-10,5,2
1558441975599532,-4,-4,2,2,-4,-12,-5,-2
1558441975608464,-2,-1,-6,-6,-2,6,-9,-4
1558441975608464,-1,-1,-2,0,-2,1,8,2
1558441975622427,-1,1,1,2,0,-11,-3,-3
1558441975622427,-2,-2,-2,-2,-2,1,-4,-1
1558441975637387,-2,-2,-1,2,7,5,2,-3
1558441975637387,-2,1,0,-2,-3,-1,-9,-5
1558441975645366,0,0,-5,-6,-5,1,0,-1
1558441975645366,-1,-1,-2,-3,1,5,3,1
1558441975647359,0,3,3,3,1,-13,-1,2
1558441975647359,-1,-1,-3,-9,0,7,2,0
1558441975659327,-5,-8,-10,-10,-10,-12,-2,-5
1558441975659327,1,-1,-2,2,0,-1,-1,0
1558441975668303,-1,-2,0,-1,-2,6,-1,1
1558441975668303,-3,-2,-4,-9,-11,-11,-8,-5
1558441975682294,0,-1,4,6,4,6,2,-1
1558441975682294,0,2,0,1,8,11,5,1
1558441975689247,1,0,-3,0,-2,-14,2,-1
1558441975689247,0,-1,4,5,1,0,-2,-4
1558441975705204,-3,1,-1,-4,-6,-3,-13,-3
1558441975705204,-3,-4,-8,-5,-6,-10,-1,1
1558441975712504,1,1,2,1,4,-2,7,3
1558441975712504,-2,1,-3,-2,2,1,0,0
1558441975720188,0,0,2,6,3,5,-1,0
1558441975720188,-3,-2,-3,-8,-5,8,-3,-2
1558441975728381,0,0,-6,-1,-5,-4,-5,-3
1558441975728381,-2,-5,1,-4,-9,-18,-4,0
1558441975743371,-1,-2,2,-1,-3,-1,6,-3
1558441975743371,-1,-2,-8,-2,2,-6,0,-3
1558441975749512,0,-1,-2,-1,2,2,3,0
1558441975749512,0,1,0,7,5,10,1,1
1558441975765578,0,-2,-2,1,-6,-4,-6,-3
1558441975765578,-2,-2,2,1,-2,0,-1,1
1558441975772291,0,-3,1,0,4,-5,1,0
1558441975772291,0,2,-2,-1,1,-1,3,2
1558441975779525,-3,-3,-2,-6,-3,6,-3,-1
1558441975779525,-1,-3,-4,0,-9,-3,-3,-3
1558441975788223,1,2,0,-5,2,2,-2,0
1558441975788223,-2,-4,-5,-10,-5,-6,-2,0
1558441975803371,2,5,10,11,17,12,15,7
1558441975803371,-2,1,-1,7,1,-6,-1,0
1558441975809172,-2,-3,-2,-11,-12,1,-3,-5
1558441975809172,-4,-5,-6,8,-11,-7,-7,-7
1558441975825333,0,-2,-5,-4,8,15,2,-1
1558441975825333,-1,-1,-1,-2,-3,-1,1,0
1558441975832105,1,2,11,14,8,-6,3,2
1558441975832105,-1,1,-1,-2,5,4,-1,-1
1558441975839428,2,1,-7,-3,-6,-4,-4,-4
1558441975839428,0,-1,6,-4,-3,-2,-3,-1
1558441975848304,-2,-4,-9,-6,-10,-4,-1,-3
1558441975848304,-1,0,3,-5,7,6,3,0
1558441975863066,0,-1,-5,1,1,-2,2,2
1558441975863066,0,2,2,1,4,-3,3,3
1558441975869041,-1,-1,0,-5,-6,3,-7,-3
1558441975869041,-1,-3,-1,1,1,0,3,1
1558441975884963,-3,-3,-3,-3,-12,-11,-7,-2
1558441975884963,0,-1,1,0,-3,2,-6,-6
1558441975891946,-2,-3,-3,-2,-6,-10,-4,0
1558441975891946,1,2,0,2,3,-6,3,0
1558441975907897,-3,0,0,-1,0,1,-3,-1
1558441975907897,-2,-2,0,5,2,10,3,-1
1558441975909928,-2,0,-1,-2,1,4,4,2
1558441975909928,1,-2,-1,-2,-8,-16,-5,-1
1558441975922859,0,-4,3,-2,0,-1,1,-4
1558441975922859,-2,1,1,2,-3,-7,-4,-5
1558441975937267,-2,-3,-13,-11,-10,5,-4,-7
1558441975937267,0,2,4,3,4,1,5,3
1558441975946126,4,3,2,1,-1,-13,2,7
1558441975946126,1,-2,-7,-9,10,6,3,3
1558441975952925,-4,-3,1,-5,-11,-3,-2,-4
1558441975952925,-4,-2,-1,-5,-10,-3,-8,-5
1558441975968042,-3,-1,0,2,2,8,2,0
1558441975968042,0,0,-1,-3,-1,-3,-3,0
1558441975975047,1,0,-3,4,4,-4,0,-1
1558441975975047,1,-1,1,-2,2,4,5,3
1558441975983010,-2,-2,1,0,-2,-4,-6,-3
1558441975983010,1,-2,-3,-3,-8,0,0,0
1558441975989977,0,-2,4,6,3,1,-10,-2
1558441975989977,0,-2,4,10,5,-1,2,1
1558441976005673,-1,0,-11,-19,-4,-6,3,0
1558441976005673,-2,-2,-1,-2,-4,-2,0,-2
1558441976012710,0,-1,-2,-1,0,-2,-2,0
1558441976012710,-2,1,-1,2,3,9,1,-2
1558441976028750,-2,-1,2,4,0,-1,-1,-5
1558441976028750,0,0,-4,-6,-10,-14,-5,-4
1558441976029576,1,-3,1,-4,4,10,7,4
1558441976029576,0,2,3,5,10,7,2,4
1558441976051556,0,-4,-7,-12,-8,-7,-9,-2
1558441976051556,-3,-2,4,3,-4,2,1,-3
1558441976052517,-2,1,-1,6,4,1,1,0
1558441976052517,0,-3,-13,-22,-12,-7,-4,-1
1558441976065481,-1,-1,6,5,2,-1,-3,-1
1558441976065481,-2,-3,0,0,1,6,-1,-1
1558441976071467,3,2,3,5,10,3,2,3
1558441976071467,-2,-4,-7,-7,-10,-14,-7,-4
1558441976088415,1,-1,0,0,1,1,1,0
1558441976088415,-1,0,-1,6,3,7,2,2
1558441976089413,-2,-2,-3,-7,-1,8,2,-3
1558441976089413,1,3,-2,0,-5,3,-5,-2
1558441976101381,-2,-1,0,-7,-1,-11,-1,-1
1558441976101381,-1,-3,-3,-12,-5,-14,-3,0
1558441976110358,-6,-4,-7,-6,-8,0,-2,-5
1558441976110358,0,-2,3,6,2,0,0,1
1558441976125316,0,0,0,3,0,1,-4,-2
1558441976125316,-1,-1,0,5,3,4,1,-1
1558441976132297,-2,0,-5,-9,-6,-10,-1,-1
1558441976132297,-3,-3,-1,-2,-6,5,-9,-6
1558441976148608,-2,-4,-4,-2,-10,-9,-3,-4
1558441976148608,3,-1,1,1,6,-9,5,4
1558441976163446,4,2,5,5,8,1,3,5
1558441976163446,-3,-2,3,4,-1,-4,-3,-2
1558441976163446,0,1,-5,-9,-1,3,-3,-2
1558441976163446,-4,-2,-1,-5,-4,5,-5,-3
1558441976171195,-1,1,-1,2,-1,-12,2,2
1558441976171195,-3,-4,-3,-4,-2,-5,-6,-4
1558441976185508,0,2,4,8,7,11,5,5
1558441976185508,0,-4,-9,-6,-4,-7,-5,-4
1558441976192481,-3,-4,0,4,0,9,-4,-5
1558441976192481,0,-3,0,-2,-2,-1,1,0
1558441976209096,-1,2,-5,-1,-2,1,-4,-2
1558441976209096,-3,-1,1,4,3,7,7,2
1558441976210090,3,3,1,-4,1,-29,-3,3
1558441976210090,-2,-1,1,1,-2,2,-2,-4
1558441976222078,0,1,2,3,4,7,0,-1
1558441976222078,-2,2,1,3,-2,3,-6,-2
1558441976231042,-2,-1,-3,0,-1,11,-1,-2
1558441976231042,-1,0,-1,-2,-3,-12,0,-1
1558441976245175,1,-2,2,-2,0,-4,2,0
1558441976245175,1,-1,1,3,3,2,2,-2
1558441976252192,-4,-4,-6,-9,-12,-4,-9,-6
1558441976252192,-1,3,4,6,6,14,3,1
1558441976276143,-4,-5,2,0,0,3,3,-1
1558441976276143,-2,-3,-9,-15,-10,-16,-7,-4
1558441976276915,-1,0,5,6,10,1,4,2
1558441976276915,2,3,2,5,11,7,6,3
1558441976282103,0,-1,-8,-3,-2,5,2,-1
1558441976282103,-1,2,11,11,3,6,1,-2
1558441976290875,-2,-4,-7,-7,-7,1,-6,-6
1558441976290875,-2,-3,-3,-6,-3,2,-3,-3
1558441976304840,-3,-2,2,8,2,-2,0,0
1558441976304840,-4,-3,-6,-6,-4,-7,-6,-1
1558441976311819,0,2,2,0,-2,-9,-1,-1
1558441976311819,2,4,-1,3,5,0,-1,3
1558441976329026,-2,-1,-6,-14,-5,-9,-1,-1
1558441976329026,-1,1,1,5,2,8,-1,-2
1558441976329771,-3,-2,0,2,-2,7,0,-2
1558441976329771,2,-1,-2,2,1,0,5,1
1558441976342112,2,1,6,5,0,-8,-1,-1
1558441976342112,-1,-3,-3,-6,-8,-13,-2,1
1558441976350909,1,0,-5,-2,-3,-1,-3,0
1558441976350909,-3,-4,-3,-3,-5,3,-6,-5
1558441976366033,2,0,5,14,11,7,3,2
1558441976366033,2,2,1,1,-2,-3,-1,3
1558441976388614,-3,-1,-1,-5,-2,6,-1,-3
1558441976388614,-2,-1,-3,-7,-10,-2,-3,-4
1558441976389610,-3,-2,0,3,-4,-12,-5,-4
1558441976389610,2,2,2,7,13,1,6,2
1558441976391604,-2,0,-2,-5,-4,2,-2,0
1558441976391604,-2,-4,-3,-5,-2,2,-4,-2
1558441976402763,-1,-2,-2,-6,-3,10,0,1
1558441976402763,0,-2,-5,-3,-4,-7,-2,-3
1558441976410890,1,1,6,-1,-3,-4,-1,2
1558441976410890,-2,-3,-3,2,-1,-6,3,-1
1558441976425830,-5,-5,-13,-14,-8,4,-4,-5
1558441976425830,-4,0,6,-3,-3,3,-6,-3
1558441976439598,2,0,1,7,14,-3,9,4
1558441976439598,-1,2,4,1,-4,-8,-6,1
1558441976448863,-3,-2,-5,-3,-4,-3,0,-2
1558441976448863,-2,0,-1,-1,-2,0,-3,-2
1558441976449568,0,-2,2,3,4,6,-3,-3
1558441976449568,1,-2,-3,2,-3,-4,-1,1
1558441976461567,0,1,2,3,7,2,-1,0
1558441976461567,0,-2,4,9,-2,-2,-2,-4
1558441976470544,-3,-3,1,-2,-3,-3,3,0
1558441976470544,0,-2,-10,-10,-1,-6,1,-1
1558441976500430,-1,-1,2,2,-3,-4,-1,-2
1558441976500430,0,-1,-5,-3,0,8,1,0
1558441976502422,0,0,5,11,5,0,-7,-1
1558441976502422,-1,1,-1,1,5,8,5,0
1558441976508743,-4,0,-3,-17,-15,-13,-5,-3
1558441976508743,1,0,-2,-2,6,-5,6,3
1558441976509679,-1,-3,-6,-5,-8,-3,-4,-5
1558441976509679,-2,-3,-6,-6,-3,8,-3,-1
1558441976522369,0,0,4,6,8,3,1,1
1558441976522369,-3,1,-1,-1,-5,-10,-9,-1
1558441976531555,-3,-4,-8,-10,-6,10,3,-2
1558441976531555,-1,3,6,4,7,-9,5,1
1558441976553596,2,1,0,1,0,3,-1,0
1558441976553596,-1,-1,-6,-5,-3,3,0,-2
1558441976554451,-1,-2,1,0,-5,-4,-5,-1
1558441976554451,-3,-3,-4,-2,-10,-10,-9,-2
1558441976568760,2,1,-6,-4,2,9,-1,0
1558441976568760,-2,-2,5,3,7,3,0,-2
1558441976569701,-2,1,0,-4,-4,-6,-2,-3
1558441976569701,-4,-3,-2,-5,-6,-1,-3,-3
1558441976582722,1,0,-1,-2,-6,-12,-2,0
1558441976582722,0,0,-4,-2,5,11,4,-1
1558441976591360,1,-1,4,6,-2,-4,0,2
1558441976591360,0,1,2,-2,5,0,-2,0
1558441976605318,-4,-3,-2,3,-2,-2,-4,-4
1558441976605318,0,-1,-5,-10,-8,0,-9,-6
1558441976612609,-1,1,0,5,2,-1,5,-1
1558441976612609,-1,-2,3,-3,1,-9,-3,-1
1558441976628536,0,-3,-1,1,-3,4,-4,-3
1558441976628536,-2,0,0,3,-3,-4,-4,1
1558441976629255,-2,-1,-14,-17,-12,-10,-7,-3
1558441976629255,-1,-1,3,7,2,-6,4,3
1558441976642538,-2,-2,1,-1,3,2,1,-1
1558441976642538,-1,-3,-2,0,-4,-1,-3,1
1558441976667186,0,-2,1,3,6,11,5,3
1558441976667186,0,-1,-3,-4,-4,-5,0,-3
1558441976668152,0,1,-2,1,-3,-11,-2,0
1558441976668152,-2,0,2,1,4,13,2,-1
1558441976672171,-1,-1,2,-1,5,-5,0,1
1558441976672171,-2,-2,-1,-4,-3,-5,-2,-1
1558441976687104,0,1,0,-4,3,5,3,1
1558441976687104,-1,-2,-2,0,-6,-12,-1,-2
1558441976694081,2,0,2,3,4,4,1,-1
1558441976694081,1,3,-3,0,1,7,-4,-3
1558441976718312,-3,-3,-1,-2,-6,-6,-2,-1
1558441976718312,-1,-2,1,5,5,4,10,2
1558441976720012,-2,2,-2,-8,-4,-8,-3,0
1558441976720012,0,3,2,1,-4,-8,-2,1
1558441976725027,0,0,-4,5,2,-5,-4,1
1558441976725027,0,-1,7,2,6,6,1,-1
1558441976732272,0,-4,-8,-8,-7,0,-9,-2
1558441976732272,-3,-2,-1,2,3,19,5,-4
1558441976747939,-3,-1,0,1,0,-1,3,-1
1558441976747939,1,-1,0,1,0,-11,-4,1
1558441976754921,0,0,-2,-4,-1,-6,-2,0
1558441976754921,0,-3,-1,0,2,5,2,1
1558441976761901,-1,0,1,5,-1,5,1,-1
1558441976761901,-3,-2,-7,-11,-12,-4,-6,-5
1558441976771873,-2,-1,1,6,-7,2,-3,-7
1558441976771873,0,-2,-7,-6,-3,-9,1,-2
1558441976785944,0,2,7,6,8,-2,1,4
1558441976785944,-2,-1,-4,-1,-4,-8,1,2
1558441976792105,-2,2,0,2,5,1,-2,-2
1558441976792105,0,-4,-6,-7,-5,3,-1,-1
1558441976808060,-1,-3,2,6,-2,-3,-7,-5
1558441976808060,-2,-1,-2,-1,-1,0,-2,-3
1558441976832028,-3,-3,-1,1,-5,-2,-5,0
1558441976832028,0,3,5,2,8,11,11,5
1558441976832028,3,0,-5,-7,1,-7,4,0
1558441976832028,-1,-2,1,0,3,7,0,-1
1558441976833720,0,-3,-1,1,-6,-8,-5,-2
1558441976833720,-2,0,1,3,-6,-6,-12,-4
1558441976845953,-3,2,-2,-14,-1,10,1,-2
1558441976845953,1,2,3,9,4,-4,6,4
1558441976852750,-2,-2,-3,-8,-1,-4,0,-1
1558441976852750,-2,-1,-1,2,-4,-6,-5,-3
1558441976867907,-4,-2,-6,5,-6,2,-6,-5
1558441976867907,-1,-2,1,-6,-5,8,-6,-2
1558441976882722,0,1,-1,-4,-2,-7,1,-3
1558441976882722,-2,-1,4,14,8,-5,0,-1
1558441976890860,-1,0,3,-13,-3,-2,1,1
1558441976890860,-1,-1,-7,-8,-6,-8,-3,-2
1558441976892555,-3,-2,-4,1,-4,6,-4,-3
1558441976892555,1,-1,-1,-4,1,6,1,1
1558441976905517,1,-1,0,1,5,-3,4,1
1558441976905517,2,1,-3,-7,2,8,2,1
1558441976911532,-7,-8,-2,0,-8,2,-3,-5
1558441976911532,1,4,5,2,5,1,0,2
1558441976952389,0,0,1,3,3,1,-4,-2
1558441976952389,2,1,2,-5,-3,-8,4,3
1558441976953387,1,-2,-1,4,-4,-4,-3,-2
1558441976953387,-3,-3,-2,-1,0,3,-1,-3
1558441976954384,-5,-4,-6,-18,-14,-5,-9,-4
1558441976954384,-5,-3,-4,-2,-7,-8,-10,-6
1558441976958373,1,4,4,7,12,8,12,6
1558441976958373,1,-2,-3,-8,-9,-22,-4,1
1558441976965356,0,-2,-4,1,2,5,0,1
1558441976965356,0,-3,-5,-1,-6,-3,-7,-4
1558441976972338,3,0,2,2,7,12,7,3
1558441976972338,-1,-2,-3,-9,-7,5,0,-4
1558441976996330,-3,-2,-1,11,4,7,4,-1
1558441976996330,0,1,0,1,13,8,10,4
1558441976997271,1,1,0,0,2,-10,-1,-1
1558441976997271,-4,-2,-2,-7,-13,-9,-9,-4
1558441977011232,-1,-3,-2,-1,-5,0,-5,-4
1558441977011232,-4,-2,5,1,2,-2,4,1
1558441977012229,0,0,-2,0,0,-3,-4,-3
1558441977012229,-3,-3,-2,5,1,-2,-5,-2
1558441977025196,-2,-3,-3,-21,-11,-1,2,-2
1558441977025196,-2,-4,-4,5,-5,-7,-8,-4
1558441977032175,0,0,-3,-10,2,-6,7,2
1558441977032175,-1,-1,-4,-2,-1,7,1,-3
1558441977056113,-2,-1,2,7,-8,-10,-6,-1
1558441977056113,2,4,0,-3,11,17,8,2
1558441977058106,-4,-5,-4,-3,-15,-16,-14,-5
1558441977058106,1,0,4,3,15,26,16,2
1558441977071072,1,1,1,5,11,0,4,2
1558441977071072,-3,-2,2,1,5,6,-1,-2
1558441977072072,-2,0,-4,-8,-9,-4,-5,-4
1558441977072072,-1,-1,3,4,-2,-10,-2,-2
1558441977085068,1,1,-2,-3,-1,1,-2,1
1558441977085068,-2,-3,7,8,-8,-13,-10,-5
1558441977107974,1,0,-5,-6,2,-1,3,3
1558441977107974,-2,-2,-2,3,-4,-4,-5,-5
1558441977108970,1,0,2,-3,2,0,5,4
1558441977108970,0,-1,0,-2,-4,-14,-10,-4
1558441977113957,-1,-3,-3,0,-6,9,-5,-4
1558441977113957,0,1,2,-2,3,-5,5,3
1558441977130913,1,-1,-4,4,3,1,-2,-1
1558441977130913,-3,-1,-2,-10,-5,-2,3,-1
1558441977131909,-3,-1,6,9,1,-4,-6,-3
1558441977131909,0,0,-3,-10,0,2,1,1
1558441977144874,1,1,-1,2,8,13,9,2
1558441977144874,-1,0,-7,-7,-10,-11,-6,-1
1558441977159835,0,-3,-5,-2,1,-8,-1,-1
1558441977159835,1,1,0,3,6,5,4,3
1558441977167815,-4,-2,6,3,-6,-8,-9,-2
1558441977167815,-1,-1,-2,0,-6,4,-3,-3
1558441977174795,-3,-3,-4,-2,1,4,0,1
1558441977174795,1,2,0,0,4,-10,0,3
1558441977190752,0,-2,3,4,-1,-5,-2,-2
1558441977190752,-2,-3,-6,-13,-5,-3,-2,-1
1558441977191752,-3,-1,0,1,-1,6,-3,-1
1558441977191752,0,-5,-6,-6,-5,-14,1,1
1558441977220672,-3,-2,3,5,2,-3,1,-1
1558441977220672,-5,-4,-6,-1,-11,-2,-5,-6
1558441977221671,2,1,0,0,2,6,1,-1
1558441977221671,-3,-2,-8,-10,-1,1,-7,-1
1558441977227656,1,0,3,-2,-1,-3,6,1
1558441977227656,1,-1,2,2,6,8,3,0
1558441977241617,-2,0,0,-1,3,5,1,2
1558441977241617,-1,-2,-1,3,-7,-12,-8,-4
1558441977250591,0,-1,-8,-11,-9,-1,-7,-2
1558441977250591,0,1,6,8,9,1,5,2
1558441977252587,0,1,2,-2,-1,0,4,0
1558441977252587,-3,-3,-3,0,-6,10,-4,-3
1558441977274527,-3,-2,-2,0,-2,-12,-8,-1
1558441977274527,3,2,1,6,13,15,12,7
1558441977275524,2,2,5,4,6,3,6,2
1558441977275524,-3,-4,-2,-6,-6,3,-2,-4
1558441977287496,-2,-2,-4,0,-3,3,-2,-3
1558441977287496,-3,1,-4,-14,-5,-10,-8,-1
1558441977294474,-3,-3,-5,-3,0,-8,-3,-1
1558441977294474,-1,1,-1,0,-3,1,-4,-2
1558441977310431,1,1,-2,-5,2,-1,-1,3
1558441977310431,-1,-2,-1,7,1,0,4,0
1558441977312425,-2,1,2,-12,-9,1,-1,-2
1558441977312425,-2,-2,-8,-2,-6,-4,-5,-2
1558441977333397,-2,2,3,4,3,1,-4,-3
1558441977333397,-2,-4,1,5,0,-4,-1,-3
1558441977335391,-2,-4,-4,-4,2,-1,3,1
1558441977335391,1,2,6,4,1,3,3,0
1558441977347335,-2,-2,-8,-13,-4,-1,-3,-2
1558441977347335,-1,-3,-2,1,-2,-2,-8,-4
1558441977354315,-1,1,4,3,0,-4,-1,-1
1558441977354315,-1,0,1,-2,4,0,5,1
1558441977370271,-3,-5,-2,5,1,4,1,0
1558441977370271,1,0,-3,-5,-8,-11,-7,-3
1558441977386228,0,-4,-2,-4,-3,-3,-2,-1
1558441977386228,-3,-2,3,4,-1,0,-6,-5
1558441977387226,-4,0,-1,4,2,3,6,2
1558441977387226,-4,-3,-12,-13,-10,-9,-7,-1
1558441977394207,-3,-1,-3,0,-2,0,-4,-2
1558441977394207,-1,0,5,2,2,0,3,0
1558441977407172,-2,0,-3,-8,-4,1,-1,-1
1558441977407172,-2,-2,-1,-5,0,-3,3,1
1558441977414154,-1,-5,-6,-2,-6,-8,-6,0
1558441977414154,0,0,1,3,3,2,-5,0
1558441977438099,2,1,-2,0,-3,0,-5,-2
1558441977438099,0,0,0,-5,-2,-2,2,2
1558441977440084,1,0,4,7,7,-7,2,1
1558441977440084,0,-2,-2,-7,-3,3,0,-2
1558441977444073,0,-1,1,10,7,2,0,-2
1558441977444073,-2,2,1,-6,2,13,5,-3
1558441977453049,-3,-2,-4,3,-5,-9,-2,-4
1558441977453049,0,3,3,-2,1,-7,-3,0
1558441977468010,-1,-3,-1,-10,-6,-4,-3,-2
1558441977468010,3,1,-3,4,4,2,6,3
1558441977473993,-1,0,5,0,6,10,3,1
1558441977473993,-2,-1,-5,-1,-5,-6,-1,-2
1558441977497929,-3,-1,-3,0,-6,-9,-8,-5
1558441977497929,-2,-1,3,-2,-6,3,-5,-2
1558441977499924,2,1,-3,-1,4,0,4,3
1558441977499924,-3,-4,-4,-2,-1,-8,-1,1
1558441977503914,1,0,6,8,6,3,5,4
1558441977503914,-2,-2,-5,-8,-5,-3,-6,-4
1558441977520869,-1,1,-2,-3,-1,8,2,1
1558441977520869,-1,-2,-2,-9,-6,-1,-3,-1
1558441977527908,-2,-1,-2,-2,-3,-4,-1,-3
1558441977527908,-1,-1,-4,7,9,4,3,-1
1558441977551785,-2,-3,0,-8,-8,-5,-6,-4
1558441977551785,1,1,1,1,2,-7,5,6
1558441977551785,-2,-2,-2,-5,2,0,-4,1
1558441977551785,-2,-2,2,5,-2,4,-2,-1
1558441977553781,-3,-3,-5,-5,-8,-4,-2,-3
1558441977553781,0,0,-3,1,3,5,-4,-1
1558441977564751,0,-1,0,-4,-5,-10,2,-1
1558441977564751,0,-2,1,3,1,-3,-5,-2
1558441977573726,0,1,0,2,3,2,3,0
1558441977573726,-2,-2,-1,-1,-5,-3,-5,-3
1558441977587690,-1,-4,-2,-12,-4,0,-1,-3
1558441977587690,0,0,1,0,-3,-4,-3,-1
1558441977610666,0,-4,-3,-6,-1,-5,1,1
1558441977610666,0,-3,0,0,-4,-2,-3,-3
1558441977611626,-1,-1,-6,-5,-4,5,-3,-3
1558441977611626,-4,-3,1,-1,-4,-1,0,-2
1558441977616650,1,0,-6,-5,6,-2,0,1
1558441977616650,0,4,11,15,12,4,13,7
1558441977624629,-2,2,-3,3,-2,-10,0,3
1558441977624629,-2,-3,-1,-4,0,-5,-4,-4
1558441977633568,-4,-1,-4,1,-4,4,-7,-5
1558441977633568,-1,-5,-7,-9,-3,9,-1,-2
1558441977663488,2,-1,4,3,-3,-7,-5,-2
1558441977663488,4,3,5,2,10,0,4,3
1558441977664485,-2,0,-3,6,-5,-8,-6,-3
1558441977664485,-4,-2,-5,-16,-7,2,-4,-2
1558441977670470,-3,-1,-1,0,-7,1,1,-2
1558441977670470,-2,-3,-6,-10,-3,0,-1,-2
1558441977676489,-1,-2,0,0,3,1,0,-2
1558441977676489,-2,-1,2,-2,-2,-6,-2,-3
1558441977684470,0,-2,-2,3,5,4,0,0
1558441977684470,-2,-1,-1,0,-3,-5,-5,-4
1558441977693407,3,1,6,2,1,-11,2,1
1558441977693407,0,-1,-3,0,0,3,1,1
1558441977715387,2,-1,-1,-3,7,-1,1,1
1558441977715387,-3,2,9,12,4,7,2,0
1558441977717387,-1,-5,-11,-16,-17,-10,-5,-3
1558441977717387,-2,-1,0,2,1,-1,0,1
1558441977730309,-3,-1,-3,-1,-3,-5,-1,-1
1558441977730309,2,0,-3,-4,-4,-5,0,1
1558441977737290,1,4,8,10,12,18,3,3
1558441977737290,0,-4,-8,-8,-5,-6,-4,-3
1558441977744309,-2,-3,3,1,0,0,-3,-4
1558441977744309,-4,-4,-4,-3,-14,-16,-10,-3
1558441977753249,4,3,4,6,14,19,15,8
1558441977753249,-2,0,0,-2,-4,-4,-9,-2
1558441977776248,2,-1,2,8,8,9,8,2
1558441977776248,-4,-4,-4,-9,-7,-5,-5,-3
1558441977778183,-3,-2,-6,-8,-12,-9,-5,-7
1558441977778183,-1,-2,2,-1,-1,-5,-4,-2
1558441977790523,-4,-6,-2,1,-1,5,-9,-5
1558441977790523,2,2,1,-1,4,3,10,5
1558441977797481,-1,1,5,4,3,-6,-1,-3
1558441977797481,-2,-3,-6,-1,-9,-2,1,-5
1558441977830478,-1,2,4,-1,1,4,-1,-1
1558441977830478,-1,-1,-4,2,6,6,-1,1
1558441977832067,0,-1,-2,-2,2,1,-2,0
1558441977832067,0,-1,-4,-3,-8,-12,-4,-2
1558441977832067,0,-3,-6,-7,-11,-12,-6,-6
1558441977832067,0,0,-2,0,2,-3,2,3
1558441977836002,1,0,4,6,4,4,0,2
1558441977836002,-3,-1,0,-2,3,13,1,-3
1558441977851035,-3,-2,-6,-6,-8,-10,-6,-2
1558441977851035,1,0,6,-1,0,4,4,1
1558441977857651,-2,-4,-6,-3,-3,-4,-5,-4
1558441977857651,1,-4,2,4,4,7,0,0
1558441977889421,-1,-3,-2,-12,-6,-3,9,5
1558441977889421,1,-2,0,2,5,-4,2,1
1558441977891415,-1,0,5,4,-2,5,0,-1
1558441977891415,-2,-3,-5,-2,-1,1,4,2
1558441977891415,0,2,-1,3,0,-6,-4,-2
1558441977891415,-4,-2,0,1,-4,7,-5,-6
1558441977895406,0,3,1,-1,2,2,0,0
1558441977895406,-2,-2,-2,2,-1,-7,-2,-4
1558441977910391,2,2,1,-4,3,-7,3,2
1558441977910391,-3,-4,-2,1,-4,-2,-8,-1
1558441977917346,0,-1,-3,0,4,11,2,0
1558441977917346,0,-1,4,-1,-4,-12,1,0
1558441977940285,-4,-5,-10,-13,-3,5,-2,-4
1558441977940285,1,3,7,1,0,-4,-6,-3
1558441977942280,-5,-6,-8,-8,-11,-13,-7,-4
1558441977942280,-1,0,-2,0,4,9,7,3
1558441977947267,0,-1,-3,1,-1,-4,2,0
1558441977947267,2,2,0,3,6,12,5,-2
1558441977954248,-3,-1,1,-2,-2,2,-2,-2
1558441977954248,0,1,3,1,3,-3,-5,-1
1558441977970204,2,-1,4,11,3,-2,4,6
1558441977970204,-5,-5,-11,-11,-12,-4,1,-2
1558441977977185,-2,2,0,0,-3,-3,2,1
1558441977977185,-2,-1,1,1,-2,-6,-7,-4
1558441977994142,0,0,1,-3,0,7,-3,-1
1558441977994142,0,-1,-3,0,6,7,6,2
1558441977995138,1,-2,5,2,-1,-7,-3,0
1558441977995138,-3,-3,-12,-12,-7,-10,-8,-3
1558441978007105,-1,-1,-4,-4,0,3,1,-1
1558441978007105,-1,-3,2,3,2,-4,2,-1
1558441978014088,-2,-3,1,-1,0,2,-2,-3
1558441978014088,0,0,2,6,3,10,5,2
1558441978030046,1,0,-2,-4,1,-1,-7,-1
1558441978030046,-2,-1,-4,-4,-8,-1,-7,-4
1558441978053982,-2,-1,1,6,-3,-11,-12,-2
1558441978053982,1,2,1,-7,1,-10,0,2
1558441978055010,0,0,-2,1,2,3,5,0
1558441978055010,-2,-2,4,3,3,-3,0,0
1558441978055975,-4,-2,-1,-1,-6,3,-6,-4
1558441978055975,-2,-3,-5,-7,-3,3,-1,-3
1558441978067944,-3,-2,3,3,-4,-16,-10,-3
1558441978067944,1,0,-5,-12,-2,-10,-2,1
1558441978073926,-2,-2,1,2,-7,-2,1,-3
1558441978073926,-3,-3,-5,1,-1,8,0,-3
1558441978105841,-1,0,3,3,12,7,10,3
1558441978105841,-2,1,2,6,-3,-6,-10,-3
1558441978106841,1,0,-2,-15,-6,-8,-1,-2
1558441978106841,-4,-1,1,0,-3,-3,-1,-1
1558441978112859,0,-3,1,3,2,0,1,-1
1558441978112859,0,-1,-5,2,3,-3,3,0
1558441978114818,0,0,-5,-5,0,3,-2,1
1558441978114818,-3,0,3,2,-5,2,-5,-3
1558441978127842,1,3,-2,2,2,9,1,2
1558441978127842,-3,-5,6,3,-5,-10,-8,-3
1558441978134766,3,0,1,-4,7,5,5,2
1558441978134766,-1,-3,-4,4,2,-1,2,1
1558441978149725,-2,-2,-3,-8,-9,-1,-4,-3
1558441978149725,0,0,-4,-5,-5,-5,1,1
1558441978164719,-2,-1,-1,0,3,3,2,-1
1558441978164719,0,1,1,3,4,9,0,-1
1558441978173659,0,0,8,7,6,9,-3,-2
1558441978173659,1,0,3,3,3,-5,5,2
1558441978174657,0,1,-3,2,0,-6,-5,1
1558441978174657,1,-2,-5,0,-2,-3,-4,0
1558441978187625,-3,0,-6,-10,-3,3,4,1
1558441978187625,-1,2,-1,-2,-2,-4,1,-2
1558441978194605,-1,0,-1,-6,2,7,1,-2
1558441978194605,-4,-4,-7,-1,-6,-4,-7,-6
1558441978218542,-1,0,3,1,1,-5,-3,2
1558441978218542,0,0,5,5,3,-14,0,2
1558441978219539,-1,-2,-2,-3,-5,-3,6,1
1558441978219539,-1,-2,-1,1,1,1,-3,-2
1558441978233529,0,-3,-3,-5,-7,2,-1,-4
1558441978233529,0,1,-2,2,8,16,2,3
1558441978234500,-1,-2,3,3,-1,-9,-2,-3
1558441978234500,1,-1,2,6,5,6,1,-1
1558441978246467,-1,-1,-5,-8,2,-1,0,3
1558441978246467,-2,-4,-8,-7,-8,-3,-4,-2
1558441978270402,0,-2,-5,0,-4,5,-4,-3
1558441978270402,2,3,7,2,-1,-8,0,4
1558441978271401,-1,-1,-2,1,-4,-7,-4,-5
1558441978271401,-3,-1,-9,-11,-8,7,-5,-3
1558441978276385,1,-4,-4,-4,3,7,2,2
1558441978276385,1,2,3,-1,4,1,7,2
1558441978293845,0,1,7,2,-6,-22,-8,0
1558441978293845,0,0,-2,-1,-3,3,-1,-2
1558441978294338,-2,-2,-2,2,-2,7,-7,-4
1558441978294338,-3,-3,-4,-7,-8,4,0,-3
1558441978307797,0,0,3,5,6,-4,4,3
1558441978307797,-2,-4,1,-1,-2,-4,-1,0
1558441978332239,2,1,0,3,-1,-5,-1,1
1558441978332239,0,0,2,-5,7,10,2,0
1558441978333234,-1,-1,-5,0,-7,-4,-3,-3
1558441978333234,0,-1,3,-1,-2,-3,-2,-3
1558441978337225,-1,2,7,9,7,2,1,2
1558441978337225,-3,-8,-11,-12,-10,-10,-4,-3
1558441978353219,-2,-3,-6,-2,-5,6,-4,-5
1558441978353219,-2,-2,-1,-2,-1,-2,-1,-1
1558441978354181,-1,-1,3,-1,3,-10,2,1
1558441978354181,0,2,3,5,4,-3,2,1
1558441978375123,-1,-2,1,-7,-7,0,-1,-2
1558441978375123,-2,-2,-9,-4,-5,3,-1,-2
1558441978383436,-3,0,-2,-4,-4,-7,-3,-3
1558441978383436,-1,0,3,-4,-4,-4,-1,-1
1558441978390334,-2,0,-3,-1,6,4,0,1
1558441978390334,-3,-3,3,7,-2,1,-3,-2
1558441978397352,-3,0,-5,-2,-2,-1,1,-1
1558441978397352,1,1,-3,0,0,-3,-1,0
1558441978413322,-2,-2,0,1,-1,0,-1,-1
1558441978413322,1,-1,-1,-7,0,2,1,-1
1558441978415016,0,0,0,4,1,1,2,0
1558441978415016,-1,-1,-2,-1,2,4,-4,-4
1558441978442971,-4,-5,-4,-7,-15,-8,-8,-6
1558441978442971,-1,1,7,7,6,2,5,2
1558441978444937,2,1,-1,1,10,6,8,5
1558441978444937,0,0,0,-2,-5,-12,2,1
1558441978450229,1,0,-2,0,-3,-3,-3,-2
1558441978450229,-1,1,0,5,4,6,4,-2
1558441978457202,1,-3,-9,-13,2,10,4,0
1558441978457202,-2,-2,-2,-5,-2,1,-2,1
1558441978474030,3,3,4,4,6,-5,3,4
1558441978474030,-3,-4,-3,-3,-13,-8,-4,-4
1558441978474859,-3,-1,-4,-3,-10,0,-2,-3
1558441978474859,0,1,3,4,11,5,2,2
1558441978496796,1,3,2,-2,3,-10,-3,0
1558441978496796,-7,-5,-3,-1,-3,-4,-5,-5
1558441978497794,-2,-2,-4,-2,-6,-4,-5,-2
1558441978497794,-5,-6,-9,-12,-10,5,-3,-5
1558441978509792,-2,-2,2,-3,-5,-6,-1,-1
1558441978509792,3,2,-2,-2,5,5,4,3
1558441978516785,-6,-5,1,4,-2,-14,-7,-5
1558441978516785,-1,-2,-2,5,-4,-7,-6,-2
1558441978532706,1,2,-2,2,6,14,11,1
1558441978532706,1,-1,1,1,-1,1,-2,0
1558441978547660,-1,-2,-4,-10,-8,-6,-5,-3
1558441978547660,1,1,1,2,0,-4,-2,0
1558441978548657,-2,-4,-3,0,3,7,0,-1
1558441978548657,0,0,-2,-2,2,-2,-3,-2
1558441978555640,3,1,4,2,-1,4,1,2
1558441978555640,0,-1,5,-1,-1,-4,2,0
1558441978569602,-2,-4,-7,-3,-6,4,-6,-5
1558441978569602,1,1,1,-6,0,2,1,2
1558441978576584,-1,1,0,-5,-2,-23,-1,1
1558441978576584,-3,-3,-1,0,-6,-3,-4,-5
1558441978608498,-1,1,3,7,4,3,2,2
1558441978608498,-1,-1,1,0,-1,1,-5,-1
1558441978610494,0,-1,-4,6,7,1,4,2
1558441978610494,-1,-1,-5,-14,-6,2,1,0
1558441978611511,1,0,0,0,-3,-7,-5,-1
1558441978611511,-4,-2,-3,-3,4,-3,1,1
1558441978615500,-2,-2,-6,2,-7,-8,-3,-1
1558441978615500,1,2,4,10,10,5,2,2
1558441978630468,-3,-1,-4,-12,-5,9,5,3
1558441978630468,0,-1,-7,-4,-6,-10,-3,-5
1558441978636451,-1,-2,4,2,3,9,-2,-5
1558441978636451,-1,-1,-2,3,-2,-6,0,-2
1558441978652569,-3,-3,-3,-3,-7,2,-2,-6
1558441978652569,2,1,-7,-8,-9,-10,-4,-2
1558441978660500,0,-1,4,10,11,5,3,1
1558441978660500,0,0,4,2,2,-2,2,0
1558441978667339,0,-1,1,5,9,8,0,-2
1558441978667339,-2,1,2,5,4,10,2,-2
1558441978675460,1,-2,2,-1,-12,-1,-8,-4
1558441978675460,0,-2,-12,-5,-3,-1,-6,-2
1558441978690421,-2,-5,-2,-1,-4,-8,0,3
1558441978690421,2,2,2,-3,6,-1,3,4
1558441978721198,-3,-2,-1,6,4,0,0,-2
1558441978721198,-2,-1,-4,-7,-10,-7,-6,-2
1558441978722193,-1,-1,-2,-6,-4,1,-4,-3
1558441978722193,-3,-2,-5,-3,-3,-1,1,-4
1558441978723192,-2,-1,4,-1,-1,-2,0,1
1558441978723192,-1,0,2,3,3,2,-4,-2
1558441978736157,1,-1,-3,1,-4,-7,1,-3
1558441978736157,-1,-3,-1,-6,-7,-3,-3,-3
1558441978738151,-1,0,-6,-12,-5,-6,0,1
1558441978738151,-1,0,6,5,5,5,3,-1
1558441978750152,0,2,-1,0,1,4,-1,1
1558441978750152,0,0,1,2,2,0,4,0
1558441978773118,0,-4,-6,-5,-2,1,-2,-3
1558441978773118,1,0,1,-1,3,4,0,2
1558441978774055,-1,0,-1,3,-1,-11,-1,-1
1558441978774055,-1,-2,-1,1,-1,-4,-4,-1
1558441978779042,-2,-1,0,2,-4,1,-3,-3
1558441978779042,0,0,3,4,1,-2,4,0
1558441978796122,-1,-2,-1,-13,1,0,-3,-2
1558441978796122,-4,-1,-3,0,-3,-2,-3,-1
1558441978796993,0,1,-3,-4,-1,0,-6,-1
1558441978796993,0,3,-2,-2,0,-1,2,4
1558441978810032,-2,-1,3,7,-2,1,1,-4
1558441978810032,1,-2,-1,-5,-2,6,-3,-3
1558441978823993,-1,-1,-4,2,5,6,8,-1
1558441978823993,-3,-2,-1,1,4,-8,1,-1
1558441978832974,-1,0,-5,-2,2,4,-4,-1
1558441978832974,-2,0,4,-1,-8,-2,-4,-1
1558441978838881,2,0,1,-5,2,-1,2,2
1558441978838881,-3,-6,-7,-5,-9,-2,-3,-3
1558441978855873,1,0,-3,2,0,-8,-3,-2
1558441978855873,-3,-2,-2,0,-3,6,-2,-3
1558441978856863,-2,0,4,-4,2,5,2,1
1558441978856863,0,0,3,3,-2,-1,0,-2
1558441978885756,0,0,1,1,-2,-1,-4,-1
1558441978885756,0,0,-3,0,-1,2,-2,0
1558441978886754,-4,-5,-8,-5,-11,-7,-8,-5
1558441978886754,0,1,-1,1,5,2,2,1
1558441978892738,1,-2,2,6,11,-6,6,6
1558441978892738,-2,0,-4,-4,0,0,0,-1
1558441978899720,-1,-3,-2,-2,-4,-1,1,-1
1558441978899720,-2,-1,5,6,-1,-8,-5,-3
1558441978915677,-3,-2,-6,-6,-7,-4,0,-1
1558441978915677,-1,2,10,6,3,-1,-3,-1
1558441978916674,-1,-1,-5,1,-6,-3,-7,-6
1558441978916674,-2,-2,-13,-11,-7,5,-3,-3
1558441978938616,1,3,7,5,12,6,6,3
1558441978938616,-1,-4,-12,-8,-1,-4,2,0
1558441978939612,-4,-1,7,6,-1,0,-5,-2
1558441978939612,0,0,3,0,-2,3,0,-2
1558441978952577,-3,-4,-5,-6,-5,4,-4,-4
1558441978952577,1,1,0,0,-2,-13,-1,1
1558441978959771,1,2,0,-2,4,-4,3,2
1558441978959771,0,-1,-5,1,1,1,-3,1
1558441978975525,-3,-2,-2,-13,-10,-1,1,-2
1558441978975525,-2,0,-1,-3,-3,-2,-5,-4
1558441978977544,2,0,-3,-5,1,11,1,1
1558441978977544,-1,-1,4,10,8,-2,3,0
1558441978998576,-1,0,-4,-9,-6,-5,-6,-4
1558441978998576,-1,0,3,-2,3,9,5,2
1558441978999470,-1,-2,-6,-9,-3,-10,-2,1
1558441978999470,-1,-1,-2,-1,0,3,0,1
1558441979012419,1,2,5,2,2,1,0,1
1558441979012419,-3,-4,-13,-3,-8,-5,-5,-4
1558441979019400,-2,1,11,8,0,-6,-3,1
1558441979019400,-2,-2,-6,-14,-6,3,-5,-4
1558441979052311,-3,-2,-5,6,5,-1,-3,-2
1558441979052311,1,2,4,3,4,7,9,3
1558441979053308,-2,-3,-5,-2,-2,2,-1,1
1558441979053308,-1,-3,-1,-6,-8,-10,-4,-1
1558441979054308,1,0,-1,1,0,-9,-4,-1
1558441979054308,-1,-1,2,6,9,7,0,0
1558441979059295,-1,2,-2,-3,-1,10,1,-2
1558441979059295,-1,1,4,7,0,-17,0,0
1558441979072258,-2,-2,1,-3,-6,2,-4,-1
1558441979072258,-1,-1,-3,2,2,-6,3,-1
1558441979079324,3,3,-1,2,4,-5,1,2
1558441979079324,-3,-2,1,-4,0,7,1,-3
1558441979103174,-3,-1,2,-3,-3,8,0,-2
1558441979103174,0,-2,-5,-4,-2,-3,-3,0
1558441979104174,1,-2,-2,1,1,-1,0,-3
1558441979104174,1,1,0,0,3,-5,-1,2
1558441979110155,-2,0,1,0,1,-1,0,-2
1558441979110155,-3,-5,-2,-4,-10,-3,-6,-1
1558441979117138,-5,-2,-8,-7,-10,-3,-6,-5
1558441979117138,0,-1,0,0,-4,-12,-2,0
1558441979132169,0,-4,-2,0,-5,-3,-10,-3
1558441979132169,1,1,1,6,6,12,7,1
1558441979139079,-2,1,2,-4,5,4,3,1
1558441979139079,0,1,4,4,0,-4,-3,1
1558441979163016,-1,-5,-1,-2,-3,-6,2,2
1558441979163016,0,-1,0,-1,-5,-12,-5,0
1558441979165009,-1,-4,-7,2,-1,2,-2,-2
1558441979165009,-3,-2,-9,-11,-9,4,-2,-6
1558441979170000,-1,2,-3,1,1,1,-1,1
1558441979170000,0,-1,1,0,0,1,-1,0
1558441979177015,0,1,9,7,8,11,13,2
1558441979177015,0,-1,0,-2,-1,2,0,1
1558441979192935,-1,-1,-3,-2,-3,-4,-3,-4
1558441979192935,-3,-3,-3,-5,-5,0,-7,-6
1558441979206961,0,-1,-1,-2,-1,1,-2,-1
1558441979206961,0,-3,-5,-4,9,-1,0,0
1558441979215874,-3,0,3,0,1,5,2,-2
1558441979215874,0,1,-2,-2,3,4,-1,0
1558441979216869,-6,-7,-5,-4,-19,-9,-10,-6
1558441979216869,0,-2,-2,2,-3,3,1,-2
1558441979229839,0,-2,0,1,3,-8,2,1
1558441979229839,0,0,1,-2,-3,-3,1,0
1558441979237825,-1,-3,-1,1,-4,-10,-6,-1
1558441979237825,0,0,-1,-2,5,10,5,2
1558441979252775,-2,-3,-7,-6,-6,-3,-8,-1
1558441979252775,0,0,6,7,3,-3,-1,0
1558441979276711,-2,-1,-7,-13,-12,-15,-1,-1
1558441979276711,-2,-1,2,3,-6,3,-7,-5
1558441979276711,0,-1,-5,-11,-1,2,2,1
1558441979276711,-1,-3,-2,-7,-4,-12,0,3
1558441979278709,-2,0,-2,0,6,8,-2,-2
1558441979278709,-1,-1,-5,-4,-5,1,-6,1
1558441979289677,0,1,1,5,-4,-6,-6,-3
1558441979289677,0,-2,-2,-2,1,-5,2,-1
1558441979298652,-1,-3,-2,-7,0,5,0,-3
1558441979298652,-2,-1,-5,0,-3,-6,2,-2
1558441979320597,-2,-3,6,6,4,6,1,-1
1558441979320597,1,-1,3,-2,1,7,0,-2
1558441979326579,2,3,2,1,9,-6,0,4
1558441979326579,1,0,-2,-3,4,-4,3,-1
1558441979335554,-2,-1,-2,0,0,-3,5,0
1558441979335554,-4,-5,-11,-2,-10,-1,-5,-6
1558441979337551,1,-1,1,-1,-3,-9,-6,-4
1558441979337551,-2,-1,3,1,3,8,2,-1
1558441979349516,0,0,0,1,-5,-5,-4,-1
1558441979349516,-1,-1,-9,-6,1,8,-1,-2
1558441979358492,0,1,3,7,6,2,6,1
1558441979358492,0,-1,-6,-12,-9,-6,-3,-1
1558441979380434,0,0,4,3,1,6,2,0
1558441979380434,-1,0,2,2,-2,-3,-1,-3
1558441979382428,-2,0,-12,-14,-5,6,-3,1
1558441979382428,0,-1,13,8,2,-5,-7,-2
1558441979395393,-1,-2,-4,-7,-10,-8,-2,-2
1558441979395393,-1,-1,4,4,2,-5,-7,-3
1558441979397387,1,-2,0,4,11,16,16,5
1558441979397387,2,1,-3,-4,0,-4,2,1
1558441979409355,-1,1,-1,-2,-1,-10,0,1
1558441979409355,0,1,4,6,3,-9,-6,0
1558441979418332,-1,-1,2,-1,-7,-3,-3,-2
1558441979418332,-1,-2,-7,-6,-5,3,-1,-1
1558441979440280,-1,-2,0,6,4,17,1,-3
1558441979440280,-1,-1,-7,-5,-4,-8,-1,0
1558441979442268,0,1,17,15,8,-20,-1,0
1558441979442268,-1,-1,-5,-6,-4,-3,-3,-2
1558441979455235,0,-1,-2,2,3,4,-1,2
1558441979455235,-1,0,1,-6,-1,11,1,-1
1558441979462249,-4,-4,-4,-6,-7,-3,-4,-7
1558441979462249,0,-3,1,5,0,-7,-6,3
1558441979469195,0,-1,-4,-5,1,0,-3,-3
1558441979469195,-2,-3,1,-6,-5,5,-2,-2
1558441979494145,-2,-3,-1,3,2,10,-4,-1
1558441979494145,-1,2,3,2,5,-11,14,6
1558441979495129,-1,0,-8,-5,-2,-4,-1,0
1558441979495129,0,-2,-1,0,-2,4,0,0
1558441979507096,-1,1,0,0,-5,-3,-9,-4
1558441979507096,-2,-3,-2,2,-6,-9,-6,-3
1558441979515075,-1,-2,2,-5,-3,-8,-3,1
1558441979515075,-2,1,5,9,7,-7,5,2
1558441979522059,1,-2,-6,-5,3,3,2,3
1558441979522059,-2,-1,-2,-2,-5,9,-5,-5
1558441979529035,-2,-2,-6,-13,-4,-3,2,-2
1558441979529035,-1,0,-2,-2,4,0,1,-3
1558441979554973,-2,-2,-3,-5,-7,-2,-4,-1
1558441979554973,1,-2,1,1,4,2,4,-1
1558441979554973,0,-1,2,6,7,4,-1,0
1558441979554973,0,-1,-3,-2,-2,-2,-6,1
1558441979558956,-5,-3,-2,-6,-9,-7,2,-5
1558441979558956,-1,-1,-1,2,1,-1,5,1
1558441979574914,0,-1,1,-2,0,8,2,-2
1558441979574914,-1,-2,2,0,2,1,-4,-3
1558441979581894,2,4,6,8,2,-2,2,1
1558441979581894,-4,-2,-7,-12,-5,-8,-6,-3
1558441979605842,-2,-3,-2,-2,-7,5,-1,-1
1558441979605842,-3,-4,-9,-9,-11,-5,-5,-3
1558441979606828,-1,-3,-2,0,-4,1,-3,-3
1558441979606828,2,1,3,-1,9,7,4,1
1558441979612836,0,0,1,4,6,-4,2,0
1558441979612836,-4,-2,3,5,-4,2,-4,-3
1558441979619793,1,0,-4,-10,2,0,1,2
1558441979619793,0,-3,-2,-3,-8,-8,-3,-4
1558441979634755,3,-1,0,4,1,-13,-1,0
1558441979634755,-2,-1,0,2,1,-3,-2,1
1558441979641734,-2,-4,-2,-2,-4,8,-7,-6
1558441979641734,-2,0,-4,0,-2,6,-2,0
1558441979657692,-2,-3,-3,-9,-8,-10,-6,-2
1558441979657692,0,-3,3,0,5,8,6,-1
1558441979659686,0,-1,-6,0,-1,-7,-2,2
1558441979659686,0,1,6,1,4,-3,-3,-2
1558441979672652,-2,-1,0,1,-5,1,-5,-2
1558441979672652,1,2,2,0,-3,1,1,-2
1558441979679633,-3,-4,-9,-1,-1,-5,-2,0
1558441979679633,-1,-1,-1,-6,5,6,1,1
1558441979694593,-2,0,3,2,0,-1,-3,-3
1558441979694593,-1,0,-2,-6,2,-1,2,0
1558441979718529,-1,0,0,-3,-2,2,-1,-2
1558441979718529,-1,-2,5,6,-5,-2,0,0
1558441979719526,-2,-2,-2,-2,2,-6,-3,-1
1558441979719526,0,3,2,0,-2,-3,-3,0
1558441979721524,0,-1,1,5,6,5,11,3
1558441979721524,-2,-1,-2,-1,-5,-7,-5,-2
1558441979732492,-2,0,-3,-1,-3,-1,1,-1
1558441979732492,2,-1,-2,1,0,1,1,3
1558441979739479,0,-2,2,-2,-5,-9,-9,-4
1558441979739479,-1,-3,-1,2,-3,-3,-2,-3
1558441979770391,-1,-1,3,6,6,2,2,0
1558441979770391,-1,0,-2,-5,-2,0,-1,-1
1558441979772385,-1,-4,-8,-3,-4,-3,-3,-3
1558441979772385,-5,-2,0,-2,0,9,-5,-3
1558441979778374,0,0,0,-2,-2,-6,-2,-1
1558441979778374,0,-3,-3,0,-1,-8,-1,-3
1558441979779366,2,2,2,-3,0,-4,-3,2
1558441979779366,0,0,-3,1,3,11,6,0
1558441979792331,-1,0,2,-3,2,-1,3,0
1558441979792331,-2,-1,0,2,-3,-3,1,-1
1558441979799312,1,1,-5,-7,-1,1,1,-3
1558441979799312,-6,-4,3,0,-6,-14,-8,-5
1558441979830235,-2,1,-4,-4,-3,7,-2,-1
1558441979830235,1,-2,-2,-2,-4,0,6,1
1558441979832225,1,0,-2,6,6,5,1,3
1558441979832225,-2,-3,4,2,-1,7,-1,0
1558441979838209,-1,-4,-2,-4,0,-4,-4,-1
1558441979838209,-1,-2,-2,-2,-3,-4,-6,-3
1558441979839205,-3,-1,-2,-3,-2,-12,-1,-1
1558441979839205,2,2,-4,2,-1,3,-1,-1
1558441979852171,0,1,-4,-2,1,0,1,-2
1558441979852171,-2,-1,3,-3,2,4,-2,-2
1558441979859152,0,-1,3,0,-3,1,-1,-2
1558441979859152,2,-1,-9,-3,1,0,2,0
1558441979883090,0,0,-2,1,-2,-4,-4,-2
1558441979883090,-3,-5,-6,-13,-11,-5,-5,-4
1558441979884089,-1,-3,3,-1,-3,-1,-2,3
1558441979884089,2,2,-8,-6,-4,1,-4,-2
1558441979898057,-4,-5,2,-1,1,7,0,-2
1558441979898057,-2,-2,-1,-1,3,-8,-1,1
1558441979900043,-2,-1,-1,-5,-8,-6,-6,-3
1558441979900043,-1,-3,-2,-6,-5,-3,0,0
1558441979913011,-1,0,-2,3,1,-1,1,-1
1558441979913011,-1,0,1,-3,6,5,2,2
1558441979918993,-3,0,1,8,-1,-1,-3,-4
1558441979918993,-1,-3,-2,-4,-2,-7,-3,-3
1558441979934955,0,0,-1,0,-3,6,3,0
1558441979934955,0,-1,-2,2,-3,1,1,0
1558441979941932,1,1,6,6,10,9,4,0
1558441979941932,-1,-2,-2,-10,-3,-6,-1,0
1558441979957898,-1,-2,-2,-2,-2,0,-4,0
1558441979957898,-1,1,-4,-1,-2,-6,-6,0
1558441979959885,-2,-2,-2,0,0,2,11,3
1558441979959885,-2,-2,3,6,3,-1,3,-3
1558441979972850,-1,-2,-1,-4,-1,3,-1,-2
1558441979972850,0,0,0,8,7,6,5,0
1558441979995788,-4,-3,-2,-6,-5,1,-8,-4
1558441979995788,-3,-1,1,-2,-7,6,-3,-2
1558441979996786,3,2,0,0,-1,-20,1,3
1558441979996786,0,-2,0,1,-2,-5,-5,-6
1558441980001771,-1,-1,-3,-1,-4,-5,-6,0
1558441980001771,0,-1,-5,-4,6,9,1,2
1558441980017734,-3,-1,3,1,-8,-1,-6,-2
1558441980017734,0,0,5,4,2,0,6,2
1558441980019722,-1,-1,-2,-1,3,-2,0,0
1558441980019722,-2,-3,-2,-3,-2,2,-6,-3
1558441980048646,-1,-2,-1,0,-2,2,0,1
1558441980048646,2,0,0,4,4,-3,0,-1
1558441980049644,-2,-4,-3,-12,-14,-2,0,-3
1558441980049644,-1,-1,0,4,-2,-6,2,-1
1558441980054630,-3,1,0,-2,1,0,1,-1
1558441980054630,0,-2,-1,-4,1,0,-1,2
1558441980061612,0,1,-1,5,0,3,0,0
1558441980061612,-1,1,-1,0,1,3,-1,0
1558441980078566,0,0,-1,-1,-9,-3,-1,-3
1558441980078566,-1,0,2,-3,-2,6,-2,-3
1558441980079564,-1,0,-1,5,11,2,6,2
1558441980079564,0,0,-1,1,-3,-2,-2,1
1558441980108502,-2,-2,-2,1,2,2,-1,-1
1558441980108502,-1,-2,-4,-6,-9,-13,-6,-2
1558441980109485,0,-4,-3,-5,-5,5,-4,-6
1558441980109485,-2,-3,7,6,3,4,-2,-3
1558441980115467,2,2,1,0,9,-3,0,3
1558441980115467,-3,-4,-3,1,-5,3,7,1
1558441980121461,-1,-1,-3,-8,-3,-13,-6,-2
1558441980121461,1,1,-1,0,5,11,6,4
1558441980138409,-4,-4,-3,0,-6,1,-7,-3
1558441980138409,-4,-3,-7,-11,-7,-2,-7,-5
1558441980139403,-3,-4,-4,1,-4,-5,-3,-3
1558441980139403,2,1,0,-1,9,-3,8,4
1558441980151371,0,0,4,6,4,-4,6,1
1558441980151371,-1,0,-3,4,2,8,0,-2
1558441980160348,0,0,1,-8,-6,-7,-1,0
1558441980160348,-3,-3,-4,-8,-10,-14,-11,-6
1558441980175314,1,-3,-2,3,2,15,2,0
1558441980175314,-1,-2,2,1,1,-2,-3,-3
1558441980182288,3,3,1,-3,0,-5,1,1
1558441980182288,-4,-2,0,8,3,0,6,0
1558441980198247,0,-1,-6,-12,-1,4,0,0
1558441980198247,-1,0,-4,3,-2,-6,-6,1
1558441980199245,-1,-2,-1,-6,-2,5,2,1
1558441980199245,0,-2,-3,-5,0,1,-1,-1
1558441980212208,-2,-2,-1,1,-4,-2,-5,-2
1558441980212208,-2,0,-3,-2,0,-3,4,2
1558441980221187,-2,0,2,3,4,-7,1,0
1558441980221187,1,0,0,0,-2,-10,-3,0
1558441980236147,-1,-4,-3,-5,-5,-6,-3,-1
1558441980236147,0,1,-3,-3,2,9,1,-1
1558441980242138,-6,-4,-7,-3,-10,1,-9,-9
1558441980242138,-1,1,2,-1,-7,-20,-3,-2
1558441980273047,0,3,2,-3,6,-3,6,5
1558441980273047,-1,-4,-3,-3,2,7,-2,-2
1558441980274044,0,-3,-3,4,1,7,-3,-1
1558441980274044,-1,3,-2,-3,-5,4,-1,0
1558441980280028,-1,-1,2,2,0,-7,2,1
1558441980280028,0,0,-1,-2,-3,-2,0,2
1558441980281024,0,-2,3,3,-2,5,-2,-3
1558441980281024,-2,-3,-4,0,0,0,-4,-5
1558441980295986,0,2,1,-4,2,-5,-1,-1
1558441980295986,1,0,-2,0,1,1,5,1
1558441980301978,1,-1,5,9,8,3,8,6
1558441980301978,0,-1,-5,-9,3,2,-1,0
1558441980326902,-5,-3,-6,-8,-10,-2,-8,-6
1558441980326902,0,-2,-4,-3,-2,-2,0,-2
1558441980326902,-3,0,2,9,1,-2,-4,-4
1558441980326902,0,2,3,2,8,8,-2,1
1558441980340864,-1,-3,-5,6,-2,-9,-2,-1
1558441980340864,-1,-1,2,-4,-4,-7,2,2
1558441980340864,-3,-1,-7,-8,-2,-1,-5,0
1558441980340864,-2,-4,0,-2,-8,-4,-2,-5
1558441980355824,-3,-4,-2,0,1,10,-4,-4
1558441980355824,-2,-3,3,2,-3,-7,-2,-3
1558441980361809,2,-1,-1,-3,0,0,3,1
1558441980361809,1,1,-2,2,8,-2,8,7
