timestamp,emg1,emg2,emg3,emg4,emg5,emg6,emg7,emg8
1558440298536166,1,1,0,-3,-4,-4,3,3
1558440298536166,-2,-1,-3,-4,-6,-8,-4,-1
1558440298537164,-3,2,1,4,4,5,3,-1
1558440298537164,-1,0,-2,-7,-8,-7,-3,-4
1558440298540156,0,-1,-2,-4,-2,1,-2,-4
1558440298540156,1,-2,3,4,2,1,1,-1
1558440298542151,-2,-2,-1,-6,-5,-2,-2,1
1558440298542151,-1,-2,0,1,2,1,-1,-2
1558440298554121,-2,0,-3,-4,-3,-3,-1,-3
1558440298554121,-2,-3,-2,0,5,4,1,-2
1558440298565088,1,-1,-2,-1,2,3,-1,-2
1558440298565088,-1,-1,1,0,2,4,1,1
1558440298569079,1,0,-1,3,2,2,-2,0
1558440298569079,-1,-1,-3,-2,-6,-11,-3,1
1558440298585035,2,0,1,1,4,3,1,-1
1558440298585035,0,-1,-5,1,-7,-6,-1,-3
1558440298593014,0,1,4,2,6,4,5,3
1558440298593014,0,1,0,2,8,9,6,2
1558440298599995,-1,-2,-2,2,2,4,2,1
1558440298599995,0,1,0,-1,-3,-2,-3,-1
1558440298613957,-1,-3,0,0,-8,-6,-6,-4
1558440298613957,-4,-4,-2,-9,-9,-2,-2,-3
1558440298623931,-3,-1,-3,-3,-8,-10,-6,-4
1558440298623931,-1,-1,0,4,6,-3,1,1
1558440298661829,0,0,-1,-6,-5,-5,0,1
1558440298661829,0,-1,-2,3,-1,4,-2,-1
1558440298662828,-2,-2,-2,-3,0,-4,-3,-2
1558440298662828,-1,-1,-1,-4,-8,-1,-4,-3
1558440298663825,0,1,2,5,6,5,1,1
1558440298663825,2,1,0,-1,2,-10,3,3
1558440298667814,-1,-1,-2,-3,-4,-1,-3,-4
1558440298667814,-1,-2,-2,5,3,0,-1,-1
1558440298673798,-2,-3,-5,-6,-9,-10,-2,-3
1558440298673798,-2,0,1,-2,8,10,4,0
1558440298682774,0,-2,-3,0,-1,0,-2,-1
1558440298682774,-2,0,-1,3,-1,-2,-2,0
1558440298688759,-2,-3,-3,-4,-12,-3,-7,-6
1558440298688759,-1,-2,-1,-2,-3,-5,-3,-2
1558440298705712,-1,0,3,2,3,1,7,3
1558440298705712,0,-3,-1,-2,-3,-7,-1,-1
1558440298711696,-2,1,-1,-2,6,9,4,1
1558440298711696,-1,-2,-5,-1,-3,4,-2,-1
1558440298720672,-2,-1,-1,1,-3,-2,-6,-4
1558440298720672,0,0,2,-3,2,-1,0,-1
1558440298733637,-1,0,3,5,10,-1,5,2
1558440298733637,-2,-1,-4,-3,-8,-8,-5,-2
1558440298742614,-1,1,0,-2,5,6,2,0
1558440298742614,1,0,-1,-2,-4,-2,2,-1
1558440298748598,0,-1,-2,-2,-4,-6,-4,-2
1558440298748598,0,-3,-2,-1,-5,1,-1,0
1558440298765554,0,-1,-2,0,3,0,3,2
1558440298765554,-3,-3,-1,-2,-1,1,-3,-2
1558440298771537,-2,-1,2,5,4,6,-1,-1
1558440298771537,-1,-1,-1,-9,-3,-8,1,0
1558440298780513,0,0,-3,-1,-8,-6,-2,-3
1558440298780513,0,-1,1,-2,6,9,3,-1
1558440298793478,0,-2,-3,-2,-1,-1,-3,-2
1558440298793478,1,-2,3,1,0,-4,-1,1
1558440298802453,0,1,0,-3,1,0,4,2
1558440298802453,-2,0,-2,-2,0,4,-1,0
1558440298808438,-1,-3,-3,-3,-6,-7,-8,-6
1558440298808438,-1,0,3,3,9,2,2,2
1558440298825393,2,0,5,2,6,-1,-1,1
1558440298825393,-4,-3,-4,-3,-12,-7,-3,-1
1558440298831377,-3,0,2,-3,-3,1,-3,-1
1558440298831377,1,0,-1,-1,-2,-8,-5,-2
1558440298840352,-1,-2,-1,-1,-4,2,1,-1
1558440298840352,-1,1,0,2,7,1,1,1
1558440298854315,0,-1,0,-1,-3,1,2,0
1558440298854315,-3,-3,-4,-4,-8,0,-3,-7
1558440298863292,0,-1,2,1,-3,-9,-4,-3
1558440298863292,0,-2,-2,-1,4,-2,2,1
1558440298869276,1,0,-1,0,1,3,3,2
1558440298869276,-1,1,-2,-1,0,4,-3,-1
1558440298885232,-1,-3,-2,-3,-6,1,-2,-1
1558440298885232,-1,-3,1,-2,1,-3,-4,-1
1558440298891219,-1,-2,-2,-1,2,-2,-2,-2
1558440298891219,2,1,1,0,-3,1,4,0
1558440298906178,-3,-1,0,1,-2,0,-3,-3
1558440298906178,-2,-2,-3,-4,-7,0,-3,-2
1558440298914156,-1,-3,-1,0,0,-3,-3,0
1558440298914156,-1,0,3,4,13,6,7,2
1558440298923132,-1,0,-2,-7,-9,-9,-4,-1
1558440298923132,0,0,-1,1,-1,1,-3,-2
1558440298929115,-1,-2,-2,-3,-9,-6,-5,-3
1558440298929115,-2,-3,-2,-1,-4,-1,-1,0
1558440298945072,-1,-2,-1,-1,7,3,4,1
1558440298945072,1,1,0,0,3,-8,2,1
1558440298951056,-1,0,-2,-1,-1,4,1,-1
1558440298951056,-2,-3,1,1,1,-1,-5,-3
1558440298966018,-1,-2,-3,-4,-10,-3,-3,-3
1558440298966018,-1,-1,-2,-1,-3,-8,-4,-2
1558440298973996,-1,-1,0,-1,3,5,2,1
1558440298973996,0,0,0,-2,-3,1,-1,-1
1558440298982971,-2,-2,-2,-1,-3,-1,-4,-1
1558440298982971,-1,-3,-2,-3,-6,3,-2,-3
1558440298988956,1,-1,0,0,1,-4,1,0
1558440298988956,-1,-1,-2,1,2,-2,-3,1
1558440299004914,-1,-1,-1,3,2,4,-1,-2
1558440299004914,-3,-3,-4,-9,-4,-2,-1,-1
1558440299010896,-1,-2,1,-1,-4,-2,0,-2
1558440299010896,0,-1,-3,1,-1,-2,2,0
1558440299026853,-3,-1,-3,-1,-1,-10,-4,-1
1558440299026853,2,0,0,4,5,4,6,3
1558440299033836,-3,0,0,0,0,-8,-1,0
1558440299033836,-2,0,-2,-3,-5,2,-5,-1
1558440299042811,-2,-2,-1,-2,-4,-1,-4,-1
1558440299042811,-3,-2,-4,1,1,3,-4,-2
1558440299048796,0,-1,-2,-3,1,1,-2,-1
1558440299048796,-1,0,1,1,3,4,2,-2
1558440299065769,1,-1,0,-2,-5,-14,-4,-3
1558440299065769,-2,0,1,0,1,5,1,0
1558440299071735,0,-1,-3,0,-1,1,-1,0
1558440299071735,0,-1,-2,-2,-1,-5,2,1
1558440299086693,-1,-2,0,-1,4,6,0,-3
1558440299086693,-1,-1,-1,-3,-6,-2,-5,-3
1558440299093676,-3,-3,-3,-1,2,9,3,1
1558440299093676,-2,0,0,5,4,-2,4,4
1558440299102651,-1,0,0,-3,-6,-6,-5,-2
1558440299102651,0,0,-3,1,0,-4,-3,-3
1558440299108636,-2,0,-1,1,3,8,3,0
1558440299108636,2,0,2,1,0,-4,-1,-1
1558440299125589,-2,0,-2,-1,2,7,2,1
1558440299125589,-1,-1,-2,-3,-2,2,-3,-4
1558440299131573,-2,-1,-2,-2,-3,-1,-4,0
1558440299131573,1,0,1,-3,-5,-18,-3,-2
1558440299146533,-2,0,-1,0,3,2,3,-1
1558440299146533,-1,2,1,3,10,6,4,1
1558440299153514,-1,-1,-1,-3,-3,-1,0,-1
1558440299153514,-1,-3,-1,-4,-8,2,-6,-4
1558440299162491,-1,-2,-1,-1,0,5,-2,0
1558440299162491,-2,1,1,0,-2,-10,0,1
1558440299168476,0,0,1,2,-4,-13,-3,-2
1558440299168476,-2,-2,-3,-6,0,4,2,-1
1558440299185429,2,-1,2,1,2,-1,0,1
1558440299185429,-1,-2,0,-2,0,8,3,1
1558440299191415,-1,-1,0,0,7,6,0,-2
1558440299191415,-3,-2,-3,-1,-7,-6,-6,-4
1558440299214353,1,0,-2,-1,-3,1,-3,-3
1558440299214353,0,1,2,4,8,9,2,-1
1558440299215350,-1,-1,-4,-3,-11,-11,-3,-1
1558440299215350,0,0,-1,-2,1,2,4,0
1558440299222331,-2,-2,0,-1,6,5,3,0
1558440299222331,0,0,-2,-2,-6,-1,-3,-2
1558440299236293,1,0,1,-1,-5,-12,-2,0
1558440299236293,-2,0,-1,-3,-2,3,-4,-2
1558440299245270,-1,-2,-4,4,4,0,-1,-3
1558440299245270,0,-2,-3,-3,-14,-5,-5,-1
1558440299251255,-1,0,-1,-5,-1,0,-1,-2
1558440299251255,3,0,1,3,8,2,2,2
1558440299266215,-1,0,0,1,1,0,0,-1
1558440299266215,-2,-2,0,-1,-6,-6,-3,-4
1558440299274193,-3,-3,-3,-2,-2,1,-3,-2
1558440299274193,-1,0,-1,0,2,1,1,-1
1558440299283168,-1,0,-1,-2,0,4,1,-3
1558440299283168,0,-1,-4,0,-4,-2,0,0
1558440299296133,3,1,3,3,9,-11,1,4
1558440299296133,-2,-2,-1,-1,-2,0,-1,0
1558440299305111,-1,1,-2,-4,0,1,3,2
1558440299305111,-1,-2,-2,-3,-7,-10,-8,-5
1558440299311096,-2,-2,-2,-3,-5,5,-6,-4
1558440299311096,-2,-3,-1,5,10,14,2,-1
1558440299326054,0,2,0,-7,-6,-17,0,0
1558440299326054,-2,-2,-3,-5,-10,-9,-5,-3
1558440299334032,-1,-1,0,0,1,5,0,0
1558440299334032,-1,-1,-1,0,-3,6,0,-2
1558440299343008,1,0,2,3,6,9,8,5
1558440299343008,-2,-1,1,-2,5,-8,-1,1
1558440299355973,0,-4,-2,-1,-6,1,-7,-3
1558440299355973,0,1,-2,-4,-6,-10,-5,0
1558440299364949,-3,-2,-3,-2,-3,-2,-3,-3
1558440299364949,3,2,2,1,2,2,1,-1
1558440299370938,-4,-4,-5,-5,-5,0,-6,-6
1558440299370938,-1,2,1,0,0,-2,2,2
1558440299386892,-1,1,0,2,-4,-12,0,4
1558440299386892,-1,-1,-1,3,8,2,1,2
1558440299393874,-2,-1,-3,-3,-4,-5,-4,-4
1558440299393874,1,-1,-1,-5,-3,8,-2,-2
1558440299402850,1,-3,-1,-1,-3,1,-3,-2
1558440299402850,-1,-1,1,2,8,7,8,3
1558440299416812,-1,1,2,1,3,-3,3,1
1558440299416812,0,-1,-3,-3,-7,-15,-7,-3
1558440299425787,-3,-1,-5,-4,-4,3,-2,-2
1558440299425787,-2,-4,-2,-3,-9,-5,-5,-3
1558440299431770,0,1,-1,0,2,5,4,1
1558440299431770,-1,-3,-1,-2,0,-4,0,-1
1558440299446731,-1,-1,0,0,-2,4,-1,-2
1558440299446731,-2,2,0,2,3,0,3,0
1558440299453713,-1,-2,1,-1,0,-6,0,0
1558440299453713,1,0,-3,-2,-4,-7,-1,-1
1558440299470666,0,-1,0,0,1,5,-2,-2
1558440299470666,0,-2,-1,-2,-1,0,-3,-1
1558440299476651,1,-2,-2,-1,-3,0,-1,-1
1558440299476651,0,0,0,1,2,6,4,1
1558440299485626,-1,0,1,-2,-1,-10,-3,-2
1558440299485626,-1,0,0,-1,-2,-3,-2,-4
1558440299491616,-3,0,-3,-2,-1,3,0,0
1558440299491616,-2,-1,-2,1,2,-2,0,1
1558440299506575,1,0,-1,-1,-1,0,0,-1
1558440299506575,-2,-3,-1,-2,-3,1,0,-2
1558440299513559,-1,-2,-1,0,1,2,0,3
1558440299513559,-2,-2,-3,-5,-11,-5,-7,-5
1558440299522529,-1,-4,-3,-3,-2,1,-3,-2
1558440299522529,3,1,1,1,12,-4,7,6
1558440299536497,1,-1,-1,2,3,-2,2,-2
1558440299536497,-3,-1,1,2,2,6,2,0
1558440299545469,-3,-2,0,-4,-8,-3,-9,-4
1558440299545469,-2,-3,-2,-4,-5,0,-6,-4
1558440299551453,2,2,1,0,2,-3,2,1
1558440299551453,0,-1,-3,-2,-1,-4,-3,-2
1558440299566412,0,0,0,1,3,6,6,3
1558440299566412,-2,-1,-2,-3,-8,-13,-7,-2
1558440299573399,-1,-1,0,-1,2,5,0,-1
1558440299573399,-1,-3,-2,0,-3,-3,-3,-3
1558440299582373,-2,-4,-1,0,0,4,-4,-2
1558440299582373,1,0,1,-2,1,3,0,0
1558440299596331,-1,3,1,1,6,-1,4,2
1558440299596331,-1,0,-1,-3,-7,-3,-7,-2
1558440299605309,1,-3,-3,0,3,-6,-3,1
1558440299605309,-3,-3,0,-1,-9,-5,2,-2
1558440299611294,-1,-2,-3,0,0,4,-1,-4
1558440299611294,-1,-3,0,-2,-1,-3,-6,-2
1558440299626251,1,2,1,-2,5,1,0,0
1558440299626251,0,-3,-3,-3,-8,-2,-2,2
1558440299634235,-3,-2,-1,-1,-1,-6,-3,-4
1558440299634235,-3,0,-2,-2,0,4,-1,-3
1558440299649194,1,-1,-1,-1,-1,-2,-3,-1
1558440299649194,0,1,-1,0,3,3,-1,1
1558440299656176,0,-1,-3,-3,-6,-4,-1,-1
1558440299656176,-2,-1,0,-1,0,-4,-1,-1
1558440299672248,-3,-1,0,0,-3,-3,-1,-2
1558440299672248,0,-1,-3,0,2,1,0,-2
1558440299673137,0,-2,-2,-1,-4,-2,-1,0
1558440299673137,-1,1,0,-1,1,3,2,-2
1558440299687117,-1,0,0,-1,-6,-6,0,0
1558440299687117,-3,0,-3,-2,5,5,-1,-2
1558440299694175,0,-2,1,-2,-3,-4,-1,-1
1558440299694175,1,1,2,2,1,-5,1,1
1558440299709030,-1,0,0,-2,-1,6,6,0
1558440299709030,2,1,1,1,5,4,5,3
1558440299717050,1,-2,-3,-2,-7,-6,-6,-2
1558440299717050,-2,-1,-2,-4,-7,0,-7,-2
1558440299732006,-1,-2,-2,-1,0,-3,-1,-3
1558440299732006,1,-2,1,-1,11,12,5,3
1558440299732967,1,1,2,2,2,2,5,3
1558440299732967,0,1,-1,-5,-4,-10,-1,1
1558440299746931,-3,-3,-4,-4,-11,-7,-9,-4
1558440299746931,-3,-2,-3,-2,-13,-13,-10,-8
1558440299754163,2,2,4,3,10,13,14,6
1558440299754163,1,-3,-1,2,5,8,3,1
1558440299768871,-3,-3,-4,-2,-3,-9,-5,-3
1558440299768871,-3,-2,0,3,-1,-1,-5,-3
1558440299776856,-2,-2,-4,-7,-11,-6,-9,-4
1558440299776856,-3,0,0,0,-4,2,0,0
1558440299791810,0,0,2,2,3,-2,3,1
1558440299791810,1,0,2,-3,-2,-2,-1,-2
1558440299792808,-1,0,-1,1,2,-6,-3,-1
1558440299792808,0,-1,-3,0,0,-1,2,0
1558440299806768,-2,-2,-2,-1,-3,-1,-5,-5
1558440299806768,-4,-1,-5,-7,-12,-7,-5,-2
1558440299813753,-2,0,2,2,4,8,4,2
1558440299813753,-3,-1,0,-2,3,11,3,0
1558440299828710,1,0,-2,2,2,4,1,0
1558440299828710,0,0,0,2,3,-5,-1,0
1558440299837070,-3,-2,-3,1,-2,0,0,-2
1558440299837070,0,-1,-1,-6,-4,-10,-1,-2
1558440299852834,-1,-2,0,0,-1,0,-3,-3
1558440299852834,0,-1,1,-2,0,-4,1,-1
1558440299852834,-3,-2,-3,-3,1,7,-1,-2
1558440299852834,2,-2,-2,4,2,-4,5,2
1558440299866834,3,1,-1,-2,-4,-7,-1,2
1558440299866834,-2,-2,-1,-2,-4,-1,-4,-2
1558440299873654,-2,-1,-1,0,-3,-9,-6,-3
1558440299873654,-2,-2,0,1,6,3,2,0
1558440299889653,-3,-2,-5,-7,-5,-4,-2,-1
1558440299889653,-2,-1,-3,0,3,1,0,-2
1558440299896754,0,0,-1,0,2,0,2,2
1558440299896754,-4,-1,1,-1,-2,4,-3,-2
1558440299912675,0,0,2,2,4,2,0,2
1558440299912675,0,1,-1,-1,1,6,0,0
1558440299912675,-1,-3,-2,-2,-11,-9,-6,-4
1558440299912675,0,-1,-4,-4,-4,-2,0,-2
1558440299926449,1,0,0,2,1,-3,1,1
1558440299926449,-2,-1,-2,0,-1,2,2,-1
1558440299933431,-1,0,1,-1,-1,-5,-4,-1
1558440299933431,-1,-3,-3,-1,-3,-5,-5,-1
1558440299949389,1,-2,0,-1,-1,-2,1,0
1558440299949389,0,-3,-1,-1,1,2,2,1
1558440299956374,-3,-1,0,-4,-1,0,-5,-5
1558440299956374,1,2,3,0,0,-12,-2,1
1558440299972326,-4,-1,-4,-8,-11,-2,-6,-4
1558440299972326,0,1,-2,2,6,6,7,3
1558440299972326,-1,-2,1,-2,0,-3,-3,-3
1558440299972326,-2,-2,0,2,4,8,0,0
1558440299986289,-1,-3,0,1,4,2,4,1
1558440299986289,-1,-3,0,-1,-7,3,-4,-3
1558440299994266,2,2,-3,-3,-2,0,1,1
1558440299994266,-1,-3,-4,-3,-6,-4,-6,-1
1558440300009227,0,0,2,1,10,2,3,1
1558440300009227,-2,-1,0,-1,-2,-5,-1,-2
1558440300016207,-2,-2,-3,-1,-7,-5,-5,-2
1558440300016207,-1,0,-1,-3,-6,1,-3,-3
1558440300032165,-2,-2,-1,0,-2,-1,-3,0
1558440300032165,-1,-1,0,-1,1,0,-4,-3
1558440300033162,1,1,0,-1,0,-7,-1,0
1558440300033162,-2,-2,-1,-1,-3,-6,-3,-2
1558440300046128,-3,-2,-2,0,1,7,1,-1
1558440300046128,1,-1,-3,-2,-4,-7,0,-2
1558440300054107,2,-2,0,1,3,6,4,1
1558440300054107,-3,-2,-1,-1,-2,4,1,-1
1558440300069067,-2,-1,0,0,1,-1,-1,-2
1558440300069067,-3,1,-1,-3,-3,-1,-3,0
1558440300076047,-3,-1,-4,-3,-6,-6,-2,-2
1558440300076047,1,-2,-1,0,3,2,2,-1
1558440300092009,0,-2,-3,-1,-3,-4,-5,-3
1558440300092009,1,-1,3,1,-3,1,2,1
1558440300093004,1,-2,1,-1,3,1,1,1
1558440300093004,0,0,0,-1,2,1,1,-1
1558440300105968,-1,1,-1,0,2,8,2,-1
1558440300105968,-1,-1,-3,-2,0,-13,-3,-2
1558440300121927,-3,-2,-3,-1,-3,5,-3,-3
1558440300121927,-3,-3,-3,-4,-7,-6,-4,-1
1558440300128906,-1,0,1,1,3,4,3,0
1558440300128906,-2,-1,0,0,-1,-3,0,0
1558440300135889,-1,-3,-1,-2,1,4,2,1
1558440300135889,-5,-1,-1,-2,-5,0,-7,-3
1558440300151846,0,0,2,-3,-3,-3,2,1
1558440300151846,-2,-2,0,1,-2,-8,-2,1
1558440300159830,-1,-1,1,-1,-4,-6,-3,-1
1558440300159830,1,-1,0,1,4,5,4,2
1558440300166806,-2,-1,-4,1,0,4,-2,-1
1558440300166806,-1,-2,-4,-2,-2,-3,-2,-3
1558440300173789,-3,-1,-3,-4,-4,-9,-6,-4
1558440300173789,1,2,4,6,8,8,9,0
1558440300188755,-1,0,-5,-9,-11,-5,-2,-3
1558440300188755,0,-1,0,1,4,5,4,0
1558440300196727,1,-2,-3,-2,-3,-1,-3,-1
1558440300196727,0,-1,0,1,-1,-10,-1,-1
1558440300211688,-1,-2,0,-2,-1,-7,-3,0
1558440300211688,1,-1,-2,0,7,18,2,-1
1558440300218670,0,-2,0,0,-1,-4,1,-1
1558440300218670,-1,0,-2,-1,0,1,-2,-3
1558440300227642,-2,0,0,-1,-3,1,-3,-2
1558440300227642,-1,-2,-3,-3,-5,-8,-3,-1
1558440300233627,-1,1,4,1,4,2,1,-2
1558440300233627,-2,0,-1,-3,0,-1,2,-1
1558440300248587,-1,-1,0,6,6,-4,2,1
1558440300248587,-2,-2,-1,-6,-7,2,-5,-5
1558440300256565,-2,-4,-3,-2,0,-2,-2,-2
1558440300256565,0,-3,-2,0,1,-2,-1,1
1558440300271524,-2,-1,0,0,-1,-4,-3,-1
1558440300271524,-1,-1,-1,-1,-3,-2,1,-1
1558440300278504,0,1,-1,-3,-7,-5,0,-1
1558440300278504,-2,-2,-3,-2,-3,-4,-3,-4
1558440300287481,2,-1,1,0,4,7,3,2
1558440300287481,1,0,1,1,0,-6,-2,3
1558440300293472,-2,-3,-3,0,-6,-1,-2,-3
1558440300293472,-1,-2,1,-1,4,5,2,-1
1558440300310423,-2,-1,-5,-5,-11,-6,-3,-2
1558440300310423,-1,-1,1,0,5,5,4,1
1558440300316410,1,0,0,2,4,2,1,0
1558440300316410,-1,0,-1,-2,-6,-5,-6,-3
1558440300331369,-3,-1,-3,-1,-2,-1,-3,-4
1558440300331369,-2,-1,0,0,0,-3,-1,2
1558440300339345,0,0,0,1,3,3,2,2
1558440300339345,-1,-1,-2,-1,-1,-2,-2,-1
1558440300354310,0,-1,0,-2,-1,4,-2,-2
1558440300354310,-3,0,-3,-5,-6,-5,-4,-4
1558440300355305,1,-1,-1,2,9,0,2,2
1558440300355305,0,-1,-2,-3,-4,-4,-1,-1
1558440300369270,-2,-2,-1,-1,-4,-1,-2,-3
1558440300369270,1,0,-2,1,4,5,7,2
1558440300384228,0,1,0,2,2,-2,-1,-2
1558440300384228,-1,-3,-3,-7,-14,-2,-6,-4
1558440300391205,-2,-4,0,0,-1,-8,0,0
1558440300391205,0,-1,1,0,6,4,1,1
1558440300399192,-4,-1,-1,0,4,7,4,-1
1558440300399192,-1,0,-3,-1,0,-1,-5,-2
1558440300415192,-1,-1,-1,-2,-4,-4,-1,-1
1558440300415192,0,1,0,0,2,-6,-1,0
1558440300415192,-1,-2,-2,-3,-6,-1,-3,-3
1558440300415192,0,1,1,0,3,2,2,0
1558440300429107,-1,-1,-2,-3,-2,-1,-3,-2
1558440300429107,0,-1,-2,1,3,9,2,1
1558440300436086,-2,-1,-2,-4,-2,-11,-3,1
1558440300436086,-1,0,-3,-1,-4,0,-2,-4
1558440300451044,1,0,1,2,3,2,1,1
1558440300451044,-3,-3,-3,-2,-2,-1,-3,-4
1558440300459027,0,-1,0,-1,-2,3,0,-2
1558440300459027,-2,-3,0,-1,2,2,1,-1
1558440300474984,-1,-2,-2,0,0,1,0,0
1558440300474984,0,0,-1,-1,-6,-12,-1,-1
1558440300474984,-3,-2,-3,-4,-3,1,1,-2
1558440300474984,0,-1,-1,1,6,9,3,1
1558440300489073,-4,0,-2,-1,-4,-5,-9,-3
1558440300489073,-1,-3,-4,-3,-2,-4,-2,1
1558440300497020,-2,0,0,0,0,3,0,1
1558440300497020,-1,-4,-3,-3,-8,-13,-6,-3
1558440300511917,0,-1,0,-1,1,-4,-2,-1
1558440300511917,1,2,2,0,2,6,2,0
1558440300518991,-3,-1,-1,0,-6,-12,-5,-2
1558440300518991,0,0,1,1,7,2,3,1
1558440300535065,-2,0,-1,-1,-3,-1,1,0
1558440300535065,-4,-3,-4,-3,-6,-6,-6,-5
1558440300535065,-3,-4,-1,-2,-2,0,-5,-1
1558440300535065,0,1,1,-3,1,7,4,1
1558440300548997,1,1,0,-1,1,-1,-2,-2
1558440300548997,0,-3,-3,0,-1,-4,1,1
1558440300556799,1,-3,-2,0,1,1,1,-1
1558440300556799,-4,-3,-2,-1,-4,-5,-2,0
1558440300571932,-1,-1,2,0,2,3,1,-2
1558440300571932,-3,-2,-3,0,5,9,-3,-3
1558440300578713,1,-1,0,-4,-10,-1,-2,-3
1558440300578713,-1,-1,-1,1,0,-9,0,1
1558440300594664,-1,-1,-4,-2,-4,-6,-2,-2
1558440300594664,-2,0,1,-2,-4,-5,0,1
1558440300595660,-1,0,-1,0,1,0,-2,0
1558440300595660,-2,1,1,0,11,10,3,1
1558440300608624,-4,-2,-2,-2,-3,-3,-2,-1
1558440300608624,-2,-3,-3,-3,-9,-8,-9,-6
1558440300616605,0,0,-1,-1,2,4,1,0
1558440300616605,0,0,0,-1,-4,-5,0,-1
1558440300631568,1,-2,0,-1,6,-5,2,3
1558440300631568,0,-1,1,-1,-6,-3,-2,-2
1558440300638546,-1,-1,-1,-2,-4,1,2,-3
1558440300638546,-1,-1,-6,-1,-1,-2,-3,-1
1558440300654658,-1,-1,0,0,3,4,1,1
1558440300654658,-2,0,-2,-1,-1,3,1,-3
1558440300655501,-1,-2,1,-3,-6,-8,-4,1
1558440300655501,0,0,0,-1,0,-4,-3,-1
1558440300669545,0,-2,-1,0,0,3,-1,0
1558440300669545,0,-2,-2,-3,-4,1,-4,-3
1558440300676447,-1,2,-1,1,10,3,4,2
1558440300676447,0,0,1,1,-2,0,2,3
1558440300691402,0,0,0,-2,-3,0,-1,-1
1558440300691402,-2,-1,-2,-4,-5,-3,-4,-3
1558440300699407,-2,-2,-4,-1,-3,4,-2,-3
1558440300699407,-2,-3,-4,-4,-10,-4,-4,-3
1558440300714595,1,0,1,2,5,-8,2,1
1558440300714595,-1,-2,0,1,2,0,0,0
1558440300715338,3,0,0,-1,-1,-1,-3,-1
1558440300715338,-2,-2,0,0,8,4,1,-1
1558440300731293,-2,-2,-4,-3,-9,-4,-5,-3
1558440300731293,-3,-2,-1,-3,-4,-2,0,2
1558440300736511,-3,-1,-1,-1,2,3,-2,-2
1558440300736511,-3,-4,-1,-2,-8,-2,-4,-2
1558440300751245,0,-2,-2,0,2,-2,4,1
1558440300751245,-2,0,0,1,3,-3,-1,2
1558440300759489,-2,2,3,1,4,2,4,1
1558440300759489,-1,-1,-3,-3,-5,-1,-6,-5
1558440300774183,-1,-1,0,-2,3,9,4,1
1558440300774183,0,-2,0,0,-8,-21,-7,-3
1558440300775177,-1,-1,-2,-1,1,1,-1,0
1558440300775177,0,-3,-1,0,0,1,2,-2
1558440300789388,-1,1,1,-1,-1,1,-2,1
1558440300789388,1,-1,0,-2,-3,-7,-4,-1
1558440300797156,1,1,2,1,2,2,4,2
1558440300797156,-1,-1,-3,-2,-5,-8,-6,-2
1558440300812081,-1,-1,-3,-1,1,6,-2,-2
1558440300812081,0,-2,0,-2,6,8,4,0
1558440300819064,-1,-3,-3,-4,-8,-12,-6,-2
1558440300819064,-1,-2,-2,-1,-3,0,0,-1
1558440300835218,0,-1,-2,0,-2,-2,0,-3
1558440300835218,-2,1,2,1,4,7,2,2
1558440300835218,-3,-3,-4,-1,-1,2,-3,-3
1558440300835218,2,1,1,-2,-3,-8,1,2
1558440300848981,2,0,-1,-1,-2,-7,0,0
1558440300848981,0,0,-1,1,-1,3,0,0
1558440300855963,-2,-1,-2,-2,-6,-3,-8,-4
1558440300855963,-2,0,0,0,0,2,-3,-2
1558440300870925,-1,-2,-1,-2,-2,1,0,-2
1558440300870925,1,1,2,2,10,4,4,1
1558440300879167,-1,-3,1,-2,-1,-1,1,0
1558440300879167,0,2,-1,-1,-3,-3,-2,-2
1558440300895887,-4,-1,-1,-1,-4,-2,-3,-4
1558440300895887,-4,-1,-4,-4,-4,-1,-3,-1
1558440300896856,0,-3,-1,0,2,4,3,2
1558440300896856,-1,-2,-4,-3,0,0,-1,-1
1558440300908821,1,0,0,4,5,6,2,0
1558440300908821,-1,-2,-1,-2,-6,-4,-3,-3
1558440300916826,-2,-3,-5,-3,-5,2,-7,-5
1558440300916826,0,0,3,1,9,4,6,5
1558440300931976,0,1,3,0,2,-13,3,4
1558440300931976,0,-2,-1,0,1,5,0,-2
1558440300938740,-1,-1,-1,-3,-5,-5,-5,-4
1558440300938740,-4,-3,-4,-4,-11,-5,-9,-7
1558440300954929,-2,0,-1,-4,-7,-1,-6,-1
1558440300954929,0,1,1,1,5,3,8,4
1558440300955865,1,-2,-1,0,3,-8,-1,2
1558440300955865,-1,-2,-1,0,2,6,2,1
1558440300969692,-1,0,0,-1,-1,-5,-3,-2
1558440300969692,0,-1,-4,-5,-7,-1,-2,-5
1558440300976893,1,1,-2,1,-1,0,-1,-2
1558440300976893,0,1,-1,1,-6,-5,-3,-3
1558440300991601,0,-2,-3,-2,-1,0,0,-1
1558440300991601,-1,-4,-1,-2,-7,5,-7,-6
1558440300998820,-4,-3,-3,1,1,4,5,1
1558440300998820,4,6,6,7,25,-2,15,10
1558440301014572,-3,-3,-1,-3,-7,0,-4,-3
1558440301014572,-2,-1,-1,1,3,0,0,0
1558440301015539,1,-1,-1,-2,-7,-8,-2,0
1558440301015539,-3,-3,-4,-2,-4,1,-8,-3
1558440301028501,-1,-1,-3,0,4,9,4,0
1558440301028501,0,-3,-4,-4,-9,-13,-8,-3
1558440301036697,-4,-1,-1,-2,-1,7,-1,-3
1558440301036697,-3,-2,1,-2,-6,6,3,1
1558440301051442,2,2,0,-1,4,-9,-3,2
1558440301051442,0,0,-2,-1,2,-13,-2,0
1558440301058424,0,0,-1,0,-1,-1,0,-1
1558440301058424,-2,-3,-3,-3,-3,0,-2,-3
1558440301074381,-5,-1,-2,-2,-6,6,-3,-3
1558440301074381,-1,0,0,2,-1,-1,2,1
1558440301075377,0,0,-2,0,3,3,1,1
1558440301075377,-3,-4,-2,-3,-6,-1,-3,-2
1558440301089588,1,0,1,0,3,1,0,0
1558440301089588,1,-1,0,0,1,-3,2,1
1558440301096597,-2,-1,-3,-1,0,-6,-5,-6
1558440301096597,0,0,-4,-2,-10,-5,-4,-5
1558440301111554,-1,-3,0,-1,-2,-1,2,0
1558440301111554,-2,1,1,1,8,10,6,3
1558440301119525,-2,-1,1,0,4,5,0,0
1558440301119525,-2,-1,-3,-5,-4,-3,-4,-2
1558440301134487,-1,-2,-1,-1,-5,-18,-4,-2
1558440301134487,1,0,2,1,7,13,2,0
1558440301142463,-1,0,0,-3,-5,-6,1,0
1558440301142463,0,-1,1,3,6,-2,2,1
1558440301149448,-3,-2,-4,-5,-7,1,-3,-4
1558440301149448,-1,-1,-2,-3,-8,-9,-6,-3
1558440301156162,-1,1,-2,-2,1,0,-1,-1
1558440301156162,-1,-2,-1,0,0,4,0,-1
1558440301172152,-2,-2,-2,-3,-4,-1,-3,0
1558440301172152,-1,-1,-1,-2,-3,-2,-3,-2
1558440301179319,-2,0,0,-2,-3,-2,0,0
1558440301179319,0,0,1,1,-3,-2,-3,-1
1558440301194239,0,0,0,2,6,4,7,2
1558440301194239,-3,-3,-6,-4,-7,-4,-2,-3
1558440301202246,1,-1,-2,-2,-4,-8,-3,-2
1558440301202246,0,0,-2,-2,2,2,1,0
1558440301217126,-1,-1,2,0,-4,-13,-5,-2
1558440301217126,-3,-4,1,0,2,8,2,0
1558440301217999,0,-2,-1,1,2,-1,1,1
1558440301217999,-1,-2,-4,-2,-5,-2,-5,-2
1558440301230991,0,-2,-3,-1,-6,-4,-1,-2
1558440301230991,0,-1,2,0,4,-4,1,-2
1558440301238968,0,-2,1,0,0,2,1,-1
1558440301238968,-3,-1,-3,-2,0,3,2,0
1558440301253898,-1,-1,-3,-3,-3,6,-4,0
1558440301253898,-2,0,-2,-3,-7,-2,-5,-1
1558440301262102,0,-1,-2,-2,-2,-1,-3,-3
1558440301262102,2,3,1,2,9,8,8,3
1558440301276834,-3,0,1,-1,-1,-4,1,0
1558440301276834,-2,2,-2,-1,0,-1,-1,0
1558440301277833,-3,0,-2,-2,2,1,-1,-2
1558440301277833,-1,-2,1,-1,-7,-11,-4,-1
1558440301291796,-2,-2,-3,-3,0,9,-2,-3
1558440301291796,-1,-1,1,1,-3,0,1,0
1558440301298779,1,-2,1,4,2,-6,-2,2
1558440301298779,-3,-4,-5,-5,-11,-12,-8,-5
1558440301313738,0,-1,1,1,11,17,8,3
1558440301313738,0,-2,-1,0,-5,-5,0,-1
1558440301321714,1,0,-1,-3,-2,-8,-3,-1
1558440301321714,-2,-2,2,2,-2,-3,-1,-3
1558440301336674,0,0,-1,-1,0,3,-2,-4
1558440301336674,-4,-2,-3,-1,1,12,2,-1
1558440301337672,1,2,0,1,1,0,0,1
1558440301337672,-1,-1,-3,-3,-3,-2,-6,-2
1558440301351634,-3,-3,-2,-2,-3,-4,-2,-1
1558440301351634,0,1,1,0,4,-6,5,3
1558440301359651,-3,-1,0,-1,-1,4,1,1
1558440301359651,0,0,-1,-3,-1,-9,-2,-2
1558440301373587,-1,0,-1,-3,1,4,2,-2
1558440301373587,-1,-1,-3,-2,-6,-3,-5,-2
1558440301382889,-4,-2,-3,-2,-4,0,-1,-2
1558440301382889,-1,0,-1,-2,-3,-1,-3,-1
1558440301397783,1,0,0,0,-1,-2,-1,-1
1558440301397783,0,-2,-2,-4,-3,-11,-3,-1
1558440301397783,0,0,1,1,11,5,6,3
1558440301397783,-1,-1,1,1,3,1,2,0
1558440301411953,-1,-2,-3,-4,-1,-5,-6,-3
1558440301411953,0,-2,-1,0,-7,-2,-2,-2
1558440301419801,-1,-3,-3,-2,-5,0,-5,-2
1558440301419801,-2,0,0,-2,0,1,3,-1
1558440301433721,-2,1,-2,1,1,1,-2,-2
1558440301433721,-3,-4,-3,-3,2,7,-3,-2
1558440301442641,1,-2,-3,-4,-7,-3,-5,-2
1558440301442641,3,0,2,3,9,-5,7,5
1558440301457357,-1,-3,-1,-1,-5,-9,-2,-1
1558440301457357,0,0,-1,0,4,2,1,1
1558440301457357,-2,-1,-3,-4,-7,-5,-3,-3
1558440301457357,-3,-1,-2,-3,-3,5,-3,-3
1558440301471316,-1,-2,-1,-1,-1,-3,0,0
1558440301471316,1,-1,0,-1,1,-1,-3,-1
1558440301479293,-3,1,-1,0,-8,-8,-6,-4
1558440301479293,0,-1,-1,0,5,4,-1,-2
1558440301494252,2,2,2,-3,5,8,10,5
1558440301494252,-4,-1,-3,2,5,1,0,0
1558440301502662,-1,-5,-2,-2,-3,2,0,-1
1558440301502662,-2,-2,-5,-3,-10,-7,-8,-5
1558440301517678,-2,-2,-1,-2,-7,-4,-4,-1
1558440301517678,1,0,0,1,6,4,1,2
1558440301517678,-1,0,-1,-1,0,-3,0,0
1558440301517678,1,1,0,-2,-2,-3,-3,-1
1558440301540347,-2,-2,-3,0,-1,4,-3,-5
1558440301540347,-3,-2,-4,-3,-6,1,-5,-5
1558440301540347,1,3,3,3,8,0,9,6
1558440301540347,-1,-1,0,-1,4,-8,-2,0
1558440301554095,-3,-1,-2,-5,-4,-8,-8,-3
1558440301554095,0,-1,0,-2,-5,-2,-4,-2
1558440301562071,-2,-3,-3,0,5,1,-2,-3
1558440301562071,1,1,1,-1,0,6,6,2
1558440301577364,-1,-3,-2,-2,-5,-2,-2,-1
1558440301577364,-4,0,-2,-2,-7,-4,-2,-4
1558440301578031,-1,-1,-2,-1,-6,-1,-5,-3
1558440301578031,-2,-1,-2,0,-2,3,-1,-2
1558440301590996,-1,-1,-1,-1,4,-3,0,-2
1558440301590996,-2,-1,-3,-3,-8,-2,-1,-3
1558440301599322,0,-1,-1,-1,-1,-3,-4,-1
1558440301599322,2,-1,1,1,5,4,3,3
1558440301614279,0,-1,1,0,2,-3,2,4
1558440301614279,0,0,1,1,5,-1,1,0
1558440301622258,-1,-2,-4,-4,-5,0,-2,-3
1558440301622258,0,-3,-5,-1,-1,-1,-2,-2
1558440301636899,-2,0,0,0,-2,3,-3,-1
1558440301636899,-2,-1,-1,-3,-8,-4,-5,-2
1558440301637870,1,1,1,6,16,3,6,5
1558440301637870,-2,-3,-2,-11,-15,-7,-5,-3
1558440301659838,-2,-4,-2,-1,-8,0,-2,-3
1558440301659838,2,2,0,1,11,7,7,2
1558440301660981,0,-2,-1,-4,-3,-4,-7,-4
1558440301660981,-1,-2,-3,2,0,-5,0,-2
1558440301673773,5,3,3,4,17,9,10,6
1558440301673773,-5,-1,-4,-4,-12,-3,-9,-5
1558440301681754,0,-1,1,3,-2,-8,-4,-1
1558440301681754,-1,0,-1,-9,-8,0,0,-1
1558440301697204,-1,0,0,1,0,0,-3,-2
1558440301697204,-2,-2,-3,2,2,-5,4,2
1558440301697710,-2,-1,1,-4,-8,0,-3,-4
1558440301697710,-2,-2,-2,2,5,10,2,-1
1558440301712166,-1,-1,-3,-4,-9,-11,-8,-2
1558440301712166,3,-1,1,-1,8,3,3,0
1558440301719157,-1,-1,-2,-2,-5,-10,-3,-2
1558440301719157,-2,-1,-1,0,-1,-6,-5,0
1558440301744105,-1,0,0,0,1,3,-3,-3
1558440301744105,-1,-1,0,-2,5,1,4,1
1558440301744588,-2,-1,-2,-4,-7,1,3,-2
1558440301744588,-2,-1,0,2,-4,-3,-3,-4
1558440301756551,-2,-4,-4,0,2,1,0,1
1558440301756551,0,-1,0,-4,-8,-5,-9,-5
1558440301757549,1,1,0,0,6,0,4,5
1558440301757549,2,-1,0,-1,0,2,0,1
1558440301779491,-1,-4,-4,-3,-8,-10,-3,-3
1558440301779491,-1,-1,0,-1,-4,-4,-4,-2
1558440301780488,2,-1,3,3,17,20,12,5
1558440301780488,-1,0,0,3,0,-4,-6,-5
1558440301794782,-6,-5,-6,-4,0,1,-3,-3
1558440301794782,2,1,0,0,0,-10,-1,2
1558440301802828,-4,-3,-3,-2,-11,-1,-5,-3
1558440301802828,0,1,-2,-1,5,-6,1,2
1558440301817182,2,0,-1,1,3,0,3,-1
1558440301817182,-1,-2,-3,-5,-5,0,1,-2
1558440301817869,-1,-3,-3,-6,-12,-12,-9,-5
1558440301817869,-1,-1,1,1,6,11,5,2
1558440301832041,0,1,2,2,1,-4,1,0
1558440301832041,2,-1,-2,1,4,-3,0,0
1558440301839098,-1,-2,-2,0,-4,2,-4,-5
1558440301839098,-2,-3,-2,-5,-10,-10,-4,-3
1558440301863775,-4,2,-1,0,8,4,4,1
1558440301863775,-2,0,0,-1,2,4,2,0
1558440301864742,-2,0,-2,-3,-1,0,1,1
1558440301864742,-2,-2,-2,-1,-5,-6,-7,-4
1558440301876708,0,-2,-1,-1,-1,-2,-2,0
1558440301876708,2,1,0,1,5,-3,2,1
1558440301877708,-2,-1,1,3,4,7,-1,-2
1558440301877708,-1,0,-1,-4,-8,-2,-2,2
1558440301899896,-1,-1,-1,-4,0,0,-1,0
1558440301899896,-3,-4,0,-1,-8,-2,-3,-3
1558440301900930,-1,-1,-3,-4,-5,-7,-5,-4
1558440301900930,2,3,1,2,3,-3,3,3
1558440301914313,-2,-2,-1,0,-7,-7,-7,-5
1558440301914313,-1,0,1,0,7,6,10,3
1558440301922306,-1,-1,2,-1,-2,-9,-1,1
1558440301922306,-5,-3,0,-3,0,6,-3,-3
1558440301937246,0,-2,-2,-1,-4,0,-2,0
1558440301937246,-1,-3,-1,1,-1,-4,-3,-1
1558440301937937,2,1,2,-3,0,7,4,-1
1558440301937937,-1,-3,-3,2,10,9,4,0
1558440301951989,-1,0,2,-5,-12,-5,-5,-1
1558440301951989,-3,-1,-3,-3,-2,2,-5,-3
1558440301959214,-2,-1,-2,-1,-1,-5,-2,0
1558440301959214,1,0,0,0,0,-9,-3,-1
1558440301974836,-2,-2,-1,0,-1,3,3,-2
1558440301974836,0,-2,0,-1,-2,1,-2,-2
1558440301981819,-1,0,-1,0,5,4,4,1
1558440301981819,0,0,1,-1,-8,-12,-6,-2
1558440301997774,-1,0,-2,0,0,1,0,0
1558440301997774,0,1,-3,-1,0,1,2,1
1558440301997774,-4,-1,-1,-2,2,5,2,-1
1558440301997774,0,-4,-1,-5,-4,6,1,-1
1558440302021014,1,0,2,1,3,-8,1,3
1558440302021014,-1,-1,-2,1,0,-4,-3,-1
1558440302021715,-1,-1,-3,-2,-2,-1,-5,1
1558440302021715,-1,-2,-2,0,2,2,3,1
1558440302033983,0,-2,-4,-4,-2,-2,-4,-5
1558440302033983,-2,-3,-2,-3,-5,-4,-6,-5
1558440302041657,0,-1,-2,0,-3,0,0,0
1558440302041657,-1,1,0,1,-1,-1,-1,-1
1558440302057614,-2,-3,-1,-4,-6,2,-5,-3
1558440302057614,0,-3,1,0,5,-3,3,2
1558440302064596,0,-1,0,4,9,-6,3,3
1558440302064596,-2,2,-1,-2,1,4,0,-3
1558440302071948,-2,-2,-1,-2,-7,-6,-5,-1
1558440302071948,-2,-1,-4,-2,2,5,-1,-3
1558440302079683,-2,0,2,0,-1,-1,0,0
1558440302079683,-1,1,1,1,1,-4,-2,0
1558440302094649,1,0,-3,-3,-4,-1,-5,-2
1558440302094649,-2,-1,-2,-1,-7,1,-2,-2
1558440302101859,3,1,-2,-2,5,2,2,0
1558440302101859,0,-2,-3,-1,-5,-5,-3,-2
1558440302116829,0,-2,3,4,6,-3,4,2
1558440302116829,-1,-2,-2,-2,0,-12,-2,1
1558440302124435,-3,-3,-4,-4,-12,2,-2,-3
1558440302124435,-2,-2,-2,-3,-2,0,-1,-2
1558440302131702,0,0,0,2,5,10,3,0
1558440302131702,-1,-2,-1,0,-4,0,-4,-2
1558440302139625,0,-1,-1,-4,-4,-11,-6,-5
1558440302139625,-1,-2,1,0,2,0,4,1
1558440302154717,1,2,-3,2,11,9,7,3
1558440302154717,1,1,-1,1,1,3,0,-1
1558440302161683,-3,-3,-3,-7,-6,9,-1,-3
1558440302161683,-1,-1,-3,0,-2,-3,1,2
1558440302176644,1,0,0,-3,-4,-12,-2,-1
1558440302176644,-1,1,0,-1,-3,-4,-2,-2
1558440302184278,0,-1,0,-2,-7,-9,-8,-3
1558440302184278,0,-1,-1,-1,4,6,4,2
1558440302191259,-3,-3,-2,-3,-6,-1,-3,-3
1558440302191259,-3,-1,0,-1,-1,6,-3,0
1558440302199555,0,0,1,4,7,-7,5,5
1558440302199555,-2,-1,-3,-3,-5,-3,-4,-2
1558440302215194,-3,-2,-2,-2,0,-1,-5,-1
1558440302215194,0,-3,0,0,-1,-8,-2,-2
1558440302221178,-1,-2,-1,-3,-9,-4,-3,-2
1558440302221178,-1,-2,0,0,1,1,0,0
1558440302236450,-1,-1,0,2,5,7,3,1
1558440302236450,-1,-3,-3,-9,-7,0,0,2
1558440302245209,-2,0,1,3,3,3,-2,0
1558440302245209,1,2,-1,-1,6,-7,2,2
1558440302260192,-3,-2,-1,-4,-11,-13,-5,-5
1558440302260192,1,3,2,2,12,5,9,2
1558440302260192,-1,-2,-4,-2,-6,-3,-6,-3
1558440302260192,-3,-4,-2,-4,-8,0,-7,-4
1558440302274035,-3,-3,-2,0,5,5,-1,-2
1558440302274035,-2,-2,-4,-2,-6,-2,-5,-4
1558440302281361,-1,-3,-3,-1,-5,1,-2,-3
1558440302281361,1,2,1,-1,2,-7,3,1
1558440302296392,1,1,0,0,5,-5,5,4
1558440302296392,-1,-2,-1,1,-2,-1,-7,-3
1558440302305360,-2,-1,-1,-1,4,4,2,1
1558440302305360,-3,-1,-1,-2,-4,-1,-8,-4
1558440302328301,-1,-1,0,-1,-4,2,-3,0
1558440302328301,0,-2,-2,-2,0,-1,0,1
1558440302328301,-1,-2,-1,0,1,-3,0,-3
1558440302328301,-1,0,2,1,5,5,9,6
1558440302334247,-4,0,-2,1,-4,-2,-2,-3
1558440302334247,-2,-5,-3,-2,-2,0,-4,-4
1558440302342086,0,1,1,0,2,-6,1,2
1558440302342086,0,-3,-2,-2,-5,-4,-7,-5
1558440302356314,1,0,-1,-2,-7,-1,-2,-1
1558440302356314,0,0,-2,-1,-1,-7,-3,-1
1558440302364259,2,1,2,2,6,4,5,2
1558440302364259,-2,-2,-1,0,-1,-4,-6,-4
1558440302379237,-3,0,-3,-2,2,7,-2,-3
1558440302379237,-3,1,1,0,-5,-7,-1,1
1558440302380216,-4,-3,-5,-8,-13,-7,-2,-2
1558440302380216,-1,0,2,2,13,19,10,2
1558440302394179,1,-1,-1,-1,-4,-2,-2,-3
1558440302394179,1,0,0,-1,4,-2,5,0
1558440302401198,-4,-1,-2,1,1,1,-4,-5
1558440302401198,-1,-1,-2,-5,-11,-6,-4,-3
1558440302417162,-1,-1,-2,-2,3,1,-1,-1
1558440302417162,-1,-1,0,-2,-5,-4,-4,0
1558440302424109,-1,0,0,-2,2,-2,-2,-1
1558440302424109,0,-2,0,1,4,4,2,0
1558440302440059,1,-1,0,1,-4,-10,-2,-1
1558440302440059,1,0,-1,-1,-4,-5,-2,0
1558440302440059,-3,-4,-5,0,2,9,-2,-3
1558440302440059,-1,-2,-1,3,0,-7,-1,-2
1558440302454018,0,2,1,1,3,-1,5,3
1558440302454018,0,-2,1,1,5,9,1,0
1558440302461467,3,0,2,1,1,-3,-1,1
1558440302461467,0,-2,-3,0,-7,-2,-5,-1
1558440302477193,-3,-2,-2,-3,0,-2,-2,-2
1558440302477193,-4,1,-1,-1,-3,-1,0,-4
1558440302484939,-1,2,0,2,4,-2,0,0
1558440302484939,0,-3,-2,-2,-2,2,-1,0
1558440302500261,-2,-3,-2,-5,-9,-2,-3,-2
1558440302500261,1,-2,-1,0,-2,-3,-4,-2
1558440302500261,0,1,1,-3,2,0,6,1
1558440302500261,-2,-1,-3,-4,-7,-9,-3,-2
1558440302513752,-1,-1,-1,-1,-1,2,-4,-1
1558440302513752,-1,2,1,3,9,8,6,4
1558440302522076,1,-2,-1,-2,-4,-4,-6,-4
1558440302522076,-1,-1,-1,-1,-2,-2,-4,-3
1558440302537024,-2,-5,-4,-3,-7,-7,-4,-4
1558440302537024,1,1,1,2,11,-1,9,6
1558440302544995,-1,-1,-1,1,0,0,-4,-2
1558440302544995,-3,-2,-2,-3,-10,-2,-5,-3
1558440302559901,0,-2,1,1,7,7,3,0
1558440302559901,-2,-1,-4,-5,-8,-9,-6,-3
1558440302560627,-2,0,2,4,11,9,5,2
1558440302560627,-2,-1,0,-2,-1,0,1,-2
1558440302573595,-1,-1,-2,-2,-6,1,-1,-2
1558440302573595,-1,-3,-3,-3,-6,2,-2,-3
1558440302581570,1,-3,-1,-3,-9,-11,-7,-4
1558440302581570,-1,0,-1,0,6,4,3,0
1558440302596632,2,1,3,0,6,-2,2,2
1558440302596632,-1,-2,0,-2,-3,7,-1,0
1558440302612791,-1,-3,-5,-3,-9,-9,-3,-1
1558440302612791,-1,1,1,2,3,0,1,1
1558440302619785,-3,-2,-1,0,-3,-3,-2,-3
1558440302619785,-1,-3,-3,-1,-4,0,-4,-1
1558440302620465,-2,-1,-2,-2,-4,-5,0,1
1558440302620465,1,0,-1,0,2,1,2,-3
1558440302634685,1,0,0,-2,0,1,0,-3
1558440302634685,1,-3,-1,2,4,3,0,-2
1558440302641409,-1,1,-2,-6,-8,-9,-2,1
1558440302641409,-1,-2,0,0,3,0,0,1
1558440302656370,1,0,0,1,4,-3,1,0
1558440302656370,-2,-1,0,1,0,2,-3,-3
1558440302664632,0,0,-2,-1,3,9,5,1
1558440302664632,-1,-1,1,-2,-5,-5,-3,-2
1558440302680346,-2,2,-2,-3,-6,-1,-3,0
1558440302680346,-1,-2,-2,-3,0,-4,-4,-3
1558440302680346,0,-2,0,2,3,2,1,-2
1558440302680346,0,0,0,0,0,-2,1,2
1558440302694269,0,0,2,1,4,2,1,4
1558440302694269,-2,1,-1,-1,-4,-4,-2,-2
1558440302701769,-3,-4,-1,-1,-4,-2,-4,-4
1558440302701769,1,-3,-2,-1,-6,0,3,0
1558440302716730,-1,0,-1,2,-3,-8,0,-2
1558440302716730,-2,1,-2,-2,-7,-10,-1,0
1558440302724367,2,-1,-1,-3,-1,2,-4,-3
1558440302724367,0,-3,-1,-1,3,6,-4,-1
1558440302739684,0,-1,0,0,0,6,1,0
1558440302739684,-1,-3,0,-2,-2,-8,-4,-1
1558440302740323,-1,0,0,2,4,8,4,0
1558440302740323,-1,-1,-2,-2,-1,-1,-3,0
1558440302753784,-3,1,-1,-3,0,-7,1,0
1558440302753784,-2,-1,-1,-4,-8,-10,-5,-3
1558440302762098,1,0,2,3,12,11,6,2
1558440302762098,-2,-1,-3,-3,-8,-13,-8,-1
1558440302777069,-1,-5,-5,-1,-6,3,-3,-4
1558440302777069,2,-1,0,-1,0,6,6,1
1558440302785014,-2,-1,-1,-1,1,-2,-4,-1
1558440302785014,1,1,0,0,-1,2,3,0
1558440302799661,-1,1,-1,-1,-2,-6,-5,-3
1558440302799661,0,0,-3,0,4,5,1,1
1558440302800690,1,-2,0,-3,-8,-3,-4,-2
1558440302800690,-1,2,0,2,7,4,3,0
1558440302814661,-1,-3,-3,-2,1,2,3,1
1558440302814661,-1,-2,1,1,0,-1,0,1
1558440302821919,-3,-1,-2,-1,-4,-7,-3,-1
1558440302821919,2,1,0,-1,0,-1,-1,-3
1558440302836852,-3,-3,-4,-1,-3,0,-3,-2
1558440302836852,2,1,2,1,6,4,4,-1
1558440302844789,-4,0,-2,-2,-1,0,1,0
1558440302844789,-3,-2,-1,-3,-5,-4,-5,-2
1558440302859737,-2,0,0,1,3,6,2,0
1558440302859737,1,1,1,-1,-4,-4,0,2
1558440302860499,-2,-1,-1,-1,-1,-2,-3,-2
1558440302860499,-2,-2,-4,-4,-6,-5,-3,-4
1558440302873463,0,1,-1,-3,0,-3,-1,-2
1558440302873463,-1,-1,-3,1,6,12,3,-1
1558440302881441,0,-2,-6,-1,-6,-10,-6,-4
1558440302881441,0,-2,3,2,5,3,4,1
1558440302896431,-2,-1,-1,-3,-10,-5,-7,-2
1558440302896431,-2,-1,0,-2,-1,-3,-3,-3
1558440302904378,1,1,0,0,3,6,5,1
1558440302904378,-3,-1,-1,2,1,-9,-2,3
1558440302919755,0,-1,-4,-1,1,-4,-2,-3
1558440302919755,-2,-1,-4,-2,-4,1,-4,-3
1558440302920338,-2,-2,-1,-1,-7,1,-3,-1
1558440302920338,0,0,0,-1,0,-5,-1,2
1558440302942719,0,0,1,2,5,4,6,1
1558440302942719,-5,-1,-6,-7,-11,-5,-5,-5
1558440302942719,-2,-1,-3,-1,4,5,3,0
1558440302942719,0,1,-1,1,0,2,2,-2
1558440302956725,1,0,1,-3,0,-5,-3,-1
1558440302956725,-1,-3,-1,-1,-4,-5,-4,-1
1558440302964221,0,0,3,4,4,2,3,2
1558440302964221,-2,-2,-4,-2,-7,-1,-3,-1
1558440302979658,0,-1,-1,0,7,6,3,2
1558440302979658,-1,0,-2,-2,-2,-5,-4,-2
1558440302987523,1,-1,1,1,2,0,0,-1
1558440302987523,0,-2,-2,-1,-5,-4,-3,-3
1558440302994522,1,1,1,0,0,-4,0,0
1558440302994522,-2,-2,1,0,-1,-7,-4,2
1558440303002155,-1,-2,-2,-3,-1,1,-3,-1
1558440303002155,-1,-1,-1,0,-3,1,-3,-3
1558440303016837,0,-2,-3,0,2,8,0,-2
1558440303016837,0,0,0,2,4,4,7,-1
1558440303024489,-1,0,-2,-4,-1,-15,-3,0
1558440303024489,-2,-1,-1,0,0,6,4,-2
1558440303039672,-3,-2,0,-2,-7,-8,-4,-2
1558440303039672,-1,0,-1,-1,1,-1,-5,0
1558440303047667,-2,0,0,0,-10,-11,-6,-3
1558440303047667,-1,0,-1,-1,10,12,4,2
1558440303054638,-1,-3,-2,-2,-5,-1,-4,-3
1558440303054638,-1,-2,0,3,5,-3,3,1
1558440303061657,-3,-2,-1,-2,-6,-2,1,0
1558440303061657,0,-1,0,-5,-9,-14,-5,-1
1558440303076378,1,-1,0,3,6,2,2,0
1558440303076378,-1,-4,-5,-4,-7,1,-5,-3
1558440303084358,1,1,-1,2,5,4,2,1
1558440303084358,1,-2,1,-1,3,-2,1,-1
1558440303099286,-2,-1,0,0,-3,1,-3,-2
1558440303099286,-1,-1,-1,-4,-5,-5,-3,-2
1558440303107265,-3,-1,-1,-3,-6,-6,-5,-4
1558440303107265,-2,1,-2,-4,0,-4,0,-1
1558440303114246,1,-1,-1,2,0,5,3,3
1558440303114246,2,0,-1,0,3,-2,-1,0
1558440303121674,-2,-1,-2,-1,-6,1,-3,-1
1558440303121674,-2,-2,-3,-2,0,-3,-9,-2
1558440303136523,-3,-2,-1,-6,-7,-5,-3,0
1558440303136523,0,2,4,4,12,11,11,3
1558440303144494,-2,-3,-3,0,1,-4,-2,-1
1558440303144494,0,-2,-2,-2,-9,-5,-5,-4
1558440303168184,-1,-3,-3,-1,-2,-11,-1,1
1558440303168184,-1,-3,-3,-1,-5,1,-3,-3
1558440303168184,1,4,3,4,7,6,9,4
1558440303168184,-1,0,1,2,6,1,4,1
1558440303182394,-2,-2,-6,-7,-9,-3,-8,-6
1558440303182394,-2,-2,-2,-4,-12,-11,-9,-3
1558440303183062,0,-2,-2,1,10,10,6,2
1558440303183062,-1,-3,-1,0,3,8,4,0
1558440303196030,0,-2,0,-1,-2,-6,-1,-1
1558440303196030,-2,-1,-1,-3,-10,-11,-9,-5
1558440303205317,-1,-2,-3,-2,0,-2,0,-1
1558440303205317,-1,0,3,2,10,7,6,3
1558440303219289,-5,-3,-3,2,-6,-4,-3,-2
1558440303219289,-1,-2,-4,-5,-2,5,1,-1
1558440303227274,2,-2,0,-2,-8,-9,-4,-2
1558440303227274,-2,-1,-2,-2,-2,-5,-8,-2
1558440303242219,-2,-1,1,0,5,6,4,1
1558440303242219,-3,-1,-1,0,-3,-5,-1,0
1558440303242905,-2,-2,-1,3,3,4,-3,-1
1558440303242905,0,0,-2,-2,-2,-3,0,-2
1558440303256192,0,-1,0,-2,-11,-12,-6,-3
1558440303256192,-1,1,1,2,16,11,7,4
1558440303265143,-2,-2,1,-2,-5,-2,-4,-4
1558440303265143,-1,-1,-2,-1,-6,1,-3,-3
1558440303279147,0,2,3,1,5,1,4,2
1558440303279147,1,1,1,2,5,1,5,3
1558440303286785,0,-4,-4,-7,-10,-7,-6,-3
1558440303286785,-1,-1,-2,1,2,4,1,-1
1558440303302072,0,-2,-1,-4,-3,1,-3,-1
1558440303302072,0,-1,0,-1,-6,-3,-8,-4
1558440303302743,0,-2,-2,-3,6,6,3,2
1558440303302743,0,-1,1,-2,-6,-13,1,0
1558440303315710,2,0,-1,2,7,9,5,0
1558440303315710,-2,-2,-3,0,-1,1,-2,-4
1558440303324684,-1,-1,-3,-1,-3,-6,-4,-1
1558440303324684,2,0,2,7,4,2,4,2
1558440303338647,-2,1,0,1,1,1,1,-1
1558440303338647,-3,-2,-4,-6,-2,1,5,-2
1558440303346624,-4,-1,-2,-2,-6,0,-3,-5
1558440303346624,0,-3,-2,-2,-3,2,-3,0
1558440303361586,1,0,-1,0,3,-2,-2,0
1558440303361586,0,-1,-2,-1,-1,-3,-1,0
1558440303362582,1,-1,1,2,3,0,4,3
1558440303362582,0,-1,-3,-2,-4,-4,-4,-6
1558440303376544,-2,-1,-1,-2,-2,1,-2,-2
1558440303376544,0,1,0,2,0,3,2,1
1558440303384552,-3,-1,1,-2,7,4,2,0
1558440303384552,0,1,1,-2,-1,-9,-1,-1
1558440303398488,-2,-3,-2,-2,-2,3,-1,-1
1558440303398488,-1,0,0,-1,-1,1,-2,-2
1558440303406465,-1,-2,-2,-3,-10,-4,-9,-4
1558440303406465,0,-1,-2,-3,-2,2,-1,-1
1558440303421425,2,1,1,0,3,-8,-1,3
1558440303421425,-2,-1,-1,-1,-2,-1,1,0
1558440303422422,0,0,0,0,-4,-2,2,-1
1558440303422422,-4,-4,-6,-6,-3,-3,-7,-3
1558440303436386,-3,-1,-3,-1,-5,-2,-3,-5
1558440303436386,2,0,4,1,8,0,6,4
1558440303444364,-2,-3,-5,-2,0,-9,-1,-2
1558440303444364,-2,0,-1,-1,-2,11,1,0
1558440303458328,-1,-2,-4,-2,-5,-2,-5,-6
1558440303458328,-1,-2,0,-1,-7,-8,-4,-2
1558440303467302,0,-1,-1,0,3,1,-1,-1
1558440303467302,0,0,-1,0,-6,-11,-5,0
1558440303482262,0,-1,-1,-1,1,-1,1,-2
1558440303482262,-2,-4,-3,-1,-4,-6,-7,-3
1558440303482262,-1,0,0,-1,0,4,1,0
1558440303482262,-1,-2,-1,-1,4,5,1,-1
1558440303496225,-1,1,0,-1,-2,-2,-2,-2
1558440303496225,1,-1,-1,-1,3,7,4,0
1558440303504204,1,2,1,-1,-2,-8,-4,0
1558440303504204,-2,0,0,-3,-5,0,-3,-3
1558440303519164,-4,-3,-5,-2,-2,4,0,-3
1558440303519164,-1,1,0,1,6,5,4,1
1558440303527143,1,-1,2,-2,-1,0,1,0
1558440303527143,0,-1,-2,-2,-6,-7,-3,-1
1558440303542103,1,0,2,-1,5,-2,3,1
1558440303542103,-1,-4,-5,-2,-12,-9,-6,-3
1558440303542103,-1,1,0,3,6,4,3,3
1558440303542103,-1,-3,-2,-1,-3,-12,-4,-1
1558440303558066,-2,-3,-3,-2,-2,6,-2,-1
1558440303558066,-4,-4,-4,-2,-3,3,-4,-4
1558440303564044,-1,2,0,1,0,-7,0,0
1558440303564044,-2,0,0,2,5,9,6,0
1558440303579005,0,-3,-1,-3,-6,-3,-3,1
1558440303579005,-2,1,2,0,-2,-6,-2,-1
1558440303586983,-5,-5,-4,-6,-8,3,-8,-7
1558440303586983,0,-4,-4,1,3,1,1,1
1558440303601943,-1,-1,2,3,6,4,4,-1
1558440303601943,4,1,-2,-2,0,-6,-3,2
1558440303602940,0,-1,2,-3,-6,-4,-4,-1
1558440303602940,-1,0,-2,0,0,4,1,-1
1558440303615905,1,-2,-2,-1,-2,-1,1,-1
1558440303615905,-1,-2,-1,-1,-3,-8,-7,-4
1558440303623893,-2,-1,-2,-1,-1,1,3,-2
1558440303623893,0,0,0,1,1,4,3,0
1558440303638844,-3,-1,-3,-3,-9,-8,-10,-2
1558440303638844,0,0,1,1,5,7,6,1
1558440303646823,-1,-1,-2,-2,1,-7,-6,0
1558440303646823,-2,-1,-2,-2,-4,-2,-3,-2
1558440303661781,0,1,-1,0,5,1,1,1
1558440303661781,0,1,-1,-1,-1,-3,0,0
1558440303662779,-2,-1,-1,-2,-4,5,0,-2
1558440303662779,-2,-2,-1,-2,0,2,-1,-1
1558440303675745,0,-1,-2,-3,-5,-4,-4,-2
1558440303675745,1,0,2,3,9,6,8,3
1558440303684720,0,-1,0,1,-3,-4,-3,-1
1558440303684720,-3,0,-4,-4,2,-5,-6,-1
1558440303698685,-2,0,2,0,-10,-8,-5,-1
1558440303698685,-1,-2,-3,-2,-4,1,-2,-2
1558440303706669,-1,-1,-2,-1,0,-2,2,0
1558440303706669,0,0,3,3,2,1,2,1
1558440303721622,-3,-2,-4,-2,3,-2,-1,-1
1558440303721622,-5,1,0,-1,-2,-2,0,-2
1558440303722620,-3,-1,-2,-2,-2,-8,-2,-1
1558440303722620,1,-1,-2,-3,-5,-1,-4,-3
1558440303736583,1,-2,-3,0,4,5,4,1
1558440303736583,0,-2,-1,-2,-3,-8,-5,-4
1558440303744561,-1,-1,-1,0,0,2,0,-1
1558440303744561,-2,-1,0,-1,5,5,4,2
1558440303758526,-1,0,2,0,2,4,-1,-2
1558440303758526,-4,-4,-5,-4,-7,3,-5,-5
1558440303766502,0,-1,-2,-1,4,8,3,-1
1558440303766502,-2,-3,0,-1,0,-9,-4,-2
1558440303781462,0,0,-2,-1,-4,-2,0,-1
1558440303781462,-4,-2,-1,1,4,1,-4,2
1558440303782460,-2,0,1,-1,-1,1,-2,1
1558440303782460,-1,-1,0,-1,-3,-3,1,-1
1558440303796422,-1,-1,-1,0,4,0,-2,-1
1558440303796422,-2,-2,-2,-6,-6,3,0,-4
1558440303804400,0,-1,-2,-1,-7,-1,-3,-2
1558440303804400,-1,0,1,1,4,0,0,0
1558440303818365,0,-1,-3,-2,-7,-4,-4,-1
1558440303818365,-2,-2,-1,-1,-2,-3,-1,-3
1558440303827339,0,-2,-1,0,0,2,1,-1
1558440303827339,0,-2,-1,-2,-5,-9,-1,-1
1558440303842299,-1,-1,1,-1,6,6,3,2
1558440303842299,0,1,2,2,2,-3,0,1
1558440303842299,-3,-3,-4,-1,3,0,-2,-3
1558440303842299,1,-2,-1,-1,-7,1,-5,-1
1558440303856262,-1,-3,-1,-4,-5,-7,-4,-3
1558440303856262,-1,0,-3,-4,-5,-3,-5,-3
1558440303864241,0,2,2,1,10,4,8,5
1558440303864241,-2,-2,-1,0,2,0,0,-3
1558440303879202,-3,1,-1,0,-2,0,1,-1
1558440303879202,-1,0,0,-2,2,-2,-1,4
1558440303887180,-1,-1,-2,0,-9,-4,-7,-4
1558440303887180,-1,-1,-1,-4,-1,0,-5,-3
1558440303901143,-3,-2,-4,-2,-5,-3,0,-1
1558440303901143,-1,-1,-2,-2,1,2,3,-2
1558440303909127,-2,-4,-1,-3,-6,-8,-4,-3
1558440303909127,0,0,-1,1,6,13,7,2
1558440303916102,-1,-1,-3,-4,-5,-9,-5,-1
1558440303916102,-2,-1,-2,1,-2,-3,-4,-1
1558440303924090,0,0,-2,-1,2,4,-1,-3
1558440303924090,-2,0,-2,1,0,-4,0,1
1558440303939045,0,0,-1,-4,-7,-5,-1,0
1558440303939045,-1,-1,-2,0,3,1,2,0
1558440303947018,0,-1,-1,-2,0,-1,0,2
1558440303947018,-1,0,-1,1,-6,-7,-6,-2
1558440303960982,-2,-1,0,1,2,3,0,-1
1558440303960982,-1,-1,0,-1,-4,-4,-2,-2
1558440303968967,0,-2,0,-3,-2,-3,-1,-2
1558440303968967,-1,0,-2,-3,-4,-1,-3,-2
1558440303975943,-2,-2,0,2,7,5,5,2
1558440303975943,2,0,1,-1,2,4,3,2
1558440303983920,-2,-1,-3,-1,1,2,1,-1
1558440303983920,0,0,-2,-2,-3,-5,-3,-1
1558440303998887,0,-2,-1,0,-5,-4,-2,-5
1558440303998887,-2,-1,-3,-2,4,0,2,1
1558440304006862,-2,-1,-1,-3,-2,-2,-2,2
1558440304006862,-2,-1,-1,-4,-7,-1,-7,-2
1558440304020822,-2,0,3,3,6,9,0,0
1558440304020822,-2,-2,-1,1,-1,-2,-4,-3
1558440304029798,0,1,-1,1,2,2,0,-1
1558440304029798,0,0,0,-4,3,6,6,3
1558440304035782,-2,-2,-3,-2,-5,-8,-4,-2
1558440304035782,0,-1,-1,-1,-2,0,0,-1
1558440304043761,-2,-2,1,1,-2,-6,-4,-2
1558440304043761,-1,-3,1,-2,-2,-3,1,-2
1558440304067699,-1,-1,-2,-1,0,9,3,0
1558440304067699,-3,-4,-4,-3,-6,-1,-6,-3
1558440304068695,-1,-3,-1,-3,-1,-3,-2,-1
1558440304068695,0,-1,1,2,4,4,3,0
1558440304081659,-2,-3,1,-2,1,1,-3,-1
1558440304081659,0,1,-1,0,-5,-2,2,-2
1558440304089639,-1,1,-1,-1,-2,-3,-1,-1
1558440304089639,1,1,-2,-2,-1,0,-5,-2
1558440304104597,-2,-2,-2,-2,-3,-1,-6,-1
1558440304104597,-2,-2,0,1,5,-8,-2,-1
1558440304104597,0,-1,2,0,5,6,5,2
1558440304104597,-1,-4,-4,-2,-5,-4,-1,-2
1558440304118560,3,0,-1,-2,-5,-1,2,0
1558440304118560,-3,-1,-1,-3,-8,-4,-8,-4
1558440304126540,-2,-2,-1,-1,-2,3,0,-1
1558440304126540,-1,-1,1,1,2,3,0,-1
1558440304141510,-1,-2,-1,-4,-2,-17,-7,0
1558440304141510,2,0,1,-2,3,8,5,0
1558440304149482,0,-1,-4,-2,-8,-4,-4,-4
1558440304149482,-1,-1,-2,-1,-5,-12,-2,1
1558440304164437,0,1,1,2,7,9,5,1
1558440304164437,1,-1,-1,0,1,-1,-4,0
1558440304165436,0,0,-1,-3,1,2,-2,-1
1558440304165436,-5,-2,0,1,-8,-2,-3,-3
1558440304178400,0,-2,-3,-1,4,-5,0,3
1558440304178400,-1,0,2,5,10,7,7,3
1558440304187376,-2,-3,-2,-5,-8,-2,-2,-2
1558440304187376,-2,-2,-4,-4,-2,-3,-4,-5
1558440304201340,-2,-1,-1,-3,-8,-5,-5,-3
1558440304201340,1,1,1,-1,2,-4,2,1
1558440304209318,-2,-1,-1,0,0,1,-3,-2
1558440304209318,-1,-2,0,1,0,4,2,1
1558440304224278,-1,0,2,0,-1,-4,3,-1
1558440304224278,-1,-5,-5,-4,-6,-10,-8,-4
1558440304225274,0,0,1,-1,-2,-3,-1,1
1558440304225274,-3,-3,-2,-1,-5,-3,-4,-2
1558440304239238,-1,0,2,1,2,10,4,0
1558440304239238,0,1,0,-1,3,5,0,-1
1558440304247216,-5,-4,-4,1,0,-1,0,-2
1558440304247216,2,1,0,-2,0,-1,-2,-2
1558440304261180,-2,-1,-3,-2,-2,-5,-3,1
1558440304261180,-2,-2,-1,-2,-3,-1,0,-1
1558440304269159,-2,-1,-1,1,-2,-6,-6,-3
1558440304269159,1,1,1,0,4,6,4,1
1558440304284118,0,-2,-1,-1,-2,-6,-1,-1
1558440304284118,0,1,-1,-2,-4,-1,-1,-1
1558440304285116,-2,-1,0,-1,-4,-7,-3,-2
1558440304285116,0,-3,-1,-1,1,-5,-3,0
1558440304299082,1,-1,0,1,0,-3,-2,1
1558440304299082,-3,-3,-3,-3,-9,-2,-6,-3
1558440304307061,-2,0,-1,0,2,7,5,1
1558440304307061,0,0,0,2,11,0,5,4
1558440304321026,-2,-3,-2,-1,2,6,-1,-1
1558440304321026,-2,-3,-1,-1,-2,-2,-1,-2
1558440304328998,2,0,1,-4,-8,-10,-3,-1
1558440304328998,-2,-1,-1,0,-2,-1,-1,-3
1558440304343959,-1,-2,-3,-1,-5,2,-2,-3
1558440304343959,-2,-3,-1,-1,-2,0,1,2
1558440304344955,1,0,-1,3,13,0,4,2
1558440304344955,-1,-1,-1,-2,-3,2,-3,-3
1558440304358917,0,-1,-3,-2,-4,-5,-5,-2
1558440304358917,-2,-2,-1,1,-5,-10,-4,-3
1558440304366897,-2,-1,-1,0,0,10,0,0
1558440304366897,0,0,-1,-3,-7,-10,-6,-2
1558440304380860,-1,1,2,1,5,-5,3,0
1558440304380860,-2,-2,0,-3,-2,0,0,-1
1558440304389836,-2,-2,0,-1,-4,-9,-4,-3
1558440304389836,-1,-1,-4,-1,-1,5,5,-1
1558440304404794,0,0,1,0,3,0,0,-1
1558440304404794,1,-1,-3,-1,2,3,-1,-1
1558440304404794,0,-3,-1,-3,-5,-3,-5,-3
1558440304404794,-2,-2,-2,-2,-7,-9,-5,-4
1558440304427734,-3,-1,-1,0,-5,-5,1,2
1558440304427734,-2,1,-2,-2,7,6,4,0
1558440304427734,0,-3,-2,-1,-1,-1,-2,0
1558440304427734,0,-4,-4,-5,-6,1,-3,-2
1558440304441696,-2,-2,-2,-3,-4,-4,-4,-3
1558440304441696,2,1,1,-1,-4,1,2,2
1558440304449674,-1,-3,-4,-1,2,4,1,-2
1558440304449674,-1,3,4,1,5,-2,1,5
1558440304464636,-2,-1,-3,-3,-1,2,-1,-4
1558440304464636,-1,-1,-2,-2,-6,-6,-5,-2
1558440304464636,1,-1,0,0,11,0,5,0
1558440304464636,0,-1,2,1,0,-1,2,1
1558440304478597,1,-1,0,1,6,13,3,-3
1558440304478597,-1,-1,-2,-2,-12,-17,-6,-1
1558440304486577,-2,-2,-1,-2,-1,-1,-2,0
1558440304486577,-2,-1,-2,-3,-5,0,-5,-2
1558440304501535,0,-1,-1,1,1,4,0,-1
1558440304501535,2,0,2,0,6,7,4,2
1558440304509515,-1,0,-2,-3,-5,-1,-3,-5
1558440304509515,-2,-3,-2,2,2,-4,2,-1
1558440304524483,-2,-2,-2,-2,-2,-7,-4,-1
1558440304524483,-1,0,0,0,-2,-7,-4,-2
1558440304525472,-2,0,0,2,3,0,3,1
1558440304525472,-5,-3,-2,-2,-5,1,-5,-2
1558440304538437,-3,-4,-4,-3,-3,-6,-6,-2
1558440304538437,0,0,-1,3,17,19,9,3
1558440304546416,-1,-2,0,-1,-5,0,-6,-2
1558440304546416,-1,-1,1,-1,-1,-2,0,-1
1558440304561377,0,0,-1,-2,-4,-8,-3,-1
1558440304561377,-2,-1,-2,-1,-4,-10,-6,-4
1558440304569355,0,-1,0,-1,3,14,7,1
1558440304569355,-3,2,-1,-1,2,4,2,-2
1558440304584316,1,1,3,4,2,2,2,3
1558440304584316,-2,-2,-3,-6,-4,-4,-5,-3
1558440304585312,1,-2,1,0,1,4,1,0
1558440304585312,0,-1,0,1,3,-6,-1,-1
1558440304598279,0,0,0,-2,-5,-3,2,3
1558440304598279,-3,0,-1,2,1,10,4,-5
1558440304607264,-4,-2,-3,-2,-8,-8,-10,-5
1558440304607264,-1,-1,-3,-2,-3,3,1,-1
1558440304621216,0,3,2,1,8,6,-2,0
1558440304621216,-1,-4,-2,-6,-10,-4,-2,-2
1558440304629195,0,0,-2,1,1,0,2,1
1558440304629195,2,-1,-1,-2,2,-2,-4,0
1558440304644162,-2,-2,0,-1,1,3,5,-2
1558440304644162,-3,-3,0,0,-4,-8,-3,-3
1558440304645153,-2,-1,-1,-7,-7,-2,-6,-4
1558440304645153,0,-2,-3,-1,-2,-2,-3,-2
1558440304667093,1,0,2,2,5,-3,5,1
1558440304667093,-1,-2,-1,-2,-1,0,-2,-1
1558440304668090,1,-1,-2,-2,-3,-8,-1,-1
1558440304668090,-1,-2,-1,0,1,4,-3,-1
1558440304681056,-2,-2,-5,-3,-3,2,-1,-2
1558440304681056,1,0,2,2,1,-5,2,-1
1558440304689035,0,-1,-1,0,-3,-5,0,-1
1558440304689035,0,0,-4,-5,-5,-3,-1,-1
1558440304712971,-4,-4,-4,1,0,3,-1,-1
1558440304712971,0,-1,-1,-2,-4,-4,-2,0
1558440304712971,-1,-1,-3,4,5,-1,-1,0
1558440304712971,0,0,1,-2,-2,-5,1,0
1558440304718954,0,0,-1,-5,-13,-6,-6,-3
1558440304718954,-2,-2,0,0,12,19,8,3
1558440304726934,-1,0,0,0,-1,5,0,-1
1558440304726934,1,-1,2,3,0,-15,1,0
1558440304743163,1,0,-1,0,2,-2,-3,-1
1558440304743163,-1,-2,-2,-4,-6,-10,-9,-3
1558440304749871,-3,-2,-2,-1,-5,-5,-2,-3
1558440304749871,-4,-2,-3,-1,2,13,2,-1
1558440304764831,0,-1,-3,-3,-7,-5,-3,-2
1558440304764831,1,1,0,2,4,-2,4,3
1558440304764831,1,-1,-2,-3,3,3,1,1
1558440304764831,-2,-2,-1,-5,-6,-3,-5,-3
1558440304778794,-2,-1,1,0,0,-1,-4,-2
1558440304778794,-2,-2,-6,-7,-5,-4,-6,-4
1558440304786775,-1,1,4,4,4,2,4,4
1558440304786775,-1,1,1,2,1,2,2,-1
1558440304800736,-1,0,1,0,5,3,1,1
1558440304800736,0,0,2,-4,-7,-9,0,0
1558440304809712,0,-1,-3,-4,-5,-5,-6,-4
1558440304809712,-2,-1,0,-1,2,2,-1,0
1558440304824673,-1,0,-3,-3,-1,-9,-1,3
1558440304824673,0,0,-3,0,-2,4,-3,-4
1558440304824673,-3,-2,-1,0,-3,-2,-1,-2
1558440304824673,-1,-3,-1,-3,-2,6,-3,-4
1558440304838635,-2,-2,-3,-3,-4,-2,-4,-4
1558440304838635,0,1,0,4,2,2,6,3
1558440304846613,-3,-2,-4,-5,-4,-7,-7,-5
1558440304846613,0,2,1,1,6,0,2,2
1558440304861572,2,-1,0,-1,-2,-3,-2,-2
1558440304861572,-2,0,-3,-1,-2,4,-1,-1
1558440304869551,0,1,0,-1,-2,-6,-1,-1
1558440304869551,1,0,-1,-3,-5,-9,-2,-1
1558440304883514,0,1,-2,-1,-1,0,3,0
1558440304883514,-2,-3,-1,0,1,0,-6,-4
