timestamp,emg1,emg2,emg3,emg4,emg5,emg6,emg7,emg8
1558440341746919,-1,-1,-1,-3,3,-2,-4,-1
1558440341746919,-2,1,1,3,-7,-3,-7,-6
1558440341747917,-1,0,1,-1,-3,2,-2,0
1558440341747917,-2,-1,-2,-5,-8,-2,-2,-1
1558440341748914,-3,-2,-4,-3,1,-2,-1,-2
1558440341748914,1,0,-3,-1,-1,-8,-2,1
1558440341748914,-1,1,-1,-1,3,-5,-1,0
1558440341748914,-3,-2,1,-1,-2,1,-2,-3
1558440341760882,0,-3,-7,-5,-10,-8,-2,-3
1558440341760882,-1,-2,5,7,5,2,1,-1
1558440341768861,1,1,-2,-1,1,5,0,0
1558440341768861,-2,-2,-10,-3,-7,-7,-6,-3
1558440341775842,0,2,6,5,10,12,12,5
1558440341775842,-2,-2,0,-3,0,2,0,0
1558440341789804,-1,-3,-2,-4,-8,-9,-4,-4
1558440341789804,-2,0,-1,2,3,0,-3,-3
1558440341799778,1,-1,1,-1,-2,-2,-4,-3
1558440341799778,0,3,-4,-4,0,2,2,2
1558440341804767,-2,-2,-6,-1,-3,-1,-2,-1
1558440341804767,6,1,4,1,6,6,7,4
1558440341820723,-7,-3,-6,-1,-6,-1,-4,-5
1558440341820723,0,-1,0,-2,-3,-4,-1,-2
1558440341828700,-3,-1,2,1,2,-3,-2,-1
1558440341828700,-3,-3,-1,-2,-6,-2,-4,-3
1558440341867597,3,0,2,1,3,1,4,3
1558440341867597,0,-1,-4,3,6,3,4,1
1558440341868594,-2,-1,0,-2,-1,1,0,-1
1558440341868594,1,1,3,3,8,3,4,1
1558440341872583,4,-4,-8,-3,-7,-2,-4,-3
1558440341872583,-9,-4,-2,-3,-7,-7,-5,-4
1558440341873581,-3,-2,-5,-5,-1,-1,-4,-3
1558440341873581,-3,-1,0,1,-7,-10,-6,-3
1558440341881560,-1,1,-2,0,6,6,2,2
1558440341881560,2,-1,-2,-2,2,5,2,-1
1558440341887542,-1,-1,0,1,0,-1,-1,2
1558440341887542,-1,0,0,-2,-3,0,0,0
1558440341896519,0,-3,0,-1,-2,-4,-2,0
1558440341896519,0,-2,1,-2,-2,-4,-5,-1
1558440341909493,0,0,0,2,-4,4,-1,-2
1558440341909493,0,-2,-8,-5,-3,-6,-1,0
1558440341918461,-1,-1,5,-2,2,1,1,0
1558440341918461,1,0,-2,2,4,-3,-2,-1
1558440341925443,0,-3,-3,-6,-2,-2,1,-1
1558440341925443,-2,-3,-6,-4,-1,-3,-4,-1
1558440341941399,-2,-2,0,1,-2,-4,-2,-2
1558440341941399,0,2,3,0,-3,1,-2,0
1558440341947384,-1,-2,-4,-3,-6,-4,-3,-3
1558440341947384,1,0,2,1,0,-3,0,1
1558440341956360,-2,1,-1,0,2,0,2,-1
1558440341956360,-1,-1,-2,-1,-4,-4,-3,3
1558440341970322,-2,-1,-4,-1,-3,-6,-3,-7
1558440341970322,-1,-2,-1,1,3,6,3,1
1558440341979300,-1,-2,1,-1,2,0,-1,-3
1558440341979300,0,-1,-1,-2,-3,2,-1,-2
1558440341985283,-3,0,-1,-1,-3,-3,-5,-1
1558440341985283,-3,-1,0,-2,-2,0,-3,-2
1558440342001239,-1,-2,-5,-1,-1,2,0,0
1558440342001239,0,0,1,-1,3,-5,2,2
1558440342007224,0,0,-2,3,-2,0,-2,0
1558440342007224,-3,0,2,0,0,0,3,-3
1558440342022183,-2,3,7,1,-3,-4,-3,0
1558440342022183,-2,-5,-14,-7,-3,3,-2,-3
1558440342030162,0,1,5,4,5,0,1,0
1558440342030162,-2,-1,-5,-4,-6,-2,-5,-3
1558440342039138,-2,-1,-3,-2,-1,7,0,0
1558440342039138,0,0,4,-1,-5,-8,-3,-1
1558440342045123,1,-1,1,-2,6,-2,1,2
1558440342045123,3,0,4,3,9,6,9,4
1558440342069059,-4,-2,-10,-6,-8,-8,-4,-3
1558440342069059,-1,-2,3,0,-2,-8,-5,-1
1558440342070056,-5,0,-2,0,-2,1,-1,-2
1558440342070056,0,0,-1,-4,-1,-2,-2,1
1558440342082024,0,-1,-1,1,2,0,2,4
1558440342082024,-1,1,0,0,-4,0,-2,-6
1558440342090004,1,-4,-3,-2,1,0,-1,-1
1558440342090004,-2,1,1,1,-1,2,-3,-2
1558440342098978,0,0,-3,-6,-4,0,-1,-1
1558440342098978,1,-1,-2,-2,0,-5,3,4
1558440342104962,0,-2,0,-1,0,0,-2,0
1558440342104962,-1,-1,1,0,-7,-6,-5,-3
1558440342120919,-4,-3,-5,-2,-1,-1,-6,-4
1558440342120919,-2,0,5,2,1,6,3,0
1558440342126903,-2,0,-3,-4,-1,2,2,1
1558440342126903,-2,-2,-1,-2,-7,-11,-6,1
1558440342143858,0,-2,1,0,1,-2,1,-1
1558440342143858,0,0,1,1,5,-2,-2,0
1558440342149842,-1,-1,2,-1,-2,1,-1,2
1558440342149842,-1,-2,-8,-3,-2,-2,-2,-3
1558440342158819,-1,0,-1,-3,-7,1,-2,-5
1558440342158819,1,-1,-4,-1,5,3,5,0
1558440342172780,1,-1,1,1,3,3,1,-2
1558440342172780,-1,-3,-2,1,-3,-3,-3,-2
1558440342181757,-4,-3,1,-1,-4,-5,-5,-4
1558440342181757,-1,-1,0,-2,0,1,1,0
1558440342187740,-2,0,2,0,-4,-5,-2,-3
1558440342187740,-1,-1,-2,-1,3,8,3,0
1558440342203698,0,0,1,2,6,4,3,1
1558440342203698,-2,-3,-3,-1,-1,3,-4,-3
1558440342209681,-1,-1,2,0,-6,-3,-5,-2
1558440342209681,1,2,0,-6,-8,-9,-4,0
1558440342218658,-3,-1,-6,1,4,3,0,-2
1558440342218658,1,1,2,0,0,1,1,1
1558440342232620,-2,-3,-6,0,5,-3,0,-2
1558440342232620,-3,-2,-1,-4,0,2,-2,-2
1558440342241609,2,1,3,2,-1,4,3,1
1558440342241609,0,-1,3,0,3,-1,-1,-1
1558440342247581,0,0,-5,-1,-5,-2,-2,1
1558440342247581,-2,-1,-2,-2,0,1,-2,-2
1558440342263538,-2,0,1,0,5,-3,2,4
1558440342263538,-1,-2,-3,-2,-5,1,-5,-6
1558440342269524,0,-1,-3,-5,-4,4,4,-1
1558440342269524,-1,-1,-4,-3,-4,-9,-2,-1
1558440342278499,0,1,1,1,2,-11,-3,1
1558440342278499,-3,0,-1,-3,-7,-3,-3,-1
1558440342292462,-2,-5,-8,-6,-1,0,-4,-4
1558440342292462,0,-2,0,1,6,3,0,1
1558440342301438,-2,1,1,-6,-9,-5,-2,-3
1558440342301438,-3,-3,-5,-4,-10,-6,-7,-6
1558440342307422,1,1,3,1,10,12,8,1
1558440342307422,-1,0,-1,0,1,0,-1,-1
1558440342323378,2,0,1,0,0,-6,-2,1
1558440342323378,1,0,-2,-3,1,2,4,1
1558440342330361,-2,-2,-3,-1,-3,1,-4,-1
1558440342330361,-2,-1,0,1,-1,6,6,0
1558440342338339,0,-2,1,-1,-3,-4,-5,-2
1558440342338339,1,1,0,0,-1,0,-4,2
1558440342352301,-1,-1,4,2,3,-12,-1,-3
1558440342352301,-1,0,-1,-2,-3,2,-1,-1
1558440342361276,-3,-2,-3,-5,-7,5,-6,-7
1558440342361276,-3,-4,-10,-3,-7,-1,-2,-1
1558440342367262,0,0,1,-1,2,-6,0,3
1558440342367262,0,-1,3,1,-2,3,0,-3
1558440342384216,0,-2,-1,-2,2,3,0,-4
1558440342384216,1,1,3,2,3,-11,0,2
1558440342390213,2,2,0,-3,-3,3,1,1
1558440342390213,-2,-3,3,0,0,-3,0,-1
1558440342399176,-2,-1,-9,-2,7,11,2,0
1558440342399176,-6,-3,-2,-1,-3,1,-4,-3
1558440342412140,0,2,5,1,-9,-11,-2,-1
1558440342412140,-1,-3,-10,-1,1,-1,-2,0
1558440342421117,0,-1,5,0,-4,-8,-1,2
1558440342421117,-2,-3,-3,-1,-3,2,-3,-3
1558440342427100,-3,-1,2,3,0,3,-2,-4
1558440342427100,0,1,-1,-6,-2,1,3,1
1558440342444055,-4,-2,-1,1,-1,-6,-2,-1
1558440342444055,0,-1,-6,-5,-4,-2,3,0
1558440342450039,-1,-1,0,0,8,5,5,1
1558440342450039,3,1,6,3,6,4,5,3
1558440342459016,-2,-2,-3,-1,-4,-1,-6,-4
1558440342459016,-1,-2,2,-2,-7,-4,-7,-5
1558440342471980,0,-1,-6,-1,0,4,0,-1
1558440342471980,-2,-2,-3,-1,2,-2,0,3
1558440342480957,1,2,3,1,5,2,5,-1
1558440342480957,-5,-1,0,-1,-4,-10,-5,-1
1558440342486940,-1,-2,-10,-4,-4,1,-1,-2
1558440342486940,-1,-1,0,0,-1,-2,-3,-2
1558440342503895,0,-1,-1,-6,-11,-6,-2,0
1558440342503895,-1,0,1,1,5,-5,2,1
1558440342509878,1,1,2,-1,2,8,3,4
1558440342509878,-4,-3,-1,-1,-6,0,-5,-2
1558440342518855,-3,-1,1,1,-1,-1,-2,-2
1558440342518855,-1,-1,-6,-5,-3,2,1,-1
1558440342532818,-1,0,1,-4,-4,-3,-1,0
1558440342532818,0,-1,0,2,-2,-3,-3,-4
1558440342540796,0,-2,-3,0,1,-1,-2,1
1558440342540796,0,-2,-1,0,7,8,2,0
1558440342547777,-2,-4,-7,-2,-1,-4,-3,-4
1558440342547777,-2,1,1,-2,-3,-9,-2,-1
1558440342563735,-1,-2,-2,0,5,-2,3,0
1558440342563735,3,1,6,5,8,11,10,4
1558440342569721,-1,-2,-2,-5,-5,-8,-4,-2
1558440342569721,0,-1,-2,-2,-5,-2,-2,-2
1558440342578695,-1,-2,-8,-2,1,4,3,1
1558440342578695,-2,-1,-1,-6,-8,-4,-6,-3
1558440342592658,-1,0,6,4,0,-4,-2,1
1558440342592658,0,0,-1,-1,-2,0,-6,-2
1558440342601633,0,-1,0,-2,-3,-6,-3,0
1558440342601633,0,1,-1,2,2,-1,2,0
1558440342607616,-3,2,4,1,-3,-2,-3,-2
1558440342607616,-1,0,-2,-1,2,2,1,1
1558440342623575,-1,-1,0,-2,-1,3,-3,-1
1558440342623575,1,0,4,1,-2,-9,-1,1
1558440342629558,-2,-2,-3,-3,-2,-1,1,-1
1558440342629558,-3,-3,-5,-4,-2,3,0,-3
1558440342638534,-3,-2,0,-1,-7,-1,-1,-1
1558440342638534,0,0,3,-1,1,0,-1,-1
1558440342652500,0,-1,0,2,0,-6,-6,-3
1558440342652500,0,-2,-1,-1,5,4,4,-1
1558440342661475,-1,-2,-3,-4,-1,0,1,-2
1558440342661475,-4,-2,0,-1,-2,2,-2,-1
1558440342667465,-1,0,-1,-3,-5,-2,-4,-1
1558440342667465,0,-1,0,-2,-3,-5,-3,-1
1558440342683415,1,-1,3,1,1,-9,-5,1
1558440342683415,3,0,1,2,8,9,7,3
1558440342690395,-3,-3,-7,-6,-9,-7,-4,-5
1558440342690395,-3,-1,0,1,2,5,1,-1
1558440342698379,0,4,7,6,14,13,9,2
1558440342698379,-2,-3,-4,-4,-2,-7,-2,-1
1558440342712344,0,-1,-2,-4,-7,-8,-4,-2
1558440342712344,-2,-2,2,0,-6,-2,-5,-2
1558440342721314,-3,0,-6,-3,0,3,-2,0
1558440342721314,3,0,-1,1,4,4,1,3
1558440342727298,0,0,0,1,5,3,0,-2
1558440342727298,-2,-1,-1,-1,-4,-7,-2,-3
1558440342744252,-2,-2,-1,0,-3,-5,-2,-2
1558440342744252,-2,-2,-4,-2,-3,3,-2,-4
1558440342750240,-3,-3,1,-4,-1,3,-2,-2
1558440342750240,-1,-1,-6,-1,-2,-4,-2,0
1558440342759213,-1,-1,4,0,-4,-1,-2,-1
1558440342759213,-3,0,-3,-1,0,1,-1,-3
1558440342772189,-2,-1,-5,3,5,0,-3,1
1558440342772189,1,-1,1,1,5,-2,3,0
1558440342781155,-1,-3,-3,-3,-5,-7,-3,-2
1558440342781155,-2,-2,-6,-2,-9,-10,-4,-4
1558440342787139,0,0,5,4,10,8,4,1
1558440342787139,1,2,0,-2,-2,5,-2,1
1558440342804094,-2,-2,0,-2,-3,1,-1,-4
1558440342804094,0,-2,-4,-2,-4,-5,-1,-4
1558440342810077,1,0,1,-2,-3,-6,0,-1
1558440342810077,0,-1,6,3,8,11,7,3
1558440342819053,0,-1,-5,-2,-4,-3,-6,-3
1558440342819053,-2,-3,3,1,5,-7,-3,0
1558440342832078,0,0,-4,-3,4,-1,6,2
1558440342832078,0,-2,-1,0,-6,-9,-4,-3
1558440342841038,0,2,4,3,-2,4,-1,0
1558440342841038,-1,-1,-5,-1,-5,2,-8,-1
1558440342855003,-3,-4,-4,-5,-9,-8,-5,-1
1558440342855003,-1,-1,1,1,8,2,3,2
1558440342863934,0,-1,-5,-3,-3,0,2,-1
1558440342863934,-5,-1,0,1,-3,1,-4,-5
1558440342878902,1,1,8,4,1,9,4,1
1558440342878902,-1,-1,-14,-7,-9,-10,-6,-2
1558440342879890,0,-3,-2,-3,-2,-8,-2,-3
1558440342879890,-1,2,3,1,0,-1,2,0
1558440342892855,-1,-2,-3,-1,-2,-2,-2,1
1558440342892855,-1,0,1,2,2,4,1,-1
1558440342901833,-3,0,0,-1,-1,-1,-1,-1
1558440342901833,-1,-2,0,0,0,1,-1,-1
1558440342914862,0,-1,-1,-1,2,-1,-1,-2
1558440342914862,0,0,0,-4,-4,-4,0,0
1558440342931753,-1,-2,-5,1,4,-1,0,-2
1558440342931753,-3,-1,1,-1,-2,0,1,2
1558440342938863,-2,0,-1,0,-3,0,-3,-3
1558440342938863,-1,0,-3,-3,-6,-4,-5,-4
1558440342940727,-1,-3,0,0,-2,-1,-4,-1
1558440342940727,-1,-3,-1,-2,0,-2,0,0
1558440342952698,1,0,-1,-1,2,7,6,5
1558440342952698,-1,1,6,4,2,1,1,-3
1558440342961676,-3,-1,-7,-4,-3,-5,-3,-2
1558440342961676,1,0,1,0,7,7,3,1
1558440342974869,-1,-3,-2,1,-2,-7,-2,1
1558440342974869,0,-2,-7,-7,-5,-3,5,3
1558440342983831,-1,-1,2,-1,-7,-2,-6,-1
1558440342983831,0,-3,-9,-6,-6,-10,-8,-6
1558440342998805,2,0,1,5,10,12,10,2
1558440342998805,-1,-2,-1,0,1,0,-1,-3
1558440343000569,1,-1,4,4,0,2,1,1
1558440343000569,-1,-1,-5,-5,-5,0,-1,-2
1558440343012567,-2,-2,-1,-1,-4,0,-3,-4
1558440343012567,0,-2,-2,-1,0,-4,-2,1
1558440343021512,-2,0,-1,-3,0,2,1,1
1558440343021512,0,0,5,3,-1,1,-2,-2
1558440343034723,-1,0,1,-1,2,-1,0,2
1558440343034723,-2,-2,-1,-4,-5,-13,-5,-4
1558440343043494,-1,0,1,-3,3,7,1,-1
1558440343043494,0,0,-1,2,-1,-2,0,2
1558440343059448,-4,-3,-7,-8,-13,-10,-9,-7
1558440343059448,-2,-4,-1,0,1,-3,-1,0
1558440343060409,1,1,1,0,0,-2,-2,-2
1558440343060409,2,2,0,1,8,3,6,3
1558440343072568,0,2,1,0,-2,2,1,-2
1558440343072568,-4,-3,-3,-3,-12,-5,-12,-5
1558440343081350,0,1,1,0,5,1,6,2
1558440343081350,0,0,7,4,-1,-2,0,0
1558440343095325,2,-2,-8,-4,5,-7,-4,2
1558440343095325,0,-1,-4,-6,0,8,3,-2
1558440343104306,-1,-2,-8,-2,-5,-1,0,-1
1558440343104306,1,1,6,0,2,-5,3,1
1558440343119249,-2,-1,1,-2,-10,-6,-7,-4
1558440343119249,0,0,-1,1,2,6,8,2
1558440343120248,-1,-2,0,-1,-1,-4,0,0
1558440343120248,-2,-3,-2,-2,-4,-12,-9,-3
1558440343132215,-1,-1,-1,-3,-7,-2,-1,-4
1558440343132215,-3,-1,0,1,1,9,-3,0
1558440343141192,-3,-3,-1,0,-12,-8,-6,-2
1558440343141192,2,0,-7,-1,14,3,8,4
1558440343155619,-1,-1,-1,-1,3,6,2,0
1558440343155619,0,0,1,0,-6,-10,-5,-2
1558440343164131,-2,-3,-1,-1,2,-3,-1,-2
1558440343164131,0,1,2,3,5,10,4,1
1558440343179555,-1,1,2,-3,-5,-2,0,-1
1558440343179555,-1,0,-2,0,-3,-4,-1,0
1558440343181226,-2,-2,0,-3,-5,-9,-8,-5
1558440343181226,-3,-2,-9,-4,-4,1,-3,-2
1558440343193276,-3,-2,-4,-2,-2,-1,1,-3
1558440343193276,1,0,4,0,-2,-4,-2,-2
1558440343201481,1,1,0,2,6,12,8,3
1558440343201481,-3,-3,-1,-2,1,3,-1,-2
1558440343214992,-1,2,5,2,1,-2,0,2
1558440343214992,-3,-3,-2,0,-2,-2,-4,-3
1558440343223969,1,1,-2,-1,9,2,10,6
1558440343223969,-4,-2,-2,-3,-10,-6,-7,-5
1558440343238927,-4,-1,-2,-3,-6,-1,-6,-4
1558440343238927,0,-1,0,2,2,6,3,1
1558440343239925,0,0,8,1,-2,-5,-5,-6
1558440343239925,-2,-3,-16,-7,-2,-3,1,1
1558440343252892,-1,-3,-2,-3,-7,-5,-4,-4
1558440343252892,2,1,2,1,7,6,4,3
1558440343260871,-1,-3,-1,-2,-4,-6,-5,1
1558440343260871,-1,2,5,-1,-3,0,-4,-1
1558440343275187,-1,-2,1,2,0,2,1,0
1558440343275187,-2,1,-4,-2,4,-10,-3,-3
1558440343283855,0,-1,-2,-7,-10,-5,-4,-4
1558440343283855,-1,-3,3,-2,-4,-5,-1,-1
1558440343299012,-1,-2,-9,-1,8,8,2,-1
1558440343299012,0,1,2,-1,1,8,-2,-1
1558440343300895,0,-2,-5,0,-6,0,-5,-3
1558440343300895,-3,-1,2,1,-3,-2,-1,-1
1558440343312734,0,-2,0,-2,-3,-1,0,0
1558440343312734,-2,-4,-1,1,0,-1,-3,-2
1558440343321138,-1,3,3,3,10,0,5,5
1558440343321138,-1,-4,-3,-1,-1,6,0,1
1558440343334898,0,-2,0,-1,-8,-14,-9,-5
1558440343334898,-3,0,-2,-3,-6,-5,-3,-1
1558440343343874,-1,-1,-4,1,4,-1,7,3
1558440343343874,0,0,-2,-3,-4,1,0,-3
1558440343358852,-1,-4,0,-1,-3,1,-3,-3
1558440343358852,-1,-3,3,0,-4,0,-3,-4
1558440343359832,0,3,2,-4,1,5,7,1
1558440343359832,1,0,2,1,-2,-13,-8,0
1558440343372831,-2,-1,-6,-2,6,7,3,2
1558440343372831,-1,-1,-4,-2,-6,0,-1,0
1558440343381773,1,-3,0,-1,4,1,0,-1
1558440343381773,0,-1,-1,-1,-5,-1,-6,-6
1558440343394772,2,2,3,1,4,-7,3,3
1558440343394772,0,-2,1,1,3,0,4,1
1558440343403714,-2,-1,-2,-1,-6,-3,-6,-1
1558440343403714,-1,0,-2,-2,-2,5,-2,0
1558440343417734,-1,0,-1,1,-1,0,0,1
1558440343417734,0,0,1,0,2,2,1,0
1558440343424657,-2,0,1,-2,-3,-1,-3,0
1558440343424657,-4,-3,-9,-2,-1,1,1,-2
1558440343432637,-1,-1,1,-1,1,4,1,-1
1558440343432637,0,0,-3,-2,1,-8,1,1
1558440343441611,-1,-2,-3,-1,-8,5,-3,-4
1558440343441611,-4,0,2,2,0,-5,0,0
1558440343454616,2,1,2,0,11,5,4,4
1558440343454616,-1,-1,-1,-4,-8,-6,-5,-1
1558440343463552,-3,-6,-6,-3,-8,-4,-6,-4
1558440343463552,0,-2,0,-2,-3,-5,-3,-5
1558440343478512,0,-1,-4,1,-2,-7,0,0
1558440343478512,0,-1,0,-2,-4,-3,-6,-3
1558440343484498,-1,0,1,-1,6,8,1,2
1558440343484498,-1,-2,-5,-2,4,9,3,0
1558440343492508,0,-3,4,1,-1,0,3,1
1558440343492508,2,0,-1,1,7,4,2,2
1558440343501451,0,0,-1,0,-6,-6,-3,-3
1558440343501451,3,1,5,5,6,2,3,3
1558440343514417,-3,-2,-2,-3,-7,-9,-8,-5
1558440343514417,-2,-1,2,0,-3,3,0,-2
1558440343523393,-1,-1,-3,-3,-1,0,0,-3
1558440343523393,1,1,-5,-3,-1,-8,1,1
1558440343538353,0,-2,0,1,4,7,2,0
1558440343538353,-3,-3,-4,-2,-1,-4,-6,-2
1558440343545334,-3,-4,-3,-2,-5,-1,-6,-5
1558440343545334,3,1,5,-3,-3,-7,-3,0
1558440343561291,0,0,0,2,8,0,4,2
1558440343561291,-2,-1,-2,-3,0,6,-1,-3
1558440343562291,0,2,1,2,-1,-11,-1,1
1558440343562291,1,0,3,2,11,0,5,4
1558440343575291,-4,-4,-6,-11,-18,-7,-5,-3
1558440343575291,0,-2,3,1,-1,1,0,-3
1558440343584230,-2,-2,-4,-3,-2,-3,-1,1
1558440343584230,-3,-2,0,-2,-6,0,-7,-6
1558440343598194,-1,2,0,0,1,-4,-1,0
1558440343598194,-1,2,-3,-2,3,-1,-1,1
1558440343605174,0,-2,-4,-5,-3,-1,-4,-4
1558440343605174,-1,-1,-1,-2,-2,3,-1,-1
1558440343621132,1,1,3,2,-4,0,-5,-3
1558440343621132,-2,-3,-3,0,-3,-1,4,1
1558440343623126,-1,-1,-3,0,1,-9,2,1
1558440343623126,-4,0,-4,-5,-14,-14,-4,-2
1558440343635095,-3,-2,-5,0,2,6,0,-2
1558440343635095,-1,0,2,2,2,4,3,0
1558440343644071,3,-1,0,1,7,10,4,3
1558440343644071,-1,-4,-1,0,-1,3,0,-2
1558440343658033,-2,-2,0,-2,-7,-9,-6,-2
1558440343658033,0,0,-3,-3,-3,-3,-4,-1
1558440343665013,1,-1,-1,1,5,4,2,1
1558440343665013,-1,-1,3,-2,0,1,2,0
1558440343680972,-2,-1,-2,1,0,3,-4,0
1558440343680972,-1,-1,4,2,5,-7,5,4
1558440343682985,-1,-1,-1,-4,-6,-7,-7,-4
1558440343682985,0,0,-1,-1,-2,0,-3,-1
1558440343694934,-1,0,-1,2,5,0,-1,0
1558440343694934,-1,-3,-8,-7,-4,4,2,0
1558440343703910,-3,-2,-3,-2,-6,-5,-4,-4
1558440343703910,-3,-3,-2,-2,-3,-4,-3,-3
1558440343717873,0,1,3,-1,1,3,0,-2
1558440343717873,-2,-1,0,0,-3,-7,-1,-1
1558440343724853,-1,-3,0,0,5,3,-1,0
1558440343724853,-2,-1,-1,-1,-2,4,-1,1
1558440343740810,3,1,1,-1,-1,-4,0,1
1558440343740810,-2,-2,-6,-5,-5,-5,-3,0
1558440343742807,-3,-2,-1,-3,-4,3,-1,-3
1558440343742807,3,0,-1,5,2,-18,1,4
1558440343754809,0,1,3,-1,1,4,3,0
1558440343754809,0,-3,-2,-4,-4,4,-1,0
1558440343763749,-4,-1,-5,-5,-10,-13,-10,-9
1558440343763749,1,0,1,1,10,21,12,3
1558440343777712,-3,-4,0,1,-1,-4,-1,-3
1558440343777712,0,1,6,2,5,2,0,-3
1558440343784693,-3,-2,-6,-2,-4,0,2,1
1558440343784693,-1,-2,-3,-6,-9,-8,-9,-4
1558440343801648,-1,-1,-4,-1,-2,-7,-4,-3
1558440343801648,0,0,2,0,4,8,3,0
1558440343802646,1,0,1,4,2,0,0,3
1558440343802646,2,2,6,5,6,-8,0,1
1558440343814652,-1,-1,-7,-9,-9,-6,-1,1
1558440343814652,-3,-4,-10,-5,-9,2,-7,-5
1558440343823589,1,0,0,-2,-1,3,-1,-1
1558440343823589,-1,0,-1,0,11,9,5,1
1558440343837589,-2,-3,1,1,-4,-6,-7,-3
1558440343837589,-1,-1,-2,3,2,-4,0,0
1558440343844534,2,0,0,-5,-6,-6,1,1
1558440343844534,-2,-2,-2,-1,-2,-3,-3,-1
1558440343861518,-1,-3,-2,-4,0,4,2,1
1558440343861518,-1,0,3,1,3,-7,1,0
1558440343862486,-2,-3,0,5,4,3,-1,-2
1558440343862486,-1,-1,-1,-6,-9,-5,-7,-5
1558440343874453,1,-3,-7,-1,-3,-2,-2,2
1558440343874453,-2,-2,-1,0,0,1,-1,-3
1558440343883464,0,1,3,1,0,-2,-1,0
1558440343883464,0,-1,-2,-5,-4,-1,-1,-1
1558440343898424,-1,-1,2,5,0,4,1,-2
1558440343898424,-3,1,0,-1,-4,-2,-2,-3
1558440343922325,1,1,1,0,3,-5,1,0
1558440343922325,-4,-3,-5,-3,-6,-5,-6,-1
1558440343922325,0,0,0,-1,5,2,4,1
1558440343922325,1,1,2,0,-1,-8,-3,1
1558440343924322,-3,-2,-2,-1,3,2,-2,-4
1558440343924322,-3,0,-2,1,2,9,6,3
1558440343935291,1,0,1,-5,1,-1,-1,0
1558440343935291,1,-2,0,2,2,6,2,-1
1558440343944266,-1,-4,1,-1,-1,-4,-1,1
1558440343944266,0,0,-2,-1,0,-5,-2,-1
1558440343958230,-3,0,-2,-2,-7,-15,-5,0
1558440343958230,-3,-1,0,3,4,7,5,0
1558440343965249,-1,2,1,-2,-1,3,0,1
1558440343965249,1,-1,4,3,0,7,-2,0
1558440343981207,-1,-1,-7,-3,-1,3,-1,-1
1558440343981207,1,0,-4,-3,-9,-20,-7,-4
1558440343982167,-2,-3,0,1,4,8,6,1
1558440343982167,-2,-3,2,0,-3,-7,-8,-4
1558440343995130,-2,0,6,4,8,7,2,1
1558440343995130,3,1,2,-2,1,0,5,2
1558440344004107,-1,-5,-5,0,-4,1,-1,-4
1558440344004107,-4,-2,-8,-8,-8,0,-7,-5
1558440344018070,-2,-3,-2,-3,-9,-2,-4,-3
1558440344018070,1,1,-1,-2,7,-3,1,3
1558440344025050,-1,3,0,0,-2,-7,1,2
1558440344025050,0,-1,-1,-1,-5,-4,-2,-4
1558440344041008,-2,0,0,-1,3,9,4,-1
1558440344041008,-2,-2,-4,-2,-4,2,-4,-1
1558440344043003,-1,-2,-1,1,1,-7,-5,-1
1558440344043003,0,-1,0,-3,1,4,3,0
1558440344054972,0,-1,-5,-6,-10,-5,-5,-5
1558440344054972,-3,-2,-3,0,-2,3,-1,-2
1558440344063947,0,2,1,0,7,4,7,3
1558440344063947,-3,0,1,3,2,-9,0,1
1558440344077910,2,0,1,4,1,-5,-1,-2
1558440344077910,-4,-4,-5,-7,-8,-6,-7,-7
1558440344084890,-1,-4,-3,-6,-10,-2,-8,-6
1558440344084890,1,-1,2,1,1,7,3,1
1558440344100887,0,2,1,1,8,-9,0,5
1558440344100887,-2,-3,-1,1,0,1,-2,0
1558440344102844,-2,-2,-2,-2,-2,0,-3,-3
1558440344102844,-4,-2,-5,-6,-14,-8,-5,-2
1558440344114810,-1,-1,1,0,-4,-7,-3,-1
1558440344114810,-2,-1,-1,1,1,3,1,-2
1558440344123788,-1,1,3,2,6,9,5,3
1558440344123788,-3,-1,2,6,12,10,2,-2
1558440344137784,-2,1,-1,-4,-5,-3,1,-1
1558440344137784,-2,0,-4,-3,-5,-9,-5,0
1558440344152711,-1,-2,-1,-5,-10,-15,-5,-2
1558440344152711,1,-1,-3,1,3,-1,1,0
1558440344160687,-3,-1,1,-4,-2,2,-2,-2
1558440344160687,0,-2,2,2,0,6,-1,-2
1558440344162684,-2,1,-3,-1,-3,3,-2,0
1558440344162684,-3,-2,-2,-6,-9,-10,-1,-1
1558440344174650,1,1,-1,2,7,2,3,1
1558440344174650,-1,-3,-1,-3,-6,0,0,-1
1558440344200581,0,-3,-2,-2,-2,3,-3,-3
1558440344200581,0,1,0,-2,2,-4,-5,0
1558440344201768,0,0,0,0,-1,2,0,0
1558440344201768,0,-1,-2,1,4,5,4,3
1558440344204604,-2,-1,0,-1,-3,-1,-1,-1
1558440344204604,-1,-2,-1,-3,-2,-1,-4,-4
1558440344221964,-3,-4,-1,0,-2,1,-3,-2
1558440344221964,0,2,1,3,7,-7,1,2
1558440344222525,2,-1,0,2,7,0,3,2
1558440344222525,0,1,-3,-4,-5,-2,-4,-2
1558440344234960,-2,-2,-1,-1,-4,-5,-4,-3
1558440344234960,0,-1,-3,-3,-2,-2,2,-1
1558440344243466,0,0,-3,-3,1,4,-3,-1
1558440344243466,-1,-1,1,0,-2,6,-2,-3
1558440344258732,-1,-3,-3,1,4,7,1,-3
1558440344258732,-4,-1,-2,-5,-5,-5,-5,-2
1558440344272679,0,-1,0,2,1,-11,3,3
1558440344272679,3,3,0,0,5,3,5,4
1558440344281397,-2,-3,-5,-6,-12,-11,-10,-3
1558440344281397,-1,-1,3,0,-7,-2,-4,-2
1558440344282362,-2,-1,-3,0,6,0,3,1
1558440344282362,0,-1,-1,0,3,-4,4,0
1558440344294370,-1,-2,-1,-2,-3,-2,0,-1
1558440344294370,2,0,-1,2,5,-2,-1,-1
1558440344320262,-2,-3,-2,-5,-10,-8,-8,-5
1558440344320262,1,-1,0,0,1,3,3,-2
1558440344321257,0,-1,-2,-1,2,5,-1,-1
1558440344321257,-1,-3,-1,2,-4,1,-5,-4
1558440344325247,-1,-1,-5,-2,-4,-2,-5,-3
1558440344325247,-1,1,-2,0,0,-3,0,2
1558440344340245,2,1,1,-3,8,11,5,1
1558440344340245,-1,1,2,0,3,3,3,2
1558440344347190,0,0,3,-1,-1,-6,-4,-2
1558440344347190,-6,-4,-6,-4,-8,-9,-6,-4
1558440344355196,1,2,1,3,8,5,4,1
1558440344355196,0,-1,-2,-2,-4,-9,-2,2
1558440344364144,2,1,5,-1,1,5,-1,-2
1558440344364144,-3,-3,-4,-4,-12,2,-5,-4
1558440344377109,-2,0,-3,-2,-8,-8,-6,-5
1558440344377109,-2,-5,-6,-4,2,3,2,-1
1558440344394066,-1,-1,-1,-2,0,1,0,0
1558440344394066,0,0,2,1,-1,4,-1,0
1558440344400049,1,0,-3,2,5,1,6,2
1558440344400049,-1,0,-2,-4,-12,-5,-2,-1
1558440344407057,0,0,0,3,8,8,4,2
1558440344407057,-1,1,1,-1,1,-5,-4,-1
1558440344415045,-1,-1,3,3,4,-4,2,2
1558440344415045,-1,-1,0,0,-2,-4,-6,-2
1558440344423985,-4,-2,-4,-3,-9,3,-3,-3
1558440344423985,1,-2,-1,-1,-5,-7,-4,-1
1558440344436951,-1,-1,-1,3,10,5,2,2
1558440344436951,-2,-2,-4,-5,-1,1,-1,-3
1558440344445965,-2,-2,1,1,0,1,1,-1
1558440344445965,-1,1,-1,-2,-5,-4,-3,-3
1558440344468865,-2,-2,-5,-4,-10,-7,-1,-1
1558440344468865,1,1,2,0,4,5,1,0
1558440344469861,1,-1,-5,-3,-4,-11,-1,1
1558440344469861,0,-2,-2,0,5,-3,-2,1
1558440344474848,-1,-1,3,-3,-14,-3,-7,-4
1558440344474848,2,1,1,4,13,9,7,1
1558440344483826,-2,-1,-1,-5,-5,-4,0,0
1558440344483826,-1,-3,-8,-2,5,3,4,1
1558440344497785,-3,-1,-1,-6,-8,-11,-9,-3
1558440344497785,0,0,-3,-3,-6,2,-3,-2
1558440344513743,0,-1,2,4,10,9,2,-1
1558440344513743,-1,-1,2,0,1,-3,0,-1
1558440344520725,-1,0,2,1,1,4,1,0
1558440344520725,-2,-2,-6,-2,-3,-2,-3,-2
1558440344527706,-2,-3,-2,0,0,0,-3,-2
1558440344527706,0,-2,0,-2,-1,4,3,0
1558440344551641,-1,-2,-6,-6,-13,-13,-4,-2
1558440344551641,0,0,5,7,4,-4,-5,0
1558440344552640,-4,-4,-12,-15,-14,-11,-4,-4
1558440344552640,0,-1,0,-2,0,2,-3,1
1558440344566601,-2,-2,1,4,4,4,2,-1
1558440344566601,-1,0,5,1,4,-4,0,0
1558440344567599,-1,-1,-5,0,3,9,3,0
1558440344567599,1,-1,3,2,1,-8,-1,1
1558440344596522,-2,-3,-3,-6,-1,3,-3,-2
1558440344596522,-5,-3,-8,-3,0,6,-2,-3
1558440344597519,-1,3,6,1,-1,-3,5,2
1558440344597519,0,2,-4,-2,-3,-2,0,-3
1558440344603505,-1,-3,-4,-1,-3,0,-2,-4
1558440344603505,-1,-1,-1,-3,-7,-4,-4,-2
1558440344605499,1,0,8,6,4,-8,-1,3
1558440344605499,-3,-3,-1,-1,3,7,0,-1
1558440344617468,1,2,5,2,4,-4,8,5
1558440344617468,-6,-4,-4,-4,-11,-8,-6,-4
1558440344633451,-2,-3,2,1,4,11,4,1
1558440344633451,2,3,6,8,12,2,8,4
1558440344640405,0,-3,-6,-3,0,-3,-5,-2
1558440344640405,0,0,0,-6,-5,-3,-3,0
1558440344647447,1,-1,-2,1,-9,-9,-7,-4
1558440344647447,-2,-1,1,1,1,7,1,-2
1558440344663344,-2,0,-2,-2,0,2,-1,-2
1558440344663344,0,-2,-2,-2,-7,-7,2,0
1558440344670325,-2,-1,-1,3,6,2,-6,-5
1558440344670325,-2,-2,-5,-8,-11,-5,-3,-3
1558440344677307,0,-1,2,0,-1,-2,1,2
1558440344677307,1,-1,-3,-2,1,-3,0,0
1558440344686287,-2,-1,-3,-1,-7,-1,-4,-3
1558440344686287,-1,1,2,-1,5,6,3,0
1558440344700287,-2,-1,-4,1,6,9,3,1
1558440344700287,0,0,2,-2,1,3,1,0
1558440344707662,-2,-2,-5,-3,-9,-7,-5,-3
1558440344707662,-2,-1,1,-2,-3,-8,-4,-1
1558440344724564,-2,0,-2,-4,4,6,5,3
1558440344724564,0,1,2,2,3,-2,3,6
1558440344725184,-1,-1,0,-4,-2,-2,-6,-7
1558440344725184,1,-2,-2,2,-2,1,-1,-2
1558440344754518,-3,-4,-11,-12,-7,-2,-4,-6
1558440344754518,-3,-5,-5,-1,0,3,5,-1
1558440344755099,3,2,4,0,2,-5,2,6
1558440344755099,-1,-2,1,0,-1,4,-2,-1
1558440344761539,-1,1,6,9,0,-1,-4,-2
1558440344761539,-1,0,-2,-7,-6,-1,-5,-5
1558440344768280,-2,-3,-3,0,1,-2,4,2
1558440344768280,0,0,-7,-2,6,2,3,3
1558440344791096,-1,-1,-1,0,-9,-8,-10,-4
1558440344791096,0,-3,1,3,9,10,3,0
1558440344792997,2,3,1,2,1,-9,0,4
1558440344792997,-2,-5,-5,-9,-13,-8,-5,-5
1558440344798167,-1,2,4,0,-2,-4,0,-1
1558440344798167,2,2,-5,2,10,2,2,1
1558440344806199,-3,-2,-1,1,0,6,4,2
1558440344806199,-3,0,-2,-2,-3,-3,-8,-7
1558440344829166,-3,-3,-1,-1,-7,-8,-5,-2
1558440344829166,1,0,4,-1,-10,-11,-4,-1
1558440344829898,3,-1,-2,6,20,13,10,4
1558440344829898,-5,-4,-6,-8,-9,-6,-2,-3
1558440344844087,-1,0,-4,-3,0,0,-2,0
1558440344844087,-3,-1,-3,-1,-7,-1,0,-1
1558440344844858,-3,-2,-3,-4,2,-1,-2,-1
1558440344844858,1,0,1,3,-2,2,-1,-2
1558440344857980,0,-1,-1,0,-3,-1,1,-2
1558440344857980,-2,-1,1,-2,2,-1,-1,0
1558440344874083,-4,-2,-2,-2,-8,-10,-7,-4
1558440344874083,-3,0,2,4,3,5,2,1
1558440344880066,-1,-1,-4,0,1,1,1,0
1558440344880066,0,-2,-1,-2,-3,-7,-5,-3
1558440344887048,-1,-3,-3,-2,-2,1,-1,-3
1558440344887048,1,1,3,3,5,-1,2,2
1558440344910984,0,-2,-4,-5,-4,-2,1,2
1558440344910984,-2,0,2,0,-1,-1,-2,0
1558440344912981,0,-1,-6,0,3,2,-3,-1
1558440344912981,-1,-1,-4,-2,-1,-3,0,1
1558440344918297,1,-1,6,3,1,3,1,-2
1558440344918297,-1,-1,-6,-4,-4,-2,-3,-2
1558440344925943,0,-1,-2,-4,-4,-5,-1,0
1558440344925943,3,1,1,-4,-1,-4,3,2
1558440344948883,1,-1,0,-2,-2,2,3,1
1558440344948883,0,2,4,3,4,1,-2,-3
1558440344949879,-2,-3,-4,-3,-4,-4,-4,0
1558440344949879,-1,-3,-3,2,-1,1,-4,-2
1558440344963843,0,2,2,5,8,2,-1,1
1558440344963843,-2,-2,-2,-4,1,8,4,-2
1558440344964840,-1,0,1,-1,-1,-4,1,1
1558440344964840,-4,-5,-7,-2,-4,-8,-6,-3
1558440344978225,-1,0,1,-3,0,-1,-4,-2
1558440344978225,-1,-1,0,1,-8,-2,-3,-1
1558440344985785,1,-1,-5,-5,-4,-3,-2,-1
1558440344985785,0,-1,1,-2,-2,-6,-1,-2
1558440345001181,1,2,-1,2,4,-1,3,1
1558440345001181,-3,0,2,2,2,-3,0,-2
1558440345007727,-1,0,1,4,3,5,2,1
1558440345007727,-1,1,2,-5,3,7,-1,-1
1558440345023983,-3,-4,-7,-1,-5,0,-3,-4
1558440345023983,0,-3,-1,-4,-9,-4,1,-1
1558440345024682,0,0,2,0,-6,-3,-4,-2
1558440345024682,-3,-1,0,2,-1,0,0,-3
1558440345037904,-3,-3,3,1,3,-3,0,-2
1558440345037904,0,0,-1,0,0,-7,-5,0
1558440345046628,1,0,-2,1,3,1,-2,0
1558440345046628,-3,-3,-4,-4,-4,4,-4,-4
1558440345060638,0,-2,-2,-3,0,4,2,0
1558440345060638,2,1,4,6,7,2,5,2
1558440345067571,-3,-3,-5,-8,-9,-11,-3,-5
1558440345067571,-1,-1,0,5,-3,-8,-7,-4
1558440345083574,-3,-4,-9,-10,-3,-2,-1,-2
1558440345083574,2,1,3,2,3,2,2,2
1558440345085517,1,-2,1,3,6,5,5,1
1558440345085517,0,-4,-5,-3,-5,-4,0,-2
1558440345097485,-4,-2,0,-1,-6,-3,-4,-4
1558440345097485,1,1,0,-2,-2,-1,-4,-3
1558440345106462,2,1,6,0,-1,2,2,-1
1558440345106462,2,-2,-8,-3,0,-2,-1,1
1558440345120452,1,0,3,-2,-3,-7,0,2
1558440345120452,-2,-2,-6,0,2,0,1,1
1558440345127434,-3,0,-1,-3,-8,-4,-5,-4
1558440345127434,-1,2,5,3,10,15,9,4
1558440345143391,0,-1,-1,2,1,-5,-6,-3
1558440345143391,-3,-1,2,-1,-3,-2,-2,-1
1558440345145358,0,-1,-3,-1,3,0,-2,-3
1558440345145358,0,0,0,0,-4,-4,-1,0
1558440345157353,0,1,1,-2,1,-1,-2,-1
1558440345157353,-1,-5,-4,-2,-2,1,0,-2
1558440345166302,-2,-1,-1,-1,-6,-1,-2,-2
1558440345166302,0,1,5,0,3,0,-1,-3
1558440345180303,1,-3,-9,-1,-6,1,1,0
1558440345180303,-1,-5,-3,-6,-6,-6,-5,-3
1558440345187244,-1,0,0,4,9,10,4,0
1558440345187244,-2,-1,2,-5,-5,-6,-1,1
1558440345203204,0,-1,4,0,-1,-5,-3,-3
1558440345203204,-2,0,-5,0,0,0,0,-2
1558440345205199,0,-1,-3,-2,0,-1,-1,2
1558440345205199,0,-1,-3,-1,-2,-1,-1,0
1558440345217199,-2,-1,2,1,-1,-5,-3,0
1558440345217199,-3,-1,-4,-2,-6,-3,-4,-3
1558440345226145,1,1,2,1,3,3,3,2
1558440345226145,0,1,-1,0,8,3,0,1
1558440345240133,-2,-3,-2,-2,-3,-1,0,-2
1558440345240133,0,0,2,-4,0,3,1,-1
1558440345247128,-1,-2,-1,-1,-6,-4,-2,-3
1558440345247128,-2,-4,1,-1,-1,-7,-2,-3
1558440345264074,1,0,-1,-3,0,1,-1,0
1558440345264074,-1,-1,-3,-3,3,-1,4,1
1558440345265040,-1,0,-2,-2,0,-3,-1,1
1558440345265040,-1,2,-1,-1,2,11,6,3
1558440345277036,-3,-3,0,1,-4,-4,-6,-3
1558440345277036,2,1,1,4,4,-9,-3,0
1558440345285980,-2,-2,-5,-6,-10,-2,-5,-5
1558440345285980,0,0,-2,0,-1,-4,1,1
1558440345300974,1,0,-1,1,6,6,3,1
1558440345300974,-1,-2,0,1,0,1,-1,1
1558440345306956,-1,-3,-1,2,-1,-3,-3,-1
1558440345306956,-2,-2,0,-7,-8,-4,-12,-9
1558440345322914,-3,1,-8,-2,-1,5,1,0
1558440345322914,-2,-2,-2,-2,-5,-10,1,0
1558440345329983,0,1,3,-1,1,-5,0,0
1558440345329983,0,-2,1,1,-6,-1,-2,0
1558440345336928,-1,-1,1,-1,-4,-2,-5,-2
1558440345336928,0,-2,2,0,4,0,0,1
1558440345345936,-2,0,-2,-7,-6,-5,0,-2
1558440345345936,0,1,1,3,5,-4,4,2
1558440345360944,-2,-1,-4,-4,-3,4,1,-2
1558440345360944,-2,-2,-3,3,-4,6,-8,-6
1558440345366927,-1,-2,-5,-7,0,-4,-3,0
1558440345366927,1,1,0,3,6,2,7,1
1558440345382892,-2,-2,2,0,-2,1,0,-1
1558440345382892,0,1,5,2,-8,-14,-6,-3
1558440345397850,-2,-4,-7,-2,4,13,4,1
1558440345397850,0,-3,-5,-2,-3,-8,-1,5
1558440345398762,-1,1,4,1,9,3,1,0
1558440345398762,-1,-1,-1,-3,-3,4,-3,-1
1558440345406743,-3,-1,-1,0,0,-6,-5,-4
1558440345406743,-2,-3,-4,-3,-9,-3,-6,-1
1558440345420908,2,-1,4,0,4,7,3,0
1558440345420908,1,-1,-1,-1,2,-5,1,2
1558440345427827,1,2,6,8,7,11,9,1
1558440345427827,-2,-4,-5,-12,-9,-4,-2,-2
1558440345442799,-1,-3,-1,-2,-7,-16,-6,0
1558440345442799,1,0,-3,0,8,12,5,0
1558440345449787,0,-1,0,0,-5,-5,-4,-2
1558440345449787,-3,-2,-2,-1,-4,1,-1,-3
1558440345466702,-4,1,-2,0,-1,-4,-5,-3
1558440345466702,-2,-1,-5,-6,-6,-4,4,3
1558440345467703,1,0,3,2,8,7,5,2
1558440345467703,-3,0,2,2,-1,3,-4,-3
1558440345480704,0,-1,-1,2,0,-2,-2,0
1558440345480704,-2,-2,-6,-11,-5,-3,-4,-3
1558440345487647,0,0,-1,-4,-8,-6,-4,-1
1558440345487647,0,0,0,3,6,1,2,1
1558440345502609,-3,-2,0,-2,-3,0,-1,-3
1558440345502609,-3,-1,-2,2,1,0,-4,-5
1558440345509622,0,-3,-2,-2,-6,-13,-1,2
1558440345509622,-1,2,-1,-2,-2,-6,-2,-1
1558440345526571,3,-2,-2,0,8,10,8,7
1558440345526571,-4,-3,-1,4,-1,3,-4,-10
1558440345527541,-1,-1,-1,-6,-4,3,-1,0
1558440345527541,-3,-1,-2,-3,-10,-10,-7,-5
1558440345540665,-4,-1,-5,-5,-7,-4,-2,-2
1558440345540665,-1,-1,-2,3,4,2,3,4
1558440345547658,2,2,5,8,7,-3,3,1
1558440345547658,0,-3,-3,0,5,1,0,-3
1558440345563547,0,0,-2,-11,-14,-9,-8,-3
1558440345563547,-2,-3,-3,-4,-5,3,-5,-2
1558440345569441,-1,0,-1,-1,5,2,3,1
1558440345569441,3,2,4,4,2,-3,3,3
1558440345586410,-2,-3,-5,-6,-9,-8,-5,-5
1558440345586410,0,1,0,3,8,6,4,2
1558440345587379,-2,-3,-4,-1,-7,-2,-4,-2
1558440345587379,-4,-2,-2,-5,-4,-3,-5,-5
1558440345600377,0,0,2,5,4,3,5,4
1558440345600377,-1,0,-1,-3,-2,-6,-3,1
1558440345607354,-5,-3,-3,-3,-7,-3,-11,-9
1558440345607354,-1,0,-4,-1,-2,3,1,0
1558440345623312,1,-1,1,5,10,4,8,2
1558440345623312,0,-2,-1,-2,-2,-7,-2,-1
1558440345630264,0,-2,0,-4,-3,1,-1,-3
1558440345630264,0,0,0,2,8,12,6,4
1558440345646257,-3,-1,1,-2,-4,-11,-6,-1
1558440345646257,0,0,-1,2,1,6,4,5
1558440345647220,-6,-2,-4,-10,-10,-5,-10,-9
1558440345647220,-3,-3,-4,-2,-11,-9,-7,-4
1558440345660186,4,4,5,8,17,12,14,7
1558440345660186,-3,-4,-2,-7,-7,-3,-6,-5
1558440345667199,-3,-3,-6,-2,-13,-8,-4,-4
1558440345667199,1,-2,3,3,6,-4,0,3
1558440345683122,-2,-2,-5,-5,-3,2,-2,-3
1558440345683122,-1,-2,0,3,-4,-8,-5,-2
1558440345690104,1,1,0,0,10,9,7,5
1558440345690104,1,-2,-1,-4,-4,0,-2,-3
1558440345706096,0,-1,-4,-2,-7,-4,-5,-5
1558440345706096,1,-1,1,0,3,0,1,-1
1558440345707059,-3,-2,5,2,-3,0,-2,-2
1558440345707059,0,1,0,-5,2,-1,3,0
1558440345720057,-3,0,0,7,4,3,-4,-1
1558440345720057,-2,0,-6,-11,-4,3,-2,-2
1558440345727041,-1,-2,-2,-1,3,0,4,1
1558440345727041,-1,-2,1,1,5,5,0,0
1558440345742963,1,1,3,0,-1,-7,1,-2
1558440345742963,0,1,-2,-2,-5,-3,-3,-2
1558440345750101,0,0,3,6,2,-6,-5,-2
1558440345750101,-4,-4,-6,-9,-16,-1,-3,-2
1558440345766055,0,-3,-3,1,1,7,-2,-3
1558440345766055,0,-2,4,-3,-2,-1,0,1
1558440345767895,3,1,1,-2,5,0,3,3
1558440345767895,-4,-2,-7,3,5,5,1,-2
1558440345781010,-4,-2,-1,-6,-7,-10,-9,-4
1558440345781010,-3,0,-2,-2,-5,-6,-1,-1
1558440345787891,-3,0,-2,-1,-1,4,-5,-2
1558440345787891,-1,2,7,2,1,0,2,5
1558440345802803,-1,-2,-4,3,7,-2,-1,-3
1558440345802803,-1,-3,-2,0,-2,4,-2,-2
1558440345809850,-2,-2,-4,-1,-3,-1,-2,-3
1558440345809850,0,-2,-1,-3,-2,-11,-1,-1
1558440345825773,2,1,8,1,6,1,5,4
1558440345825773,0,1,1,0,-3,-4,-2,-1
1558440345827739,-2,-2,-5,-1,-3,0,-4,-2
1558440345827739,0,2,2,1,4,3,1,-1
1558440345840741,-1,-3,-3,-6,-10,-4,-4,0
1558440345840741,0,-2,-1,1,3,0,3,5
1558440345847733,-1,-1,4,3,2,-5,-1,0
1558440345847733,0,-1,0,3,-3,1,-6,-3
1558440345863682,-5,-5,-14,-12,-9,-8,-7,-6
1558440345863682,-2,-4,1,-3,-6,0,-4,-4
1558440345869631,2,3,2,3,12,6,13,7
1558440345869631,1,0,2,1,5,3,6,4
1558440345886582,-2,0,1,2,-4,-1,-5,-3
1558440345886582,-2,-3,-2,-2,0,2,-1,-2
1558440345887577,0,-2,0,-5,-12,-15,-6,-3
1558440345887577,0,0,3,2,1,0,0,-2
1558440345900586,1,0,-4,-4,-2,-5,-1,1
1558440345900586,-3,-1,-4,3,-1,-1,-3,-4
1558440345907565,0,0,2,-2,10,19,5,1
1558440345907565,-3,-3,-8,-10,-8,-3,-4,-5
1558440345923493,-1,-2,2,1,1,4,-2,-1
1558440345923493,1,0,0,0,1,-12,1,2
1558440345929497,-3,0,-3,-3,-5,-4,-3,-3
1558440345929497,0,-2,-2,1,-3,-4,-2,-1
1558440345945421,-3,0,1,-1,-1,3,-4,-4
1558440345945421,0,-1,1,1,4,-2,2,2
1558440345953400,1,-2,-5,-2,2,-3,4,6
1558440345953400,-2,-2,2,3,-3,0,-6,-3
1558440345959383,-3,-2,-5,-10,-15,-11,-8,-3
1558440345959383,0,-2,-3,-1,9,3,4,0
1558440345968360,1,0,1,0,4,-1,-1,2
1558440345968360,-2,-3,-4,-1,-7,-3,-4,-5
1558440345983505,-1,1,3,3,-1,-1,-2,-3
1558440345983505,1,2,2,0,1,3,3,1
1558440345990392,-2,-4,-2,-2,-7,-8,-4,-3
1558440345990392,-1,-4,-4,-3,1,2,-2,-1
1558440346006438,-2,-3,-2,4,-2,-7,2,1
1558440346006438,-3,-3,-5,-11,-1,1,0,-1
1558440346007256,-2,-2,-4,1,-1,0,0,-2
1558440346007256,0,2,2,-2,3,0,4,2
1558440346020366,0,1,2,3,4,0,3,1
1558440346020366,-2,0,0,2,-5,1,-5,-4
1558440346029225,-1,-1,0,-1,-1,6,-4,-5
1558440346029225,-1,-2,-7,-6,-8,-12,-10,-4
1558440346051175,0,2,0,1,14,13,12,4
1558440346051175,1,2,2,3,4,2,1,3
1558440346052138,-6,-2,4,-6,-7,-1,-5,-5
1558440346052138,-2,-1,-4,1,0,-3,3,-3
1558440346066099,1,-2,-4,-3,-2,-6,2,2
1558440346066099,-1,-2,-1,-1,-5,1,-2,-4
1558440346068093,0,-3,-2,-1,-3,4,-2,-2
1558440346068093,-1,1,0,1,6,-7,1,1
1558440346089076,0,1,7,3,2,3,1,2
1558440346089076,-3,-5,-16,-12,-10,-6,-6,-4
1558440346090040,-2,-4,-6,-1,-4,-4,-3,-2
1558440346090040,-2,-1,3,-1,2,6,4,0
1558440346103004,0,3,1,3,-2,-3,-1,2
1558440346103004,-3,0,2,-5,0,-3,-1,1
1558440346110019,-4,-3,-5,-7,-16,-9,-5,-4
1558440346110019,2,1,2,2,10,14,5,4
1558440346125941,-1,-5,-7,-3,2,8,3,0
1558440346125941,4,3,9,8,6,-8,2,4
1558440346127935,1,0,-1,-1,-2,-10,-3,2
1558440346127935,-3,-5,-8,-5,2,6,4,0
1558440346139901,-3,-3,-2,-5,-11,-1,-13,-13
1558440346139901,-3,-3,-4,1,-3,6,-1,-6
1558440346148877,2,3,3,5,14,6,10,4
1558440346148877,-1,1,4,5,2,-7,1,3
1558440346162841,-4,-4,-5,-8,-6,0,-6,-2
1558440346162841,-1,-1,-1,2,-5,-4,-2,-3
1558440346169823,0,1,3,3,-3,-5,-6,-2
1558440346169823,-3,-7,-11,-9,-9,1,-8,-8
1558440346185778,1,-3,-3,-2,-2,-5,1,-1
1558440346185778,1,3,3,5,13,8,5,1
1558440346187810,-1,-1,-3,-4,-3,-2,-2,0
1558440346187810,0,-2,1,1,1,3,-3,0
1558440346199944,-1,0,1,-3,-2,-2,-2,0
1558440346199944,-1,0,1,0,-3,-3,-2,-3
1558440346208717,1,1,-2,-1,6,0,3,0
1558440346208717,0,1,0,1,-1,5,1,1
1558440346222883,-2,-2,-2,-5,-7,-8,-6,-5
1558440346222883,-1,-1,-2,-3,-7,-9,-6,0
1558440346229869,2,0,1,4,17,8,12,8
1558440346229869,-3,-2,-1,-3,-5,-6,-5,-9
1558440346245745,-3,0,8,5,5,1,2,0
1558440346245745,-4,-1,-9,-5,-3,4,-4,-4
1558440346252600,-4,-4,-4,-4,-17,-13,-13,-9
1558440346252600,1,-1,1,3,2,-6,0,2
1558440346259610,1,2,2,2,7,6,6,4
1558440346259610,-1,-1,3,-1,1,4,3,0
1558440346268557,-2,-3,-5,-4,-6,-3,-5,-2
1558440346268557,-1,-1,-3,-2,-3,-3,-1,-3
1558440346282556,-1,0,2,1,6,3,5,2
1558440346282556,0,1,0,1,6,2,7,4
1558440346289531,-2,0,-1,0,-5,3,-3,-3
1558440346289531,-1,2,3,0,6,8,5,2
1558440346305494,0,-2,-4,-3,-6,-7,-6,-4
1558440346305494,-1,-1,0,-3,-7,-1,-2,-2
1558440346312440,-3,-4,-1,-5,-3,0,-3,-3
1558440346312440,1,-2,0,1,-2,1,0,-2
1558440346319424,-1,-2,-4,-1,-2,1,1,-2
1558440346319424,-2,-2,-3,0,-2,-1,-3,-2
1558440346328433,-2,-1,-2,0,-8,-11,-7,-5
1558440346328433,0,-1,-1,-9,-4,-2,5,5
1558440346343362,2,3,2,6,17,15,11,8
1558440346343362,-4,-5,0,-4,-8,-13,-8,-8
1558440346349370,-2,1,-3,-1,-4,-8,-4,-3
1558440346349370,-4,-4,-6,-3,-13,-6,-10,-6
1558440346365297,-1,0,-2,0,1,0,4,2
1558440346365297,-1,-3,-2,-2,-1,1,-1,1
1558440346372278,-1,-1,1,-5,-1,7,2,2
1558440346372278,2,2,4,6,3,1,1,-1
1558440346380259,-2,-3,-11,-15,-12,-13,-4,-1
1558440346380259,1,2,6,5,6,5,3,2
1558440346388450,-2,-1,1,0,-7,-10,-9,-6
1558440346388450,0,0,-3,-4,-3,3,-2,1
1558440346411379,1,1,4,6,8,-1,7,5
1558440346411379,0,0,-4,-3,-3,0,-5,-1
1558440346413242,-2,-4,-3,-3,-1,1,-2,-4
1558440346413242,-3,0,0,2,-1,1,1,-1
1558440346425256,-2,-2,0,1,-4,-2,-7,-6
1558440346425256,1,-3,-3,0,1,3,4,2
1558440346432235,1,-1,1,2,2,8,4,2
1558440346432235,-2,-2,-2,-5,-5,-13,-7,-2
1558440346449151,-5,-3,-2,-4,-8,-3,-6,-4
1558440346449151,-3,-1,2,0,1,-3,-2,-2
1558440346450071,1,2,2,0,12,6,1,3
1558440346450071,-4,0,-4,3,1,-7,-2,1
1558440346463121,2,0,-1,-2,0,-15,-2,2
1558440346463121,-2,-3,-3,-4,-6,-3,-3,-7
1558440346470069,-1,-2,-1,-1,-5,-10,-4,-2
1558440346470069,0,-1,3,1,3,12,2,-1
1558440346485975,-1,-2,5,2,4,5,0,-3
1558440346485975,1,-1,-10,-6,-3,-3,0,1
1558440346491990,-3,-2,0,-4,-3,-10,-1,0
1558440346491990,-1,-2,0,0,0,5,2,0
1558440346508946,-1,-2,-4,-2,-3,7,-2,-2
1558440346508946,-1,1,2,2,-1,-2,0,-1
1558440346509910,-2,-1,-2,0,3,4,0,-2
1558440346509910,-4,-1,1,-3,-11,-17,-11,-3
1558440346522909,0,-2,-4,4,1,2,2,1
1558440346522909,0,-2,1,4,7,-3,-1,-1
1558440346529861,0,-1,-3,-6,-6,3,3,2
1558440346529861,-1,0,1,-3,-2,2,-1,-2
1558440346545856,-1,1,0,-2,2,1,-3,0
1558440346545856,-2,0,-1,-1,-2,1,-2,-3
1558440346551800,0,0,-1,2,-1,-7,0,0
1558440346551800,2,2,2,4,7,3,4,3
1558440346568754,-3,-3,-5,-6,-1,2,-1,-4
1558440346568754,1,0,0,-3,-5,-2,-1,3
1558440346569752,-2,1,-3,1,0,2,3,-1
1558440346569752,-4,-3,-3,-1,-9,-6,-10,-6
1558440346582716,2,0,2,-5,-2,-2,1,2
1558440346582716,0,-3,-2,1,2,-3,1,0
1558440346589697,-1,-2,-2,-1,3,1,-1,-1
1558440346589697,0,-4,-4,-2,-3,2,2,0
1558440346605653,-3,-1,1,-1,-9,-11,-8,-6
1558440346605653,-1,1,3,-1,4,7,3,4
1558440346612635,-2,-2,-7,-4,-7,-8,-6,-5
1558440346612635,-2,-2,-1,-2,0,-2,-4,-4
1558440346628593,1,2,2,8,8,10,8,4
1558440346628593,0,-2,-3,-10,-10,-10,-4,-2
1558440346629647,-3,-1,0,4,7,10,-1,-3
1558440346629647,-2,1,0,-4,-5,-5,-1,0
1558440346642671,1,0,-2,0,-3,-10,-3,-1
1558440346642671,-1,0,0,3,3,3,-2,-3
1558440346651532,1,1,3,1,4,8,6,3
1558440346651532,1,-4,-4,-2,4,-1,0,0
1558440346665620,-4,-3,-3,-2,-8,-4,-7,-4
1558440346665620,-2,1,1,3,10,6,5,3
1558440346672477,0,-1,2,-3,1,2,-1,3
1558440346672477,-3,2,2,-1,-1,1,-1,-5
1558440346688497,-1,-3,-3,0,-3,-7,-4,-1
1558440346688497,-1,-2,-2,-5,-5,-6,0,-2
1558440346690429,-1,0,-1,0,1,0,2,3
1558440346690429,0,-2,-1,0,-3,-3,-2,-2
1558440346703399,-1,-3,-2,-4,-3,1,-1,-1
1558440346703399,0,0,1,4,3,-2,2,0
1558440346709381,-1,0,0,-5,1,-2,1,1
1558440346709381,-1,0,-2,-5,-8,-4,-4,0
1558440346725337,-4,-1,-3,-2,-8,-6,-6,-4
1558440346725337,-4,0,-2,-1,-2,1,-5,-4
1558440346732316,3,1,1,3,6,3,7,4
1558440346732316,-1,-2,-2,3,1,-2,2,1
1558440346748286,-4,-4,-3,-12,-6,0,-2,-4
1558440346748286,0,1,2,1,-3,-1,-1,0
1558440346750268,-1,-2,-6,1,-8,-12,-6,-4
1558440346750268,-2,0,-2,0,1,1,-2,-4
1558440346771212,-1,0,-1,3,8,8,9,4
1558440346771212,0,-2,-1,-6,-6,-6,-2,-1
1558440346772209,-1,0,1,-1,-1,2,-3,-2
1558440346772209,1,-1,1,-2,-5,-4,-4,-1
1558440346785176,-1,-1,2,3,8,16,8,3
1558440346785176,0,1,7,1,3,-6,0,0
1558440346792190,-2,-3,-5,1,0,-1,2,-3
1558440346792190,0,0,-9,-10,-3,-2,-2,-1
1558440346808113,-1,-3,-2,-2,-6,-1,-7,-4
1558440346808113,-3,-4,-4,-2,-1,4,2,1
1558440346810110,2,2,9,6,14,9,4,3
1558440346810110,-1,-1,0,-1,-4,-5,-7,-3
1558440346823075,0,-3,-1,1,-2,-6,-4,-2
1558440346823075,-1,-1,-4,-4,-13,-1,-3,0
1558440346830054,-2,-2,1,3,-1,-3,-3,-1
1558440346830054,-1,-2,-5,-6,1,5,3,-1
1558440346845020,1,0,0,-3,2,5,0,2
1558440346845020,0,0,0,1,-2,-6,-2,-3
1558440346851998,-2,-1,-1,-4,-4,0,-2,-3
1558440346851998,-1,-2,-1,1,0,1,-1,-1
1558440346868956,0,1,1,1,-4,-6,-5,-3
1558440346868956,0,-1,0,1,12,6,12,4
1558440346869967,-2,-1,-1,-4,-9,-5,-4,-4
1558440346869967,0,-2,-2,6,3,0,-1,0
1558440346882920,2,0,0,-6,-5,-3,-2,3
1558440346882920,-4,-1,-8,-5,-8,-5,-8,-5
1558440346889895,-1,1,-2,-1,-2,-7,0,-1
1558440346889895,-1,2,3,1,9,2,5,1
1558440346905852,-2,-1,-1,3,-3,2,-1,-1
1558440346905852,2,0,2,1,-3,1,-2,-1
1558440346911842,-2,-2,-5,-8,-7,-6,-2,1
1558440346911842,-1,-3,-1,-2,-1,-1,-1,-2
1558440346928797,-1,0,2,-1,0,-2,0,-3
1558440346928797,-2,-3,2,-2,1,-4,0,-1
1558440346929788,-1,-3,-4,-1,0,3,0,-4
1558440346929788,-1,-1,1,2,0,0,0,-1
1558440346942756,-3,0,-1,-3,0,4,1,-1
1558440346942756,-2,-1,1,1,-2,-2,-5,-2
1558440346951730,1,-1,-1,-2,-1,-4,2,2
1558440346951730,0,0,1,1,-3,-10,-1,3
1558440346965692,-1,-1,-1,3,-1,-1,-2,-2
1558440346965692,-1,-2,-7,-8,-6,-2,-7,-2
1558440346972674,0,-1,-2,-1,-2,4,0,0
1558440346972674,-1,-1,-3,-2,1,3,-3,-4
1558440346988631,-2,1,0,1,-1,-4,0,-2
1558440346988631,-1,2,0,3,5,5,6,1
1558440346989629,0,-1,0,-1,4,-3,-3,1
1558440346989629,-1,1,2,4,-1,0,1,0
1558440347002601,-2,-5,-5,-14,-7,0,-3,-2
1558440347002601,-3,-5,-4,-2,-6,-1,-7,-2
1558440347011571,-1,-2,-2,-1,-4,-4,-5,-2
1558440347011571,0,-2,0,-2,-1,-5,1,0
1558440347025537,0,-1,-1,3,5,1,1,0
1558440347025537,-2,1,-2,-2,-4,1,3,-2
1558440347032514,-3,-1,0,-3,-8,0,-3,-1
1558440347032514,-1,-1,4,2,-4,-3,-2,-1
1558440347048470,5,4,9,5,19,13,15,7
1558440347048470,-2,-5,-10,0,0,-4,-3,-2
1558440347050466,-3,-2,-4,-6,-6,0,-4,-3
1558440347050466,-2,-4,-5,0,-5,1,-4,-3
1558440347062436,-1,-1,-1,-1,-6,-7,-4,-3
1558440347062436,1,0,0,3,1,0,0,0
1558440347071409,-2,-3,-2,-1,-2,-3,-2,-3
1558440347071409,-2,-2,0,-1,1,2,0,-2
1558440347085378,1,0,-3,-2,-4,-10,-3,0
1558440347085378,-1,1,4,1,6,-6,0,1
1558440347092353,-1,-3,-4,-1,-6,-6,-5,-3
1558440347092353,-2,2,-1,-4,-4,-2,-2,-2
1558440347108321,-1,-2,-5,4,-4,6,-2,-4
1558440347108321,-3,-3,-1,-7,-5,-5,-5,-3
1558440347110309,-1,0,5,2,5,4,2,0
1558440347110309,1,0,1,1,9,12,11,6
1558440347122274,-4,0,-3,-1,-2,-7,-5,-5
1558440347122274,-1,-1,-1,-4,-5,3,1,0
1558440347131253,0,0,2,3,5,-9,0,-3
1558440347131253,-2,-3,-6,-2,0,2,-5,-1
1558440347145217,-3,-2,-8,-4,-4,1,-8,-5
1558440347145217,-2,-2,-6,-4,-8,4,-3,-3
1558440347152204,1,-1,-1,0,3,0,1,2
1558440347152204,-1,-1,1,1,-5,-5,-3,-2
1558440347168154,-1,0,1,-3,-3,-6,1,3
1558440347168154,1,2,2,3,16,13,8,6
1558440347183112,-1,-2,-1,-1,-4,1,-6,-2
1558440347183112,-2,1,4,0,0,2,1,-1
1558440347183112,-1,-2,-4,-2,-3,-8,-1,1
1558440347183112,-3,-2,-11,-4,-10,-14,-5,-4
1558440347191091,-3,0,-4,-4,-4,-1,-2,0
1558440347191091,-1,-1,-1,-1,3,2,0,3
1558440347205054,-2,-1,5,0,-1,2,-2,-2
1558440347205054,3,1,5,8,12,9,7,2
1558440347212034,2,-2,-1,-2,-3,-1,1,4
1558440347212034,-4,0,0,-3,-6,-6,-3,-5
1558440347228002,-3,-1,-3,-2,-5,-2,-4,-4
1558440347228002,-1,-1,-1,-2,-2,-1,1,-1
1558440347234975,2,2,9,6,7,1,3,-2
1558440347234975,0,-3,-11,-5,-5,-6,-2,-2
1558440347241955,-3,-4,-3,-6,-3,-3,-1,-2
1558440347241955,-3,-4,-4,-1,-6,-7,-8,-4
1558440347250928,-3,-2,-1,-2,-8,-3,-5,-3
1558440347250928,1,0,2,-2,5,5,3,3
1558440347265890,4,3,4,0,3,-12,5,2
1558440347265890,-2,-2,2,0,-1,3,-2,-2
1558440347279851,-1,-3,2,-1,2,2,-3,-3
1558440347279851,0,-2,-9,-5,-3,-5,-2,-1
1558440347287832,-3,-4,-6,-5,-6,3,-5,-3
1558440347287832,1,0,3,-2,-4,-7,-1,0
1558440347294811,-2,1,-1,1,0,6,1,-2
1558440347294811,-2,0,-1,-1,-3,0,-5,-4
1558440347301792,1,0,2,6,9,-1,5,3
1558440347301792,0,-1,2,-5,3,5,4,1
1558440347310771,-4,-2,-4,0,2,-3,0,-1
1558440347310771,-1,-3,0,-3,-10,-5,-4,-3
1558440347325733,-3,-4,-9,-2,-2,2,-4,-2
1558440347325733,1,2,2,6,-2,-3,-3,-1
1558440347332727,-1,0,-9,-7,-3,-3,-1,0
1558440347332727,-1,-1,-4,-3,-2,-4,0,-1
1558440347363630,-1,-1,1,4,4,2,0,-3
1558440347363630,-2,1,6,1,-1,0,-3,-2
1558440347364626,-2,-2,-2,0,-1,0,-4,-3
1558440347364626,-3,-4,-9,-9,-6,-10,-1,-1
1558440347371608,2,0,-1,-1,5,3,1,1
1558440347371608,-2,-1,-3,-2,0,-1,1,5
1558440347372605,-2,0,6,2,-2,0,2,-1
1558440347372605,1,0,4,4,1,-8,-6,-2
1558440347385579,-3,-2,-2,-4,-10,-4,-5,-4
1558440347385579,0,0,1,2,9,17,6,-1
1558440347392554,1,-2,-2,2,2,-2,-1,1
1558440347392554,-1,1,-1,-3,2,6,-1,-1
1558440347408511,3,4,6,3,10,-1,6,2
1558440347408511,-1,-1,-5,-3,-7,-13,-5,-3
1558440347414502,-3,-5,-6,-5,-4,4,0,-3
1558440347414502,-2,-2,0,0,-2,0,-1,-2
1558440347431477,0,0,2,-1,-6,-8,-6,-1
1558440347431477,-1,-2,-2,-3,-3,-1,-2,-2
1558440347432447,2,1,-1,-1,-1,-8,1,1
1558440347432447,2,0,2,2,4,5,5,1
1558440347445410,-3,-3,-1,-2,-5,2,-6,-5
1558440347445410,-3,-1,-3,-3,-3,-1,-6,-4
1558440347452394,-1,-2,-2,2,-1,-1,-1,-2
1558440347452394,1,0,0,-4,1,-7,3,3
1558440347468348,1,0,2,0,0,-2,1,1
1558440347468348,-1,1,8,0,-3,-8,-4,-5
1558440347474336,-2,-1,-9,0,5,8,1,-1
1558440347474336,0,1,1,2,1,1,0,1
1558440347491290,-4,-1,-7,-10,-8,-1,-2,-4
1558440347491290,-4,-4,-1,-1,-1,-1,-5,-2
1558440347492283,-1,0,3,0,-1,2,4,-1
1558440347492283,-2,-1,0,3,2,-2,0,2
1558440347505252,-1,0,-1,1,0,5,3,1
1558440347505252,-1,0,-1,2,1,3,-2,-2
1558440347512231,-1,-1,-1,-10,-10,-5,-2,-2
1558440347512231,0,1,4,1,3,4,0,-2
1558440347528190,-4,-4,-4,-3,-6,-5,-7,-4
1558440347528190,0,0,-2,-1,3,-8,4,3
1558440347535170,0,1,1,-1,-5,-1,-3,-1
1558440347535170,-1,-2,-2,0,-3,2,-4,-3
1558440347551127,-2,-1,2,2,1,2,1,1
1558440347551127,-1,-3,-8,-4,-8,-7,-6,-3
1558440347553121,1,0,2,-1,2,-4,-2,1
1558440347553121,1,-1,0,1,0,1,-1,2
1558440347565099,-1,1,-3,-2,-5,-6,-3,-1
1558440347565099,-1,0,2,1,3,-2,0,-2
1558440347572073,-2,0,-2,-1,-4,-4,-5,-5
1558440347572073,-3,-6,-4,-3,-7,-1,-4,-5
1558440347588028,1,-1,0,2,7,7,5,2
1558440347588028,1,-1,2,0,-2,-1,0,1
1558440347595015,-1,-1,2,-2,-3,-12,-4,-2
1558440347595015,-2,-2,-5,-1,1,7,2,-2
1558440347610966,-1,-1,-1,1,-1,0,-4,-2
1558440347610966,-1,0,-5,-2,-1,-1,5,2
1558440347612961,0,1,1,2,5,4,1,0
1558440347612961,-3,-1,-1,-1,-4,0,-2,-1
1558440347625927,0,-1,-2,-1,-8,-15,-5,-3
1558440347625927,0,-1,-1,2,6,5,0,2
1558440347631910,-1,-3,-1,3,5,2,3,2
1558440347631910,-1,-1,-3,-7,-5,-1,-4,0
1558440347647867,-1,-1,0,-3,0,4,-2,-2
1558440347647867,-3,-2,-3,-4,-11,1,-4,-5
1558440347654848,0,1,0,0,4,-2,3,2
1558440347654848,0,4,5,5,2,-6,1,-3
1558440347670806,-1,-2,0,-4,-1,-4,2,3
1558440347670806,-3,-4,-8,-4,-5,-7,-5,0
1558440347672800,-1,-1,0,-2,7,18,5,0
1558440347672800,0,-2,0,-1,-3,-6,-2,-3
1558440347685790,-1,0,3,5,0,-2,1,2
1558440347685790,-1,0,-3,-4,-1,1,0,-2
1558440347691751,-3,-4,-4,-3,-6,-2,-2,-2
1558440347691751,-4,-2,-3,0,-2,-6,-8,-5
1558440347707707,1,-1,1,2,12,11,8,1
1558440347707707,-3,-1,-2,-1,-2,-4,0,0
1558440347714689,-2,0,-2,-2,-3,-4,-5,-5
1558440347714689,-1,0,-1,0,-1,1,2,-2
1558440347730645,-3,-4,-5,-2,-4,1,-4,-4
1558440347730645,0,-1,-2,-3,-5,-2,-5,-5
1558440347732642,4,2,6,7,11,5,4,3
1558440347732642,-1,-3,-7,-13,-9,-13,-1,-1
1558440347745609,-5,-2,-4,-5,-4,1,-4,-1
1558440347745609,0,-1,2,1,-3,-8,-2,-1
1558440347752590,-1,-2,-4,-1,-3,-5,1,2
1558440347752590,2,-1,1,2,9,5,1,-1
1558440347767548,-4,-2,-4,-5,-6,-2,-4,-1
1558440347767548,-1,-1,2,1,9,17,2,-1
1558440347774533,-4,-2,-6,-5,-10,-6,-4,-3
1558440347774533,1,-1,0,-1,-2,-10,0,2
1558440347791484,-1,-1,-1,-2,-4,-1,-3,-1
1558440347791484,-2,0,1,7,5,3,-3,-7
1558440347792482,1,0,-3,-6,-5,-9,1,1
1558440347792482,-2,-2,2,2,-1,3,3,-1
1558440347805449,3,1,1,-1,-2,-6,-5,-3
1558440347805449,-3,-3,-6,-4,-2,2,1,-1
1558440347812429,-1,-2,2,-3,-3,1,-3,-2
1558440347812429,-1,-1,-1,0,3,13,6,2
1558440347828383,-2,1,1,3,-2,-12,-4,-2
1558440347828383,-1,0,2,-1,0,1,6,4
1558440347834369,-3,-3,-2,0,-1,-5,-5,-4
1558440347834369,0,-1,0,2,-3,-4,-4,-6
1558440347851323,0,-1,-3,-2,-4,3,1,-1
1558440347851323,2,2,6,4,4,-3,1,3
1558440347852321,-1,-2,-5,-6,-1,5,-1,0
1558440347852321,-2,-4,-4,-5,-14,-8,-6,-1
1558440347865286,1,0,-1,0,7,4,2,-1
1558440347865286,-1,0,-3,-5,-10,-8,-6,-2
1558440347873266,-2,-3,-1,-1,-3,-2,-3,-1
1558440347873266,2,3,2,8,18,5,10,7
1558440347888233,-3,-3,-7,-6,-5,0,-1,-2
1558440347888233,-1,-2,0,0,-5,0,-2,0
1558440347895205,0,-1,0,0,-4,1,0,-3
1558440347895205,-4,0,-4,2,-1,-3,-4,-2
1558440347911163,-1,0,2,-2,-1,0,3,-1
1558440347911163,-1,1,-3,-1,3,-2,-1,-3
1558440347912167,-3,-2,-5,-2,-8,-8,-6,-3
1558440347912167,0,-1,3,0,-7,-6,-6,0
1558440347925126,3,1,4,5,11,9,8,6
1558440347925126,1,-1,-2,0,2,1,-1,-1
1558440347933127,2,1,1,0,3,4,2,0
1558440347933127,0,-1,-1,-1,0,-2,0,0
1558440347948068,-2,-5,-2,-4,-4,-7,-6,-4
1558440347948068,-4,-4,-11,-6,-6,-1,-8,-6
1558440347955045,-3,0,6,6,-8,-4,-2,-2
1558440347955045,-1,0,-5,-4,3,4,3,2
1558440347971007,4,3,6,3,6,-9,5,2
1558440347971007,1,-2,1,0,-1,-2,0,-2
1558440347973001,-1,1,0,2,8,8,5,3
1558440347973001,-3,-1,-2,-2,-4,1,-2,-4
1558440347984967,-4,-2,-6,-4,-8,-6,-10,-4
1558440347984967,1,0,1,-3,0,1,2,0
1558440347993942,0,-2,-1,-1,1,1,1,2
1558440347993942,-2,0,2,0,5,9,1,0
1558440348007908,-3,1,-2,-2,1,2,-1,0
1558440348007908,-1,-3,-6,-3,-9,-12,-2,-2
1558440348014886,-1,-3,-3,-4,0,-7,-5,-2
1558440348014886,0,-1,-2,-2,-1,-1,-1,-2
1558440348030845,-1,-1,-3,-1,-6,1,-5,-5
1558440348030845,-1,-1,4,3,-1,1,-3,0
1558440348032839,-2,1,1,0,3,0,-5,-2
1558440348032839,-2,-3,-6,-2,1,-5,4,3
1558440348044813,3,3,5,5,8,-1,6,7
1558440348044813,-2,-2,-3,-3,5,8,1,-4
1558440348053782,-1,-1,-1,2,-1,-7,-1,-1
1558440348053782,-1,0,1,-6,-14,-13,-14,-6
1558440348067744,0,0,-1,-3,-3,8,4,1
1558440348067744,-1,-1,2,0,6,5,3,3
1558440348074730,-1,-1,-3,-3,-6,0,-5,-5
1558440348074730,-2,-1,2,0,-3,1,2,2
