timestamp,emg1,emg2,emg3,emg4,emg5,emg6,emg7,emg8
1558440267718673,1,-1,-1,2,-3,-1,2,0
1558440267718673,-1,0,0,5,-1,-5,-4,0
1558440267725653,-2,1,0,-9,-6,2,0,-1
1558440267725653,-4,-1,-3,3,4,7,-2,-3
1558440267725653,-1,-1,0,1,-4,-8,-3,0
1558440267725653,1,-1,0,-3,2,2,3,2
1558440267726651,1,-3,-3,0,-3,-2,-3,-3
1558440267726651,0,1,-1,0,-5,0,-4,-1
1558440267739617,-2,-1,0,-3,3,5,0,0
1558440267739617,-2,-1,-1,-5,0,-6,1,0
1558440267745601,-1,-2,0,5,5,3,1,1
1558440267745601,-2,-2,-2,-4,-6,-2,-1,-1
1558440267753579,-1,-1,-4,-2,-3,-1,-4,-3
1558440267753579,-2,-1,-3,1,0,1,-3,-4
1558440267771530,-2,-1,-2,0,-3,2,-5,-3
1558440267771530,0,-1,-1,-2,-4,-9,-5,-3
1558440267775522,2,3,4,-1,4,-12,6,7
1558440267775522,1,0,-2,2,2,-2,1,-1
1558440267786491,0,-1,1,-3,-5,-5,-2,1
1558440267786491,-2,1,0,4,9,4,-1,-2
1558440267799456,-3,-2,-3,-7,-7,4,0,-4
1558440267799456,-2,-2,-2,-3,-7,-3,-3,-3
1558440267805440,1,1,0,3,3,-2,-3,0
1558440267805440,0,-4,-3,-8,-14,-11,-5,-2
1558440267813419,1,0,-2,1,6,-2,1,0
1558440267813419,1,1,3,3,12,8,11,6
1558440267828379,0,1,1,1,7,-3,3,2
1558440267828379,0,0,1,2,2,-1,1,0
1558440267868272,-2,-3,-6,-11,-11,-4,-6,-7
1558440267868272,-3,-1,-2,-1,-5,2,-3,-5
1558440267869269,-2,-2,-1,3,1,2,0,0
1558440267869269,3,0,2,1,3,-11,1,3
1558440267869269,0,0,2,-1,-1,-3,1,3
1558440267869269,-1,-1,-3,3,-1,-2,-5,-1
1558440267872261,0,-1,0,-1,-4,-2,-2,-1
1558440267872261,-3,-3,-2,-10,2,10,1,-4
1558440267880241,-1,1,1,2,-4,-1,-2,-1
1558440267880241,-3,0,-2,-1,-3,3,0,0
1558440267887221,0,0,-3,-3,-1,-2,0,-2
1558440267887221,1,-3,-2,4,-2,-4,0,0
1558440267895200,-1,-1,-2,3,4,-1,-1,-2
1558440267895200,1,1,5,2,12,4,12,4
1558440267910161,-3,-2,-1,-5,-6,-2,-5,-5
1558440267910161,-3,-2,-2,0,-8,-2,-4,-3
1558440267918138,0,0,0,1,5,7,4,2
1558440267918138,-2,-1,0,2,0,-2,-1,0
1558440267925120,-3,-1,-3,-7,-1,0,-1,1
1558440267925120,-1,0,0,-1,-2,-3,-2,1
1558440267941076,-1,-2,-2,-2,-2,-3,-5,-2
1558440267941076,-3,0,-2,-3,-2,-3,-5,-5
1558440267947061,2,-1,-1,2,0,4,-1,-2
1558440267947061,-2,-2,-2,-3,-7,3,-7,-4
1558440267955040,-1,-1,-2,-2,1,-2,0,-1
1558440267955040,1,-4,0,2,-3,0,1,1
1558440267978977,-1,0,-1,-1,11,8,5,1
1558440267978977,1,2,2,1,1,-5,5,2
1558440267979972,-1,-1,0,0,-1,1,0,-1
1558440267979972,0,-1,0,0,-4,-8,-7,-4
1558440267984961,-3,-4,-4,-6,-6,3,-3,-3
1558440267984961,-1,0,0,0,-7,-5,-4,-2
1558440268000916,0,-2,-2,-3,0,6,3,0
1558440268000916,1,3,1,1,4,-7,4,4
1558440268006900,0,-2,-1,2,-2,-9,-2,0
1558440268006900,-2,-1,-4,-1,2,7,-1,-3
1558440268014879,-2,-2,-4,-3,-12,-15,-9,-4
1558440268014879,-1,-5,-4,-7,-2,-3,-4,-2
1558440268029839,1,2,5,7,14,11,17,6
1558440268029839,-2,0,-3,-4,-4,-12,-1,-1
1558440268037818,-2,1,2,2,1,5,2,1
1558440268037818,-1,-3,-4,-5,-2,3,-4,-2
1558440268044801,-3,1,-1,-6,-9,-11,-8,-2
1558440268044801,-2,-2,-3,6,3,5,-4,-2
1558440268060757,-2,-1,-3,-7,-1,-3,1,1
1558440268060757,2,3,1,-3,-8,-2,-2,-1
1558440268067738,-1,-1,-4,-4,-10,-7,-8,-3
1558440268067738,-1,2,2,2,9,8,7,3
1558440268074721,-1,-1,0,1,0,-5,-4,0
1558440268074721,-3,1,2,0,6,4,0,-3
1558440268089680,-2,-2,-4,-5,-10,-3,-6,-4
1558440268089680,-1,-1,-3,-2,-8,0,-6,-5
1558440268097659,3,2,2,2,7,0,5,2
1558440268097659,-2,-1,-3,-1,1,3,-1,-1
1558440268104640,1,2,3,2,0,-8,3,2
1558440268104640,-1,-1,-1,-3,-2,1,0,0
1558440268120597,-1,-3,-2,-1,-4,2,-6,-4
1558440268120597,2,0,0,2,0,6,5,0
1558440268127578,-2,-3,-6,-7,-7,-8,-3,-4
1558440268127578,-1,-2,0,-2,-3,-6,-2,-1
1558440268134562,-1,-1,-1,0,2,0,1,0
1558440268134562,-3,-2,-1,-1,-10,-10,-7,-2
1558440268149520,-1,-4,1,2,-1,0,-2,-1
1558440268149520,-1,1,-1,1,8,15,8,4
1558440268158497,-1,-2,0,1,-3,-1,-4,-2
1558440268158497,-2,-1,-1,-3,-5,-5,-3,-3
1558440268164481,-1,-1,-1,0,0,2,-4,-1
1558440268164481,1,-1,-2,-3,-2,-7,-5,-2
1558440268180437,1,1,0,1,3,0,2,1
1558440268180437,1,0,-2,-4,2,4,3,0
1558440268187418,0,-1,0,3,-3,-2,0,-1
1558440268187418,0,-1,2,0,1,-7,-5,0
1558440268195398,-2,2,1,2,6,1,1,0
1558440268195398,-2,-4,-1,-6,-8,-1,-3,-3
1558440268210356,-2,-1,-2,-3,-5,-1,-5,-2
1558440268210356,-1,-2,-2,2,-2,4,2,-1
1558440268218335,-1,-3,-3,-4,-11,-13,-6,-3
1558440268218335,0,-1,-2,-2,0,4,3,2
1558440268232300,0,0,0,4,9,-8,3,4
1558440268232300,1,-1,1,-3,-1,1,0,-1
1558440268240276,-1,-1,0,1,-2,3,-5,-2
1558440268240276,-3,-1,-3,1,-3,3,-4,-3
1558440268247257,0,0,-2,-1,-2,3,-3,-3
1558440268247257,0,2,1,-1,-1,-6,3,0
1558440268255238,-1,-1,-2,0,-4,-5,-4,-1
1558440268255238,0,-3,-3,-4,-13,-13,-10,-4
1558440268270198,-1,0,3,6,20,26,14,4
1558440268270198,-2,-3,-1,1,3,0,0,0
1558440268278177,-2,-1,1,2,2,9,1,-2
1558440268278177,-4,-2,-5,-6,-1,-3,-3,-1
1558440268292138,1,1,2,1,-9,-23,-6,-2
1558440268292138,-1,-2,-1,-5,-2,-4,-3,-2
1558440268301113,-4,-4,-3,-3,-2,3,0,-1
1558440268301113,1,-2,-2,0,-2,-3,-4,-1
1558440268307100,-1,-3,-4,-1,6,16,-1,-4
1558440268307100,-1,-1,2,-1,2,1,3,2
1558440268315077,3,3,2,-1,-1,-13,2,4
1558440268315077,-1,-1,0,1,0,-2,0,0
1558440268330037,-4,-5,-4,-2,-7,-7,-6,-3
1558440268330037,-1,-2,-2,3,4,6,0,-1
1558440268338015,-1,-2,-4,-7,0,4,4,-1
1558440268338015,1,2,2,0,2,-4,-1,0
1558440268351978,-2,-1,-2,-2,2,4,0,0
1558440268351978,0,0,1,-1,-3,-7,0,1
1558440268360955,-2,0,-2,0,-3,-2,-4,-2
1558440268360955,1,0,-1,0,6,-4,0,2
1558440268367936,0,-1,0,-5,-10,-4,-10,-4
1558440268367936,-3,-2,-3,-1,-3,1,-1,-1
1558440268374917,0,-1,-3,-3,-6,-7,-4,-2
1558440268374917,0,-2,0,0,0,4,2,0
1558440268389876,0,2,1,2,4,2,3,-1
1558440268389876,-2,0,0,-2,-1,1,-3,-1
1558440268397860,-2,-2,0,-1,0,-3,1,-1
1558440268397860,-3,-2,2,0,3,7,1,-2
1558440268412829,0,0,0,-2,-6,-9,-4,0
1558440268412829,-2,0,-3,-2,-4,0,-3,-3
1558440268420794,-1,1,-1,0,-1,0,-2,1
1558440268420794,-2,-2,-5,-1,-5,-9,-4,-2
1558440268427775,-1,0,3,-2,0,5,6,2
1558440268427775,-2,-3,-4,-5,-5,-1,-5,-3
1558440268434758,-1,-1,1,1,-1,9,0,0
1558440268434758,2,-1,1,-2,2,-11,3,2
1558440268449717,0,1,-3,-2,0,-4,-4,-2
1558440268449717,-1,0,-4,-2,-7,-5,-3,-3
1558440268457696,0,2,2,4,5,10,4,-1
1558440268457696,1,-1,2,-1,0,-4,-3,1
1558440268472656,-2,-4,-3,-4,-3,1,-4,-1
1558440268472656,1,-1,3,4,7,6,4,1
1558440268480636,0,-1,-2,-4,-2,-15,-2,0
1558440268480636,-1,-1,-1,-1,1,6,4,-1
1558440268487615,-1,-2,0,-1,-4,-3,-3,-2
1558440268487615,-2,-3,-2,-3,-4,-2,-5,-3
1558440268494604,-2,-2,-4,-5,-6,-3,-3,0
1558440268494604,-3,0,-1,-2,-6,2,-3,-5
1558440268509556,1,1,-2,0,0,-1,3,3
1558440268509556,3,2,2,1,14,10,9,5
1558440268518543,0,-1,1,2,6,3,3,0
1558440268518543,-2,1,-1,-2,-2,5,-2,-1
1558440268532497,-3,-2,-5,-2,-4,-3,-7,-2
1558440268532497,-1,1,-2,-1,-6,-19,-2,1
1558440268540488,0,-1,-2,-3,1,2,0,0
1558440268540488,-2,0,-4,-1,-4,0,-5,-3
1558440268547463,0,0,-1,-1,1,-2,-1,0
1558440268547463,-2,-3,-3,-4,-9,-9,-8,-3
1558440268563417,1,1,0,7,14,15,10,2
1558440268563417,0,-1,-2,-7,-4,-9,2,1
1558440268570396,-1,2,2,-1,3,2,5,1
1558440268570396,-2,-2,-3,-1,-5,-4,-6,-2
1558440268578374,-1,0,1,-3,-7,-6,-4,-3
1558440268578374,0,0,1,2,1,4,0,0
1558440268592339,-2,-3,-5,-5,-10,-8,-4,-4
1558440268592339,-2,-5,-3,-1,-5,-1,-5,-6
1558440268600321,-2,-3,-3,-4,-10,-6,-8,-4
1558440268600321,4,0,2,5,18,7,14,8
1558440268607295,-1,0,2,0,3,-12,-2,1
1558440268607295,-2,0,-1,3,2,9,2,-1
1558440268623253,0,-2,0,-2,6,0,0,0
1558440268623253,-3,-3,-2,-1,-8,-7,-5,-5
1558440268630234,-1,-3,-1,0,-6,1,-3,-4
1558440268630234,-2,-3,-4,-5,-3,1,-4,-5
1558440268638213,-1,0,-1,0,-3,-3,0,0
1558440268638213,-2,0,1,1,3,-4,0,2
1558440268652175,-1,0,0,0,4,11,5,-1
1558440268652175,-1,-3,-2,-4,-8,-12,-4,0
1558440268660153,-1,-1,-2,-1,2,2,4,0
1558440268660153,-3,-2,-2,-2,-4,-2,-5,-4
1558440268667135,1,0,-1,6,5,-4,-3,-1
1558440268667135,-1,-2,-2,-9,-9,1,-2,-2
1558440268683098,-3,-2,0,-1,-5,-1,-6,-3
1558440268683098,2,1,-1,-1,4,-10,3,4
1558440268690078,-1,-1,0,-1,-2,-4,-2,-2
1558440268690078,2,2,2,7,13,11,9,4
1558440268698053,-3,-4,-4,-3,-3,-2,0,-2
1558440268698053,-1,1,1,1,-3,1,-6,-4
1558440268712024,-1,-2,-1,1,1,0,1,-1
1558440268712024,-1,0,-5,-5,-6,-4,-2,-1
1558440268720992,-1,0,-1,-3,-7,-3,-3,-4
1558440268720992,-3,-3,0,-2,-8,0,-8,-4
1558440268727974,-1,-3,0,0,3,0,2,0
1558440268727974,3,3,4,5,13,0,9,4
1558440268742936,-1,-3,-2,-3,-5,-3,-4,-2
1558440268742936,0,0,0,5,8,11,6,1
1558440268749916,-3,0,-2,-14,-12,0,-3,-4
1558440268749916,-1,-2,-1,2,0,-1,-3,-2
1558440268757894,-3,0,-3,-4,-1,4,2,-1
1558440268757894,-2,-2,-4,-3,-4,-8,-7,-3
1558440268772866,-2,-5,-5,-5,-13,-6,-10,-4
1558440268772866,2,0,7,7,11,10,12,4
1558440268780832,5,1,2,1,0,-14,3,3
1558440268780832,-3,-4,-4,1,1,3,3,-2
1558440268787814,0,3,2,2,5,3,3,2
1558440268787814,-4,-3,-3,-6,-9,0,-10,-7
1558440268802778,-1,-1,-2,0,-3,-4,-5,-2
1558440268802778,-1,-2,-4,-3,-5,1,-1,-2
1558440268809761,-3,-1,0,0,-4,-4,-1,-4
1558440268809761,-4,1,-1,-4,-4,-3,-4,-2
1558440268817736,-2,0,1,2,-1,4,-3,-1
1558440268817736,-2,-2,-3,-8,0,-8,-5,-1
1558440268841670,1,-1,-3,0,3,1,0,3
1558440268841670,3,1,3,4,3,-7,1,3
1558440268841670,0,0,0,0,4,-6,2,0
1558440268841670,-1,0,-2,-1,-8,0,-5,-3
1558440268854641,-1,-2,3,1,3,2,4,-1
1558440268854641,-1,-2,-2,-2,-5,-3,-5,-3
1558440268863610,-1,-2,-1,0,-5,1,-2,-1
1558440268863610,-2,-1,-2,-2,3,4,-2,1
1558440268878574,-3,-1,-3,-1,-7,-3,-5,-4
1558440268878574,-1,-2,-1,-1,2,6,6,2
1558440268879568,1,0,1,2,12,-6,2,3
1558440268879568,1,1,0,-1,-5,-5,1,1
1558440268892539,1,1,-1,-1,-1,1,0,0
1558440268892539,-3,-3,-6,-4,-6,-3,-6,-5
1558440268900511,2,-1,-1,-2,0,4,0,-2
1558440268900511,-1,0,0,-3,0,-1,2,-1
1558440268915473,-1,-3,-2,1,-3,0,-2,-3
1558440268915473,-1,-2,-3,-4,-13,-11,-8,-3
1558440268923456,2,-1,1,2,8,-3,5,3
1558440268923456,0,1,3,9,17,7,9,4
1558440268954366,-3,-1,-4,-12,-6,2,-1,-1
1558440268954366,-1,1,-1,-3,-10,-12,-7,-2
1558440268955364,-5,-3,-2,-2,-8,0,-3,-3
1558440268955364,0,-3,-1,-2,-1,5,-1,-3
1558440268956362,3,0,1,3,2,5,0,-1
1558440268956362,1,1,0,-3,3,9,5,1
1558440268960350,-1,0,-2,0,2,-1,3,1
1558440268960350,-1,-2,-1,-5,-3,-8,-2,-1
1558440268975309,-1,-2,1,1,-5,-7,-4,1
1558440268975309,-1,-2,-2,-3,-7,-6,-7,-5
1558440268983295,-3,-1,-2,0,5,16,5,-2
1558440268983295,-1,0,1,-1,-3,0,0,1
1558440268998254,2,1,-1,1,3,-9,2,-1
1558440268998254,-1,-1,1,1,-1,-9,0,-1
1558440268999249,-2,-3,-1,-4,-11,-6,-7,-2
1558440268999249,0,-2,-1,0,-3,2,-3,-4
1558440269012215,-2,0,-3,0,5,7,8,3
1558440269012215,-2,-2,-1,0,0,-9,-1,1
1558440269020193,-3,-3,-3,-4,2,5,-1,-2
1558440269020193,-2,-1,-2,-1,-6,-7,-3,0
1558440269035156,-2,-2,-1,-2,-4,-10,-6,-2
1558440269035156,0,-3,0,-2,-1,-4,-2,0
1558440269043202,-1,1,-1,1,4,10,4,-2
1558440269043202,-3,-1,0,1,5,5,4,0
1558440269058099,0,-1,2,0,1,-10,2,2
1558440269058099,-2,1,-1,-1,1,5,-1,0
1558440269059088,1,-1,-2,1,-9,-10,-6,-5
1558440269059088,-2,-3,-4,-10,-8,-1,-4,-4
1558440269074056,0,-2,0,1,1,8,4,-2
1558440269074056,0,0,-2,-2,-1,-5,2,-1
1558440269081075,1,-3,-1,-3,-10,-4,-5,-3
1558440269081075,-1,-1,1,5,3,0,0,1
1558440269095007,-2,-1,0,-1,5,4,2,2
1558440269095007,1,-1,-1,2,7,3,0,-1
1558440269110959,-2,-1,-5,-3,-3,0,-4,-3
1558440269110959,-2,2,0,-2,-1,-5,0,-2
1558440269117930,-1,-1,-2,-3,-9,-9,-4,-2
1558440269117930,-1,1,1,2,7,8,6,2
1558440269118928,0,1,0,-3,0,-1,-5,-3
1558440269118928,-2,-2,-3,-3,-4,0,-1,-4
1558440269132888,1,2,0,-1,3,0,-1,2
1558440269132888,-2,-2,-1,3,6,7,2,1
1558440269140871,-4,-4,-4,-4,-9,-6,-7,-4
1558440269140871,1,-1,2,2,-2,-1,0,-2
1558440269154830,-2,-1,-2,0,7,-1,2,0
1558440269154830,-1,-2,-1,-3,-12,-2,-6,-2
1558440269162811,-2,-4,-2,-2,-2,3,0,1
1558440269162811,1,0,0,-1,1,-10,-1,1
1558440269177769,-2,-2,-2,-2,1,5,-1,0
1558440269177769,-1,1,0,-2,-4,-3,0,-1
1558440269178766,-1,-1,0,0,-1,-6,0,1
1558440269178766,-1,-2,1,-1,-5,-3,-5,-3
1558440269193726,-1,-1,-1,-1,1,-7,-3,-3
1558440269193726,-1,-1,-1,4,9,3,3,1
1558440269200707,0,-2,-2,-6,-8,-3,-3,-1
1558440269200707,1,-2,-3,-1,-2,5,0,-1
1558440269214676,-3,-2,-1,0,-4,-3,-3,-2
1558440269214676,-1,0,0,-1,0,-6,-1,1
1558440269223652,-1,2,-1,0,3,-1,1,1
1558440269223652,-1,-2,-3,3,0,4,-2,-1
1558440269237627,-1,-1,3,-3,-7,3,2,1
1558440269237627,-2,-2,-1,-3,-4,-3,-6,-1
1558440269246588,1,1,1,0,4,3,6,1
1558440269246588,0,-1,0,0,0,-3,-3,-3
1558440269252573,2,-2,-1,3,5,-2,0,-1
1558440269252573,-1,-3,-2,-2,-8,-2,-4,-6
1558440269268570,0,-1,3,3,1,1,1,0
1558440269268570,-1,0,-1,-3,2,-6,1,1
1558440269275551,-1,0,-1,0,4,-1,-1,-3
1558440269275551,-1,-2,-2,-4,-6,-5,-2,-2
1558440269283495,-1,1,0,-3,0,-4,-2,0
1558440269283495,-1,-2,-1,-1,-5,-1,1,0
1558440269297453,-3,-1,-3,-1,-4,-1,-2,-3
1558440269297453,0,1,0,0,-3,2,-3,0
1558440269314406,-2,-1,-3,-2,2,5,0,-2
1558440269314406,-2,1,0,0,2,3,3,3
1558440269315407,1,2,1,-1,0,2,0,1
1558440269315407,-1,2,3,4,2,5,-1,-1
1558440269321387,-3,-5,-5,-8,-4,-5,-3,-2
1558440269321387,0,-2,-1,-2,-3,-5,-3,-1
1558440269335353,-3,-4,-5,-4,-8,-4,-4,-4
1558440269335353,0,-1,0,0,7,7,6,2
1558440269350308,-2,0,-1,2,-1,0,-3,-3
1558440269350308,1,-1,-4,-2,5,0,-3,-4
1558440269357290,0,-4,-2,-4,-12,-5,-2,1
1558440269357290,2,0,-1,2,12,10,9,3
1558440269366264,-1,-1,1,1,-1,-1,0,0
1558440269366264,-2,-2,-3,-3,-6,-2,-5,-2
1558440269372251,0,1,-1,0,-2,-2,-1,2
1558440269372251,-2,-2,-2,-1,-5,-5,-9,-5
1558440269389206,0,-1,-1,-1,-2,3,2,1
1558440269389206,0,-1,3,0,4,2,2,1
1558440269395190,-2,-3,-3,-1,-1,4,-2,-2
1558440269395190,-1,-1,-1,-2,-5,-10,-2,-2
1558440269404177,-1,-2,-2,0,3,5,1,-2
1558440269404177,-2,0,-3,1,-6,0,-3,-3
1558440269417139,-2,-1,-1,-2,2,-5,-4,-1
1558440269417139,1,1,-1,-3,0,-11,3,2
1558440269434097,2,2,-1,4,-9,-11,-2,-1
1558440269434097,-1,-2,-3,-5,6,9,2,-1
1558440269435083,-1,-1,-2,1,0,6,-2,-2
1558440269435083,-3,-1,-2,-2,-5,-3,-2,0
1558440269441067,0,0,-1,2,4,-3,0,-1
1558440269441067,-3,-4,-3,-3,-13,-14,-5,-3
1558440269455133,0,-2,-1,-2,4,0,0,-1
1558440269455133,-2,-4,-2,3,10,18,6,0
1558440269471092,0,1,1,0,-2,-5,-2,0
1558440269471092,0,1,0,1,6,7,6,0
1558440269477972,-1,-2,-3,-4,-10,-7,-6,-4
1558440269477972,0,-3,-2,0,1,5,1,-2
1558440269485948,-1,-3,-2,-2,-1,-4,-3,-2
1558440269485948,-2,-1,3,0,-2,-15,-4,-1
1558440269493048,1,2,3,3,5,1,8,1
1558440269493048,-2,1,-2,-4,-7,-1,-4,-4
1558440269508894,-3,-3,-4,-1,-3,3,-3,-4
1558440269508894,-2,-2,-2,0,1,8,-1,1
1558440269514919,-1,0,-1,-1,-3,-10,-1,2
1558440269514919,2,-1,-1,-1,0,-9,-1,1
1558440269523857,0,1,-2,-2,-6,-9,-2,-2
1558440269523857,-1,0,0,0,0,5,-2,-2
1558440269546821,-4,-2,-2,-4,-2,4,-3,-2
1558440269546821,-1,-2,-1,-2,-2,-6,0,0
1558440269547783,0,-2,0,4,1,0,-2,-1
1558440269547783,-4,-1,-3,-9,-7,-3,0,-1
1558440269552790,-1,0,0,-1,2,3,-3,-2
1558440269552790,-1,0,-2,-1,-5,-7,-7,-3
1558440269561743,-1,-3,-3,-6,-1,2,0,-2
1558440269561743,4,-1,0,-1,-1,-4,-3,-1
1558440269574918,2,1,2,4,7,-2,4,3
1558440269574918,-3,0,-1,0,2,-1,3,-1
1558440269597651,-3,-1,0,-1,-2,3,-2,-2
1558440269597651,-1,-3,-4,-6,-15,-8,-3,-3
1558440269598644,-2,1,0,-1,0,8,0,-1
1558440269598644,0,-1,-1,0,5,3,2,-1
1558440269606627,-2,0,0,-1,-1,-1,-1,-1
1558440269606627,-1,0,2,2,4,0,2,1
1558440269612607,-1,-1,-2,0,-2,0,-2,-1
1558440269612607,-1,1,2,5,7,8,6,4
1558440269628567,1,-4,-5,-13,-8,-9,-4,0
1558440269628567,1,-1,-1,4,2,-2,-1,-2
1558440269634550,-2,-3,-2,-3,-10,-5,-3,-2
1558440269634550,-2,-5,-3,-7,-8,-2,-9,-5
1558440269643556,0,1,3,2,8,4,4,3
1558440269643556,-1,-2,1,6,8,4,7,3
1558440269666690,0,-1,-1,-3,2,-9,-2,0
1558440269666690,-2,-2,-2,-5,-9,-4,-6,-6
1558440269667463,-1,-3,0,2,1,-1,1,0
1558440269667463,-1,0,-2,-1,0,-1,-1,-2
1558440269681647,-2,0,2,0,4,2,6,1
1558440269681647,-1,-3,-4,-3,-9,-4,-6,-2
1558440269682422,1,1,1,4,10,15,8,6
1558440269682422,0,-1,0,-3,-2,-6,-6,-2
1558440269695389,-1,-3,-5,-5,-11,-7,-7,-3
1558440269695389,0,1,0,-2,1,-3,4,2
1558440269711348,-2,-1,-2,-3,-3,-2,-4,-3
1558440269711348,0,0,0,0,-1,2,0,0
1558440269717545,-2,-3,-1,2,-1,-11,-3,0
1558440269717545,1,-1,-1,-7,3,7,0,0
1558440269726310,-2,-1,-1,0,-1,-2,0,0
1558440269726310,-1,-3,-1,-2,-12,-5,-7,-3
1558440269749293,1,0,-2,3,8,13,8,-1
1558440269749293,0,1,2,2,-2,-10,-1,1
1558440269750248,-2,-2,-5,-2,0,1,-1,-2
1558440269750248,-4,-2,-4,0,-5,-4,-8,-3
1558440269755403,-3,-2,-3,-6,-7,3,-8,-5
1558440269755403,1,2,2,4,4,-4,2,1
1558440269764202,0,-1,0,1,-2,-6,-2,-1
1558440269764202,-1,-1,-2,-3,2,1,1,-1
1558440269786143,-2,-1,-4,0,6,3,3,0
1558440269786143,-1,-2,-1,-1,-5,-1,-2,-2
1558440269788139,-1,-1,-2,-3,-8,-10,-5,-4
1558440269788139,-2,-2,-1,-2,-1,-2,3,0
1558440269801107,-1,-2,2,0,4,1,3,3
1558440269801107,-1,-2,-2,-1,-3,4,-1,-1
1558440269803098,-1,-2,1,-1,-4,2,-2,-1
1558440269803098,-2,-1,-3,-3,-4,-2,-5,-2
1558440269815283,2,0,0,0,3,5,0,0
1558440269815283,-2,-3,-1,-1,-5,-3,-1,-2
1558440269831269,0,1,0,0,-1,-5,0,0
1558440269831269,0,0,0,0,9,0,4,2
1558440269838115,-2,-3,1,0,1,6,2,0
1558440269838115,-5,-2,-5,-2,-4,-4,-8,-5
1558440269846268,-1,0,1,0,0,-5,-5,-4
1558440269846268,0,-1,0,0,-2,2,3,1
1558440269860219,2,0,-1,-2,-1,-2,0,2
1558440269860219,-1,-1,-3,-2,-7,-3,-2,-3
1558440269868921,-1,-1,-1,-3,-3,-3,-1,0
1558440269868921,-3,0,-1,-1,0,3,0,0
1558440269875258,-1,0,-4,-3,-2,-3,-2,0
1558440269875258,0,0,2,-1,4,3,1,0
1558440269883881,-3,-3,0,0,4,-6,0,1
1558440269883881,2,-1,1,-2,-2,-1,0,-1
1558440269906129,-1,-1,-2,-1,-7,-1,-5,-1
1558440269906129,-2,-1,-1,0,1,0,5,2
1558440269907818,-2,0,-2,-3,1,7,-3,-2
1558440269907818,-1,-1,-3,-1,-2,2,0,-2
1558440269922065,2,2,2,3,7,-10,3,1
1558440269922065,-1,-2,-3,0,-4,1,-4,-3
1558440269922778,-2,-1,-1,-3,-6,0,0,-1
1558440269922778,-2,0,0,2,2,-2,-2,2
1558440269935018,-3,-2,-2,-4,-13,-9,-7,-5
1558440269935018,0,0,1,-1,4,-2,4,3
1558440269951702,-1,0,-2,1,3,8,1,-2
1558440269951702,1,-1,1,-3,-5,-7,-5,-3
1558440269957924,-1,-2,-1,-1,4,4,1,-2
1558440269957924,-1,1,-1,-1,2,-5,0,-1
1558440269966660,0,-1,-2,-2,-4,4,-1,-3
1558440269966660,-1,1,1,2,7,-6,2,1
1558440269988601,-1,0,-3,-3,-3,0,-1,-1
1558440269988601,0,-1,-2,-4,-8,-4,-6,-2
1558440269990596,1,-2,0,1,1,0,2,1
1558440269990596,4,1,1,-1,7,2,5,3
1558440269994586,-1,-2,-2,0,-5,-7,-7,-3
1558440269994586,0,-3,-3,-1,-4,3,-4,-3
1558440270003559,-2,-1,-2,1,-2,4,-4,-3
1558440270003559,0,0,-3,-6,-14,-13,-3,-2
1558440270026497,-1,1,2,1,-2,-2,-2,0
1558440270026497,-2,-1,-1,1,3,2,0,-1
1558440270027496,-1,1,1,1,0,-6,3,3
1558440270027496,-1,-3,-2,1,4,13,5,0
1558440270041495,-2,-3,-2,-2,-3,-2,-4,-3
1558440270041495,-2,0,-1,-3,-2,0,-1,1
1558440270042458,1,-1,0,2,6,5,3,2
1558440270042458,-2,-1,0,0,0,2,-1,-1
1558440270055758,-2,-1,-3,-3,-3,0,-6,-2
1558440270055758,-2,-1,-1,-2,-8,-8,-7,-4
1558440270063628,-2,-2,-2,-1,-6,-10,-1,-3
1558440270063628,0,2,3,0,8,10,0,1
1558440270077363,0,-2,-2,1,-1,-4,0,1
1558440270077363,-1,-2,-1,3,7,3,-1,0
1558440270086352,-1,0,-4,-7,-8,-5,-5,-3
1558440270086352,-2,-1,-3,-1,-4,-5,-3,-3
1558440270109597,-1,-1,-2,0,1,4,2,0
1558440270109597,-3,-1,-1,-5,-4,4,-2,-2
1558440270110534,-2,-4,-3,-2,-4,-8,-2,-1
1558440270110534,0,0,1,0,4,-2,3,-1
1558440270115583,-2,0,2,2,1,0,2,-1
1558440270115583,-2,0,-1,-1,-2,-2,-1,-2
1558440270124501,-3,-2,-3,-1,-6,-7,-7,-2
1558440270124501,-2,-1,-3,-1,1,6,-4,-3
1558440270146501,-1,0,0,0,3,6,5,0
1558440270146501,0,-1,0,0,-1,-8,-2,1
1558440270148173,-2,-1,-3,-3,-7,-9,-10,-3
1558440270148173,2,-2,-2,1,3,-9,-2,0
1558440270160471,-1,1,-2,-4,-2,9,4,-1
1558440270160471,1,0,-4,1,4,4,3,0
1558440270186072,-1,0,-1,-1,0,2,-1,0
1558440270186072,-2,-2,-4,-1,-4,-6,-3,-3
1558440270186072,-2,-1,0,-1,-4,-8,-5,-3
1558440270186072,-1,0,-2,-1,-1,-3,-2,-1
1558440270190345,-1,2,2,2,11,14,10,2
1558440270190345,0,-3,0,-1,-2,-3,-1,-2
1558440270197042,-1,-3,0,-2,0,-2,0,-2
1558440270197042,-1,-2,-1,-1,-4,1,-2,-1
1558440270206018,2,2,1,1,8,4,4,3
1558440270206018,-2,-1,-2,-3,-8,-2,-4,-1
1558440270228987,0,-2,-2,-2,-5,-5,-4,-2
1558440270228987,2,-1,1,0,3,-3,-2,-3
1558440270229954,-1,-2,-1,0,1,3,4,0
1558440270229954,0,-3,-2,0,-1,-4,1,0
1558440270234995,-2,-2,-1,-1,-1,-7,-2,0
1558440270234995,-2,-1,0,-1,-2,2,-2,-2
1558440270243917,-1,0,-1,-3,-3,-5,-3,-1
1558440270243917,-1,1,1,2,3,2,-4,0
1558440270267015,-1,-2,-3,-7,-8,-2,-5,-2
1558440270267015,-1,0,-2,-2,-7,-3,-4,-2
1558440270267854,0,-2,1,1,1,1,4,0
1558440270267854,1,-2,-3,-3,-10,-7,-6,-2
1558440270281119,0,1,0,4,17,14,8,3
1558440270281119,-1,-1,1,0,-8,-15,-7,-3
1558440270287851,-3,-4,-3,-3,0,-2,-1,-2
1558440270287851,-4,-2,0,-1,-4,-2,0,0
1558440270303804,-2,-1,-1,0,-2,-1,0,2
1558440270303804,-3,-3,0,-2,2,8,3,0
1558440270306024,1,0,-2,-2,-6,-4,-5,-3
1558440270306024,-1,1,-2,0,1,6,-1,-2
1558440270318024,0,1,-1,-1,-1,-13,-1,-2
1558440270318024,-1,-2,1,-1,1,-4,1,2
1558440270326698,-2,0,-1,-1,-4,0,-2,-2
1558440270326698,-1,-1,-1,-3,3,2,1,0
1558440270340956,0,-1,-1,1,0,4,-3,-5
1558440270340956,-2,-1,-1,-1,0,6,0,0
1558440270347643,0,0,-1,0,-5,-16,-5,-2
1558440270347643,-1,-1,0,-2,-2,4,4,1
1558440270355624,-2,-1,0,-2,1,1,-2,0
1558440270355624,1,-1,-2,-1,-1,-2,-2,-5
1558440270363598,1,-1,1,2,12,15,8,3
1558440270363598,-1,-2,0,-1,4,2,-3,-1
1558440270386538,-1,0,1,0,-3,-5,1,0
1558440270386538,-3,-1,-3,-3,-8,3,0,-2
1558440270387533,0,-2,0,-3,-6,-9,-5,-2
1558440270387533,-3,-3,0,-1,-3,-3,-1,-3
1558440270400694,-1,0,-2,-1,0,-3,0,1
1558440270400694,1,1,1,0,6,3,-4,1
1558440270408477,-2,-1,-3,-1,-5,-9,0,0
1558440270408477,0,1,0,-1,-10,-3,-2,-3
1558440270415714,0,-1,0,-1,-1,-3,-4,1
1558440270415714,-1,-1,0,1,9,12,6,3
1558440270424467,1,0,-1,0,-2,0,-4,-3
1558440270424467,0,-1,1,0,1,3,2,1
1558440270437401,-3,-2,-3,-4,-11,-8,-7,-6
1558440270437401,2,0,1,4,5,-5,7,5
1558440270446378,-1,-4,-3,-5,-1,4,-4,-2
1558440270446378,-2,-2,-3,-2,-6,-3,-3,-3
1558440270460529,-1,0,0,0,6,6,2,-1
1558440270460529,-6,-3,-2,-5,-8,-7,-8,-7
1558440270477295,-3,-1,-1,-2,-2,0,2,-1
1558440270477295,0,1,-2,-2,1,-6,-1,1
1558440270477295,0,-2,-1,2,8,10,3,2
1558440270477295,0,0,-2,0,-3,-4,-4,0
1558440270484306,-2,-1,-1,2,0,2,0,-1
1558440270484306,-1,-3,-3,-4,-9,-1,-7,-3
1558440270506530,0,-3,-4,-1,0,3,2,0
1558440270506530,-1,-2,-2,-4,-8,-16,-5,-2
1558440270507526,0,0,5,2,9,8,3,3
1558440270507526,-3,-5,1,1,0,-6,-2,-2
1558440270520932,0,1,-2,-1,-4,2,0,-2
1558440270520932,-1,-1,-1,-3,-6,1,-2,-2
1558440270527472,0,-3,-6,-3,-6,-4,-4,-3
1558440270527472,2,-1,0,-2,2,-2,1,2
1558440270543881,3,-1,1,-1,-6,-11,-3,-2
1558440270543881,1,-2,-1,-1,7,9,4,1
1558440270545425,1,2,0,0,6,8,3,2
1558440270545425,-3,0,-1,-1,-1,-2,-2,-3
1558440270557752,-4,-2,-2,0,-3,2,-4,-4
1558440270557752,-1,0,-1,-4,-4,-1,-2,-1
1558440270566371,-1,0,1,2,5,0,0,0
1558440270566371,0,0,-2,1,0,-2,3,1
1558440270580698,-1,-4,0,-2,-9,-9,-6,-3
1558440270580698,1,-1,-2,0,-2,-2,0,-1
1558440270587313,2,-1,-1,-3,0,2,0,-1
1558440270587313,-1,0,0,3,8,10,1,1
1558440270603269,-3,-1,-1,-1,-9,-2,-7,-4
1558440270603269,-3,-3,-5,-3,-4,-3,-3,-4
1558440270605264,0,1,1,1,7,-7,2,3
1558440270605264,-1,1,-2,-2,-1,-8,0,-2
1558440270617230,-1,1,-1,-2,-1,2,-2,0
1558440270617230,-3,-2,0,-1,-3,8,-3,-4
1558440270627933,-2,-4,-4,0,-4,-4,-5,-5
1558440270627933,0,0,-1,-1,-3,0,0,1
1558440270640170,-2,-2,-4,-5,-3,-1,0,-2
1558440270640170,-1,-1,0,0,6,4,2,0
1558440270655358,-1,1,0,-1,-4,-8,-2,0
1558440270655358,-1,-2,0,-1,0,0,-3,-2
1558440270664445,0,-3,-2,-1,-1,0,1,1
1558440270664445,0,1,-2,2,-6,-3,-1,0
1558440270665371,-4,-3,-6,-8,-5,-5,-6,-2
1558440270665371,-2,1,0,2,4,4,2,2
1558440270677315,2,0,0,-3,0,0,2,4
1558440270677315,0,-2,-2,0,-1,-4,-4,-1
1558440270686280,-2,-1,1,-1,-6,-3,0,-1
1558440270686280,-1,-1,-4,-2,-3,1,-1,-3
1558440270700243,-2,-1,1,3,7,0,-2,-1
1558440270700243,0,0,-2,-7,-7,-6,-1,-1
1558440270707747,-1,-1,-1,0,-3,-1,-4,-2
1558440270707747,-2,-1,-1,-2,0,-4,-1,-2
1558440270724664,-1,0,-2,-1,1,4,3,0
1558440270724664,1,1,1,1,4,1,4,2
1558440270726258,-3,-2,0,-2,-6,-1,-6,-1
1558440270726258,0,-2,-3,-4,0,5,0,-3
1558440270738329,1,-1,0,-2,0,-7,0,2
1558440270738329,-2,-1,1,0,0,4,2,0
1558440270746556,-2,-2,-3,1,-5,4,0,-3
1558440270746556,-2,-3,-3,-1,-8,-6,-6,-3
1558440270760464,1,3,5,1,9,-5,8,4
1558440270760464,1,-3,-1,0,3,-1,-5,-2
1558440270786011,-1,-3,1,0,3,5,6,-2
1558440270786011,-2,-3,-3,-5,-10,-4,-7,-3
1558440270787041,-3,-3,-4,-1,-4,-2,-4,-2
1558440270787041,0,0,-1,-2,3,-1,-1,0
1558440270790004,-3,-2,0,-1,-3,-2,-4,-2
1558440270790004,1,1,0,-1,-1,3,1,-1
1558440270798131,-4,-3,-7,-4,-5,-3,-1,-3
1558440270798131,1,3,1,2,2,-2,0,1
1558440270813938,-1,-2,-2,-2,-3,-3,-2,-1
1558440270813938,0,1,1,-2,-3,-1,-1,-1
1558440270819921,-1,0,2,0,7,2,-1,-3
1558440270819921,-1,-4,-4,-3,-8,-3,-4,-3
1558440270828897,1,1,0,-1,0,2,1,0
1558440270828897,-1,-2,1,0,0,-2,0,-1
1558440270843857,-1,-1,-1,-4,-7,1,1,-2
1558440270843857,-3,-2,-1,2,4,-1,-2,-1
1558440270844857,0,2,1,1,5,-10,3,2
1558440270844857,-1,-4,-3,-2,-4,1,-4,-2
1558440270857823,-2,-1,0,1,4,7,5,0
1558440270857823,0,-3,-1,-1,-5,-6,-1,-1
1558440270865800,-1,-1,-5,-2,4,11,1,0
1558440270865800,0,1,-1,0,1,-5,-2,-2
1558440270879761,-2,-5,-3,-4,-12,-4,-10,-7
1558440270879761,-2,1,0,0,5,3,4,3
1558440270888789,3,1,0,1,7,2,5,2
1558440270888789,0,-3,-2,1,-5,-4,-2,-3
1558440270903699,-1,-2,0,1,3,4,-3,-2
1558440270903699,-2,-3,-3,-3,-5,-6,-3,-2
1558440270905692,-3,-2,-2,-2,-7,-8,-5,-3
1558440270905692,-3,-2,-3,-1,3,6,2,0
1558440270917981,1,1,0,-2,-5,4,0,-2
1558440270917981,0,1,1,-1,0,-8,1,-1
1558440270926637,-1,1,1,-2,-1,-3,-2,-1
1558440270926637,-1,2,1,-2,2,-2,-3,-2
1558440270940630,-1,-1,-1,-2,-2,6,0,-2
1558440270940630,-2,-3,-1,-1,-8,-4,-5,-3
1558440270948921,-1,-2,-2,1,4,9,2,1
1558440270948921,-1,-2,-1,-1,-1,-9,-1,-1
1558440270963866,0,0,-1,-1,-2,-2,-1,1
1558440270963866,0,0,2,-1,-1,2,2,-1
1558440270965532,1,-1,-2,-2,-8,-11,-8,-3
1558440270965532,-1,-1,0,-1,4,5,1,1
1558440270977502,-2,-2,-1,1,-3,-2,-3,-3
1558440270977502,0,-1,-1,1,4,0,7,3
1558440270986743,0,-1,-2,-3,0,0,-2,-3
1558440270986743,-1,0,-3,1,0,2,0,1
1558440271000062,0,1,-1,-3,-4,-11,-3,2
1558440271000062,-1,-1,-1,0,2,8,-1,-3
1558440271008932,-3,-1,0,-1,-6,-2,0,-2
1558440271008932,-1,2,1,-1,-1,-6,-2,-1
1558440271023650,-2,-1,-2,-1,-2,0,-2,0
1558440271023650,-3,-1,-3,-1,-2,6,-3,-5
1558440271025932,-2,0,1,1,-2,-4,1,-1
1558440271025932,2,-1,1,1,9,3,8,4
1558440271037612,0,0,2,-1,0,-5,-1,1
1558440271037612,-3,-2,-1,-4,-6,-1,-7,-4
1558440271046588,1,-3,-4,-2,-4,-2,-2,-3
1558440271046588,0,0,0,-1,5,2,2,0
1558440271059553,-1,-1,1,0,-1,-5,0,-1
1558440271059553,0,-4,-4,0,-4,-2,-1,-2
1558440271068530,-2,-1,-1,0,0,2,-1,-1
1558440271068530,0,0,-1,0,-4,-5,-3,-2
1558440271083487,0,-3,-1,-1,-2,-2,-2,-1
1558440271083487,-1,2,0,-2,-1,0,0,2
1558440271085482,-2,-1,-2,0,2,4,0,1
1558440271085482,-2,-1,-1,0,-2,5,1,-1
1558440271097450,0,-1,-1,-2,-3,-8,-5,-1
1558440271097450,0,0,2,2,5,3,5,4
1558440271106428,2,-1,1,-1,4,2,1,-1
1558440271106428,-4,0,-1,-3,-4,1,-2,-3
1558440271120725,-4,0,0,0,-1,-3,-1,-3
1558440271120725,-3,-3,-2,-2,-4,-2,1,-2
1558440271128418,-3,-3,-1,0,-4,-5,-4,-2
1558440271128418,0,-3,-2,0,-1,1,-2,-1
1558440271143337,0,2,0,2,9,3,8,3
1558440271143337,-1,1,-1,1,3,-7,-4,1
1558440271150252,0,-1,-1,-2,-3,5,5,2
1558440271150252,-3,-3,-2,-2,-9,-9,-4,-2
1558440271157780,-3,-3,-4,-2,-2,-2,-4,-3
1558440271157780,0,-1,-3,2,6,10,3,1
1558440271166756,-2,-2,1,-4,-6,-9,-5,-1
1558440271166756,-3,-1,0,0,-1,2,1,1
1558440271180724,2,2,2,0,0,-1,-2,0
1558440271180724,-1,-4,-6,-6,-10,-4,-5,-2
1558440271188702,-1,-2,-4,-3,0,-4,-6,-3
1558440271188702,4,1,2,5,17,12,9,5
1558440271203656,1,-4,-1,-1,-2,2,-4,-3
1558440271203656,0,0,0,-2,-4,-8,-4,-3
1558440271205855,-3,-2,-2,-2,-9,-14,-8,-4
1558440271205855,-1,0,2,-1,3,2,3,2
1558440271217921,-2,0,0,-1,-3,-6,-4,-2
1558440271217921,0,0,0,1,11,13,7,2
1558440271226625,-1,0,0,1,0,0,0,-1
1558440271226625,-1,-4,-5,-9,-17,-9,-9,-7
1558440271240702,0,-3,-1,0,2,5,0,-1
1558440271240702,-1,-1,0,-1,-2,-5,-3,-3
1558440271248832,-1,2,3,1,6,3,4,2
1558440271248832,0,-1,-1,1,-1,-11,-5,0
1558440271263774,-2,-1,-5,-3,-1,5,0,-1
1558440271263774,-2,-1,-3,-8,-14,-6,-3,0
1558440271265492,2,2,3,0,11,3,8,4
1558440271265492,-2,-1,0,-1,-1,-6,-1,-2
1558440271277501,1,-2,-3,0,0,-3,-1,-1
1558440271277501,-2,-1,2,0,0,-6,-4,-3
1558440271287010,-4,-2,-3,-2,-12,-1,-7,-7
1558440271287010,-1,0,0,-1,3,6,1,0
1558440271309014,-2,0,0,2,7,-6,2,2
1558440271309014,-2,-1,0,0,1,4,0,-1
1558440271309732,1,-2,-5,-2,-1,2,-1,-3
1558440271309732,0,0,-1,-2,-3,-6,0,-2
1558440271330673,-2,-2,-1,-4,-7,0,-4,-4
1558440271330673,1,1,0,2,3,7,8,2
1558440271332669,-1,0,1,-1,-2,-8,-1,0
1558440271332669,-3,-3,-6,-2,-7,-5,-5,0
1558440271337657,-3,-2,-2,-2,1,3,-2,-1
1558440271337657,-1,-3,-5,-2,-5,-9,-5,-2
1558440271346631,1,1,1,-2,0,2,-2,-1
1558440271346631,0,0,0,1,7,7,1,0
1558440271359634,-2,-2,0,2,-6,-2,2,1
1558440271359634,0,-1,2,0,-2,-15,-3,-1
1558440271368572,-3,-3,-5,-1,-1,1,-4,-2
1558440271368572,0,-2,-1,-3,-2,1,-3,-1
1558440271382534,1,1,2,-3,-5,-12,-3,1
1558440271382534,1,1,2,0,8,13,5,2
1558440271389575,-2,-2,-4,-1,-1,-3,0,-1
1558440271389575,-2,-1,1,-2,-12,-7,-9,-7
1558440271397553,-3,0,0,0,9,12,9,1
1558440271397553,-3,-3,1,1,0,-1,1,-1
1558440271406530,0,-1,-2,-2,-6,-8,-5,-2
1558440271406530,0,-2,-3,5,8,4,5,2
1558440271419481,0,0,-2,0,-8,-2,-2,-1
1558440271419481,-1,-1,-5,-3,1,-2,-2,-1
1558440271428413,-2,-1,-1,1,-1,4,-3,-1
1558440271428413,-6,-3,-5,-5,-10,-7,-10,-6
1558440271443408,1,-1,-2,-2,-2,-11,-1,0
1558440271443408,1,1,1,5,11,11,7,3
1558440271450353,0,-2,-3,-1,-1,-5,-2,-1
1558440271450353,2,1,2,0,5,7,4,1
1558440271457334,-2,-2,-2,-2,0,3,-2,-4
1558440271457334,-2,-2,-2,-3,-13,-5,-12,-6
1558440271466312,1,-1,1,-3,-2,2,4,-1
1558440271466312,2,1,3,1,2,-3,4,5
1558440271489251,-2,-1,-3,1,3,-2,-2,1
1558440271489251,-1,-1,-1,-2,-4,-2,0,2
1558440271490248,-1,-2,1,-2,0,-3,-6,-2
1558440271490248,-1,-2,-4,-3,-3,3,-4,-3
1558440271503213,0,-1,-1,-3,-5,-2,-2,-2
1558440271503213,-1,-1,-2,-2,-7,-2,-3,-2
1558440271510195,2,0,1,0,4,2,7,4
1558440271510195,-2,0,2,-1,-2,-8,0,0
1558440271526190,1,1,0,1,9,2,1,2
1558440271526190,-3,-3,-1,1,-1,-6,-6,-1
1558440271527149,-4,-3,-5,-7,-14,1,-7,-6
1558440271527149,-2,-1,-3,-1,1,6,0,-1
1558440271540149,0,1,0,1,2,-1,3,-1
1558440271540149,-1,-2,-1,0,-1,-6,-1,-1
1558440271549125,0,-1,-1,-1,1,2,0,0
1558440271549125,-2,-1,-4,-4,0,3,-1,-1
1558440271563052,0,-1,-2,-3,-7,-6,-7,-5
1558440271563052,-1,-1,0,0,0,1,4,0
1558440271570033,0,-1,1,1,5,-9,2,3
1558440271570033,-4,-3,-4,-3,-4,2,-4,-3
1558440271585990,-3,-2,-1,-1,-2,8,-2,0
1558440271585990,-2,0,0,-4,-3,-5,-3,-2
1558440271587985,-2,-2,-2,0,0,-1,0,-1
1558440271587985,-1,0,0,1,-7,-1,-4,-3
1558440271608964,-2,-1,-3,-2,-1,2,-1,0
1558440271608964,-1,-1,-1,0,1,-6,0,0
1558440271609928,0,-1,-2,-3,-9,-8,-6,-2
1558440271609928,0,-2,-2,1,1,4,3,1
1558440271622893,2,-2,1,0,1,5,3,2
1558440271622893,-1,0,-1,0,1,-1,0,-1
1558440271628877,0,-1,1,0,4,4,5,0
1558440271628877,-1,-2,-1,-1,-4,-6,-6,-4
1558440271645831,-1,-3,-2,-2,-2,-1,-4,-2
1558440271645831,-1,0,-2,-2,-4,-1,-2,-2
1558440271647826,-3,0,0,-1,-1,-1,-5,-3
1558440271647826,-1,0,0,0,1,-3,5,0
1558440271659794,-4,-2,1,1,2,-1,1,1
1558440271659794,-1,-3,-3,-2,2,5,0,-2
1558440271668772,0,-4,-4,-3,-6,2,-8,-2
1558440271668772,-1,-1,0,-1,-3,-10,-1,1
1558440271682767,-1,1,-1,-2,-1,-6,-4,-1
1558440271682767,-1,0,-2,-3,0,4,-2,-2
1558440271689749,-2,0,1,2,2,1,2,-2
1558440271689749,-3,-1,-5,-4,-8,2,-1,-2
1558440271705670,-1,-1,-2,-2,-1,-6,-1,-2
1558440271705670,2,-1,3,-1,3,1,4,3
1558440271707666,1,-2,-4,-1,1,-2,-1,-2
1558440271707666,-1,1,2,1,10,7,3,0
1558440271719668,-2,-3,-3,0,-5,-9,-5,-1
1558440271719668,0,-1,-4,-3,-8,-3,-2,-2
1558440271728609,-1,1,1,3,3,3,5,3
1558440271728609,0,-2,-2,-1,-3,-5,-3,-3
1558440271742572,-2,-1,-1,-2,-4,3,-3,-2
1558440271742572,0,1,1,3,11,-2,1,4
1558440271757570,0,1,-2,-6,-6,-7,-3,0
1558440271757570,-3,-1,-2,-1,-4,-1,-5,-1
1558440271766509,1,-1,0,-2,-3,2,-1,-1
1558440271766509,-1,-3,-3,-2,-1,4,-4,-5
1558440271767505,-3,-1,-3,-1,-2,1,-3,-2
1558440271767505,0,-1,2,0,1,-4,-1,-1
1558440271779472,0,-1,0,-2,1,0,2,1
1558440271779472,0,0,0,-2,-4,-9,-1,-1
1558440271788492,-1,-3,-1,1,3,9,6,0
1558440271788492,0,0,-2,-2,-4,-8,-4,-1
1558440271803444,-1,0,-4,-2,-2,-1,-2,-3
1558440271803444,-1,0,-1,-1,2,2,2,0
1558440271809393,1,1,1,0,1,2,3,-1
1558440271809393,-1,-2,0,0,-3,-6,1,2
1558440271826347,0,-3,-1,-2,-3,4,-1,-3
1558440271826347,-1,-1,0,0,-4,-9,-4,-1
1558440271827345,-3,-1,0,-4,-7,-2,0,0
1558440271827345,1,0,1,0,10,10,5,0
1558440271840348,1,1,3,1,9,3,9,3
1558440271840348,-2,-3,-2,0,-7,-1,-4,-3
1558440271848323,1,-1,-3,-1,0,4,-4,-5
1558440271848323,-1,-1,-3,-3,-6,-11,-6,0
1558440271863250,-1,0,-1,-1,2,3,-1,0
1558440271863250,0,-2,-2,0,-4,-4,0,-1
1558440271870231,0,-1,-1,-1,3,0,0,1
1558440271870231,0,-1,-2,-2,-3,-6,-1,2
1558440271886187,-3,-2,-2,-2,-4,-4,-4,-2
1558440271886187,-2,1,0,-3,-3,-1,-1,-2
1558440271887186,0,-1,0,0,3,4,0,0
1558440271887186,1,0,-1,0,-2,5,-3,-3
1558440271900150,-1,0,-1,0,1,-5,-1,0
1558440271900150,0,0,1,-3,-1,0,-1,-2
1558440271909125,-2,0,2,3,3,-5,-1,-1
1558440271909125,0,-2,-2,-1,0,0,3,-2
1558440271923151,0,0,2,-1,-2,0,-1,-3
1558440271923151,-2,-1,-2,-3,-3,-4,-2,-4
1558440271930128,0,0,-1,-1,5,-1,-3,1
1558440271930128,-1,-1,-1,1,1,-3,2,1
1558440271946085,0,-2,-1,-2,-4,-5,-1,-1
1558440271946085,0,-2,0,1,0,-2,1,-2
1558440271948022,-1,-4,-2,-2,-4,2,-2,-1
1558440271948022,-1,-2,0,-3,-1,0,-2,-3
1558440271960052,0,1,2,2,10,1,0,2
1558440271960052,-2,-1,-1,-4,-3,3,1,0
1558440271968994,-1,0,-1,-1,-2,-4,-4,-2
1558440271968994,-2,-3,-6,-1,-7,-3,-5,-4
1558440271982929,0,-2,-3,0,0,-1,2,-2
1558440271982929,-2,-2,0,1,4,6,1,1
1558440271989909,-2,-1,-1,1,0,2,-1,-1
1558440271989909,-5,-1,1,-4,-6,-1,-5,-2
1558440272005906,3,-2,0,-2,2,-2,2,1
1558440272005906,-3,0,-3,0,5,-1,0,0
1558440272007896,-2,0,0,-1,-4,-15,-1,-1
1558440272007896,0,0,0,0,-1,4,-1,0
1558440272019865,-2,-2,-3,-3,-9,-9,-8,-3
1558440272019865,1,0,-1,0,-1,6,1,-2
1558440272028807,0,0,-3,0,8,5,2,0
1558440272028807,1,-3,-2,-3,-4,-4,-4,-3
1558440272042771,-2,-3,-3,-3,-4,-1,0,-1
1558440272042771,0,1,0,3,6,6,6,-1
1558440272049784,-3,-1,-1,-3,-7,-3,-5,-4
1558440272049784,1,1,4,0,-2,1,5,-2
1558440272065708,-4,-2,-5,-4,-6,-3,-7,-3
1558440272065708,0,-1,-1,-3,-7,-8,-3,0
1558440272067703,3,1,1,3,12,6,10,7
1558440272067703,0,1,1,1,7,6,3,1
1558440272079705,-3,-1,-4,-3,-10,-2,-6,-6
1558440272079705,-2,-4,-1,-4,-11,-5,-8,-3
1558440272088660,1,1,-1,-1,2,-8,-3,-1
1558440272088660,0,-2,-2,-1,6,7,1,2
1558440272102643,0,1,1,2,-2,-6,0,-1
1558440272102643,-3,-4,-6,-4,-4,-4,-7,-3
1558440272109592,-1,-1,0,-2,-11,-2,2,-3
1558440272109592,0,0,-2,0,9,6,7,2
1558440272126547,-1,0,0,0,2,5,0,-1
1558440272126547,-1,1,2,0,0,-3,-2,2
1558440272127543,-3,-3,-4,-4,-8,-1,-5,-2
1558440272127543,-1,-1,-1,-1,-5,-15,-5,-2
1558440272140507,0,0,-1,1,2,11,5,-1
1558440272140507,1,-1,-2,2,4,-3,0,1
1558440272148485,-2,-2,-2,-2,-4,-1,-4,-1
1558440272148485,-1,-2,0,1,-2,-1,-3,-2
1558440272163446,1,0,-3,-3,-3,-6,3,1
1558440272163446,-2,-1,-2,-1,-5,-4,-3,-2
1558440272169430,0,-1,-1,0,-1,2,0,-2
1558440272169430,-3,-2,-1,-3,-1,1,-3,-3
1558440272186423,-1,-1,0,-1,1,-3,-2,-1
1558440272186423,2,-1,-1,-2,3,-3,2,0
1558440272187382,-1,-2,0,-2,-4,-2,-1,0
1558440272187382,0,-2,0,0,-1,3,0,-1
1558440272200347,-1,-1,0,-1,2,3,-1,1
1558440272200347,-2,-2,-3,-2,-3,-8,-1,-1
1558440272208393,-2,-1,-1,1,7,12,4,1
1558440272208393,-2,-1,-2,-3,6,5,1,0
1558440272223287,-2,-2,0,0,-3,2,-2,0
1558440272223287,-2,0,-2,-1,-8,-4,-7,-3
1558440272229271,1,0,-1,0,-3,-7,-2,-3
1558440272229271,1,0,-2,-4,-5,-8,-3,-1
1558440272246224,-1,-3,-4,0,7,8,4,-1
1558440272246224,-2,0,1,-1,-3,-7,-2,0
1558440272247222,-1,-3,0,-2,-4,-2,-1,-1
1558440272247222,-3,-2,-2,-1,-2,2,-1,-1
1558440272269624,-2,0,-4,-3,-7,-6,-2,-3
1558440272269624,0,0,1,0,2,-1,3,0
1558440272270162,-1,0,1,0,3,6,0,1
1558440272270162,-1,0,0,0,-3,-6,0,2
1558440272291104,-3,1,3,2,5,1,1,-2
1558440272291104,-1,-2,-2,-3,-2,5,1,-3
1558440272292137,-1,-2,-3,-1,-1,-4,-4,-2
1558440272292137,0,0,0,0,5,6,2,1
1558440272305066,1,-3,1,-2,-3,-2,0,0
1558440272305066,-1,-2,0,-1,0,4,-3,0
1558440272312048,-2,-1,3,2,-4,-5,0,-1
1558440272312048,0,-3,-5,-3,-1,-8,-5,-4
1558440272320059,-1,-1,0,0,-6,-3,-4,0
1558440272320059,-1,0,-2,2,11,8,3,-2
1558440272329005,-1,-2,-1,-2,1,2,-2,-2
1558440272329005,-4,-4,-4,-2,-11,-7,-4,-3
1558440272343024,0,1,1,-3,-5,-10,1,4
1558440272343024,-2,-1,0,1,6,7,4,0
1558440272350000,-1,1,-1,0,6,0,4,1
1558440272350000,-2,-2,1,-1,-5,0,-5,-2
1558440272365905,0,-3,1,-1,-1,4,-3,-2
1558440272365905,1,-1,0,-2,1,6,1,0
1558440272371927,0,-3,-4,-2,-6,-7,-4,-2
1558440272371927,1,0,0,-1,1,-1,0,-1
1558440272379868,-1,-2,-3,0,-2,-7,-4,-2
1558440272379868,-1,-1,0,1,-6,-12,-2,0
1558440272388844,0,0,-2,-1,3,2,0,-2
1558440272388844,-2,-2,-3,-4,-4,3,3,-2
1558440272402807,-1,-2,1,-2,-2,3,-4,-2
1558440272402807,-1,-1,-1,0,6,4,4,3
1558440272417765,0,0,-1,0,-6,-9,0,0
1558440272417765,-2,-1,-2,0,1,0,-2,0
1558440272425744,-2,2,1,-3,4,4,-1,-1
1558440272425744,0,0,2,0,-2,-9,-1,1
1558440272432727,-2,-1,-3,-1,-4,2,-2,-3
1558440272432727,-2,-1,0,0,0,0,2,0
1558440272439723,-1,-1,-3,-1,-1,-11,-3,-1
1558440272439723,-2,-1,-2,-3,-7,1,-5,-4
1558440272448682,-3,-3,-2,-3,-2,-3,-2,-3
1558440272448682,1,1,0,0,-5,-5,-1,-2
1558440272462647,-1,-3,-2,-1,-2,1,-2,-2
1558440272462647,-1,-2,0,-2,2,7,3,0
1558440272469628,0,-1,0,-2,-7,-8,-4,-2
1558440272469628,0,-1,1,-1,-1,0,-2,-1
1558440272485585,-1,-2,-4,0,0,-3,-2,-1
1558440272485585,-1,-2,0,-2,0,1,-1,-2
1558440272492567,-2,-1,-2,-2,0,4,-3,-2
1558440272492567,-1,0,-3,0,1,-1,-1,-1
1558440272508524,0,2,4,0,2,4,1,0
1558440272508524,1,1,-2,0,-5,-9,-1,-1
1558440272510532,0,-1,1,-1,3,-4,0,0
1558440272510532,0,-1,1,-1,1,2,1,1
1558440272522485,-2,2,-3,-1,-1,4,4,-1
1558440272522485,-2,0,-3,-2,-6,1,-7,-3
1558440272529466,-1,-3,-2,-1,-3,-8,-2,-2
1558440272529466,1,-1,-1,-1,-2,-4,-2,-1
1558440272545499,-2,-2,-1,-1,-5,0,0,0
1558440272545499,-2,-3,-1,-3,-3,1,-4,-3
1558440272552432,-2,0,-3,0,4,-1,-2,0
1558440272552432,-1,2,0,1,-1,-12,0,0
1558440272568390,-2,1,-1,-1,2,2,1,-1
1558440272568390,-2,-2,-2,-3,-4,-5,-4,-3
1558440272570386,0,-1,0,2,7,7,2,1
1558440272570386,1,-2,4,-1,0,4,2,-1
1558440272583322,1,-1,-1,1,1,-3,-1,0
1558440272583322,-2,-3,-1,0,-6,-6,-4,-2
1558440272590303,-3,-2,-4,-4,-6,2,-3,-4
1558440272590303,-2,0,2,2,-5,2,0,-1
1558440272605263,1,0,2,-3,9,8,6,1
1558440272605263,-2,-1,-1,0,0,-10,1,1
1558440272612277,1,0,0,-1,1,1,-1,0
1558440272612277,-3,-3,-4,-2,-3,-4,-3,-2
1558440272628205,-2,-4,-2,-4,-5,-4,-9,-5
1558440272628205,-1,-1,-1,1,0,-2,2,1
1558440272630197,0,0,0,-1,-2,-3,1,1
1558440272630197,2,2,2,2,4,3,2,0
1558440272642167,0,-3,-3,-2,-2,-7,-6,-2
1558440272642167,-2,-1,-1,-1,3,9,2,-2
1558440272651143,1,1,0,0,3,6,5,2
1558440272651143,-3,-4,-3,-2,-2,-1,-4,-2
1558440272665452,0,0,1,-1,-3,-10,0,0
1558440272665452,1,2,3,1,6,3,1,1
1558440272673302,-2,-4,-3,-3,0,7,-2,-3
1558440272673302,-3,-4,-5,-4,-7,2,-2,-2
1558440272688564,-1,-2,-2,1,-5,-4,-3,-1
1558440272688564,-2,-1,-1,-1,3,7,3,-1
1558440272703461,-2,0,0,-1,-2,-5,-2,-1
1558440272703461,-2,0,-1,-2,3,-5,-3,-1
1558440272711441,-3,-3,-1,-2,-8,-9,-2,-1
1558440272711441,0,-3,-2,2,1,7,1,-1
1558440272712435,-1,-2,1,-2,-5,-7,-4,-3
1558440272712435,-1,-2,-4,-4,-3,-6,-6,-4
1558440272725399,-3,-2,-3,-3,-2,-3,-3,-2
1558440272725399,0,2,-1,2,2,3,6,5
1558440272732380,-1,0,0,-1,1,-2,3,4
1558440272732380,-2,0,-1,0,1,5,0,1
1558440272748398,1,0,0,-1,1,2,-4,-3
1558440272748398,-4,-2,-5,-5,-12,-8,-10,-8
1558440272750332,0,-2,-2,-1,-5,-1,0,-2
1558440272750332,1,2,2,2,4,-5,1,0
1558440272762301,0,0,-1,2,4,6,0,0
1558440272762301,-1,0,0,0,0,2,3,2
1558440272771276,-2,-3,0,-3,-9,-15,-5,-4
1558440272771276,0,1,-1,1,2,8,3,-2
1558440272785243,-4,-5,-5,-2,1,5,-1,-1
1558440272785243,-1,-1,-1,-1,0,-5,-2,0
1558440272792278,0,-2,0,0,-2,-7,-3,0
1558440272792278,0,-1,-1,-3,0,2,-1,-1
1558440272809175,-1,0,3,2,-2,3,3,-2
1558440272809175,-2,0,-1,-3,-1,0,0,1
1558440272810173,1,-1,-3,1,1,2,-4,-2
1558440272810173,-1,1,1,-3,3,6,5,1
1558440272822141,-1,-2,-4,-2,-7,-2,-5,-1
1558440272822141,1,0,-1,1,-3,-1,-2,0
1558440272831116,-2,0,-1,-1,3,-4,0,-2
1558440272831116,0,0,-2,-2,0,-8,-3,-1
1558440272845079,-2,-2,-3,-2,-3,-4,-3,-2
1558440272845079,0,0,0,1,8,8,3,0
1558440272852119,0,-1,-1,1,0,3,3,-1
1558440272852119,-2,-3,-2,-1,-6,-3,-6,-3
1558440272869017,-3,0,1,1,0,3,5,0
1558440272869017,0,0,0,-1,1,-10,-1,0
1558440272870014,-2,-1,-4,-3,-7,-4,-5,-4
1558440272870014,-1,-2,-1,-2,-6,-11,-3,1
1558440272881981,1,2,-1,0,5,6,2,1
1558440272881981,-4,-2,0,-2,-6,-1,-3,-4
1558440272890958,-2,-3,1,0,0,5,0,0
1558440272890958,1,-2,0,0,6,5,2,0
1558440272905938,1,-3,1,-2,-4,-4,-1,0
1558440272905938,0,-2,-3,-1,-4,-2,-2,-3
1558440272911904,-2,2,-3,-3,-2,-5,-5,-3
1558440272911904,-1,0,-2,2,7,4,1,1
1558440272928857,1,2,1,1,1,-4,5,0
1558440272928857,-4,-3,-1,-1,-4,-6,-4,-2
1558440272929859,-3,-2,-1,-1,-2,6,2,0
1558440272929859,-1,-2,0,-3,-6,-7,-4,-4
1558440272942818,0,0,-1,-3,2,2,-3,2
1558440272942818,0,-2,-1,-3,-8,-4,-8,-3
1558440272950798,1,1,-2,-1,-2,2,0,-2
1558440272950798,0,1,0,3,4,-4,3,1
1558440272965759,-2,-1,2,2,1,6,2,-2
1558440272965759,-2,-3,-3,-2,-3,0,-3,-2
1558440272972744,0,-3,1,-2,2,1,-1,1
1558440272972744,-2,-1,-1,-3,-10,-5,-4,-3
1558440272988696,-1,-2,-1,-2,0,0,0,-1
1558440272988696,0,-1,0,-1,2,-10,-3,1
1558440272989692,1,0,1,1,5,0,3,2
1558440272989692,-1,-5,-1,-2,-8,0,-3,-2
1558440273002676,-2,2,0,1,6,6,4,1
1558440273002676,1,0,0,2,6,9,9,3
1558440273011635,-3,-2,-4,-1,-6,-1,-2,-3
1558440273011635,1,1,0,-2,-3,-10,-4,0
1558440273025596,-1,-1,-4,-3,-7,-3,-5,-3
1558440273025596,1,2,0,-1,-3,-1,-3,-1
1558440273032587,0,0,-1,-1,-2,-2,0,0
1558440273032587,-1,-2,-3,0,3,6,0,1
1558440273048535,-1,-2,-1,0,-4,-11,0,1
1558440273048535,-1,-2,-1,-5,-4,-5,-3,-3
1558440273050530,-2,-1,2,2,6,5,4,1
1558440273050530,-2,0,-2,0,-1,0,-2,1
1558440273062512,-1,0,-1,1,4,3,3,-1
1558440273062512,-1,-2,0,-1,-5,-3,-5,-4
1558440273071475,1,-2,-3,-2,-5,-7,-5,-1
1558440273071475,-1,-1,4,0,-6,0,-1,-3
1558440273085437,0,-3,-2,-3,-5,-3,-6,-2
1558440273085437,-1,0,-1,-2,1,5,2,1
1558440273092419,-1,-3,-1,2,7,6,7,3
1558440273092419,1,0,-1,-1,2,-6,0,0
1558440273108374,-1,0,-2,-2,-3,-4,-2,-3
1558440273108374,-4,-2,-2,-1,-3,-2,-2,-1
1558440273110373,-2,0,-2,-1,-6,-6,-5,-1
1558440273110373,-2,-2,-3,-1,0,2,1,1
1558440273122337,1,0,2,0,4,-5,3,4
1558440273122337,-2,0,-4,1,0,0,0,0
1558440273131313,-2,1,1,-2,-3,0,-3,-3
1558440273131313,-2,0,0,0,5,9,3,-1
1558440273145277,-1,0,-1,0,-4,-1,-4,-2
1558440273145277,0,-3,-3,-2,-1,-3,-1,-1
1558440273152257,-1,-2,-2,-4,-7,-11,-7,-3
1558440273152257,-2,-3,-3,-3,0,4,-2,-4
1558440273168219,0,-1,0,0,-2,-2,1,0
1558440273168219,3,-1,0,0,1,-6,1,1
1558440273170211,-2,1,0,0,2,5,1,-1
1558440273170211,-3,-2,-3,-1,-5,-12,-2,0
1558440273182178,-2,-1,-4,-3,3,3,-1,-2
1558440273182178,-4,3,5,1,-4,-1,-3,-1
1558440273191154,1,-2,0,-2,-3,-1,-3,-3
1558440273191154,-2,-2,-1,-4,-4,1,-1,0
1558440273205119,0,-2,-1,2,6,-1,2,-1
1558440273205119,-2,-4,-5,-3,-5,-6,-4,-1
1558440273212098,0,0,3,4,10,11,6,3
1558440273212098,2,1,-1,-2,-10,-5,-1,0
1558440273228056,0,-3,-6,-4,-8,0,-4,-2
1558440273228056,1,-2,-2,-1,6,11,5,0
1558440273235036,-1,1,0,-1,-5,-11,-1,2
1558440273235036,0,-2,-1,1,-1,-6,-5,-3
1558440273250994,-1,2,2,-4,0,-2,0,1
1558440273250994,-1,-5,-4,-5,-7,-10,-4,-5
1558440273252988,2,0,-1,-1,3,8,0,-2
1558440273252988,-1,-2,-2,-2,-8,0,-2,-3
1558440273264956,-4,-3,-2,1,-2,0,-6,-2
1558440273264956,1,2,1,1,2,4,6,3
1558440273271938,-2,-3,-4,-2,2,3,0,-1
1558440273271938,1,-1,1,0,0,-1,-4,-2
1558440273287909,-4,-3,-4,-1,-3,3,-2,-4
1558440273287909,0,0,0,0,4,5,1,2
1558440273294876,-2,0,-1,0,-3,-7,-1,-1
1558440273294876,1,1,-2,-2,3,1,1,0
1558440273301860,-1,1,0,-3,-3,-6,-3,-1
1558440273301860,0,0,2,0,-1,-7,-7,-3
1558440273310834,-1,-2,-2,-5,-7,2,-3,-4
1558440273310834,-1,-2,-3,0,0,0,1,-1
1558440273325797,2,2,4,1,1,-6,4,2
1558440273325797,-2,-2,-3,-1,-7,-3,-3,-3
1558440273331784,0,-1,0,-2,5,-3,-2,2
1558440273331784,-1,1,1,-1,2,1,1,0
1558440273347734,-2,-2,-4,-2,-7,1,-4,-4
1558440273347734,-1,0,1,-2,-1,5,0,0
1558440273354720,-1,-4,-3,-1,-6,1,-1,-3
1558440273354720,-2,-1,0,0,3,0,1,1
1558440273371679,0,0,2,1,3,-1,0,3
1558440273371679,-3,0,-2,1,2,-5,1,0
1558440273372668,-3,-3,-6,-1,-2,1,-3,-3
1558440273372668,1,1,4,0,-3,2,2,3
1558440273385637,0,-3,-3,-3,-5,-10,-4,-1
1558440273385637,-1,1,1,-2,-4,-1,-2,0
1558440273392618,1,1,-1,2,6,-1,0,0
1558440273392618,-1,0,0,0,-6,-5,-4,-3
1558440273407576,-1,-3,-5,-3,6,3,-1,-5
1558440273407576,0,1,-1,-1,-2,-1,4,1
1558440273414556,-3,-2,-3,-1,-1,0,0,0
1558440273414556,-1,-3,-2,-3,-1,-1,-3,-2
1558440273431511,0,-1,3,0,0,5,2,0
1558440273431511,0,0,0,0,-1,-13,-5,-1
1558440273432510,0,-2,2,-1,-2,-3,-1,1
1558440273432510,-1,0,-1,0,0,-1,4,0
1558440273445473,-2,-3,-2,-1,-6,2,-2,-1
1558440273445473,-4,-1,0,-2,1,6,1,-3
1558440273452460,-1,0,0,-2,-1,-2,0,0
1558440273452460,-2,0,-1,-1,3,-5,-1,1
1558440273468413,-2,-3,-3,-1,-3,-5,-2,-4
1558440273468413,-1,-3,-4,-1,-1,7,-2,-3
1558440273474396,2,3,2,3,10,4,5,2
1558440273474396,-1,0,-3,-4,-6,-5,-3,-3
1558440273491359,-1,-3,0,-1,-3,-4,-2,-1
1558440273491359,-2,-2,-2,-2,1,-1,-4,1
1558440273492348,-3,-1,-1,-3,-9,-5,-5,-3
1558440273492348,2,2,2,3,8,8,7,2
1558440273505314,-3,-3,-4,-4,-8,-8,-5,0
1558440273505314,0,-1,0,-1,-4,1,-2,-3
1558440273513292,-1,-4,-5,-2,-8,-5,-7,-4
1558440273513292,0,-2,-3,-1,-3,-4,2,-1
1558440273528252,0,-2,-5,-2,-1,-2,-1,-1
1558440273528252,-2,-2,1,-2,3,10,3,1
1558440273534237,-1,2,12,0,-2,-6,1,3
1558440273534237,-5,-7,-16,-1,5,8,1,-2
1558440273551191,1,2,3,1,0,1,0,1
1558440273551191,1,-1,-4,-1,-5,-4,-2,-1
1558440273552194,1,-1,-1,-4,-1,-2,-3,-2
1558440273552194,0,0,4,0,1,2,-1,-1
1558440273565158,1,0,1,0,7,6,6,0
1558440273565158,0,-1,-3,-2,0,-4,-2,-2
1558440273572145,-1,-1,-1,-2,-5,-3,-5,1
1558440273572145,0,1,0,-2,-6,1,-4,-2
1558440273588092,-2,0,1,-1,5,2,1,3
1558440273588092,0,1,4,1,5,4,6,0
1558440273595074,-2,-2,-6,-2,-6,-11,-5,-3
1558440273595074,-4,-4,-3,-3,-1,-2,-7,-4
1558440273611035,-1,-1,0,-1,-5,-3,-2,-2
1558440273611035,3,-1,-1,2,4,-3,4,2
1558440273613030,-4,-5,-4,-5,-13,-2,-5,-5
1558440273613030,1,0,2,1,2,-8,0,3
1558440273624993,3,-1,0,1,4,2,3,1
1558440273624993,-1,-2,-4,-2,0,3,-4,-3
1558440273631974,-2,-2,-6,-2,-5,-3,-5,-6
1558440273631974,-2,-2,0,-3,-8,-6,-5,-2
1558440273647931,-1,2,1,1,6,6,7,2
1558440273647931,-1,1,2,0,-1,-8,1,2
1558440273654912,0,0,0,-1,0,2,0,0
1558440273654912,1,-2,2,0,2,3,-3,-2
1558440273670870,-1,-2,-4,-2,-5,-5,-6,-2
1558440273670870,-2,-2,-6,-1,1,4,0,0
1558440273672865,0,0,2,0,3,-2,3,1
1558440273672865,0,-1,-1,-2,-1,4,-1,-1
1558440273685830,-2,-3,-1,-3,-4,0,-5,-4
1558440273685830,0,1,2,0,-9,-17,-11,-3
1558440273691813,-1,-2,-4,-2,3,7,5,1
1558440273691813,1,0,2,3,15,12,11,5
1558440273715750,0,-2,-1,-2,-2,-4,-1,-2
1558440273715750,-2,-2,3,-2,-5,-2,-4,-4
1558440273717745,-1,0,-1,1,-3,0,-3,-2
1558440273717745,-2,-1,-2,-3,-4,-4,-5,-4
1558440273730710,-2,0,-2,0,-4,-5,-4,-2
1558440273730710,1,-1,-2,2,6,3,6,4
1558440273732705,-1,0,-2,0,-1,-2,-2,-2
1558440273732705,-1,-3,-4,-2,-2,-8,-4,-1
1558440273745684,0,0,0,-2,-7,-5,-4,-2
1558440273745684,-2,-3,-4,-3,-6,-1,-3,-2
1558440273753649,1,0,2,2,9,8,6,2
1558440273753649,0,2,1,0,-3,-4,-1,1
1558440273767611,-2,-2,-1,-2,3,1,2,0
1558440273767611,-1,-5,0,-3,-4,-4,-6,-4
1558440273774599,-2,-2,-3,-3,-3,-1,-2,-1
1558440273774599,0,2,1,1,-2,-4,-1,1
1558440273791547,-2,-1,-1,-2,3,3,0,-3
1558440273791547,-3,-3,-2,-2,-5,-3,-2,-2
1558440273792551,-2,-3,-4,0,4,2,3,-3
1558440273792551,-1,-1,0,-2,-1,-1,-3,-2
1558440273805511,-2,-1,0,-2,-4,-1,-1,-4
1558440273805511,0,-2,0,-1,3,3,2,-1
1558440273812496,-1,-2,-1,0,3,2,0,3
1558440273812496,-3,-2,-1,-2,0,-1,-2,-2
1558440273836434,0,-2,1,4,4,-1,4,6
1558440273836434,-2,-2,-3,-5,2,0,-3,-3
1558440273837425,-1,-1,-2,-2,-6,-2,0,-2
1558440273837425,2,1,4,0,5,7,7,2
1558440273851387,-1,0,-3,-2,-9,-14,-9,-2
1558440273851387,-5,-2,-3,-4,-5,1,-3,-3
1558440273852384,2,0,-2,2,5,6,0,2
1558440273852384,-6,-5,-9,-5,-7,-5,-8,-7
1558440273873331,-1,-1,1,-1,-1,1,1,-3
1558440273873331,2,6,3,3,9,9,12,5
1558440273875326,-3,3,-1,-3,-6,-9,-7,-3
1558440273875326,-1,-8,-1,-5,-7,-6,1,0
1558440273888299,1,0,-2,2,6,4,-2,1
1558440273888299,-2,-2,0,-3,-10,-13,-6,-4
1558440273895270,1,-2,3,0,1,4,-2,0
1558440273895270,1,-1,-2,1,6,4,2,-1
1558440273911229,0,1,5,-3,-11,-7,-3,-1
1558440273911229,0,0,-2,2,0,-6,-1,0
1558440273912226,-2,-1,2,0,5,1,1,-1
1558440273912226,-2,1,0,0,-7,-8,-3,-3
1558440273925192,-1,1,-2,-2,4,9,-1,0
1558440273925192,-3,-4,-9,-2,-4,2,-6,-3
1558440273933169,-3,-2,-5,-5,-1,-5,0,2
1558440273933169,-2,0,-5,-2,-7,-4,-2,-1
1558440273948139,-1,-2,-3,1,3,2,2,1
1558440273948139,0,1,6,0,0,2,2,3
1558440273955118,-1,-4,-1,-1,-3,4,-3,-3
1558440273955118,-1,-3,-3,-2,-5,-4,-6,-5
1558440273971067,0,2,9,1,1,-7,-1,1
1558440273971067,0,-1,-6,-2,9,6,5,1
1558440273972067,-1,-2,0,0,-2,1,1,0
1558440273972067,-2,-3,-4,-2,-1,2,-2,-1
1558440273994009,-3,-2,-4,-2,0,8,0,-1
1558440273994009,0,-1,2,0,-5,-12,-5,-1
1558440273995003,0,2,0,0,6,4,3,-3
1558440273995003,0,1,1,0,-2,2,-1,0
1558440274007968,-2,-4,-3,-2,-5,-2,-3,-3
1558440274007968,1,-2,3,2,0,3,0,-2
1558440274014951,0,0,-2,-1,5,3,2,2
1558440274014951,-1,-2,-1,-1,-2,-8,-3,-1
1558440274030921,-1,-4,-5,-3,-3,-7,0,-2
1558440274030921,-1,-3,-8,-2,-3,-5,-5,-2
1558440274032901,0,1,3,-2,-13,-18,-2,-1
1558440274032901,-1,1,4,1,10,7,4,3
1558440274044869,-1,0,-3,0,4,6,1,2
1558440274044869,-1,-2,-2,-5,-11,-3,-3,-4
1558440274053844,-2,-4,-4,-2,2,0,-4,-1
1558440274053844,-1,-2,-2,1,-6,1,-2,-2
1558440274067809,-1,0,-7,-5,0,-2,1,0
1558440274067809,-3,1,2,0,4,3,2,1
