timestamp,emg1,emg2,emg3,emg4,emg5,emg6,emg7,emg8
1558440328397029,-3,-3,-5,-7,-5,-5,-5,-4
1558440328397029,-2,-2,0,0,-7,-11,-5,-1
1558440328398026,-1,-2,0,0,-2,0,-1,1
1558440328398026,1,-1,2,-1,-1,-3,-2,-3
1558440328399023,3,1,4,0,2,-2,3,1
1558440328399023,-1,0,-9,-1,5,9,3,-3
1558440328400021,-1,-2,-4,-4,-4,-4,-3,-3
1558440328400021,1,-1,-2,-2,2,-3,2,3
1558440328410991,-2,0,2,3,-3,-7,-4,-2
1558440328410991,-3,-1,2,-1,-3,-1,-3,-1
1558440328419968,0,0,-2,-5,-2,-1,0,0
1558440328419968,0,1,-4,1,-2,-1,-1,-1
1558440328425952,-2,-2,-2,-2,-5,-2,-3,0
1558440328425952,0,0,2,0,4,-1,3,4
1558440328440911,0,-2,-1,-2,0,3,1,-2
1558440328440911,-3,-2,-5,-2,-2,2,-4,-4
1558440328448890,-2,-2,-1,-4,-4,-3,-3,-3
1558440328448890,0,-3,-2,-2,4,2,0,1
1558440328455871,0,0,0,2,2,0,-1,-2
1558440328455871,0,-1,0,-2,-1,-2,-1,-2
1558440328471833,-1,1,-1,-2,0,1,-2,0
1558440328471833,-1,0,3,0,-3,1,2,-2
1558440328478809,1,0,-3,-3,2,-1,3,2
1558440328478809,-2,-2,-3,-3,-3,-1,-3,-1
1558440328518703,-1,-3,1,0,-4,-3,-4,-3
1558440328518703,1,-1,2,2,1,3,0,-1
1558440328519701,-1,-2,-1,-3,-3,-8,-1,0
1558440328519701,-2,-2,0,-1,-1,6,0,-2
1558440328520708,-1,0,-6,1,0,3,1,0
1558440328520708,-1,-1,-1,0,-1,-4,-1,-2
1558440328523690,-1,-1,0,-2,4,1,-1,1
1558440328523690,1,-2,4,1,-5,-4,-4,-3
1558440328530672,0,-4,-9,-6,0,4,1,-1
1558440328530672,-1,-1,-2,-2,5,0,2,0
1558440328538650,-2,0,0,2,0,0,3,-1
1558440328538650,-2,1,-2,0,4,1,5,2
1558440328545631,0,2,3,0,-3,-7,-6,-4
1558440328545631,0,-1,-3,-3,-8,-4,-4,-2
1558440328560592,1,-1,1,-1,-3,-5,-2,-1
1558440328560592,-1,0,0,-2,-2,-17,-3,-1
1558440328567572,-1,-2,3,2,4,9,5,1
1558440328567572,-3,-2,-5,-2,-3,-1,-4,-2
1558440328575551,-2,-1,0,0,-2,-9,-5,-2
1558440328575551,0,-1,2,-1,3,10,2,1
1558440328590510,-1,-1,2,0,-5,-8,-3,-1
1558440328590510,-4,-2,-7,-2,2,3,1,-1
1558440328598490,-2,-1,-2,-1,0,7,-1,-2
1558440328598490,-2,-1,-2,-1,-4,-1,-2,-4
1558440328605471,-1,-2,0,-1,-2,-2,-1,-2
1558440328605471,1,-2,2,0,-7,-6,-5,-2
1558440328621429,0,0,3,1,4,3,3,0
1558440328621429,0,-1,-6,-1,3,1,2,2
1558440328627414,-1,0,3,-2,1,1,0,-1
1558440328627414,1,0,1,1,-1,-3,-1,-1
1558440328643369,0,-2,-5,-4,-4,-4,-2,-4
1558440328643369,-2,-1,-1,-4,-7,-12,-6,-3
1558440328659327,-1,0,-4,-2,3,3,3,0
1558440328659327,-1,-2,-1,-1,-1,1,1,2
1558440328660324,-1,1,2,5,1,2,0,-1
1558440328660324,1,-1,-1,-2,0,2,0,-1
1558440328665312,-3,-2,-4,-5,-6,-5,-4,-2
1558440328665312,-3,-1,-2,-2,1,0,-1,0
1558440328681267,-3,0,6,0,-1,4,-2,-2
1558440328681267,0,0,-3,-1,-4,-6,-2,-1
1558440328688250,0,-1,-4,-2,-1,-5,-3,-2
1558440328688250,1,-1,2,0,0,-3,-3,0
1558440328695230,0,-2,-5,-2,-1,1,0,-3
1558440328695230,-2,0,1,1,-1,-1,-3,-4
1558440328710191,-2,-2,2,-3,1,5,6,2
1558440328710191,-1,-1,1,-2,-1,0,0,-1
1558440328718168,-1,1,-3,-2,-2,0,0,2
1558440328718168,0,1,4,0,1,-2,1,-1
1558440328725151,-3,0,-4,-1,-4,-4,-2,-2
1558440328725151,-2,-2,0,-1,-1,-2,-2,-2
1558440328741108,-3,-1,-1,-2,1,3,-1,-1
1558440328741108,-1,-2,-6,-1,2,8,3,0
1558440328748089,1,-2,0,0,-2,-6,-5,-1
1558440328748089,2,0,1,1,0,0,-1,-1
1558440328755070,-1,-3,-3,-2,-3,-6,-3,-2
1558440328755070,-2,-1,2,0,-3,-3,-4,-2
1558440328770030,-4,-2,-4,-3,0,2,1,2
1558440328770030,0,-2,-3,0,0,1,0,0
1558440328779005,-2,-3,-4,-4,-5,-3,-1,0
1558440328779005,-2,-2,-2,-2,0,-1,-2,-2
1558440328784990,0,3,6,4,0,0,-1,-1
1558440328784990,-3,0,3,-2,1,0,2,-2
1558440328800948,-1,-2,-10,-4,-4,-7,-1,-1
1558440328800948,0,-4,-1,-3,1,1,-2,1
1558440328810170,-1,0,1,3,3,2,-4,-4
1558440328810170,-1,0,-5,-2,-3,-4,-4,-2
1558440328823887,-1,0,3,1,0,3,-1,-1
1558440328823887,0,-1,0,-2,0,-3,0,0
1558440328830868,1,2,-1,-1,3,-1,3,2
1558440328830868,-2,-1,0,0,0,4,3,1
1558440328838847,-1,-1,1,0,-1,1,0,-1
1558440328838847,-4,-2,-5,-4,-6,-2,-5,-4
1558440328845828,1,-1,0,-3,0,-4,-3,0
1558440328845828,-4,-2,-3,-3,-6,-4,-2,-2
1558440328860788,-2,-1,-1,0,-1,-1,-1,-2
1558440328860788,-1,0,-1,0,1,1,0,2
1558440328867769,1,-1,-1,-1,-1,-3,0,0
1558440328867769,-2,-2,-1,-3,-3,-1,-2,-3
1558440328883728,-2,-1,-4,-3,-3,2,-6,-2
1558440328883728,0,3,0,1,0,1,4,3
1558440328890710,0,-1,1,0,6,-8,3,2
1558440328890710,0,-2,-1,-2,-4,-2,-4,-2
1558440328898687,-2,-2,-2,-1,-2,-2,0,-2
1558440328898687,-1,-3,-5,-3,-3,0,-4,-3
1558440328905669,-2,-4,-4,1,3,8,3,1
1558440328905669,1,2,7,4,-1,-5,0,0
1558440328920629,0,0,2,-1,-5,-4,-2,-2
1558440328920629,-2,-3,-5,-6,-6,1,0,-1
1558440328927610,-1,1,6,4,-1,2,-2,-3
1558440328927610,-2,-1,-7,-4,0,-2,-3,-2
1558440328943567,0,-1,-4,-3,-1,-10,1,1
1558440328943567,1,0,2,2,1,-5,-4,-2
1558440328950548,-1,-2,-1,-3,-8,-6,-4,-1
1558440328950548,0,-2,2,2,2,10,1,-3
1558440328958526,1,2,3,1,8,10,6,3
1558440328958526,0,-3,-3,-2,2,-3,2,0
1558440328965507,-3,0,0,0,-1,1,-2,-5
1558440328965507,-4,-3,-5,-5,-5,-2,-5,-1
1558440328981464,2,-1,-2,-2,-3,-6,-3,-1
1558440328981464,0,-1,-6,-1,1,3,4,1
1558440328987450,-1,0,-1,-2,-4,2,-1,0
1558440328987450,-1,0,1,-1,-2,-2,-5,-1
1558440329003407,-3,-2,-2,0,-4,0,-2,-2
1558440329003407,-3,0,3,1,0,-3,-4,-1
1558440329010402,0,-1,-3,-4,-3,-5,-4,0
1558440329010402,1,0,1,1,4,3,4,1
1558440329018367,0,-2,2,1,2,1,0,-2
1558440329018367,0,1,-4,-2,-5,-4,-1,-4
1558440329025347,0,-1,-3,-2,3,4,2,-1
1558440329025347,-1,-1,1,0,3,1,2,2
1558440329041306,0,-1,1,-1,-3,1,-3,-1
1558440329041306,-1,-1,0,-1,-7,-7,-6,-4
1558440329048286,-1,1,-3,0,1,-1,1,-1
1558440329048286,1,0,3,1,-3,-10,1,1
1558440329063246,-1,0,1,-1,1,2,0,-1
1558440329063246,-1,1,4,2,3,3,2,-1
1558440329070228,-3,-3,-4,-2,-5,1,-2,-3
1558440329070228,-2,-2,-9,-3,-1,-2,-1,-2
1558440329078208,-2,-1,0,-4,-3,-4,-3,0
1558440329078208,1,-2,-4,-2,-2,5,-1,-1
1558440329085187,-2,0,3,-1,-6,-2,-4,0
1558440329085187,-2,0,1,0,-1,-1,0,-4
1558440329101145,-1,-2,-2,0,-2,-4,-5,-3
1558440329101145,-1,-2,3,-1,3,5,0,0
1558440329108126,-2,-3,-3,-2,-6,-8,-5,-5
1558440329108126,1,1,-1,-2,3,0,5,3
1558440329123087,-1,0,-1,2,6,1,1,0
1558440329123087,-2,0,2,1,2,-2,2,0
1558440329130068,-1,-1,-3,-2,-3,1,-1,2
1558440329130068,-1,-2,-3,-4,-4,-4,-9,-2
1558440329138046,0,2,6,0,0,-1,1,0
1558440329138046,0,-1,-5,-1,-2,-1,1,-1
1558440329153007,0,-2,3,0,3,-1,1,-1
1558440329153007,-2,-1,2,3,1,8,2,-2
1558440329160985,-2,-2,-5,-4,-7,-11,-5,-2
1558440329160985,-2,0,-7,-5,0,3,-1,0
1558440329167966,0,2,5,3,0,-1,0,-1
1558440329167966,0,0,0,-1,0,-1,-1,-1
1558440329183923,-2,-2,-4,-1,-5,0,-2,-1
1558440329183923,-3,-2,0,-1,0,-1,-2,-3
1558440329189907,-1,-2,-3,-2,1,-2,-4,-2
1558440329189907,1,-1,6,3,0,0,0,-1
1558440329205866,2,-1,-1,1,0,-1,-1,-1
1558440329205866,-2,-2,-2,-2,-5,-4,-3,-1
1558440329212846,-3,-2,-1,-2,0,2,-1,-5
1558440329212846,0,0,-4,-1,3,-6,4,2
1558440329220826,-1,-2,-1,-2,-3,-4,-1,1
1558440329220826,-2,-3,0,1,0,-1,0,-2
1558440329227807,-1,-2,-4,-4,-6,-1,0,2
1558440329227807,-3,-2,-3,1,0,5,-3,-4
1558440329251742,-1,2,1,0,3,6,2,-1
1558440329251742,-1,2,2,2,2,-3,3,2
1558440329252740,-3,-2,-1,-5,-6,-4,-5,-3
1558440329252740,0,-2,-4,-4,-5,-5,-2,-1
1558440329258723,-1,0,-2,-1,1,-1,-4,-1
1558440329258723,-3,-1,-2,-4,0,6,-1,-1
1558440329272686,1,0,1,3,1,-3,0,0
1558440329272686,0,-1,3,-1,-4,-5,-2,-1
1558440329288644,-1,-2,-6,-3,-2,-1,-1,-4
1558440329288644,2,0,4,1,4,6,4,1
1558440329290639,-1,0,-2,1,1,-3,3,1
1558440329290639,-2,-3,0,1,1,5,-2,0
1558440329303609,-2,-2,1,0,4,6,1,1
1558440329303609,0,-2,-3,-3,-6,-10,-6,-3
1558440329310585,2,1,-3,-1,0,-5,0,2
1558440329310585,0,0,1,0,-1,-1,-4,-2
1558440329326542,-1,1,0,2,-2,-5,1,0
1558440329326542,-4,-5,-3,-5,-5,-1,-2,-1
1558440329332526,-2,-1,1,0,-2,-1,0,0
1558440329332526,-3,-2,-9,-6,-4,-5,0,-1
1558440329341502,-1,-3,1,-2,0,-1,1,-1
1558440329341502,-1,0,4,2,2,-3,0,1
1558440329347486,1,1,2,2,6,6,2,0
1558440329347486,1,1,-3,-2,3,0,-2,-2
1558440329363443,-1,-2,-2,-4,-5,4,-4,-3
1558440329363443,-1,0,-3,-2,-7,-6,-7,-3
1558440329370425,-1,-1,-2,-4,-3,-9,-2,-1
1558440329370425,0,1,3,1,3,6,8,4
1558440329377406,-1,-1,2,2,-1,-4,1,0
1558440329377406,-1,-5,-5,-2,-2,3,-3,-3
1558440329392366,-3,-3,-2,-1,0,-5,-2,1
1558440329392366,1,-2,-1,-3,-3,-7,-3,-2
1558440329409322,-1,1,3,2,-2,1,0,-3
1558440329409322,1,2,0,1,4,2,3,0
1558440329410321,-2,-2,-1,-2,-1,8,-2,-3
1558440329410321,-3,-1,1,-2,-5,-4,-7,-2
1558440329423284,-1,-1,-6,0,0,0,-1,-1
1558440329423284,-1,-3,3,0,-5,-8,-5,-3
1558440329430265,0,-3,-9,-5,-6,-5,-2,-2
1558440329430265,1,-2,-8,-3,-1,-2,-1,-1
1558440329438244,-2,-1,3,-2,2,-1,-1,-2
1558440329438244,0,1,2,1,4,4,2,0
1558440329453202,1,0,2,0,1,-2,-2,0
1558440329453202,-2,-2,2,-1,-2,6,2,-1
1558440329461181,0,0,-1,-3,-5,-7,-2,-2
1558440329461181,0,0,-5,-2,-2,-10,0,0
1558440329468162,-1,0,1,0,4,5,-1,-1
1558440329468162,-2,0,0,-1,-1,-2,-1,0
1558440329492102,1,0,-1,-2,1,3,1,-2
1558440329492102,-1,0,-2,-2,-5,-5,-3,-1
1558440329493096,-1,-1,0,-1,-5,-2,-1,-1
1558440329493096,-1,-1,3,0,5,2,-1,-2
1558440329506062,-2,-3,-5,0,5,-3,3,1
1558440329506062,0,-1,3,0,-2,5,0,0
1558440329513042,-4,-2,-5,-3,0,7,-1,-4
1558440329513042,-1,-3,-8,-6,-8,-16,-5,0
1558440329529000,0,-1,3,-1,0,0,-3,-1
1558440329529000,0,-1,-6,-2,-1,-2,-6,-3
1558440329530995,-2,0,-1,-2,-9,-4,-4,-4
1558440329530995,-1,3,3,4,5,4,5,2
1558440329543959,-2,0,-3,-2,3,4,3,0
1558440329543959,-6,-5,-1,-1,1,2,0,0
1558440329549944,-2,-4,-2,-2,-3,1,-3,1
1558440329549944,-1,-2,-2,-2,-4,-10,-7,-2
1558440329565901,1,-1,-4,-1,2,-1,-4,-1
1558440329565901,0,1,1,0,-2,-1,0,-2
1558440329572883,-2,0,1,2,4,1,3,1
1558440329572883,-2,-3,-4,-2,-7,-2,-4,-3
1558440329588841,-1,-2,0,-2,-1,-3,-1,-1
1558440329588841,0,3,4,-2,-1,-2,0,0
1558440329590835,2,-2,-9,-2,3,-1,-1,-3
1558440329590835,0,-2,6,0,-1,-1,1,-1
1558440329603802,0,-1,-4,-4,-1,6,1,0
1558440329603802,0,-4,-5,0,-2,2,-1,-2
1558440329610781,0,1,4,1,2,-5,0,0
1558440329610781,-1,-1,-3,-2,-2,4,0,0
1558440329625744,-2,-3,-5,-3,-6,-3,-5,-3
1558440329625744,-1,0,0,-1,6,7,3,1
1558440329632725,1,-1,0,-2,-2,-8,2,0
1558440329632725,0,-1,2,3,4,3,-1,-2
1558440329657658,-2,0,-2,-2,-7,-7,-3,2
1558440329657658,-1,-1,-2,-1,-1,-1,-2,-1
1558440329658654,-1,1,1,2,1,2,1,1
1558440329658654,-1,-2,-1,-1,-4,-5,-1,-2
1558440329664640,-1,1,-1,-2,-2,-2,-2,0
1558440329664640,0,0,2,0,3,4,2,0
1558440329686590,-2,-2,-6,-2,-2,1,-1,-2
1558440329686590,0,-2,-8,-7,-3,-13,-2,1
1558440329688597,-1,0,0,3,5,3,5,2
1558440329688597,-3,-3,2,1,-4,-4,-3,-1
1558440329692567,-2,-3,-11,-5,-3,-2,-4,-4
1558440329692567,-2,0,-3,-1,-4,3,-4,-2
1558440329709524,0,-2,-2,-2,2,1,0,-2
1558440329709524,0,1,0,0,-1,-7,0,-1
1558440329710517,1,1,4,3,2,4,4,1
1558440329710517,-2,1,2,1,2,0,0,-3
1558440329724484,-1,-2,-1,0,-2,-3,-5,-3
1558440329724484,-1,-2,-4,-2,-3,-3,0,-2
1558440329730464,-1,-2,4,-2,1,-5,0,0
1558440329730464,-1,0,0,0,5,4,1,-1
1558440329746424,-1,-2,1,0,-5,-2,-1,-2
1558440329746424,0,-2,-6,-3,-1,-2,-2,-2
1558440329777346,0,0,-3,-1,-5,-1,-2,-1
1558440329777346,-1,0,2,0,1,-1,0,2
1558440329779331,-2,-2,0,-1,-3,-5,-2,-3
1558440329779331,-2,-3,-6,-6,0,5,0,-1
1558440329779331,1,0,6,1,0,-6,-3,-1
1558440329779331,-2,-2,-4,-2,-2,4,-2,-3
1558440329784326,0,2,-1,-2,1,8,3,1
1558440329784326,1,1,0,1,-3,-10,-3,-1
1558440329790312,-1,-1,2,0,1,3,-2,-2
1558440329790312,-1,-1,0,-1,0,5,2,0
1558440329807257,-1,-4,1,-1,-5,-12,-7,-2
1558440329807257,0,0,-4,1,5,5,1,1
1558440329813240,-1,1,3,-2,-4,-2,-4,-5
1558440329813240,-2,-2,-5,-2,-4,-5,-2,-2
1558440329828201,-2,0,0,-2,-2,2,-1,-3
1558440329828201,-3,-3,-4,-2,-2,0,-2,-3
1558440329829197,-3,-5,-7,-6,-5,-1,-1,-2
1558440329829197,-2,-1,0,0,-1,-5,0,-1
1558440329844158,0,-2,0,1,0,4,0,-2
1558440329844158,-1,3,8,2,-1,-10,0,3
1558440329850141,2,-2,-6,-3,2,-3,0,0
1558440329850141,0,0,-1,-1,3,8,4,2
1558440329891033,0,0,2,0,-3,-11,-3,-1
1558440329891033,-1,-1,-4,-1,-3,0,-6,-4
1558440329892030,-2,0,1,2,-3,8,2,1
1558440329892030,0,0,-2,0,1,0,-1,0
1558440329896024,-1,0,-1,-1,2,4,3,2
1558440329896024,0,-1,1,-1,-1,-2,0,-3
1558440329897020,-3,-2,-2,-1,1,-2,-4,-3
1558440329897020,-1,-1,-2,-2,-8,-6,-6,-3
1558440329910978,-3,-2,-5,-3,-3,3,-1,-3
1558440329910978,-3,-3,0,-3,1,0,-2,0
1558440329911976,-1,-2,1,1,2,0,1,1
1558440329911976,1,0,1,1,2,2,3,1
1558440329926947,0,-1,2,1,0,-1,0,0
1558440329926947,0,-1,-3,-4,-5,-4,-7,-2
1558440329932965,0,-1,-2,1,-1,1,-1,-3
1558440329932965,-1,1,4,1,1,-10,0,-1
1558440329948910,-2,-5,-8,-6,-5,-3,-1,-1
1558440329948910,-3,0,2,1,-1,-2,-1,-2
1558440329948910,-2,-2,-2,-2,0,-4,-2,-1
1558440329948910,-2,-2,-1,-1,2,-1,1,-1
1558440329970819,0,0,0,0,2,4,4,-1
1558440329970819,-1,-2,-4,-4,-4,0,-1,-3
1558440329971816,-1,1,-2,-1,-6,-4,-2,-3
1558440329971816,-5,-3,-5,-3,-9,0,-4,-3
1558440329986785,1,0,5,3,8,2,2,2
1558440329986785,-1,0,-2,0,3,3,8,3
1558440330000803,1,0,4,-1,-2,-6,-1,-1
1558440330000803,1,-2,2,1,2,-1,-3,-2
1558440330008836,-1,-2,-5,-2,-4,-1,-6,-3
1558440330008836,-1,-1,3,-1,0,1,1,-1
1558440330009716,-1,-1,-4,-2,-3,-2,-2,-1
1558440330009716,-2,-2,-11,-5,1,3,-1,-1
1558440330030760,-2,-1,1,2,0,0,0,-1
1558440330030760,1,1,3,2,1,-6,-1,1
1558440330046718,-1,-2,1,-2,0,0,1,-1
1558440330046718,0,-2,0,-1,-5,0,-4,-2
1558440330048611,0,-1,-2,-3,-3,-4,-1,1
1558440330048611,-2,-2,-2,-3,0,1,0,-1
1558440330052600,0,2,-1,0,-1,-2,-2,0
1558440330052600,-1,-1,0,-2,-1,2,0,1
1558440330067567,-1,0,1,-1,2,0,-1,-2
1558440330067567,-2,-4,-1,-2,-5,-2,-2,-3
1558440330083518,-2,-2,-2,0,-4,-1,-3,-3
1558440330083518,1,0,1,2,4,5,3,0
1558440330091496,0,-2,-1,0,-2,-5,-2,0
1558440330091496,-1,-1,-1,-1,-2,1,-1,-2
1558440330091496,0,1,1,-1,2,3,0,0
1558440330091496,-2,2,2,0,-4,-13,-2,1
1558440330106456,-3,-2,-2,-2,4,-1,1,1
1558440330106456,0,0,-1,2,-1,-1,1,0
1558440330112466,-3,-3,-7,-3,5,9,3,1
1558440330112466,0,-1,3,-1,-7,-1,-3,-1
1558440330128400,2,2,2,2,3,1,-1,0
1558440330128400,1,3,7,2,0,-8,-1,0
1558440330135444,-2,-6,-18,-6,-8,-2,-2,-3
1558440330135444,1,0,-1,0,6,-1,-1,1
1558440330167367,-3,-1,-4,-3,-4,2,0,-1
1558440330167367,0,-2,0,-2,-4,0,-4,-3
1558440330168292,0,4,7,4,-2,-7,0,1
1558440330168292,-1,-4,-4,-6,-4,2,1,-2
1558440330169288,-1,-2,2,2,1,-2,0,0
1558440330169288,1,0,-1,0,0,4,0,0
1558440330173278,0,0,1,0,2,-1,-2,-2
1558440330173278,0,-4,-7,-5,-7,-6,-4,1
1558440330188243,-1,1,2,1,2,0,0,-1
1558440330188243,-4,-3,-4,-4,-6,-3,-3,-4
1558440330204200,-1,-4,1,-3,-7,-4,-6,-1
1558440330204200,-1,0,-1,3,7,8,4,-3
1558440330211281,2,0,0,-1,-2,-4,-4,-1
1558440330211281,1,-1,-5,-2,-1,-6,-1,-1
1558440330212176,-1,1,6,2,1,1,2,3
1558440330212176,0,-1,-7,-4,3,-7,0,-1
1558440330227148,-3,-4,-5,-3,-6,0,-2,-1
1558440330227148,0,0,1,1,3,0,0,1
1558440330233307,-2,-1,-2,-1,-2,2,-1,-4
1558440330233307,-3,0,3,-1,-3,1,-2,-1
1558440330248105,-2,0,-3,-2,-8,-2,-5,-4
1558440330248105,-1,-1,-3,1,2,-1,-1,0
1558440330255059,1,0,4,2,4,-5,3,3
1558440330255059,-2,-2,-2,-1,2,1,-2,0
1558440330278996,1,1,-2,-2,-4,1,3,1
1558440330278996,0,-1,-1,0,0,2,-1,-1
1558440330278996,0,-1,0,-3,3,0,2,1
1558440330278996,-2,-2,-3,-2,-3,0,0,-1
1558440330286976,-1,-3,-1,-1,-6,-5,-7,-5
1558440330286976,-1,-2,-1,0,0,3,3,-1
1558440330292958,-2,-2,1,0,1,-2,-4,-1
1558440330292958,-3,-2,-7,-2,0,2,1,-1
1558440330323874,1,1,1,1,5,0,1,-1
1558440330323874,-2,-2,-3,-1,-2,0,0,-2
1558440330324871,0,0,4,0,-3,0,-1,0
1558440330324871,0,0,-1,-5,-2,1,-3,0
1558440330330855,-2,-4,-2,0,2,-3,1,-2
1558440330330855,-1,0,1,-4,1,-4,-1,-1
1558440330331853,-1,-1,-1,-1,-3,4,-1,-2
1558440330331853,-1,-2,2,1,-5,-7,-4,-7
1558440330346814,-1,-1,-7,-1,1,4,2,1
1558440330346814,0,-2,0,-3,4,-2,-3,-1
1558440330361128,1,0,-3,-1,-3,-4,-4,-1
1558440330361128,0,-1,2,0,-2,6,0,1
1558440330367951,-1,1,3,0,0,-3,-2,-1
1558440330367951,-3,-1,-2,0,-5,1,-3,-2
1558440330376086,0,0,1,-1,3,-2,1,0
1558440330376086,-2,-2,-4,-2,-2,-4,-1,-3
1558440330399025,0,-1,-3,-3,-3,-3,-3,-3
1558440330399025,-2,0,0,0,-4,1,0,-1
1558440330399672,-1,-2,-2,-1,-1,1,-1,-2
1558440330399672,-3,0,2,2,-1,-3,-3,-2
1558440330406803,0,-1,-1,-3,-1,-4,0,2
1558440330406803,1,0,-1,0,2,3,2,1
1558440330412976,-1,-1,-2,0,3,2,-1,0
1558440330412976,0,-1,8,4,0,0,-2,-2
1558440330428686,-3,-2,-8,-4,-5,-2,-5,-3
1558440330428686,0,0,1,1,2,1,1,0
1558440330435867,-1,-2,-4,-3,1,-5,-1,0
1558440330435867,-2,-3,-4,-3,0,-4,2,2
1558440330451746,0,-1,3,1,-4,-3,-3,-5
1558440330451746,-3,-4,-2,-3,-10,-4,-7,-4
1558440330451746,-2,0,2,2,5,7,4,0
1558440330451746,0,2,0,-2,1,4,1,0
1558440330466706,-1,-3,-5,-2,-2,-7,-2,1
1558440330466706,0,1,-1,0,1,1,3,1
1558440330472485,-3,-5,-9,-5,-5,-1,-7,-2
1558440330472485,0,2,2,2,0,-9,-5,-2
1558440330488435,-4,-1,-1,0,1,3,1,0
1558440330488435,-1,-1,-4,-1,-1,0,0,-4
1558440330495418,0,-1,3,3,-1,-3,1,-2
1558440330495418,0,-2,-4,-2,0,-4,-3,-1
1558440330511375,0,-3,-1,-3,-1,2,0,-1
1558440330511375,2,-1,2,-1,-1,-6,-1,1
1558440330511375,-3,-2,-7,-4,0,5,-1,-2
1558440330511375,-1,1,5,2,3,4,2,0
1558440330526335,-1,-1,1,-2,-2,-1,0,-2
1558440330526335,-4,0,-1,0,-2,0,1,-2
1558440330533315,1,0,-4,-4,-4,-5,-1,-2
1558440330533315,-1,-2,0,0,-5,-8,-4,-2
1558440330548273,-1,0,0,-1,2,4,-1,1
1558440330548273,1,0,0,2,8,5,0,2
1558440330555257,0,0,-2,-1,-7,-3,-5,-1
1558440330555257,-1,-3,-6,-2,-3,-3,-1,-1
1558440330571214,0,1,-1,1,2,3,3,0
1558440330571214,0,-1,0,-1,-5,-9,-3,0
1558440330572404,-1,0,2,2,1,-9,0,1
1558440330572404,1,-2,4,2,4,5,-2,0
1558440330587170,0,-1,-2,-6,-10,-11,-6,-4
1558440330587170,0,-1,-6,-4,-3,-3,0,-1
1558440330593156,0,-1,1,2,9,13,6,-1
1558440330593156,1,2,-1,-1,0,8,5,2
1558440330608142,-1,0,2,3,1,-1,3,0
1558440330608142,-2,-1,-2,-3,-4,-1,-4,-1
1558440330615095,1,-1,-1,-4,-7,-10,-5,-2
1558440330615095,-2,-1,-4,0,3,-4,0,-1
1558440330631052,2,0,2,2,2,2,2,3
1558440330631052,-5,-5,-9,-8,-5,3,-3,-5
1558440330632049,-2,-1,2,-1,-2,3,0,-3
1558440330632049,-2,0,-2,0,-3,-2,-4,-1
1558440330647011,1,1,2,1,2,-5,-1,1
1558440330647011,-2,0,1,2,3,1,-3,-2
1558440330653390,-2,-2,-9,-6,-7,-9,-2,1
1558440330653390,2,-1,4,-2,4,-2,3,-1
1558440330668399,-3,-3,-2,0,-2,1,1,-2
1558440330668399,2,1,1,0,-1,1,1,1
1558440330676244,-2,1,-3,-2,3,7,-1,-2
1558440330676244,-1,-1,-1,-1,-5,-2,-1,1
1558440330690893,-2,-2,-5,-2,-2,-2,-2,-2
1558440330690893,1,-1,4,1,0,-3,-1,-2
1558440330691891,-2,-2,-4,-2,0,0,2,-1
1558440330691891,-2,-3,-4,-5,-11,-7,-7,-5
1558440330706852,0,-2,1,2,6,13,7,3
1558440330706852,-2,0,2,1,-3,-3,1,1
1558440330713141,0,-1,5,1,3,-5,-4,0
1558440330713141,-1,-1,-5,-2,2,5,2,0
1558440330728100,-2,-1,-3,-4,-4,-3,-4,-4
1558440330728100,1,0,-2,-1,-3,-5,1,-1
1558440330736084,2,0,0,1,-5,-3,-3,-2
1558440330736084,1,0,1,0,1,1,2,3
1558440330751045,-2,-1,1,1,1,3,-3,-1
1558440330751045,-2,-3,-5,0,4,2,-1,-2
1558440330751731,1,1,1,-5,-5,-2,-5,-3
1558440330751731,-1,-3,1,0,-1,5,1,-1
1558440330766733,0,-1,-1,-2,-1,-5,-2,-1
1558440330766733,-1,-2,-1,-4,-7,-6,-7,-3
1558440330773671,-1,-1,0,2,4,11,5,-1
1558440330773671,0,-1,-2,0,-4,-7,1,-1
1558440330787637,0,0,0,0,9,5,5,2
1558440330787637,-2,-3,-6,-3,4,4,1,0
1558440330795916,-6,-4,-4,-3,-7,-6,-6,-4
1558440330795916,-2,0,0,-2,-4,-3,-4,0
1558440330811803,0,1,4,3,-1,-1,2,0
1558440330811803,-1,-3,-6,-4,-4,-5,-3,-1
1558440330811803,-1,-2,-1,1,3,3,1,2
1558440330811803,-1,-1,1,-1,-2,2,0,1
1558440330827527,-2,-2,-4,-5,-7,-8,-5,-3
1558440330827527,0,0,-2,-2,-1,3,0,-1
1558440330832779,0,-2,2,0,2,-2,-2,-1
1558440330832779,-2,-1,-3,-3,-2,1,-5,-3
1558440330847476,-1,-1,1,-2,-5,-10,-5,-1
1558440330847476,0,-2,-1,2,1,2,2,0
1558440330855706,1,-1,-2,0,3,-4,4,-1
1558440330855706,0,0,-1,2,3,1,2,-1
1558440330870734,-1,-4,-2,-2,-6,-2,-3,-3
1558440330870734,-1,0,4,1,8,4,1,2
1558440330871729,-1,-1,-8,-3,-6,-4,-4,0
1558440330871729,-4,-5,-5,-5,-5,0,-6,-5
1558440330886692,-1,0,-1,-1,-4,-4,-6,-3
1558440330886692,2,2,4,2,6,3,7,3
1558440330892891,0,3,6,1,1,0,3,1
1558440330892891,1,3,2,0,3,3,1,-1
1558440330915611,-2,-5,-11,-6,-10,-4,-8,-5
1558440330915611,-3,-5,-1,-5,-6,-4,-5,-5
1558440330916608,1,1,3,2,5,4,5,3
1558440330916608,-3,0,-4,-3,-2,-5,-2,-2
1558440330931859,-3,0,-2,-1,1,-2,1,-1
1558440330931859,-1,-1,2,1,-3,-3,1,1
1558440330931859,-3,-6,-9,-5,-3,-4,-4,-3
1558440330931859,1,0,4,4,5,0,2,0
1558440330953546,0,0,-1,-2,-1,-3,0,0
1558440330953546,0,-2,-2,-3,-5,-9,-4,-4
1558440330954508,-1,-4,1,-1,-8,-4,-5,-3
1558440330954508,-3,-2,-4,-4,2,-1,-2,-1
1558440330968682,-2,-1,1,1,4,9,2,0
1558440330968682,0,0,1,0,-6,-6,-1,0
1558440330975770,-2,1,1,-2,2,3,-2,-1
1558440330975770,-2,-1,-6,-2,-1,4,0,-2
1558440330990709,2,-2,3,0,-2,-7,-1,0
1558440330990709,-2,0,-1,-1,6,-1,1,0
1558440330998657,-3,-5,-10,-4,-5,-5,-3,-3
1558440330998657,-2,-2,2,-2,-5,-2,-2,-3
1558440331006609,-1,1,2,-1,-1,3,-1,-2
1558440331006609,1,0,-3,-5,1,2,-4,-2
1558440331013591,0,0,-6,0,3,-2,6,2
1558440331013591,0,-2,0,0,-2,2,2,-2
1558440331028543,0,-1,3,-1,-3,-8,-4,-2
1558440331028543,-3,-1,-1,-1,-2,-2,-2,-1
1558440331035515,-5,-1,-1,-2,-5,-3,-4,-2
1558440331035515,-1,-1,0,-1,0,-1,2,0
1558440331050485,0,0,1,0,2,2,1,0
1558440331050485,-2,0,0,2,2,4,2,0
1558440331058471,-1,1,4,1,1,6,1,-1
1558440331058471,1,-1,-1,2,-1,-5,3,-1
1558440331067208,-1,-3,-3,0,2,1,-3,-2
1558440331067208,-1,-1,-2,-3,-4,-2,-2,-2
1558440331073422,-2,-2,-2,-2,1,4,2,-1
1558440331073422,2,0,1,0,-2,-4,-4,-1
1558440331088160,-4,-2,-3,0,1,-1,-1,1
1558440331088160,-1,-1,-1,-2,0,4,2,1
1558440331096163,1,1,3,1,0,-2,-3,-2
1558440331096163,-3,0,-3,-4,0,2,-2,-3
1558440331110122,-3,-2,-6,-1,-4,1,-2,-3
1558440331110122,-4,1,2,-2,-7,-10,-6,-2
1558440331118303,-1,1,3,1,4,8,4,2
1558440331118303,-2,-1,4,2,-2,-1,-1,-4
1558440331127048,-1,-4,-6,-4,-3,-3,-2,-2
1558440331127048,1,-1,0,1,-3,3,3,-1
1558440331133030,0,-1,-2,-2,-1,-11,-5,-1
1558440331133030,-3,-4,-1,-1,-3,-1,-4,-4
1558440331149220,1,0,1,-2,1,0,2,0
1558440331149220,-1,-3,0,1,4,4,1,-2
1558440331154993,-2,-2,0,1,-1,2,-1,-1
1558440331154993,1,2,0,-1,-5,-10,-4,1
1558440331169932,-3,-1,4,-1,4,10,3,0
1558440331169932,-2,-1,-8,-2,3,1,1,2
1558440331178118,0,-1,-2,-1,-3,-3,-2,0
1558440331178118,-3,-2,-10,-6,-5,-7,-4,0
1558440331194090,0,0,-1,2,2,3,6,1
1558440331194090,-2,-1,4,1,-2,-2,-2,-1
1558440331194090,-2,0,3,1,-4,-2,-2,-4
1558440331194090,1,1,3,2,2,2,3,0
1558440331208047,-1,-1,-6,0,-4,-6,-4,-1
1558440331208047,-3,-4,-1,-1,-3,5,-4,-1
1558440331215959,0,1,1,-1,1,-7,1,0
1558440331215959,1,-3,1,0,0,2,-1,0
1558440331230805,0,-2,-1,-1,2,5,4,0
1558440331230805,0,-2,-5,-2,-2,-5,-2,-3
1558440331237753,-4,-5,-4,-3,-6,-1,-4,-4
1558440331237753,-1,0,0,-2,3,2,2,1
1558440331253708,-2,1,0,0,6,4,0,-1
1558440331253708,0,0,3,0,-3,-4,-2,0
1558440331253708,-2,-3,-10,-3,-2,-2,-3,0
1558440331253708,2,-2,1,2,5,2,0,-2
1558440331267904,0,0,1,1,-2,-3,2,2
1558440331267904,-2,-1,-4,-2,0,-3,-2,0
1558440331275876,0,-1,2,-1,-5,-1,-2,-3
1558440331275876,-5,-1,-2,-4,-6,-6,-3,-1
1558440331290858,-2,-3,0,1,-3,0,-2,-2
1558440331290858,-1,-1,0,-2,-7,-7,-4,-4
1558440331305569,-1,-2,-1,-2,0,5,1,-1
1558440331305569,0,-5,-6,-1,0,1,-3,0
1558440331313556,1,-1,1,-2,-1,-5,-2,-1
1558440331313556,-1,2,-5,-1,7,2,7,2
1558440331314548,-1,1,3,0,1,-2,0,0
1558440331314548,0,0,3,0,-5,-5,-4,-1
1558440331328572,0,0,-4,-4,-4,-6,-5,-3
1558440331328572,-3,-2,-3,-3,-1,4,2,-1
1558440331335488,-2,0,2,0,0,5,2,-1
1558440331335488,-1,0,-2,0,2,2,3,3
1558440331350684,-2,-1,1,0,-5,-11,-4,-4
1558440331350684,-1,-2,-6,-7,-9,-9,-7,-2
1558440331358588,0,-1,-1,1,3,6,1,0
1558440331358588,-1,0,2,2,6,5,3,1
1558440331373388,-2,-3,-4,-4,-3,-3,-3,-2
1558440331373388,2,0,-1,-2,-7,-2,-4,-3
1558440331374397,-1,0,0,0,-4,-1,-3,-2
1558440331374397,3,2,2,1,3,-2,1,0
1558440331387350,-1,-1,-2,-2,1,2,1,0
1558440331387350,-3,-2,2,2,5,11,5,1
1558440331395523,-3,-1,-5,-3,-4,-10,-3,-1
1558440331395523,-2,-2,-3,-5,-4,-3,-4,-3
1558440331410290,1,1,-1,1,1,-8,-4,0
1558440331410290,-2,-1,1,1,0,4,-2,-2
1558440331418508,0,1,3,1,0,4,2,-1
1558440331418508,-3,-3,-9,-6,-1,-4,-2,0
1558440331434258,-2,2,2,-1,-1,2,1,1
1558440331434258,-2,-2,-3,0,-2,-8,-5,-3
1558440331434258,0,-2,-4,-1,-1,1,-1,-2
1558440331434258,-1,-1,-1,-1,-3,4,0,-1
1558440331448431,0,0,4,1,1,2,0,-1
1558440331448431,0,2,5,3,5,-2,3,-1
1558440331455169,-2,-5,-17,-9,1,1,-3,0
1558440331455169,0,-3,1,-4,-7,-3,-1,-1
1558440331470135,-3,-4,-5,-4,-4,-4,-5,-2
1558440331470135,0,3,4,1,4,1,3,2
1558440331478139,2,2,7,2,2,-4,1,0
1558440331478139,-1,-4,-5,0,-1,-1,-4,-3
1558440331494103,-2,0,4,1,-2,5,-1,0
1558440331494103,1,-2,-8,-5,-2,-3,-7,-2
1558440331494103,-2,0,2,-4,-8,-17,-2,-2
1558440331494103,-1,1,6,2,3,1,1,1
1558440331509023,3,-1,-3,1,4,0,1,2
1558440331509023,-3,-3,-1,-2,-5,2,-2,-3
1558440331515010,0,-1,-4,-1,-3,1,-5,-1
1558440331515010,1,1,3,3,5,0,4,3
1558440331531060,-1,-2,-3,-6,-3,-3,-3,0
1558440331531060,-1,-1,-1,-1,-2,0,0,-1
1558440331537946,1,-1,1,1,-3,-2,-4,-2
1558440331537946,-3,-1,-3,-2,-4,-7,-4,-3
1558440331553908,-1,-1,-6,-3,3,2,2,0
1558440331553908,-1,-5,-4,-3,-6,-6,-4,-3
1558440331553908,-1,-1,1,0,0,4,2,0
1558440331553908,-2,2,2,0,0,-5,-1,0
1558440331568863,-3,0,-1,0,-2,1,0,0
1558440331568863,-1,0,-2,0,-1,1,-2,-1
1558440331574846,-1,1,2,-2,3,4,3,1
1558440331574846,-2,-3,-5,-3,-6,-9,-2,-1
1558440331589806,0,0,7,4,0,2,1,-2
1558440331589806,2,0,5,2,2,0,2,1
1558440331597825,-1,-2,-5,-4,-3,2,-1,0
1558440331597825,0,-3,-7,-5,-2,2,0,-2
1558440331614094,-3,-1,-2,-3,-3,-1,-4,-4
1558440331614094,-2,-3,-2,-2,-5,-5,-4,-4
1558440331614094,0,-1,2,0,-5,-8,-5,-4
1558440331614094,0,0,3,1,8,10,4,3
1558440331629700,-1,-1,-5,-1,-1,-2,-2,-2
1558440331629700,1,-1,0,-1,1,-4,0,3
1558440331636046,-2,0,0,-2,2,1,0,1
1558440331636046,-3,-2,-4,-1,-3,-1,-4,-3
1558440331650675,0,1,2,-1,-3,1,-1,-1
1558440331650675,2,0,3,0,0,-3,-2,-1
1558440331657659,-1,-2,-6,-2,-7,-16,-5,-1
1558440331657659,-1,0,1,1,1,11,4,-1
1558440331673581,0,-2,4,4,2,2,1,2
1558440331673581,-1,-3,-6,-8,-7,-3,0,-1
1558440331673581,-4,-2,-4,-2,-3,-2,-3,-7
1558440331673581,-2,-1,-1,-2,-1,-2,-2,-2
1558440331689541,-2,0,-3,-1,-1,1,0,-2
1558440331689541,-1,-1,1,1,4,-1,-3,0
1558440331696013,-3,-1,2,2,-2,4,0,0
1558440331696013,2,-1,1,0,2,1,2,2
1558440331710485,-3,-1,0,-2,2,0,0,2
1558440331710485,0,-1,-4,-2,-5,-8,-2,-1
1558440331717936,0,-1,-1,-2,-1,-1,1,1
1558440331717936,-1,-1,-1,-1,-8,-12,-5,-2
1558440331733423,0,-1,2,1,0,2,1,-5
1558440331733423,0,2,-5,-1,4,2,3,1
1558440331734421,1,-4,3,0,-1,-4,-5,-4
1558440331734421,0,1,1,-2,-3,-3,-6,-3
1558440331749382,1,-1,-4,-3,-4,-7,-1,-2
1558440331749382,-2,0,4,2,4,4,2,-4
1558440331755363,1,2,7,3,6,11,3,0
1558440331755363,-4,-4,-18,-10,-4,-1,0,-2
1558440331770326,-3,-1,-2,-1,-3,-11,-6,-2
1558440331770326,0,0,-1,-3,-2,2,0,4
1558440331778341,0,-4,6,4,5,1,2,-4
1558440331778341,1,-3,0,-4,-5,-4,0,0
1558440331793263,0,0,-3,-1,-3,-2,-1,2
1558440331793263,-1,0,-5,1,2,1,1,-1
1558440331794259,-1,1,-1,-5,-4,-3,-4,-1
1558440331794259,-1,-1,2,1,0,2,2,0
1558440331809221,0,-1,0,-1,1,-1,1,-1
1558440331809221,-1,-1,0,-1,-2,-3,2,5
1558440331817985,-3,-1,-7,-3,-1,-5,-3,-6
1558440331817985,3,2,5,1,-2,4,-1,1
1558440331830657,2,0,-5,-2,1,-8,-2,3
1558440331830657,-3,-3,-1,0,-2,2,-1,-10
1558440331838143,1,-1,3,-1,-5,-10,-1,8
1558440331838143,-3,-3,-7,-4,0,2,2,-8
1558440331853223,-4,-2,-5,-6,-6,0,-3,-1
1558440331853223,-1,-5,-4,-1,-2,3,-2,-2
1558440331854101,-3,-2,-2,0,0,3,-1,2
1558440331854101,3,4,8,4,5,-2,1,5
1558440331869355,-1,-1,3,-2,-4,-1,-1,1
1558440331869355,-3,-1,-1,-2,-1,-2,-3,-3
1558440331876076,0,-4,2,0,-2,4,-3,-3
1558440331876076,-2,-3,-3,-2,-5,-2,-9,-5
1558440331891062,-1,1,-1,3,4,6,6,0
1558440331891062,1,0,3,-2,-1,-5,-1,-2
1558440331898224,-2,3,1,4,6,5,2,2
1558440331898224,-3,-4,5,-3,-6,-5,-3,-3
1558440331913182,-1,-2,-5,-3,1,-6,2,2
1558440331913182,-2,-5,-4,-3,-6,-1,-3,-2
1558440331919930,6,7,0,-1,0,-3,2,8
1558440331919930,0,-2,-3,0,0,4,5,-2
1558440331928899,-2,-4,0,-1,-5,-1,-6,-2
1558440331928899,2,0,0,-3,-5,-1,-2,-10
1558440331934887,-7,-14,-4,0,4,2,1,-4
1558440331934887,1,5,-1,0,-1,-1,-4,0
1558440331951086,-1,-3,2,0,-3,-3,1,-1
1558440331951086,-1,1,-4,3,9,4,4,7
1558440331957822,4,4,-1,1,0,6,-1,0
1558440331957822,1,4,2,-1,-8,-9,-4,-2
1558440331972784,2,3,-7,-8,1,-4,-2,-6
1558440331972784,-4,-9,-6,-2,-4,-3,0,4
1558440331981154,2,-2,0,0,1,1,3,1
1558440331981154,2,5,5,3,5,1,1,-1
1558440331989193,-17,-21,-9,-4,-5,1,-8,-7
1558440331989193,2,3,4,1,-5,-8,-4,-2
1558440331996087,-3,1,-3,-2,0,-3,-3,-4
1558440331996087,0,-3,-2,1,4,-3,-1,2
1558440332010879,7,8,3,-1,0,0,3,2
1558440332010879,-2,0,2,3,3,5,-2,-4
1558440332018672,-1,-5,-2,-3,-7,-6,-1,3
1558440332018672,-6,0,1,-1,2,2,-2,-9
1558440332033675,5,2,1,2,-7,-9,-6,0
1558440332033675,-4,-5,-5,-7,-4,0,-1,-4
1558440332040995,3,0,-9,-8,-8,-9,-3,-3
1558440332040995,-4,-4,-4,3,9,9,3,-1
1558440332049578,-3,1,6,-1,3,3,-1,4
1558440332049578,-2,-6,-7,-6,-13,-4,0,-3
1558440332055953,-3,2,5,-1,-4,1,-5,-6
1558440332055953,1,-1,-1,-3,-6,-12,-6,1
1558440332078594,-1,-1,-8,-6,-1,2,4,0
1558440332078594,-1,4,3,6,2,-1,-3,0
1558440332079497,-2,-2,5,2,-1,4,0,-4
1558440332079497,-3,-6,-15,-9,-1,-2,-1,2
1558440332093490,-3,0,1,6,5,8,-3,-7
1558440332093490,1,1,-9,-13,-12,-21,-1,3
1558440332100773,-1,0,-1,2,4,2,1,1
1558440332100773,-3,-6,6,4,0,3,2,2
1558440332116690,-1,1,5,3,4,7,-2,-3
1558440332116690,-2,0,-2,2,8,9,-3,-1
1558440332116690,-6,-7,-5,-6,-3,-2,-2,-2
1558440332116690,2,0,-1,-1,-4,-11,0,2
1558440332130607,2,7,8,0,-2,1,-2,-2
1558440332130607,0,-3,4,2,2,2,-1,3
1558440332138348,-3,-6,-17,-9,-12,-8,-3,-4
1558440332138348,2,1,1,-2,8,9,5,4
1558440332152303,-1,-5,2,2,-4,-3,-1,-1
1558440332152303,1,5,2,-2,-7,-5,-6,0
1558440332160519,-1,1,-3,1,3,4,-1,-1
1558440332160519,-3,-5,-3,-1,-6,0,0,-2
1558440332176239,3,4,2,2,5,2,1,1
1558440332176239,2,0,6,7,7,4,1,-1
1558440332176239,-2,-5,-4,-6,0,-2,0,-4
1558440332176239,0,-4,-2,1,2,-1,0,-2
1558440332190543,0,-3,-3,2,-1,-6,0,4
1558440332190543,-2,-3,-3,-11,-3,0,-4,-8
1558440332198229,0,2,1,4,6,-2,0,5
1558440332198229,-3,1,6,5,-2,-6,-7,-10
1558440332221123,-3,-7,-8,-8,-13,-8,-5,-4
1558440332221123,-1,-1,2,5,5,5,3,3
1558440332221123,0,2,-1,-3,0,0,2,2
1558440332221123,-1,-1,-5,-5,-4,1,-3,3
1558440332236509,-2,-4,2,-1,-2,-2,-2,-1
1558440332236509,1,-1,-3,1,1,1,1,-2
1558440332237075,0,2,11,5,-1,-3,-2,-4
1558440332237075,-2,-2,1,-1,1,0,-1,-2
1558440332251264,-5,-7,-19,-11,-7,-4,-3,-4
1558440332251264,-5,-6,-2,-1,0,0,2,-3
1558440332258489,2,1,-2,0,0,2,-4,-1
1558440332258489,4,0,-6,-2,-4,-1,-2,2
1558440332273462,4,9,4,1,2,0,1,4
1558440332273462,-2,5,5,3,3,5,-3,-8
1558440332281093,-7,-13,-5,-5,-5,-7,-6,-4
1558440332281093,-2,0,2,0,-4,-4,-2,-3
1558440332296227,1,-1,-3,-2,2,1,3,2
1558440332296227,2,7,-3,-2,-5,-4,-2,3
1558440332296918,2,2,4,4,1,8,4,-1
1558440332296918,-1,-1,0,2,-7,-3,-2,4
1558440332310947,-4,-6,-4,-3,10,5,0,-11
1558440332310947,0,1,7,1,1,2,4,5
1558440332318119,-4,-4,-7,-2,-6,-5,-4,-3
1558440332318119,-2,-5,-2,-1,-1,-1,0,-1
1558440332333096,-1,0,1,0,-1,-2,-4,0
1558440332333096,0,0,-2,-2,1,-2,-2,3
1558440332339806,0,0,2,3,7,5,3,2
1558440332339806,-5,-2,-7,-3,-1,1,-4,-2
1558440332356021,-3,2,0,-3,-3,-3,1,-2
1558440332356021,-2,0,4,4,5,3,2,2
1558440332356757,1,4,5,4,-4,-6,-3,0
1558440332356757,-1,-3,-11,-12,-4,-10,-5,-5
1558440332370719,2,0,2,2,2,4,3,4
1558440332370719,-3,-5,0,0,-5,-1,-1,-6
1558440332378698,-1,1,-6,-4,4,-1,-2,-1
1558440332378698,0,2,7,7,7,10,1,-1
1558440332392720,0,-2,1,-2,-3,0,-7,-4
1558440332392720,-3,-6,-9,-2,-7,-4,-2,2
1558440332400641,0,0,-3,-4,2,0,7,3
1558440332400641,0,2,2,-1,0,-5,1,-1
1558440332416822,-1,0,2,2,-3,-1,-1,1
1558440332416822,-1,-3,-1,-2,-1,-1,-3,-2
1558440332416822,-6,-3,-9,-10,-12,0,-8,-4
1558440332416822,0,-2,-2,-3,-1,1,1,-3
1558440332430682,4,7,1,2,-1,-5,1,-1
1558440332430682,1,-5,3,3,5,-6,2,2
1558440332438582,3,3,-3,2,-3,-4,-4,-1
1558440332438582,-1,-1,11,-1,-4,4,-1,1
1558440332452836,-4,-8,-21,-5,-3,1,-1,-2
1558440332452836,-2,1,0,-2,1,-1,3,0
1558440332460820,-2,-4,-2,-4,-2,-4,1,2
1558440332460820,2,5,6,3,4,4,-3,4
1558440332476689,-4,-6,3,-3,-8,-2,2,-3
1558440332476689,2,1,-2,1,3,3,-2,2
1558440332476689,2,0,2,-4,-1,-4,3,1
1558440332476689,0,-1,-5,-4,-2,2,2,2
1558440332490749,-2,0,0,1,6,-2,-3,-2
1558440332490749,-8,-8,-9,-5,-7,-3,-3,-3
1558440332498690,2,3,9,3,1,1,2,-3
1558440332498690,-2,-4,-2,-2,-4,-6,-2,1
1558440332512687,-3,0,-3,0,0,2,1,0
1558440332512687,2,1,0,-2,-5,0,-3,-2
1558440332520319,0,1,0,4,9,5,1,-1
1558440332520319,-4,-4,-7,-4,-5,0,2,-3
1558440332537275,-1,-3,-4,-5,-2,1,-4,-1
1558440332537275,4,2,4,1,-2,-4,-2,2
1558440332538299,-1,-1,-3,-2,-3,3,-2,2
1558440332538299,-4,-4,-3,1,3,-4,-1,-8
1558440332550502,2,0,1,2,1,-3,1,2
1558440332550502,0,0,-1,-3,-4,-5,-5,-5
1558440332558473,0,0,1,-3,-3,-4,-3,1
1558440332558473,0,1,2,-3,0,9,2,1
1558440332573180,-2,-3,-3,4,-2,-7,-2,-1
1558440332573180,-3,-2,6,0,8,10,6,2
1558440332580391,-2,-3,-16,-9,-9,-6,-7,-6
1558440332580391,-3,0,-2,-1,-6,-13,-6,-1
1558440332596116,-1,1,5,4,10,6,4,1
1558440332596116,0,0,0,0,-1,-2,-1,0
1558440332596116,-2,-3,5,4,-1,2,-2,-1
1558440332596116,1,0,-2,-3,-9,-3,-4,-1
1558440332611075,-3,0,1,-3,3,5,-1,-6
1558440332611075,-2,-2,-4,3,-1,-4,0,0
1558440332618550,0,1,1,4,4,-3,-2,0
1558440332618550,-3,-4,-4,-7,3,1,0,-2
1558440332634428,-2,-6,-1,-2,-2,0,-3,1
1558440332634428,1,7,-1,-3,-1,-2,-2,-3
1558440332641104,-5,-9,-2,1,2,-1,-4,-5
1558440332641104,2,2,0,1,-3,-7,-4,3
1558440332656385,2,-1,8,1,-3,2,-7,-7
1558440332656385,1,0,-9,-5,-4,1,1,-7
1558440332656956,-6,-6,-3,3,11,3,10,5
1558440332656956,0,0,0,2,7,-1,2,1
1558440332669918,-4,-4,-7,-4,-11,-2,-2,0
1558440332669918,1,-1,4,-1,-6,-3,-6,-2
1558440332678279,1,2,2,-3,-9,-5,-5,-6
1558440332678279,3,2,9,4,6,3,8,1
1558440332692859,2,4,6,3,3,-1,3,6
1558440332692859,-2,-5,-11,-1,9,5,-1,-2
1558440332699840,-7,-5,-4,-14,-16,-8,-6,-4
1558440332699840,-2,-2,-3,-1,-6,-5,-6,-4
1558440332715796,-2,0,3,-2,-6,-7,-4,-4
1558440332715796,0,-3,1,-1,1,8,3,8
1558440332716793,3,5,6,6,6,1,3,-2
1558440332716793,-1,-4,-3,-9,-11,-10,0,6
1558440332729757,-1,-1,-1,1,3,1,0,-3
1558440332729757,-7,-3,-6,-7,-3,2,-1,-1
1558440332737747,1,1,3,3,1,-5,-2,-1
1558440332737747,0,0,-6,-2,-1,6,2,-2
1558440332752962,0,0,-4,-1,-3,-4,-1,1
1558440332752962,-1,-4,1,-3,-2,-5,0,-1
1558440332760683,-3,1,-3,0,1,2,-1,-4
1558440332760683,-3,-2,2,3,2,-1,-2,-2
1558440332775860,0,-1,-3,-1,3,-8,-4,2
1558440332775860,-1,1,-4,-2,-5,-6,-6,-3
1558440332776637,-1,0,-1,-7,-7,-3,-3,3
1558440332776637,0,1,0,6,6,4,3,-2
1558440332790595,-2,0,0,-5,-3,-1,4,0
1558440332790595,0,2,1,0,-1,-10,-2,-1
1558440332798609,3,3,5,4,8,10,5,3
1558440332798609,-3,-6,-10,1,6,11,-2,-5
1558440332813581,0,0,-2,-6,-8,-9,-3,1
1558440332813581,-1,-2,7,1,-1,-9,-3,0
1558440332820772,1,-2,-5,-6,-9,-4,-5,-2
1558440332820772,-3,-1,0,-1,-5,-3,-7,-7
1558440332835818,-2,-3,-6,-2,3,10,5,0
1558440332835818,-2,-2,-8,-3,-4,-9,-5,-3
1558440332836474,0,-1,0,-2,-5,-2,0,-1
1558440332836474,0,-1,5,3,4,-2,0,3
1558440332850866,-1,0,-1,1,5,5,-1,4
1558440332850866,0,2,-7,-6,-6,0,1,-2
1558440332858670,-2,-3,0,1,-1,-2,-4,-4
1558440332858670,-2,-1,-2,-1,-4,-4,-2,-3
1558440332873687,0,-2,-2,-1,-3,2,-5,0
1558440332873687,1,0,3,2,3,0,2,1
1558440332880707,-1,0,-1,6,7,5,-1,-2
1558440332880707,1,1,-3,-7,-8,-12,0,3
1558440332895661,1,2,3,3,8,2,-2,-2
1558440332895661,0,-2,4,1,-5,-1,0,-1
1558440332903295,-2,-3,-4,-7,-4,-3,-1,-4
1558440332903295,-1,-2,0,0,-4,1,-2,-4
1558440332910450,1,1,-15,-1,10,1,7,4
1558440332910450,-4,-4,-1,-8,-2,-1,0,-1
1558440332918581,-3,-1,-1,0,-1,3,1,1
1558440332918581,-2,-2,0,0,-3,-4,-5,-2
1558440332933528,-2,-4,2,-4,-11,-14,-9,-2
1558440332933528,1,4,5,8,11,7,8,2
1558440332940509,0,-2,0,0,-2,-3,-3,0
1558440332940509,1,0,-4,-4,3,9,3,-3
1558440332955431,0,0,4,3,-1,-1,-1,1
1558440332955431,0,0,-3,-2,-4,-1,2,5
1558440332964183,-4,-4,-5,-3,-1,3,-2,-9
1558440332964183,-1,1,2,4,3,-4,6,-2
1558440332970117,-5,-4,-3,-9,-3,1,-1,-2
1558440332970117,-3,-4,-6,-2,-6,-4,-8,-2
1558440332978384,1,1,-4,-2,-1,2,0,0
1558440332978384,2,1,8,6,8,-8,-3,3
1558440332993053,-2,-2,0,4,0,8,2,-6
1558440332993053,0,0,2,-3,-8,-3,-1,-1
1558440333000063,0,1,-11,-6,-1,-2,-1,2
1558440333000063,-2,-5,-4,-3,-5,0,-7,-4
1558440333015033,3,4,6,2,2,-2,1,0
1558440333015033,-3,-2,-1,-2,2,7,-2,-4
1558440333022972,0,-3,2,2,-4,-6,4,0
1558440333022972,-3,0,2,1,4,3,-1,-4
1558440333047338,-1,-1,-5,-8,-6,-5,-3,-2
1558440333047338,-2,-2,-1,0,2,1,-2,-2
1558440333047338,1,1,5,2,-3,-4,-1,1
1558440333047338,0,-2,-4,-2,-1,-12,0,2
1558440333052892,1,-2,-1,0,-9,-4,-5,3
1558440333052892,1,1,0,4,3,-5,-2,-5
1558440333059876,0,-1,2,0,6,15,8,2
1558440333059876,0,1,-4,-5,-4,-2,-1,1
1558440333076240,-1,1,-2,0,0,0,2,-2
1558440333076240,-3,-6,-2,-4,1,1,-1,-3
1558440333084280,-3,-4,-4,-2,-4,-6,-6,-4
1558440333084280,0,0,0,-2,-1,2,-2,-3
1558440333099212,0,0,1,1,-4,-15,-3,2
1558440333099212,2,4,-1,2,1,3,2,1
1558440333099212,-1,-3,-2,-4,1,-4,-3,1
1558440333099212,-2,-2,-3,-6,-10,-5,-3,-3
1558440333113177,0,-2,5,3,5,8,3,-4
1558440333113177,0,-3,-5,-1,2,-3,-2,0
1558440333120713,1,1,0,-1,1,1,-2,-5
1558440333120713,0,1,-1,-2,-4,4,3,4
1558440333135970,-3,-2,-1,-6,-8,-7,-6,-3
1558440333135970,-1,0,3,2,-3,-1,-1,-1
1558440333143683,0,1,4,5,8,5,4,4
1558440333143683,-3,-2,-3,-10,-3,1,-4,-6
1558440333158646,-2,-5,-2,1,-3,2,-1,-5
1558440333158646,2,-2,-4,-4,-7,-13,-1,1
1558440333159624,2,0,-3,0,0,-6,0,-1
1558440333159624,0,-4,1,4,4,6,3,3
1558440333172745,-3,-2,-1,-1,-3,-4,-6,-7
1558440333172745,1,3,6,0,0,4,-4,-8
1558440333180809,-2,-2,-6,-3,-4,-1,-1,2
1558440333180809,2,-3,-4,1,10,13,8,2
1558440333195772,5,7,0,0,2,-2,3,2
1558440333195772,-12,-10,-4,-7,-7,-4,-4,-3
1558440333203493,-1,-1,0,2,3,-5,-4,-3
1558440333203493,0,2,1,-1,1,3,2,4
1558440333218688,-1,-1,2,0,-1,2,-4,0
1558440333218688,-1,-2,-10,-7,-11,-8,-6,-4
1558440333219452,1,0,5,3,9,5,4,0
1558440333219452,-2,-1,0,-1,-5,-10,-3,-1
1558440333233590,-2,-3,-6,-6,-5,3,-2,-3
1558440333233590,2,2,3,2,2,7,4,4
1558440333240392,-1,-1,-2,-5,-3,-2,1,0
1558440333240392,0,3,2,4,3,3,-6,0
1558440333255351,-1,-1,1,0,4,6,2,0
1558440333255351,-3,-3,-14,-10,-10,-8,-4,-4
1558440333263364,-1,-4,1,1,1,1,5,3
1558440333263364,-1,-1,-1,-2,-6,-8,-2,-1
1558440333278289,-1,-1,0,-1,1,-3,-3,-3
1558440333278289,2,-1,2,1,3,7,5,7
1558440333279287,-2,0,-5,-3,-9,-6,-4,-5
1558440333279287,-1,0,10,5,1,-6,-4,-3
1558440333293249,-5,-3,-13,-4,-2,-8,-1,0
1558440333293249,0,-7,3,3,4,3,1,-1
1558440333300230,2,1,-3,-1,-4,-1,1,1
1558440333300230,0,1,-3,-4,0,2,-1,-2
1558440333315208,-1,-1,4,1,1,3,-2,1
1558440333315208,2,2,3,3,6,-2,3,-4
1558440333323611,-3,0,4,0,-3,2,-5,0
1558440333323611,-1,-3,-9,-6,-3,2,0,-2
1558440333338133,-4,-3,-1,-2,-7,-8,-3,0
1558440333338133,-1,3,4,1,3,-2,2,4
1558440333339127,-1,-3,-6,-2,-11,-12,-4,-2
1558440333339127,0,-3,-2,-1,1,-2,0,-3
1558440333353090,0,-1,0,-2,3,-3,5,4
1558440333353090,-4,-3,-1,3,-1,2,-6,-8
1558440333360075,-2,-2,-3,-4,2,1,-5,-3
1558440333360075,-2,1,-5,-7,-15,-11,-3,0
1558440333375033,-3,0,1,2,0,6,0,-4
1558440333375033,-1,0,10,4,3,6,2,5
1558440333383021,-2,-2,-13,-4,1,-4,-3,-3
1558440333383021,1,-1,1,3,7,8,4,0
1558440333398977,1,1,-1,2,7,3,4,5
1558440333398977,-1,0,3,-3,-6,-10,-8,-6
1558440333398977,0,0,0,0,-4,0,-7,-5
1558440333398977,-2,-1,-3,0,-2,2,-2,-2
1558440333412931,-1,-3,0,-1,-8,-6,-6,-4
1558440333412931,-2,0,-3,-3,9,7,6,6
1558440333419913,-1,-1,1,1,-4,3,0,1
1558440333419913,1,0,7,3,-1,-9,-6,-5
1558440333434876,-2,-4,-11,-2,0,4,1,4
1558440333434876,0,-2,-8,-5,-5,-3,2,-5
1558440333442858,1,1,2,1,6,7,5,2
1558440333442858,-2,3,5,2,-3,8,-2,-3
1558440333459034,-2,-3,-1,0,0,4,-4,-5
1558440333459034,0,1,-6,0,4,-9,0,2
1558440333459034,-3,-2,4,-2,-2,-4,0,0
1558440333459034,-2,-1,-2,2,3,-1,0,2
1558440333472771,1,-1,-1,-7,-8,-1,-2,-2
1558440333472771,-2,1,1,-1,-11,-7,-7,-6
1558440333479912,1,0,-3,-6,1,5,5,2
1558440333479912,-3,-3,-6,-1,-3,-8,-6,-2
1558440333495709,0,1,4,-1,-2,-4,-1,-1
1558440333495709,3,-1,3,5,12,5,6,6
1558440333502689,-1,-2,-5,-4,-6,-8,-5,-4
1558440333502689,-1,-1,-5,-6,-3,8,1,-1
1558440333518648,-1,-2,2,2,-4,0,-6,-5
1558440333518648,5,1,-3,-1,5,-6,9,9
1558440333518648,2,-1,4,2,0,2,1,-2
1558440333518648,-4,-7,-5,0,-7,-7,-8,-7
1558440333532610,-1,0,-3,-5,-3,5,2,-3
1558440333532610,3,3,1,3,6,-1,0,4
1558440333540590,-7,-3,1,0,-1,-3,-3,-6
1558440333540590,1,0,0,-5,-4,-2,-1,-1
1558440333555550,-1,1,3,5,6,5,4,1
1558440333555550,-3,-1,1,-3,-8,-3,-7,-2
1558440333562928,-1,-1,-3,-4,-4,-5,-1,-2
1558440333562928,-1,-2,1,-1,5,2,6,1
1558440333578633,-2,-1,-2,2,-1,-4,-4,-4
1558440333578633,-5,-2,-1,-3,-2,3,-6,-3
1558440333579490,0,0,0,-5,-7,-7,1,2
1558440333579490,-2,-3,-4,4,6,4,3,-1
1558440333592451,1,-2,-1,-6,-1,-4,2,4
1558440333592451,-4,-3,-3,-1,-5,1,-10,-13
1558440333600430,-2,-1,1,3,3,-3,-6,-3
1558440333600430,1,0,-3,-3,-3,-2,0,3
1558440333615389,-1,-1,0,2,0,-5,-1,0
1558440333615389,0,-2,-4,-6,-8,-1,-5,0
1558440333622370,-1,-3,-9,-2,-3,-2,-2,-3
1558440333622370,0,2,6,0,7,-6,2,-2
1558440333638343,-2,-3,-7,-2,-5,-10,-8,-7
1558440333638343,-3,-4,1,1,-5,2,-4,-3
1558440333639332,0,2,1,-5,4,7,7,5
1558440333639332,1,0,0,-2,-4,-4,-1,4
1558440333652572,-3,1,7,1,2,-1,-5,-4
1558440333652572,-3,-1,-6,-3,-5,-3,1,-7
1558440333660269,-3,-5,-1,2,-7,1,-7,-3
1558440333660269,2,0,-1,3,8,10,5,1
1558440333675228,-1,-2,-2,-6,-6,-6,1,2
1558440333675228,0,-4,-1,-2,3,1,4,1
1558440333683251,-2,0,4,5,-1,-8,-4,-3
1558440333683251,-4,-1,1,-4,-1,4,-1,-2
1558440333698170,1,-3,-9,-10,-8,0,0,5
1558440333698170,-2,-2,-3,-3,-5,-3,0,-7
1558440333699166,-2,1,2,1,1,3,3,2
1558440333699166,-1,-3,-5,-1,-1,-4,-5,-3
1558440333713277,1,0,6,5,10,11,8,0
1558440333713277,-1,0,-1,-2,0,-3,-1,-1
1558440333720118,-2,-2,-1,-1,-4,-10,-9,-3
1558440333720118,-5,-2,1,-5,-6,0,0,-2
1558440333735068,-1,-1,-7,2,7,6,5,2
1558440333735068,1,1,2,3,1,-2,-4,-1
1558440333743205,1,0,-1,-3,-4,-2,-3,-3
1558440333743205,0,-2,-6,-4,3,4,5,4
1558440333758012,0,-2,-1,-4,-12,-18,-7,-6
1558440333758012,-2,2,3,6,10,9,1,1
1558440333759005,-2,-1,-4,-3,-4,0,2,1
1558440333759005,0,-1,-3,-1,-5,-6,-3,-3
1558440333772967,2,2,4,2,-1,-2,-2,-5
1558440333772967,-1,-1,1,-2,0,1,0,-1
1558440333779948,0,1,4,-1,5,1,4,3
1558440333779948,-2,-3,-7,-3,-10,-10,-6,1
1558440333794911,-1,-1,0,1,-2,-2,2,-3
1558440333794911,-1,-2,-5,-4,0,-2,-3,-2
1558440333802888,0,-1,-1,-1,6,7,2,1
1558440333802888,1,4,9,9,-1,-1,-3,0
1558440333817850,-4,-3,-8,-11,-9,-9,-11,-12
1558440333817850,-3,-4,-5,-2,-2,8,1,-1
1558440333825826,0,-1,-3,1,2,-2,0,0
1558440333825826,2,0,5,2,2,-2,2,-1
1558440333832806,0,-3,-3,-2,1,3,1,2
1558440333832806,2,-1,3,-1,0,-6,0,3
1558440333839793,-1,-2,-4,-4,-9,-9,-8,-6
1558440333839793,1,1,1,1,0,-6,2,0
1558440333854748,-1,0,5,6,12,5,5,3
1558440333854748,-3,-2,0,-1,0,0,-3,-3
1558440333862727,1,1,-2,-5,-6,-5,-3,2
1558440333862727,-3,-2,-2,0,-8,0,-8,-8
1558440333877984,1,1,-3,2,3,-1,-2,0
1558440333877984,0,-3,1,-4,-7,0,3,2
1558440333885667,-1,-2,-3,3,5,-2,0,-1
1558440333885667,-1,-1,-2,-4,-1,5,1,0
1558440333892648,-3,0,-4,-3,-4,1,-6,-3
1558440333892648,-1,0,2,2,-2,3,-2,0
1558440333900900,-1,-3,7,3,-1,-1,0,-6
1558440333900900,-3,-3,-11,-7,-2,-8,1,1
1558440333915801,-1,0,0,0,3,0,3,4
1558440333915801,0,1,0,-1,-5,-6,-5,1
1558440333922780,-2,-4,-7,-4,-8,3,-1,-5
1558440333922780,0,-2,0,0,3,6,-2,-4
1558440333937539,-1,-1,5,2,1,-3,1,0
1558440333937539,1,-1,-7,-2,0,-7,0,4
1558440333945682,-1,2,8,2,5,4,1,-7
1558440333945682,-2,-3,-9,-2,-2,0,-4,-3
1558440333952664,-2,-4,-2,-4,-9,-10,-3,-1
1558440333952664,0,-2,-3,-10,-2,3,0,-1
1558440333960468,0,-3,0,1,1,0,1,2
1558440333960468,-1,-2,-3,-1,-2,1,0,2
1558440333975427,-3,0,-6,-3,-6,-5,-3,-2
1558440333975427,-2,-1,-2,3,1,-6,-3,0
1558440333982409,-1,-1,1,0,1,4,2,-1
1558440333982409,-4,1,1,-4,-7,-5,-4,-4
1558440333997367,1,0,2,2,2,3,1,3
1558440333997367,0,1,1,3,3,6,7,2
1558440334006460,0,-2,-5,-5,-2,4,-3,0
1558440334006460,1,0,5,7,2,3,0,0
1558440334021304,0,-2,-5,-7,-3,-4,-1,0
1558440334021304,-1,0,0,-4,-10,-11,-8,-6
1558440334021304,0,-1,-3,5,8,8,5,3
1558440334021304,0,2,1,3,10,3,8,3
1558440334035266,-3,-3,-5,-2,-8,-2,-5,-4
1558440334035266,-1,-1,4,1,-4,-2,-3,0
1558440334043265,-3,-2,-4,-8,-1,-4,-2,1
1558440334043265,-2,-2,-4,-1,-1,1,1,-2
1558440334058207,0,0,3,3,4,1,7,2
1558440334058207,-4,-2,-2,1,5,6,3,1
1558440334066213,-2,-2,-2,-3,-12,-7,-10,-7
1558440334066213,-1,-2,-5,-11,-10,-9,-9,-3
1558440334081426,0,2,5,3,9,11,7,0
1558440334081426,-2,-6,-6,1,1,2,2,-2
1558440334081426,1,1,4,2,7,2,5,5
1558440334081426,-2,1,7,4,2,5,-1,-3
1558440334095106,-3,-2,-8,-7,-6,-8,-5,-3
1558440334095106,2,1,-2,0,0,-5,-3,-2
1558440334103085,-1,-2,-2,0,-1,-3,1,2
1558440334103085,1,-1,-1,-2,-3,-3,-2,-1
1558440334118054,-1,-2,-1,1,-2,0,-3,-1
1558440334118054,-2,-2,-6,-4,-2,1,-1,-3
1558440334126023,0,0,1,4,2,-4,-1,2
1558440334126023,0,-1,0,-2,-5,-10,-3,-1
1558440334141141,1,1,0,-2,7,14,5,3
1558440334141141,-3,-2,-2,2,-1,3,-2,-3
1558440334141982,1,-2,-3,-3,1,4,-2,-2
1558440334141982,0,-1,1,0,6,-5,-1,1
1558440334154945,0,-1,-4,-1,-9,-4,-4,-2
1558440334154945,-2,1,1,-2,3,-5,-1,-2
1558440334162924,-2,1,4,3,2,-2,4,4
1558440334162924,-4,-3,-11,-3,-2,-1,-4,-6
1558440334177885,-3,-1,-2,2,-5,-5,-1,-2
1558440334177885,1,0,3,-2,-7,-11,-8,0
1558440334185867,-1,-3,-4,-4,-4,5,-2,-5
1558440334185867,0,-1,0,1,-1,1,3,2
1558440334200823,2,1,4,0,2,-9,-2,2
1558440334200823,-3,-3,-2,-4,-10,0,-4,-6
1558440334201819,-1,-1,-10,-1,3,0,-5,-2
1558440334201819,-2,0,4,1,2,10,7,4
1558440334214785,0,2,4,3,7,-2,1,3
1558440334214785,0,0,-2,-1,-2,-3,-3,0
1558440334223056,0,-4,-3,-6,-9,-6,-8,-6
1558440334223056,-2,0,1,0,-3,0,-5,-6
1558440334246700,-4,-2,-1,4,9,6,5,1
1558440334246700,1,1,4,0,-1,-7,1,2
1558440334247697,-1,2,0,-5,-4,3,1,2
1558440334247697,-2,-2,-9,-6,-9,-7,-5,-3
1558440334260662,-2,-3,-3,0,-6,-7,-7,-3
1558440334260662,0,0,-2,2,11,15,7,1
1558440334261659,-2,-1,2,1,2,-10,2,0
1558440334261659,-3,-3,-1,-2,-7,-1,-3,-2
1558440334284600,-2,-3,-2,-5,-11,-3,-8,-5
1558440334284600,2,0,1,0,1,1,3,1
1558440334285599,2,2,3,3,6,3,4,2
1558440334285599,2,2,4,3,7,2,3,4
1558440334297603,-5,-6,-12,-11,-13,-2,-9,-13
1558440334297603,-3,0,4,1,-2,-5,1,1
1558440334305542,-2,-3,-5,0,2,-1,-2,0
1558440334305542,-1,2,1,0,4,4,1,-1
1558440334320533,1,-1,2,0,-3,3,-1,0
1558440334320533,-3,-3,-4,-3,-3,-1,-1,0
1558440334321501,-2,-1,0,0,-7,-10,-5,-1
1558440334321501,-1,-4,-4,-3,-2,-5,-3,-1
1558440334335463,2,3,10,4,8,4,4,3
1558440334335463,0,-3,-7,-2,5,4,2,0
1558440334342742,0,-2,-5,-3,-2,-3,3,2
1558440334342742,-2,-1,1,0,-1,-3,-3,-2
1558440334366429,1,1,-3,0,4,4,1,0
1558440334366429,-6,-3,-2,-6,-10,-3,-7,-6
1558440334367427,-2,0,2,0,-5,-2,-3,-3
1558440334367427,0,-2,-5,-1,-2,-8,-2,-2
1558440334381421,1,1,4,1,5,2,5,4
1558440334381421,0,1,0,3,2,0,-1,-1
1558440334381421,-1,-2,-2,-5,-5,-9,-7,-2
1558440334381421,-2,-3,-2,0,2,5,2,-1
1558440334395354,-2,-2,-2,0,0,4,0,0
1558440334395354,0,1,1,1,-1,-6,-1,2
1558440334402535,0,2,4,3,4,3,3,0
1558440334402535,0,-1,-5,-8,-7,-7,-7,-1
1558440334417495,-1,-4,-5,1,-3,-7,-8,-3
1558440334417495,-3,-6,-10,-10,-6,8,2,-3
1558440334426268,0,0,0,0,4,-1,4,1
1558440334426268,0,3,8,-1,-2,-8,0,1
1558440334440232,-2,-1,-4,-4,-4,-1,-3,0
1558440334440232,-1,-2,0,0,-5,-7,-10,-4
1558440334448217,-1,-1,2,0,7,8,5,1
1558440334448217,-2,0,-2,-2,0,2,2,-1
1558440334455192,-4,-2,-2,-3,-7,-5,-3,-2
1558440334455192,-3,-4,-1,0,-4,-2,-6,-4
1558440334462174,2,1,-3,0,3,-10,-1,2
1558440334462174,3,3,7,5,10,5,13,10
1558440334488105,-2,-1,-5,-2,2,0,-2,-6
1558440334488105,-4,1,-2,0,-1,-5,-4,-8
1558440334489102,-3,-3,-4,-7,-11,-2,-6,-5
1558440334489102,-3,-3,-2,-1,-3,0,-2,-2
1558440334501081,3,0,3,-1,-2,-1,-1,4
1558440334501081,0,2,-1,2,2,0,2,2
1558440334501081,-3,0,1,5,6,3,-2,-3
1558440334501081,-1,0,-1,-2,-4,-5,-2,-3
1558440334523233,-1,-3,-1,0,-2,-1,1,0
1558440334523233,0,0,-2,0,-1,-2,1,-1
1558440334524015,-2,-2,3,2,-1,1,-5,-4
1558440334524015,-2,-1,-5,-5,-3,1,-1,0
1558440334538006,-1,-1,3,0,3,4,6,0
1558440334538006,-1,1,4,3,1,-4,-1,1
1558440334545961,-4,-1,-6,-8,-7,0,-1,-1
1558440334545961,-1,-2,-2,2,3,1,-1,-3
1558440334561070,-1,0,-3,-4,-6,-2,-3,-2
1558440334561070,1,0,0,-2,-1,2,0,2
1558440334561907,0,-1,-3,-1,-4,-1,-4,-1
1558440334561907,-2,-4,-2,-4,-6,-10,-6,-3
1558440334576868,1,1,3,1,5,-2,3,2
1558440334576868,2,0,-1,1,4,10,3,1
1558440334583011,-1,-2,-1,-3,-5,-9,0,-1
1558440334583011,-2,1,5,7,4,-2,1,-2
1558440334606953,-1,-3,-5,-6,-6,-4,-3,-1
1558440334606953,0,2,5,-1,-1,-3,2,-2
1558440334606953,-1,-1,-8,-4,-2,3,0,-1
1558440334606953,0,0,-1,-3,0,5,-3,-3
1558440334620752,1,0,2,4,1,-2,0,0
1558440334620752,-1,-2,-4,-3,-3,1,-1,-3
1558440334621747,-3,-1,1,1,-5,-6,-2,1
1558440334621747,-1,-2,-2,-2,1,-5,-2,-1
1558440334643730,-3,-2,-1,-3,1,3,0,0
1558440334643730,0,-1,1,3,5,-2,-2,4
1558440334643730,2,-1,1,1,3,0,5,3
1558440334643730,0,0,-2,-4,-3,5,0,-1
1558440334657650,0,0,7,3,2,5,1,-2
1558440334657650,-2,-3,-8,-8,-5,-2,-2,-4
1558440334665630,0,0,-4,-2,-2,-5,-4,-2
1558440334665630,1,-1,-1,-2,1,5,4,0
1558440334680592,0,-3,-1,-1,-4,-11,-8,-1
1558440334680592,0,0,5,3,3,4,7,4
1558440334681586,-3,-1,3,-2,-8,-3,-7,-7
1558440334681586,-1,0,-3,0,1,3,-4,0
1558440334695550,-4,-7,-19,-11,-8,-6,-4,-5
1558440334695550,0,1,7,4,-1,-10,-4,-3
1558440334702530,-1,-2,-8,-2,12,13,5,0
1558440334702530,-3,-1,5,-3,-3,1,-2,-2
1558440334717490,2,1,5,6,5,2,3,4
1558440334717490,-2,-2,-3,-1,1,-2,-4,1
1558440334725698,-1,-1,2,1,3,-1,4,0
1558440334725698,1,1,1,4,6,-5,-1,0
1558440334740429,1,-1,-4,-4,0,9,1,-1
1558440334740429,-1,1,0,0,-1,-2,-1,-1
