timestamp,emg1,emg2,emg3,emg4,emg5,emg6,emg7,emg8
1558440927580291,0,-1,-2,-11,-2,5,3,-4
1558440927580291,-3,0,3,25,3,0,-2,1
1558440927580291,-1,-2,-1,-11,-4,2,-2,0
1558440927580291,1,-2,-2,-19,-3,-3,-3,-4
1558440927581290,-1,-3,-2,16,0,-6,-3,0
1558440927581290,-2,-5,-6,-9,-5,1,-1,0
1558440927582288,1,1,2,-9,1,-11,0,0
1558440927582288,0,-1,1,10,-5,-7,-6,0
1558440927586277,-1,1,3,4,-2,4,-3,0
1558440927586277,0,0,-4,-22,3,2,3,1
1558440927594254,-1,-1,-5,-6,-5,-6,-2,-3
1558440927594254,-2,-2,-2,13,-2,0,-1,-1
1558440927600239,-1,1,2,-3,-2,-5,0,2
1558440927600239,0,-2,0,-7,-1,2,-2,-4
1558440927615199,-1,-1,1,12,-2,-4,-1,1
1558440927615199,-1,-1,0,-3,6,8,3,-2
1558440927632156,-2,-3,1,-8,1,-5,0,1
1558440927632156,-1,-2,-5,2,-6,-5,-2,-1
1558440927633151,-2,0,4,8,5,5,0,-2
1558440927633151,-2,-3,-6,-9,0,2,2,0
1558440927646115,-1,-1,-3,-4,-8,-10,-7,-5
1558440927646115,0,0,3,3,6,9,8,3
1558440927655091,-2,-1,-2,1,0,2,-3,-1
1558440927655091,0,0,1,-2,-3,-11,-3,-1
1558440927690996,2,2,5,-9,3,5,2,0
1558440927690996,0,-2,-7,-13,-3,-6,-1,-3
1558440927698986,-2,-2,-3,18,1,-3,-1,2
1558440927698986,-2,-2,-1,-4,4,5,0,0
1558440927700969,-1,-2,-6,-20,-5,1,2,-4
1558440927700969,-1,-1,2,17,-6,-4,-6,-4
1558440927700969,-1,1,1,-6,-1,-8,-6,2
1558440927700969,0,1,3,-9,5,1,5,2
1558440927712937,2,-2,-3,10,-2,-3,-4,-2
1558440927712937,-2,-1,2,3,-4,2,-2,1
1558440927719919,2,-1,-4,-13,2,12,1,-2
1558440927719919,-2,-2,-3,-3,-4,-10,-2,-4
1558440927726899,-2,0,2,13,2,-3,-1,1
1558440927726899,-3,-1,2,-5,-1,-2,-1,-1
1558440927743855,1,0,-2,-15,-4,5,4,0
1558440927743855,-1,-1,0,13,-1,-1,-6,-3
1558440927749840,-1,-2,1,-4,-4,0,-4,-1
1558440927749840,1,0,0,-7,-2,-8,3,0
1558440927758814,-1,-3,2,7,6,3,3,-1
1558440927758814,-1,0,2,3,-6,-1,-1,-1
1558440927772777,-1,-2,-3,-4,5,7,1,0
1558440927772777,-1,-1,-3,-2,-1,5,-2,0
1558440927779757,-3,0,2,5,-2,-14,-5,0
1558440927779757,0,0,-1,-9,-2,0,1,1
1558440927803693,-2,-2,-1,-2,-2,-4,-4,-1
1558440927803693,-1,-1,-2,3,-2,3,-2,-2
1558440927804700,-1,-2,-2,-4,-6,-9,-6,-4
1558440927804700,2,0,-1,-1,8,8,8,5
1558440927809677,-3,0,-5,1,0,0,1,-2
1558440927809677,-1,-1,0,1,-4,-7,-4,-2
1558440927818655,-1,0,-3,-12,-2,2,1,-2
1558440927818655,0,-1,4,7,0,-2,-3,-1
1558440927832616,-2,-3,-2,-1,-3,0,-1,-1
1558440927832616,-1,-2,0,-5,3,8,4,-1
1558440927839609,0,-1,2,1,0,-6,-5,-3
1558440927839609,-1,-1,-5,-4,-4,-8,-6,-2
1558440927855555,0,1,4,2,1,2,4,1
1558440927855555,-2,-1,-3,-1,4,-4,-3,-2
1558440927862537,-1,-2,2,3,-2,4,0,-1
1558440927862537,-2,-2,-3,-2,-1,-2,-4,-3
1558440927869517,-2,-1,-1,0,-8,-8,-6,-4
1558440927869517,-1,-2,-3,-5,0,1,-1,0
1558440927878494,-1,-2,-3,-3,3,6,2,2
1558440927878494,-2,-3,-2,-1,-8,-9,-6,-3
1558440927892457,-1,-2,-1,1,-4,-4,-4,-1
1558440927892457,3,2,5,1,6,10,9,3
1558440927899439,-2,0,-4,-2,-1,-5,-1,-1
1558440927899439,-3,-2,-5,-10,-7,2,-4,-4
1558440927915396,1,2,1,4,6,4,6,3
1558440927915396,-1,-1,-1,1,0,-7,-2,-4
1558440927922379,-2,-3,2,0,-6,-6,-4,-3
1558440927922379,0,-1,0,1,3,4,2,2
1558440927929359,-2,-2,-5,-1,1,1,-3,-2
1558440927929359,-1,-3,-3,-2,0,1,-3,-1
1558440927938345,1,1,2,1,-2,-1,0,0
1558440927938345,-2,0,1,-1,-6,-8,-8,-3
1558440927953295,-3,0,0,-4,-5,-4,-2,-4
1558440927953295,1,2,-3,-2,3,-2,4,2
1558440927959279,-2,-3,-1,0,1,5,0,-2
1558440927959279,-2,-1,-2,-2,1,-1,6,2
1558440927967256,2,-1,1,0,-1,-6,-3,-2
1558440927967256,-2,-3,-5,-7,-7,3,-7,-2
1558440927982217,2,2,0,4,1,0,1,-2
1558440927982217,0,0,-1,-2,4,0,1,0
1558440927990195,-2,-1,1,-3,-7,-7,-4,-3
1558440927990195,-3,0,-1,1,6,4,1,1
1558440927998175,-2,0,-4,-7,-6,-5,-2,-2
1558440927998175,1,-1,0,0,-3,-1,-1,-3
1558440928029092,1,-1,2,-2,5,4,6,1
1558440928029092,-1,-1,-1,-1,-6,-12,-5,-3
1558440928031086,-4,-2,-3,1,-3,4,-5,-2
1558440928031086,-2,1,-1,3,0,-5,-2,0
1558440928031086,1,-1,0,-3,5,3,0,2
1558440928031086,-2,-1,-1,-1,-3,-3,1,1
1558440928042057,0,0,2,4,4,6,7,2
1558440928042057,-2,0,3,0,-5,-1,-4,-3
1558440928050038,-3,-1,-7,-4,-5,-3,-2,-2
1558440928050038,1,0,-2,-1,2,-3,0,2
1558440928072974,-2,0,1,1,0,-1,-1,-1
1558440928072974,-2,-3,0,-1,-2,1,-5,-2
1558440928080953,0,-3,-3,-3,3,4,2,1
1558440928080953,0,-2,0,3,-1,-5,-3,-3
1558440928082947,-3,-2,-8,-8,-5,-3,-6,-6
1558440928082947,0,1,-3,-2,4,10,5,0
1558440928086936,-1,1,2,5,4,-9,-2,0
1558440928086936,-2,0,2,3,-8,-1,-6,-2
1558440928101896,0,-3,-3,-4,-4,-8,-1,0
1558440928101896,-3,-2,-1,-2,1,6,1,0
1558440928109875,-2,-1,-3,-4,-4,2,-2,-2
1558440928109875,-3,-1,0,0,6,9,-1,-1
1558440928132816,1,-1,4,4,-6,-9,-4,-3
1558440928132816,0,0,-3,3,4,3,5,1
1558440928133812,-1,-2,-6,-10,-6,-5,-4,-3
1558440928133812,0,-3,-2,1,0,-1,-5,-4
1558440928140794,1,1,-6,-13,-7,3,-1,0
1558440928140794,-2,-2,-1,-4,-3,-2,-1,0
1558440928146777,-1,1,1,2,-1,1,0,2
1558440928146777,-2,0,-1,-2,0,6,4,0
1558440928161740,-1,-2,1,4,-2,-3,-4,-2
1558440928161740,0,-1,1,-4,-2,-4,-2,-1
1558440928177694,0,1,-2,-4,1,1,2,1
1558440928177694,0,1,3,1,-3,-6,-1,-1
1558440928184676,-3,-1,1,-2,-2,1,-2,-2
1558440928184676,-1,-1,-3,-4,-5,-4,-4,-3
1558440928192654,-1,-2,0,5,-1,0,-2,0
1558440928192654,0,-1,-1,-4,-4,5,2,-2
1558440928200634,0,-1,-2,-1,5,2,6,2
1558440928200634,0,-1,-1,3,2,2,-2,-1
1558440928207614,0,1,5,4,-1,-6,-1,-2
1558440928207614,0,-1,-2,-8,-1,-7,-3,0
1558440928222575,-3,-2,-5,-7,-4,-8,-2,0
1558440928222575,-1,1,2,6,-8,-7,-5,-3
1558440928229555,0,-1,-2,-3,7,13,4,0
1558440928229555,-2,2,1,0,-1,-6,1,-1
1558440928246512,-1,0,-1,4,-1,2,-3,-3
1558440928246512,1,1,-2,-6,0,-2,1,0
1558440928252495,-1,-1,2,6,-4,-3,-2,-3
1558440928252495,-2,-1,-6,-12,-5,-4,-4,-1
1558440928261471,0,-1,0,-2,1,1,-2,2
1558440928261471,-1,-2,0,0,1,-3,-6,-2
1558440928267454,-2,0,0,-1,-2,0,1,-1
1558440928267454,0,-3,0,4,1,-4,4,2
1558440928282414,-1,0,-1,-2,2,1,2,1
1558440928282414,-2,0,1,2,-4,-4,-4,-1
1558440928298371,-3,-5,-7,-7,-7,-1,-10,-6
1558440928298371,0,-2,-4,-3,2,3,3,0
1558440928304362,1,2,2,4,6,3,6,5
1558440928304362,0,-1,-4,-4,0,5,4,-1
1558440928312337,-2,1,6,5,3,-1,0,-1
1558440928312337,-1,1,3,1,-4,3,-4,-2
1558440928321311,-2,-5,-2,-5,-3,-7,-5,-5
1558440928321311,-1,0,1,1,-2,-9,2,-2
1558440928336269,1,0,-3,-3,3,6,6,3
1558440928336269,-1,-1,2,3,1,0,-4,-3
1558440928342255,0,1,1,6,4,11,1,-1
1558440928342255,-1,1,2,-2,7,-6,-1,5
1558440928358211,-3,-2,-2,-3,-7,-5,-6,-5
1558440928358211,-1,-2,-3,-5,-7,-13,-2,-1
1558440928364195,2,-3,1,2,2,4,2,-1
1558440928364195,-3,-3,-2,-1,-4,2,-2,-4
1558440928372173,-1,-2,-3,-5,-6,-13,-8,-3
1558440928372173,0,1,2,2,8,19,7,2
1558440928381150,-1,0,-5,-4,-2,-3,-4,-3
1558440928381150,2,-1,-3,-5,0,-3,6,4
1558440928395112,0,0,1,2,-9,-6,-5,-2
1558440928395112,-2,0,0,0,0,1,1,-2
1558440928402094,0,1,1,-1,-3,-13,-5,-2
1558440928402094,0,0,3,5,6,17,2,0
1558440928418052,-5,-4,-11,-10,-2,-5,-2,-1
1558440928418052,-1,-4,-7,-5,-5,-3,-4,-2
1558440928425032,-2,-4,-2,-5,0,4,0,-2
1558440928425032,-2,0,1,1,-4,-7,-8,-5
1558440928432019,2,2,5,4,1,-2,3,2
1558440928432019,-3,0,-2,1,-1,1,-2,-2
1558440928440991,-2,-2,0,1,-7,-6,-6,-1
1558440928440991,2,-2,-3,-5,-2,5,1,0
1558440928454953,0,0,0,2,7,4,3,2
1558440928454953,0,-2,-4,-2,-9,-11,-5,-2
1558440928470909,-2,-3,1,0,-3,-5,-3,1
1558440928470909,-2,-1,-1,-4,1,6,1,-3
1558440928477891,-1,1,1,1,-1,4,3,1
1558440928477891,2,-1,5,7,4,-1,-4,-1
1558440928484872,2,0,-3,-13,-4,-5,-1,-2
1558440928484872,0,-1,0,3,0,-3,-1,0
1558440928491854,-1,-1,-3,-4,-1,4,2,2
1558440928491854,-2,-2,-4,-3,1,0,-2,-1
1558440928500830,-2,0,-4,-3,-3,-1,-2,-2
1558440928500830,-2,-1,-4,-2,-1,3,0,0
1558440928515790,-3,-3,3,1,-4,-6,-4,-1
1558440928515790,2,1,3,3,-2,-6,1,1
1558440928521775,0,1,1,4,7,6,3,0
1558440928521775,-1,-2,-4,-9,-6,-5,-6,-3
1558440928529753,-2,-3,-2,-3,-7,-7,-7,-3
1558440928529753,1,1,3,1,8,9,3,2
1558440928544712,-3,-2,-6,-1,2,-1,-2,-2
1558440928544712,-2,-1,3,1,-7,1,1,-1
1558440928551694,0,-3,-2,-6,0,-2,-3,-2
1558440928551694,1,0,-1,1,1,-2,2,0
1558440928575629,-2,2,0,3,-3,2,2,-1
1558440928575629,0,-1,-3,3,0,-1,1,0
1558440928576626,-1,-1,-5,-4,-2,-6,-4,-1
1558440928576626,-1,1,-5,-9,-4,-4,1,0
1558440928582612,-1,0,4,3,2,1,1,-1
1558440928582612,-1,-2,2,1,-5,-8,-7,-3
1558440928589592,0,-2,-5,-2,1,16,4,-2
1558440928589592,-2,-1,1,-2,5,-1,0,1
1558440928604552,-1,-1,1,-1,-5,-6,-4,-2
1558440928604552,-3,-2,-4,1,1,-4,-2,-2
1558440928621507,2,0,4,4,4,6,2,1
1558440928621507,-3,-3,-1,-3,-3,4,-1,-2
1558440928622503,2,-1,-2,-4,5,-3,3,1
1558440928622503,-2,-2,1,2,-2,-2,-2,-1
1558440928635469,0,1,4,2,-1,-7,-3,-2
1558440928635469,-1,-2,-4,-5,-6,-2,-3,-4
1558440928642450,-1,0,-4,0,1,6,2,-1
1558440928642450,-2,-3,-4,-5,0,3,-2,-1
1558440928649432,0,2,-1,0,-5,-10,-4,-1
1558440928649432,-1,-2,-1,3,7,1,0,-1
1558440928664393,3,-2,4,4,1,2,1,2
1558440928664393,-1,-1,-2,-6,-1,-1,0,1
1558440928672373,0,-1,-7,-5,1,6,1,-4
1558440928672373,-3,-2,-1,4,-9,-7,-8,-3
1558440928688360,-1,0,1,-5,6,13,6,2
1558440928688360,2,1,4,9,2,-3,3,1
1558440928695310,0,-1,-3,-9,0,2,2,-2
1558440928695310,-1,-2,-9,-8,-6,-1,-2,-1
1558440928710304,-2,1,-1,4,-2,-4,-2,-3
1558440928710304,-1,0,-4,0,-3,-4,-3,-2
1558440928711306,1,-1,3,5,1,1,4,0
1558440928711306,0,-1,-2,-4,5,1,-1,0
1558440928724259,-1,-2,-2,0,-6,-10,-1,-1
1558440928724259,1,0,5,5,6,0,-1,0
1558440928748170,-3,-1,-2,-4,-3,-4,-4,-2
1558440928748170,-2,0,0,0,-1,-3,-4,-3
1558440928750162,-1,0,2,16,0,10,2,2
1558440928750162,-2,-3,-9,-20,-8,-7,-6,-4
1558440928755175,0,-1,4,2,7,8,8,4
1558440928755175,0,0,2,5,2,4,1,-3
1558440928770110,1,-1,4,-1,-1,-4,-5,1
1558440928770110,0,-3,-6,-3,-6,-9,-4,-3
1558440928771120,-1,-2,-2,-1,-4,0,-4,-2
1558440928771120,-1,2,-3,0,1,-4,-2,0
1558440928785103,-2,-2,-1,-4,-4,-6,-4,-3
1558440928785103,-1,0,-1,-3,2,-5,-2,-1
1558440928800056,-1,0,6,7,3,3,2,0
1558440928800056,-1,0,-7,-4,-3,-4,0,-1
1558440928807040,-1,-1,-1,0,-3,-4,-3,-2
1558440928807040,-3,-1,-5,-13,-9,1,-6,-4
1558440928814990,-3,-1,-6,-3,-1,-3,-4,-2
1558440928814990,0,1,7,-1,2,4,5,2
1558440928829951,-2,-2,-5,-6,-5,-8,-3,-3
1558440928829951,-1,-1,0,5,-1,10,3,0
1558440928830946,1,0,2,6,0,-6,-4,-3
1558440928830946,-1,-2,5,2,-4,-6,-4,-1
1558440928852889,-4,-1,-10,-10,4,7,3,1
1558440928852889,-4,0,0,0,4,-2,2,2
1558440928853921,-3,-1,0,-3,-4,-5,-4,0
1558440928853921,0,-3,-7,1,-3,1,0,0
1558440928866885,-1,-3,1,-3,1,3,-2,-4
1558440928866885,1,0,3,2,2,2,4,1
1558440928875827,-1,-1,-6,-3,-2,-3,-1,1
1558440928875827,-3,-3,3,-1,-6,-8,-5,-1
1558440928890785,1,-1,1,0,-4,2,-1,1
1558440928890785,0,-1,-1,0,2,2,2,-1
1558440928890785,0,-1,6,9,-2,-8,-3,-2
1558440928890785,-2,0,0,-3,2,8,2,-1
1558440928904792,-3,-3,-10,-11,-3,-3,-1,-1
1558440928904792,-1,0,-1,4,-7,-9,-7,-3
1558440928911730,0,-1,-3,-6,2,9,3,1
1558440928911730,-1,-3,3,2,1,-5,0,1
1558440928927688,-1,-2,4,3,0,0,0,0
1558440928927688,-2,-4,1,-1,-4,3,1,-2
1558440928935667,-2,-2,-11,-2,-4,-5,0,0
1558440928935667,1,1,-3,-6,1,8,-1,-2
1558440928950626,0,0,-4,-5,-1,6,2,2
1558440928950626,0,0,-2,-2,3,-7,-1,1
1558440928950626,-1,0,0,-1,-7,0,-1,-3
1558440928950626,1,-1,3,1,-3,0,-1,0
1558440928964590,0,1,-4,-8,2,-10,-2,-1
1558440928964590,-1,0,-1,-6,-3,4,-2,-2
1558440928972567,-3,-4,-7,-3,1,2,-1,-1
1558440928972567,0,0,-3,4,0,3,-2,-1
1558440928987528,0,0,6,4,-3,-8,-6,-1
1558440928987528,-3,-3,-2,-2,3,13,7,0
1558440928995506,1,0,1,1,-1,-4,-1,0
1558440928995506,-1,0,0,-3,-2,-12,-3,-1
1558440929010465,0,0,2,3,0,5,-5,-4
1558440929010465,-1,2,-2,-7,2,-4,2,1
1558440929011463,-5,-3,2,-1,-4,-2,-2,-3
1558440929011463,0,0,0,1,9,9,7,2
1558440929026423,-2,-2,0,1,0,1,1,-1
1558440929026423,-1,-2,-3,3,-3,-11,-6,-2
1558440929032408,1,-2,5,1,6,1,2,2
1558440929032408,-1,-1,-1,-9,-9,-6,-5,-2
1558440929047367,-2,-2,-13,-4,-3,-5,-5,-2
1558440929047367,1,-1,2,1,0,6,0,0
1558440929055345,-1,-6,-4,-8,-9,-4,-7,-5
1558440929055345,-1,-1,2,6,5,1,4,0
1558440929078285,2,1,6,4,0,4,4,1
1558440929078285,-1,0,-1,-7,-1,-4,-6,-2
1558440929079282,1,0,-7,-2,-1,-1,2,0
1558440929079282,0,-1,-4,-1,0,-4,-3,-1
1558440929084302,-2,-1,-2,1,0,-1,-2,-2
1558440929084302,1,1,-2,-6,0,-10,-1,-2
1558440929092287,-1,2,5,5,-3,7,-3,-2
1558440929092287,-4,-5,-5,-4,-9,-9,-3,-3
1558440929107206,-1,0,-3,-7,1,-12,-3,-1
1558440929107206,1,-2,-1,2,5,14,5,1
1558440929123164,1,1,4,-3,2,-2,-1,1
1558440929123164,-1,1,-3,-3,-4,-2,-1,-2
1558440929138123,-1,-1,7,5,-11,-12,-8,-4
1558440929138123,-2,-3,-4,2,1,0,-2,-2
1558440929139121,0,1,-1,-1,5,3,7,2
1558440929139121,-3,-2,-1,0,-1,8,-2,-3
1558440929145106,1,-3,-2,-9,-3,-5,1,1
1558440929145106,-1,0,3,2,1,0,3,1
1558440929152087,0,1,3,1,4,1,2,1
1558440929152087,-2,-3,-9,2,-2,-10,-6,-2
1558440929167047,-2,-2,-1,-6,-4,5,-2,-2
1558440929167047,-1,0,4,8,-2,2,-4,0
1558440929175025,-4,-2,-9,-12,-4,-13,-3,-2
1558440929175025,0,2,4,0,-1,-1,-2,0
1558440929191022,-2,-2,-6,-1,0,5,0,-2
1558440929191022,0,0,0,3,4,1,2,1
1558440929192004,0,0,3,3,-4,-1,-2,-2
1558440929192004,-1,0,-5,-1,2,1,-1,-2
1558440929204946,-1,0,2,-3,6,2,4,1
1558440929204946,-3,-5,-7,-3,-12,-3,-9,-4
1558440929211926,-4,-3,-3,3,-1,0,-3,-1
1558440929211926,2,-1,1,-4,8,2,5,2
1558440929243843,-3,0,1,6,-1,2,1,-2
1558440929243843,0,2,-2,-6,-3,-1,1,0
1558440929243843,-3,-4,-5,-5,-4,0,-2,-4
1558440929243843,-1,-2,2,-1,-8,-5,-4,0
1558440929249826,0,-1,-2,10,7,10,5,2
1558440929249826,-1,1,0,0,-2,-5,-2,1
1558440929257804,1,-1,4,-3,-3,-9,-1,-1
1558440929257804,0,-1,-13,-3,2,4,3,0
1558440929264786,-1,-5,-3,-15,-10,-8,-6,-2
1558440929264786,0,-1,1,-1,-4,2,1,-4
1558440929271766,1,2,2,6,3,4,0,1
1558440929271766,-1,3,11,-2,1,-8,-3,1
1558440929286726,-1,-1,-9,-3,-4,-1,-4,-4
1558440929286726,-2,-3,2,2,12,16,8,3
1558440929295702,-1,0,-7,2,3,-13,-1,1
1558440929295702,0,-2,6,1,-3,3,1,-1
1558440929309667,0,-1,-5,-9,-9,-5,-3,-1
1558440929309667,-4,-2,-3,1,-5,-10,-7,-2
1558440929317651,0,-2,4,2,-3,7,-3,-1
1558440929317651,-2,2,-1,-3,1,3,1,-1
1558440929324630,-1,0,3,5,3,-7,1,0
1558440929324630,0,-2,1,4,4,2,2,0
1558440929332605,-1,-1,-4,-6,2,8,0,-1
1558440929332605,-1,-4,-8,-9,-12,-11,-5,-2
1558440929347568,0,1,5,4,6,-3,1,2
1558440929347568,2,-2,-1,-3,-1,-5,-1,-3
1558440929355647,-2,-3,-4,3,-2,-3,-2,-2
1558440929355647,-1,-2,0,0,-2,7,-4,0
1558440929370506,-1,-1,-4,-9,-8,1,2,-1
1558440929370506,-1,-3,-2,-2,-5,1,-2,-2
1558440929378529,-1,-4,-4,-4,1,1,-4,-2
1558440929378529,3,4,7,10,8,-7,7,5
1558440929384508,-2,1,3,4,6,-4,1,2
1558440929384508,-3,-2,-2,-4,-6,-2,-4,-4
1558440929392561,-1,0,2,-2,-8,-1,-2,-4
1558440929392561,-3,-5,-5,-3,-5,2,-6,-4
1558440929417378,0,-4,-8,-9,-7,-4,-3,-4
1558440929417378,0,2,7,5,-2,-2,3,1
1558440929418379,-2,-4,-9,-3,5,-5,5,3
1558440929418379,-3,-2,1,-4,1,0,1,0
1558440929429346,-1,-4,2,3,0,8,0,-2
1558440929429346,0,1,0,1,4,-4,-2,0
1558440929438321,-1,-1,6,0,0,-2,-5,-1
1558440929438321,-1,-2,-10,-6,-7,-3,-1,-1
1558440929453281,-1,0,1,7,4,12,-1,-1
1558440929453281,-3,-2,-5,-10,-10,-4,-4,-2
1558440929453281,3,2,5,4,3,0,4,1
1558440929453281,-3,1,-3,-1,0,-6,0,-2
1558440929467244,-1,0,-3,2,4,5,6,4
1558440929467244,0,-1,-1,-2,0,4,0,-2
1558440929475223,-2,-2,-2,-4,-8,-7,-5,-1
1558440929475223,0,-1,4,3,0,8,2,-1
1558440929489187,1,0,2,3,1,-6,-1,0
1558440929489187,0,0,0,0,1,-1,2,0
1558440929498162,-4,-3,-8,-7,-10,-8,-7,-4
1558440929498162,0,-1,2,2,6,10,3,-1
1558440929513123,-1,0,3,-1,0,-8,-6,-1
1558440929513123,-1,-4,-4,4,2,1,0,0
1558440929513123,1,-2,-7,-9,-6,0,1,-2
1558440929513123,-3,-3,-4,-1,-5,0,-5,-4
1558440929527083,0,3,8,11,3,0,0,-1
1558440929527083,-3,-4,-8,-10,-5,-3,-3,-4
1558440929535062,-2,-2,-4,-8,6,3,6,1
1558440929535062,2,1,-1,3,3,-7,3,3
1558440929550023,0,-1,0,-4,-5,-3,-4,-2
1558440929550023,0,1,0,4,0,-5,-3,-1
1558440929558001,-3,-2,-2,-2,-8,0,-4,-3
1558440929558001,-2,-3,-5,-3,-8,-4,-6,-4
1558440929580941,-1,-2,3,1,1,-2,0,1
1558440929580941,0,-1,0,-3,3,-4,0,-2
1558440929581939,0,1,0,1,-2,-4,0,-1
1558440929581939,0,2,8,11,8,5,4,1
1558440929586923,-2,-2,-11,-17,-7,-2,0,-1
1558440929586923,-1,-2,-4,-3,-7,-4,-3,1
1558440929594903,-1,0,0,1,4,8,-2,-1
1558440929594903,-1,-3,-2,-6,-11,-8,-4,-1
1558440929625819,-1,0,2,6,8,5,2,0
1558440929625819,-1,-2,-3,-1,-9,-2,0,-1
1558440929626817,0,-1,-2,4,7,5,6,-1
1558440929626817,0,1,0,0,4,-2,0,0
1558440929632801,-1,1,1,4,2,-2,0,2
1558440929632801,0,1,11,5,0,-5,-1,1
1558440929633798,0,1,-4,-6,-4,-6,-2,0
1558440929633798,-4,-5,-8,-8,-1,2,-2,-4
1558440929646763,-1,-3,1,0,-6,-2,-3,-3
1558440929646763,1,-2,-7,-5,-3,3,-2,-4
1558440929655740,0,1,6,5,5,3,1,0
1558440929655740,-1,0,-2,0,-3,-6,-1,-1
1558440929669702,-2,-4,-3,-3,-5,-5,-3,-4
1558440929669702,3,4,10,4,7,-5,1,3
1558440929677681,0,-2,2,5,2,12,6,2
1558440929677681,-1,-1,-9,-6,-2,3,-1,1
1558440929692641,-3,-2,-4,-3,-4,-2,-1,0
1558440929692641,-4,0,-1,-2,-2,-4,-3,-3
1558440929693638,-3,-3,0,0,1,5,0,-2
1558440929693638,1,1,4,3,-4,3,-4,-3
1558440929707615,0,0,-4,-3,-7,-24,-2,0
1558440929707615,-1,-1,-3,0,1,2,2,0
1558440929715591,-1,-1,-2,0,-3,-7,-4,0
1558440929715591,-2,0,-1,-2,-1,-2,0,-1
1558440929729542,-2,0,3,7,2,10,0,1
1558440929729542,-1,-3,-8,-14,-1,3,1,0
1558440929737521,-1,-2,-2,-3,-7,-12,-4,-3
1558440929737521,-1,-2,-1,-4,-2,3,0,-2
1558440929752480,0,1,2,-1,5,1,-1,-1
1558440929752480,0,-3,-1,5,2,1,1,0
1558440929753477,0,0,-3,-2,-5,2,-6,-3
1558440929753477,1,-2,0,5,4,1,-1,0
1558440929767453,1,0,-3,-7,-2,-13,3,2
1558440929767453,-3,-1,0,0,4,12,5,3
1558440929775430,0,-1,2,2,-1,-1,-1,0
1558440929775430,1,0,4,-1,1,0,1,1
1558440929789393,-1,0,-2,6,-1,-1,-4,-2
1558440929789393,-1,-2,-7,-8,-4,-4,-1,-4
1558440929798365,-1,0,-3,-5,-3,-12,-1,-1
1558440929798365,-1,0,5,2,2,0,0,-1
1558440929821400,0,-3,-7,-2,-7,4,-1,0
1558440929821400,-3,-2,-2,1,-4,-7,-6,-2
1558440929822299,0,0,9,8,10,11,-1,-1
1558440929822299,-3,-5,-12,-18,-11,-7,1,-3
1558440929827385,0,0,-3,-1,7,6,4,1
1558440929827385,-1,0,-1,1,0,0,2,-3
1558440929835268,-2,0,1,1,-4,-5,-1,1
1558440929835268,-1,0,-1,2,-1,-4,-3,-2
1558440929859418,0,-2,-3,-6,-2,-1,-1,-3
1558440929859418,0,-1,-4,-4,0,2,-2,-1
1558440929860195,1,0,-2,-3,1,-3,1,-1
1558440929860195,0,0,-1,3,-3,-4,-1,1
1558440929873159,-4,-2,1,-1,0,8,0,-3
1558440929873159,-1,0,1,3,2,-5,-4,0
1558440929873159,1,1,-2,-3,-2,-3,1,1
1558440929873159,-2,-4,-5,-5,-1,-1,-1,-2
1558440929887126,-1,-1,5,3,-5,3,-4,-4
1558440929887126,0,1,4,1,-6,-8,-3,0
1558440929903079,-2,-3,-9,-7,6,2,5,3
1558440929903079,1,-1,0,-1,1,6,1,0
1558440929910435,-2,-1,0,-1,2,-7,-1,-2
1558440929910435,-2,-3,1,-2,-1,6,0,-1
1558440929918437,-4,-2,-3,-4,-6,0,-4,-4
1558440929918437,-2,0,2,-1,-1,1,2,-2
1558440929933266,0,-2,-5,-1,-6,-5,0,-3
1558440929933266,1,1,5,3,4,-5,4,2
1558440929934269,-3,0,-1,-1,-5,-9,-6,-2
1558440929934269,-4,-2,-1,-2,0,6,-4,-1
1558440929947273,1,1,-1,2,1,7,1,0
1558440929947273,-1,-1,-2,-1,0,4,3,-3
1558440929955022,2,-2,1,3,0,0,0,-2
1558440929955022,-4,-5,-7,-11,-7,-3,-3,-2
1558440929971210,-2,0,-2,-5,-5,-7,-6,1
1558440929971210,-2,0,1,0,-2,-8,-5,-1
1558440929978208,0,-1,2,8,2,4,0,-1
1558440929978208,0,-1,1,3,6,1,2,1
1558440929993158,0,0,3,-2,2,0,1,-1
1558440929993158,-2,-3,-7,0,6,6,3,0
1558440929993837,-2,-2,1,-5,-8,-9,-4,-1
1558440929993837,-1,-4,-9,4,0,3,-3,-2
1558440930008030,-1,-2,-8,-17,0,5,1,1
1558440930008030,0,1,1,6,-8,-20,-2,-2
1558440930023099,-1,-1,-1,-2,4,9,6,-1
1558440930023099,-1,1,0,0,-2,-11,-4,-4
1558440930030007,-3,-3,-2,4,-2,1,-4,-3
1558440930030007,0,-2,0,-2,0,9,2,0
1558440930037978,0,0,-2,-6,2,3,2,-1
1558440930037978,1,1,5,4,0,0,2,0
1558440930053682,-1,-3,1,0,-4,-3,-5,-2
1558440930053682,-1,-3,0,-4,1,1,-3,-1
1558440930053682,-2,-3,-4,0,-1,-5,1,0
1558440930053682,-1,-2,-1,-1,-3,2,-1,0
1558440930068637,0,-1,0,-1,0,1,-1,-4
1558440930068637,-2,-2,-4,-5,-7,-7,-9,-3
1558440930074650,0,-3,-7,-6,-1,5,-2,-1
1558440930074650,0,1,1,-3,3,-4,1,1
1558440930089614,-2,-2,-1,1,-2,-1,1,0
1558440930089614,0,2,-2,-4,0,-5,4,3
1558440930097558,-3,-2,2,-2,-7,-6,-10,-5
1558440930097558,0,-3,-8,-9,-1,3,1,-1
1558440930112519,0,0,10,8,5,4,8,1
1558440930112519,0,1,-6,1,-4,-9,-2,-3
1558440930113516,-4,-4,-1,-2,-2,0,1,-1
1558440930113516,0,1,2,1,-3,-15,-7,0
1558440930127479,-3,-4,-3,-2,-5,-3,-5,-4
1558440930127479,2,1,6,4,10,10,7,2
1558440930134653,0,-1,-3,-4,-3,-3,-2,-1
1558440930134653,-4,0,0,6,3,3,-2,-2
1558440930149420,-2,-1,-8,-11,-9,-9,-3,0
1558440930149420,-3,-2,-2,-2,-5,-3,-5,-5
1558440930158669,1,-1,0,3,1,3,-3,-2
1558440930158669,0,2,4,9,3,0,4,1
1558440930173665,-2,-1,-3,-5,-2,6,-1,-1
1558440930173665,-2,-4,-8,-6,-10,-6,-6,-2
1558440930173665,2,3,5,7,5,-6,5,4
1558440930173665,0,1,3,-4,-5,0,-3,-2
1558440930188364,0,2,0,1,-1,3,2,0
1558440930188364,-1,-2,-2,0,5,5,3,-1
1558440930195406,0,-1,1,0,-4,2,0,-1
1558440930195406,1,-1,1,-2,-1,-6,-2,-1
1558440930210507,-1,0,-2,-5,2,-6,-4,-2
1558440930210507,-5,-5,-2,2,-1,7,-4,-4
1558440930218236,0,2,-4,-6,-6,-10,-1,1
1558440930218236,0,-1,0,2,0,-3,-1,1
1558440930232201,1,0,-4,-9,2,0,-1,1
1558440930232201,1,-2,-1,-1,1,4,4,0
1558440930240852,-1,-2,-6,-5,-3,0,0,-3
1558440930240852,-2,-1,1,3,-4,2,1,-2
1558440930247520,0,-3,0,3,-3,-1,-4,-3
1558440930247520,-1,2,2,-5,-2,2,0,1
1558440930254503,1,0,0,0,3,-2,4,0
1558440930254503,0,-1,-1,-5,-6,-5,-8,-4
1558440930270518,2,0,5,11,14,17,5,2
1558440930270518,-1,-1,-2,-9,-4,-5,-1,1
1558440930277440,-2,-1,-7,-8,-6,-2,-4,-1
1558440930277440,-1,-2,-1,-1,3,0,-1,-2
1558440930292692,-1,-3,-2,-5,-6,-3,-1,-1
1558440930292692,-1,-2,0,6,0,-8,-2,0
1558440930300379,-3,-1,4,2,-1,-1,-2,0
1558440930300379,-2,-1,-2,-7,-3,-2,-6,-3
1558440930307388,-1,-1,2,3,1,2,3,-1
1558440930307388,1,2,2,4,4,7,5,3
1558440930314345,-1,-1,-4,-2,-3,-5,-4,-2
1558440930314345,-4,-4,-2,-2,0,3,-5,-4
1558440930346561,-1,-1,-2,-8,-8,-12,-4,-3
1558440930346561,-1,-1,0,-3,-3,-13,-5,-2
1558440930346561,-2,-2,1,0,-3,2,-3,-1
1558440930346561,0,-1,-6,-1,0,2,2,0
1558440930352615,1,0,2,4,9,1,6,4
1558440930352615,-2,-2,-3,-3,-2,6,-4,-4
1558440930360908,0,-1,-1,0,2,2,2,-1
1558440930360908,-2,0,-5,-3,0,2,5,1
1558440930367860,-3,0,0,-1,-4,-3,-4,-3
1558440930367860,1,-1,-1,2,5,7,1,1
1558440930374861,0,1,7,7,0,0,-1,-1
1558440930374861,-2,-3,-7,-5,-7,-6,-5,-1
1558440930389827,-2,-1,-5,-2,-3,-2,-2,-1
1558440930389827,0,0,-4,-5,2,2,1,0
1558440930405792,1,-1,3,0,-6,-7,-4,-2
1558440930405792,0,1,-2,-6,3,5,6,0
1558440930412776,-1,0,1,4,-3,-5,-3,-2
1558440930412776,-3,-1,-6,-3,-6,-4,-3,-2
1558440930420468,1,-1,-4,-5,0,4,5,1
1558440930420468,1,2,5,5,-2,-7,-5,-1
1558440930435683,-4,-5,-3,-1,-2,0,-6,-3
1558440930435683,2,-1,5,1,1,-8,-4,1
1558440930436397,-2,-2,-1,-3,-3,-3,-2,-3
1558440930436397,0,0,4,5,6,10,7,4
1558440930459366,-1,-2,-7,-3,-2,-6,-2,-2
1558440930459366,-3,-2,-4,-6,-8,-3,-2,-4
1558440930459366,-2,0,2,0,-2,4,-1,-2
1558440930459366,-1,-2,-1,5,-2,-2,1,1
1558440930472558,0,-1,2,1,-1,-3,-3,-2
1558440930472558,-2,-1,-3,-2,1,1,-1,-3
1558440930480278,0,-1,-2,-1,-2,4,-1,0
1558440930480278,0,-2,0,-1,-3,-2,0,0
1558440930495513,0,0,4,-2,11,9,11,5
1558440930495513,-3,-2,1,8,-4,-11,-5,-3
1558440930496240,0,0,0,-4,7,4,1,0
1558440930496240,-3,-4,-13,-9,-3,-11,-8,-4
1558440930511198,-2,-1,-4,-4,-11,-3,-1,-1
1558440930511198,-1,0,1,1,-2,6,-3,-1
1558440930518533,-1,-1,0,-4,1,0,-1,-1
1558440930518533,-1,-1,4,2,3,-5,1,-1
1558440930532141,-2,-1,1,2,-4,1,-1,-3
1558440930532141,0,-2,1,-2,-3,-4,0,0
1558440930540884,0,-1,-3,1,-1,-2,-3,-2
1558440930540884,-1,-2,-2,-3,0,1,-3,-3
1558440930554977,-3,-1,0,0,-3,-1,-2,0
1558440930554977,0,-1,0,-3,5,0,0,0
1558440930562859,0,-1,-3,0,3,1,4,0
1558440930562859,-2,0,2,1,-1,-1,-1,-2
1558440930569872,0,1,0,0,0,0,1,-1
1558440930569872,-2,-3,-8,-12,-9,0,-3,-1
1558440930577822,-2,-3,-5,-5,-7,-8,-6,-2
1558440930577822,0,0,2,-1,1,6,2,1
1558440930591784,0,-1,-4,-6,-4,-7,-7,-3
1558440930591784,1,2,2,6,5,2,9,1
1558440930600761,-1,1,6,4,2,-10,-4,1
1558440930600761,0,-1,-1,2,-2,-2,0,-1
1558440930615718,1,-1,-2,-1,10,11,2,1
1558440930615718,-2,-1,-8,-7,-7,-6,-1,-1
1558440930615718,-3,-1,-2,-1,-5,1,-2,-1
1558440930615718,-1,-1,3,3,0,3,-1,-2
1558440930629681,0,-2,2,-2,-8,-6,-5,-3
1558440930629681,0,1,3,2,7,2,5,1
1558440930637862,0,0,-1,0,2,3,1,0
1558440930637862,-2,-1,1,1,-3,-1,0,0
1558440930652956,-2,-3,-4,-4,-2,-5,-1,-2
1558440930652956,-1,-3,-3,-4,-7,0,-5,-3
1558440930662628,2,-1,-3,-2,1,-7,-1,0
1558440930662628,-1,1,-4,-2,1,1,1,1
1558440930683538,-2,-2,2,-2,-6,-5,-7,-5
1558440930683538,0,0,5,8,5,5,3,2
1558440930684537,-1,-2,-1,1,7,8,5,1
1558440930684537,-2,-3,-3,-5,0,4,0,-2
1558440930690519,1,1,2,3,-4,-17,-1,0
1558440930690519,-3,-2,-4,-1,-7,-2,-6,-5
1558440930697503,-3,-2,-4,-8,-5,-1,1,-2
1558440930697503,-1,-1,0,-4,-1,-4,-3,-1
1558440930712463,-1,0,-1,1,5,8,2,0
1558440930712463,1,-1,0,-1,-2,-4,-5,-4
1558440930728419,1,-1,0,3,4,8,3,0
1558440930728419,0,-1,-1,0,0,-3,0,0
1558440930736423,-2,-1,-1,-4,-1,-1,0,2
1558440930736423,-3,2,0,-1,-2,6,2,0
1558440930737394,-2,0,-3,-3,-8,-13,-6,-2
1558440930737394,-1,-1,-4,-2,-2,-1,-4,-4
1558440930749362,-1,-1,2,1,5,7,1,-1
1558440930749362,-1,-2,-1,3,-3,-9,-3,-1
1558440930758697,-1,-2,-5,-6,4,5,5,2
1558440930758697,1,1,1,-1,-6,-5,-2,-1
1558440930772500,1,0,0,0,4,7,0,0
1558440930772500,-4,0,-1,-2,-2,0,-4,-2
1558440930780646,-3,-2,1,3,-11,-9,-6,-4
1558440930780646,-1,-4,-2,-4,2,2,0,-2
1558440930795656,0,-2,-1,-2,3,7,5,1
1558440930795656,-2,1,-1,0,-4,-3,-3,0
1558440930796249,0,1,3,6,3,-2,1,1
1558440930796249,-2,-5,-8,-14,-5,-1,0,-1
1558440930810403,0,-4,1,3,-2,-1,-2,-1
1558440930810403,0,-3,-2,-3,-1,-3,-3,-4
1558440930818530,-1,-3,-5,-4,-5,-7,-6,-2
1558440930818530,-1,2,2,1,2,4,4,1
1558440930832141,-2,-1,-2,4,1,0,2,0
1558440930832141,0,-1,1,-7,-4,7,2,0
1558440930848100,-2,-2,-1,1,1,-3,-4,-6
1558440930848100,1,1,-3,4,1,1,1,1
1558440930856157,-1,1,-6,-5,-8,-14,-7,-1
1558440930856157,-3,-3,-2,-2,0,1,-2,-1
1558440930856157,1,2,3,4,-2,4,0,0
1558440930856157,-2,0,5,2,0,6,-2,-2
1558440930870375,0,-2,-7,-4,-1,0,2,-1
1558440930870375,3,1,-1,-7,1,-19,4,1
1558440930878345,-3,-2,0,0,-7,2,-6,-3
1558440930878345,0,-4,-4,-4,1,-1,0,0
1558440930901955,-1,0,4,7,0,-4,0,-1
1558440930901955,-3,-3,2,10,-1,3,-2,-2
1558440930901955,1,-2,-10,-24,-5,-2,2,0
1558440930901955,-1,1,8,7,7,4,4,0
1558440930914921,-1,-2,-5,-5,-2,-4,0,-4
1558440930914921,-2,0,-2,-1,-1,1,-1,-1
1558440930915915,0,1,4,5,0,-3,-5,1
1558440930915915,-3,-2,-3,-4,-8,-7,-7,-1
1558440930930405,0,0,1,-2,4,3,3,1
1558440930930405,-2,-2,-6,-2,5,5,3,0
1558440930938230,0,-1,0,1,-2,-3,2,0
1558440930938230,-2,-1,1,0,1,-6,-4,-1
1558440930961990,-3,-1,0,1,-5,1,-3,-3
1558440930961990,-2,-3,0,-3,-6,2,-3,-4
1558440930961990,-2,0,2,5,3,3,1,-2
1558440930961990,-1,-2,-6,-6,-5,-12,-2,-1
1558440930976121,-2,-2,-4,-9,-3,-3,-3,0
1558440930976121,1,-2,-3,-3,6,3,5,1
1558440930976121,-2,-2,-1,3,-1,-6,-1,-1
1558440930976121,-1,2,3,-3,-6,1,0,-2
1558440930990039,1,0,-5,-1,2,-2,2,4
1558440930990039,-2,-3,0,0,-4,-2,-2,-2
1558440931013712,-1,-2,-2,2,7,8,0,-1
1558440931013712,0,0,-1,1,-6,-10,-6,-3
1558440931014654,2,1,0,2,1,5,5,0
1558440931014654,1,0,2,3,0,-2,0,0
1558440931020669,-2,-1,-5,-7,-4,2,1,-1
1558440931020669,-3,-1,-1,1,-1,4,1,0
1558440931035863,-4,-4,-3,-1,1,2,-3,-1
1558440931035863,0,0,2,-1,-2,-7,-4,2
1558440931035863,-1,0,2,0,-5,-4,-3,-1
1558440931035863,0,0,-5,1,7,13,6,3
1558440931049824,-1,-1,2,0,-1,0,-1,-1
1558440931049824,0,2,-1,-3,-3,-3,0,0
1558440931057791,-3,-5,2,3,2,6,-1,-2
1558440931057791,-3,-2,-5,-4,-6,-8,-8,-3
1558440931072731,1,-2,1,-2,0,-8,2,0
1558440931072731,1,0,1,0,2,0,-1,-1
1558440931080485,-1,0,-4,1,2,0,0,0
1558440931080485,-2,-1,1,0,-5,-2,1,-4
1558440931095467,-6,0,-5,-5,-5,-6,-6,-4
1558440931095467,0,0,-1,2,2,2,-1,0
1558440931096433,1,-2,0,-5,0,-2,1,1
1558440931096433,-1,-1,1,2,2,0,2,1
1558440931118374,-1,-1,-4,-6,-4,-3,-3,-1
1558440931118374,-3,-1,-1,-3,0,-3,1,1
1558440931119371,-1,-2,-5,-4,-2,-1,-2,-1
1558440931119371,-1,-1,-1,0,-6,-13,-4,-1
1558440931132337,-2,-2,0,1,-3,3,-1,-3
1558440931132337,0,0,-2,1,2,7,2,1
1558440931140669,1,0,3,4,5,0,3,1
1558440931140669,0,0,-2,-3,-2,4,2,0
1558440931155412,0,-1,2,0,-3,-3,-4,-3
1558440931155412,-1,-3,-2,-4,-3,-4,-2,-3
1558440931163253,-3,-1,-3,1,-8,-6,-2,-1
1558440931163253,0,-1,0,1,3,7,2,1
1558440931170512,-1,2,-3,3,10,-1,4,4
1558440931170512,-4,-4,-2,-1,-5,5,-3,-6
1558440931178260,0,-1,2,4,-2,5,1,0
1558440931178260,0,0,1,-11,3,-15,0,5
1558440931193458,1,-3,-9,-7,-2,-9,-4,-1
1558440931193458,-3,-1,1,1,-4,-2,-2,-3
1558440931201153,-3,-2,-6,-8,-9,-4,-3,-3
1558440931201153,1,-1,2,4,4,8,2,-1
1558440931215115,0,-3,2,0,-6,-1,-3,-3
1558440931215115,1,1,3,-1,2,0,0,1
1558440931223468,-1,1,-1,5,8,6,1,1
1558440931223468,0,-1,-5,-6,-8,-10,-2,0
1558440931238345,-4,-1,2,2,1,0,-4,0
1558440931238345,0,-1,-1,-2,-4,-10,-5,1
1558440931239056,2,-1,-1,-2,-2,0,-1,-2
1558440931239056,-1,-1,-4,2,0,-2,2,-1
1558440931252020,1,0,2,1,-2,-2,-1,-1
1558440931252020,-2,-2,-5,-3,-4,-1,-5,-2
1558440931261140,0,-1,1,0,-1,-5,1,0
1558440931261140,-1,0,-1,2,6,8,2,-1
1558440931275224,-2,-3,2,-1,0,3,-2,-3
1558440931275224,-1,-1,1,3,1,1,2,0
1558440931283227,-1,-1,0,-3,-10,-15,-8,-2
1558440931283227,-2,-2,-1,-11,-3,4,4,0
1558440931298893,0,1,0,-1,-5,-2,-2,0
1558440931298893,-1,-2,-7,-2,1,6,1,-1
1558440931299920,-2,-1,-1,-2,3,1,1,-1
1558440931299920,-3,0,3,5,-3,4,0,-1
1558440931312989,-1,2,1,1,-1,1,1,-1
1558440931312989,-1,-3,-1,-3,-3,-12,-4,-2
1558440931319838,2,0,1,3,2,5,3,0
1558440931319838,0,-2,-5,1,-4,-4,-3,-2
1558440931335154,0,1,3,-2,-1,-8,-1,1
1558440931335154,-1,-1,-2,-3,2,4,-1,0
1558440931343118,-4,-1,-2,-4,0,0,-3,0
1558440931343118,-2,0,2,3,4,4,1,0
1558440931359094,0,-2,-4,-3,-5,2,-4,-3
1558440931359094,-1,0,1,1,-2,0,2,-1
1558440931359094,1,1,1,3,8,10,11,4
1558440931359094,-2,-4,-4,-7,-6,-3,-5,-4
1558440931373060,-1,-1,1,0,-4,-5,-1,0
1558440931373060,-1,1,0,-3,3,4,0,0
1558440931380674,-3,-2,-2,1,-8,-10,-7,-1
1558440931380674,1,1,1,4,7,0,3,0
1558440931394984,-2,-2,0,-1,1,6,3,0
1558440931394984,0,-1,-2,-1,-3,-3,-4,-2
1558440931410942,-1,-2,-3,-5,-4,-12,-1,0
1558440931410942,1,1,1,0,1,4,0,0
1558440931418881,-2,-3,-1,1,-1,5,0,-1
1558440931418881,-4,-3,-2,-2,-5,0,-2,-5
1558440931419808,-2,-4,-2,-3,-6,1,-3,-2
1558440931419808,1,0,2,-1,0,-15,-3,0
1558440931432815,-1,0,-1,3,-5,-8,-3,-1
1558440931432815,0,-1,-1,0,5,6,4,0
1558440931440817,-1,-3,0,-1,1,4,-1,-1
1558440931440817,-4,-5,-7,0,-5,3,-2,-3
1558440931463740,-1,1,2,0,2,3,3,0
1558440931463740,-1,-1,-7,-9,-1,-5,2,2
1558440931464449,-1,0,-1,2,0,2,-1,-1
1558440931464449,-3,-1,1,-1,-5,-1,-4,-1
1558440931478726,-2,0,-1,-2,-4,-5,-4,-2
1558440931478726,0,-1,-1,2,1,-5,0,-1
1558440931479412,0,2,1,1,4,-4,-1,1
1558440931479412,-3,-2,-1,-5,-9,1,-4,-1
1558440931492696,-1,-3,-2,-2,8,12,4,0
1558440931492696,-1,-2,5,4,-5,-5,-1,-1
1558440931500675,0,-2,-4,-3,11,13,6,2
1558440931500675,0,-1,-1,-1,-3,-12,-6,-2
1558440931523596,0,-1,-3,0,-2,4,0,-2
1558440931523596,-2,-2,-4,-4,-7,-4,-2,0
1558440931524292,1,2,2,-1,-1,-6,0,0
1558440931524292,-2,0,1,3,0,-1,-2,1
1558440931538285,0,-2,2,-1,1,-3,-1,-1
1558440931538285,-3,-1,-7,-6,-7,-3,-6,-4
1558440931539249,-2,-5,-7,-16,-7,6,-2,-4
1558440931539249,-2,-2,-3,1,-2,-6,-3,-2
1558440931552513,1,2,3,6,2,-9,4,2
1558440931552513,0,-1,3,-1,1,-3,-2,-1
1558440931575533,-1,-1,0,3,-8,-9,-4,-5
1558440931575533,0,1,3,0,7,5,6,0
1558440931576504,-2,-4,-9,-8,-7,-9,-6,-2
1558440931576504,-1,-1,0,4,4,9,4,3
1558440931583483,0,0,2,0,1,2,-1,-1
1558440931583483,0,-2,-2,-2,-5,-10,-4,-3
1558440931597445,0,1,3,3,3,6,3,-1
1558440931597445,-1,-1,3,2,1,1,-1,-2
1558440931606038,-1,-2,-6,-16,-7,-7,-3,1
1558440931606038,-2,-3,-2,2,-7,2,-3,-3
1558440931612818,-3,-4,-6,-5,2,2,1,-1
1558440931612818,0,0,1,-1,-4,-10,-3,2
1558440931620798,-1,-1,3,7,8,6,-2,-3
1558440931620798,-1,0,1,-2,-5,-6,-2,1
1558440931634730,1,-1,2,1,-1,-2,-2,-1
1558440931634730,-2,-1,-1,0,7,14,3,0
1558440931643703,-1,-2,-3,0,-10,-17,-7,-2
1558440931643703,1,-1,1,0,6,8,3,0
1558440931656701,-1,2,4,1,1,-3,-2,-2
1558440931656701,-1,1,-1,-3,-5,-11,-2,-2
1558440931682596,-4,-1,-4,2,-3,2,-2,-4
1558440931682596,-1,-1,-1,-1,2,5,1,-2
1558440931683595,-1,1,1,-1,2,4,4,4
1558440931683595,1,0,-1,1,-3,-2,-3,-1
1558440931686586,-1,0,1,1,3,-1,3,0
1558440931686586,-2,-3,1,-2,-4,-4,-3,-3
1558440931694580,-2,-2,-5,-4,-4,-3,-2,-1
1558440931694580,1,-2,0,1,3,1,1,1
1558440931703582,1,0,4,5,-5,-12,-5,-1
1558440931703582,0,-1,-3,-5,1,9,2,-1
1558440931726791,-1,0,-1,0,0,-6,-1,-2
1558440931726791,0,-1,-2,-5,-2,1,-2,-2
1558440931727480,-1,-1,-3,-2,-3,-3,2,0
1558440931727480,-2,-1,1,3,1,-1,0,-2
1558440931732468,-3,-3,-3,-5,-6,1,-4,-2
1558440931732468,-2,0,4,1,0,5,2,-1
1558440931741440,-1,-2,-3,-3,-1,0,-3,-2
1558440931741440,0,-1,-1,1,-4,-6,-1,-2
1558440931754406,-1,0,-5,-7,-1,-3,-3,-1
1558440931754406,-2,-3,-6,-6,-2,-1,-2,-2
1558440931763771,0,-1,-1,3,1,8,4,0
1558440931763771,-1,1,-3,-4,-1,-5,0,0
1558440931777675,3,0,2,3,5,1,2,-1
1558440931777675,-1,-3,0,2,-7,0,-4,-3
1558440931793397,-2,-2,-1,-2,-1,3,2,0
1558440931793397,-3,-1,-4,2,6,0,1,0
1558440931801609,-1,-1,1,-2,-3,-4,-2,0
1558440931801609,-2,-1,-3,1,-5,-6,-5,-2
1558440931802281,0,0,2,1,4,6,3,1
1558440931802281,-1,-1,-6,-12,-7,-4,-6,0
1558440931814248,-1,-3,-1,-2,-8,-6,-7,-4
1558440931814248,1,2,1,-3,4,3,5,3
1558440931823560,-2,0,3,7,2,-9,-4,0
1558440931823560,1,-1,3,5,6,10,6,2
1558440931854236,-3,-4,-10,-11,-9,-2,-4,-2
1558440931854236,-2,-2,1,-3,-7,-9,-3,-3
1558440931856255,-1,0,-2,-2,2,3,0,0
1558440931856255,-2,0,2,5,-3,-4,-5,-2
1558440931856255,-1,-1,0,-1,-3,0,0,0
1558440931856255,-2,0,0,-1,3,1,-1,-2
1558440931867430,1,-2,-2,-2,4,5,5,2
1558440931867430,-1,-1,-1,-3,-3,0,-5,-2
1558440931875349,-3,-2,-4,-1,3,-1,1,-2
1558440931875349,0,0,-2,1,-4,-5,2,0
1558440931883409,-1,0,1,2,2,1,-2,-2
1558440931883409,0,-3,-1,-7,-3,-1,-1,0
1558440931897026,-2,1,1,3,-3,4,-2,-2
1558440931897026,-3,-3,-1,2,2,2,-2,-1
1558440931913981,0,-2,-4,-10,-1,-6,-1,0
1558440931913981,1,1,-1,-1,-2,-6,-3,-2
1558440931914976,-1,0,1,3,-2,-2,-1,-1
1558440931914976,0,-2,2,3,4,4,2,-3
1558440931928941,-2,0,-3,-1,-2,5,-2,-1
1558440931928941,-2,-1,-3,0,-4,-5,-2,-2
1558440931935234,0,0,4,0,-2,0,-1,0
1558440931935234,1,1,0,-1,1,-1,-2,-1
1558440931943901,-1,-2,-2,-2,2,0,2,-2
1558440931943901,-1,-3,-2,0,-2,3,1,-4
1558440931956893,-3,-2,-3,-1,-1,-3,-4,-3
1558440931956893,0,-1,-5,-4,-6,-10,-3,0
1558440931965840,0,-1,3,11,1,1,-1,0
1558440931965840,-2,-1,-2,-12,0,-10,-2,-1
1558440931972982,-1,0,0,0,5,10,6,-1
1558440931972982,-2,-3,0,5,-2,-2,-4,-2
1558440931980799,-2,-1,-6,-9,-4,-5,-6,-3
1558440931980799,0,0,0,3,-6,-11,0,1
1558440931994771,1,-3,0,1,-3,-4,0,0
1558440931994771,0,-1,0,1,5,6,3,0
1558440932019699,-2,-1,1,-2,-5,0,-3,-3
1558440932019699,1,1,-2,-1,0,-1,1,1
1558440932019699,1,-1,-4,2,4,-3,2,3
1558440932019699,1,-1,3,1,2,6,5,2
1558440932025681,-1,-2,-5,-9,-3,-7,-3,-2
1558440932025681,0,0,0,2,-9,1,-3,-2
1558440932031667,-2,0,-2,-7,-1,3,-4,-4
1558440932031667,0,-2,-2,1,3,-4,-1,-2
1558440932040886,0,-1,1,-2,-3,-5,0,1
1558440932040886,-2,0,0,-1,-4,0,-1,-3
1558440932054857,-2,-3,1,2,2,-9,-4,1
1558440932054857,-3,0,-3,-7,-5,-3,-5,-3
1558440932071558,-1,2,0,2,-1,0,-3,-1
1558440932071558,2,-2,-1,0,8,8,8,2
1558440932077821,-1,0,-1,0,-4,2,-3,-1
1558440932077821,-1,1,1,3,2,1,2,-1
1558440932086518,1,-3,-7,-14,-8,0,-2,-3
1558440932086518,-1,-2,0,3,3,7,-2,-1
1558440932092765,-1,0,1,2,3,-3,-1,-1
1558440932092765,-1,-2,-6,-8,-4,-7,-1,2
1558440932101510,0,-2,1,4,-3,-4,-4,-3
1558440932101510,-1,-1,-1,-5,-2,0,2,0
1558440932114445,-1,-1,-1,4,3,4,1,-2
1558440932114445,-1,-3,-2,-7,-5,-7,-5,-3
1558440932129659,-1,-1,-1,0,0,1,-1,-1
1558440932129659,-4,-1,-1,-1,-4,-4,-4,-2
1558440932137382,1,1,1,-1,-1,3,4,1
1558440932137382,-3,-2,-3,-5,-1,4,3,-2
1558440932146357,-2,-1,2,7,11,1,3,0
1558440932146357,-3,0,-6,-11,-7,-1,-4,-1
1558440932152340,-1,1,1,1,1,0,1,1
1558440932152340,-1,1,1,2,-1,-2,-3,-1
1558440932161317,-3,-4,-2,-2,-9,-4,-6,-2
1558440932161317,0,-1,0,3,6,-6,0,2
1558440932174316,2,0,0,1,8,7,8,2
1558440932174316,-2,-1,-6,-5,-6,1,-3,0
1558440932191236,-2,3,2,4,2,-1,0,0
1558440932191236,-1,-2,-4,-8,-6,-4,-8,-6
1558440932197221,-1,-2,1,-2,-5,5,2,1
1558440932197221,1,0,3,4,7,-2,3,0
1558440932206196,-3,-2,0,0,-2,-2,-2,-1
1558440932206196,-3,-2,-2,-1,-2,-9,-3,-1
1558440932212532,-2,-1,-1,3,-1,-2,-3,-1
1558440932212532,-1,1,-1,-5,1,10,2,1
1558440932221158,1,-2,-6,-5,-3,-3,-1,-1
1558440932221158,0,-2,2,6,2,6,1,-2
1558440932244336,-2,-3,0,-4,-6,-7,-5,-4
1558440932244336,0,-2,-2,-4,-2,-5,-2,-1
1558440932245096,1,1,1,-1,1,1,1,0
1558440932245096,-2,-1,-1,1,-2,1,-1,-3
1558440932257510,-1,0,-2,-1,0,-12,-3,0
1558440932257510,-2,0,0,1,-2,1,-1,-1
1558440932266309,-1,0,1,2,1,8,5,2
1558440932266309,0,-2,-2,-5,-2,-7,-1,2
1558440932289351,-3,-2,-1,-8,-2,1,-4,-2
1558440932289351,-1,0,5,8,-2,-10,0,-1
1558440932289974,-2,-2,-8,-15,-2,1,0,-1
1558440932289974,-2,0,3,7,4,7,0,1
1558440932295325,-1,0,-3,-1,-9,-6,-5,-3
1558440932295325,-2,-3,-1,-6,-4,-1,-5,-3
1558440932303937,-3,-2,2,4,-4,-4,-3,-1
1558440932303937,1,0,-1,0,6,2,4,2
1558440932317194,0,-4,-7,-9,-5,-3,-3,-2
1558440932317194,1,-2,0,0,-1,0,-2,-3
1558440932326097,-1,1,2,-1,-2,-7,-2,-2
1558440932326097,-1,1,-2,-1,-1,-1,-1,-1
1558440932357065,-1,1,2,1,1,8,3,-1
1558440932357065,1,-1,-3,-1,4,-4,1,-1
1558440932358789,-1,-2,-1,2,-5,-7,1,-3
1558440932358789,-1,0,2,3,1,-1,-2,1
1558440932358789,-2,-2,-5,-12,-5,-7,-4,-4
1558440932358789,-4,-2,-6,-3,-4,3,-3,-1
1558440932363776,-2,-3,0,0,0,0,0,0
1558440932363776,1,-1,-3,-2,3,0,5,0
1558440932376770,0,-1,3,4,-2,-6,-2,-2
1558440932376770,-1,-2,1,2,1,4,-2,-1
1558440932386068,1,-1,0,-4,5,8,2,1
1558440932386068,-2,-5,-3,1,-1,4,-2,-3
1558440932402020,1,-2,-3,0,2,-5,-2,1
1558440932402020,-1,-1,0,1,-1,1,0,0
1558440932402676,-1,1,0,-1,-5,-5,-4,-4
1558440932402676,-1,0,-2,-4,-7,-5,-3,-3
1558440932414646,-1,0,-2,1,0,3,-2,1
1558440932414646,-3,-1,-1,0,2,-3,0,-2
1558440932423620,0,0,-1,-2,8,10,1,-1
1558440932423620,1,-3,1,6,-7,-3,-5,-3
1558440932437579,0,-1,-1,-4,-4,-10,-3,-1
1558440932437579,-3,-2,-6,-9,0,2,1,0
1558440932445555,-4,-4,-3,0,0,5,-1,-1
1558440932445555,-3,-2,-1,-5,-2,-6,-3,-2
1558440932469818,-1,0,2,5,-5,-8,-2,0
1558440932469818,1,1,1,4,-1,-2,-1,-2
1558440932470494,0,2,-2,0,2,4,2,3
1558440932470494,-1,0,-3,-2,3,3,-1,0
1558440932483946,0,0,1,-2,1,3,4,-1
1558440932483946,-1,0,-1,0,-2,0,-2,-1
1558440932484454,-2,-1,1,-2,-3,-3,-3,-3
1558440932484454,-3,-3,0,-4,-5,-8,-1,-1
1558440932497417,3,2,1,4,5,6,3,1
1558440932497417,0,-2,-2,-3,0,-5,-2,0
1558440932506397,-1,-2,-3,-2,-9,-8,-6,-2
1558440932506397,-1,1,0,-3,2,2,-2,-1
1558440932521354,-5,-1,-1,6,3,9,0,0
1558440932521354,0,0,0,-6,-3,-4,0,0
1558440932522353,-1,-2,0,1,2,-2,-1,-1
1558440932522353,0,-1,-3,0,-1,-4,-3,-1
1558440932534354,-3,-4,-2,-2,-5,-3,-4,-3
1558440932534354,1,2,2,3,1,2,3,2
1558440932543294,-1,-1,-4,-2,0,-9,1,0
1558440932543294,-1,-2,-1,-4,-3,2,-4,-3
1558440932557258,-2,-3,0,0,2,9,2,0
1558440932557258,-1,1,-1,0,2,-1,3,0
1558440932583193,-1,0,4,7,-1,2,2,0
1558440932583193,-2,-2,-4,-8,-7,-14,-3,-2
1558440932584193,-1,-3,-6,-5,-6,0,-2,-3
1558440932584193,-1,-1,1,2,1,-4,-1,1
1558440932587178,1,1,0,2,1,6,4,0
1558440932587178,1,2,5,6,4,8,2,0
1558440932594163,-1,0,-3,-7,-1,-8,-1,0
1558440932594163,-3,-2,-2,-1,-5,-6,-2,-3
1558440932603144,-2,-2,-6,-12,-4,-1,-6,-1
1558440932603144,2,-1,-1,-2,-1,9,2,-1
1558440932617097,0,1,2,5,-4,-7,-1,0
1558440932617097,1,0,-1,-3,5,-6,0,0
1558440932633055,1,-3,0,-1,0,-1,2,0
1558440932633055,-3,-2,-2,2,-4,0,-4,-5
1558440932641035,-1,-5,-1,-3,1,7,3,0
1558440932641035,1,-1,3,2,-1,-8,1,1
1558440932643064,-2,-1,-1,5,-3,-9,-5,-3
1558440932643064,-1,-2,-4,-5,1,3,-3,1
1558440932654997,1,1,0,-1,1,3,2,-1
1558440932654997,-1,-4,-1,-2,-2,-4,-6,-3
1558440932663973,0,2,0,-1,-1,-1,0,-1
1558440932663973,-1,2,4,-1,2,-15,0,2
1558440932685915,-4,-1,-4,3,-1,-2,-6,-2
1558440932685915,-3,-2,-4,-5,-2,6,-2,-1
1558440932686911,-3,-4,-8,-8,-3,-6,-3,-2
1558440932686911,-3,-2,-3,2,0,-2,-1,-4
1558440932700887,2,1,0,-3,-1,-3,0,0
1558440932700887,-2,1,2,4,2,6,0,-1
1558440932702870,-2,-1,3,0,2,4,-3,0
1558440932702870,2,-1,-1,2,-2,-2,0,1
1558440932714863,1,-1,4,-1,4,-7,2,3
1558440932714863,1,-3,-6,-7,-7,-5,-4,-2
1558440932723824,1,-3,2,2,1,2,2,-1
1558440932723824,0,0,-1,1,-5,1,4,0
1558440932736776,-2,-2,-1,-1,9,8,0,-2
1558440932736776,-2,0,-4,-2,-2,-4,-5,-5
1558440932745753,-1,-3,-3,1,-9,-7,-6,-3
1558440932745753,2,2,5,2,5,-6,2,1
1558440932760713,-2,-1,-5,-6,0,0,0,-1
1558440932760713,0,1,4,1,1,11,8,1
1558440932762709,-2,-2,-7,-3,-4,-10,-4,-2
1558440932762709,-3,-3,-3,-4,0,0,-4,-2
1558440932774678,1,1,3,6,6,6,3,0
1558440932774678,1,-1,-5,-1,-2,1,1,1
1558440932799609,-1,0,2,-3,2,-1,1,1
1558440932799609,0,-2,0,-1,-7,-1,-5,-2
1558440932799609,-1,-2,-2,1,-2,-13,-6,-3
1558440932799609,-2,-1,-1,-1,1,6,2,0
1558440932805600,0,0,2,-2,-2,7,3,0
1558440932805600,-3,-2,-7,-5,-3,2,-3,-3
1558440932820553,0,1,0,-1,-4,0,-2,-1
1558440932820553,0,-1,0,-2,-6,-4,-5,-1
1558440932822552,0,3,6,9,4,-6,1,2
1558440932822552,-1,-3,-9,-13,-5,-4,-4,-3
1558440932834516,0,-1,0,-4,2,15,0,3
1558440932834516,-2,-4,-3,-2,-5,-7,-4,-4
1558440932857464,-1,1,3,6,5,2,4,2
1558440932857464,-2,0,4,-1,-8,-8,-5,-2
1558440932858459,-1,-2,-2,-4,0,-1,-1,-2
1558440932858459,-2,-2,-2,1,3,3,0,1
1558440932866436,-3,-1,-1,0,-2,-5,-4,0
1558440932866436,0,2,1,2,2,1,5,1
1558440932881395,-1,1,-1,-2,-7,-8,-3,-4
1558440932881395,-1,-2,-1,0,-3,6,-4,-3
1558440932882391,1,1,-3,-5,1,-4,-2,1
1558440932882391,0,-1,-1,1,1,4,2,0
1558440932911311,-1,-1,4,7,-5,-15,-4,-1
1558440932911311,-2,-1,-3,-5,0,-2,-4,-2
1558440932912310,-1,-2,-6,-6,-8,3,0,-3
1558440932912310,-2,0,0,0,1,-1,-3,0
1558440932917301,0,0,0,1,-2,-1,0,-2
1558440932917301,1,-2,-4,-8,-4,-3,-1,-2
1558440932926271,-2,-4,-1,-7,-4,-3,-7,-2
1558440932926271,-2,-3,-6,-2,0,5,1,-1
1558440932941236,-3,-2,-2,-2,1,0,2,-1
1558440932941236,-2,0,3,3,-3,-12,-5,0
1558440932942229,-1,-2,-2,2,-2,4,0,-3
1558440932942229,-2,-2,-4,-1,-2,-3,-2,-2
1558440932954197,0,0,-1,-3,-1,-8,-3,-2
1558440932954197,0,0,-1,1,6,5,7,1
1558440932963176,-1,0,-1,-1,-1,1,-1,-3
1558440932963176,-2,0,5,2,6,9,3,2
1558440932977134,0,-1,1,-1,-11,-5,-4,0
1558440932977134,-3,-2,-4,-4,1,0,-4,0
1558440932986111,1,-2,-2,-2,-1,-1,4,0
1558440932986111,3,-1,-4,4,9,12,2,-2
1558440933000074,1,-1,-2,-4,0,2,0,0
1558440933000074,-2,-4,1,-1,-3,0,-2,-2
1558440933007055,-2,-2,-4,-4,-7,-9,-6,-1
1558440933007055,0,-2,0,-1,0,-6,-5,-4
1558440933023015,-1,1,0,3,1,2,2,1
1558440933023015,0,0,1,2,-2,-3,-3,-2
1558440933025011,-1,-2,-2,-4,1,4,0,-1
1558440933025011,-3,0,2,-2,-3,-10,-3,-1
1558440933036980,0,0,2,1,8,5,1,-1
1558440933036980,-2,-2,-6,-3,-12,-9,-6,-3
1558440933045952,-1,-3,-4,-5,3,1,2,1
1558440933045952,2,2,0,0,-1,-3,1,3
1558440933059912,-2,-3,0,-1,-4,-1,-3,0
1558440933059912,-1,0,-2,4,3,7,6,0
1558440933074877,-3,-1,1,-1,-6,-4,-5,-3
1558440933074877,-3,-3,-2,-7,-6,-5,-2,-2
1558440933075874,-1,-1,-2,-2,6,5,5,1
1558440933075874,0,0,6,7,-1,1,2,1
1558440933083850,1,0,-1,2,4,2,-2,0
1558440933083850,-1,-1,2,-2,1,3,1,1
1558440933096818,-2,-2,-6,-3,-11,-14,-10,-2
1558440933096818,0,-2,-2,-2,2,7,3,0
1558440933105792,-1,0,1,0,-2,3,2,-2
1558440933105792,0,0,0,3,4,5,0,-1
1558440933120750,-2,-1,-2,-5,-5,-3,0,-1
1558440933120750,0,-2,1,-1,5,6,5,1
1558440933126734,0,0,-3,-4,-4,-16,-4,-2
1558440933126734,-3,-1,-2,4,0,1,-2,-1
1558440933134720,-2,-2,0,-1,-2,-5,-5,0
1558440933134720,-3,-1,-7,-13,-10,-6,-6,-1
1558440933150670,0,-3,2,5,1,6,0,0
1558440933150670,0,-1,2,4,2,3,5,0
1558440933156655,-1,0,0,-8,-4,-1,-4,-4
1558440933156655,-1,0,-2,1,0,-3,0,0
1558440933165633,-3,0,-4,-2,3,3,5,0
1558440933165633,2,1,1,2,5,-10,1,4
1558440933180591,0,-2,-1,1,1,4,-3,0
1558440933180591,1,1,7,5,0,5,-2,-2
1558440933186575,-4,-4,-3,-4,-6,-3,-4,-4
1558440933186575,0,-3,-4,-1,-5,-5,-1,-1
1558440933203529,-2,-2,4,3,4,7,4,0
1558440933203529,-2,-3,-7,-5,-7,-8,-4,-3
1558440933204526,4,2,1,0,6,-5,4,3
1558440933204526,-3,-2,-1,-2,-2,0,-2,-4
1558440933217492,-3,-3,-9,-1,-4,3,-2,-2
1558440933217492,-2,-3,-2,-3,-4,-6,-6,-4
1558440933226476,0,0,9,12,-1,-2,-1,-1
1558440933226476,-2,-3,-8,-11,-2,1,0,-2
1558440933240434,-2,-1,-3,-6,3,2,1,-2
1558440933240434,-3,1,2,1,-1,2,-4,0
1558440933247411,-2,-2,-3,0,1,-6,-2,0
1558440933247411,0,-1,3,-1,-6,-3,-4,0
1558440933263368,0,0,2,4,3,5,4,2
1558440933263368,1,-1,-1,-2,-2,-9,-1,-1
1558440933265364,-1,-1,-5,-7,-7,-6,-6,-2
1558440933265364,-2,-2,-1,-1,1,4,3,0
1558440933277337,0,-2,-3,-2,2,1,0,1
1558440933277337,-1,-3,3,11,3,1,0,1
1558440933293289,-1,-2,-5,-8,0,0,3,0
1558440933293289,0,-1,2,5,-4,-11,-6,-3
1558440933300270,-2,-2,-5,-5,-7,-14,-5,-1
1558440933300270,-2,0,-1,-1,6,9,2,1
1558440933314233,-2,-3,-2,0,-1,11,-3,-3
1558440933314233,-3,0,-2,-2,-2,-3,1,-1
1558440933323210,-1,-1,0,2,-2,-7,-3,-1
1558440933323210,0,0,1,0,-2,-5,-2,-2
1558440933325204,-4,-3,-8,-8,-6,2,-2,-2
1558440933325204,2,-1,-1,0,5,7,3,1
1558440933337172,-1,-1,0,0,-1,5,1,0
1558440933337172,-2,-3,-3,-6,-3,-3,-3,-3
1558440933346147,-1,-1,-2,-5,-1,2,1,0
1558440933346147,-2,-3,0,-4,-7,-8,-5,-3
1558440933360110,1,-1,-2,-1,2,5,1,0
1558440933360110,-1,-1,1,2,-2,-8,-2,-2
1558440933367092,1,1,0,2,4,2,0,0
1558440933367092,-1,0,1,0,-2,-3,-4,-2
1558440933383050,-3,-2,-2,-8,-6,-1,-1,-4
1558440933383050,0,-1,0,3,0,9,2,0
1558440933385046,0,-1,3,3,7,5,3,4
1558440933385046,-1,-2,-4,1,2,-2,4,3
1558440933412971,-3,-1,-1,3,-1,-7,-7,-2
1558440933412971,-2,-1,-6,-11,-10,-7,-6,-2
1558440933414966,3,1,3,5,4,0,2,3
1558440933414966,0,0,3,3,2,-1,-1,-1
1558440933419951,-2,-1,-1,-4,-9,-7,-3,0
1558440933419951,-1,0,1,2,8,4,3,0
1558440933426932,-1,1,-1,4,-2,-1,1,-3
1558440933426932,-1,-3,-5,-8,-7,0,-4,-2
1558440933443886,-1,-3,-1,-2,-3,-6,-6,-3
1558440933443886,2,2,4,0,3,3,2,1
1558440933444884,0,-1,5,8,3,-2,-1,0
1558440933444884,-3,0,-7,-13,-2,-6,-2,0
1558440933456852,1,1,3,3,0,5,4,0
1558440933456852,-1,-2,-4,-3,-3,-7,-4,-1
1558440933465921,-1,-3,2,0,-2,3,-3,-3
1558440933465921,0,-1,-4,0,-2,5,0,-3
1558440933480078,-1,0,-5,0,3,-12,-2,0
1558440933480078,-1,0,1,2,-8,-12,-5,-2
1558440933486773,-3,-1,-3,-4,4,7,3,0
1558440933486773,1,1,5,1,11,5,6,5
1558440933503726,-2,-2,-2,-1,1,4,-1,0
1558440933503726,0,-4,1,1,-2,-1,0,-2
1558440933504725,-2,-1,-2,-5,-10,-13,-9,-1
1558440933504725,-4,-3,-4,-4,-6,7,-5,-4
1558440933516701,1,0,1,-1,1,-3,0,0
1558440933516701,1,-1,0,1,4,1,6,2
1558440933525667,-2,-2,-4,1,1,-3,-4,-3
1558440933525667,1,0,2,-1,-3,3,2,-2
1558440933540830,-1,-2,-4,-10,-4,-6,-2,-1
1558440933540830,-1,-3,-7,-7,-5,-1,-4,-3
1558440933546861,-2,0,0,-1,-1,2,1,-1
1558440933546861,-3,-3,2,5,-1,-3,-2,-1
1558440933578776,-2,-1,1,1,0,9,5,0
1558440933578776,-2,1,-1,-2,4,2,-2,-1
1558440933580772,0,-1,-1,-1,-6,-9,-5,-2
1558440933580772,-1,-2,2,4,4,6,0,-1
1558440933581782,-1,0,-6,-8,-5,-1,0,0
1558440933581782,0,-1,2,4,2,-5,1,1
1558440933585757,-2,1,0,-4,3,2,3,0
1558440933585757,-2,1,-4,-1,-6,-4,-5,-5
1558440933599721,0,-1,1,7,-1,-5,-3,-2
1558440933599721,-1,-2,-4,-11,-4,-1,-2,-1
1558440933615679,0,-1,-2,-2,-2,3,5,-3
1558440933615679,0,-2,-1,-2,-1,-8,-1,1
1558440933630636,-3,-1,-4,-1,4,5,2,-1
1558440933630636,-1,1,0,1,-1,-1,-4,-1
1558440933632631,-2,-2,-4,-3,-9,-8,-6,-4
1558440933632631,-2,-2,1,0,1,5,4,4
1558440933636665,2,2,0,7,9,12,6,3
1558440933636665,-2,-1,-2,-1,-4,-1,-1,-2
1558440933645628,-2,-2,2,2,-3,-2,-8,-2
1558440933645628,3,1,-3,-10,3,-5,1,0
1558440933668534,-1,-2,-2,-4,-7,-9,-6,-2
1558440933668534,-3,-2,-1,0,3,2,2,-1
1558440933669531,-2,-2,2,0,1,1,2,1
1558440933669531,-3,-3,-2,7,6,4,-3,-3
1558440933683510,-2,-4,-6,-9,-8,-5,-5,-2
1558440933683510,0,1,1,4,5,5,3,2
1558440933684494,-1,0,1,2,2,-3,1,-1
1558440933684494,-1,-1,-6,-10,-11,2,0,-1
1558440933697459,-3,0,3,3,-2,-6,-2,-4
1558440933697459,-3,-3,-3,-3,-6,-3,-4,-4
1558440933705437,1,1,-1,1,4,0,2,0
1558440933705437,1,0,2,2,-2,-7,-4,-2
1558440933719399,-2,0,2,1,3,2,-1,-1
1558440933719399,1,0,0,-6,-2,-1,2,-1
1558440933736352,-1,-2,-2,-2,-3,-2,-4,0
1558440933736352,-2,-2,-5,-4,-2,-1,-5,-2
1558440933743352,0,-2,-1,-1,-6,-4,-5,-2
1558440933743352,-2,-3,2,3,-5,-3,2,0
1558440933744333,0,-1,0,1,4,5,5,2
1558440933744333,-1,0,0,-4,0,-2,-2,-2
1558440933757519,-1,2,2,2,2,5,0,0
1558440933757519,-2,-4,-4,0,-2,-3,-4,-2
1558440933766274,-1,-4,-2,-4,-2,-6,-3,-3
1558440933766274,0,1,2,1,-9,-8,-4,-1
1558440933787217,-3,-2,0,4,9,7,1,-1
1558440933787217,-2,-1,-5,-6,-4,1,-2,-1
1558440933796194,-1,1,-2,-2,4,2,1,0
1558440933796194,1,-3,1,0,0,-3,2,0
1558440933803176,-2,-2,-1,-3,-3,-1,0,-1
1558440933803176,-2,-2,-1,0,1,-6,-2,0
1558440933805169,-2,1,0,-1,1,-1,-1,0
1558440933805169,0,0,-2,-4,-2,2,2,-1
1558440933817139,-2,-1,-2,-3,-7,-5,-4,-2
1558440933817139,-1,-1,-4,-2,3,4,3,-1
1558440933826112,-1,-1,0,0,-4,-3,-4,-4
1558440933826112,-2,-2,-3,-1,5,4,3,0
1558440933839087,1,0,3,3,4,0,4,1
1558440933839087,-2,0,-2,-7,-5,-4,-7,-3
1558440933856033,-4,-3,0,3,-7,-4,-6,-3
1558440933856033,1,0,1,0,3,1,2,2
1558440933863016,-1,-3,-4,-4,-2,-1,1,-1
1558440933863016,0,-1,2,7,1,-1,5,1
1558440933865009,-1,-1,-5,-10,-2,0,-3,-2
1558440933865009,-2,-1,0,0,-3,-1,-5,-3
1558440933876977,-1,-3,-2,-3,-4,-3,-3,-3
1558440933876977,0,1,2,1,-1,-6,-5,-3
1558440933885957,2,1,1,0,5,2,6,2
1558440933885957,-2,0,2,2,2,0,-1,2
1558440933899915,-3,0,-4,-5,-8,-3,-4,-1
1558440933899915,-3,-1,-2,-3,1,-2,-1,-3
