timestamp,emg1,emg2,emg3,emg4,emg5,emg6,emg7,emg8
1558440910429578,-3,-4,-2,-13,-1,-2,0,-3
1558440910429578,2,3,5,28,0,-4,-4,-1
1558440910430576,-3,-3,-2,-9,-1,1,-3,-1
1558440910430576,1,-2,0,-17,0,0,2,-2
1558440910433568,0,0,-2,18,1,-2,0,-1
1558440910433568,0,11,0,-7,-4,-1,0,0
1558440910441547,-3,-6,4,-5,0,0,2,1
1558440910441547,2,-2,-3,7,0,-5,-2,-2
1558440910443545,-1,4,-1,3,-4,-4,-5,-3
1558440910443545,-7,-16,-4,-6,0,-1,0,-3
1558440910449525,6,5,-10,-9,-3,-2,0,-3
1558440910449525,-6,0,1,10,-2,5,1,0
1558440910503381,-5,-6,4,-2,-1,-2,-2,-1
1558440910503381,3,2,1,-8,0,-2,0,-1
1558440910505376,-3,-4,-5,13,-1,-5,-3,-1
1558440910505376,2,-5,0,4,-1,-1,-2,-2
1558440910507370,1,-1,-20,-34,-8,-1,-1,-1
1558440910507370,-4,-2,8,11,3,1,3,1
1558440910509367,6,-3,-14,5,-3,-3,0,-1
1558440910509367,-15,-7,-10,-15,-7,-6,-4,-5
1558440910510364,-1,-5,-3,-4,3,0,1,0
1558440910510364,1,4,-1,8,0,2,-3,0
1558440910517344,1,3,2,-9,2,0,1,-1
1558440910517344,2,4,-5,1,-4,-3,-3,0
1558440910540294,-3,-4,4,5,-5,-4,-4,-5
1558440910540294,1,2,5,1,2,-3,-2,-1
1558440910541279,1,1,-3,-8,1,1,-1,-1
1558440910541279,-1,1,4,5,-3,2,3,2
1558440910555242,1,-1,2,5,2,0,-2,0
1558440910555242,-4,2,10,-3,-1,1,-1,0
1558440910556239,-4,2,29,13,0,-1,0,-2
1558440910556239,1,-2,-15,-11,0,-2,-3,-3
1558440910563220,-5,-5,-19,1,-5,-2,3,-2
1558440910563220,3,-1,-15,-10,1,1,1,-1
1558440910616079,1,4,9,16,-1,0,-2,-1
1558440910616079,-3,-3,3,-1,-1,3,-3,1
1558440910617077,1,0,15,-4,4,-1,0,0
1558440910617077,2,2,5,9,0,-11,2,1
1558440910618074,1,0,7,14,1,0,2,1
1558440910618074,0,-1,-9,-23,-3,0,0,-1
1558440910622063,-1,-3,-13,-9,-1,1,-1,-4
1558440910622063,-1,-1,4,19,-7,0,-4,-1
1558440910623060,1,-3,-11,-17,1,-2,-3,1
1558440910623060,-3,-1,10,0,1,-2,-1,-3
1558440910624057,2,5,14,22,1,4,0,2
1558440910624057,-5,-6,-14,-15,-10,-2,-3,-4
1558440910651984,0,2,21,15,16,5,3,-1
1558440910651984,0,-1,-16,-5,-7,-4,-1,0
1558440910653978,-9,-9,0,-13,-14,-11,-7,-2
1558440910653978,6,4,5,-3,9,9,9,2
1558440910658964,-10,-8,-10,-6,-4,-6,-3,-8
1558440910658964,-4,-6,-16,-2,7,7,0,-1
1558440910664949,3,5,12,12,3,-1,1,2
1558440910664949,-6,-7,-13,-25,-11,-7,-3,-5
1558440910673924,0,0,8,0,-11,1,-2,2
1558440910673924,0,-1,2,13,5,-5,-4,-2
1558440910679909,-4,-6,-19,-20,-4,1,-4,-2
1558440910679909,4,9,14,17,9,7,2,1
1558440910687887,2,1,-3,-17,-7,-6,-2,2
1558440910687887,-5,-5,-14,21,7,-3,-4,-5
1558440910712820,-1,-5,-30,-42,-20,-6,-3,-1
1558440910712820,1,3,13,28,15,5,-3,1
1558440910713818,-1,-1,14,-6,0,-4,-3,-1
1558440910713818,3,6,6,-12,-7,1,4,4
1558440910724788,0,2,17,23,4,-2,-1,-1
1558440910724788,-6,-9,-13,-18,-9,-4,-3,-4
1558440910733765,1,5,1,20,11,1,1,-2
1558440910733765,-3,-6,15,5,-5,-1,-3,-3
1558440910740746,-2,-2,-19,-11,3,2,1,-1
1558440910740746,-2,-5,1,-4,0,-4,-3,0
1558440910763683,1,2,6,13,5,4,0,0
1558440910763683,1,9,1,-4,-3,-1,0,0
1558440910765679,-3,-5,-2,4,-2,-2,-3,-3
1558440910765679,0,0,3,7,5,-1,0,-3
1558440910770666,-2,-4,-6,3,-3,1,1,-2
1558440910770666,-3,-5,-35,-33,-19,-9,-4,-4
1558440910785626,-4,-7,-12,-27,-1,-1,0,-1
1558440910785626,1,2,-1,7,2,0,1,1
1558440910793605,-2,-2,6,2,-2,-2,-1,-2
1558440910793605,5,5,15,11,0,3,2,1
1558440910800585,-1,1,0,13,4,3,0,-2
1558440910800585,-3,-5,-4,-9,-11,-8,-6,-2
1558440910815582,-1,2,2,-1,10,6,3,0
1558440910815582,-2,-4,-11,-11,-8,-3,-3,-2
1558440910823524,4,5,25,39,8,3,3,1
1558440910823524,-1,-4,-10,-15,2,0,2,-1
1558440910830507,-5,-3,-17,-22,-14,-10,-5,-3
1558440910830507,-1,1,23,19,7,-1,-1,0
1558440910845467,-2,4,-7,-19,-5,1,2,-1
1558440910845467,0,1,12,6,3,4,0,0
1558440910853445,3,-1,2,12,-1,1,0,0
1558440910853445,-4,-4,-14,-13,-1,-5,-1,-1
1558440910867407,0,-3,3,1,3,-2,0,-2
1558440910867407,-2,-3,-15,-17,-6,-2,-3,-2
1558440910876383,-4,-5,-17,-7,4,3,0,-2
1558440910876383,6,5,24,19,-4,-10,-1,-1
1558440910882366,-1,0,-2,1,7,0,1,1
1558440910882366,0,4,0,1,5,0,-1,0
1558440910890376,-5,-7,-16,-6,-21,-6,-6,-3
1558440910890376,-1,-4,1,-20,1,2,1,-2
1558440910905305,2,3,8,16,4,-1,0,1
1558440910905305,-1,-3,3,2,-5,-1,-1,-2
1558440910914281,2,4,9,0,11,4,2,2
1558440910914281,-3,2,1,6,1,2,-1,-1
1558440910928244,-6,-10,0,-4,-9,-5,-6,-5
1558440910928244,3,2,1,4,-2,1,2,2
1558440910936223,-5,-1,-6,-10,-3,-6,0,-1
1558440910936223,0,1,7,8,-1,-2,-3,1
1558440910943204,0,1,-5,-3,3,-2,-2,-1
1558440910943204,0,0,13,9,1,-2,0,0
1558440910959161,5,2,-5,1,3,5,3,0
1558440910959161,2,0,-2,-2,2,4,4,3
1558440910965148,-1,-2,-8,2,0,1,-1,-1
1558440910965148,-1,-1,0,-5,-4,-1,-3,-2
1558440910974122,-1,1,-2,-6,-4,-5,0,0
1558440910974122,-3,-2,-5,-4,3,4,0,-2
1558440910980106,-1,-2,-2,3,-4,-2,-1,-3
1558440910980106,-4,-3,-11,-6,-5,3,0,0
1558440910997061,-1,0,4,2,-3,-5,-7,-3
1558440910997061,-2,-6,-5,3,-5,-3,-2,-2
1558440911003044,5,5,-5,-16,3,-1,2,2
1558440911003044,-7,-8,-22,-11,-17,-12,-6,-5
1558440911034962,-2,-2,1,-7,-2,-6,-5,-2
1558440911034962,4,0,6,14,16,18,8,0
1558440911035955,-1,-2,4,-2,-7,1,0,1
1558440911035955,0,3,7,4,4,-3,-3,-1
1558440911036953,0,-2,-17,-16,-7,2,1,-2
1558440911036953,-2,0,15,13,1,-1,-1,0
1558440911039948,-3,-2,-14,-8,-9,-4,-2,2
1558440911039948,1,-3,-1,-5,1,1,-2,-1
1558440911056901,-2,-3,4,-1,-7,-10,-6,-6
1558440911056901,-2,-1,-3,-5,1,5,0,-1
1558440911062884,1,2,5,1,-3,-1,-1,-2
1558440911062884,-1,0,5,10,5,3,0,-2
1558440911078842,-3,-3,-7,-8,-9,-6,-1,-1
1558440911078842,-5,-4,-17,-27,-3,-8,-5,-1
1558440911084827,1,0,0,6,5,8,8,1
1558440911084827,-1,1,0,11,1,4,2,-2
1558440911093802,0,0,6,-6,11,8,2,1
1558440911093802,0,-2,-8,-5,-4,-14,-6,-3
1558440911099785,-2,-1,3,5,-12,-8,-9,-4
1558440911099785,0,2,-1,-7,8,18,6,3
1558440911116740,0,1,1,10,3,5,3,0
1558440911116740,1,2,2,-5,-5,-10,3,2
1558440911122728,-1,-5,-11,-13,1,-7,-7,-3
1558440911122728,2,2,7,-2,3,-2,0,1
1558440911147658,0,0,-13,-2,-7,7,1,0
1558440911147658,0,1,4,4,0,3,-2,-4
1558440911147658,-2,-2,6,9,-6,-9,-6,-4
1558440911147658,0,0,6,4,1,-5,-3,-1
1558440911154638,1,-2,3,-3,-2,5,-2,0
1558440911154638,-1,-6,0,10,3,7,2,-1
1558440911160623,0,-1,-2,1,-2,-6,-1,4
1558440911160623,-2,-3,-9,-9,-6,1,1,-5
1558440911176580,1,5,12,14,12,-14,-1,4
1558440911176580,-2,-1,-5,-3,2,9,2,-2
1558440911182566,1,2,9,1,1,5,0,0
1558440911182566,-2,-2,-4,-6,-2,2,-3,-1
1558440911199519,-4,-4,-4,-5,-11,-10,-6,-3
1558440911199519,1,1,-8,-8,-4,-10,-3,0
1558440911205502,-2,-1,-1,3,3,9,1,-1
1558440911205502,0,0,5,6,-2,-2,0,-2
1558440911214479,0,-2,-10,-14,-3,-5,-3,-2
1558440911214479,-1,-1,1,4,-5,-3,-1,2
1558440911220463,-1,1,2,0,2,5,1,-4
1558440911220463,0,2,-4,-4,-4,-5,-5,-4
1558440911236419,-4,1,1,8,-1,-1,-1,0
1558440911236419,-4,-5,1,5,10,3,3,1
1558440911242406,1,0,1,-4,2,-3,-1,0
1558440911242406,-1,-3,-2,-8,-6,-6,-4,0
1558440911267337,2,0,4,15,2,4,-5,0
1558440911267337,0,-2,-9,-28,-8,9,8,-5
1558440911268335,-1,-1,5,10,6,3,-1,-3
1558440911268335,-3,-2,0,8,5,-6,1,0
1558440911274319,4,2,-13,-22,-2,0,5,0
1558440911274319,-2,-2,10,13,-8,-6,-8,-2
1558440911280304,-1,-2,-2,-3,-6,-6,-5,-1
1558440911280304,-1,2,1,1,0,6,0,0
1558440911296260,-3,-5,0,0,0,-8,-1,-2
1558440911296260,-2,-2,-4,-3,1,3,1,2
1558440911303241,-1,-1,-4,-1,2,2,0,-2
1558440911303241,-2,-1,2,-6,-2,0,-5,-3
1558440911319198,-3,-3,2,6,-4,-1,-4,-4
1558440911319198,3,5,-5,-10,1,-10,2,3
1558440911325184,-2,-1,-4,-5,0,-4,-1,0
1558440911325184,0,-4,-2,-2,-6,1,3,-1
1558440911334159,-1,-4,3,5,11,7,4,-2
1558440911334159,-4,-5,-6,-1,-16,-8,-14,-7
1558440911348122,-2,0,-3,-4,-4,-6,-1,-2
1558440911348122,1,2,-4,-4,2,-7,4,4
1558440911365076,0,-1,-4,-5,-10,-2,-4,-3
1558440911365076,2,1,5,11,5,6,1,0
1558440911366072,-8,-7,0,0,0,5,2,-2
1558440911366072,0,-1,-5,-4,-5,-9,-7,-1
1558440911379039,-1,-2,-1,-4,-5,0,-6,-3
1558440911379039,2,1,3,4,9,6,3,1
1558440911385022,1,-1,-3,-2,-6,-1,-9,-2
1558440911385022,-2,-1,3,4,4,11,7,1
1558440911393998,-1,3,3,-2,5,2,8,4
1558440911393998,-1,-1,-3,-4,-11,-4,-9,-6
1558440911407962,-2,-2,-6,0,-5,-1,-1,-3
1558440911407962,2,1,2,-3,8,0,4,3
1558440911416941,2,0,6,1,1,-2,-2,-2
1558440911416941,-3,-2,0,7,-1,2,1,-2
1558440911422921,1,1,2,-2,-4,0,1,-1
1558440911422921,-1,-4,0,0,-1,-6,-6,-4
1558440911438878,-1,0,3,4,1,7,2,0
1558440911438878,-2,-1,-5,-5,-8,-10,-6,-3
1558440911444863,2,1,1,0,4,6,2,1
1558440911444863,-2,1,-5,-3,-1,2,0,-1
1558440911453844,-3,-2,-6,-3,1,10,0,2
1558440911453844,-1,3,4,3,10,-8,0,2
1558440911476777,-2,-2,4,-1,-2,1,-1,-1
1558440911476777,-1,-3,-3,0,-10,-9,-6,-4
1558440911477775,2,-1,0,-6,4,2,6,1
1558440911477775,-2,-3,-6,0,-5,-1,-5,-2
1558440911482762,2,1,1,0,8,3,4,3
1558440911482762,0,0,0,-2,-1,-2,0,0
1558440911498717,-2,-2,-1,-4,-8,-7,-7,-5
1558440911498717,1,0,0,1,1,0,-4,-1
1558440911505705,-1,-1,2,-2,-4,-8,-1,0
1558440911505705,-1,-5,-6,0,-4,1,-4,-2
1558440911514675,-1,2,-1,-3,2,1,4,1
1558440911514675,-1,2,6,6,3,1,4,3
1558440911527645,-1,0,-9,-7,1,1,-2,0
1558440911527645,-2,1,2,-3,-8,-12,-6,1
1558440911536618,-3,-6,-11,-8,-5,-5,-1,-3
1558440911536618,-1,-4,1,-3,-2,3,-2,-3
1558440911542604,-2,-3,-4,4,5,-3,-3,-4
1558440911542604,2,1,1,-3,2,8,2,3
1558440911559558,-1,0,4,14,4,1,-5,1
1558440911559558,0,0,-3,-12,-4,-2,4,1
1558440911565541,0,0,1,-5,-4,-11,-1,0
1558440911565541,-2,1,3,5,8,9,4,-1
1558440911581496,-3,-3,-1,-2,-9,-9,-6,-2
1558440911581496,0,-1,-1,4,5,9,-2,-1
1558440911587482,2,1,3,-2,-6,2,3,-1
1558440911587482,-3,-5,-2,2,1,-3,-5,-4
1558440911596467,2,1,0,0,-9,-8,-1,-1
1558440911596467,-2,1,-3,-2,2,-2,2,-4
1558440911610423,0,-2,-1,-1,-3,-5,-1,0
1558440911610423,0,0,1,-1,3,2,-1,4
1558440911619398,-2,-2,-2,-3,0,-2,-5,-5
1558440911619398,1,-1,-3,0,-1,3,-2,0
1558440911625388,0,0,0,1,4,-3,3,-1
1558440911625388,-3,-4,-9,-12,-2,0,0,-3
1558440911641348,-2,-1,0,1,2,4,-3,1
1558440911641348,-3,-2,-1,-7,-5,-3,-3,0
1558440911648319,-3,-5,-1,3,-5,-5,-4,-1
1558440911648319,-1,-2,-1,-1,-5,-4,-3,-3
1558440911656338,0,-1,-1,-2,-3,-2,0,-1
1558440911656338,0,1,6,5,6,-5,3,0
1558440911670267,-2,-2,-7,-10,-2,2,-5,-2
1558440911670267,-3,-4,-5,-3,-8,-3,-2,-3
1558440911679237,2,2,-2,-3,4,-2,-3,-1
1558440911679237,-3,-1,-2,-4,-7,-4,-6,-1
1558440911685222,-1,3,5,4,-1,7,6,0
1558440911685222,1,2,2,2,7,-3,3,-2
1558440911694201,0,-3,-2,-1,2,1,0,-1
1558440911694201,1,-1,0,0,3,7,1,-1
1558440911708163,-2,0,2,5,-4,-6,-3,-2
1558440911708163,-1,0,-1,2,-3,3,4,0
1558440911717136,-2,-1,-1,-4,-4,-4,-3,1
1558440911717136,0,1,-1,10,3,-3,0,-1
1558440911730100,-3,-4,-9,-14,-8,-5,-9,-4
1558440911730100,0,0,4,1,-1,-4,-1,-1
1558440911739075,1,1,3,4,4,4,2,-1
1558440911739075,-3,-4,-4,-3,0,9,3,0
1558440911745060,0,1,3,8,6,2,0,0
1558440911745060,0,0,-6,-6,-2,-7,0,0
1558440911754034,-1,-1,0,4,-3,1,-2,-3
1558440911754034,0,0,2,-3,-4,-9,-4,-2
1558440911767998,0,-2,-7,-11,-1,-3,2,-1
1558440911767998,-2,-1,-3,-2,-6,-7,-5,-1
1558440911776973,-2,1,1,-2,-4,3,1,0
1558440911776973,-4,-3,4,5,6,-3,0,0
1558440911789940,0,-2,-11,-8,-2,5,4,1
1558440911789940,-3,-3,2,4,-5,-6,-5,-3
1558440911814877,-1,-2,-6,-7,-5,-1,1,-1
1558440911814877,-2,-2,-5,-2,-2,-3,-6,-4
1558440911815870,2,4,10,9,2,-1,0,3
1558440911815870,-3,-1,-2,-3,3,4,-5,-2
1558440911816869,-4,0,-5,-1,-4,2,0,-1
1558440911816869,2,2,2,-1,-2,-13,4,5
1558440911827842,-2,-5,-4,-1,-1,4,-2,-3
1558440911827842,1,0,-2,-5,-4,2,-4,-1
1558440911836818,-2,-1,0,3,-3,-10,-5,0
1558440911836818,-1,-2,-1,-5,-2,-2,-2,-1
1558440911875714,1,1,4,2,6,5,6,1
1558440911875714,1,-2,-4,-3,1,-2,-2,-1
1558440911876710,1,-3,-5,-6,-4,2,-1,-3
1558440911876710,-1,-3,1,-4,-6,-5,-1,-1
1558440911877709,-3,1,4,5,-2,-3,0,0
1558440911877709,-3,-2,-3,3,1,3,0,-2
1558440911881698,1,0,-2,-9,-4,-6,0,3
1558440911881698,-1,0,-3,-1,-1,-4,-2,-6
1558440911887682,-1,-3,-2,-2,-1,-4,-5,-3
1558440911887682,-2,-1,-1,1,1,11,3,1
1558440911896656,-1,1,0,4,2,-13,2,2
1558440911896656,2,2,2,-1,4,11,7,1
1558440911910750,-1,-1,1,5,-3,-3,-2,-1
1558440911910750,0,-1,-2,-7,-7,-9,-8,-3
1558440911936550,-2,-3,-4,-4,7,11,1,0
1558440911936550,0,0,-3,-2,-4,-1,0,0
1558440911936550,-2,-1,1,4,6,2,-2,-1
1558440911936550,-3,-1,-4,-12,-10,-8,-2,1
1558440911940540,-1,0,4,8,3,3,-1,-5
1558440911940540,-4,-1,-4,-4,-3,0,-2,0
1558440911947525,1,-1,4,-1,-1,-2,-4,-4
1558440911947525,-1,-1,-10,-7,5,0,2,3
1558440911956498,-3,-1,-7,-4,-4,-1,0,-2
1558440911956498,-2,0,0,3,4,7,3,0
1558440911970517,0,1,-1,-4,-3,-4,-2,-2
1558440911970517,0,2,10,10,0,-1,1,1
1558440911986422,-2,-3,-3,-5,-2,-8,-5,-4
1558440911986422,-1,-3,-2,0,0,4,0,0
1558440911994457,0,0,3,4,-3,-1,0,0
1558440911994457,0,0,-2,1,4,2,0,-2
1558440911995402,-1,0,2,-2,-2,-4,-3,1
1558440911995402,-3,-1,-5,-3,-6,-8,-7,-3
1558440912008368,-1,0,-2,2,4,1,1,3
1558440912008368,-1,-3,-2,-3,-4,-4,-3,-8
1558440912017335,2,-1,5,5,3,3,-1,-1
1558440912017335,-1,-1,-6,-2,0,-1,-3,-1
1558440912039393,-2,-2,0,-4,2,0,0,1
1558440912039393,-2,-2,-8,-9,-4,-1,3,-3
1558440912040276,0,1,2,0,-7,-6,-4,0
1558440912040276,-2,-1,4,3,-3,-2,-4,-2
1558440912054349,-4,-4,-9,-4,3,9,-1,-4
1558440912054349,2,0,5,3,10,6,9,4
1558440912056233,0,-2,-4,4,1,-3,0,0
1558440912056233,-2,-4,-5,-13,-9,-8,-5,-2
1558440912068196,-1,-1,-6,-1,-7,-1,-2,-2
1558440912068196,-2,0,1,1,-5,-6,-6,-3
1558440912077172,-2,0,0,-3,5,13,8,1
1558440912077172,2,0,2,4,-5,-3,-2,0
1558440912090190,0,2,0,-1,1,1,3,0
1558440912090190,0,0,3,2,3,-6,-1,2
1558440912099299,-1,0,-5,-4,-6,-5,-5,-2
1558440912099299,-4,-1,-3,0,3,8,-2,-2
1558440912114085,-1,1,3,-1,-4,-10,-2,0
1558440912114085,-1,1,0,1,0,4,1,0
1558440912116070,-2,-3,1,-3,-3,-5,-5,-2
1558440912116070,-1,-3,-4,-2,-2,3,0,-1
1558440912143993,2,1,2,-3,-10,-2,-2,-2
1558440912143993,-1,-1,-3,0,11,5,6,2
1558440912145988,-2,-3,1,2,-3,-2,1,-2
1558440912145988,0,0,-3,0,1,7,0,0
1558440912149979,-2,1,-1,-4,0,-15,-8,-1
1558440912149979,-1,1,2,2,-3,-3,-3,0
1558440912158953,-2,-2,-7,-1,0,1,3,-1
1558440912158953,1,1,5,4,2,-1,1,-1
1558440912174062,-1,-7,-7,-11,-3,-4,0,-4
1558440912174062,0,-4,0,3,-1,3,-2,-1
1558440912175922,0,1,1,-2,4,1,3,2
1558440912175922,-2,-1,0,-2,-5,-4,0,-2
1558440912187905,-1,-1,0,0,-2,-2,-3,-1
1558440912187905,0,0,1,-1,-6,-1,-4,-5
1558440912196851,-1,-1,-2,-1,3,8,2,0
1558440912196851,0,-1,-2,-1,1,-8,0,1
1558440912209818,-1,-1,2,6,9,9,2,0
1558440912209818,0,-1,-5,-6,-8,-6,-4,0
1558440912218820,-3,-2,-2,0,-5,0,-3,-2
1558440912218820,-2,-1,0,1,7,3,2,0
1558440912233782,-1,0,-1,-4,0,-1,4,4
1558440912233782,-2,-1,4,7,2,-3,-4,-1
1558440912235746,2,0,-6,-13,-2,1,1,-3
1558440912235746,-1,-1,-2,-10,-10,-6,-4,-4
1558440912249031,0,-3,2,2,5,0,-3,-1
1558440912249031,-1,-3,-3,-1,-1,-2,0,-2
1558440912264674,-1,-1,3,4,-3,-3,0,0
1558440912264674,1,0,0,-3,1,-3,-1,0
1558440912271114,-3,-2,-4,-2,-8,-2,-6,-5
1558440912271114,-1,-1,0,4,1,6,2,0
1558440912279638,-1,-1,-4,-3,7,-3,2,0
1558440912279638,-1,-1,-2,-4,-6,-14,-3,0
1558440912294971,-2,-2,-4,0,-7,-7,-3,-1
1558440912294971,0,1,3,6,7,3,-1,1
1558440912296592,1,-1,-1,-6,3,4,1,0
1558440912296592,-1,-1,-6,-8,-3,-2,-5,-1
1558440912308561,1,0,2,1,-1,4,2,0
1558440912308561,-2,-1,0,1,-6,-2,-2,-2
1558440912316540,-1,-3,-4,-6,-5,-4,-4,-3
1558440912316540,-1,0,0,4,0,2,-1,0
1558440912330503,0,0,0,-2,2,-5,2,1
1558440912330503,-1,-2,-1,-3,-5,-6,-4,-2
1558440912339485,-2,-2,-1,0,-3,3,-2,-2
1558440912339485,-3,-1,-1,-1,1,2,2,-1
1558440912354444,1,0,1,2,1,3,0,-1
1558440912354444,0,-1,0,4,2,-2,1,-2
1558440912355436,-2,0,-2,-2,-5,-9,-7,-2
1558440912355436,0,-2,0,-5,-4,-2,1,-3
1558440912367405,-2,1,-3,1,2,8,2,-1
1558440912367405,-3,0,-1,-2,-2,0,-2,-1
1558440912376693,1,0,6,7,3,2,2,1
1558440912376693,-2,-1,2,3,-1,1,0,-3
1558440912390700,-3,-3,-7,-1,-5,-7,-7,-3
1558440912390700,-3,-1,-2,-14,-4,1,1,-1
1558440912399320,1,2,7,5,3,1,1,1
1558440912399320,-1,-2,-10,0,2,1,-1,0
1558440912422391,-2,-4,-3,-3,-6,-2,-3,-2
1558440912422391,-1,-2,-6,-8,-5,0,-3,-4
1558440912423256,1,0,5,4,4,-7,0,1
1558440912423256,0,-1,2,-1,-4,2,-3,2
1558440912428547,0,1,0,-1,3,-2,-2,-1
1558440912428547,0,2,9,10,7,2,3,1
1558440912436220,-5,-2,-15,-10,-10,-4,-6,-4
1558440912436220,-2,-1,-2,-7,-4,-6,-1,0
1558440912450183,1,-3,-3,-5,-4,-4,-3,-2
1558440912450183,1,1,2,3,3,5,3,1
1558440912459160,0,0,5,6,-3,4,-1,-3
1558440912459160,-2,-1,0,-2,-3,-3,-5,-5
1558440912490226,-2,-2,2,1,-1,2,2,1
1558440912490226,-1,1,-1,1,1,-4,0,0
1558440912491085,-1,-2,-2,-3,-4,-3,-1,0
1558440912491085,0,-2,-7,-12,2,7,1,-2
1558440912492080,0,1,4,3,1,6,2,4
1558440912492080,-3,-1,-7,-8,-3,-9,-5,-1
1558440912497072,0,-1,-4,-1,2,-4,-1,-1
1558440912497072,0,-1,3,7,8,9,6,2
1558440912511024,-3,-2,4,5,1,-10,-2,-2
1558440912511024,-3,-3,0,-7,-4,3,0,-2
1558440912535957,-2,-1,-1,-4,-5,-1,-2,0
1558440912535957,0,-1,3,9,2,-1,0,0
1558440912536953,1,1,2,-2,2,4,7,2
1558440912536953,-1,-2,-3,-5,-4,-10,-5,0
1558440912539946,-1,-1,2,7,3,4,-6,-2
1558440912539946,-3,-2,-4,-6,-4,-5,-2,-1
1558440912547960,-3,0,-6,-5,-5,1,0,-2
1558440912547960,1,-3,-1,5,0,0,-2,-2
1558440912556899,0,-1,2,-1,1,-7,0,-1
1558440912556899,-2,-2,2,4,7,4,0,1
1558440912571103,1,0,-6,-8,-1,1,1,0
1558440912571103,-2,-4,-2,-1,-6,-5,-3,-1
1558440912603774,-1,-4,-2,4,-6,-4,-2,-2
1558440912603774,0,-1,3,1,-5,-2,-1,-2
1558440912604798,0,0,2,0,8,2,-4,-1
1558440912604798,-3,-5,-7,-7,-8,-5,-3,-2
1558440912609057,0,0,-2,1,1,-3,-1,0
1558440912609057,1,0,0,0,5,0,9,3
1558440912609057,0,1,2,2,-5,-1,-3,-2
1558440912609057,0,1,-1,-4,3,3,1,0
1558440912616759,-3,0,-2,-3,-2,0,-2,0
1558440912616759,-1,0,0,4,-4,3,-1,-4
1558440912630938,-2,-1,-2,-1,1,-6,-1,-2
1558440912630938,-2,-2,-5,-3,3,-1,-1,-2
1558440912639680,-2,0,3,5,4,8,3,0
1558440912639680,2,0,2,-3,1,-6,0,0
1558440912653928,-1,-3,4,4,-2,-3,-3,-2
1558440912653928,-1,-5,-12,-7,-3,6,1,-2
1558440912660925,-2,1,1,-2,0,-4,-1,0
1558440912660925,-2,-1,1,3,-2,-5,-5,-3
1558440912668627,-3,-3,-4,-5,-1,3,0,1
1558440912668627,2,1,-2,3,-1,0,0,0
1558440912676734,-2,-3,-3,-6,-1,1,0,-1
1558440912676734,0,1,8,7,-1,-1,-6,-3
1558440912690591,0,-1,-1,0,1,1,2,-2
1558440912690591,-2,2,-4,0,10,4,0,1
1558440912699532,-3,-4,-7,-4,-5,-5,-2,0
1558440912699532,-3,-3,-4,-8,-5,-5,-5,-4
1558440912713745,-2,-2,-5,-4,-6,-3,-3,-3
1558440912713745,0,0,5,1,-2,0,1,0
1558440912720469,2,1,1,4,4,3,5,0
1558440912720469,2,0,-5,-1,-1,0,-3,2
1558440912728497,-3,-7,-3,-1,-2,0,-2,-1
1558440912728497,-2,-4,-2,-2,0,1,2,-2
1558440912736423,-4,-4,-4,2,-1,-6,-2,-2
1558440912736423,-2,-1,0,-5,0,4,1,0
1558440912750390,0,2,-2,-5,2,4,1,-2
1558440912750390,0,0,7,12,-3,1,-5,-1
1558440912759358,-2,-2,-6,-19,-6,-2,-4,-3
1558440912759358,0,-2,-10,-7,2,-2,2,2
1558440912773317,-2,2,1,5,2,-3,-1,-1
1558440912773317,-5,-2,4,1,-2,-6,-4,-1
1558440912780330,0,0,-3,-1,-2,-2,-1,0
1558440912780330,-3,-3,-2,0,0,3,2,-2
1558440912796256,1,-1,2,2,0,3,0,1
1558440912796256,2,1,4,0,-4,-8,0,0
1558440912798251,2,2,4,6,8,2,-1,2
1558440912798251,-1,-4,-2,-6,-6,-4,-6,-2
1558440912810253,-1,-2,1,3,2,4,0,0
1558440912810253,0,0,-3,-8,-5,-1,0,-2
1558440912819310,-5,-3,0,0,-2,2,0,-2
1558440912819310,0,-1,4,6,-2,-2,-2,0
1558440912833158,-3,-3,-9,-5,-3,-5,-5,-2
1558440912833158,0,0,-2,-2,-4,-7,-3,-1
1558440912841135,-1,1,0,3,-2,0,2,0
1558440912841135,-3,2,7,2,3,-1,2,-3
1558440912857510,-1,-1,0,-3,0,-5,-2,0
1558440912857510,-2,-2,-2,0,-1,3,-2,0
1558440912858093,-2,-3,-2,2,-3,-3,-2,-1
1558440912858093,-2,0,-4,-5,1,0,2,1
1558440912870487,0,-2,-1,0,-1,1,0,-2
1558440912870487,0,0,4,7,1,-3,2,2
1558440912879200,-1,-2,-6,-12,-8,-6,-3,-2
1558440912879200,0,3,5,8,1,4,1,-2
1558440912894276,-3,-3,-8,-6,-1,-3,-1,-2
1558440912894276,-2,-1,-2,-8,0,-1,-3,-2
1558440912899981,0,-2,3,2,1,5,-2,-2
1558440912899981,0,-1,2,5,-4,-5,-3,-3
1558440912932910,0,1,3,-3,-6,-2,-4,-3
1558440912932910,2,0,-2,2,2,-6,2,-1
1558440912933891,-1,0,-5,-13,-4,-5,0,1
1558440912933891,-2,-3,-4,-1,3,7,-2,1
1558440912934888,-1,-1,2,2,3,5,4,0
1558440912934888,-4,-2,-4,-5,-4,-8,-5,-4
1558440912938878,-1,0,-4,3,0,-1,-3,0
1558440912938878,-2,1,2,3,2,-3,1,0
1558440912954152,-1,1,5,0,-4,-6,-3,-1
1558440912954152,-1,-1,-7,1,0,4,2,0
1558440912959820,-1,-3,-2,-4,1,0,-1,-2
1558440912959820,0,-2,-6,-16,-10,-7,-7,-1
1558440912976802,0,0,-1,5,-2,2,-1,2
1558440912976802,0,0,1,0,1,2,0,-2
1558440912977771,2,2,4,6,6,5,2,-1
1558440912977771,0,-1,-4,-1,-3,-3,-4,-4
1558440912990736,-1,0,-3,-1,-1,-7,-2,-2
1558440912990736,-2,-2,-2,-7,-3,4,2,0
1558440912999141,-2,-2,2,0,1,-1,-6,-4
1558440912999141,-2,-2,-1,4,1,1,-1,0
1558440913013675,-3,-1,1,-3,1,1,4,1
1558440913013675,-1,0,-3,-5,0,2,-4,-2
1558440913021116,0,0,4,4,-2,0,1,1
1558440913021116,1,0,3,4,-3,-8,-3,-1
1558440913045066,-3,-4,-8,-1,-4,-3,-5,-2
1558440913045066,0,0,-5,-9,-3,1,3,1
1558440913046624,-1,-3,-3,2,2,-3,-2,-4
1558440913046624,0,0,-2,-1,2,5,-1,-1
1558440913050578,0,-1,0,0,0,-4,0,1
1558440913050578,-2,0,0,2,-6,-2,-2,-1
1558440913059553,4,-1,0,-4,1,-3,5,1
1558440913059553,-1,-1,-2,-1,3,0,-1,-1
1558440913073545,0,1,4,-3,-10,-2,1,0
1558440913073545,-5,-5,-5,-3,7,1,-1,0
1558440913080763,-2,-2,-1,-3,-1,1,0,1
1558440913080763,-2,-2,-4,2,-7,-8,-3,-1
1558440913096733,-1,-1,-8,-16,0,2,2,-1
1558440913096733,0,1,2,2,-4,-4,-5,-2
1558440913098450,-2,-2,-1,2,-3,3,-1,-1
1558440913098450,-1,-3,-4,0,4,-1,3,0
1558440913110678,-2,-2,-4,1,-3,0,-5,-1
1558440913110678,-2,-1,-3,-4,-2,0,0,-3
1558440913119394,-1,1,-3,-4,-7,-8,-5,-2
1558440913119394,0,2,3,2,6,16,6,3
1558440913132545,2,0,3,5,11,-5,1,0
1558440913132545,1,-1,-1,-5,-4,0,-4,0
1558440913149313,-2,-3,-1,3,-7,-7,-6,-5
1558440913149313,-2,-2,-3,-8,-6,-9,-4,-2
1558440913156329,2,1,1,2,8,10,4,1
1558440913156329,0,-2,-1,5,-8,-10,-4,-2
1558440913158292,0,-1,-2,-2,-2,-2,-3,-1
1558440913158292,-3,-2,0,-4,-1,-4,4,1
1558440913170498,-2,-2,1,4,4,11,7,1
1558440913170498,1,-1,0,-2,-4,-7,-2,-1
1558440913179269,-3,-2,-5,-3,2,6,1,-1
1558440913179269,0,0,0,-4,-6,-21,-4,-2
1558440913194230,1,2,4,4,1,6,5,1
1558440913194230,-1,-2,2,1,3,11,3,0
1558440913200177,3,2,1,0,6,8,1,0
1558440913200177,-1,-1,-2,-4,-5,-3,-9,-4
1558440913217134,0,-1,-2,1,-4,-9,-3,-1
1558440913217134,-2,-2,-6,-7,-4,1,0,0
1558440913218127,-1,-2,-1,3,-1,-2,-1,0
1558440913218127,-2,-1,-2,-3,0,4,-3,0
1558440913230458,-1,-2,-2,-2,-4,-9,-4,-3
1558440913230458,1,0,0,5,3,-4,-4,-1
1558440913239367,-4,-1,-2,-2,-7,-6,-2,-3
1558440913239367,0,0,2,-2,2,12,3,0
1558440913253076,-3,-1,-2,-2,-5,-3,-9,-3
1558440913253076,1,-1,1,5,2,-3,5,2
1558440913260066,-2,-1,3,-1,2,-9,-1,1
1558440913260066,2,-3,-4,-6,-3,-4,-1,-4
1558440913277008,-3,-4,-4,-3,-3,-1,-2,-2
1558440913277008,-1,0,-2,0,5,7,2,-1
1558440913277968,0,-1,-2,-2,-3,0,1,0
1558440913277968,1,1,0,5,1,5,3,-1
1558440913289934,-2,-3,-1,-3,-9,-8,-6,-2
1558440913289934,-2,0,0,2,0,-4,-4,-3
1558440913315867,1,1,3,1,-2,1,2,0
1558440913315867,-3,-3,-1,-1,-2,1,-4,-1
1558440913315867,-2,-2,-15,-12,-5,3,1,-1
1558440913315867,2,2,4,4,7,0,10,5
1558440913321088,0,-1,-2,0,6,3,2,-2
1558440913321088,-1,0,2,2,-1,1,-3,-1
1558440913337482,-2,0,1,-4,-6,-3,-11,-5
1558440913337482,-3,-5,-5,-5,-8,3,-4,-2
1558440913338061,1,0,5,8,3,4,0,0
1558440913338061,0,1,3,-9,1,-7,3,2
1558440913350028,0,-5,-3,-7,2,9,1,-1
1558440913350028,0,-1,-4,-3,0,2,-1,-2
1558440913359287,-1,0,-3,-4,-6,-6,-5,-2
1558440913359287,-1,-2,-4,6,-6,-7,-2,-2
1558440913374150,1,2,1,2,5,-2,4,0
1558440913374150,0,-3,2,-3,-2,-3,-6,-4
1558440913381072,0,-1,-3,-3,4,11,5,0
1558440913381072,-2,0,0,4,1,-5,-2,-1
1558440913397171,-1,0,1,4,2,1,-2,-1
1558440913397171,0,2,-1,-3,-6,-5,0,-1
1558440913397900,-1,-1,-3,-4,-1,0,-3,-1
1558440913397900,-1,-2,-1,2,4,4,-1,0
1558440913418846,-3,-2,-2,-7,-6,-1,-6,-3
1558440913418846,-2,-2,-2,-5,2,2,-1,-1
1558440913420840,1,0,1,3,3,-6,4,4
1558440913420840,1,-1,2,-1,-5,-4,1,-3
1558440913432808,1,3,0,3,7,3,1,0
1558440913432808,-3,-3,-5,-5,-3,3,-2,-3
1558440913441785,-1,-1,-2,-1,-3,-6,-5,-1
1558440913441785,-2,-2,-4,-10,-6,-3,-1,0
1558440913456744,-2,-1,2,1,-6,-4,-4,-3
1558440913456744,0,-1,0,3,-3,-6,-5,-1
1558440913459029,-1,1,2,0,6,2,3,2
1558440913459029,-1,-1,-8,-7,-6,-7,-1,0
1558440913471021,1,2,6,10,4,2,5,1
1558440913471021,0,-1,-1,-5,1,-4,-2,-2
1558440913479005,-4,-4,-3,-3,-3,2,-4,-4
1558440913479005,-1,-2,-1,1,-1,0,-1,-3
1558440913492966,-3,-2,-4,-3,-5,-2,0,0
1558440913492966,-2,1,8,4,-3,-3,-3,-1
1558440913501837,-1,-4,-4,-7,-2,3,-5,-3
1558440913501837,-1,1,2,3,8,10,3,1
1558440913515862,1,-1,0,-5,-1,-11,2,-1
1558440913515862,0,-2,-4,1,-5,-12,-5,-3
1558440913522570,0,-1,1,0,-4,0,0,-1
1558440913522570,-1,-1,-1,0,3,7,2,-1
1558440913530798,1,-2,0,-2,-1,0,-1,1
1558440913530798,-2,-3,0,-1,-2,-3,-3,1
1558440913539525,0,-2,-1,3,-3,-9,-2,1
1558440913539525,-1,-2,-2,-2,-2,0,-3,-3
1558440913553540,0,-1,2,1,0,6,3,0
1558440913553540,1,0,0,4,0,-8,2,-1
1558440913561465,-2,-2,-7,-11,1,2,0,-2
1558440913561465,-1,0,1,-1,-2,-1,-2,-2
1558440913576729,-2,-3,-8,-3,-4,-4,-3,-2
1558440913576729,-2,-3,-6,-11,-5,4,-2,-2
1558440913582685,0,1,1,3,-1,-5,-1,1
1558440913582685,-1,-1,0,1,-2,-6,-1,-1
1558440913590891,2,1,0,3,0,-2,-3,2
1558440913590891,0,1,3,0,6,9,4,2
1558440913599638,-3,-2,-3,-3,-6,-3,-6,-4
1558440913599638,-1,-3,-6,-4,-3,-3,-1,-1
1558440913615134,0,0,0,1,-2,-9,0,0
1558440913615134,1,0,-1,0,9,6,5,0
1558440913621575,-4,-2,-2,-3,-5,0,0,-3
1558440913621575,-1,-1,1,0,-3,-6,-2,0
1558440913636633,-2,0,0,-3,3,-3,1,0
1558440913636633,0,-2,0,2,-5,-5,-5,-1
1558440913642524,-1,-2,-1,2,-1,-4,-2,-1
1558440913642524,-1,-1,-3,-2,3,8,0,-1
1558440913650501,-2,-2,0,-2,-1,0,2,-1
1558440913650501,-2,1,-2,3,1,4,2,0
1558440913659476,-2,-1,-2,-4,-5,0,-3,-2
1558440913659476,0,0,-2,-2,-5,-3,-1,0
1558440913673582,-1,-1,-1,2,3,0,-2,0
1558440913673582,-1,-1,1,-3,-2,2,-2,-1
1558440913681736,1,-1,-1,0,2,1,0,0
1558440913681736,1,2,1,3,5,-6,2,0
1558440913696643,-1,-2,0,-1,-6,-2,-6,-4
1558440913696643,-2,-1,-3,-1,2,5,3,-2
1558440913703592,0,1,1,1,-3,2,0,-3
1558440913703592,-2,-2,0,1,-1,-6,-4,-1
1558440913710339,-1,0,-1,-2,-3,-3,-1,-2
1558440913710339,-2,0,0,0,1,-8,-1,-1
1558440913719318,0,-2,-6,-6,-4,-7,-3,0
1558440913719318,-1,-1,-1,-1,-2,2,-2,-3
1558440913732545,-2,-3,-5,-5,-2,-2,-3,-3
1558440913732545,-1,0,2,10,-1,-1,-3,-2
1558440913741594,-2,-3,-9,-16,-9,-1,-4,-1
1558440913741594,-1,-2,2,1,4,-1,1,1
1558440913755880,1,2,3,0,7,7,9,5
1558440913755880,1,-1,-3,5,-1,0,0,-1
1558440913762865,0,0,2,2,4,3,1,-2
1558440913762865,-1,-1,-1,0,-7,-5,-7,-5
1558440913779954,-3,-2,-1,0,-4,-4,-3,-3
1558440913779954,-2,0,-7,-10,4,1,3,3
1558440913780921,-1,-3,-2,2,-2,1,-2,-1
1558440913780921,-3,-2,-4,-2,-4,2,1,0
1558440913793133,-1,2,3,3,-1,-7,0,2
1558440913793133,-1,-2,2,-3,-4,-5,-6,-2
1558440913801869,1,0,5,5,1,-2,3,2
1558440913801869,0,0,-1,4,2,-1,1,3
1558440913815858,-2,-6,-7,-6,2,4,-4,-4
1558440913815858,-2,-3,0,-5,-8,-15,-5,0
1558440913822807,-1,-1,-1,7,5,4,2,-1
1558440913822807,-4,-3,-4,-13,-3,2,1,-1
1558440913839013,-1,-1,0,-1,0,-2,-2,-4
1558440913839013,-2,0,1,1,1,2,1,-4
1558440913840761,-2,1,1,2,-2,-3,0,-1
1558440913840761,0,0,2,2,-1,2,-1,-2
1558440913853043,-1,-2,-10,-3,-4,-4,-5,-1
1558440913853043,-1,-3,-2,-6,-3,3,0,-1
1558440913868685,-1,1,-4,-2,1,-9,-1,-1
1558440913868685,-3,-3,-6,1,0,2,-2,-2
1558440913876790,0,1,5,0,1,-1,4,3
1558440913876790,-1,0,0,1,-7,-2,-5,-2
1558440913882683,-1,0,2,0,7,10,6,2
1558440913882683,-1,-2,0,-2,0,-1,-5,-1
1558440913899601,0,0,4,5,4,-1,-3,-1
1558440913899601,1,1,-1,-6,-2,0,2,2
1558440913900620,-2,-3,0,-1,-4,-5,-5,-4
1558440913900620,-2,-3,-4,0,-3,7,1,-2
1558440913913604,2,-2,-1,-2,4,6,4,-1
1558440913913604,1,2,1,1,0,-11,3,1
1558440913929521,-1,-2,-2,-4,-5,-4,-4,-1
1558440913929521,-1,-1,-2,0,2,-3,-5,-2
1558440913936774,-1,-1,-1,-4,-4,-5,2,1
1558440913936774,-1,-1,-2,-1,0,0,-2,-2
1558440913943583,-1,0,0,3,-2,1,-2,-2
1558440913943583,0,0,1,-1,1,1,1,-1
1558440913959833,-1,2,-2,-7,-1,3,0,1
1558440913959833,-1,-1,-6,0,-3,-3,-3,-2
1558440913961468,1,0,-2,-1,0,0,1,-2
1558440913961468,-1,-2,-1,-4,-5,-7,-4,-3
1558440913982385,-2,-2,1,5,0,2,-2,-1
1558440913982385,-1,-2,1,-1,1,4,3,1
1558440913983380,-1,0,1,-1,-1,-3,-2,0
1558440913983380,-2,-1,-5,-2,-5,-4,-4,-1
1558440913995347,-1,2,3,2,-2,-6,2,1
1558440913995347,-2,-2,0,2,13,10,-4,-3
1558440914004321,-1,-4,-5,-8,-4,3,3,1
1558440914004321,0,0,4,3,-3,-2,2,2
1558440914019547,-2,-5,-7,-2,-2,-1,-6,-3
1558440914019547,0,0,1,-5,-2,8,5,1
1558440914020278,-1,0,2,4,8,4,1,-1
1558440914020278,0,2,0,-4,-4,-8,-5,-2
1558440914042251,1,-1,-3,-4,-1,-2,-1,-3
1558440914042251,-1,-1,-3,1,-13,-16,-8,-1
1558440914043218,-1,-1,2,8,12,13,8,3
1558440914043218,0,-1,-2,-7,-5,-1,-1,-1
1558440914056182,-1,1,-2,-1,1,2,-1,-2
1558440914056182,-2,-2,0,2,2,4,-2,-1
1558440914063190,0,-1,0,-6,-7,-3,-7,-5
1558440914063190,-2,-3,0,1,0,4,3,-2
1558440914079465,-2,-2,-2,-4,-9,-5,-9,-7
1558440914079465,-4,0,0,-1,-3,-5,3,2
1558440914080119,4,3,4,5,5,-14,3,4
1558440914080119,-1,-1,-4,-8,3,-1,0,-1
1558440914093422,-2,-2,-1,3,0,4,6,3
1558440914093422,-1,-5,-2,-3,-7,-3,-5,-4
1558440914102061,-1,-3,-7,-6,-11,-7,-9,-5
1558440914102061,-2,0,-1,3,3,6,-1,-1
1558440914116022,0,-1,3,-3,-3,1,0,0
1558440914116022,-1,-1,-1,-1,1,1,1,-3
1558440914123113,-3,0,-1,0,-4,-3,-2,-1
1558440914123113,0,-1,1,-1,0,5,3,2
1558440914147291,0,0,-4,-1,5,-6,0,0
1558440914147291,1,1,-1,-1,1,3,-1,-1
1558440914148972,-2,-1,-1,-3,-4,-1,-4,-2
1558440914148972,-1,-3,-2,-2,-2,-4,0,-2
1558440914153252,-2,-1,1,1,-2,-1,-2,0
1558440914153252,1,-1,-1,0,4,3,0,0
1558440914167883,-5,-3,-3,-4,-3,3,0,-3
1558440914167883,-1,0,-1,1,0,-5,0,2
1558440914176198,-1,-2,-1,0,-1,-4,-2,-1
1558440914176198,-2,-1,-3,-1,-1,-4,-5,-5
1558440914199804,2,2,3,-2,2,-1,6,3
1558440914199804,-2,-2,-7,0,4,-2,2,1
1558440914200802,-1,1,-3,-2,-1,9,-1,-3
1558440914200802,-3,-1,-4,-5,-12,-8,-8,-2
1558440914201795,-2,-1,0,4,1,2,-1,-3
1558440914201795,1,3,2,-2,3,7,5,1
1558440914213076,1,-3,-2,-2,3,-3,-3,0
1558440914213076,2,-2,-2,-6,-2,2,-2,-1
1558440914221739,-2,-3,-1,1,-1,-1,-4,0
1558440914221739,-1,-1,3,0,-1,-13,-2,1
1558440914251658,-4,-1,0,2,-4,-6,-5,-2
1558440914251658,-3,-1,-2,0,-2,-6,-1,-3
1558440914252657,1,2,-2,-1,7,3,2,1
1558440914252657,-2,-1,2,3,3,4,-4,-3
1558440914258641,1,0,-4,-5,-6,-13,-2,1
1558440914258641,0,-1,1,4,4,4,2,1
1558440914260635,-3,-2,-5,-11,-16,-10,-7,-3
1558440914260635,1,1,2,3,7,9,5,-1
1558440914272652,2,3,3,1,-3,-5,0,0
1558440914272652,-1,-4,-3,-2,5,5,3,-1
1558440914281579,-3,-2,-1,0,-8,-10,-4,-3
1558440914281579,-3,-2,-3,0,-6,2,-4,-4
1558440914311533,-1,-2,-3,-2,-2,0,-3,-2
1558440914311533,-2,-3,-4,-3,-4,-5,-1,0
1558440914313515,1,3,0,-1,6,-5,1,2
1558440914313515,-2,0,-2,1,-3,-4,-4,-1
1558440914319512,-3,-2,0,-4,-4,-5,-4,-2
1558440914319512,2,0,1,3,5,4,4,2
1558440914320475,-4,-6,-4,4,5,7,1,-1
1558440914320475,0,-1,-1,-1,-6,-8,-3,0
1558440914332443,-4,-2,-5,-7,-4,0,-3,-1
1558440914332443,0,0,-4,-3,-12,-4,-4,-1
1558440914341419,1,0,2,-2,0,-3,3,2
1558440914341419,0,-1,0,-4,5,2,3,1
1558440914356378,-3,-4,-2,3,-2,8,3,0
1558440914356378,-4,-2,-2,1,4,-2,-4,-2
1558440914370598,-1,-2,-2,-2,-5,0,-5,-3
1558440914370598,-1,-2,-5,-5,-2,-2,0,-1
1558440914379589,3,2,8,8,6,7,4,1
1558440914379589,0,0,0,-6,-2,0,-3,0
1558440914381313,0,-1,-1,0,-3,-1,1,-1
1558440914381313,-4,-2,-5,-2,-2,-8,0,0
1558440914393508,-2,-1,-1,-4,-1,-2,1,-3
1558440914393508,1,2,4,4,9,6,6,3
1558440914401530,-1,-2,3,2,-1,2,0,-3
1558440914401530,0,-2,0,0,-8,-3,-5,-3
1558440914424475,-3,-3,-3,-2,-5,-4,-4,-3
1558440914424475,-2,-2,-2,0,-2,-7,-6,-2
1558440914425197,0,1,0,1,3,3,0,0
1558440914425197,1,1,1,-1,0,2,2,0
1558440914439160,0,-3,-1,-1,3,4,2,2
1558440914439160,1,0,1,0,4,2,3,1
1558440914440157,-4,-2,-5,-6,-4,-4,-5,-2
1558440914440157,-2,0,1,1,-1,-1,0,-1
1558440914453119,-1,2,-1,0,-4,4,1,-2
1558440914453119,0,-2,0,2,-2,-1,2,0
1558440914467634,0,1,2,-1,13,7,8,3
1558440914467634,0,-2,-4,-2,-7,-8,-6,-3
1558440914484526,1,1,1,4,4,-1,2,2
1558440914484526,-4,-1,-6,-13,-4,-4,-1,-2
1558440914485710,0,-1,-2,-2,-7,-2,-5,-1
1558440914485710,-1,-4,1,2,1,0,-4,-2
1558440914498900,1,-1,1,-1,-2,-5,-4,0
1558440914498900,1,0,2,1,3,6,0,-2
1558440914506015,-1,-3,-2,-2,-1,0,-1,-1
1558440914506015,-3,-2,-2,-1,-3,-5,-3,0
1558440914513124,-1,-1,-1,-3,-6,-8,-1,1
1558440914513124,-3,-3,-3,1,3,1,2,-1
1558440914521781,-1,-1,-2,2,-8,-7,-7,-4
1558440914521781,0,-1,-1,-4,4,3,0,1
1558440914544793,-3,-1,-2,-6,-5,-5,-4,-4
1558440914544793,-3,1,2,5,0,-6,0,1
1558440914545721,-2,0,-2,-6,-3,-2,-3,-1
1558440914545721,-1,-2,0,1,-1,-4,-4,-1
1558440914559011,0,-1,0,5,5,6,1,-1
1558440914559011,0,-2,-7,-8,-10,-2,-1,-3
1558440914565771,-1,-3,1,-1,-5,-5,-1,-3
1558440914565771,0,2,3,2,9,4,7,3
1558440914573271,-2,-3,-1,2,4,0,0,0
1558440914573271,-1,-2,2,1,-2,1,-2,-1
1558440914581611,0,-3,-2,-2,-4,-1,-3,-1
1558440914581611,-3,-2,2,-1,-3,2,-3,-1
1558440914596505,0,-1,-5,1,6,2,1,-1
1558440914596505,0,1,-8,-12,-4,-1,6,2
1558440914603439,0,1,-1,2,-1,-1,-2,-1
1558440914603439,-3,-3,1,-2,1,0,-3,-1
1558440914618154,-2,-2,-2,-3,-5,-7,-5,0
1558440914618154,0,1,2,7,2,0,0,-1
1558440914625169,-1,0,0,-2,-4,-2,-3,-1
1558440914625169,0,0,-1,1,0,3,-1,-2
1558440914633116,-1,0,-3,-8,-3,-5,-5,-3
1558440914633116,1,0,0,1,-3,-1,-2,-2
1558440914642091,-1,0,2,-2,4,-2,0,2
1558440914642091,-1,-4,-3,-2,-11,-4,-3,-3
1558440914656312,-2,0,1,1,1,-4,1,-2
1558440914656312,0,-1,4,6,2,-4,-4,-1
1558440914663038,-2,0,0,0,5,6,2,-1
1558440914663038,1,0,-4,-5,-2,-1,-1,-1
1558440914679283,-2,-1,2,1,-4,0,-3,0
1558440914679283,0,0,1,-2,1,5,-2,-1
1558440914684978,-1,-2,2,1,-5,-6,-2,-2
1558440914684978,0,-1,-2,6,0,-1,2,0
1558440914709910,-2,-1,-7,-15,-4,-3,-2,-3
1558440914709910,-1,-1,2,4,-3,0,1,1
1558440914710910,-2,-2,-1,-4,-3,-4,1,0
1558440914710910,0,2,2,3,0,-3,4,2
1558440914715896,0,1,-2,0,7,11,3,2
1558440914715896,-1,-3,0,0,-4,0,-3,-3
1558440914723023,0,-2,-5,-7,-2,-1,-3,-3
1558440914723023,-1,0,-4,-9,-8,-7,-5,-1
1558440914739183,0,0,2,2,-4,-2,-3,-2
1558440914739183,-1,0,-2,-1,8,9,5,2
1558440914746077,-1,-1,-3,1,-1,1,0,-1
1558440914746077,-3,-1,-1,-3,3,2,2,0
1558440914762132,-1,-3,-2,-1,-5,-4,-1,0
1558440914762132,-3,0,0,0,-2,-2,-4,-1
1558440914763797,-1,-2,-2,5,-3,-10,-5,-2
1558440914763797,-1,1,-1,-5,4,-1,0,-1
1558440914776731,-3,-2,-1,1,-2,-2,-2,-2
1558440914776731,-3,0,-1,1,-1,2,1,-3
1558440914782715,-1,0,-2,-5,0,-1,-2,0
1558440914782715,-1,-1,0,0,-5,-6,-4,-1
1558440914799015,-2,-2,1,-2,-2,-3,-5,-2
1558440914799015,1,-2,-2,-2,-3,2,0,0
1558440914812946,0,-3,0,7,5,4,3,-1
1558440914812946,-2,-2,-4,-8,-5,-7,-2,-3
1558440914821610,2,1,-1,-3,-1,10,0,1
1558440914821610,0,-1,-1,-4,-3,-9,-4,-1
1558440914822610,0,2,1,4,1,3,2,3
1558440914822610,1,-1,0,-4,-2,3,3,0
1558440914836573,2,0,-1,0,0,-4,1,-1
1558440914836573,-2,-1,-3,-4,-4,-11,-7,-2
1558440914842556,-1,-1,0,-5,0,-1,-2,-3
1558440914842556,-3,-3,0,5,0,0,0,-1
1558440914874471,-2,-2,-2,1,7,8,2,0
1558440914874471,-2,0,2,0,-1,1,-1,0
1558440914875468,-2,-1,-3,-5,-5,0,-3,-2
1558440914875468,-3,-2,0,-1,-1,-6,-3,-3
1558440914881757,-1,-2,-2,0,0,-6,-1,0
1558440914881757,-1,-2,0,-3,-4,-12,-5,0
1558440914883446,-3,-2,-2,-2,0,10,5,-1
1558440914883446,0,-1,-1,8,1,4,0,-1
1558440914896726,1,2,1,-1,4,-2,2,0
1558440914896726,0,0,-4,-13,0,-1,-1,0
1558440914903423,-1,-1,1,0,-5,-7,-6,-3
1558440914903423,-2,-3,-2,-5,-3,0,-6,-2
1558440914918638,-1,-1,0,0,-1,4,4,-1
1558440914918638,1,1,2,3,3,1,2,0
1558440914925640,-2,-2,-2,-2,-2,2,-1,-1
1558440914925640,-1,-1,-1,-2,0,1,-1,-2
1558440914941589,-2,-3,-1,-9,-8,-5,-1,-1
1558440914941589,-2,-1,0,4,3,7,2,2
1558440914943288,-1,-1,-1,-4,0,1,3,2
1558440914943288,-1,-1,0,-2,-4,0,-4,-2
1558440914956546,-1,-2,0,2,-2,-3,0,-1
1558440914956546,0,1,0,-2,-10,-14,-4,-3
1558440914963492,-1,0,1,0,6,6,2,1
1558440914963492,-1,-1,0,4,0,-8,0,1
1558440914979222,-1,-2,-1,-2,-2,2,-3,-1
1558440914979222,-2,-2,-2,2,1,2,1,-1
1558440914985413,-1,-2,-6,-10,-6,-4,-1,-2
1558440914985413,-3,0,-1,-2,-8,-6,-3,-3
1558440915002377,-2,1,4,3,1,0,-1,1
1558440915002377,-1,-1,-5,-1,6,5,1,-1
1558440915003129,-1,0,0,6,1,-1,-1,1
1558440915003129,-3,-2,-5,-5,-6,-2,-8,-3
1558440915016097,1,-1,0,-3,6,9,7,3
1558440915016097,1,0,1,-1,-1,-5,-3,-3
1558440915023316,-4,-3,-6,-1,-2,9,4,-1
1558440915023316,3,1,0,0,5,-3,6,3
1558440915038270,-2,0,-3,1,-5,-10,-7,-4
1558440915038270,0,-2,-3,-1,-4,-12,-7,-2
1558440915045018,1,1,5,0,-4,-5,-2,-2
1558440915045018,0,-2,-8,-9,1,10,1,0
1558440915061968,-2,-3,0,1,-2,0,-3,-1
1558440915061968,0,1,2,-2,3,4,3,1
1558440915062965,-2,-3,-2,-2,-6,-7,-4,-2
1558440915062965,-3,-2,1,0,-3,-2,2,-1
1558440915083911,2,0,0,2,-4,-6,-3,-3
1558440915083911,-1,-1,-2,-3,4,4,-1,0
1558440915085903,0,0,3,3,2,2,-1,0
1558440915085903,-1,-1,0,5,5,7,2,-1
1558440915098969,0,-2,-2,-10,-5,-3,1,1
1558440915098969,-2,-3,-3,-2,-9,-10,-5,-1
1558440915105939,-1,1,0,2,2,3,1,-1
1558440915105939,0,-1,2,-1,-5,-6,-3,-1
1558440915122059,-2,0,-2,2,-2,-8,-3,-3
1558440915122059,-4,-4,0,4,-2,5,0,-2
1558440915122809,0,-2,-2,-2,2,-2,-5,-1
1558440915122809,1,-1,-3,-7,-2,-2,0,1
1558440915136004,-1,-1,-1,0,-8,-2,-6,-6
1558440915136004,2,-1,-2,0,-2,-4,0,1
1558440915149736,1,0,0,0,5,0,-3,-1
1558440915149736,-2,-1,-1,-6,-6,-3,-2,-3
1558440915158941,0,1,0,2,9,5,3,4
1558440915158941,-1,-4,0,-2,-3,3,-2,-3
1558440915165704,0,0,-5,-3,-5,-6,-1,0
1558440915165704,-1,-1,-5,-11,0,-10,-2,0
1558440915181901,1,-3,2,1,2,8,7,0
1558440915181901,-2,-1,-4,-3,-1,3,-2,-1
1558440915182647,-1,-2,-1,-2,-9,-14,-5,-4
1558440915182647,1,2,3,6,8,5,2,1
1558440915204825,-2,-2,0,-3,2,4,-2,-1
1558440915204825,0,0,2,-5,-1,-5,-2,0
1558440915205585,0,-2,-3,-1,-2,-3,-4,-1
1558440915205585,-3,-4,-4,2,8,13,1,-2
1558440915218782,0,2,-1,0,-4,0,-1,1
1558440915218782,-2,-1,2,4,4,4,3,-1
1558440915225567,-1,0,4,3,1,-4,4,1
1558440915225567,-2,-1,-6,-9,-13,-6,-8,-4
1558440915241490,-1,-1,-3,0,3,3,2,-1
1558440915241490,-2,-1,-1,2,2,4,2,-1
1558440915243517,-2,-1,-2,-6,-2,-6,0,1
1558440915243517,-1,-3,3,3,-2,-4,-4,-1
1558440915255451,-1,-2,-4,-5,-8,-5,-5,-2
1558440915255451,1,1,-1,-1,1,5,3,2
1558440915264425,-1,-3,-2,1,1,-1,-5,-2
1558440915264425,1,2,2,4,6,14,7,1
1558440915278389,0,-1,-1,-1,-2,-8,-2,0
1558440915278389,0,0,0,-2,1,3,4,-1
1558440915285369,-3,-1,0,1,-2,-3,0,-1
1558440915285369,-2,-3,-8,-3,-4,-4,-8,-2
1558440915301352,-3,-3,-2,-2,-3,4,2,-3
1558440915301352,0,1,0,3,8,-1,1,4
1558440915307313,-2,-2,-1,-4,-5,-7,0,0
1558440915307313,0,1,2,5,0,-2,-2,0
1558440915315673,-4,-3,-3,-5,2,3,-1,-2
1558440915315673,-3,-2,-3,-1,-10,-7,-9,-5
1558440915324268,0,-3,-2,-2,-2,5,2,1
1558440915324268,3,1,4,4,10,-12,1,1
1558440915338466,-2,0,-2,-2,-8,-10,-5,-1
1558440915338466,-4,-1,-4,-2,-5,2,-2,-4
1558440915345420,-1,-1,-2,-6,0,5,-2,-5
1558440915345420,-2,0,0,0,0,6,4,-3
1558440915361168,2,1,2,4,11,9,8,4
1558440915361168,-2,-1,-1,-4,-5,-7,-1,1
1558440915363162,1,0,-2,0,-4,-8,-1,-1
1558440915363162,-2,-1,2,2,2,-6,-1,2
1558440915375166,-1,-1,-1,-7,-1,-10,-8,-2
1558440915375166,-1,-3,-2,0,4,8,3,-3
1558440915384110,-3,-1,-2,-1,-7,0,-3,-3
1558440915384110,-2,-1,0,2,5,14,5,2
1558440915398070,-2,-1,1,0,-3,-10,-6,-1
1558440915398070,1,0,-3,-5,-1,-7,-1,0
1558440915405050,0,-3,-3,1,0,6,-2,-1
1558440915405050,1,0,-1,-2,-4,-8,0,-1
1558440915421012,1,-1,0,4,-2,-6,-1,-1
1558440915421012,1,0,0,-1,3,11,6,1
1558440915427988,-1,1,0,-2,0,1,0,2
1558440915427988,-4,-3,-4,-2,-7,-6,-4,-3
1558440915434970,-4,0,-1,3,3,1,1,-3
1558440915434970,-1,-1,-4,-12,-11,-10,-5,-5
1558440915443948,1,-1,0,1,0,1,0,-2
1558440915443948,0,0,0,-4,2,5,1,-1
1558440915457908,-2,-3,-1,3,-3,-2,-6,-3
1558440915457908,-1,-2,0,-3,-2,-10,-4,-2
1558440915464900,0,2,0,-1,2,5,2,0
1558440915464900,-1,-2,-4,-3,-9,-3,-8,-5
1558440915480846,3,1,4,4,11,2,9,6
1558440915480846,-3,-2,-3,-3,0,-2,-3,-2
1558440915488026,-4,-3,-3,-3,0,-3,-3,-2
1558440915488026,0,-1,3,3,-3,-5,-4,0
1558440915495076,-4,-5,-12,-15,-12,-2,0,-1
1558440915495076,2,2,3,5,10,2,7,5
1558440915503786,-2,-1,-2,-1,-4,-6,-3,-2
1558440915503786,-1,-3,-3,-3,-4,3,-3,-1
1558440915533707,0,-3,-2,-2,-3,8,-4,-3
1558440915533707,-1,-1,0,-1,1,-6,-3,0
1558440915535702,-2,0,-2,-2,0,-4,-1,0
1558440915535702,-1,1,2,0,3,1,2,-1
1558440915540888,1,-1,-3,-5,-1,-5,-5,-3
1558440915540888,-1,0,1,5,-5,2,0,0
1558440915547669,-1,-1,0,3,11,15,5,2
1558440915547669,0,-1,-2,-3,3,0,0,-1
1558440915555647,-1,1,0,4,-9,-7,-1,1
1558440915555647,1,0,-1,0,0,-6,-2,-2
1558440915564656,-1,-2,-1,-2,-5,-7,-6,-3
1558440915564656,-1,-2,-3,-7,-3,5,4,-1
1558440915578588,-3,-2,-1,-2,-3,4,-2,-3
1558440915578588,-1,-1,0,2,1,-3,0,0
1558440915585568,-1,-1,-3,-3,-2,-2,1,-3
1558440915585568,-1,-1,-1,5,4,-3,-1,1
1558440915600529,0,-1,2,0,0,-2,-2,-2
1558440915600529,-3,-3,-10,-14,-10,0,-3,-4
1558440915607507,1,-1,0,2,4,-5,0,2
1558440915607507,-3,0,-2,-4,-8,-3,1,-2
1558440915630448,-2,0,2,1,10,4,1,1
1558440915630448,0,1,3,5,1,2,-1,0
1558440915640420,-3,-3,-2,-3,-6,-1,-4,-2
1558440915640420,0,0,-2,-4,1,-2,-2,-1
1558440915641420,0,-1,-1,0,-11,-4,0,-2
1558440915641420,-1,-2,-1,-3,2,-1,-3,0
1558440915645408,-1,-2,-2,0,0,-9,-2,-2
1558440915645408,0,-2,-4,-9,3,7,4,0
1558440915660367,-2,-2,-2,1,1,2,-1,-4
1558440915660367,-3,-3,0,0,-8,-4,-3,-2
1558440915667349,2,0,2,-3,-2,1,-1,-2
1558440915667349,-1,-2,-8,3,1,-3,-4,-3
1558440915684304,-1,1,0,-5,5,2,3,0
1558440915684304,-3,-3,-2,0,-6,-6,-4,-1
1558440915685304,-1,0,7,7,1,3,1,-1
1558440915685304,-1,-1,0,-5,0,0,0,1
1558440915699262,-1,-1,-6,-6,-5,1,-4,-2
1558440915699262,-1,0,1,2,2,2,-1,-2
1558440915705251,2,2,0,0,4,7,6,1
1558440915705251,-1,-2,1,1,0,-7,0,-1
1558440915721204,-1,-2,-3,-1,-7,-2,-2,-3
1558440915721204,0,0,1,1,-5,-7,-5,-3
1558440915727187,0,-2,-4,-3,2,6,3,-1
1558440915727187,0,0,-3,2,-1,-3,1,1
1558440915744144,-1,1,2,2,5,4,1,1
1558440915744144,-2,-2,1,-5,-3,1,-3,-2
1558440915745140,-3,0,-1,-2,1,3,-1,-2
1558440915745140,-2,-2,-8,-11,-11,-13,-6,-4
1558440915758106,-1,0,2,6,3,-1,1,0
1558440915758106,2,2,0,2,11,7,5,3
1558440915765087,-1,0,-1,-2,-1,-5,-3,0
1558440915765087,-1,-1,2,5,-4,0,-4,-2
1558440915781045,-4,-4,0,-3,-9,-10,-8,-4
1558440915781045,-1,1,-1,-3,2,10,8,1
1558440915788285,-4,-1,-1,9,6,3,-1,0
1558440915788285,-1,-2,-5,-12,-11,-8,-2,-1
1558440915803984,2,-1,-4,-12,-3,-8,0,-1
1558440915803984,-2,-2,-1,2,0,2,-2,-1
1558440915804982,-2,-3,-8,0,-7,-5,-3,-4
1558440915804982,-1,-3,7,7,2,4,0,0
1558440915818122,1,-1,-3,-2,-3,-9,-3,-2
1558440915818122,1,2,1,4,13,16,12,3
1558440915824966,1,-1,1,-3,-5,-4,-1,0
1558440915824966,0,0,3,8,1,-2,-3,-2
1558440915840885,-4,-1,-7,-13,-3,-4,-3,-3
1558440915840885,-1,-4,-2,2,-6,-3,-4,-1
1558440915847893,-4,-2,-4,-12,-6,-3,-6,-2
1558440915847893,-1,2,6,5,10,9,4,1
1558440915864820,-1,-2,2,4,-4,-3,0,-1
1558440915864820,-2,-2,-4,-4,-2,-4,-2,-1
1558440915865817,2,-1,-1,0,4,-7,1,1
1558440915865817,-1,-2,-1,-4,-5,-6,-1,-3
1558440915878785,1,0,2,4,1,5,-2,-2
1558440915878785,-1,-2,-8,-6,-3,-6,-2,-1
1558440915884790,-1,-1,-1,-1,-5,-5,-4,-1
1558440915884790,-3,0,0,1,-3,0,-1,0
1558440915900724,-1,1,4,3,4,6,0,1
1558440915900724,-1,-1,2,-2,-1,2,-1,-1
1558440915907706,0,-1,-3,-1,-4,-5,-2,-2
1558440915907706,-1,-1,-3,-3,-1,0,-1,-3
1558440915931858,-1,-2,-1,-1,6,12,7,-2
1558440915931858,-4,0,-1,0,-11,-15,-8,-5
1558440915932640,0,2,0,-1,2,8,2,1
1558440915932640,-3,-1,-1,-3,1,1,1,0
1558440915938623,0,1,1,3,2,-9,1,4
1558440915938623,-1,0,-2,1,-3,-2,-3,-3
1558440915945689,-1,-2,-2,-3,0,1,-1,-1
1558440915945689,1,-1,-3,-2,-2,2,-2,0
1558440915960564,0,0,0,3,0,-2,-4,-1
1558440915960564,-1,-3,-1,-4,-2,-3,0,1
1558440915967547,-1,-3,0,-4,-3,-6,-2,-3
1558440915967547,-1,0,1,2,-2,-1,1,-1
1558440915984521,-2,-2,-4,-1,2,-2,-2,0
1558440915984521,-3,-2,-2,-1,-8,-6,-4,-3
1558440915985498,-1,-3,1,0,-3,2,2,-2
1558440915985498,1,1,0,3,13,15,6,2
1558440915998463,-1,0,2,4,-4,-9,-2,1
1558440915998463,-2,-4,-3,-3,0,-3,-4,-3
1558440916005479,0,-1,-4,-5,-4,-9,-1,-1
1558440916005479,-1,-2,-6,-11,-9,-7,-6,-3
1558440916036361,-2,-3,-2,-3,-3,3,1,-3
1558440916036361,-1,-2,1,6,6,3,-2,-1
1558440916038356,-1,1,2,4,-4,-8,-1,-2
1558440916038356,-2,0,1,1,1,2,4,-1
1558440916044341,-1,2,-2,-2,5,5,4,0
1558440916044341,0,0,3,-1,-2,-1,3,0
1558440916045339,0,-2,-2,-4,-2,6,-3,-1
1558440916045339,-2,-2,2,-2,-5,-18,-9,-2
1558440916058458,-1,-1,0,1,-5,1,-7,-3
1558440916058458,1,1,-4,-6,5,2,4,2
1558440916065285,0,1,2,4,4,7,3,1
1558440916065285,-2,-1,-5,-6,-3,3,2,-1
1558440916081243,-3,-6,-2,4,-2,-7,-1,-2
1558440916081243,-1,0,-2,-10,0,4,-2,-2
1558440916087225,-2,-4,-6,2,-5,-7,-4,-4
1558440916087225,1,0,5,0,1,-1,0,2
1558440916104183,-1,0,2,-1,-1,-1,0,1
1558440916104183,1,-1,-5,-1,-4,-1,-5,-3
1558440916105178,-4,-3,-6,4,3,10,3,0
1558440916105178,1,-1,-2,-4,3,-1,-2,-2
1558440916117145,1,2,3,-2,-1,-2,-1,-2
1558440916117145,-2,0,1,11,1,-3,0,-1
1558440916126123,-3,-2,-4,-12,-3,0,-3,-3
1558440916126123,-4,-1,-4,2,-5,-5,-3,-1
1558440916149060,0,-1,-2,1,0,-2,2,1
1558440916149060,-1,0,1,-6,-3,1,-1,-1
1558440916150066,1,0,5,2,-2,-5,-4,-2
1558440916150066,1,0,2,4,3,8,3,3
1558440916164021,-2,-1,-5,-5,-5,2,0,-1
1558440916164021,0,-3,0,5,4,-1,0,1
1558440916165017,-1,1,-1,-4,1,-6,1,1
1558440916165017,-1,0,1,5,-3,-2,-4,-2
1558440916177984,0,-1,1,-2,-6,-2,-9,-5
1558440916177984,-1,0,-1,3,-3,1,2,-1
1558440916186958,-2,-5,-17,-23,-1,-2,0,0
1558440916186958,-1,3,10,5,1,2,-1,-1
1558440916208901,-1,-1,-11,-3,-4,-4,-2,-1
1558440916208901,-3,-4,-3,-4,-5,-4,-6,-3
1558440916210898,0,1,10,12,-1,-3,-2,-1
1558440916210898,0,-1,-9,-3,4,5,6,-1
1558440916223862,-3,-3,-4,-7,2,6,2,0
1558440916223862,0,1,3,6,-1,-11,-4,-1
1558440916225856,1,0,3,0,2,5,-1,-1
1558440916225856,-2,-1,-2,-11,-7,-6,-7,-3
1558440916252782,0,1,6,6,3,-2,2,2
1558440916252782,-3,-2,-4,-5,-1,0,-1,2
1558440916262757,0,0,-7,-4,-2,-1,1,0
1558440916262757,-1,-5,-4,-1,-6,-8,-6,-4
1558440916263755,0,0,0,1,5,9,2,0
1558440916263755,1,0,4,-2,-2,-8,-3,0
1558440916267743,-1,0,-2,-4,-1,-7,-1,-1
1558440916267743,-2,-5,-14,-4,-10,0,-2,-3
1558440916283700,-1,-2,3,0,1,-1,0,0
1558440916283700,1,0,6,4,4,3,2,0
1558440916285710,-1,3,4,7,0,3,-1,-3
1558440916285710,-2,-5,-8,-13,-5,-10,-5,0
1558440916297664,1,0,1,-1,-1,-2,-2,0
1558440916297664,0,-1,1,1,0,5,2,0
1558440916306643,1,1,5,9,7,2,2,1
1558440916306643,0,-1,0,-9,-6,-4,0,2
1558440916320601,0,-2,-4,-4,-6,2,-1,-2
1558440916320601,-1,-1,-5,-1,-1,-5,-5,-4
1558440916327589,-1,0,1,2,-1,-10,2,2
1558440916327589,1,0,7,11,5,1,2,1
1558440916343539,-3,-4,-7,-4,-6,-9,-8,-3
1558440916343539,-1,-2,-5,-12,-9,1,-1,0
1558440916350537,0,-1,-1,-3,0,9,1,0
1558440916350537,1,3,3,8,13,1,2,1
1558440916357502,0,1,2,2,1,-4,1,0
1558440916357502,-1,-3,-5,-10,-6,-2,-1,-3
1558440916366507,-3,-4,-2,0,-10,-5,-5,-5
1558440916366507,0,-2,0,-1,-2,1,-4,-2
1558440916380450,1,1,4,0,4,3,1,1
1558440916380450,-1,-1,-4,-2,-1,4,6,1
1558440916387424,0,-2,-2,1,-2,-6,-5,-1
1558440916387424,1,0,-3,-1,2,2,1,-2
1558440916410364,0,-1,2,2,0,0,1,-2
1558440916410364,-1,-1,-1,1,-3,0,-3,-1
1558440916419339,-5,-3,-6,-9,-5,-4,-4,-1
1558440916419339,-1,1,6,4,1,4,2,0
1558440916420334,-4,0,-2,-2,-1,-9,-3,-3
1558440916420334,1,3,5,9,6,4,-1,1
1558440916426318,-1,-3,-3,-6,-2,7,0,0
1558440916426318,-2,-3,0,0,-5,-2,-5,-4
1558440916441278,0,-2,-1,-1,-3,0,2,0
1558440916441278,-2,-4,0,1,-1,-11,-3,0
1558440916447264,0,0,3,9,0,-2,-4,-1
1558440916447264,-3,1,-3,-7,-5,1,-1,1
1558440916463223,0,0,-1,2,-5,-12,-5,-2
1558440916463223,-3,-1,-5,-3,2,9,1,-3
1558440916478182,-3,2,0,-2,4,0,0,1
1558440916478182,0,-2,2,11,3,-4,-2,-2
1558440916479178,-1,-1,-2,-6,-3,2,-2,-2
1558440916479178,-1,-1,-2,-2,3,3,2,0
1558440916486159,-1,0,1,4,4,5,2,-1
1558440916486159,-1,0,-1,2,-4,-11,-2,-1
1558440916501134,-5,-4,-16,-14,-7,-9,-5,-2
1558440916501134,0,0,2,3,-2,-2,-4,-3
1558440916507104,1,-2,-3,2,2,10,6,0
1558440916507104,-3,0,2,-1,2,3,1,0
1558440916539016,0,-2,-2,-9,-2,2,-3,-1
1558440916539016,0,2,5,5,-4,-8,-1,0
1558440916540015,-1,-1,-2,-5,-6,-11,-7,-5
1558440916540015,0,-2,-1,3,2,9,2,0
1558440916545999,0,1,2,5,2,-14,0,2
1558440916545999,-3,-2,-3,-8,5,5,2,0
1558440916547993,-2,-2,2,0,-2,3,1,-2
1558440916547993,-3,-2,-4,-3,-1,4,4,0
1558440916560958,0,0,2,4,2,3,3,2
1558440916560958,-4,-2,-5,-4,0,3,-2,-3
1558440916567939,1,2,4,3,-1,-4,-1,0
1558440916567939,-2,-3,-15,-12,-4,-9,-1,0
1558440916591876,-4,-3,-1,0,-4,8,-1,-2
1558440916591876,2,1,2,-1,-4,-7,-1,2
1558440916592872,-1,-2,0,2,8,7,4,0
1558440916592872,1,1,7,8,4,2,-2,-1
1558440916606839,-2,-3,-8,-7,-5,-2,-2,-2
1558440916606839,0,-1,1,-1,-1,4,2,-1
1558440916607836,1,-1,-2,-1,-2,-12,-6,0
1558440916607836,0,0,5,2,1,2,1,0
1558440916622796,1,-1,-5,-11,0,1,0,-2
1558440916622796,-2,-2,0,10,-8,-17,-8,-3
1558440916634760,-1,-2,-8,-17,-5,1,-1,-2
1558440916634760,-3,-2,-2,-1,-3,-4,-2,0
1558440916643737,-1,-1,-1,2,0,6,-1,-3
1558440916643737,-2,-1,-1,-2,0,-3,0,-1
1558440916649723,-1,0,1,-2,0,-5,-1,-1
1558440916649723,-1,-1,-2,-7,-10,-6,-2,-1
1558440916666676,-2,-2,-3,1,-2,3,-4,-1
1558440916666676,3,0,2,0,12,2,5,2
1558440916667676,-1,-1,1,0,1,0,1,0
1558440916667676,-2,1,-8,-6,-4,2,-4,-4
1558440916680638,-1,-1,6,1,0,-1,-3,1
1558440916680638,0,4,9,7,1,-6,-2,1
1558440916687624,-6,-8,-17,-8,-4,3,0,0
1558440916687624,-3,-2,-4,-6,-3,0,-3,-3
1558440916703582,-1,-2,-4,-3,-2,-7,-4,-2
1558440916703582,-3,-4,-4,-8,-6,0,-4,-3
1558440916710557,3,11,17,10,9,3,7,4
1558440916710557,-1,-6,-11,-3,-3,-7,-5,-3
1558440916726524,1,-1,0,-3,-4,0,1,-2
1558440916726524,-2,1,2,4,-1,7,0,-2
1558440916727516,-2,-3,-7,-5,-11,-7,-6,-3
1558440916727516,2,2,-1,-1,1,-4,1,0
