timestamp,emg1,emg2,emg3,emg4,emg5,emg6,emg7,emg8
1558440969934605,0,1,1,-3,2,4,-1,3
1558440969934605,2,-1,-5,-25,3,-3,6,2
1558440969935601,-2,-2,-2,17,-6,-1,-4,-2
1558440969935601,0,-1,0,0,3,8,2,0
1558440969945575,-2,-1,-5,-13,3,-3,2,-4
1558440969945575,-2,0,2,10,-8,-4,-1,0
1558440969946572,-1,-2,-4,-2,5,2,-5,-2
1558440969946572,-4,-2,0,-9,-4,-8,-2,-1
1558440969948567,1,3,5,9,10,4,7,2
1558440969948567,-2,-2,-1,5,-9,-8,-7,-3
1558440969952556,0,-2,1,-11,-5,1,-1,0
1558440969952556,1,-1,2,-4,9,15,7,1
1558440969953553,-2,-2,1,10,-5,-10,-3,-1
1558440969953553,0,1,-2,0,-4,2,-2,-1
1558440969983474,-1,-2,-5,-11,1,0,-3,-4
1558440969983474,-2,0,-4,5,-7,-10,-6,-1
1558440969984471,0,-1,0,0,-4,-1,0,0
1558440969984471,-3,-2,0,-4,4,3,-1,1
1558440969985468,-3,-1,-2,-3,-3,-5,-1,-1
1558440969985468,-1,0,0,8,-4,2,-1,-1
1558440969996439,0,-3,-4,-5,1,0,-2,-2
1558440969996439,0,0,0,-3,-1,2,0,-2
1558440970004417,1,0,1,5,5,5,4,3
1558440970004417,-1,-2,-4,-9,-2,0,0,-4
1558440970012396,-2,-4,-1,-4,-5,-6,-7,0
1558440970012396,-1,-3,-5,1,0,-2,-4,-2
1558440970043314,-2,1,2,2,2,2,-1,0
1558440970043314,0,-2,-1,-4,-5,0,2,-1
1558440970044312,1,2,-2,5,-3,-4,1,0
1558440970044312,-1,1,-3,-5,4,1,0,-1
1558440970045308,-2,-1,0,-2,-1,-3,-2,-2
1558440970045308,-2,-1,-2,-2,-1,-2,-1,-2
1558440970089191,-2,-1,2,-5,-6,-3,-4,-2
1558440970089191,1,-2,-9,-24,-3,-9,-3,-2
1558440970095174,0,-2,1,20,3,-6,-5,-1
1558440970095174,0,-2,-3,-4,0,-3,-2,3
1558440970096172,-3,-2,1,-16,-7,-4,-2,-3
1558440970096172,-3,2,3,16,-1,2,-2,-3
1558440970097169,-2,0,-1,-6,-3,10,1,1
1558440970097169,0,1,1,-6,5,7,7,1
1558440970101159,2,-1,0,4,3,2,2,-3
1558440970101159,-4,-3,1,13,-5,-8,-6,-1
1558440970109137,-1,0,-2,-18,-3,1,-1,0
1558440970109137,-1,-4,-2,-7,-9,-8,-9,-7
1558440970116118,-2,1,-5,11,0,-4,3,3
1558440970116118,1,-1,3,-2,0,2,-1,-2
1558440970131078,0,-2,-3,-9,6,7,4,0
1558440970131078,1,2,3,9,-11,-17,-3,0
1558440970146038,-3,-2,-2,-1,6,7,-1,-2
1558440970146038,-1,-1,4,-8,-3,-3,0,-1
1558440970154017,-1,-1,-8,-6,-12,-12,-3,-3
1558440970154017,-2,-2,-1,1,-1,8,0,-1
1558440970160997,0,-1,3,0,6,2,-4,1
1558440970160997,-1,0,-6,-5,-1,-4,-4,-3
1558440970168977,1,1,5,8,2,1,4,2
1558440970168977,-2,-1,-3,-7,1,2,1,-2
1558440970175959,1,-3,-1,-2,-4,-2,-1,-2
1558440970175959,-1,-3,-3,-3,-3,3,1,-2
1558440970191915,-2,-2,0,0,-3,-11,-7,-2
1558440970191915,1,2,0,1,5,2,2,1
1558440970197900,0,-1,-1,0,5,-6,1,1
1558440970197900,-2,0,-4,-2,-4,-7,-3,0
1558440970213857,-1,-4,-5,-4,0,1,-5,-3
1558440970213857,-2,-4,0,1,-3,3,-2,-6
1558440970220838,-3,-1,3,0,-10,-7,-3,-1
1558440970220838,1,0,-6,-1,8,1,4,3
1558440970228817,0,1,0,-6,-2,0,3,-1
1558440970228817,-1,0,-1,2,1,2,-7,-2
1558440970243777,-1,-1,-6,-4,-7,-2,0,-1
1558440970243777,1,2,5,1,4,2,6,3
1558440970251755,-2,-2,0,2,-2,-2,-5,-2
1558440970251755,1,0,0,0,3,-4,-1,1
1558440970258738,0,-1,-1,-6,-2,3,-2,-1
1558440970258738,-4,-2,0,0,-2,6,1,-1
1558440970273697,-1,1,1,6,3,4,1,1
1558440970273697,-3,-3,-5,-8,-3,-2,-3,-2
1558440970280678,2,1,-5,-2,0,-12,-2,-2
1558440970280678,1,-2,1,-3,-1,1,-1,-3
1558440970288657,-2,-1,3,1,-1,3,2,-3
1558440970288657,-2,-1,-4,-2,-7,-6,-3,-1
1558440970303616,6,5,4,9,19,4,10,8
1558440970303616,-2,-1,2,-2,-7,-7,-5,-2
1558440970311595,-1,-2,-7,-2,7,5,3,-2
1558440970311595,-1,-2,2,-2,-9,-4,-3,-2
1558440970318576,-3,-4,-4,-1,-4,2,-7,-7
1558440970318576,0,-1,5,6,7,8,7,1
1558440970333539,0,-1,0,-3,1,-4,1,2
1558440970333539,-1,0,-1,0,4,-1,2,2
1558440970340520,1,0,1,0,-5,-6,-4,0
1558440970340520,1,-2,-5,-2,-4,4,-5,-3
1558440970348498,-1,-2,0,4,-5,-3,-5,-3
1558440970348498,-3,-3,-5,-7,-4,-2,-1,-3
1558440970363456,-3,-2,-3,-6,-3,7,-2,-4
1558440970363456,-2,0,-1,3,-4,-10,-1,0
1558440970371435,2,3,4,1,11,-1,6,1
1558440970371435,1,0,3,3,-1,-1,-3,-1
1558440970378418,-2,-1,-9,-7,-6,4,-2,-4
1558440970378418,0,1,-2,1,-3,2,1,0
1558440970394374,-3,-2,-4,-4,-4,-6,-5,-1
1558440970394374,-1,1,6,4,-1,-2,-1,0
1558440970400359,-3,-3,-2,0,2,5,-2,-1
1558440970400359,-2,-3,-6,-6,-6,-3,-7,-4
1558440970408336,4,2,4,-1,3,-4,9,5
1558440970408336,3,2,3,11,13,-1,2,-1
1558440970424297,-2,-2,-4,-10,-9,-7,-7,-3
1558440970424297,0,-3,-2,-5,-3,-4,-3,0
1558440970431277,-3,-3,-3,-6,-11,4,-6,-4
1558440970431277,-2,-4,-3,0,4,14,7,1
1558440970438257,1,5,6,7,8,-7,4,5
1558440970438257,-1,0,-4,-2,-1,7,-1,-2
1558440970454214,-1,-1,2,2,-5,-8,-8,-5
1558440970454214,-3,-3,-4,-5,-5,-4,-4,-2
1558440970461196,-2,-4,0,-1,-4,-6,0,-2
1558440970461196,-2,1,-3,1,8,6,5,3
1558440970468177,-2,-2,-1,-1,-2,4,1,0
1558440970468177,-4,0,-2,-4,-2,-2,-2,-5
1558440970483148,1,0,4,2,-2,0,-2,-2
1558440970483148,2,-1,1,2,-1,-2,-6,-2
1558440970491115,-1,-1,-2,1,4,7,2,0
1558440970491115,-2,-2,-5,-6,-1,-5,-1,0
1558440970500091,-3,-3,-1,1,-7,0,0,-3
1558440970500091,0,1,3,-4,2,-8,1,0
1558440970514054,1,0,-3,-6,-5,-13,-8,-3
1558440970514054,3,1,1,2,-4,-2,-2,2
1558440970521036,2,-1,3,4,0,2,0,1
1558440970521036,0,-2,-2,-3,-4,-1,-4,-4
1558440970528023,0,-2,2,2,6,-1,3,0
1558440970528023,-3,-3,-12,-8,-6,-5,-2,-1
1558440970542979,-1,-1,-4,-2,-4,-3,-3,-2
1558440970542979,1,0,0,-1,2,2,-1,0
1558440970551954,-4,-4,0,1,-8,-1,-3,-2
1558440970551954,0,-1,-2,-6,-1,2,0,-1
1558440970559933,1,1,4,2,1,3,2,-2
1558440970559933,0,-1,-3,2,-2,-8,-5,0
1558440970573895,-3,-5,-6,-13,-11,-1,-5,-4
1558440970573895,-2,-3,-5,-2,0,5,5,2
1558440970580876,3,3,2,6,16,8,9,5
1558440970580876,-1,-3,2,-6,-7,-15,-4,-2
1558440970587856,-1,0,-6,-2,-2,4,2,0
1558440970587856,-3,-2,2,-1,-1,3,-4,-5
1558440970602819,-2,-2,-4,-3,-6,0,-5,-2
1558440970602819,-1,-3,1,0,1,3,1,1
1558440970611794,3,0,-1,0,-3,0,-3,-2
1558440970611794,1,0,4,5,5,-3,0,1
1558440970618787,2,0,6,4,3,2,0,1
1558440970618787,-1,-1,-8,-11,0,-1,-1,-1
1558440970633734,0,0,-2,-1,2,7,2,0
1558440970633734,1,-1,-2,1,-2,-5,-6,-2
1558440970640716,-4,-2,-2,-5,5,6,3,-1
1558440970640716,0,1,1,2,2,5,3,1
1558440970648693,-1,-1,2,2,2,-6,-6,-2
1558440970648693,1,-1,3,1,-4,0,0,-2
1558440970663654,-2,-2,-4,-4,-4,-5,-3,0
1558440970663654,-1,-1,-2,0,3,2,4,2
1558440970671632,-3,0,-1,-5,0,-2,-1,0
1558440970671632,1,1,3,2,-3,-4,-4,0
1558440970685597,-1,-2,-2,4,2,-6,-2,-3
1558440970685597,-3,-1,1,0,-2,0,-1,-3
1558440970693576,-2,-1,-2,1,1,3,0,-1
1558440970693576,-1,-1,1,0,-7,-12,-3,-2
1558440970700556,0,0,-3,-3,0,-1,1,-2
1558440970700556,-1,0,0,-1,1,5,3,0
1558440970708534,-1,-1,1,-2,-2,-6,-3,0
1558440970708534,-3,-1,-5,-2,-5,-8,-2,-3
1558440970723495,2,1,1,-1,0,2,1,1
1558440970723495,1,1,3,-1,7,-3,0,0
1558440970731474,-1,1,-2,-1,-7,0,-1,-4
1558440970731474,1,1,-1,-1,6,9,6,3
1558440970738454,-2,-1,1,3,-4,-4,-4,-1
1558440970738454,-2,-3,-9,-8,-5,-8,-5,-1
1558440970754411,0,0,1,1,2,3,0,0
1558440970754411,-2,-1,-1,-1,0,4,-1,-2
1558440970760396,-3,-2,-2,-5,-8,-5,-7,-2
1558440970760396,-1,0,2,6,-5,-3,-1,-1
1558440970768375,-1,-3,-1,-4,3,-9,-1,-1
1558440970768375,-1,0,1,0,4,5,7,0
1558440970783334,0,0,-1,0,2,0,2,-3
1558440970783334,-1,0,2,0,4,7,0,-1
1558440970791312,-1,0,-5,-1,-4,-5,-5,-2
1558440970791312,-4,-4,-1,-3,-9,-8,-13,-4
1558440970798294,-2,-2,-3,-3,-4,4,0,-1
1558440970798294,1,1,1,0,0,-5,1,1
1558440970814251,-3,-2,1,3,-1,2,1,-1
1558440970814251,0,-1,0,-2,2,-2,0,-2
1558440970821233,-2,-2,-1,-7,-7,-4,-1,-2
1558440970821233,-1,-3,-1,-3,-3,-6,-5,-1
1558440970828215,0,2,4,3,5,6,4,3
1558440970828215,-1,0,4,1,0,4,0,-1
1558440970843174,-3,-3,-6,-6,-8,3,-4,-4
1558440970843174,-1,-2,0,4,-3,3,4,-1
1558440970851152,0,-1,1,-1,-1,-9,0,1
1558440970851152,-3,-2,-7,-5,-1,-1,-5,-3
1558440970858134,1,-3,0,-3,-7,-16,-5,-2
1558440970858134,0,0,3,6,6,9,4,2
1558440970874091,0,0,-2,-2,0,-5,0,-2
1558440970874091,1,1,3,0,2,-5,-2,0
1558440970881073,0,-1,-1,3,4,-1,-2,1
1558440970881073,-3,-3,-4,-4,-7,-3,-10,-4
1558440970896033,0,1,4,3,-3,-3,2,0
1558440970896033,-1,-1,-6,-2,-1,3,0,-1
1558440970911990,-5,-4,-8,-6,-9,-5,-6,-2
1558440970911990,-1,-3,-1,0,7,6,4,-1
1558440970912987,2,-1,0,0,3,8,3,0
1558440970912987,1,-1,4,2,-3,-8,-3,-1
1558440970925953,1,-1,-3,-5,-8,-6,1,-1
1558440970925953,-1,0,-2,-2,4,1,-2,-4
1558440970933941,-2,-4,-3,-2,-10,-1,-8,-5
1558440970933941,-2,0,-1,-1,15,19,10,3
1558440970940918,3,3,5,3,11,-12,4,2
1558440970940918,-2,-1,-1,0,-9,-9,-5,-3
1558440970956871,-2,-1,1,1,8,-1,3,2
1558440970956871,-1,-2,-3,-2,0,-3,-2,-2
1558440970962855,-2,-1,2,-1,-2,10,0,1
1558440970962855,-3,-2,1,3,-10,-8,-8,-3
1558440970971834,-1,-2,-7,-6,-3,1,-1,0
1558440970971834,1,0,1,0,-4,-11,1,0
1558440970978813,-2,2,2,4,6,1,3,1
1558440970978813,-1,-1,-6,-5,-3,2,0,-1
1558440970993773,0,-1,-3,-3,-5,1,-5,-4
1558440970993773,-2,-3,-4,-1,-4,-9,-5,-2
1558440971000753,1,2,3,5,3,4,5,2
1558440971000753,0,0,2,-2,0,-3,0,2
1558440971016714,0,-1,-2,0,7,7,4,1
1558440971016714,-1,-5,-5,1,-3,1,-3,-2
1558440971023696,-2,-6,-1,-5,-8,-1,-9,-6
1558440971023696,-3,-2,-3,-2,-2,-1,1,-1
1558440971031673,1,2,6,3,3,2,6,3
1558440971031673,0,1,3,1,3,0,-2,0
1558440971038657,-1,-2,-6,-4,-3,0,-3,-1
1558440971038657,1,0,-1,-3,-2,-4,0,1
1558440971053615,-3,-3,-3,-4,-9,-6,-7,-3
1558440971053615,-2,-1,1,-5,-6,-4,-3,0
1558440971062590,0,1,2,1,5,2,2,1
1558440971062590,1,0,-2,-2,4,11,7,-2
1558440971084530,-1,-3,-1,-1,-1,-6,-6,-3
1558440971084530,1,1,-1,0,2,0,-1,-2
1558440971086528,-2,-2,-3,0,-8,0,-5,-6
1558440971086528,-2,1,-7,-3,-3,-5,-5,-2
1558440971099498,-1,2,1,1,0,-6,5,1
1558440971099498,1,0,0,-3,-2,-2,-5,-1
1558440971101485,-1,0,1,1,-2,1,1,0
1558440971101485,1,-1,1,1,0,3,2,0
1558440971113452,-2,-2,-2,-4,-1,1,-6,-5
1558440971113452,-4,-3,-7,-3,-9,-9,-4,-1
1558440971122429,0,3,4,4,11,5,3,2
1558440971122429,-1,1,-1,-5,-3,-2,0,2
1558440971136510,-1,-1,-2,1,0,-6,0,1
1558440971136510,-1,-1,-1,-2,-4,2,0,-2
1558440971143373,0,0,-2,1,3,9,2,-1
1558440971143373,-5,-3,-4,-7,-6,-12,-7,-3
1558440971159329,-2,-1,-1,0,-5,2,0,-1
1558440971159329,1,0,4,-3,7,7,3,0
1558440971165312,-1,-2,-4,-3,-3,-1,-2,-1
1558440971165312,2,1,3,6,2,-2,0,1
1558440971173297,0,-2,-1,-4,-1,-11,-4,-2
1558440971173297,-1,0,-1,-2,-1,2,3,0
1558440971182268,-3,-1,0,-1,-3,-3,-2,-1
1558440971182268,-2,-2,0,-2,5,8,1,-1
1558440971197228,-1,-2,-2,-1,-4,-6,-5,-2
1558440971197228,0,1,-2,0,0,-4,0,1
1558440971203217,-1,-3,-3,-3,-4,0,-1,-1
1558440971203217,0,1,0,2,3,-3,-1,1
1558440971218193,-2,-1,-1,0,-6,3,-2,-4
1558440971218193,-3,0,-3,-5,-3,0,-2,-1
1558440971226150,-1,-1,0,-2,8,7,8,1
1558440971226150,-2,-2,-1,-1,-5,-14,-5,-2
1558440971241120,-2,0,-3,1,-3,0,2,3
1558440971241120,0,-2,3,0,4,0,-1,-1
1558440971242109,-4,-5,-4,-5,-5,-5,-7,-4
1558440971242109,0,-3,0,-1,-3,0,-3,-2
1558440971257068,0,-1,0,0,2,8,5,0
1558440971257068,-2,-5,-8,-3,-4,-13,-1,-2
1558440971263058,1,1,0,-3,-4,-8,-2,1
1558440971263058,-2,0,-1,2,-1,6,1,-1
1558440971279029,0,-2,-1,-5,-3,-10,-6,-1
1558440971279029,2,3,3,4,2,2,0,0
1558440971286093,-2,-1,-3,4,8,3,0,-1
1558440971286093,-2,-2,-2,-4,-7,-4,-4,-4
1558440971302945,1,3,-1,-3,5,7,4,3
1558440971302945,-6,-3,-2,2,-6,-3,-8,-4
1558440971307978,-2,-4,-2,-1,-7,-5,-2,-2
1558440971307978,1,1,3,-1,4,-6,2,2
1558440971316908,-3,-2,-3,0,-4,-1,-2,-1
1558440971316908,2,-2,-1,0,10,8,2,3
1558440971322891,-2,-2,-3,-6,-6,-4,-6,-2
1558440971322891,0,-2,0,-2,-3,4,0,-3
1558440971338850,-1,1,0,2,1,-5,-2,-3
1558440971338850,-2,0,6,4,-4,-3,-3,0
1558440971354805,0,-1,-1,-2,0,4,2,-1
1558440971354805,-1,-4,-9,-3,-6,-4,-5,-3
1558440971361788,0,-2,-1,-3,1,0,1,-2
1558440971361788,-2,0,-2,-4,-2,1,3,0
1558440971361788,-2,-1,1,-1,-4,-8,-3,-1
1558440971361788,0,1,3,4,2,7,4,4
1558440971376747,-2,0,-1,-1,4,6,0,-2
1558440971376747,-2,0,-1,-2,-4,0,-2,-3
1558440971382731,1,0,1,3,-3,-7,-3,-2
1558440971382731,0,-3,-1,-5,-2,-1,-7,-3
1558440971398687,-2,-3,-3,-6,-7,1,-6,-4
1558440971398687,0,1,0,1,2,-2,0,0
1558440971414783,2,2,2,5,6,-1,4,4
1558440971414783,2,1,0,-4,5,6,6,1
1558440971421632,-2,-1,3,1,-4,-4,-3,1
1558440971421632,-1,-1,-4,-3,-3,4,0,-3
1558440971422632,-2,-2,-5,-3,-4,-2,-5,-3
1558440971422632,-3,1,2,-2,-6,-11,-6,-2
1558440971437586,0,0,0,2,6,9,5,1
1558440971437586,-1,-1,0,-2,2,-3,-2,0
1558440971443569,-2,-3,-1,-2,-3,-2,-5,-4
1558440971443569,-1,0,-1,3,0,8,6,1
1558440971466510,0,0,0,1,5,-11,-2,2
1558440971466510,-2,-2,1,-1,-8,-4,-4,-1
1558440971467506,-1,-1,1,-6,-7,-10,-5,-4
1558440971467506,-2,-2,-3,1,4,10,2,0
1558440971481569,1,-1,-7,-4,1,6,3,0
1558440971481569,2,1,0,3,5,2,3,2
1558440971482467,-3,-2,-3,-5,-4,-1,-2,-3
1558440971482467,-3,-2,1,-1,-10,-6,-6,-1
1558440971497430,0,1,3,2,2,-2,1,-1
1558440971497430,-3,-2,-5,1,-5,-5,-4,-2
1558440971503421,0,-1,-7,-9,-1,2,0,0
1558440971503421,0,-2,-4,0,-2,-1,0,-3
1558440971526349,0,0,3,-1,5,0,-1,0
1558440971526349,-1,-4,-2,-1,-4,-2,-2,-2
1558440971527366,1,1,3,3,6,11,6,2
1558440971527366,-1,0,-2,-3,-4,-6,-2,-2
1558440971541546,-1,0,-1,2,0,-4,-3,-3
1558440971541546,-3,0,1,-3,-10,-7,-8,-4
1558440971542318,-1,-1,-2,-3,-7,0,3,2
1558440971542318,0,1,2,6,12,0,1,0
1558440971557266,-2,-2,-3,-4,3,-3,6,0
1558440971557266,-1,-2,-2,-3,-5,0,-1,-3
1558440971563249,-2,-2,-1,0,-2,-3,-8,-3
1558440971563249,-3,-3,-2,-2,-15,-15,-11,-3
1558440971578211,1,1,4,1,4,14,4,1
1558440971578211,-2,-2,-2,1,7,-1,6,1
1558440971586189,-1,1,-3,-1,-2,-3,-2,0
1558440971586189,-2,-3,-4,-6,-1,2,1,-2
1558440971601146,0,0,-1,-2,-11,-8,-5,0
1558440971601146,-1,0,1,2,6,13,4,4
1558440971602144,-2,-1,0,1,-3,-12,-5,-1
1558440971602144,2,2,6,0,8,4,9,3
1558440971617106,0,-1,-1,-2,-10,-7,-9,-1
1558440971617106,1,-2,-4,-3,-5,-1,-4,-4
1558440971623114,-2,-1,-2,1,0,0,0,-2
1558440971623114,-1,1,0,-3,2,-6,1,-1
1558440971638369,-1,-6,-9,-4,-11,3,-2,-3
1558440971638369,0,1,3,0,-3,-7,-5,-2
1558440971646350,-2,-3,-3,-7,-6,3,0,-2
1558440971646350,-2,-3,0,5,8,4,-1,-2
1558440971662178,-6,-3,-5,-3,-5,-2,-1,0
1558440971662178,2,3,0,-1,3,-7,2,3
1558440971662178,1,1,2,2,-7,-11,-1,-1
1558440971662178,2,0,3,2,4,9,5,2
1558440971676944,0,-1,3,-2,4,-1,-4,-1
1558440971676944,-2,-2,-4,-4,-9,-5,-3,-2
1558440971692190,-2,-4,-1,1,-1,3,-3,-3
1558440971692190,0,-3,-6,-1,-8,-12,-9,-1
1558440971699024,-1,-1,-2,-1,1,15,6,0
1558440971699024,0,-1,4,7,15,6,7,2
1558440971706164,0,-1,0,-3,6,4,2,-2
1558440971706164,-2,-3,-2,-5,-4,-3,0,1
1558440971722079,0,0,1,-2,-11,-19,-5,-4
1558440971722079,-1,-3,-4,-3,-4,-1,-3,-2
1558440971722079,0,0,-4,-1,-1,-2,-1,-2
1558440971722079,-1,1,0,0,2,2,-4,-3
1558440971737787,-3,-4,-8,-3,0,1,-3,-4
1558440971737787,-2,-1,0,-1,-1,-1,0,0
1558440971743771,3,4,4,5,9,8,10,5
1558440971743771,-3,-5,-2,-2,-2,2,0,0
1558440971758726,-4,-2,-1,-3,-4,-7,-6,-4
1558440971758726,0,-2,-2,-4,-9,-19,-10,-4
1558440971765708,-3,-4,-6,-3,0,8,-2,-3
1558440971765708,-2,0,1,1,-7,-8,-3,-1
1558440971781666,4,1,1,2,8,4,9,4
1558440971781666,-3,-2,-2,-2,-3,6,0,-1
1558440971783657,0,1,-2,-1,-4,-10,-6,1
1558440971783657,-1,-2,-2,-3,-7,-4,-9,-5
1558440971803607,-4,-3,-2,-7,-14,-6,-8,-4
1558440971803607,2,2,3,5,17,13,10,3
1558440971804602,0,-2,-1,2,5,-5,4,1
1558440971804602,-1,-3,-1,-5,-6,5,0,-4
1558440971819563,-3,-4,-5,-1,-9,-14,-17,-6
1558440971819563,1,2,1,2,-1,18,9,4
1558440971825545,1,2,6,2,6,-4,2,3
1558440971825545,-3,-3,-5,-8,-9,-8,-9,-4
1558440971841979,1,1,2,9,2,6,8,3
1558440971841979,-2,-3,-2,-5,6,2,-5,-2
1558440971842500,-3,-2,-2,-5,-6,-5,-3,-4
1558440971842500,-2,-1,-7,3,1,-7,3,1
1558440971864802,-2,0,-1,-8,-9,-10,-10,-5
1558440971864802,-1,0,-2,0,1,1,2,-2
1558440971864802,-1,0,3,4,5,7,1,1
1558440971864802,-1,0,1,-2,-7,-4,-5,-3
1558440971879689,-2,0,-1,3,6,7,9,1
1558440971879689,-3,-3,-4,-5,-3,-4,-3,-2
1558440971886571,0,-1,-3,-3,-5,-5,-4,-3
1558440971886571,-1,-1,-1,-1,5,3,3,2
1558440971917304,-1,1,2,1,5,-5,-1,-1
1558440971917304,1,0,5,3,0,5,2,1
1558440971918299,-2,-3,-9,-3,0,6,-2,-3
1558440971918299,1,-1,-1,2,1,-1,1,-1
1558440971924282,1,-2,-2,-2,4,8,6,1
1558440971924282,-3,-2,-5,-5,-6,-8,-7,-2
1558440971924282,-1,-1,3,3,-5,-1,1,1
1558440971924282,-1,-2,-3,-5,4,8,0,-1
1558440971939242,-2,1,1,3,-2,-1,1,1
1558440971939242,0,1,3,-3,-2,-6,-4,-2
1558440971946222,-2,-2,-1,-3,-4,0,-1,-5
1558440971946222,2,0,1,1,-2,-3,0,1
1558440971969162,-2,-3,-5,-3,9,6,0,0
1558440971969162,-4,-4,-7,-5,-14,-6,-8,-3
1558440971969162,-1,0,0,1,3,-2,-3,-2
1558440971969162,-2,-2,2,1,5,-5,-2,0
1558440971977140,0,0,1,-3,-1,4,0,1
1558440971977140,0,-2,-1,1,1,-1,-1,-1
1558440971983547,-2,-5,-1,1,-4,1,-7,-3
1558440971983547,-1,0,-2,-3,-3,1,1,0
1558440971998462,-2,-4,-6,-8,-7,-7,-5,-4
1558440971998462,-1,1,0,2,-1,2,0,-2
1558440972006461,-2,2,3,0,-3,-11,-1,0
1558440972006461,2,1,5,2,0,5,2,1
1558440972022189,-1,-3,-4,2,6,1,-1,-3
1558440972022189,0,-2,-6,-5,-7,-7,-6,-4
1558440972022189,0,-3,-2,-1,4,5,3,-1
1558440972022189,-4,-3,-4,-4,-11,-9,-2,-3
1558440972037163,0,1,7,10,5,8,4,3
1558440972037163,1,0,-3,-10,1,-6,-3,-2
1558440972042966,-2,-1,1,-3,-6,-4,-3,-1
1558440972042966,-1,2,-2,3,11,15,3,1
1558440972058196,0,-1,-1,-5,-11,-15,-8,-2
1558440972058196,0,0,4,7,1,5,5,1
1558440972066191,1,-3,-1,-4,3,-2,-1,1
1558440972066191,-1,-2,-4,-2,-7,2,-3,1
1558440972083856,2,4,4,3,18,0,9,5
1558440972083856,-3,-2,-1,0,-4,-6,-4,-4
1558440972084855,-3,-2,-2,0,-7,-6,-4,-2
1558440972084855,-1,0,0,-3,2,1,-2,-2
1558440972103869,-4,-1,-4,-3,-9,2,-2,-2
1558440972103869,-1,-1,0,3,4,0,2,0
1558440972104802,0,0,-1,-1,0,2,-1,1
1558440972104802,2,0,-2,-3,1,-3,-3,-2
1558440972118950,-2,-2,-2,-1,-8,-5,-6,-3
1558440972118950,-1,0,-1,0,7,2,3,4
1558440972125757,-1,0,0,-3,-1,0,0,2
1558440972125757,-1,-4,-1,1,-2,-5,-2,-3
1558440972140935,-2,-3,-2,-4,-13,-10,-9,-5
1558440972140935,2,-2,3,2,1,2,4,1
1558440972148857,2,4,3,5,16,16,9,5
1558440972148857,-2,1,-2,-5,0,1,2,0
1558440972157671,-2,-2,-3,-7,-15,-17,-10,-5
1558440972157671,-2,0,-5,-2,-5,-2,-1,-3
1558440972163682,2,-2,1,3,-2,-11,-1,-1
1558440972163682,-1,-1,2,0,4,10,7,3
1558440972179602,-1,-2,-4,-2,-2,7,-1,-3
1558440972179602,-1,-2,-1,-2,-6,-7,-8,-4
1558440972194560,-1,-2,-2,-2,-2,-4,-3,-1
1558440972194560,0,0,1,5,-1,-7,-1,-1
1558440972200791,-1,-4,-2,-5,-2,-3,-4,-1
1558440972200791,-2,0,0,-1,-4,3,-1,0
1558440972208521,-2,-1,2,2,1,4,0,-2
1558440972208521,-1,-1,5,-1,0,-10,-2,-2
1558440972223512,-4,-3,-9,-2,-1,4,2,0
1558440972223512,0,0,-2,-1,1,0,1,1
1558440972224479,-4,-4,-6,-9,-8,-4,-6,-3
1558440972224479,1,-1,2,2,-3,0,-3,-1
1558440972239790,0,0,3,2,-2,-8,0,0
1558440972239790,0,-1,-1,-5,-4,4,-1,-1
1558440972246497,0,1,3,3,6,3,2,-2
1558440972246497,-2,-2,-4,0,1,4,1,-2
1558440972260384,0,1,2,0,5,5,3,2
1558440972260384,-2,-2,-1,-5,-11,-12,-6,-3
1558440972268712,0,0,1,3,3,8,4,1
1558440972268712,-2,-2,-6,-8,-4,-6,-3,0
1558440972284661,0,-1,-4,-4,-2,1,-5,-3
1558440972284661,-1,-1,2,4,2,-4,1,0
1558440972284661,-3,-3,-6,-2,-7,-8,-8,-5
1558440972284661,-2,0,2,1,7,7,1,0
1558440972299292,1,-1,2,1,3,-2,5,3
1558440972299292,-2,-2,-1,2,3,3,0,1
1558440972306485,-1,0,-1,-3,-4,1,-3,-3
1558440972306485,1,2,-4,-6,-5,-6,2,2
1558440972321438,-4,-3,-3,4,4,5,-3,-3
1558440972321438,-2,-1,2,-3,3,3,-1,-1
1558440972328212,0,-3,0,-1,-4,-1,1,-2
1558440972328212,-2,-1,-3,3,2,-6,-6,-2
1558440972344165,0,0,6,0,4,2,5,4
1558440972344165,-3,-4,-9,-8,-6,-6,-4,-5
1558440972344165,-3,-3,-4,-2,-11,-8,-6,-4
1558440972344165,0,-2,0,3,4,3,1,0
1558440972360118,-1,-4,-2,-2,-4,-3,-6,-4
1558440972360118,4,2,2,4,4,7,9,3
1558440972366107,-1,-1,-1,0,10,4,3,1
1558440972366107,-3,-3,-5,-7,-11,-8,-7,-2
1558440972381064,-1,0,1,0,-2,-7,-1,-2
1558440972381064,-1,0,-1,2,3,5,2,1
1558440972388055,1,2,2,3,11,12,4,2
1558440972388055,-2,-1,-4,-3,-8,-9,-7,-4
1558440972404202,-1,0,-2,-1,-4,9,-4,-3
1558440972404202,0,2,2,-4,-2,-8,2,2
1558440972410981,-4,-3,-5,-6,-1,-11,-4,1
1558440972410981,0,-1,2,0,-3,-6,-1,0
1558440972419958,1,0,-2,6,12,14,7,1
1558440972419958,-4,-1,-1,-1,-5,3,-4,-4
1558440972425945,-1,0,-2,-6,-11,-13,-2,-2
1558440972425945,0,-3,-2,-3,-5,-5,-4,-2
1558440972440903,3,1,5,3,8,0,9,5
1558440972440903,-3,-1,-2,-1,4,1,-4,-2
1558440972448992,-3,-3,-4,-5,-17,-10,-13,-4
1558440972448992,-2,3,5,0,-1,8,7,2
1558440972472176,2,3,5,2,10,7,6,4
1558440972472176,-2,-2,-4,-2,-6,-5,-2,-3
1558440972472176,-1,-2,-2,-1,-5,-2,-4,-3
1558440972472176,0,-4,-1,1,-6,-11,-5,-3
1558440972479886,-1,-1,-1,-5,2,6,-1,-3
1558440972479886,-1,-1,-5,-2,1,-1,-2,0
1558440972486105,0,0,1,0,0,9,4,1
1558440972486105,-1,-1,-1,1,7,3,0,2
1558440972500744,0,-1,-2,-2,-6,-12,-3,-2
1558440972500744,0,0,4,4,1,1,-3,-1
1558440972508750,0,-2,-8,-5,-1,1,1,-3
1558440972508750,-1,1,0,0,1,4,5,-2
1558440972523904,-3,-3,-3,-2,-9,-3,-7,-3
1558440972523904,4,4,1,1,13,3,8,4
1558440972530871,-1,1,-2,-1,0,3,2,0
1558440972530871,-1,-1,1,0,-1,0,-5,-3
1558440972539683,-5,-2,-4,-6,-8,-6,-5,-3
1558440972539683,-4,-6,-8,-5,-9,-2,-7,-4
1558440972545663,0,0,3,1,-2,-12,-5,-1
1558440972545663,0,0,1,3,5,5,2,1
1558440972560581,0,-1,-3,-4,-5,-1,-1,-1
1558440972560581,-1,0,1,1,9,8,6,2
1558440972568575,-2,-1,-2,1,1,-1,-1,-2
1558440972568575,0,-2,0,-4,-11,-6,-4,-2
1558440972585531,0,-1,0,1,1,8,1,0
1558440972585531,-3,-5,-3,-1,-1,-1,-6,-3
1558440972586513,0,-3,-1,0,-11,-11,-2,0
1558440972586513,1,1,2,-1,12,7,1,-1
1558440972599481,-1,0,-2,-2,-7,-6,-3,-3
1558440972599481,0,-2,-1,3,1,-2,2,-1
1558440972606498,-4,1,2,2,4,6,1,-2
1558440972606498,-3,-3,-5,-6,-3,-7,-3,-2
1558440972621577,-2,0,3,4,0,0,-2,-1
1558440972621577,-2,-2,-6,-11,-11,-4,-4,-2
1558440972636712,0,0,0,-2,-1,1,1,0
1558440972636712,-2,-2,-3,2,4,1,-3,-2
1558440972643361,-1,-1,0,0,2,-7,1,1
1558440972643361,1,2,4,2,-5,-5,-5,-1
1558440972645471,0,1,-1,-4,5,7,0,0
1558440972645471,-1,-1,-1,-1,-5,-1,-1,-3
1558440972659317,-3,-1,-1,0,0,-7,-1,-1
1558440972659317,0,-1,0,-1,3,-1,0,1
1558440972666533,0,-2,1,3,-1,9,3,2
1558440972666533,2,1,2,-1,4,-5,0,1
1558440972681572,-1,-3,-1,-5,-3,-2,-4,-4
1558440972681572,-1,-2,-2,-1,-8,0,-1,-2
1558440972696461,-1,-1,0,0,-4,-17,-3,0
1558440972696461,-3,-2,1,0,-2,0,0,-2
1558440972704201,-1,-1,-3,-5,1,1,-2,0
1558440972704201,-2,0,-1,-1,-1,-1,-1,1
1558440972704201,1,2,0,-1,5,1,-1,0
1558440972704201,0,0,3,1,-6,-9,-3,-1
1558440972720157,-1,-2,-10,-3,1,4,3,2
1558440972720157,-1,1,1,1,5,4,2,-4
1558440972726140,-1,-1,-2,-1,0,1,-3,-1
1558440972726140,-2,-1,2,3,-5,-6,-3,0
1558440972742110,-3,-1,-3,-1,6,10,-1,1
1558440972742110,-1,0,0,-1,0,-3,0,2
1558440972748266,-2,-2,-7,-6,-7,-5,-6,-3
1558440972748266,-1,-2,-4,-1,1,5,-2,-3
1558440972764255,1,2,5,1,1,-2,5,3
1558440972764255,2,1,2,2,6,2,2,3
1558440972765036,-1,-1,-2,2,-2,-2,1,-3
1558440972765036,-2,-1,-1,-2,-6,-1,-5,-3
1558440972780003,-1,-2,-6,-8,-3,-3,-2,-2
1558440972780003,-1,-3,-2,-2,-5,-8,-5,-3
1558440972793962,-2,-1,2,-3,-4,2,-5,-2
1558440972793962,-2,-3,-5,-1,0,5,2,1
1558440972800938,-1,2,7,4,3,-6,0,-1
1558440972800938,-1,-1,3,2,3,-3,2,1
1558440972807953,-1,-1,-2,-6,0,0,1,2
1558440972807953,-2,-1,-2,0,1,-2,-3,-1
1558440972823878,-3,-2,-2,-2,-10,-3,-5,-4
1558440972823878,0,-1,-2,-3,2,3,1,-1
1558440972824875,-1,0,3,4,4,9,8,1
1558440972824875,2,1,0,0,4,6,1,1
1558440972839833,-4,-5,-7,-6,-14,-12,-12,-5
1558440972839833,-1,-3,-1,0,-7,1,-1,1
1558440972862786,1,0,2,2,6,3,1,2
1558440972862786,0,0,0,0,2,-1,1,3
1558440972863771,0,-2,-4,0,2,2,-1,-3
1558440972863771,-3,-2,-1,1,-9,1,-3,-5
1558440972868964,-1,-2,-4,-7,3,-4,2,-1
1558440972868964,1,1,0,-2,2,-9,1,0
1558440972883952,-2,-2,1,-1,-3,-4,-2,-3
1558440972883952,0,-2,-3,4,-6,-8,-1,-1
1558440972884713,-3,-3,-2,-2,-6,0,-6,-3
1558440972884713,0,0,2,-3,5,5,4,0
1558440972906889,-1,0,-2,0,-1,3,2,3
1558440972906889,-1,0,-1,0,-2,-1,-4,-2
1558440972906889,0,-1,-2,0,4,1,-2,-1
1558440972906889,-1,1,-1,-3,-1,3,2,0
1558440972920850,0,0,-1,4,2,2,0,0
1558440972920850,-2,-2,0,-7,-9,-9,-6,-1
1558440972928812,-1,-1,-2,-3,0,-2,-4,-1
1558440972928812,-3,-2,-1,1,-1,5,-2,-3
1558440972943558,-1,-1,1,0,3,-2,0,1
1558440972943558,-4,-1,-4,-5,-3,-7,-5,-2
1558440972944557,-3,-3,0,0,-6,-2,-3,-4
1558440972944557,0,-1,0,5,1,10,2,-2
1558440972959513,0,2,-1,-7,-2,-15,3,1
1558440972959513,0,-3,-3,-5,-5,-7,-3,-3
1558440972974645,0,0,1,3,-2,-4,-2,0
1558440972974645,0,-1,-1,0,6,10,5,1
1558440972981502,-2,0,-1,2,2,1,-2,-2
1558440972981502,1,0,-2,-4,1,1,-1,1
1558440972988439,-1,-1,-2,-3,-3,1,0,1
1558440972988439,-3,-3,-6,-2,-3,4,-2,-3
1558440973003396,0,0,3,1,-3,-6,-3,0
1558440973003396,1,2,3,1,2,-1,0,-2
1558440973004395,1,1,0,1,5,2,1,1
1558440973004395,-2,-2,-8,-6,-12,-9,-5,-2
1558440973036308,0,-2,0,2,-1,6,-1,-2
1558440973036308,-2,-1,-2,-2,9,10,0,0
1558440973036308,1,1,0,3,4,7,7,2
1558440973036308,2,0,6,2,6,-7,-2,0
1558440973040295,-3,-4,-9,-7,-3,-1,-2,-1
1558440973040295,-1,-1,-2,-1,-4,3,-2,-1
1558440973048274,-1,-1,1,0,-5,-4,-4,-2
1558440973048274,0,-1,-4,-2,-4,-3,-7,-3
1558440973063608,-3,-2,3,0,-13,-7,-6,-5
1558440973063608,0,-1,2,2,10,9,11,2
1558440973071575,1,1,-2,2,4,2,5,4
1558440973071575,0,-1,-3,-4,-3,-9,-3,-1
1558440973088169,0,-1,3,1,-2,1,-1,-1
1558440973088169,-2,-1,0,-3,-9,-12,-5,-2
1558440973089252,-5,-5,-9,-5,-4,-1,-1,-5
1558440973089252,0,0,-2,0,5,4,5,1
1558440973101405,0,0,2,2,7,4,1,-1
1558440973101405,-2,-2,-4,-1,-6,-8,-4,-2
1558440973108493,-2,-2,1,-5,-6,-9,-7,-3
1558440973108493,-2,-3,-5,-5,-5,1,-2,-5
1558440973132086,-2,0,-1,1,-1,3,5,1
1558440973132086,-1,-2,-1,0,6,4,2,1
1558440973132086,0,-1,-1,-2,0,-6,-5,-2
1558440973132086,-3,-3,0,-1,-5,-15,-8,-2
1558440973147046,2,2,-3,-5,2,9,4,1
1558440973147046,1,-2,1,0,-1,6,2,0
1558440973147046,1,-1,-1,2,-3,-3,-1,0
1558440973147046,-3,-1,2,2,-2,-3,-3,-2
1558440973161008,-2,-2,-4,-4,0,-5,-6,-3
1558440973161008,2,-1,-3,-6,-14,-5,-7,-2
1558440973168953,0,0,1,2,10,9,3,1
1558440973168953,-2,-3,-3,-5,-6,-8,-3,-3
1558440973183947,-1,0,2,1,2,2,-2,-2
1558440973183947,-2,1,-1,4,8,3,3,1
1558440973200086,-2,0,0,-4,-1,-1,2,-1
1558440973200086,0,0,-6,-4,-5,-5,-2,1
1558440973200868,0,-2,-4,1,-1,2,-1,-2
1558440973200868,0,0,2,2,-1,-2,-2,-3
1558440973206105,-1,0,-1,-6,-2,-4,-3,-1
1558440973206105,-3,-2,-3,-4,-5,-8,1,-1
1558440973220814,0,1,-1,1,-5,1,-2,1
1558440973220814,-3,-1,-3,-1,6,9,1,-2
1558440973227796,0,1,1,1,0,4,2,-1
1558440973227796,2,3,5,7,5,11,2,0
1558440973242755,-1,-2,-4,-13,-5,-8,-4,-2
1558440973242755,-3,-2,-1,-4,-7,-11,-5,-3
1558440973250734,1,-1,-3,-3,-6,-5,-5,-2
1558440973250734,-2,-4,-4,1,-1,7,5,2
1558440973266690,-1,1,-2,-1,3,2,2,0
1558440973266690,0,0,2,-1,4,-2,-1,1
1558440973267864,-4,-3,-6,0,-11,-8,-5,-3
1558440973267864,0,-2,2,-3,-6,-8,-6,-3
1558440973281675,-2,-3,3,1,3,5,1,-1
1558440973281675,1,-1,-6,-1,2,-7,-5,-2
1558440973288990,-3,-1,1,-1,-3,1,3,-2
1558440973288990,2,2,6,3,18,28,12,5
1558440973312022,-1,0,-6,1,2,-5,-4,-1
1558440973312022,0,1,1,0,-3,-4,-2,-1
1558440973312568,2,-2,-3,-5,-3,-2,0,-1
1558440973312568,-2,-4,-4,-3,-8,-8,-7,-2
1558440973326537,-1,0,5,4,-2,-4,-4,-1
1558440973326537,-2,0,-1,-4,-4,3,-2,-1
1558440973327547,1,1,2,3,0,-12,-1,1
1558440973327547,-3,-2,-10,-13,-4,1,1,-1
1558440973348474,-1,0,-1,3,-1,5,4,0
1558440973348474,-2,-3,1,-4,-8,-10,-7,-4
1558440973349469,-2,-1,-7,1,1,6,3,1
1558440973349469,2,1,5,2,3,-11,1,3
1558440973364459,-5,-2,0,-3,-11,-13,-7,-4
1558440973364459,-3,-3,-3,-3,-4,3,-2,-2
1558440973371556,0,-1,2,6,4,11,0,-1
1558440973371556,2,0,-1,0,12,6,6,4
1558440973386443,0,-3,-4,-6,-1,-2,-1,-2
1558440973386443,-1,-1,1,0,-6,-7,-5,-3
1558440973387368,-1,0,3,-3,-2,6,-3,-2
1558440973387368,-3,-2,-5,1,-7,-6,0,-2
1558440973401572,0,0,1,0,0,1,-3,-1
1558440973401572,-3,-3,-3,-2,1,8,1,-1
1558440973424269,0,0,2,-3,-3,-12,-4,0
1558440973424269,-1,0,-5,2,3,-1,2,0
1558440973426265,-1,1,1,0,1,1,0,0
1558440973426265,0,-3,-2,-6,-4,-11,-7,-1
1558440973431602,-3,-3,2,0,-1,9,0,-2
1558440973431602,-2,0,4,3,3,-2,-1,1
1558440973446238,-2,-3,-7,-6,-8,-5,-4,-2
1558440973446238,2,3,1,6,13,17,12,5
1558440973447207,-1,-2,-3,-1,-3,-5,-2,-3
1558440973447207,-5,-5,-2,-9,-20,-9,-11,-8
1558440973461443,1,-2,-1,2,6,-1,3,1
1558440973461443,1,1,2,0,7,-1,4,1
1558440973476132,-2,-3,-5,-1,-7,-3,-1,-1
1558440973476132,0,-1,-2,-5,6,9,1,-1
1558440973483423,0,-1,4,0,0,-1,1,1
1558440973483423,-1,-1,-5,-3,-7,1,1,0
1558440973491440,-2,-2,-5,-2,2,1,2,1
1558440973491440,0,0,1,0,-3,-2,-7,-4
1558440973507081,-3,-1,-1,-1,1,-4,-1,-1
1558440973507081,0,0,-3,1,-2,-5,0,-2
1558440973507081,-2,-1,-2,-1,-4,-5,-3,-2
1558440973507081,1,-1,1,-1,-1,0,-1,-1
1558440973537230,1,0,0,3,8,8,6,4
1558440973537230,-1,0,-2,-1,-2,-5,-3,-3
1558440973537971,-1,-2,0,-5,-7,-1,-3,-3
1558440973537971,-2,-2,-4,-3,-7,-7,-9,-5
1558440973542956,2,1,1,-3,8,6,6,2
1558440973542956,-3,-1,-1,-1,-1,-8,-4,-1
1558440973550934,-1,0,2,2,0,-2,2,-1
1558440973550934,-3,-2,-1,-1,-5,1,-1,-2
1558440973566889,0,0,2,1,2,-1,-2,-2
1558440973566889,2,-1,1,-1,1,4,2,2
1558440973566889,0,-1,-2,-8,-2,-10,-4,-2
1558440973566889,-2,-1,-1,3,4,6,4,3
1558440973590825,-2,-2,0,-1,-4,1,-4,-2
1558440973590825,-1,-2,-9,-2,-5,-6,-3,-2
1558440973590825,1,1,2,2,5,1,2,0
1558440973590825,-1,-1,2,-1,1,-7,-1,-2
1558440973603950,0,-2,-6,-3,-6,-2,-3,-2
1558440973603950,-3,-3,3,1,-3,-3,-3,-2
1558440973610945,4,2,1,2,13,14,6,4
1558440973610945,1,-1,0,-1,2,-6,0,1
1558440973626730,-2,0,0,2,-4,-4,-5,-2
1558440973626730,-4,-4,-2,-3,-8,-7,-4,-3
1558440973626730,-2,-2,-3,-2,2,2,1,-1
1558440973626730,-3,0,2,2,-3,0,-2,-2
1558440973641689,0,-2,-1,-3,-2,-5,-2,-1
1558440973641689,-2,-1,-2,-2,-1,-4,-3,-3
1558440973648669,0,-1,2,5,-1,-2,-2,1
1558440973648669,-1,-1,-3,-4,0,2,0,-3
1558440973664139,-3,-5,-12,-8,-10,-4,-4,-3
1558440973664139,1,1,3,5,11,14,8,3
1558440973671133,-2,-2,1,1,-6,-6,-2,-3
1558440973671133,1,-1,-1,0,1,-6,-4,-1
1558440973704521,-1,-1,0,-3,-8,-6,-7,-4
1558440973704521,-2,-2,-2,-6,-11,0,-3,-2
1558440973705567,1,2,1,1,16,6,6,3
1558440973705567,-3,-4,-1,2,-5,2,0,0
1558440973708590,0,1,-1,4,2,2,2,-2
1558440973708590,-2,-3,-3,-4,-3,3,0,-3
1558440973709507,-2,1,-1,-8,-8,-20,-6,0
1558440973709507,-1,-3,-9,-4,-3,0,-1,-1
1558440973723800,-1,-3,0,2,-2,0,-1,-1
1558440973723800,0,1,2,4,4,10,4,-2
1558440973730784,-2,-1,-5,-4,-6,-7,-7,-4
1558440973730784,4,1,6,7,14,9,10,5
1558440973754668,-3,-3,-1,3,-3,-4,-4,0
1558440973754668,-1,0,-4,-6,-4,-7,-3,-2
1558440973755386,-2,-1,-1,2,4,9,5,0
1558440973755386,-1,0,1,-3,3,4,-2,-2
1558440973760373,-1,-1,2,0,0,0,1,-1
1558440973760373,1,0,0,4,-2,-5,-2,1
1558440973768598,-4,-3,-5,-6,-6,-6,-8,-3
1558440973768598,-1,0,0,-5,-6,-5,-3,0
1558440973783566,-2,0,0,1,4,4,4,1
1558440973783566,-2,-2,-1,2,4,-1,-3,0
1558440973791478,1,-2,-2,-3,-4,0,0,-2
1558440973791478,-1,-1,1,-1,-3,-1,1,-2
1558440973808418,0,0,4,0,1,-2,0,0
1558440973808418,0,0,-6,-4,-5,-2,-2,-2
1558440973808418,0,-3,-2,-5,-2,-1,-1,-1
1558440973808418,-1,2,0,5,-1,3,0,-1
1558440973821464,-2,-2,0,-3,2,0,-1,-3
1558440973821464,-1,-3,-4,-11,-11,-23,-16,-5
1558440973828191,-2,1,3,8,8,16,7,3
1558440973828191,4,2,3,2,3,-4,6,6
1558440973843150,0,0,-3,-2,5,-2,2,2
1558440973843150,-2,-1,1,2,6,12,7,2
1558440973868443,-4,-5,-7,-6,-15,-17,-16,-10
1558440973868443,-5,-4,-4,-4,-19,-8,-8,-6
1558440973870090,3,4,1,2,18,15,8,5
1558440973870090,-1,2,5,4,2,-1,1,0
1558440973870090,-1,-3,-4,0,-4,1,-2,-1
1558440973870090,-2,-2,-6,-5,-4,3,-4,-2
1558440973881415,-1,-4,-5,-4,-6,-7,-3,-3
1558440973881415,-2,0,1,1,-7,-5,-4,-3
1558440973889026,1,0,0,1,4,1,1,-1
1558440973889026,0,1,4,-1,4,-3,2,1
1558440973903347,-2,-2,-3,2,-3,0,-4,-2
1558440973903347,-1,1,2,-1,7,5,7,2
1558440973928296,-2,-4,0,-3,-12,-11,-6,-4
1558440973928296,1,-1,-1,-1,1,1,1,1
1558440973928920,-2,-1,-1,-1,0,3,1,-1
1558440973928920,-1,-2,-6,-4,-2,0,-4,-4
1558440973930914,0,1,1,0,-4,-1,-1,-1
1558440973930914,1,-2,0,4,5,8,3,-2
1558440973941264,-3,-2,-4,-5,-8,-7,-3,-2
1558440973941264,2,2,6,6,7,11,10,3
1558440973948207,-1,1,-7,-5,5,-3,-1,1
1558440973948207,-4,-2,-5,-8,-5,-6,-5,-2
1558440973980159,-3,0,0,-1,-7,-7,-8,-2
1558440973980159,-3,-3,-4,-1,-1,-4,0,0
1558440973980159,2,3,6,5,6,8,6,3
1558440973980159,0,-1,-1,-1,3,2,-4,-4
1558440973986123,-2,-3,-7,-9,-17,-8,-5,-5
1558440973986123,2,-1,3,1,5,-6,1,4
1558440973994818,1,1,4,2,9,3,2,0
1558440973994818,-4,-2,-4,-4,-3,-1,-4,-2
1558440974001072,-3,-1,-3,0,-2,-2,2,-2
1558440974001072,-2,-2,-2,-2,-8,1,0,-1
1558440974008711,1,0,1,2,9,9,2,3
1558440974008711,-1,0,0,3,-3,-4,-2,0
1558440974032004,0,-1,0,-5,0,-3,-4,-1
1558440974032004,0,-1,-4,-8,-9,-8,-6,-2
1558440974032004,-2,-2,-2,-1,1,11,4,0
1558440974032004,-1,-1,-1,3,0,-5,-2,0
1558440974045607,2,1,1,0,-2,-5,1,2
1558440974045607,0,0,1,6,7,8,3,1
1558440974053608,-2,-2,-2,-6,-1,-7,-5,-2
1558440974053608,0,-3,-4,-6,-1,-3,0,-3
1558440974062562,-1,-1,-5,-5,-7,1,-1,0
1558440974062562,-1,0,-2,1,2,-2,-2,-1
1558440974068547,0,-2,-1,0,-4,-8,-1,2
1558440974068547,0,1,6,3,0,-2,1,2
1558440974091484,-1,-1,-2,0,1,1,-3,-1
1558440974091484,0,0,-1,-2,4,6,3,2
1558440974092482,-2,0,0,-1,3,-6,-1,0
1558440974092482,0,-3,-2,-2,-3,-3,-1,-1
1558440974105448,0,-1,3,3,-6,-4,-2,-1
1558440974105448,0,-3,-2,-4,-4,-4,-8,-5
1558440974113426,-4,-2,-3,-6,-9,0,2,-3
1558440974113426,-2,0,-1,6,4,8,2,0
1558440974122403,-1,1,2,-1,9,6,8,3
1558440974122403,-1,-2,-4,0,-5,-8,-4,-1
1558440974128739,-1,-3,-5,-3,-9,-11,-7,-3
1558440974128739,-2,2,-2,-2,-6,-4,-3,-1
1558440974144682,0,-1,3,5,0,5,0,-2
1558440974144682,-2,-3,-2,-5,5,1,-2,-2
1558440974159303,0,0,0,1,0,0,-2,-2
1558440974159303,0,-1,-4,-6,-5,-1,0,-1
1558440974165288,1,0,3,3,8,4,0,-2
1558440974165288,-3,-2,-9,-3,-2,-2,4,-3
1558440974173705,-3,-3,-1,-1,-5,2,-4,1
1558440974173705,-1,-2,1,-2,-1,-1,-2,-2
1558440974189693,-1,2,0,-1,2,2,0,0
1558440974189693,0,-1,2,0,-4,-8,-4,-2
1558440974189693,-1,0,-2,-2,-2,-1,0,-3
1558440974189693,-2,-1,-4,-3,-1,-1,-2,2
1558440974204532,0,-1,-1,1,3,4,3,0
1558440974204532,-1,0,1,-1,-3,2,-2,-3
1558440974211449,-2,-3,-5,-3,-5,-14,-4,-2
1558440974211449,2,3,3,6,11,-3,4,3
1558440974226126,-3,-2,-1,-6,-3,8,-1,1
1558440974226126,-1,-2,0,-1,-3,-5,-1,2
1558440974233112,-1,-2,-1,-2,-8,-5,-8,-2
1558440974233112,1,-2,-3,0,3,6,0,-2
1558440974249064,0,0,-1,0,-3,-9,1,0
1558440974249064,-1,0,3,0,3,-1,3,0
1558440974249064,-2,-1,2,0,-7,-1,-5,-3
1558440974249064,-1,-2,-4,-4,3,9,4,-1
1558440974263332,-1,0,4,5,-1,-5,-4,-1
1558440974263332,-2,-4,-2,-1,-10,-6,-7,-2
1558440974271345,0,0,-6,-8,0,7,5,0
1558440974271345,-1,-1,-2,-1,1,6,1,-2
1558440974311239,-3,-3,-5,0,-8,-6,-3,-3
1558440974311239,1,2,6,3,6,3,5,1
1558440974311897,1,-1,-2,-3,2,-11,1,2
1558440974311897,-1,-1,0,-1,-4,-2,-3,-1
1558440974312983,1,0,0,-1,7,1,1,0
1558440974312983,-2,-2,-7,-4,-10,-1,-6,-3
1558440974317280,-1,-3,-1,-1,3,4,-3,-3
1558440974317280,0,-3,-2,-2,0,5,5,-1
1558440974324000,-2,0,-2,-1,-5,-8,-3,-2
1558440974324000,0,0,0,-5,1,-4,-3,0
1558440974331258,-2,-1,0,0,-1,0,-2,-2
1558440974331258,-1,-3,2,3,-1,-5,-6,-3
1558440974346593,1,-3,-3,-4,1,6,1,1
1558440974346593,-2,-3,-10,-9,-7,-4,-3,-5
1558440974370488,-2,-2,-3,1,1,5,-1,-1
1558440974370488,1,0,2,2,1,-7,-2,1
1558440974371166,0,-3,-1,-2,2,-1,-3,-3
1558440974371166,-1,0,4,6,4,4,1,0
1558440974373201,0,0,-2,-2,-5,-13,-4,0
1558440974373201,-2,-1,-1,-6,-9,-3,-5,-1
1558440974383393,0,-1,-1,0,3,4,4,2
1558440974383393,-1,-3,0,0,-2,-1,-2,0
1558440974391402,1,-1,2,4,4,12,3,-2
1558440974391402,-2,-2,-2,-3,-10,-6,-6,-3
1558440974422620,-2,1,0,0,0,-12,1,1
1558440974422620,0,1,1,3,13,5,6,2
1558440974422620,0,0,2,0,2,2,0,1
1558440974422620,-2,-2,-4,1,-4,-5,-3,-1
1558440974429587,0,1,-2,-5,1,5,-3,0
1558440974429587,-1,-2,0,3,4,7,0,-4
1558440974429587,-2,-2,-3,-3,0,0,3,-2
1558440974429587,-3,0,-1,-1,2,-1,2,0
1558440974443333,-2,-2,-3,-4,-11,-11,-8,-5
1558440974443333,0,-1,3,1,1,3,5,3
1558440974459289,1,0,4,5,4,2,2,1
1558440974459289,0,-2,-5,-6,-5,-6,-4,-3
1558440974473583,0,-2,-6,-9,-3,5,2,-1
1558440974473583,-1,-1,-1,-3,-7,-5,-6,-3
1558440974490533,-2,0,2,1,-2,-1,-6,-1
1558440974490533,-4,-1,-2,-1,2,7,6,2
1558440974491205,-2,-2,1,6,4,7,-2,-2
1558440974491205,1,1,-1,-2,-1,-20,-3,2
1558440974492201,-1,1,-5,-5,0,6,6,1
1558440974492201,2,1,5,3,7,3,2,1
1558440974503513,-1,-3,0,0,-8,-1,-5,-4
1558440974503513,-1,-1,1,2,-4,2,-2,-4
1558440974511493,-1,-1,-10,-13,-8,-6,-3,-1
1558440974511493,-2,-3,-4,-2,-7,-5,-3,-3
1558440974527108,1,-1,-4,-3,-1,-6,1,2
1558440974527108,-1,0,5,3,5,4,5,1
1558440974533978,1,-2,-1,3,-4,-2,-5,-3
1558440974533978,-1,-1,-4,-1,-4,-2,-4,-3
1558440974549270,-1,1,4,2,-1,-7,3,-2
1558440974549270,-2,-1,-5,-5,-2,-1,-3,-2
1558440974550211,0,-3,-1,1,0,0,-2,0
1558440974550211,3,0,1,4,5,0,2,4
1558440974563997,-2,-1,3,1,1,1,-4,-3
1558440974563997,-1,-1,-4,-8,-6,1,-4,-1
1558440974586842,-3,-4,-7,-6,0,2,5,1
1558440974586842,-1,0,3,-2,-3,-3,-3,-2
1558440974588840,-1,-1,0,1,1,-6,2,0
1558440974588840,0,0,3,4,1,2,2,-1
1558440974592827,-3,-2,-5,-3,-8,0,-4,-4
1558440974592827,-3,-2,-4,-9,-4,-3,-2,-2
1558440974608782,0,1,1,5,-1,-15,-5,0
1558440974608782,-2,-2,-8,-11,-4,0,-1,0
1558440974609781,0,1,5,3,7,5,0,-1
1558440974609781,0,0,2,1,-2,-8,-2,-3
1558440974623999,0,-2,-7,-1,3,6,4,2
1558440974623999,2,-1,1,5,6,5,5,2
1558440974639730,-3,-2,-2,2,-3,-1,0,-2
1558440974639730,-3,-3,-2,-3,-10,-10,-4,-3
1558440974645686,2,1,5,5,8,0,-2,1
1558440974645686,-3,-5,-10,-11,-3,10,4,2
1558440974661640,-1,0,7,10,11,9,5,1
1558440974661640,-1,-1,2,3,-6,-9,-7,-3
1558440974668621,-2,-3,-5,-10,-2,8,0,0
1558440974668621,0,-1,-1,3,2,-5,-3,-3
1558440974669620,1,-1,-2,-4,-5,-12,-5,-2
1558440974669620,-2,-2,-2,-1,8,11,3,0
1558440974700003,-2,-2,-2,3,0,3,-1,-1
1558440974700003,-3,-2,3,3,-3,-1,-2,-1
1558440974700537,0,-1,3,0,-4,-4,-4,-2
1558440974700537,2,0,-5,-7,-3,-5,0,1
1558440974706644,-2,-3,-3,-1,0,-2,-2,-1
1558440974706644,-1,-3,0,0,3,4,-1,2
1558440974713978,0,-2,-6,-5,-2,-5,0,1
1558440974713978,-2,0,2,2,-1,2,1,2
1558440974729929,-1,-1,-1,-5,-8,-4,-8,-6
1558440974729929,1,-2,3,1,-6,-2,2,-1
1558440974736876,1,0,3,3,2,0,3,0
1558440974736876,-2,-1,-4,-7,-3,-3,0,0
1558440974759380,-1,-1,-1,-2,0,0,-2,-3
1558440974759380,0,0,2,3,-3,-3,-1,-3
1558440974760375,0,0,-3,-2,0,4,-2,0
1558440974760375,-1,-1,-1,-6,4,-3,-2,0
1558440974765361,-2,-2,-3,-6,-10,-5,-4,-3
1558440974765361,-1,-2,0,1,1,8,2,0
1558440974773367,-1,-1,-3,-3,5,-3,1,1
1558440974773367,-1,-2,-1,-1,0,-1,0,-2
1558440974792567,-4,-2,-3,-1,-4,-5,-2,0
1558440974792567,-1,-1,-1,-1,-1,-1,-3,-3
1558440974792567,-2,0,5,9,5,2,-1,-1
1558440974792567,0,1,-2,1,6,0,0,1
1558440974803259,-1,-1,-6,-3,-3,5,4,1
1558440974803259,-2,-1,-5,-6,1,-1,-4,-5
1558440974810241,1,0,2,1,-6,-7,-2,-2
1558440974810241,-1,-1,2,7,5,2,-1,-1
1558440974825201,0,-1,0,0,-7,-5,-2,-1
1558440974825201,-1,2,-2,1,5,6,-1,0
1558440974833185,-3,-3,-1,-2,-2,1,2,0
1558440974833185,1,-2,-1,-2,1,-7,0,0
1558440974849140,0,-3,1,-4,-3,-5,-3,-3
1558440974849140,-2,-2,-5,2,-11,-11,-8,-2
1558440974849140,-1,-1,-1,-3,5,10,1,0
1558440974849140,2,0,-3,-2,-3,3,0,0
1558440974864108,0,0,2,0,2,2,2,0
1558440974864108,-1,-1,-1,-1,-4,-9,-3,-1
1558440974871114,-1,0,3,2,-2,-6,1,1
1558440974871114,-1,-2,-3,-1,-4,-2,-2,-1
1558440974886431,-3,-2,4,7,2,6,-1,-3
1558440974886431,-1,-2,-6,-15,-4,0,-3,-2
1558440974893023,-1,-2,1,-1,-3,-13,-9,-1
1558440974893023,-1,-1,2,3,1,7,2,1
1558440974916959,1,1,1,2,5,4,-1,-1
1558440974916959,-3,-3,-5,3,-2,-4,0,1
1558440974917956,1,0,-2,-1,1,1,1,0
1558440974917956,-2,-3,-7,-15,-10,-5,-6,-4
1558440974939895,1,-3,-1,-2,-4,3,-2,-1
1558440974939895,0,1,1,0,2,10,7,1
1558440974939895,-3,-2,-2,6,-2,-3,-5,-3
1558440974939895,-3,-1,-1,-4,-4,-3,-2,-1
1558440974945880,2,2,1,-2,6,-16,3,5
1558440974945880,-1,-4,-5,-5,-6,-2,-8,-4
1558440974953859,-2,-1,1,0,-7,5,0,-1
1558440974953859,2,-2,2,5,6,-4,2,1
1558440974977793,-2,-2,-2,-3,-6,2,-3,-4
1558440974977793,-1,0,0,-1,2,-11,-2,2
1558440974984779,-2,0,2,5,5,1,0,-2
1558440974984779,-1,-1,-2,-7,-4,-1,-7,-2
1558440974985774,0,-1,-1,-1,-1,-2,1,-1
1558440974985774,-1,-2,-3,-3,-7,-6,-1,-2
1558440974990759,0,-2,-3,-8,-4,3,-1,-1
1558440974990759,0,0,2,9,4,6,2,-1
1558440975005725,0,0,3,3,-1,-2,1,0
1558440975005725,0,1,4,2,8,9,1,0
1558440975013737,-2,1,-3,-6,-1,-6,-1,0
1558440975013737,1,3,5,7,3,4,0,-1
1558440975029655,-4,-1,-2,-7,-7,-4,-4,0
1558440975029655,-1,-2,-5,-4,-3,5,1,1
1558440975043898,-1,0,2,0,-3,-5,-1,-1
1558440975043898,-1,0,0,4,2,-3,-1,-1
1558440975052597,-2,-4,-6,-10,-4,4,-3,-3
1558440975052597,1,0,5,4,-1,-2,1,0
1558440975053592,1,1,5,6,13,2,4,3
1558440975053592,-4,-3,-11,-9,-4,-4,1,-1
1558440975065563,0,4,7,3,3,-10,0,1
1558440975065563,-1,-2,1,4,1,-4,-3,-1
1558440975073538,-1,-2,-11,-16,-11,3,-4,-3
1558440975073538,1,0,9,9,3,10,3,0
1558440975089494,-3,-3,-5,-4,-3,0,0,-2
1558440975089494,-1,-2,-1,-1,-6,-8,-3,-3
1558440975096900,1,-2,3,-1,-5,-2,-4,-2
1558440975096900,1,2,5,0,8,11,4,0
1558440975111439,-5,-6,-22,-6,-7,-14,-5,-1
1558440975111439,0,1,17,13,10,2,2,2
1558440975112434,-4,-9,-34,-36,-19,-7,-3,-3
1558440975112434,-1,1,10,6,1,-1,-4,-3
1558440975125401,0,-1,0,3,0,4,0,0
1558440975125401,-1,-2,-9,-6,-5,-9,-2,-3
1558440975133379,1,0,7,8,4,-3,-2,0
1558440975133379,-3,-3,-8,-9,-10,-5,-5,-1
1558440975148338,1,0,6,2,7,11,1,0
1558440975148338,-2,-1,-2,-4,-1,-11,-4,1
1558440975156316,0,-1,6,7,1,3,3,1
1558440975156316,-3,-2,-2,0,1,0,0,-1
1558440975171276,-1,1,0,-10,-9,1,-3,-3
1558440975171276,0,-1,-6,-4,-3,-4,-5,-2
1558440975172273,1,1,3,2,5,-1,1,0
1558440975172273,0,1,-2,4,1,-7,0,-2
1558440975185239,1,-4,-4,-3,0,12,3,-1
1558440975185239,-2,-1,-4,-8,-9,-8,-5,-2
1558440975201198,-1,0,5,7,7,3,-1,0
1558440975201198,0,-1,-3,-2,4,1,4,2
1558440975208178,1,1,7,7,0,-6,-2,0
1558440975208178,-1,0,-2,-3,-1,6,1,-2
1558440975217156,1,-2,-1,-1,-12,-10,-7,-4
1558440975217156,-3,-4,-10,-5,-11,1,-3,-2
1558440975231117,0,2,5,1,7,2,4,2
1558440975231117,1,-1,2,4,8,6,6,1
1558440975232113,-2,-3,-3,3,-1,-3,-2,-1
1558440975232113,-2,-3,-3,-10,-9,-6,-11,-4
1558440975247076,-1,-2,-1,1,-6,-5,-3,-2
1558440975247076,-3,-2,-6,-10,-1,0,-1,0
1558440975253093,-1,2,7,4,5,2,6,3
1558440975253093,-2,-5,-14,-10,-15,-7,0,-4
1558440975268018,0,-1,1,5,4,-1,-1,-1
1558440975268018,2,4,10,11,12,12,10,6
1558440975276000,-3,-2,-6,-9,-2,0,-4,-5
1558440975276000,2,0,5,6,5,-3,-1,1
1558440975291254,-2,0,0,1,4,-5,1,1
1558440975291254,-2,-4,-3,-2,-5,-5,-8,-5
1558440975291954,-1,1,4,3,-2,5,-3,-2
1558440975291954,-3,-2,-2,-1,-2,3,1,-2
1558440975305916,-2,-1,-2,2,0,-6,0,-1
1558440975305916,-1,-1,-1,-10,-6,2,1,0
1558440975313056,0,0,-4,2,-6,-11,-4,-2
1558440975313056,-2,-2,-1,-4,-7,-6,-9,-5
1558440975327858,1,1,3,3,6,1,2,4
1558440975327858,-3,-3,-8,-4,-2,4,-2,-2
1558440975335837,0,-1,1,2,-7,-1,2,-1
1558440975335837,-1,-3,-4,-5,3,2,1,-2
1558440975350835,-3,-4,-2,-7,-10,-10,-8,-4
1558440975350835,0,1,0,5,1,-6,-1,0
1558440975351793,0,0,-1,-2,4,11,3,-2
1558440975351793,0,1,3,-3,-1,0,1,0
1558440975365756,2,3,2,1,6,10,5,1
1558440975365756,-2,-5,-3,-1,-7,-10,-7,-4
1558440975373734,-2,-3,-4,-2,2,0,1,0
1558440975373734,1,1,7,6,2,-2,4,5
1558440975387726,1,1,-3,-2,-2,-6,-4,-2
1558440975387726,0,-1,2,-1,-5,-1,0,-1
1558440975396674,-1,-3,-3,-4,3,2,-3,-2
1558440975396674,-1,0,-1,2,-6,-11,-4,-2
1558440975419662,-3,-4,-8,-12,-7,1,-3,-3
1558440975419662,-1,0,-1,1,0,0,1,0
1558440975420611,1,-1,5,6,4,2,0,1
1558440975420611,-1,-3,-5,0,1,5,0,-1
1558440975425597,-2,-2,0,-3,-5,-3,0,0
1558440975425597,1,2,1,-4,1,1,1,-1
1558440975433734,-1,1,-4,-1,1,-4,2,2
1558440975433734,-1,1,0,-2,-1,-3,-5,-1
1558440975448535,-4,-1,-2,0,-8,0,-6,-3
1558440975448535,0,-2,1,6,7,1,-1,0
1558440975480701,1,1,-1,-5,0,7,9,4
1558440975480701,2,0,1,0,9,-4,-3,-4
1558440975482445,-3,-6,-13,-9,-6,3,-1,-3
1558440975482445,-2,-1,4,4,-1,-4,-2,-2
1558440975483441,-4,2,3,1,1,-4,-3,1
1558440975483441,-3,-2,-7,-6,-10,-9,-5,-1
1558440975487436,1,0,5,8,1,4,2,0
1558440975487436,0,-1,-4,-5,8,6,-1,0
1558440975493415,-2,-1,-1,-2,-3,-5,-2,-2
1558440975493415,1,0,7,10,7,8,3,3
1558440975508375,-3,-2,-4,-10,-6,-7,-5,-2
1558440975508375,-2,-3,2,2,0,-1,0,-1
1558440975516537,-1,-3,2,0,-5,-9,-6,-5
1558440975516537,0,-2,-13,-6,-2,5,3,1
1558440975531321,2,1,4,7,9,-3,2,-1
1558440975531321,-2,-1,-1,-1,-7,-2,-3,-3
1558440975532322,-1,0,-3,-4,1,-7,-2,0
1558440975532322,-1,0,3,-2,-1,2,1,0
1558440975545276,-1,0,-2,-1,1,3,1,-2
1558440975545276,-3,1,-3,1,3,4,0,1
1558440975553264,0,-5,-4,2,-8,-8,-7,-3
1558440975553264,0,-1,-1,-5,4,-1,0,0
1558440975569211,-1,-3,-5,-2,-2,1,0,-2
1558440975569211,-1,-3,0,-1,-10,-6,-5,-1
1558440975576195,0,1,3,4,6,-2,1,0
1558440975576195,-3,-2,-4,-5,-8,4,-1,0
1558440975591353,-1,-1,4,3,10,3,1,0
1558440975591353,1,-1,-1,-2,2,4,7,3
1558440975592151,-1,-1,-1,2,2,-1,0,-1
1558440975592151,-2,-1,5,2,-1,-10,-5,-3
1558440975606113,1,2,0,-3,-7,-5,-6,-1
1558440975606113,-3,-1,-5,-12,-6,-3,-4,-4
1558440975613094,-1,0,-3,-1,-9,7,-1,-2
1558440975613094,0,0,0,4,12,9,4,0
1558440975644012,0,1,2,0,-1,-1,2,2
1558440975644012,3,0,7,3,1,-7,-2,0
1558440975645009,-4,-3,-19,-12,-9,-5,-4,-3
1558440975645009,-1,1,1,1,3,-1,-1,0
1558440975651200,0,-2,-2,1,1,3,-1,0
1558440975651200,0,1,-5,-5,-4,2,1,0
1558440975651991,-1,-1,5,5,-3,-7,-1,-2
1558440975651991,-3,-2,-4,-6,1,4,4,0
1558440975665964,-2,0,-1,-3,0,-5,2,-1
1558440975665964,-1,1,3,6,0,-3,-5,-3
1558440975672936,-3,-2,-3,-3,-8,0,-8,-5
1558440975672936,0,0,-1,-1,-3,-5,1,-1
1558440975687896,0,-1,3,2,4,-9,-2,1
1558440975687896,-2,-1,-2,-3,-6,-3,0,0
1558440975696938,-1,-1,-2,-3,5,6,-1,-1
1558440975696938,-1,-1,-5,-3,-9,-2,-5,-6
1558440975710834,1,2,1,0,0,4,2,2
1558440975710834,-2,-2,-6,-8,5,3,1,0
1558440975711833,2,0,3,3,5,-4,0,1
1558440975711833,-3,-3,0,-3,-1,0,-1,0
1558440975725795,-3,-1,-5,-6,-11,-8,-6,-3
1558440975725795,0,-3,-1,1,-1,-1,-1,-1
1558440975732774,0,0,2,3,6,11,2,0
1558440975732774,-4,-1,1,-1,0,-7,-4,-2
1558440975747930,0,1,2,-1,-1,-13,-2,-1
1558440975747930,2,0,0,9,2,12,5,2
1558440975756710,-1,-2,-6,-8,-5,-1,1,-1
1558440975756710,0,-1,3,6,0,3,3,2
1558440975770698,-1,0,-2,-8,0,-3,0,1
1558440975770698,0,0,-2,3,-5,-7,-4,-3
1558440975778669,-3,-2,-2,-2,-3,-1,-5,-1
1558440975778669,-1,-2,3,-2,-5,-11,-6,-4
1558440975785858,-4,-3,-5,-4,-3,7,0,0
1558440975785858,1,-1,0,-2,0,-5,-6,-1
1558440975793612,-1,-1,-2,-3,-4,0,1,-2
1558440975793612,-1,1,1,5,0,6,-1,0
1558440975808572,-1,0,-1,4,2,2,-2,-2
1558440975808572,-1,-2,-7,-7,-2,-6,2,0
1558440975816773,-3,-1,2,2,3,2,-4,0
1558440975816773,0,-4,-8,-4,-8,-6,-3,-2
1558440975831731,-1,-2,-1,1,-1,3,3,-3
1558440975831731,-1,0,0,0,4,3,3,0
1558440975831731,0,0,1,3,-6,-6,-3,-2
1558440975831731,0,2,2,-1,5,2,5,0
1558440975845474,1,-1,-2,0,-1,4,0,0
1558440975845474,-4,-3,-2,-3,-8,-4,-3,-3
1558440975853451,1,-2,0,-2,4,-1,2,0
1558440975853451,2,0,-1,-3,-5,-3,-5,-2
1558440975868412,-1,-3,-2,2,-1,3,-3,-2
1558440975868412,-2,1,6,5,5,-3,3,3
1558440975875393,0,-2,-7,-14,3,-7,3,4
1558440975875393,-4,-3,-1,0,-7,-5,-3,-1
1558440975890576,2,-2,-2,-1,4,2,2,-1
1558440975890576,-2,-3,-3,-4,-4,0,-6,-5
1558440975898335,0,-2,-1,-1,-4,-5,-2,-3
1558440975898335,0,-2,0,0,-5,-4,-1,-3
1558440975905558,1,0,2,4,7,2,0,3
1558440975905558,0,-1,-3,-7,3,9,2,0
1558440975913482,1,-1,-1,4,-3,-6,-2,-3
1558440975913482,-2,1,1,-4,-2,-9,1,1
1558440975928483,-2,-2,-3,0,-2,2,-1,-2
1558440975928483,-1,-2,0,-7,-3,0,-2,0
1558440975935616,-6,-4,-7,-2,-4,-2,-6,-3
1558440975935616,1,-2,-2,-5,-2,1,-3,1
1558440975950424,1,2,6,5,2,4,7,2
1558440975950424,-1,-2,-5,4,-3,-5,-3,-1
1558440975967408,-1,2,-1,-5,-5,7,1,-2
1558440975967408,-2,0,1,5,7,6,0,-1
1558440975968376,-2,-1,-3,-3,-7,-14,-8,-3
1558440975968376,-1,-2,3,3,4,8,2,-1
1558440975973580,0,0,-1,-1,-2,-5,1,1
1558440975973580,-1,0,-3,-9,3,5,7,3
1558440975988325,-2,-2,1,-1,-3,4,-1,-2
1558440975988325,-3,0,2,1,-7,-11,-4,-1
1558440975995305,0,-1,4,5,5,2,1,1
1558440975995305,1,0,-1,1,2,-5,-3,0
1558440976010265,-1,-3,-6,-3,-7,-3,-4,0
1558440976010265,-3,-1,-2,-8,-1,2,1,-1
1558440976019501,-3,0,2,0,-3,-6,-4,1
1558440976019501,-2,-3,-1,-4,-5,-2,-4,-3
1558440976027467,-3,-1,-1,-2,0,-2,-1,-1
1558440976027467,0,0,2,13,8,3,0,0
1558440976033675,0,0,0,-6,3,10,4,1
1558440976033675,-1,0,-2,0,-7,-6,-4,-2
1558440976048414,-2,-1,1,-3,-7,-1,-2,-1
1558440976048414,-1,0,-6,-2,3,3,0,0
1558440976055393,0,0,1,1,3,-1,2,1
1558440976055393,0,-1,-5,-2,-2,-3,1,-2
1558440976072349,-1,-4,-1,-3,-4,-4,-5,-2
1558440976072349,-1,-1,0,0,-2,-1,-2,0
1558440976078331,2,2,3,2,3,-4,1,-1
1558440976078331,0,-3,-7,-1,-2,1,-3,-3
1558440976093296,1,-1,0,0,-2,-5,-7,-1
1558440976093296,1,0,2,0,-1,0,-1,-1
1558440976094304,-2,-1,-4,-6,-2,-8,-2,1
1558440976094304,0,1,4,2,7,6,6,2
1558440976108251,-2,0,-2,1,-3,-4,-3,-4
1558440976108251,-3,-4,-3,-6,-5,-1,-3,-2
1558440976115232,-1,0,1,5,2,-1,2,0
1558440976115232,-1,-3,0,0,-4,2,0,0
1558440976132188,1,-1,-1,-2,10,1,2,2
1558440976132188,1,-1,0,-1,-3,-1,-2,-2
1558440976139171,-3,-4,-4,-3,-9,-4,-9,-3
1558440976139171,1,1,4,3,7,3,3,0
1558440976162310,0,1,1,0,8,10,5,1
1558440976162310,-1,-2,-3,-3,-11,-9,-4,-2
1558440976163295,-1,-2,-1,-1,0,0,1,-1
1558440976163295,-2,-1,0,-3,-8,-4,-6,-4
1558440976168289,-3,-2,-5,1,-6,-10,2,-1
1558440976168289,2,0,7,1,10,4,3,3
1558440976176072,-3,-4,-8,-9,-6,-4,-4,-1
1558440976176072,-1,1,1,2,-3,-2,-5,-3
1558440976191031,-1,-1,-1,-3,-2,5,1,-2
1558440976191031,-2,-2,-7,-4,-7,-4,-5,-5
1558440976199009,1,-1,0,2,-1,-5,-1,-2
1558440976199009,2,3,7,10,10,5,7,6
1558440976213970,-3,-2,-4,-12,-3,-5,-4,-1
1558440976213970,-1,-1,-5,-7,-7,-6,-5,-2
1558440976214968,0,-2,0,0,-2,8,0,-2
1558440976214968,-3,-2,-4,-3,0,-9,-4,-1
1558440976227934,-2,-2,2,2,-2,-3,-2,-2
1558440976227934,-1,1,1,2,2,-2,-3,-1
1558440976235909,-2,0,1,1,-1,1,4,2
1558440976235909,-3,-6,-5,-7,-6,-11,-3,-1
1558440976250872,1,3,1,3,6,10,7,2
1558440976250872,-1,-2,-2,1,-1,-3,-5,-2
1558440976258852,3,1,1,-2,2,9,1,-1
1558440976258852,-2,-4,-2,-1,-3,1,-1,-1
