timestamp,emg1,emg2,emg3,emg4,emg5,emg6,emg7,emg8
1558440998096280,-1,0,-1,-6,7,5,-1,1
1558440998096280,1,-1,-4,-14,-2,1,1,-2
1558440998096280,-2,1,-1,11,-5,-3,-2,-1
1558440998096280,-1,-1,1,4,6,10,2,3
1558440998098274,0,-2,1,-11,-6,-3,-4,-4
1558440998098274,-1,-2,0,3,-3,-8,-4,-3
1558440998099271,-1,-3,0,3,-1,1,0,2
1558440998099271,-2,-3,-1,-7,-4,3,-1,-5
1558440998122211,0,1,-4,-8,2,-12,-4,1
1558440998122211,-1,1,4,13,4,1,1,3
1558440998125208,0,-2,-3,-10,-5,-9,-10,-6
1558440998125208,-1,-1,-1,-6,4,9,7,0
1558440998128193,0,-2,2,11,-3,1,1,-3
1558440998128193,-1,0,-2,-4,0,5,-2,-1
1558440998136172,-1,0,-1,-10,3,10,4,-1
1558440998136172,-3,-1,-3,0,-7,-6,-3,-3
1558440998142157,-2,-1,0,4,1,-2,1,2
1558440998142157,-1,-2,-1,-4,-5,-11,-2,-1
1558440998157122,0,-1,0,0,2,3,-2,-2
1558440998157122,0,-3,-3,2,-2,-3,-7,-2
1558440998167089,-2,0,0,-3,-4,0,-5,-2
1558440998167089,-2,0,-2,-4,-4,0,0,-2
1558440998174072,-2,-1,-4,0,-4,-5,-4,-4
1558440998174072,2,1,6,4,1,-6,2,1
1558440998188033,2,1,-5,-9,8,14,10,2
1558440998188033,-1,-1,1,2,-3,-6,-3,-2
1558440998196013,0,0,-1,-2,1,-1,1,1
1558440998196013,-3,-1,-3,-1,7,6,2,-2
1558440998236903,-1,0,-2,-2,-2,-4,-1,-2
1558440998236903,-4,-1,-2,10,-6,2,-4,-3
1558440998236903,-1,-3,-3,-8,-2,-1,-2,-2
1558440998236903,3,-4,-1,-9,-5,-8,1,-3
1558440998240893,-1,0,0,13,3,3,4,-1
1558440998240893,2,0,0,-2,-4,-12,1,1
1558440998240893,-3,0,-2,-8,0,7,-2,-3
1558440998240893,-2,-2,-4,-2,-7,-10,-7,-4
1558440998247874,-1,-2,0,-1,2,-4,-2,0
1558440998247874,-1,-1,1,-10,2,-1,1,0
1558440998254855,0,2,1,4,-5,-2,0,0
1558440998254855,-2,-1,1,8,-2,-3,-5,-3
1558440998261836,-1,-2,-2,-15,-7,6,3,1
1558440998261836,3,1,0,-2,9,1,3,3
1558440998286772,1,-3,-1,7,2,1,0,1
1558440998286772,-4,-2,2,-2,2,2,0,0
1558440998287767,-1,-2,1,-6,-2,-4,-3,-2
1558440998287767,-3,-2,-4,3,-4,3,-4,-2
1558440998293750,-1,-1,-1,-1,-2,-9,-2,-1
1558440998293750,-2,1,-2,-4,3,6,7,1
1558440998307714,2,-2,-2,2,-2,5,2,0
1558440998307714,-1,-2,0,1,0,-11,-3,-2
1558440998314707,0,0,2,0,7,11,4,0
1558440998314707,-2,-3,-5,-5,-7,-1,-6,-5
1558440998322674,1,-1,0,1,1,0,-1,0
1558440998322674,-1,-2,-2,-4,-6,-3,-3,-2
1558440998346613,-1,0,3,2,-4,-11,-6,-2
1558440998346613,0,2,-3,-3,4,10,3,3
1558440998347607,0,2,-1,-1,3,-1,4,2
1558440998347607,-3,-2,-4,-5,0,5,-2,-3
1558440998353591,-1,-2,-2,1,-5,-5,0,0
1558440998353591,0,-1,3,7,7,-2,-2,1
1558440998367556,0,0,-1,-1,1,-6,-5,0
1558440998367556,-1,0,2,1,4,6,5,-1
1558440998374535,-4,-3,-4,-3,-8,-5,-4,-1
1558440998374535,1,-2,-1,-2,-3,-5,3,2
1558440998382513,-3,-2,-1,-5,-1,-6,-4,-3
1558440998382513,0,1,-2,5,-3,3,-4,0
1558440998397473,-1,-1,-5,-6,-1,3,0,-3
1558440998397473,0,1,2,1,5,0,3,1
1558440998404456,-1,-1,0,4,-4,-1,-3,1
1558440998404456,0,1,1,-2,-2,1,-3,0
1558440998413431,-2,0,-1,-1,0,-3,-3,-1
1558440998413431,-3,0,-5,-6,-8,-3,-5,-4
1558440998428392,0,0,1,0,0,1,3,-2
1558440998428392,-1,-1,0,0,4,-2,0,1
1558440998436370,0,-2,-1,-3,-3,-6,-4,-1
1558440998436370,2,1,3,3,5,-2,3,4
1558440998442353,-3,-5,-6,-3,-7,-1,-6,-4
1558440998442353,-1,-1,-1,-1,3,6,3,-3
1558440998457315,-3,-1,-3,-2,-5,-5,-2,0
1558440998457315,1,-2,-1,-2,3,2,-2,0
1558440998465293,-1,-2,-4,-3,-6,0,-2,-2
1558440998465293,2,0,0,-1,9,-9,2,1
1558440998473272,-3,-1,0,-1,-4,0,-4,-4
1558440998473272,-1,-1,2,5,0,4,0,-1
1558440998488232,0,1,-6,-10,-3,2,-2,-3
1558440998488232,-4,-2,-1,-3,-3,4,-3,-3
1558440998511169,-1,0,0,-3,0,-4,0,-3
1558440998511169,-2,-2,0,-2,-10,-2,-3,-1
1558440998512168,1,-1,0,2,13,6,6,2
1558440998512168,0,-1,-2,-4,-5,-17,-8,-1
1558440998525132,2,-1,-2,-2,1,5,3,1
1558440998525132,-3,-1,-4,0,0,3,-2,-3
1558440998526129,-3,-1,0,0,-8,-4,-4,-3
1558440998526129,0,-3,-3,-4,-4,8,2,-1
1558440998540097,0,2,4,6,10,-8,-1,3
1558440998540097,1,-1,1,1,4,5,-1,-1
1558440998549068,-3,-2,-2,-2,-6,-2,-7,-5
1558440998549068,-2,-5,-5,-5,-14,-3,-4,-7
1558440998563032,2,2,3,2,9,-4,8,4
1558440998563032,-4,-4,-3,-5,-5,-9,-7,-4
1558440998564028,3,6,6,5,16,10,15,8
1558440998564028,0,-1,-3,-2,-2,0,-6,-2
1558440998577029,-3,-5,-5,-7,-12,-1,-5,-6
1558440998577029,1,1,2,2,2,4,0,-1
1558440998584972,-3,-5,-6,-7,-3,-11,-10,-4
1558440998584972,-3,-1,0,-1,-3,3,2,1
1558440998599983,2,4,0,3,9,13,11,3
1558440998599983,-1,-1,-1,-6,-7,-7,-4,-4
1558440998623900,-1,-3,-1,2,-3,1,-4,-1
1558440998623900,2,2,1,0,5,-2,1,2
1558440998625865,-5,-5,-1,-4,-11,-4,-6,-5
1558440998625865,-1,-1,-2,-1,-5,-5,-5,-1
1558440998626861,1,-1,1,0,-2,-3,1,-1
1558440998626861,-1,-1,-1,0,1,5,1,-1
1558440998636833,-1,-2,-4,-1,-2,-9,-2,1
1558440998636833,1,2,4,-1,-5,-3,-1,1
1558440998644815,2,0,1,-5,7,4,6,3
1558440998644815,-4,-2,-6,-1,2,1,-3,-4
1558440998676728,-2,-3,-1,2,-5,0,-1,-2
1558440998676728,-3,-3,-3,-2,-5,-9,-3,-4
1558440998677724,-1,-2,-1,0,-5,1,-4,-3
1558440998677724,2,1,2,3,2,-3,5,2
1558440998678721,0,0,2,0,0,-4,-6,-3
1558440998678721,-2,-2,-4,-3,0,4,-2,-2
1558440998682711,-1,0,3,7,0,0,1,-1
1558440998682711,-2,0,-2,-4,-6,-4,-4,-2
1558440998697672,-4,-3,-4,-5,-1,2,1,-3
1558440998697672,2,1,3,0,0,-15,4,5
1558440998704652,-3,0,-2,1,-1,7,-1,-3
1558440998704652,0,1,0,3,7,0,2,1
1558440998728589,-1,-1,-3,-1,4,1,-1,1
1558440998728589,-2,-2,-3,-2,-1,6,-4,-5
1558440998729607,0,-2,2,4,-1,-8,1,1
1558440998729607,0,-4,-6,-7,1,5,-1,-3
1558440998734572,-3,-1,-2,-1,-9,-5,-7,-3
1558440998734572,-2,0,-1,1,8,2,3,2
1558440998742551,-3,0,-1,-2,-7,-13,-6,-3
1558440998742551,2,0,3,1,0,0,5,1
1558440998757511,0,-2,-3,-2,-3,0,-5,-3
1558440998757511,-2,0,-1,-1,-1,6,3,0
1558440998764493,-2,-2,-4,-2,-2,-1,-2,-3
1558440998764493,-3,-2,-4,-4,-5,5,0,0
1558440998779466,3,2,4,4,1,-9,0,1
1558440998779466,0,-2,-3,-6,-4,4,-2,-4
1558440998788430,-1,-1,0,3,-4,-10,-6,-1
1558440998788430,-2,-1,5,4,-1,-2,0,-2
1558440998802413,1,0,-2,-8,3,-2,1,-1
1558440998802413,-2,-3,-3,-1,1,1,-3,-2
1558440998810369,0,0,-2,-2,-4,1,-2,-1
1558440998810369,-3,-2,-1,-2,-4,-10,-8,-3
1558440998817353,0,-2,2,0,-3,2,1,0
1558440998817353,0,1,-2,1,-2,3,4,-1
1558440998824331,0,-2,-2,-3,6,4,-2,1
1558440998824331,-1,-1,1,1,-3,-2,-5,0
1558440998841288,-1,-2,-2,1,-3,1,-2,-2
1558440998841288,5,3,0,3,6,10,8,3
1558440998848268,-2,-2,2,0,-10,-11,-7,-5
1558440998848268,2,0,-9,-11,-2,-1,6,3
1558440998855249,0,2,4,8,17,14,8,4
1558440998855249,-2,-2,-2,-7,-9,-12,-8,-2
1558440998870209,0,-1,0,-1,-2,4,-2,-2
1558440998870209,0,-1,4,4,1,0,-5,-3
1558440998877192,-1,-4,-7,-10,-10,-7,-6,-3
1558440998877192,-1,0,-2,1,0,-6,2,-1
1558440998893152,-2,0,2,-2,6,6,6,0
1558440998893152,-1,0,0,2,1,-2,-1,0
1558440998900130,2,0,-1,3,2,9,4,2
1558440998900130,0,1,0,2,7,-3,-2,1
1558440998908108,2,0,-2,0,5,5,1,2
1558440998908108,-6,-4,-2,-4,-9,-4,-7,-5
1558440998915095,-2,-1,1,1,-1,12,4,-1
1558440998915095,0,0,1,1,-2,-13,-3,1
1558440998930055,0,1,-2,-2,1,-9,-1,1
1558440998930055,-1,-1,1,0,3,5,1,1
1558440998937077,1,2,-3,-3,-14,-1,-3,-3
1558440998937077,-3,-2,-2,1,0,6,0,-2
1558440998945011,-1,-2,-1,-6,-4,-2,-2,-3
1558440998945011,-1,-2,-3,-3,1,-5,1,-2
1558440998959970,-2,-2,0,0,1,-10,-3,-2
1558440998959970,-1,-3,-2,-3,0,9,2,-1
1558440998967948,-2,-1,1,5,-3,2,0,-1
1558440998967948,1,-1,-2,0,-7,-3,-5,-5
1558440998974930,0,-1,-1,-5,-5,-7,-8,-4
1558440998974930,-2,1,4,7,7,10,4,2
1558440998990887,-1,-1,-6,-12,6,-1,2,2
1558440998990887,1,1,1,2,0,-10,0,1
1558440999005847,-2,2,2,1,10,12,3,0
1558440999005847,-4,-6,-4,-4,-16,-14,-17,-9
1558440999005847,-1,-1,0,0,-5,0,5,0
1558440999005847,1,1,-1,0,2,-15,-4,-1
1558440999019808,-3,-4,-4,-5,-8,-8,-8,-3
1558440999019808,0,0,0,0,1,1,-2,0
1558440999027787,-1,-3,0,-4,-5,-3,-6,-1
1558440999027787,1,1,1,1,3,4,3,1
1558440999034769,-1,-2,0,6,6,6,3,0
1558440999034769,0,-3,0,-3,-6,-4,-4,-3
1558440999066690,0,0,-3,1,-4,0,-1,0
1558440999066690,-2,2,-2,-4,-5,-6,-5,-1
1558440999068685,0,-2,-1,-3,-8,-8,-5,-3
1558440999068685,0,-1,-2,-3,10,11,5,1
1558440999068685,1,0,5,5,6,-9,8,4
1558440999068685,0,-1,1,4,-1,4,0,-1
1558440999079650,-4,-3,-4,-10,4,2,-4,-5
1558440999079650,-1,1,0,-4,-4,-9,-1,1
1558440999087628,0,-1,0,0,-5,-8,-6,-3
1558440999087628,-1,-1,2,2,0,4,-1,1
1558440999094615,1,-1,-2,2,-3,-1,0,0
1558440999094615,-1,-2,1,0,0,3,-6,-3
1558440999118552,-2,0,-2,-2,-3,1,-4,-2
1558440999118552,-2,-1,-2,-5,-2,0,3,0
1558440999120547,0,2,3,0,-1,-6,1,3
1558440999120547,-3,-2,-3,1,-3,-2,1,1
1558440999124529,-1,-1,0,2,3,9,1,-3
1558440999124529,-1,-3,-6,-7,-10,-8,-6,-7
1558440999139499,1,-1,-3,1,5,7,6,2
1558440999139499,1,2,1,-1,2,-6,2,4
1558440999156444,-4,-1,-2,-1,-3,-15,-7,-3
1558440999156444,0,-2,-1,-1,3,11,3,0
1558440999157442,-2,-3,-1,-1,-3,-5,-1,1
1558440999157442,-1,-1,-2,-3,-1,3,1,-2
1558440999170478,0,-2,0,0,-4,1,-3,-3
1558440999170478,-3,-2,0,-1,-5,-6,-4,-3
1558440999177392,-3,-2,0,-4,-8,-11,-7,-3
1558440999177392,1,0,0,4,3,6,6,3
1558440999185368,2,2,1,3,16,9,3,2
1558440999185368,-2,0,-2,-6,-2,1,-3,-3
1558440999200362,-2,-2,-7,-6,-2,1,-1,-3
1558440999200362,0,0,2,-4,-11,-20,-7,-3
1558440999208412,-2,-2,-2,-3,-3,1,0,-1
1558440999208412,2,4,6,5,8,9,9,4
1558440999222271,-2,-1,1,1,0,1,-1,-1
1558440999222271,1,1,-1,0,4,-4,2,-1
1558440999230296,-1,-2,-2,-2,-5,2,-2,-2
1558440999230296,-2,-4,-3,2,4,1,-4,-3
1558440999245207,1,1,1,-1,1,2,4,2
1558440999245207,-2,-3,-2,-3,-9,-4,-6,-2
1558440999246206,3,2,-1,0,6,0,2,3
1558440999246206,-5,-4,-2,-3,-4,-2,-6,-2
1558440999260168,-3,-3,2,4,-4,-2,-7,-4
1558440999260168,-2,-2,-1,-3,8,10,6,-1
1558440999268148,1,1,-1,0,2,-12,0,0
1558440999268148,0,0,0,1,-1,-3,-3,-1
1558440999282109,-2,0,-5,-1,2,1,3,2
1558440999282109,1,-2,2,3,-5,0,-3,-2
1558440999290087,-3,-4,-9,-5,-7,7,0,-3
1558440999290087,1,1,-1,-1,1,-7,-2,0
1558440999305108,1,1,1,0,6,-2,3,2
1558440999305108,-2,-1,-3,-2,-5,1,-2,-4
1558440999306048,0,-1,-2,-1,-2,0,0,-1
1558440999306048,0,-1,0,1,7,8,5,0
1558440999320067,-4,-1,-2,-3,-3,-9,-4,-3
1558440999320067,0,0,-3,-10,-2,-6,0,0
1558440999328046,-2,-1,-1,1,-5,0,-1,0
1558440999328046,-2,-1,-4,-5,-5,-3,-7,-4
1558440999341952,1,-2,3,6,8,9,5,0
1558440999341952,-1,-1,2,3,-2,-9,0,1
1558440999350006,-2,0,-4,-8,-5,-6,-5,-2
1558440999350006,-2,0,1,3,8,16,7,0
1558440999365959,-1,-1,-2,-3,0,2,0,-2
1558440999365959,-1,-3,-1,-3,-2,0,-4,-2
1558440999365959,3,-1,2,1,2,0,5,1
1558440999365959,-4,0,-5,-1,-6,-7,-7,-5
1558440999379931,-3,0,1,-2,-6,-2,-3,-2
1558440999379931,-1,-1,0,4,4,12,1,-3
1558440999396849,-2,-1,-4,-9,-12,-16,-5,-1
1558440999396849,0,0,2,-1,-7,-7,-3,1
1558440999402868,1,-1,1,1,12,6,0,0
1558440999402868,1,1,-2,4,5,4,0,1
1558440999410865,0,-4,0,2,0,-1,-4,-3
1558440999410865,0,0,-5,-8,-13,-15,-4,-3
1558440999425727,0,0,-3,-2,-5,-3,-1,0
1558440999425727,-2,-2,-1,3,7,8,3,0
1558440999425727,0,-1,3,1,7,7,2,-1
1558440999425727,0,-3,1,2,0,-5,-1,-1
1558440999456643,1,-2,-4,-6,-6,-7,-3,-2
1558440999456643,-2,-1,1,-5,-3,-6,-1,1
1558440999456643,-3,-1,-2,0,-5,1,-7,-3
1558440999456643,-2,-3,-2,-3,-4,-1,-2,-1
1558440999462632,-1,1,3,3,3,10,4,2
1558440999462632,-2,-1,0,-1,-9,-15,-6,-4
1558440999470903,0,1,0,-1,3,1,4,3
1558440999470903,-1,-2,-3,5,15,23,6,0
1558440999485572,-1,1,0,-1,0,-8,-2,0
1558440999485572,-2,-2,-1,-2,-8,-7,-7,-3
1558440999486562,-2,-1,0,4,-2,-4,-3,-3
1558440999486562,-1,-2,-4,-7,-8,-13,0,0
1558440999499571,-1,-3,-1,0,1,1,-3,-1
1558440999499571,-1,-1,-3,1,5,4,5,2
1558440999508504,-1,-1,0,-1,-4,0,-5,-3
1558440999508504,1,-1,-4,-2,-3,-6,-1,0
1558440999522465,0,-1,-3,-3,2,-4,-2,-1
1558440999522465,-2,-1,3,5,-3,3,-2,-3
1558440999530443,0,-3,-7,-15,-5,4,1,-1
1558440999530443,2,1,6,4,8,14,7,2
1558440999545405,-3,-2,-2,0,-2,-3,-1,-3
1558440999545405,-1,-2,-2,-2,3,-2,1,1
1558440999552385,-2,-3,-1,-1,-10,-11,-6,-3
1558440999552385,-2,-1,0,0,8,7,2,0
1558440999561360,0,1,3,1,-5,-5,-3,0
1558440999561360,1,-1,0,-3,0,6,0,-2
1558440999568342,-4,-1,-2,-2,-4,-14,-5,-3
1558440999568342,-1,-2,-4,-2,-8,-11,-8,-3
1558440999582660,1,2,4,4,8,6,9,5
1558440999582660,-1,-1,-4,-4,-2,1,-3,-3
1558440999590692,-1,-1,-2,3,7,2,3,2
1558440999590692,-2,-1,1,1,0,-6,-5,-1
1558440999605650,-2,-4,-5,-6,-10,-7,-7,-4
1558440999605650,-1,0,0,2,1,1,-1,0
1558440999606645,1,-1,1,5,15,19,8,1
1558440999606645,-2,-2,1,-2,-10,-7,1,-3
1558440999619613,1,1,0,1,4,-4,0,1
1558440999619613,-2,-2,-2,-4,-8,-7,-5,-3
1558440999628589,1,-2,1,1,1,4,2,0
1558440999628589,-1,1,0,1,7,1,1,-1
1558440999642653,0,0,1,7,-4,-4,0,1
1558440999642653,-1,0,-3,-4,-2,-6,-4,-3
1558440999650631,-4,-3,-4,-6,-3,-1,-8,-5
1558440999650631,1,2,1,-1,3,2,3,2
1558440999673467,2,-2,0,-3,0,-2,-3,-2
1558440999673467,1,-3,0,4,2,2,4,2
1558440999674466,1,1,1,2,1,-3,1,1
1558440999674466,-2,-3,-2,-7,-1,2,0,-1
1558440999679459,-4,-2,-4,-3,-2,4,0,-2
1558440999679459,-1,-2,0,-2,-2,-3,-2,-1
1558440999688426,-2,0,3,2,3,6,-2,-1
1558440999688426,0,1,-3,-1,3,2,-2,2
1558440999702434,-3,-1,-4,-2,-3,-2,-1,0
1558440999702434,-1,-3,-3,-2,-3,1,-3,-4
1558440999710368,-2,-1,-2,-2,-7,-13,-1,2
1558440999710368,-3,0,1,0,0,2,0,-1
1558440999725328,-2,0,-3,-2,-3,-3,5,0
1558440999725328,1,3,1,3,2,6,1,1
1558440999726326,-2,-2,0,-3,-3,-7,-4,-4
1558440999726326,-3,-4,-8,-5,-10,-8,-4,-2
1558440999739289,-1,-1,0,1,1,-2,-1,1
1558440999739289,-1,-1,-2,-3,-2,-5,-2,-1
1558440999747274,-1,-1,0,0,0,2,2,-1
1558440999747274,-2,-1,-1,-1,-7,-10,-6,-2
1558440999762236,-3,-3,0,-4,-6,-2,-5,-5
1558440999762236,0,1,1,3,9,17,9,2
1558440999786167,-1,0,-1,-1,-1,0,0,2
1558440999786167,0,-1,1,0,-7,-14,-4,-1
1558440999787165,-2,-2,0,6,6,0,0,0
1558440999787165,-1,-1,-5,-18,1,-5,-5,-4
1558440999793148,0,0,-4,-3,-6,-11,-4,-2
1558440999793148,-1,1,1,1,1,8,6,1
1558440999800232,2,-1,-2,1,2,3,-1,-1
1558440999800232,0,-1,-1,3,1,1,2,1
1558440999807114,0,-1,2,2,-1,5,-2,1
1558440999807114,-3,-3,-4,-3,0,3,-6,-8
1558440999822078,0,0,3,2,0,-2,-2,0
1558440999822078,-2,-2,-4,0,-9,-13,-6,-2
1558440999838137,0,0,0,-3,-2,1,-1,-2
1558440999838137,0,-1,-2,1,1,6,1,0
1558440999845113,-1,0,-3,-1,-3,9,3,0
1558440999845113,-2,-2,0,0,-1,-12,-1,1
1558440999853091,2,1,0,4,6,7,6,3
1558440999853091,-3,-1,0,-1,-2,-4,-4,-3
1558440999859968,-2,1,1,-4,-6,-3,-4,-1
1558440999859968,0,0,1,-1,0,-1,2,2
1558440999868134,-3,-3,-5,-2,-3,-2,-1,-2
1558440999868134,-1,-1,3,1,1,-1,-2,0
1558440999899055,-2,-4,-2,-1,1,3,1,-3
1558440999899055,-1,-1,-2,-7,-5,-2,-5,-4
1558440999899055,-1,1,3,-2,2,-2,0,2
1558440999899055,1,-2,-4,-4,-4,-4,1,-1
1558440999905186,-1,0,-1,-3,3,-3,-1,0
1558440999905186,0,0,5,8,-3,2,1,0
1558440999913012,0,-2,-3,-3,2,7,-2,-3
1558440999913012,0,-1,0,0,8,7,7,3
1558440999920039,1,-1,-1,-5,-7,-15,-5,-1
1558440999920039,-5,-2,-1,0,0,-1,-2,-2
1558440999926975,0,1,1,3,0,-5,-3,-2
1558440999926975,1,-2,0,-1,-5,-8,-6,-2
1558440999942959,1,-1,-1,3,7,7,7,3
1558440999942959,0,-2,-4,-3,0,-1,-4,-2
1558440999951087,-2,-4,-6,-10,-10,-4,-2,-1
1558440999951087,-2,-3,0,1,2,5,-3,-4
1558440999965037,-2,0,3,2,2,3,0,0
1558440999965037,-2,-3,-5,-12,-3,-2,-1,0
1558440999972852,-1,-3,3,3,-5,-9,-3,-2
1558440999972852,-1,-1,1,0,-5,-4,0,-1
1558440999987979,-1,0,-3,-7,-1,2,-2,-1
1558440999987979,-1,1,4,6,9,5,1,1
1558440999988808,-1,-1,-1,1,-2,-5,0,-1
1558440999988808,-2,-2,-2,-5,-1,-4,-5,-1
1558441000002949,2,-1,-2,1,-3,-1,-2,-2
1558441000002949,1,-1,-1,-1,-4,-8,-4,-2
1558441000010962,-1,-3,-4,-5,-9,-6,-2,-1
1558441000010962,3,5,5,4,15,12,13,4
1558441000024720,-2,0,2,5,2,9,5,0
1558441000024720,-1,-3,-5,-8,0,1,-3,-2
1558441000032910,-1,-1,-4,0,-7,-6,-5,-2
1558441000032910,-3,-1,-2,0,0,-1,-6,-5
1558441000047696,-1,-3,-1,-2,-6,-5,-1,-1
1558441000047696,1,-2,0,3,5,-8,-2,2
1558441000048651,-2,-1,1,-1,-4,3,3,0
1558441000048651,-3,-2,-4,0,-3,-3,-6,-3
1558441000062618,-1,-2,-1,0,5,9,1,0
1558441000062618,-4,0,1,2,-7,-2,4,-1
1558441000070598,1,1,2,0,13,2,5,1
1558441000070598,-2,-4,-1,-4,-15,-11,-9,-3
1558441000084551,1,-1,-3,-5,-4,-9,0,-4
1558441000084551,1,2,-1,1,6,6,4,2
1558441000092531,-2,1,-1,4,7,14,6,0
1558441000092531,-2,-1,0,-5,-5,-5,-1,-1
1558441000107490,-5,-3,-3,-3,-10,-10,-6,-2
1558441000107490,1,-1,3,1,5,8,5,1
1558441000108488,-2,-3,-6,-7,-9,-7,-7,-4
1558441000108488,1,-2,-1,2,3,6,1,2
1558441000122450,-2,-1,-4,-5,0,-11,-3,-1
1558441000122450,-1,-2,2,1,-3,-1,-2,-3
1558441000130458,-2,-3,0,-2,-4,1,-4,-3
1558441000130458,-1,-4,-3,-3,-3,0,1,-1
1558441000144764,-1,0,1,0,-4,-7,-4,0
1558441000144764,-4,1,-2,-1,-5,1,-2,-3
1558441000153749,-1,-1,1,0,-2,-7,-6,-4
1558441000153749,-1,-1,-5,-10,-4,-5,1,1
1558441000168696,1,0,1,2,9,2,0,2
1558441000168696,0,-1,0,-2,-2,1,-3,-2
1558441000168696,-2,-2,-2,0,-4,-4,-3,-3
1558441000168696,1,-1,4,4,8,9,6,1
1558441000182662,-2,-2,0,-3,-11,-2,-1,-3
1558441000182662,0,-1,0,2,2,-3,0,2
1558441000191308,-1,0,-2,-2,1,2,0,1
1558441000191308,-2,0,-1,1,5,3,-3,0
1558441000205271,-4,-2,-2,-2,-11,-6,-7,-3
1558441000205271,1,0,1,3,-6,-12,-6,0
1558441000213406,-3,-5,-7,-9,0,-2,-2,0
1558441000213406,1,2,-2,0,-1,1,4,2
1558441000228349,-2,-2,-4,-2,-1,3,-3,-4
1558441000228349,0,-1,3,6,2,3,0,1
1558441000229186,2,0,3,3,3,-6,0,2
1558441000229186,-3,-4,-3,-10,-6,-7,-6,-3
1558441000242140,-2,0,-3,2,-1,6,2,-1
1558441000242140,-2,-1,-3,-3,1,-1,5,-1
1558441000250162,2,0,1,4,1,-2,-4,-2
1558441000250162,1,-2,2,5,4,7,4,1
1558441000265080,-1,-2,-8,-12,-2,-1,-3,-3
1558441000265080,-2,-4,-2,-1,-3,3,-2,0
1558441000273047,-3,1,-1,0,0,3,1,-1
1558441000273047,-2,0,-1,4,-6,-11,-8,-2
1558441000288006,1,1,2,2,6,8,3,0
1558441000288006,-1,-2,-5,-6,-2,-3,-2,-2
1558441000289004,1,-1,1,5,-3,-5,-1,0
1558441000289004,1,1,-1,-4,2,0,2,2
1558441000301971,0,0,2,0,2,-4,-1,-1
1558441000301971,-3,-1,-5,-1,-3,5,-3,-4
1558441000310944,-4,-2,-1,-2,-6,3,0,-2
1558441000310944,0,1,4,3,8,4,5,-1
1558441000324967,-1,0,-1,2,-1,-5,0,-1
1558441000324967,-2,0,0,0,-5,-4,-2,-3
1558441000332921,1,-1,-5,-7,2,-5,0,-2
1558441000332921,-1,-2,-3,2,-10,-6,-3,-2
1558441000347884,0,-1,-5,-9,2,7,3,2
1558441000347884,1,-2,-1,-2,4,0,-2,0
1558441000348878,-1,0,0,0,2,3,1,0
1558441000348878,-1,-2,1,4,-3,-9,-3,-2
1558441000361809,-1,-1,0,-4,-3,1,1,0
1558441000361809,0,-1,1,-1,-1,0,1,2
1558441000370784,0,-1,-4,-2,-2,2,1,-1
1558441000370784,0,-1,0,0,-2,-7,-2,-3
1558441000384805,-1,0,1,7,-2,-10,-8,-1
1558441000384805,-3,-1,-6,-8,-2,-8,-3,-2
1558441000392780,-2,-1,-4,-2,3,8,5,3
1558441000392780,0,-1,-3,-1,-3,4,-2,-3
1558441000407685,-1,-3,-1,-4,0,0,-7,-3
1558441000407685,1,0,2,5,-2,-4,4,1
1558441000408683,2,2,3,6,16,3,2,2
1558441000408683,-2,-2,-5,-11,-7,-4,-3,-4
1558441000422647,-2,-2,-1,5,-3,3,-3,-3
1558441000422647,-1,0,-1,-2,1,0,-3,-1
1558441000430637,0,-2,-2,-3,-5,-3,0,0
1558441000430637,-1,0,0,1,4,-1,1,2
1558441000444622,-1,0,1,1,-4,-4,-6,-3
1558441000444622,0,-2,-3,-6,-4,6,-1,-1
1558441000452600,-2,-3,1,3,-6,-5,-3,-4
1558441000452600,0,2,0,-6,8,4,3,3
1558441000467587,-2,-1,-3,-5,-6,-7,-1,-2
1558441000467587,0,1,1,3,6,2,3,2
1558441000468523,0,0,-1,0,4,9,-1,-2
1558441000468523,-4,-5,-3,-2,-10,-8,-7,-5
1558441000482485,1,-1,-2,-3,-2,-4,-2,1
1558441000482485,0,1,2,-1,-4,-8,0,1
1558441000490465,1,-1,0,2,5,5,4,0
1558441000490465,-1,1,1,-1,1,2,-7,-4
1558441000504435,-2,-1,1,5,1,2,4,2
1558441000504435,-1,-6,-11,-8,-5,-3,-4,-2
1558441000513403,0,1,1,-2,-4,-1,-4,0
1558441000513403,1,1,2,4,4,-3,-2,2
1558441000528363,-2,-2,-1,-3,-5,-5,-1,-3
1558441000528363,-2,-1,0,0,-2,-6,-6,-3
1558441000528363,-2,-2,-1,-8,-3,-1,0,-2
1558441000528363,-1,1,-2,-2,2,-1,2,2
1558441000542327,-1,-1,1,0,2,5,2,-2
1558441000542327,1,-2,0,1,0,7,0,-2
1558441000550304,-2,-3,-2,-3,-6,-4,-10,-5
1558441000550304,-1,0,2,1,-2,-9,-4,1
1558441000565265,2,2,3,3,9,1,8,5
1558441000565265,-4,0,-2,0,-7,-10,-9,-2
1558441000573244,-1,-3,-4,-1,-4,2,2,1
1558441000573244,-2,-4,-1,0,-1,4,2,-1
1558441000588203,-1,-2,-1,-4,-5,2,-1,-1
1558441000588203,2,-1,-2,2,-1,-2,3,1
1558441000588203,0,2,1,4,7,8,2,0
1558441000588203,-2,-2,-3,-3,-8,-4,-5,-2
1558441000602166,-4,-3,-4,-5,1,-6,-8,0
1558441000602166,-2,0,1,3,-3,3,4,-1
1558441000610144,-2,0,2,-1,-4,-6,-2,0
1558441000610144,1,0,-2,-1,5,7,3,-2
1558441000625139,-1,-1,-3,0,-8,-1,-6,-4
1558441000625139,0,0,1,2,7,-2,-1,0
1558441000633109,3,-2,1,2,8,-2,4,2
1558441000633109,-1,-3,0,-5,-4,3,2,-2
1558441000648044,0,-1,-1,-1,-2,-5,-3,-3
1558441000648044,-2,0,-2,-6,-2,-1,-2,1
1558441000649042,-2,-2,-2,-3,-9,-9,-3,-2
1558441000649042,-1,-1,3,9,13,14,6,1
1558441000670982,1,-1,-1,-3,3,3,0,1
1558441000670982,-1,-2,-5,-7,-5,-1,1,-1
1558441000671979,-1,-2,-4,-1,-11,-12,-9,-3
1558441000671979,0,-1,1,-4,-7,-9,-7,-2
1558441000684945,-2,-1,2,2,1,3,4,-1
1558441000684945,1,0,-1,-1,1,-8,0,0
1558441000692922,-3,-2,-2,1,-2,4,0,-1
1558441000692922,2,-2,-3,-2,7,7,2,0
1558441000706887,1,0,1,1,3,4,4,0
1558441000706887,0,-2,-2,0,-3,-6,-5,-4
1558441000715896,-1,-2,-3,-5,-7,-3,2,-1
1558441000715896,-3,-1,-3,1,2,2,-2,-2
1558441000730821,-4,-2,-2,-3,-6,-8,-7,-4
1558441000730821,-2,0,3,3,4,9,2,1
1558441000731818,-1,1,3,1,7,5,4,2
1558441000731818,0,-1,1,-2,-5,-5,-3,-3
1558441000744785,-1,-3,-5,-4,-2,3,2,-1
1558441000744785,-2,-3,-2,0,2,3,0,0
1558441000752762,-1,-1,-2,-1,-3,1,-2,-2
1558441000752762,-1,-1,-3,-2,-8,-9,-2,-1
1558441000767722,-1,0,2,-1,1,-7,-1,-1
1558441000767722,-1,1,2,-1,4,2,2,1
1558441000775701,-1,-1,-2,0,2,6,0,-3
1558441000775701,-2,-3,-4,-2,-11,-6,-7,-4
1558441000782708,4,2,-2,3,6,1,5,4
1558441000782708,-1,-2,2,2,-2,-7,-1,-1
1558441000790662,-1,0,0,-6,2,-3,-1,1
1558441000790662,-3,-1,-5,-4,-3,2,1,-2
1558441000804624,-3,-1,-2,-2,-4,8,-5,-5
1558441000804624,-1,-2,-2,3,-7,-4,-7,-3
1558441000812602,-1,0,-1,1,0,-2,2,0
1558441000812602,1,-1,-1,-6,7,5,1,1
1558441000827564,-1,-2,-1,-3,-8,-13,-4,-1
1558441000827564,-3,-3,-2,-1,-2,2,-2,-3
1558441000835542,-3,-2,0,1,0,4,-1,-3
1558441000835542,-1,0,-3,1,-10,-17,-1,-1
1558441000842560,2,1,-1,1,3,-9,-1,1
1558441000842560,-2,-2,-1,-3,4,2,-1,-2
1558441000850540,0,-2,0,-2,-6,-8,-1,1
1558441000850540,-2,-3,2,3,0,2,0,1
1558441000864491,-2,-1,0,0,4,5,3,2
1558441000864491,-2,-1,-2,-7,-9,1,-3,-3
1558441000873441,-2,-3,-5,-1,-3,-1,0,-1
1558441000873441,-1,1,3,2,-1,-8,-4,-2
1558441000887404,1,-1,-2,2,-3,0,1,0
1558441000887404,-1,-2,-4,-4,1,4,-3,0
1558441000896413,1,3,4,0,8,11,5,1
1558441000896413,0,1,1,-1,1,2,0,-1
1558441000911339,-1,-4,1,-1,-4,-3,-4,-4
1558441000911339,-1,0,-2,1,-6,-2,2,-1
1558441000912336,-3,-2,-4,-4,-11,-10,-8,-6
1558441000912336,1,1,3,2,14,12,7,3
1558441000924305,1,0,1,0,0,-2,-1,-1
1558441000924305,1,-1,0,-2,-1,-1,-1,0
1558441000933281,-2,-2,-3,-6,-8,-9,-6,-2
1558441000933281,-3,-1,-5,2,-2,2,-1,-1
1558441000947242,0,-1,0,0,-2,1,-4,-1
1558441000947242,-1,-1,-3,-4,1,-1,-3,-1
1558441000956224,0,-4,-1,-4,-5,-4,-5,-2
1558441000956224,-3,-2,-3,-3,-9,-5,-4,-1
1558441000971217,0,-1,1,4,9,4,6,1
1558441000971217,1,3,5,3,5,-5,3,2
1558441000972176,0,-1,-6,-1,2,4,2,-2
1558441000972176,-1,-4,-5,-7,-5,3,-1,-4
1558441000985140,-3,-2,-2,-3,-9,-13,-7,-3
1558441000985140,1,1,3,1,5,0,2,1
1558441000994117,-1,-3,-2,-8,-1,4,0,1
1558441000994117,2,1,0,0,7,3,7,5
1558441001007082,-1,-3,-2,-2,-5,-2,-1,0
1558441001007082,-3,-1,-1,4,3,7,-2,-2
1558441001016059,0,-2,-3,-2,-1,-1,-1,0
1558441001016059,0,0,2,1,-6,-6,-3,1
1558441001031053,-2,0,-1,-2,2,1,-2,-2
1558441001031053,-1,-4,-1,-1,-6,-6,-2,-2
1558441001033016,0,1,1,1,-3,-2,-4,-3
1558441001033016,-1,-3,-2,-2,4,10,6,1
1558441001044981,0,2,3,3,2,-8,0,1
1558441001044981,-2,-2,-7,-6,-8,-12,-7,-2
1558441001053958,-1,-1,-4,3,7,7,4,1
1558441001053958,-2,-3,-2,-1,-6,-7,-8,-4
1558441001066961,-1,-2,-4,-6,-7,4,-2,-2
1558441001066961,0,-2,0,1,-2,-3,1,-2
1558441001075898,0,1,3,1,5,-4,-3,-1
1558441001075898,-3,-1,-1,-4,-5,-4,1,1
1558441001090916,-1,1,0,1,10,17,4,2
1558441001090916,-3,0,4,7,-1,-9,-3,-1
1558441001098866,-2,-2,-5,-12,-7,-1,2,0
1558441001098866,-3,-2,-2,-3,-4,-5,-7,-5
1558441001104821,1,-1,-1,-4,-8,-1,-2,-3
1558441001104821,1,-1,-5,-2,6,15,5,0
1558441001113800,1,1,6,6,4,-10,1,1
1558441001113800,-1,0,-6,-4,-6,-8,-3,0
1558441001126763,-1,-1,1,6,-1,3,-1,-3
1558441001126763,-1,-3,-2,-9,-1,-7,-5,-1
1558441001135738,-2,-1,1,4,1,8,1,0
1558441001135738,0,0,0,0,-6,-16,-10,-2
1558441001150698,-2,-1,1,3,3,-2,1,1
1558441001150698,0,-5,-4,-7,-2,2,1,-1
1558441001157680,0,0,-1,-1,-3,1,0,-3
1558441001157680,1,0,3,3,0,3,3,2
1558441001164661,-3,-1,-2,-3,-1,-10,-1,-2
1558441001164661,0,0,2,3,0,-2,-2,-2
1558441001173637,-1,-3,-2,-1,-4,-9,-10,-3
1558441001173637,-3,-1,0,-1,-5,1,-3,-3
1558441001187599,1,0,-2,-2,5,5,2,2
1558441001187599,-4,-4,-9,-5,-1,-1,-2,-3
1558441001202559,3,-1,0,5,-2,-3,4,3
1558441001202559,-2,-2,-1,-12,1,7,1,-2
1558441001209541,-2,0,-1,2,-6,-8,-5,-2
1558441001209541,-1,2,0,2,-4,0,1,0
1558441001218517,-2,-1,0,-4,-6,-4,0,-2
1558441001218517,0,-1,1,4,11,9,4,0
1558441001224501,-2,-4,-4,-6,-3,-2,-4,-3
1558441001224501,0,2,1,3,5,2,2,3
1558441001233477,-1,-3,0,1,1,-9,-9,-3
1558441001233477,1,1,4,3,3,4,6,1
1558441001247440,-1,0,2,4,4,8,1,-3
1558441001247440,-3,-5,-12,-12,-9,0,-3,-2
1558441001256416,-1,0,5,1,3,1,2,1
1558441001256416,0,1,-2,2,-6,-14,-6,-2
1558441001269380,-2,0,-7,-3,2,2,1,0
1558441001269380,0,1,4,4,1,-3,1,0
1558441001278389,0,1,0,0,-4,4,0,-2
1558441001278389,-2,-5,-6,-5,-5,-8,-5,-2
1558441001284340,-2,-2,0,-1,-1,6,5,-1
1558441001284340,1,0,3,1,-1,-4,-2,-1
1558441001301297,-1,-2,0,1,5,-6,0,1
1558441001301297,4,2,7,6,4,8,2,-2
1558441001307279,-1,1,-4,2,-2,-2,-5,-3
1558441001307279,-3,-4,-6,-7,0,2,1,-2
1558441001316256,-3,-1,2,-1,-4,6,0,-3
1558441001316256,-2,-3,-6,-3,-8,-3,0,-1
1558441001330219,2,0,4,-1,-1,-11,-2,2
1558441001330219,-2,1,5,-2,-1,2,-4,-2
1558441001339194,-3,-3,-7,1,-2,-4,-1,-2
1558441001339194,0,0,0,-2,5,2,0,1
1558441001345179,0,-1,-1,-5,0,-9,-3,2
1558441001345179,2,-1,2,0,-4,9,1,-2
1558441001353156,1,-1,-5,-1,-2,1,-2,-2
1558441001353156,1,-1,-1,-1,-3,-11,-5,-2
1558441001367119,-1,0,-2,-3,-1,4,5,1
1558441001367119,-1,-3,-5,0,0,-6,-3,-1
1558441001376095,0,1,6,3,5,3,3,2
1558441001376095,0,-3,-1,0,0,3,-1,-1
1558441001390058,-2,0,-4,-3,-5,2,-3,-3
1558441001390058,-1,-2,-3,-1,-1,1,4,-1
1558441001399034,0,0,-1,1,-2,-23,-5,-1
1558441001399034,0,0,-2,-6,1,10,2,-1
1558441001405018,-2,-1,2,0,-2,0,-5,-1
1558441001405018,-5,-5,-2,-3,1,9,4,0
1558441001413994,-1,-2,-1,-1,4,0,1,0
1558441001413994,-1,-1,0,-4,-6,-13,-5,-1
1558441001426960,0,-4,-5,-4,-2,4,2,-1
1558441001426960,1,4,7,5,1,-2,3,2
1558441001435936,-3,-1,0,-3,-2,-13,-6,-2
1558441001435936,-1,-4,-3,4,2,4,2,-2
1558441001449908,-2,-3,-3,-5,-3,5,-1,-2
1558441001449908,-2,-3,-3,-2,-3,2,-4,-2
1558441001458873,0,1,3,-1,-2,5,2,1
1558441001458873,-2,0,2,3,5,0,-2,-2
1558441001464885,0,0,-2,-2,2,-4,3,1
1558441001464885,-1,0,4,2,1,-9,-4,-5
1558441001473847,-2,-3,-9,-4,-9,9,0,-3
1558441001473847,1,-1,0,0,-3,-2,1,1
1558441001486799,0,-3,-5,-10,0,3,1,0
1558441001486799,0,1,1,3,-4,-11,-8,-3
1558441001495776,-4,-3,0,-5,-12,-2,-5,-4
1558441001495776,-1,-1,-4,-3,7,8,5,2
1558441001509738,0,-1,3,7,5,-5,1,2
1558441001509738,-1,-1,3,-1,-5,-4,-2,-1
1558441001518715,-3,-2,-4,-5,0,0,-7,-2
1558441001518715,-1,0,-4,-4,-7,7,0,1
1558441001524705,1,-1,6,8,7,-4,1,0
1558441001524705,0,-1,-6,-7,-4,-13,0,2
1558441001533764,2,1,0,3,4,5,4,1
1558441001533764,1,-1,-3,-8,1,2,-3,-1
1558441001547637,-3,-3,-5,-7,-9,1,-6,-3
1558441001547637,0,3,2,2,0,-7,1,0
1558441001556616,-3,-2,-2,1,2,3,3,-2
1558441001556616,-1,-1,2,2,-2,-12,-1,-1
1558441001570636,-3,-2,-1,-3,-8,-6,-10,-7
1558441001570636,-2,-5,2,3,-5,3,-1,-3
1558441001578665,2,0,-8,-14,-3,-2,0,0
1558441001578665,-2,-1,0,2,7,9,-1,-3
1558441001585536,-1,2,8,6,0,-6,3,0
1558441001585536,-1,-4,-6,-6,-1,-12,-7,-2
1558441001593858,-3,-4,-5,-3,-4,0,-3,-1
1558441001593858,-2,-2,-3,2,1,9,4,0
1558441001608480,-1,-3,-6,-3,-5,-14,-4,-3
1558441001608480,1,2,4,7,6,13,4,2
1558441001616454,-1,-1,7,1,1,-1,-1,-1
1558441001616454,0,-3,-7,-5,-3,-3,-3,-1
1558441001629473,-1,0,1,6,-4,-6,-4,1
1558441001629473,-2,-1,1,-3,2,6,0,1
1558441001638394,-1,-3,-6,-7,-4,-5,-1,-1
1558441001638394,1,0,2,3,0,-7,-4,-2
1558441001644434,1,0,-2,-3,7,14,5,0
1558441001644434,0,2,8,0,2,-8,-2,0
1558441001653685,-4,-3,-9,-1,-6,1,-4,-3
1558441001653685,-1,0,1,-1,0,-5,0,4
1558441001667641,-1,0,1,-2,-5,-4,-1,0
1558441001667641,0,1,-2,-3,-2,8,1,0
1558441001676292,4,1,5,8,18,20,10,4
1558441001676292,-2,0,2,1,-1,-10,-5,-1
1558441001690256,-2,-3,-7,-8,-4,-1,-3,-2
1558441001690256,0,-3,-5,0,-7,-6,-1,-1
1558441001698564,1,0,4,4,0,-8,-6,-3
1558441001698564,-3,-5,-9,-14,-11,-1,-4,-4
1558441001705220,-3,1,3,1,4,3,3,0
1558441001705220,-2,-2,-3,-2,-7,1,-4,-4
1558441001713560,-2,-2,-3,-2,-5,-7,-4,0
1558441001713560,2,3,2,2,11,3,10,6
1558441001727464,-2,-1,2,6,-5,-6,-8,-4
1558441001727464,0,0,0,-4,1,2,1,-2
1558441001736311,0,-1,-7,-7,-7,3,0,-1
1558441001736311,-2,1,3,5,1,-2,1,-1
1558441001750144,-2,-3,-9,-8,0,3,-3,-2
1558441001750144,-4,-5,0,0,0,2,1,-3
1558441001759092,0,-1,7,4,-7,-23,-7,-1
1558441001759092,1,-2,-7,-7,-4,2,-2,-3
1558441001773124,1,2,2,3,2,5,4,2
1558441001773124,-3,-3,-5,-4,-3,-4,-5,-3
1558441001775121,-2,0,-3,4,2,1,2,2
1558441001775121,-1,2,12,7,5,3,2,0
1558441001787142,-3,-3,-11,-14,-6,-5,-4,-3
1558441001787142,-1,0,-5,2,-5,-8,1,1
1558441001796063,1,1,1,1,9,7,3,1
1558441001796063,-1,-1,5,6,-8,-10,-5,-3
1558441001810075,-1,-1,4,3,2,4,0,-2
1558441001810075,0,0,-10,-2,4,15,6,2
1558441001819005,-4,-4,-1,-4,-4,1,-1,-5
1558441001819005,0,1,0,-4,-2,-7,-2,-1
1558441001833965,-1,-1,4,4,-5,-11,-2,0
1558441001833965,-2,-1,2,1,1,5,1,0
1558441001835956,-1,0,-5,-4,1,-4,-2,-3
1558441001835956,0,0,1,2,-4,-2,-5,-3
1558441001846928,-3,-4,-6,-9,-1,-1,0,0
1558441001846928,1,-2,2,0,3,-12,-5,-1
1558441001855903,-3,-1,-2,1,-6,-3,-2,-1
1558441001855903,-3,-3,-3,-5,-3,1,-3,-2
1558441001870056,2,0,-4,2,7,9,6,1
1558441001870056,0,0,3,0,-1,3,-1,0
1558441001878603,0,0,0,4,4,5,-2,0
1558441001878603,-4,-3,-3,-14,-7,-4,-3,-1
1558441001893762,1,2,2,3,1,-2,4,5
1558441001893762,-2,0,-3,-3,3,-4,-4,-1
1558441001894563,-1,-1,2,-3,-2,3,4,-1
1558441001894563,-1,1,-2,3,-3,-5,-6,-3
1558441001907716,-4,-3,-2,-2,-5,-5,-5,-3
1558441001907716,0,1,2,-1,-3,-5,-1,0
1558441001916504,-1,0,-2,-7,-2,-8,-6,-3
1558441001916504,-2,-3,-5,0,0,3,1,-1
1558441001930549,0,-3,3,2,-5,0,-1,-2
1558441001930549,1,1,-7,-8,0,-12,0,2
1558441001938447,0,-2,4,-1,-1,5,3,-2
1558441001938447,-1,-2,-6,1,-3,2,-4,-3
1558441001953485,0,0,-1,-3,4,4,-3,-2
1558441001953485,-1,-2,3,2,-2,6,5,1
1558441001955405,0,-1,-4,1,4,-1,-2,1
1558441001955405,1,-1,4,2,0,3,2,-1
1558441001967456,-3,-2,-2,2,7,-4,-4,1
1558441001967456,-4,-2,-8,-10,-10,-4,-7,-5
1558441001976345,0,-1,-2,1,-6,5,4,1
1558441001976345,1,-1,5,2,-2,-15,-5,-2
1558441001990308,-3,0,2,3,-3,2,0,-2
1558441001990308,-1,-2,-3,2,3,-7,3,0
1558441001998373,-2,-3,0,-5,1,2,0,0
1558441001998373,-2,-2,-4,-1,-5,0,-1,0
1558441002021451,-1,-1,-2,-1,-6,-2,-7,-5
1558441002021451,-2,-1,-4,-2,-2,2,-4,-4
1558441002022355,1,5,4,4,11,3,12,6
1558441002022355,-2,0,2,1,-1,2,1,-3
1558441002027400,-1,-2,-6,-6,-8,-12,-5,-2
1558441002027400,2,-2,3,0,5,11,1,-2
1558441002036319,-2,-3,-2,3,-1,-6,-4,-1
1558441002036319,-1,-3,-5,-8,-5,-4,1,1
1558441002049345,1,1,1,0,7,6,5,2
1558441002049345,-1,-1,-3,0,-4,4,-4,-1
1558441002058392,-3,-2,-3,-7,-12,-6,-8,-6
1558441002058392,3,2,1,2,6,4,7,4
1558441002073334,-2,0,2,-2,-1,-11,-6,-1
1558441002073334,0,0,6,4,3,2,0,0
1558441002075329,-3,-1,-2,4,3,-2,-1,-1
1558441002075329,-3,-1,-9,-14,-10,-1,-1,-2
1558441002087335,-2,-1,-3,-5,1,6,3,0
1558441002087335,-2,-2,3,6,1,-1,1,0
1558441002103300,-1,1,2,-3,-3,-4,-4,-3
1558441002103300,1,-2,4,1,2,0,-1,1
1558441002110236,1,1,-5,-1,-3,5,2,1
1558441002110236,0,-2,-6,-8,-4,-2,-1,-1
1558441002118257,-3,-2,-5,-6,-1,3,1,0
1558441002118257,0,-2,1,7,5,-6,0,1
1558441002133218,3,0,2,1,4,7,1,-1
1558441002133218,1,-1,1,-1,-6,-5,-4,-2
1558441002140156,0,0,4,2,-1,-8,-5,-2
1558441002140156,-2,0,-4,-4,2,3,2,1
1558441002147181,-2,-2,1,0,3,-6,-2,0
1558441002147181,-2,-1,-3,-5,1,2,-3,-2
1558441002156115,-3,-5,-10,-4,-5,-2,-2,-1
1558441002156115,-1,-1,2,5,4,5,4,0
1558441002170078,-2,-4,-2,-3,-3,3,0,-3
1558441002170078,-1,-1,0,1,-3,-3,-2,-1
1558441002179051,1,0,4,1,3,-10,-5,-1
1558441002179051,-4,-3,-7,-5,-16,-12,-11,-5
1558441002192020,-1,-1,-2,-2,5,8,7,0
1558441002192020,1,-2,-6,-8,1,-2,4,0
1558441002200993,-1,-1,2,-1,1,10,3,0
1558441002200993,-1,-2,-2,-3,-7,-7,-7,-4
1558441002206980,1,-1,2,1,-3,-3,-3,-2
1558441002206980,-2,0,3,5,2,-3,-1,3
1558441002231910,0,0,-4,-3,-3,-1,-1,-2
1558441002231910,-2,1,3,-1,8,10,2,1
1558441002232907,-4,-5,-9,-3,-18,-11,-13,-7
1558441002232907,0,1,3,5,11,16,11,4
1558441002238891,2,0,1,-4,2,-3,5,1
1558441002238891,-2,-1,-1,3,-3,-2,-6,-4
1558441002251857,1,3,5,1,2,-5,0,4
1558441002251857,-6,-2,-7,-7,-11,-8,-9,-6
1558441002260833,1,1,1,4,-4,-5,-10,-3
1558441002260833,0,-3,0,-1,13,20,13,1
1558441002283965,1,-3,-8,-8,-4,-20,0,-2
1558441002283965,1,-1,-1,0,-6,-4,-4,-1
1558441002284857,0,1,0,1,-5,2,-4,-3
1558441002284857,1,0,2,5,3,2,-3,-1
1558441002289755,-1,0,2,-6,5,6,2,1
1558441002289755,-3,-3,-2,0,0,2,0,-1
1558441002298931,-1,-3,0,-1,-3,-4,1,2
1558441002298931,2,2,-3,-3,4,-2,0,-1
1558441002311896,-2,-1,2,2,2,8,1,-2
1558441002311896,0,-1,-3,-1,-6,-8,-2,-3
1558441002337916,-3,-1,0,0,3,-3,-2,-2
1558441002337916,-4,-3,-7,-3,-3,-7,-1,-2
1558441002338824,-3,0,-1,-1,-1,6,4,-1
1558441002338824,0,0,1,-3,-3,-3,-6,-4
1558441002341857,-1,-2,-3,-3,-1,0,-1,0
1558441002341857,-3,-2,1,5,2,-6,0,0
1558441002349841,0,-1,1,-2,-7,-3,-6,-2
1558441002349841,-3,-2,-3,-3,0,6,0,-3
1558441002358773,-2,-2,-2,2,-4,-4,0,1
1558441002358773,0,1,-2,-5,7,6,0,2
1558441002373732,-3,-2,-7,-5,-8,-3,-5,-4
1558441002373732,-2,0,2,3,3,10,5,1
1558441002374776,1,2,3,0,11,10,5,0
1558441002374776,-1,-4,-2,-3,-11,-14,-6,-3
1558441002396698,0,0,0,-2,6,-3,2,1
1558441002396698,-1,-2,1,5,1,3,2,0
1558441002397667,-2,-2,-3,-3,0,1,0,-2
1558441002397667,-2,-1,0,-3,-6,-2,-1,0
1558441002410753,1,1,-3,2,-3,1,-2,-1
1558441002410753,0,-2,-1,-8,-2,-8,-3,0
1558441002418610,0,-1,0,-3,-3,-3,0,-2
1558441002418610,-1,-1,-2,1,3,-7,-6,-2
1558441002434782,-5,-4,-2,2,-1,3,2,-2
1558441002434782,1,0,0,-1,4,-5,-1,0
1558441002435564,4,0,0,1,5,14,7,1
1558441002435564,-1,-1,2,1,0,5,1,2
1558441002447660,-1,-2,-5,-4,-5,-8,0,0
1558441002447660,-1,-1,-1,-3,3,3,-3,-3
1558441002456509,-2,-3,-3,-2,-3,-6,-5,-2
1558441002456509,-3,0,1,-2,-2,-3,-4,-4
1558441002469562,3,3,8,3,11,5,9,5
1558441002469562,-1,-2,-7,-11,-8,0,0,0
1558441002478449,-4,-1,2,-1,-6,-10,-6,-3
1558441002478449,0,-2,-3,-4,2,3,3,-1
1558441002509408,-1,-1,-1,4,-6,-14,-8,-1
1558441002509408,0,-1,-2,3,-6,-3,-5,-3
1558441002510366,-1,0,-4,-7,-1,9,0,-3
1558441002510366,-4,-1,-1,-3,-6,-2,-4,-5
1558441002511369,0,-1,-1,0,-8,-8,-4,-1
1558441002511369,-2,-1,-1,2,15,5,8,6
1558441002522334,-1,-2,-1,3,2,1,1,2
1558441002522334,-3,-4,-1,0,-7,3,-6,-4
1558441002529354,-3,-3,-4,-9,-9,-2,-7,-4
1558441002529354,0,-1,4,4,3,-7,4,2
1558441002538296,-1,-3,-4,-8,-3,2,-4,-4
1558441002538296,0,1,-2,1,0,1,3,2
1558441002561234,1,-1,4,0,8,1,-3,2
1558441002561234,-2,0,-1,-4,-4,-5,-5,-4
1558441002562232,-1,-1,1,6,2,3,1,-1
1558441002562232,2,0,-5,-3,0,-2,2,1
1558441002567218,-2,-2,-6,-6,-4,8,-1,-3
1558441002567218,0,-1,0,3,-5,-10,-4,-1
1558441002576190,0,0,2,1,-3,-10,-4,1
1558441002576190,-2,0,-1,-3,-3,0,-1,1
1558441002590177,-1,-1,-7,-5,1,-2,0,0
1558441002590177,-2,-2,0,2,-1,1,-3,-1
1558441002598130,-2,-3,0,-3,-2,-5,-5,-4
1558441002598130,1,-2,-2,-7,-9,-10,-5,-5
1558441002613124,2,-1,3,7,7,7,9,3
1558441002613124,0,0,0,-3,0,6,2,0
1558441002620070,-3,-1,-1,-2,-4,-9,-6,1
1558441002620070,-2,0,-3,-3,-3,-7,-5,-1
1558441002627053,0,-2,0,0,0,-1,-3,-1
1558441002627053,-1,0,-4,-2,-3,0,1,-3
1558441002636028,0,0,-1,0,-1,5,2,0
1558441002636028,0,-2,-2,-1,-1,-3,-2,-1
1558441002649991,-1,-3,0,-2,-5,-1,-3,-3
1558441002649991,-1,-1,-2,-2,2,-4,-1,-1
1558441002666029,-2,-1,0,-1,6,5,6,1
1558441002666029,3,0,-3,-5,2,4,4,2
1558441002672931,-2,0,1,1,0,0,-1,-3
1558441002672931,0,-2,1,5,1,0,0,1
1558441002680108,-2,-2,-6,-5,-9,-6,-4,-3
1558441002680108,1,0,2,0,-1,7,4,1
1558441002687094,-3,1,2,3,10,3,0,2
1558441002687094,-1,-1,0,-1,-3,-7,-4,2
1558441002695983,-2,-1,-4,-2,1,7,7,0
1558441002695983,-2,-5,-5,-3,-6,-8,-9,-5
1558441002725826,-1,-2,3,5,3,5,2,1
1558441002725826,-2,1,-1,-5,-6,-8,-7,-1
1558441002727786,-2,-1,4,6,-1,-5,-6,-1
1558441002727786,-1,1,-6,-4,3,13,6,1
1558441002732807,-1,0,-1,-3,-4,-14,-5,-1
1558441002732807,0,-2,0,1,6,0,3,0
1558441002739754,0,-1,0,1,-2,-12,-2,0
1558441002739754,-2,-2,3,6,6,8,3,0
1558441002755713,-1,-3,-1,-4,-9,0,-6,-2
1558441002755713,1,1,3,-2,0,-3,-2,-2
1558441002757706,-1,-3,-11,-5,-2,8,2,-1
1558441002757706,-2,-2,4,-1,-1,-13,-3,-3
1558441002778694,-1,0,-5,-5,-4,4,5,1
1558441002778694,1,0,2,4,1,-5,-1,-1
1558441002779647,0,-2,-1,-4,-4,-2,-4,-1
1558441002779647,0,-1,0,1,2,-4,-1,-1
1558441002792611,-2,-3,-1,3,-6,-7,-7,-3
1558441002792611,-3,-2,-5,-6,-6,7,1,-1
1558441002799591,-3,-1,-7,-7,-4,-5,-3,-3
1558441002799591,-1,-2,0,-2,-3,2,1,-2
1558441002815549,-1,2,4,5,7,1,1,0
1558441002815549,-3,-4,-6,-4,-5,-6,-5,-2
1558441002817544,0,0,3,0,0,0,0,1
1558441002817544,0,-1,-4,3,1,-1,-3,-2
1558441002829511,0,-2,-1,-3,-3,0,-1,-2
1558441002829511,-1,-2,-1,-3,-2,-7,-2,-2
1558441002838487,-1,0,0,-3,-2,-1,3,3
1558441002838487,1,2,2,3,8,3,2,3
1558441002853574,0,0,-4,-3,0,4,-2,-3
1558441002853574,0,-2,-5,-3,-5,6,-2,0
1558441002859627,-2,1,3,4,-9,-25,-10,-2
1558441002859627,-3,-2,-7,-14,-7,4,3,1
1558441002876582,1,0,3,1,8,7,4,1
1558441002876582,-4,-1,-2,2,1,-3,0,-2
1558441002877425,0,0,4,7,7,11,2,-3
1558441002877425,0,1,0,-4,-3,-9,-8,-3
1558441002889351,-1,1,-2,-2,-10,-15,-2,0
1558441002889351,1,0,-1,1,11,10,5,2
1558441002898328,-2,-4,-4,-3,-3,1,-1,-2
1558441002898328,0,-3,2,3,2,-5,-5,-2
1558441002913359,-4,-6,-6,-7,-8,8,4,-2
1558441002913359,1,2,4,5,7,2,4,1
1558441002919349,-1,0,-2,-4,1,3,4,-1
1558441002919349,-3,-2,1,5,-1,-4,0,0
1558441002943207,-1,0,-2,-3,4,6,3,0
1558441002943207,0,0,-4,-5,-12,-15,-4,0
1558441002945202,0,0,2,8,10,12,6,1
1558441002945202,2,0,1,0,-2,-1,-3,-2
1558441002949219,-2,-1,-7,-6,-6,-9,-5,-5
1558441002949219,0,-2,1,-3,-2,1,4,0
1558441002958169,0,1,0,1,-2,-4,-5,1
1558441002958169,-3,-2,-1,-3,-5,-1,-1,1
1558441002973161,1,-2,-1,0,2,-4,0,0
1558441002973161,-1,-2,0,-1,-1,6,1,-2
1558441002980120,-1,-1,-2,-4,2,-3,-4,-3
1558441002980120,-1,-1,0,-2,-4,-3,0,-1
1558441003004079,-6,-2,-5,4,-4,2,-7,-3
1558441003004079,0,-3,-3,0,-1,1,-2,0
1558441003005041,-2,-1,-2,-7,-1,-2,3,1
1558441003005041,0,-2,2,3,-3,-2,-5,-4
1558441003010252,0,0,0,6,0,-7,-1,1
1558441003010252,0,-1,0,-4,4,-1,-4,1
1558441003019006,-1,-2,-1,-1,-1,-2,-3,-2
1558441003019006,0,-2,-1,-2,-4,2,-3,-2
1558441003032967,-1,-2,1,0,2,9,2,-2
1558441003032967,-1,1,2,-1,0,-12,0,2
1558441003039950,1,0,0,-1,0,3,0,0
1558441003039950,-1,-1,-5,-2,-7,-7,-2,0
1558441003063884,3,1,1,-1,9,0,3,4
1558441003063884,-1,-3,-1,2,-3,6,-2,-2
1558441003064881,-1,-1,0,2,-6,-2,-3,-2
1558441003064881,-1,-1,-1,-6,-3,-14,-5,-2
1558441003069870,-1,2,1,0,2,8,7,1
1558441003069870,-1,-1,-4,0,3,5,-2,-3
1558441003078844,-1,-1,-1,2,-2,-4,-4,0
1558441003078844,-3,-2,-4,-6,3,-1,2,0
1558441003092810,-2,-2,0,0,-6,-10,-3,-2
1558441003092810,-3,-2,-2,-1,-4,-1,-2,-2
1558441003116744,1,-2,1,-1,0,8,0,-1
1558441003116744,0,1,0,3,8,6,5,2
1558441003117742,-2,-3,1,-1,-10,-10,-9,-4
1558441003117742,-3,-1,-7,-8,-5,2,0,0
1558441003118737,0,1,0,-4,3,5,4,-2
1558441003118737,-1,1,1,10,-2,-2,1,-1
1558441003129709,0,-1,-2,-10,4,-1,-4,0
1558441003129709,-1,-2,0,0,-4,-4,-6,-5
1558441003138685,-2,-3,-6,-2,-9,-12,-8,-2
1558441003138685,2,2,5,3,5,15,9,1
1558441003152663,-1,-4,-5,-1,-8,-3,-8,-4
1558441003152663,1,-1,2,1,-4,-10,-1,0
1558441003167608,-2,1,-2,-3,9,7,5,3
1558441003167608,-4,-4,-3,0,-8,-3,-5,-3
1558441003176626,4,1,3,-1,3,0,4,0
1558441003176626,-2,-1,-2,-2,0,-3,-4,-2
1558441003177581,-3,-1,-4,-1,-6,-5,-2,-1
1558441003177581,-3,0,-7,-7,1,7,1,0
1558441003189549,-1,-2,2,2,-5,-3,-3,-1
1558441003189549,-2,-2,-4,-7,7,12,9,2
1558441003198524,-1,0,-1,-4,-6,-8,-5,-4
1558441003198524,-1,-2,0,1,2,3,2,0
1558441003212486,-1,-1,1,3,8,-6,-1,-1
1558441003212486,0,0,-1,1,-9,-4,-6,-3
1558441003219473,-4,-3,-3,-3,-1,1,-2,-1
1558441003219473,-1,-3,-3,-3,-5,-3,-3,2
1558441003243406,-3,0,-1,0,4,5,2,3
1558441003243406,0,2,7,8,3,-2,3,3
1558441003245402,0,-3,-8,-1,-4,-6,-2,-1
1558441003245402,0,-3,-7,-10,-4,-8,-6,-3
1558441003249391,1,-1,-2,-1,1,9,4,-2
1558441003249391,1,1,-1,1,6,7,2,0
1558441003258367,1,1,5,5,1,-7,0,2
1558441003258367,-1,0,4,0,0,-5,-6,-2
1558441003273330,-2,-2,-7,-6,-7,-2,0,-5
1558441003273330,-1,1,4,7,3,0,2,-1
1558441003279308,-2,-1,0,-6,-4,-10,-5,-1
1558441003279308,1,-2,-3,-1,-1,-5,-4,-1
1558441003296265,-3,-3,-4,-1,-8,-2,-7,-4
1558441003296265,-1,0,-1,-3,6,15,6,2
1558441003297261,-1,-3,-8,-10,-4,-7,0,-1
1558441003297261,0,-2,1,2,-4,-5,-6,-4
1558441003309229,-1,1,2,5,1,-3,1,0
1558441003309229,-1,-1,5,3,1,-2,1,1
1558441003318250,0,0,-1,7,3,6,-1,0
1558441003318250,-1,-1,-6,-17,1,7,2,0
1558441003333164,-3,-1,-2,-3,-7,-2,-8,-3
1558441003333164,-1,-3,-3,-3,-7,-10,-4,-4
1558441003340146,-1,0,1,-1,5,5,3,-2
1558441003340146,-3,-1,3,3,-5,-4,-3,-4
1558441003356104,2,1,5,2,6,-1,2,1
1558441003356104,0,-1,-4,-9,-3,-9,-7,0
1558441003357110,-2,-2,-1,-1,-5,1,-1,-2
1558441003357110,-2,2,0,6,5,2,4,-1
1558441003370248,-1,-1,1,-9,-6,-2,-2,-3
1558441003370248,-3,-4,-11,-4,-8,-5,-7,-5
1558441003379043,0,-2,2,-3,2,5,3,0
1558441003379043,0,-2,-4,1,-1,-7,-1,1
1558441003392008,1,1,-1,2,4,7,7,3
1558441003392008,-3,-1,0,1,-8,-9,-4,-1
1558441003400982,0,0,-6,-11,0,4,-5,-2
1558441003400982,-1,-2,-2,3,0,5,0,0
1558441003415942,-1,-2,-1,-3,-2,-8,-1,1
1558441003415942,1,-1,2,0,6,6,3,0
1558441003417945,-3,-4,-4,-5,-6,-7,-6,-4
1558441003417945,-2,-2,-1,3,-4,-2,-2,-3
1558441003429993,-1,1,-3,-3,-1,-1,-1,1
1558441003429993,1,0,-3,-2,4,3,-1,-1
1558441003438882,-2,-1,0,5,-1,-2,2,1
1558441003438882,0,0,0,-3,1,-5,-4,-3
1558441003451849,-3,-2,-4,-3,-8,-4,-6,-4
1558441003451849,-2,-3,-2,-5,-8,-8,-2,-1
1558441003460823,0,1,6,6,6,8,5,1
1558441003460823,1,-1,-3,-1,4,-3,4,1
1558441003475783,-2,-3,-3,0,-3,-1,-4,-3
1558441003475783,-2,-2,-2,0,-2,-5,-2,-4
1558441003477780,-1,-5,-2,-2,-4,-3,0,-2
1558441003477780,0,3,5,0,3,-3,0,3
1558441003489746,0,-1,-4,-2,3,4,3,0
1558441003489746,-3,0,-2,-3,-3,4,-4,-2
1558441003498722,-3,2,0,5,0,3,0,-2
1558441003498722,-1,-2,0,-7,-2,-5,3,0
1558441003511697,-1,-1,2,4,1,2,0,0
1558441003511697,-2,-2,-1,-2,-2,4,0,-3
1558441003520756,-1,-2,-3,-3,-3,-3,-6,-4
1558441003520756,-1,1,4,12,6,9,2,3
1558441003535624,-2,-1,1,-6,-3,-9,-5,-3
1558441003535624,-2,-3,-3,-6,-9,-8,-3,-1
1558441003542604,2,-1,-2,4,6,4,0,-1
1558441003542604,0,0,-3,-11,-4,2,0,-1
1558441003549586,-2,-4,-6,-8,-3,-3,-3,0
1558441003549586,-1,0,1,7,4,4,-2,-1
1558441003558562,1,-2,0,-1,-4,-14,-7,-3
1558441003558562,-1,0,3,2,7,11,6,-1
1558441003572542,0,1,-2,3,5,3,1,0
1558441003572542,-1,1,1,0,0,1,4,0
1558441003581500,-1,-1,-4,-9,-7,-6,-3,-1
1558441003581500,-1,-2,0,6,-5,-10,-7,-2
1558441003595464,-1,0,-4,-11,2,-1,3,2
1558441003595464,0,-1,1,-2,-1,4,1,0
1558441003602503,-2,-2,1,0,-2,2,0,-1
1558441003602503,-1,-1,-2,0,-6,-14,-7,-3
1558441003609425,2,0,4,4,4,11,9,3
1558441003609425,1,1,1,-1,6,-3,-2,0
1558441003618401,-1,0,0,-2,-1,13,5,0
1558441003618401,-2,-3,-2,1,-3,-8,-8,-4
1558441003632541,-1,-3,-6,-1,-2,-6,-10,-5
1558441003632541,-2,-2,-4,-5,-1,-5,-1,-2
1558441003641340,0,2,1,4,2,0,3,1
1558441003641340,0,0,0,0,3,10,1,1
1558441003655312,-2,-2,-2,-6,-4,2,3,0
1558441003655312,0,-2,-2,3,-4,3,-5,-2
1558441003662286,-2,-3,-2,-4,-2,-6,0,1
1558441003662286,0,1,0,-5,3,-3,1,2
1558441003669267,-3,-1,1,4,1,-10,-6,-3
1558441003669267,-4,-5,-7,-6,-9,-5,-5,-4
1558441003678243,-1,-2,3,0,1,3,-3,0
1558441003678243,-2,-3,-4,-6,-8,-3,0,-1
1558441003692205,1,2,6,11,7,13,9,2
1558441003692205,1,4,3,0,15,5,3,4
1558441003701181,-3,-2,-12,-13,-6,-3,-4,-3
1558441003701181,-1,-1,-4,6,-7,-9,-4,-2
1558441003715143,-2,-4,2,0,-5,-5,-6,-3
1558441003715143,0,-2,0,-5,-7,-8,-4,-1
1558441003722127,-1,0,2,6,7,11,7,1
1558441003722127,0,0,2,0,10,11,9,4
1558441003738091,0,-2,-6,-3,-11,-12,-5,-3
1558441003738091,-2,-1,3,2,-2,1,-2,-1
1558441003740075,-3,-2,-1,2,-4,-1,-3,-2
1558441003740075,-2,-1,1,-1,0,-6,-3,-2
1558441003752210,1,0,-2,-2,0,-6,-1,0
1558441003752210,0,0,-3,0,-6,-2,1,1
1558441003761021,-1,-2,-2,-8,-6,-7,-3,-2
1558441003761021,-1,-2,3,-3,-1,4,4,-1
1558441003774982,-1,-3,-8,-7,-3,1,-1,-1
1558441003774982,-1,0,0,6,5,8,3,-1
1558441003781966,0,-1,-5,-3,-1,-2,-1,-2
1558441003781966,-1,-2,0,0,-7,2,-2,-2
1558441003798952,-3,-3,-1,-1,-10,-12,-9,-3
1558441003798952,1,2,2,1,11,11,11,5
1558441003800913,1,1,4,6,14,5,4,2
1558441003800913,-1,-1,-5,-2,-6,-1,-5,-2
1558441003811884,-1,1,4,-1,-4,-5,-3,-2
1558441003811884,-3,-3,-6,-4,-5,-8,-5,-4
1558441003820861,-2,-1,-2,-2,-2,3,1,-1
1558441003820861,-2,1,2,3,-1,-5,-2,1
1558441003834823,-1,1,-5,-4,3,-1,1,2
1558441003834823,1,-1,3,1,0,-5,2,1
1558441003841819,0,0,0,3,-1,-8,-5,-2
1558441003841819,-3,-1,-3,-5,-5,6,0,-2
1558441003858759,-1,0,2,-3,-1,4,-4,-2
1558441003858759,-1,-4,-7,-4,-9,-4,-5,-5
1558441003859757,-1,-1,2,-3,-3,0,2,0
1558441003859757,0,1,0,3,10,1,4,2
1558441003871983,1,1,3,6,4,6,4,2
1558441003871983,-2,0,0,2,1,0,0,0
1558441003880701,-3,-2,-2,-4,-12,-5,-11,-5
1558441003880701,0,-2,-2,-3,-4,1,-4,-4
1558441003895659,0,-3,-3,1,3,-6,-1,1
1558441003895659,-3,0,2,-1,-2,2,-1,-1
1558441003902750,-2,-1,0,-5,-3,-5,-2,1
1558441003902750,-3,-1,1,0,-1,2,-1,-1
1558441003918688,-1,-2,-7,-1,0,1,1,-2
1558441003918688,1,1,2,-3,-3,0,1,-1
1558441003919595,3,-2,0,5,4,-3,2,1
1558441003919595,-1,-1,-4,-10,4,4,2,4
1558441003932650,-1,-1,2,-2,-6,-6,-7,-4
1558441003932650,-3,0,-1,-3,-1,-7,-2,1
1558441003941537,1,-1,-1,4,2,-1,5,1
1558441003941537,-1,-3,2,2,-1,0,-4,-4
1558441003955501,-1,-1,-6,-13,-5,0,-1,-4
1558441003955501,1,-2,-2,0,-4,-3,-2,-2
1558441003962482,0,2,4,3,0,-2,-2,0
1558441003962482,-1,-2,-3,-2,0,-5,0,-1
1558441003978451,-2,-1,0,5,1,5,2,-1
1558441003978451,-2,-2,1,-2,-5,-4,-1,-3
1558441003979452,-2,-3,-7,-6,-3,-7,-9,-3
1558441003979452,-1,-2,1,6,-1,0,-1,-1
1558441003992466,-1,0,4,3,4,-1,1,2
1558441003992466,-2,-3,-9,-13,-3,-3,-5,-1
1558441004001377,-2,-1,-4,0,-3,-9,1,2
1558441004001377,-1,-2,-3,2,-2,1,0,-2
1558441004015519,-2,0,3,-4,-3,-2,-2,-2
1558441004015519,1,0,7,4,4,5,-1,-1
1558441004022320,0,1,-1,-4,1,4,-2,-1
1558441004022320,2,2,-2,-2,3,-4,-2,1
1558441004038280,-4,-2,-2,-2,-5,4,3,-2
1558441004038280,0,-2,1,1,3,2,3,1
1558441004040272,-3,-4,1,1,-4,-4,-6,-3
1558441004040272,0,1,-2,-3,-7,-8,-3,-1
1558441004052418,2,1,-4,2,4,-2,6,3
1558441004052418,0,-4,-8,-4,2,-2,-2,-1
1558441004061216,-1,0,3,-1,0,6,-1,0
1558441004061216,-2,-4,-5,-11,-7,-6,-4,-4
1558441004075179,-2,-1,5,4,3,-1,-2,1
1558441004075179,-2,-1,1,4,-10,-4,-4,-1
1558441004082162,2,1,2,0,8,3,8,3
1558441004082162,-1,-3,-3,0,-5,-9,-5,-1
1558441004098152,0,0,2,0,-4,5,0,1
1558441004098152,0,1,-3,1,11,8,5,1
1558441004100113,-1,-2,-1,-4,-2,-6,-6,-3
1558441004100113,-3,-4,-4,-2,-6,1,-2,-2
1558441004112079,0,-2,1,2,0,-2,-2,-2
1558441004112079,-1,2,2,0,3,9,5,3
1558441004121055,-3,-2,-6,-5,-8,-8,-4,-2
1558441004121055,-3,-2,0,0,3,1,1,0
1558441004135019,-1,-5,-2,-2,1,-14,-4,-3
1558441004135019,0,-1,7,6,2,-1,0,-1
1558441004142158,-3,0,-3,-7,-1,6,3,0
1558441004142158,-1,1,-1,-2,3,5,0,-2
1558441004158955,-1,0,-1,-2,-6,-5,-4,0
1558441004158955,0,0,-3,3,-2,-10,-5,-3
1558441004159964,-2,-1,0,-3,-1,-2,-1,-3
1558441004159964,-2,-1,-4,-6,-10,-4,-1,0
1558441004171920,-1,0,1,0,2,2,0,-2
1558441004171920,0,-3,-3,-2,9,1,4,3
1558441004180932,-1,-2,-2,2,-4,-4,-1,-1
1558441004180932,-2,-2,-2,-4,-7,-4,-8,-3
1558441004195949,-3,0,0,3,2,6,-2,-2
1558441004195949,-3,-3,-6,-9,-10,-7,-1,-2
1558441004201841,0,1,2,2,3,8,5,3
1558441004201841,2,2,1,4,8,-4,4,3
1558441004218901,0,0,2,1,1,6,5,0
1558441004218901,-1,-2,-3,-4,-8,-9,-6,-4
1558441004219792,-1,-2,-5,-2,-1,3,1,-2
1558441004219792,1,-1,6,9,-7,-8,-3,-3
1558441004231866,-1,-1,-11,-15,-2,0,-1,0
1558441004231866,-2,-3,-1,-6,-4,1,-2,-3
1558441004240738,-3,-1,-1,2,-8,-8,-4,-1
1558441004240738,1,0,1,-2,6,0,-3,0
1558441004255700,0,-3,1,4,-5,0,1,0
1558441004255700,0,-1,-3,3,14,6,-2,-2
1558441004261679,0,-1,3,-2,-1,1,1,-2
1558441004261679,0,-2,1,0,5,-3,2,1
1558441004278635,-3,-1,-7,-3,-6,-5,-5,-3
1558441004278635,-3,-2,-7,-6,-9,-6,-2,-1
1558441004279632,0,-2,-1,-3,-1,-3,-6,-4
1558441004279632,-5,-2,-4,-5,-3,8,0,-3
1558441004292598,1,-1,0,6,-3,-1,-2,-1
1558441004292598,2,-1,1,0,3,-4,0,1
1558441004300575,0,0,1,3,7,7,6,2
1558441004300575,2,3,3,6,8,3,5,3
1558441004315546,-2,-1,-5,-6,-3,-7,-4,-1
1558441004315546,-2,0,2,2,-6,2,-5,-3
1558441004322524,-1,-5,-4,-7,-9,-9,-7,-3
1558441004322524,-3,-2,-3,-3,-8,-4,-4,-1
1558441004338475,2,1,2,2,11,8,12,5
1558441004338475,-1,0,5,1,-6,-6,0,-2
1558441004339478,0,1,0,4,6,8,1,1
1558441004339478,-2,-4,-9,-7,-8,-3,-4,-6
1558441004352437,-4,0,0,-4,-6,-4,-4,-2
1558441004352437,-3,-1,-2,1,-7,-1,0,0
1558441004361413,0,-2,0,-2,-4,-10,-6,-2
1558441004361413,1,0,4,3,10,14,7,2
1558441004383356,1,3,1,7,5,3,-3,0
1558441004383356,-2,-3,-6,-13,-4,-4,-1,0
1558441004385351,0,2,-1,1,3,-6,6,3
1558441004385351,-5,-5,-10,-10,-10,-3,-10,-4
1558441004398315,-2,-2,2,2,1,1,0,-1
1558441004398315,1,0,4,1,7,-8,6,3
1558441004400309,-3,-2,-4,-2,-5,-6,-3,-2
1558441004400309,0,-1,-4,-5,-6,-2,-5,-3
1558441004412306,0,-3,-1,-2,-2,10,-2,-4
1558441004412306,0,0,2,3,-1,-3,1,-1
1558441004421271,0,0,4,5,5,2,6,4
1558441004421271,-1,0,-1,-1,5,-5,0,2
