timestamp,emg1,emg2,emg3,emg4,emg5,emg6,emg7,emg8
1558440941689849,0,-1,1,-20,3,1,2,-1
1558440941689849,0,-1,-4,2,-4,2,0,-3
1558440941690847,-4,-2,0,14,3,-1,0,3
1558440941690847,0,-1,1,-10,-2,-4,-2,-2
1558440941692841,-1,-2,-9,-10,-10,1,-1,-3
1558440941692841,-1,-1,2,18,4,9,3,2
1558440941693839,0,0,-2,-15,-7,-7,-5,-2
1558440941693839,-2,-5,-2,-12,6,1,-1,-2
1558440941700819,0,-1,1,18,-7,-3,-5,-1
1558440941700819,-3,-1,2,-5,2,-4,-2,1
1558440941706804,2,-3,-6,-15,-2,-1,0,-2
1558440941706804,0,-1,1,8,-4,-2,-1,-2
1558440941721764,-3,-2,-1,5,-1,2,-3,-2
1558440941721764,-1,0,-2,-12,-5,-11,-5,-3
1558440941730739,1,2,1,0,0,7,2,-1
1558440941730739,-2,0,-3,8,-4,-9,-6,-1
1558440941738719,0,-2,0,-3,6,8,7,3
1558440941738719,-3,-3,-1,-7,0,-2,-2,-3
1558440941752682,-3,-1,-4,5,-5,-4,0,-1
1558440941752682,0,0,0,2,0,-2,3,1
1558440941760660,1,1,0,-10,-5,-4,-1,0
1558440941760660,-1,-2,-3,-2,6,11,3,-2
1558440941783598,-2,-2,-3,-1,-10,-3,-4,-3
1558440941783598,0,1,-2,-1,7,-1,2,1
1558440941805540,1,-1,1,29,3,7,2,0
1558440941805540,0,2,1,1,0,-8,-3,1
1558440941813519,0,-3,-5,-25,-1,5,3,-3
1558440941813519,2,-1,-2,13,1,7,0,-2
1558440941814515,-3,-1,3,-3,-6,-11,-1,1
1558440941814515,0,-2,-1,-12,0,-4,-2,-1
1558440941815513,-3,-2,-4,8,-5,-3,-3,-2
1558440941815513,-3,-1,-1,8,-3,0,-5,1
1558440941826485,0,-1,0,-11,5,-2,1,1
1558440941826485,1,1,3,-4,4,10,6,-1
1558440941835460,-1,1,4,17,-2,-4,-3,0
1558440941835460,-4,-3,-8,-12,1,3,0,0
1558440941841444,-1,-1,-8,-18,-9,-10,-7,-3
1558440941841444,-3,-2,1,12,-6,-4,-1,-1
1558440941858398,-1,-1,-1,-2,-1,-3,-1,0
1558440941858398,1,0,3,-6,4,0,5,1
1558440941864382,-1,-3,-5,-2,-2,1,-1,-4
1558440941864382,-1,-1,-3,11,6,1,5,2
1558440941873358,-3,-2,1,-4,-6,-8,-6,-2
1558440941873358,-2,0,2,-8,0,-5,-4,-4
1558440941886333,-1,-2,1,7,-2,1,0,1
1558440941886333,-4,-4,-5,-5,-7,-4,-8,-2
1558440941895300,1,0,-3,-8,2,7,4,2
1558440941895300,0,-1,1,8,5,5,2,1
1558440941901284,1,0,2,0,5,4,1,-1
1558440941901284,-3,0,-2,-6,-8,-7,-6,-4
1558440941918240,-1,-1,-5,-3,6,0,3,-1
1558440941918240,-1,-1,2,1,-4,-8,-3,0
1558440941924222,-4,-2,-2,-6,-3,1,-3,-1
1558440941924222,-1,-1,-2,1,4,2,1,1
1558440941949155,-1,0,0,4,1,6,0,-1
1558440941949155,-1,0,-1,-1,-5,1,1,-2
1558440941949155,1,1,2,-3,2,7,4,2
1558440941949155,0,0,-2,0,-3,1,-4,-2
1558440941955138,-2,-1,3,7,1,-1,-3,0
1558440941955138,-2,-3,-12,-12,-3,-2,-1,-2
1558440941962120,-2,-2,-2,0,-4,-11,-6,-2
1558440941962120,-1,-3,1,0,-1,9,1,-1
1558440941978077,1,-1,3,2,0,-1,0,2
1558440941978077,3,0,2,1,-3,-11,-3,0
1558440941984062,-2,-1,-3,3,4,4,1,0
1558440941984062,-2,3,2,-3,-1,4,3,-1
1558440941993038,-3,-3,-3,-3,-3,-2,-7,-4
1558440941993038,-3,0,4,5,-3,0,-1,0
1558440942007000,-1,1,-2,-3,5,2,-2,-1
1558440942007000,-2,-4,-2,-6,-3,4,-2,-2
1558440942015977,-1,-3,-2,-1,-5,-3,-2,-2
1558440942015977,1,3,0,-1,6,-5,3,2
1558440942021960,0,1,3,-1,-1,1,1,0
1558440942021960,1,-2,-3,3,1,0,0,-1
1558440942037918,-1,1,-1,-2,1,1,0,1
1558440942037918,-3,-3,-2,-2,-3,1,-4,-3
1558440942052880,-2,-2,-2,-4,-5,-1,-1,-3
1558440942052880,-1,0,2,2,-1,-7,-4,0
1558440942058861,-1,-1,-4,-6,-6,2,-2,-3
1558440942058861,3,1,1,3,9,4,6,3
1558440942066841,-2,-1,0,2,0,-5,-4,-3
1558440942066841,-1,-2,0,-3,1,1,0,-1
1558440942075817,1,1,0,-1,1,-2,2,0
1558440942075817,-3,-3,-1,-3,-3,-8,-3,-2
1558440942081800,-1,-3,-1,-4,-4,-4,-1,-1
1558440942081800,-2,-2,-1,3,-1,4,1,0
1558440942114713,0,-3,-2,-2,2,1,-3,-2
1558440942114713,1,-1,-2,1,-3,-6,-9,-2
1558440942115709,0,0,2,1,3,-1,4,1
1558440942115709,1,-2,-6,-5,-1,-6,-2,-1
1558440942119701,-2,-2,0,2,1,-5,-3,-2
1558440942119701,-3,0,-2,-2,-1,11,3,0
1558440942126680,0,0,0,2,-1,0,-4,-1
1558440942126680,-2,-1,0,-3,-2,-5,0,-2
1558440942135656,-1,-3,-1,-1,-5,-5,2,0
1558440942135656,-1,-4,-4,-5,-4,-5,-6,-4
1558440942141640,-1,-4,-4,-1,7,6,0,1
1558440942141640,0,-1,2,1,-3,-5,-2,-1
1558440942166574,-1,1,0,-3,-1,-9,1,0
1558440942166574,-2,2,1,-1,1,4,1,-2
1558440942167571,-2,-1,-2,-1,-7,2,1,-2
1558440942167571,0,-3,-2,-5,-3,0,1,1
1558440942179539,0,-2,3,0,4,1,0,0
1558440942179539,-1,-3,-1,1,-2,-3,-1,-3
1558440942186521,-1,0,-3,-7,-5,-3,-5,0
1558440942186521,-1,-1,-1,-1,2,6,0,-1
1558440942195497,-2,-4,-6,-2,-11,-6,-5,-2
1558440942195497,3,2,0,3,8,4,2,3
1558440942201481,-2,-2,-1,-3,2,-5,0,-1
1558440942201481,-2,-1,0,-1,-1,1,-1,-2
1558440942226414,-3,1,1,1,3,3,-2,-2
1558440942226414,-2,-3,-3,-5,-7,-10,-6,-2
1558440942227412,0,0,0,1,3,6,2,0
1558440942227412,1,2,1,1,-3,-12,-3,-1
1558440942239379,-3,0,-1,-1,3,1,3,2
1558440942239379,-1,-2,-1,-6,-12,-4,-4,-4
1558440942246361,-2,-1,-1,-1,-1,6,2,-3
1558440942246361,-2,-2,0,0,0,-8,-3,-1
1558440942255337,0,1,1,3,1,1,0,2
1558440942255337,-2,-3,-2,-4,-5,-15,-4,-1
1558440942278275,-1,0,-3,0,-5,-2,-2,-2
1558440942278275,2,0,-1,0,6,3,-1,1
1558440942279272,0,-3,-3,-3,4,-4,-1,-3
1558440942279272,-4,-1,0,1,-3,10,4,0
1558440942284258,-1,-1,0,-1,-2,-9,0,1
1558440942284258,-1,0,-1,-2,-3,1,-2,-4
1558440942299218,-1,-4,-9,-6,-8,1,-3,-2
1558440942299218,3,1,3,7,12,11,4,3
1558440942307197,-2,-2,-2,-6,-8,-8,-6,-4
1558440942307197,-4,-3,2,0,1,-3,-2,-1
1558440942315176,-2,-1,-1,2,-6,-11,-6,-1
1558440942315176,-1,-4,-3,-6,-1,9,3,-1
1558440942329139,0,-2,-1,2,4,10,2,0
1558440942329139,-1,0,-4,1,-1,-4,-2,-1
1558440942338115,1,1,1,-2,-5,-5,-2,-3
1558440942338115,1,2,2,0,0,-8,2,0
1558440942344099,-3,-2,-5,-2,-2,0,-7,-3
1558440942344099,0,0,3,3,4,7,5,3
1558440942359059,1,0,3,-1,3,-1,1,0
1558440942359059,0,-3,-6,-4,0,5,-1,-2
1558440942367038,-3,0,1,0,-3,-6,-3,-1
1558440942367038,-1,-2,-3,-4,-6,-2,-4,-1
1558440942390974,-2,1,0,0,-3,5,1,2
1558440942390974,-1,-1,2,0,-9,-11,-7,-2
1558440942391971,2,1,-1,0,9,10,7,1
1558440942391971,1,-1,-2,-1,2,7,1,1
1558440942397954,0,0,0,1,2,2,-2,-1
1558440942397954,-3,3,2,-1,-4,-7,-4,-2
1558440942403939,-2,-3,-1,-4,-3,-10,-7,-2
1558440942403939,-2,-1,-2,-5,-6,-2,-2,-2
1558440942418899,1,0,1,6,10,10,6,2
1558440942418899,-2,-1,1,-1,-2,-2,-1,-2
1558440942426878,1,0,3,-2,-1,-4,2,2
1558440942426878,-2,-1,-6,-6,-2,-10,-3,-1
1558440942442842,-2,-3,-4,-6,-6,0,-4,-2
1558440942442842,-2,1,1,-1,-1,2,0,-1
1558440942448822,0,1,1,3,2,2,-2,-1
1558440942448822,-2,-1,2,2,-2,-9,-2,0
1558440942457802,-1,-1,-1,-3,2,4,3,-1
1558440942457802,-2,-2,0,0,-6,-7,-3,-2
1558440942463779,1,-1,1,3,2,6,2,0
1558440942463779,-3,-1,-2,-6,1,10,1,-4
1558440942479738,0,-3,0,-2,-5,-10,-3,-1
1558440942479738,0,-4,0,2,0,-2,-1,0
1558440942495694,-1,-2,-2,-2,-2,-4,-7,-1
1558440942495694,-1,1,-1,3,8,9,8,2
1558440942496694,2,2,6,2,2,-2,2,1
1558440942496694,-3,-2,-9,-11,-6,-1,-5,-2
1558440942509656,1,-1,-1,0,1,1,4,2
1558440942509656,0,0,-2,-1,0,-6,-2,-2
1558440942517635,-2,-2,0,0,-6,0,-4,-4
1558440942517635,-1,-2,-2,2,6,5,-2,-2
1558440942524616,0,0,-4,-9,-3,0,1,-1
1558440942524616,1,-2,-1,1,-8,-8,-4,-1
1558440942539576,0,1,1,0,3,-5,0,1
1558440942539576,-1,-1,-1,-1,2,4,3,1
1558440942546561,-1,-2,-1,3,-2,1,-1,-2
1558440942546561,-1,0,-1,2,0,4,-1,-1
1558440942555537,-3,-2,-2,-5,0,1,-3,-2
1558440942555537,-1,-2,1,1,2,-2,0,-2
1558440942569496,-2,-4,-3,-4,-5,-7,-1,-2
1558440942569496,3,-2,1,-2,-1,5,1,-2
1558440942578472,-3,-1,-4,-3,-2,0,-3,-4
1558440942578472,0,2,-1,2,4,-1,0,1
1558440942584456,-1,1,2,1,-7,-11,0,0
1558440942584456,0,0,0,-2,1,2,-1,1
1558440942599415,-2,-2,0,0,3,3,3,-1
1558440942599415,0,-1,0,1,-2,2,0,-3
1558440942606396,-4,-3,-3,-4,-6,0,-7,-5
1558440942606396,0,0,3,-2,-2,-8,1,3
1558440942615374,-2,-1,-4,-1,-2,-4,-8,-2
1558440942615374,0,1,-3,-7,-3,4,0,1
1558440942629336,1,-1,-2,1,1,-4,0,-1
1558440942629336,0,0,-1,5,8,7,3,0
1558440942638311,-1,0,2,1,1,3,3,1
1558440942638311,-2,-2,-1,-1,-5,-9,-5,-2
1558440942644303,-2,-3,-5,3,-5,-1,-2,-4
1558440942644303,-4,-4,-5,-8,2,-3,0,0
1558440942667237,0,1,2,-2,2,-7,2,2
1558440942667237,-1,-1,-1,1,0,9,4,0
1558440942668234,0,1,-2,0,-4,-8,-5,-1
1558440942668234,-2,-2,0,-3,-6,-4,-6,-4
1558440942675214,-1,-1,-1,-1,-5,-3,-4,-4
1558440942675214,2,2,4,4,7,5,8,3
1558440942689179,-2,0,3,-1,2,4,1,0
1558440942689179,-2,-3,-1,-2,-6,-8,-3,-3
1558440942698154,-3,-2,-8,-9,-6,-5,-4,-2
1558440942698154,-1,-2,0,0,-1,5,-2,-3
1558440942704137,-2,-2,-4,-5,-2,-2,-1,-2
1558440942704137,0,2,2,1,-3,-7,-4,-2
1558440942721090,0,-1,2,7,1,-3,-3,1
1558440942721090,-3,-3,-3,-7,-6,-8,-2,-1
1558440942727082,-1,-1,-1,-3,2,6,1,0
1558440942727082,2,-1,-3,-1,4,0,2,0
1558440942736054,1,0,1,2,3,-1,1,0
1558440942736054,-2,0,-3,-2,-6,-5,-6,-3
1558440942749018,-3,-1,0,2,-6,1,-3,-2
1558440942749018,1,0,0,-1,-4,1,2,-2
1558440942757993,1,-1,1,1,12,20,10,3
1558440942757993,1,-2,-2,1,-1,-3,-2,1
1558440942763979,0,-1,0,-2,-3,-6,-1,-1
1558440942763979,-5,-2,-4,-5,-11,-5,-10,-4
1558440942780932,1,-1,1,-1,-1,4,4,-3
1558440942780932,1,0,1,1,2,-8,0,-2
1558440942786919,1,2,4,2,5,1,4,2
1558440942786919,-3,-1,-2,-2,-1,2,0,0
1558440942801977,-1,-2,-1,0,-6,-4,-8,-3
1558440942801977,-2,-2,-2,-3,-6,0,-4,-3
1558440942809899,-1,1,0,0,0,2,1,1
1558440942809899,0,-2,-3,-5,-2,5,2,-2
1558440942833791,-3,-4,-3,1,-5,2,-1,-3
1558440942833791,0,-2,1,-2,-2,-11,-4,-1
1558440942834789,0,0,0,0,-1,-2,-2,-2
1558440942834789,-2,0,2,4,5,13,-1,0
1558440942840772,1,-1,1,-2,-5,-7,-3,0
1558440942840772,0,0,-1,0,6,1,2,1
1558440942846755,1,1,-1,-3,2,-11,-1,1
1558440942846755,0,-1,-2,0,-3,-3,-2,-1
1558440942861717,-1,1,-2,-2,-1,4,-1,-2
1558440942861717,-2,-1,-1,-2,-6,-2,-6,-1
1558440942868696,-2,-2,-4,-2,-4,-7,-7,-3
1558440942868696,-1,0,1,0,4,2,0,2
1558440942886658,-2,1,0,-1,2,-3,1,1
1558440942886658,-3,-1,2,5,1,7,-2,-2
1558440942886658,-2,-2,-4,-11,-4,-1,-3,-2
1558440942886658,0,-2,-2,-6,1,-6,-1,-2
1558440942900609,-1,-2,0,-1,-7,-5,-4,-1
1558440942900609,1,-1,0,-6,1,-3,4,0
1558440942906598,-2,-4,-5,0,-5,-4,-3,-2
1558440942906598,1,3,5,3,6,5,3,1
1558440942921565,-4,-3,-2,1,6,9,-1,0
1558440942921565,-1,0,0,0,-6,2,-1,-1
1558440942929533,0,-1,1,1,2,2,-1,-1
1558440942929533,-3,-2,-6,-3,-7,-9,-2,-1
1558440942944526,-1,-1,-3,-7,-5,-6,0,1
1558440942944526,0,2,1,0,7,5,0,0
1558440942945493,0,-1,4,9,2,7,5,2
1558440942945493,-2,0,2,2,1,5,4,1
1558440942960569,-2,0,-2,-5,-1,-5,-3,-3
1558440942960569,-2,-1,-1,-2,-4,1,0,-3
1558440942966443,-1,-2,-5,-5,-7,-8,-7,-3
1558440942966443,0,-2,-2,0,0,-1,-1,-1
1558440942981403,1,1,-3,-2,-3,3,2,2
1558440942981403,-2,0,-6,-2,-2,-3,3,1
1558440942997358,-1,-1,0,-1,3,-2,-3,-1
1558440942997358,0,0,2,2,-3,-4,-2,0
1558440943005372,3,-1,5,4,6,-8,0,-1
1558440943005372,0,-2,-2,-3,-3,-3,-4,-1
1558440943006334,-2,1,-5,-3,-2,-4,-2,-2
1558440943006334,-3,-3,-1,0,-4,-1,-4,-3
1558440943021291,-2,0,-3,1,-4,-1,-3,0
1558440943021291,0,-1,2,3,-1,-1,2,1
1558440943027275,0,0,1,-5,2,9,7,3
1558440943027275,-3,-2,-1,0,-8,-6,-4,-3
1558440943050213,-2,-1,0,-2,-1,-4,-4,-2
1558440943050213,0,0,0,2,5,3,0,-3
1558440943050213,0,0,-2,0,-3,3,3,0
1558440943050213,0,-2,-2,-1,1,-3,2,2
1558440943065171,1,0,0,-2,-2,-7,3,0
1558440943065171,-1,1,0,3,-4,1,-3,-1
1558440943065171,-1,1,-1,-1,2,4,-1,-2
1558440943065171,0,-1,-4,-8,1,4,-3,-1
1558440943080130,2,1,-3,-4,-1,-5,1,1
1558440943080130,-2,-5,-2,-1,-2,-3,-3,-1
1558440943087112,2,1,5,7,8,4,7,1
1558440943087112,-3,-2,-1,-3,-9,-6,-5,-5
1558440943111046,-5,-2,-4,-4,-5,-1,-6,-3
1558440943111046,-1,-1,-1,-4,-6,-1,-3,-2
1558440943112045,-3,-3,1,1,3,3,0,-1
1558440943112045,1,0,0,5,3,-2,5,0
1558440943125010,0,1,1,1,4,7,3,0
1558440943125010,-3,-3,-3,-4,0,-7,-7,-4
1558440943126006,-1,-2,-2,0,-8,-7,-6,-3
1558440943126006,-2,-5,-5,-9,-7,-7,-7,-3
1558440943140972,2,-3,-1,-2,6,5,6,2
1558440943140972,3,3,1,1,10,0,7,3
1558440943146955,-3,-2,-3,2,-5,-4,-4,-2
1558440943146955,-1,-1,-2,-11,-7,-4,-4,-2
1558440943169891,-2,-2,0,-3,-8,0,-3,-2
1558440943169891,-2,-2,-3,-3,-3,-11,-4,-1
1558440943170888,-1,1,0,-1,3,2,5,2
1558440943170888,0,-3,-2,-2,-9,-9,-7,-5
1558440943184952,0,-2,3,4,14,22,11,0
1558440943184952,2,0,-2,4,5,17,11,3
1558440943185858,-2,-1,-5,-4,5,0,-8,-3
1558440943185858,-2,-2,-3,-3,-11,-12,-5,-1
1558440943200819,-2,0,-5,-1,-5,-6,-5,-1
1558440943200819,-2,-1,0,-4,-2,-5,-4,-1
1558440943231727,0,0,2,-4,-6,-1,2,1
1558440943231727,-1,0,5,8,10,3,1,-2
1558440943232722,-2,-3,-2,-2,-10,-6,-8,-5
1558440943232722,0,-1,-1,0,-1,-2,0,-3
1558440943233722,-2,0,-3,-3,2,0,1,0
1558440943233722,-1,1,0,4,4,7,5,2
1558440943244730,1,-1,0,-5,-10,-15,-3,-2
1558440943244730,-1,-2,-4,2,3,4,-4,-2
1558440943245691,-3,-2,2,-1,-7,-5,-4,-2
1558440943245691,1,1,1,0,6,5,5,4
1558440943260648,-1,1,0,8,3,3,-1,-1
1558440943260648,-1,-1,-5,-9,-9,-11,-5,0
1558440943266631,0,-2,0,1,-6,-3,-3,-2
1558440943266631,-3,-3,-5,-2,1,-3,-4,-3
1558440943281592,1,-1,0,-3,3,-3,1,-1
1558440943281592,-1,-2,0,2,3,3,-1,-2
1558440943289603,0,-2,-1,-4,0,-1,0,-3
1558440943289603,2,0,1,0,-3,3,1,-1
1558440943304712,-2,0,0,2,0,-3,1,1
1558440943304712,-1,-1,0,-3,3,0,-1,0
1558440943305530,0,1,2,1,-1,2,-2,1
1558440943305530,-2,-2,-4,-9,-9,1,-4,-4
1558440943320488,-2,2,-1,3,7,-8,-2,0
1558440943320488,-2,-1,-1,-3,0,2,3,0
1558440943335604,-3,-1,-1,1,1,-6,-3,0
1558440943335604,-2,-1,-1,1,-1,2,-1,-1
1558440943341613,-1,-1,-3,1,-2,0,-5,-3
1558440943341613,-2,-2,-1,-8,-7,-1,-2,0
1558440943349575,0,1,4,9,13,10,9,2
1558440943349575,-3,-1,-3,-1,1,-4,0,1
1558440943364369,-3,-2,-3,-5,-6,-7,-3,-2
1558440943364369,-2,-3,0,5,-3,1,-1,-3
1558440943389346,-1,-4,-3,-5,1,7,-2,-3
1558440943389346,1,1,0,4,9,-2,3,2
1558440943390307,1,1,5,-1,-3,-1,1,2
1558440943390307,-5,-2,-8,-1,-3,-1,-6,-3
1558440943391309,0,-2,-4,-5,-5,-9,-1,0
1558440943391309,-2,-2,-1,3,1,-2,-5,-2
1558440943402271,-3,-4,-4,-7,-4,1,-2,-3
1558440943402271,-2,3,4,-2,0,-11,-6,-1
1558440943409300,-1,-2,-7,0,-4,-1,-5,-3
1558440943409300,1,0,-1,1,7,11,10,3
1558440943424409,-3,-1,-2,-3,-3,1,1,-1
1558440943424409,0,-3,0,1,-1,4,5,2
1558440943449146,3,0,-1,-2,2,-1,0,-1
1558440943449146,-2,1,2,0,-6,-13,-5,-1
1558440943450142,0,1,1,-3,4,11,3,2
1558440943450142,1,0,-2,0,-1,-4,-2,-1
1558440943451141,-3,-1,-2,1,-6,-4,-1,0
1558440943451141,0,0,5,1,0,-8,-4,0
1558440943462213,0,-3,-10,-8,-11,-1,-6,-3
1558440943462213,-3,-2,2,2,-5,-4,-3,-2
1558440943469093,-4,-3,-10,-17,3,8,2,-1
1558440943469093,0,0,1,2,6,5,2,0
1558440943500038,-1,-2,-2,-1,-5,-7,-7,-4
1558440943500038,-2,0,-2,-6,-8,-7,-4,-3
1558440943501004,4,2,5,4,3,3,3,3
1558440943501004,-4,-3,-3,-4,-1,-6,-2,-2
1558440943508985,-3,-1,0,4,0,6,3,0
1558440943508985,2,-1,-3,0,8,8,3,2
1558440943510113,1,-1,2,-3,-4,-3,-1,-2
1558440943510113,0,-1,-5,0,0,5,2,0
1558440943522115,-1,1,3,3,3,-2,0,1
1558440943522115,-3,-2,-5,-6,-15,-14,-9,-5
1558440943528931,-2,-2,-2,2,10,10,6,2
1558440943528931,1,-1,-1,1,2,7,0,0
1558440943553314,-1,-1,0,-5,-5,1,-5,-4
1558440943553314,-3,-3,-2,-3,5,1,0,1
1558440943553314,-2,-1,3,11,-3,-17,-5,-2
1558440943553314,-2,-2,0,-5,-3,11,5,-2
1558440943568207,0,-1,0,2,1,-12,2,4
1558440943568207,-1,-2,-1,4,4,2,0,-1
1558440943568207,-4,-2,-3,-6,-19,-10,-9,-5
1558440943568207,0,0,-3,0,10,10,1,-1
1558440943582118,1,0,0,-2,-2,-8,-4,-3
1558440943582118,-1,1,1,3,10,9,7,1
1558440943589043,-1,-2,1,-3,-3,2,1,-1
1558440943589043,-3,-1,-2,-3,-6,-11,-6,-5
1558440943612711,-1,-3,-7,1,-1,-3,-8,-3
1558440943612711,1,1,-1,-4,3,13,5,1
1558440943612711,-2,-1,-1,-2,-3,-8,-1,1
1558440943612711,2,0,2,9,9,0,2,-1
1558440943627704,-1,-1,0,-1,4,-1,1,0
1558440943627704,-4,-1,-1,-3,-10,-5,-7,-3
1558440943627704,0,0,2,-2,2,-4,-3,-1
1558440943627704,-1,-1,-4,-4,-10,-9,-1,-1
1558440943641627,1,-2,1,0,-3,0,-2,-2
1558440943641627,1,0,-2,1,-1,4,4,0
1558440943665563,-2,0,-1,1,3,-2,0,-1
1558440943665563,-1,-1,-1,-3,1,2,-3,0
1558440943666563,-3,1,0,-1,2,-2,3,0
1558440943666563,-2,-4,-1,0,-5,-12,-6,-4
1558440943671548,-1,-1,1,-3,-7,3,-4,-6
1558440943671548,0,0,-4,-4,3,-6,2,1
1558440943695483,-2,-1,-6,-2,3,6,7,2
1558440943695483,-3,1,2,2,-2,-4,-4,-1
1558440943696482,-5,-4,-5,-3,-6,-6,-8,-4
1558440943696482,-1,-1,1,-1,2,9,2,-1
1558440943701907,-1,1,1,3,4,3,1,1
1558440943701907,-3,-1,-3,-4,-7,-8,-6,-1
1558440943709929,2,1,0,2,6,12,4,0
1558440943709929,0,-1,-2,-5,-6,-9,-5,-1
1558440943725404,0,-2,1,-6,-4,-3,-2,-1
1558440943725404,-3,-3,-2,-1,-5,-6,-5,-4
1558440943731423,0,2,1,2,9,18,10,3
1558440943731423,-3,-3,-2,2,-7,-9,-4,-3
1558440943748704,-2,-1,0,-3,-5,-5,-5,-1
1558440943748704,3,2,4,-3,1,0,4,4
1558440943749340,-1,-1,0,4,2,-2,-4,1
1558440943749340,-2,0,3,2,0,-2,0,0
1558440943762310,-3,-4,-9,-11,-3,2,-5,-3
1558440943762310,-2,-2,1,3,-2,-3,-1,-2
1558440943777562,-1,-1,-4,-1,-3,-7,3,1
1558440943777562,1,1,2,1,5,2,1,1
1558440943784511,-1,-1,-2,2,-3,2,-2,-2
1558440943784511,2,-2,-4,-2,3,2,1,1
1558440943792442,1,-1,1,-2,-1,-5,0,-1
1558440943792442,0,-3,0,3,-9,-6,-2,-1
1558440943808195,0,1,1,1,11,8,2,1
1558440943808195,0,1,-2,-4,-5,-2,-4,-4
1558440943808195,0,-1,-3,-4,-3,-4,-2,-2
1558440943808195,-1,-1,-2,2,3,-3,0,1
1558440943830130,0,1,2,0,6,8,8,2
1558440943830130,1,-1,4,5,4,0,3,2
1558440943830130,-3,-4,-2,-4,-7,-8,-9,-4
1558440943830130,-2,-2,-7,-4,-13,-2,-4,-2
1558440943846086,2,1,4,8,7,6,0,-2
1558440943846086,-3,-2,-2,-2,-3,1,-3,-2
1558440943852261,-2,-4,-9,-15,-8,-7,-5,-4
1558440943852261,0,1,7,1,6,5,3,3
1558440943868024,-2,-1,-2,-2,-7,-7,-2,-3
1558440943868024,-2,-2,-4,3,2,11,1,-1
1558440943868024,-1,1,1,0,-7,-12,-3,-2
1558440943868024,-1,0,2,-4,6,9,4,-1
1558440943891181,0,0,0,2,-3,-3,-1,-2
1558440943891181,3,-1,-1,-7,-3,-4,0,-1
1558440943891973,0,1,-1,1,0,1,-3,2
1558440943891973,-1,-4,-3,-4,-6,0,-5,-4
1558440943903927,-1,-4,-6,-1,-9,-11,-6,0
1558440943903927,0,-1,0,-1,-3,-6,0,1
1558440943911905,-1,1,-2,0,11,7,4,2
1558440943911905,-3,-2,-3,2,-9,1,-5,-6
1558440943928218,-1,-2,0,-5,-5,-3,0,1
1558440943928218,1,3,2,1,11,2,2,1
1558440943928218,-3,0,-5,1,-9,-6,-4,-4
1558440943928218,1,0,2,0,9,1,1,1
1558440943942169,-3,-4,-5,-8,-11,-6,-5,-4
1558440943942169,-1,-4,-3,-3,-4,0,-2,-1
1558440943949110,-1,-1,1,4,-2,1,-2,-2
1558440943949110,0,-2,-3,-1,0,-1,1,-2
1558440943964763,-1,-1,-1,-5,0,0,1,0
1558440943964763,-1,1,-1,2,3,4,0,-1
1558440943972072,2,1,1,2,3,-1,-1,0
1558440943972072,-3,-2,-3,-7,-10,-5,-4,-3
1558440943995688,1,1,2,0,3,-2,2,0
1558440943995688,-2,-2,-6,0,1,7,7,3
1558440943996679,0,-3,0,-3,-2,-1,-3,-1
1558440943996679,-2,-3,-2,-4,-5,1,-6,-2
1558440944001862,-2,0,3,6,2,4,-2,-1
1558440944001862,-1,-2,-2,-5,-8,-23,-7,0
1558440944009843,2,1,0,1,10,9,5,0
1558440944009843,-2,-3,-2,5,2,-4,0,1
1558440944024886,0,0,0,-1,-4,-4,-2,-3
1558440944024886,-2,0,3,9,7,12,3,-2
1558440944031622,-3,-4,-9,-25,-12,-4,-4,-1
1558440944031622,-1,2,-2,1,5,-3,-2,-1
1558440944055733,-1,0,-1,-3,-2,-2,3,-2
1558440944055733,-2,-3,-2,1,-2,-2,-3,-2
1558440944056530,0,2,2,10,5,3,3,2
1558440944056530,-1,-2,-2,-6,-6,-5,-4,-1
1558440944061797,1,-1,0,1,8,11,1,2
1558440944061797,0,0,1,0,-3,-3,-2,-1
1558440944069674,0,-1,-3,-1,-3,-3,1,-1
1558440944069674,-1,-1,-5,-5,-5,-1,-3,0
1558440944084453,-1,0,-2,1,-6,-11,-7,-1
1558440944084453,0,0,2,-1,4,5,3,-1
1558440944091430,-2,-2,1,-2,0,2,1,-4
1558440944091430,0,-1,0,0,-4,-3,2,0
1558440944108630,-3,-1,-1,0,4,-5,-2,1
1558440944108630,-3,-4,-2,-8,-6,3,-1,-4
1558440944109382,-4,-2,-2,-2,-4,-3,-4,-2
1558440944109382,0,-1,2,5,12,5,3,0
1558440944121601,0,0,2,-1,0,1,-1,0
1558440944121601,0,-1,-2,-4,0,5,-1,-2
1558440944129325,0,-2,1,3,0,-6,0,-2
1558440944129325,-2,-3,-2,-5,-4,-6,-2,-3
1558440944144639,-1,-1,-5,-1,-5,2,0,-2
1558440944144639,-1,-1,-1,2,1,-1,0,-2
1558440944152380,1,0,3,2,-1,-9,-4,1
1558440944152380,-1,0,-2,-4,-2,3,1,1
1558440944169221,-1,-2,1,0,5,4,2,0
1558440944169221,0,-2,-3,-2,-6,-1,-5,-1
1558440944169221,-2,-1,-1,0,6,4,4,0
1558440944169221,4,1,4,2,2,-5,3,-1
1558440944190501,-3,0,-2,-3,-1,-1,-5,-3
1558440944190501,-2,-1,-5,-8,-5,-5,-3,-3
1558440944191158,-1,-1,-1,-1,0,5,0,1
1558440944191158,-3,-2,-2,-3,-6,-7,-5,-1
1558440944204475,-2,-1,-3,2,1,1,3,1
1558440944204475,-1,-1,-1,-3,3,-5,-3,2
1558440944220083,-2,0,-2,-2,-6,3,-2,-4
1558440944220083,-3,-1,-1,1,1,11,-1,-2
1558440944227061,0,1,1,-7,-4,-10,-1,2
1558440944227061,0,-1,-3,0,4,-6,-1,1
1558440944228061,0,-1,2,4,-3,-10,-2,0
1558440944228061,-1,-2,-2,-2,-1,-2,2,0
1558440944242021,0,-1,3,-1,-6,0,-3,-3
1558440944242021,-2,0,0,0,6,8,6,-2
1558440944249002,2,-3,0,5,1,8,1,0
1558440944249002,-1,-3,-5,-8,-4,-5,-8,-4
1558440944263964,-1,-2,-4,-3,-5,-9,-5,-1
1558440944263964,-5,-3,-2,1,-9,-11,-5,-3
1558440944271976,-2,1,-3,-4,-4,-5,-2,-1
1558440944271976,0,0,0,0,5,8,0,2
1558440944286901,0,-1,0,2,3,-3,0,-1
1558440944286901,0,1,1,0,-2,-6,0,2
1558440944287898,-2,-2,-3,-5,-2,2,-2,-3
1558440944287898,-1,1,-2,-1,-9,-10,-4,-3
1558440944301864,0,-1,-1,2,5,9,6,-1
1558440944301864,2,-1,0,-3,-3,-8,-3,-2
1558440944308902,-2,-4,-3,-5,-7,0,-5,-3
1558440944308902,-1,-2,0,1,1,-1,1,1
1558440944325856,-1,0,1,1,6,11,6,1
1558440944325856,-2,-1,-1,-2,-4,2,0,-1
1558440944331785,-1,-2,-1,3,1,-6,1,2
1558440944331785,2,-1,-1,-1,1,-2,-1,-1
1558440944346746,-2,-2,-2,-3,-5,-3,-4,-3
1558440944346746,0,-1,-3,-2,-1,7,0,0
1558440944354721,-1,-1,0,0,0,-6,0,1
1558440944354721,-1,1,6,5,6,9,2,-1
1558440944361703,0,-1,-5,-13,-6,-4,-3,-2
1558440944361703,0,-3,-4,1,-2,-2,-3,-1
1558440944368713,-1,-1,-1,-3,-3,-1,-1,-1
1558440944368713,-2,-1,0,1,-5,-9,0,1
1558440944385639,0,2,-2,3,5,-2,2,2
1558440944385639,-3,-3,0,-2,-9,2,-3,-4
1558440944391657,-2,0,-1,-3,2,5,-4,-1
1558440944391657,-1,-1,1,0,0,5,0,1
1558440944406583,-2,-2,1,1,5,-9,-1,-1
1558440944406583,0,1,1,1,1,-3,-1,1
1558440944414598,0,1,-2,-3,-2,2,0,-3
1558440944414598,0,1,-2,0,0,2,3,0
1558440944421543,-1,-2,-3,-4,-6,-10,-8,-2
1558440944421543,-1,0,1,-1,-1,-1,1,0
1558440944429522,0,0,0,7,7,5,5,1
1558440944429522,-1,-2,-3,-1,-3,-2,0,-2
1558440944444479,2,0,0,-1,1,5,3,2
1558440944444479,-3,-1,-2,-3,-6,-4,-7,-6
1558440944451460,-3,-2,-1,3,3,-8,-5,-2
1558440944451460,-1,0,1,-5,-1,0,5,0
1558440944466456,-4,-2,-6,0,-4,-8,-8,-3
1558440944466456,-2,-1,2,2,1,-1,2,0
1558440944474434,0,0,1,-2,2,8,1,0
1558440944474434,-3,-3,-5,-2,-7,-10,-7,-4
1558440944489394,-2,-2,1,1,-8,-4,-4,-3
1558440944489394,-2,-2,-2,-6,-1,8,1,-2
1558440944490358,1,0,2,0,4,-8,4,3
1558440944490358,1,-1,-3,-3,6,-1,-1,1
1558440944504321,-3,-1,-2,0,-6,0,-1,-4
1558440944504321,0,-1,1,-4,0,-3,-1,-1
1558440944511359,0,-2,-1,-2,-9,1,-3,-1
1558440944511359,-1,0,-6,1,-3,-4,0,1
1558440944526261,-1,-4,-3,-4,1,7,1,-1
1558440944526261,0,1,-1,3,-9,-9,-4,-3
1558440944535237,-2,-3,-5,-6,3,2,-2,-4
1558440944535237,1,-1,6,4,13,4,0,2
1558440944550196,-2,-1,0,-3,-1,2,0,2
1558440944550196,1,-1,-1,3,5,-2,1,1
1558440944550196,-1,0,0,1,-1,2,-5,-3
1558440944550196,-1,-2,-5,-7,-12,-3,-3,-2
1558440944564159,0,-2,-1,3,5,5,0,1
1558440944564159,2,1,0,1,3,5,4,2
1558440944572137,-1,0,-2,-5,-1,-2,1,2
1558440944572137,-2,-2,-4,-2,-4,-8,-4,-2
1558440944587116,-1,0,3,3,0,0,0,1
1558440944587116,-3,-1,-3,-3,1,-1,-6,-2
1558440944595078,-1,-1,4,1,1,2,0,-1
1558440944595078,-1,0,-3,-2,-2,6,2,-1
1558440944610076,-4,-4,-4,-4,-9,-8,-3,-3
1558440944610076,0,1,-1,-2,2,1,-3,0
1558440944610076,0,1,-3,-5,6,4,11,6
1558440944610076,-2,-2,-1,2,0,-2,-5,0
1558440944623999,0,1,-1,1,4,2,-1,0
1558440944623999,-5,-1,-3,-3,-2,2,-1,-3
1558440944631979,-2,-2,-3,1,-8,-12,-7,-4
1558440944631979,-2,0,4,-2,1,0,0,-3
1558440944646939,-2,0,-1,-1,-5,-4,-2,0
1558440944646939,-2,-3,-2,0,3,5,4,1
1558440944661900,0,-1,2,3,0,1,2,0
1558440944661900,-2,-2,-4,-7,-3,-1,-1,-1
1558440944669878,2,0,2,0,8,4,3,2
1558440944669878,-3,-5,0,-1,-11,-8,-9,-3
1558440944670875,1,-1,-2,-1,9,2,0,-3
1558440944670875,-3,-2,-1,-2,-6,-2,2,-2
1558440944683839,-3,-2,-2,-1,-6,-3,-6,-6
1558440944683839,0,-1,-1,-7,2,3,-1,0
1558440944691819,2,1,0,-2,-9,-6,-1,1
1558440944691819,1,0,2,3,8,2,0,1
1558440944708772,-1,0,-1,-1,-6,-4,1,0
1558440944708772,-1,0,-2,-4,6,5,7,3
1558440944730715,-1,0,-2,-3,1,-2,-8,-3
1558440944730715,-3,0,-2,2,-5,10,-2,-2
1558440944732710,0,-2,-3,-2,-4,-7,-4,-1
1558440944732710,2,-1,0,4,0,-8,0,1
1558440944733707,1,0,2,4,-3,-7,0,1
1558440944733707,1,0,-1,-3,-3,2,-2,-1
1558440944743679,-3,1,0,-3,3,3,-2,-2
1558440944743679,-2,-3,1,2,-5,-7,-3,-3
1558440944751658,-2,-1,-3,0,2,6,2,-1
1558440944751658,-3,-4,-5,-5,-10,-10,-3,-4
1558440944766619,0,2,2,1,5,16,10,5
1558440944766619,-1,1,-1,2,-4,-8,-5,0
1558440944773600,-4,-3,-2,-2,-7,-4,-8,-5
1558440944773600,0,-1,0,3,5,2,3,-1
1558440944789556,-1,-2,-5,-2,-3,-6,-1,-3
1558440944789556,1,1,3,0,3,-1,-1,0
1558440944790553,-4,-4,-7,-11,-4,-4,-1,-1
1558440944790553,0,0,1,0,0,5,1,2
1558440944804516,-1,-2,2,3,1,4,-5,-2
1558440944804516,0,0,-3,-1,-3,-3,0,-2
1558440944811497,-1,1,1,-2,-2,-10,-5,-2
1558440944811497,-1,-1,3,4,-2,0,0,0
1558440944844410,0,1,-2,-3,1,-10,5,3
1558440944844410,0,-1,-3,0,6,9,4,-1
1558440944845407,-1,-4,1,3,-4,-1,-4,-3
1558440944845407,-1,-3,-6,-6,-3,-4,-10,-4
1558440944849396,-3,-1,1,0,1,5,2,0
1558440944849396,-2,-1,-2,3,1,0,2,2
1558440944850393,-3,-1,-4,-6,-7,4,2,0
1558440944850393,1,-1,3,-1,2,-10,-3,-1
1558440944864356,0,-1,-1,-3,-2,-1,-1,-1
1558440944864356,0,-2,-5,-2,-4,-6,-3,-1
1558440944871337,-1,-3,0,1,-3,3,-1,-1
1558440944871337,-3,-1,-6,-7,4,13,4,-1
1558440944886299,0,0,2,3,-2,-10,1,1
1558440944886299,0,0,3,-2,3,-12,-3,-1
1558440944894277,0,0,-3,-1,7,15,5,-1
1558440944894277,-2,-2,-1,-4,-20,-13,-9,-5
1558440944910234,0,0,1,5,13,3,5,1
1558440944910234,-1,1,1,-3,1,6,6,2
1558440944910234,-2,-1,-1,-1,-4,-6,-4,-1
1558440944910234,-1,1,0,3,1,4,0,0
1558440944924197,-1,-2,-5,-6,-8,-7,-7,-4
1558440944924197,-1,-3,0,-4,-5,-2,0,0
1558440944931178,1,0,1,4,9,-3,0,2
1558440944931178,-2,-1,0,-3,2,-1,-1,-1
1558440944955127,-3,-4,-3,-3,-14,-2,-7,-6
1558440944955127,0,-1,-2,3,0,-3,0,-4
1558440944955127,1,2,2,1,5,7,8,5
1558440944955127,0,-1,2,3,2,-4,-2,-2
1558440944970075,-2,-4,-7,-10,-5,1,-2,-3
1558440944970075,-3,-3,-1,2,-5,3,0,-2
1558440944970075,0,-2,-6,-7,-14,-15,-7,-5
1558440944970075,3,3,5,3,13,13,8,7
1558440945008969,0,1,-1,3,-4,-6,-3,-2
1558440945008969,-4,1,3,0,1,13,-1,0
1558440945008969,-1,-2,-5,-4,1,-1,0,-2
1558440945008969,-2,-2,-1,1,-3,-4,-4,-2
1558440945010964,-2,-3,-2,-4,-4,-1,1,-1
1558440945010964,-1,-1,-2,1,3,-2,-1,0
1558440945013994,-2,-3,-1,-1,1,4,1,0
1558440945013994,-2,-1,-2,0,-5,-12,-4,-3
1558440945029918,0,1,3,0,3,-3,0,0
1558440945029918,0,-4,-2,-3,0,0,-4,-3
1558440945030911,-2,1,1,6,1,9,-1,-1
1558440945030911,-2,-2,-3,-8,-3,-9,3,1
1558440945043878,-1,0,3,-1,-2,0,-2,-1
1558440945043878,-1,-1,-1,2,-3,-4,-4,-3
1558440945067811,-1,-1,-3,-4,-7,-4,-5,-2
1558440945067811,-1,1,2,0,2,7,3,1
1558440945069841,1,-1,-6,0,7,6,3,0
1558440945069841,-2,-2,-2,-1,2,3,2,1
1558440945073831,0,-3,2,-3,-2,-3,-1,-1
1558440945073831,0,-2,0,-1,-2,-1,-4,-1
1558440945090189,-2,1,-1,1,-1,1,0,1
1558440945090189,-1,1,0,-3,3,5,0,-1
1558440945090753,-1,0,1,-1,-5,-10,-4,-2
1558440945090753,0,-2,-4,1,4,5,2,-1
1558440945112695,1,-1,-3,-4,1,-8,-5,-1
1558440945112695,-3,-2,-5,-6,-7,-7,-4,-1
1558440945113700,-1,1,1,4,6,6,5,3
1558440945113700,-2,0,-2,-1,-9,-8,-8,-4
1558440945126655,-2,-1,3,3,2,5,-1,-2
1558440945126655,-1,0,-4,-6,-11,-2,-2,-3
1558440945135133,-1,-2,-1,6,6,2,2,2
1558440945135133,0,-4,-8,-10,5,1,2,1
1558440945150786,-3,-2,-1,0,2,2,3,-1
1558440945150786,0,0,-1,1,-5,-11,-3,-1
1558440945150786,-2,-2,-2,-3,-6,-5,-5,-3
1558440945150786,-1,0,0,0,-1,4,1,-1
1558440945172896,-1,0,4,0,0,-5,0,2
1558440945172896,-1,-2,-4,3,-4,-5,-2,-1
1558440945173802,1,-1,0,-5,-1,-6,-1,0
1558440945173802,-3,0,1,0,-2,-4,-3,-2
1558440945186494,0,-3,-2,0,-4,9,2,-1
1558440945186494,2,1,2,0,7,0,2,1
1558440945194473,-3,-2,-1,-3,-6,-6,-5,-4
1558440945194473,-1,-2,-2,-1,-8,-11,-6,-1
1558440945209462,-2,-1,-1,-3,-4,2,1,-3
1558440945209462,1,1,2,-1,13,10,3,1
1558440945210430,-1,1,-1,0,3,4,1,-2
1558440945210430,-2,1,-2,1,-5,-1,-3,-2
1558440945224394,-2,-2,-5,-6,-8,-11,-5,-2
1558440945224394,0,-2,0,1,-2,1,1,-2
1558440945231375,0,-2,-1,-2,-2,-8,-3,-2
1558440945231375,-1,-2,0,-4,-4,-8,-4,-1
1558440945246335,2,0,-5,0,6,8,5,3
1558440945246335,-1,1,2,3,-1,-3,0,1
1558440945254315,-2,-1,2,-1,3,7,1,-2
1558440945254315,2,1,1,2,2,4,3,2
1558440945269273,0,-1,2,3,0,-2,-4,-3
1558440945269273,-1,-3,-3,-9,-9,-10,-5,-2
1558440945285230,-3,-2,-2,-2,-3,-3,-6,-3
1558440945285230,-2,0,0,-4,-5,-1,-2,0
1558440945287264,0,1,3,3,1,-1,-2,-1
1558440945287264,-1,1,-1,-2,6,2,5,1
1558440945291243,-1,-1,-4,-3,-3,1,-3,-3
1558440945291243,0,-1,-1,3,4,2,4,-1
1558440945307172,-2,-2,0,-4,-7,-6,-2,-1
1558440945307172,-3,-2,-4,-2,-1,0,-3,-1
1558440945314154,0,-1,3,3,0,0,2,-2
1558440945314154,-1,-4,-6,-3,-7,-4,-6,-4
1558440945338089,1,0,0,-1,6,3,4,1
1558440945338089,0,1,1,1,6,-2,3,1
1558440945339087,0,0,1,2,-4,-2,1,0
1558440945339087,-3,-3,-3,-2,-5,-8,-3,-3
1558440945344075,0,-1,1,0,3,5,5,0
1558440945344075,-2,0,2,5,1,7,-2,-3
1558440945352051,-1,-1,-2,0,-4,-7,-3,-2
1558440945352051,-2,0,-2,-8,-2,-8,-2,-1
1558440945367013,-2,-2,-4,-1,-6,-2,-4,-3
1558440945367013,1,1,0,2,4,-4,0,3
1558440945374036,-2,-1,1,-3,1,-2,-1,-2
1558440945374036,-1,-2,0,5,-2,2,0,-4
1558440945388954,-2,-2,-4,-5,-5,-2,-3,-1
1558440945388954,-3,-3,-6,-5,-12,-3,-4,-3
1558440945396968,2,-2,1,-1,-1,6,1,1
1558440945396968,-1,-1,-3,-1,0,-9,-3,1
1558440945403952,-1,2,4,1,9,4,2,0
1558440945403952,-1,-2,0,-2,1,0,2,-1
1558440945411893,0,-2,-5,-1,0,1,2,-1
1558440945411893,0,-3,2,-2,-2,2,1,0
1558440945426853,0,-2,-1,-2,-4,-8,-9,-3
1558440945426853,-3,-2,-2,-4,-12,-4,-7,-6
1558440945433862,1,-1,-7,-1,7,4,6,3
1558440945433862,3,2,5,1,9,-1,2,0
1558440945448825,-1,-1,-2,-2,-2,0,-1,-1
1558440945448825,-2,-3,-2,0,-1,2,-3,-3
1558440945457778,-5,-3,-1,-4,-10,-4,-4,-2
1558440945457778,-1,-2,-1,3,7,15,7,0
1558440945472730,-1,-1,1,0,-2,-8,-2,-2
1558440945472730,-1,-2,1,-1,1,-2,-2,-2
1558440945472730,0,-1,-1,-5,-9,-8,-2,-1
1558440945472730,0,-1,-5,-1,-1,5,3,-1
1558440945486691,-1,3,1,4,4,4,6,4
1558440945486691,-1,-1,-1,-3,-3,-1,-4,-2
1558440945494670,-3,-1,-1,-2,-2,-7,-3,0
1558440945494670,-2,0,3,5,-1,-1,-2,-2
1558440945509765,-2,-2,-3,-7,-18,-8,-8,-4
1558440945509765,2,-1,0,2,12,4,7,2
1558440945517738,2,0,1,0,14,6,5,2
1558440945517738,-2,0,-1,-4,-4,-2,-3,-1
1558440945532570,-2,0,-1,-1,-2,0,-1,0
1558440945532570,-4,0,-1,-4,-7,-2,1,-1
1558440945532570,-2,-1,-2,2,-5,-3,-6,-3
1558440945532570,-1,0,-2,-3,0,-2,1,2
1558440945563487,-1,-3,0,-2,2,0,-1,-2
1558440945563487,4,1,-6,3,5,0,1,3
1558440945563487,-1,-1,-1,-4,3,3,0,0
1558440945563487,0,-2,2,0,0,5,1,0
1558440945569499,-4,-2,-7,0,-7,-9,-7,-3
1558440945569499,-3,-1,3,-5,-5,-6,-1,-2
1558440945577482,-2,0,-3,0,-3,3,-3,-3
1558440945577482,-2,-1,-5,-6,-6,-6,-8,-4
1558440945592456,-2,-2,1,6,-1,1,1,-2
1558440945592456,1,2,2,-5,12,8,13,5
1558440945593452,1,1,1,3,2,-5,1,0
1558440945593452,0,-2,0,2,-2,-5,-4,-1
1558440945623406,0,-2,-3,-6,-1,0,-2,-1
1558440945623406,-1,-3,-4,-2,-15,-4,-6,-4
1558440945623406,0,-1,-3,2,6,2,0,-1
1558440945623406,-2,0,1,-1,-4,-5,-4,-3
1558440945629357,-1,-1,-4,-2,3,2,0,1
1558440945629357,1,2,2,2,6,7,5,3
1558440945637523,-3,-2,-5,-3,-10,-8,-4,-2
1558440945637523,-1,0,-1,1,8,6,0,0
1558440945652337,-2,-1,0,-6,-5,-5,-6,-3
1558440945652337,-3,-1,-2,0,-8,-10,-2,-2
1558440945653293,1,0,-2,-1,7,6,0,1
1558440945653293,-1,-1,0,0,-4,-1,2,0
1558440945676233,0,0,-3,-2,-1,2,-5,-2
1558440945676233,-2,-3,-3,-4,-8,1,-7,-6
1558440945677233,5,3,8,7,10,-17,7,8
1558440945677233,-2,-3,-7,-4,-1,-6,-3,-2
1558440945689127,-1,1,2,1,0,0,5,-1
1558440945689127,-3,-3,-1,-4,0,0,-7,-3
1558440945697108,-4,-3,-3,-5,-13,-4,-3,-5
1558440945697108,-3,-1,0,2,2,5,1,-1
1558440945712069,-1,-1,2,-1,2,-9,0,1
1558440945712069,-2,-2,-7,-2,-10,-5,-3,-3
1558440945713064,3,2,2,4,15,20,6,2
1558440945713064,0,0,0,-2,-1,0,2,2
1558440945728024,1,-2,1,-4,-1,2,-3,-2
1558440945728024,-2,-1,2,1,-4,-6,-5,-2
1558440945734038,-2,-2,-2,-1,-6,1,-1,0
1558440945734038,-1,-1,-3,-4,-2,-11,-5,-3
1558440945748968,-2,-2,0,-2,-7,-4,-5,-2
1558440945748968,2,2,-2,-2,7,-5,5,4
1558440945756946,0,1,-1,-2,-3,-3,-1,-1
1558440945756946,1,-1,-1,-3,0,2,1,-1
1558440945788861,-3,-1,-1,3,-3,-4,0,0
1558440945788861,0,-2,1,2,4,1,-2,0
1558440945788861,-4,-3,1,1,-5,4,-4,-6
1558440945788861,-2,-2,-8,-10,-10,-5,-5,-4
1558440945790855,-2,0,2,1,1,-1,6,2
1558440945790855,0,2,3,0,5,5,2,2
1558440945793876,-3,0,-1,-3,-5,-3,-5,-3
1558440945793876,-1,-3,-1,5,-2,-1,0,-1
1558440945808837,-1,-2,-6,-5,0,3,-1,-2
1558440945808837,-1,-3,-3,-5,-3,-5,-4,-3
1558440945841718,-3,-3,-3,-1,-12,-8,-7,-1
1558440945841718,2,3,6,3,13,13,8,4
1558440945843713,3,3,3,2,-1,-2,3,1
1558440945843713,-1,-1,0,-3,5,1,2,1
1558440945843713,-2,-2,-6,-5,-2,3,-2,-3
1558440945843713,-1,0,0,1,-3,-5,1,1
1558440945847914,0,0,-1,-1,3,-9,-3,1
1558440945847914,-2,-1,-1,4,-5,6,-4,-2
1558440945854711,-1,-1,2,-5,-1,-2,-1,-2
1558440945854711,-1,-1,-1,-1,-1,-2,-1,0
1558440945868648,-2,-2,-4,2,0,-5,-5,-3
1558440945868648,1,1,2,-1,-1,1,3,-1
1558440945877623,-2,-4,-4,-8,-8,-5,-7,-5
1558440945877623,0,-3,-4,2,-1,0,-1,-1
1558440945892583,-2,0,2,2,8,5,3,1
1558440945892583,0,-3,-2,-2,-5,-4,-3,-4
1558440945893580,-1,-2,3,1,6,3,6,3
1558440945893580,-3,1,2,0,-3,-7,-6,-1
1558440945906734,0,0,-1,-4,-9,1,-1,0
1558440945906734,-1,1,0,1,9,1,3,2
1558440945914712,-1,-2,0,5,-6,-5,-2,-4
1558440945914712,-2,-3,-6,-6,-1,5,-3,-5
1558440945929494,0,-1,-2,-1,5,3,3,-1
1558440945929494,-1,-2,0,-5,-9,-8,-7,-4
1558440945937463,1,1,0,-3,-4,-6,-3,-2
1558440945937463,-2,1,3,1,5,9,5,-1
1558440945952427,1,-2,-4,-4,-7,-6,-3,-1
1558440945952427,0,0,0,7,15,10,4,3
1558440945953420,-2,-1,-2,-5,-4,-7,-3,-4
1558440945953420,0,-1,-1,-4,-4,3,3,-1
1558440945966420,-2,-1,0,3,7,6,3,0
1558440945966420,-1,-2,0,-3,-4,-2,-1,-1
1558440945974366,-1,-1,-3,-4,-4,-5,-3,2
1558440945974366,-2,-3,1,1,-6,-3,-6,-3
1558440945989513,0,-2,-5,-3,1,-1,-1,1
1558440945989513,-3,-3,-2,2,-1,7,2,-1
1558440946005318,2,2,3,2,3,5,3,2
1558440946005318,-2,-4,-8,-12,-6,-15,-6,1
1558440946012262,-2,1,0,-5,-4,6,-1,-4
1558440946012262,-3,-2,-3,-5,-9,-17,-8,-5
1558440946013275,1,1,-1,7,9,10,4,0
1558440946013275,-2,0,2,3,7,8,3,1
1558440946026361,0,-3,-1,-3,-2,6,3,0
1558440946026361,0,0,-3,3,2,0,3,0
1558440946034340,-2,1,-2,-1,-4,-7,-2,-1
1558440946034340,1,-1,1,-4,3,-1,1,1
1558440946049422,-2,-3,-1,0,-5,0,-3,-3
1558440946049422,-1,-1,-3,3,2,11,5,1
1558440946064382,0,-2,-1,-6,-6,-12,-6,-3
1558440946064382,0,1,-1,5,4,-9,-3,-1
1558440946072361,0,1,5,8,1,2,3,1
1558440946072361,-3,-4,-6,-13,-13,-12,-8,-1
1558440946073331,-1,-2,-9,-5,-5,0,-3,-1
1558440946073331,-1,-1,2,0,-4,5,0,-3
1558440946086324,-3,-1,-2,1,5,-2,-2,-2
1558440946086324,1,2,2,2,5,2,4,1
1558440946094306,-1,-1,-2,-2,-1,0,-3,0
1558440946094306,-1,1,3,5,11,10,7,3
1558440946119210,-1,1,1,-4,-1,0,-3,-2
1558440946119210,2,-2,1,-2,-6,-6,-4,-2
1558440946120206,-2,-1,-3,3,-6,-5,-3,-1
1558440946120206,-1,-1,-2,-3,-3,-2,-2,-3
1558440946132177,-2,-1,0,-2,-2,-1,-2,-2
1558440946132177,-2,2,-2,0,4,2,4,3
1558440946133172,1,-2,0,-3,-6,-4,-1,0
1558440946133172,3,3,3,4,8,5,2,1
1558440946146138,-1,-3,-2,0,-2,-7,-2,-1
1558440946146138,-2,-2,-1,1,-9,-6,-7,-5
1558440946154114,-2,-3,-3,-5,-4,1,-1,-1
1558440946154114,-1,0,-1,-1,0,2,5,0
1558440946179048,2,3,3,4,10,8,2,2
1558440946179048,-4,-3,-3,-2,-4,-3,-4,-7
1558440946180044,-1,-2,2,2,4,-1,-1,0
1558440946180044,-1,1,-2,-3,-4,-1,-2,0
1558440946192224,-1,-5,-3,-2,-8,-5,-4,-2
1558440946192224,0,0,-2,-2,-3,2,3,0
1558440946200063,2,-1,-1,-2,0,-8,0,-1
1558440946200063,-1,-3,-1,1,-8,-6,-7,-2
1558440946230973,2,2,1,2,14,3,5,5
1558440946230973,-2,-3,-3,-7,-7,5,-4,-3
1558440946231907,-3,-2,0,0,0,3,-2,-2
1558440946231907,-2,-2,-1,-2,-5,-10,-1,1
1558440946233089,0,-2,-3,-3,-1,8,2,-1
1558440946233089,0,-1,-1,4,-1,-8,-5,-2
1558440946237147,-1,3,0,-2,5,10,3,3
1558440946237147,-5,-1,0,-3,-11,-4,-4,-1
1558440946252117,-2,2,1,-2,3,-2,0,1
1558440946252117,0,-2,1,3,2,4,5,2
1558440946260051,-1,-3,-3,-8,-2,3,-4,-3
1558440946260051,1,-1,1,0,-1,-2,3,0
1558440946267031,-1,0,0,1,-5,-16,-6,-1
1558440946267031,-1,1,2,3,3,-6,1,2
1558440946281994,0,-3,-4,-10,-2,3,-3,-4
1558440946281994,-2,-3,-4,-1,-7,0,-7,-5
1558440946288979,-1,-4,-2,-4,-6,-3,-1,0
1558440946288979,3,0,5,-2,8,1,4,3
1558440946296924,-4,-4,-2,3,-2,-7,-2,-4
1558440946296924,-4,-2,-4,-3,-17,-11,-6,-6
1558440946311885,3,1,-1,0,4,7,3,-2
1558440946311885,-1,0,-1,-2,-5,-1,-5,0
1558440946319893,1,1,2,5,7,0,3,3
1558440946319893,-1,-3,-4,-4,0,-5,-4,-4
1558440946342805,-5,-2,-3,-8,-5,6,-1,-3
1558440946342805,1,0,2,2,-5,-7,3,2
1558440946343798,0,0,-1,1,2,-1,0,-1
1558440946343798,-1,-1,1,0,1,0,-1,-1
1558440946348783,-1,-2,-2,-3,-3,-3,0,0
1558440946348783,0,-1,-3,0,8,6,-1,-2
1558440946357760,-3,-1,-4,-3,-9,-5,-2,0
1558440946357760,0,0,3,5,7,4,1,1
1558440946371757,-2,-2,-3,-4,-7,-5,-7,-3
1558440946371757,-1,-1,3,0,-2,-5,-4,-4
1558440946379704,-4,-1,-5,-1,0,5,3,-1
1558440946379704,-1,0,-2,0,0,-1,2,2
1558440946394814,-3,-2,2,1,-3,-5,-4,0
1558440946394814,-2,-2,-4,-3,-8,-6,-6,-5
1558440946395661,1,-3,5,2,-2,-1,0,-1
1558440946395661,-1,-1,-5,-6,4,2,6,3
1558440946410618,-1,-2,-1,2,-5,-3,-2,-1
1558440946410618,-3,0,-5,-4,5,3,0,-2
1558440946417748,0,0,0,5,8,4,5,2
1558440946417748,0,-1,-3,-3,2,1,0,-3
1558440946431711,-1,-1,-4,-3,-2,-3,2,0
1558440946431711,-1,-3,-1,3,-4,0,-2,-1
1558440946447547,-2,-2,-3,-10,-6,3,-2,-2
1558440946447547,2,0,-1,-2,-3,-7,-4,-1
1558440946454529,0,-1,0,-1,2,-3,2,1
1558440946454529,0,-1,1,-2,0,7,2,0
1558440946455499,-3,1,6,-1,2,-3,1,1
1558440946455499,-1,-1,0,1,-5,0,-1,-1
1558440946469489,-1,-1,-4,-3,0,4,-4,-2
1558440946469489,0,-4,0,-1,1,-1,1,0
1558440946476476,0,-4,-2,0,-7,-8,-3,1
1558440946476476,2,0,0,2,11,6,4,3
1558440946491440,-1,-1,1,1,0,1,-2,-1
1558440946491440,-2,1,-4,-5,-3,-2,-1,0
1558440946499415,-1,0,-1,2,0,0,0,-3
1558440946499415,-3,-4,-2,-1,-10,-6,-7,-4
1558440946514372,2,1,1,-1,-7,-1,1,-1
1558440946514372,1,1,1,-1,10,2,6,3
1558440946515337,-1,-3,0,1,-1,-4,-2,-2
1558440946515337,-4,-5,-1,-9,-3,-3,-5,-2
1558440946529303,-4,-4,-3,-1,0,1,-1,-3
1558440946529303,-1,-1,-2,1,-2,-2,-5,-2
1558440946536286,2,1,1,3,3,-7,-2,0
1558440946536286,1,2,1,0,4,6,2,1
1558440946551240,-3,-2,-9,-6,-2,-3,0,-2
1558440946551240,-2,-1,2,0,-4,-1,-2,1
1558440946560217,-2,-2,-2,-4,-1,1,-2,-1
1558440946560217,-2,0,2,1,0,-1,1,-1
1558440946575178,-1,1,1,2,-3,-7,-2,-3
1558440946575178,-1,-2,-3,-4,-4,-3,1,-4
1558440946575178,0,-2,0,-1,6,9,1,-1
1558440946575178,1,-1,0,-1,-2,1,-2,-1
1558440946589139,-1,0,2,1,5,4,4,3
1558440946589139,-1,-2,-4,-9,-9,-13,-4,-3
1558440946596122,-2,-1,-2,1,-7,-11,-7,-2
1558440946596122,-2,-4,-1,1,-3,-3,-2,-2
1558440946613076,-1,-1,1,0,11,13,4,3
1558440946613076,-4,-2,-1,0,-3,-4,-3,-2
1558440946620058,1,1,-3,2,0,2,1,-1
1558440946620058,-1,2,1,0,8,0,-1,-1
1558440946635107,-1,1,-4,-9,-9,-9,-6,-1
1558440946635107,-3,-3,-3,-1,-9,-6,-7,-3
1558440946636034,-1,-1,2,0,5,10,7,1
1558440946636034,-1,-1,-1,-1,-4,-3,-1,-1
1558440946657013,0,-2,-2,-1,-9,-18,-10,-5
1558440946657013,1,1,1,1,7,8,8,5
1558440946657956,0,-2,-1,-2,1,3,0,1
1558440946657956,2,-1,-1,-4,-1,-8,1,-1
1558440946671928,-1,-2,1,2,-3,3,0,-1
1558440946671928,-1,-3,-1,-4,-8,-8,-8,-1
1558440946679899,-1,-2,-3,-4,-1,4,-2,-3
1558440946679899,-1,1,1,6,-5,-1,-2,0
1558440946695006,0,1,0,-1,7,-3,0,-1
1558440946695006,-1,-1,-4,-8,2,2,-1,0
1558440946695854,-1,-2,-2,-1,-4,3,3,1
1558440946695854,0,0,-1,-2,4,-5,0,-1
1558440946708821,-1,-2,-2,0,-10,-2,-6,-3
1558440946708821,2,1,-1,2,9,11,4,0
1558440946716799,-2,-2,2,1,-7,-12,-3,-1
1558440946716799,-1,-1,-4,-9,2,4,2,0
1558440946732756,-3,-4,-1,1,-1,-3,1,1
1558440946732756,-2,-1,1,4,2,4,3,0
1558440946739738,0,-1,2,1,1,-1,-4,-4
1558440946739738,0,-2,-2,-2,-3,0,2,-1
1558440946754696,-1,-3,-4,-1,1,3,1,-1
1558440946754696,-3,-1,0,1,0,-4,-1,-2
1558440946755695,-2,-1,-4,-4,-11,-10,-8,-1
1558440946755695,-3,-3,-3,-4,-2,6,0,-2
1558440946785614,3,1,1,5,6,6,3,-1
1558440946785614,1,-1,-4,-2,2,-7,-2,0
1558440946786612,1,1,4,2,6,5,6,1
1558440946786612,-1,-3,-4,-1,0,1,-2,-1
1558440946791601,-3,-3,-1,-1,-7,-2,-4,-4
1558440946791601,-3,0,0,-6,-7,-2,-3,-2
1558440946799577,-3,-1,-2,1,2,-2,-2,-1
1558440946799577,1,0,-1,3,1,-4,-3,1
1558440946814536,0,-1,3,-2,-1,4,1,-1
1558440946814536,0,-1,1,0,-3,-3,-3,-2
1558440946815535,0,-2,-2,0,4,2,3,0
1558440946815535,-3,0,-2,-3,-3,-1,3,-1
1558440946838472,0,0,0,-1,3,1,-1,-1
1558440946838472,0,-3,-1,5,-4,-3,0,-2
1558440946839472,0,-1,-2,-12,-5,-2,-4,-1
1558440946839472,-2,-3,0,7,-4,-15,-8,-2
1558440946851475,-1,-1,-3,-4,2,1,1,2
1558440946851475,-1,-2,0,0,-1,0,-2,-1
1558440946859417,0,-1,-1,1,1,4,3,-1
1558440946859417,-1,0,0,0,-3,3,-3,-3
1558440946874376,0,1,-1,2,4,-5,-3,-1
1558440946874376,-1,1,0,0,-1,1,-1,-1
1558440946875373,0,0,0,1,6,-2,3,0
1558440946875373,0,0,-4,-1,-11,-5,-5,-2
1558440946898315,-2,-1,-3,-2,-3,1,-2,-1
1558440946898315,-2,-3,-1,-1,0,-7,-1,-2
1558440946899310,1,-1,0,-2,-5,1,-3,0
1558440946899310,-1,-1,2,-2,3,3,2,0
1558440946911281,1,-2,-5,-3,-6,-4,-3,-4
1558440946911281,0,1,-3,-5,2,9,4,1
1558440946920254,-3,-2,-1,2,-5,-11,-3,-2
1558440946920254,0,-3,-2,-5,2,-1,-3,-1
1558440946943194,-2,1,2,2,0,-3,1,1
1558440946943194,-2,-3,-2,1,-6,2,-3,-1
1558440946943194,-1,0,-5,-3,1,3,-3,-2
1558440946943194,1,1,0,-3,4,2,4,2
1558440946949191,0,-1,-2,5,-2,-3,1,-1
1558440946949191,-2,-3,0,-2,-2,-4,-4,-4
1558440946956164,-4,-2,-3,-7,-2,-1,-1,-4
1558440946956164,-4,-4,-3,2,1,2,1,-1
1558440946972117,0,1,2,4,2,4,0,-1
1558440946972117,-1,-1,-4,-7,-5,-4,-1,-1
1558440946980095,-3,-4,-3,2,-3,-6,-6,-3
1558440946980095,1,-1,0,0,-1,2,0,-1
1558440946995065,-3,0,0,-3,6,3,3,2
1558440946995065,-1,-2,-2,-2,-4,-6,-2,-2
1558440946995065,-2,1,-1,4,6,8,4,1
1558440946995065,0,1,1,-1,-2,-8,-3,0
1558440947010014,-2,-3,-4,-2,-7,-5,-3,-1
1558440947010014,2,1,2,3,10,11,6,2
1558440947016999,-4,-2,0,-1,-11,-10,-6,-1
1558440947016999,1,2,1,5,7,14,6,0
1558440947031956,-3,-2,-1,-11,-7,-12,-4,-3
1558440947031956,-1,0,-5,-5,-1,4,1,-2
1558440947039940,-1,0,0,0,-1,0,-2,-1
1558440947039940,-4,-1,-2,-2,-5,-5,-3,-1
1558440947054895,0,-1,-1,-1,-3,-7,-3,-3
1558440947054895,-1,-3,2,4,-2,-2,-1,-1
1558440947055893,2,-2,0,-3,3,2,3,0
1558440947055893,-4,-3,-1,-3,-6,1,-1,-2
1558440947068863,0,-2,-2,2,0,0,-1,-1
1558440947068863,0,-1,1,-2,5,-1,5,2
1558440947076834,1,1,-3,-1,2,-1,0,1
1558440947076834,-2,-1,-1,0,-1,-6,-3,-2
1558440947091796,0,-1,0,-4,-5,0,-3,-2
1558440947091796,-2,-1,1,3,0,-9,-3,-2
1558440947099776,-1,-1,-1,-3,0,4,1,1
1558440947099776,-2,-2,-3,-3,-5,-7,-4,-1
1558440947113737,-1,0,-3,-3,0,5,-1,-2
1558440947113737,-3,0,2,1,-2,4,-1,-1
1558440947122712,1,-1,-5,1,0,-5,1,0
1558440947122712,-1,0,-1,-5,-5,-5,-4,-3
1558440947128698,4,0,1,1,4,7,3,0
1558440947128698,1,0,0,3,2,-1,0,1
1558440947136676,-2,0,3,1,1,-4,-4,-1
1558440947136676,-1,0,-1,-2,0,0,0,-1
1558440947151641,-2,0,2,7,0,-3,-3,-1
1558440947151641,-2,-2,-5,-8,-6,-2,-3,-4
1558440947159633,0,1,2,-4,-2,-7,2,0
1558440947159633,0,-3,-3,-1,0,4,-1,-1
1558440947173576,-3,-1,-2,-2,1,1,-1,2
1558440947173576,-2,0,0,3,0,9,1,1
1558440947190535,1,-2,-4,-2,-1,-11,-4,-2
1558440947190535,2,0,0,1,5,-4,1,1
1558440947191528,-1,0,2,-3,-1,5,1,0
1558440947191528,-2,-2,-2,-1,-7,0,-6,-3
1558440947196516,0,-1,-7,-4,-11,-12,-7,-3
1558440947196516,-1,2,-2,-1,3,-1,3,2
1558440947211475,0,0,1,1,-2,2,3,-1
1558440947211475,-1,-2,0,0,0,0,-6,-5
1558440947219454,-3,-3,1,-3,-1,-4,-1,-2
1558440947219454,-3,-3,-3,-8,2,1,-1,-1
1558440947234419,-3,-4,-3,-7,-5,-12,-4,0
1558440947234419,-1,0,1,1,-6,-4,-3,-2
1558440947242393,-1,-1,-3,3,6,18,3,0
1558440947242393,-2,-3,-1,0,-9,-2,1,-2
1558440947249376,1,1,3,4,18,7,9,4
1558440947249376,-2,-1,-1,-1,-2,-8,-3,0
1558440947256357,-2,-2,0,-1,-6,-1,-5,-4
1558440947256357,2,0,2,0,2,0,1,-1
1558440947273310,-4,-2,-3,-3,-14,-9,-9,-3
1558440947273310,2,0,0,1,5,5,4,0
1558440947280292,0,2,2,1,2,-1,-3,0
1558440947280292,-1,-2,-5,-5,-4,-6,-4,-3
1558440947294253,1,0,-2,-3,-6,-6,-2,-3
1558440947294253,4,1,1,0,13,6,9,4
1558440947302233,-2,-5,0,4,-2,-4,-4,-1
1558440947302233,-1,-3,1,-2,-2,3,-3,0
1558440947309220,0,-1,-5,-3,-2,-4,-3,-2
1558440947309220,-1,-2,-3,-4,-11,-8,-5,-4
1558440947316195,1,3,2,2,10,13,8,1
1558440947316195,-2,-3,1,0,-2,-1,2,0
1558440947331159,-2,-3,-4,-2,2,-3,-2,-1
1558440947331159,0,-1,-2,1,-3,-5,-3,-1
1558440947340132,3,2,3,2,6,2,7,4
1558440947340132,-1,2,-4,-2,0,-3,-3,-4
1558440947354096,-2,-1,-2,-4,-12,-8,-5,0
1558440947354096,0,0,-1,0,5,4,3,1
1558440947362073,0,-3,0,-4,0,6,1,-2
1558440947362073,-2,0,1,3,2,3,-1,-1
1558440947377034,-1,-5,0,2,-3,3,-4,-1
1558440947377034,-1,1,1,-2,-4,-4,-2,2
1558440947378031,-2,-2,-2,0,-3,-5,-2,-1
1558440947378031,0,1,-1,2,7,2,6,-1
1558440947391996,-1,-2,-3,-5,-2,-7,-4,0
1558440947391996,-2,-3,-2,0,-3,10,0,-3
1558440947399972,-4,-2,-3,0,-6,-2,-7,-5
1558440947399972,1,-1,0,4,-1,-8,-2,1
1558440947413947,3,1,2,-2,15,15,11,4
1558440947413947,-2,0,2,1,0,-7,0,-1
1558440947421913,-3,-3,-8,-9,-9,-3,-6,-3
1558440947421913,-3,-2,-7,-5,-16,-7,-9,-5
1558440947445851,1,1,5,6,13,11,6,2
1558440947445851,-2,-1,-1,3,-3,-10,-5,-1
1558440947445851,-2,-1,-2,-4,-2,0,-3,-2
1558440947445851,1,1,3,1,7,7,4,-1
1558440947451832,-3,-2,-2,3,-8,-8,-4,-2
1558440947451832,0,-3,-1,-6,0,-10,-4,0
1558440947459815,0,-3,-1,-2,1,1,3,-1
1558440947459815,-1,-3,-4,-2,-2,-4,-3,0
1558440947473773,-3,-1,-2,-5,-7,-1,-1,-4
1558440947473773,-2,-1,-2,-5,1,7,1,-2
1558440947489736,1,-2,-1,1,-1,0,-5,-2
1558440947489736,-2,-2,1,2,-3,-1,-3,-2
1558440947497710,1,-1,1,1,2,-6,-3,-2
1558440947497710,1,1,0,0,-1,-8,-1,-1
1558440947497710,-2,-2,-3,-6,0,0,1,0
1558440947497710,-2,-1,3,-1,-2,2,0,0
1558440947511672,-3,-2,-4,-3,-1,-1,-5,-5
1558440947511672,-1,-2,-2,2,-1,4,-1,-2
1558440947519656,1,-1,0,4,1,-4,-3,-1
1558440947519656,-3,-3,-2,-5,-7,-6,-2,0
1558440947533624,2,3,6,9,13,-2,8,6
1558440947533624,-1,-2,0,-6,2,6,0,-1
1558440947542597,-4,-3,-9,-3,-6,1,-2,-4
1558440947542597,-1,0,0,-2,-3,-13,-6,-1
1558440947557549,0,-1,-4,1,-4,1,1,1
1558440947557549,2,2,3,2,2,-3,2,2
1558440947557549,-3,1,3,1,-1,1,0,-1
1558440947557549,1,0,-2,1,1,9,4,0
1558440947571512,-1,-1,-3,-2,0,7,-4,-3
1558440947571512,-2,-4,-5,-5,-10,-8,-10,-6
1558440947579492,1,2,6,0,-2,-14,0,0
1558440947579492,4,1,7,9,12,10,5,2
1558440947594453,-3,-3,-4,-7,3,3,2,-2
1558440947594453,-2,-4,-9,-5,-5,-5,0,-2
1558440947602433,-1,-3,-3,3,-4,-4,-3,-2
1558440947602433,-3,-1,0,0,2,-4,-5,-1
1558440947617389,0,1,2,-6,-4,-4,-2,-1
1558440947617389,0,-2,-4,1,-3,2,-5,-3
1558440947618386,-2,-3,-3,-3,-9,-4,-8,-3
1558440947618386,2,2,-2,-5,8,-2,6,4
1558440947631354,-1,-2,0,0,-4,-4,-5,-1
1558440947631354,-1,-1,1,4,5,9,11,3
1558440947640326,0,1,0,-1,1,-1,-2,-1
1558440947640326,-3,-1,-1,-1,-4,3,-3,-4
1558440947663270,0,-1,-2,1,-5,-8,-6,-3
1558440947663270,-1,-2,-3,-7,-4,-6,-6,0
1558440947663270,0,-1,0,-1,5,11,6,1
1558440947663270,-2,-1,-1,0,-4,2,2,-2
1558440947677287,-1,-1,-3,-1,-2,-3,1,-1
1558440947677287,-2,0,0,1,2,0,0,-1
1558440947678226,2,0,-2,0,3,7,2,1
1558440947678226,-1,-2,-4,3,-2,0,-3,-2
1558440947691194,1,-1,0,-4,-5,-1,-1,-1
1558440947691194,-1,0,3,-1,-3,-6,-2,-1
1558440947700168,-1,1,1,2,1,-2,1,-2
1558440947700168,-3,-2,-4,-8,-3,2,-1,-2
1558440947716558,2,-1,2,5,7,-1,3,2
1558440947716558,-2,-2,-2,0,-4,-5,-5,-3
1558440947722111,-2,-1,1,0,3,6,3,0
1558440947722111,-2,-3,-8,-9,-6,-6,-7,-3
1558440947737173,-3,-1,0,-4,0,-2,-1,-1
1558440947737173,0,1,-3,0,0,6,1,2
1558440947738066,3,-1,2,2,5,-1,1,3
1558440947738066,2,-1,1,1,-2,-6,-1,0
1558440947752030,-4,-2,-7,-4,-5,1,-4,-5
1558440947752030,-3,0,4,0,-2,-1,-3,-2
1558440947767093,-3,-1,-5,-5,-4,1,-1,-1
1558440947767093,-2,-1,2,3,0,-1,-1,0
1558440947774152,-2,-4,-3,-6,2,2,0,-3
1558440947774152,-1,0,2,1,0,2,2,-2
1558440947781950,-1,0,4,3,0,-5,-3,-1
1558440947781950,-1,1,-6,-6,2,-6,-1,0
1558440947796909,-1,-2,0,0,-4,2,0,2
1558440947796909,-2,-1,-3,-4,-1,3,-3,-2
1558440947797907,0,-1,1,3,3,-7,2,2
1558440947797907,1,-2,0,1,-2,-6,-2,-1
1558440947811870,0,-1,-1,0,-5,1,-5,-5
1558440947811870,1,-2,-4,-3,-7,-4,4,0
1558440947819847,-2,-2,1,0,-3,-1,0,1
1558440947819847,0,-1,4,2,8,8,-1,-1
1558440947833810,-2,-2,-6,-7,-6,-8,-2,-2
1558440947833810,-1,-1,0,0,-1,1,-1,1
1558440947841788,-2,-3,-6,-10,-6,0,-1,-3
1558440947841788,-1,0,2,3,6,6,4,-2
1558440947856853,-2,0,2,0,-1,-12,-2,-2
1558440947856853,0,-2,-2,-4,2,-2,-6,-2
1558440947857745,-2,1,-2,-2,-4,-5,-3,-1
1558440947857745,-2,-1,-1,1,-3,2,-4,-2
1558440947871737,-4,-1,2,4,2,11,7,2
1558440947871737,1,-1,-2,-2,-4,-11,0,1
1558440947879689,0,-2,-3,-2,0,-9,-5,-2
1558440947879689,-1,1,2,3,4,2,2,2
1558440947893651,1,0,-1,-1,-6,-10,-5,-3
1558440947893651,-2,-4,-2,-4,-4,2,0,-3
1558440947902626,-2,-2,1,1,3,3,0,-1
1558440947902626,-1,-2,0,-1,-3,1,-2,-1
1558440947917603,-1,1,-2,2,2,2,-1,1
1558440947917603,0,0,1,3,4,-2,-1,-1
1558440947918584,-2,-3,0,-3,-6,-1,-3,-4
1558440947918584,-2,0,-6,-8,-7,-11,-5,-3
1558440947940526,3,1,2,-1,2,-2,2,2
1558440947940526,-3,-3,-7,6,-1,1,1,-2
1558440947941522,-1,0,-1,-2,-1,1,-2,-1
1558440947941522,-1,-1,2,4,6,11,0,0
1558440947954490,-3,-3,-5,-2,-9,-6,-5,-2
1558440947954490,-1,-1,-2,-5,2,1,0,0
1558440947962472,-3,0,3,0,0,3,-2,-2
1558440947962472,-2,0,-1,-1,-3,-2,3,0
1558440947977426,-2,-4,-5,-6,-6,-11,-9,-4
1558440947977426,3,2,5,4,13,11,9,4
1558440947977426,2,0,-2,1,1,-3,3,1
1558440947977426,-1,0,0,3,-3,-8,-2,-1
1558440947991388,-3,-3,-5,-8,-6,-2,-4,-2
1558440947991388,-3,-2,2,-2,-2,-1,-5,-1
1558440947999367,-1,-1,1,-1,1,5,-1,-2
1558440947999367,0,-2,-3,0,-2,0,-1,1
1558440948014328,0,-1,-2,-2,0,-3,1,1
1558440948014328,-2,-3,-6,0,-6,-1,0,0
1558440948022307,2,0,1,-2,4,2,-2,-2
1558440948022307,-2,-1,-1,-7,-7,-7,-4,-4
