timestamp,emg1,emg2,emg3,emg4,emg5,emg6,emg7,emg8
1558440801904715,0,0,-2,18,-6,0,-7,-1
1558440801904715,-5,0,1,1,4,5,6,4
1558440801904715,0,0,0,-17,0,4,-1,-2
1558440801904715,1,-1,-1,12,1,5,2,-1
1558440801907707,-3,-2,-1,-1,-8,-9,-6,-4
1558440801907707,-3,-2,-4,-13,-6,-9,-6,-7
1558440801907707,1,2,-3,4,5,2,6,2
1558440801907707,-1,3,2,10,4,0,1,4
1558440801913691,0,-1,2,-8,2,0,-1,1
1558440801913691,1,-1,1,-6,-3,-6,-4,-3
1558440801920671,-4,-2,0,14,-5,3,-4,-1
1558440801920671,-4,-6,-9,-13,-14,-5,-10,-6
1558440801932640,2,1,2,-4,7,5,3,-1
1558440801932640,1,-1,-6,3,-2,-14,1,2
1558440801953583,0,1,4,2,4,4,5,2
1558440801953583,-1,-1,3,-5,1,2,3,4
1558440801956576,-4,-3,0,0,-4,-2,0,-7
1558440801956576,0,-1,-4,7,-7,-7,-7,-3
1558440801958569,0,-1,-1,-1,-4,-6,-8,-4
1558440801958569,-3,0,-6,-14,-8,-7,0,-4
1558440801973531,-1,-2,1,3,1,-10,-4,2
1558440801973531,1,2,6,7,15,17,7,2
1558440801982506,0,0,0,0,-2,-6,-4,-3
1558440801982506,0,-2,-1,-1,-1,8,-3,0
1558440801989487,-3,-2,-6,-7,-4,9,3,-2
1558440801989487,2,0,0,-5,1,-4,5,3
1558440802003449,0,-3,-6,-1,-3,-14,-5,-3
1558440802003449,-1,-1,2,4,1,-1,-4,-1
1558440802013423,-4,-2,-6,-8,-14,-14,-10,-3
1558440802013423,1,1,2,2,11,26,14,4
1558440802051322,-1,1,4,22,3,-2,1,2
1558440802051322,-2,-3,-1,-6,-1,3,-2,-6
1558440802052319,-1,0,-1,-15,1,-2,-1,-2
1558440802052319,-4,-2,-4,9,-14,-12,-11,-3
1558440802053321,-2,-2,-1,-6,-6,-1,-5,-3
1558440802053321,-1,-1,-3,-19,-2,0,1,-1
1558440802057307,2,0,2,14,2,6,12,6
1558440802057307,0,0,3,5,8,-9,0,2
1558440802063290,-1,-3,-5,-15,-7,-2,-2,-4
1558440802063290,-1,-1,-2,2,-5,-2,-6,-5
1558440802072282,-4,-4,-2,7,-8,0,-6,-4
1558440802072282,1,2,3,-7,-1,-5,4,1
1558440802078251,1,0,-1,-3,8,13,4,-2
1558440802078251,0,-3,-2,10,-8,-3,-4,1
1558440802093210,-1,0,1,-1,7,-5,-2,-4
1558440802093210,0,2,1,-6,-1,7,4,-2
1558440802101190,-2,-2,0,6,0,-7,-5,-4
1558440802101190,1,2,0,3,2,-6,0,3
1558440802116148,-3,-2,-3,-6,-8,-5,-6,-2
1558440802116148,-3,-5,-6,-7,-8,4,-6,-7
1558440802123130,-1,-1,2,3,-4,-1,-1,0
1558440802123130,3,3,5,4,17,-2,10,8
1558440802132106,1,-3,0,-4,-2,-2,-3,-1
1558440802132106,-3,-3,-6,2,-3,4,1,-1
1558440802138090,-2,-2,-1,-3,-6,2,-4,-3
1558440802138090,-2,-3,3,-2,1,-6,-1,-2
1558440802155044,0,1,0,6,6,-2,-1,1
1558440802155044,-1,-1,-3,-2,2,3,-2,-1
1558440802161028,-1,-2,-6,-2,5,7,0,-3
1558440802161028,-3,-4,-9,-8,-15,-4,-8,-9
1558440802175987,0,-1,4,4,-1,-1,4,9
1558440802175987,1,0,1,-3,4,2,3,-3
1558440802182969,1,-1,-1,0,-3,-5,2,-1
1558440802182969,0,-1,-5,-3,-3,-3,-3,-4
1558440802191945,0,-1,-4,-2,0,7,-3,-5
1558440802191945,1,0,2,1,5,-10,-4,4
1558440802197929,-3,-2,-1,-3,-6,-10,-7,-1
1558440802197929,0,1,1,2,4,5,4,2
1558440802221865,-3,-1,-1,-5,1,-5,-1,-2
1558440802221865,-1,-1,-2,2,-7,-8,-6,0
1558440802221865,-1,0,-1,-4,-7,1,-3,-4
1558440802221865,0,-1,2,4,-1,-1,-1,-1
1558440802235828,-2,0,-6,-7,-1,-1,5,-1
1558440802235828,0,0,4,2,5,1,3,3
1558440802242810,-1,-2,-4,-4,4,1,-3,-1
1558440802242810,-2,-2,-4,-8,-11,-10,-5,-5
1558440802251785,3,1,3,5,12,10,5,8
1558440802251785,-1,-2,1,-3,-5,-2,-3,-9
1558440802258767,1,1,-1,-5,0,0,0,1
1558440802258767,-5,-3,0,4,-2,12,0,0
1558440802275978,-3,-1,-4,-5,-10,-14,-9,-5
1558440802275978,-2,0,0,-5,4,-7,-1,4
1558440802280708,-1,0,0,5,-7,-7,5,3
1558440802280708,0,-1,-1,1,9,9,1,-4
1558440802297664,0,-3,-1,-1,-6,-6,-4,-4
1558440802297664,0,-1,1,3,0,8,5,1
1558440802303646,1,-3,-4,-7,-4,-17,-5,-3
1558440802303646,0,0,1,0,-2,2,-1,0
1558440802312622,-1,-2,0,-1,5,4,2,0
1558440802312622,1,-1,-4,-2,-6,-1,-5,0
1558440802318606,-1,0,1,0,6,5,0,-8
1558440802318606,0,-1,-5,-8,-2,-2,1,1
1558440802333574,-1,1,1,-1,-2,6,0,-2
1558440802333574,-2,-2,1,2,0,-1,-1,-1
1558440802340554,-2,-1,-1,0,1,0,-2,2
1558440802340554,-3,-1,2,4,2,-3,-2,1
1558440802355514,0,-2,-2,0,-5,-15,-3,2
1558440802355514,0,-2,-2,-4,-1,4,4,1
1558440802363490,0,-2,-2,-1,-6,7,-1,-2
1558440802363490,0,2,1,6,2,-2,-1,-2
1558440802372465,0,2,2,-4,-3,-5,0,-2
1558440802372465,-1,0,-4,-1,1,-1,-1,-2
1558440802378450,-2,-1,1,2,-3,-8,-2,0
1558440802378450,-1,1,-2,1,1,7,5,7
1558440802401386,-1,-3,-1,1,-7,-8,-10,-9
1558440802401386,-1,-3,1,-2,1,7,1,-2
1558440802402383,-1,0,-1,-1,9,15,5,2
1558440802402383,-2,-1,-3,-5,-6,-12,-6,-4
1558440802424325,-3,-3,-5,-5,-3,4,2,0
1558440802424325,0,-1,0,4,-2,-9,1,-1
1558440802424325,0,0,3,2,9,1,0,4
1558440802424325,0,-2,-5,-8,-3,4,2,-3
1558440802432302,-2,-2,-1,2,-6,-3,-7,-5
1558440802432302,-1,2,-3,1,-1,-2,0,-1
1558440802454244,-1,0,3,1,2,4,5,2
1558440802454244,-1,-3,-2,-2,-4,-15,-7,-1
1558440802456239,-2,-2,1,1,-4,-2,-5,-4
1558440802456239,0,-1,-3,-3,1,9,6,-2
1558440802461225,-1,-2,2,-1,1,0,4,1
1558440802461225,-1,0,-2,5,0,6,2,-4
1558440802476185,0,-1,-5,-6,-3,-2,-2,-1
1558440802476185,-2,-1,-1,-2,0,0,-6,0
1558440802483167,0,0,-1,1,-8,-5,-5,-3
1558440802483167,-2,-1,1,-3,-1,-13,-6,3
1558440802498126,-1,-1,-3,-2,2,7,0,-7
1558440802498126,1,0,3,0,3,-9,1,0
1558440802506114,0,-1,-1,0,3,10,5,5
1558440802506114,-1,-2,1,1,0,3,-1,-5
1558440802513094,-3,0,-1,1,-4,-1,-1,0
1558440802513094,-4,-3,-4,-4,-7,-2,-9,-8
1558440802529048,-1,-1,-4,-5,-7,-14,-4,1
1558440802529048,-1,0,2,2,4,4,2,1
1558440802536028,-1,1,0,-1,0,1,3,1
1558440802536028,-1,1,1,-2,5,4,2,2
1558440802543008,3,0,-1,-3,-4,-10,-5,-3
1558440802543008,1,-1,-2,-3,-8,-3,-5,-2
1558440802551986,1,-1,-1,4,12,5,5,3
1558440802551986,1,-1,1,3,-2,1,2,1
1558440802574924,-2,-1,-6,-10,-3,-9,-2,0
1558440802574924,-1,-3,-3,-2,-4,1,-1,-6
1558440802575925,1,0,3,2,6,7,2,3
1558440802575925,-2,-1,1,-2,-5,-10,-7,-2
1558440802588884,-4,-3,-9,-3,-7,-5,-6,-6
1558440802588884,-1,-1,0,1,8,12,7,2
1558440802603844,0,2,2,-1,-3,-2,-1,0
1558440802603844,0,-3,-8,-13,-3,7,-1,2
1558440802604841,-5,-1,2,1,-7,-3,-5,-14
1558440802604841,-1,-1,-1,-2,-5,-8,-5,-3
1558440802611823,2,0,-2,4,0,4,5,2
1558440802611823,-1,0,-3,-3,4,2,3,-1
1558440802626782,2,-2,-4,-2,6,5,4,10
1558440802626782,-2,-3,-2,-3,-5,-8,-9,-7
1558440802641743,-4,-3,1,0,-4,-3,-3,-4
1558440802641743,1,0,3,1,-2,-8,-4,-2
1558440802641743,-1,-3,1,2,2,3,0,0
1558440802641743,-1,1,-3,5,-3,-2,2,2
1558440802657701,1,-3,-4,-12,-1,-6,-2,0
1558440802657701,-1,-1,1,2,1,12,3,-2
1558440802663684,-1,-1,0,1,1,6,1,0
1558440802663684,1,1,4,3,5,-7,3,7
1558440802679641,-3,-1,0,-1,-8,-11,-7,-5
1558440802679641,0,-2,-3,-5,-3,0,1,-1
1558440802686622,-1,-2,0,3,5,-2,-1,-2
1558440802686622,-2,-3,-2,-3,-3,9,0,3
1558440802701584,-2,-1,-1,-2,-2,-10,-3,-3
1558440802701584,-2,-2,-3,-5,-7,-5,-6,-2
1558440802702580,0,1,2,3,0,3,6,4
1558440802702580,1,0,0,-2,2,-2,-1,1
1558440802715546,-1,0,0,2,-2,4,1,0
1558440802715546,-3,-2,0,4,1,-1,-2,-3
1558440802723524,-3,-3,-9,-17,-15,-9,-8,-6
1558440802723524,0,1,-1,1,1,2,2,-1
1558440802732500,2,0,7,5,11,6,3,1
1558440802732500,-4,-3,-10,0,-5,0,-1,-2
1558440802754444,2,0,-1,0,-1,-4,1,4
1558440802754444,-1,-1,0,1,0,5,0,-8
1558440802756436,-1,-2,-7,-10,-8,-2,-6,1
1558440802756436,-2,-1,4,1,4,2,2,-6
1558440802760426,1,2,3,5,-4,-4,-2,-2
1558440802760426,-1,-1,0,-1,8,7,3,4
1558440802785359,-2,-1,-1,-1,-6,0,-5,-3
1558440802785359,-2,-2,-7,-5,-5,-17,-8,-1
1558440802786357,1,1,5,5,3,-1,0,1
1558440802786357,0,-1,-1,-1,-5,-7,-5,-2
1558440802792341,-1,-1,-3,0,6,15,8,0
1558440802792341,-3,-4,-1,4,-4,1,-5,-3
1558440802806303,0,-2,0,-2,0,2,4,-1
1558440802806303,0,-1,-1,-6,-4,-2,2,-1
1558440802813284,1,1,-3,-1,0,-4,-1,1
1558440802813284,0,0,3,5,2,-3,3,-1
1558440802820265,-1,-1,-3,-7,-3,-3,-7,-5
1558440802820265,-4,-1,-4,-7,-2,5,0,-2
1558440802836222,-2,-2,-2,1,2,7,5,5
1558440802836222,0,2,6,6,0,-2,0,-4
1558440802843204,-3,-1,-4,2,3,2,-1,0
1558440802843204,0,-1,0,0,-5,-10,-3,-1
1558440802852180,0,-2,-3,-3,-7,-8,-9,-1
1558440802852180,-1,-3,-2,-9,-2,-12,-3,1
1558440802866143,-1,0,3,5,5,9,3,-1
1558440802866143,-2,-1,1,4,-1,-9,-5,-2
1558440802883099,1,-2,-2,-2,-2,6,4,-2
1558440802883099,0,1,3,1,13,5,6,5
1558440802884096,-1,-1,-3,1,-4,-1,-3,-8
1558440802884096,-2,0,-1,-1,2,-1,1,-1
1558440802896063,-5,-3,-5,-6,-11,-12,-9,-6
1558440802896063,1,0,-1,1,0,12,5,1
1558440802912020,1,0,2,-5,-2,-13,-6,6
1558440802912020,-3,-4,-4,0,-6,1,3,-3
1558440802914028,-1,-2,-5,-6,1,1,0,-3
1558440802914028,0,-3,-5,-4,-7,-8,-5,-1
1558440802934958,2,0,7,-1,6,9,3,2
1558440802934958,-1,-2,-5,-4,-3,-1,-4,-1
1558440802935956,-1,0,-1,1,-2,-18,-1,3
1558440802935956,-3,0,0,-1,-4,6,-2,-4
1558440802940942,-2,-1,-2,-1,-1,-4,2,-2
1558440802940942,-1,0,1,0,2,1,-1,-2
1558440802956899,0,-2,0,1,-5,2,-4,-4
1558440802956899,2,-1,-1,2,7,3,-1,1
1558440802962885,-3,-2,-2,-6,-5,-16,-2,4
1558440802962885,0,1,3,6,1,7,4,-2
1558440802971861,0,0,1,-1,1,-3,-3,-2
1558440802971861,-2,-2,-3,-6,-14,-14,-5,-5
1558440802985824,-1,-1,-2,5,-2,1,-1,-3
1558440802985824,-1,1,-2,-4,6,11,4,3
1558440802994798,-1,-1,0,-1,1,4,-4,-4
1558440802994798,0,0,-3,0,0,4,4,2
1558440803000783,-1,-1,-1,1,-1,-2,-3,1
1558440803000783,-1,-3,-2,-2,-6,-11,-7,-4
1558440803015742,-2,-1,0,-1,5,8,3,-3
1558440803015742,-2,-1,0,3,-4,-7,-3,-1
1558440803023721,-2,2,-2,0,11,27,11,0
1558440803023721,0,-2,-6,-5,-7,-11,-3,4
1558440803038680,-2,-2,2,1,-3,-7,-9,3
1558440803038680,-2,-1,-4,-8,-9,-3,-6,-11
1558440803045663,-2,-1,2,4,3,2,3,-3
1558440803045663,-1,-1,2,-7,0,-4,-3,-1
1558440803061619,1,-1,-1,-1,2,-2,4,4
1558440803061619,-3,-1,-1,-6,-10,-2,-4,-3
1558440803062618,0,0,-2,2,-2,-5,-5,-5
1558440803062618,2,-1,-1,-1,3,-8,-7,-2
1558440803083561,-3,-2,-6,-5,3,5,5,-2
1558440803083561,2,0,3,4,6,5,5,5
1558440803084558,-2,-3,-7,-6,-8,-13,-7,-3
1558440803084558,-2,-1,4,2,-2,8,1,-1
1558440803098522,1,0,2,4,3,2,8,3
1558440803098522,0,-1,-3,-6,4,-6,-1,0
1558440803114479,0,-3,-3,-5,-4,-6,-1,-1
1558440803114479,-3,-1,-3,-3,-4,2,2,0
1558440803121461,-2,-3,1,4,-3,-2,-9,-6
1558440803121461,-1,0,1,4,-1,3,4,4
1558440803122459,-1,-1,-1,2,9,4,6,-1
1558440803122459,0,0,-1,-3,-4,-5,-3,-3
1558440803135421,-2,-2,-3,-2,-5,-3,-3,-2
1558440803135421,0,-1,-2,-3,0,6,0,1
1558440803143408,-1,-1,1,-1,-2,-1,-6,-4
1558440803143408,1,1,3,10,1,2,2,0
1558440803159363,-1,0,-3,-6,1,0,0,-2
1558440803159363,-1,1,0,-1,2,-1,-3,-1
1558440803165344,-3,-3,-6,-8,-10,-18,-9,0
1558440803165344,-1,-1,-3,0,-1,6,0,-2
1558440803191275,3,3,4,1,15,8,9,2
1558440803191275,-3,-3,-2,3,-4,-1,0,0
1558440803192273,0,-1,2,1,-6,-8,-1,-1
1558440803192273,-4,-3,-3,-5,-1,-1,-2,0
1558440803196262,0,-1,-3,-1,-7,-13,-10,-5
1558440803196262,2,-1,-3,0,3,4,4,-1
1558440803203243,0,-3,-1,-2,-2,4,1,-1
1558440803203243,1,1,2,1,0,-1,2,4
1558440803218202,-1,0,1,5,3,3,2,-1
1558440803218202,-2,-2,-3,-9,-6,-10,-7,-3
1558440803226180,-2,-3,0,3,4,13,4,-2
1558440803226180,0,-1,2,-2,3,0,1,2
1558440803241139,-3,-2,-7,-4,-8,-5,-4,-1
1558440803241139,-1,0,0,1,1,-10,-5,0
1558440803242138,-1,0,0,-2,-2,2,-4,-3
1558440803242138,-2,-3,-1,3,-6,-5,-5,-3
1558440803264078,0,2,2,-2,5,-5,5,3
1558440803264078,-1,0,-2,0,3,2,1,-1
1558440803265075,0,-1,0,0,-2,2,1,1
1558440803265075,-4,1,-2,0,2,7,2,0
1558440803286020,-2,-2,-3,-2,-17,-22,-13,-10
1558440803286020,1,0,4,-1,-2,0,1,1
1558440803287017,-2,0,0,4,7,3,1,3
1558440803287017,0,-2,-3,-5,0,0,-3,-2
1558440803300979,1,-2,-1,-1,-4,4,2,7
1558440803300979,0,-1,0,7,1,-1,1,-8
1558440803301976,-1,0,-2,0,-2,-2,-4,-2
1558440803301976,-1,-2,-4,-2,-1,-5,-5,-3
1558440803315939,-2,0,0,-5,1,-6,-3,0
1558440803315939,-2,-1,-2,-1,4,3,2,7
1558440803322928,0,-1,1,-1,-2,4,1,-4
1558440803322928,-1,-4,-8,-10,-3,-9,-4,-2
1558440803339878,-4,-3,0,3,-8,1,-4,-4
1558440803339878,-2,-1,-2,-3,4,4,0,2
1558440803345859,-1,2,2,-2,-2,0,1,3
1558440803345859,1,-1,3,6,6,2,-1,1
1558440803361819,1,0,-2,0,1,2,0,0
1558440803361819,0,-2,-3,-6,-5,-8,-2,0
1558440803368808,-4,-4,1,2,-4,5,-4,-2
1558440803368808,-3,-2,-5,-5,-4,-3,-1,-3
1558440803375786,0,-2,2,1,3,0,4,1
1558440803375786,-2,-1,2,0,-2,6,-2,-5
1558440803391750,-1,-2,-7,-5,-4,-11,-7,-3
1558440803391750,1,1,2,2,11,6,5,2
1558440803398727,-1,-1,-2,-3,0,5,3,5
1558440803398727,-2,-4,-3,-2,-11,-6,-6,-12
1558440803413688,2,-1,-1,-2,3,-3,-1,0
1558440803413688,1,0,3,1,-2,5,-1,-2
1558440803420766,-3,-2,0,2,3,6,-1,-3
1558440803420766,-3,-1,1,1,-1,0,8,9
1558440803437621,1,-2,-3,-4,-4,-12,-1,0
1558440803437621,-2,-1,-1,0,-5,-6,-6,-4
1558440803438612,-2,-2,-2,-2,-5,-8,-4,-4
1558440803438612,1,-2,2,4,6,13,10,3
1558440803443604,-1,-2,-2,2,2,-2,2,-2
1558440803443604,-3,-2,1,0,-4,-5,0,2
1558440803466543,0,0,-8,-15,-3,6,1,-3
1558440803466543,-1,-3,-5,-3,-5,-4,-12,-4
1558440803467536,0,1,-2,4,6,-5,0,2
1558440803467536,0,0,0,-2,-10,-12,-5,-4
1558440803489475,-2,-1,1,2,-1,-8,-7,-4
1558440803489475,0,2,-2,-4,2,6,7,4
1558440803490473,-3,-1,-3,-2,1,3,-1,-3
1558440803490473,-2,-3,-5,-5,0,0,0,-2
1558440803495460,-1,-1,0,-3,-4,-1,-2,-3
1558440803495460,0,-1,-1,5,-5,-5,-3,0
1558440803503439,0,-1,6,5,1,-2,-4,-1
1558440803503439,-1,-2,-2,-12,-6,-5,-3,-2
1558440803518398,1,1,1,8,2,2,3,2
1558440803518398,-4,-1,-1,-6,-1,-6,-6,-3
1558440803525378,-2,-1,-1,-3,-5,6,2,0
1558440803525378,1,0,0,3,2,-10,-2,-1
1558440803542334,-1,-1,0,3,-1,2,2,0
1558440803542334,1,0,1,0,5,-6,-2,0
1558440803549325,0,-3,-2,1,-3,8,1,2
1558440803549325,-2,-1,-3,0,3,3,-1,-4
1558440803564286,-2,-2,1,-3,-2,3,0,-1
1558440803564286,0,-2,-6,0,0,-2,-2,-2
1558440803564286,-1,-2,1,-1,-3,-6,-4,-4
1558440803564286,1,0,0,1,-1,2,3,0
1558440803586228,-2,-1,1,0,1,-4,-2,-3
1558440803586228,-2,-3,1,1,-2,6,0,0
1558440803587214,-1,-2,-3,-5,-1,-9,-2,-4
1558440803587214,1,-1,4,3,9,7,9,7
1558440803601182,-1,-1,-3,-4,-6,-6,-3,-2
1558440803601182,0,0,2,2,-2,-3,-5,-3
1558440803609165,-4,-2,-4,-5,-5,8,-4,-1
1558440803609165,-1,-3,-2,-2,-2,3,2,1
1558440803624119,1,2,3,5,9,-14,6,3
1558440803624119,0,-2,2,-1,4,-2,1,3
1558440803625114,0,0,-4,-3,6,11,4,0
1558440803625114,-2,-1,-4,-3,-7,1,-5,-4
1558440803640079,-2,-2,-1,1,-4,2,-5,-3
1558440803640079,-2,-1,-2,-4,-2,-2,2,-2
1558440803646059,1,1,2,-3,0,-3,1,0
1558440803646059,-4,-2,-5,-1,-5,-8,-4,-1
1558440803662057,-2,-2,-3,-2,-5,6,1,1
1558440803662057,3,-1,1,-3,10,-5,1,-1
1558440803668999,-1,-2,-1,-2,-9,-9,-4,0
1558440803668999,0,1,0,0,5,11,-2,-2
1558440803692940,-2,-3,-4,-7,-6,2,-5,-6
1558440803692940,0,3,1,3,1,-5,4,2
1558440803692940,-1,1,0,-4,1,-14,-6,1
1558440803692940,-2,-4,-3,-3,-14,-14,-6,-4
1558440803697919,2,-1,2,5,15,19,7,5
1558440803697919,-2,-5,-7,-8,-9,1,-6,-8
1558440803713878,0,-2,0,0,-3,-2,0,-1
1558440803713878,-4,-2,-3,-2,-6,-10,-10,-3
1558440803720858,-2,-1,-3,-1,-5,-8,-3,-1
1558440803720858,0,1,0,2,-5,-6,-1,3
1558440803728835,1,1,-1,-4,4,3,1,-2
1558440803728835,0,-3,0,-1,6,6,7,0
1558440803743794,0,0,4,4,-2,0,0,1
1558440803743794,-3,-2,-4,-5,-2,-3,-6,-3
1558440803744792,0,-1,-1,-1,-7,-1,-5,-3
1558440803744792,-2,-1,-1,3,-1,2,1,1
1558440803766732,2,2,2,2,2,-10,-1,-2
1558440803766732,-1,-1,-4,-9,1,-4,1,1
1558440803766732,-1,1,-1,5,3,9,4,2
1558440803766732,-2,-2,-2,-2,-4,-4,-3,0
1558440803780695,-3,-1,1,-4,1,11,2,-2
1558440803780695,-2,-2,-2,2,-12,-10,-10,-8
1558440803789709,-2,1,1,1,3,3,2,1
1558440803789709,-2,-1,-1,-6,-7,-5,-7,-4
1558440803804677,-1,-3,-5,-2,2,10,5,2
1558440803804677,0,-1,2,5,6,3,1,2
1558440803804677,1,-3,-2,-1,-4,-6,0,0
1558440803804677,-1,0,3,1,4,0,-4,1
1558440803819593,-2,-1,-6,-11,-8,-10,-2,-1
1558440803819593,0,1,1,-1,1,4,0,1
1558440803825996,-2,0,0,1,0,9,6,-1
1558440803825996,-1,-1,-2,1,-4,-11,-2,-4
1558440803842532,-1,-3,-1,-1,1,-1,-10,-3
1558440803842532,-2,-2,-4,-3,-3,0,3,0
1558440803849811,0,-3,2,-1,-3,-13,-7,-2
1558440803849811,-3,-2,-1,-1,-4,4,2,0
1558440803863476,0,0,1,-2,6,1,0,-3
1558440803863476,-1,0,-1,2,-5,3,-4,-3
1558440803865469,-2,-1,0,5,-8,-6,-3,-2
1558440803865469,1,1,-5,-11,3,1,1,1
1558440803878749,-1,0,-1,-6,0,-3,1,1
1558440803878749,-1,-2,0,3,2,2,1,0
1558440803894636,-3,-2,-4,0,1,0,0,-1
1558440803894636,2,2,5,3,2,-6,0,7
1558440803901417,-3,-2,-3,-2,-6,-1,-7,-10
1558440803901417,1,0,3,1,6,2,4,3
1558440803916343,-4,-4,-3,-5,-7,0,-5,-3
1558440803916343,2,1,-2,-2,1,-10,2,4
1558440803924314,-2,1,1,6,-1,4,-1,-1
1558440803924314,-1,0,0,0,4,1,3,1
1558440803924314,-3,-3,-3,-9,-6,-2,-4,-3
1558440803924314,-3,-4,-1,2,-2,6,-2,-4
1558440803946255,-1,-1,0,-1,-6,-5,-3,0
1558440803946255,-1,0,2,2,1,12,4,-2
1558440803947255,2,2,0,-1,3,-7,2,1
1558440803947255,-2,-2,0,0,-10,-7,-4,-5
1558440803961403,3,1,3,3,10,8,8,5
1558440803961403,-2,-3,-4,-6,-5,-7,-7,-2
1558440803969442,-1,-2,-2,3,0,7,-1,0
1558440803969442,-1,-1,2,1,-1,5,-1,-2
1558440803984397,1,-3,-9,-5,-4,-5,1,1
1558440803984397,-1,-1,-2,0,-6,-8,-7,-3
1558440803985288,-2,-2,-2,-2,-2,3,-2,-4
1558440803985288,-1,0,3,1,0,-4,-1,-3
1558440803999144,1,-1,0,-2,1,-1,4,1
1558440803999144,1,0,-4,-7,-2,4,5,1
1558440804006342,0,-2,-2,-2,0,-1,-6,0
1558440804006342,-1,1,2,2,8,18,4,-3
1558440804021369,-3,-1,-2,2,-8,-10,-4,-1
1558440804021369,-2,-3,-5,-5,3,0,-1,-2
1558440804029147,0,0,1,-1,0,-1,1,1
1558440804029147,1,-2,2,3,5,0,2,-1
1558440804043992,-4,-3,-1,-1,1,3,-5,-2
1558440804043992,-1,-3,-4,0,-10,-1,-5,-4
1558440804044991,0,-1,-2,1,1,-3,0,0
1558440804044991,-1,2,2,3,9,10,6,3
1558440804059126,-1,0,-1,-1,-7,-11,-5,-3
1558440804059126,0,0,1,-5,-4,-10,-4,-1
1558440804065936,-1,0,0,3,5,3,2,-2
1558440804065936,-3,-3,-3,-1,-6,-5,-3,1
1558440804080899,1,0,-7,-10,5,6,5,1
1558440804080899,-2,-1,3,4,-2,-7,-3,-1
1558440804096860,-1,-1,-1,1,-1,5,2,0
1558440804096860,-1,-4,-5,-8,-10,-8,-7,-3
1558440804104005,-1,2,5,5,6,-5,1,3
1558440804104005,-1,-1,-3,-1,-7,-3,-1,0
1558440804104836,1,3,3,0,5,-2,3,0
1558440804104836,-2,-1,-3,-2,0,6,-2,-3
1558440804118792,-3,-3,-2,2,-1,4,-1,-1
1558440804118792,0,-2,-3,-8,-6,-6,-5,-4
1558440804125774,-2,-2,-4,-1,-2,-1,-1,-3
1558440804125774,1,1,1,0,1,-3,0,1
1558440804140736,-1,-1,-1,0,-2,-9,-3,-3
1558440804140736,-1,-2,-2,4,-1,4,1,-2
1558440804148750,1,-2,1,-1,-5,-1,-2,-1
1558440804148750,0,0,-4,-1,4,7,2,-2
1558440804172752,-2,-3,-1,1,-3,-4,-3,-2
1558440804172752,-2,-3,-6,-8,-5,-3,-6,-3
1558440804172752,-2,-2,-1,-2,-7,-17,-7,-2
1558440804172752,2,0,4,0,5,-5,4,3
1558440804178790,-2,-2,1,-1,-2,0,-2,-2
1558440804178790,-1,0,4,8,0,3,1,0
1558440804194590,-2,-3,-10,-10,-5,3,-2,-2
1558440804194590,0,-1,-8,-11,-2,3,-4,-2
1558440804201571,1,1,1,2,3,-5,3,3
1558440804201571,-4,-4,2,3,-1,5,-2,1
1558440804209666,-3,-2,0,-4,-5,-4,-6,-6
1558440804209666,-1,0,0,5,12,13,8,2
1558440804224557,1,0,1,2,-2,-7,1,-1
1558440804224557,0,4,4,1,6,4,4,2
1558440804224557,0,1,1,2,6,6,5,1
1558440804224557,-1,-5,-7,-9,-12,-11,-8,-4
1558440804239107,-3,-4,-6,-6,-10,-7,-8,-1
1558440804239107,2,3,4,4,7,4,3,-1
1558440804245901,-2,-3,-1,-4,-5,-8,-6,-1
1558440804245901,0,2,5,6,6,11,5,3
1558440804261046,1,0,3,1,6,14,5,3
1558440804261046,-2,-2,-3,-4,-7,-19,-7,-6
1558440804269749,-2,0,-1,8,2,6,3,0
1558440804269749,-3,-2,-4,-7,-9,-3,-5,-4
1558440804283880,-2,-3,-2,-5,-8,-10,-5,-4
1558440804283880,2,1,2,7,13,12,6,4
1558440804284688,-2,-3,-1,-2,-2,-5,-2,1
1558440804284688,-2,-3,-3,-2,-8,-7,-5,-3
1558440804298645,0,1,2,1,5,7,6,1
1558440804298645,-5,-2,-1,-1,-4,-8,-4,-2
1558440804305627,0,0,1,3,5,-8,0,3
1558440804305627,-4,-1,-9,-14,-8,-5,-5,-4
1558440804320589,-4,-2,-2,-1,-15,0,-12,-6
1558440804320589,2,-1,-1,-2,5,-2,5,2
1558440804328570,0,-1,0,-2,0,-4,0,0
1558440804328570,-1,-1,3,6,1,3,3,1
1558440804343525,0,1,1,0,9,4,-3,-3
1558440804343525,-1,-4,-10,-7,-1,5,1,-1
1558440804351548,-1,0,0,1,-2,-1,0,0
1558440804351548,0,-2,4,0,-4,-15,-7,-5
1558440804358542,0,-1,-3,-4,2,6,3,-1
1558440804358542,-2,-2,1,0,-9,-2,-3,-2
1558440804382479,-1,0,0,1,9,4,0,-3
1558440804382479,-1,0,3,3,5,5,3,2
1558440804383419,1,-3,0,-5,-4,-10,-4,-1
1558440804383419,2,-1,0,1,-3,-2,-6,-3
1558440804396383,0,1,-1,-4,-6,-5,-2,-1
1558440804396383,-1,0,1,2,4,3,6,0
1558440804403738,-2,-1,-6,-1,4,4,-1,-2
1558440804403738,-3,-2,-2,-3,-5,-14,-6,-3
1558440804419323,0,-2,-2,-7,-5,-7,-4,-2
1558440804419323,3,1,5,6,9,14,7,-1
1558440804421317,-1,1,0,1,-6,-8,-6,-2
1558440804421317,-3,-2,-8,-8,0,8,2,0
1558440804426803,-1,-1,-1,0,2,-1,-1,1
1558440804426803,-1,-3,-2,4,-7,-12,-4,-3
1558440804450460,-1,-3,-4,-10,6,8,0,-2
1558440804450460,0,-1,-2,-2,-1,-4,-5,-3
1558440804450460,-3,-3,-4,-4,-10,2,-3,-4
1558440804450460,-2,-2,-1,-3,-2,-12,-4,2
1558440804463208,1,-1,2,-2,-2,-4,1,3
1558440804463208,0,-1,3,5,5,10,2,-2
1558440804472245,-1,-2,-4,-6,1,2,-1,0
1558440804472245,-1,-1,-1,-4,-13,-10,-8,-5
1558440804495312,-1,-1,-1,3,6,10,10,4
1558440804495312,-1,-1,1,3,4,1,2,3
1558440804495312,-2,-1,-3,1,-5,-2,1,-1
1558440804495312,0,-2,-3,1,4,-3,-2,-1
1558440804501289,-1,-4,-4,-7,-10,-3,-7,-4
1558440804501289,-1,-2,-1,-2,-2,-5,-5,-1
1558440804509292,0,0,3,3,0,2,3,-1
1558440804509292,-2,0,0,0,2,-7,-3,-2
1558440804523253,-2,-2,-1,0,1,-7,-2,-1
1558440804523253,0,-3,0,-1,5,2,-3,-1
1558440804531026,-1,-1,-6,-9,-6,-3,-1,-1
1558440804531026,0,0,-3,0,1,5,-3,-1
1558440804546982,-3,0,2,5,-2,11,-1,-4
1558440804546982,3,4,2,0,4,-18,1,4
1558440804546982,-2,-3,1,0,0,2,0,-1
1558440804546982,-4,-5,-10,-5,-4,5,-2,-2
1558440804560977,0,1,-1,0,2,7,2,1
1558440804560977,-2,-1,1,0,-6,1,0,1
1558440804568923,1,2,1,3,2,3,0,-2
1558440804568923,0,0,0,-5,-5,-9,1,0
1558440804583997,0,-2,-2,-1,-5,-8,-6,-4
1558440804583997,-2,-2,-4,0,2,11,4,-2
1558440804591864,1,2,2,0,6,-4,0,3
1558440804591864,-4,-3,-3,-7,-6,-1,-5,-2
1558440804607098,-5,-4,-1,-1,-9,-15,-5,-2
1558440804607098,0,1,0,1,4,8,3,2
1558440804607098,-2,-4,-2,-3,0,5,-2,-5
1558440804607098,2,0,2,3,-2,-4,0,1
1558440804621075,0,-2,-2,2,-4,-21,-8,-2
1558440804621075,-2,-2,-4,-7,-8,2,-2,-2
1558440804629060,1,2,4,4,10,13,7,3
1558440804629060,-1,0,-1,1,-6,-7,-5,-1
1558440804652917,-1,-2,-2,-3,1,3,-6,-4
1558440804652917,1,1,3,0,-5,-10,3,2
1558440804652917,-2,-2,-3,-1,5,1,-4,-2
1558440804652917,-1,-1,-1,-2,-2,4,0,-1
1558440804674788,-1,0,0,-2,2,9,7,1
1558440804674788,0,-1,-5,-8,2,-14,-2,0
1558440804675639,0,-3,-3,-1,-8,-5,-4,-2
1558440804675639,1,0,3,1,8,11,4,-1
1558440804680623,-3,-3,-4,-3,-11,-1,-4,-2
1558440804680623,-1,-1,-3,0,0,-4,-3,0
1558440804688843,1,2,3,4,5,3,4,3
1558440804688843,1,-1,-1,-3,-5,-7,-4,-4
1558440804703763,0,0,0,3,1,1,-3,-1
1558440804703763,-2,-1,-2,2,0,10,7,1
1558440804711758,-5,-4,-7,-19,-10,-7,-6,-1
1558440804711758,-2,0,1,4,-2,-10,-3,-1
1558440804726502,-1,-1,0,-2,6,10,8,0
1558440804726502,0,-1,0,2,-7,-5,-3,-1
1558440804727500,1,2,5,7,10,4,6,3
1558440804727500,-2,-2,-4,-2,-3,3,-3,-3
1558440804748446,-1,0,0,0,-2,-6,-2,-2
1558440804748446,-2,-4,-3,-5,-5,-7,-7,-2
1558440804749440,-4,-1,-2,4,-4,2,1,-3
1558440804749440,-1,-1,-4,-6,-1,-1,1,3
1558440804763411,1,0,0,-1,6,0,-2,-1
1558440804763411,-2,-2,0,-2,-1,6,-2,-6
1558440804771381,-2,-1,1,5,-2,-16,-7,-2
1558440804771381,1,0,-3,-4,2,4,7,2
1558440804786609,-2,-2,-3,-10,-11,-3,-4,-4
1558440804786609,-1,-2,0,-2,-2,-5,-3,-4
1558440804787340,-1,-2,-4,-4,-2,-7,-4,1
1558440804787340,-1,-1,2,3,7,5,2,-1
1558440804809312,-1,-1,-1,1,-3,3,-3,-2
1558440804809312,-1,1,2,0,0,-1,0,1
1558440804810297,0,-1,-1,-3,-5,-8,-3,-2
1558440804810297,-1,0,1,3,5,8,4,1
1558440804824269,-4,-3,-6,1,-3,0,2,0
1558440804824269,-4,-3,-4,-5,-4,-3,-7,-3
1558440804831220,1,0,0,-1,-1,-4,-2,-1
1558440804831220,-2,-1,-2,-8,1,6,3,0
1558440804855277,-2,-3,2,2,-6,-8,-8,-5
1558440804855277,1,-1,-4,-8,-2,3,1,-4
1558440804855277,-1,-1,0,0,1,0,5,3
1558440804855277,0,1,1,0,-3,-3,-1,-3
1558440804861408,-1,1,2,-2,2,0,4,1
1558440804861408,0,-1,-1,3,0,5,-3,-2
1558440804868390,0,-1,-1,-2,-4,-14,-7,-1
1558440804868390,-2,0,0,0,-6,-9,-4,-1
1558440804883291,4,3,0,3,13,18,9,3
1558440804883291,-4,-2,1,6,-2,-3,-2,-1
1558440804892105,-1,-4,-7,-12,-6,-4,-3,-2
1558440804892105,-2,-2,-6,-1,6,9,4,-2
1558440804907077,0,0,-1,-1,-5,-10,-7,-1
1558440804907077,0,-2,-1,1,-2,7,-2,-3
1558440804907077,-5,-2,0,2,-2,2,-7,-4
1558440804907077,1,1,3,6,2,-4,7,5
1558440804928966,0,1,-3,-6,1,-12,2,4
1558440804928966,-1,-1,-5,-3,2,4,-1,0
1558440804929957,-3,-3,-1,0,-3,4,-1,-4
1558440804929957,-2,-2,0,1,-7,-8,-8,-3
1558440804944049,-1,-2,0,1,2,8,-1,-5
1558440804944049,-1,0,3,-2,0,-11,4,3
1558440804951897,-1,1,-1,2,-7,5,0,0
1558440804951897,0,-2,-2,-3,8,2,-4,0
1558440804966857,1,-1,-1,2,1,-5,-3,-1
1558440804966857,-4,-1,-3,-2,-2,7,-1,-2
1558440804966857,-1,-1,2,4,2,4,4,0
1558440804966857,-2,-3,-4,-6,0,-5,1,-1
1558440804980820,-5,-1,-4,-5,-13,-11,-7,-3
1558440804980820,1,1,0,3,4,-4,-2,1
1558440804987844,1,0,3,-4,3,5,4,1
1558440804987844,-3,0,1,2,-3,-7,-4,-3
1558440805002761,-2,-1,-4,-2,0,1,0,0
1558440805002761,-1,-1,1,4,-4,-3,-4,-2
1558440805012088,1,-3,-4,-7,-1,4,-1,-2
1558440805012088,-3,-4,-5,-4,-16,-14,-7,-7
1558440805027046,5,2,10,10,17,7,10,7
1558440805027046,0,-1,1,-4,4,4,3,-2
1558440805027611,-2,0,-5,-1,-7,-6,-5,-3
1558440805027611,1,1,2,5,14,23,9,3
1558440805040932,-3,-1,0,0,-7,-1,-2,-3
1558440805040932,-3,-4,-7,-10,-4,-8,-7,-3
1558440805056895,-2,-3,-2,1,-7,-10,-6,-4
1558440805056895,0,0,-1,-1,7,7,3,2
1558440805063519,1,1,5,1,5,-3,1,2
1558440805063519,0,0,-5,-3,-5,-5,-2,-1
1558440805078479,-2,0,-1,1,1,3,3,0
1558440805078479,-2,0,0,1,-3,-4,-2,0
1558440805086840,-1,-1,0,-4,0,3,-3,1
1558440805086840,-2,-1,1,2,-5,-9,-7,-7
1558440805087456,1,-4,-4,-5,-1,7,-2,-2
1558440805087456,1,1,4,5,13,16,9,2
1558440805102419,-1,1,0,1,-4,-10,-6,1
1558440805102419,-3,-2,1,-1,-4,1,0,0
1558440805108638,0,1,-2,-5,10,15,9,3
1558440805108638,-2,-4,-5,-2,-14,-9,-8,-5
1558440805123360,-2,-3,-4,-4,-6,-7,-7,-5
1558440805123360,1,1,2,1,5,9,4,0
1558440805131541,0,1,-3,-4,0,-6,-1,-2
1558440805131541,0,1,3,1,-1,-9,-2,2
1558440805155274,-5,-3,-7,-5,-6,-6,0,-2
1558440805155274,-1,-1,1,0,-5,-5,-3,1
1558440805155274,0,-2,1,8,5,13,5,1
1558440805155274,-2,-2,-3,-6,-4,-12,-8,-6
1558440805160488,-2,-2,-1,-1,-7,-3,-5,-2
1558440805160488,-1,0,2,3,6,-5,-1,1
1558440805168239,-2,0,-2,1,1,4,-1,-1
1558440805168239,-1,-4,-9,-16,-12,-9,-6,-4
1558440805183231,2,-3,-1,0,-2,-2,0,-1
1558440805183231,3,0,-1,1,6,7,5,3
1558440805216111,1,0,5,6,2,-10,-2,0
1558440805216111,-1,1,-3,-4,-4,3,-2,-2
1558440805217107,0,0,-2,0,4,3,4,-1
1558440805217107,-3,0,-3,-6,-10,-6,-5,-3
1558440805218104,-2,-1,1,-2,-5,-23,-4,2
1558440805218104,-1,-1,2,6,4,5,1,-1
1558440805230075,-3,-1,-2,-6,-5,-5,-4,-1
1558440805230075,0,0,-2,-1,1,0,-2,0
1558440805231070,1,-1,1,-4,-2,4,2,-2
1558440805231070,0,0,2,8,4,-7,-3,3
1558440805244076,-1,-1,-5,-6,-7,-2,0,0
1558440805244076,-4,-5,-5,-1,-7,-9,-6,-5
1558440805251338,-4,0,1,6,-1,-1,-2,-1
1558440805251338,0,0,-2,-6,-3,-4,-3,-1
1558440805266296,-3,0,3,0,4,10,0,-4
1558440805266296,0,1,1,2,2,4,4,2
1558440805282967,-2,-2,-2,-6,-4,0,-1,0
1558440805282967,1,-2,3,4,9,2,1,-1
1558440805283928,-1,-2,-1,-2,-3,-1,1,2
1558440805283928,-3,-2,-2,0,-5,-5,-7,-3
1558440805288974,-1,-2,-1,3,1,1,-3,-2
1558440805288974,0,-2,-7,-10,-5,-12,1,1
1558440805304874,2,0,0,2,5,0,2,2
1558440805304874,-1,-1,-3,-6,-2,6,3,-2
1558440805311856,0,-1,3,-1,-3,2,-4,-4
1558440805311856,-1,-1,3,5,-7,-7,-1,-1
1558440805335040,0,-2,-6,-2,0,-1,-4,-3
1558440805335040,1,-3,0,-2,4,2,2,3
1558440805335792,0,-2,-3,-3,-4,-3,-2,-1
1558440805335792,-4,-4,-5,-2,-4,9,0,-1
1558440805341040,-2,0,-1,-1,1,4,3,0
1558440805341040,0,2,0,1,9,-2,3,-1
1558440805356991,-1,0,0,2,-7,-4,-3,1
1558440805356991,-4,-5,0,-2,-7,6,-6,-10
1558440805362723,1,0,-1,-4,5,-9,1,2
1558440805362723,2,0,2,3,0,-17,-1,1
1558440805378931,-2,-2,-6,-7,1,7,0,-1
1558440805378931,-1,1,-1,2,-1,8,1,-1
1558440805385664,-2,-4,-1,1,-4,-1,-7,-5
1558440805385664,0,-1,0,2,-1,3,2,0
1558440805410590,-1,-3,-6,-11,0,-7,-2,-2
1558440805410590,-1,-2,-1,0,-6,-4,-5,0
1558440805411588,1,1,1,3,1,2,1,-1
1558440805411588,-2,-3,1,-1,-1,-2,-2,1
1558440805412585,-2,1,-3,2,-3,-8,-3,-4
1558440805412585,-5,-2,-5,-7,0,8,3,0
1558440805432531,0,1,1,1,-3,-7,-2,1
1558440805432531,-1,-1,-2,-3,-8,-10,-8,-4
1558440805432531,0,-1,1,-1,5,6,5,5
1558440805432531,-1,-1,0,5,-1,0,-2,-4
1558440805454472,1,-2,-2,-2,1,-3,-1,-1
1558440805454472,-4,-4,-4,-6,-6,1,-5,-3
1558440805455470,0,-1,4,4,-6,-14,-8,-3
1558440805455470,2,1,4,1,9,6,8,6
1558440805469432,-1,-2,-2,-1,-7,1,1,-3
1558440805469432,-2,-2,-6,-3,0,7,-2,-4
1558440805469432,-2,-3,-4,-9,-5,0,-4,0
1558440805469432,-1,1,1,0,2,-8,3,4
1558440805484628,-4,0,0,-1,-2,5,1,0
1558440805484628,-3,1,1,3,6,10,3,0
1558440805491661,0,-1,0,2,2,4,0,-1
1558440805491661,0,-4,-2,-5,-2,4,-3,7
1558440805506538,0,-3,-9,-4,0,-7,1,-8
1558440805506538,-1,-1,1,-2,0,-12,-5,-2
1558440805514706,-1,0,0,1,2,10,6,-2
1558440805514706,-1,0,0,3,-4,-10,-3,-2
1558440805529274,-1,-2,2,-4,-2,6,-3,2
1558440805529274,-1,-1,-1,-4,-9,-4,-2,0
1558440805529274,1,-1,5,5,7,3,0,-1
1558440805529274,0,-2,-4,-5,-5,-7,-5,-5
1558440805560396,-2,-3,-8,-6,-3,-2,1,1
1558440805560396,2,0,2,1,1,0,4,0
1558440805560396,-1,0,6,11,6,4,-1,1
1558440805560396,-1,-1,1,-2,1,5,2,-3
1558440805566436,-2,-1,1,-3,-8,-12,-7,1
1558440805566436,-3,-4,-7,-1,-7,4,-4,-6
1558440805582255,0,-1,-2,-3,5,-1,3,2
1558440805582255,1,-1,3,2,3,-1,2,-1
1558440805589116,-1,2,5,3,8,-1,5,-1
1558440805589116,-3,-3,-5,0,-3,-6,-3,-2
1558440805589116,-2,-1,0,-3,-9,-7,-7,-6
1558440805589116,-1,-1,-2,-3,-4,-1,-4,-3
1558440805612083,-2,-1,-2,0,-2,-1,-2,0
1558440805612083,-1,-2,4,0,2,5,1,-3
1558440805613049,2,-2,-3,-2,6,3,8,-1
1558440805613049,-2,-2,0,5,-8,-9,-6,-2
1558440805635218,2,0,2,0,7,7,2,-1
1558440805635218,-2,-1,-2,-3,-3,4,2,1
1558440805635218,-4,-1,-7,0,-3,-7,-7,0
1558440805635218,-2,-3,-8,-8,-6,-4,1,-5
1558440805657193,0,-1,7,6,4,1,-3,-1
1558440805657193,1,-1,2,-2,7,-4,-2,3
1558440805657932,0,0,0,4,-6,-3,-2,0
1558440805657932,-4,0,-7,-16,-6,-5,-4,-2
1558440805662918,-3,-1,-4,-1,-3,5,1,-2
1558440805662918,0,0,0,-1,-2,-2,-2,-1
1558440805672208,-1,0,1,-2,1,2,1,-1
1558440805672208,-2,-1,-2,4,6,4,-2,-2
1558440805686170,0,-2,-4,-4,-3,-6,-5,-1
1558440805686170,0,1,4,3,2,5,3,2
1558440805694415,-2,-2,0,0,-9,-6,-1,-1
1558440805694415,0,-1,-1,-1,-7,-6,-4,-3
1558440805709112,0,-1,-1,1,3,4,1,3
1558440805709112,-2,-2,-4,-1,-6,-4,-3,-6
1558440805710260,0,1,0,-3,10,12,8,7
1558440805710260,-2,0,1,3,-3,-11,-6,-6
1558440805732317,-4,-3,-6,-4,-9,-3,-5,-3
1558440805732317,-1,-2,-2,-3,0,0,1,1
1558440805733047,-1,-1,-3,-1,-1,-5,-2,-3
1558440805733047,0,0,1,1,6,3,2,4
1558440805746014,1,0,1,-6,0,9,2,-2
1558440805746014,-3,-4,-3,-2,-9,0,-1,-5
1558440805754266,2,3,7,5,10,-10,1,3
1558440805754266,2,1,-5,-8,1,-2,1,3
1558440805768950,-1,-2,-1,0,1,-1,-2,-4
1558440805768950,-1,-1,-5,0,-8,-6,-5,2
1558440805769943,-1,-4,-2,-4,-9,-2,-6,-10
1558440805769943,0,1,3,1,7,5,6,3
1558440805784906,0,-2,-2,2,0,0,0,1
1558440805784906,-2,-2,-2,-4,-2,0,0,0
1558440805792220,-4,-3,-3,-3,-4,2,1,-1
1558440805792220,-2,1,2,3,1,0,-5,-3
1558440805805924,-2,-3,-2,-1,-2,-1,-1,2
1558440805805924,0,1,3,1,9,1,1,1
1558440805813900,-4,-2,-3,-2,-7,-9,-6,-4
1558440805813900,0,-1,1,6,1,4,1,-1
1558440805836836,0,1,-2,-6,-2,-3,-2,-2
1558440805836836,-1,1,3,2,0,1,0,-1
1558440805837833,-3,-2,-5,-6,-11,-5,-4,-2
1558440805837833,-1,-1,-2,3,1,-3,-2,-1
1558440805844008,0,1,2,3,1,0,1,0
1558440805844008,1,0,-1,-4,0,-1,0,0
1558440805858781,-1,-1,-2,-2,-7,-5,1,-6
1558440805858781,0,-1,3,1,0,-3,1,4
1558440805866007,-1,-1,2,-1,3,4,2,2
1558440805866007,-1,-2,-3,-2,-3,-4,-3,-1
1558440805873973,-1,-1,0,1,1,8,5,0
1558440805873973,0,-2,-4,-3,1,0,-4,-4
1558440805888964,-2,-1,3,6,-2,-4,-1,-2
1558440805888964,1,1,0,-2,6,3,3,3
1558440805889699,0,0,-6,-1,0,-6,-4,-2
1558440805889699,-1,-2,2,-5,-8,-3,-4,-2
1558440805912635,-4,-3,-7,-2,-2,5,-2,-2
1558440805912635,-2,-1,1,-1,-4,-8,-1,0
1558440805913633,1,1,2,3,11,11,6,4
1558440805913633,-1,-1,1,4,1,-2,-3,-2
1558440805934830,-1,-1,1,-3,-2,-3,-3,-2
1558440805934830,0,-2,-1,-1,-10,-7,0,-4
1558440805935574,-1,-1,-1,0,3,2,-4,-1
1558440805935574,-2,-2,-7,-5,-1,7,-1,-1
1558440805949641,1,-1,1,-1,3,4,4,2
1558440805949641,0,-2,4,5,4,-1,-1,1
1558440805949641,-1,-3,0,-2,-10,-15,-9,-1
1558440805949641,-1,-1,-6,-7,0,7,8,1
1558440805963497,-4,-1,-2,3,-1,-2,-4,-4
1558440805963497,-2,-2,-3,-2,1,5,2,-1
1558440805971719,-1,0,3,-3,-3,-12,-4,0
1558440805971719,-4,-3,-6,-5,-1,0,-2,0
1558440805985438,0,-1,-3,2,-6,0,-2,-2
1558440805985438,0,-1,2,1,4,4,3,-1
1558440805993417,-1,-1,-2,-5,-5,-4,-5,-4
1558440805993417,-1,1,2,2,-1,-13,1,1
1558440806009375,1,2,0,0,8,6,3,0
1558440806009375,-2,-2,-3,-5,-4,-1,-10,-6
1558440806009375,-2,-3,-4,-4,-6,0,-1,-3
1558440806009375,2,1,3,3,7,12,2,2
1558440806023664,1,-3,2,1,-1,-5,-2,2
1558440806023664,-3,-1,-5,-10,-2,0,-3,-1
1558440806031346,-2,-1,-3,-4,-3,-4,-3,-2
1558440806031346,-3,-2,0,3,-4,1,1,-2
1558440806045600,0,3,1,-1,0,8,1,-1
1558440806045600,-3,-2,-1,6,5,3,1,-1
1558440806054598,-2,-1,2,2,5,4,3,2
1558440806054598,1,-2,-3,-4,-6,-18,-5,-1
1558440806069344,-2,-2,-3,-6,-8,-10,-5,-5
1558440806069344,0,-2,-4,-1,-5,1,0,-1
1558440806070211,-1,-1,3,0,4,7,3,-1
1558440806070211,-1,1,3,1,-3,-5,-1,1
1558440806083177,-3,-1,-5,-8,-5,-2,-5,-7
1558440806083177,2,1,-1,3,9,-2,1,3
1558440806091490,0,-2,-2,-2,5,4,1,1
1558440806091490,1,0,-4,-1,-2,1,-2,-3
1558440806115444,-3,-1,2,1,-4,-3,-1,1
1558440806115444,-2,1,0,-1,-8,-2,-6,-4
1558440806115444,-1,-3,-5,-4,4,7,-1,-5
1558440806115444,-1,0,2,1,-1,-2,0,2
1558440806137552,-1,-3,-1,-3,-1,-6,-1,-1
1558440806137552,0,-1,-7,-6,-6,-10,-1,1
1558440806138553,3,2,4,5,3,-2,1,2
1558440806138553,-3,-2,-1,-1,-10,-2,-9,-6
1558440806143887,-2,-2,-1,0,14,15,8,4
1558440806143887,0,-1,0,2,0,-8,1,3
1558440806151840,-4,-3,-9,-6,-18,-8,-9,-9
1558440806151840,0,-2,-2,-5,3,3,1,0
1558440806165783,2,1,3,3,8,7,3,1
1558440806165783,-3,-2,1,4,2,0,-1,-1
1558440806174749,1,0,0,-8,-1,1,2,1
1558440806174749,-1,0,0,-1,0,-2,-1,-3
1558440806188725,0,0,0,5,-3,-7,-1,0
1558440806188725,-2,0,-1,-10,-2,7,1,-1
1558440806196400,0,1,2,3,5,1,2,2
1558440806196400,-3,-1,0,2,-3,-2,-1,-1
1558440806212358,0,1,-2,-2,-9,-11,-5,0
1558440806212358,1,-1,-2,-3,-5,2,-3,-3
1558440806212358,-3,-2,-7,-5,-5,-4,-4,-3
1558440806212358,-1,-1,2,0,3,4,1,2
1558440806242278,-1,0,1,-3,-7,-22,-2,3
1558440806242278,-1,-2,-1,4,9,5,5,3
1558440806243276,-2,-3,-1,0,-3,-3,-3,-3
1558440806243276,0,-3,-2,-3,-1,10,-1,-3
1558440806248258,-2,1,-2,0,4,12,4,-1
1558440806248258,-2,-1,0,0,-6,-3,-4,-5
1558440806256625,1,1,2,-2,-4,-6,-1,1
1558440806256625,1,0,-1,-1,10,1,4,0
1558440806263219,-4,-3,-5,-3,-12,-8,-10,-6
1558440806263219,-2,-1,1,4,0,8,4,3
1558440806272288,2,3,2,7,11,-1,4,3
1558440806272288,-3,-2,-4,-9,-7,-8,-5,-3
1558440806286156,-1,-2,-2,-3,-8,-8,-5,-2
1558440806286156,-2,-2,-1,1,2,3,-3,-1
1558440806294145,-1,-1,-4,-1,1,-3,2,-1
1558440806294145,0,0,2,4,1,-10,0,3
1558440806308436,0,-1,-1,0,-4,-2,-5,-4
1558440806308436,-3,-2,-1,-5,-10,-8,-6,-3
1558440806317298,-1,-3,-4,-7,-4,6,0,0
1558440806317298,0,-2,0,4,4,10,6,3
1558440806324085,0,0,1,-1,7,9,6,2
1558440806324085,1,-1,2,1,1,-1,-2,-3
1558440806332122,0,-1,-4,3,-2,-5,-5,0
1558440806332122,-1,0,-1,-5,-3,-7,-7,-5
1558440806345999,-1,-3,-7,-7,-5,-1,-1,-2
1558440806345999,1,0,-2,0,-2,-13,1,1
1558440806354290,-4,-2,-2,-4,2,8,1,0
1558440806354290,-2,-2,0,3,-8,-8,-1,-1
1558440806369084,-2,-2,-1,1,0,-1,-3,-2
1558440806369084,-1,-2,-6,-7,-2,5,0,-1
1558440806384213,-1,-2,1,-4,-4,2,-3,-1
1558440806384213,1,2,-1,1,-1,-7,1,4
1558440806392872,-2,-1,-2,0,-7,-7,-3,-1
1558440806392872,-1,1,2,-2,2,6,1,0
1558440806392872,-1,-1,-1,1,2,3,-2,-2
1558440806392872,-1,0,3,4,1,4,2,2
1558440806405840,-3,-4,-3,-2,-1,-1,-4,-5
1558440806405840,-2,0,-1,-5,-5,-7,-1,0
1558440806414127,-1,0,-2,-1,-3,-11,-1,-4
1558440806414127,-4,-4,-8,-7,-7,0,-3,-5
1558440806427782,2,1,6,7,15,-2,4,5
1558440806427782,1,-2,2,-2,-2,-4,0,-1
1558440806436754,-2,-1,0,6,4,9,1,0
1558440806436754,-3,-1,-1,-6,-7,-4,-7,-5
1558440806451714,-2,1,-4,-2,-8,-2,0,-3
1558440806451714,1,0,-2,-3,7,8,2,1
1558440806452711,-1,0,-2,0,-2,-7,2,1
1558440806452711,-2,-2,-2,-8,-1,0,-4,-3
1558440806465677,-3,-5,-3,-2,-5,0,-3,-3
1558440806465677,-2,-1,-2,4,-2,-9,-6,0
1558440806473690,-2,-2,-2,-4,-1,2,0,0
1558440806473690,1,0,-1,-3,4,6,4,1
1558440806488615,-1,-2,-4,-5,-9,-12,-7,-2
1558440806488615,0,-2,-1,-2,2,0,-2,-1
1558440806496594,0,-2,3,-2,1,-7,-2,-1
1558440806496594,0,0,1,10,6,4,1,-2
1558440806512553,-3,-1,-5,-13,-1,8,3,1
1558440806512553,-1,0,-3,1,-2,-1,1,-1
1558440806513550,-4,0,1,1,-5,6,3,-2
1558440806513550,-3,-2,-2,-1,-2,-5,-2,1
1558440806525962,1,2,1,3,3,2,-3,-2
1558440806525962,0,0,-3,-4,-3,3,-4,-5
1558440806534864,0,0,0,1,4,1,2,3
1558440806534864,-2,-1,-1,-1,-5,-3,-6,-2
1558440806548924,-1,-2,1,3,2,5,2,-1
1558440806548924,1,2,3,7,6,-11,-1,0
1558440806556882,-3,-2,-3,-8,-16,-14,-11,-5
1558440806556882,0,0,-2,1,2,6,3,-1
1558440806571838,0,-3,-6,-10,3,-9,-4,0
1558440806571838,0,-1,-3,3,6,14,4,1
1558440806572392,-1,-2,-2,1,-3,-3,-5,-4
1558440806572392,0,1,3,2,-5,-13,-3,-1
1558440806585357,-2,0,0,5,3,9,0,-1
1558440806585357,-4,-2,-4,-4,-7,-1,2,-1
1558440806594749,0,0,2,1,2,3,4,2
1558440806594749,-2,-3,-4,-2,0,1,-1,-1
1558440806608785,3,1,4,5,1,1,1,-2
1558440806608785,-2,-1,-3,-10,-6,-10,-8,-2
1558440806616716,1,0,-1,-2,2,-7,-5,-1
1558440806616716,0,0,-1,0,-7,5,4,-2
1558440806631282,-1,1,3,3,7,0,0,-2
1558440806631282,1,-1,-2,1,0,3,0,-3
1558440806632280,-1,-3,-4,-2,-3,2,-2,-1
1558440806632280,2,-1,-2,-5,4,-5,4,2
1558440806645246,-2,-2,-2,-3,-12,-13,-8,-4
1558440806645246,0,1,6,6,10,12,7,2
1558440806654647,-3,-1,-4,-7,-2,-9,-6,-2
1558440806654647,-2,-2,-3,-5,3,13,1,-1
1558440806668504,-1,0,1,5,2,9,5,2
1558440806668504,-2,-3,-3,-5,-9,-9,-8,-4
1558440806676163,1,-1,2,1,2,3,6,1
1558440806676163,0,0,3,3,8,-6,-3,0
1558440806692464,1,0,-8,-3,-4,2,-4,-2
1558440806692464,-1,-2,-6,-1,-2,-9,-4,-1
1558440806692464,-2,0,-2,2,1,-2,-1,-1
1558440806692464,-2,-3,-2,-2,-5,-6,-7,-3
1558440806706369,-2,-2,2,-3,-7,-8,-1,-3
1558440806706369,0,1,3,5,4,10,5,0
1558440806721374,-1,0,-3,-4,-2,5,-3,-2
1558440806721374,-1,-4,-6,-3,-3,-4,-4,-2
1558440806728024,-3,-1,-1,-5,-7,-11,-5,-2
1558440806728024,-4,-2,0,1,-3,0,0,-2
1558440806743979,-2,1,-1,-1,1,2,0,0
1558440806743979,1,0,1,-1,-4,6,7,1
1558440806750997,2,-3,0,-2,7,-2,1,1
1558440806750997,-1,-4,0,6,-1,1,0,-1
1558440806751958,1,2,6,7,6,6,1,1
1558440806751958,-5,-4,-14,-14,-8,-18,-10,-5
1558440806766921,1,3,6,6,15,24,10,5
1558440806766921,-2,-1,-1,1,-5,-12,-3,-1
1558440806773934,-3,-5,-9,-9,-4,-3,-3,-2
1558440806773934,0,-1,1,3,-9,-5,-3,-4
1558440806788297,-1,0,2,2,-4,-6,-2,-1
1558440806788297,-1,-2,-5,-11,3,1,0,-1
1558440806796961,-1,0,-3,3,-1,4,4,-2
1558440806796961,-3,-2,0,2,2,14,2,0
1558440806811810,0,0,1,1,4,8,6,2
1558440806811810,1,1,0,-2,2,-5,-1,1
1558440806811810,-2,-3,-3,-4,-12,-15,-8,-3
1558440806811810,-1,-1,-1,-1,-3,-4,-5,-3
1558440806825763,-3,-2,-2,-5,-6,1,-2,-2
1558440806825763,0,0,0,1,7,10,5,3
1558440806834177,1,-2,-2,2,-1,-3,-4,-1
1558440806834177,0,0,1,-1,-2,-7,-4,0
1558440806847703,0,0,-1,2,2,5,-1,-2
1558440806847703,0,-1,0,1,-3,-15,-5,-4
1558440806856682,-1,-2,-5,-11,1,6,2,1
1558440806856682,-3,-2,1,0,-4,5,2,0
1558440806879620,-1,-4,-4,-4,-5,-10,-2,0
1558440806879620,-2,-2,-1,0,-3,2,-1,-1
1558440806880615,-1,2,4,7,0,0,0,-2
1558440806880615,1,2,3,-2,10,4,7,3
1558440806885816,-4,-3,-8,-3,-8,-6,-4,-1
1558440806885816,-3,-3,-6,-8,-12,-15,-10,-4
1558440806894577,2,-1,5,7,2,5,1,1
1558440806894577,1,1,-4,-4,-1,0,3,-1
1558440806916590,1,0,0,0,2,0,-1,-3
1558440806916590,-2,-2,0,-3,-7,1,-3,-3
1558440806918513,0,-2,-1,3,5,-2,-3,-1
1558440806918513,-2,1,3,3,-2,0,0,1
1558440806930481,0,-1,-1,-4,-1,0,-2,1
1558440806930481,-2,-3,-5,-3,1,2,-3,-4
1558440806939456,-2,-2,-1,-2,-7,-7,-5,-2
1558440806939456,2,1,-1,0,10,9,5,1
1558440806945441,-2,-3,-5,-5,-5,-14,-7,-4
1558440806945441,-1,2,1,2,-3,4,-1,0
1558440806954417,2,1,5,6,11,4,11,5
1558440806954417,-3,-3,-2,-2,-1,-6,-5,-5
1558440806968379,-4,-1,-2,3,-6,-4,-3,0
1558440806968379,-1,-2,-4,-8,-4,-3,-5,1
1558440806977355,-1,-1,1,-2,2,-5,3,0
1558440806977355,1,-1,1,1,-4,-12,-8,-2
1558440806990324,2,0,3,3,2,0,0,0
1558440806990324,0,-1,1,2,1,9,9,2
1558440806999297,-1,-1,0,-2,-1,8,1,-4
1558440806999297,-2,-2,-1,3,2,0,-5,-3
1558440807005281,0,-4,-5,-7,3,-12,-1,0
1558440807005281,-1,-2,1,-1,-5,-4,-1,-2
1558440807022236,-4,-5,-4,-5,-3,-1,-5,-2
1558440807022236,0,1,0,2,2,6,1,1
1558440807028679,-2,0,-4,-5,-6,-1,-4,-3
1558440807028679,0,-1,-1,-2,-4,-9,-1,-1
1558440807044380,-1,0,2,4,1,6,2,0
1558440807044380,-1,-2,-2,-10,-3,-10,-6,1
1558440807051159,-1,0,3,0,3,5,7,3
1558440807051159,-1,1,-6,-5,0,-1,1,1
1558440807068113,-3,-5,-3,-5,-11,-7,-9,-5
1558440807068113,0,-3,0,3,-4,2,-1,-1
1558440807068113,2,0,1,1,5,0,3,-1
1558440807068113,-1,-1,-2,-1,-1,1,-3,-2
1558440807075101,-2,1,-4,-6,-2,1,3,-1
1558440807075101,-1,-2,-1,0,-2,-13,-3,-2
1558440807097036,-1,-1,2,3,-2,4,0,-1
1558440807097036,-2,-1,1,2,2,4,0,-3
1558440807098033,1,-2,1,-5,-1,-1,0,0
1558440807098033,-1,-1,-2,2,-4,-2,-1,1
1558440807111001,-2,-2,-1,-1,-3,-3,-4,0
1558440807111001,-1,-1,-8,-16,-4,-4,0,0
1558440807119974,2,1,-3,2,2,10,1,-1
1558440807119974,1,2,2,0,1,-5,2,2
1558440807125958,-2,-1,-2,-1,-3,1,-5,-4
1558440807125958,-1,-1,1,6,1,2,-3,-4
1558440807134935,-2,2,0,0,-3,-15,-3,-3
1558440807134935,-2,-2,-3,-2,4,3,1,-4
1558440807147910,-1,-1,1,-1,-3,0,0,-2
1558440807147910,0,-1,-3,1,-3,-5,-4,2
1558440807156876,-3,-3,-4,-3,-2,-4,-6,-1
1558440807156876,0,-1,0,1,3,6,3,-2
1558440807170838,-3,-4,-6,-1,-8,-2,-2,-2
1558440807170838,-1,-1,1,-1,1,0,-4,-1
1558440807179820,-2,0,-1,1,0,-5,2,1
1558440807179820,-3,-1,-1,-1,8,15,6,2
1558440807194774,0,0,1,3,1,-6,-2,0
1558440807194774,1,0,2,-1,0,0,0,1
1558440807195772,-2,-2,-2,-3,-5,-6,-8,-2
1558440807195772,0,-3,-3,1,-6,-1,-1,-4
1558440807224694,-1,0,-1,-5,5,10,2,1
1558440807224694,-1,-1,1,3,3,5,4,0
1558440807225705,-1,0,-1,5,-2,-8,-4,-2
1558440807225705,1,1,-1,-8,-4,-5,0,1
1558440807230695,0,0,-1,-1,6,0,1,1
1558440807230695,-1,1,5,6,0,-15,-5,0
1558440807247633,-3,-4,-12,-9,-5,6,0,-2
1558440807247633,-5,-4,1,3,-13,-10,-7,-3
1558440807248631,-1,-1,-2,-2,2,6,3,0
1558440807248631,1,2,6,6,11,10,7,3
1558440807254615,0,-1,1,2,0,0,2,0
1558440807254615,4,1,0,-2,-1,-6,0,0
1558440807268576,-6,-3,-8,-5,-12,-10,-11,-7
1558440807268576,-4,-3,-2,-2,-5,6,-1,1
1558440807276555,-1,0,2,2,8,8,4,-2
1558440807276555,0,1,0,-1,-3,-4,1,2
1558440807290517,-1,-2,-1,-4,-1,-8,2,1
1558440807290517,-3,0,-3,-4,-7,-6,-6,-4
1558440807299496,-1,-1,0,-4,-8,-5,-5,0
1558440807299496,-3,-4,-4,2,-2,1,-3,-5
1558440807314459,1,1,3,0,8,5,5,1
1558440807314459,1,-1,-2,-3,1,6,3,2
1558440807320438,-2,-3,1,4,-1,0,-1,-2
1558440807320438,-1,-3,-3,-3,-3,-2,-4,-2
1558440807328416,1,0,-1,-3,-7,-10,-4,-1
1558440807328416,-1,-2,-6,1,-1,0,0,-3
1558440807352382,-2,-2,-2,-9,-4,-5,-3,-3
1558440807352382,0,0,3,6,5,4,0,1
1558440807353350,-1,-1,-5,-7,1,3,1,-2
1558440807353350,-2,-3,-5,1,-3,2,-1,-2
1558440807359336,2,1,0,3,11,12,5,3
1558440807359336,-1,1,-1,-3,-4,-7,-3,-1
1558440807374294,-1,-1,6,9,-2,-7,-2,-1
1558440807374294,-1,-1,-8,-15,-19,-16,-5,-3
1558440807376290,-1,1,1,-1,1,-3,3,4
1558440807376290,-2,-1,-1,1,6,6,4,-2
1558440807388418,0,-1,4,5,1,7,1,-1
1558440807388418,-1,-3,1,1,0,-7,-11,-4
1558440807397233,-1,-1,-4,-5,-1,2,1,0
1558440807397233,-2,-1,-3,0,-5,-4,-7,-2
1558440807410200,-3,-3,-3,-4,-7,-9,-5,-2
1558440807410200,2,0,3,5,2,0,3,-1
1558440807427152,3,-1,2,5,10,2,-1,-1
1558440807427152,-2,-3,-5,-5,0,4,0,1
1558440807434135,-3,-3,-4,-2,-3,0,-1,-2
1558440807434135,-1,-1,-3,-2,-4,-3,-2,0
1558440807436128,-3,-3,1,0,-10,-4,-3,-2
1558440807436128,3,2,3,-1,10,2,8,1
1558440807448097,-2,-3,-5,-4,-3,-3,-4,-2
1558440807448097,-2,0,0,2,4,0,1,0
1558440807457072,-2,0,0,-1,-7,-7,-4,-3
1558440807457072,-1,0,2,-2,6,-2,-1,1
1558440807471034,-3,0,-2,5,-4,-1,-4,-1
1558440807471034,-2,-1,-3,-10,-2,8,-1,-3
1558440807480024,-1,-3,-3,-1,-5,-8,0,-1
1558440807480024,-1,-1,0,1,2,-1,2,2
1558440807495051,0,0,6,3,-2,-4,0,1
1558440807495051,1,0,-1,-5,-2,-4,0,-2
1558440807495969,0,-1,-1,2,5,2,2,0
1558440807495969,-5,-4,-6,-1,-15,-4,-6,-5
1558440807507938,0,0,-3,-3,7,7,4,2
1558440807507938,-2,-3,0,-1,0,5,5,1
1558440807516913,0,2,-6,-4,-2,-7,-4,0
1558440807516913,1,1,4,-2,-2,-9,-5,0
1558440807530875,-1,-3,-6,0,-2,6,-1,-3
1558440807530875,-3,-3,-3,0,-2,-3,-2,-2
1558440807539851,-1,0,4,3,9,7,8,2
1558440807539851,-3,-3,-3,1,-6,1,-2,-3
1558440807554813,-1,-3,-4,-11,-6,-9,0,-1
1558440807554813,1,1,5,9,3,-2,0,2
1558440807556807,-3,-4,-8,-12,-4,2,-7,-2
1558440807556807,-1,-2,-1,1,-3,5,-3,-2
1558440807567777,-1,1,1,6,3,-6,1,2
1558440807567777,0,0,1,-3,5,4,2,1
1558440807576751,0,-1,0,0,-4,0,-5,-1
1558440807576751,-2,-1,-5,0,0,1,1,-1
1558440807599692,1,-2,-1,-3,-4,-3,-5,-2
1558440807599692,-2,-3,-3,-4,-10,-7,-5,-5
1558440807600689,1,-1,4,5,8,12,7,1
1558440807600689,2,1,2,3,7,-7,2,2
1558440807630608,0,-1,-2,-12,2,7,6,0
1558440807630608,-2,-3,-5,-4,-6,-2,-4,-2
1558440807631606,-2,-2,-1,-1,-9,-11,-6,-5
1558440807631606,1,0,-2,-1,-1,-8,-2,-2
1558440807632605,2,3,5,-1,1,3,-1,-2
1558440807632605,1,1,-1,3,2,3,2,1
1558440807636593,-1,0,-1,0,-2,5,4,-2
1558440807636593,-3,-1,-2,0,-5,-1,-2,-3
1558440807650556,0,1,-6,0,5,-5,4,-1
1558440807650556,-2,-2,2,-2,-1,-6,-3,-2
1558440807659531,-1,-1,-2,-7,-1,-2,-2,0
1558440807659531,-1,2,2,2,-4,-1,-1,-4
1558440807674491,-4,-6,-7,-10,-15,-5,-7,-5
1558440807674491,0,0,3,4,11,0,-1,2
1558440807675489,1,0,2,6,8,5,5,1
1558440807675489,-2,-2,-7,-5,-3,-1,0,-2
1558440807697429,2,2,4,3,2,3,0,2
1558440807697429,-1,-2,-7,0,-6,-5,-4,-2
1558440807698427,0,-2,-4,-1,-2,4,-1,0
1558440807698427,-2,-1,-3,-11,0,1,4,3
1558440807710395,1,-1,2,3,-2,-3,-7,-4
1558440807710395,-3,-2,-6,-6,-4,-8,-4,1
1558440807727351,-2,-1,1,6,-5,1,1,-4
1558440807727351,-2,-3,-2,-6,1,9,-2,-1
1558440807734368,-3,0,1,3,2,6,1,0
1558440807734368,2,0,3,3,3,-13,1,1
1558440807736326,-1,-1,0,-5,-7,-10,-7,0
1558440807736326,1,-2,3,1,-2,-2,-2,-2
1558440807748312,-3,-3,-2,-1,-1,4,-3,0
1558440807748312,0,-1,-2,-3,2,6,3,0
1558440807757271,-4,-2,-6,-10,-12,-15,-6,-6
1558440807757271,-1,0,2,3,6,8,2,2
1558440807779214,1,2,2,7,8,1,6,2
1558440807779214,-3,-3,-3,-4,-11,0,-3,-6
1558440807781206,1,0,0,-3,7,2,-1,2
1558440807781206,-3,-2,-1,1,-3,-7,-7,-5
1558440807794171,-2,-3,-3,-2,-6,-7,-5,-2
1558440807794171,1,0,1,1,4,7,4,2
1558440807800346,-2,-5,-4,1,-4,2,-8,-3
1558440807800346,0,0,-1,-2,0,-5,4,-1
1558440807808133,-1,0,0,1,7,7,7,2
1558440807808133,-5,-3,-2,-7,-5,-7,-4,-3
1558440807817109,-1,-2,0,4,-3,-2,-2,0
1558440807817109,-2,-2,0,-1,-5,-1,-2,0
1558440807831071,1,1,-3,-2,3,4,3,2
1558440807831071,0,2,2,9,7,11,1,0
1558440807839052,-1,-4,-9,-15,-5,-10,-4,-2
1558440807839052,1,2,0,-1,7,9,6,0
1558440807854011,-3,-2,0,0,-11,-17,-9,-7
1558440807854011,-3,-1,-2,2,5,12,3,0
1558440807861200,-1,0,0,1,4,-1,3,2
1558440807861200,-1,-2,-5,-4,-7,-3,-2,-2
1558440807876952,1,-1,2,5,-4,-2,-2,-2
1558440807876952,0,0,3,-1,1,-8,-5,-2
1558440807877948,-4,-1,-2,-2,-3,3,1,-2
1558440807877948,0,1,2,5,4,-2,3,1
1558440807890911,-3,-2,-3,-9,1,-2,-3,0
1558440807890911,0,0,1,-1,-4,-3,-2,0
1558440807906878,0,-3,0,3,-4,-11,-6,-5
1558440807906878,-2,0,1,0,-1,-7,-2,-1
1558440807913851,1,0,-2,-1,-3,-4,-1,-1
1558440807913851,0,-1,-6,-4,5,6,2,0
1558440807928811,-2,0,4,7,-1,5,0,0
1558440807928811,-1,0,0,-1,1,8,4,1
1558440807929814,-2,-1,-1,0,-4,-3,-2,-2
1558440807929814,-3,-2,-7,-3,-9,-9,-6,-2
1558440807937053,-1,0,2,-1,-2,-3,-3,-1
1558440807937053,-1,-2,-7,-8,-6,-6,-3,-1
1558440807950768,1,0,2,4,8,4,5,2
1558440807950768,1,-3,0,1,0,3,-1,-3
1558440807959728,-2,-2,-5,-7,-4,-4,-3,-5
1558440807959728,0,-1,6,6,3,-3,-5,-1
1558440807973693,-3,-2,-7,-7,-7,1,-4,-1
1558440807973693,0,-1,-3,-1,1,-7,3,0
1558440807981893,-1,-2,-1,1,3,-14,-4,1
1558440807981893,-2,-3,-1,0,-5,4,-3,-2
1558440807988824,0,-1,5,1,-2,-8,-5,-2
1558440807988824,-1,-3,-3,-3,-4,-2,-2,-5
1558440807996637,1,1,2,1,5,7,4,1
1558440807996637,-1,-2,-4,1,-6,-8,-5,-2
1558440808010622,-2,-6,-7,-14,-1,1,-5,-2
1558440808010622,-1,-2,6,1,-1,-4,-2,1
1558440808019568,1,0,-3,-3,0,1,0,1
1558440808019568,1,0,0,-3,9,10,5,1
1558440808033530,-2,-1,-3,-2,-5,2,-1,-1
1558440808033530,2,2,4,4,1,-18,0,2
1558440808042507,2,3,4,5,5,9,4,2
1558440808042507,-2,-3,-1,-3,-6,-2,-7,-6
1558440808048490,1,0,1,2,-9,-19,-2,0
1558440808048490,-4,-2,-3,-1,3,12,-1,-2
1558440808057466,-2,-2,0,3,-7,-8,-3,-3
1558440808057466,1,1,-6,0,9,11,5,2
1558440808070434,-1,-1,-7,-1,-4,-1,-3,-3
1558440808070434,-5,-3,1,-12,-7,0,-5,-2
1558440808079411,-2,-2,1,-1,4,-1,1,0
1558440808079411,-2,0,1,2,-1,1,-2,-1
1558440808110324,-1,1,4,3,1,3,0,-2
1558440808110324,2,2,-2,1,5,7,2,0
1558440808111322,-3,-2,-4,-3,-3,-4,-2,-4
1558440808111322,-3,-2,3,-5,-9,-31,-6,0
1558440808112321,3,0,-4,-6,-2,6,3,1
1558440808112321,-2,-3,-2,-3,-5,0,-7,-4
1558440808117306,-1,-2,-5,1,-2,9,3,-1
1558440808117306,-2,-1,3,3,0,-2,1,1
1558440808131277,-1,-2,-3,-7,-2,-9,-4,-3
1558440808131277,-3,-4,0,2,-7,1,1,-3
1558440808139250,-1,-1,-4,-11,-7,4,-1,-2
1558440808139250,-1,1,-5,-4,-2,7,1,1
1558440808154208,-2,-2,-1,5,2,0,-1,1
1558440808154208,1,1,5,7,7,8,3,2
1558440808160198,-3,-2,-7,-2,-1,0,-3,-6
1558440808160198,0,-2,-4,-3,-9,-11,-4,-4
1558440808168201,-2,0,5,3,9,6,5,2
1558440808168201,0,0,-3,-3,2,-7,-2,0
1558440808184131,0,-2,3,3,0,-4,-1,-1
1558440808184131,-2,-2,-2,-5,-5,0,-4,-1
1558440808191109,-1,-1,3,3,-2,1,0,-2
1558440808191109,1,2,2,4,10,18,11,4
1558440808207065,0,0,2,0,-1,-4,0,-1
1558440808207065,-4,-5,-7,-3,-10,-1,-9,-6
1558440808214348,0,-2,7,6,11,16,8,1
1558440808214348,0,0,-3,-8,-2,-9,-2,-2
