timestamp,emg1,emg2,emg3,emg4,emg5,emg6,emg7,emg8
1558440956607256,-1,1,2,11,4,-4,1,2
1558440956607256,-3,-1,1,-12,-5,0,-2,-1
1558440956608253,0,-3,-9,-13,-2,1,-2,-6
1558440956608253,-2,-3,-3,17,-5,-5,-7,-4
1558440956609250,-1,1,2,-5,-4,-3,1,3
1558440956609250,2,3,-1,-6,17,7,10,4
1558440956610248,-2,-1,6,21,-7,-7,-4,-2
1558440956610248,-2,-2,-3,-8,7,8,-3,-2
1558440956626205,-1,-6,-12,-16,-9,-2,-4,-5
1558440956626205,0,-1,-1,8,-10,-8,-4,-4
1558440956629197,-2,1,0,4,-4,-5,0,2
1558440956629197,2,4,2,-4,7,3,6,4
1558440956632189,-1,-2,-5,-5,-6,-4,-7,-8
1558440956632189,-2,-2,3,14,2,7,2,2
1558440956663106,-1,1,0,-7,2,3,2,-1
1558440956663106,-2,-3,-6,-11,-10,-6,-4,-5
1558440956664103,-1,2,6,12,2,-3,4,3
1558440956664103,-2,-1,-4,-2,5,5,0,-2
1558440956666098,-4,-4,-1,-12,-4,-3,-5,-2
1558440956666098,0,-1,-1,6,5,-2,1,0
1558440956678067,1,1,1,3,4,1,-2,-1
1558440956678067,-1,-3,0,-8,-11,-10,-9,-7
1558440956686044,0,-1,-3,3,2,-4,2,0
1558440956686044,2,1,2,7,12,4,7,6
1558440956693025,-2,-2,-5,-6,-5,-7,-7,-3
1558440956693025,2,-1,5,-1,5,18,8,1
1558440956723942,-3,-3,-5,-1,-8,-11,-10,-4
1558440956723942,0,2,7,2,4,12,8,2
1558440956724940,1,-1,-1,-2,7,3,0,2
1558440956724940,0,1,3,3,-12,-12,-7,-4
1558440956725937,-2,-5,-15,-11,-3,1,0,-2
1558440956725937,-1,0,0,0,-9,-14,-4,-2
1558440956777800,-1,1,3,16,7,7,1,3
1558440956777800,-3,-2,0,-14,-3,-8,-4,-2
1558440956778797,0,-1,-2,-7,-7,5,2,-4
1558440956778797,-3,-1,-1,18,5,8,-2,0
1558440956782786,-1,0,0,-8,-3,0,3,3
1558440956782786,3,1,-3,-13,-4,-11,-4,-3
1558440956783783,-1,-2,-3,16,3,-4,-5,-1
1558440956783783,0,-2,-1,-3,-8,-1,-1,1
1558440956785777,-1,-2,-2,-16,8,7,-2,-4
1558440956785777,-2,-3,-7,12,-5,-3,-3,-2
1558440956797745,-5,-1,-2,1,-7,-7,-4,-2
1558440956797745,2,3,1,-8,9,10,8,1
1558440956798742,-2,-1,0,1,-3,-11,-1,-4
1558440956798742,0,-1,-1,5,-4,3,1,2
1558440956811709,5,3,7,-1,14,3,4,6
1558440956811709,0,-3,-4,-14,-14,-14,-10,-8
1558440956818689,-2,-2,0,6,-16,-6,-4,-3
1558440956818689,2,2,5,4,15,3,6,3
1558440956834647,-5,-3,-5,-10,-4,-5,-4,-2
1558440956834647,-1,1,1,8,5,10,2,0
1558440956841629,0,0,1,3,-6,-3,-4,-1
1558440956841629,-3,-2,0,-8,-2,2,-3,-3
1558440956848609,1,1,0,0,2,7,4,1
1558440956848609,1,2,5,5,2,-6,2,1
1558440956857585,-2,-5,-14,-11,-8,-12,-9,-7
1558440956857585,0,-1,2,4,6,13,3,-1
1558440956887506,-1,-1,-4,1,6,-3,4,1
1558440956887506,-5,-4,-3,-6,-13,-12,-10,-5
1558440956889501,1,3,7,3,16,17,10,5
1558440956889501,-2,-1,-4,2,-7,-3,-7,-2
1558440956894487,-3,-4,0,-2,-10,-13,-5,-2
1558440956894487,1,0,1,-4,14,1,11,7
1558440956901475,-1,-3,0,-2,-8,-5,-3,-1
1558440956901475,0,1,3,4,3,-4,-4,-2
1558440956908457,-1,-3,-4,-3,-4,-6,-6,-4
1558440956908457,-1,-1,-3,1,-3,5,5,0
1558440956941361,2,1,-4,0,7,7,3,1
1558440956941361,-2,-1,-1,-3,-2,2,0,-1
1558440956942359,-4,-1,2,-1,1,5,-4,-1
1558440956942359,-6,-5,-10,0,-12,-8,-9,-3
1558440956946348,2,2,10,9,9,5,5,0
1558440956946348,0,0,-6,-11,2,-3,5,1
1558440956954327,-2,-2,1,-1,-4,-3,-5,-4
1558440956954327,-4,-3,-4,-9,-12,-9,-13,-7
1558440956961310,1,0,-2,2,0,2,2,4
1558440956961310,2,2,5,7,13,3,7,2
1558440956969288,1,1,2,6,0,2,0,1
1558440956969288,0,-2,-2,-5,3,0,-2,1
1558440956985244,-4,-4,-13,-17,-21,-19,-15,-7
1558440956985244,-2,-4,4,9,-2,3,5,0
1558440957000204,1,2,-2,-5,6,8,5,2
1558440957000204,1,-2,-5,-4,1,5,3,-1
1558440957001202,-2,-1,0,2,1,-5,-6,-3
1558440957001202,0,-2,-6,-11,-8,-6,-3,-3
1558440957014166,0,1,3,4,-1,-4,-1,-1
1558440957014166,2,1,8,5,2,-2,-3,-1
1558440957021149,1,2,8,1,3,6,1,0
1558440957021149,-11,-11,-12,-7,-12,-5,-7,-6
1558440957029128,-1,-1,-6,-6,0,9,-1,-4
1558440957029128,0,1,0,2,1,-1,5,0
1558440957054060,2,2,3,4,6,-28,-1,3
1558440957054060,0,3,0,-2,-12,0,-4,-3
1558440957055058,0,-3,-1,-4,0,3,0,-2
1558440957055058,-2,0,1,3,3,11,2,-2
1558440957059048,-1,-2,-7,-12,5,3,6,2
1558440957059048,-1,-2,-2,1,-7,-6,-7,-1
1558440957074007,-1,-3,-2,-3,-6,-3,0,2
1558440957074007,3,3,9,6,2,-6,-3,3
1558440957105922,-3,-4,-9,-8,-7,4,-2,-5
1558440957105922,2,1,-2,0,1,2,2,1
1558440957106919,-3,0,-4,0,0,6,0,-8
1558440957106919,0,2,3,4,5,-9,1,-3
1558440957107917,-4,-3,2,4,0,2,-5,-2
1558440957107917,-2,-3,-1,-5,-2,1,-2,-2
1558440957111928,1,0,-4,1,-5,-8,-2,1
1558440957111928,-3,-2,2,-5,-4,-4,0,0
1558440957118889,1,4,-1,13,12,11,4,2
1558440957118889,-3,-6,3,-12,-8,-9,-4,-2
1558440957134859,1,2,3,3,7,5,5,3
1558440957134859,-3,-4,-11,-2,-7,-3,-7,-8
1558440957140829,-3,-1,2,-2,-5,-2,-3,0
1558440957140829,2,0,-8,-6,2,-6,-3,-3
1558440957156788,-1,-1,4,2,-6,-9,-3,1
1558440957156788,0,-2,-2,-5,-1,-1,-1,0
1558440957163766,-2,-1,0,-2,0,11,6,0
1558440957163766,0,3,2,16,8,1,1,1
1558440957171746,-4,-4,-2,-10,-6,-8,-4,-4
1558440957171746,0,1,-10,-13,-8,2,-2,-3
1558440957178727,6,2,2,0,-1,-1,0,3
1558440957178727,-9,-6,2,6,4,-5,-3,-4
1558440957194684,0,-2,-5,-6,-4,1,-3,-1
1558440957194684,-1,-2,3,1,6,-3,-1,-1
1558440957201666,-2,-4,-3,-3,-3,2,1,-1
1558440957201666,2,0,0,0,1,5,3,-1
1558440957208646,1,-1,-3,-3,0,-5,2,0
1558440957208646,-2,-1,2,6,-2,-2,-3,0
1558440957223606,0,-1,-5,-3,-1,2,-2,-4
1558440957223606,-1,2,-3,0,2,7,3,1
1558440957231586,-4,-3,2,-2,-8,-4,-3,-6
1558440957231586,0,0,5,3,-1,-4,-1,1
1558440957238567,0,0,-2,-3,6,-5,0,-1
1558440957238567,-3,-2,0,-2,-10,-2,-6,-2
1558440957254525,1,1,3,4,12,15,8,4
1558440957254525,-1,-1,-2,-2,-4,-1,1,-2
1558440957261506,-6,-5,-10,-10,-15,-7,-3,-6
1558440957261506,5,5,4,3,12,-10,2,4
1558440957268486,-1,-3,-1,-4,-10,-8,-6,-1
1558440957268486,0,1,2,1,11,9,7,1
1558440957283446,-1,-3,-2,1,-12,-4,-6,-4
1558440957283446,0,-2,-6,-15,-11,-2,-7,-3
1558440957291426,-1,2,5,5,9,12,2,0
1558440957291426,-1,-3,-2,-4,-1,-5,0,0
1558440957298408,-1,-3,5,7,3,3,-1,-2
1558440957298408,-2,0,0,-1,-5,-2,0,-2
1558440957322346,2,-2,-4,-6,-9,-10,-11,-2
1558440957322346,-1,-2,-2,7,11,5,3,0
1558440957324337,0,1,7,2,2,-3,0,0
1558440957324337,-1,-4,-9,-5,-5,0,0,2
1558440957328328,-4,-4,-5,-7,-5,0,-5,-7
1558440957328328,-2,-3,-4,-2,-11,2,-5,-3
1558440957343286,1,2,-5,-10,5,-2,1,1
1558440957343286,2,2,4,1,5,-10,2,4
1558440957352262,-5,-4,-4,2,-7,-12,-3,-8
1558440957352262,0,0,-3,-6,-4,-1,-4,-2
1558440957358248,-2,-1,6,4,3,15,-2,-3
1558440957358248,1,0,3,5,-2,0,-4,-2
1558440957375201,-1,0,-3,1,9,7,11,9
1558440957375201,-2,-1,2,2,-1,-10,-6,-2
1558440957381185,-4,-3,-7,-16,-15,-6,-4,-5
1558440957381185,1,-1,5,6,3,0,-2,-1
1558440957389171,1,1,-7,0,9,4,5,2
1558440957389171,-1,-1,-3,-7,-5,1,0,-2
1558440957404125,-1,-1,3,3,0,-7,-4,-2
1558440957404125,1,-1,2,1,-4,-2,-3,-4
1558440957412105,2,-2,-1,-1,-1,-1,-4,-4
1558440957412105,-2,-3,-10,-10,-3,-4,3,2
1558440957419085,-2,-3,-5,-4,7,-10,-1,0
1558440957419085,-2,0,-2,-5,5,15,1,-2
1558440957434043,-2,-2,2,1,-13,-15,-7,-2
1558440957434043,3,5,4,4,11,16,6,2
1558440957441026,-1,-2,5,12,3,-4,-4,-1
1558440957441026,-3,-3,-13,-21,-12,-3,-5,-5
1558440957456982,-3,-1,6,5,6,-3,2,2
1558440957456982,0,2,-2,-2,-1,-6,0,0
1558440957463963,-1,0,5,4,-3,-1,0,-5
1558440957463963,1,5,5,11,5,0,-1,2
1558440957479921,-1,-2,-5,-9,-5,-2,-5,-2
1558440957479921,-2,-3,-3,-7,-4,-2,-2,-2
1558440957481916,-1,-2,-7,1,1,4,0,3
1558440957481916,-3,-3,-3,2,-1,2,2,0
1558440957494882,1,2,-1,-9,0,-1,-3,-1
1558440957494882,1,-1,10,7,-1,1,-2,-1
1558440957500869,2,2,3,4,0,1,0,-1
1558440957500869,-4,-7,-17,-12,-5,-4,-3,-3
1558440957508851,0,1,2,2,1,1,1,1
1558440957508851,-4,-3,-3,6,0,-2,-3,-3
1558440957523804,0,1,0,-9,-7,-4,-6,-1
1558440957523804,0,0,11,8,3,2,-1,-3
1558440957539762,-2,-3,-5,1,-6,-9,-3,-2
1558440957539762,3,1,-1,0,13,1,9,7
1558440957541756,1,-2,1,2,9,-4,1,2
1558440957541756,-1,0,1,6,1,9,6,0
1558440957554721,-4,-3,-4,-10,-8,-7,-11,-8
1558440957554721,-3,-2,3,1,-11,-3,-3,-3
1558440957561704,4,4,0,6,12,5,6,4
1558440957561704,-1,-3,-1,2,-2,0,-5,1
1558440957576668,1,1,5,0,1,5,6,2
1558440957576668,-4,-5,-5,-6,-10,-19,-11,-6
1558440957583645,-3,-5,-6,-5,-4,3,-4,-4
1558440957583645,-2,-1,0,-1,1,-5,1,-1
1558440957591622,1,0,7,4,-3,-4,-4,-2
1558440957591622,3,0,-9,-2,-2,7,4,1
1558440957600598,-4,-3,-8,-9,-3,9,3,-1
1558440957600598,-2,2,4,-3,-1,-9,-2,0
1558440957614570,-1,0,0,2,-3,1,-2,-1
1558440957614570,0,2,5,1,9,-1,1,1
1558440957621546,-1,-1,-3,-2,-10,-4,-4,-2
1558440957621546,-1,0,1,0,2,6,6,2
1558440957636508,-1,-1,-9,0,8,2,-3,-2
1558440957636508,-2,-1,-7,-14,-13,-1,-9,-4
1558440957643494,-4,-4,-1,-2,-8,-3,-4,-2
1558440957643494,3,2,1,0,7,0,1,2
1558440957651465,2,1,2,3,2,-2,0,2
1558440957651465,-3,-2,0,0,-2,2,-1,-4
1558440957660441,0,2,-1,2,7,3,1,0
1558440957660441,-3,-3,-5,-8,-13,-13,-11,-7
1558440957674465,-1,0,1,-1,0,1,-3,1
1558440957674465,1,1,-2,0,10,10,5,1
1558440957681427,0,-1,2,1,-13,-12,-6,-2
1558440957681427,3,0,0,6,7,6,6,1
1558440957696345,-2,-4,-6,-8,-3,-4,-5,-4
1558440957696345,-2,-2,4,2,-4,-3,-4,-3
1558440957705323,2,1,1,0,-2,-2,-3,-2
1558440957705323,-2,1,4,2,-6,0,2,-3
1558440957711303,0,-1,-4,-3,4,-1,1,1
1558440957711303,-2,-1,-1,1,3,-3,-1,-1
1558440957720280,-2,0,3,-3,1,-5,2,1
1558440957720280,0,1,4,-4,2,5,0,1
1558440957734242,-1,1,-1,4,-6,-2,0,-3
1558440957734242,-1,-1,2,-3,-4,-2,-3,-1
1558440957742225,-2,0,-4,2,1,0,3,0
1558440957742225,-5,-5,-11,-11,-8,-1,-6,-5
1558440957757182,0,-2,6,5,8,12,6,1
1558440957757182,0,0,3,3,3,-5,0,0
1558440957764162,-2,-3,-11,-9,-13,-8,-5,-6
1558440957764162,1,-2,1,1,-1,-5,-5,-2
1558440957780118,-2,2,3,3,4,7,5,1
1558440957780118,0,0,-4,0,4,5,-3,-2
1558440957781115,2,3,8,8,5,-3,3,2
1558440957781115,0,0,-6,-12,2,0,-2,-1
1558440957794080,-1,-3,-1,0,-6,-7,-3,-2
1558440957794080,-1,-1,-3,-7,-9,-3,0,0
1558440957810038,-2,-2,-4,-1,0,4,-1,0
1558440957810038,-2,-2,-9,-6,0,-2,2,0
1558440957817026,-2,-1,1,1,0,-2,-2,1
1558440957817026,-2,-1,0,0,-2,-3,-2,-2
1558440957824007,1,0,1,-1,0,-1,-1,-2
1558440957824007,-2,-2,-2,0,-2,-2,-2,1
1558440957839959,0,0,-3,0,-4,-5,-1,-1
1558440957839959,-2,-1,-1,1,-1,-2,-3,-3
1558440957845946,-1,-3,-1,-4,-1,-2,-3,0
1558440957845946,0,1,8,9,2,1,1,0
1558440957853931,-2,-2,-5,-3,-3,-1,-4,0
1558440957853931,-2,-2,-5,-4,-5,0,-2,-2
1558440957862897,-1,0,0,-2,-1,-2,-1,-1
1558440957862897,1,0,1,2,-3,1,7,4
1558440957876967,1,-1,2,6,16,7,7,1
1558440957876967,-1,-4,0,-3,-9,-15,-8,-6
1558440957883946,-2,-2,-3,0,-7,3,0,-2
1558440957883946,-1,2,5,6,12,0,2,0
1558440957899804,-2,-4,-7,-7,-16,-8,-7,-5
1558440957899804,-1,2,3,7,12,12,5,2
1558440957906852,-4,-2,-6,-6,-5,-3,-2,-1
1558440957906852,-2,-3,-5,-5,-8,-3,0,0
1558440957913865,0,0,3,-7,3,-5,2,-1
1558440957913865,-2,-3,0,4,-8,-1,-7,-4
1558440957929723,-1,-2,-5,-1,-5,-11,-6,-3
1558440957929723,0,1,-2,-2,3,-3,-3,-1
1558440957937700,-1,-2,-3,-2,-8,-3,-3,-2
1558440957937700,1,1,-3,-6,-8,-4,-1,-1
1558440957943683,-1,-1,-1,-4,6,6,3,-1
1558440957943683,-3,-2,3,3,-6,-1,2,-2
1558440957959678,0,0,-7,-8,3,3,0,-1
1558440957959678,0,0,1,1,4,-6,0,1
1558440957966658,-1,1,3,0,2,3,-4,-1
1558440957966658,-2,-3,-3,0,-6,-8,-8,-3
1558440957973601,-1,-1,2,-1,-2,-1,0,-3
1558440957973601,0,-2,-3,-8,-5,0,1,-1
1558440957982577,-2,-2,-4,2,-3,-7,-4,-2
1558440957982577,2,1,3,0,13,12,9,3
1558440957996539,-2,0,-4,-6,-7,-6,-1,-1
1558440957996539,-2,-2,-3,1,-4,-2,-3,-4
1558440958003520,-1,-1,3,2,5,2,4,4
1558440958003520,0,-3,-2,-5,-11,-6,-10,-4
1558440958019478,0,-1,-1,-2,0,2,2,1
1558440958019478,0,-1,-4,2,5,-1,-2,1
1558440958026459,-2,-2,-2,-10,-11,-5,-5,-2
1558440958026459,-1,0,0,4,-10,-8,-8,-3
1558440958042423,1,1,3,4,12,9,1,1
1558440958042423,2,4,7,2,5,3,8,3
1558440958044411,-1,0,-3,-3,5,5,5,-1
1558440958044411,-1,-1,0,1,3,-1,1,-1
1558440958057379,-3,-4,-8,-4,-13,-9,-8,-3
1558440958057379,-2,-4,-5,-5,-14,-9,-11,-7
1558440958063366,1,-2,1,2,11,13,5,0
1558440958063366,0,2,4,3,9,-1,5,2
1558440958087303,-5,-2,-2,-1,-11,-15,-7,-2
1558440958087303,-1,0,-4,0,12,6,1,3
1558440958089299,-1,-3,-9,-9,-12,-9,-3,1
1558440958089299,-3,-4,-5,-2,-2,1,-7,-3
1558440958102258,2,2,8,8,5,0,4,1
1558440958102258,2,0,0,-4,-1,0,0,-1
1558440958104255,2,0,3,4,2,2,0,-1
1558440958104255,0,-1,-3,-6,-1,0,3,0
1558440958117228,-1,0,0,-2,-4,-2,1,0
1558440958117228,-3,-2,-1,4,5,6,2,1
1558440958124316,-2,0,1,-3,-7,-7,-6,-3
1558440958124316,0,-1,-1,-1,1,8,3,1
1558440958155123,0,3,5,6,7,0,3,1
1558440958155123,-2,-3,-8,-7,0,4,-2,-5
1558440958156115,0,-1,3,4,3,8,3,-1
1558440958156115,-1,-2,-8,-8,-7,-25,-6,-2
1558440958163097,-1,-4,-7,-8,-5,4,-1,0
1558440958163097,-2,0,1,-3,-2,-4,-4,-1
1558440958164094,-3,0,-1,2,1,-1,-1,-2
1558440958164094,-3,-2,3,5,-6,-5,-6,-3
1558440958177058,3,1,2,1,16,20,13,4
1558440958177058,-2,-4,-4,-10,-13,-15,-5,-1
1558440958184038,-1,-2,-6,4,0,5,-1,-1
1558440958184038,-3,-1,-1,-6,-5,-1,-6,-4
1558440958198999,-1,0,0,1,5,0,-2,-1
1558440958198999,-2,-2,3,6,-6,-13,-5,-2
1558440958205979,4,1,0,-1,5,4,4,2
1558440958205979,-2,-3,-1,3,-3,12,1,-3
1558440958222933,-3,-1,-8,-13,-5,0,0,-1
1558440958222933,4,2,8,9,7,-13,3,4
1558440958223930,-2,-2,-6,-9,0,-8,-4,-3
1558440958223930,1,-1,-1,-3,-2,1,-1,-3
1558440958236906,-5,-6,-3,0,-9,-2,-6,-5
1558440958236906,-2,-1,0,-2,4,13,2,-3
1558440958243878,-1,0,6,2,0,-5,5,2
1558440958243878,0,0,-1,3,10,12,4,1
1558440958267825,0,-1,0,-1,2,-9,0,0
1558440958267825,-2,-2,-1,-2,-5,3,1,-1
1558440958268814,-2,0,-3,-3,0,1,-6,-5
1558440958268814,-2,-2,-9,-5,-7,-9,-4,-1
1558440958282782,-1,-2,-1,-2,-10,-7,-9,-4
1558440958282782,1,1,2,2,6,8,6,4
1558440958283774,0,0,7,5,-5,1,2,1
1558440958283774,1,0,-1,-3,5,-2,-2,-1
1558440958296742,-5,-3,-6,-8,-11,-11,-8,-4
1558440958296742,0,-3,-6,-2,0,1,-3,-2
1558440958303830,2,0,-1,-2,-2,1,0,-1
1558440958303830,0,-1,-2,-2,1,-9,-1,0
1558440958327657,3,1,6,6,1,7,7,1
1558440958327657,-1,-2,-4,1,-1,-9,-5,-2
1558440958328652,-3,-2,-1,-4,-3,2,-1,-3
1558440958328652,-3,-2,-2,-2,-1,10,-2,-3
1558440958342618,-1,0,1,3,5,-6,-3,0
1558440958342618,-2,-1,4,0,2,5,0,-1
1558440958343613,0,-2,-3,-2,-8,-6,-8,-3
1558440958343613,-2,-1,-4,-1,-4,0,-1,-4
1558440958372535,0,-1,-5,-10,2,4,3,1
1558440958372535,1,1,-1,-2,3,-4,5,5
1558440958374531,-2,-2,1,1,-2,-5,-5,-1
1558440958374531,-2,-2,1,5,1,3,4,2
1558440958388501,1,0,4,4,-1,0,-4,-4
1558440958388501,-4,-4,-14,-11,-10,2,-4,-6
1558440958389491,-1,2,4,5,7,-1,4,3
1558440958389491,2,2,-3,-8,0,-4,0,2
1558440958402454,2,0,0,4,7,5,0,1
1558440958402454,-2,-1,-1,-1,-4,0,-5,-3
1558440958404450,-2,-3,-2,-6,-9,-13,-9,-5
1558440958404450,-2,-2,3,0,-1,3,1,0
1558440958417417,2,0,-2,1,3,2,-1,-1
1558440958417417,-1,1,5,5,5,14,6,0
1558440958431377,-3,-3,-10,-10,-9,-9,-7,-2
1558440958431377,-1,0,2,3,2,-3,-1,-2
1558440958439354,0,0,0,3,3,-7,-2,1
1558440958439354,1,1,-1,0,0,-5,1,0
1558440958446338,-3,-1,-1,-5,3,-2,0,0
1558440958446338,-1,1,6,11,-6,-6,-4,-3
1558440958463453,-1,-3,-7,-14,-5,11,1,-1
1558440958463453,-1,-1,7,2,-5,-12,-5,-2
1558440958464290,-1,0,5,6,8,12,4,3
1558440958464290,-5,-4,-19,-17,-14,-14,-7,-2
1558440958476256,-2,0,2,7,0,6,1,-2
1558440958476256,-3,-4,-6,-9,-2,-3,-6,-2
1558440958485231,2,3,-1,-3,-1,-1,3,1
1558440958485231,1,1,9,6,-1,8,1,-2
1558440958499512,-1,-1,-1,-4,-1,-1,-1,1
1558440958499512,0,-1,-5,3,-2,-4,-4,-2
1558440958506495,-2,0,4,1,-6,-4,-3,-4
1558440958506495,0,-1,1,-5,9,9,2,0
1558440958523431,-1,-1,4,5,-1,-4,-1,-1
1558440958523431,0,-1,2,3,-4,-2,-3,-3
1558440958524132,0,-3,-15,-19,-6,1,0,0
1558440958524132,3,0,-2,3,2,2,0,-1
1558440958553195,-4,-2,-1,-3,-6,-9,-7,-3
1558440958553195,0,0,1,0,6,5,3,1
1558440958554051,-2,-1,3,5,5,5,3,1
1558440958554051,-1,-3,3,8,-1,-4,-2,-4
1558440958559247,-4,-4,-10,-13,-12,-6,-3,-4
1558440958559247,0,0,-1,-4,2,-6,-3,0
1558440958566023,0,0,-2,1,2,-12,0,0
1558440958566023,-3,0,-2,-3,1,8,2,0
1558440958582975,-3,0,10,12,1,-2,-3,-2
1558440958582975,-2,-2,-12,-15,-12,-4,-2,-3
1558440958583970,1,2,2,1,8,6,5,4
1558440958583970,-1,-2,0,1,-3,-8,-2,-1
1558440958604920,-2,1,3,0,7,4,-2,-1
1558440958604920,-1,-1,-1,4,-12,-8,-8,-3
1558440958606908,-2,-3,-4,-2,10,15,3,0
1558440958606908,0,-4,-3,-4,2,-3,-4,-1
1558440958619873,-3,-3,-13,-10,-10,-10,-5,-2
1558440958619873,1,2,6,7,9,4,8,6
1558440958626897,-1,-3,4,-2,-4,-4,-6,-4
1558440958626897,-2,-3,-3,-4,-5,2,-4,-3
1558440958642811,0,0,-2,4,8,12,9,4
1558440958642811,-2,1,-1,-3,2,-9,-3,-1
1558440958643809,-3,-2,-3,2,-10,-4,-6,-4
1558440958643809,0,0,0,0,-6,-3,1,0
1558440958656837,1,-1,-1,-5,-2,-6,0,-1
1558440958656837,1,-3,0,2,0,4,0,-3
1558440958664982,-1,-1,3,8,-1,-3,0,-2
1558440958664982,0,-1,-1,-4,-10,-9,-4,0
1558440958679961,-2,-2,-8,-17,-5,2,0,-3
1558440958679961,-1,0,4,5,4,7,0,-1
1558440958686843,-1,-2,-5,3,-3,0,-8,-2
1558440958686843,2,2,-1,-4,8,0,3,2
1558440958703815,-3,-5,-1,-1,-11,-17,-9,-5
1558440958703815,0,1,1,-1,0,11,6,1
1558440958708853,1,1,7,9,11,5,7,0
1558440958708853,1,3,4,0,1,-4,1,1
1558440958716846,0,0,-2,1,1,2,0,1
1558440958716846,-3,-4,-3,-1,-14,-4,-8,-6
1558440958725593,-2,-1,-1,-2,7,7,2,2
1558440958725593,-2,-2,-1,-1,1,-6,-3,-1
1558440958739776,-3,0,2,2,-1,-1,-3,-3
1558440958739776,-2,-5,-7,-9,-7,-4,0,-2
1558440958746568,1,1,1,3,-2,-6,-5,1
1558440958746568,-2,-2,-6,-3,1,8,2,-3
1558440958770698,-1,2,6,2,-1,-6,-3,-2
1558440958770698,-3,-4,-8,-2,0,-4,-2,-3
1558440958771470,0,0,-6,-3,0,-2,2,0
1558440958771470,-1,-2,-2,-1,-2,-4,-3,-1
1558440958776654,0,-2,-2,-1,1,2,-3,-2
1558440958776654,-1,0,6,4,-2,3,1,-2
1558440958785443,1,1,-4,-3,4,0,-3,-3
1558440958785443,0,1,-1,-4,-4,0,5,-1
1558440958799394,1,0,-1,0,3,2,1,1
1558440958799394,2,0,0,3,7,-6,4,3
1558440958822339,-3,-5,-4,-7,-12,-7,-5,-3
1558440958822339,-2,-2,-2,-6,-8,2,-4,-3
1558440958823331,-1,0,-4,4,4,4,8,2
1558440958823331,-1,-1,-2,-4,-6,-6,-8,-4
1558440958828316,-3,-3,3,3,0,-2,-2,-1
1558440958828316,2,2,-1,0,2,-4,0,1
1558440958845269,0,-1,3,5,1,4,0,-3
1558440958845269,0,0,-4,1,2,1,2,2
1558440958846267,2,-1,1,-2,-3,0,1,0
1558440958846267,-4,-2,-5,-6,-12,-4,-7,-2
1558440958859231,-2,0,-6,-5,1,-2,-3,0
1558440958859231,-1,2,3,1,7,3,2,0
1558440958866213,-1,-3,-1,-7,-12,-4,-4,-2
1558440958866213,-1,-3,-1,7,5,2,-2,-2
1558440958882169,-1,-3,-12,-9,-8,-10,1,0
1558440958882169,-1,-1,2,1,6,10,6,2
1558440958888153,-3,-1,2,1,-11,-14,-5,-2
1558440958888153,0,-2,3,-1,7,6,-2,-2
1558440958896140,1,3,5,3,6,0,1,3
1558440958896140,-3,-5,-3,-3,-9,-9,-8,-3
1558440958905114,-2,0,0,2,5,10,6,-1
1558440958905114,-4,-4,1,-2,-2,-4,-1,-3
1558440958919073,-3,-4,-3,0,-6,-1,-8,-4
1558440958919073,2,1,0,-5,10,11,5,2
1558440958926118,2,2,0,-1,1,-5,6,3
1558440958926118,-3,-1,-1,3,-2,-7,-3,-2
1558440958942015,0,-1,0,3,-3,2,-3,-1
1558440958942015,-1,-2,-3,-6,-6,-1,-1,-1
1558440958949107,1,0,-4,-4,-3,-4,-6,-3
1558440958949107,-1,0,0,1,-8,-9,-2,-1
1558440958956973,2,1,3,2,6,11,10,3
1558440958956973,-1,1,3,-1,4,3,1,-1
1558440958965034,-1,-2,-2,3,4,-1,0,2
1558440958965034,-5,-3,-9,-7,2,0,-3,-3
1558440958979911,-3,-3,-2,-4,-17,-13,-10,-5
1558440958979911,0,-1,0,-3,4,1,3,0
1558440958987900,-2,-2,-1,1,8,11,-1,-1
1558440958987900,1,2,5,2,-2,4,3,0
1558440959001854,0,1,3,-2,4,-1,3,1
1558440959001854,-4,-1,-5,0,-8,-9,-8,-3
1558440959009838,-1,-2,2,-2,-6,1,-3,0
1558440959009838,2,-3,-4,-7,16,12,3,0
1558440959024789,-1,-1,-4,2,-4,0,1,-4
1558440959024789,1,0,3,3,-3,-17,-4,-2
1558440959026783,-2,0,-7,-12,-5,-2,-4,-3
1558440959026783,0,0,6,4,-8,1,1,1
1558440959039828,-4,-3,-7,-3,-2,2,-3,0
1558440959039828,-2,-2,-1,-2,0,1,-1,2
1558440959046731,-4,-3,-2,-4,-5,-11,-3,-2
1558440959046731,-2,2,0,8,-5,-7,-3,-1
1558440959061702,2,-1,-1,-5,8,10,5,0
1558440959061702,1,0,-2,-1,-4,-8,-5,-1
1558440959068678,2,1,-1,6,11,11,6,3
1558440959068678,-3,-4,-2,-6,0,1,-1,-2
1558440959085683,-4,-2,1,1,-10,-11,-6,-5
1558440959085683,-3,-1,-2,-10,-7,3,-4,-5
1558440959086628,3,-3,-7,-1,4,-10,2,-1
1558440959086628,0,2,2,1,4,-1,1,2
1558440959100589,-2,-1,-3,-1,-2,-3,0,1
1558440959100589,-1,-1,1,0,-4,-2,-3,-2
1558440959106682,0,1,4,0,1,6,1,-2
1558440959106682,0,-2,-2,2,-2,0,-2,-3
1558440959121578,1,-2,-5,-2,-2,4,2,-1
1558440959121578,0,-3,-1,-2,-1,-5,-5,-1
1558440959128517,-1,-1,0,2,0,6,0,1
1558440959128517,0,-1,-2,-1,-4,-14,-4,1
1558440959161429,0,3,6,5,9,1,0,1
1558440959161429,-2,-4,-8,-2,-2,-3,-2,-1
1558440959163428,-1,-4,-4,-6,-7,2,-1,-1
1558440959163428,0,-2,-6,2,4,4,-1,-1
1558440959163428,1,-1,1,-5,-1,-6,1,2
1558440959163428,-1,1,-2,-2,1,-1,2,1
1558440959167410,-3,-1,3,8,-2,-7,-7,-3
1558440959167410,0,1,4,0,1,-3,-2,-1
1558440959182371,-2,-2,-10,-13,-6,-6,-7,-2
1558440959182371,-1,0,4,6,4,8,1,-1
1558440959188353,0,1,3,0,-1,2,1,0
1558440959188353,0,-3,-4,-7,-11,0,0,-2
1558440959221496,-2,-3,-6,2,8,11,0,-3
1558440959221496,-1,-4,-2,-4,-8,-16,-9,-3
1558440959223266,0,-1,-4,-4,-10,-3,1,1
1558440959223266,0,1,6,3,8,-4,3,1
1558440959224290,-1,-1,-2,-2,-2,4,2,-2
1558440959224290,-1,-2,-2,-4,-2,8,1,-3
1558440959227248,-4,-4,-5,-9,-5,-10,-8,-4
1558440959227248,2,1,3,2,-1,-20,-3,3
1558440959242239,1,3,6,11,9,9,5,3
1558440959242239,-2,-2,-4,-1,-5,1,-1,-3
1558440959248196,-1,-1,-2,-1,2,8,0,-2
1558440959248196,-3,-1,-4,1,-4,2,-2,-1
1558440959265465,-5,-2,5,-2,-1,1,-1,-4
1558440959265465,1,0,-6,-3,-8,-1,-1,-2
1558440959266147,1,2,3,6,9,-2,3,3
1558440959266147,-5,-4,-6,-11,-5,2,-1,-1
1558440959287388,2,1,7,7,6,0,2,2
1558440959287388,0,-2,0,0,8,8,1,-1
1558440959289084,-2,-3,-5,-6,-15,-11,-9,-6
1558440959289084,2,0,2,3,11,13,7,-1
1558440959301116,0,-2,-2,-6,-4,-9,-1,0
1558440959301116,-1,0,-1,3,8,-2,1,2
1558440959309338,-1,-1,-3,-4,-7,-8,-5,-3
1558440959309338,-4,-1,-2,-4,-11,-6,-6,-3
1558440959325984,0,-2,1,2,3,0,1,1
1558440959325984,-2,-1,0,-1,-2,1,3,2
1558440959326983,0,0,0,0,0,4,-2,-3
1558440959326983,-2,-6,-7,-9,-13,-18,-8,-5
1558440959340159,0,1,0,2,1,-2,0,0
1558440959340159,1,0,3,-1,-3,4,6,2
1558440959345938,-1,-1,4,2,10,10,2,0
1558440959345938,-2,-1,-6,-3,-4,0,-4,-4
1558440959362891,0,-1,-4,-4,3,-4,-4,1
1558440959362891,-2,0,0,-1,2,-8,-5,-4
1558440959386053,1,1,0,3,-2,-11,1,2
1558440959386053,-1,-1,0,-2,1,8,2,1
1558440959386824,-2,-4,-3,-3,-9,-4,-6,-6
1558440959386824,-4,-3,-1,5,4,10,-1,-3
1558440959387820,0,0,1,0,7,5,2,2
1558440959387820,1,0,3,-1,1,-1,0,0
1558440959399980,-3,1,0,-4,-4,-3,-4,-3
1558440959399980,-2,-4,-7,-3,-3,-2,-2,-2
1558440959406821,-2,-2,-1,-4,-5,-5,1,1
1558440959406821,2,2,2,5,17,9,6,2
1558440959422727,-3,0,3,1,-8,-3,1,-3
1558440959422727,-2,-2,-2,-3,0,-4,-5,-3
1558440959428710,-3,-4,-7,-7,-12,-6,-6,-3
1558440959428710,0,2,3,4,3,5,6,4
1558440959444666,0,-1,2,-3,3,-5,0,4
1558440959444666,0,0,2,-3,-6,-4,-5,-3
1558440959444666,0,-1,-3,-3,-9,1,2,0
1558440959444666,0,1,0,4,3,6,1,-2
1558440959459626,-4,-1,-4,-3,0,2,1,-1
1558440959459626,-1,1,4,0,12,11,6,2
1558440959466607,-3,-4,-1,0,-4,-8,-5,-3
1558440959466607,-2,-2,-6,-8,-8,-4,-6,-3
1558440959482564,-1,-4,-5,-1,-7,-4,-4,-2
1558440959482564,2,1,2,4,2,5,2,2
1558440959497713,-3,-1,-1,1,-2,-2,-2,-2
1558440959497713,-1,-3,-3,-5,0,-8,0,-1
1558440959504535,-1,-2,-3,0,-6,-6,-8,-5
1558440959504535,1,0,-1,4,-5,-7,-4,-1
1558440959505503,-1,1,1,-6,1,5,1,-1
1558440959505503,0,-1,-4,-1,7,2,4,1
1558440959520463,0,-1,-1,3,-8,3,3,2
1558440959520463,-1,-1,-5,-5,0,-1,-3,-2
1558440959526785,0,0,2,3,-2,-2,-5,0
1558440959526785,-1,0,0,1,0,-3,-3,-1
1558440959550419,0,-2,-2,1,5,8,4,0
1558440959550419,-2,-3,-1,-2,-6,-8,-3,-5
1558440959551382,-2,-4,-9,-13,-2,5,3,-1
1558440959551382,-4,-3,3,1,-9,2,-7,-3
1558440959564345,1,-1,-3,-4,3,-2,-2,-1
1558440959564345,0,1,-4,-3,-6,-20,3,2
1558440959565343,-1,0,3,10,2,0,-1,-2
1558440959565343,-1,-2,-2,-5,-2,3,-5,-4
1558440959588317,-3,-3,-3,-5,-4,-3,-7,-3
1558440959588317,-3,-5,-1,3,-6,-11,0,-2
1558440959589281,1,1,1,-3,15,8,6,3
1558440959589281,-1,-1,0,0,-9,-2,0,-1
1558440959602376,1,0,-1,5,9,13,7,1
1558440959602376,-3,-1,0,-5,-9,-3,-7,-3
1558440959609434,-2,0,0,0,-5,-12,-1,-1
1558440959609434,-1,-2,-2,-2,-5,2,-3,-2
1558440959624185,-1,-1,-1,-3,-9,-10,-4,-3
1558440959624185,0,-1,-3,-1,9,7,4,-1
1558440959625196,-1,-2,-1,3,4,8,1,-2
1558440959625196,-1,-1,1,1,1,-1,-2,1
1558440959654112,-1,1,-1,-9,-7,-11,-4,-2
1558440959654112,0,-2,-3,-5,-4,-2,-6,0
1558440959655103,1,1,3,1,-3,5,3,0
1558440959655103,0,-2,0,1,4,-4,2,1
1558440959662084,1,0,4,5,7,8,2,1
1558440959662084,0,1,1,-2,5,9,5,2
1558440959669065,-4,-3,-5,-2,-6,-7,-9,-4
1558440959669065,-2,0,-4,-6,-7,-4,0,-2
1558440959684026,-1,-2,-3,-5,-12,-14,-7,-3
1558440959684026,3,2,2,3,5,14,9,4
1558440959685021,-1,-2,0,2,5,-1,2,-1
1558440959685021,0,-1,-3,-3,4,2,1,-1
1558440959715942,-6,-2,-2,-3,-6,-4,-8,-5
1558440959715942,-3,-2,-1,0,-6,-8,-8,-4
1558440959717231,0,0,-1,-3,5,-3,7,3
1558440959717231,-1,1,2,2,0,-3,0,1
1558440959722922,0,-3,-1,-3,-2,-3,-1,-2
1558440959722922,-2,-1,-4,-3,1,3,0,-1
1558440959729263,0,-2,-1,-3,-9,-3,-4,-4
1558440959729263,-2,-1,2,6,4,11,3,0
1558440959743867,-1,2,5,3,11,7,2,1
1558440959743867,-3,-4,-6,-9,-15,-13,-10,-6
1558440959751977,0,-1,-4,-2,9,0,1,0
1558440959751977,0,0,-1,2,2,-2,0,1
1558440959768058,-1,-3,-5,-3,-2,6,1,-1
1558440959768058,3,2,2,0,5,3,3,2
1558440959768803,-3,0,-2,2,-7,-17,-8,-4
1558440959768803,1,-2,-2,-4,-7,1,-4,-3
1558440959782763,-2,-1,-1,1,4,4,0,1
1558440959782763,0,2,4,7,5,-9,2,2
1558440959788991,-1,-2,-4,-9,-9,3,-2,0
1558440959788991,-3,-3,0,-1,3,-3,-4,-1
1558440959803933,0,-2,-5,-1,-9,-5,-4,-2
1558440959803933,0,0,-2,2,5,9,4,-1
1558440959819889,1,1,1,-1,2,-5,-1,0
1558440959819889,-1,-1,1,-3,-1,-5,-6,-3
1558440959826643,-2,-2,-2,-4,-13,-9,-6,-4
1558440959826643,0,0,1,-4,7,15,7,1
1558440959827641,1,-1,4,0,-2,-3,-3,1
1558440959827641,0,1,-2,1,2,-4,1,-2
1558440959842601,2,1,-1,-1,1,-9,3,0
1558440959842601,-3,-1,-1,-4,-5,1,-1,-3
1558440959848613,-3,-3,-1,-1,2,14,-3,-2
1558440959848613,-3,-2,-1,0,-14,-15,-3,0
1558440959864542,5,4,0,5,22,4,6,4
1558440959864542,-2,-3,-10,-9,-10,-5,-7,-5
1558440959879503,0,-2,-3,0,0,5,0,-2
1558440959879503,-1,-2,-2,-5,1,7,1,-1
1558440959886861,-3,-2,4,4,0,3,2,0
1558440959886861,-2,-1,-5,-7,-8,-6,-9,-5
1558440959887482,0,1,-2,0,0,4,0,-1
1558440959887482,3,1,0,-4,0,-5,3,1
1558440959902440,0,-2,2,1,1,3,4,0
1558440959902440,0,0,3,5,3,1,0,2
1558440959908425,-3,-4,-8,-2,-5,-3,-4,-1
1558440959908425,-1,0,-3,-2,-1,-3,-2,-2
1558440959940339,-2,1,1,1,-1,-6,4,1
1558440959940339,0,0,3,1,1,-5,-1,2
1558440959940339,-1,-2,-1,2,-4,-7,-1,-1
1558440959940339,0,-1,-1,-4,-3,3,2,2
1558440959946324,-3,0,-4,-2,0,8,-6,-3
1558440959946324,-1,0,2,3,0,-6,0,1
1558440959947321,-1,3,3,-2,0,4,2,2
1558440959947321,-4,-3,-6,0,-5,-1,-6,-4
1558440959962618,-2,-1,-2,-7,-10,-7,-8,-4
1558440959962618,2,2,1,2,4,2,7,1
1558440959969528,2,1,3,6,3,-4,-2,0
1558440959969528,-4,-1,-1,-3,-6,-2,-3,-1
1558440959992633,0,-3,-3,-4,-3,-5,0,2
1558440959992633,-2,-3,0,2,-5,1,-1,-2
1558440959992633,-2,0,1,-5,-2,-14,-4,-3
1558440959992633,0,-1,0,0,4,5,1,-4
1558440960007161,0,0,-1,5,0,-16,0,0
1558440960007161,-2,-1,-1,-5,-3,1,0,-2
1558440960007161,1,2,-1,-4,0,3,4,1
1558440960007161,-3,-4,-6,-1,-2,-1,-5,-3
1558440960022158,1,-2,4,-1,-7,-1,-4,-1
1558440960022158,-1,-2,-5,-1,13,12,1,-2
1558440960053493,-5,-3,-2,-3,-8,-5,-5,-4
1558440960053493,2,3,4,6,5,6,8,3
1558440960055032,-2,-3,0,-5,-1,0,-4,-2
1558440960055032,-1,0,3,2,0,-5,2,0
1558440960056396,-2,-1,0,-2,-4,0,-2,-3
1558440960056396,-1,-3,-4,-2,-4,-4,-2,0
1558440960067001,-3,-1,-6,-6,-10,-4,-2,-3
1558440960067001,0,-3,-2,-2,1,12,0,-1
1558440960067001,-1,-1,2,6,6,0,6,-1
1558440960067001,-1,-1,4,0,-3,-8,-3,-2
1558440960082963,-3,-4,-11,-9,-6,1,0,-1
1558440960082963,-1,0,-3,4,4,0,1,1
1558440960088944,0,-1,-3,-2,0,-3,-3,0
1558440960088944,1,-2,2,1,1,-3,2,-1
1558440960105244,-2,-2,-1,1,-4,-6,-7,-4
1558440960105244,0,1,0,-2,-2,0,3,1
1558440960110884,-1,-1,-2,-2,5,7,3,1
1558440960110884,-1,1,-6,-4,-1,-1,2,2
1558440960126923,0,0,3,5,7,10,3,0
1558440960126923,-4,-4,-6,-7,-8,-4,-7,-6
1558440960127839,1,-3,0,0,-2,1,-1,-4
1558440960127839,-2,-3,-1,-2,-9,-9,-4,-4
1558440960142800,0,1,-2,-3,2,6,2,-1
1558440960142800,0,0,1,0,1,-5,2,1
1558440960149096,0,-1,-1,3,-2,-6,-2,2
1558440960149096,-3,-3,-1,-6,-4,-4,-7,-3
1558440960164064,1,-1,-4,-2,1,2,0,-2
1558440960164064,0,-2,-2,-3,-13,-5,-8,-3
1558440960171818,-1,-1,-1,-1,3,-2,-1,1
1558440960171818,1,1,1,1,5,2,3,1
1558440960186683,-3,-1,4,0,1,-7,0,-1
1558440960186683,-1,-1,-2,-2,-5,-1,-2,-1
1558440960203971,0,-1,-1,0,2,0,1,0
1558440960203971,0,0,-1,1,3,2,-1,-2
1558440960204633,-3,-3,-3,2,-2,6,0,-1
1558440960204633,0,1,-1,-2,5,-5,0,0
1558440960216921,-2,-3,-4,-7,-13,-6,-7,-4
1558440960216921,-2,-2,-2,-4,-5,1,-2,-3
1558440960231560,0,-3,-2,-2,-3,0,-2,-2
1558440960231560,1,1,1,-1,7,-4,4,3
1558440960232557,0,2,1,1,4,1,6,1
1558440960232557,-3,-1,-1,1,-6,0,-1,-2
1558440960246522,-1,-2,0,-3,0,3,0,-2
1558440960246522,-1,-1,-4,-5,-15,-6,-5,-4
1558440960247519,-2,-1,-1,3,2,8,1,0
1558440960247519,1,-1,-2,-3,8,5,3,3
1558440960262477,-3,-3,2,1,-5,-14,-7,-1
1558440960262477,-3,-4,-1,-2,-1,3,-2,-3
1558440960268460,2,2,3,1,3,1,6,0
1558440960268460,0,1,0,-1,-2,1,-2,1
1558440960283468,0,3,-2,1,3,5,1,2
1558440960283468,-5,-4,-5,-1,-8,-2,-4,-4
1558440960291401,-1,-1,-3,-6,-1,3,-1,0
1558440960291401,1,1,1,2,7,10,7,3
1558440960306360,0,-2,1,1,4,-3,4,-1
1558440960306360,-1,-2,0,-2,0,-5,-3,-1
1558440960307358,-2,-3,-4,-6,-6,-3,-4,-2
1558440960307358,-1,-3,0,0,-4,-3,-4,-2
1558440960322316,-5,-2,-3,-2,-9,-6,-7,-5
1558440960322316,0,1,4,3,1,-1,2,-1
1558440960328301,0,-1,0,-1,9,1,3,0
1558440960328301,1,-1,-1,1,-1,-2,1,2
1558440960343301,0,-2,-1,-3,-1,-11,0,0
1558440960343301,-2,-4,-4,-4,-8,-4,-8,-5
1558440960351298,-2,0,-1,3,-9,-9,-6,-5
1558440960351298,-3,1,2,1,6,4,-1,-1
1558440960367212,-1,-1,-1,-3,-7,-6,-5,-2
1558440960367212,1,-1,1,3,14,18,8,3
1558440960367212,-3,-3,-1,-3,-5,-2,-3,-2
1558440960367212,0,-2,-2,-4,-2,2,6,-1
1558440960382196,1,0,0,-1,1,3,1,-1
1558440960382196,-2,0,-2,-2,-1,-3,-3,-1
1558440960388142,-5,-4,-2,-4,-9,-8,-6,-5
1558440960388142,-1,2,0,-3,1,-2,-4,-2
1558440960404109,-1,0,1,2,4,-1,-2,1
1558440960404109,0,-2,-5,-2,-1,-1,-2,-2
1558440960419057,-2,-3,-6,-6,-9,-6,-8,-4
1558440960419057,0,0,2,4,5,4,5,2
1558440960434020,2,1,0,-1,-4,-7,-1,0
1558440960434020,1,1,2,-1,5,12,7,1
1558440960435015,3,0,4,0,1,-2,0,0
1558440960435015,-2,-2,-3,0,-4,-2,-3,-1
1558440960442994,-2,-2,-2,-3,-2,1,-2,-2
1558440960442994,-5,-2,3,0,-4,-12,-4,-1
1558440960448979,0,1,1,6,8,15,8,2
1558440960448979,-2,-3,-2,-8,-7,-10,-8,-3
1558440960463938,-1,1,0,-5,-2,-1,-1,-1
1558440960463938,0,-1,-3,4,3,0,8,4
1558440960470920,-1,2,2,2,2,2,-2,-1
1558440960470920,-1,-2,-3,-1,-3,-2,-3,-4
1558440960486876,0,-3,0,-2,1,1,1,-1
1558440960486876,-1,0,0,4,4,2,-2,-2
1558440960487875,-2,0,-1,-10,-10,-6,-1,0
1558440960487875,-1,-1,-4,-3,2,-6,2,3
1558440960502834,-1,0,2,2,1,1,0,0
1558440960502834,2,1,2,1,0,-1,-1,-1
1558440960508820,0,0,-1,0,6,10,4,0
1558440960508820,-2,-3,-4,-5,-11,-7,-9,-6
1558440960523778,-1,0,0,1,-1,1,2,-2
1558440960523778,-2,-2,-2,-4,-2,-8,-7,-1
1558440960547713,-2,-1,-1,0,-11,-15,-7,-1
1558440960547713,-2,1,0,1,0,7,1,-2
1558440960549709,-2,2,0,0,10,7,5,3
1558440960549709,0,1,2,-2,-8,-15,-6,-1
1558440960550706,0,-1,-1,1,3,4,-2,-2
1558440960550706,-3,-4,-5,-3,-4,-2,-4,-2
1558440960562673,0,-3,-4,-4,-2,-1,-4,-2
1558440960562673,-4,-3,-7,-6,-13,-8,-7,-5
1558440960568657,-1,-2,1,-1,-2,-3,-6,-1
1558440960568657,0,1,2,0,8,16,10,2
1558440960583617,2,4,5,7,16,1,11,4
1558440960583617,-1,-2,-2,-1,-4,-6,-4,-2
1558440960599575,1,-2,-5,-6,-6,-17,-2,0
1558440960599575,-2,-4,-3,-1,-13,-12,-15,-7
1558440960606556,1,-3,-4,-2,0,14,0,0
1558440960606556,2,0,-1,-3,1,2,3,-1
1558440960607554,0,1,1,-1,4,4,4,-2
1558440960607554,-1,0,-2,3,1,-7,0,1
1558440960622515,-2,0,0,-1,-5,-12,-2,1
1558440960622515,1,1,0,2,5,8,0,-1
1558440960628498,0,-3,-3,-2,-5,-3,-4,-2
1558440960628498,-1,-3,-1,-1,-5,-2,0,0
1558440960643458,-1,-3,-1,-1,0,4,-2,-3
1558440960643458,-3,-1,2,2,-1,-4,1,-1
1558440960659415,-2,1,3,0,6,-2,-3,-2
1558440960659415,1,2,-3,-5,0,-4,-2,-2
1558440960666397,-2,-2,-3,-2,-3,3,-1,-3
1558440960666397,-1,-1,0,1,0,-1,3,2
1558440960673377,3,2,-1,4,8,4,6,6
1558440960673377,-1,-2,5,1,0,-4,-2,-2
1558440960682353,-3,-2,-5,-6,-9,1,-6,-4
1558440960682353,-3,-3,-3,-1,-1,1,-1,-2
1558440960688338,-1,1,1,-2,-1,-5,-1,-1
1558440960688338,1,-1,-1,0,6,5,4,3
1558440960721250,0,0,-2,2,1,-4,-2,-1
1558440960721250,-3,-3,-1,-5,-5,0,-2,-3
1558440960722247,0,-1,-2,0,0,3,2,2
1558440960722247,-1,-1,-1,3,-1,-8,-4,0
1558440960726237,-2,-4,-1,-2,-6,-1,-5,-3
1558440960726237,0,1,-1,-4,-1,-2,-3,0
1558440960733217,-1,-1,-3,-2,-3,0,-1,-3
1558440960733217,0,1,0,3,3,5,5,1
1558440960742194,0,2,-1,-3,-2,-2,1,-2
1558440960742194,-2,-2,-5,-5,-5,-4,-5,-4
1558440960748177,-2,-3,0,-2,-4,0,-3,-2
1558440960748177,-2,-1,-1,-1,3,2,0,1
1558440960773111,-3,-2,1,-1,-1,-4,1,1
1558440960773111,-2,-2,-4,1,-4,-1,-3,-1
1558440960774108,-2,1,1,1,2,1,0,-1
1558440960774108,-2,-2,-3,-5,-14,-9,-7,-3
1558440960786076,2,0,2,3,1,4,4,2
1558440960786076,2,0,4,3,8,-3,0,3
1558440960794055,-1,-4,-6,-4,-4,-3,0,-2
1558440960794055,-1,1,1,-4,-4,-3,-5,-3
1558440960802034,-2,-3,-2,-3,-10,-10,-6,-4
1558440960802034,1,0,2,0,9,14,4,1
1558440960824972,-3,0,1,-1,0,4,-4,-4
1558440960824972,1,-2,-2,-1,3,7,3,-1
1558440960831954,0,0,-3,-4,-1,-2,-1,0
1558440960831954,0,-2,-2,-4,-4,-7,-3,1
1558440960832951,0,-1,0,1,5,6,4,1
1558440960832951,-2,1,-3,2,-2,-4,1,0
1558440960845916,-2,0,-2,-1,2,0,-2,0
1558440960845916,-2,-1,-3,-5,-13,-7,-7,-5
1558440960853894,0,-1,1,5,12,-9,-1,3
1558440960853894,0,-1,-2,-1,4,-1,2,1
1558440960868856,0,-1,0,0,7,4,3,1
1558440960868856,-3,-1,-4,0,-4,1,-1,-2
1558440960869851,-3,-3,-2,-5,-15,-5,-11,-5
1558440960869851,-4,-3,-1,-6,-4,0,-5,-4
1558440960883815,0,1,1,-3,-7,-9,-4,0
1558440960883815,1,0,3,5,17,5,4,2
1558440960890808,-2,0,-2,-2,-2,4,0,0
1558440960890808,0,-4,0,-2,-1,-4,-2,0
1558440960905757,-1,0,1,2,-5,-1,-6,-3
1558440960905757,-1,-2,-2,-4,0,1,2,-1
1558440960913734,1,0,-4,-2,2,-3,8,3
1558440960913734,-3,-1,1,3,-2,-4,0,-1
1558440960929695,-3,-4,-1,3,4,1,-5,-3
1558440960929695,-1,-2,-6,-7,-6,4,1,-2
1558440960929695,-4,-2,0,-3,-6,-10,-8,-3
1558440960929695,-1,0,-7,-1,6,12,6,4
1558440960951668,1,1,1,0,-1,-3,4,0
1558440960951668,0,-1,-2,-2,-2,-5,-2,-3
1558440960952631,-4,-4,-4,-1,-9,6,-1,-4
1558440960952631,-3,0,3,-2,-5,-11,-6,-2
1558440960965596,2,0,-2,1,10,7,5,3
1558440960965596,-2,-1,0,2,-4,-5,-4,-1
1558440960990529,-1,1,1,-6,-7,-1,-1,-1
1558440960990529,-1,-2,-2,-1,-4,4,-2,-4
1558440960992524,0,-2,-1,0,-1,-2,2,1
1558440960992524,1,1,0,0,9,4,2,4
1558440960992524,1,-2,-3,1,6,3,4,1
1558440960992524,0,-1,1,-4,-1,-8,-5,-5
1558440961003495,-2,-2,-4,-2,-17,-8,-11,-3
1558440961003495,-1,0,2,0,10,9,12,3
1558440961011474,-2,-2,-1,-5,-6,-7,-4,-1
1558440961011474,-1,-1,1,5,12,15,8,2
1558440961026433,0,0,0,-4,6,-4,-3,1
1558440961026433,-1,-2,1,-2,-12,-3,-4,-2
1558440961041393,-3,0,0,5,8,2,-1,-1
1558440961041393,-2,0,-5,-7,-11,-11,-1,-2
1558440961049372,-1,0,0,-2,6,13,4,1
1558440961049372,-4,-2,-3,-3,-4,-7,-7,-4
1558440961050369,1,0,2,4,-5,-3,-2,-1
1558440961050369,0,0,4,2,9,0,2,1
1558440961063335,-1,-1,1,1,2,1,4,-1
1558440961063335,1,-2,-5,2,0,2,-3,-2
1558440961071314,-3,-4,-2,-6,-10,-8,-10,-5
1558440961071314,0,0,-3,-2,-4,-2,-5,0
1558440961095250,0,1,-5,-4,6,12,10,1
1558440961095250,-2,1,3,4,-3,-3,1,0
1558440961096247,-1,-3,-4,-5,3,-3,-3,-2
1558440961096247,0,-2,1,1,-3,-4,-2,-2
1558440961109212,-2,-2,0,5,-2,-7,-4,-4
1558440961109212,-2,-2,1,-7,-4,-2,-6,-3
1558440961110209,-1,0,-4,-2,-6,-1,-2,-2
1558440961110209,-3,0,-2,1,4,7,2,0
1558440961123174,0,-1,-1,-2,-5,-8,1,1
1558440961123174,1,-1,1,3,1,-9,0,2
1558440961131153,-1,1,1,5,8,11,2,1
1558440961131153,-1,-2,-6,-2,-8,-3,-5,-1
1558440961162072,-3,-4,-5,-9,-12,-5,-9,-5
1558440961162072,-1,-4,-5,-3,0,1,6,2
1558440961163068,3,1,5,3,11,3,8,2
1558440961163068,1,-2,0,-2,-1,2,-1,-2
1558440961169053,-2,-2,-1,1,0,1,-5,-4
1558440961169053,-4,-3,-5,-8,-10,0,-10,-5
1558440961170050,0,0,-2,-1,-7,-6,3,3
1558440961170050,0,3,7,3,19,9,6,1
1558440961185010,-1,-2,-10,-7,-8,-12,-6,-3
1558440961185010,1,-1,-2,8,3,2,4,2
1558440961190992,-7,-4,-3,-10,-10,-4,-5,-6
1558440961190992,-3,-4,-3,-5,-12,-15,-9,-3
1558440961215928,1,1,6,6,9,4,2,3
1558440961215928,2,1,6,1,7,6,2,-1
1558440961215928,2,1,1,-1,-5,-4,-2,-1
1558440961215928,-1,0,-3,1,-5,-8,-3,-1
1558440961228891,-1,-2,-7,-8,-3,6,4,1
1558440961228891,-1,0,-2,0,-6,-7,-9,-5
1558440961229888,1,-1,0,-3,4,12,7,2
1558440961229888,0,0,3,-6,-1,-2,2,0
1558440961244849,-1,2,1,6,1,3,-3,-3
1558440961244849,-1,-3,-7,-12,-4,-9,-4,-2
1558440961258811,-1,-1,2,7,3,-3,3,4
1558440961258811,-1,-3,-2,-2,0,1,-4,0
1558440961265793,0,0,4,1,-4,-4,0,0
1558440961265793,-3,-2,-2,3,-10,-5,-6,-2
1558440961273773,0,0,0,1,3,-2,-5,-3
1558440961273773,-1,-3,-4,-13,-9,-5,-2,-1
1558440961289731,1,0,0,4,13,2,5,1
1558440961289731,-2,0,-4,-4,-3,0,2,1
1558440961289731,-1,-3,-5,-4,3,2,-1,-2
1558440961289731,-3,0,-1,3,0,-2,-3,-2
1558440961305072,-1,0,1,-2,-11,-9,-6,-1
1558440961305072,-3,-2,2,2,3,8,6,1
1558440961310675,2,2,1,-3,5,7,4,0
1558440961310675,-1,0,-1,1,2,-9,0,0
1558440961326673,-4,-1,1,-4,-5,-1,-7,-4
1558440961326673,2,1,2,1,12,3,4,1
1558440961333799,-1,-4,1,5,-9,1,-3,-2
1558440961333799,3,0,-1,5,8,7,4,1
1558440961349869,-2,-4,-2,-6,-5,-3,-3,0
1558440961349869,-1,0,-1,0,-1,1,-1,0
1558440961349869,-4,-3,-8,-1,-7,-9,-5,-2
1558440961349869,-1,2,3,-2,3,10,1,-2
1558440961364836,-2,-2,-4,-2,-1,-8,-4,-3
1558440961364836,-1,0,4,1,-6,3,-3,-2
1558440961371832,-1,1,0,-3,5,2,0,1
1558440961371832,0,0,2,-2,-2,-3,5,2
1558440961386470,0,2,-2,0,8,-3,2,3
1558440961386470,0,0,1,-3,1,-3,-4,-1
1558440961393452,1,-2,1,-1,-3,6,-2,-2
1558440961393452,-3,-5,-8,-3,-11,-2,-6,-5
1558440961409410,-1,0,3,2,4,4,2,1
1558440961409410,-3,-3,-8,-7,-5,-5,-1,-1
1558440961410408,0,0,3,4,0,-7,-1,1
1558440961410408,1,1,2,1,3,9,2,1
1558440961425366,-3,-3,0,-5,-7,-4,-3,-3
1558440961425366,-2,-2,-4,-4,-3,1,0,-3
1558440961431351,-2,-2,-1,1,-2,-9,-2,-1
1558440961431351,-2,-3,-4,-3,-7,-3,-4,-5
1558440961446310,-3,-2,-3,-4,-6,-1,-4,-3
1558440961446310,5,3,9,5,11,-24,7,8
1558440961453292,-4,-4,-8,3,-7,8,2,-2
1558440961453292,-1,1,-2,-3,1,-2,0,1
1558440961469249,-1,-2,-1,-4,2,1,1,1
1558440961469249,-4,-2,-3,2,-3,8,-2,-4
1558440961470246,-3,1,0,-4,0,-9,-3,1
1558440961470246,-1,-2,0,2,2,2,0,-1
1558440961485206,-2,-2,-3,-1,-11,-6,-7,-4
1558440961485206,0,2,3,0,2,-2,3,4
1558440961491190,1,0,3,5,7,7,4,0
1558440961491190,-5,-3,-4,-4,-5,1,-2,-4
1558440961506149,1,0,-2,-3,4,5,3,1
1558440961506149,-2,-1,-4,-4,-7,-5,-7,-4
1558440961513132,-3,-1,-4,-7,-8,-4,-7,-1
1558440961513132,1,1,7,7,-2,-11,-2,2
1558440961529089,-1,0,0,0,7,-1,2,1
1558440961529089,-2,-2,0,-1,-5,-5,-8,-4
1558440961530087,-1,-3,-2,-3,2,7,2,-2
1558440961530087,-1,-1,-6,-2,4,8,4,-1
1558440961545046,0,-1,0,0,-3,-3,1,-2
1558440961545046,-1,-1,-4,-3,-4,-2,-4,-4
1558440961551031,-1,0,2,-1,0,5,1,-4
1558440961551031,-4,-4,-5,-5,-1,-11,-3,-1
1558440961565991,-1,-2,1,-2,3,-2,-3,2
1558440961565991,2,1,4,7,11,15,8,4
1558440961573969,-2,0,-1,-5,-8,-5,-5,-3
1558440961573969,-2,1,-2,-2,6,12,2,-2
1558440961588929,-1,-2,-1,4,-3,-6,-4,-4
1558440961588929,-3,-5,-8,-7,-8,-1,-5,-4
1558440961595912,1,-1,-1,-2,-3,-2,1,-1
1558440961595912,0,0,2,3,-4,-15,-1,2
1558440961604886,0,1,0,0,1,-2,0,1
1558440961604886,-1,1,1,-1,2,2,0,-1
1558440961610874,-2,-1,-5,-6,-2,-3,-1,-2
1558440961610874,-1,-3,0,2,-2,-4,-2,-1
1558440961625831,0,-2,-1,-6,-8,-4,-3,-3
1558440961625831,2,1,-1,1,1,4,3,-2
1558440961633810,0,1,2,2,0,-6,0,0
1558440961633810,-2,-5,-3,-6,-5,0,-6,-4
1558440961648768,-2,0,-6,-2,2,1,2,1
1558440961648768,-2,-4,0,-3,-5,1,-2,0
1558440961655750,1,-1,1,3,0,-1,0,1
1558440961655750,-2,1,2,3,3,4,3,1
1558440961664727,-2,-1,0,-4,0,1,-1,-3
1558440961664727,-4,-2,-1,-4,-11,-4,-8,-6
1558440961670710,-1,-3,-9,-6,-5,-12,-4,-2
1558440961670710,4,-1,3,2,4,2,5,5
1558440961685670,-2,-1,-2,1,1,3,0,0
1558440961685670,1,1,2,0,0,-9,-1,0
1558440961702626,-3,-3,-3,-4,-3,2,-2,-3
1558440961702626,-2,0,-2,-1,-8,-7,-7,-4
1558440961709605,-1,-2,2,1,-1,6,-3,-3
1558440961709605,-1,-3,-3,-2,0,3,1,0
1558440961715591,0,-1,1,0,3,-13,-1,3
1558440961715591,0,-1,-5,0,3,4,3,1
1558440961724567,-1,1,0,-3,-6,-15,-4,0
1558440961724567,-1,0,0,-1,0,2,-4,-4
1558440961730551,0,-1,-3,1,-2,4,0,-1
1558440961730551,-2,-1,0,-3,3,3,0,0
1558440961746517,-2,-5,-3,-4,-5,0,-5,-4
1558440961746517,-1,-2,1,8,0,-4,3,5
1558440961754743,2,3,5,-4,21,16,9,6
1558440961754743,-1,1,0,-4,-4,-4,-3,-4
1558440961768448,-2,1,-3,-1,-1,2,2,-2
1558440961768448,-3,-1,-4,-1,2,-9,-2,-1
1558440961776429,-3,-3,-2,-4,-12,-4,-7,-6
1558440961776429,0,0,3,1,-1,7,3,0
1558440961791387,2,1,-2,2,3,-4,-2,1
1558440961791387,-2,-4,1,-2,-9,-6,-10,-6
1558440961792385,3,2,3,3,11,7,9,5
1558440961792385,-1,-2,-6,1,2,3,-1,0
1558440961806348,-2,-1,1,2,1,3,0,-1
1558440961806348,-1,-2,-4,-4,-4,2,1,-1
1558440961813329,-3,-3,-1,-3,-7,-10,-6,-5
1558440961813329,-4,-4,-3,-3,-7,-9,-13,-6
1558440961828289,-2,-4,0,-4,-6,-1,2,-2
1558440961828289,3,3,3,3,16,15,9,5
1558440961836272,0,1,6,9,18,9,2,1
1558440961836272,-1,1,-5,-7,-6,0,0,-1
1558440961851228,0,1,-1,-4,-3,-14,-1,-1
1558440961851228,-2,-3,-15,-12,-15,-19,-9,-2
1558440961852224,-3,-3,-2,0,-8,-2,-3,-3
1558440961852224,2,-1,2,4,5,-2,-1,1
1558440961867185,-4,-3,-1,-2,-3,6,-5,-3
1558440961867185,-2,-1,1,1,-3,3,-1,-2
1558440961873170,8,4,8,6,18,6,18,12
1558440961873170,1,0,0,-1,6,2,0,-1
1558440961888129,-1,0,-1,0,-3,3,1,1
1558440961888129,-1,-1,0,-2,1,-1,-3,-2
1558440961896112,-4,-6,-8,-8,-19,-12,-14,-9
1558440961896112,-3,-4,-1,-2,-16,-11,-8,-5
1558440961912065,2,1,2,5,13,7,8,6
1558440961912065,0,-1,2,0,-1,-4,-2,0
1558440961912065,-1,-2,3,3,11,10,4,0
1558440961912065,0,1,-10,-9,-8,-14,-2,1
1558440961926027,-2,-1,-5,0,1,0,-4,-3
1558440961926027,-3,-2,-3,-8,-6,-3,-4,-2
1558440961934006,-2,-1,-1,1,-13,-8,-7,-4
1558440961934006,-1,-1,4,1,-4,1,-2,1
1558440961948967,0,0,1,-1,1,-3,1,0
1558440961948967,-2,-2,-2,3,10,7,6,1
1558440961955951,-1,-1,-1,0,0,0,-4,-2
1558440961955951,2,0,2,2,1,7,0,0
1558440961972904,-1,0,-2,-5,-3,-3,-1,-1
1558440961972904,-1,1,2,2,-2,-4,-3,-2
1558440961973901,-2,-3,-7,-10,-9,-10,-8,-5
1558440961973901,-1,0,5,3,1,5,5,1
1558440961985867,1,0,5,5,11,13,3,2
1558440961985867,0,-1,-5,-10,1,-2,-2,-1
1558440961993847,-4,-2,-6,-4,-15,-14,-7,-3
1558440961993847,-3,-2,1,2,8,7,1,-1
1558440962008812,-1,-3,0,2,-2,0,1,-1
1558440962008812,-2,1,5,3,0,-5,0,-1
1558440962015790,3,-1,-1,-8,-5,-3,-2,-2
1558440962015790,-1,1,-1,2,1,2,2,2
1558440962039726,0,0,-3,-3,3,-3,-2,0
1558440962039726,-1,-2,-3,2,-2,9,4,-1
1558440962040721,-5,-2,-4,2,2,3,3,2
1558440962040721,-3,0,0,1,0,-6,-4,-3
1558440962045708,0,-2,-1,-6,-8,-2,-5,-2
1558440962045708,2,1,0,4,5,7,3,2
1558440962053690,-1,-1,-1,-2,-1,-1,-3,-2
1558440962053690,-1,-2,-5,-9,-5,-6,0,-1
1558440962068647,-2,-1,0,0,-7,-5,-2,-2
1558440962068647,-3,-4,-3,-2,-4,-6,-6,-4
1558440962084604,-1,-3,1,0,-4,0,-2,-2
1558440962084604,3,2,5,4,6,-3,6,3
1558440962091586,0,1,0,2,-1,-6,-1,-1
1558440962091586,0,-1,3,1,7,7,1,-1
1558440962092585,0,1,-5,-7,-2,1,1,-2
1558440962092585,-3,-4,-7,-4,-10,-7,-8,-6
1558440962106544,-1,-1,1,1,-6,0,1,0
1558440962106544,0,0,-1,-1,5,1,-1,0
1558440962113526,1,0,-1,4,6,8,2,-1
1558440962113526,-2,-2,-5,-6,-10,-12,-7,-2
1558440962128487,2,-1,0,-1,12,6,7,2
1558440962128487,0,0,1,-2,-4,-3,-1,-2
1558440962136464,-3,-2,0,3,-1,-5,-7,-2
1558440962136464,-1,-4,2,-2,-3,3,-1,-1
1558440962151428,0,0,-2,0,-6,2,2,0
1558440962151428,-1,-1,0,1,8,2,2,0
1558440962152423,2,1,1,-3,0,2,4,0
1558440962152423,0,0,1,0,0,-6,-4,-2
1558440962166384,-1,-3,-7,-3,-7,-7,-4,-3
1558440962166384,-1,0,-1,0,1,4,1,1
1558440962173366,-3,-3,0,-2,-4,0,-3,-2
1558440962173366,-2,0,-2,0,4,7,-2,-3
1558440962188326,-1,-1,5,5,-2,-10,2,0
1558440962188326,-1,1,-1,-6,-1,-1,-1,-1
1558440962196310,1,0,3,1,2,1,0,0
1558440962196310,0,1,-3,-1,3,7,1,-2
1558440962212265,-1,-4,-3,-5,-6,-6,-7,-3
1558440962212265,-1,-2,1,3,2,1,5,0
1558440962212265,-1,1,-1,0,1,8,4,3
1558440962212265,0,-1,3,3,7,-1,-1,-1
1558440962226224,-1,-2,-4,-5,-8,-2,-5,-2
1558440962226224,1,0,-1,-2,2,-7,-4,-1
1558440962233207,-3,-2,-1,1,-5,-7,-2,-2
1558440962233207,-2,0,-2,-2,2,6,5,2
1558440962266118,-3,1,-1,-1,1,-8,-3,-1
1558440962266118,-4,-4,-3,1,-8,4,0,-4
1558440962267116,0,0,-2,-2,5,-3,1,0
1558440962267116,1,-2,-1,-1,-2,-2,1,-2
1558440962272104,-1,-2,0,1,5,7,0,0
1558440962272104,2,0,1,1,-2,1,-3,1
1558440962272104,1,1,0,-3,0,0,-2,-1
1558440962272104,-3,-3,-6,-4,-3,-2,-3,-2
1558440962286065,-4,-1,1,0,-2,-3,-2,-3
1558440962286065,0,-2,-1,-3,-2,-6,-3,0
1558440962294047,0,-1,-1,5,0,3,2,-1
1558440962294047,1,-1,-2,-7,3,3,-1,-1
1558440962317000,-1,0,1,-4,0,3,0,-2
1558440962317000,-2,-4,-2,-3,-12,-8,-4,-4
1558440962317000,-4,-5,-6,-2,-1,0,-2,-3
1558440962317000,-3,-1,1,4,-2,-3,1,0
1558440962331944,1,0,0,1,4,7,0,2
1558440962331944,-2,-1,3,-2,-4,-2,-3,0
1558440962331944,0,-4,-7,-3,-5,-6,-5,-3
1558440962331944,-1,-1,-1,-1,-2,-7,-1,-2
1558440962345905,-2,0,-2,-2,-2,-5,-3,-2
1558440962345905,0,-1,1,2,2,-1,1,0
1558440962353883,-5,0,-3,-4,1,-2,-2,-2
1558440962353883,2,1,6,1,-2,6,-2,-1
1558440962369841,2,-1,-10,-1,-9,-5,-2,-2
1558440962369841,1,1,-7,-4,-3,-8,0,0
1558440962375825,-3,0,3,-3,2,1,1,1
1558440962375825,-1,-2,3,3,0,-3,1,0
1558440962391783,-3,-3,-1,-2,-7,0,-7,0
1558440962391783,-2,-2,-1,0,8,10,5,1
1558440962392780,1,0,3,-1,3,-2,2,1
1558440962392780,2,2,0,6,-7,-10,-5,0
1558440962405755,1,0,3,-5,5,6,1,-2
1558440962405755,-2,-2,-10,-4,-6,-3,-4,-3
1558440962413727,-3,-3,-2,-4,-7,1,-1,-2
1558440962413727,-2,0,3,-1,-1,-7,-2,1
1558440962428686,-2,-2,5,3,5,2,1,0
1558440962428686,-1,0,0,2,3,2,5,1
1558440962435666,-2,-3,-6,1,3,6,0,-2
1558440962435666,-3,-3,-4,-5,-10,-11,-8,-4
1558440962451622,-1,1,1,-2,-2,-7,2,-1
1558440962451622,0,-1,-6,-4,0,-3,-3,-2
1558440962452619,-1,-3,-2,-4,-4,2,1,0
1558440962452619,0,-1,1,-1,5,6,2,0
1558440962465584,-2,-3,0,3,-1,2,-2,-3
1558440962465584,-3,-2,1,0,0,2,4,1
1558440962473562,1,1,1,0,-1,-5,-2,0
1558440962473562,-3,-2,0,0,6,12,0,-2
1558440962488522,-1,0,-3,-2,-5,-9,-4,0
1558440962488522,0,2,5,-1,-1,-1,-4,-2
1558440962496502,0,-4,-9,-5,-7,-8,-7,-3
1558440962496502,2,1,2,0,0,-1,1,2
1558440962511463,-2,2,4,4,10,7,5,0
1558440962511463,-3,-4,-10,-6,-9,-6,-3,-4
1558440962512462,-2,-3,3,-4,-3,-4,-3,-1
1558440962512462,0,-4,-5,-3,-2,0,0,-2
1558440962527421,0,-2,-3,-7,1,-1,3,1
1558440962527421,-1,-1,5,2,-8,-9,-3,-2
1558440962533426,-2,2,-2,6,3,1,-3,-2
1558440962533426,-3,-3,-1,1,2,5,2,-2
1558440962548368,-2,-2,2,3,1,-2,-2,-2
1558440962548368,-1,0,8,1,2,0,0,-1
1558440962556343,0,0,0,-4,3,-1,-2,1
1558440962556343,-1,-1,-5,1,-7,-6,-4,-3
1558440962571301,0,-2,-5,1,-3,-5,2,1
1558440962571301,-1,0,-1,-6,-4,-4,-3,0
1558440962579280,0,-2,-4,0,-5,-4,2,-2
1558440962579280,-1,0,-1,-2,9,8,5,3
1558440962586285,-1,-2,-3,-4,-4,1,-4,-3
1558440962586285,-3,-2,-6,-1,-5,-5,-5,-3
1558440962593244,0,0,0,-1,-7,-8,-6,-1
1558440962593244,0,0,2,4,8,9,2,-1
1558440962608203,0,-3,-6,-5,-11,-4,-3,-1
1558440962608203,2,1,2,1,9,12,2,0
1558440962616181,1,2,5,5,5,6,6,1
1558440962616181,-1,-1,-1,-1,-6,-9,-6,-2
1558440962648099,-2,0,0,-2,-1,5,-3,-2
1558440962648099,0,0,0,-4,-8,-5,-2,0
1558440962649094,1,0,0,5,3,2,0,1
1558440962649094,0,1,-1,-6,-3,-6,-2,-2
1558440962650094,-2,1,-1,0,4,-1,2,0
1558440962650094,-3,-1,-2,3,-4,-1,-2,0
1558440962654083,-3,-2,0,-6,-7,-9,-4,-3
1558440962654083,-3,-5,-6,-4,-3,0,-2,-2
1558440962669040,2,1,2,8,-1,4,2,2
1558440962669040,0,3,3,3,15,9,6,1
1558440962676024,-2,-3,-1,-7,-4,-5,-1,0
1558440962676024,-3,-1,-3,-5,-9,-8,-9,-3
1558440962699957,-1,2,2,1,-5,-2,-6,-4
1558440962699957,-2,-7,-8,-4,-6,-5,-4,-2
1558440962700954,-1,0,-1,2,5,12,3,0
1558440962700954,1,-3,-1,1,-2,-12,-1,3
1558440962705942,-2,0,2,-2,5,5,3,1
1558440962705942,-2,-2,-2,-4,-3,4,1,-1
1558440962713920,-2,-1,-3,-2,1,-6,-2,0
1558440962713920,0,1,0,2,-7,3,1,-1
1558440962728880,-3,-3,-4,-2,0,-4,-3,-6
1558440962728880,2,1,3,5,7,7,4,2
1558440962735861,-1,-3,-2,-3,-3,1,-1,-3
1558440962735861,-1,3,4,3,1,7,1,-2
1558440962759797,-2,-3,-6,-9,-7,-6,-5,0
1558440962759797,-1,-1,-2,1,-1,-10,-5,0
1558440962760797,1,-2,2,2,1,-2,-1,-1
1558440962760797,-1,-3,0,0,1,4,1,0
1558440962773759,-3,0,-1,2,3,0,2,-1
1558440962773759,-1,-2,2,2,-1,-7,-2,0
1558440962774757,-1,-2,-4,-8,-11,-7,-5,-5
1558440962774757,-2,-3,-1,0,2,1,-2,-1
1558440962788723,2,1,1,1,5,-4,3,3
1558440962788723,0,-2,-1,-6,-7,-5,-5,-2
1558440962803680,-2,0,2,1,0,-1,2,1
1558440962803680,-2,0,1,3,3,0,3,0
1558440962812657,-2,-1,-9,-6,-4,-3,0,1
1558440962812657,1,1,3,0,0,-1,0,-3
1558440962819638,1,0,-1,1,-9,-4,-9,0
1558440962819638,1,0,-1,-1,0,4,-2,0
1558440962834596,1,-1,5,6,3,-4,4,1
1558440962834596,-2,-3,-6,-5,1,-2,0,-1
1558440962834596,-4,-3,-3,-4,-2,5,0,-3
1558440962834596,-1,-1,1,1,-2,-6,-2,1
1558440962848565,0,0,3,0,-4,-8,-8,-5
1558440962848565,-3,-2,-5,-1,-9,6,-2,-3
1558440962856539,0,0,3,2,3,0,1,0
1558440962856539,0,0,-2,2,1,-7,2,0
1558440962871498,-2,-1,-3,-9,-1,3,-2,-2
1558440962871498,-1,-3,0,-5,-7,-7,-5,-4
1558440962879479,-1,0,2,2,5,10,4,0
1558440962879479,0,0,-1,2,-1,-13,-1,0
1558440962894470,0,-2,0,4,5,7,-2,0
1558440962894470,-2,-2,-10,-15,-10,2,2,0
1558440962895435,-1,0,-8,-3,5,2,2,0
1558440962895435,-3,-4,-1,-4,-6,-9,-5,-2
1558440962908402,1,2,3,3,3,2,0,0
1558440962908402,-1,-2,1,4,-1,-5,-3,-1
1558440962924357,0,-1,3,2,-1,3,5,0
1558440962924357,-2,0,0,-2,-3,5,-2,-2
