timestamp,emg1,emg2,emg3,emg4,emg5,emg6,emg7,emg8
1558441012783938,-1,-3,-8,-16,-11,-5,-4,-6
1558441012783938,-1,-2,-2,12,-5,-3,-3,-3
1558441012784935,0,-2,-5,-7,0,1,-2,-2
1558441012784935,1,0,-1,-10,0,3,3,-2
1558441012784935,-1,0,5,15,-5,-8,-5,-1
1558441012784935,-1,-1,-2,-5,0,2,-2,0
1558441012785932,1,2,-1,-9,3,11,9,4
1558441012785932,1,0,-1,5,6,-1,1,1
1558441012796905,-3,-3,-4,-1,-3,-1,-2,-2
1558441012796905,-2,-2,1,-8,0,-1,0,1
1558441012805879,-1,-3,-1,1,-6,-7,-4,-4
1558441012805879,-2,-2,-5,4,-9,-11,-7,-1
1558441012813858,-2,1,4,-2,8,5,4,3
1558441012813858,-2,0,-5,-10,-4,-1,-4,-1
1558441012827821,0,-3,-2,9,1,0,-1,-1
1558441012827821,-1,-1,-2,-2,-5,-5,-1,-1
1558441012835799,-1,-4,-5,-14,-1,-1,-1,-2
1558441012835799,2,-1,1,4,2,1,1,-2
1558441012841782,-4,-3,-6,-3,-6,0,-6,-2
1558441012841782,-2,-3,1,-4,0,-3,-1,-4
1558441012856743,2,2,2,6,5,-1,6,2
1558441012856743,0,1,6,10,6,2,6,0
1558441012865719,-1,-3,-5,-10,-4,-5,-1,-2
1558441012865719,-1,-2,-2,-4,-1,6,-2,-2
1558441012905612,-2,0,2,19,-2,-3,-5,0
1558441012905612,-2,2,3,2,2,5,-1,2
1558441012905612,-1,-2,-4,-13,2,1,0,0
1558441012905612,2,1,2,14,-2,-1,3,1
1558441012906610,-1,-1,-4,-11,-10,-14,-5,-2
1558441012906610,-1,-1,-3,-8,-6,-7,-5,-4
1558441012911596,0,1,4,5,6,11,10,2
1558441012911596,-3,-1,2,7,2,8,0,-2
1558441012916582,-2,-1,0,-5,1,2,3,-2
1558441012916582,0,-1,-4,-5,0,-9,-2,-3
1558441012924561,-2,-3,-2,7,-5,-8,-11,-3
1558441012924561,-2,-1,-2,-3,-4,2,1,1
1558441012933537,-1,-1,0,-10,5,-4,2,0
1558441012933537,1,-1,-1,4,-3,-4,-1,-1
1558441012955478,-3,-3,-3,1,-7,-3,-4,-5
1558441012955478,0,0,1,-9,-2,0,-2,-1
1558441012957473,-3,-1,1,4,3,5,3,-1
1558441012957473,0,-2,0,6,1,6,1,0
1558441012961462,-1,1,3,1,-1,-2,-2,-1
1558441012961462,1,-1,-1,-6,-4,-6,-3,0
1558441012978417,-2,-3,-6,0,-1,1,-2,-1
1558441012978417,0,0,2,0,1,1,2,-1
1558441012984400,0,-2,-3,-7,-4,-4,-1,-3
1558441012984400,-2,-2,-2,3,-5,-7,-3,-4
1558441012993378,2,2,6,2,8,15,5,3
1558441012993378,0,-2,-1,0,-2,1,-2,-2
1558441013007340,-2,0,-2,-4,-2,0,-2,-2
1558441013007340,-1,-2,-3,-2,0,-5,-1,0
1558441013014322,0,0,-1,-3,-2,-8,-3,1
1558441013014322,-4,-2,-2,-1,-3,5,2,-2
1558441013022301,0,-1,4,6,5,-6,0,1
1558441013022301,-3,-1,-1,-5,0,-5,-4,-1
1558441013037259,1,-1,-6,-5,0,3,-4,-3
1558441013037259,-2,-1,-3,3,-5,-6,-4,-3
1558441013044243,1,-1,0,0,0,7,2,2
1558441013044243,0,-1,2,1,13,14,4,-1
1558441013053217,0,1,-2,3,-3,-1,1,0
1558441013053217,-2,1,-3,-6,-3,-6,-6,-2
1558441013067179,-1,0,-2,-3,-1,-6,0,-2
1558441013067179,-1,-1,-4,-3,-3,-7,-4,-2
1558441013074161,-3,-2,-4,0,-5,-2,-6,-5
1558441013074161,0,-2,-1,-8,6,8,6,2
1558441013082141,2,0,-4,0,-2,-3,-4,-1
1558441013082141,-2,-2,3,0,-1,6,1,0
1558441013098097,-1,-2,0,-1,-3,-5,1,-1
1558441013098097,-1,-2,5,6,3,-9,-2,-1
1558441013104081,0,0,1,-2,-2,-1,1,1
1558441013104081,-3,-3,-11,-10,-6,-3,-6,-3
1558441013113057,-1,-2,2,1,2,1,-1,-1
1558441013113057,3,2,0,2,9,7,7,5
1558441013127018,-2,-3,1,2,-4,-7,-1,-2
1558441013127018,3,1,0,0,2,-5,2,1
1558441013134001,-1,-2,-1,-4,-8,-5,-7,-3
1558441013134001,-1,-1,3,5,1,2,0,-2
1558441013141979,-3,-3,-11,-12,-6,0,0,-1
1558441013141979,-3,-3,-2,-4,-3,-5,-7,-3
1558441013156939,0,2,1,2,3,11,4,1
1558441013156939,0,1,4,5,5,3,2,0
1558441013163921,-1,2,-1,-8,0,-9,-1,-1
1558441013163921,-1,-3,-9,-3,-2,2,1,-1
1558441013172897,-2,-4,2,0,-3,-9,-4,-3
1558441013172897,-3,-2,-3,-6,-9,-7,-4,-3
1558441013187857,1,1,5,5,4,10,2,0
1558441013187857,-1,-2,-5,-3,-6,-3,-4,-4
1558441013194839,3,1,2,0,3,-3,3,-1
1558441013194839,0,0,-2,-4,0,-3,-3,-1
1558441013201821,0,0,1,3,-4,-2,-2,-2
1558441013201821,-1,1,1,-3,4,0,0,-1
1558441013216782,-3,-4,-2,-2,-6,-3,-6,-2
1558441013216782,-1,-2,-2,-2,-3,-1,2,1
1558441013224759,0,-1,0,-1,2,-3,-3,-1
1558441013224759,-1,-2,2,4,-1,-5,-2,0
1558441013232737,0,1,0,-1,3,3,4,2
1558441013232737,0,0,-1,2,3,-1,-2,-3
1558441013247696,0,0,1,1,13,12,5,0
1558441013247696,1,2,3,5,-5,-2,0,0
1558441013254680,-4,-1,-9,-2,-5,-8,-6,-3
1558441013254680,-3,-2,-5,-7,-8,-5,-6,-3
1558441013269638,-3,-2,-1,1,-1,6,-1,-3
1558441013269638,-3,-1,-5,-1,1,8,-1,-2
1558441013276619,2,0,3,-2,-3,-11,2,5
1558441013276619,0,-2,-1,3,0,-1,5,3
1558441013284597,0,-2,1,3,-2,-7,-4,-3
1558441013284597,1,-1,4,0,-1,-4,-1,-1
1558441013293574,-2,-2,-8,-12,-6,1,-1,-4
1558441013293574,-3,-4,-6,-7,-8,-10,-12,-5
1558441013307537,-1,0,0,0,-3,10,0,2
1558441013307537,-1,3,3,4,9,3,7,1
1558441013314520,0,-1,1,2,3,4,3,0
1558441013314520,1,1,5,2,10,8,2,2
1558441013330475,-1,-3,-6,-6,-6,-7,-4,-4
1558441013330475,0,0,6,6,3,4,-1,1
1558441013336461,-1,0,-2,-4,0,-2,-5,-1
1558441013336461,-5,-2,-1,-3,-4,4,-1,-2
1558441013344438,1,2,0,-1,2,-3,0,1
1558441013344438,-2,2,1,-2,0,4,7,0
1558441013353414,-2,0,-2,4,3,-4,-2,-2
1558441013353414,0,-1,2,-4,-1,-7,-1,-1
1558441013367376,-3,-4,0,1,-8,-1,-5,-4
1558441013367376,-1,-4,-8,-8,-8,-6,-4,-2
1558441013374359,0,0,2,2,-4,-1,3,0
1558441013374359,-1,0,-3,1,4,11,2,-1
1558441013390315,-4,0,1,0,0,-5,-1,-1
1558441013390315,-1,-1,0,0,3,2,-1,-1
1558441013397296,-1,-2,1,1,0,6,2,0
1558441013397296,-1,-2,-6,-4,-2,-2,0,-3
1558441013404280,0,0,-2,3,0,-6,-2,0
1558441013404280,0,-2,0,-1,-1,-4,-4,-4
1558441013413254,-1,2,-4,-7,-1,3,-4,-1
1558441013413254,0,2,3,4,-3,-3,1,-2
1558441013427217,-1,-4,-7,-7,-2,1,-3,-2
1558441013427217,-1,0,-1,0,-3,1,3,3
1558441013434198,1,-3,5,12,4,-1,4,0
1558441013434198,1,-2,-4,-11,-9,-10,-5,-3
1558441013450155,-1,0,-2,-4,-3,-4,-3,-3
1558441013450155,-1,-1,0,-1,-2,-3,0,-2
1558441013457137,-3,0,0,0,-2,5,-4,-3
1558441013457137,1,-1,1,4,2,3,5,2
1558441013464118,-1,-1,1,0,2,8,4,1
1558441013464118,0,1,0,-1,3,0,-1,1
1558441013473094,-1,0,-2,-4,-6,-16,-7,-3
1558441013473094,0,-2,0,-1,1,0,-7,-3
1558441013487057,-1,-2,-5,-2,1,9,2,1
1558441013487057,-2,-3,0,2,-8,-7,-3,-3
1558441013494037,-2,-1,-5,-9,0,-1,-1,1
1558441013494037,0,0,-1,-1,-4,-4,-7,-2
1558441013509998,0,0,5,5,3,2,2,0
1558441013509998,-1,0,-2,-4,-5,-11,-3,0
1558441013516977,-2,-4,-1,-1,0,2,1,-2
1558441013516977,-3,-1,-3,1,-3,-4,0,-1
1558441013523958,-1,-1,-2,-3,-7,-6,-7,-2
1558441013523958,0,0,-3,-2,4,4,-2,-3
1558441013532935,0,-1,-1,1,-4,-9,-3,-1
1558441013532935,-1,3,2,5,11,15,7,2
1558441013547893,-1,-1,1,-1,-2,-10,-4,-2
1558441013547893,-1,-2,-1,-3,2,8,3,-1
1558441013553880,0,-3,-9,-5,-2,4,0,-3
1558441013553880,0,0,3,0,-6,-10,-3,-2
1558441013569837,0,0,1,3,-2,-9,1,1
1558441013569837,-1,-1,-5,-3,2,3,0,0
1558441013576817,-2,0,3,-2,4,6,0,-1
1558441013576817,-3,-2,-3,-2,-5,-1,-1,-2
1558441013600755,-3,-4,-1,1,-2,2,-2,-2
1558441013600755,2,-1,-5,-9,-8,-14,-5,-1
1558441013601751,-1,-2,1,2,-6,1,-4,-2
1558441013601751,-1,-1,0,-5,-3,-9,-2,-1
1558441013607736,1,3,2,4,5,4,0,0
1558441013607736,-3,0,-1,0,1,10,4,0
1558441013614715,1,1,1,-1,6,1,5,3
1558441013614715,-3,-4,-3,-4,-9,-7,-7,-4
1558441013629677,-1,-1,-4,-5,-1,-5,-2,-2
1558441013629677,-3,-3,0,-1,-10,-13,-11,-7
1558441013636657,0,1,-1,3,5,13,10,4
1558441013636657,-1,0,2,7,12,17,5,1
1558441013644635,-1,-2,-12,-21,-7,-7,-1,1
1558441013644635,0,0,3,0,-1,-11,-5,1
1558441013659596,2,-1,2,1,-6,-4,-5,-3
1558441013659596,-1,-1,0,2,1,5,0,-2
1558441013667574,-2,1,2,1,-1,-3,-3,-3
1558441013667574,-2,-4,0,-1,-6,-4,-4,-3
1558441013674556,0,3,3,-2,6,-11,0,2
1558441013674556,2,-1,-1,-1,8,10,7,2
1558441013698491,-1,-2,0,1,-4,-3,-3,-1
1558441013698491,-2,1,-2,-3,-7,-4,-4,-1
1558441013699488,-6,-4,1,0,-2,2,-5,-6
1558441013699488,0,0,-3,-3,-6,-6,-1,-2
1558441013704476,2,0,1,2,11,6,4,0
1558441013704476,0,0,1,4,3,7,4,1
1558441013719442,0,-3,-7,-5,-5,-9,-9,-2
1558441013719442,-1,-2,-6,-13,-3,3,4,3
1558441013727414,0,0,2,2,-1,-3,-1,-1
1558441013727414,0,1,2,3,5,0,1,1
1558441013734395,-1,2,2,4,-2,3,-2,-2
1558441013734395,-2,-1,-1,-2,-4,-14,-11,-3
1558441013750354,-1,-1,1,1,-5,-2,2,0
1558441013750354,2,-1,0,1,6,1,2,2
1558441013756337,-1,0,1,0,0,-2,-2,0
1558441013756337,-2,-1,-1,2,2,5,4,2
1558441013764321,-2,0,-2,-2,-2,5,0,-2
1558441013764321,-4,-2,0,0,-3,1,-4,-4
1558441013788253,1,0,1,1,2,6,3,2
1558441013788253,0,0,0,1,-6,-14,-8,-3
1558441013789251,-1,-4,-8,-12,-2,-3,0,0
1558441013789251,-2,-2,-3,-3,-9,-6,-6,-4
1558441013794246,-1,0,0,-2,3,2,2,-1
1558441013794246,1,0,7,9,9,8,3,0
1558441013810204,-2,-1,-2,1,-5,-4,-6,-3
1558441013810204,2,0,-1,-4,3,1,-1,-1
1558441013817174,0,1,1,-1,2,4,-2,-2
1558441013817174,-2,-2,-2,-5,-7,-14,-5,-1
1558441013824158,1,0,4,1,1,-1,3,2
1558441013824158,-2,0,-2,-2,-1,-5,-3,-1
1558441013839116,-3,-2,-2,3,-3,-6,-4,-3
1558441013839116,1,-1,-7,-8,0,6,4,0
1558441013847129,0,1,-2,-3,-2,-7,-2,-1
1558441013847129,0,0,0,2,-2,4,2,-1
1558441013854079,-1,-4,-5,-1,-3,-2,-2,-2
1558441013854079,2,1,4,-1,11,7,3,3
1558441013878018,-3,-3,0,2,-4,1,-3,-3
1558441013878018,-3,-2,-5,1,0,-6,-3,-1
1558441013880007,-2,-2,-2,-11,-9,-8,-4,-1
1558441013880007,-2,0,-2,-1,-4,-1,-1,-3
1558441013900990,-1,0,1,3,5,1,1,2
1558441013900990,-3,-1,-5,-6,-6,3,-3,-2
1558441013901948,0,0,1,0,-9,-1,-1,0
1558441013901948,0,1,0,6,9,0,1,1
1558441013915943,-1,0,3,6,1,2,-5,-3
1558441013915943,1,-2,-3,-8,-5,-6,1,-1
1558441013916906,0,-1,-4,-3,4,1,-1,-3
1558441013916906,-3,0,-1,-2,-7,-1,-2,-3
1558441013929934,-1,1,0,-2,-3,-4,-5,-2
1558441013929934,0,0,-1,1,2,-1,-2,1
1558441013936858,-1,-2,1,2,3,16,6,1
1558441013936858,1,-1,0,-4,0,-6,-5,-1
1558441013952876,0,-2,-2,-1,3,-9,-2,1
1558441013952876,0,2,4,4,-1,3,4,1
1558441013959794,-2,0,0,2,5,2,1,-2
1558441013959794,-5,-6,-11,-5,-8,3,-6,-8
1558441013975810,-2,-1,-2,-5,-8,1,-2,-2
1558441013975810,1,2,0,-2,-3,-3,4,2
1558441013976750,-2,0,-2,2,9,-4,1,0
1558441013976750,1,-2,0,-7,-3,-9,1,0
1558441013989716,-1,-1,-3,3,-3,0,0,-2
1558441013989716,-2,-1,-1,-1,5,4,-3,-2
1558441013997695,0,1,-3,-2,-2,-2,-1,0
1558441013997695,-3,-2,-3,-4,-14,-14,-11,-5
1558441014012655,0,-1,-1,-1,3,-2,1,0
1558441014012655,2,-1,6,4,11,15,8,2
1558441014019634,-1,-3,-3,-2,-5,-4,-1,0
1558441014019634,-2,0,-3,-2,1,-7,-5,1
1558441014035598,-2,-1,0,-3,-5,-2,-3,-2
1558441014035598,-2,-2,-3,0,-3,-4,-3,-2
1558441014037588,1,-1,2,4,0,-2,-4,-4
1558441014037588,1,-2,-1,-5,-4,1,3,-1
1558441014050553,-1,0,-3,-4,-4,2,-1,1
1558441014050553,-2,-3,0,3,7,0,-4,-3
1558441014056535,-2,-2,0,-6,-9,-10,-3,-1
1558441014056535,0,-1,4,4,10,8,1,0
1558441014072524,0,-2,-1,-1,2,0,2,-1
1558441014072524,-3,-2,-2,0,-1,-2,-2,-3
1558441014079668,-3,-4,-6,-7,-8,0,-3,-4
1558441014079668,0,0,-2,-3,-7,-13,-5,0
1558441014096427,2,0,6,4,9,6,6,5
1558441014096427,-1,-1,1,0,-5,2,0,1
1558441014097426,-1,0,-2,-3,4,4,-2,-2
1558441014097426,-2,-2,4,5,-9,-5,-6,-5
1558441014110640,-5,-3,-8,-13,-8,-1,-5,-2
1558441014110640,1,0,-2,-3,-5,-20,-8,-2
1558441014117598,0,2,-5,-3,6,5,9,7
1558441014117598,-1,-2,4,10,0,0,2,-4
1558441014133358,0,-1,-5,-5,6,2,-1,-2
1558441014133358,-2,-1,2,-1,-6,0,-1,-2
1558441014139476,-4,0,-1,0,3,-2,-3,-2
1558441014139476,-3,-1,-2,-1,-4,0,0,-1
1558441014155269,-1,1,-2,2,0,1,2,0
1558441014155269,-4,-1,-3,-5,-2,-2,-1,0
1558441014157264,2,-2,-3,0,-8,-12,-3,-1
1558441014157264,0,0,-3,-3,4,2,0,1
1558441014170232,0,0,5,8,1,0,-5,-5
1558441014170232,-2,-3,-13,-14,-7,5,-3,-2
1558441014177214,-1,-1,5,0,-1,2,0,0
1558441014177214,-1,-1,-1,0,6,6,2,1
1558441014192170,0,-1,-1,1,-1,-4,3,-2
1558441014192170,1,1,1,2,2,-3,-1,-1
1558441014207130,-3,-1,-3,1,-5,-13,-8,-5
1558441014207130,-2,-1,-5,-6,-5,6,0,0
1558441014216106,-2,-3,0,1,0,-3,2,1
1558441014216106,1,0,1,0,1,-2,2,-1
1558441014217105,0,2,-2,-2,-2,3,-4,-1
1558441014217105,-2,-2,0,1,2,-5,-2,-1
1558441014230418,-1,-2,-2,-1,-2,1,-1,0
1558441014230418,-2,0,1,0,6,9,6,2
1558441014237050,0,-2,-1,2,-7,-15,-4,-3
1558441014237050,2,1,-1,-2,8,1,0,0
1558441014252012,-3,-3,-3,-7,-18,-2,-6,-4
1558441014252012,2,-2,-1,2,7,3,-4,-4
1558441014259367,2,-2,1,2,5,5,2,0
1558441014259367,-1,-1,2,-1,-1,-3,-2,2
1558441014275948,-2,0,-1,-1,-1,-6,-2,-2
1558441014275948,-5,-3,-4,0,-8,-3,-3,-2
1558441014276946,-3,-2,-4,-6,-6,-2,-6,-4
1558441014276946,0,-2,2,1,4,12,5,0
1558441014288944,-1,-2,4,8,-1,-2,2,1
1558441014288944,-2,-4,-4,-12,0,-7,-2,-1
1558441014297918,1,0,3,1,5,9,7,2
1558441014297918,-1,-1,-3,-1,-6,-4,-4,-3
1558441014313143,1,0,-1,-1,5,7,1,1
1558441014313143,-2,0,0,1,-4,-5,-3,-3
1558441014320104,0,-3,0,-3,-5,-6,1,0
1558441014320104,-3,0,-1,3,5,0,-1,-2
1558441014335795,-2,-1,-1,-2,-1,0,-4,0
1558441014335795,-1,0,-3,-1,-7,-4,0,-1
1558441014336793,-2,-2,-2,0,-2,0,-4,-3
1558441014336793,-3,1,0,-2,-5,4,5,-1
1558441014349952,-1,-1,-2,-2,3,-7,-1,0
1558441014349952,-1,-3,1,-2,-4,-5,-3,-1
1558441014358730,0,-1,-2,-2,-2,-5,-6,-1
1558441014358730,0,-3,-2,1,-4,0,-3,-3
1558441014372689,2,1,0,-6,2,-1,1,1
1558441014372689,1,0,2,3,0,0,0,-1
1558441014379706,-2,-3,-2,-3,-1,5,1,-2
1558441014379706,0,-2,-5,-9,-12,-6,-7,-4
1558441014395679,-2,-2,-2,1,-5,-6,-2,-2
1558441014395679,-1,2,2,5,4,0,2,2
1558441014397624,1,1,2,2,4,-3,0,1
1558441014397624,-2,-3,-2,-1,-6,-1,-1,-2
1558441014409785,-3,-1,-3,-1,1,1,-3,-2
1558441014409785,0,2,-1,1,4,7,3,1
1558441014418576,0,-1,-6,-3,4,5,0,-2
1558441014418576,-1,-3,-2,-1,-4,-5,-4,-1
1558441014432739,-2,0,-1,-2,-8,-13,-1,-3
1558441014432739,0,-2,-2,4,3,3,-2,1
1558441014439518,-1,1,0,1,4,8,4,1
1558441014439518,-2,-1,0,-2,2,-2,-3,0
1558441014455474,-1,-2,-3,-7,-2,6,-2,-3
1558441014455474,-1,0,3,2,-5,-4,-2,-1
1558441014457464,-3,-2,-6,-6,-10,0,-6,-3
1558441014457464,1,0,1,0,-2,-11,3,2
1558441014469434,-2,1,1,4,4,-2,2,0
1558441014469434,2,1,-1,2,2,0,3,1
1558441014478406,-2,-2,-3,-1,-3,-6,-6,-3
1558441014478406,-1,-1,-1,-3,-1,2,-2,-1
1558441014492398,1,0,1,0,-1,0,-1,0
1558441014492398,-2,-3,0,-4,-3,-5,-3,-2
1558441014506362,1,3,1,4,3,8,6,1
1558441014506362,-4,-4,-10,-8,-9,-9,-8,-5
1558441014516538,-1,-2,1,2,-4,1,2,-1
1558441014516538,-1,-1,1,-5,5,-1,1,1
1558441014517301,-2,-2,0,4,-6,-6,-4,-2
1558441014517301,1,3,4,3,7,5,6,2
1558441014529622,0,-4,-2,-3,-1,-1,-4,-2
1558441014529622,-3,-1,-2,-2,1,13,4,-1
1558441014538250,-3,-3,-2,-3,-7,-10,-5,0
1558441014538250,0,2,3,2,5,-2,2,0
1558441014553469,-4,-2,-11,-7,-5,-4,-7,-3
1558441014553469,1,0,3,5,2,6,10,4
1558441014559189,-2,-2,-1,-2,1,2,0,-2
1558441014559189,-3,-3,0,0,3,3,-2,-1
1558441014575475,0,-1,5,6,2,-2,-3,-2
1558441014575475,-2,-3,-9,-13,-14,-2,-10,-5
1558441014582443,2,0,5,4,11,-4,7,2
1558441014582443,2,-1,-2,-6,-6,-9,-1,0
1558441014589141,-2,-2,-3,0,-2,3,-2,-2
1558441014589141,-1,-1,0,2,5,0,-2,0
1558441014598086,-3,-2,3,-2,-6,-1,-2,-2
1558441014598086,-2,-1,-3,3,6,15,4,1
1558441014613240,-2,0,2,-2,-1,-8,-1,1
1558441014613240,-1,-3,-5,-5,-10,-9,-8,-2
1558441014620037,0,0,-1,-3,-10,-8,-4,-1
1558441014620037,-1,0,5,7,10,9,4,1
1558441014635988,3,2,-3,-5,3,-1,1,0
1558441014635988,0,-2,-1,-3,-1,-4,-3,-2
1558441014642146,-1,-1,-2,-2,-6,-8,-3,-1
1558441014642146,-1,-2,-4,-4,-12,-6,-5,-5
1558441014648960,-1,-1,1,1,-1,6,0,0
1558441014648960,-2,-2,-1,0,0,-4,0,-2
1558441014657926,-1,-3,0,2,6,7,1,0
1558441014657926,0,0,-1,-5,0,-6,-3,-1
1558441014672893,-2,-2,-3,0,-3,0,-1,-2
1558441014672893,0,1,0,0,4,2,0,-1
1558441014678870,-3,-1,-3,-4,-4,-6,-8,-4
1558441014678870,1,-1,2,2,7,11,6,1
1558441014694830,-1,0,-1,0,0,-2,-2,1
1558441014694830,0,1,1,-2,0,-2,2,0
1558441014701811,-1,-2,-2,-1,1,4,1,0
1558441014701811,-2,-2,-1,0,-3,-8,-4,-2
1558441014709787,-2,-2,-2,-3,0,0,-4,-3
1558441014709787,-2,-1,-3,0,-5,-3,-1,-3
1558441014717766,-1,-1,0,0,-5,-16,-3,-3
1558441014717766,1,2,2,1,4,6,3,-1
1558441014732726,-1,-1,-2,-4,1,6,3,0
1558441014732726,-3,-2,-1,1,-1,-5,-2,-2
1558441014739707,-2,-2,0,-2,-6,-1,-5,-2
1558441014739707,-1,-3,-8,-7,-4,-4,0,0
1558441014754670,2,1,2,2,2,-1,1,3
1558441014754670,0,-4,-3,0,1,6,2,0
1558441014761842,0,-1,1,-3,2,-2,2,-1
1558441014761842,-3,-2,-1,0,0,7,5,0
1558441014778914,0,-1,-1,0,0,-6,-1,-4
1558441014778914,-3,-1,2,0,0,1,-3,-2
1558441014779602,-1,1,2,0,6,2,1,3
1558441014779602,-4,-2,-1,0,-6,-8,-8,-2
1558441014792849,0,-2,-3,-5,1,2,2,0
1558441014792849,-1,-1,-1,-6,-6,-13,-5,-2
1558441014799821,1,0,-1,1,4,14,4,-1
1558441014799821,-2,0,0,0,-2,0,-4,-1
1558441014815719,1,0,-1,2,2,3,-3,2
1558441014815719,0,1,1,0,1,-6,3,1
1558441014821492,-3,0,-2,-3,-2,2,-2,-3
1558441014821492,-3,-1,-3,-2,-9,-10,-6,-1
1558441014838448,-2,-1,0,-1,3,4,1,0
1558441014838448,-2,-1,-7,-4,-5,-1,2,-2
1558441014839441,0,-3,-1,2,-2,0,-2,1
1558441014839441,1,0,0,-1,2,-2,-1,-2
1558441014852613,-2,0,-3,-9,-1,-3,0,-1
1558441014852613,-2,-1,2,2,2,4,-5,-1
1558441014859582,-3,-4,-2,-2,-4,-3,-1,-2
1558441014859582,-1,-2,2,-2,-4,-8,-4,-4
1558441014875349,-2,-3,-5,-3,-9,-9,-4,-2
1558441014875349,2,1,2,1,7,5,5,4
1558441014882326,1,-3,-2,-4,1,2,-2,-2
1558441014882326,-1,-3,-1,0,3,2,-2,0
1558441014898310,-1,-1,2,3,-2,1,5,1
1558441014898310,-1,-1,-3,-1,1,0,0,-1
1558441014899309,-1,0,1,0,-3,-7,-2,1
1558441014899309,-4,-2,-2,-1,-2,0,-3,-2
1558441014912547,1,-1,-1,-1,-5,4,-3,0
1558441014912547,-1,-1,-1,-1,-1,5,1,1
1558441014919224,-1,-1,-5,-3,-1,-4,1,1
1558441014919224,-1,0,0,0,-5,0,3,1
1558441014935512,3,1,2,3,18,5,6,0
1558441014935512,-1,-2,-2,-3,-4,-3,-3,-4
1558441014942486,0,-2,-1,1,-2,-2,-3,0
1558441014942486,-4,-3,-6,-9,-5,0,-4,-5
1558441014958426,-2,0,2,3,-6,-5,-3,-2
1558441014958426,1,0,-2,-2,3,0,-1,-1
1558441014959121,-2,0,-2,-6,-6,-5,-2,-1
1558441014959121,1,0,5,-1,6,-6,0,2
1558441014973336,-3,-1,-5,0,-4,-4,-3,-3
1558441014973336,-2,-1,-3,-1,-3,4,0,-2
1558441014980101,1,-1,1,0,2,1,-1,1
1558441014980101,-2,-1,-3,0,1,0,1,0
1558441014995027,-3,-3,0,-1,-4,-5,-5,-2
1558441014995027,-2,0,3,-2,0,-7,-2,1
1558441015002227,-3,0,-8,-7,-4,2,-1,-5
1558441015002227,-1,0,-2,2,-3,4,3,0
1558441015018999,0,-3,-2,-2,5,-2,0,-1
1558441015018999,-1,-2,1,-2,-4,-1,-2,-2
1558441015019986,-1,1,-1,1,2,5,1,0
1558441015019986,-1,-1,-1,-2,-6,-10,-5,-3
1558441015048964,-2,-1,2,2,-8,-9,-4,-3
1558441015048964,2,1,-2,-1,-1,6,1,1
1558441015049880,-1,-1,-2,4,1,1,1,-2
1558441015049880,0,-1,-3,-5,0,1,-2,-1
1558441015054889,-1,-1,0,-2,4,9,4,3
1558441015054889,-4,-4,2,2,-4,-10,-2,-2
1558441015061847,0,-1,1,-1,1,1,1,2
1558441015061847,0,0,0,-1,3,3,-2,-2
1558441015077815,-2,-4,-4,-2,-9,-3,-7,-6
1558441015077815,-3,-1,-5,-7,-10,-13,-7,-2
1558441015079799,2,2,3,2,6,4,5,4
1558441015079799,2,-2,3,5,12,4,3,3
1558441015091765,0,0,-1,-4,-4,-1,-4,-1
1558441015091765,-2,-2,-4,0,2,13,4,0
1558441015100853,-3,1,1,-5,2,-5,0,0
1558441015100853,-2,-1,-1,0,-3,-10,-5,0
1558441015114707,-1,-1,-2,-4,-5,-3,0,-2
1558441015114707,-4,-1,-2,0,-4,-1,-5,-5
1558441015121729,-2,-3,1,4,-2,-8,-2,-3
1558441015121729,2,1,-6,-11,7,16,16,5
1558441015138641,0,2,-1,1,8,6,3,1
1558441015138641,-1,0,0,2,1,-4,-4,1
1558441015139639,-1,-1,-1,1,-5,1,-6,-2
1558441015139639,-6,-4,-3,-1,-18,-20,-15,-6
1558441015152854,2,0,1,-2,1,9,5,1
1558441015152854,-2,-2,-2,0,1,10,4,0
1558441015159845,-2,-2,-1,-3,9,1,-1,-3
1558441015159845,1,0,2,-1,-8,-2,-3,-2
1558441015175810,-2,2,0,2,1,0,-1,1
1558441015175810,0,0,1,1,11,0,2,0
1558441015182613,0,-2,-6,-5,-4,-4,-2,-1
1558441015182613,0,-2,-3,0,-5,0,-3,-4
1558441015198715,-1,-3,2,1,0,-2,-2,0
1558441015198715,0,-3,-4,-5,-11,-8,-5,-1
1558441015199478,-2,-1,-3,-2,3,4,1,0
1558441015199478,-3,-2,-1,4,-4,-8,-5,-2
1558441015211664,-3,-5,-6,-9,-12,-3,-5,-3
1558441015211664,2,0,2,-1,9,-3,5,4
1558441015220425,1,2,5,7,-2,-3,3,0
1558441015220425,1,1,1,1,7,5,1,2
1558441015235423,0,-2,-8,-12,-4,-5,-2,-3
1558441015235423,-1,-1,0,-1,-4,-3,-1,-3
1558441015242362,-3,-2,-3,-3,-1,7,1,-1
1558441015242362,-5,-1,-2,-2,-4,-9,-5,-4
1558441015265331,0,-1,3,2,-1,-1,2,1
1558441015265331,0,-1,-1,2,6,5,2,2
1558441015267329,-4,-2,-1,-2,1,-2,-1,0
1558441015267329,1,0,2,3,8,9,4,2
1558441015271284,-1,-1,1,1,2,2,-1,0
1558441015271284,-3,-3,-8,-5,-12,-5,-3,-4
1558441015280259,-2,-1,-2,-4,-14,-15,-10,-3
1558441015280259,0,-1,1,0,4,7,3,0
1558441015295219,0,0,2,5,4,-16,-1,0
1558441015295219,-4,-4,-4,-6,-2,3,-1,-1
1558441015302201,0,0,-1,0,3,4,1,1
1558441015302201,0,-1,-4,-2,-8,-9,-4,-2
1558441015326510,-2,3,4,3,2,4,0,0
1558441015326510,-3,-1,-1,1,2,6,0,-3
1558441015327138,-3,-2,-2,-5,-10,-5,-2,-1
1558441015327138,1,-3,1,-3,2,1,1,3
1558441015332497,-1,-2,0,5,-1,-5,1,1
1558441015332497,-1,0,-2,0,-2,-5,-7,-2
1558441015341143,2,2,4,5,12,14,9,2
1558441015341143,-1,-1,-3,-2,-6,-7,-3,-3
1558441015355062,-3,-3,-5,-6,-2,-2,-6,-4
1558441015355062,-1,-2,0,1,-8,-9,-7,-2
1558441015362400,1,0,4,2,3,6,0,-1
1558441015362400,-1,-1,-3,-1,0,4,-1,-2
1558441015378320,-3,0,-8,-4,-5,-9,1,1
1558441015378320,-4,0,-3,-6,0,-2,4,1
1558441015379996,-1,0,0,-2,-3,-7,-6,0
1558441015379996,0,0,4,6,2,4,-2,1
1558441015392274,-2,-3,-4,-9,-6,3,-2,-3
1558441015392274,1,2,0,-1,-3,-6,-2,0
1558441015400942,2,1,-1,3,1,3,1,1
1558441015400942,-3,-4,1,-1,2,8,1,-2
1558441015415125,0,-3,-5,-4,-6,-3,-3,-3
1558441015415125,1,-1,0,-1,-3,-7,-4,-2
1558441015421884,1,1,-4,0,8,-3,1,1
1558441015421884,-1,0,0,-2,-5,-7,-4,-1
1558441015437841,2,-1,4,5,8,13,7,3
1558441015437841,-3,-4,-3,-2,-5,-1,-3,-3
1558441015439833,-5,-5,-2,0,-10,-3,-4,-4
1558441015439833,1,0,-3,-6,4,-4,-3,0
1558441015452037,-1,-1,-2,-5,-6,-11,-5,-4
1558441015452037,1,3,3,4,3,7,1,1
1558441015460779,-1,0,-1,-2,6,3,0,1
1558441015460779,-3,-1,-2,-1,-6,-11,-6,-4
1558441015475776,-2,-1,0,3,0,7,2,-1
1558441015475776,-1,-2,1,1,5,2,0,-1
1558441015489702,-2,0,-4,-3,-11,-4,-3,-3
1558441015489702,-2,-1,-3,-1,2,3,1,1
1558441015497896,1,2,2,1,6,-9,-1,2
1558441015497896,-2,-3,-4,-3,3,-1,-1,-1
1558441015504665,-1,-2,0,1,-7,-7,-1,-4
1558441015504665,-1,-1,0,-1,-3,-2,0,1
1558441015511642,-2,-2,-1,-1,-2,0,-7,-2
1558441015511642,-2,-1,1,0,0,5,2,3
1558441015520616,-2,-2,-1,0,5,-7,1,1
1558441015520616,-4,-3,-3,-3,-10,2,-3,-3
1558441015535856,0,-2,-10,-8,-4,9,4,-2
1558441015535856,1,3,4,4,8,-7,0,1
1558441015549893,-2,-2,-2,-4,-9,-8,-8,-4
1558441015549893,-2,0,1,-2,1,4,2,-2
1558441015557856,-3,-2,-1,-1,-6,-6,-3,-2
1558441015557856,-1,-3,0,1,-2,6,2,-1
1558441015564844,0,1,-2,-3,2,4,1,0
1558441015564844,0,1,1,2,1,-1,3,1
1558441015571489,-3,-1,4,4,2,0,-4,-2
1558441015571489,0,-1,-2,-10,-6,-2,-2,-1
1558441015580803,0,-2,-5,-5,-2,0,-1,0
1558441015580803,-1,-3,0,1,4,3,3,1
1558441015603556,1,1,3,3,-3,-11,-2,1
1558441015603556,-2,-3,-4,-3,0,4,1,-2
1558441015604395,-2,-3,1,0,-5,1,-3,-2
1558441015604395,-3,0,-4,-2,-1,-3,-3,-1
1558441015617633,-1,-1,0,0,-3,6,0,-2
1558441015617633,1,1,2,-1,0,0,2,-1
1558441015624573,-2,-1,-2,1,6,0,2,0
1558441015624573,0,-3,-2,-5,-8,-9,-10,-5
1558441015641366,-1,2,2,1,8,8,7,2
1558441015641366,-2,-1,-4,0,-4,3,1,0
1558441015642295,-2,-2,0,-4,-5,-2,-2,-2
1558441015642295,1,-1,0,-1,4,-4,1,0
1558441015655263,-3,-2,0,-1,-4,3,-2,-3
1558441015655263,1,-4,-2,1,-3,-9,-7,-3
1558441015662401,0,-2,-4,-6,8,-2,5,3
1558441015662401,0,-1,0,-1,-3,-1,-1,0
1558441015677399,-2,-1,-1,0,1,1,-1,-1
1558441015677399,-3,-1,0,-1,-5,-1,-3,-2
1558441015684392,0,-2,0,3,-4,-6,-3,-2
1558441015684392,0,0,-1,-3,5,9,3,0
1558441015717292,-1,-1,-3,0,2,3,-2,0
1558441015717292,-1,-1,-2,-8,-7,-14,-7,-3
1558441015718099,-1,1,1,3,-1,2,4,2
1558441015718099,-1,1,-2,3,1,0,6,-1
1558441015719091,0,-1,-1,-3,-1,-11,-2,0
1558441015719091,-2,1,6,5,7,8,1,0
1558441015723076,0,-2,-9,-14,-4,7,-4,-2
1558441015723076,-1,-4,0,0,-4,-2,0,-3
1558441015737040,-2,-2,-3,-2,-5,-8,-4,-3
1558441015737040,0,-2,-2,1,-5,-9,-3,-2
1558441015744050,-2,0,5,2,0,3,3,-1
1558441015744050,-3,-3,-9,-3,-5,-5,-4,-3
1558441015762137,1,1,0,-1,4,3,3,1
1558441015762137,0,-1,0,0,2,-6,-3,-1
1558441015762137,2,1,2,3,7,13,3,-1
1558441015762137,0,1,2,0,11,10,4,3
1558441015775936,-3,-3,-4,-2,-7,-5,-4,-3
1558441015775936,-2,0,-3,-2,-4,-1,1,-1
1558441015781921,-4,-1,-2,-1,-6,-10,-9,-3
1558441015781921,-2,-1,-4,-7,-10,-4,-5,-4
1558441015797177,0,1,1,2,11,7,10,3
1558441015797177,-2,-2,-3,-6,-3,1,-2,-1
1558441015803858,-1,-1,-2,2,-1,1,-4,-4
1558441015803858,2,2,6,4,3,-4,1,1
1558441015828890,-4,-6,-8,-12,-8,-6,-7,-3
1558441015828890,-3,-2,-5,-1,-2,-2,-1,-2
1558441015829796,0,-2,2,3,-1,-3,2,2
1558441015829796,-2,1,1,-1,-8,-11,-5,-3
1558441015835777,0,-1,1,1,-7,2,-4,-2
1558441015835777,3,2,1,5,15,9,8,2
1558441015842040,-3,-2,-2,-6,-1,-4,-2,-1
1558441015842040,0,-2,-1,-1,1,-2,-3,-2
1558441015856957,-1,-2,0,0,-5,-7,-6,-3
1558441015856957,-3,-2,-4,-4,-12,0,-3,-1
1558441015864950,1,1,-1,-3,10,3,5,1
1558441015864950,1,0,0,0,-2,-7,-1,0
1558441015881652,0,1,7,6,5,-5,-5,-1
1558441015881652,-2,-4,-3,-1,-1,-1,1,0
1558441015882650,-1,-3,-7,-10,-8,-7,-3,-2
1558441015882650,-2,-3,-2,0,-5,4,-6,-2
1558441015895920,-2,0,-1,-1,-1,4,0,-1
1558441015895920,1,1,4,3,7,3,-1,0
1558441015902144,0,-2,0,1,-7,-17,-7,-2
1558441015902144,-1,-1,-2,-2,-2,-6,-1,1
1558441015916863,1,0,-3,-2,3,9,7,-1
1558441015916863,1,-1,2,1,1,3,0,-1
1558441015932820,-3,-1,-1,-1,-2,-1,-1,-4
1558441015932820,-2,-2,-1,-3,-3,0,2,0
1558441015939798,-1,-1,-2,-1,-3,3,-1,-1
1558441015939798,-2,0,0,1,5,-6,-1,1
1558441015940797,1,0,-1,2,1,1,-2,0
1558441015940797,-1,0,-3,-5,0,0,-2,-2
1558441015955755,-1,-3,-2,-1,-3,-1,0,-1
1558441015955755,-1,-3,-1,0,-6,-4,-4,-2
1558441015961739,-1,-1,-4,-7,-2,1,0,-2
1558441015961739,-3,-2,2,5,7,7,0,1
1558441015985706,2,2,-1,-5,2,-8,1,2
1558441015985706,0,0,0,-1,-3,5,-2,-3
1558441015985706,0,-2,-5,-1,-2,-5,-3,-1
1558441015985706,-2,-1,-3,0,-8,3,-2,-4
1558441016000799,0,-2,2,0,-2,-1,-2,-2
1558441016000799,-2,-3,-5,-4,-1,-7,1,2
1558441016000799,-2,-1,2,4,0,0,1,1
1558441016000799,-2,2,1,0,6,-3,2,1
1558441016015805,-2,-1,-1,1,3,-2,-2,0
1558441016015805,-1,-1,-5,-3,-7,0,-4,-6
1558441016022686,-2,-2,3,5,8,8,0,-1
1558441016022686,-2,-3,-6,-7,-5,-5,-3,-1
1558441016038667,1,2,4,5,3,3,0,1
1558441016038667,-6,-3,-9,-13,-10,-9,-5,-6
1558441016044891,0,1,3,2,-6,-2,-1,-1
1558441016044891,3,2,2,4,10,7,7,3
1558441016059811,-3,-2,0,2,-4,-8,-5,-2
1558441016059811,1,3,3,2,9,2,4,4
1558441016060589,-3,-3,-8,-6,-8,0,-2,-5
1558441016060589,-2,-4,-1,-1,-7,1,-1,-3
1558441016075600,-1,-1,-4,-5,-5,-12,-3,-2
1558441016075600,-2,-4,0,0,-3,-6,-9,-3
1558441016081759,2,1,2,3,2,6,6,3
1558441016081759,1,-1,1,0,-1,-5,1,0
1558441016105475,-2,-3,-1,0,0,7,0,-2
1558441016105475,0,-3,-2,-8,-4,-3,-3,-2
1558441016105475,-1,0,0,-4,-2,2,0,-2
1558441016105475,-1,-2,-1,-1,-1,1,-2,-3
1558441016120428,0,-1,-3,-6,-10,-9,-5,-2
1558441016120428,-1,2,2,4,6,6,3,0
1558441016120428,-1,1,1,3,2,-6,-1,1
1558441016120428,-2,-1,-1,-3,0,0,-1,-1
1558441016135411,-3,-1,0,-2,-6,-4,-5,-3
1558441016135411,2,1,1,4,5,8,4,1
1558441016158827,-1,-3,-1,-3,0,4,1,0
1558441016158827,0,-2,-4,-2,-3,-2,-6,-1
1558441016159325,-1,-1,-3,-2,1,-2,-2,-2
1558441016159325,1,-1,-1,1,-9,-7,4,3
1558441016165124,-2,2,4,1,8,2,-1,0
1558441016165124,-2,-1,2,-2,3,3,1,-2
1558441016180897,-1,0,-3,-3,4,6,2,-1
1558441016180897,-1,0,-3,-3,-4,-1,-6,-4
1558441016180897,-1,0,0,2,-1,-9,-2,0
1558441016180897,-1,-1,-2,0,-3,2,-2,0
1558441016196544,1,-2,-2,-1,-4,0,0,2
1558441016196544,-2,-1,-1,-7,-1,1,1,0
1558441016202752,-1,-4,-1,0,-6,-5,-6,-3
1558441016202752,-1,0,-1,0,-1,-13,0,0
1558441016216922,0,1,1,4,10,10,5,0
1558441016216922,-2,-2,2,2,-3,1,1,-1
1558441016224987,-2,-1,-3,-1,-5,-6,-8,-2
1558441016224987,-2,-1,-3,-1,0,12,4,-1
1558441016240289,0,1,0,-2,3,-3,1,0
1558441016240289,0,-2,-1,1,-3,-3,-3,-1
1558441016240949,0,-1,-7,-4,-4,-1,-1,-1
1558441016240949,1,-3,0,-3,-11,-11,-3,-1
1558441016269890,0,0,1,1,8,5,6,2
1558441016269890,-1,2,0,-3,2,2,1,0
1558441016270869,-1,-2,3,1,-4,-6,-4,-1
1558441016270869,-2,-2,-2,2,-5,-2,-7,-4
1558441016277849,0,-2,-4,-9,-7,-3,-5,-4
1558441016277849,-2,-4,-5,-2,-6,1,-2,-2
1558441016283833,-2,0,-6,-5,4,0,6,1
1558441016283833,-2,1,2,5,0,0,0,0
1558441016299827,-1,-3,2,1,-7,0,-4,-1
1558441016299827,1,-2,-4,-2,3,-9,-3,-1
1558441016300788,1,2,2,3,8,5,9,1
1558441016300788,-1,-1,-3,-1,6,7,0,0
1558441016323727,-4,-2,-1,-2,-1,0,-3,-1
1558441016323727,2,-1,1,-1,-11,-7,-4,-3
1558441016324724,-1,-4,-6,-3,-10,-3,-8,-4
1558441016324724,0,-1,0,-2,-4,-6,2,0
1558441016337700,0,2,-3,-2,7,0,2,-2
1558441016337700,-2,0,1,7,0,-5,2,1
1558441016344672,-1,1,1,-4,6,7,0,0
1558441016344672,-1,-1,-6,-11,-4,0,-4,-3
1558441016359630,-2,-2,-1,-2,-6,-15,-4,-1
1558441016359630,-3,0,-3,-2,0,1,-4,-2
1558441016360627,-1,-2,0,-1,-4,-3,0,-2
1558441016360627,-1,-2,2,1,0,4,2,0
1558441016383609,0,0,4,1,-3,-13,-5,0
1558441016383609,1,0,-5,-2,14,18,11,4
1558441016384564,-2,0,1,2,-1,1,-2,-1
1558441016384564,-1,-1,-2,-1,-2,-1,-1,2
1558441016398527,-5,-4,-2,-4,-5,-1,-2,-4
1558441016398527,-3,-3,2,3,-5,-9,-6,-4
1558441016404511,-1,0,-3,-2,2,10,3,1
1558441016404511,-1,0,-6,-10,-1,-15,-4,-1
1558441016427448,2,2,0,2,2,1,6,2
1558441016427448,1,-1,0,3,3,11,2,0
1558441016428447,-3,-2,0,0,0,2,-2,-4
1558441016428447,0,0,4,1,0,-10,-3,0
1558441016435428,-2,-1,-5,-3,-6,-1,-6,-3
1558441016435428,0,0,0,2,3,7,3,0
1558441016449389,0,-2,2,-1,2,0,2,0
1558441016449389,-1,0,0,0,1,-5,-3,0
1558441016458404,-1,-3,-2,1,3,8,1,-2
1558441016458404,1,1,-1,-1,2,-3,4,1
1558441016464351,-2,-3,-1,-3,-7,-9,-7,-6
1558441016464351,-2,-1,-2,1,-10,0,-6,-6
1558441016487288,1,-2,-6,-9,11,19,7,2
1558441016487288,-2,-2,3,-2,-4,-3,-4,-3
1558441016488286,-3,-3,-7,-10,-4,-10,-4,-1
1558441016488286,0,2,4,5,-2,-3,2,0
1558441016502283,0,0,5,4,1,2,0,-1
1558441016502283,-2,-2,-1,-4,-2,2,-2,-3
1558441016503247,-3,0,-2,-1,-3,-11,-4,0
1558441016503247,-2,-2,-1,-2,-1,5,1,-3
1558441016518206,1,0,-2,1,-2,5,0,2
1558441016518206,0,2,1,-1,1,-7,-1,0
1558441016524191,2,1,1,3,-3,-7,-6,-2
1558441016524191,1,1,1,0,4,12,3,1
1558441016539149,-1,0,-1,-3,2,-5,-1,-2
1558441016539149,-6,-6,-6,1,-13,-10,-7,-4
1558441016555107,0,2,1,-2,0,8,2,1
1558441016555107,1,-2,-3,0,3,5,1,0
1558441016562095,-2,-1,0,2,-3,-6,-2,-2
1558441016562095,2,0,3,-2,1,-5,-2,1
1558441016563086,-1,-3,-3,-2,-4,-1,-2,-4
1558441016563086,-1,-2,-1,0,1,0,0,1
1558441016578047,-3,0,-4,-12,-10,-3,0,-1
1558441016578047,-1,0,1,-1,2,-5,-1,-2
1558441016584031,0,-2,-3,-1,-3,-11,-5,0
1558441016584031,-1,-2,-3,2,-3,4,-1,0
1558441016599026,1,-2,0,1,5,-6,1,1
1558441016599026,0,-2,3,0,1,11,4,0
1558441016606969,0,-3,-6,-4,-3,-1,1,-2
1558441016606969,-2,0,-1,-3,-6,-6,-5,-5
1558441016621930,-1,-2,-1,2,1,2,-2,-2
1558441016621930,-1,-1,-3,0,-7,-7,-5,-1
1558441016622927,2,1,5,6,7,-3,3,3
1558441016622927,-1,-1,0,-4,-7,0,-1,0
1558441016637886,-3,-2,-2,0,0,2,-4,-3
1558441016637886,-2,-2,-2,-4,-1,-4,0,-1
1558441016643905,-2,0,0,-1,2,11,4,0
1558441016643905,0,0,1,-1,3,0,1,1
1558441016658829,-1,-2,-3,-1,-8,-8,-8,-3
1558441016658829,-2,-2,-5,-7,-11,-13,-8,-1
1558441016666866,1,0,0,-1,4,3,2,1
1558441016666866,0,-2,-2,-6,-3,-8,-4,-3
1558441016682766,-1,-1,2,3,7,9,7,2
1558441016682766,-1,-2,-2,-2,1,-13,-1,1
1558441016682766,-1,-2,1,2,0,13,3,0
1558441016682766,-2,-2,0,4,5,1,2,-3
1558441016697796,0,-1,-4,-11,-12,-10,-6,-2
1558441016697796,0,1,0,0,1,11,2,-2
1558441016703709,-3,0,4,0,-5,-14,-5,0
1558441016703709,-2,-2,0,-3,1,0,-1,0
1558441016719704,-2,2,0,2,-1,3,1,-1
1558441016719704,0,0,-2,0,-3,4,-1,-1
1558441016726684,0,-1,-1,-1,7,13,6,0
1558441016726684,-2,0,0,-1,0,-2,-2,0
1558441016742607,-3,-2,-2,3,0,-6,-3,-2
1558441016742607,-1,1,-3,-4,-2,-1,-6,-2
1558441016742607,-2,-1,-7,-9,-12,-12,-3,0
1558441016742607,1,0,-1,-3,2,-5,-1,-2
1558441016758613,0,0,4,5,4,8,2,1
1558441016758613,-1,0,0,3,6,4,5,3
1558441016764546,-1,0,0,-2,-6,-7,-6,-2
1558441016764546,-1,-2,-2,0,-1,2,-1,-3
1558441016779534,-1,-2,-3,-5,-12,-1,0,-2
1558441016779534,1,0,1,1,5,10,3,-1
1558441016786515,1,-1,0,2,9,-6,1,2
1558441016786515,-1,-2,-10,-4,-6,-11,-5,0
1558441016802485,1,1,4,6,7,6,1,-1
1558441016802485,-5,-4,-11,-18,-9,3,0,-3
1558441016803444,-2,-2,2,4,-8,-2,-6,-4
1558441016803444,1,0,2,3,14,13,7,3
1558441016818402,0,0,0,0,1,-6,1,1
1558441016818402,-2,-1,-2,4,-1,-8,-2,-1
1558441016824421,-2,1,-2,-1,-8,-2,-2,-4
1558441016824421,-3,-3,-3,-5,-4,-4,-5,-1
1558441016839346,-3,-2,-2,-4,-7,-8,-6,-3
1558441016839346,1,0,4,6,6,4,3,0
1558441016846328,0,-1,-2,0,3,2,0,-2
1558441016846328,0,1,2,4,0,2,0,-2
1558441016870263,0,0,-2,-3,-2,-1,-1,0
1558441016870263,-1,0,-3,-6,-2,-5,-1,-1
1558441016870263,-2,-3,2,1,-6,-6,-5,-3
1558441016870263,2,1,-6,-5,10,8,4,1
1558441016878243,-1,-3,-1,-2,-3,-11,-5,-3
1558441016878243,0,0,1,3,3,9,4,1
1558441016884226,2,0,-1,1,3,8,2,1
1558441016884226,-1,-1,2,3,-3,-5,1,-1
1558441016899186,-2,-1,-4,-4,-6,-9,-5,-2
1558441016899186,0,-2,0,1,-1,-4,-4,-3
1558441016907165,-1,0,-4,-3,0,-2,0,2
1558441016907165,-1,-2,2,1,-7,-7,-6,-1
1558441016922386,2,-1,-3,-4,-2,-1,0,0
1558441016922386,2,1,3,4,5,4,8,2
1558441016923122,-4,-1,2,4,5,4,1,-2
1558441016923122,-1,-3,-6,-13,-13,-3,-4,-2
1558441016938083,0,1,5,3,3,6,7,2
1558441016938083,0,-2,1,1,-3,-12,-11,-2
1558441016944108,-1,-3,-9,-10,-7,-16,-6,-1
1558441016944108,0,0,2,6,10,7,3,2
1558441016959026,-2,-1,-1,0,4,5,3,-1
1558441016959026,0,1,-2,-3,-4,-4,-4,-2
1558441016967006,-3,-1,-4,0,3,10,-2,-3
1558441016967006,-2,0,0,0,-14,-17,-3,-2
1558441016981965,-1,-1,-1,1,10,-1,1,2
1558441016981965,-3,-1,1,1,0,-3,-1,-2
1558441016982962,-1,-1,-9,-11,-4,0,0,0
1558441016982962,-1,-3,-4,-2,-3,-5,-6,-5
1558441016997922,-1,0,0,-2,-3,1,0,-1
1558441016997922,2,1,3,5,9,14,9,5
1558441017003906,-2,-2,-1,-4,-5,-7,-2,-2
1558441017003906,-3,-3,2,2,-2,-4,-1,-3
1558441017018866,0,0,1,1,-2,8,0,-2
1558441017018866,-2,0,1,-4,0,-5,-5,0
1558441017026844,-1,0,-4,3,4,4,2,0
1558441017026844,2,2,0,1,3,5,1,0
1558441017042802,-3,-4,-4,-9,-6,-3,-3,-5
1558441017042802,-2,-2,1,-2,-3,-8,-3,-1
1558441017042802,0,1,2,-2,-5,0,0,0
1558441017042802,0,-2,0,0,3,-1,3,0
1558441017057762,0,-2,2,4,3,-5,-4,0
1558441017057762,0,-1,-3,-3,-1,7,0,1
1558441017063746,0,-4,1,-2,0,-8,-4,-1
1558441017063746,-2,-2,-4,-1,-7,-1,-1,-2
1558441017078707,-1,0,-1,1,-4,-3,-2,-1
1558441017078707,-1,-2,-5,-9,1,-6,-2,-2
1558441017086684,0,-1,2,4,2,8,2,-1
1558441017086684,0,2,2,2,6,7,4,0
1558441017102682,0,0,-1,-1,2,2,1,1
1558441017102682,-1,-1,2,5,-4,1,0,-2
1558441017102682,-1,-1,-6,-5,0,2,1,0
1558441017102682,-2,0,0,-5,0,-8,-3,-1
1558441017118599,-2,-3,-10,-9,-13,-8,-6,-8
1558441017118599,-3,-1,-3,2,-9,-2,-6,-3
1558441017124583,1,2,7,5,11,12,6,4
1558441017124583,-2,0,-2,-1,3,-4,-7,-1
1558441017139545,-1,-1,-1,0,3,3,3,1
1558441017139545,-1,-2,-2,-1,2,-4,-2,-1
1558441017146592,0,-4,2,0,-7,-1,-4,-4
1558441017146592,-2,-6,-4,-7,-12,-11,-5,-2
1558441017162642,1,2,-1,2,2,-5,-2,0
1558441017162642,2,-1,-2,-1,11,20,14,3
1558441017163481,-2,1,0,2,-1,0,3,0
1558441017163481,-2,0,1,1,-4,0,-3,-2
1558441017178442,-2,-2,-3,-5,-11,-7,-6,-5
1558441017178442,2,0,2,1,3,-6,2,1
1558441017184791,-3,-1,-4,-12,-2,-5,-2,-2
1558441017184791,-3,-1,-1,0,-3,2,-2,0
1558441017199660,-1,-2,0,-3,0,-6,-4,-1
1558441017199660,-2,-3,-6,-3,-9,-2,-6,-3
1558441017207418,0,-1,-1,5,3,2,-1,1
1558441017207418,1,0,-2,-2,3,0,3,2
1558441017222614,-3,1,1,0,0,0,-2,1
1558441017222614,-3,-2,-2,-1,-7,-8,-7,-5
1558441017223321,0,0,-1,-1,-5,-8,-6,-2
1558441017223321,2,1,0,-5,8,14,11,3
1558441017238280,0,0,0,5,3,2,2,1
1558441017238280,-1,1,1,0,-1,-12,4,1
1558441017244399,-3,0,0,-2,-6,-5,-3,-4
1558441017244399,-2,-4,3,4,-3,1,-2,-4
1558441017259516,-3,-4,-7,-12,5,-2,-5,-1
1558441017259516,-1,-1,0,-4,-4,5,-1,0
1558441017275180,0,-3,-3,-1,-2,-8,-4,-1
1558441017275180,-1,0,-3,0,0,1,-1,1
1558441017282164,1,0,1,2,-1,-2,-2,1
1558441017282164,0,0,1,1,5,3,1,0
1558441017283159,-1,-2,-4,-2,-2,-4,1,0
1558441017283159,-1,-2,-1,-1,-6,-1,-3,-5
1558441017298120,1,2,0,-1,2,8,6,2
1558441017298120,2,-1,0,-1,0,-11,-4,-2
1558441017304105,-1,-1,-2,3,-2,1,-4,-2
1558441017304105,-1,1,-1,-2,6,1,-2,0
1558441017319062,-2,-1,1,-1,-10,-13,-1,-1
1558441017319062,-2,-3,-1,3,2,6,0,-1
1558441017327041,-3,0,-3,-12,-3,2,-4,-3
1558441017327041,0,-1,-1,-1,-4,2,-1,-1
1558441017342005,-2,-5,-2,0,-2,-2,-3,-3
1558441017342005,-3,-2,-4,-4,-7,-6,-5,0
1558441017349012,1,2,7,8,10,6,9,4
1558441017349012,-1,-1,-2,-7,5,-3,-2,-1
1558441017357959,-2,-1,-2,2,-5,-5,-3,-1
1558441017357959,-1,-1,0,-2,-3,-1,-3,-2
1558441017363943,-2,-3,-7,-4,-5,-1,-5,-4
1558441017363943,-1,-2,4,4,-2,-2,2,-1
1558441017378905,2,1,0,2,6,8,8,2
1558441017378905,0,-2,-2,-1,-1,-5,-2,-2
1558441017386883,0,-2,-1,-2,-3,-3,-1,-2
1558441017386883,0,-1,-2,-1,-3,-5,-1,2
1558441017401841,-2,-2,-1,-2,1,10,-3,-4
1558441017401841,-2,0,-1,-4,-10,1,-2,-2
1558441017408825,0,1,-1,2,-1,-11,0,0
1558441017408825,-1,-1,2,0,2,5,0,-2
1558441017417801,-2,-2,0,-2,-2,-6,-3,-3
1558441017417801,-1,0,-3,1,6,10,3,1
1558441017423784,0,1,2,1,-1,-6,-4,-3
1558441017423784,-3,-3,-7,-7,-4,3,-1,-1
1558441017438743,-2,-1,-1,-4,6,-5,-2,1
1558441017438743,-3,-4,-3,-5,-2,0,-2,-2
1558441017446722,0,-1,6,5,-1,-4,2,3
1558441017446722,2,0,0,0,2,5,0,0
1558441017461681,-3,-1,-3,1,-7,7,-1,-2
1558441017461681,-3,-3,-7,-6,0,-4,-1,-1
1558441017469660,-2,-1,0,0,2,3,-1,0
1558441017469660,1,-1,0,3,-2,-6,-4,-1
1558441017477638,-1,0,-1,-5,-10,-6,-5,-2
1558441017477638,0,0,1,2,3,0,3,0
1558441017484620,-1,-2,-2,2,0,4,-3,-3
1558441017484620,-2,-2,-4,-4,-5,-10,-7,-4
1558441017499580,1,1,0,-1,-2,-12,3,1
1558441017499580,0,-2,1,3,3,10,-2,-2
1558441017506561,-3,-3,0,2,-3,-1,-3,-2
1558441017506561,-2,-2,-2,-4,3,-6,5,2
1558441017521521,-2,-4,-9,-6,-3,-4,-5,-3
1558441017521521,-2,-1,-1,1,-9,-10,-3,-1
1558441017529500,0,0,1,-4,8,18,7,3
1558441017529500,-3,-1,-2,1,-5,-6,-2,-1
1558441017544460,-2,2,4,7,6,-2,1,2
1558441017544460,1,1,2,-1,-4,-2,1,1
1558441017545458,-1,-2,-4,-1,-3,-2,-3,-3
1558441017545458,0,0,0,0,4,12,3,-2
1558441017559420,-1,-2,-2,-2,-3,-1,-1,-2
1558441017559420,-1,-2,-4,-4,-7,-17,-11,-5
1558441017566402,-1,-1,-1,-3,0,0,1,2
1558441017566402,0,-1,1,1,-6,-3,2,1
1558441017581362,2,-2,2,2,15,15,2,-2
1558441017581362,-3,-1,-1,-2,-3,5,-1,-1
1558441017589341,2,1,1,2,-2,-4,0,0
1558441017589341,-2,0,-6,-4,6,-3,-2,0
1558441017605299,-1,0,-2,-5,-6,-8,-5,1
1558441017605299,-2,-3,-4,-5,-10,-11,-8,-4
1558441017605299,0,-1,5,3,7,12,4,0
1558441017605299,0,-2,-1,0,-3,4,-3,-2
1558441017619260,-1,-1,1,2,-1,-3,2,-1
1558441017619260,0,0,-2,2,15,10,6,1
1558441017635218,-4,-3,-4,-4,-10,-13,-8,-3
1558441017635218,-1,0,-3,-3,0,-2,-5,-1
1558441017641230,0,-3,-2,0,-1,3,1,1
1558441017641230,-2,-1,1,-2,-1,0,4,0
1558441017649182,-1,-1,0,-3,-1,-1,0,-2
1558441017649182,-3,-1,0,3,-5,-5,-2,-1
1558441017665137,0,0,-6,-9,1,3,0,-1
1558441017665137,-1,-1,-3,-8,-3,-1,-6,-3
1558441017665137,0,-1,-2,0,3,-3,3,3
1558441017665137,3,-1,4,3,4,-5,0,-1
1558441017679100,-1,-2,-3,0,-5,2,-2,-3
1558441017679100,-2,-4,1,0,-4,2,-1,-1
1558441017687080,0,-2,-5,-4,-7,-8,-7,-4
1558441017687080,-3,0,-1,-1,-3,-1,1,-3
1558441017702251,-1,-2,5,6,7,5,4,1
1558441017702251,-1,-3,-2,-4,-5,-3,-4,-4
1558441017709234,0,-2,-2,2,1,2,3,1
1558441017709234,1,0,2,2,12,9,5,0
1558441017725976,0,-1,2,4,-5,-1,-3,-1
1558441017725976,0,-1,1,-1,-3,-6,-3,1
1558441017726974,-4,-2,-6,-7,-9,-7,-7,-3
1558441017726974,-2,-1,-3,-3,-6,-3,-2,-2
1558441017738942,2,3,3,3,5,-1,6,3
1558441017738942,-1,-1,2,5,3,7,-1,0
1558441017746939,-2,-1,-3,-3,-8,-13,-2,-1
1558441017746939,0,0,0,-2,6,7,5,1
1558441017761879,-3,-1,-1,-2,-9,-5,-4,-1
1558441017761879,1,-1,-1,0,0,-14,-4,-1
1558441017768861,0,-1,-2,-2,-1,1,-3,-2
1558441017768861,1,0,-2,0,3,3,1,0
1558441017784817,-2,-2,0,-2,-8,-4,-2,-4
1558441017784817,-2,-1,-3,-2,4,1,2,-4
1558441017785818,-3,-3,-2,0,-3,6,1,-2
1558441017785818,2,1,3,2,10,-3,1,2
1558441017798908,-3,0,1,3,0,0,-3,-2
1558441017798908,-1,-2,-6,-7,-4,4,0,-1
1558441017806759,-2,-1,0,-1,-4,-1,-1,-1
1558441017806759,0,-3,-4,-4,-9,-9,-5,-1
1558441017821720,0,-1,0,-3,0,-2,-1,0
1558441017821720,1,1,4,6,10,2,1,3
1558441017828721,-3,-2,1,-1,-4,0,0,-3
1558441017828721,-2,-3,-5,-5,-8,3,-2,0
1558441017844658,-3,-1,-4,-1,-3,-12,-10,-5
1558441017844658,0,-2,-2,1,-2,2,6,1
1558441017845655,2,1,3,-1,10,1,4,4
1558441017845655,-3,-2,1,-3,-8,-2,-5,-3
1558441017859619,1,-1,0,-1,-1,-3,0,3
1558441017859619,-3,-1,-1,-2,-1,2,-3,-2
1558441017866600,0,0,1,2,0,-7,-1,-1
1558441017866600,0,0,-2,3,-4,-1,0,-1
1558441017881560,0,-1,-2,-5,-1,4,2,-1
1558441017881560,1,-1,-1,0,-6,-1,-2,-1
1558441017889538,0,-1,0,2,2,2,0,1
1558441017889538,-1,-1,-1,-3,-7,-19,-8,-1
1558441017904506,0,2,4,1,12,16,10,4
1558441017904506,-2,-2,-3,-1,-8,-6,-4,-1
1558441017905505,-2,-1,-2,-2,0,2,0,-1
1558441017905505,-3,-1,-4,-4,-10,-5,-4,-2
1558441017919474,0,-1,-2,0,9,2,3,0
1558441017919474,-1,0,-1,-1,-3,-6,-6,-3
1558441017926442,-1,-3,-1,-3,-4,3,-2,-3
1558441017926442,0,-2,1,-1,-1,0,-1,-3
1558441017941399,-4,-3,-2,0,-6,-4,-2,-1
1558441017941399,2,1,3,9,13,10,3,1
1558441017949379,-1,-5,-7,-13,-11,-7,-4,-3
1558441017949379,0,-1,0,3,5,4,4,0
1558441017965334,-1,-2,-1,-1,-5,2,-4,-1
1558441017965334,2,-1,3,-1,3,10,6,3
1558441017965334,0,0,-1,-1,-2,-14,-4,-1
1558441017965334,0,0,0,2,7,5,3,2
1558441017979298,-3,-2,-6,-7,-10,-4,-4,-4
1558441017979298,-2,-1,0,1,1,-1,0,-2
1558441017986279,1,1,2,5,4,6,2,2
1558441017986279,-1,-2,-4,-7,-6,-9,-1,-1
1558441018001245,-2,1,-4,-1,1,-7,-4,0
1558441018001245,-1,-2,-2,-4,-4,2,1,-1
1558441018009218,-1,0,3,-1,-5,-1,-1,-1
1558441018009218,-3,-1,-1,6,6,5,3,-1
1558441018025174,0,1,-1,-8,-1,2,4,-1
1558441018025174,-2,0,0,-2,-5,-5,-5,-1
1558441018025174,-1,-1,-4,2,-4,-12,-3,-3
1558441018025174,-2,-5,-2,-7,-13,0,-6,-4
1558441018040136,2,-1,-5,0,10,3,0,3
1558441018040136,-3,-1,-1,-3,-2,-6,-6,0
1558441018047116,1,1,-1,0,4,3,1,0
1558441018047116,1,-1,1,4,2,-5,-3,-2
1558441018062081,-3,-2,-1,-2,-4,0,0,-3
1558441018062081,-1,-2,-3,-6,-6,-5,-2,-2
1558441018069058,-1,2,2,4,10,7,4,0
1558441018069058,-1,-2,0,-2,-5,-1,-4,-1
1558441018092000,-1,-3,0,0,-3,-6,-3,-1
1558441018092000,0,-2,-5,-8,1,1,1,-3
1558441018093000,-2,0,-1,0,-5,0,0,-1
1558441018093000,0,-1,-2,-1,9,13,2,-1
1558441018100974,1,-1,0,-3,-5,-4,-3,0
1558441018100974,1,0,1,4,6,-1,-1,0
1558441018106960,0,-2,-3,-6,-7,-9,-4,1
1558441018106960,-1,0,2,1,-2,4,1,-1
1558441018121916,-3,-1,-2,-3,3,3,1,-1
1558441018121916,-2,-1,-1,-1,-8,-8,-5,-3
1558441018128898,0,-2,-1,-2,0,2,0,-1
1558441018128898,0,-1,-1,-1,0,-3,1,-1
1558441018144863,1,-2,1,4,-5,5,1,-1
1558441018144863,0,-2,-2,-1,-1,-6,0,0
1558441018145854,-2,0,-2,-1,-1,0,-4,-4
1558441018145854,0,-1,-3,-1,-4,0,0,-2
1558441018160812,-1,0,2,2,6,1,-2,1
1558441018160812,-2,-1,-6,-12,-11,-5,-3,-1
1558441018166796,1,0,5,4,9,14,6,1
1558441018166796,-1,0,-1,-1,-2,2,-1,-2
1558441018181757,-3,-2,-2,-3,-4,-2,-4,-2
1558441018181757,0,1,4,6,6,-1,0,1
1558441018188738,-2,-1,-9,-1,-6,-5,0,-1
1558441018188738,-1,0,-2,-7,-6,-9,-6,-3
1558441018204702,1,-2,-2,1,-1,1,1,-1
1558441018204702,-2,-1,0,4,0,-8,-1,-2
1558441018205698,-3,-2,-2,0,-2,-5,-4,-2
1558441018205698,-1,-1,-1,-3,-1,2,3,2
1558441018220655,-3,-1,-2,0,-3,-9,-4,-1
1558441018220655,-2,-2,-3,-2,-2,6,-3,-3
1558441018226637,-4,-3,1,0,1,-5,-3,-3
1558441018226637,2,0,-3,-9,-7,-3,4,0
1558441018241597,2,1,0,1,7,1,1,-1
1558441018241597,0,0,-1,-1,3,4,4,3
1558441018249575,0,-1,0,-1,1,1,-3,-1
1558441018249575,-3,-3,0,0,-5,-9,-8,-3
1558441018264536,-1,1,1,-2,-15,-10,-5,-3
1558441018264536,1,1,4,5,14,17,8,2
1558441018265533,0,-1,-4,-6,-2,-3,2,1
1558441018265533,0,0,5,10,11,7,2,1
1558441018280492,-2,-2,-10,-13,-5,-4,-4,-3
1558441018280492,-3,-5,-2,3,-8,-11,-7,-5
1558441018286476,-3,-1,0,-9,-6,3,2,-1
1558441018286476,-1,-1,2,0,0,-10,-3,-1
1558441018303432,3,-1,6,6,11,19,9,2
1558441018303432,-1,-4,-3,-2,1,-3,-5,-1
1558441018309415,-1,-1,1,0,0,0,-4,-2
1558441018309415,-3,-3,-2,-6,-9,-8,-7,-3
1558441018324385,-1,0,0,3,0,3,0,0
1558441018324385,-2,-1,-2,-2,-4,-1,-3,-2
1558441018331355,2,0,0,2,6,-6,7,3
1558441018331355,-1,1,-2,0,6,0,1,1
1558441018340332,-1,-2,1,0,-5,-5,-5,-2
1558441018340332,-1,-1,2,-1,-2,-4,-1,-2
1558441018346316,-2,-2,-6,-5,-9,1,-4,-3
1558441018346316,0,-2,-3,-2,-2,4,4,0
1558441018361278,0,-3,-3,1,4,-4,1,1
1558441018361278,-2,0,1,-2,-3,2,0,-1
1558441018369256,0,-1,1,4,-5,2,-5,0
1558441018369256,3,2,2,0,5,7,8,3
1558441018384215,-2,1,2,-1,5,1,3,1
1558441018384215,-2,-1,-2,-4,-8,-12,-6,-4
1558441018391197,-3,-4,2,0,2,5,-1,0
1558441018391197,-1,1,-3,1,-3,-6,-4,-2
1558441018400184,-2,-3,-3,-3,-8,-3,-4,-2
1558441018400184,3,1,-2,1,-1,-7,1,1
1558441018407152,-1,0,-3,1,6,6,0,-1
1558441018407152,0,0,2,3,8,7,3,1
1558441018422114,-1,0,2,-1,-4,-10,-2,-3
1558441018422114,-2,0,-3,-1,0,-1,0,-1
1558441018429098,-1,-3,-2,0,-6,-11,0,-2
1558441018429098,-2,-3,-7,-5,-3,0,-3,-2
1558441018444057,-1,0,2,2,-2,-4,-6,-4
1558441018444057,-2,0,-4,-7,-4,0,0,1
1558441018452038,2,2,4,2,11,7,6,4
1558441018452038,-2,-1,0,3,-1,6,1,-3
1558441018461009,-2,-2,-2,-2,-12,-4,-3,-1
1558441018461009,0,-1,-1,0,9,-7,1,0
1558441018466994,-1,0,-3,-3,-6,-7,-9,-2
1558441018466994,0,-3,2,3,-6,-2,-2,0
1558441018481953,-2,-2,-6,-5,4,9,3,-1
1558441018481953,-1,-1,-2,-1,-3,4,1,-1
1558441018488934,0,-1,-2,-1,-4,-13,0,0
1558441018488934,-2,-2,-1,0,-4,-7,-4,-2
1558441018505904,-1,2,-1,-4,0,-3,-2,-2
1558441018505904,0,0,1,-1,-6,1,-4,-2
1558441018511879,-3,-2,1,2,-2,-1,-3,-4
1558441018511879,2,3,2,0,4,-4,-1,1
1558441018526850,0,-1,-5,-2,-1,2,0,-1
1558441018526850,0,-3,2,4,10,13,6,0
1558441018527830,1,-2,-1,-5,-11,-3,0,-2
1558441018527830,-2,-2,0,-2,-8,-9,-6,-5
1558441018541795,-1,0,0,2,7,2,3,2
1558441018541795,-2,-3,-3,-4,-10,-15,-6,-1
1558441018548781,-2,-1,1,4,6,8,-1,-2
1558441018548781,1,0,-3,-1,4,6,-1,0
1558441018563737,1,-2,-1,-2,-3,-1,-2,-2
1558441018563737,0,-2,-1,-2,0,4,2,-1
1558441018571717,-1,-1,-3,-2,-7,-11,-8,-1
1558441018571717,-2,-1,3,2,3,4,6,3
1558441018587670,0,-1,1,-4,4,-4,-2,-2
1558441018587670,-1,-2,-5,-12,-5,1,-3,-2
1558441018587670,-2,-2,-3,-1,-2,-5,-4,-3
1558441018587670,-2,-1,-2,0,0,-1,3,0
1558441018601632,1,-1,6,5,3,2,5,0
1558441018601632,2,-2,-1,2,-1,-3,-1,-2
1558441018609611,-5,-1,-4,-6,-4,2,1,-1
1558441018609611,-3,-3,-4,-3,-4,2,-5,-5
1558441018624572,-3,-1,0,1,-3,-3,1,-1
1558441018624572,1,1,-1,1,2,-2,1,-1
1558441018631554,-2,-3,-4,-3,-2,2,-3,-1
1558441018631554,-1,-1,1,4,-2,0,-1,0
1558441018647511,-1,-2,-3,-10,-3,1,-3,1
1558441018647511,-2,-2,1,0,-4,-8,-5,-3
1558441018647511,2,1,6,8,11,6,7,3
1558441018647511,-2,-1,-4,-8,-9,-11,-5,-2
1558441018661472,-1,-1,-6,0,-2,2,-3,0
1558441018661472,0,-1,0,2,6,9,4,1
1558441018669452,0,0,0,-2,-6,-8,0,0
1558441018669452,-1,0,2,-3,5,-1,-5,-2
1558441018684411,-3,-3,-2,-3,-9,-1,-5,-3
1558441018684411,-3,-2,-2,-1,-2,-2,0,0
1558441018691392,2,0,1,2,6,-3,2,-1
1558441018691392,0,-2,-3,0,-2,1,2,-1
1558441018707356,3,1,1,-3,1,-1,0,0
1558441018707356,-4,-2,1,5,1,10,-1,-3
1558441018708347,-1,-3,-7,-16,-9,-11,-4,-3
1558441018708347,-2,-1,-2,0,2,2,3,0
1558441018721313,-3,-4,-2,0,-8,-9,-8,-4
1558441018721313,0,0,-4,-3,1,11,6,2
1558441018729291,0,0,3,3,1,-4,-3,1
1558441018729291,-3,-2,-3,-3,-3,-8,-3,-3
1558441018744251,0,1,2,5,4,-5,2,0
1558441018744251,-1,0,2,-2,2,4,0,-2
1558441018752231,-1,-1,-3,1,-4,9,-2,-2
1558441018752231,-2,-2,-2,-4,-4,-6,-3,0
1558441018767199,0,-1,1,1,-1,-10,-1,2
1558441018767199,-3,0,0,-3,-2,-6,-2,0
1558441018768190,-1,-2,-4,1,5,13,2,-1
1558441018768190,0,-2,2,1,-3,-4,-2,-1
1558441018782167,-1,1,1,-1,-4,-8,-1,-3
1558441018782167,-1,-2,-4,-6,-6,-9,-2,1
1558441018789131,-1,0,3,3,8,19,6,0
1558441018789131,1,0,-1,-2,0,0,-2,0
1558441018804095,-1,-1,-2,0,-4,-4,-1,1
1558441018804095,2,1,-1,5,12,12,4,0
1558441018812072,-1,-1,-3,-2,-9,-15,-9,-5
1558441018812072,1,-3,-6,-11,-3,1,0,-2
1558441018827030,-1,-2,-2,2,5,-4,-1,0
1558441018827030,-2,0,-3,-3,-3,-2,-2,-1
1558441018828039,0,0,-2,-5,0,-8,-1,1
1558441018828039,0,0,0,3,3,3,1,-1
1558441018841997,-2,0,4,1,-2,13,-1,-3
1558441018841997,-3,-2,-2,-5,-13,-12,-5,-4
1558441018848971,-3,-2,-1,1,3,4,2,1
1558441018848971,2,3,4,4,2,-2,-2,0
1558441018863931,1,0,-1,-1,7,11,8,4
1558441018863931,-3,2,1,3,1,-4,-3,-1
1558441018871913,-2,-3,-2,-4,-15,-9,-6,-7
1558441018871913,-1,-1,0,-5,2,5,4,1
1558441018886874,0,1,-1,0,5,-1,3,-2
1558441018886874,1,-4,-2,-4,-4,1,-2,-1
1558441018887870,0,1,1,3,4,1,-1,-1
1558441018887870,-1,-1,0,1,2,1,-2,0
1558441018901853,0,0,0,-1,-6,-6,-4,-1
1558441018901853,-4,-2,-4,-4,-10,-11,-5,-1
1558441018917788,-3,1,0,-1,2,4,1,1
1558441018917788,0,-3,-5,-6,-1,1,-1,0
1558441018923771,0,-1,0,4,3,8,3,1
1558441018923771,-3,-1,-1,0,-6,-14,-8,-5
1558441018931757,0,-1,-3,0,6,12,6,3
1558441018931757,0,1,1,2,-3,-4,-1,-4
1558441018947708,-2,-3,-5,-4,-7,-9,-6,-2
1558441018947708,1,-2,0,1,6,7,5,0
1558441018947708,1,1,2,-1,2,-4,1,0
1558441018947708,-2,-3,2,4,-7,-5,-4,0
1558441018961671,-1,-3,0,-1,7,11,1,-1
1558441018961671,-1,-3,0,-1,-4,-5,-2,2
1558441018969649,-3,-2,-5,-1,4,0,-1,0
1558441018969649,-3,0,-1,-3,-9,-9,-4,-3
1558441018984608,-3,-3,-6,-6,-10,-8,-8,-5
1558441018984608,2,0,0,4,6,5,5,2
1558441018991590,1,1,1,-6,1,-2,-2,-1
1558441018991590,0,-1,1,1,1,-1,2,0
1558441019007549,1,1,-1,-4,-5,-1,-1,-1
1558441019007549,-1,-1,0,-2,-1,-5,-3,-2
1558441019007549,-4,-5,-4,-5,-8,-7,-5,-3
1558441019007549,-1,2,1,1,9,15,9,3
1558441019021510,-2,-1,-1,-1,-5,-2,-3,-1
1558441019021510,-1,0,0,-2,-4,-9,-7,-1
1558441019029489,-4,-3,-1,3,-6,-10,-5,-4
1558441019029489,-2,-4,-11,-9,-1,5,-4,-4
1558441019044449,0,-2,0,2,7,11,4,1
1558441019044449,4,1,5,2,4,-18,6,6
1558441019051429,-2,-2,0,-3,-4,2,-1,-3
1558441019051429,-2,-3,2,0,-8,-7,-10,-5
1558441019067389,1,-1,-5,-1,-3,10,4,1
1558441019067389,-1,0,-2,-2,5,7,2,-1
1558441019068387,1,0,2,2,-2,-3,1,0
1558441019068387,-1,0,2,4,6,-2,3,-1
1558441019081352,-3,-2,-4,-7,-8,-10,-8,-5
1558441019081352,-1,-1,-2,-1,-4,3,-4,-4
1558441019089328,3,5,3,6,6,-3,8,5
1558441019089328,-2,-1,-3,-4,-2,2,-2,-2
1558441019105290,0,0,3,1,9,5,5,2
1558441019105290,-1,-1,-2,-1,1,0,-3,-2
1558441019111270,-2,-4,-5,-7,-3,0,-4,-1
1558441019111270,-3,-1,-2,-4,-16,-6,-5,-2
1558441019127229,0,3,1,0,11,-2,-3,-2
1558441019127229,0,-1,0,5,11,16,10,3
