timestamp,emg1,emg2,emg3,emg4,emg5,emg6,emg7,emg8
1558440057980902,0,1,3,-1,5,6,4,0
1558440057980902,-1,-1,-4,-4,1,3,0,0
1558440057987884,-1,-2,1,5,3,2,2,0
1558440057987884,0,-3,-5,-6,0,-2,-3,1
1558440057987884,0,-2,-2,-5,-5,-7,-2,-2
1558440057987884,0,1,7,10,6,11,5,1
1558440057988881,-3,-3,-4,-3,-5,-6,-4,-3
1558440057988881,-1,-1,-1,-4,-2,1,-4,0
1558440058000849,0,1,-2,2,-2,-2,-4,-2
1558440058000849,-1,-1,-3,-3,-6,-2,-3,-3
1558440058008828,3,1,5,-2,5,3,5,0
1558440058008828,1,0,-4,1,3,-2,5,1
1558440058014812,-1,-2,-1,3,10,-1,-1,1
1558440058014812,-3,-2,-5,-6,-10,-3,-8,-3
1558440058029772,-1,-2,-3,-4,-1,6,-2,0
1558440058029772,1,1,6,4,4,1,2,2
1558440058038747,-1,1,9,4,-6,-10,-5,-3
1558440058038747,-1,-3,-22,-12,0,3,1,-3
1558440058045729,0,0,-2,1,1,-4,-2,-3
1558440058045729,-1,-1,-1,-3,-12,-7,-4,-5
1558440058060689,-1,-4,-3,-2,-3,-2,-5,-3
1558440058060689,1,2,3,5,16,6,10,7
1558440058068667,-3,-2,-1,-3,-6,-3,-5,-2
1558440058068667,0,0,-1,-2,5,3,0,-1
1558440058107564,0,-1,-1,-6,-5,-8,-5,-1
1558440058107564,-1,-2,-1,7,-2,-2,-1,0
1558440058108562,-1,0,4,1,-3,3,-2,-2
1558440058108562,0,-2,-11,-5,8,-2,0,-1
1558440058109560,1,1,-1,5,-1,0,1,2
1558440058109560,-3,-2,-5,-3,-14,-11,-6,-4
1558440058112550,0,-5,-5,-4,2,-1,-1,-2
1558440058112550,1,2,10,6,5,4,3,2
1558440058120530,-2,-4,-8,0,-3,0,-1,-2
1558440058120530,0,-4,-3,-5,-2,3,-2,-2
1558440058127510,0,2,7,0,-2,1,-1,0
1558440058127510,0,-4,-3,2,3,6,2,1
1558440058134490,-2,-2,-1,-3,0,-2,0,-1
1558440058134490,0,1,3,-2,5,5,6,4
1558440058149451,-2,-4,-5,-2,-5,-1,-6,-4
1558440058149451,-2,-2,2,-4,-6,-3,-5,-3
1558440058157431,0,-1,-2,-2,3,-2,1,-2
1558440058157431,-1,1,3,-1,2,-2,-1,-1
1558440058165409,-1,0,-5,1,-6,-5,-2,2
1558440058165409,-2,1,-1,-1,-4,0,3,0
1558440058180369,-2,-1,3,-1,-3,1,-4,-4
1558440058180369,0,-3,-5,-1,-2,2,1,-3
1558440058187352,-1,-1,-2,0,11,1,1,3
1558440058187352,2,0,2,-2,-18,-9,-7,-5
1558440058202311,-2,-3,-3,0,9,17,7,1
1558440058202311,1,1,6,1,3,-5,-3,1
1558440058209292,0,-1,-1,-4,-6,-5,-4,-4
1558440058209292,-3,-4,-6,-3,-6,-7,-4,-4
1558440058217271,1,1,9,4,1,-2,-4,-2
1558440058217271,0,-2,-10,-5,2,6,5,1
1558440058226247,-2,0,1,0,0,-6,2,1
1558440058226247,0,-1,-3,0,7,4,2,-1
1558440058240210,-1,-2,-4,0,-9,-8,-6,-3
1558440058240210,-3,-2,-2,0,1,3,-3,-3
1558440058247191,0,-1,-2,0,4,3,0,-2
1558440058247191,0,1,8,-1,-9,-5,-4,-2
1558440058254171,-2,-3,-10,-5,5,4,3,2
1558440058254171,-2,-2,-1,-2,-6,-9,-9,-4
1558440058269131,0,2,2,1,0,5,6,1
1558440058269131,-4,-2,-5,-2,-5,-6,-6,-3
1558440058277110,1,3,8,3,6,4,0,0
1558440058277110,-4,-3,-5,-5,-7,-10,-2,0
1558440058286086,0,-1,1,0,-1,-2,-1,-1
1558440058286086,-1,-2,-5,-3,4,1,-2,-2
1558440058300049,1,1,0,1,-4,-1,0,-1
1558440058300049,1,2,4,1,2,-1,1,0
1558440058307030,-1,-2,2,-1,-2,-4,-1,-4
1558440058307030,-2,-1,-2,1,0,-4,-1,1
1558440058315009,-3,-3,-4,-4,-4,-10,-5,-2
1558440058315009,-1,0,0,-3,3,13,5,1
1558440058329969,0,0,-5,-1,-5,-3,-4,0
1558440058329969,-1,0,1,-1,2,2,-3,-1
1558440058336956,-2,-4,-5,1,-1,-2,-2,-2
1558440058336956,1,0,1,1,-1,-8,-2,-1
1558440058351910,-2,-1,4,2,4,1,2,0
1558440058351910,1,-2,-3,-2,1,3,2,0
1558440058359889,-1,1,9,-1,-7,-3,0,0
1558440058359889,-1,-2,-8,-2,-4,0,-6,-2
1558440058366870,-2,-2,-9,-5,0,4,-1,-1
1558440058366870,-3,0,5,2,-4,-4,-1,-3
1558440058374849,0,0,1,-2,-3,3,1,0
1558440058374849,-3,-3,-6,0,4,-3,3,2
1558440058389809,0,-1,2,1,-4,-5,-5,0
1558440058389809,-3,-1,-3,-1,5,4,3,2
1558440058396792,1,0,-2,-2,-2,0,0,-1
1558440058396792,0,0,3,1,-2,1,-3,-3
1558440058413747,-1,-1,-1,-2,3,3,2,0
1558440058413747,0,0,-3,0,-1,2,2,4
1558440058420726,1,0,2,0,6,0,2,1
1558440058420726,1,0,1,-1,1,5,1,-1
1558440058426711,-2,-2,-3,-4,-6,-8,-7,-4
1558440058426711,1,0,-2,-2,-2,-2,1,-3
1558440058434689,-2,-1,0,0,1,-3,-1,-1
1558440058434689,-1,-1,-1,0,-4,-6,-4,-3
1558440058449649,-1,-2,-4,-8,-8,-4,-7,-4
1558440058449649,-3,-1,-1,1,6,8,-2,-1
1558440058456630,1,1,-2,-1,-6,-11,4,4
1558440058456630,-2,0,0,1,8,6,2,2
1558440058471590,-1,2,-3,-3,-3,1,-1,-3
1558440058471590,-2,-2,2,-3,-5,-7,-1,-2
1558440058480565,-1,0,-5,1,7,-10,-2,1
1558440058480565,-1,2,2,0,6,7,3,1
1558440058486551,1,0,5,5,-2,4,5,0
1558440058486551,0,-5,-5,-5,-4,-1,-6,-5
1558440058494528,-3,-5,-5,-7,-16,-5,-7,-5
1558440058494528,2,4,6,2,9,-1,10,7
1558440058509489,-2,0,3,5,3,-4,-3,2
1558440058509489,-3,-3,-9,-7,-3,4,-1,-1
1558440058517466,-3,-3,-3,-2,-14,-8,-9,-6
1558440058517466,-1,-1,2,-4,-10,-1,-5,-2
1558440058532426,-2,-3,-8,3,13,3,3,3
1558440058532426,4,2,7,3,3,-10,0,3
1558440058540408,-1,-2,-2,-1,4,11,-2,-3
1558440058540408,-2,-6,-6,-6,-16,-4,-7,-6
1558440058547387,-2,-2,-2,-2,-3,-1,-4,-1
1558440058547387,2,1,4,0,7,3,6,4
1558440058554369,1,2,0,0,8,6,3,0
1558440058554369,0,0,1,4,-1,-1,0,-3
1558440058569328,-2,-1,-2,-2,-3,-1,-2,-2
1558440058569328,-3,0,-4,-2,-6,-10,-8,-3
1558440058577307,-3,-1,-1,0,1,4,3,1
1558440058577307,-3,-1,-1,0,-2,-4,-1,1
1558440058592267,1,-2,-7,-7,-8,-3,-4,-5
1558440058592267,0,-1,-3,-2,2,3,-3,-1
1558440058600246,2,2,3,4,9,7,3,3
1558440058600246,-1,-4,0,1,1,-3,-2,0
1558440058607228,-2,-3,-6,-4,-4,-2,0,-2
1558440058607228,-1,-1,3,0,-16,-11,-5,-4
1558440058614209,1,0,2,-2,2,6,-2,-2
1558440058614209,-1,-4,-18,-5,-1,-6,2,1
1558440058629168,2,-1,7,3,4,-5,5,3
1558440058629168,0,0,7,3,-1,9,-1,-1
1558440058637148,0,2,-6,1,0,2,-2,0
1558440058637148,-3,-1,-2,-3,-7,-7,-5,-2
1558440058652107,-2,0,-1,-2,-2,6,0,0
1558440058652107,-1,-2,-5,-1,4,-9,-1,1
1558440058660085,0,-3,5,2,-5,-3,-2,-2
1558440058660085,1,1,2,-3,3,3,1,0
1558440058667067,-3,-3,-3,-3,-4,-3,-3,-2
1558440058667067,-1,-1,4,1,0,5,1,0
1558440058683025,-4,-1,0,-4,-9,-6,-4,-2
1558440058683025,-1,-2,-5,-1,4,-1,1,-4
1558440058689008,-2,1,4,0,1,1,-1,-1
1558440058689008,0,0,-5,-3,2,9,4,-3
1558440058696987,2,-3,0,0,1,-5,0,3
1558440058696987,0,1,0,1,-3,-2,-5,-2
1558440058711946,-2,-1,-1,-2,-2,-4,-3,1
1558440058711946,-3,-3,-7,-2,-4,1,1,-1
1558440058719925,-4,-2,-7,-4,-7,2,-6,-4
1558440058719925,1,2,7,3,10,8,3,2
1558440058726908,1,1,1,1,0,-9,1,4
1558440058726908,-2,-1,-1,-1,0,4,3,-1
1558440058742864,-2,-2,0,-4,4,3,-2,-2
1558440058742864,-1,0,-1,2,-2,-5,-3,1
1558440058749845,1,-2,-2,-4,-1,3,0,-3
1558440058749845,-2,-1,-2,0,-4,1,-2,-1
1558440058756827,-1,-2,4,3,-5,-9,-8,-4
1558440058756827,0,-1,-5,0,3,6,5,1
1558440058771787,1,1,-5,-5,3,-5,3,2
1558440058771787,0,1,-1,0,2,0,-3,0
1558440058779766,-3,-4,-8,-4,-9,-3,-5,-3
1558440058779766,0,-1,9,5,4,7,2,0
1558440058787745,-3,-3,-9,-3,-2,4,1,-1
1558440058787745,0,0,4,-3,6,1,-2,1
1558440058802704,0,-2,0,0,-2,-2,2,3
1558440058802704,-1,0,1,-2,-7,-5,-8,-2
1558440058809686,-2,-6,-5,-3,-4,-2,-5,-5
1558440058809686,1,1,0,2,4,1,4,-2
1558440058816673,-2,-1,-5,-3,3,-2,2,-2
1558440058816673,1,1,8,2,1,-5,-2,0
1558440058831631,-4,-4,-2,-3,-2,-1,-1,-2
1558440058831631,-4,-4,-6,-3,-6,-6,-7,-1
1558440058840603,0,-1,0,-1,3,4,4,1
1558440058840603,0,0,1,-2,-4,-9,-3,0
1558440058847584,-2,2,3,3,1,1,0,0
1558440058847584,2,0,-4,-3,-9,-12,-3,-3
1558440058862548,0,2,-2,-1,6,4,2,0
1558440058862548,-2,-1,-2,2,2,4,-1,-2
1558440058869526,-1,0,-5,-3,-5,5,0,-1
1558440058869526,0,-2,0,1,8,3,2,1
1558440058877506,0,-2,-1,2,-1,-4,4,0
1558440058877506,-2,0,4,-1,-7,-5,-5,-2
1558440058892465,-3,-5,-9,-4,-3,0,-9,-3
1558440058892465,-2,1,5,3,-4,-3,-4,-3
1558440058900445,0,-1,-9,-7,0,4,2,0
1558440058900445,-1,-1,-1,0,9,8,3,1
1558440058907427,1,1,8,5,3,6,5,0
1558440058907427,-2,-3,-2,-3,-4,-6,-5,-2
1558440058922385,-1,1,0,1,-6,-5,-4,-1
1558440058922385,1,0,-4,-5,-6,-6,1,1
1558440058929373,-4,-1,0,1,0,4,-3,0
1558440058929373,1,-3,-3,1,5,7,2,0
1558440058937345,0,-1,2,0,-4,-4,-4,-1
1558440058937345,-1,-1,-3,0,-1,2,1,-2
1558440058952317,-1,-2,-4,-2,0,-1,1,-1
1558440058952317,0,-1,1,0,-3,-2,2,0
1558440058960284,-2,-1,0,-1,-3,-2,-3,-1
1558440058960284,-3,-4,-7,-8,-14,-9,-6,-4
1558440058967266,2,3,6,4,0,0,3,2
1558440058967266,1,2,2,1,9,2,3,1
1558440058983222,-1,0,1,1,4,7,5,0
1558440058983222,-3,-1,-1,0,0,-4,-4,-2
1558440058989206,-1,1,-2,-2,-4,1,-1,0
1558440058989206,-1,-1,-3,-3,-9,-3,-3,-1
1558440058997184,0,-1,1,-2,-3,-7,-3,-2
1558440058997184,-1,-4,-2,0,-3,6,1,-1
1558440059012148,0,-1,0,1,6,-7,-2,-1
1558440059012148,-1,-1,-7,-3,-3,-9,-4,-2
1558440059020124,0,0,-1,-1,0,-5,-3,-4
1558440059020124,-4,-1,-2,-2,2,6,1,-2
1558440059027106,1,-1,4,1,1,6,3,-1
1558440059027106,0,0,1,-3,-4,-7,0,1
1558440059043062,-4,-3,1,0,-1,-4,-4,-1
1558440059043062,0,-1,0,2,1,-3,0,1
1558440059050050,-4,-5,-3,1,1,3,-1,0
1558440059050050,-1,0,-1,-4,-2,2,-3,0
1558440059057024,-1,-2,-3,-2,-7,-6,-2,-1
1558440059057024,0,1,1,-1,-2,-7,-1,-1
1558440059071988,1,3,4,1,0,-7,0,-1
1558440059071988,-3,-3,2,1,3,3,-3,-2
1558440059079970,-1,-3,-2,-1,-10,-11,-4,-2
1558440059079970,-2,-5,-14,-7,0,3,0,0
1558440059094929,-1,0,-2,-1,0,-1,-1,0
1558440059094929,-3,-1,5,1,-6,-1,-3,-2
1558440059102903,1,-1,-1,3,10,13,7,3
1558440059102903,-4,-4,-14,-7,-6,-8,-4,-3
1558440059117867,0,-3,-3,-1,1,8,2,-4
1558440059117867,-3,1,1,-1,-5,-3,-2,-3
1558440059118864,-2,-1,0,0,5,-7,2,2
1558440059118864,-1,2,5,1,-4,1,0,-1
1558440059131829,-1,-3,-3,-4,-1,-5,-5,-1
1558440059131829,-1,-1,0,2,3,-10,2,1
1558440059139806,0,0,2,-1,1,8,3,0
1558440059139806,0,-2,-3,-1,-3,2,-5,-2
1558440059154766,0,0,1,-2,-3,3,-5,-3
1558440059154766,1,-1,-2,-2,2,-3,3,1
1558440059162748,-1,-1,-3,-3,-5,-12,-4,-2
1558440059162748,-2,0,2,1,-4,4,1,-1
1558440059177701,0,1,3,-1,2,2,1,-1
1558440059177701,-2,-5,-6,-5,-6,-4,-2,-2
1558440059178699,-2,0,-1,1,4,3,0,1
1558440059178699,0,0,5,0,0,2,-3,-1
1558440059191663,2,1,-1,-2,4,1,0,0
1558440059191663,-3,-3,-4,-3,-5,6,1,0
1558440059199649,-2,1,1,-3,-4,-5,-2,0
1558440059199649,-2,1,-2,-1,-1,-9,-4,-1
1558440059214610,1,2,3,2,-3,-5,0,-2
1558440059214610,-1,-2,-1,1,2,7,-2,-2
1558440059222580,0,-2,-7,-1,-2,7,1,-1
1558440059222580,1,-3,1,-3,-7,-5,-4,-1
1558440059237547,0,-1,1,0,-5,-6,-5,0
1558440059237547,3,0,-2,-5,1,1,3,3
1558440059238537,3,2,3,2,7,-5,1,3
1558440059238537,-1,1,-1,-2,-2,-3,0,-2
1558440059252526,-4,-3,-7,-5,-10,-7,-6,-5
1558440059252526,-2,1,3,3,3,5,0,0
1558440059259593,0,-3,-1,-3,-1,12,3,0
1558440059259593,-1,-2,5,3,9,2,3,0
1558440059274549,0,1,-5,-2,9,5,2,1
1558440059274549,-3,-5,-11,-6,-11,-10,-8,-6
1558440059282527,-1,1,0,-1,-4,-12,-5,-2
1558440059282527,-1,-1,2,-3,-3,-1,0,-1
1558440059297383,-2,-5,0,-1,-8,-9,-5,-2
1558440059297383,0,1,-2,2,6,8,2,1
1558440059298380,2,1,5,2,5,6,6,3
1558440059298380,-3,-4,-12,-6,-1,-3,-3,-3
1558440059312570,-4,1,1,0,-7,-11,-5,-2
1558440059312570,1,2,8,3,5,2,6,2
1558440059319417,-3,-5,-8,-4,-1,6,0,-3
1558440059319417,-1,-1,-1,0,-5,-1,-5,-3
1558440059334497,0,0,-1,1,6,5,3,0
1558440059334497,-1,-1,-2,-2,-7,-5,-2,0
1558440059343316,0,-1,-1,-1,-6,-11,-8,-5
1558440059343316,-2,0,4,3,0,3,6,3
1558440059358220,-2,-1,-1,-3,-2,-13,-6,-1
1558440059358220,-2,-4,-6,-1,-2,7,-1,-3
1558440059358220,0,-2,1,0,3,-3,-3,0
1558440059358220,-1,-1,-3,1,4,-1,1,2
1558440059372183,0,1,4,0,-5,-1,2,2
1558440059372183,-2,-4,-3,0,0,1,-1,-3
1558440059379164,-3,-2,-4,-3,-4,0,-5,-3
1558440059379164,-1,-1,0,-2,-5,-6,-5,-3
1558440059394128,1,-1,2,1,11,11,6,1
1558440059394128,0,0,-2,1,-1,-6,-2,-2
1558440059403104,-2,-1,1,-2,1,10,4,1
1558440059403104,1,1,0,-1,-2,-13,1,-1
1558440059418238,-1,-2,-5,-2,0,-1,-1,-3
1558440059418238,-1,0,-1,-1,1,0,-1,-1
1558440059418238,-4,-3,2,0,-7,0,-6,-3
1558440059418238,0,-3,-2,-1,0,4,-1,-1
1558440059432187,-1,1,6,0,-6,-6,-3,-1
1558440059432187,1,3,3,0,2,-2,5,5
1558440059440162,-3,0,-11,-3,2,5,1,0
1558440059440162,-2,-2,-2,-5,-2,0,-7,-3
1558440059454962,-3,-6,-5,-1,-3,-2,-1,-4
1558440059454962,-1,0,5,1,-1,-9,-4,0
1558440059463105,-1,-2,1,-1,-4,-3,-3,-2
1558440059463105,1,3,1,4,9,8,6,2
1558440059477936,-2,-1,-1,-3,-2,-5,-2,-2
1558440059477936,1,-1,0,-3,-5,-2,-5,-1
1558440059478897,2,0,0,4,6,2,6,3
1558440059478897,-2,-2,1,-1,3,6,0,0
1558440059492066,0,0,0,1,0,2,2,1
1558440059492066,-4,-5,-6,-6,-3,-5,-6,-5
1558440059500058,-1,0,-4,-4,-5,1,-4,-5
1558440059500058,0,-2,-1,-1,-4,-9,-3,0
1558440059515097,-1,1,0,0,3,8,1,0
1558440059515097,3,0,-4,-1,6,-5,1,1
1558440059522785,-1,-1,1,2,1,-5,-4,-1
1558440059522785,1,0,1,0,1,9,2,0
1558440059537742,0,-4,-6,-3,-8,-8,-3,-1
1558440059537742,-1,-1,1,0,-3,-5,-1,-1
1558440059538738,-3,1,-1,2,1,-1,2,2
1558440059538738,-2,2,0,2,5,8,5,3
1558440059552752,-2,-1,-5,-4,-10,-5,-4,-4
1558440059552752,-4,-3,-3,-2,-1,13,1,-2
1558440059559872,3,0,0,1,-1,-17,-3,0
1558440059559872,-2,-3,-2,1,4,2,-3,0
1558440059574644,-2,0,0,-2,-7,-1,-4,-2
1558440059574644,-1,-2,-3,1,0,0,2,-3
1558440059582621,-2,1,3,-1,0,-1,2,0
1558440059582621,-2,-4,-15,-7,-5,-8,-6,-2
1558440059596583,2,1,1,5,8,7,4,3
1558440059596583,-2,-2,-3,-5,-7,-3,-6,-2
1558440059605556,-2,-5,4,0,-10,0,-10,-6
1558440059605556,2,-1,-2,-2,-3,-12,3,1
1558440059611541,0,0,0,1,6,-4,4,2
1558440059611541,-2,1,0,-1,1,0,0,-1
1558440059619519,-1,-3,-3,-2,1,-1,-1,-2
1558440059619519,0,-1,0,-1,2,8,3,-2
1558440059634478,-1,-3,-3,-4,-4,1,-4,-4
1558440059634478,-2,-2,-2,-2,-8,-3,-6,-2
1558440059642458,-1,0,2,-1,1,-2,-1,-2
1558440059642458,-1,-2,3,2,1,-2,2,0
1558440059657417,-1,0,-1,-1,3,2,3,1
1558440059657417,-2,0,-2,0,7,3,1,-1
1558440059665397,-4,-5,-8,-3,-12,-8,-11,-3
1558440059665397,0,-1,1,-3,-3,11,0,0
1558440059672720,-3,-3,-3,-1,-2,3,-1,1
1558440059672720,2,2,7,3,8,-4,3,1
1558440059679424,-1,-6,-9,-6,-3,0,-1,-4
1558440059679424,-1,2,-1,-1,-5,-10,0,-2
1558440059694384,0,0,0,-1,-1,0,2,0
1558440059694384,-1,0,4,4,2,6,4,4
1558440059703314,-3,-1,-5,-3,-1,0,0,-1
1558440059703314,-1,-1,3,-2,-2,-3,-5,-5
1558440059717260,-4,-6,-10,-9,-13,-2,-9,-8
1558440059717260,-1,-3,-4,-3,-4,-15,-5,-3
1558440059725362,1,1,6,5,14,14,9,5
1558440059725362,-2,-2,-9,-4,-6,-14,-5,-1
1558440059732331,1,2,12,6,3,-2,1,-1
1558440059732331,-3,-5,-9,-9,-4,3,-3,-2
1558440059739211,-3,-3,-3,-2,-8,1,-2,-5
1558440059739211,-3,-2,-2,-3,-4,0,0,-2
1558440059754169,1,4,8,4,10,-9,7,6
1558440059754169,0,-3,-8,-4,-5,-3,-5,-1
1558440059763182,2,1,-5,-2,3,1,0,0
1558440059763182,-1,-5,1,-1,-3,2,-4,-4
1558440059777412,-1,-5,-7,-3,-3,-1,-1,-1
1558440059777412,-1,0,4,1,2,6,2,0
1558440059785084,-2,-1,1,1,5,-7,0,2
1558440059785084,1,2,3,5,6,4,5,4
1558440059800055,-2,-2,-1,-5,-7,-3,-5,-4
1558440059800055,-2,-3,-2,-1,-8,-3,-4,-1
1558440059801045,0,0,1,-3,4,7,7,3
1558440059801045,1,-1,2,1,5,-6,-4,-1
1558440059814998,-3,-1,-2,1,-8,-2,-5,-3
1558440059814998,-2,-1,-1,-5,-4,-2,-3,-2
1558440059822979,-1,-2,-1,-3,-1,0,-3,-3
1558440059822979,3,2,6,-2,-10,-11,-5,-2
1558440059836937,-2,-2,-11,-4,1,1,-1,-2
1558440059836937,1,-1,2,3,7,-2,8,1
1558440059844916,0,0,1,-2,-9,-8,-7,-3
1558440059844916,-3,-1,0,-2,-11,4,-5,-4
1558440059859875,-3,-5,-9,-6,4,4,-3,-4
1558440059859875,-2,2,4,3,7,2,3,1
1558440059860884,-3,-2,0,0,-2,-9,0,-1
1558440059860884,1,-2,-1,0,1,-5,-5,-1
1558440059875100,-2,-4,-4,0,-6,-2,-1,-3
1558440059875100,-1,-1,-2,1,2,4,-1,-2
1558440059882815,0,0,-1,-2,-7,2,2,0
1558440059882815,-3,-3,-1,-2,-3,-5,-5,-1
1558440059897838,2,4,2,1,7,-4,0,4
1558440059897838,-2,-4,-8,-3,-7,0,-3,0
1558440059905966,-2,0,-1,0,-3,-3,-1,-1
1558440059905966,-1,-1,-4,-1,-4,-2,1,-3
1558440059919718,-2,-1,2,-1,2,2,-1,-1
1558440059919718,0,-1,-1,3,6,9,2,1
1558440059920715,2,1,3,0,-3,-12,1,-1
1558440059920715,-2,-2,-10,-5,0,-1,-2,-1
1558440059935191,-1,-2,0,2,-3,2,1,-3
1558440059935191,0,0,2,-3,-4,-1,-1,-3
1558440059942656,-1,-2,1,-1,1,-1,-4,-2
1558440059942656,1,-1,0,1,3,6,6,2
1558440059966636,0,-1,-4,-1,-11,-15,-8,-2
1558440059966636,-1,-1,-2,-2,-3,-4,-5,-2
1558440059966636,-1,-3,-4,-1,-1,6,-3,-3
1558440059966636,-2,1,1,1,6,3,-3,-1
1558440059980774,1,1,4,0,3,5,4,2
1558440059980774,0,1,5,3,1,-3,0,1
1558440059980774,0,-1,-8,-5,-2,5,-3,-2
1558440059980774,-2,-5,-6,-4,-7,3,0,-5
1558440059994520,1,-1,-2,-1,-2,-9,-6,-2
1558440059994520,0,-2,-1,-1,-4,0,2,-1
1558440060002495,-2,0,1,0,0,0,0,0
1558440060002495,-2,0,-2,-4,1,-3,0,-1
1558440060017456,0,0,5,0,1,8,5,2
1558440060017456,-1,2,3,3,0,-2,-3,-1
1558440060024436,-2,-4,-16,-5,2,4,-1,-1
1558440060024436,-1,-2,-3,-8,-15,-17,-7,-1
1558440060040403,-1,-1,1,2,7,11,1,-2
1558440060040403,2,2,3,1,1,-2,3,-1
1558440060041397,1,1,5,2,3,0,2,-2
1558440060041397,-2,-3,-6,0,8,14,4,0
1558440060055354,-1,-1,0,-2,-1,-4,1,0
1558440060055354,-1,-4,-4,-7,-9,-5,-5,-3
1558440060062708,0,0,5,4,9,3,-2,0
1558440060062708,1,-2,0,-3,-6,1,-1,0
1558440060077679,-2,-1,-2,-1,-4,-4,-3,-1
1558440060077679,-2,2,-3,-2,-6,-4,0,-2
1558440060085657,-2,3,1,2,11,1,5,5
1558440060085657,1,1,6,3,-2,2,0,-2
1558440060100616,-2,-3,-5,-2,2,6,0,-3
1558440060100616,-2,-3,-2,0,-2,-2,0,-2
1558440060101231,-1,-2,0,-6,-12,-15,-6,0
1558440060101231,-4,-1,2,2,-1,-9,-6,-2
1558440060115332,0,3,1,3,2,3,5,2
1558440060115332,-2,-4,-2,-2,2,-13,-3,-1
1558440060123467,-2,-2,-6,-4,-9,3,-1,-4
1558440060123467,-1,-1,-2,-1,3,5,-1,-3
1558440060137135,2,0,0,0,3,-1,-1,1
1558440060137135,-2,-2,0,-3,-3,-7,-5,-3
1558440060153092,-1,1,4,3,0,5,0,-1
1558440060153092,-2,-2,-7,-2,-2,2,0,-1
1558440060160073,1,0,6,2,-1,-9,-3,-2
1558440060160073,0,0,-5,-4,6,3,6,2
1558440060161071,-2,-3,0,1,-4,-6,-3,-2
1558440060161071,1,0,-6,-3,-8,-4,-5,-2
1558440060175263,-1,-5,-3,-5,0,9,1,-4
1558440060175263,2,2,2,5,7,2,-2,3
1558440060183260,0,-4,-6,-2,2,4,2,0
1558440060183260,-2,1,4,1,1,-2,0,1
1558440060197207,-3,-2,-4,-2,-3,0,0,-1
1558440060197207,-1,-2,1,1,-4,-2,1,0
1558440060205185,0,-1,1,-4,-8,-4,-3,-2
1558440060205185,-1,0,0,1,3,1,0,0
1558440060219929,0,1,1,-1,-1,1,0,-2
1558440060219929,-3,-4,-6,-1,1,3,-5,-3
1558440060220912,0,2,2,1,-5,-9,-2,-1
1558440060220912,0,-2,0,1,6,0,4,1
1558440060234876,-3,-3,-1,-3,-4,-13,-9,-1
1558440060234876,1,0,2,0,-2,5,-3,-1
1558440060242851,-1,-1,2,1,1,6,3,0
1558440060242851,-2,-1,-2,-1,-5,-5,-6,-4
1558440060257841,-1,-3,-9,-5,0,-3,1,-1
1558440060257841,-1,1,2,-2,8,6,3,2
1558440060266221,-2,-2,-5,-3,-6,-2,-4,-2
1558440060266221,-3,-1,5,0,0,2,-1,1
1558440060281000,0,-1,1,-1,0,-3,-3,-2
1558440060281000,0,-2,-1,2,3,2,4,2
1558440060281000,-1,0,4,1,-2,-1,-3,-1
1558440060281000,-2,-2,-2,-1,3,-2,5,1
1558440060295030,0,0,1,-2,-5,-8,-2,-1
1558440060295030,-4,-2,-4,-1,-3,6,-1,-2
1558440060302722,1,1,2,1,3,-6,0,1
1558440060302722,3,-1,-3,-5,-2,-2,0,-3
1558440060317726,0,-2,1,1,-4,5,0,-2
1558440060317726,1,0,-1,-6,0,-7,4,0
1558440060325632,-3,-1,-2,-1,-2,2,-4,-3
1558440060325632,-2,-3,2,0,2,-6,-2,0
1558440060340830,-1,2,-1,0,2,3,2,1
1558440060340830,-2,-1,-1,0,-2,1,0,-2
1558440060340830,-1,-1,-1,-1,0,2,-1,-1
1558440060340830,0,0,6,4,1,5,-2,-1
1558440060354557,-1,-2,-8,-2,-1,6,-3,0
1558440060354557,0,-1,0,2,6,-4,1,3
1558440060363531,-1,-1,-7,-4,-1,-11,0,2
1558440060363531,-1,-1,2,-1,-2,-3,0,0
1558440060377495,-2,1,4,-1,-2,0,-4,-2
1558440060377495,-4,-4,-6,-4,-15,-2,-11,-6
1558440060385666,1,0,2,2,9,3,9,4
1558440060385666,2,0,-3,-3,-1,-1,1,0
1558440060400642,-2,-2,3,0,5,-2,0,2
1558440060400642,-2,-2,-5,-2,-4,-5,-1,-6
1558440060401430,-2,-3,-3,-3,-10,-8,-8,-4
1558440060401430,0,-1,-4,4,-1,0,-1,-2
1558440060414427,0,0,-2,-2,-3,-3,0,0
1558440060414427,-1,-2,1,1,1,7,1,0
1558440060422373,-1,0,2,0,8,-1,-1,-1
1558440060422373,-2,-3,-6,-1,-1,3,-1,1
1558440060437333,-2,-2,0,0,-4,-5,-4,-3
1558440060437333,1,-2,-2,-6,-10,-8,-7,-5
1558440060445312,0,-2,0,1,-2,-1,-1,-1
1558440060445312,0,-3,0,-3,-6,-2,-2,-1
1558440060460270,-1,-2,0,0,-5,-2,-1,-1
1558440060460270,-2,-2,-2,2,7,8,0,0
1558440060461268,0,-2,-1,-3,7,9,6,2
1558440060461268,0,0,-1,-4,0,0,0,1
1558440060474233,2,4,3,1,2,-11,3,2
1558440060474233,0,-1,0,0,-10,-10,-7,-4
1558440060482210,-3,0,-2,-2,-6,-3,-7,-4
1558440060482210,-2,-2,1,0,-2,-1,0,0
1558440060497178,3,2,1,0,4,4,7,2
1558440060497178,-2,-2,-5,0,2,4,3,1
1558440060505149,-3,-1,0,0,4,-6,-2,-2
1558440060505149,0,2,3,0,2,3,1,2
1558440060520110,-5,-7,-11,-5,-11,-6,-8,-6
1558440060520110,-1,1,2,0,-1,-4,0,1
1558440060521106,0,-2,-1,-3,-11,2,-4,-3
1558440060521106,-1,-1,-3,-1,3,6,3,-2
1558440060534072,3,-1,5,3,19,9,8,5
1558440060534072,1,1,2,-1,-1,-2,2,1
1558440060543047,-2,-4,-5,-2,-9,1,-3,-4
1558440060543047,-2,0,1,-2,-3,-5,-2,-1
1558440060557010,-4,-2,-7,0,-6,-5,-5,-3
1558440060557010,0,-2,0,-2,-2,-1,-2,-2
1558440060564989,0,-1,-1,0,-5,-9,-4,-2
1558440060564989,-1,-1,-2,-6,-5,3,-2,-2
1558440060579949,-1,1,1,2,7,5,6,4
1558440060579949,0,1,3,1,-4,-6,-5,-1
1558440060587927,-1,-2,0,-3,-3,5,-1,-1
1558440060587927,-1,-1,-2,2,4,1,5,-1
1558440060593911,0,-2,1,-4,-11,-16,-8,-1
1558440060593911,-2,-1,-4,0,1,4,-1,-2
1558440060602888,-2,-2,0,-3,-1,-2,1,-2
1558440060602888,-1,1,2,1,-4,-8,-2,1
1558440060616851,-3,-4,0,-4,-8,-4,-7,-5
1558440060616851,0,-4,-1,2,9,12,6,1
1558440060624829,1,-1,-5,1,5,-6,1,3
1558440060624829,-1,0,4,0,-10,-10,-5,-2
1558440060639790,-5,-4,-9,-4,-1,2,-5,-6
1558440060639790,-3,-2,-1,1,-1,1,0,-1
1558440060647767,-2,0,-3,-4,-7,-1,0,-1
1558440060647767,-2,0,2,1,6,-4,-1,0
1558440060654751,1,0,2,2,5,6,1,-2
1558440060654751,-3,-3,-8,-8,-8,0,-1,-1
1558440060662727,-3,0,0,0,3,2,3,0
1558440060662727,-1,0,-3,-2,-1,-1,-2,-2
1558440060676691,-2,0,2,0,0,-6,0,-1
1558440060676691,-1,-1,1,0,-6,-3,-4,-2
1558440060684669,4,0,3,0,3,1,4,-1
1558440060684669,1,-3,-7,-4,1,0,-2,1
1558440060699637,0,-1,-1,1,-4,-4,-2,-1
1558440060699637,3,4,6,3,7,1,6,4
1558440060707607,-4,0,-6,-2,-2,-9,-4,0
1558440060707607,-2,-1,0,-1,-4,3,-1,-5
1558440060723566,1,0,0,1,6,10,6,3
1558440060723566,-2,-2,-3,-5,-13,-15,-7,-5
1558440060723566,-2,-2,3,1,2,7,-3,-1
1558440060723566,2,2,6,2,3,5,6,2
1558440060736531,-1,-4,-11,-7,-14,-13,-5,-1
1558440060736531,-1,-1,-1,1,13,2,2,1
1558440060745506,-1,-1,-3,-1,-3,-3,-3,-1
1558440060745506,-1,-2,2,-1,-2,0,0,0
1558440060759475,-3,0,-1,2,-3,-2,-1,-2
1558440060759475,0,-2,-2,-4,1,-8,-4,-1
1558440060767454,-1,-4,-6,-3,-8,-4,-3,-3
1558440060767454,-2,-2,-4,-2,-2,-2,-1,-2
1558440060783413,2,1,-1,-2,-2,3,-1,-5
1558440060783413,-2,-2,0,0,0,6,2,-2
1558440060784410,1,1,2,2,7,6,5,3
1558440060784410,-2,-2,-3,-1,-4,-5,-3,-3
1558440060797373,-2,-3,-2,-5,-5,0,-4,-3
1558440060797373,0,2,1,0,-5,-6,-5,-1
1558440060805349,-2,1,1,-1,-5,0,0,-1
1558440060805349,-2,-2,-6,-2,5,1,0,-2
1558440060819322,1,2,4,2,2,0,0,1
1558440060819322,0,1,-1,2,3,0,1,1
1558440060828342,0,-3,-1,-1,-1,0,-1,-1
1558440060828342,-2,-6,-10,-2,-8,-2,-3,-3
1558440060843247,-3,0,4,-1,3,-4,0,-3
1558440060843247,-3,0,-3,1,-1,-5,-1,-1
1558440060844246,1,1,3,3,4,9,5,4
1558440060844246,3,4,1,0,-1,-12,0,0
1558440060857220,0,-2,-3,-3,-9,0,-3,-3
1558440060857220,-2,-2,-4,-3,4,4,-4,-1
1558440060865191,-1,2,0,0,-3,-9,-1,1
1558440060865191,-2,0,1,-1,4,1,-2,0
1558440060880188,0,-1,1,0,2,7,1,4
1558440060880188,-1,-2,1,-4,-8,-12,-7,-4
1558440060888127,0,0,2,2,6,7,5,2
1558440060888127,0,-3,-1,-4,-7,-3,-2,-2
1558440060903087,-3,0,2,3,-2,-6,-3,-1
1558440060903087,-3,-3,-10,-2,-4,8,1,-2
1558440060904085,-1,-2,3,1,4,1,-3,-3
1558440060904085,0,-1,-3,-4,-8,-6,-4,-1
1558440060917219,0,-2,0,1,6,2,1,-1
1558440060917219,0,0,3,-2,-6,-2,-1,0
1558440060925199,0,-1,-1,0,4,0,-2,0
1558440060925199,0,-2,1,-2,-5,-9,-6,-3
1558440060939213,0,-1,-5,-1,0,7,1,-2
1558440060939213,1,0,2,2,1,-3,4,0
1558440060948135,-1,-2,-2,-4,-9,-5,-5,-5
1558440060948135,-3,-2,-7,-2,-5,-4,-8,-2
1558440060963165,-2,1,1,3,9,8,6,2
1558440060963165,-1,-2,-1,-2,1,-4,-3,1
1558440060963165,0,-1,0,3,-2,-8,4,1
1558440060963165,-2,-1,2,-3,-3,7,-1,-4
1558440060977172,-3,-1,-11,-4,-5,-5,-2,0
1558440060977172,-2,1,2,-1,-4,-1,-2,-1
1558440060985151,0,-2,-3,-2,6,1,1,1
1558440060985151,-2,2,1,0,0,2,3,1
1558440061000088,1,-2,-3,-4,-4,0,0,-3
1558440061000088,-2,1,2,-2,-2,-1,0,-1
1558440061008184,-2,-2,-4,-1,-3,-6,-4,-2
1558440061008184,1,-1,1,1,0,-3,0,-2
1558440061022934,-1,-2,3,-4,-5,0,-2,-3
1558440061022934,2,1,-2,1,15,10,4,1
1558440061022934,-1,-2,-2,-4,-6,-2,0,-1
1558440061022934,0,-1,-2,1,7,0,1,1
1558440061036918,-1,0,1,-2,-3,-1,-1,0
1558440061036918,-3,-4,0,0,-6,-11,-2,0
1558440061044876,-3,-1,-3,-3,0,0,-5,-3
1558440061044876,2,2,3,3,7,4,3,4
1558440061060047,0,0,-1,1,4,1,-5,-2
1558440061060047,-2,-3,-6,-4,-9,0,-1,-3
1558440061067811,-2,-1,-5,-3,3,7,0,-3
1558440061067811,-4,-2,2,0,5,1,0,-2
1558440061082775,-1,0,0,0,-8,-10,-1,-1
1558440061082775,-2,0,4,-3,5,6,3,2
1558440061083772,-3,-3,-5,-3,-6,-4,-2,-4
1558440061083772,-1,-2,-2,-2,-1,9,1,-1
1558440061096735,0,-3,1,0,1,-4,-2,1
1558440061096735,2,1,2,0,3,1,0,0
1558440061104712,1,2,6,1,0,-3,-1,0
1558440061104712,0,-1,2,0,-2,-1,0,-1
1558440061119674,-7,-7,-12,-10,-7,-5,-6,-3
1558440061119674,0,2,5,2,0,-3,-1,-1
1558440061128005,-2,-2,-6,-2,1,0,1,0
1558440061128005,-3,1,-3,-1,-3,2,-1,-1
1558440061142612,2,2,2,0,-1,-8,-1,0
1558440061142612,-1,-2,0,0,0,3,-3,-2
1558440061143608,-2,-2,-2,-2,-2,-1,-1,-1
1558440061143608,1,-2,3,0,3,2,2,-2
1558440061157714,0,-1,0,0,-2,3,0,0
1558440061157714,1,-1,-2,-1,-3,-7,0,1
1558440061165550,-2,0,2,0,-3,1,-7,-1
1558440061165550,-1,-1,-1,0,4,2,-2,-4
1558440061179904,-2,0,0,-2,2,4,-1,0
1558440061179904,-1,-3,-3,0,-4,-3,-2,-2
1558440061188525,0,-1,-1,0,-5,-3,0,-1
1558440061188525,-1,-3,-2,-4,-1,-5,-3,1
1558440061202596,0,2,2,5,4,2,1,-2
1558440061202596,-3,-3,-4,-4,-5,1,-1,-1
1558440061211430,1,0,0,-1,-3,-4,1,2
1558440061211430,-2,-1,-4,-1,5,0,-2,0
1558440061217620,-1,-1,5,1,-2,-7,-1,-3
1558440061217620,0,-2,-2,-1,-1,-3,0,-2
1558440061225602,-1,1,-2,0,-2,-1,-4,-3
1558440061225602,-1,-2,3,-1,-4,3,-1,0
1558440061239362,-1,-2,-10,-5,-5,-2,-3,1
1558440061239362,1,-1,-2,0,3,1,0,1
1558440061248347,-1,0,1,2,-4,-5,2,1
1558440061248347,-3,-1,-6,-4,-3,-5,-2,-2
1558440061262295,-1,0,2,1,3,2,4,2
1558440061262295,-3,-1,0,-2,-3,1,-5,-4
1558440061271268,-3,-4,0,-4,-8,-2,-6,-2
1558440061271268,4,2,4,4,7,4,7,4
1558440061277263,0,-1,-2,-2,-2,3,0,-2
1558440061277263,-3,-3,-7,1,-5,-5,-8,-3
1558440061286227,-1,-1,-4,-5,0,7,2,-1
1558440061286227,-1,-1,1,-1,-7,-9,-3,-1
1558440061299324,0,-2,-2,0,-1,2,1,-1
1558440061299324,-1,0,3,-1,-1,-5,0,-2
1558440061308168,-4,-8,-10,-4,0,-3,-5,-2
1558440061308168,-1,0,-4,-1,-4,-2,0,-1
1558440061322132,-1,0,3,-1,6,3,-3,-2
1558440061322132,-1,-2,-1,-3,-7,1,0,-1
1558440061331108,2,3,3,1,3,-9,-4,-2
1558440061331108,0,-2,0,-1,-7,4,0,-2
1558440061337092,-1,1,3,0,10,8,5,2
1558440061337092,-2,-3,-11,-5,-2,-6,-3,0
1558440061346068,-2,-1,0,-3,-7,-4,-4,-3
1558440061346068,0,-1,-2,-3,-9,-7,-3,-3
1558440061359351,4,2,1,6,16,19,12,5
1558440061359351,0,-1,3,1,-2,1,3,1
1558440061368321,2,0,-2,-1,8,6,2,1
1558440061368321,-6,-2,-5,0,0,2,-3,-3
1558440061382293,-5,-2,-1,-2,-6,-7,-8,-5
1558440061382293,-2,-1,-2,0,4,-4,0,-1
1558440061391000,-2,-2,-4,-1,-5,-2,0,0
1558440061391000,-1,-4,-1,-3,-3,0,-5,-4
1558440061397275,0,-2,-4,-1,-6,-12,-4,-2
1558440061397275,3,3,3,2,7,7,4,1
1558440061405908,1,4,7,1,-1,-14,-1,1
1558440061405908,-1,-1,-7,-5,1,-3,-3,-2
1558440061419870,-1,-2,2,1,-4,5,-1,-2
1558440061419870,-3,-1,-2,-4,-9,1,-2,-2
1558440061428849,1,1,-2,-1,3,10,5,2
1558440061428849,2,0,2,3,4,-5,0,2
1558440061441860,-1,-1,-3,-7,-8,-11,-9,-3
1558440061441860,1,0,-1,0,-6,-3,3,2
1558440061450848,0,-2,0,0,5,8,2,-1
1558440061450848,-1,1,1,1,-4,2,0,-1
1558440061456820,-3,-4,-2,-3,-1,-3,-6,-5
1558440061456820,0,-1,-1,2,10,4,4,3
1558440061465753,0,1,1,0,1,-3,0,0
1558440061465753,0,1,2,3,-2,-3,-4,-2
1558440061479714,-1,-4,-6,-5,-5,-2,-5,-4
1558440061479714,-2,-1,0,-1,-7,-6,-5,-4
1558440061488688,0,-2,-2,-1,3,4,4,2
1558440061488688,-2,-2,0,0,-1,-1,1,0
1558440061501653,0,0,-4,-2,-1,-5,0,1
1558440061501653,2,4,2,-1,5,4,0,0
1558440061510628,-2,-3,-3,0,1,1,-4,-4
1558440061510628,0,-1,-2,-3,-10,-2,-6,-1
1558440061516613,-3,-2,-6,0,-6,-5,-1,-1
1558440061516613,0,2,1,-2,-2,-12,-1,2
1558440061525759,-1,-1,0,0,2,6,-2,-3
1558440061525759,-1,-3,-2,-1,-1,-2,-4,-3
1558440061539767,0,0,4,3,6,2,4,4
1558440061539767,-3,-2,-4,-5,-7,-4,-5,-4
1558440061548526,-1,-2,0,1,7,11,5,0
1558440061548526,2,0,-1,0,11,3,8,4
1558440061562695,-2,-3,-1,-3,-14,-9,-5,-3
1558440061562695,-4,-4,-2,2,3,1,-1,-1
1558440061570468,1,2,3,1,-2,-5,-2,1
1558440061570468,-3,-2,-4,-5,3,7,-2,-1
1558440061585649,1,2,3,1,-3,-2,0,-2
1558440061585649,2,-1,-1,1,7,3,0,0
1558440061587423,-3,-1,-1,-6,-7,-7,-1,-2
1558440061587423,0,-1,-2,3,4,0,4,2
1558440061599585,-2,-1,4,-1,-3,-3,-1,0
1558440061599585,-4,-7,-8,-8,-15,-5,-10,-6
1558440061608455,-2,-4,-1,2,0,-3,-3,-1
1558440061608455,1,1,2,1,6,2,7,3
1558440061622334,1,-2,-3,-3,-2,-3,-3,-1
1558440061622334,1,1,1,2,6,11,5,3
1558440061631316,0,1,-3,-2,0,-2,-2,-2
1558440061631316,0,-1,-1,-1,-10,-10,-2,-1
1558440061637297,-1,-4,1,0,2,0,-2,-2
1558440061637297,0,-3,-6,-2,-2,6,1,-3
1558440061646279,0,0,1,1,-6,-1,-4,1
1558440061646279,-2,2,-1,-3,0,-5,-5,-3
1558440061659232,-2,-1,-2,-4,1,2,1,-3
1558440061659232,0,1,5,6,10,4,4,4
1558440061668376,-3,0,-1,0,-2,-7,-4,-2
1558440061668376,-2,-6,-8,-9,-12,8,-3,-5
1558440061682180,0,2,0,5,3,3,-1,0
1558440061682180,0,0,0,-4,-5,-10,-1,-1
1558440061691147,-1,0,3,0,0,2,3,0
1558440061691147,-1,-1,2,2,1,1,0,-3
1558440061706107,-1,-3,-9,-5,-2,5,0,-2
1558440061706107,1,3,2,-3,-3,-2,0,-1
1558440061707103,-2,0,0,1,1,-1,1,1
1558440061707103,0,0,2,-1,0,-11,1,-1
1558440061719072,0,-2,-1,-2,-7,3,-2,-3
1558440061719072,-2,-2,-2,-1,-3,-3,-5,-4
1558440061728046,-2,-2,-5,-5,-8,-10,-8,-3
1558440061728046,-2,-1,0,3,8,10,3,2
1558440061742011,-1,-1,-2,-6,-6,-3,-3,2
1558440061742011,0,1,2,3,-1,-12,-1,0
1558440061750985,1,-5,-4,-2,-2,2,0,-2
1558440061750985,-1,0,-1,1,0,-1,-1,-2
1558440061765946,-2,0,-2,-2,0,-8,0,-1
1558440061765946,-2,-3,-2,0,3,8,-3,-1
1558440061766942,0,-1,0,0,-4,-2,-2,-2
1558440061766942,-1,-3,0,-1,6,-1,-1,-1
1558440061778909,-1,-3,1,-1,-1,-4,1,1
1558440061778909,-3,-3,-3,-3,-6,-3,-2,-3
1558440061787884,-2,3,3,0,-1,-2,-3,0
1558440061787884,0,-1,-6,-3,0,1,0,1
1558440061802197,-2,2,1,4,2,-2,-3,-1
1558440061802197,-3,-2,2,-1,-8,-6,-4,-3
1558440061810825,-2,-6,-12,-5,-7,0,-3,-5
1558440061810825,-1,-2,2,-2,-5,-1,-3,-3
1558440061825957,1,1,0,3,9,-2,4,3
1558440061825957,1,1,-2,-1,1,1,0,1
1558440061828093,-3,-1,0,0,-2,0,-1,-2
1558440061828093,-3,-1,-3,-2,-5,-3,-5,-4
1558440061839789,-1,-1,3,0,-1,4,2,-1
1558440061839789,-1,-1,-6,-1,4,10,4,0
1558440061848723,0,0,0,-1,4,2,3,1
1558440061848723,2,-1,0,2,0,0,-1,3
1558440061861687,0,-1,0,0,-4,-4,-2,-1
1558440061861687,0,1,0,0,-5,-5,-3,0
1558440061870662,-1,-2,0,-3,-1,-2,-2,-4
1558440061870662,1,2,0,3,8,8,8,3
1558440061885623,1,-1,-1,-1,-3,-2,-2,-2
1558440061885623,0,-4,-4,-4,0,-5,-5,-4
1558440061887618,1,-1,0,0,-3,-7,2,2
1558440061887618,-1,-1,0,-2,-1,-3,-2,-1
1558440061899954,-1,0,-2,2,0,2,-1,-3
1558440061899954,-2,-1,-4,-2,-3,-3,-3,1
1558440061908562,-1,-1,-3,-1,-2,-1,0,-3
1558440061908562,0,0,-1,-1,-2,-2,-1,0
1558440061922790,-2,-2,-2,-1,-2,1,0,-1
1558440061922790,-3,0,0,0,-2,-5,-1,0
1558440061930859,0,1,3,1,3,5,-1,1
1558440061930859,-1,-2,-1,-2,-6,-4,-1,1
1558440061946554,-1,0,-2,0,2,5,2,-1
1558440061946554,2,0,-1,-1,-2,-2,-2,0
1558440061947459,1,-1,0,-1,0,-4,4,1
1558440061947459,-4,-2,-1,-2,-5,-11,-5,-6
1558440061959838,-3,-2,-3,-4,-3,1,-4,-3
1558440061959838,-1,-3,0,1,1,-1,-3,3
1558440061968973,1,2,0,-1,1,-5,1,2
1558440061968973,-1,-4,-1,1,-3,0,-2,-3
1558440061982077,0,0,0,-3,1,0,3,3
1558440061982077,-3,-3,0,1,2,7,2,-3
1558440061990893,0,-1,3,0,0,8,2,3
1558440061990893,-2,-2,-3,-2,-1,-1,-3,-4
1558440062006030,-1,0,-3,-1,-4,-7,-5,-3
1558440062006030,0,-2,-3,0,9,4,0,-1
1558440062007715,-3,-3,-3,-3,1,4,-3,-2
1558440062007715,0,1,2,-1,-1,2,1,0
1558440062019731,1,-1,1,0,-4,-12,1,0
1558440062019731,-1,0,4,0,-3,1,3,-1
1558440062028670,-4,-1,-2,-3,-5,-4,-6,-5
1558440062028670,-1,0,-1,1,0,5,0,0
1558440062041885,0,-2,-3,-6,-2,-1,-7,-2
1558440062041885,0,-1,-2,1,-5,-8,-1,-3
1558440062050927,0,-1,-1,0,6,2,3,2
1558440062050927,0,1,2,-1,-1,-1,-2,2
1558440062065609,-5,-1,-1,-2,-3,5,-1,-1
1558440062065609,-2,-4,-5,-3,-9,-3,-6,-5
1558440062067553,-2,0,-3,-2,-2,0,0,-4
1558440062067553,-2,-3,-3,-4,-1,-4,-4,0
1558440062079590,-1,2,3,1,6,1,2,2
1558440062079590,-1,2,-1,-3,0,-4,-4,-1
1558440062088498,2,-2,0,-1,2,1,0,0
1558440062088498,-3,-2,-5,-3,0,2,-3,-2
1558440062111528,-2,-4,-6,0,-9,-7,-7,-1
1558440062111528,1,0,2,2,12,21,14,4
1558440062112446,2,2,3,2,0,-9,0,3
1558440062112446,0,0,0,-2,-3,-6,0,1
1558440062126394,0,-1,-1,0,8,11,1,1
1558440062126394,-1,-2,-4,-4,-11,-10,-7,-6
1558440062127394,-1,-2,-2,-3,-4,3,-2,-1
1558440062127394,4,4,5,8,8,-10,5,2
1558440062148338,-2,0,1,-2,2,2,1,2
1558440062148338,0,0,-2,-2,-2,-2,-1,-2
1558440062149332,0,-3,-4,-1,-3,3,-5,-2
1558440062149332,-2,-2,-4,-2,2,3,-6,-3
1558440062162483,-2,-2,-2,-4,-8,-17,-5,-3
1558440062162483,0,0,3,4,7,9,4,2
1558440062171272,-2,-3,-3,-4,-1,-5,0,1
1558440062171272,-2,0,-1,-2,-3,-8,-2,-2
1558440062186232,1,1,1,0,1,1,2,0
1558440062186232,-1,0,-2,0,-4,-8,-5,-1
1558440062187233,-2,1,-2,-2,-1,-1,-3,-4
1558440062187233,-2,0,-2,-3,0,-1,-4,-1
1558440062200195,-2,-4,-3,-3,-9,-1,-4,-4
1558440062200195,-3,-1,0,0,-1,-3,-3,0
1558440062208259,0,-1,0,4,4,6,2,0
1558440062208259,-2,-1,-2,-2,0,-11,1,1
1558440062222390,-1,1,-1,0,2,4,0,0
1558440062222390,0,-1,0,-4,0,-1,0,-2
1558440062231121,-2,-2,-2,0,-8,-10,-5,-2
1558440062231121,-1,-4,-2,-2,0,6,-3,-2
1558440062246266,1,0,0,1,3,3,4,-1
1558440062246266,-2,-1,-1,-3,-6,-9,-4,2
1558440062247073,2,3,4,3,6,2,2,2
1558440062247073,-1,-1,-3,-3,-9,-2,-3,-4
1558440062269013,-3,0,-4,-1,-3,0,-5,-2
1558440062269013,0,0,-1,-3,-5,-10,-3,-1
1558440062270011,-1,-1,0,0,3,8,2,-1
1558440062270011,-1,0,0,1,2,-3,4,3
1558440062282227,-1,-1,-1,-1,9,3,0,0
1558440062282227,-3,-1,-2,0,-1,5,1,0
1558440062290955,0,-5,-2,-2,-10,-7,-6,-3
1558440062290955,-1,0,1,-3,-5,-2,-2,-1
1558440062304916,0,0,0,3,3,-4,-1,2
1558440062304916,-1,-2,-7,-6,-6,-14,-6,-3
1558440062311900,0,1,4,2,3,4,3,1
1558440062311900,0,-2,-3,0,-3,-5,-5,-3
1558440062319877,0,1,1,-1,-3,1,0,0
1558440062319877,-3,-3,-2,0,-1,0,-2,-5
1558440062327891,-3,-2,-3,-6,-7,-10,-6,-3
1558440062327891,0,-2,-1,2,2,8,3,3
1558440062341974,-1,-1,0,1,1,0,0,0
1558440062341974,-2,-2,-3,-2,-2,3,-2,-4
1558440062350793,-3,-3,-4,1,-1,1,-2,-2
1558440062350793,1,0,4,-1,4,-1,1,0
1558440062365752,-1,-1,-1,0,-4,-4,-3,1
1558440062365752,1,0,-2,-1,-1,-3,-3,0
1558440062389544,-2,-3,-2,-3,2,13,6,2
1558440062389544,-1,1,0,-1,-5,-6,-4,-1
1558440062389544,-1,-3,-2,0,4,7,0,-2
1558440062389544,0,0,0,1,1,-11,-1,1
1558440062391285,0,0,-2,0,-1,-6,-2,1
1558440062391285,0,-1,-1,1,2,6,1,-3
1558440062402379,-3,1,1,-3,-8,-1,-1,-1
1558440062402379,-1,-2,-4,-2,0,3,-3,0
1558440062411234,-3,-3,-4,-1,-4,-10,-6,-3
1558440062411234,1,-1,-1,1,2,13,8,2
1558440062425409,1,0,3,-2,-2,-4,1,0
1558440062425409,0,1,-1,0,2,11,4,0
1558440062432384,0,-1,-4,-4,-2,-11,-4,0
1558440062432384,-4,-2,-2,-2,6,4,-4,-3
1558440062440189,-3,-4,-4,-2,-6,-4,-1,-3
1558440062440189,1,-2,1,1,5,1,4,2
1558440062448221,-1,0,2,-1,-9,-2,-6,-5
1558440062448221,-2,-1,-3,-1,0,-7,-3,-1
1558440062462280,0,0,-4,-3,-8,1,-3,-2
1558440062462280,-2,-1,3,4,3,-5,-1,-2
1558440062471073,-1,-2,-2,-5,-1,-3,-5,-3
1558440062471073,-3,-3,0,-2,-4,0,2,-1
1558440062485246,3,-2,0,0,6,4,3,2
1558440062485246,-2,0,-1,-5,-12,-11,-5,-2
1558440062500994,-3,-1,-2,0,0,3,0,0
1558440062500994,-1,0,-4,-2,-3,4,0,1
1558440062500994,-1,0,1,2,0,-4,-2,1
1558440062500994,0,1,-1,-1,11,1,2,3
1558440062508280,-1,0,0,-1,-5,-5,-1,0
1558440062508280,-4,-2,-3,-3,-6,-2,-6,-2
1558440062521936,-2,0,1,-1,2,1,4,2
1558440062521936,-1,-2,3,-1,-3,-1,-3,-2
1558440062546882,1,1,1,1,1,1,-1,-2
1558440062546882,1,-1,1,-4,-3,-4,-2,-2
1558440062547868,-2,-5,-8,-4,-1,0,-3,-5
1558440062547868,0,2,-1,1,11,13,5,1
1558440062551857,0,-1,2,-1,-5,-4,-3,0
1558440062551857,-2,-4,-8,-7,-6,-5,-4,-4
1558440062559843,-2,1,2,3,3,-2,0,-1
1558440062559843,-2,-1,0,-1,-2,-2,-1,-1
1558440062568812,-2,-1,-2,-1,-3,1,-5,-3
1558440062568812,2,-1,-3,-1,-5,2,3,-2
1558440062581774,0,-1,2,-1,-4,-9,-4,1
1558440062581774,0,-1,0,0,-4,8,1,-2
1558440062590751,1,0,0,1,14,8,5,2
1558440062590751,-2,-2,0,2,-11,-12,-8,-3
1558440062620674,-3,-3,-7,-8,-12,-12,-3,-3
1558440062620674,-2,-1,1,-3,2,1,1,-1
1558440062622667,-2,-2,0,-1,-3,-6,-1,-1
1558440062622667,2,1,1,3,10,6,5,2
1558440062627654,-4,-3,-3,-1,-4,6,-4,-3
1558440062627654,-2,-2,1,2,-2,-4,-1,-1
1558440062635635,2,0,-3,-1,3,-2,2,3
1558440062635635,-3,-2,-3,-2,-2,2,-2,-5
1558440062641623,0,-1,-1,2,-3,-9,-1,-2
1558440062641623,2,0,-1,-1,6,10,2,-1
1558440062667557,-1,-1,1,1,2,3,2,0
1558440062667557,-1,0,0,-3,-5,-6,-4,0
1558440062667557,1,2,1,-1,4,8,4,0
1558440062667557,-1,-2,0,-1,-12,-10,-5,-2
1558440062671538,-3,2,-2,-2,-4,-6,1,-1
1558440062671538,1,-1,-2,-1,3,-2,-3,-2
1558440062688490,-4,-3,-1,1,3,-4,-2,0
1558440062688490,-2,-2,0,0,5,-2,1,3
1558440062689488,-2,-4,-2,0,-6,4,-3,-3
1558440062689488,0,-1,0,-2,-2,2,2,0
1558440062702464,1,1,2,0,5,-4,3,1
1558440062702464,-2,-3,-4,0,-3,3,-3,-3
1558440062711431,-1,-2,-2,-3,-7,-3,-3,-3
1558440062711431,1,-1,0,0,-2,-7,-2,1
1558440062725571,0,0,1,0,11,16,2,3
1558440062725571,1,0,-3,-5,-8,-5,-2,-3
1558440062732387,-2,-5,-4,-2,-6,-1,-3,-4
1558440062732387,1,2,6,2,12,-6,2,1
1558440062748331,0,0,-6,-4,-5,-5,-3,0
1558440062748331,0,0,2,0,-1,-10,0,-1
1558440062749330,-2,-1,-1,-5,-11,-2,-2,-1
1558440062749330,-1,-4,0,1,3,2,-2,-2
1558440062762342,0,-4,-2,-5,-10,-7,-9,-4
1558440062762342,0,0,-6,0,10,16,7,4
1558440062778249,2,2,4,0,5,3,4,2
1558440062778249,-2,1,-4,-1,-3,2,-1,0
1558440062784233,-2,-3,-3,-3,-5,-8,-2,-1
1558440062784233,-1,0,1,-2,-11,-6,-7,-5
1558440062793208,-1,0,-4,-3,1,-6,-4,-3
1558440062793208,0,2,4,4,8,12,11,3
1558440062824127,-1,-2,-1,2,0,-5,-3,-1
1558440062824127,-1,-1,-1,1,-1,-4,-4,-1
1558440062825124,1,-1,0,-2,0,2,0,1
1558440062825124,-1,-4,-3,-2,-11,-4,-5,-3
1558440062826121,-3,-1,-1,-1,-4,-3,-2,-1
1558440062826121,-1,-2,-1,0,-3,-4,3,1
1558440062831108,0,0,1,2,5,-4,-3,1
1558440062831108,-2,-3,-4,-4,0,2,-3,-4
1558440062844072,0,1,0,0,4,12,4,0
1558440062844072,0,3,3,-4,-8,-9,-5,-1
1558440062861027,-4,-2,-6,0,6,5,5,3
1558440062861027,-1,-2,-2,-1,-4,-11,-2,-1
1558440062868008,-1,1,0,-2,-6,-3,-5,-3
1558440062868008,-1,-3,-1,-2,1,-4,-5,0
1558440062870003,-2,-2,-3,0,2,-2,0,-1
1558440062870003,0,1,0,-1,0,7,3,1
1558440062881971,0,0,6,4,-1,-7,1,-1
1558440062881971,1,1,0,-4,-6,0,-3,-1
1558440062890953,-3,-4,-7,-1,2,-4,-2,-2
1558440062890953,-3,-2,-2,-5,-9,-7,-5,-3
1558440062903916,-1,-1,-3,-1,-4,-2,-4,-2
1558440062903916,-2,1,0,-1,5,8,3,1
1558440062913914,0,1,2,0,-2,3,-1,-1
1558440062913914,-1,-2,-2,-4,-3,-3,-2,1
1558440062928900,1,-1,0,0,-4,-15,0,-1
1558440062928900,0,0,-4,-2,2,-1,1,3
1558440062929854,0,0,1,0,-5,4,-1,-3
1558440062929854,0,-2,0,0,2,3,-3,-2
1558440062941911,0,-1,-2,-3,0,3,0,-4
1558440062941911,-2,-2,-5,-2,-3,2,0,-4
1558440062950790,0,1,2,3,-7,-5,2,-1
1558440062950790,0,1,0,-3,5,5,3,1
1558440062964751,0,-5,-1,-4,2,7,0,0
1558440062964751,-1,-2,-8,0,-3,-3,-1,-1
1558440062980714,-1,-2,8,1,2,1,-1,1
1558440062980714,0,-4,-3,0,-1,-11,2,0
1558440062988686,-3,0,-3,-1,2,6,-3,-2
1558440062988686,-3,-2,-2,-6,-7,-1,-8,-6
1558440062989684,2,1,0,-1,-1,-1,-2,-1
1558440062989684,-1,0,1,3,2,2,-1,-3
1558440063001653,0,2,1,2,4,9,6,3
1558440063001653,-2,-3,-3,-1,0,-9,-4,-3
1558440063010635,-1,-1,-3,0,-3,-8,-1,1
1558440063010635,-1,-1,-2,-2,-4,-6,-6,-3
1558440063024589,-2,0,-2,-1,-2,-3,1,1
1558440063024589,-1,-1,2,3,10,12,7,2
1558440063035560,-1,0,2,1,-2,-9,0,-1
1558440063035560,-3,-3,-6,-6,-4,-5,-4,-1
1558440063048526,-1,-3,-3,-3,0,3,-2,-3
1558440063048526,-1,-1,1,0,-4,-4,-3,-4
1558440063049523,1,1,2,-1,-1,-6,-2,0
1558440063049523,0,1,3,1,11,10,4,0
1558440063061497,-1,1,-1,0,3,0,-1,0
1558440063061497,0,2,8,2,-1,-2,-1,0
1558440063070469,-3,-4,-1,-2,-9,-4,-7,-7
1558440063070469,-2,2,3,0,2,1,-2,0
1558440063084431,-1,-5,-18,-1,-2,1,-1,-1
1558440063084431,-2,-1,-1,-2,7,-4,3,3
1558440063093405,-2,0,-7,-4,-1,0,1,1
1558440063093405,-2,-4,2,-1,-7,0,-6,-4
1558440063108375,-1,0,7,1,-7,-7,-3,-2
1558440063108375,0,-1,0,1,6,5,0,0
1558440063109363,1,-2,1,0,2,8,2,-2
1558440063109363,0,0,2,3,6,1,-1,0
1558440063122331,1,1,2,-5,-4,-14,-6,0
1558440063122331,-1,-1,-4,-3,-6,-1,-4,-2
1558440063130310,-2,0,3,0,1,-3,-3,-1
1558440063130310,0,1,4,-1,1,9,7,3
1558440063144270,-5,-7,-13,-6,-2,0,-3,-4
1558440063144270,2,2,1,5,14,-3,6,1
1558440063153247,-1,-1,-5,-5,0,8,1,-1
1558440063153247,0,-1,-2,-4,-15,-14,-8,0
1558440063167386,-2,0,5,0,7,8,3,-2
1558440063167386,1,0,11,2,-6,2,-2,-1
1558440063176186,-5,-9,-25,-12,-11,-8,-7,-7
1558440063176186,1,1,3,4,12,5,5,4
1558440063182170,0,-1,2,-2,0,-1,1,3
1558440063182170,-1,1,0,-1,-5,-3,-4,-2
1558440063191145,1,5,15,7,0,-3,-1,-1
1558440063191145,-7,-12,-30,-13,-18,-11,-7,-9
1558440063204116,0,0,-1,-5,-12,-7,-1,-1
1558440063204116,-2,-2,-4,0,6,3,1,-1
1558440063213087,3,4,11,5,18,17,16,9
1558440063213087,-1,1,5,4,4,-1,-1,-3
1558440063229218,0,-3,0,-3,-6,6,0,-1
1558440063229218,-2,-4,-3,-5,-16,-10,-10,-6
1558440063234207,1,-2,-2,1,6,7,4,2
1558440063234207,0,1,3,1,-1,-7,2,1
1558440063242010,1,-1,0,3,4,0,-2,0
1558440063242010,-3,-3,-7,-6,-12,-1,-4,-5
1558440063250986,-5,-6,-5,-5,-7,-4,-10,-9
1558440063250986,-1,0,2,-1,-5,-2,-1,-1
1558440063264132,1,-1,2,3,10,2,3,1
1558440063264132,1,1,5,5,6,-2,5,4
1558440063272926,-3,-7,-13,-8,-6,-8,-6,-3
1558440063272926,0,0,3,-1,-7,-5,-7,-5
1558440063287886,-2,-1,-7,-4,-8,-2,-2,-1
1558440063287886,-2,-2,-4,1,10,0,2,2
1558440063289881,0,0,2,0,2,3,1,-1
1558440063289881,1,2,1,2,-1,10,4,0
1558440063301849,3,0,0,1,-1,-19,-3,-1
1558440063301849,0,-1,-3,-5,-3,2,-3,-2
1558440063310825,2,2,7,5,10,8,7,5
1558440063310825,-1,-4,-9,-4,-5,-4,-5,-1
1558440063324792,-2,0,4,2,-2,-2,2,-1
1558440063324792,-3,-4,-5,-7,-5,1,-6,-2
1558440063333763,-3,-1,-2,3,2,-5,0,0
1558440063333763,-2,-2,-1,-2,4,3,1,-1
1558440063347729,-1,-1,1,0,5,4,0,1
1558440063347729,-1,1,0,-1,-10,-6,-4,-4
1558440063354983,2,-1,-1,-4,-4,-3,-5,-2
1558440063354983,0,1,1,1,4,3,5,4
1558440063361688,0,1,3,-1,1,-11,-3,-1
1558440063361688,0,0,-2,-1,-5,0,2,0
1558440063370665,-1,-2,-2,-4,-9,-10,-5,-1
1558440063370665,-1,-3,0,0,4,1,-4,-7
1558440063384689,-4,-2,-4,0,-4,5,-3,-5
1558440063384689,-2,0,-5,1,6,2,5,-1
1558440063393612,1,0,3,1,-1,-2,-6,1
1558440063393612,-2,0,3,-3,-13,-11,-5,-1
1558440063407566,-2,-2,-4,0,11,11,7,2
1558440063407566,-2,0,3,0,4,-2,-3,-1
1558440063414808,-2,-2,-8,-3,-6,-4,1,-2
1558440063414808,0,-3,-1,-2,-4,-7,-9,-2
1558440063421530,-1,-2,0,-4,-4,4,-5,-3
1558440063421530,1,0,-2,-1,-4,2,1,0
1558440063430505,0,2,4,3,1,0,4,0
1558440063430505,-1,2,2,2,5,0,3,2
1558440063444630,-1,-2,-4,-3,0,-4,-2,-4
1558440063444630,1,-3,-1,-2,-6,-6,-9,-2
1558440063453444,-1,-2,-1,-2,-5,5,-2,-2
1558440063453444,-2,-3,-5,-5,-8,2,1,-3
1558440063467406,-1,0,1,0,0,-8,-3,3
1558440063467406,0,-1,-1,-1,6,2,4,1
1558440063474388,-2,0,3,2,1,-4,-4,-4
1558440063474388,-3,-2,-9,-4,2,8,2,3
1558440063482520,-2,-1,0,0,-4,-2,-6,-4
1558440063482520,-3,-3,-2,0,0,-1,1,0
1558440063490344,0,-1,-1,-1,-4,-3,2,-2
1558440063490344,-1,0,-3,-1,-1,2,0,-1
1558440063504338,-1,-1,1,2,4,2,1,1
1558440063504338,1,-1,-1,-1,2,-1,-3,-2
1558440063513282,0,1,3,1,-1,2,-2,-2
1558440063513282,-1,-1,-1,3,2,-4,0,-1
1558440063527385,-1,-4,-7,-5,-8,0,0,2
1558440063527385,0,0,-1,1,6,-5,2,-1
1558440063534264,-3,-4,-9,-5,-3,0,-1,1
1558440063534264,0,0,4,0,-6,-3,-3,-4
1558440063551330,1,0,0,0,0,1,1,1
1558440063551330,-1,-1,1,2,-4,-4,-3,-3
1558440063552179,-2,0,0,-1,0,-6,-3,-2
1558440063552179,-3,0,-1,-3,-2,-3,1,0
1558440063564148,-4,1,2,-2,-4,-2,-4,5
1558440063564148,-4,-1,-2,-2,-4,2,-3,-1
1558440063573123,1,0,-3,-1,0,-3,-1,-1
1558440063573123,0,0,-6,0,2,2,-2,-2
1558440063587085,2,1,1,2,2,4,3,0
1558440063587085,-2,-2,-2,-4,-4,-3,-1,1
1558440063594067,-4,-4,-6,-4,-5,-8,-2,-4
1558440063594067,1,0,2,1,3,-1,-1,0
1558440063611023,-1,-1,1,-2,-6,-8,-6,-1
1558440063611023,-3,-6,-9,-6,-4,-4,-7,-4
1558440063612020,0,0,-1,0,7,11,10,2
1558440063612020,1,1,1,4,5,0,7,2
1558440063624992,-1,-1,-2,-1,1,1,-1,-6
1558440063624992,-2,-2,-1,0,-1,0,-1,-1
1558440063632964,-1,-2,0,-2,-7,-10,-6,-2
1558440063632964,-3,-3,-1,-4,-3,-2,-3,-1
1558440063647930,-4,0,-3,-1,-4,2,-2,-4
1558440063647930,-1,-2,-1,3,2,9,5,1
1558440063654906,3,0,-2,-1,2,3,6,5
1558440063654906,1,0,1,-1,-9,-5,-4,-3
1558440063670862,-3,-5,-7,-3,0,-5,-1,-3
1558440063670862,0,2,4,2,7,6,4,3
1558440063671861,0,1,0,1,-2,-7,-7,-1
1558440063671861,1,1,2,-3,0,0,-3,-2
1558440063685045,-4,-2,2,0,-5,0,-1,-4
1558440063685045,-2,-3,-8,-6,-3,-5,-3,-3
1558440063692803,0,0,3,1,0,7,6,4
1558440063692803,1,-1,-4,5,16,-4,2,3
1558440063707764,1,0,3,-1,-6,-8,-2,-1
1558440063707764,0,1,4,1,1,4,3,1
1558440063721724,-3,-2,-4,-4,-5,-4,-9,-7
1558440063721724,-3,-2,-3,-2,-6,-6,-5,-1
1558440063730917,1,0,0,-1,3,0,5,1
1558440063730917,1,3,6,2,-8,-1,-4,-1
1558440063731698,-2,-2,-12,-5,-6,-5,-4,-2
1558440063731698,-3,0,5,0,0,-5,2,-1
1558440063744866,-1,-2,-6,-3,3,5,3,-1
1558440063744866,0,-2,-3,-2,-9,-8,-4,-2
1558440063753641,2,-1,1,0,9,4,3,0
1558440063753641,-1,-2,-2,-2,-5,-1,-4,3
1558440063767608,-3,1,7,3,2,1,-2,-4
1558440063767608,-1,-1,-4,0,4,8,0,1
1558440063774785,-3,-3,-3,-1,-3,-13,-2,-1
1558440063774785,-1,-3,-7,-4,-10,-12,-8,-4
1558440063790543,1,0,-1,1,2,3,3,2
1558440063790543,2,0,3,0,4,-1,3,1
1558440063792537,-1,0,4,4,10,12,4,3
1558440063792537,1,1,-3,-5,-7,2,-2,-1
1558440063804505,-1,0,-3,-2,-12,-6,-7,-4
1558440063804505,-3,-2,-5,-2,1,-6,-3,-4
1558440063813480,0,0,3,0,-2,8,5,-1
1558440063813480,-2,-3,-6,-4,-6,-2,-1,-3
1558440063827442,0,-3,-1,-1,2,7,2,0
1558440063827442,2,0,2,-2,0,-7,1,-2
1558440063834424,0,1,0,0,-6,-7,-3,-1
1558440063834424,0,-3,3,1,7,7,-1,-2
1558440063850409,-2,-2,-1,-1,3,-3,-4,2
1558440063850409,-2,1,-5,0,0,-3,3,3
1558440063852377,-2,-2,1,0,-3,5,-4,-3
1558440063852377,-1,-1,-2,1,7,12,4,-2
1558440063864343,1,-1,-5,0,1,-11,-1,1
1558440063864343,-4,1,3,-5,-8,-10,-6,-5
1558440063873320,2,0,1,1,5,6,0,1
1558440063873320,0,-2,-1,-2,-2,1,1,0
1558440063887286,0,1,1,-1,-10,-3,-4,-2
1558440063887286,-2,-4,-4,0,10,3,3,0
1558440063894265,-3,-1,-2,-6,-10,-7,-4,-4
1558440063894265,1,0,1,2,5,-8,3,1
1558440063910221,0,-1,1,0,5,7,4,1
1558440063910221,-1,-2,-1,-2,-8,-5,-8,-5
1558440063912216,-3,-1,-6,-3,-5,-5,-4,-3
1558440063912216,0,3,5,3,10,9,6,1
1558440063924184,-1,-1,-9,-3,-1,-4,2,-1
1558440063924184,1,-3,0,0,9,9,0,0
1558440063933160,-3,-3,-2,-2,-3,0,-4,-2
1558440063933160,-4,-2,-4,-2,-6,-4,-6,-2
1558440063947127,-1,1,0,-3,0,-3,2,0
1558440063947127,0,1,3,0,-5,-2,6,1
1558440063954104,0,-2,2,1,3,-2,-2,3
1558440063954104,-2,0,1,-2,4,5,-1,0
1558440063971058,-2,-1,-3,-2,-2,4,-1,-1
1558440063971058,-1,0,-3,2,-7,-8,-2,-2
1558440063972056,0,2,3,0,0,0,1,0
1558440063972056,-3,-1,1,0,0,-3,-5,-3
1558440063984025,-2,-5,-1,1,-1,0,-3,-3
1558440063984025,0,-2,-1,-5,-6,4,0,0
1558440063993000,-1,-4,-3,-2,-8,-3,-5,-3
1558440063993000,0,0,-6,1,2,-4,5,3
1558440064007960,0,2,0,1,2,8,4,0
1558440064007960,-3,1,0,2,1,-4,-2,-2
1558440064013944,-3,-2,1,-4,-7,-7,-4,-5
1558440064013944,-2,-4,-4,-4,-10,-2,-3,-5
1558440064030902,0,-1,2,-1,7,-5,1,2
1558440064030902,-2,-2,-2,-2,-3,3,-1,-2
1558440064031896,-1,0,-1,0,3,-8,-1,-1
1558440064031896,1,0,6,0,-3,-2,-6,-3
1558440064044860,-2,-3,-16,-5,-5,-3,2,-2
1558440064044860,2,-1,1,0,2,-5,-1,2
1558440064052841,1,-1,-6,-2,4,6,0,-3
1558440064052841,-3,-1,-1,-2,-8,-3,-4,-2
1558440064067799,-1,0,5,0,-6,1,-7,-3
1558440064067799,-1,-1,0,2,3,1,5,3
1558440064074781,-1,-1,-2,-1,0,-12,-3,-1
1558440064074781,-1,-1,0,0,2,6,5,3
1558440064090738,-2,0,1,-2,-4,-1,-3,-2
1558440064090738,-3,-2,-5,-1,-2,-1,-3,-2
1558440064091736,1,1,2,1,0,0,-1,2
1558440064091736,0,-4,-6,-6,3,1,-3,-2
1558440064104703,-2,-2,1,-1,-2,2,-2,-1
1558440064104703,-1,0,-2,-1,0,12,5,0
1558440064113690,-1,2,1,3,-1,3,0,-1
1558440064113690,-2,1,2,-3,0,-4,-3,0
1558440064127641,2,2,-3,-2,-3,-4,0,1
1558440064127641,-1,-3,-8,-5,-7,-7,-2,-5
1558440064134621,-2,-1,1,4,-2,7,0,-3
1558440064134621,1,-2,-5,1,-1,-11,1,0
1558440064150580,1,-1,1,-1,5,-6,-7,1
1558440064150580,0,-1,-1,1,-1,3,0,-1
1558440064152585,-2,-3,-1,-4,-5,0,-4,-2
1558440064152585,1,0,0,-2,-3,-3,-2,-2
1558440064164552,-1,-3,-3,-1,-2,-2,-2,-4
1558440064164552,-1,-1,0,-5,-9,-4,-4,0
1558440064173518,-1,-4,-1,-1,7,4,2,1
1558440064173518,1,1,0,1,3,2,3,1
1558440064187484,-1,-2,1,1,4,6,1,-2
1558440064187484,-3,-2,-1,-4,-4,-4,-3,-1
1558440064194461,-1,-1,-1,0,4,2,0,1
1558440064194461,-1,-2,-1,1,-5,2,-3,-2
1558440064210422,-1,-2,0,-2,-3,-5,-3,-1
1558440064210422,-2,-1,-6,0,0,0,-3,-2
1558440064212414,-1,-1,-4,-2,4,-1,-4,-3
1558440064212414,-1,0,-5,0,-3,0,1,-1
1558440064224380,-1,-2,4,1,2,-4,5,2
1558440064224380,-3,2,1,1,4,-7,-5,2
1558440064233361,-2,-1,-2,-3,0,2,-1,0
1558440064233361,0,1,3,-2,-5,4,1,-2
1558440064247320,-3,-5,-8,-5,-9,-1,-3,-5
1558440064247320,1,0,3,3,0,4,2,0
1558440064254328,-1,-2,-5,-6,-6,-4,-1,-1
1558440064254328,-1,-1,5,3,4,4,1,1
1558440064270260,0,2,-2,0,2,3,-1,-1
1558440064270260,-1,-2,1,-2,3,0,-5,-2
1558440064272254,0,1,7,2,-1,0,1,2
1558440064272254,-4,-5,-14,-6,-7,-5,-4,-3
1558440064284222,1,-1,2,3,1,-2,3,3
1558440064284222,-1,-1,-4,-1,-1,-6,-4,-1
1558440064293199,-1,-1,-1,-4,-5,0,0,-1
1558440064293199,-3,-2,-3,0,3,5,-2,-1
1558440064307165,-1,2,1,0,-10,-10,-5,-4
1558440064307165,1,2,4,5,8,0,4,1
1558440064314143,2,2,3,0,1,1,6,2
1558440064314143,-3,-7,-8,-6,-5,-3,-4,-2
