timestamp,emg1,emg2,emg3,emg4,emg5,emg6,emg7,emg8
1558440197746541,-2,-3,-6,-12,-1,4,-2,-4
1558440197746541,2,2,3,17,6,4,4,3
1558440197747539,1,1,-1,-1,4,-13,-3,-1
1558440197747539,0,-2,2,-10,1,11,3,1
1558440197751527,-5,-6,-10,2,-10,-10,-7,-5
1558440197751527,-2,-1,-1,-1,7,16,8,0
1558440197752524,1,3,3,-3,5,2,0,1
1558440197752524,0,-2,-1,2,-3,0,3,-3
1558440197757511,-3,-6,-12,-3,-13,-15,-7,-4
1558440197757511,2,0,0,-6,8,7,4,2
1558440197774464,-1,-4,-5,-3,-2,0,-3,-4
1558440197774464,-1,-1,-2,6,-3,-12,-8,-3
1558440197777457,1,1,8,-2,-4,0,0,1
1558440197777457,-3,-4,-4,-8,2,5,-2,-2
1558440197805383,-1,-2,-4,4,-2,-10,-1,-1
1558440197805383,-1,-1,1,1,0,6,1,1
1558440197807376,-1,-2,0,-4,-9,-15,-11,-4
1558440197807376,0,1,1,-4,-3,-5,-2,0
1558440197810368,-2,-2,1,4,2,0,0,0
1558440197810368,-2,-1,-4,-7,-5,1,-3,-4
1558440197818347,2,4,5,3,10,5,8,5
1558440197818347,-3,0,1,4,-2,0,1,0
1558440197826325,-2,-1,-2,-3,-8,-5,-1,-2
1558440197826325,0,0,1,-2,-3,-11,-5,-3
1558440197841286,-2,-3,-2,3,4,10,2,-3
1558440197841286,0,-4,-8,-6,-13,-10,-8,-7
1558440197849266,4,4,7,-1,6,6,3,2
1558440197849266,-2,0,-4,0,0,-3,-2,-2
1558440197896138,0,0,-1,-12,3,0,6,0
1558440197896138,1,0,1,12,5,1,-2,-1
1558440197896138,-1,-1,0,-1,0,7,2,-2
1558440197896138,-3,-2,-4,-12,-6,-10,-4,-3
1558440197897135,-1,-1,-2,6,11,14,-3,-3
1558440197897135,0,0,1,2,-9,-7,6,4
1558440197900127,3,2,1,-5,5,-1,2,6
1558440197900127,1,-1,1,-1,2,0,-1,-1
1558440197916085,-3,-1,-1,4,-10,-6,-7,-4
1558440197916085,-3,-3,-5,-10,-4,4,-2,-5
1558440197917083,2,-2,0,-3,5,-1,0,0
1558440197917083,0,0,0,5,-3,-9,-4,1
1558440197922069,1,0,0,-3,0,3,5,3
1558440197922069,-3,-1,-2,-7,-4,4,-1,-3
1558440197937029,0,0,0,5,3,2,1,-1
1558440197937029,-3,-2,0,2,-3,-5,-1,-1
1558440197945008,0,-3,-2,-4,2,0,-2,-1
1558440197945008,-3,-4,-2,-5,-4,-7,-7,-3
1558440197953986,-4,-2,-1,2,0,-6,-5,-3
1558440197953986,2,2,3,2,4,4,9,4
1558440197967948,-1,-1,-3,-5,-1,-7,-1,-1
1558440197967948,-1,0,-1,-2,-8,-1,-4,-3
1558440197974928,-2,0,-1,-2,-8,-9,-6,-2
1558440197974928,1,1,5,-2,-2,-1,1,-1
1558440197981910,-1,-1,-6,1,4,6,7,3
1558440197981910,-2,-3,-8,-1,2,-5,-2,-1
1558440197998864,0,0,-1,-4,0,-5,-2,-2
1558440197998864,-4,-1,-3,-2,0,1,-6,-5
1558440198005847,-4,-5,2,0,-11,-7,-8,-4
1558440198005847,2,0,0,-1,12,2,5,4
1558440198011829,-1,-2,-1,-1,4,6,1,-1
1558440198011829,-1,-3,-6,-2,-8,0,-2,-1
1558440198035765,0,2,0,-1,0,-6,-5,2
1558440198035765,-2,0,0,-4,-7,-5,-5,-6
1558440198037761,1,1,3,4,5,-7,-1,1
1558440198037761,-4,-5,-7,1,1,-1,-5,-5
1558440198042746,-1,-2,-3,-8,-11,-1,0,-2
1558440198042746,0,0,3,6,6,10,7,3
1558440198057708,-4,-1,-2,-2,-9,3,-3,-3
1558440198057708,0,3,2,0,8,9,7,2
1558440198065686,1,1,2,2,-1,-20,-3,-1
1558440198065686,-4,-1,-3,-2,-2,2,0,-1
1558440198072666,-1,-4,-4,-4,1,4,-1,-4
1558440198072666,-2,0,4,-3,-11,1,-2,0
1558440198087628,1,0,-3,4,6,-5,2,3
1558440198087628,1,1,8,2,3,11,3,0
1558440198094608,-2,-3,-10,-7,1,0,-3,-1
1558440198094608,-1,-5,-5,-6,-6,-13,-10,-3
1558440198102587,-4,-3,4,-1,-8,1,0,-3
1558440198102587,2,-1,0,1,-2,-8,0,2
1558440198117547,2,4,8,5,10,4,8,5
1558440198117547,1,-2,-1,0,0,4,1,-1
1558440198125526,-2,-1,-4,-5,2,8,-4,-3
1558440198125526,0,0,0,-4,-6,-4,-3,2
1558440198132506,-3,-1,-2,2,2,4,5,1
1558440198132506,3,2,0,2,8,4,5,1
1558440198147468,-3,-2,-2,-5,-12,-7,-8,-7
1558440198147468,-1,-1,-1,0,5,7,-4,-3
1558440198154449,-2,-1,2,-1,-6,-15,-3,-1
1558440198154449,0,-1,0,2,0,-10,-2,-1
1558440198162426,1,-1,1,2,4,14,9,2
1558440198162426,1,1,-2,-3,-1,-9,-6,-3
1558440198177386,-1,-1,0,-4,1,15,5,-1
1558440198177386,-2,0,3,-1,0,0,1,-3
1558440198185365,0,0,-3,1,-1,-8,3,3
1558440198185365,-4,-1,-4,-3,-8,-3,-3,-1
1558440198199327,-4,-5,-8,-6,-9,-4,-10,-6
1558440198199327,0,1,-1,1,-4,4,-3,-2
1558440198208304,-1,1,4,2,8,6,1,-1
1558440198208304,-3,-6,-8,-8,-13,-14,-8,-5
1558440198215285,4,1,2,6,3,8,3,1
1558440198215285,-1,-2,0,0,3,4,0,-2
1558440198222266,-1,0,-3,1,1,-11,-8,-2
1558440198222266,1,-2,-3,-2,-3,-9,0,-1
1558440198237232,0,1,1,1,-1,3,-1,0
1558440198237232,-1,-4,-2,-6,-7,-9,-4,-2
1558440198245205,2,0,0,2,13,21,9,0
1558440198245205,-4,-2,-2,-4,-13,-13,-11,-5
1558440198260164,0,1,-1,-1,-7,6,8,2
1558440198260164,-1,0,-1,1,1,-3,0,1
1558440198268143,1,-2,1,3,14,-2,1,1
1558440198268143,2,2,3,5,10,10,10,4
1558440198275125,-5,-5,-4,-6,-9,-11,-11,-5
1558440198275125,-2,-2,-5,-5,-8,1,-6,-4
1558440198282107,-1,-1,1,-3,-11,-12,-8,-3
1558440198282107,3,1,6,3,20,0,8,5
1558440198297066,1,1,4,1,-3,-6,-3,-2
1558440198297066,-4,-1,-4,-1,1,7,2,-2
1558440198305045,-4,-3,-2,-3,-8,9,-1,-4
1558440198305045,2,-1,0,-1,4,-8,1,2
1558440198320007,-2,-3,-11,-8,-19,-23,-14,-8
1558440198320007,0,1,2,3,14,18,9,5
1558440198327991,-3,-2,-4,-3,-14,-5,-3,-5
1558440198327991,-2,1,-1,-5,-9,0,-5,-5
1558440198334965,5,8,14,11,15,14,15,10
1558440198334965,-3,-2,-1,-5,-4,-12,-7,-2
1558440198341946,2,0,-7,0,9,-4,-1,1
1558440198341946,-4,-5,-5,-3,-11,-3,-9,-5
1558440198356906,0,-4,-1,-7,-12,-8,-7,-7
1558440198356906,1,1,1,1,11,13,4,4
1558440198365882,0,1,1,1,-8,-8,0,0
1558440198365882,-2,-2,-2,-1,2,-5,-5,-2
1558440198379844,-2,-2,-2,-4,-7,-1,-3,-4
1558440198379844,0,-3,-5,-1,0,0,0,-1
1558440198387823,-1,-3,0,1,1,-10,-1,1
1558440198387823,-2,0,2,0,-1,7,2,-1
1558440198394805,-4,-5,-4,-3,-5,-5,-6,-2
1558440198394805,4,4,4,5,8,3,8,6
1558440198402783,0,1,-2,0,11,5,0,1
1558440198402783,-2,-1,-5,-6,-8,-2,-2,-4
1558440198417743,-3,-3,-5,0,2,0,-5,-1
1558440198417743,-2,-2,-1,-1,-1,5,6,-1
1558440198425722,-3,-1,-1,-3,-6,-6,-1,1
1558440198425722,0,1,1,2,6,9,4,1
1558440198439687,-1,-2,-3,-4,-10,-6,-9,-6
1558440198439687,-3,-3,-3,-5,-8,-15,-14,-5
1558440198447664,-2,0,0,0,-4,8,4,3
1558440198447664,1,2,3,4,9,3,6,3
1558440198454652,-1,-2,-1,0,4,-4,4,4
1558440198454652,-2,-5,-3,-2,1,-7,-5,-5
1558440198462624,-4,-4,-4,-8,-17,0,-10,-8
1558440198462624,1,0,2,1,4,0,2,-1
1558440198477584,2,2,2,3,12,3,10,1
1558440198477584,2,3,9,6,-4,-6,2,1
1558440198485561,-5,-4,-11,-5,-4,-2,-9,-3
1558440198485561,-3,-2,-6,-5,-7,7,-3,-5
1558440198499525,-1,2,-2,1,-2,-8,-3,0
1558440198499525,-1,-2,-5,-1,5,-1,4,1
1558440198507503,-1,2,5,-1,-8,-7,-3,-2
1558440198507503,1,-2,-2,2,6,5,5,5
1558440198514485,0,-2,1,1,9,13,1,-1
1558440198514485,-4,-5,-2,-6,-16,-8,-12,-8
1558440198530442,3,2,3,1,9,12,9,3
1558440198530442,-1,0,-2,-1,-4,-5,-3,-1
1558440198537424,-3,-4,-3,-4,-15,-20,-12,-3
1558440198537424,-3,-3,-3,-4,0,14,4,-1
1558440198545401,1,0,2,2,4,-7,5,2
1558440198545401,0,0,-1,1,-9,-19,-7,-2
1558440198559365,-1,1,0,3,17,19,10,2
1558440198559365,-3,-4,-5,-5,-15,-5,-11,-5
1558440198568341,2,2,-1,2,2,3,2,1
1558440198568341,3,0,4,1,1,10,7,2
1558440198574324,-3,-1,-3,-4,-2,-7,-7,-4
1558440198574324,0,-1,0,2,7,-1,1,2
1558440198590282,1,-2,0,-1,0,-7,-8,-4
1558440198590282,-1,-1,-2,-3,3,-1,1,0
1558440198597263,3,-2,0,-1,2,5,4,2
1558440198597263,0,-1,-2,0,-2,-1,-1,-1
1558440198605242,-2,-2,-2,-2,-1,-1,-5,-2
1558440198605242,-2,1,4,0,2,-4,2,2
1558440198620203,-3,-3,-1,0,-6,-6,-4,-5
1558440198620203,-1,2,1,0,1,7,5,2
1558440198628180,0,-2,-4,-5,-14,-16,-9,-7
1558440198628180,-3,-4,-6,-5,8,16,7,0
1558440198635169,3,1,0,0,-3,-5,-1,1
1558440198635169,1,-1,-2,-1,3,3,4,1
1558440198651118,-2,0,2,3,8,0,-3,1
1558440198651118,-3,-2,-4,-2,-6,-6,-9,-4
1558440198657104,-4,-4,-5,-6,-8,-4,-5,-4
1558440198657104,-1,-2,-6,-5,-12,0,-4,-6
1558440198665082,1,-1,3,3,-3,-7,3,0
1558440198665082,2,1,3,4,20,7,0,1
1558440198680049,-3,2,0,-2,3,-2,0,1
1558440198680049,1,2,-2,0,-4,-12,-1,0
1558440198688025,-5,-3,-1,-3,-8,10,0,-4
1558440198688025,-1,-2,-2,-1,-1,0,2,-1
1558440198695004,-4,-4,-5,-4,-9,-5,-8,-5
1558440198695004,1,-2,1,5,4,-7,0,2
1558440198710965,1,2,2,-4,9,6,8,4
1558440198710965,0,-2,1,0,-8,-4,-1,1
1558440198716949,1,-1,3,2,3,7,3,2
1558440198716949,-4,-1,-4,-4,-5,-3,-4,-4
1558440198725921,-2,-2,-2,-1,-7,-2,-4,-2
1558440198725921,-3,-3,-7,-8,-6,-6,-7,-5
1558440198739884,-2,0,-1,0,-7,-6,-1,-2
1558440198739884,0,1,8,0,6,-3,0,2
1558440198747862,1,-2,-7,-3,7,4,0,0
1558440198747862,1,1,6,5,9,6,2,3
1558440198754843,-2,-6,-12,-6,-5,-5,-2,-3
1558440198754843,-1,-1,-2,-3,-1,2,4,-1
1558440198770802,-3,0,0,3,2,1,-2,0
1558440198770802,-2,-2,-2,-4,-12,-13,-7,-5
1558440198777782,0,1,4,2,4,7,4,1
1558440198777782,1,2,3,3,5,2,1,0
1558440198785805,-1,-1,0,-2,1,-2,2,0
1558440198785805,-2,-4,-6,-4,-15,-11,-7,-5
1558440198799724,0,-2,-1,0,3,3,-2,-1
1558440198799724,2,-2,-1,1,3,-1,0,-1
1558440198807702,0,0,1,-3,4,8,3,2
1558440198807702,-2,-2,-3,-2,-11,-2,-3,-3
1558440198814787,2,4,5,4,2,-1,4,4
1558440198814787,-5,-1,-4,-5,-3,-5,-5,-1
1558440198830657,-1,-1,-3,-2,-1,0,-5,-3
1558440198830657,-4,-2,-4,0,-11,-10,-8,-6
1558440198837624,-1,1,3,-1,9,11,8,1
1558440198837624,3,-1,-2,2,7,4,2,1
1558440198845609,1,-1,4,3,2,-3,0,0
1558440198845609,-1,0,0,-3,-3,3,-3,-2
1558440198859563,-4,-4,-5,-6,-11,-5,-7,-7
1558440198859563,1,2,-1,-7,3,-2,3,1
1558440198868666,0,0,-3,3,5,0,3,1
1558440198868666,1,-1,1,-1,0,-2,-3,0
1558440198882500,0,0,-1,0,-1,0,4,0
1558440198882500,-2,-2,0,-2,-9,-10,-6,-3
1558440198890483,-2,-2,-3,-6,-7,-8,-5,-6
1558440198890483,-1,-2,-6,-1,12,14,8,1
1558440198906439,0,0,-1,0,2,-6,-6,-1
1558440198906439,0,0,1,2,-6,-5,1,1
1558440198907457,1,0,1,-2,5,-3,0,1
1558440198907457,-2,-3,2,0,-3,0,-1,-2
1558440198928546,-2,1,0,3,14,9,1,-2
1558440198928546,-1,-1,-3,-4,-9,-3,-6,-5
1558440198929378,0,-1,1,0,4,3,2,0
1558440198929378,-3,-1,-9,-2,-3,-4,-3,-2
1558440198942343,-3,-4,-4,-5,-5,-10,-1,2
1558440198942343,-2,-2,-2,-1,-5,3,-1,-2
1558440198950322,0,1,2,2,4,3,1,1
1558440198950322,0,0,3,-2,4,6,4,1
1558440198966277,1,-3,-2,-2,-8,-5,-4,-3
1558440198966277,-3,-3,-1,-1,-2,-3,-4,-1
1558440198967274,-3,-4,-5,-2,-11,-3,-5,-5
1558440198967274,1,3,3,2,5,-2,4,1
1558440198980263,-4,1,-2,-3,0,2,2,-2
1558440198980263,-1,-1,-2,-2,0,-3,-1,-2
1558440198988218,-1,-1,1,-2,-7,-5,1,0
1558440198988218,1,3,2,3,8,1,4,3
1558440199002207,0,-1,0,-1,-4,-5,-4,-1
1558440199002207,-1,0,-1,2,-2,2,1,1
1558440199010187,-3,-1,-4,-5,-4,-1,-5,-5
1558440199010187,-4,-4,-5,-7,-18,-13,-13,-9
1558440199025178,1,0,1,1,6,8,6,3
1558440199025178,3,4,6,3,19,15,14,9
1558440199026116,-1,-1,-3,0,1,-2,0,-1
1558440199026116,-2,-2,2,3,-1,4,2,-1
1558440199040088,-4,-3,-5,-9,-16,-15,-10,-7
1558440199040088,-4,-5,-8,-3,-7,1,-6,-6
1558440199048059,2,2,2,1,9,-5,8,4
1558440199048059,-1,-1,1,2,3,-1,0,0
1558440199062019,0,-1,2,0,-4,-1,-4,0
1558440199062019,-1,-3,-6,-4,-12,-12,-10,-8
1558440199069999,0,0,-3,2,2,8,-1,1
1558440199069999,0,0,2,2,7,-11,2,1
1558440199084959,-1,0,0,0,-8,-3,7,2
1558440199084959,2,0,-1,1,7,8,1,-2
1558440199085955,-2,-2,-3,-2,-7,1,-5,-4
1558440199085955,-1,-2,-1,-3,-3,3,-3,-1
1558440199099990,-1,-2,0,3,4,5,0,-2
1558440199099990,-1,-4,-3,-6,-12,-18,-8,-3
1558440199108905,-3,-3,0,-3,-5,-2,-5,-4
1558440199108905,0,1,0,0,10,7,8,5
1558440199121866,0,0,1,3,5,-6,-1,2
1558440199121866,-1,-2,0,0,3,4,-1,-1
1558440199130914,0,-1,-1,-3,-5,-7,-3,-2
1558440199130914,-1,-3,-2,-2,-6,-3,-5,-4
1558440199153780,-1,-3,-3,0,3,2,-1,-2
1558440199153780,-2,-1,-1,-4,-5,-7,-5,-2
1558440199154774,-2,-4,-4,-1,-11,-6,-8,-5
1558440199154774,-1,1,-2,0,2,8,5,0
1558440199159866,2,4,5,4,24,11,11,7
1558440199159866,-2,-2,-1,-2,-3,-3,-2,0
1558440199168742,-3,-2,0,2,1,3,1,0
1558440199168742,-1,-4,-3,-3,-2,-5,-6,-5
1558440199182802,-4,-3,-4,-3,-10,7,1,-5
1558440199182802,-3,-1,0,2,9,0,0,0
1558440199191674,1,2,1,3,-1,-3,-3,1
1558440199191674,-2,-4,-2,-3,-7,3,-3,-3
1558440199204647,3,3,2,3,4,-9,-2,2
1558440199204647,0,0,-1,-3,5,6,3,2
1558440199213658,-1,-1,-1,-4,-10,2,0,-3
1558440199213658,-2,1,-2,-1,0,-5,-6,-3
1558440199219604,-1,-5,-4,-2,-10,-1,-6,-7
1558440199219604,-1,0,1,2,-6,1,-4,0
1558440199228618,1,3,9,6,17,9,9,5
1558440199228618,-2,-4,-21,-26,-7,-8,-2,1
1558440199242724,-2,-2,-6,-6,-15,-7,-8,-4
1558440199242724,0,0,-1,2,10,8,9,3
1558440199251524,-2,-1,-3,-2,-4,5,2,0
1558440199251524,-1,0,12,13,4,2,-1,0
1558440199264702,-3,-1,-5,-8,1,-5,-5,-3
1558440199264702,-2,-4,-6,-6,-12,0,-9,-8
1558440199273639,3,-1,1,3,2,-7,4,4
1558440199273639,1,0,2,5,9,-3,5,3
1558440199279440,0,-1,0,-3,-4,-6,-2,2
1558440199279440,-3,1,-1,2,-6,-9,-6,-2
1558440199288416,-3,-2,-3,-2,4,5,3,-1
1558440199288416,1,1,4,2,-1,0,0,-3
1558440199302377,-1,-1,1,0,3,9,2,-1
1558440199302377,-3,-2,-2,-2,-6,-10,-4,-2
1558440199311355,-2,-1,-1,-2,1,-1,-4,-2
1558440199311355,2,2,3,1,9,-2,1,4
1558440199324660,-1,0,0,6,-1,1,0,2
1558440199324660,2,3,13,-1,4,1,1,1
1558440199333650,-5,-5,-18,-7,-15,-2,-8,-6
1558440199333650,-3,-4,-6,1,0,6,3,-2
1558440199340277,1,3,4,2,15,1,5,5
1558440199340277,-1,-2,-5,-6,-6,-6,-4,-3
1558440199349274,-2,2,7,3,1,3,5,2
1558440199349274,-2,-3,-1,-5,-22,-22,-12,-5
1558440199362564,1,1,0,3,14,17,9,4
1558440199362564,1,2,3,3,8,-4,1,-1
1558440199371193,0,-2,0,-1,-3,-3,-3,-2
1558440199371193,-4,-2,-8,-5,-7,3,0,-3
1558440199385384,-2,-2,-1,-3,-4,1,-3,-3
1558440199385384,-1,0,0,1,-2,-8,-2,1
1558440199394134,2,0,0,-2,8,-5,0,0
1558440199394134,1,1,2,1,4,-4,-2,2
1558440199400338,-2,-4,-2,-2,-16,-5,-5,-5
1558440199400338,-1,-1,3,3,9,11,6,3
1558440199416169,2,2,9,3,-5,-2,0,1
1558440199416169,-5,-8,-23,-13,-7,-4,-5,-4
1558440199422105,2,0,0,1,-4,-7,3,2
1558440199422105,1,-1,-3,-2,4,5,2,1
1558440199431039,-4,-2,0,-4,-6,-4,-5,-5
1558440199431039,-1,2,9,6,1,1,-2,-1
1558440199445181,-4,-2,-5,-5,-4,-1,-2,-5
1558440199445181,-2,-2,-1,-2,-2,-2,2,1
1558440199453975,0,-1,0,1,5,0,-3,0
1558440199453975,2,2,2,4,4,6,1,0
1558440199459974,-3,-6,-8,-14,-9,-10,-9,-6
1558440199459974,0,-2,0,1,-5,1,1,-1
1558440199468942,0,1,1,-1,8,2,-1,1
1558440199468942,0,0,-1,1,3,0,5,0
1558440199483037,0,0,3,2,-2,-4,-2,0
1558440199483037,-2,-1,-4,-2,1,4,1,-1
1558440199490877,-3,-3,-5,-6,-11,-3,-4,-2
1558440199490877,2,0,4,1,0,3,1,1
1558440199504841,-1,0,2,3,3,-5,-2,-1
1558440199504841,-6,-2,-8,-4,-12,0,-5,-5
1558440199513813,-1,-3,-4,-2,-2,-9,-2,-1
1558440199513813,-4,1,5,3,1,1,2,1
1558440199519800,-4,-1,-3,-4,-2,4,2,1
1558440199519800,0,-2,-7,-3,2,0,0,0
1558440199528778,1,-2,-3,-1,-2,3,-2,-4
1558440199528778,-2,-2,1,1,-4,-5,-7,-5
1558440199542737,-1,-1,-1,-1,-4,0,-2,-2
1558440199542737,2,1,7,2,0,-1,2,1
1558440199551080,0,2,-6,-1,6,-1,2,3
1558440199551080,-3,-5,-9,-4,-3,-6,-4,-1
1558440199565047,-2,-5,-3,-2,-6,-2,-3,-2
1558440199565047,-4,-2,0,-1,-7,-4,-2,-1
1558440199574079,-3,-2,0,0,-5,-1,-5,-5
1558440199574079,4,3,6,4,12,13,10,3
1558440199580291,-2,-2,-2,0,4,2,-5,-4
1558440199580291,-1,0,-1,-4,-8,-12,-4,-3
1558440199596216,-4,-2,-1,-5,-5,-6,-5,-3
1558440199596216,-2,0,3,1,3,2,5,3
1558440199602241,0,1,0,1,1,-6,0,-2
1558440199602241,-3,-3,-1,-1,2,8,3,-1
1558440199611198,-5,-3,-5,-4,-13,-5,-9,-5
1558440199611198,1,0,2,1,7,4,0,3
1558440199625122,4,4,4,1,9,-14,4,6
1558440199625122,-1,-2,-1,0,1,0,-3,-1
1558440199633924,-3,-2,-5,-3,-4,2,-1,-3
1558440199633924,-4,-1,0,-1,-12,3,-6,-6
1558440199648915,-6,-6,-6,-7,-22,-13,-8,-5
1558440199648915,4,1,0,4,16,7,1,2
1558440199649874,-2,-2,1,2,12,12,9,2
1558440199649874,0,-2,0,-3,-1,1,0,-2
1558440199662840,-1,-1,-2,-2,-1,6,-1,0
1558440199662840,-1,-1,-4,-1,-9,-21,-5,1
1558440199670820,-1,-2,-4,-2,-4,-3,1,1
1558440199670820,0,1,0,-1,1,-1,0,0
1558440199684994,1,0,2,0,-2,1,3,2
1558440199684994,-1,-1,-1,0,0,7,-3,-4
1558440199693763,0,0,5,3,1,0,0,1
1558440199693763,-2,-2,-4,-3,-5,-8,-3,-2
1558440199716706,-1,-5,-8,-4,1,-3,-4,-2
1558440199716706,1,0,1,0,-1,5,7,2
1558440199717697,1,0,-2,0,2,1,-3,-2
1558440199717697,-4,-3,-5,-3,-12,2,-5,-6
1558440199722679,-1,0,1,2,5,-1,0,-2
1558440199722679,0,0,-2,0,5,3,0,2
1558440199731655,-2,-2,-2,-3,-3,-3,-1,-2
1558440199731655,0,-1,1,1,2,-5,1,3
1558440199744618,0,-1,-1,-1,1,5,-1,-2
1558440199744618,-2,-3,-1,-2,-5,2,0,-2
1558440199753594,3,1,1,0,-6,-17,-4,0
1558440199753594,-4,-2,-3,-2,1,-4,-2,-1
1558440199768552,-3,0,-2,0,3,6,1,-1
1558440199768552,-3,0,-1,-1,1,-5,-4,0
1558440199770548,0,-1,-1,-1,-2,4,-2,-2
1558440199770548,1,-2,-3,-8,-1,-4,-1,-3
1558440199782859,0,0,1,1,-2,0,-2,-1
1558440199782859,-3,-2,-3,-2,-3,0,-2,-3
1558440199791529,-3,0,-2,-2,0,0,0,2
1558440199791529,-1,0,-2,-1,-3,-2,1,0
1558440199805466,-2,-1,0,1,-4,-2,-2,-1
1558440199805466,2,0,-2,-1,3,-4,-2,-2
1558440199813640,0,0,-1,0,0,-1,1,0
1558440199813640,0,-1,0,2,1,0,0,-2
1558440199829420,2,-1,-1,-3,1,6,1,-2
1558440199829420,-2,-4,-5,-4,-12,-2,-8,-6
1558440199830392,-3,-3,-3,-3,-4,-5,0,-3
1558440199830392,2,4,7,8,8,7,11,7
1558440199842388,-2,0,-3,-7,0,-2,2,0
1558440199842388,-1,-2,-3,-1,4,-1,-1,0
1558440199851333,-4,-3,-2,-3,-10,-11,-7,-6
1558440199851333,-1,-3,-3,-1,-4,1,-1,0
1558440199865517,1,2,2,2,3,2,-1,0
1558440199865517,0,-2,0,1,4,2,3,0
1558440199874276,-1,-2,-2,-1,-3,0,-4,-4
1558440199874276,-2,-2,-4,-6,-15,-15,-13,-5
1558440199889382,-3,-1,1,2,2,0,0,0
1558440199889382,-1,-2,-2,-5,4,9,4,0
1558440199890233,-1,1,3,2,13,5,5,2
1558440199890233,-2,0,2,-3,0,-9,-4,-3
1558440199902362,-3,-1,0,0,0,-2,-1,-1
1558440199902362,-4,-4,-2,0,-15,-6,-6,-4
1558440199911174,2,-1,0,2,6,5,3,3
1558440199911174,1,0,-5,-13,1,4,3,2
1558440199925137,2,2,3,6,1,-8,1,1
1558440199925137,1,1,4,0,10,9,8,3
1558440199934111,-1,-1,-8,-8,-6,-2,-3,-2
1558440199934111,-5,-5,-4,1,-8,-4,-10,-6
1558440199949071,1,-1,-1,-6,3,1,4,2
1558440199949071,-2,0,1,-1,-1,-2,-6,-2
1558440199950068,-1,-2,-1,0,-14,1,-2,-1
1558440199950068,0,2,5,5,16,12,2,-2
1558440199962035,-1,-3,-5,-4,-9,-6,-6,-2
1558440199962035,1,1,0,4,2,-6,3,1
1558440199971011,1,1,2,-2,6,-1,0,1
1558440199971011,-2,-5,-5,-1,-5,-9,-11,-5
1558440199984975,0,1,3,1,-1,2,2,0
1558440199984975,0,-2,0,0,11,7,5,4
1558440199993952,-3,-4,-11,-7,-11,-5,0,-2
1558440199993952,-2,-2,-1,-1,0,1,3,0
1558440200009956,0,-1,-2,1,1,6,-1,-1
1558440200009956,-2,0,1,0,-9,-10,-6,-2
1558440200010908,-1,0,3,-1,3,2,0,-1
1558440200010908,-1,-2,-2,-1,-4,-2,-2,-1
1558440200023014,-2,-1,-1,-1,-5,-1,-3,-3
1558440200023014,0,1,-1,-2,-3,-2,-1,-3
1558440200031889,0,0,0,-3,-2,-12,-4,1
1558440200031889,-2,-2,1,1,-1,1,0,1
1558440200045470,-2,-1,-1,-1,-3,-5,-4,-2
1558440200045470,-1,-1,-2,2,5,4,3,1
1558440200054113,-4,-4,-1,3,1,-3,0,-2
1558440200054113,0,2,12,2,-3,-2,-7,-2
1558440200069071,-1,1,-4,0,5,4,3,3
1558440200069071,-3,-3,-6,-3,-3,0,-4,-5
1558440200070068,0,-2,-6,-4,-1,-2,-1,-1
1558440200070068,-2,-3,-15,-5,-2,-4,1,-1
1558440200082080,0,3,7,3,4,10,3,0
1558440200082080,4,8,28,13,5,-1,0,1
1558440200091014,-6,-12,-26,-17,-8,-2,-2,-4
1558440200091014,1,1,2,2,5,11,8,1
1558440200105009,-2,-2,-1,-1,3,-9,-3,-4
1558440200105009,-2,-2,-4,-4,-9,-3,-3,-4
1558440200113991,0,3,13,5,4,8,0,-1
1558440200113991,1,-2,1,0,-2,-8,-1,1
1558440200128911,1,-3,-8,-5,-3,-11,-2,2
1558440200128911,-3,-2,-5,-4,-2,-6,-1,-2
1558440200129910,0,6,8,9,7,10,5,1
1558440200129910,-3,-1,-4,-3,-4,2,-2,-4
1558440200141877,0,-2,4,1,-3,-1,-4,0
1558440200141877,-1,-2,-8,-6,-2,-5,-4,0
1558440200151306,-1,0,-2,-2,-5,-1,-4,-4
1558440200151306,3,0,2,2,8,7,7,4
1558440200165284,1,-2,-2,-3,-3,-15,-5,0
1558440200165284,-2,-5,-8,-3,-9,-1,-7,-4
1558440200173796,1,0,4,-2,0,3,-2,1
1558440200173796,-1,0,-3,-3,-7,-11,-2,2
1558440200189070,-3,-3,-1,-2,1,9,3,-1
1558440200189070,-2,-1,3,1,-6,-8,3,0
1558440200189804,0,2,2,5,15,9,1,2
1558440200189804,1,2,7,1,-6,-3,-5,-2
1558440200202091,-3,-9,-17,-10,-12,-6,-6,-5
1558440200202091,0,-2,-6,-7,6,0,0,1
1558440200211748,0,0,4,4,-3,-5,-2,-1
1558440200211748,-1,0,-2,1,1,2,-2,-2
1558440200225028,-3,1,7,0,-2,4,-2,-1
1558440200225028,2,-2,-3,-1,-2,0,-3,0
1558440200233713,-1,-2,1,0,0,-9,1,-1
1558440200233713,-2,-3,-4,0,-4,-1,0,-1
1558440200249857,3,6,6,5,16,18,16,4
1558440200249857,-2,-1,-1,-2,-4,-4,-4,-2
1558440200255632,-1,-1,0,-2,-4,-2,-6,-3
1558440200255632,-1,-2,-2,-6,-10,-5,-6,-5
1558440200262896,-2,-1,-3,-1,-1,-3,-2,-1
1558440200262896,-3,-2,-1,2,5,-1,2,2
1558440200271592,0,-1,1,2,0,5,-1,0
1558440200271592,-4,-4,-5,-3,-1,4,0,-1
1558440200285585,-2,-4,1,-3,-6,-7,-2,0
1558440200285585,1,2,3,2,8,6,4,1
1558440200293663,-2,0,-4,-3,-1,-1,0,-1
1558440200293663,-1,-1,1,1,4,3,-4,0
1558440200308760,-2,-3,-2,1,-5,6,0,-1
1558440200308760,-1,-1,-1,-4,0,-7,-4,-3
1558440200310487,0,0,0,-3,-14,-5,-4,-2
1558440200310487,1,4,3,4,20,18,14,6
1558440200339440,0,-1,-3,-1,-1,-13,-7,-3
1558440200339440,0,-2,1,-2,-8,-2,-4,-2
1558440200340410,-1,-2,-5,-4,0,2,1,-1
1558440200340410,-1,-5,-4,-3,-8,-10,-7,-4
1558440200344395,-2,2,0,-4,1,8,1,-4
1558440200344395,-3,-4,-6,-1,-3,-4,-6,-4
1558440200353370,3,4,4,4,7,-6,2,4
1558440200353370,-3,-1,0,-3,-8,-8,-5,-1
1558440200376709,-1,-2,-1,0,1,-5,-2,-1
1558440200376709,-3,0,1,0,-2,10,1,-1
1558440200377307,-1,-2,1,-3,-9,1,-6,-7
1558440200377307,2,1,-4,-2,3,-2,5,4
1558440200382655,1,0,0,2,2,-1,2,4
1558440200382655,1,1,1,-1,1,-9,1,1
1558440200391276,-4,-4,-5,-5,-6,-7,-6,-2
1558440200391276,-1,-2,-1,-2,-1,0,-3,-4
1558440200414534,-3,-1,-1,-1,-3,-4,-7,-5
1558440200414534,0,0,-1,1,2,8,7,2
1558440200415206,-1,-3,0,1,2,6,3,-2
1558440200415206,0,-1,0,-3,-12,-15,-9,-6
1558440200428170,0,-2,0,-2,0,1,4,3
1558440200428170,0,0,-1,-2,2,-6,-7,-2
1558440200435511,-2,-2,1,3,0,-2,-4,-2
1558440200435511,-4,0,0,0,-2,2,2,1
1558440200451484,0,-2,1,-2,4,-5,0,0
1558440200451484,-1,-3,-4,-4,-12,-1,-3,-2
1558440200452107,0,1,0,2,3,13,8,1
1558440200452107,-2,-3,-1,-1,-7,-6,-4,-2
1558440200465394,-2,1,1,2,8,16,8,0
1558440200465394,-1,1,1,1,6,-1,4,3
1558440200481284,2,-1,-3,-4,-7,-12,-4,1
1558440200481284,1,-2,-1,0,0,7,-1,-1
1558440200496022,-1,-2,-3,-3,-4,-3,-6,-5
1558440200496022,-1,-2,-3,-1,0,9,1,0
1558440200497987,-2,-1,1,-3,1,-2,1,0
1558440200497987,1,1,2,-3,-5,-14,-7,-2
1558440200502233,-2,-3,-1,-3,-7,-3,-6,-3
1558440200502233,1,-1,-2,0,-6,-15,-4,0
1558440200511196,1,-1,-1,-2,-3,-2,-3,-4
1558440200511196,-3,-3,-2,0,8,16,9,2
1558440200533889,-1,0,-1,1,-2,-5,0,-2
1558440200533889,-1,-2,-1,-2,0,-4,-4,-3
1558440200534888,1,-2,1,2,1,-1,5,2
1558440200534888,1,2,2,-1,2,-1,-2,0
1558440200548089,-3,-2,-4,-5,-7,-2,-6,-1
1558440200548089,-4,0,-2,-2,-8,-3,-6,-2
1558440200554831,-1,-3,-1,0,1,-2,1,2
1558440200554831,1,-1,-1,-1,1,-3,-5,0
1558440200572033,-2,-3,-3,-2,-3,-5,-2,-2
1558440200572033,0,-3,-1,-1,-2,4,-1,-1
1558440200572785,-3,-1,-2,-5,-6,-4,-7,-3
1558440200572785,-3,-1,-1,1,1,-2,2,1
1558440200585242,1,1,1,0,-2,-5,-3,0
1558440200585242,-2,-1,-2,-1,-3,-4,-1,-2
1558440200593727,1,3,3,3,2,-1,7,1
1558440200593727,1,0,-3,-1,2,-3,-3,-3
1558440200617007,-3,-4,-5,-3,-8,-3,-6,-4
1558440200617007,2,1,4,3,10,13,11,5
1558440200617664,-1,-1,-1,1,9,9,1,1
1558440200617664,-3,-3,-1,-2,-11,-8,-3,-3
1558440200631855,-1,-2,-2,-3,-8,-10,-9,-2
1558440200631855,-2,0,-2,-2,-1,3,1,1
1558440200632627,0,-1,-2,1,-1,-4,-3,-2
1558440200632627,-1,-2,-2,0,1,5,-1,-1
1558440200653570,-1,-2,-1,-1,2,-6,5,2
1558440200653570,-2,-3,-3,-3,-10,-12,-7,-5
1558440200654565,-2,0,2,1,-1,5,0,0
1558440200654565,-3,-2,-4,-2,0,-3,-2,-4
1558440200668626,4,-1,2,4,9,13,10,5
1558440200668626,-2,-1,-3,-3,-2,0,-4,-3
1558440200674769,-5,-5,-8,-6,-8,-10,-6,-1
1558440200674769,0,0,1,-1,-2,3,1,-3
1558440200691721,1,2,3,3,7,-1,1,2
1558440200691721,0,-2,2,0,-7,-11,-3,-5
1558440200692468,0,-2,-2,-4,-1,4,-8,-3
1558440200692468,-3,-3,-12,-5,-1,7,0,-1
1558440200705463,-1,3,6,2,6,2,7,4
1558440200705463,-2,-3,-13,-8,-4,-6,-3,-2
1558440200713605,-1,-2,-1,-1,-3,-8,-1,0
1558440200713605,-1,0,2,1,6,3,-3,-1
1558440200736346,-1,-1,0,-3,-6,3,-2,-3
1558440200736346,0,-1,2,0,-3,-2,-5,-2
1558440200737347,0,-1,3,0,4,9,5,1
1558440200737347,-1,-1,-2,0,0,4,5,1
1558440200751548,-2,2,2,0,2,-1,-3,0
1558440200751548,-2,-2,-4,-2,-9,-9,-10,-5
1558440200752304,1,0,2,1,-4,-7,0,1
1558440200752304,0,-2,1,1,9,4,0,-1
1558440200774352,0,0,8,3,-3,2,-1,-3
1558440200774352,0,-3,-14,-4,5,1,-2,2
1558440200775243,-4,0,-2,-2,-1,-4,0,0
1558440200775243,-3,-1,1,-1,-9,-4,-5,-1
1558440200788595,-4,-4,-9,-4,-9,-3,-5,-4
1558440200788595,1,4,13,6,5,1,3,0
1558440200795194,1,0,-2,1,3,-4,7,1
1558440200795194,2,3,0,3,11,0,4,2
1558440200811527,0,-1,3,-1,-4,-10,-8,-4
1558440200811527,-3,-1,2,-4,-4,7,-2,-3
1558440200812557,-2,-3,-3,-2,-9,-2,-5,-4
1558440200812557,1,0,4,0,-5,-10,-1,-1
1558440200825516,-2,-4,-10,-3,-8,-2,-2,-2
1558440200825516,1,-1,-2,-1,12,7,11,5
1558440200833824,0,0,2,1,7,5,1,2
1558440200833824,-3,-4,-4,-5,-11,-5,-5,-5
1558440200856842,3,4,10,6,5,8,-3,-2
1558440200856842,-4,-7,-16,-11,-14,-10,-4,-4
1558440200857519,-3,-1,-2,0,2,-3,0,-1
1558440200857519,1,2,2,0,8,-1,-1,2
1558440200871851,-3,0,-2,-3,1,2,3,1
1558440200871851,0,1,8,4,-1,3,-3,-2
1558440200872478,-3,-4,-3,-6,-10,1,-2,-7
1558440200872478,1,0,-1,-2,-4,-12,-2,1
1558440200893758,0,0,-1,3,1,0,1,1
1558440200893758,0,0,2,1,0,0,1,0
1558440200895415,2,0,1,-1,-1,2,0,-1
1558440200895415,-1,-3,-5,-2,-3,-5,-3,-2
1558440200907724,1,-1,-7,-1,2,1,-1,1
1558440200907724,-2,2,5,1,6,6,5,4
1558440200916359,0,1,-4,-1,3,-1,-1,1
1558440200916359,-4,-3,-2,-2,-9,1,-5,-7
1558440200931661,-1,-2,-7,-3,5,2,6,3
1558440200931661,0,3,1,5,9,2,9,4
1558440200932609,-2,-3,-1,-1,2,-3,-6,-2
1558440200932609,-4,1,2,-1,-7,-1,-3,-4
1558440200944282,-4,-6,-7,-4,-16,-10,-4,-6
1558440200944282,2,-1,0,0,1,-2,1,0
1558440200953259,-1,2,5,3,1,-1,-3,-1
1558440200953259,1,-2,0,-2,5,2,3,-1
1558440200967564,-4,-4,-4,-7,-12,-1,-9,-6
1558440200967564,-2,-2,-7,-3,-4,-7,-4,-1
1558440200976677,0,-1,1,-1,1,-3,-1,1
1558440200976677,-1,1,3,3,9,4,-1,2
1558440200991960,-3,-3,-4,-5,-11,-9,-4,-5
1558440200991960,-2,-1,2,2,10,16,5,0
1558440200992640,-3,0,0,0,3,-4,-1,1
1558440200992640,-3,-4,-8,-4,-7,-8,-1,0
1558440201005955,-1,0,5,-1,4,0,2,-2
1558440201005955,0,-1,-3,-3,-2,2,-2,-1
1558440201014616,-3,-3,-3,-4,-11,-4,-2,-6
1558440201014616,3,2,1,6,12,18,14,5
1558440201027992,1,0,-2,-1,0,-6,-5,-2
1558440201027992,-2,-3,0,-1,-2,-3,-5,-2
1558440201035962,-1,-2,2,1,5,-9,2,2
1558440201035962,-1,0,-3,-4,-7,-14,-10,-2
1558440201051173,-2,-1,-3,1,2,3,2,1
1558440201051173,0,0,1,3,4,9,5,1
1558440201052924,0,-1,-1,0,-3,-1,-3,-2
1558440201052924,-2,-2,-2,-3,-5,-3,-7,-3
1558440201065128,-2,-2,-2,-3,-5,-1,-6,-5
1558440201065128,-2,-3,0,-2,-9,-10,-2,-2
1558440201073425,1,1,-1,0,4,-1,5,3
1558440201073425,-1,-1,-1,-1,2,1,-2,-1
1558440201088145,-2,-1,0,-2,-5,-1,-2,0
1558440201088145,0,-3,0,-1,-8,-1,-1,-1
1558440201096226,-1,0,-3,0,2,0,1,-2
1558440201096226,0,2,3,0,-3,-1,0,3
1558440201111119,5,2,3,3,9,-1,3,3
1558440201111119,-2,-2,-4,-4,-4,1,-5,-5
1558440201113111,-4,-4,-3,-3,-12,-1,-9,-7
1558440201113111,-2,-3,0,1,4,2,5,1
1558440201134055,-1,-1,0,0,6,-14,4,1
1558440201134055,0,2,0,1,3,5,3,1
1558440201135020,-3,-2,-3,-1,-7,-7,-6,-4
1558440201135020,0,2,1,-1,-1,5,1,-1
1558440201146988,-1,1,-1,-1,5,6,4,2
1558440201146988,0,0,-1,0,-2,-7,0,-1
1558440201172916,1,-1,-2,-2,-1,1,-5,-1
1558440201172916,0,-6,-3,-4,-6,-9,-8,-5
1558440201173915,-2,-3,-1,-1,-5,-2,0,1
1558440201173915,0,3,4,1,3,1,4,3
1558440201176908,-4,-1,-1,-3,-1,5,-1,-2
1558440201176908,-5,-4,-2,-2,-2,-3,-3,-1
1558440201184929,2,-1,0,3,1,-2,2,1
1558440201184929,-3,-2,-2,-4,-2,-13,-9,-2
1558440201193863,1,0,0,1,4,6,6,4
1558440201193863,-2,-1,-2,-2,-8,-8,-9,-6
1558440201208071,-3,-4,-3,-2,1,0,-3,-4
1558440201208071,0,2,3,0,6,-4,1,3
1558440201216101,-1,-3,-2,-2,-1,1,1,1
1558440201216101,1,-1,-2,-1,0,4,3,-1
1558440201231076,-2,-3,-6,-5,-14,-6,-11,-8
1558440201231076,3,0,-2,0,2,0,-1,0
1558440201232758,2,3,3,3,7,0,9,4
1558440201232758,-1,-2,-1,-1,-1,1,1,1
1558440201245009,-1,-1,-1,-2,0,5,-2,0
1558440201245009,-2,-3,-5,-5,-12,-9,-11,-8
1558440201253700,-4,-2,-1,-2,-5,-1,-3,-1
1558440201253700,-2,0,0,-3,-2,-2,-2,-1
1558440201267990,-1,0,0,1,2,-7,0,1
1558440201267990,-2,-2,1,3,3,1,2,2
1558440201293628,2,-1,-2,-2,0,0,-3,0
1558440201293628,-1,-2,-1,1,4,5,-1,-1
1558440201293628,-2,-1,0,-1,-3,1,-3,-2
1558440201293628,-3,-2,-3,-4,-7,-9,-4,-5
1558440201297874,1,1,-1,2,3,3,4,0
1558440201297874,0,-2,1,-2,-1,-5,-1,-1
1558440201304858,0,1,0,1,7,9,3,-1
1558440201304858,-1,-2,-5,-1,-2,1,2,-1
1558440201313715,0,-1,0,-2,0,1,-3,0
1558440201313715,-3,1,-1,-2,-5,-11,-3,-1
1558440201327786,-1,0,3,3,8,13,7,2
1558440201327786,-3,-2,-2,-2,1,1,0,-1
1558440201336480,-3,-4,-2,0,-4,-2,-5,-3
1558440201336480,0,-2,-1,0,0,2,2,0
1558440201350448,-1,-1,-2,-1,-7,-4,-7,-3
1558440201350448,-3,-2,-2,-2,-1,4,-2,-5
1558440201365403,-2,-3,-3,-4,-11,-14,-7,-3
1558440201365403,4,3,3,3,10,12,11,3
1558440201366400,-1,-2,0,0,-8,0,3,1
1558440201366400,0,-4,1,0,7,4,3,2
1558440201373382,1,1,8,3,-2,-2,1,-1
1558440201373382,-3,-4,-16,-7,-6,-4,-7,-4
1558440201387343,0,-1,-5,-2,4,-2,-3,0
1558440201387343,1,2,0,-2,2,-7,3,2
1558440201412743,-2,-2,1,-3,0,1,1,-2
1558440201412743,-2,0,7,2,-7,-11,-7,-1
1558440201414302,-1,-2,-1,-3,-1,5,0,-1
1558440201414302,-3,-1,-2,-2,-5,-1,-6,-5
1558440201417709,-2,-1,-3,-2,2,1,0,-1
1558440201417709,-1,-1,2,0,-5,-2,-5,-3
1558440201425661,-2,-2,-4,-5,-5,-12,-3,2
1558440201425661,0,0,3,3,8,12,4,2
1558440201433668,-2,-1,-4,-2,-7,-8,-2,-2
1558440201433668,1,1,-1,-2,11,9,9,2
1558440201447613,0,2,5,2,-6,-3,-2,-3
1558440201447613,-2,-4,-2,-2,-3,-2,-2,-3
1558440201456160,-1,-1,-5,-1,6,1,-1,-1
1558440201456160,-4,-6,-12,-6,-8,-6,-6,-2
1558440201471445,0,1,4,-1,0,-4,-1,0
1558440201471445,-1,-1,0,1,-7,-8,-5,-2
1558440201485432,-1,-1,-6,-1,1,0,1,-1
1558440201485432,0,2,6,1,-1,1,0,0
1558440201486080,-1,1,5,3,5,5,4,-1
1558440201486080,-1,-1,-4,-3,-7,-4,-4,-2
1558440201494060,0,-3,0,0,5,7,-2,-1
1558440201494060,-3,-5,-15,-6,-6,-4,5,0
1558440201508054,2,0,0,-1,4,-6,2,2
1558440201508054,-1,0,-2,0,1,0,0,2
1558440201523983,-2,-1,3,-2,-3,-4,-6,-5
1558440201523983,-1,0,6,3,-2,3,0,-1
1558440201531156,-2,-2,-6,-1,2,-1,2,-1
1558440201531156,-3,-1,-2,-2,-10,-11,-5,-6
1558440201536949,2,2,-1,4,5,3,2,1
1558440201536949,-1,-1,2,0,8,12,5,1
1558440201561907,-1,-4,-5,-2,2,-1,-6,-1
1558440201561907,1,0,0,-1,-4,-3,-4,-1
1558440201562905,-1,-3,0,-2,1,6,8,1
1558440201562905,0,0,2,1,0,-15,-7,0
1558440201566897,0,0,1,-1,3,6,1,-2
1558440201566897,-2,0,-3,-1,-1,3,-3,-1
1558440201575871,0,-2,-2,-3,-3,-4,-2,-2
1558440201575871,-1,1,2,3,0,0,-1,-3
1558440201590802,-3,-3,-1,1,-3,2,-2,-1
1558440201590802,-2,-4,-4,-7,-7,-8,-10,-5
1558440201604790,1,0,-2,0,-1,5,3,2
1558440201604790,0,1,2,3,7,-1,4,3
1558440201614239,-1,-1,-2,-4,-4,-8,-4,-2
1558440201614239,-2,0,-2,-2,0,4,-1,0
1558440201615994,-3,-2,0,0,-5,-6,-2,-2
1558440201615994,0,-2,-1,-2,-9,-9,-4,-2
1558440201628043,-1,1,-1,2,9,8,2,-1
1558440201628043,1,0,1,1,8,5,4,-1
1558440201643688,0,0,1,0,1,-4,-1,0
1558440201643688,-1,-2,-2,-3,-8,-1,-5,-4
1558440201650996,-1,-1,-3,-4,-8,-14,-8,-2
1558440201650996,1,0,0,1,4,3,2,3
1558440201657622,-2,-1,-1,-1,-3,-4,-3,-2
1558440201657622,0,4,2,-1,4,8,7,2
1558440201680888,0,0,-1,0,-5,2,3,1
1558440201680888,-4,-2,-3,-2,-3,-6,-3,-3
1558440201689538,0,-1,-5,-3,-10,-5,-7,-3
1558440201689538,-4,-5,-2,-4,-2,-5,-7,-3
1558440201690593,-2,-2,0,0,-8,-2,-4,-2
1558440201690593,2,3,2,2,10,4,5,4
1558440201696517,-1,-1,-1,0,7,5,4,1
1558440201696517,-3,0,2,2,-1,2,-2,-3
1558440201710802,-1,-3,-1,-3,-4,-2,-2,-5
1558440201710802,-2,-4,-2,-2,0,5,2,-2
1558440201725439,1,1,0,-1,0,-7,-2,2
1558440201725439,0,-1,0,-3,-3,-13,-6,-1
1558440201733734,0,0,-2,-3,0,0,2,-1
1558440201733734,3,-1,2,2,4,1,1,1
1558440201735413,-3,-1,-2,0,3,10,5,1
1558440201735413,1,0,1,2,3,7,4,2
1558440201747677,0,-4,-3,-2,-6,-2,-9,-4
1558440201747677,1,-3,-2,-2,-4,-3,-4,-3
1558440201762625,1,-1,0,1,8,5,7,3
1558440201762625,-2,-2,-3,-2,1,4,-2,-3
1558440201770320,-1,-1,-3,-1,-4,-3,-1,-2
1558440201770320,-1,-1,-2,-3,-8,-14,-9,-3
1558440201777538,-2,-2,0,-1,-5,-6,-1,0
1558440201777538,2,2,0,1,5,0,-1,0
1558440201801500,-3,-2,-1,2,2,2,-2,0
1558440201801500,-3,-1,-1,-3,-8,-3,1,-1
1558440201802239,-1,-2,-1,-2,-5,-2,-6,-3
1558440201802239,0,-5,-3,-1,-3,-9,-6,0
1558440201807221,1,-1,-1,-3,-1,-1,0,-1
1558440201807221,0,-1,1,1,2,2,1,0
1558440201816197,-1,-1,-1,-2,-5,-2,-1,-2
1558440201816197,-3,-3,-4,-5,-9,-6,-6,-6
1558440201831157,1,2,2,3,16,11,12,5
1558440201831157,-4,-2,-3,-1,0,1,2,0
1558440201837142,-2,0,-1,1,3,5,-4,-2
1558440201837142,-2,-1,-1,-2,-1,-2,1,-3
1558440201853099,-1,-2,-2,-2,-2,-7,-7,-4
1558440201853099,0,1,1,-1,3,-4,-1,0
1558440201855093,-2,-2,-1,0,-4,0,-1,0
1558440201855093,1,0,-2,-2,-1,-3,1,2
1558440201867093,-2,1,-2,-1,-2,4,-3,-1
1558440201867093,0,-1,0,-1,-1,-4,-1,-4
1558440201876168,-2,-2,-3,-3,-5,-7,-6,-3
1558440201876168,1,0,3,1,3,0,4,0
1558440201891182,-3,-2,-2,-2,-6,-6,-6,-4
1558440201891182,-3,-2,-5,-3,-9,2,-4,-3
1558440201897979,-1,1,0,-2,0,-11,-2,2
1558440201897979,0,-2,0,0,1,4,0,-2
1558440201914214,0,1,1,-1,0,-3,-2,0
1558440201914214,1,-2,1,2,5,5,5,1
1558440201914936,0,-2,-3,0,0,5,-2,-4
1558440201914936,-2,-1,-1,-1,-3,0,4,1
1558440201928025,-3,-3,-3,-4,-7,-5,-7,-4
1558440201928025,-4,-3,-5,-1,-6,4,0,-1
1558440201935879,1,5,7,1,8,-10,0,5
1558440201935879,2,2,-1,-4,-1,-11,-9,-1
1558440201958869,0,-2,-1,2,2,4,2,1
1558440201958869,1,1,7,8,17,14,10,3
1558440201959812,0,-1,4,0,-5,4,-1,-3
1558440201959812,-4,-7,-25,-13,-7,3,-2,-3
1558440201974026,-1,-3,-1,0,-2,-3,0,-2
1558440201974026,-1,-1,0,-5,-5,-14,-7,1
1558440201974772,-2,-1,3,0,-1,2,-1,-2
1558440201974772,-1,1,3,2,-5,2,0,-3
1558440201996871,1,1,-1,-3,1,-13,-2,1
1558440201996871,3,1,0,1,-1,7,4,0
1558440201997713,1,-2,-3,-2,0,2,-2,-1
1558440201997713,0,-1,3,3,4,3,1,1
1558440202010679,-2,-2,-1,-3,0,-3,2,1
1558440202010679,-2,-6,-9,-4,-9,-14,-5,-4
1558440202018013,2,3,-2,2,10,-2,2,2
1558440202018013,-3,-4,1,1,2,4,1,-1
1558440202034055,-2,-1,3,-1,-7,4,0,-2
1558440202034055,-3,-1,-4,-5,-5,-4,-6,-3
1558440202034613,-2,-4,-6,-3,-17,-9,-6,-8
1558440202034613,-2,1,2,2,3,-2,2,4
1558440202048045,0,-1,-1,1,3,1,0,1
1558440202048045,-3,-2,-2,-2,-4,2,-2,-2
1558440202056582,0,1,-3,-3,0,-1,2,2
1558440202056582,2,-1,5,0,1,-2,1,1
1558440202070878,0,-3,-1,1,5,6,3,-1
1558440202070878,-3,0,0,-3,-3,4,-3,-5
1558440202077854,-2,-3,-1,-1,0,-3,-4,-1
1558440202077854,-1,0,-1,1,8,4,2,3
1558440202093751,-1,-1,-5,-3,-1,-11,-1,1
1558440202093751,-2,-3,-2,-1,-5,-3,-4,-2
1558440202095532,-2,-3,-3,-2,-3,3,-2,-6
1558440202095532,0,-1,0,-1,-12,-7,-4,-2
1558440202107741,3,2,4,3,4,1,-3,1
1558440202107741,0,0,-1,-1,4,-6,0,4
1558440202116399,-2,-2,7,0,-3,4,-4,-2
1558440202116399,-2,-5,-15,-7,-7,-1,-3,-4
1558440202130595,-2,-2,3,0,-6,-4,0,-3
1558440202130595,1,2,2,-2,2,-5,-1,0
1558440202137370,-1,-2,-8,-1,3,1,6,2
1558440202137370,0,0,5,2,3,6,-3,-3
1558440202153300,-3,-3,-8,-5,-6,4,0,-3
1558440202153300,0,1,2,1,0,-8,-2,3
1558440202155291,-2,0,-2,-4,-9,-11,-7,-3
1558440202155291,0,1,3,1,5,5,5,1
1558440202167497,-4,-2,-6,-2,-2,3,-2,-2
1558440202167497,-2,-3,-1,-3,-5,0,-2,-4
1558440202176235,2,-2,1,-1,4,-4,0,3
1558440202176235,0,0,-2,0,1,-1,-3,0
1558440202190230,0,0,0,-1,0,2,0,-2
1558440202190230,1,0,1,0,0,-2,1,2
1558440202197177,-3,-4,-2,-2,-1,4,-2,-1
1558440202197177,-3,-2,-4,-1,-7,-7,-4,-3
1558440202213137,2,2,4,0,1,-13,-3,1
1558440202213137,-5,-1,-3,-2,-3,-7,-2,-3
1558440202215131,-1,0,-4,0,-1,6,3,-4
1558440202215131,-2,-1,2,-1,-4,-2,-2,-1
1558440202227132,-2,0,-1,2,7,12,4,1
1558440202227132,3,-1,1,4,4,2,1,1
1558440202236101,-1,-5,-4,-6,-4,-8,-2,-2
1558440202236101,-1,-1,-2,-2,-6,0,-1,-4
1558440202251459,-1,-1,1,0,-2,-3,-2,-3
1558440202251459,1,-1,1,1,-4,-6,-3,-2
1558440202257486,-1,2,-1,-1,2,8,2,-1
1558440202257486,-2,-2,-3,-4,-1,-1,-4,-2
1558440202273439,-2,-1,-6,-3,-11,-8,-5,-1
1558440202273439,0,-1,1,3,9,9,8,3
1558440202280441,-1,0,1,-2,-3,-2,0,1
1558440202280441,0,0,3,2,4,3,3,1
1558440202288104,-2,-1,-2,0,-5,-2,-6,-4
1558440202288104,-3,-2,-5,-5,-9,-5,-5,-3
1558440202296291,0,-1,0,0,-2,1,-1,1
1558440202296291,1,3,2,1,2,-9,5,2
1558440202311325,-1,-1,0,-2,-3,0,-4,-6
1558440202311325,-1,-2,-4,-1,6,6,0,-3
1558440202318122,-1,0,-1,2,-1,-6,0,1
1558440202318122,1,-2,-1,-2,-8,-9,-2,-1
1558440202333111,1,-1,0,1,4,5,2,2
1558440202333111,-2,-1,-2,-2,-5,1,-1,-2
1558440202339801,1,-1,0,0,1,-1,-2,-2
1558440202339801,-3,-1,-2,-2,-3,-1,-2,-4
1558440202348010,-3,-5,-3,-5,-11,-7,-8,-9
1558440202348010,1,1,0,0,1,2,-2,1
1558440202356017,3,2,1,4,14,4,12,7
1558440202356017,0,-2,1,-1,0,4,-1,0
1558440202369719,-1,0,-3,-1,-3,2,-1,-1
1558440202369719,-1,-1,-1,-3,0,-2,-3,-2
1558440202385680,0,-1,-2,-4,-9,-8,-9,-4
1558440202385680,-2,-3,-4,-1,-4,0,-1,-5
1558440202392655,-2,-2,1,2,6,1,4,4
1558440202392655,0,1,-1,1,6,-1,3,1
1558440202399665,0,1,-1,-1,3,-1,-1,0
1558440202399665,-4,-2,-5,-1,-1,-2,-6,-3
1558440202407961,-1,-2,-3,-2,0,3,1,-1
1558440202407961,-1,-1,-1,-2,-2,-6,-1,-1
1558440202416591,-2,0,-3,-1,-6,-5,-5,-3
1558440202416591,-1,0,-2,-3,-2,-1,-6,-1
1558440202432590,-1,-2,-3,-1,-8,-4,-4,-4
1558440202432590,2,2,3,4,16,14,7,6
1558440202437913,-1,-1,-1,-2,-2,-5,0,-1
1558440202437913,-1,1,1,-2,2,2,3,2
1558440202453662,0,0,-2,1,5,2,3,1
1558440202453662,-2,-3,-3,-2,-10,-7,-7,-4
1558440202460545,-3,-5,-4,-4,-9,-1,-6,-7
1558440202460545,-1,-1,-3,-1,1,-3,1,-2
1558440202476649,-4,-1,-1,-3,-12,-7,-4,-3
1558440202476649,0,0,1,1,1,-2,4,0
1558440202477428,2,3,3,3,12,-3,1,3
1558440202477428,0,0,-2,-1,-1,0,-3,-3
1558440202490745,-1,-2,-1,-1,-4,-10,0,0
1558440202490745,-2,-2,-1,-3,-4,6,-5,-6
1558440202505424,-2,-1,-2,0,1,6,1,-2
1558440202505424,-1,2,3,0,-1,-2,2,-1
1558440202513632,-2,-2,-1,-4,-1,0,-8,-2
1558440202513632,-1,-3,-3,-2,-10,-8,0,-1
1558440202519324,0,-2,0,2,1,-1,2,2
1558440202519324,-1,-3,-2,-2,1,0,-3,-2
1558440202536271,0,0,-3,1,8,7,8,2
1558440202536271,0,-1,0,-1,-1,-2,-1,0
1558440202537300,-3,-3,-4,-3,-7,-4,-5,-4
1558440202537300,-1,-2,-3,-1,1,1,1,-1
1558440202551233,-1,0,1,0,1,5,-3,0
1558440202551233,-2,0,-2,0,0,0,0,-2
1558440202557450,-1,-1,-1,-2,-8,-10,-5,-2
1558440202557450,1,-1,0,-1,-1,-11,-2,0
1558440202573407,0,0,-2,1,3,3,4,3
1558440202573407,-1,-3,-1,-1,-2,2,-3,-3
1558440202580154,-2,0,-2,-2,-4,5,2,-5
1558440202580154,-1,2,-1,1,2,-1,2,2
1558440202596110,-1,0,-3,-2,1,-4,-2,-1
1558440202596110,-3,-4,-4,-4,-3,0,-5,-2
1558440202597107,-3,-5,-4,-4,-6,-3,0,-2
1558440202597107,3,3,3,3,12,17,9,6
1558440202610100,-1,-1,0,-2,0,-2,0,-3
1558440202610100,-1,-1,-1,-1,-5,-6,-1,-3
1558440202617087,-3,-4,-4,-2,-4,1,-1,-3
1558440202617087,-4,-2,-4,-5,-6,-14,-9,-2
1558440202633044,-2,-1,1,0,7,4,6,2
1558440202633044,0,-1,-2,0,-5,-4,-2,-1
1558440202639991,0,1,4,1,7,4,3,4
1558440202639991,-2,-2,0,-1,-2,10,-1,-2
1558440202656324,1,0,1,0,-8,-8,-2,0
1558440202656324,0,2,6,5,-1,-7,-3,-2
1558440202656948,0,-3,-18,-6,7,12,1,3
1558440202656948,-1,-3,-3,-5,-14,-10,-9,-6
1558440202669920,0,-3,-3,-2,6,6,4,-1
1558440202669920,-2,-1,1,-3,-5,-2,0,-2
1558440202678890,-2,-1,4,-1,-6,-5,-4,-1
1558440202678890,2,4,4,5,10,8,10,6
1558440202692853,1,1,1,-2,0,-4,-6,-3
1558440202692853,-4,-3,-3,-3,-6,1,-2,-2
1558440202700090,0,-2,0,-1,0,-2,-3,-5
1558440202700090,-2,-4,-5,-5,-11,-21,-9,-4
1558440202715791,3,5,7,5,9,15,15,6
1558440202715791,1,-1,-1,-1,11,8,4,1
1558440202717786,-2,-2,-2,-1,-8,-2,-6,-4
1558440202717786,-2,-2,-1,-1,2,3,-6,-4
1558440202729945,-4,-3,-4,-3,-6,-12,-4,0
1558440202729945,1,2,8,2,-1,-2,-2,-1
1558440202738728,-2,-4,-21,-10,-4,2,0,-2
1558440202738728,0,0,-1,0,2,6,7,-1
1558440202752698,0,1,2,-1,-3,-8,-5,0
1558440202752698,0,-1,1,1,7,4,1,1
1558440202759673,0,2,8,1,-2,3,1,-2
1558440202759673,-3,-4,-4,-2,-4,0,-3,-5
1558440202776627,-2,-2,-12,-5,-11,-19,-11,-3
1558440202776627,0,-1,-3,-2,6,0,3,1
1558440202777626,0,0,8,2,5,1,-3,2
1558440202777626,-2,-4,0,1,1,-4,-1,0
1558440202789593,1,-2,5,1,-2,6,3,-2
1558440202789593,-1,-2,-5,-3,-5,-6,-5,-2
1558440202798569,0,1,2,2,5,3,2,-1
1558440202798569,-1,-3,-11,-4,-3,6,4,1
1558440202812593,-2,-1,1,-2,6,-6,-3,-3
1558440202812593,-1,-3,-9,-5,-8,-3,-2,-2
1558440202819512,-1,-1,4,2,3,-2,-1,3
1558440202819512,0,2,4,2,7,7,4,0
1558440202835471,-4,-4,-7,-3,-12,-3,-7,-5
1558440202835471,-2,-1,1,0,1,4,-2,-3
1558440202842452,0,0,1,-1,-4,-12,-3,0
1558440202842452,1,1,3,0,0,-2,0,0
1558440202849718,-2,-3,-9,-6,-6,-5,-4,-2
1558440202849718,-1,0,0,0,2,5,3,0
1558440202858410,0,0,0,0,-5,-4,-1,-2
1558440202858410,0,-1,-5,-5,1,5,2,0
1558440202873379,0,-1,-6,1,4,-2,1,1
1558440202873379,0,-1,-2,-2,-1,1,-3,1
1558440202879354,-1,-3,0,-2,-1,1,-2,-2
1558440202879354,-3,-3,0,-1,-9,-8,-9,-4
1558440202896368,-3,-1,3,1,-2,-1,-1,1
1558440202896368,0,-3,-4,-4,1,-7,3,2
1558440202897307,-2,2,2,0,0,0,0,-1
1558440202897307,0,-3,-3,-3,-6,-9,-8,-3
1558440202909271,3,2,2,1,8,14,7,2
1558440202909271,-2,1,-2,-1,1,-2,-2,-1
1558440202918249,1,-1,8,5,-5,-6,-6,-3
1558440202918249,-1,-2,-6,-5,1,7,5,2
1558440202933210,0,1,0,-2,-3,-14,-4,-2
1558440202933210,-3,0,-5,0,-6,-5,-3,0
1558440202940355,0,0,4,2,1,5,3,2
1558440202940355,0,0,-4,-4,-4,1,0,-2
1558440202956149,-4,-5,-3,-5,-5,2,-7,-6
1558440202956149,-2,-1,1,-1,0,0,-2,-1
1558440202957145,-1,0,-3,-2,0,-1,-1,0
1558440202957145,1,1,1,0,2,-5,4,4
1558440202970110,1,2,4,2,2,6,3,1
1558440202970110,-2,-5,-4,-5,-7,-2,-6,-5
1558440202978088,-1,-2,-5,-2,-1,0,1,-1
1558440202978088,0,0,3,3,1,-9,-2,3
1558440202993091,2,0,1,2,9,-1,6,2
1558440202993091,-1,0,-1,-2,-5,-7,-4,-3
1558440203000028,-1,-1,-5,-2,2,7,-3,-2
1558440203000028,-2,1,4,2,-6,0,0,-4
1558440203015990,-1,-3,-2,-2,-3,-3,-7,-4
1558440203015990,-2,-2,-2,-1,-3,0,2,-2
1558440203016986,0,1,1,0,3,2,9,3
1558440203016986,0,2,9,2,-2,-4,-6,-2
1558440203029957,-2,-1,-7,-3,-6,-10,1,0
1558440203029957,0,-1,-7,-2,0,-3,-3,0
1558440203044908,-1,-3,-4,-3,-7,-5,-6,-4
1558440203044908,-1,-2,-2,-2,-1,-2,-6,-3
1558440203052903,-1,-1,2,2,0,5,2,0
1558440203052903,-3,-2,6,5,4,9,8,1
1558440203060032,-2,-3,-8,-9,-4,-11,-2,-1
1558440203060032,2,-1,1,3,6,8,3,2
1558440203075855,-2,0,0,-1,-1,2,-4,-4
1558440203075855,0,-1,1,-2,-2,-1,-2,-3
1558440203077823,-3,-3,-2,0,6,8,1,-1
1558440203077823,-3,-3,-2,-3,-14,-18,-8,-5
1558440203089790,2,1,3,2,9,15,7,3
1558440203089790,-2,-2,0,1,7,4,3,-1
1558440203098765,-2,1,3,-1,-8,-4,-4,-2
1558440203098765,-1,0,-6,-1,1,0,1,-1
1558440203112727,-3,-5,-6,-9,-11,-10,-12,-6
1558440203112727,-1,-1,-2,1,-3,-1,1,0
1558440203119711,3,1,0,3,4,-4,2,1
1558440203119711,-5,-3,-4,-4,-2,1,-2,-4
1558440203135669,-2,0,3,2,-4,2,2,1
1558440203135669,4,2,3,3,18,3,12,9
1558440203137661,1,-2,-2,-4,-12,-10,-4,-4
1558440203137661,0,-2,0,-1,0,8,3,-1
1558440203149629,0,1,-1,0,-2,-11,-9,-2
1558440203149629,-3,-2,-2,-5,-14,-12,-7,-2
1558440203158605,-3,0,-3,1,5,3,-2,1
1558440203158605,-1,-2,1,0,-2,-5,0,-1
1558440203172736,2,1,1,3,5,9,6,1
1558440203172736,1,1,0,-1,0,1,2,-2
1558440203179720,-2,-2,-2,-2,-6,-3,0,-2
1558440203179720,-2,-2,-3,0,-2,-2,-8,-6
1558440203195507,-3,-2,-1,-4,-3,-3,-1,2
1558440203195507,1,0,1,-1,0,2,2,1
1558440203202490,1,-2,-1,0,-2,6,-3,-3
1558440203202490,0,-2,-2,-1,-1,-10,-2,1
1558440203209469,1,0,0,-1,8,7,3,0
1558440203209469,-1,-1,-1,-2,-14,-9,-7,-4
1558440203226424,-2,-2,-1,0,-4,4,1,0
1558440203226424,1,2,2,1,9,3,6,3
1558440203233578,0,0,-2,-2,-11,-10,-8,-3
1558440203233578,-4,-2,3,-1,-3,7,2,-1
1558440203239391,4,3,-3,3,17,-2,5,4
1558440203239391,-3,-4,-4,-5,-6,-1,-4,-1
1558440203255347,-2,-4,0,-1,-3,-3,-3,-4
1558440203255347,-1,-4,-7,-5,-1,3,0,-2
1558440203262327,-1,-2,-4,-4,-5,-2,-5,-2
1558440203262327,0,0,1,0,0,4,3,0
1558440203270307,-1,1,-6,1,7,-6,-2,-2
1558440203270307,0,0,1,-2,-2,-10,-3,-1
1558440203278285,-2,-1,1,-2,0,3,0,-3
1558440203278285,-1,-1,-3,1,-1,-6,-5,-1
1558440203293251,-1,-2,2,-1,4,7,7,1
1558440203293251,0,0,-3,0,-5,0,-2,0
1558440203299228,-3,-2,1,2,4,1,0,-2
1558440203299228,1,1,3,-2,2,2,1,0
1558440203323171,-3,-2,-4,-4,-8,-3,-7,-5
1558440203323171,0,-2,2,2,3,1,0,2
1558440203325161,-3,-3,-3,-1,-8,-10,-4,-1
1558440203325161,-2,-1,-9,-4,5,6,2,-2
1558440203330153,-2,-3,0,-1,-3,-6,-4,-1
1558440203330153,1,-2,-2,-1,-1,8,3,-1
1558440203339125,-2,-1,2,-2,-9,-1,-3,-1
1558440203339125,-2,-2,-3,-4,-1,-10,-7,-3
1558440203353086,0,0,0,1,-2,8,12,5
1558440203353086,-2,1,0,1,11,0,0,1
1558440203360067,-1,-2,1,1,-4,-3,0,-2
1558440203360067,0,1,3,3,11,7,4,2
1558440203375027,-2,-3,-2,-3,-9,2,-8,-5
1558440203375027,-2,-1,-2,-2,-4,-6,-6,-3
1558440203389994,1,1,1,0,7,-3,3,2
1558440203389994,-4,-1,-4,-1,-8,-3,-3,-2
1558440203398963,0,1,-1,0,3,8,2,-1
1558440203398963,-3,0,-3,-1,1,3,1,-1
1558440203399960,-4,-3,-4,-6,-7,-4,-5,-4
1558440203399960,-1,-1,1,-2,-10,-1,-5,-1
1558440203412925,1,0,3,0,-2,-10,-2,0
1558440203412925,2,-1,-4,2,11,9,8,4
1558440203419909,1,0,2,0,4,-5,3,0
1558440203419909,0,-2,0,0,-1,2,1,-1
1558440203436139,-3,-3,-3,-3,-8,-2,-5,-4
1558440203436139,-4,-3,-4,-3,-6,-10,-12,-5
1558440203441848,0,1,0,-1,-1,3,4,1
1558440203441848,-1,-3,-3,-2,-1,-5,-2,-3
1558440203458805,-1,-1,3,0,0,-9,-1,0
1558440203458805,-1,-3,-4,-2,-6,0,-3,-2
1558440203459804,0,1,-1,2,11,5,2,3
1558440203459804,-1,-2,0,-1,-8,-4,-3,-3
1558440203472767,-4,-2,0,2,2,9,4,2
1558440203472767,1,-1,-1,-1,-7,-14,-5,-1
1558440203479753,1,-1,-3,1,7,3,3,1
1558440203479753,-3,-1,-2,-2,0,-3,-6,-3
1558440203495713,1,0,0,-2,-3,-6,-2,-1
1558440203495713,0,2,3,1,3,12,2,1
1558440203502689,-1,-2,1,1,2,6,3,1
1558440203502689,0,1,0,-1,-8,-6,-1,-1
1558440203525624,-2,-3,-3,-2,1,0,2,0
1558440203525624,-1,-2,-2,-1,0,1,2,-1
1558440203527619,-2,-1,-4,-4,-10,-6,-12,-6
1558440203527619,-1,-1,-2,-1,-2,-4,2,0
1558440203532606,-1,-1,-2,-2,-4,0,-3,-4
1558440203532606,1,3,6,5,12,7,7,2
1558440203539587,-2,-1,-3,-2,-1,2,-1,-1
1558440203539587,0,0,1,-1,3,9,4,1
1558440203555543,-1,-1,-2,0,-4,-8,-1,-1
1558440203555543,1,-4,-3,-7,-9,-14,-11,-4
1558440203563523,-2,0,0,-4,-9,-4,-3,-3
1558440203563523,-1,0,2,3,0,8,6,1
1558440203578484,0,1,-2,1,10,12,5,2
1558440203578484,-3,-3,-1,-1,-4,-4,-4,-4
1558440203579480,-3,-1,0,-1,-13,-16,-7,-3
1558440203579480,-2,-1,-1,1,9,4,4,4
1558440203592445,-1,-1,-1,-5,-6,-8,-4,-2
1558440203592445,-3,-2,-2,-3,-6,-3,-2,-2
1558440203599426,1,-4,-4,-1,2,3,-5,-3
1558440203599426,-1,-3,-3,-1,2,-3,-3,-1
1558440203615385,3,1,2,1,7,-1,-1,2
1558440203615385,-1,-2,-3,0,1,1,2,-4
1558440203622366,0,1,2,-2,-5,-15,-2,0
1558440203622366,1,-1,-3,-2,2,9,1,-1
1558440203638322,-4,-4,-7,-7,-9,0,-9,-6
1558440203638322,-2,-2,-2,-1,-7,6,1,-2
1558440203640318,2,2,5,4,23,9,10,5
1558440203640318,1,1,1,1,-3,-1,2,-1
1558440203653282,0,0,-2,-1,2,-8,-2,0
1558440203653282,-2,-4,-2,-2,-9,-4,-7,-4
1558440203659272,1,-1,0,-1,-3,1,1,-2
1558440203659272,0,1,6,2,2,5,0,1
1558440203675225,-4,-5,-14,-5,-4,-14,0,-1
1558440203675225,-2,0,-2,-6,-1,-2,-2,-1
1558440203682207,-2,-6,-4,0,-8,5,0,-4
1558440203682207,-3,-3,-3,-4,-5,-12,-13,-6
1558440203698167,0,2,6,1,-7,0,-3,-2
1558440203698167,1,2,-1,4,21,11,6,5
1558440203700160,-4,-5,-4,-3,-9,-5,-5,-3
1558440203700160,-1,0,-1,-3,-3,-4,0,0
1558440203713122,1,2,5,1,7,9,-1,0
1558440203713122,-3,-1,-3,-3,-4,-18,-6,-1
1558440203720110,-3,0,-1,-2,-4,3,-6,-3
1558440203720110,-1,-4,-3,-2,-7,0,0,-1
1558440203735064,1,0,3,3,7,3,8,3
1558440203735064,3,-3,1,-1,-8,-5,-2,-1
1558440203742046,-1,0,-4,-1,1,0,-3,0
1558440203742046,-4,-1,-2,-3,-6,-11,-4,-3
1558440203758003,-2,0,0,0,-7,-6,-6,-1
1558440203758003,-2,2,-1,-2,8,7,5,3
1558440203759996,-2,-2,-2,-1,-1,4,1,1
1558440203759996,3,-1,-3,0,5,8,3,1
1558440203772962,-3,-4,-1,-2,-7,-2,-4,-3
1558440203772962,-1,-1,1,-1,-7,-3,-3,-5
1558440203779944,1,-1,1,-2,-3,-5,2,0
1558440203779944,-1,0,-4,3,8,9,8,4
1558440203794909,1,2,1,0,5,1,2,0
1558440203794909,0,-2,-3,-3,-8,-9,-8,-4
1558440203801888,-3,-1,1,1,5,4,7,-1
1558440203801888,-2,-2,0,-4,-6,-11,-5,1
1558440203818842,-1,-2,-3,-1,1,4,-3,-2
1558440203818842,0,1,0,2,3,0,0,2
1558440203819838,1,1,0,-3,-6,-9,-7,-1
1558440203819838,-1,0,1,0,3,-2,0,0
1558440203832802,-1,-1,0,1,5,8,5,0
1558440203832802,0,-2,2,-1,-6,-6,-7,-3
1558440203839784,-3,-4,-8,-4,-5,-5,-4,-2
1558440203839784,-1,-1,-4,-4,-2,8,0,-3
1558440203855747,-3,-2,-4,-2,-14,-11,-5,-4
1558440203855747,0,1,2,2,10,8,3,4
1558440203862728,-2,0,1,1,3,-2,4,4
1558440203862728,-1,-2,2,1,1,-5,0,-1
1558440203878687,0,-1,0,-1,-4,-3,-1,-1
1558440203878687,-3,-2,-5,-3,-5,6,0,-1
1558440203880675,-2,-3,-5,-3,-5,-13,-8,-2
1558440203880675,-1,0,0,-1,4,3,5,3
1558440203891653,-1,1,2,2,3,8,4,-1
1558440203891653,-1,-1,-1,-1,0,-2,-1,-1
1558440203900623,1,1,-1,-1,-1,5,-2,-2
1558440203900623,-3,-4,-4,-2,-2,2,-1,-3
1558440203915587,1,1,-2,-1,6,-4,0,1
1558440203915587,0,-2,0,0,-2,3,6,2
1558440203922563,-1,-1,1,-2,-6,-3,-2,-3
1558440203922563,1,0,0,-3,-6,-11,-10,-3
1558440203938520,-3,-2,-4,-2,-3,4,1,-2
1558440203938520,1,-1,-2,2,5,9,1,-1
1558440203939516,0,-1,1,0,1,-4,1,1
1558440203939516,-2,-2,-1,-2,-1,0,-4,-3
1558440203952488,-5,-4,-4,-4,-10,-9,-9,-3
1558440203952488,1,1,4,2,4,0,7,5
1558440203961477,-1,3,-2,-1,-1,0,-2,0
1558440203961477,1,-2,-4,-1,-2,1,-2,-2
1558440203975420,-2,0,-2,-2,-7,-9,-8,-4
1558440203975420,-4,-3,-5,-1,0,7,-2,-3
1558440203982431,0,-3,-2,-2,-4,-2,-6,-4
1558440203982431,3,2,7,4,5,0,5,0
1558440203998419,-1,-1,-2,-1,8,10,9,2
1558440203998419,-1,-4,-7,-6,-4,-10,-5,-3
1558440204000355,-1,0,-1,0,0,1,-1,0
1558440204000355,-3,-2,-4,-3,-9,-8,-6,-4
1558440204012324,-1,-1,1,-1,-1,3,0,0
1558440204012324,-2,0,0,0,-8,-3,-4,-2
1558440204021298,0,-2,2,-2,4,-8,0,3
1558440204021298,1,1,-2,-1,6,-9,0,3
1558440204035261,1,1,4,3,5,8,1,0
1558440204035261,-3,-2,-8,-3,-9,-3,-5,-4
1558440204042242,-3,-2,2,0,5,14,5,-1
1558440204042242,1,4,2,2,0,2,7,4
1558440204058199,-1,-3,1,2,4,-1,-6,-1
1558440204058199,-2,-2,-1,-4,2,-3,1,-1
1558440204060195,-3,-5,-4,-3,-10,-3,-6,-5
1558440204060195,-1,0,0,0,4,0,-2,1
1558440204072163,-2,-2,-3,-2,-7,-11,-3,-2
1558440204072163,0,1,1,2,3,-2,1,0
