timestamp,emg1,emg2,emg3,emg4,emg5,emg6,emg7,emg8
1558440111527308,1,-2,-5,4,-8,-3,-5,-3
1558440111527308,-1,1,0,3,1,-9,2,3
1558440111528305,2,1,0,-8,-7,-8,-5,-1
1558440111528305,0,-1,-2,-1,8,13,5,2
1558440111529302,-3,-1,1,5,2,1,-3,-1
1558440111529302,-2,-1,1,-4,-5,7,-2,-3
1558440111529302,-2,-3,-5,-9,-8,-10,-5,-4
1558440111529302,1,0,0,7,0,-2,-1,-1
1558440111540273,0,-2,-3,-2,-1,-2,-1,1
1558440111540273,2,-1,0,-6,-1,-4,4,-1
1558440111549249,0,0,-2,0,-2,-1,-1,0
1558440111549249,-2,0,0,1,-5,-1,0,1
1558440111557228,-1,-1,-4,-6,1,-2,1,0
1558440111557228,-1,-3,2,-1,-9,-4,-8,-5
1558440111571189,3,0,-3,4,5,-13,-3,3
1558440111571189,-5,-5,-9,-9,-12,-8,-7,-6
1558440111579169,2,3,4,-1,5,8,8,2
1558440111579169,0,-1,-2,1,-4,-8,-5,-3
1558440111585153,-5,-2,-1,2,-2,3,-4,-4
1558440111585153,-1,-2,0,-4,3,6,3,0
1558440111600113,-2,-4,-1,-1,-5,-8,-6,-2
1558440111600113,-1,-1,0,1,4,9,7,3
1558440111609089,2,-2,1,3,8,11,5,1
1558440111609089,0,-2,-1,-4,-6,-12,-3,-3
1558440111648981,-1,-1,4,10,-1,0,-2,1
1558440111648981,-1,-3,-5,-6,-5,-2,-4,-2
1558440111648981,-2,-2,-4,-10,-6,-8,-6,-3
1558440111648981,0,2,1,10,1,5,5,1
1558440111649979,-2,-1,-3,-4,-6,-10,-4,-1
1558440111649979,-1,2,4,-3,4,0,0,-1
1558440111652971,-2,-1,-6,2,-4,0,-2,-3
1558440111652971,-1,-1,4,1,-3,-1,2,1
1558440111659952,-2,-1,-5,-8,-1,2,-1,-3
1558440111659952,0,-2,-8,0,-2,1,2,2
1558440111667933,1,0,4,3,4,7,3,1
1558440111667933,-1,0,-2,-4,-3,-3,-2,-2
1558440111676908,0,-1,1,-3,-3,5,0,-1
1558440111676908,-2,-2,-1,1,-14,-15,-9,-6
1558440111690870,-1,-1,-2,1,11,9,4,4
1558440111690870,0,-2,1,-3,0,-2,3,-2
1558440111697852,-1,1,0,1,0,-5,-3,-3
1558440111697852,-3,-1,0,2,0,1,0,-1
1558440111704832,0,-3,-2,-2,-1,2,-3,-3
1558440111704832,-4,-2,-5,-4,-4,-5,-5,-3
1558440111719792,0,2,4,8,-3,-3,6,3
1558440111719792,3,1,4,-4,1,-1,-3,-1
1558440111727770,0,-3,-4,-2,-3,-7,-4,-3
1558440111727770,-2,-2,-4,-2,6,8,0,0
1558440111736747,-1,-3,-1,-2,-1,2,-4,-1
1558440111736747,-2,0,5,0,6,2,-2,0
1558440111750711,-1,-4,-10,-4,-14,-8,-1,-2
1558440111750711,1,-2,-3,-3,-2,-1,-3,-1
1558440111757690,1,-1,-3,-3,6,4,9,3
1558440111757690,0,1,3,2,5,4,1,0
1558440111765669,-4,0,1,0,1,3,-6,-4
1558440111765669,-3,-1,-1,-3,-9,-5,-7,-4
1558440111780629,1,1,1,0,3,-6,-1,2
1558440111780629,-2,-2,-5,-1,-7,-3,-5,-1
1558440111787611,0,2,5,1,-3,-4,6,3
1558440111787611,-1,-3,-3,0,10,9,5,1
1558440111796587,-3,-2,-2,-1,2,8,-4,-4
1558440111796587,-5,-5,-5,0,-5,-7,-2,-3
1558440111810550,0,3,3,0,-1,2,0,-3
1558440111810550,-2,-4,1,0,-2,-3,-3,1
1558440111817531,1,2,1,-3,4,-2,-1,-2
1558440111817531,0,-2,-4,-1,2,0,2,0
1558440111825508,-1,1,6,1,1,-4,-5,-1
1558440111825508,-1,-1,-6,-5,-14,-3,-5,-3
1558440111840468,-3,-4,-2,-1,-5,-8,-8,-6
1558440111840468,0,0,0,-1,2,8,4,2
1558440111847452,1,-3,0,-1,-4,-8,-1,1
1558440111847452,2,3,7,4,10,3,4,2
1558440111856427,-5,-5,-10,-10,-9,-5,-8,-3
1558440111856427,-2,0,0,1,-1,4,0,0
1558440111871386,-1,0,4,2,5,-2,-3,-2
1558440111871386,-3,-5,-7,-4,-6,1,-2,-5
1558440111877371,0,1,0,-2,-1,-1,-6,-1
1558440111877371,1,1,3,2,0,-9,5,1
1558440111885349,-1,-2,-6,-3,-3,-3,-3,-2
1558440111885349,0,1,0,-2,-5,-9,-3,-3
1558440111900309,1,2,2,2,2,4,4,0
1558440111900309,-2,-3,-3,-3,-1,-11,-9,-5
1558440111907292,-1,-2,0,-2,-5,7,4,1
1558440111907292,0,-2,-3,-2,-5,-8,-7,-4
1558440111916267,-2,-3,-4,-2,4,9,4,0
1558440111916267,1,2,3,-1,0,-3,-1,-1
1558440111931238,-3,-3,-3,-1,-1,-9,-5,1
1558440111931238,0,1,6,2,5,6,1,1
1558440111937210,-1,-2,-1,-2,-2,-5,-1,-3
1558440111937210,-2,-2,-6,-4,-6,2,-5,-3
1558440111945189,-2,1,-4,1,-3,0,-1,-1
1558440111945189,-2,0,0,-3,-1,-11,-3,0
1558440111968127,0,-1,4,4,7,-2,4,2
1558440111968127,2,-1,-1,1,0,8,5,-1
1558440111969124,0,1,0,-2,1,9,-1,-2
1558440111969124,-3,0,2,0,-4,-6,-3,2
1558440111977104,-1,-1,-4,0,0,-4,2,2
1558440111977104,-2,-1,0,-4,-5,-6,-7,-6
1558440111991067,0,-1,1,-2,-1,10,6,1
1558440111991067,0,0,-5,-3,2,-12,-3,0
1558440111998056,-1,1,2,-3,-8,-3,-4,-2
1558440111998056,-2,-1,-3,1,1,0,2,2
1558440112013008,-1,0,6,0,6,6,-1,-2
1558440112013008,-3,-2,-3,1,-4,9,0,-2
1558440112019990,1,-2,-6,-6,-7,-11,-3,-2
1558440112019990,-1,0,-1,-1,-6,-11,-5,-1
1558440112027969,0,1,0,3,8,1,7,2
1558440112027969,1,0,2,-1,-1,-2,-2,-2
1558440112036944,1,-1,1,0,3,8,1,-1
1558440112036944,-4,-3,-2,-4,-7,0,-1,-1
1558440112050907,0,-1,-4,-1,-6,-12,-11,-5
1558440112050907,-1,-1,-2,-3,-5,12,7,3
1558440112057889,-2,0,6,1,5,-3,2,1
1558440112057889,-1,-2,-1,-3,-6,-7,-8,-4
1558440112073845,3,3,5,2,5,3,6,4
1558440112073845,-2,-4,-7,-3,-1,-10,-5,-1
1558440112079830,0,0,1,4,-1,12,2,-2
1558440112079830,-1,0,-3,-1,4,12,0,3
1558440112087809,-2,-4,-1,-4,-16,-16,-6,-6
1558440112087809,1,1,1,0,4,4,3,2
1558440112096784,0,1,-1,1,3,0,4,4
1558440112096784,0,-2,-1,1,-1,-6,-2,-3
1558440112110747,-5,-3,-8,-5,-8,-4,-8,-4
1558440112110747,-2,0,2,0,2,2,2,0
1558440112117728,-3,-3,0,-3,-3,-5,-7,-4
1558440112117728,2,2,5,1,-2,-2,4,1
1558440112133684,-2,-2,-3,-2,-2,-3,-3,-1
1558440112133684,2,-3,-2,-2,-1,-1,-6,-3
1558440112140667,-1,-1,0,-1,3,6,3,0
1558440112140667,0,-1,-4,-2,1,-1,-2,-1
1558440112147648,-2,-3,2,-1,-4,2,3,0
1558440112147648,-1,-1,-2,-1,4,5,-2,-3
1558440112156625,0,2,7,1,-1,-6,1,3
1558440112156625,-2,-3,-9,-1,2,2,1,-1
1558440112170594,-1,-3,-3,-2,-4,-4,-5,-4
1558440112170594,1,1,0,0,11,8,8,3
1558440112179820,0,-3,-3,-3,-12,-10,-8,-4
1558440112179820,-2,2,1,1,10,7,3,1
1558440112193525,-2,-1,-3,0,1,-2,-4,-3
1558440112193525,-2,-2,3,3,-3,1,1,-2
1558440112200508,-1,-4,-1,0,-3,4,2,-3
1558440112200508,1,0,3,-1,7,1,-1,0
1558440112207488,-1,-2,-7,-6,-6,-1,2,-1
1558440112207488,1,-1,4,1,-4,-7,-2,1
1558440112216463,-4,-2,-7,-5,3,4,-2,-3
1558440112216463,-3,-3,1,0,-13,-7,-6,-3
1558440112230427,2,3,10,1,4,1,1,2
1558440112230427,-2,-4,-15,-6,-4,-9,2,0
1558440112237409,1,-2,-3,-1,1,2,1,-2
1558440112237409,0,-2,-2,0,3,6,-1,-3
1558440112253366,-1,-1,2,3,-2,-4,-2,0
1558440112253366,0,0,3,-4,-5,-4,-7,-3
1558440112260347,-3,-1,-2,-5,-13,-10,-6,0
1558440112260347,4,3,4,2,7,-4,5,5
1558440112267328,-1,0,-1,0,3,6,5,0
1558440112267328,-3,1,2,1,7,6,-2,0
1558440112276303,0,-2,-5,0,-2,-5,-4,-5
1558440112276303,-2,-1,2,-2,-9,-2,3,0
1558440112291263,0,0,-5,-3,5,2,-3,-2
1558440112291263,0,0,2,1,-2,1,-1,-4
1558440112297248,0,1,3,-1,2,-7,3,3
1558440112297248,-4,0,-2,-2,-7,-6,-5,0
1558440112313206,1,-4,-4,-7,-7,-5,-5,-5
1558440112313206,-2,-3,2,0,-6,2,-5,-4
1558440112328165,0,-1,-4,1,1,3,-2,-2
1558440112328165,-1,0,0,0,-3,-6,-1,0
1558440112329164,-1,-1,-4,-3,1,-11,-2,2
1558440112329164,0,-1,3,4,3,5,4,0
1558440112343125,-1,0,0,-2,0,7,-2,-1
1558440112343125,-2,-5,-5,-4,-3,0,-4,-3
1558440112351104,-1,-2,-1,0,3,8,4,-2
1558440112351104,-1,-1,0,-1,3,-9,0,2
1558440112374043,-1,1,2,2,2,-6,-2,1
1558440112374043,0,1,2,-1,-4,1,-2,0
1558440112375040,-2,0,-1,0,2,7,0,-1
1558440112375040,0,-4,-9,-5,-6,-4,-8,-6
1558440112380027,4,0,-1,2,5,10,7,2
1558440112380027,-1,-1,5,-1,-5,-11,-2,-1
1558440112388007,-4,-1,-3,0,3,3,0,-1
1558440112388007,-2,1,-1,0,-4,-9,-1,0
1558440112402968,0,1,-2,-4,-1,-8,-4,1
1558440112402968,-1,-2,-5,-3,5,7,1,0
1558440112410944,0,-2,0,0,-7,0,-3,-4
1558440112410944,1,4,2,0,6,10,9,4
1558440112417925,-2,-4,-4,-5,-3,-15,-10,-5
1558440112417925,0,-1,3,-1,-12,2,3,-3
1558440112432886,4,4,5,5,23,4,5,5
1558440112432886,-5,-4,-5,-6,-10,-1,-4,-3
1558440112447845,0,2,10,2,-3,8,2,-2
1558440112447845,-1,-5,-17,-7,-3,-6,-3,-2
1558440112448842,-2,-2,1,0,-8,-2,-3,-2
1558440112448842,1,-2,-5,-4,-14,-16,-10,-3
1558440112462805,2,1,0,-2,9,9,5,3
1558440112462805,-1,2,4,2,9,11,3,1
1558440112478764,-6,-4,-5,-6,-6,-3,-1,-3
1558440112478764,-3,-1,1,0,0,3,-4,-2
1558440112480757,-2,-1,0,0,-3,-8,-3,-2
1558440112480757,-1,1,0,0,3,-2,-3,1
1558440112493722,2,-1,-4,-5,-5,-15,-3,1
1558440112493722,-1,1,6,3,7,13,5,2
1558440112499708,-5,-4,-11,-6,-12,9,1,-3
1558440112499708,2,1,1,6,19,20,7,2
1558440112507685,-1,-1,-2,-4,-11,-13,-4,-3
1558440112507685,1,1,4,3,2,-4,5,1
1558440112522645,-1,0,1,-2,-7,-6,-5,-5
1558440112522645,-5,-3,-6,-3,-3,-4,-4,-2
1558440112530624,2,0,3,1,6,-2,-2,0
1558440112530624,-3,-5,-8,-5,-19,-3,-3,-5
1558440112539600,2,2,5,5,17,8,6,4
1558440112539600,1,0,2,-2,-11,-8,-3,-2
1558440112553563,0,0,3,1,-8,-1,-4,-3
1558440112553563,-4,-2,-8,-4,5,-9,-4,-1
1558440112560544,-3,-4,-4,-2,-11,-6,-9,-3
1558440112560544,-1,-1,0,-1,-2,-1,0,-1
1558440112567525,1,4,7,4,12,12,9,6
1558440112567525,-3,-3,-5,-4,-13,-13,-5,-5
1558440112582484,-1,-3,-1,-1,0,3,1,-2
1558440112582484,-1,0,-2,-5,1,-3,-4,-4
1558440112590464,-1,-3,0,0,-1,7,0,-2
1558440112590464,-1,1,2,-3,0,-2,-3,0
1558440112599439,-3,-3,-3,0,-2,0,-4,-2
1558440112599439,-2,-3,-5,-4,-7,-3,0,-1
1558440112613403,0,1,4,3,8,7,6,3
1558440112613403,3,2,-1,-2,7,2,2,0
1558440112620383,1,2,5,0,-1,1,1,0
1558440112620383,-2,-3,-5,-1,4,-5,-1,1
1558440112636340,-1,0,-7,-3,0,0,-1,-3
1558440112636340,-1,-1,-2,-2,-3,-7,-5,0
1558440112650303,0,1,3,2,0,3,3,4
1558440112650303,-2,-2,3,1,-4,-5,-6,-4
1558440112666261,-2,0,-2,0,10,12,9,3
1558440112666261,-2,0,3,2,1,2,2,-1
1558440112668255,-2,-5,-8,-7,-7,-7,-8,-8
1558440112668255,-1,-1,0,0,-8,-6,0,0
1558440112673241,1,0,0,-1,2,-6,-3,3
1558440112673241,1,-1,0,0,6,5,0,0
1558440112680225,-4,-2,-3,-2,-12,-7,-4,-3
1558440112680225,4,3,1,3,17,16,3,2
1558440112696180,-4,-4,-5,-6,-11,-12,-6,-4
1558440112696180,-1,1,1,3,6,5,7,3
1558440112703162,-2,-2,1,-1,-7,-9,-4,-2
1558440112703162,-2,-3,2,-4,-2,-4,-5,-5
1558440112719119,1,-3,-6,-3,-11,1,-2,-2
1558440112719119,5,3,3,5,19,16,6,4
1558440112720116,-2,-1,-3,0,5,-5,-1,1
1558440112720116,-6,-2,-2,-4,-9,1,-2,-4
1558440112733083,-2,-2,0,-3,-18,-13,-11,-5
1558440112733083,-2,-5,-4,-7,-8,-16,-7,-4
1558440112740064,-1,0,-5,-3,5,16,6,3
1558440112740064,4,5,7,7,7,0,5,5
1558440112756020,-3,-3,-7,-4,-1,-5,-4,-3
1558440112756020,-3,-2,2,0,-9,2,-4,-6
1558440112763001,3,-1,-1,3,7,9,7,2
1558440112763001,-2,-2,-5,-2,-1,7,6,2
1558440112778959,0,2,13,5,8,-2,2,0
1558440112778959,-2,-4,-14,-6,-11,-4,-4,-3
1558440112780954,2,1,-2,0,-2,-6,-1,-1
1558440112780954,-3,-3,-2,-3,-7,-2,-6,-5
1558440112792921,0,0,0,1,4,9,0,0
1558440112792921,0,0,-4,-4,2,-2,0,-2
1558440112799902,-4,-2,2,-4,-1,-8,-4,-3
1558440112799902,0,0,-3,-1,0,-6,6,2
1558440112815860,1,1,-1,-1,-1,-7,-2,-1
1558440112815860,-1,-1,3,2,-2,-1,-1,0
1558440112822841,-1,-1,-4,-3,-1,3,-4,-2
1558440112822841,-2,-2,0,-3,-5,-5,-5,-3
1558440112838798,-2,-2,-4,0,-4,-10,1,0
1558440112838798,-1,-1,1,1,6,-2,1,2
1558440112840794,0,-1,-3,-2,2,0,-1,-3
1558440112840794,-1,-1,2,0,-5,-7,-3,-1
1558440112853758,-1,0,-2,3,13,8,3,0
1558440112853758,-4,1,-1,-7,-12,-7,-7,-4
1558440112859743,-2,1,1,-2,-9,-6,-5,-3
1558440112859743,1,1,0,-2,4,7,1,0
1558440112875700,-2,-1,2,-1,-13,-6,-4,-3
1558440112875700,-2,-3,-7,0,0,3,-1,-1
1558440112882682,1,0,2,3,6,2,5,4
1558440112882682,0,-3,-3,-3,-7,-5,-3,-2
1558440112898639,-3,-3,-3,-2,-1,4,-2,-3
1558440112898639,-1,1,6,4,8,6,2,0
1558440112900633,-1,-1,-2,-3,-8,-3,-2,0
1558440112900633,-2,-3,0,0,2,3,2,0
1558440112913599,1,1,-1,-5,-2,-9,-7,-1
1558440112913599,0,1,5,1,-2,-2,3,0
1558440112920580,-2,-3,-3,-5,-7,-7,-7,-2
1558440112920580,-2,-3,-13,-5,-1,-2,-4,-3
1558440112935539,-1,0,0,1,4,11,5,1
1558440112935539,-1,-3,-6,-1,2,3,2,0
1558440112942521,-1,-1,4,0,-3,-4,0,0
1558440112942521,0,1,4,2,-1,-10,-5,-2
1558440112958484,-2,0,-5,-3,-3,-2,-4,-4
1558440112958484,-2,-2,3,-1,-11,-11,-5,-1
1558440112966459,-1,-1,1,3,8,12,7,1
1558440112966459,-4,-2,-5,-2,-2,-1,-2,-2
1558440112973440,-1,-3,-2,-3,-6,10,5,1
1558440112973440,0,0,4,2,11,-4,0,1
1558440112980422,0,-4,-8,-4,-8,-9,-9,-4
1558440112980422,-2,-1,2,-2,-1,2,-1,0
1558440112996379,-1,-1,3,1,2,4,2,2
1558440112996379,0,0,-3,1,2,-8,-2,0
1558440113002365,-1,0,5,0,8,9,0,-3
1558440113002365,1,-4,-10,-2,1,-1,-2,-1
1558440113019322,-2,-2,-10,-8,-6,0,-2,-3
1558440113019322,-1,1,1,0,-9,-3,-5,-3
1558440113020316,-2,-2,-8,-9,-2,-1,7,4
1558440113020316,1,-2,1,0,6,-2,-1,-1
1558440113033284,-3,-3,-1,1,-1,5,3,-2
1558440113033284,0,1,1,0,3,5,2,2
1558440113041261,1,-2,2,-1,-6,-8,-5,-3
1558440113041261,-1,-3,-2,-4,-14,-13,-5,-2
1558440113056219,-1,0,-4,1,13,8,8,4
1558440113056219,-2,1,0,-1,0,0,-3,-5
1558440113063203,-3,0,0,6,7,8,5,2
1558440113063203,-2,0,0,-1,-7,-4,-4,-1
1558440113079161,-2,-2,-2,-4,-4,-13,-9,-2
1558440113079161,-1,-1,-1,-1,-6,-3,-1,-1
1558440113080155,-2,-4,-4,-2,0,-3,-6,-2
1558440113080155,-1,-1,1,-2,3,3,0,1
1558440113093127,-1,-1,-4,-2,-5,3,3,-3
1558440113093127,0,-5,-1,-1,2,2,1,-1
1558440113102098,-2,1,0,-1,0,-2,4,-1
1558440113102098,0,1,4,-1,1,-2,0,0
1558440113116064,-1,-1,1,2,-1,-9,-6,2
1558440113116064,-3,-2,-4,-4,-3,2,-6,-3
1558440113123079,0,-2,0,-1,-4,2,-3,-5
1558440113123079,1,1,4,1,3,2,-1,-1
1558440113140079,0,0,-2,1,0,-4,6,3
1558440113140079,-2,2,1,-1,1,-2,1,2
1558440113140997,-2,0,-6,-2,-4,-14,-7,-2
1558440113140997,0,-2,-1,0,-5,1,-1,-2
1558440113153153,-1,-2,1,-2,-9,-6,-6,-4
1558440113153153,-1,-3,-6,0,2,4,0,-1
1558440113161938,2,1,7,5,14,11,9,2
1558440113161938,-3,-1,-3,-3,-4,-5,-1,-1
1558440113175898,1,-1,2,5,1,-1,1,-1
1558440113175898,2,2,6,3,14,6,3,3
1558440113182879,-1,-3,-7,-6,-14,-11,-7,-5
1558440113182879,0,0,-1,-1,1,7,2,-1
1558440113198837,-4,-3,-7,-6,-5,-1,-7,-6
1558440113198837,0,0,-3,-1,-7,-4,-1,-1
1558440113200838,2,-1,2,2,5,3,7,3
1558440113200838,-1,1,10,2,2,-4,-1,1
1558440113212798,-3,-4,-8,-6,-2,-5,-9,-4
1558440113212798,-1,-2,-1,-1,-4,3,-1,-3
1558440113221775,-4,-1,-1,-1,-2,2,-5,-2
1558440113221775,1,1,-1,0,5,8,5,0
1558440113236114,1,0,1,1,12,9,6,4
1558440113236114,-2,-3,-3,-4,-9,-8,-5,-3
1558440113243093,-1,-3,0,3,-6,-15,-9,-5
1558440113243093,-3,-3,-7,-4,-5,4,-3,0
1558440113259054,1,2,6,4,8,-3,2,1
1558440113259054,2,-2,-7,-4,-2,-4,2,0
1558440113265996,-2,1,3,-1,-7,-6,-6,-4
1558440113265996,-1,-3,-5,0,2,1,1,-1
1558440113273015,-1,-2,-2,-3,-10,-9,-2,0
1558440113273015,1,0,0,-2,3,8,-2,-1
1558440113281613,0,-3,-8,-4,-5,-1,-2,0
1558440113281613,1,1,3,1,5,2,4,0
1558440113295605,-1,-3,0,-4,-8,-3,-3,-2
1558440113295605,-3,-3,1,1,-6,-4,2,0
1558440113302558,0,1,-1,-3,2,0,0,0
1558440113302558,-1,-1,0,1,0,8,6,0
1558440113318518,-1,0,4,0,4,1,1,-2
1558440113318518,0,-2,-1,-5,-12,-19,-3,-1
1558440113326494,-1,0,-1,2,12,10,4,2
1558440113326494,-1,0,0,0,-3,-2,-6,-2
1558440113332478,-1,2,-1,0,0,2,2,2
1558440113332478,0,-1,-3,-2,-3,-4,-2,-3
1558440113342486,-3,-2,-1,-1,1,-2,4,1
1558440113342486,-1,-2,-3,-1,-8,-12,-9,-6
1558440113356724,-3,-2,-3,1,-3,5,-1,-4
1558440113356724,1,1,5,2,10,14,7,2
1558440113362401,0,-1,-4,-3,-5,-10,-4,-1
1558440113362401,-2,-2,2,-3,-5,2,-3,-1
1558440113378355,-1,-3,-9,-2,1,-1,-3,-2
1558440113378355,-2,-3,-3,-1,1,6,-3,-2
1558440113385337,-1,0,8,0,-6,-2,-6,-4
1558440113385337,0,-2,-4,-1,2,6,1,0
1558440113392318,-1,0,-1,-3,-3,-17,-2,-1
1558440113392318,-2,0,2,2,-2,-8,1,0
1558440113401322,-3,-3,-5,-2,4,9,3,0
1558440113401322,-3,-1,1,-2,-5,-13,-5,-2
1558440113416257,-1,-1,-3,1,-3,-5,-3,0
1558440113416257,-1,-3,0,-1,1,3,0,-2
1558440113423488,0,-1,-1,-3,-10,-8,-5,-3
1558440113423488,-1,-2,-8,0,2,1,2,0
1558440113438548,2,0,-1,1,2,1,5,3
1558440113438548,-3,-3,0,-4,-5,0,-5,-5
1558440113445529,-3,-2,0,-2,-7,-4,-6,-3
1558440113445529,2,0,-1,0,-1,-7,1,1
1558440113462318,-2,0,2,3,9,9,-1,-3
1558440113462318,-2,0,-3,-4,-6,0,-2,-1
1558440113463130,0,-2,-2,-2,1,-6,-3,-1
1558440113463130,2,2,9,4,7,-10,0,2
1558440113476415,-1,-2,-8,-4,-1,3,4,0
1558440113476415,-3,0,-5,-1,-3,5,-3,1
1558440113483378,-1,1,2,3,10,11,5,0
1558440113483378,-3,-3,-3,-4,-8,-19,-8,-4
1558440113499092,-2,-4,3,0,-5,-5,-8,-5
1558440113499092,-1,-2,-4,4,18,15,9,2
1558440113506057,1,1,0,-1,-8,-7,-1,1
1558440113506057,-5,-2,2,-4,0,8,-3,-4
1558440113522041,-1,-3,-5,-4,-11,-1,-4,-3
1558440113522041,0,-3,-3,-1,-4,0,0,0
1558440113522972,3,-3,0,1,4,-6,1,0
1558440113522972,-1,-2,-3,-4,-3,6,0,-3
1558440113535937,-3,-1,4,1,0,1,-2,-2
1558440113535937,-2,1,2,0,-3,-9,-7,-1
1558440113543231,-3,-3,-2,-1,-1,0,2,2
1558440113543231,-4,-3,-7,-4,-8,1,-2,-2
1558440113559156,0,-2,-1,-3,2,1,-3,-1
1558440113559156,-2,-2,-7,-1,1,-5,-2,1
1558440113564862,1,4,3,2,3,5,8,4
1558440113564862,-2,-2,-2,-3,-3,-5,-3,-2
1558440113581812,0,0,2,-1,-5,-7,-5,-1
1558440113581812,0,0,0,-3,-9,-1,-3,-4
1558440113582812,0,-2,-3,1,5,5,2,0
1558440113582812,2,3,9,6,16,20,12,4
1558440113595777,-3,-3,-11,-5,-2,-3,-3,-2
1558440113595777,0,-1,2,-2,-10,-13,-7,-2
1558440113602757,-2,0,-2,-4,-1,0,-2,-2
1558440113602757,-2,1,-2,0,-6,-3,-3,-2
1558440113618742,2,2,1,-1,-4,-2,2,0
1558440113618742,1,2,4,3,8,-2,7,3
1558440113625696,-2,-5,-5,-5,-11,-4,-9,-5
1558440113625696,0,0,0,2,6,8,3,1
1558440113641650,-4,-3,2,-3,-13,-10,-6,-5
1558440113641650,-3,-1,-3,-7,2,-3,-5,-3
1558440113642650,0,1,3,2,-12,3,6,1
1558440113642650,1,1,-2,4,18,4,2,1
1558440113655613,1,-1,2,-1,6,9,3,1
1558440113655613,-4,-5,-8,-2,-4,2,-1,-4
1558440113662939,1,3,3,2,3,-12,-3,1
1558440113662939,-3,-2,-2,-3,-13,-7,-4,-3
1558440113678903,1,-1,-4,0,0,1,0,-2
1558440113678903,1,2,2,3,3,6,3,0
1558440113685534,-3,-2,-2,-2,-4,-7,-3,0
1558440113685534,-1,-1,7,0,-6,-3,1,-1
1558440113709745,-4,-5,-20,-11,2,-8,-3,-2
1558440113709745,0,2,4,0,-3,-4,-3,0
1558440113710469,-2,-1,-2,-1,6,15,1,-2
1558440113710469,2,2,8,1,1,-2,0,1
1558440113716566,-2,-1,-2,2,1,8,4,-2
1558440113716566,-4,-3,-4,-5,-8,-10,-9,-4
1558440113723495,-1,1,0,-2,3,1,2,1
1558440113723495,1,-2,-7,-3,-1,-9,-2,-1
1558440113738562,-1,2,8,1,-3,3,1,1
1558440113738562,0,0,-2,1,-4,6,1,-3
1558440113745561,0,-1,-1,-1,0,-3,1,1
1558440113745561,2,0,-1,0,-2,0,-5,-2
1558440113762363,-2,-1,-2,-1,3,0,0,0
1558440113762363,-1,1,4,0,1,1,5,4
1558440113763333,-4,-3,-7,-4,3,6,-1,-4
1558440113763333,0,-1,-4,-2,1,-3,1,-1
1558440113776301,0,1,9,1,-12,-2,-6,-3
1558440113776301,1,-2,-1,2,14,11,6,2
1558440113782279,1,0,2,0,-2,-10,-5,0
1558440113782279,-5,-5,-13,-9,-11,-1,-3,-2
1558440113798235,-2,0,2,0,-1,-1,-2,-1
1558440113798235,-6,-4,-6,-7,-13,-11,-3,-2
1558440113805217,2,1,4,4,12,8,5,5
1558440113805217,-3,-3,-8,-2,-6,-5,-4,-1
1558440113821204,2,4,8,2,7,12,4,0
1558440113821204,1,-1,-1,-1,-4,-4,-2,-3
1558440113823168,0,2,0,-2,1,-3,4,1
1558440113823168,-4,-5,-4,-1,-7,-1,-5,-3
1558440113836337,0,-2,-4,-3,-3,-10,-9,-2
1558440113836337,0,2,0,0,3,-1,0,1
1558440113843302,-3,-5,-5,-4,-16,-5,-4,-6
1558440113843302,1,2,3,5,11,8,3,1
1558440113859148,1,1,3,-1,-3,-3,3,2
1558440113859148,-1,-2,-5,1,4,2,5,1
1558440113865055,-1,0,5,0,-2,-7,-9,-3
1558440113865055,-2,-4,-12,-6,-12,-11,0,-1
1558440113882008,-1,-2,0,0,3,0,2,2
1558440113882008,-1,-3,-1,-4,-2,1,-6,-3
1558440113883005,-2,-4,0,-1,1,0,-4,-1
1558440113883005,-2,-3,1,-1,-3,0,-4,-4
1558440113896194,-2,0,-1,-3,-9,-6,-2,-2
1558440113896194,-2,-1,1,1,-4,-4,-1,0
1558440113902953,0,0,-4,0,2,1,1,0
1558440113902953,0,-1,-2,-3,-1,-1,-4,1
1558440113919227,0,-1,-2,0,-2,-12,-1,0
1558440113919227,0,-2,-3,-2,-4,3,-2,-6
1558440113925990,-4,-3,-4,-4,-12,-7,-8,-5
1558440113925990,0,2,5,4,17,18,15,8
1558440113942076,-3,-3,-6,0,-3,-8,-5,0
1558440113942076,-1,-1,1,-2,0,0,-3,-3
1558440113942850,-2,0,-4,-3,-8,-6,-8,-5
1558440113942850,0,3,7,0,-4,3,0,-1
1558440113954819,-2,-2,-2,-1,3,-3,-3,-3
1558440113954819,0,-2,1,-2,-9,-6,-1,0
1558440113963800,-1,-2,-11,-2,7,8,3,0
1558440113963800,-1,1,2,-1,-4,-3,-4,-1
1558440113978964,1,2,1,1,2,-10,-1,3
1558440113978964,-2,-3,-1,-1,-5,-11,-3,-2
1558440113984735,0,-2,3,4,7,12,6,0
1558440113984735,-5,-5,-7,-6,-6,-5,-7,-5
1558440114001901,2,1,3,3,6,17,8,3
1558440114001901,2,2,5,0,2,3,2,1
1558440114002689,-2,-2,-7,-7,-11,-13,-5,-2
1558440114002689,1,1,0,0,4,1,0,1
1558440114015652,-4,-4,-5,0,-6,-2,-6,-5
1558440114015652,0,1,-2,-3,4,4,3,1
1558440114023661,2,0,7,2,2,1,1,-1
1558440114023661,-6,-4,-12,-5,-7,-5,-7,-6
1558440114038715,-2,0,1,-3,-4,-6,-1,0
1558440114038715,-3,-1,0,1,0,0,-2,0
1558440114045844,1,0,2,3,8,1,3,3
1558440114045844,2,-1,2,2,1,-5,0,1
1558440114061793,-2,-2,-2,-2,-3,7,0,-3
1558440114061793,0,-4,-3,-2,4,-3,-3,-2
1558440114063524,-1,-1,0,0,-6,-6,0,-1
1558440114063524,0,-1,1,-3,0,3,1,-1
1558440114075964,-1,-2,1,-1,0,4,-2,-3
1558440114075964,-1,0,5,2,-2,1,-5,-5
1558440114083797,-5,-4,-12,-5,-6,-9,-5,-3
1558440114083797,1,2,-1,0,11,8,6,3
1558440114099017,0,1,4,2,6,7,6,3
1558440114099017,-2,-3,-1,1,-4,-7,-9,-4
1558440114104739,0,-2,-3,-3,-1,7,3,0
1558440114104739,-1,1,4,2,-1,-6,-3,-2
1558440114121904,-2,-3,-10,-4,-10,-4,-6,-4
1558440114121904,1,1,-2,-2,2,0,-1,2
1558440114122693,-3,-2,-2,-2,-2,0,-2,-3
1558440114122693,-1,-3,1,-2,1,-3,-3,-1
1558440114135805,1,1,4,0,-4,-7,0,1
1558440114135805,-1,0,-2,1,2,1,0,-3
1558440114144635,-1,-2,-3,-2,0,-1,-2,0
1558440114144635,0,-1,0,1,-4,-3,2,1
1558440114158810,-1,0,-3,-2,-3,-10,-5,-4
1558440114158810,-1,0,2,-1,0,-2,-2,-1
1558440114165574,-2,0,0,1,-6,-6,-4,-2
1558440114165574,-1,-1,-6,-2,6,9,9,1
1558440114180536,-2,-2,-1,-2,1,-7,-2,-1
1558440114180536,-3,-4,-6,-6,-13,-1,-6,-3
1558440114187733,0,0,9,4,4,5,2,0
1558440114187733,3,5,7,3,4,0,4,3
1558440114195495,-1,-4,-9,-5,-3,0,0,0
1558440114195495,1,-3,-7,0,6,5,1,0
1558440114204471,-3,-1,1,-4,-11,-14,-7,-4
1558440114204471,-1,-4,-2,1,-5,-6,-4,-2
1558440114218693,-1,-1,2,-2,6,5,3,1
1558440114218693,-3,-3,-5,-5,-6,-6,-2,-3
1558440114225734,1,-2,0,0,4,5,0,2
1558440114225734,-1,0,5,0,-4,-9,-5,-3
1558440114241713,-3,-1,-4,2,4,1,-2,-1
1558440114241713,-3,-1,2,0,1,11,4,-1
1558440114248392,0,0,-5,-2,1,-3,1,0
1558440114248392,0,-1,-2,-1,-9,-13,-5,-3
1558440114255420,1,-1,-1,0,4,8,1,-2
1558440114255420,-2,-2,-2,2,4,3,10,1
1558440114264310,0,1,3,4,4,9,3,-1
1558440114264310,-5,-4,-3,-2,-3,2,-3,-1
1558440114279044,-3,-2,-5,-2,1,-3,-3,0
1558440114279044,0,1,4,1,1,-2,-1,1
1558440114285677,-2,-3,-9,-5,-4,-3,-4,-1
1558440114285677,1,0,0,-3,-4,-11,-6,-1
1558440114301658,-1,-2,1,-2,-9,0,-4,-7
1558440114301658,1,1,0,1,7,4,10,5
1558440114307908,1,0,2,3,13,7,5,3
1558440114307908,-4,-3,-5,-8,-11,-4,-6,-4
1558440114315596,1,1,6,1,-7,-1,-6,1
1558440114315596,-1,-4,-8,-6,-7,0,-2,-3
1558440114324788,1,0,2,-1,-7,-16,-4,-2
1558440114324788,0,-2,-3,-1,4,11,5,0
1558440114338751,-3,-2,6,1,-3,-4,-2,-3
1558440114338751,0,-1,-6,-5,-6,-5,-3,-1
1558440114345763,2,4,-4,-1,8,15,8,5
1558440114345763,0,0,0,1,-1,-9,-4,-4
1558440114361661,-3,-1,-5,-3,-3,-7,-4,-3
1558440114361661,-3,-2,4,2,1,6,0,1
1558440114368454,-1,-2,2,0,9,8,2,2
1558440114368454,0,2,2,1,-4,-11,1,-1
1558440114384658,1,1,-2,-2,-5,-4,-3,-2
1558440114384658,1,-1,-3,1,-3,-7,-6,-4
1558440114385412,-3,-2,4,-2,4,9,2,-1
1558440114385412,-2,-2,-4,0,-3,5,0,1
1558440114398374,-1,-3,-1,-2,4,-1,1,1
1558440114398374,0,1,-1,-1,-9,-14,-7,-4
1558440114405355,-1,-1,-4,-2,-7,-8,-7,-7
1558440114405355,-2,-3,-3,-2,0,6,-1,-3
1558440114421312,-2,2,2,1,4,3,7,3
1558440114421312,-3,-2,-5,-3,-6,-14,-7,-2
1558440114427296,0,1,2,2,0,11,5,0
1558440114427296,-2,-2,-2,-2,2,3,-1,1
1558440114444545,-1,0,-1,0,0,-1,-7,-4
1558440114444545,1,1,5,0,2,-5,0,0
1558440114446247,-5,-5,-4,-2,-14,-17,-11,-7
1558440114446247,0,2,5,2,12,7,11,4
1558440114458508,2,-1,1,1,5,0,5,3
1558440114458508,-1,-1,-1,-1,4,5,1,0
1558440114465464,-4,-4,-8,-6,-16,-13,-13,-6
1558440114465464,0,-1,-3,-3,-4,-1,-4,-1
1558440114481155,-1,1,3,1,-2,-4,2,0
1558440114481155,1,2,2,2,4,-1,-1,2
1558440114488417,1,0,-2,-3,-4,-3,-2,-1
1558440114488417,1,-1,-2,-1,7,7,2,1
1558440114504343,0,1,-4,-1,2,3,2,-1
1558440114504343,-2,0,0,-1,0,1,-3,-2
1558440114505091,-4,0,-2,-3,-11,-11,-7,-6
1558440114505091,-2,1,3,2,13,18,8,1
1558440114518343,2,0,-1,1,-1,-9,2,2
1558440114518343,1,-2,0,-2,3,2,1,1
1558440114525297,-2,0,0,-2,2,8,0,-2
1558440114525297,-4,-4,-4,-4,-10,-8,-2,-4
1558440114541226,0,-3,1,-4,0,-9,-4,1
1558440114541226,-3,0,0,-1,-1,-1,0,1
1558440114547976,-2,-5,-7,-4,-8,-7,-1,-1
1558440114547976,-3,-2,1,-2,3,4,-4,-2
1558440114563935,1,1,5,4,2,14,5,0
1558440114563935,-1,-3,-6,-4,-8,-9,-4,-1
1558440114564928,0,-1,4,4,9,4,10,2
1558440114564928,0,0,-4,-2,-9,-9,-7,-5
1558440114579129,-3,-3,0,-2,4,0,-3,-1
1558440114579129,-2,-3,-2,-2,-3,5,-1,-4
1558440114585094,0,0,1,-1,4,-4,-3,1
1558440114585094,-2,-2,1,1,-4,-1,0,-1
1558440114601063,-4,-4,-3,-4,1,-7,-3,-3
1558440114601063,-2,-2,-5,-2,-1,5,4,1
1558440114607818,1,2,4,2,5,-6,-1,0
1558440114607818,-1,-4,-2,-5,-8,-10,-11,-5
1558440114623772,-2,-3,-7,-3,-5,7,-1,-4
1558440114623772,-3,0,2,0,2,7,5,-1
1558440114625766,1,1,2,-2,-4,0,2,1
1558440114625766,-2,0,-1,2,-1,-1,-5,-2
1558440114638730,-1,-1,-5,-3,-5,-4,-3,-4
1558440114638730,2,2,7,6,7,-1,7,4
1558440114644714,-1,-1,-3,-1,0,2,0,3
1558440114644714,-1,-2,-2,-3,-3,-3,1,-1
1558440114660707,-3,-3,-3,-2,-5,-1,-4,-5
1558440114660707,-2,-2,-2,0,-5,4,-3,-5
1558440114667687,-2,-1,-1,0,-7,-4,-3,-3
1558440114667687,3,3,4,2,8,-4,2,5
1558440114684608,0,2,-7,-4,0,1,1,0
1558440114684608,-1,-3,-2,2,2,-3,-1,-1
1558440114685607,-1,-2,-3,-5,-2,4,2,-3
1558440114685607,0,-2,-2,0,7,3,0,0
1558440114698571,1,-1,2,0,-8,-8,-4,-3
1558440114698571,-1,-2,-4,-2,-3,1,-3,-5
1558440114705551,-3,-3,-3,-2,3,0,-1,-1
1558440114705551,1,1,1,1,-7,-4,0,-1
1558440114721832,2,3,2,3,16,10,9,6
1558440114721832,2,-1,0,-1,3,-1,-2,-2
1558440114728003,-3,-3,-8,-4,-2,-1,-5,-3
1558440114728003,0,0,1,3,0,8,0,1
1558440114744933,0,-1,-2,-1,-1,-2,1,0
1558440114744933,-2,-2,-2,-3,-11,-8,-8,-4
1558440114745449,-2,-3,-5,-2,0,5,-1,-2
1558440114745449,-1,-2,0,-4,-4,-13,-4,4
1558440114758848,1,2,5,4,3,3,5,2
1558440114758848,-4,-4,-4,-5,-9,-10,-6,-4
1558440114765871,-1,0,2,2,3,7,-2,0
1558440114765871,-3,-2,-5,0,4,9,4,-2
1558440114781351,-2,-3,0,-2,-5,-4,-1,-4
1558440114781351,-2,-2,-3,-5,-12,-6,-3,-2
1558440114788593,0,-2,2,-1,2,-8,1,1
1558440114788593,-1,0,-1,0,4,12,11,3
1558440114804607,-2,1,0,0,6,-5,-4,0
1558440114804607,-2,0,1,-2,-6,-2,-4,0
1558440114805529,1,1,-2,-4,-10,-13,-6,-3
1558440114805529,2,-2,-6,-2,1,1,0,-3
1558440114818557,-1,-5,-1,-1,-6,1,-4,0
1558440114818557,0,-2,-1,0,3,3,1,0
1558440114825231,-2,1,1,0,-5,2,-3,-1
1558440114825231,-1,-1,-1,-1,1,2,-1,-3
1558440114841216,-4,0,-2,3,-9,-3,-2,-2
1558440114841216,2,1,0,-4,13,4,2,3
1558440114847176,-1,0,4,1,-2,-11,0,-1
1558440114847176,-1,-2,-4,-5,-11,-11,-10,-4
1558440114864128,-1,-4,-11,-4,2,8,0,-1
1558440114864128,1,0,1,2,-2,8,4,-1
1558440114865567,-2,-1,-4,1,-3,2,-1,-1
1558440114865567,-2,1,3,-4,-5,-17,-5,-2
1558440114878576,1,1,3,-3,-2,-19,-4,-1
1558440114878576,0,2,4,4,3,2,4,0
1558440114887118,0,-3,-2,-3,-3,0,-3,-3
1558440114887118,-3,-4,-11,-4,-5,8,-1,0
1558440114901367,2,0,0,3,9,11,3,2
1558440114901367,0,0,0,-1,0,3,0,0
1558440114908380,1,0,0,0,-4,-8,3,-1
1558440114908380,-1,0,2,1,6,-2,-1,-3
1558440114925000,-3,-5,-4,-5,-11,-1,-10,-6
1558440114925000,-1,-1,-2,-3,-5,9,0,0
1558440114926308,0,0,1,3,9,1,5,3
1558440114926308,-2,-1,-1,0,-3,-14,-3,0
1558440114938289,-1,0,-1,-3,-6,-3,0,-2
1558440114938289,-2,-3,-4,0,6,1,-3,-1
1558440114946908,-1,0,1,-3,-2,9,0,1
1558440114946908,-2,-1,-2,-1,-5,3,-4,-4
1558440114961248,-2,-1,0,-3,2,1,-4,-3
1558440114961248,-3,-2,-2,-3,-8,-14,-5,-2
1558440114968195,1,-1,0,2,8,13,8,-1
1558440114968195,-2,-3,-7,-3,-9,-7,-2,0
1558440114984128,-2,-2,1,-4,2,-2,-1,-1
1558440114984128,1,3,0,4,6,1,7,6
1558440114985803,-2,-2,-2,-1,-3,-1,-4,-3
1558440114985803,-2,-3,3,-3,-7,-3,-7,-5
1558440114997771,1,-1,-2,1,4,-3,6,3
1558440114997771,-1,-1,-4,-3,-4,-10,-3,-3
1558440115006747,1,1,1,1,7,5,-2,0
1558440115006747,-3,-4,-2,-4,-3,-2,-1,-3
1558440115028688,0,-2,-5,0,-10,6,-1,0
1558440115028688,1,1,2,2,11,2,3,2
1558440115030682,-1,-1,0,-2,0,-5,-5,0
1558440115030682,-1,-1,-1,-1,-1,-1,-2,-3
1558440115043649,-1,-2,3,0,2,2,4,0
1558440115043649,2,-2,0,0,1,1,1,1
1558440115045642,-1,-3,-6,-5,-5,0,-5,-5
1558440115045642,-1,1,2,4,9,2,3,1
1558440115066589,-4,-3,-3,-4,-14,-12,-8,-5
1558440115066589,-2,0,-1,-4,-6,-3,-4,-4
1558440115067614,-2,0,1,-1,-6,-3,4,1
1558440115067614,-2,-3,-2,-2,0,2,-2,-3
1558440115080549,-1,0,-4,-2,-2,2,-1,-1
1558440115080549,1,-2,0,-2,-4,1,-3,0
1558440115087829,-1,0,-3,-1,5,-3,-1,0
1558440115087829,1,2,1,0,-2,-4,2,2
1558440115111766,2,1,9,5,10,8,4,1
1558440115111766,-3,-4,-12,-9,-11,-17,-9,-3
1558440115112464,-1,-2,0,-1,2,9,-1,0
1558440115112464,0,0,-4,1,-8,2,0,-2
1558440115117750,-1,-1,0,-3,-7,-10,-5,-2
1558440115117750,-1,2,9,6,3,-4,2,2
1558440115126663,-1,-3,-7,-4,0,-9,3,2
1558440115126663,-3,-2,-2,-3,-7,-7,-8,-4
1558440115149660,-2,-2,-4,-3,-3,1,-4,-4
1558440115149660,0,-1,-2,0,5,11,7,1
1558440115150364,-1,-3,-2,-1,-12,-18,-12,-5
1558440115150364,2,0,4,3,9,6,8,2
1558440115162650,0,1,-2,2,17,21,8,6
1558440115162650,-3,-3,-2,-2,-12,-3,-9,-7
1558440115170342,0,0,3,2,2,2,1,-4
1558440115170342,-1,-2,2,-6,-7,-14,-3,-1
1558440115186299,-1,-2,-9,-2,0,-7,-3,-2
1558440115186299,-1,-2,1,0,4,9,3,2
1558440115186299,-3,-3,-1,0,-8,-3,-4,-4
1558440115186299,0,0,-3,-2,-3,-6,-4,-1
1558440115201526,0,1,1,0,-6,-3,8,2
1558440115201526,-3,-3,-3,-2,-2,-5,-6,-5
1558440115208467,0,-3,-3,-2,-3,5,2,-3
1558440115208467,-1,0,-1,-2,1,0,-1,0
1558440115224168,1,0,0,0,-2,-5,-6,1
1558440115224168,1,1,-3,1,5,8,6,2
1558440115230149,-1,-1,0,0,-3,-1,-1,-1
1558440115230149,0,-3,2,4,9,15,3,-1
1558440115246111,1,-2,0,-3,-5,-7,-1,1
1558440115246111,1,0,0,-2,2,-6,-2,-1
1558440115246111,-2,-4,-7,-6,-6,-1,-4,-3
1558440115246111,0,-2,1,-2,-8,0,-7,-3
1558440115270206,0,-2,-2,-3,-10,-23,-4,-3
1558440115270206,-1,1,1,-1,2,6,4,0
1558440115271041,-1,3,6,3,2,-1,-1,0
1558440115271041,-3,-2,-14,-5,-4,4,0,-1
1558440115283386,-3,-2,1,1,3,6,1,-6
1558440115283386,1,-2,-1,-2,0,-9,-5,0
1558440115290986,2,0,-1,1,5,5,6,0
1558440115290986,-2,-1,4,0,-1,0,0,2
1558440115307306,1,2,2,0,5,5,4,2
1558440115307306,-4,-2,-1,-1,-4,2,3,-1
1558440115307942,0,0,-1,-3,-5,-9,-7,0
1558440115307942,-1,1,-3,0,2,2,-2,-4
1558440115321904,-4,-4,-3,-5,-13,-4,-9,-4
1558440115321904,-2,-1,1,-1,-10,-10,-5,-3
1558440115328267,-1,2,-1,-1,8,3,3,2
1558440115328267,1,-2,0,0,-1,-2,2,2
1558440115344150,-2,-1,-3,-2,2,-2,1,0
1558440115344150,-1,-2,-1,0,-2,-5,-4,-3
1558440115350955,-2,-2,-2,2,0,11,0,1
1558440115350955,-1,-2,-3,-3,-11,-16,-9,-6
1558440115366128,0,0,-1,1,3,2,0,0
1558440115366128,-1,-3,-1,-3,-8,-2,-3,-4
1558440115366784,1,1,0,1,4,-1,6,4
1558440115366784,0,1,4,4,12,7,6,2
1558440115381776,-1,1,4,-2,-13,-7,-10,-4
1558440115381776,-3,-4,-10,-6,1,3,1,-2
1558440115388089,0,-1,-2,-2,-6,-8,-3,-3
1558440115388089,2,-1,2,-2,-7,-4,-3,-3
1558440115402813,0,1,-1,-1,7,0,6,3
1558440115402813,0,-1,0,-2,-7,-1,-6,-2
1558440115410971,-3,-3,-2,-2,4,6,4,-1
1558440115410971,-2,1,3,-1,7,4,-3,2
1558440115425656,-2,-3,-5,0,-1,3,-1,-3
1558440115425656,0,-3,0,2,-2,0,0,-2
1558440115426622,0,0,-1,-2,0,1,0,-1
1558440115426622,-2,0,0,2,-3,-2,2,0
1558440115441647,0,1,-3,-2,3,4,-4,-3
1558440115441647,0,3,0,1,-1,-2,-2,-1
1558440115447568,-1,-2,1,0,-2,-3,0,-1
1558440115447568,-1,-3,-5,-4,-7,-1,1,-1
1558440115463527,-1,-1,-2,0,3,-6,-3,-2
1558440115463527,-2,0,0,0,1,2,1,1
1558440115470509,-1,1,2,-2,-3,1,-4,-2
1558440115470509,-2,-2,-2,-4,-4,-2,-1,-2
1558440115485794,0,0,4,4,8,2,3,2
1558440115485794,-2,-2,-4,-4,1,3,-1,-1
1558440115486465,-2,-3,-3,-2,-10,-11,-7,-2
1558440115486465,-2,-1,-4,2,0,1,-3,-2
1558440115501624,-1,-2,2,-3,-8,1,1,-1
1558440115501624,0,-3,2,-2,4,-4,-1,-1
1558440115508433,0,-2,-2,-1,9,8,7,2
1558440115508433,-1,0,2,2,7,-1,-1,0
1558440115523378,-3,-2,-3,-2,-8,0,-3,-3
1558440115523378,0,1,-1,0,7,7,5,6
1558440115530349,0,-2,-2,-3,-7,-4,-5,-5
1558440115530349,2,1,1,2,-1,-10,0,2
1558440115547300,-1,-1,-2,0,8,10,4,2
1558440115547300,1,0,0,-2,-6,-8,-7,-5
1558440115548298,-3,-1,-3,0,0,1,-4,-2
1558440115548298,-3,0,-4,-2,2,-3,4,0
1558440115561583,-1,-2,0,-1,-5,-6,-5,-2
1558440115561583,0,2,1,2,3,7,2,0
1558440115567581,-2,-2,-1,-2,-5,-3,1,0
1558440115567581,-1,0,-1,-2,3,-3,-3,-1
1558440115583475,-3,-4,-4,-4,-8,-5,-3,-1
1558440115583475,-2,-1,-4,1,-1,5,2,-1
1558440115590499,-1,-2,-1,-1,7,2,1,-1
1558440115590499,2,1,4,2,0,1,1,2
1558440115606479,-1,-1,-7,-2,1,-6,1,-2
1558440115606479,-1,-1,0,-4,-4,-13,-6,-1
1558440115606479,-3,1,-1,-1,-8,3,-1,0
1558440115606479,-2,0,-2,-2,-3,-2,-5,-3
1558440115622100,-1,0,1,0,9,9,2,2
1558440115622100,-2,-3,-2,0,-6,-4,-5,-2
1558440115628439,1,2,3,1,1,-5,0,1
1558440115628439,-3,-3,0,-4,-6,-10,-8,-4
1558440115643372,-1,-3,-5,-1,0,7,5,-2
1558440115643372,-2,-2,1,-2,-4,-4,3,4
1558440115650028,2,1,1,1,2,3,-2,0
1558440115650028,-2,-3,-3,-3,-6,-3,-3,-1
1558440115665983,0,1,2,1,-2,-5,-5,-3
1558440115665983,1,1,-1,2,6,5,5,1
1558440115665983,1,-2,0,-2,-4,-6,-3,-1
1558440115665983,-1,-1,-4,-4,0,2,-3,-3
1558440115681968,0,-1,1,-2,-7,-1,-3,-2
1558440115681968,-1,-3,-2,0,4,-7,1,2
1558440115687925,-1,1,-1,-1,-4,4,0,-4
1558440115687925,2,0,5,3,5,11,5,0
1558440115703248,-3,-2,-7,-3,-4,-8,-3,0
1558440115703248,-1,-2,-1,-4,-4,-6,-4,-2
1558440115711018,0,-2,-2,-3,-5,-11,-6,-2
1558440115711018,-1,-3,-5,-1,2,6,-3,-2
1558440115725898,1,0,1,3,16,18,10,2
1558440115725898,1,1,2,1,-3,0,-2,-2
1558440115726855,-2,-2,-4,-3,-1,-5,-3,-2
1558440115726855,-3,-2,-1,-2,-11,-2,-1,-2
1558440115741780,0,2,3,1,4,1,-1,2
1558440115741780,1,2,5,-1,-1,-2,2,-3
1558440115747766,-3,-2,-1,-5,-4,4,-4,-1
1558440115747766,-3,-5,-16,-8,-11,-11,-7,-4
1558440115762723,1,1,0,0,1,-8,-2,-2
1558440115762723,1,-1,1,2,2,6,2,2
1558440115771139,-2,1,6,1,-2,-8,1,0
1558440115771139,-2,-4,-3,-5,-6,-4,-4,-2
1558440115785663,-1,-2,-2,-1,1,13,6,-1
1558440115785663,-1,0,0,3,1,4,3,3
1558440115786661,0,1,2,1,7,-8,0,1
1558440115786661,1,-1,2,2,4,8,1,-3
1558440115801623,-2,-2,0,-2,-6,-6,2,-1
1558440115801623,-3,-2,-3,-5,-7,-7,-10,-4
1558440115808497,-2,-2,-4,0,1,9,2,2
1558440115808497,-1,1,0,0,2,0,1,-2
1558440115825033,-3,-2,-2,1,-7,1,-4,-2
1558440115825033,0,-1,-2,-3,4,-1,-4,-3
1558440115830022,0,0,-1,0,-2,-3,0,-1
1558440115830022,0,1,1,0,7,1,-2,-1
1558440115846036,-1,-2,1,-2,-4,-5,-5,-1
1558440115846036,0,-1,-3,1,3,3,6,3
1558440115846974,2,-2,-3,-2,0,1,-4,-1
1558440115846974,-2,0,-2,0,-2,6,6,-1
1558440115861933,-1,3,1,-2,-2,-2,-3,0
1558440115861933,-2,-1,-3,-4,-5,-9,-3,-3
1558440115868291,-2,-1,-1,0,0,1,1,0
1558440115868291,2,1,2,1,6,-4,3,4
1558440115882912,-3,-3,-4,-4,-8,-6,-10,-4
1558440115882912,-4,-1,-2,-1,-6,8,1,-4
1558440115890928,-3,-2,1,-1,-8,-14,-5,-3
1558440115890928,0,-2,-3,-1,-1,4,-1,-1
1558440115906172,1,0,3,0,1,-2,3,3
1558440115906172,0,-1,-1,-1,0,-13,-7,-1
1558440115906814,-2,-1,-3,-3,-8,1,-3,-4
1558440115906814,1,0,2,2,6,8,9,2
1558440115921774,0,-2,-2,-4,-4,-13,-5,-2
1558440115921774,-4,-4,-3,-3,-5,-3,-8,-6
1558440115944812,1,-1,0,4,13,20,6,1
1558440115944812,0,0,1,-3,3,-10,1,2
1558440115945910,-1,0,-2,-1,-6,2,-3,-1
1558440115945910,-1,1,1,1,8,8,1,-2
1558440115950903,-3,-1,-4,-4,-14,-17,-10,-2
1558440115950903,-3,-6,-3,-1,-9,-6,-3,-3
1558440115965997,3,4,7,4,15,6,9,5
1558440115965997,0,-1,-5,-5,-8,1,-7,-2
1558440115966653,-1,-4,-8,-4,-5,0,-1,-2
1558440115966653,-1,1,-1,1,1,-5,0,1
1558440115981700,-1,0,-1,0,-5,-4,3,-1
1558440115981700,-2,0,0,2,-2,1,0,-1
1558440115987907,-2,0,0,0,0,2,1,1
1558440115987907,-2,-4,-5,-5,-5,-5,-6,-2
1558440116002974,-2,-2,-4,-2,-10,-11,-10,-4
1558440116002974,-1,-1,4,-2,-6,1,4,0
1558440116010877,2,1,0,0,14,5,5,1
1558440116010877,4,5,5,5,0,3,3,2
1558440116026124,-1,1,-2,-5,2,-3,-3,-2
1558440116026124,-2,-1,-4,-3,-5,0,-3,-4
1558440116026817,-2,-2,0,-3,-9,-1,-1,-4
1558440116026817,-2,-1,1,3,5,-3,0,2
1558440116041778,1,0,-1,0,5,-4,-3,0
1558440116041778,-1,-3,-2,-2,-1,-4,-2,0
1558440116047761,-1,-1,-3,-1,-5,-4,-6,-4
1558440116047761,-2,-2,-3,-5,-12,0,-4,-4
1558440116062722,-1,-3,0,0,5,4,1,0
1558440116062722,-1,-1,-2,0,3,4,3,2
1558440116070982,-2,-1,1,2,4,-3,2,2
1558440116070982,2,2,-1,1,7,4,4,3
1558440116086655,-3,-2,-6,-7,-11,-14,-9,-6
1558440116086655,-1,-1,1,-1,-4,-2,-4,-1
1558440116092639,2,0,6,4,8,-2,1,1
1558440116092639,-3,-5,-9,-9,-10,2,-6,-6
1558440116101615,0,1,5,6,2,1,4,2
1558440116101615,-2,-2,-4,-2,-4,-15,-2,0
1558440116107657,-1,-3,-4,-3,2,12,6,3
1558440116107657,-2,1,5,2,1,-8,-4,-2
1558440116122597,-1,-3,-4,1,-4,6,-2,-3
1558440116122597,0,-4,-3,-6,-6,-6,-7,-2
1558440116130542,-4,-1,-1,-3,-13,-7,-4,-1
1558440116130542,2,3,3,3,6,2,5,4
1558440116145960,-1,-2,-3,0,9,9,4,0
1558440116145960,1,0,0,0,2,1,-1,-2
1558440116152658,-1,0,-1,-2,2,-5,1,1
1558440116152658,1,-1,-1,-3,0,3,0,1
1558440116161966,-2,-1,2,0,-3,-6,5,4
1558440116161966,0,-1,0,2,4,4,3,1
1558440116168385,-1,-1,-1,-5,-8,-11,-6,-2
1558440116168385,-2,-4,-3,-3,-10,-2,-5,-6
1558440116184192,-2,-2,-1,-1,1,6,-4,-1
1558440116184192,1,2,0,1,3,6,3,0
1558440116191035,1,-2,-2,-1,-1,-4,-2,0
1558440116191035,-4,-2,-1,0,2,3,2,0
1558440116205312,-2,1,-5,-4,-5,-10,-6,-3
1558440116205312,-2,-2,-1,0,-6,3,3,-1
1558440116212829,4,4,2,1,14,11,7,6
1558440116212829,-2,-3,-2,0,0,-7,-2,-3
1558440116221805,3,-1,1,-1,3,1,2,-1
1558440116221805,-3,-1,2,-1,-2,-2,-2,0
1558440116228210,-1,0,-2,-2,-12,-19,-6,-4
1558440116228210,-3,-3,0,2,5,-3,-6,-2
1558440116244109,-2,0,-2,-4,-8,4,6,-1
1558440116244109,2,0,2,3,14,10,6,3
1558440116250943,-5,-3,-2,-1,-3,4,-4,-1
1558440116250943,-1,1,-1,-1,4,-6,0,2
1558440116264690,-3,-2,-4,-3,-18,-14,-11,-6
1558440116264690,2,2,2,3,13,8,4,2
1558440116272666,0,-2,-4,-4,5,13,5,-1
1558440116272666,-1,-3,-1,-4,-6,-10,-6,-3
1558440116289014,1,-1,1,0,6,9,9,6
1558440116289014,0,0,0,1,1,-4,6,2
1558440116289014,-2,-1,1,-2,-7,-13,-5,-3
1558440116289014,0,1,0,-2,-3,3,-3,-3
1558440116304583,-3,-5,-7,-3,-10,0,-9,-7
1558440116304583,0,2,0,-3,7,3,6,4
1558440116311055,0,-2,-1,-1,-2,-4,0,0
1558440116311055,-1,-3,0,1,2,8,2,1
1558440116325890,-1,-1,0,1,-2,-7,-2,0
1558440116325890,-2,-1,-3,-1,3,0,-4,-3
1558440116332856,-1,-3,-2,-1,-11,-3,-7,-6
1558440116332856,1,1,0,1,6,8,8,3
1558440116348843,-3,-4,-2,-2,-3,-2,-2,-3
1558440116348843,-2,-3,-4,-5,-10,-7,-10,-5
1558440116349461,2,4,4,4,6,-8,3,3
1558440116349461,-1,-3,-3,-2,-5,-2,-4,-1
1558440116372401,0,0,0,2,6,7,-3,-1
1558440116372401,-3,-5,-8,-5,-12,-15,-7,-5
1558440116372401,-2,-3,-5,0,-3,8,1,-1
1558440116372401,0,1,-1,-2,2,0,-2,0
1558440116385366,2,1,2,0,7,3,2,1
1558440116385366,-3,0,1,0,-7,-6,-1,-1
1558440116392381,-4,-1,-2,-5,0,-11,-10,-1
1558440116392381,1,2,1,2,5,7,10,0
1558440116408305,0,-3,1,-1,-4,3,-1,-3
1558440116408305,-1,-3,-3,-2,-5,7,-3,-6
1558440116409302,0,-2,6,4,-2,-1,1,-2
1558440116409302,2,-1,-8,-4,0,-8,8,3
1558440116424269,-3,-1,-6,-5,-2,-6,-5,-2
1558440116424269,2,-1,3,1,-3,-6,-2,0
1558440116430249,0,-2,-5,-5,2,1,-4,-3
1558440116430249,-3,0,2,0,-10,-2,-5,-3
1558440116445623,-1,1,0,2,10,2,3,2
1558440116445623,-3,-3,-3,-4,-12,-6,-5,-4
1558440116452572,-2,-1,0,2,8,10,3,0
1558440116452572,0,0,0,-3,-6,-3,-1,-2
1558440116468334,0,-2,-1,-4,3,-3,2,0
1558440116468334,1,0,2,0,-1,-5,-4,0
1558440116469143,-2,-3,-2,-1,-3,5,3,0
1558440116469143,-6,-4,-6,-2,1,-6,-10,-5
1558440116484101,-3,-1,-2,-1,-16,-12,-4,-3
1558440116484101,3,3,1,3,21,5,8,4
1558440116490086,1,0,-4,1,-8,2,-1,-1
1558440116490086,1,-1,0,0,3,-4,-3,-2
1558440116505484,-3,-2,-2,-2,-11,-8,-5,-3
1558440116505484,0,-1,2,1,1,-2,-1,0
1558440116513023,-2,-2,-7,-5,0,0,3,1
1558440116513023,-1,-1,6,2,-4,0,-2,-2
1558440116528044,0,0,-4,-3,-3,-3,-5,-4
1558440116528044,-2,-4,0,-3,-1,7,0,-1
1558440116528999,-2,-2,-4,-2,-3,-11,-1,1
1558440116528999,1,2,5,0,-2,2,-1,0
1558440116543942,-1,-5,-8,-2,0,3,1,-1
1558440116543942,1,3,11,8,9,2,2,2
1558440116549927,-3,-3,-13,-7,4,3,-3,-3
1558440116549927,0,-1,-3,-4,-10,-2,-4,-4
1558440116564885,1,2,6,5,15,15,9,7
1558440116564885,-6,-4,-8,-7,-16,-10,-6,-5
1558440116572863,-2,-1,4,1,-2,-6,-9,-2
1558440116572863,0,-1,-4,-2,0,-5,2,3
1558440116588892,-3,-1,1,1,1,4,-6,-3
1558440116588892,3,-1,-2,0,0,2,0,-1
1558440116588892,0,-3,0,-4,2,2,-1,-1
1558440116588892,-2,-1,4,0,-7,-7,-4,-3
1558440116603780,1,-3,-6,-1,-1,2,3,5
1558440116603780,-2,0,-1,-2,-6,-3,-4,-4
1558440116610764,1,-1,4,-1,-1,-6,-4,-3
1558440116610764,-2,-4,-8,-2,1,-6,0,0
1558440116625099,1,2,2,0,2,-2,-5,-3
1558440116625099,-3,-2,-8,-4,-5,1,-3,-3
1558440116632705,0,-1,2,1,-3,-3,-1,0
1558440116632705,0,1,2,0,1,3,4,-1
1558440116648661,-2,0,1,-4,-8,-6,0,-1
1558440116648661,1,0,-4,3,-4,3,0,1
1558440116648661,1,4,8,6,10,12,8,2
1558440116648661,-2,-1,-2,0,5,-1,-3,2
1558440116663626,0,-3,-3,-2,1,-1,0,-4
1558440116663626,-5,-2,2,-1,-1,2,-7,-3
1558440116670677,-1,1,4,0,1,-2,-1,-2
1558440116670677,-2,-2,8,1,-12,-19,-12,-4
1558440116684565,0,-5,-21,-10,4,14,13,2
1558440116684565,0,0,-4,1,7,8,10,5
1558440116692827,0,1,2,1,0,-5,2,1
1558440116692827,0,1,-5,-1,-1,-1,-6,-3
1558440116708504,-1,2,12,3,-9,-15,-11,-5
1558440116708504,-4,-6,-4,-7,-8,-11,-7,-3
1558440116708504,1,-1,-6,-2,2,0,0,-1
1558440116708504,1,2,3,3,3,15,2,-1
1558440116724458,-4,-1,-2,-1,-5,-3,-4,-4
1558440116724458,0,0,-3,-2,-1,-7,1,-1
1558440116730459,-3,-4,-2,-1,-5,-2,-6,-5
1558440116730459,-1,-4,-9,-3,-5,-3,0,1
1558440116745404,-1,-1,4,-1,3,3,-3,-1
1558440116745404,-1,1,4,0,2,0,0,-2
1558440116752385,-3,-2,-4,-3,-4,-4,0,1
1558440116752385,-2,-1,-2,-3,-5,-4,0,-2
1558440116768601,-1,-1,1,-2,-7,-7,1,2
1558440116768601,0,1,6,3,0,-3,-1,0
1558440116769340,-3,-5,-9,-5,-4,5,-4,-5
1558440116769340,-1,-1,-1,-2,5,-5,-1,1
1558440116784298,1,2,9,7,4,6,6,2
1558440116784298,1,1,0,-1,-4,-2,0,-2
1558440116790282,-2,0,-5,0,2,0,1,-1
1558440116790282,-3,-4,-5,-3,1,3,-1,0
1558440116805244,-3,-4,-3,-8,-13,-12,-13,-7
1558440116805244,1,-1,4,4,12,8,9,2
1558440116812233,2,2,6,3,2,4,9,3
1558440116812233,-2,-4,-7,-3,6,6,8,1
1558440116828182,-3,-1,0,0,1,2,-8,-3
1558440116828182,-2,-4,-7,-4,-5,4,-7,-6
1558440116829179,-2,1,-1,-2,-8,-18,-2,0
1558440116829179,1,2,10,3,1,0,-1,-1
1558440116844137,-1,-1,-12,-2,-6,-4,0,1
1558440116844137,1,1,-1,-1,9,-2,2,2
1558440116850123,-2,-4,-6,-2,-1,-1,-6,-2
1558440116850123,0,0,1,-2,-3,4,5,1
1558440116865084,-3,-4,-2,-4,-5,-10,-13,-6
1558440116865084,-1,1,1,0,-8,-6,-2,1
1558440116881040,-1,-1,4,4,13,10,10,5
1558440116881040,2,3,0,0,3,0,-1,0
1558440116888022,0,-4,-2,-2,-5,0,0,-3
1558440116888022,-2,-3,-7,-7,-12,-13,-6,-1
1558440116889019,1,1,6,2,3,-3,2,1
1558440116889019,-2,-3,0,-3,-6,-5,-6,-6
1558440116903979,-1,-1,-5,0,9,5,3,1
1558440116903979,-2,-3,-3,-1,-5,-2,-3,-3
1558440116909962,0,-2,-1,-3,-1,-4,-4,-3
1558440116909962,-2,-2,-3,0,-6,-6,-4,0
1558440116924922,1,2,7,4,14,9,7,1
1558440116924922,-1,-2,-5,-5,-4,0,1,-2
1558440116932906,-1,1,-2,-3,-11,-1,-8,-3
1558440116932906,3,3,3,4,12,7,13,6
1558440116947863,1,2,5,0,0,-8,2,1
1558440116947863,-1,-2,-2,1,8,2,4,0
1558440116948859,-2,1,-2,-1,-5,-6,-6,-1
1558440116948859,-3,-2,2,1,-1,5,-7,-6
1558440116963834,-1,-4,-7,-11,-4,-2,0,-1
1558440116963834,-1,0,4,2,-6,-5,0,-2
1558440116969803,-2,-2,-8,-4,-3,-2,-3,-6
1558440116969803,-2,-1,-2,-4,-10,-3,0,1
1558440116984764,1,3,4,3,-1,-14,-7,-2
1558440116984764,-2,-4,-4,-2,1,1,-5,-2
1558440116992839,0,-5,-1,-1,2,11,3,1
1558440116992839,0,-1,-5,1,3,7,7,2
1558440117007701,-3,1,3,3,-2,-7,-2,-1
1558440117007701,-1,1,-2,0,7,6,4,2
1558440117014682,0,-2,0,-1,-4,-7,-5,-3
1558440117014682,-2,-4,-4,-3,-5,-7,-8,-2
1558440117023715,4,2,4,2,12,12,6,3
1558440117023715,-2,-2,-2,-2,-10,-6,-3,-1
1558440117029643,-3,-3,-3,-1,-2,1,-2,-3
1558440117029643,-1,0,-2,-2,1,-3,0,1
1558440117045598,-2,-1,3,2,4,-3,-2,0
1558440117045598,2,1,0,2,0,3,0,0
1558440117052580,-4,-5,-4,-4,-3,-3,-5,-4
1558440117052580,-1,0,-8,-5,-4,-3,0,-1
1558440117067541,-3,-4,-5,-1,-11,-8,-2,-3
1558440117067541,1,2,2,2,3,4,-1,-2
1558440117075518,-1,0,1,-1,-2,4,2,2
1558440117075518,-3,-2,0,-3,-2,-11,-7,-5
1558440117092474,-1,-1,-2,-1,-10,1,0,-1
1558440117092474,-2,-3,-1,-5,-9,-15,-9,-4
1558440117093472,2,4,3,5,24,25,13,5
1558440117093472,-2,0,-1,-1,-5,-4,-3,-2
1558440117105439,0,-3,0,-1,1,3,-2,-1
1558440117105439,-3,-3,-8,-5,-10,-7,-10,-5
1558440117112421,1,1,-2,1,-1,-15,-1,2
1558440117112421,-1,1,2,0,1,3,1,0
1558440117127380,0,-1,7,5,11,7,10,5
1558440117127380,-2,-3,-1,-6,-13,-3,-4,-4
1558440117135362,-1,-1,-4,-4,2,4,-6,-2
1558440117135362,-1,-1,0,0,-3,-9,-4,0
1558440117150488,-1,0,-4,-5,-12,-9,-1,2
1558440117150488,0,2,4,2,14,3,0,1
1558440117151317,-2,-2,3,-2,-11,5,3,-4
1558440117151317,-1,-3,-3,-2,-7,6,-5,-6
1558440117166372,3,4,0,0,4,4,2,0
1558440117166372,2,0,0,1,-4,-11,2,1
1558440117172261,-1,-3,-3,0,1,-1,-2,-4
1558440117172261,0,-1,-2,-3,-1,6,0,-4
1558440117187220,-3,-5,-4,-2,-5,-7,-4,-3
1558440117187220,-1,-2,1,-2,-2,3,4,1
1558440117195237,-2,0,1,1,-5,-8,-4,0
1558440117195237,0,1,2,0,-4,-6,-8,-1
1558440117211156,-2,-2,-5,-3,5,0,-2,-1
1558440117211156,1,1,-5,-2,0,1,-1,2
1558440117211156,0,-1,-3,-1,1,8,0,-2
1558440117211156,-1,-2,1,2,10,11,3,2
1558440117225119,-1,-2,-5,-3,-5,-10,-3,-3
1558440117225119,-1,-3,0,-3,-5,-7,-3,-1
1558440117232269,0,-1,-2,-1,-5,-14,-5,-1
1558440117232269,-2,-2,-2,-1,-1,4,3,-2
1558440117247063,0,1,4,2,5,9,1,0
1558440117247063,-1,-3,-3,0,1,1,-1,-3
1558440117255042,-1,2,1,-2,-3,-5,0,-1
1558440117255042,-1,0,1,2,5,-3,5,4
1558440117270996,-3,-2,-2,-2,-4,0,-6,-5
1558440117270996,-3,-1,-3,-3,-3,1,-1,-5
1558440117270996,4,1,5,2,6,-3,3,2
1558440117270996,1,0,-3,-5,-2,-1,-6,-3
1558440117284959,-2,-4,-3,-1,-6,-1,-4,-4
1558440117284959,-2,-1,2,-2,-11,-7,-8,-3
1558440117292938,-2,1,-7,-3,1,7,3,-1
1558440117292938,0,-1,1,3,10,5,6,3
1558440117308173,-1,-2,-1,-2,-8,-10,1,1
1558440117308173,2,0,0,1,3,-1,-1,-2
1558440117314879,-2,-5,-2,-2,1,-1,-5,-2
1558440117314879,0,1,1,2,2,4,2,1
1558440117330841,-2,0,-1,-1,1,3,1,0
1558440117330841,-4,-2,-3,-2,-3,-1,0,-1
1558440117331834,-3,-1,0,-1,-7,-2,1,2
1558440117331834,0,0,-2,-1,3,-5,-2,1
1558440117345090,2,0,0,2,10,5,2,-1
1558440117345090,2,1,-1,0,0,-4,1,0
1558440117352777,-1,0,0,-1,-3,11,2,-3
1558440117352777,-2,-7,-3,-8,-12,-9,-7,-7
1558440117367738,-1,-2,0,2,3,-1,-1,1
1558440117367738,3,0,-1,-1,9,4,6,3
1558440117374719,-2,-3,-2,-4,-3,-1,-4,-2
1558440117374719,0,-1,-1,-1,-5,-4,-4,-1
1558440117390677,0,-2,-1,-2,-8,2,-1,-2
1558440117390677,-1,-3,0,-1,-2,-9,-2,1
1558440117391680,-1,1,0,2,0,-3,-2,-2
1558440117391680,-1,1,-1,-2,1,2,0,-1
1558440117404643,-1,-2,-6,-6,-8,-4,-6,-4
1558440117404643,-2,-1,0,0,6,9,2,1
1558440117412653,1,1,3,-1,0,-3,-1,0
1558440117412653,-2,-2,-3,0,-4,-3,-1,-1
1558440117427578,1,0,-3,-2,1,1,-1,1
1558440117427578,1,0,0,0,3,2,3,2
1558440117434559,-2,-2,-2,-1,-3,-5,-5,-2
1558440117434559,-3,-3,-1,-4,-3,-3,-2,-2
1558440117450516,-1,1,2,0,2,1,1,1
1558440117450516,-1,-1,-2,1,0,1,-1,0
1558440117451519,-2,0,-1,-1,-4,-4,-3,-2
1558440117451519,-1,-1,0,-2,-5,-1,-3,-2
1558440117465477,-2,-3,-4,-2,-4,0,1,-2
1558440117465477,-5,-3,-4,-2,-2,3,-6,-1
1558440117472458,5,3,6,7,18,14,20,12
1558440117472458,0,0,0,1,6,-10,1,-1
1558440117487417,-1,-2,-4,-3,-4,3,-2,-2
1558440117487417,3,3,4,3,7,7,5,3
1558440117495398,-3,-4,-7,-11,-24,-17,-7,-7
1558440117495398,1,-2,-1,1,3,8,2,1
1558440117510370,0,2,0,1,6,6,2,0
1558440117510370,-4,-5,-7,-4,-14,-12,-12,-7
1558440117511356,2,0,0,4,8,11,2,0
1558440117511356,-1,-1,1,1,-3,-13,0,2
1558440117525316,-4,-3,1,-4,-4,-2,-5,-4
1558440117525316,-2,-3,-5,-1,2,4,1,-3
1558440117532298,-3,-5,-1,-2,-3,-5,-6,-2
1558440117532298,0,-1,1,-5,-13,-11,-7,-4
1558440117547258,4,2,3,5,16,9,6,6
1558440117547258,-2,-1,-4,-5,-3,4,-1,-3
1558440117555238,-2,-3,-4,-3,-14,-7,-6,-5
1558440117555238,0,0,-2,2,11,9,7,4
1558440117579171,0,0,3,0,0,-4,1,1
1558440117579171,2,1,2,0,3,4,2,3
1558440117580172,-3,-4,-2,-1,-9,-8,-4,-3
1558440117580172,-1,1,-1,0,-1,7,-4,-3
1558440117585156,-2,-2,-4,0,-4,-1,-5,-5
1558440117585156,-4,-3,-3,0,1,-7,1,1
1558440117592146,1,2,4,1,4,-8,0,1
1558440117592146,-5,-5,-10,-4,-13,-9,-5,-5
1558440117607102,-2,1,1,0,-4,-9,-3,1
1558440117607102,0,-1,0,-4,7,15,4,-2
1558440117615077,1,2,1,2,-5,3,3,2
1558440117615077,0,0,9,3,18,5,1,-1
1558440117631036,-2,-6,-19,-11,-15,-11,-12,-6
1558440117631036,1,0,-1,-2,2,-11,-2,2
1558440117631036,0,1,1,2,4,1,-3,1
1558440117631036,2,1,4,2,7,7,4,1
1558440117645003,0,-2,2,0,-6,-6,0,-1
1558440117645003,-2,-3,-6,-6,-7,-6,-5,-3
1558440117652974,-3,-5,-8,-6,1,8,-5,-6
1558440117652974,0,-1,3,-1,-8,-8,-1,0
1558440117667935,0,0,-4,0,13,-1,5,2
1558440117667935,-2,-3,1,0,-13,-13,-4,-2
1558440117674916,-2,1,-1,-1,7,0,-2,0
1558440117674916,-2,0,-2,-2,-2,9,0,-1
1558440117690874,-1,0,7,2,1,5,5,1
1558440117690874,-2,0,1,-1,-2,-3,-7,-3
1558440117691870,-1,-1,-4,-2,-3,-12,-8,-3
1558440117691870,-1,-1,-3,-1,-4,3,3,-3
1558440117704837,2,2,0,-1,1,-6,-2,0
1558440117704837,1,1,1,3,5,9,5,1
1558440117712819,0,-2,-2,-1,0,-2,3,2
1558440117712819,-3,-2,-8,-6,-6,-10,-6,-3
1558440117727775,0,-3,0,-1,-4,9,-3,-2
1558440117727775,2,1,4,-1,-3,-14,-5,-3
1558440117734757,1,0,6,1,2,1,0,0
1558440117734757,-3,-4,-10,-4,5,5,1,-3
1558440117750713,-2,1,5,-2,-10,-15,-6,-3
1558440117750713,-2,-2,-8,0,6,8,3,-1
1558440117751710,-1,1,1,-1,-2,9,5,-1
1558440117751710,-2,-3,-2,0,-3,-9,-3,0
1558440117764677,-2,-1,-1,-2,-6,-1,-4,-3
1558440117764677,1,1,3,3,4,-3,-1,2
1558440117772680,0,-1,-2,-1,0,-5,-3,0
1558440117772680,-1,1,0,-2,-8,6,3,0
1558440117787618,-2,-2,-7,-1,7,5,-1,0
1558440117787618,-3,-3,-2,0,-4,-3,1,-2
1558440117794598,-2,-2,-5,-1,2,-2,-1,-4
1558440117794598,1,1,6,2,-3,-4,-2,1
1558440117810557,-1,-1,0,-1,3,4,4,0
1558440117810557,-1,0,-4,-1,-3,4,-1,-4
1558440117811550,0,-3,-4,-2,-5,-6,-4,-4
1558440117811550,-1,-1,-2,-1,-7,-5,-6,-2
1558440117825517,-2,0,2,-1,4,-1,0,1
1558440117825517,0,1,2,1,5,6,3,2
1558440117832495,-1,2,3,1,5,-3,2,1
1558440117832495,-1,-1,-4,-2,3,2,-2,-1
1558440117847458,-2,-2,-4,-5,-8,-10,-5,-4
1558440117847458,-1,-3,0,-2,-8,-5,-1,-2
1558440117855433,0,-1,-2,1,3,8,0,0
1558440117855433,-1,-2,-2,-1,4,6,2,1
