timestamp,emg1,emg2,emg3,emg4,emg5,emg6,emg7,emg8
1558440156241215,-1,-2,-1,-6,-2,4,3,-1
1558440156241215,1,-3,-2,-8,-1,0,-5,-5
1558440156241215,-1,-1,-2,9,-3,2,0,0
1558440156241215,1,0,1,0,4,3,2,4
1558440156242212,0,-3,-4,-5,3,-4,-3,-1
1558440156242212,-2,0,-1,5,-1,4,2,0
1558440156243209,-1,-1,1,-6,0,-4,-1,-2
1558440156243209,-5,-3,-1,-7,-5,0,-3,-4
1558440156254180,-1,-1,-2,1,-7,0,-5,-4
1558440156254180,0,-2,-3,4,-5,-11,-4,-1
1558440156262158,2,1,1,-3,4,0,6,4
1558440156262158,3,0,0,-3,0,-1,0,0
1558440156269139,-2,-1,3,6,3,4,2,1
1558440156269139,-3,-2,1,-5,7,5,-2,1
1558440156284098,-2,-4,-2,-7,-9,-9,-7,-6
1558440156284098,-2,-1,-3,4,0,-7,-4,0
1558440156293076,-2,1,-1,0,0,3,5,1
1558440156293076,0,0,1,-1,0,5,2,1
1558440156299058,-1,0,0,0,0,0,2,0
1558440156299058,1,0,1,0,-4,-5,0,-3
1558440156315017,1,0,-2,-5,1,-5,-5,-3
1558440156315017,-1,0,-2,-2,4,5,1,1
1558440156321998,-1,-2,-3,3,-4,1,-6,-3
1558440156321998,-3,-3,-4,-1,0,2,-1,-4
1558440156361891,1,1,1,-10,2,4,2,2
1558440156361891,-1,0,3,10,-1,-8,-3,0
1558440156362888,-2,-2,-4,-1,-3,-9,-6,-2
1558440156362888,-1,-1,-1,-10,-1,-3,-1,-1
1558440156363885,-1,-3,-2,7,-1,8,2,-2
1558440156363885,-1,-1,-3,-2,-2,-2,0,-2
1558440156365880,-2,-2,1,-6,-4,0,-2,-2
1558440156365880,2,0,1,2,9,5,5,-1
1558440156374856,1,-1,-1,3,-9,-14,-4,-2
1558440156374856,-2,0,0,-5,1,11,0,0
1558440156380840,0,-1,-2,-4,-7,-3,-6,-5
1558440156380840,-1,0,0,9,5,-3,3,4
1558440156389816,-2,-1,-1,-3,1,-1,0,0
1558440156389816,0,-1,-1,-8,-9,-8,-5,-4
1558440156403779,1,0,0,2,-2,-9,0,1
1558440156403779,-1,-2,2,1,0,2,-2,0
1558440156411758,-2,-3,-2,-4,-4,-3,-5,-3
1558440156411758,0,-4,-4,-1,1,3,3,1
1558440156418739,-2,1,2,5,3,11,6,3
1558440156418739,-2,-1,0,-3,-5,-6,-2,-2
1558440156434696,0,1,-3,-2,0,-3,1,-1
1558440156434696,0,-1,-3,0,-3,-6,0,-1
1558440156441678,-1,-2,1,-1,0,-5,-4,-2
1558440156441678,0,-1,-2,-4,-1,2,0,-2
1558440156449655,-2,-2,0,1,-1,11,0,-2
1558440156449655,0,1,1,0,1,-1,-2,2
1558440156463618,2,1,-2,0,4,0,4,1
1558440156463618,-1,-2,-1,-2,-6,-9,-7,-1
1558440156471598,-1,-1,-1,-1,-1,3,-2,-1
1558440156471598,0,-2,-1,0,1,-3,-1,-2
1558440156478578,1,0,0,-2,0,-2,2,3
1558440156478578,-1,0,-2,-1,-3,2,-1,-1
1558440156495534,0,-1,-2,-1,1,1,2,0
1558440156495534,0,-1,0,-2,1,2,-1,-1
1558440156501516,-1,-2,-3,0,-4,-4,-4,-4
1558440156501516,0,-1,0,0,0,5,0,-1
1558440156517474,-3,-2,-1,-2,0,-3,-1,-1
1558440156517474,-2,1,0,0,0,1,1,1
1558440156523459,-2,-2,0,0,-6,-5,-4,-1
1558440156523459,-1,-2,-3,-2,-3,2,-1,-2
1558440156532435,1,0,0,-3,-8,-4,-4,-2
1558440156532435,-3,-3,-3,-3,-3,-6,-4,-2
1558440156538418,1,0,2,0,12,20,11,2
1558440156538418,-2,-1,0,-1,2,3,1,-1
1558440156555373,0,3,3,2,4,-6,-1,2
1558440156555373,0,0,-2,-1,-5,-13,0,-2
1558440156561357,-4,-3,-3,-4,0,1,-5,-5
1558440156561357,-1,1,-1,-1,-1,0,1,2
1558440156577315,1,-5,-3,-3,-4,-3,-5,-3
1558440156577315,-2,0,1,-2,3,4,-2,-1
1558440156583299,-1,-1,0,2,-3,-3,-5,-2
1558440156583299,-2,0,1,2,3,5,2,-2
1558440156592281,-2,-2,-4,-2,-4,-9,-5,-2
1558440156592281,-1,-4,2,-4,-9,-4,-7,-4
1558440156598260,-2,-4,-6,-3,0,1,3,-1
1558440156598260,-1,-1,-2,-2,-1,-3,-1,2
1558440156615214,2,2,3,2,5,3,6,3
1558440156615214,0,0,1,0,0,9,1,-2
1558440156621197,-3,-2,-4,-4,-10,-13,-6,-3
1558440156621197,-4,-2,-1,-4,-13,-6,-7,-5
1558440156637155,-2,-2,-3,1,3,5,3,-1
1558440156637155,1,1,-1,1,5,-6,2,1
1558440156644136,0,1,1,0,1,-4,-3,-3
1558440156644136,0,-2,-2,-2,-4,-6,-1,-2
1558440156652114,-1,-1,0,1,2,8,-1,1
1558440156652114,-3,-2,-4,-3,-6,1,-3,-2
1558440156666078,-1,1,1,1,4,5,0,0
1558440156666078,-1,0,3,4,6,-1,4,2
1558440156675055,-3,-5,-5,-4,-6,0,-2,-2
1558440156675055,-3,-2,-2,-2,-2,-2,0,1
1558440156681037,-3,-2,-4,-3,-8,-2,-7,-5
1558440156681037,1,1,-2,-2,-2,0,-3,-4
1558440156703975,2,1,4,1,4,-3,7,1
1558440156703975,0,-1,-2,-2,1,-6,-3,-2
1558440156704973,-1,0,-2,1,-2,6,4,2
1558440156704973,-2,-2,-2,2,2,6,4,-1
1558440156712952,-2,-1,-2,-2,0,-5,-2,0
1558440156712952,0,0,0,1,-4,0,2,-3
1558440156725924,1,-2,0,-3,0,-4,-1,-1
1558440156725924,-3,-2,-5,-3,-7,-7,-8,-7
1558440156734893,-1,4,3,3,9,15,8,6
1558440156734893,1,1,2,-2,2,-9,0,1
1558440156740877,-1,-1,1,-2,-4,-1,-3,-4
1558440156740877,-2,-2,-3,-1,-3,-2,-1,-2
1558440156757831,0,-3,-1,0,-7,2,0,-4
1558440156757831,0,0,-2,-2,4,1,-1,-1
1558440156763816,0,-1,-3,-1,3,3,1,1
1558440156763816,-2,-2,-3,-1,-3,-10,-5,-2
1558440156772792,-4,-2,-2,-1,-4,-6,-5,-4
1558440156772792,-1,0,0,2,3,9,9,3
1558440156785757,-2,-2,-3,-2,-7,-4,-5,-3
1558440156785757,0,0,1,0,5,0,0,2
1558440156794739,1,0,0,-2,4,-14,-3,-1
1558440156794739,1,-1,-1,-1,0,3,-2,-2
1558440156801714,-2,-2,-3,-2,-1,-3,0,-2
1558440156801714,-1,-3,2,-3,-4,0,-7,-3
1558440156824653,-1,-1,-2,-2,-6,3,-4,-2
1558440156824653,1,2,1,1,3,-5,2,2
1558440156824653,-1,-2,-1,-5,0,5,0,0
1558440156824653,1,1,2,0,3,3,7,3
1558440156832633,0,0,-1,0,-2,-13,-5,0
1558440156832633,-4,-2,-3,0,-6,2,-6,-3
1558440156846596,-1,0,2,0,7,6,7,5
1558440156846596,-2,-1,-3,-1,-3,-2,-2,-4
1558440156855571,-1,-2,-1,-1,-5,-3,-4,-6
1558440156855571,0,0,0,0,3,10,5,3
1558440156861554,1,-1,1,-1,1,-6,-1,0
1558440156861554,0,-3,-2,0,-3,0,-3,0
1558440156877512,-1,2,0,-2,-4,-7,-3,0
1558440156877512,-3,-3,-4,-3,-4,-2,-3,-4
1558440156883495,-5,-1,-2,3,1,5,2,-4
1558440156883495,-1,1,-1,0,2,3,4,1
1558440156892471,0,-1,1,-5,-4,-10,-6,-1
1558440156892471,-4,-5,-4,-3,-10,-9,-10,-5
1558440156906434,0,1,1,0,0,0,-2,1
1558440156906434,1,3,2,2,14,6,10,6
1558440156915410,-1,-3,-2,-3,-6,2,1,-1
1558440156915410,-1,1,0,-1,2,7,4,0
1558440156921395,-1,-3,-4,-3,-9,-12,-8,-4
1558440156921395,0,-2,-1,-5,-13,-19,-10,-5
1558440156937351,0,0,-2,3,12,10,5,2
1558440156937351,-2,-4,0,-3,-1,-6,2,-2
1558440156943336,-3,-1,0,-1,-1,2,-1,-2
1558440156943336,1,0,2,-1,2,-3,-3,-1
1558440156952311,0,0,-3,1,0,-2,-2,-2
1558440156952311,-3,-3,-7,-7,-9,-6,-6,-5
1558440156966274,1,-1,0,-1,0,-2,3,-1
1558440156966274,0,-1,0,1,2,2,6,2
1558440156975252,-1,-1,2,-1,1,-2,-3,0
1558440156975252,1,-1,-1,0,0,-4,-5,-1
1558440156981234,1,3,0,1,0,1,2,1
1558440156981234,-2,-3,-4,-4,-1,0,-2,-2
1558440156997193,1,-1,-1,0,-7,-3,-6,-2
1558440156997193,-1,1,2,0,8,3,3,5
1558440157003177,-2,-2,-1,0,-1,-12,-7,-2
1558440157003177,-1,-1,-4,0,-4,5,0,-1
1558440157012152,-3,-2,-4,-2,2,-1,-1,-4
1558440157012152,-1,0,1,2,1,4,0,0
1558440157026116,-1,-1,0,-3,-4,-2,-4,-3
1558440157026116,-1,-1,0,-1,3,5,-1,-1
1558440157035090,-1,-1,-2,0,-6,-10,-1,2
1558440157035090,0,0,1,-1,1,-6,2,-1
1558440157041074,0,1,1,0,0,-1,0,-1
1558440157041074,-4,-1,-4,-3,-6,-5,-6,-4
1558440157058029,-2,-1,-1,0,3,14,6,-1
1558440157058029,0,-1,1,0,0,4,-1,-1
1558440157064013,0,0,0,0,0,-4,1,3
1558440157064013,1,-2,-3,-1,-1,1,-2,-2
1558440157072989,-2,-3,-5,-5,-3,-6,-4,-4
1558440157072989,0,-1,0,4,3,-6,3,0
1558440157085955,1,0,-1,0,3,0,-1,0
1558440157085955,-4,-3,-6,-15,-5,-2,-5,-2
1558440157094930,1,0,1,-1,1,7,5,2
1558440157094930,-1,-3,-1,0,2,2,-3,-1
1558440157100915,-2,-3,0,-1,-5,-2,-2,-3
1558440157100915,-1,-1,1,0,-2,-11,-3,0
1558440157117870,-2,-2,-2,-1,-2,5,-2,-4
1558440157117870,0,0,0,3,5,2,-1,4
1558440157123853,0,-1,-3,-3,0,5,1,-1
1558440157123853,-1,-1,1,0,-4,-1,3,2
1558440157132829,-2,-1,1,2,7,8,2,0
1558440157132829,-3,0,-2,-3,-8,-2,-5,-3
1558440157145794,-1,0,2,-1,2,-1,5,3
1558440157145794,0,0,-2,0,-1,0,-4,-3
1558440157154777,-2,-1,-3,-4,-5,-6,-3,-4
1558440157154777,1,-3,3,-2,-2,-1,2,0
1558440157160776,0,-1,-2,-2,0,1,-2,1
1558440157160776,-1,-1,0,2,-3,0,-1,-2
1558440157177708,-1,0,4,-2,-1,-8,-4,-2
1558440157177708,-3,0,-6,-3,-5,4,-3,-5
1558440157183698,-3,-1,-1,-2,-4,-6,-3,-4
1558440157183698,1,1,0,4,7,7,5,2
1558440157192674,0,-1,-3,0,0,-7,-5,0
1558440157192674,0,-1,0,-3,0,-1,1,3
1558440157206635,-1,-4,-5,0,0,0,0,0
1558440157206635,-1,0,-2,-3,-4,1,-6,-3
1558440157215608,0,-1,-2,-2,-6,-9,-3,-2
1558440157215608,-2,0,-1,-1,-2,-2,0,-2
1558440157221596,-2,0,-3,-1,-5,-9,-5,-4
1558440157221596,-1,-4,1,-2,5,0,-1,2
1558440157237551,0,-2,-3,0,-3,1,3,2
1558440157237551,0,0,-2,-2,-2,-1,-2,-2
1558440157243535,0,0,3,2,-2,2,-1,-1
1558440157243535,0,0,-2,-3,1,-2,1,0
1558440157258493,-1,0,-2,-3,-4,-5,-7,-3
1558440157258493,0,-2,2,2,2,7,2,0
1558440157266471,-1,-2,-6,-10,-4,3,-4,-2
1558440157266471,-1,-4,-1,2,-5,1,2,-3
1558440157275447,0,-2,0,-1,-1,-7,-3,-2
1558440157275447,-4,0,-5,-3,3,2,1,-2
1558440157281432,1,-1,2,2,-1,2,0,0
1558440157281432,1,0,1,-1,-7,-17,-5,0
1558440157297394,-1,-2,0,-3,1,8,4,-2
1558440157297394,-1,-1,0,0,-1,-3,-2,0
1558440157303379,-1,-1,-1,0,1,3,4,0
1558440157303379,-2,0,-4,-5,-5,0,-3,-2
1558440157312352,-2,0,-1,0,-2,4,-2,0
1558440157312352,1,0,1,-1,-6,-18,-6,-2
1558440157326315,-1,1,0,0,3,4,2,1
1558440157326315,1,-3,0,1,-2,-7,-3,-1
1558440157335292,-2,-1,0,-1,0,2,3,-1
1558440157335292,1,-2,-2,-1,4,10,1,0
1558440157349251,-1,-2,-2,-2,-3,-12,-6,-1
1558440157349251,-3,-2,-1,1,-3,-1,-2,-3
1558440157357235,0,-2,-1,-1,1,7,0,-3
1558440157357235,-2,-3,-3,-5,-2,-8,-6,-3
1558440157372196,-1,-1,-1,0,-2,2,4,0
1558440157372196,-1,1,0,0,5,2,1,0
1558440157374186,-1,1,-2,1,-3,-7,-4,0
1558440157374186,-1,-1,3,0,1,5,1,-1
1558440157386159,-1,-2,-4,-1,-4,2,-1,-3
1558440157386159,0,0,3,1,1,1,3,1
1558440157395133,-4,-3,-3,0,0,5,-1,-3
1558440157395133,-1,0,-2,3,1,-1,-1,0
1558440157409093,-1,1,-3,-5,2,0,0,0
1558440157409093,-1,1,-1,0,-5,-14,-2,1
1558440157418077,1,-2,-4,1,5,9,0,1
1558440157418077,-2,-1,-4,-8,-9,-11,-6,-2
1558440157433072,1,-3,0,1,4,7,3,2
1558440157433072,-4,-4,-1,-2,-10,-2,-6,-4
1558440157434027,0,0,3,1,2,-3,-1,2
1558440157434027,0,1,-1,-8,-3,-5,2,0
1558440157446034,-2,-3,0,-1,1,-4,-3,-1
1558440157446034,-1,-1,-2,-1,3,3,-1,-2
1558440157454974,-4,-2,1,-2,-8,-1,-3,-5
1558440157454974,-1,-3,-2,1,3,13,6,-2
1558440157468941,-1,-2,-4,-3,-3,-14,-6,0
1558440157468941,1,1,1,1,-2,5,0,0
1558440157477909,0,2,0,0,3,2,5,0
1558440157477909,-2,-2,-3,1,0,3,-2,-2
1558440157492869,-1,1,3,1,4,3,2,1
1558440157492869,-2,-3,-4,-2,3,-1,-3,-2
1558440157493865,-1,-3,-3,-2,-2,0,-1,0
1558440157493865,1,0,-1,0,-9,-10,-5,0
1558440157506832,0,-1,1,3,4,-2,2,0
1558440157506832,-3,-2,-2,-6,-6,0,-1,1
1558440157514809,1,3,2,-2,4,0,3,0
1558440157514809,-2,-4,-3,0,-1,-4,-8,-5
1558440157528932,-2,-2,1,1,-4,2,0,-1
1558440157528932,1,-1,-3,-1,5,1,2,0
1558440157537746,-1,-1,-2,0,-3,-7,-2,-2
1558440157537746,0,-1,0,1,-3,0,-1,0
1558440157552902,1,0,2,0,0,-5,1,1
1558440157552902,0,0,0,-1,2,-1,0,-1
1558440157553917,-3,-1,-4,-2,-7,-2,-4,-2
1558440157553917,0,2,1,0,3,1,3,1
1558440157566857,-1,2,0,1,7,5,0,1
1558440157566857,-2,0,-3,0,-2,-4,-1,0
1558440157575664,0,-3,0,-4,-6,-9,-7,-3
1558440157575664,0,-2,0,-1,-2,6,4,-1
1558440157588805,-1,-1,-3,-3,-4,-4,-8,-5
1558440157588805,-1,0,1,0,3,7,2,1
1558440157597587,1,-2,-1,-1,7,-3,4,2
1558440157597587,-1,-1,-1,0,-8,-11,-5,1
1558440157612549,-1,-2,-2,-4,-7,-7,-7,-5
1558440157612549,0,-1,1,2,4,10,3,-3
1558440157618533,1,0,-1,-2,-6,-4,-1,0
1558440157618533,-2,-2,-1,1,4,2,0,-2
1558440157626508,-2,-1,-2,-3,-1,3,1,-1
1558440157626508,-1,-1,-2,-3,-6,-12,-8,-4
1558440157635484,-2,-2,-2,1,5,6,2,-2
1558440157635484,-2,1,-2,-2,-4,-7,-3,-2
1558440157648449,-3,-1,-5,-2,-8,0,-1,-3
1558440157648449,0,-1,0,1,1,-3,-1,-2
1558440157657425,0,0,-1,1,1,3,0,-1
1558440157657425,0,-3,0,-3,1,2,-1,1
1558440157672424,-1,1,2,2,7,6,4,3
1558440157672424,-2,-1,-3,-4,-6,-3,-5,1
1558440157674381,1,1,1,1,4,3,6,4
1558440157674381,-1,-1,0,1,9,-3,-3,1
1558440157686347,-1,-3,-1,1,-10,-3,-3,-3
1558440157686347,0,-3,-5,-7,-3,6,-1,-3
1558440157701699,-2,-3,-5,-6,-14,-17,-12,-6
1558440157701699,0,-1,-1,1,3,6,4,1
1558440157708291,1,2,2,1,1,-12,2,1
1558440157708291,-2,-1,0,0,2,2,-1,-1
1558440157717539,1,-1,1,0,-1,-5,2,-1
1558440157717539,-4,-3,-2,-4,-8,4,-2,-6
1558440157733227,-1,0,-3,-2,0,-12,-9,-2
1558440157733227,0,1,0,3,6,10,9,3
1558440157734224,1,-2,1,1,3,5,1,2
1558440157734224,2,1,3,4,-1,-6,-2,2
1558440157746481,1,-4,-1,0,-2,9,2,-2
1558440157746481,-2,-3,-4,-5,-4,-3,-4,-3
1558440157755270,-2,-1,2,0,3,4,-1,-1
1558440157755270,-2,0,-5,-2,-5,1,-1,-2
1558440157769345,-3,0,1,-4,-4,-13,-2,0
1558440157769345,-1,0,-1,1,1,-6,1,0
1558440157778104,-1,-1,-1,-2,2,8,5,-1
1558440157778104,1,-1,0,-1,-7,-7,-7,-4
1558440157793064,-1,-2,-5,-3,5,10,1,0
1558440157793064,-1,-1,1,-2,-5,-1,-3,-1
1558440157794065,-1,-3,-3,-2,-5,-8,-7,-3
1558440157794065,-1,-1,-2,2,5,8,6,0
1558440157807030,-1,-1,-1,-3,-1,-1,-2,-2
1558440157807030,0,2,3,2,2,-6,2,3
1558440157815145,-1,1,-1,1,-3,-2,-2,-2
1558440157815145,-2,-2,-4,-4,-3,4,-4,-2
1558440157829212,2,-1,-1,0,0,4,0,0
1558440157829212,-2,-3,-4,-2,2,-5,-4,-3
1558440157837958,-2,0,2,5,-4,0,2,-1
1558440157837958,-2,-3,-1,-3,2,-9,-3,0
1558440157853203,-3,-1,-7,-7,-8,-14,-7,-4
1558440157853203,-2,-2,3,1,-6,1,-3,-3
1558440157853905,-1,0,2,0,7,6,4,2
1558440157853905,0,0,-2,-2,-2,0,1,0
1558440157865921,-2,0,-2,1,-2,-1,-3,-1
1558440157865921,1,-1,-1,0,1,10,3,0
1558440157874847,-3,-3,-3,-4,-5,-6,-7,-2
1558440157874847,1,-1,-2,-1,0,-3,0,1
1558440157888831,0,-1,0,2,-1,1,-2,0
1558440157888831,0,1,0,-1,-3,-13,-2,1
1558440157897785,-1,-1,-1,-4,0,2,0,-2
1558440157897785,-3,-2,0,1,1,4,2,-2
1558440157911747,0,-1,0,0,3,-1,7,4
1558440157911747,-3,-3,-2,-3,-6,-6,-6,-4
1558440157918727,-1,-2,-3,2,-7,-7,-5,1
1558440157918727,1,-1,0,-2,-4,4,2,-1
1558440157925708,-1,-1,2,-1,-5,2,-5,-4
1558440157925708,-1,0,6,6,15,7,7,3
1558440157934721,0,2,-2,2,8,2,-2,0
1558440157934721,-4,0,-5,-4,-5,-3,-4,-3
1558440157948699,0,-1,-2,-1,-3,5,2,-1
1558440157948699,0,-3,-7,-9,-11,-4,-3,-1
1558440157957624,0,1,1,-1,-2,-5,0,0
1558440157957624,1,2,3,2,9,-6,-2,3
1558440157972584,1,-2,0,2,4,2,3,1
1558440157972584,-1,-1,-2,1,0,2,0,-2
1558440157978593,-2,-4,-5,-9,-10,-3,-5,-5
1558440157978593,2,1,4,5,4,6,3,0
1558440157986573,1,-1,-7,-9,2,-3,-1,-1
1558440157986573,-2,-3,-4,-3,-5,2,-2,-4
1558440157995559,0,-1,-3,-3,1,-4,2,1
1558440157995559,0,1,1,5,0,-7,-1,1
1558440158008557,-2,-2,2,2,2,8,-1,-2
1558440158008557,-3,-1,-2,-1,-9,0,-2,-1
1558440158017461,-2,-2,-2,-2,-4,-6,-5,-3
1558440158017461,-2,-1,-2,-3,-2,0,0,-2
1558440158032421,-2,-4,-1,-1,-4,3,0,-4
1558440158032421,2,0,0,1,2,-7,1,2
1558440158039715,0,0,0,5,-2,-2,-1,-2
1558440158039715,-2,-2,-3,-5,-4,-4,-3,-5
1558440158046869,-1,1,0,0,-2,-12,-2,0
1558440158046869,-1,0,-2,-2,0,4,-2,0
1558440158055361,-1,-1,-1,-1,2,4,1,1
1558440158055361,-4,-2,0,-3,-2,-1,-3,-2
1558440158069673,-2,-4,-2,-1,-4,-1,-6,-2
1558440158069673,1,0,1,0,2,-8,-3,-1
1558440158077707,-2,0,-1,-3,1,1,2,0
1558440158077707,-3,-4,-3,-2,-7,4,-3,-4
1558440158092262,-2,-2,-3,-1,-8,-11,-7,-3
1558440158092262,2,1,4,2,4,-2,4,5
1558440158098246,0,-1,0,-3,-5,-6,-4,-3
1558440158098246,-1,-2,-3,-2,-2,2,0,-3
1558440158115201,-3,0,-1,0,1,3,1,1
1558440158115201,1,1,-2,0,-2,-2,-3,-2
1558440158116198,0,-1,-1,0,-2,0,1,-2
1558440158116198,0,-3,-4,-1,-2,-5,1,1
1558440158129164,-2,1,0,0,1,-2,1,0
1558440158129164,-1,-1,-3,-1,6,18,4,-2
1558440158137537,-2,-3,1,0,-2,-4,-2,-1
1558440158137537,1,1,2,-1,4,-5,-3,2
1558440158152494,1,-1,1,-1,0,5,2,-3
1558440158152494,-3,-3,0,0,-8,-5,-1,-1
1558440158159090,-2,-4,-2,-2,2,6,-3,-2
1558440158159090,-2,0,-2,-2,-5,-1,4,0
1558440158175041,2,0,0,1,7,1,0,1
1558440158175041,-1,-2,-2,-4,-5,-9,-5,-4
1558440158176039,-1,-1,-3,-2,-7,2,-2,-3
1558440158176039,-2,0,0,-1,0,2,-4,0
1558440158189364,0,1,3,9,7,1,4,2
1558440158189364,0,-2,-3,-3,-2,-8,-1,0
1558440158197981,-2,-2,-4,-2,-1,0,-3,-2
1558440158197981,-1,-3,-4,-3,-3,2,1,-3
1558440158212240,1,0,1,-1,5,1,2,-1
1558440158212240,-2,-1,-1,0,2,-3,-1,1
1558440158219222,-1,1,1,-1,2,5,1,0
1558440158219222,-2,-3,-3,0,-1,-1,-7,-3
1558440158235879,-3,-2,-4,-4,-4,-5,-5,-3
1558440158235879,-1,-2,-3,0,-4,1,-2,-1
1558440158236879,-1,0,-1,1,0,-9,-1,1
1558440158236879,0,0,1,0,-2,-9,0,1
1558440158249036,-1,-3,-4,-3,-7,3,-4,-4
1558440158249036,-1,1,2,1,-2,2,-2,0
1558440158257821,-1,-1,0,-1,1,-2,2,0
1558440158257821,-2,-3,0,-2,0,2,1,-1
1558440158272017,2,1,2,1,-5,-12,-2,0
1558440158272017,-1,-2,1,0,5,7,2,-1
1558440158279003,-2,0,-2,-1,-8,2,-3,-4
1558440158279003,1,2,1,0,-5,-11,-4,-1
1558440158294725,-2,0,-1,0,0,4,-1,0
1558440158294725,-3,-3,-5,-10,-14,-11,-11,-8
1558440158296718,-3,-5,-2,-1,-2,3,0,-2
1558440158296718,2,2,2,6,18,9,11,6
1558440158309711,0,0,0,2,8,7,8,2
1558440158309711,0,0,2,3,4,2,3,1
1558440158317661,1,-1,-2,-1,2,3,2,1
1558440158317661,-4,-2,-3,-2,-8,1,-3,-5
1558440158332113,-2,-2,-2,-2,-5,-12,-5,0
1558440158332113,-2,1,-1,0,0,0,-1,-4
1558440158339106,-3,-1,-1,1,1,5,-4,-3
1558440158339106,-1,0,-3,-5,-7,-1,-7,-3
1558440158355962,0,-1,2,0,1,3,3,2
1558440158355962,0,-1,-2,-1,0,-3,-1,-1
1558440158356560,-1,-2,1,-2,-5,-9,-4,-2
1558440158356560,-1,0,-3,-3,0,2,2,-1
1558440158368972,-1,0,-1,-1,1,6,0,-2
1558440158368972,-3,-3,-4,-1,-5,-4,-6,-2
1558440158377538,4,1,1,-1,10,6,8,5
1558440158377538,1,-1,0,-2,-11,-16,-3,-2
1558440158391463,-1,-2,-1,1,2,7,4,0
1558440158391463,-1,-2,-2,-2,-1,2,0,-1
1558440158398474,-3,-1,-4,-2,-6,-3,-4,0
1558440158398474,-1,-2,0,-1,-4,-12,-7,-2
1558440158415602,-3,-1,-1,2,-4,-7,-5,-4
1558440158415602,-2,-1,-1,-5,5,4,6,2
1558440158416397,-1,0,-2,2,-3,-1,-1,-1
1558440158416397,0,-1,-2,-3,6,7,3,3
1558440158438373,0,-2,-3,-1,-6,-1,-4,-1
1558440158438373,0,-3,0,0,-1,-2,-1,-3
1558440158439345,-3,1,-1,-1,-3,-4,-2,-3
1558440158439345,-1,0,0,3,2,7,2,-2
1558440158452490,-1,-1,-2,-2,1,1,-2,-1
1558440158452490,0,0,0,0,-2,0,1,-2
1558440158458286,-2,-3,-1,1,0,0,0,-4
1558440158458286,1,0,-4,-2,-8,-13,-5,-1
1558440158475242,-1,-2,-7,-13,-1,-6,-1,0
1558440158475242,1,1,3,0,-4,2,4,2
1558440158476236,0,-1,-1,-2,-1,-6,-10,-4
1558440158476236,-2,-4,-1,0,-5,1,-3,-1
1558440158489203,3,2,4,5,14,15,11,6
1558440158489203,-1,0,-3,-4,-7,-11,-2,-1
1558440158497179,0,2,1,2,6,5,3,5
1558440158497179,-2,-1,-2,0,-2,5,-3,-4
1558440158511142,-1,-2,4,-3,-11,-15,-9,-2
1558440158511142,-2,-4,-7,1,6,3,-1,-1
1558440158520121,0,0,1,3,2,1,3,1
1558440158520121,1,-2,-1,2,4,5,3,1
1558440158535386,0,0,-3,-3,3,-7,0,0
1558440158535386,-4,-1,1,1,-5,2,-5,-3
1558440158536321,-1,-3,-4,-5,-10,-11,-4,-3
1558440158536321,1,0,4,0,8,-2,1,1
1558440158558016,-3,1,3,2,1,2,-4,-5
1558440158558016,-1,-2,-5,-1,-7,-6,-8,-4
1558440158559015,-1,-2,-4,-8,3,3,4,0
1558440158559015,1,2,2,2,7,6,6,1
1558440158571280,-4,-2,-4,-2,-8,-5,-4,-4
1558440158571280,-1,1,2,1,4,6,2,0
1558440158580189,0,1,1,1,-5,-5,-4,-2
1558440158580189,-1,0,0,0,2,-6,0,-1
1558440158595170,1,-1,-4,-9,-6,-2,0,1
1558440158595170,-3,-2,-1,-2,-6,1,-5,-4
1558440158596945,2,1,-1,0,2,4,5,2
1558440158596945,-1,-3,-1,0,-5,0,-1,-2
1558440158608882,-3,-3,-5,-5,-9,-9,-7,-3
1558440158608882,0,-2,1,-1,-2,-11,1,2
1558440158617862,-1,-2,-2,1,4,1,-5,-1
1558440158617862,-3,0,-1,-3,-6,-4,-4,-3
1558440158631820,-1,0,-1,1,-3,-2,1,0
1558440158631820,-1,0,-3,-1,-1,1,-4,-1
1558440158640017,-3,1,2,1,0,-1,1,0
1558440158640017,1,-1,-3,-6,1,-2,1,0
1558440158678904,-2,-4,-5,1,-6,-1,-4,-5
1558440158678904,0,1,3,2,11,5,6,4
1558440158680694,1,-2,1,0,-1,-3,-1,-1
1558440158680694,-4,-4,-2,-3,-9,-3,-6,-4
1558440158680694,1,-2,-3,-2,-5,-3,-2,-3
1558440158680694,2,3,0,3,4,6,7,3
1558440158684876,-3,-2,0,-1,-4,-3,-4,-3
1558440158684876,0,2,1,1,0,-2,1,-1
1558440158691661,-2,-3,-4,-2,-4,-6,-8,-3
1558440158691661,-1,1,1,1,4,4,6,3
1558440158699639,-1,2,3,-4,2,5,5,2
1558440158699639,-1,-1,-4,1,-1,-5,-7,-2
1558440158715832,-2,0,0,1,4,-2,2,-2
1558440158715832,-2,-3,-6,-4,-6,-4,-5,-2
1558440158716594,0,-4,-3,0,-1,-2,0,0
1558440158716594,1,2,3,1,7,7,8,4
1558440158729560,-1,2,2,-1,5,0,-1,0
1558440158729560,-2,-3,-1,-1,-3,-2,-3,-4
1558440158737537,-1,-3,-4,-5,-10,-9,-9,-6
1558440158737537,-2,-1,-4,-5,-3,-4,-1,-1
1558440158751716,0,0,2,0,-4,-2,0,2
1558440158751716,3,2,-2,0,9,2,2,1
1558440158760476,0,0,0,1,-3,2,-3,-2
1558440158760476,-2,-3,-5,-4,-6,1,-4,-6
1558440158775438,-1,0,3,6,6,0,3,-1
1558440158775438,1,0,-3,-12,-5,-4,1,-2
1558440158776433,0,0,0,-4,1,1,3,1
1558440158776433,-3,-3,-2,0,-3,-4,-4,-2
1558440158789488,-2,1,-1,-2,-1,-5,2,1
1558440158789488,-1,-3,0,2,-7,3,-2,-4
1558440158797644,-1,1,-2,2,10,10,7,0
1558440158797644,0,-1,1,-3,1,-5,-3,1
1558440158811649,-2,-3,-4,-5,-7,-2,-2,-2
1558440158811649,2,-2,2,2,4,4,1,3
1558440158826304,-2,-1,0,1,5,5,0,-1
1558440158826304,-2,0,-1,1,-5,3,-1,-2
1558440158835277,-1,-1,-1,0,1,1,-2,0
1558440158835277,-2,-2,-2,-4,1,-10,-5,-1
1558440158841271,-1,0,2,1,-3,-7,-4,-1
1558440158841271,0,-1,1,-1,-1,-1,-2,-1
1558440158848241,1,-2,-4,-6,-1,7,2,-2
1558440158848241,-3,-2,-3,-9,-12,-3,-3,-3
1558440158857217,-2,0,-1,3,0,-4,-1,-1
1558440158857217,-1,-1,0,-1,-2,-9,-3,-1
1558440158871178,0,0,-2,2,6,9,3,1
1558440158871178,-1,-1,0,2,0,-2,-2,-3
1558440158880155,-2,0,-5,-3,-2,-4,2,0
1558440158880155,-2,-2,-1,1,-2,1,-2,-3
1558440158894146,-4,-2,-3,-4,-10,-2,-8,-6
1558440158894146,0,1,0,4,3,4,6,3
1558440158909076,4,1,3,3,12,1,6,6
1558440158909076,-2,-2,-2,-1,-2,-8,1,0
1558440158910074,-1,0,2,0,2,5,2,1
1558440158910074,-5,-1,-3,-2,-9,-6,-8,-5
1558440158917090,-1,-4,-2,-3,-10,-7,-8,-2
1558440158917090,0,1,-2,-2,4,10,2,0
1558440158931018,0,2,1,2,1,-3,2,1
1558440158931018,0,1,-4,-7,-4,-5,-3,-3
1558440158939995,-2,-2,1,1,1,-1,1,-1
1558440158939995,-1,0,0,-2,5,5,1,0
1558440158955004,0,-2,-5,-2,-6,-9,-5,-4
1558440158955004,2,0,3,2,5,2,2,2
1558440158960939,-4,-2,-1,-2,-8,-1,-4,-3
1558440158960939,-2,-2,-3,-4,-6,-6,-3,-1
1558440158968916,-1,-1,0,0,-1,-7,-5,-1
1558440158968916,0,-3,0,2,1,-1,-4,-2
1558440158977927,-1,-2,-1,-1,4,0,-1,1
1558440158977927,0,-1,-1,0,4,8,8,2
1558440158990858,0,0,3,3,6,9,6,2
1558440158990858,-3,-2,-3,-1,-8,-16,-10,-2
1558440158999835,-1,-1,-1,-2,-9,-5,-6,-4
1558440158999835,-1,-2,0,1,2,-2,-4,-3
1558440159014812,-3,-2,-2,-4,-5,2,0,0
1558440159014812,-3,-4,-1,1,-1,-2,-7,-4
1558440159028758,0,1,-4,1,2,-2,3,2
1558440159028758,1,1,0,-1,6,-1,-1,1
1558440159037735,0,2,0,2,-1,2,2,0
1558440159037735,-2,-3,0,-2,-4,-5,2,1
1558440159038731,-2,1,-1,-2,1,5,-1,-3
1558440159038731,1,-2,-3,-1,-1,5,-1,-1
1558440159050698,-2,-1,-2,-2,-1,-11,-5,0
1558440159050698,-1,-2,-1,1,4,8,-1,-1
1558440159067652,-1,0,-1,-4,-1,1,2,-2
1558440159067652,-1,1,0,-3,-6,-1,-3,-3
1558440159074637,-1,-6,-2,-2,-1,-3,-1,-1
1558440159074637,0,-1,0,-2,2,0,3,1
1558440159080621,0,-2,1,-3,-3,-8,-1,0
1558440159080621,-1,-1,-1,-1,6,6,-1,0
1558440159097574,-2,0,-3,-1,-5,2,-1,-2
1558440159097574,0,1,1,1,2,-9,-2,0
1558440159098570,-1,-3,-3,-3,-15,-3,-5,-5
1558440159098570,-1,1,0,4,7,6,3,1
1558440159111536,0,-2,-2,-6,0,1,3,1
1558440159111536,2,-1,0,3,3,8,-1,0
1558440159120512,-2,-2,-4,-5,-3,-8,-8,-4
1558440159120512,-2,-3,-2,-6,-11,-9,-2,-1
1558440159134473,3,0,1,2,9,3,2,1
1558440159134473,-2,2,1,6,9,6,7,0
1558440159148437,-4,-3,-6,-7,-16,-5,-4,-2
1558440159148437,-2,-1,-4,-4,-10,-19,-9,-4
1558440159157413,-3,-2,-4,-1,6,8,2,-2
1558440159157413,-1,-2,1,-2,-9,-12,-1,0
1558440159159408,0,2,-1,2,8,4,-4,-1
1558440159159408,0,1,2,1,5,9,4,1
1558440159171375,1,-3,0,0,1,-2,-1,-2
1558440159171375,1,0,-3,-3,-5,-6,-1,-1
1558440159187333,-2,-3,-4,-3,1,9,2,-1
1558440159187333,-1,-2,2,2,0,-9,-3,0
1558440159194313,-2,-1,-1,0,0,-6,-6,-2
1558440159194313,-2,-3,-5,-6,-9,-1,2,-2
1558440159201294,3,3,2,4,10,3,6,3
1558440159201294,0,-2,-3,-2,-8,-6,-3,-1
1558440159224234,-1,0,3,2,1,-1,-1,-1
1558440159224234,-1,-2,-4,-3,0,0,-6,-2
1558440159233210,0,-2,1,2,-1,1,5,3
1558440159233210,-2,-2,-3,-1,1,4,1,-1
1558440159234207,0,0,-1,-2,-3,-5,-1,-3
1558440159234207,-1,2,-1,-3,-8,-7,-8,-5
1558440159240191,-3,-1,-3,-2,-1,3,-4,-3
1558440159240191,2,1,3,1,1,6,7,4
1558440159254153,0,0,-3,-2,1,-4,-1,0
1558440159254153,-2,-3,0,1,-1,-6,-4,-2
1558440159268116,-3,-2,-2,1,0,-2,0,0
1558440159268116,-1,-1,-1,-1,0,-1,-3,-3
1558440159277134,0,-2,0,-3,-5,1,-1,-1
1558440159277134,-2,-1,-2,1,4,3,-1,-2
1558440159284073,-1,-4,-1,-2,-3,-5,-6,-5
1558440159284073,1,-2,-1,-3,-5,3,0,2
1558440159291056,2,2,3,0,5,-1,5,2
1558440159291056,-1,-1,-2,-2,0,-4,-3,0
1558440159308010,0,-1,2,0,-3,1,-3,-4
1558440159308010,-3,-1,-1,-1,0,3,-5,-4
1558440159313995,-1,1,1,0,5,13,10,2
1558440159313995,1,-1,-1,-1,1,-10,0,-1
1558440159320976,-3,0,-1,-2,-4,2,-4,0
1558440159320976,-1,0,1,2,-5,-11,2,2
1558440159344911,-3,-4,-3,-2,-5,-13,-8,-4
1558440159344911,-1,1,0,-1,-5,10,1,-1
1558440159346906,1,2,2,5,14,10,6,2
1558440159346906,-4,-2,-5,-6,-5,-4,-3,-5
1558440159350894,2,-2,-3,-2,-13,-12,-9,-3
1558440159350894,1,-2,3,3,13,11,6,4
1558440159359870,0,-1,0,-2,0,-4,0,-1
1558440159359870,-2,0,-2,-1,-3,0,1,-1
1558440159373833,-2,2,1,2,-4,0,0,-2
1558440159373833,-2,-4,-4,-6,-8,-5,-4,-5
1558440159388794,-2,-1,-1,0,-4,1,2,0
1558440159388794,3,-1,1,1,9,2,5,1
1558440159397769,-3,-1,-2,-2,2,1,-3,0
1558440159397769,-3,-2,-3,-4,-6,-4,-5,-2
1558440159398768,0,0,1,-1,-3,1,-2,0
1558440159398768,2,-1,-2,-2,4,-5,0,1
1558440159410762,-2,-2,-1,-4,-15,-4,-5,-2
1558440159410762,1,1,2,2,15,15,5,4
1558440159419710,-1,0,-3,-3,-7,-5,-4,-1
1558440159419710,0,-1,-1,-3,-1,1,-5,-2
1558440159434705,-1,-2,-1,-1,-5,-5,-3,-4
1558440159434705,-1,-1,-4,-2,-1,-8,-5,-2
1558440159440654,0,-3,0,0,-3,-2,1,-1
1558440159440654,1,0,3,5,10,11,5,3
1558440159457610,-4,0,-3,-6,-4,-5,-3,-2
1558440159457610,-2,1,0,0,-1,0,1,0
1558440159458608,-1,0,-3,-5,-10,-11,-4,-4
1558440159458608,-1,-1,-2,1,-2,0,-2,-2
1558440159479551,0,-1,1,4,9,16,8,2
1558440159479551,2,0,0,-1,3,-6,3,0
1558440159481549,-2,-1,-1,-3,-7,-9,-2,-2
1558440159481549,-2,-2,-1,-1,6,8,2,-1
1558440159494545,1,-2,1,0,0,-2,-2,0
1558440159494545,-2,-1,-2,-3,-5,1,-5,-1
1558440159501492,-1,-2,1,0,1,-3,-2,-1
1558440159501492,-3,-1,-2,-3,-8,-1,-5,-2
1558440159517476,-1,-1,-3,-3,0,0,-4,-2
1558440159517476,0,-1,1,3,-6,-11,-2,-2
1558440159519449,3,1,3,3,15,3,3,4
1558440159519449,-2,0,-2,-6,-2,3,4,-1
1558440159531412,-4,-2,0,0,1,0,-1,0
1558440159531412,1,-3,-3,-4,-9,-1,-2,-3
1558440159540423,-3,-4,-2,4,1,-7,-4,-3
1558440159540423,-4,-1,-1,0,-7,-1,-3,-4
1558440159554350,0,-1,-3,-4,-10,-7,2,0
1558440159554350,-2,1,5,4,14,12,4,2
1558440159561332,-1,1,-1,-1,0,2,-1,2
1558440159561332,1,-2,-2,-2,-7,-7,-4,-2
1558440159577327,-1,-3,-4,-2,-5,-12,-6,-3
1558440159577327,-4,-2,-5,-6,-8,-1,-4,-5
1558440159579318,1,-1,-1,-1,-3,-4,0,1
1558440159579318,0,0,3,4,9,-1,1,3
1558440159591253,-3,-3,-1,-2,-1,3,-4,-3
1558440159591253,2,0,2,2,5,1,2,1
1558440159600228,0,1,-2,-3,-1,-2,-2,-2
1558440159600228,0,-3,-5,-3,-6,-3,-5,-4
1558440159614217,0,-1,1,0,7,7,4,2
1558440159614217,-2,-4,-3,-2,-4,-3,-3,0
1558440159621171,-3,-4,-2,-4,-11,-2,-3,-3
1558440159621171,0,-2,-1,-4,-5,-3,-1,-2
1558440159637168,2,2,1,1,6,0,-1,-2
1558440159637168,-2,0,-1,1,-6,4,1,-2
1558440159639162,1,-2,-1,-2,7,5,0,0
1558440159639162,-3,-1,-3,-7,-7,-10,-5,-5
1558440159651127,-3,-1,-1,2,-1,1,3,1
1558440159651127,0,0,1,0,3,-2,1,2
1558440159660068,-1,-2,-1,-5,-6,-11,-1,0
1558440159660068,0,-1,-1,-1,5,2,2,-2
1558440159674030,1,0,1,2,6,10,6,1
1558440159674030,-2,-1,-2,-5,-6,-4,-4,-5
1558440159681050,-3,-3,-1,-1,-6,-4,-5,-4
1558440159681050,0,1,-1,-1,-3,-5,-3,1
1558440159697000,-1,-3,-5,-4,-1,4,-3,-1
1558440159697000,0,-2,0,1,2,-5,0,0
1558440159698964,-3,0,-3,1,4,-3,-2,-1
1558440159698964,-3,0,0,-1,-5,-3,-3,-3
1558440159710931,1,2,-1,0,0,4,5,1
1558440159710931,0,-3,-1,-1,-3,5,-3,-2
1558440159719908,0,2,1,3,4,1,6,3
1558440159719908,1,0,-1,-2,-1,-11,-6,-1
1558440159733871,-1,0,2,0,-6,-7,-4,-1
1558440159733871,0,-2,-5,-3,-2,-1,-2,-2
1558440159740853,-2,-1,-2,-5,-10,-1,-3,-4
1558440159740853,-2,0,1,4,12,5,8,4
1558440159757806,-1,1,-2,-2,0,-10,1,1
1558440159757806,-1,-1,1,1,1,3,0,0
1558440159758806,-1,-1,-2,-1,-2,0,-3,-2
1558440159758806,-1,-2,-2,-3,-6,0,-8,-3
1558440159772073,-1,-1,-4,-4,-7,-12,-5,0
1558440159772073,-1,-1,-2,-3,-2,-2,-3,1
1558440159780253,1,0,-1,0,4,1,0,-1
1558440159780253,-2,-4,0,0,-5,0,-3,-3
1558440159795187,-1,-1,0,-2,-6,-12,-4,-3
1558440159795187,-1,1,-1,0,1,-2,5,2
1558440159801889,-2,-2,-3,-1,4,8,-1,-3
1558440159801889,-1,-1,-1,-1,-4,-6,0,0
1558440159817647,-3,-1,1,1,1,3,-4,-3
1558440159817647,-1,-1,1,2,5,-2,6,0
1558440159824628,0,0,-2,2,-4,-4,-3,-1
1558440159824628,3,1,-2,-2,5,5,5,3
1558440159831619,-2,-3,-2,-1,-9,1,-7,-7
1558440159831619,-1,-2,3,1,3,-3,-2,-1
1558440159839589,-1,0,-2,-7,-8,-2,3,3
1558440159839589,0,-3,-2,-1,-1,-1,-1,-3
1558440159854547,-2,-1,-2,0,0,2,-1,1
1558440159854547,-1,-1,-1,-3,-4,-3,-6,-3
1558440159861531,2,-1,0,1,7,8,6,2
1558440159861531,-5,-1,-3,-1,-1,-4,-4,-3
1558440159876547,0,-1,-2,0,-2,-1,1,-1
1558440159876547,-3,0,-1,-1,-5,1,-1,-2
1558440159883470,0,-1,-2,0,-3,-3,-4,-3
1558440159883470,-1,-2,0,-1,0,4,3,1
1558440159891449,0,0,0,1,1,-10,-1,2
1558440159891449,-2,-1,-3,-2,-3,5,-3,-3
1558440159900424,0,-2,-3,0,0,3,-2,-2
1558440159900424,2,1,3,6,11,-1,7,6
1558440159914416,-2,-2,-2,-3,-1,2,-3,-3
1558440159914416,-1,-2,0,-4,-6,-8,-2,-3
1558440159921403,-2,-2,-1,-2,-10,-4,-4,-2
1558440159921403,-2,0,-2,0,2,1,-1,-1
1558440159937327,0,-1,-2,-3,0,-3,-3,-1
1558440159937327,-1,-1,-2,3,-3,-6,-2,0
1558440159943310,-3,-3,-3,-3,-2,4,-1,-4
1558440159943310,3,-1,2,-1,4,7,5,1
1558440159960266,1,-1,-1,-1,0,-2,-1,0
1558440159960266,-1,0,-1,-4,-1,1,-1,-3
1558440159961262,-1,-1,0,-2,-3,-1,1,-1
1558440159961262,-3,-3,-2,-1,-9,-9,-4,-3
1558440159974228,0,1,0,4,9,6,4,4
1558440159974228,-1,-3,0,-2,-4,-8,-4,1
1558440159981209,-2,0,1,1,5,3,2,3
1558440159981209,-1,-1,-1,0,-5,-10,-8,-2
1558440159997192,-4,-3,-6,-3,0,7,0,-2
1558440159997192,1,1,-4,-6,-9,-12,-1,1
1558440160003151,0,0,2,3,10,7,1,1
1558440160003151,-5,-3,-1,0,-7,-1,-3,-2
1558440160020106,0,-2,0,-1,-3,3,0,-2
1558440160020106,-2,-2,-3,-2,-6,-3,-2,-3
1558440160021103,0,2,4,2,12,6,8,2
1558440160021103,0,-1,-3,-3,-2,-2,-2,-3
1558440160034068,-1,-1,-2,-3,-5,-6,-2,-1
1558440160034068,0,-2,-1,1,6,13,4,-1
1558440160041051,-2,-2,-3,-2,-5,-7,-3,-2
1558440160041051,0,0,-2,-1,2,4,2,-1
1558440160057006,-2,-2,1,-2,-7,-8,-2,-1
1558440160057006,0,-1,0,-1,4,4,-1,1
1558440160064002,-1,-2,-2,-1,-8,-21,-8,-1
1558440160064002,0,1,0,3,4,11,4,0
1558440160079977,-2,-3,-3,-3,3,7,-2,-2
1558440160079977,1,1,1,1,0,4,2,0
1558440160080941,-1,-1,-2,-1,2,-1,-2,-2
1558440160080941,-2,-2,-2,-2,-6,-4,-5,-2
1558440160093908,0,2,1,-1,-2,-1,2,1
1558440160093908,0,0,2,3,10,11,5,2
1558440160108897,0,-3,-2,-4,-3,-5,1,0
1558440160108897,0,-2,0,-3,-7,-12,-6,-2
1558440160116847,-2,-2,-1,-1,0,-4,-2,-2
1558440160116847,0,-2,-4,-2,-6,-4,0,-3
1558440160123829,-3,-2,-2,0,-5,-6,-7,-2
1558440160123829,-2,0,1,0,6,17,5,2
1558440160139820,-1,0,0,-2,-4,-5,3,1
1558440160139820,-1,0,0,1,0,-18,-7,0
1558440160141782,-1,-1,-5,-10,-9,-4,-6,-4
1558440160141782,-1,-1,-1,-1,-1,0,1,-2
1558440160154745,1,3,2,2,12,13,7,4
1558440160154745,-2,-2,-4,-1,-8,-1,-4,-3
1558440160160730,-2,0,-2,4,4,12,4,-1
1558440160160730,-2,-2,-3,-9,-6,-18,-9,-2
1558440160177717,-1,-2,-1,-2,-3,2,-2,-3
1558440160177717,1,1,4,2,7,3,8,5
1558440160184018,-2,-3,-3,-4,-11,-3,-6,-2
1558440160184018,-1,0,-3,0,-4,-6,-3,0
1558440160200750,1,-1,0,1,1,-3,-2,-1
1558440160200750,-4,-4,-4,-8,-7,0,-4,-4
1558440160201622,1,1,1,-1,-2,-10,-3,-1
1558440160201622,-2,-3,-1,4,2,13,9,0
1558440160214620,-3,-2,-2,-4,-5,-11,-3,-3
1558440160214620,0,2,1,1,6,3,0,1
1558440160221851,-1,1,2,3,8,10,7,1
1558440160221851,2,-2,-1,0,-1,-1,-7,-3
1558440160237558,1,-1,-1,1,-1,5,2,1
1558440160237558,-2,-2,-2,-1,-6,-11,-9,-4
1558440160243814,-1,-1,-3,-5,-1,-1,2,0
1558440160243814,0,1,3,-1,1,5,3,1
1558440160260776,-3,-3,-1,-1,-2,5,-2,-3
1558440160260776,-3,0,-2,-3,-10,-18,-7,-3
1558440160261460,0,-3,2,1,5,9,4,2
1558440160261460,2,1,1,4,7,4,4,2
1558440160273717,0,1,0,-1,-1,-7,1,1
1558440160273717,-1,-1,-1,-3,-1,-1,-3,-1
1558440160282637,-2,-1,-3,-1,-11,-10,-6,-5
1558440160282637,-4,-4,-6,-4,0,4,-5,-5
1558440160296665,1,0,2,0,0,5,6,3
1558440160296665,0,1,-1,2,13,-5,2,0
1558440160311616,-1,-1,0,0,0,-2,-5,-2
1558440160311616,-2,-3,-1,-2,3,3,2,1
1558440160320304,-2,-1,-3,-3,-5,-12,-8,-4
1558440160320304,-4,-5,-5,-3,-8,7,-2,-3
1558440160321299,-2,-2,0,1,-3,2,-2,-2
1558440160321299,0,2,1,0,-5,-8,3,0
1558440160333545,-3,-2,-5,-9,-3,-9,-9,-4
1558440160333545,-1,-2,0,2,-3,8,5,0
1558440160342243,1,1,0,1,14,4,4,3
1558440160342243,-1,-1,-2,-4,-10,-7,-7,-3
1558440160357204,0,2,-1,3,0,0,-2,1
1558440160357204,0,-1,2,-2,-2,-1,-1,-1
1558440160363187,0,0,-4,0,0,7,1,-1
1558440160363187,-1,0,-3,-2,-10,-3,-2,-1
1558440160380142,1,-1,2,1,4,-3,-4,-2
1558440160380142,0,-1,0,1,9,0,7,5
1558440160381140,0,-1,3,-2,-4,-7,-3,1
1558440160381140,-1,-3,-4,-2,-1,0,1,0
1558440160394487,0,-2,-2,-5,-9,-2,-6,-4
1558440160394487,0,0,-2,3,5,10,4,2
1558440160402510,1,1,0,-2,2,-8,3,2
1558440160402510,-1,-3,-1,-5,-7,-12,-10,-6
1558440160417043,-2,-3,-1,1,-2,5,4,1
1558440160417043,-3,-2,1,-1,0,-3,0,-3
1558440160424024,-3,-3,-3,-2,-11,-9,-3,-3
1558440160424024,0,2,0,-1,7,2,1,2
1558440160439981,0,-1,-1,3,3,6,6,0
1558440160439981,-3,-2,-1,-3,-4,3,-5,-3
1558440160440979,-1,-2,-1,0,-4,-5,-4,-2
1558440160440979,-1,0,-2,1,3,4,0,-3
1558440160453944,0,1,-1,-1,-4,-5,-3,-2
1558440160453944,0,-2,-4,-2,-5,-7,-5,-4
1558440160462920,-1,-2,0,0,8,11,7,2
1558440160462920,-2,1,5,3,4,3,5,3
1558440160476883,-1,-2,-4,-5,-7,-7,-2,-3
1558440160476883,1,-2,-3,-3,-3,-9,-3,-1
1558440160483863,-2,0,-1,-3,-10,-6,-12,-3
1558440160483863,-2,-2,-2,3,4,7,1,-1
1558440160499821,0,2,3,-1,9,6,4,2
1558440160499821,-1,0,2,-1,-3,-1,0,-3
1558440160501817,-1,-1,-3,-3,-3,-7,0,-6
1558440160501817,-2,-2,-3,-3,-5,-7,-5,-4
1558440160513784,0,-1,0,1,2,4,-1,-1
1558440160513784,0,-2,-1,2,4,7,3,0
1558440160522759,-3,-2,-2,-1,3,-2,-4,-3
1558440160522759,-2,0,-4,-1,-14,-12,-3,-2
1558440160536722,-2,-2,-1,1,3,5,-2,-1
1558440160536722,1,-2,-5,-4,-9,-3,-3,-1
1558440160543704,1,-2,-3,-4,5,4,3,2
1558440160543704,-1,-1,1,-3,1,1,-1,-5
1558440160559661,0,2,1,1,-7,-8,0,0
1558440160559661,-4,-3,-3,-1,2,-4,1,1
1558440160561656,1,3,4,-1,-2,-6,3,3
1558440160561656,-1,-2,-3,-1,3,5,0,2
1558440160573624,-2,-2,-1,-1,-4,-1,-4,-3
1558440160573624,-1,1,0,-1,6,8,1,1
1558440160582601,-3,0,-3,0,-5,-8,-4,-3
1558440160582601,1,0,2,4,4,0,6,3
1558440160596563,-1,-2,-2,-5,-3,3,-2,-3
1558440160596563,0,0,-2,-5,-12,-11,-6,-4
1558440160603543,-3,-1,-3,1,-4,1,-7,-4
1558440160603543,2,0,0,0,4,2,0,2
1558440160620498,-3,-3,-5,-4,-3,-6,-4,-4
1558440160620498,2,2,1,1,1,4,2,1
1558440160621496,1,0,1,4,7,12,7,4
1558440160621496,3,-1,1,0,-2,-13,-4,0
1558440160633465,0,-2,-2,-9,-2,-5,3,0
1558440160633465,0,-2,1,2,2,2,-3,0
1558440160642439,-4,-2,-2,-1,0,3,-1,-5
1558440160642439,-1,-2,-2,-4,-4,-7,-8,-2
1558440160656402,-3,-4,-4,0,-2,-2,-1,-3
1558440160656402,-2,-1,-1,-1,3,3,-1,1
1558440160663383,1,-1,-1,1,0,-1,3,3
1558440160663383,-2,-2,-1,-3,3,4,-2,-4
1558440160680338,0,3,3,5,5,6,4,2
1558440160680338,-2,-3,-1,-5,-11,-8,-8,-7
1558440160681336,1,-1,-1,2,-2,5,1,-1
1558440160681336,-1,1,1,-2,-4,-7,0,-1
1558440160693305,-1,-1,-2,-2,2,1,-1,1
1558440160693305,-1,0,1,-3,-3,1,-2,-3
1558440160710258,0,-2,0,-2,-4,1,2,2
1558440160710258,0,-1,1,1,4,-5,-1,1
1558440160717240,0,-2,-2,0,-5,-5,-6,-3
1558440160717240,2,-1,-3,-1,-3,-4,-3,0
1558440160723224,-2,-1,-4,-5,-6,-8,-5,-3
1558440160723224,-2,-1,-3,-1,-3,5,4,0
1558440160739181,-1,-1,0,3,7,-4,3,4
1558440160739181,-2,0,3,3,0,0,0,-1
1558440160746170,0,-2,-3,-3,8,11,2,-3
1558440160746170,-4,-1,-1,-6,-7,6,-2,-4
1558440160754144,-2,1,2,0,-2,-7,-2,1
1558440160754144,0,1,1,2,6,0,5,2
1558440160763124,0,-1,-4,-8,-5,-5,-6,-3
1558440160763124,-3,-2,-2,4,3,5,-1,-3
1558440160777211,-4,-5,-3,-2,-11,-5,-8,-8
1558440160777211,0,-2,2,-3,-2,-8,2,4
1558440160784062,2,1,3,4,12,1,7,4
1558440160784062,-2,-3,-3,-3,-2,2,-4,-2
1558440160799021,-3,-2,-1,-1,-6,-3,-7,-2
1558440160799021,-4,-3,-5,-3,-4,-1,-4,-3
1558440160806002,0,-1,1,4,2,-5,2,0
1558440160806002,-1,-1,-1,-3,-2,1,2,-1
1558440160813980,2,2,-1,1,11,9,4,2
1558440160813980,0,1,-1,0,-2,-6,-4,-1
1558440160822958,-4,-2,-6,-5,-7,-6,-11,-6
1558440160822958,1,-2,-2,-4,-5,-10,-2,-1
1558440160837223,3,3,1,2,11,5,6,4
1558440160837223,-1,-3,-1,-1,-2,3,2,-2
1558440160844204,0,1,0,-1,-1,-2,-1,0
1558440160844204,-4,-1,-3,-1,-9,-7,-8,-5
1558440160859859,-2,-1,-3,-1,-5,2,0,-3
1558440160859859,-1,-2,-2,0,8,11,5,1
1558440160867875,-3,-2,0,-2,-6,-3,-3,-3
1558440160867875,1,-1,-1,2,2,-9,0,1
1558440160873821,-1,-1,2,-2,-1,1,0,-1
1558440160873821,-2,-1,0,0,1,2,-1,-1
1558440160882832,-2,-2,-2,-4,-5,3,-3,-5
1558440160882832,-3,-2,-3,-4,-9,-7,-2,-4
1558440160896760,-2,-2,-2,-1,1,-1,2,-3
1558440160896760,1,2,0,0,9,12,10,1
1558440160903742,-3,-2,-1,1,-2,3,-1,-1
1558440160903742,0,0,0,-3,-4,-6,-2,0
1558440160920074,-1,-1,-2,-2,1,0,0,0
1558440160920074,-4,-1,-4,-2,-6,-3,-7,-4
1558440160926988,0,-1,0,-2,-2,-3,0,3
1558440160926988,1,1,-1,1,1,-2,0,0
1558440160943094,-2,-1,0,1,-3,1,0,-4
1558440160943094,2,0,1,-3,1,-4,1,2
1558440160943635,0,0,-1,1,-3,-3,1,1
1558440160943635,-2,-2,-1,-5,4,0,-1,-2
1558440160956959,-4,-2,-2,-2,-7,-2,-6,-3
1558440160956959,0,-1,-3,-2,-8,-8,-6,-4
1558440160963585,-1,-2,0,-1,5,3,2,0
1558440160963585,-1,0,0,0,-1,6,1,-1
1558440160979604,0,-1,-2,-2,-3,-5,-3,-2
1558440160979604,-2,-1,-1,-2,-6,-5,-2,-2
1558440160986521,-2,-2,0,5,1,-2,-2,-1
1558440160986521,1,1,1,-7,8,10,3,3
1558440161002793,1,1,0,0,1,-1,1,1
1558440161002793,-3,-1,-1,1,-4,-3,-3,-2
1558440161004602,-2,0,-3,-3,-1,-6,-3,-3
1558440161004602,-2,-1,-2,-6,-6,0,-6,-3
1558440161017629,-1,-4,-3,-1,-4,-2,-2,-2
1558440161017629,1,0,2,1,9,-5,3,6
1558440161023422,-2,-1,2,3,4,2,-2,-1
1558440161023422,0,-3,1,5,8,9,3,-1
1558440161039700,0,-1,-6,-13,-11,-5,-4,-1
1558440161039700,-2,-2,-1,0,-3,-5,-3,-2
1558440161046698,-1,2,5,-3,3,0,3,1
1558440161046698,-4,-3,-6,-2,-19,-11,-8,-4
1558440161062649,1,2,4,5,9,6,5,2
1558440161062649,0,-4,0,0,2,0,-2,-3
1558440161064657,0,0,-4,-3,-5,-1,-1,-1
1558440161064657,-1,-2,-2,-5,0,-5,-2,-2
1558440161077572,0,-2,-3,0,-1,2,1,-1
1558440161077572,-1,0,0,-3,-5,-2,-2,0
1558440161084456,-1,-1,-1,1,4,4,5,2
1558440161084456,1,4,4,7,10,0,9,5
1558440161099250,-3,-1,-2,0,-5,-6,-6,-3
1558440161099250,-4,-4,-7,-14,-8,6,2,-2
1558440161106231,-1,-2,-3,-1,-1,-4,-8,-3
1558440161106231,-2,-1,0,0,-3,-6,-2,-2
1558440161122156,3,3,4,3,3,5,3,2
1558440161122156,-2,0,-2,2,6,10,3,-1
1558440161124153,-4,-1,-5,-8,-12,-7,-6,-7
1558440161124153,0,-1,-1,0,-10,-15,-4,-1
1558440161137151,1,1,4,4,12,0,6,3
1558440161137151,2,0,2,4,11,13,9,3
1558440161143100,2,-3,-2,-2,0,2,-1,-1
1558440161143100,-4,-1,-4,-2,-8,0,-7,-5
1558440161159058,-5,-3,-3,0,-11,-11,-8,-4
1558440161159058,-1,1,-3,-11,-5,0,1,1
1558440161166549,0,0,-1,0,-2,-1,-1,-2
1558440161166549,2,-4,1,-4,-4,-7,-10,-3
1558440161181996,-1,-2,-4,-2,-2,6,-1,-2
1558440161181996,0,2,2,4,8,-12,-3,1
1558440161184009,0,0,2,0,4,7,3,2
1558440161184009,-2,-2,-1,0,5,6,7,1
1558440161196957,-3,-1,0,-4,-5,-8,-2,-1
1558440161196957,-3,-2,-3,0,-6,-7,-7,-6
1558440161203939,-2,-2,0,-2,-7,-11,-9,-3
1558440161203939,1,1,2,0,1,7,5,1
1558440161218935,0,-2,0,-1,6,1,-2,0
1558440161218935,-3,-1,0,5,-7,3,4,-3
1558440161225883,1,-1,2,0,0,-6,3,5
1558440161225883,-2,2,-1,2,8,6,2,0
1558440161242838,-3,-3,-1,-3,-7,-2,-5,-2
1558440161242838,0,0,-2,0,8,8,-3,2
1558440161243832,-2,-3,-4,0,-6,-6,-4,-2
1558440161243832,1,0,0,1,2,4,1,-1
1558440161256798,-2,-3,-2,-3,0,-2,-3,-3
1558440161256798,-3,-3,-3,0,-7,-12,-7,-4
1558440161263779,-3,-1,-4,-4,-1,7,-1,-5
1558440161263779,-2,0,-2,-2,0,-2,0,1
1558440161279737,3,5,3,-2,10,-6,7,6
1558440161279737,-1,-1,1,1,-1,-3,2,1
1558440161285725,1,-1,0,-1,3,1,-2,-1
1558440161285725,0,-3,-4,-3,-9,-2,-3,-3
1558440161302715,-3,-2,-3,2,-12,-6,-12,-6
1558440161302715,-1,0,-1,-11,-1,1,0,-1
1558440161303674,-2,-2,-3,-1,-6,-6,2,-1
1558440161303674,3,4,4,6,16,11,11,8
1558440161324622,-1,0,0,1,6,2,3,3
1558440161324622,0,-3,-3,-1,-4,-3,-4,-3
1558440161326611,-3,-2,-2,-3,-5,3,-2,-4
1558440161326611,-3,-5,-4,-4,-7,-1,-7,-7
1558440161339645,-2,-1,0,0,2,9,4,0
1558440161339645,-2,-1,-2,-4,-8,-7,-8,-5
1558440161346595,0,0,-2,-3,0,-11,0,1
1558440161346595,0,0,4,7,6,-8,5,5
1558440161362520,-1,-1,-4,-5,-8,-3,-2,-4
1558440161362520,1,-2,0,4,2,4,-4,-2
1558440161363515,-1,-1,-1,-7,1,6,-3,-2
1558440161363515,-3,-1,-4,-2,-4,1,-6,-1
1558440161376512,0,-2,-1,-4,-5,-5,0,-1
1558440161376512,-2,-1,-2,-2,-6,-12,-6,-1
1558440161383459,2,1,1,6,6,7,9,4
1558440161383459,-1,-2,-1,-4,-6,-7,-1,-2
1558440161399418,0,-1,1,-1,0,0,-1,-1
1558440161399418,-2,-3,0,3,4,-3,0,-2
1558440161406462,-4,-1,-1,0,-1,1,-3,-2
1558440161406462,-1,-3,-3,-3,3,11,2,-1
1558440161422419,-2,-2,-1,-2,-9,-11,-6,-5
1558440161422419,-2,-2,-3,-4,-9,-8,-7,-4
1558440161424352,0,1,4,3,2,5,6,5
1558440161424352,0,1,0,1,1,-11,0,0
1558440161436381,-2,-2,-5,-5,4,14,-1,0
1558440161436381,-3,-1,2,4,8,9,3,1
1558440161445293,-4,-2,-4,-4,-11,-12,-6,-2
1558440161445293,0,-1,-3,-2,-4,-9,-8,-2
1558440161459256,-1,-2,-2,3,7,9,6,0
1558440161459256,0,-1,-1,-3,-4,-3,1,-1
1558440161466250,2,-2,0,1,4,1,0,-1
1558440161466250,-2,-2,0,1,2,2,2,1
1558440161482195,1,1,-2,0,4,0,-1,0
1558440161482195,1,0,-1,0,-1,-1,-1,0
1558440161484189,-1,-2,-2,1,-5,1,-5,-2
1558440161484189,0,-1,-2,-5,-5,-12,-7,-4
1558440161496156,-2,0,1,1,2,7,7,0
1558440161496156,1,-1,1,4,12,19,10,3
1558440161505132,2,2,1,-1,3,-4,-2,1
1558440161505132,-1,-4,-2,-3,-7,-5,0,0
1558440161519095,-1,-3,-1,0,-5,-6,-9,-4
1558440161519095,-1,1,-3,-1,3,-2,0,0
1558440161526078,0,0,-1,-1,-2,-5,-5,-6
1558440161526078,-3,-1,-5,-3,-1,8,-2,-3
1558440161543037,-2,0,1,-2,-9,-10,2,1
1558440161543037,-4,-2,-1,0,-1,-7,-6,-1
1558440161544030,0,1,1,-1,-1,-3,3,2
1558440161544030,0,1,1,1,7,11,2,0
1558440161555999,-1,-2,-3,-2,-9,-7,-3,-2
1558440161555999,1,1,2,1,3,0,3,1
1558440161564976,-2,-3,-9,-19,-6,-4,-3,-2
1558440161564976,-1,1,0,0,-4,-2,-6,-1
1558440161578965,-4,-1,-3,-2,-4,-3,-5,-4
1558440161578965,0,-2,-6,-2,2,9,2,0
1558440161585918,0,-2,1,7,3,-1,-2,-1
1558440161585918,-2,0,3,-1,9,7,7,1
1558440161602871,-1,-2,-1,-4,-5,-6,-4,-2
1558440161602871,1,1,-2,-2,-7,-4,-2,-1
1558440161603876,-2,-3,-2,1,0,3,1,-3
1558440161603876,0,-3,-2,-3,-3,3,-3,-3
1558440161615848,-4,-4,-6,-6,-5,-3,-6,-5
1558440161615848,2,1,4,7,-3,-9,-1,1
1558440161624815,-1,1,-5,-12,-1,-10,3,2
1558440161624815,-2,-2,-6,-4,-13,-18,-9,-5
1558440161638776,2,2,5,8,23,23,15,8
1558440161638776,-3,0,-4,-5,-4,-2,-2,-1
1558440161645763,-1,-3,0,5,2,5,-1,-1
1558440161645763,-2,-2,-2,-1,-9,-9,-7,-2
1558440161661716,-2,-3,-4,-3,-4,3,-5,-3
1558440161661716,-3,-4,-3,-3,-10,-3,-7,-6
1558440161668705,-2,-1,1,1,-4,1,-6,-2
1558440161668705,2,4,0,2,9,-4,6,7
1558440161675678,1,-2,2,7,8,-5,3,2
1558440161675678,-2,-2,-2,-10,2,4,-1,0
1558440161684654,-2,0,0,3,-9,-12,-4,-1
1558440161684654,-2,-3,-4,-8,-5,12,0,-2
1558440161699618,2,1,0,0,-3,-5,-2,1
1558440161699618,-1,2,-2,0,-1,-3,0,-2
1558440161706599,-1,-1,-2,-4,-7,-10,-4,-4
1558440161706599,-4,-3,-3,1,1,0,-5,-5
1558440161721557,0,0,4,0,-1,6,9,3
1558440161721557,2,-1,0,8,9,2,1,3
1558440161728567,-2,-4,-3,-9,4,13,3,-1
1558440161728567,1,0,3,1,0,-7,-2,2
1558440161736517,-2,-3,-4,-5,-7,-8,-8,-4
1558440161736517,-4,-2,-1,-3,-6,0,-2,-2
1558440161744492,-2,2,3,6,4,3,1,-1
1558440161744492,-1,-1,-4,-4,-9,-7,-8,-6
1558440161759453,0,1,-1,0,6,3,0,2
1558440161759453,1,0,2,4,8,5,8,4
1558440161766436,-1,0,-6,-11,-5,-2,-1,-4
1558440161766436,-4,-1,2,0,-5,0,-2,-3
1558440161781406,-4,-2,-9,-5,-5,-3,-5,-2
1558440161781406,-1,-3,-4,-1,-1,0,-4,-3
1558440161788375,-2,-3,0,5,0,-1,-2,-2
1558440161788375,0,1,3,1,-2,-2,4,0
1558440161796355,1,-1,-4,-7,-1,-6,2,0
1558440161796355,-1,0,2,-2,1,0,-1,0
1558440161805332,1,-2,2,3,1,2,-2,-1
1558440161805332,2,0,-1,2,5,1,3,3
1558440161819292,-1,-2,2,3,4,2,0,-3
1558440161819292,-5,-5,-8,-11,-20,-16,-7,-6
1558440161833257,-2,0,-4,2,7,6,1,1
1558440161833257,-1,-3,-2,-1,-4,0,-3,-1
1558440161842242,-1,-2,2,2,6,7,0,2
1558440161842242,0,-3,-2,0,-6,-9,-2,-3
1558440161848217,0,2,1,3,9,4,7,4
1558440161848217,-2,-3,-2,-2,-2,0,1,-3
1558440161865174,-1,-2,0,3,-2,-1,-4,-3
1558440161865174,-1,2,1,-4,-2,-7,-2,-2
1558440161866171,0,-2,-1,2,-3,-2,-2,0
1558440161866171,2,0,2,2,5,6,4,2
1558440161879137,0,1,2,-4,-7,-8,-7,-4
1558440161879137,-2,-1,-1,0,0,3,-1,-1
1558440161886124,-1,-3,-2,0,0,5,3,-1
1558440161886124,-1,-2,-2,3,7,4,2,1
1558440161902073,-3,-3,-2,-12,-9,-4,-4,-3
1558440161902073,-1,1,-4,-2,2,-5,-3,0
1558440161909055,-1,0,1,0,-7,-5,1,0
1558440161909055,0,-2,0,0,5,5,-1,-2
1558440161925014,-2,-1,-5,1,-7,-6,-7,-3
1558440161925014,1,-2,-1,1,3,-1,2,1
1558440161926015,-1,0,-3,-3,-3,-4,-2,-1
1558440161926015,0,-1,-1,2,-2,2,-2,-2
1558440161938984,0,1,2,-3,-4,4,2,0
1558440161938984,1,1,1,2,3,-6,1,1
1558440161945959,-3,-2,-2,-1,-6,-10,-5,-3
1558440161945959,-2,0,-2,-4,-5,-8,-1,0
1558440161961922,-2,-3,-3,2,-2,-2,-5,-4
1558440161961922,-2,-1,0,-2,0,9,1,-1
1558440161968896,0,1,2,-1,6,7,1,0
1558440161968896,-4,-2,-2,-3,-6,-4,-6,-3
1558440161984860,0,-2,-2,0,2,-2,7,2
1558440161984860,1,0,0,1,5,-3,4,0
1558440161986854,-3,-3,-3,1,-2,1,-4,-3
1558440161986854,-1,-2,-6,-17,-9,-4,-3,-4
1558440161998813,-4,-1,-2,-1,-3,-5,-5,-4
1558440161998813,-1,-2,-2,-1,0,8,-1,1
1558440162005796,0,1,0,-1,8,2,3,2
1558440162005796,-1,-1,0,3,-1,-4,1,2
1558440162021752,0,0,1,-1,-1,-3,-3,-1
1558440162021752,-4,-5,-3,-3,-6,1,-5,-4
1558440162028740,0,0,-1,-1,-9,-20,-5,1
1558440162028740,0,-2,0,1,5,-2,-2,-1
1558440162044690,-2,-1,-3,0,-3,0,-4,-2
1558440162044690,-3,-1,1,-3,-5,3,-3,-3
1558440162046684,-1,-1,-4,-3,-4,-1,-1,-1
1558440162046684,0,1,1,4,-2,1,5,2
1558440162059649,0,0,-2,-2,7,-1,4,2
1558440162059649,-1,-2,-1,0,-2,2,-2,-1
1558440162065634,0,0,-2,-4,-6,-10,-4,-2
1558440162065634,-1,0,1,2,-2,8,4,0
1558440162081590,0,-1,0,2,2,1,2,0
1558440162081590,-1,-2,-4,-2,-6,-12,-4,0
1558440162088572,-1,-5,-1,2,-1,2,-7,-3
1558440162088572,0,-1,-6,-12,-3,1,-1,-3
1558440162104530,2,2,3,-2,1,4,5,3
1558440162104530,1,0,-1,-2,-1,-9,-1,0
1558440162106524,-1,-3,-2,2,-2,4,-2,-3
1558440162106524,-3,-1,0,3,2,-5,-4,-1
1558440162119490,1,1,-3,1,-3,-4,1,0
1558440162119490,-1,0,-2,-3,0,5,0,-1
1558440162126470,-2,1,4,-1,3,3,0,1
1558440162126470,1,0,0,3,5,0,5,0
1558440162141435,-2,-1,0,-1,-4,-1,-1,-1
1558440162141435,1,2,0,-5,-3,-2,3,2
1558440162148427,1,-1,-1,-2,1,4,-3,-2
1558440162148427,-2,-2,-5,-4,-6,-2,-11,-5
1558440162165366,-3,-1,0,1,8,-2,1,-1
1558440162165366,-1,2,1,2,0,3,3,3
1558440162166365,-1,1,1,-3,3,9,4,1
1558440162166365,-1,0,-1,-2,1,-2,0,1
1558440162179332,-2,-4,-3,-2,-8,-13,-7,-3
1558440162179332,-2,-2,0,2,4,0,0,-1
1558440162186312,-5,-2,-4,-2,-10,-3,-2,-5
1558440162186312,-2,-1,-1,4,-4,-6,-5,0
1558440162201276,1,-1,-5,-11,0,8,3,2
1558440162201276,-1,-2,-1,1,-1,-2,-2,-3
1558440162208257,-2,-4,-2,-2,-4,-10,-3,1
1558440162208257,-1,-3,-1,-3,-5,-4,1,-2
1558440162225208,0,-2,3,6,-1,-4,-4,-4
1558440162225208,-3,-1,-2,-6,-9,-7,-7,-2
1558440162226205,0,0,-1,3,17,21,10,3
1558440162226205,-4,-2,-2,-1,-2,-4,-2,-2
1558440162239170,-2,-2,-1,1,1,0,-2,0
1558440162239170,0,-2,2,3,0,0,-1,-2
1558440162246151,-1,-5,-6,-11,-12,-12,-6,-5
1558440162246151,0,1,-3,-2,-4,-10,-3,-1
1558440162262108,-2,-2,0,2,-1,-1,0,-1
1558440162262108,-4,-1,0,5,2,11,-1,-2
1558440162268092,-1,-1,-5,0,4,1,-4,-2
1558440162268092,1,2,7,9,14,3,5,5
1558440162285046,0,1,-3,-8,-3,-4,1,0
1558440162285046,-3,-3,-5,-4,-8,2,-5,-6
1558440162286044,0,1,2,3,2,-3,0,1
1558440162286044,-3,-2,-1,0,-10,-3,-4,-5
1558440162299031,1,2,-3,-5,7,10,1,0
1558440162299031,-2,-4,-2,-1,4,2,3,1
1558440162305991,0,1,-1,-1,-4,4,1,1
1558440162305991,-3,-2,-1,0,1,0,-4,-4
1558440162321946,-1,-1,1,1,-6,-5,-1,1
1558440162321946,1,0,-2,-1,2,1,6,1
1558440162328930,-1,-2,2,-1,-2,-2,-6,-2
1558440162328930,0,-3,-6,-5,-2,1,0,-2
1558440162344886,-2,-2,-2,-6,-5,-4,-3,-2
1558440162344886,3,0,1,-2,-4,-12,-4,0
1558440162345884,-1,0,1,2,3,9,4,-1
1558440162345884,-1,-1,-2,-2,-5,-10,-1,1
1558440162358857,1,0,0,6,7,6,-3,0
1558440162358857,-3,0,-3,-10,-1,4,0,1
1558440162367826,-2,-1,2,0,-8,-11,-2,0
1558440162367826,-3,-2,-5,-4,5,11,0,-1
1558440162381791,-3,-3,0,0,-8,-4,-1,-1
1558440162381791,0,-1,0,0,-1,-3,-7,-3
1558440162388774,-1,0,-1,4,-2,2,-3,-3
1558440162388774,-1,-1,-1,-13,-3,-1,-2,-2
1558440162404731,-1,-3,-5,3,2,-4,2,-1
1558440162404731,-1,0,3,5,-5,-5,-2,0
1558440162406723,0,-1,0,-2,6,0,-1,2
1558440162406723,-5,-7,-12,-7,-7,-6,-5,-3
1558440162418697,-2,-1,2,1,-3,1,-3,-2
1558440162418697,-1,2,5,1,10,9,5,0
1558440162427665,1,1,7,6,-1,-8,2,1
1558440162427665,-1,0,-8,-13,-10,-2,0,-2
1558440162441628,-4,-3,-8,-5,-4,2,-6,-4
1558440162441628,1,0,3,4,10,15,7,2
1558440162448617,-2,0,-1,-4,-10,-19,-8,0
1558440162448617,2,1,-3,2,14,8,8,3
1558440162464574,-1,-1,1,-3,-9,-7,-7,-3
1558440162464574,-1,-2,-1,-3,-8,-6,-1,-3
1558440162466561,-1,-4,-7,0,6,8,0,-2
1558440162466561,0,0,4,3,-9,-5,-6,-3
1558440162478538,3,0,2,-2,-1,-1,6,1
1558440162478538,1,0,5,10,15,9,8,5
1558440162487505,-3,-2,-14,-18,-14,-7,-5,-2
1558440162487505,-1,2,11,7,1,4,-4,0
1558440162501472,-1,2,9,4,1,7,2,-1
1558440162501472,0,-1,-4,-4,-6,-8,-3,-3
1558440162508451,-6,-7,-11,-6,-9,-8,-4,-5
1558440162508451,3,1,-1,4,8,2,3,0
1558440162524411,2,3,8,5,4,-3,0,0
1558440162524411,-1,-2,-2,-2,-7,-13,-5,-1
1558440162526401,2,0,2,-3,8,5,4,1
1558440162526401,-2,-6,-5,-1,-12,-12,-8,-6
1558440162538378,1,0,1,2,0,-1,1,0
1558440162538378,-4,-4,-10,-5,-5,0,-1,-1
1558440162547344,1,0,0,3,9,9,9,4
1558440162547344,-1,2,7,5,4,4,-1,-3
1558440162561308,2,0,6,-1,-1,-2,-3,-1
1558440162561308,-3,-4,-14,-6,-8,-9,-4,-1
1558440162568352,0,0,6,0,0,-5,-5,-2
1558440162568352,0,0,-1,-2,-7,-4,2,0
1558440162584273,-1,0,-3,2,8,8,2,0
1558440162584273,1,-2,4,2,-1,3,-1,-2
