timestamp,emg1,emg2,emg3,emg4,emg5,emg6,emg7,emg8
1558440170407320,1,0,-7,-10,2,-8,0,1
1558440170407320,-2,0,1,6,-1,3,-1,-2
1558440170418289,-4,-3,-6,-1,-4,-1,-6,-5
1558440170418289,-2,-1,-4,-7,-6,7,0,-2
1558440170419287,2,1,-1,5,9,10,5,1
1558440170419287,-1,0,3,7,2,-14,-1,2
1558440170420285,1,0,4,-4,6,6,5,2
1558440170420285,0,-2,-1,-5,-3,-8,-5,-3
1558440170446214,-3,-4,-6,2,-10,-4,-6,-4
1558440170446214,0,-1,-1,-4,5,8,1,-1
1558440170449207,-1,0,1,0,-5,-3,0,-2
1558440170449207,-2,-1,-1,5,-4,-6,-2,-2
1558440170450206,-2,1,6,2,-5,0,-4,-2
1558440170450206,-1,-3,-5,-1,3,2,-1,-2
1558440170459181,-3,-3,-4,-10,-7,-14,-3,-2
1558440170459181,1,1,-1,0,2,6,0,1
1558440170466162,-3,-1,0,-1,1,5,-1,-3
1558440170466162,-1,0,2,-1,-7,0,-2,-3
1558440170493089,-3,-5,-14,5,0,-3,-4,0
1558440170493089,0,-2,4,-5,0,-5,1,0
1558440170494087,2,1,-2,-3,3,-9,-1,0
1558440170494087,1,1,3,0,-2,-2,1,2
1558440170496081,-1,1,-2,0,0,-2,-5,-1
1558440170496081,-2,-2,-6,-1,-4,1,-2,-2
1558440170504061,-1,0,5,1,1,4,1,-1
1558440170504061,-2,-3,-3,-2,-3,3,4,1
1558440170527995,1,1,0,0,7,1,-3,-3
1558440170527995,-2,-1,-1,0,-4,-1,1,2
1558440170529991,3,2,4,1,10,-2,3,5
1558440170529991,-3,-2,-4,-6,-5,-9,-7,-3
1558440170534978,0,1,10,0,-5,3,0,-1
1558440170534978,-3,-5,-18,-5,-2,-2,-2,-3
1558440170582849,1,0,-6,-9,0,5,1,-1
1558440170582849,0,-3,0,1,-3,-6,-4,-2
1558440170582849,-3,-1,1,4,-1,-3,2,2
1558440170582849,-1,0,3,-5,-2,-5,-4,-3
1558440170586838,0,-2,5,5,-5,-7,-4,-2
1558440170586838,0,0,-10,-2,-2,2,-2,1
1558440170586838,1,1,-3,-4,9,2,5,3
1558440170586838,-1,-1,-1,-4,5,2,2,0
1558440170611772,-1,0,4,8,-6,-2,-5,-3
1558440170611772,-1,0,-4,-2,1,4,-1,-3
1558440170612771,-1,-1,2,-6,-2,-5,-3,-2
1558440170612771,-3,-3,-13,-5,-12,-6,-7,-6
1558440170615761,1,1,2,8,18,17,11,5
1558440170615761,-2,0,5,-2,-7,-11,-8,-3
1558440170622743,-1,-3,-7,-5,4,8,3,-1
1558440170622743,-2,1,8,11,5,-2,2,1
1558440170631718,-3,-2,-5,-7,-16,-15,-10,-4
1558440170631718,-1,-2,-6,-12,2,0,2,2
1558440170645681,-1,-1,-2,3,-5,4,-2,-1
1558440170645681,2,-1,3,-1,1,-4,-1,1
1558440170654657,-4,-4,-3,-3,-2,3,-4,-3
1558440170654657,-1,1,5,4,0,1,0,2
1558440170660641,-3,1,-3,0,-5,-12,-3,-2
1558440170660641,-1,-1,-3,-5,-3,0,-1,2
1558440170669622,1,3,4,0,-1,-4,3,0
1558440170669622,1,-3,-10,-1,0,5,-1,-1
1558440170683579,0,-2,9,1,5,7,1,-1
1558440170683579,-2,-3,-4,0,-2,0,-1,0
1558440170692556,-3,-3,-9,-6,-13,-16,-8,-4
1558440170692556,-1,2,7,3,6,7,3,0
1558440170698540,3,1,1,2,7,11,1,-1
1558440170698540,0,1,1,4,-1,-2,-2,-2
1558440170714497,-5,-4,-9,-19,-15,-8,-4,-3
1558440170714497,-1,-2,-6,-3,-5,-3,1,-3
1558440170720480,-1,0,-1,0,-3,2,-2,-2
1558440170720480,-1,-1,0,-1,-1,-2,-3,-1
1558440170735441,1,-1,2,4,4,0,-1,0
1558440170735441,-2,1,2,2,1,0,3,0
1558440170743419,-1,-1,-4,-5,-5,-7,-4,-1
1558440170743419,-2,0,2,-1,-1,2,0,-2
1558440170752396,1,2,4,2,1,4,4,2
1558440170752396,0,-3,-1,2,2,0,1,-1
1558440170758380,-2,-2,-2,2,-3,-5,-5,-3
1558440170758380,-1,-2,-8,-14,-8,-4,-4,-3
1558440170774338,-1,1,5,4,8,9,0,-2
1558440170774338,1,1,5,0,-1,4,1,1
1558440170780321,2,0,0,1,0,-10,6,5
1558440170780321,3,2,8,8,11,4,6,3
1558440170789297,-1,-5,-13,-7,0,-5,-1,-1
1558440170789297,-2,-3,-4,-1,-5,-3,-3,-5
1558440170803260,-3,-1,-1,-5,-11,-6,-8,-5
1558440170803260,-2,-1,-1,-2,-2,0,-3,-2
1558440170812236,-1,2,9,4,2,6,1,1
1558440170812236,-2,-3,-9,-3,5,4,0,1
1558440170818219,-3,-3,-1,0,-7,-9,0,0
1558440170818219,1,-1,-4,0,7,0,4,3
1558440170843154,-1,0,0,-1,3,1,0,-1
1558440170843154,-1,0,3,1,-11,-7,-4,-1
1558440170843154,-1,0,-1,3,8,12,-3,-1
1558440170843154,-2,-1,2,-6,-6,2,-1,-3
1558440170850136,-1,-3,-7,-5,-1,-5,-4,-2
1558440170850136,-1,2,3,2,3,-2,1,-1
1558440170863100,-4,-4,-7,-3,-8,-3,-2,-5
1558440170863100,-1,-5,-8,-5,-13,-12,-6,-4
1558440170888034,2,3,6,3,8,1,3,4
1558440170888034,1,0,6,1,-2,-6,-2,-2
1558440170889031,1,-1,-9,-5,6,13,4,0
1558440170889031,-3,-4,-6,-1,-3,2,-4,-1
1558440170895014,0,2,1,0,-5,-3,1,-2
1558440170895014,1,1,9,1,-8,-8,-8,-1
1558440170900999,-1,-2,-10,-8,-1,-6,-6,-3
1558440170900999,1,3,6,8,5,5,7,3
1558440170923937,-2,-3,-7,-3,2,9,5,1
1558440170923937,0,-1,-2,1,4,6,4,1
1558440170924934,2,1,2,0,2,-6,-1,-2
1558440170924934,-1,-2,-4,-4,-5,-3,-4,-4
1558440170931915,-2,0,2,2,-2,6,-2,-1
1558440170931915,-2,-2,-3,-3,-9,-14,-7,-3
1558440170945878,-2,2,7,-1,1,-1,-3,0
1558440170945878,-3,-4,-6,1,1,-1,-1,-1
1558440170962833,3,2,3,3,1,-2,5,3
1558440170962833,-2,-2,-4,-3,4,5,0,1
1558440170963831,1,0,8,4,0,-9,-3,1
1558440170963831,-3,-3,-12,-8,-7,-2,-5,-2
1558440170975798,-6,-4,-5,-4,-10,-6,-6,-4
1558440170975798,-1,1,2,0,13,18,5,1
1558440170982780,-4,-5,-3,-2,-4,-12,-4,-1
1558440170982780,5,3,5,4,10,11,7,2
1558440170991755,-1,-3,-3,-5,-3,-2,-4,-2
1558440170991755,-3,-2,-1,-1,-1,-3,-1,-1
1558440171005718,-4,-1,-1,-3,-9,-2,-4,-2
1558440171005718,-4,1,3,0,-4,-1,1,-1
1558440171014694,0,-2,-8,-1,-8,-7,-7,-5
1558440171014694,0,-2,2,2,3,-3,5,0
1558440171020677,1,-3,-7,-4,-6,-1,0,-1
1558440171020677,-1,1,5,7,9,3,2,2
1558440171037633,-1,-1,-4,-5,3,-1,-1,0
1558440171037633,-2,-3,-4,-3,-7,-5,-8,-3
1558440171043617,2,1,11,1,-4,0,0,0
1558440171043617,0,-2,-6,-3,-5,-5,-7,-4
1558440171052593,-1,-3,-5,-7,-3,-9,-2,-2
1558440171052593,-2,-2,-6,0,5,6,4,0
1558440171065558,-1,1,-3,-5,3,0,3,3
1558440171065558,-3,-1,8,6,2,4,1,0
1558440171074534,1,1,6,6,3,3,1,2
1558440171074534,-3,-4,-12,-11,-15,-15,-9,-3
1558440171080530,1,-1,-3,1,0,10,-2,-3
1558440171080530,0,-3,-3,-3,0,1,2,-2
1558440171097473,-2,-2,-2,-1,6,0,0,-1
1558440171097473,1,1,2,0,-2,0,2,1
1558440171103458,-1,0,2,3,8,6,1,-1
1558440171103458,-2,0,-6,-4,-6,-4,-4,-4
1558440171119414,-2,-2,-1,-1,0,1,0,0
1558440171119414,-1,-3,0,-1,-2,-5,-3,-1
1558440171134374,-3,-4,-9,-3,-5,-1,-2,0
1558440171134374,1,1,7,3,2,-5,3,4
1558440171136369,-1,-1,-4,-6,4,9,4,3
1558440171136369,0,4,8,5,4,0,-3,-2
1558440171140358,-3,-2,-6,-8,-5,-2,0,-2
1558440171140358,-1,-3,-5,-6,-1,-5,-3,-2
1558440171165292,-4,-4,-1,1,-7,-8,-4,-3
1558440171165292,0,2,1,2,2,7,-2,-2
1558440171166289,-2,-2,-7,-10,-12,-5,-6,-4
1558440171166289,-2,0,3,2,2,-9,-4,1
1558440171172273,4,5,12,8,16,-2,5,5
1558440171172273,-2,-4,-5,-5,9,12,3,0
1558440171185237,-1,-3,-4,0,-9,-7,-8,-6
1558440171185237,-5,-1,-6,-5,-12,-3,-4,-4
1558440171203191,-2,-2,-1,-2,-3,4,-3,-3
1558440171203191,-5,-3,2,-1,-2,-4,0,-2
1558440171203191,3,4,5,7,9,4,7,8
1558440171203191,0,-1,-6,-18,-6,2,0,-1
1558440171217152,-3,-6,-7,-2,-1,-3,-3,-2
1558440171217152,-1,1,0,-1,0,0,2,1
1558440171223138,-2,0,0,3,-2,-5,-2,0
1558440171223138,-1,0,5,3,-3,-1,-3,-2
1558440171240095,0,-1,-4,-1,3,2,-1,1
1558440171240095,-1,-4,-6,-3,-8,-5,-5,-3
1558440171246076,-1,-1,6,2,7,8,2,-2
1558440171246076,0,-3,-3,2,1,-12,2,1
1558440171255052,-2,0,0,-1,-1,-4,-1,-1
1558440171255052,2,-3,-5,-1,-3,0,1,1
1558440171261035,1,-1,7,0,-2,3,-1,-1
1558440171261035,-1,-1,-8,-5,-10,-10,-12,-5
1558440171276993,-2,-2,0,3,-6,-6,0,-2
1558440171276993,1,1,-1,-3,11,3,10,3
1558440171282977,-1,-1,1,0,5,8,5,2
1558440171282977,-1,-2,0,0,4,0,0,0
1558440171291952,-2,1,1,1,-11,-8,-14,-6
1558440171291952,-3,-2,-2,-4,-13,-7,-6,-3
1558440171322883,-1,0,-1,0,3,-5,1,2
1558440171322883,0,0,7,7,8,13,4,2
1558440171323868,1,0,1,-3,-3,-4,-5,-3
1558440171323868,-1,-4,-11,-5,-12,-6,-3,-1
1558440171324864,2,2,2,2,11,-2,4,3
1558440171324864,0,-2,-6,-3,2,3,5,0
1558440171336832,-1,-1,2,-2,-7,-3,-1,1
1558440171336832,0,1,5,3,1,7,-3,-3
1558440171342816,0,-3,-3,-1,7,9,2,0
1558440171342816,-1,1,4,0,-1,-2,-4,-5
1558440171351792,-1,-3,-5,-1,0,0,0,-3
1558440171351792,2,0,2,1,11,6,-1,0
1558440171365771,-2,-1,-5,-3,-5,-10,-3,2
1558440171365771,-1,0,1,0,1,6,-2,-1
1558440171374731,-3,-3,-7,-5,-8,1,-4,-4
1558440171374731,-2,-2,-1,-3,-13,-15,-7,-2
1558440171380722,-1,1,6,7,-4,-11,-9,-7
1558440171380722,-3,-5,-13,-12,7,15,12,4
1558440171396673,-1,0,1,-3,0,-7,2,3
1558440171396673,0,0,-2,-2,-4,-2,-2,0
1558440171403661,-6,-6,-11,-6,-6,1,-3,-6
1558440171403661,2,2,4,3,-11,-15,-5,0
1558440171412630,1,2,2,5,23,15,8,5
1558440171412630,0,0,3,2,9,0,8,4
1558440171442550,-2,-3,-2,-3,-14,-5,-9,-3
1558440171442550,-2,-3,0,4,5,15,3,1
1558440171444545,2,3,9,-5,-4,-6,1,0
1558440171444545,-3,-8,-21,-7,1,-2,0,0
1558440171444545,1,0,2,2,-1,-1,-4,-2
1558440171444545,-2,-2,-7,-5,-2,5,1,0
1558440171457518,0,0,2,-1,-5,-8,3,-1
1558440171457518,-3,-1,2,0,-8,-2,-8,-7
1558440171463497,2,3,2,-3,6,-3,5,5
1558440171463497,1,0,6,5,9,8,4,0
1558440171479459,-2,0,4,4,5,8,0,-2
1558440171479459,-6,-6,-16,-12,-13,1,-5,-6
1558440171486467,1,1,1,3,4,5,2,1
1558440171486467,-2,0,-1,3,0,-21,-7,2
1558440171494411,0,-1,-7,-8,-7,-6,-1,0
1558440171494411,0,1,4,3,8,10,2,2
1558440171500395,-5,-7,-6,-5,-11,0,-7,-6
1558440171500395,3,1,2,2,-1,-11,-3,-1
1558440171517350,0,-1,4,4,0,-3,-3,-3
1558440171517350,-2,-3,-5,-4,-8,-4,-6,-3
1558440171523334,0,0,1,-4,-3,4,2,-1
1558440171523334,3,1,-4,1,10,4,7,3
1558440171532309,-3,-3,-8,-2,-1,-1,-1,-1
1558440171532309,4,2,9,4,0,-5,-1,-1
1558440171554250,-3,-2,-1,-2,0,4,-1,-1
1558440171554250,-3,-3,-1,-7,-10,-6,-9,-4
1558440171556246,-1,1,0,3,-2,2,0,-3
1558440171556246,0,-1,4,0,0,-2,0,-2
1558440171568218,0,0,-1,-2,-1,0,2,-1
1558440171568218,-3,-4,-4,-5,-8,-10,-8,-4
1558440171577201,2,1,-5,0,2,7,3,2
1558440171577201,2,2,3,0,3,-1,2,3
1558440171592159,1,1,1,0,4,-8,-2,0
1558440171592159,-2,-1,1,-3,-12,-6,-8,-5
1558440171593150,-1,0,-1,2,14,16,7,4
1558440171593150,0,1,2,0,7,2,6,3
1558440171606113,-2,-2,-3,0,-13,-7,-13,-7
1558440171606113,-1,-3,-4,-6,3,8,3,1
1558440171615104,3,2,2,-1,2,-23,2,4
1558440171615104,-4,-1,2,1,-5,-1,-2,-3
1558440171637140,0,1,7,4,3,8,4,3
1558440171637140,-1,-2,-7,-5,-8,-1,-3,-5
1558440171639044,-3,-5,-10,-7,-10,-10,-13,-7
1558440171639044,-2,1,-1,5,12,12,4,3
1558440171652095,-1,-1,-4,-8,-1,-7,3,3
1558440171652095,0,-2,0,5,3,1,-2,-5
1558440171653993,0,-3,-5,-10,-3,3,-3,-4
1558440171653993,-1,1,4,3,-7,-3,-3,-1
1558440171674931,0,-2,-10,-5,2,-5,1,-3
1558440171674931,0,4,4,4,11,10,11,5
1558440171675928,-4,-2,-2,-2,-11,-14,-10,-5
1558440171675928,-4,-2,-1,-4,-9,-6,-9,-7
1558440171688941,4,1,1,1,18,22,13,6
1558440171688941,1,-1,3,1,-4,-13,-9,-3
1558440171696880,1,-1,2,2,-3,8,0,-3
1558440171696880,0,0,-4,-6,-3,-5,-1,0
1558440171719812,-1,3,4,5,5,0,1,3
1558440171719812,-2,-1,-2,-7,-2,-1,-2,-2
1558440171720808,-4,-5,-2,3,-3,3,-4,-2
1558440171720808,1,-1,8,1,7,-6,4,4
1558440171725794,-5,-3,-12,-5,-9,-2,-6,-5
1558440171725794,-2,-1,1,1,-6,-6,-3,1
1558440171734769,-2,0,-2,-9,-2,8,3,0
1558440171734769,0,1,-1,1,4,3,4,1
1558440171756710,-2,-4,0,-2,-5,-8,-6,-2
1558440171756710,-1,-4,-8,-4,-12,-5,-7,-4
1558440171758705,0,-3,0,4,4,5,8,3
1558440171758705,1,-1,2,3,0,-3,-5,0
1558440171771878,1,-1,-1,0,3,-3,0,0
1558440171771878,-2,1,-5,-2,0,1,-1,-1
1558440171773664,-2,-2,0,-1,-5,0,-3,-4
1558440171773664,-3,-1,-3,-4,-2,-1,-6,-5
1558440171794901,-1,-3,3,1,-4,-7,3,1
1558440171794901,-1,-1,-1,1,5,-2,0,1
1558440171795606,1,-3,1,-1,-2,-4,-2,0
1558440171795606,0,-2,-1,0,2,3,2,-2
1558440171808570,-2,1,-4,-4,-7,-7,-6,-4
1558440171808570,-2,-5,2,-3,3,0,3,2
1558440171817553,0,-1,-2,0,9,8,2,1
1558440171817553,-4,-3,-2,-2,-7,-3,-4,-5
1558440171832729,-2,-3,-9,-6,-8,-2,0,1
1558440171832729,3,4,6,1,8,8,5,3
1558440171833513,1,0,-1,-2,-7,-14,-3,1
1558440171833513,0,0,0,4,6,1,3,2
1558440171846518,-3,-1,1,4,1,5,3,-1
1558440171846518,-1,1,1,-2,-1,1,-3,-2
1558440171854655,-1,-1,-2,-2,-2,6,-3,-3
1558440171854655,0,-1,-1,-2,0,-3,2,2
1558440171877609,-1,0,0,-1,-7,-6,-5,-3
1558440171877609,-1,-2,-4,-2,-1,-4,-3,-1
1558440171878388,-1,2,3,1,6,3,-1,-1
1558440171878388,-4,-4,-4,-4,-6,-4,-3,-3
1558440171892349,0,-2,1,2,10,15,1,1
1558440171892349,-1,-2,3,2,-2,5,3,-1
1558440171893349,-3,-4,-8,0,-5,-11,-7,-4
1558440171893349,2,2,-3,-3,-2,-13,-3,1
1558440171915293,0,-1,-4,-3,-3,-1,1,0
1558440171915293,-1,0,4,0,0,3,-2,-2
1558440171916287,-3,-3,0,-1,-6,3,-1,0
1558440171916287,-1,0,0,5,5,7,4,1
1558440171928255,-2,-5,-13,-7,3,-12,-1,-1
1558440171928255,-1,1,1,-2,-8,-9,-5,-2
1558440171937231,-5,-5,-7,-2,-10,0,-4,-6
1558440171937231,1,2,1,-4,5,4,6,3
1558440171952192,1,-1,-1,-6,-10,-10,-6,-2
1558440171952192,-3,-4,-5,-1,6,5,2,0
1558440171953187,0,-1,1,1,6,4,2,-1
1558440171953187,-2,-2,4,-2,-11,-3,-9,-6
1558440171966150,1,0,4,0,-1,2,3,1
1558440171966150,3,-2,-6,-1,8,-5,3,3
1558440171975125,1,1,3,1,-7,-1,1,2
1558440171975125,2,0,-1,-1,6,5,-2,1
1558440171997195,-1,1,7,2,-4,-6,-3,-3
1558440171997195,-2,-3,-4,2,2,6,-1,-1
1558440171999066,0,2,-3,-6,2,-6,1,0
1558440171999066,3,-2,-2,-3,-13,-17,-9,-5
1558440172012160,-1,3,5,5,-3,2,-6,-3
1558440172012160,-2,-3,-5,-3,-3,-5,5,2
1558440172014023,-1,1,1,-1,6,0,0,1
1558440172014023,-4,-4,-8,-4,-6,2,-4,-3
1558440172026204,-1,-1,0,-1,-6,-3,-7,-4
1558440172026204,-1,-1,3,3,-3,-1,0,-1
1558440172035000,-2,-2,-1,-3,-1,1,1,-2
1558440172035000,0,1,1,4,6,2,4,3
1558440172047963,-1,-2,3,-3,3,-3,5,3
1558440172047963,-1,0,-1,-3,-2,-5,-4,-4
1558440172056907,0,-2,-4,-1,-2,2,1,-1
1558440172056907,-1,-1,2,1,-3,-2,-4,-2
1558440172071866,-3,-4,-10,-10,-8,-9,-10,-3
1558440172071866,-1,2,9,6,-1,5,7,1
1558440172073862,0,0,-5,-4,3,2,2,0
1558440172073862,-1,0,-1,-1,1,7,6,2
1558440172085866,1,3,5,9,10,3,-2,-1
1558440172085866,-5,-5,-11,-10,-19,-11,-7,-5
1558440172094804,0,-3,4,2,0,-5,-6,-3
1558440172094804,-3,-2,-3,-1,1,2,2,0
1558440172107770,0,-3,1,3,3,3,2,0
1558440172107770,0,0,-3,-10,1,3,-5,0
1558440172116746,1,2,1,2,1,-2,0,0
1558440172116746,2,-3,2,-3,-1,-6,-3,-4
1558440172131707,-4,-1,-2,-2,-2,0,0,-1
1558440172131707,0,-1,-3,-5,-6,-4,-3,-2
1558440172139099,1,0,0,0,2,0,-2,-2
1558440172139099,-1,-2,-7,-5,-8,-3,-3,-2
1558440172146138,-2,0,-2,1,5,1,0,1
1558440172146138,-1,0,3,3,0,1,0,1
1558440172154810,-1,1,-6,-6,-10,-7,1,0
1558440172154810,1,2,5,3,8,8,1,1
1558440172168609,1,-1,7,4,3,0,2,0
1558440172168609,-2,-3,-15,-5,-5,-10,-8,-3
1558440172177606,1,1,12,7,4,-1,6,4
1558440172177606,-3,-3,-13,-13,-9,-10,-3,-2
1558440172191871,-2,-5,-6,-7,-6,-3,-5,-4
1558440172191871,0,-1,4,2,4,8,0,-2
1558440172198850,-3,-2,1,4,10,5,-2,1
1558440172198850,0,1,1,5,9,5,11,5
1558440172205761,-2,2,2,1,-4,-1,2,0
1558440172205761,0,-3,2,4,4,6,-2,-3
1558440172214685,-3,-3,-10,-13,-16,-2,-8,-5
1558440172214685,0,-1,1,0,2,-11,-1,0
1558440172228647,-1,1,-2,-2,6,4,5,2
1558440172228647,0,4,4,7,7,-1,2,3
1558440172237437,1,0,-1,-1,4,1,0,0
1558440172237437,-1,1,2,-2,-6,-6,-8,-4
1558440172251425,-6,-2,-6,-5,-12,-8,-5,-4
1558440172251425,-2,-3,-7,-3,-5,0,0,0
1558440172275322,2,0,1,4,13,4,5,3
1558440172275322,-2,-2,0,-1,-4,-7,1,1
1558440172276320,0,-3,2,0,0,-2,-4,-3
1558440172276320,-1,-2,0,-2,-2,8,4,-2
1558440172277317,-4,-3,-4,-5,-17,-11,-10,-6
1558440172277317,-2,-4,-5,-3,-7,-4,-3,-5
1558440172288633,2,-1,-2,1,-2,-9,1,0
1558440172288633,5,4,8,6,20,5,11,9
1558440172297265,-2,-1,1,3,-2,0,-4,-4
1558440172297265,-5,-3,0,-2,0,8,-3,-3
1558440172311226,-1,0,-10,-2,-1,0,-1,1
1558440172311226,-3,-2,-9,-8,-18,-23,-11,-4
1558440172318209,0,-1,0,2,-3,5,7,2
1558440172318209,1,1,2,8,16,14,4,4
1558440172334164,-1,-2,6,-1,-2,6,-4,-3
1558440172334164,-1,-1,5,6,4,9,5,0
1558440172336159,0,1,0,-6,-8,-16,-7,-1
1558440172336159,-1,-2,-9,-3,-2,6,-1,-1
1558440172348127,3,-2,0,-1,2,-8,-1,2
1558440172348127,-1,-2,-5,-4,-11,-5,-3,-3
1558440172357106,-1,-2,3,3,1,5,0,-1
1558440172357106,-1,-3,1,-2,-3,4,-3,-4
1558440172372183,-1,0,-2,-2,-5,-9,-2,-2
1558440172372183,-3,-1,3,3,1,4,-2,-2
1558440172386390,0,0,-1,2,5,3,7,4
1558440172386390,1,2,-1,-2,-6,-16,-2,1
1558440172395336,-4,-2,-3,-1,4,12,-1,-2
1558440172395336,-3,-3,-3,-2,-12,-7,-6,-5
1558440172396001,-1,0,1,-3,5,2,-1,-2
1558440172396001,0,0,-2,-3,-8,-10,-8,-4
1558440172408277,2,0,0,2,2,3,5,1
1558440172408277,0,2,2,-1,1,2,2,0
1558440172434104,1,-3,-2,-1,-2,-8,-5,-1
1558440172434104,0,1,-2,0,6,7,8,5
1558440172434104,-4,-2,-3,1,5,10,-2,-3
1558440172434104,0,0,0,-4,3,0,-1,0
1558440172438927,0,1,-2,-2,-1,-3,0,0
1558440172438927,-3,-4,-2,-3,-14,-10,-9,-7
1558440172455083,2,3,1,1,-1,-11,2,4
1558440172455083,1,-2,2,4,8,1,3,1
1558440172455841,-3,-3,-6,0,-2,1,-5,-4
1558440172455841,-1,-2,0,-8,-9,-3,-2,-5
1558440172469058,-2,-1,-1,-2,1,11,4,-3
1558440172469058,-3,-2,-8,-4,-9,-17,-8,-1
1558440172477028,0,0,-2,2,4,4,5,2
1558440172477028,-2,0,-6,-1,3,1,2,0
1558440172492000,-2,-4,1,-2,-7,-5,-5,-1
1558440172492000,1,4,4,4,4,9,7,3
1558440172498725,-2,-3,2,-2,-1,-8,-5,-4
1558440172498725,-4,-5,-8,-3,2,-4,-5,-2
1558440172514686,-2,-4,-3,-2,-7,6,1,-2
1558440172514686,-1,-3,0,-3,-1,1,-3,-2
1558440172515680,1,1,3,2,3,-2,5,3
1558440172515680,-1,-1,4,7,15,5,2,2
1558440172528645,-2,-1,-4,-11,-11,-2,-4,-2
1558440172528645,-6,-7,-13,-8,-12,-4,-10,-7
1558440172536632,1,3,0,-2,2,1,1,0
1558440172536632,2,0,6,7,0,-5,-1,3
1558440172551584,-3,-6,-16,-4,-2,-2,-1,-2
1558440172551584,1,2,3,4,7,13,7,0
1558440172559747,-1,-2,0,-4,-5,-3,-5,-3
1558440172559747,-1,-2,-1,-3,3,2,1,2
1558440172574960,-1,-1,0,-9,-4,0,-7,-4
1558440172574960,-2,-2,-4,-2,-8,-7,-3,-4
1558440172575521,2,0,3,7,7,-1,9,4
1558440172575521,1,3,5,1,-7,-9,-4,0
1558440172588984,-2,-3,4,3,1,-1,-2,0
1558440172588984,-2,-3,-2,-2,0,2,-4,0
1558440172597461,-4,-2,-7,-8,-11,-8,-8,-3
1558440172597461,3,-1,-4,1,10,8,9,2
1558440172611931,2,3,10,7,-3,-5,-3,-3
1558440172611931,-1,-4,-13,-8,-4,-2,0,0
1558440172618896,1,-3,-3,1,3,-1,-3,-1
1558440172618896,-4,-2,-2,-2,-4,3,2,0
1558440172635359,-4,-3,-5,-3,-5,3,2,-3
1558440172635359,0,1,9,2,6,-4,-4,0
1558440172636358,-2,-2,0,-2,-3,3,-6,-2
1558440172636358,-3,-1,-2,-6,-9,-4,-2,-5
1558440172648599,1,1,3,7,17,7,5,3
1558440172648599,1,0,4,-2,-6,-15,-2,0
1558440172657302,-3,-3,-4,-10,-9,-5,-4,-2
1558440172657302,-3,-3,-2,-2,-8,-1,-6,-4
1558440172671478,0,0,0,2,1,3,-1,-1
1558440172671478,1,-1,-3,-2,-2,-6,-3,-2
1558440172678473,-1,2,2,4,15,17,12,4
1558440172678473,0,0,3,0,0,-6,-2,1
1558440172695201,-4,-3,-7,-6,-13,-12,-12,-6
1558440172695201,-2,1,2,4,3,1,5,2
1558440172696206,-4,-2,-4,-5,-9,-12,-7,-4
1558440172696206,-2,-2,-3,-4,-4,6,2,-2
1558440172708296,1,1,0,4,10,-1,3,4
1558440172708296,-1,-2,-3,-4,-9,-6,-8,-5
1558440172717143,0,-4,-2,0,6,14,1,0
1558440172717143,3,1,2,1,1,-8,0,2
1558440172731114,-1,0,0,-1,4,-3,2,1
1558440172731114,-4,-2,2,-2,1,3,3,0
1558440172738088,-1,-2,-4,3,-4,-1,-5,-4
1558440172738088,-3,-5,-7,-7,-4,-5,-10,-6
1558440172754043,0,-1,1,0,-3,4,5,1
1558440172754043,0,-1,-1,-2,0,-1,-1,-1
1558440172756037,1,3,11,4,0,-5,-3,-2
1558440172756037,-4,-6,-12,-7,-8,-5,-6,-4
1558440172769044,1,2,6,2,4,-3,2,2
1558440172769044,0,1,2,2,-3,-1,-2,-3
1558440172777208,-4,-7,-14,-6,-2,7,-2,-4
1558440172777208,-1,1,7,4,0,-5,-1,0
1558440172792065,3,0,-5,0,9,-2,8,4
1558440172792065,-1,-2,-1,-2,-4,-1,-5,-4
1558440172798226,-2,0,2,-3,-12,-6,-5,-3
1558440172798226,-1,0,1,1,12,14,5,3
1558440172815181,0,-3,-1,3,2,4,4,1
1558440172815181,0,0,2,1,15,1,1,2
1558440172815879,0,-1,-3,-1,-4,0,0,-2
1558440172815879,-2,2,0,-1,-6,-2,-5,-2
1558440172828933,-3,-2,-5,-5,-15,-11,-11,-4
1558440172828933,-1,0,-1,-3,2,-7,3,4
1558440172837102,2,1,2,1,0,-2,2,1
1558440172837102,-1,-1,-1,-3,-11,-11,-6,-2
1558440172852042,1,1,2,8,9,10,2,1
1558440172852042,-4,-7,-7,-10,-21,-10,-7,-6
1558440172857768,-2,1,-1,-1,-4,-7,-3,-2
1558440172857768,1,2,8,5,4,8,3,-2
1558440172874930,1,0,0,-6,-7,-16,-8,-5
1558440172874930,-2,-6,-13,1,7,19,9,2
1558440172875721,-2,-3,0,-1,-1,-14,-1,2
1558440172875721,-1,1,-3,-2,-1,2,1,0
1558440172897802,-3,-5,2,-3,-7,1,-9,-7
1558440172897802,-2,1,2,-1,-4,-1,-5,-3
1558440172898660,1,0,-1,-3,0,-8,2,2
1558440172898660,-1,0,-1,0,1,-4,1,0
1558440172911863,-4,0,-1,0,1,0,2,1
1558440172911863,0,0,-2,1,0,3,0,-2
1558440172918849,1,-1,-2,-1,5,8,1,-2
1558440172918849,0,-2,0,-5,-7,-1,-6,-4
1558440172934780,1,0,-2,-3,-4,-6,-1,-2
1558440172934780,0,0,-3,1,5,4,5,5
1558440172935566,0,-1,1,3,8,12,5,0
1558440172935566,0,-2,-3,1,4,-1,3,1
1558440172948524,-1,-4,-5,-4,-7,-5,-2,0
1558440172948524,0,1,4,1,0,-1,-1,0
1558440172957528,-6,-4,-2,-5,-9,0,-8,-7
1558440172957528,0,-5,-1,1,-2,3,-3,-2
1558440172971783,-1,-1,-3,-4,-3,-4,3,2
1558440172971783,0,0,4,6,1,-5,-5,-2
1558440172978759,-2,0,-2,-4,-1,5,1,0
1558440172978759,-2,0,-4,-4,-3,-5,-2,-3
1558440172994714,-3,-3,-4,-2,-2,0,-5,-2
1558440172994714,4,2,1,4,6,2,3,2
1558440172996729,-2,1,2,-1,-2,-2,-1,-1
1558440172996729,1,-1,0,4,7,8,8,3
1558440173008363,-1,0,-1,-4,-7,-4,-5,-3
1558440173008363,-3,-2,-5,-6,-13,-1,-7,-6
1558440173017339,0,2,2,2,11,-10,3,6
1558440173017339,-2,-1,-2,-2,-4,-5,-5,-3
1558440173031628,-1,-2,0,1,-4,4,3,0
1558440173031628,2,1,3,2,5,0,1,-3
1558440173038595,-1,-1,-2,-4,-8,0,-5,-2
1558440173038595,0,-3,-5,-5,-4,-9,-3,-1
1558440173062223,5,4,5,5,26,26,20,9
1558440173062223,-2,0,2,-3,-1,2,-4,-1
1558440173063242,-3,-6,-4,-3,-12,-16,-7,-2
1558440173063242,0,3,-1,1,5,-11,0,1
1558440173068405,-4,-3,-5,-5,-14,-4,-12,-7
1558440173068405,0,3,0,2,5,3,9,4
1558440173077178,0,1,4,1,11,15,6,3
1558440173077178,-2,-4,-5,-5,-15,-4,-8,-7
1558440173092139,-1,-1,-2,-2,4,0,-5,-3
1558440173092139,-5,-4,-4,-5,-5,-6,-10,-6
1558440173098332,0,0,-2,-2,-11,-6,-9,-4
1558440173098332,4,4,4,4,13,12,16,6
1558440173114078,-2,-3,-3,2,3,2,6,4
1558440173114078,-4,-4,-1,-6,-10,-1,-4,-5
1558440173121059,0,-2,-3,-1,1,1,-1,-2
1558440173121059,-1,-1,1,0,0,3,-1,0
1558440173128044,0,0,-1,-3,-5,-13,0,-3
1558440173128044,0,-2,-3,-4,-5,-15,-8,-4
1558440173137018,0,-1,2,2,-7,1,-2,-2
1558440173137018,1,-2,-6,0,12,20,5,2
1558440173151014,-1,-1,0,-4,-4,-5,1,-1
1558440173151014,0,-1,-1,-1,7,-1,0,1
1558440173157962,-1,-4,-1,-3,-8,-4,-7,-5
1558440173157962,-2,-1,1,2,-1,-5,0,-2
1558440173173930,-3,-3,-4,0,-4,-8,-10,-7
1558440173173930,-2,-4,-2,-2,-4,0,0,0
1558440173181249,0,0,0,1,9,5,8,3
1558440173181249,-2,1,7,2,7,7,3,3
1558440173188956,0,0,0,5,9,8,3,1
1558440173188956,-2,-2,-12,-7,-15,-10,-10,-5
1558440173197196,-1,-2,-5,-5,-2,-5,-4,-4
1558440173197196,1,-1,0,1,-13,-13,-3,-1
1558440173211169,-1,1,3,0,11,5,-1,0
1558440173211169,2,3,4,5,5,3,7,5
1558440173219800,1,2,7,3,3,0,-2,-1
1558440173219800,-3,-4,-11,-3,-6,-4,-3,-2
1558440173234756,0,-3,-7,-10,-8,-1,-6,-2
1558440173234756,0,-1,-1,-1,0,-1,-2,1
1558440173240740,0,-2,0,1,1,-2,5,2
1558440173240740,0,-1,5,0,0,-5,1,-2
1558440173256699,0,-2,-2,1,-3,-2,-3,-3
1558440173256699,-4,-2,-2,-4,-9,-8,-4,-4
1558440173258701,1,0,-3,-1,-2,5,4,0
1558440173258701,-2,0,-1,-2,-3,-7,-9,-2
1558440173270972,-2,0,-2,-1,2,3,-2,-3
1558440173270972,-3,-3,0,0,0,4,2,0
1558440173279640,-2,-3,-7,-3,2,0,-2,-2
1558440173279640,4,2,0,1,11,9,12,6
1558440173293854,0,3,5,4,9,3,1,3
1558440173293854,-1,-2,2,0,-1,-1,-2,-3
1558440173300848,-3,0,-1,-2,0,3,1,0
1558440173300848,-3,-4,-8,-6,-13,-17,-10,-7
1558440173317786,-5,-6,-8,-7,-9,-6,-4,-2
1558440173317786,0,-1,2,-1,-3,-2,-4,0
1558440173318539,0,-1,-3,-2,4,3,3,2
1558440173318539,-1,1,1,-1,-7,-12,-5,1
1558440173331499,0,-2,-3,0,-1,0,-3,-1
1558440173331499,-2,1,-3,-4,1,7,4,0
1558440173339477,-5,-3,-5,0,-11,-5,-6,-5
1558440173339477,-1,-1,2,2,1,5,-2,-2
1558440173353757,1,0,2,-7,2,3,6,2
1558440173353757,-1,-2,1,2,4,5,4,3
1558440173361669,1,0,4,0,-6,-1,-3,-5
1558440173361669,-4,-3,-9,-5,-4,3,-4,-3
1558440173377867,-2,0,-4,0,-7,-23,-8,-2
1558440173377867,3,2,5,9,10,6,7,2
1558440173378372,0,-3,-6,-14,-9,-8,-3,0
1558440173378372,0,-1,1,1,-1,7,-3,-2
1558440173391513,-2,-2,-2,1,-4,4,2,-3
1558440173391513,1,0,-1,-4,-1,-4,2,-1
1558440173399783,-3,-2,0,5,-3,-13,-6,-3
1558440173399783,-1,-2,3,-1,-1,2,3,-2
1558440173414648,-1,2,4,2,6,7,-1,2
1558440173414648,-1,-2,-1,-3,-7,-4,-1,-2
1558440173421587,-3,-1,-1,-2,-5,-9,-7,-3
1558440173421587,-3,-4,-9,-6,-4,6,0,-3
1558440173437575,0,0,5,4,4,4,5,2
1558440173437575,-1,-1,-4,-4,-1,-7,-2,-2
1558440173438211,2,0,-1,2,7,8,3,2
1558440173438211,-1,-2,-2,-5,-12,-8,-9,-6
1558440173451491,0,0,-2,-1,-8,-3,3,0
1558440173451491,6,6,15,7,16,4,5,6
1558440173459440,-2,-7,-10,-1,14,12,4,0
1558440173459440,-2,-2,-1,-3,3,5,2,2
1558440173474116,-3,-4,-2,-4,-9,-4,-4,-4
1558440173474116,-1,0,1,-1,-3,-3,-5,-2
1558440173481368,-1,3,1,-1,-11,-9,-7,-5
1558440173481368,1,-1,0,0,0,0,-2,-2
1558440173497272,-1,-2,2,3,5,10,6,3
1558440173497272,-1,0,-2,3,2,-1,6,2
1558440173498058,1,-2,-1,-5,6,5,2,2
1558440173498058,-2,-1,1,0,-1,3,-3,-3
1558440173511266,-5,-4,-4,-5,-21,-16,-9,-8
1558440173511266,-1,-1,-4,0,1,2,4,2
1558440173520002,4,0,1,3,8,-11,-1,2
1558440173520002,-1,0,1,0,-12,-13,-1,-1
1558440173541934,3,0,2,2,15,15,7,3
1558440173541934,-2,1,0,-1,3,1,-1,-2
1558440173543929,-4,-3,-2,-2,-9,-1,-5,-6
1558440173543929,1,-3,-4,0,-2,-8,-5,-2
1558440173556894,1,0,2,-1,-4,-6,-2,-2
1558440173556894,-4,-5,-14,-5,-11,-2,-6,-4
1558440173558888,-1,2,4,4,1,6,2,2
1558440173558888,-1,-1,-4,-9,1,-5,-2,1
1558440173579871,2,2,5,8,5,2,3,1
1558440173579871,1,0,0,-1,5,2,1,2
1558440173580831,0,3,4,1,3,3,2,0
1558440173580831,-2,-2,-4,3,2,-4,0,-1
1558440173594800,-3,-2,-10,-6,-4,-5,-6,-3
1558440173594800,-2,-3,0,-6,-11,-9,-8,-5
1558440173601277,0,-2,-4,-2,-2,5,6,0
1558440173601277,-2,-1,1,-3,-6,-1,-6,-5
1558440173617180,0,-2,-2,-1,-11,-4,-1,-1
1558440173617180,1,0,4,4,15,10,3,5
1558440173618745,0,0,-2,-1,-3,-6,2,1
1558440173618745,-2,1,4,2,7,7,4,1
1558440173630698,-5,-2,-4,-5,0,-2,-4,-4
1558440173630698,-2,-3,-1,-4,-17,-15,-10,-6
1558440173639675,-4,-3,-2,-1,-7,-10,-7,-3
1558440173639675,-1,0,-3,-3,1,10,7,3
1558440173654632,-2,-1,-2,3,12,8,-1,0
1558440173654632,1,-1,1,1,3,4,5,1
1558440173660961,4,2,1,-4,7,-1,-2,1
1558440173660961,-4,-4,-5,-2,-9,-12,-1,-4
1558440173677836,2,2,6,0,2,0,-3,0
1558440173677836,-6,-8,-13,-4,-9,4,-8,-7
1558440173678570,-1,-3,-3,-5,-15,-8,-3,-6
1558440173678570,-1,-3,-1,0,6,1,-1,0
1558440173690539,4,4,6,6,12,12,15,9
1558440173690539,-2,1,2,0,2,-3,3,2
1558440173699633,-1,-1,-2,1,1,6,0,-2
1558440173699633,0,1,0,0,-5,1,-5,-3
1558440173714631,-3,-3,-4,-5,-9,-8,-8,-7
1558440173714631,-2,-1,-1,-4,-7,-2,-4,-4
1558440173721491,-2,-3,-3,1,1,7,2,0
1558440173721491,1,1,4,1,10,4,6,6
1558440173737667,0,-1,-1,-3,-6,-19,-5,1
1558440173737667,-2,-1,-2,1,-1,10,4,-1
1558440173738417,2,2,1,2,3,8,3,2
1558440173738417,-1,0,1,0,1,8,-2,-5
1558440173750376,-2,-3,-11,-10,-8,-12,-2,-3
1558440173750376,-3,-2,0,0,-2,-11,-2,0
1558440173759352,-2,-3,-4,-4,4,3,1,0
1558440173759352,1,-1,2,5,6,1,8,3
1558440173774312,0,-3,0,0,1,6,-6,-5
1558440173774312,-1,-2,-1,-3,1,0,-3,-5
1558440173781711,1,0,3,3,0,-21,3,4
1558440173781711,-1,1,-2,-3,-4,-7,-7,-4
1558440173797690,-2,0,0,-2,-8,0,-4,0
1558440173797690,1,-1,-2,-2,1,4,-6,-1
1558440173799333,-2,-3,1,0,-2,3,-1,-1
1558440173799333,2,1,1,-1,5,2,1,2
1558440173811548,-3,-3,-5,-5,-9,-9,-7,-3
1558440173811548,-1,-4,-3,-4,-11,-5,-3,-1
1558440173819530,1,2,-3,1,17,9,6,4
1558440173819530,0,0,4,4,1,-3,3,3
1558440173834153,-3,-2,-2,-4,-5,0,-5,-5
1558440173834153,-4,0,-3,1,6,2,2,2
1558440173841133,-2,-1,-2,-4,-5,2,-3,-3
1558440173841133,-3,-5,-3,-8,-23,-7,-5,-5
1558440173857091,2,0,3,8,20,6,9,3
1558440173857091,-1,-1,-6,0,-2,-14,0,0
1558440173858088,-4,-2,-2,-5,-5,-1,-4,-3
1558440173858088,-1,0,-2,1,9,4,-4,-1
1558440173871056,0,-2,2,-1,-15,-9,-6,-4
1558440173871056,-1,-2,0,1,6,6,-1,-1
1558440173880029,-5,-5,-3,-3,-14,-7,-9,-6
1558440173880029,2,2,2,3,1,0,-1,2
1558440173894283,-2,1,2,1,4,-1,5,3
1558440173894283,-2,0,1,-1,0,2,1,-2
1558440173901289,-2,-1,3,-1,-3,-2,-5,-3
1558440173901289,-4,-6,-14,-3,-6,-5,-5,-4
1558440173917198,2,1,3,5,4,7,2,2
1558440173917198,-1,-1,-3,-12,-13,-6,-6,-2
1558440173918929,-1,-2,-7,-2,-6,-6,-2,-1
1558440173918929,3,4,6,1,-1,1,1,0
1558440173931154,-2,1,-1,3,4,-5,3,2
1558440173931154,-2,-2,-5,0,-4,1,-2,-3
1558440173939873,0,-3,1,5,7,15,8,3
1558440173939873,-1,-2,-3,-5,-1,-21,-6,2
1558440173954086,0,-1,-2,1,-1,6,2,1
1558440173954086,-1,1,6,3,1,9,3,0
1558440173960814,-1,0,-2,-3,-9,-1,-2,-2
1558440173960814,0,-1,-1,-1,3,1,-2,-1
1558440173977133,0,-1,1,-4,-3,-6,0,1
1558440173977133,0,-2,3,1,-1,-3,-6,-3
1558440173978767,-1,-4,-1,1,-15,-12,-7,-6
1558440173978767,4,3,-2,-7,13,6,8,3
1558440173990846,0,2,0,2,6,0,-1,0
1558440173990846,2,1,0,2,5,-9,-1,2
1558440173999712,-1,-1,4,2,0,1,-1,1
1558440173999712,-5,-4,-5,0,-5,5,-3,-6
1558440174014015,-3,-3,-3,-7,-15,-9,-8,-6
1558440174014015,-1,-1,-5,-4,-2,5,-2,-1
1558440174021007,1,1,0,1,4,1,-4,0
1558440174021007,-1,-2,2,-1,-5,-14,-1,1
1558440174036972,-1,-1,-3,-1,2,3,-1,-1
1558440174036972,-4,-2,1,2,-1,1,-3,-3
1558440174043943,0,0,0,0,1,-6,2,1
1558440174043943,-3,-3,-3,-4,-7,-2,-10,-6
1558440174050933,-2,-4,-6,-6,2,7,4,0
1558440174050933,1,0,2,1,3,-8,2,2
1558440174059606,-1,0,0,0,-6,2,5,1
1558440174059606,-1,0,1,2,2,0,-1,-3
1558440174074666,-4,-7,-4,-5,-6,-12,-13,-6
1558440174074666,2,1,2,0,4,6,9,5
1558440174080494,-2,-3,1,-3,4,9,0,0
1558440174080494,-3,2,2,2,-8,-7,-5,-5
1558440174096728,-4,-4,-9,-4,-7,-3,-3,-1
1558440174096728,0,0,-4,-3,3,6,1,-1
1558440174103723,1,-2,-2,-2,-3,-4,0,-2
1558440174103723,1,1,5,3,8,-8,3,4
1558440174111411,-1,0,3,-2,-4,0,-4,-2
1558440174111411,-1,1,-2,-2,-2,5,1,0
1558440174119604,-1,-1,-5,-3,-10,-7,-5,-3
1558440174119604,-6,-7,-7,-5,-7,0,-9,-4
1558440174134561,3,3,4,3,3,2,10,4
1558440174134561,0,-2,2,0,0,-4,0,2
1558440174140335,-3,-2,-3,-2,-4,2,-5,-3
1558440174140335,-1,0,-2,-4,-1,-6,1,2
1558440174156293,0,0,3,0,-4,-10,-4,-3
1558440174156293,-1,-2,-11,0,-2,7,4,-1
1558440174163301,1,3,3,1,12,5,2,2
1558440174163301,-2,-4,-12,-9,-5,-1,-3,-2
1558440174170255,-1,0,2,0,-9,-5,-3,-1
1558440174170255,-3,-3,0,1,7,1,0,-4
1558440174185212,-2,0,2,-1,1,-5,0,0
1558440174185212,1,-5,-3,-1,-5,2,2,-1
1558440174194228,1,-1,1,-1,2,1,-2,-1
1558440174194228,1,0,0,-3,-13,-20,-10,-3
1558440174200210,-1,1,1,-6,3,5,5,5
1558440174200210,2,5,8,6,5,10,10,2
1558440174216129,-3,-1,1,4,11,17,4,-2
1558440174216129,-4,-6,-8,-9,-7,-4,-6,-4
1558440174223112,-1,-1,-1,2,5,-2,-5,-2
1558440174223112,-2,0,-1,-1,-14,-13,-8,-4
1558440174239070,3,2,1,0,13,8,12,7
1558440174239070,0,2,9,2,-2,0,-2,-1
1558440174241253,-3,-6,-7,-4,-15,-4,-7,-6
1558440174241253,-2,-1,0,0,12,16,8,2
1558440174254484,0,0,-4,-5,1,-16,-8,-2
1558440174254484,-2,-4,1,2,2,1,-1,-1
1558440174261473,0,0,-2,-2,5,-6,-3,-2
1558440174261473,1,1,10,4,10,27,13,6
1558440174285362,-4,-1,-4,-1,-2,0,-3,-2
1558440174285362,-3,-3,-9,-4,-5,-4,-6,-2
1558440174285949,-4,-3,-3,-7,-11,-13,-11,-5
1558440174285949,-3,-5,-5,-2,-11,-13,-9,-6
1558440174300375,2,0,6,5,9,5,7,3
1558440174300375,2,2,3,1,1,-7,3,1
1558440174301993,2,1,1,3,5,7,4,0
1558440174301993,-2,-3,-8,-5,0,-1,-7,-5
1558440174314227,-4,-6,-6,-7,-15,-15,-9,-9
1558440174314227,-4,-3,-2,-2,-5,10,-2,-2
1558440174321225,0,0,-2,-2,0,-10,2,2
1558440174321225,3,3,4,2,9,-2,6,2
1558440174337091,0,1,-2,1,-4,16,2,0
1558440174337091,-4,-4,-5,-4,-1,-9,-6,-4
1558440174343918,-4,-2,0,3,0,9,1,0
1558440174343918,1,1,0,1,6,4,5,1
1558440174360042,-3,-2,-3,-4,-6,-12,-8,-3
1558440174360042,0,-2,2,-3,-15,-8,-9,-6
1558440174360745,-1,0,6,2,7,3,2,1
1558440174360745,-4,-2,-7,-2,-5,-2,2,1
1558440174373711,0,-1,0,3,10,-2,3,2
1558440174373711,1,0,-2,-2,-2,1,3,0
1558440174380722,-1,-2,-4,-2,-11,-13,-8,-4
1558440174380722,0,1,5,4,19,20,8,3
1558440174396990,-4,-2,-1,-9,-21,-8,-5,-3
1558440174396990,-2,-4,-2,0,15,9,-1,-2
1558440174403974,1,-1,-4,-3,-5,2,1,1
1558440174403974,-1,0,0,0,0,-12,-4,0
1558440174419930,-2,-2,-4,-5,2,2,-6,-5
1558440174419930,3,2,12,4,-9,3,8,3
1558440174421766,1,-1,-5,0,11,12,3,0
1558440174421766,-3,-4,-10,-6,-10,-8,-8,-4
1558440174434704,-2,0,-4,-1,-1,-9,-1,-2
1558440174434704,-1,-2,-5,-3,-9,-11,-6,-2
1558440174440532,1,2,5,5,11,7,5,3
1558440174440532,1,-1,3,-4,-10,-7,-8,-4
1558440174464764,-1,1,0,1,8,17,6,2
1558440174464764,-1,3,0,4,8,-3,4,4
1558440174466467,-2,-3,-4,-3,0,-1,1,0
1558440174466467,-5,-3,-2,-6,-17,-9,-10,-8
1558440174479471,2,0,3,3,-3,-1,-1,-1
1558440174479471,-3,-3,-9,-4,2,-1,-4,-2
1558440174481422,0,0,2,2,-8,5,9,1
1558440174481422,3,4,5,2,9,3,3,1
1558440174494624,-4,-6,-4,-5,-9,-9,-10,-7
1558440174494624,-1,-1,-7,-4,-1,-12,0,1
1558440174500639,-1,-1,4,0,-3,-9,-6,-4
1558440174500639,-2,-6,-8,-2,-8,2,-6,-3
1558440174516596,0,0,2,2,3,6,5,1
1558440174516596,-2,0,-1,-4,-2,-3,-3,-4
1558440174523316,-2,-1,-1,-2,-6,-13,-3,1
1558440174523316,-1,0,8,4,10,6,4,2
1558440174539269,1,-5,-6,0,4,10,0,-1
1558440174539269,0,0,1,-2,1,5,3,0
1558440174541263,-3,-2,-2,-6,-10,-11,-9,-7
1558440174541263,1,0,-1,-2,-4,-1,0,0
1558440174554505,2,0,-2,-2,-2,-13,1,3
1558440174554505,-2,-3,-1,1,-6,8,-1,-1
1558440174560209,1,0,2,2,11,6,6,3
1558440174560209,-2,-2,-2,-7,-13,-11,-8,-5
1558440174576518,-1,1,4,-2,-11,-1,-1,-1
1558440174576518,0,2,3,2,10,9,7,4
1558440174583510,-3,-1,0,-2,-4,-2,-4,-6
1558440174583510,-4,-6,-6,-5,-5,-11,-4,-2
1558440174607086,-1,-2,-8,1,-3,10,4,1
1558440174607086,3,1,-1,0,6,-1,-2,-1
1558440174608140,-2,1,0,-2,-3,-1,-4,0
1558440174608140,0,2,9,5,3,4,4,1
1558440174614494,-1,0,-1,-3,-1,-14,-6,-5
1558440174614494,-2,-4,-11,-7,1,1,1,1
1558440174621546,-2,0,2,0,-5,-2,-2,-1
1558440174621546,1,1,-6,-2,-8,-2,0,1
1558440174645324,-1,-2,5,2,2,6,-3,0
1558440174645324,0,-1,3,4,1,3,-1,-1
1558440174645981,-2,-4,-8,-3,-1,-4,-2,-1
1558440174645981,-2,1,-1,-2,2,0,-4,-1
1558440174660300,0,0,2,0,3,-4,-2,-1
1558440174660300,-2,-4,0,-3,-12,-11,-7,-5
1558440174660943,-3,-6,-12,-5,-1,2,-2,-2
1558440174660943,-2,-1,-2,-1,-1,-1,1,1
1558440174673906,0,0,-3,0,5,1,1,-2
1558440174673906,-2,1,0,1,-10,-5,-2,-2
1558440174681183,2,0,-4,-8,1,9,-1,-1
1558440174681183,1,0,4,5,-2,1,-2,-2
1558440174697029,-1,-5,-4,-7,-5,-10,-7,-2
1558440174697029,0,0,-3,2,7,6,11,4
1558440174703826,1,-1,0,0,0,-6,1,-1
1558440174703826,-1,-3,-5,-2,2,1,-4,-1
1558440174718789,-1,0,6,0,-9,-3,1,0
1558440174718789,-3,-5,-7,-6,-1,0,-8,-7
1558440174727070,-1,-2,4,3,-8,4,2,3
1558440174727070,0,-1,-4,-1,16,5,7,3
1558440174741725,-1,-1,-3,-4,-5,-5,-8,-5
1558440174741725,-1,-3,0,0,-1,-3,-2,-3
1558440174743722,2,3,5,-1,2,-9,2,1
1558440174743722,-3,-1,5,2,-8,-6,-5,-2
1558440174772049,-5,-1,-5,-4,0,1,-4,-5
1558440174772049,-4,-2,-1,-5,-15,-9,-6,-4
1558440174773640,1,0,0,3,1,-2,-1,-1
1558440174773640,2,1,2,-1,-4,7,9,4
1558440174779622,3,0,-5,3,24,11,9,5
1558440174779622,0,-1,6,1,-14,-8,-7,-2
1558440174780620,-2,-4,-13,-4,2,-3,-3,-4
1558440174780620,-1,-3,0,-2,3,-12,-3,1
1558440174793886,2,2,6,4,3,11,8,5
1558440174793886,-2,-2,-8,-2,-1,3,-4,-3
1558440174809545,0,1,2,2,-3,1,0,-1
1558440174809545,-3,-4,-8,-4,-8,-5,-6,-5
1558440174816792,-1,-2,-1,0,-6,-4,-2,-1
1558440174816792,3,4,12,4,6,-4,4,6
1558440174823507,-3,-1,-5,-3,0,1,-6,-2
1558440174823507,-1,0,-2,1,0,1,0,-3
1558440174838787,-1,-1,-3,3,-1,2,-7,-6
1558440174838787,-3,-2,-6,-11,0,3,3,-1
1558440174847443,-3,0,-1,-2,-8,-14,2,3
1558440174847443,1,2,6,0,10,12,4,2
1558440174853736,-3,0,-2,1,-1,0,-3,-2
1558440174853736,2,2,15,14,10,6,6,1
1558440174862435,-5,-10,-24,-15,-15,-11,-9,-4
1558440174862435,-3,-4,-11,-12,-6,-8,-2,-1
1558440174876667,1,0,2,0,-1,1,2,0
1558440174876667,-2,-3,0,-5,-10,-6,-13,-8
1558440174883645,3,3,13,7,10,4,4,6
1558440174883645,-1,2,1,6,6,0,0,0
1558440174899570,-2,-2,-3,-5,-8,-6,-6,-4
1558440174899570,-1,-4,-7,-4,-13,-10,-3,0
1558440174901299,4,3,7,5,22,16,7,3
1558440174901299,-2,-4,-6,-3,-11,-4,-8,-6
1558440174930289,-2,-2,-1,-1,2,-1,2,1
1558440174930289,0,-1,-1,-1,-10,-5,-2,-2
1558440174931220,-1,-1,-5,-7,-5,1,0,-3
1558440174931220,1,4,11,5,10,-4,3,2
1558440174936470,-4,-5,-5,-4,-6,2,7,-1
1558440174936470,1,0,-7,5,10,4,7,3
1558440174943446,0,-1,4,0,3,-1,-5,-5
1558440174943446,-2,-2,0,-5,-9,-8,-11,-7
1558440174967367,-1,-4,-8,-5,-12,-6,-8,-2
1558440174967367,-1,1,2,3,9,6,8,4
1558440174968121,-1,0,5,4,-4,-4,0,2
1558440174968121,-1,-2,-5,0,0,9,6,1
1558440174973109,-1,-2,0,-3,-2,-3,-7,-5
1558440174973109,-3,-2,-5,-4,-9,3,-4,-5
1558440174982085,0,1,-2,-1,6,-9,-3,-2
1558440174982085,-4,-6,-2,-2,-4,1,-2,-2
1558440175005022,-1,0,0,0,1,6,1,2
1558440175005022,0,1,8,0,8,-6,-4,1
1558440175006018,-5,-5,-10,-4,-12,-7,-7,-6
1558440175006018,2,-2,-3,8,1,3,6,2
1558440175018983,2,2,0,-15,8,4,3,3
1558440175018983,0,-1,-8,-2,2,12,2,-2
1558440175025964,-3,-1,-4,-4,-6,-2,-7,-4
1558440175025964,-1,-1,0,-1,-5,-7,1,0
1558440175050319,1,1,6,8,6,6,9,4
1558440175050319,-3,1,7,1,1,-7,-6,-2
1558440175051895,-3,-3,-8,-4,-7,-1,-4,-2
1558440175051895,0,0,0,-5,-8,3,-1,-3
1558440175056372,2,1,-3,4,1,-13,5,3
1558440175056372,0,-1,-4,-4,7,13,5,4
1558440175062864,1,1,4,4,0,0,1,-1
1558440175062864,-2,-2,-1,-4,-6,-3,-8,-5
1558440175087894,-1,-2,-4,-2,-7,-8,0,-1
1558440175087894,-2,-3,-2,-2,-8,-10,-8,-6
1558440175088795,-1,-3,1,0,6,6,-1,-1
1558440175088795,4,4,15,13,9,13,14,8
1558440175094063,0,-2,-6,-15,7,3,1,0
1558440175094063,0,-1,-2,-1,-4,-11,-3,0
1558440175102214,-2,0,2,-1,-2,7,-6,-3
1558440175102214,-5,-5,-13,-6,-9,2,-4,-5
1558440175117090,1,1,5,4,-5,-15,-5,-1
1558440175117090,1,-2,-5,-4,-1,-8,0,-1
1558440175122706,0,0,5,-1,-7,-3,-1,0
1558440175122706,1,-2,-7,-4,5,1,-1,-1
1558440175138716,-2,-1,1,3,0,15,4,0
1558440175138716,-1,0,-3,-2,-1,-5,-3,0
1558440175145684,0,0,5,2,-4,-13,-1,1
1558440175145684,-2,-3,-1,-4,2,-1,-5,-1
1558440175161818,-1,-4,-1,1,-2,-1,-5,-3
1558440175161818,-2,1,-4,-1,1,-5,0,-3
1558440175163599,-1,-3,-2,-2,-14,-5,-1,-2
1558440175163599,1,2,5,2,11,11,1,0
1558440175176794,-2,0,4,9,4,2,-2,-2
1558440175176794,2,1,-6,-18,-9,-8,0,1
1558440175183549,-3,-4,-5,-5,-1,-7,-2,-2
1558440175183549,0,-1,-8,-4,-4,-16,-8,-2
1558440175207504,-5,-1,0,1,-8,-1,-8,-6
1558440175207504,-2,-2,1,5,4,13,3,-1
1558440175208473,0,0,0,-2,4,3,5,0
1558440175208473,1,1,4,-1,-5,-7,2,1
1558440175222436,-2,2,1,-1,4,-2,-5,-3
1558440175222436,-2,-3,-6,-4,-11,-14,-6,-3
1558440175223435,0,-1,5,4,3,8,5,3
1558440175223435,-1,-1,1,8,9,-1,-2,0
1558440175236400,-1,-3,4,0,-6,-4,-4,-5
1558440175236400,0,2,-5,-1,0,8,1,0
1558440175243380,0,-1,-5,0,6,10,5,0
1558440175243380,-2,-3,-1,-6,-9,-12,-3,-2
1558440175258340,0,-2,-5,-3,-2,-5,-3,0
1558440175258340,-1,0,8,7,3,7,5,2
1558440175265320,1,1,1,-3,0,-10,-9,-3
1558440175265320,-1,-1,-6,0,-7,5,-2,-1
1558440175282277,0,-1,0,-2,1,0,2,3
1558440175282277,-4,-5,-3,-2,-3,2,-5,-4
1558440175283273,2,5,3,3,3,1,4,2
1558440175283273,-5,-2,-3,-5,2,-4,-7,-5
1558440175296273,-5,-3,-2,-3,-10,-7,-5,-4
1558440175296273,2,1,4,0,7,2,0,1
1558440175303630,-4,-3,-10,8,1,2,2,-1
1558440175303630,-1,-3,-11,-13,5,13,7,-2
1558440175327509,-3,-2,-3,-7,-15,-8,-4,-3
1558440175327509,-2,-2,4,2,4,-6,-2,0
1558440175328152,1,-2,0,-2,-2,-7,-5,-3
1558440175328152,-1,1,-1,5,-2,-4,-5,-2
1558440175342467,-1,1,-2,0,5,-1,6,4
1558440175342467,-1,0,0,-1,-3,5,-3,-3
1558440175343113,-5,-4,-1,-4,-8,-2,-3,-4
1558440175343113,-2,-3,-1,-1,-6,-10,-3,-1
1558440175358383,0,0,1,1,4,-1,5,3
1558440175358383,3,2,3,7,14,5,6,6
1558440175363063,1,0,-2,0,9,14,6,2
1558440175363063,-3,-2,-2,-4,-5,1,-3,-5
1558440175379016,-3,-3,-2,-2,-2,2,-8,-8
1558440175379016,-4,-5,-14,-7,-14,-10,-7,-6
1558440175385998,0,1,-1,-4,-4,-11,-5,2
1558440175385998,2,2,10,7,10,-5,11,6
1558440175401955,0,0,-4,-3,-3,0,0,0
1558440175401955,1,2,4,4,1,11,7,2
1558440175402953,-4,-3,-6,-4,-9,3,-5,-7
1558440175402953,-3,-2,-3,-5,-14,-9,-8,-6
1558440175415925,2,3,4,3,3,-6,4,6
1558440175415925,-2,-3,-1,-2,-5,-1,-5,-7
1558440175422901,-2,-1,0,-1,6,-3,1,2
1558440175422901,-1,0,1,-1,-7,-1,-7,-4
1558440175438857,0,-1,-1,3,5,16,7,0
1558440175438857,2,1,0,-3,2,-7,2,2
1558440175445851,1,-1,1,-3,2,5,1,0
1558440175445851,0,-1,-1,1,2,-1,-2,0
1558440175461796,-1,1,-2,-9,-11,-10,-9,-1
1558440175461796,-3,-1,-2,0,6,1,2,1
1558440175463793,-1,-2,1,7,1,-3,-3,-1
1558440175463793,0,-2,-6,-18,-16,-16,-6,-3
1558440175484739,-2,-2,5,3,-6,2,-6,-7
1558440175484739,1,-1,-11,-5,-1,4,8,2
1558440175485733,-1,1,0,1,-1,-2,-4,-2
1558440175485733,-4,-3,-12,-2,-7,-3,-3,-1
1558440175498699,1,1,0,-2,9,5,4,2
1558440175498699,-1,-1,-1,-1,1,-11,-4,0
1558440175505679,-1,-3,3,0,-4,0,-2,-3
1558440175505679,1,2,3,6,15,12,3,2
1558440175521635,-4,-5,-6,-2,-8,-10,-4,-3
1558440175521635,-3,-3,-4,-6,-2,-1,-8,-3
1558440175523632,0,-2,-2,-2,-2,4,-1,0
1558440175523632,-3,-1,3,-1,-5,-2,-1,-2
1558440175536601,-1,0,-3,-2,-4,-12,-8,-2
1558440175536601,1,3,14,10,5,15,5,1
1558440175543578,-3,-3,-17,-10,-12,-14,-3,-3
1558440175543578,1,2,5,4,16,14,13,6
1558440175558544,1,2,1,1,1,-1,-4,-3
1558440175558544,0,-4,3,1,0,8,1,-3
1558440175573500,-1,1,-4,-4,2,4,-2,-2
1558440175573500,-3,-5,-8,-5,-12,-11,-4,-3
1558440175589458,-1,-1,-2,0,6,3,2,2
1558440175589458,0,0,1,0,-4,-19,-6,0
1558440175591449,0,0,3,4,-3,6,1,0
1558440175591449,0,-1,0,-2,7,6,0,1
1558440175596437,-1,-2,-1,-3,-5,-2,-2,-3
1558440175596437,-1,-1,-4,-3,-4,-1,-4,-2
1558440175603417,1,-1,4,6,4,-13,-1,0
1558440175603417,-2,0,-6,-11,-10,-3,-7,-4
1558440175618377,0,-3,-4,2,2,9,4,0
1558440175618377,-2,0,0,4,1,-8,3,2
1558440175633337,-2,2,2,0,2,8,6,1
1558440175633337,-1,0,5,7,4,4,0,-1
1558440175642313,-3,-6,-6,-5,-3,2,-2,-3
1558440175642313,-4,-3,-1,-3,-4,-10,-11,-4
1558440175643311,1,3,10,3,3,-1,-3,2
1558440175643311,-1,-5,-12,-8,-15,-8,-6,-4
1558440175655278,1,1,1,4,0,2,3,2
1558440175655278,1,3,0,-2,4,-5,-1,-1
1558440175664258,-1,0,0,-2,0,9,1,-1
1558440175664258,0,2,2,4,5,-1,-2,0
1558440175679217,0,0,2,4,1,-8,-3,-1
1558440175679217,-3,-4,-6,-9,-8,7,0,0
1558440175685204,-1,-2,-2,-5,-14,-10,-7,-4
1558440175685204,0,-1,-1,1,9,-4,1,2
1558440175702177,0,2,-2,-1,4,6,8,1
1558440175702177,2,2,2,4,9,-2,2,1
1558440175703156,0,0,-3,-3,0,-5,1,-1
1558440175703156,-3,-2,-7,1,3,11,0,-5
1558440175715124,-6,-4,-9,-9,-10,-3,-7,-5
1558440175715124,-2,-4,-4,-4,-11,-6,-9,-4
1558440175724099,0,1,4,3,-1,-4,5,5
1558440175724099,1,3,10,5,10,2,2,1
1558440175739057,3,1,-3,-6,7,4,4,0
1558440175739057,-3,-3,-8,-1,-1,13,0,-3
1558440175746035,-1,-4,-7,-6,-6,-6,-7,-4
1558440175746035,-1,-2,0,-3,-13,-17,-6,-4
1558440175761996,0,0,3,1,-6,-7,-7,-4
1558440175761996,1,1,1,2,4,4,5,1
1558440175762991,-3,-3,-1,-1,0,-1,-1,-3
1558440175762991,2,0,4,5,-1,-1,5,7
1558440175775960,-1,0,-2,3,3,4,-4,-1
1558440175775960,1,1,1,-4,-3,4,4,2
1558440175784939,0,0,0,-1,5,-3,0,-1
1558440175784939,-1,0,1,-2,-7,-4,-5,-4
1558440175798895,-3,-3,0,0,-7,-10,-7,-5
1558440175798895,-3,-3,-9,-15,-10,-2,-4,-3
1558440175805878,-1,-3,-7,-2,-1,3,-1,-2
1558440175805878,-3,0,0,-4,-8,-9,4,1
1558440175821832,1,2,5,6,11,11,9,5
1558440175821832,0,1,6,6,8,-1,3,0
1558440175823829,-1,-1,-3,-6,-1,2,-3,0
1558440175823829,-3,-5,-3,-2,-7,1,-3,-2
1558440175835810,-1,0,2,1,3,6,3,-1
1558440175835810,0,1,-1,0,-4,-6,-1,-1
1558440175844772,-3,-4,-11,-1,-1,-1,-4,-4
1558440175844772,1,0,5,-5,-5,1,2,3
1558440175858735,0,-2,-4,-3,1,-4,-2,-1
1558440175858735,-3,-1,1,0,-5,-2,-4,0
1558440175865721,1,1,5,2,11,6,7,4
1558440175865721,-3,-1,-4,4,-4,2,-4,-2
1558440175881674,0,1,1,-1,3,0,0,0
1558440175881674,-1,-2,-1,-1,-1,-6,1,0
1558440175887657,-3,-2,0,-2,-10,-6,-9,-6
1558440175887657,0,-4,-5,-2,-2,-7,-4,-3
1558440175895641,0,0,-2,-3,1,8,2,2
1558440175895641,-1,-1,-4,4,2,4,2,1
1558440175904612,-1,1,0,3,8,15,9,3
1558440175904612,-1,0,0,-1,9,1,2,0
1558440175918578,1,-1,3,-1,-5,-13,-5,-1
1558440175918578,-4,-3,-5,-6,-18,-14,-11,-7
1558440175925556,-7,-2,-4,-7,-8,-12,-6,-5
1558440175925556,4,5,11,14,11,17,13,6
1558440175941514,-1,-4,-3,-3,2,1,-4,-2
1558440175941514,-3,-4,-7,3,4,9,4,-2
1558440175948494,2,2,4,-2,2,-3,1,5
1558440175948494,-3,-1,-3,-1,-1,2,-3,-2
1558440175955477,-1,-2,-8,-7,-12,-11,-6,-3
1558440175955477,1,0,3,0,3,7,5,0
1558440175964461,-3,-4,0,0,-6,-4,-6,-4
1558440175964461,-1,-2,-2,-2,-4,-1,-2,-2
1558440175987392,-2,-3,-6,-3,2,10,3,0
1558440175987392,-2,-1,-3,1,2,-3,-3,0
1558440175988388,0,0,-1,0,4,-9,1,1
1558440175988388,0,0,1,0,3,0,-1,2
1558440176001385,-2,0,2,-2,-5,-6,-4,-3
1558440176001385,-1,-4,-1,1,1,3,0,-3
1558440176008335,0,-1,-1,-1,5,9,7,0
1558440176008335,-1,1,2,-1,-6,-4,-6,-2
1558440176015318,-1,-1,-4,-11,-3,1,2,1
1558440176015318,1,1,-3,-1,2,-6,-1,1
1558440176024292,-1,-1,2,0,-2,-1,-3,0
1558440176024292,-1,-1,-3,-2,0,-1,-4,-2
1558440176039256,-1,0,2,2,-6,-4,-3,-2
1558440176039256,-2,0,2,-3,-10,-6,-8,-1
1558440176045300,-1,-3,-5,-3,-6,-2,-5,-2
1558440176045300,-4,-3,-4,-5,7,12,4,-1
1558440176069197,0,0,3,3,0,-13,-2,0
1558440176069197,3,1,1,1,6,6,6,2
1558440176071166,2,1,-1,0,10,3,4,3
1558440176071166,-2,0,1,0,-3,-6,-2,-2
1558440176084131,-2,-3,-9,-2,1,2,1,1
1558440176084131,-3,-3,0,-3,-1,-1,-7,-4
1558440176086127,-2,-4,0,0,-12,-1,-2,-1
1558440176086127,-2,-2,-5,-4,-5,-3,-3,-2
1558440176099094,1,-1,2,4,9,10,6,0
1558440176099094,-2,0,0,-9,-11,-11,-8,-5
1558440176106075,1,4,8,5,10,7,6,4
1558440176106075,2,-2,-2,0,3,-5,-2,0
1558440176122033,-3,-3,-13,-3,-12,-4,-8,-4
1558440176122033,1,-1,0,0,4,0,-3,-2
1558440176128015,-2,-1,-1,-5,-12,-6,-7,-6
1558440176128015,1,1,2,-1,-3,1,-1,-1
1558440176143972,1,0,5,2,5,6,2,0
1558440176143972,-1,-1,1,3,-4,1,4,4
1558440176145967,-4,-4,1,1,2,-9,-4,1
1558440176145967,0,-2,-8,-5,0,-7,0,-1
1558440176158933,-1,1,-2,-2,-3,-4,3,-2
1558440176158933,-1,-2,1,-1,-4,2,-2,1
1558440176165914,-3,-1,-4,-1,-5,5,-3,-6
1558440176165914,-3,-1,1,-1,-2,-5,-6,-4
1558440176180874,-2,1,3,2,5,9,8,1
1558440176180874,-3,-2,-3,-3,-9,-17,-10,-3
1558440176187854,4,0,-2,0,7,-6,4,4
1558440176187854,3,-1,2,4,0,2,0,0
1558440176204815,-1,2,2,-8,-1,0,-1,-2
1558440176204815,-2,-1,-1,5,9,8,4,1
1558440176205806,-3,-4,-7,-5,-8,-4,-4,-4
1558440176205806,-6,-5,-9,-5,-2,-1,-2,-1
1558440176218772,0,-1,5,2,1,-3,0,-1
1558440176218772,-2,0,-5,-5,-9,-5,-7,-5
1558440176225753,-2,-1,2,-2,-8,-7,-8,-4
1558440176225753,0,1,9,7,15,14,8,3
1558440176241712,-2,0,-4,-4,-2,-10,-2,0
1558440176241712,-2,-2,-8,-3,3,8,3,-1
1558440176247695,0,-1,-4,0,-2,0,0,-2
1558440176247695,-2,0,-4,-10,-7,-4,-6,-1
1558440176264656,0,-2,1,7,-4,1,-1,1
1558440176264656,0,-1,1,-1,-2,-1,-1,-2
1558440176270634,-1,-2,-4,-3,-3,7,1,-2
1558440176270634,-1,-1,4,7,7,2,3,0
1558440176278610,-1,-3,0,-2,-4,-9,-5,0
1558440176278610,-3,0,-3,-2,1,4,1,-2
1558440176285612,0,0,0,1,-2,-10,-3,0
1558440176285612,-3,-3,-1,-6,-9,-6,-8,-2
1558440176301549,1,1,1,3,9,5,6,3
1558440176301549,3,-2,0,1,-3,-5,-4,-1
1558440176308531,2,4,8,2,9,20,10,0
1558440176308531,-4,-3,-7,-3,-4,-6,-3,-3
1558440176324491,-3,-3,0,-5,-9,-4,-6,-4
1558440176324491,0,-2,-8,-4,-3,-4,0,2
1558440176325485,-2,-3,-6,-4,-1,-3,3,2
1558440176325485,0,3,4,1,1,2,-2,-3
1558440176338453,1,2,6,4,2,4,-3,1
1558440176338453,0,-1,-7,-2,4,7,0,-2
1558440176345432,-3,-2,-2,-5,-7,-3,-3,-1
1558440176345432,1,-1,-4,0,2,-6,2,1
1558440176361654,-1,-3,-2,0,-3,-10,-6,-5
1558440176361654,1,1,11,3,8,4,3,2
1558440176368371,-2,-3,-10,-2,-7,-9,-6,-2
1558440176368371,-3,-4,-8,-12,-8,2,1,-2
1558440176384329,-3,-2,-4,-3,-3,-1,-5,-2
1558440176384329,-1,0,1,-1,-4,-8,1,0
1558440176386323,0,0,-1,-2,2,2,-8,-6
1558440176386323,-1,-2,2,3,-5,2,5,4
1558440176398295,0,3,9,7,16,10,8,5
1558440176398295,-4,-5,-13,-8,-7,-9,-6,-3
1558440176407267,-3,-1,0,1,-2,1,-2,0
1558440176407267,1,-1,-4,-5,-8,-6,-7,-1
1558440176421230,-3,-4,-9,-7,-16,-11,-12,-9
1558440176421230,0,1,9,8,12,12,8,4
1558440176428211,2,-1,-1,1,10,1,7,4
1558440176428211,1,0,0,1,4,-5,1,-1
1558440176444169,-2,-1,-5,-4,-5,-3,-5,-1
1558440176444169,0,-1,-2,-2,0,-1,-4,-3
1558440176446164,-4,-2,-1,-4,-2,1,-4,-4
1558440176446164,3,3,6,5,9,13,9,4
1558440176459128,-2,-2,-4,0,-1,-5,2,1
1558440176459128,-4,-2,2,-3,-8,-2,-5,-4
1558440176473096,-1,-5,-2,0,-8,-4,-3,-3
1558440176473096,1,1,3,1,7,3,-2,-3
1558440176481069,-3,-4,-1,-4,-5,-10,-9,-6
1558440176481069,-1,-1,-9,-4,-5,-4,1,2
1558440176488057,1,1,7,5,4,-13,4,4
1558440176488057,-1,-2,-5,-3,-8,-6,-4,-2
1558440176504013,1,-2,-1,-3,-2,6,-4,-4
1558440176504013,-2,-4,1,1,-10,-9,-5,-2
1558440176506005,1,4,2,-3,10,5,2,3
1558440176506005,-2,-2,-1,2,-1,0,1,-1
1558440176518968,-3,-2,-3,-3,4,1,6,3
1558440176518968,0,1,6,2,4,10,3,0
1558440176525950,-1,-2,-1,-1,-2,-2,-5,-4
1558440176525950,-3,-2,-7,-4,-2,-2,-5,-4
1558440176540910,-3,-4,-3,-2,-8,-8,-2,-2
1558440176540910,2,3,9,5,8,12,7,4
1558440176547890,-2,-4,-6,-6,-5,5,-3,-2
1558440176547890,1,3,4,4,2,-10,-7,-4
1558440176564852,-1,-2,-9,-2,-4,3,1,-1
1558440176564852,0,-1,-3,-4,2,-5,0,0
1558440176565844,-2,-1,6,8,-3,-5,1,-1
1558440176565844,-2,-3,-2,-2,-1,7,1,1
1558440176577812,-2,0,2,-2,-6,2,-1,-2
1558440176577812,-2,-2,0,-1,-8,-11,-6,-4
1558440176586789,2,3,-3,1,7,11,6,4
1558440176586789,-2,0,2,4,-5,-3,-5,-2
1558440176601750,-1,-3,1,2,4,-4,2,1
1558440176601750,-4,-2,-7,-6,-1,-1,1,-2
1558440176607740,-2,-1,3,1,-7,-4,-8,-4
1558440176607740,0,-1,-2,-4,-1,-4,1,0
1558440176624685,0,1,-1,-1,-2,7,2,1
1558440176624685,-1,-1,-3,0,-2,-8,-6,-4
1558440176625683,-4,-4,-4,-5,-6,0,-2,-3
1558440176625683,-3,-2,-2,-3,0,-2,-2,-1
1558440176637650,1,-1,1,0,-3,-16,-1,2
1558440176637650,-4,-4,-2,-2,2,0,-4,-1
1558440176646627,-1,2,2,1,-1,-8,0,1
1558440176646627,1,1,9,6,4,9,-3,-2
1558440176661587,-2,-5,-15,-10,-1,8,-1,-4
1558440176661587,1,-1,0,1,2,5,7,1
1558440176667571,-3,-5,-6,-3,-9,-7,-4,-4
1558440176667571,-1,-2,2,0,-9,-10,-3,-1
1558440176684618,1,3,5,6,-2,-8,-2,2
1558440176684618,-1,1,-5,-1,13,17,8,2
1558440176685523,-3,-2,-2,-3,0,4,-3,-1
1558440176685523,-3,-2,2,0,-7,-4,-5,-4
1558440176707464,0,1,-4,-3,-1,-3,2,-1
1558440176707464,-2,-3,-1,-3,-16,-20,-16,-5
1558440176708462,2,1,-1,-5,8,10,11,5
1558440176708462,-1,0,-3,-7,1,3,2,1
1558440176721428,0,-1,2,0,-4,3,-3,-4
1558440176721428,0,0,6,4,2,-3,1,-1
1558440176728408,-2,-4,-9,-4,-3,-6,-9,-5
1558440176728408,1,0,-3,1,7,3,6,3
