timestamp,emg1,emg2,emg3,emg4,emg5,emg6,emg7,emg8
1558440086853607,0,-1,0,-2,3,1,1,0
1558440086853607,-2,0,-1,-5,4,6,0,-1
1558440086853607,-3,-2,-2,6,1,4,-1,-1
1558440086853607,-2,-2,-4,-2,-7,-4,-5,-2
1558440086854603,-1,0,0,-8,-8,-3,-4,-2
1558440086854603,3,2,2,6,15,19,14,4
1558440086855600,-1,0,0,1,0,-11,0,0
1558440086855600,0,-2,-3,-3,1,3,-1,-2
1558440086866571,-1,-2,-2,-2,-11,-7,-4,-4
1558440086866571,-1,-1,-1,4,3,-3,-5,-2
1558440086874550,-2,-2,-4,-5,0,8,-3,-1
1558440086874550,-1,-1,-1,-3,-4,-7,-3,-3
1558440086882530,-1,-1,-1,5,5,1,4,2
1558440086882530,-1,-2,1,-3,-8,-11,-6,-4
1558440086897488,0,-4,0,-4,3,-3,1,0
1558440086897488,-1,0,1,0,-1,-10,-1,0
1558440086905467,-4,-2,-1,1,4,11,4,1
1558440086905467,0,-2,-2,-3,-4,3,2,1
1558440086912449,1,-2,-5,-2,-7,-3,-3,-3
1558440086912449,0,-1,-1,1,4,10,5,0
1558440086934390,-3,-2,-3,-1,3,2,-1,-1
1558440086934390,-1,-1,-1,-4,-6,-10,-4,-2
1558440086935387,-2,-1,3,0,-3,-7,-1,-1
1558440086935387,-2,-1,1,1,0,2,0,-1
1558440086981263,1,0,2,5,-1,-17,-3,2
1558440086981263,0,-1,-1,-4,2,2,-3,-2
1558440086982261,-2,-3,-2,-8,1,-3,-2,-2
1558440086982261,0,0,1,4,-5,-1,-3,1
1558440086982261,0,0,-3,-4,-1,1,3,-2
1558440086982261,-2,-1,-1,-6,-10,-8,-5,-2
1558440086986250,1,-1,0,7,4,9,3,0
1558440086986250,-2,0,0,0,12,8,3,2
1558440086993231,-2,0,0,-4,-1,3,-1,-1
1558440086993231,-1,-2,-3,2,-1,-6,1,0
1558440087002208,-3,-3,-1,2,-7,-6,-4,-5
1558440087002208,0,-2,-2,-3,-9,-14,-4,-1
1558440087008192,0,1,-1,-6,5,6,-2,-1
1558440087008192,-2,-1,-1,3,1,-2,0,-2
1558440087025146,-1,0,2,0,-9,-5,-3,-2
1558440087025146,-1,-4,-6,-6,3,7,2,-2
1558440087031131,1,-2,0,-1,-5,-10,1,0
1558440087031131,-2,-1,-2,-2,-7,-4,-5,-1
1558440087046092,0,2,0,-2,7,4,3,0
1558440087046092,1,1,3,3,2,-1,1,0
1558440087053073,-2,-2,-3,-1,-5,1,-5,-2
1558440087053073,-1,-1,0,0,5,7,3,-1
1558440087062047,-1,-3,-3,-4,-9,-5,-5,-1
1558440087062047,-2,-2,-1,0,-2,-7,-2,-2
1558440087069029,-2,1,3,2,6,3,5,0
1558440087069029,-1,-1,1,-1,-1,1,1,0
1558440087084986,-2,-1,-3,-2,1,4,-4,-4
1558440087084986,-1,0,1,-1,-2,-1,-2,-2
1558440087090971,1,0,0,2,6,1,4,2
1558440087090971,-1,1,-1,-1,-1,-6,1,-1
1558440087105930,-3,-1,-3,-1,-1,3,0,-1
1558440087105930,1,-2,-3,-3,-3,1,-2,-2
1558440087113910,-1,-2,0,-1,-5,-9,-5,-1
1558440087113910,-2,0,1,2,3,2,0,0
1558440087122885,1,0,-1,0,5,-4,1,2
1558440087122885,-3,-1,1,0,-3,-1,3,1
1558440087128870,-3,-3,-4,0,2,1,0,0
1558440087128870,0,0,0,-2,0,6,0,-3
1558440087144826,0,-2,0,-2,-5,1,1,0
1558440087144826,-1,0,-1,2,-1,-2,-2,-3
1558440087150809,-3,-3,-5,-4,-2,0,-1,-1
1558440087150809,-1,-2,0,-1,2,-9,-2,0
1558440087165770,-2,-2,-1,1,1,1,1,0
1558440087165770,-2,-4,-3,-4,-7,-6,-5,-3
1558440087173749,0,-1,0,0,-2,-1,-1,-2
1558440087173749,-1,-1,1,0,-4,5,-2,0
1558440087182725,1,0,1,0,6,-2,-2,-3
1558440087182725,-3,-1,-1,0,7,-2,2,2
1558440087188711,-3,-1,-3,-5,-9,-5,-4,-2
1558440087188711,1,-1,-2,1,3,-1,0,-1
1558440087204668,-2,-1,0,-1,-11,-8,-4,-2
1558440087204668,-2,-1,-3,-1,0,4,-4,-3
1558440087210650,2,-1,0,3,11,14,6,3
1558440087210650,1,0,0,-2,-5,-4,2,1
1558440087225611,1,-1,-1,-3,-4,-7,-4,0
1558440087225611,-2,-3,-3,-3,-6,-7,-4,-4
1558440087233589,-1,-1,1,2,2,12,3,-2
1558440087233589,-2,-2,-2,-2,-2,0,-3,-1
1558440087242565,0,-2,-4,-2,4,-2,0,-2
1558440087242565,-1,-1,-2,1,-2,3,0,0
1558440087248549,-1,0,1,-1,-5,-9,-4,-3
1558440087248549,-2,-1,-2,-3,0,-3,-3,2
1558440087265504,-1,0,0,1,-4,-4,0,0
1558440087265504,-1,2,1,0,0,2,-1,-1
1558440087271488,2,0,0,0,6,1,1,1
1558440087271488,-1,-2,0,1,-2,5,1,-2
1558440087286447,-1,-1,-1,1,3,3,3,1
1558440087286447,-2,-1,0,-2,-1,-3,-3,0
1558440087293429,-2,-1,-1,-1,-4,-3,-1,-2
1558440087293429,-1,-4,-4,-2,-7,-13,-6,-3
1558440087302405,0,-1,-1,-3,-1,1,-3,-2
1558440087302405,-2,-1,0,4,6,8,9,1
1558440087308389,-2,-2,-1,-2,-4,-9,-1,-1
1558440087308389,2,1,1,-2,-1,-2,-1,0
1558440087325344,-1,-1,0,-1,1,-1,-2,-2
1558440087325344,0,-2,0,-3,-3,-1,-4,-1
1558440087331329,-5,-5,-5,-4,-6,-7,-4,-1
1558440087331329,-2,-1,-3,0,7,8,2,1
1558440087346288,3,-1,2,-2,2,-6,0,0
1558440087346288,-1,3,0,-2,-5,-4,-2,-1
1558440087353269,-1,-1,0,0,0,4,0,0
1558440087353269,1,-1,-3,0,0,3,0,0
1558440087362245,-2,0,0,-2,-3,-3,-2,-2
1558440087362245,0,0,-4,-2,-4,-2,-7,-2
1558440087376214,0,2,-2,-1,-2,-6,-4,-1
1558440087376214,0,2,2,1,10,9,9,3
1558440087393162,-1,-2,-1,-2,0,3,-1,-1
1558440087393162,-1,-2,0,-2,-4,-5,0,-1
1558440087394160,-1,0,2,1,8,6,4,3
1558440087394160,-2,-4,-6,-3,-5,-3,-6,-3
1558440087406126,-3,-2,-5,-1,-4,1,0,0
1558440087406126,0,1,-3,-5,-6,-3,-2,-1
1558440087413109,-2,-2,1,3,-1,2,-3,-2
1558440087413109,-2,-1,2,-2,-3,-3,-3,-1
1558440087422087,-2,-1,-2,-2,1,-3,-2,0
1558440087422087,1,3,4,4,7,5,3,2
1558440087436049,-2,-2,-1,-4,-7,-3,0,0
1558440087436049,1,2,-1,-3,-1,-8,-3,-1
1558440087445023,0,-1,0,-2,-6,-3,-1,-1
1558440087445023,2,-2,0,0,0,3,1,0
1558440087451007,3,2,-2,2,7,9,5,3
1558440087451007,-2,-1,-2,-2,-6,-4,-5,-2
1558440087465968,-3,-1,-2,-2,3,3,-1,-3
1558440087465968,-2,-3,-1,-2,0,3,1,-2
1558440087473946,-3,-3,-1,-1,3,-5,-5,-1
1558440087473946,-2,-4,-5,-3,-2,1,0,-2
1558440087482923,-1,2,-1,1,1,4,4,3
1558440087482923,-2,-1,-3,0,-1,-3,-2,-2
1558440087495887,1,-2,-2,-2,-9,-10,-4,-3
1558440087495887,-1,0,1,2,-2,2,-1,-2
1558440087504863,-3,-1,-2,-3,2,1,-2,1
1558440087504863,0,-2,-1,-2,-8,-13,-3,-4
1558440087510847,0,-1,-3,-3,-4,-5,-6,-2
1558440087510847,0,-2,1,0,2,5,2,1
1558440087525808,1,-1,2,-1,-4,-4,-2,-1
1558440087525808,-4,-1,-1,1,5,5,0,0
1558440087533787,-4,-2,-1,-1,-8,-1,-2,-5
1558440087533787,0,1,2,-3,-1,-2,0,-1
1558440087542762,-1,-1,-4,-3,-9,-3,-3,-1
1558440087542762,2,-1,-1,-1,7,-3,0,2
1558440087555728,-1,1,-2,0,4,2,1,0
1558440087555728,-4,-4,-5,-5,-13,-13,-7,-2
1558440087564704,-1,-1,-1,1,-1,1,0,-2
1558440087564704,-3,-1,-4,-5,-4,5,-2,-1
1558440087570688,1,1,2,-1,-4,1,-2,0
1558440087570688,0,-1,0,4,6,-1,3,0
1558440087585647,1,1,0,1,3,-6,3,2
1558440087585647,-2,0,2,0,-2,-4,-2,-2
1558440087593625,-2,-2,0,-3,-4,4,0,-2
1558440087593625,-3,-1,-2,-2,-8,-3,-6,-6
1558440087602602,0,-1,2,-2,-2,-6,-5,-2
1558440087602602,1,0,-1,1,12,-1,8,6
1558440087616565,-2,-3,-5,-2,-4,-9,-6,-2
1558440087616565,-1,-1,0,-1,-5,-7,-4,-2
1558440087625540,-2,-2,-3,-4,1,6,-4,-5
1558440087625540,-1,1,2,3,0,2,2,1
1558440087631526,-1,-1,-1,-3,-2,4,1,-2
1558440087631526,1,-1,0,-1,-4,-8,-3,0
1558440087646484,0,-1,0,2,11,13,7,3
1558440087646484,-1,-4,-2,-3,-6,-5,-3,-5
1558440087653466,-1,-3,-3,-1,-2,-3,-2,-3
1558440087653466,-1,0,-1,2,11,5,5,1
1558440087662441,0,-1,0,-2,-7,-1,1,1
1558440087662441,0,-1,-4,-2,-4,-6,-5,-3
1558440087676404,-1,-1,-2,-2,3,5,-2,-1
1558440087676404,-4,-2,-2,-3,-8,1,-2,0
1558440087685381,0,0,-1,0,6,-9,-2,0
1558440087685381,1,2,1,-1,-6,3,-3,-3
1558440087691364,2,-1,-1,0,1,0,2,-1
1558440087691364,5,1,2,2,8,-2,1,2
1558440087706328,-2,-1,-3,-3,-4,3,2,-2
1558440087706328,-4,-3,-4,-3,-4,-2,-4,-4
1558440087713306,0,-2,-1,-2,-9,-7,-5,-1
1558440087713306,-1,0,-2,0,8,10,6,1
1558440087722281,-1,0,-2,0,-5,-6,-4,-1
1558440087722281,0,0,-1,-1,4,6,0,1
1558440087736245,0,0,1,0,0,2,1,-1
1558440087736245,-2,-2,-1,-3,-3,-11,-2,-1
1558440087745220,-1,-1,0,-2,-5,-3,-1,-1
1558440087745220,-2,-3,-4,-4,-1,-4,-5,-1
1558440087751205,-1,0,1,0,4,4,4,1
1558440087751205,-2,-1,-1,0,7,-1,-1,0
1558440087766165,0,-2,4,1,-6,-5,-3,-4
1558440087766165,0,-3,-4,-2,-6,-2,-1,-1
1558440087782121,-4,-3,-4,-1,-5,-2,-6,-5
1558440087782121,0,-1,-3,-2,-9,-7,-7,-5
1558440087784119,1,3,1,3,14,10,9,6
1558440087784119,0,1,3,1,-1,-3,2,2
1558440087796084,-2,1,-1,-2,0,-4,-1,0
1558440087796084,-2,-3,-3,0,-1,1,-3,0
1558440087805061,-2,-1,1,3,3,3,-2,-3
1558440087805061,0,-2,-4,-3,-2,-7,1,0
1558440087811044,-2,2,-2,-1,-5,-6,-2,-1
1558440087811044,0,-1,3,0,-2,-7,-2,0
1558440087826003,-1,-5,-7,-9,-11,-5,-6,-2
1558440087826003,-1,1,0,1,-1,1,-2,2
1558440087833983,-2,-1,-2,-1,-3,-6,-5,-1
1558440087833983,1,0,-2,1,6,7,5,-1
1558440087841962,-1,1,1,1,2,3,3,-1
1558440087841962,-3,-3,-2,-2,0,-2,1,-3
1558440087855923,1,-1,3,-3,-4,-1,-2,2
1558440087855923,-3,-3,-3,-4,-4,7,-2,-5
1558440087864900,-3,0,-2,1,0,-10,-3,0
1558440087864900,1,0,4,1,10,4,7,2
1558440087870884,-1,-2,-4,-2,-5,-5,-4,-1
1558440087870884,-2,-1,-1,0,-2,0,-2,-1
1558440087885845,0,-2,-4,-1,-3,5,1,-2
1558440087885845,0,-3,-2,-1,-7,-8,-7,-3
1558440087902798,1,-1,1,2,4,-5,0,3
1558440087902798,0,0,0,0,1,4,2,0
1558440087903797,-5,-1,-4,-4,-4,-2,-7,-5
1558440087903797,0,0,1,-2,-5,-7,-5,-2
1558440087915764,1,-1,1,0,12,11,11,3
1558440087915764,1,1,1,0,2,-1,-1,1
1558440087924741,0,-2,-1,0,-4,-4,-1,-1
1558440087924741,-3,-1,1,-3,-2,7,0,-2
1558440087930723,-4,-5,-3,-1,-2,1,-1,-4
1558440087930723,0,0,0,-4,2,-2,0,1
1558440087945683,0,-1,1,-2,-5,-1,-3,-1
1558440087945683,0,1,-2,-1,0,-5,-6,-1
1558440087953662,-2,-1,-3,-2,-1,2,0,-1
1558440087953662,-1,0,1,0,3,0,0,0
1558440087968622,0,-3,-2,0,-2,-4,-1,-3
1558440087968622,-1,-3,-4,-3,-5,1,-2,-2
1558440087975603,0,1,2,-1,0,-3,-2,-1
1558440087975603,-1,-3,0,-1,-4,-6,-2,-3
1558440087991560,-1,0,0,1,5,1,2,2
1558440087991560,1,1,0,2,-1,-1,-2,0
1558440087992558,-1,-3,-1,0,3,1,0,-4
1558440087992558,-1,-2,-2,-4,-11,-3,-4,-1
1558440088006520,-1,-1,1,3,12,10,6,3
1558440088006520,-1,-1,2,-5,-1,3,0,-1
1558440088013504,0,1,-8,-3,-9,-7,-6,-3
1558440088013504,0,-3,-3,-2,1,4,3,0
1558440088028461,2,1,2,0,-4,-4,0,0
1558440088028461,-1,1,2,3,0,-6,-1,-1
1558440088036441,-2,-1,2,-2,-6,-11,-2,1
1558440088036441,-3,-3,-1,-2,4,-5,-5,0
1558440088051401,-3,-5,-6,-2,-5,-3,-5,-4
1558440088051401,-4,0,0,1,3,4,4,1
1558440088052398,0,-1,-4,-3,-4,-5,-3,-1
1558440088052398,-2,-1,-1,0,-6,5,-2,-3
1558440088066361,-1,-1,1,-1,-5,-16,-5,1
1558440088066361,-2,0,-2,0,2,5,-2,-1
1558440088073343,-2,-1,-2,-1,2,4,-1,-3
1558440088073343,0,-1,0,0,2,-1,1,2
1558440088088301,0,-1,-3,-2,4,6,1,0
1558440088088301,-1,-3,-2,-3,-5,-3,-6,-4
1558440088096282,-2,-3,0,-1,-6,-6,-2,-4
1558440088096282,0,-1,2,4,15,12,7,4
1558440088111241,1,0,2,-2,-7,-13,-3,0
1558440088111241,-1,-3,-1,-1,1,0,1,0
1558440088112239,0,0,-2,-2,-4,1,-7,-5
1558440088112239,-1,-2,-5,-5,-8,-6,-5,-5
1558440088126201,-2,-1,0,0,-1,-1,-2,-1
1558440088126201,-1,-2,-3,0,2,3,0,-1
1558440088133183,-1,-2,0,0,0,1,2,2
1558440088133183,-1,1,-3,-3,-5,-2,-3,-2
1558440088148142,-1,-1,-2,-2,2,3,1,0
1558440088148142,0,-2,-2,-1,-3,0,0,-3
1558440088156121,2,-1,2,-1,2,1,0,1
1558440088156121,1,2,2,0,-2,-5,4,1
1558440088172079,-3,-3,-2,-4,-2,0,-2,-5
1558440088172079,0,0,1,-1,3,-1,-2,1
1558440088172079,-2,0,0,1,3,-1,2,0
1558440088172079,-3,-3,-2,-2,-9,-1,-6,-3
1558440088186042,-1,-3,-4,-1,6,5,0,-1
1558440088186042,2,1,1,0,-2,-6,2,2
1558440088194021,1,0,0,-1,6,6,-1,2
1558440088194021,-2,-3,-1,1,-1,0,-2,-2
1558440088208979,-2,0,-1,-1,1,1,3,1
1558440088208979,-1,-1,-2,0,-3,-7,-5,-2
1558440088215960,-1,-3,1,-1,-6,-5,-1,-1
1558440088215960,0,-1,3,0,-6,-6,-3,-2
1558440088231921,1,-2,-6,-1,6,10,4,-1
1558440088231921,-1,-1,-2,0,-1,0,1,-1
1558440088231921,-2,-2,-1,-5,-2,1,-1,-2
1558440088231921,-3,0,0,-2,0,1,0,1
1558440088245881,-3,0,1,-1,-12,-11,-6,-3
1558440088245881,0,-1,0,0,4,3,3,2
1558440088253861,-1,-2,-2,-2,-5,2,-1,-3
1558440088253861,-1,-1,-1,0,6,6,2,-2
1558440088269818,-1,1,1,0,-5,-5,-3,1
1558440088269818,0,-1,-2,-3,-4,-3,-2,-2
1558440088275811,-1,-3,-2,0,-2,-1,-2,-3
1558440088275811,1,1,0,2,1,2,2,-1
1558440088290765,-1,-4,0,-2,-1,-7,0,-1
1558440088290765,-1,-2,-1,-2,0,3,0,0
1558440088298740,-3,-2,-2,0,5,0,-3,-1
1558440088298740,1,-2,-1,-1,-4,3,-1,-2
1558440088305721,2,1,2,2,3,3,1,-2
1558440088305721,-2,-1,-3,-2,-3,0,-2,0
1558440088313699,1,4,4,4,3,-3,6,3
1558440088313699,-4,-3,-5,-8,-9,-11,-8,-3
1558440088328660,0,-2,-1,0,-6,3,-5,-2
1558440088328660,0,1,1,0,2,-5,0,-2
1558440088335640,-2,-1,-5,-4,-1,2,0,-1
1558440088335640,1,0,1,0,0,1,3,-1
1558440088350600,-1,0,1,-2,1,5,5,1
1558440088350600,-1,0,0,-1,0,-5,-4,-1
1558440088359577,-2,-1,-4,-2,-4,-2,-1,-1
1558440088359577,-3,-3,-2,-1,-4,-6,-3,-1
1558440088366558,-1,0,1,0,8,0,3,2
1558440088366558,-2,-3,-5,-4,-7,-2,-3,-3
1558440088373539,0,1,0,2,9,12,7,2
1558440088373539,-1,1,0,1,-2,-4,-3,-1
1558440088388499,-3,-3,-4,-2,-9,-6,-7,-3
1558440088388499,1,-2,0,-3,2,5,-1,-1
1558440088396477,-1,-2,-1,-1,-1,-5,0,-1
1558440088396477,0,-1,-2,-2,1,-2,-2,-1
1558440088411437,-4,-1,-1,1,1,-8,-5,-2
1558440088411437,-1,0,-1,0,2,7,4,1
1558440088419416,-2,-2,-2,-1,-6,-7,-4,-1
1558440088419416,-1,-2,-3,-2,-5,-5,-2,-2
1558440088426398,2,1,-1,-1,4,1,2,0
1558440088426398,-1,-2,-4,-2,-2,3,-6,-6
1558440088441358,-2,-1,1,0,-2,-2,0,0
1558440088441358,1,2,0,0,8,0,6,4
1558440088448339,0,-1,1,-1,-4,-2,1,0
1558440088448339,-1,-3,-1,-1,-2,0,-1,-3
1558440088456319,0,-2,-2,-2,-5,-1,-2,-4
1558440088456319,-2,-3,-3,-3,-3,-6,-4,-1
1558440088471277,-1,1,-4,-3,-3,-2,-5,-2
1558440088471277,-2,-2,1,-1,-1,-4,0,-1
1558440088479256,-2,-2,-1,-3,-5,-8,-8,-4
1558440088479256,0,-1,6,5,6,15,2,1
1558440088494224,0,-5,-5,-5,-3,-3,-1,0
1558440088494224,-2,0,-2,-3,-2,-6,-2,0
1558440088495215,-1,0,0,3,0,-3,-1,-1
1558440088495215,-2,-2,-3,-5,-3,-8,-3,-4
1558440088508180,-2,0,1,-1,-1,6,-2,-2
1558440088508180,-1,0,-2,-1,-5,-4,-2,-1
1558440088516158,3,1,0,0,8,2,3,1
1558440088516158,-1,-1,-1,1,4,4,3,-1
1558440088531117,-4,-3,-1,-5,-8,-5,-6,-5
1558440088531117,-3,-4,0,2,-1,-3,0,1
1558440088538099,-2,-2,0,-1,11,13,5,1
1558440088538099,1,-2,-2,-3,-15,-11,-6,-3
1558440088554057,-2,-1,0,0,-3,-1,-4,-3
1558440088554057,1,2,2,3,4,0,4,5
1558440088555054,1,-2,-5,-5,-8,-11,-3,-1
1558440088555054,-3,1,3,1,4,1,0,1
1558440088568022,-1,-5,-5,-3,-9,-8,-3,-4
1558440088568022,-2,-1,-1,1,2,4,4,1
1558440088575998,-1,0,0,2,-3,2,-3,-1
1558440088575998,-2,-1,-5,-4,-5,-3,-3,-2
1558440088590956,-2,0,0,-2,-6,-3,-6,-4
1558440088590956,0,-2,-2,-2,5,0,2,0
1558440088598935,-1,-1,-3,-2,1,5,0,-1
1558440088598935,0,-1,-1,1,2,3,0,-3
1558440088613895,-2,0,0,1,3,-1,4,2
1558440088613895,-2,-4,-3,-1,-2,-4,-2,-2
1558440088614893,-2,-3,-1,-1,-5,-5,-2,-1
1558440088614893,1,2,2,1,8,9,4,3
1558440088628861,1,-1,0,0,4,2,-2,-1
1558440088628861,0,0,-3,-2,-11,-11,-6,-5
1558440088635844,1,-1,-1,1,1,-3,2,0
1558440088635844,-3,-1,-3,-1,-2,1,0,0
1558440088650803,0,-1,4,1,0,7,0,0
1558440088650803,-3,-4,-6,-2,-5,-2,-5,-6
1558440088666766,0,-2,3,-2,1,4,3,3
1558440088666766,0,1,-2,1,4,-5,1,2
1558440088674738,-3,-1,-2,-1,1,3,1,-2
1558440088674738,-1,0,3,1,-1,-2,-2,0
1558440088674738,3,1,-2,-1,-2,1,1,0
1558440088674738,0,-3,-3,1,-5,-4,-1,-2
1558440088688814,1,-1,-4,-4,-1,-7,-2,-1
1558440088688814,-2,-1,1,-5,-3,5,-3,-1
1558440088696710,-2,-1,1,2,5,2,1,-2
1558440088696710,0,-3,-1,-2,-6,-6,-5,-1
1558440088710639,2,1,-1,0,7,2,3,5
1558440088710639,3,0,-2,-1,0,-2,-3,-1
1558440088718618,-2,-1,0,-3,-7,-3,-2,-3
1558440088718618,0,0,1,-1,3,8,4,0
1558440088734574,-3,-1,-3,-1,-2,-3,-6,-2
1558440088734574,1,-1,1,2,4,1,-1,2
1558440088734574,0,-1,-1,-1,-2,-5,-1,-1
1558440088734574,-1,-3,0,-1,-6,-1,-3,-2
1558440088749019,-3,-3,0,0,-1,-2,0,-1
1558440088749019,-1,-1,1,0,-7,-8,-2,0
1558440088756967,-1,-1,-3,-3,-2,-4,-5,-1
1558440088756967,-2,-1,-3,-3,0,2,-3,-3
1558440088771825,-1,1,-1,0,-4,-4,2,0
1558440088771825,-1,-1,-1,-2,4,5,3,0
1558440088778493,0,-1,0,1,0,4,1,1
1558440088778493,1,0,-1,3,7,-2,2,0
1558440088794474,0,1,-1,-5,-9,0,-2,-2
1558440088794474,0,-1,0,-1,-2,-1,-1,-3
1558440088794474,-2,-1,-6,-2,-4,-2,-6,-2
1558440088794474,-2,-1,-1,-3,-7,-5,-4,0
1558440088808375,-1,-1,-3,0,3,4,0,-1
1558440088808375,-1,-1,0,0,2,0,1,0
1558440088816354,-1,0,-1,0,-3,-5,-3,-2
1558440088816354,0,-2,2,0,2,6,1,-2
1558440088831341,1,-1,0,1,-4,-14,-1,1
1558440088831341,-2,1,0,-1,0,-4,0,-1
1558440088838780,-3,-2,-2,0,2,3,3,-1
1558440088838780,-3,-1,-3,-3,-5,-7,-4,-2
1558440088854779,-1,0,-1,0,-2,-1,-1,-2
1558440088854779,1,-1,1,-1,2,3,0,-1
1558440088855253,0,-1,1,0,-4,-1,-5,-1
1558440088855253,0,0,1,1,13,13,10,5
1558440088868672,-2,-1,-1,-3,-5,-2,-2,-1
1558440088868672,0,-1,-1,0,-5,-8,-3,0
1558440088876723,-3,0,0,-2,0,-4,-1,-2
1558440088876723,0,-1,0,-2,-4,-4,-7,-3
1558440088891576,1,-1,-3,0,4,0,3,2
1558440088891576,-1,0,-1,0,1,8,7,2
1558440088899241,-3,-2,-3,-2,-1,0,-4,-3
1558440088899241,-2,-1,-1,-1,-4,-1,1,-1
1558440088914421,-1,0,1,0,1,8,0,0
1558440088914421,-2,-2,-2,-3,-3,-6,-2,-2
1558440088915092,0,-1,-2,0,-6,-4,-4,-2
1558440088915092,-2,-1,-2,0,3,1,1,-1
1558440088929382,-1,-3,-3,-5,2,-1,-3,-3
1558440088929382,-1,0,1,1,6,7,1,1
1558440088936351,-1,-1,0,-5,-6,-7,-5,-2
1558440088936351,1,-3,-3,-4,-2,4,-2,-5
1558440088950997,1,0,0,6,8,9,6,2
1558440088950997,0,1,1,2,1,-2,1,0
1558440088958975,0,-1,-1,-2,-2,-7,2,-2
1558440088958975,-1,0,-2,-1,-8,-11,-7,0
1558440088973934,-2,-1,4,-1,-7,-1,-2,-2
1558440088973934,-3,-3,-8,-3,3,2,-6,-4
1558440088974931,-1,-2,-1,-1,1,-1,0,0
1558440088974931,0,-1,-2,-1,-4,-5,0,3
1558440088988895,-1,-4,-1,-2,0,-8,-1,-2
1558440088988895,-3,-3,0,0,-1,7,3,0
1558440088997003,-1,-1,-1,2,-4,-5,-3,-1
1558440088997003,-1,-1,1,-3,-3,-2,-1,0
1558440089012074,0,-1,-2,1,2,1,2,1
1558440089012074,-3,0,0,-1,-5,-10,-4,-1
1558440089019119,-1,-2,-4,-2,-2,-8,-5,-3
1558440089019119,0,0,-1,0,3,5,6,1
1558440089033775,0,2,-2,-3,-1,5,-1,-1
1558440089033775,-3,-3,-2,-2,-4,1,-4,-3
1558440089034772,-1,1,3,-1,4,4,4,1
1558440089034772,-3,-3,-4,-4,-13,-15,-11,-5
1558440089049046,1,1,3,6,7,-1,4,5
1558440089049046,2,-2,0,-3,-1,-2,-5,0
1558440089056972,-1,-2,-3,-1,2,12,1,1
1558440089056972,-1,0,-1,-1,-10,-11,-6,-4
1558440089071848,-1,0,0,-2,3,3,3,1
1558440089071848,-3,-3,-3,-1,2,0,0,-2
1558440089078963,0,-1,0,0,1,-2,-1,0
1558440089078963,-2,-3,-2,0,2,6,1,-2
1558440089094882,-3,-1,-5,-4,-11,-7,-9,-5
1558440089094882,0,-1,0,-1,-2,0,4,1
1558440089094882,-2,-2,-2,-2,-1,6,0,0
1558440089094882,1,1,1,0,2,-12,2,0
1558440089110212,-1,-4,-1,-2,-3,-5,-4,-4
1558440089110212,0,-1,0,1,1,-1,-1,0
1558440089115839,0,0,1,2,7,5,5,2
1558440089115839,-3,1,-1,-1,1,5,-3,0
1558440089132596,-2,-2,-2,-2,-4,0,-4,-3
1558440089132596,-2,3,1,1,0,-2,2,1
1558440089138874,-1,-1,-2,-2,-3,-10,-4,-2
1558440089138874,-3,-4,-2,-3,-5,-4,-1,-4
1558440089154538,0,2,2,1,4,3,2,0
1558440089154538,-2,-2,-3,2,5,5,2,1
1558440089154538,-1,1,0,1,4,3,3,4
1558440089154538,-1,-3,-3,0,-2,0,-4,-1
1558440089178730,-2,-4,-3,-2,-7,1,-5,-4
1558440089178730,2,1,-1,-4,-4,-3,-6,-2
1558440089178730,0,1,1,-1,-6,-9,-2,0
1558440089178730,-2,-2,-2,2,8,7,2,1
1558440089191014,0,-2,-2,-1,-1,1,2,-1
1558440089191014,0,3,1,-2,-2,-9,2,2
1558440089199057,-1,-2,0,0,-3,-1,-2,-2
1558440089199057,1,-1,-3,-3,-7,-5,-3,-3
1558440089215021,-2,-2,-2,-4,0,1,-2,-2
1558440089215021,-1,-1,0,-1,0,1,0,-1
1558440089215021,-2,-1,-2,-3,3,2,0,-2
1558440089215021,1,0,1,-1,0,-2,2,1
1558440089228963,-1,1,-1,-1,-2,-4,0,-1
1558440089228963,-3,-2,-1,-2,-9,-7,-6,-2
1558440089236802,-2,-1,-1,0,1,9,2,-2
1558440089236802,0,0,-3,-1,4,2,-3,-2
1558440089252611,1,0,1,3,5,0,2,3
1558440089252611,-1,-3,-4,-3,-3,-5,-7,-4
1558440089258871,1,0,1,0,0,0,0,0
1558440089258871,-3,0,-2,-5,-12,1,-3,-2
1558440089273782,0,-1,0,-2,-1,-3,-2,-1
1558440089273782,-1,0,-2,0,3,7,5,1
1558440089282528,-2,-2,-2,0,-4,-1,-2,-1
1558440089282528,1,0,0,0,0,-1,2,0
1558440089288771,-2,-2,-3,-1,-4,-5,-3,-2
1558440089288771,-1,0,0,-2,1,2,1,0
1558440089296750,-3,-2,-1,-2,-3,-3,-1,-3
1558440089296750,-3,-1,0,-1,3,2,3,3
1558440089311716,-1,-2,-1,-2,-1,-1,-4,-2
1558440089311716,0,-1,0,0,-2,0,-3,-2
1558440089318710,0,1,0,-1,-2,-1,-1,-2
1558440089318710,0,1,0,-1,1,-3,-2,-1
1558440089333394,-3,-1,-1,-1,-2,-4,-2,-1
1558440089333394,-2,-1,2,-1,-2,1,0,0
1558440089341372,2,0,-4,-2,1,-2,1,-2
1558440089341372,-3,-3,-2,0,0,-1,-1,-2
1558440089348350,-2,-2,-4,-1,0,1,2,0
1558440089348350,-2,-3,-3,-2,-5,-4,-1,-2
1558440089356331,-1,0,-1,-1,-3,-3,-3,0
1558440089356331,0,-1,1,-1,4,5,1,1
1558440089379649,0,-1,0,0,1,-4,-4,1
1558440089379649,0,-2,-7,-3,-2,0,-3,-2
1558440089380266,0,-1,1,-1,-3,-1,-1,-2
1558440089380266,-1,-1,-2,0,4,4,2,0
1558440089394377,-2,0,3,0,0,-4,1,0
1558440089394377,-2,-1,-2,-2,-1,-3,-3,-2
1558440089402643,-2,-1,-3,-2,-6,-7,-6,-4
1558440089402643,-1,-1,-3,-3,-1,-3,-5,-1
1558440089416169,0,1,1,-1,1,6,4,1
1558440089416169,-3,-5,-2,-1,-2,0,-1,-2
1558440089418189,1,-2,2,1,14,15,8,4
1558440089418189,-1,0,1,-1,-7,-5,3,0
1558440089431466,-2,-3,-4,-1,-7,-7,-10,-3
1558440089431466,3,1,2,3,5,3,3,2
1558440089438460,-2,-4,-1,-2,-6,-8,-7,-6
1558440089438460,0,-1,-2,-1,-1,4,-2,-1
1558440089454390,1,0,-1,0,-1,-10,-1,0
1558440089454390,-2,-4,-5,-5,-9,-5,-8,-4
1558440089462400,1,-2,-3,-1,4,8,3,2
1558440089462400,1,3,4,4,0,-12,2,2
1558440089477370,-5,-2,-1,-3,-7,11,-1,-3
1558440089477370,-1,0,2,0,5,-1,0,0
1558440089477370,-1,1,1,0,-1,-3,-1,1
1558440089477370,-1,-4,-4,-3,1,-2,-2,-3
1558440089491297,0,0,-1,-3,-4,-2,0,-1
1558440089491297,0,0,1,2,6,8,5,2
1558440089499137,-3,-3,-2,-1,-2,1,0,0
1558440089499137,0,-1,0,-3,-5,-5,-2,-2
1558440089514178,0,-3,-2,-1,0,-4,-4,-3
1558440089514178,-2,-1,-4,-2,-7,2,-4,-4
1558440089522155,0,-1,-2,-3,-5,-7,-5,-2
1558440089522155,-2,-3,-2,0,1,2,1,0
1558440089536879,0,-1,-2,-1,0,1,-2,-1
1558440089536879,0,0,1,0,0,6,1,-1
1558440089537868,2,1,3,2,8,-1,5,2
1558440089537868,-1,1,1,-1,0,0,-2,-1
1558440089550810,-3,-4,-5,-4,-3,-2,-4,-3
1558440089550810,-4,-1,-1,-1,-8,-4,-3,-3
1558440089558789,-1,-2,-4,-2,0,-4,-2,-1
1558440089558789,-1,1,-1,-1,3,6,1,0
1558440089573749,0,-1,0,-1,-2,-5,0,-2
1558440089573749,0,2,0,-2,-2,-5,-5,-4
1558440089582072,-2,-3,-2,-5,-7,-5,-7,-5
1558440089582072,-3,-4,0,-1,-1,-1,-1,0
1558440089597122,-2,-2,-1,-4,1,3,-1,0
1558440089597122,1,0,0,0,-4,-10,-4,-1
1558440089597685,1,0,0,2,0,4,8,3
1558440089597685,1,-1,1,0,12,5,-3,-1
1558440089612032,-1,-3,-2,-2,-7,1,-1,-2
1558440089612032,4,1,4,3,9,-10,5,6
1558440089619063,-4,0,1,-3,-4,-3,0,1
1558440089619063,-3,-1,-3,-1,-1,3,-2,-4
1558440089633590,3,0,0,1,3,4,1,0
1558440089633590,-1,-2,-4,0,-4,4,-2,-3
1558440089642021,1,-2,-3,-4,-6,-6,-4,-3
1558440089642021,1,-2,-2,-3,-11,0,-2,-2
1558440089657303,-4,-3,-1,0,4,-1,1,1
1558440089657303,-2,-2,-1,1,2,-3,2,-1
1558440089657303,-1,0,-1,1,-5,-1,-5,-3
1558440089657303,-1,0,1,1,7,10,4,1
1558440089671279,-1,1,-1,0,-2,-2,-3,-1
1558440089671279,-1,0,1,-1,-12,-6,-5,-3
1558440089679207,0,-4,-3,-6,-6,-6,-5,-4
1558440089679207,0,0,-2,3,10,23,8,3
1558440089694179,0,-2,0,-1,1,-9,0,1
1558440089694179,-4,-1,-4,-4,4,4,1,0
1558440089702187,-1,1,0,0,-5,-9,-7,-3
1558440089702187,-2,-3,-3,-5,-12,-13,-9,-5
1558440089716853,-1,1,-3,1,9,11,6,3
1558440089716853,-2,2,0,0,1,3,3,3
1558440089717880,-4,0,1,-1,-1,-2,-2,-1
1558440089717880,-2,-2,0,-5,-6,-8,-5,-4
1558440089731092,2,2,2,2,1,2,1,-1
1558440089731092,-2,-3,-4,-1,-2,-6,-5,-4
1558440089738792,-3,-5,-8,-3,4,8,1,-2
1558440089738792,0,-1,2,3,4,1,2,2
1558440089753751,0,0,3,0,-9,-8,-1,-2
1558440089753751,-1,-1,-1,-4,3,5,0,-1
1558440089761760,0,0,2,-1,1,-3,-1,-1
1558440089761760,-3,-2,-3,-5,-13,-9,-5,-3
1558440089776726,-1,-2,-4,0,4,8,4,0
1558440089776726,-5,-2,0,0,-5,-3,-2,-3
1558440089777722,-1,-1,-1,1,2,-6,1,0
1558440089777722,0,-2,-1,1,2,0,5,0
1558440089790653,1,0,0,0,-2,2,-2,0
1558440089790653,-2,-3,-1,-3,-4,-3,-6,-2
1558440089799068,-2,0,-2,1,1,5,-1,-3
1558440089799068,-1,2,0,-1,-2,-6,-2,2
1558440089814044,-4,-2,-4,-2,0,0,-3,-4
1558440089814044,0,-3,-5,1,-3,-4,-2,0
1558440089821974,0,1,2,-2,1,5,1,1
1558440089821974,0,0,0,4,4,0,-2,-2
1558440089836530,-3,0,0,-3,-9,-9,-2,-1
1558440089836530,0,0,-2,0,-3,4,0,-2
1558440089837528,-2,-1,-2,-4,4,6,1,2
1558440089837528,1,-3,-1,1,-4,-11,-1,0
1558440089852487,-2,-2,-1,-3,-1,4,-1,-1
1558440089852487,2,1,2,-3,-6,-15,-6,-3
1558440089858506,2,0,1,6,7,12,9,3
1558440089858506,-3,-2,-3,-5,-8,1,-4,-2
1558440089873430,-2,-1,2,0,-3,0,-3,-2
1558440089873430,2,1,3,1,11,8,3,-1
1558440089881408,-2,-3,-9,-5,-9,-9,-5,-1
1558440089881408,-1,-2,-4,-3,-4,-2,-2,-1
1558440089897113,0,-1,0,-1,-3,-6,-4,-1
1558440089897113,0,1,1,0,5,2,3,6
1558440089898248,-2,-4,0,-1,-8,-6,-6,-4
1558440089898248,0,1,0,-2,-2,-3,-4,-1
1558440089911526,1,-1,-1,0,0,-3,1,0
1558440089911526,-2,-2,1,-1,3,3,6,-1
1558440089918520,-1,0,0,-1,-6,-9,-4,-3
1558440089918520,-3,-1,-2,-3,-4,-3,-1,-4
1558440089934018,-2,-1,0,0,0,-2,-7,-2
1558440089934018,0,-1,-2,0,-1,5,1,0
1558440089941996,0,-1,1,-1,-3,-10,0,0
1558440089941996,0,-2,-2,1,11,5,1,1
1558440089956964,0,-1,1,-1,4,4,-3,-2
1558440089956964,-2,-4,-6,-4,-4,-2,-3,-4
1558440089956964,-2,-1,-1,-1,-5,-6,0,-2
1558440089956964,-2,-3,0,-2,-1,-2,-5,-3
1558440089971916,0,2,0,2,4,8,9,3
1558440089971916,0,0,-1,-4,-9,-9,-6,0
1558440089979282,0,-1,-2,0,10,9,1,-1
1558440089979282,1,3,1,-2,-5,-6,0,1
1558440089994239,-2,-2,-3,-3,3,2,3,-1
1558440089994239,1,0,1,2,5,-1,0,1
1558440090002211,-1,-2,-1,-2,-4,6,-3,-2
1558440090002211,-1,-3,-4,-2,-4,-4,-1,1
1558440090016797,1,-1,1,-3,2,-3,-1,2
1558440090016797,-2,-1,-1,1,0,0,-1,-3
1558440090017803,0,1,0,-1,-1,2,0,0
1558440090017803,0,1,1,1,-2,2,-1,-3
1558440090031252,1,-1,0,-2,-9,0,0,-2
1558440090031252,-5,-4,-3,-3,-2,1,-3,-2
1558440090039080,-1,-1,1,0,-1,-5,1,2
1558440090039080,-2,-1,-3,-3,0,-1,0,-1
1558440090054018,-2,-3,-4,1,0,-2,-2,-2
1558440090054018,2,2,4,-2,-1,-4,3,0
1558440090061982,-3,-2,-3,0,-2,-2,-3,-4
1558440090061982,-3,-4,-4,0,-7,-5,-4,-5
1558440090076942,0,0,1,1,7,6,1,2
1558440090076942,0,-1,-4,-2,-7,-4,-1,-3
1558440090077634,-1,1,4,3,0,-4,5,2
1558440090077634,-1,-1,1,3,2,5,0,1
1558440090091843,-1,-3,-3,-7,-7,-7,-6,-2
1558440090091843,-1,-2,-1,1,-2,6,-1,-3
1558440090098881,-2,0,-5,-2,-7,-5,-4,-4
1558440090098881,0,-1,1,-2,2,0,0,-1
1558440090113766,1,-1,-2,0,-3,-6,-2,0
1558440090113766,-1,-2,2,0,6,14,7,3
1558440090121762,0,0,1,0,10,1,-1,2
1558440090121762,0,0,-1,1,0,3,1,2
1558440090136715,-3,1,-5,-3,-7,-5,-2,-4
1558440090136715,-3,-2,-3,-3,-5,-7,-8,-4
1558440090137480,-3,-3,-3,-1,-1,2,-2,-2
1558440090137480,2,0,4,0,3,4,3,1
1558440090151436,0,-2,-3,0,-2,-5,-2,-1
1558440090151436,-1,0,-3,-2,-3,0,-1,-1
1558440090158448,0,-1,0,-3,-4,-2,0,-1
1558440090158448,-2,-4,-1,-2,-2,-7,-7,-3
1558440090173826,1,1,5,-1,0,-1,4,0
1558440090173826,1,-2,-4,0,1,-2,-5,-1
1558440090181865,0,0,-4,-1,0,7,1,0
1558440090181865,-2,-1,-2,-5,-7,-5,-3,-2
1558440090196813,-2,1,-2,-3,-9,-6,-8,-3
1558440090196813,0,0,4,2,11,3,6,4
1558440090204804,1,1,4,3,2,-2,3,4
1558440090204804,-1,0,-2,0,4,3,1,0
1558440090211786,-2,-1,4,3,2,11,3,0
1558440090211786,-2,-3,-5,-4,-16,-11,-5,-4
1558440090218666,0,-3,-2,-2,-1,-5,-6,-4
1558440090218666,-1,0,-3,-4,0,2,0,0
1558440090233220,-2,-1,-2,1,0,-6,-8,-4
1558440090233220,-1,0,1,0,1,2,8,4
1558440090242526,1,1,2,1,0,-2,1,2
1558440090242526,-3,-3,-5,-1,-7,-3,-6,-4
1558440090256425,0,-1,-3,-4,3,4,1,-1
1558440090256425,1,1,1,2,7,-7,-2,2
1558440090265387,-2,-2,-2,-6,-9,1,-3,-5
1558440090265387,0,-1,1,0,1,0,-2,-2
1558440090272145,-1,-4,-3,0,-4,2,-3,-1
1558440090272145,0,1,1,1,7,1,5,3
1558440090279255,-1,-2,0,1,-4,-3,-2,-3
1558440090279255,-1,-1,0,-1,-5,-4,-3,-2
1558440090294292,-1,-2,-1,-1,0,2,3,0
1558440090294292,-3,-2,-3,-3,-10,-1,-7,-5
1558440090302298,-1,0,0,-1,-1,-6,-2,-1
1558440090302298,1,0,1,2,3,5,6,2
1558440090316002,1,0,-3,-3,4,-2,0,1
1558440090316002,0,-1,1,0,-1,-4,-5,-2
1558440090324973,-1,-4,-3,-1,-3,-5,-4,-2
1558440090324973,0,-2,-4,-5,-3,3,0,-3
1558440090331217,-2,-1,2,4,3,-2,1,0
1558440090331217,-2,-1,-2,-5,-11,-7,-3,-3
1558440090339203,0,1,2,-1,3,3,3,2
1558440090339203,-3,-5,-7,-4,-8,-9,-7,-5
1558440090361874,-2,-1,-3,-2,-3,-1,-3,-3
1558440090361874,1,2,2,3,7,-3,5,4
1558440090362871,-2,1,-2,-1,-2,-4,-2,0
1558440090362871,-1,0,0,2,4,7,2,1
1558440090375836,-1,1,-1,-2,-6,-11,-4,-3
1558440090375836,-3,-3,-4,-5,-5,-8,-4,-2
1558440090385091,-1,0,-2,-2,1,1,1,-2
1558440090385091,-2,-2,-1,0,4,0,1,-1
1558440090399221,-2,-2,0,-2,-3,-5,-3,-1
1558440090399221,0,-1,0,0,-3,7,0,-3
1558440090399772,-2,-2,-4,0,-1,-2,-3,-1
1558440090399772,-1,0,-2,-3,1,3,1,0
1558440090414194,-1,-2,-2,-2,4,2,1,-2
1558440090414194,1,1,5,2,4,-9,0,1
1558440090421852,0,0,0,-2,-9,-4,-1,-1
1558440090421852,-1,1,1,-1,-9,-13,-5,-1
1558440090436772,0,1,1,-3,-3,6,3,1
1558440090436772,-5,-6,-15,-7,-9,-3,-9,-8
1558440090444906,-1,-2,0,2,12,17,7,3
1558440090444906,-2,0,1,-1,-2,-12,-2,-1
1558440090459968,1,0,2,0,-4,-10,1,1
1558440090459968,-1,-1,0,-1,-1,6,-2,-1
1558440090459968,-1,-2,-2,-3,-1,0,0,-2
1558440090459968,-1,1,2,3,6,7,4,2
1558440090473963,1,-1,-1,-4,-4,-3,-2,-1
1558440090473963,-1,-1,1,0,-1,1,0,-2
1558440090481356,0,-2,0,1,4,3,1,1
1558440090481356,0,1,-1,0,-2,-5,-2,-1
1558440090496455,-1,-3,-3,3,1,2,1,0
1558440090496455,-1,-2,-1,-2,-6,-9,-6,-1
1558440090504787,1,-1,1,-1,-4,-7,-3,0
1558440090504787,0,0,-6,-1,5,11,7,1
1558440090519734,-2,-2,-2,-1,1,6,-2,-3
1558440090519734,-2,-4,-3,0,-4,4,-2,-3
1558440090519734,-2,2,2,-1,3,-9,-1,1
1558440090519734,1,-2,1,-4,-8,-8,-5,-1
1558440090533363,-3,-1,-4,-4,-5,-1,-5,-4
1558440090533363,1,-1,-1,2,10,11,7,2
1558440090541662,2,1,1,1,3,8,2,-2
1558440090541662,-5,-3,-5,-7,-5,-1,-4,-5
1558440090565296,0,1,1,3,4,4,4,0
1558440090565296,-1,0,0,-4,-5,-11,-6,-4
1558440090565296,-2,-1,-3,0,-1,2,-3,-1
1558440090565296,1,-1,-2,3,5,0,6,4
1558440090579522,-1,-3,-3,-2,1,-10,-8,-2
1558440090579522,-1,-1,-4,-1,-1,6,1,0
1558440090580237,1,-2,-4,0,2,2,-1,-2
1558440090580237,-1,-1,3,-1,-3,0,-4,-4
1558440090593486,0,-1,1,0,1,2,1,1
1558440090593486,0,0,-1,2,-4,-5,-3,-2
1558440090601209,0,0,-4,-2,-1,6,1,2
1558440090601209,-1,-1,-1,0,-3,1,-4,-2
1558440090616140,-3,-1,-3,-3,1,0,-1,-1
1558440090616140,0,1,2,0,2,-3,2,1
1558440090624372,0,-3,-3,-4,-10,-13,-8,-1
1558440090624372,2,2,5,5,13,11,11,3
1558440090639353,-1,-1,-4,-6,1,-2,0,-1
1558440090639353,-3,0,-1,-1,-8,-3,-5,-2
1558440090640079,-1,-2,-3,0,1,-7,1,-3
1558440090640079,0,2,-1,-1,-6,-9,-3,0
1558440090654269,0,-1,1,4,0,0,-3,-1
1558440090654269,-2,-2,0,-3,0,1,0,2
1558440090661293,-1,-2,1,-2,-1,7,-1,-1
1558440090661293,0,0,1,-2,-6,-10,-6,-2
1558440090676263,0,1,-1,3,3,1,4,0
1558440090676263,0,-1,-3,-3,-6,-4,-3,0
1558440090684989,-1,0,-2,0,-1,-4,-2,-1
1558440090684989,-3,-3,-5,-4,-5,2,-1,-3
1558440090698968,2,0,4,4,2,-10,0,2
1558440090698968,-5,-5,-14,-5,1,1,-5,-4
1558440090699916,-2,-2,1,-1,-10,-8,-6,-4
1558440090699916,-1,-1,0,2,12,12,10,4
1558440090714168,0,-1,1,-4,-8,-14,-4,-2
1558440090714168,0,-4,-10,-5,2,4,5,2
1558440090721151,-2,-1,4,1,-5,0,-4,-2
1558440090721151,-4,-4,-5,-6,-5,-3,-5,-4
1558440090736832,-1,0,0,0,-4,5,-1,-2
1558440090736832,1,3,4,3,8,-2,2,-1
1558440090744939,-4,-1,-4,-4,-4,-12,-3,-3
1558440090744939,0,0,2,2,-10,-13,-6,0
1558440090758758,0,-1,2,3,6,10,5,2
1558440090758758,-2,-3,-4,-3,-6,0,-4,-1
1558440090759758,-1,-1,-5,1,5,8,5,1
1558440090759758,0,3,0,1,1,-8,-2,2
1558440090773718,-2,-1,3,-2,-5,-5,-5,-2
1558440090773718,-1,-2,-6,-3,0,0,-2,-1
1558440090780732,-3,0,0,1,7,12,6,3
1558440090780732,-1,-3,-5,-3,-6,-1,-6,-5
1558440090796821,0,1,-1,1,3,1,2,1
1558440090796821,-2,-1,7,1,5,-1,0,1
1558440090804935,-2,1,-4,-2,-2,-2,3,0
1558440090804935,0,1,-3,-3,-1,-7,-2,-3
1558440090819777,-5,-2,-2,-4,-6,1,-7,-2
1558440090819777,2,-1,13,8,0,-1,-1,-1
1558440090819777,1,-5,-13,-8,-2,1,-3,-2
1558440090819777,1,0,5,2,2,1,1,1
1558440090833560,0,-4,-10,-3,5,2,2,0
1558440090833560,1,3,3,0,-3,-2,-2,-1
1558440090841799,-1,-3,-1,-2,-5,-1,-5,-3
1558440090841799,0,0,4,2,10,12,6,3
1558440090856702,-2,0,-2,-3,-7,-5,-2,-1
1558440090856702,-2,-1,-2,-3,-3,-3,-4,-3
1558440090864735,3,4,8,5,7,2,3,1
1558440090864735,-3,-2,-7,-2,0,1,0,-3
1558440090879689,-2,-4,0,-5,-8,-4,-6,-2
1558440090879689,-2,-2,-6,-4,-1,2,-1,-4
1558440090879689,-3,-3,0,-1,-10,-10,-8,-3
1558440090879689,0,0,5,1,3,5,7,3
1558440090893430,-1,-1,-5,-1,5,-1,-2,-1
1558440090893430,0,-1,-1,-2,-4,-5,-2,0
1558440090901400,-3,-1,-1,-3,-4,0,-5,-2
1558440090901400,0,1,6,3,-3,-4,-2,-2
1558440090916338,0,-1,-7,-3,-2,-2,1,0
1558440090916338,-3,-4,-2,0,-2,1,-2,-3
1558440090924313,-1,-1,-5,-1,7,8,3,2
1558440090924313,1,1,-1,0,2,0,4,2
1558440090939285,0,1,3,1,-7,-7,-3,-4
1558440090939285,2,-1,2,-3,0,-2,2,-1
1558440090939285,-1,0,2,-1,3,2,0,-1
1558440090939285,-3,-4,-7,-5,-8,0,-5,-3
1558440090953706,-1,-1,2,-1,-3,2,1,0
1558440090953706,1,-1,-2,-3,-2,-2,-1,-1
1558440090961818,0,-2,3,0,-4,-6,-1,-1
1558440090961818,1,1,1,1,4,-5,-1,1
1558440090975852,-4,-1,-2,-2,1,5,1,-3
1558440090975852,1,3,6,3,8,6,5,5
1558440090984613,-4,-3,-6,-4,-7,-7,-6,-3
1558440090984613,-3,-2,-4,-2,-7,-4,-10,-4
1558440090999575,-4,-1,-1,0,-1,-1,-1,-1
1558440090999575,-1,0,1,1,3,1,2,-1
1558440090999575,0,-3,-5,-4,-1,-7,1,0
1558440090999575,-2,-4,-1,-1,-3,-5,-5,-4
1558440091013996,1,1,3,2,0,3,3,-2
1558440091013996,-4,-3,-5,-2,-6,-2,-3,-1
1558440091021819,1,0,3,2,0,-4,-2,-2
1558440091021819,-3,-2,-4,-5,-1,10,0,-3
1558440091036731,3,1,4,3,1,-3,-2,2
1558440091036731,1,0,-1,-1,1,-5,2,3
1558440091044833,-2,-3,-1,-4,-3,3,-3,-3
1558440091044833,0,0,-3,-1,-3,-4,-2,1
1558440091059739,0,0,2,1,2,0,2,1
1558440091059739,-3,-1,3,-1,-4,-2,-7,-3
1558440091060359,-3,-3,-10,-4,2,7,3,-3
1558440091060359,-2,-1,-3,-3,-4,0,1,-2
1558440091073658,1,-1,0,1,12,1,2,2
1558440091073658,-2,-2,0,-1,-6,-1,-1,-2
1558440091081612,-2,0,-1,1,-4,-7,-3,-2
1558440091081612,0,-1,2,-2,0,1,1,-1
1558440091096490,-5,-2,-5,-4,-13,-8,-8,-5
1558440091096490,-1,-1,0,2,16,12,4,-1
1558440091104450,3,2,2,2,7,0,6,5
1558440091104450,-1,-2,0,-2,-6,-1,-1,0
1558440091118416,-2,-5,-7,-8,-2,-9,-3,0
1558440091118416,-2,-1,0,0,-9,-5,-5,-5
1558440091127396,-4,-1,-1,-2,0,0,-3,-3
1558440091127396,1,0,1,0,0,4,1,1
1558440091133168,-1,1,4,3,1,9,3,-2
1558440091133168,-1,-1,2,0,0,-4,-3,1
1558440091141146,-1,1,1,0,1,1,0,-1
1558440091141146,-4,-3,-12,-5,0,-6,-4,-2
1558440091156106,1,-1,0,1,-8,-13,-6,-3
1558440091156106,1,0,0,-4,-11,-4,3,1
1558440091164083,3,2,6,4,9,6,1,0
1558440091164083,-2,0,3,-2,-7,-1,-2,-2
1558440091179276,-2,-6,-6,-4,-5,-2,-3,-3
1558440091179276,1,3,-1,0,2,-8,1,0
1558440091187394,-3,-4,-3,-2,-5,-3,-1,0
1558440091187394,-2,-1,-2,-1,-1,1,-2,-2
1558440091201982,-2,-1,0,2,-2,6,0,1
1558440091201982,-2,-1,-1,-3,-6,-5,-4,-3
1558440091201982,-1,-1,-3,-2,0,5,4,0
1558440091201982,-1,-1,-5,0,7,5,3,0
1558440091215941,0,1,7,-1,-6,-3,-3,-2
1558440091215941,-1,-4,-12,-5,-4,-9,-1,1
1558440091223920,1,3,5,1,-4,-6,-3,-2
1558440091223920,-1,-1,1,-1,0,1,0,0
1558440091239196,-2,0,-3,0,2,1,1,-1
1558440091239196,-3,-3,-1,-3,0,9,-1,-2
1558440091247202,-2,-1,0,1,4,1,1,3
1558440091247202,2,2,6,4,3,-5,1,2
1558440091254084,-2,-2,-7,-5,-4,1,-1,-1
1558440091254084,-3,-3,-8,-2,-2,2,-3,-6
1558440091261820,-3,-3,-9,-3,-3,-1,-4,-5
1558440091261820,1,2,9,1,5,-1,0,1
1558440091275786,1,3,1,2,4,2,4,1
1558440091275786,-1,-4,-7,-5,5,9,5,2
1558440091284795,-3,-2,0,1,-2,1,-1,-3
1558440091284795,-1,-1,1,-3,-6,-10,-2,-2
1558440091298961,-2,-2,-2,-2,-1,1,-4,-1
1558440091298961,0,3,4,3,4,9,4,0
1558440091306701,0,-1,-4,-3,-8,-12,0,1
1558440091306701,-1,0,2,-2,-1,-7,-4,-2
1558440091321776,-3,-4,-8,-3,4,-1,1,-2
1558440091321776,0,0,3,3,-4,-1,-2,2
1558440091322657,-3,-1,1,2,1,-3,0,-1
1558440091322657,0,0,2,0,0,-1,0,0
1558440091336827,0,-3,-4,-2,-9,-5,-7,-5
1558440091336827,-2,0,5,0,0,3,2,0
1558440091344936,0,-1,-4,-3,-1,-2,-1,-1
1558440091344936,-1,-6,-14,-3,-5,0,-2,-3
1558440091358679,0,1,0,1,7,-4,3,2
1558440091358679,0,2,3,0,2,5,6,2
1558440091366543,0,0,4,0,-10,-7,-6,-4
1558440091366543,-2,-3,-3,-2,-6,-5,-5,-3
1558440091381500,0,1,4,1,-2,-7,-3,-2
1558440091381500,0,-1,-8,-4,-3,-5,-1,-1
1558440091382497,2,1,5,3,9,10,5,3
1558440091382497,-3,-2,-7,-3,-6,-3,-6,-3
1558440091397457,-1,-2,0,-4,0,12,2,-1
1558440091397457,-2,-1,0,-2,-11,-16,-10,-4
1558440091404438,0,-3,-3,-5,-6,-2,-7,-3
1558440091404438,2,3,-1,2,8,10,6,2
1558440091418723,3,2,9,6,-2,-6,1,1
1558440091418723,-2,-6,-9,-6,2,-4,-2,-1
1558440091427406,-3,-4,-3,-6,-8,3,-3,-3
1558440091427406,-3,-1,3,1,0,-1,0,-2
1558440091442379,0,-1,-12,-3,2,3,1,1
1558440091442379,-1,0,2,0,-4,2,-5,-2
1558440091442379,-1,-3,-4,-4,-2,-4,-3,-2
1558440091442379,-1,2,7,2,-5,-7,-1,0
1558440091456611,0,1,-5,-3,1,3,3,-1
1558440091456611,-2,0,-4,-1,4,-6,-3,0
1558440091464604,0,0,2,3,5,8,3,1
1558440091464604,-4,-3,-4,-4,-7,-3,-6,-3
1558440091479239,-1,-1,0,-2,-3,-1,-4,-5
1558440091479239,-3,0,-1,-2,-7,2,-2,-5
1558440091486524,0,0,3,2,0,-6,-4,0
1558440091486524,2,0,5,4,10,-5,3,2
1558440091502425,-3,-4,-9,-10,-8,-4,-5,-1
1558440091502425,-1,-1,-4,-1,-4,2,-3,-3
1558440091502425,1,4,6,-1,-4,-12,-4,-1
1558440091502425,-1,-5,-9,-3,2,4,1,0
1558440091517137,1,0,1,0,-4,-4,-2,-1
1558440091517137,-1,-1,2,1,1,-2,-1,0
1558440091524363,-4,-1,-3,-3,-7,-4,-3,-3
1558440091524363,-2,2,1,2,4,2,3,-1
1558440091538084,-3,-2,3,2,8,-1,-1,0
1558440091538084,0,0,0,-3,-6,-2,-4,-1
1558440091547312,-1,-2,-1,2,6,8,2,-1
1558440091547312,-3,-3,-5,-5,-14,-13,-6,-3
1558440091562270,-1,2,8,5,6,7,2,2
1558440091562270,0,-2,-1,0,7,4,2,0
1558440091562270,-4,-4,-9,-5,-3,-6,-6,-1
1558440091562270,0,0,-3,-1,-3,-3,-1,-2
1558440091575980,-1,-1,0,-2,-5,3,-1,-2
1558440091575980,-1,0,7,1,4,-7,4,2
1558440091583959,-1,-1,3,3,4,1,-3,-1
1558440091583959,-4,-6,-6,-6,-6,3,-1,-5
1558440091598919,0,-1,-1,0,5,-5,0,1
1558440091598919,0,-1,-1,-1,-6,-1,-3,-2
1558440091607124,-1,-1,-5,-2,-1,7,1,-4
1558440091607124,-2,-1,-1,-2,-4,-8,-2,1
1558440091621860,-3,-3,-1,-3,-9,-10,-6,-4
1558440091621860,0,1,-1,1,12,8,5,2
1558440091621860,-1,-1,-2,-1,-7,-7,0,1
1558440091621860,0,0,-3,-1,8,3,-1,0
1558440091637814,1,0,0,-2,-2,4,3,3
1558440091637814,0,2,4,1,-4,-4,-5,-1
1558440091644845,1,-3,-3,0,6,6,6,0
1558440091644845,0,-1,-3,-3,-3,0,2,0
1558440091659048,1,0,2,0,-1,-1,0,1
1558440091659048,-3,-5,-7,-5,-7,-4,-8,-5
1558440091674747,-3,-3,0,-1,-3,4,0,-2
1558440091674747,0,0,-3,-1,-1,-4,0,-1
1558440091681971,0,0,4,1,10,5,3,1
1558440091681971,-1,0,-2,1,-1,-4,-2,-1
1558440091682695,2,0,0,-5,-2,0,2,1
1558440091682695,-1,-3,1,1,-8,3,-6,-6
1558440091695936,-4,-4,-14,-6,-2,-1,-2,-2
1558440091695936,1,0,1,1,2,-8,3,1
1558440091703638,1,2,5,3,11,5,5,2
1558440091703638,-1,0,-4,-1,-3,6,3,-1
1558440091718633,0,-1,1,0,-6,-8,-4,-3
1558440091718633,-3,-2,-3,-1,-2,5,2,-2
1558440091726611,-1,-1,-1,-1,-4,-7,-2,-1
1558440091726611,2,1,3,-2,-1,-10,-5,1
1558440091741537,-3,-1,-2,0,1,0,-1,-2
1558440091741537,1,-2,2,4,2,1,-1,-1
1558440091742534,-3,-2,-7,-12,-11,1,-5,-6
1558440091742534,-2,-2,0,1,-3,-8,0,1
1558440091757494,3,1,1,-2,5,1,3,1
1558440091757494,0,-2,-2,-2,-2,-3,0,-1
1558440091764488,-1,1,2,2,-3,-6,-5,-2
1558440091764488,-1,-2,-6,-3,-4,1,-6,-3
1558440091778853,-1,3,5,0,-5,-1,-2,-1
1558440091778853,0,-2,-4,0,12,12,4,3
1558440091803407,-2,-3,-10,-1,-5,-12,-3,-1
1558440091803407,-1,-1,3,0,2,6,2,-1
1558440091804369,-1,-1,-4,-4,-7,-2,-4,-4
1558440091804369,0,0,1,-1,2,5,2,-2
1558440091805366,-1,1,1,-2,4,2,3,1
1558440091805366,2,1,5,1,4,-3,1,2
1558440091816338,-3,-2,2,0,-8,-5,-7,-3
1558440091816338,-3,-2,-9,-6,-10,-3,-4,-3
1558440091824554,1,1,-2,0,4,-8,0,3
1558440091824554,0,3,5,1,3,9,5,0
1558440091838642,-2,-3,-5,1,6,4,1,-1
1558440091838642,0,0,4,-3,-10,-10,-6,-3
1558440091846256,-3,-2,-4,-1,-2,1,-2,-3
1558440091846256,-3,0,0,-2,2,4,-3,-2
1558440091861316,-1,-2,-3,-2,-5,-6,-1,0
1558440091861316,0,1,5,3,-3,-2,-6,0
1558440091862213,0,-2,-2,-2,-2,1,0,-1
1558440091862213,0,-3,-2,-5,0,-9,2,0
1558440091877175,-4,-8,-9,-4,-6,-6,-7,-2
1558440091877175,-1,1,2,-2,6,8,5,0
1558440091884156,-1,-2,1,2,-1,5,0,-3
1558440091884156,0,1,-1,-4,-5,-6,-1,1
1558440091898118,1,2,3,4,6,0,1,0
1558440091898118,-2,-2,-2,-1,-7,-10,-4,-2
1558440091914075,-3,0,-1,-2,0,0,-6,-3
1558440091914075,-1,-1,-8,0,1,-1,-2,-1
1558440091922063,-1,0,1,0,-1,-1,0,0
1558440091922063,0,1,4,6,6,6,4,1
1558440091922063,1,0,0,-5,-6,-3,-4,-3
1558440091922063,-3,-6,-7,-3,-9,-1,-9,-6
1558440091936016,1,-3,-2,-4,-5,-4,-2,0
1558440091936016,1,-1,-2,1,8,-5,4,4
1558440091951974,-3,0,12,6,5,1,1,3
1558440091951974,-2,-1,-5,-3,2,9,3,-1
1558440091958955,2,2,2,-2,1,0,1,-1
1558440091958955,-5,-4,-8,-9,-12,-3,-7,-6
1558440091966934,1,0,1,-2,-10,-7,-3,-4
1558440091966934,-1,-2,-1,0,1,1,-1,-1
1558440091981893,-1,-5,-6,-3,-1,-8,-2,0
1558440091981893,-1,-2,-4,-2,-2,-4,-2,-1
1558440091981893,1,0,2,2,-1,6,2,1
1558440091981893,-1,0,0,-1,0,-3,-1,-3
1558440091997853,0,3,6,4,3,8,7,2
1558440091997853,-1,-3,0,-1,0,-7,0,0
1558440092003835,-1,-2,-11,-5,-11,-11,-7,-3
1558440092003835,0,0,5,1,-1,-2,-4,2
1558440092018798,-1,2,2,5,21,21,11,6
1558440092018798,-2,-2,0,-1,-3,-5,-3,0
1558440092033755,-3,0,-7,-3,2,-2,3,1
1558440092033755,-1,-5,-4,-2,-7,-9,-8,-4
1558440092040744,-3,1,-2,-5,-17,-2,-6,-4
1558440092040744,1,3,4,4,7,1,1,2
1558440092048714,1,-1,-1,-1,3,-1,1,0
1558440092048714,-1,0,-1,1,3,1,3,2
1558440092055702,-3,-2,-2,-5,-10,-7,-6,-5
1558440092055702,2,0,0,0,2,6,2,-2
1558440092079641,-1,-3,-1,1,-4,-3,0,-1
1558440092079641,0,-1,0,0,9,3,4,0
1558440092081633,-3,-1,-1,-5,-3,0,-5,-3
1558440092081633,0,-3,-4,-2,-7,-2,-2,-2
1558440092086613,0,0,5,4,-1,-11,-7,1
1558440092086613,-2,-1,-2,-3,-1,3,3,0
1558440092100576,0,-3,-10,-6,1,0,0,-2
1558440092100576,0,1,6,4,-1,-2,2,-1
1558440092118526,-4,-3,-8,-7,-8,5,-1,-4
1558440092118526,-2,-3,-2,0,-4,-8,-7,-3
1558440092118526,1,0,7,4,2,2,1,1
1558440092118526,-1,-4,-4,-5,-4,-14,-6,-2
1558440092124511,2,-1,4,-2,-7,4,4,0
1558440092124511,-1,1,-1,1,7,5,3,-1
1558440092138475,-1,1,2,3,-1,1,-1,0
1558440092138475,-2,-2,-9,-4,-3,-6,-3,-1
1558440092154497,-1,-2,1,1,2,-1,-1,-2
1558440092154497,0,-1,-3,-1,0,-3,-1,0
1558440092169392,-2,-1,5,2,-4,0,-4,-2
1558440092169392,-2,-1,-12,-6,4,1,-3,-1
1558440092170390,-1,-1,-1,-2,-2,-1,-2,-2
1558440092170390,-2,-2,-4,-4,-1,6,3,0
1558440092176407,0,-1,-1,0,4,-1,1,1
1558440092176407,-1,0,4,0,-6,2,-4,-4
1558440092191339,-1,-1,1,3,-8,-14,-8,-3
1558440092191339,-1,-1,2,-3,2,9,3,0
1558440092198316,2,0,-1,1,3,-9,4,1
1558440092198316,-2,0,0,-2,-4,7,0,1
1558440092206353,-1,0,-3,-2,5,7,2,0
1558440092206353,-1,-2,2,-2,-4,-6,-7,-4
1558440092237212,-3,-3,-4,-2,1,0,2,1
1558440092237212,-1,-1,-3,-2,-4,-4,2,0
1558440092238208,0,0,-1,1,0,0,-2,-1
1558440092238208,-1,0,-2,-1,-6,-2,-1,-1
1558440092244250,0,-1,-2,-2,5,12,-2,-2
1558440092244250,-3,-2,-3,-3,1,-2,2,-1
1558440092245191,0,1,10,6,1,-2,0,0
1558440092245191,-2,-2,-16,-6,-8,-10,-5,-2
1558440092258155,-2,-3,-2,-3,-5,3,2,-2
1558440092258155,0,-1,7,2,0,1,-2,-2
1558440092274123,-2,-2,-11,-4,8,2,3,1
1558440092274123,0,1,2,0,-2,-1,0,2
1558440092281095,-1,-1,-4,-4,-1,-1,-2,-2
1558440092281095,-1,-1,1,-2,-6,-6,-2,-2
1558440092289085,-1,-2,4,0,-2,-9,-5,-2
1558440092289085,1,0,2,1,6,11,7,3
1558440092312095,0,-2,-2,-6,-4,-10,-5,-1
1558440092312095,-1,-1,-3,1,-1,4,-1,-2
1558440092313008,1,1,6,2,6,3,2,2
1558440092313008,-3,-1,-4,-3,-8,-9,-5,-5
1558440092317999,-2,-3,1,3,3,0,-3,-3
1558440092317999,-3,-1,-4,-1,2,4,4,2
1558440092326972,1,0,0,4,11,-1,8,4
1558440092326972,1,-4,-5,-4,-5,0,-1,-3
1558440092356902,-2,-1,-3,-2,-5,4,0,-2
1558440092356902,-1,0,2,3,0,-1,-5,-2
1558440092357890,-1,-2,-2,-4,-3,6,1,0
1558440092357890,-2,-3,-5,0,0,-10,-6,-3
1558440092363882,-2,-2,-1,-2,-6,2,1,-2
1558440092363882,3,-1,0,-1,8,-5,2,2
1558440092364873,-1,0,2,-1,-1,7,-1,-2
1558440092364873,-5,-5,0,-1,-2,-4,-2,-3
1558440092378841,0,1,0,-1,1,-6,0,-1
1558440092378841,-2,-2,-1,-2,-4,1,-3,0
1558440092386820,-1,-2,-3,-3,3,3,-2,-3
1558440092386820,-1,1,4,-1,-6,-2,0,-3
1558440092400777,-2,0,6,0,-6,-8,-6,-4
1558440092400777,1,-2,-6,3,2,5,4,1
1558440092408754,0,-2,-6,-4,1,-15,-4,1
1558440092408754,1,2,3,0,0,4,1,2
1558440092423713,-1,0,-3,2,6,11,7,3
1558440092423713,0,0,2,1,0,-10,0,-2
1558440092424709,-3,-4,-3,-3,-9,4,-2,-1
1558440092424709,0,0,2,1,7,3,-1,-3
1558440092438683,-2,-2,-5,-1,-10,-11,-7,-1
1558440092438683,-2,-1,-2,-4,-5,-2,-6,-2
1558440092446662,-2,-1,-3,-1,2,9,7,0
1558440092446662,-1,0,2,0,-6,-10,-1,2
1558440092460622,2,3,6,3,5,2,-3,0
1558440092460622,-3,-5,-11,-7,-6,-3,-2,-3
1558440092469591,-4,-3,-10,-4,-4,-6,-5,-3
1558440092469591,1,1,3,6,16,12,8,1
1558440092484549,-2,-1,-5,-7,-8,-9,-3,-2
1558440092484549,-1,0,8,4,6,6,-2,-1
1558440092484549,-2,-2,-4,-2,-6,1,0,-3
1558440092484549,-3,-4,-4,-5,-5,-6,-4,-2
1558440092498515,0,-1,-3,3,10,0,4,2
1558440092498515,1,-2,3,0,-2,0,3,2
1558440092506551,0,-2,2,1,-4,-4,-5,-3
1558440092506551,2,1,4,1,-1,2,-1,0
1558440092520511,-2,-2,-5,-1,-5,-8,-5,-1
1558440092520511,-1,-2,-1,-3,-7,0,-1,-3
1558440092529429,0,0,0,2,5,0,1,-1
1558440092529429,-1,0,-2,-2,-5,-3,-1,-2
1558440092544389,1,-1,1,1,3,1,0,1
1558440092544389,1,4,-6,-2,8,6,5,5
1558440092544389,-2,-1,-5,-3,-6,-3,-5,-2
1558440092544389,-2,-1,4,1,-4,-7,-7,-3
1558440092558352,-1,-2,0,-5,-12,-2,-5,-4
1558440092558352,-2,-3,-1,0,-4,0,0,-3
1558440092566332,2,-1,2,0,-5,-4,0,-1
1558440092566332,2,2,10,-1,-1,-3,-1,2
1558440092581290,0,-4,-19,-6,-1,-1,1,1
1558440092581290,-4,-2,4,-1,-1,1,-3,-4
1558440092589269,0,-2,-9,-4,0,8,2,0
1558440092589269,0,-1,0,2,-1,-8,1,1
1558440092604230,-2,-2,8,3,-3,-6,-5,-3
1558440092604230,-2,-4,-13,-8,-8,1,-2,-3
1558440092604230,-4,-2,-8,-4,0,2,-2,1
1558440092604230,-2,-1,-2,-1,4,-3,-2,0
1558440092618195,0,2,6,5,3,1,2,0
1558440092618195,2,2,5,2,-2,-8,-3,-1
1558440092626176,1,3,7,4,6,4,3,0
1558440092626176,-4,-5,-11,-4,-1,-1,-1,-3
1558440092641130,-2,-1,-1,-3,-1,5,-1,-1
1558440092641130,-2,-3,-3,-3,-10,-5,-5,-2
1558440092649109,0,-2,0,-2,-1,-8,-1,0
1558440092649109,4,4,10,8,7,7,6,2
1558440092664074,-3,-5,-10,-6,1,5,0,-1
1558440092664074,0,1,7,3,0,-4,-3,-3
1558440092665069,0,0,-2,-2,-1,-4,-1,0
1558440092665069,0,-1,-7,-3,-9,0,-2,-2
1558440092678037,0,-2,6,4,22,7,2,-1
1558440092678037,-1,-3,-16,-7,1,0,-1,3
1558440092687191,-1,-1,3,1,0,-3,-4,-2
1558440092687191,-4,0,0,2,1,-1,-5,-1
1558440092700970,-2,-4,-3,-8,-15,-6,-8,-8
1558440092700970,-1,-4,-2,-4,-14,-6,-4,-2
1558440092708948,5,5,8,8,22,9,14,8
1558440092708948,-4,-4,-12,-10,-6,0,-2,-1
1558440092723912,-2,0,2,1,-9,-11,-2,-2
1558440092723912,-1,1,3,2,8,6,6,1
1558440092724906,-4,-2,-1,-7,-15,2,-5,-4
1558440092724906,-1,-3,-1,0,-10,-8,-4,-3
1558440092746848,0,0,-2,-3,-2,-10,-7,-3
1558440092746848,2,1,1,0,9,4,6,2
1558440092747845,0,-1,3,3,-2,-7,-2,-2
1558440092747845,-2,-2,-1,1,1,5,2,-1
1558440092760809,-2,0,-5,-2,0,10,2,0
1558440092760809,-2,-1,-4,0,1,-2,1,1
1558440092768789,-2,-2,-2,-3,-2,2,-2,-3
1558440092768789,-4,-4,-1,-2,-8,-8,-8,-5
1558440092783750,-2,-1,1,4,1,1,4,3
1558440092783750,-1,0,-5,-1,5,2,-1,-2
1558440092784746,1,0,6,2,-5,-6,-2,1
1558440092784746,0,-3,-2,-5,0,-4,-2,-2
1558440092798708,0,-2,-4,-1,-6,0,-1,0
1558440092798708,-3,-2,2,1,-8,-8,-9,-7
1558440092806689,0,-1,-4,2,18,12,5,0
1558440092806689,1,1,3,1,3,-6,2,0
1558440092820656,1,1,3,2,-2,-2,1,2
1558440092820656,0,0,1,-3,-5,-6,-3,-2
1558440092829628,-3,-2,-6,-8,-14,-9,-5,-6
1558440092829628,2,3,5,4,8,-1,-1,1
1558440092843589,0,-1,4,-1,1,3,3,1
1558440092843589,1,1,-1,-1,2,1,5,2
1558440092844587,-2,-3,-7,-2,-6,-5,-6,-1
1558440092844587,-3,1,0,0,2,4,1,4
1558440092858549,-4,-1,0,-3,-3,-2,-3,-3
1558440092858549,-1,-4,-2,0,-4,5,-2,-4
1558440092866531,0,0,5,4,7,0,-2,-3
1558440092866531,2,0,0,0,4,-3,4,1
1558440092881491,1,0,-5,1,1,-4,1,1
1558440092881491,1,1,4,2,0,-3,-2,1
1558440092889472,-3,-5,-4,-7,-10,-11,-7,-4
1558440092889472,0,-2,-5,-2,-2,10,-3,-4
1558440092904437,-2,-1,2,2,2,-1,0,-3
1558440092904437,1,4,4,1,4,5,6,2
1558440092904437,-2,0,3,2,-1,2,-2,-1
1558440092904437,-1,1,-1,-2,0,-1,3,-1
1558440092918393,-3,-6,-13,-7,-4,0,-1,-1
1558440092918393,-3,-5,-2,-4,-3,-1,-3,-2
1558440092927374,-1,-4,-7,-3,-7,-7,-1,2
1558440092927374,-1,0,2,-1,1,3,3,-1
1558440092941328,0,1,2,1,3,-10,-4,-1
1558440092941328,-2,-2,-2,0,2,-1,-4,-1
1558440092949308,1,1,3,2,9,7,3,-1
1558440092949308,2,1,10,3,-3,2,0,0
1558440092963269,-5,-8,-26,-15,-11,-6,-3,-2
1558440092963269,0,2,0,1,-1,-4,-3,1
1558440092972244,-3,-2,-3,-4,-5,-2,0,-1
1558440092972244,-1,-2,0,1,0,-5,-3,-2
1558440092978230,2,2,10,1,-4,3,0,-1
1558440092978230,1,-1,4,0,-5,-1,2,2
1558440092987206,-2,0,-6,-1,1,3,2,0
1558440092987206,0,-1,-4,-1,4,-1,-2,0
1558440093001168,-1,1,2,2,0,1,0,-3
1558440093001168,-3,-1,1,0,7,3,5,0
1558440093010144,-2,-2,1,2,-7,0,-4,-2
1558440093010144,-1,-2,-5,-5,-4,1,-2,-1
1558440093023119,0,0,3,0,-3,-9,-3,-2
1558440093023119,-2,-2,-1,-1,-2,0,-3,-2
1558440093032084,-1,1,-1,-1,3,-7,1,1
1558440093032084,-1,1,7,3,-2,0,-2,-1
1558440093038068,-3,-4,-14,-7,-4,0,-1,-1
1558440093038068,-5,-4,-7,-5,-10,-4,-5,-2
1558440093047044,1,-1,0,-4,2,-1,-3,1
1558440093047044,0,0,0,-1,-3,-5,0,0
1558440093061006,-1,1,6,2,-3,-4,-2,-1
1558440093061006,0,-3,-3,0,6,4,-1,-3
1558440093069983,-2,0,-1,-2,-1,5,2,-1
1558440093069983,0,-1,-5,-3,-1,-5,-2,-1
1558440093082951,1,3,7,3,4,1,3,5
1558440093082951,-2,0,-2,-2,1,-2,-3,0
1558440093091923,-2,-2,1,-3,-11,-8,-10,-6
1558440093091923,-3,-4,-12,-2,-4,8,3,-3
1558440093097908,0,2,2,1,0,-5,2,1
1558440093097908,4,3,4,2,7,7,4,2
1558440093106883,1,1,2,-1,-7,-11,-5,-1
1558440093106883,0,0,-5,1,6,7,2,2
1558440093122108,-2,2,4,1,0,-1,-2,-1
1558440093122108,-4,-5,-1,-5,-10,-9,-1,-1
1558440093129823,-2,-5,-10,-4,3,2,2,-1
1558440093129823,-1,-2,4,2,-3,-1,-4,-4
1558440093143790,-4,-3,-8,-3,-8,4,-5,-5
1558440093143790,-2,-2,1,1,3,-7,-4,0
1558440093152764,-2,0,2,-3,-9,-5,-3,-1
1558440093152764,-1,0,3,1,6,9,5,3
1558440093167724,-1,-1,-3,-2,-2,-7,-2,0
1558440093167724,-1,0,0,-2,2,8,-1,-4
1558440093168722,-1,-3,-6,-1,-8,-5,-4,-2
1558440093168722,0,-1,0,-2,0,-13,-1,1
1558440093180697,-1,-1,2,-1,-3,-7,-5,-2
1558440093180697,-1,-3,-2,1,-2,-1,-3,-2
1558440093189663,0,1,0,4,12,12,10,3
1558440093189663,-2,-1,-6,-7,-10,-7,-6,-3
