timestamp,emg1,emg2,emg3,emg4,emg5,emg6,emg7,emg8
1558440126365675,-2,-2,-9,-12,-7,-15,-5,-1
1558440126365675,2,1,1,-1,3,1,2,1
1558440126366672,-3,-2,-1,6,-1,0,-1,1
1558440126366672,0,-3,-1,-4,-3,1,-2,-1
1558440126367670,1,-1,1,-4,5,5,3,1
1558440126367670,-2,0,-1,5,-6,-9,-6,-3
1558440126368668,0,0,-1,-6,-4,0,-3,-3
1558440126368668,-1,-2,-2,-7,-3,2,1,-4
1558440126376644,-1,-2,-3,6,-3,-6,-1,-1
1558440126376644,-1,-3,-1,-2,0,-1,-2,-1
1558440126382630,-1,3,2,-4,7,-1,-1,1
1558440126382630,-2,-1,-2,2,-2,4,1,2
1558440126391605,0,1,0,6,3,-3,2,2
1558440126391605,-1,-1,1,-2,8,4,3,0
1558440126404571,0,-2,-1,-5,-5,-3,-4,-5
1558440126404571,-1,0,-6,2,0,2,-4,-2
1558440126414544,-3,-1,1,-2,-4,-7,-6,-2
1558440126414544,0,0,0,-5,-7,2,4,2
1558440126419531,-2,-1,0,3,2,-9,-2,0
1558440126419531,1,0,-1,-2,-3,-5,-3,-3
1558440126435487,-2,-2,-1,-2,0,10,0,-3
1558440126435487,-3,-1,-5,-3,-6,-7,-5,-2
1558440126443466,-2,-2,-4,-2,-3,-2,0,-2
1558440126443466,1,0,3,4,8,8,12,3
1558440126450448,0,0,1,0,-3,-5,-7,-5
1558440126450448,0,-3,-2,-1,0,-5,-3,0
1558440126488346,-3,-4,-9,-17,-8,-2,1,-2
1558440126488346,-1,0,0,9,1,5,0,0
1558440126497323,-2,-1,-3,-2,0,-2,-2,2
1558440126497323,-2,-2,0,-9,-8,-9,-6,-4
1558440126498321,-1,0,1,6,6,10,4,1
1558440126498321,-1,0,-1,1,-7,-11,0,0
1558440126499318,2,2,2,-4,2,2,0,1
1558440126499318,-2,-2,-6,-3,0,1,-2,-2
1558440126510289,0,0,0,7,-7,-8,-5,-2
1558440126510289,-2,-5,-3,-8,-2,2,0,-2
1558440126517269,-1,-3,-1,-5,0,-2,-3,-4
1558440126517269,-1,-3,-1,5,-6,-9,-1,-2
1558440126524250,-1,0,1,-1,0,-1,1,0
1558440126524250,0,1,-1,-4,10,10,0,0
1558440126539210,-2,-1,-4,0,-11,-5,-6,-3
1558440126539210,1,4,5,7,15,8,7,6
1558440126547188,1,-1,-3,-2,-5,-15,-1,-1
1558440126547188,-2,-4,-3,-4,-5,-1,-5,-2
1558440126556165,-2,-3,-4,1,-2,1,-2,-4
1558440126556165,0,0,-2,-4,4,8,2,0
1558440126570128,-2,-1,3,0,1,1,3,-1
1558440126570128,0,0,-3,-1,-13,-10,-9,-2
1558440126577110,-3,-3,-2,0,2,-2,-1,-3
1558440126577110,2,3,9,3,4,-2,6,5
1558440126585087,-2,-1,-11,-3,0,-1,-4,2
1558440126585087,-2,1,2,-1,3,-2,2,0
1558440126601044,0,-1,-3,-1,-1,-4,-1,1
1558440126601044,-5,-5,-5,-5,-8,-8,-8,-6
1558440126607029,2,2,7,4,2,14,7,2
1558440126607029,-1,0,0,-3,-1,-10,-7,-2
1558440126616005,0,0,-2,-1,-2,7,3,1
1558440126616005,-1,0,1,4,-1,-5,-3,-3
1558440126629967,-1,-2,0,-5,-6,-1,-4,-3
1558440126629967,1,0,1,1,5,2,7,5
1558440126636948,0,-1,4,0,5,-4,3,2
1558440126636948,0,0,-3,-3,-6,2,-3,-4
1558440126644927,-1,-4,-4,-5,-3,-2,-5,-6
1558440126644927,-1,-1,-1,-1,-2,2,-1,-5
1558440126659888,0,-3,-3,-1,-7,-12,-7,-3
1558440126659888,2,1,1,1,12,10,10,5
1558440126666868,0,0,2,1,1,-3,-1,-1
1558440126666868,-1,-1,-3,-2,-15,-15,-8,-4
1558440126675843,-4,-1,-1,1,3,6,3,0
1558440126675843,-1,0,-1,-3,-4,-1,-1,-2
1558440126690805,-1,-2,-3,-1,-4,-9,-2,2
1558440126690805,-3,-3,-2,-2,5,13,2,-3
1558440126696788,-3,-1,-2,-2,-7,1,1,-3
1558440126696788,0,1,0,1,9,2,2,4
1558440126712746,-1,-1,2,1,4,3,2,0
1558440126712746,-1,-3,-4,-3,-2,-4,-4,-5
1558440126719727,-1,-2,1,-1,4,-2,-4,-3
1558440126719727,-2,-3,-1,-1,-13,-1,-2,-3
1558440126727705,-1,-2,-3,-4,3,0,-2,-1
1558440126727705,-1,-2,-1,2,9,10,4,2
1558440126735685,0,0,-3,-1,0,-4,-4,-1
1558440126735685,-2,-2,2,-3,-9,-1,0,-2
1558440126750644,-1,0,-1,-1,-3,-8,-6,-1
1558440126750644,-1,-1,-2,-2,-5,7,2,-2
1558440126757625,1,0,2,2,5,10,5,1
1558440126757625,2,2,-2,1,4,-12,-1,2
1558440126764607,-2,-1,-3,-3,-7,-4,-6,-4
1558440126764607,-1,0,2,-1,-1,3,-2,-3
1558440126779568,-1,-2,-4,-2,-4,1,-1,-2
1558440126779568,-2,-3,-5,-3,-2,4,1,-1
1558440126787546,1,1,0,4,11,2,7,4
1558440126787546,-3,-2,-3,-6,-7,-6,-5,-3
1558440126802505,-1,1,3,1,-6,5,-3,-2
1558440126802505,-1,-4,-3,0,4,3,3,2
1558440126810484,0,2,2,-2,3,-4,-4,0
1558440126810484,0,1,1,-1,-4,-5,1,1
1558440126817467,-2,-1,1,0,1,-2,1,-1
1558440126817467,-3,-1,1,-2,-5,-1,-7,-4
1558440126824448,-2,-2,-2,-2,-3,-1,-1,-1
1558440126824448,0,0,-1,-3,-11,-12,-4,-2
1558440126839407,-2,-3,-5,-4,-7,-6,-8,-4
1558440126839407,0,-1,-1,2,3,4,4,2
1558440126847387,-1,-2,2,-1,-5,-1,-2,-3
1558440126847387,1,-2,-4,-2,2,4,3,2
1558440126862347,1,0,1,0,-1,-5,-1,2
1558440126862347,0,-1,-1,-5,-10,-6,-11,-7
1558440126870326,-3,-2,-1,1,3,11,5,-1
1558440126870326,1,0,0,4,5,-1,2,3
1558440126877306,-1,2,0,-4,-3,-8,-1,0
1558440126877306,-4,-3,-6,0,6,3,2,-1
1558440126884287,-1,-2,-2,1,-8,-1,-3,-1
1558440126884287,-1,-3,0,-1,1,-3,-1,-1
1558440126899248,0,0,-2,-2,2,-4,-4,-1
1558440126899248,1,1,1,1,0,-2,-2,0
1558440126907226,-3,-3,-3,-7,-8,-2,-7,-6
1558440126907226,-3,-1,0,-2,3,1,-2,-1
1558440126922186,1,0,1,1,7,5,7,2
1558440126922186,-1,-2,-4,-3,-2,-4,-2,-4
1558440126930164,0,0,1,1,-2,-12,-7,-2
1558440126930164,-2,-1,-5,-1,0,6,3,0
1558440126937145,-2,0,-1,1,4,9,6,1
1558440126937145,0,-1,0,-2,2,-8,-6,-2
1558440126945125,-3,-3,-2,-1,-6,-2,-4,-4
1558440126945125,1,0,1,1,-3,-10,2,1
1558440126960085,-1,-1,-1,-3,-1,-4,1,-1
1558440126960085,-2,-1,-1,-2,0,13,7,0
1558440126967066,-1,0,-1,1,0,-3,-1,-1
1558440126967066,-3,-1,0,-1,3,2,-6,-3
1558440126982026,2,2,2,1,0,1,4,2
1558440126982026,0,-1,-4,-1,2,5,1,-1
1558440126990004,2,2,0,3,5,-1,2,5
1558440126990004,-2,0,0,-3,-4,6,0,-1
1558440126996985,0,-2,-1,-1,0,9,1,-3
1558440126996985,0,0,3,-2,-16,-19,-13,-4
1558440127004963,-1,-3,0,-1,4,11,5,-1
1558440127004963,-1,-3,-2,-1,3,1,2,1
1558440127019923,-1,-1,-1,0,5,-7,0,1
1558440127019923,-4,-1,0,-2,-5,-1,-2,1
1558440127026904,-2,-4,-3,-4,-3,5,-2,-4
1558440127026904,2,0,2,3,2,-8,-2,2
1558440127041867,-1,-1,-5,-2,-1,-5,-4,-1
1558440127041867,-1,-2,-6,-2,-5,-2,-3,-3
1558440127050842,0,2,0,-1,-5,-7,4,3
1558440127050842,3,2,0,2,10,11,2,0
1558440127056825,-4,-5,0,-3,-5,0,-3,-5
1558440127056825,-1,-3,-2,-5,0,-3,-3,-2
1558440127064804,-1,-1,-4,-2,-10,-2,-4,-2
1558440127064804,2,1,4,4,8,14,7,0
1558440127079764,-1,-1,-3,-3,-2,-16,-1,1
1558440127079764,-2,-3,-2,-1,-5,-5,-8,-5
1558440127086745,1,-1,-1,1,7,5,-2,-2
1558440127086745,1,2,0,-3,-4,1,5,1
1558440127101706,-2,-1,3,5,3,-3,-2,-2
1558440127101706,-3,-5,-4,-4,-10,-6,-5,-4
1558440127110681,0,2,1,-2,0,-2,0,1
1558440127110681,-2,-2,-4,1,4,4,0,-1
1558440127117663,-1,-2,-2,-2,-3,0,-8,-2
1558440127117663,0,1,3,3,8,0,6,4
1558440127132622,-1,-2,0,-3,-2,0,-3,-4
1558440127132622,-3,-3,0,-3,-14,-16,-1,-1
1558440127139603,-1,-1,3,1,10,16,7,2
1558440127139603,-2,-1,0,0,2,0,2,1
1558440127147583,-1,-2,-3,0,-3,0,0,-2
1558440127147583,-1,-1,-1,1,5,-16,-1,3
1558440127162543,-2,0,-2,-4,-7,6,2,-1
1558440127162543,0,0,1,-2,-1,-5,-5,-4
1558440127170521,-1,-4,-3,-1,-3,-5,-2,-1
1558440127170521,-1,-3,-3,-1,-6,3,-5,-3
1558440127177502,-2,1,-2,0,1,-3,1,2
1558440127177502,-1,-3,0,1,4,7,4,2
1558440127192463,-2,-1,-1,-1,3,7,4,1
1558440127192463,0,-1,-1,-4,1,-1,-7,-4
1558440127200441,0,-2,-3,0,-5,-2,3,0
1558440127200441,2,0,0,0,-2,-3,-2,-3
1558440127207423,-3,-3,-4,-6,-3,-6,-4,-1
1558440127207423,-3,1,1,-2,-9,0,-3,-3
1558440127222383,0,0,-2,0,5,7,0,-1
1558440127222383,-3,-1,-3,1,-3,-3,-1,-2
1558440127229365,2,0,4,0,-1,-7,-4,0
1558440127229365,-1,-3,-7,-2,3,-2,3,-1
1558440127238341,0,-2,-2,-2,-17,-13,-6,-4
1558440127238341,0,0,1,0,9,12,5,2
1558440127253301,-2,-1,-1,0,0,-2,-2,-1
1558440127253301,-2,-1,-1,-2,-9,-10,-6,-3
1558440127259285,1,-2,-2,-2,-1,4,-1,-1
1558440127259285,2,-2,-3,-3,3,6,0,-1
1558440127267263,-1,1,3,2,1,3,-1,-3
1558440127267263,-1,1,-2,-2,3,-2,3,1
1558440127290201,-5,-2,-5,-3,-5,-11,-11,-4
1558440127290201,-2,1,-2,-2,-6,-1,-4,0
1558440127291199,-2,-1,1,0,4,0,4,3
1558440127291199,0,-4,0,-1,-2,-2,-3,-3
1558440127298179,2,-2,0,-2,8,13,7,0
1558440127298179,-1,-2,-1,1,-3,-3,-1,0
1558440127313139,0,0,1,1,8,3,2,1
1558440127313139,-1,0,-1,-2,-3,1,-1,0
1558440127320121,-2,-3,-3,-4,-4,-10,-11,-5
1558440127320121,1,3,-1,1,-1,2,6,1
1558440127327103,0,1,-2,-1,3,2,4,2
1558440127327103,-1,-2,0,0,1,-7,2,-1
1558440127342063,-1,-1,0,1,-7,-1,-4,-1
1558440127342063,-2,-4,-1,-5,-5,-7,-8,-5
1558440127350041,0,-3,-1,-1,-8,-5,-4,-4
1558440127350041,-2,1,1,2,8,12,0,1
1558440127359018,-3,-3,-5,-5,-5,-1,0,-2
1558440127359018,1,2,3,2,6,0,6,3
1558440127372980,-3,-3,-7,-3,1,-10,-5,-1
1558440127372980,2,-2,1,-1,1,7,1,1
1558440127379962,-2,-1,0,1,-1,-5,-2,1
1558440127379962,-3,-2,-5,0,-5,-5,-7,-6
1558440127386942,2,1,-2,-2,4,3,5,1
1558440127386942,-2,-1,-2,-3,-2,-4,-1,-1
1558440127401904,-4,-2,-1,0,0,1,-3,-4
1558440127401904,-2,-1,3,1,2,4,4,2
1558440127409880,-3,-2,-2,0,-1,1,-4,-5
1558440127409880,0,-1,0,-3,-8,-1,2,-1
1558440127418856,1,0,-1,-1,-4,-8,-4,-2
1558440127418856,-3,-4,0,-4,-6,-8,-8,-5
1558440127432819,1,-1,-3,2,7,11,8,3
1558440127432819,-1,-2,-4,-3,-7,-15,-5,-2
1558440127439801,0,-2,1,0,2,7,3,1
1558440127439801,0,-1,-2,-3,-5,-8,-2,2
1558440127446782,0,2,5,3,5,5,3,0
1558440127446782,-1,-1,-3,-1,-7,-2,-5,-5
1558440127461743,-2,-1,-1,-4,-7,-4,-5,-5
1558440127461743,-2,-4,-6,-4,0,-4,-7,-5
1558440127469720,2,-1,2,2,-5,3,0,2
1558440127469720,-1,2,2,0,7,1,7,4
1558440127484680,-1,3,0,1,6,3,3,2
1558440127484680,-2,0,-2,0,0,6,0,-2
1558440127492659,-4,-5,-4,-4,-10,-3,-12,-6
1558440127492659,-1,-1,4,-1,-2,-1,3,-2
1558440127507618,1,0,1,-1,-3,-5,-1,1
1558440127507618,1,0,-4,0,1,-5,1,1
1558440127508616,0,0,0,-2,-4,0,1,0
1558440127508616,-2,0,-2,3,14,14,5,4
1558440127522579,-2,0,7,3,3,-1,3,1
1558440127522579,-4,-3,-4,-3,-6,2,-4,-3
1558440127529562,-2,1,-4,-3,-5,-8,-4,-2
1558440127529562,-1,-1,-3,-1,-5,-11,-6,-2
1558440127544521,1,-2,-2,-1,-1,-2,-3,-2
1558440127544521,3,-1,1,-2,4,4,2,-1
1558440127552499,-3,-1,-1,-3,-7,-9,-6,-4
1558440127552499,-2,1,-2,-1,-6,-8,-5,-1
1558440127567461,-1,-3,-3,0,-1,1,3,2
1558440127567461,-1,-1,-1,-2,-3,-1,2,2
1558440127568457,-1,-2,1,1,4,3,2,-1
1558440127568457,0,0,-1,3,12,13,3,-1
1558440127582424,-3,-2,-2,-2,-10,-11,-6,-3
1558440127582424,2,1,3,2,-1,-1,0,-1
1558440127589401,-1,-3,-3,1,2,7,4,0
1558440127589401,-1,-5,-1,-4,-3,-8,-7,-4
1558440127604361,-2,-3,-5,-5,-9,-9,-5,-1
1558440127604361,0,1,1,2,8,7,5,1
1558440127613338,4,3,7,3,1,-1,6,5
1558440127613338,-1,-1,-7,-3,-3,1,-2,-2
1558440127628297,-2,-1,-4,-2,0,-3,0,-4
1558440127628297,-1,0,0,-3,-8,-7,-3,-1
1558440127628297,-1,-1,-2,-2,3,1,-5,-4
1558440127628297,-2,-3,0,-2,-11,-15,-6,-3
1558440127642259,-2,-2,-2,-4,6,4,-3,-3
1558440127642259,-4,-4,-5,-2,-4,3,1,0
1558440127649240,1,1,0,1,17,7,7,4
1558440127649240,1,2,4,1,-5,-3,-1,1
1558440127664202,0,0,-2,-2,0,-2,-5,-3
1558440127664202,-3,-2,2,-4,-9,-3,-4,-3
1558440127673176,-1,-1,-5,-1,-10,-11,-4,-1
1558440127673176,0,-1,1,-2,12,9,7,2
1558440127688136,2,1,3,3,8,12,7,4
1558440127688136,0,-2,1,2,2,1,-2,-2
1558440127688136,-2,-3,-3,-4,-4,-6,-7,-1
1558440127688136,-3,-3,-3,-1,-5,-2,-7,-5
1558440127702102,2,0,-1,-2,-4,-8,2,0
1558440127702102,0,1,2,-1,0,-6,-1,-5
1558440127710079,-3,-2,-5,-4,-5,3,-3,-4
1558440127710079,0,0,-2,1,-2,11,8,3
1558440127725040,-2,0,0,0,9,5,1,1
1558440127725040,-1,-2,2,-2,-5,-9,2,2
1558440127733016,0,1,2,2,5,6,5,1
1558440127733016,0,1,2,0,-5,-1,-7,-4
1558440127748011,-4,-2,-4,-6,-11,5,0,-3
1558440127748011,0,1,0,1,11,4,2,3
1558440127748976,-3,-3,-6,-5,-6,-5,-6,-3
1558440127748976,0,1,1,-1,-10,-4,-1,1
1558440127761940,1,0,5,3,4,3,1,-1
1558440127761940,-4,-4,-6,-3,-7,-2,-8,-3
1558440127769918,-1,0,3,2,-4,-5,-4,0
1558440127769918,-1,-1,-2,0,4,-4,2,1
1558440127784882,0,-1,2,0,0,-2,-2,1
1558440127784882,-2,-3,-1,-2,-1,2,-6,-2
1558440127792855,-1,-4,-5,-4,-10,-6,-4,-1
1558440127792855,-1,-5,-4,-5,-3,-5,-6,-7
1558440127807818,1,-1,-1,0,-5,0,3,0
1558440127807818,2,4,2,3,10,2,6,2
1558440127808815,-3,-1,-1,-3,-6,-12,-5,-2
1558440127808815,-3,-3,0,0,1,7,2,-2
1558440127821778,-1,-1,0,2,1,-4,-2,-1
1558440127821778,0,0,-5,0,-3,3,1,-2
1558440127829760,-1,0,1,-4,0,2,-1,-3
1558440127829760,-2,-2,0,-2,-5,-11,-6,-1
1558440127844719,-4,-2,-6,-2,-4,-7,-1,0
1558440127844719,2,3,2,-1,10,2,-1,1
1558440127852697,-2,-6,-9,-1,-3,5,1,-1
1558440127852697,-2,-2,0,0,-1,1,-5,-3
1558440127867657,-3,-3,-4,-6,-6,-7,-8,-5
1558440127867657,-3,0,0,-3,-13,-11,-3,0
1558440127868655,1,2,4,2,14,9,4,1
1558440127868655,1,1,-1,-2,-3,-6,-1,0
1558440127882616,1,0,1,1,5,1,3,0
1558440127882616,-4,-4,-6,-5,-5,-7,-6,-3
1558440127889598,-2,0,2,0,-4,-3,-3,-4
1558440127889598,-2,-2,-4,-2,3,5,1,0
1558440127904557,3,1,5,6,10,-3,8,8
1558440127904557,-1,0,0,-1,-4,0,-2,-3
1558440127912536,-2,0,-1,-4,-7,-4,-5,-2
1558440127912536,-1,-2,-1,1,2,-1,-2,-1
1558440127927496,-4,-1,-2,-1,1,2,-1,-1
1558440127927496,-2,-2,-2,1,3,-3,-2,-1
1558440127928493,-1,-1,-1,0,-2,-1,0,0
1558440127928493,1,0,0,-3,0,6,7,-1
1558440127942455,0,-3,-1,-2,-5,2,-2,-2
1558440127942455,1,-2,0,4,2,6,1,0
1558440127949472,-2,0,-1,-2,-2,-2,-2,-1
1558440127949472,-1,-1,-3,-1,0,-9,-6,-1
1558440127964397,-1,1,-5,-5,-5,-6,-3,-2
1558440127964397,-2,-2,-2,-3,-1,4,0,-3
1558440127972377,-2,-1,-2,0,-3,-2,0,-1
1558440127972377,0,0,0,-1,-7,1,0,-1
1558440127988333,2,2,4,4,11,2,7,2
1558440127988333,-2,0,-3,-2,-9,-11,-6,-3
1558440127988333,-1,0,2,1,5,-2,2,0
1558440127988333,-4,-1,-4,-1,7,2,1,-1
1558440128002296,-4,-4,-2,-6,-16,-10,-12,-7
1558440128002296,-2,-3,0,-3,-3,0,-2,0
1558440128009279,2,-2,1,-1,-13,-2,0,1
1558440128009279,0,0,1,2,9,-7,3,5
1558440128024236,1,0,-1,0,-9,-7,-6,-4
1558440128024236,2,0,3,1,13,7,5,2
1558440128033214,-1,0,-2,-4,-6,-10,-6,-5
1558440128033214,-3,-6,-4,-1,-4,2,-6,-4
1558440128047214,-1,-1,-3,0,1,3,2,2
1558440128047214,-1,-2,2,0,-4,1,-2,-1
1558440128055192,0,-1,-2,-4,-2,-8,-2,-2
1558440128055192,0,2,2,2,-4,-1,4,0
1558440128062146,-4,-2,-3,-3,-3,-1,-4,-2
1558440128062146,0,1,-4,1,9,17,10,2
1558440128070120,-1,-1,0,1,5,7,1,0
1558440128070120,-2,-1,0,-3,-3,-5,-5,-1
1558440128085074,0,-1,0,-2,-4,-3,-3,-2
1558440128085074,0,-2,-2,0,0,-6,1,1
1558440128093052,-1,-1,-1,-1,-3,0,0,-1
1558440128093052,-2,-2,0,0,4,7,0,-1
1558440128107015,-1,0,0,-2,-2,-7,-3,2
1558440128107015,-1,-2,-3,-2,-2,0,-4,-2
1558440128115032,2,0,0,1,5,-8,2,3
1558440128115032,-2,-2,-3,-5,-5,1,-3,-4
1558440128122017,-1,-2,-3,0,-2,3,2,-2
1558440128122017,-1,-3,-1,-2,-8,-8,-3,-3
1558440128129983,0,0,1,0,10,15,2,1
1558440128129983,0,-1,0,2,-2,-3,1,4
1558440128145912,1,-2,-1,0,10,0,0,1
1558440128145912,-2,-1,-4,-4,-13,-11,-9,-6
1558440128152892,-4,-3,-3,-6,-13,-6,-7,-5
1558440128152892,0,2,2,3,8,12,6,0
1558440128166886,-3,0,0,0,12,8,4,-2
1558440128166886,-2,-1,2,-2,-3,-2,-1,-2
1558440128175832,-2,-4,-6,1,-1,-2,-2,-1
1558440128175832,1,0,3,-2,-1,-14,-5,0
1558440128189797,0,0,-5,-2,-2,-5,-2,1
1558440128189797,-1,-1,-4,0,3,3,-2,0
1558440128190791,-3,0,-2,-2,0,-4,-1,0
1558440128190791,-1,0,-1,-1,-5,6,-2,-2
1558440128204755,1,0,2,-1,-3,6,2,-1
1558440128204755,1,-2,4,-1,4,-1,3,2
1558440128212734,-3,-2,-5,-2,-3,-6,-1,0
1558440128212734,-3,-2,-1,-3,-3,-6,-2,-3
1558440128226730,-2,1,0,0,-2,2,-1,-2
1558440128226730,1,0,-2,0,6,5,5,2
1558440128235699,0,0,3,-1,0,0,0,0
1558440128235699,0,-3,-3,0,-5,-8,-4,-1
1558440128250632,0,-4,0,-3,-2,0,-2,-2
1558440128250632,-3,-1,-3,0,-7,-4,-5,-3
1558440128250632,2,1,2,-1,-3,-4,-3,1
1558440128250632,-3,-1,-4,-4,-8,-6,-6,-1
1558440128264595,0,0,2,0,-1,7,2,2
1558440128264595,1,0,0,1,2,-4,-1,-1
1558440128272574,-3,-2,-2,1,-5,1,-5,-3
1558440128272574,-1,-2,-5,-2,0,7,1,-4
1558440128287534,-2,-5,0,-4,-4,-14,-3,-1
1558440128287534,-3,0,0,-2,-8,-4,-2,0
1558440128295513,1,-3,-4,1,-1,-2,1,-3
1558440128295513,-1,1,2,-1,3,3,5,3
1558440128310473,-4,-4,-3,-3,0,1,-8,-6
1558440128310473,-1,1,-4,-4,-6,-9,-8,-6
1558440128311471,1,0,1,-1,-1,4,2,0
1558440128311471,1,0,2,4,14,4,4,4
1558440128324435,-1,-2,-1,0,-3,-3,0,1
1558440128324435,1,0,-1,-2,-5,-16,-3,3
1558440128332412,-3,-2,-3,-3,-9,-6,-7,-3
1558440128332412,-2,-2,-2,0,1,-3,-2,-1
1558440128347375,-2,0,-3,0,-3,2,-2,-4
1558440128347375,-1,-1,-2,0,11,23,13,0
1558440128355353,2,1,3,2,9,0,8,1
1558440128355353,-2,-4,-4,-6,-14,-15,-8,-4
1558440128370337,-1,0,0,-1,-1,1,-1,-2
1558440128370337,-4,-2,-1,0,6,13,4,0
1558440128371315,0,0,1,1,4,-3,2,4
1558440128371315,1,-2,3,-1,2,-1,-3,1
1558440128384287,0,-2,-5,-4,-11,-3,-6,-4
1558440128384287,0,-1,-1,-2,-8,-8,-1,-1
1558440128393250,-1,-1,-1,-3,9,-2,0,0
1558440128393250,0,1,0,1,-5,-3,-3,-5
1558440128407213,-2,-4,-1,-3,-4,-5,-1,-1
1558440128407213,-3,-1,-1,0,1,4,-1,-1
1558440128432421,1,1,-1,0,7,10,1,0
1558440128432421,-2,-3,-3,-2,-3,-1,2,-1
1558440128433145,0,2,1,-2,-4,-6,-2,-2
1558440128433145,-3,-4,-2,-3,-1,-1,-6,-1
1558440128434422,0,-2,0,0,-7,-1,2,-1
1558440128434422,-2,-2,-2,-1,6,7,-5,-1
1558440128445113,0,0,0,1,-2,-2,0,0
1558440128445113,4,2,3,1,11,5,5,2
1558440128453090,-5,-2,-2,-3,-11,-7,-8,-6
1558440128453090,0,-2,-1,1,0,4,4,0
1558440128467053,0,-1,2,1,6,-1,0,1
1558440128467053,-1,-1,0,-2,-6,-12,-4,-2
1558440128475031,-1,-1,0,-2,-1,-2,-5,-3
1558440128475031,-3,-2,-7,-5,-17,-8,-4,-4
1558440128489991,-1,1,-1,1,12,16,7,2
1558440128489991,2,0,4,4,-1,3,-2,-1
1558440128490988,-2,-2,-4,-1,3,0,0,1
1558440128490988,0,-1,1,-3,-3,-6,1,1
1558440128505950,-3,0,-5,-1,-6,-2,-4,-3
1558440128505950,0,-1,1,-3,-3,-2,-2,-2
1558440128512930,-1,-1,2,0,-3,-4,-4,-3
1558440128512930,-1,0,-1,2,2,4,4,-2
1558440128526919,1,-2,2,0,3,4,-1,1
1558440128526919,-1,-1,-4,-4,-10,-8,-2,-2
1558440128542911,3,-1,-4,-1,4,-2,2,3
1558440128542911,-2,0,2,1,4,6,4,3
1558440128550829,-2,-1,-1,-3,-2,-12,-5,-2
1558440128550829,-3,-1,-4,-2,-3,2,0,-2
1558440128550829,0,0,-2,-4,-7,-6,-2,-2
1558440128550829,-4,-1,1,1,1,1,-2,0
1558440128564818,-1,-2,-2,-3,-2,1,-3,-2
1558440128564818,-3,-1,0,-1,-2,1,-2,-1
1558440128572828,0,0,7,1,-5,-8,-3,-1
1558440128572828,1,-1,-9,-3,1,-5,1,0
1558440128588727,1,-1,-1,1,0,2,0,0
1558440128588727,-1,-1,1,0,10,7,1,0
1558440128595710,-2,-1,1,-1,-7,3,0,0
1558440128595710,-4,-4,-7,-5,-4,-5,-8,-5
1558440128610703,-2,1,0,1,1,3,4,1
1558440128610703,0,0,-4,1,5,3,3,0
1558440128610703,-3,-2,-2,-2,3,1,0,-1
1558440128610703,0,-2,2,-2,-5,-6,-4,-1
1558440128625671,1,-1,-1,-1,4,1,8,3
1558440128625671,0,-2,-2,-3,-11,-13,-6,-3
1558440128632610,-2,-3,-1,-1,1,14,2,-3
1558440128632610,1,-1,-2,0,-3,2,0,-1
1558440128647569,-3,0,-4,-6,-8,-15,-6,0
1558440128647569,2,0,-2,1,0,-3,0,3
1558440128662531,2,1,3,7,15,20,11,5
1558440128662531,1,0,4,-5,-10,-6,-4,-2
1558440128670510,-2,-4,-5,0,5,6,1,-2
1558440128670510,-2,0,0,1,0,-2,-2,0
1558440128670510,-4,-3,-7,-4,-9,-7,-6,-4
1558440128670510,-1,-1,-1,-2,3,0,-3,-2
1558440128684471,0,-1,2,1,-3,-5,2,1
1558440128684471,1,0,1,3,6,-1,1,1
1558440128692449,1,0,0,-1,3,-4,0,0
1558440128692449,-2,-1,1,-1,-4,-7,-5,-2
1558440128707409,-3,-3,-7,-5,-6,2,-5,-4
1558440128707409,0,-2,-3,-3,-1,-3,1,-1
1558440128715388,-1,0,0,-1,4,-4,-1,1
1558440128715388,1,-1,1,0,-2,7,0,-2
1558440128730351,-3,-2,-3,-4,-14,-14,-6,-3
1558440128730351,0,0,5,2,2,1,6,2
1558440128731346,-1,1,-1,-1,4,-1,0,1
1558440128731346,-4,-1,-6,-2,-5,-7,-2,-2
1558440128746308,-1,-1,2,-2,1,6,-6,-4
1558440128746308,-4,-5,-8,-6,-10,-1,-6,-5
1558440128753304,2,-1,1,2,-1,-2,2,-1
1558440128753304,-1,0,1,1,10,2,6,5
1558440128767249,1,-2,1,1,1,-4,-2,-2
1558440128767249,0,0,1,-1,-5,-7,-3,-1
1558440128783269,-3,-2,-7,-6,-10,-4,-9,-7
1558440128783269,1,2,1,1,2,5,1,1
1558440128790254,1,1,2,2,9,7,5,2
1558440128790254,0,-3,-5,1,3,-3,1,2
1558440128791196,-4,-2,-3,-3,-7,-7,-3,-1
1558440128791196,0,0,1,0,-3,-4,-2,1
1558440128805232,-1,1,0,0,1,7,-2,-3
1558440128805232,-4,-5,-3,-4,-5,2,-8,-8
1558440128813130,-1,-2,-3,-1,-1,-3,-3,2
1558440128813130,1,1,2,1,0,-9,5,3
1558440128827273,1,-1,0,1,1,-3,0,-1
1558440128827273,-1,-1,-3,-2,-1,8,0,-2
1558440128835137,-1,-3,-5,-3,-7,-3,-3,-4
1558440128835137,-2,-3,-3,-3,1,-4,-1,-1
1558440128867272,-2,1,-1,0,6,11,6,2
1558440128867272,-1,1,2,-1,-4,-13,-4,-2
1558440128867272,-2,-4,-3,-1,0,0,-2,-4
1558440128867272,-2,-2,0,0,-1,-1,-2,-2
1558440128869000,-3,-2,-3,-1,-6,-7,-5,-2
1558440128869000,1,0,2,-1,1,10,4,2
1558440128873307,2,1,3,-1,-3,-4,-2,-2
1558440128873307,-1,-2,-5,-3,-4,-7,-7,-4
1558440128887959,1,1,0,1,4,4,1,0
1558440128887959,-1,0,-1,3,5,6,0,1
1558440128896117,-3,-2,0,-2,-2,-4,-2,-2
1558440128896117,-2,-2,-1,-3,-4,-6,-3,-3
1558440128911072,0,-1,-4,-3,-1,-10,3,2
1558440128911072,-2,0,0,-1,-3,0,3,1
1558440128911072,-3,-4,0,0,3,5,1,0
1558440128911072,-3,-1,1,0,4,9,2,-2
1558440128925173,-1,-2,0,-3,-7,-9,0,-1
1558440128925173,0,1,0,-4,0,-11,-2,-1
1558440128933097,-2,-2,-3,-2,-3,0,0,-2
1558440128933097,1,-3,-2,-1,-3,4,1,-1
1558440128948022,3,2,5,-1,9,-2,3,4
1558440128948022,-1,-2,-3,-2,-6,-7,-2,-3
1558440128956064,-1,0,-1,0,-4,1,-3,-1
1558440128956064,0,0,-1,0,2,-1,-1,0
1558440128978685,-3,-3,-2,-4,-5,4,-2,-3
1558440128978685,-1,1,1,-2,-3,-8,-4,-3
1558440128986897,0,3,0,0,5,-9,2,4
1558440128986897,-1,-1,-3,0,0,8,2,-3
1558440128987665,-3,-2,-2,-1,1,4,1,-1
1558440128987665,-2,-3,0,-2,-1,-3,-7,-3
1558440128992916,0,-1,-2,-3,0,-4,0,-1
1558440128992916,-3,0,-3,-1,-1,1,-5,-2
1558440129007607,1,0,-1,0,-3,1,-1,0
1558440129007607,-1,0,-2,0,3,4,1,2
1558440129022567,3,-1,2,-1,-2,2,-2,-1
1558440129022567,-3,-4,-5,-4,-4,-3,-2,-2
1558440129029549,0,-1,2,0,-5,1,-3,-4
1558440129029549,-2,-3,-4,-4,-4,-1,4,1
1558440129038829,-1,1,0,0,4,-1,1,3
1558440129038829,0,-3,-1,-1,-3,-6,-6,0
1558440129044508,-2,-2,-1,0,2,10,5,1
1558440129044508,0,-2,-3,-4,-1,-3,-2,-3
1558440129060835,-3,-1,-1,1,1,3,3,0
1558440129060835,-1,1,3,0,0,-2,1,-1
1558440129067804,-2,0,-2,-4,-12,-5,-5,-3
1558440129067804,-1,-1,-1,5,12,2,-1,-1
1558440129075785,-1,0,0,0,-1,1,0,-1
1558440129075785,-1,1,-1,0,2,5,1,1
1558440129089735,0,-2,-3,-2,-5,-11,-12,-3
1558440129089735,-3,-2,-1,-2,-2,3,1,0
1558440129098365,-1,-4,-4,-2,-1,1,3,0
1558440129098365,-4,-3,0,-4,-2,-13,0,-2
1558440129105428,-2,-2,-4,1,-1,-4,-2,1
1558440129105428,0,2,2,2,5,7,3,2
1558440129112350,0,-2,0,1,2,4,-1,-1
1558440129112350,-1,-1,-2,1,1,-4,-4,-1
1558440129143278,-2,-1,-2,-1,-5,-4,-2,-3
1558440129143278,0,-1,-2,-2,-8,-3,-4,-2
1558440129151225,0,0,1,0,7,9,8,2
1558440129151225,-1,1,1,0,-2,-2,0,1
1558440129152263,-3,-3,-4,-6,-11,-12,-7,-7
1558440129152263,-4,-3,-1,-2,-7,-3,-1,-2
1558440129158477,2,1,4,4,5,8,5,4
1558440129158477,0,1,2,1,8,-5,0,3
1558440129173411,-1,-1,1,-1,3,0,4,2
1558440129173411,-1,-4,-3,-2,-6,-10,-9,-3
1558440129173411,-3,-4,-9,-7,-14,-7,-12,-7
1558440129173411,-1,-4,-1,-2,-4,4,-3,-3
1558440129187162,2,2,4,2,3,-2,4,2
1558440129187162,0,-2,-3,1,1,-9,1,1
1558440129195108,-3,1,2,1,0,-1,1,1
1558440129195108,-3,-2,-6,-5,-2,-3,-3,-4
1558440129210066,-3,-1,0,-1,-4,6,1,-1
1558440129210066,2,0,0,-1,6,5,2,0
1558440129218043,-1,-3,-3,-2,-2,-9,-5,-3
1558440129218043,-1,1,1,-1,-7,-3,-5,-2
1558440129234283,-1,-2,-3,0,9,2,2,1
1558440129234283,-4,-3,-2,-2,-11,1,-1,-3
1558440129234283,0,1,5,3,9,11,2,2
1558440129234283,-1,1,5,2,5,1,2,-2
1558440129264346,-1,1,-7,-4,-5,-11,-5,0
1558440129264346,0,2,-1,-2,-2,-8,-4,-1
1558440129264346,-2,-3,-3,-3,-4,0,-3,-2
1558440129264346,-2,0,0,0,-6,1,2,0
1558440129270390,-1,2,4,2,6,-7,-1,1
1558440129270390,2,1,0,1,-2,-1,2,2
1558440129277885,-1,-2,-5,-2,-3,-4,-3,-2
1558440129277885,-1,-3,-2,-3,1,7,-2,-1
1558440129300893,1,1,1,0,-2,7,9,2
1558440129300893,2,0,2,4,10,4,-2,1
1558440129301821,-4,-3,-4,-6,-14,-11,-8,-5
1558440129301821,2,-2,-2,1,6,4,2,2
1558440129306842,-1,-1,-5,-4,-6,-9,-9,-4
1558440129306842,-2,0,2,-3,-8,-2,2,-1
1558440129316091,-1,-4,-4,-3,1,0,0,0
1558440129316091,-1,0,-1,-3,-7,-7,-7,-4
1558440129339938,0,-2,1,0,0,2,6,4
1558440129339938,0,-1,-1,-2,1,2,-1,-1
1558440129339938,1,0,-2,0,0,-5,-5,-3
1558440129339938,1,-1,-2,0,-4,-1,2,1
1558440129353004,-2,-3,-1,-4,-3,3,-7,-4
1558440129353004,-3,-5,-6,-2,-5,-12,-6,-3
1558440129353684,-2,2,4,1,11,8,6,2
1558440129353684,-1,0,0,-1,-2,9,6,0
1558440129376926,1,-3,0,0,6,5,0,-2
1558440129376926,0,-1,-3,-2,-5,-5,-3,-3
1558440129376926,-1,0,-2,-2,-7,-7,-4,0
1558440129376926,-2,-2,-3,-1,-3,2,-1,-1
1558440129389875,-1,-1,-3,-1,-6,-4,-6,-2
1558440129389875,1,1,4,2,6,0,2,3
1558440129398643,0,-1,1,0,3,1,5,0
1558440129398643,-1,1,-5,-4,-2,-4,1,3
1558440129413638,-1,0,0,1,8,10,3,-3
1558440129413638,-3,-6,-3,-3,-7,4,-4,-4
1558440129413638,2,1,-1,-1,1,-6,-3,-1
1558440129413638,-2,-1,-2,-1,-6,-5,-8,-4
1558440129427489,-2,-3,-1,-1,-8,-3,2,-1
1558440129427489,2,4,6,6,13,11,6,5
1558440129435463,-3,0,-5,-4,0,-2,4,1
1558440129435463,-3,-2,-3,-2,-5,-9,-3,0
1558440129458400,-3,-3,-2,-1,-3,7,-4,-4
1558440129458400,-3,-1,-3,-5,-7,-8,-5,-3
1558440129459436,-1,-1,-1,0,-7,-5,-4,-3
1558440129459436,2,-1,2,0,-1,-1,-2,1
1558440129473799,-1,0,0,-1,4,1,2,0
1558440129473799,-3,-5,-5,-4,-7,-2,-7,-3
1558440129473799,-1,-1,-2,-2,-1,0,-4,-2
1558440129473799,1,0,0,-1,-3,-9,1,0
1558440129487324,2,2,6,2,3,-5,0,1
1558440129487324,-3,-2,-7,-4,-8,-1,-2,-4
1558440129495308,-2,-2,-5,-2,-2,2,-5,-1
1558440129495308,-1,0,3,2,9,-4,4,1
1558440129510702,-1,-1,-2,-2,-9,-2,0,0
1558440129510702,-1,0,0,1,8,1,1,0
1558440129518242,-3,-3,-2,-4,-11,-10,-11,-4
1558440129518242,-1,-2,-3,0,3,12,6,2
1558440129533677,1,2,2,0,3,-4,2,2
1558440129533677,-1,-2,0,-1,-7,-6,-3,-2
1558440129533677,-1,-3,1,-2,-5,1,-2,-6
1558440129533677,-2,-2,-3,-3,-10,-7,-9,-6
1558440129547501,3,3,3,6,14,5,6,6
1558440129547501,-3,-2,-3,-5,1,6,-2,-2
1558440129556158,-2,-2,0,0,-3,-5,2,1
1558440129556158,0,1,1,-1,8,7,4,2
1558440129578084,-6,-3,-7,-7,-8,-10,-8,-3
1558440129578084,-5,-3,-3,-2,-10,-5,-6,-3
1558440129579081,3,4,10,4,9,14,9,5
1558440129579081,0,0,-6,-1,4,0,6,3
1558440129593303,-3,-1,0,0,0,1,-3,-3
1558440129593303,1,-2,-1,-3,-6,-11,-5,-1
1558440129594205,-3,-3,0,-5,-7,-8,-5,-1
1558440129594205,-2,-2,3,2,1,2,-1,-1
1558440129608002,-1,-1,-3,-2,-6,-4,-1,0
1558440129608002,0,1,1,-1,2,7,4,1
1558440129614983,0,-2,-4,0,2,5,-1,-1
1558440129614983,1,-1,-1,-2,-1,-5,-4,-2
1558440129629974,-3,-2,-3,-4,-12,-9,-5,-3
1558440129629974,0,0,2,3,13,15,8,1
1558440129637921,-2,-1,-2,0,-1,-2,-3,-2
1558440129637921,0,-1,-1,0,3,11,4,-1
1558440129654306,-1,-1,-3,-4,-1,-7,-8,-4
1558440129654306,0,-1,-2,-3,-4,0,1,0
1558440129654306,3,0,1,2,12,14,6,3
1558440129654306,-2,-2,2,-4,-7,-12,-6,-2
1558440129667299,1,-2,-5,-1,-5,-10,-1,-3
1558440129667299,0,1,-1,2,3,-5,2,2
1558440129676938,-4,-1,-6,-3,-8,-6,-9,-5
1558440129676938,1,2,3,2,7,14,9,2
1558440129699173,-1,-1,-1,0,2,6,2,2
1558440129699173,-1,-2,1,-1,-1,-9,-3,0
1558440129699173,-2,-2,-2,-2,-9,-14,-7,-2
1558440129699173,1,-1,0,-5,-2,5,-1,-2
1558440129712727,-1,-2,-5,-4,2,-5,-3,-1
1558440129712727,-1,1,2,-1,-7,1,2,-2
1558440129713720,0,-2,-1,1,4,-5,0,1
1558440129713720,0,0,-1,1,-8,-7,-4,1
1558440129727683,-1,-1,2,-2,-1,8,0,-1
1558440129727683,-1,-2,-4,-2,-1,-2,-1,-1
1558440129735661,-1,0,2,0,2,-6,5,1
1558440129735661,-3,-1,-1,-3,-5,-7,-8,-5
1558440129749651,0,-1,-1,2,3,6,-1,-1
1558440129749651,1,0,1,1,1,0,-2,-2
1558440129757629,-1,1,1,1,-2,-3,1,0
1558440129757629,-2,-1,-1,0,2,7,0,-2
1558440129772561,0,0,-1,-2,-5,3,1,-1
1558440129772561,-3,-4,-3,-1,-4,1,-6,-4
1558440129773558,-1,-3,-2,-4,-7,-22,-5,-1
1558440129773558,1,-1,2,-1,2,0,6,5
1558440129787549,2,1,5,3,1,7,-2,-2
1558440129787549,-3,-2,-6,-3,0,3,-1,-2
1558440129795503,0,1,-3,-2,1,10,4,-2
1558440129795503,-3,-1,0,0,-6,-11,-6,-2
1558440129818440,-4,-1,0,0,3,-2,2,2
1558440129818440,-3,0,-3,0,-4,-11,-5,-4
1558440129819437,-2,-4,-4,-3,-10,2,-3,-4
1558440129819437,0,0,-1,3,11,7,4,0
1558440129832400,-1,-2,0,0,-9,-8,-7,-2
1558440129832400,1,-2,-1,-6,5,3,3,1
1558440129833398,0,1,1,-1,-3,0,-2,-1
1558440129833398,-1,-5,-5,-3,-7,-5,-3,-4
1558440129856796,-1,-3,-2,-3,1,-10,-3,-2
1558440129856796,-1,-1,0,4,12,4,1,0
1558440129856796,-3,-2,-2,-2,-15,-1,3,0
1558440129856796,1,1,-1,-1,7,5,0,2
1558440129870613,0,2,-2,-2,-1,0,0,0
1558440129870613,-2,3,-1,-1,-8,-8,-7,-3
1558440129877282,-1,-1,-5,0,3,6,-1,-2
1558440129877282,-1,0,-1,-2,-6,-1,0,-1
1558440129893714,0,-1,3,3,6,0,1,1
1558440129893714,0,1,1,0,7,9,5,1
1558440129893714,-1,-2,-2,0,6,-4,-2,-2
1558440129893714,-2,-2,1,-1,-9,-6,-5,-3
1558440129907644,-3,-3,-6,-2,1,4,0,-1
1558440129907644,1,-1,0,2,-5,-10,-1,2
1558440129915651,-2,1,-1,-2,2,2,-4,-1
1558440129915651,-3,-1,1,1,-3,-6,-6,-2
1558440129930490,1,0,5,3,14,3,7,5
1558440129930490,-2,-2,0,-2,-10,-10,-4,-3
1558440129938435,-1,-1,-3,-1,5,8,2,2
1558440129938435,-2,0,-2,1,-2,4,-3,-4
1558440129952377,-1,-1,-5,-7,-7,-1,0,0
1558440129952377,1,-2,-1,0,1,3,0,0
1558440129960342,2,1,4,2,6,3,3,0
1558440129960342,-3,0,-2,-1,-1,3,-1,1
1558440129967295,-1,-1,-2,1,-3,-3,-1,-1
1558440129967295,-2,-3,-1,-1,-2,-1,-3,-1
1558440129976128,0,-2,-3,-3,-9,-9,-6,-2
1558440129976128,0,0,-2,0,3,2,-2,-4
1558440129990215,-2,0,-4,-1,-7,-5,-1,-5
1558440129990215,-2,-1,0,-2,3,-1,-1,0
1558440129998183,-1,-3,-4,-2,-5,1,-1,0
1558440129998183,-1,-1,-1,-3,-5,-20,-1,-3
1558440130011926,2,1,3,3,2,3,4,1
1558440130011926,0,-2,-1,-2,-1,3,4,-1
1558440130019906,-3,-1,1,-1,-1,1,-2,-2
1558440130019906,0,-3,-4,-2,0,-4,-4,1
1558440130026883,-4,-4,-1,-6,-17,-10,-12,-7
1558440130026883,0,1,0,3,12,20,10,3
1558440130035857,0,1,2,3,10,12,4,2
1558440130035857,0,-1,-1,-3,-6,-2,0,-1
1558440130050161,-2,-3,-3,0,-1,1,-1,-2
1558440130050161,-1,0,0,-2,-3,-9,-2,0
1558440130064781,-3,-2,-1,1,0,-1,-1,-2
1558440130064781,-2,-3,-4,-4,-2,-1,-5,-4
1558440130073165,1,0,-3,-3,-8,-8,-6,0
1558440130073165,-6,-2,-2,-1,-6,-7,-7,-4
1558440130081169,1,3,2,3,6,8,7,2
1558440130081169,-1,-2,-2,0,9,5,1,0
1558440130088121,-2,0,1,-1,3,-3,-2,0
1558440130088121,-2,-4,-3,-4,-8,-2,-5,-3
1558440130103713,-1,-1,-1,-2,2,-6,-1,-1
1558440130103713,-3,-1,-1,-2,-3,-4,-4,-3
1558440130110013,-2,-2,-1,2,5,8,2,0
1558440130110013,2,1,1,1,3,-2,3,2
1558440130118636,-2,1,-1,0,-1,1,-3,-2
1558440130118636,-2,-2,-2,-1,-4,1,-1,-1
1558440130132935,-1,-3,-4,-4,-1,-13,-5,1
1558440130132935,0,-1,-2,-3,-3,-7,-1,-1
1558440130140929,0,-3,0,-1,-8,1,-2,-3
1558440130140929,0,-1,-2,-1,-7,-9,-6,-3
1558440130156847,1,1,1,1,4,7,3,3
1558440130156847,-1,-1,-2,2,3,3,4,2
1558440130157535,1,-1,1,2,4,-10,0,1
1558440130157535,-2,2,4,1,-2,3,-1,-1
1558440130169502,-2,-2,-8,-4,-4,8,-3,-6
1558440130169502,-2,-1,0,1,-1,-14,-1,0
1558440130186481,-2,-1,-1,-3,-4,-3,-2,0
1558440130186481,-3,-5,-5,-6,-8,-8,-6,-7
1558440130192469,1,2,3,3,2,-2,3,1
1558440130192469,1,0,2,1,5,9,1,1
1558440130201413,-1,-3,-1,0,0,4,2,-1
1558440130201413,-2,-1,-1,0,3,2,-1,0
1558440130216373,-4,-1,-2,-1,-6,-9,-5,-5
1558440130216373,-1,-3,-4,-6,-7,-5,-7,-4
1558440130217371,-2,-1,-1,-2,-5,-6,-4,-1
1558440130217371,1,-2,1,3,5,5,3,0
1558440130229339,0,-2,1,-2,-9,-1,1,0
1558440130229339,0,1,0,0,11,9,2,1
1558440130238314,1,-3,-2,0,-3,0,-4,-2
1558440130238314,1,1,-1,-1,1,-5,2,2
1558440130252277,-2,-2,-4,-2,2,5,-1,-1
1558440130252277,-3,-4,-3,-3,-10,-8,-10,-5
1558440130261255,0,0,2,1,5,6,6,2
1558440130261255,-3,-4,-5,-2,0,-7,3,0
1558440130276213,1,0,3,2,3,-3,1,-1
1558440130276213,-1,-1,-1,0,-6,4,-1,-2
1558440130277210,-4,2,1,-2,-2,0,-5,-2
1558440130277210,1,1,-3,-4,-2,-6,-1,2
1558440130289177,-2,-1,-2,-2,1,1,1,-2
1558440130289177,0,-1,0,-3,-7,-10,0,1
1558440130298155,-2,-3,-4,-1,-5,1,-2,-5
1558440130298155,0,0,4,3,0,-1,-1,1
1558440130312119,-1,-2,-6,-3,5,-3,-2,-3
1558440130312119,-1,1,-1,0,5,12,5,0
1558440130321093,0,1,2,0,10,2,1,1
1558440130321093,1,-1,-2,1,2,10,2,-1
1558440130336054,-2,-4,-1,-2,-7,-5,-4,-2
1558440130336054,-2,-1,-1,-1,-6,-3,-7,-4
1558440130337053,0,1,0,-1,-8,-5,-3,-2
1558440130337053,-1,0,0,-2,2,6,4,4
1558440130350016,0,0,1,5,10,8,5,3
1558440130350016,0,-2,-2,-3,-6,-6,-3,-4
1558440130359011,-1,-1,-4,-1,-4,-10,-3,-3
1558440130359011,-1,0,-1,-3,1,2,-4,-3
1558440130371956,-2,-2,1,-5,-13,-12,-6,-3
1558440130371956,1,2,-2,3,2,4,0,2
1558440130380932,2,-2,-3,-3,0,-2,0,1
1558440130380932,-1,-2,-1,-1,-6,-1,3,1
1558440130394895,1,0,3,1,9,6,0,0
1558440130394895,-3,-2,-1,0,-4,-3,-1,-2
1558440130403873,-3,-3,-6,-3,-2,-1,-1,-2
1558440130403873,-2,0,0,1,3,-2,0,1
1558440130409856,-3,-1,0,0,3,12,7,2
1558440130409856,-3,-4,0,-5,-11,-8,-2,-3
1558440130418831,4,-2,-1,-1,5,5,-2,-1
1558440130418831,-2,-1,0,3,-1,-8,-5,-2
1558440130432257,-1,2,-1,-4,-1,0,-1,0
1558440130432257,-3,1,-1,1,6,3,4,-2
1558440130441217,-3,-1,-1,-3,-5,-6,1,-2
1558440130441217,-1,2,-1,-1,2,4,-1,-3
1558440130455733,-2,-1,1,-1,-8,-7,-6,-2
1558440130455733,-1,-4,-8,-2,-12,-6,-3,0
1558440130461719,1,-2,0,0,5,0,-1,-1
1558440130461719,3,1,0,-1,-1,-6,1,1
1558440130470541,-1,-1,1,1,0,-2,1,-1
1558440130470541,-3,-1,2,-1,4,2,0,1
1558440130478212,-4,-2,-2,-1,1,5,-4,-1
1558440130478212,-1,-2,-3,-3,-6,1,-2,-2
1558440130492685,-1,-1,-4,2,0,5,2,-1
1558440130492685,1,0,0,-1,-3,-7,-6,-2
1558440130501150,0,1,0,2,6,-5,2,1
1558440130501150,-1,-2,1,-1,-5,-9,-5,-2
1558440130515533,0,-1,2,0,4,4,4,2
1558440130515533,-1,-3,-6,-8,-8,-2,0,-3
1558440130524091,-3,1,-3,-2,0,1,0,0
1558440130524091,-2,-3,-1,-3,-3,-1,-5,0
1558440130529620,-4,-2,-3,-4,-5,-3,-9,-5
1558440130529620,0,0,3,3,2,-5,2,2
1558440130538690,0,2,3,-1,-6,-4,-1,-1
1558440130538690,-1,-3,-2,-3,-4,6,-2,-2
1558440130552776,-3,-1,-2,-4,-3,-8,-7,-3
1558440130552776,0,0,0,2,9,8,6,4
1558440130561537,-2,-1,-1,-2,-2,1,3,0
1558440130561537,-2,-3,-4,-2,-8,1,0,-3
1558440130574744,0,0,-5,-2,0,-2,-5,-3
1558440130574744,-3,-3,1,-1,-5,-2,-2,-3
1558440130583598,2,0,2,1,16,11,10,7
1558440130583598,1,2,0,0,2,-5,0,1
1558440130590494,-3,-3,-3,-1,-1,-3,-5,-3
1558440130590494,-1,1,3,1,-10,-10,-4,-3
1558440130598548,-1,-1,-4,-2,-2,-3,-3,-1
1558440130598548,-2,0,1,2,6,9,6,2
1558440130612400,0,-3,-3,-2,-5,-7,-1,-3
1558440130612400,-1,-5,-7,-4,-5,2,-3,-3
1558440130621380,0,-1,3,2,-3,-2,-1,0
1558440130621380,-2,-2,-3,-2,2,-3,-3,-3
1558440130635345,1,1,0,-1,-2,-1,2,1
1558440130635345,0,-1,0,0,5,4,-1,-1
1558440130643554,-2,-3,-3,-2,-10,-2,-4,-3
1558440130643554,-2,-3,-2,-2,-1,-3,-1,-1
1558440130649303,-1,1,2,-1,0,-3,0,0
1558440130649303,-1,1,-4,-1,2,3,2,1
1558440130658522,-2,-1,-1,0,0,3,1,-3
1558440130658522,2,-1,0,3,6,-2,2,2
1558440130672239,1,-2,-1,-1,-2,3,3,0
1558440130672239,-1,1,0,0,4,-1,-5,-2
1558440130681214,-3,-3,-1,-6,-14,-10,-7,-4
1558440130681214,0,-1,2,0,8,7,3,3
1558440130694214,-2,-3,-1,-1,-2,0,-2,-1
1558440130694214,-1,-1,-3,-4,0,-4,-4,-4
1558440130703155,-2,1,0,-1,-9,-8,-3,-3
1558440130703155,0,0,-4,2,8,9,4,2
1558440130710620,0,0,0,1,3,0,4,2
1558440130710620,-1,-3,2,-1,0,3,-3,0
1558440130718620,-1,-1,-1,-2,-3,-3,-5,-2
1558440130718620,-2,-2,1,-4,-13,-11,-9,-5
1558440130732543,2,1,-2,-1,2,-3,2,3
1558440130732543,1,2,0,-2,2,-11,3,2
1558440130741231,-2,-1,0,1,-2,3,3,0
1558440130741231,1,1,-1,-2,1,7,1,0
1558440130755483,-2,-3,-2,-3,-5,7,-4,-6
1558440130755483,-2,-1,1,-3,-13,-4,-5,-3
1558440130763997,3,1,0,1,12,-3,6,5
1558440130763997,-3,-3,-4,-2,-2,-1,-1,-3
1558440130770454,-1,0,1,0,2,2,3,3
1558440130770454,-1,0,-4,-2,1,-2,-2,-1
1558440130778953,-3,-2,-1,-5,-7,-4,-5,-4
1558440130778953,0,0,1,0,2,3,-1,0
1558440130791920,-2,-1,2,-1,-3,-8,-1,0
1558440130791920,2,-1,2,0,5,11,3,0
1558440130800894,-4,-6,-7,-5,-12,-10,-8,-6
1558440130800894,-1,-1,-1,-1,-3,-7,-3,-3
1558440130814894,0,-1,-2,-1,-1,5,0,1
1558440130814894,-1,-1,0,-1,4,-5,1,1
1558440130823869,1,2,1,-1,-1,-5,-5,0
1558440130823869,-1,-3,-2,-1,-1,-4,-2,-1
1558440130829853,-2,-3,-3,-2,0,0,-1,-2
1558440130829853,-3,-1,-1,0,-3,5,0,-4
1558440130838820,-3,-2,-2,0,-3,-3,-3,-2
1558440130838820,-1,0,1,2,-1,-7,-4,-1
1558440130851955,2,1,-6,0,0,-14,-1,1
1558440130851955,-3,-5,-5,-5,-5,-4,-1,0
1558440130860734,-1,-1,-4,-1,2,5,3,-1
1558440130860734,-2,1,0,-2,-8,0,-2,-2
1558440130874696,0,-1,4,1,14,10,4,1
1558440130874696,-2,1,1,2,-4,-6,-3,-1
1558440130883673,-2,-5,-3,0,0,3,2,-1
1558440130883673,-2,0,-2,-2,-5,3,2,-1
1558440130889655,0,-1,1,-1,-5,-3,-5,-2
1558440130889655,-1,-3,-6,-3,0,-7,-4,-1
1558440130898633,-2,1,4,2,7,1,0,2
1558440130898633,-1,0,-2,0,-6,-4,1,-1
1558440130911599,-2,-2,-5,-3,2,8,2,-2
1558440130911599,-1,-1,2,-1,-2,1,1,1
1558440130921046,0,0,-1,-1,-3,-5,-5,0
1558440130921046,-4,-4,-4,-6,-4,-14,-9,-4
1558440130934537,0,0,2,1,-4,-5,6,4
1558440130934537,0,0,2,4,17,8,2,0
1558440130943759,-3,-2,-6,-4,-10,-4,-5,-2
1558440130943759,-1,0,3,2,-1,1,1,-1
1558440130949499,-4,-4,-2,-4,-3,-2,-9,-5
1558440130949499,1,-2,-2,0,-1,-1,1,-1
1558440130958683,1,-3,-2,0,6,1,1,1
1558440130958683,2,-2,1,-1,5,3,1,1
1558440130972901,-4,-2,3,-1,-12,-8,-9,-4
1558440130972901,-3,-3,-1,0,-2,-3,-1,-2
1558440130981441,1,0,0,-1,4,5,9,4
1558440130981441,1,-2,1,0,-2,-1,0,-1
1558440130994381,-3,-3,-8,-2,-2,3,-3,-3
1558440130994381,-1,0,1,-1,-6,3,-2,-2
1558440131003553,-2,2,0,-3,-7,-10,-6,0
1558440131003553,1,3,0,3,14,7,10,6
1558440131010374,0,0,3,-3,2,0,2,0
1558440131010374,-2,-2,-3,-3,-4,1,-1,-3
1558440131018405,0,1,1,-1,-2,-2,-3,-2
1558440131018405,-5,-6,-10,-7,-15,-12,-13,-9
1558440131032487,1,0,2,4,9,8,9,3
1558440131032487,-2,-1,1,0,2,-3,2,1
1558440131041256,1,0,2,2,0,-2,-5,-3
1558440131041256,-1,0,1,-2,1,-3,0,1
1558440131054426,-2,-2,-1,-2,0,11,2,-2
1558440131054426,-1,-1,-1,0,0,-7,-1,-1
1558440131063389,0,1,-5,-1,4,11,3,2
1558440131063389,-3,-1,-1,-3,-3,-7,-8,-4
1558440131078157,0,1,2,2,4,0,6,4
1558440131078157,-1,-2,0,-2,-3,0,0,1
1558440131080150,-2,-2,2,-3,-8,-5,-7,-6
1558440131080150,-2,-2,-4,-2,3,9,1,0
1558440131092118,-1,1,2,1,-8,-9,-1,0
1558440131092118,-2,-2,-6,-4,-8,-2,-5,-3
1558440131101091,-2,-4,-3,-1,-5,-3,-3,-3
1558440131101091,-4,-3,-1,-1,-3,-8,-1,-1
1558440131115420,2,2,3,0,3,-2,3,3
1558440131115420,1,-1,0,-1,5,9,6,4
1558440131124030,0,-1,-3,-3,-4,-4,-7,-4
1558440131124030,-1,-1,0,-3,-13,-6,-2,-3
1558440131139221,0,-1,-1,0,1,-7,-7,-3
1558440131139221,-2,-1,-2,-1,1,6,-1,-5
1558440131139990,-3,-2,-2,-2,-2,6,2,0
1558440131139990,2,0,2,0,5,-6,0,4
1558440131152349,-2,-2,-2,-4,-6,-6,-5,-4
1558440131152349,-2,-2,-1,-2,-3,-8,-6,-4
1558440131160930,1,-1,1,1,4,0,3,2
1558440131160930,-3,-2,-3,-4,-3,6,0,-1
1558440131174892,0,-1,-3,0,3,0,1,1
1558440131174892,0,0,3,-2,-3,-6,0,-2
1558440131183868,-2,0,-5,-2,-2,-4,-2,-2
1558440131183868,-1,-1,-1,1,4,11,0,-2
1558440131198828,-1,-2,1,0,-1,3,0,0
1558440131198828,1,0,2,-1,-2,-10,0,3
1558440131199826,0,-2,2,0,-5,-7,-1,-1
1558440131199826,0,-1,-1,1,2,1,-3,-3
1558440131211794,-6,-5,-4,-4,-9,0,-8,-7
1558440131211794,1,2,-1,3,3,0,4,2
1558440131220769,1,2,0,2,15,7,7,3
1558440131220769,2,2,4,2,-1,-2,2,0
1558440131234734,1,-2,-5,-4,0,-3,-6,-2
1558440131234734,-2,-2,-4,-6,-5,-6,-6,-4
1558440131243708,0,-2,-2,-1,-1,5,0,-4
1558440131243708,1,0,2,0,7,3,6,3
1558440131258668,-1,0,0,-2,-11,-12,-5,-3
1558440131258668,1,1,-3,1,6,3,-4,-3
1558440131259666,-1,1,3,-2,1,6,3,1
1558440131259666,-5,-6,0,0,-4,1,-2,-3
1558440131271633,-2,-1,-4,-2,-4,-10,-1,0
1558440131271633,0,1,0,0,0,-3,4,3
1558440131280609,-3,-3,-1,-4,-8,-3,-6,-3
1558440131280609,0,-1,0,-2,-3,5,-2,-2
1558440131294573,-1,-3,0,0,-2,-4,1,0
1558440131294573,1,-1,0,-1,0,1,4,0
1558440131303548,-1,3,2,1,6,4,2,2
1558440131303548,-3,2,1,-1,-4,-4,-1,-2
1558440131318508,-1,-1,-5,-4,-2,2,-1,-2
1558440131318508,-4,-3,-2,-3,-12,-3,-9,-7
1558440131319506,0,-2,0,1,5,0,1,1
1558440131319506,-1,-1,-6,-3,8,2,2,-2
1558440131332470,1,4,3,3,4,2,1,1
1558440131332470,-1,-1,6,-1,2,1,1,0
1558440131341448,-3,-5,-9,-5,-9,-8,-5,-4
1558440131341448,0,-2,-1,-2,-8,-1,-5,-5
1558440131354423,0,-1,-4,-3,2,-10,-3,0
1558440131354423,1,-2,1,3,7,0,3,5
1558440131363388,-2,-2,-1,-2,-5,2,-3,-3
1558440131363388,0,0,1,1,8,7,6,1
1558440131378352,-2,-1,1,0,-1,-4,-3,-2
1558440131378352,-3,-1,3,-4,-6,3,2,0
1558440131380343,0,-1,-5,-5,-12,-17,-8,-2
1558440131380343,1,-1,-3,0,2,7,1,-2
1558440131392311,1,2,0,4,8,11,6,2
1558440131392311,-1,-1,-3,-1,-5,-3,-6,-2
1558440131401288,0,-1,3,1,1,0,4,1
1558440131401288,-3,-3,-5,-4,-9,1,-5,-4
1558440131414252,-1,-3,1,-4,-5,-11,-4,-2
1558440131414252,-1,-1,-5,-4,-1,-11,-5,-3
1558440131423229,-2,-2,-1,-1,-5,-5,0,-1
1558440131423229,1,2,2,5,8,12,4,3
1558440131438189,-1,0,2,-3,-3,8,-2,-4
1558440131438189,-1,-2,-8,-1,5,8,-2,-2
1558440131440183,1,2,2,0,2,-3,4,0
1558440131440183,-4,-3,0,-3,-2,-8,-2,-1
1558440131452151,-2,-3,-3,-1,-4,2,0,-2
1558440131452151,1,-1,0,0,-2,-1,-1,1
1558440131461127,-2,-2,-2,-2,7,2,-3,0
1558440131461127,-1,1,0,-2,-11,-14,-5,1
1558440131483069,0,2,2,3,3,16,8,0
1558440131483069,-1,-3,-7,0,0,1,1,-1
1558440131485064,1,1,1,0,0,-6,1,1
1558440131485064,-2,0,-1,-4,1,-14,-5,0
1558440131498029,-3,0,3,-1,2,-1,-6,-5
1558440131498029,-1,-2,-2,-1,-8,-2,-1,-1
1558440131500023,1,-1,1,4,13,17,4,-2
1558440131500023,0,-2,-6,-4,-10,-4,-3,0
1558440131511999,-3,-1,-4,-5,-8,-8,-3,-1
1558440131511999,1,2,1,0,9,2,9,5
1558440131520967,-2,-1,3,1,-10,-8,-6,-3
1558440131520967,0,-3,-3,-4,-8,-8,-7,-3
1558440131534930,2,-1,1,2,13,9,5,4
1558440131534930,-3,-5,-7,-4,-4,-2,-2,-2
1558440131543906,0,-1,-1,-1,0,2,0,0
1558440131543906,-1,2,3,-1,-2,-11,-1,-3
1558440131558865,-1,-5,-8,-6,-6,0,1,-1
1558440131558865,-3,1,5,1,0,4,-2,-2
1558440131559863,-2,-1,-2,-1,-3,-1,-1,1
1558440131559863,1,-1,0,1,7,3,2,0
1558440131571831,-1,-1,-2,0,-8,-14,-4,-3
1558440131571831,1,0,2,2,11,11,2,2
1558440131580808,-2,-1,-2,-4,-8,-8,-6,-3
1558440131580808,-4,-3,-4,-3,-2,2,-7,-4
1558440131594773,0,-3,-3,2,1,7,1,-2
1558440131594773,1,3,4,-4,-7,-19,-2,1
1558440131603747,-1,-2,-2,0,8,0,-1,2
1558440131603747,2,-1,0,4,4,0,2,3
1558440131618705,-3,-1,-3,-4,-3,-3,-6,-3
1558440131618705,-5,-1,-2,-2,-6,0,-2,-5
1558440131619703,1,-1,-3,-1,7,9,3,1
1558440131619703,1,-1,0,0,2,-3,5,2
1558440131640646,-2,-3,-2,-1,-1,4,-2,-1
1558440131640646,1,-1,-2,0,0,-1,-2,-1
1558440131642642,-1,-1,-4,-3,-11,-15,-11,-6
1558440131642642,-1,1,5,1,-2,4,1,1
1558440131654615,2,4,2,1,6,4,6,4
1558440131654615,-1,-3,-4,-1,-8,-11,-8,-4
1558440131663585,-2,-3,-5,-3,-2,1,-5,-3
1558440131663585,-3,-4,0,-2,-11,0,-7,-7
1558440131678546,0,-1,0,0,2,-12,1,3
1558440131678546,-1,-4,-3,-2,2,1,2,1
1558440131679543,0,0,0,1,1,-2,-3,-1
1558440131679543,-3,-3,-5,-5,-5,2,0,-3
1558440131692508,-2,-3,0,1,-4,4,-5,-3
1558440131692508,1,-1,1,-2,6,4,5,2
1558440131701484,-2,-1,-1,-2,-5,-5,2,0
1558440131701484,0,1,1,3,6,0,4,4
1558440131714450,0,2,1,1,0,-4,-4,-2
1558440131714450,1,1,2,-2,1,10,3,0
1558440131723426,-3,-5,-9,-6,-9,-2,-2,-4
1558440131723426,1,0,-2,0,6,4,6,3
1558440131738386,-2,-3,-3,-3,-5,-16,-2,0
1558440131738386,-1,0,2,0,0,-3,-5,-3
1558440131739383,-1,-1,2,1,-2,3,5,1
1558440131739383,1,-2,1,0,0,1,-3,-1
1558440131761325,-4,-4,-6,-5,-2,-3,-3,-3
1558440131761325,-1,3,2,3,-1,3,3,1
1558440131763320,-2,0,0,-1,-1,1,0,-2
1558440131763320,0,-1,-3,-3,-4,-12,-4,0
1558440131774290,0,0,2,-1,1,5,-4,-2
1558440131774290,-1,-3,-1,0,-1,-1,-2,-1
1558440131783266,-1,0,-2,1,6,9,3,1
1558440131783266,-4,-1,1,-1,-3,-8,-4,-3
1558440131798240,-1,-4,-3,-4,-6,-6,-5,-3
1558440131798240,-2,-4,-6,-3,0,2,2,-1
1558440131804211,1,-1,5,5,10,3,4,1
1558440131804211,1,0,-1,1,1,3,3,3
1558440131812188,-2,-4,-5,-4,-1,-2,0,-2
1558440131812188,-3,-3,-6,-6,-12,-15,-12,-7
1558440131821164,1,1,0,0,-6,-6,-5,-4
1558440131821164,1,2,7,3,7,5,2,2
1558440131834129,0,-3,-8,-4,-1,4,4,0
1558440131834129,-1,1,0,1,8,7,2,4
1558440131843106,-4,-2,0,-2,-10,-11,-6,-3
1558440131843106,-1,-4,-5,-3,-2,1,-4,-2
1558440131858089,-1,3,11,3,1,-4,0,-2
1558440131858089,-3,-4,-16,-4,-5,-1,-3,-3
1558440131873027,0,2,0,-2,7,-2,2,2
1558440131873027,-6,-3,-7,-5,-15,-6,-8,-5
1558440131873027,0,-2,4,3,7,3,1,0
1558440131873027,0,1,4,1,-1,-3,-3,-3
1558440131881005,-2,-2,-2,-2,2,6,2,0
1558440131881005,1,1,-5,-2,-1,-10,-3,-5
1558440131894970,1,2,0,1,2,3,4,3
1558440131894970,1,-1,6,0,0,0,0,2
1558440131903943,0,-4,-6,-2,-5,-3,-3,-3
1558440131903943,0,0,0,2,7,10,6,3
1558440131917906,-4,-2,-3,-4,-7,-5,-2,0
1558440131917906,0,3,5,1,-10,-13,-3,-1
1558440131924887,-1,1,2,0,3,3,-1,-3
1558440131924887,0,-1,-1,-3,3,4,-3,0
1558440131931868,2,-2,-1,0,2,-9,0,-1
1558440131931868,0,-1,1,0,3,7,3,2
1558440131940848,-1,-1,-1,-1,1,2,0,0
1558440131940848,-1,-1,-1,-1,-5,-4,0,-1
1558440131954809,-1,0,2,-2,0,9,-3,-2
1558440131954809,-6,-5,-10,-4,-15,-6,-7,-4
1558440131963783,2,0,0,0,6,-1,-1,-1
1558440131963783,-2,-1,-2,0,11,1,1,1
1558440131977748,-3,0,5,2,-9,4,-2,0
1558440131977748,1,-3,-10,-3,5,6,4,-3
1558440131991709,1,1,1,-2,1,-15,1,1
1558440131991709,-1,1,3,-1,-9,-8,-4,-4
1558440132000690,0,-1,-6,-3,-1,1,-2,-1
1558440132000690,-3,0,2,0,2,-1,-1,0
1558440132006671,0,-2,-3,-2,-5,7,-1,-2
1558440132006671,1,-2,2,0,1,-12,0,0
1558440132014647,-1,-1,0,-3,-9,-7,-5,-2
1558440132014647,4,3,5,3,3,-2,4,4
1558440132030608,-3,-3,-7,0,-1,6,5,1
1558440132030608,-1,-4,-4,-4,0,7,-4,-1
1558440132037591,-2,-3,-4,-3,-6,0,-6,-6
1558440132037591,0,-1,6,0,0,-4,-2,-1
1558440132044568,0,-1,-5,-4,-3,-2,-4,-2
1558440132044568,-4,0,-5,-1,-2,5,2,-2
1558440132061522,0,1,-3,2,9,-4,2,2
1558440132061522,-1,-2,-2,-3,-5,3,-1,-5
1558440132062520,-1,0,6,0,-3,0,-3,-1
1558440132062520,-2,0,-1,-3,-4,5,1,0
1558440132074491,0,-2,-4,-2,-1,-12,-4,0
1558440132074491,-1,0,0,1,10,-1,3,2
1558440132083464,-1,-3,-2,-2,-7,-3,-5,-1
1558440132083464,1,-1,0,1,-3,-5,-2,-3
1558440132097429,-2,-2,6,1,0,4,0,1
1558440132097429,0,-4,-8,-1,-2,-4,0,-1
1558440132112386,-3,-2,-10,-5,-6,1,-2,-3
1558440132112386,-2,-2,-3,-1,7,6,0,0
1558440132121385,0,1,2,1,8,9,7,1
1558440132121385,-1,1,3,0,-8,-2,-8,-3
1558440132122360,1,1,0,3,8,5,4,1
1558440132122360,1,1,1,2,-5,-3,0,0
1558440132134327,-3,-3,-9,-5,-5,-9,-2,-1
1558440132134327,-2,-1,-2,-2,-1,1,-4,-4
1558440132143302,1,-1,4,0,-4,-6,0,1
1558440132143302,1,-1,4,2,3,5,3,-2
1558440132158268,0,-2,-6,-1,0,4,1,-1
1558440132158268,-1,-3,-4,-1,-8,-5,-6,-4
1558440132164247,-3,-3,1,-2,-7,-7,-2,-3
1558440132164247,0,-2,-1,0,4,1,-1,-1
1558440132181213,0,0,2,-2,-1,-7,-2,-1
1558440132181213,1,1,1,-1,5,4,4,5
1558440132182198,0,-5,-3,-3,0,-5,-6,-3
1558440132182198,0,0,2,0,0,3,0,-1
1558440132194171,-3,-2,-10,-5,-4,0,-2,-3
1558440132194171,-3,-2,-1,-2,1,6,-2,-4
1558440132203146,1,3,7,3,11,3,5,5
1558440132203146,-2,-4,-9,-2,-3,-9,-1,-1
1558440132218105,0,2,3,1,-5,4,3,0
1558440132218105,-2,0,-1,-2,7,2,0,-2
1558440132225085,-1,-1,0,-2,-14,-7,-9,-6
1558440132225085,0,-1,-2,0,7,-3,4,1
1558440132241043,0,1,4,1,1,3,2,1
1558440132241043,-2,-2,-2,-1,-9,-9,-5,-4
1558440132242039,-2,2,-2,-1,-1,-2,1,0
1558440132242039,-3,0,3,-2,-1,3,-5,-3
1558440132255004,-1,-5,-8,-4,-12,-7,-2,-1
1558440132255004,2,0,-1,4,8,5,5,2
1558440132262983,-2,-1,-2,-3,-6,-5,-6,-3
1558440132262983,0,2,3,1,0,4,7,5
1558440132277943,0,2,5,6,20,8,6,0
1558440132277943,-5,-2,-6,-7,-10,-6,-5,-1
1558440132284923,1,-1,-4,0,2,11,3,-1
1558440132284923,0,-1,-2,-3,-4,-2,-2,-3
1558440132300881,-1,1,8,-1,-4,-3,-3,-1
1558440132300881,-1,-3,-7,-3,1,2,2,2
1558440132301878,-2,-2,1,1,1,2,-3,-3
1558440132301878,-3,-2,-2,-3,-17,-11,-7,-5
1558440132314844,-1,-3,-3,-4,-1,4,1,1
1558440132314844,-2,-2,-1,0,-3,-12,-7,-3
1558440132323821,2,1,3,2,2,0,3,1
1558440132323821,1,-4,-4,-2,2,2,-4,-2
1558440132345763,-1,0,1,-1,-4,-10,0,0
1558440132345763,-1,3,5,1,-1,4,1,1
1558440132347756,0,0,-3,2,6,-5,2,2
1558440132347756,-1,-1,-4,-2,-3,-4,-7,-5
1558440132360721,-2,-3,-3,-2,-5,-1,-10,-7
1558440132360721,-2,-2,-1,-2,-9,4,0,0
1558440132362717,0,1,7,5,19,10,11,6
1558440132362717,-2,0,-2,-1,-6,-4,-1,0
1558440132374684,-3,-2,-9,-2,-4,-1,-4,-3
1558440132374684,-1,1,0,0,-2,-7,-2,-2
1558440132383660,-2,-3,-3,-4,-8,-10,-7,-5
1558440132383660,1,0,0,-1,3,0,1,1
1558440132397623,0,0,7,5,5,8,6,0
1558440132397623,0,-2,-10,-5,-3,-6,-7,-2
1558440132404604,-2,-1,-1,-3,-9,2,-4,-3
1558440132404604,-2,-1,-1,-2,1,-2,1,2
1558440132420565,0,-2,-6,-5,-4,-11,-8,0
1558440132420565,3,1,6,2,5,3,8,1
1558440132427543,-3,-3,-2,-1,-10,-7,-4,-4
1558440132427543,-2,-2,-3,1,5,-3,-3,-2
1558440132434531,-3,-1,-1,-6,-16,3,-5,-4
1558440132434531,-1,-1,0,2,7,-1,1,2
1558440132443503,0,0,1,-2,0,-7,-1,3
1558440132443503,2,0,-1,-1,1,4,3,-1
1558440132457462,-2,-3,-2,0,0,-1,-1,-3
1558440132457462,-3,-2,-4,-3,-7,-2,-6,-3
1558440132464446,-1,0,-1,-1,2,7,3,0
1558440132464446,-2,0,1,1,1,-1,0,2
1558440132481400,-1,-2,1,3,0,-8,-1,-2
1558440132481400,0,-2,-1,-8,-12,-9,-9,-6
1558440132482404,3,3,-3,1,8,15,9,4
1558440132482404,-4,-2,-3,-3,-5,-2,-6,-4
1558440132494366,-2,1,4,-1,-3,1,3,1
1558440132494366,-3,-1,3,1,3,2,0,1
1558440132503341,-3,-1,-5,-2,-9,-11,-7,-3
1558440132503341,0,-3,0,1,-1,-2,4,0
1558440132517306,2,-1,-2,0,-1,-3,-3,-2
1558440132517306,-2,-2,-2,0,5,8,5,1
1558440132524284,1,0,2,0,2,-4,-1,1
1558440132524284,0,1,-2,0,1,5,0,0
1558440132541240,-3,-3,-4,-5,-6,-10,-10,-4
1558440132541240,-1,-3,-4,0,-6,9,3,0
1558440132542236,-1,-3,-2,-3,-1,-10,-5,-3
1558440132542236,0,0,2,2,9,6,7,2
1558440132554204,1,2,3,3,12,4,4,1
1558440132554204,0,-2,-8,-2,-8,-6,-2,-1
1558440132563179,-2,0,1,-2,5,12,4,0
1558440132563179,-2,0,-1,-2,-9,-11,-6,-1
1558440132578140,1,0,3,-1,-1,-4,0,1
1558440132578140,-1,0,2,-2,-2,0,-3,-5
1558440132584124,-3,-4,-2,-1,-6,5,2,-1
1558440132584124,1,1,8,4,2,-2,0,1
1558440132601083,-2,-2,-8,-3,4,8,-1,1
1558440132601083,-1,-1,0,-1,-4,-9,-2,0
1558440132602078,-1,-3,-7,-4,-1,0,-4,-2
1558440132602078,-3,1,-1,-3,-8,-7,-5,-1
1558440132614046,0,-1,0,1,0,-1,-2,0
1558440132614046,-1,-4,-4,-2,-1,-12,-10,-1
1558440132623021,0,0,3,1,7,10,8,2
1558440132623021,1,0,0,1,-4,-3,2,-1
1558440132637989,-4,-2,-10,-5,-7,-3,-3,-2
1558440132637989,2,2,10,6,8,13,7,1
1558440132644967,-3,-7,-8,-5,-6,-12,-8,-2
1558440132644967,-2,-2,-4,-4,-7,-2,-5,-2
1558440132660919,1,2,9,4,6,1,-1,-1
1558440132660919,-4,-6,-12,-7,-6,-1,-2,-2
1558440132661916,0,0,2,-1,-5,-11,-2,0
1558440132661916,-2,0,-3,-2,4,9,3,-3
1558440132674892,-1,1,2,-3,-5,-2,-3,-2
1558440132674892,-4,-1,-1,-4,-5,-7,-7,-3
1558440132683858,1,2,5,4,3,-3,5,3
1558440132683858,0,-2,-3,-3,-3,-3,-1,0
1558440132696828,-1,-3,-6,0,0,1,-2,-2
1558440132696828,-1,-1,3,1,4,5,4,0
1558440132705799,0,-4,-9,-3,-11,-10,-10,-6
1558440132705799,-1,-4,-2,0,-1,2,-2,-2
