timestamp,emg1,emg2,emg3,emg4,emg5,emg6,emg7,emg8
1558440043401589,-2,0,-1,5,-9,-7,-6,-4
1558440043401589,-3,0,-2,-4,-5,-1,-5,-5
1558440043407573,-4,-3,-2,-6,-10,-1,-2,-6
1558440043407573,2,-1,0,2,11,13,6,9
1558440043408571,0,-2,2,-1,-5,-12,-2,-2
1558440043408571,-2,-3,-2,-3,-7,-4,-3,-3
1558440043409567,0,3,2,7,16,6,2,2
1558440043409567,-4,-1,0,2,-8,-12,-4,-5
1558440043420538,2,2,1,-7,0,1,0,1
1558440043420538,1,-2,-5,-1,4,6,5,2
1558440043436495,-1,-3,-3,1,-7,-8,-5,-2
1558440043436495,0,0,-1,-3,-12,-7,-4,-2
1558440043438491,-2,-1,-2,-6,1,5,-1,-1
1558440043438491,-1,-2,1,8,8,5,5,-3
1558440043451455,2,1,2,-4,4,-3,4,6
1558440043451455,0,1,3,-2,-1,-3,-4,-4
1558440043457447,0,0,-3,1,-1,-1,0,0
1558440043457447,-3,-1,-4,-5,-9,-5,-11,-3
1558440043476389,-5,-6,-7,-7,-20,-2,-7,-6
1558440043476389,2,1,4,4,25,3,5,3
1558440043481375,-1,-3,-4,4,6,-6,-3,-3
1558440043481375,1,6,9,1,18,18,11,4
1558440043488358,-2,-1,0,-3,-5,0,-5,-2
1558440043488358,-2,-2,-6,-2,-6,-10,-1,-1
1558440043495358,-1,-3,-4,-3,-8,0,-1,-1
1558440043495358,1,-3,-2,-3,-5,-8,-5,-2
1558440043518277,-3,-4,-6,-3,-5,-4,-3,-5
1558440043518277,-3,0,-1,-3,-8,1,-1,-3
1558440043519275,-2,-1,-1,1,3,2,0,1
1558440043519275,2,1,2,2,-8,-7,0,2
1558440043565151,-3,-1,1,-3,-1,-2,-4,-3
1558440043565151,0,-1,-1,4,-4,0,-1,-4
1558440043566149,-2,-1,-1,3,-8,-8,-5,-3
1558440043566149,-1,0,2,-6,-1,3,4,3
1558440043566149,0,0,0,-1,4,1,-1,-1
1558440043566149,-1,0,1,1,2,-1,2,1
1558440043570137,-2,1,-3,-4,-1,0,-1,0
1558440043570137,-2,-8,-10,-5,0,4,1,-2
1558440043577119,-1,-1,-3,-2,-5,-9,-4,-2
1558440043577119,1,0,5,3,12,3,-1,0
1558440043595072,-1,-1,-3,-5,4,1,4,2
1558440043595072,-4,-4,-7,-5,-12,-6,-8,-4
1558440043595072,-1,0,2,4,4,3,2,1
1558440043595072,-1,-1,-3,-3,-7,-4,-2,-2
1558440043607039,1,-1,-3,0,-2,0,-5,-4
1558440043607039,-4,0,1,3,5,1,3,1
1558440043615018,1,2,3,-3,-11,-10,2,1
1558440043615018,-2,-1,1,-6,-1,4,-3,-1
1558440043630975,-1,2,4,15,6,4,2,0
1558440043630975,-2,-1,-2,-6,-6,-5,-1,-1
1558440043645935,0,0,2,-2,-1,-3,-2,-1
1558440043645935,-1,-1,-6,-3,-2,-1,3,0
1558440043647943,0,-1,-1,-4,-9,-7,-3,-4
1558440043647943,-1,-2,-1,2,4,4,-9,-1
1558440043652916,0,3,5,5,10,10,6,2
1558440043652916,-3,-4,-9,-9,9,1,0,1
1558440043676854,-2,-3,-3,-2,0,-1,-5,-5
1558440043676854,0,1,1,-1,-4,-6,1,-1
1558440043677851,-1,-4,-3,-2,-3,-3,-3,-4
1558440043677851,-2,-3,1,-1,-10,-5,-6,-5
1558440043689818,1,0,-6,-1,10,8,9,7
1558440043689818,0,2,2,0,-1,-3,1,0
1558440043697797,-3,-6,-8,-1,-7,0,-5,-6
1558440043697797,-1,1,3,2,9,0,-2,1
1558440043714752,1,1,1,-1,6,-8,2,2
1558440043714752,0,0,2,2,0,-1,-2,-3
1558440043715749,0,-3,-11,-8,-9,-5,-12,-5
1558440043715749,-4,-2,1,2,-2,8,6,1
1558440043727718,-2,0,5,-1,-2,0,0,2
1558440043727718,0,0,-1,-5,5,2,5,0
1558440043734697,-2,-4,-4,-2,-12,-8,-10,-5
1558440043734697,1,-3,0,2,9,9,3,0
1558440043751655,1,-1,4,0,-2,-3,1,1
1558440043751655,-1,-4,-4,-1,-5,-5,-2,-1
1558440043757942,-3,-4,-3,-3,-7,3,-1,0
1558440043757942,1,3,0,-4,7,2,5,4
1558440043766613,-4,-4,-3,-1,-2,-1,-3,-4
1558440043766613,0,-2,-3,-1,-6,-3,-3,-2
1558440043772596,0,2,6,-1,3,0,1,1
1558440043772596,-2,-4,-8,-3,-12,-6,-5,-4
1558440043797565,-3,-1,-1,-5,-2,3,0,0
1558440043797565,3,3,4,3,8,0,5,2
1558440043797565,-1,1,4,4,1,-1,1,5
1558440043797565,0,-1,0,-7,-11,-10,-7,-6
1558440043810502,2,-1,-4,0,5,11,5,3
1558440043810502,-4,-1,0,2,-4,-3,-5,-3
1558440043817476,0,0,0,2,17,11,9,1
1558440043817476,0,1,1,3,-1,-10,-5,-2
1558440043834431,-3,-6,-5,-8,-16,-11,-8,-5
1558440043834431,0,2,4,2,9,8,7,4
1558440043835429,0,2,2,6,8,8,4,1
1558440043835429,-1,-1,-4,-7,-4,-10,-3,-1
1558440043847397,-3,0,1,-2,-9,-3,-8,-2
1558440043847397,0,-2,-2,-1,-2,0,-2,-1
1558440043855376,2,-1,1,-5,-3,-4,-2,-3
1558440043855376,-3,-2,0,9,7,7,2,1
1558440043871333,-1,1,1,1,-2,0,0,-1
1558440043871333,-2,-3,-1,-5,-15,-8,-9,-3
1558440043877317,0,-1,-6,-5,7,-1,-1,0
1558440043877317,2,4,5,4,5,1,5,2
1558440043886293,-1,-3,-3,-4,7,-3,1,0
1558440043886293,-3,-1,-2,-2,1,-6,-4,-2
1558440043892276,-3,-4,-7,-4,-9,-2,-5,-6
1558440043892276,-3,-4,-3,-4,-8,3,-3,-4
1558440043909231,-2,-1,2,3,4,0,1,1
1558440043909231,1,2,1,-2,-2,2,4,2
1558440043915215,-3,-3,-1,-3,0,-4,0,-1
1558440043915215,1,-2,-5,1,4,1,1,1
1558440043930175,-1,-2,0,-1,-7,-4,-4,-4
1558440043930175,1,-3,-2,-1,-1,-2,-2,-2
1558440043946132,0,-1,0,-3,-6,-5,-2,-2
1558440043946132,-2,0,-1,-1,-6,0,-4,-4
1558440043948127,0,-5,-9,-10,-13,-3,-11,-6
1558440043948127,0,-1,2,5,4,5,2,0
1558440043952117,6,6,15,10,16,-5,9,9
1558440043952117,-4,-5,-8,-16,-13,-7,-6,-3
1558440043967076,-1,2,1,-1,19,12,6,1
1558440043967076,-1,-2,-3,-4,-11,-9,-7,-3
1558440043975055,-2,-1,-4,-4,-8,1,-2,-2
1558440043975055,1,2,5,3,9,4,3,2
1558440043990017,-4,-4,-6,-7,-22,-8,-12,-9
1558440043990017,-2,-3,-5,-1,-5,-1,-5,-5
1558440043997993,9,8,15,17,41,21,27,15
1558440043997993,0,-2,-3,-7,-9,-9,-4,-2
1558440044005972,0,0,1,1,-3,-3,0,1
1558440044005972,-1,0,-2,-4,-7,-6,-7,-2
1558440044028911,-7,-8,-12,-8,-17,-3,-12,-7
1558440044028911,-1,1,2,3,3,2,3,3
1558440044029908,1,1,2,4,4,-1,1,0
1558440044029908,0,2,2,0,7,8,1,0
1558440044034895,-3,-6,-5,-8,-15,-16,-13,-5
1558440044034895,-2,-4,1,-3,6,12,5,1
1558440044049855,-2,-3,-3,-1,-8,-5,-5,-3
1558440044049855,-1,0,-3,4,2,-3,-2,-2
1558440044066810,3,4,2,3,10,9,6,3
1558440044066810,0,0,0,3,-2,-10,-3,-1
1558440044067807,1,0,5,-1,1,-1,4,1
1558440044067807,-3,-1,-1,-2,-6,0,-2,-6
1558440044080772,-4,-6,-11,-7,-18,-6,-9,-5
1558440044080772,0,0,0,2,1,-6,0,-1
1558440044087753,0,0,-4,-3,2,-5,0,0
1558440044087753,2,2,5,2,10,5,4,3
1558440044094735,-1,-1,0,-4,-9,-10,-6,-3
1558440044094735,0,-2,-3,6,1,1,-3,-3
1558440044111690,0,0,1,-3,-2,0,0,-1
1558440044111690,-2,-3,-3,-5,-2,-2,-3,-2
1558440044117674,0,0,0,0,0,4,2,-1
1558440044117674,-2,1,-3,-3,-8,-12,-7,-1
1558440044126649,1,2,0,0,12,11,5,3
1558440044126649,0,0,1,-2,1,-2,0,1
1558440044140613,-2,-2,-1,-3,1,2,-1,1
1558440044140613,-3,-5,-6,-6,-10,-7,-6,-4
1558440044147595,-3,-1,-3,0,-2,-7,-4,-2
1558440044147595,-2,-2,0,1,8,8,5,2
1558440044154576,-2,0,-2,-4,-8,-6,-5,-3
1558440044154576,-1,0,1,0,-2,2,1,1
1558440044178510,-1,-1,1,2,5,2,-2,-2
1558440044178510,1,-2,-2,2,3,6,2,-1
1558440044178510,-4,-3,-3,-5,-22,-18,-7,-6
1558440044178510,2,4,8,5,8,6,1,2
1558440044186490,-2,-1,-9,-6,-4,-2,1,-1
1558440044186490,-4,-7,-3,-4,-3,-2,-2,-1
1558440044200452,0,-3,-4,1,-3,-7,-2,-2
1558440044200452,-2,-4,-5,-5,-9,-3,-7,-5
1558440044207434,0,4,11,12,7,14,12,6
1558440044207434,-2,2,-3,-6,-7,-7,-4,-1
1558440044215412,-2,-2,0,-1,5,4,0,-2
1558440044215412,0,1,1,1,4,0,1,2
1558440044230372,-2,-4,-4,-6,-14,-4,-7,-6
1558440044230372,-1,-1,-2,-2,-7,-4,-3,-2
1558440044237353,-1,-1,-1,0,3,1,0,1
1558440044237353,0,0,-3,1,7,5,0,-1
1558440044246329,1,0,0,2,2,2,1,2
1558440044246329,0,1,3,1,9,1,1,0
1558440044260292,-4,-2,-2,-2,-2,7,-3,-1
1558440044260292,-4,-4,-4,-4,-9,-9,-5,-2
1558440044267274,0,2,5,3,3,-2,3,2
1558440044267274,0,-1,1,-2,5,3,3,4
1558440044275253,1,3,3,5,12,8,3,0
1558440044275253,-5,-7,-15,-5,-7,-13,-8,-3
1558440044290212,0,0,4,-3,-5,-7,-6,-4
1558440044290212,-1,-1,-4,2,-1,-5,0,0
1558440044297193,-3,-3,-4,-5,-3,-2,-6,-4
1558440044297193,0,0,4,0,-1,3,3,-2
1558440044306170,3,2,4,2,10,-7,1,4
1558440044306170,-1,2,3,-1,0,0,2,0
1558440044321134,-3,-6,-6,-3,1,0,-3,-1
1558440044321134,-2,-1,-2,-4,-9,-5,-6,-3
1558440044327116,-4,-2,-7,-2,-2,2,-3,-3
1558440044327116,1,1,3,1,8,-3,2,1
1558440044335099,1,2,0,0,-3,-5,-2,-2
1558440044335099,-1,-1,0,0,-6,5,-1,-3
1558440044350053,1,-1,1,0,10,1,3,0
1558440044350053,-2,-1,-4,-3,-9,-5,-3,-3
1558440044357034,-2,-3,-3,1,0,-1,0,0
1558440044357034,0,-2,3,-1,0,0,-5,0
1558440044366016,-1,-2,-8,-4,-1,0,-2,-1
1558440044366016,-1,0,0,1,-12,-1,-3,-2
1558440044380972,1,-1,0,-2,8,2,1,0
1558440044380972,0,1,6,4,1,0,2,2
1558440044387952,-1,-2,1,-3,5,-2,-2,1
1558440044387952,-3,-5,-8,0,-7,-6,-4,-2
1558440044394936,-4,-2,2,-6,-5,-6,-7,-1
1558440044394936,1,4,6,1,2,4,4,1
1558440044409893,-3,-7,-12,-7,-8,-2,-6,-6
1558440044409893,1,1,2,2,6,5,2,0
1558440044426848,0,-1,-3,2,1,1,4,2
1558440044426848,-2,-1,0,-3,-3,-3,-5,-4
1558440044427846,2,4,4,1,0,8,4,2
1558440044427846,-2,-1,0,-1,0,0,-1,0
1558440044439812,-1,4,5,-2,-3,-3,0,0
1558440044439812,0,-5,-5,0,-1,-7,-3,0
1558440044448788,-4,-2,-5,-7,-12,-1,-6,-7
1558440044448788,0,-5,-2,0,-3,0,-4,-5
1558440044454772,5,3,5,3,7,1,9,5
1558440044454772,-1,1,0,0,6,0,2,0
1558440044469732,-1,0,0,-2,-7,-8,-4,-1
1558440044469732,-1,-1,3,0,-2,-8,-6,-2
1558440044477711,-3,-3,-12,-4,-9,6,-3,-2
1558440044477711,2,4,2,1,14,4,10,4
1558440044486686,-3,-3,-3,-2,-12,-13,-7,-3
1558440044486686,-5,-1,0,-1,-3,3,0,-2
1558440044500654,-1,-3,-2,-3,-3,-3,-5,-3
1558440044500654,-1,0,-1,-1,-4,6,1,0
1558440044508638,-2,-1,-1,-1,1,-4,1,0
1558440044508638,-1,-2,-4,-2,-1,-3,-2,-3
1558440044514618,0,0,-1,0,1,0,1,0
1558440044514618,-1,-2,-2,0,-5,1,-1,-2
1558440044530572,0,-3,3,0,3,1,1,0
1558440044530572,0,1,-3,3,0,-3,2,2
1558440044537552,-1,-2,-4,-2,1,-6,-3,-3
1558440044537552,-2,1,0,0,-2,1,1,-3
1558440044552511,0,2,1,-3,-3,5,3,2
1558440044552511,2,1,2,2,1,-5,-3,2
1558440044559492,-2,0,0,1,0,1,-2,-3
1558440044559492,-2,0,0,-1,3,3,3,1
1558440044575455,-1,-5,-1,1,-4,-10,-5,-3
1558440044575455,-1,-3,-4,-1,-3,1,0,-1
1558440044576451,-4,-4,-6,-13,-22,-11,-9,-5
1558440044576451,1,-2,-1,0,12,6,1,-1
1558440044590414,-1,0,0,-1,7,1,-1,0
1558440044590414,0,2,2,1,2,4,1,3
1558440044597395,-2,-2,4,-3,-9,-7,-4,-2
1558440044597395,-1,-2,-6,-1,4,-3,-1,-1
1558440044612357,0,0,-6,0,4,10,2,0
1558440044612357,-1,-4,-10,-5,2,-4,2,1
1558440044620332,-2,-1,-1,-2,-7,-4,-3,0
1558440044620332,-3,-4,0,0,3,2,0,0
1558440044635296,0,1,8,4,0,-1,0,-3
1558440044635296,-1,-1,1,-5,-4,-1,-1,-2
1558440044636288,2,0,-2,3,9,8,6,2
1558440044636288,1,0,1,-3,-10,-5,-5,-2
1558440044650254,0,-2,-3,-2,3,7,1,1
1558440044650254,1,0,0,-1,-4,-4,-4,-3
1558440044657238,-1,-1,0,-3,9,3,2,1
1558440044657238,1,0,1,0,5,-2,5,4
1558440044672197,-3,-2,-2,-2,-8,-6,-4,-3
1558440044672197,-2,-2,-3,-6,-4,1,-3,-4
1558440044680171,0,-2,-1,3,4,5,0,-2
1558440044680171,1,0,-2,-4,-8,-3,1,0
1558440044696133,-1,2,0,2,2,-8,1,2
1558440044696133,-4,-3,-2,-2,6,3,-2,-1
1558440044696133,-1,1,0,0,-2,-3,-1,-2
1558440044696133,-3,-2,-8,-2,-13,-4,-5,-6
1558440044710089,-2,-3,2,5,14,1,2,1
1558440044710089,1,0,4,0,-3,-3,-1,0
1558440044717222,-1,-1,-1,-3,2,3,-2,0
1558440044717222,-2,0,-1,-1,-2,0,-2,-1
1558440044733153,1,-2,-3,-3,-7,-4,-4,-3
1558440044733153,0,-1,-3,-1,1,-1,-2,-1
1558440044740048,1,0,4,4,4,1,5,1
1558440044740048,1,-2,-1,0,0,-4,1,-1
1558440044755969,-3,-5,-7,-6,2,2,-4,0
1558440044755969,-3,0,0,-2,-3,-3,-3,-2
1558440044755969,-1,1,-4,1,-5,-6,-2,0
1558440044755969,0,0,1,-1,1,0,-2,-1
1558440044769929,-2,-1,-2,-1,-5,-2,0,-1
1558440044769929,-1,-2,-1,-1,-10,-1,-2,-4
1558440044777908,-2,0,-3,2,0,1,2,-2
1558440044777908,-1,-3,-4,-4,4,-2,1,0
1558440044792867,0,-1,1,-4,-10,-4,-6,-4
1558440044792867,2,1,3,0,1,5,6,3
1558440044799848,1,1,2,-1,6,-2,-1,2
1558440044799848,-1,-3,0,-3,-8,-2,0,-1
1558440044814811,-3,-4,-6,-4,-5,0,-9,-6
1558440044814811,-2,-1,-3,-3,-2,0,-3,-5
1558440044831763,3,1,0,3,-1,5,2,0
1558440044831763,-2,1,0,0,0,-3,-3,-1
1558440044832761,1,1,3,4,1,-2,-1,-1
1558440044832761,0,0,-2,2,4,-2,0,3
1558440044838084,-2,-4,-2,-4,-8,-3,-4,-3
1558440044838084,-2,0,3,5,2,1,1,-3
1558440044853172,0,-1,-6,-4,0,5,4,-1
1558440044853172,1,2,5,0,0,-6,3,5
1558440044859693,-3,-2,-3,1,1,1,-1,-2
1558440044859693,-4,-7,-13,-3,-10,-1,-6,-5
1558440044875646,-2,2,-2,-6,-7,-8,0,0
1558440044875646,-1,-1,0,3,8,-1,1,0
1558440044876642,1,2,4,3,7,-1,4,4
1558440044876642,0,-1,2,-1,1,0,-2,-2
1558440044899064,2,-2,2,-2,2,1,-2,3
1558440044899064,-1,0,6,0,-2,-3,-3,-3
1558440044899064,-1,-8,-18,-7,-12,-7,-4,-4
1558440044899064,-3,-3,-3,-1,4,3,-5,-4
1558440044912611,-2,0,-2,0,1,3,3,-2
1558440044912611,-2,-1,-1,-2,5,9,2,0
1558440044920831,0,3,4,2,2,-4,-1,-1
1558440044920831,-1,-1,-2,-6,-12,-5,-4,-2
1558440044935736,-1,-3,-3,8,11,8,6,0
1558440044935736,1,0,-2,-8,1,-10,-1,-2
1558440044943685,-1,-2,0,0,-8,1,-1,-2
1558440044943685,1,3,1,-1,5,4,2,1
1558440044950643,-1,0,3,3,-7,-6,-6,-4
1558440044950643,-1,-4,-6,1,0,3,-4,-2
1558440044957440,0,-1,1,0,11,9,2,2
1558440044957440,0,-1,-2,-5,-18,-10,-4,0
1558440044972404,-1,-2,-3,-1,-3,3,0,1
1558440044972404,0,0,-1,4,10,5,5,2
1558440044980586,-2,-1,-1,-4,-7,0,-2,-5
1558440044980586,1,-3,-2,3,7,1,-2,2
1558440044995338,3,4,8,3,13,0,8,3
1558440044995338,-4,-8,-14,-9,-17,-7,-8,-5
1558440045003509,-4,-1,5,0,2,4,-3,-3
1558440045003509,-2,-2,-3,-3,0,-1,3,2
1558440045010504,0,1,5,0,-8,-5,-2,0
1558440045010504,-2,-4,-5,-3,-6,-7,-7,-4
1558440045018308,1,1,-3,-3,4,-1,1,3
1558440045018308,-1,-2,4,1,6,7,-4,-6
1558440045033284,-1,-3,-8,-2,4,0,1,-3
1558440045033284,3,5,5,5,8,4,7,5
1558440045040211,-2,-1,-3,0,-9,-7,-5,-2
1558440045040211,-2,1,3,2,1,-2,-1,-2
1558440045055172,-4,-1,-1,-1,-16,-5,-7,-2
1558440045055172,-1,-1,-3,-7,-1,-1,-1,-4
1558440045063151,-2,-2,4,3,6,4,4,3
1558440045063151,1,2,2,0,4,-1,2,0
1558440045070128,-1,-1,1,-3,2,1,-2,-3
1558440045070128,-1,-2,-2,1,-1,-1,3,2
1558440045078104,0,-2,0,-4,-15,-12,-9,-6
1558440045078104,-5,-6,-17,-6,-7,0,-2,-4
1558440045092067,1,0,0,-3,2,-14,-3,0
1558440045092067,-3,-2,0,1,-1,-3,-5,0
1558440045100074,0,0,3,-1,4,5,4,1
1558440045100074,-1,-4,-4,-3,-12,-6,-5,-3
1558440045115005,1,2,1,-1,11,7,6,5
1558440045115005,0,1,3,5,-1,-4,0,0
1558440045122990,-2,-4,-11,-6,-3,2,-4,-2
1558440045122990,0,0,3,5,-5,2,1,0
1558440045137944,0,-3,-5,-5,6,-1,0,-1
1558440045137944,-1,1,4,-3,-2,3,-3,-4
1558440045138942,-1,-2,3,-1,-2,-3,1,-2
1558440045138942,-2,-2,-3,-2,2,1,2,2
1558440045152956,0,0,1,1,0,-4,-3,-2
1558440045152956,0,-1,0,-1,-3,1,0,0
1558440045159922,0,1,-2,-2,-10,-4,-4,-2
1558440045159922,-2,-1,0,-5,-7,-5,-5,-2
1558440045174854,-1,-1,1,2,7,9,4,-1
1558440045174854,0,0,-5,1,-2,-8,0,2
1558440045182892,1,3,3,-3,6,2,4,3
1558440045182892,2,4,4,1,4,-5,2,4
1558440045198831,-4,-5,-13,-4,-4,5,-3,-4
1558440045198831,-2,-3,-2,-3,-2,4,-2,-3
1558440045198831,-1,-1,1,-1,-2,-5,-4,-2
1558440045198831,-1,1,4,-3,-15,-13,-8,-3
1558440045212850,2,1,6,5,27,11,13,5
1558440045212850,-5,-3,-3,1,0,5,-1,-2
1558440045219727,0,0,-2,1,6,1,1,1
1558440045219727,1,-2,-1,-2,-2,-1,-5,-6
1558440045235726,-2,-3,-3,-3,-13,-7,-6,-4
1558440045235726,1,-2,0,-2,-2,2,-1,-2
1558440045243766,-1,-1,1,3,7,4,0,-2
1558440045243766,-1,1,-2,0,-1,0,2,0
1558440045258935,-2,-2,-4,-7,-7,-9,-11,-4
1558440045258935,-3,-1,-1,2,1,2,3,2
1558440045258935,1,0,-2,-1,4,4,6,7
1558440045258935,-1,0,1,2,7,1,3,1
1558440045272590,-1,1,2,5,-5,-7,-4,-1
1558440045272590,0,-1,-3,-6,-12,-9,-6,-5
1558440045280568,-2,-3,-7,-4,-9,-4,-7,-5
1558440045280568,-1,-3,1,0,5,3,0,-1
1558440045295525,5,3,7,5,-2,3,10,5
1558440045295525,-1,0,3,2,7,0,2,1
1558440045303724,1,-2,-1,-3,2,-9,3,2
1558440045303724,-1,-5,-7,-1,-2,-1,-4,-1
1558440045318462,-5,-3,-6,-11,-16,-1,-8,-5
1558440045318462,1,2,-2,0,-3,-2,-1,-2
1558440045318462,-4,-4,0,0,-7,-1,-9,-5
1558440045318462,-4,-1,-2,-4,-2,0,-7,-4
1558440045332813,-2,-2,-3,-2,-6,-1,-2,-1
1558440045332813,5,4,9,9,22,15,17,11
1558440045340816,-1,1,4,4,4,-9,-1,-1
1558440045340816,2,0,2,2,-2,3,1,0
1558440045355364,-2,-2,-4,-3,1,0,-3,-5
1558440045355364,-3,-2,-1,-4,-14,-12,-5,-5
1558440045363368,2,0,2,0,0,3,3,2
1558440045363368,-3,-2,-8,-4,1,-1,0,3
1558440045378379,-1,-3,-3,-4,-19,-8,-10,-8
1558440045378379,-3,-6,-6,-5,-4,2,-2,-3
1558440045379299,4,5,9,10,16,7,12,7
1558440045379299,-1,2,2,-5,-7,-8,-1,0
1558440045392504,-4,0,0,1,7,4,1,0
1558440045392504,-2,1,0,1,-8,-1,-3,-3
1558440045408226,0,-2,-3,-8,-2,-6,-7,-5
1558440045408226,0,-2,-4,-3,-2,0,2,-2
1558440045415406,-1,-3,-6,-2,-4,-3,-3,-1
1558440045415406,0,-3,-2,2,2,8,-3,-3
1558440045423185,-1,0,0,-4,-2,-3,-1,0
1558440045423185,3,1,5,1,4,-2,7,4
1558440045438151,0,-2,2,-2,-8,-9,-3,-2
1558440045438151,-2,-4,-10,-7,4,-5,-6,-5
1558440045439141,-5,-3,-7,-3,-10,0,-6,-5
1558440045439141,-2,0,2,1,10,8,4,3
1558440045454106,-3,-1,-2,-2,-6,-7,-7,-1
1558440045454106,-2,-2,-1,-1,-4,0,-2,-4
1558440045460283,-4,-7,-5,0,-7,-9,-4,-3
1558440045460283,0,-1,2,5,10,5,8,2
1558440045475216,-1,-1,0,1,1,-5,2,1
1558440045475216,-2,2,2,-1,1,1,0,1
1558440045483239,-2,-3,-3,-2,-4,-6,-4,-2
1558440045483239,-1,-2,-2,1,2,2,0,-2
1558440045498019,-2,-2,-1,2,-4,-3,-1,-2
1558440045498019,-2,0,-1,-6,-4,-5,-6,-5
1558440045498980,1,-2,-5,-3,-4,9,2,-1
1558440045498980,-2,-1,-1,-4,-14,-5,-12,-7
1558440045512942,1,1,1,0,7,1,3,4
1558440045512942,1,3,3,0,16,-6,12,9
1558440045519923,-1,1,-1,-2,-2,-4,-3,-2
1558440045519923,-1,-3,-2,-5,-14,-5,-2,-4
1558440045534882,1,-2,-1,0,9,1,0,-1
1558440045534882,0,0,0,-3,0,1,-3,-1
1558440045542861,-1,-1,0,1,9,7,1,-1
1558440045542861,-3,-2,-5,-5,-9,-6,-6,-3
1558440045557820,0,-1,4,5,10,16,8,1
1558440045557820,1,1,0,0,-8,-15,-5,-1
1558440045558818,-2,-2,2,-2,-2,0,-3,-2
1558440045558818,-3,-5,-5,-3,8,5,0,-1
1558440045572781,1,2,6,3,3,1,7,5
1558440045572781,-1,-4,-3,-2,-1,-6,-2,-1
1558440045580973,-1,-1,-3,-4,-7,-4,-8,-3
1558440045580973,-2,-3,1,-3,7,3,0,-2
1558440045595887,-3,-2,-4,-5,-11,0,-8,-5
1558440045595887,-5,-5,-3,-1,-14,-8,-8,-5
1558440045603871,3,3,6,8,9,-7,14,9
1558440045603871,1,5,4,5,22,5,4,3
1558440045619047,1,4,6,2,22,13,8,4
1558440045619047,-3,-7,-12,-4,-22,-12,-11,-7
1558440045619047,-2,-1,-5,-8,-10,2,-8,-7
1558440045619047,2,-1,-2,-2,-3,1,1,-1
1558440045632963,5,4,6,8,6,-10,7,6
1558440045632963,-3,-1,-1,-5,-2,3,-5,-3
1558440045640679,-4,-2,-2,3,9,5,-3,-2
1558440045640679,0,-3,0,-6,-11,-7,-6,-4
1558440045654568,-5,-7,-10,-10,-16,-10,-14,-9
1558440045654568,2,2,6,7,12,10,10,5
1558440045663736,0,0,2,0,7,-1,0,0
1558440045663736,-1,1,2,0,-7,-3,-1,-1
1558440045678506,-1,-1,-1,0,1,3,1,1
1558440045678506,1,0,-1,2,1,-3,-2,-1
1558440045678506,-2,-4,-3,-5,-14,-2,-1,-2
1558440045678506,-2,0,-2,4,8,1,0,0
1558440045693679,-1,-2,-4,-7,-14,-6,-5,-6
1558440045693679,1,-1,1,1,7,0,2,-1
1558440045700679,2,-1,-7,-2,-4,-1,-1,0
1558440045700679,0,2,1,2,1,-2,-1,0
1558440045715401,-3,-5,-9,-5,-7,-3,-3,-4
1558440045715401,-3,1,5,-1,6,11,0,-2
1558440045723412,-3,-6,-3,4,-1,-8,4,0
1558440045723412,1,1,0,3,0,-8,-1,5
1558440045738339,0,1,2,-3,2,4,3,0
1558440045738339,-2,-2,-2,-1,-1,0,-4,-2
1558440045739337,-4,-2,-4,-7,-8,2,-2,-2
1558440045739337,-4,-2,-5,-5,-15,-6,-11,-7
1558440045752332,-2,0,5,3,26,15,7,4
1558440045752332,0,-1,-1,-1,-5,-11,1,2
1558440045760509,-2,0,1,-4,-8,-1,-3,-3
1558440045760509,-1,-2,-3,-4,-1,1,3,-1
1558440045775243,-3,-2,-4,-2,-8,-4,-6,-3
1558440045775243,-1,-1,-1,-2,-9,1,-1,-4
1558440045783474,2,0,1,-2,9,1,1,1
1558440045783474,0,1,3,1,0,-12,-2,0
1558440045798450,-1,-1,1,2,3,5,2,2
1558440045798450,0,-1,-6,-8,-1,6,1,-1
1558440045799178,-1,-2,-5,-7,-6,-4,-3,-4
1558440045799178,-2,-3,-2,0,-6,1,2,-3
1558440045812142,-1,4,3,3,9,-1,-2,1
1558440045812142,0,0,0,-3,-4,-3,-2,-2
1558440045820391,0,-1,-1,1,0,5,-1,0
1558440045820391,0,-2,-1,-2,1,0,2,1
1558440045835336,-1,-3,-2,-3,-12,-9,-5,-4
1558440045835336,-1,-3,3,1,-1,-2,-2,-1
1558440045843304,-1,-2,-6,3,-1,-2,1,1
1558440045843304,0,-2,-1,-2,6,4,2,-1
1558440045858287,0,0,-3,-2,-9,-5,-4,-1
1558440045858287,-1,-1,-1,0,4,-1,1,-1
1558440045859018,-1,2,7,0,3,-1,-2,1
1558440045859018,-1,-2,-7,-2,-2,-1,-2,-2
1558440045872981,2,-1,-1,-2,-8,-3,1,0
1558440045872981,-2,-2,-3,-1,8,0,0,-1
1558440045880220,-2,-2,-3,2,1,-3,-1,-2
1558440045880220,-2,0,1,-2,4,4,1,0
1558440045895159,0,1,1,-1,-7,-7,-2,-1
1558440045895159,0,-2,-3,-2,-3,-2,0,-1
1558440045903981,0,1,-1,-1,-1,-4,-2,-1
1558440045903981,0,0,2,-2,0,3,1,1
1558440045917858,-4,-3,-3,0,2,-2,1,-1
1558440045917858,-2,-2,1,1,-2,1,-1,-1
1558440045927083,1,0,1,2,-4,-2,-1,-3
1558440045927083,-2,-1,-2,-1,1,0,1,1
1558440045933084,-2,-3,-7,-3,3,-3,-4,-4
1558440045933084,-1,0,-1,1,-3,-2,-6,0
1558440045939800,-3,0,-2,-1,1,0,-3,-3
1558440045939800,-1,-1,1,-2,3,2,-2,-1
1558440045954761,0,-1,-3,-1,-8,-3,-3,-2
1558440045954761,-2,-2,0,-1,1,0,2,1
1558440045962960,0,-1,-3,0,2,3,-1,-1
1558440045962960,1,-1,2,2,-2,-1,-1,-1
1558440045977730,-5,-7,-6,-4,-6,-6,-5,-3
1558440045977730,-2,1,1,0,8,4,6,1
1558440045985927,1,4,5,3,4,0,4,5
1558440045985927,0,0,0,-1,7,-3,1,1
1558440045992904,-1,0,2,-2,0,-4,-4,-3
1558440045992904,-2,-2,-5,-4,-5,-4,-5,-3
1558440045999640,-1,-4,-3,0,2,-3,-7,-3
1558440045999640,1,4,4,0,13,9,11,6
1558440046015629,0,-1,-1,3,6,1,-1,-1
1558440046015629,0,-3,-3,-6,-4,-9,-5,1
1558440046022579,-1,-4,-2,-4,7,5,-2,-4
1558440046022579,-1,1,-2,0,-10,0,0,-1
1558440046037699,0,-1,2,-1,3,1,-2,-4
1558440046037699,1,2,3,0,13,11,10,4
1558440046045769,-1,1,-5,-2,-2,-4,2,1
1558440046045769,-3,-6,-9,-11,-8,-11,-11,-7
1558440046061488,-2,-2,1,0,-7,1,2,0
1558440046061488,0,-2,-3,3,-11,-3,-4,-5
1558440046061488,-1,1,2,-6,-11,-1,-2,1
1558440046061488,0,1,2,10,21,9,2,0
1558440046075681,-1,2,0,-6,-5,-6,0,0
1558440046075681,-1,-1,-2,-6,-7,-4,-6,-4
1558440046082670,-3,-3,-3,-4,-8,0,-2,-4
1558440046082670,-4,-5,-6,-6,-20,-4,-5,-6
1558440046097643,-2,-1,1,2,-8,-1,-3,-3
1558440046097643,1,2,5,11,-8,-14,-2,1
1558440046105360,5,2,10,-4,12,4,12,8
1558440046105360,-1,-3,-9,-4,-7,-1,-6,-4
1558440046120321,-3,-1,-1,-1,3,12,5,1
1558440046120321,-2,1,1,-1,4,-4,0,1
1558440046121315,-3,-4,-7,-2,-12,-7,-12,-8
1558440046121315,-1,0,3,2,-14,-8,-5,-2
1558440046135540,3,3,3,6,14,4,8,6
1558440046135540,-2,-2,-3,-3,2,4,-3,-3
1558440046142258,-1,-2,-2,3,-10,-4,-3,-3
1558440046142258,0,-1,0,-4,4,2,0,-1
1558440046157218,-2,-2,-5,-3,-10,-9,-6,1
1558440046157218,-2,-2,2,4,11,14,10,3
1558440046166428,1,2,4,2,3,-16,-1,1
1558440046166428,-5,-5,-6,-5,14,14,1,-2
1558440046181527,-2,-2,-2,-2,-9,-7,-4,-3
1558440046181527,-3,-3,-5,-5,-2,-2,-6,-4
1558440046181527,-2,-3,-4,-2,1,6,-4,-4
1558440046181527,0,1,1,1,-14,-22,-2,1
1558440046195210,-2,-4,-1,-1,7,6,-2,-4
1558440046195210,0,0,-3,-3,-7,-2,1,0
1558440046203354,-2,-2,-2,1,0,0,-2,-3
1558440046203354,-1,0,1,-2,-9,-4,-3,-1
1558440046217378,-1,1,-3,-3,0,3,-2,-1
1558440046217378,-1,-1,-3,-1,-12,-9,-7,-2
1558440046226380,1,-1,0,2,14,3,5,4
1558440046226380,-1,-2,0,-5,-2,-1,0,-1
1558440046241328,-1,-2,-4,-3,1,4,3,0
1558440046241328,-4,-3,-3,-2,-2,1,-4,-5
1558440046241328,-3,0,1,-2,-4,-1,-1,-1
1558440046241328,-1,0,3,4,7,2,1,-2
1558440046254959,1,1,0,-2,-1,-2,-1,-1
1558440046254959,-2,-3,-2,-2,-4,-10,-1,1
1558440046263244,-2,-2,1,-4,-6,2,3,1
1558440046263244,3,1,-1,4,16,6,6,0
1558440046277928,-3,-3,1,3,-4,-8,-10,0
1558440046277928,-1,2,-1,-1,0,0,-4,-2
1558440046286154,-2,-1,1,-6,-18,-6,-4,-4
1558440046286154,-4,-2,-7,-5,-5,-3,-6,-2
1558440046301104,0,-1,0,-2,3,4,5,-1
1558440046301104,0,-3,-1,-3,1,-5,-3,-1
1558440046301831,1,0,-1,0,2,8,-1,-1
1558440046301831,1,-2,-2,1,-2,-3,-2,-1
1558440046315073,-1,0,-4,-2,-6,-10,-4,-2
1558440046315073,3,2,-1,-1,5,5,3,2
1558440046322778,-1,-1,-3,-1,-4,-4,2,1
1558440046322778,-2,-1,4,0,-3,-6,-1,-2
1558440046337737,-3,-4,-2,-2,-5,5,-5,-1
1558440046337737,-2,-4,-1,-1,3,6,-2,-4
1558440046345715,0,1,0,-1,5,-5,2,4
1558440046345715,-2,0,0,0,-5,-4,-5,-4
1558440046360706,-1,-1,0,-1,-4,-2,4,1
1558440046360706,-1,-1,4,4,11,12,2,-1
1558440046361672,-2,-4,-10,-6,-3,-1,-2,-4
1558440046361672,1,2,4,-2,-3,-3,1,2
1558440046375784,-3,-3,-3,-3,-1,-6,0,-2
1558440046375784,0,-1,-1,0,-3,-5,-1,0
1558440046382891,-1,-2,0,-2,-2,-1,-8,-6
1558440046382891,-1,-3,-2,1,2,7,2,1
1558440046397856,2,2,1,1,3,-2,5,2
1558440046397856,-2,-3,-2,-6,-3,-1,-2,0
1558440046405554,-1,-2,-1,0,-5,1,-3,-1
1558440046405554,-1,1,0,2,3,8,3,-2
1558440046420797,1,-1,-1,-2,1,-1,0,3
1558440046420797,-3,-1,-1,-1,-2,-4,-1,-3
1558440046421510,-2,-1,-3,0,0,-2,-2,-1
1558440046421510,-2,-2,-1,0,-5,-3,-5,0
1558440046436471,-3,-2,-2,-5,-6,0,-4,-3
1558440046436471,-2,-1,-2,-5,-13,-5,-3,-2
1558440046442716,2,4,3,4,13,-6,7,6
1558440046442716,-2,0,1,1,6,8,4,-1
1558440046457691,0,0,0,1,2,0,-1,-4
1558440046457691,-2,-2,-2,-5,-9,-8,-7,-2
1558440046466464,-3,-3,-1,-2,-7,-3,-5,-5
1558440046466464,-1,-3,-3,-2,-4,0,2,1
1558440046481425,1,-2,1,-4,-3,-4,-3,0
1558440046481425,0,1,0,3,13,4,6,4
1558440046481425,-1,1,0,-1,-1,1,1,0
1558440046481425,-2,-1,-2,-2,-2,-3,-3,-2
1558440046495356,-3,-2,-3,-1,-9,-3,-6,-5
1558440046495356,-2,-3,-1,-1,-4,-6,-4,-2
1558440046502564,-1,-1,-3,2,5,5,4,0
1558440046502564,0,-2,-2,-1,-5,-7,-4,-3
1558440046517286,-1,0,0,-1,-2,-1,-1,-3
1558440046517286,-1,-1,0,-2,-3,-2,-1,0
1558440046525236,-2,-1,-1,-1,2,-1,-1,0
1558440046525236,-1,-1,0,-1,-3,-7,-1,0
1558440046540194,-2,-2,-2,0,2,-2,2,2
1558440046540194,-2,-2,-4,0,-3,-2,-2,-2
1558440046541191,-4,-2,-3,-3,-7,0,-4,-2
1558440046541191,-1,-1,-3,-2,-5,-1,-3,-4
1558440046555153,0,1,3,0,6,-4,-2,0
1558440046555153,2,0,0,4,11,10,6,2
1558440046562136,-1,-2,0,-3,-3,-5,-4,-1
1558440046562136,0,0,1,0,-3,-5,4,3
1558440046577096,-2,-1,-2,-2,-9,-3,-6,-6
1558440046577096,-2,-3,-3,1,-1,5,-2,-5
1558440046586101,2,1,0,-3,-4,2,4,0
1558440046586101,0,0,1,0,0,-2,-1,3
1558440046601029,1,-2,4,3,7,11,6,1
1558440046601029,-1,-1,-4,-1,8,-6,2,3
1558440046601029,-3,-4,-2,-2,-4,-1,-5,-3
1558440046601029,-1,-3,-2,-3,-8,-1,-4,-4
1558440046615029,-2,0,-3,-3,-7,-2,0,0
1558440046615029,-1,1,1,1,4,4,0,1
1558440046621975,-5,-3,0,0,-5,-2,-3,-4
1558440046621975,-1,0,1,1,5,3,0,1
1558440046638930,2,0,3,-4,0,-1,2,2
1558440046638930,-2,2,0,0,2,5,2,1
1558440046646375,0,-1,-4,-2,-2,-7,-2,-3
1558440046646375,-1,-2,-1,0,8,7,3,-1
1558440046660871,-1,1,-3,1,-5,-12,-7,0
1558440046660871,-1,-1,-2,-4,-15,-7,-3,-5
1558440046661867,0,-1,1,0,-2,-3,1,3
1558440046661867,-4,-3,-3,1,8,3,0,-1
1558440046675289,0,-2,-2,1,1,3,-3,-3
1558440046675289,0,1,2,0,4,-2,2,5
1558440046683281,-2,-2,0,1,0,2,-1,0
1558440046683281,-1,-1,0,-2,-4,-2,1,-1
1558440046698243,-3,-4,-5,-2,-5,-2,-3,-5
1558440046698243,-1,-3,-4,-6,-15,-8,-7,-6
1558440046705751,2,-1,4,3,12,10,5,2
1558440046705751,3,4,1,2,4,-2,5,2
1558440046721104,-3,-3,-3,-2,1,2,0,-2
1558440046721104,-1,-2,-2,-3,-8,-2,-4,-3
1558440046721709,-1,-1,-3,0,-5,-3,-3,-2
1558440046721709,-2,-4,-6,-5,-1,-3,-4,-2
1558440046735709,-3,2,1,0,0,-1,0,0
1558440046735709,-1,-1,-1,0,2,3,2,-3
1558440046742654,-1,0,0,0,1,-3,-2,-1
1558440046742654,0,-2,-1,-3,-7,-2,-5,-2
1558440046757614,1,-3,-1,-2,2,0,1,1
1558440046757614,-2,-1,0,0,0,-1,2,1
1558440046765590,0,2,-1,-1,3,1,3,-1
1558440046765590,-1,3,-2,-1,-6,-11,-4,-1
1558440046781009,-2,-2,-3,0,-2,0,-5,-4
1558440046781009,-1,0,-1,-3,-5,-1,-6,-3
1558440046781548,-1,0,2,0,3,-3,2,-1
1558440046781548,0,-1,-3,1,1,-1,2,-1
1558440046795918,-1,-3,-2,0,-1,1,2,0
1558440046795918,0,-2,1,-3,1,2,-1,0
1558440046802491,-2,-4,-3,-3,-7,-3,-4,-4
1558440046802491,1,0,0,0,-2,-1,-1,-1
1558440046817454,-2,0,0,1,-1,-3,-2,-1
1558440046817454,-1,-2,-2,0,0,0,-3,0
1558440046825431,0,0,-2,1,1,6,3,2
1558440046825431,-2,-1,-1,-3,-4,-2,-3,-2
1558440046840392,-1,0,1,-1,4,3,4,2
1558440046840392,-3,0,-2,-1,-4,-9,-5,-2
1558440046848402,-1,1,-1,-2,-4,-1,-1,1
1558440046848402,-2,-1,-1,0,6,8,2,-1
1558440046855352,-1,0,0,0,-5,-9,-5,-2
1558440046855352,-1,0,2,0,7,1,4,2
1558440046862368,0,-2,0,-4,-6,-2,-3,-5
1558440046862368,-2,-3,-2,-2,-7,-4,-5,-1
1558440046877293,3,0,0,2,3,2,-1,-1
1558440046877293,0,-1,0,-3,2,1,4,1
1558440046885298,-4,-1,-4,-2,-2,-1,-4,-3
1558440046885298,0,1,-2,-1,0,1,1,0
1558440046900231,0,-1,4,-2,-6,-6,-2,1
1558440046900231,1,1,0,0,1,3,-2,-2
1558440046908210,1,0,0,-1,4,-2,0,-1
1558440046908210,-2,-1,-2,-2,-4,-3,-5,-4
1558440046923229,-2,-1,-1,-3,-1,1,1,0
1558440046923229,2,2,2,1,-1,-4,4,2
1558440046924165,-2,-3,-3,1,10,7,3,-1
1558440046924165,-3,-1,-1,-2,-2,0,-3,-2
1558440046937130,-1,0,-1,-2,-4,-2,-3,-2
1558440046937130,-4,-3,-3,1,-1,2,-2,-2
1558440046946110,0,1,1,3,-1,1,1,1
1558440046946110,-2,-3,-1,-6,-9,-7,-3,-3
1558440046960069,-2,-3,-2,-6,-1,1,1,0
1558440046960069,0,1,3,0,8,-2,1,1
1558440046968048,-4,-5,-6,-3,-8,-6,-7,1
1558440046968048,1,2,3,4,12,9,8,3
1558440046975089,-2,-3,-4,-3,-10,-9,-6,-5
1558440046975089,-1,0,0,-2,-2,3,-1,-1
1558440046982010,2,1,2,0,-2,0,4,0
1558440046982010,-1,-2,-3,-2,-1,-3,-5,-3
1558440046997005,-2,-1,-3,-1,7,2,1,-1
1558440046997005,1,1,3,3,-2,1,-4,-5
1558440047005947,-3,-5,-8,-9,-4,1,-6,-4
1558440047005947,3,-1,-1,0,3,0,6,3
1558440047019943,-2,1,1,2,1,1,3,3
1558440047019943,-3,-2,-4,-2,-4,-7,-4,-1
1558440047027925,0,-1,4,1,-2,5,1,1
1558440047027925,0,-1,2,-1,-3,-1,-5,-3
1558440047042849,-1,-1,-1,-5,-8,-6,-4,-4
1558440047042849,-2,-5,-5,-2,-5,-7,-4,-1
1558440047043846,-1,2,3,2,13,5,9,4
1558440047043846,1,1,0,0,2,-3,0,1
1558440047057843,0,2,4,3,0,5,1,-1
1558440047057843,-4,-6,-14,-7,-11,-4,-7,-5
1558440047065844,-1,-5,-6,-4,-7,-8,-9,-5
1558440047065844,4,4,11,7,12,7,9,6
1558440047079751,-2,-2,-4,1,0,-3,-2,0
1558440047079751,-3,-2,-6,-2,1,5,-1,-2
1558440047087728,-3,-2,-2,-3,-5,-4,-4,-4
1558440047087728,-4,-5,-3,0,-4,-1,-4,-1
1558440047102724,1,0,7,2,6,0,4,3
1558440047102724,2,0,0,-1,0,-1,1,2
1558440047103686,-1,0,-1,0,-9,-4,-7,-4
1558440047103686,-3,-3,-7,-4,-13,-2,-4,-5
1558440047117684,1,0,-1,2,9,4,5,3
1558440047117684,2,2,17,2,3,3,0,-2
1558440047125654,-2,-4,-9,-1,-1,-4,-2,0
1558440047125654,-2,-2,-8,-5,-6,-9,-2,0
1558440047139589,-2,-2,-4,-2,0,1,-2,-4
1558440047139589,1,1,-2,-1,-1,-1,2,2
1558440047148567,1,1,5,0,-5,-3,-5,-2
1558440047148567,-1,-1,-1,1,2,6,3,0
1558440047163525,-2,-3,-4,-4,-13,-12,-5,-2
1558440047163525,-1,0,1,0,2,-2,1,-2
1558440047163525,-4,-2,0,0,-4,1,-2,0
1558440047163525,-1,-2,1,-1,-1,-5,-2,-2
1558440047177488,-1,-4,-2,-3,-2,6,-2,-4
1558440047177488,-1,1,-2,0,-7,3,-2,-1
1558440047185466,3,1,4,4,15,-2,10,6
1558440047185466,-2,2,5,0,0,0,-5,-1
1558440047199464,-1,2,-3,-2,-1,-1,-4,-1
1558440047199464,-4,-6,-7,-5,-6,1,-3,-5
1558440047208406,-3,0,-2,-4,-7,-3,-5,-5
1558440047208406,0,-4,-5,-1,0,3,1,0
1558440047223392,0,0,2,-1,9,7,5,4
1558440047223392,-3,-1,0,-2,-4,-10,-3,-2
1558440047223392,1,2,-5,-1,-7,-6,-1,-1
1558440047223392,-3,-2,2,0,2,5,-1,-2
1558440047237327,-2,-2,1,-1,1,6,-2,-2
1558440047237327,-1,-1,-10,-3,-2,-9,2,4
1558440047245307,0,-2,4,2,2,-5,-2,-2
1558440047245307,-2,-2,-13,-3,-3,-8,-4,-2
1558440047260301,0,-2,-2,-4,-6,3,0,-3
1558440047260301,3,2,24,11,10,13,4,5
1558440047268283,1,2,-5,-4,3,-4,1,3
1558440047268283,-2,-3,-5,-3,-6,-5,-5,-3
1558440047283246,-2,0,-2,0,-8,-7,-6,-4
1558440047283246,-1,-2,-8,-2,8,9,3,2
1558440047284242,1,2,11,2,-5,-1,-1,-2
1558440047284242,-1,-1,1,2,3,8,2,0
1558440047297202,1,0,4,2,4,-5,5,4
1558440047297202,-3,-5,-10,-8,-11,-14,-7,-5
1558440047305147,-1,-5,-5,-1,6,5,0,-3
1558440047305147,-1,0,11,-1,-10,-7,-2,-1
1558440047320105,-1,0,-6,-1,-3,1,-6,0
1558440047320105,0,1,2,-1,2,7,2,0
1558440047328084,1,2,1,1,8,-2,4,3
1558440047328084,0,0,-3,-2,-2,2,-1,0
1558440047343080,0,-1,3,1,-3,-3,-4,-3
1558440047343080,1,0,5,2,1,1,1,3
1558440047344081,-4,-5,-15,-5,-11,0,-5,-4
1558440047344081,0,1,8,0,-1,-3,-3,-3
1558440047357007,-2,-4,-4,1,4,2,4,1
1558440047357007,1,-2,-5,-4,-2,-8,-4,-3
1558440047365983,-2,-1,9,4,3,5,2,2
1558440047365983,-2,-4,-14,-4,-1,-5,-1,1
1558440047379946,0,0,-4,1,-4,-4,-2,0
1558440047379946,-3,-1,-2,-2,1,4,1,-3
1558440047387925,-2,1,4,-3,-10,-8,-5,-2
1558440047387925,-2,-2,-5,-1,11,12,2,-1
1558440047402884,-3,-2,-3,-1,-2,-6,4,4
1558440047402884,0,1,3,6,6,4,3,-1
1558440047403881,-2,-2,-3,-5,-10,-4,-6,-3
1558440047403881,-1,0,1,-2,-4,-1,-2,-2
1558440047417846,0,-1,2,0,3,-4,0,3
1558440047417846,-3,-2,-4,-3,-5,-6,-3,1
1558440047425823,-1,-1,3,0,-1,0,-1,-2
1558440047425823,-1,-2,-5,-1,-6,-6,-6,-3
1558440047439792,-1,-2,-3,-3,-1,3,-4,-4
1558440047439792,-4,-4,-7,-4,-19,-10,-13,-8
1558440047447803,2,3,4,2,21,17,19,10
1558440047447803,-1,1,-1,2,9,-8,1,3
1558440047462724,-1,-2,1,-1,1,-1,0,-2
1558440047462724,-1,0,-1,-1,-2,-5,1,-3
1558440047463722,-1,-5,-2,-3,-7,-4,-9,0
1558440047463722,1,1,4,1,-3,-1,-2,-4
1558440047477685,-1,-3,-6,-4,-3,-2,-2,-3
1558440047477685,-4,-4,-4,-5,-9,-5,-13,-9
1558440047485663,0,-2,-5,0,5,14,5,1
1558440047485663,-1,0,2,0,3,2,6,4
1558440047499664,0,0,1,-1,0,-5,2,0
1558440047499664,3,2,5,5,19,13,14,7
1558440047508602,0,-1,-2,-3,-7,-13,-7,-4
1558440047508602,-2,-2,0,-1,-7,1,-4,-3
1558440047523589,0,-2,-4,-5,-8,-1,-3,-4
1558440047523589,-1,-3,-7,-4,-10,-6,-8,-4
1558440047523589,0,1,2,0,0,-3,-2,-1
1558440047523589,1,-1,-7,-4,-6,-3,-4,-3
1558440047537526,-2,-1,0,2,0,3,2,1
1558440047537526,1,4,13,8,10,-3,5,4
1558440047545503,-8,-11,-25,-10,-10,-7,-7,-5
1558440047545503,-3,0,4,-2,-3,-2,-1,0
1558440047559467,-2,-3,-3,-1,-2,0,-6,-1
1558440047559467,-2,-2,3,-3,-9,0,-3,-3
1558440047568443,-1,0,5,2,-6,-5,-5,-4
1558440047568443,0,-2,-4,-2,0,-7,-3,-2
1558440047583441,1,1,5,5,11,9,8,5
1558440047583441,0,-1,-2,-3,5,1,3,0
1558440047583441,0,1,4,1,-1,-2,1,2
1558440047583441,-1,-5,-9,-4,-10,-5,-6,-5
1558440047597365,0,2,3,-1,2,0,-5,0
1558440047597365,-2,-1,-5,0,0,1,1,4
1558440047605347,-1,0,-2,-1,-4,-2,-1,-2
1558440047605347,-3,0,3,-1,0,1,-1,-2
1558440047620305,-1,-3,-1,-3,-9,-2,-6,-5
1558440047620305,-1,-3,-7,-1,2,-3,-6,-2
1558440047628340,-1,4,7,6,11,12,11,1
1558440047628340,0,-3,-1,2,-1,4,2,5
1558440047643295,-4,-5,-2,-6,-1,-3,-5,-5
1558440047643295,0,-4,-2,-3,-11,-6,-9,-6
1558440047644239,0,-1,-6,-2,-2,-6,-2,1
1558440047644239,3,4,7,3,9,1,7,4
1558440047657239,-2,-3,-7,-2,-5,-3,-1,0
1558440047657239,-1,-1,0,-1,-3,1,-3,0
1558440047665183,-2,-1,0,-2,-5,3,-4,-4
1558440047665183,-1,-1,0,-3,-7,-5,-3,-5
1558440047680184,0,4,5,4,5,-16,5,5
1558440047680184,-1,0,0,-1,3,2,3,0
1558440047688124,0,-2,2,-2,-2,-1,-4,-2
1558440047688124,-3,-3,-4,-3,-3,1,-6,-3
1558440047703440,-3,-4,-2,-2,-10,5,-6,-6
1558440047703440,3,4,3,3,16,2,14,9
1558440047704083,1,0,-2,1,-3,-5,-1,1
1558440047704083,-2,-1,3,4,6,8,2,-2
1558440047717044,-1,0,-11,-7,-7,-2,-2,-4
1558440047717044,0,-2,0,0,-1,3,-2,-2
1558440047726048,0,-1,0,-1,0,0,-2,-2
1558440047726048,1,-2,2,-2,-1,-3,0,3
1558440047740009,-1,0,0,0,3,4,1,0
1558440047740009,-2,0,-5,-1,-6,-3,-5,-2
1558440047747963,0,-2,6,2,7,6,6,2
1558440047747963,-1,-1,-7,-4,-6,-4,-2,-2
1558440047761956,-1,-2,-2,1,-4,-9,-3,0
1558440047761956,0,-3,-6,-5,3,6,0,-1
1558440047770900,-1,-4,1,-1,-2,3,-4,-2
1558440047770900,0,0,0,-1,2,-1,0,0
1558440047777897,2,2,4,5,10,3,5,4
1558440047777897,-2,0,-1,-2,-11,-15,-2,-2
1558440047785860,-1,-1,-3,-3,3,2,-2,-4
1558440047785860,-2,1,1,0,0,4,5,1
1558440047799823,-2,-4,-4,-3,1,4,-4,-4
1558440047799823,-1,2,6,5,2,5,-1,1
1558440047807801,-2,-6,-16,-6,-6,-11,-4,-1
1558440047807801,0,-1,0,0,4,-1,3,-3
1558440047822762,-2,-4,-2,-3,-8,-4,-8,-4
1558440047822762,1,0,1,1,1,4,0,0
1558440047830779,0,1,7,5,-1,-2,2,1
1558440047830779,-1,-4,-9,-6,1,-5,-1,-2
1558440047846698,-2,0,-1,-2,-3,-3,-1,2
1558440047846698,-4,-2,-6,-4,-10,-2,-4,-4
1558440047846698,-2,1,-1,-3,-5,-2,-4,-5
1558440047846698,3,2,5,1,3,2,7,4
1558440047859662,3,-1,4,1,1,-7,1,0
1558440047859662,-2,-2,-2,-4,-7,-3,-4,-4
1558440047867641,1,-1,-1,-2,3,4,-2,0
1558440047867641,-4,-2,-3,-3,-8,-4,-6,-4
1558440047882604,-3,-1,-4,-4,-9,-7,-6,-5
1558440047882604,-2,1,1,2,7,8,6,3
1558440047890580,0,-4,-1,1,7,11,4,1
1558440047890580,0,1,2,2,3,-5,1,4
1558440047897562,-1,1,3,-3,0,-2,0,-1
1558440047897562,-2,-3,-5,-4,-12,-7,-8,-6
1558440047905542,-3,0,-4,-8,-9,-14,-4,-2
1558440047905542,0,-1,-2,2,-2,-2,0,0
1558440047919504,-1,0,-2,2,2,3,2,-1
1558440047919504,-2,-2,2,-2,-9,-5,-6,-5
1558440047928478,-1,-3,-3,-2,-5,-6,-5,-5
1558440047928478,0,1,-1,3,8,10,5,4
1558440047942441,2,2,2,2,5,-2,-1,0
1558440047942441,-3,-2,-3,0,7,3,2,0
1558440047950447,-2,-3,-5,-2,-10,-5,-6,-3
1558440047950447,-3,-1,2,1,-1,2,-3,-3
1558440047966378,-1,-1,-3,-2,-2,-7,3,1
1558440047966378,-1,0,-1,0,14,11,4,3
1558440047967376,-1,1,4,-1,-4,-5,2,2
1558440047967376,-3,-5,-15,-5,-2,-4,-2,-3
1558440047980340,-2,-1,2,-2,-2,6,0,-1
1558440047980340,-1,-3,-4,-3,-9,-4,-5,-5
1558440047988320,-3,-3,-1,1,-3,-5,-4,-1
1558440047988320,0,1,5,3,3,4,2,0
1558440048002281,-1,-3,-2,0,4,-4,-1,1
1558440048002281,-1,-4,-7,-7,-14,-7,-5,-2
1558440048010260,1,2,1,2,-4,0,0,1
1558440048010260,0,-1,2,-2,-7,-6,-8,-2
1558440048026218,0,-1,-3,1,8,11,5,0
1558440048026218,2,0,5,0,-4,-3,-2,-1
1558440048027215,-2,0,0,1,-2,-3,0,-1
1558440048027215,-1,-1,-1,-7,-7,-3,-5,-3
1558440048040182,-2,0,3,1,0,-3,-2,0
1558440048040182,3,1,-1,3,4,-2,4,3
1558440048048241,-2,-2,-4,-3,4,10,1,0
1558440048048241,-3,0,3,-1,-7,-7,-3,-2
1558440048062422,-3,-1,1,-2,-6,0,-5,-3
1558440048062422,-1,-5,-12,-6,-4,-7,-3,-2
1558440048071100,2,4,5,3,10,8,6,4
1558440048071100,-1,0,1,1,6,4,2,-1
1558440048085064,-3,-4,-5,-5,-4,-3,-2,-2
1558440048085064,-1,1,8,4,-2,0,0,-1
1558440048086058,2,0,-3,0,2,0,3,0
1558440048086058,1,1,0,-4,-5,-10,-5,-1
1558440048100353,-1,-1,-4,3,-3,-8,2,2
1558440048100353,-2,-2,-1,-7,1,0,-2,-1
1558440048108340,-2,-5,-3,-2,-3,0,-3,-4
1558440048108340,-2,0,1,1,1,6,2,-2
1558440048132045,-1,-2,-3,-4,-3,0,-4,-4
1558440048132045,-1,0,-2,0,-9,-12,-4,-3
1558440048132045,0,3,7,4,26,19,9,5
1558440048132045,-2,-2,-7,-1,-8,-10,-6,-3
1558440048145936,0,-1,-3,-1,5,9,4,-1
1558440048145936,1,-1,-1,-1,1,-2,-1,0
1558440048146939,-2,-4,-4,-5,-13,-14,-8,-2
1558440048146939,-1,1,2,2,10,16,6,3
1558440048160142,0,0,0,-2,-4,-8,-2,-1
1558440048160142,-2,1,1,0,2,1,-3,-2
1558440048168986,0,0,0,1,-3,-7,-1,-3
1558440048168986,2,0,-4,-2,5,-2,3,2
1558440048183091,1,1,3,0,-5,-1,-1,0
1558440048183091,0,-3,-4,0,5,6,3,3
1558440048190779,0,-2,-4,-2,-5,-4,-4,-3
1558440048190779,-2,-5,-3,-2,-12,-3,-11,-6
1558440048205762,-4,0,-1,-2,0,6,-1,-4
1558440048205762,-1,1,4,2,4,-2,7,2
1558440048206735,-2,0,-2,-1,6,-2,1,-1
1558440048206735,0,-1,-5,0,-4,-1,1,0
1558440048220700,2,-1,-1,-3,-1,-1,-1,-1
1558440048220700,-2,-3,-1,0,-6,2,-4,-5
1558440048228992,-1,-1,0,0,-4,-4,0,0
1558440048228992,0,-2,-1,-1,-2,1,-3,-3
1558440048242639,-1,-2,-2,-3,-7,-6,-6,-2
1558440048242639,2,4,2,0,10,-2,3,4
1558440048250618,-1,1,0,-2,-1,1,1,-1
1558440048250618,-4,-1,-1,-3,-2,-1,-1,-2
1558440048265577,-2,-2,-3,-2,-5,1,-3,-2
1558440048265577,-1,-1,-3,-1,1,3,-1,-2
1558440048266576,1,-3,-6,-3,-5,-3,-5,-1
1558440048266576,-2,-1,-1,-1,-3,3,2,-3
1558440048279539,-2,-1,-3,5,4,-2,1,-3
1558440048279539,-2,-3,0,-2,-3,0,-1,-2
1558440048288516,-2,1,3,2,8,8,3,0
1558440048288516,2,1,-1,0,5,-18,6,6
1558440048302518,-2,-1,-1,-4,-2,-3,-2,0
1558440048302518,0,-1,3,-3,-4,0,-2,-2
1558440048310834,-3,-2,-5,-3,-12,-5,-8,-4
1558440048310834,-2,-4,0,-5,-6,3,-5,-3
1558440048325699,1,-1,-2,2,1,1,-2,0
1558440048325699,0,-3,0,1,-3,-9,-1,-1
1558440048326417,0,0,-5,-1,5,-7,4,0
1558440048326417,0,2,2,-2,3,3,3,-2
1558440048340695,-3,-2,-1,1,8,14,6,1
1558440048340695,-5,-5,-4,-4,-11,-9,-3,-3
1558440048348702,-1,0,3,0,1,1,-2,-1
1558440048348702,0,1,1,-1,0,-3,-1,-1
1558440048362321,1,-1,1,0,-2,1,-1,-1
1558440048362321,-3,-2,-4,-4,-11,-5,-7,-4
1558440048378277,-2,-2,-3,-2,1,5,0,-4
1558440048378277,1,-1,-5,-3,1,-2,2,3
1558440048385259,1,3,4,-1,1,0,3,3
1558440048385259,-1,-2,-4,-2,2,-5,-3,0
1558440048386256,-1,-3,-1,-1,-10,-5,-3,-1
1558440048386256,-3,-2,2,1,-3,-2,-3,-1
1558440048400220,0,-2,-2,-1,0,-4,-2,1
1558440048400220,0,0,-2,0,-2,3,-5,-5
1558440048409194,-3,-4,-1,-3,-7,1,-6,-4
1558440048409194,1,1,3,5,12,-4,4,3
1558440048422159,-1,0,2,-3,-11,-7,-1,0
1558440048422159,3,2,1,4,18,12,9,3
1558440048430138,-3,-1,-2,-1,0,4,0,0
1558440048430138,-1,0,0,0,-3,-7,0,1
1558440048446096,-5,-4,-1,-1,-3,-6,-4,-3
1558440048446096,-2,-3,-4,-4,-10,-7,-8,-5
1558440048446096,-3,-3,-4,-3,-4,5,0,-2
1558440048446096,-2,-1,0,-1,-7,-8,-5,-2
1558440048460058,2,1,-1,3,14,8,6,3
1558440048460058,4,3,6,3,8,3,13,5
1558440048468042,0,0,-1,-2,-3,-15,-3,0
1558440048468042,-3,-1,-3,-4,-1,9,-2,-2
1558440048481999,-4,-2,-4,-4,-12,-8,-8,-6
1558440048481999,-2,-1,0,-1,-3,2,-2,-1
1558440048490979,1,1,1,0,-2,-1,1,-2
1558440048490979,-2,-3,-4,-1,-6,1,-5,-6
1558440048504952,-1,-2,-4,-4,-6,-5,-7,-3
1558440048504952,-3,-1,-4,1,5,7,-1,-1
1558440048513913,2,1,5,6,18,2,10,6
1558440048513913,-1,-2,0,-4,-3,-6,-1,0
1558440048519928,0,-1,-4,-1,7,4,2,-3
1558440048519928,-5,-4,-5,-4,-10,-1,-4,-5
1558440048528874,1,2,3,1,4,0,2,5
1558440048528874,-2,0,-3,0,-5,0,-2,-5
1558440048542839,-2,-2,-1,-2,-14,-8,-10,-5
1558440048542839,-3,-2,-4,-4,-8,-6,-7,-4
1558440048550814,1,-1,2,2,10,4,7,5
1558440048550814,0,1,0,1,2,-8,1,3
1558440048564880,1,-3,0,-1,-2,-1,-1,-3
1558440048564880,0,0,-1,-1,3,3,0,1
1558440048581733,-4,-4,-1,-5,-12,-4,-8,-6
1558440048581733,1,0,-5,2,2,7,5,0
1558440048582732,-1,-2,0,-2,0,-4,5,2
1558440048582732,-2,-1,0,-1,-7,-16,-6,-2
1558440048588721,-1,-2,-2,-1,1,3,0,-2
1558440048588721,-3,-3,-2,-3,-3,5,-3,-4
1558440048602679,2,1,4,2,13,9,8,4
1558440048602679,0,-2,0,-2,4,4,3,3
1558440048611652,-1,-3,-5,-2,-7,-4,-7,-4
1558440048611652,-1,-3,-4,-4,-8,-6,-8,-5
1558440048624617,2,1,1,0,5,9,10,2
1558440048624617,-2,2,1,3,6,-3,-1,-1
1558440048633596,-3,-2,0,-3,-8,-8,-5,-3
1558440048633596,1,-1,1,-3,-3,2,-2,-1
1558440048639581,-2,-1,-2,0,0,-7,-6,-3
1558440048639581,0,0,-1,-3,-3,4,2,-1
1558440048648566,-2,-1,-2,-2,2,1,0,1
1558440048648566,0,-1,1,0,1,-2,0,0
1558440048662527,-2,1,1,0,1,1,-1,2
1558440048662527,1,-4,-5,-2,-5,-1,-2,-1
1558440048671492,0,-1,-1,-4,-9,-5,-4,-2
1558440048671492,-1,-3,-1,-1,-2,0,-4,-4
1558440048684458,-1,1,2,0,-5,-3,-1,-1
1558440048684458,1,-1,8,2,9,1,1,0
1558440048693438,-2,0,-15,-5,-2,1,2,1
1558440048693438,-1,1,-1,-1,0,-6,-3,0
1558440048699424,-1,-3,-5,-3,-14,-7,-10,-7
1558440048699424,-1,-2,0,-1,2,10,5,-2
1558440048708396,2,4,6,4,12,10,9,3
1558440048708396,-5,-3,-2,-2,3,3,2,-1
1558440048722357,-4,-2,-3,-3,-8,-18,-10,-3
1558440048722357,-3,-2,-3,-2,-5,-4,-8,-3
1558440048731333,-1,1,5,0,-4,-4,-6,-1
1558440048731333,1,0,-2,1,10,13,9,3
1558440048745304,1,0,1,-3,-1,-12,0,2
1558440048745304,-1,0,0,3,0,0,0,-1
1558440048754270,-5,-3,-4,-6,-13,-8,-8,-7
1558440048754270,-3,-4,-3,-4,-15,-3,-8,-4
1558440048760257,2,1,5,5,19,17,11,3
1558440048760257,2,-1,-5,-2,8,1,3,3
1558440048769230,-4,-3,0,0,-5,2,-1,-4
1558440048769230,0,-1,-1,1,3,-4,-1,1
1558440048782198,-3,1,-3,-3,-7,-5,-7,-2
1558440048782198,-1,0,0,-1,-2,2,3,2
1558440048791172,-1,-1,0,0,6,8,4,-2
1558440048791172,-1,-2,-2,-2,-2,-1,-4,-1
1558440048805148,0,-1,-1,0,1,3,0,-2
1558440048805148,-2,-3,-3,-2,-4,-3,-3,-1
1558440048814111,1,0,-1,-1,-4,-7,-1,-1
1558440048814111,-2,-1,-1,0,0,-2,2,-1
1558440048820100,-2,-2,-3,-1,2,8,5,2
1558440048820100,-1,-1,-1,-1,3,3,0,0
1558440048829071,1,-2,-1,0,-3,-6,-3,0
1558440048829071,0,2,2,-1,-3,-9,-2,0
1558440048842042,-1,0,3,-3,-7,-10,-6,-3
1558440048842042,-4,-5,-9,-4,-8,-2,-6,-5
1558440048851011,-2,-3,0,3,6,6,4,1
1558440048851011,1,2,3,4,14,9,5,1
1558440048864978,-1,-2,-3,-4,-5,4,0,-2
1558440048864978,0,2,0,-1,-2,-9,-3,0
1558440048873953,-1,0,-1,-1,-2,-8,-5,-3
1558440048873953,-3,-3,-3,1,-7,-1,-5,-3
1558440048888922,1,-1,-4,0,4,-1,8,3
1558440048888922,0,1,5,0,2,-3,3,-1
1558440048889912,-2,-2,-4,-3,-10,-2,-10,-7
1558440048889912,-3,-2,0,-3,-13,-4,-8,-6
1558440048901881,2,0,3,2,9,-3,5,3
1558440048901881,1,-1,1,1,-2,-5,3,0
1558440048910854,1,-2,-3,2,11,2,-3,0
1558440048910854,-1,0,3,0,-6,-2,-3,-3
1558440048924814,-3,-2,-11,-7,-6,2,-4,-3
1558440048924814,-2,0,2,0,-7,-3,-2,-3
1558440048933791,-2,1,2,-1,9,8,6,5
1558440048933791,0,0,-1,0,-3,3,1,1
1558440048948750,-1,-3,-1,1,2,-3,-7,-2
1558440048948750,0,-2,-3,0,6,8,2,2
1558440048949749,-1,-1,-4,-5,-8,-6,-5,-3
1558440048949749,-2,-1,-2,-3,3,5,-1,-1
1558440048962713,-1,-1,-1,-3,-7,-5,0,0
1558440048962713,-3,-2,-4,-3,-1,-4,-3,-2
1558440048971691,1,1,2,1,-1,1,3,-1
1558440048971691,1,0,0,-1,10,-1,4,2
1558440048986949,-1,-1,0,-1,-1,1,-3,-2
1558440048986949,-1,-1,1,-1,-3,4,1,-2
1558440048993631,-3,-3,-2,-1,-4,-1,-2,-3
1558440048993631,-3,-2,-7,-3,-9,-7,-5,-4
1558440049008591,2,0,2,-2,0,-5,-3,1
1558440049008591,0,1,4,4,9,5,4,2
1558440049010587,-1,-4,-10,-1,-1,4,6,0
1558440049010587,4,1,0,-6,1,-5,1,4
1558440049022554,-6,-5,-3,-1,-6,1,-5,-6
1558440049022554,-2,-2,-3,-2,-12,-7,-7,-5
1558440049031530,1,-1,0,-1,-5,-3,-1,-1
1558440049031530,1,1,2,1,4,-2,3,3
1558440049053470,0,0,-1,1,2,6,2,-2
1558440049053470,1,0,-1,-2,-2,-1,-1,0
1558440049055467,-1,1,5,0,7,6,1,0
1558440049055467,-5,-4,-8,-5,-12,-3,-4,-3
1558440049068430,-2,0,-3,-3,0,-6,-1,-1
1558440049068430,-3,-3,-3,-3,-8,-3,-5,-1
1558440049070424,2,-2,0,-1,-1,-3,-1,0
1558440049070424,1,-1,5,2,15,16,4,-1
1558440049082392,-1,0,4,4,7,4,6,2
1558440049082392,-1,-1,-1,-4,-6,-9,-3,0
1558440049091371,0,0,1,2,-3,-10,-3,-1
1558440049091371,0,0,-2,-2,-1,-2,-1,0
1558440049105335,-2,-2,0,0,0,0,0,-2
1558440049105335,-3,-4,-3,0,2,1,-3,0
1558440049113313,-3,0,2,-2,-2,0,-4,-1
1558440049113313,-3,-2,-4,0,-4,0,-3,-2
1558440049129268,-1,-2,-2,-5,-12,-6,-9,-1
1558440049129268,1,0,-3,3,10,7,7,2
1558440049130267,1,2,1,1,7,-3,6,4
1558440049130267,-1,0,1,2,9,1,7,-1
1558440049142234,-1,0,0,-2,-2,2,0,-3
1558440049142234,-2,-3,-1,-3,-3,0,-4,-4
1558440049151210,-2,-1,-4,-5,-11,-3,-6,-5
1558440049151210,-1,0,-1,-2,-5,-4,-6,-2
1558440049165176,0,-2,-1,-3,-8,-3,-4,-4
1558440049165176,1,0,0,4,13,1,8,4
1558440049174150,-1,-1,3,-3,2,-4,1,3
1558440049174150,-3,-2,-2,-3,-3,-6,-4,-2
1558440049189109,-1,-2,-2,-3,-3,-1,-3,-3
1558440049189109,0,-1,-1,-3,-6,-1,-3,-2
1558440049190106,1,-2,-4,-2,-5,-2,-3,-1
1558440049190106,1,2,4,2,5,6,6,3
1558440049202073,-4,0,0,0,3,1,-1,-1
1558440049202073,0,0,2,-3,-15,-8,-3,-3
1558440049211049,0,0,1,2,4,3,-1,-2
1558440049211049,1,-3,-3,-2,-1,-5,0,0
1558440049225011,-4,-4,-8,-6,0,-1,0,-2
1558440049225011,-2,0,0,-3,-9,-3,-9,-4
1558440049233987,-2,-2,-4,-5,-14,-8,-5,-2
1558440049233987,0,2,4,3,7,-1,0,1
1558440049248947,2,0,3,2,4,5,6,2
1558440049248947,-3,-2,-2,-3,-3,-11,1,-2
1558440049249946,0,0,1,1,4,5,0,-2
1558440049249946,-4,1,-1,-4,-8,-7,-2,-4
1558440049261913,0,0,0,1,-1,0,-2,0
1558440049261913,-1,-3,-3,-5,-4,-1,-4,-1
1558440049270891,-3,-2,-2,-1,-4,0,-2,-1
1558440049270891,-1,-1,-2,0,6,3,-2,2
1558440049284851,-1,-1,0,-1,5,2,-5,-1
1558440049284851,-3,-1,-2,-2,-4,-1,-9,-4
1558440049293827,-1,-2,-5,-2,7,1,3,0
1558440049293827,0,0,1,3,-2,-9,0,-1
1558440049308804,1,-1,-2,-7,-7,-3,1,0
1558440049308804,0,-1,2,1,3,7,0,-2
1558440049309784,-8,-9,-9,-6,-11,-1,-6,-5
1558440049309784,-3,-2,-1,-2,1,-4,3,1
1558440049322757,4,2,2,5,9,-8,6,5
1558440049322757,-1,-2,-1,-2,-7,-6,-3,-2
1558440049331725,0,-1,-1,1,-1,1,-5,-3
1558440049331725,1,0,0,-2,6,1,0,-2
1558440049344692,-2,-2,-1,2,-1,0,-1,-2
1558440049344692,-1,2,0,1,12,13,6,2
1558440049353667,-1,-1,-1,-4,-17,-13,-4,-3
1558440049353667,-5,-3,-6,-4,-7,-6,-9,-5
1558440049368631,2,2,1,3,5,3,3,0
1558440049368631,-1,0,-1,-3,-5,-4,-4,-3
1558440049370622,-1,-1,-4,1,10,7,6,1
1558440049370622,-2,-2,0,-2,-14,-2,-3,-4
1558440049382599,-2,-1,-2,-3,0,10,-1,0
1558440049382599,-2,0,-2,-1,-1,-5,-3,-1
1558440049391567,2,3,4,2,5,-1,5,3
1558440049391567,-1,-2,-4,-2,-7,-2,-2,-2
1558440049405533,-3,-4,-2,-3,-3,-3,-6,-3
1558440049405533,-1,-1,-3,-1,0,4,6,2
1558440049413510,0,1,1,1,-1,-9,-1,1
1558440049413510,0,-2,1,-3,-3,2,-2,-1
1558440049428467,-4,-5,-6,-3,-4,-3,-4,-4
1558440049428467,0,-2,-3,-2,-7,-2,-1,0
1558440049434452,0,-1,2,1,1,-8,-4,-1
1558440049434452,0,1,1,1,4,6,2,2
1558440049442430,0,2,5,1,-4,-2,1,0
1558440049442430,-2,-5,-4,-3,2,0,-2,-2
1558440049451406,-3,-2,-1,-2,-6,-1,-5,-6
1558440049451406,2,2,-4,1,10,6,5,2
1558440049464371,-1,-2,-2,0,-3,-7,-2,-1
1558440049464371,-2,-3,-2,-1,2,7,0,0
1558440049473354,-2,0,1,-3,1,5,1,0
1558440049473354,-1,-3,1,-1,-8,-4,-4,-2
1558440049496285,0,1,4,-3,0,-6,-1,0
1558440049496285,-1,-4,-5,-1,-2,2,-4,-2
1558440049497283,-3,-3,-4,-2,0,-4,-4,-3
1558440049497283,2,6,10,5,10,-2,8,4
1558440049502277,-1,-5,-11,-2,-1,-1,2,0
1558440049502277,0,1,3,0,-3,-2,-5,-2
1558440049511246,-2,-2,-1,1,0,4,1,0
1558440049511246,-2,-4,-6,-4,-4,0,-3,-3
1558440049525214,-2,2,-2,0,-2,-6,1,0
1558440049525214,1,2,1,0,-2,-9,-3,-1
1558440049541168,-1,-2,-4,-2,2,3,0,0
1558440049541168,1,-1,1,0,-2,-2,-1,1
1558440049547152,-1,0,5,-2,-7,4,-4,-2
1558440049547152,-2,-1,-6,0,6,3,0,-1
1558440049556128,0,2,-4,-6,-11,-7,-5,-1
1558440049556128,-5,-5,-3,-5,-10,-8,-7,-4
1558440049562110,0,-1,-4,1,8,3,5,3
1558440049562110,-2,-2,2,2,1,-2,2,1
1558440049579065,2,1,2,2,6,6,3,0
1558440049579065,-1,-3,-5,-3,-6,-5,-7,-3
1558440049585053,0,1,0,1,2,11,-1,0
1558440049585053,-2,-4,-3,-4,-5,0,-4,-4
1558440049594024,0,1,3,5,3,-1,7,5
1558440049594024,-1,-2,-2,-1,4,-2,1,0
1558440049615967,0,-1,-1,-2,-5,-4,-3,-3
1558440049615967,1,-1,-3,-2,2,4,2,-1
1558440049617961,0,-2,-2,-3,-1,3,-4,-4
1558440049617961,0,0,-1,0,-9,-8,-2,-1
1558440049622950,0,0,-1,1,12,0,1,3
1558440049622950,1,1,5,5,1,-7,7,5
1558440049630928,-1,0,-2,-2,-6,2,-2,-2
1558440049630928,0,0,-1,-2,-4,7,0,-2
1558440049644888,-2,-2,-3,-3,-2,9,-3,-3
1558440049644888,-1,0,0,-1,-4,2,-1,-3
1558440049660845,1,1,1,-1,10,-2,6,2
1558440049660845,-1,-3,-5,-2,-7,-6,-1,-1
1558440049666829,-3,-3,-2,-4,-7,-5,-4,-3
1558440049666829,0,2,0,0,7,-9,-3,1
1558440049675816,0,-1,1,-1,-3,3,-3,-1
1558440049675816,-1,-3,-1,0,0,8,-1,-3
1558440049682786,0,0,2,1,1,-8,-3,1
1558440049682786,-3,-3,-6,-4,-9,-8,-4,-1
1558440049698748,1,-2,-2,-2,5,0,1,1
1558440049698748,1,3,4,1,5,0,1,2
1558440049704729,-2,-2,-6,-3,-8,-5,-4,-3
1558440049704729,0,-1,4,1,-2,1,-1,-2
1558440049713705,-5,-7,-9,-4,-6,-8,-10,-5
1558440049713705,1,0,2,3,12,13,7,3
1558440049736643,-1,-1,2,-1,-3,-1,0,0
1558440049736643,-1,-2,-1,1,-1,-10,0,1
