timestamp,emg1,emg2,emg3,emg4,emg5,emg6,emg7,emg8
1558433638880223,-3,-4,-18,-7,0,0,2,-3
1558433638880223,-4,-5,-4,-2,-8,-2,-4,-4
1558433638881219,1,1,1,2,-1,-5,-2,0
1558433638881219,0,0,3,-1,-4,-9,-2,-1
1558433638881219,0,-1,5,6,8,4,1,2
1558433638881219,0,2,4,4,-2,3,2,3
1558433638882218,-3,-3,-6,-3,-4,1,-2,-3
1558433638882218,-2,-3,-5,-8,-5,-3,-1,-2
1558433638894185,1,-1,1,2,2,-3,-3,-2
1558433638894185,-1,-2,-2,-4,0,1,-1,-3
1558433638902164,1,1,8,11,7,0,0,2
1558433638902164,2,0,-3,3,4,2,-1,0
1558433638909145,0,2,5,-2,-13,-8,-3,-2
1558433638909145,-1,-2,0,9,13,8,2,1
1558433638923109,-2,-5,-15,-14,-13,-9,-4,-4
1558433638923109,0,1,3,-19,-8,-4,-5,-2
1558433638934078,0,-5,-10,-3,-5,0,1,0
1558433638934078,0,-2,0,1,-1,-3,-2,-1
1558433638938069,-2,-2,2,5,4,4,1,1
1558433638938069,0,3,3,10,11,10,3,1
1558433638955026,-1,-1,3,-1,-7,1,-4,-3
1558433638955026,1,2,2,-2,-1,-4,3,1
1558433638962003,-1,-1,-5,-3,2,5,2,1
1558433638962003,-4,-6,-11,-7,-12,-8,-8,-7
1558433639000901,0,0,0,4,7,5,3,2
1558433639000901,1,3,3,3,5,-3,2,4
1558433639001897,1,-1,-1,0,5,1,0,0
1558433639001897,-3,-2,4,-1,-7,-4,-4,-6
1558433639002895,-1,-2,-6,-2,-5,1,-3,-3
1558433639002895,1,1,2,4,7,9,1,-3
1558433639005893,2,4,15,8,5,-2,2,3
1558433639005893,-5,-10,-34,-19,0,0,0,0
1558433639013865,-2,0,5,-3,-5,-6,-2,-1
1558433639013865,-3,-6,-10,-8,-14,-11,-8,-6
1558433639020853,-1,1,7,9,10,7,3,-1
1558433639020853,-1,2,9,11,-1,-6,-5,-4
1558433639028825,0,1,-2,-1,0,6,3,2
1558433639028825,-4,-2,-4,-9,-1,-1,-4,-1
1558433639042786,-1,-1,-2,0,-7,-5,-1,0
1558433639042786,0,1,3,1,2,2,-2,1
1558433639051763,-1,-1,0,3,-6,-8,-3,-2
1558433639051763,3,2,-8,-8,3,2,3,1
1558433639065726,-5,-4,-7,-2,-5,0,0,-3
1558433639065726,0,2,6,1,4,6,3,1
1558433639074701,-2,-3,-1,-5,-7,-5,-3,-2
1558433639074701,2,1,14,11,4,-6,1,2
1558433639080685,0,0,-14,-10,-7,-2,-4,0
1558433639080685,-2,-3,-5,1,-1,-1,4,2
1558433639089661,-3,-2,1,0,0,0,-3,-1
1558433639089661,-5,-4,-10,-10,-13,-4,-5,-3
1558433639102627,2,5,12,3,3,0,0,0
1558433639102627,-2,-3,-7,-1,4,3,1,0
1558433639111602,-3,-2,-3,-3,-2,-6,-5,-3
1558433639111602,-1,0,4,5,-1,5,5,2
1558433639117586,-2,-1,0,-2,-1,-1,-2,-1
1558433639117586,0,-1,-3,-4,-6,-3,-3,-6
1558433639134542,0,-2,-2,-2,5,0,0,0
1558433639134542,-2,0,4,6,0,-1,0,1
1558433639140526,-4,0,-1,2,9,4,-1,-1
1558433639140526,-2,-2,-3,-10,-4,-2,-3,-3
1558433639149502,0,1,3,5,4,6,0,0
1558433639149502,0,4,7,2,2,-5,-1,0
1558433639162468,-4,-6,-19,-12,-14,-8,-2,-3
1558433639162468,1,1,6,10,2,5,1,2
1558433639171444,1,2,1,-9,-1,2,-2,0
1558433639171444,-1,-6,-7,-5,-2,1,-2,-3
1558433639178424,0,1,4,0,-6,-7,-3,0
1558433639178424,-1,-1,1,2,0,0,-1,-1
1558433639194382,2,-1,1,4,-3,-5,1,0
1558433639194382,1,-1,-4,-3,0,6,1,-1
1558433639200365,-1,-1,1,-5,-9,-7,-2,-2
1558433639200365,-1,-1,4,-5,-9,-10,-5,-1
1558433639209342,-2,-1,2,7,7,5,3,0
1558433639209342,-1,0,-5,-9,-3,6,0,-1
1558433639223310,-3,-3,-4,2,3,-4,-9,-3
1558433639223310,-2,1,-3,-2,1,1,6,2
1558433639232281,-1,-1,-3,3,6,2,1,0
1558433639232281,-1,-1,4,-11,-9,-8,-4,-3
1558433639238264,1,-1,-2,-1,0,0,1,0
1558433639238264,1,3,7,3,-2,5,-1,0
1558433639254222,-2,-4,-6,-7,-8,-7,-5,-2
1558433639254222,-2,-2,-3,4,-7,-9,-1,-3
1558433639260205,1,0,3,1,13,14,5,3
1558433639260205,0,0,-1,1,7,-2,3,3
1558433639269182,-4,-3,-1,-1,-4,-2,-3,-4
1558433639269182,1,1,3,2,-3,-3,-2,-2
1558433639283146,-2,-5,-12,-1,-8,-5,-3,-3
1558433639283146,-2,-1,-1,-3,-4,4,-1,-4
1558433639292121,1,2,0,-6,3,-5,0,1
1558433639292121,-2,-2,-1,4,-9,-10,-5,-2
1558433639305086,-1,0,0,-4,3,6,3,-1
1558433639305086,3,3,7,6,5,-5,0,1
1558433639314062,-2,-5,-12,-7,-4,3,-1,-3
1558433639314062,-4,-3,-4,-4,-1,0,-3,-3
1558433639320045,-1,0,1,3,3,-3,1,1
1558433639320045,-3,-1,-2,-6,-10,-8,-8,-2
1558433639329022,0,1,2,-1,-2,2,-1,0
1558433639329022,1,1,4,10,19,17,8,3
1558433639342985,1,3,7,3,-8,-9,0,-1
1558433639342985,0,-3,4,9,9,5,0,0
1558433639351962,-5,-7,-25,-20,-14,-13,-5,-5
1558433639351962,-1,0,-2,-1,6,10,1,-1
1558433639364926,-2,-2,-1,-10,-6,-1,-5,-5
1558433639364926,1,1,4,-1,1,-2,1,2
1558433639373902,1,2,11,7,0,-6,2,2
1558433639373902,-1,-3,1,0,0,-1,1,2
1558433639379886,-4,-3,-6,-6,-4,-6,-3,-3
1558433639379886,-1,-1,6,7,-7,-4,-2,-4
1558433639389859,3,4,10,11,15,15,5,1
1558433639389859,-4,-7,-21,-17,-8,-5,-4,-2
1558433639402824,0,0,4,4,11,7,1,1
1558433639402824,-4,-5,-9,-9,-10,-3,-6,-4
1558433639411799,1,1,6,3,-4,-2,-1,1
1558433639411799,1,3,7,4,4,0,1,-1
1558433639425764,0,0,-3,3,2,4,5,2
1558433639425764,0,-2,-5,-3,2,-6,-3,-2
1558433639434741,-2,-2,-3,-3,-12,-3,-1,-1
1558433639434741,-2,-1,4,5,2,8,3,0
1558433639440722,-2,-4,-2,0,-8,2,-5,-5
1558433639440722,-1,-1,-8,-11,4,-7,2,1
1558433639449701,2,2,4,2,1,-2,-2,-1
1558433639449701,-5,-8,-13,-8,-9,-12,-6,-4
1558433639462666,0,1,8,11,-1,7,3,2
1558433639462666,0,-2,-9,-1,0,-3,-4,-2
1558433639471641,-1,-1,0,-3,3,-1,-2,-2
1558433639471641,0,2,6,1,-1,-1,1,-1
1558433639485602,0,-1,-1,-5,-2,0,-3,-2
1558433639485602,-1,0,-3,-4,-3,-3,-3,-2
1558433639494579,-3,-4,-1,3,-1,5,2,-2
1558433639494579,2,5,9,-3,-5,-7,-2,-1
1558433639500564,-2,-2,-13,-4,8,3,5,2
1558433639500564,-2,-3,-4,-4,-3,2,-1,-4
1558433639509540,0,-2,-3,-10,-3,-8,-6,-3
1558433639509540,0,0,4,4,-4,-1,2,-1
1558433639522505,0,-1,-2,-6,-6,-2,-4,-1
1558433639522505,-3,-2,-1,1,-3,1,1,-1
1558433639531480,2,1,2,8,6,-9,-2,1
1558433639531480,-3,-2,-2,0,3,5,0,-2
1558433639545443,2,0,4,-2,-4,-4,-1,-2
1558433639545443,-2,0,12,9,-3,0,-3,-2
1558433639554420,-3,-6,-28,-14,-7,2,-2,-3
1558433639554420,0,-4,-2,-4,-7,-10,-6,-4
1558433639560402,1,1,3,2,9,1,2,2
1558433639560402,3,0,5,4,3,2,3,2
1558433639569379,-1,2,10,8,0,3,3,0
1558433639569379,-1,-2,-9,-5,-1,0,-4,-3
1558433639583343,-4,-6,-9,-6,-9,-6,-8,-5
1558433639583343,1,2,3,-1,-4,-7,-1,0
1558433639591322,0,1,6,2,3,7,2,-1
1558433639591322,-2,-2,-2,1,1,-4,1,1
1558433639605283,0,-2,4,1,6,0,1,-1
1558433639605283,-2,-5,-15,-6,1,-3,-4,-1
1558433639614260,0,1,4,2,-4,-3,-1,-1
1558433639614260,0,1,8,5,-3,-2,-4,0
1558433639620243,-5,-1,-13,-8,-5,-1,0,-3
1558433639620243,-1,0,-3,-1,2,4,4,2
1558433639635203,-3,-3,-3,-3,3,4,0,-2
1558433639635203,2,2,9,7,-10,-5,-1,4
1558433639643181,2,0,6,3,5,-2,1,0
1558433639643181,-2,-2,-5,-7,-8,-3,-4,-4
1558433639652157,-3,-2,2,2,-8,-7,-3,-3
1558433639652157,-1,-1,-2,-2,13,12,0,0
1558433639665124,0,-1,-4,-5,-10,-4,-3,1
1558433639665124,1,0,-2,-7,3,0,0,-1
1558433639674098,-1,1,7,7,6,4,1,-1
1558433639674098,-1,-2,-6,-8,-4,-9,-2,-1
1558433639680082,-2,-3,-3,-3,-9,-6,-6,-3
1558433639680082,0,3,11,7,5,1,0,-1
1558433639695043,-2,-3,-13,-11,-7,-4,-4,-2
1558433639695043,-1,-1,1,6,2,-3,0,0
1558433639703020,0,1,0,2,12,4,1,1
1558433639703020,1,3,3,-1,-4,4,3,0
1558433639725962,-1,-7,-11,-2,4,4,-1,-2
1558433639725962,-4,-4,-6,-7,-6,-2,1,-3
1558433639726959,2,3,7,8,8,1,4,2
1558433639726959,0,0,4,2,-6,-5,-2,-1
1558433639733938,1,-1,-3,-5,4,0,2,-1
1558433639733938,-1,0,-1,-2,-5,-4,-6,-4
1558433639739922,0,-2,2,0,-6,-3,-3,-2
1558433639739922,0,-3,0,6,12,9,4,0
1558433639755881,-2,-2,-2,2,-9,0,-1,0
1558433639755881,-2,-1,-4,-13,-3,-5,-2,0
1558433639762862,-4,-4,-1,-3,-13,-10,-7,-5
1558433639762862,-1,-2,-2,3,3,2,2,-1
1558433639771838,0,1,3,0,1,6,3,0
1558433639771838,-1,-1,0,-1,4,6,4,-3
1558433639785801,0,0,-4,1,-6,-5,2,3
1558433639785801,1,-1,2,0,6,7,1,0
1558433639794776,0,3,4,-4,-6,-10,-1,-1
1558433639794776,-3,-8,-19,-4,2,-1,-2,0
1558433639800760,-1,0,-2,-2,-6,-5,-1,-1
1558433639800760,-1,-2,0,-5,-1,-1,2,1
1558433639815722,2,2,1,-3,1,-3,-5,-1
1558433639815722,-1,-1,4,3,-4,-1,-4,-3
1558433639822705,-1,-3,1,0,2,2,-2,-3
1558433639822705,-1,0,-2,-1,-6,-6,0,2
1558433639831678,0,-1,-1,3,7,8,1,0
1558433639831678,1,2,10,4,3,2,1,1
1558433639845640,-1,-5,-13,-4,1,-3,-1,-1
1558433639845640,-1,-2,1,-2,-7,-4,-4,-1
1558433639854617,-3,-1,1,-4,-5,-2,2,1
1558433639854617,0,0,1,0,0,-4,-4,-4
1558433639860601,-2,-1,4,-3,-4,0,0,-1
1558433639860601,-1,0,-2,-2,-1,-3,-4,-2
1558433639875559,-2,-3,-9,0,0,-6,-2,-1
1558433639875559,0,0,-4,-12,-3,2,5,-2
1558433639882542,-2,-2,-2,-6,0,5,-1,-3
1558433639882542,-3,-1,-4,-1,0,-4,-3,-2
1558433639891517,1,0,6,7,4,-2,-1,2
1558433639891517,-2,-2,-1,4,-4,-6,-1,-2
1558433639905479,0,2,5,1,6,4,1,-1
1558433639905479,-3,-6,-10,-10,-14,-5,-7,-6
1558433639922435,3,3,8,4,0,2,2,1
1558433639922435,0,0,-2,3,7,4,2,3
1558433639923432,0,1,4,-1,-8,-9,-3,-1
1558433639923432,1,1,-5,1,9,4,2,-1
1558433639935407,-3,-4,0,-2,0,2,-1,-1
1558433639935407,-1,-1,2,0,-7,-8,-1,2
1558433639943380,-1,1,4,-5,3,7,0,-2
1558433639943380,0,1,3,5,2,-6,1,4
1558433639958346,-4,-4,-5,-3,0,-4,-4,-3
1558433639958346,-2,-2,-7,-5,-2,0,-2,-3
1558433639965323,1,-1,4,9,2,-2,-3,1
1558433639965323,1,1,4,-2,-5,4,0,-1
1558433639974300,-3,-3,-6,-5,-3,-4,-1,0
1558433639974300,-2,-3,1,0,-1,1,-5,-3
1558433639988265,-1,0,-1,-2,-11,-11,-3,-1
1558433639988265,0,0,1,4,3,-1,0,2
1558433639995244,0,-1,0,-10,-8,-2,1,-1
1558433639995244,-1,0,-1,3,6,8,2,0
1558433640012196,0,0,-4,1,6,3,3,2
1558433640012196,-4,-4,-3,-1,-3,-3,-1,-2
1558433640013194,-1,-2,-3,-6,-13,-6,-3,-3
1558433640013194,0,0,-1,0,8,2,0,1
1558433640025161,-1,-1,-4,0,4,8,2,-1
1558433640025161,-2,-4,-5,-1,-9,-11,-7,-3
1558433640034136,-1,-2,-4,-3,5,1,2,0
1558433640034136,0,1,0,-2,-5,-8,-3,-2
1558433640049096,-1,-2,-2,-1,-3,-2,-2,-3
1558433640049096,-1,-3,-1,0,-1,1,-5,-4
1558433640055079,-2,-1,0,0,-8,-2,-4,-4
1558433640055079,2,-1,-6,-15,0,7,7,3
1558433640072033,-1,0,-3,0,3,-4,-1,0
1558433640072033,0,-2,2,-2,-10,-6,-1,-3
1558433640073032,0,0,4,7,8,1,-1,0
1558433640073032,-1,-1,-5,3,2,5,-4,-3
1558433640086002,-2,-3,-4,-11,-8,-12,-3,-1
1558433640086002,1,0,-5,-2,6,3,6,1
1558433640093978,0,0,0,3,-4,-6,0,-2
1558433640093978,3,3,12,8,-6,-9,-5,-2
1558433640108936,-3,-9,-23,-5,-3,8,1,0
1558433640108936,-5,-6,-13,-22,-13,-8,-6,-6
1558433640114921,2,3,7,3,5,3,5,6
1558433640114921,-1,-1,-3,1,5,0,0,-1
1558433640131876,-1,0,10,6,-2,-2,-3,-4
1558433640131876,1,2,4,2,2,-2,-2,0
1558433640132874,-2,1,-5,-5,-5,1,0,-2
1558433640132874,-3,-4,-7,-6,-4,-2,-1,-3
1558433640145838,-2,0,1,0,1,2,0,0
1558433640145838,0,1,1,2,2,1,2,2
1558433640154818,2,1,4,2,8,2,4,2
1558433640154818,-2,-2,0,2,-8,-8,-4,-1
1558433640168879,-3,-2,-3,1,3,2,0,-2
1558433640168879,0,-1,0,0,2,5,2,1
1558433640175861,-1,-2,-4,-15,0,1,-6,-2
1558433640175861,-2,-4,-6,-3,-8,-5,-2,-1
1558433640191764,3,4,6,3,9,-2,6,5
1558433640191764,-1,2,5,5,4,5,0,-1
1558433640193711,-4,-4,-5,-3,-10,-6,-5,-6
1558433640193711,1,3,9,10,6,4,2,2
1558433640205779,-1,0,1,2,-2,-2,-2,-2
1558433640205779,-3,-6,-10,-18,-4,-2,-2,-2
1558433640214659,-1,-1,-1,1,-7,-3,-1,-1
1558433640214659,-1,-3,1,-9,3,2,-5,-4
1558433640228828,-2,-3,-12,1,-4,-1,4,1
1558433640228828,-1,0,5,6,5,-2,-2,-2
1558433640235633,-2,-3,-2,0,-6,-3,-1,-4
1558433640235633,2,1,5,5,-1,-6,3,4
1558433640251594,2,0,4,-1,0,-1,-4,-2
1558433640251594,-2,-1,-4,-4,1,3,1,-3
1558433640253556,-1,-4,-3,-3,-6,-9,-5,-3
1558433640253556,-1,0,3,6,0,-1,-2,-1
1558433640265520,0,1,-4,-16,1,9,3,-1
1558433640265520,-1,-2,-2,1,-8,3,2,2
1558433640274519,2,0,-1,2,1,-3,0,1
1558433640274519,1,1,0,1,6,2,3,3
1558433640288457,-3,-1,3,-1,-13,-13,-10,-4
1558433640288457,0,0,2,1,0,-1,-1,0
1558433640295438,-2,1,-3,0,2,6,1,1
1558433640295438,-2,-3,-5,-8,-6,1,-3,-2
1558433640311395,0,-3,-2,1,-1,-5,-3,-5
1558433640311395,1,1,2,3,-3,-5,-1,2
1558433640313388,-3,-2,0,5,2,-2,-2,1
1558433640313388,-1,0,-7,-1,3,4,-1,-1
1558433640325395,-1,-1,4,8,17,9,5,2
1558433640325395,-1,-4,-9,-3,-5,-7,0,-3
1558433640334333,-3,-4,-6,-16,-4,-5,-6,-3
1558433640334333,-3,-1,3,0,-7,3,0,-2
1558433640348302,0,2,8,2,-8,-2,-3,-3
1558433640348302,-1,0,4,3,1,-2,-2,-1
1558433640355630,-1,-3,-12,-8,-1,-1,0,0
1558433640355630,-3,-3,2,7,4,5,0,-2
1558433640372415,-1,-4,-5,-6,3,3,-1,1
1558433640372415,2,4,8,9,2,-5,0,2
1558433640373235,0,-1,2,0,-11,-10,-3,-4
1558433640373235,-1,-1,-9,-12,0,-4,-2,-2
1558433640385384,-3,-2,1,-2,-11,-3,-4,-4
1558433640385384,-2,-3,0,-3,1,4,1,0
1558433640394275,-1,1,0,4,6,1,2,0
1558433640394275,-1,-5,-6,0,-8,-5,-1,-3
1558433640408161,1,2,6,3,11,10,5,1
1558433640408161,-2,-2,-6,-4,1,-1,0,-1
1558433640415119,-1,-1,4,4,4,5,1,-2
1558433640415119,-2,-1,0,-1,-3,-7,-6,-2
1558433640432072,-2,-2,-9,-7,-11,-5,-3,-1
1558433640432072,-1,0,3,-1,-4,-8,-7,-3
1558433640433069,1,-1,4,5,6,5,2,1
1558433640433069,-1,-1,-9,-4,8,6,7,6
1558433640445068,1,2,3,9,3,3,1,2
1558433640445068,-2,-2,-6,-9,3,1,-2,-2
1558433640454041,-4,-3,-7,-7,-16,-4,-6,-4
1558433640454041,0,0,5,0,-3,-4,-3,-3
1558433640468097,-1,-1,-6,-1,-1,-9,0,2
1558433640468097,-3,-3,-2,0,-1,3,4,-3
1558433640477046,1,1,7,4,6,0,0,2
1558433640477046,1,0,4,5,3,7,0,0
1558433640492005,-2,-3,5,0,-9,-4,-1,-3
1558433640492005,0,-1,-14,-7,-4,-3,-1,0
1558433640493009,-3,-2,0,-2,-1,0,-4,-3
1558433640493009,-1,0,3,5,-1,-5,-2,-2
1558433640504971,-1,-1,1,-4,1,-1,0,-2
1558433640504971,1,1,2,2,0,3,0,2
1558433640513945,-2,-1,-3,-8,-5,-9,-2,0
1558433640513945,0,0,3,4,0,-5,-4,0
1558433640527911,0,0,0,0,3,5,5,0
1558433640527911,0,-2,8,4,-2,2,0,-1
1558433640536884,-2,-4,-14,-3,1,3,-2,-1
1558433640536884,-5,-7,-7,-8,-11,-8,-9,-5
1558433640550943,-3,-3,-7,-8,-9,-6,-5,-3
1558433640550943,0,-1,0,3,0,-3,-1,0
1558433640558054,2,3,11,8,1,-6,-1,-1
1558433640558054,1,0,0,-2,-1,1,6,1
1558433640564942,-3,-5,-3,4,4,2,-4,-6
1558433640564942,0,-1,-2,-3,-12,0,-3,-3
1558433640574012,2,2,1,-4,4,1,2,2
1558433640574012,-4,-6,-10,-13,-8,-4,-2,-4
1558433640587974,-2,0,-6,-4,-2,-2,-3,0
1558433640587974,-3,-1,4,4,-1,-3,-6,-5
1558433640596856,0,1,4,3,1,-6,-3,1
1558433640596856,2,5,3,4,11,12,6,4
1558433640610848,-1,-1,-2,-2,-9,-6,-1,0
1558433640610848,-2,-1,0,-3,1,2,1,0
1558433640617830,-1,1,2,12,11,7,3,-2
1558433640617830,-3,-3,2,-10,-7,-4,-5,-2
1558433640625819,-1,-6,-18,-6,0,-5,-2,0
1558433640625819,0,0,3,0,8,6,5,2
1558433640634754,-2,-5,-10,-9,-16,-3,-5,-6
1558433640634754,4,4,13,14,8,-2,3,1
1558433640647719,0,2,3,2,3,-3,-2,-1
1558433640647719,-2,-3,-1,-2,5,2,3,1
1558433640656700,-1,0,5,8,-1,-1,0,-1
1558433640656700,-1,-2,-8,-11,-9,1,-3,-4
1558433640670699,-4,-5,-3,-4,-7,-3,-2,-2
1558433640670699,0,-3,-7,-10,-3,-12,-8,-1
1558433640677682,0,1,2,-1,4,5,4,1
1558433640677682,-2,-1,-4,1,0,-5,-1,-1
1558433640685655,2,4,4,-1,-1,-6,0,2
1558433640685655,-3,-3,2,4,-4,1,-3,-4
1558433640694599,-2,-2,-2,-5,-5,1,3,-3
1558433640694599,-1,-2,-3,2,8,4,0,-2
1558433640707599,0,2,7,9,3,4,4,1
1558433640707599,0,-1,-1,-4,-8,-7,-5,-1
1558433640716535,-1,-2,-3,-7,2,0,-2,-1
1558433640716535,-3,-6,-11,-2,-10,-8,-2,-2
1558433640731495,-1,-1,-5,-14,-2,-12,-8,0
1558433640731495,0,1,-2,3,3,10,7,3
1558433640737509,1,3,5,4,9,3,1,3
1558433640737509,-4,-3,0,2,-8,-4,-6,-3
1558433640754468,0,-2,0,1,-2,1,-4,-3
1558433640754468,-2,2,2,-4,-8,-12,-8,-4
1558433640755430,-1,-1,2,6,4,4,3,-1
1558433640755430,-1,-3,0,-4,1,2,1,-2
1558433640767431,0,3,4,3,-3,-5,2,2
1558433640767431,-1,-2,-2,-4,-2,-2,0,-2
1558433640777371,-2,-1,-3,-1,-2,-1,0,0
1558433640777371,0,2,4,4,-1,-2,0,0
1558433640791335,-2,-5,-10,-17,-7,3,-1,-4
1558433640791335,0,0,-2,-2,6,-3,-2,1
1558433640798320,-4,-6,-11,-2,0,2,-3,-3
1558433640798320,0,1,2,-1,-3,1,7,2
1558433640814273,-1,-1,5,8,4,0,2,0
1558433640814273,-1,-2,-4,0,-6,-2,-1,-2
1558433640815291,-1,1,-2,0,1,0,0,2
1558433640815291,0,3,8,3,-1,-6,-5,0
1558433640828302,-1,-3,-10,-6,-2,4,0,-2
1558433640828302,-1,-2,-4,-2,-1,-3,-3,-2
1558433640837211,2,1,5,7,-1,1,3,1
1558433640837211,-1,0,2,-8,4,0,-2,-2
1558433640851232,-2,-2,-3,-2,-10,-4,-2,-2
1558433640851232,0,-1,-5,-6,-1,2,5,4
1558433640858213,-2,-2,1,-5,-10,-5,-1,0
1558433640858213,2,2,5,10,19,12,5,2
1558433640874148,0,-1,3,-1,-3,-2,-6,-5
1558433640874148,-1,1,0,0,-3,1,-1,-1
1558433640876108,-4,-3,-9,-3,-4,-7,-4,-3
1558433640876108,-1,-1,-1,-1,-1,-2,1,-1
1558433640888123,1,1,0,5,5,-2,0,0
1558433640888123,0,-2,-4,0,7,8,4,0
1558433640897057,0,-1,4,2,-7,-8,-7,-3
1558433640897057,-2,-4,-13,-17,-7,-2,-1,-1
1558433640911017,1,2,6,4,6,9,2,1
1558433640911017,-1,-3,-6,0,0,-2,-5,-4
1558433640918004,-1,-2,-2,-6,-2,-2,-1,0
1558433640918004,-3,-2,-4,0,5,4,-1,0
1558433640933987,-1,-2,7,0,-4,1,2,-1
1558433640933987,1,-1,1,-1,-7,-11,-7,-3
1558433640935950,1,0,-2,3,8,10,5,0
1558433640935950,0,-2,1,-1,-11,0,0,-2
1558433640947916,-3,-3,-6,-9,-2,-10,-7,-3
1558433640947916,0,0,2,-2,-1,5,0,-1
1558433640956892,-2,-4,-7,-7,-4,-3,-1,-2
1558433640956892,1,2,3,4,-3,-6,0,-1
1558433640971051,-1,-2,-5,4,8,5,1,-1
1558433640971051,-2,-4,-2,-3,-7,-4,-2,-1
1558433640978029,1,3,5,7,1,-4,1,2
1558433640978029,-4,-4,-8,-23,-10,-7,-6,-3
1558433640994802,-1,-1,2,1,-8,-8,-4,1
1558433640994802,1,2,8,4,5,8,4,1
1558433640995788,-2,-5,-15,-7,2,6,4,-2
1558433640995788,-1,-3,-1,4,-5,-5,-2,-1
1558433641007898,2,1,3,6,1,1,1,0
1558433641007898,-2,-1,-3,-1,5,-2,1,1
1558433641016732,-1,-2,0,-5,-5,-1,-6,-4
1558433641016732,-1,0,-2,1,-4,2,3,1
1558433641030759,-2,-1,2,1,4,0,-3,-2
1558433641030759,-1,0,1,3,-2,-5,-4,-4
1558433641037743,0,-2,2,-5,-4,-5,-5,-5
1558433641037743,1,0,-5,5,11,12,9,2
1558433641054630,-1,0,2,4,-9,-13,-5,-1
1558433641054630,1,2,2,6,6,7,6,0
1558433641055631,-2,0,-1,-5,-1,-3,-8,-4
1558433641055631,0,-3,3,-2,-9,-9,-3,-1
1558433641067714,0,-4,-3,-4,0,7,5,0
1558433641067714,-3,-4,-2,1,0,-2,-2,0
1558433641076656,-1,-1,-2,3,2,4,3,1
1558433641076656,0,0,2,3,2,0,-3,-2
1558433641090620,-1,-1,-8,-5,5,3,4,1
1558433641090620,-2,-1,4,-1,-10,-4,0,-2
1558433641097599,0,-2,-4,-12,-9,-11,-6,-2
1558433641097599,-1,-2,3,6,-3,-4,-2,-1
1558433641114569,0,2,4,4,7,10,3,-2
1558433641114569,-4,-5,-2,-2,-5,-8,-6,-4
1558433641115551,-2,-2,-8,-6,-2,2,2,0
1558433641115551,-3,-1,-3,-5,-7,-7,-5,-5
1558433641127519,-2,-2,6,2,2,0,-1,-1
1558433641127519,0,-2,-9,-6,-1,-3,-1,0
1558433641136522,-1,1,3,3,-2,-5,-2,-2
1558433641136522,-3,-1,0,-3,1,-1,-5,-4
1558433641151587,0,-2,-6,0,2,-1,0,2
1558433641151587,-1,2,5,11,6,3,4,2
1558433641157437,-2,-1,-2,5,5,6,2,-1
1558433641157437,-3,-3,-11,-26,-15,-9,-9,-6
1558433641174542,-1,-3,-2,-3,1,1,-1,-3
1558433641174542,-2,-3,-7,-5,-5,-4,-4,-3
1558433641175536,1,-1,7,8,-2,-10,-3,3
1558433641175536,0,0,1,8,9,7,3,3
1558433641188449,-2,-2,-4,-5,-7,-1,-3,-4
1558433641188449,-3,-1,-4,-1,6,0,-3,-3
1558433641197364,-1,-1,3,-3,-2,1,-2,-2
1558433641197364,-3,0,0,1,2,-1,-4,-1
1558433641211442,1,-2,-2,1,-5,-7,-1,1
1558433641211442,-2,-3,-5,-13,4,8,3,0
1558433641218398,-1,-1,0,-2,-3,3,-1,-2
1558433641218398,2,2,2,5,12,2,4,4
1558433641234374,-4,2,2,4,-5,-3,-4,-2
1558433641234374,-2,-2,-3,-10,-4,1,-1,-2
1558433641235230,2,3,5,5,12,8,8,6
1558433641235230,-1,-5,-7,-1,0,0,-2,-3
1558433641248196,-3,-4,-1,-6,-11,-9,-5,-2
1558433641248196,1,2,4,3,-1,0,-2,0
1558433641257221,-2,-3,-13,-3,-5,0,1,-1
1558433641257221,0,2,9,13,2,5,4,-1
1558433641271166,2,3,0,-8,5,-4,-2,2
1558433641271166,-4,-4,-8,-4,-4,-4,0,-1
1558433641278117,3,1,6,2,2,1,2,-1
1558433641278117,-2,-1,0,3,-8,-3,-4,-3
1558433641294074,0,-1,2,2,-1,2,-1,0
1558433641294074,0,-1,-2,-7,-3,-1,1,2
1558433641296071,-3,-2,0,0,-3,-6,-4,-3
1558433641296071,-1,-2,-3,-3,9,0,-1,1
1558433641308072,-2,-1,0,0,-4,2,-2,-3
1558433641308072,-1,-1,-2,0,-5,1,-2,0
1558433641317015,1,-1,1,1,4,1,-3,-1
1558433641317015,-2,-3,-5,-4,2,3,0,-1
1558433641330974,-4,-2,-4,-2,-4,0,3,1
1558433641330974,3,1,1,7,5,2,3,-1
1558433641337987,-2,-1,2,-4,-6,-3,-2,-2
1558433641337987,2,0,3,1,1,-6,-2,-1
1558433641353943,-1,-2,-6,-2,-7,-6,-5,-5
1558433641353943,-3,-3,-5,1,-2,0,0,0
1558433641355909,-1,0,0,-2,-5,-6,-3,0
1558433641355909,-3,-3,-4,1,-3,0,-2,-2
1558433641367881,0,0,-1,2,7,8,5,2
1558433641367881,0,0,-2,-1,2,-2,-2,-1
1558433641376851,-3,0,1,-2,-6,-7,-6,-2
1558433641376851,-2,-1,0,-2,-4,0,-2,-1
1558433641390843,0,0,0,-3,-6,0,-4,-2
1558433641390843,-1,-2,-2,5,13,4,3,3
1558433641397799,0,0,-2,3,6,4,4,2
1558433641397799,0,1,0,-10,6,5,3,0
1558433641413754,-1,-1,-1,0,-7,-5,-3,-2
1558433641413754,-1,0,8,1,-12,-9,-8,-4
1558433641415749,-1,-2,-9,2,6,5,0,-1
1558433641415749,-1,0,-8,-6,-10,-13,-3,-1
1558433641436721,-2,-3,3,-1,3,-2,-2,-1
1558433641436721,-2,-3,-4,-5,-9,-1,-3,-3
1558433641437689,1,0,2,5,6,2,0,2
1558433641437689,-2,-2,0,2,-7,2,-2,-2
1558433641459665,0,-3,-7,-4,5,5,2,-1
1558433641459665,-2,-3,3,-3,-12,-9,-10,-6
1558433641460627,-3,-3,0,4,-8,-15,-4,-4
1558433641460627,3,1,-2,-8,11,8,3,5
1558433641474621,-2,-4,-3,-2,-2,-4,-2,-1
1558433641474621,0,-2,-1,0,4,4,2,-2
1558433641475591,1,-1,-2,-5,-5,2,-1,-2
1558433641475591,-3,-5,-3,2,-5,-8,-5,-3
1558433641487587,0,0,2,3,2,1,1,1
1558433641487587,0,0,-2,-1,2,3,-2,0
1558433641496566,-1,-3,-1,-6,-6,-2,0,0
1558433641496566,-1,-1,5,10,-6,-5,-2,-1
1558433641511528,-5,-2,-14,-12,-1,0,-3,-2
1558433641511528,0,0,2,1,2,-2,3,0
1558433641517504,-3,-2,-1,-5,-5,-1,-7,-3
1558433641517504,0,-2,-2,0,-3,7,5,2
1558433641533435,2,3,7,0,-2,-7,0,0
1558433641533435,0,-1,12,8,4,-2,0,-1
1558433641540444,-3,-6,-25,-13,-5,-5,-1,-2
1558433641540444,-3,-2,1,2,1,-9,-5,-2
1558433641547398,-1,-2,-1,-1,-3,-2,-4,-2
1558433641547398,1,1,1,-1,2,2,5,2
1558433641556669,-1,1,5,4,1,1,1,-1
1558433641556669,-2,-2,-4,-1,0,-2,0,-2
1558433641571676,0,-1,-2,-3,-3,-3,-1,-2
1558433641571676,-4,-2,-5,0,-9,-4,-2,0
1558433641578658,0,2,5,4,4,5,-1,-1
1558433641578658,-1,0,-3,1,0,3,3,0
1558433641594308,1,3,9,7,7,-5,1,2
1558433641594308,-3,-4,-11,-7,-1,-2,-3,-3
1558433641600572,-6,-8,-17,-10,-5,-1,-3,-5
1558433641600572,-1,0,1,-3,-7,-6,-7,-7
1558433641617439,-2,-3,-2,6,0,3,-3,-3
1558433641617439,6,5,10,5,7,-9,7,7
1558433641618206,-2,1,8,2,3,4,-2,-3
1558433641618206,-2,-3,-12,0,1,2,1,-1
1558433641631172,0,-5,-10,-12,-9,-4,-4,-2
1558433641631172,-2,-1,-4,-4,-1,-1,-7,-6
1558433641638154,-1,1,6,-1,1,3,1,0
1558433641638154,0,2,7,14,7,3,0,0
1558433641653449,-3,-2,4,0,-4,-1,0,-2
1558433641653449,-1,-3,-8,-7,0,-1,-4,-2
1558433641662091,-2,-3,-8,0,-3,-3,0,-2
1558433641662091,0,-1,1,-5,-8,-7,-4,-1
1558433641668546,-2,-3,-11,2,0,-4,-1,-2
1558433641668546,-1,-1,6,3,5,2,-1,1
1558433641677049,2,-1,4,-3,3,1,2,0
1558433641677049,0,-1,-4,0,1,4,4,3
1558433641691012,0,2,1,-5,-7,-4,0,2
1558433641691012,-3,-2,-2,-4,-6,-7,-4,-4
1558433641697996,-1,0,1,-3,-9,-5,-4,-1
1558433641697996,0,0,-2,-2,3,3,-3,0
1558433641714233,2,2,8,7,9,2,5,4
1558433641714233,-3,-4,-11,-16,-9,-2,-4,-3
1558433641720204,-1,-2,-3,-2,-6,-8,-5,-1
1558433641720204,1,-1,2,-7,-2,1,1,1
1558433641736891,1,1,-6,-1,4,8,4,4
1558433641736891,1,0,0,5,4,5,1,0
1558433641737886,-1,-1,4,3,2,-5,0,0
1558433641737886,-1,0,-1,-1,-8,-7,-6,-3
1558433641750854,-3,-5,-3,-1,1,0,-3,-2
1558433641750854,0,1,2,3,3,7,3,0
1558433641758086,1,-1,-2,-5,-5,-3,2,1
1558433641758086,0,0,6,10,7,-1,-2,0
1558433641774049,-3,-3,-7,-10,-7,-3,-2,-5
1558433641774049,-2,-1,-5,2,0,1,2,-1
1558433641780772,-1,0,9,7,-5,-11,-6,-2
1558433641780772,-2,-3,-14,-11,2,5,3,-1
1558433641796997,-2,0,5,5,2,7,3,0
1558433641796997,0,1,2,-1,5,2,0,1
1558433641797726,-2,0,0,2,-1,-2,2,0
1558433641797726,-2,-3,-5,1,-7,-7,-4,-1
1558433641810947,-1,-3,-7,-4,8,4,-2,-2
1558433641810947,-2,-3,-1,0,-14,-5,-1,-2
1558433641817959,0,1,-1,2,10,8,0,0
1558433641817959,0,0,6,5,-3,-6,-3,-4
1558433641833868,2,1,1,-4,-2,-4,-1,2
1558433641833868,-3,-5,-7,1,3,-3,-5,-2
1558433641840881,0,-1,4,0,0,5,0,0
1558433641840881,-1,-4,-14,-11,-2,-9,-1,-1
1558433641856570,-1,-1,3,0,-12,-3,-2,-3
1558433641856570,1,2,7,6,9,-3,-2,2
1558433641858563,1,-2,2,3,0,-1,1,0
1558433641858563,-3,-3,3,-3,-4,4,1,-2
1558433641871532,-1,-2,-3,-3,-5,-8,-3,-1
1558433641871532,0,0,-4,4,-6,-5,-2,-3
1558433641878675,1,0,-4,-8,9,9,5,3
1558433641878675,-1,-1,3,3,2,-2,-3,0
1558433641893734,-1,-1,-1,0,0,3,0,-2
1558433641893734,-4,-5,-8,-5,-3,-1,-8,-3
1558433641900460,1,1,2,2,3,4,7,3
1558433641900460,-2,-1,1,1,-1,0,-2,-2
1558433641917469,-4,-5,-8,-2,-5,-6,-5,-2
1558433641917469,-2,-1,1,-1,1,-1,0,0
1558433641918408,-3,-5,-4,-8,-8,-5,-5,-5
1558433641918408,2,3,-1,1,6,3,2,0
1558433641931379,-2,-1,-3,3,7,1,-2,-2
1558433641931379,-1,-2,-2,1,-6,2,5,1
1558433641938612,0,1,-3,4,7,11,3,0
1558433641938612,-4,-3,-2,-3,-6,0,1,-2
1558433641953555,0,1,6,-1,1,0,-1,0
1558433641953555,1,1,-2,-1,0,-5,-3,-2
1558433641960291,-2,-3,-15,-9,-6,-10,-11,-2
1558433641960291,-3,-3,1,0,-9,-2,-2,-2
1558433641976249,3,3,-1,3,11,8,7,3
1558433641976249,0,2,7,2,7,8,4,1
1558433641978243,0,-2,-7,-2,-12,-11,-5,-2
1558433641978243,-1,-4,-3,-8,-2,-2,-5,-1
1558433641991209,0,-3,-1,-2,-4,-8,-2,-1
1558433641991209,2,1,-1,-4,-7,-5,0,-1
1558433641998189,-3,-4,3,5,3,0,-4,-2
1558433641998189,-1,1,3,0,-3,-2,-1,-1
1558433642014297,-4,-5,-9,-13,-12,-2,0,-1
1558433642014297,1,2,7,10,9,1,-1,-2
1558433642020474,0,0,-2,-2,5,10,2,2
1558433642020474,-1,-1,-2,0,4,4,1,1
1558433642037532,-2,-1,3,0,-4,-8,-4,-1
1558433642037532,-2,-3,-2,-1,-2,1,0,0
1558433642038083,-2,-1,-4,-4,-4,-10,-3,-3
1558433642038083,-1,-1,-7,-7,-10,-7,-4,-3
1558433642051385,2,3,4,10,10,8,7,2
1558433642051385,-1,-5,-5,-6,7,6,2,2
1558433642058381,-2,-4,1,-2,1,1,2,-1
1558433642058381,0,0,-3,-7,-6,-1,0,-2
1558433642074329,-3,-2,-5,-1,-8,-4,-4,-4
1558433642074329,-1,-1,-1,-1,-4,-6,-5,-3
1558433642080974,0,1,6,9,6,3,2,0
1558433642080974,0,-4,-2,-4,-6,-6,-3,-1
1558433642096926,0,-1,-1,-1,4,3,-2,-3
1558433642096926,0,0,-2,-6,-15,-10,1,2
1558433642097924,-2,-3,0,-2,-5,-2,0,-2
1558433642097924,0,0,-3,2,10,9,2,1
1558433642111972,-1,-1,2,1,-5,1,-1,-1
1558433642111972,-2,-2,-11,-11,-7,-4,-5,-3
1558433642118218,-2,-3,-4,-5,-6,-5,-1,-1
1558433642118218,0,2,5,9,4,-4,-2,1
1558433642134225,-4,-4,-4,-12,-3,4,0,-2
1558433642134225,1,1,3,3,7,-1,1,0
1558433642140809,1,-1,0,0,-3,0,0,1
1558433642140809,-4,-3,-3,-1,2,3,-3,-4
1558433642156765,1,1,5,8,7,6,4,3
1558433642156765,0,1,-2,0,-3,-8,-3,1
1558433642157762,-2,-2,-3,-4,-1,-4,-4,-4
1558433642157762,0,-2,3,1,-8,-3,-3,-2
1558433642170728,0,0,0,1,0,0,0,0
1558433642170728,-2,-3,-7,-5,-8,-8,-1,-1
1558433642178710,-2,-1,-1,2,1,0,-5,-3
1558433642178710,0,-1,0,-5,-2,0,5,1
1558433642194111,-3,-2,0,-5,-8,-5,-4,-1
1558433642194111,-4,-1,0,1,1,1,-1,1
1558433642201113,0,0,1,5,0,2,2,1
1558433642201113,-1,-3,-6,-17,-11,-9,-4,-3
1558433642217640,-1,0,-4,-7,-3,-11,-4,-2
1558433642217640,1,-1,4,5,5,6,4,1
1558433642218602,-2,-4,-2,-6,1,-1,-1,-1
1558433642218602,-2,-3,-4,-1,-2,3,1,0
1558433642231564,3,2,5,8,6,0,2,3
1558433642231564,-3,-3,-5,-4,-5,-9,-8,-4
1558433642246931,-1,1,-3,-5,-2,-5,-2,-3
1558433642246931,-2,0,2,9,3,1,-2,1
1558433642253987,-3,-1,-5,-8,-8,-3,-5,-4
1558433642253987,0,-1,3,3,4,10,3,0
1558433642261076,2,2,4,4,10,6,10,6
1558433642261076,-1,-1,-1,1,-3,-4,-4,-1
1558433642277146,-4,-2,-1,3,-1,4,1,-1
1558433642277146,0,-2,0,-2,-8,-6,-5,-3
1558433642278839,0,-1,-3,-6,-5,-4,-4,0
1558433642278839,2,1,2,-2,6,1,1,2
1558433642291054,-1,0,1,2,3,1,-1,2
1558433642291054,-2,-4,-2,-1,-6,0,-5,-3
1558433642298755,-1,1,3,6,7,4,3,4
1558433642298755,3,-1,-2,-2,-7,-4,0,2
1558433642314000,3,-1,-2,0,5,-2,-2,-1
1558433642314000,0,-1,-1,-4,-8,-5,-1,-1
1558433642320740,-3,0,0,-3,-9,-8,-4,-5
1558433642320740,0,1,2,1,5,4,0,2
1558433642336927,-1,0,1,-4,-13,-10,-5,-2
1558433642336927,-1,0,-2,2,1,-13,-2,2
1558433642338791,-2,-4,-6,-4,-1,0,0,-1
1558433642338791,0,2,3,3,9,4,1,1
1558433642350615,-3,-5,-4,0,0,5,0,-3
1558433642350615,-4,-1,-2,-7,-4,2,-1,-4
1558433642359597,-1,0,2,4,-4,-3,1,0
1558433642359597,-2,0,-3,-2,-1,-7,-4,-3
1558433642373554,-1,-1,-2,1,6,6,3,0
1558433642373554,-2,-4,-2,0,-7,-9,-5,-6
1558433642380818,2,0,2,0,7,0,-1,-1
1558433642380818,1,0,6,8,7,9,3,0
1558433642397491,-2,-3,-9,-10,-4,-3,-4,-1
1558433642397491,-2,-1,-4,-5,-1,7,3,-1
1558433642398489,2,2,4,2,-2,-4,-3,-1
1558433642398489,-5,-5,-7,-5,-13,-14,-9,-6
1558433642410725,0,-2,-2,5,5,5,4,3
1558433642410725,1,1,1,-1,5,1,-2,-1
1558433642419433,-1,-2,-2,-3,1,-3,-4,-3
1558433642419433,0,1,5,9,2,4,5,4
1558433642433660,1,1,1,-5,4,6,2,-1
1558433642433660,-5,-4,-6,-6,-10,-1,-5,-3
1558433642447534,0,0,2,1,2,1,3,-1
1558433642447534,-2,-4,-8,-9,0,5,3,0
1558433642456580,-1,0,-1,2,-1,-6,-5,-1
1558433642456580,1,2,6,0,7,8,6,3
1558433642463497,-4,-4,-4,2,-12,-5,-6,-5
1558433642463497,-2,-2,-1,4,0,1,-2,-4
1558433642470532,-2,-2,-6,-20,-10,-16,-2,-1
1558433642470532,0,1,4,4,6,4,4,0
1558433642479303,-2,-3,-7,-4,-5,-1,-4,-3
1558433642479303,-2,-4,-5,-5,-2,-2,-4,-4
1558433642493498,-1,1,6,8,-7,-7,0,-2
1558433642493498,-2,0,0,2,3,1,-1,-1
1558433642500454,-2,-1,-5,-4,2,1,2,1
1558433642500454,-1,-3,-4,-3,-4,-5,-4,-1
1558433642516175,0,-1,1,4,3,9,3,-3
1558433642516175,-2,-4,-8,-18,-5,-3,-2,-3
1558433642523431,-2,-2,0,-5,-11,-7,-6,-2
1558433642523431,1,3,6,5,4,-4,0,-1
1558433642530400,-3,-4,-6,3,1,-1,-5,-4
1558433642530400,0,1,3,7,5,9,7,2
1558433642539206,-1,-1,5,1,5,9,5,1
1558433642539206,-3,-4,-14,-11,-7,-4,-4,-4
1558433642553073,-1,-1,-4,-1,-3,-6,-3,0
1558433642553073,0,0,-1,1,-7,-11,-4,-2
1558433642561085,-1,-2,4,1,-6,-3,-2,-3
1558433642561085,-1,-1,-1,-3,7,2,3,1
1558433642576013,-1,-2,-3,-1,6,10,1,1
1558433642576013,-1,-2,2,6,5,8,3,2
1558433642582993,-1,0,-3,-2,-5,-9,-5,1
1558433642582993,-1,0,5,-1,-3,4,3,-1
1558433642591204,-1,-4,-10,-2,-8,-15,-8,-3
1558433642591204,1,1,-2,-2,6,6,3,1
1558433642598950,1,-3,-5,3,5,3,1,2
1558433642598950,-3,0,3,3,0,2,2,-1
1558433642614244,0,1,-2,-2,-2,-3,1,1
1558433642614244,1,0,1,5,-4,-3,-1,0
1558433642620242,-2,-2,-9,-6,1,-1,-4,-3
1558433642620242,-2,-1,1,-6,-4,-1,-3,0
1558433642636199,-3,1,3,2,-10,-2,1,-1
1558433642636199,-1,-1,2,4,1,-4,-5,-2
1558433642643170,0,2,0,-4,3,4,1,1
1558433642643170,-1,-1,-1,-12,-9,-7,-4,-1
1558433642659539,0,-2,1,1,2,7,1,-1
1558433642659539,-1,0,4,-6,-7,-5,-2,-1
1558433642661391,-3,-5,-12,1,2,3,1,-2
1558433642661391,-1,0,0,6,1,0,4,2
1558433642674390,0,1,0,3,13,6,-1,0
1558433642674390,-6,-5,-7,-6,-5,-1,-3,-4
1558433642680462,1,3,6,4,-3,-10,-7,-1
1558433642680462,2,4,11,14,4,4,4,1
1558433642696419,-3,-6,-23,-32,-16,-9,-8,-4
1558433642696419,0,-2,-9,-1,1,7,3,0
1558433642703411,-1,-1,1,1,7,7,3,1
1558433642703411,-1,-1,1,2,-1,0,-1,-1
1558433642719353,3,1,12,12,-3,-1,3,2
1558433642719353,-2,0,-2,0,-1,-7,-4,-1
1558433642721055,-5,-5,-9,-14,-7,2,-2,-6
1558433642721055,-2,1,0,1,7,3,-3,-2
1558433642733304,0,-2,5,6,-5,-11,-6,1
1558433642733304,-1,0,-1,-2,1,8,4,-1
1558433642741164,-1,-1,4,7,3,-2,-2,0
1558433642741164,-2,-4,-12,-5,-4,2,2,1
1558433642755936,0,1,6,1,2,-2,-3,-2
1558433642755936,-3,-5,-5,-4,-9,-5,-6,-3
1558433642763230,3,3,4,0,-2,-3,-1,-1
1558433642763230,1,-2,-4,-2,1,-1,-1,-3
1558433642778871,-1,-1,0,5,-2,1,1,-2
1558433642778871,-2,0,1,-15,2,-3,-2,0
1558433642780867,-1,-1,-1,-2,-8,-6,-4,-1
1558433642780867,-2,-1,0,1,-1,-2,-2,-2
1558433642793834,-1,1,2,1,1,7,3,0
1558433642793834,1,3,5,5,8,-7,-1,2
1558433642801266,-4,-5,-10,-10,-7,-5,-3,-4
1558433642801266,-1,-1,-3,-1,2,-1,-2,1
1558433642815773,-3,-1,-3,4,3,5,-1,-3
1558433642815773,-2,-2,0,-5,-13,-1,-2,-4
1558433642822756,2,4,9,14,7,-4,3,4
1558433642822756,-3,-4,-11,-21,0,-1,-4,-3
1558433642839948,-1,-1,6,-1,-6,-4,-2,-2
1558433642839948,-2,-3,-7,-5,-3,2,-2,-1
1558433642840708,-1,0,-1,2,3,-3,-5,-2
1558433642840708,0,0,4,9,5,0,0,-2
1558433642854038,-2,0,-1,-14,-3,1,0,1
1558433642854038,-1,-3,-3,0,-3,2,0,0
1558433642861014,0,0,-1,-2,-4,-8,-3,-1
1558433642861014,-2,-1,3,7,2,1,-1,0
1558433642876955,-2,0,-3,-3,3,2,2,-3
1558433642876955,1,-1,2,11,-6,-6,0,-3
1558433642883730,2,0,-2,0,5,6,5,4
1558433642883730,0,0,1,-13,-11,-5,-2,0
1558433642899854,-5,-4,-1,3,2,-3,-3,-3
1558433642899854,-2,0,-1,-2,2,9,2,-1
1558433642900547,-3,-1,-4,-2,-8,-8,0,0
1558433642900547,-2,-1,2,2,0,-4,-2,-2
1558433642913825,-1,-1,-5,-3,-6,-5,-2,-2
1558433642913825,-2,-1,6,6,1,-1,-5,-4
1558433642920595,-4,-1,-4,-6,-8,1,-6,-7
1558433642920595,3,1,-1,-2,0,4,3,1
1558433642936779,2,2,4,7,10,2,5,4
1558433642936779,-1,-1,-3,-1,3,-5,-2,0
1558433642943631,-1,-2,0,-2,-3,5,0,-1
1558433642943631,-2,0,-1,10,-7,-9,-7,-4
1558433642959391,-1,-3,-4,-18,-11,-9,-9,-4
1558433642959391,-2,-3,-2,0,8,12,7,2
1558433642960386,-1,-2,0,0,8,6,5,1
1558433642960386,0,-2,-4,1,2,0,0,-1
1558433642973351,-1,0,1,6,-3,-7,-5,-3
1558433642973351,1,1,1,3,3,5,4,3
1558433642980714,-2,-2,-3,-9,-4,1,0,-1
1558433642980714,-2,-5,-1,3,-7,-8,-4,-3
1558433642996709,2,2,-4,-7,2,0,2,2
1558433642996709,-1,-2,-6,-6,-2,-4,-5,-3
1558433643003714,1,-1,2,2,-7,2,1,0
1558433643003714,0,1,4,2,4,-4,-1,1
1558433643019228,-3,-1,9,8,1,3,-2,-3
1558433643019228,0,-1,-11,-4,-8,0,-1,-2
1558433643020225,-1,-3,-5,-6,1,-1,-2,-1
1558433643020225,-2,0,-2,-5,-5,-1,-1,-2
1558433643033192,-1,-2,3,3,-1,-6,-1,2
1558433643033192,-3,-3,3,-1,-6,-4,-5,-3
1558433643040172,2,2,-1,6,10,6,3,1
1558433643040172,-2,-4,-10,-8,-5,-4,-2,-2
1558433643056128,0,1,3,8,9,10,6,1
1558433643056128,-2,-2,-5,-4,-4,-7,-3,-1
1558433643063110,-2,-1,4,-2,-6,-9,-1,1
1558433643063110,-1,-3,-3,-1,0,4,0,-1
1558433643079067,-1,-2,-3,1,0,5,1,-3
1558433643079067,-2,1,7,5,-5,-10,-4,0
1558433643081063,2,1,-4,-7,1,-2,-1,0
1558433643081063,-1,-1,-2,-8,-2,3,0,-1
1558433643093088,0,-3,-2,-4,-9,-9,-2,0
1558433643093088,1,-1,-5,2,1,1,0,-2
1558433643100038,-1,-3,2,0,-5,-4,-3,-2
1558433643100038,1,3,3,4,8,2,1,1
1558433643115969,0,-4,-9,-5,-4,-3,2,-1
1558433643115969,0,1,3,0,2,-4,-2,1
1558433643122990,1,0,6,7,-1,0,-3,-2
1558433643122990,0,1,-4,-4,-8,-5,-5,1
1558433643138909,-1,1,2,4,4,8,4,1
1558433643138909,-1,-1,-5,-6,1,1,0,0
1558433643140904,-2,0,0,-4,-7,-1,-4,-3
1558433643140904,0,-2,4,11,1,-3,0,-1
1558433643152872,-2,-2,-9,-12,-2,-3,-5,-3
1558433643152872,-1,-2,-3,-4,-2,-2,3,0
1558433643161847,1,1,3,3,7,7,1,2
1558433643161847,-2,-1,4,2,-1,-2,-2,1
1558433643175844,1,3,7,2,-1,-4,-3,0
1558433643175844,-4,-7,-15,-9,-6,-2,-3,-4
1558433643182792,0,-2,-2,-1,-3,4,0,-3
1558433643182792,-3,-1,-4,-4,-5,-4,-5,-4
1558433643198749,3,2,5,8,5,6,7,5
1558433643198749,0,1,0,-12,5,0,-1,0
1558433643200743,-5,-4,-1,0,-4,-2,-3,-3
1558433643200743,-1,-4,-4,-5,-2,-4,-3,-2
1558433643212712,1,2,7,4,-2,0,-3,0
1558433643212712,-2,-3,-10,3,-1,-2,1,0
1558433643221687,-2,-4,-5,-6,2,2,2,0
1558433643221687,-2,-1,1,-5,0,-3,-1,-3
1558433643235651,-4,-3,-11,-7,-6,-8,-4,-4
1558433643235651,1,3,8,12,5,4,2,0
1558433643242631,0,-1,-3,-9,1,-5,2,0
1558433643242631,-2,-3,0,3,-1,-2,-4,-2
1558433643259585,0,-1,-3,-3,-3,2,4,1
1558433643259585,-2,1,4,0,-3,-3,-5,-2
1558433643260583,-3,-3,-2,10,12,6,-1,-3
1558433643260583,-1,0,0,-16,-10,1,1,1
1558433643272552,0,-1,-3,-3,3,1,-2,0
1558433643272552,0,-4,-6,-3,-13,-3,-2,-1
1558433643281528,2,4,1,3,4,-6,0,1
1558433643281528,0,1,1,4,12,0,2,1
1558433643296486,-3,-2,1,-1,-4,2,-4,-5
1558433643296486,0,1,10,7,2,1,0,1
1558433643302470,-2,-2,-1,-6,-6,0,-2,-2
1558433643302470,-2,-4,-15,-12,-6,-2,-2,-2
1558433643319427,-1,-1,0,-1,-7,-11,-5,-2
1558433643319427,1,0,4,5,7,4,1,-3
1558433643320422,-5,-5,-2,-2,-9,-5,-5,-4
1558433643320422,2,0,-7,0,-1,4,6,2
1558433643332392,-3,-1,4,1,1,-9,-5,-2
1558433643332392,-5,-5,-7,-11,-8,-8,-3,-2
1558433643341367,0,3,4,0,1,3,1,0
1558433643341367,-2,-4,-3,-2,-4,-2,-6,-4
1558433643356325,-3,-1,1,4,6,6,1,-1
1558433643356325,0,1,3,1,-1,-6,-4,-1
1558433643362312,-4,-6,-8,-11,-14,-8,-3,-2
1558433643362312,1,3,8,19,19,15,6,3
1558433643378268,0,-1,-8,-18,-4,-1,-2,-3
1558433643378268,-2,-2,1,-4,-6,-1,0,-2
1558433643385249,2,3,1,2,7,-1,0,2
1558433643385249,-2,-3,-8,-1,-8,-7,-6,-2
1558433643393227,1,-2,-5,3,3,1,-1,-1
1558433643393227,-2,0,-4,-2,0,0,2,1
1558433643401241,0,1,2,-1,-4,-7,-1,0
1558433643401241,-1,-1,11,2,4,1,0,1
1558433643416166,-4,-5,-13,-4,-9,-1,-2,-1
1558433643416166,0,-1,0,-1,4,6,0,-1
1558433643423174,0,0,0,2,-5,-2,-3,-1
1558433643423174,-2,-2,-9,-6,-4,-7,-4,0
1558433643438108,2,1,6,3,1,0,3,2
1558433643438108,-1,-2,-2,6,-4,-6,-3,-2
1558433643445088,0,-2,-4,-10,2,-1,2,3
1558433643445088,-1,-1,-1,-11,-11,3,0,-3
1558433643453105,-3,-2,-11,-7,-8,5,-3,-1
1558433643453105,-1,-2,-3,6,4,-14,-4,2
1558433643462043,2,2,4,8,5,-2,-2,-1
1558433643462043,-1,0,0,-1,-1,-1,-1,-1
1558433643476056,0,-1,-1,2,-3,-4,-2,-4
1558433643476056,-1,-2,1,-5,0,6,1,-2
1558433643482987,0,1,1,0,2,2,0,1
1558433643482987,2,1,5,0,-7,-4,2,1
1558433643498946,-1,-2,-3,1,5,1,1,0
1558433643498946,-1,-1,2,-3,-3,0,-3,-2
1558433643504932,-1,-2,-3,1,-10,-7,-3,-2
1558433643504932,-1,-3,-4,-12,1,1,0,0
1558433643512906,0,1,4,5,2,3,1,0
1558433643512906,0,0,-1,-6,-2,-3,-3,-1
1558433643521884,-3,-3,-4,4,3,3,-1,-3
1558433643521884,-3,0,1,6,-4,-5,-2,-2
1558433643535845,-2,-3,-1,-12,-8,-7,-3,-1
1558433643535845,0,2,5,3,13,6,7,4
1558433643542827,-3,-1,-2,-2,-9,-3,-3,-3
1558433643542827,-2,-3,-5,0,-4,-4,-5,-4
1558433643558785,1,2,8,2,9,5,0,1
1558433643558785,-3,-4,-5,2,5,5,1,-1
1558433643564769,0,-3,1,2,-3,-2,-3,-1
1558433643564769,-3,-3,-7,-9,-2,2,0,-1
1558433643581723,2,1,6,5,0,-1,8,5
1558433643581723,-1,0,1,0,-1,0,-3,-2
1558433643582721,-1,-1,-3,-2,2,-3,-2,0
1558433643582721,0,0,-1,3,1,6,0,0
1558433643595686,-5,-6,-7,-4,-7,-3,-7,-5
1558433643595686,1,1,-1,-2,8,1,1,3
1558433643602667,-1,-2,-9,-6,0,-4,1,0
1558433643602667,1,2,12,9,-1,-2,-2,-2
1558433643618625,-3,-2,-6,-3,-1,0,-1,0
1558433643618625,0,2,12,4,-7,-1,-3,-3
1558433643625606,-3,-6,-23,-11,-1,-3,-3,-2
1558433643625606,2,0,4,4,3,1,1,1
1558433643641563,-3,-3,-4,4,3,2,-2,-2
1558433643641563,-1,0,3,-6,-4,0,0,-2
1558433643642561,-2,-2,2,-2,-6,0,-3,-2
1558433643642561,-1,0,2,4,8,4,6,4
1558433643655526,1,1,-3,-2,-6,-3,-5,-2
1558433643655526,-2,1,4,4,-1,-6,-1,0
1558433643662506,-1,-1,-2,-3,4,6,1,-1
1558433643662506,-3,-2,-8,-6,-10,-6,-4,0
1558433643678464,0,1,6,5,7,2,1,2
1558433643678464,0,-4,-12,-9,-3,-2,-3,-2
1558433643685446,-1,-1,2,2,-5,1,1,-1
1558433643685446,-1,0,1,-7,2,-2,-2,-2
1558433643701402,-1,-4,-10,-9,-8,-4,-4,-3
1558433643701402,-1,-2,0,7,1,0,1,1
1558433643703397,1,2,5,-6,2,-5,-2,1
1558433643703397,-2,-3,-4,6,1,1,1,-2
1558433643716362,-2,-3,-4,-3,-6,-8,0,-2
1558433643716362,-3,-2,-7,-6,-5,1,-5,-5
1558433643722347,-2,-2,6,9,0,5,2,0
1558433643722347,0,1,2,4,5,3,3,1
1558433643738305,0,2,3,-1,4,-2,-3,-1
1558433643738305,-3,-4,-5,-1,-5,-3,-2,-2
1558433643745286,-1,1,4,-1,-5,-5,-3,0
1558433643745286,-3,-4,-3,-5,1,-3,-4,-4
1558433643761242,-2,-3,-6,0,-1,3,1,-4
1558433643761242,0,1,0,-1,5,5,0,-2
1558433643763237,-2,-3,-1,8,-1,-5,-2,-2
1558433643763237,-1,-3,-5,-1,0,0,-1,-2
1558433643776202,-2,0,8,-9,-11,-4,-1,1
1558433643776202,1,0,-7,-2,1,3,2,2
1558433643782187,1,-1,0,-1,-1,-2,1,0
1558433643782187,-3,-2,2,5,1,1,-3,-1
1558433643798146,-3,-1,0,4,-3,-4,-3,-2
1558433643798146,0,-2,-3,-3,-2,-1,-1,0
1558433643805125,-1,-1,-1,-5,1,0,-1,-1
1558433643805125,-3,0,-1,-2,-12,-12,-4,-2
1558433643822081,2,3,8,7,3,-1,0,1
1558433643822081,-4,-6,-11,-7,-3,-1,-1,-1
1558433643823093,0,0,0,0,4,8,-1,-1
1558433643823093,0,1,0,6,4,0,0,1
1558433643836043,-4,-4,-4,-6,1,-1,-1,-2
1558433643836043,0,4,19,15,-6,-6,-5,-2
1558433643843024,-4,-8,-37,-22,-3,2,-5,-6
1558433643843024,1,0,5,-5,-6,4,4,0
1558433643857986,-1,-3,-9,4,5,-8,-5,-1
1558433643857986,1,1,7,1,4,3,2,2
1558433643864969,-2,4,11,5,-4,-2,4,0
1558433643864969,-4,-3,-8,-10,-6,1,-3,-6
1558433643881920,3,1,4,5,5,0,5,4
1558433643881920,-2,-2,-3,-3,2,5,2,-1
1558433643882918,1,0,9,9,-3,-5,-4,-2
1558433643882918,-1,-4,-11,-7,4,0,-2,1
1558433643894887,-3,-2,-2,-1,-8,-2,-5,-4
1558433643894887,0,-1,-4,-5,-8,-7,-3,0
1558433643903863,-1,1,0,-4,6,2,1,2
1558433643903863,-2,1,8,-2,-10,-6,-1,-3
1558433643918823,-2,-4,-3,-2,-1,-1,-4,-2
1558433643918823,0,-1,-5,0,3,0,1,0
1558433643924807,1,1,3,3,0,0,-1,-1
1558433643924807,2,-1,2,4,4,-3,-5,0
1558433643941760,-1,-4,-6,-8,-5,4,0,-2
1558433643941760,1,-1,-3,-2,-5,-2,3,-1
1558433643942758,-1,-1,8,1,-3,-3,-1,-3
1558433643942758,-2,-2,-10,-1,2,6,2,2
1558433643955723,0,3,9,9,4,0,-2,-2
1558433643955723,-3,-4,-8,-7,1,0,-2,-3
1558433643962704,0,-3,-2,-6,-9,-7,-3,-2
1558433643962704,1,-1,6,14,5,-1,-1,1
1558433643978665,2,2,2,-4,2,-1,2,2
1558433643978665,-2,-2,-8,-10,-9,-5,-5,1
1558433643985646,-1,-2,-7,-2,1,4,-1,-1
1558433643985646,-2,0,2,-2,-6,-5,-4,-4
1558433644001602,1,1,8,8,-1,-5,-1,0
1558433644001602,0,1,-3,-6,5,8,1,0
1558433644003600,-3,-5,-10,-6,-2,-2,0,0
1558433644003600,1,0,0,-4,-3,-3,-2,-1
1558433644015563,0,0,4,-1,0,0,0,2
1558433644015563,1,1,7,7,8,1,-1,1
1558433644022546,-1,-2,-5,-4,-6,-4,-2,-2
1558433644022546,-1,-1,-8,-15,-1,-3,-1,-1
1558433644038530,1,1,2,3,8,8,2,3
1558433644038530,-2,-1,-3,-2,-6,-2,-3,-5
1558433644045483,-1,-1,-6,-3,4,2,0,-1
1558433644045483,-4,-2,-1,-1,-6,-3,-2,-4
1558433644061440,-2,-1,-5,-6,-8,0,-2,-4
1558433644061440,-1,-1,-1,11,9,-4,1,0
1558433644063441,0,2,9,7,1,-3,-1,1
1558433644063441,-3,-2,-2,-11,-8,-7,1,-3
1558433644075404,-3,-2,-11,-9,-6,0,1,-1
1558433644075404,1,1,9,3,-7,-10,-2,-1
1558433644084380,-2,-3,-1,10,5,0,-4,-3
1558433644084380,0,3,11,3,0,6,0,2
1558433644098342,-1,-2,-17,-9,8,4,1,-2
1558433644098342,-4,-8,-14,-14,-11,-4,-2,-4
1558433644105323,-1,3,5,2,-2,-7,-5,-1
1558433644105323,0,-3,1,9,4,-1,-3,-3
1558433644121280,2,-1,7,8,4,7,2,2
1558433644121280,1,0,0,-3,5,6,1,2
1558433644123276,-3,-8,-20,-20,-4,-1,0,-1
1558433644123276,2,3,0,3,3,-2,-2,-1
1558433644135244,-2,2,6,7,-6,-3,-2,-2
1558433644135244,0,1,-2,-17,-11,-16,-9,-1
1558433644144239,-2,-2,2,-3,-9,5,6,3
1558433644144239,-1,-6,-24,-8,3,2,1,-1
1558433644158182,4,5,14,1,1,-3,2,1
1558433644158182,-7,-10,-16,0,0,1,0,-5
1558433644165164,1,2,5,7,11,1,1,-2
1558433644165164,-3,1,0,-4,-22,-10,-6,-1
1558433644182121,1,2,10,6,3,5,2,1
1558433644182121,-3,-3,3,1,3,-1,-6,-2
1558433644183119,3,3,1,2,-5,-7,4,1
1558433644183119,-2,-2,8,17,17,10,0,0
1558433644195083,-4,-3,-10,-16,-12,-10,-4,-2
1558433644195083,-5,-6,-7,-9,-4,-3,-10,-7
1558433644204059,-4,-3,-3,-1,-4,2,1,-4
1558433644204059,1,3,14,8,-4,-5,-1,-2
1558433644218021,-1,1,-14,-4,5,-1,-1,-2
1558433644218021,0,1,-6,5,5,11,4,-1
1558433644225003,-5,-9,-10,-12,-11,-15,-8,-4
1558433644225003,4,3,10,10,12,8,9,4
1558433644241958,-3,-6,-18,-17,-8,-8,0,1
1558433644241958,5,8,25,13,15,0,3,-1
1558433644242956,2,0,-3,-9,-7,3,-3,-1
1558433644242956,-5,-11,-32,-25,-6,3,-1,-1
1558433644254924,-4,-5,3,-3,-2,-5,-7,-4
1558433644254924,1,1,9,10,-11,-10,0,-1
1558433644263900,0,3,6,14,5,0,1,-3
1558433644263900,-1,2,4,-8,-3,-5,-3,-4
1558433644278859,2,0,-9,-9,3,-3,-1,2
1558433644278859,0,1,-7,-15,-19,3,10,2
1558433644284843,4,3,13,19,33,12,-3,3
1558433644284843,3,2,3,7,-8,-1,3,5
1558433644300800,1,2,6,8,3,-8,1,0
1558433644300800,-4,-2,6,19,9,14,-6,-4
1558433644307784,1,2,-5,-27,-4,-1,3,2
1558433644307784,-1,0,-4,-5,-1,-2,-3,-2
1558433644314766,-2,-3,3,3,-7,-4,-2,-1
1558433644314766,-1,-6,-21,-17,-19,-18,-10,-1
1558433644323739,1,3,9,19,18,25,-4,-1
1558433644323739,-3,-3,2,10,19,8,7,1
1558433644338699,-4,-6,-8,-4,0,4,-7,-3
1558433644338699,5,7,12,1,-8,-5,7,5
1558433644345679,-2,-2,5,9,1,-8,0,2
1558433644345679,-1,-3,-10,-12,-10,-9,-4,-3
1558433644360639,-2,-4,-8,-4,-14,0,-12,-2
1558433644360639,3,5,13,15,27,10,13,6
1558433644367622,-9,-15,-28,-33,-32,-10,-8,-8
1558433644367622,-1,3,14,17,12,7,5,-4
1558433644375599,-4,-3,-9,-16,-3,-3,-14,-7
1558433644375599,2,0,-6,-5,-6,7,2,1
1558433644384576,6,8,20,3,-7,1,11,5
1558433644384576,-3,-7,-12,8,10,8,6,2
1558433644398539,1,5,17,10,4,0,-4,-4
1558433644398539,-5,-3,3,3,8,5,3,-7
1558433644405519,-6,-5,-16,-15,0,-9,2,-6
1558433644405519,-1,-1,-6,-6,-7,-1,-5,-2
1558433644420481,-4,-1,4,1,-14,-4,-2,-5
1558433644420481,-1,1,8,26,24,-2,-2,-1
1558433644427461,-1,-3,-2,1,-14,-8,-6,-3
1558433644427461,3,6,-11,-38,-7,-3,0,5
1558433644435441,-2,-4,4,15,1,3,-4,-4
1558433644435441,0,-2,-15,-9,-1,0,-6,-1
1558433644444437,2,2,5,13,17,7,1,-1
1558433644444437,-4,0,12,6,-12,-19,-20,-8
1558433644458380,6,1,3,-10,-15,4,3,7
1558433644458380,-3,-2,-6,1,-17,-18,-14,1
1558433644465366,3,3,3,-6,16,3,8,4
1558433644465366,-3,-1,-3,-10,-5,4,-3,-3
1558433644481325,-5,-4,3,1,0,-7,6,-4
1558433644481325,-6,-8,-14,-14,-13,-5,-4,-6
1558433644487301,2,-2,-10,0,5,0,-8,4
1558433644487301,1,-1,-6,10,25,11,7,0
1558433644504257,-4,-1,2,-2,-9,0,1,-6
1558433644504257,5,5,18,10,9,4,-1,2
1558433644505253,-6,-8,-28,-14,-3,0,-5,-4
1558433644505253,0,0,7,4,2,-4,13,2
1558433644518219,4,4,1,23,52,20,10,8
1558433644518219,0,-2,-5,-8,-3,-15,-15,-3
1558433644525200,1,3,12,-6,-24,-9,-7,-4
1558433644525200,1,-2,0,1,-7,4,0,1
1558433644541158,-7,-7,-22,-24,-9,4,4,-4
1558433644541158,2,4,20,31,15,7,2,3
1558433644548147,-3,-1,1,-15,-27,-10,5,-2
1558433644548147,-4,-10,-22,-18,-13,-6,-5,-4
1558433644564105,-2,-2,-6,-11,5,4,1,-1
1558433644564105,-3,-5,-7,-3,16,8,-5,-4
1558433644566091,-1,1,7,15,-3,-4,1,-3
1558433644566091,1,4,11,9,7,-10,-10,-3
1558433644578058,-2,-6,-10,-2,-20,-5,-10,-3
1558433644578058,0,0,2,3,-3,5,10,0
1558433644585042,-2,-2,-12,-10,13,5,-1,1
1558433644585042,-1,-1,14,0,-4,-6,-7,-4
1558433644600997,-4,-3,-4,-8,-28,-17,-3,-1
1558433644600997,5,1,-11,-20,7,7,13,4
1558433644607978,-4,-3,7,15,7,6,7,-1
1558433644607978,3,6,6,5,-1,2,3,1
1558433644623935,1,-3,-3,16,29,9,4,1
1558433644623935,0,0,-3,-23,-28,10,5,3
1558433644625932,-1,0,3,5,-10,-8,-3,-4
1558433644625932,-3,-7,-7,0,-10,-12,-4,-3
1558433644637899,-3,-7,-6,-25,-30,-18,-12,0
1558433644637899,-3,-2,-8,-5,11,6,14,4
1558433644646875,-1,-1,2,14,10,9,4,2
1558433644646875,-2,-1,-2,0,7,10,4,0
1558433644660837,2,3,6,1,2,-2,3,2
1558433644660837,-2,-3,-2,-2,-16,-19,-20,-3
1558433644667819,-2,1,3,-7,-1,-7,-8,-5
1558433644667819,-1,-4,-8,3,-6,-2,2,-3
1558433644683776,-1,0,7,9,9,-4,1,1
1558433644683776,-6,-5,-9,-4,-1,-5,-7,-5
1558433644685771,2,5,14,15,4,-8,-6,-1
1558433644685771,-10,-15,-25,-13,-30,-19,-7,-6
1558433644697740,1,1,-9,-10,6,2,7,-1
1558433644697740,1,-1,2,2,15,6,5,2
1558433644706715,4,3,12,10,24,22,13,7
1558433644706715,-5,-3,-7,1,-10,-3,-12,-6
1558433644720676,-1,2,8,9,2,-12,-10,-4
1558433644720676,-4,-7,-13,-20,-27,2,2,-4
1558433644727658,-6,-6,-6,-14,-13,-8,-6,-11
1558433644727658,4,8,14,21,10,-1,4,3
1558433644743618,1,0,-8,-19,-25,2,5,0
1558433644743618,-1,-1,3,-1,13,-1,-5,-5
1558433644745614,0,-1,-1,-1,-25,-17,-12,1
1558433644745614,2,4,11,3,-1,7,1,1
1558433644757584,1,-1,-4,17,23,5,-6,-4
1558433644757584,-7,-6,-4,0,18,2,6,1
1558433644766556,-1,-2,-9,2,12,0,-1,3
1558433644766556,-1,3,10,2,13,16,18,3
1558433644780517,-2,0,12,16,6,2,-3,-2
1558433644780517,-5,-7,-19,-12,-36,-15,-10,-7
1558433644787505,-1,-4,-2,3,15,-2,-1,0
1558433644787505,5,2,1,-18,-14,-8,-7,1
1558433644804453,2,1,5,4,-5,0,2,3
1558433644804453,7,10,19,13,9,6,2,5
1558433644805450,-1,-3,-15,-16,9,7,-2,1
1558433644805450,-4,-7,-12,-12,-19,-16,-9,-5
1558433644817420,3,4,16,15,3,-1,1,3
1558433644817420,0,-2,-17,-7,18,24,13,2
1558433644826397,1,3,2,-7,-18,-6,-5,-3
1558433644826397,2,2,5,-5,-8,-11,-2,1
1558433644841355,-3,-4,-8,1,10,16,12,1
1558433644841355,-2,1,3,3,-1,-20,-13,-4
1558433644847342,-3,-5,-12,-8,-13,0,-7,2
1558433644847342,0,-1,-1,-6,0,4,11,3
1558433644864293,-5,-4,-2,5,0,-7,-6,-10
1558433644864293,0,-1,6,-7,-31,-11,-10,-2
1558433644865293,-2,-6,-10,-7,11,11,11,-1
1558433644865293,-2,-2,2,-2,-5,-17,-16,-6
1558433644877258,-2,-5,-16,-3,-20,-12,-5,-3
1558433644877258,-4,-1,4,-2,9,3,-6,-4
1558433644886236,-3,-2,-1,0,-7,-1,3,-3
1558433644886236,-2,-3,-9,17,32,12,0,-1
1558433644901195,5,5,9,16,11,4,-5,1
1558433644901195,-2,-1,-8,-31,-32,-14,-9,0
1558433644908177,-6,-6,-7,-4,-9,-4,-3,-2
1558433644908177,-1,-1,5,11,11,-4,-1,-1
1558433644924133,1,3,-4,-15,7,0,-5,0
1558433644924133,-2,-2,8,16,-12,-8,-4,-10
1558433644925130,5,9,13,6,17,8,2,0
1558433644925130,-1,-3,-6,-1,12,12,2,2
1558433644938103,-3,-1,1,5,-10,-6,-1,-1
1558433644938103,0,1,0,15,27,2,3,-3
1558433644947075,0,2,5,-1,-19,3,9,-2
1558433644947075,-3,-1,-2,-8,1,1,-15,-3
1558433644961038,-2,-4,-8,-19,-1,-3,5,2
1558433644961038,-2,-3,2,13,-20,-14,14,1
1558433644968018,5,6,6,10,1,-5,-1,2
1558433644968018,-1,1,1,12,22,8,0,-2
1558433644983973,1,2,7,-11,-15,0,6,4
1558433644983973,-8,-12,-23,-9,-11,-10,-19,-6
1558433644985970,5,2,5,2,2,-2,7,6
1558433644985970,4,4,6,-15,-3,10,15,4
1558433644997945,-1,-1,8,10,19,7,-9,-3
1558433644997945,-1,-1,-13,-19,0,3,5,-1
1558433645006919,-6,-6,2,12,-11,-11,-14,-8
1558433645006919,-2,-2,2,-4,-24,-22,-3,-3
1558433645020878,-3,-4,-11,-18,-5,9,1,-3
1558433645020878,7,7,16,5,13,5,-1,2
1558433645027858,0,-1,-5,-2,1,3,11,9
1558433645027858,-4,-4,0,5,10,13,-2,-4
1558433645043812,1,0,1,8,6,-2,6,0
1558433645043812,-1,-1,-8,-9,-19,-12,-12,-6
1558433645045807,-4,-3,-2,-6,-5,-8,-4,-6
1558433645045807,0,-1,0,4,-17,-5,-2,-3
1558433645057776,1,-2,-6,-12,-12,-9,3,6
1558433645057776,2,4,7,14,29,25,13,6
1558433645066752,-2,-3,-2,1,5,-5,-15,-3
1558433645066752,0,1,3,2,-9,1,3,0
1558433645080714,-5,-3,-9,-14,8,-2,-13,-11
1558433645080714,-5,-2,1,2,5,-7,8,-3
1558433645095675,-1,1,3,-8,6,4,0,-1
1558433645095675,1,0,0,7,-2,13,7,2
1558433645103655,1,2,1,9,-6,-6,-4,-2
1558433645103655,-3,-5,-1,-10,-11,-7,-3,-3
1558433645105647,1,-1,-2,-4,-5,-5,-6,-3
1558433645105647,0,0,-4,-6,-3,-11,1,0
1558433645117615,4,4,2,8,6,7,10,4
1558433645117615,0,-1,5,6,8,9,-2,-1
1558433645126592,-3,-1,-1,3,8,6,6,1
1558433645126592,3,2,1,-7,-5,-3,-5,2
1558433645140553,-9,-8,-8,-1,-15,-13,-4,-8
1558433645140553,4,4,5,7,6,7,8,7
1558433645149529,-3,-4,-9,-20,-10,-3,-7,-5
1558433645149529,-3,-3,-5,-9,-13,-16,-10,-3
1558433645164493,0,-3,-3,-4,-5,1,4,2
1558433645164493,5,3,7,15,21,22,3,5
1558433645165487,-1,-2,-2,-1,-1,-9,-4,-3
1558433645165487,-5,-6,-7,-7,6,0,-7,-5
1558433645177455,-1,-2,-2,-12,-21,-13,-2,0
1558433645177455,-2,-2,-9,-5,-5,-12,-6,-1
1558433645186431,2,1,7,13,16,10,-4,0
1558433645186431,2,-1,-1,4,0,8,4,2
1558433645201391,-1,-2,-3,-2,13,9,1,-1
1558433645201391,-4,-4,0,-4,-21,-12,-7,-5
1558433645207376,-4,-3,-7,-4,-2,-5,-5,-2
1558433645207376,-2,-2,-3,-5,-7,-7,-2,2
1558433645224336,0,0,-5,3,16,9,6,1
1558433645224336,0,-1,-1,-3,-12,-6,-5,-1
1558433645225328,-3,-2,-3,4,-4,-7,-1,-4
1558433645225328,-4,-3,-6,-8,-11,5,-2,-2
