timestamp,emg1,emg2,emg3,emg4,emg5,emg6,emg7,emg8
1558433655423612,-2,0,5,3,-3,-1,-5,-4
1558433655423612,-2,-4,-6,3,-5,-5,-6,-5
1558433655432588,-3,-4,-5,-12,1,4,0,-6
1558433655432588,1,-1,-1,4,3,6,3,1
1558433655434583,-1,-1,-5,-4,1,-1,-1,0
1558433655434583,-2,-2,0,-12,-4,-5,-2,1
1558433655436578,1,1,4,8,5,3,0,2
1558433655436578,-3,-3,0,2,-4,-6,-6,-5
1558433655446550,0,-1,9,-2,-3,3,2,1
1558433655446550,-1,-5,-24,-6,1,6,1,-1
1558433655453532,4,7,12,15,2,-2,1,3
1558433655453532,-5,-9,-19,-14,-4,-1,-3,0
1558433655461511,0,-1,5,7,9,6,4,2
1558433655461511,1,2,5,-1,-1,-1,-3,0
1558433655476470,0,2,10,5,-2,-2,3,-2
1558433655476470,0,-1,2,4,-4,-5,-7,1
1558433655482453,0,-2,-8,-3,-1,-7,4,-1
1558433655482453,-4,-2,6,9,-3,2,3,-2
1558433655493425,-3,-4,-8,-20,-5,-4,-5,-5
1558433655493425,1,1,6,4,-1,-2,-3,-3
1558433655506390,-1,-5,-13,-13,-10,-8,-3,-2
1558433655506390,2,4,8,10,13,9,3,2
1558433655514369,-2,-1,5,10,-5,0,2,0
1558433655514369,-3,-3,-14,-11,0,-9,-1,-1
1558433655560246,1,0,1,3,0,-1,2,1
1558433655560246,1,0,6,-12,-8,-8,-5,0
1558433655561243,-3,-4,-22,-11,-4,-1,0,-3
1558433655561243,-1,-3,-4,-6,-3,0,-2,-4
1558433655562241,-1,-1,2,1,-2,0,-4,-4
1558433655562241,-1,0,0,10,12,12,5,3
1558433655565233,0,2,12,8,0,-2,3,0
1558433655565233,-2,-1,3,-4,-7,-8,-10,-6
1558433655573215,-1,-3,-10,-6,-1,4,3,0
1558433655573215,1,3,13,16,9,6,-1,-3
1558433655588171,-6,-8,-21,-20,-8,-5,-4,-4
1558433655588171,2,2,2,7,1,-2,8,8
1558433655589168,-1,1,7,5,4,-1,-1,-3
1558433655589168,-2,1,4,6,-9,-4,-4,-2
1558433655602136,-4,-7,-16,-17,-4,-3,-6,-3
1558433655602136,-1,-1,0,-1,-13,-15,-6,-5
1558433655610114,1,-2,1,5,11,1,5,3
1558433655610114,2,8,22,9,2,2,-3,2
1558433655625074,-3,-7,-29,1,-1,0,0,-4
1558433655625074,-6,-9,-18,-17,-7,3,-1,-3
1558433655633051,-4,-3,3,-2,-6,-9,-7,-2
1558433655633051,3,5,17,10,-5,1,2,-2
1558433655640032,0,-1,19,3,-3,-7,-8,2
1558433655640032,0,-2,-14,-3,11,15,12,8
1558433655648011,-1,-2,-5,4,-1,-6,-5,0
1558433655648011,-5,-4,-5,-11,-7,-10,-6,-9
1558433655661974,3,5,19,7,-2,3,3,1
1558433655661974,2,4,2,6,12,3,-1,-3
1558433655670949,1,0,4,-5,0,3,4,4
1558433655670949,-1,-3,-10,3,-3,-9,-2,-2
1558433655676934,-1,-2,1,-17,-5,-4,-2,-1
1558433655676934,-2,-3,-5,-5,-9,-11,-2,-2
1558433655692892,-4,-3,-12,-7,1,7,-6,-7
1558433655692892,0,-2,-11,-5,2,-3,0,1
1558433655699873,2,3,3,10,2,5,9,5
1558433655699873,1,3,20,8,-7,-5,-5,1
1558433655707853,1,9,10,14,5,-1,-5,-2
1558433655707853,-6,-12,-34,-31,-7,1,5,-1
1558433655722813,2,6,28,6,-5,-2,-4,0
1558433655722813,-5,-9,-41,-16,2,1,-5,-4
1558433655730811,2,0,1,0,-2,-3,-1,-3
1558433655730811,3,1,6,11,9,12,5,3
1558433655737773,3,6,20,13,13,3,0,1
1558433655737773,3,4,11,12,3,3,2,1
1558433655752733,-7,-10,-27,-29,-16,-7,-3,-4
1558433655752733,-1,-3,-5,-7,-1,-1,6,2
1558433655759713,-3,-3,-7,-8,-9,-16,-14,-7
1558433655759713,3,6,21,14,11,7,2,1
1558433655767691,-1,-3,-1,5,1,2,0,1
1558433655767691,-4,-3,-7,-9,-5,-2,-2,-2
1558433655782652,-3,-1,-2,-3,-4,5,-2,-5
1558433655782652,0,1,9,14,-2,-1,0,0
1558433655791629,1,0,-5,-22,-4,-9,-1,4
1558433655791629,0,-4,-1,0,0,-1,-2,1
1558433655797611,1,2,3,8,6,6,6,1
1558433655797611,-5,-5,-11,-12,-9,0,-5,-7
1558433655813569,2,3,10,13,1,0,-5,-2
1558433655813569,0,-3,-11,-2,-2,-4,-1,1
1558433655819568,1,-5,-17,-6,7,5,-1,-1
1558433655819568,1,6,18,3,-3,-1,6,2
1558433655836509,1,5,13,11,1,2,3,0
1558433655836509,-3,-7,-21,-15,-8,-4,-12,-5
1558433655842491,2,1,10,7,4,2,8,5
1558433655842491,0,-1,-1,-4,0,1,-2,-1
1558433655851467,-3,-5,0,3,-1,-4,-5,-2
1558433655851467,0,0,4,5,7,1,2,1
1558433655864435,-3,-2,-11,-6,-13,-6,-3,-4
1558433655864435,1,3,15,12,7,-1,-2,2
1558433655873410,-2,-1,-1,1,-3,0,1,-1
1558433655873410,0,-1,-7,-20,-5,-4,-1,-3
1558433655879392,0,-1,2,3,0,1,-4,1
1558433655879392,0,-2,1,-3,1,1,6,2
1558433655896350,1,2,-10,2,2,3,5,0
1558433655896350,-4,-5,-6,-4,-9,-6,-4,-2
1558433655902342,0,2,-1,1,1,0,6,-1
1558433655902342,-2,-2,-5,-2,1,1,-7,-5
1558433655911307,-1,-2,-3,-15,-8,-3,2,-1
1558433655911307,1,1,11,15,5,-6,-1,-1
1558433655925272,-5,-6,-16,-11,0,2,-3,-4
1558433655925272,-3,-3,-1,-3,-3,-1,-5,-3
1558433655933251,1,0,5,2,7,5,2,2
1558433655933251,1,7,20,7,0,-2,-3,-2
1558433655940231,-1,-2,-13,-15,-3,0,-6,2
1558433655940231,0,-1,-4,-5,-1,1,6,1
1558433655956189,-1,-5,-11,-7,-8,-8,3,-1
1558433655956189,-1,0,0,0,-6,-2,-11,-2
1558433655962173,1,1,6,9,1,-4,7,0
1558433655962173,0,0,4,-1,0,4,4,0
1558433655971147,-1,2,4,3,-1,-5,-1,0
1558433655971147,2,0,-3,7,4,6,7,5
1558433655985109,-5,-3,3,0,0,-1,-7,-8
1558433655985109,-1,-4,-12,-9,-4,-4,-1,-2
1558433655994087,-3,-1,4,5,2,2,-8,0
1558433655994087,-2,-1,-6,-7,-4,2,-4,-6
1558433656000071,0,1,1,6,2,-2,3,3
1558433656000071,1,1,-1,5,3,-3,0,-1
1558433656016027,-1,-2,-6,-14,2,6,2,-1
1558433656016027,-1,2,6,1,0,0,-1,1
1558433656022011,-4,-1,5,12,4,0,-3,-2
1558433656022011,-2,-3,0,-3,-10,-7,-6,-2
1558433656030987,0,0,-13,-9,-2,-5,1,-1
1558433656030987,-2,-2,2,2,1,1,-1,-2
1558433656044952,0,-3,-9,-3,-1,0,3,0
1558433656044952,1,7,31,13,4,2,1,-2
1558433656053925,-5,-12,-38,-18,-12,-8,-5,-4
1558433656053925,0,-1,8,-2,-3,-5,-3,-2
1558433656059911,-1,-3,0,4,7,5,0,-2
1558433656059911,-2,-2,0,3,4,-1,-2,-1
1558433656075870,2,3,15,2,-6,-3,-3,0
1558433656075870,0,0,-8,-2,1,0,4,0
1558433656081853,-1,0,0,-3,-8,-5,0,0
1558433656081853,1,-2,-8,-4,1,3,-6,-4
1558433656090830,-1,0,7,7,-1,-4,-2,-3
1558433656090830,-4,-4,-10,-6,4,0,2,-2
1558433656104789,2,1,5,2,-2,1,0,0
1558433656104789,-2,-3,-8,-8,-6,3,2,-1
1558433656121744,-2,-2,3,3,2,0,-3,-3
1558433656121744,-1,-1,0,1,-5,-5,-6,-4
1558433656122742,-1,0,-2,-2,8,3,-1,0
1558433656122742,-3,-3,-9,-8,2,-2,-1,-1
1558433656136704,0,0,4,-6,-9,0,-4,0
1558433656136704,0,0,-5,-1,0,3,0,-1
1558433656142687,1,0,0,1,-6,-6,-3,-1
1558433656142687,2,5,14,9,7,-10,-2,1
1558433656151666,-5,-7,-20,-4,-1,6,-4,0
1558433656151666,-4,-5,-6,-4,-7,-3,-3,-4
1558433656164630,-1,-6,-12,-15,-9,-2,-3,-1
1558433656164630,0,-3,-5,-7,2,5,6,4
1558433656173605,3,6,15,8,9,4,7,3
1558433656173605,-1,0,2,0,-3,-6,-4,0
1558433656179592,-3,0,1,0,-9,-7,-7,-3
1558433656179592,-3,-3,-8,-2,-6,-1,-6,-4
1558433656196544,0,0,8,6,3,1,8,0
1558433656196544,3,-2,-5,4,7,2,1,4
1558433656202530,-1,2,4,-1,1,0,0,-3
1558433656202530,-3,-1,-7,-4,-12,-7,-6,-4
1558433656211506,-1,0,2,1,3,1,1,0
1558433656211506,-1,0,1,-1,3,1,-3,-2
1558433656225471,-1,1,-2,-3,0,-2,-3,1
1558433656225471,-5,-4,-7,-2,-7,-11,-10,-5
1558433656233445,-1,2,18,15,2,2,-4,-3
1558433656233445,-1,-4,-15,-8,-4,-3,3,3
1558433656239429,1,4,5,7,14,7,3,1
1558433656239429,-2,-5,-20,-13,-3,2,-6,-4
1558433656256384,-2,-1,3,3,-5,-5,-2,-2
1558433656256384,1,2,9,6,0,0,0,-2
1558433656262368,0,-2,-1,-5,-9,-7,-5,-2
1558433656262368,-1,0,3,1,1,9,1,0
1558433656271354,0,2,0,5,0,-4,0,0
1558433656271354,0,0,2,-5,-1,4,3,0
1558433656285306,-1,-4,-5,-2,-5,0,0,-2
1558433656285306,1,1,7,8,8,4,4,2
1558433656293284,-3,-1,-4,-8,-10,-7,-4,-2
1558433656293284,-3,-5,-15,-10,4,7,2,-1
1558433656300268,1,1,9,-2,-6,-2,-1,-2
1558433656300268,-3,-5,-2,-1,-7,-9,-2,-4
1558433656316232,-1,-1,-1,3,4,-2,-4,-2
1558433656316232,0,0,-5,-3,-2,-7,0,0
1558433656331190,-1,1,3,4,5,7,4,2
1558433656331190,2,2,5,6,5,0,-1,-1
1558433656333182,1,1,2,-1,-2,0,2,1
1558433656333182,-4,-3,-1,-7,-3,1,-4,-3
1558433656345151,-4,-9,-24,-11,-2,-3,-3,-1
1558433656345151,1,-1,-5,-5,-3,4,4,0
1558433656354130,-2,-2,-3,-8,-4,-6,-3,-4
1558433656354130,-3,3,14,12,5,-3,-7,-4
1558433656360114,3,2,2,7,3,2,8,5
1558433656360114,-2,0,-1,-4,-5,-6,-3,-3
1558433656376072,0,-1,-3,0,2,5,-2,-4
1558433656376072,-1,-1,1,4,-2,-2,0,-3
1558433656382095,-4,-2,-2,-4,-6,-2,-6,-6
1558433656382095,-3,0,-3,-4,-4,0,-1,0
1558433656391028,-1,-2,-2,0,0,0,-4,-3
1558433656391028,0,-1,-2,-2,0,2,-8,-1
1558433656404990,-2,-1,0,6,-1,-5,0,0
1558433656404990,2,0,1,2,1,2,2,1
1558433656413964,1,-2,-7,-7,-8,-5,-4,-1
1558433656413964,-1,0,3,5,2,-2,1,1
1558433656419949,-2,-1,0,-6,-9,-8,-11,-5
1558433656419949,0,-2,0,14,9,1,6,5
1558433656435903,1,2,8,-12,8,10,5,2
1558433656435903,1,0,-14,-7,4,4,1,-2
1558433656441890,-2,-3,-2,1,-2,-4,-2,-3
1558433656441890,-3,-1,-2,-8,-12,-13,-6,-5
1558433656450878,0,1,-2,3,-5,-4,-4,-1
1558433656450878,0,1,10,7,0,3,5,2
1558433656464828,2,0,-2,-3,3,2,2,-3
1558433656464828,1,1,-3,2,2,-9,0,2
1558433656473811,2,2,6,4,7,5,3,0
1558433656473811,0,-1,-3,-10,-10,-5,-4,-2
1558433656479800,1,-2,1,6,4,0,-2,-2
1558433656479800,-1,-2,2,0,1,2,-3,0
1558433656496743,-2,-4,-5,-4,-2,-3,-3,-4
1558433656496743,-2,-2,-1,-3,-7,-1,-1,-4
1558433656505086,-2,-1,0,-3,-4,-6,-3,-2
1558433656505086,0,0,-3,-5,1,5,-1,-3
1558433656511701,-3,-3,-7,-2,-7,-1,-3,-1
1558433656511701,-1,-1,2,3,-3,-14,-4,-2
1558433656524782,0,-1,2,0,2,2,8,1
1558433656524782,1,3,1,2,4,1,2,-1
1558433656533723,1,-2,-1,3,3,3,-1,0
1558433656533723,-3,-3,0,5,3,7,4,-1
1558433656547649,-3,-2,-11,-25,-5,4,-2,1
1558433656547649,-1,-2,-2,0,-1,-6,-2,-3
1558433656556592,-1,0,3,4,-1,2,4,3
1558433656556592,-1,-1,4,0,-1,1,-4,-4
1558433656571642,1,0,5,9,3,1,0,4
1558433656571642,0,-1,0,4,3,3,-1,1
1558433656572544,-4,-2,-10,-17,-11,-8,-7,-5
1558433656572544,-3,-2,-4,-10,0,5,0,0
1558433656585505,-2,2,-3,-2,-3,-4,-1,-2
1558433656585505,0,-3,0,1,-2,2,1,0
1558433656593664,-2,-1,2,8,2,-4,-2,-3
1558433656593664,3,3,5,3,2,1,4,2
1558433656607667,-2,-4,-7,-5,-1,-7,-8,-3
1558433656607667,-3,-3,0,-4,-4,8,-1,-2
1558433656616423,-1,-2,-4,3,9,2,2,-2
1558433656616423,-1,-5,-6,-7,-11,-4,-5,-2
1558433656631404,-1,0,2,2,1,3,2,0
1558433656631404,-2,-1,-2,-2,-2,-8,-5,-4
1558433656632379,-1,-3,-3,-3,-1,3,-2,-3
1558433656632379,2,2,7,5,3,-4,2,3
1558433656645345,1,-3,-7,-1,1,2,0,-1
1558433656645345,-4,-3,-2,-3,-1,0,0,-3
1558433656653358,0,2,1,-7,2,7,5,3
1558433656653358,0,0,-10,-11,-3,-5,-2,0
1558433656667286,1,3,3,0,0,-4,-4,4
1558433656667286,-1,0,5,-5,-8,-5,1,2
1558433656676263,-2,-8,-11,-5,-6,-10,-4,-1
1558433656676263,-2,0,2,5,-1,-2,1,-1
1558433656699468,0,1,15,10,1,-1,2,3
1558433656699468,-1,-2,-14,-4,-1,-1,2,0
1558433656700201,3,2,1,-2,6,4,0,2
1558433656700201,-3,-1,3,3,-8,0,0,-2
1558433656705469,-3,-2,-3,-6,-6,-4,-3,-6
1558433656705469,3,2,4,8,2,-3,-4,3
1558433656714172,0,-3,-6,-3,-3,-3,0,2
1558433656714172,-2,-2,-4,-4,-3,-2,-1,-3
1558433656728122,1,3,7,4,5,4,0,-2
1558433656728122,1,2,4,0,3,4,5,0
1558433656737099,-3,-2,-2,-1,-6,-5,-4,-3
1558433656737099,-1,-1,5,3,8,7,-1,1
1558433656751357,-3,-1,-2,1,-4,-10,-1,-2
1558433656751357,-3,-3,-1,-2,-7,-3,-6,-3
1558433656753060,-2,-3,-14,-16,-6,-2,-4,-2
1558433656753060,-2,-2,-3,1,-4,-5,3,1
1558433656765026,2,-1,-2,-3,4,2,-2,-2
1558433656765026,-3,-3,-6,-6,-4,-4,-3,-1
1558433656774000,-1,1,8,9,0,-4,0,-2
1558433656774000,2,4,9,2,-6,1,-6,1
1558433656786995,-3,-3,-13,5,11,10,12,5
1558433656786995,-1,-1,-4,-9,-1,-2,-2,-2
1558433656795941,-5,-4,-3,1,-10,-10,-6,-5
1558433656795941,0,-1,-3,-15,0,2,-1,0
1558433656812106,-2,-4,-8,-6,-1,5,0,-2
1558433656812106,-2,-1,4,-1,-7,-7,-3,-1
1558433656812896,5,7,12,11,12,8,8,7
1558433656812896,-3,-3,1,8,3,-1,4,0
1558433656825248,-1,-4,-14,-8,-8,-8,-4,-2
1558433656825248,0,-3,-4,-6,-4,1,-5,0
1558433656833840,-2,-1,-3,-2,-8,-5,-3,-5
1558433656833840,-1,-2,3,2,3,-5,-1,0
1558433656847802,1,2,4,0,-4,2,-4,-3
1558433656847802,0,-2,-3,-2,-1,1,1,-1
1558433656856957,1,1,7,13,16,17,11,4
1558433656856957,-2,-2,-5,-2,0,-2,1,-2
1558433656871058,-5,-5,-7,-10,-14,-9,-9,-8
1558433656871058,-2,1,5,6,-2,-2,-3,-3
1558433656872737,-1,1,0,1,2,1,2,2
1558433656872737,-1,-4,-11,-11,-1,-5,-8,-5
1558433656884997,0,1,8,6,1,5,6,2
1558433656884997,-2,-1,2,4,4,-1,2,0
1558433656893872,0,2,8,3,1,3,0,1
1558433656893872,0,-3,-22,-5,-9,-10,-8,-4
1558433656907933,-2,-3,-3,-3,-2,-2,-6,-2
1558433656907933,1,1,12,2,-3,0,0,-2
1558433656916623,-3,-7,-25,-24,-10,-8,0,-3
1558433656916623,2,4,19,11,5,4,2,2
1558433656931712,0,-1,-8,-4,4,5,1,2
1558433656931712,1,0,-3,3,9,3,5,2
1558433656932579,-1,2,9,2,-3,-2,-9,0
1558433656932579,-1,0,-1,2,-4,-3,0,0
1558433656945553,1,1,7,3,2,-3,0,-1
1558433656945553,-3,-4,-4,-7,-4,-1,-4,-1
1558433656953531,1,-2,-2,0,-8,-10,-1,-1
1558433656953531,-1,-2,0,-5,3,7,-2,-1
1558433656967490,-2,-2,0,1,-7,-10,-3,-2
1558433656967490,-3,-2,-8,-10,-3,2,-2,-2
1558433656976469,-1,-3,-4,2,1,-6,0,-1
1558433656976469,-3,-4,-9,-3,-5,-4,-2,-2
1558433656991747,-2,-1,2,-2,-5,-7,-7,-2
1558433656991747,0,-1,-1,1,4,1,2,0
1558433656992428,3,4,5,1,5,10,7,3
1558433656992428,-1,2,6,10,3,0,2,-1
1558433657005604,3,4,4,2,-3,4,2,2
1558433657005604,-4,-6,-11,-12,-8,-4,-5,-3
1558433657013363,-3,-4,-8,-17,-8,-5,-6,-6
1558433657013363,1,-3,-14,-5,11,11,3,2
1558433657027615,-2,1,15,11,3,-3,1,0
1558433657027615,-2,-1,-8,-2,-7,-1,-3,-1
1558433657036302,0,-3,1,4,0,-8,-5,0
1558433657036302,-4,-2,4,-3,-8,-8,-3,-3
1558433657051263,-2,-3,-6,-3,5,4,2,-3
1558433657051263,0,0,2,2,-5,-3,-2,-2
1558433657052258,-1,1,-1,2,-1,-3,-3,-1
1558433657052258,2,3,-2,-1,10,7,6,4
1558433657065220,-2,-1,7,7,7,8,2,-2
1558433657065220,-2,-2,-2,5,-3,-4,0,0
1558433657074199,-5,-8,-16,-15,-12,-8,-7,-6
1558433657074199,-1,2,10,3,-2,1,-1,0
1558433657087516,1,-4,-12,-8,2,2,6,1
1558433657087516,1,-2,-2,2,-1,-9,-6,1
1558433657096138,-1,2,11,9,7,5,3,0
1558433657096138,-1,-3,-6,-5,-7,-5,-7,-2
1558433657111407,1,3,6,3,1,-1,-3,-3
1558433657111407,-2,-1,2,0,-1,0,2,0
1558433657126240,-2,-4,-1,9,9,3,-1,-3
1558433657126240,0,2,-3,-9,-8,-6,-1,1
1558433657126240,-2,-4,-2,-8,-8,-1,-4,-1
1558433657126240,1,0,-5,-2,10,10,1,-1
1558433657134044,-1,-1,-3,-3,-2,-4,-3,-1
1558433657134044,-3,-3,-1,1,-5,-7,-4,-2
1558433657147003,-2,-2,-3,-1,-2,-4,-4,-1
1558433657147003,-1,1,2,-5,-2,-2,-3,-1
1558433657155977,-2,-2,0,-4,-7,2,1,-2
1558433657155977,-1,0,2,12,12,6,5,2
1558433657170941,2,0,2,0,0,0,2,1
1558433657170941,-2,-4,0,9,1,-3,-5,-4
1558433657176956,2,3,-2,-14,0,3,0,0
1558433657176956,-3,-5,-10,-10,-12,-14,-7,-5
1558433657184910,-1,3,7,0,-2,-4,-3,-1
1558433657184910,-3,-3,-14,-7,-3,2,3,-1
1558433657193876,-4,-5,4,11,4,4,1,-1
1558433657193876,1,2,9,4,4,4,-2,0
1558433657206842,1,1,8,6,5,5,0,-2
1558433657206842,1,1,-5,8,3,-2,3,1
1558433657216160,-1,0,-3,-3,-7,-9,-8,-2
1558433657216160,-2,-5,-8,-16,-9,-8,-5,-2
1558433657231129,-3,-3,1,0,-7,0,5,2
1558433657231129,1,0,4,-3,4,-1,2,1
1558433657238101,0,-2,-5,-2,-2,5,0,0
1558433657238101,-2,-1,4,6,-1,-4,0,-5
1558433657244768,-1,-1,-6,-6,-4,-3,-8,-3
1558433657244768,1,2,4,1,4,1,2,0
1558433657253717,-3,-2,-2,-3,-7,-10,-5,-2
1558433657253717,0,0,0,4,3,10,4,1
1558433657267700,-3,-4,-9,-6,-2,0,0,0
1558433657267700,-1,-2,-1,-7,-2,5,-2,-2
1558433657276656,0,1,2,12,-3,-4,2,2
1558433657276656,-2,-1,-3,-11,-3,-5,-2,-1
1558433657290619,-2,-1,-3,3,-4,-4,-2,-3
1558433657290619,-1,1,3,-1,2,2,0,1
1558433657297599,0,-2,-1,-3,-3,1,-1,-2
1558433657297599,1,0,1,2,2,3,1,-1
1558433657313576,-2,-1,1,12,1,-4,-1,-3
1558433657313576,-3,-2,-2,-25,-13,-5,-5,-3
1558433657315555,0,-1,-7,2,6,5,5,1
1558433657315555,-2,-2,-4,-1,-3,1,-4,-2
1558433657327863,-2,-2,1,-3,-1,-4,-3,-3
1558433657327863,-2,-3,-1,5,0,1,-3,-4
1558433657336495,-1,0,4,-3,-1,-1,-1,-1
1558433657336495,1,4,11,11,4,2,5,3
1558433657350781,3,1,-5,1,3,-3,2,3
1558433657350781,-7,-8,-18,-10,-5,-8,-1,-4
1558433657357899,-1,0,0,-2,5,5,-1,-2
1558433657357899,-2,-5,-6,-12,-11,-6,-3,-5
1558433657373781,-2,4,9,3,-3,-4,-5,0
1558433657373781,2,3,9,10,2,-2,1,2
1558433657375518,-2,-4,-3,-1,3,0,1,-2
1558433657375518,-2,-2,0,0,-5,-4,-5,-3
1558433657387483,-3,-3,-8,-6,-8,1,2,-3
1558433657387483,2,0,0,-2,-2,-6,-4,2
1558433657396460,-2,-2,-1,-1,-1,-3,1,-1
1558433657396460,-2,1,2,6,6,5,1,-1
1558433657410718,-4,-6,-12,-11,-9,-3,-2,-3
1558433657410718,1,1,2,7,11,8,0,2
1558433657417613,-2,1,4,6,-3,-4,-1,1
1558433657417613,-1,-2,-3,-7,-4,-5,4,1
1558433657433362,0,0,-4,-2,6,0,-2,1
1558433657433362,0,-1,1,-5,-5,4,2,1
1558433657435356,0,3,14,8,1,0,-4,-3
1558433657435356,-6,-10,-22,-7,-3,-3,-6,-4
1558433657447328,1,-1,0,5,4,-5,1,-1
1558433657447328,-2,-1,0,-1,5,5,1,0
1558433657456300,0,1,2,-4,-4,-4,-1,0
1558433657456300,2,6,16,10,0,0,-2,-2
1558433657470261,-5,-7,-12,-7,-8,0,-3,-3
1558433657470261,-3,-7,-17,-16,-5,-13,-4,-3
1558433657477242,-2,-1,-5,3,-3,1,-5,-4
1558433657477242,-1,-1,3,5,4,1,-3,-2
1558433657494635,2,1,4,3,1,0,5,6
1558433657494635,2,2,5,5,0,2,5,3
1558433657495195,-1,-1,-4,1,3,3,3,1
1558433657495195,-1,-2,-4,-3,-1,-4,-4,-1
1558433657507916,-1,-2,0,-3,1,7,0,-2
1558433657507916,-1,1,4,6,-1,0,2,1
1558433657516292,2,1,1,-2,2,-1,3,4
1558433657516292,-1,0,1,0,-1,-3,0,1
1558433657531197,-4,-3,-11,-9,-4,0,-4,-2
1558433657531197,-1,1,4,6,-6,-5,0,-3
1558433657537329,-1,-2,0,0,3,2,-5,-4
1558433657537329,0,-1,-4,-8,-1,1,8,5
1558433657554392,3,1,6,4,5,-3,-2,1
1558433657554392,-1,0,0,-3,-2,2,-3,-4
1558433657555036,-4,-5,-1,2,-13,-8,-5,-5
1558433657555036,-2,-1,-4,-2,0,-1,-3,-2
1558433657567272,-2,-1,-2,-7,1,5,4,1
1558433657567272,0,0,9,6,5,1,4,1
1558433657576256,-1,-2,-7,-3,2,-6,-2,0
1558433657576256,0,1,4,0,-2,-2,-2,-3
1558433657591210,-4,-3,-5,-5,-7,-5,-5,-5
1558433657591210,-4,-5,-1,-2,0,2,-6,-4
1558433657596922,0,-1,-6,-8,3,3,6,2
1558433657596922,-2,-1,8,9,1,0,-4,-3
1558433657613878,1,3,-2,-5,3,0,-1,3
1558433657613878,-1,-3,-3,-1,-5,-1,4,1
1558433657615087,0,1,4,0,0,0,-2,-1
1558433657615087,-1,-2,-3,0,-2,-3,-3,-1
1558433657628117,1,1,2,0,0,-4,-1,-1
1558433657628117,-3,-4,-9,-7,-5,-2,-8,-5
1558433657636096,-2,-2,1,-2,-2,0,3,1
1558433657636096,0,2,-4,-5,1,-1,-1,3
1558433657651032,-2,0,6,4,4,3,-1,-1
1558433657651032,-3,-3,-3,-4,-7,-3,-3,-4
1558433657657760,-1,-4,-6,-13,-4,-7,-4,-3
1558433657657760,0,1,3,6,8,4,4,1
1558433657673718,0,-2,-3,1,2,6,3,-2
1558433657673718,1,-1,-7,-11,-10,-8,-6,1
1558433657674715,2,1,4,7,-1,-4,-3,-1
1558433657674715,0,-3,-3,-6,3,3,0,1
1558433657687680,-2,0,3,4,-3,-1,-3,-3
1558433657687680,0,1,4,4,-2,-5,1,-1
1558433657696658,-2,0,-4,-1,2,6,3,-1
1558433657696658,-1,-2,-4,-16,-2,-1,-2,-1
1558433657710654,-1,-2,-2,2,-2,-3,-3,-2
1558433657710654,-1,-1,-1,-2,2,6,4,1
1558433657718952,-2,-2,-2,-2,-4,0,-6,-4
1558433657718952,-2,-2,-1,4,-2,-3,2,-2
1558433657734585,2,2,5,7,10,2,3,2
1558433657734585,0,2,10,3,-3,0,-2,0
1558433657735580,-5,-10,-28,-8,-8,-11,-3,-2
1558433657735580,1,0,-4,-5,-1,1,-4,-2
1558433657747519,-1,-3,2,-9,-7,-3,2,-1
1558433657747519,1,3,5,9,8,2,2,3
1558433657756495,-3,-4,-11,-3,-1,3,-4,-3
1558433657756495,-3,-3,-2,-2,-6,-9,-6,-1
1558433657769462,-1,-1,-2,-1,-11,-14,0,-1
1558433657769462,1,2,6,3,9,5,2,1
1558433657778437,1,2,9,3,4,1,2,2
1558433657778437,-1,0,-5,0,2,1,0,0
1558433657794526,-3,-1,0,0,-2,-3,-4,-3
1558433657794526,-5,-5,-6,-3,-4,-3,-4,-4
1558433657795650,-1,0,-1,-6,-7,-2,-3,-4
1558433657795650,-2,-1,0,2,-5,-2,0,-1
1558433657807691,-3,-2,-3,0,5,2,1,1
1558433657807691,0,1,-4,2,4,-4,-1,1
1558433657816342,-1,0,4,3,3,3,-3,-1
1558433657816342,0,-2,0,-6,-5,-4,-2,-1
1558433657829304,-2,-2,-1,1,-2,-2,-3,-3
1558433657829304,-1,-2,-4,-9,-3,-2,-2,-3
1558433657838588,0,0,5,8,2,7,4,0
1558433657838588,0,-2,-6,-7,-6,-2,-3,-1
1558433657853284,2,1,0,-1,3,1,2,4
1558433657853284,-2,-2,2,1,-1,-1,-1,-2
1558433657855236,1,1,5,10,8,7,4,3
1558433657855236,-2,-2,-6,-7,-6,-3,-3,-1
1558433657867475,-2,-3,-2,-3,-8,-7,-1,-2
1558433657867475,1,0,-3,-2,4,2,0,0
1558433657876207,0,1,6,-2,0,-1,1,1
1558433657876207,-3,-2,5,2,-2,-2,-10,-5
1558433657890166,-1,-2,-7,-3,-1,2,1,-3
1558433657890166,-1,-1,1,1,0,0,0,0
1558433657899145,-1,1,12,5,-3,-5,-2,0
1558433657899145,-6,-7,-30,-9,-2,-2,-2,-4
1558433657914075,0,-3,-7,-12,-9,-5,-8,-4
1558433657914075,1,0,3,2,6,9,6,2
1558433657915105,-1,-1,1,-2,-3,0,-2,-3
1558433657915105,1,2,12,7,1,0,4,2
1558433657928159,0,0,3,3,4,-7,-1,2
1558433657928159,0,-2,-11,-4,-4,-5,0,-1
1558433657936017,-1,0,-3,-3,3,5,2,0
1558433657936017,-1,0,-1,-14,-4,5,0,-4
1558433657950273,-2,-2,-3,-4,-5,-10,-4,2
1558433657950273,-2,-3,0,1,-7,-8,-9,-2
1558433657958957,-2,-1,-1,-3,-1,1,-3,-2
1558433657958957,2,1,10,12,3,-4,4,5
1558433657974228,0,-3,-4,-4,-3,-4,0,0
1558433657974228,1,2,3,4,8,10,5,2
1558433657974914,-2,-3,-7,-2,-4,-7,-6,-2
1558433657974914,-1,1,0,2,-5,-6,-2,-1
1558433657988153,0,1,2,-5,1,3,-4,-1
1558433657988153,-3,-1,0,1,-10,-10,-7,-3
1558433657995856,0,-1,-5,-1,6,9,6,2
1558433657995856,-2,-1,3,7,5,6,0,-2
1558433658010114,-1,2,-1,-4,-3,-2,-1,2
1558433658010114,0,-1,-6,-6,0,-1,-5,-1
1558433658018812,0,-1,1,4,3,0,1,1
1558433658018812,-2,-4,-5,-1,0,3,-2,-2
1558433658033998,-2,-2,-2,1,-2,4,-3,-4
1558433658033998,-4,-2,1,1,-4,-3,-2,-3
1558433658034753,1,-2,-5,-8,-5,-10,-6,-3
1558433658034753,-3,-1,1,0,-3,-2,-5,-4
1558433658047947,2,0,5,10,12,17,2,-2
1558433658047947,1,4,6,-6,-3,-3,3,1
1558433658056696,-2,-2,-7,3,-2,-7,-5,-2
1558433658056696,-2,-6,-10,-17,1,4,5,-1
1558433658069660,-3,-2,-2,-1,-6,-3,-5,-3
1558433658069660,-3,-3,-4,1,-3,-4,-3,-4
1558433658078757,-1,0,5,-1,-7,-1,3,-3
1558433658078757,2,2,2,5,-4,-9,-5,-1
1558433658092595,-1,1,-3,2,7,0,6,2
1558433658092595,-2,-4,1,5,0,1,-6,-4
1558433658099610,-3,-3,-4,-7,-10,-2,-6,-2
1558433658099610,0,-1,0,6,2,2,2,-2
1558433658107998,-2,-2,-8,-16,-6,-4,-3,-3
1558433658107998,-1,-1,-4,0,7,1,3,2
1558433658116532,-2,-3,-3,-6,-4,-1,-3,-1
1558433658116532,-4,-2,0,-1,-10,-8,-5,-4
1558433658129498,1,1,5,10,7,10,7,1
1558433658129498,0,0,-2,1,4,2,1,0
1558433658138863,0,-1,-3,-4,0,2,0,-1
1558433658138863,3,3,8,3,2,-4,0,3
1558433658153625,-2,-4,-6,0,-6,-8,-2,-1
1558433658153625,1,-2,-3,-7,-9,-4,-3,-2
1558433658160291,0,0,3,-1,1,2,1,-2
1558433658160291,-1,-1,0,2,6,8,4,2
1558433658168150,-1,0,2,-4,-12,-17,-8,-2
1558433658168150,3,3,-1,8,11,6,9,5
1558433658175904,0,1,6,6,1,-2,-2,-1
1558433658175904,-1,-1,-5,-14,-4,3,-2,-2
1558433658190173,0,-1,-1,4,6,10,4,2
1558433658190173,-3,-4,-1,-6,-10,-4,-7,-5
1558433658198820,-1,-2,-3,-6,-6,-10,0,0
1558433658198820,-1,-1,0,8,12,10,8,2
1558433658212768,-1,-1,1,1,2,2,0,-4
1558433658212768,-3,-4,0,-3,-4,-2,-3,-6
1558433658219784,0,1,-2,2,4,5,-1,1
1558433658219784,-1,-2,-3,0,-5,-7,0,0
1558433658227752,-1,-2,0,-3,3,-1,-2,0
1558433658227752,-3,-3,-5,-1,-11,-7,-5,-3
1558433658236703,0,-1,-3,-2,1,-1,5,3
1558433658236703,0,-1,-1,-2,0,-1,3,0
1558433658249725,0,-1,1,2,1,-1,-2,-1
1558433658249725,-1,0,0,-3,1,4,-1,-1
1558433658259114,1,0,0,0,1,-5,-4,2
1558433658259114,0,0,-2,3,-3,-4,-3,0
1558433658274074,-2,-2,-2,-3,-4,0,1,-2
1558433658274074,-4,-4,-2,1,-3,-1,2,-1
1558433658279590,0,0,-2,-3,1,-2,-3,-3
1558433658279590,1,1,8,3,-1,-4,-3,-3
1558433658296543,-5,-6,-16,-13,-2,3,1,-4
1558433658296543,-2,-1,-6,-4,-5,-7,-2,-1
1558433658297540,-1,1,3,5,6,4,5,2
1558433658297540,-2,-1,4,6,0,1,-3,0
1558433658310674,-1,3,6,2,-1,-5,-3,0
1558433658310674,0,-2,-3,-1,-4,-4,-6,-2
1558433658318829,-2,-4,-2,-6,-8,-4,-3,-1
1558433658318829,3,2,-6,-1,-3,0,1,2
1558433658333813,3,0,1,7,11,2,6,5
1558433658333813,-1,0,-6,-11,-4,-5,-4,1
1558433658340578,0,-2,0,-2,2,-1,-2,0
1558433658340578,0,-2,-2,-2,-2,-1,-3,0
1558433658356719,-1,-2,3,6,-1,6,2,-2
1558433658356719,0,0,1,1,-2,-8,-1,0
1558433658357685,-3,-2,-4,-6,-6,-5,-2,-4
1558433658357685,0,0,1,7,7,5,10,6
1558433658370549,-3,-2,-2,-10,-10,-6,-7,-1
1558433658370549,2,3,11,3,8,0,1,2
1558433658378670,-4,-6,-10,-4,-9,-5,-6,-2
1558433658378670,-3,-3,-10,-10,-4,-6,-4,-5
1558433658393622,0,3,13,8,5,3,1,-1
1558433658393622,-5,-7,-22,-10,-5,0,-1,-1
1558433658400537,0,-1,0,-8,-7,-5,-4,-2
1558433658400537,-3,-5,1,3,-5,1,-4,-5
1558433658416531,-1,0,2,3,5,1,3,-2
1558433658416531,0,1,11,12,12,4,4,0
1558433658417446,1,-1,0,1,-1,2,1,-1
1558433658417446,-3,-2,-6,-14,-6,0,-6,-4
1558433658430189,-3,-2,1,2,-2,2,-1,-1
1558433658430189,-2,-3,-5,-3,-6,-1,-2,-1
1558433658438204,-1,-1,-2,1,0,-6,-2,1
1558433658438204,-1,0,2,-2,-2,1,-4,-4
1558433658453404,0,-2,-5,-5,-7,-5,-2,1
1558433658453404,0,2,1,1,-1,-9,-2,-1
1558433658460381,-2,0,-2,-5,7,5,6,1
1558433658460381,0,-1,2,4,-5,-7,-4,0
1558433658476339,0,0,-2,-2,-2,-2,-2,-2
1558433658476339,-4,-5,-6,-12,-9,1,-3,-4
1558433658478063,2,2,-3,1,3,1,-1,0
1558433658478063,-1,-1,-4,-2,1,-2,0,-1
1558433658490027,-3,-4,0,-4,-4,0,0,-4
1558433658490027,3,4,9,13,2,-6,-1,4
1558433658499001,-1,1,8,3,1,3,-4,-3
1558433658499001,-1,-2,-13,0,8,4,0,2
1558433658512965,-2,-3,-8,-5,-12,-12,-5,-2
1558433658512965,1,1,0,-6,1,8,5,1
1558433658519983,-2,-4,-6,3,-1,-3,-5,-4
1558433658519983,0,3,13,2,-4,-1,-3,0
1558433658536983,2,1,0,7,8,0,3,5
1558433658536983,-3,-4,-2,-1,0,-3,2,0
1558433658538330,0,2,1,-3,-10,-9,-5,-2
1558433658538330,-1,-4,-1,-3,-3,-1,-6,-4
1558433658550668,-1,0,4,0,0,7,-1,-3
1558433658550668,2,1,1,-1,-1,-4,-1,-1
1558433658558786,1,-2,-4,1,5,1,3,1
1558433658558786,-2,-1,-2,-2,-2,-7,2,-1
1558433658573286,-3,-1,-2,2,-5,-1,-2,0
1558433658573286,-1,-4,-7,-7,4,11,1,-4
1558433658579269,-4,-3,-1,-6,-5,-3,-4,-4
1558433658579269,0,-1,-5,-4,-2,-6,-3,-1
1558433658596222,2,-2,-5,-3,-1,-3,1,1
1558433658596222,-1,2,8,8,4,-1,-5,-1
1558433658597220,-1,-2,-1,5,0,7,6,3
1558433658597220,-1,0,1,0,3,3,0,0
1558433658610550,1,-2,-4,-7,-3,-2,-6,-1
1558433658610550,-1,-1,-1,-3,-5,-3,2,-2
1558433658618456,2,1,3,2,4,2,3,2
1558433658618456,-3,-4,0,2,-4,1,-3,-3
1558433658633350,-2,-1,-6,-13,-3,-6,-4,-2
1558433658633350,0,2,3,0,5,4,2,3
1558433658640344,-1,-1,-3,-2,1,0,0,0
1558433658640344,0,-1,5,9,-1,-6,-2,-3
1558433658656288,-1,-2,-3,-5,-3,2,-4,-1
1558433658656288,-3,-1,-1,-3,-2,2,0,-1
1558433658658061,-1,-1,1,-2,-8,-11,-6,-2
1558433658658061,0,-1,-2,-5,-2,1,-1,-1
1558433658670237,-2,-2,2,7,3,-6,-4,-5
1558433658670237,0,-1,-2,0,-2,0,0,1
1558433658679002,-4,-3,-11,-4,0,6,0,-2
1558433658679002,-1,-2,-2,-7,-10,-6,-1,1
1558433658692964,0,2,2,3,3,1,1,-1
1558433658692964,-2,-3,0,-2,0,0,-4,-2
1558433658699947,0,0,3,2,-7,-7,-6,0
1558433658699947,0,-3,-7,-9,-2,-2,1,-1
1558433658715903,1,2,3,5,4,2,8,3
1558433658715903,0,1,0,-1,1,-1,-2,-1
1558433658717897,-2,-1,5,6,5,5,-2,-4
1558433658717897,-2,-4,-9,0,-1,-5,-4,-2
1558433658739340,-1,-3,-2,-11,-1,3,0,1
1558433658739340,-2,-1,-1,0,-7,-2,1,0
1558433658741039,-2,0,-2,-3,2,-5,2,2
1558433658741039,1,1,4,4,1,6,2,0
1558433658753524,-1,-1,0,3,2,-1,-1,-1
1558433658753524,-1,0,-4,-4,1,1,1,0
1558433658760654,0,-2,-1,-3,-2,1,-1,-3
1558433658760654,-2,-2,-5,-1,0,-1,-1,-2
1558433658776682,-1,-1,3,6,-4,-3,0,-2
1558433658776682,0,1,4,1,2,-4,-3,0
1558433658777621,-3,-5,-5,-6,-5,-2,0,-1
1558433658777621,-1,1,7,3,8,9,1,-1
1558433658790558,-2,-2,-8,-3,-9,-13,-9,-2
1558433658790558,0,0,-1,8,5,1,1,0
1558433658798645,-1,-1,1,-4,-2,4,1,1
1558433658798645,1,2,1,1,9,6,4,2
1558433658813197,-3,-2,0,3,0,-2,-2,-1
1558433658813197,-2,-3,-3,-2,-8,-6,-5,-3
1558433658820486,1,0,-2,-3,-3,-4,-2,-2
1558433658820486,-2,-2,-3,-8,-5,-5,-4,-2
1558433658836137,-2,-2,-1,-2,4,10,4,0
1558433658836137,0,-1,1,1,1,6,0,-2
1558433658837133,1,2,0,-1,4,1,-1,-1
1558433658837133,-3,-2,-4,-1,-8,-4,1,2
1558433658850100,1,1,-1,-6,3,-2,-2,0
1558433658850100,-3,-6,-7,-9,-9,-4,-1,-4
1558433658866297,0,-1,4,3,-4,-3,-2,-3
1558433658866297,0,0,-1,2,1,-7,-2,1
1558433658873351,0,0,4,7,7,11,7,3
1558433658873351,-2,-1,0,-1,4,1,-2,0
1558433658880019,-5,-1,-1,-7,-6,-4,-4,-4
1558433658880019,-3,-6,-15,-11,-7,-3,-4,0
1558433658903957,-2,-3,1,-4,-6,-5,-3,-3
1558433658903957,-3,-2,1,0,-1,-1,-6,-5
1558433658905086,-1,1,0,3,0,2,4,2
1558433658905086,1,3,5,3,5,2,3,0
1558433658910241,-1,-1,-3,3,-3,-1,-5,-2
1558433658910241,-3,-2,-4,-1,-9,-8,-3,0
1558433658918917,0,-2,-5,-8,4,-1,-3,1
1558433658918917,-1,-1,3,2,3,1,-2,-4
1558433658932974,1,1,4,7,-1,-1,1,2
1558433658932974,1,0,0,2,3,-3,0,2
1558433658940159,-3,-4,-4,-3,-1,0,0,-1
1558433658940159,1,1,2,-2,4,8,0,-1
1558433658956971,-3,-2,-2,-3,-3,-7,-5,-3
1558433658956971,-2,-4,-5,5,-8,-5,2,-2
1558433658957813,2,1,4,5,6,5,2,1
1558433658957813,0,-3,-9,-19,-7,-3,-2,-1
1558433658969857,-2,-2,0,4,-2,-4,-7,-4
1558433658969857,0,-1,-3,-11,0,2,0,1
1558433658978770,-1,-2,-2,0,-7,-6,-5,-1
1558433658978770,1,0,3,11,5,1,1,-1
1558433658993872,-2,-3,-5,-5,-7,-3,-2,-2
1558433658993872,0,-1,-1,-3,0,6,5,1
1558433659000004,-2,0,-1,5,7,4,-1,0
1558433659000004,-1,-1,3,-1,-5,-4,-3,-1
1558433659015964,-1,-1,-4,-6,0,-2,-2,-2
1558433659015964,-1,-3,-3,-4,0,3,-3,-4
1558433659022943,-2,-3,3,5,3,6,7,-1
1558433659022943,-1,-1,1,-9,-12,-14,-2,2
1558433659029621,0,-2,-10,-7,0,1,-2,-3
1558433659029621,0,2,3,5,3,-3,-1,-1
1558433659038594,0,-3,-5,-10,-4,0,-4,-1
1558433659038594,-3,-3,-3,0,-7,-11,-1,-3
1558433659052559,0,1,5,4,7,8,5,3
1558433659052559,0,0,2,-4,-2,-1,-5,0
1558433659059574,1,1,2,5,3,-3,1,1
1558433659059574,1,-1,2,11,1,2,-3,-1
1558433659075497,-1,-1,-3,-17,-7,-2,5,-1
1558433659075497,0,1,0,3,9,7,2,0
1558433659082476,-2,-3,-3,-3,-3,-5,-1,-2
1558433659082476,-2,-3,-2,0,-6,-1,-4,-5
1558433659089460,0,0,2,2,0,-6,0,0
1558433659089460,-2,-2,-2,1,3,9,2,-2
1558433659098436,-1,-2,-1,-2,-4,-8,-6,-5
1558433659098436,1,1,2,-5,5,8,8,3
1558433659113395,-4,-2,-7,-5,-8,-7,-6,-3
1558433659113395,-5,-3,-4,-8,-9,-8,-5,-7
1558433659119412,0,-3,-2,-3,-5,-6,-3,-2
1558433659119412,0,0,-1,3,8,-4,1,1
1558433659135337,1,1,3,2,-1,4,-3,-3
1558433659135337,-1,0,0,5,1,0,-1,1
1558433659142318,-2,-1,-5,-8,-3,5,5,-3
1558433659142318,-3,-1,2,0,-2,1,-1,-3
1558433659149300,0,-1,0,1,5,-6,0,4
1558433659149300,0,-2,-1,-2,-5,-6,-5,-2
1558433659158332,-1,0,-1,3,-7,-8,-3,0
1558433659158332,-2,-1,1,0,7,7,1,-1
1558433659173295,-3,-2,-4,-8,-3,0,-4,-5
1558433659173295,2,1,2,5,4,-2,2,3
1558433659180216,-1,0,-2,-5,-1,4,0,-2
1558433659180216,0,-3,-1,4,4,5,3,2
1558433659195235,-1,-1,7,13,-1,-4,-3,-1
1558433659195235,-4,-5,-11,-26,-13,-8,-4,-5
1558433659202156,-1,-3,-8,-2,-1,-8,-3,-1
1558433659202156,2,1,8,3,1,-1,0,2
1558433659218149,-2,-4,-8,-2,0,5,1,-2
1558433659218149,0,0,2,5,3,-1,-2,2
1558433659220110,-2,-1,2,0,-4,-5,-3,-2
1558433659220110,-1,-1,-5,-2,-4,0,-2,-4
1558433659233075,-1,-2,-7,-3,2,5,2,-2
1558433659233075,2,1,7,9,2,2,0,1
1558433659240055,-2,-2,-7,-11,-8,-5,-2,2
1558433659240055,0,0,-2,2,8,-4,-3,-3
1558433659255017,-1,-1,3,0,-4,-1,-1,1
1558433659255017,0,-2,-1,5,5,-2,2,0
1558433659261996,-4,-3,2,3,-1,0,-2,-4
1558433659261996,-1,0,-2,-3,-3,3,0,1
1558433659278951,-1,-4,-4,-7,-8,-13,-5,-2
1558433659278951,-1,0,9,-1,-3,1,1,1
1558433659279949,-1,-1,-13,2,4,1,3,1
1558433659279949,-4,-3,-7,-8,-10,-7,-7,-3
1558433659291917,0,2,3,-5,5,6,-1,0
1558433659291917,-2,-1,-3,-6,-9,-9,-7,-4
1558433659300894,2,3,8,4,10,11,4,1
1558433659300894,-3,-3,-4,4,-6,-6,0,-2
1558433659315853,0,-2,-1,-1,6,0,-2,-1
1558433659315853,-2,-1,-4,4,0,1,0,-1
1558433659321836,0,0,-1,2,-1,-2,-3,-1
1558433659321836,-2,-4,-4,-3,-6,-3,-4,-3
1558433659338791,-2,-1,-1,-10,-5,-1,-1,0
1558433659338791,1,-2,-5,-2,3,-3,-2,-1
1558433659339788,-1,0,6,6,5,0,0,-1
1558433659339788,-2,0,-2,-3,0,3,0,-1
1558433659352753,0,1,0,3,1,2,-1,-2
1558433659352753,-4,-4,-5,-4,-3,3,4,1
1558433659359734,2,2,7,1,1,1,1,2
1558433659359734,-1,-2,-7,-5,-1,-4,-6,-3
1558433659375693,-2,0,0,5,2,2,0,-1
1558433659375693,0,0,-5,-19,-10,-4,-2,-3
1558433659382673,1,0,2,7,7,4,0,2
1558433659382673,-2,-4,0,-6,-6,-1,1,-1
1558433659398631,1,1,2,8,-4,-8,-3,-1
1558433659398631,1,0,1,12,12,8,4,0
1558433659399629,-1,0,-1,-6,-4,-1,-1,-1
1558433659399629,-1,1,-1,2,3,5,0,-1
1558433659412610,0,0,-1,-3,-6,-5,-1,-2
1558433659412610,-1,0,3,1,-1,-2,-1,-1
1558433659419581,-2,-3,-5,-9,-6,-4,-3,-4
1558433659419581,1,1,5,10,8,3,4,2
1558433659435532,0,-4,-8,-3,4,5,-5,-2
1558433659435532,-2,-2,-3,-3,-9,-3,-2,-2
1558433659442513,1,0,-1,2,2,6,0,3
1558433659442513,1,0,0,-13,2,-6,3,5
1558433659458470,-2,-2,-2,4,-4,-2,4,1
1558433659458470,-3,-1,2,0,-1,-4,-2,-1
1558433659460465,-3,-3,-3,1,-4,-6,-11,-5
1558433659460465,-2,-3,-4,3,-4,4,-2,-4
1558433659473431,2,2,4,-3,4,3,4,3
1558433659473431,-2,-1,-2,0,4,-2,-2,0
1558433659479415,1,2,4,0,2,4,3,2
1558433659479415,-1,0,3,0,-2,0,-1,-4
1558433659495372,-3,-2,-5,-3,-12,-8,-3,-3
1558433659495372,-2,-2,0,3,2,0,-1,-1
1558433659502355,-3,-4,-8,-1,-5,-4,-4,-3
1558433659502355,1,1,1,-1,6,7,4,3
1558433659518311,-2,-3,-1,0,-1,-3,-2,-3
1558433659518311,2,1,1,1,-2,0,1,-1
1558433659520306,1,0,0,-2,0,1,1,-2
1558433659520306,0,-2,0,0,1,-4,-5,-2
1558433659533270,-1,-1,-1,2,1,-2,0,-3
1558433659533270,0,0,-2,-2,-2,-3,-5,1
1558433659539255,-3,-4,-2,-4,-11,-7,-3,-3
1558433659539255,-1,-3,-4,-6,-5,-4,3,0
1558433659555212,3,3,2,2,4,3,1,2
1558433659555212,-3,-4,-4,-6,-5,5,-3,-2
1558433659562193,0,-1,2,4,-3,-11,0,3
1558433659562193,-4,-1,-3,-1,-1,-2,-5,-5
1558433659578151,-1,-2,-1,2,-1,-1,0,-3
1558433659578151,0,0,1,-4,-3,0,4,0
1558433659580146,-1,1,-1,0,6,7,2,-1
1558433659580146,-3,-2,-6,-8,-10,-8,-9,-5
1558433659592113,-1,0,1,5,6,2,2,0
1558433659592113,-1,1,1,-3,-4,4,0,-4
1558433659601089,-1,-3,-4,-2,-3,1,-2,0
1558433659601089,4,4,7,12,12,5,3,5
1558433659615052,-3,-3,-7,-14,-9,-3,-7,-4
1558433659615052,-3,-2,2,1,-8,-12,-4,-3
1558433659622033,-1,-1,-9,-9,-3,-4,-3,-2
1558433659622033,0,0,4,9,1,5,3,0
1558433659638988,-1,0,-3,1,8,5,4,0
1558433659638988,-2,1,2,0,5,2,0,-1
1558433659639986,-1,-2,7,1,-4,-4,-5,-5
1558433659639986,-3,-4,-16,-12,-11,-4,-6,-5
1558433659651953,0,0,10,15,3,-1,0,1
1558433659651953,1,0,-8,-16,0,-10,-1,2
1558433659660930,-1,0,4,2,0,-1,-1,-2
1558433659660930,-2,-5,-1,-3,-3,1,0,-2
1558433659675890,1,1,2,1,-5,-6,-2,-1
1558433659675890,1,1,1,10,10,12,2,0
1558433659681908,0,-1,-3,0,4,8,2,3
1558433659681908,-1,0,2,0,-4,-10,-3,0
1558433659698827,-1,-3,-9,-15,-8,-4,-4,-1
1558433659698827,0,-2,0,4,-6,-9,-4,1
1558433659704812,0,0,2,5,9,9,5,2
1558433659704812,1,0,1,-5,-3,-2,-1,-3
1558433659711793,0,1,2,-2,0,4,1,1
1558433659711793,-3,-4,-5,-2,-9,-7,-6,-3
1558433659720770,-1,-4,-7,-6,0,-1,0,-3
1558433659720770,-1,-3,-3,-2,-3,-6,-5,1
1558433659735729,3,5,12,7,4,-2,2,3
1558433659735729,0,-3,-1,0,2,6,4,0
1558433659741713,-3,-4,-9,-1,-1,2,-2,-1
1558433659741713,-2,-1,2,7,0,1,0,-2
1558433659758668,-3,-2,-4,-13,-13,-10,-5,-3
1558433659758668,1,1,3,7,5,5,2,-1
1558433659759666,-1,0,0,-3,0,-2,-1,-1
1558433659759666,-1,-1,-1,6,7,5,2,0
1558433659772632,-2,-2,-1,0,1,4,2,2
1558433659772632,0,-1,0,-1,-4,-8,-4,-1
1558433659781611,-1,0,2,-6,-9,-12,-7,-2
1558433659781611,2,0,-3,-5,-2,1,1,1
1558433659795569,0,-3,-4,-1,3,-2,-4,0
1558433659795569,-3,-3,-3,-6,-4,-2,1,-2
1558433659802552,1,2,6,4,1,6,3,1
1558433659802552,-2,-2,-4,2,4,-4,-3,0
1558433659818510,1,1,2,-1,-1,4,-1,-1
1558433659818510,-1,2,-2,2,2,4,6,0
1558433659819506,0,-3,-1,-4,-6,-6,-2,-1
1558433659819506,1,2,7,5,4,1,-2,1
1558433659832470,0,1,-3,-3,0,2,3,-1
1558433659832470,-1,-4,-9,-4,-6,-8,-8,-3
1558433659841446,-2,-4,-3,-2,-6,-4,-3,-5
1558433659841446,-1,-1,1,-1,-2,2,2,-3
1558433659855435,-2,-1,2,2,-2,1,1,-2
1558433659855435,1,1,-2,-6,2,-7,-2,1
1558433659862392,-2,0,-6,-6,-5,-3,-2,-3
1558433659862392,-1,-2,3,5,0,2,3,1
1558433659878723,-1,0,-4,-3,2,4,-5,-2
1558433659878723,1,0,6,-2,-2,0,1,-1
1558433659880343,-1,-3,-6,1,0,-4,-1,0
1558433659880343,-4,-4,-12,-11,-11,-2,-5,-6
1558433659892685,-2,-4,0,3,-2,-5,-2,-4
1558433659892685,-2,0,4,9,7,8,4,3
1558433659901319,0,0,0,-13,-1,-7,-2,-1
1558433659901319,1,2,6,3,0,-3,-2,-2
1558433659916249,-3,-5,-12,-6,-12,-7,-5,-4
1558433659916249,-3,-3,-2,-1,6,11,-2,-3
1558433659922230,0,3,4,7,4,2,6,2
1558433659922230,0,2,-4,-3,1,-5,-1,0
1558433659938246,-3,-2,0,2,5,0,-4,-4
1558433659938246,-3,-3,-1,0,-10,-5,-6,-3
1558433659945168,-4,-3,-8,-19,-4,1,-5,-4
1558433659945168,-1,-4,-5,-3,-1,0,0,0
1558433659952153,-1,0,4,7,1,0,1,0
1558433659952153,-1,-3,-3,-3,-5,-1,-3,-2
1558433659969107,-1,-1,2,5,4,3,4,3
1558433659969107,-1,0,4,-1,-4,0,-2,-3
1558433659975123,-2,-5,-6,-4,-3,-3,1,1
1558433659975123,-2,0,-10,-5,-2,-5,-7,-3
1558433659982072,0,-1,4,11,1,3,2,2
1558433659982072,-2,0,2,-14,0,-1,0,-1
1558433659998027,-2,-2,-8,-3,-6,-4,-3,-2
1558433659998027,-1,0,4,1,-2,-2,1,1
1558433660005008,1,1,4,7,6,-1,0,0
1558433660005008,-1,0,1,5,1,5,0,-1
1558433660011992,1,2,5,-1,3,1,2,2
1558433660011992,-6,-9,-13,-9,-4,-3,-4,-4
1558433660020966,1,-1,1,2,-2,-2,-3,0
1558433660020966,-1,-1,4,1,0,3,2,-3
1558433660034930,0,1,5,6,1,-4,-2,3
1558433660034930,0,1,-6,-2,2,-3,3,2
1558433660041944,-2,-4,-6,-1,-1,0,-4,-3
1558433660041944,-1,-1,-3,-11,-7,-9,1,-1
1558433660057926,-1,0,2,7,5,4,0,-3
1558433660057926,0,1,3,-2,1,2,3,-1
1558433660064850,1,1,2,7,4,2,-1,-3
1558433660064850,-2,-5,-13,-8,-12,-12,-6,-1
1558433660071866,0,-3,0,1,6,4,-1,-1
1558433660071866,-1,1,6,3,-1,-2,0,-3
1558433660080821,-2,-1,-1,-3,-1,-2,-5,-3
1558433660080821,2,1,4,7,2,-4,-2,1
1558433660095767,-2,-2,-7,-7,-2,1,7,3
1558433660095767,-1,0,5,4,0,-4,-5,-1
1558433660101778,-3,-2,-7,-10,-5,-4,-3,-2
1558433660101778,-2,0,11,5,-3,-1,1,-1
1558433660117707,-1,-1,-9,-2,1,-4,0,0
1558433660117707,-3,-5,-18,-10,-2,6,-1,-1
1558433660124688,-1,-2,3,4,-7,-6,-1,-1
1558433660124688,-2,-5,-8,-3,-2,-3,-6,-2
1558433660140645,-1,0,7,-6,-5,-2,-1,-3
1558433660140645,2,2,5,7,4,1,3,1
1558433660142641,1,1,3,3,-2,-1,2,0
1558433660142641,-3,1,-5,-7,8,8,1,-1
1558433660155650,-2,-2,5,7,2,4,-5,-4
1558433660155650,-3,-1,4,7,-1,-2,-2,-2
1558433660162588,-4,-4,-6,-9,-13,-7,-5,-3
1558433660162588,3,2,-11,-11,9,13,12,3
1558433660177548,-2,-4,-1,-4,-3,-6,-8,-4
1558433660177548,1,-1,1,-1,-2,-2,-4,-2
1558433660184532,-1,-3,2,0,0,1,1,-2
1558433660184532,-2,-3,-3,3,-4,-9,-7,0
1558433660201484,0,0,-3,-4,-5,-2,0,2
1558433660201484,3,1,5,9,5,7,3,2
1558433660202481,0,-1,-1,-9,8,5,1,2
1558433660202481,-1,-2,-5,-3,-6,-7,-4,-1
1558433660215446,-2,-1,-1,-4,-3,-5,-1,-2
1558433660215446,-1,-2,1,-1,-9,-9,-2,-3
1558433660222428,-2,1,-3,3,7,8,2,0
1558433660222428,-4,-2,2,6,0,0,-3,-3
1558433660238384,-4,-3,-5,-2,-2,2,0,-1
1558433660238384,-1,-1,0,-4,0,2,3,2
1558433660244368,0,-2,1,1,-2,-7,-3,0
1558433660244368,-1,-2,-8,-1,-2,1,-2,-3
1558433660261323,-1,1,7,6,1,1,0,-3
1558433660261323,0,1,1,2,0,-4,1,1
1558433660262321,0,-1,-8,-9,-4,-6,-6,-2
1558433660262321,-1,-1,-2,5,3,4,4,2
1558433660275285,0,0,-3,-8,-5,-3,2,-1
1558433660275285,-3,0,-3,2,4,-5,-1,1
1558433660282266,0,2,7,6,-1,5,0,-1
1558433660282266,2,3,11,12,2,3,-1,-1
1558433660298224,0,-2,-5,-9,3,1,-1,0
1558433660298224,-1,-3,-3,-6,-4,-8,-4,-3
1558433660305205,-2,-4,-5,-3,-5,-5,-1,-1
1558433660305205,-1,-2,3,-2,3,5,1,1
1558433660321165,0,1,6,15,1,5,-1,1
1558433660321165,0,0,-5,-8,0,3,0,-1
1558433660322160,-2,0,-5,-3,0,-6,-2,0
1558433660322160,-2,-2,5,2,1,1,0,0
1558433660335125,-2,-4,-3,-3,-3,-5,-1,-3
1558433660335125,1,0,0,3,-1,6,2,0
1558433660342107,1,2,7,1,5,10,-5,-1
1558433660342107,3,2,0,5,6,-11,2,5
1558433660358065,3,-1,-8,-6,1,0,3,2
1558433660358065,-5,-5,-11,-10,-10,-5,-5,-4
1558433660365047,-4,-3,0,-8,-6,-1,1,-2
1558433660365047,-2,-1,-6,-4,-8,-8,-5,-3
1558433660381004,-4,0,6,7,2,0,-2,-2
1558433660381004,-1,0,-2,-5,2,4,0,0
1558433660382001,-3,-2,0,-1,-3,-7,-1,-1
1558433660382001,1,1,1,-2,0,-2,-1,-1
1558433660394968,-3,-3,-3,-1,-3,-3,1,-1
1558433660394968,-1,-1,5,5,1,6,1,0
1558433660409926,-3,-3,-3,-6,-4,-3,-3,-2
1558433660409926,1,0,1,-4,-3,3,3,-2
1558433660417904,0,-1,-6,0,0,-4,0,0
1558433660417904,-1,-2,1,2,-2,-1,2,-2
1558433660424885,-1,-3,-2,7,4,-2,-5,-1
1558433660424885,-1,-4,0,-7,-8,-5,-3,-1
1558433660440844,-1,2,1,-5,-2,-3,-2,-1
1558433660440844,2,1,7,7,0,-3,-4,0
1558433660442839,1,-1,-2,2,0,-1,4,2
1558433660442839,-3,1,-3,7,2,5,-1,-3
1558433660455806,-3,-4,0,-7,-3,-3,-3,-1
1558433660455806,-2,-2,-8,-6,-3,-3,-1,-2
1558433660461787,-2,-2,-3,-3,-9,-14,-4,-1
1558433660461787,0,2,4,2,1,5,1,0
1558433660477746,4,4,15,11,10,8,1,2
1558433660477746,-2,-7,-16,-7,-2,1,0,-2
1558433660484727,-1,-4,-11,-12,-3,-8,2,-3
1558433660484727,-1,-1,0,-7,-12,-2,-4,-1
1558433660500683,-1,2,1,0,-4,-1,-4,-3
1558433660500683,1,4,18,10,8,-2,2,4
1558433660502678,-2,-5,-29,-2,1,1,-4,-4
1558433660502678,-6,-4,-9,-14,-9,-5,-1,-3
1558433660515647,1,-3,-5,-3,-5,-5,-6,-2
1558433660515647,2,3,12,3,2,6,2,1
1558433660522625,2,4,8,6,0,0,-2,-1
1558433660522625,-1,-4,0,2,4,-1,-1,0
1558433660537585,-2,-4,-2,2,-1,3,0,-3
1558433660537585,0,1,2,0,2,-2,1,1
1558433660544566,-2,-1,-2,2,2,6,3,1
1558433660544566,-3,-5,-8,-5,1,0,-2,-2
1558433660560524,1,2,2,-4,0,-2,-2,1
1558433660560524,-3,-5,-3,-4,-4,-7,-2,-3
1558433660562518,0,1,8,1,3,12,5,-2
1558433660562518,0,2,3,7,5,1,0,1
1558433660575483,-4,-2,-6,-4,-5,-2,-2,-1
1558433660575483,0,1,-5,-8,-9,-8,-5,-1
1558433660582465,2,2,6,5,4,-1,0,3
1558433660582465,1,-1,1,-2,-2,-2,4,0
1558433660613387,-3,-3,-8,-7,-4,-2,0,-3
1558433660613387,0,0,0,0,2,5,-2,-2
1558433660615377,1,0,5,1,-2,-1,2,-1
1558433660615377,-2,-2,-1,2,0,-2,-7,-2
1558433660621362,-3,-2,-5,-19,-3,1,1,1
1558433660621362,-1,-1,-5,-4,-5,-5,-2,-2
1558433660622360,-4,-3,1,3,4,2,-1,-3
1558433660622360,1,1,1,1,0,0,-1,1
1558433660634326,1,-1,-4,3,-3,-3,-1,0
1558433660634326,0,-1,-1,-6,3,4,1,-2
1558433660643303,1,1,9,7,-3,-4,0,1
1558433660643303,-1,-2,-14,-13,-3,2,-2,-1
1558433660658264,-3,0,10,15,1,0,-2,-2
1558433660658264,-2,0,0,-16,-2,-3,-2,-2
1558433660664246,-5,-7,-23,-6,-10,-6,-5,-2
1558433660664246,2,0,3,1,1,3,-1,3
1558433660681202,1,-2,-5,-10,-6,-5,5,-1
1558433660681202,0,-1,0,9,10,7,-3,-1
1558433660682198,1,3,13,1,1,3,0,-1
1558433660682198,0,2,9,10,1,-2,-3,-1
1558433660695165,-1,-1,-7,9,5,3,-3,-1
1558433660695165,1,3,1,-5,-6,-5,1,5
1558433660710129,-4,-2,-1,-4,0,-3,2,-5
1558433660710129,2,6,3,13,9,2,-1,-1
1558433660718113,-6,-12,-25,-25,-10,-5,1,-3
1558433660718113,-1,1,-1,0,-11,-9,-4,1
1558433660725087,-2,-5,-13,-10,6,14,-2,-4
1558433660725087,-1,1,16,9,2,-6,0,1
1558433660741047,0,1,11,5,0,6,3,0
1558433660741047,-4,-5,-12,4,1,5,-2,-3
1558433660743038,1,3,13,6,-2,-5,-4,2
1558433660743038,-4,-9,-27,-21,-10,-7,-2,-5
1558433660755014,2,3,2,3,8,3,3,3
1558433660755014,-2,-1,2,3,-8,-7,-3,-6
1558433660763980,-2,-1,4,15,8,-6,-4,-5
1558433660763980,0,-2,3,-12,-18,-2,5,-1
1558433660777945,3,2,-2,-3,2,-2,-4,2
1558433660777945,-2,-2,-2,-5,-2,-5,-1,-3
1558433660784928,1,1,5,11,2,-1,-4,-1
1558433660784928,-3,-4,-12,-18,-9,-9,-4,-3
1558433660800881,2,3,2,4,7,0,-6,-1
1558433660800881,0,0,20,12,0,1,4,4
1558433660802876,1,1,-12,-4,10,10,10,6
1558433660802876,-6,-9,-11,-8,-9,-10,-13,-5
1558433660814845,0,5,18,1,-2,0,-2,-2
1558433660814845,-7,-15,-34,-9,-11,-12,-7,-3
1558433660823819,0,2,7,-5,3,-4,-2,-1
1558433660823819,-1,-1,8,17,17,8,-8,-4
1558433660837786,-1,1,7,-7,-39,-15,4,-1
1558433660837786,5,4,4,1,8,8,4,4
1558433660844764,0,4,11,19,10,5,5,3
1558433660844764,-3,-3,-7,-7,4,0,-4,-5
1558433660860721,-4,-4,-4,-3,-7,-6,-1,-3
1558433660860721,0,-2,-9,-7,-6,2,-1,-3
1558433660866707,3,2,3,-3,-9,-3,2,4
1558433660866707,0,3,-9,-14,-15,3,3,1
1558433660874685,-1,3,21,24,2,-5,-1,-4
1558433660874685,-10,-17,-52,-39,4,-6,-11,-8
1558433660883659,-5,-7,-10,-4,-8,-11,-12,-6
1558433660883659,4,4,11,1,-6,-1,6,2
1558433660897625,-6,-9,-21,-11,4,11,0,-2
1558433660897625,4,9,27,19,-3,-5,2,4
1558433660912582,3,2,3,-6,8,9,4,3
1558433660912582,3,3,13,31,11,-5,-1,2
1558433660920561,-2,-7,-17,-25,0,5,8,3
1558433660920561,5,9,24,13,-2,2,-4,3
1558433660927544,-7,-14,-55,-38,-10,7,1,-4
1558433660927544,2,-3,2,-1,5,6,2,5
1558433660934525,5,5,8,7,20,-8,-11,4
1558433660934525,2,7,13,6,-13,9,15,3
1558433660943500,3,5,35,29,15,-1,3,1
1558433660943500,-11,-16,-48,-45,-31,6,4,-5
1558433660957464,-3,-2,-5,0,-2,-14,-12,-5
1558433660957464,1,3,6,-4,40,15,2,-2
1558433660965443,-2,4,12,-2,-28,-21,-9,-7
1558433660965443,-1,5,19,33,-17,-8,-3,-10
1558433660980402,-5,-12,-32,-22,-17,6,4,-2
1558433660980402,3,4,11,27,37,6,-5,0
1558433660988384,4,8,24,12,22,15,18,7
1558433660988384,-5,-5,-22,4,20,2,-7,-4
1558433660994363,-5,-3,-6,-12,-29,-26,-9,-4
1558433660994363,-2,0,2,-9,-23,-25,-19,-5
1558433661003339,-1,-4,-5,15,23,20,11,-3
1558433661003339,-2,-4,0,-14,5,8,5,3
1558433661018300,1,7,9,5,3,-2,-6,-3
1558433661018300,-1,-4,-8,17,18,5,7,4
1558433661024283,-1,-1,2,-12,-33,-21,-20,-6
1558433661024283,3,2,2,-10,18,4,13,7
1558433661040242,-3,-6,-3,15,-11,-1,4,0
1558433661040242,-6,-6,-11,-22,-10,-9,-1,-8
1558433661047222,-2,-1,-1,-14,-24,-5,-9,-5
1558433661047222,-6,-10,-19,-6,-1,12,-4,-6
1558433661063185,-4,-6,-3,-19,7,-7,-6,-2
1558433661063185,-6,-5,-1,5,-19,-9,0,-9
1558433661065173,-5,-12,-24,-13,-21,-16,-7,-2
1558433661065173,2,5,14,22,22,-2,2,0
1558433661078150,-1,-1,-1,-9,-9,5,-9,1
1558433661078150,5,1,7,16,11,5,-2,0
1558433661085120,-1,-2,-4,-17,-33,-13,-3,4
1558433661085120,2,4,11,2,-6,-11,3,4
1558433661100085,3,2,-1,26,28,11,-6,0
1558433661100085,2,3,11,-10,-25,4,2,0
1558433661107067,0,3,-2,17,11,-1,2,-1
1558433661107067,-4,-7,-16,-20,12,-5,-1,0
1558433661124018,-1,0,13,8,17,15,5,0
1558433661124018,-4,-4,-27,-15,-14,-15,-8,0
1558433661125017,6,10,23,25,47,26,13,4
1558433661125017,0,2,13,-6,-32,-6,-5,-2
1558433661137992,-3,-4,-10,9,25,-5,-8,-5
1558433661137992,-3,3,18,14,0,-3,-8,-4
1558433661144960,-1,-5,-10,-8,-25,-9,9,6
1558433661144960,4,4,5,-4,14,4,4,1
1558433661159923,4,2,0,3,16,7,-1,7
1558433661159923,-3,-3,-8,2,-1,7,17,5
1558433661166912,1,3,5,-17,11,10,10,2
1558433661166912,0,-1,11,-1,-9,-12,-6,-5
1558433661183856,1,-2,-10,-7,-37,2,8,3
1558433661183856,-1,-1,-7,-2,8,2,-4,0
1558433661184854,-5,-6,-11,-11,-12,-1,-13,-11
1558433661184854,5,12,29,7,7,5,5,3
1558433661198822,-5,-3,-14,0,14,4,5,-2
1558433661198822,1,-1,1,1,-7,-7,-3,-1
1558433661205797,-1,-5,-17,-15,-10,-13,-27,-8
1558433661205797,-9,-11,-28,-9,4,-11,-17,-5
1558433661220762,5,15,40,16,-23,2,15,6
1558433661220762,-5,-10,-29,-11,7,14,9,-2
1558433661226742,-3,-4,0,12,12,-8,-8,-5
1558433661226742,2,2,14,13,-14,3,-1,-1
1558433661243697,-4,-7,-16,-34,-8,-12,3,-3
1558433661243697,2,6,21,34,14,3,-6,0
1558433661244694,1,-1,-14,-70,-50,-6,4,3
1558433661244694,-6,-5,-3,25,-18,-2,-1,-5
1558433661257659,4,4,7,-3,10,3,2,0
1558433661257659,-1,-3,0,-6,-15,-6,7,2
1558433661265637,-5,-4,0,24,18,1,3,-4
1558433661265637,0,-1,-5,-11,7,5,-5,-3
1558433661280602,-3,-6,-8,-14,-7,-6,-7,-2
1558433661280602,-1,3,22,0,-15,-7,10,-3
1558433661287581,-8,-15,-37,-5,8,-5,-5,-3
1558433661287581,3,1,2,-8,-21,3,7,4
1558433661303536,0,6,10,31,15,-9,-18,-2
1558433661303536,-1,-8,-14,-35,19,18,18,2
1558433661304533,-2,0,8,19,9,-1,-3,-1
1558433661304533,-4,-2,-5,-13,-13,-17,-8,-3
1558433661317498,-1,4,12,-2,1,5,5,-6
1558433661317498,-4,-7,-12,-8,-18,-3,-14,-5
1558433661326475,0,2,6,10,9,9,9,2
1558433661326475,-1,1,2,-1,21,-8,-2,1
1558433661340437,-5,-5,-7,3,-17,0,-11,-5
1558433661340437,-4,-3,-9,-7,-16,-29,-19,-4
1558433661347440,4,1,3,8,15,12,21,8
1558433661347440,5,6,7,13,3,12,11,7
1558433661363376,1,-3,-6,-3,15,3,0,-1
1558433661363376,-5,-4,-3,1,0,-6,-15,-9
1558433661365370,3,2,1,-8,-4,-3,-4,0
1558433661365370,-4,-2,-3,5,0,-17,-15,-9
1558433661377339,1,-1,-8,-12,-18,-12,5,2
1558433661377339,4,3,6,10,12,19,3,7
1558433661386317,-6,-2,7,5,-4,7,6,-3
1558433661386317,-3,-3,-4,-17,-10,2,0,-2
1558433661400278,-3,-3,-1,-3,-2,-14,-5,-6
1558433661400278,3,4,5,1,-10,-3,5,5
1558433661407263,6,6,5,14,14,14,5,8
1558433661407263,-4,-5,-7,-11,14,3,-9,-6
1558433661423218,2,2,4,3,-13,-3,-10,-1
1558433661423218,-4,-4,-10,-13,0,-5,-8,-4
1558433661425212,2,2,2,-3,-14,-12,-2,4
1558433661425212,-4,-5,-4,3,-1,-3,3,0
1558433661437179,-1,-2,1,4,4,6,7,-2
1558433661437179,1,-1,-9,-6,10,11,0,0
1558433661446157,-2,-1,-3,-3,6,-2,-5,-3
1558433661446157,-1,0,4,6,-1,-6,-1,1
1558433661460117,-4,-4,-3,-4,-15,-13,-4,2
1558433661460117,-2,1,3,-9,-11,-1,7,-3
1558433661467099,0,-3,-3,-16,-9,6,0,-3
1558433661467099,7,7,8,20,8,16,16,11
1558433661484054,-6,-6,-6,5,6,4,0,-7
1558433661484054,-4,-3,-4,-20,-19,-18,-9,-6
1558433661485051,5,7,8,8,31,7,-4,8
1558433661485051,-4,-5,-9,-4,-14,-1,-6,-3
1558433661497018,1,0,1,-1,0,7,12,1
1558433661497018,-4,-5,-10,-10,-12,-13,-13,-8
1558433661505995,-5,-7,-5,-3,-9,-9,-6,-7
1558433661505995,1,3,8,6,12,-3,-1,-1
1558433661519958,2,1,0,6,8,7,5,5
1558433661519958,0,2,7,6,15,13,1,-3
1558433661526939,-1,3,7,-1,-1,-2,1,2
1558433661526939,-3,-4,-7,-6,-3,-6,-5,-3
1558433661543900,0,-3,-1,-6,4,1,-2,1
1558433661543900,-2,-3,-2,-2,-10,-6,1,0
1558433661544892,-4,-3,-3,-5,-14,-9,-11,-7
1558433661544892,-3,-3,-2,2,-3,-1,0,-1
1558433661565840,0,1,-1,1,12,7,7,1
1558433661565840,3,1,1,10,17,9,5,3
1558433661567831,-2,-4,-5,2,-12,-16,-12,-8
1558433661567831,-2,-4,-9,-20,-20,-9,-1,-7
1558433661580809,4,3,4,10,10,0,7,2
1558433661580809,2,3,2,0,8,8,7,3
1558433661586784,-4,-2,-1,1,-5,-3,-3,-2
1558433661586784,0,0,2,4,-8,-8,-9,-2
1558433661602740,-2,-4,-7,-12,-11,-17,-7,-3
1558433661602740,1,-2,2,6,24,22,8,1
1558433661609720,0,-1,-3,0,3,6,2,0
1558433661609720,4,4,3,7,24,14,7,5
1558433661616704,-4,-4,0,5,-9,-10,-4,-1
1558433661616704,-4,-4,-15,-17,-27,-18,-13,-6
1558433661625679,-2,0,9,3,4,-10,-5,-1
1558433661625679,-2,-2,-13,-6,7,11,2,1
1558433661648613,-2,0,3,0,-3,-1,-8,-2
1558433661648613,0,-2,-4,0,-5,-3,0,1
1558433661649611,-2,-1,0,1,-3,-3,-4,-1
1558433661649611,-1,0,4,5,-1,-6,2,2
1558433661663576,1,0,0,-6,-3,-2,-4,-2
1558433661663576,-5,-5,-2,5,2,-4,-3,-4
1558433661664572,2,1,-4,-6,14,7,4,3
1558433661664572,3,2,1,3,1,6,3,2
1558433661677536,-3,-2,-3,0,1,7,0,-4
1558433661677536,-1,-4,1,0,-10,-10,-7,0
1558433661686513,-3,-3,-5,-3,-9,-7,-2,-6
1558433661686513,0,2,2,1,-1,-2,-2,0
1558433661700479,-3,-2,-6,-4,8,8,1,0
1558433661700479,1,1,4,5,6,2,5,0
1558433661707459,0,0,1,-1,-8,-8,-3,-5
1558433661707459,-2,-2,-2,-5,-13,-8,-4,-6
1558433661723422,0,-1,-4,-4,-2,-3,-3,-3
1558433661723422,-2,3,3,2,5,8,4,0
1558433661725414,-1,1,2,9,4,-1,-5,1
1558433661725414,-1,-4,-4,-5,-1,-4,0,-3
1558433661737381,2,1,0,-1,3,1,0,2
1558433661737381,1,0,6,3,0,-4,-1,2
