timestamp,emg1,emg2,emg3,emg4,emg5,emg6,emg7,emg8
1558433694048014,-1,-3,1,4,4,-3,-21,-3
1558433694048014,2,1,3,5,5,8,-11,0
1558433694049011,-1,0,1,1,0,-1,-24,-2
1558433694049011,0,1,2,-4,-6,-6,-18,-2
1558433694050008,3,0,-4,3,6,3,-10,6
1558433694050008,-2,-2,1,-7,-7,-1,-15,-2
1558433694050008,0,0,1,4,4,2,-5,1
1558433694050008,-4,-2,-11,-3,-3,-4,-7,-2
1558433694061978,-1,1,-1,-9,-9,-3,-7,-6
1558433694061978,-1,1,2,6,6,-1,2,2
1558433694069958,0,-1,-3,-1,1,5,-3,-1
1558433694069958,-1,-1,-2,-6,-2,-4,-8,-1
1558433694075938,-1,-4,-5,-8,0,5,0,-1
1558433694075938,-3,-1,5,10,-5,-4,-3,-1
1558433694090899,-2,-3,-14,-23,-11,-7,-4,-4
1558433694090899,2,1,5,15,15,9,4,3
1558433694100888,0,1,6,1,-3,-3,2,1
1558433694100888,-4,-6,-8,-13,-8,-3,1,-2
1558433694105858,-2,-2,-7,-2,-2,-3,-3,-2
1558433694105858,0,0,-2,-3,-3,0,-4,-3
1558433694121815,-1,-1,0,0,-1,-3,-2,4
1558433694121815,2,5,13,4,2,-2,-1,-5
1558433694129794,-2,-1,-6,-1,-3,-5,3,3
1558433694129794,1,1,0,5,5,6,2,-1
1558433694169688,2,2,-5,8,3,-3,3,9
1558433694169688,-7,-8,-10,-31,-11,-8,-2,-9
1558433694169688,-1,-2,5,-2,-3,-5,0,0
1558433694169688,-3,-2,-4,-6,-7,-3,-5,-5
1558433694170684,-1,-2,-4,2,1,5,2,-2
1558433694170684,4,3,5,10,4,-3,5,5
1558433694173677,-2,0,-1,-1,-1,-1,2,-3
1558433694173677,0,-1,1,-2,3,2,5,0
1558433694181659,0,1,2,3,-4,-5,-3,-2
1558433694181659,-3,-2,-8,-3,4,10,3,-1
1558433694188638,-2,-3,-1,-3,-3,-3,-2,-4
1558433694188638,2,3,4,4,3,4,6,2
1558433694195632,-3,-3,-3,-1,-9,-4,-2,-4
1558433694195632,-1,-2,5,1,-1,-4,5,3
1558433694210577,-2,0,1,1,3,4,3,1
1558433694210577,-3,-5,-4,-6,-5,-1,-3,-1
1558433694219555,-1,0,0,-5,-1,-4,0,-1
1558433694219555,2,3,5,11,7,7,2,0
1558433694226535,-1,-3,-8,1,-4,-3,-3,-2
1558433694226535,-2,-4,1,-6,-8,-5,-4,-4
1558433694242493,-2,-3,-8,-10,-1,0,-2,-4
1558433694242493,0,-1,2,4,-2,-3,-3,-2
1558433694248477,-1,-2,-2,-7,0,1,-2,-1
1558433694248477,-2,-1,-4,-2,-9,-8,-2,-1
1558433694256455,1,2,5,4,5,4,2,0
1558433694256455,2,3,7,7,8,2,2,7
1558433694271415,-1,-2,-7,-5,-6,-7,-3,-2
1558433694271415,-4,-5,-9,-4,-4,-4,-8,-3
1558433694279393,-2,-2,-1,-7,-2,-2,-4,-6
1558433694279393,0,1,-6,1,0,-4,-1,1
1558433694286376,-2,0,1,1,-3,-3,-4,-3
1558433694286376,1,-1,2,7,8,11,-1,3
1558433694301336,-1,-3,-2,-6,-4,0,-1,0
1558433694301336,1,1,0,1,3,-3,-4,0
1558433694308316,1,2,7,5,-9,-4,3,4
1558433694308316,-2,-3,-16,-13,1,-3,-1,-2
1558433694316296,-4,-1,8,6,3,5,0,-3
1558433694316296,-2,-5,-7,-6,3,3,0,0
1558433694331257,1,1,-1,1,-5,-6,-2,0
1558433694331257,1,3,6,6,3,3,5,1
1558433694339234,0,0,1,3,-2,-3,-1,1
1558433694339234,-3,-2,1,6,-14,-12,-2,-6
1558433694346215,-3,-5,-21,-32,5,7,1,-2
1558433694346215,2,2,12,15,4,-2,0,1
1558433694362171,-2,0,0,0,-5,0,0,0
1558433694362171,0,1,-1,2,-9,-3,-6,-4
1558433694368156,0,-1,-1,4,4,-1,3,3
1558433694368156,-2,-1,-4,-4,0,-2,0,1
1558433694376135,0,0,2,1,2,0,2,-2
1558433694376135,-2,-1,-2,-5,-2,2,5,-2
1558433694391096,2,2,7,18,6,-4,2,1
1558433694391096,-3,0,0,1,-1,-6,5,-3
1558433694399073,-2,-3,-4,-9,-5,-5,-4,-1
1558433694399073,-1,-2,-5,-6,-5,-5,-5,-3
1558433694406056,-4,-4,-7,-9,2,9,-4,-4
1558433694406056,1,0,4,3,6,3,-3,-1
1558433694422012,2,4,2,5,7,-3,-1,3
1558433694422012,-3,-4,-9,-19,-7,1,-4,-4
1558433694428994,1,1,11,8,-3,-2,-2,-2
1558433694428994,1,3,1,-1,-1,0,-1,-3
1558433694436972,-2,-3,-5,-6,-2,-3,3,1
1558433694436972,1,-1,1,2,3,-5,0,0
1558433694450937,0,0,-2,2,1,1,-2,1
1558433694450937,-2,-1,5,-1,-9,-5,-2,-1
1558433694458914,1,-1,-5,-2,1,0,-4,-1
1558433694458914,-1,-2,0,5,2,7,-4,-2
1558433694465898,-3,-3,1,-1,-1,-6,-5,-4
1558433694465898,-2,-2,-3,-5,-3,-1,-1,-1
1558433694481852,2,2,6,8,2,0,-1,1
1558433694481852,-4,-5,-12,-17,-7,-6,-10,-2
1558433694488834,-3,-1,-1,-1,-2,0,-1,-2
1558433694488834,-1,-3,-7,-2,2,3,2,-1
1558433694495817,1,1,4,1,1,4,3,0
1558433694495817,-2,-1,-2,5,-6,-4,-5,-3
1558433694510774,-1,0,0,-4,3,-1,1,2
1558433694510774,3,5,9,9,5,-12,-1,1
1558433694519751,-6,-9,-13,-12,-5,-1,-5,-1
1558433694519751,-3,-2,4,6,1,6,1,-5
1558433694533716,-2,-2,-8,-8,-7,-5,-4,1
1558433694533716,0,-1,4,1,-1,0,-5,-4
1558433694541693,0,0,0,0,0,2,-5,-4
1558433694541693,2,1,1,-3,1,-3,1,3
1558433694548674,0,2,14,14,-3,-3,-2,-1
1558433694548674,-3,-5,-19,-2,7,6,1,-2
1558433694555656,-6,-8,-15,-19,-12,-11,-6,-5
1558433694555656,1,1,1,-1,4,8,4,1
1558433694571612,1,-2,-3,6,-6,-7,4,0
1558433694571612,0,0,-1,-2,-7,-7,-6,0
1558433694579591,0,1,4,1,0,5,-2,-5
1558433694579591,-2,-2,0,1,-1,3,2,2
1558433694593553,3,2,2,1,7,-6,1,3
1558433694593553,0,0,-1,-4,-6,0,0,-2
1558433694601532,2,1,4,6,0,-8,-1,0
1558433694601532,-1,-2,1,-2,8,12,4,1
1558433694608513,-4,-1,-1,7,3,10,0,-2
1558433694608513,-4,-5,-8,-13,-7,-7,-4,-5
1558433694616493,-1,5,13,2,3,4,2,1
1558433694616493,-2,-3,-10,3,-4,-7,-3,-2
1558433694631453,-1,-5,-15,-19,-2,4,-2,-4
1558433694631453,-4,-2,2,-2,-7,-10,-7,-1
1558433694639430,2,1,4,5,8,5,7,2
1558433694639430,0,4,7,7,-1,-6,1,-2
1558433694653393,1,-1,4,5,8,10,6,0
1558433694653393,3,-1,-5,-3,-3,-2,1,1
1558433694661372,1,-3,-4,-3,-5,-5,-2,-1
1558433694661372,-3,-3,-2,-1,-10,-8,-8,-6
1558433694668355,-1,1,-2,-3,-6,-3,-4,-1
1558433694668355,4,3,10,13,9,9,6,3
1558433694676333,-5,-3,-13,1,1,2,0,-1
1558433694676333,-3,-7,-21,-21,-11,-13,-3,-2
1558433694691293,1,0,8,6,5,3,-2,2
1558433694691293,-5,-5,-8,-14,-6,0,-6,-6
1558433694699271,3,4,9,10,1,2,7,0
1558433694699271,-1,-3,-2,-3,-3,-4,-4,-2
1558433694713235,0,0,0,0,-5,-3,2,-2
1558433694713235,3,5,14,22,15,12,11,5
1558433694721212,-4,-4,-18,-24,-9,-2,-8,-4
1558433694721212,-3,-5,-5,-4,0,1,-2,-3
1558433694728193,-2,-4,-9,-8,-10,-6,-2,-1
1558433694728193,-2,-1,6,-2,-3,-5,-4,-1
1558433694736172,1,0,2,7,6,1,9,7
1558433694736172,3,3,9,7,4,-1,-1,2
1558433694751132,-1,-3,-6,-8,-4,0,-4,-3
1558433694751132,-3,-5,-7,-6,-13,-8,-11,-8
1558433694759111,2,1,3,4,0,-4,1,2
1558433694759111,2,4,9,9,-2,-6,7,2
1558433694773074,-2,0,4,10,10,10,5,-2
1558433694773074,-1,-4,-7,-9,-4,-2,2,0
1558433694782051,-3,-5,-4,-1,4,6,-3,-4
1558433694782051,1,3,6,3,2,4,3,3
1558433694789031,-1,-1,-1,-1,-3,-5,-7,-1
1558433694789031,-2,-1,0,-7,-5,-2,-4,-3
1558433694804988,-1,1,18,4,-13,-11,-6,-6
1558433694804988,-2,-4,-20,7,14,9,5,2
1558433694819947,0,1,7,-3,3,-3,-2,0
1558433694819947,1,0,-16,-13,2,6,2,1
1558433694820945,-1,-1,0,-4,-4,-3,-2,-2
1558433694820945,-1,2,8,0,-7,-7,-5,-1
1558433694833913,-1,0,0,4,-4,1,4,-2
1558433694833913,0,3,4,7,5,-3,3,0
1558433694842888,-3,-3,-10,-8,-5,-4,-3,-4
1558433694842888,-1,-1,1,-3,-3,1,-3,-3
1558433694848878,-2,-3,-1,-1,3,4,0,2
1558433694848878,-2,-1,0,-1,-4,-8,-3,-1
1558433694872807,1,0,0,0,3,-1,-1,2
1558433694872807,-1,0,7,5,6,2,1,0
1558433694873805,0,-4,-12,-17,-13,-3,-2,-6
1558433694873805,-2,-2,4,4,0,0,-7,0
1558433694879787,-1,-1,-7,-6,-5,-5,-7,-3
1558433694879787,0,0,6,2,-2,-1,-1,-1
1558433694893752,-1,-2,-8,-6,-5,-7,-6,-6
1558433694893752,1,3,6,1,7,10,9,1
1558433694902728,-2,-3,-5,-4,-12,-4,-6,0
1558433694902728,-1,-4,-13,-11,-5,-11,-6,-2
1558433694908711,-2,-1,-4,0,4,1,-2,-1
1558433694908711,-2,-3,-2,4,-9,-8,-2,-4
1558433694924668,0,0,5,4,5,3,2,-1
1558433694924668,-2,-2,3,-2,-8,-4,-3,-2
1558433694931652,-1,0,-1,-2,-2,-4,-6,-2
1558433694931652,0,0,2,3,5,-1,6,3
1558433694939631,-1,-1,-3,1,3,6,-3,-3
1558433694939631,1,1,0,0,-1,-6,-1,0
1558433694953595,-1,-1,1,7,4,-3,-1,2
1558433694953595,-2,-2,-2,-11,-6,4,-6,-1
1558433694962567,1,2,0,4,1,-11,-1,5
1558433694962567,0,0,-4,-5,4,6,0,-1
1558433694968551,0,0,3,-4,-4,-1,-4,1
1558433694968551,-2,-3,-1,1,-1,0,-4,-6
1558433694984507,-1,-3,-9,-5,0,6,2,-1
1558433694984507,-1,1,1,3,1,4,1,1
1558433694991490,1,0,1,3,0,-8,-2,1
1558433694991490,2,0,2,6,5,2,2,0
1558433695000466,-2,0,1,-7,-4,0,-2,-3
1558433695000466,-5,-3,3,10,2,6,1,-3
1558433695013430,0,-2,-5,-4,0,-3,-2,1
1558433695013430,0,-1,-8,-6,-4,0,-3,0
1558433695022408,-2,-2,0,7,-1,-1,-6,-5
1558433695022408,-1,-4,-6,-13,0,-1,0,-2
1558433695028391,0,0,9,9,-3,-4,-3,-1
1558433695028391,0,2,2,6,10,2,6,4
1558433695045345,-4,-4,-14,-15,-11,-7,-5,-4
1558433695045345,2,1,3,4,2,-1,3,5
1558433695051330,-5,-6,-8,-4,-6,-5,-4,-5
1558433695051330,1,2,2,-13,-2,8,4,-1
1558433695060307,2,1,3,13,9,1,-1,0
1558433695060307,-3,-3,-2,-8,-6,-5,-6,-4
1558433695074267,0,0,-1,-4,-2,7,4,1
1558433695074267,-2,-2,-1,2,-4,-11,-4,0
1558433695082262,2,0,2,-3,-1,2,-1,-1
1558433695082262,-3,-2,-3,0,1,3,-1,-1
1558433695088291,0,2,5,1,-6,-10,-5,-1
1558433695088291,0,-1,-6,6,11,17,8,6
1558433695105188,-1,0,-2,-6,7,7,4,-1
1558433695105188,4,1,3,11,5,-4,0,4
1558433695111171,-4,-4,-4,-2,-3,3,-7,-6
1558433695111171,-1,-3,-6,-17,-10,-4,-1,-3
1558433695120153,-1,0,7,1,-6,-13,-3,0
1558433695120153,-3,-3,-18,-7,-10,-1,-3,-5
1558433695134108,0,2,19,15,11,7,-1,1
1558433695134108,-4,-8,-32,-16,-13,-13,-11,-5
1558433695143093,0,-1,1,2,0,2,1,1
1558433695143093,1,0,4,-7,-10,-7,-6,0
1558433695156097,0,0,4,11,11,8,10,3
1558433695156097,0,2,7,-2,0,-4,-5,-3
1558433695165027,-2,-2,-7,-5,-5,-1,2,0
1558433695165027,-3,0,1,0,-1,2,0,-2
1558433695179095,-2,-3,-9,-7,2,9,6,0
1558433695179095,0,0,11,9,1,-5,-2,3
1558433695187968,-2,-4,-2,3,-1,1,0,-4
1558433695187968,-2,1,1,-11,-7,-4,-9,-5
1558433695193949,-1,-1,-4,-3,5,4,4,1
1558433695193949,-1,1,2,7,1,-1,-2,-2
1558433695202930,-3,0,-4,-5,-6,-4,-3,0
1558433695202930,0,-1,2,2,2,-5,1,0
1558433695215896,0,1,1,-2,-2,-6,1,-2
1558433695215896,-1,0,-3,0,-2,-1,-3,-1
1558433695224868,-3,-3,-1,0,-5,-2,-5,-5
1558433695224868,1,-1,6,-4,6,5,2,-1
1558433695240114,-1,0,-12,-8,-2,1,3,0
1558433695240114,-3,-2,2,2,-4,-5,-5,-5
1558433695241822,-1,1,1,2,9,7,2,1
1558433695241822,-2,-3,-1,5,1,4,0,-2
1558433695253790,1,0,4,-6,-11,-12,-8,-2
1558433695253790,-2,-2,-5,0,4,11,2,-2
1558433695262765,0,-1,2,5,-1,-7,-1,0
1558433695262765,-1,-1,2,5,4,-3,1,0
1558433695275729,-2,-2,-10,-14,-13,-5,-3,-3
1558433695275729,-2,-4,-2,0,-5,0,-2,-2
1558433695284706,1,3,5,5,6,3,4,2
1558433695284706,-2,-3,-12,-9,0,2,1,0
1558433695300664,2,4,9,7,3,-6,0,0
1558433695300664,-5,-9,-12,-8,-5,-4,-1,-3
1558433695301662,-2,2,9,3,-4,-5,-5,-1
1558433695301662,-2,-3,-10,-1,-2,1,-2,-1
1558433695313794,1,3,-1,1,-1,-3,4,3
1558433695313794,-1,0,7,5,5,2,-5,-3
1558433695322609,2,2,0,6,2,4,5,1
1558433695322609,-1,-1,-2,1,-2,-2,-3,-2
1558433695336815,-1,-6,-11,-18,-3,2,-3,-3
1558433695336815,2,-1,4,4,0,5,6,3
1558433695344821,0,-1,2,2,5,-1,-6,-1
1558433695344821,3,1,-6,-1,-5,-6,0,-1
1558433695359506,-4,-1,-2,3,3,4,0,-1
1558433695359506,-1,0,1,-3,-1,-3,-2,-1
1558433695366487,-4,-3,-4,-7,-8,-11,-6,0
1558433695366487,0,2,6,3,2,4,2,-1
1558433695373471,-2,0,-3,4,-1,-1,-2,0
1558433695373471,-2,-1,0,-1,-2,-1,-3,-3
1558433695382446,0,-3,-4,-4,-2,3,2,0
1558433695382446,-1,-2,4,4,-3,-8,-6,-3
1558433695396617,0,-1,2,2,0,2,-1,1
1558433695396617,-3,0,-4,-8,-2,-3,-2,-5
1558433695405397,-1,-3,-3,0,-8,-7,2,0
1558433695405397,2,3,0,4,10,6,3,1
1558433695419547,-5,-6,-6,-5,-5,-5,-2,-3
1558433695419547,1,0,2,-2,-4,-2,-1,1
1558433695426333,-1,-1,-4,-7,-4,3,1,-3
1558433695426333,1,1,7,-1,-2,-3,2,0
1558433695433495,1,-1,-3,8,8,8,6,1
1558433695433495,-2,-1,-1,2,-5,-10,-9,-1
1558433695442286,-2,-1,6,3,-3,-4,-3,-4
1558433695442286,2,1,0,-4,4,5,2,2
1558433695456249,-1,-3,-12,-4,2,-2,-2,-2
1558433695456249,0,-1,1,2,4,3,3,2
1558433695465227,-1,-2,-5,2,5,2,-3,1
1558433695465227,-5,-2,-2,-9,-8,-5,-5,-4
1558433695478187,-2,-1,4,0,-11,-10,-8,-4
1558433695478187,1,1,2,7,12,12,6,2
1558433695487163,0,0,1,-1,1,2,0,1
1558433695487163,-2,-3,-3,-2,-2,-1,-1,-2
1558433695493147,1,1,4,2,-1,5,0,-3
1558433695493147,-3,-2,-2,-12,-11,-13,-3,-1
1558433695502160,2,2,4,-9,-3,0,1,2
1558433695502160,0,-1,-8,3,12,7,3,1
1558433695516117,-2,-2,-5,-7,-6,-1,-4,0
1558433695516117,-1,1,5,5,-8,-6,-2,-3
1558433695525062,-3,-4,-7,-10,-6,-5,-4,-4
1558433695525062,-2,0,4,6,-4,-1,0,-1
1558433695539024,-2,-4,-2,0,1,-3,-1,-2
1558433695539024,1,1,-3,-4,1,4,3,1
1558433695547036,2,1,2,3,3,-1,-1,-2
1558433695547036,-2,-2,-2,1,1,1,0,0
1558433695553984,-1,0,5,6,4,2,6,3
1558433695553984,-2,-1,-2,1,-7,-8,-5,-5
1558433695562961,-4,-1,-4,-4,-1,3,-5,-4
1558433695562961,-2,-1,-2,-3,3,12,3,-1
1558433695575927,4,5,12,9,7,-5,4,5
1558433695575927,-2,-6,-6,-6,-2,-3,-2,-2
1558433695584905,-1,-3,-1,-4,-2,0,0,-1
1558433695584905,-4,-2,-4,-4,-6,-3,-5,-4
1558433695598897,-2,-2,0,-3,-11,-9,-8,-4
1558433695598897,3,3,7,9,9,4,5,5
1558433695607850,0,2,2,7,5,-3,-1,1
1558433695607850,-1,-3,2,-10,-5,-4,-4,-4
1558433695614062,-4,-8,-25,-7,-3,6,0,-6
1558433695614062,0,0,4,3,0,-6,-4,6
1558433695622803,-4,-4,-3,-1,-6,0,-4,-5
1558433695622803,0,3,11,6,-3,-4,3,1
1558433695635769,1,0,2,1,4,3,-1,0
1558433695635769,0,0,3,4,4,0,-6,-1
1558433695652729,2,1,-9,-5,-1,-3,8,7
1558433695652729,-2,-3,-4,-3,-9,-7,-4,-4
1558433695658707,-3,-1,5,3,7,13,6,1
1558433695658707,1,1,0,1,-2,-6,-5,-3
1558433695667686,-1,1,2,0,-1,-3,0,-1
1558433695667686,0,-1,-4,-5,0,3,0,0
1558433695673666,-1,0,-2,-4,-6,-8,-5,1
1558433695673666,-2,-2,1,2,-3,2,-2,-5
1558433695682640,-2,-3,-6,-7,2,6,1,-3
1558433695682640,0,0,4,6,0,-5,0,1
1558433695704582,-1,-1,-1,-7,-6,-6,-4,-3
1558433695704582,-3,-4,-7,-10,-4,-4,4,0
1558433695706577,-3,-7,-13,-10,-9,-3,-3,-4
1558433695706577,3,2,5,12,7,1,3,2
1558433695718544,-1,2,3,-4,1,-2,-3,-2
1558433695718544,-1,-1,1,2,-4,3,0,-2
1558433695727521,-1,1,-1,-1,-2,-3,-1,0
1558433695727521,-3,-2,-3,-2,0,3,3,2
1558433695733504,0,2,3,2,1,-7,-3,1
1558433695733504,1,-2,-11,-4,1,3,0,-2
1558433695742481,-1,-2,4,4,-1,2,-5,-2
1558433695742481,-1,-4,-12,-12,-3,-4,-5,-2
1558433695756729,-1,-1,-1,-4,-8,-6,-5,-3
1558433695756729,-1,0,-1,-3,3,4,6,-1
1558433695765422,1,2,8,7,2,-3,-3,5
1558433695765422,-2,0,4,3,-1,-6,0,-2
1558433695778415,-4,-4,-9,-5,-2,5,-1,-5
1558433695778415,-2,-5,-10,-16,-5,-8,-5,-1
1558433695787449,2,0,4,6,6,3,5,2
1558433695787449,-1,0,3,2,-1,1,-3,-2
1558433695793345,-2,-4,3,2,-2,2,-3,-6
1558433695793345,-1,2,-2,-12,-5,-4,0,-2
1558433695802393,1,1,1,8,9,0,1,1
1558433695802393,-3,-3,-1,3,-8,-5,-4,0
1558433695816316,-1,1,-6,2,4,4,2,0
1558433695816316,-1,-1,-2,1,3,6,3,2
1558433695825262,-1,0,-8,-6,-6,-2,0,-3
1558433695825262,-1,-2,-3,-5,-4,-3,-3,-1
1558433695839224,1,0,2,-3,2,-1,-2,-1
1558433695839224,1,3,6,5,4,-2,5,4
1558433695847207,-1,-4,-10,-12,-7,-3,-1,-1
1558433695847207,0,-1,2,7,5,5,0,0
1558433695853229,1,3,-4,-11,3,1,6,5
1558433695853229,-3,-5,-1,-2,-7,-4,-6,-5
1558433695862202,-3,-1,3,5,4,6,2,-3
1558433695862202,0,-1,-3,-3,-6,-8,-7,-3
1558433695876156,-2,-2,2,4,-2,-3,-4,-2
1558433695876156,2,3,3,10,8,7,7,7
1558433695885100,-2,0,0,-7,-3,-3,-3,0
1558433695885100,-2,-3,-5,-5,-10,-4,-1,-2
1558433695898065,0,-1,-2,2,-1,-1,1,2
1558433695898065,0,1,7,-2,1,-2,-1,-2
1558433695907041,-1,-4,-5,-2,-4,-1,-4,-2
1558433695907041,-4,-3,-2,-15,-7,-2,-1,-3
1558433695922351,1,-2,-10,1,0,5,6,4
1558433695922351,0,-3,0,0,1,-2,-4,-1
1558433695923996,-2,-1,5,1,3,0,-2,3
1558433695923996,0,3,6,-1,0,-3,1,-1
1558433695935968,0,0,4,4,3,4,2,1
1558433695935968,-2,-4,-6,-3,-5,-2,0,-1
1558433695945157,-2,1,0,-1,-5,-2,-4,-6
1558433695945157,0,-1,-3,2,7,0,0,0
1558433695958902,-4,-1,1,7,-8,-13,-3,-4
1558433695958902,-1,-1,-8,-17,-4,-7,-5,2
1558433695968141,0,-1,-2,2,6,5,6,0
1558433695968141,-1,-2,-6,-5,-5,2,-1,-1
1558433695983067,-2,-2,2,1,-1,-2,-5,-2
1558433695983067,-1,0,2,3,-2,-1,-4,-3
1558433695983837,-2,-3,-1,-4,-7,-8,-3,-3
1558433695983837,0,-2,-6,-14,-2,-1,-4,-4
1558433695996801,1,-1,3,7,1,-3,-3,-2
1558433695996801,1,0,-8,4,5,0,4,2
1558433696004932,0,-1,2,1,-1,0,1,1
1558433696004932,0,0,-1,5,5,5,-2,0
1558433696018954,-1,-1,2,-4,-2,-9,-4,0
1558433696018954,-4,-1,1,-1,-7,-4,-8,-5
1558433696027728,-1,-2,-1,-1,-3,-3,0,0
1558433696027728,-1,0,-2,0,2,1,2,2
1558433696042678,-1,1,1,-3,-3,0,-2,1
1558433696042678,-6,-3,-2,2,-6,-2,-5,-9
1558433696043675,-3,-7,-7,-8,2,2,-1,-1
1558433696043675,3,3,5,-4,2,0,-2,2
1558433696056797,0,-1,0,-1,2,7,3,0
1558433696056797,1,0,1,6,5,2,2,-1
1558433696064831,1,1,1,1,-3,-8,-2,-2
1558433696064831,0,-2,0,0,-8,-10,-4,-4
1558433696078770,0,-1,-6,-3,5,5,1,1
1558433696078770,-2,-3,-1,0,-6,-2,-4,-5
1558433696087564,-1,-1,-4,-5,-9,1,3,-2
1558433696087564,-2,-1,-1,3,6,-2,1,2
1558433696102729,-1,0,3,-2,2,1,-3,-1
1558433696102729,-2,-1,1,-3,-7,-3,-3,0
1558433696103520,2,3,3,5,14,18,12,3
1558433696103520,-3,-3,-2,2,-2,-2,-4,-5
1558433696116481,0,-1,-3,-3,-7,-1,-1,-5
1558433696116481,-4,-3,-1,-7,-1,-1,-4,-2
1558433696125456,1,1,5,4,-1,-7,-4,-3
1558433696125456,1,-1,-4,-3,2,0,1,4
1558433696138726,0,1,5,6,3,1,0,-1
1558433696138726,-1,-1,-3,0,-1,3,0,-1
1558433696147623,0,0,-3,-2,-4,-8,-4,0
1558433696147623,0,0,4,4,4,2,3,0
1558433696162702,-2,-1,-2,-1,-2,-2,2,-1
1558433696162702,-1,-1,-5,-12,-4,2,2,1
1558433696163356,-1,-2,-3,-2,2,-6,-6,-2
1558433696163356,-3,-4,-5,-3,-6,0,-3,-3
1558433696176320,0,-1,1,0,-3,-7,-5,0
1558433696176320,-1,0,3,5,10,5,2,1
1558433696185571,0,0,-4,-5,-9,-6,-2,0
1558433696185571,-2,-4,-3,-2,2,6,3,0
1558433696198354,-4,-4,-6,-9,-13,-12,-9,-6
1558433696198354,-1,-2,1,6,-3,-6,-1,-2
1558433696207429,0,-2,-1,0,6,8,4,3
1558433696207429,0,1,1,3,-4,-7,-1,-1
1558433696222494,-1,-1,2,-2,0,3,-2,0
1558433696222494,-1,-1,1,-6,-5,0,-2,-3
1558433696224199,-2,-1,1,1,0,2,-1,-3
1558433696224199,1,-1,-13,-1,-1,-1,3,1
1558433696236372,-3,-3,-6,-7,4,-2,-2,-3
1558433696236372,-1,0,2,2,-3,-7,-1,-2
1558433696245149,-1,0,2,-1,-4,1,-1,-1
1558433696245149,-2,1,3,-3,0,2,-6,-2
1558433696258102,-2,-3,-6,-4,-9,-9,-4,-3
1558433696258102,0,-1,-2,7,5,5,4,1
1558433696267307,0,0,-3,-12,0,-1,0,-1
1558433696267307,-3,-1,1,-6,-5,-7,-5,-3
1558433696282255,2,-1,-2,-2,0,6,2,3
1558433696282255,2,1,4,11,8,-2,3,3
1558433696284037,-3,-4,-5,-2,-3,-1,-5,2
1558433696284037,-2,-2,-2,-9,-6,-2,1,-3
1558433696296212,-2,-2,-2,-5,-9,-6,-4,0
1558433696296212,-1,2,1,-4,1,1,0,-1
1558433696304977,-1,-4,-4,6,1,-1,-2,-1
1558433696304977,-1,-2,-4,0,-5,-6,-2,-3
1558433696318939,-1,-2,0,0,1,-1,2,1
1558433696318939,2,3,3,2,2,1,6,5
1558433696327914,-3,-1,-1,-13,-7,-2,-3,-4
1558433696327914,-1,-3,-4,-11,2,6,-2,-2
1558433696342875,-2,-3,-4,0,4,7,2,-2
1558433696342875,-1,-2,-3,1,-5,-9,-5,-1
1558433696343872,0,0,3,4,3,-1,0,0
1558433696343872,-1,0,0,-6,-1,1,1,-1
1558433696356174,-1,-2,-5,-2,-3,-2,0,-1
1558433696356174,0,-2,-3,-4,-4,-4,-3,0
1558433696364818,-1,-2,0,0,-5,-6,-7,-6
1558433696364818,-4,-4,1,7,1,2,3,0
1558433696379084,1,1,0,-4,0,3,6,2
1558433696379084,-1,0,-1,0,4,5,-4,-1
1558433696387758,1,1,2,10,4,4,7,3
1558433696387758,0,-1,6,1,-7,-11,-6,-2
1558433696402993,-4,-4,0,3,-1,-6,-4,-2
1558433696402993,-3,-3,-12,-19,-12,-5,-9,0
1558433696403716,-2,-3,-4,-1,4,4,-2,-3
1558433696403716,1,0,2,10,4,1,2,0
1558433696416820,0,2,3,2,-4,0,0,-1
1558433696416820,0,-1,1,7,5,6,3,0
1558433696424660,-1,1,1,-12,-2,-1,-1,0
1558433696424660,0,-1,-7,-4,-7,-7,0,-2
1558433696438863,-1,-1,1,-3,-6,-7,-6,-2
1558433696438863,-4,-3,-4,-2,-1,3,2,-1
1558433696447597,-2,-1,2,4,3,4,0,-2
1558433696447597,1,0,2,1,-1,-8,-8,0
1558433696462777,-1,1,2,1,4,2,4,2
1558433696462777,-1,0,0,-1,-2,-3,1,1
1558433696463564,0,-3,0,18,8,0,0,0
1558433696463564,-3,-2,1,-23,-6,6,-2,-2
1558433696476518,-1,-3,-17,-5,-3,-4,-5,-3
1558433696476518,-1,-4,2,2,-4,-2,-2,-3
1558433696485495,2,2,0,2,6,1,5,5
1558433696485495,-2,-1,1,7,1,-1,-1,-1
1558433696498669,-1,2,4,-3,-4,-5,-1,-2
1558433696498669,2,1,4,5,8,2,1,0
1558433696507439,-2,-3,-5,-5,-8,-3,-4,-3
1558433696507439,1,0,-5,6,3,1,4,0
1558433696522401,0,0,1,-13,2,1,-2,-2
1558433696522401,-1,-2,-3,0,0,4,1,-1
1558433696523391,-3,-1,0,-2,-8,-7,-6,-4
1558433696523391,1,-1,-3,-4,0,1,-2,-1
1558433696536359,-2,-3,-1,4,5,5,5,0
1558433696536359,1,1,0,-1,2,-7,0,1
1558433696545363,-1,-2,1,-2,-10,-4,-2,-2
1558433696545363,-1,-1,-4,1,0,4,0,-2
1558433696558300,-1,-1,6,3,-4,-3,-4,-5
1558433696558300,-3,-5,-9,-8,-5,-2,-5,1
1558433696567275,2,2,3,6,12,-4,0,1
1558433696567275,-3,-2,-9,-14,-5,-2,-5,0
1558433696582304,1,1,5,6,2,0,3,2
1558433696582304,-1,-1,-5,-5,-1,3,5,-1
1558433696584233,-3,-3,-1,-2,-5,-3,-5,-4
1558433696584233,-3,-1,3,9,2,-4,-2,-4
1558433696596518,1,2,4,6,6,7,2,2
1558433696596518,-1,0,-5,-11,-7,-4,-1,-1
1558433696605177,0,-3,-5,-5,0,0,-1,1
1558433696605177,2,1,6,5,7,6,3,-1
1558433696618166,0,-4,-2,0,-9,-12,-7,-1
1558433696618166,-1,-1,3,8,-2,-3,-2,-3
1558433696627441,-3,-3,-8,-13,-2,2,1,-1
1558433696627441,0,0,2,8,1,1,2,3
1558433696642075,-2,0,-2,-4,1,1,0,-2
1558433696642075,0,0,1,-4,-1,2,-2,-1
1558433696649160,-5,-6,-9,-7,-7,-4,-6,-5
1558433696649160,-2,-4,-2,1,-7,-4,-1,-1
1558433696656309,4,4,1,10,20,10,12,11
1558433696656309,1,1,3,2,3,1,0,1
1558433696665015,-3,-2,-2,-3,-7,-2,-1,-2
1558433696665015,-2,-3,-3,-7,0,2,0,0
1558433696679180,0,-1,3,-1,-2,-4,-1,-3
1558433696679180,0,-2,-4,1,-1,0,-3,-3
1558433696687960,0,0,1,2,0,-3,2,2
1558433696687960,-1,1,0,2,-1,-2,0,-4
1558433696702143,-4,-3,-2,-3,-5,-2,-5,4
1558433696702143,-3,-3,-9,-8,-3,-6,1,-3
1558433696708896,1,1,2,0,1,5,0,-1
1558433696708896,-3,-4,-3,2,-3,-1,-1,-2
1558433696715912,-3,-2,-5,-9,-3,-1,-5,-8
1558433696715912,1,1,4,9,1,6,2,3
1558433696724853,0,-1,-4,-7,-4,-11,-3,2
1558433696724853,0,1,1,3,3,0,4,4
1558433696738815,2,1,1,0,2,0,-3,0
1558433696738815,-2,-1,4,9,2,6,1,0
1558433696747798,-1,0,2,-6,-7,-3,-3,-4
1558433696747798,-1,-3,-4,1,5,2,0,2
1558433696761789,-2,-4,-2,-3,-5,-4,-6,-4
1558433696761789,-3,-1,3,-1,-5,-7,-4,-1
1558433696768770,-1,-2,-1,4,1,-5,3,-1
1558433696768770,1,3,4,4,7,9,4,3
1558433696775715,-3,-2,-9,-13,-10,-5,-3,-4
1558433696775715,-3,-3,-1,-9,-8,-6,-3,-2
1558433696784691,-1,0,-4,4,-3,-2,-4,1
1558433696784691,-2,-2,1,-5,-3,4,-2,-2
1558433696799007,-1,-3,-2,4,-3,1,-2,-3
1558433696799007,4,4,5,3,15,3,5,5
1558433696807632,-2,-2,-2,-5,-4,1,-1,-3
1558433696807632,1,-2,-2,4,-5,-6,0,0
1558433696822594,-1,-1,2,2,-5,-2,0,-2
1558433696822594,-2,-2,-5,-13,-3,-3,-1,-2
1558433696828942,1,1,6,9,4,2,-1,2
1558433696828942,-1,0,-9,-10,-8,-11,-6,-3
1558433696836755,0,-1,-2,-1,4,4,0,0
1558433696836755,-1,-4,-5,-3,-1,-3,-1,-2
1558433696844907,-2,-1,0,1,-7,-6,-8,-1
1558433696844907,-1,2,4,5,0,-4,3,-2
1558433696858495,-3,-3,-3,0,-3,1,1,0
1558433696858495,1,0,-1,4,5,2,2,-1
1558433696867593,0,1,5,7,1,0,-1,-2
1558433696867593,-6,-5,-9,-19,-11,-5,-4,-2
1558433696881481,0,0,-1,2,4,0,1,0
1558433696881481,0,0,1,1,0,1,-2,-1
1558433696888719,0,0,-2,-3,2,-3,-2,-1
1558433696888719,0,0,1,-1,-1,2,-2,0
1558433696905710,-4,-1,0,1,4,2,0,-2
1558433696905710,-2,0,4,-4,-7,-6,-6,-3
1558433696906370,-2,-4,-10,-3,-2,2,-1,-2
1558433696906370,2,-1,-6,-5,5,7,4,3
1558433696918335,-2,-2,2,-1,-3,-2,1,-1
1558433696918335,-1,-4,1,7,-3,-5,-4,-3
1558433696927407,-3,0,-4,-17,-8,-6,-4,-3
1558433696927407,-1,1,1,3,4,4,1,-1
1558433696941274,1,-2,0,-1,4,5,-1,-2
1558433696941274,-2,1,-4,-1,-7,-6,-5,-1
1558433696948325,-1,-1,-2,1,4,6,4,2
1558433696948325,-1,-3,-1,-3,0,-2,-2,-1
1558433696965557,1,1,-1,-3,-1,-8,-2,2
1558433696965557,-1,-1,-2,-4,-6,-3,-1,0
1558433696966207,2,2,3,5,11,7,6,2
1558433696966207,-2,-2,2,1,-3,-1,-3,-2
1558433696979402,-2,-3,1,-2,-10,-4,-4,-2
1558433696979402,-3,-4,-5,-3,-5,-3,-6,-3
1558433696987492,0,1,-2,-9,5,3,9,1
1558433696987492,-2,-4,-2,-3,-5,-5,-5,-4
1558433697002112,1,-1,0,3,3,-3,2,-2
1558433697002112,-1,-1,-3,-8,-4,2,1,-1
1558433697008096,-1,-1,-3,3,-3,1,-2,0
1558433697008096,-1,1,3,0,1,2,0,-2
1558433697025050,0,-1,-4,-4,-4,-6,-4,2
1558433697025050,1,1,4,10,2,-11,-1,-1
1558433697026046,-2,-1,5,2,2,8,1,2
1558433697026046,1,-1,-9,-7,-2,-3,0,0
1558433697039390,-2,-1,-2,1,2,2,2,2
1558433697039390,-3,-3,-5,-3,0,2,-2,-3
1558433697047427,-2,-4,-1,-4,-7,-4,-5,-4
1558433697047427,1,1,4,4,3,-1,3,2
1558433697062303,0,0,2,4,5,7,2,-1
1558433697062303,1,3,3,1,3,2,5,0
1558433697069234,-1,-3,-3,0,-6,-10,-2,0
1558433697069234,-3,-4,-3,0,-5,-3,-6,-5
1558433697085113,-1,-1,-6,-16,-5,-4,0,-3
1558433697085113,-1,-1,2,0,0,5,0,2
1558433697085893,2,2,0,1,3,1,0,0
1558433697085893,-3,-1,4,-1,-5,-4,-7,-3
1558433697098886,-1,-3,-1,9,11,5,2,3
1558433697098886,-1,-1,-3,-5,-10,-8,-1,-1
1558433697107837,-2,-1,-4,-6,-2,0,1,-1
1558433697107837,0,-1,0,7,5,-3,-2,0
1558433697121791,-1,-2,4,-4,-7,0,-6,-3
1558433697121791,-1,-1,-2,-5,-1,1,-2,-2
1558433697128990,-2,-3,-2,10,-5,-3,-4,-1
1558433697128990,2,0,-4,-12,9,3,5,4
1558433697144729,1,1,-5,-4,-5,0,1,3
1558433697144729,-2,-5,-5,-3,-1,-2,-3,-2
1558433697146725,-1,1,4,-1,-5,-6,1,-3
1558433697146725,-2,-3,2,7,-8,-6,-3,2
1558433697158692,-3,-1,1,4,4,1,-2,-5
1558433697158692,0,-2,-2,-3,1,1,0,1
1558433697167667,-2,0,-1,-1,1,3,-2,-1
1558433697167667,0,0,2,0,-6,-9,-2,0
1558433697181631,-1,-2,-5,-2,-2,-4,-1,1
1558433697181631,-1,0,9,10,1,1,-3,-1
1558433697188613,-1,-5,-5,-8,0,1,3,-1
1558433697188613,-3,-2,-4,-3,-2,2,1,-3
1558433697205071,-3,-3,-6,-4,-8,-7,-6,-2
1558433697205071,0,1,2,1,4,5,4,1
1558433697206613,1,1,3,5,1,1,-3,0
1558433697206613,-1,0,0,-4,1,-1,-1,-1
1558433697218897,-2,-4,-9,-5,-8,-2,0,-2
1558433697218897,-2,-6,-6,-1,-4,-2,0,-3
1558433697227519,-2,0,4,4,2,-2,-3,-2
1558433697227519,-3,-2,-3,-13,-4,-1,-2,-2
1558433697241472,-2,1,3,-1,-4,-3,-3,-1
1558433697241472,1,0,3,3,6,-1,1,-1
1558433697248810,-1,-2,-5,-6,-2,-1,1,0
1558433697248810,-2,-2,-6,4,-1,-3,-5,-2
1558433697265419,-1,1,5,2,-1,-3,2,0
1558433697265419,-3,-5,-9,-10,-12,-5,-7,-5
1558433697266404,-1,1,2,8,3,3,3,1
1558433697266404,2,1,-4,-11,-2,3,2,-2
1558433697278716,1,1,9,10,5,-3,-2,1
1558433697278716,0,0,-6,-8,4,-1,2,1
1558433697287543,0,-4,-4,-2,-3,-4,-4,-4
1558433697287543,-1,0,6,8,0,3,1,1
1558433697301600,-2,0,-3,-3,0,-6,0,-1
1558433697301600,0,2,2,-5,0,7,2,0
1558433697308293,-1,-1,-7,0,6,3,0,0
1558433697308293,0,0,4,0,-3,-1,-2,-2
1558433697325247,-2,-4,-2,2,0,-3,-5,-2
1558433697325247,1,1,-1,0,-1,-1,4,3
1558433697326243,-1,-1,1,-3,-2,-4,-2,-2
1558433697326243,-1,-1,4,10,1,6,2,-1
1558433697338212,-1,-1,0,-8,-1,3,0,-4
1558433697338212,-2,-2,-9,3,-1,-5,-5,-2
1558433697347187,-1,-2,1,-2,-5,-7,-2,3
1558433697347187,2,2,2,2,9,7,3,3
1558433697362609,2,1,3,-3,-2,-2,-6,-1
1558433697362609,-2,-2,-1,2,-3,-2,2,-1
1558433697369383,-2,-3,-7,-13,-3,-1,-1,-2
1558433697369383,-3,-4,-4,0,1,-5,-2,-3
1558433697385451,-1,-1,2,-1,-6,1,1,-1
1558433697385451,-1,-2,-9,-3,0,-2,-4,-2
1558433697387126,-1,1,1,1,-2,-2,-1,-4
1558433697387126,0,1,2,1,-2,-3,1,0
1558433697399096,-3,-2,-1,-2,4,1,2,0
1558433697399096,-1,-2,-3,1,2,3,0,1
1558433697407378,2,4,17,16,0,-2,-3,0
1558433697407378,-6,-8,-24,-33,-14,-6,-8,-6
1558433697422353,3,4,0,4,7,8,8,2
1558433697422353,-2,-3,4,-3,-2,-3,-3,-1
1558433697429326,1,0,-4,1,4,4,4,3
1558433697429326,0,0,4,9,5,1,0,2
1558433697445240,-2,-1,0,-2,-4,-4,-4,-5
1558433697445240,-2,-2,-9,-2,-7,-3,0,-1
1558433697446161,1,1,1,3,-3,-3,-1,-1
1558433697446161,-3,-3,-1,3,-2,-3,-3,-1
1558433697458890,1,-1,-7,-13,2,3,0,0
1558433697458890,-3,-1,6,7,6,-1,2,-2
1558433697467870,-2,-2,-2,-8,-7,-7,-6,-3
1558433697467870,-1,1,1,6,-1,2,2,-1
1558433697481859,-2,-1,1,4,1,-4,-1,0
1558433697481859,1,0,1,-8,-5,-5,-5,-3
1558433697489054,-3,-4,-4,0,-1,1,0,0
1558433697489054,-2,-2,2,-1,-2,-4,-1,-2
1558433697505026,0,-1,1,-5,2,-1,0,3
1558433697505026,-2,-4,-9,0,-4,0,-1,-2
1558433697506959,-1,-1,-5,-3,6,7,5,2
1558433697506959,0,-1,4,5,1,-5,-2,0
1558433697518984,-1,-2,-2,2,-7,-4,-6,-4
1558433697518984,0,1,4,3,-3,-10,-5,-3
1558433697527705,-2,-2,-8,-16,-2,3,4,-2
1558433697527705,3,3,13,10,8,5,2,4
1558433697540860,-4,-4,-17,-9,-4,0,-2,-3
1558433697540860,-2,1,10,6,2,5,1,1
1558433697549908,-1,-4,-4,-5,-11,-11,-9,-4
1558433697549908,1,4,2,9,8,2,7,2
1558433697564906,0,2,5,2,0,1,1,1
1558433697564906,-3,-5,-6,-10,-2,1,-2,0
1558433697566600,-3,-1,2,-1,0,3,-10,-5
1558433697566600,-2,-2,-5,-7,-4,0,6,0
1558433697578596,-3,-2,8,13,-3,-6,-5,-2
1558433697578596,1,0,-4,-4,7,6,1,0
1558433697587545,-3,-3,-7,-14,-6,0,1,0
1558433697587545,0,-6,-3,1,-5,-6,-6,-2
1558433697602508,-1,-2,-3,-2,-5,-3,-3,-2
1558433697602508,0,1,7,2,-1,-1,0,2
1558433697608860,1,3,4,7,6,1,-1,1
1558433697608860,-3,-4,-9,-9,-6,0,-1,-1
1558433697624165,0,-2,-3,-10,-6,-5,-1,0
1558433697624165,-1,-1,-1,0,5,6,-3,-3
1558433697630954,-3,-2,-3,2,-2,0,0,-1
1558433697630954,-2,3,4,6,1,-1,1,-3
1558433697639106,-2,-5,-4,-6,-3,-2,-4,-1
1558433697639106,0,-1,-2,4,-3,-2,1,-1
1558433697647756,-2,-1,3,3,0,-2,-4,-5
1558433697647756,0,-1,0,-5,3,6,1,3
1558433697662512,0,1,2,0,1,-2,-6,1
1558433697662512,0,1,1,-9,-5,-8,-4,-2
1558433697669414,-1,-1,1,11,-2,0,1,0
1558433697669414,1,-1,-7,-12,-4,3,0,0
1558433697684444,1,0,4,5,6,1,3,-1
1558433697684444,0,0,-1,0,-1,0,2,1
1558433697691070,-1,-1,-3,-4,0,-10,-5,-1
1558433697691070,-3,-1,0,-2,-1,-1,-2,-2
1558433697699348,-2,-1,-3,-1,-5,4,0,-5
1558433697699348,0,-2,8,5,-2,1,3,0
1558433697707341,0,-1,-6,0,3,1,4,-2
1558433697707341,1,-6,-13,-6,1,-3,-3,-1
1558433697721279,-2,-1,0,-5,-1,-2,-1,-1
1558433697721279,-1,0,4,8,0,0,-5,-2
1558433697729973,-4,-2,-5,-8,-4,2,5,2
1558433697729973,0,0,3,5,1,-4,-4,-2
1558433697744961,-2,-3,-4,1,6,6,6,1
1558433697744961,1,1,-1,-2,-5,-5,-4,0
1558433697750911,0,-1,4,4,1,3,-4,-2
1558433697750911,-3,-2,-3,-1,-5,-6,-5,-4
1558433697758887,0,-1,-3,6,-1,-1,0,1
1558433697758887,-4,-3,-8,-14,-1,-1,0,1
1558433697767863,0,0,4,9,10,4,7,0
1558433697767863,-2,-1,-1,-6,-6,-3,-2,-1
1558433697781943,-2,1,4,2,1,0,0,0
1558433697781943,-3,-3,-4,-3,-1,2,-1,-3
1558433697789803,-3,-1,-1,0,-4,-4,-6,-2
1558433697789803,-2,0,4,5,-8,-9,-7,-2
1558433697803766,0,1,-6,-13,0,7,4,0
1558433697803766,0,0,-5,1,3,6,6,2
1558433697810749,-1,-3,-7,-6,-1,-11,-3,4
1558433697810749,-2,-1,5,7,-6,-5,-5,-3
1558433697827730,2,3,10,4,2,-1,-1,0
1558433697827730,0,-2,-6,-7,0,6,-1,-2
1558433697828699,-2,-2,-3,-2,-6,-1,0,-1
1558433697828699,-1,-2,-4,-3,-6,-9,-6,-2
1558433697840668,-1,-3,-5,-6,1,3,6,0
1558433697840668,0,2,7,9,6,-2,-2,1
1558433697850071,-2,0,-2,-11,0,6,-3,-2
1558433697850071,-3,-3,-2,-2,-4,-1,-4,-2
1558433697864605,0,1,1,7,-2,-10,2,1
1558433697864605,2,-1,6,0,-1,-3,1,0
1558433697870999,-2,-2,-8,-3,-8,-4,-3,-3
1558433697870999,-4,-3,-1,0,4,6,0,-2
1558433697887987,-2,-3,-12,-10,-1,-2,-3,-2
1558433697887987,-3,-1,-2,2,-4,-2,2,0
1558433697889689,3,1,7,7,3,1,4,2
1558433697889689,0,-1,-1,-2,4,7,3,0
1558433697901888,-1,-1,-2,1,-1,-1,-3,-1
1558433697901888,0,-1,-4,-7,-10,-12,-5,-3
1558433697909821,1,1,10,13,3,0,0,2
1558433697909821,-3,-3,-10,-10,-1,2,5,0
1558433697924447,-1,-1,-4,5,1,0,0,-1
1558433697924447,-2,-1,-2,-2,1,-1,-3,-2
1558433697931670,0,2,4,-4,-2,4,0,-2
1558433697931670,2,1,5,9,6,-1,3,0
1558433697947383,-3,-1,-1,-2,-4,-5,-4,-2
1558433697947383,-2,-3,-5,-7,-3,0,0,-3
1558433697948380,-3,0,6,5,1,-3,-1,-2
1558433697948380,0,1,2,1,2,-1,-2,0
1558433697961655,-3,-8,-11,-6,-10,-4,-7,-5
1558433697961655,1,1,3,5,3,5,3,2
1558433697970570,0,-2,-5,-6,2,1,0,1
1558433697970570,1,2,3,-1,0,1,2,0
1558433697984580,-1,-1,2,4,-2,-1,-1,-3
1558433697984580,-3,-3,1,2,-3,-9,-8,-6
1558433697991272,1,2,7,5,1,-2,2,2
1558433697991272,0,0,-7,-4,0,-1,1,-1
1558433698007499,0,1,5,-1,5,6,-1,1
1558433698007499,-3,-5,-4,-1,2,3,-1,-1
1558433698009261,0,0,0,-3,1,1,0,1
1558433698009261,-2,0,1,-2,-10,-6,-7,-4
1558433698021552,0,-1,-8,-2,1,-1,1,3
1558433698021552,-2,0,3,0,-1,-3,-2,-2
1558433698030205,0,0,5,-2,0,-7,0,1
1558433698030205,0,-3,-14,-17,-8,2,4,0
1558433698044483,1,1,10,0,1,-6,-7,3
1558433698044483,0,-2,-20,-6,-4,-3,0,0
1558433698051474,0,-2,-4,-1,-1,-4,-6,-5
1558433698051474,-1,1,6,5,4,6,3,-1
1558433698067409,-1,0,8,9,-2,-2,-1,-3
1558433698067409,1,2,-1,0,5,-3,-5,2
1558433698069338,-1,-3,-1,-2,-1,7,5,0
1558433698069338,-1,-2,-3,4,1,-13,-1,3
1558433698081069,1,1,5,0,-2,0,-2,0
1558433698081069,0,0,2,4,-7,-4,-2,-1
1558433698090044,-2,-4,-7,-6,-2,4,-3,-5
1558433698090044,-3,-2,-7,-4,4,-3,-1,-1
1558433698105003,0,0,-4,-2,6,4,3,2
1558433698105003,-2,-2,2,0,0,1,1,-1
1558433698111245,-1,0,2,3,-10,-14,-4,-3
1558433698111245,-1,-1,-1,-11,1,7,-3,-3
1558433698128123,0,-2,-8,-4,-6,-5,2,-3
1558433698128123,-2,-2,-3,-8,-3,-5,0,0
1558433698128944,-2,0,-2,-1,-5,-4,-1,-3
1558433698128944,3,5,19,20,11,11,4,2
1558433698140909,-4,-7,-16,-5,-2,1,-4,-4
1558433698140909,1,3,11,5,-2,0,0,-1
1558433698156157,-2,-3,-22,-20,-2,-1,1,0
1558433698156157,-1,-1,2,3,-1,-4,-2,-1
1558433698165000,-1,2,8,1,2,0,-1,-1
1558433698165000,-2,-1,0,0,-2,-1,-1,-1
1558433698171124,-2,-4,-2,1,-4,-7,-5,-1
1558433698171124,2,1,0,-4,-1,1,0,1
1558433698187781,0,-1,-3,-3,-1,3,4,2
1558433698187781,-1,-4,2,2,0,0,2,-3
1558433698188779,-1,0,-2,-2,4,-2,-3,0
1558433698188779,-2,-2,-3,0,-5,-4,-6,-3
1558433698201885,-2,-2,2,2,-3,-4,-3,-3
1558433698201885,2,4,6,10,4,2,1,2
1558433698210016,-3,-5,-16,-13,-9,-2,2,-2
1558433698210016,-3,-4,0,1,-8,-8,-6,-3
1558433698224103,0,-1,1,4,6,5,0,1
1558433698224103,-1,-3,-3,0,2,6,0,1
1558433698230987,0,0,8,1,-2,-1,-1,-1
1558433698230987,-1,-2,-11,-2,2,1,0,-1
1558433698247731,-4,-2,-3,-7,-10,-6,-5,-5
1558433698247731,-2,0,-2,0,2,-1,-1,-3
1558433698248751,3,6,11,12,11,8,5,3
1558433698248751,-7,-6,-7,-11,-8,-5,-1,-4
1558433698261856,1,1,4,2,4,3,1,2
1558433698261856,-4,-3,-10,-15,-7,3,2,-1
1558433698270843,1,2,5,7,0,-3,-4,-1
1558433698270843,2,4,5,3,0,2,3,2
1558433698284850,-3,-5,-9,-6,-4,-8,-6,-4
1558433698284850,-3,-4,-2,0,-3,-3,-2,0
1558433698290811,-1,-1,2,-4,0,1,-4,-2
1558433698290811,-1,0,1,0,-4,-1,-3,0
1558433698307461,1,2,0,-9,0,6,11,2
1558433698307461,1,0,1,1,3,-9,-4,1
1558433698308458,-2,-2,0,2,-3,-5,-6,-5
1558433698308458,-1,1,1,-4,6,5,4,-1
1558433698321750,-4,-7,-4,16,-7,-5,-6,-4
1558433698321750,-3,-4,-10,-17,-10,0,-4,-5
1558433698330400,0,0,-3,-2,-3,-2,2,1
1558433698330400,-1,-5,-6,-4,-3,-1,-5,-4
1558433698344722,3,4,2,2,4,-3,4,4
1558433698344722,-2,-2,0,-2,-1,2,-3,-4
1558433698351651,-1,-2,11,11,-1,-1,-2,-1
1558433698351651,-2,-5,-21,-21,-4,-1,1,0
1558433698367311,1,2,5,0,-6,-11,-2,1
1558433698367311,0,1,0,-3,2,1,0,0
1558433698369300,0,0,2,6,3,-1,-1,0
1558433698369300,0,0,8,9,6,3,4,2
1558433698381263,-4,-2,-6,-7,-2,1,-4,-2
1558433698381263,0,0,0,5,-5,-9,-3,-3
1558433698390253,-4,-4,-3,-9,-9,-6,-2,-1
1558433698390253,-1,-1,5,3,2,2,1,1
1558433698404557,0,1,3,12,11,11,4,-1
1558433698404557,-1,-1,-6,-13,-5,-4,1,2
1558433698411593,-2,-3,-8,-7,1,5,-1,-2
1558433698411593,-1,-1,1,3,-4,-9,-5,1
1558433698427557,1,1,6,3,1,-3,1,0
1558433698427557,0,-3,-4,4,4,8,3,1
1558433698434204,-1,-2,-3,-1,0,1,0,-1
1558433698434204,-1,-1,0,3,-2,-9,-5,-1
1558433698441104,-2,-2,-6,-11,0,3,-3,-3
1558433698441104,-1,0,6,11,2,2,5,0
1558433698450083,-2,-1,-8,-19,-4,0,2,1
1558433698450083,-1,-1,3,7,-2,0,-5,-5
1558433698464182,0,0,2,1,3,0,-1,1
1558433698464182,-3,-2,-6,-2,-2,-4,-4,0
1558433698471322,-1,1,3,1,2,1,-2,-2
1558433698471322,-1,-6,-2,2,2,2,2,1
1558433698487279,-4,-2,-3,-8,-2,-1,-5,-5
1558433698487279,2,2,6,4,-3,-5,-3,0
1558433698494241,1,0,8,9,2,1,0,-1
1558433698494241,-1,0,-18,-5,-3,-6,-2,0
1558433698501247,-3,-5,-8,-16,-7,0,1,-2
1558433698501247,0,0,9,9,0,2,0,1
1558433698510037,-2,-4,-14,-6,-4,-4,-5,-2
1558433698510037,3,5,13,9,7,7,10,4
1558433698524044,-1,-2,-2,1,-4,-6,-3,-3
1558433698524044,-3,-2,-5,-5,0,1,0,0
1558433698531862,0,1,0,0,0,-1,0,-1
1558433698531862,-2,-1,3,1,-4,-4,-7,-4
1558433698547064,-3,-4,-9,-9,-5,-4,-2,-2
1558433698547064,0,0,3,-2,4,4,8,0
1558433698554042,-1,0,4,5,-2,1,-4,-2
1558433698554042,-2,-6,-17,-20,-4,0,2,-2
1558433698561007,0,0,3,7,-4,-2,-1,-1
1558433698561007,-1,1,5,4,4,0,-6,0
1558433698569761,-2,-4,-16,-17,-10,-7,-3,-5
1558433698569761,-3,-3,4,-5,-8,-5,-4,-2
1558433698583759,0,-1,1,0,-2,-3,-6,-1
1558433698583759,0,0,-6,-2,4,10,6,2
1558433698590704,0,0,6,11,7,-3,-3,1
1558433698590704,-1,1,4,3,3,4,0,-1
1558433698606664,-1,0,-4,-5,-4,-4,1,0
1558433698606664,-2,-3,-1,-2,-8,-5,-5,-4
1558433698613676,-1,0,-2,-3,-3,-1,-2,-2
1558433698613676,-2,-3,-1,-5,-9,-6,-5,-4
1558433698620660,2,2,8,18,9,8,1,3
1558433698620660,-3,-5,-16,-10,1,-3,-4,-3
1558433698629600,-6,-7,-3,0,-3,-1,2,0
1558433698629600,2,3,7,6,7,-2,2,3
1558433698644882,-3,-2,-2,-3,-2,0,-3,0
1558433698644882,-1,-2,-5,-4,-11,-11,-3,-2
1558433698651868,1,0,-10,-5,-2,3,-2,0
1558433698651868,-2,2,11,21,8,9,-1,-2
1558433698667498,-1,1,0,-16,0,0,0,1
1558433698667498,1,1,0,0,5,-3,1,2
1558433698673832,-4,-5,-11,-5,-5,-3,0,-2
1558433698673832,3,0,4,3,1,-2,-1,2
1558433698681571,-2,1,9,7,-2,-4,-4,-4
1558433698681571,-2,-3,-4,-5,4,3,2,0
1558433698689872,3,5,13,17,10,6,5,-1
1558433698689872,-2,-4,-15,-13,-7,-3,-1,5
1558433698704735,-3,-2,-1,0,-6,-3,-5,-5
1558433698704735,1,0,1,2,-4,-5,-5,-2
1558433698711690,0,0,-2,-4,-5,-5,-2,1
1558433698711690,0,-2,-2,-3,-3,-2,0,-5
1558433698727438,0,-2,-1,10,3,-5,0,1
1558433698727438,3,2,-2,-8,2,1,0,4
1558433698733599,0,0,11,12,4,-1,2,-2
1558433698733599,-3,-4,-13,-23,-11,-1,-3,-4
1558433698750542,1,-1,-6,-6,-4,2,1,0
1558433698750542,-3,-3,0,3,2,3,-3,-5
1558433698751277,2,0,1,-9,0,-1,-1,2
1558433698751277,-1,-1,-5,-2,-2,1,-2,-1
1558433698764489,-2,-2,-1,4,0,-2,2,-3
1558433698764489,0,0,2,-1,-5,-8,-1,-1
1558433698771494,-1,-2,5,4,0,-4,0,-2
1558433698771494,-4,-3,-3,1,0,-1,-3,-3
1558433698786209,0,-2,-5,-1,3,4,3,1
1558433698786209,1,1,3,4,0,2,-1,0
1558433698801180,-3,-2,-5,-9,-6,-3,-1,-2
1558433698801180,0,1,5,9,1,-5,1,-2
1558433698810591,-2,-3,-8,-9,-3,3,-1,1
1558433698810591,-2,-2,-2,-3,0,3,-2,-3
1558433698811116,0,2,1,2,-1,-8,-6,0
1558433698811116,1,3,3,-1,0,2,2,-1
1558433698824333,-2,-3,3,8,4,5,2,0
1558433698824333,-4,-4,-4,-10,-5,-5,-6,-4
1558433698831062,-2,-4,-9,-8,-10,-3,-2,-2
1558433698831062,-2,-4,-6,-2,1,-5,1,1
1558433698847017,-3,0,3,-4,-3,-4,-3,-2
1558433698847017,-1,-2,1,3,2,4,0,0
1558433698853001,0,2,5,3,3,3,1,1
1558433698853001,0,-1,-9,-2,0,-4,0,2
1558433698869955,1,-1,-5,-6,-5,-3,-2,-1
1558433698869955,-1,0,1,6,1,-2,-2,0
1558433698870989,-1,1,-2,-15,-8,0,0,-2
1558433698870989,-2,-2,4,5,1,-2,-3,-3
1558433698883918,0,-1,-1,0,1,-2,0,-1
1558433698883918,0,1,1,-1,-5,-2,1,-1
1558433698890900,-2,-1,-2,3,8,6,0,-4
1558433698890900,-1,-1,-1,-2,-1,0,-3,-1
1558433698906857,-3,-3,0,1,-6,-5,-7,-5
1558433698906857,-3,-4,-1,2,-7,-10,-1,-4
1558433698913851,-2,-1,-4,-4,-5,-1,0,0
1558433698913851,0,1,5,4,3,6,4,-1
1558433698929823,2,2,4,7,10,4,2,2
1558433698929823,-1,-2,-8,-11,-3,-5,-5,-1
1558433698930821,-4,-4,-2,1,-6,-12,-1,-4
1558433698930821,-2,-4,0,-11,-4,3,1,-2
1558433698945022,-4,-1,-3,-1,-4,1,2,-3
1558433698945022,0,3,14,19,14,10,4,0
1558433698951172,0,-1,-16,-10,-4,-7,0,4
1558433698951172,0,-1,2,0,1,-5,-6,-3
1558433698966698,1,1,6,-4,-4,-2,-4,-3
1558433698966698,-6,-8,-15,-11,-9,0,-2,-5
1558433698973692,-1,0,6,7,4,7,1,2
1558433698973692,1,3,5,10,1,0,1,-1
1558433698990633,0,0,-2,-7,-4,-7,-2,3
1558433698990633,-3,-3,-4,-7,-6,-3,-3,-2
1558433698991635,-3,-3,0,-3,1,-1,-2,-1
1558433698991635,-2,-1,3,7,2,-1,-2,-1
1558433699004597,1,-1,-5,-5,0,-1,-4,1
1558433699004597,0,-1,3,-1,-1,-5,-2,0
1558433699011008,-3,-2,-6,-3,-2,3,-1,-2
1558433699011008,-1,-1,0,3,0,-2,2,0
1558433699026538,1,4,7,8,6,8,6,4
1558433699026538,-3,-5,-15,-6,0,-2,-2,-3
1558433699033783,-1,-2,2,0,-1,3,-5,-3
1558433699033783,-3,-1,1,-1,-5,-3,-4,-2
1558433699049485,-3,-2,-9,-4,-13,-5,-1,0
1558433699049485,3,2,2,-13,6,3,5,5
1558433699051471,2,2,5,6,9,-3,1,3
1558433699051471,-2,-1,-4,-2,-3,-3,-6,-2
1558433699064666,-2,-2,-2,-5,-4,-2,1,-1
1558433699064666,-1,1,1,2,-3,5,0,-2
1558433699071417,2,0,14,15,-2,2,-1,2
1558433699071417,-3,-3,-20,-13,-4,-1,-3,-1
1558433699087457,-1,-4,-3,-13,3,-4,4,1
1558433699087457,0,-1,2,0,-7,-7,-5,0
1558433699093360,0,2,3,-1,3,6,1,-1
1558433699093360,1,3,8,4,0,-5,-3,-3
1558433699110315,-3,-5,-8,-3,-7,-2,-5,-5
1558433699110315,1,2,0,2,3,-1,1,1
1558433699111313,0,0,-1,-7,8,4,3,-1
1558433699111313,-2,-3,0,1,-4,0,-1,-3
1558433699124306,-3,-1,0,9,1,-5,-1,-2
1558433699124306,-3,-3,-3,-15,-9,-3,-3,-3
1558433699131257,0,-1,-8,2,-4,-6,-3,-1
1558433699131257,1,-2,-5,-7,3,-2,-3,2
1558433699147581,0,1,8,4,4,2,3,0
1558433699147581,-1,0,0,9,8,11,2,0
1558433699153207,-5,-3,-1,-9,-9,-5,-4,-4
1558433699153207,1,2,-2,2,-1,-8,3,3
1558433699170153,-1,-1,-3,-4,-3,-4,-4,-1
1558433699170153,-1,0,7,6,6,1,-1,-3
1558433699171151,0,-2,0,9,-4,-5,-3,-3
1558433699171151,-2,0,3,1,-1,5,-1,-2
1558433699184117,-3,-4,-9,-11,-4,-1,0,-1
1558433699184117,-1,0,0,4,0,2,0,0
1558433699191106,-2,-3,-10,-12,-4,-4,-2,-1
1558433699191106,1,0,3,-1,2,1,0,-1
1558433699207060,1,-1,1,0,-6,-2,-3,0
1558433699207060,0,-2,1,9,1,-7,7,2
1558433699213057,0,0,-3,-1,-4,-2,3,1
1558433699213057,-7,-4,-2,-1,0,5,-3,-5
1558433699230256,-1,-1,0,-3,3,-2,-2,-3
1558433699230256,2,0,-4,-13,-1,-4,-2,2
1558433699230992,-1,2,17,11,3,5,1,-1
1558433699230992,-4,-8,-34,-18,-8,-6,0,-1
1558433699242997,1,0,1,3,3,2,-1,-1
1558433699242997,0,2,8,7,2,3,-5,-3
1558433699251934,-1,-2,2,-3,2,3,-1,-2
1558433699251934,2,4,7,-8,-6,-3,-4,2
1558433699266932,-4,-4,2,10,7,2,-2,-3
1558433699266932,-1,-1,-8,-5,-4,-4,5,2
1558433699273876,-5,-1,3,-3,-5,-5,-6,-5
1558433699273876,-2,-4,-6,1,-1,-1,-5,-2
1558433699289862,2,2,10,9,11,0,-1,2
1558433699289862,-3,-4,-11,-3,-5,3,1,-3
1558433699290832,-2,-5,-7,-13,-1,1,0,0
1558433699290832,-1,2,7,3,4,2,2,1
1558433699303829,-1,2,1,-6,-10,-9,-3,-4
1558433699303829,-1,-1,12,6,3,1,1,0
1558433699312772,0,-1,-21,-9,-10,-8,-5,-2
1558433699312772,1,2,1,-5,9,10,7,2
1558433699326734,0,0,-5,-3,-3,1,4,3
1558433699326734,2,4,17,7,1,1,0,1
1558433699333983,1,2,4,10,17,10,2,-1
1558433699333983,-4,-8,-13,-5,-15,-9,-4,-1
1558433699349673,0,-2,-12,-11,5,-3,-4,-5
1558433699349673,-2,-1,-2,2,-5,-4,-4,1
1558433699351668,4,7,7,-1,1,-2,-1,1
1558433699351668,-4,-3,25,8,7,-3,-10,-3
1558433699363637,-4,-4,-21,1,-13,-1,6,2
1558433699363637,-12,-22,-53,-24,-8,-6,-9,-8
1558433699372618,1,0,10,12,17,4,3,-1
1558433699372618,6,12,29,15,-1,0,1,0
1558433699386574,-2,-5,-12,-12,-27,-4,-4,-2
1558433699386574,3,8,21,13,14,3,2,5
1558433699393566,-3,-4,-13,-24,-22,-4,-7,-1
1558433699393566,-2,-2,-2,11,-2,-14,0,-4
1558433699409513,2,4,8,2,23,4,1,2
1558433699409513,-2,-3,-3,9,-8,-5,-6,-2
1558433699411509,-2,-2,6,8,14,7,0,1
1558433699411509,1,2,-3,-14,-25,-3,0,-1
1558433699423477,1,4,10,2,-4,-13,-12,0
1558433699423477,-3,-6,-7,-3,-13,-8,7,-3
1558433699432453,0,5,3,3,8,-13,-5,-5
1558433699432453,-6,-15,-16,-4,2,22,7,-2
1558433699446416,-4,-6,-6,-5,40,-1,-1,-2
1558433699446416,0,0,-1,-18,-33,-7,-4,-2
1558433699453395,-1,-1,-5,9,9,-5,0,3
1558433699453395,0,1,-2,-24,-19,-8,4,1
1558433699469354,0,4,22,35,19,9,2,-2
1558433699469354,0,-1,-7,-24,11,5,-8,1
1558433699476334,-5,-6,-8,-2,6,-2,-4,-3
1558433699476334,0,0,-1,6,14,1,1,2
1558433699483315,-3,-3,7,9,-20,-1,1,-3
1558433699483315,5,9,15,3,-9,-10,-8,-4
1558433699492297,1,-2,-3,-3,-6,10,6,1
1558433699492297,5,6,7,1,-7,-6,-1,4
1558433699506410,-4,-5,-6,-6,-25,-5,-2,-3
1558433699506410,-4,-6,-3,13,11,0,-15,-3
1558433699513235,3,4,9,1,-2,4,13,5
1558433699513235,-2,-1,1,4,18,10,6,2
1558433699529196,-6,-10,-21,-31,-50,-10,-1,-4
1558433699529196,2,8,17,14,4,-17,-6,-2
1558433699536366,-5,-10,-22,-39,-64,5,4,0
1558433699536366,0,0,0,-17,-16,-9,5,-3
1558433699543157,4,6,7,13,6,7,6,4
1558433699543157,-3,-7,-20,-25,-2,-3,2,-2
1558433699552133,3,2,20,34,29,-10,-13,0
1558433699552133,4,5,-8,2,-3,7,19,11
1558433699567301,-5,-7,-6,-21,-18,1,-21,-4
1558433699567301,4,3,2,-4,7,3,13,3
1558433699574086,-4,-2,8,21,32,-8,-1,-6
1558433699574086,-2,1,-2,2,-34,-6,-6,-2
1558433699589032,6,6,8,22,54,22,6,6
1558433699589032,1,3,15,-9,-12,2,5,6
1558433699596013,-4,-10,-34,-21,-20,-12,-14,-2
1558433699596013,-3,1,24,34,41,1,-1,-4
1558433699602995,-3,-8,-35,-13,-17,-3,2,-3
1558433699602995,-12,-10,-9,-27,0,-14,-29,-15
1558433699611972,-1,-5,-18,-17,-3,5,18,4
1558433699611972,-4,-9,-15,-14,4,3,-22,-5
1558433699627197,5,9,23,15,-7,-17,-3,3
1558433699627197,4,4,10,37,33,20,16,5
1558433699632917,-1,3,-5,-15,-24,-6,1,-2
1558433699632917,1,0,-3,-18,-25,-5,-21,-3
1558433699650869,-2,-3,-3,1,30,16,8,3
1558433699650869,2,3,-2,-6,15,-6,-6,-2
1558433699656145,1,1,18,18,-13,5,4,1
1558433699656145,2,4,5,8,10,-1,-1,-1
1558433699671812,-4,-4,-11,-22,-33,-12,-17,-7
1558433699671812,4,4,7,8,-20,8,20,7
1558433699673807,-3,-7,-9,-9,-2,9,13,2
1558433699673807,-3,-1,-5,-5,8,-6,-7,-5
1558433699686781,1,-1,6,-7,24,-1,2,-1
1558433699686781,-4,-1,-1,24,-5,8,-4,-10
1558433699693753,0,6,8,-11,13,-3,-9,-2
1558433699693753,4,4,3,-14,-8,0,15,6
1558433699709711,2,0,-11,-19,1,9,4,5
1558433699709711,-2,-1,4,12,-17,-14,-15,-4
1558433699715694,-2,-4,5,5,-2,13,6,2
1558433699715694,0,0,1,25,49,10,13,1
1558433699732648,1,3,8,9,-2,-3,-5,-2
1558433699732648,-1,0,-6,-11,-19,-5,1,1
1558433699733646,-4,-2,-3,-11,-10,-15,-19,-8
1558433699733646,-5,-7,-8,15,26,4,-2,-3
1558433699746612,-2,0,18,4,-15,-13,0,-3
1558433699746612,-2,-7,-21,-13,-11,13,6,-1
1558433699753795,-3,-4,-5,14,17,-5,-5,-4
1558433699753795,-8,-12,-12,-16,-29,-21,-18,-8
1558433699769550,-6,-4,-3,13,18,8,9,-1
1558433699769550,-1,-4,-11,-13,8,7,-3,0
1558433699776531,-4,-1,-2,-9,-16,-8,-5,-6
1558433699776531,0,1,13,12,12,4,6,1
1558433699792490,-9,-14,-33,-60,-55,-7,-11,-9
1558433699792490,-3,-4,-3,-4,-5,-17,-7,-1
1558433699793549,7,5,5,17,24,10,10,12
1558433699793549,-1,-2,-6,-16,4,0,-2,-5
1558433699806451,-2,3,28,55,24,11,5,-3
1558433699806451,0,-4,-17,-20,-2,2,10,2
1558433699814430,1,2,6,-1,-6,-7,-10,-3
1558433699814430,4,2,-4,9,-19,-11,-12,2
1558433699829595,4,3,14,22,41,26,24,6
1558433699829595,-6,-6,-9,-7,6,-2,-8,-8
1558433699835374,-2,-1,6,1,-5,-11,-6,-4
1558433699835374,-7,-8,-37,-46,-29,-4,-11,-10
1558433699852549,4,5,7,19,0,3,4,7
1558433699852549,6,9,32,44,53,13,9,4
1558433699853327,-3,-7,-23,-34,-31,0,6,1
1558433699853327,-2,-2,3,12,-7,-4,-1,-2
1558433699866291,-4,-4,-10,-39,-19,-20,-16,-4
1558433699866291,-4,-4,1,1,5,9,3,-1
1558433699875269,1,6,24,33,-4,-7,-7,-6
1558433699875269,-3,-4,-4,-5,0,-8,0,-5
1558433699889237,-5,-7,-23,-26,-19,-3,-3,-1
1558433699889237,2,3,5,10,23,-11,-9,1
1558433699896211,-5,-3,2,10,18,13,-1,-8
1558433699896211,-3,-2,4,-4,-2,1,0,3
1558433699912168,1,0,4,13,-7,-10,-2,-1
1558433699912168,2,4,6,0,7,-14,-18,-3
1558433699914163,-1,-2,-5,1,-12,8,12,7
1558433699914163,12,16,22,22,16,25,15,10
1558433699926131,-4,-8,-13,-10,3,-9,-5,-2
1558433699926131,-3,-5,0,-12,-9,4,-4,2
1558433699935109,-6,-4,-22,-38,-11,-28,-4,-9
1558433699935109,3,6,23,2,0,3,3,0
1558433699949071,3,5,15,20,7,-1,-1,-3
1558433699949071,-4,-5,-14,-22,-48,-11,6,-5
1558433699956051,-3,-2,3,5,-2,5,-12,-5
1558433699956051,-2,-8,-8,7,11,-2,3,3
1558433699972008,1,5,-1,-23,-7,4,-5,4
1558433699972008,-5,-3,3,5,-5,-1,16,-3
1558433699974003,4,2,-12,-8,6,5,-5,4
1558433699974003,-1,0,4,-4,-8,1,15,2
1558433699985970,-7,-10,-3,15,10,-7,-4,-4
1558433699985970,6,3,-7,-17,-29,-6,1,5
1558433699994947,5,8,15,-2,32,27,7,5
1558433699994947,-7,-11,-17,11,-13,-15,-19,-13
1558433700008911,7,7,18,5,20,5,5,2
1558433700008911,-7,-12,-24,-13,-17,0,-4,1
1558433700015891,-1,-2,-6,3,9,8,-4,1
1558433700015891,0,1,0,0,-1,-12,-24,-3
1558433700031849,-2,0,-4,7,5,2,17,-1
1558433700031849,-3,0,5,3,8,4,1,-2
1558433700033843,-3,-4,-4,0,-11,-20,-13,-2
1558433700033843,-1,-4,-17,-30,5,14,12,3
1558433700045812,-2,0,4,6,9,0,-14,-8
1558433700045812,-1,2,11,25,4,8,3,0
1558433700054786,-4,-4,-11,-41,-18,-9,5,-5
1558433700054786,-3,-3,7,1,-6,-1,9,3
1558433700068749,-1,-2,-11,1,-11,-3,2,-3
1558433700068749,-3,-1,2,1,4,-1,-14,-5
1558433700075732,1,1,10,32,20,5,8,2
1558433700075732,2,-3,-7,-24,-7,0,0,1
1558433700092685,-1,-1,-1,10,4,4,4,4
1558433700092685,1,-1,-1,-4,-11,-3,-1,1
1558433700093683,-5,-10,-14,-8,8,2,-6,-5
1558433700093683,-1,-1,-14,-9,-18,4,1,-2
1558433700105651,0,-1,-8,-8,2,-8,-18,-1
1558433700105651,1,2,7,12,22,-6,9,1
1558433700114634,2,5,11,13,24,13,0,1
1558433700114634,3,4,8,19,5,13,13,5
1558433700129594,-2,-1,-2,-7,-9,-3,-10,-5
1558433700129594,-7,-6,-10,-10,-30,-16,-9,0
1558433700135578,-4,-2,3,9,-11,-9,-7,-10
1558433700135578,-2,-2,-4,6,9,0,-3,-1
1558433700152528,3,3,3,-7,-5,-8,-4,0
1558433700152528,7,7,17,20,21,16,18,9
1558433700153525,3,-1,-14,-23,-4,-1,1,3
1558433700153525,-5,-4,1,4,-1,-3,-9,-5
1558433700166493,-5,-7,-9,-10,-13,-5,3,-3
1558433700166493,0,3,6,3,5,-3,-8,-2
1558433700174467,-2,-4,-8,-2,-24,-9,-8,1
1558433700174467,4,5,6,8,18,-5,10,4
1558433700189428,-2,-2,-2,-8,-29,-2,3,-1
1558433700189428,1,3,-9,-26,-4,3,-3,0
1558433700196409,-1,-2,5,8,2,2,3,-2
1558433700196409,-2,-2,7,19,1,-1,-3,0
1558433700212430,-5,-4,-13,-21,-18,-15,-4,-5
1558433700212430,-4,-2,-1,6,-7,-6,-9,-9
1558433700213366,-7,-3,-3,-7,-17,-15,-5,-8
1558433700213366,7,7,4,8,-2,3,11,6
1558433700226354,1,0,3,11,18,16,3,0
1558433700226354,0,-4,-3,5,9,7,10,2
1558433700234307,1,-2,-5,-12,-17,-13,-8,-2
1558433700234307,-8,-4,3,-6,-2,-6,-13,-11
1558433700249266,1,1,1,7,12,11,5,2
1558433700249266,1,0,-2,-15,6,6,-1,-4
1558433700256248,3,4,8,17,5,0,4,7
1558433700256248,-1,-1,-4,-7,1,6,2,-2
1558433700272221,1,0,1,-1,-8,-5,-5,-1
1558433700272221,-3,-2,-3,1,-2,-2,-12,-8
1558433700273203,-1,0,2,2,0,4,6,3
1558433700273203,1,-3,-4,-6,-2,-2,-3,0
1558433700286468,0,-2,-3,-1,11,3,1,2
1558433700286468,2,0,2,3,4,2,6,2
1558433700295145,-1,-1,2,12,2,-6,-1,-1
1558433700295145,-4,-2,-4,-10,-13,-12,-12,-7
1558433700309113,-2,-2,-3,-4,4,0,-4,-2
1558433700309113,1,0,0,0,-1,5,1,1
1558433700316090,0,2,1,2,3,3,8,3
1558433700316090,0,-1,-5,-6,-5,-4,-4,-2
1558433700339026,1,0,1,2,7,0,0,1
1558433700339026,-3,-3,-5,-2,-7,-7,-5,-5
1558433700348003,1,-2,0,-9,-8,-6,-4,-4
1558433700348003,-2,-1,1,5,-6,2,0,0
1558433700354986,3,3,5,3,11,8,8,2
1558433700354986,2,2,-1,2,7,4,6,3
1558433700355981,-2,-1,0,3,2,-2,-9,-4
1558433700355981,-3,-2,-4,-14,-7,-8,-3,-6
1558433700368946,-2,-3,0,2,-7,-7,-4,-4
1558433700368946,-3,-5,-5,-6,-12,-6,-4,2
1558433700375928,1,3,8,10,15,8,3,3
1558433700375928,-5,-6,-16,-9,-5,-1,-3,-4
