timestamp,emg1,emg2,emg3,emg4,emg5,emg6,emg7,emg8
1558433677235916,0,-2,3,0,-2,5,-1,-3
1558433677235916,1,2,1,1,9,-1,1,2
1558433677240903,-2,-2,2,4,0,3,1,-3
1558433677240903,0,1,1,-2,-5,-5,-3,0
1558433677241901,-2,-3,-4,-7,-2,-2,-1,-2
1558433677241901,-3,-3,-2,4,-7,-1,-2,-2
1558433677243896,1,0,-3,-13,5,6,11,4
1558433677243896,-2,-3,-3,-7,-8,-2,-3,-2
1558433677253869,-3,-4,-3,3,-7,-12,-4,-4
1558433677253869,1,1,1,1,2,-1,3,2
1558433677265836,-1,0,-1,5,4,-5,-8,-3
1558433677265836,1,0,-3,-6,-3,3,2,0
1558433677268828,-2,-2,-5,-5,-9,-8,-4,0
1558433677268828,1,1,2,1,9,14,6,2
1558433677283788,-2,-2,-1,-2,-7,-4,-3,-3
1558433677283788,-2,-2,-1,-1,5,4,-3,-3
1558433677292764,-1,2,8,5,-2,-3,-1,3
1558433677292764,-5,-6,-13,-9,-11,-12,-4,-5
1558433677300744,2,1,1,2,10,11,11,1
1558433677300744,0,-2,0,3,-2,1,-3,-3
1558433677314706,-1,1,-1,-4,-2,-3,1,0
1558433677314706,1,-1,1,5,10,9,2,1
1558433677324679,0,0,0,0,-5,-5,-6,-2
1558433677324679,1,2,2,1,0,-4,4,0
1558433677361581,-2,-1,-5,-7,-3,0,0,-1
1558433677361581,0,1,0,0,5,5,1,1
1558433677362578,1,1,2,1,-11,-5,-4,-1
1558433677362578,-4,-4,-2,2,-2,1,-6,-4
1558433677363575,2,1,0,0,2,3,2,-1
1558433677363575,-1,-3,-3,-8,0,-8,-4,-1
1558433677366567,1,2,3,6,4,4,4,4
1558433677366567,-1,-1,-3,0,-6,-5,-2,0
1558433677374547,-3,-3,-5,-3,-11,-5,-8,-5
1558433677374547,-1,0,-2,3,8,12,9,2
1558433677382525,-1,0,3,-2,-3,-10,-6,-1
1558433677382525,-4,-2,-6,-5,-4,-5,-2,-3
1558433677389505,0,-2,-1,0,-3,-2,3,2
1558433677389505,-2,-1,0,1,1,1,-3,-2
1558433677404466,-4,-4,-8,-5,4,6,0,-1
1558433677404466,0,-1,0,1,-1,1,2,0
1558433677411448,0,1,2,1,2,-1,-4,-1
1558433677411448,-3,-4,-2,-1,-6,-5,-6,-6
1558433677420423,-2,-3,-3,-5,-8,-4,-1,-3
1558433677420423,3,3,3,6,15,9,10,5
1558433677434386,-3,-1,1,0,6,-1,-2,-1
1558433677434386,-2,-1,-2,-1,1,5,-3,-4
1558433677443363,-4,-2,-6,-9,-10,-11,-14,-8
1558433677443363,-3,-2,1,0,-4,1,3,1
1558433677449345,0,-2,-1,1,5,-3,-1,4
1558433677449345,-1,0,-1,1,-5,-9,-2,0
1558433677464304,-1,-3,-4,0,6,6,4,2
1558433677464304,2,5,22,6,-1,-4,-4,-1
1558433677471287,-5,-8,-37,-16,-9,1,-3,-5
1558433677471287,-3,-2,-1,-8,-11,-8,-3,-2
1558433677480264,1,1,1,3,5,0,3,1
1558433677480264,0,-3,-3,-6,-8,-6,-4,-2
1558433677494225,1,3,14,9,13,11,-1,0
1558433677494225,0,2,0,0,-4,-6,1,1
1558433677503200,-3,-3,-5,-2,-4,-6,-1,-1
1558433677503200,-3,-1,-2,-4,-2,-4,-9,-2
1558433677509185,1,3,7,-2,-9,-7,2,2
1558433677509185,0,-2,-6,-1,4,8,3,2
1558433677524145,-1,1,6,3,5,5,3,0
1558433677524145,-1,-2,-8,-7,-6,-8,-9,-4
1558433677531127,-4,-4,-2,-4,-9,-7,0,-3
1558433677531127,0,1,3,3,5,6,0,1
1558433677540102,2,3,4,0,-2,-3,1,1
1558433677540102,-4,-7,-11,-4,-5,-2,-8,-7
1558433677554064,-1,0,2,4,16,15,7,1
1558433677554064,2,0,-2,-6,-8,-12,-5,-3
1558433677563305,-2,-4,-3,-4,-4,-6,-5,-3
1558433677563305,0,-2,-8,-3,-7,-3,-4,-2
1558433677569025,1,0,5,2,-2,-4,-4,-1
1558433677569025,2,3,2,5,10,9,5,6
1558433677583988,0,-1,-3,-3,2,7,6,0
1558433677583988,-2,0,0,-1,0,4,4,1
1558433677591964,3,2,5,5,0,2,2,0
1558433677591964,-1,-1,-2,-3,-3,-7,-9,-4
1558433677606925,0,0,2,2,2,9,4,-2
1558433677606925,-1,-2,-8,-10,-5,-2,-4,-2
1558433677613905,0,-1,5,0,-6,-4,-3,-3
1558433677613905,0,0,-8,2,2,3,3,3
1558433677622881,-2,-1,12,6,2,-4,-6,-1
1558433677622881,0,-1,-6,2,8,10,4,1
1558433677628864,-4,-4,-11,-12,-5,-1,-5,-4
1558433677628864,-1,-1,5,2,-6,-5,-4,-5
1558433677643827,-2,-2,-3,0,2,2,-3,-1
1558433677643827,2,4,6,7,7,-3,3,5
1558433677651803,-1,1,5,1,1,-6,-1,-1
1558433677651803,-3,-2,-1,-1,-1,-4,1,-1
1558433677666763,-2,-5,-9,-2,-4,-1,-4,-4
1558433677666763,-1,-2,-1,-3,-5,-10,-7,-6
1558433677673746,0,1,0,4,7,9,4,1
1558433677673746,-3,-3,-2,-9,-11,-4,-7,-4
1558433677682721,0,1,-4,-5,-5,-3,-4,-2
1558433677682721,0,2,4,3,-1,3,2,0
1558433677688704,-1,-2,-3,0,-1,-1,-3,0
1558433677688704,-1,-1,4,-4,-5,-3,-5,-3
1558433677703680,1,1,-3,4,8,9,6,2
1558433677703680,-4,-5,-9,-3,-4,-7,-5,-3
1558433677711644,0,-1,0,-4,-10,-9,-6,0
1558433677711644,-1,0,6,1,3,4,7,3
1558433677726604,-5,-7,-12,-8,-12,-11,-7,-6
1558433677726604,4,2,2,1,2,-3,4,2
1558433677734582,-1,0,4,5,7,-1,-4,2
1558433677734582,-4,-5,-20,-10,-8,-6,-6,-2
1558433677742561,0,0,2,0,1,0,-2,1
1558433677742561,0,-1,0,-6,-5,-3,-4,-1
1558433677749542,1,0,4,2,-3,-3,0,0
1558433677749542,3,2,3,3,5,-4,-1,-2
1558433677764503,-1,-1,6,4,-7,-5,-2,-2
1558433677764503,-3,-5,-15,-10,5,7,0,-2
1558433677771484,-1,1,3,-1,3,4,2,0
1558433677771484,1,0,-2,-1,-2,-3,2,2
1558433677786445,-1,2,8,5,2,-3,3,0
1558433677786445,-3,-3,0,1,0,2,1,-3
1558433677794424,-2,-1,-4,-4,-6,-3,-5,-3
1558433677794424,-2,1,11,3,-2,2,5,-1
1558433677811376,1,0,-12,-3,1,-8,-6,-1
1558433677811376,0,0,5,3,2,4,6,3
1558433677812375,-2,-2,-11,-6,0,-1,-3,-2
1558433677812375,-3,-4,-2,-6,-15,-12,-13,-6
1558433677824342,4,5,8,4,9,6,6,5
1558433677824342,-2,0,8,5,0,0,0,-1
1558433677831324,-3,-6,-12,-5,-5,-6,-4,-4
1558433677831324,-2,-2,3,-3,-2,2,-4,-3
1558433677846283,-6,-5,-8,-8,-20,-4,-2,-5
1558433677846283,6,7,5,13,29,8,9,10
1558433677854263,2,0,3,1,2,1,3,-2
1558433677854263,-1,-2,-9,-2,-2,2,-1,-1
1558433677863238,-3,-2,-2,-6,-2,-1,-4,-2
1558433677863238,-3,-2,-1,-6,-15,-7,-4,-3
1558433677869222,0,1,3,2,-1,-10,-7,-1
1558433677869222,0,-1,-2,1,7,5,3,0
1558433677884182,2,1,-1,-4,-7,-8,-6,0
1558433677884182,-1,-2,0,2,1,5,2,-5
1558433677891164,1,1,2,3,8,13,10,4
1558433677891164,0,1,-2,1,3,2,0,2
1558433677906123,0,2,3,0,8,9,6,3
1558433677906123,-1,-3,-4,-8,-10,-6,-6,-5
1558433677914103,-3,-2,1,-3,-10,-8,-5,-4
1558433677914103,-2,-2,-1,-1,-6,-7,-4,-2
1558433677923078,2,2,5,6,11,9,6,4
1558433677923078,-6,-6,-11,-10,-6,-2,-5,-6
1558433677937042,-2,-1,0,1,-2,4,1,1
1558433677937042,4,2,6,9,10,5,11,8
1558433677944022,-2,-3,-4,-5,-5,-2,-7,-4
1558433677944022,0,0,-1,0,-4,-4,-1,-1
1558433677952001,-2,-1,-2,-4,-6,-7,-3,-3
1558433677952001,1,0,5,1,7,10,3,-2
1558433677966963,0,-3,-10,-3,-3,-7,-4,-3
1558433677966963,0,2,2,0,1,1,3,3
1558433677973944,-4,-6,-7,-8,-11,-7,-9,-7
1558433677973944,-2,-3,-4,-2,-2,1,1,-2
1558433677982919,1,5,9,7,1,-3,4,0
1558433677982919,-2,-1,-4,2,3,9,1,0
1558433677996882,0,-1,-2,-6,-2,-7,-1,1
1558433677996882,0,-1,-4,1,2,9,3,-1
1558433678003861,0,-1,-1,-2,-3,-7,-4,-1
1558433678003861,1,0,0,1,-3,-1,-3,-1
1558433678011841,-3,1,2,0,1,-1,-3,-3
1558433678011841,-1,-2,-3,-6,-3,2,-6,-4
1558433678026801,-2,-2,-4,-6,-9,-7,-6,-5
1558433678026801,2,1,2,3,3,-4,3,3
1558433678033784,4,2,8,9,1,1,3,4
1558433678033784,-2,0,-5,-1,11,4,-2,-2
1558433678050738,-3,-3,-3,0,1,3,-3,0
1558433678050738,-1,-1,-2,-7,-2,-1,-2,-2
1558433678057717,-1,-2,-4,-7,-10,-4,-3,-2
1558433678057717,-1,-1,-1,-1,-8,-9,-4,-1
1558433678063701,-2,-3,-1,-3,-1,3,-3,-2
1558433678063701,-2,-1,1,-1,-5,-3,-4,-4
1558433678071685,-2,-2,-4,-4,-8,-1,-3,-3
1558433678071685,5,5,5,6,7,-8,4,9
1558433678086640,3,2,4,4,3,3,11,4
1558433678086640,-2,-2,1,1,3,3,0,-3
1558433678094620,0,0,-2,1,5,0,0,-1
1558433678094620,-5,-4,-5,-8,-15,-8,-10,-8
1558433678102600,-2,-3,-6,-6,-3,-3,-4,-2
1558433678102600,-1,1,3,0,4,-1,0,0
1558433678117557,-2,0,0,-1,-2,4,1,-3
1558433678117557,-3,-4,-6,-2,-4,-2,-5,-4
1558433678124539,0,1,1,1,3,2,3,2
1558433678124539,1,2,1,0,-1,-4,0,1
1558433678131520,-1,-3,-3,-2,1,-4,-5,-1
1558433678131520,1,-1,1,3,2,0,4,2
1558433678146480,-2,-1,-2,-3,-2,-5,-6,-2
1558433678146480,0,-1,-4,-3,-8,-4,-4,-4
1558433678154459,-2,-1,0,0,4,6,4,-1
1558433678154459,-1,0,3,0,-3,-3,-3,-2
1558433678163435,-4,-7,-7,-5,-7,-2,-7,-6
1558433678163435,0,1,-2,-2,-2,-4,-1,3
1558433678177399,2,1,1,3,14,10,5,2
1558433678177399,-1,-3,-2,-3,-2,1,-2,1
1558433678184380,1,-1,0,0,0,-5,1,0
1558433678184380,-1,-2,3,5,6,2,5,1
1558433678191367,0,-2,-1,3,6,1,2,-1
1558433678191367,-1,0,5,-4,-4,1,-5,-4
1558433678206321,-1,-4,-15,-5,-5,-6,-3,-1
1558433678206321,-2,-2,-1,-7,-6,-5,-6,-5
1558433678214302,-2,0,2,-1,-10,-8,-3,-1
1558433678214302,0,-1,-4,2,8,6,5,1
1558433678223278,0,0,7,1,5,0,-1,-1
1558433678223278,-2,-2,0,-3,-6,-4,-4,-1
1558433678237240,-1,0,-1,0,4,6,3,1
1558433678237240,1,1,0,-2,-4,-3,-1,-4
1558433678244221,1,-2,0,3,1,3,1,0
1558433678244221,0,-1,-4,2,-1,0,-1,0
1558433678251203,1,-1,-3,-3,-1,3,3,-1
1558433678251203,-3,-1,-5,-6,-13,-6,-3,-3
1558433678266163,-1,1,5,7,6,0,1,2
1558433678266163,-1,-4,-3,-6,1,4,0,-1
1558433678274140,-1,-4,-5,-4,-3,-6,-4,-1
1558433678274140,-1,0,0,-1,-3,2,2,1
1558433678283115,-3,-2,-1,-6,-5,4,-3,-6
1558433678283115,-3,-2,-4,-2,-4,-3,-5,-3
1558433678305063,0,1,2,0,-2,-13,-4,0
1558433678305063,-1,-3,-4,3,11,4,-1,2
1558433678307052,0,4,11,5,6,5,0,-1
1558433678307052,-1,-3,-7,-7,-5,-2,-6,-6
1558433678312040,-4,-3,-9,-5,-7,0,-3,-7
1558433678312040,-1,1,7,6,6,4,4,0
1558433678326999,-2,-4,-8,-4,-6,-8,-3,-1
1558433678326999,1,3,15,5,-1,-1,4,2
1558433678333980,-2,-4,-11,-1,9,-1,-4,-2
1558433678333980,0,-1,-4,-9,-13,-8,-5,1
1558433678348951,-1,1,-5,0,0,5,2,1
1558433678348951,1,1,5,3,7,3,4,2
1558433678356928,-2,-2,-2,0,-10,-9,-4,-3
1558433678356928,0,-4,-1,0,3,3,-1,-3
1558433678372935,-1,-3,-6,-5,-1,-1,1,-2
1558433678372935,-1,2,3,3,4,0,4,4
1558433678372935,2,2,6,0,-3,-2,-2,3
1558433678372935,-2,-1,-3,-1,-2,0,0,-2
1558433678386940,0,-3,-4,0,-5,-4,-5,-3
1558433678386940,0,1,2,2,4,3,3,2
1558433678394818,0,-2,-5,-5,-3,-1,-3,-1
1558433678394818,-2,-2,-3,0,4,4,0,-1
1558433678409854,0,1,5,0,-3,-2,-2,-2
1558433678409854,-3,-4,-4,-5,-5,-1,-1,-2
1558433678417871,1,-2,0,4,5,-1,4,0
1558433678417871,-1,1,-3,-6,-8,-6,-1,-1
1558433678432920,-1,-1,3,2,0,-2,-1,-1
1558433678432920,-2,-1,-8,-3,-3,-2,-2,-2
1558433678432920,3,2,8,5,3,7,4,3
1558433678432920,-3,-4,-6,2,4,-6,-3,-5
1558433678446679,-2,1,2,-5,-3,2,5,3
1558433678446679,-2,-1,-1,-3,6,4,-4,-2
1558433678454659,-5,-3,-7,-5,-2,1,2,-3
1558433678454659,1,-1,3,6,3,-7,-3,0
1558433678469737,0,-2,-5,-8,-4,-2,-4,-1
1558433678469737,0,-3,-6,-1,0,-1,-2,-4
1558433678477601,-2,1,7,-2,-11,-3,-2,-5
1558433678477601,0,1,1,4,8,8,4,2
1558433678492558,-1,-3,0,1,7,10,3,-2
1558433678492558,-2,2,2,1,2,8,5,1
1558433678492558,-2,-2,-2,-2,-7,-8,-6,-2
1558433678492558,-2,-3,-4,-3,-2,-2,-2,0
1558433678506518,2,1,0,1,-1,0,-2,1
1558433678506518,0,-3,-4,-4,-6,-2,-4,-3
1558433678514533,-1,1,-1,-2,2,3,3,2
1558433678514533,-1,0,2,-2,-4,-6,-1,-1
1558433678529458,-2,0,-4,0,3,2,-1,-1
1558433678529458,0,0,0,-3,-10,-11,-4,-2
1558433678537438,-3,-1,0,1,0,-1,-1,-1
1558433678537438,-1,-2,-1,-5,-5,-2,-4,-4
1558433678552422,0,-1,0,-2,-6,-2,0,-1
1558433678552422,1,1,2,0,-1,-3,1,2
1558433678553418,1,0,-1,-2,-1,-10,5,1
1558433678553418,0,2,3,1,1,0,-5,-1
1558433678566358,-2,-5,-8,-9,-10,-1,0,0
1558433678566358,-3,-4,0,1,-5,-6,-4,-3
1558433678574343,1,0,0,-1,7,11,2,2
1558433678574343,1,0,-2,-7,-6,-1,0,-1
1558433678589806,-3,-2,-2,-2,-9,-14,-6,-2
1558433678589806,2,0,-1,3,11,7,7,2
1558433678597783,-1,0,0,0,5,1,1,-1
1558433678597783,-3,-3,-1,0,-7,-2,-3,-3
1558433678612233,1,0,1,2,-3,-3,-2,-1
1558433678612233,-3,-3,-5,-3,-8,-12,-5,-4
1558433678613231,-1,-1,-1,1,1,6,-2,-3
1558433678613231,2,3,2,0,-1,-4,4,5
1558433678626224,0,-2,1,-1,-2,-4,-1,-1
1558433678626224,-2,-5,-5,-3,0,2,-4,-3
1558433678634176,-1,-2,3,0,-6,-5,-6,-1
1558433678634176,0,2,2,1,-4,-5,2,1
1558433678650133,-3,-2,-10,-1,9,7,1,-2
1558433678650133,0,3,1,1,0,2,4,0
1558433678657558,-4,-3,-1,-5,0,-7,-8,-7
1558433678657558,-1,-1,2,-1,-6,7,3,-2
1558433678672419,1,-1,5,5,1,-12,-5,1
1558433678672419,0,-3,-13,-7,-3,0,-2,-3
1558433678673072,1,1,1,-2,-5,6,2,2
1558433678673072,-1,-2,-2,3,4,-6,-3,-2
1558433678687033,-1,-1,-1,-2,4,4,1,-3
1558433678687033,-1,-1,2,1,-7,-3,-1,-1
1558433678694016,0,0,0,2,5,6,5,3
1558433678694016,-1,-2,2,0,1,-1,1,0
1558433678709011,0,0,3,4,2,4,0,0
1558433678709011,0,2,-4,2,4,-1,1,1
1558433678716955,-5,-8,-14,-13,-17,-14,-7,-3
1558433678716955,1,-1,-2,-2,3,4,-4,-2
1558433678731953,2,4,4,3,3,0,10,6
1558433678731953,-1,0,8,3,4,4,1,1
1558433678732911,-1,1,1,1,-7,-5,-3,0
1558433678732911,-3,-4,-5,-1,4,-1,-2,0
1558433678746876,-3,-1,2,-3,-1,2,-1,-2
1558433678746876,-1,-3,-1,-6,-9,-5,-1,-1
1558433678755011,0,-1,2,6,11,10,5,-1
1558433678755011,-1,-3,-3,-7,-7,-3,-4,-3
1558433678769967,-1,-1,-5,-2,1,-6,-4,0
1558433678769967,-1,-1,-1,0,-3,-3,1,0
1558433678776795,-1,-1,-3,-1,-6,2,-1,-1
1558433678776795,-2,0,2,3,2,-2,2,-1
1558433678792508,1,-1,-3,-1,6,3,5,3
1558433678792508,-2,-3,-4,-9,-5,-4,-10,-4
1558433678800561,-3,0,1,-1,-7,-7,-6,-5
1558433678800561,-2,-1,-3,1,4,4,0,-1
1558433678807545,-2,-4,-6,-4,-8,3,-4,-4
1558433678807545,2,2,3,6,7,-6,2,3
1558433678814529,-1,0,3,3,3,2,2,-1
1558433678814529,-1,-1,-10,-3,1,4,5,1
1558433678829365,-1,-2,3,-2,-8,-8,-8,-6
1558433678829365,-2,-2,-4,-5,-5,2,-1,-3
1558433678837284,1,1,2,5,8,-2,-2,2
1558433678837284,0,0,2,-2,-4,-4,-1,0
1558433678852216,0,0,0,-1,-1,-3,-5,-1
1558433678852216,1,1,2,1,5,4,7,3
1558433678859928,0,-2,-2,-2,-3,-3,-2,0
1558433678859928,-1,-1,-1,-5,-5,-6,-3,1
1558433678875091,-1,-2,-6,0,2,0,1,-1
1558433678875091,0,1,0,3,6,5,-7,0
1558433678875892,-3,-5,-13,-12,-7,-8,-1,-3
1558433678875892,-2,-2,1,1,6,10,1,0
1558433678889881,0,3,5,3,6,1,3,2
1558433678889881,-3,-5,-2,-1,-11,-6,-5,-6
1558433678896830,-2,-4,-8,-11,-10,-6,-4,-4
1558433678896830,-2,-3,-2,2,0,-1,-2,-2
1558433678911787,-1,-2,2,0,1,0,0,0
1558433678911787,2,0,1,-3,3,2,-1,1
1558433678919940,0,-1,4,4,1,-2,-7,-1
1558433678919940,-2,-2,-6,-4,-7,0,2,-3
1558433678926747,0,0,2,2,-2,-5,-1,0
1558433678926747,0,2,-2,3,5,1,3,-2
1558433678934790,-2,1,1,-1,-7,-7,-7,-2
1558433678934790,2,0,-7,1,1,-2,1,1
1558433678949916,-5,-6,-6,-6,-10,-7,-5,-3
1558433678949916,-1,1,4,-1,-6,-5,-1,-2
1558433678957005,-1,2,8,7,2,6,1,-2
1558433678957005,-3,-5,-23,-20,-4,1,-1,-3
1558433678971968,4,4,7,2,2,-2,2,3
1558433678971968,-4,-2,-3,-6,-3,-6,-6,-4
1558433678979952,1,0,4,9,13,12,6,1
1558433678979952,1,1,7,4,-5,-9,-5,-3
1558433678986922,-3,-1,-2,0,-5,-3,-3,-3
1558433678986922,-4,-6,-9,-10,-5,-4,1,-2
1558433678994572,0,0,5,-1,0,-4,-1,-2
1558433678994572,-1,-3,-2,1,0,2,-1,0
1558433679009791,-2,-1,0,-5,1,6,0,-3
1558433679009791,3,2,3,8,5,2,3,3
1558433679016752,-3,-3,-7,-5,1,2,0,-2
1558433679016752,-2,-1,2,0,-4,-5,-3,-3
1558433679031678,-2,1,8,4,-4,-6,-6,-3
1558433679031678,-3,-4,-11,-2,0,11,2,-2
1558433679040528,0,-5,-11,-9,-1,0,2,1
1558433679040528,0,2,6,1,4,-3,-5,0
1558433679054448,-2,-1,1,4,3,4,4,-2
1558433679054448,0,-1,1,-2,-1,-4,-3,-2
1558433679055405,0,0,1,1,0,4,5,1
1558433679055405,1,0,3,2,-6,-6,-4,-1
1558433679077347,-3,-2,-3,-4,0,3,-1,-3
1558433679077347,-3,-2,0,4,5,3,2,3
1558433679078341,2,2,-4,0,0,-11,3,4
1558433679078341,1,2,4,2,5,6,5,1
1558433679092530,-1,-3,-8,-5,-1,3,-2,-3
1558433679092530,-1,-1,6,0,-5,-4,-5,-5
1558433679099743,0,0,3,2,-5,-3,-7,-3
1558433679099743,-4,-3,-7,-3,-9,-10,-1,-5
1558433679115647,-2,-3,-9,-2,14,7,2,1
1558433679115647,0,0,0,4,2,0,4,4
1558433679115647,-3,0,2,-3,1,3,0,-3
1558433679115647,0,-1,4,4,6,3,-1,-1
1558433679129205,0,-2,0,-4,-12,-6,-3,-3
1558433679129205,-4,-2,-9,-7,-7,-7,-7,-4
1558433679136510,1,3,5,7,3,5,3,3
1558433679136510,-3,-5,-6,-11,-7,-3,-5,-5
1558433679151175,0,0,-1,2,-2,-5,1,4
1558433679151175,1,0,2,2,5,0,1,1
1558433679160136,-1,-4,-3,-1,-7,-5,-5,-2
1558433679160136,1,0,1,6,11,12,3,1
1558433679175449,2,2,2,0,-1,1,2,1
1558433679175449,-2,-3,-4,-2,-6,-5,-3,-4
1558433679175449,0,0,0,1,-1,-4,-3,0
1558433679175449,-5,-5,-8,-6,-3,1,-4,-7
1558433679189412,-1,-2,-2,-4,-2,-1,0,1
1558433679189412,1,3,4,7,12,6,4,4
1558433679197333,-2,-3,-3,-5,0,3,3,-1
1558433679197333,-2,-1,3,1,-9,-7,-1,-1
1558433679212330,-1,-1,0,-1,-2,2,-1,-1
1558433679212330,-2,-2,-1,-7,-8,-5,-5,-3
1558433679220309,-1,-3,-9,-3,-2,1,0,1
1558433679220309,0,0,2,2,4,0,-1,0
1558433679235256,-3,-4,-7,-7,-15,-11,-1,-1
1558433679235256,-1,-2,2,-1,-6,-7,-4,0
1558433679235921,0,2,6,3,1,-1,-2,1
1558433679235921,0,-1,-6,-3,8,11,7,4
1558433679249957,-2,-1,-1,2,1,-2,-5,-2
1558433679249957,1,1,2,-1,-7,-7,-4,-1
1558433679257201,-2,-1,0,-2,-3,-3,-2,-2
1558433679257201,-1,-2,3,-1,-5,-7,-4,-2
1558433679272087,-1,-2,-2,-3,-5,-2,-7,-3
1558433679272087,-2,-4,-3,0,3,3,-1,0
1558433679280104,0,0,-1,2,4,-1,7,4
1558433679280104,1,1,4,2,6,0,5,5
1558433679294763,-2,-1,-1,3,6,9,4,-1
1558433679294763,-4,-4,-6,-9,-10,-6,-6,-4
1558433679295762,-3,-2,1,-2,-2,0,-4,-4
1558433679295762,-3,-6,-7,-5,-7,-3,-5,-3
1558433679309015,0,0,2,1,-1,-4,-2,0
1558433679309015,1,-1,-2,1,3,0,4,1
1558433679316703,1,-1,-2,-1,6,7,2,5
1558433679316703,-1,1,0,1,-1,1,0,-1
1558433679331663,-1,-1,0,-1,-1,-3,-3,-1
1558433679331663,0,1,3,0,1,-4,-2,-1
1558433679340670,-3,-1,-4,-4,-8,-6,-4,-3
1558433679340670,-1,-1,2,-2,-5,-2,-2,0
1558433679354958,-1,-1,-2,-2,-3,-5,-4,-2
1558433679354958,0,-1,-1,1,6,3,5,0
1558433679355625,-1,-1,-1,1,0,0,-3,-2
1558433679355625,-1,-1,-4,-4,-2,-2,1,0
1558433679369927,0,-1,-1,-1,2,-1,1,-1
1558433679369927,-1,-2,0,-2,-10,-3,0,-1
1558433679376543,-1,0,0,2,0,-4,-4,-2
1558433679376543,-1,3,2,-2,1,0,-3,-4
1558433679391863,0,0,-1,1,-3,-2,1,0
1558433679391863,-3,-3,-3,-6,-4,0,-5,-6
1558433679399796,0,-2,-3,-1,3,1,4,2
1558433679399796,2,2,6,7,3,-3,-1,3
1558433679415588,-1,-2,-8,-9,-5,3,0,0
1558433679415588,2,3,5,3,8,6,8,4
1558433679415588,-1,-2,0,1,-1,-2,-4,-3
1558433679415588,1,-1,-1,-6,-8,0,1,-1
1558433679429743,-2,0,2,-1,-3,-4,-6,-5
1558433679429743,-2,-1,-1,0,-1,-2,-6,-2
1558433679437433,0,1,1,-4,-5,-7,-5,-4
1558433679437433,1,2,-4,-1,5,5,7,5
1558433679451658,-1,-2,0,0,0,-8,-2,0
1558433679451658,-3,-3,-5,-1,-1,5,0,-1
1558433679459722,-2,-2,0,-1,0,7,-1,-2
1558433679459722,-3,-2,2,-3,-14,-12,-10,-5
1558433679474665,2,2,0,5,6,2,4,4
1558433679474665,-1,-3,2,1,-3,-5,-2,-2
1558433679475636,-1,-1,-2,-3,-2,-5,-3,1
1558433679475636,-3,-5,-9,-3,-5,0,-1,-4
1558433679489807,0,0,2,2,-3,-4,-5,-2
1558433679489807,0,-1,-2,-3,-3,0,1,0
1558433679496860,0,1,0,2,8,4,11,4
1558433679496860,-2,-3,0,-4,-10,-12,-9,-3
1558433679511536,-1,-1,0,0,3,1,2,0
1558433679511536,1,1,3,2,1,-3,-3,-1
1558433679520574,-5,-4,-9,-9,-12,-2,-6,-4
1558433679520574,0,-1,-2,-1,4,0,3,1
1558433679535559,1,0,0,-1,6,7,3,2
1558433679535559,-2,-3,1,0,0,3,2,-1
1558433679535559,-2,0,2,-1,1,2,2,-1
1558433679535559,-1,1,-3,3,0,-7,-3,1
1558433679550434,-3,-2,1,-3,-6,1,-4,-2
1558433679550434,-1,1,0,1,3,1,1,0
1558433679556737,0,0,0,-3,-7,-4,-4,-4
1558433679556737,1,0,-1,1,4,0,-1,-3
1558433679572463,-5,-5,-8,-5,3,9,-1,-5
1558433679572463,0,-2,-8,-2,-7,-5,3,2
1558433679580523,1,2,9,1,-1,-3,-2,1
1558433679580523,-5,-4,-12,-3,-5,-5,-8,-3
1558433679594317,2,2,3,2,3,-1,1,0
1558433679594317,-2,-2,-3,-4,1,6,-1,-1
1558433679595313,-1,-2,-1,-3,0,1,-3,-2
1558433679595313,1,-1,5,-2,-7,-6,1,-2
1558433679609313,-2,-2,-2,2,-5,-10,-2,-1
1558433679609313,3,4,-1,-1,1,6,10,7
1558433679616255,-1,-2,-9,-4,3,2,-2,-2
1558433679616255,0,-1,1,1,4,8,1,0
1558433679631216,-2,-2,-3,-4,-6,-5,-5,-2
1558433679631216,-1,-3,3,-1,-12,-11,-6,-5
1558433679640627,-1,-1,-2,-2,-4,-2,-1,0
1558433679640627,1,1,4,2,12,10,4,2
1558433679655604,-2,-5,-2,-4,-6,-6,-3,-2
1558433679655604,-5,-2,-2,0,0,-2,-4,-2
1558433679655604,2,-1,0,1,3,0,4,3
1558433679655604,-3,-1,2,3,-6,-8,-1,-5
1558433679670057,2,3,8,4,8,17,5,1
1558433679670057,-3,-3,-10,-6,-2,-5,-6,-6
1558433679676585,-2,-2,1,1,-6,-5,-2,-2
1558433679676585,-2,-2,-4,-5,2,2,0,0
1558433679691997,-3,-4,-7,-4,-2,-4,0,0
1558433679691997,1,2,4,1,-2,-5,-4,-2
1558433679699964,-3,-4,-1,-1,2,2,-1,-2
1558433679699964,-1,-1,2,3,3,4,1,-1
1558433679715676,-1,0,1,-3,-5,-8,-4,-2
1558433679715676,-2,-2,-2,-1,-2,-5,-3,-1
1558433679715676,1,0,0,2,3,-2,1,0
1558433679715676,-1,-2,0,-2,-7,-6,-6,-2
1558433679729812,-1,-2,-4,-3,8,7,5,0
1558433679729812,0,0,4,-4,-7,4,-3,-1
1558433679736424,-1,-1,-6,-1,0,-2,-2,-1
1558433679736424,-2,-3,1,-2,-6,-1,-3,-4
1558433679751726,0,1,0,4,0,-3,3,1
1558433679751726,0,-1,1,3,2,-7,-3,0
1558433679759762,-2,-3,0,-3,-1,3,-3,-4
1558433679759762,0,-1,-3,-1,0,-3,0,0
1558433679774689,1,2,5,4,1,1,-2,2
1558433679774689,-4,-6,-11,-10,-4,-1,3,-1
1558433679782660,-2,-2,-7,2,1,4,1,-3
1558433679782660,-1,0,0,-1,-5,0,1,0
1558433679789616,-4,-3,-8,-10,-9,-4,-6,-6
1558433679789616,1,1,5,5,-2,-7,-2,-2
1558433679797348,0,2,3,1,4,5,3,1
1558433679797348,-2,-3,-1,1,0,1,4,1
1558433679812449,-2,-1,-1,5,13,11,0,0
1558433679812449,-1,-2,-3,-2,0,3,4,-1
1558433679820529,-1,0,-5,-3,-5,-8,-4,-1
1558433679820529,2,3,6,6,4,-5,-2,0
1558433679834453,-2,-4,-2,-7,-10,-2,0,0
1558433679834453,-2,-3,-4,-8,-2,4,-5,-3
1558433679842144,-1,-1,-1,0,-4,-6,-3,-1
1558433679842144,-1,-2,-1,0,6,5,5,-1
1558433679850202,-1,0,-2,4,-3,-7,-1,1
1558433679850202,0,0,0,-1,-1,3,1,-1
1558433679857437,-2,-2,4,1,-6,-6,-4,-1
1558433679857437,1,0,-2,-4,-1,-3,-4,0
1558433679872398,-1,-5,-4,1,2,4,5,1
1558433679872398,2,2,4,4,6,1,1,2
1558433679880374,0,-1,0,-4,-1,1,-3,0
1558433679880374,-1,0,0,4,5,2,4,1
1558433679894004,-1,-5,-5,-4,-5,-10,-2,-4
1558433679894004,-3,-2,-4,2,-3,-5,-3,-1
1558433679903109,0,-2,0,-1,4,8,7,1
1558433679903109,-3,-3,-2,-4,-8,-3,-7,-5
1558433679909233,3,5,3,1,10,9,8,3
1558433679909233,-1,-1,1,2,-4,-6,-2,0
1558433679916944,-2,-1,-4,-4,-2,-3,-3,-4
1558433679916944,-5,-4,-5,-6,-6,-2,-6,-6
1558433679932181,-4,-4,-4,-5,-10,-1,-3,-4
1558433679932181,0,1,0,3,7,2,1,0
1558433679939881,1,2,2,5,3,-1,2,3
1558433679939881,0,1,1,1,6,4,4,2
1558433679954971,-2,-2,-2,-3,-7,-3,-6,-5
1558433679954971,-1,-1,-1,-2,-8,-3,4,1
1558433679963034,0,-1,3,1,2,5,0,-1
1558433679963034,-1,-4,-5,0,1,-1,-1,-1
1558433679976780,1,0,0,-4,-5,-4,-3,1
1558433679976780,-1,-1,1,2,4,4,1,-1
1558433679977778,-3,-3,-4,-7,-5,-3,-7,-6
1558433679977778,1,2,2,-1,-7,-10,-4,1
1558433679992306,0,1,4,3,-1,-3,1,1
1558433679992306,-4,-3,-4,-2,12,11,-5,-3
1558433680000109,1,0,4,4,1,-7,3,4
1558433680000109,-1,-1,-6,-3,-4,-8,-4,-1
1558433680014407,-3,-2,2,-3,-8,-6,-8,-5
1558433680014407,1,0,-4,2,6,-4,0,0
1558433680022386,2,0,2,-1,-2,3,1,0
1558433680022386,-1,-1,-2,-2,3,6,3,2
1558433680038006,1,3,2,4,5,-1,0,2
1558433680038006,-3,-4,-3,-3,-8,-4,-2,-1
1558433680038006,-1,-1,-1,0,-6,-10,-5,-2
1558433680038006,0,-2,-6,-6,-7,1,-3,-3
1558433680052268,0,-1,-4,-1,11,5,3,5
1558433680052268,-1,0,1,-4,-6,0,2,-2
1558433680059981,-1,-2,-2,-4,-3,-4,-3,-2
1558433680059981,-3,-2,3,0,-4,0,0,1
1558433680074192,-1,-1,-2,-2,-7,-15,-6,-2
1558433680074192,0,-2,0,-2,-2,1,-2,-1
1558433680083112,-1,-2,-4,-1,-3,-5,1,3
1558433680083112,0,0,-1,0,5,8,3,-1
1558433680098055,-1,-2,0,-2,2,6,-4,-2
1558433680098055,-1,0,0,-1,-3,-2,-7,-3
1558433680098055,0,0,1,0,-3,-3,-1,0
1558433680098055,-2,0,-1,0,4,1,1,-1
1558433680112062,0,0,0,1,-5,0,4,-2
1558433680112062,-1,-1,1,-2,-8,-6,-5,-3
1558433680120075,-2,-2,-4,0,9,7,0,-2
1558433680120075,-3,-3,-4,-6,-5,-5,-3,-2
1558433680133749,-2,-2,0,-2,-1,2,0,-2
1558433680133749,0,1,4,7,6,6,5,2
1558433680142725,-1,0,-3,-4,-7,-4,-1,-3
1558433680142725,1,0,3,4,-2,-4,-3,0
1558433680156688,1,1,-5,-3,3,-2,2,1
1558433680156688,-2,-2,-4,-4,-5,-4,-2,-1
1558433680157685,-1,1,-5,-4,3,1,-1,-2
1558433680157685,-2,-2,-1,-2,-1,5,-5,-3
1558433680171684,-1,-1,0,-2,-8,-11,-2,-1
1558433680171684,-3,0,-5,-6,-8,-5,-4,-2
1558433680180001,-1,-2,2,1,-2,-4,0,-2
1558433680180001,2,2,2,5,4,5,4,3
1558433680193591,-3,-2,-9,-1,8,9,2,1
1558433680193591,-2,-2,-2,-4,4,6,3,0
1558433680203059,-2,-1,2,1,-2,-2,-2,-1
1558433680203059,-3,-2,-5,-9,-13,-14,-8,-6
1558433680217992,1,-1,3,5,2,-3,-5,-2
1558433680217992,1,2,1,-2,-8,-5,1,0
1558433680217992,0,-3,-8,-4,3,6,3,-1
1558433680217992,1,-1,0,-1,6,6,1,-1
1558433680231838,-1,1,2,1,-3,-7,-6,-2
1558433680231838,0,0,2,2,7,-4,-1,1
1558433680240636,-2,-1,1,-1,-1,1,-2,-1
1558433680240636,-2,0,2,-3,-2,-6,-6,-2
1558433680254733,-6,-8,-13,-6,-7,4,2,-4
1558433680254733,-1,-2,-3,-3,-5,-9,-3,-2
1558433680262688,1,0,0,3,9,4,5,3
1558433680262688,0,0,-1,-2,-3,-4,-2,1
1558433680277369,0,0,3,0,2,4,0,-1
1558433680277369,-2,-2,-2,-3,-6,-7,-6,-6
1558433680278365,-2,-1,-3,-1,-1,4,-3,-3
1558433680278365,1,3,1,3,0,-6,5,2
1558433680292337,0,-2,0,7,11,7,5,1
1558433680292337,0,-1,0,-2,-8,-1,-2,0
1558433680300527,-4,-4,-2,-3,-5,-5,-2,-2
1558433680300527,-2,-3,-4,0,5,5,3,-1
1558433680314493,-2,-1,3,-4,-12,-13,-5,-3
1558433680314493,0,1,0,3,9,0,1,-1
1558433680322492,-2,-3,-6,-5,-4,-5,-4,-2
1558433680322492,-2,-4,-5,-5,-7,1,-2,-2
1558433680337240,0,2,2,-4,-1,-3,-1,2
1558433680337240,-1,0,1,5,12,21,8,3
1558433680338205,0,-1,2,-2,-10,-13,-7,-2
1558433680338205,2,1,0,3,8,7,11,5
1558433680351168,0,-3,-2,-1,-4,-3,-2,-1
1558433680351168,0,-1,-5,-4,-6,-4,-4,-1
1558433680360144,-1,0,-1,0,-3,2,0,-3
1558433680360144,0,-1,-4,-2,-5,-3,0,-1
1558433680374583,1,1,-5,-2,4,7,-3,0
1558433680374583,0,-3,0,0,-2,-6,1,1
1558433680382098,-1,-2,-2,0,-5,-3,-1,-1
1558433680382098,-3,-2,3,1,1,3,-5,-4
1558433680398004,0,0,1,-2,-7,1,5,2
1558433680398004,-1,-3,-5,-3,-5,-10,-2,0
1558433680398004,-1,-1,-3,0,-2,-2,0,-1
1558433680398004,1,2,0,2,2,-1,-2,1
1558433680411504,-5,-4,-6,-4,-1,0,-3,-3
1558433680411504,-4,-6,-8,-3,-2,3,-6,-5
1558433680420778,4,3,3,-2,4,7,7,6
1558433680420778,-1,1,2,0,1,-2,-1,-1
1558433680434958,-2,-2,-4,0,-2,-1,-3,-2
1558433680434958,-2,-1,-3,-3,-10,-4,-2,-2
1558433680442418,-1,-1,5,1,-1,1,-5,-2
1558433680442418,-1,-5,-13,-8,-5,-10,-4,-2
1558433680457833,1,0,4,4,8,6,5,2
1558433680457833,1,0,2,0,7,2,1,-1
1558433680458378,-3,0,1,0,-3,-3,-5,-3
1558433680458378,0,-1,8,2,-3,3,2,-1
1558433680471343,-3,-7,-16,-8,-3,-6,-3,-5
1558433680471343,4,4,8,8,8,3,7,4
1558433680480679,0,-3,-5,-3,7,9,2,0
1558433680480679,-3,-3,-2,-2,-8,-5,-5,-4
1558433680494281,1,2,2,-2,-3,-7,-4,-2
1558433680494281,-2,-2,0,-3,-9,-1,-5,-5
1558433680502706,1,3,2,6,10,0,6,6
1558433680502706,0,0,0,0,-2,-9,-5,-2
1558433680517551,0,-1,0,-5,0,-1,-2,1
1558433680517551,-4,-4,-5,-6,-8,1,-3,-3
1558433680518218,-2,0,1,0,-5,2,-1,-1
1558433680518218,-1,-2,-3,0,-2,-5,-2,1
1558433680532395,-1,0,3,-1,-1,3,-1,-1
1558433680532395,3,2,1,2,-4,-8,0,0
1558433680540439,-2,-5,-8,-6,0,3,3,0
1558433680540439,-1,0,2,-1,5,4,3,1
1558433680554121,1,2,1,2,-3,0,0,0
1558433680554121,-3,-2,-1,-2,1,1,-5,-1
1558433680563127,-2,-4,-4,-4,-7,-4,-3,-5
1558433680563127,2,2,1,6,7,-4,6,2
1558433680577062,0,0,1,0,2,5,-1,-1
1558433680577062,-1,-1,-3,-4,-8,-7,-4,-3
1558433680578057,2,3,4,6,9,1,1,3
1558433680578057,-5,-4,-4,-9,-8,-1,-7,-4
1558433680592373,-1,-1,0,0,0,3,2,-2
1558433680592373,0,0,1,3,7,1,6,3
1558433680599713,-3,-2,-2,-4,-13,-7,-6,-5
1558433680599713,-3,-1,-4,0,2,4,0,-3
1558433680614654,-1,0,3,2,-4,-9,-8,0
1558433680614654,-1,-2,-5,-4,4,-1,2,0
1558433680622652,0,-1,2,1,3,-1,3,2
1558433680622652,-3,-2,-4,-6,-6,-7,-6,-3
1558433680637265,-1,-1,2,4,2,-2,-3,-1
1558433680637265,-3,-3,-6,-11,-9,3,2,0
1558433680638264,1,0,1,0,-1,-1,-2,-2
1558433680638264,-1,1,1,-2,3,-4,-3,0
1558433680651226,-3,-3,-5,-3,1,3,1,-1
1558433680651226,0,0,2,1,0,-2,-1,0
1558433680659207,0,1,-1,2,8,3,4,4
1558433680659207,1,-1,1,0,-2,3,0,1
1558433680674167,2,0,4,1,-2,0,3,0
1558433680674167,-2,-3,-8,-6,-1,-4,-8,-5
1558433680682145,-1,-2,0,0,-3,2,1,-1
1558433680682145,0,0,1,3,3,-1,1,-1
1558433680697559,-1,-1,-5,-5,-5,-4,-4,-1
1558433680697559,-1,-1,3,6,0,-7,-2,-1
1558433680698103,-2,0,-1,-3,-12,-1,-1,-3
1558433680698103,-1,0,0,-1,4,1,-1,-1
1558433680712506,-2,-3,-6,-3,-3,-4,-3,-2
1558433680712506,-2,0,-2,-6,2,4,-4,-1
1558433680719495,-3,-5,-5,-2,0,3,-4,-6
1558433680719495,1,1,6,3,-4,-2,3,2
1558433680734456,-1,-2,-3,0,2,-9,-2,-5
1558433680734456,-1,0,0,2,-4,-3,-5,-2
1558433680743020,-2,-2,0,-1,1,-4,-6,-3
1558433680743020,2,2,-2,3,-4,-1,4,2
1558433680757421,-1,1,6,-1,6,3,3,2
1558433680757421,-4,-4,-6,-1,-1,-1,-2,-4
1558433680765290,0,-1,-5,-6,0,-3,-3,-3
1558433680765290,-2,-4,-5,-6,-6,-3,-4,-3
1558433680772269,-2,-2,0,-1,-7,-2,-3,-2
1558433680772269,2,2,3,6,6,-1,5,6
1558433680778928,-3,-2,-6,-3,-4,-5,-6,-2
1558433680778928,-1,0,0,-4,-1,3,1,0
1558433680793847,1,1,-1,3,4,1,2,4
1558433680793847,0,-1,1,-4,5,9,0,-3
1558433680803130,-1,-2,1,3,-6,-4,-1,0
1558433680803130,-1,-1,-4,0,1,0,4,1
1558433680817113,-1,-1,-2,-1,-3,-4,-1,-1
1558433680817113,-1,1,1,1,0,-2,0,-1
1558433680825085,-3,-2,-1,-6,-5,-6,-6,-2
1558433680825085,-1,-2,-4,-2,3,5,4,0
1558433680832044,1,1,6,5,2,-2,1,0
1558433680832044,-1,-2,-6,0,2,3,0,2
1558433680839904,0,0,2,2,-3,-11,-4,-1
1558433680839904,-4,-2,-3,-1,0,-6,-9,-4
1558433680854830,-2,-1,-6,-5,0,6,6,0
1558433680854830,1,2,4,2,-4,-13,-6,-1
1558433680862871,-2,-1,-1,0,-4,7,5,-2
1558433680862871,-3,-4,0,4,-1,-3,-7,-2
1558433680876627,0,-1,-2,1,5,-6,-3,-2
1558433680876627,-2,-2,-4,-2,0,6,-2,-1
1558433680885601,0,2,6,3,3,2,0,2
1558433680885601,-1,-2,-5,-4,-5,-3,0,-1
1558433680899841,-1,1,6,2,0,3,-1,-1
1558433680899841,-2,-3,-8,-5,-4,3,1,0
1558433680900562,-4,-6,-12,-4,-2,-1,-1,-2
1558433680900562,1,2,5,1,3,2,5,-1
1558433680914738,-2,-2,-4,-6,-9,-7,-5,-2
1558433680914738,-2,0,7,4,-1,-6,0,-2
1558433680922770,1,1,3,0,0,4,5,0
1558433680922770,-2,-1,-3,0,8,7,2,2
1558433680936738,-1,-1,1,3,-2,0,-2,-1
1558433680936738,-3,-2,-3,-6,-1,0,-4,-4
1558433680944443,-1,-3,-3,-2,-4,-2,0,1
1558433680944443,-1,-3,0,-1,-4,-4,-4,-4
1558433680959402,1,1,-2,1,4,3,0,0
1558433680959402,2,1,4,1,4,6,1,-1
1558433680960401,-2,-3,-8,-5,0,-3,-1,0
1558433680960401,-1,1,3,-1,-1,-1,-5,-2
1558433680974670,-2,-3,-3,-2,-2,3,2,-1
1558433680974670,-2,-3,-5,-6,-8,-2,0,-1
1558433680982671,2,3,8,2,8,3,4,2
1558433680982671,0,1,1,2,3,-1,-3,-2
1558433680996642,-2,-2,-7,-7,-12,-8,-2,-2
1558433680996642,0,-1,6,6,9,2,1,-1
1558433681005614,-2,-2,-4,-4,-3,-1,1,-2
1558433681005614,0,-2,-3,-3,-3,-1,0,2
1558433681020561,-2,-2,-3,-2,-2,2,-1,-2
1558433681020561,-1,-1,-2,-1,-2,-2,-3,-1
1558433681020561,-1,0,2,2,4,-5,-2,0
1558433681020561,-4,-5,0,4,-6,0,-2,-3
1558433681034509,-2,0,-3,0,4,5,2,0
1558433681034509,1,1,4,4,0,-3,1,2
1558433681042512,-3,-2,-9,-9,-6,-4,-7,-5
1558433681042512,1,1,6,1,-4,-2,1,-1
1558433681057433,-6,-9,-19,-17,-12,-7,-6,-4
1558433681057433,0,1,7,10,4,4,4,0
1558433681065455,-1,-1,3,1,3,1,3,-1
1558433681065455,1,0,0,-3,0,1,-2,-2
1558433681080387,-1,2,11,6,-1,-4,-3,-3
1558433681080387,-1,0,-2,-3,-3,0,0,0
1558433681080387,-1,-1,-3,0,2,1,-1,0
1558433681080387,-2,-3,-1,-2,-1,-3,1,0
1558433681094043,4,1,1,-3,-1,1,1,4
1558433681094043,-5,-6,-10,-8,-6,-5,-8,-4
1558433681102345,0,-1,3,2,2,0,-4,0
1558433681102345,1,1,0,0,-1,1,2,2
1558433681117213,0,1,1,4,14,15,10,2
1558433681117213,1,0,4,6,-1,-2,-1,0
1558433681125281,-2,-3,-9,-10,-14,-4,-3,0
1558433681125281,-3,-5,-13,-11,-13,-11,-8,-6
1558433681140247,-1,0,3,5,3,-8,-6,-2
1558433681140247,1,1,2,-3,-4,-4,0,0
1558433681140247,1,0,0,6,11,5,-2,0
1558433681140247,-3,-4,-3,-1,2,1,3,2
1558433681154175,-2,-1,1,-2,-8,-7,-4,1
1558433681154175,-3,-2,-2,0,0,1,-1,-3
1558433681161862,-1,1,2,-1,0,-1,-5,-5
1558433681161862,-1,2,-6,-1,0,-1,0,-2
1558433681176824,1,-3,-9,-5,-1,-2,-1,0
1558433681176824,-3,-4,-4,-5,-5,-6,-2,1
1558433681184835,0,-1,5,2,1,9,2,0
1558433681184835,-1,1,-1,-4,4,3,1,-1
1558433681199761,-3,-2,2,-3,-4,2,-3,-4
1558433681199761,0,-1,-3,-1,4,4,-1,2
1558433681200771,0,2,4,-1,-12,-15,-6,-2
1558433681200771,-1,0,0,2,11,0,1,0
1558433681214731,-3,-4,-5,-4,-12,2,1,-2
1558433681214731,0,-1,0,0,7,7,3,0
1558433681222979,-3,-2,-2,-4,-7,-7,-2,-2
1558433681222979,0,0,1,-2,-6,-3,-2,2
1558433681237000,0,0,1,1,-3,-8,-3,-2
1558433681237000,0,-1,1,1,5,1,2,0
1558433681244961,-1,0,-4,2,4,8,3,-1
1558433681244961,0,1,0,-2,-5,-8,-3,-1
1558433681259602,-1,0,5,2,4,4,-2,-2
1558433681259602,-1,-1,-10,-5,-2,-1,1,1
1558433681260599,1,3,12,5,5,1,-2,0
1558433681260599,-2,-2,-14,-3,-5,-1,-2,-2
1558433681274893,-3,-4,-1,-2,-2,0,-2,-1
1558433681274893,0,-2,2,-3,-8,-5,2,-3
1558433681282878,0,-1,-4,-4,1,-7,-4,1
1558433681282878,-3,-2,3,1,-5,2,-3,-3
1558433681296837,2,2,5,4,6,3,-1,-1
1558433681296837,-1,-1,-3,1,2,-5,0,1
1558433681305478,1,1,-2,-7,-3,-2,1,0
1558433681305478,1,-3,3,-2,-4,-6,-7,-3
1558433681319537,0,0,-7,-1,-3,-7,-2,0
1558433681319537,-2,0,-2,1,2,6,-2,-2
1558433681320439,1,0,-1,4,-4,-2,-1,-1
1558433681320439,-3,-6,-10,-8,-2,1,1,1
1558433681334430,0,-1,4,2,5,-3,-6,-1
1558433681334430,1,0,1,-9,-13,-10,-9,-4
1558433681342642,1,-1,4,9,9,9,4,6
1558433681342642,2,1,4,2,6,6,10,3
1558433681356345,-1,-2,-3,2,-2,-2,-4,-1
1558433681356345,-4,-4,-2,-4,-10,4,5,-2
1558433681365498,-3,-4,-7,-5,-2,-7,-2,-3
1558433681365498,2,5,8,9,11,1,-1,0
1558433681379280,1,-1,-7,-2,0,2,4,3
1558433681379280,-3,-2,-7,-7,-6,-4,-2,-1
1558433681380278,0,-2,0,1,-4,-5,-3,0
1558433681380278,-2,-6,-17,-8,-3,0,-3,-3
1558433681395241,1,4,5,6,3,-1,3,1
1558433681395241,-1,0,2,2,4,-1,-2,-2
1558433681402475,-1,-1,4,1,-2,5,4,-1
1558433681402475,0,0,-3,-5,-3,-6,-3,1
1558433681416442,-1,-1,1,-3,-3,-2,0,-1
1558433681416442,-1,0,8,7,4,-4,-2,-2
1558433681425420,1,-2,-11,-3,2,2,4,1
1558433681425420,-1,2,8,6,0,0,-3,-1
1558433681440116,-3,-3,-5,-7,-5,0,-1,-2
1558433681440116,1,0,2,-3,-3,0,-2,-1
1558433681440116,-3,-2,-1,-2,-6,-9,-1,-1
1558433681440116,0,0,1,-4,-5,0,0,-1
1558433681454083,0,-1,0,3,5,-3,-3,-2
1558433681454083,1,-1,-4,0,2,3,4,2
1558433681462337,-3,-4,-4,-5,-5,-7,-7,-3
1558433681462337,-2,-2,-3,-6,-7,-3,-4,-2
1558433681477022,-1,-2,0,-2,3,6,6,0
1558433681477022,0,1,3,5,4,-4,-3,0
1558433681485268,-3,-4,-8,-10,-13,-5,-3,-5
1558433681485268,0,0,-5,0,4,-5,-1,2
1558433681500219,-1,-4,-4,-3,-3,0,-2,0
1558433681500219,0,-1,-1,-1,-2,-1,1,2
1558433681500219,-3,-1,3,2,4,3,-5,-3
1558433681500219,0,0,4,1,0,7,-1,-2
1558433681514167,-1,1,-4,-1,-2,-6,-3,-1
1558433681514167,-2,-3,-4,3,-1,-6,-2,-1
1558433681523026,1,0,0,-11,-4,-2,-3,-2
1558433681523026,-2,-2,1,0,3,6,4,-1
1558433681537113,-1,1,5,0,-3,-2,0,0
1558433681537113,-1,-4,-4,-6,-5,-4,-3,-1
1558433681545077,1,0,-4,2,3,0,1,1
1558433681545077,-2,-1,2,0,0,0,-3,-3
1558433681559798,-1,-3,-2,-2,-9,0,-3,-4
1558433681559798,1,0,1,-2,2,3,6,1
1558433681560795,-3,-3,-1,1,3,1,-4,-4
1558433681560795,0,-1,0,2,2,-5,-1,2
1558433681574020,-1,0,0,-5,-8,1,0,-1
1558433681574020,2,0,-4,2,3,-1,-3,0
1558433681581737,-1,-1,-1,-2,-9,-10,-2,0
1558433681581737,-3,-3,-2,0,4,4,0,-2
1558433681596698,-2,0,0,8,5,1,1,-2
1558433681596698,-4,-3,-8,-19,-6,-2,-1,-2
1558433681605098,-2,1,3,-6,4,8,6,1
1558433681605098,-1,-2,2,4,-6,-5,-5,-3
1558433681620066,-1,-2,-7,-6,-2,-8,-2,-1
1558433681620066,-1,-1,1,5,-2,-3,2,-2
1558433681620635,0,0,6,10,5,4,-1,1
1558433681620635,-1,-2,-3,-4,-6,-3,-2,-3
1558433681635595,2,-1,1,5,8,8,2,2
1558433681635595,-1,0,0,-2,-7,-3,-2,0
1558433681642951,-1,-1,-2,1,6,1,0,-1
1558433681642951,0,0,2,6,-1,-6,0,0
1558433681657013,-1,-1,-4,-4,-9,-5,-5,-1
1558433681657013,-1,-1,2,-1,0,2,5,0
1558433681664987,2,2,1,7,6,6,3,0
1558433681664987,1,-1,-3,1,-1,0,0,0
1558433681679836,-1,-1,-3,-7,-4,-6,0,1
1558433681679836,0,0,0,-1,-1,2,-4,-1
1558433681687457,0,0,-2,6,2,3,1,1
1558433681687457,-4,-4,-7,-15,-14,-12,-4,-5
1558433681694437,-1,1,10,6,9,6,1,-1
1558433681694437,-2,-3,-10,-3,6,7,5,0
1558433681702415,-2,-1,-2,-7,-8,-7,-3,-4
1558433681702415,0,-2,-6,-3,0,4,2,0
1558433681716379,-1,-1,0,-2,-5,-10,-4,-2
1558433681716379,0,1,4,3,6,0,-4,-1
1558433681724356,-2,-1,2,-1,-8,-1,-4,-3
1558433681724356,-4,-2,1,-2,-1,5,7,-3
1558433681739760,-2,0,0,-2,-2,1,-3,1
1558433681739760,-1,-3,-6,4,1,0,-2,-2
1558433681747739,0,0,2,-2,-1,-1,3,1
1558433681747739,-2,-3,-4,-3,-5,-3,-6,-1
1558433681754697,-4,-4,-1,0,-4,1,-3,-4
1558433681754697,0,0,0,0,1,-1,-3,-1
1558433681762254,-3,-4,-3,-3,-3,0,-6,-3
1558433681762254,2,3,9,4,-1,-9,0,1
1558433681776363,0,-2,-12,-8,-2,-2,-1,-1
1558433681776363,2,2,4,3,7,4,3,3
1558433681784197,0,-3,-5,0,-1,-6,-4,-2
1558433681784197,0,1,1,-1,-1,2,-3,-2
1558433681799647,-1,-1,3,5,1,-4,-1,-1
1558433681799647,-4,-4,-3,-7,-9,-1,-2,-5
1558433681807626,-1,0,-3,-3,-2,-5,-3,-2
1558433681807626,1,-1,4,2,5,2,4,4
1558433681814587,-2,0,-3,-4,1,6,0,-1
1558433681814587,-3,-3,-3,0,-3,-2,-8,-4
1558433681822550,-1,-1,1,1,-4,-3,0,0
1558433681822550,-1,-2,1,2,8,1,-1,0
1558433681837357,-2,-2,-2,-3,-4,-3,0,1
1558433681837357,0,2,6,0,-6,-3,-6,0
1558433681845426,-1,-2,-8,0,-2,-2,0,0
1558433681845426,-3,-1,-3,0,-1,-4,-4,-1
1558433681859343,2,0,2,2,1,9,7,2
1558433681859343,-4,-3,-4,-5,-4,-3,-8,-4
1558433681868002,-1,-4,-1,-5,-6,-6,-2,-2
1558433681868002,0,-2,0,1,3,-3,-2,0
1558433681883238,-1,0,-3,-2,-3,-4,-5,-3
1558433681883238,1,1,1,5,2,1,4,3
1558433681883931,0,-1,-2,1,0,-1,5,3
1558433681883931,-3,-1,-6,-9,-3,1,-4,-4
1558433681897178,-1,-2,-2,-4,-4,-4,-1,-1
1558433681897178,1,-2,0,-1,0,-3,0,-1
1558433681906100,-2,-2,-7,3,11,12,6,2
1558433681906100,-1,-1,3,1,-7,-3,-3,-2
1558433681919126,-1,-1,2,-1,-3,-4,-5,-2
1558433681919126,-1,0,1,4,3,-5,4,1
1558433681927814,1,2,4,3,-1,0,0,0
1558433681927814,-1,-3,-7,-7,-2,0,-2,0
1558433681942786,-1,-2,0,0,7,6,4,-1
1558433681942786,-2,-2,-4,-3,-8,-1,-4,-3
1558433681944769,-3,-2,3,0,-1,-4,-5,-2
1558433681944769,0,-1,-4,-4,-4,-1,-2,-1
1558433681957030,0,-1,1,-1,-5,-10,-2,0
1558433681957030,-1,-2,3,7,5,4,1,-2
1558433681965716,1,3,1,-7,0,2,4,1
1558433681965716,-3,-2,-7,-2,-2,1,-1,0
1558433681978677,-3,-4,-2,-3,-6,-5,-5,-5
1558433681978677,0,-2,-3,-2,-2,-6,-5,-2
1558433681987908,-1,-1,0,2,2,9,0,-1
1558433681987908,-1,1,5,3,6,-2,1,1
1558433682002900,-1,1,-8,-2,-8,-7,-1,1
1558433682002900,1,1,0,4,3,-6,1,1
1558433682008884,-2,-1,2,-3,3,8,-2,-4
1558433682008884,1,1,0,0,-2,-4,0,2
1558433682016654,-5,-5,-11,-9,-4,-2,1,0
1558433682016654,-3,-4,-4,-9,-7,-4,-7,-6
1558433682025555,-2,-1,-4,-5,-8,-8,-3,0
1558433682025555,0,1,4,7,1,0,3,0
1558433682039732,1,0,4,1,2,-2,-4,2
1558433682039732,-2,-2,-1,1,-7,-3,4,0
1558433682047768,0,0,-5,-2,5,2,0,0
1558433682047768,-2,0,0,-3,-1,2,-1,-1
1558433682062729,2,0,2,2,4,0,1,-2
1558433682062729,1,4,8,1,2,4,-1,0
1558433682069684,-5,-9,-11,-4,-8,-8,-4,-5
1558433682069684,0,0,6,-4,0,-3,-2,0
1558433682076416,-1,-3,-14,-6,8,8,0,-1
1558433682076416,0,2,4,-6,-7,-1,1,0
1558433682085391,-1,-2,-2,0,-3,-6,-2,-1
1558433682085391,-2,-3,3,4,1,3,0,-3
1558433682099387,-1,0,0,1,-5,-6,-6,-4
1558433682099387,-2,-3,-5,-1,-3,-4,-1,1
1558433682108358,2,3,3,-4,-4,-2,-2,1
1558433682108358,-1,-2,-4,-2,3,5,1,-2
1558433682121329,1,3,5,2,-4,-2,4,-1
1558433682121329,0,-1,-3,-1,0,2,3,-1
1558433682130270,-1,-2,-3,4,12,11,2,0
1558433682130270,0,-1,0,0,-6,-3,0,0
1558433682136255,-1,0,2,2,5,2,2,1
1558433682136255,-2,-1,-13,-9,-9,-1,-2,-3
1558433682145238,-2,1,6,0,4,-1,2,-1
1558433682145238,-1,-1,-2,2,1,-2,-2,-3
1558433682159194,-5,-4,-6,-7,-10,-10,-8,-5
1558433682159194,-1,-3,1,-1,1,0,0,-2
1558433682168170,1,-1,0,-2,-1,6,1,2
1558433682168170,1,1,2,8,2,-3,1,2
1558433682181552,-2,-2,-2,-5,-4,2,-4,-2
1558433682181552,1,4,8,2,3,-3,0,1
1558433682190109,-1,-3,-5,-9,-9,-13,-4,-2
1558433682190109,0,0,2,3,1,6,4,-1
1558433682196122,1,0,2,0,-2,2,0,-1
1558433682196122,-3,-2,0,-1,4,6,-3,-2
1558433682205071,-2,1,0,2,-7,-11,-4,-3
1558433682205071,-1,-1,-1,0,-7,-4,0,-1
1558433682219033,1,1,4,3,13,4,4,3
1558433682219033,-3,-5,-9,-3,0,0,-1,-1
1558433682228011,1,0,4,1,6,6,7,2
1558433682228011,-2,-4,-7,-5,-6,-4,-5,-4
1558433682241036,-2,-2,-1,1,-4,0,0,-4
1558433682241036,-2,-2,0,-4,-5,-7,-6,1
1558433682249951,-2,-1,-6,-3,-3,-6,-5,0
1558433682249951,0,-2,-9,-5,-4,2,1,1
1558433682256932,-1,-2,0,1,5,-1,1,3
1558433682256932,1,1,2,3,5,4,1,2
1558433682264911,0,3,1,7,4,-1,2,0
1558433682264911,-2,0,-2,-8,-5,-3,-4,-3
1558433682278874,0,1,2,-1,-7,-1,0,-1
1558433682278874,-2,-4,-5,-3,-2,-2,-3,-3
1558433682287848,0,-1,0,-3,0,3,0,-2
1558433682287848,-2,-1,-1,0,0,-8,-2,-1
1558433682301820,-3,-2,-4,1,7,2,-3,0
1558433682301820,-1,-1,7,2,-5,-2,2,0
1558433682310788,1,-3,-15,-11,-6,-8,-3,-1
1558433682310788,-3,-1,3,-2,3,7,6,-1
1558433682316772,1,1,4,7,2,2,1,1
1558433682316772,-2,-4,-9,-5,-2,-1,-2,-2
1558433682325752,-2,1,6,4,-6,-2,-3,-2
1558433682325752,0,1,2,2,2,-12,-4,0
1558433682338713,-2,-2,-8,1,-2,-1,-3,0
1558433682338713,-1,1,2,-1,4,7,5,0
1558433682347688,0,-1,0,-4,-11,-8,-4,-2
1558433682347688,-1,-6,-10,-6,0,-2,-2,-2
1558433682361785,-1,1,6,4,-2,4,2,-1
1558433682361785,-1,-3,-11,-8,-2,-1,-3,-1
1558433682370629,-1,0,7,2,2,5,2,2
1558433682370629,-1,-1,1,1,-5,-9,-8,-1
1558433682376615,-2,-4,-4,-7,0,-1,-1,-2
1558433682376615,-1,-1,-1,2,-3,-4,-4,-3
1558433682385587,-1,-2,0,0,3,-4,1,2
1558433682385587,-1,1,0,2,3,5,-1,-4
1558433682398553,-3,-2,0,-3,-7,-4,-2,-2
1558433682398553,0,1,-1,2,-4,0,-1,-1
1558433682407529,-3,-3,-1,-2,4,-4,-2,-1
1558433682407529,1,2,4,4,2,3,3,1
1558433682421506,-1,-2,1,-7,-2,-2,-5,-4
1558433682421506,2,2,-2,1,10,2,-1,3
1558433682430790,0,-2,0,-4,-12,2,0,-1
1558433682430790,-2,-4,-5,-3,0,3,4,0
1558433682436978,1,2,3,2,-2,-3,0,2
1558433682436978,-1,-2,1,3,7,-2,0,-2
1558433682445750,-3,-1,-3,0,-1,0,0,-1
1558433682445750,-1,1,5,-2,-2,3,-2,0
1558433682458726,1,-1,-3,5,-2,-3,-1,0
1558433682458726,-3,-3,-6,-10,-6,-4,-2,-4
1558433682467691,-3,-3,-6,-3,5,8,2,-4
1558433682467691,-1,1,2,-1,0,3,2,-3
1558433682481669,-3,-4,-5,-6,-5,-8,-3,-3
1558433682481669,0,1,4,2,-1,1,-1,-1
1558433682490630,0,-1,0,2,1,0,-6,-1
1558433682490630,-1,-1,-2,-3,-5,-7,2,2
1558433682496612,-1,0,-3,3,2,3,-2,-1
1558433682496612,0,-1,0,-5,5,0,-1,0
1558433682505590,1,2,0,2,-4,-6,-2,-2
1558433682505590,-4,-6,-8,-5,-5,-1,-5,-2
1558433682519605,-1,0,3,-7,1,6,4,4
1558433682519605,-2,-6,-6,-2,-4,-8,2,-2
1558433682527533,0,0,7,4,-3,-4,-3,-3
1558433682527533,-1,0,-9,-3,6,2,0,-2
1558433682541493,1,2,11,13,6,-1,3,3
1558433682541493,-3,-4,-6,-2,3,0,-5,-3
1558433682558447,-1,-4,-7,-12,-8,-3,2,-1
1558433682558447,0,1,2,3,3,-3,-1,-3
1558433682559447,0,-2,-4,-5,-5,9,4,-2
1558433682559447,-1,0,3,2,-4,-4,0,-1
1558433682565445,-2,0,6,12,1,-5,-1,0
1558433682565445,-1,-1,-5,-4,-11,-1,3,2
1558433682579391,-1,1,7,-1,2,-8,-9,-7
1558433682579391,0,-1,-12,1,-8,5,1,2
1558433682588367,0,-3,-2,-4,18,11,5,2
1558433682588367,1,0,-3,12,8,3,3,2
1558433682601332,2,5,22,14,-5,0,0,0
1558433682601332,-4,-8,-31,-28,-14,-12,-6,-5
1558433682610311,-1,-1,-12,-29,-20,-1,-5,-1
1558433682610311,2,3,13,1,11,9,7,2
1558433682616312,-5,-7,-8,3,1,-2,-1,-2
1558433682616312,1,4,17,11,9,3,4,2
1558433682625391,-1,1,4,8,3,3,3,3
1558433682625391,0,1,18,4,1,-6,-8,-2
1558433682639231,0,-3,-27,-10,-2,-4,0,1
1558433682639231,0,-1,9,5,-1,3,3,-1
1558433682648207,-2,-4,-6,1,4,1,-3,-3
1558433682648207,-2,-1,10,2,-7,-9,-2,2
1558433682661183,3,9,17,3,11,-7,0,-2
1558433682661183,-6,-13,-41,-25,-26,-2,-1,0
1558433682670153,1,2,15,7,7,-2,-4,-4
1558433682670153,-4,-9,-22,-9,-2,-4,-7,-5
1558433682676134,-1,-1,17,7,-14,-9,-4,-1
1558433682676134,0,3,3,11,26,14,3,-1
1558433682685295,-1,1,3,-10,-13,2,4,1
1558433682685295,-5,-8,-16,-8,-3,0,-3,-3
1558433682699249,-1,-3,-7,-2,-4,-6,-3,-2
1558433682699249,0,4,25,8,-15,-13,-7,0
1558433682708046,-3,-7,-27,-7,10,4,-5,-2
1558433682708046,0,3,-8,-7,-14,-6,-3,-3
1558433682721013,1,-2,-4,3,23,21,7,3
1558433682721013,-3,-7,-11,5,0,0,1,-4
1558433682730023,-3,-5,-6,-12,-14,-14,-6,-4
1558433682730023,-1,1,6,8,22,3,-1,-2
1558433682736969,-2,-1,-4,-20,-16,2,-2,-2
1558433682736969,10,18,52,30,19,12,12,4
1558433682744951,-11,-20,-53,-24,-12,-17,-11,-8
1558433682744951,-2,-4,-7,-9,-13,-3,-3,-1
1558433682758910,-3,-2,1,-6,12,6,7,1
1558433682758910,-1,3,21,11,-7,-5,-2,-3
1558433682767887,2,5,14,22,19,4,0,0
1558433682767887,-3,-6,-23,-32,-15,-6,1,1
1558433682781851,-2,-1,-8,-2,-3,-2,1,-3
1558433682781851,-3,-4,-15,-22,-18,-16,-13,-6
1558433682790827,5,10,37,20,18,4,-1,4
1558433682790827,-4,-3,-17,5,9,7,-3,-4
1558433682812771,-2,-3,-11,-10,-36,-14,-1,-1
1558433682812771,-1,-1,-1,-4,15,12,8,4
1558433682814764,4,7,15,15,4,-1,6,2
1558433682814764,1,1,16,8,2,0,-2,-4
1558433682818750,1,0,2,20,10,-14,-13,1
1558433682818750,-5,-7,-10,-7,3,1,0,-4
1558433682827727,6,13,37,17,9,-7,1,2
1558433682827727,-3,-8,-26,-13,6,14,2,1
1558433682841696,0,-1,1,3,5,5,1,-2
1558433682841696,3,8,27,24,5,-19,-6,1
1558433682850667,-2,-4,-9,-8,24,15,2,0
1558433682850667,-3,-5,-8,1,-21,-12,0,-1
1558433682865625,-4,-10,-21,-22,-2,-2,2,-1
1558433682865625,-2,-5,-16,-11,5,1,-14,-4
1558433682866662,-1,4,14,2,-20,-11,-3,-1
1558433682866662,7,9,25,21,6,14,15,6
1558433682878591,-6,-4,-12,-27,-6,-1,-4,-4
1558433682878591,1,-4,-11,4,3,1,-9,-1
1558433682887567,-1,-3,-7,4,-17,2,3,1
1558433682887567,-1,0,6,9,11,-3,-12,-6
1558433682901709,-1,-6,-13,-3,13,5,-2,4
1558433682901709,7,10,14,-6,21,8,6,7
1558433682910506,-8,-14,-17,-14,-25,7,8,2
1558433682910506,-1,-3,-6,-7,-22,-12,-7,-2
1558433682925494,3,6,14,11,18,5,-1,-1
1558433682925494,-2,-2,-1,9,-8,-12,-9,-2
1558433682926463,0,-3,-12,-21,-13,-9,-14,-1
1558433682926463,1,0,10,-2,2,3,9,5
1558433682939431,0,0,6,10,6,6,9,1
1558433682939431,1,2,-13,-8,-43,-2,7,2
1558433682947624,-9,-12,-25,-8,15,12,-4,-8
1558433682947624,-3,-2,4,0,-5,-16,-14,-6
1558433682961595,-2,-4,-5,-3,-11,-12,-1,2
1558433682961595,-4,-2,10,14,-6,0,2,-5
1558433682970381,4,6,17,28,35,9,5,2
1558433682970381,3,4,-6,-38,-51,4,18,7
1558433682985305,-7,-9,-6,-3,10,6,-8,-4
1558433682985305,-8,-8,-10,-15,-8,-3,0,-4
1558433682987402,8,15,25,23,15,7,11,6
1558433682987402,-8,-12,-13,-8,18,-6,-11,-6
1558433682999268,-2,4,13,22,-2,-4,-7,-2
1558433682999268,-2,-4,-13,-21,-17,-8,-6,-2
1558433683008244,-2,4,20,13,0,-12,-14,-12
1558433683008244,1,0,3,9,8,10,7,5
1558433683021212,-1,-3,-9,-13,-14,-9,-9,-6
1558433683021212,-3,2,12,18,33,9,-8,-4
1558433683030185,-3,-8,-31,-34,-32,-2,4,0
1558433683030185,1,2,13,21,23,-1,-3,-3
1558433683047140,1,2,7,-21,-43,-10,0,0
1558433683047140,-2,-6,-22,-10,-13,-8,0,-1
1558433683048138,-1,-1,-2,-3,23,4,-5,-2
1558433683048138,2,6,8,14,-7,-10,-5,-1
1558433683059107,1,1,3,0,10,-1,-6,-2
1558433683059107,0,-1,3,-1,-16,-8,8,3
1558433683068094,-6,-5,1,3,-4,-16,-18,-3
1558433683068094,-1,-6,-22,-10,-2,1,2,-4
1558433683090054,2,2,3,5,23,24,19,6
1558433683090054,-1,-3,-7,-3,10,-5,-7,-6
1558433683092023,1,-5,-20,-37,-48,-14,-12,-3
1558433683092023,3,6,17,8,10,1,6,6
1558433683104986,2,3,7,28,10,2,5,-1
1558433683104986,-6,-7,-17,-37,0,-1,-5,-2
1558433683106979,3,4,13,3,-17,-13,-4,3
1558433683106979,-3,-2,-4,-7,-8,16,12,2
1558433683118949,-10,-11,-18,-18,-17,-30,-13,-10
1558433683118949,-2,-3,3,6,-4,7,6,-2
1558433683134904,5,4,5,8,27,20,16,2
1558433683134904,-3,-4,0,-1,-3,-2,-7,-4
1558433683142090,3,2,2,9,-17,-13,-5,2
1558433683142090,0,0,0,12,16,6,3,3
1558433683150865,-5,-6,-13,-8,-33,-8,3,-1
1558433683150865,1,2,9,6,48,5,-6,0
1558433683163830,5,3,0,-8,-14,-4,14,7
1558433683163830,1,2,-4,-16,-12,8,0,-1
1558433683172804,0,-2,0,12,-16,-13,-2,0
1558433683172804,3,4,7,-4,-9,-1,1,4
1558433683178791,-5,-2,-4,-2,-10,6,-5,-6
1558433683178791,-2,-1,-6,-3,-2,-1,-3,-2
1558433683187764,0,0,1,7,3,-4,11,2
1558433683187764,-7,-8,-12,-10,-1,-6,-20,-7
1558433683201731,-1,-3,-9,-18,-12,-11,-15,-4
1558433683201731,3,-1,3,28,13,12,27,5
1558433683210704,-1,-1,-1,-13,-7,7,0,-3
1558433683210704,-6,-5,-6,-12,-20,-15,-5,-8
1558433683224704,1,-2,-6,-2,23,4,-7,-1
1558433683224704,-5,-6,-2,-11,-15,-3,-9,-3
1558433683231647,4,4,6,17,29,7,11,5
1558433683231647,1,2,-3,-8,-24,3,14,0
1558433683238642,2,2,7,3,12,4,6,3
1558433683238642,-2,-2,-3,4,-7,-13,-10,-6
1558433683247733,-5,-3,4,-2,-14,-21,-14,-9
1558433683247733,-5,-4,-4,3,-3,14,4,-6
1558433683261728,0,-2,-14,-16,-3,5,2,3
1558433683261728,-3,-4,3,14,38,14,6,0
1558433683270548,-2,-2,-10,-24,1,0,-2,-1
1558433683270548,0,-4,-8,-15,-41,-11,-4,1
1558433683284504,-2,0,5,8,26,-2,-11,-6
1558433683284504,-8,-10,-10,0,-12,-12,-8,-7
1558433683291783,0,1,-2,1,13,9,5,1
1558433683291783,-1,2,11,17,29,13,2,2
1558433683299464,1,2,8,18,10,1,9,5
1558433683299464,1,-1,-14,-17,-1,3,3,3
1558433683308441,-3,-4,-8,1,-10,-6,-7,-4
1558433683308441,0,-1,-4,-1,13,-10,-18,-4
1558433683321408,-2,-2,-1,5,-25,-3,0,-4
1558433683321408,3,6,18,16,19,-1,1,0
1558433683330384,-3,-6,-10,-6,1,15,10,2
1558433683330384,2,4,7,10,-2,1,8,9
1558433683344347,-7,-4,-6,-23,0,-1,-4,-7
1558433683344347,-2,-3,-4,-3,3,-7,-13,-5
1558433683353321,-10,-8,-1,3,-29,-22,-13,-11
1558433683353321,-4,-4,-10,-12,18,7,6,-3
1558433683359318,1,1,1,12,9,11,7,2
1558433683359318,0,-1,-8,-13,-25,-9,-1,3
1558433683374295,4,2,5,-7,17,-1,3,4
1558433683374295,-1,-1,-1,0,-22,-15,-7,-5
1558433683381246,1,2,5,-4,-6,10,12,5
1558433683381246,2,0,-2,-5,-14,-4,-4,-1
1558433683390222,-1,1,-3,10,1,-1,-3,-2
1558433683390222,0,0,3,10,18,6,2,-3
1558433683404187,1,0,-1,1,-6,1,7,4
1558433683404187,2,4,9,2,-8,-10,-14,0
1558433683413161,-2,1,6,1,9,-2,6,0
1558433683413161,-3,-4,-11,-7,-26,-4,-3,-3
1558433683419144,-1,-3,-5,-11,-19,-7,-2,3
1558433683419144,2,1,0,-6,-5,-6,3,1
1558433683428122,-1,-4,-2,9,7,4,3,-1
1558433683428122,5,6,11,11,10,1,-4,2
1558433683442102,-5,-5,-9,3,24,9,-6,-5
1558433683442102,2,4,4,6,9,19,14,7
1558433683450232,-3,-2,-7,-8,-9,-6,-15,-5
1558433683450232,0,0,1,6,5,-4,-5,1
1558433683464025,-2,-3,-4,-6,-4,-7,0,0
1558433683464025,-1,-1,4,5,5,-7,-6,-5
1558433683473000,0,0,-4,-3,12,20,7,1
1558433683473000,-4,-2,-7,-1,-9,-17,-3,-7
1558433683478984,1,2,-1,-1,-8,-2,-2,-4
1558433683478984,-2,-1,1,-3,-9,1,0,-3
1558433683487961,-2,-3,-5,-19,-7,-6,0,-4
1558433683487961,-2,-2,1,-2,1,-2,-1,-1
1558433683501923,-1,0,0,-1,-6,-3,-1,0
1558433683501923,4,2,4,12,20,9,9,7
1558433683509903,1,0,-1,2,1,1,-11,-2
1558433683509903,-7,-9,-12,-18,-4,-1,0,-6
1558433683524093,1,1,2,5,-10,-9,1,-2
1558433683524093,0,0,0,2,0,-6,-19,-6
1558433683532840,-2,-3,-4,-14,-2,7,5,0
1558433683532840,6,5,9,10,21,7,4,6
1558433683538824,-3,-7,-10,-2,-4,3,-7,-3
1558433683538824,-3,-3,-3,-8,-9,-5,2,1
1558433683547800,-1,0,-3,-5,-12,-8,-7,1
1558433683547800,1,2,5,9,8,6,7,3
1558433683561771,2,2,12,10,11,3,-3,0
1558433683561771,-5,-6,-14,-22,-11,2,5,-3
1558433683570749,-4,-6,-8,6,2,2,-1,-4
1558433683570749,-1,1,5,-7,-14,-5,-1,1
