timestamp,emg1,emg2,emg3,emg4,emg5,emg6,emg7,emg8
1558433566267485,0,-2,-2,1,-2,-5,3,0
1558433566267485,1,2,5,0,5,7,10,3
1558433566268483,-2,-6,-15,-12,-8,-4,-5,-4
1558433566268483,-1,-1,3,1,8,4,2,2
1558433566268483,-1,0,0,1,-5,-3,-5,-2
1558433566268483,-3,-1,6,2,-5,-3,-2,-3
1558433566269481,3,3,8,10,3,2,2,2
1558433566269481,-2,-2,-11,-10,-2,-1,-2,-2
1558433566281453,-3,-5,-7,0,-3,-3,-6,-3
1558433566281453,3,1,-2,-6,-3,-12,1,2
1558433566289426,-3,-3,-3,2,7,9,0,-6
1558433566289426,-1,-2,2,6,-3,-6,-2,-1
1558433566297405,3,2,3,-8,0,-5,-2,1
1558433566297405,-2,-2,-6,-6,-6,-6,-9,-2
1558433566310370,-3,-2,-2,-7,-7,-2,2,1
1558433566310370,0,-1,3,7,0,0,5,1
1558433566321341,0,0,-1,0,6,8,4,1
1558433566321341,1,-1,-4,-2,-5,-2,3,1
1558433566325330,1,2,5,1,2,-4,-1,0
1558433566325330,-3,0,5,0,-4,0,-3,-1
1558433566342285,-2,-3,-1,1,0,0,-1,-3
1558433566342285,-1,-6,-13,-6,-7,-6,-5,0
1558433566349265,0,-1,-1,-7,-3,-2,-4,-1
1558433566349265,-3,-1,-1,0,-3,-2,-7,-4
1558433566388161,2,1,0,1,1,-1,3,3
1558433566388161,3,3,7,6,9,0,7,4
1558433566389158,0,-3,1,0,-6,1,-2,-2
1558433566389158,0,1,0,3,5,4,-3,-1
1558433566390157,-1,0,-1,3,0,0,2,0
1558433566390157,-2,1,-3,-3,0,0,-3,-1
1558433566393149,-2,-2,-3,-1,-9,-5,-1,-2
1558433566393149,-2,-2,-2,-1,4,4,1,-1
1558433566402125,-2,-4,-1,-3,-4,-6,-3,-2
1558433566402125,-2,-2,-3,-4,-4,-3,-3,-1
1558433566408110,0,0,0,0,0,1,5,4
1558433566408110,-2,-1,1,-4,-9,-12,-4,-9
1558433566417085,4,4,7,6,13,12,7,13
1558433566417085,-8,-10,-15,-10,-5,-2,-4,-17
1558433566430053,0,4,8,5,-2,-5,-5,-1
1558433566430053,-1,-4,-10,-3,-1,-4,-2,2
1558433566439026,0,1,-1,-9,2,6,3,0
1558433566439026,1,-1,6,2,-6,-3,-4,1
1558433566445010,1,1,-6,-2,6,-1,7,4
1558433566445010,-3,-1,1,-1,0,0,0,0
1558433566461964,-4,-2,-2,3,-11,-12,-5,-7
1558433566461964,0,0,1,2,7,6,2,4
1558433566467947,-3,-2,-6,-5,-2,1,-2,-6
1558433566467947,0,2,2,-1,-3,-2,-1,3
1558433566476925,-2,-3,-4,-4,-8,-4,-4,-5
1558433566476925,1,0,0,-1,7,6,3,1
1558433566489889,-1,-2,-2,-2,-2,-6,-4,-2
1558433566489889,1,1,5,11,6,4,9,1
1558433566498864,-1,-1,-1,-6,0,-1,-3,-3
1558433566498864,1,0,3,-3,0,-2,-5,0
1558433566504850,0,3,14,18,8,8,-4,-3
1558433566504850,-4,-11,-26,-22,-1,5,0,1
1558433566521805,2,4,0,-7,-5,-11,4,2
1558433566521805,1,-4,-18,-8,0,-4,3,5
1558433566527789,2,7,38,10,1,-3,-2,-2
1558433566527789,1,0,-13,3,1,4,-2,-4
1558433566536764,-6,-9,-19,-9,-7,-6,-5,-5
1558433566536764,0,3,15,9,0,-1,-1,-1
1558433566550758,-3,-4,-11,-12,-5,0,-1,-1
1558433566550758,1,1,13,4,-2,-1,-2,2
1558433566558743,2,3,11,6,4,6,-4,0
1558433566558743,-3,-6,-17,-7,-2,-5,0,-1
1558433566565722,1,1,8,9,9,2,4,5
1558433566565722,-2,-4,-8,-4,-5,-8,-3,-4
1558433566581644,-3,-4,-5,-5,-5,3,-2,-6
1558433566581644,-1,2,7,3,0,-8,-8,0
1558433566587628,-3,-1,-8,-5,-1,2,1,0
1558433566587628,3,3,7,3,7,7,2,2
1558433566596604,0,-1,-6,4,8,2,5,3
1558433566596604,0,3,9,2,-2,1,-3,-4
1558433566610635,-4,-7,-18,-8,-4,-3,-3,-4
1558433566610635,-1,-1,2,-4,-6,-8,-3,-2
1558433566619553,-1,1,6,7,-4,-3,-3,-3
1558433566619553,-2,1,2,5,6,3,3,4
1558433566625530,-1,-4,-10,-12,-6,-7,-11,-3
1558433566625530,1,0,4,0,-2,2,4,0
1558433566641485,-1,-1,2,1,-1,-4,-2,-1
1558433566641485,0,0,0,0,-2,-5,-3,-1
1558433566647474,-1,-2,-10,-3,3,6,0,-2
1558433566647474,-1,3,15,12,-2,-4,-1,-1
1558433566656448,-3,-1,-1,-7,-3,-2,-8,-1
1558433566656448,-2,-3,-8,-4,-6,1,4,-4
1558433566670409,0,-2,3,9,0,1,3,0
1558433566670409,2,2,14,9,5,-7,-2,0
1558433566686364,1,0,-4,0,0,4,-2,-5
1558433566686364,-3,-4,-8,-4,-7,-4,-1,-1
1558433566692348,1,-1,0,-4,0,1,4,0
1558433566692348,-4,-2,-8,-1,3,6,0,-3
1558433566701325,1,0,8,1,-3,-7,-1,0
1558433566701325,1,1,4,0,0,3,5,0
1558433566708306,-1,0,-6,-4,5,5,-2,-1
1558433566708306,-2,-2,0,-2,-9,-3,-4,0
1558433566716284,-1,-2,-4,-1,1,-6,-1,-1
1558433566716284,2,1,2,-2,2,11,5,1
1558433566730246,0,-1,-4,0,-5,-3,1,4
1558433566730246,0,0,-1,4,1,-4,-2,-3
1558433566739223,-5,-3,-2,-3,-2,2,-5,-4
1558433566739223,-4,-5,-8,-4,-5,-4,-4,-5
1558433566753185,-3,-2,-3,-4,-4,-3,-1,-2
1558433566753185,2,-1,0,-3,3,1,2,1
1558433566762162,-1,-3,1,7,-3,-2,1,0
1558433566762162,1,1,6,7,14,5,1,-1
1558433566768146,-2,0,-2,-2,-1,-3,-6,-2
1558433566768146,-6,-7,-9,-4,-3,1,2,-1
1558433566777122,-3,-1,-2,-1,-2,-4,-3,-1
1558433566777122,0,-3,2,-5,-12,-8,0,0
1558433566790087,-1,-5,-15,-17,-2,3,-1,-1
1558433566790087,1,0,-2,-2,1,-2,-3,-1
1558433566799063,-3,-3,-2,0,1,2,0,-2
1558433566799063,-3,0,0,0,-1,-6,-7,-3
1558433566813025,1,1,1,3,-4,-7,-3,-3
1558433566813025,0,-2,-1,-4,-4,-2,2,1
1558433566822001,2,1,-1,-3,1,-1,2,1
1558433566822001,-1,-2,-1,0,-5,-3,-4,-2
1558433566827986,-2,-4,-1,3,-4,-1,1,-1
1558433566827986,0,1,2,-4,1,-2,-3,-2
1558433566836961,0,-1,-2,4,-4,5,4,-1
1558433566836961,-2,-3,-12,-19,-1,-7,-4,0
1558433566849926,-2,-2,-5,-6,-3,-1,1,3
1558433566849926,-1,-1,-1,-3,-3,-1,2,-3
1558433566858902,-1,1,4,3,1,6,4,-5
1558433566858902,-2,-1,1,5,-4,-7,-3,-1
1558433566872865,0,2,7,6,11,7,3,1
1558433566872865,-1,-2,-7,-2,-6,-4,-5,-2
1558433566881841,-2,-1,-2,-4,-3,-2,-3,0
1558433566881841,-1,0,1,1,-3,-3,-2,0
1558433566887825,-2,0,1,1,0,-6,-1,1
1558433566887825,-1,0,4,2,4,5,-2,1
1558433566896818,1,-1,-2,-2,3,-3,-1,-1
1558433566896818,-4,-4,-5,-4,-7,0,-3,-5
1558433566910765,1,-1,-1,2,4,5,2,1
1558433566910765,-3,-1,-1,-2,-3,-1,1,-2
1558433566918742,-3,-4,-4,-10,-2,-10,-8,-2
1558433566918742,0,-1,0,5,-2,-3,-1,-2
1558433566932705,0,-2,-6,-15,-6,-3,-5,-5
1558433566932705,0,-1,1,0,-5,-4,1,0
1558433566941681,1,1,-1,3,6,5,7,4
1558433566941681,-1,1,3,3,-9,0,-1,-1
1558433566947667,-2,-2,0,1,-4,-4,-4,-1
1558433566947667,0,1,7,0,3,-2,-4,-1
1558433566956641,-2,0,-11,2,5,13,4,1
1558433566956641,0,-1,-2,-13,-1,0,-4,0
1558433566970603,1,2,7,14,7,2,4,-3
1558433566970603,-3,-5,-5,-7,-8,-7,-8,-3
1558433566979580,0,0,6,5,0,2,2,3
1558433566979580,-1,-1,-2,-1,1,3,3,0
1558433566992546,-3,-2,-5,-2,-3,-2,-1,-1
1558433566992546,0,-1,0,3,-1,1,-1,-1
1558433567001522,2,1,1,0,3,-8,-3,2
1558433567001522,0,-2,-4,-3,-4,1,-2,-3
1558433567007505,1,2,10,1,-3,0,0,0
1558433567007505,-4,-5,-12,-5,4,9,4,-1
1558433567022465,-3,-3,-4,-8,-8,-11,-8,-5
1558433567022465,-1,-2,-1,-1,-3,-4,-3,-2
1558433567030445,-3,-1,-1,2,5,5,-1,-3
1558433567030445,-1,-1,3,0,-2,-9,-2,0
1558433567039420,1,0,-1,4,0,2,0,-3
1558433567039420,2,3,3,3,11,-4,2,2
1558433567052385,-4,-4,-6,-8,-14,-8,-5,-3
1558433567052385,-1,-3,-4,-5,-5,1,0,0
1558433567061361,-1,0,4,1,1,-2,-6,-2
1558433567061361,-3,1,4,6,5,9,4,-1
1558433567067345,-1,-1,-1,-1,1,-5,0,0
1558433567067345,1,2,1,3,4,4,3,1
1558433567082305,-2,-2,3,2,-2,1,-1,-2
1558433567082305,-3,-5,-9,-6,-3,-4,0,0
1558433567090284,-2,-2,-1,1,-2,-5,-5,-1
1558433567090284,-2,-2,-5,-11,-10,-3,-4,-5
1558433567099260,0,2,10,6,9,7,5,2
1558433567099260,0,1,-6,3,13,12,0,1
1558433567113222,-2,-3,-5,-6,-7,-3,1,0
1558433567113222,0,3,5,4,5,6,3,1
1558433567121201,-1,-3,-9,-12,-11,-5,-6,-5
1558433567121201,-1,0,5,1,-7,-7,-4,0
1558433567128183,1,1,-1,5,1,-2,2,1
1558433567128183,-2,0,-1,4,3,2,0,0
1558433567143143,-2,-2,0,-15,-10,-4,-4,0
1558433567143143,-4,-3,-7,-1,2,9,2,0
1558433567150125,-1,1,4,1,-3,-6,-3,-2
1558433567150125,-2,-2,1,0,-8,-8,-1,-1
1558433567159100,0,-1,-11,1,3,-2,0,-1
1558433567159100,-1,-1,4,-2,0,-6,-3,-2
1558433567173062,0,-3,-4,-1,0,3,-2,-3
1558433567173062,0,1,-5,-12,2,-5,-3,-1
1558433567182045,-3,-4,0,1,-4,-3,-2,-4
1558433567182045,0,2,1,1,-7,2,0,0
1558433567188022,-3,-1,-3,-2,6,11,3,0
1558433567188022,0,0,1,1,-4,-1,-4,-7
1558433567202985,-1,-1,-3,3,-1,-7,0,0
1558433567202985,-4,-5,-5,-5,-2,-3,-3,-3
1558433567218940,-1,-1,2,0,1,6,0,-3
1558433567218940,-1,-3,-7,-3,0,1,-3,3
1558433567220935,0,-1,1,0,4,4,4,2
1558433567220935,3,2,6,5,-6,-7,-3,-1
1558433567232907,2,1,1,1,2,-3,1,1
1558433567232907,-5,-5,-6,-1,2,0,0,-1
1558433567241882,3,3,2,1,-6,-4,0,2
1558433567241882,-1,-3,-7,-11,-2,-4,-4,-2
1558433567247870,0,-1,-2,-2,0,2,-2,-3
1558433567247870,-1,0,0,-1,-5,-9,-4,-2
1558433567262822,0,-1,1,1,11,7,4,1
1558433567262822,1,-2,2,1,-5,-5,-2,2
1558433567269803,-2,-3,-4,-5,-13,-6,-1,-3
1558433567269803,-1,2,2,6,7,5,4,3
1558433567278781,-2,-2,-3,-3,-5,-1,-3,-4
1558433567278781,-2,-1,-1,1,5,5,1,0
1558433567292742,0,1,1,0,5,4,0,-2
1558433567292742,0,2,6,8,-4,-8,-4,-3
1558433567309699,-5,-7,-23,-18,-8,-2,-7,-3
1558433567309699,-2,-2,0,-2,-2,-5,-7,-4
1558433567310697,1,-1,2,0,-3,0,8,3
1558433567310697,1,2,4,6,6,-3,1,1
1558433567322669,0,0,5,5,1,2,1,-3
1558433567322669,3,1,3,6,7,6,7,2
1558433567330642,-4,-4,-4,-6,2,-7,-10,-4
1558433567330642,2,0,3,3,-4,2,0,2
1558433567339620,-2,1,6,4,-4,-8,1,-2
1558433567339620,-4,-2,-11,-15,-5,-1,-1,-3
1558433567352587,0,-1,4,5,4,0,4,-1
1558433567352587,-3,-6,-11,-7,-5,0,-2,-3
1558433567361560,1,0,4,6,2,-9,-8,1
1558433567361560,-1,0,2,-1,-3,1,1,0
1558433567375523,-2,-3,-6,-5,-12,-6,-6,-5
1558433567375523,1,1,1,0,12,9,9,2
1558433567382510,-1,1,3,-1,7,10,2,0
1558433567382510,0,0,10,9,-1,-6,-2,0
1558433567399462,-1,-2,-19,-9,-5,-4,-1,2
1558433567399462,-3,-4,0,-3,-11,-8,-8,-6
1558433567400456,0,0,-3,2,4,5,4,4
1558433567400456,-1,0,-1,-13,-3,0,-1,0
1558433567412426,0,0,3,-1,0,1,-7,-5
1558433567412426,1,0,2,-2,-7,-2,-1,1
1558433567421408,-1,-1,0,4,3,-3,-1,0
1558433567421408,-2,-2,-2,-2,-6,-2,-1,0
1558433567436461,0,1,4,3,-2,-7,-2,-1
1558433567436461,-1,-3,-5,-1,2,6,3,1
1558433567442345,1,-2,3,-1,-5,-5,-3,-1
1558433567442345,-1,-2,-2,3,-1,-1,-6,-4
1558433567459302,-1,-1,-1,-5,-6,-4,-4,1
1558433567459302,-1,0,-9,0,11,2,7,2
1558433567460302,-1,0,-3,2,2,0,-1,1
1558433567460302,-2,-1,-4,-5,-8,0,1,-4
1558433567473262,0,-1,0,-4,-5,-7,-3,-2
1558433567473262,-1,-1,-3,-2,-4,-7,-2,0
1558433567482237,1,-2,-5,-2,-2,1,0,-1
1558433567482237,0,2,0,5,11,5,2,-2
1558433567496210,-1,-2,3,0,-8,-4,-4,-2
1558433567496210,1,1,4,5,13,16,5,2
1558433567503189,-3,-2,-4,-9,-7,-2,-6,-3
1558433567503189,-2,-2,1,1,-4,-4,0,0
1558433567519137,2,0,0,7,4,4,4,4
1558433567519137,-2,-2,-4,-11,-3,-4,-8,-7
1558433567520136,-1,-1,3,-2,-5,-3,-1,-1
1558433567520136,-1,-3,-5,0,5,5,1,0
1558433567533246,-2,-1,-1,-2,-5,-3,-4,-5
1558433567533246,0,-4,-1,7,6,2,-1,0
1558433567542075,-2,1,1,-4,-5,-5,-6,0
1558433567542075,-3,-1,3,1,3,0,0,-3
1558433567555190,3,5,6,5,9,3,5,3
1558433567555190,-3,-4,-16,-9,-13,-7,-5,-5
1558433567564055,-4,-3,0,-1,-5,1,-3,-3
1558433567564055,-2,-5,-12,-15,-12,-13,-7,-1
1558433567579092,-2,1,4,2,1,2,3,1
1558433567579092,2,5,9,4,5,8,4,1
1558433567580974,-2,-1,-1,2,-4,-13,-5,-5
1558433567580974,-1,-3,0,7,-6,0,0,-3
1558433567593168,1,2,-1,0,13,3,1,0
1558433567593168,-2,-3,-8,-13,-16,-15,-5,-2
1558433567601929,-1,-1,-1,2,9,4,-3,-3
1558433567601929,-1,-1,0,-1,0,-1,-1,-1
1558433567614917,-2,-4,-6,-8,-10,2,-1,-1
1558433567614917,0,1,2,2,-5,-12,-3,1
1558433567623862,0,4,3,3,8,13,8,2
1558433567623862,0,3,2,-1,-4,-5,0,0
1558433567638823,1,1,4,12,11,3,3,2
1558433567638823,-2,-1,2,-5,-9,-4,-7,-2
1558433567640813,-3,-7,-20,-17,-5,5,3,-2
1558433567640813,2,0,3,3,2,0,2,0
1558433567652786,-2,-3,-4,-4,-4,-2,-1,-1
1558433567652786,-1,-2,1,0,-5,-6,-4,-4
1558433567661755,-1,1,5,3,2,-3,-1,0
1558433567661755,1,1,0,3,6,2,2,3
1558433567675718,-1,-1,-5,1,3,-2,-2,-2
1558433567675718,-1,-2,3,1,-2,0,-3,1
1558433567684698,2,0,6,8,2,-1,3,-1
1558433567684698,-1,-4,-16,-16,-1,1,0,-1
1558433567699868,-1,-2,3,0,2,1,0,0
1558433567699868,-3,-3,-3,1,-4,-1,-2,-2
1558433567700652,-1,-3,1,-7,-7,-5,-8,-1
1558433567700652,0,3,5,10,7,1,9,5
1558433567712650,1,-2,-6,-2,-4,-4,-4,0
1558433567712650,-1,0,0,-5,-5,-1,0,-2
1558433567721751,-2,-2,-1,4,0,-3,-3,-3
1558433567721751,0,-1,3,1,-5,-4,-7,-4
1558433567735592,-4,-4,-7,-8,2,4,-1,-4
1558433567735592,2,3,9,12,0,2,6,4
1558433567744535,0,1,4,-2,-5,-4,-4,-2
1558433567744535,0,1,0,0,5,-5,-4,-1
1558433567759522,-5,-7,-16,-13,-7,-3,-3,-3
1558433567759522,-4,-2,-2,-2,4,7,-1,-5
1558433567760538,0,-2,-4,0,-5,-7,0,0
1558433567760538,-1,0,6,3,-2,1,2,-2
1558433567772759,-1,-1,4,0,-6,-4,-9,-2
1558433567772759,0,0,-4,1,4,4,5,0
1558433567781434,2,1,0,-2,2,1,6,2
1558433567781434,-4,-2,-1,1,0,1,-3,-2
1558433567795673,-2,0,0,-2,-8,-5,0,-3
1558433567795673,-2,-2,-3,-5,-3,-7,-5,0
1558433567804377,-1,-1,1,-2,-4,-4,0,0
1558433567804377,-2,-3,-5,-3,-4,3,-3,-2
1558433567819544,-1,-2,-1,1,0,3,1,-3
1558433567819544,2,1,2,3,6,5,3,0
1558433567820341,0,0,-4,-6,2,4,-1,1
1558433567820341,-3,-3,-2,-2,-3,-6,-4,-1
1558433567833302,-2,-1,1,-5,6,0,3,2
1558433567833302,0,-1,1,-4,-9,-7,-4,0
1558433567841282,-2,-3,-8,-3,-3,-2,-1,-2
1558433567841282,-2,-3,-1,0,3,8,0,-1
1558433567855534,1,4,7,7,5,0,4,3
1558433567855534,-2,-3,-5,-1,4,-5,-4,-2
1558433567864219,-4,-2,2,1,-5,2,-1,-2
1558433567864219,0,0,0,0,-3,-5,-2,0
1558433567879176,-2,-1,0,4,7,3,1,-1
1558433567879176,-1,-1,-1,-2,-5,-7,-6,-2
1558433567880173,-3,-2,-2,-5,-3,2,2,-2
1558433567880173,-2,-1,-5,-3,-9,-14,-5,-1
1558433567893140,1,1,7,5,5,11,1,2
1558433567893140,-1,-3,-7,-6,2,3,7,1
1558433567902117,0,-1,2,6,9,4,1,1
1558433567902117,0,0,7,3,-5,-2,-2,0
1558433567915080,-3,-2,-3,-7,-6,-7,-7,-4
1558433567915080,-3,-4,-6,-3,-6,-2,-4,-3
1558433567924054,1,-1,-4,1,0,0,1,1
1558433567924054,2,1,0,-1,5,0,6,3
1558433567939352,-1,-2,2,0,-3,-7,-3,-1
1558433567939352,1,-1,0,-2,-1,3,-4,-2
1558433567946032,0,-1,-2,-2,-2,5,0,0
1558433567946032,-1,1,-1,-4,0,4,-2,2
1558433567953322,0,-1,0,0,-6,-10,-3,-5
1558433567953322,2,2,1,1,9,5,1,2
1558433567961953,0,-2,-1,-2,-7,-8,-5,-2
1558433567961953,-2,-3,-3,2,-7,-1,-2,-2
1558433567975966,0,0,-4,-2,-8,-4,-3,3
1558433567975966,0,-1,3,-3,3,4,2,0
1558433567984625,-2,2,1,9,6,2,-1,-1
1558433567984625,-1,-1,-3,-4,1,0,2,1
1558433567998796,-2,-4,-9,-7,-5,3,0,-3
1558433567998796,-2,-4,-7,-3,-10,-6,-3,-2
1558433568005805,-1,-2,-1,-3,-4,-9,-6,-2
1558433568005805,-1,1,2,4,3,6,3,-1
1558433568012769,0,0,4,4,9,4,3,2
1558433568012769,0,2,11,5,3,3,6,2
1558433568021746,-4,-5,-14,-5,-6,-1,-4,-3
1558433568021746,0,-1,-1,-2,-4,-6,-10,-4
1558433568035707,2,1,3,1,1,2,5,1
1558433568035707,-2,-4,-4,-5,3,8,5,-2
1558433568044469,0,1,2,-5,-5,-6,-4,0
1558433568044469,-2,-3,-5,-1,-6,-17,-9,-5
1558433568058433,-1,-1,-1,-1,3,6,1,-1
1558433568058433,0,1,0,0,-3,-6,-4,0
1558433568065414,0,-1,-2,1,1,0,-1,-2
1558433568065414,0,-1,-1,7,5,6,4,0
1558433568073391,-3,-2,-1,-14,-2,-6,-4,-4
1558433568073391,-2,-3,-8,-3,-5,-3,-5,-1
1558433568081365,-2,-6,-3,-6,-1,-1,-1,-3
1558433568081365,-2,-3,-7,-2,-2,0,-1,-1
1558433568095337,0,1,5,4,-10,-10,0,0
1558433568095337,-1,1,-5,0,4,-2,-1,-1
1558433568104308,1,2,2,4,14,12,6,2
1558433568104308,1,1,1,2,3,4,0,0
1558433568118266,-2,-3,0,3,-3,1,-1,-5
1558433568118266,-2,-4,-7,-22,-15,-12,-8,-4
1558433568125248,0,0,3,3,-5,-7,4,1
1558433568125248,1,-1,-1,-10,7,7,5,1
1558433568141206,-2,-5,-6,2,-2,-6,-5,1
1558433568141206,-1,0,8,7,3,6,2,0
1558433568143202,-3,-1,-5,-2,-3,1,-6,-3
1558433568143202,0,2,1,-3,-11,-7,-3,-1
1558433568155533,-1,0,-2,-2,-3,-8,-1,1
1558433568155533,-1,-2,2,6,0,-1,1,0
1558433568164146,-2,0,0,-4,-2,0,-3,0
1558433568164146,-3,-2,-2,6,0,3,0,-2
1558433568179349,0,-1,-3,-2,-1,-9,-3,1
1558433568179349,0,0,4,3,5,3,0,0
1558433568186152,0,0,-2,-4,-1,0,2,-1
1558433568186152,-2,-3,-4,-5,-4,-3,-7,-6
1558433568202042,0,-1,0,-1,1,1,0,0
1558433568202042,0,4,9,10,13,14,13,4
1558433568203040,-1,-1,-1,-3,-5,-3,1,1
1558433568203040,-3,-4,-8,-5,-1,0,-3,-1
1558433568215036,-1,-2,-6,-8,-10,-2,-8,-5
1558433568215036,0,-2,2,0,-2,-8,-6,-1
1558433568223986,2,2,3,4,-1,0,3,0
1558433568223986,-1,-1,-1,-4,1,4,5,-1
1558433568239941,0,-1,-1,2,-1,-3,-1,1
1558433568239941,-1,-1,-4,0,-3,-2,-5,-2
1558433568246318,-1,-3,-4,-7,-2,2,0,0
1558433568246318,1,-1,1,0,-2,-6,-2,0
1558433568262372,-1,1,-3,-1,1,3,4,2
1558433568262372,-2,-1,0,1,2,0,-1,-1
1558433568262880,-3,-4,1,-2,-7,-6,-4,-3
1558433568262880,0,1,6,1,0,-2,-2,-2
1558433568276133,2,1,6,10,7,12,2,2
1558433568276133,1,-2,-16,-11,-10,-9,1,2
1558433568283823,-6,-8,-16,-10,-3,-2,-4,-2
1558433568283823,-2,1,3,-1,0,-5,1,-1
1558433568299118,-1,0,2,1,2,4,1,-1
1558433568299118,-3,1,7,7,1,2,-6,-4
1558433568306099,-1,0,1,-1,-3,-6,-2,0
1558433568306099,1,0,-1,3,5,-1,-3,1
1558433568321724,-3,0,3,1,-1,3,2,-1
1558433568321724,-1,-1,-6,-2,2,-1,3,2
1558433568322756,-2,-1,-1,1,-2,1,0,-2
1558433568322756,0,0,1,2,0,4,2,3
1558433568336170,0,0,-4,-5,1,-2,1,-1
1558433568336170,-2,-1,-5,-7,-10,-6,-6,-3
1558433568344662,-1,0,4,6,-3,0,-1,-1
1558433568344662,2,4,4,1,4,0,4,1
1558433568358641,-3,-5,-10,-4,-1,-4,-2,-1
1558433568358641,0,0,-2,-13,3,4,-3,2
1558433568366116,-2,-3,3,4,2,6,4,-1
1558433568366116,-2,0,1,-1,-9,-2,-6,-3
1558433568381911,-3,-7,-14,-7,-11,-17,-3,-1
1558433568381911,-1,0,4,5,-2,-4,-3,-3
1558433568383559,2,2,0,2,10,4,3,2
1558433568383559,-2,-2,1,-5,-7,-1,-2,-4
1558433568395886,-2,-5,-11,-7,-7,3,-2,-4
1558433568395886,-3,-3,1,4,0,-3,-1,-1
1558433568404503,1,3,-4,-7,4,-7,-1,1
1558433568404503,-2,-3,2,3,-3,4,4,-1
1558433568418797,-1,0,0,-6,-2,-6,-3,-2
1558433568418797,-3,-2,-3,-3,-9,-6,-2,-3
1558433568425720,0,-1,3,5,1,1,-2,-1
1558433568425720,0,1,-1,5,12,5,3,4
1558433568442434,-1,1,5,1,2,6,-3,-2
1558433568442434,-1,-4,-2,-1,-6,-2,-1,-2
1558433568443399,-4,-6,-5,-5,-7,-7,-5,-4
1558433568443399,-1,-2,-3,-5,-6,-1,-1,-2
1558433568455618,-1,-1,1,4,15,10,4,0
1558433568455618,2,1,-2,2,3,-1,2,4
1558433568464340,0,-2,0,2,7,1,-3,-5
1558433568464340,-3,-3,-5,-4,-8,-4,-6,-5
1558433568478549,0,-1,0,1,-4,-3,-1,-2
1558433568478549,0,-1,-1,-1,12,5,1,0
1558433568485546,-1,2,1,-4,-8,1,2,2
1558433568485546,-1,-4,-13,-5,0,-7,-1,-1
1558433568501501,0,3,6,2,-8,-9,-4,0
1558433568501501,-4,-2,-2,0,-2,-3,-2,-6
1558433568503238,0,0,1,1,4,5,4,1
1558433568503238,1,1,2,8,1,-5,0,-1
1558433568515467,-2,-1,-5,-13,-6,4,-2,0
1558433568515467,0,1,2,2,-2,-2,-1,-1
1558433568524182,0,1,2,0,-8,-12,-7,-2
1558433568524182,2,3,3,0,15,8,7,3
1558433568539271,-3,-7,-13,-6,-4,-1,-1,-3
1558433568539271,-1,-2,2,-4,-5,-1,-5,-2
1558433568546264,1,0,0,1,-2,1,2,3
1558433568546264,-1,-4,-5,-3,-9,-7,-5,-1
1558433568562519,1,2,7,5,4,1,6,2
1558433568562519,-4,-3,-6,-5,-4,-2,-1,-2
1558433568563080,-1,0,2,1,1,-2,-3,-1
1558433568563080,1,-1,-1,2,3,-2,1,0
1558433568575058,0,-1,-7,-4,4,2,1,0
1558433568575058,-1,0,-2,2,-7,-4,-4,-1
1558433568584022,-2,-1,2,3,-4,-8,-2,-2
1558433568584022,-3,-2,-6,-11,-6,3,0,1
1558433568597985,-1,-3,4,3,-5,1,-3,-2
1558433568597985,0,0,1,6,11,3,6,2
1558433568606230,-1,-1,-3,-2,3,7,2,-1
1558433568606230,-1,-2,-2,2,2,2,1,-1
1558433568622296,-1,2,2,-2,-8,-4,-6,-3
1558433568622296,-1,-1,1,-2,-13,-13,-8,0
1558433568622918,3,2,0,-5,10,6,6,5
1558433568622918,-5,-3,1,1,-3,-4,-5,-5
1558433568636117,-1,1,-2,-15,0,-2,3,2
1558433568636117,-2,-1,0,4,-3,-2,-3,-3
1558433568644166,-3,-6,-7,-5,-2,2,-1,-6
1558433568644166,1,-1,-2,-4,-1,-6,-3,2
1558433568659070,0,0,3,8,-3,-4,-2,-2
1558433568659070,0,-2,0,-2,-1,-3,-3,-3
1558433568666053,-2,-1,1,2,2,7,1,-1
1558433568666053,0,-1,4,6,3,5,0,2
1558433568681961,-1,-1,-1,11,5,-1,-1,0
1558433568681961,-1,-2,-8,-14,-9,-3,4,0
1558433568682760,-6,-5,-7,-1,-4,-6,-6,-3
1558433568682760,-1,-3,-1,-7,-8,0,-3,-4
1558433568695952,1,-2,-1,-1,2,6,4,0
1558433568695952,1,2,-1,2,8,1,-2,1
1558433568704702,1,-1,1,-2,-13,-15,-3,-2
1558433568704702,-2,0,-2,4,-1,-2,4,0
1558433568718662,-3,-1,5,2,4,9,-6,-4
1558433568718662,0,0,0,-2,-3,-5,0,-1
1558433568725642,-3,-4,-12,-2,-6,-6,0,1
1558433568725642,-1,-3,-2,-1,-1,2,-3,-3
1558433568741627,1,0,-4,3,-1,-7,-5,-4
1558433568741627,1,0,3,3,4,9,8,2
1558433568742597,0,2,2,-4,-5,-5,-6,-3
1558433568742597,-1,-1,0,-1,0,1,0,-3
1558433568755916,-2,0,0,-1,-1,-7,-10,0
1558433568755916,0,0,0,4,2,-1,3,1
1558433568764539,1,0,1,-2,-6,0,-1,-3
1558433568764539,-2,-2,-4,-6,-2,-5,-6,-4
1558433568778504,1,1,2,4,-5,-5,4,-1
1558433568778504,-1,-1,-1,-1,-3,-1,-3,-2
1558433568785820,-4,-4,-4,-9,3,4,0,-2
1558433568785820,0,0,2,-2,1,-6,-4,-1
1558433568801763,0,0,-2,-4,0,2,5,2
1558433568801763,0,-1,3,2,1,5,-4,-1
1558433568803766,0,0,1,5,-2,-5,1,2
1558433568803766,-1,0,-3,-12,-2,1,-1,-4
1558433568815738,-2,-3,0,-1,1,-3,-2,-1
1558433568815738,-2,-1,-3,-1,-2,4,3,-4
1558433568824378,-1,1,6,12,13,17,4,1
1558433568824378,-1,2,4,5,0,1,-1,2
1558433568838642,-2,-3,-3,-5,-7,-4,-3,-2
1558433568838642,-3,-5,-12,-11,-5,-10,-4,-4
1558433568845620,-1,-2,1,-1,-2,-5,-5,-2
1558433568845620,2,1,1,6,6,4,7,4
1558433568861589,-2,-1,-2,-5,-5,-3,-3,0
1558433568861589,-2,-3,0,-1,-5,0,-3,-3
1558433568868557,-1,0,0,2,-3,-2,-1,0
1558433568868557,0,-2,-3,0,1,-3,2,2
1558433568875531,-2,0,1,1,-2,-3,-7,-3
1558433568875531,-1,0,-3,-15,2,10,4,0
1558433568884221,0,1,2,5,8,-2,1,2
1558433568884221,-3,-1,-6,-3,-9,-4,-6,-3
1558433568899267,0,-3,-7,-7,-7,-2,3,-2
1558433568899267,-4,-4,-1,1,2,2,0,-3
1558433568905455,-3,-3,-6,-4,-2,-3,0,-1
1558433568905455,1,1,3,3,4,0,4,1
1558433568921428,-2,-2,1,-2,-5,-1,-3,-3
1558433568921428,-1,0,0,6,5,0,-3,0
1558433568928101,3,-2,0,0,5,6,2,2
1558433568928101,-3,-3,-1,-1,-9,-9,-3,-4
1558433568935115,0,0,1,-1,-3,4,2,0
1558433568935115,-1,-2,-5,-3,7,4,0,-1
1558433568944381,0,0,0,-1,-9,-10,-6,-2
1558433568944381,0,-1,0,4,4,3,2,3
1558433568959347,-3,-4,-5,2,4,3,-2,-5
1558433568959347,-2,-2,-8,-8,-13,-9,-5,-1
1558433568966109,-1,1,1,-3,4,-3,4,2
1558433568966109,-2,0,1,-1,2,4,2,1
1558433568981307,-1,0,2,-1,-5,-6,-1,-1
1558433568981307,1,3,4,2,-2,-9,-5,-1
1558433568997227,-1,-3,-2,-4,-1,4,1,-1
1558433568997227,0,-1,-2,0,2,-1,0,-1
1558433568997914,0,1,4,8,6,0,0,4
1558433568997914,-1,-1,-5,-11,1,7,2,-1
1558433569004123,-3,-1,0,-1,-11,-7,-6,-5
1558433569004123,-1,-1,2,2,-3,-1,1,1
1558433569019179,-3,-3,-11,-16,0,0,-4,-3
1558433569019179,-2,-1,-1,3,-6,-2,-1,1
1558433569024843,-2,-1,-2,1,6,3,-1,-4
1558433569024843,-4,-3,-3,-5,-7,-4,-3,-4
1558433569040798,0,-1,0,3,0,0,1,0
1558433569040798,-2,-5,-2,0,-1,-2,0,-1
1558433569048031,0,2,1,1,5,5,0,0
1558433569048031,0,3,3,5,3,1,-2,1
1558433569064991,-2,-3,-5,0,-3,-4,-1,-3
1558433569064991,-1,-3,-7,-11,-3,-8,-4,-3
1558433569065734,-2,-2,-3,-5,-8,-1,0,0
1558433569065734,-1,-1,-6,-6,0,-1,-9,-4
1558433569078701,0,1,6,12,1,1,3,2
1558433569078701,-1,0,3,6,5,2,4,2
1558433569085958,-1,-1,1,0,-4,-6,-5,-4
1558433569085958,0,0,-3,-5,-4,1,1,-1
1558433569101702,-1,-2,-1,4,5,-3,-3,-1
1558433569101702,0,1,4,2,-6,-6,-5,-3
1558433569107621,0,1,-3,-3,1,-6,0,4
1558433569107621,-4,-3,2,1,0,5,-6,-6
1558433569124576,-1,1,-4,-6,-4,0,12,2
1558433569124576,-2,0,3,10,3,-5,-1,1
1558433569125574,-2,-4,-4,-5,-3,0,-3,-3
1558433569125574,2,1,-2,0,3,0,3,3
1558433569138541,-1,2,6,8,5,7,1,0
1558433569138541,-1,-1,0,-3,-7,-2,-2,-3
1558433569145820,1,-2,-2,-3,-2,0,-1,-1
1558433569145820,-4,-4,-2,-2,-7,-10,-5,-3
1558433569161767,2,0,7,6,8,1,0,3
1558433569161767,1,2,1,8,5,5,6,1
1558433569168613,-4,-4,-9,-12,-5,-2,-6,-4
1558433569168613,-2,-3,-6,-10,-13,-9,-2,-3
1558433569192438,2,0,0,-4,-5,-1,-2,-1
1558433569192438,0,-3,-3,2,0,-1,-5,2
1558433569193422,1,0,5,6,2,-1,5,-1
1558433569193422,-2,-3,-5,-6,-1,3,-1,-3
1558433569198675,-2,0,0,-6,-4,-4,-3,-2
1558433569198675,-1,1,2,-1,-5,3,-1,-2
1558433569205671,-1,0,0,2,5,4,0,-1
1558433569205671,-1,-1,3,9,0,4,1,-3
1558433569221638,-4,-6,-15,-32,-6,-5,-3,-1
1558433569221638,2,-2,1,1,-1,-2,-2,1
1558433569228406,-1,-1,0,1,4,3,4,0
1558433569228406,0,-2,2,5,-3,-7,-5,-1
1558433569244546,0,-2,-2,0,-5,-11,-6,-1
1558433569244546,2,1,5,-2,3,4,2,1
1558433569245254,0,-1,-7,-2,3,1,1,2
1558433569245254,-1,-2,-2,-6,-7,-6,-3,-1
1558433569258253,0,-1,3,5,2,5,-5,-3
1558433569258253,-2,-1,5,6,-4,-4,8,1
1558433569265257,2,1,-4,-7,2,1,2,2
1558433569265257,-3,-2,-1,-6,0,2,-1,-2
1558433569281155,-1,-1,-4,1,-4,2,-1,0
1558433569281155,-2,0,3,4,3,-1,-4,-4
1558433569288139,-2,-1,5,7,-3,0,0,-1
1558433569288139,0,-1,-6,-2,0,-4,0,1
1558433569304558,-1,-2,4,1,0,3,-1,-3
1558433569304558,-2,-1,-2,-2,-3,-4,-5,-2
1558433569305092,1,0,0,1,2,0,1,2
1558433569305092,-2,-3,-6,-6,-7,-8,-3,-2
1558433569318504,0,1,0,4,5,-1,1,0
1558433569318504,0,-1,-5,-4,1,-1,-4,0
1558433569327034,-1,-3,0,0,-8,-5,-6,-3
1558433569327034,2,2,2,-2,11,8,4,2
1558433569340996,-1,-3,-4,1,-7,-3,-1,-3
1558433569340996,-2,0,-4,-6,-1,-1,-1,1
1558433569348035,-1,0,0,-6,-8,-1,-10,-4
1558433569348035,0,-3,-1,6,2,5,5,2
1558433569363968,-2,-1,0,0,2,2,3,-1
1558433569363968,-1,0,1,0,11,12,2,-1
1558433569365929,-3,-2,-5,4,-9,-14,-5,-2
1558433569365929,-3,-2,-2,-7,-8,-5,-6,-5
1558433569379309,-2,0,-3,-1,0,2,-1,0
1558433569379309,4,3,4,11,10,-2,2,3
1558433569386115,-2,-2,-1,-5,0,3,1,-3
1558433569386115,-2,-4,-6,-3,3,2,-2,-3
1558433569401281,1,0,4,6,1,-9,-1,1
1558433569401281,-4,-2,-7,-6,-12,-4,-6,-6
1558433569407817,0,0,2,-1,1,1,3,2
1558433569407817,2,2,1,-1,-2,1,1,2
1558433569423776,-2,-2,1,-3,-7,-3,-1,-3
1558433569423776,-1,-3,-4,3,6,4,-2,0
1558433569425771,1,4,0,1,10,9,10,3
1558433569425771,0,-1,3,6,1,1,-2,0
1558433569438198,-1,0,-10,-14,-8,-1,-1,-2
1558433569438198,-2,-2,4,0,-7,-6,-2,-2
1558433569446715,-3,-3,-8,-1,2,7,1,-3
1558433569446715,-3,0,0,-3,0,-2,-4,-3
1558433569461795,2,1,4,5,4,3,2,1
1558433569461795,-5,-3,-6,-9,-9,-5,-5,-7
1558433569468024,1,-1,2,1,1,1,1,1
1558433569468024,-3,0,5,8,1,-6,-4,1
1558433569484812,0,-2,-5,-4,6,9,3,-1
1558433569484812,0,-1,0,-5,-6,-6,-1,-1
1558433569485728,-1,-4,-3,2,-7,-9,-4,-4
1558433569485728,-3,-3,-8,-19,-3,2,-4,-6
1558433569497922,3,4,2,7,10,-2,1,3
1558433569497922,-1,-1,0,1,3,9,6,1
1558433569506671,-4,-2,2,1,-5,-6,-3,-2
1558433569506671,0,-1,-2,0,-3,-5,1,0
1558433569521728,-4,-2,0,0,4,3,1,1
1558433569521728,0,2,2,1,-4,-8,-1,1
1558433569527615,-2,-1,-1,-3,-5,-2,-6,-3
1558433569527615,-1,-3,0,0,-3,-1,1,1
1558433569544566,-2,-1,2,-9,-4,-1,-5,-2
1558433569544566,0,-5,-18,-5,3,6,5,0
1558433569545564,-1,0,2,0,0,-6,-5,1
1558433569545564,1,1,4,1,-2,-2,1,1
1558433569557533,-1,-1,5,7,-2,-2,-3,-3
1558433569557533,-2,-3,-1,-2,-5,-4,-8,-4
1558433569566957,0,1,-1,-2,-3,-4,-1,-4
1558433569566957,0,2,0,7,13,13,5,2
1558433569580472,-3,-3,-4,-3,-6,-4,-6,-3
1558433569580472,-2,-1,-3,-6,-6,-1,-4,-2
1558433569588668,-1,0,3,5,-5,-4,0,-2
1558433569588668,1,-1,-1,-1,-1,-2,-1,-2
1558433569604913,-1,-1,-2,-4,-3,-6,1,0
1558433569604913,0,0,-2,-2,-4,-4,1,1
1558433569606551,1,-1,0,0,4,2,-3,0
1558433569606551,-3,-1,-1,-1,-2,3,0,-3
1558433569618640,-1,-1,-2,1,4,11,4,2
1558433569618640,0,-1,2,3,-1,-16,-3,1
1558433569626839,-2,-1,1,2,1,1,-2,-2
1558433569626839,1,-1,-2,-8,-2,-2,-1,-1
1558433569641309,-1,0,1,0,-4,2,1,-3
1558433569641309,-3,-3,1,0,1,3,-3,-4
1558433569648589,-2,-4,-9,-3,3,8,-2,-3
1558433569648589,0,-1,-4,-2,-4,-9,-5,-2
1558433569664490,-2,-1,3,1,-2,-9,-2,-1
1558433569664490,-3,-2,4,-1,0,4,1,-4
1558433569665428,0,1,-1,-2,-5,-9,-2,2
1558433569665428,0,-1,1,6,3,9,8,0
1558433569678422,-1,-2,-2,3,4,-2,-3,-2
1558433569678422,-1,0,-1,2,1,5,2,2
1558433569693406,-3,-1,-2,-4,-6,-5,-2,-2
1558433569693406,-2,-2,-2,-3,-9,-5,-5,-3
1558433569701383,1,-1,-5,-5,-5,-7,0,0
1558433569701383,0,-2,-1,2,6,6,-1,-1
1558433569708133,1,-3,-5,-3,-1,4,-1,1
1558433569708133,-2,0,1,-4,-3,-11,-2,-3
1558433569724091,-2,-1,-2,3,5,10,4,-1
1558433569724091,1,1,1,1,1,3,2,0
1558433569726085,0,-2,0,-2,1,1,-2,0
1558433569726085,-2,-3,-5,-6,-9,-3,-5,-3
1558433569738053,-3,-2,4,4,3,3,-1,-2
1558433569738053,0,1,3,1,0,3,5,1
1558433569747028,-5,-6,-10,-6,-7,-6,-8,-5
1558433569747028,-2,-3,-4,-9,-9,-8,1,-2
1558433569761299,2,-1,1,1,7,-1,2,1
1558433569761299,0,1,2,1,3,-4,-2,-2
1558433569767996,-3,-2,3,5,-2,-1,-2,-3
1558433569767996,-1,0,-6,3,0,1,0,1
1558433569784931,-1,-3,-1,-5,-6,-5,-4,-2
1558433569784931,-1,-1,-1,0,5,5,1,1
1558433569786247,-1,-1,0,-6,-9,-7,-3,-1
1558433569786247,1,1,1,4,5,-4,1,4
1558433569798251,-1,1,-4,-8,-9,-5,-5,-4
1558433569798251,-1,-2,-3,3,-2,-4,-2,-3
1558433569806869,1,2,-3,-9,5,3,2,2
1558433569806869,-1,-2,5,8,2,3,-2,-2
1558433569821176,0,1,-1,0,0,1,1,3
1558433569821176,-2,-3,-5,-2,-4,-6,-2,-8
1558433569828155,-1,1,0,0,-6,-5,-7,-4
1558433569828155,0,-1,0,0,1,3,5,2
1558433569843767,3,0,4,7,8,1,5,5
1558433569843767,1,2,6,-3,-2,1,2,3
1558433569851092,-2,-4,-12,-5,-4,-6,-1,-1
1558433569851092,-1,-1,-6,-4,1,3,-6,-3
1558433569857729,-3,-3,-5,-4,-11,-1,-6,-5
1558433569857729,-1,-1,1,-3,-1,-3,-5,-1
1558433569866830,4,4,6,7,9,3,13,5
1558433569866830,-2,2,4,3,2,-2,0,0
1558433569880762,-3,-3,-4,-5,-3,2,-1,-2
1558433569880762,-1,-2,3,1,-4,-1,-5,-2
1558433569887975,-2,-2,-6,0,-3,-6,-1,-2
1558433569887975,0,-1,1,0,1,-2,-3,0
1558433569903608,-1,1,-1,-10,2,1,2,0
1558433569903608,-2,-3,-2,-3,-5,-3,-1,-2
1558433569910877,-2,-1,-2,-1,-1,6,1,-1
1558433569910877,-1,-2,3,2,-8,-7,1,-1
1558433569926845,-4,-4,-8,-2,0,2,-1,-3
1558433569926845,0,2,-2,-1,0,-3,-5,-1
1558433569928540,0,0,4,0,-1,3,2,-2
1558433569928540,-2,-1,-1,0,2,1,-1,-2
1558433569940508,-2,1,6,1,-11,-9,-8,-5
1558433569940508,-4,-6,-15,-9,-2,-4,-1,-1
1558433569948581,0,-1,4,3,0,2,0,-2
1558433569948581,0,-1,-1,-5,-5,-6,-2,1
1558433569963728,-2,-4,1,7,0,2,-3,-8
1558433569963728,-1,0,1,-7,1,-3,0,0
1558433569970731,-1,0,-6,-4,3,-5,1,1
1558433569970731,-2,-2,-1,-7,-2,5,-3,-2
1558433569986691,0,-1,1,3,6,-1,0,2
1558433569986691,-3,-3,-1,3,-7,-7,-6,-2
1558433569988381,1,2,6,4,5,5,4,2
1558433569988381,0,-1,-3,-2,0,-3,-2,-1
1558433570001622,-1,-2,-5,-4,-6,-7,-2,-1
1558433570001622,-2,0,0,3,6,3,2,2
1558433570007331,-1,-4,-5,-4,-3,-4,-7,-3
1558433570007331,-2,-2,-3,-4,-3,5,1,-3
1558433570023318,1,0,0,1,-1,-4,-2,-2
1558433570023318,0,-1,-3,-4,-3,0,-1,0
1558433570030270,0,-1,2,-3,-3,-1,0,-1
1558433570030270,3,3,2,10,11,0,5,2
1558433570047293,-3,-3,-2,-2,-4,-5,-5,-1
1558433570047293,-3,-4,-8,-1,-8,-6,-6,-6
1558433570048222,0,1,6,7,8,13,6,1
1558433570048222,0,-3,-5,-6,-5,2,-7,-2
1558433570061490,-1,-3,-4,-1,-6,-12,-1,0
1558433570061490,0,3,5,6,3,2,2,1
1558433570068475,-2,-2,-4,-14,4,2,7,-3
1558433570068475,-1,0,0,2,3,0,2,2
1558433570084124,1,1,-5,-2,-3,-4,-2,-1
1558433570084124,-2,-1,-4,0,-2,3,2,-2
1558433570090108,-1,-1,1,4,1,5,-1,-1
1558433570090108,-1,-1,-1,-6,-4,-2,-2,-2
1558433570106297,0,2,-1,-2,6,-9,-1,1
1558433570106297,-1,-3,0,-5,-1,1,-1,-3
1558433570108063,0,-1,-2,0,-4,-3,-5,-2
1558433570108063,-1,-1,2,3,-2,-6,0,-1
1558433570121294,-2,-2,0,-2,-3,6,-4,-2
1558433570121294,0,-1,3,-1,-3,-8,0,0
1558433570128301,-3,-2,-8,5,-1,-5,-3,-1
1558433570128301,-1,2,-1,-13,-1,2,2,-1
1558433570144050,0,-1,-2,-4,-3,4,2,-1
1558433570144050,0,-1,1,2,7,5,-1,0
1558433570157926,0,-2,-1,-5,-8,-6,-6,-3
1558433570157926,0,-1,2,4,-1,1,6,1
1558433570166936,-2,-2,0,3,0,-9,3,2
1558433570166936,1,3,5,1,2,4,0,0
1558433570167900,-1,-3,-10,-12,-5,-6,-4,-1
1558433570167900,-2,-6,-3,3,-4,-1,-3,-4
1558433570181175,-1,0,-2,-18,-3,5,2,-2
1558433570181175,-1,0,-1,5,1,3,3,1
1558433570188172,-1,-1,5,7,-3,-6,-4,-1
1558433570188172,-3,-1,-1,-1,2,3,-3,-3
1558433570204122,-3,-2,-2,1,-2,-8,-1,-1
1558433570204122,0,-2,-7,-3,2,-3,0,4
1558433570211063,-3,0,2,-3,-7,-2,-2,-6
1558433570211063,0,2,1,8,9,7,2,0
1558433570227057,0,0,4,2,0,1,-2,-4
1558433570227057,-2,-2,-7,-12,-9,-5,-1,-1
1558433570227739,-1,-1,1,0,0,2,3,3
1558433570227739,0,-1,1,-1,-8,-7,-9,-2
1558433570240708,5,6,8,12,11,10,9,8
1558433570240708,-1,-4,-7,-9,-8,-12,-3,-1
1558433570247978,-1,-2,-2,2,6,9,7,0
1558433570247978,-4,-4,-4,-5,-12,-13,-8,-6
1558433570263671,-3,-2,1,1,-2,3,-4,-2
1558433570263671,2,2,3,2,4,5,4,4
1558433570270644,1,0,1,4,11,7,4,2
1558433570270644,1,1,6,5,7,3,-3,-1
1558433570286972,-2,-4,-4,-6,-6,0,-1,-1
1558433570286972,-3,-6,-9,-9,-14,-15,-8,-6
1558433570288886,0,-1,3,2,4,1,-4,-1
1558433570288886,1,1,0,1,8,3,3,2
1558433570300545,0,-1,-4,0,-3,-2,-2,-2
1558433570300545,-1,1,5,2,3,2,-4,-2
1558433570307528,-3,-2,-1,-8,-14,-11,-9,-5
1558433570307528,1,1,0,2,7,1,4,2
1558433570323484,-2,-3,-10,-2,3,4,-3,-2
1558433570323484,0,0,-2,-2,-2,-1,-1,-1
1558433570330464,0,1,-1,1,-6,-13,-2,-1
1558433570330464,-2,-1,1,1,-2,7,2,-3
1558433570347544,-6,-4,-6,-14,-6,-5,-7,-6
1558433570347544,3,3,0,11,12,9,6,3
1558433570348938,-3,-4,1,-3,-3,6,-4,-2
1558433570348938,-4,-4,-8,-4,-7,-4,-5,-2
1558433570361382,2,1,5,7,1,-10,0,1
1558433570361382,-1,1,8,0,-4,-7,-4,-4
1558433570368660,-2,-3,-10,-1,1,1,0,-1
1558433570368660,-3,-2,-2,-6,0,6,-1,-3
1558433570383689,-1,-1,-1,-3,-7,0,-2,-2
1558433570383689,-3,-1,1,2,1,1,2,0
1558433570390304,4,3,7,9,6,-2,4,4
1558433570390304,-1,-4,-6,-2,-3,-5,-6,-4
1558433570406353,-2,-2,-3,-6,-8,4,0,-3
1558433570406353,1,1,5,5,6,-1,4,3
1558433570408292,-4,-4,-11,-5,0,2,-3,0
1558433570408292,-1,-3,-4,-7,-8,-2,0,-1
1558433570421581,3,0,3,6,3,-3,-1,-1
1558433570421581,0,0,3,2,-4,5,2,-1
1558433570428484,-1,0,2,-6,-5,-5,0,-2
1558433570428484,0,1,-2,5,3,-8,1,3
1558433570444200,-2,-1,-3,-8,-7,-1,-2,-1
1558433570444200,0,0,-4,-4,-3,-4,-5,-2
1558433570450506,-1,0,0,0,2,4,1,-1
1558433570450506,-2,-2,-3,-1,-1,4,0,-1
1558433570467344,2,1,3,4,4,-5,1,3
1558433570467344,-5,-6,-11,-8,-6,-4,-6,-7
1558433570468098,0,0,7,2,2,3,-2,0
1558433570468098,-1,-1,-3,-2,-2,-4,-3,0
1558433570480437,-2,-1,-2,2,4,7,2,0
1558433570480437,-1,-4,0,2,-4,0,1,1
1558433570497020,-1,-2,-7,-2,-5,-6,-1,-3
1558433570497020,-1,-2,-3,-2,1,-1,1,-2
1558433570504065,-1,0,0,-11,-2,-6,-4,-1
1558433570504065,-2,-5,-5,-3,-6,0,-3,-1
1558433570509986,-1,0,5,-1,-4,1,2,-3
1558433570509986,-1,-1,0,0,-2,-8,-4,0
1558433570527170,0,-1,3,8,6,4,1,1
1558433570527170,0,-2,-3,-11,-1,-1,-3,-3
1558433570527938,-1,-1,1,-3,-4,1,-5,0
1558433570527938,0,3,8,5,3,-4,0,0
1558433570539910,-3,-4,-16,-14,1,3,1,1
1558433570539910,-1,2,0,-2,-4,-2,0,-2
1558433570549101,-1,-3,-13,-8,-3,-1,-2,-5
1558433570549101,-2,0,2,-2,-4,3,0,-1
1558433570564069,0,0,7,12,7,-1,2,1
1558433570564069,0,1,4,-1,0,1,-1,-1
1558433570569825,-2,-4,-5,1,-8,-8,-2,0
1558433570569825,-1,-4,-6,-8,-1,1,-4,-3
1558433570586780,2,4,5,12,7,2,3,2
1558433570586780,-2,-3,-3,-4,1,-2,-2,-1
1558433570587776,-3,2,4,1,1,0,0,-1
1558433570587776,-3,-2,4,1,-2,3,-1,-2
1558433570601081,-2,-3,-7,-6,-2,-5,0,2
1558433570601081,-1,-3,-2,2,-2,-7,-3,-2
1558433570609125,1,2,-7,-7,-1,0,1,2
1558433570609125,1,-1,2,5,-4,-2,0,0
1558433570623682,-1,-3,-6,1,-1,2,-2,-4
1558433570623682,-1,-1,1,3,2,4,1,-1
1558433570630663,-2,1,3,4,7,3,2,0
1558433570630663,0,1,3,-11,-3,-1,-4,-2
1558433570646829,-3,-5,-12,-1,-5,-4,-5,-5
1558433570646829,-2,-3,-11,-12,-11,-9,-3,-1
1558433570648898,0,1,4,3,5,7,4,1
1558433570648898,-1,1,2,5,9,2,3,3
1558433570660986,-2,0,1,-3,-7,-2,-4,-2
1558433570660986,-2,-1,-2,6,10,4,0,-1
1558433570669172,-2,-1,0,-4,-2,-1,-4,-3
1558433570669172,-3,-4,-3,-5,-16,-14,-3,-3
1558433570684060,0,0,0,0,0,3,1,-1
1558433570684060,1,2,2,1,9,4,4,3
1558433570689769,2,0,9,4,-2,-2,-2,-1
1558433570689769,-2,-4,-18,-7,-5,-2,-4,-3
1558433570706726,-1,0,8,6,2,3,4,4
1558433570706726,-3,-4,-13,-23,-7,-3,-4,-4
1558433570707721,-1,-2,0,-4,-8,-11,-8,-4
1558433570707721,-2,-2,0,5,7,6,1,1
1558433570719945,-1,-1,5,2,-7,-8,-4,-1
1558433570719945,0,2,5,11,8,-2,1,2
1558433570728910,-1,1,-8,0,9,11,6,4
1558433570728910,-2,-1,-4,-9,-7,-8,-3,-1
1558433570743869,-2,-1,-4,-6,-8,-2,-4,-2
1558433570743869,0,0,11,8,5,5,3,0
1558433570750849,-2,-4,-9,5,-5,-4,0,-1
1558433570750849,0,0,-1,-15,-1,-10,-2,0
1558433570765596,-2,0,0,-7,4,7,-3,-5
1558433570765596,-2,-1,-8,1,-5,-5,0,0
1558433570772548,-1,-2,-1,-2,-1,-7,-6,-1
1558433570772548,1,0,0,5,4,9,5,1
1558433570780523,0,0,0,0,-2,-5,-5,-4
1558433570780523,-3,-1,1,-2,-10,0,-4,-3
1558433570789500,0,-1,-2,1,-2,2,-1,-1
1558433570789500,0,1,9,6,5,4,0,0
1558433570803464,-3,-3,-12,-10,-3,-8,-5,-3
1558433570803464,0,1,6,8,8,8,5,2
1558433570810910,-3,-1,1,-2,-6,0,-2,-1
1558433570810910,-2,-4,-9,-20,-8,-6,-4,-5
1558433570825438,0,-1,4,3,-2,2,-3,-3
1558433570825438,2,-2,-6,-9,-2,0,3,3
1558433570833580,-2,-1,4,3,0,-6,-3,1
1558433570833580,-1,1,4,4,-2,1,2,-1
1558433570840367,0,-1,-6,0,2,0,0,2
1558433570840367,-1,-1,0,-2,-9,-8,-4,-2
1558433570849341,-1,-2,0,-1,-5,-7,0,-2
1558433570849341,1,1,-1,4,3,0,2,2
1558433570863304,-2,-1,-3,-2,-2,1,-1,-1
1558433570863304,-1,0,1,8,0,0,-2,-3
1558433570870629,-1,0,-5,-19,-6,-5,-10,-1
1558433570870629,-5,-3,-3,-2,-1,-4,-3,-3
1558433570886610,0,-3,-1,-1,-6,-2,0,-2
1558433570886610,3,1,-1,-2,13,7,5,4
1558433570893538,-1,-3,-3,-5,-5,0,0,-4
1558433570893538,0,-3,0,1,3,6,-1,1
1558433570900513,0,0,6,1,0,-4,-1,0
1558433570900513,-2,1,4,4,0,-1,-3,0
1558433570909206,-1,-3,-10,-6,-4,-5,-1,-1
1558433570909206,0,2,7,2,-1,6,2,4
1558433570923144,-1,2,1,5,-4,-8,-1,-2
1558433570923144,-2,-4,-9,-11,6,2,-3,-3
1558433570930372,-1,0,3,5,6,6,0,0
1558433570930372,-1,-2,-3,-1,-2,-2,1,-1
1558433570946344,-4,-1,-1,-3,0,5,-2,-1
1558433570946344,-3,-3,-2,-3,-15,-9,-5,-6
1558433570953329,-1,0,5,5,5,2,2,-1
1558433570953329,0,-1,0,2,3,-1,-1,-1
1558433570969289,-1,1,-4,-1,1,-2,2,0
1558433570969289,-3,-2,-5,-5,-1,4,4,-1
1558433570970020,-3,-3,2,4,-7,-4,-6,-4
1558433570970020,-1,2,-2,1,-4,4,0,-1
1558433570984192,2,1,7,3,15,5,0,5
1558433570984192,-1,-3,-2,3,-12,-7,-4,-2
1558433570989965,-2,-1,-13,-7,7,7,4,0
1558433570989965,1,2,11,11,7,1,2,0
1558433571005921,-4,-6,-16,-9,-11,-3,-3,-3
1558433571005921,-2,-1,-1,-9,-2,-2,-11,-5
1558433571012902,1,-2,6,2,-2,-3,1,0
1558433571012902,4,5,4,10,9,8,11,7
1558433571028878,-2,0,-3,-12,-4,1,-2,0
1558433571028878,1,1,5,9,2,1,-2,-1
1558433571030909,1,1,3,0,-3,-7,-3,1
1558433571030909,-3,-6,-10,-11,-12,-10,-7,-8
1558433571043819,0,0,7,9,4,-8,1,1
1558433571043819,0,-1,-8,-4,-4,-1,2,0
1558433571049805,-2,-1,0,-5,-6,-4,-6,-3
1558433571049805,-2,-1,1,1,3,2,-2,0
1558433571065762,-1,-1,1,4,2,4,4,-1
1558433571065762,1,-1,-3,-2,2,-3,-2,-1
1558433571072741,-1,-2,2,-2,-3,-2,-2,-1
1558433571072741,-1,-2,-2,6,0,-3,-2,-1
1558433571088698,-2,-6,-16,-23,-11,-3,-4,-3
1558433571088698,-1,0,2,4,1,-1,7,2
1558433571090694,0,-2,-6,-2,-2,0,2,1
1558433571090694,0,-1,0,-2,-4,-7,-4,-2
1558433571103710,-4,-2,4,2,5,4,-1,-1
1558433571103710,-1,-2,-4,2,-2,0,-2,0
1558433571109644,3,3,9,6,7,2,4,3
1558433571109644,-4,-6,-12,-6,-6,-2,-3,-1
1558433571125601,0,2,-2,7,-1,-1,2,-4
1558433571125601,-2,-3,2,-9,-2,-2,2,-1
1558433571132581,-1,-2,-5,1,-2,-7,0,-3
1558433571132581,-2,-2,0,-3,5,7,-1,-2
1558433571148539,1,1,12,10,4,5,0,1
1558433571148539,0,-2,-2,-1,-7,-5,-5,0
1558433571150533,1,1,2,3,10,5,5,2
1558433571150533,0,-1,-1,-3,-4,-6,-5,-4
1558433571163500,-3,-4,-7,-6,-8,-3,-1,0
1558433571163500,-2,1,2,-2,1,0,-4,-3
1558433571170480,-1,0,0,-3,0,-3,-2,0
1558433571170480,-1,-4,-6,-4,-9,-10,-3,-2
1558433571185443,0,-2,4,1,2,-2,1,0
1558433571185443,0,1,1,8,6,7,4,3
1558433571192423,-2,-2,-4,1,-4,-2,-4,1
1558433571192423,-3,-3,0,-9,-10,-4,-8,-5
1558433571209377,0,-2,-7,-1,-6,-7,-1,1
1558433571209377,-1,-2,1,-3,1,6,4,1
1558433571210375,-2,0,1,3,-1,-2,-3,-3
1558433571210375,-1,-1,-8,-3,-2,-5,-3,2
1558433571223340,-3,-3,0,-1,-5,2,1,0
1558433571223340,-1,-3,-6,-5,-5,-5,-4,-3
1558433571230344,-1,0,6,-1,-2,-4,-2,0
1558433571230344,2,3,-1,4,-3,-8,-3,0
1558433571245324,0,-1,-2,-12,6,4,-1,-2
1558433571245324,0,0,3,7,7,8,2,1
1558433571252336,-3,-4,-4,-8,-13,-4,-7,-5
1558433571252336,0,1,3,4,1,5,3,-2
1558433571269218,4,1,2,5,8,2,1,4
1558433571269218,-2,-3,-7,-3,-4,-4,-2,-2
1558433571270218,-1,-2,-1,1,1,2,2,-3
1558433571270218,-1,0,-2,-4,2,2,2,-2
1558433571283179,-1,0,0,2,-1,-2,1,-1
1558433571283179,1,3,13,5,-2,-3,-8,-2
1558433571290162,-2,-7,-29,-16,-3,-2,1,4
1558433571290162,0,-1,-4,2,4,4,4,0
1558433571306119,-2,-1,0,-1,-5,2,-2,-2
1558433571306119,-3,-2,0,-9,-5,-7,0,-2
1558433571313099,-2,1,3,0,3,4,-2,-2
1558433571313099,-2,0,-1,-5,-6,-8,-5,-1
1558433571329059,0,-1,0,7,5,1,1,2
1558433571329059,0,0,-2,4,8,6,1,3
1558433571330054,1,1,8,1,-4,-3,-2,-2
1558433571330054,0,0,-2,1,2,0,2,3
1558433571343020,-3,-2,3,3,-14,-14,-5,-3
1558433571343020,-2,-3,-14,-13,-6,-5,-4,-2
1558433571350002,1,0,1,3,3,-1,3,2
1558433571350002,-2,0,11,6,7,4,0,-1
1558433571365964,0,-2,-2,-1,4,5,0,0
1558433571365964,2,0,3,6,-1,-1,-2,-2
1558433571372946,0,0,2,2,0,5,5,0
1558433571372946,-2,-6,-16,-14,-5,-1,-4,-5
1558433571388898,0,0,0,-1,-2,-5,-3,-2
1558433571388898,-1,-1,-4,-3,1,0,-2,-5
1558433571390892,-2,-1,3,4,-2,-5,-5,-2
1558433571390892,0,0,4,1,0,-3,-3,-2
1558433571402860,-1,1,-1,6,4,1,8,3
1558433571402860,-3,-5,-14,-26,-14,-7,-4,-3
1558433571411837,-2,0,5,2,-1,-3,-3,-3
1558433571411837,-3,-3,-6,-2,3,3,2,1
1558433571425798,0,1,7,5,1,3,-5,-2
1558433571425798,-1,-2,-6,4,1,-4,5,1
1558433571432782,-2,-2,-2,2,0,1,1,0
1558433571432782,2,1,2,-6,-3,-1,2,2
1558433571448737,-2,-3,-4,-4,-7,0,-1,-4
1558433571448737,1,1,5,10,6,3,0,1
1558433571450732,0,-2,-1,-2,1,1,-1,0
1558433571450732,-1,-1,7,4,-5,-6,0,0
1558433571462700,-2,-4,-19,-9,-1,-2,-3,-6
1558433571462700,-2,-1,-2,-5,-9,-6,1,2
1558433571471676,0,2,6,4,5,3,3,-1
1558433571471676,-2,-1,-6,-3,1,5,-1,-1
1558433571485643,-2,-2,3,1,-1,0,-3,0
1558433571485643,-2,-1,2,6,-3,2,-2,-4
1558433571492621,-2,-5,-8,-14,-7,-8,-2,-2
1558433571492621,2,1,0,8,8,6,1,1
1558433571508577,0,0,-4,-10,-6,-6,0,0
1558433571508577,1,0,12,19,13,15,5,-2
1558433571510571,-1,-1,2,12,3,3,-3,-1
1558433571510571,-3,-4,-18,-31,-13,-11,-4,-3
1558433571522541,-1,-3,4,1,-1,-1,-6,-2
1558433571522541,-3,-2,-8,-8,-11,-12,-7,-4
1558433571531526,5,3,1,-2,1,-2,3,4
1558433571531526,-2,-1,5,15,6,6,2,1
1558433571545478,-4,-2,-7,-9,2,2,-11,-5
1558433571545478,3,6,19,7,1,-7,7,3
1558433571552459,-3,-8,-22,-7,-1,6,4,-2
1558433571552459,1,-1,0,-4,0,-1,-5,-1
1558433571569422,0,6,28,20,4,-2,5,-2
1558433571569422,-7,-11,-37,-36,-11,-3,-7,-4
1558433571570412,1,5,17,20,3,-11,-2,2
1558433571570412,6,5,10,3,-5,11,5,3
1558433571582381,-11,-16,-41,-36,-14,-10,-9,-7
1558433571582381,4,4,25,12,5,-2,-4,2
1558433571591356,-2,-4,-15,-15,-4,-4,0,-5
1558433571591356,-3,-3,2,12,0,-1,3,-2
1558433571606315,7,5,9,9,-3,-8,2,5
1558433571606315,-1,1,-6,5,6,5,0,0
1558433571612301,-4,-6,-9,-4,0,-1,-2,1
1558433571612301,3,6,14,18,1,-2,-2,2
1558433571629254,-3,-3,-6,-13,3,4,9,0
1558433571629254,-5,-5,0,1,-8,-9,-6,-4
1558433571630253,3,2,7,6,0,1,-3,-3
1558433571630253,-2,0,4,12,5,-5,-2,-2
1558433571642220,3,3,-2,4,10,1,1,4
1558433571642220,-2,-3,0,-6,5,12,4,-1
1558433571651195,-2,1,3,3,3,4,-2,-5
1558433571651195,-3,-6,-11,-18,-25,-25,-7,-6
1558433571666154,0,1,19,0,1,12,-1,-4
1558433571666154,-1,-2,-12,4,-17,-12,-5,-2
1558433571672140,-3,-4,-14,-23,-6,0,-2,-2
1558433571672140,-5,-5,11,18,3,-7,-6,-3
1558433571688101,-5,-10,-28,-34,-11,-1,-12,-2
1558433571688101,4,3,12,14,-7,1,5,2
1558433571695077,6,7,15,-8,4,0,5,5
1558433571695077,-8,-11,-38,-26,-4,1,-3,-6
1558433571703056,0,1,14,22,3,2,-3,-3
1558433571703056,-2,0,4,14,6,-2,-3,-2
1558433571712033,1,3,-3,0,-2,0,0,1
1558433571712033,1,2,8,-4,1,7,3,2
1558433571725994,-3,-5,-7,-3,-4,-6,3,-3
1558433571725994,-3,-4,-16,-15,3,-3,-5,-4
1558433571732976,-5,-2,-3,11,-5,2,-6,-8
1558433571732976,2,2,5,3,33,11,8,5
1558433571747936,1,3,3,1,-7,-1,-3,-2
1558433571747936,4,8,15,1,-2,3,10,1
1558433571754917,-4,-4,-1,-11,16,2,-3,-2
1558433571754917,-2,-6,-5,4,-23,5,-10,-3
1558433571762896,-5,2,15,15,14,1,-2,-6
1558433571762896,-8,-16,-15,-2,4,-4,-7,-10
1558433571771880,4,8,14,14,19,2,2,2
1558433571771880,-4,-6,-3,-5,-4,0,-1,-3
1558433571785836,2,0,-2,3,7,11,15,4
1558433571785836,4,8,5,8,8,-4,0,3
1558433571792817,-7,-14,-12,-1,-15,-1,-12,-5
1558433571792817,1,-2,2,-7,5,4,7,0
1558433571808773,1,1,2,8,3,-2,-3,1
1558433571808773,-2,7,22,19,12,-6,-3,-3
1558433571814758,2,3,-9,-46,-25,10,4,2
1558433571814758,-2,-1,-9,18,13,-6,-5,-4
1558433571822743,-4,-6,-1,-21,-17,-6,-2,-5
1558433571822743,-2,-5,-29,-15,-15,-1,5,1
1558433571831713,-3,1,25,27,3,-11,-12,-7
1558433571831713,-3,-6,-29,-21,-14,-10,-16,-5
1558433571845675,2,5,11,16,13,3,12,3
1558433571845675,-4,-8,-3,4,2,7,2,-1
1558433571852662,-2,-1,-5,1,5,0,0,-3
1558433571852662,-5,-5,-4,-13,-31,-6,-7,-6
1558433571869611,5,7,4,18,38,9,2,5
1558433571869611,-3,-4,-4,-23,-35,-26,-20,-3
1558433571875595,-3,-7,-13,-3,-3,5,6,-3
1558433571875595,8,13,32,20,3,10,13,5
1558433571891552,-7,-10,-12,-11,-6,-4,-1,-5
1558433571891552,1,2,10,10,11,9,1,-1
1558433571892550,2,-1,-5,-16,-16,-1,3,2
1558433571892550,4,9,14,23,-9,-8,0,3
1558433571905514,-2,-1,3,-6,-8,3,-2,1
1558433571905514,-1,-2,0,-4,-5,-6,-10,0
1558433571912498,-3,-7,-11,-13,-11,-7,4,0
1558433571912498,-1,-2,-10,-9,27,4,-2,-1
1558433571928453,1,0,-12,-13,-30,-12,-9,0
1558433571928453,-1,-5,3,6,19,9,-1,0
1558433571935433,-2,2,6,5,-15,-15,11,0
1558433571935433,-4,-8,-9,-13,-10,9,10,1
1558433571951394,1,4,17,37,14,-3,-4,0
1558433571951394,1,0,-11,-33,-2,5,1,1
1558433571953387,-2,-3,3,15,-4,-7,-15,-5
1558433571953387,-8,-11,-25,-33,-13,-5,-9,-7
1558433571965354,-3,-4,-5,-8,2,-7,-7,-2
1558433571965354,-5,0,2,6,8,9,7,-14
1558433571972337,3,2,6,4,-11,-7,5,4
1558433571972337,1,4,11,3,18,-1,1,0
1558433571988293,6,7,11,20,5,18,5,3
1558433571988293,-2,-1,-13,-5,-12,-17,-8,-1
1558433571995274,0,-3,-6,-33,1,6,3,0
1558433571995274,-3,-2,-9,-3,-10,-5,7,0
1558433572011233,6,7,21,1,26,8,4,4
1558433572011233,-4,-10,-29,-10,-17,-17,-30,-1
1558433572013227,1,3,11,30,33,20,27,6
1558433572013227,3,1,8,11,-7,3,-3,2
1558433572025194,-6,-7,-9,-16,-16,-13,-7,-5
1558433572025194,-2,0,10,5,6,-1,-6,-6
1558433572034170,-3,-4,-7,15,8,-2,-3,0
1558433572034170,-2,-2,-4,-12,9,-4,-14,-4
1558433572048132,-3,-5,-17,-14,-31,-11,6,2
1558433572048132,-1,0,8,17,14,0,15,-1
1558433572055114,-7,-3,-7,-14,-23,-8,-17,-10
1558433572055114,4,4,4,-4,24,6,-3,3
1558433572071073,-4,-6,-6,-3,-37,-19,-1,-1
1558433572071073,4,5,3,-1,21,16,4,5
1558433572073067,-6,-11,-15,-12,-17,-11,-5,-7
1558433572073067,-1,1,6,2,-21,-15,-8,-3
1558433572085033,-2,-2,-6,-6,-7,-12,-6,-3
1558433572085033,3,1,-2,-12,-18,12,5,3
1558433572094012,4,5,9,4,19,-2,-2,10
1558433572094012,-4,-9,-21,-18,8,12,-4,-6
1558433572107973,-3,-2,-9,-5,-2,-9,0,-3
1558433572107973,1,1,6,11,20,16,7,2
1558433572114954,0,2,-1,-2,5,-1,-6,-2
1558433572114954,-9,-10,-1,10,-16,-10,-4,-9
1558433572131911,3,0,3,15,26,11,6,2
1558433572131911,3,2,1,-31,-26,-4,0,1
1558433572132907,-2,-1,-9,-3,-21,-10,-5,-2
1558433572132907,6,10,23,28,35,6,1,2
1558433572144874,-9,-13,-22,-24,-11,-9,-7,-6
1558433572144874,-4,-1,-2,7,-20,-11,-6,2
1558433572153852,-2,-4,-3,-10,0,-3,-3,-5
1558433572153852,2,4,6,0,-9,-7,-1,1
1558433572168810,6,12,27,20,18,6,-2,7
1558433572168810,-5,-9,-29,-11,0,-3,6,1
1558433572174795,-4,-3,-1,-17,-22,-6,-10,-4
1558433572174795,2,1,5,8,-4,-6,3,0
1558433572191749,5,8,17,18,24,17,15,8
1558433572191749,-6,-6,-5,-14,0,0,-13,-8
1558433572192746,2,0,-4,12,20,14,2,0
1558433572192746,-2,-1,-4,-16,-24,-4,1,1
1558433572204721,-2,-5,-13,-9,-11,7,1,-3
1558433572204721,1,3,13,18,9,-9,5,2
1558433572213690,-4,-5,-5,16,4,-7,-5,-4
1558433572213690,-4,-4,-10,-28,-17,-3,-5,-2
1558433572236629,2,-2,-8,-7,-12,-4,-3,0
1558433572236629,4,3,7,4,0,3,11,8
1558433572237627,0,1,4,11,9,-4,-4,-2
1558433572237627,3,3,-2,-14,-2,-10,0,0
1558433572251590,-6,-6,-8,-5,4,13,-1,-6
1558433572251590,4,3,13,17,6,3,1,-1
1558433572252586,1,-3,-9,-8,-9,2,-1,0
1558433572252586,-2,3,10,31,18,-6,-4,-3
1558433572265553,-2,-2,-12,-17,-10,-1,2,1
1558433572265553,-2,0,4,-13,0,-7,-11,-4
1558433572274530,-3,-3,-5,4,13,11,8,0
1558433572274530,-1,-3,-11,-5,6,6,2,2
1558433572288490,-1,-1,7,7,14,-3,-8,-3
1558433572288490,-5,-8,-21,-12,-26,-17,-16,-2
1558433572295473,7,7,18,18,33,3,9,7
1558433572295473,1,-3,-2,-21,-22,-4,4,1
1558433572311429,-2,-1,0,16,11,8,2,-2
1558433572311429,1,1,6,-4,0,-1,-7,-6
1558433572313424,-5,-3,-10,-13,-2,0,-3,-6
1558433572313424,-1,1,0,12,-18,-3,5,1
1558433572325394,1,4,10,12,3,-4,-7,-2
1558433572325394,0,0,-6,4,8,2,7,3
1558433572334374,2,0,-2,-12,-14,3,1,-1
1558433572334374,0,1,4,8,17,13,16,4
1558433572348330,-2,-4,-8,-10,-20,-9,-2,-3
1558433572348330,-1,2,6,2,6,7,4,-2
1558433572355311,2,2,7,11,-9,0,1,2
1558433572355311,-6,-5,-11,-36,-6,-8,-10,-7
1558433572371268,0,1,0,-10,-6,-5,-5,-3
1558433572371268,-5,-8,-6,6,10,4,6,0
1558433572373273,-1,-1,-1,-8,-20,-7,-5,1
1558433572373273,-1,-1,-1,14,12,-2,-7,-3
1558433572385231,-3,-2,-5,-7,-16,-13,-2,-2
1558433572385231,1,3,6,5,2,1,4,1
1558433572394209,-2,-4,-15,-19,-4,0,-9,-5
1558433572394209,-2,-3,4,11,16,8,10,1
1558433572408171,-1,0,-5,-8,4,5,8,1
1558433572408171,-3,0,9,4,-6,1,-1,-2
1558433572415153,-4,-2,0,5,-6,-5,-3,-3
1558433572415153,0,0,-5,2,17,10,-4,-2
1558433572432106,-1,-2,-3,1,-9,-10,-3,0
1558433572432106,0,2,1,-9,0,3,4,1
1558433572438089,0,2,3,-2,-12,-13,-14,-1
1558433572438089,-1,-2,-4,5,7,8,7,2
1558433572445081,-2,-3,-2,9,4,-6,-5,-1
1558433572445081,0,-1,-11,-25,-10,-1,-7,0
1558433572454048,1,1,6,8,6,-2,3,3
1558433572454048,1,1,7,8,-2,8,-1,2
1558433572468010,3,1,-4,0,5,5,1,4
1558433572468010,-1,0,0,5,5,-2,5,0
1558433572474999,-2,-1,-1,-8,-7,-4,-4,-3
1558433572474999,0,2,7,-1,-13,-10,-2,-2
1558433572491947,0,-2,-7,-3,-1,3,1,0
1558433572491947,-2,0,3,0,3,2,7,0
1558433572492944,-3,-6,-8,5,13,0,-5,-2
1558433572492944,-2,-3,-5,-8,-11,-5,2,0
1558433572504912,0,-2,-9,-21,-1,-7,-3,-2
1558433572504912,-2,-1,1,-1,-10,-3,-8,-5
1558433572513889,0,2,5,9,8,3,8,0
1558433572513889,0,-2,-1,2,0,-5,-8,-1
1558433572527849,-5,-5,-4,1,-3,-4,-9,-6
1558433572527849,1,1,-2,5,9,4,1,2
1558433572542810,-3,-2,-1,-2,-4,-4,0,-2
1558433572542810,-3,-3,-3,-5,9,10,-7,-5
1558433572551787,3,5,10,6,-1,6,17,2
1558433572551787,-4,-4,-6,4,-7,-4,-5,-4
1558433572552783,1,2,4,0,1,5,1,0
1558433572552783,2,3,8,8,0,0,4,4
1558433572564756,-3,-7,-8,-1,-6,-5,-7,-4
1558433572564756,-5,-5,-10,-12,-13,-12,-7,-5
1558433572581706,3,2,6,7,12,10,12,6
1558433572581706,0,0,-6,-8,-9,-6,2,0
1558433572588687,-2,-2,7,7,3,4,-10,-3
1558433572588687,-1,-1,0,1,-5,-4,2,1
1558433572594676,-3,0,-2,-3,-2,-3,-5,-3
1558433572594676,0,-2,1,7,-2,0,5,1
1558433572610627,-1,3,-1,-4,7,9,-2,1
1558433572610627,-2,-2,-2,4,-11,-5,-2,-3
1558433572617609,1,1,-3,-8,8,3,2,1
1558433572617609,-1,-2,-2,4,1,-2,-1,0
