timestamp,emg1,emg2,emg3,emg4,emg5,emg6,emg7,emg8
1558433621240801,-1,3,13,8,0,6,-2,-2
1558433621240801,-3,-7,-16,-8,-8,-6,-2,-4
1558433621241793,2,2,4,-1,4,-5,-1,0
1558433621241793,0,1,1,-1,-1,-6,-5,-2
1558433621241793,-2,1,4,3,3,-2,0,3
1558433621241793,0,1,0,-3,-8,2,3,-3
1558433621242791,-5,-5,-7,-1,-11,-7,-8,-4
1558433621242791,-1,1,14,20,13,12,8,4
1558433621253761,-4,-9,-17,-18,-7,-11,-4,-4
1558433621253761,1,2,10,4,0,0,-7,-2
1558433621263735,-4,-4,-14,-7,-6,-2,2,-1
1558433621263735,-1,-3,2,2,-3,-2,-1,-3
1558433621269719,-3,-4,-9,7,-2,0,-2,-4
1558433621269719,2,-1,4,2,1,-2,0,2
1558433621284683,0,3,7,-2,10,15,0,0
1558433621284683,-1,-1,0,4,-5,-7,-5,-2
1558433621292658,-3,-6,-12,-12,-3,-2,-1,-2
1558433621292658,0,1,4,-9,3,3,2,2
1558433621298641,0,1,6,10,0,-2,-3,1
1558433621298641,-1,0,-9,-8,0,-2,-4,-3
1558433621313601,1,0,-1,-6,-10,-8,0,-1
1558433621313601,-1,-3,-2,4,1,2,-2,-2
1558433621322578,-2,-1,2,7,3,-6,-1,-3
1558433621322578,1,1,-2,-4,9,12,6,2
1558433621361474,-1,-1,2,0,-9,-1,-4,-1
1558433621361474,1,1,5,5,6,7,0,-1
1558433621362471,0,0,-4,-13,-2,-6,-1,-2
1558433621362471,-2,-3,-2,-12,-12,-5,-6,-4
1558433621363469,2,2,4,10,4,-4,5,5
1558433621363469,-1,2,-1,-6,1,1,0,0
1558433621366460,-4,-6,-22,-5,-7,-2,-6,-5
1558433621366460,0,-2,0,4,1,-6,-6,-3
1558433621373441,0,-2,1,-3,-1,3,-3,-3
1558433621373441,0,-3,-6,-4,-5,-3,-3,-3
1558433621381420,1,5,12,-4,4,6,6,3
1558433621381420,-2,-1,-5,0,0,-10,-5,-4
1558433621389398,-1,-2,2,2,6,9,2,0
1558433621389398,-2,-2,-4,3,1,2,3,0
1558433621403361,-1,-2,-4,-1,0,-3,-4,-3
1558433621403361,0,1,7,5,2,3,4,2
1558433621412338,-4,-2,-1,-3,-9,-11,-6,-4
1558433621412338,-3,-3,-3,-8,-4,-5,-3,-4
1558433621418323,0,1,2,6,-2,4,3,1
1558433621418323,-2,-1,-4,-3,6,9,3,0
1558433621433281,0,0,-7,3,4,1,0,0
1558433621433281,-3,-2,-6,-4,-5,-1,-3,-4
1558433621441261,-1,-1,6,5,-6,-7,-3,-3
1558433621441261,-1,-1,-5,0,3,0,-1,-1
1558433621457217,-3,-3,-5,-9,-4,-4,1,1
1558433621457217,1,1,4,1,-2,1,-3,-3
1558433621463201,-4,-1,3,9,0,-5,-4,-2
1558433621463201,-1,0,-4,-6,3,5,4,2
1558433621472178,-3,1,4,-2,-8,-2,-4,-5
1558433621472178,-1,-4,-11,-2,2,-3,-4,0
1558433621478161,-1,-2,5,7,0,-4,-1,-1
1558433621478161,0,0,-9,-3,4,8,2,3
1558433621493121,-2,-3,-4,-5,-7,-7,-3,-3
1558433621493121,0,3,12,5,4,1,0,1
1558433621501101,0,-2,-3,-5,-10,-1,-5,-4
1558433621501101,1,-1,0,4,-2,-5,-3,-3
1558433621510076,1,1,1,2,7,4,3,1
1558433621510076,-2,-4,-4,-4,-5,-8,-4,0
1558433621523042,-1,-1,-1,-2,0,5,1,0
1558433621523042,0,-1,4,-3,-6,-5,5,-3
1558433621532017,0,-1,-3,-1,3,2,0,2
1558433621532017,-1,-1,3,-1,-4,-3,0,0
1558433621538002,1,1,-4,1,11,6,3,4
1558433621538002,-2,-3,-2,0,-10,-5,-4,1
1558433621553959,-3,-3,-4,-14,-3,1,-1,-5
1558433621553959,1,2,5,4,7,6,4,3
1558433621560939,-2,-2,-5,-9,-3,-7,-2,-1
1558433621560939,-3,-3,3,2,-6,-5,-5,-3
1558433621569916,-1,-3,1,6,-5,-8,-7,-3
1558433621569916,-1,-2,-2,-4,-1,4,-4,0
1558433621583879,1,0,-1,6,3,1,9,5
1558433621583879,-1,0,1,-5,-5,-7,-3,1
1558433621592854,-3,-4,1,3,-5,-1,-6,-5
1558433621592854,-3,-4,-18,-14,-5,1,0,-4
1558433621598840,1,0,2,2,6,1,1,-2
1558433621598840,0,1,2,-1,1,-1,-1,-1
1558433621613799,1,3,0,-2,1,-3,-4,0
1558433621613799,0,1,5,7,-2,-5,-2,-1
1558433621620782,-2,0,2,-2,-2,2,-4,-1
1558433621620782,-1,-2,-5,2,-1,2,-3,-3
1558433621629756,3,4,7,8,17,15,12,6
1558433621629756,-3,-3,-5,6,-1,-8,-3,-1
1558433621643719,-4,-4,-7,-8,-10,-6,-6,-8
1558433621643719,-2,-1,5,4,-3,-1,-7,-4
1558433621652694,-4,-5,-13,-21,-8,-8,-5,-3
1558433621652694,3,5,7,0,1,0,3,4
1558433621658678,0,-3,-5,-2,2,4,3,3
1558433621658678,-2,-1,5,3,-3,-2,-3,-3
1558433621673643,-2,0,-4,0,-6,-6,-5,-3
1558433621673643,-5,-6,-7,-6,3,7,0,-5
1558433621680619,-1,-1,-6,-1,3,-4,-1,-1
1558433621680619,4,4,4,0,10,9,10,5
1558433621689597,-1,-1,1,1,-2,-1,-2,-2
1558433621689597,0,-1,1,1,-12,-8,-9,-3
1558433621703560,-3,-4,-1,3,-8,-3,-6,-3
1558433621703560,1,0,-7,-15,9,3,4,2
1558433621712534,-4,-3,-1,1,0,6,2,-1
1558433621712534,1,2,14,7,-2,-9,-2,0
1558433621718520,-1,-3,-15,-5,1,1,1,2
1558433621718520,2,2,1,1,-6,-10,-4,0
1558433621733478,-1,-3,-2,-3,-2,-1,-2,-3
1558433621733478,-1,-2,-2,2,-5,-1,1,-2
1558433621741460,1,3,11,-3,-3,-4,-3,0
1558433621741460,-2,-3,-7,-5,-9,-9,-3,0
1558433621749437,-1,0,2,10,6,4,4,0
1558433621749437,1,-2,-3,-7,-5,-7,-4,-2
1558433621763400,0,3,9,3,1,4,5,1
1558433621763400,-2,-3,-7,2,-2,3,-4,-3
1558433621772375,1,-2,-6,-8,-3,-7,1,2
1558433621772375,-1,1,-2,-3,-1,-2,-2,1
1558433621786337,2,0,4,-2,0,-1,-7,-2
1558433621786337,-1,-2,1,-1,-7,-2,-1,0
1558433621793322,4,4,5,6,0,-6,2,2
1558433621793322,-1,0,-5,0,14,12,6,5
1558433621801297,-2,-1,-6,-2,-6,-4,-5,-6
1558433621801297,-3,-1,-4,-11,-2,7,0,-3
1558433621810273,-2,-4,-3,-3,-11,-9,-7,-5
1558433621810273,4,3,1,-1,8,3,5,4
1558433621823238,-4,-6,-1,4,4,4,-3,-3
1558433621823238,-2,0,4,13,-4,-3,-1,-2
1558433621832215,0,0,-8,-12,9,9,5,0
1558433621832215,-1,0,5,3,-2,0,-4,0
1558433621847174,-4,-4,-3,4,-3,-9,-4,-2
1558433621847174,-2,-2,-1,-1,3,6,-1,-3
1558433621853161,1,-1,-1,-4,3,3,-1,0
1558433621853161,0,-1,0,5,3,1,0,-2
1558433621861139,-1,2,0,-8,-5,-3,1,-1
1558433621861139,-1,-2,2,1,-2,0,-3,-2
1558433621870114,-1,1,1,7,0,1,-1,1
1558433621870114,-1,0,-1,-5,-4,-9,-1,-2
1558433621883080,2,0,4,0,6,4,-6,-1
1558433621883080,2,0,0,7,7,5,3,2
1558433621892055,-3,-3,-3,-5,-4,1,-2,-2
1558433621892055,-2,-4,-4,-10,-10,-5,-6,-4
1558433621907014,0,0,-12,-8,-5,-3,0,3
1558433621907014,-1,-1,3,-1,3,2,2,0
1558433621912999,1,-1,-3,2,2,-1,-3,-1
1558433621912999,-3,-3,-4,-2,-8,-4,-5,-2
1558433621920978,2,2,16,9,7,1,0,-3
1558433621920978,-2,-3,-10,-10,-4,0,-1,-3
1558433621929953,0,2,0,3,0,-4,-2,-3
1558433621929953,-3,-4,-11,-11,-9,-11,-6,-3
1558433621943916,1,0,-3,-8,0,6,2,1
1558433621943916,-3,-5,-1,-1,1,-3,-3,-2
1558433621951895,1,3,14,2,-10,-3,-5,-5
1558433621951895,6,5,-2,9,15,7,8,5
1558433621966854,-3,-3,-5,-3,-2,1,0,0
1558433621966854,0,-1,1,0,-1,-7,0,0
1558433621973836,-1,-3,0,8,-2,3,-3,1
1558433621973836,-3,-2,0,-15,-8,-2,-6,-4
1558433621980816,-1,-4,-15,-12,-11,-8,-1,0
1558433621980816,-1,-1,-4,-2,-5,-4,-2,0
1558433621989792,0,0,0,5,12,8,4,2
1558433621989792,-2,3,12,12,-1,1,4,0
1558433622003756,-3,-3,-8,-7,-5,-3,-5,-3
1558433622003756,-4,-3,-2,-1,-3,-1,0,0
1558433622012731,-1,0,-6,-5,-2,-6,-2,0
1558433622012731,-2,-3,0,-1,4,4,6,1
1558433622026693,1,1,10,6,-2,-3,-3,-4
1558433622026693,-1,-2,-5,3,-2,0,-5,-4
1558433622033675,-1,0,-1,0,2,3,3,2
1558433622033675,0,-1,-1,-1,-6,-2,-2,-4
1558433622040655,0,0,0,0,4,3,3,1
1558433622040655,3,2,4,1,1,-7,-1,4
1558433622056618,0,-1,3,5,4,1,-1,-2
1558433622056618,-1,-1,-2,-2,-11,-5,-7,-4
1558433622063597,1,2,10,5,6,2,-2,1
1558433622063597,0,-1,-7,-1,0,-2,0,0
1558433622072575,-4,-7,-13,-19,-11,-7,0,-2
1558433622072575,-2,-2,-6,0,0,0,-3,-3
1558433622086535,1,-1,8,13,5,6,2,1
1558433622086535,-3,0,-4,-8,-4,-10,-6,-5
1558433622093518,1,1,1,0,0,1,1,-1
1558433622093518,-2,-4,-8,2,0,-5,-5,-2
1558433622100497,-2,0,0,1,-8,-2,-3,-4
1558433622100497,4,0,2,-11,-2,-5,2,1
1558433622116460,-2,-3,-5,-1,-5,1,-7,-5
1558433622116460,-1,-1,-3,-4,5,4,6,4
1558433622123441,-1,0,-2,2,-1,-1,2,-1
1558433622123441,-2,2,8,10,1,5,-2,-4
1558433622132411,-2,-3,-7,-7,-13,-7,-3,-4
1558433622132411,1,0,-1,-3,5,3,1,0
1558433622146378,-1,-1,3,-1,-4,-10,-1,0
1558433622146378,-1,-2,-4,-1,1,-1,-1,1
1558433622153372,0,4,10,8,4,3,-1,0
1558433622153372,-2,-1,-1,9,-5,-3,-2,-2
1558433622161337,-4,-5,-11,-23,-7,-3,0,1
1558433622161337,-2,0,1,6,4,2,-2,-2
1558433622176294,-1,-2,-1,-9,0,0,2,-3
1558433622176294,1,3,12,7,1,3,3,1
1558433622183276,-3,-2,-5,3,-1,1,0,-2
1558433622183276,-2,-4,-12,0,-5,-2,1,1
1558433622192253,-4,-4,-2,-3,-7,-14,-7,-1
1558433622192253,1,-1,2,2,4,4,1,1
1558433622206220,3,2,6,4,5,-5,-2,0
1558433622206220,0,1,0,-5,-8,2,0,-2
1558433622213201,2,3,7,13,5,5,3,3
1558433622213201,-2,-1,-8,-12,3,-2,0,-1
1558433622221175,-2,-5,-11,-7,-6,1,-1,-1
1558433622221175,2,-1,0,-1,3,1,-2,0
1558433622236135,1,2,5,2,-4,-12,-8,0
1558433622236135,1,2,4,2,9,7,7,2
1558433622243115,-2,-1,-13,-6,-9,-3,-6,-5
1558433622243115,-4,-2,4,-2,-5,-6,-2,-4
1558433622252093,-1,-5,-16,-18,-6,-3,-3,0
1558433622252093,1,0,1,6,5,3,-1,1
1558433622267054,0,1,10,8,-1,-5,-1,0
1558433622267054,-4,-4,-10,-8,-8,-6,-4,-4
1558433622274035,0,0,4,2,5,3,1,2
1558433622274035,-2,-2,-9,-4,3,-3,-1,-2
1558433622281057,1,-1,6,10,0,4,1,1
1558433622281057,2,3,9,-6,3,6,3,0
1558433622296047,-2,-5,-16,-8,1,3,-3,-4
1558433622296047,-4,-8,-14,-10,-15,-6,-8,-6
1558433622303980,1,0,4,2,4,5,1,4
1558433622303980,0,1,1,6,13,4,2,2
1558433622312939,2,2,10,15,-2,-5,-1,-2
1558433622312939,-1,-2,3,-10,-12,-6,-7,-4
1558433622326998,-2,-3,-1,-6,-1,1,-2,-4
1558433622326998,-2,-3,-12,-6,-8,-4,-2,-1
1558433622333874,1,2,0,2,4,-2,-5,-2
1558433622333874,-3,-5,-9,-5,-4,2,4,0
1558433622349832,-1,0,0,0,1,-6,0,0
1558433622349832,2,0,5,-4,3,9,-2,-2
1558433622355853,-5,-5,-6,-5,-9,-4,0,-3
1558433622355853,0,1,6,6,2,-6,-4,0
1558433622372977,3,2,2,3,5,5,4,3
1558433622372977,-1,-1,6,3,1,-4,-7,-1
1558433622373773,-1,1,1,6,-2,1,1,-1
1558433622373773,-1,0,-5,-4,-5,1,0,2
1558433622386957,-3,-3,6,-11,-4,-6,-6,-3
1558433622386957,0,-1,-22,3,1,1,3,3
1558433622393930,0,-2,6,-1,8,5,2,-3
1558433622393930,-3,-2,-4,2,-2,-6,-2,-4
1558433622409864,-3,-2,-1,2,-6,-4,-4,-5
1558433622409864,0,0,4,-4,-5,-2,-2,-1
1558433622416656,-1,1,8,8,8,6,6,0
1558433622416656,-3,-2,0,9,3,8,1,-1
1558433622432830,-2,0,-7,0,2,0,1,-2
1558433622432830,1,0,5,-10,-9,-9,1,0
1558433622433612,-3,-2,0,2,-3,-2,-7,-4
1558433622433612,-2,-6,-17,-18,-14,-3,-5,-3
1558433622446572,-2,-2,-6,-1,-1,-3,1,3
1558433622446572,-1,1,5,8,8,2,2,2
1558433622453555,0,0,6,-5,-5,-3,1,1
1558433622453555,-1,-1,0,3,1,-4,-6,0
1558433622469509,-3,-4,-16,-7,-2,5,2,-1
1558433622469509,-3,-4,0,13,3,3,0,-3
1558433622476494,3,2,1,-12,1,-3,2,5
1558433622476494,-1,1,9,3,-3,-8,-1,0
1558433622492615,-1,-6,-8,2,0,1,-2,-3
1558433622492615,1,1,12,7,1,-3,-2,0
1558433622494444,-2,-4,-8,1,-9,-4,0,-3
1558433622494444,0,2,-1,-2,-2,-1,-2,-2
1558433622506447,1,2,9,17,15,11,6,1
1558433622506447,-2,-1,-7,-8,-4,7,4,0
1558433622513557,-6,-7,-11,-17,-9,-7,-4,-1
1558433622513557,1,2,-1,-9,2,-4,-3,1
1558433622529514,1,2,7,-1,-7,-10,-3,0
1558433622529514,-1,0,1,2,-2,-1,0,-2
1558433622536534,-1,1,-1,5,7,4,1,1
1558433622536534,-3,-4,-2,-4,-3,-1,3,-1
1558433622552300,-2,-1,3,-1,-3,-4,-5,-3
1558433622552300,-4,-5,-9,1,-3,-7,-7,-3
1558433622553288,0,2,4,-15,-2,6,-1,0
1558433622553288,-1,-4,-13,-2,5,-5,2,2
1558433622567250,0,1,6,-5,-7,-5,-3,-1
1558433622567250,-3,-5,-15,-4,-2,-3,-4,-7
1558433622573463,1,1,3,2,-5,-8,0,-1
1558433622573463,3,2,11,8,2,-2,-5,1
1558433622589412,-2,0,2,-3,0,0,-1,-3
1558433622589412,0,1,3,-5,2,-8,0,1
1558433622596186,-3,-5,-19,-3,-4,3,0,-3
1558433622596186,-2,2,9,5,4,6,4,1
1558433622613139,-2,-2,-8,-6,-7,-4,-6,-3
1558433622613139,1,1,12,8,5,9,2,0
1558433622614127,-3,-2,-4,5,-1,-5,-2,-1
1558433622614127,-1,0,2,0,-2,-1,0,-1
1558433622627310,0,0,-3,-6,3,4,2,2
1558433622627310,-1,-3,-17,-1,-2,0,5,3
1558433622634072,0,2,9,7,5,6,0,-1
1558433622634072,-3,-3,-4,3,-4,-6,-7,-5
1558433622649253,1,4,17,-7,-1,-1,-2,-1
1558433622649253,1,0,-7,-2,-4,-4,-2,2
1558433622656053,-5,-9,-37,-20,-3,0,0,-5
1558433622656053,1,0,5,-3,1,1,-1,-1
1558433622671971,0,-1,-2,6,11,7,4,1
1558433622671971,1,4,17,1,-2,-1,0,-2
1558433622673965,-2,-2,0,-3,-11,-11,-7,-1
1558433622673965,-2,-2,3,4,8,8,-2,1
1558433622686930,0,-1,-8,7,5,-3,5,5
1558433622686930,-2,0,0,-5,2,0,-3,1
1558433622693910,-2,-3,-1,1,3,1,-2,-2
1558433622693910,0,0,1,-6,-10,-3,-5,-5
1558433622709068,-2,-3,-5,2,1,1,-1,-1
1558433622709068,0,1,5,5,3,2,5,2
1558433622716047,2,3,13,18,3,-5,-4,0
1558433622716047,-1,0,-1,-14,-8,-6,-5,-1
1558433622732982,-7,-10,-39,-18,-7,-5,0,-7
1558433622732982,-3,-2,1,-5,-3,1,-2,-2
1558433622733808,2,4,13,8,7,9,6,6
1558433622733808,0,5,17,15,5,0,0,1
1558433622745939,0,-2,-10,-4,-4,2,0,0
1558433622745939,-4,-6,-10,-25,-11,-4,-6,-6
1558433622754749,1,2,11,9,-1,-10,0,1
1558433622754749,-1,-4,-5,7,2,1,3,0
1558433622769896,0,0,6,5,-2,-4,-5,-2
1558433622769896,-2,-4,-16,-12,0,-4,-2,-2
1558433622776731,0,0,5,-4,-3,2,3,1
1558433622776731,-2,-3,-8,-4,-2,1,2,-3
1558433622792654,-1,-1,7,12,-3,-5,-3,-1
1558433622792654,-1,-2,5,-7,-10,-5,-8,-6
1558433622793647,-1,-3,-12,-12,-1,4,-2,-1
1558433622793647,0,2,0,10,2,3,2,1
1558433622806621,1,-1,-7,-16,-5,-4,-3,0
1558433622806621,2,2,9,16,4,-2,-2,2
1558433622814885,-1,-2,-5,-6,-3,-4,-2,0
1558433622814885,-2,-2,6,0,-1,3,1,-1
1558433622829589,-3,-3,-7,-9,-10,-4,-5,-2
1558433622829589,-2,-1,-4,1,-1,-2,-3,-5
1558433622836538,1,4,14,8,2,-2,1,0
1558433622836538,1,-6,-12,-2,8,9,5,1
1558433622852486,-3,-1,6,-20,-9,-8,-9,-7
1558433622852486,-5,-6,-23,-6,-6,-4,-1,-2
1558433622853487,0,1,3,3,8,7,4,4
1558433622853487,-2,0,-3,-3,-6,-1,1,-1
1558433622866451,-1,-3,4,6,2,2,-2,-2
1558433622866451,-1,1,6,2,0,2,0,0
1558433622874428,0,-1,-1,-1,-9,-12,-4,-2
1558433622874428,-3,-4,-10,-1,2,1,-2,-1
1558433622889390,0,1,3,4,8,6,-1,1
1558433622889390,2,0,2,-6,-6,-4,0,0
1558433622896367,-4,-7,-8,-5,-5,-4,0,-1
1558433622896367,3,5,0,-13,9,6,4,2
1558433622912326,1,5,14,10,-4,-4,1,-1
1558433622912326,-5,-6,-24,-3,1,2,3,-1
1558433622913324,-1,-3,-5,-5,-9,-9,-9,-4
1558433622913324,-2,-2,2,-2,-8,-5,-8,-5
1558433622926287,1,2,3,3,6,4,7,3
1558433622926287,1,2,14,8,1,-2,-4,-2
1558433622935265,-1,-2,-5,3,1,3,7,3
1558433622935265,-1,-2,-7,-1,-7,-10,-5,-2
1558433622949569,-2,0,2,1,-4,2,0,-1
1558433622949569,0,1,13,8,4,2,0,1
1558433622956413,0,-1,-7,-12,-1,1,-3,-3
1558433622956413,-1,-5,-4,-3,-6,0,3,2
1558433622972509,1,-4,-5,7,5,-2,-1,-1
1558433622972509,2,2,14,10,3,-1,-3,1
1558433622974159,-2,-3,-15,-11,1,8,3,-2
1558433622974159,-1,-2,2,-5,-9,-13,-3,-1
1558433622985737,-1,0,2,-2,5,2,4,3
1558433622985737,0,0,0,7,2,8,4,-2
1558433622994651,-3,-4,-1,1,-4,0,0,-3
1558433622994651,-1,-2,-2,2,-5,-9,-4,0
1558433623009654,2,-1,-4,3,7,5,4,2
1558433623009654,-1,-1,9,-1,-4,-2,-1,1
1558433623016458,-2,1,-1,4,-3,-3,-6,-3
1558433623016458,-5,-2,-3,-4,-7,-3,3,-3
1558433623032406,-1,-1,-3,0,3,-5,-4,1
1558433623032406,0,-1,-5,-1,4,-3,0,1
1558433623038341,1,2,5,2,5,5,1,1
1558433623038341,-4,-1,5,6,-9,-6,-6,-6
1558433623046578,-6,-5,-15,-12,-14,1,-4,-4
1558433623046578,2,1,1,-3,-1,2,4,1
1558433623055298,0,-2,-1,1,6,-7,-5,-2
1558433623055298,0,3,3,6,8,4,4,1
1558433623069261,-3,-5,-3,-6,-7,-7,-6,-5
1558433623069261,-3,-2,-10,-5,-5,0,-3,-3
1558433623076249,0,-2,-2,-5,-3,2,1,1
1558433623076249,2,5,16,14,15,8,2,-3
1558433623092415,-4,-4,-6,-6,-11,-6,-8,-4
1558433623092415,-3,-4,-16,-8,-7,-8,-6,-2
1558433623098189,1,4,4,3,12,12,7,7
1558433623098189,-1,-1,0,-1,2,2,0,2
1558433623115169,0,-3,5,8,0,-3,0,-2
1558433623115169,0,1,8,7,2,-4,-1,-3
1558433623116134,-4,-4,-16,-17,-10,-5,-4,-2
1558433623116134,-1,-2,-5,-11,2,3,-1,1
1558433623129296,0,1,0,-2,-4,-1,-4,-1
1558433623129296,-1,0,0,0,3,0,-1,1
1558433623136273,-2,-5,2,9,-2,-6,2,-5
1558433623136273,-3,-3,-10,-7,-3,3,1,0
1558433623152238,-1,1,7,3,-1,-3,1,0
1558433623152238,0,0,5,-2,5,4,2,2
1558433623158215,0,1,-2,-1,-8,-2,-5,-2
1558433623158215,0,-2,4,1,6,1,0,1
1558433623166192,-2,-2,-9,0,-4,-4,-2,-2
1558433623166192,-4,-3,0,-9,1,3,-1,-1
1558433623174977,3,4,7,7,-1,-4,1,1
1558433623174977,-1,-7,-10,-5,-10,-8,-6,-3
1558433623189970,0,-2,-6,-3,5,3,-3,-4
1558433623189970,0,1,1,3,-2,-4,-2,-1
1558433623196144,1,4,7,0,-1,0,-4,-2
1558433623196144,1,1,7,5,3,4,-1,-3
1558433623212096,-1,1,1,10,2,-1,-3,-2
1558433623212096,-1,-1,-9,-13,-4,2,1,-1
1558433623218860,-5,-7,-7,-2,2,-2,-3,-4
1558433623218860,-2,-1,-4,-7,-5,-7,-2,-1
1558433623234814,1,-1,-2,2,6,4,3,1
1558433623234814,-1,-1,5,1,-9,-8,-5,-2
1558433623236809,-3,-3,-5,-3,2,2,-2,1
1558433623236809,-1,0,0,1,-4,-2,-4,-2
1558433623249816,0,0,2,0,-5,-1,2,2
1558433623249816,2,3,19,22,5,-2,2,4
1558433623256797,-2,-7,-36,-34,-8,-5,-5,-1
1558433623256797,0,-1,0,-3,0,-2,-3,-2
1558433623271719,0,0,4,4,5,4,2,-1
1558433623271719,1,0,-3,4,5,5,0,0
1558433623278698,-2,1,8,8,-5,-5,-3,-2
1558433623278698,-2,-2,-4,-1,-2,1,4,3
1558433623302633,0,0,-3,-18,-9,-3,-10,-1
1558433623302633,1,-1,1,5,12,7,4,2
1558433623303629,0,2,18,14,4,0,2,-2
1558433623303629,-1,-6,-26,-24,-9,-3,-4,-3
1558433623309615,-2,0,5,4,-5,-4,1,0
1558433623309615,-5,-4,-5,-6,-9,-6,-4,-5
1558433623315598,4,3,8,5,3,-2,0,2
1558433623315598,1,2,3,7,8,5,4,1
1558433623331593,-1,0,5,1,2,3,-3,-4
1558433623331593,-6,-10,-17,-18,-15,-11,-2,-5
1558433623338886,-2,1,13,17,9,8,3,1
1558433623338886,-1,0,-6,12,6,-6,0,2
1558433623355594,-2,-3,-2,-15,-5,3,-1,-1
1558433623355594,-3,-2,-4,0,-6,-5,-8,-6
1558433623356489,2,1,5,2,-1,-4,0,0
1558433623356489,0,-1,3,-3,-4,1,0,0
1558433623369795,2,2,4,10,9,2,7,4
1558433623369795,0,1,-2,1,7,7,0,1
1558433623376819,-3,-4,-8,-10,-10,-8,-4,-4
1558433623376819,-1,1,4,8,-1,-4,-8,-1
1558433623392189,0,-4,-4,-2,-8,-10,-2,-2
1558433623392189,1,3,6,0,3,6,2,0
1558433623399440,1,-2,-4,-14,-3,0,-4,1
1558433623399440,-3,-3,-8,-12,-3,2,-6,-8
1558433623415076,-4,-3,-4,1,2,-1,2,0
1558433623415076,1,-2,0,3,2,1,1,0
1558433623416721,-3,0,4,7,-1,-1,-4,-3
1558433623416721,1,2,5,3,-2,-1,-1,1
1558433623429920,-3,-1,0,-3,-8,-13,-2,-2
1558433623429920,-1,-1,-6,4,11,5,-2,-1
1558433623436670,-2,-2,-5,-2,-3,3,0,-3
1558433623436670,-2,-3,-3,-14,-11,-12,0,2
1558433623451629,-1,1,1,14,12,6,5,-1
1558433623451629,-2,-3,-13,-27,-13,-9,-3,-1
1558433623458825,-3,-4,-5,-4,-4,-1,-2,-3
1558433623458825,-1,-1,4,5,4,2,2,-1
1558433623475571,-1,-2,0,2,-2,0,-5,-5
1558433623475571,-1,-2,1,0,-7,-6,-4,-2
1558433623476570,0,1,4,14,9,4,5,2
1558433623476570,0,2,7,-1,-1,2,0,-2
1558433623489530,-3,-9,-24,-13,-16,-5,-3,-2
1558433623489530,-2,-1,3,0,5,0,-1,-2
1558433623495514,-3,-4,-10,-5,-7,-6,-2,-3
1558433623495514,-2,-2,4,4,7,5,-2,-2
1558433623512467,2,2,8,-2,-3,-6,-3,3
1558433623512467,1,-2,-1,4,0,2,-1,-1
1558433623518447,1,3,5,3,7,2,4,4
1558433623518447,-1,-2,-2,2,0,-8,-4,-1
1558433623534405,-2,0,-1,-2,2,6,3,-1
1558433623534405,0,-1,-2,5,-1,-7,1,0
1558433623536399,-3,-3,-2,2,-5,3,-4,-3
1558433623536399,0,2,1,0,8,12,3,-2
1558433623549845,-3,-5,-10,-12,-6,-10,-3,-3
1558433623549845,2,2,3,13,5,5,0,1
1558433623556821,-2,-4,-14,-12,-4,-10,-2,-3
1558433623556821,-1,0,-1,7,-6,-5,-5,-1
1558433623571586,2,1,2,-11,0,1,0,1
1558433623571586,2,3,8,7,7,9,8,4
1558433623578569,0,-1,-1,-1,-1,-7,-6,-1
1558433623578569,-1,-2,-2,-4,-12,-6,-1,-2
1558433623595498,3,4,11,9,8,5,3,2
1558433623595498,-1,-1,7,1,-9,-12,-7,-4
1558433623596242,-3,-5,-18,-10,-2,5,-2,-3
1558433623596242,-4,-4,-16,-8,-5,-6,-1,-2
1558433623617185,-1,0,-4,-4,3,4,2,0
1558433623617185,-4,-7,-20,-24,-16,-3,-4,-4
1558433623619182,3,2,10,4,0,-5,-2,1
1558433623619182,-1,-1,2,6,8,8,4,-1
1558433623632468,-1,0,1,2,1,-4,-4,-2
1558433623632468,0,-1,3,1,2,0,1,2
1558433623638127,0,4,8,4,-1,-8,2,3
1558433623638127,-1,-3,-6,-7,-5,1,-1,-4
1558433623655377,0,1,8,9,2,3,-1,4
1558433623655377,-4,-3,-14,-11,0,1,0,-3
1558433623656082,-3,-2,-6,-17,-12,-6,-3,-6
1558433623656082,4,2,9,6,2,-1,0,3
1558433623669060,0,-3,-3,3,7,4,3,0
1558433623669060,-1,-1,0,4,-4,-8,-6,-5
1558433623677314,-2,0,2,5,-3,-3,-2,0
1558433623677314,2,2,0,-5,0,-2,-2,0
1558433623692232,1,3,13,7,1,5,1,-2
1558433623692232,-7,-9,-16,-17,-10,-2,-5,-3
1558433623697968,1,-1,-2,6,10,6,0,0
1558433623697968,-2,-2,5,4,-2,-8,-2,2
1558433623715200,0,-2,-4,5,1,-2,6,3
1558433623715200,-1,-1,-2,-19,-3,-3,0,-1
1558433623716146,-2,-1,-1,-1,-7,2,-1,-2
1558433623716146,-1,-1,1,-1,1,1,-2,-1
1558433623728887,-1,-1,-4,1,-3,-7,1,-1
1558433623728887,0,4,8,9,3,2,1,2
1558433623736865,-1,-2,-1,-3,-2,4,7,1
1558433623736865,-2,-3,-2,-2,-3,-3,0,0
1558433623751823,-4,-4,-8,0,-2,1,-4,-6
1558433623751823,2,-1,1,4,7,6,-1,1
1558433623759071,0,-2,0,-1,-3,-1,-4,-4
1558433623759071,-3,0,-1,-1,-1,-3,0,1
1558433623782740,-3,-4,-5,-9,-13,-11,-4,-4
1558433623782740,-1,2,3,7,11,4,2,1
1558433623783737,2,2,0,4,3,4,0,2
1558433623783737,-2,0,4,6,-2,3,-2,-4
1558433623797946,-2,-1,-7,-16,-1,1,-5,1
1558433623797946,-2,-2,-3,-2,-3,-4,0,-2
1558433623798701,0,-1,0,2,4,-2,-1,-2
1558433623798701,-1,-3,-8,-2,0,5,7,0
1558433623811958,-2,1,4,-1,-3,-3,-4,-2
1558433623811958,-1,-2,-2,5,-5,-4,-1,-2
1558433623818643,-1,-2,-2,-7,2,1,1,2
1558433623818643,-1,-1,1,9,-3,-3,-3,-1
1558433623835603,0,-1,-2,-3,-5,1,-2,-1
1558433623835603,-2,-1,-3,-3,-5,-5,-3,1
1558433623836597,0,3,5,8,4,-1,6,2
1558433623836597,1,-1,-3,-11,0,-4,-3,0
1558433623848856,-1,-2,-1,-1,-1,-2,2,1
1558433623848856,-3,-2,1,-6,-1,4,-2,-3
1558433623857541,-2,-5,-9,-7,-4,1,-3,-3
1558433623857541,0,-2,0,0,-1,-3,-6,-2
1558433623871792,-3,0,1,3,3,1,2,1
1558433623871792,1,-1,2,3,-8,-9,-5,-1
1558433623878486,-1,1,5,-2,1,3,-1,0
1558433623878486,-3,-2,-5,-1,-4,-2,0,-2
1558433623894721,-1,-4,-4,4,-1,-3,-4,-3
1558433623894721,0,1,0,-5,1,1,3,3
1558433623896437,-2,-2,-1,-6,-10,-6,-3,-2
1558433623896437,1,1,0,-5,3,-1,1,1
1558433623908689,0,0,4,7,14,4,1,-2
1558433623908689,-2,-2,0,0,-11,-3,-2,-1
1558433623917381,-1,1,6,4,-5,-1,-3,-2
1558433623917381,-2,-2,-5,-8,-1,-3,-5,-6
1558433623932445,-1,0,5,6,6,7,-3,0
1558433623932445,3,-2,-15,-9,-1,-1,5,3
1558433623938323,-3,-4,-6,-1,1,3,0,-3
1558433623938323,-3,0,8,3,-8,0,-3,-3
1558433623954317,3,2,3,1,4,-2,4,5
1558433623954317,0,1,4,10,3,-1,-3,-3
1558433623961263,-2,-2,-3,-15,-2,-2,-2,0
1558433623961263,-1,-4,-10,-4,5,5,1,-1
1558433623968245,-3,-3,-6,-11,-9,-5,-5,-5
1558433623968245,-1,0,2,5,-3,-3,-1,-3
1558433623977221,-2,0,0,4,7,5,-3,-2
1558433623977221,-1,-2,1,-5,-9,-1,4,1
1558433623992425,-3,-2,-4,-6,-1,-5,0,0
1558433623992425,0,2,7,7,10,7,-2,0
1558433623999352,0,-4,-5,-3,-6,-5,-6,-3
1558433623999352,1,2,3,9,3,3,4,3
1558433624014568,-3,-3,1,-3,-10,-7,-5,-2
1558433624014568,-4,-5,-9,-9,-5,-3,0,-2
1558433624021546,0,2,7,4,-2,-2,-1,0
1558433624021546,-1,0,-5,2,4,5,1,-2
1558433624029304,1,-1,-2,-2,-5,-6,-3,-1
1558433624029304,3,-1,6,6,9,8,6,3
1558433624037503,-1,-1,-2,-4,-1,-6,0,-1
1558433624037503,-3,-8,-15,-8,-5,-8,-4,-1
1558433624052441,-4,-4,-2,-3,2,10,1,-6
1558433624052441,-1,-3,-5,-2,-6,-6,-11,-4
1558433624059337,3,2,0,-2,3,1,8,4
1558433624059337,1,2,11,8,1,-4,-3,1
1558433624074266,-1,-1,-7,-6,2,8,3,1
1558433624074266,-4,-2,0,-7,-11,-5,-4,-4
1558433624081246,-1,-2,2,11,7,0,1,-1
1558433624081246,-2,-4,-8,-9,-13,-6,-3,-3
1558433624089153,4,2,7,6,10,3,1,2
1558433624089153,-3,-4,-5,-1,4,5,0,-5
1558433624097160,-2,-2,-1,-1,-5,-1,-1,0
1558433624097160,-1,1,6,9,5,4,2,0
1558433624112116,-3,-3,-5,-4,-3,-2,-3,0
1558433624112116,1,4,2,-8,0,0,1,1
1558433624118845,0,0,0,5,3,0,-2,-1
1558433624118845,-2,-2,1,-6,-4,-6,-2,-3
1558433624133801,1,2,5,1,-8,0,-6,-4
1558433624133801,-4,-4,-12,0,5,-3,5,0
1558433624140783,-1,-2,-1,-2,-13,-5,-3,-3
1558433624140783,0,-1,2,2,7,5,0,0
1558433624158004,0,1,-10,0,-1,-5,3,3
1558433624158004,1,-1,2,4,4,4,-2,-1
1558433624158739,-2,-2,-7,-18,-5,-5,-1,-3
1558433624158739,0,-3,-7,1,-10,-12,-6,0
1558433624171984,-1,0,-1,-10,6,6,-2,-3
1558433624171984,1,1,3,4,-2,-4,-1,2
1558433624178957,0,0,-1,7,8,7,2,3
1558433624178957,0,-1,0,-8,0,0,-7,-4
1558433624194926,-2,-4,-7,-3,-11,-13,-2,-1
1558433624194926,-2,-3,0,0,-9,-1,-4,-1
1558433624200622,3,2,0,4,9,2,4,1
1558433624200622,-3,-2,-7,-8,-6,-2,-1,-2
1558433624217578,0,-2,2,2,0,-2,-3,-2
1558433624217578,-2,1,4,4,-6,-4,-3,-3
1558433624218667,0,-1,-2,1,3,0,-7,-2
1558433624218667,-5,-6,-7,-14,-4,0,7,-1
1558433624231814,-3,-2,-1,-2,-4,-3,-3,-3
1558433624231814,-1,-3,-4,-4,-10,-8,-8,-4
1558433624238791,1,1,4,11,0,-1,0,-1
1558433624238791,1,0,-6,-5,8,2,2,2
1558433624254723,-2,-3,-5,1,-3,1,2,0
1558433624254723,1,3,4,2,2,-4,1,1
1558433624261705,-4,-1,0,-4,-5,-4,-9,-4
1558433624261705,-1,1,5,4,-3,-3,1,-2
1558433624284399,-2,-1,1,-1,1,5,5,2
1558433624284399,0,0,-3,-5,5,0,2,2
1558433624286398,-1,-1,-8,-1,-3,-3,-4,-6
1558433624286398,-2,0,12,10,4,3,-1,-3
1558433624292384,0,-1,-13,-6,-12,-10,-7,-2
1558433624292384,-3,-2,7,4,-1,-1,1,0
1558433624298573,0,-2,-3,-5,1,0,5,4
1558433624298573,-1,-1,-10,-1,5,-2,-2,2
1558433624314531,-2,-1,3,6,-1,3,0,-2
1558433624314531,0,0,-2,-7,2,2,-1,0
1558433624321303,-3,-2,-2,-2,-7,-4,-2,0
1558433624321303,2,1,9,11,1,-2,-6,-1
1558433624337464,-1,-2,-10,-16,-6,-8,2,1
1558433624337464,1,1,-2,4,8,7,0,-2
1558433624338266,-1,0,4,-2,0,8,2,-2
1558433624338266,0,0,4,5,-5,0,-5,-3
1558433624351220,-2,-3,2,3,-3,-10,-4,-2
1558433624351220,-1,-2,-3,3,1,1,1,-3
1558433624358243,0,-2,-2,-12,0,4,3,-1
1558433624358243,-2,0,-5,-3,-1,1,-1,-1
1558433624374282,-1,-3,-2,-3,1,3,-2,0
1558433624374282,-1,-1,1,4,-1,-1,-1,-2
1558433624381534,-2,-5,0,3,0,-1,-5,-4
1558433624381534,0,3,7,2,7,4,8,3
1558433624397097,-1,0,-1,-1,-7,-9,-2,-1
1558433624397097,0,-1,-7,-9,-12,-9,-6,1
1558433624399095,-2,-3,-7,-3,-2,3,6,2
1558433624399095,-2,-3,-7,-6,-4,0,-3,-5
1558433624412413,1,0,4,6,8,6,-1,-2
1558433624412413,-2,0,6,2,-2,0,-1,-1
1558433624419177,-4,-5,-16,-16,-16,-15,-11,-3
1558433624419177,0,-1,0,5,4,-4,0,1
1558433624434000,2,1,8,8,-4,-3,3,4
1558433624434000,-1,-3,-11,-10,4,-1,1,1
1558433624440980,0,2,7,9,4,3,1,0
1558433624440980,-3,-2,-6,-3,-5,-1,2,-2
1558433624458043,-4,-2,-5,-1,-3,2,-6,-5
1558433624458043,-2,-2,3,1,-2,-1,3,-1
1558433624458933,0,0,-4,-2,-1,-8,-2,1
1558433624458933,1,-1,5,3,2,4,-3,0
1558433624472230,1,2,2,-3,7,2,6,1
1558433624472230,-2,-2,2,3,-3,-2,-1,-3
1558433624479197,0,0,-1,0,1,2,1,-1
1558433624479197,-1,0,-6,0,-8,-5,2,1
1558433624494888,-1,-2,0,-7,-1,-2,-3,-1
1558433624494888,-3,-2,-6,-6,1,1,1,-2
1558433624500823,-3,-2,3,6,-1,-5,-8,-5
1558433624500823,0,-2,-1,-5,-1,-2,-3,-1
1558433624517774,0,2,3,1,2,7,10,2
1558433624517774,-1,2,2,7,3,0,1,0
1558433624518780,-2,-3,-3,1,-4,-2,-3,-3
1558433624518780,-2,-3,-7,-21,-2,3,2,-5
1558433624531948,-2,-1,-1,4,1,-3,-12,-5
1558433624531948,-2,1,1,-3,-7,-2,1,1
1558433624538931,0,-2,2,1,4,6,-1,0
1558433624538931,0,1,-1,-1,-4,-5,-1,0
1558433624554834,-2,-3,-7,0,-3,-10,-6,-4
1558433624554834,0,-2,1,1,-3,-3,-4,-2
1558433624561663,-1,0,4,3,2,-1,0,1
1558433624561663,2,1,2,2,0,4,2,2
1558433624577870,-1,0,0,2,-4,1,-5,-2
1558433624577870,1,0,1,4,8,-2,0,5
1558433624578615,0,0,4,4,-1,-2,4,3
1558433624578615,-2,-3,-15,-17,-6,0,0,0
1558433624591918,-1,-3,-4,-5,0,-4,-2,-2
1558433624591918,-4,-3,-5,-8,-2,5,-2,0
1558433624598560,0,2,7,5,0,0,0,-1
1558433624598560,0,-1,1,7,0,-3,-3,-1
1558433624614849,-2,0,2,-2,0,6,2,0
1558433624614849,0,0,-3,-4,-2,-5,-7,-1
1558433624621808,0,0,-4,-7,-3,0,6,1
1558433624621808,-1,-1,0,-4,1,2,-3,-1
1558433624637812,-2,-1,2,5,-5,-2,1,1
1558433624637812,1,-2,-7,-5,3,1,-1,-2
1558433624638497,-2,-2,-4,2,-5,-2,-4,-4
1558433624638497,0,2,1,-7,-1,-9,-2,1
1558433624650464,1,-2,0,-1,2,4,-5,-3
1558433624650464,-2,0,1,-3,0,2,5,1
1558433624659784,-1,-2,-3,0,-6,-5,-4,-3
1558433624659784,-4,-1,0,5,-1,0,-2,-2
1558433624674709,-1,0,-1,7,3,8,4,1
1558433624674709,-2,-3,-3,-3,-6,-2,-3,-4
1558433624681718,-2,0,-2,-4,2,-3,-3,-2
1558433624681718,-2,-1,5,3,-3,-4,-3,-5
1558433624697615,0,-1,4,5,3,5,0,0
1558433624697615,1,1,0,-4,-3,-3,3,2
1558433624699438,-3,-5,-8,-6,-7,-8,1,-1
1558433624699438,-3,-5,-9,-4,1,1,-2,0
1558433624711549,1,3,8,6,10,5,1,0
1558433624711549,-2,-6,-12,-9,-12,-5,-3,-4
1558433624720279,3,3,7,4,8,0,0,1
1558433624720279,-2,-2,-2,-3,-4,-6,-4,-1
1558433624734242,1,1,-2,-4,-3,-6,-1,1
1558433624734242,0,2,5,6,3,5,-1,0
1558433624741506,-1,3,4,7,1,6,2,1
1558433624741506,1,-2,-7,-4,-3,-3,-1,1
1558433624757456,-1,-3,-7,-12,-9,-3,-2,-2
1558433624757456,0,-1,1,-1,1,-5,3,0
1558433624758178,-2,-2,-4,-5,-1,5,-3,0
1558433624758178,0,2,10,12,2,-2,1,0
1558433624771141,-1,1,4,2,0,-2,-1,1
1558433624771141,1,0,0,-1,0,4,0,-2
1558433624780120,-5,-8,-16,-8,-5,-8,0,0
1558433624780120,-2,0,1,-1,3,2,2,1
1558433624794080,-4,-5,-7,-4,-2,-2,-5,-5
1558433624794080,-1,1,4,4,1,0,-4,-2
1558433624801062,0,2,3,-1,-1,-1,-3,-2
1558433624801062,-2,-1,-1,-2,-2,1,-2,-3
1558433624817023,0,-1,-3,-7,-5,-5,-3,-1
1558433624817023,1,1,7,10,3,1,2,1
1558433624819014,-1,-2,-3,-16,-1,1,0,-3
1558433624819014,-1,-1,-4,-1,2,3,-1,0
1558433624831322,-3,-3,-8,-7,4,0,0,-1
1558433624831322,-4,-6,-10,-15,-14,-5,-6,-1
1558433624839959,-1,-1,0,1,-3,-1,-1,-2
1558433624839959,-2,0,-1,3,1,3,2,-3
1558433624854263,1,0,2,1,2,1,1,-1
1558433624854263,-1,-1,-1,4,0,-11,-2,-1
1558433624861243,0,-3,-4,0,2,2,2,1
1558433624861243,0,1,1,-5,-7,-1,-4,-2
1558433624877339,-2,-3,2,4,-3,-7,-5,-3
1558433624877339,-2,-2,-14,-9,0,2,0,0
1558433624883841,-1,0,10,7,1,2,-3,-2
1558433624883841,2,0,2,5,5,-2,0,-1
1558433624891156,-2,-2,-5,-10,-11,-5,1,-2
1558433624891156,-2,0,9,6,1,-2,-6,-2
1558433624899798,-1,-3,-2,4,2,-14,-5,-3
1558433624899798,0,-1,-5,-9,3,13,6,0
1558433624914924,1,2,8,6,-1,-2,-1,1
1558433624914924,-4,-3,-7,-7,3,-1,-2,-2
1558433624920978,-3,-4,-7,2,-11,0,-1,-3
1558433624920978,0,-1,0,-13,-6,-9,-3,-2
1558433624936947,-1,0,-2,5,0,-8,-2,-1
1558433624936947,1,0,2,-3,-2,2,5,0
1558433624944177,-2,0,2,5,4,5,-1,-1
1558433624944177,-2,-4,-3,3,-2,-9,-7,0
1558433624950954,0,-1,-9,-3,4,9,3,4
1558433624950954,-2,-4,-6,-16,-3,1,-1,-5
1558433624959931,-3,-3,-12,-9,0,0,-4,-1
1558433624959931,0,1,8,2,1,0,3,-1
1558433624973922,-1,-1,-1,1,1,-1,3,1
1558433624973922,-2,-4,3,10,-2,-1,-6,-2
1558433624980874,0,-1,3,-1,-8,-9,-5,-3
1558433624980874,-1,2,2,6,4,5,2,0
1558433624996828,1,1,-3,-4,0,-10,4,2
1558433624996828,0,1,4,7,4,2,-3,0
1558433625003810,-3,-4,-9,-5,-6,3,1,-2
1558433625003810,-2,-3,-3,-5,-4,1,-5,-3
1558433625010819,-2,-1,0,0,-2,-5,-3,-1
1558433625010819,0,-2,5,5,-6,-7,2,-4
1558433625019766,1,4,10,9,6,-1,3,2
1558433625019766,-2,-2,-10,-5,3,2,1,1
1558433625033730,-2,-1,-3,1,-1,3,-4,-4
1558433625033730,-1,-4,-5,-1,2,2,-1,-3
1558433625040717,-3,-5,-6,-6,-7,-2,-4,-4
1558433625040717,-1,-1,3,7,-3,0,-1,-1
1558433625056944,-1,-1,0,-8,-4,1,-2,-1
1558433625056944,-2,1,0,0,-1,3,-2,-2
1558433625063931,3,4,2,-3,3,-2,4,1
1558433625063931,-2,-5,-2,-2,-3,-1,-5,-3
1558433625079656,-2,-5,-6,-4,-11,-15,-6,-5
1558433625079656,2,4,2,0,3,-4,-2,4
1558433625081606,1,5,10,-1,-1,4,2,4
1558433625081606,-3,-6,-13,1,3,-1,1,-1
1558433625094861,-2,-4,-2,-3,0,9,-1,-5
1558433625094861,0,-3,-3,2,-2,-3,0,-1
1558433625100555,0,1,5,-1,1,3,-2,-2
1558433625100555,-1,1,8,10,-4,-6,-1,-1
1558433625116543,-3,-5,-9,1,2,1,-1,0
1558433625116543,-1,0,1,-3,-2,1,-1,-2
1558433625123749,0,-5,-11,-11,0,2,1,-1
1558433625123749,1,1,1,-3,-3,-4,-2,0
1558433625140447,2,-1,6,1,-3,-1,1,-2
1558433625140447,-2,-3,-5,-2,0,-10,-3,0
1558433625141447,0,-1,-2,0,4,3,4,1
1558433625141447,-2,-2,-1,-4,-10,-8,-9,-5
1558433625154678,1,5,17,15,9,6,6,4
1558433625154678,-5,-10,-35,-32,-16,-12,-3,0
1558433625161664,-1,-3,0,-1,0,-4,-3,-2
1558433625161664,-1,-2,-1,2,2,1,-3,-2
1558433625176350,-2,-2,4,2,-4,1,-3,-1
1558433625176350,0,1,5,-4,1,2,2,0
1558433625183331,-1,1,-3,8,1,-1,4,1
1558433625183331,-1,0,2,8,8,1,-1,2
1558433625199325,0,0,-4,-4,-2,-2,-3,0
1558433625199325,-2,0,-4,2,-2,0,-3,-1
1558433625201284,-2,-3,-7,-15,-8,-3,-2,-4
1558433625201284,-2,-1,3,0,-2,-2,-2,-3
1558433625214600,-2,-2,-4,-5,-9,1,3,-2
1558433625214600,3,4,5,0,9,-5,3,5
1558433625221582,-2,-3,0,0,2,10,-1,-1
1558433625221582,-1,0,0,-3,-3,-4,-1,0
1558433625237497,-2,0,5,2,1,-5,-7,-3
1558433625237497,-1,-1,0,0,-11,-1,-1,-3
1558433625243512,-3,-4,-7,-2,-3,-5,-7,-3
1558433625243512,1,1,-2,-6,1,2,6,2
1558433625260474,2,1,-1,-2,4,-3,1,4
1558433625260474,1,2,8,12,3,2,2,0
1558433625261124,-1,-1,1,2,-2,-7,-8,-3
1558433625261124,-1,-4,0,0,-6,-3,-4,0
1558433625274413,-1,-2,-7,-12,-1,1,-1,-2
1558433625274413,0,-1,-1,-2,3,4,2,-1
1558433625281427,-1,0,-3,6,3,-2,-1,1
1558433625281427,-2,-2,-2,-4,-7,0,-2,-1
1558433625297317,-2,-1,-2,5,1,0,-1,-2
1558433625297317,0,0,6,12,3,7,4,1
1558433625304200,-2,-1,-5,-6,-6,-7,-3,0
1558433625304200,-1,-3,-6,-6,0,-2,-3,-2
1558433625320210,-1,0,-3,-1,2,-1,1,1
1558433625320210,-2,-3,-1,-6,-13,-8,-2,0
1558433625321170,0,-1,-1,-6,5,4,-1,-1
1558433625321170,0,2,7,11,0,2,2,1
1558433625334028,-2,-4,-8,-18,0,3,0,-3
1558433625334028,-1,1,9,11,3,2,-3,-4
1558433625341251,-2,-1,-3,-2,-2,-1,1,-1
1558433625341251,-3,-5,-8,-6,-5,-5,-3,-2
1558433625357212,-2,-2,2,0,-7,-2,-4,-2
1558433625357212,-1,0,1,5,11,5,2,3
1558433625364157,1,1,-2,-10,-4,0,0,-2
1558433625364157,1,-1,-1,-2,1,1,0,-2
1558433625379904,-1,1,4,8,2,-3,1,-3
1558433625379904,-2,-3,-8,-5,-9,-6,-7,-2
1558433625381084,-1,-1,0,0,-7,-6,1,1
1558433625381084,0,-1,-3,-11,0,0,1,0
1558433625393869,0,1,-3,0,0,0,-2,1
1558433625393869,0,-1,2,1,7,8,4,1
1558433625400846,0,-2,4,7,-1,-5,-1,-2
1558433625400846,-1,-1,-3,-6,-9,-3,-3,-2
1558433625416807,0,0,6,3,2,7,3,0
1558433625416807,-4,-7,-11,-6,-7,-4,-6,-5
1558433625423792,0,-1,1,5,8,1,1,2
1558433625423792,-1,1,0,-12,-3,-3,-3,-3
1558433625439744,-3,-4,-4,-2,-5,-1,0,-2
1558433625439744,0,0,-2,-3,2,-2,-2,-3
1558433625442143,1,2,5,9,9,6,3,1
1558433625442143,-1,-2,-4,1,-6,-4,-4,-3
1558433625455053,0,0,-5,-6,-5,-2,-4,-1
1558433625455053,0,1,6,6,3,3,0,-1
1558433625461177,-3,-2,-1,-6,-9,-2,-1,-2
1558433625461177,1,-1,-5,7,9,6,7,5
1558433625477000,2,4,0,-6,0,-7,-1,1
1558433625477000,-2,-4,-4,-2,-3,1,0,0
1558433625483626,-1,2,11,4,-5,-5,-5,-1
1558433625483626,-1,-2,-5,4,6,5,1,0
1558433625500021,-1,-3,-4,-6,0,2,4,0
1558433625500021,-1,-2,0,2,0,-6,-6,-1
1558433625501014,0,-2,0,-1,-2,2,-1,-1
1558433625501014,1,-1,-3,-4,-2,0,1,0
1558433625514297,0,-2,-2,1,1,0,1,2
1558433625514297,-1,1,4,-3,1,5,1,-4
1558433625521260,-2,-4,-4,-1,-5,-6,-5,-3
1558433625521260,-2,-3,-7,-10,-2,-2,-7,-4
1558433625536920,-1,-2,-1,8,7,0,4,2
1558433625536920,0,1,0,-7,-5,-4,0,4
1558433625544072,-2,-1,-1,4,-2,-1,-1,-1
1558433625544072,0,2,11,4,1,3,2,2
1558433625560120,-3,-7,-16,-6,0,3,-4,-3
1558433625560120,1,2,5,4,3,-1,-2,-2
1558433625561088,1,-1,-10,-6,3,-9,5,3
1558433625561088,0,3,7,6,-2,-4,-1,0
1558433625574095,1,0,3,-1,-7,0,-2,-2
1558433625574095,-4,-5,-8,-20,-4,5,3,0
1558433625581799,-1,-2,-5,-1,2,4,1,0
1558433625581799,0,1,3,8,-1,-6,-3,-1
1558433625596764,-3,-3,2,0,-3,-4,-5,-6
1558433625596764,-1,-2,-3,-1,-5,-3,-3,0
1558433625603742,1,1,4,1,-2,-5,-2,0
1558433625603742,-5,-3,-2,-9,-2,4,-3,-4
1558433625619698,-3,-3,-4,1,-2,-4,-5,0
1558433625619698,-2,-3,-10,-1,-7,-6,-1,-1
1558433625621693,-2,-3,-1,-7,4,5,-4,-2
1558433625621693,2,4,8,17,6,-6,-3,-1
1558433625633661,0,1,2,1,-1,0,1,-1
1558433625633661,-3,-3,-3,-6,-7,-5,-6,-4
1558433625642903,0,-1,-1,3,0,0,-1,-1
1558433625642903,-1,-3,-4,0,4,0,-2,-1
1558433625656733,-3,0,1,3,-9,-8,-7,-3
1558433625656733,0,1,-2,-3,-1,-4,3,1
1558433625663910,-1,-1,0,-2,-5,-1,-6,-2
1558433625663910,-3,-2,3,-4,-1,2,3,-1
1558433625679799,1,-1,-8,-4,-5,-6,1,2
1558433625679799,-3,-4,-1,7,3,2,-4,-3
1558433625679799,0,0,-1,-9,-1,2,2,1
1558433625679799,2,0,5,3,4,0,1,4
1558433625701477,-2,-1,4,0,-6,-4,0,-4
1558433625701477,-1,0,6,9,3,-3,-3,-2
1558433625702478,-1,-4,-6,2,7,3,4,5
1558433625702478,-2,-3,-11,-3,-10,-7,-3,-4
1558433625717436,-1,1,3,1,4,7,1,1
1558433625717436,-1,-1,2,-4,-1,4,1,-3
1558433625723521,-4,-5,-12,-2,-8,-6,-5,-6
1558433625723521,-2,0,0,-2,-7,-11,-1,2
1558433625739449,-3,-4,-5,-8,5,5,1,-1
1558433625739449,-2,-1,-2,-10,0,-4,-3,-2
1558433625739449,0,2,6,5,-5,-5,-3,-3
1558433625739449,-2,-4,-3,-5,5,9,1,-1
1558433625762346,3,3,5,12,6,1,2,1
1558433625762346,-2,-1,-5,-1,-2,-4,-2,0
1558433625762346,-2,1,4,-5,-5,-4,0,1
1558433625762346,-4,-4,-6,0,-4,0,-2,-4
1558433625777342,0,-3,-3,-6,-5,-4,-2,-2
1558433625777342,1,1,3,8,7,8,4,3
1558433625792345,0,2,2,3,5,3,0,-2
1558433625792345,0,2,1,0,-1,-3,-4,-2
1558433625799219,-1,-2,-8,-23,0,1,1,0
1558433625799219,0,1,5,5,-2,-1,-1,-3
1558433625806200,0,-2,-4,-14,-7,2,3,0
1558433625806200,0,0,1,7,7,1,-1,-1
1558433625822310,-3,-2,2,-2,-4,-2,-5,-5
1558433625822310,0,1,2,1,-9,-11,1,-2
1558433625822310,2,4,5,6,15,11,5,3
1558433625822310,2,-2,-4,0,0,1,3,2
1558433625837450,-3,-1,-1,1,-4,-6,-6,-7
1558433625837450,1,1,-2,-2,-8,-5,0,1
1558433625844100,-3,-2,-4,2,-1,2,-1,-4
1558433625844100,-2,-4,-10,-9,-6,1,2,1
1558433625859148,1,-1,1,4,4,0,2,3
1558433625859148,-1,-2,2,3,5,-3,-4,-1
1558433625866251,0,-1,9,5,-4,-4,-4,-4
1558433625866251,-1,-4,-3,-14,-4,-6,-5,0
1558433625882994,-2,-2,-17,-23,-9,-6,1,-1
1558433625882994,-1,-2,1,1,-2,-4,-3,-1
1558433625883992,-1,-2,-4,0,0,0,1,1
1558433625883992,-1,1,3,3,-1,0,1,-1
1558433625897266,2,0,5,5,-1,-2,-2,2
1558433625897266,1,-2,-4,-1,6,5,3,1
1558433625904149,-3,-4,-4,-9,-14,-16,-8,-7
1558433625904149,0,3,5,-3,2,6,3,-2
1558433625919061,-1,-2,-3,9,4,-1,-1,-1
1558433625919061,-1,-2,-12,-22,-7,-5,1,2
1558433625925951,-2,-2,0,6,5,0,-3,-2
1558433625925951,-2,-3,-2,-5,-6,-4,-6,-5
1558433625942104,0,1,8,8,3,3,-1,0
1558433625942104,-1,-3,-4,0,5,7,-1,-4
1558433625942104,1,1,4,2,-4,-7,1,2
1558433625942104,-1,-1,-2,-2,0,-6,-2,1
1558433625957795,-1,-2,0,8,-5,3,1,1
1558433625957795,-3,-5,-1,5,1,1,-3,-2
1558433625964046,-2,-1,-4,-14,-5,3,2,-2
1558433625964046,-1,-1,0,4,2,1,0,-1
1558433625979013,0,1,5,4,9,8,4,1
1558433625979013,-2,-4,4,5,-2,-4,0,1
1558433625986716,0,0,-8,11,1,-10,-1,1
1558433625986716,-3,-3,-3,-5,-8,0,-4,-4
1558433626002674,-4,-4,-13,-13,-3,-1,-1,-4
1558433626002674,2,2,1,-1,4,2,2,3
1558433626003670,-1,-1,0,-1,5,8,3,-1
1558433626003670,0,-1,1,7,-1,-5,-3,-1
1558433626025613,-2,-1,1,-4,-8,-11,-6,-5
1558433626025613,-1,2,2,-4,-6,-2,-2,-3
1558433626026888,1,1,4,7,9,6,1,1
1558433626026888,1,1,-1,-16,-1,0,2,2
1558433626038578,-4,-4,-4,-1,-5,-7,-4,-2
1558433626038578,-2,-2,-3,-4,-5,0,-3,-7
1558433626045558,-1,1,4,3,1,1,1,0
1558433626045558,-1,0,-4,-2,-3,1,-2,-3
1558433626061516,3,1,2,2,-1,-5,0,3
1558433626061516,0,0,1,10,8,7,4,-1
1558433626062548,-2,-2,-4,-9,-3,-4,-2,-3
1558433626062548,-1,-3,-4,0,2,1,1,-1
1558433626077510,-1,-1,-1,4,3,-3,-2,0
1558433626077510,-2,-1,-11,-10,-6,-3,-4,-1
1558433626083495,-1,-1,2,-2,0,4,-1,-4
1558433626083495,-2,-4,0,6,-1,1,3,-3
1558433626099413,2,3,0,2,7,3,2,2
1558433626099413,1,2,15,12,-2,-8,-6,0
1558433626105424,-3,-5,-22,-11,-2,1,-1,1
1558433626105424,-3,-5,-6,-3,-5,-3,-2,0
1558433626121355,-2,-2,-3,-11,-11,-8,-5,-5
1558433626121355,0,-2,0,-3,-5,-1,-3,-1
1558433626122353,0,0,4,-1,5,4,0,0
1558433626122353,0,-1,5,12,2,-4,-4,-2
1558433626137311,-2,-1,2,3,-1,4,2,-2
1558433626137311,-1,0,-8,-12,-2,0,1,-1
1558433626143671,0,-1,1,-3,-12,-11,-6,-3
1558433626143671,-1,-2,-6,-2,6,3,-1,0
1558433626158631,1,1,2,3,-2,1,2,4
1558433626158631,0,-2,-1,-1,-5,-6,1,1
1558433626166262,1,0,1,3,7,5,1,0
1558433626166262,-1,2,3,6,6,3,5,3
1558433626182347,0,-2,0,-9,3,5,0,-2
1558433626182347,-3,-3,-2,7,0,-2,-5,-2
1558433626182347,0,0,0,-3,-12,0,-3,-3
1558433626182347,-2,-5,-9,-13,3,1,-6,-2
1558433626197151,-1,1,1,4,2,-2,6,2
1558433626197151,2,0,4,2,7,10,0,1
1558433626203136,0,-3,-4,-1,-5,-4,-3,-3
1558433626203136,1,3,10,5,-5,-6,-1,-2
1558433626218098,-1,-2,0,-3,-6,-5,-3,-3
1558433626218098,1,1,-7,-4,3,-3,0,4
1558433626226075,-4,-3,-2,4,-4,-5,0,3
1558433626226075,-1,0,-3,-9,-4,-2,-4,-3
1558433626241037,-3,-1,1,-1,-4,-4,-7,-5
1558433626241037,0,-1,3,7,0,-1,6,-1
1558433626242032,0,-2,1,-10,-4,-6,-3,-2
1558433626242032,-1,-2,-7,-3,0,-2,1,1
1558433626257189,-3,-3,2,5,-1,1,-2,-3
1558433626257189,-3,-1,3,1,4,8,-3,-4
1558433626263351,-2,-3,-7,-10,-2,-4,0,-1
1558433626263351,-2,-3,-6,3,-4,-3,-2,-4
1558433626278224,-1,0,1,3,-3,0,-6,-3
1558433626278224,-3,-3,-3,-5,-5,-1,-4,-2
1558433626286075,-3,-1,-2,-3,-3,-2,-5,-4
1558433626286075,2,1,-3,1,6,10,13,5
1558433626302103,-4,-4,-9,-6,2,-3,-2,-2
1558433626302103,-1,-2,4,5,-7,-6,-3,-1
1558433626302103,1,2,7,6,4,0,-3,0
1558433626302103,-1,0,0,-5,-4,-1,-2,-1
1558433626316833,0,-1,-7,-12,-6,1,1,0
1558433626316833,-1,2,4,1,5,3,5,1
1558433626323813,-5,-4,-6,0,-2,-3,-1,-5
1558433626323813,0,-1,7,7,-2,-2,-4,0
1558433626338773,0,0,-3,-5,0,-5,-1,3
1558433626338773,-1,0,-2,-3,-2,-4,-5,-7
1558433626345914,0,0,2,4,9,8,-1,2
1558433626345914,-1,0,-4,-6,-14,-11,0,-2
1558433626361711,0,0,5,8,8,8,1,-1
1558433626361711,-1,-2,-13,-8,-3,-1,-3,-1
1558433626362983,-1,-2,1,-6,-5,-4,-6,-3
1558433626362983,1,3,8,4,5,4,5,3
1558433626377670,0,-2,-3,2,1,-2,2,1
1558433626377670,2,-1,1,-1,-4,-5,0,2
1558433626383685,0,0,-1,-1,-2,0,-3,-2
1558433626383685,0,-2,0,1,-1,-2,-6,-1
1558433626398649,1,3,6,4,6,6,2,0
1558433626398649,-2,-4,-8,8,4,-1,0,0
1558433626405594,-1,-2,-8,-8,-4,1,3,0
1558433626405594,-2,0,2,0,-1,-3,-6,-4
1558433626428537,-2,0,2,0,0,-1,-1,-4
1558433626428537,1,0,-3,-5,-1,-3,-1,1
1558433626429531,0,0,6,13,-1,-2,1,1
1558433626429531,-3,-3,-7,-4,12,5,0,-2
1558433626437510,0,-2,-6,-12,-6,-4,-1,-3
1558433626437510,0,1,3,6,3,3,-1,-2
1558433626443494,-2,-1,-2,1,0,-2,0,0
1558433626443494,-2,-1,1,3,-2,-3,-1,1
1558433626458453,-1,-2,-9,-4,-3,-1,-3,-1
1558433626458453,-2,-1,10,5,-2,-1,-3,-1
1558433626465435,-1,-3,-13,-6,-1,-3,2,3
1558433626465435,3,1,1,-4,-3,-1,-3,0
1558433626481391,1,3,5,10,1,0,-1,1
1558433626481391,-4,-5,-15,-17,-5,0,0,-2
1558433626482389,0,1,9,3,-1,1,-4,-1
1558433626482389,-2,-1,-1,-3,-5,0,1,-3
1558433626497352,-1,-1,0,3,0,-3,-2,-1
1558433626497352,0,2,7,6,-2,-2,-1,0
1558433626503394,1,2,-7,-17,-3,-2,-8,-1
1558433626503394,-4,-10,-20,-7,6,3,4,-2
1558433626518294,0,0,8,5,0,1,0,0
1558433626518294,-5,-5,-10,-10,-3,-6,-1,-3
1558433626526399,1,3,15,13,3,5,4,1
1558433626526399,-2,-4,-20,-10,-10,-10,-10,-3
1558433626541231,-2,-3,-3,-5,-1,2,5,4
1558433626541231,-1,0,-1,2,3,5,-1,1
1558433626542231,1,0,7,8,2,-1,6,2
1558433626542231,-2,-2,1,-1,-5,-1,-4,-4
1558433626557194,4,1,2,10,3,-2,-1,1
1558433626557194,0,0,3,-7,0,2,-6,1
1558433626563172,-2,-3,-11,-7,4,5,1,-4
1558433626563172,4,7,15,10,1,1,-2,3
1558433626578137,-6,-10,-19,-4,-10,-2,-1,-10
1558433626578137,3,-1,-2,-6,-6,-4,3,2
1558433626586111,-1,1,8,4,4,4,2,-5
1558433626586111,3,2,11,5,-3,-3,-6,-2
1558433626601072,-3,-6,-10,-6,5,0,-3,-2
1558433626601072,1,0,-4,1,4,-1,4,6
1558433626602069,-1,-2,-1,6,-4,-8,-5,-3
1558433626602069,0,1,8,-3,-8,-1,8,2
1558433626624011,0,3,8,2,2,-5,-5,-1
1558433626624011,-4,-4,-8,-9,-16,-7,-5,-3
1558433626625009,-2,-2,-10,-12,3,1,-2,0
1558433626625009,-1,-2,-2,2,7,6,3,1
1558433626639974,-1,0,1,-3,0,-3,-10,-1
1558433626639974,-1,-1,-3,-1,-9,-7,3,-1
1558433626645951,0,1,7,3,-3,4,0,0
1558433626645951,-2,3,11,11,1,-7,-4,-6
1558433626661908,-8,-12,-38,-34,-10,1,-3,-3
1558433626661908,1,5,25,13,11,2,2,-2
1558433626661908,-6,-15,-48,-29,-18,-12,-5,-3
1558433626661908,0,1,9,8,0,-1,-2,0
1558433626683858,6,13,36,6,11,2,4,3
1558433626683858,-7,-11,-27,-26,-12,-5,-4,-5
1558433626684853,-1,2,2,11,5,1,0,2
1558433626684853,0,1,-1,-10,-13,2,3,-2
1558433626699813,6,11,29,36,5,4,1,1
1558433626699813,-4,-5,-18,-32,-5,5,-4,-4
1558433626705791,-4,-7,-16,9,9,-9,-5,0
1558433626705791,-3,-6,-11,-14,-18,-8,-6,-4
1558433626721750,4,8,28,27,20,3,2,-1
1558433626721750,-1,5,25,18,20,9,-4,-1
1558433626721750,-6,-11,-46,-33,-36,-8,-5,-3
1558433626721750,5,8,17,6,3,2,12,7
1558433626743692,-6,-12,-27,-15,-23,-6,-3,-5
1558433626743692,3,4,11,21,-2,-8,-11,-1
1558433626744688,-3,-1,7,7,14,0,3,-3
1558433626744688,-1,-2,-7,-20,1,1,-2,-3
1558433626759648,0,0,7,-5,13,17,2,-1
1558433626759648,-3,-2,-7,21,16,1,-1,-7
1558433626765853,2,5,25,5,-2,2,-3,-4
1558433626765853,-5,-6,-21,-8,-9,-10,-3,-6
1558433626780608,-4,-7,-14,-13,3,-3,7,-3
1558433626780608,-1,2,6,5,-1,8,7,0
1558433626788571,6,8,8,11,18,17,11,6
1558433626788571,-1,-2,-2,3,-2,-9,-9,-3
1558433626803534,-6,-12,-31,-12,15,-2,-10,-1
1558433626803534,3,4,10,2,-26,-16,-2,0
1558433626804528,1,4,15,-9,-16,5,6,2
1558433626804528,-4,-3,0,4,4,-1,-13,-3
1558433626819504,3,0,-6,-21,-8,-2,8,5
1558433626819504,9,10,20,18,19,11,15,8
1558433626825677,2,4,18,19,18,-3,-7,-2
1558433626825677,4,9,12,2,-9,16,5,4
1558433626840434,-6,-7,-13,-16,-22,-22,-11,-3
1558433626840434,-3,-9,-26,-13,3,0,-2,-1
1558433626848616,5,6,26,14,16,12,7,2
1558433626848616,-6,-8,-28,-14,10,0,-1,-4
1558433626864436,-2,3,17,12,-6,-5,0,-4
1558433626864436,-1,1,-7,-21,-22,-1,-2,2
1558433626864436,-2,-2,0,26,10,-14,1,3
1558433626864436,2,1,6,-10,21,9,15,4
1558433626879330,0,0,5,12,1,2,-8,-2
1558433626879330,-6,-7,-22,-18,7,-3,-3,-6
1558433626886309,-1,-1,1,-8,-8,3,0,-1
1558433626886309,8,15,44,45,13,11,6,6
1558433626901269,-16,-30,-82,-58,-32,-10,7,-5
1558433626901269,3,1,14,10,-10,1,9,4
1558433626908414,-2,4,14,15,32,-1,-2,-3
1558433626908414,-3,-5,-11,-17,-41,-9,-1,0
1558433626924374,0,8,30,18,-14,-9,-13,-4
1558433626924374,3,-3,7,7,15,16,4,5
1558433626924374,-12,-19,-55,-35,0,-2,-8,-12
1558433626924374,-2,-1,5,17,10,3,-4,-3
1558433626940168,1,5,10,13,27,-3,8,3
1558433626940168,-8,-7,2,-8,-1,-3,-5,-11
1558433626946148,0,-2,-13,-26,-38,-9,-3,4
1558433626946148,3,3,14,37,20,3,7,6
1558433626961109,-4,-7,-15,-28,-3,10,-11,-5
1558433626961109,-1,3,-2,-1,6,-1,5,4
1558433626968091,3,5,14,12,-12,4,0,2
1558433626968091,-1,-1,7,6,-9,-3,-5,1
1558433626986065,2,2,-11,-10,-6,0,9,0
1558433626986065,4,7,14,9,9,0,1,1
1558433626986065,-4,-9,-15,-15,-20,-12,-8,-6
1558433626986065,-4,-8,-11,9,12,3,2,-1
1558433627000007,4,7,17,12,9,5,2,2
1558433627000007,-8,-10,-15,-3,-13,-12,-15,-12
1558433627005989,-2,-1,0,1,5,-4,-2,-2
1558433627005989,-1,0,-10,-17,12,-5,-10,-2
1558433627020950,-2,-4,-7,17,-2,10,2,1
1558433627020950,0,0,0,11,-2,-7,-1,0
1558433627027931,5,5,15,-13,0,-2,-13,4
1558433627027931,-3,-4,-15,-12,-11,2,15,-1
1558433627043887,2,4,14,15,-23,-17,-16,-4
1558433627043887,-5,-4,-13,-21,7,-10,-14,-3
1558433627044885,-8,-8,-2,-2,-28,-10,-14,-9
1558433627044885,0,1,13,12,20,-2,-2,1
1558433627059845,2,3,-4,-13,-7,6,6,5
1558433627059845,-1,-1,-9,-1,1,8,1,-1
1558433627066014,-2,-2,-3,-23,-7,-12,-1,-4
1558433627066014,-7,-6,-3,-11,-13,-9,-15,-11
1558433627080789,-2,-4,-9,-2,-5,-2,-7,-1
1558433627080789,2,1,5,14,5,-2,2,2
1558433627087771,-4,0,5,14,20,10,0,-5
1558433627087771,-4,-9,-21,-25,-11,-4,-3,-1
1558433627103728,5,6,17,21,12,1,9,5
1558433627103728,-1,-1,-14,-22,-11,1,10,3
1558433627104724,2,2,7,8,-7,-2,1,1
1558433627104724,-3,-3,-4,4,-21,-15,-13,-6
1558433627119684,1,0,5,-22,-4,7,4,2
1558433627119684,-2,2,8,11,14,-3,0,-3
1558433627125672,3,1,16,11,-22,0,5,5
1558433627125672,3,6,-13,13,37,13,6,0
1558433627140631,-6,-12,-14,-10,-27,-5,-8,-7
1558433627140631,-6,-4,-3,-6,-13,-9,-17,-10
1558433627148607,2,-1,-12,-16,16,0,14,6
1558433627148607,6,9,29,11,-6,0,1,2
1558433627163567,-1,1,10,10,11,0,1,-1
1558433627163567,-1,-5,-19,-11,-10,0,-2,-1
1558433627164564,0,3,16,14,4,2,-7,-4
1558433627164564,-2,-5,-13,-17,-1,1,8,1
1558433627179523,-7,-7,-3,6,-6,-8,-13,-5
1558433627179523,0,-1,7,-4,-9,-5,-9,-1
1558433627185513,-2,-3,-6,7,19,16,12,-1
1558433627185513,-4,-4,-5,-16,-10,-14,-9,-4
1558433627200470,2,3,0,1,17,21,17,6
1558433627200470,5,7,12,-1,-12,-1,1,7
1558433627208447,-1,0,-3,0,10,4,-7,-3
1558433627208447,-4,-9,-16,-15,-44,-15,-9,-4
1558433627223407,2,7,12,9,26,-7,-8,0
1558433627223407,3,3,5,0,-13,8,5,2
1558433627224404,2,0,2,2,0,-2,2,3
1558433627224404,-5,-7,-4,6,4,1,-1,-1
1558433627239365,-1,-1,-2,10,-2,1,-6,-1
1558433627239365,-3,-6,-13,-4,0,-5,11,-1
1558433627245352,-2,-1,-4,-12,0,5,-3,1
1558433627245352,2,5,9,7,8,-1,1,2
1558433627260316,-1,-3,-1,-5,3,4,1,-3
1558433627260316,-6,-6,-5,18,6,-12,-8,-9
1558433627268287,1,1,0,-7,-34,-10,2,0
1558433627268287,0,2,0,0,14,5,-5,1
1558433627284244,-4,0,5,4,-1,-10,6,-2
1558433627284244,-4,-3,-4,-7,1,0,-8,-3
1558433627284244,-3,-2,0,15,21,6,13,0
1558433627284244,-4,-9,-14,-30,-17,-14,-6,-6
1558433627300205,1,0,-1,-3,8,9,-1,2
1558433627300205,0,1,5,12,13,1,-1,0
1558433627306190,-5,-9,-15,-14,-15,-11,-13,-8
1558433627306190,1,-2,2,8,7,-4,-3,-1
1558433627321147,3,3,1,6,4,2,13,5
1558433627321147,-5,-6,-5,-15,-4,-2,-2,-6
1558433627328136,1,3,2,-1,-2,-6,-5,-3
1558433627328136,-1,-2,1,2,-21,1,0,0
1558433627344085,4,3,2,11,16,-6,-8,1
1558433627344085,0,0,-4,-17,-16,3,8,1
1558433627345083,4,3,-3,-15,-16,-3,2,6
1558433627345083,-3,-1,3,-16,4,1,6,2
1558433627360046,2,2,12,9,-10,5,-3,-2
1558433627360046,-2,-3,-9,14,3,-12,-10,-3
1558433627366029,-2,2,3,2,14,-1,-2,0
1558433627366029,-5,-5,-14,-17,-11,1,-3,-4
1558433627380991,-1,-2,3,2,11,5,10,-1
1558433627380991,2,3,2,2,9,12,3,3
1558433627387967,-2,-3,1,0,-19,-5,-8,-3
1558433627387967,2,3,3,6,5,-1,1,6
1558433627403925,-3,-3,-4,-9,-9,0,-4,-6
1558433627403925,-3,-7,-13,-23,-15,-2,10,0
1558433627404923,-1,-1,-1,3,3,-2,-6,-3
1558433627404923,1,1,5,16,18,6,6,1
1558433627419883,-3,-4,-4,-17,-22,-17,-15,-6
1558433627419883,-1,-2,3,8,11,4,3,2
1558433627425866,3,3,4,7,8,13,4,4
1558433627425866,-4,-4,-4,-5,-8,4,-4,-7
1558433627440828,0,2,2,4,-3,-6,0,2
1558433627440828,1,0,4,10,11,5,-7,-3
1558433627447807,-4,-5,-7,-12,-5,-9,0,-5
1558433627447807,-2,-1,2,9,3,0,-6,-7
1558433627463775,-3,-2,-3,-2,1,0,3,0
1558433627463775,-4,-3,1,-9,-21,-9,-6,-5
1558433627464761,0,-1,1,10,8,-3,4,1
1558433627464761,4,3,-2,1,18,12,12,5
1558433627479724,-5,-4,-4,1,-9,-9,-5,-5
1558433627479724,1,1,6,-3,-5,-3,0,0
1558433627485715,-3,-4,-6,-9,-17,-6,-11,-6
1558433627485715,1,0,4,4,7,2,5,4
1558433627500667,0,-2,-9,-16,-3,4,9,2
1558433627500667,5,5,9,9,15,13,6,6
1558433627508644,-3,-4,-3,0,-3,-3,1,-5
1558433627508644,-5,-6,-4,-1,-15,-10,-13,-7
1558433627523605,-1,-1,-3,-8,-5,-8,-12,-5
1558433627523605,1,1,-1,-3,-4,2,8,1
1558433627524603,1,1,2,6,23,14,14,3
1558433627524603,-1,-5,-5,-5,-16,1,0,-2
1558433627539561,-2,0,0,-6,-9,-7,-10,-5
1558433627539561,-1,1,4,8,6,13,3,0
1558433627545545,2,1,2,2,0,-9,-5,2
1558433627545545,-1,-1,1,2,19,8,8,-1
1558433627560511,-2,-2,-3,-13,-24,-12,-3,-1
1558433627560511,-9,-16,-30,-17,-20,-21,-24,-9
1558433627568495,4,5,6,21,35,19,20,10
1558433627568495,-1,2,-1,-11,-15,-7,-10,-3
1558433627583448,-2,-1,6,4,0,-4,-1,1
1558433627583448,2,1,3,5,13,8,-3,-2
1558433627584442,-7,-9,-10,-12,-28,-18,-14,-9
1558433627584442,3,1,-1,-1,3,-3,6,4
