timestamp,emg1,emg2,emg3,emg4,emg5,emg6,emg7,emg8
1558433543205539,3,4,12,13,3,-12,0,1
1558433543205539,-6,-12,-35,-14,4,10,6,2
1558433543206536,-1,0,2,8,0,0,-2,-2
1558433543206536,-2,0,-1,-20,3,6,-2,-2
1558433543207534,-4,-2,1,5,-3,0,-2,-3
1558433543207534,3,4,14,14,4,-4,2,3
1558433543207534,4,4,2,-1,2,1,-2,5
1558433543207534,-1,-4,-10,7,0,-1,-1,-4
1558433543218505,-1,-1,-12,-19,-5,4,1,-4
1558433543218505,-2,0,12,13,0,-5,-4,0
1558433543228477,-5,-6,-5,5,7,7,-3,-9
1558433543228477,0,2,10,3,-10,-8,-6,-2
1558433543233464,4,1,-7,-18,11,4,9,9
1558433543233464,-2,-6,-10,-8,-16,-7,0,-3
1558433543249423,2,5,11,8,4,-2,-2,-1
1558433543249423,-7,-9,-14,-1,-3,-2,-7,-5
1558433543264380,-3,0,0,5,0,-1,-1,-5
1558433543264380,-3,1,5,-5,-1,-5,-5,-5
1558433543265378,2,1,-3,-6,-7,-2,1,4
1558433543265378,4,4,4,7,9,-1,5,3
1558433543279341,-1,-3,2,2,-3,2,-2,-3
1558433543279341,-1,2,2,-3,0,0,-2,-5
1558433543287321,-3,-3,-3,-2,-9,-6,-6,2
1558433543287321,4,5,3,7,11,5,7,2
1558433543327213,-1,-2,-2,-11,-5,-2,-9,-4
1558433543327213,-1,-2,3,9,-1,-1,5,1
1558433543327213,-1,-2,-5,-3,-2,1,1,7
1558433543327213,-1,-1,4,-5,-10,-6,1,-13
1558433543328210,0,0,-8,10,10,6,5,4
1558433543328210,-5,-5,-1,-10,-5,-2,-7,-7
1558433543332198,3,3,7,6,4,-5,-2,4
1558433543332198,2,3,12,13,5,4,1,2
1558433543338184,-6,-11,-29,-23,-10,1,0,-4
1558433543338184,3,3,1,-2,4,-4,0,6
1558433543347159,-2,-4,-3,-8,-3,-2,1,-2
1558433543347159,-3,-4,-4,7,-2,-2,-4,-1
1558433543353144,2,6,11,5,4,6,-6,-9
1558433543353144,-1,-1,-5,1,0,-3,4,6
1558433543369100,-5,0,1,-7,-4,-9,-5,-9
1558433543369100,-2,0,0,0,1,0,9,-3
1558433543376082,1,-1,3,2,0,0,-4,1
1558433543376082,-4,-6,-11,-13,-10,0,-8,-8
1558433543383063,-1,1,3,6,7,3,-1,-5
1558433543383063,2,1,5,1,0,-7,-4,8
1558433543399020,-1,-5,-10,-4,-1,-6,4,1
1558433543399020,0,1,9,11,-1,2,1,-7
1558433543406999,0,-4,-6,0,-8,-4,-2,0
1558433543406999,2,6,15,9,5,7,0,5
1558433543413980,-7,-7,-21,-33,-21,-13,-2,-1
1558433543413980,0,-1,-7,-14,-8,-5,-7,3
1558433543428941,-3,0,3,0,0,-1,-12,-14
1558433543428941,2,0,7,25,15,12,15,8
1558433543435922,4,9,17,-2,6,2,5,-4
1558433543435922,-3,-4,-14,-4,-1,4,0,2
1558433543443901,-3,-4,0,2,0,-2,-2,-5
1558433543443901,1,2,-17,-12,-2,-6,-16,-6
1558433543458862,0,4,22,22,8,5,-2,0
1558433543458862,4,4,1,5,0,-6,14,9
1558433543466840,-3,-8,-9,-10,-6,3,-7,-1
1558433543466840,-4,-2,1,-6,0,-2,-12,-13
1558433543473821,-2,-2,8,3,-4,-8,-2,-5
1558433543473821,1,4,14,9,4,5,5,-5
1558433543488781,6,3,4,8,2,0,19,33
1558433543488781,-3,-7,-11,-14,-9,-2,-2,-2
1558433543495762,-3,0,4,7,-1,-1,-4,-6
1558433543495762,-4,-5,-13,-11,-14,-14,-20,-6
1558433543503743,1,2,-1,3,10,8,14,2
1558433543503743,-3,-6,-8,-9,-6,3,-2,-4
1558433543518701,-2,-2,5,9,-4,-8,0,11
1558433543518701,-1,0,-5,3,17,10,-4,-8
1558433543526679,-3,-6,-20,-27,-15,-11,-8,-7
1558433543526679,2,4,5,-1,3,2,4,2
1558433543533661,-3,-3,9,7,2,-7,-11,-8
1558433543533661,-4,-4,1,-7,-14,-1,11,4
1558433543549618,0,2,2,3,-1,3,-7,-7
1558433543549618,-5,-7,-19,-12,-4,-4,0,1
1558433543556598,7,7,13,11,12,6,1,8
1558433543556598,-7,-11,-27,-27,-15,-7,-8,-12
1558433543563583,-2,-1,4,6,7,4,-1,-7
1558433543563583,-5,-11,-28,-16,-18,-10,-9,-9
1558433543578541,0,-1,4,0,-2,-2,6,6
1558433543578541,3,6,17,12,14,9,9,4
1558433543586519,-1,0,7,2,-4,-2,8,13
1558433543586519,-2,0,4,3,3,4,4,1
1558433543593500,-2,-3,-17,-7,-9,-5,-8,-5
1558433543593500,0,-1,10,6,2,-1,-4,-2
1558433543609458,-1,-1,-6,1,0,-2,-4,-4
1558433543609458,-1,0,5,-1,0,-5,-6,4
1558433543616438,-5,-7,-9,-4,4,5,1,-5
1558433543616438,0,4,3,5,5,1,5,2
1558433543623420,-4,1,9,10,5,2,-6,-7
1558433543623420,-4,-8,-22,-13,-14,-12,-3,-3
1558433543638380,0,2,5,-12,-2,2,0,3
1558433543638380,-2,-4,-3,-5,-6,-4,-5,-1
1558433543646360,1,2,-12,3,1,4,2,-8
1558433543646360,-1,0,11,3,2,8,3,1
1558433543653340,2,-1,-9,0,4,-8,6,3
1558433543653340,0,-1,2,2,6,7,0,0
1558433543669298,1,0,0,-1,-2,-1,-1,1
1558433543669298,0,2,5,1,3,6,-1,-1
1558433543676280,-3,-3,-8,-3,-11,-5,-8,-7
1558433543676280,1,4,16,9,-2,-1,3,0
1558433543683260,-3,-4,-14,-9,0,1,-3,-4
1558433543683260,-1,-3,-14,-5,1,-9,0,5
1558433543698220,-4,-1,1,-7,-9,-1,-1,-2
1558433543698220,-1,0,-4,3,4,-6,-9,-2
1558433543707197,-1,-1,6,-1,-2,3,0,-1
1558433543707197,4,3,7,3,2,2,3,8
1558433543713181,-2,-4,-7,-2,-1,-5,0,1
1558433543713181,-5,-1,2,-2,-2,3,0,-13
1558433543729136,-6,-7,-12,-4,-5,-6,-5,-2
1558433543729136,1,4,26,9,0,-5,0,-3
1558433543736118,-5,-10,-32,-17,-14,-9,-5,1
1558433543736118,-4,-9,-21,-11,3,4,-1,-6
1558433543752076,2,0,8,4,5,2,7,3
1558433543752076,1,4,14,5,1,-1,-4,0
1558433543759058,-2,-2,3,-1,1,6,2,-2
1558433543759058,-1,-4,-6,10,-6,-9,-8,-3
1558433543767036,0,2,-4,-14,-10,-3,-3,1
1558433543767036,3,2,-8,6,10,4,6,2
1558433543774017,1,3,5,8,4,-2,-2,-4
1558433543774017,2,3,1,-4,-2,6,2,6
1558433543788976,-3,-2,5,4,-7,-5,-4,-3
1558433543788976,0,-1,-1,-3,-3,-5,-2,5
1558433543795959,-2,1,-1,3,7,9,2,-4
1558433543795959,-1,0,4,5,4,1,-1,-5
1558433543811918,1,2,4,6,-2,-12,3,13
1558433543811918,-3,0,-3,-7,-5,-4,-2,-8
1558433543818898,2,2,8,9,2,5,-2,4
1558433543818898,0,3,12,2,-1,-4,-1,-1
1558433543826877,-7,-15,-41,-26,-14,-8,-12,-9
1558433543826877,1,0,5,8,11,9,8,3
1558433543833858,-2,1,1,-1,-10,-5,0,-3
1558433543833858,2,3,8,10,16,1,3,8
1558433543848817,-1,2,13,0,-2,2,-3,-5
1558433543848817,-3,-5,-4,-7,-5,-1,-3,-3
1558433543855799,2,-2,5,10,2,-6,-1,-3
1558433543855799,-2,-3,-10,-11,-13,-8,-7,0
1558433543871756,-3,-1,7,7,3,6,6,-5
1558433543871756,-1,-2,-7,-10,4,5,3,-1
1558433543878737,-1,2,15,4,2,-2,-1,0
1558433543878737,-4,-7,-21,-10,-14,-12,-2,-2
1558433543886716,2,3,13,10,5,6,1,0
1558433543886716,-4,-7,-18,-11,-11,-6,-7,-4
1558433543893700,-1,-1,-7,-5,2,6,4,0
1558433543893700,0,0,3,2,4,2,-1,-1
1558433543909654,3,5,16,9,1,-8,0,-1
1558433543909654,-2,0,-5,-1,-10,-9,-7,-2
1558433543915639,-1,-4,-11,-6,3,4,5,7
1558433543915639,-1,-2,4,11,4,1,3,-4
1558433543931596,-2,-2,-9,-18,-3,-3,-6,-4
1558433543931596,1,4,10,8,10,2,2,0
1558433543938577,-2,-2,-7,-8,-6,-3,-3,-2
1558433543938577,0,2,7,4,-1,4,-1,2
1558433543946557,3,0,5,10,3,-2,6,7
1558433543946557,-4,-5,-10,-16,-13,-9,-10,-9
1558433543953538,0,0,-6,1,9,13,8,2
1558433543953538,-2,1,0,-7,-5,-1,-4,-1
1558433543969494,-1,-3,-3,2,-3,1,-2,0
1558433543969494,1,3,10,1,0,2,0,-6
1558433543976476,0,-2,2,4,1,-9,-6,-1
1558433543976476,-1,-3,-4,-4,3,-1,2,0
1558433543991436,-1,1,-6,-1,1,3,-1,-2
1558433543991436,-1,-4,1,-8,-9,-5,-1,2
1558433543998418,-2,-1,-5,-7,-2,-2,-4,-6
1558433543998418,2,2,4,3,4,5,4,2
1558433544006396,-3,-2,-7,-6,-6,-6,-5,-1
1558433544006396,-1,-1,3,6,9,7,0,-7
1558433544021357,2,1,6,5,-3,-3,4,2
1558433544021357,-1,-1,-6,-16,-9,-13,-8,3
1558433544029335,-1,1,2,4,5,5,1,-5
1558433544029335,1,3,3,1,-1,-4,2,3
1558433544036316,-3,-5,-6,-6,-2,2,-1,-3
1558433544036316,-3,-2,-6,2,1,0,0,-4
1558433544051276,0,-5,1,-9,-6,-3,-3,1
1558433544051276,-1,4,4,9,5,1,-5,4
1558433544058257,1,1,6,9,-4,-5,-5,-6
1558433544058257,4,4,10,-4,4,1,3,2
1558433544067235,-3,-4,-22,-8,3,-5,0,-3
1558433544067235,-2,-5,-4,-4,-2,2,0,-1
1558433544081197,2,5,16,2,-1,2,0,2
1558433544081197,-4,-9,-29,-4,-3,-1,-1,-5
1558433544089174,0,4,20,7,2,0,0,1
1558433544089174,-2,-5,-15,-4,-5,-1,-1,-1
1558433544096157,-3,-3,-1,-6,-6,-8,-6,-3
1558433544096157,5,3,9,4,7,5,7,6
1558433544112114,-2,0,-3,5,6,8,3,-1
1558433544112114,-2,-2,-2,-1,-1,-1,-2,0
1558433544119097,-1,-3,-1,3,-9,-9,-3,-2
1558433544119097,-1,0,-1,-6,-2,-4,-4,-1
1558433544127076,-2,-1,-2,-4,-6,-1,-4,-5
1558433544127076,0,0,2,-4,-2,3,1,0
1558433544141039,-4,-5,-16,-9,-2,-7,-3,-4
1558433544141039,3,3,4,7,20,18,13,6
1558433544149028,-1,-2,0,3,2,-5,1,4
1558433544149028,-1,1,3,2,-2,5,-3,-4
1558433544156006,-1,0,1,-2,-6,-3,-2,-3
1558433544156006,-2,-4,-1,5,0,-4,-7,0
1558433544171955,0,0,-5,-13,-8,-3,-5,-8
1558433544171955,-2,-4,-4,7,1,0,2,0
1558433544178940,0,1,-3,-3,2,-2,1,3
1558433544178940,-2,-1,3,4,-7,-7,-3,-1
1558433544185916,0,1,4,3,4,1,1,1
1558433544185916,-1,-1,6,6,-4,-8,-6,-5
1558433544200876,-2,-4,-17,-9,-2,-1,-2,-2
1558433544200876,-1,2,3,-7,-5,-4,0,-1
1558433544208859,2,3,11,13,3,-2,3,2
1558433544208859,-4,-7,-17,-17,-7,-5,-7,-3
1558433544215839,0,1,2,14,15,12,12,6
1558433544215839,-2,0,-8,-20,-8,-3,-3,-2
1558433544231798,-2,-4,-5,-2,-4,-4,-4,-1
1558433544231798,-2,1,8,5,-4,-4,-2,-3
1558433544238776,-2,-3,1,-6,2,8,0,0
1558433544238776,-2,-1,-2,3,-6,-9,-2,-1
1558433544245755,-1,-1,-1,-6,-5,-1,-4,-1
1558433544245755,-4,-3,-4,1,3,-1,1,3
1558433544260716,2,3,9,10,0,-2,2,-1
1558433544260716,-1,0,-3,5,10,9,4,-1
1558433544269691,-2,-6,-9,-15,-7,-5,-5,-2
1558433544269691,0,0,0,3,3,0,1,3
1558433544275677,-1,-2,-6,-20,-10,-5,-6,-5
1558433544275677,0,2,11,10,3,5,1,-1
1558433544291641,1,1,3,6,3,3,-1,0
1558433544291641,-1,-6,-18,-10,-12,-9,-4,-3
1558433544298622,1,1,7,10,14,13,9,5
1558433544298622,-3,-6,-14,-11,-8,-6,-8,0
1558433544314575,-5,-6,-8,-4,1,9,2,-2
1558433544314575,1,2,10,4,0,-5,-2,0
1558433544321555,0,1,3,0,-3,-5,-7,-3
1558433544321555,1,1,0,-1,-1,1,-3,-4
1558433544336529,1,2,5,10,4,1,5,5
1558433544336529,0,2,13,-12,-11,-6,-10,-3
1558433544344497,-9,-12,-25,-8,-3,0,3,-7
1558433544344497,-1,-3,-7,-2,7,-4,-3,2
1558433544351476,-5,-3,-3,-4,-6,-2,-2,-11
1558433544351476,0,-2,2,5,8,7,4,3
1558433544358561,3,5,14,2,-10,-14,-8,-4
1558433544358561,1,-3,-5,-6,-9,-3,1,1
1558433544374518,-1,-1,-2,4,9,4,2,3
1558433544374518,-2,-4,-8,-8,-7,-5,-5,-6
1558433544381431,-2,-2,-3,-5,2,6,2,2
1558433544381431,0,0,4,9,9,-2,3,0
1558433544397456,-1,-1,-1,-15,-7,-3,-1,-1
1558433544397456,1,3,0,4,-1,-4,2,0
1558433544399351,-1,0,5,2,2,3,-5,-1
1558433544399351,-2,-2,-5,-5,-2,1,-5,-5
1558433544412311,2,1,9,11,5,-3,-3,-2
1558433544412311,-1,-3,-17,-4,-1,2,6,2
1558433544426279,0,0,2,-1,-3,-7,-4,-3
1558433544426279,-1,-3,3,-5,-11,-6,-2,-3
1558433544434445,-2,-2,-7,-2,0,1,0,0
1558433544434445,-2,-2,2,2,-1,-1,-4,-3
1558433544441240,4,4,5,8,6,0,2,7
1558433544441240,-1,1,1,-2,-5,-3,-5,-4
1558433544457487,-1,-3,-5,0,-5,-2,0,0
1558433544457487,2,2,8,10,8,2,2,-2
1558433544459193,-5,-3,-7,-14,-4,9,0,-2
1558433544459193,-5,-4,-15,-9,-8,-11,-8,-5
1558433544472153,-3,-2,7,-1,-1,1,-2,0
1558433544472153,-1,-3,-13,-1,10,3,1,2
1558433544486115,0,-1,-1,2,1,0,0,1
1558433544486115,1,1,17,9,-4,-4,2,1
1558433544494095,1,4,-1,11,2,-5,-6,-2
1558433544494095,-4,-5,-5,-25,-17,-2,-1,-1
1558433544501074,-2,-3,-7,-9,-3,-7,-6,-3
1558433544501074,-2,-4,-7,1,-4,-4,-3,-4
1558433544518060,5,5,7,8,11,6,11,6
1558433544518060,1,6,13,12,5,2,-1,-1
1558433544519026,0,-2,-4,-5,-6,-1,-2,-4
1558433544519026,-1,0,7,6,-7,-9,-3,5
1558433544532159,-4,-3,-6,-2,-1,0,-4,-7
1558433544532159,-1,-2,-8,0,9,9,8,1
1558433544538974,1,-2,-1,-3,-4,-6,-1,2
1558433544538974,-2,-2,-2,1,1,7,-1,-2
1558433544554966,0,-1,3,-3,-3,-2,0,0
1558433544554966,-1,-2,-3,-1,-6,-1,-4,-2
1558433544560914,1,1,-1,7,5,2,2,-1
1558433544560914,1,0,5,0,4,6,2,2
1558433544577871,-1,-2,-6,-8,-8,-4,0,0
1558433544577871,-1,1,9,8,2,-4,-3,-3
1558433544578865,-1,-1,-1,3,5,3,-1,3
1558433544578865,-5,-5,-16,-11,-6,-5,-3,-3
1558433544591830,-4,-7,-9,-8,-5,-3,-3,-7
1558433544591830,-1,-2,-1,2,4,5,2,1
1558433544598842,0,-2,-2,0,-4,-6,-7,-3
1558433544598842,1,2,6,4,4,-1,1,1
1558433544615011,0,-1,1,-2,0,-1,-4,0
1558433544615011,-1,2,5,0,-8,0,-5,-3
1558433544621784,-2,-4,-1,5,8,3,4,4
1558433544621784,0,-1,1,1,-1,-2,-2,-3
1558433544637713,-1,-1,-7,-9,-7,-2,-3,0
1558433544637713,2,2,2,-2,0,-3,-1,0
1558433544638705,-1,-1,-2,-8,-5,0,-4,-4
1558433544638705,-3,-2,-1,0,-4,-6,-5,-4
1558433544652669,3,1,4,8,10,9,8,5
1558433544652669,-2,-3,-4,-3,1,2,1,0
1558433544658651,1,3,8,9,3,1,4,1
1558433544658651,-4,-8,-25,-33,-6,-5,-4,-4
1558433544674610,-2,-1,4,3,-3,-5,-5,-2
1558433544674610,-1,-5,-15,-8,-3,-1,-4,-2
1558433544680623,-1,-1,3,5,0,3,3,-3
1558433544680623,0,2,11,6,2,0,-1,-1
1558433544696816,-1,-2,-4,-7,-4,-9,-6,1
1558433544696816,0,1,-3,-1,-3,-3,0,4
1558433544703784,-3,-2,2,2,-5,1,0,-7
1558433544703784,2,4,12,17,21,15,8,1
1558433544719487,-5,-10,-31,-25,-10,-4,-5,-6
1558433544719487,2,3,8,7,-1,-6,-1,1
1558433544719487,0,0,0,-4,-2,-5,-1,3
1558433544719487,-2,-4,-4,-1,-8,4,-2,-1
1558433544735446,1,2,6,10,5,-1,-1,0
1558433544735446,-3,-2,0,-5,6,7,7,0
1558433544741462,0,1,10,12,0,-8,-2,0
1558433544741462,-5,-9,-17,-12,-12,-7,-5,-5
1558433544756389,3,6,12,4,3,-2,3,5
1558433544756389,-6,-9,-15,-7,-9,-4,-7,-4
1558433544757389,-3,-2,-1,-3,-1,0,-5,-2
1558433544757389,1,2,9,4,-5,-2,-5,-3
1558433544779329,-1,-1,1,-1,-4,-1,1,-6
1558433544779329,2,3,10,8,6,-8,1,2
1558433544780735,1,1,10,7,19,20,11,3
1558433544780735,-5,-8,-33,-20,-12,-3,-3,-5
1558433544795286,-3,-3,-1,0,-1,1,-2,-2
1558433544795286,0,0,0,-4,-8,-8,-2,-1
1558433544801713,0,0,2,1,-3,-4,-4,2
1558433544801713,2,2,8,4,11,7,7,2
1558433544816356,-3,-2,3,1,-2,-1,-2,-2
1558433544816356,-1,-2,-1,-4,-9,-1,-4,-5
1558433544824354,2,0,-7,-2,4,-2,1,1
1558433544824354,0,-1,6,6,-2,-5,2,5
1558433544847455,0,3,7,5,-5,-8,-3,-5
1558433544847455,-3,-7,-15,-3,1,2,-2,0
1558433544847455,-3,-3,-13,-16,-13,-9,-7,-7
1558433544847455,-1,1,1,-4,-2,1,-1,-3
1558433544855126,-2,-3,0,1,-2,-2,-2,1
1558433544855126,1,2,8,12,6,6,3,0
1558433544861109,-2,0,-4,-9,3,12,5,-1
1558433544861109,-2,-1,-6,2,-1,-6,-3,2
1558433544877067,-1,-3,-1,-6,-8,-11,-6,-1
1558433544877067,-2,-2,1,2,4,3,1,-4
1558433544877067,1,-3,-3,3,-4,-4,-1,-1
1558433544877067,2,4,16,4,6,8,3,2
1558433544899009,-2,-6,-14,-3,-3,1,-4,-1
1558433544899009,-1,-2,-4,-2,3,-8,1,-2
1558433544900006,0,0,-1,-5,-9,-6,-2,2
1558433544900006,1,2,7,6,6,0,0,0
1558433544914964,-3,-4,-12,-12,-5,0,-4,-2
1558433544914964,-3,-2,-2,-2,-2,1,-5,-3
1558433544920950,-3,-4,-4,-4,-6,-9,-3,-5
1558433544920950,-1,-3,-1,1,-1,1,0,0
1558433544936112,-1,0,3,0,-8,-3,-1,-3
1558433544936112,1,3,1,-2,18,16,11,3
1558433544943892,-1,4,6,6,0,-5,-2,2
1558433544943892,-2,-4,-10,-8,-5,-2,-1,-2
1558433544959193,-1,1,3,5,1,-2,-2,-1
1558433544959193,-2,0,2,-2,-10,-9,-8,-6
1558433544959848,-1,-3,-3,-16,-3,-2,-3,0
1558433544959848,-1,-1,2,2,-3,0,-1,-2
1558433544975101,2,1,-2,-2,1,1,0,-1
1558433544975101,1,1,4,12,4,-9,1,5
1558433544981094,-3,-3,-10,-4,1,-2,-1,-2
1558433544981094,-2,0,7,-4,-1,5,-1,-1
1558433544996777,-2,-2,-5,-5,-1,2,0,-1
1558433544996777,-1,1,4,4,1,3,-2,-2
1558433545004048,-1,-1,-2,7,0,-3,-2,-3
1558433545004048,-3,-3,-11,-16,-15,-12,-6,-4
1558433545019968,-3,-3,2,6,11,8,1,0
1558433545019968,0,-1,2,1,6,3,3,0
1558433545019968,-1,0,1,-1,-5,0,-1,2
1558433545019968,-1,-2,-5,3,2,0,0,-2
1558433545034650,-2,-3,-1,-5,-5,-8,-5,-2
1558433545034650,-3,-3,-7,-10,-6,-4,-6,-3
1558433545040634,1,2,8,6,0,8,1,-3
1558433545040634,-1,-5,-11,2,-1,0,-2,-3
1558433545055592,0,-1,-5,-11,4,2,6,6
1558433545055592,1,4,11,0,-6,-14,-1,1
1558433545063568,-3,-6,-14,-4,-2,0,-1,-4
1558433545063568,-1,1,7,10,5,1,-5,1
1558433545079527,-1,0,1,1,-6,-7,-3,-3
1558433545079527,-2,-1,-3,-5,-1,3,-2,-2
1558433545079527,-2,0,1,4,-2,-1,-2,-2
1558433545079527,-1,-1,-1,-10,-8,-6,-2,1
1558433545094485,0,1,1,8,10,6,2,2
1558433545094485,-1,-2,-9,-7,-1,7,1,1
1558433545101470,-2,-5,-6,3,2,0,-4,-3
1558433545101470,-1,-1,-1,-1,-4,0,-2,-3
1558433545116580,0,1,2,-12,-8,-5,-1,-1
1558433545116580,-1,-1,-7,-3,-4,-5,-3,0
1558433545123766,0,-1,0,-1,11,11,6,2
1558433545123766,-1,-2,3,1,-10,-3,-3,-3
1558433545139724,-1,-1,-4,-2,5,-2,2,0
1558433545139724,-3,0,6,3,1,6,-4,-1
1558433545140364,1,1,-7,-5,1,-9,-1,2
1558433545140364,0,2,12,2,3,0,1,1
1558433545155323,-3,-5,-6,-3,-5,1,-5,-5
1558433545155323,-2,-5,-3,-4,-12,-7,-1,-1
1558433545161325,-1,-2,0,-2,-3,-4,-4,1
1558433545161325,-2,3,8,2,8,7,3,-3
1558433545176270,-1,-4,-8,7,-1,-6,-1,0
1558433545176270,0,-2,-6,-3,0,2,-2,-2
1558433545184289,-2,-3,2,-8,0,0,-2,-1
1558433545184289,1,0,4,6,0,-6,-1,1
1558433545199271,-2,-1,-1,-2,-3,2,-1,-1
1558433545199271,1,2,4,7,0,-7,-1,-1
1558433545200203,0,1,4,3,-5,1,1,-1
1558433545200203,-2,-4,-11,-7,8,8,2,1
1558433545215163,2,2,13,13,1,-3,2,0
1558433545215163,1,-1,-9,-3,0,-4,-3,1
1558433545221435,-1,-2,-9,-1,7,4,3,-2
1558433545221435,0,-2,0,2,3,1,0,0
1558433545236401,-1,-2,-2,-4,-7,-1,-1,-1
1558433545236401,-1,1,2,-1,-2,0,0,-1
1558433545243088,0,-1,2,2,-2,2,1,-1
1558433545243088,0,3,6,5,0,-7,-7,0
1558433545259078,-4,-5,-14,-3,-5,1,2,-3
1558433545259078,0,0,6,5,4,-3,2,4
1558433545260043,-3,-3,-8,-8,-4,-4,-6,-6
1558433545260043,1,0,-1,-5,0,-3,1,-2
1558433545275034,1,3,8,3,-2,-4,-4,0
1558433545275034,1,0,2,1,-2,4,0,-2
1558433545280986,-2,-2,-1,-2,-11,-6,-6,-1
1558433545280986,-2,-7,-12,-6,-5,-7,-1,-2
1558433545296239,1,1,4,-2,-2,2,0,2
1558433545296239,-1,-2,-5,-1,19,18,7,-2
1558433545303926,2,3,14,5,-4,-11,1,3
1558433545303926,-2,-2,-13,-5,-2,-5,-6,-2
1558433545319026,-1,-4,-14,-9,-4,-4,-3,-2
1558433545319026,-2,0,3,-1,-2,10,2,0
1558433545319882,-3,-4,-3,-5,-4,-2,-7,-5
1558433545319882,1,2,8,12,1,-4,4,2
1558433545334844,-1,-2,-1,-2,-1,-3,-2,1
1558433545334844,-3,-3,-7,-5,-10,-4,-4,-5
1558433545341301,-1,0,0,1,1,0,1,-1
1558433545341301,2,0,1,3,1,-8,-6,0
1558433545356266,1,3,7,4,11,5,5,0
1558433545356266,0,0,-1,0,-2,-6,-2,2
1558433545364274,-2,-3,-5,0,-6,2,-2,-4
1558433545364274,-3,-2,-1,-16,-8,-4,-2,-3
1558433545380074,-1,-1,6,5,4,2,-1,0
1558433545380074,-2,-3,-13,-8,-8,-4,-3,-1
1558433545380074,-1,-3,-7,-8,-7,-4,-4,-5
1558433545380074,2,3,1,7,13,14,12,10
1558433545395078,-5,2,7,8,4,5,-2,-8
1558433545395078,-2,-4,-3,-2,-7,-2,-3,-2
1558433545401999,-2,-3,-6,-12,-5,-5,-4,-1
1558433545401999,-2,0,-1,0,5,3,0,0
1558433545415628,2,0,0,0,-2,1,3,-1
1558433545415628,0,-1,6,5,-5,-9,-3,0
1558433545423965,1,0,2,5,3,6,1,1
1558433545423965,-3,-6,-14,-7,-12,-5,-1,-3
1558433545439907,1,0,-8,-1,5,0,-1,1
1558433545439907,0,0,4,-2,-3,-10,-2,-1
1558433545439907,-2,0,1,9,13,9,4,2
1558433545439907,1,0,4,1,-2,-4,-4,-4
1558433545454874,0,2,8,8,-1,1,-1,0
1558433545454874,0,-2,-14,-12,-8,-1,-1,-3
1558433545461724,0,-1,5,1,1,-1,1,2
1558433545461724,-2,-3,-3,-1,1,1,-4,-2
1558433545476465,-1,-4,-6,-7,-10,-9,-5,-3
1558433545476465,0,1,5,6,13,7,8,4
1558433545483445,-2,-1,-4,-4,-3,0,-1,-1
1558433545483445,1,2,1,2,0,4,4,2
1558433545499450,-1,-1,-1,3,-3,-6,-5,-2
1558433545499450,-2,0,2,-8,0,0,-1,-3
1558433545499450,-1,0,1,2,0,-4,-4,-2
1558433545499450,-1,-2,-1,-8,-4,0,2,1
1558433545515362,0,-2,-1,-5,1,1,0,1
1558433545515362,-2,-2,5,3,-11,-10,-11,-5
1558433545521657,-1,0,-5,-11,-2,2,0,-1
1558433545521657,1,-1,-6,7,11,9,5,2
1558433545536605,-6,-2,-8,-6,2,2,0,-5
1558433545536605,-1,-1,-1,-1,-1,-9,-2,1
1558433545543284,-1,-2,-3,-4,-5,-2,-3,-4
1558433545543284,-1,0,2,1,-1,5,0,-2
1558433545559307,2,2,-1,-5,-1,-2,0,1
1558433545559307,0,-1,-3,0,3,4,-2,0
1558433545560239,-2,-1,4,7,-5,-7,-6,-4
1558433545560239,-1,1,3,9,1,-6,1,-3
1558433545575204,-3,-4,-12,-28,-10,-2,-5,-4
1558433545575204,-2,-3,-5,-1,-6,-7,-2,-1
1558433545581512,5,5,8,10,16,6,10,7
1558433545581512,-1,-1,-1,2,0,3,-2,0
1558433545596448,-3,-2,5,3,-5,-4,-8,-5
1558433545596448,-4,-3,-4,-2,-3,-1,-5,-5
1558433545604373,0,2,4,-1,3,2,4,4
1558433545604373,-2,-1,3,0,-3,-4,-3,-3
1558433545619391,-1,0,-3,2,-3,-1,0,1
1558433545619391,-1,1,-2,1,3,5,0,-1
1558433545620083,-3,-5,-9,-10,-10,-9,-9,-5
1558433545620083,0,2,8,15,13,6,11,8
1558433545635063,1,0,0,-5,-7,-3,-1,3
1558433545635063,-2,-4,-14,-10,3,8,3,-2
1558433545641297,-1,-1,-2,1,-3,-1,-4,-2
1558433545641297,-1,-4,-6,-10,-13,-7,-9,-6
1558433545656187,1,1,6,4,1,1,0,2
1558433545656187,-1,2,6,5,-3,-9,0,-4
1558433545664229,-2,-3,-6,-2,-3,-5,-5,-4
1558433545664229,0,1,-1,-5,-5,-2,-2,-4
1558433545679988,0,-1,9,15,20,10,9,6
1558433545679988,-1,-1,-7,-6,-7,-1,1,1
1558433545679988,-4,-7,-19,-19,-7,-3,-4,-4
1558433545679988,-1,1,9,8,2,-3,1,2
1558433545694882,-3,-1,1,0,-2,1,0,-5
1558433545694882,0,-1,2,2,-1,-4,-1,1
1558433545701893,0,2,8,7,5,-1,3,1
1558433545701893,-2,-3,-7,-6,-6,-2,-5,-2
1558433545715854,-3,-3,-5,-2,-7,0,-1,-3
1558433545715854,0,0,2,-4,-5,-6,-7,-2
1558433545723807,2,3,16,27,19,23,19,7
1558433545723807,-1,-3,-23,-24,-3,-10,-2,-2
1558433545740150,-3,-5,-5,-1,-7,-5,-5,-3
1558433545740150,0,-4,-11,-5,0,-5,-2,-1
1558433545740150,0,0,-1,2,-1,3,-2,0
1558433545740150,-1,-1,5,1,1,5,0,-2
1558433545755163,1,1,7,2,-1,-3,1,-2
1558433545755163,-2,-2,2,0,-5,-2,-4,-7
1558433545760719,-1,-3,-5,-9,-13,-9,-7,-3
1558433545760719,-2,-2,-2,1,0,-1,-1,-4
1558433545776015,4,3,0,-2,-2,-16,1,8
1558433545776015,0,0,8,13,11,14,7,2
1558433545783641,-3,-2,-7,-9,4,3,3,-1
1558433545783641,-4,-2,1,-7,-11,-7,-10,-6
1558433545799600,-3,-4,0,1,-5,2,-5,-2
1558433545799600,0,0,-3,1,5,1,3,3
1558433545799600,1,3,13,7,3,-6,0,4
1558433545799600,-3,-5,-21,-4,-13,-5,-7,-4
1558433545814592,-4,-2,-4,-11,0,5,1,-6
1558433545814592,1,1,1,7,8,-5,6,6
1558433545820542,-1,-2,-2,-6,-4,1,-6,-5
1558433545820542,-1,-2,3,1,1,3,3,4
1558433545836947,2,1,0,3,2,1,-1,3
1558433545836947,-1,-2,-1,-1,-4,-5,-2,-3
1558433545843483,1,-1,-1,-4,-13,-11,-2,-2
1558433545843483,-2,0,1,4,4,2,-1,-2
1558433545859475,-3,0,-2,-1,2,2,2,-1
1558433545859475,-1,-1,-1,-8,-5,-1,-4,-2
1558433545859475,-2,-2,-6,4,8,3,5,2
1558433545859475,2,2,10,2,1,-5,-3,0
1558433545875397,-1,-4,-10,-1,-1,-2,-3,-2
1558433545875397,-2,1,5,1,-1,6,0,-3
1558433545881735,-3,-3,-1,6,-9,-13,-7,-4
1558433545881735,-3,-4,-12,-27,-6,-1,1,-3
1558433545896673,-2,-2,2,3,-1,-3,-4,-1
1558433545896673,0,-2,3,0,4,6,5,2
1558433545903658,-1,0,-4,5,0,1,-1,-4
1558433545903658,1,1,2,-3,3,1,3,2
1558433545918612,-1,-3,-4,-3,2,1,-1,1
1558433545918612,0,-1,0,-5,-6,-7,-5,-5
1558433545926266,-2,-2,0,0,2,0,-2,-4
1558433545926266,1,2,4,6,-5,-4,-1,-1
1558433545935238,0,-2,-2,4,6,7,3,0
1558433545935238,2,1,4,0,1,3,-1,1
1558433545941553,0,0,-3,6,8,4,2,4
1558433545941553,0,-2,-8,-9,-4,-3,-1,-1
1558433545956521,-3,-2,-1,-4,-6,-3,-4,-4
1558433545956521,-3,-2,-7,-4,-7,-6,-3,-4
1558433545964264,1,1,8,1,-3,-3,-2,0
1558433545964264,0,0,5,11,6,9,0,-1
1558433545979440,0,-1,-10,-4,5,8,6,3
1558433545979440,1,0,0,0,1,-2,-1,2
1558433545986431,-1,-5,-4,-10,-8,-7,-6,-5
1558433545986431,-3,-2,-1,3,-1,-2,-2,-2
1558433545995110,1,1,3,2,-6,-8,-1,-2
1558433545995110,-2,-1,-1,-3,-1,4,2,0
1558433546009273,-3,-4,-7,-8,-3,3,-1,-4
1558433546009273,2,-2,1,5,2,-2,-3,-1
1558433546016025,1,3,4,1,-2,-1,0,0
1558433546016025,-2,-2,-4,-5,-1,-3,1,-1
1558433546024299,1,1,-6,-1,-2,-2,2,3
1558433546024299,-4,-1,2,-16,-7,-3,-5,0
1558433546039221,-2,1,1,2,0,-1,-3,-4
1558433546039221,-2,-4,1,6,1,0,-1,-1
1558433546046194,0,0,2,-3,6,5,0,1
1558433546046194,1,-2,0,2,-3,-3,-4,-3
1558433546054960,0,-1,-5,-3,1,1,2,2
1558433546054960,-1,1,3,1,-1,3,-3,-1
1558433546060902,0,2,-5,-4,-8,-7,-2,0
1558433546060902,-2,-1,-2,2,5,4,2,0
1558433546075883,-1,-1,2,4,5,-6,-1,-1
1558433546075883,-3,-3,-7,-18,-3,-4,-2,-4
1558433546084089,-1,-2,0,-5,-4,-3,-5,-2
1558433546084089,1,-2,-1,6,-2,-2,1,-1
1558433546099054,-4,-4,-6,-6,-9,-5,-4,-3
1558433546099054,-1,0,7,4,-2,1,-1,-1
1558433546106813,-4,-5,-14,-6,3,1,2,3
1558433546106813,0,1,2,0,0,-5,-2,0
1558433546121737,0,1,7,4,9,7,5,2
1558433546121737,-1,-3,-2,-1,-2,-1,-2,0
1558433546122735,-1,-1,1,-1,-5,-1,-4,0
1558433546122735,-1,0,0,3,-1,-2,-2,-3
1558433546135701,0,-1,-2,-4,-3,0,0,-1
1558433546135701,-1,0,-1,5,-3,-5,-2,-3
1558433546143682,0,0,-4,-16,-6,4,-2,-1
1558433546143682,-2,-1,-2,3,8,-1,5,0
1558433546159243,0,2,0,1,2,3,3,2
1558433546159243,-3,-3,-3,2,5,-2,-4,-4
1558433546166322,0,0,3,5,0,-4,0,0
1558433546166322,-3,-2,-3,-7,-8,2,-2,-1
1558433546182277,0,-1,-2,-5,-5,-4,-5,-4
1558433546182277,0,2,1,8,9,0,3,2
1558433546182277,-4,-4,-1,2,-10,-11,-10,-7
1558433546182277,-3,-2,-5,-16,-9,-3,4,-2
1558433546196245,0,-1,4,15,9,6,3,1
1558433546196245,-2,-2,-9,-14,-7,0,-4,-2
1558433546204222,-1,1,2,-1,1,-2,0,-2
1558433546204222,-2,-2,0,1,-4,-8,-6,-2
1558433546219166,-3,-3,-4,-9,-9,-4,-4,-5
1558433546219166,1,3,18,5,-4,-3,-3,-2
1558433546225847,-3,-4,-21,-6,2,5,4,-1
1558433546225847,-1,-2,-1,8,11,-1,-2,3
1558433546242079,-1,0,3,0,1,0,-1,-1
1558433546242079,-3,-5,-11,-11,-5,-1,-2,-2
1558433546242798,-1,3,12,4,-3,-4,-1,-3
1558433546242798,0,0,-1,2,-1,-1,1,0
1558433546256765,0,-2,2,3,0,-9,-7,3
1558433546256765,-1,2,6,3,-8,-4,-4,-2
1558433546263967,-2,-3,-9,-8,0,-1,1,1
1558433546263967,1,0,3,3,5,8,5,-1
1558433546278700,-5,-1,3,-2,0,1,-1,-4
1558433546278700,-2,-5,-11,2,2,4,3,2
1558433546285682,-2,-1,-1,-12,-7,-7,-6,-3
1558433546285682,0,1,5,-2,-1,-2,-2,1
1558433546301640,-2,-4,-11,-4,-6,-1,-2,-2
1558433546301640,-1,0,-3,2,-3,-8,-5,0
1558433546309618,2,2,10,8,5,4,2,0
1558433546309618,-3,-4,-11,-8,-1,2,-2,-2
1558433546315639,1,1,6,6,8,6,1,-1
1558433546315639,-2,-3,-7,-5,-1,1,4,1
1558433546323586,1,0,5,3,-1,-6,-3,0
1558433546323586,0,-1,-10,-3,-2,-1,-4,-2
1558433546338574,0,0,-3,1,-3,-2,2,2
1558433546338574,0,1,7,4,1,0,-2,-3
1558433546346809,0,-1,-5,1,-7,-6,0,-3
1558433546346809,-2,-3,-1,-5,0,-1,-4,1
1558433546361858,1,4,5,4,7,4,5,1
1558433546361858,-1,-2,-4,-3,2,0,2,0
1558433546362481,-1,0,7,2,-2,0,-2,0
1558433546362481,-1,-2,-1,2,-9,-9,-4,-2
1558433546377436,-1,-5,-9,-11,-8,-4,-4,1
1558433546377436,2,2,-2,-5,-3,2,1,-2
1558433546384419,-4,-2,-3,-2,-4,-5,-3,-6
1558433546384419,-1,-2,0,4,2,6,2,0
1558433546398831,-2,1,2,-3,-5,-4,-1,-1
1558433546398831,-2,-5,-5,4,11,11,3,0
1558433546406727,2,2,4,5,7,-2,3,4
1558433546406727,-1,-1,-1,-6,-6,-3,-3,-4
1558433546422513,-3,-4,-2,-2,-7,-4,-2,-4
1558433546422513,0,-1,-6,4,0,-2,-3,-3
1558433546422513,-5,-2,2,-23,-8,-1,-6,-4
1558433546422513,-3,-8,-22,-3,5,5,3,0
1558433546437451,3,0,-3,-4,1,-4,1,1
1558433546437451,0,-1,4,3,4,3,0,0
1558433546443265,0,-1,5,10,7,6,2,2
1558433546443265,-1,2,10,4,-2,-3,-3,-3
1558433546458434,-1,-1,-2,-1,-7,-3,-4,-3
1558433546458434,-2,-2,-2,0,5,4,2,-1
1558433546466402,1,-1,-4,-1,-7,-4,-3,1
1558433546466402,0,-2,7,-2,-5,-3,-5,-5
1558433546482334,0,-7,-16,6,4,5,10,3
1558433546482334,-1,-1,6,-15,-3,-8,-6,-3
1558433546482334,0,-2,-7,3,2,-1,2,1
1558433546482334,1,1,7,-3,-3,-4,-2,-2
1558433546497284,-3,-1,-1,-5,-12,-7,-6,-4
1558433546497284,-1,-2,-4,-5,0,4,3,0
1558433546512076,-2,-2,-1,0,-1,0,0,-2
1558433546512076,0,2,5,6,4,1,3,2
1558433546518091,-1,-1,0,2,-4,-9,-6,-3
1558433546518091,1,-1,-2,2,-1,4,2,0
1558433546534185,-2,-5,-9,-4,-1,-1,-2,-1
1558433546534185,0,1,4,-1,1,2,2,-1
1558433546541996,-1,-3,-5,-4,-4,-1,-3,-1
1558433546541996,-1,-1,7,4,-8,-7,-3,-3
1558433546541996,-5,-5,-13,-10,6,4,-1,-2
1558433546541996,0,-2,-1,4,6,6,4,1
1558433546557480,0,1,12,0,-1,1,-2,-2
1558433546557480,2,5,-7,4,-4,-8,-1,3
1558433546563469,-3,-5,-3,-9,5,4,2,-1
1558433546563469,-2,0,-3,-8,-4,-1,-4,2
1558433546579473,-2,-1,-4,-4,-1,4,-4,-4
1558433546579473,-1,2,3,2,-3,-5,-1,-2
1558433546586772,-2,0,1,3,-9,-6,-3,-2
1558433546586772,-1,-1,3,7,-1,-5,-3,-1
1558433546602158,1,2,1,1,4,4,9,6
1558433546602158,-2,-5,-15,-12,7,4,0,-1
1558433546602793,1,2,7,8,6,6,5,-3
1558433546602793,-1,-3,-8,-11,-10,-7,-5,-1
1558433546617752,-2,0,0,-2,-5,-7,-7,-5
1558433546617752,-1,0,2,1,0,-2,3,1
1558433546624047,-1,-2,-2,13,5,5,3,1
1558433546624047,0,1,1,-7,0,-2,-1,-2
1558433546638987,0,-1,-1,-5,-4,-4,-1,0
1558433546638987,-3,-2,-5,-3,-4,-2,-8,-3
1558433546646815,1,1,4,4,-1,2,-2,-2
1558433546646815,2,3,0,9,3,-4,1,0
1558433546661885,-1,-3,-5,-8,-5,-4,-2,-1
1558433546661885,0,0,2,0,0,-3,-1,-2
1558433546662637,2,2,9,4,-4,-5,-3,-1
1558433546662637,0,-2,-11,3,7,10,5,5
1558433546677591,-4,-1,-5,-17,2,1,-4,-4
1558433546677591,-3,-3,2,0,-5,-2,-3,-1
1558433546683829,1,2,12,1,-2,0,1,2
1558433546683829,-2,-5,-14,0,-9,-8,-1,-2
1558433546698787,-1,-3,-3,8,1,0,-1,-1
1558433546698787,0,-3,2,-1,-2,-2,-3,-1
1558433546706520,1,2,-10,-6,-1,-1,4,0
1558433546706520,-1,0,8,4,7,3,-3,-1
1558433546721477,0,2,4,12,9,2,1,1
1558433546721477,-2,-1,-6,-5,-11,-5,-4,-2
1558433546722472,-2,-1,-7,-11,-7,1,0,-1
1558433546722472,-3,-2,7,3,-1,0,-1,-5
1558433546737433,1,2,-4,-3,1,-4,-1,-1
1558433546737433,-1,-1,6,5,1,-2,3,2
1558433546743416,0,0,-6,1,7,3,-5,-1
1558433546743416,-2,-7,-12,-15,-11,-2,1,-1
1558433546758645,-2,-2,2,4,4,3,1,4
1558433546758645,-2,0,6,4,-5,-4,-5,-8
1558433546766634,1,0,-7,-7,-4,-6,2,1
1558433546766634,-1,1,5,9,0,-5,-3,-3
1558433546782446,-2,-4,-7,-14,-11,-9,-3,-1
1558433546782446,1,0,-5,-3,1,0,2,3
1558433546782446,-2,0,4,5,0,1,-2,-1
1558433546782446,-1,-1,-1,3,0,0,-3,-1
1558433546797380,0,-1,0,-5,2,4,2,-2
1558433546797380,1,-1,-1,1,1,1,-2,1
1558433546803508,-4,-2,-1,-7,-9,-1,-3,-8
1558433546803508,0,2,2,7,4,1,4,1
1558433546819217,2,0,-3,-3,-14,-12,-4,-4
1558433546819217,-2,-2,-4,0,5,3,-2,-1
1558433546826195,0,-1,1,3,3,-7,1,1
1558433546826195,-2,3,9,3,-1,0,-2,-2
1558433546841181,-4,-4,-6,-1,-3,2,-2,-6
1558433546841181,-1,-1,6,2,-6,0,1,-3
1558433546848136,-1,-4,-18,-6,-4,-2,-2,0
1558433546848136,-1,-1,2,-3,-3,-6,-2,-3
1558433546857111,1,1,6,4,2,4,2,-1
1558433546857111,-2,-2,-2,1,0,-2,-5,-1
1558433546863128,-3,-1,5,-5,1,1,-4,-1
1558433546863128,-1,-3,-9,-3,-1,-3,1,0
1558433546879384,-3,-2,1,3,0,2,-2,-2
1558433546879384,1,1,0,0,3,3,2,0
1558433546886463,0,-2,1,6,4,7,4,3
1558433546886463,1,-1,-3,-7,-6,-11,-3,0
1558433546901421,0,0,4,1,-4,-3,-1,1
1558433546901421,-2,-3,-1,1,2,-4,-2,-1
1558433546908974,-2,-3,-5,-3,-3,-2,-5,-4
1558433546908974,-3,-3,-5,-5,-2,1,-1,-2
1558433546917349,1,0,3,6,4,3,2,1
1558433546917349,0,2,-1,-2,-3,-2,-1,-1
1558433546922947,-3,-5,-14,-20,-12,-9,-2,-3
1558433546922947,0,0,-3,-3,-1,3,-1,-1
1558433546939315,-1,-3,-2,2,8,9,3,0
1558433546939315,-1,1,3,-1,-2,-7,-3,-1
1558433546946318,-1,1,6,10,-3,-7,0,-1
1558433546946318,-1,-2,-1,-4,3,7,1,2
1558433546960833,-2,1,3,0,1,-5,-5,-5
1558433546960833,-4,-6,-19,-17,-14,-2,-3,-1
1558433546969143,0,-1,5,1,0,2,-2,0
1558433546969143,-1,-1,1,-12,-10,-7,-5,-2
1558433546977817,4,5,12,12,7,0,6,7
1558433546977817,-5,-7,-13,-5,-2,3,2,-1
1558433546984068,-2,-4,-4,-5,0,-10,-4,-3
1558433546984068,-1,1,4,3,-3,-3,-5,-4
1558433546998734,-3,-3,-4,-6,0,4,2,1
1558433546998734,1,0,-4,1,4,-1,-1,2
1558433547005712,-1,1,4,10,1,4,2,0
1558433547005712,-2,-3,-4,2,-3,2,-3,-3
1558433547020712,-3,-2,-7,-12,-11,-16,-10,-4
1558433547020712,1,-1,3,4,4,7,4,1
1558433547028690,5,3,5,7,9,9,4,3
1558433547028690,-2,0,0,3,-4,-11,-2,2
1558433547044610,-2,-2,-2,-3,-4,0,-3,-3
1558433547044610,0,-1,-1,-6,-1,0,1,-4
1558433547044610,-2,-2,-4,1,0,3,-3,1
1558433547044610,-1,1,7,3,-2,0,1,-3
1558433547058571,-1,-2,-7,0,-2,-8,-2,1
1558433547058571,0,-2,5,-4,-5,-2,-4,-1
1558433547065552,0,0,6,7,-1,-2,0,-1
1558433547065552,0,-2,-8,-4,2,-2,3,3
1558433547080571,-2,-3,2,-1,1,3,-3,-4
1558433547080571,1,0,1,4,4,2,4,2
1558433547088493,-1,-2,-2,-8,-9,-5,-6,-3
1558433547088493,0,0,-3,0,4,1,3,-1
1558433547104493,-2,-2,-1,6,5,1,-4,-2
1558433547104493,-2,-2,-9,-8,-4,-1,-2,-2
1558433547104493,-2,-2,0,-3,-4,-6,-4,-2
1558433547104493,-1,-3,-7,-1,-4,2,-3,-3
1558433547118412,-1,-4,-5,-2,0,5,4,0
1558433547118412,0,2,13,10,2,2,-1,0
1558433547126391,-5,-3,-23,-24,-11,-5,-1,-2
1558433547126391,0,-1,5,5,7,4,0,-3
1558433547141350,2,-1,-8,-10,-1,-1,4,3
1558433547141350,-5,-6,-8,-1,0,-7,-7,0
1558433547148335,0,1,9,9,3,2,2,-3
1558433547148335,1,1,3,-4,0,0,-1,2
1558433547164327,-2,-4,-2,-3,0,4,-1,-3
1558433547164327,1,0,5,0,-3,-5,-3,-2
1558433547165288,-2,-2,-1,-2,1,-3,-4,-1
1558433547165288,-2,-2,-4,0,4,7,3,-1
1558433547178252,-1,-1,4,6,-2,-7,-5,-2
1558433547178252,-2,2,3,1,0,0,3,0
1558433547186266,-1,-2,-7,0,-6,-6,-3,-2
1558433547186266,-1,-3,-1,-6,-5,-3,0,-2
1558433547201191,0,0,0,2,4,2,3,0
1558433547201191,1,2,3,4,7,8,1,0
1558433547208173,-1,-1,9,7,2,-5,0,-2
1558433547208173,0,-1,-7,-1,0,2,-2,-1
1558433547224130,-1,-1,-4,-5,-4,-4,-1,-1
1558433547224130,-4,0,-8,-5,-3,-3,0,-1
1558433547225127,1,1,7,10,0,1,-1,0
1558433547225127,-2,-4,-8,-17,-7,-3,-2,-1
1558433547238129,0,1,8,1,1,1,0,0
1558433547238129,-1,-5,-8,-5,0,0,0,-5
1558433547246104,-1,-3,3,6,11,5,3,5
1558433547246104,-2,0,5,-3,-4,-7,-3,-4
1558433547261064,-5,-3,-6,-3,-9,-7,-6,-4
1558433547261064,-2,-2,1,0,0,4,1,-1
1558433547268011,0,2,0,-1,-2,2,-2,-2
1558433547268011,-1,-1,-2,5,3,-2,-1,1
1558433547291949,-1,0,8,8,3,3,3,1
1558433547291949,2,0,-7,-11,1,-3,1,1
1558433547292945,-1,-1,5,-3,-7,-1,-4,-1
1558433547292945,-3,-4,-10,-2,-5,0,0,0
1558433547298928,0,-2,1,-3,-2,-2,-4,-4
1558433547298928,1,2,8,9,1,-1,1,2
1558433547305909,0,1,0,-2,-1,-2,0,-1
1558433547305909,-4,-6,-11,-7,-3,0,-2,-4
1558433547320906,-3,-4,-10,-4,-6,-6,-4,-2
1558433547320906,0,0,0,-11,-2,-4,-1,0
1558433547328849,2,1,4,8,9,3,4,3
1558433547328849,0,1,5,3,-4,-4,-4,-3
1558433547343809,-2,-1,-5,-5,-8,3,-1,-3
1558433547343809,-1,-1,-3,1,2,1,0,2
1558433547344806,-2,-2,-15,-4,3,-1,2,-3
1558433547344806,1,4,14,12,4,3,1,0
1558433547358803,1,-2,-7,-4,-1,1,0,1
1558433547358803,-3,-4,3,0,-8,-9,-5,-3
1558433547365784,0,1,-4,1,3,2,1,1
1558433547365784,0,-2,3,0,-8,0,-2,-1
1558433547380745,1,2,1,2,7,-1,1,0
1558433547380745,2,2,-5,-5,1,6,3,0
1558433547388727,-2,-3,-3,-6,-9,-10,-7,-5
1558433547388727,0,-1,-3,-7,-1,-2,0,2
1558433547404647,-1,3,4,4,5,3,2,0
1558433547404647,-3,-5,-3,3,-4,-3,-8,-3
1558433547404647,-2,-1,3,-3,-4,2,1,-1
1558433547404647,1,1,-2,4,3,-6,4,2
1558433547418609,-1,-3,-13,-5,-7,-5,0,0
1558433547418609,-1,-2,0,4,5,0,1,-1
1558433547425590,-2,-5,-3,-7,-4,-6,-6,-1
1558433547425590,-1,0,5,2,-1,1,-3,-2
1558433547440550,-2,-2,5,7,5,2,1,0
1558433547440550,-1,0,-5,-9,-9,-10,-5,1
1558433547448529,2,4,11,10,4,4,4,-1
1558433547448529,-2,-7,-17,-3,4,3,-1,-1
1558433547464512,0,-1,2,-6,-2,-1,-3,-1
1558433547464512,-1,-2,2,2,-8,-4,-2,-3
1558433547464512,-1,-3,-2,-2,1,-3,-1,-2
1558433547464512,2,5,17,12,13,7,7,5
1558433547478448,-3,-4,-13,-7,-7,2,-2,-3
1558433547478448,-3,1,-3,2,3,1,-4,-1
1558433547486426,-2,2,9,5,-1,-5,-3,-1
1558433547486426,-2,-5,-10,-6,-5,-4,-4,-3
1558433547501397,-3,-1,2,2,-2,-5,1,-1
1558433547501397,1,0,1,-4,2,5,2,0
1558433547508368,-2,-3,-10,-5,3,1,-1,-2
1558433547508368,0,1,5,-1,-6,-5,-6,-3
1558433547523329,1,2,3,3,4,-1,1,0
1558433547523329,-2,-4,-3,3,0,-1,-1,-2
1558433547531307,0,0,-3,-5,0,4,1,0
1558433547531307,-4,-2,-1,-4,-1,2,-1,-2
1558433547538287,-1,0,1,-9,-8,-5,-1,-3
1558433547538287,2,1,6,7,1,1,0,3
1558433547546266,-3,-3,-10,-2,6,6,0,0
1558433547546266,0,2,10,6,-6,-6,0,-2
1558433547561228,0,-3,-10,-2,2,1,-1,-3
1558433547561228,-2,0,2,-3,-3,-3,-1,-3
1558433547568209,-1,1,-3,-7,-1,0,2,-1
1558433547568209,-2,-3,-6,-3,-2,-3,-5,-1
1558433547584202,-1,-1,-1,1,0,-2,-1,-1
1558433547584202,1,-1,4,1,-6,-6,-1,-2
1558433547585198,2,4,10,6,-4,-9,-3,0
1558433547585198,-1,-1,-23,-28,-2,1,5,2
1558433547598162,-4,-7,-4,-11,-2,1,-4,-4
1558433547598162,0,0,4,3,7,5,3,-2
1558433547606107,-1,-1,1,1,-7,-15,-2,-1
1558433547606107,2,3,9,6,2,5,1,0
1558433547621066,-1,-3,-3,0,-6,-5,-3,-1
1558433547621066,-2,-3,-4,-6,-3,-1,-6,-2
1558433547628082,-2,-2,2,-3,-9,-4,-3,-2
1558433547628082,0,-2,-3,7,10,2,2,0
1558433547644081,1,2,0,-1,4,3,2,3
1558433547644081,-3,-4,-2,0,-6,-3,-2,-2
1558433547645003,1,-3,-5,1,4,7,2,3
1558433547645003,-2,0,-1,-2,-7,0,-1,-3
1558433547657967,-2,0,5,2,0,-5,0,-5
1558433547657967,0,0,-2,7,3,-4,0,1
1558433547665947,-3,-6,-12,-13,-7,2,-2,-3
1558433547665947,2,4,19,12,1,-3,-2,1
1558433547680943,1,3,0,3,2,2,0,1
1558433547680943,-1,-3,-16,-7,-1,1,1,-2
1558433547688912,-3,-5,-10,-17,-6,-3,-2,-2
1558433547688912,1,0,2,-1,1,-2,-2,-1
1558433547703887,2,1,13,3,0,1,-3,-2
1558433547703887,-1,-1,-6,0,-3,5,0,-1
1558433547704844,0,0,4,7,-1,-6,-2,-2
1558433547704844,-3,-3,-11,-6,-1,0,1,1
1558433547718805,1,2,5,5,4,0,2,2
1558433547718805,-2,-3,0,-4,-1,-2,-3,-2
1558433547725786,-3,-4,-7,0,-3,1,-3,-3
1558433547725786,-3,-2,-2,-10,-5,-7,-4,-4
1558433547740774,0,1,-1,7,8,13,6,2
1558433547740774,0,0,0,-7,-1,-8,-4,0
1558433547748726,-2,-1,0,7,3,3,-2,-1
1558433547748726,-2,-3,-1,7,-1,-1,-1,-1
1558433547763686,-3,-4,-12,-19,-12,-4,-6,-2
1558433547763686,-1,1,8,2,3,1,4,0
1558433547771663,2,4,-3,-2,1,-5,-3,6
1558433547771663,-1,0,5,8,3,4,-5,-6
1558433547778646,-4,-6,-6,-3,-7,-4,-3,-1
1558433547778646,0,2,5,0,-1,2,1,-2
1558433547785661,-3,-6,-16,-10,-7,-4,1,-3
1558433547785661,-2,-1,-2,3,-1,2,3,0
1558433547800622,0,-1,-6,-4,-1,-4,-2,-1
1558433547800622,1,3,11,-10,-10,-5,-3,-1
1558433547808604,-6,-8,-13,4,8,10,1,-2
1558433547808604,3,0,2,-3,2,-9,-1,2
1558433547823526,-3,1,6,5,-1,2,1,-2
1558433547823526,-1,-4,-4,2,-4,-10,-3,-2
1558433547831565,3,5,9,8,5,8,5,0
1558433547831565,-2,-4,-7,-9,-9,-2,-3,-5
1558433547838547,-1,-2,1,2,-3,-4,-4,1
1558433547838547,0,0,-2,-1,-1,0,-5,-1
1558433547845468,-2,-3,-3,-4,1,-4,-3,-2
1558433547845468,2,3,8,7,8,3,5,3
1558433547861427,-2,-4,-8,-5,-8,-6,-4,-3
1558433547861427,-2,-4,-10,-4,-12,-4,-3,-5
1558433547868448,-1,0,3,-12,0,0,-7,1
1558433547868448,-1,-3,-3,0,5,7,1,-2
1558433547883365,0,3,2,8,4,0,2,1
1558433547883365,-1,1,-3,-1,6,8,6,0
1558433547891374,0,-2,2,0,-8,-5,-2,-3
1558433547891374,-1,-2,-3,-6,-3,-5,-5,0
1558433547906343,1,3,6,-4,-3,-7,-4,1
1558433547906343,-2,-4,-3,7,6,4,3,1
1558433547907302,-1,1,2,-2,-2,2,0,1
1558433547907302,1,4,11,7,-3,-7,-4,-1
1558433547921264,-1,-3,-1,3,-2,-1,-4,-1
1558433547921264,-3,-4,-13,1,2,-4,0,1
1558433547928246,0,-1,5,0,4,4,2,-1
1558433547928246,-1,-2,-5,-1,1,1,1,-1
1558433547943208,0,0,6,-1,-5,-10,-3,-4
1558433547943208,-3,-3,-3,-3,-5,-3,-4,-1
1558433547951183,0,3,5,6,5,9,4,-1
1558433547951183,-4,-5,-8,-5,-17,-9,-5,-3
1558433547966175,3,-1,0,-1,11,6,7,3
1558433547966175,-4,-2,-2,-5,-2,-1,-5,-2
1558433547967143,0,-1,2,4,-2,-7,-4,-5
1558433547967143,-1,0,-6,-9,-6,-2,4,3
1558433547981104,-2,-2,-1,2,9,8,5,-2
1558433547981104,0,0,1,0,-2,2,2,2
1558433547988084,2,0,3,5,7,1,1,3
1558433547988084,-2,-2,-1,-2,-5,-2,-4,-4
1558433548003044,-1,-3,-7,-5,-8,-9,-6,-3
1558433548003044,1,2,11,1,2,-1,-2,-1
1558433548012020,-1,-2,-9,15,2,3,4,0
1558433548012020,-1,-2,-1,1,10,8,2,2
1558433548026983,-3,-7,-23,-25,-11,-4,-4,-2
1558433548026983,-1,-3,7,2,2,1,-1,-3
1558433548026983,-1,3,4,-7,-8,-6,-2,-2
1558433548026983,-3,-1,10,16,2,-5,-2,0
1558433548041006,1,1,-5,1,-4,-1,5,3
1558433548041006,0,1,-1,0,4,2,2,0
1558433548048923,-4,-5,-6,-6,-4,-1,-6,-6
1558433548048923,0,-1,-5,-9,-6,-4,-2,-1
1558433548063884,-1,2,7,2,-1,1,0,-2
1558433548063884,0,2,0,2,5,2,6,3
1558433548071860,-1,-2,1,-1,-3,0,0,0
1558433548071860,-2,-4,-1,-9,-6,0,-7,-5
1558433548086820,-3,-4,-6,1,-1,3,0,-3
1558433548086820,0,0,-1,4,2,-6,-2,0
1558433548086820,-1,0,-3,-15,-5,-1,-1,-3
1558433548086820,-1,-1,-4,-6,-2,-1,-1,-2
1558433548100785,1,2,7,5,3,2,0,2
1558433548100785,1,1,4,3,3,-1,-4,-1
1558433548108761,-2,-5,-14,-3,-5,-7,-2,0
1558433548108761,-1,-2,-4,-6,-3,-3,-3,-3
1558433548123723,-2,0,4,6,1,-1,-2,0
1558433548123723,-2,1,7,3,-6,-4,-4,-3
1558433548131702,-1,1,-3,5,1,4,-1,-2
1558433548131702,2,-3,-15,-10,0,-4,3,3
1558433548146661,-2,-3,4,5,-2,-11,-7,-2
1558433548146661,0,-4,-2,-4,1,2,0,-2
1558433548147660,2,2,9,7,-1,-4,-3,1
1558433548147660,-1,0,1,-1,0,4,3,-4
1558433548160641,-1,1,1,-3,3,2,-5,1
1558433548160641,-2,-4,-7,-7,-7,-5,-3,-3
1558433548168604,1,1,1,-4,-3,-4,-1,1
1558433548168604,1,-1,0,3,6,3,3,3
1558433548183563,-3,-2,2,3,3,2,0,-2
1558433548183563,-1,-2,-10,-5,-2,1,-2,-2
1558433548191540,-1,-2,0,-1,4,-7,0,-2
1558433548191540,0,0,0,1,1,4,2,2
1558433548206500,-4,-2,-3,2,0,-3,-4,-4
1558433548206500,-1,3,-4,-14,-6,-2,-1,0
1558433548207500,-2,-3,3,4,1,0,2,1
1558433548207500,-2,2,17,14,2,-4,-4,0
1558433548220463,-2,-5,-28,-17,-6,-5,-2,-1
1558433548220463,-6,-8,-22,-11,-5,0,-4,-5
1558433548228445,-1,2,8,-3,-6,-3,-2,0
1558433548228445,-1,0,7,12,1,-5,-1,-1
1558433548243403,-1,-2,-4,-16,0,8,4,1
1558433548243403,0,0,5,4,-1,-1,-1,-1
1558433548251380,2,0,-3,-6,-4,-4,2,0
1558433548251380,-3,-4,-4,-1,2,1,-4,-3
1558433548274320,2,4,8,2,-8,-7,-2,0
1558433548274320,-1,-2,-10,-4,5,-2,3,-1
1558433548275317,-3,0,6,2,1,4,-6,0
1558433548275317,0,0,-5,-5,2,-2,-3,-4
1558433548281300,-1,-3,-1,2,-4,-3,-1,-1
1558433548281300,-1,-1,4,1,0,2,3,1
1558433548288282,1,0,4,8,2,-3,2,0
1558433548288282,-4,-5,-8,-9,-6,-1,-3,-2
1558433548311221,0,0,6,1,-6,-6,-3,-3
1558433548311221,-1,-1,2,10,8,3,-1,0
1558433548312219,0,-3,-8,-10,-9,0,0,0
1558433548312219,-3,0,1,5,3,1,-2,-1
1558433548326183,1,0,10,8,7,3,4,1
1558433548326183,-2,-4,-12,-11,-10,-7,-4,-2
1558433548327179,1,0,6,5,4,3,1,-1
1558433548327179,0,-1,-8,-10,-12,-7,-4,-4
1558433548341142,-3,-1,1,1,1,-2,-5,-3
1558433548341142,2,4,9,11,10,3,5,6
1558433548348123,-2,-2,-17,-20,2,9,6,1
1558433548348123,-2,-2,-3,-3,-2,-3,-4,-2
1558433548363082,0,0,10,3,0,1,0,-1
1558433548363082,-1,-6,-9,-7,-10,-6,-5,-3
1558433548371065,-1,1,-1,2,-2,-6,-3,-3
1558433548371065,0,2,3,-4,-1,0,0,-1
1558433548387017,-3,-3,-8,5,0,5,2,1
1558433548387017,-3,-4,-2,-14,-8,-7,-2,-2
1558433548387017,-1,1,8,5,7,5,-5,-5
1558433548387017,-2,-4,-13,-7,-2,-1,1,-3
1558433548400997,-3,-2,8,6,2,2,1,0
1558433548400997,0,1,4,-3,-2,3,0,-3
1558433548408960,0,-2,-1,1,-4,-5,0,0
1558433548408960,-1,-2,1,-2,-5,-4,1,1
1558433548422922,-1,-2,-8,-6,5,-2,0,-3
1558433548422922,-1,0,0,-3,-4,-3,-1,0
1558433548430927,0,3,20,8,5,3,-3,-3
1558433548430927,-5,-8,-21,-8,0,5,-3,-2
1558433548446860,-2,-4,-7,-7,-11,-4,0,0
1558433548446860,-1,4,7,5,10,6,2,0
1558433548446860,-4,-3,1,-1,-2,-3,-4,-4
1558433548446860,2,3,11,9,-4,-3,2,1
1558433548460821,2,4,7,3,3,0,-10,-3
1558433548460821,-2,-5,-14,-1,0,0,3,-1
1558433548468800,0,-3,-8,-16,-7,-5,1,2
1558433548468800,1,1,6,6,14,8,9,1
1558433548483760,-1,-1,0,-5,-11,-9,-9,-2
1558433548483760,3,4,12,17,10,-1,-5,-2
1558433548490742,-3,-4,-8,-8,-3,5,2,0
1558433548490742,-1,-2,0,-3,-1,-1,-1,0
1558433548506700,1,0,-4,-2,1,-5,1,-1
1558433548506700,2,1,3,5,1,3,-3,2
1558433548507701,-2,0,6,5,-6,-8,1,-1
1558433548507701,-4,-2,-8,-3,6,0,-4,0
1558433548520667,-1,-5,-19,-5,1,-1,2,-1
1558433548520667,-8,-11,-23,-11,-12,-2,-4,-6
1558433548528640,0,-1,-6,-2,7,-6,-1,1
1558433548528640,3,4,12,4,-7,-3,1,4
1558433548543599,3,5,22,9,-1,4,4,1
1558433548543599,-2,-5,-26,-19,-5,-5,-4,-3
1558433548550581,-3,-5,-8,3,5,3,1,-2
1558433548550581,2,5,6,-3,-3,-5,-2,1
1558433548566538,-1,-1,-7,3,5,7,2,0
1558433548566538,0,4,17,6,6,5,3,1
1558433548567537,-1,-4,-14,-5,-11,-7,-9,-2
1558433548567537,-2,-3,-1,3,-3,-1,7,0
1558433548580501,-2,-2,-4,-8,-7,-4,-5,-5
1558433548580501,5,8,23,2,1,5,2,1
1558433548588480,-2,-7,-12,10,-3,-3,-2,-1
1558433548588480,1,-1,9,10,2,5,1,-1
1558433548603442,-7,-10,-32,-15,1,-2,-8,-4
1558433548603442,1,4,12,3,-7,-9,2,4
1558433548611418,-1,0,-2,-5,-17,-7,-1,-2
1558433548611418,3,3,15,6,7,12,0,7
1558433548626379,-2,1,1,7,-2,-5,5,-1
1558433548626379,-4,-6,-10,-15,1,-2,-10,-2
1558433548627376,2,5,6,16,17,14,3,1
1558433548627376,-3,-3,-5,-7,-7,-12,-6,-8
1558433548641388,6,11,25,-7,3,3,-2,4
1558433548641388,-9,-17,-28,-13,3,-10,-5,-5
1558433548648402,0,2,-6,-20,-4,-3,2,1
1558433548648402,-4,-3,19,10,-7,-14,-2,-3
1558433548663281,2,-2,-21,-27,3,4,-4,-2
1558433548663281,-7,-10,-17,3,-10,-16,-1,-3
1558433548671260,-4,-5,-6,-15,-16,-2,-8,-2
1558433548671260,5,6,0,6,17,12,1,0
1558433548686221,0,7,34,47,29,0,6,1
1558433548686221,0,3,2,-31,-15,-2,0,-2
1558433548694197,-3,-6,2,8,10,-2,-5,-3
1558433548694197,-6,-3,-24,-36,-19,-4,-4,-4
1558433548701260,-2,-4,-1,21,-1,-5,-2,-3
1558433548701260,7,9,32,22,6,-3,0,0
1558433548708193,-1,-4,-26,4,2,15,12,-4
1558433548708193,-2,0,-1,-7,1,-3,-2,0
1558433548723121,-1,-1,-7,-8,3,9,-1,-1
1558433548723121,-2,-3,-3,-6,-1,-4,-3,-3
1558433548731100,8,16,43,23,0,9,1,1
1558433548731100,-1,-2,-2,11,19,11,8,-1
1558433548746059,-9,-9,-9,-30,-28,-11,-1,-7
1558433548746059,-3,-3,-8,4,-3,3,2,1
1558433548754043,-6,-4,-1,9,10,-12,-2,-2
1558433548754043,0,1,-8,-8,-9,-2,2,2
1558433548761018,4,13,38,20,8,-4,-5,2
1558433548761018,-9,-15,-34,-17,-1,-1,1,-5
1558433548768001,-1,-4,0,-8,22,-9,-1,-2
1558433548768001,1,-2,-8,-5,-28,-21,-7,-3
1558433548782960,1,-1,3,4,-8,20,-2,0
1558433548782960,3,7,18,25,30,5,11,6
1558433548790966,-2,-6,-10,-7,7,21,1,2
1558433548790966,-3,-1,4,-3,-25,-19,-8,-4
1558433548805905,2,-2,-17,-25,-21,-15,-12,-1
1558433548805905,1,2,2,6,14,11,2,0
1558433548813879,5,6,11,12,10,-13,-2,2
1558433548813879,1,2,28,16,26,15,0,3
1558433548820862,-3,-8,-21,-20,-21,3,4,2
1558433548820862,-6,-12,-34,-20,-24,-7,-5,-1
1558433548828839,2,2,-10,-33,-32,-28,-21,0
1558433548828839,2,2,4,15,6,17,32,10
1558433548843798,2,3,16,19,26,0,-3,-1
1558433548843798,6,10,14,23,21,17,-2,0
1558433548850778,0,-1,4,8,-17,-5,-7,-1
1558433548850778,3,1,-17,-8,12,6,10,2
1558433548865737,-4,-3,-18,-25,1,6,4,1
1558433548865737,5,8,22,13,-3,9,1,6
1558433548873716,0,3,24,6,-22,-14,-26,-3
1558433548873716,-5,-14,-46,-24,-1,-2,14,-1
1558433548888682,3,5,23,27,6,-6,12,3
1558433548888682,2,3,4,-2,-14,-4,-5,-8
1558433548889674,-7,-10,-12,-6,15,10,6,-1
1558433548889674,-2,-4,-6,-4,-5,3,-20,-5
1558433548903642,-1,-4,-11,-9,-9,-14,3,3
1558433548903642,-6,-6,1,-5,-39,-8,-1,-1
1558433548910619,5,7,5,21,13,17,14,4
1558433548910619,-6,-4,1,-18,31,0,-3,-7
1558433548926581,-14,-26,-46,-27,-13,-12,-11,-9
1558433548926581,2,5,15,15,-19,-15,-3,1
1558433548934553,0,1,9,19,25,20,23,3
1558433548934553,0,-3,-7,-10,-7,3,-1,2
1558433548949514,2,5,14,12,7,-4,-13,0
1558433548949514,-2,-3,-5,-18,-6,5,0,2
1558433548949514,5,4,8,13,15,20,5,3
1558433548949514,4,3,11,25,21,2,-1,-1
1558433548963488,-1,-4,-18,-20,3,5,-1,-3
1558433548963488,4,7,5,-14,-2,-9,-18,0
1558433548970462,-10,-8,-16,-5,-20,5,10,-7
1558433548970462,-4,-5,-5,9,7,5,-5,-4
1558433548985419,0,3,14,13,-11,-9,1,-2
1558433548985419,-2,0,5,11,6,3,-10,-6
1558433548994393,-4,-7,-28,-34,0,-2,1,4
1558433548994393,0,4,7,-2,-25,-25,-24,-10
1558433549009355,2,-1,-1,12,7,32,27,5
1558433549009355,-3,-3,3,22,25,-1,6,0
1558433549009355,-1,-2,0,-20,-37,-25,-18,-2
1558433549009355,1,1,-8,-44,-30,-10,5,2
1558433549023317,1,1,-1,-10,-14,5,13,4
1558433549023317,2,4,-4,-9,-1,-4,-1,0
1558433549031295,1,-4,-6,3,-3,4,-7,1
1558433549031295,2,6,18,19,-21,-5,-2,2
1558433549046255,-3,1,-5,-3,9,-6,5,-4
1558433549046255,-6,-10,-13,7,24,12,11,0
1558433549054233,-5,-1,5,11,-1,-13,-2,-8
1558433549054233,-2,-7,-26,-42,-17,0,-8,-2
1558433549069193,1,5,15,8,14,6,-8,1
1558433549069193,3,1,0,-4,-49,-13,2,3
1558433549070193,-6,-4,0,-22,5,-1,0,-11
1558433549070193,-4,-8,-2,27,17,1,-5,0
1558433549083156,0,3,8,8,-1,-12,-2,-1
1558433549083156,2,1,3,-9,17,8,1,5
1558433549091138,1,1,4,10,-24,6,6,3
1558433549091138,1,4,3,3,9,-1,-7,-1
1558433549106106,-2,-4,-6,-16,-12,-2,7,1
1558433549106106,-4,-5,1,11,-10,-18,-15,-2
1558433549114073,2,3,-6,-7,28,20,7,1
1558433549114073,-1,1,13,27,14,2,3,0
1558433549129034,-1,-8,-18,4,25,18,-2,2
1558433549129034,-4,-3,0,-16,-12,-4,7,-4
1558433549130038,-1,-5,-7,13,21,-15,-11,-5
1558433549130038,3,2,-1,-20,-36,-2,3,-3
1558433549143001,2,2,1,12,11,-7,-16,-1
1558433549143001,-9,-10,-17,-9,-17,6,0,-12
1558433549150976,3,3,16,12,8,-1,6,3
1558433549150976,1,1,9,19,46,14,7,6
1558433549165935,-5,-4,-5,-9,-20,-10,-3,-4
1558433549165935,1,2,5,10,11,1,-9,-8
1558433549173915,-1,2,3,2,-4,-8,-11,-4
1558433549173915,-3,-2,6,-3,19,2,-2,-2
1558433549188874,2,3,-12,-8,-21,2,17,6
1558433549188874,-5,-13,-19,-7,32,16,2,-4
1558433549189871,-6,-7,-6,-11,-18,-13,-13,-5
1558433549189871,-5,-7,-1,9,7,-7,1,-4
1558433549203833,-5,-6,-8,-16,-22,-3,-9,-6
1558433549203833,6,8,8,-2,-4,-12,-6,7
1558433549210814,7,7,6,-14,-5,1,23,12
1558433549210814,-4,-4,-12,-9,-14,2,-3,-3
1558433549225776,-11,-9,-11,-11,-7,-16,-28,-15
1558433549225776,1,1,10,20,-1,7,18,1
1558433549233768,-1,-2,-14,-16,4,12,3,1
1558433549233768,-3,-1,-8,-27,-35,-11,-6,2
1558433549248714,3,7,28,23,2,-5,-1,2
1558433549248714,-10,-14,-37,-18,-12,-8,-10,-10
1558433549249711,-3,-2,3,-7,-17,-19,-11,-12
1558433549249711,4,2,-2,4,-13,-10,-4,4
1558433549263672,5,4,6,9,10,11,3,5
1558433549263672,0,8,27,39,22,-4,-5,-4
1558433549270654,-2,-6,-16,-19,7,23,11,7
1558433549270654,2,2,3,12,4,0,-5,-2
1558433549285616,-5,-3,-1,-4,18,1,0,-3
1558433549285616,2,3,3,-16,-30,-15,-7,-1
1558433549294590,0,-1,-5,-10,-14,-4,11,4
1558433549294590,-2,-2,8,0,-25,-10,-2,1
1558433549309555,-2,-8,-23,8,32,8,4,-3
1558433549309555,2,-1,3,-7,7,0,2,6
1558433549309555,-3,-1,-8,3,11,-2,-9,-2
1558433549309555,-5,-4,4,6,-2,5,-5,-6
1558433549323515,2,1,0,-1,7,-3,9,0
1558433549323515,0,0,-2,-15,-25,-6,3,1
1558433549330496,-3,-6,-5,-2,-21,-17,-11,-1
1558433549330496,4,4,7,21,28,20,27,5
1558433549346455,0,1,5,9,0,-5,-15,-6
1558433549346455,-4,-1,-3,-10,4,2,0,-1
1558433549354438,5,6,14,18,4,4,8,8
1558433549354438,-8,-6,-10,-7,1,-8,-19,-13
1558433549369392,-3,-3,5,12,-2,-7,9,1
1558433549369392,3,3,-9,-18,-2,21,15,4
1558433549369392,-4,-5,0,9,9,3,-5,-4
1558433549369392,-3,1,-1,-5,-1,-18,-29,-7
1558433549383354,1,-4,-6,-4,-38,-11,-2,-2
1558433549383354,-2,0,7,-7,15,10,10,1
1558433549391331,5,5,8,14,-1,4,-1,1
1558433549391331,5,5,4,4,33,20,-1,6
1558433549406295,-4,-3,-4,-15,-9,-5,-3,-1
1558433549406295,-4,-6,-4,1,-21,-24,-14,-2
1558433549414272,-5,-2,1,17,23,-5,0,-4
1558433549414272,-4,-2,-4,-25,-45,-2,1,-4
1558433549429250,4,3,6,-3,4,8,9,3
1558433549429250,1,2,2,19,15,4,0,3
1558433549430230,-5,-7,-17,-23,-4,-15,-12,-4
1558433549430230,-4,-5,-10,1,-15,-16,-13,-7
1558433549443198,1,2,9,-4,-12,-1,5,3
1558433549443198,-2,-3,-2,1,14,13,-3,-4
1558433549451174,1,0,4,4,-4,2,4,0
1558433549451174,-3,-8,-16,-19,3,-6,1,-2
1558433549466133,-1,2,3,-1,-4,7,1,1
1558433549466133,-4,-6,-8,4,-1,-1,1,-1
1558433549474122,-4,-1,11,13,-13,-16,-7,-4
1558433549474122,-2,-9,-30,-19,0,2,9,0
1558433549489072,2,2,2,0,8,4,-3,1
1558433549489072,-1,-1,4,5,-1,-2,-1,0
1558433549490070,-2,-1,2,-5,11,8,-6,-5
1558433549490070,0,2,8,4,-19,-5,-7,-1
1558433549503107,-4,-6,-6,-6,-5,-9,-8,-1
1558433549503107,-2,-2,-5,-1,12,3,-3,-7
1558433549511013,2,1,-2,6,-9,0,-4,-1
1558433549511013,1,3,15,16,12,8,12,3
1558433549525981,-1,-1,-7,-2,4,-6,-9,-3
1558433549525981,-4,-4,-3,-9,-14,-10,-8,-6
1558433549532957,-3,-3,-2,-6,-1,-2,-2,4
1558433549532957,-1,-1,1,17,14,3,6,-4
1558433549548913,-3,-1,3,2,-3,3,-6,-7
1558433549548913,-1,-1,0,-8,-21,-13,-12,-1
1558433549549907,3,0,0,4,4,8,8,2
1558433549549907,3,0,5,0,8,7,7,5
