timestamp,emg1,emg2,emg3,emg4,emg5,emg6,emg7,emg8
1558433505910580,0,0,-16,-2,13,8,4,1
1558433505910580,-2,-3,2,-2,-4,-5,-3,-3
1558433505911577,-3,-1,1,4,-5,-4,-3,0
1558433505911577,2,0,2,-6,-1,6,4,3
1558433505912575,-2,-3,-1,1,3,4,0,-1
1558433505912575,3,3,-5,5,4,-4,3,2
1558433505915567,-5,-8,-12,-10,-2,2,-4,-7
1558433505915567,1,1,8,13,3,-7,0,2
1558433505923547,-2,-1,-7,-28,-17,-11,-3,3
1558433505923547,-4,-9,-17,-10,-4,-3,-6,-7
1558433505931524,0,5,12,6,4,3,5,2
1558433505931524,1,2,2,14,20,1,-2,1
1558433505937507,-4,-5,-8,-12,-16,-4,-2,-3
1558433505937507,4,5,10,5,10,8,3,2
1558433505952468,-1,-1,-3,4,2,-2,-4,-4
1558433505952468,-2,-3,-2,-13,-5,-5,-3,-3
1558433505961443,0,2,9,11,-1,-2,-1,-1
1558433505961443,-5,-8,-9,-9,-9,-3,-6,-3
1558433505967427,1,3,6,6,7,0,2,2
1558433505967427,-4,-5,-24,-13,-6,3,-2,-3
1558433505983384,2,0,3,4,7,6,1,0
1558433505983384,-1,1,2,2,-6,-4,-3,-1
1558433505991363,-4,-5,-5,-11,-10,-2,-5,-8
1558433505991363,1,2,16,3,-11,-7,-3,-1
1558433506030260,-2,-5,-22,-8,1,2,0,0
1558433506030260,2,2,8,8,10,1,4,3
1558433506031257,-1,-3,-6,-4,-7,-7,-5,-3
1558433506031257,1,2,6,-1,-4,2,2,2
1558433506032254,-1,-1,-2,5,13,7,0,-4
1558433506032254,2,4,12,5,0,8,3,0
1558433506035247,-3,-9,-21,-10,-2,-10,-4,2
1558433506035247,1,1,3,4,4,2,1,0
1558433506043225,1,3,5,-2,-11,-9,-3,2
1558433506043225,-1,2,8,-1,2,-3,-3,-3
1558433506050206,0,1,7,9,-1,5,1,-2
1558433506050206,1,-1,-1,1,7,8,3,2
1558433506057188,-2,0,2,1,-6,-4,-3,-4
1558433506057188,-4,-7,-17,-11,-6,-12,-3,0
1558433506072148,0,2,3,-7,-6,5,1,-1
1558433506072148,-4,-7,-15,-8,-4,-5,-2,-4
1558433506080127,-2,1,7,4,6,6,-2,0
1558433506080127,-2,-1,-8,-4,-6,-7,-6,-5
1558433506087107,0,1,2,0,-3,-12,1,3
1558433506087107,1,1,5,3,-1,1,0,-2
1558433506103066,-1,-2,2,-1,-2,-3,6,0
1558433506103066,-4,-2,-5,2,-3,1,-2,-5
1558433506110046,2,1,5,1,9,9,1,2
1558433506110046,-2,-1,-9,-3,3,2,1,-2
1558433506117027,-4,-4,-5,-5,-7,-11,-7,-1
1558433506117027,1,-5,-5,-2,-4,-1,0,1
1558433506131988,0,2,4,9,3,3,4,-2
1558433506131988,0,0,7,0,-2,-7,-5,-1
1558433506140964,3,7,7,1,5,9,5,3
1558433506140964,-3,-8,-13,-8,-4,-4,-2,-3
1558433506146947,-2,0,4,-3,-6,-1,-4,-2
1558433506146947,-2,-3,-15,0,9,6,2,0
1558433506162903,2,3,13,7,4,-1,0,0
1558433506162903,-1,0,-1,-7,-8,1,0,-2
1558433506169886,0,-2,-1,-2,-11,-11,-8,-4
1558433506169886,-1,1,7,1,-4,-5,-1,0
1558433506176866,1,0,-3,3,9,1,5,3
1558433506176866,-2,3,4,2,-2,-5,-4,-1
1558433506191827,-1,-4,-5,-1,11,7,5,2
1558433506191827,-2,-4,-1,-2,-5,-5,-5,-3
1558433506200803,-2,-4,-5,-5,-11,3,-3,-3
1558433506200803,-1,-2,-7,-5,3,-4,-3,-1
1558433506207785,-2,-1,-1,-2,-11,-7,-3,-3
1558433506207785,0,1,0,-1,2,0,1,0
1558433506222745,-3,-3,-7,-8,-1,-3,-2,-7
1558433506222745,-1,-3,7,10,1,1,1,2
1558433506229726,-3,-1,-12,-9,-1,3,-2,-4
1558433506229726,-1,0,6,2,-6,-5,-3,-3
1558433506237704,0,-1,-2,-14,-7,-2,1,2
1558433506237704,-1,-1,-2,1,1,4,0,-2
1558433506252664,-1,0,3,5,9,5,1,1
1558433506252664,-1,-2,-6,0,-8,-8,-4,-1
1558433506260643,-1,0,0,-8,-6,4,1,-1
1558433506260643,2,6,20,9,2,-3,-1,0
1558433506267624,-2,-6,-19,-7,-2,-1,0,1
1558433506267624,-4,-9,-15,-12,-5,-5,-6,-3
1558433506283588,-3,-4,-2,5,-1,-4,-1,-2
1558433506283588,0,2,11,2,0,7,5,3
1558433506289566,2,3,7,1,4,6,3,-2
1558433506289566,-1,-2,-3,-1,-1,-6,-4,2
1558433506297544,-1,-1,0,4,2,-1,-2,0
1558433506297544,0,-4,-11,-9,-4,-5,-8,-4
1558433506312504,-2,-1,4,3,1,-3,0,-5
1558433506312504,2,2,2,6,9,15,10,2
1558433506320485,2,0,0,1,-2,-4,-1,-2
1558433506320485,-1,-2,-8,-11,0,3,-2,0
1558433506334448,-2,-2,-2,-3,-7,-8,-6,0
1558433506334448,-2,2,8,1,-1,1,0,-3
1558433506343423,0,0,-4,-1,1,3,-2,-1
1558433506343423,-3,-4,-12,-1,-2,2,3,-1
1558433506349418,1,3,13,2,2,-11,-4,2
1558433506349418,-5,-4,-1,5,-4,-10,-3,-7
1558433506357385,2,-2,-18,-4,-3,2,2,5
1558433506357385,-2,-3,-3,-7,-6,4,1,-1
1558433506372343,-2,0,2,-1,1,6,-1,-2
1558433506372343,0,0,3,-3,0,-3,-3,0
1558433506380323,-1,3,7,6,0,-4,2,-1
1558433506380323,4,2,2,5,11,2,5,4
1558433506395283,-1,-3,-5,1,1,-1,-1,-1
1558433506395283,0,4,7,0,-7,-4,-3,-2
1558433506403262,-2,-2,10,3,-8,-7,-7,-5
1558433506403262,-3,-4,-26,-11,6,2,2,1
1558433506410243,-1,-2,0,2,1,1,0,-1
1558433506410243,0,1,0,0,1,2,0,0
1558433506417225,-2,-3,5,-2,-1,-2,-2,-3
1558433506417225,-2,0,5,4,-4,-8,-6,-2
1558433506432184,-1,0,0,-3,-4,-1,2,0
1558433506432184,1,0,-7,1,9,8,4,1
1558433506440164,1,2,8,4,-6,-10,-6,-1
1558433506440164,-1,-5,-2,0,5,0,-2,0
1558433506455123,-1,-2,-4,1,5,2,0,-1
1558433506455123,1,-1,1,1,-1,-2,-1,-2
1558433506463103,-5,-4,-7,-16,-17,-2,-3,-6
1558433506463103,-3,-3,3,-3,-14,-7,-3,-5
1558433506470083,4,3,-8,7,10,7,9,5
1558433506470083,2,2,8,4,7,0,1,1
1558433506477065,-1,-2,-14,-17,3,0,0,1
1558433506477065,-3,-2,3,4,-6,-5,-5,-5
1558433506492024,-1,-3,-6,-9,-9,-5,-5,-2
1558433506492024,-1,-1,-3,-2,-3,0,1,-1
1558433506500003,-1,-1,0,11,12,4,0,-1
1558433506500003,-1,1,4,2,-2,0,0,-1
1558433506514964,-2,0,1,0,-3,-2,-1,0
1558433506514964,-1,-2,-4,-10,-7,-3,-5,-3
1558433506522942,0,1,12,8,-2,-1,-5,-3
1558433506522942,3,-2,-17,-5,11,4,10,6
1558433506529923,-4,-4,-3,0,-2,-2,-4,-2
1558433506529923,-1,-1,-2,-4,-2,-3,-3,-2
1558433506536906,-1,-2,1,-2,-5,1,-1,0
1558433506536906,1,5,17,7,1,2,-2,1
1558433506551863,-1,0,3,0,-1,-2,-2,-2
1558433506551863,-2,-6,-17,-11,-11,-3,-2,-1
1558433506560843,-2,0,2,4,4,-1,0,-4
1558433506560843,-3,-3,-6,-9,-11,-11,-12,-5
1558433506574803,-3,-8,-10,-10,-14,-5,-2,-3
1558433506574803,6,8,14,18,29,22,21,13
1558433506582782,0,-1,-7,-1,9,4,0,0
1558433506582782,-1,0,0,-2,-3,-4,-1,-2
1558433506597743,-3,-5,-10,-12,-10,-8,-9,-6
1558433506597743,-3,-3,2,-3,-14,-13,-9,-5
1558433506612701,-1,-1,0,3,0,-1,3,1
1558433506612701,-2,0,11,3,4,3,0,-1
1558433506613699,0,-2,-10,-2,-1,-2,-1,-1
1558433506613699,-4,-5,3,0,-3,-2,-6,-3
1558433506621677,-4,-5,-20,-7,-12,-11,-9,-4
1558433506621677,-1,-3,4,-4,3,8,8,5
1558433506634642,5,8,17,10,24,14,7,5
1558433506634642,-4,-5,-10,-6,-5,-3,-2,-3
1558433506643618,1,1,5,-1,-2,-2,0,-1
1558433506643618,0,-1,-2,1,-7,-4,-5,-5
1558433506649602,-3,-4,-3,-1,-4,-2,-1,-4
1558433506649602,1,2,0,-4,-1,-2,1,1
1558433506666559,-3,-3,2,2,0,1,-3,-2
1558433506666559,-2,-2,-11,-4,-7,-6,-6,-4
1558433506672543,-2,-3,-1,-2,-6,-6,-4,-2
1558433506672543,3,5,12,13,28,27,15,5
1558433506681520,-2,-3,-6,1,-3,-3,1,0
1558433506681520,-1,0,-6,-5,-1,-5,0,1
1558433506694482,1,3,8,3,-6,-6,-5,-4
1558433506694482,-5,-5,-6,-8,-17,-11,-13,-7
1558433506703459,-1,-1,0,-1,5,5,3,1
1558433506703459,0,1,6,4,3,0,-3,-1
1558433506709447,-1,1,3,2,0,0,-1,1
1558433506709447,0,4,6,3,-3,-4,1,-2
1558433506726401,-3,-8,-11,-7,1,3,-1,-1
1558433506726401,-4,-6,-5,-4,-5,-5,-5,-5
1558433506732382,-1,2,9,5,2,-1,-2,-1
1558433506732382,-7,-11,-19,-14,-31,-23,-10,-7
1558433506741362,8,8,10,0,13,13,15,11
1558433506741362,1,3,2,11,24,13,5,1
1558433506755320,0,0,-2,-7,0,2,0,0
1558433506755320,-1,-3,-1,-1,-8,-12,-10,-4
1558433506763301,-4,-4,-4,-5,-18,-11,-10,-8
1558433506763301,-1,-1,1,2,-4,-2,2,1
1558433506770281,-1,0,0,2,4,3,-1,-1
1558433506770281,0,-2,-4,1,-3,-2,-4,-2
1558433506786238,0,-1,-4,-10,3,0,1,-2
1558433506786238,1,-2,0,-1,-1,-3,-2,2
1558433506792220,-3,-3,-3,-2,-2,4,2,-3
1558433506792220,5,4,2,6,10,1,6,4
1558433506801199,-1,-1,10,10,5,0,-3,0
1558433506801199,-1,-2,-14,-10,-4,-3,-3,-2
1558433506815162,-2,-5,-6,-8,-11,-5,-2,-1
1558433506815162,-3,-2,-1,-4,5,1,-1,-1
1558433506824137,-1,2,4,3,-3,-2,1,0
1558433506824137,-1,0,3,-5,-3,1,-3,-2
1558433506830121,0,-1,0,4,5,-1,0,1
1558433506830121,0,0,8,1,2,5,1,0
1558433506846079,-1,-1,-7,0,-4,-6,-4,-2
1558433506846079,-4,-5,-6,-9,-9,-2,-2,-4
1558433506852063,-1,1,-3,-2,-2,4,4,2
1558433506852063,5,4,3,9,22,2,5,6
1558433506861038,3,0,7,0,1,6,0,1
1558433506861038,-4,0,5,6,-3,-2,-2,-4
1558433506875004,0,-3,-1,-3,-7,-6,-4,-3
1558433506875004,-1,-2,0,1,-9,-9,-4,-5
1558433506883980,2,0,-7,-11,1,3,3,0
1558433506883980,2,0,2,3,6,3,3,4
1558433506890036,-3,-1,-1,0,-2,-3,-6,-4
1558433506890036,-2,-2,-5,-7,-11,0,0,-1
1558433506905925,-2,-3,-2,-2,-4,-4,-4,-1
1558433506905925,4,3,3,3,6,6,6,3
1558433506912901,0,-1,0,3,11,-2,0,0
1558433506912901,-3,-5,-5,-6,-9,0,-3,-3
1558433506920944,-2,0,2,3,-3,-5,-4,-4
1558433506920944,-4,-4,-15,-11,-8,-6,-4,-3
1558433506934963,2,2,3,8,8,4,4,4
1558433506934963,0,-1,-1,-7,-3,-3,-2,-2
1558433506943819,0,-2,2,4,1,-3,-3,-1
1558433506943819,1,1,2,3,2,-4,3,1
1558433506949800,-2,-2,-3,-13,-4,-4,-3,-3
1558433506949800,-3,-2,-4,-3,-6,-1,-4,-3
1558433506965758,-2,-2,-4,2,-2,0,-1,0
1558433506965758,3,3,11,8,11,8,1,-1
1558433506972746,0,-3,-6,-3,-6,1,1,0
1558433506972746,0,0,1,0,2,0,-2,1
1558433506981717,-1,0,1,0,1,-5,-1,0
1558433506981717,0,0,3,7,-2,0,-1,2
1558433506995681,-1,-1,-4,-17,-5,0,0,-4
1558433506995681,-3,-2,-5,-5,-5,0,-1,-3
1558433507003657,-1,-3,-6,0,-1,0,-2,-3
1558433507003657,3,1,1,-2,1,-1,3,0
1558433507017621,2,4,13,11,7,2,3,3
1558433507017621,1,1,6,17,14,6,5,0
1558433507026596,-5,-8,-27,-29,-19,-6,-3,0
1558433507026596,-3,-1,2,1,-5,-4,-6,-5
1558433507041555,-3,-3,-3,1,4,0,-5,-4
1558433507041555,1,1,6,3,-3,1,1,0
1558433507042552,2,3,10,5,5,1,-1,-1
1558433507042552,-1,-3,-3,4,7,6,3,0
1558433507054521,0,1,0,-1,-3,-4,-2,4
1558433507054521,-3,0,-5,-7,-3,-3,-3,-4
1558433507063584,0,0,2,3,0,-6,-1,0
1558433507063584,-2,-2,-6,-5,-5,-3,-1,-1
1558433507077624,0,2,7,-2,-5,-1,-1,-4
1558433507077624,2,1,-2,4,14,5,3,3
1558433507086437,-3,-2,-6,-4,-2,1,-1,-2
1558433507086437,-3,-2,4,2,-8,-6,-4,-5
1558433507101671,-3,-4,-11,-4,-6,-2,0,0
1558433507101671,1,-1,-4,-2,5,2,1,0
1558433507102605,-2,3,6,3,-3,-2,-3,3
1558433507102605,-1,-2,-1,-5,-1,-5,-3,-1
1558433507115356,-1,-1,7,4,-6,-1,2,0
1558433507115356,-5,-6,-14,-14,-1,2,-2,-5
1558433507123584,-2,-2,0,4,-2,-4,-2,-4
1558433507123584,1,1,4,2,7,6,2,2
1558433507137442,-3,-2,-8,-1,-11,-12,-8,-2
1558433507137442,-1,3,16,5,-1,-6,-6,-3
1558433507146280,-2,-7,-23,-2,13,10,11,4
1558433507146280,-2,-4,-7,-11,-16,-13,-6,-4
1558433507161451,2,0,5,8,9,6,3,1
1558433507161451,1,0,5,-4,0,4,2,1
1558433507162242,-1,2,13,5,-4,-8,-6,-5
1558433507162242,-2,-3,-6,-1,-12,-6,-3,-3
1558433507175222,2,2,-5,-5,17,10,6,4
1558433507175222,-3,-3,-4,-8,-17,-10,-6,-3
1558433507184185,0,2,6,0,-1,2,0,-1
1558433507184185,-3,-3,-2,-1,-1,-1,-3,-3
1558433507197147,-2,-2,-2,-2,-12,-14,-8,-3
1558433507197147,1,-1,-3,0,0,-3,3,4
1558433507206115,2,2,3,2,5,4,1,2
1558433507206115,-4,-2,-3,-2,2,0,-2,-4
1558433507220078,-3,-3,8,-3,-8,2,-3,-4
1558433507220078,0,-3,-11,0,6,2,1,1
1558433507227065,2,1,8,6,2,2,3,3
1558433507227065,-2,-3,-11,0,4,2,1,0
1558433507235069,-4,-4,-8,-20,-5,2,-2,-4
1558433507235069,-1,1,3,1,-8,-5,-6,-5
1558433507244020,-1,-3,-3,-2,1,-3,0,-2
1558433507244020,0,-1,6,2,2,4,1,0
1558433507257080,1,-2,0,7,-4,-8,0,2
1558433507257080,-3,-4,-9,-3,-3,-1,0,-2
1558433507265960,-1,0,-2,-3,8,6,-2,2
1558433507265960,1,0,-1,-3,-1,2,-3,-4
1558433507280920,1,2,9,9,-1,-3,4,0
1558433507280920,1,0,4,1,8,4,1,1
1558433507287903,-3,-5,-12,-5,-10,-5,-5,-4
1558433507287903,-1,0,0,-18,-14,-8,-5,-2
1558433507295078,-1,-2,-2,9,7,2,1,0
1558433507295078,4,4,14,5,7,12,5,4
1558433507303864,-5,-6,-16,-8,-5,-4,-5,-6
1558433507303864,-3,-1,2,0,-5,0,0,-1
1558433507318012,-2,-1,-3,-4,0,-5,-4,-3
1558433507318012,1,-2,-6,1,3,0,1,-1
1558433507326801,-1,3,14,5,-2,-1,-2,-4
1558433507326801,-3,-2,-7,-3,-2,-4,-1,-1
1558433507339771,0,0,-7,-9,-4,-1,2,3
1558433507339771,-1,0,-1,4,6,-1,-1,-3
1558433507348733,-1,0,7,1,0,2,0,3
1558433507348733,1,0,0,3,1,-6,-2,0
1558433507354721,-4,-5,-4,5,-4,-8,-5,-1
1558433507354721,-2,-2,0,-8,-6,-1,-2,-1
1558433507363722,-1,-1,2,0,-2,-3,1,-2
1558433507363722,0,1,-2,2,11,11,8,4
1558433507377946,-2,-2,-4,-6,-4,-1,-6,-5
1558433507377946,-3,-3,-2,0,-14,-9,-5,-5
1558433507386631,1,-2,-3,-4,1,1,1,0
1558433507386631,0,0,4,1,-2,-1,1,0
1558433507399598,-1,-2,-7,-4,5,8,5,0
1558433507399598,-3,-5,-15,-9,-8,-5,-4,0
1558433507408573,-2,2,6,5,-2,-4,-1,-5
1558433507408573,3,3,9,3,-6,0,2,5
1558433507414557,-4,-4,-6,-5,-7,-6,-5,-5
1558433507414557,-2,-1,-2,-2,-3,-3,-2,-1
1558433507423532,4,3,-1,4,12,4,7,4
1558433507423532,-2,-3,-4,-6,-6,-8,-5,-2
1558433507437495,-1,-1,2,3,-2,-1,-3,-2
1558433507437495,-3,-5,-1,-5,-15,-9,-4,-4
1558433507446472,2,3,0,0,13,7,3,4
1558433507446472,-2,-3,-3,9,6,6,0,-2
1558433507460638,-1,-1,-4,-17,-13,-6,-3,-2
1558433507460638,0,-2,-2,-7,2,-2,-1,-1
1558433507468644,-4,-3,-1,-1,-6,-3,-6,-5
1558433507468644,1,1,0,0,-1,-7,-2,0
1558433507475603,1,2,2,8,7,7,3,2
1558433507475603,-2,0,1,0,-1,-3,1,1
1558433507483614,-2,-4,-2,-2,-6,-1,-3,-1
1558433507483614,-2,-2,-4,-3,-2,-1,-3,-2
1558433507497335,-2,-3,-3,-9,1,0,-1,-3
1558433507497335,2,2,3,3,0,-4,1,2
1558433507506311,-2,-1,-1,4,-2,-4,2,-2
1558433507506311,-1,0,1,1,6,4,1,2
1558433507520496,0,0,0,2,2,-4,-5,-2
1558433507520496,-2,-2,-4,-9,-10,0,1,0
1558433507529261,2,3,8,2,4,4,0,2
1558433507529261,-1,-4,-8,-5,-4,0,-1,-1
1558433507535422,-2,-3,-10,-13,-2,-2,-1,-2
1558433507535422,-2,-2,4,4,1,0,-3,-2
1558433507544219,-4,-7,-17,-11,-12,-10,-7,-10
1558433507544219,-1,1,3,0,-2,-3,2,2
1558433507557391,2,5,8,12,13,6,2,2
1558433507557391,-4,-4,-3,-5,-4,-4,-3,-5
1558433507566153,0,1,0,0,1,3,3,3
1558433507566153,-2,-2,1,1,-1,-1,-1,-1
1558433507580326,-1,-1,0,5,-3,-1,-1,-2
1558433507580326,2,0,0,3,-2,-3,-1,0
1558433507589101,-1,-3,-3,-7,-3,-5,-5,-3
1558433507589101,2,1,-3,-1,0,-1,-1,-2
1558433507611034,0,0,1,1,-3,3,7,3
1558433507611034,0,1,0,4,9,14,5,0
1558433507613033,-2,-5,-4,-3,-10,-10,-6,-2
1558433507613033,1,2,1,-1,6,7,3,2
1558433507617023,-1,-1,0,4,-3,-8,-3,-2
1558433507617023,0,-1,1,2,-2,-1,-3,-2
1558433507626215,1,3,4,4,7,-1,6,4
1558433507626215,-2,-1,1,-2,-4,-2,-2,2
1558433507639955,-3,-5,-12,-14,-6,-2,-5,-5
1558433507639955,-3,-2,-5,-2,0,-3,-4,-3
1558433507648930,0,0,-2,8,7,5,0,1
1558433507648930,0,-1,14,3,2,2,3,-1
1558433507654915,-2,-2,-11,1,-1,-1,1,0
1558433507654915,-2,0,2,-2,-4,-5,-3,-1
1558433507663891,-2,-3,-2,-3,-8,-7,-4,-1
1558433507663891,1,1,1,4,4,0,2,-1
1558433507678006,1,1,4,3,4,2,0,0
1558433507678006,-2,-1,-5,-8,-2,-1,-2,-1
1558433507686026,-3,-4,-3,-5,-2,1,0,-3
1558433507686026,-3,-4,-5,2,8,-3,-5,-4
1558433507699982,-1,-1,2,-4,-13,-3,0,-1
1558433507699982,2,4,0,4,14,15,11,3
1558433507708770,-3,-1,0,-6,-10,-7,-10,-1
1558433507708770,0,-1,0,0,2,-4,2,3
1558433507714756,0,-4,-2,0,8,2,-3,-2
1558433507714756,-5,-4,-2,2,-14,-11,-5,-5
1558433507723799,-1,-3,-6,-19,1,4,-1,-1
1558433507723799,-2,0,-3,-6,-15,-7,-6,-4
1558433507737919,2,3,8,9,10,1,5,4
1558433507737919,1,-1,-4,-3,0,-3,0,3
1558433507746682,-4,-2,1,5,0,0,-1,-3
1558433507746682,0,0,2,3,-9,-5,-5,-3
1558433507759911,-2,0,2,-10,0,2,-2,0
1558433507759911,1,0,1,3,7,7,3,0
1558433507768773,-2,-2,-2,-1,-10,-7,0,3
1558433507768773,0,-1,-1,1,12,10,1,-4
1558433507783623,-2,-1,0,0,-8,-1,-2,-2
1558433507783623,-3,-7,-14,-5,-1,-7,-4,-4
1558433507785567,1,2,3,3,10,0,2,0
1558433507785567,-2,-1,-8,-9,-8,4,4,1
1558433507797539,0,3,9,5,-4,-7,-4,-2
1558433507797539,-1,-1,1,-2,-4,2,-2,-1
1558433507806516,-1,-3,-12,1,3,4,2,-2
1558433507806516,2,1,1,5,7,4,3,2
1558433507819476,-3,-2,-1,-1,2,-4,-2,0
1558433507819476,0,0,2,-2,-5,0,-2,-1
1558433507828451,0,3,7,3,-2,-4,0,-1
1558433507828451,-4,-5,-9,-5,-6,-4,-5,-4
1558433507843411,2,2,0,6,5,1,3,1
1558433507843411,-1,-3,-1,-3,-7,-9,-6,-3
1558433507845403,1,3,11,-2,2,3,1,1
1558433507845403,-3,-4,-12,-9,-4,2,3,1
1558433507857430,1,-2,-7,4,20,7,3,0
1558433507857430,-1,0,1,-4,-2,-4,-2,3
1558433507866349,0,2,3,1,-7,-3,-4,-4
1558433507866349,-2,-3,2,0,-8,-10,-8,-3
1558433507880311,-1,0,1,3,-3,-2,-1,0
1558433507880311,2,0,4,2,1,2,1,0
1558433507888632,-3,-7,-13,0,-5,-4,-3,-3
1558433507888632,-8,-5,-9,-21,-5,-5,-8,-8
1558433507904380,0,-2,-3,1,-1,2,2,0
1558433507904380,2,3,9,9,9,-3,4,5
1558433507905246,4,2,1,2,8,6,5,5
1558433507905246,-1,-2,2,3,2,2,-1,-1
1558433507926543,-3,-4,-3,-7,-13,-4,-5,-5
1558433507926543,-1,3,11,2,-5,-8,-1,-1
1558433507927186,0,-4,-15,-4,2,2,3,1
1558433507927186,1,0,-6,4,2,-2,-3,-2
1558433507940411,-4,-3,3,-6,-13,-5,-5,-3
1558433507940411,-1,0,0,-2,3,3,-2,-2
1558433507949128,-4,-5,-5,-6,-8,0,-2,-5
1558433507949128,6,6,12,13,12,-5,9,11
1558433507964092,-1,-1,-11,-3,-4,-1,-3,-1
1558433507964092,-3,-3,-6,-3,-3,-2,-2,-4
1558433507965085,-2,0,6,-2,2,1,-5,-3
1558433507965085,-2,-2,-2,-2,-9,-5,-6,-5
1558433507978053,1,1,4,2,6,4,1,0
1558433507978053,-2,-1,-4,-1,-3,-1,-2,-2
1558433507986242,-2,-3,-3,-9,-5,2,0,-1
1558433507986242,-2,-4,-1,-4,-15,-11,-6,-4
1558433507999991,1,1,2,4,6,0,0,2
1558433507999991,1,1,-3,0,11,8,4,3
1558433508008978,-2,-1,0,6,-3,-4,-1,0
1558433508008978,-1,0,3,0,0,0,-2,-1
1558433508024124,-4,-4,-4,-5,-8,-9,-4,-4
1558433508024124,0,-2,6,5,-1,-3,-4,-3
1558433508024929,-1,-3,-14,-8,-4,-4,0,1
1558433508024929,0,0,-5,1,-1,2,-2,-3
1558433508036899,-1,0,4,7,0,-1,-1,-1
1558433508036899,-3,-5,-13,-11,-2,-1,0,-4
1558433508045876,-2,-1,7,3,-6,-2,-2,-4
1558433508045876,0,-3,-5,-9,-11,-9,-9,0
1558433508059831,3,2,8,9,5,15,13,5
1558433508059831,1,2,0,2,13,1,4,4
1558433508068810,1,0,1,-5,-1,-1,-3,-3
1558433508068810,-2,-1,-1,3,-1,1,-1,-3
1558433508083808,-3,-3,0,-6,-16,-14,-8,-5
1558433508083808,-2,-5,-13,-1,-4,-5,-1,-3
1558433508084806,-1,-1,0,-2,-3,2,3,2
1558433508084806,-3,0,9,1,-1,0,0,-2
1558433508097730,-3,-6,-23,-9,-5,-3,-4,-1
1558433508097730,-2,0,10,-5,-12,-1,-7,-6
1558433508106706,-2,-1,-5,5,-4,-9,-4,-1
1558433508106706,5,3,-2,10,31,16,21,12
1558433508120156,-1,0,6,-7,7,7,-3,-3
1558433508120156,-2,-3,-5,0,-5,-3,-3,-1
1558433508128998,-2,-1,1,-6,-3,-3,-7,-2
1558433508128998,0,-1,4,-2,-12,-4,-3,-5
1558433508143926,2,2,4,3,5,0,3,4
1558433508143926,-2,-3,-10,-12,-2,-4,-4,-1
1558433508145797,-1,0,8,8,2,2,-1,-2
1558433508145797,-5,-5,-12,-4,1,1,-1,-4
1558433508157892,-2,-1,0,-3,-10,-3,-6,-4
1558433508157892,-2,-4,2,3,-6,-8,-2,-3
1558433508166548,5,5,5,13,19,3,12,10
1558433508166548,-2,-1,-5,-16,5,2,-2,0
1558433508180510,-1,-1,3,2,-3,4,-1,-3
1558433508180510,-4,-4,-15,-8,-5,-5,-4,-3
1558433508188723,-3,-2,2,-5,-9,-5,-3,-6
1558433508188723,-3,-2,-7,-1,-7,-7,-3,-2
1558433508203654,-1,-3,-2,-6,-8,-9,-4,-1
1558433508203654,-3,0,1,-1,-2,1,0,1
1558433508205443,0,0,2,1,3,6,0,0
1558433508205443,1,2,6,5,4,8,4,1
1558433508217631,-2,-3,-4,1,-4,-9,-1,-3
1558433508217631,3,4,10,10,10,8,5,5
1558433508226386,-1,-3,2,1,-4,-2,-3,-3
1558433508226386,-2,-4,-9,-9,0,2,-5,-4
1558433508240504,-1,-1,-3,1,5,3,-2,-3
1558433508240504,1,2,6,3,-1,-1,1,3
1558433508248327,0,0,-1,-3,-4,-6,-2,-3
1558433508248327,-3,-1,9,4,-7,-6,-3,-5
1558433508263506,-1,-2,-5,-1,6,2,-1,-1
1558433508263506,1,0,-1,-1,3,5,-1,-1
1558433508265287,-3,-4,-11,-8,-8,-4,-4,-3
1558433508265287,-2,0,3,8,-4,-6,-6,2
1558433508277285,1,1,-3,-14,8,7,7,5
1558433508277285,1,1,2,-3,1,4,5,2
1558433508286226,-1,0,1,0,1,-6,-2,0
1558433508286226,0,-2,-3,2,2,1,1,-1
1558433508300188,-4,-3,-1,-1,-7,-4,-6,-4
1558433508300188,0,0,-1,-2,-1,3,-1,-3
1558433508308510,-1,-2,-3,3,0,-3,-1,0
1558433508308510,4,3,7,-3,2,-2,1,-1
1558433508324406,1,0,0,2,-6,-4,-2,1
1558433508324406,-2,-5,-4,-4,-2,1,0,-1
1558433508325124,0,0,5,2,2,-6,-1,-1
1558433508325124,0,-1,1,-3,-10,-5,-3,-1
1558433508337434,-2,-2,-5,-1,1,1,-1,-1
1558433508337434,-1,0,-4,1,3,1,2,0
1558433508346380,-2,-2,-4,-6,0,7,-2,-1
1558433508346380,-2,-2,-3,-1,3,3,-1,3
1558433508360294,-1,0,2,-1,-8,-7,-3,-1
1558433508360294,-1,-2,0,0,-2,-8,-3,-2
1558433508369011,-3,-1,-2,3,-5,-2,1,1
1558433508369011,0,1,-5,-13,-7,-3,1,0
1558433508384196,-1,0,7,8,12,8,4,0
1558433508384196,-1,0,-1,1,1,-1,-1,0
1558433508384964,2,1,7,1,0,-1,1,-1
1558433508384964,-4,-7,-14,-6,-11,-7,-7,2
1558433508397078,0,-2,4,2,-7,-11,-6,-2
1558433508397078,-3,-3,-8,1,9,0,2,-4
1558433508406153,-2,-4,-5,2,-7,3,-3,-3
1558433508406153,-1,0,4,-6,-1,2,0,-2
1558433508420114,-1,-4,-15,-5,3,-1,1,0
1558433508420114,3,1,8,-2,-1,-1,-2,2
1558433508428849,0,-1,-6,2,2,-2,0,-2
1558433508428849,-3,0,1,4,5,1,-2,-1
1558433508444133,-1,1,2,-2,-4,-3,-5,-1
1558433508444133,-2,-2,-4,5,-4,0,-1,-2
1558433508444804,4,6,9,-2,11,2,8,5
1558433508444804,-5,-5,-11,-14,-10,0,-1,-3
1558433508457769,0,-1,3,4,0,-2,-1,0
1558433508457769,-2,-3,2,-11,-13,-11,-9,-2
1558433508465745,-1,0,5,1,-1,3,0,0
1558433508465745,0,1,-2,2,6,1,0,-1
1558433508479707,-2,3,2,-1,0,1,-1,0
1558433508479707,-1,-1,-1,1,-3,3,1,-1
1558433508488683,0,-2,-3,-3,-2,-1,-2,-3
1558433508488683,0,-1,1,6,1,-1,0,-2
1558433508502646,1,0,-1,3,1,-2,1,1
1558433508502646,-1,0,0,-2,0,3,0,0
1558433508509628,-4,-4,-2,-8,-2,-4,-5,-4
1558433508509628,-1,-3,-7,3,-2,-5,-3,-3
1558433508517605,0,0,2,3,5,8,3,1
1558433508517605,-1,2,2,3,1,-2,-3,-1
1558433508526583,0,-3,-5,-3,-2,1,1,-3
1558433508526583,-2,-1,4,-1,-7,-3,-3,0
1558433508540593,-2,-3,-3,-3,-2,-2,-1,-1
1558433508540593,0,-1,-4,-1,3,-2,-1,-1
1558433508548527,0,3,4,5,8,8,5,4
1558433508548527,2,1,5,8,5,4,1,0
1558433508563727,0,-4,-10,-15,-12,3,0,1
1558433508563727,-1,0,5,-4,-2,1,-1,-3
1558433508569832,-3,-7,-16,-13,-14,-15,-11,-5
1558433508569832,0,-1,1,3,5,1,3,2
1558433508577765,1,3,10,10,0,0,4,1
1558433508577765,-2,-3,-11,1,6,2,-2,-3
1558433508586426,-3,-2,-2,-7,-9,-2,-3,-2
1558433508586426,2,3,3,6,7,4,3,0
1558433508600427,-2,0,3,-4,-5,-3,-3,-2
1558433508600427,-2,-5,-3,-1,-10,-6,-4,0
1558433508608580,1,2,-2,-9,4,-9,2,4
1558433508608580,-1,-1,0,1,1,-1,-1,-2
1558433508623539,-2,-2,-1,2,9,4,1,-5
1558433508623539,-1,-3,-3,-12,-14,-4,-4,0
1558433508630343,-2,-3,-4,3,9,3,-3,0
1558433508630343,-2,-5,-1,-4,-13,-4,-2,-3
1558433508646570,0,2,1,4,12,2,0,1
1558433508646570,1,1,-3,3,-4,8,7,0
1558433508647265,-1,-1,10,-1,-6,-9,-6,-3
1558433508647265,-3,-4,-18,-13,1,5,1,-1
1558433508660235,-1,-2,1,1,-6,-11,-2,-2
1558433508660235,-4,-1,-7,-3,-1,-8,-3,0
1558433508669203,-1,0,5,4,0,9,4,-3
1558433508669203,-2,-3,0,0,-1,-2,-3,-2
1558433508683164,-2,-3,-5,-3,-3,1,-3,-4
1558433508683164,1,0,0,0,2,-5,0,-2
1558433508690339,2,0,0,5,2,4,2,2
1558433508690339,-4,-1,-1,-2,-10,-11,-5,-7
1558433508706391,-2,-4,-5,-3,-3,-1,-2,-2
1558433508706391,-1,-1,6,0,0,6,0,1
1558433508707350,1,0,-3,8,9,3,4,3
1558433508707350,2,1,4,2,-4,-2,2,3
1558433508720351,-1,-2,3,1,-4,-3,-3,0
1558433508720351,-6,-7,-15,-8,-2,-3,-6,-7
1558433508729314,-1,0,-3,-5,-5,0,0,-1
1558433508729314,1,1,2,5,6,1,-1,1
1558433508743159,0,2,-1,-1,4,0,1,1
1558433508743159,0,0,6,5,-1,-3,-3,-3
1558433508750327,0,0,-1,2,0,-2,0,2
1558433508750327,-1,-1,4,-4,2,-1,0,-2
1558433508766942,-3,-4,-11,-8,-11,-9,-6,-4
1558433508766942,1,1,7,0,6,7,3,2
1558433508767945,-2,-4,-19,-3,-2,0,0,-3
1558433508767945,0,1,-1,0,-4,-9,-1,1
1558433508779903,1,-1,-3,-5,0,5,1,1
1558433508779903,-2,-1,0,12,4,-1,-4,-2
1558433508788884,-2,-2,-2,-11,-6,-1,-5,-4
1558433508788884,-1,-2,-2,-4,-2,-1,-2,-3
1558433508803089,-1,1,-1,1,2,-4,2,1
1558433508803089,1,4,17,5,3,5,3,2
1558433508810069,-3,-5,-26,-7,8,6,1,-2
1558433508810069,-3,-4,-1,-3,-7,0,-1,0
1558433508826896,-1,1,4,-5,-9,-11,-3,-1
1558433508826896,1,-2,-1,0,-5,-5,-2,0
1558433508827782,0,2,6,4,6,1,1,2
1558433508827782,-1,1,0,-1,0,5,0,-2
1558433508839986,-2,0,-4,2,1,-3,-2,-2
1558433508839986,-3,-4,-11,-5,-4,-5,1,-1
1558433508848724,-1,-2,6,-20,-12,-6,-3,-2
1558433508848724,1,0,-4,2,-2,-1,-3,-3
1558433508862687,-1,-2,-1,-1,2,1,3,-1
1558433508862687,-2,-2,-12,-6,6,5,1,-1
1558433508869903,-3,-3,7,5,-6,-4,-4,0
1558433508869903,-3,-1,7,6,7,-1,-3,-3
1558433508885868,1,-2,-9,-8,-11,-3,-2,-1
1558433508885868,0,0,-2,-7,-3,-2,2,2
1558433508887618,1,0,12,11,6,0,0,-1
1558433508887618,0,0,1,1,6,5,3,0
1558433508899587,-2,-3,-4,-1,-1,2,-2,-4
1558433508899587,-2,-2,-1,-3,-4,0,-3,-1
1558433508908780,-2,1,1,0,-3,-5,-4,-4
1558433508908780,2,3,4,-2,-1,-4,0,1
1558433508923632,-5,-7,-4,0,4,7,0,-2
1558433508923632,-1,-3,-9,-2,-11,-12,-4,-3
1558433508929810,-2,2,-1,1,2,6,4,2
1558433508929810,-2,-3,-11,-1,0,0,-1,-1
1558433508946782,0,0,8,0,-6,-4,-3,-2
1558433508946782,0,-1,-6,-7,-3,0,0,0
1558433508947455,1,0,12,8,9,3,-1,-1
1558433508947455,-1,-2,-7,-4,-8,0,1,1
1558433508960425,1,-2,-8,-4,-5,-4,-2,1
1558433508960425,2,2,6,5,6,0,3,1
1558433508968645,1,0,-1,3,2,-2,0,3
1558433508968645,-1,0,2,-7,-8,-8,-3,-2
1558433508983617,-2,0,2,-1,2,2,-4,-5
1558433508983617,-1,-1,-1,0,-7,-4,-2,-1
1558433508990408,1,1,-1,2,-1,0,0,0
1558433508990408,-1,-1,-2,-6,-1,-3,-3,0
1558433509006531,1,3,8,9,8,9,4,2
1558433509006531,-1,-4,-1,-2,6,0,3,0
1558433509007305,-1,-2,-7,-7,-7,-6,-5,-3
1558433509007305,-3,-5,-3,1,1,0,-2,0
1558433509020467,0,0,0,1,-5,0,-1,1
1558433509020467,-1,0,3,2,2,0,-3,-2
1558433509028460,-1,-1,4,4,-5,-2,-4,-4
1558433509028460,0,-1,0,0,7,2,1,0
1558433509043421,-1,-2,-7,-3,4,2,1,1
1558433509043421,-3,0,2,2,7,2,-1,0
1558433509050181,-4,-7,-21,-13,-15,-12,-5,-5
1558433509050181,0,0,5,4,1,-1,-2,-1
1558433509066140,4,3,9,6,7,0,4,4
1558433509066140,0,-1,-2,0,-4,-4,-5,-5
1558433509067137,-1,-1,-1,-5,-10,0,-2,-3
1558433509067137,-2,-1,0,-1,3,4,1,0
1558433509080302,-4,-4,1,2,-4,-6,-3,-2
1558433509080302,2,1,-4,6,5,-5,1,2
1558433509089081,1,-2,-4,-13,-6,-2,1,1
1558433509089081,-1,0,-1,-4,-2,1,-2,-2
1558433509103328,-1,-1,8,4,0,-2,-3,-2
1558433509103328,-1,-1,-7,-7,-5,0,0,-1
1558433509110297,-3,-3,-3,4,2,1,-1,-2
1558433509110297,0,-4,-10,-7,4,-1,0,0
1558433509126977,-2,-5,-2,-3,-3,1,0,-3
1558433509126977,-3,-1,-3,-4,-1,-2,-2,-1
1558433509128183,-2,-1,1,7,-2,-4,-3,0
1558433509128183,-1,0,7,3,-3,-2,-2,-3
1558433509140217,-1,-3,-14,-7,-2,-2,-1,-1
1558433509140217,1,0,4,-1,0,7,2,1
1558433509148921,0,-2,2,-3,-7,-10,-1,-2
1558433509148921,0,0,1,7,9,4,-2,3
1558433509163161,1,3,4,-2,-4,-4,-4,-2
1558433509163161,-3,-2,5,-2,-1,-1,-3,-3
1558433509170497,-3,-4,-10,-2,0,-3,-3,-5
1558433509170497,0,0,0,0,0,4,4,1
1558433509186748,1,-1,3,-5,9,3,2,3
1558433509186748,1,0,3,4,-4,2,3,2
1558433509187450,-2,-4,-6,-1,6,2,-2,-2
1558433509187450,-2,-1,0,-1,-8,-1,-3,-4
1558433509200415,1,-1,-3,-2,-5,-10,-4,1
1558433509200415,1,1,2,2,5,2,2,0
1558433509208675,2,3,-1,-1,5,6,5,1
1558433509208675,-1,-3,-6,-1,-8,-4,-1,-2
1558433509223580,-2,-3,-5,-2,6,7,0,-3
1558433509223580,-2,-2,3,1,-7,-6,-5,-4
1558433509230339,1,3,14,13,1,4,2,3
1558433509230339,-4,-6,-25,-15,-6,-8,-5,-4
1558433509246553,-3,1,0,-2,-6,-2,1,0
1558433509246553,-3,-3,-3,-1,-5,-3,-1,-1
1558433509247289,1,2,11,5,13,5,1,1
1558433509247289,-6,-6,-1,-2,-12,-5,-2,-3
1558433509260484,-1,-2,-1,-2,1,1,0,-2
1558433509260484,-1,-2,-8,-2,0,-5,-5,-2
1558433509268235,0,-3,-1,-1,-11,-8,-2,-3
1558433509268235,1,0,-1,-13,4,4,4,2
1558433509283195,1,2,5,3,-4,-2,1,0
1558433509283195,-6,-5,-4,-1,1,4,1,-3
1558433509290372,-4,-3,-6,-9,-5,-1,-4,-2
1558433509290372,1,2,3,9,7,-2,-1,1
1558433509306131,0,0,0,5,0,3,0,-1
1558433509306131,-1,-1,0,-12,-6,-3,-3,-1
1558433509307129,-1,0,-3,4,0,-1,0,1
1558433509307129,-3,-1,3,4,0,-5,-5,-2
1558433509320130,-2,1,1,-2,-2,2,2,1
1558433509320130,2,2,3,4,15,5,1,1
1558433509329120,-2,-2,-8,0,-4,1,-1,-2
1558433509329120,-4,-3,-9,-21,-9,-4,-3,-2
1558433509343031,-2,-1,0,-2,-4,-1,0,-1
1558433509343031,0,-1,-2,-4,2,1,3,2
1558433509350410,0,1,4,1,6,4,1,0
1558433509350410,1,3,8,8,0,-3,0,0
1558433509367003,-1,-3,-6,-2,-8,-8,-5,-3
1558433509367003,-2,0,-2,-6,-7,-2,-1,2
1558433509367999,-3,-3,2,2,1,-2,-1,0
1558433509367999,2,2,-4,12,8,3,0,1
1558433509380315,-4,-7,-9,-9,-3,1,-3,-4
1558433509380315,1,1,5,8,5,6,4,2
1558433509388910,-1,-1,-6,-2,-1,-4,-3,-3
1558433509388910,-1,-2,0,-10,-10,-6,0,1
1558433509403240,0,1,2,6,3,-8,-2,-2
1558433509403240,-3,-1,-2,2,-5,-4,-5,-3
1558433509410170,0,1,-1,-9,-8,-4,0,1
1558433509410170,-1,-4,-1,9,20,8,-1,-3
1558433509426816,-1,-2,-4,2,2,3,0,0
1558433509426816,-1,-4,-1,-1,-8,-7,0,1
1558433509427817,0,0,-4,-15,-4,0,1,-1
1558433509427817,-5,-3,2,2,-7,-6,-4,-6
1558433509439780,1,2,5,-1,-1,-3,-1,2
1558433509439780,-3,-6,-10,-1,-4,-2,-7,-7
1558433509448751,1,2,11,13,4,1,0,2
1558433509448751,3,3,-4,4,11,5,4,4
1558433509463713,-2,-2,-4,-9,-12,-7,-1,-2
1558433509463713,-1,0,5,-5,-9,-2,-3,-2
1558433509469915,-6,-6,-18,-14,-12,-9,-7,-6
1558433509469915,0,0,8,-1,-9,0,0,-1
1558433509485655,-1,0,3,11,11,3,-1,-1
1558433509485655,2,1,-6,-17,-5,-8,2,1
1558433509492637,0,0,8,5,6,2,-3,2
1558433509492637,0,1,0,-2,-7,0,2,-1
1558433509499614,-4,-5,-11,-3,2,0,-4,3
1558433509499614,-1,0,4,0,-7,-2,-2,-3
1558433509508781,-1,-1,-7,-3,0,-3,-1,-3
1558433509508781,0,0,11,5,-7,0,0,0
1558433509522554,3,5,4,7,4,-3,2,1
1558433509522554,-3,-6,-15,-16,-4,-4,-4,-2
1558433509529534,-1,0,6,3,-3,-4,-2,0
1558433509529534,-1,-4,-6,-3,-4,-5,0,0
1558433509545491,-2,-1,3,3,6,7,1,-2
1558433509545491,1,1,1,9,5,3,1,2
1558433509552472,-4,-1,-2,-4,-5,-8,-3,-1
1558433509552472,-3,-1,-5,-1,-1,1,0,0
1558433509559453,-3,-3,-3,-9,-7,0,-2,-1
1558433509559453,0,0,-3,-1,3,-2,-2,-1
1558433509568428,-1,-4,1,4,3,1,-1,-2
1558433509568428,0,1,4,3,0,-10,-4,0
1558433509583664,0,1,-1,1,0,1,2,0
1558433509583664,-3,-3,-10,-7,7,3,0,-1
1558433509589722,-3,-4,2,-2,-7,-2,-1,-2
1558433509589722,1,1,-9,-1,4,8,3,1
1558433509605767,-2,-4,-7,-10,-14,-11,-7,2
1558433509605767,-2,0,6,1,-3,-2,-2,-4
1558433509612833,1,2,2,3,11,8,5,2
1558433509612833,-1,-4,-2,-2,3,2,-2,-1
1558433509620693,0,-3,3,-1,2,1,0,-2
1558433509620693,-1,-1,1,4,-2,-4,-2,-2
1558433509628654,-1,2,0,3,-6,-2,-1,-2
1558433509628654,-1,-1,-2,-7,-7,-4,-3,-2
1558433509643512,-1,-1,-7,-11,2,3,2,-1
1558433509643512,-4,-5,0,4,-11,-2,-4,-2
1558433509650389,3,2,1,5,6,-4,1,2
1558433509650389,-2,-1,-2,0,4,-1,-1,-1
1558433509665174,-1,-1,1,0,-1,0,-1,-2
1558433509665174,1,2,-1,-1,2,2,3,0
1558433509672342,-2,-4,-5,-3,-5,2,2,-2
1558433509672342,0,0,1,-13,-7,1,0,-1
1558433509688120,-1,-3,-6,-2,-4,2,1,1
1558433509688120,1,1,9,5,4,0,-2,-2
1558433509690105,-1,-1,-2,-5,-2,4,-2,1
1558433509690105,0,-1,-3,0,1,-5,-3,-2
1558433509702073,-4,-2,0,9,-4,-7,-4,-6
1558433509702073,2,1,3,2,2,-1,-1,5
1558433509711150,-2,0,2,4,-3,-3,-1,-2
1558433509711150,0,-5,-12,-11,2,2,-1,-2
1558433509726008,0,2,0,-1,3,2,0,0
1558433509726008,-4,-3,-6,3,-3,-1,0,-2
1558433509731993,-1,-1,0,2,-2,-6,-1,-3
1558433509731993,-2,1,0,-7,-6,-3,-1,1
1558433509748946,0,-1,1,-1,-4,-6,-4,-1
1558433509748946,0,1,2,0,1,-2,-2,-2
1558433509749944,-1,-4,-10,-6,-5,3,4,1
1558433509749944,2,1,8,12,15,6,3,2
1558433509763030,-2,-1,-2,0,-1,-1,-1,-2
1558433509763030,-3,-4,-3,-7,-14,-10,-4,0
1558433509771093,-1,-3,0,-5,4,6,0,-1
1558433509771093,-1,-1,-1,7,2,-5,-1,-1
1558433509786133,2,2,3,0,-2,3,0,1
1558433509786133,0,5,11,6,2,1,1,-2
1558433509793064,-3,-8,-24,-11,-11,-10,-7,-5
1558433509793064,-2,-5,0,3,-2,2,-2,-1
1558433509809063,-1,2,5,1,5,2,0,-1
1558433509809063,1,0,2,-1,0,0,2,0
1558433509809994,0,1,3,-3,-1,2,-1,0
1558433509809994,-1,-1,6,11,-2,-4,-4,-3
1558433509823038,0,0,3,-3,-4,0,-1,-2
1558433509823038,-4,-9,-25,-5,2,-3,-2,-3
1558433509830730,3,5,8,0,4,2,3,4
1558433509830730,-4,-3,-6,-5,-7,-3,-2,-2
1558433509845946,0,0,5,2,-7,-7,-3,-1
1558433509845946,-2,-1,-3,0,2,3,-1,-3
1558433509852939,-1,-2,-1,6,-7,-7,-3,-1
1558433509852939,0,1,0,-1,9,7,5,2
1558433509868830,-1,-4,-2,-1,4,1,0,-2
1558433509868830,0,-1,-3,-1,-4,-5,0,2
1558433509869632,-3,-2,3,2,1,-2,-6,-4
1558433509869632,-2,-3,-6,-24,-25,-11,-4,-3
1558433509882755,-1,-1,-1,5,7,2,3,0
1558433509882755,0,0,-3,-3,8,7,3,1
1558433509891573,-2,0,0,3,0,0,-2,0
1558433509891573,0,0,8,8,2,2,1,1
1558433509905740,0,-2,-7,-8,7,-2,1,1
1558433509905740,-1,-2,-1,-11,-24,-9,-5,-4
1558433509912513,0,1,2,6,16,8,3,-1
1558433509912513,-1,-2,-4,7,-4,-3,-2,-3
1558433509928690,-3,-7,-13,-20,-4,-2,-3,-2
1558433509928690,2,5,13,8,5,7,3,0
1558433509930462,-2,-1,-8,-6,-5,-1,0,-1
1558433509930462,0,-2,-5,1,3,-1,3,1
1558433509942467,-3,-2,2,1,-7,-4,-2,-3
1558433509942467,1,-3,12,6,4,3,1,0
1558433509951405,0,1,-4,-2,-7,-3,-1,-3
1558433509951405,-3,-4,-8,0,-2,-4,-3,-2
1558433509965368,1,3,4,-2,2,7,3,3
1558433509965368,0,0,0,1,9,3,1,1
1558433509972669,-2,-5,-6,-7,-10,-9,-6,-5
1558433509972669,-2,0,6,2,4,-1,-1,1
1558433509989307,-4,-4,-8,0,-6,-1,-2,-3
1558433509989307,-2,-3,-3,-2,-1,-7,-5,-2
1558433509990303,1,1,4,5,10,7,4,3
1558433509990303,-2,-2,-6,-5,-10,-2,-4,-4
1558433510002591,1,1,4,5,5,-1,0,2
1558433510002591,-1,0,-7,-3,-1,0,1,-1
1558433510011250,-2,0,3,-2,1,-4,-2,-7
1558433510011250,0,-1,-4,-1,-9,-5,-3,-2
1558433510025516,2,2,0,5,7,6,2,0
1558433510025516,-1,-2,-1,-1,0,0,-3,1
1558433510032188,-2,-4,-6,-6,-9,-11,-4,1
1558433510032188,3,3,8,3,7,6,4,1
1558433510049349,-1,-3,-10,-4,-9,-5,-2,-2
1558433510049349,-3,-3,-5,1,2,-2,-2,-4
1558433510050142,0,1,16,3,2,5,2,1
1558433510050142,-5,-10,-21,-3,-5,-5,-6,-2
1558433510062318,-3,-5,-14,-18,-10,-6,0,-4
1558433510062318,1,3,3,6,6,4,6,2
1558433510071089,0,2,4,3,8,2,2,1
1558433510071089,-1,0,9,-1,-5,-3,-3,-4
1558433510086153,-3,-2,-3,-1,-13,-8,-4,-1
1558433510086153,-2,-3,-12,-5,10,0,-1,3
1558433510093028,-2,-2,-1,-4,-2,-1,0,-1
1558433510093028,-1,2,6,4,4,1,2,1
1558433510109184,0,-2,-2,-1,-3,-4,-4,-2
1558433510109184,0,-1,4,3,2,3,0,-2
1558433510109984,-2,-2,-5,-2,-3,-2,-3,-1
1558433510109984,-1,-2,2,1,-2,-2,-2,-1
1558433510121953,-1,-2,-4,-8,-2,-6,0,1
1558433510121953,-2,-3,2,-1,0,-1,-2,-1
1558433510130928,-3,-7,-12,-7,-8,-7,-6,-3
1558433510130928,1,2,5,3,-4,-1,0,-2
1558433510145889,2,3,9,7,9,5,6,2
1558433510145889,-1,-3,-14,-8,-9,-7,-4,0
1558433510151901,-1,-2,4,2,3,0,-2,-2
1558433510151901,-1,1,-1,-8,-2,0,1,-2
1558433510169072,-1,-1,2,6,4,0,-4,-4
1558433510169072,3,4,8,5,-4,-3,2,2
1558433510169906,-2,-3,-5,-15,-3,-1,1,-1
1558433510169906,-1,-1,-4,-3,1,4,1,2
1558433510182871,1,1,8,3,0,-4,-3,-1
1558433510182871,-2,-5,-6,-2,-6,-2,-2,-5
1558433510191014,0,-1,-3,0,-4,-2,-3,-1
1558433510191014,2,4,17,17,11,4,2,2
1558433510205973,-4,-7,-30,-22,-8,0,0,0
1558433510205973,-1,-2,-1,-2,-1,-3,-2,-3
1558433510212874,3,2,0,2,0,1,4,-1
1558433510212874,-3,-3,-3,-6,-2,-6,-3,-4
1558433510228947,2,2,13,12,4,4,1,5
1558433510228947,-1,-2,-4,-7,-2,1,-2,-3
1558433510229662,-2,-2,-2,-1,2,-3,-4,-4
1558433510229662,-1,-1,0,-1,-15,-5,1,2
1558433510242893,-2,-1,2,3,4,0,0,-1
1558433510242893,2,0,-3,-6,6,6,2,4
1558433510251604,0,0,-2,0,0,0,-2,1
1558433510251604,-2,-2,-3,-7,-5,-7,-3,-3
1558433510265567,0,-1,11,8,-7,-2,-1,-1
1558433510265567,-5,-7,-7,-5,-5,-3,-5,-4
1558433510272774,0,-2,-2,-1,0,4,2,0
1558433510272774,-1,-4,-12,-24,-3,-2,-2,0
1558433510288701,-1,0,3,3,-1,-8,-4,-3
1558433510288701,0,3,12,12,-2,0,-1,-3
1558433510289509,0,-2,-3,-3,-2,3,0,-1
1558433510289509,-2,-1,-9,0,6,0,-1,0
1558433510302701,-1,2,8,2,-6,-2,0,-2
1558433510302701,-1,1,2,1,5,3,0,0
1558433510311455,-2,-4,-17,-5,-8,-2,-1,2
1558433510311455,1,2,-1,-8,5,3,0,-1
1558433510325624,-2,-1,-2,1,1,0,-1,-1
1558433510325624,-2,0,-1,-4,-15,-15,-8,-6
1558433510332424,1,4,9,4,4,2,0,2
1558433510332424,-1,-4,-2,1,2,2,-1,0
1558433510348344,1,1,-3,1,5,8,3,4
1558433510348344,0,-2,-1,2,2,7,4,0
1558433510350338,-2,-1,0,-1,-4,-7,-3,-1
1558433510350338,3,2,2,10,13,3,1,0
1558433510362311,-3,-3,-2,-9,-14,-9,-6,-2
1558433510362311,1,1,-5,-3,2,5,4,3
1558433510371289,-1,-2,2,2,-4,-4,-5,-2
1558433510371289,-2,0,2,5,0,1,0,-4
1558433510385244,0,-2,-6,4,6,4,1,-2
1558433510385244,0,0,-1,-11,1,1,2,-2
1558433510392545,1,1,1,-3,-4,-9,-2,0
1558433510392545,1,3,4,6,-6,-2,-1,4
1558433510408473,-1,-3,-3,-5,1,2,-4,-4
1558433510408473,-3,-5,-11,-2,-1,-6,0,-1
1558433510415165,-2,-2,-2,0,5,2,1,-1
1558433510415165,-3,-2,0,-1,-2,2,-2,-3
1558433510430231,-2,3,4,3,-3,-3,0,1
1558433510430231,-1,-1,4,7,3,2,2,1
1558433510439312,0,0,0,3,2,1,-2,-3
1558433510439312,-3,-4,-13,-20,-7,-6,-4,-3
1558433510446082,-1,-5,-4,1,0,-1,-1,-1
1558433510446082,0,2,2,-6,-6,-2,-4,-4
1558433510452395,-2,1,2,3,0,-5,2,1
1558433510452395,-1,2,6,6,5,0,0,-2
1558433510468330,-2,-3,-9,-7,-7,-1,-3,-3
1558433510468330,1,2,5,1,-2,1,-4,-1
1558433510475325,-1,-1,-1,-1,2,3,1,-2
1558433510475325,-3,-4,-7,-3,-11,-8,-7,-2
1558433510483066,1,3,8,7,18,10,5,5
1558433510483066,-3,-4,-3,1,-4,-3,0,0
1558433510491295,3,0,-2,-6,5,9,0,1
1558433510491295,0,-2,4,5,1,0,0,-2
1558433510506159,-4,-4,-12,-8,-8,-8,-3,-4
1558433510506159,0,-1,-3,0,1,0,-2,-3
1558433510513017,0,-1,-2,-5,-5,-4,0,0
1558433510513017,-2,-2,0,5,7,-1,-1,1
1558433510528101,1,1,2,-3,1,2,-1,0
1558433510528101,-1,0,5,0,-9,-6,-2,0
1558433510535070,-2,-2,-1,0,-5,-7,-4,-1
1558433510535070,-1,-4,-9,1,3,3,3,-1
1558433510541828,-2,-1,-8,-16,-5,-6,-2,-1
1558433510541828,-1,0,1,0,3,-1,-2,0
1558433510551028,-1,-2,-3,0,0,1,0,-1
1558433510551028,0,-1,4,2,-7,-2,-2,-1
1558433510565766,-2,-2,1,-2,-2,1,-2,-2
1558433510565766,-2,-6,-14,-4,6,-4,0,-1
1558433510571750,0,0,0,-2,-3,-3,-2,-2
1558433510571750,1,1,2,-4,-6,-1,-1,-3
1558433510587705,-1,-1,-5,0,-4,-2,-6,1
1558433510587705,-2,-1,6,10,7,1,2,-3
1558433510594720,-1,0,3,8,5,5,2,0
1558433510594720,-1,-3,-4,-19,-10,-7,-3,-2
1558433510610641,0,-1,1,1,1,0,0,1
1558433510610641,0,-4,-5,-6,-15,-5,-5,-3
1558433510612635,-2,1,0,3,8,2,3,2
1558433510612635,2,4,9,10,9,0,4,2
1558433510625660,0,0,-12,-5,2,-2,-2,-2
1558433510625660,-1,-1,6,2,-6,-7,-7,-2
1558433510632583,-2,-3,-13,-7,-3,4,4,-3
1558433510632583,-1,2,1,0,-2,4,-2,2
1558433510647543,-2,0,9,1,-7,-9,-5,-2
1558433510647543,-2,0,-6,-8,-3,-1,0,1
1558433510655687,0,-2,1,2,6,5,2,0
1558433510655687,-1,-1,-2,3,1,-1,-1,-1
1558433510671882,1,2,8,9,1,-5,1,-4
1558433510671882,-2,1,-2,-4,-2,-1,-4,0
1558433510673583,-1,-1,1,-4,-7,-6,-5,-4
1558433510673583,-1,-2,-8,-5,0,1,1,-1
1558433510685877,0,0,6,10,6,1,0,-1
1558433510685877,1,1,4,1,3,1,0,3
1558433510692914,0,-2,3,3,0,-1,-1,-1
1558433510692914,-2,-3,-10,-12,-2,0,-1,-2
1558433510708683,1,-1,4,1,-7,-2,-2,-1
1558433510708683,0,-1,-7,-17,-12,-6,-1,2
1558433510714366,2,2,6,5,3,0,-1,2
1558433510714366,-2,-3,-17,-8,-5,2,0,-5
1558433510731322,0,0,0,3,4,1,1,0
1558433510731322,1,-1,4,-4,-8,2,2,0
1558433510732319,-5,-5,-6,0,-13,-8,-6,-4
1558433510732319,-2,-1,3,-1,-9,-4,-2,-1
1558433510745285,3,3,2,1,14,5,5,4
1558433510745285,0,-1,4,11,8,2,-1,-3
1558433510752264,-3,-2,-3,-10,-5,-3,-2,0
1558433510752264,-1,0,6,7,-5,-3,-1,0
1558433510768220,-2,-4,-11,-7,-8,-3,-1,-4
1558433510768220,0,2,5,6,15,4,0,5
1558433510774204,0,0,2,0,1,2,-1,-5
1558433510774204,-1,-3,-4,2,7,0,1,2
1558433510791169,-4,-2,-4,-6,-8,-6,-4,-3
1558433510791169,-1,-3,-5,-6,-2,2,0,-3
1558433510792157,-1,-1,-4,-3,-6,-4,-3,-3
1558433510792157,2,3,19,4,4,-3,-6,-1
1558433510805159,-6,-10,-21,-8,-9,2,-1,-6
1558433510805159,-2,0,2,0,-4,-2,1,0
1558433510812141,-3,-3,-12,-4,-1,-2,0,-1
1558433510812141,2,2,9,3,2,2,1,0
1558433510828058,-1,2,6,4,-2,-5,-5,1
1558433510828058,-2,-5,-6,2,-5,0,-1,-2
1558433510835405,3,1,9,-2,3,6,-1,0
1558433510835405,-1,-3,-10,0,1,-3,-1,-1
1558433510851248,-3,-2,-3,-16,-4,0,0,-2
1558433510851248,-2,0,-3,8,2,2,2,1
1558433510851997,2,2,5,3,8,1,3,2
1558433510851997,-1,-5,-6,-7,-2,-5,-3,1
1558433510865982,1,0,2,8,2,2,-2,-3
1558433510865982,-1,0,1,-5,-1,-1,-2,-4
1558433510872196,-1,1,14,8,-4,1,1,2
1558433510872196,0,-3,-18,-3,1,-2,1,1
1558433510887910,-3,-5,-19,-28,-7,-5,-2,0
1558433510887910,-2,-1,0,-1,-5,-8,-6,-3
1558433510894880,0,-1,-2,-3,-3,-1,0,0
1558433510894880,-3,0,7,4,6,1,0,-3
1558433510910837,0,0,7,10,-2,0,-2,0
1558433510910837,-2,-2,-5,-4,1,4,2,-1
1558433510912833,-1,-2,-10,-2,-6,-11,-6,-2
1558433510912833,-2,-1,10,6,2,5,3,3
1558433510925806,3,3,-1,6,10,9,4,3
1558433510925806,-6,-4,1,4,1,-4,-5,-9
1558433510932779,0,0,-5,-9,-1,1,2,-1
1558433510932779,1,-2,-5,-4,-2,-2,2,0
1558433510947741,1,0,10,0,-11,-6,-1,-2
1558433510947741,-2,-2,-5,-1,-5,-2,-4,2
1558433510954721,-3,-2,-4,-2,2,3,-3,-7
1558433510954721,1,1,-3,-2,-6,-5,-1,1
1558433510970679,-2,-1,4,2,4,2,-2,-2
1558433510970679,0,-2,0,4,-3,-6,-3,-1
1558433510972673,-1,-1,-1,2,-5,-5,0,1
1558433510972673,-1,2,-3,-10,1,1,-1,1
1558433510985638,0,4,6,10,6,-2,4,1
1558433510985638,1,2,-3,-2,-3,-2,0,-1
1558433510992619,-2,-5,3,0,-1,0,0,-1
1558433510992619,0,0,-8,0,1,4,-1,0
1558433511007829,-2,0,-2,-11,-2,-4,-2,1
1558433511007829,-2,-3,-3,2,4,5,2,0
1558433511014564,-2,-1,-7,-20,-7,-4,-1,2
1558433511014564,0,1,14,8,-4,-6,-4,-4
1558433511030518,-4,-7,-11,-4,-7,-7,-5,-5
1558433511030518,-1,0,1,1,7,4,1,4
1558433511032513,1,1,-1,5,-8,-3,-1,-3
1558433511032513,-1,-1,1,-2,0,0,-2,-4
1558433511053457,-1,0,6,9,2,-4,-3,-3
1558433511053457,0,2,-2,-3,4,2,2,0
1558433511055452,-1,-2,-5,4,8,2,-3,-2
1558433511055452,-2,-2,-2,-11,-12,-3,-2,-3
1558433511068419,-3,-2,-4,-1,-7,-5,-2,3
1558433511068419,1,1,-1,-3,0,3,0,-1
1558433511074401,1,2,5,10,11,-1,-1,1
1558433511074401,-2,-4,-2,-3,-8,1,-3,-2
1558433511091355,-2,-1,0,4,2,1,-4,-1
1558433511091355,2,0,4,4,1,2,3,1
1558433511092354,3,5,10,2,-5,-2,-1,0
1558433511092354,-3,-6,-22,-1,11,1,1,-2
1558433511104321,-1,0,5,-13,-9,1,1,-1
1558433511104321,-4,-5,-18,-6,-3,-11,-6,-3
1558433511113305,0,1,9,2,-6,3,4,1
1558433511113305,-1,-1,3,1,2,2,0,0
1558433511128256,1,4,14,8,-8,0,1,-3
1558433511128256,-4,-9,-15,-11,-4,-6,-5,-4
1558433511135239,-2,-3,-6,-8,2,-2,-2,-3
1558433511135239,-1,0,3,-1,-10,-4,-2,0
1558433511151346,2,5,7,1,2,0,-2,2
1558433511151346,-2,-2,3,9,3,1,1,-2
1558433511152196,-3,-4,-14,-19,-3,-2,2,0
1558433511152196,0,2,3,0,-6,-7,-1,4
1558433511165158,1,-2,4,9,2,-2,-3,1
1558433511165158,1,3,9,8,0,-3,0,3
1558433511173139,-5,-8,-21,-8,11,4,-7,-3
1558433511173139,-5,-4,0,-6,-18,-13,-5,-4
1558433511188248,1,-1,-13,-18,1,3,5,1
1558433511188248,-5,-5,-4,2,0,4,-1,-1
1558433511195087,1,4,19,19,13,3,5,-2
1558433511195087,-3,-3,-13,-13,-6,2,-2,-1
1558433511211325,-3,-3,0,14,-9,-1,-3,-4
1558433511211325,2,5,9,-1,20,11,3,0
1558433511212032,-6,-6,-16,-12,-9,-8,0,-1
1558433511212032,-1,-2,7,0,7,-1,-1,-3
1558433511225002,2,2,5,2,-8,-2,5,3
1558433511225002,3,4,1,4,-5,0,1,3
1558433511233974,0,-2,-13,-3,-9,-5,0,3
1558433511233974,-3,-4,-6,-1,12,9,2,-1
1558433511247937,-1,1,8,8,-2,1,-4,-1
1558433511247937,-5,-6,-3,-23,-3,5,10,-2
1558433511254919,2,1,-8,3,-17,-7,-8,2
1558433511254919,4,4,5,-3,25,14,8,3
1558433511271098,-3,-8,-12,-8,3,-1,0,-3
1558433511271098,3,6,18,10,-19,-13,-4,-1
1558433511273114,-5,-9,-19,6,29,5,-2,-1
1558433511273114,3,8,19,22,4,-1,-4,-1
1558433511284837,-2,-6,-21,-25,7,1,-10,-1
1558433511284837,-3,-7,-14,-20,-27,-12,3,-2
1558433511293814,-3,-3,2,-1,0,4,3,-6
1558433511293814,-3,1,8,5,-16,-18,-13,-11
1558433511315908,6,10,23,30,52,18,8,4
1558433511315908,-3,-6,-22,-14,-14,-9,-4,2
1558433511317750,3,9,30,18,13,17,9,3
1558433511317750,-9,-11,-27,-23,-19,-2,-3,-6
1558433511330717,2,4,1,-10,-19,-1,-6,-2
1558433511330717,-4,-7,-1,10,30,4,-6,-3
1558433511337817,-2,-2,6,1,3,-3,-11,-1
1558433511337817,9,7,5,7,-18,5,24,9
1558433511344679,-10,-14,-34,-27,-4,-4,2,1
1558433511344679,5,10,30,14,0,4,-2,3
1558433511353654,-5,-11,-24,-5,-39,-11,-14,-6
1558433511353654,-6,-5,0,-10,4,-8,-13,-7
1558433511367617,-4,-6,-21,16,57,9,14,5
1558433511367617,0,4,9,3,-9,-12,-8,-2
1558433511374598,-2,0,9,-7,-16,4,-1,-2
1558433511374598,1,2,3,27,18,10,2,4
1558433511390554,0,2,8,-16,-20,-11,0,-2
1558433511390554,-1,3,-2,-13,-22,-11,-11,-6
1558433511397541,1,1,4,2,-5,1,8,3
1558433511397541,-3,-5,4,7,-15,-26,-26,-9
1558433511404517,-1,-6,-24,-11,-12,-7,0,3
1558433511404517,9,11,17,15,33,17,12,9
1558433511413494,0,1,-6,-11,8,3,7,-1
1558433511413494,2,-5,-11,-5,-18,4,9,7
1558433511427663,0,9,35,50,36,-8,-15,-7
1558433511427663,-6,-12,-26,-31,-47,-8,-4,-2
1558433511434440,-2,-4,-7,-5,19,2,5,0
1558433511434440,-4,-7,-13,2,-7,-10,-7,0
1558433511450393,-4,-4,4,1,8,6,3,-7
1558433511450393,-4,-4,-7,18,47,7,-7,-4
1558433511457579,3,7,13,-26,-26,-21,-3,5
1558433511457579,-3,-10,-18,-10,10,11,-2,3
1558433511464358,-5,-10,-12,-9,-39,-3,-2,0
1558433511464358,-8,-3,3,4,-16,-8,1,-14
1558433511473461,0,-1,4,12,53,13,0,-2
1558433511473461,1,7,7,1,6,2,-10,-2
1558433511488294,0,-4,-9,-6,-20,0,5,3
1558433511488294,-6,-8,-9,-3,-12,-7,5,-1
1558433511495283,-6,-4,-6,2,-19,-12,1,-6
1558433511495283,0,6,14,10,10,-2,-3,-4
1558433511510233,3,6,10,-5,-24,-1,-8,-7
1558433511510233,7,7,10,-7,-6,5,8,9
1558433511517216,-4,-3,-14,-5,15,11,-5,2
1558433511517216,4,7,13,9,21,5,7,1
1558433511533174,-1,-2,-6,-23,-43,4,12,0
1558433511533174,2,0,-1,2,14,0,-5,2
1558433511535168,-4,-1,1,-11,-38,-30,-19,-9
1558433511535168,-1,0,4,4,-21,-15,2,-2
1558433511548136,3,4,12,6,29,15,3,-2
1558433511548136,3,3,12,33,19,16,12,6
1558433511555115,0,-4,-27,-35,-4,13,3,-5
1558433511555115,-3,-5,-24,-32,-18,-8,-7,-1
1558433511570280,0,-1,-1,10,18,3,6,4
1558433511570280,4,5,9,16,2,-7,-5,-1
1558433511577058,4,6,20,22,0,7,-4,2
1558433511577058,4,6,12,13,-1,6,15,6
1558433511593292,-2,-8,-8,1,-26,-15,-14,-2
1558433511593292,0,-1,-13,-25,21,2,9,5
1558433511595007,-6,-1,7,9,-23,-15,3,-3
1558433511595007,-5,-4,-6,-9,28,6,-5,-8
1558433511607978,-2,-1,10,21,-16,3,5,3
1558433511607978,-9,-11,-17,-10,2,-13,-23,-6
1558433511614963,0,0,14,9,9,7,8,-3
1558433511614963,-8,-9,-7,-4,-2,-9,-4,-6
1558433511629914,5,12,22,3,2,-7,-7,-5
1558433511629914,7,6,-4,4,3,-4,-5,4
1558433511636897,0,-5,-14,-1,16,31,19,9
1558433511636897,2,3,6,-1,10,-6,-2,7
1558433511653885,-10,-8,-15,-14,22,-17,-14,-18
1558433511653885,-3,2,28,3,-51,12,3,-4
1558433511654848,2,-1,-19,-5,11,-13,-1,1
1558433511654848,-1,-5,-9,-8,7,-6,0,4
1558433511666815,-1,3,8,-8,-18,-3,-3,-6
1558433511666815,-4,-1,1,-6,-4,-6,0,-5
1558433511675794,-2,-1,4,8,4,-1,-9,0
1558433511675794,0,-3,-10,-8,-11,8,14,4
1558433511690752,1,-1,-1,0,9,-10,5,5
1558433511690752,-5,-2,-4,-19,-19,-9,-16,-12
1558433511697749,-4,-7,1,-7,-42,-1,12,2
1558433511697749,1,5,15,3,1,4,2,-1
1558433511713692,-4,-9,-24,-32,-10,-6,-17,1
1558433511713692,1,-1,1,10,13,-4,3,1
1558433511714688,-1,-4,-5,1,18,-5,-17,-8
1558433511714688,-1,-2,1,15,21,10,10,-1
1558433511727668,1,2,0,-1,-21,-8,-1,6
1558433511727668,0,-2,-9,-18,-16,-5,-4,3
1558433511735634,3,8,25,18,37,9,4,1
1558433511735634,-8,-13,-28,-20,-16,6,-2,-8
1558433511750593,-3,-4,-1,24,14,4,-9,-8
1558433511750593,1,0,-5,-17,-10,1,4,2
1558433511757576,-2,-4,-5,14,2,-21,-34,-2
1558433511757576,-2,0,3,2,-11,12,19,1
1558433511773530,-2,-7,-12,-12,-6,-2,1,0
1558433511773530,4,3,4,7,16,4,0,5
1558433511774527,-5,-1,0,-12,-10,-19,-13,-16
1558433511774527,-1,2,13,24,-11,1,-9,-5
1558433511787493,-1,-2,-11,-15,-4,2,-3,0
1558433511787493,-7,-11,-14,-13,11,3,-3,-7
1558433511796470,2,-1,-7,0,-19,-1,4,3
1558433511796470,2,2,0,-6,19,-3,-6,2
1558433511810432,2,6,10,11,4,-5,-2,3
1558433511810432,2,2,2,10,0,3,-3,0
1558433511817413,0,-2,-12,-24,14,16,20,2
1558433511817413,-6,-9,-3,-9,-54,-25,-15,-4
1558433511833388,1,4,7,5,10,3,11,0
1558433511833388,-5,-8,-19,-12,12,16,3,-7
1558433511835365,-4,-9,-24,-4,-9,-18,-5,-3
1558433511835365,8,8,5,-4,9,9,7,10
1558433511847337,-4,0,5,5,-12,-4,-4,-3
1558433511847337,-3,-4,-3,1,2,-8,-4,-6
1558433511856309,0,3,13,-1,-5,8,14,2
1558433511856309,-5,-5,-7,-6,2,-18,-12,-12
1558433511870272,-6,-5,-1,11,-20,-2,-12,-3
1558433511870272,1,1,-5,-6,-2,7,13,1
1558433511877253,1,4,11,8,-2,0,-5,3
1558433511877253,-2,0,-1,10,14,13,8,2
1558433511893211,3,3,1,-5,16,9,6,1
1558433511893211,-2,0,7,12,0,-17,-10,-2
1558433511895205,5,6,5,-8,-22,3,7,8
1558433511895205,-2,1,5,4,-10,1,-1,-2
1558433511907174,-2,-3,-9,-10,5,5,-1,-4
1558433511907174,-4,-9,-11,-8,14,-9,-4,-1
1558433511923130,-5,-3,2,5,-20,-14,-10,-4
1558433511923130,4,7,8,8,5,-3,-1,0
1558433511930113,3,3,1,-4,3,16,13,8
1558433511930113,0,2,10,20,5,0,-5,-1
1558433511937094,-6,-3,-5,-14,-11,-4,-18,-11
1558433511937094,-2,-6,-7,0,5,-6,-3,0
1558433511953057,4,5,17,5,15,-5,3,8
1558433511953057,-3,-10,-45,-19,-19,-4,0,2
1558433511955046,6,8,23,29,33,15,8,8
1558433511955046,0,-2,-12,-8,0,7,-3,-8
1558433511967013,-5,-6,-3,-2,4,3,20,3
1558433511967013,-1,1,12,9,-17,-9,-11,-3
1558433511975990,0,-3,-6,-2,10,6,9,3
1558433511975990,-2,2,4,4,19,4,-3,1
1558433511989952,0,-2,-3,-6,-26,-10,-7,-2
1558433511989952,-5,-3,-4,-4,1,0,1,-2
1558433511996936,-5,-4,-6,-2,-11,-15,-13,-12
1558433511996936,-2,-1,2,-6,-7,-1,-6,-4
1558433512013889,1,-2,-5,7,17,6,2,3
1558433512013889,1,3,6,-4,-1,2,7,5
1558433512014890,-2,0,-2,-2,-7,-1,-4,-6
1558433512014890,-2,-3,-4,-5,-5,-5,-4,-4
1558433512026852,0,2,-1,1,1,-2,-3,-3
1558433512026852,0,-2,4,1,-8,-6,-8,2
1558433512035831,3,3,0,1,15,6,11,7
1558433512035831,-3,-5,-4,1,-8,-2,-2,-2
1558433512050790,-1,-1,-4,-15,2,7,-2,-6
1558433512050790,-1,2,10,12,9,1,0,-5
1558433512056772,-3,-6,-8,-6,-10,-7,-6,-1
1558433512056772,0,2,0,-4,-4,-6,5,1
1558433512073729,-3,-2,-1,5,4,4,-1,-3
1558433512073729,2,0,1,-5,-4,6,0,-1
1558433512074725,-1,-1,0,-2,-6,-7,-4,1
1558433512074725,1,2,-1,-6,-7,-5,1,6
1558433512086698,-1,-3,-2,6,5,-1,-4,-3
1558433512086698,-3,-1,-1,7,-2,-2,-1,-5
1558433512095669,-1,-1,-2,-6,-9,-4,1,1
1558433512095669,-3,-2,1,-3,11,0,0,-5
1558433512110629,-1,-3,-7,-6,-15,0,0,2
1558433512110629,1,2,2,5,8,3,6,3
1558433512117618,-2,-4,-4,0,-2,-2,0,-7
1558433512117618,-1,-3,-8,-12,-8,-5,-3,4
1558433512132569,-1,-3,-1,-1,3,-6,-3,-4
1558433512132569,-3,-1,-3,-5,-3,2,0,-4
1558433512139551,1,6,22,14,1,3,2,1
1558433512139551,0,-1,-3,17,5,3,2,-1
1558433512147534,-6,-9,-22,-38,-18,-14,-7,-2
1558433512147534,0,-2,-13,-2,1,3,3,5
1558433512156508,0,1,4,6,12,-1,-6,-2
1558433512156508,1,1,7,-1,3,10,4,0
1558433512170470,4,5,12,16,9,-3,4,5
1558433512170470,-3,-1,-5,-8,-3,-1,-2,0
1558433512177451,-2,2,-1,-2,-5,-3,-4,-6
1558433512177451,-2,-3,-4,0,-1,2,-3,-4
1558433512193409,-5,-7,-4,3,-10,-7,-10,-7
1558433512193409,1,1,2,-5,3,-1,3,1
1558433512195404,0,2,0,4,3,10,4,1
1558433512195404,0,1,-5,-5,-7,-2,-4,-2
1558433512207371,0,0,-2,-6,11,2,1,4
1558433512207371,-1,0,7,5,-4,0,-1,-4
1558433512216348,-2,-4,-8,-7,-8,-8,-3,1
1558433512216348,2,0,-3,-13,-4,0,0,-2
1558433512230309,-3,0,3,6,-1,1,0,-4
1558433512230309,-2,-3,-5,-5,3,1,-2,-3
1558433512238289,0,0,-4,2,10,3,1,2
1558433512238289,-1,-2,-2,-4,-9,-10,-2,1
