timestamp,emg1,emg2,emg3,emg4,emg5,emg6,emg7,emg8
1558434294750168,4,7,18,10,11,1,4,3
1558434294750168,2,6,12,9,-1,-1,-5,-3
1558434294750168,3,9,9,15,18,10,2,2
1558434294750168,-5,-6,-22,-30,-14,-4,-3,-3
1558434294751165,-8,-7,-11,-4,-9,-10,-6,-7
1558434294751165,-3,-9,-8,-4,0,3,10,1
1558434294755154,0,0,0,-9,-4,-5,5,0
1558434294755154,8,14,24,18,2,-2,-5,1
1558434294761149,-1,2,-18,-14,-2,6,-3,-2
1558434294761149,-2,1,10,-1,-6,-10,-7,-3
1558434294770115,2,-1,-9,-8,3,5,0,-1
1558434294770115,-6,-13,-7,0,-6,-8,2,0
1558434294778093,5,0,37,21,-1,-4,-9,1
1558434294778093,-8,-1,-28,-2,-1,-7,-4,-3
1558434294791058,-3,-7,-13,-22,-6,-1,-1,-3
1558434294791058,6,20,1,3,-5,-4,-13,-5
1558434294803026,-7,-12,-7,-2,-3,4,5,-1
1558434294803026,1,-4,-9,-11,1,-1,-4,0
1558434294806018,7,24,38,23,6,0,1,4
1558434294806018,-8,-29,-32,-15,-7,-8,-10,-4
1558434294829953,-2,4,-8,-9,1,4,8,0
1558434294829953,-2,-12,0,-6,-2,0,-1,-2
1558434294829953,8,7,6,8,-3,0,1,5
1558434294829953,0,10,18,12,5,1,4,2
1558434294876828,-6,-13,-2,2,5,9,0,-6
1558434294876828,4,-4,-10,-10,-3,-7,-5,-4
1558434294876828,-1,-14,-2,3,-4,-4,2,-1
1558434294876828,-2,4,15,7,0,-4,2,-3
1558434294877827,9,26,17,16,8,8,1,3
1558434294877827,-4,0,-20,-18,-7,-7,1,-1
1558434294880818,-6,-8,0,-5,-9,-4,-4,-4
1558434294880818,8,17,4,1,9,7,6,1
1558434294888796,-10,-32,-37,-31,-21,-13,-10,-7
1558434294888796,-1,10,27,22,10,9,0,-2
1558434294897773,-3,-6,-32,-18,-8,-10,-11,-4
1558434294897773,-1,-5,3,4,-3,1,-9,-3
1558434294903757,4,28,13,9,10,-3,11,6
1558434294903757,0,-11,8,5,2,-5,4,5
1558434294920711,2,-2,22,11,6,8,3,0
1558434294920711,-7,-3,-20,-4,3,6,-3,3
1558434294926696,-4,0,-25,-26,-13,0,-4,-4
1558434294926696,-3,-17,-4,-8,-10,-5,-11,-7
1558434294935671,8,17,21,17,8,6,3,5
1558434294935671,2,-2,6,3,1,-2,3,0
1558434294948637,1,8,15,11,4,2,1,0
1558434294948637,1,11,-4,-7,-4,-3,-4,-2
1558434294957613,2,-4,-3,-3,0,1,3,0
1558434294957613,1,3,7,14,7,5,-1,4
1558434294963598,0,-6,-5,-8,-2,0,2,0
1558434294963598,-10,-25,-13,-8,-5,-3,4,2
1558434294980551,0,4,-3,-3,-2,-3,0,-4
1558434294980551,-6,-10,-10,-13,-8,-8,-2,-3
1558434294986535,1,-11,17,12,4,-5,-3,1
1558434294986535,7,27,-6,-5,-3,0,-5,-1
1558434295001495,-3,5,1,0,5,8,4,1
1558434295001495,-15,-28,-22,-9,-6,-12,-1,-5
1558434295017453,6,8,19,3,-3,5,-2,1
1558434295017453,-5,-7,-50,-18,-10,-6,3,-1
1558434295019449,-6,-3,6,1,5,3,-1,-2
1558434295019449,2,1,4,-2,-5,-3,-5,-3
1558434295023436,-3,-5,3,4,-4,-7,-10,-3
1558434295023436,0,-2,16,14,10,12,11,6
1558434295040392,1,2,-6,0,-1,-4,-9,1
1558434295040392,2,2,-11,-15,-4,0,1,0
1558434295046376,-3,-6,-3,-1,-3,0,0,-4
1558434295046376,1,10,14,8,6,6,-6,-3
1558434295061335,2,5,-9,-3,-1,-5,0,0
1558434295061335,-2,-8,13,10,-1,-5,-6,-2
1558434295068316,-3,0,-4,-9,-3,-1,1,-3
1558434295068316,-10,-31,-27,-17,-6,-4,-5,-4
1558434295077292,2,7,5,1,-3,-4,1,-2
1558434295077292,0,7,0,-2,-9,-5,-7,-5
1558434295084275,2,0,-3,0,0,-3,-3,1
1558434295084275,3,-1,18,12,7,7,3,4
1558434295100231,3,1,9,5,4,2,7,2
1558434295100231,0,3,-12,-12,-6,-3,-5,-3
1558434295106217,-2,-2,-3,2,2,4,0,-2
1558434295106217,1,13,17,3,-4,-9,-4,-3
1558434295121176,-4,-16,-11,-10,-6,-8,-2,-2
1558434295121176,2,8,0,2,8,4,-3,-1
1558434295129154,-1,-1,-2,3,6,11,9,2
1558434295129154,4,5,10,8,-2,-3,-1,1
1558434295138129,-5,-5,-7,-1,-3,-4,-1,2
1558434295138129,-1,-3,0,-2,-2,0,1,1
1558434295144116,-3,-4,-3,-1,-3,-6,-4,-2
1558434295144116,-3,4,6,6,2,2,4,-3
1558434295160071,-1,2,-15,-11,-1,4,0,-2
1558434295160071,-4,-26,2,-3,-6,-1,-3,0
1558434295166057,0,7,0,-2,-5,-10,-4,-1
1558434295166057,-1,-17,-7,-5,-7,-7,-6,-2
1558434295181016,1,12,10,5,7,1,-1,0
1558434295181016,7,7,10,11,8,7,11,3
1558434295188994,0,-1,-21,-14,-6,-4,-3,-1
1558434295188994,-4,-2,18,7,2,6,3,-3
1558434295197971,1,7,-15,-10,-6,-7,-6,-3
1558434295197971,-6,-14,1,-2,10,8,3,0
1558434295203954,0,-1,7,10,-3,-3,-1,-1
1558434295203954,4,10,1,2,5,0,0,2
1558434295219912,-6,-10,-1,-6,-7,6,3,-4
1558434295219912,1,2,1,-1,-9,-12,0,1
1558434295225899,1,-1,1,4,7,-4,-1,-2
1558434295225899,-1,6,-17,-14,-7,-2,-4,-2
1558434295240856,-11,-17,16,13,3,2,-1,-1
1558434295240856,-1,10,-27,-24,-15,-7,-9,-3
1558434295248833,-8,-28,-5,-3,-3,-3,1,-3
1558434295248833,2,1,-3,-3,0,-5,-4,-2
1558434295257809,9,9,21,13,11,3,5,4
1558434295257809,-4,3,-2,5,0,3,4,0
1558434295263793,0,2,2,-8,2,9,1,3
1558434295263793,-1,6,-6,-3,-5,1,-5,-2
1558434295279751,-7,-25,-15,-10,2,1,3,-1
1558434295279751,3,16,25,9,4,-1,-6,-4
1558434295286734,0,1,-6,0,1,0,5,2
1558434295286734,-5,-13,-13,-9,-6,-5,1,-1
1558434295301692,-2,-4,8,4,6,12,-10,-3
1558434295301692,2,6,-6,0,-2,-7,-1,2
1558434295317651,-6,-10,8,6,-4,-3,6,-3
1558434295317651,1,3,9,4,-3,-2,-4,-4
1558434295318649,-1,-4,-18,-6,-12,-17,-11,-5
1558434295318649,2,-3,-6,-13,0,9,5,-2
1558434295323633,1,4,2,3,2,5,-4,-1
1558434295323633,-7,0,0,-2,-4,1,-1,1
1558434295340591,-6,-11,2,-4,-6,-6,-8,-6
1558434295340591,-6,-17,5,9,5,-4,-1,-1
1558434295346572,5,20,-7,-2,1,0,2,0
1558434295346572,0,-8,13,9,5,3,-7,-4
1558434295361532,-4,-7,-16,-10,-10,-2,-3,-5
1558434295361532,6,7,8,5,11,4,10,10
1558434295368513,-1,4,5,-4,-8,-8,-2,-4
1558434295368513,1,-3,-14,-11,-4,0,3,2
1558434295377490,-1,10,-3,-1,-7,-3,-10,-6
1558434295377490,1,-3,24,16,1,5,5,1
1558434295383473,-3,2,-31,-17,-4,-4,-10,-2
1558434295383473,1,3,0,0,4,-1,2,-1
1558434295400429,0,-3,8,3,-4,-8,3,-1
1558434295400429,0,1,-4,-2,-4,3,-3,-4
1558434295406413,1,-3,-3,-4,9,5,1,2
1558434295406413,-2,-3,0,0,-5,-3,-2,1
1558434295421373,2,2,1,1,2,7,3,1
1558434295421373,-1,1,-10,-5,-6,-7,-5,-2
1558434295428356,-2,-7,0,0,-6,-5,-9,-3
1558434295428356,0,-4,-1,-2,0,1,0,-1
1558434295437329,1,7,3,-1,4,5,6,4
1558434295437329,-5,-4,-6,-4,-6,1,-3,-7
1558434295451291,-2,-3,4,3,-1,-7,1,1
1558434295451291,-1,0,-1,1,4,-1,1,-2
1558434295460267,4,8,9,8,3,3,5,4
1558434295460267,-5,-7,-15,-15,-8,-4,-8,-5
1558434295466254,-2,-4,-1,-1,0,1,0,0
1558434295466254,1,10,28,24,14,4,2,0
1558434295491185,-3,-4,-26,-23,-7,-4,-1,-4
1558434295491185,-3,-8,-19,-13,-9,-6,-10,-3
1558434295491185,-4,-1,17,-5,-9,-4,1,-3
1558434295491185,3,0,-13,5,9,5,1,3
1558434295498168,1,1,9,0,5,3,1,7
1558434295498168,3,4,5,9,10,7,10,5
1558434295520107,-1,-2,-2,0,-3,2,-3,-2
1558434295520107,0,0,3,2,-3,-2,-3,-2
1558434295521105,1,5,21,19,0,-6,-6,0
1558434295521105,-4,-2,-17,-18,-4,3,-1,-4
1558434295526092,-3,-7,-17,-16,-9,-10,-7,-2
1558434295526092,2,-2,8,4,-1,1,5,0
1558434295541052,-1,-3,-24,-14,-4,0,3,-1
1558434295541052,3,9,18,15,4,-5,-1,0
1558434295549032,-9,-6,12,12,11,9,0,-1
1558434295549032,-7,-9,-14,-11,-6,2,-2,-4
1558434295558006,2,3,11,8,-2,-9,3,-1
1558434295558006,-1,1,-4,2,-1,-5,-3,0
1558434295570975,5,3,-4,0,-3,-1,-4,1
1558434295570975,2,3,4,6,3,-2,4,4
1558434295579956,-4,-3,-4,-10,-7,-2,-9,-5
1558434295579956,-5,-4,-9,-8,3,0,1,-1
1558434295585933,1,2,-4,1,5,8,7,4
1558434295585933,-2,-2,1,-4,-3,2,4,-3
1558434295600892,-1,2,4,6,1,2,-6,-5
1558434295600892,-3,-6,-5,-1,1,-1,-2,1
1558434295608874,2,2,6,5,9,3,9,4
1558434295608874,-1,0,0,4,0,-6,-5,0
1558434295617846,0,-2,-4,-6,-2,0,-1,1
1558434295617846,-2,-6,-6,-6,-13,-8,-3,-1
1558434295630813,-1,-1,0,5,3,2,-2,-6
1558434295630813,1,-2,-17,-9,-8,-11,0,-2
1558434295639788,-3,-2,-1,-6,2,7,6,1
1558434295639788,0,-2,7,4,1,2,-6,-2
1558434295646769,2,0,2,1,-8,-11,-5,1
1558434295646769,-5,-5,-11,-10,-9,-9,-9,-2
1558434295661729,-1,-1,-4,-2,-6,-6,2,0
1558434295661729,-2,-1,5,5,10,13,5,-1
1558434295668713,-5,-5,-6,-1,-7,-4,-3,-5
1558434295668713,1,1,2,-2,1,-3,0,1
1558434295677690,0,-2,1,-1,2,-1,-4,1
1558434295677690,-2,-2,0,-4,-12,-7,-3,-7
1558434295691661,-1,-3,-9,-1,-1,2,-2,-1
1558434295691661,0,3,8,0,5,5,2,4
1558434295700626,0,0,2,6,7,6,15,2
1558434295700626,0,-1,-10,-10,-10,-10,-10,-1
1558434295706609,-1,0,10,4,6,3,5,-1
1558434295706609,-3,-2,-4,0,-1,0,-1,-3
1558434295722567,0,-1,2,2,-1,-2,-4,1
1558434295722567,0,1,0,-1,-2,6,4,1
1558434295728563,0,-1,3,4,-2,-4,0,-2
1558434295728563,-1,0,-7,-7,-1,0,-5,-6
1558434295737528,-3,-3,-9,-10,-7,-9,-6,-3
1558434295737528,-2,1,11,5,8,6,7,-2
1558434295751490,-1,-4,-7,0,-7,-2,-8,-1
1558434295751490,-5,-9,-18,-19,-5,3,-7,-8
1558434295760468,3,2,11,7,3,-5,1,4
1558434295760468,0,-3,-10,-4,-10,-6,3,0
1558434295766450,1,2,4,4,1,-1,0,4
1558434295766450,2,3,12,10,6,11,6,0
1558434295782406,-2,-1,-5,2,6,6,-2,-3
1558434295782406,0,0,7,5,3,-3,-6,-3
1558434295788391,-6,-6,-12,-17,-21,-15,-13,-7
1558434295788391,0,1,4,5,3,3,1,2
1558434295797378,0,1,5,3,9,13,7,-3
1558434295797378,-1,-2,1,4,10,3,5,0
1558434295811339,1,-1,0,1,5,8,-1,-2
1558434295811339,-3,-2,1,0,0,0,-1,-1
1558434295820305,-2,-2,0,-7,-7,3,-5,-1
1558434295820305,0,-3,-6,-4,-6,-5,2,3
1558434295826289,1,0,-1,-2,3,-6,0,2
1558434295826289,-2,0,3,1,1,-4,-2,0
1558434295843247,2,1,-1,-1,-3,-11,-4,1
1558434295843247,-4,-5,-9,-3,-6,0,1,-2
1558434295849312,1,-1,3,-3,6,2,1,2
1558434295849312,3,6,8,8,2,-6,2,5
1558434295864301,-3,-9,-15,-3,-4,-3,-8,-4
1558434295864301,2,9,20,9,6,6,-2,-5
1558434295871170,-5,-3,-23,-13,3,5,3,-1
1558434295871170,-3,-11,-8,-6,-9,2,1,1
1558434295887127,-3,18,-3,-10,-13,-8,-4,-3
1558434295887127,-6,-32,1,3,10,3,3,4
1558434295888127,5,5,1,3,-2,0,2,0
1558434295888127,-4,-3,1,-2,0,6,-7,-7
1558434295903085,3,1,7,6,1,-5,2,3
1558434295903085,-2,9,-3,-1,-12,-12,5,1
1558434295909073,4,5,3,2,9,4,5,1
1558434295909073,8,15,-2,-3,-1,-5,-2,2
1558434295924057,-13,-33,-14,-6,-6,0,-6,-4
1558434295924057,9,28,24,7,11,10,12,2
1558434295931041,-14,-41,-16,-8,-4,-2,-9,-5
1558434295931041,6,10,0,-6,-11,-9,-1,0
1558434295946965,-8,0,-11,-2,3,8,4,0
1558434295946965,0,-8,-13,-18,-16,-10,-16,-6
1558434295947963,-8,-3,-2,-5,-9,-4,1,-4
1558434295947963,-1,1,18,8,5,2,-1,-2
1558434295962925,1,-21,-4,8,12,4,1,-3
1558434295962925,-1,27,-10,-10,-6,-4,-7,-2
1558434295968908,-10,-16,14,7,-2,1,0,-2
1558434295968908,-6,-17,-6,-3,-1,0,-12,-5
1558434295984359,9,24,18,8,2,-7,9,6
1558434295984359,1,-11,-4,-1,-3,-4,-8,-1
1558434295992289,3,16,6,7,5,3,3,-1
1558434295992289,-6,1,11,-1,-3,-4,-9,-2
1558434296007108,-3,-7,-32,-23,-17,-10,2,-3
1558434296007108,0,2,-10,-5,2,2,-7,-3
1558434296007806,2,-3,-3,-4,-12,-9,-8,4
1558434296007806,-4,5,2,2,7,5,2,-5
1558434296022778,-1,-6,9,10,3,1,-9,-2
1558434296022778,-7,-7,-4,3,0,-9,1,-2
1558434296029045,8,5,15,8,5,5,1,2
1558434296029045,8,11,-7,3,9,10,16,4
1558434296043956,-11,-23,-9,-8,-4,-1,-15,-9
1558434296043956,-6,-9,10,5,-5,-4,-5,-3
1558434296051690,0,-3,-30,-23,-11,-14,-5,-3
1558434296051690,-1,2,4,-2,-9,-9,3,1
1558434296067660,8,24,8,9,10,3,1,0
1558434296067660,-4,-17,1,5,1,6,-1,-1
1558434296067660,-2,6,-9,-11,-16,-14,-10,-7
1558434296067660,6,9,16,14,2,0,3,1
1558434296082604,-8,-6,-31,-21,-9,-9,-3,-1
1558434296082604,-2,-4,9,3,-1,-3,-13,-1
1558434296088591,4,22,13,5,4,3,14,3
1558434296088591,-18,-40,-33,-21,-7,-3,-5,-8
1558434296103548,3,-6,14,13,-1,-3,-1,-1
1558434296103548,0,6,2,-6,4,0,-2,2
1558434296111554,1,10,19,17,9,7,4,-1
1558434296111554,11,22,-23,-17,-7,-5,-9,-1
1558434296126485,-4,-7,19,1,-3,-3,5,1
1558434296126485,-5,-19,-22,-5,-13,-11,2,0
1558434296127482,8,13,31,12,10,4,-3,1
1558434296127482,-3,-3,-3,14,8,0,-1,0
1558434296142442,-5,-2,-36,-25,-15,-10,-15,-9
1558434296142442,6,12,4,4,4,8,8,2
1558434296148428,-7,-23,-2,4,5,6,-4,-4
1558434296148428,5,17,49,24,4,-1,3,0
1558434296163388,3,4,-28,-28,-6,-1,3,0
1558434296163388,0,5,1,3,6,1,3,1
1558434296171366,3,2,-7,-4,-6,-5,-7,-5
1558434296171366,-25,-31,-6,-6,-4,-3,-2,-8
1558434296187323,1,-6,21,23,15,19,4,5
1558434296187323,2,6,-7,-13,-4,-1,10,-1
1558434296187323,4,25,7,1,0,3,0,4
1558434296187323,-7,-22,-9,-8,-14,-8,-15,-4
1558434296202284,3,6,15,10,9,2,9,3
1558434296202284,5,12,4,3,3,3,5,-1
1558434296209264,0,-1,3,2,1,6,-1,-4
1558434296209264,-4,-6,-5,-4,-4,-1,1,-2
1558434296224229,-1,-5,-26,-13,-4,2,-7,-5
1558434296224229,4,13,47,23,8,0,-6,3
1558434296231213,-2,-24,-78,-27,-3,2,1,2
1558434296231213,5,12,7,-11,-9,-8,14,5
1558434296247165,0,2,29,21,10,0,-1,3
1558434296247165,-4,-17,-32,-22,-7,2,-2,-3
1558434296248161,-3,2,21,15,11,8,10,1
1558434296248161,3,-3,-16,-13,-9,-8,-14,-2
1558434296263122,0,11,3,1,-6,-4,6,-2
1558434296263122,-3,-10,-1,9,3,-1,-2,3
1558434296277085,-13,-30,-7,-6,1,7,-10,-5
1558434296277085,5,10,4,4,2,3,6,2
1558434296285065,2,16,-13,-19,-3,-9,-2,0
1558434296285065,2,6,22,18,9,12,11,0
1558434296291049,-4,-13,-11,-8,-9,-10,-2,2
1558434296291049,2,2,-16,-9,4,1,0,1
1558434296307054,6,18,24,12,2,10,11,5
1558434296307054,-9,-16,-25,-17,-7,-7,-5,-6
1558434296308004,-2,3,13,8,-6,-9,-3,-5
1558434296308004,2,4,-9,0,5,8,7,3
1558434296322961,-2,-8,0,0,-1,-2,-8,-1
1558434296322961,2,0,-8,-4,-2,2,-3,-1
1558434296328947,-1,8,0,-10,-9,-8,-4,-5
1558434296328947,1,-10,-9,-1,1,-2,-10,-1
1558434296343987,4,5,32,21,7,9,4,-5
1558434296343987,-12,-10,-44,-15,-5,-8,-3,-5
1558434296351128,-4,-12,3,-8,-6,-12,-9,-1
1558434296351128,7,16,22,6,4,4,1,4
1558434296366875,-3,-17,3,2,-5,3,-4,-1
1558434296366875,1,-4,-5,-4,2,-3,7,-1
1558434296367842,-2,-9,-10,-1,-5,2,2,1
1558434296367842,-1,9,3,9,5,5,-2,0
1558434296382800,-2,-2,-7,-7,-1,-4,-1,0
1558434296382800,-4,-2,-15,-14,-11,-6,-15,-7
1558434296388979,1,3,9,6,9,4,0,3
1558434296388979,-5,-10,-12,-6,-11,-8,-2,-7
1558434296403746,3,6,1,0,1,0,5,1
1558434296403746,5,17,18,15,8,5,4,4
1558434296412029,-4,-14,-3,-18,-13,-12,-11,-5
1558434296412029,4,10,27,20,6,2,6,1
1558434296426979,-10,-15,-52,-11,-4,-7,-8,-3
1558434296426979,-6,-20,-6,-15,-14,-13,-4,-1
1558434296433940,12,38,15,14,7,6,3,4
1558434296433940,-16,-21,-15,-9,-7,-4,-6,-4
1558434296442644,0,-4,11,-1,-8,-7,-6,-5
1558434296442644,6,11,15,11,6,6,0,-2
1558434296448862,-3,-3,-12,-7,3,3,1,-1
1558434296448862,8,2,-3,-2,2,-1,1,5
1558434296463802,-4,0,-1,-8,-7,-4,-3,-1
1558434296463802,0,-4,12,11,7,1,-5,1
1558434296471780,-5,5,12,10,5,3,-2,-5
1558434296471780,-8,-21,-32,-19,-3,4,-8,-5
1558434296486528,-1,-7,4,5,-3,-11,4,1
1558434296486528,5,14,16,4,-2,-4,-8,1
1558434296494564,-6,-12,-25,-20,-4,10,1,-4
1558434296494564,9,16,25,13,-1,-4,1,1
1558434296502488,-3,-7,-13,-12,-9,-12,-7,0
1558434296502488,-4,-22,2,4,7,1,8,4
1558434296508658,-3,10,5,6,-1,-3,3,-1
1558434296508658,-5,-15,13,3,-4,-8,-6,-4
1558434296524423,7,32,8,8,7,16,5,4
1558434296524423,-18,-47,-40,-22,-13,-5,-9,-11
1558434296531629,6,1,11,6,4,-2,-5,6
1558434296531629,8,12,0,-3,1,-5,18,7
1558434296546562,1,1,15,10,6,1,-6,-1
1558434296546562,3,20,19,5,-1,1,-7,1
1558434296553352,-1,-10,-15,-1,0,-2,0,-2
1558434296553352,4,16,12,7,-10,-7,-7,-3
1558434296569305,-11,-17,-21,-18,-4,-2,-1,-4
1558434296569305,2,10,25,19,5,2,6,3
1558434296570311,0,-14,-37,-24,-13,-11,-1,-2
1558434296570311,0,1,-23,-9,-2,1,-8,-2
1558434296584264,-4,-10,-3,-6,-4,-4,-3,-3
1558434296584264,8,17,-10,-9,-6,-1,0,0
1558434296591244,-15,-15,24,17,8,3,5,0
1558434296591244,-4,-9,-12,-7,0,-4,-10,-5
1558434296606204,-6,-7,-2,2,-3,-10,-1,0
1558434296606204,14,11,27,24,10,10,10,2
1558434296614182,-8,1,-38,-31,-16,-9,-6,-8
1558434296614182,-2,-15,-9,-7,1,5,2,2
1558434296629384,0,11,10,3,0,-1,-9,-3
1558434296629384,3,9,6,0,-1,-4,5,1
1558434296630141,1,12,12,11,5,-7,-7,0
1558434296630141,-3,1,37,22,7,5,4,-2
1558434296645099,-2,-11,-72,-37,-15,-3,-5,-6
1558434296645099,-7,-9,-4,-10,-7,-3,-9,-7
1558434296651324,-1,-8,-17,-2,0,3,10,3
1558434296651324,3,13,-3,-4,2,-2,-3,3
1558434296666177,3,-12,36,20,8,4,10,4
1558434296666177,0,8,-14,-13,-9,-2,-5,-4
1558434296674159,0,2,2,1,-3,3,1,-3
1558434296674159,-2,2,2,0,-3,-9,-3,-2
1558434296690089,-2,-10,7,4,4,4,6,1
1558434296690089,0,-3,-13,1,9,8,10,2
1558434296690089,26,45,100,55,22,16,16,11
1558434296690089,-6,-21,-85,-60,-11,2,-1,-2
1558434296703974,-3,8,-12,-17,-25,-18,-11,-8
1558434296703974,-21,-41,-16,-21,-14,-9,-7,-6
1558434296711926,0,-5,-4,2,-1,-5,-6,1
1558434296711926,4,9,36,24,13,12,11,2
1558434296726115,5,7,0,4,7,8,6,1
1558434296726115,0,19,-3,-3,-5,-4,-2,-3
1558434296734101,1,-7,7,9,-2,-2,1,3
1558434296734101,-7,-8,-12,-13,-15,-17,-3,-2
1558434296750027,1,8,38,27,9,3,-4,3
1558434296750027,-14,-28,-52,-31,-17,-6,-7,-9
1558434296750027,-4,-4,-1,-7,2,3,1,-4
1558434296750027,-2,-14,-13,-5,0,-2,-2,0
1558434296763999,8,14,31,13,6,3,1,1
1558434296763999,6,10,12,13,5,0,-1,1
1558434296771947,-2,-3,-16,-10,-9,-3,-5,-7
1558434296771947,-7,-3,7,4,2,6,-9,-3
1558434296786722,2,9,14,9,7,-4,1,1
1558434296786722,7,5,5,3,0,-2,-1,4
1558434296793703,1,8,10,3,1,3,4,-1
1558434296793703,-12,-18,-49,-25,-20,-12,-8,-10
1558434296809665,-13,-28,-26,-15,-3,6,-1,-6
1558434296809665,-1,7,6,-2,2,-5,-7,-3
1558434296810664,-5,-14,-2,-5,-5,-6,-6,0
1558434296810664,12,25,37,23,14,13,7,5
1558434296823622,0,1,-9,-6,-6,-1,-8,-1
1558434296823622,1,8,0,-6,-11,-8,-1,-2
1558434296831601,4,3,7,13,15,7,3,7
1558434296831601,-5,-13,-2,0,-5,-10,4,3
1558434296846841,0,-3,-6,1,2,2,3,3
1558434296846841,-7,4,24,15,3,1,2,-2
1558434296853542,-3,-8,-13,-14,-11,-1,-9,-10
1558434296853542,-6,-11,-39,-22,-6,2,6,0
1558434296869499,5,1,8,6,5,-6,3,2
1558434296869499,5,9,11,6,-2,1,-1,0
1558434296870784,1,6,-1,1,6,8,7,1
1558434296870784,-1,8,7,8,7,1,-2,1
1558434296884554,-4,-13,-15,-18,-14,-5,-11,-10
1558434296884554,-1,-6,-9,-6,3,1,-2,-1
1558434296891734,-6,-19,-8,-8,-5,-7,-4,0
1558434296891734,5,15,33,19,2,1,0,-1
1558434296906707,2,4,1,0,3,-3,1,1
1558434296906707,6,4,16,15,11,3,4,7
1558434296914504,-5,-7,-38,-29,-18,-18,-12,-7
1558434296914504,1,5,15,4,-3,-1,-6,-4
1558434296929550,-1,1,-9,-5,-6,-1,-1,-2
1558434296929550,-6,-14,1,-1,2,4,0,0
1558434296930342,3,8,-1,2,12,4,4,4
1558434296930342,-5,-9,8,9,4,4,-3,-3
1558434296944457,-4,1,2,-2,0,-4,4,-1
1558434296944457,2,3,-6,-3,-4,-2,-4,-1
1558434296951437,-8,-13,6,5,-7,-11,0,1
1558434296951437,1,0,-8,-5,8,7,-1,1
1558434296966459,-2,-7,7,2,-1,2,-5,-1
1558434296966459,3,1,-4,-1,-5,-5,-2,-3
1558434296974227,1,1,-10,-5,3,6,8,2
1558434296974227,-3,-3,13,9,3,10,1,-5
1558434296989218,1,18,30,17,9,-6,5,5
1558434296989218,-8,-15,-50,-25,-14,-7,-7,-3
1558434296990176,-9,-3,5,-3,-4,-5,-4,-4
1558434296990176,-1,-6,4,-4,-1,-1,0,-3
1558434297004137,3,0,-2,3,3,8,0,2
1558434297004137,4,9,27,12,5,1,5,3
1558434297019099,-4,-9,-29,-13,-9,-9,-12,-5
1558434297019099,1,0,-1,-5,-6,-6,6,3
1558434297026079,-4,-9,-2,-5,-3,-1,-7,-5
1558434297026079,2,-5,16,10,8,6,8,-1
1558434297034059,0,2,4,2,-5,-12,-16,-2
1558434297034059,0,-1,-5,-1,7,5,11,3
1558434297049454,0,6,2,-1,-4,0,2,-1
1558434297049454,-2,1,-7,-1,2,-1,-3,1
1558434297051183,3,5,12,5,2,14,6,-1
1558434297051183,0,2,13,7,0,-8,-3,-2
1558434297063983,-8,-12,-41,-22,-13,-7,-8,-6
1558434297063983,-1,2,5,1,1,2,-6,-1
1558434297072218,0,-3,-11,-6,-1,-4,7,1
1558434297072218,3,-1,6,2,-2,-9,-5,2
1558434297085921,-2,-1,-1,0,1,4,4,-3
1558434297085921,0,1,3,-1,6,4,7,2
1558434297094367,4,2,17,7,-1,-5,-4,0
1558434297094367,-7,-8,-33,-13,-10,3,-6,-5
1558434297109856,-2,-5,-3,-4,-8,-7,-5,-2
1558434297109856,2,3,5,-1,-6,-12,-4,0
1558434297109856,3,6,1,0,6,8,9,3
1558434297109856,-3,-11,-3,1,3,4,5,-2
1558434297124288,4,7,10,2,4,5,2,1
1558434297124288,-2,-2,4,7,-4,-4,-1,0
1558434297132141,-3,-2,-22,-16,-5,-8,-3,-4
1558434297132141,-2,-4,-10,-1,1,5,3,2
1558434297146988,-4,-12,4,2,0,0,-1,-3
1558434297146988,-2,-4,6,-2,-3,3,-6,-5
1558434297153971,4,9,18,13,3,2,1,0
1558434297153971,1,7,25,9,-1,-9,-6,1
1558434297169696,-4,-4,-44,-16,-3,-3,-2,-2
1558434297169696,-5,-8,-43,-29,-10,-9,-7,-2
1558434297169696,-13,-7,6,-1,-11,-7,-6,-6
1558434297169696,2,2,10,4,6,4,5,-1
1558434297183878,3,9,17,12,6,3,5,3
1558434297183878,-1,-8,2,3,3,3,5,1
1558434297191858,-2,-9,-14,-5,-2,1,-3,-3
1558434297191858,2,5,10,0,-3,-5,-6,-2
1558434297206832,-4,-10,-3,-1,1,0,9,1
1558434297206832,5,14,8,9,8,7,6,0
1558434297222681,-1,-7,19,12,1,-8,-8,1
1558434297222681,-1,5,-20,-11,-5,0,4,-1
1558434297229739,-2,-7,21,16,8,4,1,0
1558434297229739,-11,-17,-45,-31,-14,-10,-14,-4
1558434297230544,7,7,19,10,5,7,6,6
1558434297230544,0,-2,-14,-7,-2,0,2,-2
1558434297243503,3,6,14,4,-2,-2,-5,-3
1558434297243503,-4,0,1,1,-1,3,0,-4
1558434297251477,5,22,8,6,2,-1,8,2
1558434297251477,-8,-30,-20,-13,-9,-2,-3,-2
1558434297266750,6,12,25,6,7,5,6,1
1558434297266750,-8,-11,-18,-10,-7,-5,2,2
1558434297273696,-1,7,-6,-5,-1,-1,-3,-2
1558434297273696,-1,-6,1,-8,0,1,1,-1
1558434297289679,-2,-5,6,11,5,-1,-2,0
1558434297289679,-4,-17,-24,-17,-4,-3,-2,-6
1558434297290374,1,-11,16,10,10,7,-2,-1
1558434297290374,-2,1,-5,0,-6,-4,-6,2
1558434297304490,-3,0,-14,-8,-6,-6,-16,-4
1558434297304490,8,20,28,15,7,5,10,3
1558434297311615,-8,-1,-11,-11,-10,-10,-13,-8
1558434297311615,-9,-11,5,8,5,8,-1,-3
1558434297326551,1,1,-12,-13,-9,-5,0,0
1558434297326551,5,4,-6,4,6,2,7,4
1558434297334552,7,9,9,3,1,1,3,3
1558434297334552,2,19,20,17,1,-7,-5,-6
1558434297349460,-2,-3,-45,-30,-14,-7,-6,-3
1558434297349460,-3,-1,13,3,1,1,-2,-5
1558434297357412,-9,-27,-16,-7,1,-2,-5,-3
1558434297357412,5,9,11,10,0,-3,7,1
1558434297364374,-3,-11,16,6,1,0,4,0
1558434297364374,-1,1,-6,0,-2,-1,-11,-1
1558434297371366,3,4,3,-1,1,2,7,2
1558434297371366,-1,25,-2,-4,2,3,-5,0
1558434297386117,-6,-21,-17,-6,-5,-15,-8,-4
1558434297386117,-1,-2,1,1,-1,-2,5,-3
1558434297394301,-4,-10,-1,-1,0,4,5,-2
1558434297394301,3,3,1,2,1,2,-4,1
1558434297409059,7,19,10,4,-2,1,4,3
1558434297409059,-8,10,17,4,-6,-9,-13,-9
1558434297417035,-12,-27,-32,-18,-9,0,3,-8
1558434297417035,0,2,-8,-7,-3,-1,8,2
1558434297424016,-13,-8,-5,-2,-5,-5,-9,-7
1558434297424016,2,-4,19,9,-2,-5,1,5
1558434297432002,7,32,-7,2,-5,-3,-10,2
1558434297432002,-5,-18,-14,-19,-9,-3,2,0
1558434297445960,9,17,27,15,12,4,9,4
1558434297445960,3,3,-12,-5,1,4,8,3
1558434297453935,-4,-5,-1,5,1,2,3,-1
1558434297453935,-1,5,5,8,1,-3,-16,-7
1558434297468904,-8,-27,-17,-17,-2,7,7,-2
1558434297468904,0,4,21,12,11,8,-2,-5
1558434297477231,4,1,-11,-6,-5,-11,-2,0
1558434297477231,-3,-2,-13,-7,-6,-2,-4,-5
1558434297484213,-4,-2,4,4,-1,1,-3,-3
1558434297484213,2,4,13,14,12,9,1,3
1558434297491190,-3,-15,-15,-14,-2,7,7,3
1558434297491190,10,26,15,8,6,-1,-3,4
1558434297506155,-13,-35,-18,-17,-13,-9,-9,-7
1558434297506155,-4,-11,-6,-6,-11,-5,-10,-7
1558434297514133,-4,-1,7,6,2,-6,-3,-3
1558434297514133,2,9,9,5,6,-3,-6,0
1558434297529061,-3,-5,3,2,-5,1,7,2
1558434297529061,7,5,-4,-1,4,5,4,3
1558434297537125,0,2,-17,-5,-3,1,-7,-4
1558434297537125,1,-8,-17,-16,-11,-11,-6,-1
1558434297551675,9,27,11,1,4,0,-3,2
1558434297551675,-6,-18,-4,1,-4,-7,-5,-2
1558434297552679,4,19,16,9,5,8,2,1
1558434297552679,-9,-39,-6,-2,-4,1,-5,-6
1558434297566637,8,16,-3,5,11,6,5,9
1558434297566637,-7,-7,9,1,-3,-6,3,0
1558434297573916,-1,-8,-28,-17,-6,-5,-6,-1
1558434297573916,2,-1,9,1,-13,-4,3,0
1558434297589572,-1,10,-4,-1,-8,-6,-6,-7
1558434297589572,-2,-5,-19,-16,-13,-9,-5,-5
1558434297597634,-22,-35,17,8,9,8,9,-2
1558434297597634,-2,-5,1,3,13,3,4,5
1558434297612664,4,9,-6,2,4,2,5,0
1558434297612664,2,11,14,8,4,0,0,0
1558434297612664,12,20,6,1,-12,-8,-10,-5
1558434297612664,-9,-25,-23,-17,-6,-4,0,-3
1558434297626477,-5,-10,-3,-7,2,5,-5,-2
1558434297626477,12,24,32,25,16,10,5,4
1558434297633665,-10,-28,-39,-28,-8,-1,2,-5
1558434297633665,0,-2,17,11,5,7,0,1
1558434297649528,4,7,-10,2,0,-1,0,2
1558434297649528,-6,-7,-4,-9,-3,1,0,-2
1558434297656615,3,9,18,13,1,-1,-2,0
1558434297656615,3,13,-2,0,2,3,-1,-1
1558434297672350,-2,0,-4,-5,-2,0,-1,-4
1558434297672350,1,-3,2,-2,-2,-2,3,2
1558434297672350,-13,-17,-4,-1,-5,-5,1,1
1558434297672350,-4,-8,-1,1,-6,-7,-7,-4
1558434297686313,7,13,4,-5,-5,-4,-3,1
1558434297686313,1,0,-13,-11,-5,0,-1,0
1558434297693329,11,20,30,18,5,2,-5,2
1558434297693329,-5,0,-22,-14,-11,-9,-3,-3
1558434297709545,-3,-6,14,8,3,3,-1,-1
1558434297709545,0,4,-22,-6,-8,-15,0,4
1558434297716585,1,-7,1,2,6,5,1,-1
1558434297716585,6,18,20,10,1,2,3,0
1558434297732542,-5,-18,-20,-9,-2,-2,-3,-2
1558434297732542,-5,-8,-6,-8,-3,0,-1,0
1558434297732542,4,11,13,6,0,-9,-12,-2
1558434297732542,5,6,1,6,6,-3,-3,3
1558434297746504,2,11,3,-6,-1,9,11,-2
1558434297746504,-8,-25,-11,-1,0,-5,-3,-2
1558434297754473,0,1,4,0,-1,0,3,0
1558434297754473,-3,-4,-11,-9,-6,0,-4,-5
1558434297769092,-2,2,2,-2,-4,-4,-6,-6
1558434297769092,8,16,34,20,5,0,-3,0
1558434297777104,-8,-11,-40,-27,-2,4,7,-1
1558434297777104,-1,9,4,0,-4,-3,-2,-2
1558434297792219,-9,-33,-2,4,2,-3,4,2
1558434297792219,-3,-8,-21,-16,-8,-1,-1,-3
1558434297793031,6,12,21,14,6,-3,-7,-3
1558434297793031,0,-4,2,3,6,6,9,0
1558434297807009,1,10,-1,0,0,1,-3,2
1558434297807009,-1,-3,0,3,2,2,-7,-3
1558434297814196,1,-4,12,1,-5,-4,-5,-1
1558434297814196,-8,-1,-20,-11,-2,6,4,-5
1558434297829171,-6,-9,-25,-10,-5,-10,-3,-1
1558434297829171,-2,-5,0,-2,-1,5,1,-4
1558434297835913,3,11,-10,-13,0,2,-5,-2
1558434297835913,-6,-17,-1,-2,-5,-10,-3,-2
1558434297851889,-2,5,12,10,5,7,4,0
1558434297851889,-3,-2,-7,-5,-5,-4,-4,-5
1558434297852869,0,3,0,2,2,-1,3,3
1558434297852869,6,3,9,5,-2,-2,-2,3
1558434297865833,-4,4,10,10,1,-4,-8,0
1558434297865833,3,5,31,18,17,9,10,6
1558434297873814,-11,-12,-59,-32,-21,-9,0,-11
1558434297873814,-4,-10,-10,-8,-1,-1,0,-1
1558434297888774,0,-1,-5,-5,-3,0,-2,-1
1558434297888774,-2,3,11,6,5,3,-3,-3
1558434297897182,0,1,20,8,-3,-3,0,3
1558434297897182,3,5,3,1,-2,0,-2,0
1558434297912874,0,2,4,4,-1,-6,-3,-2
1558434297912874,1,2,-6,-6,-3,-3,1,2
1558434297912874,7,7,6,7,6,6,7,4
1558434297912874,-14,-19,-8,-5,0,0,-3,-3
1558434297927007,2,1,7,6,-8,3,5,-2
1558434297927007,-1,-5,-19,-10,-1,0,-5,-2
1558434297934003,-12,-12,0,3,-2,-6,-2,0
1558434297934003,8,-2,11,10,12,2,2,6
1558434297949118,5,14,33,14,5,6,5,2
1558434297949118,-18,-28,-92,-56,-34,-20,-10,-13
1558434297957112,5,4,12,7,7,8,4,2
1558434297957112,1,7,10,3,1,1,-1,-3
1558434297971988,-4,-19,-4,-3,0,-9,-7,0
1558434297971988,4,10,13,7,0,0,0,2
1558434297972724,0,-2,8,3,-2,-2,-5,-2
1558434297972724,0,4,10,11,8,-4,-8,-1
1558434297986680,4,6,-31,-24,-13,-8,-10,-4
1558434297986680,-2,9,19,14,-4,-1,-1,-2
1558434297993878,-8,-19,-22,-12,9,8,8,0
1558434297993878,6,5,19,8,3,-2,0,2
1558434298008851,-5,4,-32,-19,-7,-5,-5,-7
1558434298008851,-11,-21,-17,-13,-5,-1,-5,-4
1558434298016849,4,5,19,6,-6,-6,-9,-4
1558434298016849,8,23,7,5,-1,1,3,4
1558434298032592,-9,-21,-8,-3,8,8,4,-1
1558434298032592,6,5,23,22,8,2,1,0
1558434298032592,0,0,-12,-10,-8,-9,-6,1
1558434298032592,1,5,2,-5,-9,-8,-3,-3
1558434298046553,3,9,-6,-4,1,-1,3,0
1558434298046553,1,8,-11,6,15,9,18,8
1558434298053534,-12,-35,-4,0,0,-2,0,-3
1558434298053534,-1,-8,1,-3,-15,-6,-5,-5
1558434298068461,1,3,0,-3,-5,1,-5,-5
1558434298068461,3,-3,17,8,6,-2,3,3
1558434298076441,-2,-1,8,4,8,4,-2,0
1558434298076441,-2,-7,-36,-18,-3,-1,4,0
1558434298091401,-2,3,23,12,8,6,0,0
1558434298091401,-8,-16,-18,-12,-11,-10,-13,-3
1558434298092398,3,25,-1,-5,-8,0,1,-4
1558434298092398,-12,-15,-5,-4,-6,-8,-10,-6
1558434298106868,9,9,4,5,5,6,5,5
1558434298106868,4,7,31,10,6,4,-8,-1
1558434298114677,0,4,-23,-5,1,4,10,-2
1558434298114677,1,-3,-2,1,1,-2,4,3
1558434298129658,9,24,25,18,3,-4,3,4
1558434298129658,-6,-15,-22,-27,-13,1,1,-8
1558434298136294,4,-16,11,2,-3,-3,-8,1
1558434298136294,-4,14,-9,-6,-2,-1,3,1
1558434298152237,-8,-31,-4,1,1,-9,-2,-2
1558434298152237,0,-6,0,-2,2,3,-4,0
1558434298152237,3,16,11,-1,-6,-1,2,-3
1558434298152237,3,2,13,11,12,13,5,4
1558434298167543,-9,-20,-8,-11,-7,-5,-13,-8
1558434298167543,3,11,1,3,2,-1,4,1
1558434298174179,3,2,0,5,-4,-12,-16,-3
1558434298174179,3,5,26,16,8,8,14,7
1558434298188698,9,33,19,5,-1,1,-1,3
1558434298188698,-22,-58,-81,-39,-13,-7,-7,-9
1558434298196654,-6,9,15,8,3,-5,-7,0
1558434298196654,-9,-27,-16,-8,-4,0,-5,-9
1558434298212329,1,-3,-3,-3,6,3,1,1
1558434298212329,9,21,26,14,7,3,4,7
1558434298212329,2,3,-1,3,-1,0,-1,1
1558434298212329,-10,-13,-9,-6,-9,-10,-6,-6
1558434298226577,-5,7,-7,1,-6,-1,0,-4
1558434298226577,1,-7,2,-1,0,5,2,1
1558434298234397,7,17,24,13,10,7,6,2
1558434298234397,-9,-24,-40,-27,-15,-14,-17,-6
1558434298249407,1,-4,-5,-5,-5,-6,1,3
1558434298249407,1,13,13,9,-5,-5,-6,-1
1558434298256449,-1,6,14,6,1,-9,2,-1
1558434298256449,-4,-12,-32,-18,-3,-1,-5,-4
1558434298271388,0,-7,-4,-1,1,3,3,-1
1558434298271388,3,13,15,7,-3,-4,-6,-4
1558434298279153,-3,0,-19,-14,-1,6,7,1
1558434298279153,0,-2,16,12,2,-1,1,-1
1558434298286133,-5,-5,-21,-9,0,-7,-3,-5
1558434298286133,0,-8,13,7,-1,-7,-2,-1
1558434298294144,1,3,10,8,6,8,-1,1
1558434298294144,-1,1,-15,-11,-9,-3,4,0
1558434298309100,-8,-25,-14,-7,-4,3,-4,-3
1558434298309100,4,28,31,11,4,1,4,0
1558434298316050,2,0,-14,0,3,-4,4,3
1558434298316050,-3,-4,-15,-12,-10,-2,-2,-7
1558434298331323,4,10,16,6,-3,-8,-8,0
1558434298331323,3,1,-12,-2,6,10,12,4
1558434298340084,-2,-8,3,3,2,0,-1,-1
1558434298340084,7,29,15,8,4,0,1,3
1558434298346968,-7,-12,4,2,-2,7,4,0
1558434298346968,3,12,14,5,-2,2,-3,-2
1558434298354248,1,-3,-29,-16,-8,-3,-5,-5
1558434298354248,-3,-6,2,2,-1,-5,-6,-1
1558434298368910,-11,-8,24,13,4,-12,-1,-1
1558434298368910,-7,-21,-40,-18,-5,1,3,0
1558434298376961,6,12,2,-2,1,2,-5,1
1558434298376961,-1,2,9,4,5,9,5,-2
1558434298391849,1,0,9,5,-3,0,-6,-4
1558434298391849,-2,6,-12,-5,-8,-6,4,-1
1558434298400129,-9,-17,-9,-13,-9,-8,-6,-6
1558434298400129,-3,-1,4,1,5,0,-9,-2
1558434298407093,3,5,4,4,9,6,3,4
1558434298407093,3,2,-1,-1,0,-4,-4,2
1558434298414096,3,4,2,3,-1,5,5,1
1558434298414096,0,1,30,20,2,5,3,4
1558434298429040,-7,-12,-57,-34,-8,0,-6,-7
1558434298429040,-2,-5,6,3,-3,-3,-4,0
1558434298437009,-8,-16,-5,-4,-4,-7,-4,-4
1558434298437009,6,7,24,11,5,3,3,1
1558434298453228,4,13,0,-7,-4,-5,4,2
1558434298453228,0,-2,-17,-8,-4,6,2,-3
1558434298459964,3,2,12,7,1,-2,1,0
1558434298459964,0,-12,-16,-4,2,-1,-3,1
1558434298474897,-4,0,5,8,0,2,-3,0
1558434298474897,-6,-16,-5,-12,-5,-11,-4,-1
1558434298474897,0,6,5,-2,-2,1,2,0
1558434298474897,5,13,10,5,5,3,8,5
1558434298488863,5,11,1,9,2,1,3,3
1558434298488863,-2,-6,12,6,2,-1,-5,-3
1558434298496861,-2,-4,-1,7,-1,0,-5,-3
1558434298496861,1,-1,-2,-7,-9,-6,3,-2
1558434298511527,1,4,-14,-7,-1,1,-1,-1
1558434298511527,-2,4,14,6,3,-5,-1,1
1558434298519506,-6,-12,-9,-3,-3,-2,1,-2
1558434298519506,-7,-13,-15,-9,-6,-6,-5,-4
1558434298534638,3,1,7,-1,2,6,5,1
1558434298534638,1,2,-3,-3,-1,1,0,-4
1558434298535463,1,-2,-7,-8,-3,-2,0,-2
1558434298535463,2,7,4,6,5,4,2,1
1558434298549431,5,5,13,9,2,-2,0,-1
1558434298549431,-3,1,-14,-3,-12,-6,-6,-2
1558434298556689,-2,9,0,-9,-2,0,1,2
1558434298556689,-14,-35,-9,-6,2,0,0,-2
1558434298571653,-2,-4,2,-3,-6,-4,-5,-3
1558434298571653,2,4,2,3,8,4,-3,1
1558434298579621,4,10,21,13,1,-1,7,1
1558434298579621,-4,-5,-41,-24,-16,-15,-9,-5
1558434298594590,-1,2,9,3,8,1,-1,0
1558434298594590,2,4,12,4,-3,-4,-6,-2
1558434298595308,-3,7,-2,2,-1,4,-7,-3
1558434298595308,5,9,10,4,8,8,1,4
1558434298609428,-8,-25,-7,2,-2,-3,1,-1
1558434298609428,2,-1,7,6,-1,-1,-2,-1
1558434298616537,-3,-8,-1,-3,-1,1,2,-1
1558434298616537,3,11,2,-3,3,2,-4,-4
1558434298631498,-1,11,4,-3,5,5,4,3
1558434298631498,8,14,17,16,9,1,4,5
1558434298640184,-8,-19,-35,-23,-7,-6,-12,-3
1558434298640184,-4,-2,0,0,-2,0,-1,-5
1558434298654529,-4,-9,-5,-6,-5,-6,0,-2
1558434298654529,-1,-2,3,1,7,6,6,2
1558434298655152,-8,-6,7,7,-3,-10,-2,0
1558434298655152,8,18,7,7,4,6,7,2
1558434298669108,1,-5,6,4,-4,-1,-6,-1
1558434298669108,-8,-17,-41,-24,-12,-8,-5,-6
1558434298677089,7,6,1,1,10,2,-10,3
1558434298677089,3,9,0,1,4,4,14,4
1558434298691344,-2,-9,4,0,-5,-2,-1,-3
1558434298691344,-8,-4,7,-1,3,-3,-5,-3
1558434298700245,1,-7,-7,-3,-11,-5,1,-1
1558434298700245,4,7,7,5,5,-1,-5,1
1558434298723324,6,9,-4,2,-1,5,4,2
1558434298723324,-6,3,0,-3,-1,-2,-2,-4
1558434298723324,-9,-25,-24,-12,-4,-4,0,-5
1558434298723324,4,10,18,8,4,3,-1,0
1558434298729188,-7,-16,-21,-17,-10,-8,-3,-5
1558434298729188,0,5,2,-7,-3,-1,-1,-2
1558434298735948,3,3,11,9,4,3,4,1
1558434298735948,1,0,5,2,1,-4,-7,0
1558434298760175,-7,-3,-4,0,1,1,1,-3
1558434298760175,3,3,12,14,-1,-3,0,-2
1558434298760860,6,14,11,5,2,6,1,0
1558434298760860,-5,-15,-1,-7,-6,3,4,-4
1558434298774894,-8,-17,-42,-20,-5,-10,-5,-3
1558434298774894,-1,-9,-5,-3,-4,-2,0,3
1558434298774894,0,6,20,13,9,3,8,-2
1558434298774894,-3,-10,-16,-7,-4,-2,-11,-4
1558434298789114,9,21,11,5,1,-6,0,2
1558434298789114,0,-4,-2,1,-6,1,5,-2
1558434298797121,0,-2,-6,-8,-4,1,-6,-1
1558434298797121,-4,1,-12,-10,-1,-3,-4,1
1558434298812050,-4,-25,18,14,12,1,7,5
1558434298812050,0,-2,-9,-2,-3,-7,-8,-3
1558434298820072,-3,0,-7,-4,-4,5,2,-4
1558434298820072,-1,4,-2,0,-6,-3,-2,-3
1558434298834665,2,8,5,2,4,2,-3,0
1558434298834665,-8,-2,5,5,7,7,3,2
1558434298834665,4,13,13,6,0,-6,2,2
1558434298834665,-1,-6,-4,-4,-6,1,-1,-1
1558434298848918,-7,-3,-24,-9,-7,-2,-5,-9
1558434298848918,0,-2,-11,-7,-8,-14,-7,-3
1558434298856852,-8,-7,2,-3,1,-2,0,-3
1558434298856852,0,0,-11,-4,7,4,2,2
1558434298871595,8,20,18,3,-6,-3,-1,1
1558434298871595,-1,-17,-3,-5,2,9,5,0
1558434298879542,2,2,-6,-4,-2,-1,-5,0
1558434298879542,0,-1,13,12,1,-7,-14,-1
1558434298894808,1,-4,4,5,10,16,15,6
1558434298894808,0,0,-8,-5,-7,-4,-2,0
1558434298895721,4,-2,8,3,-4,-5,-2,3
1558434298895721,-5,-2,-15,-11,-1,4,-1,-3
1558434298909556,3,10,6,1,-6,-3,-10,-5
1558434298909556,-7,-8,-9,-8,2,-5,0,0
1558434298916447,2,-5,3,10,3,9,2,0
1558434298916447,0,4,13,6,3,-1,1,0
1558434298931406,1,9,-15,-12,-3,0,-3,-2
1558434298931406,-7,-14,2,0,0,-4,0,1
1558434298939706,-4,7,-9,-10,-3,-5,-7,-4
1558434298939706,-4,-12,-6,-4,-3,5,3,-3
1558434298955779,1,5,11,10,2,-9,-3,0
1558434298955779,4,14,-4,-8,2,3,-4,-1
1558434298962792,-2,-12,0,-2,-2,-3,2,0
1558434298962792,-1,7,-3,5,-6,1,9,-1
1558434298968304,-2,-4,0,-5,-5,-3,-8,-5
1558434298968304,-1,-1,-1,2,-4,0,3,-1
1558434298976739,6,17,8,5,1,-4,-5,1
1558434298976739,-7,-11,-6,-6,-6,-4,-4,-4
1558434298991245,-2,-3,11,9,-1,-5,-1,-1
1558434298991245,-2,-4,-32,-26,-13,-7,-13,-4
1558434298999552,0,0,13,4,5,10,10,2
1558434298999552,0,8,10,6,-2,-10,-5,0
1558434299015225,-1,-1,-19,-6,1,-1,0,-1
1558434299015225,-9,5,19,12,1,6,0,-5
1558434299015225,-5,-13,-25,-8,-1,0,-5,-3
1558434299015225,-3,-3,7,0,0,0,6,0
1558434299029463,2,-1,-1,2,-1,-10,-5,-1
1558434299029463,9,8,15,11,-1,2,0,2
1558434299036462,0,2,-7,-7,-5,-8,-1,0
1558434299036462,-11,-15,-8,0,-3,0,-3,-3
1558434299051251,0,8,-1,-1,5,7,3,1
1558434299051251,2,3,6,3,9,3,-1,-3
1558434299060065,1,7,8,4,-4,0,-4,-3
1558434299060065,-10,-20,-41,-27,-12,-14,-8,-3
1558434299075185,-3,-22,8,3,0,-1,-1,1
1558434299075185,2,10,-2,-4,2,7,5,-1
1558434299075185,-6,-8,-2,1,1,-3,-3,-3
1558434299075185,6,6,11,8,-1,2,5,2
1558434299089236,-3,2,-13,-9,-3,5,3,0
1558434299089236,4,-6,2,4,2,-4,-4,6
1558434299096978,-4,-2,13,8,6,4,10,2
1558434299096978,-4,-3,-17,-9,-7,-3,-2,-7
1558434299110923,-3,-4,-2,-2,-4,-2,-3,-4
1558434299110923,-1,4,6,0,2,3,-3,0
1558434299118903,-1,-4,-17,-13,0,-7,-5,1
1558434299118903,4,3,28,12,-1,0,-3,1
1558434299133897,2,3,-10,-2,-2,-3,3,1
1558434299133897,-7,-2,-14,-12,-7,-8,-7,-6
1558434299134860,-3,-6,5,7,-5,4,-1,-1
1558434299134860,10,17,-12,-9,4,5,1,0
1558434299148823,-8,-12,15,5,5,4,-5,-1
1558434299148823,3,7,8,10,9,3,7,1
1558434299155839,-12,-29,-19,-7,-14,-11,-10,-8
1558434299155839,-5,-20,-6,-3,-5,-4,-8,-3
1558434299172000,5,20,0,-7,2,6,6,4
1558434299172000,-2,8,-1,-1,-1,-2,-3,-4
1558434299180087,0,-6,-1,-1,1,6,-1,-3
1558434299180087,9,17,24,12,4,-1,1,2
1558434299202678,0,-8,-12,-6,-6,-8,-5,-2
1558434299202678,4,-1,-1,-4,2,-1,3,2
1558434299203676,0,7,-5,-3,1,9,6,1
1558434299203676,-4,-4,13,2,-8,-15,-9,0
1558434299209063,-1,-3,-10,-2,-4,2,3,-3
1558434299209063,3,6,-5,-7,0,2,-2,-1
1558434299217017,-1,-6,-1,-2,6,4,3,1
1558434299217017,-6,-12,-4,1,4,0,1,0
1558434299231972,4,12,15,3,-9,-9,-5,2
1558434299231972,2,1,-1,2,-12,-7,-6,-3
1558434299238925,3,19,-3,-4,8,8,6,-1
1558434299238925,-5,-14,-11,-6,-4,2,2,-1
1558434299253802,-6,-14,12,7,12,8,0,2
1558434299253802,-1,0,3,2,-6,-1,6,2
1558434299262714,-1,-11,-11,-8,-4,-8,-6,0
1558434299262714,2,11,6,-1,2,4,-2,-2
1558434299268506,-5,-12,-15,-12,-14,-9,-5,-6
1558434299268506,-2,-7,2,5,-1,-6,0,-3
1558434299276694,2,6,11,6,1,-4,-7,2
1558434299276694,4,2,-37,-12,4,4,12,6
1558434299291664,-7,-5,-2,-7,-1,2,2,2
1558434299291664,-1,-6,5,3,3,0,-4,1
1558434299299636,-1,-3,6,-1,-8,-1,-4,-3
1558434299299636,-4,-9,-5,2,-4,-6,-5,-4
1558434299313382,6,19,10,5,7,-1,1,4
1558434299313382,-7,-29,-8,-3,3,6,2,1
1558434299322364,-3,-3,-2,1,0,3,3,0
1558434299322364,-2,-2,9,5,0,2,-4,-1
1558434299328347,0,3,-6,-1,-6,-9,-4,-4
1558434299328347,4,9,4,-2,-7,-5,-2,-1
1558434299336322,-1,2,-16,-7,-5,-10,-4,-4
1558434299336322,1,2,17,5,3,6,6,1
1558434299351281,-6,-11,-35,-22,-14,-4,-6,-8
1558434299351281,-3,-7,18,14,9,-2,4,3
1558434299359259,-2,-11,-24,-22,-11,-12,0,-1
1558434299359259,4,3,17,9,3,3,-3,1
1558434299373221,-1,-4,-3,0,2,5,-2,0
1558434299373221,7,14,-2,-5,-7,0,-4,-2
1558434299382652,0,7,22,11,7,4,7,3
1558434299382652,-6,-3,-26,-12,2,0,-4,-2
1558434299397596,-1,-13,15,8,0,-2,4,3
1558434299397596,-1,9,-7,-5,-6,-10,-5,-4
1558434299404645,0,-8,6,7,-2,1,-5,-3
1558434299404645,0,11,14,7,0,0,1,0
1558434299411584,1,0,-9,-1,-1,2,0,-1
1558434299411584,3,5,5,1,4,-1,4,1
1558434299420290,2,4,-20,-4,-6,-2,-1,-4
1558434299420290,-4,-13,-23,-18,-8,-10,-9,-1
1558434299434061,-1,8,10,2,2,1,5,3
1558434299434061,-8,-15,-4,-3,-4,-2,-6,-6
1558434299442066,-6,-12,6,6,9,10,2,-1
1558434299442066,-2,-2,1,3,-5,-2,0,-1
1558434299456997,4,5,5,3,2,-3,-5,0
1558434299456997,1,14,2,10,5,5,0,1
1558434299458012,-8,-18,-18,-14,-3,-3,-1,-2
1558434299458012,2,5,0,3,-2,-1,0,-3
1558434299470995,-3,-10,-11,-12,-8,-6,-5,-5
1558434299470995,-1,-6,4,3,-3,-2,-2,-1
1558434299478974,1,6,-1,0,0,2,4,0
1558434299478974,-1,7,8,3,1,-1,-5,-2
1558434299493899,-1,0,21,16,5,3,0,-1
1558434299493899,3,7,-14,-8,-1,1,-1,-3
1558434299501892,0,0,-20,-17,1,3,6,0
1558434299501892,-7,-10,-2,-3,-5,0,6,0
1558434299516897,2,6,18,11,4,0,-1,2
1558434299516897,-3,-12,-20,-9,-3,-5,-5,-3
1558434299517834,9,13,13,8,-3,-5,-2,2
1558434299517834,-7,-4,3,-1,-2,-6,-4,-6
1558434299530829,-1,6,8,1,-2,5,-1,-1
1558434299530829,-4,-8,9,11,10,11,11,2
1558434299538779,-3,-6,-31,-21,-11,-13,-7,-4
1558434299538779,3,4,-6,-6,-2,1,-4,0
1558434299553741,2,-4,3,1,1,-1,-2,-1
1558434299553741,-6,-3,-14,-14,-9,-5,-11,-5
1558434299561718,9,22,41,30,18,4,7,7
1558434299561718,0,-16,-21,-17,-5,2,6,2
1558434299576735,-4,-7,-33,-15,-5,-4,0,-4
1558434299576735,1,1,4,-4,-6,-2,4,1
1558434299577675,-13,-17,6,6,1,6,0,0
1558434299577675,4,9,6,3,3,-3,-5,-3
1558434299591639,0,5,5,4,8,6,4,4
1558434299591639,-3,-1,-1,-3,-4,-1,-5,-2
1558434299598619,0,-6,-10,-8,-12,-10,-14,-6
1558434299598619,5,6,14,12,7,7,5,7
1558434299613580,1,0,22,7,-3,-5,1,-1
1558434299613580,-3,-6,-32,-5,2,4,4,-1
1558434299621598,-3,1,1,-12,-8,-3,-4,-3
1558434299621598,-4,-7,9,8,-2,-6,-7,-5
1558434299636555,0,2,-21,-8,-2,-1,-3,-3
1558434299636555,4,3,16,8,6,-2,2,3
1558434299637515,-3,-7,10,10,5,7,9,1
1558434299637515,4,8,-9,-7,1,-4,-6,3
1558434299651487,2,-1,20,15,-1,-2,-2,4
1558434299651487,-8,-9,-27,-14,1,7,-1,-4
1558434299658458,3,1,4,-3,-4,-6,-2,0
1558434299658458,-6,-8,-12,-9,-6,-5,-5,-8
1558434299673419,1,6,1,-3,1,3,0,-2
1558434299673419,-1,5,15,10,2,-1,0,2
1558434299681397,3,-3,5,6,7,3,2,3
1558434299681397,3,5,-2,-2,-2,-5,-3,3
1558434299696358,-8,-4,-7,-4,-4,1,5,-1
1558434299696358,-3,-2,4,-4,-10,-6,-6,-3
1558434299697356,-1,-7,-12,-6,2,4,-1,-4
1558434299697356,3,11,13,4,4,2,4,0
1558434299711318,-7,-23,-25,-17,-9,-16,-11,-4
1558434299711318,1,-2,7,3,5,2,3,1
1558434299718305,-2,4,9,6,2,3,-6,-5
1558434299718305,0,1,-13,-7,-14,-5,-1,-3
1558434299733259,3,6,12,7,5,4,1,-1
1558434299733259,-2,1,8,6,2,-3,1,5
1558434299742234,-6,-12,-18,-12,-14,-16,-5,-3
1558434299742234,-3,-7,1,-1,2,6,-3,-1
1558434299757210,5,8,-5,-1,-1,4,0,0
1558434299757210,4,9,18,0,-2,-2,-2,-2
1558434299757210,-1,4,7,8,3,6,1,-1
1558434299757210,-4,-9,-4,-7,-5,-5,1,-3
1558434299771160,-3,-3,-8,-1,0,0,0,-4
1558434299771160,-2,-10,-1,1,7,0,-3,-2
1558434299779136,-8,-14,-10,-4,-7,-7,-2,-3
1558434299779136,0,-4,-2,-5,1,7,1,-1
1558434299794097,-1,6,6,-1,-8,-8,-5,0
1558434299794097,-3,-4,-12,-5,3,5,4,2
1558434299802084,5,15,11,6,9,-3,3,6
1558434299802084,2,10,23,15,6,4,2,0
1558434299817034,2,2,-14,-9,-3,7,-9,-2
1558434299817034,-1,-5,1,-3,-4,2,3,-3
1558434299818034,-7,-9,-9,-3,-5,-10,0,-2
1558434299818034,0,-3,-4,-4,-3,-3,-2,-1
1558434299831000,0,-4,1,-3,-2,-9,1,0
1558434299831000,1,3,-2,1,-6,-12,-10,-1
1558434299838976,8,7,12,11,7,12,2,3
1558434299838976,0,6,-12,-8,-2,-3,0,2
1558434299853937,-13,-8,4,-1,0,-4,-1,-5
1558434299853937,-1,-5,10,8,-2,-7,-5,1
1558434299861917,-4,-9,-26,-14,-11,-9,2,-6
1558434299861917,3,-1,6,7,6,4,4,0
1558434299876874,4,1,-2,-6,0,-6,-6,4
1558434299876874,-3,-1,3,-2,-3,1,7,2
1558434299877873,5,13,20,11,3,10,0,1
1558434299877873,-1,-6,-6,3,1,-4,-1,-3
1558434299890844,-11,-13,-27,-17,-5,2,1,-2
1558434299890844,0,-3,2,2,1,-5,-3,-1
1558434299898816,-4,-2,-14,-15,-11,-6,-8,-4
1558434299898816,0,-9,9,5,0,4,2,-1
1558434299913795,6,9,9,7,-1,-6,-1,1
1558434299913795,1,4,0,-3,0,4,2,-3
1558434299921756,1,-1,14,10,6,-1,-7,3
1558434299921756,4,8,-3,-1,5,5,7,2
1558434299936715,4,7,13,10,0,-1,0,-5
1558434299936715,-18,-25,-28,-18,-17,-6,-12,-7
1558434299937713,2,-2,8,4,7,-4,15,4
1558434299937713,-1,-7,-5,-4,-1,-5,-4,-1
1558434299951677,-4,-3,-3,0,0,6,3,-1
1558434299951677,9,16,12,8,-3,-3,-1,0
1558434299958657,-3,-2,-16,-13,-7,3,-2,-3
1558434299958657,-3,9,-25,-22,-8,-9,-1,-4
1558434299973616,-1,-13,11,10,9,7,5,1
1558434299973616,-5,-17,-9,-6,-5,-4,2,-1
1558434299981595,0,13,12,4,3,6,-1,-3
1558434299981595,-2,-10,6,11,-7,-8,-5,-5
1558434299996555,6,11,-5,-5,-5,-11,-4,-2
1558434299996555,5,18,-2,-4,1,3,1,0
1558434299997553,-12,-24,-5,-2,1,0,-2,0
1558434299997553,3,19,15,3,3,6,-2,0
1558434300011516,-1,-4,11,9,3,7,9,4
1558434300011516,4,-3,-27,-18,-1,-1,-1,-2
1558434300018501,3,13,2,-4,-9,-3,-4,-2
1558434300018501,-8,-6,15,5,-3,-13,-8,1
1558434300033459,-4,-16,-2,-1,1,5,2,-1
1558434300033459,4,8,9,8,5,5,12,1
1558434300041437,-1,-14,-18,-11,-9,-8,-1,-3
1558434300041437,0,9,18,10,7,0,2,1
1558434300056396,-10,-24,14,11,4,5,-3,-3
1558434300056396,-3,4,-14,-8,-4,-4,-2,-2
1558434300057392,5,15,-2,-7,-1,2,-2,-3
1558434300057392,-5,-23,-11,-2,-6,-5,-2,-1
1558434300071356,-6,19,1,-2,3,1,3,1
1558434300071356,-10,-24,-18,-6,4,5,0,0
1558434300078336,-3,-9,15,11,4,3,-1,0
1558434300078336,0,6,-12,-2,0,2,-7,-2
1558434300093301,3,5,-11,-16,-13,-16,-4,-3
1558434300093301,-4,-3,10,8,-3,-5,-3,1
1558434300102279,7,9,5,3,6,4,-1,2
1558434300102279,-1,2,8,10,6,12,2,1
1558434300117232,-6,-12,-15,-7,-3,2,-1,-1
1558434300117232,-2,2,-18,-6,-1,-5,0,-1
1558434300117232,7,17,20,10,7,-7,2,5
1558434300117232,-4,-10,-11,-10,-7,-4,0,-1
1558434300131195,-9,-5,-3,-5,-8,-8,-14,-7
1558434300131195,1,-7,8,3,8,9,7,4
1558434300138176,-1,-3,-6,2,-1,-3,-6,-2
1558434300138176,-1,-2,-2,-5,0,-5,0,-3
1558434300154134,13,18,4,11,4,6,1,3
1558434300154134,1,10,5,-4,-3,-3,-1,-4
1558434300162113,-10,-11,4,-2,-7,-7,-6,-3
1558434300162113,12,14,-4,-1,-1,2,1,2
1558434300176074,-5,-24,-20,-15,-3,-1,-5,2
1558434300176074,-2,5,24,12,0,0,-5,-4
1558434300184053,2,-2,-17,-8,-5,-2,3,-2
1558434300184053,-11,-11,5,-3,-4,-5,-3,-6
1558434300191035,1,-2,-17,-5,1,3,2,-3
1558434300191035,10,18,27,22,8,0,1,4
1558434300199013,-2,-12,-22,-22,-6,-4,-3,-2
1558434300199013,1,10,12,11,3,-2,1,3
1558434300213973,-1,-4,-35,-23,-6,-3,2,0
1558434300213973,-1,-3,2,-3,0,-1,-2,1
1558434300221952,-5,5,1,3,2,3,1,-1
1558434300221952,-4,-12,5,10,5,1,0,-1
1558434300235914,5,13,12,7,4,2,2,1
1558434300235914,-1,-6,-7,-4,-1,1,-3,-2
1558434300243894,5,-1,4,0,-5,-3,-4,2
1558434300243894,-6,5,-25,-21,-7,-4,3,-5
1558434300250875,-7,-19,15,10,0,-1,1,-3
1558434300250875,-2,-11,-16,-7,-4,-3,-4,-2
1558434300258853,5,9,5,6,0,-1,2,1
1558434300258853,-5,-11,11,4,0,0,-3,-1
1558434300273814,1,24,4,2,-3,-4,0,0
1558434300273814,-8,-26,-7,-6,-2,0,1,-3
1558434300281791,1,-1,-26,-14,-6,-2,-4,-2
1558434300281791,-8,-20,3,3,1,4,0,1
1558434300295754,2,10,2,-1,1,-3,-2,0
1558434300295754,1,0,8,2,1,1,0,2
1558434300304730,-4,1,7,10,3,0,0,-2
1558434300304730,0,-4,-19,-12,-7,-4,-4,-2
1558434300311711,3,6,15,3,1,0,0,-1
1558434300311711,2,6,-5,0,-1,1,-1,-1
1558434300318694,-2,-5,-19,-10,-4,-1,0,-1
1558434300318694,1,-9,-3,4,1,1,0,1
1558434300333654,-5,-1,3,-1,-2,-2,-4,0
1558434300333654,-5,-7,7,4,-4,-5,-1,-5
1558434300341632,5,17,-16,-10,0,1,0,-2
1558434300341632,-4,-22,1,-8,-3,-1,-1,-2
1558434300356591,4,0,-6,-5,-5,-1,0,1
1558434300356591,-4,-5,-6,-6,-1,-2,-1,-1
1558434300364570,-5,-12,8,5,0,-1,-1,-3
1558434300364570,3,10,-2,0,-2,-1,0,0
1558434300379531,0,-5,-8,3,2,1,-1,0
1558434300379531,5,10,4,5,1,2,1,4
1558434300379531,-5,-5,2,-2,-3,1,-3,-3
1558434300379531,2,7,-9,-5,-4,-1,-6,2
1558434300393499,7,16,12,7,2,2,1,1
1558434300393499,-2,15,8,3,-1,0,0,-3
1558434300401472,-21,-49,-21,-13,-8,-7,-3,-6
1558434300401472,2,-1,13,9,0,0,0,-1
1558434300416432,-6,-8,-21,-15,-2,-4,-3,-3
1558434300416432,3,14,-4,-4,-2,0,4,1
1558434300424410,2,17,20,5,4,3,-1,1
1558434300424410,-3,-2,-4,1,-2,-3,-2,-2
1558434300439369,-3,-6,1,1,3,2,0,-4
1558434300439369,-2,-11,-14,-4,-4,0,-8,-2
1558434300440367,2,15,11,8,6,1,4,4
1558434300440367,10,16,-4,3,4,-1,5,6
1558434300453336,-17,-9,-29,-14,-6,-5,-4,-3
1558434300453336,-5,-34,-4,-3,-4,-3,-3,-3
1558434300462313,-3,-4,-2,-8,-8,-3,-8,-4
1558434300462313,-2,9,-1,-5,-6,-2,-2,-6
1558434300476271,12,19,20,13,5,1,2,5
1558434300476271,-18,-21,-23,-11,-5,-4,-5,-6
1558434300484254,-7,-20,1,10,1,-2,0,0
1558434300484254,-1,0,-2,-8,2,4,1,-1
1558434300499209,3,2,12,2,-1,-3,0,-2
1558434300499209,-2,-12,-21,-16,-7,-6,-1,-1
1558434300500207,1,7,-1,6,-2,-5,0,-1
1558434300500207,-7,-9,5,0,-4,-3,-5,-3
1558434300514170,3,-1,-6,5,3,4,2,2
1558434300514170,6,12,19,6,6,1,0,1
1558434300522148,-3,4,-5,-2,-3,-2,0,-1
1558434300522148,-1,-1,-11,-1,-5,-3,-9,-6
1558434300536112,-1,-4,3,-8,-6,5,1,-2
1558434300536112,4,13,8,5,9,2,8,4
1558434300544091,9,25,-8,2,0,-1,-1,1
1558434300544091,-14,-41,-5,-5,-2,-5,-1,-1
1558434300559050,-3,-16,24,13,1,-2,-1,-2
1558434300559050,3,2,-12,-9,-3,0,-3,0
1558434300560049,3,10,28,16,6,0,0,0
1558434300560049,2,10,-47,-32,-10,-2,-2,-1
1558434300574010,-3,-9,-14,-5,-3,-3,-3,-2
1558434300574010,-5,-10,6,0,-1,-3,-2,-2
1558434300581989,6,8,3,0,4,5,0,0
1558434300581989,2,11,27,15,7,6,1,2
1558434300595952,-6,-5,-14,-4,-5,-2,0,0
1558434300595952,0,6,-2,-7,-7,-4,-4,-3
1558434300604927,-4,-19,-2,-2,-2,0,-2,-4
1558434300604927,1,4,7,1,2,3,2,-1
1558434300618894,7,7,-9,2,3,-3,-2,0
1558434300618894,7,27,6,6,4,5,3,4
1558434300619888,-13,-36,-6,-11,-8,-4,-3,-4
1558434300619888,-11,-6,0,4,1,-3,-2,-2
1558434300633850,-10,-23,-8,-7,-5,-3,-3,-3
1558434300633850,5,5,11,11,1,1,1,1
1558434300640831,2,0,-7,-5,-3,-1,2,-1
1558434300640831,6,11,9,1,2,0,0,1
1558434300664768,6,24,25,8,5,2,0,4
1558434300664768,-9,-18,-24,-13,-6,-1,-4,-6
1558434300665766,-5,-15,7,2,2,0,0,-3
1558434300665766,3,4,0,6,4,-1,-1,1
1558434300679728,-3,1,-10,-4,-6,-2,-1,-5
1558434300679728,-1,3,14,6,2,-2,1,2
1558434300679728,3,15,-8,-10,-4,0,-3,0
1558434300679728,-1,-4,6,2,-1,-2,0,0
1558434300693689,0,-7,-1,1,0,-2,-1,2
1558434300693689,9,18,10,16,8,7,4,3
1558434300700672,1,0,-16,-12,-6,-3,-2,0
1558434300700672,-6,-4,-4,-10,-1,-3,0,1
1558434300715632,-4,-14,-17,-9,-7,-4,-4,-3
1558434300715632,-4,-3,24,5,-2,1,0,-2
1558434300724608,7,16,2,3,1,1,-1,0
1558434300724608,1,-1,21,10,1,-2,-1,0
1558434300739567,2,-2,-26,-7,-4,-1,0,-2
1558434300739567,3,3,-10,-8,-3,-1,0,-1
1558434300739567,-3,-2,18,14,8,5,3,2
1558434300739567,1,-3,-15,-10,-4,-2,-1,0
1558434300753529,-3,-2,5,-3,-2,-4,-1,-2
1558434300753529,0,2,4,3,-2,-2,-1,-1
1558434300761509,0,14,-8,-10,-2,-3,-2,-3
1558434300761509,1,-2,17,13,2,3,1,-4
1558434300776469,0,-10,-2,5,1,0,-1,-5
1558434300776469,-5,-6,-22,-19,-5,-6,-2,-1
1558434300791432,-2,-4,-8,-7,-4,-3,-2,2
1558434300791432,3,5,7,6,2,1,-2,-1
1558434300799407,-1,-4,16,0,1,0,0,0
1558434300799407,-4,-3,-6,-7,-3,-3,-5,-1
1558434300800405,-5,-14,-4,4,3,1,1,-1
1558434300800405,-1,-1,-35,-6,-5,0,0,-5
1558434300813370,1,6,14,-1,0,-3,1,1
1558434300813370,-1,7,3,6,1,2,-2,-2
1558434300821349,-2,-13,4,4,2,3,4,1
1558434300821349,-2,6,2,-6,-1,-2,1,1
1558434300836310,-1,-9,-2,4,2,2,1,2
1558434300836310,3,7,0,-3,-4,-3,-1,-1
1558434300844288,-13,-5,1,-2,-1,-3,-3,-6
1558434300844288,1,5,3,-1,-1,2,0,2
1558434300859247,1,9,2,3,2,1,-2,-2
1558434300859247,1,-4,-17,-11,-4,-3,-5,-2
1558434300860244,-3,-7,5,3,-2,-1,-3,-2
1558434300860244,-4,-11,-10,-5,-3,-3,-3,-2
1558434300873210,2,8,-12,-9,-7,-3,-2,2
1558434300873210,-11,-13,1,0,-4,-2,-1,-5
1558434300881188,11,16,15,9,4,1,3,-1
1558434300881188,-4,8,4,9,5,1,3,1
1558434300896154,-7,-16,-15,-15,-8,-4,-1,-5
1558434300896154,-4,-7,-3,-4,-1,-1,-1,-1
1558434300904127,-3,-6,-1,-3,-3,-3,-2,-3
1558434300904127,8,11,-12,-3,2,0,-2,0
1558434300919087,0,8,32,15,4,2,1,2
1558434300919087,-4,-15,-21,-2,-1,0,1,2
1558434300920085,-2,-11,-6,-6,-5,-5,-3,-2
1558434300920085,-3,-8,-3,-4,-2,-1,-3,0
1558434300942026,-2,1,0,-4,-1,0,1,0
1558434300942026,2,5,9,10,5,4,1,3
1558434300942026,1,3,-2,-2,-2,0,-3,1
1558434300942026,-5,-11,-2,-4,-4,-2,-3,-3
1558434300955990,2,8,25,18,6,5,0,1
1558434300955990,-5,-4,-26,-11,-7,-5,-2,-2
1558434300963968,3,6,-5,-10,-1,0,3,3
1558434300963968,2,-12,-2,-7,-6,-6,-2,-5
1558434300978927,-7,4,5,-1,3,0,-2,-4
1558434300978927,13,10,29,21,8,4,2,2
1558434300979924,-5,-3,-15,-6,-5,-5,-3,-2
1558434300979924,-18,-19,-5,-4,-1,0,0,-5
1558434300993891,2,-5,-7,-3,-3,-3,-2,-3
1558434300993891,1,4,21,10,0,0,0,-1
1558434301000869,-3,-3,-19,-5,-3,-3,0,1
1558434301000869,8,7,11,1,-1,1,1,1
1558434301015829,-6,-5,-16,-7,-2,0,-2,1
1558434301015829,-4,-7,-3,-7,-3,-2,-2,-2
1558434301024803,3,9,13,5,3,-1,0,1
1558434301024803,0,6,-1,-1,1,-2,1,-2
1558434301038767,-4,-5,-1,4,0,0,2,1
1558434301038767,2,0,4,1,2,-1,-3,-2
1558434301046747,4,12,13,7,2,2,-1,0
1558434301046747,-8,-16,-33,-21,-11,-6,-4,-3
1558434301053728,1,-2,-15,-6,2,-1,1,0
1558434301053728,-3,5,26,5,2,1,1,-1
1558434301060708,-6,-19,-20,-12,-8,-6,-2,-4
1558434301060708,6,9,18,11,1,-1,-1,2
1558434301076668,-6,-5,-36,-15,-3,-1,-3,-1
1558434301076668,-6,-4,-5,-2,0,-5,-5,-5
1558434301084645,0,10,13,9,5,2,0,0
1558434301084645,-1,-3,0,-1,1,3,2,1
