timestamp,emg1,emg2,emg3,emg4,emg5,emg6,emg7,emg8
1558434338675982,-1,-3,-9,-6,-2,-1,4,1
1558434338675982,-2,-2,1,6,2,0,-4,-3
1558434338676981,0,1,8,4,-2,-4,1,1
1558434338676981,0,5,-3,-3,7,3,1,-1
1558434338680970,-3,-10,-11,-3,-3,-3,-1,-1
1558434338680970,-1,2,-2,-9,-7,-2,-7,-1
1558434338683962,7,13,22,17,14,17,18,4
1558434338683962,-8,-19,-22,-11,-13,-6,-8,-4
1558434338696927,3,13,15,12,1,1,3,-1
1558434338696927,-6,-11,-17,-18,-12,-3,-8,-6
1558434338697925,-5,-10,10,11,0,-10,-2,-1
1558434338697925,6,6,2,-3,1,1,5,3
1558434338710890,-1,-4,-14,-12,2,4,-4,-4
1558434338710890,3,1,6,4,-6,-7,5,-2
1558434338718869,3,15,10,5,2,-1,-4,-5
1558434338718869,-8,-21,-23,-16,-8,-6,-4,-7
1558434338724852,-2,0,2,-1,2,-1,0,1
1558434338724852,1,-1,-4,7,3,2,3,2
1558434338739812,-3,-6,-4,-8,-5,-1,-8,-2
1558434338739812,2,14,-2,0,3,0,-2,1
1558434338748789,4,-2,12,5,-4,0,0,1
1558434338748789,-5,-10,-21,-18,2,2,2,-6
1558434338763749,-2,-4,-5,5,-3,-1,-4,-2
1558434338763749,-4,-1,10,6,0,-4,5,1
1558434338801646,1,7,3,10,3,2,-6,-4
1558434338801646,2,-3,-12,-14,-2,0,2,0
1558434338802644,2,3,11,14,5,-5,-4,-1
1558434338802644,-6,-7,-18,-12,-14,-5,-10,-4
1558434338803643,0,5,2,-5,2,3,5,3
1558434338803643,1,8,2,4,-1,-5,-6,-2
1558434338803643,-5,-6,8,6,-3,-8,-2,-5
1558434338803643,0,-3,1,1,-5,-1,-2,-5
1558434338815609,2,-2,-8,-2,5,0,-1,-2
1558434338815609,2,2,1,-6,2,7,5,1
1558434338822590,1,-2,-7,0,-9,0,7,0
1558434338822590,2,7,8,5,4,-3,2,1
1558434338829572,-3,1,-1,-4,-9,-5,-3,-1
1558434338829572,1,-8,4,3,1,-3,0,0
1558434338844531,-1,8,10,3,5,-2,-6,-1
1558434338844531,-2,-17,-18,-8,-3,9,4,-2
1558434338853509,2,8,12,4,0,-1,2,1
1558434338853509,-4,2,1,-1,-4,-4,-6,-5
1558434338859491,-1,-1,-5,-7,-2,-6,-3,1
1558434338859491,0,5,12,9,5,0,-1,0
1558434338875449,-4,-13,-35,-26,-8,-9,-8,0
1558434338875449,0,-1,4,4,4,9,10,2
1558434338882430,-1,-2,-2,-6,-3,1,-1,-4
1558434338882430,-6,2,7,15,5,5,5,0
1558434338889412,1,-5,8,-3,-9,-6,-2,0
1558434338889412,-1,-2,-5,-2,6,-1,1,2
1558434338905369,2,4,1,-3,-7,-2,-2,1
1558434338905369,3,3,13,10,12,11,3,2
1558434338913348,-2,3,-5,-2,-3,4,9,3
1558434338913348,-5,-8,-13,-1,-1,-3,-4,-3
1558434338920330,-1,-10,-10,-13,0,2,-1,-2
1558434338920330,1,10,-2,-8,-8,-10,-2,2
1558434338935289,-1,-4,15,14,-1,-4,0,-4
1558434338935289,-4,-2,7,-3,-7,-5,-7,-4
1558434338942270,2,0,-11,1,3,0,-1,1
1558434338942270,-1,6,-13,-18,-8,-5,0,1
1558434338950250,-7,-20,-2,6,2,1,-1,-4
1558434338950250,2,1,14,16,4,5,7,2
1558434338965209,-6,-6,-19,-17,-2,-2,-6,-3
1558434338965209,2,-1,6,-1,-5,-1,-4,-1
1558434338973189,6,16,21,13,5,-2,2,-1
1558434338973189,-10,-9,-31,-16,-4,-2,-2,-2
1558434338980171,-2,-7,-1,4,4,4,-1,0
1558434338980171,-6,-10,-20,-17,-4,-2,5,-4
1558434338995129,-3,-6,-2,-2,-2,-3,-6,-1
1558434338995129,3,5,9,4,-5,-6,-1,-1
1558434339002110,-3,2,10,10,2,5,5,-3
1558434339002110,0,1,-1,-2,-2,-10,-10,-5
1558434339010089,-1,4,-4,-2,7,11,0,1
1558434339010089,-3,-7,-8,-6,-8,-1,2,0
1558434339025051,1,8,13,8,1,-7,2,-1
1558434339025051,-4,-11,-5,-1,-8,-9,-6,-6
1558434339033028,0,-5,-14,-9,2,2,-1,1
1558434339033028,2,3,4,0,3,6,9,0
1558434339040009,-5,-6,-4,-11,-17,-8,-11,-7
1558434339040009,7,20,30,27,15,12,-2,0
1558434339055966,-8,-10,-40,-29,-9,-10,2,1
1558434339055966,0,4,0,-3,-2,-3,-6,-3
1558434339061952,-3,-2,1,1,-1,-4,-1,-2
1558434339061952,-2,-12,4,7,5,4,4,-1
1558434339069929,2,8,10,7,0,0,-4,-2
1558434339069929,0,7,7,2,-6,-9,-12,-3
1558434339084890,-4,-17,-10,-7,0,2,-4,-2
1558434339084890,2,9,-2,-6,-1,-3,3,5
1558434339092869,1,4,8,6,1,0,3,0
1558434339092869,4,9,7,2,2,3,0,-1
1558434339099849,0,0,-12,-4,-8,-3,1,1
1558434339099849,-2,-12,-7,-3,0,-2,-8,-2
1558434339115807,-2,-1,3,1,-3,-6,-11,-5
1558434339115807,2,3,1,4,1,9,3,3
1558434339122788,2,3,-8,-12,-2,-4,4,2
1558434339122788,-1,-3,0,-3,-4,-3,3,-3
1558434339129770,-1,3,8,5,-3,1,1,-3
1558434339129770,0,-7,0,3,3,-1,-10,-2
1558434339144730,0,2,10,5,9,8,6,2
1558434339144730,-4,-5,-35,-25,-12,-9,-10,-3
1558434339152707,-3,2,16,18,10,10,3,-3
1558434339152707,-4,-12,-16,-14,-8,-11,-7,-5
1558434339159688,-1,-7,-3,6,-7,0,0,-2
1558434339159688,0,4,12,10,4,1,0,2
1558434339175648,1,0,2,0,-2,-2,-8,2
1558434339175648,0,-1,-6,-6,4,5,9,2
1558434339182628,-1,3,-8,-6,-3,-3,-4,-2
1558434339182628,4,11,10,9,4,-1,0,2
1558434339189614,-4,-9,-10,-8,-2,1,-1,-1
1558434339189614,0,0,16,13,-1,-4,-8,1
1558434339204571,3,5,10,-1,2,5,13,1
1558434339204571,-10,-14,-27,-17,-8,-5,-2,-3
1558434339213545,1,6,6,-3,-5,-5,4,-2
1558434339213545,-3,-5,3,1,0,-2,-5,0
1558434339219528,-1,0,-5,-4,0,2,-4,-4
1558434339219528,1,0,12,12,-2,-3,-2,1
1558434339235487,2,1,-7,-4,-1,1,6,4
1558434339235487,5,10,9,15,5,-3,2,-1
1558434339242507,-16,-29,-26,-19,-14,-2,-6,-3
1558434339242507,2,-1,5,-4,1,1,5,0
1558434339249487,-4,-7,-18,-12,-10,-11,-9,-4
1558434339249487,-4,-2,-4,-1,2,3,-2,-2
1558434339264409,1,8,3,5,4,2,-9,1
1558434339264409,0,-6,10,6,3,-2,1,3
1558434339273385,3,1,9,4,-1,-1,-5,-2
1558434339273385,0,2,-8,-7,-6,-3,0,-5
1558434339280367,0,11,12,9,-1,-4,-4,-1
1558434339280367,-3,-7,-11,-12,-6,-8,3,-3
1558434339295327,-2,-12,-7,-5,0,1,1,-4
1558434339295327,-6,-11,-20,-5,3,4,-1,0
1558434339302308,4,4,16,7,6,2,6,3
1558434339302308,4,7,4,2,1,1,-1,0
1558434339310288,-1,0,-8,-9,-4,-6,0,-2
1558434339310288,-4,-3,0,-1,3,-1,-8,-2
1558434339325248,1,5,0,2,4,-2,5,0
1558434339325248,1,-4,0,0,1,2,-9,-2
1558434339333227,-9,-7,4,7,12,10,2,2
1558434339333227,2,8,15,-1,-2,1,2,0
1558434339347190,-5,-5,-14,-1,-5,-4,-6,-6
1558434339347190,-2,-11,-14,-7,-3,-6,2,0
1558434339355166,-2,2,-7,-4,-8,-5,-2,-2
1558434339355166,0,-5,0,-6,-6,-1,1,0
1558434339362148,4,-1,4,0,0,-4,-12,1
1558434339362148,1,6,14,4,10,13,17,6
1558434339370126,1,2,-1,3,6,5,8,-2
1558434339370126,-2,17,9,9,-8,-5,0,-4
1558434339385089,1,-6,4,4,1,-6,-4,0
1558434339385089,-5,-8,-25,-17,-8,-6,-5,-2
1558434339393067,-4,-14,-28,-19,-7,-3,-1,-3
1558434339393067,3,7,14,8,6,3,1,0
1558434339407031,-2,-6,-7,-4,-1,3,4,0
1558434339407031,1,10,10,9,3,2,-4,-2
1558434339423983,-2,0,6,2,-9,-7,-13,1
1558434339423983,0,-5,-4,-3,3,-1,5,3
1558434339424981,2,6,4,-1,-1,3,3,-2
1558434339424981,-2,4,5,4,4,1,-1,-3
1558434339429966,7,8,10,2,-5,-3,-3,3
1558434339429966,-3,-6,-20,-10,1,-1,3,-1
1558434339444926,-4,6,-1,-5,-1,-1,-4,0
1558434339444926,-3,-29,-16,-15,-11,-7,1,-2
1558434339452905,3,5,18,12,7,8,1,-1
1558434339452905,-4,-15,-5,-5,-6,-3,-4,-3
1558434339466868,7,8,3,0,0,-8,5,6
1558434339466868,-1,9,6,5,2,2,-5,-1
1558434339475844,-4,2,-1,-4,-3,-5,-5,-2
1558434339475844,1,3,1,1,-1,-1,-1,1
1558434339482825,-2,-7,-2,2,3,9,4,-4
1558434339482825,0,5,18,14,8,3,-1,0
1558434339489807,1,-3,-12,-2,2,-2,0,-1
1558434339489807,-15,-15,-15,-13,-18,-14,-10,-5
1558434339504768,-7,-11,-24,-23,-8,-5,-2,-3
1558434339504768,-4,-3,-3,-6,-11,-5,-9,-9
1558434339512752,8,14,20,20,9,0,-5,-1
1558434339512752,2,-6,-20,-11,9,2,10,3
1558434339527705,0,1,15,11,5,7,0,0
1558434339527705,-1,3,2,-3,-5,3,0,-3
1558434339535684,-5,-3,-15,-9,1,1,-2,-3
1558434339535684,-3,-10,9,8,-4,-7,-2,-3
1558434339542665,-4,-4,1,-3,-6,-10,-16,-5
1558434339542665,2,7,8,4,0,4,-4,0
1558434339549647,-4,-13,-12,-8,-8,-5,0,2
1558434339549647,4,1,2,0,5,4,4,6
1558434339564920,2,0,2,9,12,9,5,0
1558434339564920,-1,3,-11,-9,-6,-8,0,-2
1558434339572585,4,6,29,17,5,1,3,1
1558434339572585,0,4,-12,-9,-9,-3,-4,-4
1558434339587544,0,6,-6,-9,-7,-3,-5,0
1558434339587544,-11,-23,8,5,1,-2,-4,-1
1558434339595522,-2,3,-6,-4,-2,2,15,0
1558434339595522,-2,-9,-4,2,12,1,0,-4
1558434339602506,6,7,9,5,-5,-6,-1,5
1558434339602506,-1,-3,-12,-6,-6,1,7,1
1558434339609485,-2,-9,-6,-10,-5,-1,-7,-2
1558434339609485,3,10,8,3,-2,-2,-1,1
1558434339626440,-2,2,12,14,5,-2,2,-1
1558434339626440,-3,-2,-13,-15,-8,-5,-4,-4
1558434339633429,-6,-14,-21,-16,-5,-3,0,-4
1558434339633429,-2,2,7,0,-9,-1,2,-4
1558434339647386,-2,-8,-11,-4,-3,-4,-9,-5
1558434339647386,6,12,-6,1,10,7,10,8
1558434339655363,-2,-2,-1,-3,-1,-2,2,1
1558434339655363,-6,-4,-5,-6,-4,1,-6,-5
1558434339662346,0,0,18,11,2,1,4,-2
1558434339662346,0,-1,-18,-6,-3,-4,-8,-2
1558434339678304,4,4,2,-1,1,1,-6,3
1558434339678304,-2,3,11,6,4,8,9,1
1558434339685283,-8,-7,-15,-8,-2,0,-10,-6
1558434339685283,3,4,8,13,8,6,14,3
1558434339693261,-1,-8,-7,-6,-1,-4,-1,1
1558434339693261,2,0,2,1,-9,-2,-1,-1
1558434339707225,3,7,5,1,4,3,2,2
1558434339707225,0,5,27,16,10,6,2,-2
1558434339716201,-8,-10,-24,-14,-13,-11,-14,-11
1558434339716201,-2,1,1,-2,1,-2,-4,-1
1558434339722185,-7,-5,-45,-26,-10,-3,0,-3
1558434339722185,-4,-8,9,9,1,-12,-6,0
1558434339739139,-3,-5,18,10,3,5,-1,-1
1558434339739139,2,2,3,1,0,0,-5,0
1558434339745123,7,9,23,16,5,-1,9,7
1558434339745123,0,1,-22,-14,-1,4,-2,-3
1558434339754100,-1,-4,-6,-9,-5,-3,-5,-5
1558434339754100,-3,1,-10,-2,-6,-5,-6,-2
1558434339767065,0,-6,21,7,6,3,-2,3
1558434339767065,-5,-10,-16,-13,-9,2,1,-3
1558434339776040,-3,-1,-9,0,2,3,7,5
1558434339776040,4,3,7,11,15,0,12,10
1558434339790003,-5,0,-6,-9,-13,-4,4,-6
1558434339790003,3,1,5,2,6,-2,-2,-1
1558434339798980,0,2,3,2,-4,-1,-6,-6
1558434339798980,-3,-3,-1,0,-3,-2,-1,2
1558434339813939,-4,-11,-5,-7,-6,-6,-2,-5
1558434339813939,-1,4,3,-1,4,6,-9,1
1558434339814936,2,0,0,3,-6,0,2,-1
1558434339814936,3,5,1,3,7,-2,-3,2
1558434339826905,3,6,17,10,3,3,4,0
1558434339826905,-8,5,-26,-26,-13,-8,-2,-3
1558434339835932,-1,-6,18,15,14,10,-4,0
1558434339835932,-2,-13,-6,-6,-7,-8,-8,-5
1558434339858818,-2,-11,-23,-17,-6,-3,-6,-6
1558434339858818,5,8,13,9,2,-3,0,1
1558434339859815,4,13,8,4,0,2,1,4
1558434339859815,-4,-4,9,0,-1,5,-5,-13
1558434339873778,0,2,-19,-2,-3,0,3,5
1558434339873778,3,-1,-1,-10,-6,-12,2,3
1558434339874775,-6,-3,-5,-3,2,-3,-7,-3
1558434339874775,-2,-8,0,-4,-5,-3,-2,-2
1558434339887741,0,1,-3,1,0,-2,-2,-1
1558434339887741,-2,-5,-4,1,-6,-1,-7,-6
1558434339896718,2,-1,6,7,5,0,0,2
1558434339896718,3,12,11,6,-1,1,-4,2
1558434339909682,-9,-9,-18,-17,-5,-5,-5,-8
1558434339909682,-1,-8,-17,-9,6,-3,11,2
1558434339918658,-5,-2,2,-2,2,3,7,-1
1558434339918658,-7,-7,-11,0,4,5,8,2
1558434339933618,0,-4,18,9,2,-2,0,1
1558434339933618,1,3,13,9,-4,0,-8,-4
1558434339934616,6,3,-8,-11,-9,-7,-4,-3
1558434339934616,0,10,8,4,5,2,-4,-1
1558434339947582,-3,-3,-4,-7,-13,-7,-8,-4
1558434339947582,-2,0,13,13,0,0,-2,-1
1558434339956557,0,-3,-12,-6,8,10,13,5
1558434339956557,0,-1,-5,-8,-5,-11,-1,-2
1558434339969522,0,5,10,9,10,-1,0,1
1558434339969522,4,3,13,10,1,0,-4,-1
1558434339978499,0,1,-4,-3,-4,-5,-1,3
1558434339978499,-2,4,8,5,-4,1,-3,-1
1558434339993458,-1,-2,-7,-4,2,4,1,2
1558434339993458,-5,-14,-16,-14,-8,-7,-16,-4
1558434339995453,-2,-4,8,7,4,3,10,5
1558434339995453,0,-9,-19,-14,-3,-4,-6,2
1558434340007421,1,14,9,7,4,4,5,3
1558434340007421,-3,-7,6,3,-1,-1,-2,-1
1558434340016398,0,2,1,-1,-3,-6,-8,-8
1558434340016398,6,8,18,14,5,2,-1,2
1558434340029366,5,4,-9,-5,-1,2,3,2
1558434340029366,-7,0,-24,-10,-10,-5,-5,-2
1558434340038338,-11,-18,3,-3,-11,-12,-15,-8
1558434340038338,-2,-5,-20,-16,-8,4,6,-2
1558434340053298,1,-4,9,8,6,4,-2,3
1558434340053298,5,10,17,12,10,3,6,5
1558434340055294,4,3,2,2,-1,-4,0,1
1558434340055294,1,2,-6,-1,-3,-9,-7,-1
1558434340067261,2,10,8,5,2,0,3,-1
1558434340067261,-8,-19,4,0,-4,2,-3,-1
1558434340076237,-3,3,-13,-8,-4,-3,0,-3
1558434340076237,-7,-11,-12,-11,0,-2,-8,-6
1558434340090199,-6,-13,-21,-9,-13,-12,-1,-4
1558434340090199,1,10,11,1,0,-3,-2,-4
1558434340099176,2,-4,-6,1,3,3,3,1
1558434340099176,2,0,4,4,1,5,4,1
1558434340114137,-2,-2,-8,-10,3,5,-1,-2
1558434340114137,2,-1,3,4,-2,-4,-1,0
1558434340115134,8,21,28,16,0,-7,-5,1
1558434340115134,-2,-5,-41,-27,-20,-10,-10,-6
1558434340127102,-19,-25,8,3,3,12,-4,-7
1558434340127102,-4,0,-22,-17,-11,-4,-1,-6
1558434340136077,3,6,13,9,17,9,9,8
1558434340136077,2,-3,7,12,8,-5,-1,2
1558434340150041,6,3,28,15,5,-3,4,3
1558434340150041,-3,-3,-31,-21,-12,-6,-4,-4
1558434340159016,1,-1,-4,-2,1,8,-1,-4
1558434340159016,-5,0,9,-1,-6,-7,-11,-5
1558434340172978,1,8,2,6,5,3,12,0
1558434340172978,0,3,20,13,14,2,1,2
1558434340179972,-1,-3,1,-5,-9,0,-2,-2
1558434340179972,-7,-17,-34,-25,-15,-3,1,-4
1558434340186940,0,-8,-1,-1,-7,-4,-5,-4
1558434340186940,3,7,3,3,1,1,1,1
1558434340195916,-1,0,-1,-1,2,-4,-3,0
1558434340195916,-1,3,10,0,1,-4,0,2
1558434340209879,1,7,-9,-8,-10,-7,-9,-2
1558434340209879,5,3,7,11,10,5,4,1
1558434340218855,2,7,14,7,-2,6,3,0
1558434340218855,0,9,17,18,11,13,10,2
1558434340232818,-8,-21,-53,-39,-11,-19,-15,-2
1558434340232818,0,-11,18,6,3,4,2,1
1558434340239799,-3,-7,-17,-10,-9,-6,0,-2
1558434340239799,5,11,13,5,-3,-5,-2,2
1558434340247778,2,5,6,-1,1,1,-6,0
1558434340247778,-2,0,-4,5,6,-2,5,3
1558434340255756,-1,1,7,0,2,9,5,1
1558434340255756,-1,-2,-5,-5,-2,0,7,1
1558434340269719,1,8,13,9,2,2,-4,-4
1558434340269719,-5,-12,-16,-6,-7,-5,-5,-7
1558434340278696,-4,2,0,7,0,-3,-2,-5
1558434340278696,-3,-14,-6,-8,-8,-6,-1,-4
1558434340292695,6,5,11,12,1,-3,5,3
1558434340292695,2,13,-8,-3,5,7,4,4
1558434340301633,0,-9,-11,-9,-5,-3,-2,0
1558434340301633,-13,-4,-13,-8,-5,-2,-2,-5
1558434340307619,-1,-16,9,0,3,5,10,-1
1558434340307619,-1,1,-1,0,0,1,-6,-5
1558434340316595,-6,-7,-7,-7,-6,-7,-6,-2
1558434340316595,2,7,7,7,4,4,-1,-1
1558434340329560,-1,-1,-4,0,4,1,1,2
1558434340329560,-1,0,2,-1,-5,-9,-3,-2
1558434340338535,1,-4,-9,-7,4,3,-2,-2
1558434340338535,2,1,7,6,3,6,2,0
1558434340352500,2,8,5,2,0,-1,-4,2
1558434340352500,-1,-5,-15,-6,-2,7,9,1
1558434340361474,0,2,5,-2,1,-2,0,-3
1558434340361474,1,-3,3,1,-1,-2,-4,0
1558434340367459,-5,-6,-12,-10,-11,-12,-4,-3
1558434340367459,-1,-6,4,-3,-6,-1,-1,1
1558434340376436,2,14,15,11,4,-2,-4,0
1558434340376436,2,0,-6,3,9,7,4,-1
1558434340389398,3,2,11,4,-2,-3,-4,-4
1558434340389398,-17,-21,-27,-23,-14,-17,-8,-7
1558434340398377,1,1,0,4,-4,-3,7,4
1558434340398377,2,2,12,5,1,-4,-7,-4
1558434340412337,-3,0,-14,-6,-4,0,-3,-1
1558434340412337,2,1,14,8,6,6,4,0
1558434340421314,1,0,-15,-5,-4,-4,-11,-4
1558434340421314,0,0,4,-1,3,4,10,0
1558434340436275,-3,3,16,16,-1,-4,-4,-1
1558434340436275,-1,0,-8,-12,-1,-1,-3,-1
1558434340437273,-6,-13,-12,-7,-1,5,5,-2
1558434340437273,2,2,0,-4,-4,-3,-7,-3
1558434340450687,1,8,4,6,5,9,3,1
1558434340450687,-3,-4,18,20,5,3,-2,-3
1558434340459214,-5,-5,-27,-22,-10,-9,-1,-2
1558434340459214,-6,-3,-10,-6,-3,-2,-5,-2
1558434340472591,-5,-13,0,4,5,6,-3,-4
1558434340472591,5,2,1,1,-5,-3,4,3
1558434340481153,-2,3,0,-3,-2,-4,-8,-4
1558434340481153,-3,-9,3,7,0,-1,3,-1
1558434340488300,1,0,-10,-6,-5,-3,-3,-3
1558434340488300,3,1,12,5,6,9,-3,-1
1558434340496282,-5,1,13,8,9,-3,5,1
1558434340496282,-3,-1,-17,-12,-4,-3,-1,-2
1558434340510427,-2,0,-9,-5,-5,-5,-1,-2
1558434340510427,1,-4,-7,-8,-5,-1,-1,-1
1558434340519085,6,1,16,15,6,7,9,2
1558434340519085,-2,3,-10,-11,-2,-1,-3,-2
1558434340541030,1,1,1,0,-2,-2,-9,0
1558434340541030,1,-6,9,8,1,0,3,1
1558434340543028,-5,-8,-19,-7,0,-1,-4,-6
1558434340543028,-1,-6,0,4,-4,-2,5,1
1558434340546978,-1,-1,3,-3,-7,-5,-8,0
1558434340546978,-2,8,-4,-7,-4,-1,5,1
1558434340555955,1,7,7,-3,-4,-1,-5,-2
1558434340555955,-1,-6,2,-1,-6,-8,-3,-1
1558434340571223,-3,-13,-6,-3,4,-2,5,-4
1558434340571223,3,10,19,11,1,-1,-7,-1
1558434340578894,-2,-7,-20,-9,-5,0,-2,-2
1558434340578894,3,5,-7,-10,-2,-5,-3,-1
1558434340591859,0,1,4,2,4,1,-1,2
1558434340591859,2,5,6,-1,2,5,3,1
1558434340600833,-2,-5,-9,-6,-10,-7,-3,-4
1558434340600833,2,10,19,15,9,7,-7,-2
1558434340606818,-7,-10,-15,-10,-7,-8,3,-2
1558434340606818,-2,-4,-12,-7,-5,-7,-4,-2
1558434340615795,0,2,8,4,10,5,3,3
1558434340615795,-2,-3,-7,-8,-3,0,1,0
1558434340629756,5,9,13,13,5,7,6,1
1558434340629756,-5,-5,-12,-6,-7,-1,-3,-3
1558434340638733,-2,-3,6,8,-1,-3,6,1
1558434340638733,7,13,28,18,12,11,9,8
1558434340652694,-3,-5,-26,-16,0,-1,4,-2
1558434340652694,-3,3,-21,-19,-20,-17,-18,-5
1558434340661672,0,-12,4,2,5,6,6,0
1558434340661672,-7,-17,-7,0,-4,-6,0,-4
1558434340667656,0,6,9,3,3,5,0,0
1558434340667656,3,2,4,3,4,-1,3,1
1558434340676630,2,4,0,0,-8,-2,-6,-3
1558434340676630,4,6,8,10,-1,-2,-6,-2
1558434340689597,5,5,16,15,14,9,6,8
1558434340689597,-6,-8,-36,-30,0,-1,-3,-3
1558434340698572,-7,4,3,-4,-3,-5,-1,0
1558434340698572,-7,-7,-5,-7,-5,-2,-4,-6
1558434340712587,-5,-16,-7,-7,-11,-7,-8,-6
1558434340712587,5,6,18,16,4,2,-3,0
1558434340721510,2,1,0,5,1,2,9,2
1558434340721510,1,5,-4,-2,-2,-4,-8,-3
1558434340727494,0,4,9,2,0,-4,-8,-1
1558434340727494,1,3,15,13,5,2,4,4
1558434340736476,-5,-11,-20,-15,-8,-6,-10,-5
1558434340736476,-5,-14,-18,-12,-11,-3,-1,-3
1558434340749458,0,4,7,10,1,2,2,-4
1558434340749458,-4,-4,-16,-14,-3,0,5,-2
1558434340758413,-1,9,15,7,3,4,-3,1
1558434340758413,4,-6,14,9,10,6,8,6
1558434340772402,-6,-1,-17,-15,-1,-3,-3,-3
1558434340772402,-5,-11,0,5,-8,-5,3,-6
1558434340781353,6,0,-4,-3,0,-1,1,0
1558434340781353,3,12,3,-1,-5,-2,-3,-3
1558434340796311,-5,-9,10,0,0,3,1,-3
1558434340796311,-2,-12,-13,-2,-1,-3,2,1
1558434340797309,-3,-2,-3,2,-4,-2,-6,-3
1558434340797309,3,-5,-1,-1,6,12,9,4
1558434340809277,3,12,8,3,0,-6,-5,-1
1558434340809277,-3,1,-7,-5,-4,1,4,-5
1558434340818251,-4,-6,-8,-3,-6,-7,-4,-2
1558434340818251,-1,-2,-4,-4,-1,-2,-2,-2
1558434340832214,1,3,2,4,1,3,2,4
1558434340832214,-2,1,9,1,0,1,-6,-2
1558434340841191,-2,1,3,3,-10,-6,4,1
1558434340841191,-6,-4,-8,-6,5,4,0,-2
1558434340856152,1,8,-14,-10,-5,-9,3,-2
1558434340856152,-6,-16,11,8,3,7,-5,-3
1558434340857148,1,5,12,6,-1,-2,-1,-4
1558434340857148,-4,-10,-7,-5,-7,-15,-5,1
1558434340870114,1,-2,-13,-10,-2,-1,3,0
1558434340870114,5,20,16,10,5,-5,0,4
1558434340879088,2,-2,-9,-4,7,7,-5,0
1558434340879088,-2,-7,-10,-7,-5,-2,3,-2
1558434340892053,-4,-9,-2,-3,2,7,2,-5
1558434340892053,1,3,3,3,-1,-3,-5,-1
1558434340901030,-2,-1,3,-3,0,-4,-1,1
1558434340901030,8,18,24,12,-4,-3,-6,1
1558434340915991,-2,-2,-21,-9,-2,4,11,1
1558434340915991,-2,-1,1,0,6,1,2,2
1558434340917985,2,-3,-10,-7,-2,-3,-2,0
1558434340917985,1,2,-4,3,7,1,2,-2
1558434340929953,-2,-7,3,-7,-13,-6,-10,-4
1558434340929953,1,3,-1,-1,0,-2,-3,-4
1558434340938928,-5,-10,3,0,-2,1,1,-2
1558434340938928,-3,2,-5,-3,-7,-9,-13,-5
1558434340960869,0,-1,9,3,3,1,7,4
1558434340960869,1,3,-13,-2,3,-3,-1,0
1558434340966854,-4,2,-5,-15,-10,-5,-10,-5
1558434340966854,-3,-12,10,10,4,7,6,2
1558434340975831,7,15,26,19,9,1,-6,3
1558434340975831,-4,-8,-48,-44,-23,-12,0,-2
1558434340977826,-10,-13,4,3,0,0,-5,-3
1558434340977826,1,1,-3,-2,-4,1,0,-3
1558434340989793,0,-3,8,13,3,1,-7,0
1558434340989793,3,8,17,11,10,10,8,0
1558434340998769,0,3,1,0,-5,-10,-8,-2
1558434340998769,-2,-1,-5,-4,-2,-4,0,1
1558434341020713,-1,-5,-6,-6,1,3,0,0
1558434341020713,-3,-14,-2,0,-2,5,1,-1
1558434341022705,-1,6,13,11,6,1,0,-1
1558434341022705,-2,1,-16,-8,2,5,1,0
1558434341035670,-1,-6,0,-7,-5,-6,-2,-5
1558434341035670,-4,-5,-5,0,3,-1,-6,-3
1558434341037667,8,10,18,7,1,-4,7,6
1558434341037667,-4,-3,-16,-13,-17,-18,-5,-2
1558434341049633,-2,1,-10,-7,5,10,0,-2
1558434341049633,-6,-10,-12,-7,-9,-3,-6,-6
1558434341058609,-3,-12,5,4,0,0,-1,-3
1558434341058609,1,6,9,10,8,7,6,2
1558434341072571,0,-2,-8,-3,-8,-5,5,-3
1558434341072571,-2,3,8,3,4,5,1,0
1558434341081548,-1,2,-14,-5,-1,-2,2,-1
1558434341081548,-1,-6,3,-10,-8,-8,-6,1
1558434341095510,-4,0,-2,2,0,1,4,2
1558434341095510,0,1,7,3,1,-1,-2,2
1558434341102493,-3,-4,-14,-8,-1,1,2,-1
1558434341102493,0,-7,-2,-1,4,4,0,-2
1558434341110470,3,5,-7,-11,-4,-6,-2,-1
1558434341110470,4,0,21,18,-3,-4,-3,4
1558434341118451,3,0,-16,-10,0,1,-3,2
1558434341118451,-3,3,11,7,1,6,-1,-1
1558434341132423,-6,-8,-11,-3,-11,-8,-6,-4
1558434341132423,-5,-4,-6,-6,-2,2,-4,-5
1558434341148381,1,6,1,3,10,1,2,2
1558434341148381,1,3,11,8,1,0,4,-2
1558434341156352,-4,-9,-10,-4,-3,-9,-8,-4
1558434341156352,4,8,7,4,2,5,0,2
1558434341157350,-1,0,0,1,6,7,8,1
1558434341157350,-8,-13,-12,-8,-3,-4,-6,-7
1558434341170321,2,4,4,4,2,2,0,3
1558434341170321,0,7,14,10,-1,-2,4,-1
1558434341179289,-3,-10,-28,-21,-8,-4,-3,-4
1558434341179289,-3,1,1,2,-8,-7,-6,-3
1558434341192253,-3,-4,3,0,-3,-5,-4,-4
1558434341192253,-2,-6,-11,-5,-4,-8,-4,-3
1558434341201231,1,7,12,9,-3,5,0,-2
1558434341201231,-6,-14,-11,-12,-6,-7,-6,-4
1558434341216188,1,2,10,5,-2,-3,-5,1
1558434341216188,0,10,16,11,6,1,-5,-3
1558434341217187,-4,-13,-25,-12,1,2,10,-2
1558434341217187,1,0,-6,-6,-3,3,2,0
1558434341230154,-3,-6,1,0,1,4,1,-2
1558434341230154,0,2,2,0,-3,-9,-1,-1
1558434341239128,-3,-3,4,-2,-8,-1,-6,-3
1558434341239128,3,14,1,-1,1,0,2,-1
1558434341252092,-1,-5,3,5,6,3,9,4
1558434341252092,1,5,1,-2,0,0,-4,-1
1558434341261070,3,0,8,10,0,5,3,2
1558434341261070,-8,-10,-24,-23,-6,-4,-2,-2
1558434341276094,-4,-9,3,0,-5,-5,-8,-2
1558434341276094,-2,-6,-6,-1,2,-1,0,0
1558434341278030,7,14,19,9,2,-2,-2,1
1558434341278030,1,10,21,16,5,0,-2,-1
1558434341290091,3,5,0,4,-4,-1,-5,1
1558434341290091,-3,-11,-31,-26,-3,2,4,2
1558434341298967,0,1,6,2,3,-1,-1,-2
1558434341298967,1,-1,2,4,8,9,3,0
1558434341312933,2,0,13,10,2,3,0,-2
1558434341312933,0,1,-14,-10,-9,-8,1,-3
1558434341321008,-8,-10,4,3,6,1,-1,2
1558434341321008,-3,-4,-10,-5,-1,0,0,0
1558434341336867,5,11,6,2,7,3,-3,1
1558434341336867,-4,-9,-3,3,-6,0,-2,-2
1558434341337870,-3,3,-6,-5,-7,-5,-9,-5
1558434341337870,-2,-9,1,2,0,0,1,1
1558434341349873,-6,-5,0,0,3,1,4,-2
1558434341349873,2,4,9,7,4,3,-2,2
1558434341358809,-7,-17,-3,-5,-4,-8,-4,-2
1558434341358809,3,10,14,6,1,1,-2,2
1558434341372769,-6,-8,-30,-29,-21,-7,0,-7
1558434341372769,3,-2,2,0,1,-6,0,0
1558434341381747,-3,-7,-5,-2,-2,-3,-3,-2
1558434341381747,-2,0,-1,1,1,-1,0,-3
1558434341396709,2,6,4,-2,-3,1,-2,-2
1558434341396709,-2,-2,-8,-4,2,-5,-9,-1
1558434341397704,2,4,15,12,3,3,2,3
1558434341397704,-4,-8,-28,-21,-11,-6,-11,-5
1558434341409908,1,3,10,5,3,1,-3,3
1558434341409908,-1,0,-8,-3,-3,0,3,-2
1558434341418783,3,3,1,1,1,-2,-3,-1
1558434341418783,1,8,24,14,10,10,-5,4
1558434341432854,-5,-11,-31,-23,-9,-5,3,-3
1558434341432854,1,1,20,12,3,5,5,-2
1558434341441592,-1,-3,-18,-17,-4,-2,3,0
1558434341441592,1,1,17,17,5,0,-7,1
1558434341456715,-3,0,-18,-6,0,1,0,-1
1558434341456715,-3,0,5,0,1,6,5,-3
1558434341462873,0,-2,4,0,-2,-3,-13,-6
1558434341462873,0,2,1,-5,-7,-9,3,-1
1558434341469735,0,0,-2,4,-5,-8,-3,2
1558434341469735,3,2,-2,-1,4,2,-5,-2
1558434341478712,2,0,-5,-1,0,-1,0,2
1558434341478712,-3,-6,-11,-4,-5,-5,-5,-4
1558434341492670,4,1,24,14,7,7,0,0
1558434341492670,-9,-15,-21,-23,-14,-6,7,-4
1558434341501428,0,-1,-8,-3,7,-3,-1,0
1558434341501428,-5,-5,-10,-7,-6,-3,1,-2
1558434341515394,4,11,10,2,0,-2,4,1
1558434341515394,-3,4,4,10,2,-2,-10,-2
1558434341522541,-8,-14,-3,-1,-4,5,-1,-2
1558434341522541,-2,-8,-12,-12,-9,-7,-4,-6
1558434341530352,-1,-2,0,-1,10,6,-2,2
1558434341530352,6,4,23,16,2,-3,3,5
1558434341538331,0,5,-5,-4,-3,-1,-2,-1
1558434341538331,2,2,-10,-6,0,2,2,2
1558434341552500,-1,0,4,-2,-2,-5,-5,-2
1558434341552500,-3,-4,-11,-7,-7,-5,-3,2
1558434341561275,1,6,22,26,13,8,6,1
1558434341561275,-3,-3,-19,-16,-5,-4,4,0
1558434341575233,-2,-2,6,0,-4,-4,2,-2
1558434341575233,-1,-4,-7,-3,-5,-3,-2,-4
1558434341582210,-3,-6,-14,-13,-6,-2,-8,-4
1558434341582210,0,8,18,17,2,5,7,2
1558434341590193,-5,-7,-34,-19,-10,-7,-6,-4
1558434341590193,-3,-10,8,2,1,0,0,-2
1558434341599164,6,16,14,8,0,-1,3,1
1558434341599164,1,-3,4,8,4,-2,0,0
1558434341612159,-6,-9,4,2,0,3,-5,-3
1558434341612159,1,0,3,4,1,-3,0,0
1558434341621104,-7,-6,-22,-13,-6,-7,-6,-7
1558434341621104,4,2,-3,-9,-2,-4,1,3
1558434341636533,0,1,5,6,2,3,-4,-2
1558434341636533,-1,-1,-1,-5,-2,-5,-2,2
1558434341642512,0,1,3,0,1,1,6,0
1558434341642512,-1,-3,-9,-2,-9,-6,-18,-6
1558434341650499,0,2,-8,-5,3,0,9,3
1558434341650499,-7,-4,7,4,5,8,2,-1
1558434341659005,2,-1,3,3,-6,-8,0,0
1558434341659005,2,0,18,10,7,5,2,-3
1558434341672048,2,2,-2,-3,-5,-6,4,1
1558434341672048,0,-12,-8,4,6,3,0,1
1558434341680944,-1,3,1,-6,-7,-6,-10,0
1558434341680944,-2,2,-2,3,-5,-2,5,0
1558434341696011,-1,-6,8,7,13,4,0,3
1558434341696011,-1,6,-2,-5,-5,-2,1,1
1558434341702127,-1,-2,2,2,-4,-2,-1,-1
1558434341702127,-3,-15,-27,-22,-6,-5,-4,-5
1558434341726944,-4,0,1,-4,-6,0,-3,-5
1558434341726944,0,-2,6,8,-2,-2,-6,-3
1558434341727833,0,-1,3,0,5,5,7,1
1558434341727833,1,2,8,6,0,-6,-5,0
1558434341732807,4,3,-3,2,2,4,6,3
1558434341732807,1,1,2,-4,-4,-1,0,-1
1558434341741787,2,0,1,0,5,-1,-2,1
1558434341741787,1,-1,4,5,4,5,5,5
1558434341755757,0,7,-7,-7,-11,-6,0,1
1558434341755757,-10,-13,12,8,7,-2,-7,-4
1558434341762737,3,3,-5,1,-1,2,-1,-3
1558434341762737,-5,-10,-32,-26,-5,0,6,2
1558434341778729,1,-8,16,10,-7,-12,-8,-1
1558434341778729,1,6,-32,-33,-11,-2,-4,-3
1558434341780680,-6,-8,-9,-1,-10,-10,-9,-3
1558434341780680,4,8,25,8,10,9,10,4
1558434341792696,-2,2,1,4,-4,1,-1,-5
1558434341792696,-4,-12,-3,-1,-2,-3,-1,-3
1558434341801623,-5,-4,-15,-16,-9,-5,-9,-7
1558434341801623,2,6,5,4,1,0,0,-3
1558434341815586,0,-1,18,14,11,10,-4,-1
1558434341815586,2,4,-17,-11,-9,-6,1,1
1558434341822568,0,-1,0,-4,3,0,0,-1
1558434341822568,0,8,14,7,1,0,-6,-3
1558434341839624,-3,-9,-6,-1,-1,-3,-3,-2
1558434341839624,-3,-3,-7,-7,-3,5,-1,-1
1558434341840893,2,3,10,3,3,-3,1,4
1558434341840893,1,-4,-13,2,3,1,5,-3
1558434341852836,-11,-8,5,-2,-1,-9,-8,-2
1558434341852836,4,10,-7,-3,-1,6,5,0
1558434341861464,-2,3,-6,-10,-12,-7,-6,-1
1558434341861464,-1,-4,14,15,1,0,1,-2
1558434341876679,-3,-9,-28,-18,-7,-2,-8,-5
1558434341876679,9,10,31,29,15,6,16,8
1558434341882685,-2,-5,-8,-2,11,7,-3,1
1558434341882685,-3,-5,-11,-8,-5,0,0,-3
1558434341899364,0,1,1,0,-2,-3,-3,-1
1558434341899364,-1,7,3,4,0,-3,-12,-1
1558434341900360,0,-7,7,1,-4,7,7,1
1558434341900360,-2,-4,-10,-5,-4,-5,-4,-1
1558434341921518,2,3,12,16,6,4,-3,-1
1558434341921518,2,3,0,-7,-7,-7,2,-1
1558434341922308,-5,-8,-31,-15,-7,-2,-2,-3
1558434341922308,0,2,8,2,-6,-7,-7,-4
1558434341936266,2,6,-9,-8,1,1,4,-1
1558434341936266,1,-5,3,3,1,0,4,1
1558434341942480,2,-1,30,24,11,0,-10,1
1558434341942480,-4,-8,-29,-20,-8,-1,2,-4
1558434341959206,-6,-2,-4,-2,-7,-4,5,1
1558434341959206,-2,-1,1,2,-5,-2,-4,-3
1558434341960204,0,6,19,4,-3,-3,1,-2
1558434341960204,2,0,6,7,8,4,-1,4
1558434341973167,3,9,5,-1,-2,-1,-4,-5
1558434341973167,-7,-16,-9,-5,1,2,-3,-1
1558434341981149,-7,-10,-21,-16,-3,-4,-1,-4
1558434341981149,4,8,14,6,-2,-4,-10,2
1558434342004080,-2,-4,-19,-16,-6,-1,3,-2
1558434342004080,5,15,19,13,7,1,0,3
1558434342005078,-1,0,-10,-4,-5,-7,-5,-5
1558434342005078,-2,-1,8,2,1,3,3,-2
1558434342019289,-1,-4,-5,-3,-1,5,7,2
1558434342019289,-4,-10,-12,-2,2,-1,-6,-2
1558434342020041,2,-4,-5,-1,-4,-2,6,3
1558434342020041,-1,10,20,15,6,1,-9,-1
1558434342032008,-6,-18,-27,-28,-9,-5,5,-1
1558434342032008,2,14,7,1,4,7,4,-3
1558434342041173,-5,2,-5,0,-5,0,1,-1
1558434342041173,1,-9,11,14,2,2,2,3
1558434342056116,3,5,-8,-5,3,-4,-5,-1
1558434342056116,1,0,17,10,3,-4,-5,-2
1558434342062144,-1,-1,-20,-8,-2,0,0,-3
1558434342062144,-1,1,-3,-4,2,4,3,0
1558434342079141,-4,-11,3,-1,1,1,-5,-3
1558434342079141,-5,-2,-14,-10,-17,-14,-8,-5
1558434342079878,6,7,30,18,8,2,1,2
1558434342079878,8,13,17,18,11,7,5,5
1558434342092859,-11,-10,-59,-38,-18,-10,-9,-10
1558434342092859,-3,-10,-4,-2,-1,-5,-1,-3
1558434342101008,1,-3,15,4,1,8,-4,-2
1558434342101008,-5,-8,-10,-1,-3,-1,-4,-1
1558434342115791,4,6,25,18,5,-4,-1,2
1558434342115791,1,7,5,-2,1,7,8,0
1558434342122763,-2,-4,-33,-25,-9,-12,1,0
1558434342122763,-4,-5,-4,-11,-8,-4,-3,-6
1558434342138728,2,5,19,16,7,4,-1,2
1558434342138728,-3,-4,-7,-2,0,1,-3,1
1558434342140723,5,5,12,5,1,-1,-6,-3
1558434342140723,-1,-4,-12,-8,-11,-3,5,1
1558434342152682,3,-1,13,8,4,-1,2,0
1558434342152682,-4,8,-7,-7,-4,-8,-6,0
1558434342161657,2,1,15,14,9,5,1,4
1558434342161657,-6,-7,-40,-30,-13,-11,-7,-5
1558434342175623,-3,-11,2,-1,-2,-2,-1,-1
1558434342175623,0,-5,-3,-5,-1,4,-6,-2
1558434342182604,3,15,3,4,-4,0,3,0
1558434342182604,-3,2,11,8,6,-6,1,-2
1558434342198999,-2,-6,1,6,-4,5,1,1
1558434342198999,-5,-9,-24,-23,-9,-8,-3,-5
1558434342200555,-2,0,7,5,3,6,-3,-1
1558434342200555,6,-1,5,2,2,-10,-2,2
1558434342212522,6,11,12,8,9,0,9,6
1558434342212522,-4,-5,19,18,0,-3,-4,-2
1558434342221498,-9,-17,-39,-27,-13,-6,2,-1
1558434342221498,-6,-6,-5,-3,3,4,-7,-7
1558434342235874,1,8,-1,-5,-2,3,-1,0
1558434342235874,-3,-8,-3,0,-1,-1,0,-3
1558434342242903,2,5,7,4,1,-1,3,1
1558434342242903,-3,-11,-8,-2,-2,-7,-1,0
1558434342259346,4,10,17,10,2,-2,2,1
1558434342259346,-1,1,-17,-12,-3,1,-1,-3
1558434342260949,-7,-10,0,-2,-7,-5,-5,-6
1558434342260949,-7,-15,-3,-5,-4,2,-1,-5
1558434342282161,1,3,8,8,5,3,-3,-1
1558434342282161,5,10,7,3,0,1,5,5
1558434342282827,1,-1,1,4,3,-2,2,0
1558434342282827,0,2,-6,-6,-3,1,-2,-1
1558434342296082,-3,-2,3,7,2,6,1,-5
1558434342296082,1,-3,-17,-11,1,-1,2,2
1558434342302074,5,13,5,6,0,-5,-2,1
1558434342302074,-6,-6,2,-3,2,1,11,2
1558434342318953,-6,-13,-13,-2,-7,-3,-4,-5
1558434342318953,-2,-2,-1,1,-6,-1,-4,-5
1558434342319737,-2,-8,3,1,4,1,-6,-3
1558434342319737,6,14,11,11,6,6,10,7
1558434342332740,3,3,-4,-5,-1,-5,-2,1
1558434342332740,-2,-1,1,-1,-4,-3,-3,-1
1558434342341684,-4,-10,4,4,-2,-10,-4,1
1558434342341684,-3,7,-9,-5,-4,-3,-15,-3
1558434342355632,-1,-7,-7,-6,2,-1,3,2
1558434342355632,0,3,17,16,10,11,1,1
1558434342362615,-2,1,-11,-4,-6,1,2,0
1558434342362615,2,3,-13,-5,-3,-1,-1,2
1558434342378889,-1,2,-2,-6,-6,-1,-5,-1
1558434342378889,-8,-19,-9,-9,-8,-9,-9,-3
1558434342380568,0,0,17,12,5,2,3,0
1558434342380568,2,-1,-5,-4,-2,-2,7,-3
1558434342392825,-2,9,9,8,-2,-7,-2,-3
1558434342392825,1,-5,-16,-12,-2,-1,-3,-2
1558434342408492,-3,6,1,1,0,2,-2,-4
1558434342408492,2,-3,14,6,3,0,-1,2
1558434342415474,4,3,-10,-7,7,-2,2,2
1558434342415474,1,7,11,4,1,1,1,1
1558434342422455,-4,-13,-3,-1,-6,-4,-3,-4
1558434342422455,0,7,-1,-6,-10,-4,-8,-5
1558434342438463,-2,-9,11,10,4,0,-3,1
1558434342438463,1,1,-5,-5,2,1,11,1
1558434342445617,3,3,-7,-11,1,3,2,3
1558434342445617,-1,3,11,19,-4,-3,-3,-2
1558434342452734,-8,-18,-38,-36,-15,-11,-3,-1
1558434342452734,2,2,-6,0,6,5,-2,-2
1558434342461399,-2,-2,-5,-11,-5,0,-15,-5
1558434342461399,9,11,47,29,16,5,6,5
1558434342475689,-20,-24,-54,-29,-18,-8,-7,-12
1558434342475689,2,7,21,12,1,-3,0,0
1558434342482679,0,-3,-19,-7,-3,-7,-8,-4
1558434342482679,-2,0,2,2,1,3,-2,0
1558434342498611,-1,-9,-5,3,-6,-7,-4,-2
1558434342498611,-2,-3,6,-5,-6,-4,-4,-2
1558434342505436,2,1,2,4,2,6,3,3
1558434342505436,-1,0,-7,-9,0,0,-7,0
1558434342512586,0,7,10,12,-4,4,-4,-6
1558434342512586,-7,-20,-15,-12,-3,-5,1,0
1558434342521237,1,9,12,7,3,3,4,1
1558434342521237,-4,-5,-5,-9,-2,3,2,-3
1558434342535513,0,-1,3,5,3,0,0,2
1558434342535513,2,5,-7,-1,2,-14,-8,-2
1558434342543492,-1,-1,-6,-9,-4,-4,1,-2
1558434342543492,2,4,-12,-8,-3,-3,-3,3
1558434342558436,1,4,22,11,7,10,0,1
1558434342558436,3,7,5,7,2,11,11,7
1558434342565417,-5,-8,-1,2,6,3,11,3
1558434342565417,-4,-11,-14,-15,-12,-8,-7,-5
1558434342573156,5,17,24,18,6,1,3,0
1558434342573156,-4,-8,-12,-3,-2,2,5,-1
1558434342581077,-3,3,-4,-6,-2,4,-1,0
1558434342581077,-5,-4,-2,-2,-2,-1,-1,-2
1558434342595348,6,12,28,12,11,2,1,4
1558434342595348,-6,-13,-21,-3,-7,1,-7,-6
1558434342604015,-3,4,3,0,1,-2,1,-3
1558434342604015,-4,-11,-17,-12,-3,-6,-4,-3
1558434342618274,1,6,2,-4,-6,-6,-4,-2
1558434342618274,1,0,10,7,-2,-2,-6,-2
1558434342624987,3,-4,0,-3,-1,-1,-2,1
1558434342624987,0,-1,9,9,1,-2,-3,3
1558434342642036,0,0,-25,-15,0,-1,4,0
1558434342642036,3,4,12,-1,-8,-6,-8,1
1558434342643156,-3,-8,-5,-5,-1,-3,-4,0
1558434342643156,-2,3,-2,1,3,1,3,1
1558434342655193,-5,-13,9,1,5,1,-7,2
1558434342655193,-6,-2,-18,-18,-8,-8,-11,-8
1558434342663854,-2,-4,-5,-3,-7,-6,-3,-4
1558434342663854,-1,0,-2,-2,-4,-3,0,-3
1558434342678117,1,2,1,-3,4,6,14,4
1558434342678117,-4,-3,-9,-4,-2,-1,0,-1
1558434342685088,4,7,23,14,3,3,3,3
1558434342685088,-8,-12,-33,-18,-5,0,0,-4
1558434342701946,3,1,12,7,-6,-4,-7,-5
1558434342701946,0,-5,1,-1,4,2,5,1
1558434342702752,-1,-5,3,1,2,1,3,0
1558434342702752,-5,3,-9,-5,-10,-8,-10,-5
1558434342714719,0,2,-7,-6,-8,-2,-7,-5
1558434342714719,0,3,10,14,6,1,1,1
1558434342723833,3,3,-6,-7,11,9,8,5
1558434342723833,-5,-9,-3,-7,1,-5,-4,-5
1558434342738781,-3,-3,3,1,-5,-4,-2,-1
1558434342738781,5,6,4,5,2,8,0,0
1558434342744947,-4,-10,1,-4,-12,-7,-1,0
1558434342744947,0,1,8,6,7,9,6,4
1558434342761897,0,7,17,5,2,4,5,2
1558434342761897,-5,-7,-32,-13,-2,-10,-5,-2
1558434342762592,1,-2,-4,-4,-1,1,5,1
1558434342762592,1,3,2,3,2,3,0,-3
1558434342775556,1,-9,-16,-16,-4,-3,-3,-4
1558434342775556,-1,8,14,6,-3,0,-3,0
1558434342783810,-1,6,8,9,-4,-3,-1,-2
1558434342783810,0,-4,-13,-6,-7,-12,-4,-1
1558434342798812,-1,-8,0,10,4,3,3,2
1558434342798812,4,8,8,-2,3,3,0,-1
1558434342805640,-4,3,-4,0,-5,-13,-12,-8
1558434342805640,-3,-9,-2,-9,-2,2,1,0
1558434342821432,6,-2,-7,0,5,10,4,7
1558434342821432,-2,-3,7,2,-4,-10,-4,-2
1558434342822430,2,11,2,-1,-5,-4,-9,-2
1558434342822430,-2,3,-4,-5,-1,-2,9,1
1558434342835650,-4,-10,-5,1,2,0,0,-1
1558434342835650,-2,-11,-9,-9,-4,2,7,0
1558434342843689,4,3,20,13,5,4,5,2
1558434342843689,1,2,-8,-3,-3,1,-9,-3
1558434342858652,-1,7,-7,-11,-12,-5,2,-1
1558434342858652,6,13,16,10,5,6,0,0
1558434342865498,-5,-12,-10,-2,-6,-2,-2,-2
1558434342865498,-1,-4,5,11,8,0,6,2
1558434342881564,-4,-5,-8,-8,-1,0,-4,-2
1558434342881564,4,5,20,13,6,5,2,2
1558434342882535,-7,-9,-38,-26,-15,-7,-10,-9
1558434342882535,-1,0,4,-1,-6,0,-2,-2
1558434342895546,7,14,17,13,7,-2,2,4
1558434342895546,-2,3,-7,1,-1,1,5,0
1558434342904393,-6,-2,-28,-16,-2,1,0,-2
1558434342904393,-2,-15,9,7,8,0,-3,1
1558434342918484,-7,-12,-14,-10,-12,-9,-17,-7
1558434342918484,0,-4,-2,-7,-4,1,4,2
1558434342925158,5,7,16,18,12,-1,9,6
1558434342925158,6,12,-3,-6,-3,5,3,2
1558434342941430,-2,11,3,10,8,4,-1,-3
1558434342941430,-5,-21,-10,-9,-8,-7,-5,-1
1558434342943406,6,8,12,15,11,10,-2,0
1558434342943406,-8,-10,2,-6,-12,-3,5,-1
1558434342955390,2,1,15,12,9,5,4,5
1558434342955390,-4,1,-17,-13,-1,4,-4,-3
1558434342964079,0,-1,-4,-7,-1,1,-5,-4
1558434342964079,-2,-4,0,3,-2,-4,-5,-3
1558434342978337,-2,1,-5,-2,-5,2,1,-4
1558434342978337,-4,-5,1,0,1,-4,-4,-4
1558434342985320,2,1,9,-4,0,-1,-1,3
1558434342985320,4,15,4,6,-2,-4,-3,-1
1558434343001952,-9,-13,-38,-20,-12,-11,-6,-7
1558434343001952,-1,-8,10,11,0,1,-1,-2
1558434343002953,-2,-5,13,1,-6,-8,-1,-3
1558434343002953,4,5,-9,3,11,9,0,3
1558434343014920,4,15,23,3,2,-5,1,1
1558434343014920,-3,-3,-28,-21,-11,-1,-8,-3
1558434343023892,-5,-14,-16,-9,0,-2,0,-1
1558434343023892,3,4,29,19,2,8,5,1
1558434343037961,-2,-1,-22,-14,4,2,0,-1
1558434343037961,1,-1,7,9,9,6,0,1
1558434343045214,-4,-3,-2,-8,-3,-4,-5,2
1558434343045214,0,-6,12,16,4,-3,-4,3
1558434343062104,-8,-18,-32,-25,-19,-5,-7,-5
1558434343062104,4,14,12,2,-1,-3,4,-3
1558434343062789,-1,-1,2,1,-2,-8,-2,-3
1558434343062789,0,-8,-9,-10,3,1,3,0
1558434343075116,-3,1,19,13,3,0,2,1
1558434343075116,-1,-1,6,8,1,-2,-2,-1
1558434343083736,-3,2,-19,-9,-3,5,-2,-1
1558434343083736,-3,-2,-11,-12,-9,-11,-10,-6
1558434343098787,-1,-1,15,6,3,2,3,0
1558434343098787,-5,-7,-5,0,-1,-4,1,-1
1558434343105673,0,0,5,7,1,0,1,-2
1558434343105673,1,7,-1,-2,-5,-2,1,-1
1558434343121950,1,-1,0,-10,4,1,1,-3
1558434343121950,-5,-3,-10,-3,-1,0,-6,-2
1558434343122630,2,2,5,3,2,3,-2,0
1558434343122630,8,18,20,15,5,7,6,3
1558434343134907,-15,-33,-29,-21,-14,-8,-5,-2
1558434343134907,1,-2,1,-3,0,-7,4,-1
1558434343143859,-5,-6,-8,-5,-7,-4,-5,-2
1558434343143859,1,-7,14,10,8,1,-10,1
1558434343157563,5,11,-1,2,-1,-1,2,0
1558434343157563,-3,-3,-10,-6,-3,-2,-3,0
1558434343164525,-4,-8,-3,-3,-7,-9,-2,-1
1558434343164525,-1,5,8,3,0,-3,0,-2
1558434343181896,-3,-2,-12,-3,-6,-1,-1,-4
1558434343181896,0,6,3,0,-3,-3,2,0
1558434343182468,2,5,21,11,4,-1,0,1
1558434343182468,-8,-21,-33,-26,-9,-8,-6,-5
1558434343194436,4,-1,1,5,5,6,3,3
1558434343194436,3,6,22,18,9,5,1,3
1558434343203412,1,5,6,-4,0,0,1,-2
1558434343203412,-6,-3,-36,-26,-11,-3,0,-6
1558434343218371,0,-2,12,13,5,3,-5,0
1558434343218371,-4,-7,3,-3,-1,-1,1,2
1558434343224354,1,2,11,8,7,3,3,1
1558434343224354,-3,6,-4,-5,-9,-5,-8,-3
1558434343241311,-1,-8,-11,-8,-8,-4,0,-1
1558434343241311,1,5,2,7,8,6,5,1
1558434343242308,0,-7,-22,-11,0,0,2,-2
1558434343242308,2,3,7,-6,5,8,9,3
1558434343255276,3,10,8,8,3,2,0,0
1558434343255276,-6,-6,13,0,-7,-10,-15,-10
1558434343263265,-2,-5,-8,5,4,5,3,1
1558434343263265,1,-3,-9,-7,-7,-8,-6,-2
1558434343278647,0,2,4,1,1,0,2,-1
1558434343278647,0,1,-9,-9,1,1,-1,0
1558434343285639,-3,1,4,0,-3,-1,1,0
1558434343285639,-4,-5,3,4,-5,-3,-4,-5
1558434343301596,-1,-3,2,2,-3,-4,-9,-4
1558434343301596,5,9,2,1,-5,-13,-2,2
1558434343302149,4,3,-14,-6,1,6,2,-1
1558434343302149,-7,-9,3,5,-1,-1,1,0
1558434343315556,-1,1,11,5,2,0,3,0
1558434343315556,-5,-4,-6,-6,-7,-2,-5,-6
1558434343324089,0,0,-7,-5,-11,-6,-6,-4
1558434343324089,7,4,5,-5,5,-2,0,3
1558434343338510,-2,-7,-5,-5,7,4,6,3
1558434343338510,-2,6,3,9,1,4,-2,0
1558434343345075,-2,-3,-9,-5,-2,-5,0,0
1558434343345075,-4,-10,-1,5,1,7,-1,-2
1558434343362066,6,18,38,16,-1,-14,-11,-2
1558434343362066,-6,-6,-35,-19,-5,2,2,-3
1558434343362986,-2,-4,1,-1,-3,1,-3,0
1558434343362986,-1,5,8,4,0,1,3,-3
1558434343375286,1,-6,-11,-1,5,10,2,2
1558434343375286,5,0,4,-1,4,5,4,5
1558434343383934,-3,1,3,1,-5,-1,-3,-2
1558434343383934,3,-2,8,3,0,-3,-1,-1
1558434343397891,1,4,-2,-7,-9,-11,-4,-2
1558434343397891,0,-5,-8,-7,1,2,-1,-2
1558434343405127,-2,-10,8,12,9,6,3,2
1558434343405127,-4,1,-14,-17,-13,-11,-6,-2
1558434343420833,-1,-1,-3,0,0,1,1,-1
1558434343420833,2,0,21,10,-1,-1,1,1
1558434343426816,-6,-15,-32,-14,1,-4,-4,-6
1558434343426816,1,5,8,10,7,3,-1,0
1558434343434791,0,2,-9,-7,-6,-4,-4,-2
1558434343434791,-1,6,5,3,-1,-2,0,-2
1558434343443768,-4,-14,-6,-3,-4,0,1,-4
1558434343443768,1,-1,1,2,-3,-3,1,1
1558434343458190,-1,5,-3,-2,4,-2,-4,0
1558434343458190,2,-1,2,3,6,0,-2,0
1558434343465761,1,6,9,-1,-3,-1,5,1
1558434343465761,-7,-10,-17,-13,-12,-8,-3,-2
1558434343480670,0,0,7,4,5,0,-3,-2
1558434343480670,2,4,-2,-1,-11,-4,-9,-3
1558434343488093,-2,5,-1,-6,1,4,-5,1
1558434343488093,-2,0,0,5,7,10,10,0
1558434343495077,-3,-7,7,1,-8,-2,0,-1
1558434343495077,-3,-5,-21,-13,-4,-8,-2,-1
1558434343504605,6,12,5,5,6,-1,2,1
1558434343504605,0,-1,-7,3,-3,-5,-2,0
1558434343517606,-6,-10,-6,-10,-6,-3,-5,-3
1558434343517606,-6,-9,-3,-5,-3,0,-1,-1
1558434343524553,4,12,20,6,-1,-2,0,-2
1558434343524553,0,-1,-3,1,9,4,2,0
1558434343540510,0,-7,-11,-1,-7,-10,-6,-2
1558434343540510,5,11,-3,-4,0,2,1,2
1558434343547489,-5,-11,0,-4,-3,1,4,1
1558434343547489,2,3,13,8,2,1,0,-1
1558434343563447,-5,-11,-12,-6,0,6,0,-1
1558434343563447,-1,-1,15,7,-4,-3,-5,-4
1558434343565441,1,7,4,11,4,-3,-8,-1
1558434343565441,-6,-10,-34,-27,-11,-7,9,1
1558434343579142,-1,3,7,8,17,11,8,5
1558434343579142,0,1,-2,0,-1,-1,1,-2
1558434343584768,-3,-2,11,6,-3,0,1,0
1558434343584768,-1,-5,10,6,-1,-7,-11,-4
1558434343601511,0,9,-4,-7,-7,-9,-11,-5
1558434343601511,0,-9,-1,2,1,3,7,2
1558434343607507,0,-5,-18,-13,-1,-5,-2,-2
1558434343607507,2,1,2,0,-1,-3,-10,-5
1558434343623289,-5,-2,-9,-11,-5,0,0,-1
1558434343623289,-3,-7,2,-2,0,1,-5,-1
1558434343625282,-2,-4,-6,-1,-4,-5,-5,-5
1558434343625282,3,3,16,12,8,9,9,4
1558434343638250,5,9,1,9,2,-1,2,0
1558434343638250,-2,1,-14,-10,-1,-2,8,2
1558434343644231,-1,-3,-2,-1,-2,-1,-2,2
1558434343644231,0,1,-3,-3,-1,1,-5,-4
1558434343660562,-1,-4,5,2,-7,-2,2,-4
1558434343660562,-3,1,11,6,1,-2,-2,-3
1558434343667171,-2,-3,-10,-6,1,2,9,1
1558434343667171,2,10,10,1,0,3,3,2
1558434343683129,-4,-7,-20,-6,-4,-6,-9,-4
1558434343683129,-9,-13,-2,-4,2,1,0,-1
1558434343685127,2,-1,0,-5,-6,-6,-5,-1
1558434343685127,-4,-4,9,6,1,-3,-4,-4
1558434343698089,2,2,-11,-4,2,2,2,2
1558434343698089,-4,2,-7,-7,-5,-6,-12,-2
1558434343712051,-1,-1,6,0,7,8,10,4
1558434343712051,-1,-5,-9,2,-5,-1,1,0
1558434343720215,2,5,9,2,-4,-6,2,-3
1558434343720215,4,-3,0,1,1,-1,-1,-2
1558434343727010,2,8,20,17,-3,-5,-5,1
1558434343727010,-7,-8,-25,-23,-1,3,0,-1
1558434343743964,-5,-5,-13,-8,-3,0,0,-2
1558434343743964,1,1,-2,-3,-4,-1,1,0
1558434343744964,0,-1,4,5,2,3,-1,0
1558434343744964,2,7,5,4,4,-3,-5,-2
1558434343758098,-1,-1,7,3,4,1,-2,0
1558434343758098,-2,-6,-7,-2,1,0,0,-1
1558434343764908,1,-5,0,-2,0,5,-5,-2
1558434343764908,1,9,17,8,-3,-5,-6,1
1558434343780877,-5,-3,-16,-12,-5,-3,-1,-1
1558434343780877,-4,-16,-10,-8,-5,-1,-1,0
1558434343787081,1,8,13,2,2,0,9,1
1558434343787081,-2,0,-22,-8,-6,-2,-4,-3
1558434343803806,-2,-11,17,12,5,-1,5,1
1558434343803806,3,3,0,-6,6,3,-1,-2
1558434343804802,-10,-6,-22,-16,-13,-16,-16,-7
1558434343804802,6,1,2,-4,-1,2,8,6
1558434343817769,4,3,21,19,11,7,7,2
1558434343817769,-1,4,-4,-5,-8,-3,-7,-5
1558434343824749,-2,-3,-3,3,4,-1,4,1
1558434343824749,-1,-4,-6,-4,-5,2,-1,-2
1558434343840708,-5,-2,-14,-10,-9,-5,-6,-6
1558434343840708,4,2,34,27,18,5,8,4
1558434343847688,1,-1,-36,-28,-7,-7,-6,-4
1558434343847688,-14,-21,0,-4,-9,-6,-5,-5
1558434343863646,-2,-1,-18,-6,-7,-1,-8,-7
1558434343863646,-1,8,3,3,-4,-2,1,0
1558434343864642,1,2,-1,-1,5,-1,0,0
1558434343864642,-2,-8,-5,-3,-6,-2,-4,-4
1558434343877609,5,7,13,1,7,4,2,5
1558434343877609,-1,6,1,8,4,-4,3,1
1558434343884591,-2,-7,6,10,-4,2,-6,-3
1558434343884591,-4,0,-16,-13,-7,-13,-6,-7
1558434343900680,-1,-7,13,6,5,2,3,-1
1558434343900680,9,21,21,14,12,16,10,6
1558434343907529,2,-1,-3,2,5,9,3,0
1558434343907529,-13,-36,-21,-11,-11,-5,-8,-7
1558434343923485,2,0,3,-8,-12,-8,-8,-3
1558434343923485,4,6,12,8,-6,-9,3,-1
1558434343925479,-8,-4,-19,-13,0,4,0,0
1558434343925479,0,2,9,11,6,0,2,2
1558434343937448,3,11,-4,-2,-2,-5,5,4
1558434343937448,-1,-16,-15,-4,-4,-4,-6,-2
1558434343946424,5,5,19,6,-2,0,-1,1
1558434343946424,-3,-4,-2,2,6,5,0,-6
1558434343960386,-1,0,7,3,3,2,0,1
1558434343960386,1,1,-11,-15,-8,-7,-4,-3
1558434343967370,-10,-2,-2,8,-2,-2,-2,-3
1558434343967370,2,-3,-5,1,7,3,5,5
1558434343983324,-5,-2,8,0,0,-1,-4,-2
1558434343983324,-5,-15,-19,-8,-5,2,-6,-3
1558434343985319,1,-2,-1,-7,-4,-2,0,2
1558434343985319,5,12,10,5,2,2,1,0
1558434343997294,-3,4,5,2,3,0,-1,0
1558434343997294,-1,-1,-3,0,-7,-3,-4,-2
1558434344006265,-4,-14,-14,-11,-5,-5,-3,-5
1558434344006265,5,25,36,19,3,2,2,3
1558434344020348,-9,-30,-50,-27,-12,-7,-5,-6
1558434344020348,-6,-8,6,-2,0,-1,0,-3
1558434344027207,1,1,-2,5,-1,0,0,-3
1558434344027207,6,19,7,-2,1,-1,1,0
1558434344043167,-3,1,7,6,2,-1,3,0
1558434344043167,-1,-6,1,-3,1,0,2,1
1558434344045159,1,2,1,-2,-3,-4,-5,1
1558434344045159,3,4,-2,-1,3,1,4,2
1558434344057338,3,2,0,3,-1,0,0,3
1558434344057338,-4,-14,-6,-4,1,-1,-2,-2
1558434344066103,0,0,12,4,1,2,0,0
1558434344066103,1,-7,-4,-2,2,0,-2,0
1558434344080069,4,6,4,3,-2,1,-1,-1
1558434344080069,-3,5,2,1,-2,1,-4,-5
1558434344087225,-1,-2,-1,5,0,-1,-1,-1
1558434344087225,-3,-8,-23,-16,-5,-4,-4,-1
1558434344104095,-8,-8,1,-3,-3,-2,-1,-3
1558434344104095,-1,-3,-9,-8,0,-1,-1,0
1558434344105001,6,13,16,9,-3,0,3,3
1558434344105001,2,5,12,3,-2,-1,-4,0
1558434344116968,-2,-4,-2,1,3,0,-3,-1
1558434344116968,5,-4,-3,2,0,-1,0,-2
1558434344125943,-1,-6,-9,-2,2,-1,2,0
1558434344125943,-3,-2,-3,0,1,0,0,-1
1558434344140903,1,7,3,3,0,0,1,-1
1558434344140903,-5,5,-12,-10,-3,-3,-4,-2
1558434344146888,1,-4,-2,2,-1,-2,-2,-4
1558434344146888,6,2,4,1,1,2,-1,0
1558434344163841,-2,-4,11,3,2,1,0,1
1558434344163841,-8,8,-6,1,-1,-2,1,-1
1558434344164839,-7,-11,-2,-7,-2,0,0,-1
1558434344164839,-2,-7,-5,0,-2,-1,0,-1
1558434344176953,4,7,2,-2,2,2,0,0
1558434344176953,-2,-3,-7,-3,-7,-1,-1,0
1558434344185784,3,5,13,2,0,1,-3,1
1558434344185784,-6,-4,-3,-5,-1,-3,-5,-3
1558434344200753,7,5,2,2,2,1,-6,-1
1558434344200753,-2,-3,1,3,2,-2,6,-3
1558434344207732,2,4,-15,-4,-1,-1,0,-2
1558434344207732,-4,-13,-5,-9,-3,-2,0,0
1558434344223902,0,-2,-6,-2,-2,-2,-3,-2
1558434344223902,0,1,8,-5,-1,2,-6,0
1558434344224679,-6,-4,8,4,1,0,-2,-4
1558434344224679,2,2,-5,1,1,2,3,-1
1558434344237647,-4,-4,-8,-4,-5,-3,-3,-2
1558434344237647,1,3,3,-2,-1,-3,1,1
1558434344246620,-4,-5,-5,-1,0,-2,1,-1
1558434344246620,-3,-2,2,2,0,1,0,-2
1558434344260583,0,1,5,5,2,-3,0,-3
1558434344260583,3,1,1,-8,-4,-3,-4,0
1558434344267565,3,0,-2,3,-4,-2,-2,0
1558434344267565,-1,6,11,0,2,1,-1,-2
1558434344283524,2,-4,-9,5,2,6,3,1
1558434344283524,-14,-19,-34,-32,-18,-13,-11,-8
1558434344285516,-2,3,2,-6,2,0,-2,2
1558434344285516,-3,-5,-8,0,2,-1,1,-2
1558434344297485,3,6,22,9,7,4,3,2
1558434344297485,4,8,10,12,2,0,0,1
1558434344306460,-8,-11,-12,-8,-5,-5,-4,-3
1558434344306460,-1,-2,7,4,-1,0,-1,3
1558434344320423,-1,-2,-14,0,1,-1,2,1
1558434344320423,4,-1,-7,-10,-1,0,0,0
1558434344327406,-1,-1,1,-2,-1,-2,0,-2
1558434344327406,1,3,1,2,1,-1,-2,0
1558434344343360,-3,-2,-3,-5,-3,-3,-1,-4
1558434344343360,0,6,14,20,3,2,1,3
1558434344349345,-3,-6,-15,-13,-4,-3,2,-2
1558434344349345,-4,-4,-7,-4,-6,-4,-1,-2
1558434344357325,1,0,8,-3,-2,-4,-2,1
1558434344357325,-2,-1,-5,4,0,0,-1,-1
1558434344366299,6,6,12,5,3,0,-1,3
1558434344366299,-1,-2,-7,-3,-3,-1,-1,-2
1558434344380262,-4,-7,-6,-5,-4,-3,-5,-2
1558434344380262,3,1,6,5,2,3,-2,0
1558434344387251,-6,-5,-10,-5,-1,-2,-2,-2
1558434344387251,1,-1,-1,-5,-7,-2,1,1
1558434344403202,0,2,7,2,-1,0,-2,-3
1558434344403202,-2,-12,-3,9,3,2,1,-1
1558434344409197,-3,8,5,-6,-3,-2,-2,-1
1558434344409197,-4,-5,3,-3,2,0,-2,-2
1558434344417165,-2,-6,-2,-6,-3,-2,-5,-2
1558434344417165,-2,-3,1,-1,3,2,2,0
1558434344426140,0,-3,1,8,2,0,1,-2
1558434344426140,0,3,-4,1,-1,0,-1,1
1558434344440106,-2,2,4,4,-4,-1,-1,0
1558434344440106,-3,-3,-13,-5,-1,0,1,-3
1558434344447095,0,-2,-9,-2,0,-1,0,-3
1558434344447095,4,10,30,14,4,2,-1,0
1558434344463045,-8,-14,-49,-27,-16,-12,-7,-6
1558434344463045,0,3,4,0,-1,-2,-3,-1
1558434344470164,-4,-6,17,5,-2,-1,-1,-4
1558434344470164,2,1,-7,-1,1,1,0,2
1558434344477142,2,6,9,5,4,5,4,1
1558434344477142,4,-2,-3,-4,-2,0,2,1
1558434344485981,-10,1,-9,-9,-3,0,-5,-5
1558434344485981,-5,-13,9,2,-4,-4,-4,-4
1558434344500957,-3,-9,-7,0,-4,-4,-1,-5
1558434344500957,9,9,8,2,0,0,0,0
1558434344506924,2,2,-10,-5,-3,-2,-3,-2
1558434344506924,-3,1,-7,-5,-2,-3,-1,2
1558434344522880,-1,-3,-3,-2,1,1,0,-1
1558434344522880,-1,-2,8,0,-5,0,-1,0
1558434344529866,4,5,2,0,2,0,0,3
1558434344529866,-1,-2,-15,-4,-1,1,1,-2
1558434344545822,0,0,0,-2,1,1,3,2
1558434344545822,-5,-3,6,7,-2,-3,-4,-1
1558434344547815,1,-2,-12,-15,-1,1,3,0
1558434344547815,-4,-4,-2,-4,-1,-2,-5,-3
1558434344560926,0,1,7,1,-1,0,2,2
1558434344560926,-2,-2,-2,1,-2,-6,-2,-1
1558434344566910,-1,-6,-2,2,-5,-3,-3,-3
1558434344566910,1,-5,-9,-2,2,-3,-1,-1
1558434344582722,1,3,5,0,2,3,0,0
1558434344582722,-3,1,-5,-1,0,-1,0,-2
1558434344589704,2,-3,6,3,-4,-2,1,1
1558434344589704,-1,1,0,-7,-3,0,0,-1
1558434344606656,0,3,5,0,1,-2,-2,-2
1558434344606656,-1,1,-7,-3,5,3,1,-2
1558434344607655,0,-7,-5,9,-1,1,0,0
1558434344607655,5,5,8,-4,-4,-3,-3,1
1558434344620620,-7,1,6,2,-1,-3,0,-4
1558434344620620,-8,-16,-10,-8,-3,-2,-3,-2
1558434344627617,0,1,-9,-1,0,1,-2,0
1558434344627617,-3,2,13,5,2,1,0,-2
1558434344642561,4,4,-2,0,-3,0,-1,3
1558434344642561,1,4,13,-1,0,-2,-3,-1
1558434344649543,2,1,-6,2,1,1,1,-1
1558434344649543,-1,-3,-6,-6,-3,-3,-1,-1
1558434344666497,-1,-1,-4,-2,0,-1,-1,-5
1558434344666497,-6,-10,-5,0,0,1,-1,-1
1558434344667495,-4,-10,0,-3,-3,-1,0,-1
1558434344667495,4,-5,11,5,2,2,1,1
1558434344679463,-7,-14,-38,-25,-11,-4,-3,-2
1558434344679463,0,3,1,0,-1,-2,0,-2
1558434344688441,4,7,6,3,2,-1,-3,0
1558434344688441,-3,1,-8,3,-1,-1,0,-2
1558434344702402,1,1,14,12,4,1,-2,-1
1558434344702402,-1,3,-1,-7,-5,1,0,-2
1558434344709383,-3,-4,-5,-1,-3,-2,-1,1
1558434344709383,2,6,3,3,3,-2,1,2
1558434344726401,2,-3,2,1,3,3,1,1
1558434344726401,-6,-5,-7,-5,-2,-3,-3,-8
1558434344727336,5,9,18,7,3,1,1,0
1558434344727336,-8,-13,-20,-11,-6,-5,-3,-3
1558434344740300,4,1,5,10,-1,-4,2,2
1558434344740300,2,6,4,-1,0,2,-1,1
1558434344747288,-2,-1,4,-2,-1,3,-3,1
1558434344747288,0,1,-2,-4,1,1,-4,1
1558434344763248,-1,1,1,-7,0,-2,-4,-1
1558434344763248,1,0,0,6,0,-2,1,0
1558434344769411,-2,-1,-3,-5,-1,-1,0,-1
1558434344769411,-1,-2,-5,4,0,0,-1,0
1558434344786448,-1,4,12,4,2,0,-1,0
1558434344786448,0,3,2,1,-2,0,1,-1
1558434344787177,-7,-11,-21,-8,-6,-3,-2,-2
1558434344787177,0,1,-3,-5,-2,-2,0,-3
1558434344800141,-3,0,1,-3,-4,-3,-1,-2
1558434344800141,2,2,-2,-1,6,-1,0,0
1558434344807123,0,0,2,5,3,-1,2,-1
1558434344807123,-1,-2,-1,4,2,1,1,0
1558434344823080,-4,-4,-1,-15,-5,-2,-2,2
1558434344823080,1,2,-2,-2,-1,-1,1,-2
1558434344830069,-2,-2,-6,-9,-5,-4,0,-3
1558434344830069,-1,2,6,7,2,2,2,-3
1558434344846054,1,-1,3,5,0,2,-1,-2
1558434344846054,1,-1,-13,-2,-1,-3,-1,1
1558434344848013,4,5,16,7,5,0,-3,3
1558434344848013,-3,-6,-6,-3,-3,-1,-1,1
1558434344859979,-5,-4,-22,-15,-6,-3,-2,-2
1558434344859979,0,-7,-4,-1,0,1,-2,0
1558434344866962,-5,0,3,2,1,-1,0,-3
1558434344866962,-2,4,-1,0,0,1,0,-3
1558434344882954,6,5,12,5,0,0,-1,0
1558434344882954,-10,-3,-8,6,1,0,-3,-2
1558434344889900,-1,-4,-8,-11,-4,-3,-2,-2
1558434344889900,-3,0,9,4,1,-2,1,1
1558434344906027,-5,-7,-15,-4,-4,-4,-1,-3
1558434344906027,1,-3,-8,-11,-5,-2,-3,-1
1558434344907853,-1,-8,-1,3,2,0,-1,-3
1558434344907853,0,3,-2,1,-1,0,-1,-2
1558434344920817,0,-3,2,2,4,1,2,-2
1558434344920817,-2,2,0,1,1,-3,-1,-4
1558434344926805,-3,-3,-7,-3,-2,-2,-2,-1
1558434344926805,0,-2,-5,-8,-4,-2,-2,0
1558434344942759,0,1,3,3,3,2,1,-1
1558434344942759,2,0,7,-1,0,-1,-2,0
1558434344949740,4,2,-1,-1,-3,-1,-3,0
1558434344949740,-1,-2,-2,1,0,-3,-4,-1
1558434344966708,-4,-3,-2,2,-3,-1,-1,2
1558434344966708,0,-3,0,-3,0,-5,2,-1
1558434344967692,1,7,9,9,4,0,2,-1
1558434344967692,-5,-6,-11,-17,-5,-1,2,0
1558434344980679,-1,-3,-3,2,-2,0,-1,-3
1558434344980679,1,-2,-5,-9,-3,-1,-3,-3
1558434344987869,-1,4,7,3,-3,-4,-5,1
1558434344987869,-2,-2,0,1,-1,1,-5,-2
1558434345003595,3,2,4,4,2,-1,0,1
1558434345003595,1,2,4,0,-1,2,4,2
1558434345009579,-3,-7,-8,-3,-3,-2,-1,0
1558434345009579,1,3,0,3,-1,-1,2,-2
