timestamp,emg1,emg2,emg3,emg4,emg5,emg6,emg7,emg8
1558434309373265,-1,1,0,-1,-2,-6,-3,0
1558434309373265,1,5,4,2,0,-3,-5,-1
1558434309373265,-3,-8,0,3,-4,-2,-5,-2
1558434309373265,3,2,10,5,-4,-11,-11,2
1558434309374278,5,9,10,9,15,16,5,3
1558434309374278,-8,-13,-22,-11,-13,-5,-1,-4
1558434309375260,-3,-5,-13,-10,-8,-10,1,-4
1558434309375260,0,0,5,1,2,2,7,-2
1558434309387228,3,1,-2,1,-1,-3,-1,1
1558434309387228,0,4,13,1,0,-1,-1,1
1558434309395207,0,-2,8,6,3,4,-5,0
1558434309395207,0,0,-13,-8,-1,10,9,2
1558434309401193,-6,-13,-11,-8,-4,-8,-1,-2
1558434309401193,6,8,1,-1,0,-7,-1,0
1558434309417155,-11,-12,-2,-1,-1,0,-3,-1
1558434309417155,0,2,12,7,2,2,-1,-3
1558434309424130,-3,-1,-6,-2,-2,3,0,-1
1558434309424130,0,-4,-7,-8,-3,-4,-8,-1
1558434309431110,6,15,25,18,3,-3,0,-1
1558434309431110,-2,8,-9,-5,6,7,-1,-1
1558434309446070,-8,-18,-42,-29,-19,-10,-2,-4
1558434309446070,-2,-2,6,-2,-2,-4,-5,-2
1558434309454049,-2,-3,-11,-4,-1,-1,0,0
1558434309454049,2,3,20,12,4,1,-4,-1
1558434309493943,7,8,-7,0,0,0,-1,1
1558434309493943,-8,-10,-3,-2,-8,-8,-11,-6
1558434309494940,-3,-1,-2,-2,0,3,4,-3
1558434309494940,5,9,6,0,1,-1,1,3
1558434309495946,-4,-7,-14,-3,7,-3,4,0
1558434309495946,1,-4,5,1,4,7,0,-1
1558434309498928,0,4,-4,-2,-2,-2,-7,0
1558434309498928,-9,-6,16,9,-6,-6,-1,-1
1558434309505911,-2,-3,-9,-5,-5,-8,-6,-5
1558434309505911,1,3,-2,-4,-8,-9,2,2
1558434309513889,0,0,-5,-6,-1,3,-3,-1
1558434309513889,1,1,-2,-2,0,1,-3,1
1558434309520871,4,1,8,3,-1,-1,0,4
1558434309520871,-4,-7,-15,-12,-3,2,-7,-5
1558434309544806,3,6,9,6,-3,-2,3,4
1558434309544806,-1,-3,-9,-6,-5,-5,0,-3
1558434309545804,-4,-3,-5,-7,-2,4,0,-4
1558434309545804,7,11,17,19,13,5,11,5
1558434309550791,-1,-11,-7,-1,-1,-10,-7,-1
1558434309550791,-2,-5,-5,-10,-8,-9,-7,-5
1558434309565750,-6,-4,-4,-5,2,9,7,1
1558434309565750,5,12,11,4,0,2,0,2
1558434309573730,-4,-8,4,7,11,9,5,0
1558434309573730,-1,-4,-13,-1,-1,2,10,-6
1558434309580710,4,5,10,7,-4,-2,-4,-6
1558434309580710,-2,3,-3,-9,-2,-3,0,2
1558434309596667,-1,1,-5,1,-5,-7,-3,-2
1558434309596667,-2,-7,-23,-11,1,8,-3,-2
1558434309603650,-1,2,11,2,-3,-3,-6,-4
1558434309603650,-1,-10,-2,0,5,3,4,1
1558434309610631,-5,-6,-13,-9,-9,-1,-7,-9
1558434309610631,-1,2,5,6,3,1,-3,1
1558434309625590,0,1,-4,1,0,5,5,1
1558434309625590,2,7,10,2,-3,-10,-11,-1
1558434309633569,2,1,-3,-7,2,1,-2,-2
1558434309633569,-3,-7,-1,0,-3,0,-11,-4
1558434309640563,-1,-6,1,2,1,3,6,1
1558434309640563,-1,-3,7,7,-1,-4,2,-1
1558434309656509,0,-4,-3,-7,-3,-4,-7,0
1558434309656509,5,14,13,7,-1,1,3,-1
1558434309663519,1,0,14,8,9,4,4,2
1558434309663519,-4,-3,-22,-6,1,1,10,-1
1558434309670470,-4,-3,0,1,-7,-6,-4,-3
1558434309670470,2,3,15,7,1,-6,1,3
1558434309686432,-3,-7,-32,-25,-13,-7,-6,-2
1558434309686432,-2,-6,7,4,0,3,1,0
1558434309694461,1,7,10,7,3,5,4,-2
1558434309694461,0,-3,-17,-11,-1,0,-4,0
1558434309700393,4,10,24,16,6,-3,4,3
1558434309700393,-1,-4,-16,-8,-3,-3,-9,-5
1558434309716354,-5,-3,2,-1,-8,-6,-10,-3
1558434309716354,-1,0,6,6,5,13,1,-1
1558434309723331,-1,6,-8,-8,-8,-6,-6,-1
1558434309723331,-1,-2,-7,-5,-3,-6,5,1
1558434309731310,3,10,12,5,7,-1,1,3
1558434309731310,-4,-10,-9,-1,-3,-5,-3,-2
1558434309747267,-1,-5,12,5,2,3,0,-2
1558434309747267,-7,-18,-23,-15,-9,4,-6,-8
1558434309754247,0,-5,9,6,0,-5,3,0
1558434309754247,6,8,6,3,9,2,6,7
1558434309761228,-6,-6,-22,-14,-9,-3,-3,-3
1558434309761228,1,17,10,4,0,-3,-1,-2
1558434309776188,4,-11,3,6,9,11,7,1
1558434309776188,-9,-10,-19,-15,-4,2,5,-2
1558434309783169,-3,-5,1,2,1,-7,-6,-2
1558434309783169,2,9,17,9,2,1,-5,-1
1558434309791149,-6,-13,-30,-16,-4,-2,3,0
1558434309791149,2,6,17,7,2,1,-8,0
1558434309806108,4,11,20,21,3,6,2,-3
1558434309806108,-5,-6,-21,-13,-3,-3,-5,-5
1558434309814086,-1,-8,-2,-5,0,3,5,2
1558434309814086,5,2,4,3,3,-3,2,0
1558434309821067,-3,6,7,0,-6,-5,-6,-1
1558434309821067,1,-5,-10,-6,-6,-2,-2,-1
1558434309837026,-2,4,5,3,-2,0,-3,-3
1558434309837026,-9,-17,-16,-14,-10,-2,-6,-5
1558434309843010,7,3,-2,2,7,0,2,7
1558434309843010,-1,1,18,10,2,-3,8,4
1558434309858967,-1,1,-6,1,-2,-4,-5,-3
1558434309858967,1,-6,-17,-16,-6,-7,-1,0
1558434309865948,-2,-5,1,-2,-2,0,-3,-4
1558434309865948,3,1,-1,2,-4,-1,1,1
1558434309873929,5,12,3,-1,3,3,3,1
1558434309873929,-9,0,-5,-6,-1,1,0,-5
1558434309889884,-7,-18,-5,-1,-6,-6,-4,-3
1558434309889884,-2,-1,-12,-7,0,-1,-3,0
1558434309896866,3,1,6,1,-1,2,5,2
1558434309896866,1,8,-4,-3,-3,-2,-3,-4
1558434309902849,-2,-8,-8,-6,0,-1,0,1
1558434309902849,-1,-4,5,1,-1,0,-5,-5
1558434309918806,-1,1,8,8,-3,-7,-2,0
1558434309918806,1,6,17,9,-2,-2,1,-4
1558434309925787,-9,-7,-33,-19,-3,-3,1,-7
1558434309925787,0,3,-12,-4,4,6,4,-2
1558434309933766,0,0,0,-6,-4,-5,3,-1
1558434309933766,3,2,5,7,0,-3,-2,1
1558434309940748,-7,-17,15,6,-3,-2,-7,-4
1558434309940748,-1,1,4,0,-6,0,-3,-3
1558434309957704,1,5,3,4,-2,-3,-3,-2
1558434309957704,5,6,1,-2,7,-5,-1,4
1558434309963687,-11,-14,-8,-7,0,6,1,-2
1558434309963687,-3,-6,-7,-5,-1,-2,-4,0
1558434309978647,0,2,-8,-6,4,8,5,0
1558434309978647,-2,-10,8,4,-5,-4,-7,-1
1558434309985628,9,18,5,3,0,0,-2,2
1558434309985628,-8,-22,-5,-2,0,0,4,0
1558434309993606,-4,-10,-1,-1,-1,0,-6,-3
1558434309993606,-1,0,-5,-4,-9,-3,-7,-4
1558434310000592,6,9,10,15,15,8,11,4
1558434310000592,2,11,20,1,8,8,4,2
1558434310016545,-6,-14,-36,-26,-18,-17,-8,-7
1558434310016545,-1,-1,-4,0,10,9,4,-3
1558434310023528,-1,-3,-7,-12,-8,-1,-3,-4
1558434310023528,-2,-2,7,1,-9,-11,-9,-7
1558434310039484,3,8,9,7,13,12,7,6
1558434310039484,-3,0,-6,-7,-11,-16,1,0
1558434310045467,4,6,14,9,0,-2,-7,4
1558434310045467,2,6,-1,4,6,7,6,0
1558434310054487,-1,1,14,2,-3,-1,0,-2
1558434310054487,-13,-19,-14,-1,-5,-1,0,-6
1558434310060454,4,9,12,7,6,4,1,-1
1558434310060454,-6,-4,-24,-16,-11,-7,-4,-6
1558434310076385,-2,-4,-9,-7,-5,-2,-4,-4
1558434310076385,5,11,14,5,2,1,-2,0
1558434310090349,0,-8,6,5,2,-5,-1,3
1558434310090349,-2,-2,-7,-1,-1,4,2,-2
1558434310099323,6,9,17,14,3,-6,-3,2
1558434310099323,4,6,16,10,11,9,5,2
1558434310106305,-6,-8,-42,-22,-15,-10,-3,-2
1558434310106305,2,3,15,5,4,-1,-8,-1
1558434310114283,-2,1,4,2,4,7,4,3
1558434310114283,-3,-15,-13,-4,-6,-7,-5,-3
1558434310121265,1,3,4,-4,-5,-5,-12,-1
1558434310121265,3,1,-4,1,7,1,16,9
1558434310136224,3,4,7,4,0,-2,0,2
1558434310136224,2,9,0,-3,1,1,5,0
1558434310143210,-2,-8,10,4,-3,3,1,-3
1558434310143210,-7,-8,-12,-3,-9,-5,-7,-10
1558434310159164,-3,-2,-20,-15,-6,-1,-4,-1
1558434310159164,1,1,3,5,6,-1,2,5
1558434310166145,-3,-7,-1,-8,-7,-5,0,-3
1558434310166145,1,3,-5,-5,-4,-6,-3,0
1558434310174124,-3,-6,-5,-3,1,5,-3,-5
1558434310174124,-1,-4,0,-1,-2,3,-2,-1
1558434310188086,1,3,4,1,-1,-6,3,0
1558434310188086,3,1,6,6,2,-1,-5,2
1558434310196067,0,10,1,4,7,1,4,2
1558434310196067,0,3,0,-3,5,7,6,1
1558434310203046,-1,-5,3,3,-8,-7,1,0
1558434310203046,0,4,4,2,-1,-2,-1,1
1558434310219004,-7,-15,-28,-16,-13,-7,-6,-4
1558434310219004,0,7,15,3,-3,-9,-7,-5
1558434310225987,-3,-4,-14,0,15,18,3,-2
1558434310225987,-1,-7,3,-2,-5,-9,-3,-2
1558434310233963,-3,-3,-9,-12,-5,-15,-10,0
1558434310233963,-2,-5,-14,-13,-8,1,1,-1
1558434310247927,3,16,11,3,3,5,-2,0
1558434310247927,-3,-8,1,6,4,8,1,0
1558434310256902,-4,-4,3,4,2,-3,-2,-4
1558434310256902,0,-8,0,2,-1,-2,-2,-1
1558434310262885,0,0,-5,-2,-2,-5,-1,0
1558434310262885,0,1,4,1,-1,6,-6,-3
1558434310278843,0,1,2,2,-5,-2,2,-3
1558434310278843,1,4,-4,3,1,-1,8,0
1558434310285825,-4,-3,-1,2,5,8,13,-1
1558434310285825,3,11,11,4,6,1,2,0
1558434310293803,7,18,14,12,0,7,2,2
1558434310293803,-16,-27,-25,-11,-12,-9,-13,-7
1558434310308763,-9,-22,-24,-25,-8,-3,-3,-5
1558434310308763,-5,-5,2,0,0,4,-2,-6
1558434310316742,-2,-4,11,4,1,0,5,0
1558434310316742,9,13,2,5,-2,-9,-2,5
1558434310323723,1,2,-7,-5,-7,-9,-11,0
1558434310323723,6,4,8,4,7,9,14,8
1558434310338683,1,13,13,9,0,1,-2,-1
1558434310338683,-11,-29,-8,1,3,9,-2,-3
1558434310345664,-1,0,-1,-1,-4,-10,-5,-5
1558434310345664,-2,-6,-4,-6,-9,-7,-8,-2
1558434310353645,0,4,-2,-2,1,-2,1,0
1558434310353645,-2,4,0,-1,5,4,7,1
1558434310368603,-1,0,5,-1,-5,0,-3,-3
1558434310368603,-2,-2,-11,-4,0,-3,-2,1
1558434310376583,0,-5,-6,-4,2,-1,4,1
1558434310376583,3,4,6,0,0,-1,-3,1
1558434310383563,10,24,18,21,14,10,11,4
1558434310383563,-8,-15,4,-1,-8,-9,-12,-6
1558434310399523,-13,-26,-31,-25,-15,-14,-6,-5
1558434310399523,2,3,0,-3,-5,-1,3,0
1558434310406504,-2,0,7,3,6,6,0,0
1558434310406504,2,7,5,3,5,4,4,4
1558434310413485,-1,5,5,4,1,6,-7,0
1558434310413485,4,8,12,4,-4,-2,2,0
1558434310428443,3,2,10,15,-2,-10,0,2
1558434310428443,-7,-8,-26,-19,-4,-4,-2,-4
1558434310437422,-1,-9,-3,0,0,1,-4,-3
1558434310437422,-2,13,-10,-10,-5,0,-1,-2
1558434310443402,-2,-11,-7,-6,-1,0,-6,0
1558434310443402,2,0,6,4,6,8,10,2
1558434310459364,-1,-1,5,6,0,1,-3,-1
1558434310459364,2,3,-1,1,3,6,-8,0
1558434310466345,-1,5,8,3,-2,1,1,0
1558434310466345,4,4,1,3,2,-4,2,2
1558434310481302,-2,-13,-25,-16,-1,3,-2,-1
1558434310481302,2,7,7,3,-1,-2,2,0
1558434310488284,-10,-1,-10,-5,-2,2,-5,-8
1558434310488284,-10,-30,-25,-18,-16,-8,-13,-6
1558434310504243,4,10,12,5,3,-1,6,4
1558434310504243,2,-9,1,3,4,-6,1,4
1558434310506238,2,1,5,1,0,5,-1,3
1558434310506238,6,21,17,9,4,0,6,4
1558434310519203,-3,-5,3,2,-1,1,0,-3
1558434310519203,-4,0,-9,-11,-11,-7,-9,-7
1558434310526182,-6,-15,-2,0,2,5,2,0
1558434310526182,-1,-1,-4,2,2,2,-3,-2
1558434310541147,-1,0,8,4,0,-4,-2,-1
1558434310541147,0,9,7,5,2,3,1,-1
1558434310548131,-5,-13,-23,-20,-9,-5,0,-3
1558434310548131,-1,0,-2,0,-4,-4,-6,0
1558434310565078,3,7,2,-1,6,-2,4,2
1558434310565078,3,2,23,22,8,1,1,-1
1558434310566080,2,-9,-17,-15,-8,-5,-1,0
1558434310566080,-11,-16,-50,-38,-21,-4,-8,-8
1558434310579046,-3,3,4,-1,-9,-5,-15,-2
1558434310579046,0,-7,-5,-5,3,1,12,3
1558434310586028,2,3,13,8,4,4,2,-2
1558434310586028,2,8,22,15,-2,-7,0,-2
1558434310601979,0,4,-7,-1,10,10,2,-1
1558434310601979,-8,-11,-12,-8,-8,0,-7,-3
1558434310607969,5,2,-4,-4,-3,-5,3,1
1558434310607969,2,10,3,-1,-8,-11,-8,-1
1558434310624920,-4,-12,-2,5,-1,-2,-3,0
1558434310624920,-3,-9,-5,-3,2,0,-4,0
1558434310625917,0,2,-8,0,3,4,6,1
1558434310625917,0,3,8,-2,-1,0,-1,-3
1558434310638884,1,-5,6,4,-4,1,-4,-5
1558434310638884,2,10,6,5,0,2,1,4
1558434310645862,-3,0,-9,-8,-2,-2,-1,0
1558434310645862,-1,0,-8,-5,0,-1,0,-2
1558434310660825,-3,-4,7,0,-1,1,-2,-1
1558434310660825,-1,2,-2,-3,-8,-9,-5,-1
1558434310668803,-1,-2,1,2,7,4,0,2
1558434310668803,-2,-3,10,4,10,9,7,3
1558434310683764,2,2,-3,5,7,8,6,1
1558434310683764,-1,-5,-15,-9,-9,-9,-8,-4
1558434310684760,2,8,8,2,-12,-10,-7,-6
1558434310684760,1,2,1,3,6,7,1,2
1558434310699721,-3,-10,4,2,3,2,12,3
1558434310699721,0,-6,-5,-2,2,-1,0,1
1558434310705807,-5,4,-7,-11,-8,-4,-8,-4
1558434310705807,1,-2,8,9,6,5,1,1
1558434310720663,1,8,16,8,-8,-4,3,0
1558434310720663,-4,-3,-26,-14,-2,3,-3,-3
1558434310728642,1,1,3,-2,-2,-6,-2,-3
1558434310728642,-4,-8,-5,1,1,-2,1,-4
1558434310743649,0,3,-2,-5,-2,-4,-3,0
1558434310743649,1,-8,3,-2,-4,0,-2,-4
1558434310744598,2,7,11,11,1,0,0,-1
1558434310744598,0,0,-1,0,5,4,-3,2
1558434310759560,2,-3,0,3,4,-1,1,2
1558434310759560,-3,-2,-2,-6,-3,-1,0,-3
1558434310765548,-8,-12,-20,-6,-11,-7,-6,-6
1558434310765548,1,2,1,-3,-1,-7,0,-1
1558434310782499,-1,-4,-9,-5,0,0,0,-2
1558434310782499,-1,3,23,12,6,3,7,4
1558434310788511,-1,-4,-7,-3,-1,3,0,1
1558434310788511,1,-1,-14,-8,-9,-7,-7,-4
1558434310804437,-1,-2,2,-2,-5,-8,-3,1
1558434310804437,-10,-5,-9,-7,-1,1,-3,-5
1558434310804437,3,11,30,18,4,-2,-2,0
1558434310804437,-9,-20,-22,-9,-5,1,3,-2
1558434310819398,1,-3,-8,-8,-1,0,-9,-2
1558434310819398,3,3,10,10,6,9,7,3
1558434310825382,-3,1,-1,2,-5,-4,1,1
1558434310825382,0,2,7,-2,-1,6,-1,-4
1558434310842335,0,3,4,4,0,-2,-5,-2
1558434310842335,-1,6,-2,0,2,4,-1,-3
1558434310848327,-4,-19,-13,-5,-3,-12,-7,1
1558434310848327,-1,7,14,7,-1,0,2,1
1558434310864284,-2,0,-3,-3,-3,4,-2,-5
1558434310864284,-6,-14,-5,-9,-1,1,-5,-6
1558434310864284,-1,2,-7,-8,-6,-7,-3,-5
1558434310864284,3,3,12,10,3,-2,3,4
1558434310880235,5,5,8,8,2,0,4,4
1558434310880235,1,0,-8,-4,0,0,4,1
1558434310886219,-3,-5,-14,-16,-2,-2,-5,-5
1558434310886219,-2,-8,4,2,-7,-6,-6,-2
1558434310902177,2,11,-8,-4,-3,-1,-2,-2
1558434310902177,-2,-6,4,5,-1,-2,-8,-1
1558434310908171,0,1,0,-3,3,8,4,0
1558434310908171,-1,-3,1,3,3,-1,-2,0
1558434310924230,-7,-8,-5,-5,-3,-5,-1,-3
1558434310924230,4,2,-5,-4,5,3,1,2
1558434310925130,2,4,13,10,0,-6,-3,2
1558434310925130,2,4,-11,-7,-7,-1,-4,-5
1558434310947103,-2,3,2,-2,-4,-1,2,-1
1558434310947103,0,-12,-3,0,3,-3,6,2
1558434310947103,3,5,14,8,2,2,-7,1
1558434310947103,-3,-5,-9,-7,-3,-3,8,3
1558434310962018,-4,-4,-12,-11,-5,-1,-5,-1
1558434310962018,-1,-1,11,8,0,-2,-5,-3
1558434310968000,2,-2,-1,-1,4,5,4,1
1558434310968000,3,4,-1,4,3,3,-4,-2
1558434310983957,0,-2,-1,-4,-7,-5,-3,1
1558434310983957,-4,-4,-7,-6,-3,1,-2,0
1558434310984955,2,-1,1,6,8,2,6,2
1558434310984955,1,4,3,0,6,6,3,0
1558434311006895,3,1,5,5,4,5,4,2
1558434311006895,3,6,-10,-1,-5,-1,-5,-5
1558434311006895,-4,-2,-4,-7,-6,-7,-7,-3
1558434311006895,-3,-4,-4,0,2,1,8,2
1558434311021855,-6,-13,-15,-8,5,2,2,1
1558434311021855,1,2,3,-2,-9,-10,-8,-5
1558434311027840,-1,-3,-13,-6,-5,0,1,-2
1558434311027840,-1,4,13,5,2,1,-3,-1
1558434311044146,3,-1,2,5,1,-4,-5,-1
1558434311044146,0,-1,-6,-11,-7,-1,3,2
1558434311044796,-2,-3,-12,-1,-4,1,1,-2
1558434311044796,1,17,9,-8,-6,-9,-3,0
1558434311066737,-8,-20,-15,-4,-8,-6,-5,-5
1558434311066737,-1,3,9,5,4,2,1,-3
1558434311067735,1,-2,3,1,4,5,4,0
1558434311067735,-2,-6,1,7,5,-2,0,2
1558434311082701,5,7,12,6,0,-3,1,-3
1558434311082701,-4,-4,-21,-9,-5,-3,-1,-2
1558434311088683,1,4,3,-4,-7,-5,-7,-2
1558434311088683,0,-1,-6,-6,-3,-1,-6,-4
1558434311103638,-12,-16,7,4,1,0,-1,-1
1558434311103638,-4,-8,-19,-12,-1,-2,-7,1
1558434311110624,3,0,3,1,2,0,5,4
1558434311110624,4,0,13,14,2,6,4,0
1558434311126586,-4,1,-28,-26,-16,-5,-4,-6
1558434311126586,2,6,23,17,9,3,3,4
1558434311127583,-7,-10,-20,-8,-3,-5,-5,-5
1558434311127583,-2,-7,-12,-7,-6,-4,-6,-3
1558434311150518,4,11,13,10,10,4,0,1
1558434311150518,-2,3,13,9,-2,1,0,-2
1558434311151511,-5,-10,-9,-11,0,-1,-3,-3
1558434311151511,0,-1,5,5,2,-2,2,2
1558434311163708,0,1,0,-2,-9,-12,-6,-1
1558434311163708,1,12,4,2,-1,-7,2,-2
1558434311170666,-1,-4,9,7,5,1,0,0
1558434311170666,-6,-12,-18,-13,-9,-2,-6,-6
1558434311186421,3,5,12,3,1,4,3,0
1558434311186421,-2,-4,-15,-10,-7,-6,-2,2
1558434311187422,1,-1,-3,0,1,9,13,4
1558434311187422,-1,4,2,2,3,-6,-3,0
1558434311202373,-2,-4,-24,-16,-5,6,-1,-9
1558434311202373,-6,-14,3,-2,-3,-4,0,-3
1558434311208492,5,5,14,12,9,2,6,4
1558434311208492,-1,0,-2,-3,-2,-2,0,-1
1558434311223320,4,5,17,13,2,1,1,1
1558434311223320,-3,-2,-17,-8,-1,4,0,-3
1558434311231296,-3,-4,-4,-8,-11,-3,-12,-3
1558434311231296,5,9,6,9,3,-2,2,2
1558434311246559,-1,-5,-3,-7,0,0,3,0
1558434311246559,-8,-4,1,1,4,1,-1,-3
1558434311247261,-4,-4,-8,-10,-13,-10,-6,-1
1558434311247261,0,-1,-1,1,-1,0,-5,-2
1558434311262214,2,1,11,10,3,1,-1,-2
1558434311262214,-3,-2,-9,-1,-5,-9,0,-3
1558434311268198,-2,-4,-3,-6,2,4,-2,-2
1558434311268198,-3,1,8,5,6,5,8,1
1558434311283158,-1,2,7,9,5,2,5,2
1558434311283158,-1,-3,-32,-22,-16,-8,-3,1
1558434311291170,0,2,6,1,-4,-7,-11,0
1558434311291170,1,-5,2,0,0,-1,0,-1
1558434311306233,-3,0,-4,-2,-4,-4,0,0
1558434311306233,3,6,21,11,0,2,-7,-4
1558434311307096,2,2,-9,-4,2,3,6,2
1558434311307096,-4,-7,-3,-3,-5,-3,-3,-1
1558434311322167,0,2,-4,-2,1,-3,2,1
1558434311322167,2,-3,3,3,4,5,5,1
1558434311328174,-1,10,10,3,2,2,0,-1
1558434311328174,0,12,-2,4,-3,3,-5,1
1558434311343002,-6,-19,-25,-16,-9,-5,-3,0
1558434311343002,4,1,19,6,1,-4,-9,0
1558434311350978,-1,-3,-7,2,5,7,6,0
1558434311350978,-1,-7,4,-2,0,0,10,-3
1558434311366937,-2,0,-7,-9,-7,-7,-7,-2
1558434311366937,0,-2,-10,-4,-3,4,4,0
1558434311366937,0,6,10,6,6,6,-2,-4
1558434311366937,-3,-4,-4,-5,-7,-10,-16,-4
1558434311382124,0,2,2,4,1,2,10,-2
1558434311382124,2,0,9,4,5,-1,0,0
1558434311388876,-2,2,-4,-2,-3,0,-7,-1
1558434311388876,-3,-2,-12,-12,-3,6,2,-2
1558434311404845,1,-1,11,5,5,0,1,2
1558434311404845,2,3,4,2,-1,-1,4,2
1558434311410825,0,-3,1,4,-4,-2,0,-4
1558434311410825,1,4,31,23,5,0,-3,-3
1558434311426786,-9,-18,-71,-51,-16,-9,-3,-3
1558434311426786,-3,3,-1,-3,1,1,1,-2
1558434311426786,-2,-4,-1,-3,-3,-2,3,-1
1558434311426786,0,-1,0,0,-2,-2,-2,-3
1558434311442734,3,3,21,14,7,5,-3,-2
1558434311442734,-5,-1,-6,-6,-4,-5,0,-2
1558434311448715,-3,-2,-2,-1,-6,-9,-7,-4
1558434311448715,-3,-8,-6,-3,4,8,3,1
1558434311463675,-4,2,12,11,5,1,-8,-7
1558434311463675,-5,-4,3,-4,-1,4,1,2
1558434311470656,-5,-5,-11,-4,-9,-15,-5,-5
1558434311470656,-3,-2,-6,-3,-9,-12,-4,1
1558434311487855,8,14,16,15,13,11,2,3
1558434311487855,-3,-1,-12,-9,-8,-9,-15,-6
1558434311487855,-1,-9,2,-2,6,4,3,-3
1558434311487855,-4,-12,-16,-9,0,1,0,-1
1558434311502575,-2,-1,14,5,-9,-9,-5,-2
1558434311502575,5,3,4,5,5,4,-6,0
1558434311508788,5,9,9,4,10,12,6,6
1558434311508788,-4,-9,-28,-19,-12,-15,-5,-4
1558434311523592,0,-1,7,2,5,5,-4,-2
1558434311523592,0,-1,0,0,-1,1,4,3
1558434311531605,3,1,19,14,1,-4,0,0
1558434311531605,-3,-2,-11,-6,-1,3,1,-4
1558434311546655,-8,-6,-8,-5,-5,-4,-4,-3
1558434311546655,5,7,3,4,-3,-5,-4,-3
1558434311547454,-1,0,10,7,6,6,2,2
1558434311547454,-1,0,-14,-10,0,-1,-6,0
1558434311562412,1,3,-2,-1,-4,-2,4,3
1558434311562412,-3,-6,-3,0,2,-5,0,0
1558434311568393,-2,1,-5,-8,-8,1,-4,-4
1558434311568393,4,5,9,0,2,-2,-2,1
1558434311583356,2,2,-1,-2,-1,-3,-5,-1
1558434311583356,0,2,16,10,8,10,7,3
1558434311591552,-2,-1,-11,-4,-1,0,1,1
1558434311591552,-5,-9,-6,-2,1,7,1,-1
1558434311606505,2,6,11,5,3,-3,-5,-3
1558434311606505,-1,-5,-8,-4,-8,-16,-6,1
1558434311607292,-1,-3,0,1,2,4,6,0
1558434311607292,-1,4,0,-4,-3,-2,4,-3
1558434311622287,-2,-5,-4,-1,0,3,-1,-1
1558434311622287,-2,1,1,-4,0,0,1,-4
1558434311628455,-8,-12,-18,-1,-9,-2,-2,-4
1558434311628455,1,1,8,0,1,-8,0,1
1558434311643235,2,5,4,-3,3,6,11,3
1558434311643235,0,1,-9,-3,1,1,-2,-2
1558434311651174,-1,0,-2,-5,-3,-6,-7,-3
1558434311651174,2,3,3,4,2,4,-3,-1
1558434311666139,-2,-1,-3,1,-5,-6,-2,1
1558434311666139,0,0,1,4,5,7,2,1
1558434311667133,-3,-2,-6,-6,-2,-7,-3,0
1558434311667133,2,0,-4,0,-3,-2,-4,-1
1558434311682092,-2,-3,-8,-9,-2,1,2,-2
1558434311682092,-1,-2,7,4,-3,-6,2,0
1558434311688190,2,12,-4,-8,-4,-1,-8,-1
1558434311688190,-9,-17,-2,-2,-7,-5,-1,-3
1558434311703037,1,-4,12,5,2,4,-4,-2
1558434311703037,1,3,3,7,6,5,11,5
1558434311711158,-1,-5,-16,-12,-2,-6,-1,-1
1558434311711158,2,10,9,6,-3,-1,-2,-2
1558434311727092,-1,0,-8,-5,-5,-6,-7,-5
1558434311727092,-1,-9,-8,-9,-1,4,1,-4
1558434311727092,4,4,14,11,10,7,5,2
1558434311727092,1,7,-1,-2,-6,-7,-3,2
1558434311742051,-8,-9,7,2,-6,-3,-3,-1
1558434311742051,-3,-5,-10,-6,-8,-4,-4,-2
1558434311748963,2,1,0,1,4,-5,-3,0
1558434311748963,0,5,1,-2,2,6,3,-4
1558434311764014,1,5,-4,-5,-8,-14,-3,1
1558434311764014,-6,-5,1,-1,-1,2,-1,-3
1558434311771095,-5,-5,-4,-4,-3,2,-5,-6
1558434311771095,1,3,20,8,4,8,1,-1
1558434311787076,1,3,-18,-1,2,3,6,0
1558434311787076,2,5,5,0,0,-9,-2,1
1558434311787076,2,-2,-5,-5,-1,-5,-1,1
1558434311787076,-3,-8,-7,-3,2,1,0,-4
1558434311801805,-3,-3,4,3,2,6,-8,-5
1558434311801805,-1,-2,-5,-7,-7,-3,-2,0
1558434311808750,1,-6,5,2,-3,1,-3,-1
1558434311808750,-1,0,-3,-3,0,-2,-4,-1
1558434311823711,1,-1,-4,0,1,-8,-1,0
1558434311823711,2,5,10,8,10,7,1,2
1558434311830696,-4,-1,-6,-8,-5,-3,-4,-2
1558434311830696,-2,-3,-11,-7,-7,-5,4,0
1558434311846897,-2,-5,-5,-4,-6,-6,-3,0
1558434311846897,1,7,-2,-5,-3,-1,-3,1
1558434311847650,2,-5,7,13,5,4,7,2
1558434311847650,-1,-6,-5,-6,2,-4,-1,1
1558434311862639,1,3,5,7,6,8,7,0
1558434311862639,-3,-3,-6,-7,-8,-6,-6,-5
1558434311876827,3,2,4,3,7,11,12,3
1558434311876827,0,3,-3,-4,-2,0,-6,-2
1558434311884554,-2,-4,-4,-2,-2,2,1,-3
1558434311884554,0,-2,0,2,-6,-3,-4,-5
1558434311891535,5,13,13,13,6,0,5,5
1558434311891535,1,13,4,2,7,3,4,4
1558434311906740,-4,-14,-13,-11,-5,-2,-1,-3
1558434311906740,-5,-10,-6,-7,-6,-1,-5,-4
1558434311907492,-4,-14,-7,-8,-13,-12,-7,-5
1558434311907492,3,1,8,8,7,5,3,2
1558434311922450,4,12,11,10,8,6,1,4
1558434311922450,4,3,-2,-5,-6,-3,-16,-3
1558434311928665,0,7,17,12,6,3,20,5
1558434311928665,-6,-9,-23,-13,0,4,5,2
1558434311943393,-3,-1,10,5,-1,-1,-8,-2
1558434311943393,0,-2,-10,-7,0,0,3,-1
1558434311951370,0,5,-6,-6,-3,-4,-10,-4
1558434311951370,-8,-8,2,4,-8,-3,-3,-5
1558434311966336,-5,-11,-8,-6,-8,-6,-2,-4
1558434311966336,-1,5,13,8,6,4,3,5
1558434311967329,-1,0,12,10,5,0,-5,-1
1558434311967329,-1,-4,-24,-17,-8,2,5,1
1558434311982292,-2,-2,-5,-4,-3,-5,-5,-1
1558434311982292,-1,-3,2,3,-1,-4,0,-6
1558434311988510,1,8,-3,-4,-4,-3,-4,-2
1558434311988510,-1,-5,7,6,4,0,1,-1
1558434312003469,-6,-7,7,0,0,1,1,-3
1558434312003469,-2,-3,-11,-3,-7,-4,-7,-4
1558434312011461,-4,-8,-14,-14,-10,-1,-4,-7
1558434312011461,4,12,26,19,5,-4,2,-3
1558434312026412,-2,-8,-21,-13,9,8,11,1
1558434312026412,-4,-4,-5,-3,0,-1,7,0
1558434312033158,-4,-11,-11,-9,-8,-10,-11,-3
1558434312033158,-1,2,5,-5,-8,-2,-4,-2
1558434312042132,2,8,9,7,-1,0,1,-1
1558434312042132,4,3,-2,1,3,0,-1,-1
1558434312048148,-6,-9,2,3,3,1,-3,-2
1558434312048148,-1,2,-9,-4,0,-3,-10,-4
1558434312063070,3,8,3,7,5,6,6,4
1558434312063070,-5,-16,-19,-14,-7,-2,-1,-3
1558434312071049,3,3,0,-5,1,5,4,4
1558434312071049,-3,-10,-1,1,0,-1,-4,-3
1558434312086009,-3,-8,-7,-7,-8,-8,-8,-2
1558434312086009,-1,0,3,0,3,0,4,-2
1558434312092990,-1,-2,-6,0,-1,-1,-1,-3
1558434312092990,2,3,5,0,-4,-9,-1,-2
1558434312109297,3,10,3,-1,5,16,12,1
1558434312109297,-2,-1,-1,-1,9,1,2,4
1558434312109946,-5,1,-10,-10,-5,-5,0,-2
1558434312109946,1,2,5,6,1,-1,-1,2
1558434312123261,-2,-6,-3,-5,-9,-13,-12,-7
1558434312123261,-3,0,9,5,1,6,-1,-1
1558434312131647,-1,1,4,7,-6,-6,-4,0
1558434312131647,-6,-7,-21,-13,-7,-3,-1,-4
1558434312146715,2,6,10,4,-1,-5,-4,-1
1558434312146715,4,-3,2,6,6,7,9,4
1558434312153724,-2,1,-12,-9,-3,0,-6,-4
1558434312153724,1,-1,8,5,4,3,-6,-1
1558434312162438,-1,5,-6,-8,-7,-6,-3,-3
1558434312162438,-1,1,6,4,-2,0,-5,-4
1558434312169214,-1,-6,6,-1,-1,-2,2,-2
1558434312169214,6,5,5,7,4,0,6,5
1558434312183143,-6,-15,-29,-21,-1,0,-1,0
1558434312183143,1,1,4,1,-6,-4,4,-2
1558434312191343,2,0,4,2,-2,1,-3,-1
1558434312191343,-1,-2,-2,1,-5,-1,2,-1
1558434312206091,3,2,0,3,-1,-4,-4,-1
1558434312206091,-2,6,1,2,-1,0,0,0
1558434312214103,-4,-14,-1,-1,0,4,0,1
1558434312214103,-1,-2,-4,-7,-2,-4,-5,0
1558434312229223,0,0,13,4,-6,-6,-2,-1
1558434312229223,-4,-7,-17,-10,0,0,-4,-1
1558434312230025,2,11,-2,-3,2,-4,-3,2
1558434312230025,-4,-12,-7,-4,-3,3,3,-1
1558434312244985,1,4,8,4,5,7,-1,-2
1558434312244985,2,-1,6,10,0,-3,-3,-1
1558434312259151,-4,2,4,4,6,0,2,1
1558434312259151,-5,-11,-22,-24,-15,-10,-10,-5
1558434312265923,-7,-10,-3,-4,0,-5,-1,-2
1558434312265923,3,9,9,3,-4,4,1,-3
1558434312272909,2,-10,-1,2,-2,1,-3,-1
1558434312272909,4,5,4,8,7,5,1,3
1558434312288860,0,-6,4,3,1,0,4,3
1558434312288860,-4,-3,-8,-6,-5,-6,-8,-5
1558434312289858,1,8,1,-5,0,3,-2,-3
1558434312289858,-4,-10,5,2,3,0,-2,0
1558434312302858,4,4,2,2,0,-4,2,4
1558434312302858,-2,-4,-8,-4,0,1,6,-2
1558434312318815,-2,-1,-2,-3,-5,-3,-1,-4
1558434312318815,-1,8,3,0,-3,-1,-7,-7
1558434312325762,-4,-6,-9,-2,0,2,-1,-2
1558434312325762,-1,-5,0,0,8,-1,3,6
1558434312333740,2,-1,-4,-4,-2,2,4,3
1558434312333740,8,20,5,3,1,2,3,-1
1558434312349449,-16,-17,-9,-4,-10,-5,-6,-8
1558434312349449,-9,-17,-4,-2,-7,-9,-2,-7
1558434312349449,-1,-3,-4,-5,-1,0,-3,-4
1558434312349449,-2,-3,4,5,2,-1,1,0
1558434312365056,5,13,7,8,8,7,3,4
1558434312365056,5,9,23,13,0,2,-1,2
1558434312371343,-7,-11,-32,-20,-5,-5,-6,-1
1558434312371343,-4,-1,10,3,-3,-5,7,-1
1558434312386373,-2,0,-16,-12,-4,-2,-3,-5
1558434312386373,2,1,4,-3,1,7,0,0
1558434312394200,-4,-4,5,4,-10,-9,-4,-3
1558434312394200,0,-1,-3,1,3,6,9,3
1558434312409292,1,5,5,5,11,-5,-2,9
1558434312409292,2,4,12,6,1,1,-5,1
1558434312410226,2,2,-12,-15,-8,2,-2,-6
1558434312410226,-4,-13,-20,-12,-11,-5,-4,-6
1558434312422964,2,1,11,2,-5,-14,-4,0
1558434312422964,-6,4,-18,-18,-8,-10,-9,-6
1558434312431134,0,0,11,13,7,8,7,5
1558434312431134,-1,-1,2,3,2,2,-5,-1
1558434312446051,-6,-7,0,-1,-2,7,5,-3
1558434312446051,1,3,-1,1,1,-5,-5,0
1558434312453821,1,-8,14,13,9,5,3,0
1558434312453821,-2,1,-28,-15,-7,-4,0,1
1558434312468780,3,0,2,-1,-3,6,4,0
1558434312468780,-2,-3,-8,-4,0,-3,-3,-1
1558434312469779,-2,2,5,4,-2,-5,-3,-1
1558434312469779,2,3,11,6,0,-4,-5,0
1558434312483741,3,5,-8,-4,-6,-9,-8,-2
1558434312483741,0,-5,10,14,6,3,3,3
1558434312490981,3,5,9,0,1,-1,1,0
1558434312490981,-11,-18,-45,-28,-12,-9,-9,-8
1558434312507673,-1,-1,0,-6,1,-1,-8,-5
1558434312507673,-1,-1,-5,-3,-6,1,5,-1
1558434312513657,-2,2,10,12,6,-2,-5,1
1558434312513657,2,2,11,1,5,5,4,3
1558434312529665,-5,-6,-5,0,-5,0,-5,-7
1558434312529665,-5,1,-3,-1,-4,-2,2,-5
1558434312529665,0,4,-10,-5,1,-1,-4,0
1558434312529665,5,1,12,7,5,4,4,8
1558434312544580,0,-12,-8,-1,2,0,3,0
1558434312544580,-1,1,0,-5,-6,0,-4,-3
1558434312550559,-1,-4,-8,-6,-4,-1,-5,-4
1558434312550559,2,4,13,9,2,-6,4,2
1558434312565737,3,4,11,11,2,-6,-7,5
1558434312565737,-1,-2,-11,-10,2,-1,11,6
1558434312573576,-1,-2,-2,-1,-8,-2,3,-5
1558434312573576,-7,-5,-16,-20,-6,1,-10,-7
1558434312588749,-3,-7,-1,1,-4,0,6,1
1558434312588749,2,4,3,1,1,-1,-3,2
1558434312589455,0,-4,-2,-2,2,-2,3,-1
1558434312589455,1,1,16,15,8,7,2,0
1558434312604719,-2,5,3,-1,2,9,4,-3
1558434312604719,-4,-7,-5,-6,-8,-7,-7,-5
1558434312611559,1,3,2,5,10,8,8,4
1558434312611559,-1,4,8,4,-3,-2,-7,-4
1558434312625657,5,5,-7,-3,3,8,4,2
1558434312625657,-13,-21,2,4,-4,-5,-3,-1
1558434312633350,-4,-9,-15,-7,-9,-17,-8,-2
1558434312633350,-1,-1,0,-6,-2,-3,-1,-2
1558434312649606,5,11,4,5,1,-3,-4,-4
1558434312649606,0,4,-10,-4,4,10,5,-1
1558434312649606,-3,1,7,4,-3,-4,-4,-1
1558434312649606,-2,-6,0,1,-3,-6,11,-2
1558434312664546,-3,-6,-4,0,0,1,-1,-3
1558434312664546,4,3,5,2,2,6,-1,1
1558434312671482,0,0,-3,-6,-4,-5,-6,0
1558434312671482,4,3,3,4,2,-5,-7,-4
1558434312687196,-3,2,-1,-2,-6,-2,0,-4
1558434312687196,-6,-14,-12,-3,-5,-7,-7,-9
1558434312693177,-4,2,-11,-15,-3,4,-1,-1
1558434312693177,2,0,1,2,1,3,1,5
1558434312709432,-3,-6,-3,-3,-4,-3,0,1
1558434312709432,7,10,7,7,7,-7,-2,3
1558434312709432,3,0,4,-1,-1,-5,1,-2
1558434312709432,-9,-10,-10,-5,-8,-4,-9,-8
1558434312725099,2,6,-8,-11,-4,1,6,3
1558434312725099,-2,2,4,-1,2,-1,1,3
1558434312731078,-4,-15,1,7,6,0,-3,-1
1558434312731078,0,0,3,6,-1,2,3,1
1558434312746331,-1,0,4,5,1,0,-5,-3
1558434312746331,-2,2,-11,-11,-7,2,-8,-5
1558434312753299,3,12,11,5,0,6,6,-2
1558434312753299,0,-4,-2,3,10,3,4,4
1558434312769204,-2,-7,-7,-4,-6,-7,-6,-4
1558434312769204,6,6,7,5,5,3,0,3
1558434312769974,-5,1,-9,-6,-10,-5,-1,-2
1558434312769974,-2,-1,6,-2,-7,-5,-7,-4
1558434312784933,-5,-3,-4,0,0,-2,-2,-3
1558434312784933,-1,-7,-6,-7,-2,-3,0,-2
1558434312799184,-2,-3,-4,-5,2,1,6,3
1558434312799184,-2,-2,-11,-8,-1,-2,-7,-4
1558434312806153,-2,3,5,3,-8,-6,3,0
1558434312806153,0,5,-1,9,1,3,3,1
1558434312813857,-7,-8,-10,-6,0,2,-1,0
1558434312813857,-1,1,8,2,1,1,1,3
1558434312829083,0,2,13,4,-6,-7,-8,-1
1558434312829083,-1,-10,-16,-3,3,3,-5,2
1558434312829817,3,1,-7,-5,1,-1,8,0
1558434312829817,0,-2,4,4,5,6,7,1
1558434312844778,-4,-6,-1,-1,-3,-1,-3,-3
1558434312844778,-2,3,3,-8,-13,-7,-5,-4
1558434312850758,-3,-10,-8,1,2,-3,1,-2
1558434312850758,0,2,-3,-3,3,5,1,-1
1558434312865989,5,5,2,-3,-2,-1,4,2
1558434312865989,1,10,24,13,2,1,-2,1
1558434312873697,-4,-4,-31,-26,-16,-6,-16,-7
1558434312873697,-1,-5,-4,-3,3,-5,8,5
1558434312890650,-1,-4,-1,6,8,3,2,5
1558434312890650,-7,-8,2,0,-5,-3,0,-1
1558434312890650,2,7,15,10,-3,-2,-6,-4
1558434312890650,0,1,-15,-4,-5,0,-2,0
1558434312904808,-7,-11,-10,-13,-2,1,-5,-1
1558434312904808,4,3,-7,-4,1,-5,0,2
1558434312910935,3,3,10,8,0,-2,1,1
1558434312910935,1,0,6,3,3,7,-1,-4
1558434312926631,2,7,7,3,8,1,6,4
1558434312926631,-8,-7,-27,-22,-11,-11,-8,-4
1558434312933534,-1,-1,5,5,-3,-3,1,0
1558434312933534,-2,-5,4,2,-1,1,2,0
1558434312949601,0,6,14,7,4,8,-6,-3
1558434312949601,0,-8,-14,-3,1,3,3,-1
1558434312949601,-2,0,-9,-5,-1,-2,-5,-4
1558434312949601,1,0,0,0,-6,-5,-2,0
1558434312964736,-6,3,-3,-6,-6,-5,1,-4
1558434312964736,-1,-2,12,7,1,3,2,-2
1558434312971602,0,-6,8,13,10,-4,-3,1
1558434312971602,-2,3,-22,-17,-13,-4,-5,-5
1558434312986616,4,-2,0,-2,4,2,1,-1
1558434312986616,-3,-5,-3,-6,-4,-6,0,-2
1558434312993692,2,1,5,0,-1,-1,1,1
1558434312993692,2,7,15,11,-1,-4,-6,0
1558434313008637,-6,-5,-18,-6,-4,-4,-1,-3
1558434313008637,-1,-1,-4,-10,0,2,-1,-4
1558434313016315,3,-1,8,0,5,4,5,3
1558434313016315,0,12,6,8,6,7,3,3
1558434313024553,-4,-13,-7,-1,1,2,1,-2
1558434313024553,2,1,10,4,2,-5,-1,3
1558434313031539,0,3,0,-3,-12,-6,-3,2
1558434313031539,-1,5,-12,-9,-2,-4,-2,0
1558434313046496,-1,0,-3,1,-6,-6,-7,-2
1558434313046496,1,-6,-1,-1,-1,5,2,0
1558434313053468,2,11,27,20,11,10,1,-1
1558434313053468,-9,-23,-35,-27,-14,-5,-3,-10
1558434313068177,3,4,8,2,-1,-9,-6,3
1558434313068177,2,2,8,13,14,5,1,4
1558434313076423,-7,-7,-13,-12,-7,2,0,-2
1558434313076423,0,0,9,8,3,3,5,-3
1558434313085130,1,8,16,8,-3,-4,-9,-5
1558434313085130,-2,-2,-38,-21,-2,0,-1,-1
1558434313091360,1,-5,7,8,4,0,3,1
1558434313091360,-4,-6,3,-1,-1,1,1,-2
1558434313106102,-9,-2,2,2,-6,-6,1,-4
1558434313106102,1,-6,11,11,0,-1,3,-3
1558434313113054,-5,-7,-26,-18,-3,2,-8,-7
1558434313113054,-4,-9,5,2,0,-3,-9,-5
1558434313128014,4,1,1,1,5,7,6,3
1558434313128014,-3,8,-5,-2,-4,-6,-5,-1
1558434313143973,2,3,-3,-6,-4,-7,1,2
1558434313143973,1,-8,-2,-2,0,-4,-5,0
1558434313150953,1,2,-4,-2,3,8,7,-2
1558434313150953,-2,-3,7,3,-7,-11,-6,-4
1558434313151950,-2,-4,2,2,-1,4,7,-1
1558434313151950,3,7,7,6,3,-5,0,5
1558434313166371,-2,0,-11,-1,-1,0,1,2
1558434313166371,-2,-9,-1,-3,-9,-2,-3,0
1558434313173676,0,8,21,14,2,3,1,-2
1558434313173676,-2,-7,-22,-8,-8,-8,-10,-4
1558434313188475,1,-3,1,-4,0,0,10,1
1558434313188475,5,12,6,6,1,5,0,-4
1558434313196397,-4,-9,-17,-11,-6,-3,-1,0
1558434313196397,-5,-8,7,4,3,2,2,2
1558434313212273,2,1,1,-1,0,-5,-8,0
1558434313212273,1,-6,9,3,-3,-3,0,0
1558434313213221,4,9,3,3,-2,1,-2,1
1558434313213221,-1,7,-2,-5,0,0,2,-4
1558434313226182,-4,-12,-10,-5,-5,-2,-1,-1
1558434313226182,0,8,10,7,7,1,5,4
1558434313233166,-5,-10,-17,-4,-3,0,-3,0
1558434313233166,2,6,5,0,-2,-1,4,-2
1558434313248472,0,0,-4,-5,-3,-7,-8,-5
1558434313248472,-1,0,4,2,0,8,2,-4
1558434313256227,-2,-5,1,3,3,-3,-7,-1
1558434313256227,0,8,11,9,-2,-1,-3,3
1558434313272285,0,0,-21,-13,-6,-3,1,-1
1558434313272285,-4,-2,-8,-5,-6,-7,-6,-3
1558434313272285,-1,0,9,5,9,5,5,-1
1558434313272285,1,-4,-12,-5,-4,-5,-2,-1
1558434313286393,-6,-9,3,-5,0,-1,-4,0
1558434313286393,-4,-10,-6,-7,-1,1,1,-2
1558434313293345,0,8,13,5,1,2,0,-6
1558434313293345,3,-1,0,5,0,0,1,0
1558434313309114,4,11,0,0,5,4,4,2
1558434313309114,-2,-1,-12,-16,-5,-3,-4,-2
1558434313316268,-6,-21,-4,-6,-9,-8,-4,0
1558434313316268,0,4,11,5,2,4,2,0
1558434313332241,0,-6,-4,-2,3,5,-6,0
1558434313332241,-1,1,8,7,2,6,1,3
1558434313332241,0,3,2,2,0,1,0,0
1558434313332241,-4,-9,-25,-16,-8,-8,-6,-3
1558434313346197,-2,-4,-8,-6,-2,1,-4,-2
1558434313346197,3,9,2,2,0,-6,-1,0
1558434313354141,0,-3,0,-5,-5,-7,-9,-3
1558434313354141,1,2,8,11,9,3,0,1
1558434313369023,1,-4,-2,1,-2,3,2,0
1558434313369023,1,1,-2,1,-1,4,5,2
1558434313375786,-1,11,-10,-10,-6,-3,-1,-7
1558434313375786,-11,-18,5,3,-3,-3,-3,-5
1558434313392066,1,-2,1,3,8,4,2,0
1558434313392066,1,0,6,4,0,4,3,-1
1558434313392066,-1,0,-7,-6,-6,-5,-12,-3
1558434313392066,4,10,14,11,0,0,4,3
1558434313405796,2,6,14,14,0,1,3,3
1558434313405796,-8,-21,-31,-17,-3,-3,-2,-5
1558434313414010,0,-2,-11,-8,-2,-3,3,2
1558434313414010,-4,-9,-5,-6,-4,4,-6,-9
1558434313428962,1,4,-6,-5,-4,-13,2,3
1558434313428962,3,-1,10,8,1,-2,-3,3
1558434313435939,5,10,12,11,1,-2,0,0
1558434313435939,0,-2,-12,-12,3,6,2,-1
1558434313451608,-4,-5,-3,-5,-4,-2,0,-3
1558434313451608,0,3,2,0,4,3,0,-2
1558434313452855,0,-8,-3,-1,-2,-9,-3,0
1558434313452855,-4,0,4,-2,-4,-3,-4,-1
1558434313465833,-4,0,-12,-7,-8,2,-7,-5
1558434313465833,-1,-8,-9,-9,-4,-4,-8,1
1558434313473521,5,6,30,26,19,17,14,8
1558434313473521,2,-1,-21,-11,-2,-4,0,0
1558434313488763,-3,-2,-1,-5,-4,-3,-4,-4
1558434313488763,-9,-10,-8,-7,-10,-5,-3,-6
1558434313496552,-1,4,0,-7,-3,-1,-3,-7
1558434313496552,4,1,14,11,9,5,2,2
1558434313511448,-2,3,-2,1,0,-1,5,2
1558434313511448,1,5,15,10,0,-5,0,0
1558434313512417,-7,-4,-17,-12,-4,-9,-4,1
1558434313512417,3,3,0,-5,2,2,4,5
1558434313525433,1,-8,5,5,2,1,-4,0
1558434313525433,4,7,-2,-3,1,0,1,-1
1558434313533363,-5,-3,-9,-5,-5,-3,-5,-3
1558434313533363,-5,-9,-4,-3,-10,-3,-2,-2
1558434313548696,1,-4,1,0,-1,-1,2,1
1558434313548696,1,6,16,11,4,1,-4,-2
1558434313556658,-5,-14,-35,-23,-16,-12,-7,-7
1558434313556658,1,13,10,3,4,6,-1,-1
1558434313571494,0,-9,16,9,4,-5,0,0
1558434313571494,0,1,-30,-14,-3,1,-1,0
1558434313572289,3,1,4,-6,-1,0,-2,0
1558434313572289,-4,-1,12,11,4,7,6,0
1558434313586445,-3,-6,-11,-7,-11,-16,-14,-4
1558434313586445,-4,-1,13,12,10,8,6,-1
1558434313593560,0,4,3,4,2,4,-1,-1
1558434313593560,-4,-3,-17,-13,-6,-6,-3,-1
1558434313608162,7,11,22,15,13,6,6,4
1558434313608162,-5,-8,-11,-12,-10,-9,-8,-7
1558434313616176,1,1,8,5,0,11,6,-2
1558434313616176,2,-4,-4,5,-1,-11,-5,-1
1558434313631787,-10,-18,-10,-7,-10,-5,-2,-6
1558434313631787,-2,-5,-24,-18,-9,-8,-5,-2
1558434313632459,-2,-5,-1,3,9,4,-3,4
1558434313632459,3,13,13,4,0,-1,4,0
1558434313646569,0,-2,-7,-1,2,3,-1,-3
1558434313646569,1,4,4,4,1,1,-2,0
1558434313653405,-5,-13,-2,-4,-5,-3,-1,-1
1558434313653405,0,-5,-9,-10,-9,-9,-8,-2
1558434313668653,3,10,3,7,3,-3,6,3
1558434313668653,5,8,21,13,2,4,3,2
1558434313676666,0,-8,-31,-15,-1,-1,0,1
1558434313676666,-13,-2,0,-2,-5,-7,-7,-5
1558434313691745,-4,1,-9,-14,-8,5,-1,-2
1558434313691745,-5,-20,11,13,2,0,-4,-1
1558434313692298,4,6,19,6,4,1,7,1
1558434313692298,2,3,-4,-1,-2,0,-2,-3
1558434313705298,-5,-11,-15,-9,0,1,-5,-4
1558434313705298,0,3,9,5,0,-5,1,2
1558434313713707,-2,-4,-7,-6,-4,-2,-7,-3
1558434313713707,3,3,3,-1,2,0,4,2
1558434313728645,-1,5,3,-4,-2,2,4,-3
1558434313728645,0,1,0,0,-4,-3,-1,-2
1558434313736630,-7,-7,-5,-1,0,-4,1,-4
1558434313736630,7,7,11,17,4,1,-5,1
1558434313751173,1,1,-12,-8,-11,-13,-9,-4
1558434313751173,-4,-11,-2,-1,-3,0,-1,-3
1558434313753134,0,6,-4,-4,2,5,3,1
1558434313753134,-3,-9,10,7,1,2,-1,2
1558434313766326,-1,4,-2,6,0,5,-1,-2
1558434313766326,-4,-1,-33,-27,-15,-8,-5,-3
1558434313773550,-4,1,3,-1,1,2,2,1
1558434313773550,1,-15,-2,-5,0,3,-1,-2
1558434313788509,6,9,25,17,6,1,-3,3
1558434313788509,0,-3,-16,-12,-4,-7,-1,1
1558434313796447,-1,2,2,1,-3,-4,-3,-1
1558434313796447,-1,-1,1,-2,0,-4,-4,-3
1558434313812236,-2,-4,-6,-7,-9,-3,-4,-5
1558434313812236,2,7,6,6,3,-3,-3,1
1558434313812236,1,0,6,5,0,1,-7,-1
1558434313812236,0,-1,0,-1,2,2,10,1
1558434313833918,-1,4,-1,-1,0,0,5,-2
1558434313833918,0,0,1,-6,3,6,1,-1
1558434313835062,-7,-8,-19,-9,-12,-12,-8,-4
1558434313835062,-1,-4,0,-2,-2,-3,-2,1
1558434313849061,-3,-2,-10,-5,0,2,-3,0
1558434313849061,-7,-15,15,9,6,0,-1,0
1558434313855916,2,2,-5,3,0,-3,1,1
1558434313855916,-1,-4,-12,-13,-9,-3,-3,0
1558434313872097,-4,-2,-11,-1,2,-3,3,0
1558434313872097,1,5,9,3,-3,-3,-4,-2
1558434313872097,-1,-2,-4,-5,-1,7,11,-1
1558434313872097,1,5,10,12,2,-4,-2,1
1558434313886055,2,-3,-12,-5,-2,-1,-1,2
1558434313886055,2,4,0,-2,-2,4,1,0
1558434313892762,0,3,12,11,5,3,2,-2
1558434313892762,-1,-6,-11,-9,-6,-2,4,0
1558434313908738,-4,-4,-5,-6,-3,-5,-3,-3
1558434313908738,0,6,8,5,0,2,-1,1
1558434313915988,-2,-6,0,7,4,4,-5,-2
1558434313915988,-1,-2,-6,4,8,9,0,-3
1558434313930659,-5,4,-1,-5,-6,-7,-2,-4
1558434313930659,-4,-16,-10,-10,0,-4,-1,-5
1558434313938637,-2,-2,4,-2,0,0,1,0
1558434313938637,-3,2,-1,-4,-5,-3,-2,-3
1558434313945654,1,-5,3,1,3,6,-3,-2
1558434313945654,1,5,2,3,-2,-5,-1,0
1558434313953599,3,7,8,9,2,-4,7,4
1558434313953599,1,5,0,2,4,1,-1,-3
1558434313969013,2,-2,-1,-4,0,4,11,2
1558434313969013,-5,-1,-4,-4,-6,4,-6,-8
1558434313975540,1,-4,-1,-6,-6,-2,-8,-3
1558434313975540,0,-1,-2,-9,-3,-12,-2,2
1558434313990997,-3,-5,-9,-3,-3,2,-7,-3
1558434313990997,4,6,23,22,12,5,4,5
1558434313998975,-2,-8,-31,-24,-8,-4,0,-2
1558434313998975,-2,-2,-2,-2,-6,0,-5,-5
1558434314006402,-2,-5,-5,-2,0,1,6,3
1558434314006402,-2,-5,1,4,2,0,2,1
1558434314013373,1,13,1,1,-2,-2,-4,2
1558434314013373,-4,-5,-6,-4,0,4,-3,1
1558434314029197,-2,-9,11,5,4,0,-2,2
1558434314029197,3,4,-12,0,2,-1,5,2
1558434314036336,1,9,6,-1,-3,-4,-2,-2
1558434314036336,-1,-7,-1,-5,-4,-4,2,-1
1558434314050836,0,2,11,10,5,11,1,0
1558434314050836,-2,0,-4,-7,-4,-7,-2,0
1558434314059181,4,-1,5,3,5,1,-3,1
1558434314059181,-7,1,-5,1,-12,-12,-10,-2
1558434314065798,0,-7,11,8,4,-2,8,2
1558434314065798,-3,-3,-15,-15,-8,-4,-6,-2
1558434314073930,2,2,10,2,-3,-4,1,-1
1558434314073930,-2,-4,-14,-7,1,0,-2,-2
1558434314089054,-1,-3,8,5,3,2,-7,-2
1558434314089054,-1,4,3,0,-4,-3,-2,0
1558434314104732,0,-2,-1,10,2,3,0,-1
1558434314104732,2,7,14,0,4,2,-1,0
1558434314110678,-4,-15,-8,-2,-2,2,-2,1
1558434314110678,-2,-9,-25,-18,-3,0,1,-2
1558434314118684,0,2,1,-4,-1,-5,-4,-3
1558434314118684,-2,0,5,1,-2,-11,-2,-5
1558434314133615,2,6,0,-5,-5,-8,-9,-2
1558434314133615,2,4,15,16,7,9,12,5
1558434314134613,-4,3,3,-4,-1,2,1,-4
1558434314134613,6,5,7,10,4,7,-2,-2
1558434314148574,-1,4,-10,-9,-8,-6,-4,-3
1558434314148574,-15,-27,-13,-8,-5,-3,-7,-5
1558434314155613,-1,-4,10,4,4,-3,-7,2
1558434314155613,-4,-3,-17,-11,-7,0,-3,-2
1558434314170551,2,2,11,1,5,-3,-2,2
1558434314170551,5,7,4,0,-1,-5,3,1
1558434314178494,-4,-13,-6,-1,3,6,2,-2
1558434314178494,-1,-1,8,5,2,6,7,-2
1558434314193454,-4,3,-15,-7,-4,0,-2,-2
1558434314193454,4,5,8,5,0,-1,-2,0
1558434314194452,-4,-8,-11,-10,-4,-10,-12,-5
1558434314194452,-2,0,-2,-4,-5,-2,3,0
1558434314208415,-2,3,-5,0,4,1,3,1
1558434314208415,-2,3,7,4,2,0,0,1
1558434314215427,-2,-6,5,3,-5,-7,1,1
1558434314215427,-4,-3,-5,-6,-3,-1,-7,-2
1558434314230390,-2,-1,-10,-10,-7,-8,-7,-2
1558434314230390,6,5,1,-4,9,4,9,4
1558434314239331,2,5,3,6,3,4,3,-2
1558434314239331,-1,4,-6,-1,-2,-2,-3,0
1558434314254317,-3,-6,0,-6,-6,-2,6,0
1558434314254317,-4,-13,4,2,-6,-1,-10,-4
1558434314254317,2,2,-12,-10,-6,1,3,1
1558434314254317,1,-2,16,14,12,0,4,4
1558434314268646,2,6,-4,-2,-1,-7,-3,1
1558434314268646,3,10,-5,2,-2,-1,6,1
1558434314276234,1,-1,12,4,8,12,5,1
1558434314276234,-10,-14,-7,-4,-5,0,-5,-4
1558434314290548,-5,-5,-17,-16,-11,-9,-4,-4
1558434314290548,-1,-4,-5,0,1,1,-2,-1
1558434314299173,-1,6,-8,-8,-9,-7,-5,-3
1558434314299173,1,3,15,9,0,-3,2,-2
1558434314314132,1,-9,3,6,4,4,1,-1
1558434314314132,-2,-2,-5,-5,-5,-4,-4,-6
1558434314314132,-3,2,1,7,3,7,1,-1
1558434314314132,2,0,-13,-7,0,1,-1,1
1558434314328095,1,1,6,0,-6,-4,-1,1
1558434314328095,-1,1,-2,-6,-1,-12,-12,-2
1558434314336072,-2,-6,-1,1,2,5,4,1
1558434314336072,-1,4,5,-1,0,2,-5,-1
1558434314351034,1,4,-2,1,2,-9,-2,0
1558434314351034,1,6,-2,-2,-3,-1,1,0
1558434314359088,-1,-4,-2,0,0,-4,1,2
1558434314359088,-2,-6,-1,2,1,2,5,2
1558434314373982,-4,-7,-1,-5,-3,7,-7,-7
1558434314373982,5,2,-4,-7,-3,-3,-6,-2
1558434314374970,-3,-8,2,0,2,-10,-3,3
1558434314374970,6,11,0,4,9,8,4,2
1558434314388166,5,13,19,15,3,0,4,3
1558434314388166,-10,-13,-20,-15,-12,-1,-6,-3
1558434314395913,-4,-6,-3,-1,-6,2,2,-5
1558434314395913,-1,-7,3,1,-1,0,-1,-1
1558434314410872,0,2,3,6,3,-4,0,4
1558434314410872,4,2,7,7,9,8,2,4
1558434314426844,-6,1,-6,-8,-10,-10,-13,-7
1558434314426844,4,2,12,4,-3,-4,-2,0
1558434314433829,0,3,-13,-5,0,-2,5,0
1558434314433829,-9,-12,-8,-7,-1,-1,-1,-2
1558434314434811,1,-7,-7,1,0,-1,0,-2
1558434314434811,-1,8,-11,-9,-7,-12,-6,-4
1558434314447775,0,-6,26,12,2,1,0,-2
1558434314447775,-3,-6,-16,-12,-3,-5,-3,-1
1558434314455754,3,1,7,4,10,11,1,2
1558434314455754,0,-4,-14,-8,0,5,-3,-1
1558434314470977,-2,6,3,-4,-7,-5,-10,-2
1558434314470977,-3,3,5,9,0,1,9,-1
1558434314478691,0,1,2,-1,-9,-11,-1,-4
1558434314478691,-5,-1,-5,-4,-4,-4,1,-2
1558434314493652,-3,-18,1,1,-6,-4,-6,-2
1558434314493652,2,0,4,4,8,9,2,1
1558434314496673,-3,-4,-15,-9,-5,-6,-3,0
1558434314496673,3,3,14,13,3,3,1,-1
1558434314508628,4,2,-9,-7,-1,-2,0,2
1558434314508628,1,7,4,3,0,4,1,-1
1558434314515594,-5,-7,-10,-12,-1,-1,1,-1
1558434314515594,-4,-11,-10,-9,-9,-8,-7,-5
1558434314530554,-3,0,0,-5,-7,-7,-6,-3
1558434314530554,4,12,23,15,12,1,4,3
1558434314538532,-1,-1,-17,-12,-7,-8,-8,0
1558434314538532,-4,-6,2,0,8,16,5,4
1558434314553491,-2,-1,-13,-4,2,3,9,-1
1558434314553491,0,5,21,9,-4,-4,-3,-3
1558434314554488,-2,3,-8,-4,-4,-3,-2,3
1558434314554488,-8,-26,-15,-13,-8,-5,-5,-3
1558434314568452,5,9,11,12,5,3,2,2
1558434314568452,4,2,-5,-7,-4,-6,2,0
1558434314575440,0,0,-5,3,2,7,5,1
1558434314575440,1,5,-2,0,-2,-3,-1,-2
1558434314590459,-11,-21,-5,-8,-2,4,-3,-7
1558434314590459,1,-4,-14,-13,-10,-12,-7,-3
1558434314606351,5,7,16,6,-3,-8,-7,-4
1558434314606351,0,11,7,2,-1,-3,2,3
1558434314614581,-4,0,0,8,8,6,4,2
1558434314614581,3,3,6,2,5,5,-4,0
1558434314614581,4,24,7,4,0,5,3,3
1558434314614581,-9,-20,-4,-5,6,7,4,-1
1558434314628291,6,13,9,5,5,-3,1,0
1558434314628291,-7,-11,-8,-4,-4,-5,3,-4
1558434314635450,-7,-22,3,2,-2,0,-3,-4
1558434314635450,7,8,11,7,0,-3,-9,-5
1558434314651235,0,1,-14,-9,-4,-5,2,1
1558434314651235,-8,-9,-2,-3,-5,-2,-1,0
1558434314658211,5,6,12,7,8,3,6,4
1558434314658211,-7,-5,-18,-10,-7,-3,0,-6
1558434314674381,-2,6,5,0,2,6,-3,-4
1558434314674381,5,7,-3,-2,-4,1,-4,0
1558434314674381,-6,-12,0,0,-3,-4,0,0
1558434314674381,-1,-2,-6,-2,-8,-13,-9,-2
1558434314688131,3,-2,-12,-9,3,5,0,2
1558434314688131,-4,0,8,4,1,-3,2,1
1558434314696110,-1,-7,-20,-6,-3,-2,-1,-2
1558434314696110,3,18,8,4,4,5,6,4
1558434314711071,-7,-17,4,0,-9,-6,-7,-4
1558434314711071,-8,-14,-21,-12,-5,-1,-3,-7
1558434314718051,-2,-5,0,-1,-2,-5,-4,-5
1558434314718051,2,2,-7,-3,-3,-2,1,0
1558434314734010,2,4,2,0,0,4,3,0
1558434314734010,2,1,3,4,-3,0,-3,3
1558434314735006,-4,-1,-6,-1,-3,-5,-11,-6
1558434314735006,0,-1,-1,-3,0,-2,3,1
1558434314747978,-3,-1,-1,-1,-1,1,1,0
1558434314747978,-2,-4,9,8,7,5,-3,-3
1558434314755949,3,6,-5,-4,-2,-1,2,0
1558434314755949,-2,-4,-7,-9,-2,-4,-3,-1
1558434314770912,1,2,27,20,7,5,4,2
1558434314770912,-6,-9,-45,-32,-16,-12,-11,-8
1558434314777893,5,8,12,6,8,6,7,2
1558434314777893,-2,1,10,7,6,-4,2,0
1558434314793848,-9,-15,-28,-15,-11,-3,-7,-6
1558434314793848,3,7,10,3,-4,-3,-5,0
1558434314794848,2,2,3,1,1,7,2,2
1558434314794848,-3,-3,5,7,4,-1,-3,1
1558434314807811,-1,-3,-1,-4,2,-4,0,-2
1558434314807811,-3,-3,7,4,-4,-3,-3,-4
1558434314815791,-3,-2,-18,-8,-9,-4,0,-4
1558434314815791,-1,-6,-6,-5,0,2,2,2
1558434314830751,-1,-1,1,2,0,1,-5,1
1558434314830751,-5,-8,-23,-17,-2,0,1,2
1558434314846710,5,6,20,7,1,-2,-3,0
1558434314846710,0,-3,3,0,-2,-2,-1,0
1558434314870703,-7,-5,-7,-2,-4,-4,-2,-4
1558434314870703,5,9,18,16,8,-1,3,2
1558434314870703,-3,1,-7,-5,-3,-1,-1,-4
1558434314870703,-2,-4,-17,-15,-8,-1,-1,-4
1558434314872638,3,6,-5,-8,-5,-4,-1,-2
1558434314872638,3,-3,20,14,3,1,2,3
1558434314883615,-9,-19,-14,1,-2,-1,1,0
1558434314883615,3,6,-1,-1,0,0,-2,0
1558434314890593,1,-3,2,-3,4,-2,-2,2
1558434314890593,1,9,4,3,1,0,2,-1
1558434314898569,-4,-7,0,2,-1,-6,-2,-4
1558434314898569,0,6,1,1,1,4,2,-2
1558434314913528,5,11,7,6,-3,1,-1,-2
1558434314913528,-2,-10,-18,-8,0,-1,0,2
1558434314921542,-4,-6,-5,-9,-2,0,-3,-1
1558434314921542,-2,5,11,14,3,1,1,0
1558434314936468,3,7,10,-2,2,-2,-2,-3
1558434314936468,-3,1,-8,-6,-5,-2,-2,-6
1558434314943449,-2,-4,10,-1,1,0,0,0
1558434314943449,-1,-3,-17,-8,-5,-3,-2,-4
1558434314951432,0,3,4,-1,-5,-2,-2,0
1558434314951432,-3,-5,5,1,1,-2,2,0
1558434314958415,5,11,6,-1,0,-1,2,5
1558434314958415,-6,-12,10,7,3,1,-1,1
1558434314973370,-2,-7,-10,-2,-1,-2,-1,-4
1558434314973370,4,11,16,5,2,4,0,0
1558434314981348,3,3,-11,-3,-6,-4,-4,-2
1558434314981348,-9,-7,-11,-10,-5,-4,-1,-1
1558434314988328,0,-4,4,7,-1,-4,-4,0
1558434314988328,-3,5,5,-5,0,1,1,0
1558434314995312,0,3,-19,-7,1,1,0,-2
1558434314995312,5,0,8,6,-6,-5,-1,0
1558434315010269,-4,-8,-15,-15,-3,-1,-1,-2
1558434315010269,1,4,12,12,0,0,-1,0
1558434315018256,-1,-1,11,8,3,2,0,-1
1558434315018256,-2,-9,-17,-14,-7,-3,-4,-1
1558434315033214,0,3,-3,0,2,3,2,2
1558434315033214,0,-8,8,7,5,1,3,1
1558434315041187,3,8,2,-2,-1,0,-6,-1
1558434315041187,3,14,7,4,4,3,7,1
1558434315056148,-7,-16,2,0,-3,-3,-4,-2
1558434315056148,-16,-19,-18,-6,-3,-2,-4,-5
1558434315057147,-6,-8,16,3,-6,-3,-3,-4
1558434315057147,1,-1,-12,-4,-1,0,-1,-3
1558434315071108,-1,-3,-34,-24,-8,-12,-4,-1
1558434315071108,1,7,1,-5,3,3,4,1
1558434315078089,-5,-12,0,4,-2,-4,-4,-1
1558434315078089,6,12,32,19,5,4,0,3
1558434315093050,0,8,4,11,0,3,0,0
1558434315093050,1,-8,-34,-19,-7,-6,-8,-1
1558434315101029,-1,4,8,4,2,-3,4,3
1558434315101029,-1,-6,-7,-8,-4,-9,-3,-2
1558434315115994,2,4,4,2,2,1,3,1
1558434315115994,0,-1,7,4,0,0,-2,0
1558434315116995,3,2,5,8,4,0,0,1
1558434315116995,1,-6,-18,-11,-6,-4,-4,-4
1558434315130947,-10,2,10,-3,-4,-2,-7,-6
1558434315130947,5,18,10,9,2,2,0,1
1558434315137929,0,-3,8,-4,1,4,5,0
1558434315137929,-9,-26,-20,-3,2,2,0,2
1558434315152890,3,3,-2,-3,1,0,-2,0
1558434315152890,-3,-11,-3,-6,-5,-2,-2,-3
1558434315160875,0,2,5,5,3,2,-1,0
1558434315160875,-3,-4,-8,-9,-8,-7,-4,-8
1558434315175827,1,1,12,1,3,4,4,1
1558434315175827,0,-4,-19,-4,-9,-6,-4,-2
1558434315176824,2,7,-1,-2,0,1,2,1
1558434315176824,-1,-2,9,3,2,-1,-3,1
1558434315190792,2,3,3,6,1,2,-2,1
1558434315190792,2,1,10,7,2,0,1,-3
1558434315197794,-1,6,-22,-7,-2,-1,0,1
1558434315197794,-9,-15,8,0,-2,0,-2,-3
1558434315212728,-4,-7,-19,-7,-3,-1,1,0
1558434315212728,2,-3,0,-5,0,-2,-1,1
1558434315221704,-1,2,14,11,-2,-1,-2,-2
1558434315221704,-3,6,-4,-5,2,1,0,3
1558434315236666,-5,-10,-15,-2,-3,0,0,-2
1558434315236666,2,1,16,8,6,0,-2,-1
1558434315236666,1,5,-24,-12,-6,0,-3,-4
1558434315236666,8,6,10,7,1,-2,0,1
1558434315250632,-11,-7,6,0,-2,-6,0,-3
1558434315250632,-2,-9,-24,-14,-7,-4,-2,-3
1558434315258609,-2,-2,11,0,0,-1,-2,0
1558434315258609,6,14,20,11,10,11,3,3
1558434315273566,-4,-7,-18,-2,-7,-2,-2,-4
1558434315273566,1,4,-7,-8,-2,-4,-2,-1
1558434315281545,-4,-5,15,-1,-1,-6,-5,-3
1558434315281545,1,1,-6,-3,-1,-1,-1,0
1558434315296503,6,8,12,7,3,1,-3,-1
1558434315296503,-3,-4,11,7,-1,1,0,0
1558434315297501,-1,-3,1,-1,-4,-2,-2,0
1558434315297501,-3,2,-19,-5,-1,0,1,1
1558434315310471,-1,-11,-10,-12,-3,-2,-1,-3
1558434315310471,0,2,4,2,-3,-1,0,-2
1558434315318446,0,4,-8,-2,1,-1,0,1
1558434315318446,4,6,20,6,1,1,2,1
1558434315333415,-6,-5,-4,-3,0,-1,1,1
1558434315333415,-4,-5,-4,-4,0,1,-2,-5
1558434315341392,0,-9,7,2,3,0,0,-1
1558434315341392,-4,-4,-11,-5,-6,-4,-3,-3
1558434315356345,-1,-4,1,2,2,-1,-1,-1
1558434315356345,1,5,-11,-5,-3,-2,0,2
1558434315357341,-3,2,-6,-5,-2,-2,2,0
1558434315357341,-2,-8,3,2,0,1,-2,0
1558434315370308,6,4,2,2,-2,2,-1,-1
1558434315370308,-4,10,17,5,-2,-2,0,0
1558434315378286,-6,-11,-20,-9,-3,-3,-4,-3
1558434315378286,-5,-1,9,-2,-3,-2,-3,-3
1558434315393246,5,5,2,4,2,3,2,1
1558434315393246,4,0,-9,4,1,-1,-2,-1
1558434315401225,-10,-9,1,-7,-3,-2,-3,0
1558434315401225,-2,-9,-19,-10,-4,-6,-4,-3
1558434315416184,4,17,9,-2,0,-1,0,2
1558434315416184,-5,-8,-3,3,0,0,-1,-3
1558434315417185,1,-11,13,4,-1,-2,1,-2
1558434315417185,8,13,1,4,0,-1,-1,0
1558434315430154,-6,-9,-6,0,-4,-1,-1,-2
1558434315430154,2,3,15,6,3,2,0,1
1558434315438125,-4,-8,-23,-16,-2,-2,2,-4
1558434315438125,-11,-14,-1,2,-4,-2,0,-4
1558434315453085,7,3,0,-5,-2,0,0,1
1558434315453085,-2,-6,-8,-3,-1,-2,-1,-2
1558434315461065,2,7,17,13,2,1,-1,3
1558434315461065,-5,-3,-21,-10,0,-1,-2,-5
1558434315477021,-6,-3,-3,1,-4,-2,-3,-2
1558434315477021,0,-5,23,7,0,-1,-1,0
1558434315484003,3,3,-17,4,2,2,1,1
1558434315484003,3,8,-5,-16,-3,1,-2,2
1558434315490985,2,-1,21,10,2,-1,-1,0
1558434315490985,-4,-8,-25,-15,-5,-2,3,-2
1558434315499248,2,6,4,3,-2,2,0,1
1558434315499248,2,4,12,8,2,1,2,0
1558434315512933,-4,-11,-10,-2,-2,-2,-1,-1
1558434315512933,1,1,-3,-1,-3,0,-3,0
1558434315520905,-3,-3,1,-1,-1,-1,-3,-3
1558434315520905,3,9,7,2,-1,1,0,-2
1558434315535865,3,1,9,10,3,1,-3,1
1558434315535865,-8,-14,-22,-17,-3,-4,-2,-1
1558434315536861,-2,-1,-1,-2,-6,-2,-1,-1
1558434315536861,0,10,4,-2,0,-3,-3,0
1558434315550826,-4,-4,9,9,5,1,0,-1
1558434315550826,4,6,7,5,3,2,-2,-1
1558434315557805,-1,-12,-9,-3,-1,-2,-3,-1
1558434315557805,6,11,8,6,2,1,2,2
1558434315573763,0,4,-14,-18,-6,-5,-3,-2
1558434315573763,-5,-11,5,7,2,1,3,0
1558434315581741,2,0,-4,-5,-2,-2,-2,-2
1558434315581741,-4,-4,5,8,0,-2,1,-1
1558434315596705,4,15,6,3,2,3,-1,1
1558434315596705,-2,-1,-10,-11,-4,-2,-2,0
1558434315596705,0,2,15,10,-1,1,-1,0
1558434315596705,-3,-9,-13,-7,-2,-1,2,-3
1558434315610664,0,-1,-2,-5,-4,-2,1,-1
1558434315610664,2,6,3,4,4,0,1,-1
1558434315618643,-5,0,8,-3,-4,-2,-1,-1
1558434315618643,-1,-8,2,8,0,-1,-3,-2
1558434315633606,-8,-8,-20,-17,-3,-1,2,-4
1558434315633606,1,3,-18,-9,-3,-3,-4,-1
1558434315640586,0,-1,0,-1,2,-2,1,-1
1558434315640586,-3,-1,-10,-5,-3,-4,-3,-2
1558434315656541,-4,-6,10,10,4,1,-2,-5
1558434315656541,2,-1,9,9,1,1,-1,0
1558434315656541,-1,3,-8,-8,-4,0,-1,1
1558434315656541,-3,0,3,2,0,-1,-1,3
1558434315670504,0,-1,-6,-1,-3,-3,1,2
1558434315670504,1,7,-1,-8,-2,-2,-1,0
1558434315678483,1,-4,-3,6,1,0,0,-2
1558434315678483,-6,-10,0,-4,-1,-1,-2,-1
1558434315693446,-7,-1,7,4,0,-2,0,1
1558434315693446,2,-2,-5,-4,0,0,-1,-1
1558434315700435,0,-3,-3,-1,-4,-4,-5,-3
1558434315700435,-1,1,-9,-12,-4,-2,-2,-4
