timestamp,emg1,emg2,emg3,emg4,emg5,emg6,emg7,emg8
1558434323886778,0,-5,5,6,2,1,-3,2
1558434323886778,-8,-14,-35,-23,-10,-4,-3,-1
1558434323887774,0,1,5,4,5,5,1,3
1558434323887774,0,4,5,-1,-3,-5,-1,-3
1558434323891765,1,-1,-9,-4,-2,-2,-5,-4
1558434323891765,1,4,6,4,1,6,3,-1
1558434323892762,-2,-5,-4,-6,-10,-4,-5,-8
1558434323892762,-5,-3,-1,-2,-12,-12,-15,-7
1558434323899743,1,3,9,19,31,17,18,10
1558434323899743,2,5,12,3,-8,-4,2,3
1558434323906724,-6,-10,-20,-13,-5,-6,-1,-4
1558434323906724,2,4,6,8,3,7,4,3
1558434323914702,-5,-6,-10,-10,-13,-10,-9,-8
1558434323914702,-2,-5,3,2,-1,-1,-3,-4
1558434323927676,2,4,6,6,3,-1,0,5
1558434323927676,-1,-4,-7,-5,1,-2,0,-1
1558434323939636,0,4,0,-7,-4,1,-3,-5
1558434323939636,0,6,18,16,-2,-5,-5,1
1558434323942628,2,-6,-19,-13,5,2,15,1
1558434323942628,1,-3,-11,-6,-2,-8,6,2
1558434323959583,-5,-8,-2,-4,-5,-1,-1,-1
1558434323959583,2,2,11,12,10,4,-9,1
1558434323966564,0,-1,1,-3,-7,1,-3,-3
1558434323966564,-5,-8,-6,-2,6,0,-1,-3
1558434323974542,3,0,11,5,-3,-4,8,3
1558434323974542,-2,-3,-21,-17,-5,-6,-7,-6
1558434324021418,-2,2,-2,0,-6,-11,-4,-3
1558434324021418,-2,-1,-1,-1,-5,-4,-5,1
1558434324022414,-3,-2,-1,-2,-2,-1,1,-1
1558434324022414,0,-2,-5,-7,-5,-3,-3,-3
1558434324022414,-1,-1,4,3,1,7,2,-1
1558434324022414,2,2,3,2,-1,-5,-1,-2
1558434324025407,-5,-4,-14,-11,-11,-10,-6,-8
1558434324025407,0,2,5,4,11,3,4,2
1558434324033386,-1,-1,-15,-6,0,1,0,-1
1558434324033386,2,-2,3,-5,7,5,2,1
1558434324040368,2,-4,10,5,2,5,1,5
1558434324040368,1,3,1,10,-1,-5,-5,0
1558434324048345,-5,-2,-10,-10,-10,-6,-9,-8
1558434324048345,-4,-3,-4,-7,-7,1,4,-4
1558434324063306,3,8,8,5,5,-2,0,0
1558434324063306,-10,-16,-9,-7,-13,-8,-6,-4
1558434324070287,2,3,5,8,12,8,6,2
1558434324070287,1,-4,-4,2,0,-2,0,2
1558434324079263,4,4,12,11,3,3,-1,1
1558434324079263,0,3,-4,-9,-5,-1,0,-3
1558434324093225,-4,-6,-11,-15,-19,-18,-9,-3
1558434324093225,-3,-7,-12,-7,-7,-6,-4,-4
1558434324100206,2,6,5,4,12,2,4,2
1558434324100206,0,-1,-2,0,5,7,0,0
1558434324108184,-3,-7,1,-1,1,1,-5,-3
1558434324108184,-1,6,17,16,-2,4,2,-3
1558434324123145,-4,-8,-31,-22,-11,-8,-5,-1
1558434324123145,4,5,8,2,-3,-3,6,1
1558434324130126,2,4,-2,-6,-2,-5,-5,-2
1558434324130126,-3,-4,8,6,7,0,1,0
1558434324139102,0,-2,0,2,1,2,-3,0
1558434324139102,-4,-3,2,2,8,7,3,-2
1558434324153065,0,-2,6,7,-2,-4,1,-1
1558434324153065,-4,2,-4,-3,-1,-2,-4,-3
1558434324160047,-2,4,-8,-6,-7,-2,2,0
1558434324160047,-10,-14,-9,-8,-9,-10,-11,-4
1558434324168025,-1,0,9,6,4,4,0,-2
1558434324168025,2,4,9,7,6,3,-2,-1
1558434324183007,-2,-3,-6,-4,-1,-2,0,-2
1558434324183007,3,4,3,2,3,2,1,1
1558434324189973,-2,0,5,3,-1,-1,2,1
1558434324189973,-2,-5,-16,-12,-1,-3,-4,-5
1558434324198942,-1,0,11,6,-2,-1,-7,-3
1558434324198942,0,0,0,-2,2,2,9,1
1558434324213903,-4,-12,-11,-10,-5,-4,1,-1
1558434324213903,-2,-3,-13,-9,-10,-7,-8,-4
1558434324219886,-3,-2,1,1,2,1,2,-1
1558434324219886,-2,2,6,5,0,8,-5,-3
1558434324227864,6,9,10,5,16,5,5,5
1558434324227864,-1,2,-8,-10,-2,-1,3,2
1558434324242826,-6,-16,-6,-6,-10,-7,-6,-6
1558434324242826,-6,-2,-11,-10,-9,-7,-3,-4
1558434324250804,2,0,0,3,3,-1,-1,1
1558434324250804,9,11,2,-5,-3,-3,3,4
1558434324258782,-10,-8,-2,-1,-3,-6,-7,-2
1558434324258782,4,-3,7,12,9,7,3,1
1558434324273742,-1,2,-5,-7,0,6,0,2
1558434324273742,0,-1,-1,-5,-4,-5,-3,3
1558434324280726,2,-1,-3,1,2,3,7,3
1558434324280726,1,1,0,-1,1,-4,-5,0
1558434324287705,-3,-1,4,1,-9,-4,-6,-2
1558434324287705,0,-2,-6,2,0,-5,-2,0
1558434324302664,0,1,8,2,2,2,-1,-3
1558434324302664,0,4,3,-2,-1,2,-1,0
1558434324310644,4,8,-13,-6,2,10,2,0
1558434324310644,-3,-2,8,5,-1,-1,2,-1
1558434324325606,-5,-16,-21,-5,-5,-2,-1,-5
1558434324325606,0,-5,6,3,2,-4,-6,0
1558434324333584,0,7,-2,-5,-4,-7,-1,4
1558434324333584,3,3,8,6,3,7,2,2
1558434324340563,0,4,1,2,5,-3,-1,-3
1558434324340563,1,-1,-10,-7,-7,-4,-3,-1
1558434324347547,1,-8,-8,-3,-4,-2,3,0
1558434324347547,2,4,11,9,3,4,0,1
1558434324362505,-5,-2,2,4,6,6,4,3
1558434324362505,0,6,-5,-8,-9,-4,0,-3
1558434324370485,-5,-5,1,8,-6,-12,-7,-4
1558434324370485,-2,-7,-5,-7,-1,1,-4,-3
1558434324385446,2,2,4,-4,-3,2,0,0
1558434324385446,-1,-4,-3,-1,0,-2,-1,0
1558434324393423,-3,-1,7,2,-1,6,4,-4
1558434324393423,-5,-7,-3,-2,-1,0,1,-2
1558434324400404,4,11,4,-2,-1,-5,-9,-3
1558434324400404,-2,-5,-4,-4,-3,-4,4,-1
1558434324407386,-1,-5,6,0,-3,-5,-5,-1
1558434324407386,-1,-5,-11,-7,-1,-1,5,3
1558434324423355,1,2,-1,-3,-3,-1,2,3
1558434324423355,0,2,2,2,-2,-5,-6,2
1558434324430323,1,-1,7,3,1,-3,4,0
1558434324430323,-3,3,1,0,10,9,-4,-6
1558434324445283,-2,-2,-11,0,5,7,4,3
1558434324445283,2,-2,0,-3,2,0,1,1
1558434324453262,0,2,3,0,-6,-5,-5,-2
1558434324453262,-6,-21,-21,-9,-9,-7,-7,-5
1558434324460243,5,11,16,4,-3,-5,-2,-4
1558434324460243,-10,-18,-7,-1,5,8,2,-1
1558434324468222,4,7,10,2,12,9,5,7
1558434324468222,-2,3,0,2,5,1,0,0
1558434324483181,-2,-2,-13,-15,-7,-4,7,-1
1558434324483181,0,7,1,0,-1,-1,-3,-5
1558434324490163,-1,-1,0,2,0,2,0,0
1558434324490163,-1,-3,-3,0,-5,-2,7,3
1558434324505123,-2,0,3,1,-3,-6,-4,-1
1558434324505123,3,7,11,4,3,-2,-3,4
1558434324513102,-3,-6,-9,-7,-5,-3,-2,-4
1558434324513102,3,10,14,7,3,1,-6,-1
1558434324520085,-7,-14,-8,-8,-10,-6,-5,-2
1558434324520085,-2,-5,-9,-4,-1,-3,0,0
1558434324528063,1,2,6,12,2,-1,-4,-1
1558434324528063,-6,-2,-17,-11,-8,-6,-5,-6
1558434324543022,-2,2,7,1,-6,-6,-5,-4
1558434324543022,0,-2,-4,-3,3,2,12,2
1558434324550004,-2,-10,-4,-2,3,-2,-2,-4
1558434324550004,-2,1,4,7,-2,0,-3,-2
1558434324564962,0,0,-2,-7,-4,8,7,-2
1558434324564962,1,6,10,5,0,-2,0,0
1558434324573940,-2,-1,-22,-15,-8,-7,-4,-4
1558434324573940,-1,0,6,2,2,-5,4,4
1558434324579923,0,1,-9,-9,0,-6,-10,-4
1558434324579923,-2,-6,2,-3,-11,-9,-9,-6
1558434324587903,-2,0,-8,-7,-4,1,3,1
1558434324587903,3,4,10,3,5,9,5,4
1558434324602862,4,1,7,14,2,-1,2,5
1558434324602862,4,4,9,7,2,-2,-4,-2
1558434324610840,-6,-7,-15,-6,-4,-4,-10,-5
1558434324610840,-1,-4,-4,-7,-8,-6,-1,-1
1558434324624803,1,2,12,14,11,11,4,4
1558434324624803,-3,-5,-23,-20,-9,-1,4,-1
1558434324633778,1,8,6,5,3,4,3,2
1558434324633778,-4,-11,4,3,2,2,2,-2
1558434324640761,-1,-6,-1,4,6,0,-3,-4
1558434324640761,-1,4,6,3,0,-4,-4,-2
1558434324655731,-5,-3,-16,-13,-4,4,2,-6
1558434324655731,3,3,0,-3,-1,-6,-1,1
1558434324662701,0,-4,-2,4,5,1,0,1
1558434324662701,2,3,2,6,3,2,-2,-1
1558434324670681,-5,-3,3,-2,-7,-5,-3,-2
1558434324670681,-2,1,-9,-2,-4,-6,-7,-7
1558434324685641,-3,-1,-7,-6,4,12,0,-1
1558434324685641,-1,-2,2,-1,0,-1,-1,-3
1558434324693620,3,2,5,1,5,-4,3,2
1558434324693620,-1,-4,4,6,4,4,0,0
1558434324700601,-1,3,0,-2,2,1,-4,-2
1558434324700601,-2,0,-2,-2,-3,1,-7,-4
1558434324715561,-1,-5,-6,-5,-4,0,1,-2
1558434324715561,1,5,1,0,3,5,7,-1
1558434324722543,4,6,6,0,2,-4,4,0
1558434324722543,0,-10,15,18,1,2,6,5
1558434324730521,-6,-7,-16,-11,-3,-5,-3,-4
1558434324730521,-4,-6,2,-5,-13,-12,-6,-1
1558434324745480,-4,-8,-33,-18,-12,-8,-7,-4
1558434324745480,1,4,6,2,1,-1,1,-1
1558434324753460,4,3,23,10,9,7,2,2
1558434324753460,-3,3,-19,-9,-2,2,-5,-3
1558434324767422,-2,-5,7,-2,-5,-4,-2,-1
1558434324767422,0,0,-8,-3,0,-7,-3,-2
1558434324776397,4,0,2,6,6,8,5,0
1558434324776397,-7,-8,2,0,-3,0,0,-3
1558434324782383,4,5,11,7,3,-6,-1,2
1558434324782383,-1,-2,-2,-1,2,1,-6,-1
1558434324790361,0,6,-1,-3,-1,6,2,0
1558434324790361,0,-8,-5,-1,-1,0,-1,-2
1558434324805320,-3,-9,1,-4,0,0,0,3
1558434324805320,1,3,-2,1,-3,-5,-1,-1
1558434324813300,-2,1,-2,2,1,-4,4,1
1558434324813300,-1,3,0,-8,-10,-8,-5,-2
1558434324820280,-3,-3,-3,0,-4,-4,-6,0
1558434324820280,1,1,-2,1,1,11,6,3
1558434324836237,2,0,12,5,4,-1,-6,1
1558434324836237,6,12,17,8,10,6,1,1
1558434324851197,-2,-7,-25,-13,-15,-11,4,-4
1558434324851197,-7,-14,-6,-8,-9,-8,-6,-4
1558434324852196,-3,-1,-2,-4,-10,-9,-11,-6
1558434324852196,0,-1,5,3,5,1,-1,0
1558434324874137,3,7,15,8,4,1,-3,1
1558434324874137,2,11,10,6,5,5,8,0
1558434324875134,-1,-6,-11,-3,-9,-9,-2,-1
1558434324875134,-5,-6,-25,-22,-10,-8,-5,-3
1558434324880120,1,3,-1,-1,3,2,4,0
1558434324880120,-6,-11,-16,-12,6,7,1,-4
1558434324896077,1,7,11,7,5,2,-1,-1
1558434324896077,-5,-11,-1,-1,-7,-5,-6,-4
1558434324911037,-6,-4,-4,3,6,7,0,-1
1558434324911037,5,9,10,3,-3,-3,-2,0
1558434324912035,-1,2,14,8,8,8,7,0
1558434324912035,0,-2,-7,0,1,6,2,0
1558434324926994,-7,-5,-15,-7,-15,-12,-8,-5
1558434324926994,-4,-8,2,0,-1,3,0,-5
1558434324933976,-3,-6,-11,-6,0,-3,-5,-1
1558434324933976,1,1,3,-1,-5,-5,-5,-1
1558434324947937,0,2,15,4,2,2,2,-2
1558434324947937,0,7,-7,4,-1,-4,-2,0
1558434324955917,-6,-16,-16,-18,-8,-5,-1,-1
1558434324955917,2,2,5,3,11,8,4,5
1558434324962898,7,11,12,9,13,11,3,1
1558434324962898,-11,-12,-8,-11,-15,-11,-7,-7
1558434324969879,-2,0,9,8,0,2,-1,-3
1558434324969879,3,0,-5,3,0,-7,4,0
1558434324985837,-1,6,7,-2,0,-7,-4,-3
1558434324985837,1,-6,-3,-2,-1,5,5,3
1558434325000798,-2,-6,-15,-9,-1,2,2,0
1558434325000798,-1,-1,6,-1,-6,-2,-9,-4
1558434325007778,-1,1,-2,0,1,3,5,0
1558434325007778,3,4,6,3,2,-6,-5,0
1558434325015758,0,4,7,4,1,-2,0,3
1558434325015758,2,0,1,4,-3,-4,1,1
1558434325030716,-1,-4,4,-2,-3,3,-3,-2
1558434325030716,-4,-5,-28,-20,-7,-7,-7,-3
1558434325031715,4,5,8,5,9,9,-1,0
1558434325031715,-7,-4,1,0,0,2,1,-2
1558434325045677,-2,-5,-2,0,-5,-3,1,0
1558434325045677,1,5,7,9,7,4,0,2
1558434325053655,0,-3,8,6,-10,-16,-2,-3
1558434325053655,1,0,-11,-7,0,1,-1,-3
1558434325067618,1,-3,7,6,6,5,0,1
1558434325067618,1,1,-9,-8,-7,0,4,1
1558434325075596,-12,-11,-5,-3,-1,0,-7,-3
1558434325075596,2,-1,-3,-1,2,-6,3,1
1558434325090557,-1,1,1,-7,-11,-8,-9,-7
1558434325090557,-4,-6,-7,4,-6,-2,-2,-5
1558434325091554,0,0,12,9,10,6,4,3
1558434325091554,0,4,-6,1,1,0,3,4
1558434325105518,-2,-5,-4,-4,-3,-7,-5,0
1558434325105518,-2,0,0,1,3,-2,-9,-3
1558434325113497,0,-1,-7,-5,-12,-2,-6,-1
1558434325113497,3,6,12,10,3,1,5,2
1558434325127458,0,0,-19,-15,-3,-1,-3,-3
1558434325127458,-1,-3,11,3,0,-3,-6,-1
1558434325136434,1,-3,-13,-4,-2,0,9,1
1558434325136434,2,3,3,5,1,3,0,1
1558434325151429,1,-3,-2,-6,-3,-2,3,0
1558434325151429,-5,-5,-13,-7,-9,-11,-4,-4
1558434325151429,0,0,-2,-2,3,6,0,0
1558434325151429,-4,-3,3,1,1,1,1,-2
1558434325165357,-4,-6,0,5,-4,-5,-2,0
1558434325165357,4,4,14,13,11,7,6,0
1558434325173335,3,3,-8,-11,-3,-5,-3,2
1558434325173335,-1,-2,-3,-2,-1,4,-2,-4
1558434325188312,-10,-13,0,3,1,7,4,1
1558434325188312,-3,0,-11,-12,-2,-2,2,-3
1558434325196339,2,5,24,13,-3,-3,-1,-4
1558434325196339,-2,-6,-23,-14,3,1,-2,2
1558434325211301,-1,4,-1,2,-1,-4,-1,0
1558434325211301,-1,-6,2,0,1,-3,-6,0
1558434325212234,-1,0,0,-3,-1,-2,4,-2
1558434325212234,-3,-2,-5,-13,-9,-2,-3,-4
1558434325225198,4,6,2,8,-2,-5,0,-1
1558434325225198,-1,1,-5,-5,4,10,5,3
1558434325233178,-1,-9,-5,1,-2,-6,-1,0
1558434325233178,1,-2,5,-2,-4,-6,-3,-2
1558434325248136,3,5,11,10,13,5,3,0
1558434325248136,-5,-8,-17,-15,-17,-11,-5,-5
1558434325256155,-3,-2,-4,-11,-5,-3,-11,-6
1558434325256155,0,4,3,10,6,3,-4,0
1558434325271074,1,-1,-15,-16,-6,0,11,6
1558434325271074,-1,-6,9,3,11,4,3,5
1558434325272072,4,6,-3,3,0,5,-8,0
1558434325272072,-13,-12,2,-6,-9,1,3,-3
1558434325285037,1,5,9,12,1,-3,-2,-3
1558434325285037,0,2,0,4,-1,-8,-6,-3
1558434325294030,0,2,-1,3,5,-3,-1,1
1558434325294030,5,8,14,10,2,0,11,5
1558434325307975,-8,-20,-29,-19,-11,1,-10,-6
1558434325307975,3,6,5,6,9,13,3,5
1558434325315957,-1,-4,-1,0,-3,-6,-4,0
1558434325315957,5,7,14,0,4,0,1,1
1558434325330941,-3,-3,-2,2,-5,-12,-4,-6
1558434325330941,1,3,-2,-3,-1,-4,0,0
1558434325331912,-5,-6,-25,-14,-5,-2,1,-4
1558434325331912,-2,-4,2,-2,-5,0,-1,3
1558434325344912,-1,1,4,-3,1,9,6,-3
1558434325344912,0,-3,8,3,-3,-3,-4,-4
1558434325353854,0,5,9,7,0,-7,4,1
1558434325353854,-6,-7,-9,-2,-1,-4,-3,-4
1558434325367842,-2,-4,1,-3,4,4,-4,0
1558434325367842,-2,1,1,2,-7,-8,-3,-3
1558434325375821,-2,-2,-6,-2,-3,-1,-2,-5
1558434325375821,4,1,-9,-9,-10,-8,-6,-3
1558434325398747,5,8,17,7,10,5,5,1
1558434325398747,-4,-7,-21,-3,0,-1,-2,0
1558434325399729,-1,-4,18,8,3,8,-2,-1
1558434325399729,-4,-6,-22,-22,-6,-7,-6,-3
1558434325405713,2,0,-16,-9,-8,-9,-12,-1
1558434325405713,-2,5,0,-4,-4,-2,0,-1
1558434325413718,-3,-12,4,5,4,5,6,1
1558434325413718,-1,1,15,25,16,8,1,-1
1558434325427656,-6,-6,-5,-6,-8,-9,-9,-4
1558434325427656,-2,3,5,1,2,5,1,0
1558434325435635,1,2,1,4,-8,-2,6,3
1558434325435635,1,1,-3,-7,-1,-5,-3,0
1558434325450598,1,1,-2,-3,0,0,-3,1
1558434325450598,-2,-1,5,3,0,4,-1,-1
1558434325451591,0,2,-7,-9,-2,0,-5,-3
1558434325451591,-1,-3,5,2,-8,0,1,0
1558434325465553,0,1,1,6,5,-2,5,3
1558434325465553,3,5,3,1,1,-1,-4,-1
1558434325473532,-6,-8,-20,-15,-11,-7,-2,-5
1558434325473532,-5,-12,-3,-6,-6,-7,-8,-5
1558434325487496,-2,1,7,0,1,2,1,-4
1558434325487496,2,2,24,23,5,9,7,3
1558434325496471,-9,-10,-15,-6,2,-8,-5,-2
1558434325496471,-1,1,-8,-6,-4,-6,3,-3
1558434325511432,0,0,4,3,0,2,5,3
1558434325511432,0,1,1,-4,1,-4,-5,-2
1558434325511432,2,5,-4,-2,-3,0,-3,-1
1558434325511432,-4,-12,-7,-3,-1,-2,-3,0
1558434325527673,-1,-3,0,3,1,-1,0,-1
1558434325527673,-3,-5,-5,-11,-10,0,7,-2
1558434325533431,4,11,12,10,9,0,-4,-1
1558434325533431,2,3,-10,-1,3,1,-4,-2
1558434325547336,-3,-6,-2,-3,-6,-3,2,0
1558434325547336,0,-2,-10,-6,-2,-5,-2,-1
1558434325556312,0,-1,10,0,-4,-1,-2,-2
1558434325556312,-4,-1,1,-2,-2,4,2,-2
1558434325570275,3,1,5,5,7,1,0,1
1558434325570275,-4,-1,-19,-11,-1,-6,-1,-2
1558434325578253,-1,0,-4,-7,-3,-3,1,0
1558434325578253,0,7,10,8,5,9,0,-2
1558434325585234,-6,-8,-12,-11,-5,-4,-13,-9
1558434325585234,3,-1,6,-2,-2,-4,-6,2
1558434325593212,2,2,10,9,-2,-8,0,5
1558434325593212,0,-2,-7,-3,1,2,4,0
1558434325608172,-1,-3,-12,-11,-6,0,-1,-4
1558434325608172,-4,-2,-1,-2,1,4,1,-4
1558434325616151,-3,-1,-2,3,-1,4,-3,-4
1558434325616151,-2,3,-3,0,-6,-9,-6,-2
1558434325630113,1,2,6,2,1,0,0,2
1558434325630113,1,2,-1,6,-7,-13,-5,-1
1558434325638095,0,-3,-3,-5,2,3,4,3
1558434325638095,-2,-3,8,5,0,-4,-3,0
1558434325645073,-3,-6,-2,1,-3,-3,-4,-3
1558434325645073,-5,-6,-3,-4,-1,8,-3,-4
1558434325654282,1,1,5,6,0,-2,-4,1
1558434325654282,-2,2,-3,-3,-4,-5,-8,-2
1558434325668348,4,2,-2,2,2,4,6,3
1558434325668348,0,1,-1,-7,0,-6,-3,-1
1558434325676341,1,1,-2,-3,-1,0,-2,-2
1558434325676341,-1,-5,-2,1,11,12,7,2
1558434325691202,-4,-4,-5,-6,-6,-5,-9,-6
1558434325691202,0,2,4,4,3,10,8,4
1558434325698961,-2,-6,6,3,-1,1,-5,-2
1558434325698961,0,2,-9,-1,-2,-4,5,-2
1558434325705024,5,13,6,7,2,1,2,2
1558434325705024,-3,-7,-15,-12,-4,-6,-7,-3
1558434325713164,-8,-9,-5,-5,3,13,7,-2
1558434325713164,0,-1,6,3,-4,-1,0,-2
1558434325728195,-1,3,9,4,1,-4,-2,-1
1558434325728195,1,5,1,-3,-7,-3,-3,-1
1558434325736181,2,3,-9,-1,3,-2,6,5
1558434325736181,-2,-5,-1,-5,2,-3,0,0
1558434325751199,-1,-5,5,5,3,4,-1,-3
1558434325751199,-4,-6,-3,-1,-4,-4,3,-2
1558434325759121,0,-1,-13,-8,2,3,-2,-2
1558434325759121,3,1,6,12,2,-1,-1,0
1558434325774103,-3,-3,-8,-17,-10,-9,-6,-3
1558434325774103,1,0,8,2,3,10,9,5
1558434325774103,0,0,5,12,-4,-1,-3,-2
1558434325774103,-1,6,9,3,1,-7,-3,-1
1558434325787739,-3,-9,-13,1,0,7,-1,0
1558434325787739,-3,-8,-6,-7,-3,-4,-2,-6
1558434325795700,3,2,5,-1,0,-4,-2,0
1558434325795700,-2,1,1,-3,-8,-5,-8,-2
1558434325810632,0,2,-4,6,15,4,-3,2
1558434325810632,-1,1,-5,-1,-2,-9,-4,-1
1558434325818612,-1,-2,-1,-2,-2,1,4,0
1558434325818612,0,-5,-5,-7,-7,-3,-9,-3
1558434325833820,-1,1,4,3,-5,-5,5,0
1558434325833820,-7,-5,-1,1,5,5,1,-4
1558434325834790,0,4,-2,-8,-9,-9,-8,-4
1558434325834790,0,6,15,5,-4,-1,-10,-3
1558434325847815,-2,-5,-5,1,11,11,13,3
1558434325847815,-3,-10,-6,-4,-4,-10,-7,1
1558434325856766,2,-1,-4,-2,1,4,8,2
1558434325856766,-3,-6,-4,-5,-4,-4,0,1
1558434325870815,1,9,13,3,-5,-5,-6,-4
1558434325870815,-1,-2,2,3,2,1,-1,-5
1558434325878453,-2,0,10,12,3,1,1,0
1558434325878453,1,4,-7,-1,6,9,7,2
1558434325893767,-5,-5,-11,-13,-8,-5,-3,-3
1558434325893767,-2,1,-6,-7,0,-2,-3,-1
1558434325894411,-1,-3,-4,-6,-3,-2,-3,-3
1558434325894411,3,1,2,6,0,0,2,-1
1558434325908557,-4,-7,2,1,-2,-2,-3,1
1558434325908557,4,0,0,-5,-10,-7,-15,2
1558434325916350,0,3,4,7,3,5,8,3
1558434325916350,-4,2,-10,-11,3,-2,0,-1
1558434325930664,1,-2,8,8,-6,-4,1,0
1558434325930664,-1,-7,-19,-8,-5,-4,-1,-3
1558434325939291,-1,3,-2,-8,-7,-9,-10,-2
1558434325939291,-1,3,-3,-6,-5,-1,-2,-2
1558434325954248,-3,-7,-2,1,5,4,-1,-2
1558434325954248,3,8,23,16,6,8,5,1
1558434325954248,-3,-5,-27,-15,-7,-7,-1,-1
1558434325954248,4,2,-3,-7,9,0,3,3
1558434325968495,-3,1,-13,-10,-9,-4,-3,-4
1558434325968495,-4,-5,3,1,1,-3,-2,-2
1558434325976433,-2,-5,-5,-5,3,3,0,-1
1558434325976433,2,-4,4,4,-3,-1,1,3
1558434325990153,-2,2,0,-2,-7,-10,-1,-3
1558434325990153,2,3,12,7,4,4,1,2
1558434325998167,-6,-9,-14,-5,-3,-4,-5,-5
1558434325998167,-1,-4,-6,-2,-7,-4,-1,-2
1558434326013089,2,5,17,9,9,10,-2,-2
1558434326013089,-1,1,-22,-13,-4,-7,-2,-3
1558434326014086,-4,-5,4,-1,2,-1,-1,-2
1558434326014086,-3,-3,-3,-6,-8,-4,-4,-3
1558434326028079,-3,-3,-11,-9,-8,-5,-3,-4
1558434326028079,3,0,12,14,14,8,11,4
1558434326036028,5,2,6,0,-2,-5,-4,2
1558434326036028,0,-2,-9,-4,-3,-4,1,0
1558434326049994,4,10,-8,-3,-9,-7,-2,1
1558434326049994,-8,-12,-8,-4,-1,4,0,-3
1558434326058968,-2,-4,8,4,0,-1,-2,-2
1558434326058968,-4,-7,-5,-1,-5,-3,-10,-4
1558434326073927,5,9,9,1,0,-4,1,3
1558434326073927,-2,0,-8,-2,0,8,2,-1
1558434326073927,-2,-1,8,4,2,6,6,2
1558434326073927,0,2,4,7,4,-5,1,2
1558434326087889,-1,-1,-2,-3,-2,3,-3,0
1558434326087889,-1,3,3,3,2,1,2,1
1558434326095870,-3,-7,-3,-7,-6,-3,-11,-6
1558434326095870,1,4,8,3,0,-1,7,3
1558434326111157,-4,-14,-14,-7,1,1,0,-5
1558434326111157,0,2,13,5,3,5,4,1
1558434326119079,0,4,-13,-8,3,1,-5,1
1558434326119079,-5,-6,-2,-3,-6,-3,-1,-4
1558434326134040,-2,-12,-8,-5,-8,-7,-4,-5
1558434326134040,3,1,-1,0,0,-1,-3,-1
1558434326134912,0,0,1,-1,-5,-3,-2,-2
1558434326134912,-1,-1,3,-2,0,-5,-3,-1
1558434326149723,2,7,24,20,19,16,8,6
1558434326149723,-3,-2,-32,-17,-12,-10,-2,-4
1558434326156801,-2,0,6,4,-1,3,4,-1
1558434326156801,-2,3,-3,-8,-3,-1,-3,-4
1558434326171008,-3,-9,-3,-8,-7,-12,-5,-1
1558434326171008,-3,-2,7,6,-1,-4,-3,-1
1558434326178976,-1,2,-1,3,3,-4,-1,2
1558434326178976,-3,-4,-3,-3,-4,7,-4,-1
1558434326193877,1,2,-2,-4,-5,-2,2,-1
1558434326193877,2,2,3,-1,-4,-3,2,3
1558434326194607,2,2,6,9,7,2,4,2
1558434326194607,1,0,8,7,2,5,0,-3
1558434326208568,-5,-7,-22,-22,-14,-8,-11,-7
1558434326208568,0,-2,-3,5,-1,-2,1,-2
1558434326216547,-1,-4,2,2,-2,-6,-8,-2
1558434326216547,-2,-1,-4,-2,3,2,0,0
1558434326230734,1,4,10,8,0,-5,-4,2
1558434326230734,-1,2,7,-2,-1,-2,2,-4
1558434326238494,3,7,-1,2,1,4,4,2
1558434326238494,-3,-11,-24,-8,6,11,3,-2
1558434326253654,-4,-5,0,0,-2,-4,1,0
1558434326253654,1,2,7,-1,-2,-1,-6,-1
1558434326254455,-1,-2,1,3,-2,-5,-2,-2
1558434326254455,-2,-1,-5,-4,-6,-6,-3,-2
1558434326267415,0,2,-1,-2,3,2,-3,-4
1558434326267415,2,0,3,2,9,6,4,0
1558434326276620,-3,-4,-1,-3,-3,-5,-2,-4
1558434326276620,0,-3,0,-4,-11,-6,0,-1
1558434326290349,1,2,1,3,2,0,3,4
1558434326290349,-3,1,0,3,-3,-5,-5,-2
1558434326306626,5,7,12,6,14,10,4,0
1558434326306626,-3,-2,-10,-8,2,3,0,0
1558434326313618,-8,-7,-4,-8,-8,-3,-9,-7
1558434326313618,-5,-20,-10,-6,-8,-7,-5,-3
1558434326314289,4,1,-2,4,8,4,9,4
1558434326314289,5,8,19,11,3,8,2,3
1558434326328557,-1,3,-5,-1,-4,-4,-4,-4
1558434326328557,-1,6,-20,-16,-6,-6,-1,0
1558434326336540,-12,-21,-5,-7,-11,-4,-6,-9
1558434326336540,-2,1,4,0,-2,-5,-3,-3
1558434326350504,0,-7,4,4,8,5,5,-1
1558434326350504,2,5,2,2,0,-2,-3,-2
1558434326358480,0,-1,-7,-6,-3,0,-4,-1
1558434326358480,-4,-2,-3,-2,-8,-8,-3,-3
1558434326373132,2,3,5,4,4,-1,0,2
1558434326373132,1,2,5,1,-5,-3,1,1
1558434326374123,-3,2,-1,3,10,10,2,0
1558434326374123,-1,-2,6,3,2,3,1,-4
1558434326388406,-1,0,-20,-11,-13,-6,-5,-3
1558434326388406,-3,-4,0,-6,-1,2,1,2
1558434326396385,-3,-8,-11,-5,-9,-11,-1,-1
1558434326396385,1,-1,-1,0,5,4,-2,0
1558434326411178,-3,-6,4,3,-3,0,-1,-8
1558434326411178,-2,2,8,4,-4,0,-9,-5
1558434326419314,4,5,1,6,13,6,7,7
1558434326419314,-5,-8,-15,-11,-1,-6,1,1
1558434326434242,-1,3,0,0,3,6,2,0
1558434326434242,-4,-5,-10,-13,-9,-5,-9,-7
1558434326434242,0,-2,6,0,-5,-4,-5,-6
1558434326434242,-3,0,13,14,2,-11,-9,-3
1558434326447931,6,5,-12,-4,0,-1,7,10
1558434326447931,2,3,6,0,1,3,3,0
1558434326455935,-14,-18,-12,-11,-11,-6,-2,-4
1558434326455935,0,1,-11,-3,-4,-6,1,-1
1558434326469869,2,4,13,5,5,-2,-3,1
1558434326469869,2,-2,-1,-2,1,-3,0,1
1558434326479133,1,4,-5,-6,-7,2,1,-3
1558434326479133,-2,-5,-2,1,-3,1,-1,-4
1558434326493803,-4,-2,-7,-5,-2,-1,-1,-3
1558434326493803,0,3,2,2,8,5,6,0
1558434326495026,-2,-7,-4,-7,-5,-1,-4,-2
1558434326495026,-1,1,11,9,6,2,-3,1
1558434326509762,2,7,4,0,2,5,1,4
1558434326509762,-1,4,6,4,1,-3,0,0
1558434326515747,3,8,7,2,-3,-3,4,0
1558434326515747,1,-3,-17,-7,2,-2,-3,0
1558434326530926,-3,-2,0,0,-1,3,0,-2
1558434326530926,-3,-12,-6,-3,-4,-3,-4,-3
1558434326539894,2,4,8,2,-2,1,-8,-1
1558434326539894,2,6,1,-1,-2,4,4,1
1558434326552923,-1,-4,4,-2,-4,-3,-3,-3
1558434326552923,-3,-3,-8,-4,-6,-1,-4,-5
1558434326561662,-4,-4,22,18,6,2,5,2
1558434326561662,-4,-5,-23,-18,1,4,-1,-4
1558434326567908,-3,-5,-9,-10,-10,-12,-9,-3
1558434326567908,0,6,3,5,8,8,8,5
1558434326576677,0,3,-8,-7,-5,-2,-2,-2
1558434326576677,-2,-5,14,5,3,6,-5,0
1558434326590821,-2,-5,5,13,4,-3,4,2
1558434326590821,-2,-1,-7,-7,-9,-11,-7,0
1558434326599521,4,8,-10,-5,-3,-4,0,2
1558434326599521,-4,-6,3,-1,-6,-4,-5,-3
1558434326612489,-2,-5,-8,-6,6,8,2,0
1558434326612489,-1,0,3,1,-11,-13,-6,-2
1558434326621465,-1,-6,-13,-8,-3,-2,-3,-4
1558434326621465,4,8,10,6,-1,-4,1,2
1558434326628607,-2,-3,5,3,5,5,1,3
1558434326628607,-2,5,-1,-2,-7,1,-2,-6
1558434326636713,3,3,-1,-1,6,3,-4,0
1558434326636713,-2,-4,-8,-4,2,4,10,-1
1558434326650673,-2,1,4,6,3,0,1,-3
1558434326650673,3,0,1,4,4,5,1,4
1558434326659365,-7,-9,0,-2,-1,-1,-2,-1
1558434326659365,2,7,8,1,-3,-2,-1,-2
1558434326672326,1,2,6,2,3,-2,2,0
1558434326672326,-3,-13,-14,0,-2,-1,-1,-2
1558434326681303,-4,-4,-7,-6,-6,-7,-2,-4
1558434326681303,0,-1,3,1,3,1,8,2
1558434326697525,3,5,0,1,-7,-6,-2,4
1558434326697525,-1,-2,5,0,-2,0,-3,0
1558434326698258,-2,-4,-6,-2,-1,7,3,-3
1558434326698258,1,3,-6,-5,1,0,-3,-1
1558434326711291,3,-3,5,4,0,-3,1,1
1558434326711291,-3,-1,-8,-5,1,0,-3,-2
1558434326719499,-3,2,1,-6,-7,-4,6,-3
1558434326719499,-1,-3,-14,-9,-5,-2,-3,0
1558434326733165,-2,-5,-1,1,7,9,6,1
1558434326733165,-3,-1,6,2,1,-1,-4,0
1558434326742140,-2,1,2,5,-4,-5,-6,-6
1558434326742140,-2,0,5,0,-6,-3,-1,-1
1558434326757482,-2,0,-10,-7,-4,0,-1,-1
1558434326757482,3,6,12,7,4,2,1,2
1558434326758099,-3,-2,-12,-14,-8,-9,-5,-1
1558434326758099,-4,-11,5,6,4,1,1,-2
1558434326770447,-6,-5,-10,-5,-5,-2,-9,-5
1558434326770447,-1,0,4,2,1,-2,2,0
1558434326779474,4,5,10,3,3,2,-1,0
1558434326779474,-3,-4,-12,-12,-9,-6,0,-3
1558434326793347,-4,-3,-9,-8,-6,0,-6,-7
1558434326793347,0,2,-2,0,-2,-4,7,-4
1558434326801981,6,7,8,10,9,2,2,7
1558434326801981,-5,-4,0,3,-2,-2,-5,-1
1558434326817344,-2,-3,3,3,-1,0,1,-1
1558434326817344,-3,-5,-10,-8,-4,-4,-7,-5
1558434326817938,0,-4,1,-3,2,5,2,-2
1558434326817938,3,1,8,7,-1,2,-2,2
1558434326831220,1,4,-2,1,4,-7,0,-1
1558434326831220,-3,-5,-9,-4,-2,-4,2,1
1558434326838883,2,4,3,7,1,-3,1,-1
1558434326838883,-2,-3,-12,-8,-10,-8,-11,-8
1558434326853184,-3,-6,-13,-12,0,5,2,1
1558434326853184,1,6,4,5,-1,-1,-4,-2
1558434326861819,-3,-10,-5,-7,-8,-6,-3,-3
1558434326861819,1,-1,4,7,1,2,-1,-2
1558434326876781,4,4,1,0,-3,-13,-10,0
1558434326876781,-4,-9,-1,-4,0,6,14,0
1558434326877777,-1,4,-1,1,-1,2,1,2
1558434326877777,0,2,2,2,9,0,5,1
1558434326891044,2,1,0,-1,-5,1,-3,-1
1558434326891044,-2,-1,-7,-9,-1,2,-2,-3
1558434326898723,-5,-4,0,-1,-3,-2,-4,-4
1558434326898723,-2,-3,-1,-3,-5,-9,-2,-1
1558434326912725,1,1,8,5,-1,-2,2,-3
1558434326912725,2,2,9,10,10,-3,-5,0
1558434326921658,-4,-3,-19,-20,-14,-4,-1,-2
1558434326921658,-3,-11,-9,-4,3,8,-2,-2
1558434326937067,-3,2,0,-2,-4,2,1,-1
1558434326937067,-2,-6,1,2,0,1,1,-1
1558434326938670,-1,-4,1,4,7,5,1,-2
1558434326938670,2,10,8,5,2,-3,-4,1
1558434326951019,-1,-3,0,-3,0,-2,2,-2
1558434326951019,2,1,1,-3,-1,1,-2,2
1558434326959558,5,6,19,13,2,-6,-2,3
1558434326959558,-5,-5,-26,-17,-5,2,4,-1
1558434326973735,4,1,1,1,5,-2,8,1
1558434326973735,-12,-18,-4,-5,-2,2,-5,-4
1558434326981500,1,3,-2,0,-4,-2,-5,0
1558434326981500,1,1,3,0,1,-4,-2,3
1558434326997534,-2,-2,-1,-1,-5,0,-3,-2
1558434326997534,4,4,1,-4,-3,0,2,1
1558434326998455,0,0,7,8,8,8,8,2
1558434326998455,-1,3,-4,-5,-8,-8,-5,-5
1558434327010726,1,2,7,5,4,1,2,-1
1558434327010726,-3,-5,-10,2,2,1,-5,-2
1558434327019397,-5,-14,-9,-16,-5,-1,-5,-1
1558434327019397,3,7,9,9,4,3,4,3
1558434327032362,-1,-4,-4,-6,-11,-4,-7,-3
1558434327032362,4,5,6,3,-4,-5,-1,2
1558434327041339,0,7,4,12,2,-3,-3,0
1558434327041339,0,-3,-7,-2,-1,3,6,0
1558434327056735,-7,-8,-14,-7,-1,1,-1,0
1558434327056735,0,-4,-3,-2,-2,-1,2,-4
1558434327063333,2,5,-2,-4,-4,-4,-6,-2
1558434327063333,2,7,-2,-4,-5,1,0,1
1558434327070590,-11,-17,0,0,0,-6,-4,-2
1558434327070590,2,3,-3,-2,1,5,1,-2
1558434327079238,-4,-5,-8,-7,-8,-8,-6,-6
1558434327079238,4,7,27,23,16,8,4,5
1558434327093203,5,7,-4,-4,-4,5,0,-1
1558434327093203,-2,1,-16,-14,0,-4,-1,-1
1558434327101179,-6,-9,-10,-8,-6,-7,-6,-7
1558434327101179,-5,-9,-4,-5,-6,-5,-6,-7
1558434327116139,4,6,16,10,3,-1,-2,1
1558434327116139,-3,-2,15,9,0,-4,-5,1
1558434327123123,4,6,-12,-10,1,-4,9,7
1558434327123123,-3,-6,-4,-2,-1,1,-3,-3
1558434327130101,-1,-1,-5,-5,-12,-1,0,-4
1558434327130101,-2,-5,4,1,-2,-2,-2,-3
1558434327139077,-1,-5,-2,-2,2,2,0,1
1558434327139077,-4,-3,3,1,4,5,-1,-1
1558434327153239,-2,-4,-2,-3,3,4,0,0
1558434327153239,1,6,-1,-2,-6,-8,-3,-2
1558434327162017,4,5,15,16,-1,1,-3,1
1558434327162017,4,5,-2,0,13,9,11,6
1558434327174982,-1,-6,-26,-20,-11,-4,-5,-3
1558434327174982,-5,-1,11,7,2,3,-2,-3
1558434327184320,-4,-6,-19,-14,-3,-6,-2,-1
1558434327184320,-3,-9,17,8,-7,-8,-11,-2
1558434327190288,3,6,5,6,5,1,5,4
1558434327190288,2,-5,-6,-4,-1,0,2,1
1558434327198919,0,3,8,3,5,3,7,3
1558434327198919,-1,5,-4,-2,-7,-13,-10,-3
1558434327213226,-4,-7,2,3,2,-1,1,1
1558434327213226,-1,2,-1,1,4,6,3,1
1558434327221859,-4,-1,0,-1,-8,2,-7,-6
1558434327221859,-3,-1,-1,-1,-4,-1,2,-1
1558434327236129,-1,1,2,0,-2,-3,-5,-1
1558434327236129,-2,0,-5,0,-5,-5,0,2
1558434327244060,-1,-3,4,1,7,3,-3,-4
1558434327244060,3,2,5,-4,-6,-8,0,-1
1558434327251020,-4,-8,-17,-6,-2,7,3,-3
1558434327251020,2,4,-5,0,1,5,2,-2
1558434327259010,1,2,2,1,1,2,3,1
1558434327259010,-5,-12,-1,-3,-5,-3,-6,-4
1558434327272950,-1,-2,0,0,-2,-8,-1,-1
1558434327272950,3,2,1,2,0,-9,-1,2
1558434327282018,-2,4,-1,0,-4,0,0,-1
1558434327282018,-4,-3,3,5,2,4,0,-5
1558434327296047,-2,1,-9,-3,0,-4,-8,-1
1558434327296047,-2,-7,0,0,-4,-2,-2,-3
1558434327303958,2,0,-9,1,-2,-4,-2,0
1558434327303958,1,0,-3,-9,1,-2,2,8
1558434327309944,-2,2,4,-1,4,0,-6,-5
1558434327309944,1,6,10,10,5,5,1,-1
1558434327319181,-2,-6,-13,-13,-3,4,-2,1
1558434327319181,1,0,-13,-3,-7,-3,0,-1
1558434327332881,-3,1,4,-1,4,-1,2,3
1558434327332881,-1,0,3,1,6,4,-1,-2
1558434327341858,-3,-4,1,4,-3,-3,-10,-3
1558434327341858,-2,-1,-5,1,4,3,13,3
1558434327355970,3,8,3,-2,-3,-6,2,0
1558434327355970,-4,-7,-5,-6,-8,-9,-9,-5
1558434327364137,-2,-10,1,1,2,5,-4,-1
1558434327364137,0,2,-13,-11,-6,-3,0,1
1558434327370812,3,-2,11,9,3,-2,0,1
1558434327370812,-1,3,-7,-9,-8,-2,1,0
1558434327379064,-6,-4,-6,-2,-1,-6,-5,-6
1558434327379064,-3,-5,1,5,1,-1,-3,-4
1558434327393005,1,1,4,0,-2,-7,0,2
1558434327393005,0,-4,-12,-8,-9,-11,-3,0
1558434327402058,0,2,8,7,7,6,5,5
1558434327402058,-4,1,5,-3,-7,0,-7,-8
1558434327415017,-4,-7,-9,-3,-6,-3,-2,-1
1558434327415017,-2,5,9,6,7,6,8,1
1558434327424265,5,4,1,0,-3,-10,-5,0
1558434327424265,0,-10,-14,-5,3,0,4,0
1558434327431096,-2,0,1,2,-2,0,-5,-5
1558434327431096,-7,-5,-9,-13,-2,10,6,-5
1558434327439174,-2,-2,0,-2,-2,-3,-1,0
1558434327439174,-1,-4,0,4,-3,-2,-4,-3
1558434327453175,1,-1,4,3,9,2,-1,0
1558434327453175,4,7,11,11,2,-2,-3,3
1558434327461897,-2,0,-3,-8,-4,0,2,0
1558434327461897,-6,-13,-14,-11,-2,-6,-9,-4
1558434327476076,0,3,3,-1,-7,-4,6,-3
1558434327476076,4,6,1,1,3,-1,-4,1
1558434327484101,-1,-1,8,7,6,6,6,1
1558434327484101,1,1,5,5,2,4,2,3
1558434327489817,-1,-3,8,8,-1,1,-5,-4
1558434327489817,1,-1,-24,-18,-6,0,0,-1
1558434327498798,-2,-1,-7,-6,-5,0,-6,-4
1558434327498798,-4,-4,3,0,0,-2,-8,-1
1558434327512785,2,5,12,8,7,4,8,6
1558434327512785,-2,-3,-4,-3,-2,-5,-1,2
1558434327521731,0,0,4,8,4,-2,-1,-3
1558434327521731,-3,1,-7,-10,-5,-2,-2,-2
1558434327536021,-3,-6,4,0,3,6,4,-1
1558434327536021,-4,-10,-16,-9,-3,-4,-3,-2
1558434327544025,2,3,4,-2,-5,-2,-3,2
1558434327544025,3,14,0,1,2,-1,13,7
1558434327551034,-6,-4,-3,0,-5,-5,-19,-3
1558434327551034,-4,-9,0,-1,0,1,4,-1
1558434327559734,2,0,0,-4,-4,-11,-1,-3
1558434327559734,1,4,8,1,-5,3,0,-4
1558434327572946,-5,-12,-22,-12,-14,-16,-4,-2
1558434327572946,-2,3,21,14,9,6,4,-2
1558434327581572,-2,2,-13,-8,-8,-4,0,-2
1558434327581572,0,-9,4,2,0,1,-6,-3
1558434327595886,0,7,-1,0,10,9,5,1
1558434327595886,1,1,13,4,-2,-3,-2,1
1558434327604541,-3,-3,-17,-2,5,5,-2,-2
1558434327604541,0,1,-2,3,1,0,5,-1
1558434327610836,-2,-4,-8,-6,-2,1,-2,-3
1558434327610836,2,5,4,3,-3,-4,-5,-1
1558434327619471,-2,2,9,4,-8,-8,-8,1
1558434327619471,0,-4,-11,-10,0,-4,-3,0
1558434327633687,2,-2,-1,0,1,0,9,1
1558434327633687,0,2,2,-3,0,-2,-6,-3
1558434327641755,-3,-5,-6,-1,-1,3,1,0
1558434327641755,-1,0,6,2,0,0,-4,0
1558434327655949,6,13,9,8,2,4,1,2
1558434327655949,-11,-23,-21,-10,-2,-6,-8,-6
1558434327664059,2,-1,15,5,1,2,9,2
1558434327664059,-3,-4,-24,-16,-5,-6,-2,-6
1558434327679875,-3,-2,1,-2,1,3,-5,-6
1558434327679875,5,8,5,10,6,-3,7,2
1558434327680736,-4,-8,-6,-11,-6,3,-2,-2
1558434327680736,1,8,15,8,4,1,-4,1
1558434327692700,1,8,2,2,1,1,4,-1
1558434327692700,-15,-18,-15,-9,-6,-7,-13,-9
1558434327701759,0,-1,1,-1,0,5,7,-1
1558434327701759,3,-2,6,4,-1,-2,1,3
1558434327715639,-1,-1,-2,-1,-3,-2,-9,-2
1558434327715639,4,5,6,2,5,10,9,4
1558434327724617,-7,-6,0,2,-1,0,2,-3
1558434327724617,-3,-3,-9,-8,-8,-9,-9,-7
1558434327739573,1,3,6,5,11,2,7,5
1558434327739573,-1,-4,-9,-7,-9,-4,-2,1
1558434327740885,-2,-3,-3,0,2,3,0,-1
1558434327740885,1,7,20,12,1,0,-1,0
1558434327752979,-3,-8,-17,-9,-5,-4,-2,1
1558434327752979,4,8,2,-3,1,3,-2,-2
1558434327761809,0,4,-7,-10,0,0,-7,-3
1558434327761809,-6,-20,-6,-2,-2,-4,2,2
1558434327775803,-4,-5,-1,0,-5,1,-2,-2
1558434327775803,0,1,-1,-2,-5,-4,-7,-1
1558434327784456,3,5,3,5,3,-1,-1,-1
1558434327784456,1,2,2,-2,2,1,-2,0
1558434327799574,7,5,9,1,4,-8,6,3
1558434327799574,-3,3,5,12,-7,1,-13,-6
1558434327800588,-3,-14,-39,-28,-16,-15,-7,-3
1558434327800588,-3,0,1,-1,2,2,6,-1
1558434327813602,-3,-1,7,2,6,5,1,0
1558434327813602,2,6,7,1,3,-4,-6,0
1558434327821441,-1,-1,9,6,0,1,0,1
1558434327821441,-1,0,-4,0,-1,3,-4,-1
1558434327835631,-2,-1,3,3,-5,-3,-3,1
1558434327835631,1,1,10,5,5,6,6,1
1558434327850310,-3,-5,-14,-6,10,12,7,2
1558434327850310,3,2,3,0,3,6,4,-1
1558434327859583,-4,0,3,-1,-4,-7,-6,-4
1558434327859583,-2,-12,-11,-6,-7,-9,-3,-1
1558434327861280,0,3,9,4,-3,-3,-8,-3
1558434327861280,0,1,-1,1,0,1,9,0
1558434327873544,-5,-2,-7,-5,-3,3,-6,-12
1558434327873544,0,3,21,20,6,3,6,5
1558434327882193,1,2,-18,-20,-6,-7,2,-1
1558434327882193,-4,-3,-7,-9,-9,-6,-6,-4
1558434327895160,-1,-6,-3,1,0,-6,-6,1
1558434327895160,1,-1,-19,-11,-1,7,5,1
1558434327904133,-8,-5,23,19,6,-1,-3,-3
1558434327904133,-1,3,4,3,-3,-3,-7,-3
1558434327919449,-5,-10,-16,-15,-17,-11,-6,-3
1558434327919449,2,0,13,10,8,8,1,4
1558434327920092,5,6,-11,0,7,10,19,7
1558434327920092,-6,-6,-14,-8,-6,-7,-8,-6
1558434327933056,0,-4,1,-3,-8,-1,-4,-1
1558434327933056,0,-1,-5,-6,-3,-6,4,-1
1558434327942033,4,3,14,14,2,0,-3,-1
1558434327942033,-1,4,1,0,-2,-4,-4,1
1558434327956271,1,1,-2,-6,-6,-7,-1,-2
1558434327956271,-5,-2,-8,-1,-1,1,-4,-4
1558434327964425,-10,-18,-8,-9,-5,-3,-5,-4
1558434327964425,2,-1,2,4,-1,-5,-3,0
1558434327979339,-2,-1,1,3,0,-4,3,4
1558434327979339,0,0,-1,-9,-3,-5,-3,-5
1558434327980928,1,4,-2,-2,-1,-3,-3,-5
1558434327980928,0,1,2,5,3,0,2,2
1558434327993245,-2,-1,-1,2,10,13,4,-1
1558434327993245,1,5,9,1,-3,-9,-1,0
1558434328001872,0,3,-4,-4,0,2,2,0
1558434328001872,-11,-11,-15,-12,-10,-3,-3,-2
1558434328014837,4,7,-1,-7,0,5,-1,-2
1558434328014837,-2,-8,-5,-5,-3,0,2,-1
1558434328024927,-1,-2,7,0,-7,-5,-11,-6
1558434328024927,5,6,17,19,11,6,9,7
1558434328054762,-4,-6,-21,-15,0,2,0,-5
1558434328054762,-1,-6,-8,-3,-3,-2,-2,-2
1558434328056728,3,1,-4,-5,-6,-11,-8,-3
1558434328056728,5,9,6,4,9,10,5,0
1558434328056728,-3,5,-1,-5,-8,-10,-8,0
1558434328056728,-5,-14,-1,-1,1,1,-3,0
1558434328061768,-4,-1,1,8,6,2,-4,0
1558434328061768,2,0,5,-1,5,-1,3,-1
1558434328075948,1,1,11,6,-4,-1,2,-1
1558434328075948,-3,-6,-26,-19,-10,-7,-6,-6
1558434328084652,2,3,4,-1,-5,-3,-2,-1
1558434328084652,1,0,1,-2,-2,3,-1,-2
1558434328099612,0,-3,1,4,4,-2,4,4
1558434328099612,-1,8,12,8,1,0,2,-1
1558434328100608,-2,-6,-9,-3,-1,-3,0,-2
1558434328100608,4,5,0,-4,-6,-7,-5,-2
1558434328112576,-1,-6,-4,-3,3,5,0,-1
1558434328112576,-9,-11,-6,-3,-5,1,-1,-6
1558434328121553,1,1,3,6,8,2,0,4
1558434328121553,-1,1,0,-1,-6,-3,3,-1
1558434328136009,-2,-2,4,3,-5,-4,4,-1
1558434328136009,5,14,-4,-8,0,0,-1,1
1558434328144490,2,8,2,-1,1,-5,-2,3
1558434328144490,-9,-26,-5,5,-1,-2,2,0
1558434328159449,0,-4,-5,-1,4,6,4,-1
1558434328159449,-3,-1,5,12,4,0,0,0
1558434328160447,-1,1,-7,-13,-10,-6,1,-1
1558434328160447,0,1,-9,-7,-1,-1,-7,-3
1558434328172416,0,2,1,2,-3,-2,-3,-3
1558434328172416,3,2,6,1,5,1,-10,-1
1558434328181391,0,-8,4,5,-8,-4,3,1
1558434328181391,-2,4,1,-2,0,-1,-4,-3
1558434328195353,-2,-10,7,8,7,6,2,0
1558434328195353,-2,-1,-18,-10,-3,2,0,-1
1558434328204330,-4,-2,5,-1,1,0,0,-3
1558434328204330,-2,6,4,3,2,3,-3,-1
1558434328219727,0,0,-8,-1,-9,-10,-2,1
1558434328219727,3,2,8,2,2,-3,-7,-1
1558434328220289,0,3,11,7,0,-3,-4,-2
1558434328220289,-4,-3,-13,-8,-2,2,3,-1
1558434328233592,-6,-4,-10,-10,-1,-4,-8,-5
1558434328233592,-3,-9,2,1,-5,-1,-1,-3
1558434328247566,3,0,-8,-5,0,7,0,2
1558434328247566,6,6,8,2,0,-6,-9,1
1558434328255519,-1,0,-6,-2,-6,0,1,1
1558434328255519,3,1,0,4,8,-1,0,6
1558434328264210,1,8,13,12,5,7,1,1
1558434328264210,-5,-9,-21,-17,-6,7,1,-2
1558434328279468,0,-1,-1,-5,-2,-12,-4,-2
1558434328279468,-1,1,-1,4,-1,-2,-1,-2
1558434328280130,-2,-1,4,-1,-5,0,-9,-3
1558434328280130,-2,-3,0,4,10,19,19,5
1558434328293394,1,-1,-8,-8,-3,-7,-5,-2
1558434328293394,0,2,-2,-4,-4,-2,5,-4
1558434328302070,-2,-6,2,1,0,-7,-3,-4
1558434328302070,-1,0,0,-2,-9,-7,-10,-8
1558434328315034,1,2,4,3,4,7,2,2
1558434328315034,-2,-8,-5,-7,-1,-4,-5,1
1558434328324016,-8,-9,-6,2,1,-2,2,1
1558434328324016,-1,-6,-1,-5,-4,-3,-3,-2
1558434328339009,4,9,11,10,3,2,-4,0
1558434328339009,3,7,4,-2,-4,1,3,1
1558434328341006,-2,-9,-20,-20,-6,-3,1,-1
1558434328341006,4,9,25,23,7,-1,0,1
1558434328352966,-4,-11,-21,-22,-9,-3,-11,-3
1558434328352966,-1,1,-8,-4,-6,-7,4,1
1558434328361910,1,0,11,6,5,5,1,0
1558434328361910,-4,-1,-2,-1,1,-6,4,-2
1558434328374875,1,3,3,3,3,5,-2,0
1558434328374875,-2,-6,-11,-7,-1,3,0,-2
1558434328383850,2,3,7,5,-1,-4,8,2
1558434328383850,2,1,-13,-9,2,-6,-7,0
1558434328398811,-3,1,17,16,6,2,-1,0
1558434328398811,-1,2,-10,-14,-2,4,3,-1
1558434328405168,-4,-3,0,-1,2,3,-5,-3
1558434328405168,-6,-19,-16,-3,-4,-8,-7,-3
1558434328413148,0,-1,-1,-10,-4,-2,2,0
1558434328413148,2,5,8,11,1,-2,0,2
1558434328421806,0,0,-9,-7,-3,-1,-8,-5
1558434328421806,-5,-6,5,1,-4,-5,2,0
1558434328436090,0,-6,-3,4,4,-4,0,0
1558434328436090,-4,0,7,3,-3,1,-5,-3
1558434328444689,0,0,-8,-4,-8,-7,-4,-4
1558434328444689,1,5,3,2,2,7,0,4
1558434328458987,-1,6,9,6,8,4,4,1
1558434328458987,0,-5,-13,-5,-4,-8,2,-1
1558434328465633,-1,-6,-7,-6,-5,4,0,-3
1558434328465633,-2,-3,-4,-12,-8,-3,-5,-2
1558434328472891,3,6,7,10,-8,-6,0,-1
1558434328472891,-2,-5,1,-3,7,5,0,0
1558434328481944,0,3,-9,5,7,5,4,3
1558434328481944,-4,1,-9,-7,-4,0,3,-1
1558434328496049,0,-4,19,12,4,3,-4,-4
1558434328496049,-2,-1,-21,-15,-11,-13,-2,-2
1558434328504094,1,7,11,8,-1,-1,1,-2
1558434328504094,-1,-8,-9,-4,3,1,-6,0
1558434328518870,0,0,-4,-2,-4,-5,1,3
1558434328518870,-1,-4,-1,-3,-5,-4,-8,-3
1558434328524824,1,8,2,-1,3,1,3,0
1558434328524824,4,7,1,-1,-5,-1,0,-1
1558434328532833,-4,-5,-5,-1,-2,4,5,1
1558434328532833,0,-1,2,3,-6,-9,-2,-1
1558434328541780,1,3,5,2,8,4,5,0
1558434328541780,-3,-6,0,-1,-4,-4,2,-8
1558434328555802,-2,-2,-16,-16,-6,-1,-1,-1
1558434328555802,2,4,10,13,10,10,2,1
1558434328563726,-4,-7,-9,-12,-17,-11,-5,-1
1558434328563726,-1,-4,2,0,2,-3,-5,-2
1558434328578742,-1,2,5,10,10,9,3,4
1558434328578742,0,-1,3,-3,-5,0,2,-1
1558434328586160,1,-6,-11,-4,-4,-4,-7,0
1558434328586160,-2,3,-7,-11,2,0,-6,-5
1558434328602112,-2,-1,5,5,-5,-3,1,-2
1558434328602112,-3,-5,3,3,4,1,-1,1
1558434328602617,3,-1,7,4,0,-2,0,2
1558434328602617,4,9,7,2,-7,1,-5,-4
1558434328615585,-7,-13,-10,-8,-2,-2,-1,-2
1558434328615585,-3,3,0,3,7,0,4,3
1558434328625017,0,-2,8,9,4,0,1,3
1558434328625017,0,0,-14,-4,-2,-5,-3,1
1558434328638521,-2,-1,-5,-10,-9,-2,-5,-5
1558434328638521,-3,-4,-4,-2,-7,-8,-8,-6
1558434328645853,-1,2,8,5,8,7,4,2
1558434328645853,-1,-3,5,6,-3,2,4,2
1558434328661764,-4,-2,-10,-8,2,2,0,-7
1558434328661764,-4,-13,-15,-2,-3,3,8,-1
1558434328663456,-1,-3,4,-1,-1,-6,-5,-5
1558434328663456,-1,2,5,6,9,4,1,-2
1558434328675698,-1,1,-2,3,5,1,-3,0
1558434328675698,-1,1,2,-6,-9,-8,-10,-3
1558434328690670,-2,2,1,3,0,-4,0,1
1558434328690670,2,3,8,3,3,6,0,2
1558434328698364,-1,-5,-12,-2,-4,-2,0,1
1558434328698364,-2,2,3,-10,-5,-8,-9,-4
1558434328705343,-1,-10,-13,-2,1,6,2,1
1558434328705343,-1,5,7,-1,-7,-8,-2,-1
1558434328721300,-2,-6,-1,3,-3,-4,-1,-1
1558434328721300,3,3,4,4,-1,10,2,0
1558434328723323,-4,0,-17,-18,-6,-6,-1,-7
1558434328723323,0,-3,6,12,1,-10,1,0
1558434328735262,1,2,-9,-8,0,4,-3,-1
1558434328735262,-3,1,1,2,-3,5,2,2
1558434328744238,-2,-1,7,5,2,2,-5,-1
1558434328744238,2,-5,-3,-5,0,-5,-4,1
1558434328758226,-1,0,-4,-4,-2,-3,3,1
1558434328758226,0,-4,13,4,-3,-2,-5,-1
1558434328765182,3,3,-14,-1,0,-3,-5,1
1558434328765182,0,0,9,-4,-8,1,8,2
1558434328782140,1,2,-8,6,10,-6,4,2
1558434328782140,-1,2,-5,-6,0,2,2,-1
1558434328783136,-3,-6,-1,1,-12,-5,-5,-7
1558434328783136,-5,-4,-2,-2,0,5,3,-3
1558434328795102,3,-4,-1,-4,1,0,-2,1
1558434328795102,3,8,9,10,13,2,-1,2
1558434328804357,2,6,-3,-7,-5,-4,-1,1
1558434328804357,-10,-19,-6,-1,-5,-3,-8,-1
1558434328819265,-2,1,4,-4,-5,1,0,-2
1558434328819265,-1,0,-7,-1,10,10,7,2
1558434328825390,0,3,5,2,-4,-5,-1,-3
1558434328825390,-1,-3,-3,-3,-3,-8,-4,0
1558434328841977,-4,-8,-13,-12,-9,-1,-6,-3
1558434328841977,1,-2,8,7,-6,-7,-3,-1
1558434328842975,-1,-2,-7,-5,13,16,14,3
1558434328842975,0,6,-2,1,2,3,2,-3
1558434328854943,-2,-8,6,1,-3,-8,-12,-3
1558434328854943,-2,0,-11,-6,-3,-3,1,-2
1558434328863919,-5,-7,0,-4,-5,0,-5,-2
1558434328863919,1,3,-3,4,0,-5,-4,-3
1558434328879097,3,5,1,-1,5,1,5,3
1558434328879097,0,1,4,2,3,4,1,1
1558434328886016,0,-3,10,4,-2,-5,-3,-2
1558434328886016,-2,7,-9,-10,-6,-3,-2,-4
1558434328901819,-2,-1,0,2,0,-3,-1,-1
1558434328901819,-5,-16,0,-2,0,0,-2,-2
1558434328902814,-1,-3,0,-2,-5,-1,0,1
1558434328902814,5,6,-12,-6,-1,-2,-5,-1
1558434328915779,5,7,11,6,7,4,5,2
1558434328915779,-6,-9,-12,-4,4,1,-2,-3
1558434328923760,-1,-2,0,3,-5,-6,-11,0
1558434328923760,0,-1,5,-2,-9,-10,-1,0
1558434328938718,1,5,1,-2,1,4,5,0
1558434328938718,-2,-1,-5,3,2,2,0,-1
1558434328945699,2,7,12,7,5,2,3,2
1558434328945699,-7,-13,-23,-12,-1,-1,2,1
1558434328961659,-2,-5,-4,-3,-5,-2,0,-2
1558434328961659,-1,0,0,-6,-6,-9,-8,-4
1558434328962656,-4,-3,-2,-2,-2,-5,2,-5
1558434328962656,0,3,8,7,5,4,-4,-1
1558434328975619,0,-1,-6,-7,-8,-2,-1,-3
1558434328975619,3,5,2,4,5,-3,4,4
1558434328984595,-5,-6,9,5,0,-2,-11,-1
1558434328984595,1,-3,-17,-11,3,11,15,4
1558434328998561,-1,0,-2,-2,-3,-3,-2,-3
1558434328998561,4,6,2,0,-5,0,-2,0
1558434329005541,-3,-11,-4,3,-1,-9,3,2
1558434329005541,-5,-3,7,5,4,2,-6,-5
1558434329021496,1,12,35,21,15,20,3,0
1558434329021496,-9,-16,-48,-30,-18,-14,-6,-5
1558434329023491,4,2,-6,-4,10,4,7,2
1558434329023491,-3,-4,1,-5,-5,2,-3,-4
1558434329035463,0,2,9,6,-4,-8,-3,-1
1558434329035463,-1,4,5,-4,-5,-3,-5,-5
1558434329044436,2,4,-5,-1,3,3,-4,-3
1558434329044436,2,-5,8,4,4,-6,-4,1
1558434329058397,-3,-9,-20,-8,-6,-4,-2,-1
1558434329058397,2,4,16,6,1,4,-1,1
1558434329065380,-3,5,-12,-7,-8,-1,-1,-1
1558434329065380,6,9,22,14,8,6,8,6
1558434329081346,-5,-11,-18,-14,-4,-3,-1,-2
1558434329081346,-2,3,11,9,-2,-11,-4,-1
1558434329083330,3,2,-16,-13,0,-2,-9,0
1558434329083330,-2,-1,10,7,2,-3,-6,1
1558434329095505,-2,2,-3,-4,-10,-7,-6,-3
1558434329095505,-1,-3,-3,-2,2,-2,0,-2
1558434329104279,3,6,11,1,-6,-3,4,-2
1558434329104279,2,10,2,-2,-1,-2,2,-4
1558434329118272,-7,-18,-10,0,2,1,5,0
1558434329118272,0,-2,-5,-9,-3,3,-1,-2
1558434329126218,0,-2,5,8,5,6,-1,1
1558434329126218,-1,-2,-13,-9,-6,-4,-4,-2
1558434329141176,0,-2,11,0,1,-1,-4,-1
1558434329141176,-1,-4,-3,7,-2,-2,-5,-2
1558434329143171,-5,-8,2,6,4,7,5,-1
1558434329143171,-2,-4,-17,-12,-4,1,1,-2
1558434329155404,1,8,4,4,-2,-9,-5,0
1558434329155404,5,10,32,18,8,7,2,3
1558434329164123,-10,-20,-51,-29,-10,-15,-3,-3
1558434329164123,0,-4,-2,2,-4,-1,1,-3
1558434329178078,1,7,0,0,-3,1,0,-1
1558434329178078,4,8,1,-2,-2,-1,0,3
1558434329187055,-9,-6,19,15,7,5,3,-2
1558434329187055,-5,-9,-9,-6,3,-1,0,2
1558434329202013,-1,-4,-11,-4,-6,-5,-11,-3
1558434329202013,-1,11,-5,-11,-5,-2,2,-3
1558434329203020,4,2,8,4,-1,-4,-1,3
1558434329203020,-1,-6,8,6,4,6,-1,0
1558434329214984,0,-4,-4,-4,0,4,1,-4
1558434329214984,-3,-7,3,5,-2,-3,-2,-3
1558434329223955,-2,-2,-15,-13,-14,-8,-7,-6
1558434329223955,1,8,11,6,-5,-7,-4,-3
1558434329237968,2,4,-6,-4,7,8,5,5
1558434329237968,-2,-8,-15,-4,-3,-6,0,1
1558434329246894,-4,-2,4,0,0,-2,0,1
1558434329246894,2,-1,0,3,1,-1,-2,-1
1558434329261853,1,5,2,-2,-3,-1,-2,0
1558434329261853,1,-2,0,3,2,3,0,1
1558434329262850,-1,-6,-2,-3,1,7,2,-1
1558434329262850,-1,0,-5,-6,-2,-1,-1,-4
1558434329274819,0,-3,4,1,2,-3,2,-1
1558434329274819,2,2,2,0,0,0,-1,0
1558434329283988,3,10,-5,0,0,0,-1,-1
1558434329283988,-5,-13,3,2,0,1,-1,-1
1558434329297765,-5,-3,-3,-2,-8,-8,-5,-4
1558434329297765,-2,-10,-11,-10,0,0,-1,-1
1558434329306735,-1,5,12,6,0,2,0,-2
1558434329306735,2,4,-6,-1,-1,0,-2,0
1558434329320705,-2,-6,-5,3,-2,-3,1,-2
1558434329320705,-3,-6,-3,-5,0,4,2,-2
1558434329327677,-1,-1,0,-1,-4,-7,-3,-1
1558434329327677,3,5,4,2,1,0,-3,1
1558434329335658,-10,-4,5,3,2,3,-2,-1
1558434329335658,-2,-5,-2,1,1,1,-2,1
1558434329351613,2,1,1,-3,1,1,3,0
1558434329351613,-4,-9,-1,-4,-1,-1,0,0
1558434329357597,4,6,1,2,-3,-5,-4,-3
1558434329357597,0,-2,-7,-1,-1,-2,2,-3
1558434329366573,-1,1,2,-2,4,0,-1,-1
1558434329366573,-4,-10,1,-2,-5,-5,-6,-1
1558434329380538,0,-3,-12,-9,-3,-6,5,4
1558434329380538,-3,5,12,3,3,3,0,-1
1558434329387516,-1,-6,-14,0,-1,2,-2,-3
1558434329387516,-4,3,-5,-2,-1,-1,-2,-1
1558434329395560,1,-1,6,1,-2,-3,-3,-1
1558434329395560,-3,-2,0,2,-1,-3,-1,2
1558434329404472,4,8,11,7,2,0,-1,2
1558434329404472,0,4,0,-1,1,0,1,-2
1558434329417438,-1,-5,-4,-8,-3,-3,1,-2
1558434329417438,1,1,2,1,-5,-4,-5,-3
1558434329426411,-2,2,-1,1,0,2,-4,-2
1558434329426411,-4,-10,-1,9,6,6,9,3
1558434329441389,5,5,2,4,-2,-1,-1,3
1558434329441389,-2,-6,-4,-8,2,2,-4,-2
1558434329447357,1,0,8,1,-5,-4,0,-4
1558434329447357,2,9,-14,-15,-11,-8,-7,-3
1558434329455336,1,1,10,5,1,5,-1,-2
1558434329455336,-4,-12,-3,9,6,0,2,-2
1558434329464311,-2,-4,-11,-11,-7,-6,-3,0
1558434329464311,-3,5,13,5,2,3,4,-1
1558434329477276,1,0,-1,2,0,0,-1,1
1558434329477276,0,-3,-16,-14,-10,-5,-2,-1
1558434329486253,3,1,7,1,2,0,0,1
1558434329486253,-8,-9,-3,0,-4,-5,-1,0
1558434329501508,0,1,1,4,8,4,5,1
1558434329501508,3,10,30,14,7,0,1,1
1558434329508195,-3,-10,-35,-22,-6,0,0,-2
1558434329508195,-3,-12,-5,-1,-8,-4,-6,-3
1558434329524152,-2,-7,-13,-11,-7,-4,-6,-4
1558434329524152,0,8,10,0,0,-1,1,-1
1558434329525149,-1,-2,11,18,2,4,3,2
1558434329525149,-3,-2,-29,-19,-9,-7,-7,-6
1558434329538543,-4,-8,9,2,0,0,-3,-7
1558434329538543,0,1,-14,-8,-3,2,2,1
1558434329547090,2,1,17,10,1,-3,-2,-1
1558434329547090,2,-1,2,3,2,5,-1,0
1558434329561054,-1,1,-4,-4,-6,-7,-3,2
1558434329561054,-3,-7,6,3,-5,-3,-3,-3
1558434329568034,3,3,2,0,5,5,-1,1
1558434329568034,4,7,2,2,3,-2,1,1
1558434329583993,-3,1,-6,-4,0,4,2,-3
1558434329583993,-7,-13,-16,-14,-13,-5,-3,-3
1558434329584988,-3,-8,-4,-7,-2,-3,-3,-4
1558434329584988,3,0,6,-1,-2,-4,1,1
1558434329597954,3,2,13,11,6,2,-1,1
1558434329597954,1,1,-4,1,2,1,0,3
1558434329606932,2,3,3,0,0,1,0,-3
1558434329606932,-2,0,1,1,-1,-3,1,-1
1558434329620952,1,8,13,15,4,3,0,-1
1558434329620952,-5,-18,-41,-32,-15,-9,-7,-6
1558434329627895,-7,-14,-20,-6,-3,-6,-3,-1
1558434329627895,3,9,9,2,1,1,-2,-1
1558434329644829,-2,-7,-1,2,4,2,2,3
1558434329644829,0,13,10,6,3,-3,0,-4
1558434329645826,-2,4,10,2,-1,-2,-2,1
1558434329645826,3,-1,6,2,2,0,0,-1
1558434329657948,1,4,-2,-1,2,1,-1,-2
1558434329657948,2,-3,-9,0,0,3,2,-2
1558434329666771,-8,-6,-7,-11,-3,-4,-5,-2
1558434329666771,-1,0,0,1,1,1,1,0
1558434329680731,-1,-2,9,0,-2,-4,1,-2
1558434329680731,-3,-6,7,9,3,-1,0,-1
1558434329687944,5,2,-4,-4,1,4,0,1
1558434329687944,-6,0,1,3,-2,1,-5,-4
1558434329704669,-7,-4,-6,-13,-7,-5,-6,-5
1558434329704669,-5,-4,-18,-1,2,3,-1,-1
1558434329705668,2,6,-3,-3,-4,-3,0,0
1558434329705668,1,5,3,0,2,-1,2,2
1558434329717634,-2,-12,-9,-3,-5,-3,-1,0
1558434329717634,-1,0,6,5,-1,-2,-2,-1
1558434329726612,0,-1,14,10,3,4,0,-3
1558434329726612,1,5,-13,-6,-2,-1,0,1
1558434329740573,0,2,-6,-6,-3,-3,1,3
1558434329740573,-5,-2,12,10,4,3,-1,-3
1558434329747553,-1,-4,-16,-15,-4,-2,-2,-3
1558434329747553,-2,-6,5,-1,0,0,-1,0
1558434329764510,2,-2,-5,0,-4,-5,-3,0
1558434329764510,5,8,16,0,1,1,0,1
1558434329765507,-6,-5,-11,-1,0,0,1,-1
1558434329765507,2,2,5,2,-1,-2,-2,-2
1558434329777475,-3,-3,-6,2,1,2,0,-1
1558434329777475,2,3,4,-6,-2,-3,0,2
1558434329786450,0,2,3,3,-3,-3,0,0
1558434329786450,0,-4,-11,-6,-3,-1,-5,-4
1558434329800412,-2,-1,2,2,0,-1,-2,-3
1558434329800412,-3,-9,-10,-6,2,-1,1,1
1558434329807393,-3,-4,8,7,0,0,2,0
1558434329807393,-1,-6,-4,1,0,1,2,-1
1558434329824350,0,8,3,-4,-2,0,-1,-1
1558434329824350,5,1,1,5,3,1,-3,2
1558434329825347,-8,-10,2,-6,-7,-6,0,-1
1558434329825347,-1,-3,-12,-5,-1,-1,-1,-4
1558434329837314,-2,1,6,-4,1,-4,-3,-3
1558434329837314,-3,1,5,7,0,-3,0,2
1558434329846296,2,5,9,6,1,1,-1,-2
1558434329846296,4,1,4,6,4,2,-1,-2
1558434329861252,0,-7,-11,-9,-1,-1,1,-3
1558434329861252,-3,1,-4,-7,-1,0,-1,-2
1558434329867234,2,5,9,6,3,1,-1,1
1558434329867234,-4,-6,-3,-5,-4,-2,-3,1
1558434329884363,-3,-2,-14,-3,-1,-3,-3,-2
1558434329884363,4,7,25,7,-2,0,2,0
1558434329885185,-3,-7,-21,-2,1,0,-2,-2
1558434329885185,-1,-7,-5,-1,1,1,1,1
1558434329897155,1,-2,-9,-6,-3,-1,-2,1
1558434329897155,4,4,7,2,-1,-1,-1,0
1558434329924207,-7,-9,-11,-7,-5,-2,0,0
1558434329924207,5,8,13,5,2,0,3,4
1558434329924207,-19,-14,-9,-1,-4,0,-2,-7
1558434329924207,-1,3,-8,-7,-3,0,0,1
1558434329928072,6,12,10,2,2,1,-1,-1
1558434329928072,-5,-6,9,8,3,-1,-2,-1
1558434329944027,-3,-10,-16,-14,-6,-6,-1,-1
1558434329944027,-2,1,-7,-2,0,0,-4,-3
1558434329946023,-3,-4,1,-1,-3,-4,-2,0
1558434329946023,9,5,-1,-1,-4,-2,-2,1
1558434329957994,-5,3,10,4,3,4,3,0
1558434329957994,0,-5,0,-3,0,4,2,-1
1558434329966967,0,6,3,4,-2,-2,-3,-3
1558434329966967,-7,-3,-9,-10,-7,-4,-3,-3
1558434329980930,0,-10,-7,-2,-1,-1,-1,-2
1558434329980930,1,-3,-9,3,3,1,1,-1
1558434329987910,-6,-2,7,-8,-1,0,0,-1
1558434329987910,-5,-3,-2,-3,-6,-6,-1,-3
1558434330004112,4,8,11,7,2,0,-1,-1
1558434330004112,-4,-3,-5,-4,-7,-5,-2,-1
1558434330005873,7,1,2,6,1,-2,-2,1
1558434330005873,-3,3,-5,-1,-1,3,1,1
1558434330017934,3,2,4,2,4,1,-1,2
1558434330017934,0,-3,1,-2,1,-1,0,1
1558434330026808,-1,3,8,4,-1,-1,1,-1
1558434330026808,-2,2,8,-2,2,1,0,-1
1558434330040770,7,6,-9,0,-1,0,3,0
1558434330040770,-8,-6,-4,-1,-4,-6,-5,-1
1558434330047751,-3,-13,1,-6,-3,-1,-2,-3
1558434330047751,-2,-2,-6,-2,2,2,1,0
1558434330063709,5,9,4,4,1,0,0,1
1558434330063709,-3,-2,-2,-3,1,0,-1,-1
1558434330065705,5,-1,-8,-2,-4,0,0,-1
1558434330065705,-9,-4,9,5,0,-2,-4,-6
1558434330077669,1,2,-2,-5,-3,0,-2,-2
1558434330077669,-4,-5,4,-1,1,1,2,-2
1558434330093629,7,8,6,6,0,-1,2,1
1558434330093629,-3,-12,-23,-16,-6,-3,-1,-3
1558434330100618,1,1,-9,0,-2,-2,-1,4
1558434330100618,2,7,13,7,-1,-1,-1,-1
1558434330107796,-4,-2,-22,-7,-1,1,-4,-3
1558434330107796,0,2,7,-4,-3,-4,1,-2
1558434330124546,-6,-12,2,-3,-2,-2,1,-3
1558434330124546,0,-6,-18,-2,-2,-3,-2,0
1558434330125543,-1,2,5,-3,1,0,0,-1
1558434330125543,0,2,-1,-2,-3,-3,-3,1
1558434330137512,-4,-5,2,2,2,0,-3,-3
1558434330137512,2,7,14,9,5,4,3,0
1558434330146487,-2,-3,-7,-6,3,0,-2,-1
1558434330146487,-3,-5,-6,4,-3,-2,-5,-4
1558434330169426,-6,3,13,2,-1,-1,1,0
1558434330169426,-2,-6,-17,-7,-5,-3,-3,0
1558434330170422,-6,-13,-2,-5,-4,-3,-1,-3
1558434330170422,3,3,7,5,4,3,3,2
1558434330191366,4,6,9,12,3,0,0,-1
1558434330191366,1,5,5,-9,-2,-3,1,0
1558434330193362,3,-2,-4,2,0,1,3,0
1558434330193362,-9,-7,-6,-3,-5,-4,-8,-6
1558434330197396,2,0,-10,-7,-1,-1,6,2
1558434330197396,-2,0,1,2,0,0,-4,0
1558434330206326,3,1,3,2,3,-3,-2,1
1558434330206326,-2,0,-2,-2,-2,-1,0,0
