timestamp,emg1,emg2,emg3,emg4,emg5,emg6,emg7,emg8
1558434150665162,-14,-9,-25,-21,-5,2,-6,-9
1558434150665162,4,-1,17,18,7,3,-6,0
1558434150671146,-10,-21,-46,-34,-15,-12,-8,-4
1558434150671146,-2,9,11,3,1,2,10,3
1558434150671146,16,41,30,22,11,7,0,7
1558434150671146,-18,-20,-14,-12,-12,-11,-3,-4
1558434150673140,4,8,12,8,8,5,4,3
1558434150673140,1,-25,-12,-5,-6,-8,-22,-2
1558434150684111,7,14,38,22,-1,-3,10,2
1558434150684111,1,-17,-33,-8,2,7,12,4
1558434150695084,8,22,6,-5,-3,4,4,-1
1558434150695084,-29,-54,35,28,4,-5,-14,-9
1558434150699073,9,-6,-30,-16,-3,6,13,1
1558434150699073,-10,9,-50,-37,-11,-3,-8,-6
1558434150714031,1,-17,7,4,1,0,0,-1
1558434150714031,16,50,39,16,14,13,11,7
1558434150722010,-1,-15,-7,-1,-4,-14,-13,-3
1558434150722010,-3,5,-6,-11,1,11,3,2
1558434150729988,-5,-12,-15,-3,-4,-4,4,1
1558434150729988,2,-11,-9,-8,-6,-10,-6,-8
1558434150743955,-8,2,29,26,18,7,2,5
1558434150743955,12,23,12,8,-4,-4,5,2
1558434150753926,-1,11,2,-3,-8,-6,-6,1
1558434150753926,1,14,-9,-13,0,3,7,-4
1558434150790826,-5,-12,-7,4,-5,-1,-4,-7
1558434150790826,0,8,1,0,4,2,5,3
1558434150791824,-1,-16,12,10,7,5,-1,-1
1558434150791824,12,27,-3,-7,-6,-4,-2,3
1558434150792821,6,27,30,12,2,-3,1,6
1558434150792821,-20,-61,-37,-14,0,7,-2,-7
1558434150795812,5,4,-5,-8,-2,-6,1,2
1558434150795812,-7,-6,16,9,-4,1,2,-4
1558434150803792,0,-3,11,9,6,9,5,-5
1558434150803792,-4,5,-37,-27,-5,-12,-2,-3
1558434150812767,-1,4,13,13,2,0,-7,-4
1558434150812767,6,-5,12,8,2,-4,7,1
1558434150818752,-6,-18,-30,-23,-17,-3,-9,-8
1558434150818752,3,20,41,19,6,2,17,6
1558434150833715,-4,-24,-23,-12,-1,0,0,-3
1558434150833715,2,35,5,-3,1,-2,2,2
1558434150840693,4,-11,2,8,6,-4,-5,0
1558434150840693,-1,4,25,17,4,4,-15,-8
1558434150849668,7,32,-11,-7,-6,-3,0,4
1558434150849668,-10,-30,12,20,18,19,3,1
1558434150863631,-8,-32,-39,-26,-3,-6,-8,-4
1558434150863631,6,19,-7,-11,-13,-7,-2,-2
1558434150872608,0,-10,16,6,0,-4,-3,0
1558434150872608,7,18,6,4,0,-3,-5,-1
1558434150878591,-4,19,7,-3,-7,-8,-4,-2
1558434150878591,-6,-43,5,9,6,-3,-10,-1
1558434150893552,4,23,12,13,2,5,5,-1
1558434150893552,2,0,-22,-10,1,6,-1,-2
1558434150900532,-1,11,9,1,-3,-5,-3,4
1558434150900532,2,-9,2,-1,-10,-6,-2,-2
1558434150909510,-4,-1,3,4,2,1,-5,0
1558434150909510,-8,-14,-23,-16,2,3,-1,-8
1558434150923471,5,19,17,13,2,5,11,0
1558434150923471,14,34,16,15,10,6,13,9
1558434150932447,-23,-37,-42,-29,-14,-10,-10,-8
1558434150932447,5,-1,8,8,1,2,-2,-1
1558434150938430,-8,-9,-15,-16,-2,-2,-14,-6
1558434150938430,15,32,44,29,16,14,9,5
1558434150953391,-20,-41,-62,-47,-29,-21,-10,-9
1558434150953391,-4,-21,-13,-11,-10,-9,-6,-2
1558434150961371,-3,5,22,20,18,13,15,2
1558434150961371,5,15,-6,0,-1,-2,-5,0
1558434150976338,5,9,-7,-14,-11,-13,-12,-5
1558434150976338,-1,1,0,7,2,6,3,5
1558434150983311,14,33,11,4,-2,-2,-2,-1
1558434150983311,-25,-52,-16,-6,-4,-1,-13,-12
1558434150992288,11,18,30,23,15,7,3,4
1558434150992288,-12,-17,-30,-30,-20,-15,-10,-7
1558434150998271,17,14,53,38,18,18,13,11
1558434150998271,-17,-8,-76,-46,-18,-13,-4,-7
1558434151015229,-4,-31,12,8,0,-3,-14,-2
1558434151015229,4,9,16,10,8,8,18,2
1558434151021210,-6,-8,-20,-13,-10,-8,2,-1
1558434151021210,5,-3,28,18,-1,-6,-4,2
1558434151036182,2,4,-5,3,12,8,13,3
1558434151036182,-5,1,-16,-22,-24,-13,-13,-3
1558434151043157,-7,-10,-32,-18,-9,-3,-1,2
1558434151043157,3,1,17,8,7,7,5,2
1558434151052127,-1,17,12,8,0,-1,4,-2
1558434151052127,0,1,48,31,8,2,-17,-5
1558434151058112,5,2,-44,-20,-2,-1,12,3
1558434151058112,-5,-23,-25,-23,-1,-2,3,1
1558434151073070,1,5,26,16,7,6,8,1
1558434151073070,-7,5,4,4,1,2,-2,-2
1558434151081049,-3,-6,-2,-3,-10,-10,-16,-6
1558434151081049,1,-5,-9,-6,-11,-10,0,-1
1558434151096010,-2,21,-15,-21,-7,-2,-5,-3
1558434151096010,-4,-18,12,13,5,-4,3,-1
1558434151103989,-6,-13,3,3,15,12,-3,2
1558434151103989,5,17,4,3,0,-2,8,0
1558434151111971,-10,-9,-24,-14,-10,-2,-3,-1
1558434151111971,4,4,-8,-9,-4,-7,-1,3
1558434151118950,3,10,-1,0,-5,-7,-6,-3
1558434151118950,-9,-25,-10,-9,-6,-2,-7,-1
1558434151133908,7,8,36,31,11,9,3,4
1558434151133908,9,28,0,0,5,-1,-2,0
1558434151140889,-15,-42,-29,-39,-42,-31,-30,-13
1558434151140889,6,7,-11,-1,11,16,13,8
1558434151155852,1,-3,-11,-6,6,7,15,5
1558434151155852,-1,-12,-4,-3,4,3,1,-1
1558434151163827,-6,3,16,12,5,-2,7,-2
1558434151163827,-2,14,18,5,-8,-4,-9,-8
1558434151172804,2,6,8,2,-1,-5,-5,-1
1558434151172804,3,-7,-16,-7,-4,-4,1,3
1558434151178789,10,40,32,17,12,11,7,6
1558434151178789,7,-3,40,37,1,-3,-8,-2
1558434151193748,-33,-51,-89,-77,-32,-13,-10,-16
1558434151193748,-3,-25,10,-9,-16,-18,-12,0
1558434151200734,-7,-6,36,28,32,38,34,0
1558434151200734,-1,2,-30,-15,6,2,-3,-1
1558434151215690,6,14,-1,3,0,-6,4,2
1558434151215690,3,4,-6,-3,0,-1,1,4
1558434151223669,-3,-3,-13,-9,-6,-7,-9,-4
1558434151223669,5,4,18,14,7,5,-3,1
1558434151232644,5,12,18,17,9,6,4,1
1558434151232644,-10,-10,-20,-14,-8,-8,-10,-11
1558434151238628,-1,-1,-1,2,-1,-6,-11,0
1558434151238628,-7,0,-11,-14,-9,-3,6,-6
1558434151253589,4,6,15,13,6,1,-3,1
1558434151253589,14,40,40,23,10,10,23,8
1558434151260580,-13,-32,-52,-18,-5,-1,-2,-5
1558434151260580,-21,-29,-29,-27,-21,-17,-13,-7
1558434151275530,4,-4,36,24,9,4,-5,-1
1558434151275530,-16,-27,-55,-33,-11,1,0,-4
1558434151283507,11,2,17,9,3,-2,2,5
1558434151283507,3,23,6,-2,-1,-2,1,0
1558434151292483,1,2,11,9,-1,2,0,-1
1558434151292483,1,3,17,17,11,7,-3,-1
1558434151306447,1,10,-7,-13,-11,-13,-7,1
1558434151306447,13,27,69,48,24,21,16,7
1558434151313428,3,-13,-56,-38,-10,-1,-9,1
1558434151313428,-17,-20,-4,-18,-16,-6,16,-5
1558434151321406,-5,-7,7,4,3,3,-6,-5
1558434151321406,8,15,39,28,7,0,0,3
1558434151336367,-9,-27,-45,-33,-21,-17,-12,-10
1558434151336367,10,17,3,8,11,12,8,4
1558434151343348,-5,-1,-14,-15,-9,-8,0,-2
1558434151343348,3,11,19,16,9,-3,-1,3
1558434151352324,7,7,24,22,6,2,4,4
1558434151352324,-2,-8,-22,-11,-8,-6,-21,-2
1558434151366286,7,19,33,22,6,6,15,6
1558434151366286,1,1,-44,-28,-9,0,-10,1
1558434151375263,2,-1,15,8,4,-3,11,6
1558434151375263,3,7,10,6,-8,-8,-15,-2
1558434151381246,-4,-21,-27,-10,6,1,7,3
1558434151381246,-9,-12,-32,-34,-22,-11,-16,-9
1558434151396206,2,20,22,6,11,12,6,1
1558434151396206,4,-6,22,27,17,11,2,2
1558434151403188,9,15,17,12,0,2,2,2
1558434151403188,-7,-6,-25,-18,-8,-4,-19,-10
1558434151412166,3,10,31,23,7,7,11,1
1558434151412166,-7,-10,18,14,0,-7,3,3
1558434151426126,-22,-29,-94,-67,-28,-16,-13,-25
1558434151426126,-8,-36,-13,-10,1,2,1,-4
1558434151435102,5,21,34,23,7,1,-3,0
1558434151435102,-10,-20,-10,-2,-6,-2,2,-6
1558434151441087,1,-1,0,-12,-5,-11,-23,-2
1558434151441087,7,18,8,1,1,0,11,3
1558434151456048,-4,-5,-7,0,-2,1,-1,-2
1558434151456048,9,22,39,29,19,12,4,3
1558434151463029,-4,-16,-34,-16,-8,-4,-4,0
1558434151463029,3,-4,8,1,0,-3,-12,-4
1558434151472003,2,6,26,25,16,12,12,5
1558434151472003,-3,2,-43,-33,-13,-6,-11,-8
1558434151502922,-4,-3,42,29,6,7,9,0
1558434151502922,-14,-35,-44,-20,-9,-6,9,-2
1558434151504916,-9,-1,11,7,-2,-5,-16,-8
1558434151504916,3,6,-1,-9,-2,-5,-6,-4
1558434151504916,13,26,1,1,8,9,8,5
1558434151504916,8,13,24,14,0,0,1,6
1558434151515886,-2,-10,-10,-4,-3,4,1,0
1558434151515886,1,10,-7,-8,3,3,7,4
1558434151523864,-5,-29,0,-9,-10,-11,4,1
1558434151523864,2,31,19,13,3,1,-2,-1
1558434151532842,-6,-32,-28,-10,-4,-5,-8,-3
1558434151532842,-3,-6,-22,-18,-5,-2,9,-2
1558434151545810,4,9,25,17,4,7,-5,-3
1558434151545810,5,5,12,1,-1,-6,0,2
1558434151554784,7,24,29,24,11,3,6,5
1558434151554784,-14,-25,-57,-38,-17,-12,-15,-8
1558434151560774,0,-13,7,2,-4,-3,1,-2
1558434151560774,1,10,19,16,1,-2,-4,-5
1558434151575732,-2,5,-7,-14,-1,2,-15,-3
1558434151575732,0,2,12,3,1,0,12,2
1558434151583706,-1,-2,-8,-4,-6,-4,-8,-3
1558434151583706,1,1,-4,3,-4,-3,7,0
1558434151592682,3,5,4,-2,5,2,2,1
1558434151592682,-6,-17,-6,-2,-8,-8,-11,-6
1558434151605652,0,8,7,-1,-1,-3,-5,-1
1558434151605652,-5,5,-6,2,10,11,6,0
1558434151614622,-6,-21,-34,-26,-15,-10,-3,-3
1558434151614622,3,2,24,21,10,9,12,4
1558434151620606,3,8,23,10,2,-4,3,2
1558434151620606,0,-1,-36,-23,-7,-3,-3,0
1558434151635566,1,1,16,6,2,3,-1,0
1558434151635566,-6,-12,-17,-11,-6,-4,-2,-3
1558434151643545,9,19,28,18,5,-4,1,5
1558434151643545,-2,3,30,28,20,22,10,2
1558434151652521,-16,-24,-93,-72,-40,-30,-17,-14
1558434151652521,12,16,64,48,16,8,0,5
1558434151666493,-12,-23,-69,-47,-19,-8,-5,-8
1558434151666493,4,1,8,-1,4,-5,-13,-2
1558434151675462,8,24,38,26,15,10,12,1
1558434151675462,-3,8,9,10,0,2,-4,-2
1558434151681448,0,6,-4,4,3,-1,-1,-4
1558434151681448,-9,-25,1,-5,-19,-10,-7,-6
1558434151696404,-4,-12,-32,-12,1,2,11,-1
1558434151696404,-3,3,-16,-21,-9,-10,-2,-1
1558434151703385,-1,-2,23,14,2,4,2,2
1558434151703385,-6,-6,-10,-8,2,-2,5,-7
1558434151712360,6,6,23,14,3,-4,3,0
1558434151712360,17,34,57,47,19,9,0,3
1558434151726322,2,3,-44,-16,0,3,0,4
1558434151726322,-5,-3,10,-20,-7,-1,-8,-1
1558434151735304,-15,-19,-64,-45,-32,-23,-6,-4
1558434151735304,2,-4,-8,-6,2,1,2,0
1558434151741287,-8,-20,21,17,4,-4,-9,-1
1558434151741287,3,0,9,8,8,5,4,2
1558434151756247,1,13,22,15,9,9,3,-5
1558434151756247,-2,-4,-17,-9,-7,-11,-10,0
1558434151763227,-3,-7,-9,-9,-4,-4,-1,-5
1558434151763227,-4,-1,-10,-7,-2,2,-3,-3
1558434151778188,11,16,35,22,11,6,3,5
1558434151778188,-2,-3,-30,-20,-6,-9,2,0
1558434151786168,1,6,55,39,20,16,7,4
1558434151786168,-5,-21,-79,-51,-21,-18,-4,2
1558434151802123,0,11,71,36,7,8,-2,-1
1558434151802123,6,2,14,13,8,9,17,8
1558434151802123,-11,-6,-89,-63,-27,-24,-17,-9
1558434151802123,4,9,29,19,12,9,11,0
1558434151817085,-5,-20,-13,-3,-2,1,-7,-2
1558434151817085,-8,0,7,1,-3,-2,-10,-8
1558434151823065,1,-4,31,20,6,9,2,-3
1558434151823065,0,7,6,8,-3,-5,1,-2
1558434151839025,3,4,-10,-8,-5,-6,2,1
1558434151839025,-12,-28,-42,-31,-18,-12,-21,-5
1558434151846006,5,10,44,36,14,5,13,8
1558434151846006,0,5,-38,-32,-12,-7,-2,-1
1558434151861963,0,-1,22,12,-1,-4,-4,-3
1558434151861963,-6,-12,-24,-9,5,14,3,-5
1558434151862961,2,9,-13,-10,-14,-10,-10,-6
1558434151862961,-8,-21,22,7,3,3,1,0
1558434151875924,-6,-9,-20,-6,-6,-17,3,-2
1558434151875924,1,5,16,5,-2,1,3,2
1558434151883903,4,4,-10,-2,5,10,-3,-3
1558434151883903,-2,10,18,12,9,4,0,0
1558434151898866,5,15,4,-3,3,9,1,-1
1558434151898866,-3,-12,-9,-6,-1,-2,0,-2
1558434151905851,-3,-1,12,12,0,-5,-8,-5
1558434151905851,0,-1,11,9,4,2,-3,5
1558434151921809,0,-1,-17,-6,3,10,-2,2
1558434151921809,7,13,28,12,9,5,0,3
1558434151922806,-7,-21,-20,-13,-4,0,-16,-2
1558434151922806,-7,-16,-38,-23,-10,-6,4,0
1558434151935794,7,6,45,34,13,5,2,6
1558434151935794,4,4,-41,-30,-12,-5,-4,4
1558434151943789,-4,5,10,0,6,0,-4,-7
1558434151943789,4,1,34,26,3,-3,5,5
1558434151958860,-9,-16,-59,-41,-17,-5,-6,-5
1558434151958860,0,-3,22,15,-4,-12,-9,-3
1558434151966720,0,6,-14,-13,-2,5,2,-1
1558434151966720,-1,-1,-11,-6,-2,2,-1,-2
1558434151981741,11,24,44,28,8,-4,-3,4
1558434151981741,-8,-11,-22,-16,-8,-3,4,-2
1558434151982647,-2,0,35,27,12,13,11,3
1558434151982647,-10,-22,-84,-59,-34,-22,-16,-15
1558434151996683,-2,8,10,3,5,-1,2,4
1558434151996683,1,-5,27,20,13,10,12,3
1558434152003590,2,-8,-39,-22,-9,-9,7,3
1558434152003590,6,24,62,47,16,8,-5,1
1558434152018586,-3,-11,-45,-36,-16,-9,0,-4
1558434152018586,1,6,-5,-11,-5,-11,-10,1
1558434152026523,2,7,8,12,13,12,14,4
1558434152026523,7,23,33,21,8,4,4,1
1558434152041481,-3,-14,-28,-17,-12,-9,-14,-4
1558434152041481,-14,-31,4,8,1,3,1,-2
1558434152042480,7,10,21,8,3,2,-3,4
1558434152042480,-1,-3,-17,-7,0,-3,4,3
1558434152056441,2,3,25,13,4,4,-1,-1
1558434152056441,12,38,54,28,6,0,-1,2
1558434152063423,-20,-55,-75,-53,-26,-16,-13,-11
1558434152063423,-2,-4,-8,-9,-4,-3,4,1
1558434152078382,-2,8,19,14,7,6,4,-9
1558434152078382,-7,-16,-47,-31,-10,-3,0,-6
1558434152086362,12,34,96,59,18,4,9,6
1558434152086362,3,-1,-41,-27,-17,-11,-11,-4
1558434152101321,-17,-38,-75,-52,-21,-8,-9,-8
1558434152101321,4,8,31,12,7,5,-4,-1
1558434152102318,-2,1,-14,-11,-1,-3,2,0
1558434152102318,2,-8,26,19,8,3,-3,1
1558434152116282,8,20,41,31,13,5,12,5
1558434152116282,-6,-5,-56,-30,-19,-14,-14,-8
1558434152123262,-12,-16,-5,-11,-1,6,-3,-11
1558434152123262,-7,-16,-1,5,2,4,4,-1
1558434152138709,5,20,-3,1,-1,-4,6,4
1558434152138709,-8,-29,1,6,7,7,-1,2
1558434152146630,6,10,14,13,0,-5,2,5
1558434152146630,-6,-14,-8,-16,-6,1,-1,-2
1558434152161636,0,2,-3,-2,2,1,-7,0
1558434152161636,5,1,-8,1,1,-7,4,1
1558434152162594,2,13,-13,-5,-6,-4,-1,0
1558434152162594,-7,-8,-4,-4,-3,-3,-3,-4
1558434152176550,10,16,39,25,11,11,0,8
1558434152176550,0,12,-4,0,-1,1,8,0
1558434152183592,-4,-14,-25,-26,-7,-3,8,2
1558434152183592,3,1,17,16,11,6,-8,-3
1558434152207469,3,8,15,11,4,4,9,1
1558434152207469,-13,-24,-52,-35,-18,-13,-8,-8
1558434152207469,6,11,16,4,1,1,-7,-1
1558434152207469,-7,-13,-2,0,4,5,1,0
1558434152221428,0,-7,13,9,1,-3,-6,0
1558434152221428,6,13,11,8,1,2,6,2
1558434152229511,4,3,-16,-15,-13,-12,1,1
1558434152229511,-1,2,-4,-6,-6,-1,-5,-3
1558434152236390,-8,-5,-6,-5,-5,-5,-4,-5
1558434152236390,-5,-3,34,26,14,16,19,1
1558434152243552,-5,-12,-44,-21,-5,-1,-4,-4
1558434152243552,-1,13,-1,-1,-4,-4,2,-3
1558434152259337,-6,-17,-4,-11,-4,0,-9,-7
1558434152259337,1,5,0,2,-6,-5,-6,0
1558434152266519,1,13,15,7,1,-6,-5,5
1558434152266519,2,-12,-10,-1,-3,-5,-1,0
1558434152281267,0,6,0,0,2,6,6,-2
1558434152281267,4,13,11,-3,-2,-1,-9,-4
1558434152289247,-7,-25,-24,-19,-5,0,3,-2
1558434152289247,2,8,5,7,-2,-7,-4,-2
1558434152296248,-1,-16,-3,-4,0,-3,-1,3
1558434152296248,2,4,-13,-6,-13,-9,-12,-3
1558434152303218,0,22,23,15,6,6,0,-2
1558434152303218,-11,-31,-26,-25,-7,-5,-7,-4
1558434152318169,1,-4,13,16,5,-1,6,6
1558434152318169,-3,-5,-6,-1,2,1,1,-2
1558434152326150,1,1,10,8,2,0,-5,0
1558434152326150,6,24,14,9,-1,-9,-5,3
1558434152341108,0,-6,15,10,11,12,4,1
1558434152341108,-14,-26,-51,-29,-12,-8,-1,-5
1558434152349087,0,0,13,4,8,12,3,0
1558434152349087,4,11,9,4,-1,2,-6,3
1558434152356375,3,20,5,9,7,4,13,5
1558434152356375,-7,-25,-7,-7,1,4,-5,-4
1558434152364281,-2,-9,6,11,-10,-12,-3,-3
1558434152364281,3,16,8,5,11,3,3,-2
1558434152379337,-1,-8,-33,-31,-19,-13,-8,-6
1558434152379337,-4,6,11,18,3,6,-14,-10
1558434152385985,-2,0,13,10,4,1,11,-1
1558434152385985,0,3,-15,-10,-3,0,6,-2
1558434152401305,-5,-5,-25,-23,-17,-19,-12,-6
1558434152401305,7,21,20,9,10,7,3,3
1558434152408926,-4,-13,-8,-8,-8,-8,-15,-4
1558434152408926,-4,6,35,26,17,21,14,-5
1558434152425012,-7,-16,-38,-18,-12,-2,-4,-7
1558434152425012,2,1,11,-1,-5,-7,7,4
1558434152425012,2,12,8,8,3,-1,-15,-5
1558434152425012,0,-14,-12,-3,0,2,9,2
1558434152438878,-11,-9,6,-9,-8,-8,-14,-9
1558434152438878,-16,-30,-18,-11,-5,-5,4,-2
1558434152446021,1,12,9,6,1,1,0,0
1558434152446021,6,12,10,3,-3,-8,-6,-1
1558434152460834,1,6,13,13,-1,-4,-17,-10
1558434152460834,11,21,-3,-6,-3,-3,0,4
1558434152469767,-1,-3,-20,-13,0,3,9,5
1558434152469767,-10,-19,-6,-6,-3,-6,-1,-1
1558434152484919,2,6,25,20,15,11,5,-1
1558434152484919,8,20,0,-4,-6,-3,-7,-3
1558434152484919,-1,0,-18,-19,-8,0,-4,1
1558434152484919,6,16,26,16,1,2,9,1
1558434152498695,-11,-49,-64,-35,-17,-15,5,6
1558434152498695,-1,16,14,5,12,15,11,-4
1558434152505671,-1,-5,16,11,8,4,3,-1
1558434152505671,9,24,8,4,-2,-5,-8,7
1558434152520627,-7,-21,-9,-7,-5,-5,-6,-5
1558434152520627,-1,-7,-3,-3,-1,3,4,1
1558434152529602,-2,5,2,3,-1,-2,2,-1
1558434152529602,-8,-24,-11,-4,-2,2,3,-2
1558434152544605,12,37,13,6,2,2,0,3
1558434152544605,-8,-34,-9,0,-1,-2,-5,0
1558434152544605,0,-3,9,-2,-2,-6,-15,-3
1558434152544605,0,-1,5,2,0,0,3,0
1558434152558555,5,18,0,6,2,1,-12,-4
1558434152558555,-3,-8,-16,-27,-17,-7,0,-2
1558434152565533,-1,8,6,5,6,6,13,5
1558434152565533,-3,-13,-29,-18,-14,-11,0,-2
1558434152581463,5,8,22,13,10,3,8,6
1558434152581463,-5,-6,21,17,1,-6,-6,-2
1558434152589793,-5,-12,-4,5,1,0,1,-2
1558434152589793,-2,22,-37,-37,-11,-4,-10,-4
1558434152603407,-12,-36,-4,-3,2,5,3,-3
1558434152603407,19,38,44,31,11,-2,-6,3
1558434152612425,-3,-11,-41,-35,-16,-5,2,-4
1558434152612425,-15,-30,-8,0,3,6,-4,-5
1558434152618570,7,19,27,21,8,5,4,10
1558434152618570,-7,-18,-42,-33,-9,-5,7,-4
1558434152626555,5,23,27,17,-1,-7,-2,-3
1558434152626555,-7,-28,-10,-3,-2,-1,-7,-7
1558434152641304,2,14,14,10,3,0,0,-1
1558434152641304,-2,2,-14,-14,-8,-6,-5,0
1558434152649537,-13,-34,-15,-7,-10,-11,-22,-6
1558434152649537,6,10,19,11,1,5,8,-1
1558434152664422,-14,-18,-11,-6,-2,1,6,-3
1558434152664422,1,5,-21,-13,-4,-14,2,3
1558434152665248,8,14,4,6,2,2,3,3
1558434152665248,1,15,12,1,2,1,-8,3
1558434152678376,2,-9,-1,-2,-3,-2,-1,-1
1558434152678376,-5,-9,-2,-1,-5,-2,-10,-13
1558434152686187,2,2,11,7,1,7,14,3
1558434152686187,11,26,28,29,13,-1,0,4
1558434152701363,-5,-1,-39,-32,-9,-5,11,-1
1558434152701363,0,4,-13,-1,-3,-4,-1,0
1558434152709334,-12,-36,-22,-25,-14,-10,-6,-4
1558434152709334,6,13,20,14,6,7,7,3
1558434152724083,4,18,8,0,-6,-5,-15,-5
1558434152724083,-5,-14,8,10,4,0,-13,-3
1558434152725082,12,24,35,31,18,9,14,6
1558434152725082,-6,-21,-37,-21,-10,-10,-7,-2
1558434152738047,-11,-12,-27,-21,-10,-7,-4,-2
1558434152738047,6,24,41,31,14,16,12,0
1558434152746053,-12,-18,-29,-11,-4,0,-1,-12
1558434152746053,1,-4,0,-3,-3,-2,-6,-5
1558434152761033,-5,4,-34,-21,-10,-5,-3,-7
1558434152761033,3,8,23,8,-2,-1,-7,-3
1558434152768962,-1,-11,-10,-3,1,2,1,4
1558434152768962,-4,-16,-6,-6,-11,-17,-24,-8
1558434152783984,-1,3,19,12,3,1,4,-1
1558434152783984,1,9,4,4,4,4,-1,2
1558434152784920,1,-2,-6,-4,-6,-11,-19,0
1558434152784920,2,9,-2,-3,3,8,19,7
1558434152799364,1,-4,1,5,-4,-4,1,3
1558434152799364,1,4,4,0,7,11,4,0
1558434152806332,2,2,24,15,5,-2,-4,0
1558434152806332,-5,-3,-7,-9,-9,-8,-6,-3
1558434152820825,4,2,4,-5,-5,-1,-9,-4
1558434152820825,-6,-20,-24,-7,-1,-2,7,5
1558434152830147,6,28,5,2,12,14,7,1
1558434152830147,-6,-17,11,4,-4,-2,-2,-4
1558434152845079,-4,-11,-9,-10,-5,1,1,-3
1558434152845079,4,12,11,2,3,0,-9,4
1558434152845079,-6,-13,3,3,-3,-5,3,-8
1558434152845079,-1,-2,-1,2,-2,-3,2,1
1558434152858800,1,-2,2,7,-4,-5,1,2
1558434152858800,-3,-4,-17,-18,-8,0,1,0
1558434152866701,-2,0,1,0,-4,-5,-3,-3
1558434152866701,11,17,9,11,14,11,15,8
1558434152880666,-6,-5,-10,-9,-7,-8,-5,-5
1558434152880666,1,-6,3,5,-1,-3,0,3
1558434152889640,-1,10,1,-2,-1,-2,-6,2
1558434152889640,-5,-10,-8,-8,-3,3,2,-3
1558434152904816,4,16,19,16,11,4,1,1
1558434152904816,-11,-16,-7,-6,-3,2,0,-6
1558434152904816,-5,-15,12,6,-9,-3,-5,-2
1558434152904816,0,3,-37,-25,-4,1,0,-2
1558434152918567,5,10,21,13,17,19,10,6
1558434152918567,0,-3,1,-6,-1,2,1,-2
1558434152926546,-1,-8,-5,5,3,1,13,0
1558434152926546,-5,-6,-6,-4,-5,-4,-2,-3
1558434152941502,3,-6,14,8,-4,-9,-8,1
1558434152941502,3,8,18,15,5,-3,-7,3
1558434152949482,-2,-4,-30,-19,2,13,21,-4
1558434152949482,-11,-8,-32,-21,-5,4,-4,-8
1558434152964792,2,-8,0,-5,-5,-9,-10,-3
1558434152964792,4,11,24,17,13,6,6,2
1558434152964792,5,16,19,7,10,11,3,4
1558434152964792,-5,4,-1,3,-4,-5,-4,-3
1558434152978753,-5,-7,4,-3,-6,0,0,-5
1558434152978753,-5,4,1,15,3,3,0,-4
1558434152986381,-14,-49,-25,-20,-14,-15,-20,-2
1558434152986381,6,6,12,3,-2,-7,-3,5
1558434153001662,4,11,-1,2,8,11,13,6
1558434153001662,8,14,9,1,-8,-8,6,2
1558434153009390,-3,6,4,9,-2,-3,1,-1
1558434153009390,-5,-13,-11,-12,-5,0,-8,-5
1558434153024587,-9,-8,-10,-12,-6,-14,-4,-8
1558434153024587,-6,-9,-14,-20,-10,-8,-6,-5
1558434153025277,4,6,3,0,2,-1,7,2
1558434153025277,-1,1,6,6,4,5,3,4
1558434153039243,3,5,16,12,7,8,-3,-1
1558434153039243,7,15,-4,-4,5,11,9,3
1558434153046547,-6,-16,-24,-17,-13,-15,-12,-6
1558434153046547,-4,0,-15,-13,-7,-12,-12,-8
1558434153061482,-3,4,-5,-4,-4,1,-2,-2
1558434153061482,-3,-6,11,6,2,-4,-6,3
1558434153069174,4,1,4,12,9,9,15,8
1558434153069174,6,13,16,14,9,6,5,5
1558434153084399,1,1,-25,-10,-4,-2,0,-3
1558434153084399,-2,-6,-16,-10,2,-3,-6,-4
1558434153085119,-3,10,16,1,-1,-7,-6,-3
1558434153085119,9,12,35,18,5,0,6,4
1558434153099282,4,0,-27,-15,-2,7,-1,1
1558434153099282,-9,-13,6,0,6,11,1,4
1558434153106065,2,8,14,12,17,8,4,1
1558434153106065,-12,-29,-43,-28,-20,-11,-13,-7
1558434153121019,7,19,27,14,4,3,2,4
1558434153121019,-2,-15,-11,-4,-1,-5,4,-3
1558434153130001,-10,1,1,-2,0,6,-11,-8
1558434153130001,5,17,29,24,15,9,5,5
1558434153143960,-5,-6,9,5,4,-1,1,-2
1558434153143960,6,5,-24,-15,-9,-7,-9,-2
1558434153144957,-6,-9,1,-4,0,2,-3,-3
1558434153144957,-5,-2,-23,-15,-9,-6,2,-4
1558434153159213,-9,-23,-1,2,-9,-10,-10,-6
1558434153159213,-2,-11,-16,-7,-2,-4,-1,-4
1558434153166204,14,29,17,13,2,4,5,4
1558434153166204,5,2,1,-1,-1,1,-3,-1
1558434153181160,-7,-14,-7,-4,1,4,-1,-1
1558434153181160,-10,-10,19,16,0,-3,-3,-3
1558434153190001,3,2,-16,-15,-8,-12,-7,2
1558434153190001,4,7,12,4,4,-4,-3,1
1558434153203800,1,-1,1,7,3,3,-3,5
1558434153203800,5,15,-4,-6,2,1,9,3
1558434153212076,-14,-26,-23,-12,-10,-12,-6,-5
1558434153212076,1,6,14,6,3,4,-7,-1
1558434153218932,2,7,-2,-4,1,-4,13,-2
1558434153218932,-6,-14,-28,-18,-17,-6,-5,-6
1558434153226046,6,8,-12,-15,-12,-9,-8,0
1558434153226046,2,1,19,12,13,10,16,2
1558434153241759,-4,-1,7,1,-2,2,4,1
1558434153241759,-1,-3,13,11,0,-3,-9,-2
1558434153248927,3,-4,11,10,3,0,6,0
1558434153248927,-12,-18,-40,-22,-8,-3,-12,-13
1558434153263863,5,12,1,-6,4,6,-7,2
1558434153263863,-9,-11,1,2,1,-5,-2,-3
1558434153271852,3,5,10,7,-3,0,-7,-2
1558434153271852,0,-2,-18,-5,-7,-6,1,0
1558434153278836,-12,-25,-7,-6,-3,0,-4,-5
1558434153278836,-2,1,4,3,-2,-5,-8,-5
1558434153285584,6,18,2,-3,3,1,6,3
1558434153285584,0,-4,14,4,5,2,-1,2
1558434153301749,0,8,6,5,-6,-1,3,0
1558434153301749,6,8,-7,0,0,0,-2,2
1558434153308728,-15,-30,-41,-22,-7,-3,1,-3
1558434153308728,-2,0,10,-3,-5,-4,4,-1
1558434153323696,-3,-4,-19,-11,-2,-13,-11,-5
1558434153323696,-1,-10,13,4,-5,-3,-3,-1
1558434153332461,3,7,1,-4,-6,-7,-13,-3
1558434153332461,7,7,28,23,16,14,11,6
1558434153346616,2,-2,-18,-9,-7,-7,-15,-2
1558434153346616,4,10,37,31,9,2,20,4
1558434153347417,-10,-21,-80,-58,-25,-6,-4,-5
1558434153347417,-7,-5,4,-10,-14,-17,-10,-5
1558434153361386,0,-16,14,10,5,-1,2,1
1558434153361386,-6,-10,-13,-16,-5,2,-2,-2
1558434153368363,6,14,44,32,11,7,0,3
1558434153368363,-3,0,-2,6,-2,-1,-4,-5
1558434153385330,3,14,25,23,19,11,23,13
1558434153385330,-9,-22,-63,-49,-18,-15,-15,-9
1558434153391695,1,3,33,14,1,-4,4,0
1558434153391695,-3,-11,-55,-28,-14,-5,-4,-1
1558434153407518,4,10,38,23,10,11,0,2
1558434153407518,0,3,-1,5,2,3,3,0
1558434153407518,4,21,8,2,-3,-5,-5,-2
1558434153407518,-1,-14,4,8,11,12,21,6
1558434153421218,-11,-19,-13,-6,-6,-4,-6,-4
1558434153421218,0,-1,10,4,6,6,7,2
1558434153429378,-2,-5,-14,-10,-8,-6,-7,-3
1558434153429378,0,13,17,8,-1,-10,-7,-1
1558434153443634,2,4,-11,-9,-9,-6,0,-1
1558434153443634,0,-1,-7,-4,3,3,-1,-2
1558434153452135,-4,1,11,6,6,4,-5,-4
1558434153452135,0,-1,7,3,-9,-10,-2,-5
1558434153467406,12,20,31,20,13,14,7,7
1558434153467406,0,-3,-59,-18,-2,-3,-1,-3
1558434153467406,-12,-22,-23,-22,-18,-7,2,-4
1558434153467406,-6,-13,-18,-27,-10,-11,-13,-4
1558434153481327,-14,-19,-21,-22,-16,-4,-9,-14
1558434153481327,10,29,39,27,12,6,4,3
1558434153489235,0,-27,16,24,20,13,10,6
1558434153489235,-4,-2,-9,-6,-3,1,-2,-4
1558434153503002,-3,2,-7,-1,-6,-5,4,-2
1558434153503002,2,-1,3,-3,-8,-8,-5,0
1558434153512193,-2,3,0,3,8,11,-3,-6
1558434153512193,2,6,20,12,5,1,12,0
1558434153526969,15,26,48,46,22,4,-10,3
1558434153526969,-20,-29,-86,-78,-34,-14,1,-5
1558434153526969,5,21,24,7,1,-9,-3,1
1558434153526969,-17,-59,-22,-9,1,1,-6,-5
1558434153540901,1,-2,-4,-10,-3,-3,1,2
1558434153540901,3,5,29,17,3,-2,-13,-1
1558434153556856,13,24,9,9,11,16,29,10
1558434153556856,8,25,28,17,8,9,-2,3
1558434153563838,-3,-5,-6,8,9,3,5,-1
1558434153563838,-3,-8,-9,-10,-5,-1,-6,-4
1558434153572019,-1,1,12,-5,-2,-6,-10,-1
1558434153572019,20,42,25,19,3,8,-4,5
1558434153586777,-15,-27,-50,-38,-21,-6,4,-4
1558434153586777,-4,-10,16,20,6,-4,-4,-5
1558434153587775,1,-2,-1,5,1,-2,-4,-3
1558434153587775,-1,4,22,20,11,7,-1,0
1558434153600984,1,3,-34,-31,-14,-16,-12,-4
1558434153600984,4,18,9,5,3,10,4,1
1558434153608933,-9,-4,-6,-6,-16,-15,-11,-5
1558434153608933,2,4,6,8,8,-2,6,2
1558434153623903,-7,-32,-9,-11,-3,0,1,-4
1558434153623903,-1,-12,10,5,2,3,-10,-5
1558434153631900,9,18,9,8,5,0,5,5
1558434153631900,-1,1,8,13,4,1,2,-1
1558434153646852,-13,-6,-26,-20,-6,0,0,-5
1558434153646852,5,12,28,16,6,2,2,4
1558434153647616,3,-7,-4,-4,-5,-3,-9,-1
1558434153647616,-15,-15,-32,-21,-14,-11,-3,0
1558434153661591,6,14,12,6,-4,-5,-6,-2
1558434153661591,-1,4,18,9,-3,0,8,0
1558434153668779,-2,-9,-21,-10,-1,-5,1,3
1558434153668779,-1,-12,2,7,6,3,1,1
1558434153683551,6,16,13,4,1,-3,5,-1
1558434153683551,0,14,7,4,6,8,3,-1
1558434153691735,-6,0,-20,-10,-16,-4,-11,-9
1558434153691735,-14,-28,-16,-11,-8,-6,-7,-6
1558434153706689,0,-6,-7,0,-2,-8,-6,-1
1558434153706689,7,13,29,15,4,-1,-5,0
1558434153707457,-5,-16,-9,-3,2,6,5,-1
1558434153707457,4,5,-19,-11,0,2,-3,1
1558434153721415,-1,1,4,0,-5,-4,-3,-4
1558434153721415,0,5,-13,-4,4,6,6,3
1558434153728639,-13,-18,-11,-5,-2,3,0,-3
1558434153728639,-1,0,-8,-9,-6,-5,-5,-7
1558434153743558,8,8,23,10,1,3,-1,0
1558434153743558,-7,-2,-20,-9,-7,-7,-8,-6
1558434153751571,-4,-20,4,2,10,8,9,3
1558434153751571,4,6,-2,-2,1,-1,3,4
1558434153766298,-7,5,4,3,-5,-6,-4,-3
1558434153766298,-5,-39,-2,9,0,-4,-2,-3
1558434153767293,2,8,0,3,5,7,-1,0
1558434153767293,1,4,-8,-10,-11,-9,-29,-8
1558434153781256,7,6,21,16,13,4,22,8
1558434153781256,-9,-20,-38,-29,-15,-9,3,-5
1558434153788238,0,8,17,10,2,-2,-4,-5
1558434153788238,-1,2,-10,-8,-11,-1,-5,-6
1558434153803198,3,7,-5,-2,3,0,-5,0
1558434153803198,1,1,21,13,0,-5,-3,2
1558434153811176,4,14,5,9,9,5,14,7
1558434153811176,7,25,-3,-11,-5,1,5,2
1558434153826133,-11,-41,-21,-16,-7,3,-5,-4
1558434153826133,-1,-3,1,3,8,8,5,0
1558434153827130,-3,-6,-11,-5,-2,-11,-10,-5
1558434153827130,1,4,19,5,-1,3,3,2
1558434153841093,5,12,5,7,2,-2,18,5
1558434153841093,8,15,7,0,8,4,3,5
1558434153849224,1,7,8,-3,-2,0,-1,-3
1558434153849224,-7,-9,-11,-12,0,-5,-2,-4
1558434153863227,-7,-22,-29,-16,-21,-13,-19,-5
1558434153863227,-10,-6,-12,-8,-7,3,3,-3
1558434153872362,10,1,23,22,13,7,4,8
1558434153872362,1,0,1,-3,-5,-8,7,4
1558434153886972,-6,-6,-5,-2,-3,-2,-9,-2
1558434153886972,9,26,17,14,-1,-3,-1,0
1558434153887972,-12,-32,-31,-22,-4,3,-8,-5
1558434153887972,0,-3,-9,2,2,5,-5,1
1558434153900935,6,15,21,3,3,5,14,3
1558434153900935,-2,-8,-1,6,2,1,-2,0
1558434153909336,-5,-5,-36,-27,-26,-26,-15,-10
1558434153909336,-4,-9,-2,0,3,2,3,3
1558434153923872,-3,3,-7,-3,-2,-4,-13,-6
1558434153923872,5,12,17,7,4,3,7,6
1558434153932303,4,15,11,12,6,-1,-6,-1
1558434153932303,0,-15,9,5,2,4,12,1
1558434153947263,-1,8,-30,-21,-17,-15,-24,0
1558434153947263,3,5,38,31,28,24,29,7
1558434153947810,-15,-29,-62,-44,-24,-4,-1,-7
1558434153947810,6,26,10,2,-2,2,2,0
1558434153961153,-8,-26,8,8,9,4,-2,3
1558434153961153,-1,-1,-2,-7,-10,-15,-12,-2
1558434153968754,3,9,22,12,10,7,8,-1
1558434153968754,1,-2,4,9,8,-2,7,3
1558434153983713,3,2,5,2,1,2,-5,-5
1558434153983713,4,19,7,10,3,1,-18,-2
1558434154000083,-16,-28,-45,-33,-20,-9,-6,-8
1558434154000083,-4,-6,-1,-12,0,-6,-7,-4
1558434154006703,-2,-5,-7,-4,-6,-4,4,-3
1558434154006703,-3,-8,7,0,-9,-4,-8,-3
1558434154007649,11,19,22,13,3,2,2,4
1558434154007649,0,1,-2,8,4,0,1,1
1558434154020616,2,12,7,-6,0,0,0,2
1558434154020616,-2,1,-18,-11,-9,-4,-4,-4
1558434154028968,-3,14,30,15,4,1,2,3
1558434154028968,-10,-33,-8,3,5,1,2,-1
1558434154043997,-7,-12,-22,-10,-3,-1,8,-5
1558434154043997,-4,-16,-19,-23,-14,-9,-5,-4
1558434154052289,7,20,11,6,0,2,-1,-1
1558434154052289,-2,2,19,11,4,3,-3,-1
1558434154067291,3,6,10,9,6,1,0,-1
1558434154067291,-3,-6,-15,-14,-12,-18,-25,-5
1558434154067967,3,-2,13,11,9,12,27,4
1558434154067967,2,10,8,3,-1,5,8,3
1558434154080907,6,6,-5,9,7,5,-5,3
1558434154080907,12,23,24,18,10,12,21,5
1558434154088884,-16,-14,-84,-62,-30,-26,-22,-13
1558434154088884,-21,-69,-29,-20,-19,-20,-17,-12
1558434154103870,-4,2,4,-2,10,11,10,-2
1558434154103870,-2,-11,10,3,-1,0,-3,-2
1558434154112109,12,23,39,26,2,-3,-3,2
1558434154112109,1,20,-4,0,3,-8,2,-8
1558434154125785,-10,-14,-10,-16,-10,-1,-3,-2
1558434154125785,0,4,1,4,3,-1,0,2
1558434154134909,4,-4,36,27,10,9,6,5
1558434154134909,2,6,-23,-19,-9,0,-5,1
1558434154141775,-5,-12,-36,-23,-13,-10,-10,-10
1558434154141775,0,5,-9,-8,0,-4,3,2
1558434154148966,-9,-12,2,-4,-2,-3,-15,-2
1558434154148966,3,7,22,12,-3,0,-1,-2
1558434154163921,3,10,11,11,1,1,-2,-4
1558434154163921,-1,-11,-16,-6,10,6,12,6
1558434154171693,11,20,23,19,5,-2,-4,3
1558434154171693,10,34,-6,-3,5,10,3,-1
1558434154185623,-19,-27,2,-4,-11,-6,-8,-5
1558434154185623,-14,-17,4,8,3,2,7,-5
1558434154194599,-3,-33,-17,-8,7,0,4,0
1558434154194599,2,4,-4,-5,-8,-5,-5,-3
1558434154200581,9,17,-12,-11,-2,-4,-2,4
1558434154200581,2,5,11,-2,-1,-9,-8,-3
1558434154208562,1,9,10,10,5,10,4,2
1558434154208562,1,10,-1,8,2,6,5,-2
1558434154223853,2,3,13,2,0,-1,-1,0
1558434154223853,3,12,-11,-15,3,8,20,-2
1558434154231848,1,20,11,13,1,-1,3,0
1558434154231848,-21,-75,-30,-21,-8,-10,-14,-6
1558434154246488,3,3,-5,4,8,7,14,5
1558434154246488,-5,-2,-6,-6,-7,-5,-16,-4
1558434154254790,5,5,2,2,4,2,0,1
1558434154254790,1,13,-4,-4,0,2,7,3
1558434154261701,3,5,17,12,7,4,4,3
1558434154261701,-3,-1,-1,4,-7,-5,-11,-8
1558434154268817,-6,-14,-5,-9,-11,-9,-2,-4
1558434154268817,-2,0,-21,-18,-11,-6,-11,-3
1558434154284057,-5,-1,10,8,6,5,7,1
1558434154284057,-4,-8,-22,-14,2,-2,-14,-3
1558434154292004,-1,-9,11,7,-5,0,0,-1
1558434154292004,4,5,3,0,4,4,1,-1
1558434154306777,4,20,3,4,2,-6,-3,0
1558434154306777,-2,-10,14,8,-3,-3,-1,1
1558434154314912,0,15,1,1,5,2,-3,0
1558434154314912,-5,-23,8,0,-9,-6,3,-4
1558434154329884,9,4,-11,-5,-1,-7,-2,5
1558434154329884,-7,1,-7,-3,-2,0,5,5
1558434154329884,-4,-16,-5,-2,6,4,6,0
1558434154329884,-1,9,-9,-4,-3,-7,-1,-1
1558434154344847,-6,-6,9,-3,-7,-7,-7,-4
1558434154344847,2,-9,-5,-1,-6,2,-5,-4
1558434154351825,-2,1,2,-3,-1,1,7,1
1558434154351825,1,11,22,20,10,1,-4,0
1558434154366764,-3,2,-25,-20,-17,-12,-4,-5
1558434154366764,1,-11,-2,2,5,5,4,5
1558434154374481,-3,-9,-8,1,2,4,-3,-4
1558434154374481,2,8,15,11,2,4,0,-2
1558434154389711,-3,-5,-5,-1,-1,-2,3,2
1558434154389711,0,5,11,-1,-7,-12,-8,-3
1558434154389711,2,-3,-7,-5,-1,-4,-7,0
1558434154389711,-2,1,-15,-12,-4,4,9,2
1558434154403402,8,17,30,20,6,-3,-3,2
1558434154403402,-3,-13,-24,-13,0,1,5,6
1558434154411382,0,-6,10,6,2,2,-6,-6
1558434154411382,6,15,19,7,7,4,4,5
1558434154426628,-7,-15,-5,3,-4,-1,-3,-7
1558434154426628,-2,-2,-4,0,0,-2,6,-2
1558434154434621,-2,-3,-8,-5,-2,-2,2,1
1558434154434621,9,28,24,11,-2,-7,-10,-5
1558434154449577,-4,-13,23,19,22,18,20,6
1558434154449577,-8,-17,-66,-46,-22,-5,-3,-7
1558434154450277,-2,-9,-3,-11,-1,2,-5,-1
1558434154450277,-7,-6,-2,-1,3,5,0,0
1558434154463532,3,6,17,6,3,-3,-10,-1
1558434154463532,7,15,23,16,8,3,1,1
1558434154471527,2,18,-4,-10,-9,-8,3,0
1558434154471527,-3,-12,-1,-1,-4,-2,-4,-1
1558434154486183,2,5,3,5,0,3,-5,-5
1558434154486183,7,8,44,30,11,4,-3,3
1558434154494460,-4,-7,-66,-40,-10,-3,-4,-1
1558434154494460,-1,2,2,7,1,-4,-8,0
1558434154509420,1,-9,2,1,3,7,18,4
1558434154509420,-10,-18,-15,-13,-6,-6,-17,-8
1558434154510120,2,13,31,21,2,0,0,-2
1558434154510120,-1,0,-5,-3,-2,-6,-1,1
1558434154524117,2,5,-22,-19,-5,-3,-8,1
1558434154524117,-1,-1,7,4,-13,-10,-1,-8
1558434154532063,-1,2,34,27,19,7,4,5
1558434154532063,5,5,19,25,15,16,4,1
1558434154546312,-15,-20,-84,-78,-49,-29,-14,-16
1558434154546312,-14,-27,3,-6,2,2,-6,1
1558434154554002,-2,-5,-11,-11,-4,-10,1,2
1558434154554002,1,0,28,15,8,5,10,3
1558434154568992,4,15,15,17,14,5,-4,1
1558434154568992,5,8,-4,4,-1,5,4,3
1558434154569956,-7,-7,-8,-4,-7,-8,-9,-6
1558434154569956,3,6,-1,-4,-4,-4,-5,-2
1558434154584216,1,0,-12,-4,2,-3,11,0
1558434154584216,-3,2,-4,-2,9,7,13,1
1558434154591898,3,9,7,6,1,4,-1,-3
1558434154591898,-4,-12,-12,-10,-4,-6,-8,-1
1558434154606160,-7,-21,-2,0,-5,-6,-8,-2
1558434154606160,3,5,9,8,2,-4,1,-2
1558434154613838,4,9,45,33,3,5,2,2
1558434154613838,-7,-13,-75,-51,-24,-13,-16,-10
1558434154629947,-7,-3,-2,-9,-4,1,-4,-1
1558434154629947,6,5,7,5,3,-1,-1,0
1558434154629947,0,-7,-7,-17,-7,-3,-2,0
1558434154629947,-6,-15,-2,2,0,-2,5,0
1558434154644087,1,4,20,17,8,6,1,2
1558434154644087,-1,3,-5,-8,-3,-1,-7,-4
1558434154652084,8,17,3,3,-5,-11,-1,0
1558434154652084,2,4,12,12,3,-4,-7,1
1558434154666021,4,7,4,18,14,11,17,5
1558434154666021,-1,3,-30,-30,-19,-10,-6,-4
1558434154673984,-6,-25,-8,-6,1,2,-3,-4
1558434154673984,-5,-5,2,-5,-10,-6,4,-1
1558434154689825,4,5,24,20,3,2,-10,-1
1558434154689825,2,4,-7,-3,0,1,3,4
1558434154689825,-6,-6,-11,-7,-7,-4,1,-2
1558434154689825,-2,-2,6,11,24,14,13,6
1558434154703627,17,29,31,13,4,3,0,-1
1558434154703627,-5,-8,-14,-13,-14,-7,-8,-4
1558434154711888,-11,-18,-27,-13,-6,-5,-3,-8
1558434154711888,-6,-8,13,3,4,-2,0,2
1558434154725856,-9,-27,-9,-3,-4,-2,3,-7
1558434154725856,4,10,5,1,4,2,1,1
1558434154734807,1,5,0,-1,-3,2,-5,-2
1558434154734807,4,8,9,5,-2,-6,-2,3
1558434154749770,0,0,-7,1,3,1,-4,-1
1558434154749770,-2,3,-6,2,2,2,6,-1
1558434154749770,-1,6,-5,-6,-4,3,9,4
1558434154749770,-8,-21,-24,-20,-14,-9,-5,-3
1558434154763715,-3,-5,17,12,3,3,3,2
1558434154763715,2,-5,-1,0,3,1,-3,-1
1558434154772457,6,12,16,8,4,0,-5,4
1558434154772457,1,8,-11,-10,-2,0,-3,-2
1558434154786377,-6,-4,-7,-3,-15,-6,-9,-4
1558434154786377,-4,0,13,10,3,-1,-1,0
1558434154794356,-1,-3,-8,-5,-3,-5,4,-1
1558434154794356,2,6,3,1,-3,-4,-5,1
1558434154809421,-4,-6,-13,-10,0,1,11,-4
1558434154809421,1,5,15,12,3,2,-2,1
1558434154810391,10,14,49,42,28,9,8,8
1558434154810391,-12,-21,-70,-62,-32,-9,-8,-9
1558434154832301,-6,-4,-6,-22,-12,-8,-8,-7
1558434154832301,-8,-6,-11,-6,-5,-3,-8,-6
1558434154833299,-10,-42,-9,-5,2,2,-5,-5
1558434154833299,12,22,25,25,19,10,10,6
1558434154846263,5,-1,-3,0,0,1,-7,3
1558434154846263,2,0,7,8,4,7,3,1
1558434154854241,4,14,-17,-21,-5,-2,0,-4
1558434154854241,-9,-14,-4,4,-6,-1,6,-5
1558434154869202,-3,-2,-8,-8,-5,-4,-8,-4
1558434154869202,2,5,12,9,-2,-8,-8,-1
1558434154870200,2,4,1,2,7,4,-4,2
1558434154870200,6,4,8,8,10,7,7,6
1558434154883164,-2,4,4,5,0,2,-2,1
1558434154883164,-3,-7,-11,-15,-7,-2,10,-3
1558434154899475,2,6,-9,-1,-1,-3,-5,3
1558434154899475,5,17,3,0,-1,2,4,1
1558434154906102,-12,-15,-17,-1,-2,-8,-11,-3
1558434154906102,2,-4,32,15,5,4,3,1
1558434154914432,-13,-26,-62,-44,-27,-13,-10,-9
1558434154914432,-2,-7,17,9,5,0,-10,-1
1558434154929043,8,6,-7,2,0,1,-1,5
1558434154929043,-4,-6,-1,-2,-3,-5,5,-1
1558434154930040,-1,1,9,7,8,9,2,-2
1558434154930040,2,10,17,15,-2,-2,-7,-2
1558434154944327,-1,-3,7,-1,-3,0,-1,1
1558434154944327,-3,0,-17,-3,0,1,0,-2
1558434154952143,0,-1,-3,-8,-2,-4,-7,0
1558434154952143,-1,-2,1,-5,5,5,10,2
1558434154966302,3,3,15,8,11,2,-5,-1
1558434154966302,8,17,18,17,7,6,13,5
1558434154974270,-2,2,-4,-2,-11,-1,3,-3
1558434154974270,0,1,-13,-2,0,0,-3,-4
1558434154989953,0,9,-5,-15,-11,-14,-2,-2
1558434154989953,-11,-22,7,3,4,0,-9,-1
1558434154989953,-4,-14,5,11,3,-2,-1,2
1558434154989953,-5,-15,-16,-12,-13,-6,-8,-7
1558434155003844,9,23,7,1,0,0,21,6
1558434155003844,-7,-12,-14,-8,-2,-1,0,-7
1558434155012138,2,3,-1,5,-3,-5,-1,0
1558434155012138,0,4,11,6,4,2,-8,-3
1558434155026077,-2,-7,-3,5,4,6,0,2
1558434155026077,2,3,11,3,5,-3,-7,1
1558434155034983,-4,0,-21,-15,-6,0,15,0
1558434155034983,4,12,8,6,-4,-6,1,1
1558434155049038,-10,-20,-7,-5,-3,-1,-4,-3
1558434155049038,-2,-6,-15,-7,-3,3,3,-5
1558434155057015,2,4,18,14,6,3,-8,-3
1558434155057015,-2,-2,3,3,0,-7,0,2
1558434155063792,3,3,6,3,5,8,7,3
1558434155063792,7,7,0,1,-2,-7,3,-2
1558434155071990,3,25,5,-5,-4,1,-4,-2
1558434155071990,-21,-51,-44,-27,-17,-9,-13,-8
1558434155095071,0,-2,-16,-11,-2,-1,-5,-10
1558434155095071,-8,-9,1,0,4,4,-4,3
1558434155096071,-1,-4,13,6,4,2,1,-1
1558434155096071,3,9,7,5,0,-1,-2,-2
1558434155109193,-1,1,14,16,5,-1,-9,-2
1558434155109193,15,21,8,5,8,1,-9,2
1558434155117223,-8,6,-39,-36,-23,-6,3,-5
1558434155117223,-8,-21,7,3,3,3,3,0
1558434155124164,-9,-16,-8,-4,2,-4,-4,-2
1558434155124164,0,0,14,9,5,8,3,2
1558434155131162,1,-1,3,7,0,-5,-6,-1
1558434155131162,7,18,-3,-5,-8,-11,-5,1
1558434155146123,8,22,20,6,6,4,3,5
1558434155146123,-12,-30,-40,-20,-13,-10,-5,-4
1558434155154909,1,-5,7,2,5,2,-1,0
1558434155154909,1,16,-13,-12,6,9,-1,-1
1558434155168767,-2,-5,0,1,-8,-4,8,-3
1558434155168767,-3,-7,-2,-8,-9,-8,-6,-2
1558434155176796,-4,-10,6,6,5,3,-6,-1
1558434155176796,6,7,12,7,2,2,6,1
1558434155183986,2,2,-4,-4,-4,-4,-5,1
1558434155183986,-2,9,-4,-8,-13,-15,-9,-4
1558434155191708,4,12,37,26,15,7,6,4
1558434155191708,4,13,8,4,12,11,9,3
1558434155206663,-23,-46,-84,-51,-36,-15,-15,-12
1558434155206663,-2,-5,-1,0,-3,2,3,2
1558434155213646,2,-2,4,-7,-2,-8,-1,-1
1558434155213646,12,31,32,18,7,2,1,2
1558434155228885,-1,-18,13,11,10,7,4,5
1558434155228885,-2,3,-6,-5,-6,-2,-6,-1
1558434155236583,0,-3,1,3,-1,-7,-11,-2
1558434155236583,-4,-6,-9,-8,-12,-8,-4,-5
1558434155251546,11,18,10,11,14,9,13,8
1558434155251546,-1,5,12,9,7,6,10,1
1558434155252540,7,19,29,16,7,3,-4,1
1558434155252540,-18,-24,-76,-40,-26,-13,-13,-10
1558434155265539,-2,-17,-7,-6,-9,-11,-12,-5
1558434155265539,-8,-23,-3,-10,0,-1,-7,-7
1558434155274503,-1,-7,0,7,7,9,10,3
1558434155274503,5,2,27,16,16,12,1,1
1558434155297866,5,17,12,7,-2,-1,-1,1
1558434155297866,7,12,-2,2,0,-3,3,2
1558434155298417,-5,-9,-13,-10,-7,-7,-4,-3
1558434155298417,-2,-5,5,4,6,5,9,-1
1558434155312564,0,8,9,-2,1,-2,-7,0
1558434155312564,2,11,7,3,1,4,8,0
1558434155312564,-2,-10,4,5,4,8,9,2
1558434155312564,2,7,3,-5,-5,-3,-8,-1
1558434155326529,-6,-6,-14,-14,-8,-7,7,2
1558434155326529,-10,6,-7,-2,-5,-5,-2,-2
1558434155334767,-4,-20,-4,-12,-7,-7,-14,-4
1558434155334767,0,-7,7,12,5,2,0,6
1558434155348285,7,11,24,19,18,16,13,2
1558434155348285,3,0,-7,-8,-13,-9,-4,1
1558434155356264,-1,2,-6,-2,-3,-4,2,3
1558434155356264,2,3,9,5,-5,-9,-8,-1
1558434155371263,0,14,0,-1,5,4,-6,0
1558434155371263,2,-2,-4,-2,3,3,-1,-1
1558434155372219,-5,-5,-3,6,-2,1,4,0
1558434155372219,5,1,9,6,3,-5,0,1
1558434155386184,-18,-19,-25,-23,-14,-6,-12,-10
1558434155386184,5,16,16,7,1,0,-7,-5
1558434155395159,-11,-34,-51,-20,-3,-2,-2,-1
1558434155395159,-4,-9,3,-1,-2,-3,4,-2
1558434155408123,6,11,27,17,7,3,1,-1
1558434155408123,-5,-6,-27,-12,-2,2,-1,1
1558434155416101,2,10,16,2,-5,-3,-14,-3
1558434155416101,6,11,4,-1,7,11,24,9
1558434155431120,8,20,21,23,5,-4,13,4
1558434155431120,-16,-41,-44,-33,-15,-10,-3,-6
1558434155432059,2,8,18,10,3,2,0,-4
1558434155432059,-5,-7,-17,-9,-9,-4,-19,-6
1558434155446023,-4,-5,-26,-23,-9,-3,-3,-2
1558434155446023,8,14,18,9,8,4,0,4
1558434155454029,0,-4,1,0,-2,-5,1,2
1558434155454029,-3,1,11,4,3,-1,-8,-7
1558434155467964,1,3,10,9,-3,-7,-2,-3
1558434155467964,2,6,14,11,11,6,1,2
1558434155476974,-7,-4,-27,-21,-6,-6,-7,-6
1558434155476974,2,3,10,4,-8,0,1,0
1558434155491901,-2,-8,-8,2,1,7,1,4
1558434155491901,6,16,7,-2,2,0,8,4
1558434155491901,3,-2,12,1,-1,2,0,0
1558434155491901,-16,-21,-14,4,-1,-2,4,-5
1558434155505862,-2,-10,7,-1,-5,-3,-12,-6
1558434155505862,1,12,3,2,-9,-8,-16,0
1558434155513840,6,6,-12,-8,2,-2,18,5
1558434155513840,-2,-11,-6,-14,-5,-6,-4,-2
1558434155536779,-4,-7,0,5,4,7,-4,-2
1558434155536779,-3,-3,8,5,0,-2,-2,-2
1558434155537776,2,14,5,8,1,2,-7,-3
1558434155537776,2,4,-4,9,2,-1,-2,5
1558434155551742,0,-2,-18,-29,-12,-10,-4,1
1558434155551742,-1,-7,0,5,6,8,8,1
1558434155552737,-5,-5,-2,-5,-12,-6,-5,-2
1558434155552737,-1,1,16,4,6,2,-2,-3
1558434155565736,9,28,5,8,5,-1,3,5
1558434155565736,-6,-24,-32,-17,-8,-5,-8,-1
1558434155573682,-5,-1,7,6,1,4,5,-1
1558434155573682,-5,-11,-5,-14,-16,-15,-7,-5
1558434155588700,1,-11,8,10,10,6,-4,-2
1558434155588700,-4,6,4,-3,-9,-8,6,-1
1558434155596619,8,21,17,13,16,7,2,2
1558434155596619,-5,-4,-9,1,-10,-2,2,-3
1558434155611578,-14,-28,-26,-20,-12,-12,-13,-12
1558434155611578,3,-4,-23,-16,-4,1,-2,1
1558434155612577,-13,-10,-7,-7,-9,-5,1,-6
1558434155612577,9,29,27,18,16,10,4,4
1558434155625573,-2,-3,-18,-12,-5,-6,0,0
1558434155625573,-1,0,18,15,7,7,-3,-2
1558434155634519,-3,-14,-1,-1,-5,2,3,4
1558434155634519,-1,-6,-13,-4,4,-4,5,5
1558434155648484,-1,1,17,7,-2,-3,-2,0
1558434155648484,1,9,-5,-13,-11,-8,-8,-8
1558434155656460,1,-8,-6,8,7,3,-2,-3
1558434155656460,6,7,8,-2,8,6,5,4
1558434155671429,1,-1,0,1,2,-4,3,4
1558434155671429,0,5,22,18,7,3,2,0
1558434155672418,-7,-7,-15,-14,-11,-8,-17,-10
1558434155672418,8,17,20,9,6,8,8,4
1558434155686385,-4,-19,-29,-8,0,5,6,-1
1558434155686385,3,5,-2,-2,-3,-2,-3,-4
1558434155694357,-7,-6,15,15,5,-6,-3,1
1558434155694357,-3,-6,-7,-7,-5,-5,-6,-5
1558434155708321,-7,-12,-12,-17,-8,1,-5,-7
1558434155708321,6,9,20,15,6,2,8,5
1558434155716299,0,-4,-18,-11,-3,2,0,-3
1558434155716299,-2,-3,4,8,0,-3,-4,0
1558434155732257,5,9,7,14,4,1,4,4
1558434155732257,-4,-9,-2,4,0,2,-2,2
1558434155739237,-1,-2,-8,-17,-6,-4,3,2
1558434155739237,-2,-5,-21,-11,-4,-3,-7,-3
1558434155746220,2,21,16,14,4,4,5,-1
1558434155746220,-9,-34,-25,-14,-3,5,1,-2
1558434155754198,8,19,22,13,2,0,1,2
1558434155754198,-7,-11,-26,-17,-4,-2,-3,-5
1558434155768160,-4,-7,-1,-5,-2,-5,-2,-2
1558434155768160,4,23,12,5,3,-1,-1,-6
1558434155776139,-1,-1,-2,-5,-10,-10,-10,-5
1558434155776139,-3,-16,-22,-9,0,0,0,0
1558434155792097,-10,-8,22,13,9,7,10,4
1558434155792097,1,1,-13,-1,1,0,4,2
1558434155792097,0,-11,-5,-7,1,3,-5,-3
1558434155792097,0,8,16,2,-9,-4,0,-3
1558434155806059,0,3,-12,-7,-6,0,-3,-3
1558434155806059,2,17,2,6,1,-3,2,1
1558434155814038,4,-1,-10,1,-1,0,-5,5
1558434155814038,-2,1,-18,-19,-2,2,5,3
1558434155828001,-3,-8,15,13,-1,-2,-6,-4
1558434155828001,1,-2,-2,-9,-2,-9,-1,5
1558434155836977,1,5,-20,-10,-7,-10,-10,-1
1558434155836977,1,-11,6,6,5,5,-1,-3
1558434155851938,-1,12,-27,-23,-13,-3,-3,-2
1558434155851938,3,3,13,4,-4,-3,-12,-2
1558434155851938,-8,-2,14,12,3,1,18,3
1558434155851938,-9,-37,9,5,-6,-5,-9,-3
1558434155865899,4,14,8,7,1,0,0,0
1558434155865899,0,-11,-15,-3,3,-5,3,2
1558434155874876,0,5,3,-2,-1,4,0,-3
1558434155874876,7,23,26,16,2,-2,-2,0
1558434155888838,-7,-24,-14,-7,-3,-1,-5,-3
1558434155888838,-3,-3,-14,-11,-9,-3,-7,-3
1558434155896816,-6,-6,-7,-2,0,2,2,-2
1558434155896816,-6,-2,-17,-14,-3,2,3,-3
1558434155911776,5,19,11,3,-3,-13,-9,-3
1558434155911776,-5,-19,12,10,10,9,13,3
1558434155911776,3,-11,-3,3,9,-2,5,2
1558434155911776,6,22,20,9,-2,0,-5,-1
1558434155925740,1,-14,-3,4,-1,-3,0,2
1558434155925740,-12,-17,-30,-25,-8,5,2,-6
1558434155933720,4,16,12,2,-4,-9,-1,1
1558434155933720,-6,-6,-12,-7,1,3,-2,-6
1558434155948677,6,9,33,24,9,5,2,1
1558434155948677,-4,-1,-21,-8,-10,-14,-5,-5
1558434155956657,-3,-10,10,-1,5,6,-4,-4
1558434155956657,-4,2,-36,-19,-4,3,5,1
1558434155970620,-1,5,5,-5,-10,2,0,-2
1558434155970620,-3,-2,15,15,2,-1,-4,0
1558434155978598,-1,-18,12,1,1,-2,0,6
1558434155978598,-13,-10,-35,-20,-6,-9,-7,-9
1558434155985580,6,6,-11,-4,-1,3,0,-3
1558434155985580,-4,0,22,7,-4,-3,-9,-7
1558434155993559,-1,13,-6,-5,-4,-2,-3,0
1558434155993559,-3,6,22,15,7,1,4,0
1558434156008517,0,-2,-8,0,4,1,3,2
1558434156008517,5,5,4,5,4,4,3,2
1558434156017494,-3,-7,-11,-8,-7,-2,-1,-4
1558434156017494,-10,-29,-35,-26,-15,-11,-12,-7
1558434156030460,1,4,6,-7,0,0,4,2
1558434156030460,16,20,14,10,5,3,0,4
1558434156039435,-12,-3,-19,-9,-4,1,1,-7
1558434156039435,3,14,18,15,3,-2,-1,3
1558434156045420,-10,-21,-19,-16,-7,-7,-5,-4
1558434156045420,5,8,24,10,5,3,-6,0
1558434156062375,2,2,-8,-1,-1,4,3,3
1558434156062375,8,6,6,4,-4,-4,-1,1
1558434156068358,-9,-24,4,4,9,3,1,-1
1558434156068358,-6,-4,0,-5,-3,-3,2,-4
1558434156077333,1,7,5,10,1,-1,-1,-3
1558434156077333,4,-2,-4,-5,-2,-1,0,2
1558434156091297,2,9,19,11,4,1,1,2
1558434156091297,-10,-15,-22,-20,-9,-7,-4,-5
1558434156100274,4,11,-27,-13,-3,-3,-4,-1
1558434156100274,2,-11,15,7,1,3,2,-1
1558434156106256,-10,-4,4,4,-2,2,-4,-6
1558434156106256,0,-2,-4,4,5,-1,3,1
1558434156123211,5,6,26,9,7,5,4,2
1558434156123211,11,23,-3,7,2,0,1,1
1558434156128197,1,-7,-9,-9,-3,-3,0,1
1558434156128197,2,-4,4,1,-5,-4,-1,0
1558434156137175,2,7,-18,-6,-3,1,-3,-2
1558434156137175,-10,-17,12,7,3,-2,-2,0
1558434156151135,12,29,10,4,-1,0,0,2
1558434156151135,-5,-17,-38,-17,-4,-2,-3,-4
1558434156160112,0,-7,13,7,2,-1,0,1
1558434156160112,-1,-1,-15,-14,-8,-4,1,0
1558434156173078,0,-5,-3,1,0,-2,-1,-1
1558434156173078,10,12,17,10,4,4,1,3
1558434156182055,0,6,4,1,0,1,-2,-3
1558434156182055,-5,-7,-17,-8,-5,-5,-2,-4
1558434156188037,6,10,-5,-8,-1,0,0,3
1558434156188037,-5,-28,-5,-10,-3,1,0,-3
1558434156197015,-3,1,7,-2,-1,-4,-4,-3
1558434156197015,3,5,13,6,4,1,2,1
1558434156210976,-9,-15,-23,-6,-1,-1,-2,-3
1558434156210976,4,14,21,6,-1,-2,-2,2
1558434156219952,5,2,0,0,-1,-1,-3,1
1558434156219952,1,5,3,4,1,-1,-1,2
1558434156233915,0,-2,-6,-4,-4,-3,-1,-5
1558434156233915,-7,-12,11,6,-1,-1,-2,-3
1558434156241893,-9,-10,-21,-10,-6,-3,-2,-3
1558434156241893,7,6,27,20,4,2,0,0
1558434156248875,2,3,-19,-14,-4,-3,0,1
1558434156248875,-1,15,18,6,3,2,2,1
1558434156256856,-3,-13,-27,-19,-11,-3,-1,-2
1558434156256856,-4,7,3,-4,-2,-2,0,-1
1558434156270816,-15,-34,3,4,3,2,-3,-5
1558434156270816,9,13,6,10,2,-1,0,2
1558434156279793,-15,-15,-5,2,1,0,-3,-4
1558434156279793,-2,2,7,2,-4,1,2,-4
1558434156293755,4,9,-5,-3,-4,-4,-4,-4
1558434156293755,-13,-14,-2,-1,0,0,1,-5
1558434156302736,9,19,30,18,4,2,2,0
1558434156302736,5,-1,-44,-28,-5,-4,-1,2
1558434156308716,-2,-2,17,0,0,-1,-3,3
1558434156308716,0,6,-13,-6,-2,-1,1,-2
1558434156317697,-5,-11,4,0,-1,-3,-1,-3
1558434156317697,-3,-6,22,13,6,6,1,0
1558434156330655,8,8,-8,-1,-1,-4,-2,-2
1558434156330655,1,7,-3,-3,3,0,3,1
1558434156339632,9,16,-7,-4,-2,1,1,1
1558434156339632,-5,-18,-12,-6,-4,-2,-4,1
1558434156362570,-1,8,10,14,0,-1,2,3
1558434156362570,-7,-10,-9,-3,0,-1,-3,-4
1558434156363568,-12,-12,5,-3,2,1,3,-2
1558434156363568,-8,-5,-20,-13,-9,-7,-6,-8
1558434156368556,5,8,-1,-4,-6,-3,-2,-1
1558434156368556,-10,-16,-10,-5,-5,-4,-4,-4
1558434156377536,16,17,24,14,4,1,2,3
1558434156377536,1,4,-8,-7,-1,-2,2,3
1558434156390497,-7,-10,-3,0,0,0,-2,-3
1558434156390497,-2,-16,-13,-6,-6,-4,-4,-3
1558434156399471,1,3,-7,2,1,0,2,1
1558434156399471,-8,-12,24,17,4,1,-2,-2
1558434156413434,-3,-3,-2,-14,-1,1,3,1
1558434156413434,4,1,-23,-5,-7,-5,-7,0
1558434156422411,-5,-6,7,-5,-2,0,1,-1
1558434156422411,3,7,0,1,-5,-5,-2,-1
1558434156428395,1,8,3,6,0,1,2,1
1558434156428395,-9,-10,17,6,5,4,2,-1
1558434156437377,2,-4,-17,-5,0,0,-4,1
1558434156437377,-2,-7,-3,-2,-2,0,-1,0
1558434156450336,-2,-6,-1,-8,-9,-10,-7,-9
1558434156450336,-6,3,-5,-6,-1,-2,-2,-4
1558434156459312,13,-1,3,8,8,11,8,8
1558434156459312,-7,-5,-6,-2,1,1,4,2
1558434156473275,9,23,6,6,0,1,-1,2
1558434156473275,-14,-25,0,2,-5,-3,-2,-1
1558434156482251,-4,-16,-18,-14,-7,-8,-8,-4
1558434156482251,6,8,5,6,3,0,0,3
1558434156488235,-7,-18,3,-1,-2,-5,-3,-5
1558434156488235,10,27,-4,-6,0,0,2,-1
1558434156497248,-7,-11,-31,-15,-8,-4,-4,-7
1558434156497248,-1,-4,10,3,3,0,-2,-2
1558434156511173,3,10,-1,-3,-1,0,0,3
1558434156511173,-8,-13,14,4,-5,-1,0,2
1558434156520149,3,7,-13,-5,-4,-3,-3,-4
1558434156520149,0,5,-2,-5,-2,0,-2,-2
1558434156533115,-2,-7,-1,4,4,1,0,3
1558434156533115,4,-3,-9,-9,0,2,5,2
1558434156542090,-2,9,25,15,0,-3,1,2
1558434156542090,-4,-8,-10,-8,-7,-4,-3,-4
1558434156548081,-5,-1,-8,-1,1,0,-2,-2
1558434156548081,13,19,32,21,7,1,4,7
1558434156557050,-8,-5,-38,-25,-6,-5,-7,-5
1558434156557050,7,4,-5,-6,-1,-4,-1,-1
1558434156571014,-6,-17,-22,-15,-3,0,1,-2
1558434156571014,3,13,8,0,-5,-3,-3,-5
1558434156579990,6,-3,28,13,5,1,-2,4
1558434156579990,-10,-15,-9,0,0,-1,-2,-6
1558434156592954,4,6,-2,-2,0,0,0,-1
1558434156592954,8,18,-2,4,-1,0,-2,4
1558434156602929,-9,-7,12,9,3,0,2,0
1558434156602929,-6,-15,-17,-12,-1,0,0,-1
1558434156607914,-8,-10,10,6,-1,1,-2,-1
1558434156607914,11,9,-12,-4,-3,-2,1,1
1558434156616891,4,3,0,1,-1,-1,-1,-3
1558434156616891,-16,0,5,-7,-7,-4,-2,-6
1558434156630854,10,3,-4,2,-1,-5,0,-2
1558434156630854,-5,0,1,-6,6,2,-1,1
1558434156639829,-12,-3,4,4,-7,-3,-3,-6
1558434156639829,3,-1,0,5,0,-1,-1,0
1558434156653791,-1,-12,2,1,1,2,2,0
1558434156653791,-11,-12,-7,-5,-4,-2,-4,-9
1558434156661776,5,14,6,1,-2,-3,-2,0
1558434156661776,2,-11,4,5,1,1,-2,1
1558434156668756,-5,5,-4,-2,0,0,-1,0
1558434156668756,0,-10,-5,3,1,0,-2,-1
1558434156677728,2,1,-17,-17,-2,-1,-5,-1
1558434156677728,1,-2,10,8,2,4,4,-1
1558434156690694,5,-2,0,8,2,3,3,4
1558434156690694,0,3,-10,-7,-3,-3,-2,-4
1558434156699678,-10,-10,-13,-16,-13,-8,-4,-4
1558434156699678,12,15,21,11,3,0,-2,2
1558434156713632,-10,1,-5,-7,-4,-2,-2,-4
1558434156713632,2,9,4,9,2,3,0,-1
1558434156722608,-2,-11,-4,-3,-1,-2,-4,-2
1558434156722608,-3,-6,0,-7,-1,-2,0,0
1558434156728592,-8,9,14,4,0,2,1,1
1558434156728592,3,20,6,-1,2,1,1,3
1558434156737568,-7,-20,-14,-1,3,3,2,-3
1558434156737568,8,5,-2,3,1,3,1,0
1558434156750536,-1,4,3,-2,-4,-5,-4,-3
1558434156750536,-3,-6,-7,-9,-5,-4,-3,-5
1558434156759511,-1,14,7,6,-1,-1,0,-3
1558434156759511,-2,-25,-22,-5,-1,-3,-2,1
1558434156773471,2,-1,0,5,1,0,1,4
1558434156773471,-20,-10,-9,-19,-9,-3,-3,-9
1558434156782447,0,-3,2,0,1,-1,1,0
1558434156782447,0,12,3,-3,-4,-1,-7,-2
1558434156788431,-3,-3,-8,1,3,3,3,0
1558434156788431,11,-2,3,5,0,-2,1,7
1558434156797407,-8,10,10,1,4,2,2,-1
1558434156797407,4,8,1,5,-1,-2,-1,2
1558434156811379,-6,-11,0,-1,3,3,1,-2
1558434156811379,4,3,10,5,-2,-3,-1,-3
1558434156819352,-12,-21,-15,-9,-3,-1,-3,-1
1558434156819352,5,11,9,5,-1,-1,1,0
1558434156842289,3,6,8,-4,1,0,-2,-3
1558434156842289,3,-11,-22,4,1,2,0,2
1558434156843285,-8,-3,-3,-4,-4,-5,-4,-5
1558434156843285,-13,-15,15,12,2,-3,-3,-3
1558434156848273,6,1,-17,-19,-6,-3,-3,-3
1558434156848273,-5,-12,5,2,1,0,0,1
1558434156863232,10,6,2,0,0,-1,-1,0
1558434156863232,0,1,-14,-7,-1,1,2,1
1558434156871212,5,9,9,4,-1,-1,-1,1
1558434156871212,-3,-4,-5,-1,-1,-2,-5,-1
1558434156880193,13,4,14,8,-1,2,4,6
1558434156880193,-23,-10,-2,-1,2,-1,-1,-7
1558434156893152,-1,-8,-22,-9,-6,-6,-5,-1
1558434156893152,0,-1,-1,-7,-2,-1,0,-3
1558434156902128,2,6,2,2,0,0,0,-1
1558434156902128,4,7,14,9,2,0,-3,-2
1558434156908112,-6,-12,-25,-6,-7,-5,-3,-2
1558434156908112,-8,-3,2,-14,-3,-2,-1,-1
1558434156917087,9,7,13,10,5,3,1,1
1558434156917087,2,4,-2,-6,-4,-4,-2,-2
1558434156931051,-12,-16,-15,-2,-3,-2,-3,-3
1558434156931051,2,5,1,1,-3,-2,-2,-4
1558434156940026,13,19,13,6,5,2,0,3
1558434156940026,5,5,-1,-4,2,2,2,0
1558434156952998,-25,-42,0,2,-3,-4,-3,-10
1558434156952998,3,1,-6,2,1,1,-2,-2
1558434156961967,-1,-14,-15,-13,-1,-3,-1,-1
1558434156961967,7,-2,-2,5,-4,-2,0,3
1558434156968957,11,26,17,5,2,1,1,3
1558434156968957,-2,-5,1,4,0,0,-1,3
1558434156976927,-4,-4,-8,3,-4,-3,-1,-3
1558434156976927,3,13,18,-6,0,-1,-4,-4
1558434156990889,11,5,-21,-6,0,-1,0,5
1558434156990889,-9,-11,-28,-12,-7,-4,-3,-5
