timestamp,emg1,emg2,emg3,emg4,emg5,emg6,emg7,emg8
1558441284689182,0,2,0,9,4,2,3,2
1558441284689182,3,0,-1,-6,-1,-18,-1,0
1558441284695165,-1,0,-1,-4,-1,-1,-4,-4
1558441284695165,-1,-2,-3,4,-5,1,2,-1
1558441284696163,-2,-3,0,-6,-6,-12,-8,-3
1558441284696163,0,1,-1,-3,6,23,7,0
1558441284697159,-1,-1,-1,8,-9,-13,-4,-1
1558441284697159,0,1,3,0,6,1,2,3
1558441284708130,-1,-3,-5,-8,3,6,3,-3
1558441284708130,-3,-4,-2,3,-6,-8,-7,-4
1558441284716109,-1,-3,-1,-1,-5,2,-3,-1
1558441284716109,-1,0,-1,-2,-2,7,-1,-2
1558441284723091,0,-1,-1,-2,-2,-8,-2,-2
1558441284723091,0,1,-2,-6,-5,-4,-3,0
1558441284738050,1,0,-1,-2,3,6,3,-1
1558441284738050,-2,-3,-2,-6,-5,-8,-4,-4
1558441284746029,-2,-2,0,3,-1,2,-2,-1
1558441284746029,-4,-1,0,2,-2,-7,-5,-1
1558441284754008,-2,-1,-1,-7,-1,4,0,-3
1558441284754008,1,-2,-2,-1,-9,-4,-8,-2
1558441284768968,1,2,7,13,14,20,13,6
1558441284768968,1,1,0,-5,1,-15,-1,3
1558441284775948,-3,-4,-5,-2,-10,-8,-8,-5
1558441284775948,0,0,-1,10,11,11,6,2
1558441284815842,0,-1,4,-9,3,12,4,1
1558441284815842,-1,1,1,-8,-2,-4,-5,-3
1558441284816839,-2,-3,-5,9,1,-3,-4,0
1558441284816839,1,0,3,1,-1,-5,-3,-2
1558441284817837,-2,-2,-4,-12,-8,-6,-7,-5
1558441284817837,-2,-3,-3,4,-4,3,0,-5
1558441284819833,-2,0,0,-4,-2,0,2,0
1558441284819833,-1,0,0,-2,2,-1,0,1
1558441284836785,0,-1,-3,1,3,2,3,-1
1558441284836785,0,-2,1,7,-1,4,1,1
1558441284837783,0,0,-2,-9,-13,-12,-9,-4
1558441284837783,2,2,0,-6,1,-4,4,2
1558441284842770,1,0,0,14,8,-1,-2,2
1558441284842770,-1,0,2,-5,1,-1,-2,2
1558441284857729,0,-1,-3,0,0,5,3,-3
1558441284857729,-2,-2,1,4,-4,4,-3,-3
1558441284864712,-3,-4,-5,-6,-11,-13,-6,-3
1558441284864712,0,-2,-6,-7,3,3,-2,0
1558441284873688,1,-1,0,-2,1,-2,-2,0
1558441284873688,-3,-1,-4,-2,-5,0,-2,-3
1558441284888649,-2,-1,0,-2,-3,-5,0,-3
1558441284888649,-1,-1,2,2,2,-3,-3,-1
1558441284895629,-1,0,-2,-4,-3,2,2,1
1558441284895629,-1,-1,-2,1,4,5,-2,1
1558441284902610,-1,-1,-8,-11,0,-2,-2,-3
1558441284902610,-3,-1,8,7,1,-12,-2,1
1558441284917570,-3,-2,-1,-2,5,10,3,2
1558441284917570,-3,-4,0,1,-5,2,-2,-4
1558441284925549,-2,-1,-6,-3,-3,5,0,-2
1558441284925549,2,2,3,0,1,-16,0,1
1558441284934525,-1,-3,0,-4,-1,1,-2,-2
1558441284934525,0,-3,-1,-5,0,1,3,1
1558441284948487,-1,-2,-3,5,-8,-6,-7,-2
1558441284948487,-4,-2,-6,-5,-4,11,0,0
1558441284955468,1,2,2,-2,2,3,5,2
1558441284955468,1,0,-4,0,-4,-9,-4,-2
1558441284962450,0,1,0,1,3,-1,2,1
1558441284962450,2,0,-1,-1,5,2,2,0
1558441284977409,1,0,2,-2,-6,-11,-5,-3
1558441284977409,-3,-1,-2,-2,-4,3,-5,-4
1558441284985390,0,-1,2,0,4,6,5,0
1558441284985390,0,-1,-5,0,-3,3,0,-2
1558441284994364,0,-2,-1,-2,5,1,-1,0
1558441284994364,0,-1,4,1,-5,-7,-8,-4
1558441285008326,1,3,1,0,6,-1,8,6
1558441285008326,-2,-1,-2,1,-3,1,1,1
1558441285015308,-3,-4,-4,0,-1,1,-5,-4
1558441285015308,-2,-2,-4,-2,-1,9,-4,-2
1558441285022290,-1,0,2,-1,-6,-7,-7,-3
1558441285022290,-1,-1,-4,-6,-7,0,-2,-5
1558441285037250,-1,0,2,15,10,1,0,1
1558441285037250,-1,-3,-6,-18,-5,-8,3,1
1558441285045228,0,-2,1,0,-6,-3,-3,-1
1558441285045228,-1,1,-5,-3,6,2,4,2
1558441285054205,0,1,6,7,2,-8,4,3
1558441285054205,-3,-1,2,-2,-1,-5,-2,-1
1558441285068168,0,0,-1,2,2,3,-5,-3
1558441285068168,0,-1,0,-7,-12,8,-7,-6
1558441285075149,-3,-2,-6,-6,-10,-11,-9,-6
1558441285075149,3,1,3,5,14,-9,10,8
1558441285083128,-3,0,4,-1,-2,-3,-4,-1
1558441285083128,-2,-3,-4,-1,-8,-8,-6,-2
1558441285099085,0,0,2,6,15,26,6,-1
1558441285099085,-1,-2,-7,-11,-7,1,-1,-3
1558441285105071,-2,0,-3,1,0,-5,-2,-1
1558441285105071,-4,-3,1,1,4,3,-1,-4
1558441285120029,0,0,-1,-12,-16,-18,-2,-2
1558441285120029,0,-2,-3,1,1,-2,0,-1
1558441285128008,-1,0,-1,-2,-1,9,0,-3
1558441285128008,1,-2,-4,-3,4,-2,0,4
1558441285134988,-1,-3,-2,2,0,-4,0,2
1558441285134988,-1,-2,1,1,-1,8,-3,-3
1558441285142967,1,-1,-4,-6,-15,-19,-9,-3
1558441285142967,-2,-2,0,2,1,-2,2,-2
1558441285157929,1,2,-5,-15,0,8,6,2
1558441285157929,-1,-1,-3,2,-2,4,-3,-2
1558441285164909,0,-2,-3,-1,3,13,3,3
1558441285164909,2,0,1,2,7,3,7,3
1558441285179869,-2,-1,0,2,4,4,-5,-1
1558441285179869,-2,0,-2,-1,-1,-1,2,3
1558441285188845,-2,-2,4,6,1,-3,0,-3
1558441285188845,-3,-4,-4,-13,-18,-15,-8,-7
1558441285194828,-2,-3,-5,-5,-10,-9,-8,-3
1558441285194828,-1,2,4,3,9,5,-2,-1
1558441285202811,0,-1,1,6,4,-1,6,1
1558441285202811,1,4,-2,-2,0,-4,0,2
1558441285217767,-2,-5,-3,-15,-8,-1,1,-1
1558441285217767,-2,-1,1,-2,-6,-5,-8,-5
1558441285224748,-4,-5,-3,-3,-2,2,-1,-2
1558441285224748,0,0,1,3,6,4,3,-1
1558441285239708,-3,-2,0,-1,-6,2,-6,-5
1558441285239708,-3,-6,-8,-1,-5,-6,-5,-5
1558441285248685,4,6,9,6,18,6,19,8
1558441285248685,0,-2,0,0,-2,-2,-7,-3
1558441285254670,-2,1,-1,-4,-4,-11,3,1
1558441285254670,-3,-1,-3,2,-4,-3,-8,-2
1558441285262648,-3,-3,-8,-5,-5,3,-4,-3
1558441285262648,-1,-1,1,3,1,-1,0,-2
1558441285277608,-3,-1,0,1,-5,-4,-4,-2
1558441285277608,3,2,0,0,9,10,5,2
1558441285285586,-2,-1,-1,-1,3,-11,-3,0
1558441285285586,1,2,5,6,-1,-8,-2,4
1558441285300545,-2,-4,-5,-7,-6,-5,-5,-4
1558441285300545,-2,0,-1,-2,-3,6,5,0
1558441285316503,-1,-1,-1,-1,-2,0,-8,-5
1558441285316503,-1,-5,-4,-3,-2,9,0,-1
1558441285317501,0,-4,-7,0,-3,-7,-3,-3
1558441285317501,0,0,-2,-3,-2,-7,1,1
1558441285322488,2,0,0,0,5,0,6,0
1558441285322488,-1,-1,2,1,-4,-3,1,0
1558441285337448,-1,0,-4,-8,1,13,0,0
1558441285337448,-1,0,1,3,1,-3,0,0
1558441285345428,-4,-3,-2,-8,-14,-7,-14,-3
1558441285345428,1,0,-4,0,1,-2,1,0
1558441285361383,0,0,1,3,-3,-15,2,2
1558441285361383,0,-4,0,-2,0,-8,-4,-1
1558441285368364,-1,-3,-5,-5,5,18,7,1
1558441285368364,-5,-1,6,3,-5,-1,-2,-2
1558441285375346,-2,0,-3,-4,2,7,1,-2
1558441285375346,0,1,-2,0,-3,-6,-2,1
1558441285382327,-1,-1,-3,-4,-13,-10,-6,-2
1558441285382327,-2,-1,-3,-2,-2,4,3,-3
1558441285397288,3,1,4,7,7,4,5,2
1558441285397288,1,1,2,1,9,-2,6,2
1558441285405266,-3,-4,-3,-2,-1,5,0,-3
1558441285405266,-3,-2,1,-1,-5,-7,-9,-3
1558441285429202,2,1,0,2,-1,-8,-4,1
1558441285429202,-4,-2,-4,2,1,16,2,-2
1558441285430198,-3,-2,-2,-12,-20,-24,-6,-5
1558441285430198,-1,-2,-4,2,13,-1,2,2
1558441285435186,1,0,0,2,2,4,-2,-2
1558441285435186,0,-1,-1,-1,-3,-3,-3,-2
1558441285451143,0,0,0,1,5,11,2,-2
1558441285451143,-1,-1,-3,-4,-6,-1,-4,-1
1558441285458124,-2,-2,-1,0,-2,-1,-3,-1
1558441285458124,-2,-2,0,-3,-3,-5,-2,-1
1558441285465107,0,0,1,-1,4,-1,-1,1
1558441285465107,0,-2,-6,-12,-6,-4,2,0
1558441285482061,2,-1,4,10,17,21,8,3
1558441285482061,-2,-2,-1,-8,-6,-5,-4,-2
1558441285488045,-4,-1,-1,2,0,3,-1,-1
1558441285488045,-1,0,1,3,2,5,2,-1
1558441285495028,-2,-3,-4,-5,-12,-9,-6,-3
1558441285495028,-1,-2,1,-3,-9,-15,-8,-4
1558441285510985,1,1,-1,4,3,-8,5,2
1558441285510985,2,-1,-3,-3,6,5,-4,-1
1558441285517965,1,0,10,12,10,2,4,4
1558441285517965,-4,-1,-6,-9,-10,-3,-9,-4
1558441285524947,-1,-2,-3,2,0,6,4,1
1558441285524947,-2,-1,-5,-4,-5,-8,-7,-3
1558441285539905,-3,-2,-6,-13,-7,-5,-6,-3
1558441285539905,0,0,2,9,1,2,3,2
1558441285547885,-2,1,4,0,8,6,-3,-2
1558441285547885,-2,-3,1,-1,-2,5,3,-1
1558441285554866,-3,0,-2,3,1,-7,-4,-6
1558441285554866,0,-2,-4,-7,-9,0,2,-2
1558441285570823,0,2,-1,-6,-1,-4,0,0
1558441285570823,0,-1,0,5,3,2,2,1
1558441285577805,-5,-2,-6,0,-7,-7,-5,-3
1558441285577805,0,2,2,-5,3,-3,1,0
1558441285601740,1,-1,-1,2,0,0,1,0
1558441285601740,-2,1,-2,-5,0,-5,-3,0
1558441285602737,-2,0,-1,-1,-4,7,-2,-1
1558441285602737,0,-2,-1,1,3,0,-1,0
1558441285608721,-1,-1,-3,1,-1,2,-1,-2
1558441285608721,-3,-1,4,2,0,-6,-2,-1
1558441285614707,-2,-1,1,-9,-4,-3,-1,-1
1558441285614707,0,0,2,3,-4,-12,0,1
1558441285630663,-1,-2,-1,3,4,8,0,-1
1558441285630663,2,1,-3,-6,1,3,7,-1
1558441285637643,-3,-2,-1,5,-1,3,-4,-2
1558441285637643,1,1,0,4,5,7,2,0
1558441285653606,-3,-3,-2,-10,-13,-16,-13,-5
1558441285653606,-3,-1,-4,0,-4,6,-1,-3
1558441285660585,3,4,6,-2,11,8,8,8
1558441285660585,0,3,5,8,2,-5,1,1
1558441285668564,-1,-2,-5,-10,-11,-10,-7,-3
1558441285668564,0,-2,0,-1,6,5,1,0
1558441285675543,0,-1,-1,-3,-5,1,-3,-3
1558441285675543,-4,-2,-7,-4,-5,2,-1,-5
1558441285690509,-3,-3,-2,0,-2,1,1,-2
1558441285690509,-4,-2,1,2,-3,-10,-10,-3
1558441285714440,1,1,0,2,4,-4,4,3
1558441285714440,1,-3,-1,2,8,11,3,0
1558441285714440,0,0,0,-1,-6,-2,-5,-2
1558441285714440,-2,-3,-5,-4,-10,-4,-5,-4
1558441285720425,0,0,1,2,5,-2,3,1
1558441285720425,-2,-2,-3,-4,-4,-11,-6,-2
1558441285728403,1,0,1,5,3,3,4,3
1558441285728403,-1,-2,1,2,-4,-2,-1,1
1558441285735383,-1,-1,-1,-4,-2,4,0,-1
1558441285735383,-3,-5,-7,-3,-2,13,-2,-4
1558441285751344,-1,-2,0,1,0,-9,5,1
1558441285751344,-2,0,-2,-1,-4,-6,0,-3
1558441285767299,-1,-2,-3,1,-5,-3,1,0
1558441285767299,-1,1,2,-5,11,9,0,1
1558441285768296,-2,-3,-1,-1,0,6,0,-1
1558441285768296,2,1,2,0,-1,2,-1,-3
1558441285780264,-4,-3,-5,-6,-7,-5,-8,-5
1558441285780264,-2,-3,-3,-4,-4,-2,3,0
1558441285788242,3,0,2,2,5,-1,1,2
1558441285788242,0,0,-1,0,6,1,2,1
1558441285803206,-1,-1,-2,-4,-6,-10,-7,-4
1558441285803206,2,2,1,1,1,3,1,0
1558441285827139,-4,-4,-4,4,-3,-3,-6,-6
1558441285827139,0,-1,3,-2,4,8,3,2
1558441285829134,1,-1,0,3,-2,-15,-5,1
1558441285829134,-2,-2,-1,-7,-10,-2,1,0
1558441285829134,0,-2,1,6,0,-7,-1,1
1558441285829134,0,1,0,-1,-2,-3,-3,-1
1558441285840107,-5,-4,-5,-4,-2,7,2,-5
1558441285840107,0,1,-3,1,6,-2,7,4
1558441285848084,2,3,0,-1,10,1,3,2
1558441285848084,-3,-1,0,6,-3,-4,-1,0
1558441285879004,1,-1,-5,-16,-6,-7,-4,-1
1558441285879004,-4,-3,-1,7,-6,0,-7,-4
1558441285879998,-1,0,-1,-5,-2,4,-3,-4
1558441285879998,0,-2,1,-1,2,6,0,-2
1558441285886979,-1,1,1,4,5,10,6,1
1558441285886979,-1,-1,2,2,1,1,1,-1
1558441285886979,-1,0,-4,-5,-4,-2,-3,-1
1558441285886979,-2,-2,-1,0,-13,-17,-14,-5
1558441285899944,0,0,0,-1,4,1,3,0
1558441285899944,0,-1,5,-2,10,11,8,1
1558441285907921,-2,-1,2,3,-1,3,0,-2
1558441285907921,1,2,-1,5,6,6,3,2
1558441285931858,-2,-2,-7,-9,-6,-4,-4,-3
1558441285931858,-2,-4,-5,-2,-15,-12,-10,-3
1558441285931858,0,0,3,-3,4,1,0,-1
1558441285931858,1,-2,-1,-2,-3,-7,0,0
1558441285945820,-1,0,4,3,1,0,4,-1
1558441285945820,-2,-1,-6,-2,-4,-5,-5,-2
1558441285946816,-1,-3,-4,-2,-2,0,3,0
1558441285946816,0,-2,-2,-3,2,-4,0,2
1558441285959783,0,2,-3,4,2,1,-1,0
1558441285959783,0,2,8,6,5,-5,2,2
1558441285983729,-2,-2,1,-1,-5,5,8,1
1558441285983729,-2,-3,-3,-1,-4,-3,-4,-1
1558441285985725,-1,-3,-2,-3,-8,-4,-6,-2
1558441285985725,0,-1,-5,-5,-3,-13,-8,-3
1558441285990710,1,1,1,5,3,-1,-3,-2
1558441285990710,-1,0,-4,-1,3,7,2,-2
1558441286005660,-3,0,3,0,-1,2,-3,-2
1558441286005660,-5,-4,-9,-11,-16,-9,-7,-5
1558441286006658,-1,-1,0,2,6,-7,-1,1
1558441286006658,-3,-1,1,-4,-4,1,0,-2
1558441286020621,0,0,2,6,9,2,3,2
1558441286020621,-1,-1,-6,-5,-4,-2,-5,-2
1558441286044557,1,0,1,-4,-4,-4,-3,-1
1558441286044557,0,-2,-1,-2,2,1,4,-1
1558441286045563,-1,-3,-2,1,-1,-18,-1,0
1558441286045563,-2,-1,5,1,5,11,1,-2
1558441286050606,-2,-2,-6,-6,-10,3,-1,-2
1558441286050606,0,-1,-2,-2,-4,6,-2,-4
1558441286065548,-1,-3,-2,2,5,-5,0,1
1558441286065548,1,4,-2,1,2,-2,-1,0
1558441286066500,-2,-3,-6,-6,-3,-3,-5,0
1558441286066500,-3,-2,2,4,6,-4,4,2
1558441286080460,-1,-2,2,2,-9,3,-1,-5
1558441286080460,-1,0,-3,-1,8,7,2,-1
1558441286104395,0,0,-1,0,-2,-6,-3,-3
1558441286104395,-2,-4,-2,1,-2,-4,-2,0
1558441286105393,-2,-1,-1,-1,3,13,8,0
1558441286105393,2,-1,4,-2,-1,-11,3,1
1558441286110379,-2,-2,-6,-2,-8,-8,-4,-4
1558441286110379,2,1,-1,-11,-4,8,6,1
1558441286125339,0,-1,2,3,2,5,-2,-1
1558441286125339,-2,-1,-7,-11,-10,-9,-5,-3
1558441286126337,0,-2,-2,1,5,12,3,0
1558441286126337,-5,-1,-3,-1,-7,-12,-10,-4
1558441286149274,-1,0,0,-10,-3,3,-1,-1
1558441286149274,0,0,-2,6,3,7,0,0
1558441286150272,-1,-6,-3,-4,-9,-7,-8,-3
1558441286150272,0,2,0,-1,0,-8,7,4
1558441286162241,-3,-2,-4,-5,-4,2,1,-2
1558441286162241,-1,-3,6,7,10,6,7,2
1558441286171217,-1,-2,-2,0,-2,0,-1,-2
1558441286171217,-3,-4,-1,-4,-11,-6,-3,-3
1558441286186176,-2,-1,-2,-3,-3,4,-9,-2
1558441286186176,-1,0,0,1,-2,8,5,0
1558441286186176,1,1,3,4,3,-23,1,0
1558441286186176,-2,0,-3,-5,-2,-1,2,-1
1558441286209122,0,-3,-3,-1,2,3,-2,-3
1558441286209122,-3,-3,-3,-5,-6,8,-9,-5
1558441286210113,-2,0,2,3,2,8,1,0
1558441286210113,2,3,5,2,12,1,3,2
1558441286223080,-4,-4,-6,-5,-10,-9,-4,-1
1558441286223080,-1,-2,1,0,-6,-13,-9,-1
1558441286231061,-2,0,0,-1,-7,-2,2,2
1558441286231061,2,-2,-3,-5,3,1,2,0
1558441286246022,-2,2,1,2,6,3,4,2
1558441286246022,3,1,1,8,7,3,4,1
1558441286247019,-2,0,-3,-10,-3,-1,-5,-3
1558441286247019,-1,-4,-4,-3,-8,5,-4,0
1558441286261979,1,1,2,3,4,-5,7,4
1558441286261979,-3,-2,-1,-2,1,-5,0,-1
1558441286269002,-3,-1,1,0,0,-1,4,-2
1558441286269002,-1,-3,-5,-6,-4,-2,-5,-4
1558441286282921,0,-2,0,-2,-3,10,-3,-2
1558441286282921,-1,-1,-3,0,-4,-8,-6,-2
1558441286291000,-3,-2,1,-1,7,11,6,-1
1558441286291000,-2,-1,-3,-2,-6,-14,-6,-3
1558441286321819,3,2,3,8,5,3,7,4
1558441286321819,-1,-1,-4,-12,-6,2,-1,-3
1558441286322815,-1,-4,-3,-1,-6,-3,-7,-2
1558441286322815,-1,1,4,7,5,1,1,1
1558441286324807,1,0,-5,-2,1,-8,9,1
1558441286324807,-2,-3,2,4,-3,-8,-3,0
1558441286328985,2,-1,-4,-2,1,3,-5,-2
1558441286328985,0,-3,2,3,0,4,-5,-1
1558441286342762,-2,-2,1,-2,-7,-1,-6,-4
1558441286342762,-2,-2,-1,-1,2,-9,3,-1
1558441286350772,-2,0,-4,-7,-7,-8,0,-1
1558441286350772,0,0,2,1,5,2,-3,0
1558441286381655,-4,-3,-6,-7,-9,-3,-10,-5
1558441286381655,-1,-2,0,-4,-4,1,-3,-3
1558441286382651,0,0,0,0,8,-8,4,3
1558441286382651,-3,-1,2,-1,-1,4,1,-3
1558441286384646,0,-1,1,5,8,-2,1,-2
1558441286384646,0,-1,-1,-3,3,14,1,-3
1558441286388635,-1,-2,-6,-8,-12,-11,-7,-4
1558441286388635,0,-1,0,1,4,10,10,-1
1558441286403037,-1,1,-1,3,1,-9,1,0
1558441286403037,2,1,7,4,4,4,-2,2
1558441286410581,-2,-4,-6,-1,-2,2,-7,-3
1558441286410581,0,0,-1,3,-1,-6,-1,0
1558441286434876,0,-3,-2,-6,-2,10,0,-2
1558441286434876,1,1,1,3,5,-4,7,6
1558441286434876,0,0,2,4,2,7,1,-1
1558441286434876,-3,-4,-3,-2,-6,-2,-10,-4
1558441286440710,-1,0,-1,0,-5,-10,-5,-1
1558441286440710,0,-3,-5,-5,-11,-6,-2,-2
1558441286447689,0,-1,-2,-2,0,5,-2,-2
1558441286447689,-1,1,-1,0,2,-7,1,1
1558441286463512,-1,1,1,-1,8,7,3,0
1558441286463512,0,-2,-5,-2,-3,3,-2,-2
1558441286470674,3,1,1,-1,0,-3,4,-1
1558441286470674,-3,-5,-7,-9,1,6,0,-1
1558441286485606,-2,-2,-1,-3,-6,-8,1,0
1558441286485606,-1,-3,-2,3,-1,6,-1,-5
1558441286493587,-1,1,1,-1,-1,8,-2,-1
1558441286493587,1,0,1,0,-2,-4,1,2
1558441286500533,0,0,-1,2,-4,-8,-4,-1
1558441286500533,-1,0,-3,-4,-2,-5,-3,-1
1558441286507363,-1,-1,-1,6,8,5,-1,3
1558441286507363,-1,-1,5,-1,3,0,-1,-1
1558441286522284,-4,-4,-3,-2,-4,2,-6,-6
1558441286522284,-3,-3,-6,-7,-6,-9,-4,0
1558441286538238,0,-1,-1,-2,0,-1,2,1
1558441286538238,0,-1,-3,-1,-3,3,1,-1
1558441286545219,1,1,0,1,-4,-9,-2,0
1558441286545219,-1,0,3,4,-3,-14,-5,-2
1558441286553413,0,1,0,0,3,15,0,0
1558441286553413,1,-1,-3,-1,5,10,5,1
1558441286568158,1,-1,-2,5,2,-10,-1,6
1558441286568158,-2,-3,-1,0,-1,1,4,-1
1558441286569154,0,1,3,1,3,-4,0,-1
1558441286569154,-1,0,-1,-1,-9,-5,-7,-4
1558441286599076,0,-1,-4,-8,2,12,-1,-2
1558441286599076,-1,1,1,3,-2,-9,-1,0
1558441286600071,-2,-5,-4,-11,-5,-8,-4,-1
1558441286600071,-1,1,0,5,7,6,3,-1
1558441286605057,-3,-2,0,-7,-11,-8,-6,-3
1558441286605057,-1,1,-3,-5,-5,-3,-3,-3
1558441286613036,0,1,3,1,0,-1,1,1
1558441286613036,0,0,3,-1,1,-16,-2,0
1558441286627995,-2,-2,-2,-1,2,2,0,0
1558441286627995,0,-2,-2,-3,-1,11,1,0
1558441286628991,0,-1,1,7,-3,-4,-5,-2
1558441286628991,-2,-1,-5,-10,-13,-7,-3,-2
1558441286652267,3,2,3,9,11,-7,-2,2
1558441286652267,-3,-4,0,-3,0,0,-1,-2
1558441286652267,-1,-2,-2,-4,-3,3,3,-2
1558441286652267,-1,-2,0,0,-2,5,-4,-1
1558441286666024,-2,1,-3,-4,-5,3,-1,-5
1558441286666024,-1,-1,-6,2,-2,-9,-6,-2
1558441286674089,-3,-2,-3,-3,2,5,2,-4
1558441286674089,-2,-2,-1,-5,-4,-8,-3,-3
1558441286687836,1,0,2,2,12,7,7,1
1558441286687836,0,-2,1,0,-1,4,-4,-2
1558441286688832,-1,0,0,3,0,-4,2,1
1558441286688832,-1,-3,-1,-2,-4,-13,-3,-1
1558441286703026,-2,-2,-3,-5,-8,0,-6,-2
1558441286703026,1,3,0,-1,5,12,6,4
1558441286710984,-4,0,0,-1,5,2,-3,-1
1558441286710984,0,0,-1,1,-1,-8,-4,0
1558441286725824,-2,0,0,2,-4,1,-4,-3
1558441286725824,-1,-3,-5,-6,-3,2,-3,-2
1558441286733799,-3,-4,-4,-2,-4,4,2,-2
1558441286733799,0,0,4,9,5,-3,-1,3
1558441286748788,-1,0,2,0,4,5,5,1
1558441286748788,0,-1,-3,0,-2,1,1,0
1558441286748788,0,-2,-2,-2,3,-2,0,0
1558441286748788,0,-2,-1,-2,-8,-3,-4,-2
1558441286762725,0,1,3,-1,-5,-8,-6,-2
1558441286762725,-3,-2,0,3,6,10,1,2
1558441286770701,-1,-2,-4,-9,-13,-15,-6,-3
1558441286770701,1,3,4,7,10,8,8,1
1558441286784663,-2,-1,2,2,-3,-3,-5,-3
1558441286784663,0,-1,-8,-14,-7,6,1,0
1558441286793640,1,1,3,3,4,-16,2,3
1558441286793640,-2,-3,-2,4,-2,2,-5,-2
1558441286808634,-1,-1,1,-10,-4,1,0,0
1558441286808634,-4,-3,-6,1,-3,-4,-4,-4
1558441286808634,-2,1,3,5,3,9,3,0
1558441286808634,-3,-3,-4,-7,-12,-7,-3,-1
1558441286822563,2,-1,0,2,18,11,10,5
1558441286822563,-1,0,2,0,1,-9,-6,-1
1558441286831682,-1,-1,-1,-1,-7,-5,-11,-4
1558441286831682,2,0,2,1,5,5,7,0
1558441286845764,-1,-3,-7,-7,-10,0,-3,-4
1558441286845764,1,2,2,4,12,14,4,2
1558441286853810,0,2,0,5,6,-8,6,6
1558441286853810,-5,-3,-2,-8,-14,-8,-13,-6
1558441286876686,-2,-3,-2,-1,-6,-9,-5,-1
1558441286876686,-2,-1,1,1,5,-2,3,-1
1558441286877415,-2,-2,-2,0,-7,-3,-4,-2
1558441286877415,-1,0,2,3,11,10,3,0
1558441286883402,-1,-2,-5,-7,-11,-8,-3,-2
1558441286883402,-3,-2,1,-2,-4,7,-1,-3
1558441286891599,-3,-3,-2,-5,-2,6,0,-3
1558441286891599,-1,-1,-4,-1,7,-1,2,1
1558441286905347,-2,-2,-4,-9,-1,5,0,-2
1558441286905347,-2,-4,-5,-3,-5,-17,-8,-3
1558441286913536,1,-1,5,2,-1,4,0,0
1558441286913536,-3,-1,-3,-6,-4,-2,-3,-3
1558441286928484,-3,-3,-1,2,1,4,-5,-3
1558441286928484,0,0,0,-4,-13,-22,-5,-2
1558441286929289,2,1,3,3,11,-8,6,4
1558441286929289,-2,-1,-4,-2,2,9,1,-3
1558441286943423,-1,1,-1,5,-5,-6,-5,-2
1558441286943423,-1,0,-1,0,2,12,-2,-2
1558441286951452,0,-1,2,-1,-3,8,-2,-3
1558441286951452,-1,-3,-3,-5,-10,-15,-4,-3
1558441286965419,1,-1,-2,1,3,5,1,0
1558441286965419,-1,0,-1,-1,-1,-8,1,2
1558441286981172,1,1,-3,2,13,10,5,2
1558441286981172,1,1,3,3,5,7,5,2
1558441286988120,-2,-3,-3,-4,-5,-7,-4,-2
1558441286988120,-2,-1,2,0,-5,-2,0,-1
1558441286989118,0,-1,-4,-5,-1,-14,-5,-1
1558441286989118,-1,-2,1,0,1,14,-2,-2
1558441287003078,-1,0,2,1,-4,-12,-1,-2
1558441287003078,-2,-3,-4,0,-5,-16,-6,-2
1558441287011101,-1,-3,-4,0,-5,-6,-7,-3
1558441287011101,0,1,-2,-7,1,2,-7,-1
1558441287025020,0,0,5,2,3,-2,6,3
1558441287025020,-2,-4,2,3,-1,1,0,-3
1558441287032998,-1,0,-2,-4,-7,3,0,-2
1558441287032998,-1,-2,0,4,7,3,-1,0
1558441287049015,2,2,-6,-4,2,-3,0,1
1558441287049015,0,-2,3,-3,0,6,2,1
1558441287049015,-2,-1,-3,-4,-5,-8,-3,-3
1558441287049015,-3,-1,-6,-6,-11,-1,3,-3
1558441287063268,-2,3,2,7,6,0,-3,-3
1558441287063268,-1,-1,0,-5,5,4,5,1
1558441287070913,-1,-3,-5,-5,-11,5,-1,-2
1558441287070913,3,-1,-1,2,-5,-15,-2,0
1558441287085857,0,-1,-3,1,4,16,3,-1
1558441287085857,0,-2,-3,-3,-2,2,-5,-2
1558441287094230,-4,-3,0,2,0,-2,-3,0
1558441287094230,-2,1,-2,-3,1,-1,2,1
1558441287108455,-1,1,3,4,0,-11,0,0
1558441287108455,-2,1,-1,-1,-4,-1,-4,-4
1558441287109195,-2,0,-1,0,5,13,2,-1
1558441287109195,1,0,4,7,0,-7,2,-1
1558441287123155,-3,-4,-4,-12,-10,-13,-4,0
1558441287123155,-1,-1,-1,0,-4,6,0,0
1558441287131138,1,1,1,2,-1,-7,4,3
1558441287131138,-2,-2,-6,-4,4,2,0,-1
1558441287145316,-1,-1,3,7,1,4,-5,-4
1558441287145316,-1,-2,-2,-3,-1,-9,0,-2
1558441287153289,-2,0,-3,-5,-6,-6,-10,-4
1558441287153289,-1,-1,-1,-2,3,16,0,-3
1558441287169084,-1,0,0,2,5,9,8,3
1558441287169084,4,3,-1,1,4,-9,2,3
1558441287169084,-1,0,-3,-7,5,8,3,1
1558441287169084,-3,-5,-2,-4,-17,-12,-7,-5
1558441287182998,-4,-5,0,-5,-12,-8,-9,-7
1558441287182998,-1,0,-3,0,7,-3,2,3
1558441287190979,0,0,4,11,8,11,5,1
1558441287190979,-1,-2,-4,-9,-1,1,2,3
1558441287204938,-1,-2,-7,-8,-5,2,-4,-5
1558441287204938,1,-1,0,0,-5,2,-3,-3
1558441287213955,1,1,2,0,0,-21,-3,1
1558441287213955,-1,0,-5,-1,-2,-15,-7,-3
1558441287228139,0,-2,0,-2,2,1,3,1
1558441287228139,-1,2,2,3,2,10,3,0
1558441287228876,-1,-1,1,-2,0,7,-1,-2
1558441287228876,-1,-2,-4,-9,-1,7,0,1
1558441287242864,-1,0,1,4,4,-5,0,-1
1558441287242864,-3,-2,-3,-3,-8,-4,-2,-3
1558441287251106,-1,-3,-3,-4,-9,-10,-8,-2
1558441287251106,-1,-1,2,6,-1,-1,-4,-2
1558441287265958,1,1,-2,-3,2,3,-2,2
1558441287265958,0,0,-1,3,10,6,6,2
1558441287274075,-2,-1,-2,-8,-9,-6,-4,-3
1558441287274075,-2,0,-7,-10,-10,-5,-3,-1
1558441287287718,-2,-4,2,2,-4,-13,-5,-1
1558441287287718,3,1,5,4,8,6,9,3
1558441287295996,-3,-3,-2,3,3,11,-2,-2
1558441287295996,-3,-2,-1,-3,-6,-3,-3,-5
1558441287302963,1,0,0,-3,-1,4,1,-1
1558441287302963,-3,-1,-2,1,-4,-2,-4,-1
1558441287310963,3,-1,-3,-1,-3,-11,0,-2
1558441287310963,-1,0,4,5,17,20,7,1
1558441287325881,-3,-1,-2,-3,-8,-6,-6,-2
1558441287325881,-1,-3,-1,5,2,11,-6,-3
1558441287333867,-1,-2,2,-1,-2,-6,3,-2
1558441287333867,0,0,1,-3,-3,-11,-7,1
1558441287347810,0,0,-4,5,2,3,6,1
1558441287347810,-1,1,3,-4,-2,-6,-5,0
1558441287355538,0,0,-2,-2,0,1,0,0
1558441287355538,1,1,1,5,5,0,2,1
1558441287362648,-1,0,-2,-2,5,1,-5,-3
1558441287362648,-4,-2,-3,-1,-6,-4,0,-3
1558441287370523,-3,-4,-1,-1,-6,-4,-2,-3
1558441287370523,-1,1,7,6,7,5,2,2
1558441287385466,0,-1,-4,1,-5,4,-1,-2
1558441287385466,-2,-3,-6,-12,-8,-5,-1,-2
1558441287393474,-1,-1,5,4,0,4,-4,-3
1558441287393474,2,-2,-4,-5,-4,-5,0,-1
1558441287407396,-1,-2,3,1,7,4,2,1
1558441287407396,-1,-2,-4,-1,-3,0,-2,-2
1558441287416372,0,0,4,6,12,14,2,2
1558441287416372,-1,-4,-8,-17,-19,-13,-1,-3
1558441287422357,2,0,2,-3,3,-1,-1,-1
1558441287422357,-1,-3,0,3,-2,-8,-6,1
1558441287431643,-3,-1,-8,-13,-10,-5,-4,-1
1558441287431643,-1,0,1,8,4,4,3,0
1558441287445605,-1,-3,-6,-7,1,-1,3,-1
1558441287445605,-3,-2,3,0,-3,-7,-1,-1
1558441287454273,-2,-2,0,1,-4,-1,-2,-3
1558441287454273,-4,-2,-3,1,-3,-7,-6,-2
1558441287468439,-2,-4,0,-5,-5,8,1,0
1558441287468439,-1,0,-2,0,-3,-8,-7,-1
1558441287484193,0,-1,1,1,9,5,8,2
1558441287484193,2,-1,-2,1,2,-1,1,0
1558441287492208,1,-2,1,3,4,8,5,-1
1558441287492208,-4,-3,-2,-1,-2,5,-1,-2
1558441287493169,-3,-3,-5,-4,-18,-17,-13,-4
1558441287493169,-2,-1,-1,-1,2,5,-2,-4
1558441287505136,0,2,3,9,3,-6,2,3
1558441287505136,0,-2,-9,-16,-2,-6,-2,1
1558441287514113,-3,-3,-2,0,2,0,-2,-1
1558441287514113,-1,-1,1,4,0,9,3,-2
1558441287528306,-5,-2,-3,-5,-8,-7,-9,-5
1558441287528306,0,2,5,12,10,7,9,-1
1558441287537058,1,0,-1,0,-3,-6,-3,-3
1558441287537058,-1,-2,-4,-5,-6,-7,-4,0
1558441287552233,-1,-3,-1,1,0,-4,-1,0
1558441287552233,1,-2,0,1,-1,0,2,1
1558441287553012,-2,-2,-1,1,6,9,1,-1
1558441287553012,-2,-2,-2,2,-3,3,0,0
1558441287565973,0,0,-1,-6,-7,-3,-5,-3
1558441287565973,0,-1,-1,-1,-7,-9,-3,1
1558441287574100,-2,0,0,6,5,10,2,-1
1558441287574100,-4,-6,-10,-19,-13,-10,-4,-3
1558441287587915,-1,-1,-2,-1,3,2,6,0
1558441287587915,-2,-1,-1,-5,-8,-10,-7,-5
1558441287596894,0,1,2,2,1,0,-1,1
1558441287596894,0,2,2,6,9,8,2,3
1558441287611851,-2,-1,-3,-6,-7,1,-4,-2
1558441287611851,0,-3,3,5,0,4,-2,-3
1558441287612847,2,1,-5,-9,0,-20,3,5
1558441287612847,-1,0,6,7,5,7,-8,-5
1558441287624818,0,-1,-5,-3,-4,-1,3,0
1558441287624818,0,-1,-2,3,3,3,0,2
1558441287633791,-3,0,-3,-3,-7,-1,-3,-2
1558441287633791,-2,-2,-4,0,-2,-7,-6,0
1558441287647752,0,1,2,1,-2,9,-1,0
1558441287647752,-2,1,-1,0,6,-6,2,0
1558441287656762,1,2,5,7,-2,4,2,1
1558441287656762,-1,-1,-6,-9,-5,-5,-4,-3
1558441287671691,-1,-2,-1,-1,-2,-2,-3,1
1558441287671691,0,1,-1,4,7,1,4,0
1558441287672686,-4,-3,-4,-3,0,4,0,-2
1558441287672686,-3,0,1,3,-3,-6,-4,-4
1558441287685990,-3,-3,-6,-2,-5,-6,-7,-4
1558441287685990,1,1,2,-5,3,13,9,3
1558441287693979,1,1,2,3,6,-3,2,1
1558441287693979,0,1,-1,5,-1,3,1,1
1558441287708055,-1,-1,0,-8,-9,-6,-9,-5
1558441287708055,-4,-5,-6,0,-7,-5,-2,-4
1558441287716727,1,-2,-2,-3,4,-2,5,-2
1558441287716727,1,0,1,0,6,6,6,3
1558441287731884,2,2,4,6,5,-10,-1,1
1558441287731884,-2,-1,-2,-6,-6,-4,-9,-5
1558441287733672,-3,-4,-5,-9,-6,-6,-8,-2
1558441287733672,-1,-2,1,-3,-8,-9,-5,1
1558441287745760,-1,0,-1,-3,2,-1,1,-1
1558441287745760,0,0,-1,-1,-4,-4,-3,0
1558441287754469,-1,-2,0,4,0,-1,2,-2
1558441287754469,-1,1,1,3,12,14,8,4
1558441287768442,-2,0,-5,-13,-3,-2,-3,0
1558441287768442,0,-2,4,5,4,3,-1,-1
1558441287776410,0,-2,0,0,2,5,-2,-1
1558441287776410,-4,-1,-1,-3,-12,-10,-4,0
1558441287791446,1,0,0,5,4,0,5,0
1558441287791446,-2,-1,-1,4,2,0,-5,-1
1558441287797353,0,-2,-6,-12,-15,-7,-4,-2
1558441287797353,1,0,1,2,5,4,3,-3
1558441287805335,-4,-5,-1,1,-6,-5,3,-2
1558441287805335,0,-1,-2,-1,6,5,2,-2
1558441287814310,0,-5,1,1,-2,4,0,-2
1558441287814310,-1,-1,-2,-2,-3,-4,1,0
1558441287827272,0,-1,3,4,-2,0,-4,1
1558441287827272,-1,-1,-4,-2,-2,1,-3,-2
1558441287836679,-2,-1,-5,-5,-3,-8,-6,-2
1558441287836679,0,2,3,3,1,-1,0,-1
1558441287850274,-1,-2,-2,1,0,0,-6,-2
1558441287850274,-2,0,-2,-5,-5,-5,1,-1
1558441287859191,-1,-1,1,6,2,9,3,0
1558441287859191,-2,-3,-5,-4,-5,-8,-1,-3
1558441287865686,0,-1,0,-2,-1,-2,3,-1
1558441287865686,-2,1,0,-3,-3,-10,-3,-1
1558441287874283,-2,0,-3,0,1,5,-2,-2
1558441287874283,-1,-2,0,-4,-3,0,-5,0
1558441287887419,-2,-1,-1,0,-5,-11,-1,-1
1558441287887419,3,-1,-1,-2,5,15,2,1
1558441287896473,-1,1,1,-3,-3,-4,0,-1
1558441287896473,-2,0,0,0,-2,-4,-1,-2
1558441287910411,1,1,-5,-5,3,0,-2,1
1558441287910411,0,0,-1,-1,-1,4,0,-1
1558441287919110,2,2,1,3,3,9,0,-1
1558441287919110,-3,-4,-4,-2,-14,-6,-5,-7
1558441287925342,1,0,3,0,2,0,3,0
1558441287925342,1,0,3,1,3,-7,2,1
1558441287934144,-4,-4,-5,-2,0,-1,-6,-4
1558441287934144,-1,-2,-4,-13,1,8,3,1
1558441287948220,-2,-3,-5,2,-4,-9,-4,0
1558441287948220,0,0,-1,-3,3,7,6,3
1558441287956931,-1,0,2,-4,-4,-4,-5,-3
1558441287956931,0,0,1,6,7,5,-1,2
1558441287970166,-4,-4,-3,-4,-6,0,-6,-4
1558441287970166,-2,-3,3,-4,-6,-15,-5,-3
1558441287978966,0,-1,0,4,-3,-6,-1,-1
1558441287978966,-1,-2,1,1,4,9,7,-1
1558441287985119,-1,0,1,-1,6,7,2,2
1558441287985119,-1,-1,-3,-1,-7,-6,-7,-2
1558441287993828,-1,-1,-3,-2,-3,1,1,-1
1558441287993828,0,-1,1,1,-1,-1,-4,-2
1558441288008043,-2,-1,5,11,4,0,-1,-2
1558441288008043,-1,-1,-4,-16,-10,5,-2,-2
1558441288023746,1,1,-3,-1,3,-11,4,2
1558441288023746,1,2,-1,0,7,9,5,1
1558441288038709,-1,-2,-1,7,-3,-5,-5,-2
1558441288038709,-2,0,0,-5,-3,-4,-2,-2
1558441288040702,-2,-2,2,3,0,3,-1,-2
1558441288040702,-1,-1,0,2,-2,-7,-6,-2
1558441288044692,-1,-2,-7,-8,-11,-8,-2,0
1558441288044692,0,-3,0,2,2,1,2,1
1558441288053667,-2,-2,-3,-8,-7,0,-5,-4
1558441288053667,-1,-1,-2,1,-4,-16,-6,-2
1558441288067688,1,2,0,-4,5,10,3,0
1558441288067688,-1,-1,-1,1,5,1,2,0
1558441288076606,-1,0,-2,1,-3,0,-2,0
1558441288076606,-2,-2,1,2,-2,-12,-7,-2
1558441288089570,0,-2,-2,-3,5,14,3,0
1558441288089570,-5,-2,0,-2,-5,-8,1,-1
1558441288098548,-1,-1,1,3,3,8,3,0
1558441288098548,0,-1,-4,-4,-4,-2,2,-2
1558441288104532,0,-2,-4,-11,-7,-11,1,0
1558441288104532,-1,-1,-2,2,-4,-1,-4,0
1558441288114505,-1,-1,-3,-4,1,-5,-6,-3
1558441288114505,1,0,9,4,2,0,2,1
1558441288127470,-3,-3,-4,0,-1,0,-1,-1
1558441288127470,0,-2,-1,0,-2,-3,1,0
1558441288136614,-3,0,0,-1,-3,2,5,3
1558441288136614,1,1,0,-3,8,7,1,-2
1558441288150783,0,1,1,3,4,-1,2,-1
1558441288150783,-3,-1,-3,-1,-7,6,-4,-4
1558441288159429,-1,-2,-1,-2,1,-7,0,1
1558441288159429,1,2,3,3,2,-3,4,2
1558441288165738,-1,0,2,3,1,-2,-2,-2
1558441288165738,-1,-1,-9,-6,-9,-4,-4,-4
1558441288174346,-1,1,2,1,3,6,3,0
1558441288174346,0,-2,-1,1,2,8,3,1
1558441288187317,-2,-4,-4,-3,-8,-4,-7,-5
1558441288187317,0,-1,0,-3,-5,-11,-8,-2
1558441288196575,-2,-3,-1,2,2,2,6,1
1558441288196575,-3,-3,-4,-1,-2,-8,-4,-1
1558441288210312,-1,2,3,2,5,8,4,1
1558441288210312,-1,-2,3,2,-1,6,-1,0
1558441288219227,0,-2,-4,-8,-9,-5,-6,-2
1558441288219227,-2,-3,-4,-3,1,1,1,-1
1558441288225209,1,2,1,1,-6,-13,0,-1
1558441288225209,-1,-1,-2,-2,1,-6,-6,-2
1558441288234185,1,0,-1,3,5,-6,2,3
1558441288234185,-1,-1,-1,-7,-9,6,1,1
1558441288248389,-3,-3,-5,-5,-3,7,-3,-3
1558441288248389,0,1,3,6,7,3,6,4
1558441288256463,0,1,1,1,5,2,-2,-3
1558441288256463,-1,-2,-5,-3,-2,-1,-4,-2
1558441288270452,-2,-1,-1,-4,-5,-8,-4,-2
1558441288270452,-2,-2,-4,-2,0,6,0,0
1558441288279064,-1,-5,-2,-3,-2,-4,-8,-6
1558441288279064,-2,-1,-1,2,3,6,0,0
1558441288285384,1,-2,-2,-5,-2,-5,-3,-1
1558441288285384,0,-1,2,3,-1,0,2,-3
1558441288294024,1,3,0,-1,4,11,5,2
1558441288294024,-1,-1,-1,0,-2,-14,-8,-1
1558441288308320,1,-2,1,2,2,4,-4,0
1558441288308320,-4,-4,-4,-6,-6,-4,-6,-3
1558441288317219,-2,-3,-3,-5,-10,-6,-4,-2
1558441288317219,-1,0,-8,-6,2,3,4,0
1558441288330263,1,-1,5,5,9,2,4,0
1558441288330263,-1,-3,-4,1,-9,-5,-4,-5
1558441288339311,-1,-1,1,1,-1,0,3,0
1558441288339311,0,0,0,0,-2,-8,1,1
1558441288345615,-2,-2,-3,-5,-5,-2,-3,0
1558441288345615,-2,-3,-2,1,8,8,4,-1
1558441288354271,-2,-2,-3,-5,-7,-5,-5,-2
1558441288354271,-3,0,-3,1,-4,-2,-7,-2
1558441288368454,-2,1,2,-6,-3,-2,2,1
1558441288368454,2,3,1,3,7,-2,-2,2
1558441288376518,0,0,-3,1,0,4,6,-1
1558441288376518,0,-2,3,-8,-4,0,0,-4
1558441288390202,-3,-6,-8,-3,-2,8,-2,-2
1558441288390202,0,-1,0,-7,-5,4,3,-1
1558441288399153,0,-1,0,-1,3,-11,-4,0
1558441288399153,0,-1,0,4,2,-7,-1,0
1558441288414415,1,3,7,6,7,6,8,4
1558441288414415,-2,-3,-12,-13,-13,-9,-4,-3
1558441288416108,0,-1,0,2,0,-10,-5,-2
1558441288416108,1,-3,2,2,4,5,2,-3
1558441288428073,-1,-1,-5,-1,-4,-5,-3,-2
1558441288428073,-1,-2,4,4,0,2,-3,-2
1558441288436084,0,0,-1,-2,-5,2,-4,-1
1558441288436084,-2,-1,-5,0,-3,5,0,0
1558441288450013,-1,-1,-1,0,-2,0,-3,-2
1558441288450013,1,1,4,6,7,-3,5,3
1558441288458989,-1,0,-3,0,-4,-8,-6,-2
1558441288458989,0,-1,2,-7,-7,0,-2,1
1558441288473948,-2,1,3,-1,-1,3,5,0
1558441288473948,-2,-4,-4,-3,3,3,4,-1
1558441288474946,-1,0,0,3,2,2,-6,-1
1558441288474946,0,0,-1,-2,-1,2,2,-2
1558441288487911,-1,0,-3,-4,-4,-21,-7,1
1558441288487911,-1,1,1,1,-3,-5,-1,0
1558441288503870,-1,-1,2,2,7,17,5,1
1558441288503870,-2,-2,-2,-2,-5,-1,-4,-3
1558441288509853,0,-2,-5,-9,-7,-11,-4,-1
1558441288509853,0,-2,1,2,6,3,0,-1
1558441288518828,-1,0,-1,-2,-2,-8,5,2
1558441288518828,1,1,1,4,6,3,4,2
1558441288541795,-2,0,0,2,1,13,1,-1
1558441288541795,-1,-2,-4,-4,-4,-8,-3,-1
1558441288542765,-3,-2,2,0,0,0,-3,-1
1558441288542765,-4,-2,-4,-9,-2,9,-1,-1
1558441288547753,3,1,0,5,4,-9,2,1
1558441288547753,1,1,-1,0,0,5,3,-1
1558441288556729,-4,-1,-2,-3,-9,-6,-5,-5
1558441288556729,0,-3,-3,-3,-5,-8,-4,-1
1558441288569692,0,-3,0,0,7,5,1,1
1558441288569692,0,0,0,2,0,8,-2,-2
1558441288578668,-1,-4,-8,-5,-10,-9,-1,-1
1558441288578668,0,1,3,3,9,-4,-2,1
1558441288593664,-3,-2,-2,-2,-3,7,-3,-3
1558441288593664,-1,-1,1,0,3,7,0,1
1558441288595656,-1,-1,-1,2,2,4,0,-1
1558441288595656,-4,-3,-1,1,-8,-12,-9,-7
1558441288607626,-4,-5,-7,-12,-15,-4,-5,-6
1558441288607626,2,1,5,3,6,2,2,2
1558441288616569,-1,1,-1,-5,4,4,3,2
1558441288616569,0,1,-2,1,-1,0,4,0
1558441288638509,-3,-1,1,7,3,7,-3,-2
1558441288638509,-1,1,-3,-4,-11,-12,-6,-4
1558441288640503,-2,-6,-7,-8,-10,-2,-4,-4
1558441288640503,0,0,2,5,2,-9,0,1
1558441288653470,1,-1,-3,-2,2,4,2,-1
1558441288653470,-1,-2,-3,2,1,1,0,-2
1558441288655464,0,1,5,-3,0,-7,0,0
1558441288655464,0,-3,-2,2,-5,6,3,-1
1558441288667475,-2,-1,1,-1,0,-5,-2,-3
1558441288667475,-2,-1,-1,-2,2,3,3,0
1558441288676409,-1,-1,3,1,1,-12,-5,-1
1558441288676409,-2,-1,-7,-7,-9,-7,-3,-2
1558441288690371,0,1,-1,1,0,5,-1,0
1558441288690371,0,2,1,4,9,6,2,0
1558441288699348,-2,-2,-4,-5,-3,-1,-2,-2
1558441288699348,-1,-1,0,-3,-2,-7,-2,1
1558441288714346,-4,-3,-2,-1,-5,0,-11,-6
1558441288714346,-3,-3,-5,-7,-11,-6,-5,-3
1558441288715318,5,-1,1,1,12,14,11,4
1558441288715318,-1,1,2,4,2,-2,3,-1
1558441288727270,1,1,2,4,2,0,2,2
1558441288727270,0,0,2,0,-4,-10,-8,-3
1558441288736248,-2,-3,-8,-3,-3,5,-2,-2
1558441288736248,0,0,-1,-2,-4,-3,-4,-1
1558441288752487,0,-1,-3,-4,0,-3,-1,0
1558441288752487,-1,-1,1,0,1,2,-1,0
1558441288759185,-2,-1,2,0,-10,-7,-7,-5
1558441288759185,-1,-3,2,-2,3,15,3,-1
1558441288774185,0,3,1,4,6,-10,3,3
1558441288774185,-2,0,-3,-3,0,-3,-5,-1
1558441288775142,1,2,4,3,3,12,5,0
1558441288775142,-6,-4,-3,-3,-7,-8,-4,-5
1558441288788111,-2,-1,0,-4,-5,-1,1,-2
1558441288788111,-3,-5,-5,-4,-10,-4,-3,-4
1558441288796086,-1,-2,1,3,-7,-13,-7,-2
1558441288796086,0,2,2,4,12,9,3,1
1558441288810049,1,-1,0,-4,-6,-8,-2,2
1558441288810049,1,2,2,6,10,-8,7,5
1558441288819027,0,-2,-2,-3,-5,-4,-2,-3
1558441288819027,-4,-2,0,0,0,6,3,1
1558441288833986,-2,-1,-2,-1,-7,-12,-4,-2
1558441288833986,1,-1,-1,-4,-1,6,0,-1
1558441288834984,-2,-1,3,4,7,10,3,1
1558441288834984,1,-3,-6,-5,-6,-6,-7,-1
1558441288847949,-2,-1,-1,-2,3,2,2,-1
1558441288847949,0,-1,0,-2,-7,-11,-6,-2
1558441288863907,-1,0,-1,-3,4,0,-1,0
1558441288863907,1,-2,-3,-2,4,-1,3,-1
1558441288869889,-1,-4,1,-3,-2,4,-1,-2
1558441288869889,1,0,-1,1,7,4,4,1
1558441288878867,1,0,-3,0,-9,-3,-9,-4
1558441288878867,-3,-2,-5,-6,-12,-2,-7,-3
1558441288893852,-2,-2,-1,2,-3,-13,-4,-3
1558441288893852,0,0,0,-1,6,0,3,4
1558441288895874,-1,-1,1,-1,-1,-1,5,2
1558441288895874,-1,0,1,-3,-1,-11,-5,-2
1558441288907789,0,0,-2,0,0,11,1,-2
1558441288907789,-3,-2,-4,-5,-13,-1,-3,-6
1558441288916763,-1,0,-2,-3,1,-10,-4,-2
1558441288916763,2,-1,3,3,1,-2,-1,0
1558441288929730,-1,-1,-4,-5,-2,3,1,-2
1558441288929730,0,-1,-1,1,2,8,-4,0
1558441288946685,0,-1,-3,-3,-3,-6,-1,2
1558441288946685,0,0,-1,-2,-4,-10,-4,-2
1558441288953667,-2,-2,3,4,6,13,3,0
1558441288953667,-3,-3,-1,-3,-3,-2,2,-3
1558441288955699,-2,-3,-4,0,-4,-1,-7,-3
1558441288955699,-2,2,-2,4,7,16,5,2
1558441288967629,-1,3,5,3,7,-2,0,1
1558441288967629,-2,0,-4,-5,-11,-1,-7,-4
1558441288976604,-3,-4,-1,1,-6,-1,0,0
1558441288976604,0,-2,0,-3,2,-4,2,1
1558441288989569,3,-2,-3,-1,-3,-4,-1,1
1558441288989569,0,0,2,3,5,3,3,0
1558441288998584,-2,-1,-2,-3,-2,-3,-1,-4
1558441288998584,-1,-1,1,0,-1,6,-3,-2
1558441289013544,-1,-3,-4,-3,-3,0,2,-2
1558441289013544,-1,-3,-3,-2,-3,-19,-8,-1
1558441289015539,0,-1,0,-2,1,5,3,1
1558441289015539,-1,-2,-1,4,-3,-3,-3,-3
1558441289027468,-3,1,-2,-10,-3,-2,-5,1
1558441289027468,0,-1,-1,-4,0,1,3,-1
1558441289036445,0,0,-1,6,3,3,-1,-1
1558441289036445,-2,-4,-5,-9,-10,-12,-6,-2
1558441289050407,4,5,4,8,11,3,5,7
1558441289050407,-2,-1,-3,1,-1,7,0,0
1558441289059383,-2,-3,-3,-6,-3,-4,-2,-2
1558441289059383,-4,-2,-3,-4,-5,-4,-1,-4
1558441289074343,-4,-1,-1,-4,-8,-9,-4,-2
1558441289074343,-1,-3,0,-3,0,-1,0,-2
1558441289075340,0,1,-2,0,5,10,3,0
1558441289075340,0,1,1,2,2,3,1,3
1558441289087308,0,-3,-2,-2,-6,-7,1,0
1558441289087308,-1,-1,0,2,3,2,-3,-2
1558441289096285,0,-2,-2,-4,-10,2,-9,-5
1558441289096285,-1,-3,-2,-6,-6,-4,0,-4
1558441289110246,-1,1,-2,1,3,5,2,-2
1558441289110246,-1,0,1,6,2,-4,1,1
1558441289119223,0,2,3,-2,7,-7,4,4
1558441289119223,-1,-2,4,-1,-3,-10,-3,1
1558441289134183,0,-3,-9,-2,-5,5,0,-2
1558441289134183,0,-2,4,5,-3,-4,-4,-4
1558441289135180,-2,-3,-7,-15,-9,-8,-9,-3
1558441289135180,1,3,0,4,6,10,7,2
1558441289147154,-1,0,3,1,-1,-14,-8,-2
1558441289147154,-2,-1,-3,-4,-3,4,2,0
1558441289171085,-2,-3,1,3,-3,-6,-3,-4
1558441289171085,3,2,3,5,8,10,2,0
1558441289171085,-4,-6,-8,-15,-7,4,-5,-4
1558441289171085,1,0,-1,0,1,-3,2,3
1558441289179063,-2,-1,-2,1,-1,-1,-4,-1
1558441289179063,-1,-2,-5,1,-1,1,1,-2
1558441289193053,-1,-1,1,-1,4,2,2,-3
1558441289193053,1,2,2,1,0,-4,1,0
1558441289200050,-2,1,-2,-7,-2,-4,0,0
1558441289200050,-1,-1,-1,1,-3,4,-5,-3
1558441289206989,-4,-3,-2,0,0,3,0,-1
1558441289206989,0,2,0,2,-2,6,2,0
1558441289216963,1,1,-3,-2,-5,-15,-2,1
1558441289216963,-2,1,0,1,8,2,4,2
1558441289229964,0,-1,3,3,-2,6,-2,-1
1558441289229964,-1,-2,-6,-8,-4,-10,-6,-1
1558441289238902,-2,-1,-3,2,-1,1,1,-1
1558441289238902,0,-2,-2,-5,-5,-6,-1,-3
1558441289252867,1,0,5,8,6,-3,-2,-1
1558441289252867,-2,-1,-5,-6,-3,5,2,0
1558441289259848,-1,-3,4,-4,-6,-4,-4,-3
1558441289259848,0,-1,-3,-4,-3,-11,-3,1
1558441289267825,1,-1,-3,4,1,-8,-2,-2
1558441289267825,-1,0,5,3,7,4,-2,0
1558441289276801,0,-1,-6,-1,-1,3,3,1
1558441289276801,-3,-2,2,0,0,3,0,-2
1558441289289769,0,2,-2,-2,-7,-4,-2,-2
1558441289289769,-5,-5,-1,-1,-6,1,-3,-3
1558441289298744,-1,1,1,3,3,2,1,0
1558441289298744,1,2,3,1,8,-8,0,3
1558441289314054,-1,-1,-3,0,2,6,2,0
1558441289314054,-1,0,-3,-4,-4,0,-4,0
1558441289320073,-3,-2,-6,-9,-9,-4,-3,-3
1558441289320073,1,1,0,0,0,-6,2,1
1558441289327920,0,-4,-6,-4,-4,-5,1,1
1558441289327920,-3,1,3,2,0,1,2,1
1558441289336897,-2,-2,1,5,3,5,1,0
1558441289336897,-2,-3,0,-1,2,4,1,-3
1558441289350858,-1,-1,-1,-3,0,-2,-1,-2
1558441289350858,2,-2,-4,0,-2,-6,-5,-1
1558441289366817,-2,-1,1,-6,-4,-4,0,-1
1558441289366817,0,0,-5,-5,-9,-9,-8,-3
1558441289374089,0,1,5,3,5,10,8,1
1558441289374089,-1,0,0,0,4,1,1,-1
1558441289380838,-2,0,2,5,5,4,-1,-3
1558441289380838,-2,-2,-9,-8,-14,-3,-7,-4
1558441289396737,1,0,6,3,-1,-12,-3,-1
1558441289396737,0,0,0,-6,-2,-10,1,1
1558441289397732,-1,-4,-1,-1,-4,-5,-1,-3
1558441289397732,-3,-4,-3,2,4,17,2,-1
1558441289409731,-3,-2,-6,-5,-3,4,-5,-2
1558441289409731,-1,0,2,4,6,-4,4,2
1558441289426713,0,2,-2,-3,-7,-19,-4,-1
1558441289426713,0,1,2,9,7,7,4,0
1558441289433662,-1,-1,-3,-7,-6,-1,1,-1
1558441289433662,-3,-2,-2,-3,-9,-7,-11,-7
1558441289439621,-1,-2,-2,-2,-1,2,3,-1
1558441289439621,0,-1,-2,1,5,5,0,2
1558441289456574,-1,2,-3,-3,5,3,10,3
1558441289456574,-3,-2,0,6,-2,6,-1,-5
1558441289457572,2,0,-5,-9,1,3,1,0
1558441289457572,-1,-2,-1,-6,-9,-8,-11,-4
1558441289486494,-3,-5,-3,-2,-8,-3,-6,-5
1558441289486494,-1,-1,-3,-1,2,-5,1,1
1558441289487492,2,2,1,5,10,6,6,1
1558441289487492,2,0,5,8,6,-2,1,0
1558441289493475,-3,-1,-5,-13,-9,-5,-6,-4
1558441289493475,-3,-2,-4,-2,-3,2,-7,-5
1558441289500458,-2,0,-1,3,4,7,-2,0
1558441289500458,-2,-2,-2,-5,-1,-10,3,2
1558441289516416,1,1,1,5,-3,0,-3,0
1558441289516416,1,-1,3,-5,-8,-10,-3,-2
1558441289517413,1,1,5,-1,13,11,7,3
1558441289517413,-4,-4,-9,-6,-6,2,-2,-4
1558441289530404,-2,-3,1,6,-1,-2,-3,0
1558441289530404,-1,-1,-1,2,1,2,-1,-1
1558441289539353,1,-4,-2,-4,-6,-10,-1,0
1558441289539353,-3,-2,-1,-3,-4,-3,0,-1
1558441289553315,0,-1,0,2,-2,-2,-2,-1
1558441289553315,1,0,-1,-2,2,5,3,0
1558441289560297,0,-1,3,11,11,13,3,0
1558441289560297,-5,-5,-2,-12,-7,-4,-2,-4
1558441289576254,-1,0,2,6,4,-2,-5,-2
1558441289576254,-4,-3,-11,-11,-10,-5,-1,-1
1558441289578248,-1,1,2,3,-4,-12,-5,1
1558441289578248,1,2,1,1,7,5,5,2
1558441289599192,0,-1,-5,-1,-4,0,-5,-2
1558441289599192,0,-3,-1,-3,2,4,1,-1
1558441289600190,0,-2,-2,0,-2,-1,1,-1
1558441289600190,0,0,0,-1,-3,-2,-3,-4
1558441289613155,0,0,-3,-4,-2,-4,-5,0
1558441289613155,-1,1,0,4,-1,7,1,0
1558441289620142,-3,-3,-3,1,-2,5,-7,-1
1558441289620142,1,1,6,8,10,10,8,4
1558441289643075,1,1,1,-9,-3,-6,2,2
1558441289643075,-1,0,-4,1,-4,-5,-3,-1
1558441289652051,-3,-2,-1,-1,0,6,5,0
1558441289652051,-2,-1,-5,-2,-13,-12,-10,-5
1558441289653049,-3,0,1,-3,2,4,0,0
1558441289653049,1,1,0,-1,9,6,6,2
1558441289659033,-1,0,5,6,0,-3,-2,-3
1558441289659033,0,-2,-3,-5,-2,9,1,2
1558441289672996,-1,-1,-2,-3,-4,-7,-6,-1
1558441289672996,0,-3,-2,-3,-6,-4,-3,-2
1558441289679978,-3,-3,-1,-3,-5,-7,0,-3
1558441289679978,0,0,2,-4,4,0,2,2
1558441289695936,-2,-1,-1,0,-4,-1,-3,-2
1558441289695936,-4,-6,-3,-6,-6,9,-4,-4
1558441289697930,-2,-1,-3,-2,0,5,0,-3
1558441289697930,-1,-3,2,-2,-9,-17,-9,-2
1558441289709899,-1,-2,0,7,4,0,4,4
1558441289709899,1,1,-1,-3,2,-4,-4,1
1558441289718873,-1,-1,0,-1,-1,7,2,-1
1558441289718873,0,0,-5,-11,-4,4,3,-2
1558441289732835,0,-3,-2,-1,-2,-4,-3,-3
1558441289732835,2,1,1,8,2,-8,3,1
1558441289739817,-1,2,0,-2,-1,-4,-1,2
1558441289739817,0,1,-1,2,1,-7,-2,-3
1558441289756772,-2,-2,-4,-2,0,-2,3,-3
1558441289756772,-2,-1,-4,-3,-5,-1,-4,-2
1558441289757769,0,0,-1,1,6,6,0,2
1558441289757769,-3,-2,-1,-2,-3,2,-4,-2
1558441289769739,-2,0,-3,-2,2,9,4,-2
1558441289769739,-1,0,6,6,-1,-6,0,0
1558441289778718,-3,-2,-11,-9,-5,-4,-5,-2
1558441289778718,-2,-1,6,5,-7,-7,-7,-4
1558441289793675,-1,-2,2,5,4,4,5,1
1558441289793675,-1,-1,-2,-6,4,3,6,1
1558441289799659,-1,-4,-6,-3,-5,-5,-8,-2
1558441289799659,-3,-1,-1,0,-6,2,-5,-2
1558441289816613,-1,3,1,-3,-4,-12,-7,-1
1558441289816613,-2,0,2,4,10,-7,6,2
1558441289817610,0,-1,-2,2,-2,2,-7,-4
1558441289817610,-1,-1,-4,-2,-4,9,5,0
1558441289829577,2,-2,3,0,4,-2,0,0
1558441289829577,0,-3,-2,-3,-5,-2,-3,-1
1558441289838553,-1,0,0,-1,1,2,0,0
1558441289838553,-2,0,-1,2,3,5,-4,-2
1558441289853514,-3,1,0,-2,-2,-7,3,-1
1558441289853514,-2,0,-4,-7,-8,-8,-7,-2
1558441289860495,-2,-1,1,3,0,2,2,-1
1558441289860495,2,0,0,-2,5,-8,2,4
1558441289876453,0,-2,-2,-1,-1,-1,1,0
1558441289876453,-3,-2,-1,-1,-7,-4,-2,-3
1558441289877449,-3,-2,-1,-8,-13,-10,-5,-4
1558441289877449,1,0,2,2,13,12,8,0
1558441289890415,0,0,-1,1,4,15,-2,-2
1558441289890415,0,-1,1,1,-6,-7,-4,-2
1558441289899391,0,1,1,-1,2,0,0,0
1558441289899391,-3,-3,-3,0,-6,-13,-7,-5
1558441289913360,-2,-4,-2,-1,0,2,-5,-2
1558441289913360,-2,1,0,3,3,12,3,1
1558441289920334,-1,0,3,3,-4,-11,-2,-1
1558441289920334,-3,-3,-3,-2,-7,-10,-3,-3
1558441289936297,0,0,-2,-1,8,4,2,-1
1558441289936297,-3,0,-1,0,6,8,-2,-1
1558441289938291,-1,-5,-2,-2,-5,-7,-9,-4
1558441289938291,3,1,0,2,3,6,6,4
1558441289950254,0,0,0,-3,-7,-10,0,-1
1558441289950254,-1,-4,-3,-3,-4,-3,-1,-3
1558441289959232,-2,0,-3,-3,2,5,-2,-4
1558441289959232,-2,-1,-1,-3,2,8,-1,-2
1558441289989154,-1,2,2,2,0,-12,-1,1
1558441289989154,0,1,0,1,0,-3,-1,-1
1558441289990151,-2,-3,-2,-9,-10,-3,-4,-3
1558441289990151,-2,-2,-6,-3,-3,1,0,1
1558441289996164,-1,-1,-1,1,1,12,-1,-1
1558441289996164,-3,-3,-5,-5,-8,-13,-4,-3
1558441289998129,2,0,3,3,12,3,12,7
1558441289998129,0,0,4,3,3,-6,-2,-1
1558441290010105,-2,-1,1,-1,-5,3,2,-1
1558441290010105,-1,-3,-11,-13,-10,-1,-7,-3
1558441290019072,-2,-1,6,1,-2,4,3,-1
1558441290019072,1,2,0,3,5,6,5,3
1558441290041011,-2,-4,-6,-4,-9,-16,-11,-7
1558441290041011,-1,2,3,4,6,-9,-2,0
1558441290043007,-3,-3,-6,0,-5,-4,-7,-5
1558441290043007,-3,-2,0,-4,-6,-3,1,-1
1558441290055971,-2,-1,1,3,1,-4,-1,0
1558441290055971,0,1,0,-7,-1,2,-1,-2
1558441290057966,0,0,-2,1,6,10,5,3
1558441290057966,-3,-3,-3,-1,-6,-8,-5,-3
1558441290069937,-2,1,-1,-3,-1,2,1,0
1558441290069937,-1,-1,4,4,-1,-6,-5,-1
1558441290078911,-2,-3,-7,-5,-3,-5,-4,-3
1558441290078911,2,1,1,4,15,11,10,5
1558441290092874,-2,-1,-3,-4,-5,-8,-2,0
1558441290092874,-1,-3,-2,0,-2,6,-6,-5
1558441290101849,0,-3,0,4,-3,-1,-3,-4
1558441290101849,0,0,4,1,4,-3,1,-1
1558441290115813,0,-2,-4,-3,-2,7,0,-2
1558441290115813,-1,-2,1,-1,3,2,3,2
1558441290122796,-2,-1,-2,1,-1,2,2,-2
1558441290122796,-1,-3,-5,-3,-3,-1,-8,-6
1558441290129776,1,1,0,1,3,-4,5,2
1558441290129776,-1,0,1,1,2,3,4,-2
1558441290154709,-1,1,-1,0,0,0,0,1
1558441290154709,-4,-2,-4,-6,-9,-9,-7,-3
1558441290155705,-1,-3,1,-2,1,7,-1,-1
1558441290155705,1,-4,-2,1,4,-1,3,2
1558441290161689,0,-2,-1,-2,4,4,4,2
1558441290161689,-1,1,0,-1,-4,5,-5,-3
1558441290175655,-2,-3,-2,-4,-5,-1,-6,-5
1558441290175655,0,2,0,2,1,-6,1,0
1558441290182633,1,0,0,-8,4,10,2,1
1558441290182633,-2,-2,-5,-11,-14,-24,-7,-2
1558441290206574,0,0,5,9,2,-4,-3,0
1558441290206574,-4,-3,-9,-13,-6,15,4,-3
1558441290207567,1,0,2,3,1,-8,1,0
1558441290207567,0,1,1,5,5,4,-1,-1
1558441290212553,-1,-3,-5,-5,-5,-2,-6,-3
1558441290212553,0,-1,0,0,1,-7,1,1
1558441290221534,-1,-2,-1,4,-9,-9,-7,-1
1558441290221534,-1,-1,0,0,6,6,3,-1
1558441290235492,0,1,3,0,6,2,5,4
1558441290235492,-4,-3,-1,3,-2,6,0,1
1558441290242473,-2,-3,-6,-16,-8,-8,-8,0
1558441290242473,-1,0,2,3,-4,-6,-3,-1
1558441290266408,-1,-2,-3,-2,3,7,2,-2
1558441290266408,0,2,-1,0,-3,7,4,-1
1558441290267406,0,-1,1,5,-4,-3,-2,-2
1558441290267406,1,-1,-1,-1,3,-8,-3,-2
1558441290272393,0,0,4,-6,-3,1,4,0
1558441290272393,1,-2,-2,1,-1,-2,3,3
1558441290281368,-5,-1,1,3,4,6,3,-1
1558441290281368,0,-4,-8,-6,-10,2,-4,-1
1558441290295339,0,-1,1,2,1,-11,-7,-2
1558441290295339,0,0,1,1,5,0,-2,-2
1558441290319273,-2,0,0,-1,-2,-1,1,0
1558441290319273,-3,-1,-3,-6,-6,-4,-2,-1
1558441290320264,-2,0,0,5,1,-3,-2,-1
1558441290320264,-2,0,-3,-14,-4,4,-3,-3
1558441290321267,-2,-1,-5,-3,-5,2,-4,-4
1558441290321267,-1,-3,0,1,2,4,9,0
1558441290332233,-1,1,-2,-2,-6,-3,-5,-3
1558441290332233,-3,-3,0,1,-5,-16,-8,-2
1558441290341207,1,3,3,5,8,-4,4,4
1558441290341207,-1,0,1,-2,-3,2,-4,-1
1558441290356170,0,-2,-6,-4,1,10,3,-1
1558441290356170,-1,0,3,-6,-3,-4,-5,0
1558441290362152,0,-2,-5,2,-3,-4,-4,-2
1558441290362152,-3,-1,-3,-1,-1,0,-2,-1
1558441290379118,-3,-3,-2,-3,-6,-4,-3,-1
1558441290379118,-1,0,-1,4,1,1,1,1
1558441290380105,0,1,5,3,8,8,4,1
1558441290380105,-1,0,1,0,-2,-5,-3,0
1558441290392075,-2,-2,-9,-16,-9,-8,-3,-1
1558441290392075,1,-1,-2,2,-2,0,-5,-3
1558441290401058,-1,-1,-2,-5,-4,-1,-7,-4
1558441290401058,-3,-4,1,5,4,9,0,0
1558441290416012,0,1,4,3,1,-13,4,4
1558441290416012,1,-1,0,1,4,-6,-4,-3
1558441290421996,-2,-2,-2,-3,-2,-2,0,-1
1558441290421996,-3,-2,0,-3,-9,0,-8,-6
1558441290445929,-1,0,-2,-1,-2,6,-4,-1
1558441290445929,0,2,1,3,2,-10,3,4
1558441290447925,0,1,3,3,2,3,-1,0
1558441290447925,-3,0,-4,-3,2,-1,1,0
1558441290452911,-1,-3,-3,0,3,5,2,-1
1558441290452911,-3,-2,1,-3,-10,-3,-3,-4
1558441290461886,-4,-5,-5,-6,-8,-9,-2,-2
1558441290461886,0,0,3,7,3,-2,3,2
1558441290475852,-1,-3,-7,-7,0,-11,-6,-2
1558441290475852,-4,-2,0,-4,-3,3,-3,-1
1558441290482830,0,1,1,1,8,13,6,3
1558441290482830,0,1,2,4,3,-5,1,2
1558441290498791,-1,1,5,2,6,12,6,2
1558441290498791,-2,-6,-9,-7,-9,-3,-5,-6
1558441290500783,2,-2,-2,-4,-7,-23,-6,-2
1558441290500783,2,0,-2,-4,0,4,3,-1
1558441290512749,-4,0,0,9,5,5,-2,-1
1558441290512749,-5,-1,-2,-3,-5,3,-2,-3
1558441290521729,0,-1,0,5,-1,3,-1,0
1558441290521729,-2,-3,-8,-13,-8,-7,-2,-2
1558441290535691,3,1,4,3,1,3,6,2
1558441290535691,-1,0,1,5,8,4,0,0
1558441290542670,-2,-2,-3,-5,-6,-10,-3,-1
1558441290542670,-1,0,4,0,3,6,-1,0
1558441290558627,-5,-4,-7,-3,-6,-5,-4,-3
1558441290558627,4,2,4,7,9,7,10,5
1558441290560621,0,0,-1,3,2,2,1,-1
1558441290560621,-1,-3,-4,-8,-10,-15,-9,-4
1558441290572590,-4,-2,0,-6,-11,-1,-4,-5
1558441290572590,2,0,1,2,3,9,-1,2
1558441290581565,0,-1,-2,-2,-3,-5,-3,0
1558441290581565,3,1,3,2,4,-5,5,3
1558441290595527,-1,-1,-4,-2,-1,-3,-2,-2
1558441290595527,-2,-2,-2,-4,-2,-4,-6,-4
1558441290602509,-2,-3,-2,-3,-3,0,-3,-2
1558441290602509,-2,-1,-2,0,-7,6,-3,-1
1558441290618467,1,-1,2,4,7,5,5,0
1558441290618467,1,2,2,0,9,0,7,4
1558441290620461,-3,0,1,1,-4,-8,-2,-2
1558441290620461,-3,-2,-2,-4,-1,0,-4,-4
1558441290632430,-1,0,0,3,-1,5,-2,1
1558441290632430,0,0,1,-2,-10,-7,-2,-1
1558441290649392,-1,-2,-5,0,5,4,-1,-1
1558441290649392,3,1,-2,1,-1,-7,3,1
1558441290655368,1,-2,-2,-5,-7,-4,-5,-1
1558441290655368,-3,-2,-4,3,1,1,-4,-3
1558441290662355,-1,1,0,-1,2,13,8,3
1558441290662355,-1,-2,-2,-9,-2,-13,0,-1
1558441290679307,-1,-2,-1,-6,-7,-6,-6,-5
1558441290679307,1,0,2,7,0,-9,0,0
1558441290680301,-3,-3,-7,-10,-7,5,-3,-6
1558441290680301,-3,-2,-5,-1,-1,-1,-4,-1
1558441290692270,2,0,-3,3,7,7,3,1
1558441290692270,-1,0,4,0,4,1,4,2
1558441290701246,-2,-1,1,-1,0,2,-2,-1
1558441290701246,0,-3,0,-1,-3,12,-5,-5
1558441290715210,0,-1,-1,0,0,-13,0,2
1558441290715210,-1,-1,-1,0,3,4,1,0
1558441290724184,-1,-1,0,-4,-10,-14,-6,-3
1558441290724184,-1,-1,0,5,0,-2,-2,1
1558441290739147,-1,1,2,-1,4,5,6,1
1558441290739147,-3,-2,-6,-4,5,6,6,0
1558441290740142,-2,0,-1,0,-3,-4,-3,0
1558441290740142,-2,0,3,1,-8,4,-2,-3
1558441290752113,-1,-2,-3,-3,-3,-15,-4,-1
1558441290752113,-1,1,2,0,1,3,-2,0
1558441290761085,-2,-3,-4,-4,-3,-5,-3,-2
1558441290761085,-1,-2,-1,3,5,5,3,1
1558441290776049,-2,-2,-1,-2,-6,-1,-3,-2
1558441290776049,0,0,-2,1,6,3,-1,-1
1558441290783037,-1,0,1,0,1,3,0,0
1558441290783037,-1,2,2,-3,-1,-13,2,1
1558441290798985,1,-1,-2,0,-3,-7,-4,-1
1558441290798985,-2,-4,-7,-6,-11,-3,-5,-4
1558441290799982,1,0,0,2,5,-3,-1,-1
1558441290799982,1,0,-4,-1,6,10,5,1
1558441290812946,-1,2,4,5,-1,-4,-5,-1
1558441290812946,1,-3,-9,-16,-13,-7,-3,-3
1558441290820928,-2,-2,3,0,-8,-6,-4,-2
1558441290820928,0,-1,-2,-1,3,-7,1,0
1558441290835886,0,0,4,8,14,17,7,3
1558441290835886,-1,0,0,0,0,1,-3,-1
1558441290842867,-1,-1,-3,0,2,8,2,0
1558441290842867,-5,-5,-4,-6,-11,-10,-9,-4
1558441290858833,-1,-1,-4,-4,-5,3,-3,-3
1558441290858833,-1,0,0,2,-4,-3,-1,-1
1558441290860820,0,-2,-2,-2,-1,-2,1,0
1558441290860820,0,-2,0,5,4,-2,3,1
1558441290872793,0,-2,-9,-5,-3,-7,-1,-2
1558441290872793,0,-2,2,2,5,4,-1,-1
1558441290881763,0,3,1,-1,0,-4,-2,1
1558441290881763,-2,-1,-1,-5,-2,-1,-5,-2
1558441290895730,-2,-2,-5,-4,-6,-10,-4,0
1558441290895730,-3,-2,-2,-2,-3,-3,-4,-3
1558441290902718,-1,-2,1,0,3,8,6,-2
1558441290902718,1,1,3,4,6,12,6,1
1558441290918664,-1,-1,-7,-6,-1,-12,-4,-3
1558441290918664,-1,0,-2,-4,-3,7,2,0
1558441290920674,2,-1,-1,0,-1,-5,3,3
1558441290920674,-1,-1,-2,-3,-2,8,-2,-2
1558441290932640,1,-2,-1,-5,-5,-5,-1,0
1558441290932640,0,-1,1,4,2,-25,-4,1
1558441290941604,-2,0,1,0,-5,0,-2,-2
1558441290941604,3,1,1,1,5,5,2,3
1558441290955567,-4,-3,3,0,6,4,0,-3
1558441290955567,1,0,0,-2,-7,-6,-3,-1
1558441290962548,0,1,-1,1,2,0,1,-1
1558441290962548,-2,-2,-6,-5,-6,-7,-7,-2
1558441290978508,-1,-1,2,2,-3,2,2,-2
1558441290978508,-1,0,6,7,12,12,7,3
1558441290980502,0,0,-6,-7,-6,-11,-3,-3
1558441290980502,-3,0,2,2,1,-4,-1,-1
1558441290992469,1,1,3,0,3,13,2,2
1558441290992469,-1,-2,-4,-7,-3,2,-3,-1
1558441291001449,-4,-5,-2,-3,-8,-3,-11,-6
1558441291001449,-2,-2,-3,4,1,1,-3,-1
1558441291015410,-2,-2,-2,-6,-4,-13,-1,-1
1558441291015410,0,-2,-3,2,0,7,1,-2
1558441291022390,3,1,-1,2,10,1,2,0
1558441291022390,-1,-2,-5,-2,-10,-7,-1,-2
