timestamp,emg1,emg2,emg3,emg4,emg5,emg6,emg7,emg8
1558441271023383,-2,-1,-2,-12,0,4,-1,-2
1558441271023383,0,-1,0,7,-4,-12,-3,0
1558441271025380,1,-1,-2,1,-3,-8,-5,-2
1558441271025380,2,2,3,-2,8,3,9,6
1558441271026374,1,-2,-4,-5,-3,-7,-6,-5
1558441271026374,-2,0,-3,7,-5,1,-5,-2
1558441271027372,0,0,3,-3,2,-7,4,1
1558441271027372,2,-1,-4,-9,-1,11,4,-1
1558441271036348,-1,0,3,11,-2,-6,-6,-2
1558441271036348,-1,-1,2,-2,-1,-1,-2,-2
1558441271059287,-2,-1,-5,-11,0,16,0,-2
1558441271059287,-4,-3,-3,2,-4,-7,-7,-5
1558441271061282,0,0,2,2,5,6,6,1
1558441271061282,-2,-4,0,-1,0,0,5,-1
1558441271066279,-1,-1,4,-7,-2,0,-5,-4
1558441271066279,-2,-4,-4,-4,-14,-13,-1,-1
1558441271074247,1,0,-2,-3,0,-8,1,-1
1558441271074247,-1,-1,-3,-9,-9,-8,-7,-4
1558441271082224,-1,-1,0,9,7,16,6,2
1558441271082224,-2,1,-2,-1,0,3,-3,0
1558441271097186,-3,0,-1,-2,-5,-2,-6,-3
1558441271097186,2,0,-2,-2,4,-7,4,3
1558441271103169,-1,-3,-2,-2,-1,-3,3,2
1558441271103169,-2,-4,-2,-8,-1,-1,-3,-3
1558441271114139,-1,-2,0,3,1,4,1,-2
1558441271114139,-2,2,-6,-5,12,23,6,1
1558441271127114,1,-1,2,2,-7,-7,-6,-3
1558441271127114,-2,-1,1,2,-4,-16,-7,-4
1558441271174977,0,0,3,5,3,6,5,2
1558441271174977,-2,-2,-5,-8,-4,-4,-1,-1
1558441271175975,0,-2,0,-3,-2,-3,-4,-1
1558441271175975,-2,-1,-6,6,-3,-5,-6,-2
1558441271179979,-1,0,-1,-1,0,1,1,0
1558441271179979,0,0,-6,-14,3,4,3,1
1558441271180961,-2,-3,0,9,5,1,2,1
1558441271180961,-1,-1,2,-2,0,-1,-1,1
1558441271181958,-1,-2,-3,-12,-9,-8,-5,-5
1558441271181958,0,-2,0,8,2,0,0,-3
1558441271201905,1,4,8,6,6,-1,3,2
1558441271201905,-2,-4,-6,-9,1,1,-2,-2
1558441271202902,-3,-5,-6,-3,-5,-3,-1,-4
1558441271202902,-1,-2,-1,-2,-10,-7,-9,-4
1558441271208886,0,0,-2,-7,-5,3,-5,-2
1558441271208886,-1,-1,4,-1,-2,1,-2,-4
1558441271224843,-1,0,-3,-5,-6,-5,-6,-3
1558441271224843,-2,-2,-1,-1,0,-3,-3,-2
1558441271225840,1,0,-3,-2,5,2,11,2
1558441271225840,-1,1,2,4,3,0,0,-1
1558441271237810,-2,-1,-3,-4,-5,-3,-4,-1
1558441271237810,0,2,1,-3,-5,10,0,1
1558441271245788,-2,-2,-4,-2,-5,-6,-7,-3
1558441271245788,3,-1,5,7,2,-7,1,1
1558441271261744,-1,-2,-3,-4,-7,-7,-5,-2
1558441271261744,-2,-1,3,7,6,17,4,0
1558441271284683,-2,-1,-5,-3,-2,0,0,-4
1558441271284683,-3,-1,-4,-3,0,-1,3,-1
1558441271286678,-1,-1,1,3,10,4,-1,0
1558441271286678,0,2,2,2,-2,-7,-2,-1
1558441271287675,-4,-3,-6,-5,-9,-1,-9,-5
1558441271287675,-3,-2,-2,0,-1,-1,-5,-1
1558441271297648,-1,-2,2,0,1,10,0,-3
1558441271297648,2,0,5,3,-1,-13,4,4
1558441271305626,-1,-1,-3,-5,-1,-8,0,1
1558441271305626,0,-2,-6,-6,-6,3,-3,-3
1558441271314603,-1,0,-1,3,6,5,6,3
1558441271314603,-3,-2,-4,-4,-2,-10,-8,-3
1558441271336545,-3,-2,-1,-2,-5,-9,-4,-1
1558441271336545,-2,-2,-4,-2,-4,8,5,0
1558441271338539,1,1,3,1,7,3,4,2
1558441271338539,-1,1,0,2,8,8,2,-2
1558441271343525,0,-2,1,2,1,-6,-3,-2
1558441271343525,-2,-2,-6,-13,-14,-13,-5,-3
1558441271358486,2,2,3,8,5,6,2,2
1558441271358486,0,-3,-5,-2,1,4,2,0
1558441271365467,0,1,3,1,-5,1,-3,-3
1558441271365467,-1,-1,-1,-3,2,2,-4,-2
1558441271374444,-2,-3,-1,1,-1,-3,2,-1
1558441271374444,1,2,2,2,9,2,4,3
1558441271397383,-1,0,1,5,2,-4,0,0
1558441271397383,-1,-2,-1,-6,1,5,-1,0
1558441271398389,-5,0,-2,-2,-12,-14,-6,-3
1558441271398389,-1,-4,-2,-3,-6,-2,-5,-4
1558441271403366,1,-3,0,-3,-2,-4,-2,-1
1558441271403366,1,3,4,8,1,0,2,-1
1558441271418326,-2,-3,-5,-11,-13,-17,-11,-3
1558441271418326,-1,-3,-8,-2,3,9,4,1
1558441271451238,-1,1,1,-1,1,5,4,1
1558441271451238,0,0,1,0,-4,-2,-1,0
1558441271452235,2,2,4,3,10,-4,2,4
1558441271452235,0,0,2,0,-2,-3,-3,-2
1558441271453233,-3,1,-4,0,-4,4,-5,-4
1558441271453233,-1,0,2,0,-3,8,-6,1
1558441271457223,2,0,-1,4,12,13,12,3
1558441271457223,-3,-2,-2,-3,-7,-16,-3,-1
1558441271463205,2,-1,-2,-1,2,-6,-2,2
1558441271463205,-1,1,1,5,10,2,1,-1
1558441271478166,-2,-4,-4,-3,-6,4,-1,-3
1558441271478166,-2,-2,-3,2,-4,-6,-3,-3
1558441271485147,-3,-2,-3,-5,-5,5,-2,-4
1558441271485147,0,0,-1,-1,-3,-5,-4,-3
1558441271502102,-1,0,0,6,4,4,-1,-1
1558441271502102,0,1,3,9,10,2,8,2
1558441271509083,-6,-4,-2,-19,-8,-1,3,-2
1558441271509083,1,-4,-5,-6,-7,-11,-1,-1
1558441271516064,-2,0,1,4,-2,8,-2,-4
1558441271516064,0,-2,0,1,2,5,-2,-1
1558441271523047,0,2,-1,2,-1,-5,-3,1
1558441271523047,0,-1,1,3,8,-4,2,4
1558441271538006,-1,0,-3,-5,-5,-1,-4,-2
1558441271538006,-2,-2,-2,-2,-11,-8,-8,-3
1558441271554960,2,2,7,9,9,11,5,3
1558441271554960,-2,-1,-1,-14,-4,-1,-1,-3
1558441271555958,0,-1,-9,-1,-4,-11,-3,-2
1558441271555958,-3,-3,-2,-6,-7,-4,-7,-5
1558441271568923,0,-1,-2,1,1,8,-3,-1
1558441271568923,-1,-1,-1,3,-2,-5,1,0
1558441271575904,-3,-1,2,-1,0,-1,1,-1
1558441271575904,1,1,0,-2,-8,-4,1,-1
1558441271582885,0,-1,0,-1,2,-1,-3,-5
1558441271582885,0,1,3,5,7,6,9,2
1558441271614800,0,-2,-4,-4,-1,2,-1,1
1558441271614800,-3,-2,-1,-14,-8,-6,-2,-3
1558441271615798,-3,-7,-6,-13,-4,4,-4,-3
1558441271615798,-1,-2,-1,2,-4,-2,-6,-1
1558441271617792,-1,-1,2,1,-3,-1,-1,-1
1558441271617792,1,0,-4,-1,4,5,0,2
1558441271628763,-3,-1,-2,1,1,5,1,-2
1558441271628763,-2,0,0,1,2,-5,1,-1
1558441271635744,-1,-1,-2,-5,-5,-6,-2,0
1558441271635744,-1,0,2,0,-5,-8,-6,-2
1558441271651713,-2,-2,-1,2,0,-5,5,1
1558441271651713,-2,-1,-3,0,4,8,6,1
1558441271657685,-1,0,-1,-3,-6,-7,-3,-3
1558441271657685,0,-1,-4,1,0,2,-2,-4
1558441271674652,-1,-1,0,1,-7,-15,-14,-4
1558441271674652,1,1,0,-3,6,15,10,3
1558441271675637,0,0,5,3,6,-10,3,2
1558441271675637,0,-2,-3,-6,3,9,4,0
1558441271687606,0,2,1,1,-3,2,-1,1
1558441271687606,-3,-4,-8,-2,-10,-7,-11,-7
1558441271696582,-2,-3,-5,-1,-3,3,-6,-3
1558441271696582,2,1,-1,1,8,11,6,1
1558441271719520,1,-3,-3,-7,-6,-12,1,1
1558441271719520,1,2,3,4,-2,-10,-3,1
1558441271720517,-1,-2,0,-3,1,3,1,-2
1558441271720517,0,1,1,-2,1,-12,0,1
1558441271725506,0,-1,-4,-2,-1,6,-3,-1
1558441271725506,-1,-1,0,1,-1,5,0,-1
1558441271734480,1,-3,0,-5,-5,-14,-4,-1
1558441271734480,-2,-1,0,0,-1,-12,-5,-1
1558441271748442,-1,-1,1,5,9,11,7,2
1558441271748442,0,-1,-1,-2,-7,-7,-4,-2
1558441271757435,0,1,3,1,10,11,3,0
1558441271757435,-2,-1,0,2,-7,-2,-3,-3
1558441271779361,-2,0,1,1,-2,-4,-5,-3
1558441271779361,0,-4,-5,-7,0,-1,-2,-1
1558441271781356,-1,0,10,11,4,8,4,3
1558441271781356,-3,-4,-10,-6,-10,-10,-4,-1
1558441271785346,0,2,0,-4,2,-2,-1,-1
1558441271785346,-1,0,0,-6,4,10,4,-1
1558441271794320,-1,1,0,4,-3,-10,-3,-1
1558441271794320,1,1,1,0,2,-3,0,1
1558441271808283,1,-2,0,4,3,14,10,0
1558441271808283,-1,-1,0,4,6,8,1,2
1558441271817258,0,0,-2,-5,4,8,2,-2
1558441271817258,-1,-3,-1,-5,-8,-5,-4,-5
1558441271839200,-2,-2,-4,1,-3,-10,-8,-3
1558441271839200,0,-3,-1,-2,4,6,1,0
1558441271841200,-3,-1,-7,-8,-8,-4,-2,0
1558441271841200,1,-1,2,1,6,5,3,2
1558441271845184,-1,-1,-1,2,1,-4,2,1
1558441271845184,-2,-2,-1,-4,-5,-3,-5,-5
1558441271854161,-1,-2,-4,-9,-9,-6,-7,-3
1558441271854161,-2,-3,-2,0,2,12,-2,-3
1558441271868125,1,0,3,0,0,-10,-3,-2
1558441271868125,0,5,8,11,14,6,3,3
1558441271892059,1,-3,-5,-2,-2,4,4,0
1558441271892059,0,0,0,-5,-4,-6,-3,-1
1558441271893056,-2,-2,-4,-6,-6,3,-3,-4
1558441271893056,0,-1,-1,1,-4,-5,-3,-2
1558441271898043,0,1,4,4,8,1,3,2
1558441271898043,-1,-1,1,-1,-5,-2,-4,-3
1558441271906021,-1,-3,-3,-3,-5,-9,-1,0
1558441271906021,-1,-1,-1,-2,-4,4,2,1
1558441271920988,0,1,0,2,7,15,3,-1
1558441271920988,-1,-2,-8,-10,-5,-10,0,-3
1558441271927962,1,2,7,8,3,1,2,1
1558441271927962,-1,-2,-8,-11,-11,-28,-9,-2
1558441271953897,-4,-5,2,4,-4,-1,-5,-3
1558441271953897,-1,-1,-6,-14,9,11,6,2
1558441271953897,-2,0,4,-1,1,2,-2,-1
1558441271953897,-5,-5,-8,-6,-12,-6,-9,-6
1558441271957886,0,-1,1,0,-7,-24,-11,-3
1558441271957886,0,0,0,7,0,-2,2,2
1558441271965863,-3,0,-2,-2,5,5,-1,-4
1558441271965863,0,2,1,-3,-1,1,1,0
1558441271980823,-3,-4,-8,-6,-10,1,-9,-8
1558441271980823,-1,-1,7,6,7,12,5,0
1558441271988812,0,-4,-3,-5,-2,-5,-4,0
1558441271988812,-1,-3,2,5,-5,-1,-2,-4
1558441272004760,-2,-1,-5,-10,1,7,-1,-2
1558441272004760,1,2,0,2,0,-4,-4,-1
1558441272011741,-6,-2,-2,-3,-10,2,-1,-2
1558441272011741,3,2,2,5,15,7,5,4
1558441272017725,2,1,-2,-1,0,-12,0,1
1558441272017725,-1,-4,3,7,7,2,-1,-1
1558441272025703,-3,-3,-5,-9,-9,-4,-2,-1
1558441272025703,-1,-6,-5,-9,-10,-5,-9,-4
1558441272048646,0,0,2,5,11,8,10,5
1558441272048646,1,0,-1,1,-2,1,-1,1
1558441272057617,1,-2,1,1,-2,-5,-3,-3
1558441272057617,-5,-2,-5,-4,-7,-9,-5,-5
1558441272058614,1,2,1,2,7,17,8,4
1558441272058614,0,0,5,1,-5,-12,-6,-2
1558441272071583,2,0,-7,3,10,13,8,2
1558441272071583,1,0,2,3,-11,-13,-1,0
1558441272078561,-2,-3,-2,-5,-5,-9,-5,-4
1558441272078561,-3,-2,2,1,7,12,12,6
1558441272085546,2,1,-3,0,2,-7,0,3
1558441272085546,-1,1,0,0,1,5,-2,-1
1558441272100570,-2,-1,1,13,-6,-4,-9,-4
1558441272100570,-3,-4,-5,-19,-13,-5,-10,-4
1558441272108485,1,-1,-2,-2,4,-5,8,3
1558441272108485,-1,-2,-2,-1,0,-1,2,1
1558441272117458,-1,-2,0,-2,-3,-4,-8,-3
1558441272117458,0,1,1,7,4,13,6,-3
1558441272131458,-1,0,-6,-7,0,6,-3,-2
1558441272131458,-4,-3,-1,-4,3,-2,3,2
1558441272138466,-2,0,-4,-5,0,-1,0,-1
1558441272138466,-3,-1,-3,2,-11,-11,-9,-4
1558441272154366,0,0,1,1,1,-5,-8,-2
1558441272154366,0,-1,0,0,2,6,5,1
1558441272160384,1,-2,-2,-4,-2,-11,-1,-1
1558441272160384,1,0,1,6,3,7,7,1
1558441272177357,-2,-1,4,-5,-1,-2,-2,-1
1558441272177357,-3,-4,-8,-2,-6,-5,-11,-4
1558441272178307,-2,-5,-3,-3,-12,-2,-8,-4
1558441272178307,1,2,-3,-2,4,0,4,5
1558441272191263,0,0,6,0,4,2,1,-1
1558441272191263,1,3,2,4,9,14,7,3
1558441272198343,-1,1,-1,1,-2,-1,1,0
1558441272198343,-2,2,1,-6,-7,-5,-5,-1
1558441272214300,-2,-1,-5,0,-5,1,-1,-2
1558441272214300,-2,-3,-5,-5,-5,3,-4,-4
1558441272221262,-1,-1,-3,-2,-3,-1,-2,-2
1558441272221262,1,-1,0,2,10,0,5,3
1558441272237138,0,-5,-1,2,-1,-14,-4,-1
1558441272237138,0,0,4,8,-1,0,0,-3
1558441272238135,0,1,2,-3,1,-1,5,1
1558441272238135,-1,-3,-2,-3,-6,-1,-9,-3
1558441272251100,0,1,0,4,4,4,5,2
1558441272251100,-2,-2,0,-1,-1,-2,-3,0
1558441272258081,0,-1,-2,-1,-4,-11,-4,1
1558441272258081,-3,-1,3,3,1,2,1,-3
1558441272274041,-2,0,-4,-2,-2,4,2,-1
1558441272274041,-2,-1,-1,1,-2,-4,-4,-5
1558441272282017,-1,0,-1,-7,-4,-8,3,0
1558441272282017,-2,-4,-3,1,-2,-5,-10,-5
1558441272297150,-1,-1,4,-2,-1,2,0,1
1558441272297150,1,2,-1,0,4,1,7,2
1558441272297977,0,-1,1,-4,2,7,1,-3
1558441272297977,1,0,-4,0,1,-11,-3,0
1558441272312017,-3,-2,-3,-4,-15,-21,-13,-4
1558441272312017,0,-3,-3,-3,5,15,0,0
1558441272318921,1,0,1,3,2,2,7,1
1558441272318921,-1,0,-1,-1,-4,3,-2,-3
1558441272334049,-1,-1,-5,0,-8,-10,-8,-3
1558441272334049,-1,0,1,0,10,10,10,2
1558441272340858,-1,0,-3,2,5,2,-3,-1
1558441272340858,-3,-2,-1,-3,-4,-2,1,-2
1558441272356821,-2,-2,-3,2,2,3,0,-2
1558441272356821,-3,0,1,-3,-8,-10,-5,-2
1558441272358850,-1,0,1,-2,0,-12,-2,0
1558441272358850,0,2,3,7,1,9,5,1
1558441272371825,-2,-4,-4,-6,-1,-2,-4,-3
1558441272371825,0,-4,-6,-2,-3,-5,-2,1
1558441272385739,3,3,4,2,6,-5,3,5
1558441272385739,-3,-4,-3,-5,-6,-5,-4,-1
1558441272393718,-3,-2,0,-3,-8,5,1,-1
1558441272393718,1,-2,-7,0,-6,-14,-9,-6
1558441272400707,-1,-4,-3,-4,10,22,4,1
1558441272400707,-2,-1,-2,-4,1,-4,4,0
1558441272416660,-2,-1,0,-2,-3,2,4,-1
1558441272416660,0,3,9,5,3,-1,1,-1
1558441272418656,-2,-4,-6,-5,-13,-17,-12,-6
1558441272418656,-2,-2,-9,-12,-3,7,-3,-5
1558441272431644,-1,1,2,7,6,6,6,1
1558441272431644,1,1,2,-4,-6,-13,-3,-1
1558441272438597,-1,0,0,0,-2,4,-7,-4
1558441272438597,1,-1,4,8,4,0,-3,0
1558441272453557,0,0,-8,-19,-6,2,4,3
1558441272453557,-2,-1,-2,-1,3,-5,-1,1
1558441272460545,-3,-2,-3,-4,4,13,2,-4
1558441272460545,0,-1,0,3,-4,0,-6,-5
1558441272476495,1,2,1,1,10,-9,8,3
1558441272476495,-1,-2,1,0,0,-13,-4,0
1558441272478490,0,-3,-4,-1,-12,1,-6,0
1558441272478490,1,1,2,0,-1,-3,-3,1
1558441272491454,0,-3,-5,2,-2,-2,-5,-3
1558441272491454,-1,-1,0,-10,-9,-4,-2,-3
1558441272498435,0,0,0,4,4,-7,-3,-1
1558441272498435,1,4,3,2,11,15,10,1
1558441272513399,-2,-3,-4,-3,-3,3,-3,-2
1558441272513399,-2,0,-2,2,-6,-5,1,1
1558441272520379,-1,0,0,0,-3,-5,-5,-3
1558441272520379,0,-2,-7,-3,-3,-6,-3,-2
1558441272537385,-1,-2,9,7,5,-7,-3,-1
1558441272537385,-2,-5,-5,-4,-3,1,-7,-6
1558441272538329,0,-1,0,-7,-9,2,0,-2
1558441272538329,-1,-1,-1,-2,2,-2,3,2
1558441272551323,1,1,-3,8,1,1,-4,-1
1558441272551323,-1,1,0,-5,-6,-9,-6,-1
1558441272558327,-3,-5,0,0,-6,-2,-2,-4
1558441272558327,-2,-2,-4,-8,-2,6,1,-1
1558441272574233,1,0,0,2,3,5,3,2
1558441272574233,0,0,0,-4,7,6,6,3
1558441272580229,0,2,1,1,3,-5,3,3
1558441272580229,-3,-2,2,2,-5,-5,-6,-5
1558441272597230,-3,-2,-4,-5,-6,-4,-9,-4
1558441272597230,1,-1,-3,-1,1,5,0,0
1558441272598186,-2,0,-2,-3,-3,-11,-3,0
1558441272598186,-1,1,2,7,4,-1,-1,-1
1558441272611136,2,2,1,2,7,11,6,2
1558441272611136,-3,-2,-1,-4,6,8,3,-2
1558441272619175,-1,-3,-4,-11,-15,-4,-3,-4
1558441272619175,1,0,0,-1,4,-7,3,2
1558441272634073,-1,-1,0,0,-1,-5,-4,-2
1558441272634073,0,0,-1,-3,-2,5,-2,0
1558441272641056,-6,-3,-2,5,0,4,-3,-3
1558441272641056,-5,-3,-7,-6,-5,1,-3,-2
1558441272657013,1,1,6,10,0,1,2,0
1558441272657013,0,-1,-1,-14,-2,-2,0,0
1558441272658010,-2,-1,-1,2,4,-4,-2,-1
1558441272658010,0,-2,-1,-1,-15,-16,-8,-2
1558441272670974,-1,-3,-4,-9,-6,-3,-2,-1
1558441272670974,0,0,2,6,4,5,4,2
1558441272679951,2,0,-1,2,3,-9,0,-2
1558441272679951,2,-1,-4,-8,1,1,-2,-3
1558441272693913,-1,-2,4,4,-2,7,0,-1
1558441272693913,1,2,-5,6,0,-12,3,2
1558441272700930,-3,-1,1,0,2,16,3,1
1558441272700930,-1,-2,1,7,7,4,-1,2
1558441272716853,-2,-1,-9,-15,-9,-15,-7,-5
1558441272716853,-1,-2,3,-1,-1,3,-7,-4
1558441272718846,1,0,-2,-9,-8,-1,3,0
1558441272718846,-2,-1,-1,0,0,1,2,-1
1558441272730850,-3,1,3,5,8,8,-2,0
1558441272730850,-2,0,-1,-1,-6,-6,-2,-1
1558441272739792,-1,0,0,-2,2,4,0,0
1558441272739792,-3,0,-5,-2,-7,-12,-6,-1
1558441272753755,-3,-1,-3,-4,-5,-14,-4,-1
1558441272753755,0,1,1,0,2,1,5,0
1558441272760734,-1,-4,-10,-1,-4,-6,-2,-3
1558441272760734,0,-2,2,5,3,7,4,1
1558441272776692,1,-1,-4,-4,3,2,1,3
1558441272776692,-2,-6,-3,-6,-8,-9,-7,-3
1558441272778686,0,-1,2,5,5,5,2,1
1558441272778686,-1,-3,-1,-8,-10,-5,-3,-3
1558441272790654,0,-1,-3,-4,-5,3,-2,-1
1558441272790654,-2,-2,-2,1,1,8,-7,-4
1558441272799632,-1,1,0,-1,0,-2,2,1
1558441272799632,-4,-1,-1,-3,4,-2,0,-3
1558441272813623,1,1,0,1,-1,0,3,-1
1558441272813623,1,0,-1,1,-1,2,2,1
1558441272820576,2,2,5,3,6,0,4,5
1558441272820576,0,0,-3,5,6,-2,-1,-2
1558441272836531,-2,-5,-5,-8,-13,-1,-2,-3
1558441272836531,-2,-1,-4,-3,-9,-8,-7,-4
1558441272838526,-2,-4,-4,1,-1,-6,0,-4
1558441272838526,0,0,3,2,-1,-2,-2,0
1558441272850494,-1,0,0,1,-3,-7,-3,-1
1558441272850494,0,1,2,1,6,-1,7,2
1558441272859471,0,-1,1,-1,-4,1,-2,-1
1558441272859471,2,-2,-4,-4,-2,-5,0,0
1558441272873434,2,1,2,6,10,2,-2,-3
1558441272873434,-2,-2,-10,-18,-11,2,-2,-4
1558441272880415,-1,-1,2,1,1,4,-3,-3
1558441272880415,-1,-2,-7,-6,-10,-5,-6,-3
1558441272896372,-3,-4,3,-6,-3,-2,2,-2
1558441272896372,0,0,2,10,9,5,3,4
1558441272903352,-1,0,1,2,10,7,0,-1
1558441272903352,0,-2,-2,-7,-8,-13,-6,-2
1558441272910335,-3,-5,-5,-3,-4,-6,-7,-5
1558441272910335,0,-1,1,-2,0,4,1,-2
1558441272919310,-2,-2,-5,-3,-1,4,0,0
1558441272919310,3,2,4,0,-1,-12,5,3
1558441272933273,-1,0,0,2,2,2,-1,3
1558441272933273,-2,-2,-4,-2,-3,-6,-5,-3
1558441272940272,1,0,-2,-6,-11,-17,-7,-1
1558441272940272,-2,0,0,4,9,13,3,0
1558441272956212,0,0,0,-7,-6,3,5,-1
1558441272956212,-3,-2,-2,2,0,-2,-3,0
1558441272963193,-3,-2,-4,-1,-1,5,1,-2
1558441272963193,0,0,-1,-4,-6,-2,-7,-3
1558441272970174,-1,0,-1,4,11,-3,3,1
1558441272970174,-1,-4,5,-1,1,5,-5,-2
1558441272979151,-2,0,-2,-5,-4,-12,-3,0
1558441272979151,-1,0,1,0,0,-4,0,0
1558441272994111,-3,-1,-3,0,-1,1,-3,-2
1558441272994111,-2,0,-5,-5,0,7,5,0
1558441273001093,0,0,3,5,6,-8,2,1
1558441273001093,-2,-3,-5,-9,-11,-5,-6,-4
1558441273016078,2,2,2,8,4,7,7,2
1558441273016078,-1,-4,-8,-14,-7,-13,-6,-2
1558441273023033,-3,-4,1,-1,0,8,-3,-2
1558441273023033,-1,-1,0,0,5,5,1,1
1558441273039990,-1,-1,-4,-6,-8,-7,-4,-3
1558441273039990,-1,-2,0,5,-1,-5,-1,-1
1558441273040986,1,3,-2,-7,0,8,4,0
1558441273040986,-1,-2,3,4,2,12,2,-2
1558441273053951,-2,-5,-2,-6,0,-3,0,-1
1558441273053951,2,2,8,8,2,-13,0,5
1558441273060933,-1,-3,-7,1,-2,-6,-9,-3
1558441273060933,-2,-1,-4,-5,-1,9,4,0
1558441273075891,-1,2,1,-1,2,-1,-1,1
1558441273075891,-3,0,0,1,-1,-4,3,0
1558441273082874,2,-2,0,2,4,15,3,-2
1558441273082874,-2,-1,-1,1,-3,-6,-2,-2
1558441273099827,2,0,5,2,4,8,2,-1
1558441273099827,3,0,-7,-8,-7,-5,2,2
1558441273100824,0,1,4,8,4,5,-1,-1
1558441273100824,-2,-1,-6,-12,-2,-1,1,1
1558441273113790,-3,-2,-1,-2,-8,-6,-7,-3
1558441273113790,-1,-1,-1,3,-2,2,-5,-4
1558441273120772,-2,0,-2,-1,-3,-6,-1,-1
1558441273120772,-1,-2,0,-2,-4,-1,-3,-3
1558441273136729,0,1,1,-1,5,-9,0,2
1558441273136729,0,-2,-5,2,-3,1,3,-2
1558441273142747,-1,0,6,-6,0,9,3,0
1558441273142747,0,-1,-2,2,1,-4,-3,-1
1558441273158669,-3,-3,-8,-7,-10,-10,-8,-3
1558441273158669,1,0,1,11,13,1,7,4
1558441273166683,-2,-1,-3,-8,-8,-8,-3,-3
1558441273166683,-3,-1,1,0,-3,-1,-6,-2
1558441273173631,0,0,1,3,-5,4,0,-3
1558441273173631,-2,-3,-4,-14,-2,13,5,-1
1558441273180669,-2,-4,-1,4,-1,-8,-3,-1
1558441273180669,-1,0,1,1,4,2,5,0
1558441273196568,-3,-3,-4,-4,-6,-1,-7,-6
1558441273196568,-1,-1,1,1,-3,-6,-7,-1
1558441273202552,1,0,-2,-3,3,9,5,2
1558441273202552,0,1,-1,2,3,0,-6,-2
1558441273219545,-2,0,3,2,2,-1,-2,1
1558441273219545,-3,-3,-4,-9,-15,-7,-3,-2
1558441273220543,-4,-4,-5,-6,-6,-4,-2,-3
1558441273220543,0,-1,1,4,4,4,-1,-2
1558441273233504,-2,2,-1,2,6,12,6,4
1558441273233504,0,3,4,2,1,-19,0,-1
1558441273240451,-1,-1,-2,1,-7,-5,-6,-4
1558441273240451,0,-1,-8,-11,-11,-6,-3,-4
1558441273256409,0,0,-3,-2,13,7,5,5
1558441273256409,-3,-1,2,-3,-4,-9,-10,-4
1558441273263416,-1,-2,1,6,6,3,1,0
1558441273263416,-3,-2,4,3,2,-3,-1,-1
1558441273279382,0,-3,-3,-3,-10,-1,-4,-6
1558441273279382,1,-2,-2,5,7,14,0,0
1558441273281350,3,1,-7,-6,-5,-21,-3,2
1558441273281350,-2,-4,1,4,5,13,2,1
1558441273293314,-1,-1,-1,2,-6,-9,-5,-1
1558441273293314,-3,-1,2,6,-5,7,-1,-3
1558441273300292,-3,-1,-3,-1,-1,-9,-3,-2
1558441273300292,2,2,-6,-14,-1,-3,2,2
1558441273324234,-2,-1,-1,2,0,7,4,-2
1558441273324234,0,-2,0,-2,0,7,-4,-3
1558441273326249,1,1,1,2,-1,-10,3,2
1558441273326249,0,-1,1,5,-2,-9,-5,-1
1558441273339220,-2,-3,1,-5,-2,-5,-2,-2
1558441273339220,0,2,-1,1,2,3,0,-1
1558441273341209,-1,-2,-2,-5,-5,12,0,-1
1558441273341209,-1,1,1,3,0,-8,-7,-1
1558441273354618,2,3,2,2,5,5,10,4
1558441273354618,0,1,-2,-5,-3,2,-4,0
1558441273361561,1,0,1,3,-1,7,3,1
1558441273361561,-3,-1,-1,-11,-7,-15,0,-1
1558441273376565,-1,-3,-7,-4,-1,-4,-2,-3
1558441273376565,-2,-2,0,5,-1,-5,-7,-4
1558441273391055,0,0,2,0,-3,-7,-2,2
1558441273391055,1,1,1,4,6,15,11,1
1558441273400273,0,-2,-1,-2,-6,2,-4,-2
1558441273400273,0,-2,-3,-2,2,-10,-2,0
1558441273401024,-2,-1,-1,-4,-1,1,-4,-4
1558441273401024,1,-1,0,5,-4,2,-4,-2
1558441273413987,0,2,1,6,8,8,5,2
1558441273413987,0,0,1,1,4,10,1,-1
1558441273420998,-1,-1,2,-1,4,-8,-3,1
1558441273420998,-1,-2,-3,-1,-3,-4,1,-1
1558441273435930,1,-1,1,-1,-8,-9,-7,-2
1558441273435930,0,-2,-1,0,4,-3,-2,0
1558441273442961,-1,-1,-7,-11,-1,11,6,0
1558441273442961,0,-1,-2,0,-3,-6,3,-2
1558441273459864,0,-1,5,-2,-1,-2,-5,-3
1558441273459864,0,3,5,5,2,2,7,2
1558441273460863,0,0,-4,1,2,1,0,0
1558441273460863,-3,-3,-2,-5,-9,-7,-10,-3
1558441273473834,-5,-4,-7,-4,-6,-1,-2,-4
1558441273473834,0,-2,0,0,6,7,6,2
1558441273480809,-1,0,5,6,3,-4,-1,0
1558441273480809,-4,-3,-9,-5,-5,0,-4,0
1558441273511726,0,2,4,5,8,-3,-4,0
1558441273511726,-2,-3,-6,-9,-13,-4,-6,-4
1558441273513721,1,-2,-1,-5,-7,-10,-5,-3
1558441273513721,2,-1,0,8,7,5,5,2
1558441273519763,-2,-1,2,-1,-3,-17,-7,-1
1558441273519763,0,-1,-6,-2,5,-2,6,1
1558441273520703,-1,-4,0,-4,-5,2,-2,0
1558441273520703,-3,-1,-3,-3,-9,-9,0,-2
1558441273532671,0,-2,-3,-4,4,11,7,2
1558441273532671,-1,-1,3,-1,0,-5,-3,-1
1558441273541831,0,2,-4,-2,-3,-1,-2,-1
1558441273541831,-1,-2,2,0,-7,2,-4,-4
1558441273556612,1,0,-4,-5,-4,-6,-2,-1
1558441273556612,0,1,4,6,4,2,1,0
1558441273562592,0,-2,-6,-11,1,9,1,-1
1558441273562592,-1,-1,5,8,7,0,-1,3
1558441273579544,-4,-2,-6,-7,-8,0,-5,-1
1558441273579544,-2,-2,-3,-4,-8,-7,-3,-2
1558441273580554,-4,-5,1,5,-1,2,-4,-3
1558441273580554,-1,3,0,-3,6,3,2,-1
1558441273593506,2,2,0,1,-1,-11,0,3
1558441273593506,-2,0,-3,-1,-5,1,5,-1
1558441273601486,1,0,-2,-3,-9,-5,-2,-1
1558441273601486,2,0,-1,-1,6,-1,3,4
1558441273616492,-2,-1,0,5,7,13,2,0
1558441273616492,0,0,-4,-2,-1,2,-1,0
1558441273623427,-3,-3,2,1,-8,-6,-4,-6
1558441273623427,0,0,0,-2,-7,-8,-6,-1
1558441273639386,0,1,-3,-1,3,-2,-1,1
1558441273639386,-4,-1,0,-2,-3,4,-2,-2
1558441273640384,2,1,0,3,9,4,4,2
1558441273640384,0,0,1,-2,-3,3,-1,-1
1558441273653346,-2,-3,-2,-3,-6,-12,-3,-2
1558441273653346,-2,-3,-5,-3,-2,1,-7,-3
1558441273662326,1,2,-1,5,3,-3,4,2
1558441273662326,-1,1,3,1,4,-5,-1,-2
1558441273676285,-1,-3,4,-1,-6,4,-3,-4
1558441273676285,-2,-2,-2,3,-2,-3,-4,-3
1558441273683266,-3,0,-1,-2,0,-10,0,-1
1558441273683266,-1,-3,-4,-2,1,7,1,-3
1558441273699225,-1,-2,0,2,-1,-7,-2,-1
1558441273699225,-1,-2,1,0,1,1,-2,-1
1558441273701219,-4,0,-6,-12,-10,1,-3,-2
1558441273701219,-1,1,-2,-3,4,5,3,2
1558441273713186,-1,-1,-4,-3,-1,2,-3,-5
1558441273713186,0,0,5,4,3,-10,0,1
1558441273722163,2,0,-1,4,-2,-6,1,-1
1558441273722163,0,-1,-5,-4,-4,2,-2,-4
1558441273736407,-1,0,-4,2,3,9,2,-2
1558441273736407,-2,-1,-3,-4,-3,2,-3,-3
1558441273743478,-4,-4,1,-1,-2,-7,-4,-1
1558441273743478,-1,-2,4,2,0,3,-6,0
1558441273760135,0,0,1,1,4,5,5,2
1558441273760135,1,1,1,-1,-3,-10,-3,1
1558441273761060,-4,-5,-3,4,2,0,2,-3
1558441273761060,0,0,-3,-6,4,2,-2,0
1558441273773027,2,1,1,-8,-5,9,-1,-2
1558441273773027,1,1,0,-1,-4,-5,-7,-1
1558441273782004,-2,-2,-4,-8,1,14,1,-3
1558441273782004,1,-2,2,3,-6,-12,0,-3
1558441273797036,-5,-2,-4,-4,-3,-17,-5,-3
1558441273797036,1,1,2,8,3,7,4,1
1558441273803283,0,-2,-4,-8,1,-5,-4,-4
1558441273803283,-3,1,0,-1,-8,4,-1,-2
1558441273818907,1,-2,-6,-1,-5,-9,-3,1
1558441273818907,0,-1,-2,-5,5,2,4,3
1558441273826986,-1,1,3,6,10,20,5,4
1558441273826986,-1,-1,3,3,-2,-8,-4,-3
1558441273833170,0,-3,-9,-14,-4,3,0,-2
1558441273833170,0,-1,-3,-4,-4,-6,0,-1
1558441273841844,1,1,0,1,-6,-7,-1,-2
1558441273841844,0,-1,0,7,4,3,5,1
1558441273855807,-2,-1,-1,-4,-8,-12,-9,-4
1558441273855807,-1,1,3,0,14,21,5,1
1558441273863812,0,0,0,3,2,2,3,2
1558441273863812,-1,1,0,-2,-3,-1,1,1
1558441273878774,-2,-4,2,3,-2,-4,-4,-2
1558441273878774,-6,-6,-7,-6,-15,-22,-7,-5
1558441273885755,-1,3,3,1,12,8,-5,-3
1558441273885755,-2,-2,-4,2,-1,3,-2,-4
1558441273892708,3,1,0,-2,-2,-5,3,1
1558441273892708,-1,-1,-2,-1,1,13,2,-1
1558441273901686,-3,-2,-4,-5,-9,-9,-5,-2
1558441273901686,-1,1,3,-4,-3,-13,0,1
1558441273916699,-2,2,-2,8,2,0,-2,-2
1558441273916699,-1,-2,6,-1,-1,-1,-4,-2
1558441273922636,-1,-3,-4,-4,-11,-7,-3,-2
1558441273922636,1,-1,-6,-9,4,-2,-1,0
1558441273938627,-3,-2,-1,-2,1,6,3,-1
1558441273938627,0,3,3,0,4,-8,-1,1
1558441273945564,-1,0,-2,5,1,1,-2,-1
1558441273945564,-1,0,1,0,-8,-12,-3,-2
1558441273953543,-2,0,-3,-8,-6,2,-5,-3
1558441273953543,1,-1,-3,-1,2,3,2,-2
1558441273961524,0,0,8,7,3,-6,-2,-1
1558441273961524,0,-1,-4,-2,-3,3,-5,-1
1558441273976483,-1,1,5,-1,3,2,2,1
1558441273976483,-1,-3,-7,-1,-3,4,-1,-2
1558441273983514,-2,-1,-2,-1,-5,3,-2,-1
1558441273983514,-2,-2,-3,0,3,-7,5,3
1558441273998455,-2,0,4,5,8,10,6,2
1558441273998455,-1,-1,-4,-2,-5,-8,-9,-1
1558441274005406,2,-3,-1,-2,-6,0,1,-1
1558441274005406,-2,-2,-2,-3,-4,-3,-3,-3
1558441274022363,0,0,1,2,1,0,0,1
1558441274022363,0,0,7,5,4,3,6,2
1558441274023361,-2,0,-4,-5,2,16,3,1
1558441274023361,-2,-2,-2,0,-1,12,-2,-3
1558441274036354,1,-3,-1,3,4,-10,0,0
1558441274036354,0,-1,-7,-10,-10,-9,-6,-3
1558441274043305,-1,-1,3,-1,-4,-3,-3,-3
1558441274043305,-2,-2,-1,1,2,12,3,-1
1558441274058265,-1,-2,2,4,-4,-10,-3,-1
1558441274058265,0,-2,-5,-5,-1,10,4,-2
1558441274073225,-2,-2,-1,4,-1,-6,-1,-3
1558441274073225,-2,-2,-6,-12,-4,-3,-4,-1
1558441274082199,0,-1,2,3,4,-1,2,0
1558441274082199,-4,-4,-4,-2,-10,-10,-12,-3
1558441274083197,2,2,0,5,6,-7,-3,2
1558441274083197,-2,-5,-6,-8,-4,3,-6,-1
1558441274096164,-1,-1,-2,0,-2,-6,1,2
1558441274096164,-3,-1,1,1,4,2,3,-1
1558441274103145,1,0,0,-3,-4,-13,-1,0
1558441274103145,1,-2,4,5,-1,-6,-3,-2
1558441274119100,0,1,-1,3,6,15,3,3
1558441274119100,-1,-2,-1,-3,-8,-9,-2,-3
1558441274126085,1,-2,-1,2,7,-2,3,5
1558441274126085,1,1,-1,2,3,-6,2,0
1558441274142231,-4,-2,-6,-7,-11,-3,-10,-7
1558441274142231,-3,-3,-1,-1,-1,12,0,-4
1558441274143225,-3,-3,-2,1,1,-13,0,0
1558441274143225,1,1,4,3,5,2,2,1
1558441274156003,-2,-1,-4,-4,-3,1,0,-3
1558441274156003,1,0,1,-3,-2,-2,-6,-2
1558441274163063,-2,-3,-5,0,-6,-5,-2,-3
1558441274163063,0,0,4,1,6,9,3,-2
1558441274187004,-1,-3,-1,-1,0,-3,1,-1
1558441274187004,-1,-2,-1,3,3,6,4,4
1558441274187918,-1,-1,1,-3,-2,-4,1,0
1558441274187918,-3,-3,-2,-3,-6,-3,-3,-3
1558441274201965,0,0,3,3,-5,-8,-9,-4
1558441274201965,0,1,-7,-6,13,21,17,6
1558441274203917,-2,-1,-6,-12,-2,0,-2,-1
1558441274203917,-1,-1,-2,3,0,4,0,-3
1558441274215871,-1,-1,-1,-3,-5,2,0,-4
1558441274215871,0,2,8,8,0,-6,-4,-3
1558441274222824,-3,-2,-10,-9,-7,5,3,0
1558441274222824,0,0,-2,0,1,-6,1,3
1558441274238781,-2,0,1,-2,1,1,1,-1
1558441274238781,-2,0,4,5,3,-11,-2,1
1558441274245793,-1,-3,-4,-8,-5,7,-4,-1
1558441274245793,-4,-4,-3,1,-13,-4,-8,-6
1558441274261749,-1,-1,-3,-4,2,-4,-1,1
1558441274261749,2,1,3,-1,-4,-12,-1,2
1558441274263745,0,-1,3,6,4,1,-2,-2
1558441274263745,-1,-2,-8,-9,-4,4,-1,-2
1558441274276717,1,1,-1,-3,1,9,4,-1
1558441274276717,-4,-5,-6,-7,-1,4,-4,-3
1558441274282665,-1,1,2,-1,-9,-18,-4,2
1558441274282665,2,0,1,1,7,-2,6,1
1558441274298652,-2,-4,-2,4,-6,-3,-6,-3
1558441274298652,-2,-1,0,-2,-4,4,-4,-3
1558441274305602,-2,0,-6,-11,-1,6,9,-2
1558441274305602,0,0,0,0,0,-13,-5,0
1558441274321559,0,-2,0,1,2,-1,1,2
1558441274321559,0,0,-2,-1,-9,-12,-5,0
1558441274323554,0,-1,1,2,4,12,0,-1
1558441274323554,-1,1,-2,-1,-4,6,3,0
1558441274336716,0,0,-1,-2,5,-13,-3,0
1558441274336716,0,-2,-4,-2,-6,-5,-6,-2
1558441274343685,-2,-2,-1,2,-12,-3,-8,-1
1558441274343685,1,2,2,2,13,15,6,4
1558441274358657,0,-2,1,1,-6,-9,-4,-1
1558441274358657,-2,-1,-1,2,-4,-5,-2,-4
1558441274365514,0,2,3,-1,-2,-2,-3,-4
1558441274365514,1,-2,-6,7,1,3,-5,0
1558441274381430,-1,-1,1,-9,-6,5,3,2
1558441274381430,0,0,1,4,4,-3,4,3
1558441274389380,0,0,0,1,7,6,3,1
1558441274389380,-3,0,1,-4,-10,-5,-8,-3
1558441274396388,-2,-3,-5,-2,-5,-8,-5,-3
1558441274396388,1,-1,2,0,2,2,0,2
1558441274403374,-1,-1,-3,-4,-8,-5,-3,-3
1558441274403374,0,-1,2,-1,4,5,3,-1
1558441274418337,1,2,-2,3,6,2,3,2
1558441274418337,-2,-4,-6,-4,-7,-1,0,-4
1558441274425284,0,-2,2,2,8,12,1,-1
1558441274425284,-3,-4,-2,-5,-8,-6,-2,-6
1558441274442268,0,-1,0,-2,1,1,-2,1
1558441274442268,-2,0,-1,0,1,0,0,0
1558441274443233,1,0,-1,5,7,-8,0,2
1558441274443233,-2,-2,-3,-10,-12,-7,-1,1
1558441274455242,0,-2,1,-1,-7,-1,-6,-2
1558441274455242,-1,-1,4,2,6,4,3,0
1558441274464212,-1,-3,-6,-4,-3,1,-2,-1
1558441274464212,0,1,3,1,5,1,3,-1
1558441274479185,0,-3,-6,-3,-3,3,1,-2
1558441274479185,1,0,5,5,-1,-7,-5,-2
1558441274485160,-3,-3,-2,-8,-8,-18,-9,-4
1558441274485160,1,-1,2,4,5,-3,1,2
1558441274502111,-1,-2,1,4,0,5,5,1
1558441274502111,1,0,-3,-4,2,3,1,1
1558441274503077,-1,1,-1,4,1,8,-1,-1
1558441274503077,-4,-3,2,-4,-11,-13,-13,-6
1558441274516044,0,1,-2,-5,10,9,7,1
1558441274516044,-3,-2,-2,-2,-4,-8,-5,-2
1558441274524021,0,-2,-1,3,3,-2,-3,-3
1558441274524021,-3,-3,-3,-5,-8,0,1,-2
1558441274538978,0,-2,-1,-3,1,-3,2,1
1558441274538978,-1,0,-1,-1,-4,4,-1,-3
1558441274545990,0,-1,-2,2,4,2,-2,-1
1558441274545990,0,-1,1,-1,6,1,-2,-1
1558441274561918,-1,-1,0,0,-5,-6,-4,-3
1558441274561918,-2,-1,-5,-5,-7,-22,-9,0
1558441274562918,0,1,3,1,2,7,0,1
1558441274562918,-2,-1,-3,4,0,7,2,-2
1558441274575908,-2,-2,-1,-1,-6,-20,-9,-1
1558441274575908,-1,-2,-2,-1,8,19,4,2
1558441274584901,-2,-1,-1,-6,-8,-5,-2,-2
1558441274584901,2,1,-1,4,3,-7,3,2
1558441274598847,1,0,2,0,8,19,6,1
1558441274598847,-2,0,-1,-6,-5,-6,-2,-4
1558441274605802,-3,-2,1,4,2,0,-2,-2
1558441274605802,-1,-1,-2,-5,-6,-2,1,1
1558441274621790,-2,0,-2,-2,-3,-1,-7,-1
1558441274621790,0,-1,-3,-2,-3,-4,-3,0
1558441274623753,0,-3,0,1,1,0,-6,0
1558441274623753,-1,-1,-7,-1,-2,3,4,0
1558441274635755,1,2,7,8,3,2,2,0
1558441274635755,-1,-4,-8,-13,4,-10,-2,-2
1558441274651714,-1,-2,1,-3,-14,-3,-5,-3
1558441274651714,-3,-3,-2,-7,-7,-9,-9,-4
1558441274658688,-2,-2,-4,6,7,-4,2,3
1558441274658688,1,1,2,3,2,2,2,0
1558441274665670,-2,-3,2,-1,1,-2,2,-1
1558441274665670,1,2,1,0,3,-8,-7,-3
1558441274681677,-2,-2,-3,0,-3,1,-1,-2
1558441274681677,-2,0,-2,-2,-7,-3,1,-3
1558441274683833,-2,-1,-3,1,2,4,5,1
1558441274683833,-2,-2,0,1,-1,-1,-2,-1
1558441274695806,0,-2,-7,-7,-5,-4,-7,-2
1558441274695806,0,-1,0,1,-5,-1,-2,-2
1558441274713756,0,0,-1,-1,5,-1,1,-1
1558441274713756,-3,-1,0,3,-6,-1,-4,-2
1558441274719091,-2,-1,-2,-7,-4,1,-2,-2
1558441274719091,-1,-1,0,7,7,12,5,1
1558441274725725,2,3,2,-4,-2,2,-2,-1
1558441274725725,1,-4,-7,-3,7,-1,1,3
1558441274741683,-2,-2,2,1,-6,-9,-4,-4
1558441274741683,-1,-2,-4,-1,1,12,0,1
1558441274747697,0,-2,3,7,0,-4,3,1
1558441274747697,-1,-2,1,-2,-3,-1,0,-2
1558441274755376,-2,-3,-4,-10,-9,-6,-4,-4
1558441274755376,-2,-2,1,5,-2,-4,-5,-2
1558441274765022,-2,-3,-5,-7,-1,-4,-4,1
1558441274765022,-1,0,-2,-2,7,2,5,1
1558441274779272,1,1,1,4,-2,-7,-1,-1
1558441274779272,0,0,1,2,-4,-8,-4,0
1558441274786270,-4,-3,-9,-14,-12,2,-6,-5
1558441274786270,-4,-1,-1,-6,-8,-2,-2,-3
1558441274802063,-1,0,2,4,3,4,5,-1
1558441274802063,-1,0,-3,-7,0,-1,-3,-2
1558441274808181,-1,1,2,6,5,5,4,1
1558441274808181,-2,-1,1,3,2,-5,1,-1
1558441274816182,1,0,2,-1,4,4,1,0
1558441274816182,-1,-2,-4,-1,-3,-1,-5,-3
1558441274824848,-2,-1,-6,-4,-8,-5,-3,-2
1558441274824848,1,2,1,0,-3,-5,-1,1
1558441274838808,-1,0,3,-1,0,4,1,-2
1558441274838808,-1,-1,3,3,9,5,5,2
1558441274845789,1,0,4,4,-3,-5,-4,-2
1558441274845789,-2,-3,-7,-13,2,13,1,-2
1558441274861051,1,3,1,9,6,-6,2,2
1558441274861051,-3,0,2,-5,-7,-10,-2,-2
1558441274868018,-1,-1,-5,-3,1,2,-1,0
1558441274868018,-2,-3,3,1,-2,-8,-2,-4
1558441274876368,-3,-3,-3,-3,-4,-6,-3,-1
1558441274876368,0,2,2,0,2,5,1,3
1558441274892018,0,-2,-2,0,1,0,0,-1
1558441274892018,1,0,2,5,2,4,0,1
1558441274899306,-3,-3,-5,-5,-2,9,-7,-2
1558441274899306,0,1,-3,-3,-7,-18,-1,3
1558441274905983,0,0,2,6,5,3,2,0
1558441274905983,-5,-3,-7,-8,-8,-2,0,-2
1558441274920940,-3,0,-2,-4,-4,-5,-7,-5
1558441274920940,1,-3,-1,6,7,13,3,-1
1558441274928206,1,-1,4,5,0,-2,1,0
1558441274928206,-1,0,3,2,-2,0,-2,-1
1558441274944901,1,-2,-5,-9,4,9,1,1
1558441274944901,-2,-1,-1,-2,0,-3,-1,-4
1558441274945875,-2,-1,-2,1,-2,-4,-4,-1
1558441274945875,-1,-3,2,-1,-6,-5,-7,-2
1558441274958840,-1,-1,-2,2,-1,9,3,2
1558441274958840,0,0,0,-6,1,-2,-1,0
1558441274965822,-1,-2,-8,-11,-6,-5,-2,0
1558441274965822,-2,-1,-2,-1,2,-3,-7,-3
1558441274982226,-1,-2,1,4,-11,-8,0,-1
1558441274982226,0,-1,-1,-1,1,0,1,-1
1558441274995738,-2,0,-1,2,4,-7,1,-1
1558441274995738,-1,1,3,4,10,13,0,-1
1558441275004715,-2,-4,-2,3,-5,-9,-7,-3
1558441275004715,-5,-3,-6,-9,-6,3,0,-2
1558441275005720,-1,-1,2,-2,0,6,3,0
1558441275005720,1,-1,3,10,8,-1,4,3
1558441275018678,0,-1,-7,-17,2,9,-1,0
1558441275018678,-1,-2,1,-1,-7,-6,-4,-3
1558441275025695,1,-1,-5,-1,-7,-10,-3,-1
1558441275025695,2,2,0,6,17,5,11,6
1558441275042075,1,-1,-1,-5,-8,-5,1,-2
1558441275042075,-3,-3,-3,-3,-8,0,-5,-3
1558441275047603,-3,-5,-5,-7,1,-5,0,-1
1558441275047603,0,-1,-1,-3,-8,1,-2,-3
1558441275064555,-4,-3,-4,0,2,-2,1,-1
1558441275064555,-2,0,3,9,3,2,-4,-2
1558441275065552,2,0,-4,-10,-1,2,6,1
1558441275065552,0,-1,4,2,3,0,1,-2
1558441275078552,2,-1,-1,2,1,-10,-2,1
1558441275078552,-2,-3,0,-4,-3,3,-2,-2
1558441275085851,-4,-1,-3,2,-1,5,-5,-3
1558441275085851,-3,-2,-8,-9,-9,-6,-2,-1
1558441275101808,1,1,2,3,6,5,2,0
1558441275101808,0,0,1,-1,-4,-10,0,0
1558441275108803,0,-2,-3,0,2,2,-1,0
1558441275108803,0,0,-1,-4,3,11,5,0
1558441275124396,-3,-1,2,4,-4,-5,0,-2
1558441275124396,0,0,-1,0,0,-3,-3,-2
1558441275125393,-2,-1,4,2,-2,-8,-7,-3
1558441275125393,1,-1,-3,2,-5,5,-3,-2
1558441275138864,-1,-1,-2,-3,3,7,4,1
1558441275138864,1,0,-1,0,-3,-15,-3,-1
1558441275145821,-1,-2,-2,-4,-1,10,3,-2
1558441275145821,-2,-3,-4,-6,-8,-13,-6,-2
1558441275169611,-3,-2,-2,-1,1,0,0,-1
1558441275169611,0,0,-3,-1,2,5,1,-1
1558441275169611,-1,1,4,13,0,-2,-4,0
1558441275169611,-1,-3,3,-3,-8,-7,-6,-2
1558441275184593,1,1,1,-5,0,-1,-5,2
1558441275184593,-2,-3,-2,0,7,4,4,0
1558441275184593,-1,0,2,-1,0,-3,-2,2
1558441275184593,-3,0,-3,2,0,-2,0,1
1558441275206179,0,0,1,1,-8,-9,-3,-2
1558441275206179,1,-1,0,0,0,3,-3,0
1558441275207211,-2,-1,0,-3,-2,1,3,-1
1558441275207211,1,0,0,3,4,0,3,1
1558441275221430,-1,0,2,5,5,2,0,1
1558441275221430,-1,-1,-5,-9,-7,-3,-6,-4
1558441275228119,-2,-1,0,1,-1,0,-1,-4
1558441275228119,2,-4,-4,-4,-3,2,1,-2
1558441275244429,-2,-1,2,1,0,-3,-1,-1
1558441275244429,0,2,3,2,2,11,10,4
1558441275244429,-2,-1,-2,0,-10,-9,-5,-5
1558441275244429,0,1,0,-9,7,9,2,0
1558441275259373,0,-2,-5,-3,-1,-8,-2,-3
1558441275259373,0,-1,1,1,0,-5,-5,-2
1558441275266312,-1,-1,-3,-3,-2,6,1,-1
1558441275266312,-2,0,-3,2,-4,2,-2,0
1558441275281293,-1,-2,-4,-4,-7,-3,-1,-3
1558441275281293,-1,0,-2,-7,-3,0,1,1
1558441275288273,1,-1,0,5,1,-8,-6,0
1558441275288273,-4,-1,-2,-3,-8,0,-5,-5
1558441275304211,-2,-1,0,2,4,-4,-1,0
1558441275304211,1,0,0,3,5,0,2,-1
1558441275304944,-1,0,1,-1,3,5,3,-1
1558441275304944,-2,-1,-2,0,-2,-8,-2,-1
1558441275327854,-2,-2,2,-3,-6,3,-2,-2
1558441275327854,-5,-4,-4,-5,-8,-6,-2,-2
1558441275327854,0,0,-3,3,10,11,8,3
1558441275327854,-1,-1,1,-2,0,-11,-7,-2
1558441275340817,-1,-3,-4,-3,-4,4,-5,-4
1558441275340817,-1,-2,1,3,-1,2,-4,0
1558441275348830,1,2,-4,-10,-11,-8,0,1
1558441275348830,0,-2,-1,3,0,-9,-3,-3
1558441275363756,-2,-2,-3,-4,-2,-6,-4,1
1558441275363756,0,-1,-1,1,1,9,-1,-2
1558441275365112,-1,-1,-1,-5,-3,-1,-6,-1
1558441275365112,2,1,4,6,4,1,-2,-1
1558441275379713,1,0,-4,3,4,3,6,2
1558441275379713,-4,-3,2,-10,0,-3,-1,-3
1558441275386050,0,-2,0,-1,-3,-7,-3,0
1558441275386050,0,-3,-8,-7,-11,-9,-3,-1
1558441275417676,1,0,0,4,6,15,6,-2
1558441275417676,2,-1,-3,-2,0,-3,-1,-1
1558441275417676,-2,-4,1,3,-4,-3,-6,-3
1558441275417676,-1,0,3,1,2,4,2,2
1558441275423633,0,0,2,0,2,0,-2,0
1558441275423633,-3,-2,-4,-5,-7,5,0,0
1558441275424593,-1,0,-1,-1,3,-9,1,-2
1558441275424593,0,2,1,2,4,7,8,3
1558441275439554,-5,-5,-8,-6,-12,-11,-3,-2
1558441275439554,1,0,-1,-1,-2,-7,-4,-3
1558441275445900,-1,-1,3,11,6,17,3,1
1558441275445900,-1,0,-6,-21,-4,-11,-3,-1
1558441275461845,0,1,5,3,0,0,-1,-2
1558441275461845,-6,-6,-8,-5,-20,-11,-11,-7
1558441275468854,-1,-3,-5,-12,0,4,-1,-1
1558441275468854,0,0,3,8,5,-5,1,1
1558441275484545,-4,-3,-1,-1,-3,-2,-8,-3
1558441275484545,1,-1,-6,-4,-7,-4,-8,-3
1558441275484545,1,0,2,5,6,5,2,2
1558441275484545,1,-3,-5,-3,-1,4,1,1
1558441275499493,0,1,-1,-3,-5,-2,-2,-1
1558441275499493,0,0,0,3,3,-2,5,2
1558441275505376,-1,-1,1,0,-2,-6,-5,-2
1558441275505376,-3,0,-7,-11,-8,-1,0,-4
1558441275522335,3,1,4,6,15,9,8,3
1558441275522335,-1,-1,-1,1,6,2,-2,1
1558441275528542,-3,1,3,0,-4,1,5,-1
1558441275528542,-4,-2,-3,2,-2,-3,-3,0
1558441275543279,1,1,-2,-3,0,-10,1,1
1558441275543279,-1,0,3,4,7,1,3,3
1558441275544272,-1,-3,-3,-7,-9,-5,-8,-2
1558441275544272,-2,-2,3,12,7,11,0,-4
1558441275559234,0,-1,-6,-15,-3,-3,1,1
1558441275559234,-1,1,1,3,3,-2,3,0
1558441275565216,-3,-1,-2,-1,-3,0,-3,-3
1558441275565216,2,0,4,0,-6,-12,-3,-1
1558441275582172,-2,-3,-5,5,-4,-4,-5,-4
1558441275582172,-1,1,-3,-6,-5,2,0,-1
1558441275588592,-1,-1,-4,1,-2,-9,-6,-5
1558441275588592,-1,-3,0,1,6,12,3,2
1558441275603118,-1,1,0,1,1,1,2,0
1558441275603118,-2,-2,-1,-1,-5,6,-1,-1
1558441275605281,2,0,0,0,6,-2,1,1
1558441275605281,-2,-2,2,4,-5,-9,0,1
1558441275626541,-4,-2,-6,-14,-8,1,-5,-3
1558441275626541,1,1,6,6,5,-6,0,1
1558441275627053,-2,-1,-5,-2,-6,-2,-5,-4
1558441275627053,-1,-3,-6,-6,-3,6,-1,-3
1558441275642270,2,2,6,5,5,-3,4,3
1558441275642270,1,1,3,0,-2,-2,2,1
1558441275648464,0,-1,-3,-8,-3,-14,-1,0
1558441275648464,-2,-1,3,2,-5,-10,-12,-7
1558441275664039,-2,-1,-3,-1,-12,6,-5,-5
1558441275664039,-1,-1,-3,2,8,4,3,2
1558441275671325,2,-2,4,6,7,1,4,1
1558441275671325,0,0,-5,-7,-8,1,-4,-2
1558441275686217,1,0,2,2,-2,-4,1,0
1558441275686217,1,3,0,0,7,10,6,-1
1558441275686894,-1,0,0,-1,-1,-6,-4,-1
1558441275686894,-1,-2,-4,-2,-4,-5,0,-1
1558441275702079,-2,-1,-1,2,3,9,-1,-4
1558441275702079,-3,-1,-3,-8,-6,-11,-5,-5
1558441275707864,-1,-2,6,7,6,13,5,2
1558441275707864,1,1,-4,-11,0,5,6,3
1558441275722799,0,-3,0,-4,-9,-15,-8,-3
1558441275722799,-1,-3,-6,-2,3,3,-2,-3
1558441275730776,-3,-2,-2,-2,-7,-2,-1,-2
1558441275730776,0,-1,1,3,-2,2,-2,-2
1558441275745735,-1,3,2,-1,1,-5,2,1
1558441275745735,-2,-4,2,2,-1,3,-3,-2
1558441275746730,-1,-1,-1,-5,0,-1,-1,0
1558441275746730,-1,1,0,2,4,-1,0,2
1558441275761721,-1,-2,-2,0,0,5,4,-1
1558441275761721,0,1,2,2,-2,-4,-2,-1
1558441275767725,0,-2,-7,-11,-13,-11,-3,-1
1558441275767725,-1,0,2,-1,0,-5,-6,-2
1558441275783862,-1,0,-8,3,6,9,2,-1
1558441275783862,-1,-2,1,-1,-1,-6,1,1
1558441275790614,0,3,1,-4,13,19,10,3
1558441275790614,0,-1,-3,2,-4,-23,-6,-4
1558441275806577,-3,-4,1,-1,-3,-5,-8,-3
1558441275806577,-1,-1,-2,-5,-9,-3,-2,-1
1558441275806577,-1,1,3,3,4,2,2,2
1558441275806577,-2,0,-2,4,8,11,-3,1
1558441275821869,-4,-1,-3,-4,-7,-2,-1,-2
1558441275821869,2,0,-7,-3,-10,-23,-7,0
1558441275828849,0,0,7,-2,3,-1,3,-2
1558441275828849,-3,-3,-4,-2,-3,6,3,-1
1558441275843754,0,-2,-1,-8,5,6,2,1
1558441275843754,-3,-6,-6,-3,-8,-3,-3,-4
1558441275850509,-2,-3,-7,-4,-10,-11,-8,-5
1558441275850509,1,-1,2,1,0,4,-1,-4
1558441275866440,-2,0,1,-1,1,4,1,-1
1558441275866440,0,1,-6,-6,7,18,10,2
1558441275866440,-1,2,-4,-1,0,-6,0,-1
1558441275866440,0,-2,-1,0,2,-6,2,0
1558441275881398,-1,1,1,6,-3,-7,0,0
1558441275881398,-1,0,3,-1,-4,-4,-5,-3
1558441275888374,-1,-3,-2,1,-1,-1,-1,1
1558441275888374,0,0,-3,-3,-4,-10,0,-2
1558441275903345,0,-1,2,1,0,-6,-5,0
1558441275903345,1,-1,5,4,14,13,7,4
1558441275910294,0,-4,-9,-6,-11,2,-2,-5
1558441275910294,-1,2,6,10,3,18,6,-3
1558441275926697,-2,-3,-8,-14,-1,-16,-4,0
1558441275926697,-2,-1,1,3,-5,1,-2,-3
1558441275927249,-2,-1,4,4,6,9,-2,-2
1558441275927249,-1,-2,-5,-11,-10,-3,-1,1
1558441275942229,1,0,1,3,3,3,2,-1
1558441275942229,1,2,-2,-1,2,0,0,0
1558441275948192,0,-1,1,-4,0,-1,-1,2
1558441275948192,0,-2,-1,-1,-2,2,-6,-2
1558441275963172,-1,-3,-3,1,-6,-6,-3,-4
1558441275963172,-1,0,-1,0,-5,-18,-1,2
1558441275970134,-1,-1,-1,3,-1,-2,-2,-2
1558441275970134,-2,-1,-4,-11,-1,4,3,0
1558441275986092,0,0,1,5,-1,5,-3,1
1558441275986092,-1,-1,-1,-2,5,11,6,0
1558441275987088,1,1,0,3,-8,-25,-5,-2
1558441275987088,-3,-3,1,-5,1,5,-1,1
1558441276002048,-2,-2,0,-4,-3,6,-2,-1
1558441276002048,1,0,-2,2,5,10,1,-1
1558441276008033,-2,-2,2,3,3,-1,-2,-2
1558441276008033,0,0,-3,-4,-8,-8,3,1
1558441276022993,-2,0,-7,-9,-1,-5,2,0
1558441276022993,-2,0,1,-2,1,4,-2,-2
1558441276029974,-3,-3,2,-1,-3,5,0,-1
1558441276029974,-1,-1,-2,1,0,-5,-11,-5
1558441276045930,0,1,4,4,0,3,0,0
1558441276045930,-1,-1,-3,2,-8,-12,-5,-1
1558441276046928,-2,-1,-6,-1,4,7,3,-3
1558441276046928,-1,-1,0,2,0,-6,1,1
1558441276061888,-1,-1,5,0,1,-9,1,1
1558441276061888,-1,-5,-4,-1,4,5,0,-4
1558441276067871,1,-1,-3,1,-2,-2,-4,1
1558441276067871,-1,-1,-3,-7,0,-2,-2,-1
1558441276082868,0,-2,-2,2,-2,13,4,-3
1558441276082868,-2,-2,-2,-8,-9,-12,-5,-2
1558441276090811,1,1,5,5,10,10,8,5
1558441276090811,-1,-2,-6,-3,-7,-9,-1,0
1558441276105771,-1,0,-2,-2,-4,-12,-3,0
1558441276105771,-3,-2,2,1,2,4,-5,-5
1558441276106769,0,-1,-3,-3,-6,0,-4,-3
1558441276106769,0,2,5,8,7,6,3,2
1558441276121727,2,-1,-5,-5,-6,-12,-4,-2
1558441276121727,0,2,2,9,10,9,1,2
1558441276127712,-1,0,-2,-8,-6,-2,-3,-3
1558441276127712,1,-1,0,2,-2,4,2,-3
1558441276142733,0,-1,1,2,9,2,3,-1
1558441276142733,-2,-2,0,-1,-2,-3,-2,-2
1558441276167638,-3,-3,-6,-6,-7,-8,-4,0
1558441276167638,0,-3,-1,4,0,3,0,-6
1558441276168603,-3,-5,-3,-5,-8,-5,-1,-4
1558441276168603,0,0,3,8,14,16,5,3
1558441276169601,-3,0,-5,-11,-6,1,0,-1
1558441276169601,-3,-1,-2,-6,-5,-8,-6,-1
1558441276181569,1,-2,-5,0,-3,4,-4,0
1558441276181569,0,0,1,1,-3,-13,-1,1
1558441276187553,1,-2,-3,-4,-4,3,0,0
1558441276187553,0,1,5,12,12,6,2,2
1558441276202572,-1,-2,0,-7,-5,-13,-6,-1
1558441276202572,-3,-3,-6,-6,-6,-1,-1,0
1558441276218528,2,2,6,7,10,13,3,0
1558441276218528,0,-4,-9,-9,-8,-6,-3,0
1558441276226448,-4,-2,1,4,1,11,2,-5
1558441276226448,-1,-1,0,-4,-4,-9,-1,-1
1558441276226448,0,-1,3,7,0,-9,-2,2
1558441276226448,-3,-1,-2,-10,4,10,4,-1
1558441276242407,-1,2,2,2,7,0,5,4
1558441276242407,-1,-2,-3,0,-4,-5,-3,-3
1558441276248399,-4,-4,-5,-10,-9,4,-1,-4
1558441276248399,1,1,3,3,-1,-3,-1,2
1558441276279313,0,0,-3,-5,-2,0,4,0
1558441276279313,0,-1,-2,1,0,0,-3,-3
1558441276280303,-1,0,0,0,0,-1,-1,-2
1558441276280303,0,0,1,-4,-7,-14,-8,-2
1558441276286346,0,-4,-5,0,6,16,3,1
1558441276286346,-1,1,2,-1,-4,-9,-3,1
1558441276287288,0,-1,-6,-11,1,0,1,-1
1558441276287288,0,-3,-3,6,0,5,1,-2
1558441276302253,-2,1,1,-3,-7,-3,-6,-3
1558441276302253,-3,-2,-4,-2,-2,-5,-4,-1
1558441276308229,-2,-1,3,6,-2,-2,-1,-2
1558441276308229,-3,0,2,1,0,2,-4,-2
1558441276324187,1,-2,-7,1,3,-2,3,1
1558441276324187,-1,1,-2,-8,-2,4,-1,1
1558441276330173,-4,-2,-1,6,-6,-18,-11,-5
1558441276330173,-1,-2,-8,-17,-3,3,-2,-2
1558441276346127,1,3,5,8,8,16,9,0
1558441276346127,1,-1,-2,-2,-8,-5,-1,-1
1558441276347126,2,1,1,3,8,-8,1,4
1558441276347126,-2,-1,-2,1,-3,0,-4,-2
1558441276362084,-6,-4,-2,-6,-14,-17,-12,-7
1558441276362084,5,-1,1,0,11,13,9,4
1558441276368069,0,0,-4,-4,1,-1,4,1
1558441276368069,-2,-2,2,5,3,0,1,-1
1558441276391010,-2,1,-4,-7,-8,-1,-6,-4
1558441276391010,-3,-2,-1,1,-5,-8,-8,-7
1558441276392005,0,0,0,-2,3,6,4,0
1558441276392005,-4,-4,-5,-6,-2,-4,-3,-2
1558441276405970,2,0,6,7,10,-2,-4,2
1558441276405970,-1,-2,-8,-7,-6,-4,-2,-1
1558441276406965,-1,-3,0,-2,-6,1,-4,-1
1558441276406965,3,0,-2,8,1,-4,4,0
1558441276421925,-1,-1,-6,-11,-1,2,-9,-3
1558441276421925,1,0,3,3,6,3,1,2
1558441276444865,-2,-2,-3,2,-4,3,-1,-3
1558441276444865,-1,0,5,0,-5,-6,-1,-1
1558441276445864,1,0,1,4,3,-3,4,1
1558441276445864,-1,-1,0,1,7,7,5,3
1558441276450849,-2,-1,0,-2,0,-7,-4,-1
1558441276450849,-3,-2,-2,-3,-2,4,-1,1
1558441276465810,-2,-1,6,4,3,2,3,-1
1558441276465810,-4,-1,-5,-10,-8,2,-2,-2
1558441276466807,-3,-2,-3,-2,-8,-8,-5,-4
1558441276466807,1,3,2,2,14,11,9,3
1558441276481767,-1,-2,-2,-3,-10,-6,-4,-2
1558441276481767,-3,-3,-1,1,1,-5,2,0
1558441276495730,-1,-2,-5,-6,-3,-5,-9,-7
1558441276495730,-1,-1,-1,4,0,3,-1,-1
1558441276502711,-2,-1,-7,-12,-3,8,1,-1
1558441276502711,-3,-1,3,2,-8,-14,-7,-5
1558441276510755,0,-2,1,3,5,-2,3,0
1558441276510755,-2,-4,2,2,-5,-9,-2,-2
1558441276525652,0,1,0,4,10,5,6,2
1558441276525652,-2,1,-2,-3,-8,-7,-7,-3
1558441276526645,-2,-2,-4,-1,2,7,1,0
1558441276526645,-1,-2,-2,-5,-4,-16,-7,-1
1558441276549584,-1,-1,3,5,-6,-3,-7,-2
1558441276549584,1,1,-7,-7,-1,6,4,0
1558441276550581,-1,-1,1,0,2,8,2,-2
1558441276550581,-2,-1,0,-5,-9,-13,-1,-3
1558441276562551,1,0,0,-1,2,-8,-3,0
1558441276562551,-1,-1,1,2,4,1,1,0
1558441276570605,-2,1,-5,-3,-4,3,-1,3
1558441276570605,-1,-2,-2,-1,1,8,2,-2
1558441276586486,-4,-2,-2,0,-11,-5,-5,-3
1558441276586486,1,1,5,4,8,0,4,2
1558441276586486,0,-1,-1,-4,-1,2,-1,1
1558441276586486,0,1,-1,-2,-4,1,1,2
1558441276610425,-1,-4,-4,1,3,9,4,0
1558441276610425,-2,-3,-3,-5,-9,-2,-8,-7
1558441276610425,1,1,0,5,7,-7,3,3
1558441276610425,0,0,0,-1,-1,1,1,-1
1558441276623387,-3,-1,4,-3,-4,4,-5,-2
1558441276623387,-2,0,0,7,2,4,5,-3
1558441276630366,-2,-1,-3,-6,-11,-22,-8,-3
1558441276630366,-2,-1,-1,1,3,8,-3,-3
1558441276645390,0,-2,-4,-4,1,0,1,1
1558441276645390,0,1,5,4,-1,-6,-2,3
1558441276670262,-2,-2,-3,-6,-6,-6,-6,-3
1558441276670262,-2,-3,-1,-2,-4,-3,-6,-1
1558441276671263,-1,-1,-3,-2,-9,-12,-3,-1
1558441276671263,-1,-2,1,-1,4,12,4,0
1558441276672259,3,-1,0,3,10,14,8,2
1558441276672259,-1,-2,-2,-3,-10,-12,-8,-1
1558441276683284,-2,1,1,4,0,-8,0,0
1558441276683284,0,0,1,-5,0,5,0,0
1558441276690208,1,-1,-1,5,-1,4,1,0
1558441276690208,-4,-3,-4,-16,-11,-6,-2,-2
1558441276705167,-3,-3,-2,-7,-2,1,2,-1
1558441276705167,-2,-2,-5,-4,-7,-12,-7,-4
1558441276713146,1,4,6,8,13,4,8,4
1558441276713146,1,0,-1,3,3,5,0,-1
1558441276722122,1,1,1,0,-2,-12,-2,-1
1558441276722122,-1,-4,0,-3,-2,-4,-8,-2
1558441276728109,-1,-3,-5,-3,-6,-5,-2,-1
1558441276728109,-1,-3,-4,-5,0,0,2,-1
1558441276743130,2,-1,0,0,4,5,1,-1
1558441276743130,-1,1,-2,1,-3,-2,1,-2
1558441276759023,-4,-4,-3,-6,-5,-4,-7,-3
1558441276759023,-3,-1,-1,1,2,-7,0,0
1558441276773983,-1,-3,-4,-5,-1,5,3,-1
1558441276773983,-1,2,0,0,-4,-9,-1,2
1558441276773983,-1,-2,-1,0,3,13,4,1
1558441276773983,2,2,-3,-2,-1,-9,-6,-1
1558441276788949,-1,0,-4,3,-1,7,0,-5
1558441276788949,0,-2,-1,3,-4,-13,-5,-3
1558441276789943,0,0,-3,-14,-4,-5,3,0
1558441276789943,-4,-3,0,6,-1,2,-1,-1
1558441276802906,-2,0,1,-3,2,-2,-6,-2
1558441276802906,-2,-4,-5,-1,5,17,5,-1
1558441276810972,-3,-3,1,4,-3,-6,-4,-2
1558441276810972,3,4,2,0,2,4,8,5
1558441276834822,-1,-2,4,1,1,-6,-4,-1
1558441276834822,0,-4,-6,-8,-6,-4,-2,0
1558441276835817,0,1,6,4,4,11,-1,-1
1558441276835817,-4,-5,-11,-6,-3,-4,-3,-4
1558441276849810,2,1,-4,-6,9,15,6,2
1558441276849810,-2,-3,2,1,-2,-11,-3,0
1558441276850780,-1,1,0,1,-7,-8,-3,-4
1558441276850780,2,0,4,7,10,8,2,1
1558441276862748,-2,-2,-1,-6,-13,-16,-4,-2
1558441276862748,-2,0,-4,-5,-8,-5,-6,-3
1558441276886681,-2,0,-1,1,3,7,4,0
1558441276886681,0,1,3,0,-3,3,1,1
1558441276888677,-1,-2,-3,1,2,-3,-3,0
1558441276888677,-2,-1,-5,-5,-2,5,1,-2
1558441276892666,0,-1,5,4,3,1,3,1
1558441276892666,-2,1,-1,1,0,2,-4,-4
1558441276908630,-2,-2,-1,1,-8,-2,-3,-4
1558441276908630,0,-1,-3,-3,-3,-3,-4,-3
1558441276909622,0,-1,-1,9,5,-5,3,2
1558441276909622,-1,-3,-2,-10,-10,-1,-1,-3
1558441276922594,-2,1,-1,3,0,-1,1,-1
1558441276922594,-2,2,2,-4,0,-13,-4,0
1558441276938544,-2,-1,-1,0,-7,-13,-5,-1
1558441276938544,1,0,-1,2,3,-2,0,-1
1558441276945562,-1,0,1,3,-5,-1,-10,-3
1558441276945562,-1,-1,-3,-5,-7,8,-1,-2
1558441276953505,1,-1,-6,-14,5,8,2,2
1558441276953505,-2,0,-1,-1,1,-12,1,-1
1558441276968464,-1,0,2,5,8,7,7,2
1558441276968464,-1,-2,3,3,-2,3,3,2
1558441276969465,-2,-3,-3,-6,-9,-4,-9,-8
1558441276969465,0,-1,-3,-2,0,4,4,2
1558441276999439,0,1,-1,3,-4,-13,-4,-1
1558441276999439,-2,1,3,3,7,3,1,0
1558441277000378,1,-1,-3,1,-8,-3,-7,-5
1558441277000378,0,-1,0,-3,-1,4,-4,-2
1558441277005364,-1,-2,-2,-4,-5,-14,-2,0
1558441277005364,1,2,1,1,8,-3,3,-1
1558441277013343,-4,0,-2,2,-3,0,-3,-2
1558441277013343,0,0,4,0,5,10,2,0
1558441277028305,0,-1,-5,-5,9,17,10,4
1558441277028305,-5,-3,-2,1,-5,-2,-5,-5
1558441277029300,-3,-2,-4,1,1,0,1,0
1558441277029300,1,0,1,6,-6,-8,-4,0
1558441277051242,-2,-2,-4,-6,-5,-2,-4,0
1558441277051242,0,0,1,2,-4,-4,-2,-2
1558441277052274,1,1,5,0,-1,-1,0,0
1558441277052274,-1,-1,-4,-2,2,-1,2,-2
1558441277065204,-1,-1,-2,1,5,5,2,-1
1558441277065204,3,1,3,0,8,5,6,4
1558441277073182,-1,0,-3,6,-9,-9,-4,-1
1558441277073182,-5,-4,1,-6,-7,-12,-4,-4
1558441277089143,-3,0,2,1,3,7,-2,-4
1558441277089143,-2,-3,-4,-5,-9,-3,-3,-3
1558441277089143,2,2,2,0,9,7,12,4
1558441277089143,-1,-2,-4,-1,-5,-1,-5,-2
1558441277111082,0,-2,-1,3,-2,-11,-4,-3
1558441277111082,0,1,-1,-5,5,3,3,-1
1558441277112079,-2,-4,-2,-6,-7,-7,-7,-3
1558441277112079,1,2,1,0,-3,-2,-3,0
1558441277127040,0,-2,-1,-1,-1,-2,1,-2
1558441277127040,0,-1,-4,3,3,4,-2,-2
1558441277133024,0,-4,2,-5,-6,-5,-1,0
1558441277133024,2,2,1,0,3,6,1,-3
1558441277148981,0,1,4,3,5,8,2,0
1558441277148981,-4,-2,-4,5,3,-1,0,0
1558441277149979,1,1,0,-1,4,5,1,1
1558441277149979,-1,-4,-4,-7,-10,-8,-5,-2
1558441277163941,-1,-1,-1,-5,-5,-3,-5,-1
1558441277163941,0,-1,-2,0,1,10,5,0
1558441277169971,-1,-1,-2,-2,4,3,5,0
1558441277169971,-1,-2,2,3,2,-3,-2,1
1558441277185915,-1,0,-2,-4,-6,-5,-6,-2
1558441277185915,1,-2,1,-4,-6,-4,-7,-4
1558441277192864,-2,-2,-4,0,0,1,-2,-3
1558441277192864,1,1,5,4,6,-1,4,1
1558441277208822,-3,-4,-2,-6,-10,-14,-8,-4
1558441277208822,-1,-1,1,0,2,12,4,1
1558441277208822,-3,0,-4,-4,-5,-2,-5,-4
1558441277208822,-3,-2,-5,0,-2,-9,-3,-3
1558441277224777,-1,0,1,4,2,4,0,0
1558441277224777,-1,-2,0,-5,-7,-14,-7,-2
1558441277230772,0,-3,-6,-15,0,6,5,0
1558441277230772,-2,-2,4,7,2,6,2,-2
1558441277245747,-1,-2,-7,-5,-7,-2,0,-2
1558441277245747,-1,0,-2,0,3,11,1,-1
1558441277252713,-1,-1,-1,2,-5,-6,-5,0
1558441277252713,2,1,-2,-1,1,4,2,3
1558441277277637,2,0,1,-2,1,-8,2,0
1558441277277637,-2,-1,5,3,4,-3,-4,-2
1558441277278634,-2,-6,-7,1,-2,0,-3,-4
1558441277278634,-2,-1,-3,-14,-6,-3,-4,-2
1558441277284623,1,2,4,6,15,4,16,5
1558441277284623,0,-1,-1,0,-5,-2,-5,-2
1558441277290601,-1,1,-2,0,-5,2,-2,-1
1558441277290601,-4,-4,-4,-1,7,14,8,3
1558441277305570,-3,-2,0,-3,-7,-7,-6,-3
1558441277305570,1,2,-5,1,-5,-20,-3,4
1558441277313541,2,0,6,-1,6,8,7,1
1558441277313541,0,-2,0,5,-8,-7,-4,-4
1558441277328499,1,0,2,3,-1,9,-2,-3
1558441277328499,-4,-3,-6,-5,-1,0,-1,-1
1558441277329497,-1,-2,-3,0,-4,-6,-3,-1
1558441277329497,-2,-2,-1,-2,1,-1,-6,-2
1558441277344460,0,1,0,2,0,-11,3,1
1558441277344460,-3,-3,-2,-2,-1,8,-1,-2
1558441277350449,2,1,3,-1,5,-1,2,-2
1558441277350449,-2,-2,-3,-2,-1,4,2,-1
