timestamp,emg1,emg2,emg3,emg4,emg5,emg6,emg7,emg8
1558441252747998,-1,-1,0,7,-2,-7,-3,1
1558441252747998,-4,-2,-2,-3,-7,0,-5,-2
1558441252752985,0,-1,-2,-6,0,5,4,-1
1558441252752985,-1,-2,-3,0,-11,-9,-4,-5
1558441252752985,-3,0,1,0,-1,0,0,-1
1558441252752985,2,2,3,4,4,6,4,1
1558441252753982,-1,0,-4,-9,-8,-16,-6,-2
1558441252753982,-3,0,0,3,10,13,2,0
1558441252767946,-1,-2,0,-1,0,3,0,0
1558441252767946,-3,-4,-5,-8,-3,6,-2,-4
1558441252774926,-1,1,3,8,2,0,0,0
1558441252774926,1,0,-5,1,0,-8,2,3
1558441252780909,-2,-1,-2,-8,-4,2,-5,-3
1558441252780909,-4,-3,-1,2,-4,5,-4,-3
1558441252796867,1,1,0,3,-2,-11,0,0
1558441252796867,1,0,1,-4,6,6,3,0
1558441252805844,0,1,-3,0,3,5,3,-3
1558441252805844,-1,0,-2,1,-4,-6,0,1
1558441252811829,-3,-3,-2,-5,-8,-15,-4,-2
1558441252811829,0,-1,-2,-1,-1,7,-3,-2
1558441252826787,-1,0,4,3,-3,-6,-2,0
1558441252826787,2,4,1,2,10,2,2,4
1558441252834766,-1,-3,-7,-5,-8,-3,-3,0
1558441252834766,-3,-1,3,1,3,7,3,0
1558441252874660,-2,-1,0,1,-10,-4,-3,-2
1558441252874660,-2,-3,-3,-10,-7,-10,-7,-5
1558441252875658,-1,1,0,2,4,11,4,-1
1558441252875658,-2,1,0,-1,-2,-11,-3,0
1558441252875658,0,1,3,0,9,3,3,1
1558441252875658,0,-3,-2,-2,-5,-3,-1,-2
1558441252878650,-1,-4,-4,-3,-13,-7,-9,-4
1558441252878650,1,-2,0,0,11,21,5,1
1558441252886627,0,2,1,-2,5,-12,3,3
1558441252886627,-2,1,1,7,-2,-4,-3,-1
1558441252893609,-2,0,0,-2,-3,-4,2,1
1558441252893609,-4,-4,-7,-7,-9,-1,0,-3
1558441252901587,-2,-2,-3,0,-1,-5,-4,-2
1558441252901587,3,0,-1,4,4,5,1,-1
1558441252916546,1,0,4,0,3,-2,-2,-1
1558441252916546,-2,-4,-2,-3,-12,-6,-12,-8
1558441252924525,-1,-1,-2,3,-2,3,1,1
1558441252924525,-1,-2,-4,-5,-2,-15,-1,3
1558441252938489,1,1,0,-2,1,3,-1,-2
1558441252938489,-3,-2,-3,2,3,-1,3,1
1558441252946467,-2,-2,1,0,0,7,-2,-4
1558441252946467,-1,-3,0,-5,-7,0,-3,-2
1558441252953449,0,-1,1,2,4,1,1,1
1558441252953449,2,2,4,0,-2,-12,2,4
1558441252961427,-2,-4,-10,-6,-10,2,-1,-4
1558441252961427,-1,-1,-2,2,7,10,3,-1
1558441252976387,-2,-3,-7,-11,1,-5,4,0
1558441252976387,-2,0,4,7,3,3,-1,0
1558441252984366,-2,-2,1,-4,-4,-2,-3,-2
1558441252984366,-4,-1,-4,-4,-9,-9,-8,-3
1558441252998330,0,-2,-1,3,6,14,3,-1
1558441252998330,0,-2,0,-4,-1,-10,-2,0
1558441253007305,3,0,5,2,2,-3,3,2
1558441253007305,0,0,0,0,2,3,-2,0
1558441253013288,-2,-1,-2,-2,-3,-11,-9,-1
1558441253013288,-2,1,-3,1,2,4,5,-2
1558441253021268,-3,0,-4,-6,-10,-8,-6,-5
1558441253021268,-1,-1,2,-2,-1,3,0,-1
1558441253036229,0,0,0,4,7,8,9,3
1558441253036229,1,0,4,2,4,8,-1,-1
1558441253045204,-3,-3,-7,-5,-7,-3,-5,-2
1558441253045204,-2,1,1,-1,-5,-13,1,0
1558441253059188,-2,-1,-2,2,4,-4,0,-3
1558441253059188,0,0,-3,-4,-3,-3,-3,-2
1558441253067145,0,-1,3,3,5,9,1,-2
1558441253067145,-3,-4,-6,-4,-8,2,-7,-2
1558441253075125,0,-1,0,0,-9,-2,-5,-2
1558441253075125,1,0,1,-9,3,-8,3,2
1558441253081108,0,0,-2,2,4,-2,-2,0
1558441253081108,-1,0,1,1,8,5,4,1
1558441253098063,-2,-1,0,-1,-5,-4,-1,-3
1558441253098063,-2,-4,-5,-2,-8,4,-3,-2
1558441253104107,-4,-1,-3,-2,-2,3,-2,-2
1558441253104107,-2,-3,-1,5,8,-1,5,1
1558441253119009,-1,0,1,-4,-4,-15,0,0
1558441253119009,-1,-3,-5,-1,-8,3,-3,-4
1558441253126987,-3,-3,0,-3,-10,-12,-9,-3
1558441253126987,2,0,2,4,6,16,7,2
1558441253133967,-2,0,-1,5,2,-7,0,-1
1558441253133967,0,2,2,-2,4,2,1,1
1558441253140947,0,0,1,-1,-1,-6,-2,0
1558441253140947,-2,-1,-2,-4,-5,7,-5,-5
1558441253155911,-2,-2,0,0,-3,-3,-1,-1
1558441253155911,-2,-1,-1,-3,2,0,-1,0
1558441253164884,0,-1,0,2,6,7,2,-1
1558441253164884,-1,-1,-2,-2,-3,-10,-3,-2
1558441253178848,-2,-4,-2,-6,-4,5,-2,0
1558441253178848,-2,1,6,8,7,-10,-5,-1
1558441253186824,-1,-1,-3,-10,-13,-3,5,1
1558441253186824,1,0,3,1,5,1,2,1
1558441253193807,-2,0,-6,-5,-9,-5,-8,-5
1558441253193807,0,-2,-1,-1,3,-4,2,0
1558441253200787,3,2,3,8,12,5,4,1
1558441253200787,-1,-2,-2,-7,-10,-3,-6,-3
1558441253216745,-2,-1,0,1,-2,2,0,-2
1558441253216745,-1,-1,0,-1,-7,-7,-4,-3
1558441253224723,-1,-2,-2,-2,0,-4,-4,0
1558441253224723,0,-2,-1,-1,-4,-8,-4,-1
1558441253238686,2,1,1,3,11,11,3,4
1558441253238686,-3,0,-5,-3,-7,-7,-2,-1
1558441253246700,0,-2,0,-1,6,7,3,-1
1558441253246700,0,1,1,-1,1,2,1,-2
1558441253253647,-2,-2,0,-3,2,3,0,0
1558441253253647,-1,-2,-3,-1,-1,6,0,-4
1558441253269604,-4,-2,-3,-3,-9,-6,-6,-5
1558441253269604,1,-1,1,4,2,-11,3,2
1558441253276584,1,0,-3,-5,1,-2,3,0
1558441253276584,-2,-2,-2,-2,-4,7,-3,-2
1558441253283566,0,1,2,3,1,-12,-6,0
1558441253283566,0,-1,-5,-3,-5,-8,-6,-1
1558441253298526,-2,-3,-3,-2,-6,1,-2,-2
1558441253298526,0,-2,0,-1,-1,-3,-1,-2
1558441253306505,-1,-1,-2,0,4,12,5,2
1558441253306505,-2,-1,-1,-3,1,-4,0,-2
1558441253313486,-1,0,1,-1,-6,-5,-5,-3
1558441253313486,0,0,-2,-1,3,9,-1,0
1558441253329442,-1,-3,-2,0,1,11,2,-2
1558441253329442,0,1,2,3,9,-1,2,4
1558441253336424,-3,-2,-5,-4,-9,-9,-1,-1
1558441253336424,-1,-1,-2,-1,-5,-3,-4,-3
1558441253343406,1,1,2,3,6,-3,2,0
1558441253343406,-2,-1,-4,-7,-6,10,1,-2
1558441253358367,-2,-1,2,0,-3,-4,-3,-2
1558441253358367,-1,0,-1,-1,-5,-18,-4,-1
1558441253367342,1,1,1,-1,1,6,2,1
1558441253367342,-3,-2,0,-2,-7,0,-4,-1
1558441253373328,0,-4,-2,-3,-2,3,0,-3
1558441253373328,0,-3,-1,-2,2,-3,-1,0
1558441253389284,0,-2,-4,-2,-3,-8,-1,-1
1558441253389284,1,2,7,4,5,2,5,2
1558441253396264,-2,0,-3,-2,-2,-3,-3,-2
1558441253396264,-1,-1,-2,-2,4,10,3,1
1558441253403246,-4,-1,0,-2,-5,-7,-3,-3
1558441253403246,-3,1,-3,-2,1,6,2,-2
1558441253419203,1,-2,-2,-1,-4,-15,-9,-3
1558441253419203,0,-2,-1,2,1,7,4,1
1558441253427183,-1,-3,-2,-2,0,7,2,0
1558441253427183,1,-2,1,0,7,-4,5,1
1558441253434163,0,2,4,4,6,11,2,0
1558441253434163,-3,-1,-4,-8,-10,-5,-6,-3
1558441253449123,-1,-2,-3,-3,-8,-6,-3,-2
1558441253449123,-1,-2,-4,-4,-8,-12,-9,-3
1558441253456105,2,-1,0,3,0,4,2,1
1558441253456105,2,0,2,-7,2,-5,-1,2
1558441253464083,0,0,0,-1,0,3,1,-1
1558441253464083,-2,-3,-2,-4,-4,0,-2,-3
1558441253479043,-3,-3,-1,-2,-1,-2,-2,-2
1558441253479043,0,0,-3,-2,-11,-4,-6,-4
1558441253487021,3,2,2,4,14,17,18,7
1558441253487021,-4,-4,-3,-1,-2,-5,-1,0
1558441253494004,-1,0,2,2,4,-13,-5,0
1558441253494004,-5,2,-2,-6,-3,9,3,0
1558441253517939,-3,0,-7,-3,-2,-15,-10,-2
1558441253517939,0,2,-1,0,3,12,1,0
1558441253518936,0,-1,2,0,2,-6,0,0
1558441253518936,-2,-1,3,4,-3,-8,-7,-5
1558441253523922,-3,-2,-7,-3,-7,-3,-5,-5
1558441253523922,2,1,2,-1,2,2,3,2
1558441253539880,2,1,-5,-2,-1,-8,1,1
1558441253539880,-1,-2,0,2,1,2,2,-1
1558441253546860,-3,-1,0,0,-7,-2,-5,-3
1558441253546860,-3,-2,-4,-5,-7,-3,-6,-4
1558441253553843,2,1,3,-4,6,-2,5,6
1558441253553843,-1,-1,-1,2,0,-5,0,-1
1558441253569800,-1,-5,-5,-5,1,4,-1,0
1558441253569800,0,0,-1,5,-3,-1,-4,-4
1558441253575785,-2,-1,-3,-5,-7,0,-5,-2
1558441253575785,-1,0,-1,-1,7,2,5,3
1558441253583763,0,-1,-1,-2,-4,-5,-6,-3
1558441253583763,-2,-2,-1,-3,1,6,1,0
1558441253598723,1,-1,0,0,-1,-7,4,2
1558441253598723,0,-2,1,3,0,-1,-3,-5
1558441253606701,-1,-4,-4,-6,-9,-7,-6,-5
1558441253606701,1,-1,2,4,4,3,5,3
1558441253613682,-1,2,-1,-3,2,-3,2,-1
1558441253613682,-2,1,-2,0,2,1,-4,-4
1558441253629640,2,1,3,-2,-6,-7,-3,0
1558441253629640,-1,-1,-2,-1,-1,1,-1,-4
1558441253636621,-3,-1,-6,-7,-1,6,1,-1
1558441253636621,-1,-3,0,0,-5,-7,-4,0
1558441253643603,0,0,0,2,5,2,2,3
1558441253643603,-2,-1,-4,-3,2,8,0,1
1558441253658563,-2,-2,1,1,-6,3,-4,-5
1558441253658563,0,-2,-2,-5,1,-4,2,0
1558441253666543,2,3,5,1,11,-1,8,5
1558441253666543,-2,-4,1,5,-11,-13,-8,-6
1558441253673524,0,-1,-6,-5,0,16,-1,-4
1558441253673524,-1,-3,0,2,-2,4,-3,-3
1558441253689482,-4,-1,-1,-2,-3,-12,-3,-1
1558441253689482,-2,1,0,-1,3,-2,1,1
1558441253696461,-2,-2,-3,0,-5,-4,-2,0
1558441253696461,-2,-1,-3,-1,-4,-4,-1,-1
1558441253703443,0,2,6,4,11,12,5,2
1558441253703443,0,-4,-5,-6,-7,-6,-10,-6
1558441253718404,1,0,3,2,7,7,1,2
1558441253718404,0,-1,0,-1,-2,-5,-3,0
1558441253727377,-3,-5,-7,-3,-2,2,0,-2
1558441253727377,-1,3,-4,-3,-1,-3,0,0
1558441253741341,-2,-2,0,0,-5,-2,-6,-4
1558441253741341,0,-1,-1,1,4,7,3,2
1558441253749320,-2,-1,0,-2,-9,-6,-8,-4
1558441253749320,-1,-2,1,-1,-1,1,2,1
1558441253756311,1,0,0,0,3,4,3,0
1558441253756311,1,0,-2,-3,0,-5,2,-1
1558441253764283,-2,0,0,2,0,3,1,-3
1558441253764283,0,0,-1,-3,-1,-2,-3,0
1558441253779242,-2,-2,2,1,-3,-13,-2,-3
1558441253779242,-1,0,-1,1,2,10,4,1
1558441253795197,-1,-2,-4,-3,-8,2,-2,-3
1558441253795197,3,0,4,0,6,-14,7,5
1558441253802180,1,-2,-3,1,-2,0,-7,-3
1558441253802180,-3,-5,-4,-10,-6,2,-5,-3
1558441253818142,-3,-3,1,0,-1,-9,-3,-1
1558441253818142,-3,-1,-1,-5,-9,-2,-6,-2
1558441253819133,-3,-1,-2,-1,-4,1,0,0
1558441253819133,1,3,2,5,13,7,9,4
1558441253824126,0,0,2,2,0,-3,-3,-2
1558441253824126,-4,-4,-4,-5,-7,0,-4,-5
1558441253855041,0,-1,0,-1,-2,-8,-1,-1
1558441253855041,-1,0,-1,-1,-4,-6,-3,-4
1558441253856034,1,-2,-6,-3,-2,1,-3,0
1558441253856034,-1,0,1,5,4,2,4,0
1558441253861021,-1,-2,1,0,2,13,1,1
1558441253861021,0,0,-3,-5,-7,-4,0,1
1558441253869996,1,1,-1,1,0,-10,2,0
1558441253869996,-1,-2,-2,-4,-10,-5,-10,-5
1558441253883965,-4,-3,-8,-1,6,9,4,0
1558441253883965,1,2,7,5,5,-15,5,4
1558441253884957,0,-3,-6,-3,-8,2,-5,-3
1558441253884957,-1,-1,1,-1,-1,3,-1,-1
1558441253915028,0,1,2,-4,-2,-1,-1,-1
1558441253915028,-1,-3,0,4,-2,6,-3,-3
1558441253915878,-3,0,-1,-2,3,6,5,0
1558441253915878,0,1,-1,-2,-3,-6,-4,-1
1558441253921919,2,0,0,0,3,-7,2,0
1558441253921919,-1,-1,-1,-1,2,-3,0,-1
1558441253929837,1,-1,-1,-1,-6,-9,-2,-2
1558441253929837,-2,-3,0,0,-3,2,0,-1
1558441253944798,0,-2,1,-3,-2,-3,-1,0
1558441253944798,0,-3,-1,-1,4,4,-1,1
1558441253944798,-3,-2,-2,-1,-2,-8,-6,-3
1558441253944798,-1,0,-2,5,4,10,1,-3
1558441253968734,-4,-1,-4,-4,-10,-10,-3,-4
1558441253968734,-1,0,0,2,3,-2,-2,-1
1558441253969731,1,0,4,0,7,4,7,2
1558441253969731,0,0,-1,0,1,-7,-4,1
1558441253981697,1,0,0,2,9,17,5,2
1558441253981697,-6,-5,-5,-14,-13,-6,-9,-4
1558441253989942,-1,1,0,2,-1,-4,-1,-2
1558441253989942,-1,2,0,-2,5,0,3,0
1558441254004911,0,-1,-1,-1,-2,-5,-2,-1
1558441254004911,-1,-3,-1,2,0,6,-1,-1
1558441254005636,0,-1,1,1,1,11,-1,-1
1558441254005636,-2,-2,-3,-4,-1,-11,0,-1
1558441254019620,-1,-3,-1,-1,1,-2,-6,-2
1558441254019620,1,-1,0,3,-2,1,2,-1
1558441254027613,-1,-3,-1,-4,-6,-6,-6,-1
1558441254027613,1,-2,-1,-1,0,8,1,-2
1558441254041540,-5,-1,-1,-2,-7,-1,-3,-4
1558441254041540,-3,0,-1,-1,-4,-3,-3,-2
1558441254049558,-2,-2,-5,-1,4,0,1,-1
1558441254049558,-1,0,0,1,4,3,1,0
1558441254064724,-2,-3,-3,-4,-7,-5,-5,-2
1558441254064724,-1,0,0,-2,4,12,3,1
1558441254065476,-3,0,-2,-2,-5,-10,-4,-1
1558441254065476,2,0,0,2,1,-7,2,3
1558441254080435,1,1,-2,-5,-1,0,0,-1
1558441254080435,-1,-2,-2,-2,-12,-12,-7,-5
1558441254087478,1,1,2,1,3,0,4,1
1558441254087478,0,-2,3,-1,8,14,2,0
1558441254101418,1,0,-1,12,9,-2,0,1
1558441254101418,2,-2,-5,-6,-11,-13,-7,1
1558441254109358,-2,-2,-2,0,-2,7,1,-1
1558441254109358,-4,-3,-1,-2,-9,-17,-4,-4
1558441254132305,0,1,-1,3,1,-6,-2,-2
1558441254132305,1,1,1,2,5,6,3,1
1558441254133294,1,1,1,0,4,7,-3,-2
1558441254133294,-1,-2,-7,-5,-2,10,-2,-1
1558441254138289,0,2,6,2,3,-9,4,7
1558441254138289,-3,0,-2,0,-1,-19,-7,-1
1558441254147258,0,-2,-2,-5,-11,-11,-6,-3
1558441254147258,1,1,2,3,5,12,3,0
1558441254161218,-3,-4,-5,-3,-7,2,-7,-7
1558441254161218,2,-1,0,-6,5,15,10,2
1558441254169196,-1,0,0,1,-6,-14,-5,-1
1558441254169196,-2,2,-2,0,-2,1,1,0
1558441254192135,0,-2,0,0,2,-2,6,-1
1558441254192135,-2,-1,-2,-3,6,10,-1,-2
1558441254193155,0,-1,-1,2,-2,-1,-4,-3
1558441254193155,-1,-3,-5,-6,-6,-3,-2,-2
1558441254199119,1,-2,1,1,0,6,-3,-2
1558441254199119,-1,0,2,3,5,-11,4,3
1558441254207094,-2,-2,1,-5,2,-4,0,0
1558441254207094,-2,-2,-1,-4,-11,-9,-11,-6
1558441254222140,-2,-1,-5,-2,-7,2,-2,-2
1558441254222140,0,0,-1,2,4,-6,5,0
1558441254237389,0,0,-1,-1,3,3,2,-2
1558441254237389,2,0,0,3,9,11,8,1
1558441254243996,-3,-3,-4,-8,-16,-6,-13,-8
1558441254243996,-2,-2,-2,-1,-8,-12,-4,-3
1558441254252334,2,3,4,3,16,19,15,7
1558441254252334,-3,-2,0,2,0,-4,-3,-1
1558441254268283,0,1,1,-9,3,0,1,1
1558441254268283,-3,-2,-4,-2,-10,4,-13,-7
1558441254268283,-3,-3,-3,0,-11,-9,-3,-3
1558441254268283,0,-4,-2,-13,1,-3,2,0
1558441254281250,-1,-1,1,-5,1,3,1,-1
1558441254281250,-1,-3,-3,0,3,2,2,1
1558441254297859,0,-2,2,3,6,-2,0,1
1558441254297859,-1,0,-6,-6,-9,4,-1,0
1558441254304115,-1,1,-2,1,-2,-14,-4,0
1558441254304115,-3,-4,-3,-2,-5,2,-5,-6
1558441254312818,-2,-2,0,-1,-3,3,-1,-1
1558441254312818,0,-2,0,3,2,-3,3,1
1558441254319021,-1,-1,1,1,3,0,-2,0
1558441254319021,0,3,1,2,5,-2,-3,1
1558441254327775,-2,-2,-2,-3,-1,2,-6,-3
1558441254327775,1,1,-1,8,-2,-11,-4,-1
1558441254357697,3,0,1,-3,-3,-9,1,0
1558441254357697,0,1,0,2,3,2,1,-1
1558441254358693,-1,-4,-6,-6,-9,-4,-4,-4
1558441254358693,-1,0,1,1,1,-5,1,2
1558441254363680,-1,-1,1,1,6,14,7,1
1558441254363680,-3,-4,-4,-3,-10,-6,-5,-3
1558441254372653,-2,0,2,1,6,11,-3,-2
1558441254372653,1,1,2,-3,2,-3,5,3
1558441254387613,-1,1,-2,0,-4,-23,-4,0
1558441254387613,1,1,0,-2,3,3,2,2
1558441254388611,-3,-4,-7,0,-4,-6,-6,-5
1558441254388611,-1,-2,0,-3,-9,-4,-8,-5
1558441254410551,-2,-1,-1,2,5,7,3,-1
1558441254410551,0,-3,0,-2,-9,1,-7,-5
1558441254411549,1,1,2,-2,0,-3,5,5
1558441254411549,0,0,1,0,7,-4,1,2
1558441254424515,-4,-1,-2,-2,-9,-2,-6,-2
1558441254424515,3,2,0,3,10,11,5,1
1558441254432496,0,0,-4,-2,-3,-1,0,-2
1558441254432496,-1,-1,0,1,1,12,4,-1
1558441254447514,-3,-2,-2,-2,-2,1,-3,-1
1558441254447514,1,0,2,1,3,4,4,2
1558441254449453,-1,-2,1,-2,-3,-9,-1,-1
1558441254449453,-1,-3,-3,-1,-4,-10,-5,-3
1558441254470459,1,0,-1,2,7,16,3,-1
1558441254470459,-3,-3,-2,-3,-10,-4,-8,-5
1558441254471398,2,2,1,-2,-2,-15,1,2
1558441254471398,-2,1,0,0,1,-1,-4,-2
1558441254484397,-2,-3,-1,-3,-1,0,0,-1
1558441254484397,-1,1,0,-2,2,1,2,0
1558441254493334,-4,-2,-4,-2,-2,12,2,-1
1558441254493334,-2,0,1,0,-4,-16,-6,-1
1558441254523250,-1,-1,-3,-4,-3,5,0,-2
1558441254523250,-3,-2,-3,0,-5,-10,-5,-2
1558441254525247,0,0,4,-2,1,0,-3,2
1558441254525247,0,-1,-5,3,0,5,1,-2
1558441254525247,0,-2,-3,-1,-2,-12,-5,-1
1558441254525247,0,0,-2,0,-4,-8,-1,0
1558441254530234,-2,-3,-2,-1,-2,3,-2,-1
1558441254530234,-1,-1,0,0,4,0,1,0
1558441254544198,1,1,2,4,2,1,-1,-1
1558441254544198,-4,-2,-4,-12,-11,-4,-5,-3
1558441254552174,0,1,-1,1,4,3,-1,-1
1558441254552174,0,-3,-3,-4,-3,2,-2,0
1558441254567131,-3,-4,-1,-1,1,5,1,-1
1558441254567131,3,1,2,-1,6,-7,5,3
1558441254569126,-3,-4,-4,-1,-5,-14,-5,-3
1558441254569126,-2,-1,-1,-5,-10,-11,-5,-4
1558441254581094,-3,0,-2,0,-1,5,-5,-4
1558441254581094,-3,-3,-2,2,3,10,0,-2
1558441254590070,0,-2,-1,-2,-6,-5,-5,-1
1558441254590070,-1,0,0,-3,-3,-6,-2,-1
1558441254604033,0,1,0,0,3,-6,8,1
1558441254604033,-1,-4,-4,0,-4,2,-4,-3
1558441254613010,0,1,-1,-1,0,-2,-3,-4
1558441254613010,-2,-2,-3,-5,-6,6,-3,-4
1558441254627005,-1,-1,-3,-1,2,5,0,1
1558441254627005,1,1,3,2,5,-6,4,2
1558441254634346,0,-3,-2,3,-2,0,-3,-3
1558441254634346,-3,-2,0,-4,-2,4,1,-2
1558441254641226,-1,-1,-2,-3,-1,-6,0,0
1558441254641226,-1,-2,-1,0,0,-8,0,-2
1558441254650097,1,0,2,1,-1,1,-1,-1
1558441254650097,-2,0,-8,1,2,4,-2,0
1558441254664140,-1,-1,2,-1,2,2,4,1
1558441254664140,-2,-2,1,-2,-8,-6,-8,-4
1558441254672855,-1,1,-1,1,5,11,6,2
1558441254672855,-1,-3,-1,-3,-3,2,-3,-4
1558441254687037,0,0,-1,-1,2,1,2,1
1558441254687037,0,-1,-3,0,-3,-12,-2,0
1558441254693827,-1,-1,-1,-2,2,13,2,-1
1558441254693827,0,0,0,-1,1,-2,-4,0
1558441254701993,-2,-2,1,0,-7,-8,-4,-4
1558441254701993,0,0,3,4,4,4,-3,0
1558441254709755,-1,-3,-5,-5,-8,-3,-3,-2
1558441254709755,-1,-2,-4,0,3,4,3,0
1558441254723975,0,0,3,1,0,-10,-1,1
1558441254723975,0,1,0,4,1,8,-1,-2
1558441254732691,-2,-4,-5,-5,-4,-2,-2,-3
1558441254732691,-2,0,-1,2,-1,5,0,-2
1558441254746863,0,1,-4,-4,-3,-1,-5,-1
1558441254746863,-2,2,0,1,-2,-2,1,2
1558441254755638,1,1,3,2,0,-9,0,0
1558441254755638,0,-1,-2,-1,-2,0,0,-1
1558441254761654,-2,-2,1,-3,-2,2,1,0
1558441254761654,0,-2,-1,-1,10,6,7,1
1558441254770589,0,1,3,2,-2,-3,-1,2
1558441254770589,-1,0,-4,0,-4,-8,-6,-1
1558441254783560,-1,-1,-2,-2,-2,4,0,0
1558441254783560,-3,-3,-4,-4,-4,-1,-1,-4
1558441254792531,0,0,0,-2,0,3,1,0
1558441254792531,1,-1,6,2,4,1,-1,-2
1558441254806532,0,-3,-5,-3,-6,-2,-6,-4
1558441254806532,0,-1,-1,-3,3,2,-1,0
1558441254815469,-1,0,2,1,2,-9,0,0
1558441254815469,2,1,2,-4,3,4,5,1
1558441254821573,-4,-3,-1,2,-7,-8,-8,-4
1558441254821573,-4,-2,-4,-6,-5,0,-2,-3
1558441254830432,-1,-2,-4,-1,2,6,-3,-4
1558441254830432,-1,0,-3,-2,-2,7,4,1
1558441254844394,1,-1,-1,-1,4,-5,6,1
1558441254844394,1,1,2,0,2,0,-2,0
1558441254852373,-3,-1,-2,-2,-1,-2,-4,0
1558441254852373,-3,-3,-5,-4,-5,-6,-6,-2
1558441254866517,0,-1,-1,-1,-5,8,-1,-4
1558441254866517,-1,0,-1,0,-5,-12,-2,1
1558441254875308,-1,1,-1,-2,-2,-1,-1,-1
1558441254875308,-2,-2,1,-2,-7,-7,0,-1
1558441254881295,3,-2,-2,0,4,6,2,-1
1558441254881295,-1,-3,0,1,1,6,3,-2
1558441254890273,-3,-2,-4,-4,-2,-4,-3,-2
1558441254890273,1,0,3,5,7,-7,1,2
1558441254904471,-3,-1,0,0,-5,-2,-10,-4
1558441254904471,1,-1,-2,-2,0,7,1,1
1558441254912435,1,-1,-1,-2,0,-6,0,1
1558441254912435,-1,0,3,2,2,2,1,-3
1558441254927172,-2,-1,-1,-2,-3,-4,0,1
1558441254927172,-1,-2,-2,-5,-9,-7,-7,-4
1558441254935149,-5,-2,-2,-3,-9,-8,-7,-4
1558441254935149,0,-1,0,3,9,9,10,5
1558441254950341,1,-1,1,1,5,4,2,2
1558441254950341,-3,-3,-1,-1,-6,-5,-4,-2
1558441254951114,-1,-1,-3,-2,-6,-2,-5,-2
1558441254951114,-3,-2,-2,-3,-1,-3,-5,-3
1558441254964318,-1,0,-1,-3,-3,2,-1,-1
1558441254964318,-3,-2,-3,-1,0,-7,-2,1
1558441254973047,1,1,2,1,6,10,7,1
1558441254973047,-1,-1,2,-2,-3,-3,-5,-3
1558441254986016,1,-2,-3,-2,0,2,1,0
1558441254986016,1,1,0,1,3,-4,4,1
1558441254994988,-2,-3,-3,-4,-9,-7,-6,-5
1558441254994988,-2,0,-1,1,-2,-4,-3,-2
1558441255000975,-3,-2,1,-1,-1,-13,-1,-2
1558441255000975,-1,-1,-4,-1,2,6,2,-1
1558441255009947,0,-2,1,0,0,-12,-7,-3
1558441255009947,2,-1,1,0,-1,12,2,1
1558441255024269,0,0,0,1,5,-3,1,1
1558441255024269,-2,0,-2,-4,-1,0,-1,-2
1558441255032888,-1,-2,0,0,-2,3,0,-3
1558441255032888,-3,-3,-5,-4,-10,-12,-11,-6
1558441255047030,-2,-1,-1,1,3,9,5,0
1558441255047030,2,1,5,0,4,-8,8,5
1558441255055171,-1,-3,-2,-2,0,3,-2,-3
1558441255055171,-4,-2,2,1,-11,-7,-5,-4
1558441255061957,-2,-1,-4,-4,2,10,1,-1
1558441255061957,-1,2,0,-1,0,-12,-4,1
1558441255070121,0,-2,1,2,0,-7,-1,0
1558441255070121,-1,-1,-6,-3,-1,-3,1,-1
1558441255083787,-1,-5,-6,-8,-11,-2,-11,-4
1558441255083787,0,-5,-2,4,4,18,3,-1
1558441255092730,1,2,3,-1,2,-5,3,4
1558441255092730,0,-1,0,0,-1,1,-2,0
1558441255106916,-2,1,-8,8,-1,-13,-8,-4
1558441255106916,-4,-4,-1,-17,-22,-11,-12,-7
1558441255114706,-2,-1,-9,-7,7,18,13,3
1558441255114706,0,-1,0,-1,-2,-6,-2,-2
1558441255121875,2,2,1,0,-2,-9,-1,1
1558441255121875,-2,-3,-2,3,-4,3,-5,-5
1558441255130627,-1,1,6,2,2,-14,-4,0
1558441255130627,0,2,-1,0,7,5,8,4
1558441255143770,-2,0,4,-2,-1,-1,-3,-2
1558441255143770,1,-1,-2,-3,-4,7,-2,-1
1558441255152655,-1,-2,2,11,3,10,4,-1
1558441255152655,-2,-2,-2,-6,-6,-17,-6,-2
1558441255166675,-2,-2,1,0,1,-8,-1,-1
1558441255166675,-2,0,-1,1,12,18,12,3
1558441255175505,-1,-2,1,1,-3,3,-4,-4
1558441255175505,-1,-2,-6,-2,-4,5,-4,-5
1558441255190467,-1,-3,-2,-5,-8,-1,-1,-3
1558441255190467,-1,-1,-2,1,2,-16,0,2
1558441255191463,0,1,0,-1,3,-4,4,3
1558441255191463,-1,-2,-3,-2,1,2,-3,-2
1558441255203459,-2,-3,-3,-5,-8,2,-6,-3
1558441255203459,-1,-1,1,3,-2,-2,-2,-2
1558441255212729,-1,0,-1,-3,-2,4,-1,-1
1558441255212729,1,1,1,-1,2,0,5,2
1558441255226370,0,0,2,0,-2,-20,-1,1
1558441255226370,1,-1,-1,0,8,6,-5,-1
1558441255235348,-1,-1,-6,1,0,2,3,1
1558441255235348,1,0,4,-2,4,3,0,0
1558441255241331,-3,0,-3,-3,-3,9,0,-2
1558441255241331,-1,-2,1,1,-2,-12,-4,-2
1558441255250305,0,-1,-2,-2,-9,-22,-12,-5
1558441255250305,-3,0,-8,-3,-3,11,3,0
1558441255264372,2,0,3,3,8,9,5,3
1558441255264372,0,-1,4,-2,-2,-2,-2,-1
1558441255272614,-1,-3,-9,-9,-11,5,-6,-6
1558441255272614,1,-1,0,3,0,-12,3,2
1558441255286514,-1,-1,2,-7,-2,-16,-4,-2
1558441255286514,0,-1,-1,5,-1,7,1,-1
1558441255295219,0,1,5,1,4,2,-2,1
1558441255295219,-4,-4,-6,-7,-6,-11,-4,-3
1558441255310408,-3,-3,-4,-1,-3,8,-1,-2
1558441255310408,-3,0,-1,1,1,2,-3,0
1558441255311145,-1,0,-1,-4,-6,-15,-4,1
1558441255311145,0,0,2,-2,2,3,-1,-1
1558441255324350,2,1,1,6,5,0,0,1
1558441255324350,-3,-2,-1,-2,0,11,7,0
1558441255333085,-1,-2,-6,-6,-2,-1,-2,0
1558441255333085,-1,-3,2,1,0,2,-5,-2
1558441255346294,-2,0,-3,2,-7,-8,-3,-1
1558441255346294,2,2,1,-5,7,1,0,0
1558441255355154,-1,0,-5,-2,-7,-5,-3,-2
1558441255355154,-2,-2,2,-7,-5,-4,-1,-1
1558441255370230,-1,1,-2,2,4,-2,-3,-1
1558441255370230,-1,-2,-5,-5,-8,-13,0,-1
1558441255372191,0,-4,0,2,6,10,1,-1
1558441255372191,-2,-2,-3,-1,-5,-1,-5,-1
1558441255383947,-1,-2,-2,-6,-7,-3,-4,-5
1558441255383947,-3,0,-3,-1,-9,-10,-4,-3
1558441255392924,1,1,5,1,7,4,6,3
1558441255392924,-1,0,-4,1,1,-1,-3,-3
1558441255405893,1,0,1,4,7,7,9,3
1558441255405893,-1,-3,-5,-8,-9,-10,-6,-2
1558441255415154,-1,1,2,2,0,8,2,-2
1558441255415154,-1,-1,3,6,1,1,-3,-3
1558441255430861,-3,-2,3,-2,-7,-5,-3,-2
1558441255430861,1,-3,-2,1,2,-1,0,-1
1558441255431825,0,1,2,3,4,2,1,0
1558441255431825,-1,-2,-4,-2,-4,7,2,-3
1558441255444039,0,-3,-3,-4,-3,-9,-5,-4
1558441255444039,-1,-1,3,5,-4,-7,-3,-1
1558441255452767,-3,-2,-5,-5,1,0,-1,-2
1558441255452767,0,-1,-1,-2,-3,-2,0,-1
1558441255466822,-1,-1,-1,2,0,5,5,2
1558441255466822,0,0,-3,-3,0,5,-3,-5
1558441255474704,-3,-1,-1,2,-1,8,3,-1
1558441255474704,-1,-4,-3,-6,-3,-4,-5,-1
1558441255490748,1,0,1,-2,1,1,1,1
1558441255490748,-1,-2,-1,-3,3,-1,0,0
1558441255491660,-1,-2,1,2,-3,2,0,0
1558441255491660,-2,-4,-9,-8,-1,-1,-1,-2
1558441255503903,-2,-2,2,3,-3,-2,-1,-3
1558441255503903,-3,0,-2,-5,-9,-2,-4,-1
1558441255512604,-3,-1,-2,-4,1,-7,-3,-2
1558441255512604,-2,0,1,4,-3,-5,-5,0
1558441255526572,1,0,-1,1,13,14,10,2
1558441255526572,3,1,0,1,-3,0,-1,1
1558441255535542,-1,-4,-6,-8,-7,-3,-5,-3
1558441255535542,-1,1,4,3,8,5,6,2
1558441255550506,-3,-1,-3,-6,-8,-9,-8,-1
1558441255550506,-2,-1,-5,0,-5,-6,-4,-3
1558441255551504,1,0,1,2,6,5,0,0
1558441255551504,1,-1,-3,-3,-4,-9,-2,-1
1558441255563471,0,0,5,-1,-2,3,-1,-2
1558441255563471,-2,-5,-3,0,1,-6,0,1
1558441255572658,-1,-2,-3,-1,1,-5,-7,-2
1558441255572658,-1,0,0,-1,-1,4,0,0
1558441255586442,-1,0,-2,4,2,3,-2,-2
1558441255586442,-1,-2,-2,-7,-11,-7,-5,-3
1558441255595384,0,1,3,-2,-4,-6,-2,-1
1558441255595384,0,1,-1,6,5,6,4,2
1558441255610343,1,-1,-1,-3,2,10,5,2
1558441255610343,1,1,4,1,0,-3,-1,-1
1558441255611338,0,0,-8,-5,8,15,6,2
1558441255611338,0,2,11,7,5,-5,-1,-2
1558441255623306,-2,-2,-8,-4,-10,-14,-8,-3
1558441255623306,-2,1,-2,-9,2,8,2,0
1558441255632283,-2,-4,-3,-2,-5,4,-2,-3
1558441255632283,1,2,2,1,0,2,1,0
1558441255646244,0,-2,1,3,7,6,4,2
1558441255646244,2,0,4,3,5,6,1,2
1558441255655221,-2,0,-2,-6,-12,-17,-8,0
1558441255655221,-4,-3,-3,1,-1,4,-2,-3
1558441255670184,-1,-2,-3,-7,-4,-5,-1,-1
1558441255670184,-2,-1,-2,4,0,1,2,-3
1558441255671182,1,-1,0,0,-1,0,2,-1
1558441255671182,-2,-2,-2,-3,-3,-13,-4,-2
1558441255684356,-2,-4,-5,-4,-11,1,-9,-4
1558441255684356,-2,-2,-1,2,-1,-3,-1,-1
1558441255693121,0,0,5,5,11,-1,12,6
1558441255693121,1,2,1,-1,2,-11,-1,2
1558441255707085,-3,0,-1,3,-1,4,-1,-1
1558441255707085,-2,-1,-2,-3,1,-9,-2,-1
1558441255715065,-3,-4,-4,-3,-10,-7,-5,-3
1558441255715065,2,-2,3,-2,-3,-2,-1,-1
1558441255730253,-1,1,4,2,9,12,3,0
1558441255730253,-4,-2,-9,-5,-11,-3,-5,-5
1558441255732018,0,2,2,1,4,-1,0,-1
1558441255732018,-3,1,-3,0,3,0,2,-1
1558441255744199,-2,-1,-4,-4,-8,-6,-7,-4
1558441255744199,-2,-4,2,1,5,7,-1,0
1558441255752966,-2,-2,-1,-3,-7,-6,-3,-1
1558441255752966,-2,-4,-4,-4,-2,3,-2,0
1558441255766925,0,-1,-2,-4,-1,-5,-2,-3
1558441255766925,-1,0,2,3,0,2,-1,0
1558441255774905,-3,-4,-8,-6,-8,-4,-7,-5
1558441255774905,1,-2,0,-1,5,3,0,-1
1558441255790081,0,0,-1,1,-2,-6,5,2
1558441255790081,1,3,4,2,10,3,5,4
1558441255791858,-1,0,0,0,-1,-6,-2,-4
1558441255791858,-1,0,-7,-6,-7,8,-3,-4
1558441255804020,-2,-2,-2,5,0,-4,-2,-3
1558441255804020,-1,2,6,-1,6,-2,3,1
1558441255812801,-1,-4,-5,-14,-4,10,-1,-2
1558441255812801,-1,-3,1,2,2,2,1,-1
1558441255825766,3,1,0,-1,3,-11,0,4
1558441255825766,0,-2,-1,0,-5,-5,-2,-1
1558441255834742,0,0,4,4,2,4,-3,-1
1558441255834742,2,0,-3,-2,-15,-8,-1,-3
1558441255849700,-2,-2,0,-2,9,17,7,1
1558441255849700,-1,-1,-1,-4,-4,-11,-3,-2
1558441255851694,-3,-3,-1,0,-3,-2,-3,-3
1558441255851694,-1,-1,1,-1,-1,-2,0,0
1558441255863663,-2,-2,-1,-2,-5,-6,-5,-2
1558441255863663,-2,-1,-6,-2,-5,7,-1,-5
1558441255872714,2,2,3,9,7,2,2,2
1558441255872714,2,3,10,3,11,-3,8,8
1558441255886942,-2,-2,-6,-11,-2,-14,-5,-1
1558441255886942,-1,-3,0,-1,-5,0,-4,-2
1558441255895579,0,-1,-5,-3,-8,-9,-6,-3
1558441255895579,0,-1,-4,-2,-7,-5,-7,-5
1558441255910914,-3,-1,3,0,-5,-2,-2,0
1558441255910914,0,0,3,2,9,14,9,5
1558441255911537,1,0,1,3,3,1,1,-1
1558441255911537,-1,-4,-5,-8,-3,-7,-3,-2
1558441255923505,2,-1,-4,-3,-3,3,1,0
1558441255923505,-3,-2,-2,-1,-7,-14,-3,-1
1558441255932910,-1,1,2,1,-3,-4,-2,-1
1558441255932910,-3,-1,-2,0,0,4,1,-1
1558441255946898,2,1,0,2,-1,-3,-3,-1
1558441255946898,-3,-4,-5,-4,-5,10,-6,-6
1558441255955258,0,-2,-5,-2,-2,-1,-3,-1
1558441255955258,-1,0,3,1,-3,-10,-2,-1
1558441255970260,0,2,1,-1,7,-6,2,2
1558441255970260,0,1,1,2,8,4,6,2
1558441255971885,-4,-3,3,-1,0,4,-1,0
1558441255971885,-4,-6,-4,-5,-6,6,-3,-3
1558441255984135,0,-3,-5,-4,-10,-7,-6,-5
1558441255984135,1,0,2,4,2,2,2,-3
1558441255992842,-2,0,1,-4,0,2,3,-1
1558441255992842,-1,-1,-7,-3,-4,-7,0,0
1558441256005796,-1,-1,4,7,8,5,5,3
1558441256005796,-2,-1,-2,-3,1,3,-4,-1
1558441256014804,1,1,-2,1,-2,1,4,3
1558441256014804,-1,-2,-1,1,-1,-9,-4,0
1558441256029757,-2,-1,0,-4,-5,5,-6,-2
1558441256029757,-1,-3,-6,-2,-4,-1,-5,-4
1558441256031724,0,0,1,-2,-4,-14,-4,-2
1558441256031724,1,1,-2,2,10,26,9,0
1558441256043740,-2,-2,-1,6,-3,-8,2,-1
1558441256043740,1,4,4,-8,8,7,5,4
1558441256052744,-1,0,0,2,-2,-4,-4,-1
1558441256052744,-2,-5,-7,-5,-8,-4,-8,-4
1558441256066629,-2,-2,-3,-2,-6,-9,0,0
1558441256066629,-1,-2,-1,2,-1,-10,-3,-1
1558441256074619,-1,1,0,1,1,-6,-1,-1
1558441256074619,-1,3,3,1,3,4,2,0
1558441256089929,-2,-2,-1,-7,-10,1,-3,-4
1558441256089929,1,-1,-1,1,3,2,5,3
1558441256096907,3,0,1,-1,8,-3,6,2
1558441256096907,-1,-3,-2,0,-6,-1,-4,-2
1558441256104531,-3,-2,-2,-2,-1,5,-1,-2
1558441256104531,-3,-1,0,-2,-6,2,-4,-5
1558441256112694,-1,-2,-2,-6,0,10,-3,-2
1558441256112694,2,1,3,2,2,-11,5,3
1558441256126851,0,-2,0,-6,-1,-1,-6,-3
1558441256126851,-2,-3,-3,-2,-3,-5,-3,1
1558441256135446,-1,-3,-1,7,0,-1,-3,-4
1558441256135446,0,1,-1,-7,-4,3,1,0
1558441256150696,0,-1,-4,-2,5,-8,-1,2
1558441256150696,-1,-1,-1,-1,-6,-1,-1,1
1558441256157084,-2,-4,-6,-3,-5,-4,-3,-1
1558441256157084,-2,1,3,5,6,2,0,0
1558441256164003,-1,-2,-2,0,2,-1,0,-2
1558441256164003,-1,-1,-1,-1,-11,-7,-7,-4
1558441256172800,-1,-1,-2,0,4,15,3,2
1558441256172800,2,2,1,-3,0,-13,1,2
1558441256187107,-1,2,1,3,1,-3,-3,1
1558441256187107,-3,0,-2,-1,5,6,8,1
1558441256194746,-3,-3,0,-2,-4,-12,-3,-1
1558441256194746,-4,-4,-1,3,5,10,0,-1
1558441256209729,-1,0,-2,-3,-6,0,-1,-1
1558441256209729,-1,-2,-4,-6,-9,-12,-9,-5
1558441256216981,1,0,0,-1,4,3,5,1
1558441256216981,2,2,-3,3,-1,-6,-7,-3
1558441256223664,-1,-3,5,1,-2,5,-1,-1
1558441256223664,-2,-1,-2,-5,-4,-2,-3,-2
1558441256232643,-4,-2,-6,-5,-5,11,1,-3
1558441256232643,-5,-3,-1,1,4,-6,1,0
1558441256246948,1,3,1,2,8,-12,5,1
1558441256246948,-1,-3,1,3,2,0,2,-1
1558441256255883,0,2,4,2,9,10,5,2
1558441256255883,-3,-4,-9,-10,-18,-8,-11,-7
1558441256269544,0,-2,-1,1,0,9,3,-1
1558441256269544,0,-2,-3,0,-2,-11,-6,-2
1558441256276889,-2,-1,-4,-5,-5,-3,-4,-2
1558441256276889,4,2,3,0,13,9,6,4
1558441256292479,-2,0,-2,0,-2,2,-4,-2
1558441256292479,-1,1,-1,0,-2,0,-3,-2
1558441256294476,-2,-2,-3,-5,-9,-10,-9,-5
1558441256294476,-2,1,1,-2,-5,-2,-2,-2
1558441256315747,0,-1,-3,-1,2,-1,1,1
1558441256315747,-2,0,1,0,-1,3,-1,-3
1558441256316416,1,-1,-1,0,0,-2,3,1
1558441256316416,-1,-2,0,1,1,5,0,-2
1558441256329709,-1,-1,-3,-4,-2,-3,-2,0
1558441256329709,1,1,5,0,5,-6,4,4
1558441256336702,-1,-1,-3,-1,6,1,-1,-1
1558441256336702,-1,0,-3,1,-9,-2,-5,-3
1558441256353326,-2,-2,-3,-6,-8,6,-4,-3
1558441256353326,0,2,1,2,-2,3,1,1
1558441256354568,-1,-1,-2,-2,-1,-16,-4,2
1558441256354568,0,-1,1,1,6,7,5,2
1558441256366572,0,-1,0,1,1,-9,-3,-2
1558441256366572,0,-3,-4,-2,2,3,0,0
1558441256375256,0,-3,1,-3,-1,10,2,0
1558441256375256,-2,-3,-4,-6,-8,-4,-4,1
1558441256389518,-2,-3,-2,-2,-3,3,0,-2
1558441256389518,-2,-2,-3,-4,-9,0,-8,-5
1558441256396509,0,0,-1,-1,1,-2,-2,-3
1558441256396509,2,1,0,-1,-1,-8,3,0
1558441256412189,3,0,2,0,-1,-2,1,2
1558441256412189,0,-3,-3,-2,1,1,-1,-1
1558441256414153,-2,0,1,1,1,-5,-1,0
1558441256414153,-2,-1,-1,2,5,-1,-1,1
1558441256426135,-3,-1,-4,-5,-5,7,-2,-4
1558441256426135,-2,-3,-2,-5,-3,1,0,-1
1558441256435096,-2,-1,1,1,-5,-8,-6,-4
1558441256435096,-2,-1,-2,-1,0,-4,-6,-4
1558441256457040,-1,-1,3,-3,-11,-9,-1,0
1558441256457040,-1,-2,-7,1,10,1,1,-2
1558441256459033,-1,-2,0,-2,1,9,5,1
1558441256459033,0,0,0,2,5,2,-1,0
1558441256472032,0,-2,-1,-2,0,1,-2,-2
1558441256472032,-1,1,0,0,-3,-9,-3,0
1558441256474036,-2,-2,-3,-2,-4,-1,-2,-1
1558441256474036,-1,-3,0,0,-5,3,-4,-6
1558441256485995,0,-2,-2,1,-2,-9,1,-1
1558441256485995,3,0,3,3,12,6,8,3
1558441256494937,2,0,-1,7,2,-5,-1,1
1558441256494937,-2,-3,-3,-10,-4,1,0,-1
1558441256508924,-3,-2,-5,0,0,5,-4,-3
1558441256508924,-2,-3,-3,-4,-12,-4,-8,-4
1558441256515915,1,1,0,1,4,-3,3,2
1558441256515915,-1,0,0,1,-1,7,3,0
1558441256532838,0,2,0,3,5,-14,-5,0
1558441256532838,-4,-2,-3,-10,-9,-18,-5,-1
1558441256533837,-2,-3,0,-1,-1,4,-1,-1
1558441256533837,-2,-2,-4,-2,-2,-4,-2,-1
1558441256545802,1,1,1,-1,7,9,9,3
1558441256545802,-1,0,1,4,-6,-2,-6,-3
1558441256554776,-3,-3,-5,-5,-7,0,-9,-5
1558441256554776,1,1,-1,-1,0,4,2,0
1558441256569738,-2,2,2,2,6,5,4,3
1558441256569738,0,-1,0,2,-2,2,-2,-1
1558441256575753,-2,-2,-3,-9,-9,-7,-5,-2
1558441256575753,-1,-1,1,1,2,2,0,0
1558441256592677,-2,-2,-4,-2,-5,4,-2,-4
1558441256592677,1,1,3,0,5,-6,7,3
1558441256593672,1,-1,1,1,-5,-10,-2,-2
1558441256593672,1,-1,-4,-4,-8,-3,-4,-1
1558441256606637,-2,-3,-2,0,5,8,1,-1
1558441256606637,-3,1,-1,-3,-5,-8,-3,-2
1558441256614651,0,0,1,-1,-5,-4,-5,-2
1558441256614651,-3,-2,0,1,6,-2,-1,-1
1558441256629578,-1,-2,-2,-2,0,9,4,2
1558441256629578,-2,-3,-1,3,-1,8,-2,-2
1558441256636559,-1,0,-1,2,6,3,3,3
1558441256636559,0,-1,-4,-4,-8,-18,-8,-3
1558441256652549,-4,-4,-5,-7,-13,-4,-7,-5
1558441256652549,1,0,0,-1,-3,-2,3,-1
1558441256653551,-1,0,1,0,-2,1,0,-1
1558441256653551,0,-1,-2,-1,1,3,-3,-3
1558441256666477,3,0,2,5,8,8,8,3
1558441256666477,1,-2,2,0,-2,-13,-3,-2
1558441256675457,-2,0,-4,0,-6,-6,-1,-3
1558441256675457,-3,1,3,-5,-4,-5,1,-1
1558441256689415,-1,-3,-9,-5,-3,-2,-7,-3
1558441256689415,-1,0,1,3,6,21,4,0
1558441256696399,-1,-2,-5,-2,-6,-12,-4,-2
1558441256696399,-2,0,4,4,8,11,3,2
1558441256712354,-2,-2,0,-2,-12,-15,-6,-2
1558441256712354,2,1,1,-1,4,-10,6,3
1558441256714349,-1,-3,-1,-3,-1,12,-1,-4
1558441256714349,-4,-3,-4,0,-7,-3,-3,-1
1558441256726317,2,0,3,0,4,-7,2,0
1558441256726317,-4,-1,-5,-2,-1,17,-1,-3
1558441256735294,0,0,-1,-2,-8,-12,-1,-2
1558441256735294,-1,-1,-1,0,0,-11,-3,0
1558441256749257,1,0,3,4,10,19,8,2
1558441256749257,-3,-3,-7,-3,-3,-5,-8,-4
1558441256756236,0,-1,-2,-1,0,1,-1,-1
1558441256756236,0,-2,0,-1,-9,-6,-5,-4
1558441256772195,2,-1,0,1,6,-6,0,3
1558441256772195,2,-1,0,-5,-5,-2,-1,-1
1558441256774189,-5,-7,-5,-6,0,5,-1,-1
1558441256774189,1,2,2,3,2,5,1,-1
1558441256786157,-1,-1,-1,-3,-5,0,-5,-4
1558441256786157,-1,1,1,0,1,3,2,-1
1558441256795134,-2,2,3,1,2,-6,1,-1
1558441256795134,2,-1,-3,-2,9,5,15,8
1558441256809097,-1,-2,-2,-1,-8,-8,-10,-5
1558441256809097,0,-1,0,-1,1,9,-2,1
1558441256816111,-1,-1,-1,-1,-6,-2,-2,-2
1558441256816111,-2,-1,-5,-2,3,4,1,0
1558441256832070,0,2,1,2,-2,-4,-2,0
1558441256832070,-2,-4,-6,-5,-11,-11,-6,-4
1558441256834056,3,1,1,2,6,-4,4,4
1558441256834056,-2,-3,1,2,1,1,-2,0
1558441256845998,-4,-5,-5,-6,-6,-3,-5,-3
1558441256845998,-2,-1,-3,-2,-5,0,-1,-1
1558441256854973,0,2,-1,-1,5,8,3,2
1558441256854973,-3,0,0,1,-3,-5,0,-2
1558441256868935,-2,0,1,-2,0,-4,-5,-1
1558441256868935,-1,1,-2,1,0,0,-1,0
1558441256875921,-1,0,-1,-1,-2,4,-2,-3
1558441256875921,0,-2,-4,-5,-10,-13,-2,-1
1558441256892877,1,-1,-2,0,-3,-3,-3,-2
1558441256892877,2,0,1,3,12,7,9,3
1558441256893869,0,-1,0,2,1,0,0,0
1558441256893869,-2,-3,-4,-5,-5,3,-8,-4
1558441256905838,-2,-2,-2,-6,-12,-10,-6,-3
1558441256905838,3,2,2,3,7,-8,5,4
1558441256914813,-2,-1,2,-1,10,6,2,2
1558441256914813,-4,-3,-7,-4,-4,4,-1,-3
1558441256929774,-2,-1,-2,-1,-3,-14,-4,-2
1558441256929774,-2,-2,-5,-4,-2,2,-6,-2
1558441256935787,0,-1,3,3,-7,-2,-2,-1
1558441256935787,2,0,6,1,6,-1,-1,1
1558441256952712,0,-2,1,-2,1,6,1,0
1558441256952712,-1,-1,-2,0,-2,4,1,-3
1558441256953709,-1,-1,-3,-3,-2,-2,-3,-1
1558441256953709,-2,0,-2,-2,-4,-3,-5,-3
1558441256965711,0,0,-2,-2,2,4,3,1
1558441256965711,-2,-3,0,0,-5,-4,-3,-1
1558441256974653,-1,-2,-3,-3,-4,-1,0,0
1558441256974653,1,-1,-2,0,-2,-3,-3,-1
1558441256988650,0,2,1,3,4,6,1,0
1558441256988650,0,-1,-2,-3,-1,1,-2,-1
1558441256997592,-1,-1,-1,-5,-4,1,-2,-2
1558441256997592,0,0,-2,5,1,-2,2,1
1558441257011588,0,2,-3,-3,2,-7,0,3
1558441257011588,-2,-1,0,-6,0,-1,0,-1
1558441257018569,1,-2,-3,-3,2,1,2,0
1558441257018569,2,2,4,7,1,1,2,0
1558441257026554,-1,2,2,-3,-1,11,-2,-4
1558441257026554,-4,-3,-4,-3,-3,2,-6,-5
1558441257035498,2,-2,-4,2,1,-8,1,-2
1558441257035498,-3,-2,-3,-13,-8,-13,-2,0
1558441257048456,1,-1,3,10,6,8,3,2
1558441257048456,1,0,2,7,8,5,4,1
1558441257057431,-3,-1,-2,-5,1,-1,-2,-1
1558441257057431,-1,-1,-1,2,0,13,3,-2
1558441257071395,-1,-2,-2,-3,3,5,2,0
1558441257071395,-3,-1,-5,-6,-6,-10,-5,-1
1558441257086390,-2,-2,-3,-1,-9,-5,-7,-4
1558441257086390,3,1,2,1,3,-6,5,3
1558441257087351,-1,0,-1,-1,2,7,1,0
1558441257087351,-1,-1,-2,1,-10,-3,-9,-2
1558441257095361,0,1,5,1,-5,1,-3,-2
1558441257095361,-5,-6,-13,-4,4,-1,1,0
1558441257108297,0,1,0,0,0,-10,-2,1
1558441257108297,-2,-1,0,-2,2,-1,2,1
1558441257117272,0,0,-1,0,-3,-9,-4,-2
1558441257117272,-1,0,-3,-3,-4,9,-5,-5
1558441257132234,-2,-6,8,4,-9,-9,-9,-7
1558441257132234,1,4,-2,-5,11,11,15,7
1558441257138258,-1,0,0,4,3,0,0,-2
1558441257138258,1,-1,2,1,-2,-7,-1,0
1558441257146220,0,0,-4,-2,-2,-3,4,2
1558441257146220,-1,-2,1,-7,-2,0,-5,-5
1558441257155169,-1,-2,-1,1,7,13,7,3
1558441257155169,-2,-5,-6,-6,-6,-8,-4,-3
1558441257169133,-1,-3,-2,-1,-2,0,-2,-3
1558441257169133,-2,-1,-4,0,-8,-15,-9,-2
1558441257177111,0,0,-1,-1,0,-8,-3,0
1558441257177111,-3,0,1,-2,4,13,-1,0
1558441257192071,-2,-2,-2,3,1,4,2,0
1558441257192071,-1,-2,0,-5,-10,-12,-2,-2
1558441257199052,-2,-2,-3,-5,-2,1,-3,-3
1558441257199052,-1,-2,0,3,0,7,0,-1
1558441257215011,1,2,1,1,6,-2,4,3
1558441257215011,-1,-3,-5,1,-5,-23,-3,-2
1558441257216009,-1,-2,-4,-13,-8,1,-6,-2
1558441257216009,-2,-2,2,0,-3,1,-3,-2
1558441257229007,-3,-1,-2,-3,-4,-1,-3,-2
1558441257229007,-2,-1,0,4,4,11,1,-1
1558441257237980,0,0,-3,5,3,5,1,1
1558441257237980,0,2,2,-3,3,-1,1,1
1558441257251946,-2,-3,-8,-9,-4,-8,-5,-2
1558441257251946,-2,1,4,2,-8,-26,-8,-3
1558441257258894,-3,-1,-1,2,7,17,6,2
1558441257258894,0,2,2,1,3,1,1,-1
1558441257275848,-1,-2,-4,-3,-4,-3,-3,-2
1558441257275848,-2,-2,1,0,-2,10,-3,-3
1558441257276845,-1,0,-2,0,0,-1,-2,-3
1558441257276845,4,0,4,0,-4,-13,-2,2
1558441257297819,-1,-3,-5,-5,-6,-6,-3,-3
1558441257297819,-2,-2,-1,2,3,11,2,-4
1558441257298786,-2,-2,-2,-6,-6,-18,1,2
1558441257298786,1,0,2,3,3,-5,-3,0
1558441257312128,0,-2,-1,-5,-4,1,2,1
1558441257312128,1,-1,-4,1,0,8,-4,-1
1558441257319107,0,-1,-1,-1,-4,-2,-3,-1
1558441257319107,-5,-5,-1,-2,-6,-7,-5,-3
1558441257335815,0,0,-1,2,3,5,0,-1
1558441257335815,0,-2,0,0,7,11,5,1
1558441257336686,2,2,0,2,5,-3,2,1
1558441257336686,0,-1,-1,-1,-4,-4,-4,-1
1558441257348802,-3,-2,1,-3,-12,-7,-7,-6
1558441257348802,-1,-2,1,-1,7,10,3,2
1558441257357633,0,-1,-4,1,-2,-4,1,-2
1558441257357633,1,2,3,-1,3,-6,-2,2
1558441257371826,-1,-1,-9,-8,-5,-2,-1,1
1558441257371826,0,2,2,6,-2,-7,-2,0
1558441257378578,-2,-2,-1,-3,-5,-5,-4,-2
1558441257378578,-2,0,-2,0,3,10,5,0
1558441257410488,0,1,-1,-1,-5,-8,-2,-2
1558441257410488,-2,-1,0,-1,-6,-7,0,-1
1558441257412483,-1,-4,-1,1,6,6,4,1
1558441257412483,0,-1,-4,-3,-4,0,2,0
1558441257412483,-3,-1,-2,3,4,2,-1,-1
1558441257412483,-1,-3,-2,-4,-2,-4,-2,-2
1558441257417467,-3,1,2,1,-6,-3,-1,-3
1558441257417467,-1,-2,-5,-6,-3,-2,-5,-5
1558441257431432,0,-1,2,3,4,-7,0,-1
1558441257431432,1,0,2,0,-1,3,1,-1
1558441257438433,-1,-1,-1,-1,3,1,1,1
1558441257438433,-3,-3,-3,-4,-3,4,-4,-4
1558441257462350,0,-2,-4,-2,1,1,-4,-3
1558441257462350,0,0,-1,-1,-7,-9,-1,0
1558441257464343,-1,-1,3,6,7,-1,2,1
1558441257464343,-1,0,-2,-6,-4,0,0,0
1558441257468367,-2,-1,-2,-2,-4,-5,-2,-3
1558441257468367,-1,-1,-3,-4,-1,9,3,0
1558441257477308,-2,-2,-2,0,2,12,-1,-2
1558441257477308,-1,0,-2,1,0,-13,-2,0
1558441257492269,1,0,5,3,5,7,3,3
1558441257492269,-2,-4,-7,-6,-6,-9,-4,-2
1558441257523186,0,-1,0,-3,-3,-3,-3,-2
1558441257523186,-3,-3,-4,-3,-7,0,-5,-4
1558441257524184,2,0,1,5,4,1,3,2
1558441257524184,-1,0,1,-6,0,-3,4,0
1558441257525181,0,0,7,0,-3,6,0,1
1558441257525181,-5,-5,-9,-2,-3,-2,-2,-1
1558441257528172,-1,-1,4,1,3,2,1,2
1558441257528172,-3,-1,-3,4,4,0,-1,-2
1558441257537148,0,0,-1,-5,-8,-12,-5,-3
1558441257537148,-1,0,2,3,1,7,4,-1
1558441257552171,-1,-2,-4,-4,-8,-10,-4,-5
1558441257552171,2,1,1,-4,-1,-1,-2,-1
1558441257576046,-2,-1,-2,4,10,5,3,1
1558441257576046,1,-2,-3,-10,-16,-6,-3,2
1558441257576046,0,-3,-2,4,6,1,2,2
1558441257576046,-2,0,0,-3,-4,-9,-7,-2
1558441257578039,-1,0,-5,-2,-3,-2,-6,-4
1558441257578039,1,2,5,5,6,4,1,1
1558441257589012,-3,-1,-3,-4,-9,-3,-4,-2
1558441257589012,1,-1,-3,0,1,8,4,1
1558441257597986,-3,0,3,-1,2,8,-1,-2
1558441257597986,0,-1,-2,-1,4,-13,2,-1
1558441257611948,-1,-1,2,-4,-7,-4,-5,-3
1558441257611948,-2,-2,-2,0,2,-3,-4,-3
1558441257625910,-1,-4,-4,0,-4,0,-2,-1
1558441257625910,1,-1,2,-3,1,3,0,2
1558441257634886,1,1,3,-2,4,-5,3,2
1558441257634886,-3,-3,-6,0,-7,-2,-3,-4
1558441257635883,-2,-3,-7,-7,-7,-3,-5,-3
1558441257635883,-1,0,0,3,7,7,1,0
1558441257648849,-3,-2,-2,-3,-5,-5,-3,-2
1558441257648849,-1,0,-5,-3,4,2,-2,1
1558441257657826,-1,2,3,3,-4,-8,-5,-2
1558441257657826,-1,-1,-2,-3,0,6,2,-2
1558441257671788,0,-4,-5,-2,2,3,-1,1
1558441257671788,1,1,7,6,0,-9,-5,0
1558441257685750,-1,-4,-4,-3,-7,4,2,-1
1558441257685750,-1,0,0,8,17,7,4,1
1558441257702704,-2,-1,-5,-5,-8,-1,-6,-4
1558441257702704,1,1,0,-1,-2,-7,4,1
1558441257703702,0,0,-1,-3,-2,-2,-5,-1
1558441257703702,-2,1,1,1,-7,1,-4,-2
1558441257708690,-2,-3,-4,-4,-8,-6,-4,-2
1558441257708690,0,1,2,-1,8,8,5,2
1558441257717666,1,-1,2,7,7,8,5,0
1558441257717666,0,-3,-4,-4,-8,-15,-4,-3
1558441257739606,-1,0,2,1,5,1,4,2
1558441257739606,-2,-3,-5,-4,-10,-7,-9,-2
1558441257741603,0,2,0,0,-1,-3,4,1
1558441257741603,-3,-4,-1,-3,-3,3,-6,-3
1558441257754568,-1,2,2,4,0,-5,0,-1
1558441257754568,-2,-3,0,-2,-2,4,-3,-2
1558441257756563,-1,-1,-5,-8,-11,-16,-4,-1
1558441257756563,1,-1,-2,-1,9,17,7,2
1558441257768529,-1,1,4,0,3,-5,2,2
1558441257768529,-4,-3,-1,7,2,6,4,-1
1558441257777507,-2,-2,-1,-4,0,-2,-4,-1
1558441257777507,1,-2,-5,-3,-14,-6,-8,-2
1558441257799447,-2,-2,-3,0,-2,12,-6,-8
1558441257799447,2,3,1,0,0,-10,2,0
1558441257801442,3,0,0,-2,3,-15,4,2
1558441257801442,0,0,1,1,2,4,0,-2
1558441257815405,-2,-1,0,-3,0,10,-1,-2
1558441257815405,-2,-2,-4,-4,-8,-4,0,-1
1558441257816402,0,-1,-3,0,1,5,1,-3
1558441257816402,-2,-2,-3,-1,-2,-3,-1,-3
1558441257828371,0,-2,-1,-1,3,6,-2,-2
1558441257828371,1,0,4,0,10,10,6,4
1558441257854300,-2,-1,0,-1,1,-1,-2,-1
1558441257854300,-3,-2,-2,-8,-10,-11,-7,-5
1558441257854300,-1,-2,-3,5,-4,-1,0,0
1558441257854300,1,1,-2,0,-3,-13,-5,-2
1558441257858294,-1,1,-4,-1,4,11,5,1
1558441257858294,-1,1,1,0,-4,-5,0,0
1558441257875248,-1,-1,2,-1,3,-1,0,0
1558441257875248,-2,-2,-3,0,1,11,0,-2
1558441257876245,0,-2,0,-6,-10,-16,-5,-2
1558441257876245,-1,2,1,3,3,-6,-4,1
1558441257888211,2,2,4,5,8,0,6,2
1558441257888211,-3,-7,-10,-9,-11,-5,-6,-4
1558441257897187,-2,0,0,-2,-2,-4,-9,-5
1558441257897187,-2,-3,-6,-1,3,13,4,1
1558441257912172,-2,-3,-1,-2,-3,-10,0,-2
1558441257912172,1,2,3,4,0,-6,-2,0
1558441257918129,-1,0,0,4,5,14,3,0
1558441257918129,-2,-3,-2,-7,-5,-8,-6,-2
1558441257934092,0,0,0,-4,-1,-5,-4,2
1558441257934092,-3,2,2,5,7,10,6,2
1558441257941069,-3,-4,-7,-9,-17,-19,-6,-2
1558441257941069,3,1,2,5,4,0,3,-1
1558441257949053,-2,-1,-5,-6,-5,1,-1,-2
1558441257949053,1,-3,-1,-2,-1,6,-3,-2
1558441257964007,2,-1,-1,-1,0,3,-7,-3
1558441257964007,-1,1,2,2,6,3,6,1
1558441257971986,0,0,-4,-4,-4,0,1,-2
1558441257971986,-1,-2,2,1,-3,-9,-4,-3
1558441257978968,-2,-1,-1,2,5,5,5,-1
1558441257978968,-2,-1,-1,-2,-5,2,-1,-3
1558441257993927,1,1,3,1,6,2,4,1
1558441257993927,0,-1,-1,-2,-6,-11,-5,-2
1558441258017864,-1,-2,-2,0,3,12,3,2
1558441258017864,-2,-2,2,2,8,-11,5,4
1558441258018862,-1,0,-1,0,1,4,0,-1
1558441258018862,-7,-1,-4,-3,-4,2,-6,-3
1558441258019859,-3,-1,-4,-1,-7,-3,-5,-3
1558441258019859,-1,1,0,-5,-7,-10,-3,-2
1558441258031827,1,-1,-1,0,2,2,1,-2
1558441258031827,0,0,0,-1,-2,-11,2,-1
1558441258038809,-1,-2,1,0,6,4,0,0
1558441258038809,0,0,1,3,2,4,1,2
1558441258054765,-2,-2,-2,-6,-11,-7,-6,-5
1558441258054765,4,0,1,1,-1,9,4,2
1558441258060748,1,2,-1,-1,5,-8,-1,1
1558441258060748,-3,-1,-1,1,4,11,4,1
1558441258077704,-2,-1,0,3,4,2,3,1
1558441258077704,-1,-4,-2,-1,-2,7,-5,-2
1558441258078700,-1,0,-1,-3,-3,-1,4,0
1558441258078700,1,1,-3,-1,-6,-7,-6,-2
1558441258091668,-1,-1,0,4,3,-8,-3,-2
1558441258091668,0,2,0,0,4,17,4,-1
1558441258098657,1,-1,-5,-9,-7,-21,-2,0
1558441258098657,-3,-3,-2,-6,-6,3,-5,-4
1558441258122582,-1,-1,-1,2,-1,7,4,1
1558441258122582,0,0,0,2,1,4,-2,-3
1558441258128568,-3,-3,3,1,-5,-8,-6,-3
1558441258128568,2,0,1,1,1,-3,5,1
1558441258137543,-4,-5,-4,-8,-3,-2,-4,-2
1558441258137543,-2,-1,-7,-2,-4,-7,-6,-2
1558441258138541,0,0,0,2,1,10,2,1
1558441258138541,1,2,1,3,9,-1,4,1
1558441258151504,-3,-3,-3,1,-5,3,-6,-4
1558441258151504,-2,-2,-1,-3,-6,-7,2,-2
1558441258158489,-2,-2,1,1,4,-5,-3,-2
1558441258158489,0,-2,-3,-2,-5,-5,-2,-2
1558441258174445,0,0,2,1,0,-6,2,1
1558441258174445,-2,1,-1,-5,0,2,-4,1
1558441258181426,0,-2,-3,1,1,2,-2,0
1558441258181426,-1,-2,1,1,-3,9,0,-2
1558441258197383,0,0,-1,-3,-1,-2,-2,-3
1558441258197383,0,-2,-1,-3,2,-2,4,1
1558441258199378,-3,0,0,-1,-3,-6,-2,-2
1558441258199378,0,-1,-3,-2,-8,-8,-12,-7
1558441258211345,0,1,0,3,12,19,5,2
1558441258211345,2,1,-1,-4,-2,-13,2,0
1558441258218327,-3,-3,-2,1,1,10,3,0
1558441258218327,-4,-3,-3,-12,-16,-15,-10,-4
1558441258242262,-1,-2,-2,-1,-8,4,0,-1
1558441258242262,0,1,1,4,2,-1,0,0
1558441258244258,1,0,0,-3,2,2,2,-1
1558441258244258,-2,-2,0,7,9,3,3,3
1558441258257222,0,-1,-4,-13,-11,-5,-8,-5
1558441258257222,-1,-2,0,-2,-2,0,-7,-1
1558441258259218,-1,0,2,-1,-4,-2,-2,-1
1558441258259218,0,0,0,2,6,13,5,0
1558441258272186,-1,0,-1,1,0,-15,-4,-2
1558441258272186,0,0,-3,0,5,5,3,1
1558441258295121,-2,-2,-5,-2,-5,9,-1,-3
1558441258295121,-2,-1,-4,-6,-2,3,1,0
1558441258295121,-2,1,2,3,1,-17,-3,1
1558441258295121,-1,-1,-3,-5,-9,-8,-4,-3
1558441258301120,-1,0,2,6,8,7,3,0
1558441258301120,-2,-1,0,-1,-4,1,-4,-2
1558441258317063,-2,-3,-6,-4,0,6,-1,0
1558441258317063,-3,-1,-1,2,1,1,-1,-1
1558441258319057,-2,-2,-1,-2,-6,-4,-5,-2
1558441258319057,2,3,4,2,3,1,6,2
1558441258332022,2,-1,1,-1,-1,-4,-2,1
1558441258332022,1,-3,-3,-2,2,3,-2,-2
1558441258339004,-2,0,0,0,-3,2,-1,-2
1558441258339004,-1,-1,-4,-3,-6,-13,-4,-3
1558441258353969,0,-2,-1,1,6,8,3,1
1558441258353969,-1,-2,1,0,1,-4,2,3
1558441258360946,2,1,-1,-4,-9,-9,-4,-1
1558441258360946,-1,0,1,0,10,16,4,-1
1558441258377901,-2,-1,1,2,0,3,2,0
1558441258377901,-3,-1,-5,-4,-5,4,-3,-4
1558441258378898,-2,-1,3,0,3,2,5,0
1558441258378898,2,0,-4,0,-1,-13,-2,4
1558441258391864,-3,-2,-1,-3,-5,-4,-5,-5
1558441258391864,-2,-1,0,-2,-2,9,2,-1
1558441258398852,-2,0,-1,1,-8,-12,-7,-2
1558441258398852,0,-1,1,2,4,6,6,1
1558441258414807,0,-4,-3,-1,-2,3,-1,-3
1558441258414807,-3,-3,0,-3,-3,-2,-4,-2
1558441258420786,2,1,1,-1,6,-15,4,4
1558441258420786,-3,-2,-3,-4,-7,-3,-8,-4
1558441258437743,-1,-2,-5,-6,-9,-6,-6,-1
1558441258437743,-2,0,0,2,-2,-2,-1,-1
1558441258438739,-1,-1,0,3,16,14,11,5
1558441258438739,-1,-2,3,-2,-5,-11,-6,-1
1558441258451702,0,-2,-2,-1,-7,-8,-3,-4
1558441258451702,1,3,1,1,3,-2,4,-1
1558441258458687,-4,-4,-5,-7,-11,3,-10,-5
1558441258458687,0,3,1,2,3,-12,3,3
1558441258474642,-1,1,0,-1,8,8,7,2
1558441258474642,-2,-1,0,1,-1,-1,-8,-4
1558441258480625,-2,1,-2,-5,-11,-8,-5,-4
1558441258480625,-2,-3,-3,2,4,-7,2,-2
1558441258497580,3,3,3,-1,0,-5,0,1
1558441258497580,-1,-3,-3,-4,-5,-11,-2,0
1558441258498577,-2,-5,-5,1,3,6,-5,-3
1558441258498577,-2,-2,1,1,-2,8,3,1
1558441258511545,0,0,1,-4,3,-1,0,-1
1558441258511545,-1,-3,-4,4,-8,-10,-7,-3
1558441258518523,-3,-4,-11,-19,-6,3,-4,-2
1558441258518523,-3,0,-1,-1,-8,-8,-3,-2
1558441258534481,0,0,1,5,7,14,4,0
1558441258534481,-1,-1,1,1,-3,-10,-3,0
1558441258541464,3,1,-1,-2,-3,-7,-3,-1
1558441258541464,1,-3,-3,-5,1,4,-1,-2
1558441258557420,0,1,1,4,2,0,0,0
1558441258557420,-1,-3,-4,-10,-10,-7,-3,-2
1558441258559419,0,1,-4,5,2,5,4,1
1558441258559419,0,0,3,-2,-3,-7,-3,-3
1558441258571384,-1,1,0,3,3,3,2,1
1558441258571384,-2,-2,-1,-3,1,1,-4,-3
1558441258578363,-1,0,3,1,2,-1,2,0
1558441258578363,2,0,-1,1,1,-6,-4,0
1558441258594321,-4,-3,-3,-4,-6,-5,-5,-4
1558441258594321,-2,-2,-1,-3,2,8,4,-1
1558441258601302,-1,-3,1,2,-2,-3,-2,0
1558441258601302,-1,-1,-2,-1,-2,4,-3,-4
1558441258617259,-1,-1,2,-1,7,8,6,4
1558441258617259,-1,1,0,-3,2,3,4,1
1558441258619254,-1,-2,0,0,-5,-6,-6,-3
1558441258619254,-1,-1,-1,-2,0,5,-1,-1
1558441258631222,0,-1,-3,-2,-9,-6,-7,-4
1558441258631222,0,-1,-1,0,0,1,-3,0
1558441258640198,-1,1,1,0,4,0,-1,-3
1558441258640198,-1,-1,-3,-3,-2,1,0,1
1558441258654161,-2,-2,0,3,6,3,3,2
1558441258654161,1,0,5,0,-2,-2,-1,0
1558441258661142,2,0,-2,0,7,-1,5,0
1558441258661142,-2,-1,-5,-2,-2,-6,-4,0
1558441258677099,-3,0,-3,-4,-8,-6,-5,-3
1558441258677099,1,-2,-2,2,3,4,4,-1
1558441258679095,1,0,0,0,0,-1,-7,-1
1558441258679095,-4,-2,-1,-1,-1,8,1,-3
1558441258691062,-1,-1,-2,-2,-3,-6,-2,1
1558441258691062,-2,-1,-1,-1,0,-6,-3,-4
1558441258700038,-1,0,1,1,-3,0,-6,-4
1558441258700038,-2,-5,-2,-7,-17,-11,-11,-5
1558441258714000,0,-1,-7,-2,-1,6,3,0
1558441258714000,1,-2,-1,-2,7,-3,3,3
1558441258720983,-1,0,0,0,7,12,9,3
1558441258720983,0,1,4,-2,-2,-6,1,3
1558441258736939,-2,-3,-5,-3,-11,-16,-7,-5
1558441258736939,0,-2,-3,-1,-3,1,-2,0
1558441258738934,2,-4,-3,-5,-5,-5,-1,-3
1558441258738934,-4,-1,-3,0,0,8,-5,-4
1558441258750902,1,-1,2,-5,-5,-6,3,1
1558441258750902,-1,1,-3,3,5,-1,-2,1
1558441258759879,-2,-2,2,1,-2,-4,0,-1
1558441258759879,1,-3,-5,-6,1,4,0,-1
1558441258773841,-2,-1,7,12,-2,-4,-5,-3
1558441258773841,-1,0,-1,-13,-7,-10,-3,-1
1558441258780827,1,2,4,2,8,11,3,-1
1558441258780827,-2,-1,-9,0,-4,-4,-1,-2
1558441258797779,1,1,4,-1,2,-6,1,1
1558441258797779,-3,-2,-5,3,3,10,1,-1
1558441258798775,-2,-1,-2,-2,-9,-8,-9,-3
1558441258798775,1,0,3,2,5,2,4,2
1558441258810742,-4,-4,-2,-4,-5,-4,-5,-5
1558441258810742,2,3,5,3,2,5,2,0
1558441258819719,-1,-2,-4,-2,-2,-6,1,0
1558441258819719,0,0,2,1,4,3,0,1
1558441258834679,-3,-1,-5,-4,2,-1,-2,1
1558441258834679,-1,-4,-3,-1,-12,-10,-5,-3
1558441258840663,-1,-2,1,-1,2,1,-1,1
1558441258840663,-1,0,1,0,-1,-4,-3,-2
1558441258857617,2,2,0,1,11,7,7,4
1558441258857617,1,-1,1,0,8,9,5,-1
1558441258858622,-2,-3,1,-5,-8,-6,-4,-1
1558441258858622,-1,0,2,1,2,2,-2,-1
1558441258871580,-5,-1,-2,-2,-6,-3,-6,-2
1558441258871580,-3,-1,-2,1,1,0,-1,-2
1558441258879559,-1,-2,-2,2,-4,-5,1,0
1558441258879559,-1,-1,-3,-6,-3,0,-1,1
1558441258894518,-2,-1,-5,-4,-7,-1,-6,-3
1558441258894518,-1,0,3,1,0,2,1,1
1558441258901499,-3,-1,-1,-2,1,-2,-3,-1
1558441258901499,-1,-2,-1,-1,3,-2,-1,-2
1558441258916460,0,0,0,1,2,2,-1,-1
1558441258916460,-2,-4,-3,-5,-5,-8,-4,-4
1558441258923441,0,-2,-1,-1,1,10,5,1
1558441258923441,0,1,2,3,1,0,5,1
1558441258931425,1,-1,-3,-5,2,3,3,1
1558441258931425,-1,0,0,0,-4,-2,-2,1
1558441258940410,-1,0,-1,1,1,-1,-1,-1
1558441258940410,0,-3,-4,1,-8,-3,-4,-3
1558441258954357,-1,0,4,2,3,-3,-2,-1
1558441258954357,0,0,-2,-6,2,-2,6,1
1558441258961339,0,0,-1,-3,0,5,-1,-1
1558441258961339,-1,-4,-5,-3,-5,-3,-5,-3
1558441258977297,1,0,-1,-1,5,10,3,0
1558441258977297,-2,-2,-1,4,-5,-5,-9,-5
1558441258983281,-2,2,-2,-4,-7,-9,1,-2
1558441258983281,-1,1,4,-1,9,11,5,1
1558441258991262,-4,-5,-5,-1,-1,-7,0,0
1558441258991262,-3,0,-2,-2,-4,-5,-2,-2
1558441259000236,-2,-2,-4,-1,-1,2,-4,-3
1558441259000236,-1,0,1,-2,-6,-13,-10,-4
1558441259014206,1,-2,-1,-4,-3,2,1,-2
1558441259014206,3,1,-1,1,7,12,5,3
1558441259021186,-1,1,4,8,-3,-15,-5,-1
1558441259021186,-3,-1,-3,-12,0,11,0,-2
1558441259037136,0,-2,-2,4,-5,-7,-7,-3
1558441259037136,-3,-3,-4,-5,-11,-21,-6,-2
1558441259043122,3,2,5,-1,14,3,9,6
1558441259043122,-1,-2,-3,3,5,4,7,0
1558441259060075,-3,-1,-1,-1,0,-1,-7,-4
1558441259060075,-1,-2,-2,-2,-7,2,-3,-2
1558441259061076,-3,-2,1,-1,-4,4,-3,-3
1558441259061076,-1,0,4,3,5,-2,3,2
1558441259074038,-2,0,-1,-2,-2,2,-3,-1
1558441259074038,1,-1,2,0,6,-2,3,1
1558441259089002,-3,-3,-5,-1,-8,-6,-7,-4
1558441259089002,-2,-3,-12,-14,-3,1,-4,-3
