timestamp,emg1,emg2,emg3,emg4,emg5,emg6,emg7,emg8
1558441326078867,1,0,2,2,3,-2,-2,0
1558441326078867,-1,-1,-1,-4,1,1,1,-6
1558441326078867,-1,-2,-2,1,-1,2,-4,-6
1558441326078867,1,0,-2,-2,-2,0,4,-1
1558441326079863,6,0,2,-6,3,2,-6,0
1558441326079863,-10,-2,-2,3,0,-3,1,0
1558441326080861,-1,-1,2,0,2,-5,-2,3
1558441326080861,-2,-2,-3,-5,-5,1,0,-4
1558441326091833,1,1,-3,0,-2,4,1,-2
1558441326091833,4,1,1,2,0,5,-2,0
1558441326099810,-1,1,-1,-1,5,-5,0,-1
1558441326099810,-3,-5,-2,-1,-2,-7,-4,-4
1558441326123750,3,-1,1,5,0,-9,-3,-1
1558441326123750,-3,0,1,0,3,11,2,0
1558441326124743,-2,-1,-6,-4,-8,-6,-4,-2
1558441326124743,0,1,2,-2,-2,-4,-2,-2
1558441326129730,2,0,-1,4,0,1,4,2
1558441326129730,-1,-3,-3,-6,-2,-1,-3,-2
1558441326136712,2,0,0,-2,-3,0,-2,-3
1558441326136712,-2,-1,-1,3,-1,1,-4,-2
1558441326155660,-4,0,1,4,4,9,0,0
1558441326155660,3,1,-3,-14,-9,-8,2,0
1558441326168626,-16,-8,-6,-1,-1,-5,1,-3
1558441326168626,1,-1,0,-1,4,-1,-6,-1
1558441326169624,-4,-3,-2,0,-10,-8,-2,-5
1558441326169624,2,1,3,-1,-4,-9,-5,-2
1558441326190569,3,0,-4,1,-3,13,-2,-2
1558441326190569,3,-1,0,1,-2,-6,0,3
1558441326191565,-11,-4,-4,-6,9,-1,4,0
1558441326191565,5,1,0,6,4,5,3,5
1558441326197550,-1,1,1,-4,-4,-9,-3,-3
1558441326197550,-4,-3,-3,1,-3,3,-2,-1
1558441326244422,2,-1,-4,-4,-10,-7,-5,-2
1558441326244422,-3,-5,-2,0,-1,5,-1,-2
1558441326244422,3,3,4,1,4,6,4,2
1558441326244422,3,0,2,1,5,5,3,1
1558441326246417,-1,3,2,2,5,-9,5,2
1558441326246417,-7,-4,-6,-4,-4,-5,-5,-5
1558441326250407,2,0,1,3,-6,-3,-3,-2
1558441326250407,-4,-4,-6,-13,-5,2,0,-2
1558441326252402,1,-4,0,-7,-3,4,-6,-3
1558441326252402,0,-2,-2,0,-9,-5,-13,-2
1558441326305260,-5,0,1,6,6,-5,6,0
1558441326305260,0,-1,0,-2,0,2,-2,-1
1558441326306257,-2,-2,-2,-2,1,5,1,-2
1558441326306257,-2,-1,-2,1,-3,5,-2,-3
1558441326356124,2,-1,-2,-6,-9,-5,-3,-1
1558441326356124,-10,-3,-2,-2,1,0,-1,-4
1558441326357121,3,1,0,1,-2,-8,-1,0
1558441326357121,0,-3,-2,-3,-3,-1,0,0
1558441326358119,0,0,1,-2,-3,-8,-3,1
1558441326358119,1,-1,0,2,4,1,1,0
1558441326358119,-3,-1,-2,0,0,0,-6,-4
1558441326358119,0,0,-1,-3,-1,-3,-3,-1
1558441326364103,0,-1,-1,-1,-1,-1,-5,-1
1558441326364103,1,-1,-1,2,-2,0,-1,-3
1558441326365100,1,0,-1,-9,-2,2,6,-1
1558441326365100,0,-2,-4,-5,-6,-11,0,-1
1558441326366098,7,3,-1,2,0,-7,2,-1
1558441326366098,-2,0,0,0,4,1,8,1
1558441326371084,-4,1,-4,-1,-1,2,-2,-3
1558441326371084,-2,-2,-3,-4,-9,0,-5,-5
1558441326393025,-6,-3,-2,-3,0,4,-5,-6
1558441326393025,2,-1,1,0,-1,-1,5,4
1558441326394023,3,-2,1,0,-1,-13,1,4
1558441326394023,2,0,0,1,0,-3,-5,0
1558441326406988,-7,-2,2,11,11,8,-2,1
1558441326406988,-3,-1,-10,-18,-20,-10,-3,-3
1558441326413971,1,0,-1,-1,2,6,2,0
1558441326413971,-4,-4,-1,-4,-1,2,-3,-3
1558441326430924,2,-2,-4,-4,-9,0,-4,-2
1558441326430924,8,2,5,6,1,-14,-1,2
1558441326446908,-9,-3,0,2,5,1,1,1
1558441326446908,6,1,-1,0,1,-1,1,-2
1558441326447880,-5,-3,-3,-6,-6,4,-3,-4
1558441326447880,1,1,2,4,3,-2,3,0
1558441326467826,1,0,-2,-1,10,-1,5,2
1558441326467826,-7,0,0,1,-1,4,-1,-3
1558441326468824,-1,-1,-4,-5,-1,5,4,0
1558441326468824,-6,-4,-1,-2,-12,-1,-12,-7
1558441326473810,4,3,3,1,5,-3,10,7
1558441326473810,-4,0,2,3,3,-4,1,1
1558441326481788,1,-2,2,-3,-3,-6,0,0
1558441326481788,-1,-3,1,5,3,5,-2,-2
1558441326521682,-3,-2,-4,-2,-14,0,-14,-9
1558441326521682,-2,-2,-6,-13,-6,4,-5,-2
1558441326521682,-2,-1,-3,-1,-1,-5,8,4
1558441326521682,10,3,1,3,7,-2,1,5
1558441326523676,-16,-5,2,3,-7,-12,-5,-4
1558441326523676,-2,-1,-5,-11,-3,3,-4,-2
1558441326526668,-1,0,0,-2,-3,-6,-5,-4
1558441326526668,0,-1,-2,-2,3,8,5,2
1558441326542627,2,0,-2,0,2,5,-1,-1
1558441326542627,0,-1,1,3,-2,-6,-5,-4
1558441326543624,-2,0,1,-1,3,-1,1,0
1558441326543624,0,2,-2,-1,-1,-1,-3,0
1558441326556588,1,-2,-3,-5,-3,-9,2,1
1558441326556588,0,0,1,5,1,-1,3,0
1558441326580526,2,-1,-2,-4,1,0,1,1
1558441326580526,-2,-3,-2,-2,-4,-1,-6,-4
1558441326582519,2,0,0,-2,1,4,-4,-2
1558441326582519,-2,-1,-1,-1,-5,-6,-2,-1
1558441326582519,-2,-1,-2,0,7,10,5,2
1558441326582519,-7,-1,-1,2,-6,-16,1,0
1558441326595484,11,3,-2,-3,1,12,3,6
1558441326595484,-8,-5,0,0,-1,-7,2,-3
1558441326610445,-1,-2,-2,-4,-5,0,-1,-4
1558441326610445,-6,-4,-3,0,-4,0,-7,-4
1558441326633383,0,-2,-2,-1,0,1,-4,-2
1558441326633383,4,0,0,0,0,0,4,2
1558441326634381,0,-1,1,-1,-5,-5,-5,-4
1558441326634381,2,0,3,1,7,-10,2,3
1558441326635380,-2,-1,-2,-5,-5,-6,0,-3
1558441326635380,-10,-3,-2,0,-2,2,-2,-3
1558441326638369,-3,-3,-1,1,0,3,-5,-3
1558441326638369,-1,0,-2,-7,-10,0,-4,-2
1558441326686242,0,1,1,-1,-2,-6,-4,-3
1558441326686242,4,0,0,5,4,2,4,3
1558441326687239,0,0,-4,-6,-6,-6,-5,-3
1558441326687239,-3,-1,5,-2,10,11,11,2
1558441326688238,1,0,1,2,2,-5,-2,-1
1558441326688238,-4,-1,2,-3,1,10,-3,-2
1558441326692226,1,0,-3,-4,-14,-17,-4,0
1558441326692226,3,-1,-1,3,10,10,4,0
1558441326694220,-3,-4,-2,-2,-6,1,-7,-7
1558441326694220,1,-1,-3,-5,-8,-7,-6,-4
1558441326699207,0,0,2,0,-1,5,0,0
1558441326699207,0,2,4,7,11,-1,10,5
1558441326715164,-2,-2,-5,-7,-2,2,3,-3
1558441326715164,2,0,0,3,2,-6,-5,-1
1558441326722145,-3,-3,-2,-2,-3,-9,-1,0
1558441326722145,-2,-4,-3,-2,-6,4,-5,-5
1558441326745085,1,0,0,4,-1,3,1,1
1558441326745085,-5,0,3,5,4,0,-2,-1
1558441326746082,2,-1,-1,-2,-2,-1,-1,-1
1558441326746082,-3,0,-4,-6,-3,6,-5,-5
1558441326751070,4,3,3,5,5,2,3,3
1558441326751070,1,-1,-1,0,2,-6,4,3
1558441326774006,1,-1,0,0,0,2,-1,-3
1558441326774006,-5,-4,-5,-3,-7,-5,-7,-4
1558441326806918,0,-1,-2,-2,-7,0,-3,-2
1558441326806918,3,-2,-2,-3,-1,6,3,0
1558441326807916,1,0,1,1,5,-10,4,3
1558441326807916,0,-2,1,1,0,-1,-3,-1
1558441326851798,-3,-1,-3,-5,-7,-4,-1,-4
1558441326851798,0,1,-4,-3,-4,3,4,1
1558441326851798,-5,1,-1,5,6,9,2,0
1558441326851798,-1,-3,-4,-5,-4,-7,-4,-3
1558441326853794,-1,-1,4,5,9,7,0,1
1558441326853794,8,2,0,-2,0,-13,-3,2
1558441326857783,-6,-4,-2,-2,-7,-3,2,0
1558441326857783,-6,-3,0,0,-4,-2,-4,-5
1558441326859777,-4,-3,-2,-6,-8,-2,-6,-5
1558441326859777,1,-1,-3,-1,1,8,2,1
1558441326860775,1,-1,-2,0,4,-6,1,1
1558441326860775,-6,-2,0,-6,-4,-14,-2,-1
1558441326911638,-1,-2,1,0,4,-1,-2,-1
1558441326911638,-1,-1,-2,3,0,7,0,-3
1558441326912636,-1,-2,-3,-8,-2,0,-2,-2
1558441326912636,-1,-2,-6,-2,-7,3,-6,-1
1558441326913633,2,0,2,2,5,4,0,2
1558441326913633,1,-1,-1,-4,-1,-8,-1,2
1558441326918620,0,-2,2,8,2,-2,-2,-1
1558441326918620,-1,-1,-2,-6,-2,-8,-1,-4
1558441326919618,-2,1,3,1,6,7,1,-2
1558441326919618,-1,-1,-3,0,-11,-5,-5,-2
1558441326920615,1,-3,-4,-10,-6,-4,-4,-2
1558441326920615,-15,-7,-5,-3,-6,10,0,-6
1558441326932582,2,1,0,0,-1,5,2,1
1558441326932582,5,2,2,0,11,-2,5,6
1558441326933580,-7,-3,-5,-2,-9,-12,-8,1
1558441326933580,2,0,-1,0,3,2,1,-1
1558441326946545,0,-1,-3,-4,-7,-14,-1,0
1558441326946545,-2,-1,2,-1,-2,5,-4,-2
1558441326961505,1,0,0,-1,0,5,5,1
1558441326961505,2,0,1,1,-2,5,-2,-2
1558441326962502,1,-2,-3,1,1,2,1,0
1558441326962502,-5,-2,-3,-11,-4,-6,4,0
1558441326976472,2,1,-1,6,4,-10,-1,1
1558441326976472,-2,-1,1,-5,0,0,2,0
1558441326984448,-1,-3,-5,-6,-6,-1,-3,-3
1558441326984448,1,-3,-3,-3,-12,-6,-11,-5
1558441326991426,0,0,1,4,12,25,13,0
1558441326991426,0,1,0,0,4,-9,-5,2
1558441327023342,1,0,0,-2,4,-1,5,5
1558441327023342,7,-2,-2,0,-6,-4,-7,-5
1558441327024337,-21,-5,-2,-1,4,7,0,-3
1558441327024337,3,-1,-1,3,0,2,-1,-3
1558441327025335,0,-2,1,-3,-3,-1,-6,-2
1558441327025335,2,1,1,1,-1,-3,-4,-1
1558441327036306,0,-3,-2,-6,-4,1,0,-2
1558441327036306,-1,-2,2,1,-1,1,1,0
1558441327044284,-7,-3,-4,-2,-5,-8,-6,-5
1558441327044284,-2,-1,0,-3,7,8,9,0
1558441327051265,2,-1,-3,-1,3,2,-2,-4
1558441327051265,-1,0,1,0,1,-3,0,2
1558441327075203,1,1,0,-1,2,6,5,1
1558441327075203,-1,-3,-3,3,-4,-7,-4,-1
1558441327076202,-9,-1,2,1,1,-4,2,0
1558441327076202,1,0,-2,-3,0,1,2,-3
1558441327081189,0,-1,2,-4,-6,-3,-3,-3
1558441327081189,-3,-1,-2,-1,-5,-9,0,0
1558441327096146,3,1,0,-3,-4,-1,-2,0
1558441327096146,2,1,-2,-1,0,0,4,2
1558441327104124,-2,-2,1,0,4,-3,-4,0
1558441327104124,7,1,1,-4,-3,-3,-4,0
1558441327111106,-14,-7,-4,-6,-7,-7,-1,-3
1558441327111106,1,0,2,5,4,4,-2,-1
1558441327127063,-1,-2,-2,1,-1,6,-5,-4
1558441327127063,-2,1,0,-2,2,-1,2,1
1558441327134043,5,0,-2,-4,-5,-8,-3,-1
1558441327134043,-3,-3,-1,-2,-7,-5,-3,-1
1558441327141024,-4,0,3,4,13,10,10,3
1558441327141024,-1,-1,0,1,2,8,0,-2
1558441327155986,0,-1,-2,-2,-6,-1,-8,-5
1558441327155986,-4,-2,-3,-2,-5,-4,-2,-3
1558441327163963,4,1,1,-2,0,-11,0,0
1558441327163963,-6,-1,0,2,-2,1,-2,-2
1558441327187899,4,-1,0,-2,-5,-5,-2,0
1558441327187899,-1,-4,-3,-1,0,2,-4,-1
1558441327188901,-1,-2,-2,-3,-3,5,5,-3
1558441327188901,-4,-3,1,7,4,10,2,2
1558441327193894,6,0,1,-5,-3,-16,-5,1
1558441327193894,-5,1,0,-2,1,-1,-2,-1
1558441327200866,-1,-2,-2,1,-6,-9,-7,-3
1558441327200866,2,1,-1,-5,2,0,-1,0
1558441327215826,-2,-1,2,0,1,13,3,-1
1558441327215826,0,-1,-3,3,-3,-7,-1,-1
1558441327225048,-3,-1,-1,1,-5,-5,-6,-3
1558441327225048,-2,-4,-2,-4,-1,-4,-3,-2
1558441327238998,2,1,-1,2,-4,-3,1,-1
1558441327238998,2,1,4,2,10,10,5,2
1558441327246978,0,0,3,2,-1,4,5,1
1558441327246978,0,-1,-2,-2,-3,-11,-2,0
1558441327261897,-3,-1,-3,-7,-5,-4,0,0
1558441327261897,-1,-1,-2,3,4,5,3,-1
1558441327262701,-1,-3,-9,-9,-10,-8,-6,-4
1558441327262701,-3,0,3,-1,-2,-4,-4,-2
1558441327277702,0,1,1,5,6,3,2,0
1558441327277702,-1,0,4,-2,1,-3,1,1
1558441327300600,0,0,-1,1,7,10,1,1
1558441327300600,-3,-3,-7,-9,-11,1,-6,-5
1558441327301597,-2,-2,-1,0,2,0,-2,-1
1558441327301597,3,-2,-1,-2,-1,0,-5,-2
1558441327306583,-3,-1,1,1,2,-4,3,0
1558441327306583,-3,-1,-1,2,2,2,0,0
1558441327321543,-1,-1,-1,-4,2,2,-3,-2
1558441327321543,-1,-2,-2,-5,-5,-2,-3,-1
1558441327322541,0,0,-2,-1,-3,-12,-2,1
1558441327322541,7,3,0,7,2,4,-1,-2
1558441327344482,-11,-4,-2,-4,-7,-7,-3,-2
1558441327344482,2,0,-2,0,1,-10,0,-4
1558441327352460,-5,-3,-1,-7,-4,3,-3,-2
1558441327352460,-3,-1,1,0,-5,-3,2,0
1558441327358455,2,-1,-2,1,-4,-10,-6,0
1558441327358455,0,1,0,0,6,19,5,1
1558441327374581,-1,0,0,2,-3,-7,-2,-3
1558441327374581,-4,-4,-3,-7,3,6,1,-2
1558441327382381,-5,-2,-3,-4,-7,-2,0,-2
1558441327382381,-3,1,-2,1,-4,-13,-5,0
1558441327382381,1,-1,-3,-1,3,5,-3,1
1558441327382381,-2,0,0,-1,-1,-2,3,-1
1558441327405318,2,-1,-1,1,1,0,-5,-3
1558441327405318,-2,-3,-2,-2,-6,-5,-8,-1
1558441327405318,1,-1,-1,0,-1,-15,2,2
1558441327405318,1,1,2,4,4,1,3,-1
1558441327427259,2,0,0,-3,-1,-1,1,-1
1558441327427259,-2,-1,-2,-2,-3,-3,-2,-1
1558441327428256,0,-2,-1,1,3,17,0,0
1558441327428256,-3,-2,-2,-4,-6,-10,0,-2
1558441327442247,3,1,2,3,8,13,4,2
1558441327442247,2,3,6,8,3,-3,5,2
1558441327442247,3,-3,-8,-5,-12,-13,-9,-4
1558441327442247,-4,0,3,-3,2,9,0,0
1558441327466157,3,1,-4,0,1,6,3,1
1558441327466157,-4,-3,-2,-4,-8,0,-7,-4
1558441327467153,5,1,0,1,1,4,1,-1
1558441327467153,-2,-1,-2,4,9,-4,0,-2
1558441327488096,1,-1,0,0,-4,-18,-1,1
1558441327488096,5,0,1,2,3,6,3,0
1558441327488096,-12,-4,-3,-10,-9,-6,-4,-5
1558441327488096,-2,-4,-4,-2,-5,4,-6,-6
1558441327502396,0,0,0,0,1,0,-3,-1
1558441327502396,0,-3,-5,-6,-8,-6,-6,-2
1558441327503058,-1,0,-2,2,0,3,0,0
1558441327503058,-1,0,-3,-1,-3,0,-7,-1
1558441327518047,2,0,-1,3,8,5,9,4
1558441327518047,-2,-1,3,3,-2,-9,-2,-2
1558441327524998,-2,0,-2,-2,2,-4,1,-2
1558441327524998,1,-1,-1,-2,-2,0,0,-2
1558441327538964,-1,-2,-3,-2,-6,-3,-4,-5
1558441327538964,-3,-3,-3,-4,-4,2,-6,-4
1558441327546944,-4,-2,-1,4,4,5,3,1
1558441327546944,-2,-2,-2,-8,-5,-3,-1,0
1558441327578855,0,0,4,11,12,8,4,2
1558441327578855,-1,-1,-5,-6,-9,-18,-4,0
1558441327578855,2,2,2,0,2,7,2,-1
1558441327578855,-1,0,1,2,-3,-1,-2,-1
1558441327580851,-2,-2,-1,-5,-9,-2,-3,-4
1558441327580851,0,2,0,2,5,7,4,-1
1558441327584843,-2,-3,-2,-10,-2,-2,-6,-4
1558441327584843,0,0,-1,-1,-4,-2,2,3
1558441327598843,4,-1,1,0,-1,-1,-3,-1
1558441327598843,-8,-2,-4,-9,-11,-13,-3,-2
1558441327606897,2,3,1,2,5,5,2,0
1558441327606897,-1,-1,-2,1,8,1,1,2
1558441327630784,4,1,-2,-5,1,-2,-1,-1
1558441327630784,0,-2,5,5,-4,1,-1,-3
1558441327630784,1,-1,-2,-3,-10,-4,-5,-4
1558441327630784,-1,-1,-4,-3,-3,-5,-4,-2
1558441327636912,0,0,1,2,7,8,3,2
1558441327636912,2,1,-3,2,3,8,4,3
1558441327652658,-5,-2,0,1,-4,-7,-2,-4
1558441327652658,2,-1,-1,2,-3,4,1,1
1558441327658675,-7,-2,-3,-4,-12,-8,-8,-5
1558441327658675,1,-1,0,2,7,5,-2,-1
1558441327666622,1,0,-2,-8,0,8,0,1
1558441327666622,-1,-3,1,2,4,-5,-3,0
1558441327681579,2,1,-1,-3,4,0,6,3
1558441327681579,-7,-4,-2,-4,-5,-8,-5,-4
1558441327682576,-1,-1,-2,5,-9,-12,-8,-4
1558441327682576,8,2,-1,-3,9,16,7,3
1558441327705805,-16,-7,-7,-6,-11,-11,-5,-6
1558441327705805,2,3,5,5,8,-3,-2,1
1558441327705805,-1,-1,-4,-8,-9,-7,1,2
1558441327705805,-5,-2,-1,1,-4,-6,-1,-1
1558441327718748,2,-1,0,1,5,9,4,-1
1558441327718748,2,0,-5,-1,-2,0,2,-1
1558441327743416,-1,0,4,7,3,5,3,0
1558441327743416,0,-1,-3,0,-2,2,-4,-4
1558441327744412,0,-1,-1,-1,-5,-6,-8,-3
1558441327744412,1,-5,-8,-6,-8,-3,5,-1
1558441327745408,1,0,2,3,7,-8,1,3
1558441327745408,-3,0,-2,3,-2,-6,0,-2
1558441327765386,1,3,1,-3,5,10,3,1
1558441327765386,-5,-2,0,-3,4,6,2,1
1558441327765386,1,0,1,4,4,-1,3,2
1558441327765386,-5,-2,0,-2,-2,2,0,-2
1558441327778319,1,-1,-2,-2,-12,-15,-6,-3
1558441327778319,8,1,-1,-10,-7,2,-7,-1
1558441327794739,-14,-4,0,5,12,17,4,-3
1558441327794739,-1,-3,-3,-2,-8,-3,0,-1
1558441327801669,2,-3,-5,-8,-4,1,-1,-1
1558441327801669,9,5,2,2,5,-11,4,3
1558441327817227,-5,-4,1,1,1,3,-1,-1
1558441327817227,-1,-1,-3,-4,-4,-4,-2,0
1558441327819256,-1,1,6,12,9,7,-1,-1
1558441327819256,-8,-5,-3,-5,-8,1,-3,-5
1558441327825306,2,0,-6,-3,-6,-6,-7,-2
1558441327825306,-5,-2,-4,-2,-5,-10,-7,-4
1558441327839243,0,2,1,3,5,9,4,-1
1558441327839243,-2,-1,1,5,7,5,-1,0
1558441327855239,0,-2,0,1,-6,-6,-3,-1
1558441327855239,1,1,2,-6,4,1,2,1
1558441327861340,-1,-1,-3,-2,-4,-9,0,3
1558441327861340,-1,-1,-4,-2,-7,-2,-4,-5
1558441327878276,2,-3,-4,-5,-6,5,0,0
1558441327878276,4,0,3,4,6,-1,4,4
1558441327879056,-6,-1,-2,-10,-3,0,1,1
1558441327879056,0,1,3,1,6,5,4,1
1558441327884041,-1,-3,-7,-4,-9,-9,-2,-4
1558441327884041,-1,-1,-4,0,1,-5,-4,-1
1558441327908175,-2,-3,0,-2,-1,2,-5,-7
1558441327908175,-5,-4,-5,1,-2,2,0,-2
1558441327908984,7,1,2,-3,-3,-7,1,0
1558441327908984,-2,-1,-3,-4,4,10,2,-1
1558441327921980,-2,-1,-1,2,-4,-10,-2,1
1558441327921980,0,-1,-3,-4,-3,-5,-3,-1
1558441327930147,-2,1,0,6,10,11,7,1
1558441327930147,-3,-2,2,1,-1,5,-2,0
1558441327936962,-3,-4,-3,-1,-1,-6,3,1
1558441327936962,0,0,-3,-2,0,-6,-1,1
1558441327944878,1,-1,0,0,3,-2,1,2
1558441327944878,7,0,-3,-5,-6,-8,-2,0
1558441327958842,-16,-4,-3,-1,-2,-4,-6,-4
1558441327958842,0,-3,-4,-7,-5,-3,-8,-3
1558441327967814,-6,-5,-2,0,1,7,-4,-5
1558441327967814,-4,-1,-1,-6,-13,-9,-1,-2
1558441327980778,7,0,4,5,7,-5,8,7
1558441327980778,0,2,-2,-5,-1,-4,4,3
1558441327991074,-2,2,0,0,0,-5,-3,-2
1558441327991074,1,-1,-3,-3,0,10,0,-2
1558441328005094,1,-2,-1,2,-3,-1,-5,-1
1558441328005094,-1,-1,3,4,0,6,0,-1
1558441328006709,1,1,1,-5,1,3,-1,-1
1558441328006709,-2,0,-1,1,0,-13,-4,-2
1558441328018676,-1,1,-2,-3,-5,1,-4,-5
1558441328018676,1,-1,1,-3,-6,-4,2,1
1558441328027758,3,0,2,4,3,0,-4,-2
1558441328027758,-3,-4,0,-4,-5,-12,-4,0
1558441328041980,1,2,-1,2,0,-1,-4,-3
1558441328041980,-5,0,-3,-1,5,4,-1,-2
1558441328049595,-2,-3,-5,-4,-7,-5,-1,-1
1558441328049595,-1,-1,0,0,3,8,-4,-2
1558441328065663,0,-2,0,-1,-5,-8,2,1
1558441328065663,-3,-4,-2,0,1,-1,-4,-3
1558441328066550,6,1,-1,-3,1,-4,1,1
1558441328066550,-6,-3,-4,-6,-4,6,2,-1
1558441328079530,0,-3,-4,-3,-8,0,-7,-4
1558441328079530,-1,-2,-2,-1,-5,-5,0,-1
1558441328095477,0,0,2,3,4,3,1,2
1558441328095477,-1,1,1,1,-5,-9,-7,-3
1558441328101737,-1,1,1,-5,3,-3,2,3
1558441328101737,0,1,1,0,0,4,1,0
1558441328110680,5,2,1,4,10,10,6,4
1558441328110680,-19,-6,-6,-7,-6,6,-1,-6
1558441328125632,0,-2,0,2,0,-6,0,-2
1558441328125632,-2,0,-1,3,6,7,-5,-3
1558441328126394,-5,-2,-4,-8,-15,-15,-6,-2
1558441328126394,2,0,2,3,5,2,0,1
1558441328139522,6,1,0,0,1,0,3,0
1558441328139522,-3,-3,0,-1,-1,-1,2,-1
1558441328147576,-1,-2,-2,0,-1,-2,-4,-1
1558441328147576,9,0,2,1,3,4,0,1
1558441328161328,-16,-5,-6,-3,-4,1,-6,-5
1558441328161328,-1,0,0,2,-2,-11,0,0
1558441328170273,0,0,-4,-10,-3,-2,1,-2
1558441328170273,3,0,2,13,0,-5,2,2
1558441328184235,3,1,2,-5,0,5,3,3
1558441328184235,-1,1,-1,-1,4,0,2,1
1558441328191216,-3,-1,1,-2,-5,-6,-5,0
1558441328191216,-1,-3,-4,2,-4,-8,-1,-1
1558441328207173,4,-1,-1,0,-2,5,-1,-2
1558441328207173,-8,-2,-1,5,5,6,2,-2
1558441328209168,0,1,-3,-7,-12,-3,-6,-7
1558441328209168,-2,-1,3,-3,0,1,-4,-3
1558441328221134,7,0,0,2,8,-7,4,5
1558441328221134,-5,-1,0,-3,-4,-3,0,-3
1558441328230111,-4,-3,1,8,10,17,6,1
1558441328230111,-3,0,-2,-5,-4,-3,-2,-4
1558441328244075,0,-2,-4,-2,-6,-2,-5,-1
1558441328244075,7,1,1,0,7,15,5,2
1558441328268362,-15,-3,-4,-4,-6,-22,-5,-3
1558441328268362,1,2,1,1,4,2,1,1
1558441328269008,2,-1,-3,-1,-2,0,-4,-1
1558441328269008,-1,-3,-5,-5,-11,0,-6,-2
1558441328270006,1,-1,2,1,6,10,1,0
1558441328270006,3,-2,-3,-3,2,-2,4,4
1558441328282010,-4,1,2,8,7,5,-1,-2
1558441328282010,-3,-1,-3,-3,1,0,-4,-1
1558441328297052,3,0,2,-4,-3,6,9,4
1558441328297052,-3,-2,-2,0,-4,-6,-5,-2
1558441328305275,-1,-2,-2,2,-4,2,-4,-3
1558441328305275,-3,-3,0,-11,-8,-18,-3,-2
1558441328311976,2,-2,-2,-4,-3,-12,0,-2
1558441328311976,1,0,2,3,7,6,-1,-4
1558441328318889,-5,-3,-3,-4,-10,-1,0,-2
1558441328318889,1,-1,-2,2,-2,2,-11,-4
1558441328327851,-2,-3,-3,-1,1,0,-3,-2
1558441328327851,2,2,1,-3,2,-7,10,6
1558441328349794,0,-2,0,2,1,-2,-2,2
1558441328349794,8,0,-2,-4,-8,-4,-1,4
1558441328351787,-10,-4,-7,0,-2,-1,-6,-4
1558441328351787,0,-3,-1,-4,0,7,1,1
1558441328380920,0,-1,1,1,5,3,3,0
1558441328380920,2,1,-1,0,-1,-12,3,-1
1558441328381720,2,0,2,1,-4,4,-3,-2
1558441328381720,1,0,-2,-4,-8,-2,-1,-2
1558441328382709,-8,-3,-5,-9,-4,-8,-3,-3
1558441328382709,-3,-1,-3,-1,-4,-2,-3,-4
1558441328387692,2,-2,-2,0,0,1,0,0
1558441328387692,2,1,1,3,3,-2,2,5
1558441328401685,-5,-2,-1,-4,-5,-12,-7,-7
1558441328401685,0,-2,-2,0,4,7,7,3
1558441328410633,-3,-1,-2,-4,-7,-5,-5,-4
1558441328410633,0,0,-2,3,-2,3,-5,-4
1558441328423945,3,1,1,2,4,1,-1,-2
1558441328423945,-5,-2,0,-4,-2,-8,-6,-3
1558441328432569,1,0,2,3,-2,-10,-1,0
1558441328432569,-1,-3,-5,-8,0,3,2,-1
1558441328438883,-1,-1,-4,-1,-3,0,0,-1
1558441328438883,-5,-4,-3,0,1,7,-3,-2
1558441328463490,-1,-1,-1,0,-7,-3,-4,-2
1558441328463490,2,0,0,3,-1,-2,1,-3
1558441328464484,6,1,1,-3,-4,-9,0,1
1558441328464484,-5,-2,-1,5,4,9,0,2
1558441328470471,1,-2,0,-3,2,-1,-1,-1
1558441328470471,-4,-5,0,0,-1,1,-3,-4
1558441328483437,1,2,0,-1,-1,7,2,0
1558441328483437,-1,-1,0,-3,-7,-5,-3,-3
1558441328492411,0,0,-3,1,2,6,4,2
1558441328492411,-1,1,2,1,4,-2,-2,-3
1558441328498428,-4,-3,-2,-8,-14,-11,-2,0
1558441328498428,-4,-3,-2,2,1,-7,-5,-4
1558441328522335,0,1,4,5,9,4,8,4
1558441328522335,0,1,-2,-2,-3,-2,-5,-3
1558441328522335,1,-2,-5,-2,-2,9,-5,-2
1558441328522335,2,0,1,0,2,-3,2,3
1558441328530367,0,0,1,2,-4,-5,-3,-1
1558441328530367,-1,-1,-1,2,-5,-4,-7,-1
1558441328543333,-12,-2,1,3,12,9,2,0
1558441328543333,2,1,-2,-3,-5,-15,3,1
1558441328552311,3,2,2,1,6,8,5,3
1558441328552311,-3,-3,-2,-1,-9,-2,-5,-3
1558441328575189,-2,-2,-2,-3,-6,-15,0,-1
1558441328575189,0,1,0,0,5,6,2,3
1558441328576186,4,-1,-1,0,1,-6,-7,2
1558441328576186,-6,-2,1,-1,3,6,3,0
1558441328581230,1,0,-1,9,7,15,3,1
1558441328581230,-2,-1,-2,-11,-7,3,4,-2
1558441328591146,-3,0,-3,-2,-3,-9,-2,-3
1558441328591146,1,1,0,-1,3,3,-4,0
1558441328604146,0,-3,-3,-5,-6,-5,1,-1
1558441328604146,3,1,-3,0,4,-3,-2,1
1558441328630097,0,-3,0,-3,-6,-2,-4,-3
1558441328630097,-2,-2,-2,1,-1,0,-9,-2
1558441328630097,0,0,-3,-6,-6,1,-2,-2
1558441328630097,0,-1,-3,1,-3,-1,2,-1
1558441328634033,-2,2,2,1,3,-2,6,0
1558441328634033,-3,-1,-3,-11,-3,-4,1,1
1558441328649987,8,1,0,4,5,1,-2,0
1558441328649987,-9,-6,-3,-2,-9,3,-8,-6
1558441328651984,-9,-7,-2,-7,-5,-3,0,-2
1558441328651984,0,3,0,6,13,11,12,3
1558441328663950,1,0,0,-7,-6,-8,-6,-3
1558441328663950,1,-3,-1,2,-2,2,-1,-1
1558441328689883,2,0,-4,3,5,7,1,0
1558441328689883,3,-3,-2,-5,-8,-3,-4,-2
1558441328689883,-13,-5,0,1,-1,6,-2,-6
1558441328689883,2,0,2,0,-1,-11,-3,0
1558441328693870,-2,0,-1,0,-3,-8,-6,-3
1558441328693870,1,-1,-2,5,4,-3,5,1
1558441328700852,4,0,0,-11,-6,-1,1,-1
1558441328700852,1,0,2,6,2,-8,-1,-1
1558441328709829,-8,-4,-2,-6,-6,6,-2,-9
1558441328709829,-1,-2,-2,0,1,3,-2,-1
1558441328740746,-4,0,1,3,5,-1,-2,2
1558441328740746,-1,-1,-4,-2,-2,9,2,-1
1558441328741742,2,0,-1,-1,-2,-10,-3,-1
1558441328741742,-1,-2,0,-3,-4,-7,4,-1
1558441328742739,6,1,-2,-2,-2,-1,1,5
1558441328742739,-1,1,0,2,3,0,-1,-2
1558441328747728,1,0,1,7,7,0,1,1
1558441328747728,-4,-1,-2,1,-5,-9,-6,-5
1558441328761689,5,2,6,6,8,4,4,4
1558441328761689,-1,-2,-2,-3,-4,2,-2,-2
1558441328769709,-4,-2,-5,-9,-4,5,-1,-3
1558441328769709,0,-1,-3,1,-5,2,-3,-2
1558441328791609,-5,-3,-3,-5,-7,-15,-3,-4
1558441328791609,4,1,1,-3,0,-6,-4,2
1558441328800586,0,-3,-1,0,-3,-5,-8,-1
1558441328800586,3,2,2,0,5,3,6,4
1558441328801583,-13,-5,-6,-2,2,2,3,-2
1558441328801583,-2,-2,0,2,0,0,-7,-6
1558441328807566,4,1,2,8,6,6,1,2
1558441328807566,-3,-5,-8,-16,-21,-11,-8,-3
1558441328821556,3,0,2,4,3,4,-1,-1
1558441328821556,2,0,3,-1,7,-3,7,5
1558441328830504,1,0,-4,-4,-1,0,0,0
1558441328830504,-8,0,2,6,5,5,1,0
1558441328843471,-2,0,-3,-5,-10,-9,-5,-4
1558441328843471,-1,-2,-2,-2,0,4,-1,-3
1558441328852446,7,-2,-2,-4,-7,-5,-1,2
1558441328852446,-6,-2,1,0,0,-11,-1,-2
1558441328858469,-3,-4,-9,-3,-10,-11,-7,-2
1558441328858469,-3,-1,-1,2,7,12,5,-1
1558441328867406,1,-1,2,4,3,-5,-4,1
1558441328867406,2,-2,-2,-6,-8,-8,-2,0
1558441328890346,-3,0,1,0,3,0,0,-1
1558441328890346,-2,-1,-5,-3,-10,-5,-8,-5
1558441328891342,-5,0,1,1,3,8,7,1
1558441328891342,0,2,2,2,9,4,-2,-1
1558441328903345,3,-2,0,-1,2,-2,0,0
1558441328903345,-3,-3,-3,2,-8,1,-7,-5
1558441328912285,-3,-1,-3,-9,0,4,1,-1
1558441328912285,-6,-2,-3,-2,0,-3,1,-3
1558441328927286,2,2,1,0,3,-1,-6,-1
1558441328927286,-3,-3,-4,-4,-6,-8,-1,-1
1558441328929281,-1,-2,-1,4,2,7,2,-1
1558441328929281,4,-1,1,0,3,-5,4,2
1558441328941208,6,-3,-3,0,-4,0,-3,-3
1558441328941208,-9,-2,-1,-2,0,2,6,-1
1558441328950187,-2,-1,-5,-8,-3,0,-2,-2
1558441328950187,0,1,4,3,4,4,1,2
1558441328964148,1,0,-2,0,-2,0,-3,-1
1558441328964148,1,-1,2,0,-7,-12,-8,0
1558441328973179,-1,0,-5,-8,-14,-20,-8,-3
1558441328973179,-3,-3,-4,3,3,11,2,1
1558441328987085,0,1,3,0,4,-3,4,-1
1558441328987085,-1,-1,-2,-8,-3,5,0,-1
1558441328989083,-1,0,0,-2,-2,-3,-1,-1
1558441328989083,-3,1,2,2,1,4,-3,-1
1558441329001076,-6,-3,-7,-6,-5,-1,-3,-4
1558441329001076,4,2,9,10,8,6,6,4
1558441329018004,-5,-3,-1,-6,-6,-3,-1,-2
1558441329018004,-1,-2,-4,-5,-8,-11,-7,-5
1558441329023987,2,2,4,1,8,8,7,3
1558441329023987,-3,0,-3,0,2,1,2,0
1558441329032963,-1,0,1,4,4,-4,-1,-1
1558441329032963,-1,-2,-5,-5,-4,-1,-6,-4
1558441329047923,2,-2,-2,-3,2,10,1,1
1558441329047923,-10,-3,-6,-4,-4,-11,-2,-5
1558441329048921,3,-1,4,8,3,-1,-1,-1
1558441329048921,9,0,-4,-8,-8,-1,-3,-1
1558441329069864,-20,-5,-4,5,0,-7,-7,-5
1558441329069864,3,-1,-5,-9,-6,1,-5,-2
1558441329071859,-3,1,0,1,8,3,1,1
1558441329071859,-3,-2,-1,-1,-9,-10,0,0
1558441329083827,6,1,-3,-2,-4,-8,-4,-2
1558441329083827,3,-1,1,2,4,1,4,0
1558441329092804,-4,-1,-2,-5,-7,2,-3,-3
1558441329092804,3,0,-1,4,3,0,2,1
1558441329107762,-1,-1,2,-3,3,-7,0,3
1558441329107762,0,0,-3,2,-2,-6,-2,2
1558441329108760,0,-3,-2,-1,0,8,-2,-3
1558441329108760,-7,-2,-2,1,-1,7,-3,-5
1558441329120728,6,3,2,1,-3,1,-3,-1
1558441329120728,-1,-1,-2,-3,-1,2,1,-1
1558441329129744,0,-2,0,-2,0,-7,0,2
1558441329129744,-4,-1,-5,-2,-2,2,5,1
1558441329143708,0,1,0,11,6,-1,-2,0
1558441329143708,-3,-1,3,-13,-6,2,0,-2
1558441329152644,-4,-4,-5,-5,-7,-5,1,0
1558441329152644,2,-1,0,4,5,4,0,1
1558441329183562,1,0,-2,-3,-1,4,4,1
1558441329183562,6,-2,-4,2,-4,-11,-7,0
1558441329184559,-8,-3,-1,4,3,5,2,-3
1558441329184559,2,1,2,-7,-3,-2,-1,-2
1558441329185555,-5,-4,-3,-1,-3,1,2,-2
1558441329185555,2,0,2,-4,-2,-5,-5,-4
1558441329190603,2,1,-3,4,1,-1,0,0
1558441329190603,0,-2,0,-2,5,-5,-2,1
1558441329203507,-2,-1,1,-4,-9,-2,-1,-3
1558441329203507,1,-1,-3,-3,3,6,2,1
1558441329212484,-7,-2,1,-3,-1,3,-3,-3
1558441329212484,-5,-2,1,-2,-1,-4,0,-2
1558441329227446,0,-1,0,1,2,-2,-4,-3
1558441329227446,-3,0,-3,-1,-6,1,1,-1
1558441329229438,2,-2,0,-1,-5,-5,-3,0
1558441329229438,0,0,0,0,3,12,3,0
1558441329241406,-5,-2,-2,-1,-2,-7,-2,2
1558441329241406,8,3,3,12,11,4,2,3
1558441329250382,4,1,-5,-12,-3,1,3,2
1558441329250382,0,-1,1,-1,-8,-11,-8,-7
1558441329263346,-3,-5,-4,-10,-8,-1,-8,-4
1558441329263346,-6,-1,1,7,8,5,13,4
1558441329272323,0,-1,-4,-3,-8,-13,-9,-2
1558441329272323,2,0,1,0,-1,7,2,5
1558441329295265,0,-3,1,-3,-6,-9,-7,-4
1558441329295265,-5,-4,-6,-8,-1,6,1,-3
1558441329296259,1,1,6,1,1,0,-2,-2
1558441329296259,-3,-1,-3,7,6,-5,0,0
1558441329301246,1,-1,-3,-10,-14,-10,0,0
1558441329301246,0,-1,-2,-2,-3,-7,-9,-5
1558441329317203,0,-1,-3,2,1,0,0,1
1558441329317203,-6,-4,-2,-2,-7,-2,-4,-4
1558441329340147,0,0,3,3,5,9,4,1
1558441329340147,0,0,-2,-2,1,-3,0,-1
1558441329356270,0,-2,1,-2,0,1,0,-2
1558441329356270,-2,-4,-5,-4,-9,-11,-8,-3
1558441329356270,-2,-2,-4,-1,-2,-8,0,0
1558441329356270,-2,-1,-2,-11,2,7,2,3
1558441329358095,-1,-1,1,5,0,-1,-3,-3
1558441329358095,-4,-1,-3,-4,-2,0,6,4
1558441329371240,3,1,-1,-3,-1,6,1,-1
1558441329371240,0,-2,1,8,6,7,-2,0
1558441329372057,2,0,0,-1,6,6,5,2
1558441329372057,2,0,2,-5,1,-11,-3,1
1558441329400000,-1,-2,0,1,-5,4,-1,1
1558441329400000,-2,-1,1,0,-5,-2,-4,-5
1558441329400979,-2,-3,-2,-1,-3,2,2,-5
1558441329400979,11,2,-2,-4,-5,-5,-5,-2
1558441329407961,-22,-3,4,12,15,12,9,1
1558441329407961,3,2,2,1,-1,-8,-5,3
1558441329408958,-3,-3,-7,-13,-12,-3,-7,-2
1558441329408958,-1,-1,-2,-3,3,9,3,0
1558441329420926,4,0,-3,0,4,3,1,1
1558441329420926,-5,-2,-1,1,-9,-6,-5,-3
1558441329429901,-6,-3,-3,2,-1,1,0,-1
1558441329429901,1,2,2,2,4,0,-3,-2
1558441329443865,4,1,-3,-8,-8,-10,0,-1
1558441329443865,3,1,1,2,5,-4,10,2
1558441329452841,-1,0,1,5,4,4,1,1
1558441329452841,-5,-2,0,4,4,2,-4,-3
1558441329467801,3,2,2,-1,-4,-11,-5,-2
1558441329467801,-1,-1,-3,-4,-3,-2,-9,-5
1558441329468799,0,-6,-7,-13,-12,-11,-7,-3
1558441329468799,-2,0,2,8,11,8,14,7
1558441329480766,-1,-2,0,-3,1,-1,-4,-1
1558441329480766,1,1,-3,0,-4,4,-1,1
1558441329489799,1,0,-1,-1,2,-6,-1,-2
1558441329489799,-5,-4,-2,-5,-6,-6,-5,-4
1558441329503731,6,3,4,1,7,5,5,2
1558441329503731,-1,-3,-1,0,-3,0,-5,-2
1558441329512681,-4,0,1,9,2,-5,0,0
1558441329512681,-1,-2,-4,-7,-9,-12,-4,-1
1558441329527681,2,-2,-1,3,4,1,2,0
1558441329527681,-4,-3,-2,-6,-5,-5,-3,-1
1558441329528673,0,0,0,2,-5,6,-5,-4
1558441329528673,-2,-3,-3,1,0,-10,-4,-2
1558441329541642,-1,0,-2,-1,2,3,2,-1
1558441329541642,0,-2,-3,2,-1,7,4,0
1558441329557559,2,0,-5,-10,0,-7,-2,2
1558441329557559,-4,0,0,5,1,3,-3,-3
1558441329563545,-3,-3,-3,-5,-6,3,-4,-3
1558441329563545,-2,-4,-2,-4,3,-7,2,0
1558441329572519,3,0,-2,-4,-8,-8,-3,1
1558441329572519,-13,-3,0,-2,-2,4,-1,-4
1558441329587526,1,-1,-2,1,-1,-1,-3,-3
1558441329587526,-1,-1,-2,0,-2,-3,0,-2
1558441329593465,1,-1,4,3,3,0,-1,-1
1558441329593465,5,-2,-3,-5,-3,0,1,2
1558441329601442,-1,-2,-3,-1,-1,-2,1,0
1558441329601442,-3,-1,-2,0,-3,-7,1,-1
1558441329610418,-2,0,0,-1,-3,-7,-5,-3
1558441329610418,-1,-1,0,-1,2,12,3,1
1558441329623435,-3,0,0,6,2,-2,-2,0
1558441329623435,1,3,3,-4,0,-1,-6,-3
1558441329632360,2,2,-3,-4,8,8,12,4
1558441329632360,-1,-4,-2,-3,-6,-5,-4,-3
1558441329647319,3,-1,1,0,-1,-4,0,2
1558441329647319,1,-2,2,0,1,-7,-7,1
1558441329653332,-19,-5,-2,0,-1,7,-2,-5
1558441329653332,1,1,4,2,-1,-2,1,0
1558441329661284,1,0,1,0,4,12,7,-1
1558441329661284,-1,-1,0,1,-2,-2,-3,-4
1558441329670260,4,0,2,2,-2,-7,2,3
1558441329670260,3,1,-3,-6,-7,0,-1,-1
1558441329683226,-6,-5,-4,-7,-6,-3,-9,-5
1558441329683226,0,2,3,3,7,6,6,2
1558441329692199,2,-2,-1,1,-3,3,1,1
1558441329692199,-3,-3,-2,-5,-8,-4,-4,-4
1558441329707159,4,1,4,0,4,-4,-4,4
1558441329707159,-2,-1,-5,-1,-2,-5,1,2
1558441329713143,1,-2,2,1,-4,-3,-3,-2
1558441329713143,-2,-1,-1,3,9,0,2,0
1558441329721159,-2,-2,0,-3,-3,1,-1,-3
1558441329721159,0,-2,2,5,-4,-4,-1,-1
1558441329738081,2,3,-3,-7,-4,-2,-2,-1
1558441329738081,-12,-3,-3,-1,-5,-3,-1,-3
1558441329744299,-2,0,-4,0,2,0,-2,-1
1558441329744299,1,1,-2,0,-2,-2,-4,0
1558441329753042,9,0,1,2,3,10,-1,0
1558441329753042,-12,-2,1,-1,-1,-3,-1,-3
1558441329767006,1,0,-1,-4,-2,-8,1,1
1558441329767006,-5,-3,0,0,-3,-10,-1,-2
1558441329774336,0,0,1,5,4,-2,0,-1
1558441329774336,7,1,-1,-1,4,10,3,2
1558441329790041,-3,-1,-4,-3,-7,1,-1,-3
1558441329790041,-1,0,1,3,-2,2,0,1
1558441329792208,1,0,1,0,15,13,6,1
1558441329792208,2,0,1,-1,0,-12,-2,1
1558441329804246,-2,-2,-1,-2,-3,5,-3,-4
1558441329804246,-1,-3,-7,-9,-11,-7,-8,-6
1558441329812879,-3,-1,-2,0,4,2,0,-1
1558441329812879,4,0,3,3,2,2,1,2
1558441329827192,2,1,-3,-2,-4,-12,0,-1
1558441329827192,-7,-1,-3,-8,-3,5,2,-3
1558441329833824,-2,-3,-6,-4,-5,-7,-3,-1
1558441329833824,1,1,1,-6,-7,-2,-5,-3
1558441329849778,-1,0,-1,4,1,4,-1,-2
1558441329849778,0,2,1,-3,2,3,0,-1
1558441329851776,-2,-2,-1,-8,-8,-8,-7,-1
1558441329851776,3,-2,-1,5,5,7,1,-1
1558441329864108,2,-1,-1,7,0,0,-1,2
1558441329864108,-1,0,-1,-4,4,-4,0,-3
1558441329872719,-4,-1,-1,0,-6,-6,-2,-1
1558441329872719,3,-1,-4,-1,-1,2,1,2
1558441329887677,-4,-1,-2,-5,-3,-12,-4,-4
1558441329887677,1,-2,-3,2,5,12,3,0
1558441329894055,-1,-2,-1,-3,-1,-2,1,2
1558441329894055,1,0,-4,2,-2,-4,-1,-1
1558441329910771,-2,-2,0,-5,-3,1,-3,-1
1558441329910771,1,-2,-4,-1,-6,-2,-5,-1
1558441329911616,-4,-2,2,1,0,0,1,-4
1558441329911616,2,1,2,7,10,-6,4,3
1558441329923622,-3,-3,-5,-12,-6,1,-1,0
1558441329923622,-3,-2,1,1,0,4,6,0
1558441329932559,4,3,3,6,8,-6,6,4
1558441329932559,-1,-1,-4,-6,-4,-2,-4,-5
1558441329946555,-1,-1,0,2,1,0,0,-1
1558441329946555,-3,-3,-1,-2,-1,4,-5,-5
1558441329953532,-3,-6,-8,-6,-9,-2,-7,-5
1558441329953532,-3,-3,-2,-5,0,-1,1,-1
1558441329970498,1,0,0,4,5,1,1,1
1558441329970498,-1,-1,0,0,-4,-12,-1,0
1558441329971459,0,0,4,6,-2,-9,-6,-5
1558441329971459,-4,-2,-4,-10,-2,6,5,2
1558441329984464,3,-2,-2,-1,-4,-4,-5,-2
1558441329984464,-1,1,1,1,0,2,-2,0
1558441329992398,7,4,4,9,3,-3,2,3
1558441329992398,-19,-7,-4,-5,-7,-6,-9,-8
1558441330007369,0,-2,-1,0,8,10,3,0
1558441330007369,0,1,0,-3,-4,-9,3,2
1558441330013342,-6,-4,-3,-4,-4,-2,-8,-3
1558441330013342,4,1,0,2,-2,5,0,1
1558441330030297,-3,-2,-1,-8,-3,-7,-3,-2
1558441330030297,-4,-4,-5,-1,-8,-1,-4,-2
1558441330031295,-1,-3,-3,-5,-4,-1,-1,-3
1558441330031295,2,-1,9,3,8,3,-1,1
1558441330043262,-4,-1,-2,-5,-4,1,-1,-1
1558441330043262,3,0,-4,-2,-2,-2,-3,-1
1558441330052265,-1,1,-1,-1,-1,-8,4,2
1558441330052265,3,-1,0,1,-6,-10,-10,0
1558441330067200,-2,0,1,2,-1,-1,6,1
1558441330067200,-2,-4,1,1,4,4,4,-1
1558441330073254,-4,-2,-3,-8,-5,2,-6,-7
1558441330073254,6,1,-3,-5,-8,-4,-7,-1
1558441330090208,-11,-4,-2,-1,-2,-6,-5,-2
1558441330090208,-2,0,1,0,5,10,6,2
1558441330091197,-1,1,1,5,3,-3,4,5
1558441330091197,4,-1,-2,-5,-3,-8,-4,-3
1558441330104114,-1,-4,-5,-4,-4,7,2,1
1558441330104114,-1,-1,0,-4,1,0,-2,0
1558441330113078,1,-2,1,0,2,9,2,1
1558441330113078,-3,0,-2,1,-6,-7,0,-3
1558441330127036,1,0,-2,0,-2,-3,-6,-3
1558441330127036,-2,-1,2,4,2,-6,-4,-2
1558441330135016,-1,-3,-1,-2,3,10,4,1
1558441330135016,-2,0,0,7,9,0,5,-1
1558441330149976,-3,-2,-6,-9,-10,-8,-2,-1
1558441330149976,0,-2,0,7,0,-1,-6,-2
1558441330152001,2,0,0,-2,-8,-9,-8,-3
1558441330152001,-4,-3,-6,-6,-7,1,1,0
1558441330164132,0,1,4,6,12,11,7,1
1558441330164132,0,0,-2,-1,-5,-11,-1,-1
1558441330172915,-2,-3,-3,-5,-1,5,2,-2
1558441330172915,1,0,-1,0,-4,-3,-4,-2
1558441330187067,4,-1,2,1,3,4,1,0
1558441330187067,-7,-3,-2,-5,0,-3,-3,-1
1558441330194051,-1,-4,-4,4,0,5,-2,-1
1558441330194051,5,1,2,-4,-4,-6,-2,2
1558441330209861,-7,-1,0,3,2,-10,-5,-5
1558441330209861,5,-1,0,-6,1,9,4,2
1558441330211846,-1,0,-3,-1,0,1,-2,-1
1558441330211846,-5,-3,-2,0,1,4,0,-2
1558441330223809,2,1,0,0,-5,-13,0,0
1558441330223809,0,0,1,2,0,-1,-1,-1
1558441330232756,-6,-3,-3,-7,-3,4,0,-1
1558441330232756,3,0,1,-1,2,-3,2,0
1558441330246748,-1,0,1,1,-1,-4,-1,0
1558441330246748,-2,0,-5,-3,-5,-7,-5,-3
1558441330253699,0,-3,2,-1,-3,1,-3,-4
1558441330253699,-2,0,1,1,5,5,3,2
1558441330277833,-3,-2,-1,-1,0,8,3,-4
1558441330277833,-2,-2,-4,-6,-9,-8,-5,-2
1558441330279642,-3,-1,-1,3,1,-4,-1,-4
1558441330279642,-2,-2,0,-3,-2,-5,-3,-2
1558441330283621,2,0,1,3,3,-3,-4,1
1558441330283621,1,-2,-2,0,-1,-4,3,-1
1558441330292595,2,1,1,2,11,13,7,2
1558441330292595,-3,-3,-5,-3,-4,1,-4,0
1558441330314570,3,0,-4,-8,-6,2,1,1
1558441330314570,0,-1,-2,0,2,-5,3,0
1558441330316533,-2,-3,1,0,-6,-8,-5,-3
1558441330316533,-2,0,-1,-1,-3,-9,-1,-2
1558441330330508,-4,-2,0,-3,5,3,0,1
1558441330330508,6,0,0,2,2,12,1,0
1558441330331493,-14,-5,-9,-11,-14,-13,-6,-5
1558441330331493,0,0,3,1,2,-6,0,-1
1558441330343460,-1,0,1,-1,-9,-5,-9,-5
1558441330343460,-4,2,1,-1,5,-1,-2,2
1558441330352435,1,-2,-2,-1,2,2,-1,1
1558441330352435,-1,-3,0,5,3,7,-1,-3
1558441330366399,0,-2,-3,4,4,4,-2,0
1558441330366399,-4,-3,1,-1,-8,-9,-5,-5
1558441330375372,-1,-1,-1,-1,-3,1,-1,-1
1558441330375372,-3,-1,1,0,9,14,4,0
1558441330390334,3,-1,-2,-4,-7,-14,-5,0
1558441330390334,-1,-1,-2,-2,-2,-1,-2,-1
1558441330391330,0,-1,-2,-1,-2,-7,-2,-1
1558441330391330,0,1,-2,-3,-3,-6,1,-2
1558441330403440,-3,-3,-3,4,6,13,5,-1
1558441330403440,0,0,-1,1,0,1,-1,-3
1558441330412416,1,0,2,-2,-3,-7,1,2
1558441330412416,1,-3,-4,-1,-2,-4,-8,-2
1558441330427334,-2,-1,1,7,0,-9,-4,0
1558441330427334,0,1,0,-14,-4,-2,3,-1
1558441330433221,1,0,-1,3,1,0,-3,-1
1558441330433221,-3,-1,-1,0,2,18,5,1
1558441330450203,-1,-1,-4,0,-5,-4,-2,-1
1558441330450203,-4,-3,3,2,-2,3,-3,-2
1558441330457190,3,2,4,3,6,2,8,5
1558441330457190,-2,-3,-3,-7,-7,-12,-6,-3
1558441330464171,0,-2,1,-6,0,-3,-1,-2
1558441330464171,-1,-2,0,3,1,5,0,-2
1558441330472201,-1,0,2,2,3,-8,-5,-1
1558441330472201,-2,0,-2,-7,-3,-5,-3,-2
1558441330495114,2,-1,-4,-2,-2,3,1,0
1558441330495114,-4,0,-4,-6,-6,-1,1,2
1558441330497048,0,-1,-2,1,-3,-2,-2,-2
1558441330497048,6,2,3,4,4,-14,-5,3
1558441330510070,-12,-2,0,-3,-4,1,3,-5
1558441330510070,3,-1,-1,1,-2,0,-4,0
1558441330512052,-3,-1,-3,-9,-1,-5,0,-2
1558441330512052,-1,-4,1,4,-4,2,4,-1
1558441330524032,-1,-1,0,0,4,9,1,0
1558441330524032,0,-2,-1,2,-2,-7,-2,-1
1558441330532953,-1,2,0,5,5,8,-2,-1
1558441330532953,2,-1,-5,-6,-6,-3,-3,-5
1558441330545953,1,1,1,0,-1,-4,-5,-1
1558441330545953,-2,-2,-1,1,3,1,1,-1
1558441330554893,1,0,2,-1,-4,-8,-6,-1
1558441330554893,-6,-2,-2,-2,-2,-2,-1,-2
1558441330569857,0,-3,1,0,0,1,0,-2
1558441330569857,-2,-4,-6,-7,-5,-2,-8,-2
1558441330571886,1,-1,-4,-7,-7,-8,1,0
1558441330571886,-1,1,1,2,8,7,7,3
1558441330583818,0,3,3,2,2,-2,0,0
1558441330583818,-1,0,0,-2,3,5,3,-2
1558441330592795,-1,-5,-4,-6,-4,3,-4,-3
1558441330592795,-5,-3,-2,-1,-10,-6,-9,-5
1558441330605792,2,0,2,2,3,10,3,2
1558441330605792,3,0,-1,0,3,-2,-1,1
1558441330614771,-2,0,-1,2,4,7,3,0
1558441330614771,-1,-2,-5,-5,-10,-10,-2,-3
1558441330629731,1,-2,0,0,1,-1,-4,0
1558441330629731,0,1,3,8,0,-5,2,-1
1558441330636675,1,0,-1,-6,1,11,4,-1
1558441330636675,-4,-4,-4,-3,-2,5,-6,-4
1558441330643689,0,-1,-1,-6,-12,-28,-11,-2
1558441330643689,-1,-1,0,5,3,7,7,3
1558441330652636,-1,1,2,-1,5,1,0,0
1558441330652636,-3,-2,-4,-3,-8,0,-2,-2
1558441330666594,-4,-2,1,-5,0,11,4,-1
1558441330666594,-1,2,1,0,0,-8,1,1
1558441330674573,-5,-3,-3,-2,-12,-12,-7,-5
1558441330674573,0,2,1,2,12,15,10,5
1558441330689532,-2,-1,-3,-2,-5,-4,-3,-5
1558441330689532,-1,0,-3,-3,-3,1,-9,-4
1558441330696513,-1,-2,-4,-2,-7,-5,1,-1
1558441330696513,0,-2,0,1,1,-7,0,1
1558441330703494,-2,-1,-1,5,2,-6,3,1
1558441330703494,1,-3,-3,-4,-1,6,1,1
1558441330712485,-2,-3,-3,0,-7,-5,-7,-4
1558441330712485,1,-1,-2,-3,-6,-7,-7,-1
1558441330735575,0,3,-4,-2,6,6,9,4
1558441330735575,-4,1,4,0,-6,-3,-6,-3
1558441330736407,0,-1,1,1,4,4,1,0
1558441330736407,-2,-1,-1,2,-1,-4,-4,1
1558441330749374,0,-1,-4,-2,-1,5,-4,-2
1558441330749374,-2,-2,-1,-2,2,-5,2,-1
1558441330756552,-3,0,0,4,-4,-7,-2,-4
1558441330756552,-1,-1,-3,4,7,11,4,-2
1558441330772414,5,-1,-1,-13,-11,-15,-4,1
1558441330772414,-2,-1,-2,0,5,-5,4,3
1558441330774408,-1,0,-2,-3,1,2,-3,-3
1558441330774408,-2,-2,0,0,-5,-6,-1,-5
1558441330786303,-1,-3,-2,1,-4,8,-6,-4
1558441330786303,0,-1,-3,-3,-1,-5,2,0
1558441330801283,-1,0,0,3,-1,-9,-2,2
1558441330801283,0,-2,-3,-10,1,10,2,-2
1558441330809262,4,2,1,2,0,4,0,-2
1558441330809262,-2,-2,-2,-1,-2,-3,-2,-3
1558441330816196,0,-1,-2,-3,-7,-12,-6,-4
1558441330816196,2,2,3,0,8,10,8,4
1558441330832156,-4,-4,-1,1,-1,1,-3,-1
1558441330832156,-2,0,-4,1,-4,-7,-6,-3
1558441330834147,3,2,4,2,8,3,3,5
1558441330834147,-4,-3,-3,-2,-11,-11,-3,-1
1558441330846150,-1,-2,0,2,5,-6,-3,-2
1558441330846150,-2,0,-2,-3,-3,10,3,-2
1558441330855090,-3,-3,-6,-7,-6,-4,-6,-3
1558441330855090,-1,1,0,7,9,12,2,1
1558441330869055,-1,1,-5,-2,-8,-7,-2,0
1558441330869055,-2,-3,0,-4,-4,-12,-10,-4
1558441330876062,7,3,3,6,2,0,7,4
1558441330876062,-7,-3,1,5,-1,-3,-3,-4
1558441330899969,0,0,2,-5,1,2,3,1
1558441330899969,-2,-2,-4,-2,-2,6,-1,-2
1558441330901002,-4,-3,-2,-4,-2,4,1,-1
1558441330901002,0,-1,0,1,1,-10,-7,-1
1558441330905955,-1,-1,-1,0,-7,2,-3,-1
1558441330905955,-2,-3,-5,-3,-10,-7,-5,-4
1558441330914929,3,2,5,6,25,7,10,6
1558441330914929,0,0,-1,-7,-4,-13,4,2
1558441330928891,-3,-2,-2,-2,0,2,0,-2
1558441330928891,0,-1,-1,-5,-5,6,-2,-2
1558441330935874,-7,-5,-10,-6,-16,1,-9,-8
1558441330935874,4,1,5,14,13,5,4,5
1558441330959954,-1,-3,-3,-15,-5,-11,-2,-1
1558441330959954,1,-1,-1,1,2,4,-1,0
1558441330961804,-2,-2,-3,-2,2,4,-1,-1
1558441330961804,0,3,-2,1,-1,-3,3,2
1558441330965796,-3,-2,-1,2,5,11,4,-3
1558441330965796,-1,1,-1,-1,-5,-8,2,1
1558441330974805,0,2,-1,-8,-7,-12,1,3
1558441330974805,0,-2,0,-5,-8,-8,-9,-7
1558441330989731,-1,1,2,11,13,9,3,-1
1558441330989731,0,-1,-2,-3,2,10,0,-2
1558441330996710,0,0,4,6,6,2,-2,-2
1558441330996710,-3,-4,-7,-15,-18,-11,-9,-6
1558441331019704,2,0,1,5,6,-2,5,6
1558441331019704,-3,-2,-3,0,-1,2,0,-1
1558441331021644,-4,-3,-3,-4,-8,-2,-3,-2
1558441331021644,0,-1,1,-1,4,4,5,-2
1558441331026631,-4,-3,-1,-3,-7,-4,-10,-5
1558441331026631,0,0,1,1,5,1,2,1
1558441331034611,8,-2,0,-5,-2,1,-1,1
1558441331034611,-15,-4,-1,2,-4,-2,-2,-3
1558441331049572,1,0,0,-6,0,1,-2,-1
1558441331049572,-1,-2,0,-2,-3,1,-3,-2
1558441331056551,-1,-3,-1,2,-7,-13,-3,-1
1558441331056551,5,0,-6,-12,-3,2,0,-1
1558441331072652,-8,-2,0,1,4,-3,0,-3
1558441331072652,0,0,-1,0,2,9,2,-2
1558441331074538,-2,-3,-1,0,-7,-8,-4,-3
1558441331074538,0,1,5,3,6,4,3,3
1558441331086470,1,-2,-5,-2,-10,-13,-5,-2
1558441331086470,3,0,-3,-3,-2,0,0,1
1558441331095446,-5,-2,2,3,4,11,3,-2
1558441331095446,0,-1,0,1,10,-1,-1,2
1558441331109431,-2,-1,-6,-7,-15,-7,-8,-3
1558441331109431,-3,-1,-1,-2,-6,-17,-3,-2
1558441331116399,-2,1,-3,0,5,14,1,0
1558441331116399,-1,0,2,5,1,6,0,0
1558441331132350,1,3,4,5,12,1,12,5
1558441331132350,-2,-3,0,-4,-4,-5,-5,-1
1558441331134342,-1,-1,-3,3,-3,0,-8,-4
1558441331134342,3,-2,-3,-10,-2,-4,-4,0
1558441331146309,2,1,0,4,3,-8,4,3
1558441331146309,0,0,1,-2,-5,-5,-1,-1
1558441331155287,-5,-1,-4,-10,-8,2,2,-3
1558441331155287,-3,-3,-2,2,-6,-2,-6,-5
1558441331169256,3,-2,-1,1,-4,-12,1,4
1558441331169256,-4,-2,-2,0,11,8,5,2
1558441331176246,2,1,2,9,4,8,0,1
1558441331176246,-2,-2,-3,-3,-11,-3,-6,-5
1558441331192220,-1,0,0,-6,0,5,2,1
1558441331192220,2,4,7,13,8,-5,2,1
1558441331194185,-1,-2,-3,-8,-6,-6,5,2
1558441331194185,0,-1,1,3,3,-2,-1,0
1558441331206292,-3,-4,-3,-2,-3,10,-8,-6
1558441331206292,0,-1,-4,-4,-11,-6,-6,-2
1558441331215141,-4,-2,-2,-1,-5,-15,-3,-5
1558441331215141,0,1,1,-3,-1,3,1,-1
1558441331230086,-2,0,-3,-1,-4,-8,-1,-2
1558441331230086,-2,0,-2,4,8,7,3,0
1558441331236072,1,-2,-3,-3,-1,-5,-3,-1
1558441331236072,-2,-3,-6,-1,-7,0,-6,-3
1558441331253026,-4,-3,2,0,-1,6,1,-1
1558441331253026,0,1,3,4,12,0,7,3
1558441331255020,4,0,1,-5,-1,-4,-6,-1
1558441331255020,-3,0,-1,1,-6,-9,1,1
1558441331265997,1,1,0,-1,0,8,-1,-3
1558441331265997,-2,-3,-5,-6,-7,1,-4,-3
1558441331274967,0,1,1,8,10,2,4,2
1558441331274967,0,-1,0,-3,2,11,1,-1
1558441331288930,-2,-4,-8,-16,-15,-9,-6,-4
1558441331288930,-1,-2,0,1,5,0,-5,0
1558441331295911,2,2,1,-2,-2,-4,0,1
1558441331295911,0,0,0,4,1,4,2,0
1558441331312865,-1,-1,5,5,7,2,1,-1
1558441331312865,6,1,-4,-1,-7,-13,0,1
1558441331313866,-15,-6,-2,-5,-1,8,-2,-5
1558441331313866,-1,-3,-2,-5,-6,-12,-2,-2
1558441331325933,1,1,1,6,8,13,4,1
1558441331325933,-5,-1,-2,-4,-4,-9,-2,-3
1558441331334806,8,1,0,7,2,-3,1,0
1558441331334806,-5,1,1,2,2,2,0,0
1558441331349771,-5,-4,-4,-9,-5,-1,-3,-4
1558441331349771,0,-1,-4,-9,-7,-9,-4,-1
1558441331355753,1,-2,0,1,0,-11,-4,-1
1558441331355753,-1,-3,-3,-2,-2,9,-2,-5
1558441331372706,1,0,-1,2,-4,-3,-6,-4
1558441331372706,-4,-3,-5,-7,1,16,5,-1
1558441331373705,-2,-1,2,0,0,-17,1,0
1558441331373705,5,3,2,9,9,1,4,4
1558441331386667,-1,0,1,-8,-2,-2,-2,0
1558441331386667,-5,-5,-4,-4,-8,3,-5,-4
1558441331400631,-6,-4,-7,-6,-12,6,-7,-8
1558441331400631,4,1,5,5,6,-4,0,1
1558441331409640,3,1,-2,-2,7,-8,5,4
1558441331409640,-2,-1,2,0,-3,-5,-2,-1
1558441331416591,-2,-2,-4,-7,-7,2,-6,-3
1558441331416591,-2,-1,-2,-4,-6,-3,-3,-2
1558441331432549,1,0,-3,3,5,10,2,-1
1558441331432549,-1,-1,0,-2,-1,1,2,2
1558441331433549,10,0,2,1,2,-1,1,1
1558441331433549,-13,-8,-6,-8,-7,3,-2,-5
1558441331446507,-3,-1,2,6,0,-1,2,1
1558441331446507,0,0,0,-6,-1,-7,-5,-1
1558441331454488,4,4,-1,1,7,12,7,4
1558441331454488,2,1,-7,-7,-5,-6,-6,-1
1558441331469448,-4,-3,3,5,-3,-1,-5,-4
1558441331469448,1,-1,-1,2,-4,-9,-4,-4
1558441331476427,-3,-2,-1,-3,3,3,-2,0
1558441331476427,2,-1,-1,-1,1,1,1,1
1558441331492385,-2,-1,-2,0,-1,-1,2,0
1558441331492385,1,-1,3,4,1,-3,-6,-3
1558441331494380,-7,-5,-2,-4,-5,0,1,-5
1558441331494380,2,1,-2,0,1,0,-1,0
1558441331506350,1,-1,2,5,-3,-7,-4,1
1558441331506350,-4,-3,-6,-9,-9,-10,-5,-2
1558441331515324,1,3,-1,-5,2,6,2,-2
1558441331515324,0,1,-1,-1,4,3,4,0
1558441331529292,0,-3,0,1,-2,4,-3,-5
1558441331529292,-1,-1,0,0,1,1,2,-1
1558441331536275,-3,-4,-3,0,-6,-1,0,0
1558441331536275,2,0,4,0,2,-14,-3,1
1558441331552228,3,4,-3,-5,1,-6,0,1
1558441331552228,-9,1,1,5,8,11,4,-2
1558441331558211,-3,-3,-4,1,-7,-9,-8,-3
1558441331558211,0,-2,-3,-5,-6,1,-1,-4
1558441331566188,-2,-3,-3,-7,-3,-8,-3,-1
1558441331566188,5,2,5,5,7,6,3,2
1558441331575165,0,-3,-2,-3,0,-1,0,0
1558441331575165,-1,-1,-2,3,-2,-2,-6,-4
1558441331589125,-2,-5,-4,-3,-8,-5,-7,-5
1558441331589125,-1,-3,-4,-6,-1,5,-1,-2
1558441331596107,2,3,5,9,8,0,0,1
1558441331596107,-5,-1,1,3,3,6,7,3
1558441331612065,2,-2,-4,-9,-1,0,3,0
1558441331612065,-1,-1,-2,1,-7,-7,-6,-3
1558441331619045,0,1,-2,0,2,0,1,-2
1558441331619045,0,0,-2,-2,-2,3,-1,1
1558441331626027,-3,0,-1,0,-4,-6,-5,-4
1558441331626027,4,-2,-3,-4,-5,-6,-3,0
1558441331635003,-3,-3,-1,2,-1,-1,1,-1
1558441331635003,-1,0,-2,-2,1,1,-1,-2
1558441331649963,-3,-4,1,1,4,7,3,1
1558441331649963,2,2,2,-2,-2,-7,2,3
1558441331655948,-10,-3,-2,3,-3,-5,-2,-4
1558441331655948,-1,-1,1,-1,0,-2,-3,-1
1558441331671905,0,-2,-7,-3,-8,5,-5,-6
1558441331671905,-1,-2,-4,-5,-7,-10,-2,-2
1558441331678886,3,4,6,0,16,4,11,8
1558441331678886,-1,-1,1,1,0,-3,-1,1
1558441331694857,-3,-1,-4,-3,-4,2,2,-1
1558441331694857,-1,-2,-1,2,4,8,0,-3
1558441331696838,-1,-3,-7,-7,-8,-2,-4,0
1558441331696838,-1,0,-2,-5,-5,-11,-3,-1
1558441331709805,2,2,2,8,3,-1,-1,1
1558441331709805,-4,-3,0,-6,-2,7,0,0
1558441331715788,1,0,3,2,6,0,4,1
1558441331715788,2,-2,-5,-3,-2,0,-1,-2
1558441331731744,0,-1,-1,-5,-11,-11,-4,-3
1558441331731744,0,0,1,6,9,17,8,2
1558441331738726,-1,-2,-1,-2,-7,-3,-9,-3
1558441331738726,-2,-3,-3,-10,-5,5,2,-1
1558441331754685,-1,2,0,4,2,-11,0,1
1558441331754685,1,3,5,4,10,6,4,1
1558441331756679,-1,0,-3,-3,2,3,2,-2
1558441331756679,-4,-4,-3,-3,-6,0,-1,-4
1558441331769643,0,2,-1,-4,1,-5,-8,-2
1558441331769643,-3,-3,0,5,5,11,2,2
1558441331775628,0,0,-1,2,-8,-12,-4,-2
1558441331775628,0,-1,-1,-4,-3,-5,-3,-2
1558441331791585,-1,-1,-2,-1,5,-2,3,1
1558441331791585,-1,0,4,2,3,-4,-1,-3
1558441331798565,-1,-2,-5,-2,-4,4,-2,1
1558441331798565,0,0,0,4,-1,-3,6,4
1558441331814532,-3,-2,2,0,2,4,2,0
1558441331814532,0,-1,-5,-5,-7,-6,-4,-1
1558441331816522,-2,0,-1,-3,-2,0,1,-2
1558441331816522,-2,-4,-7,-5,-5,-7,-6,-2
1558441331829483,-1,-2,-1,1,3,7,1,-1
1558441331829483,1,-1,-3,-3,-6,-2,-1,-3
1558441331836466,-2,-1,-2,-6,-7,1,-2,-3
1558441331836466,-3,-1,-3,1,-2,-10,-4,-1
1558441331851426,1,0,1,0,1,-1,-6,-2
1558441331851426,2,0,-1,1,0,-11,8,4
1558441331858411,-4,-1,0,-3,-1,2,-3,-1
1558441331858411,2,0,1,2,2,-10,-1,-1
1558441331875372,-4,-6,-4,-14,-7,3,-5,-5
1558441331875372,-3,-4,-4,0,-8,-5,-8,-5
1558441331876360,0,-1,1,1,3,7,-1,0
1558441331876360,0,1,-1,-5,1,4,3,0
1558441331896326,-1,0,3,10,2,-1,0,-1
1558441331896326,-1,-1,-2,-5,3,4,3,1
1558441331905286,0,-3,0,-3,-6,-6,-4,-2
1558441331905286,-1,-4,-6,-6,-8,0,-7,-3
1558441331911266,0,0,0,6,8,8,3,0
1558441331911266,-1,1,3,-1,1,-3,-1,0
1558441331918246,0,-1,-4,-4,-9,-9,-3,-1
1558441331918246,0,2,3,2,4,2,0,-3
1558441331935201,-2,1,-1,6,0,0,3,0
1558441331935201,-1,0,0,-1,1,-2,-1,-2
1558441331936198,-3,-6,-4,-4,-5,2,-3,-2
1558441331936198,0,1,2,5,5,4,1,1
1558441331949163,-4,-4,-6,-10,-10,-3,-4,-2
1558441331949163,0,1,-1,6,6,8,3,-1
1558441331956169,5,0,0,-5,4,-20,-3,2
1558441331956169,-9,-3,-4,-8,-10,5,-3,-4
1558441331972101,0,0,0,3,3,-3,0,-1
1558441331972101,3,-1,-4,-7,-11,-6,-6,0
1558441331978091,-4,-3,-2,5,5,14,7,-1
1558441331978091,0,-2,5,5,4,-4,-5,-3
1558441331995040,-2,-1,-3,-5,-6,-1,-3,-3
1558441331995040,-2,-3,0,-2,0,3,0,-2
1558441332003019,2,2,-2,-1,-5,-10,1,-1
1558441332003019,-1,0,-1,0,-2,-6,-4,-4
1558441332009003,1,-1,-3,0,-1,4,1,0
1558441332009003,-1,-4,-3,-11,-8,-9,0,1
1558441332015990,-1,0,1,1,10,17,3,-2
1558441332015990,-1,-2,-2,-3,0,1,0,-1
1558441332039928,0,-2,-2,0,3,1,2,2
1558441332039928,-3,-2,-3,-2,-4,-7,-6,-3
1558441332041917,-4,-1,-1,2,-6,-7,-5,-2
1558441332041917,-1,-3,-1,-3,0,8,0,0
1558441332062859,4,4,4,1,11,4,9,3
1558441332062859,-8,-4,-2,2,-1,-3,-2,-4
1558441332063857,0,0,3,3,0,-4,-5,-3
1558441332063857,3,2,-2,-2,6,10,7,6
1558441332068842,-1,-3,-1,-1,-5,-7,-2,1
1558441332068842,0,0,-3,1,-1,8,0,0
1558441332075826,1,0,1,0,1,-2,0,-1
1558441332075826,-3,-1,-4,1,-2,-4,-2,-2
1558441332099766,3,-1,-2,-6,-3,-11,-3,0
1558441332099766,-1,2,3,-3,2,-3,0,0
1558441332101757,-3,-4,-3,-7,-9,-7,-2,-2
1558441332101757,0,-1,-1,-1,0,2,1,-1
1558441332114719,-3,1,1,2,-1,-2,-3,-2
1558441332114719,1,-1,-1,0,-2,2,-3,-3
1558441332116716,-3,-4,-4,0,3,12,-2,-4
1558441332116716,0,-1,0,-5,-5,-14,-4,-1
1558441332129681,-2,-2,4,2,3,-12,1,2
1558441332129681,1,-2,-2,-2,-7,-2,-4,-1
1558441332135664,0,-2,-3,-2,2,10,3,0
1558441332135664,0,0,1,6,2,-1,6,2
1558441332152619,-1,-2,-4,-9,-7,6,-4,-6
1558441332152619,-3,-4,-5,-6,-7,-6,-7,-4
1558441332165591,-1,1,-1,-3,-2,-12,-1,2
1558441332165591,-1,-2,3,0,-2,-6,-6,-4
1558441332174559,0,1,1,3,10,20,8,2
1558441332174559,-3,1,-1,2,1,-19,-5,0
1558441332176556,-2,-1,0,-2,1,3,1,-4
1558441332176556,-1,-3,-4,-6,-13,-9,-6,-1
1558441332188524,-2,-1,0,0,-1,-7,-1,-2
1558441332188524,1,0,0,0,4,10,-1,-1
1558441332198496,-2,-2,-2,-4,-6,-7,-8,-4
1558441332198496,-1,1,1,2,0,8,3,2
1558441332227419,0,-2,-3,1,4,1,2,0
1558441332227419,1,0,-1,-2,-4,-7,-2,-1
1558441332229416,-3,1,-1,0,1,0,1,2
1558441332229416,0,0,-2,0,3,10,5,-1
1558441332235398,-2,-3,-3,-1,-10,-11,-8,-4
1558441332235398,0,-2,0,4,8,-2,0,-1
1558441332236395,1,-1,3,2,4,10,3,2
1558441332236395,0,-2,-3,-3,-5,-8,-8,-4
1558441332265323,-2,-1,2,-1,1,7,5,2
1558441332265323,0,2,3,2,6,11,3,2
1558441332266323,-1,0,-4,-2,-7,-5,1,0
1558441332266323,0,1,-2,5,2,-3,-1,0
1558441332280279,-2,-2,0,-7,0,-1,-5,-3
1558441332280279,1,-1,-3,-5,-9,-4,-7,-1
1558441332281276,-10,-2,-2,-1,0,4,1,0
1558441332281276,2,0,0,3,4,2,1,0
1558441332295237,1,0,-4,-3,-4,-7,-1,-1
1558441332295237,-1,-2,-1,4,1,-3,0,-2
1558441332296238,1,2,1,2,5,6,1,1
1558441332296238,-4,-3,-1,-3,-5,-8,-3,-2
1558441332331141,1,-1,-2,-2,3,11,1,2
1558441332331141,-4,-1,0,-3,-1,9,2,-2
1558441332341115,1,0,0,2,-2,-6,-5,-2
1558441332341115,1,0,-2,-4,-1,-18,0,2
1558441332342119,0,-1,-3,-9,-6,-1,-3,-2
1558441332342119,0,-1,-2,0,-3,3,2,0
1558441332347100,1,-3,0,-2,-1,3,-2,0
1558441332347100,-1,-1,1,2,4,12,2,-3
1558441332355079,-1,1,-2,1,-4,-8,-3,-2
1558441332355079,-1,-1,-2,-1,-1,-8,-1,0
1558441332356077,-3,-3,-2,-2,-2,1,-5,-5
1558441332356077,-2,-3,-2,-2,-3,-11,-2,-2
