timestamp,emg1,emg2,emg3,emg4,emg5,emg6,emg7,emg8
1558441312325801,-2,-2,1,0,-2,-7,1,-2
1558441312325801,-4,-2,-6,-10,-2,-2,-3,-2
1558441312326799,-2,-2,1,8,-2,-9,-1,-1
1558441312326799,-2,0,-2,-13,6,6,4,2
1558441312330787,1,3,4,8,9,4,5,1
1558441312330787,0,-3,-5,-1,-7,-3,-3,-1
1558441312334777,1,-4,-3,-6,-8,-4,-4,-3
1558441312334777,0,-2,2,0,-7,-4,-7,-3
1558441312336771,-2,-1,-5,-1,4,7,-1,-2
1558441312336771,2,2,3,2,4,-2,6,0
1558441312347742,-2,-1,3,2,0,1,0,-4
1558441312347742,0,1,-4,-1,4,12,5,1
1558441312360706,-1,0,2,1,-5,-5,-7,-1
1558441312360706,-3,-1,-4,-4,-4,-5,-5,-4
1558441312368686,-2,-2,-3,2,2,11,0,-1
1558441312368686,-1,0,2,1,-11,-16,-6,-3
1558441312375669,-3,-1,1,-3,1,3,-4,-2
1558441312375669,0,-2,-4,2,4,12,6,2
1558441312393619,3,0,4,2,5,-11,2,4
1558441312393619,-1,-2,-4,3,5,1,1,-1
1558441312396612,3,1,-1,-3,3,-4,7,3
1558441312396612,1,0,2,-3,-3,-6,-5,0
1558441312443485,0,2,5,1,3,2,10,5
1558441312443485,-2,-4,-5,-2,-6,-3,-3,-3
1558441312444482,-3,-5,-5,0,-2,5,2,-3
1558441312444482,0,2,3,3,4,-6,-1,0
1558441312445480,-4,-2,-7,-13,-8,-1,-10,-6
1558441312445480,-3,-2,-3,-2,-4,1,1,0
1558441312445480,2,1,-3,-1,3,-15,3,5
1558441312445480,-2,-2,5,-1,-4,7,-5,-5
1558441312456451,1,-2,-6,3,6,0,-1,0
1558441312456451,-3,-3,-1,1,-6,2,-1,-4
1558441312464429,-1,-2,-1,-3,-5,-4,-3,-2
1558441312464429,2,-1,0,7,11,1,4,3
1558441312471411,0,-1,1,-5,-7,-2,-1,-2
1558441312471411,0,-1,0,0,-4,-11,-9,-2
1558441312487369,-2,-3,1,-5,1,2,0,1
1558441312487369,-2,-1,-5,-5,-4,-6,-1,-1
1558441312494350,0,-1,-1,1,0,8,-4,-1
1558441312494350,-2,0,-2,-4,-3,0,0,-4
1558441312501332,2,1,0,3,3,2,1,2
1558441312501332,-3,-3,0,-1,0,-2,3,0
1558441312516293,-4,-3,-4,-3,-4,-5,0,-3
1558441312516293,-3,1,3,1,5,7,0,0
1558441312525268,-1,0,6,1,-7,-5,-6,-3
1558441312525268,-4,-3,-9,-8,-2,1,5,-1
1558441312532248,0,0,-3,-2,-6,-11,1,-1
1558441312532248,-2,-5,-5,-4,-4,-1,-5,-1
1558441312547207,-1,-1,1,4,3,11,3,1
1558441312547207,2,2,6,5,4,-9,2,2
1558441312554190,-4,-1,-1,-1,-1,-1,-4,-2
1558441312554190,1,2,5,-1,3,4,-1,-1
1558441312562168,0,-2,-6,-2,-10,-13,-11,-4
1558441312562168,-2,-5,-11,-15,-12,3,-9,-5
1558441312577128,-1,-1,4,4,3,-1,0,2
1558441312577128,2,1,0,3,8,-2,6,3
1558441312585109,-3,-1,3,7,1,3,-4,-3
1558441312585109,0,2,0,-4,-3,4,0,0
1558441312592089,-2,-1,-2,-1,-4,-4,-4,-4
1558441312592089,2,-1,-4,-3,-2,-2,4,1
1558441312607049,1,2,5,3,6,-4,1,-1
1558441312607049,-2,-2,-3,-3,-4,4,-6,-3
1558441312614029,2,-1,3,4,2,4,1,2
1558441312614029,0,0,0,2,-1,-10,-6,-1
1558441312622007,-1,1,-1,-3,2,-12,2,4
1558441312622007,-4,-4,-8,-7,-2,0,-3,0
1558441312645944,2,1,-7,-2,-4,-7,-2,0
1558441312645944,-4,-3,-1,-4,-3,2,-3,-2
1558441312645944,-2,-2,0,0,-5,9,3,-2
1558441312645944,-3,-4,-4,-5,-11,-13,-10,-3
1558441312651928,2,3,9,10,13,0,9,7
1558441312651928,0,0,1,-3,4,1,6,1
1558441312667886,0,0,-1,-2,0,8,-2,-2
1558441312667886,1,-1,-2,5,-1,1,-2,-1
1558441312673869,-2,-2,-3,-4,-2,5,1,-3
1558441312673869,0,1,0,1,1,-1,-2,1
1558441312681847,-5,-2,1,-3,0,0,-2,-1
1558441312681847,2,1,6,3,-6,-9,-2,-3
1558441312696808,-2,0,-5,-2,-2,-1,-6,-3
1558441312696808,0,-2,-3,-1,3,0,5,1
1558441312704787,-3,-1,-3,-4,-3,-7,-3,-3
1558441312704787,-2,-2,-5,0,0,6,0,-2
1558441312711768,-2,0,1,4,4,11,4,0
1558441312711768,0,-1,-3,-3,-9,-12,-5,-4
1558441312727726,1,-1,1,-4,-4,-8,-2,-1
1558441312727726,2,3,4,4,11,11,11,5
1558441312734707,-6,-5,-2,-2,-9,-5,-6,-5
1558441312734707,-2,0,-4,-4,-4,-7,0,0
1558441312741689,3,1,0,2,4,1,1,0
1558441312741689,-3,-1,-1,0,1,4,-8,-4
1558441312756649,2,0,3,-1,-3,-4,1,1
1558441312756649,-1,-2,1,1,-2,1,-3,-2
1558441312764627,-5,-2,-7,-4,-2,8,3,1
1558441312764627,0,1,4,-3,1,0,-3,-1
1558441312771608,0,-4,-3,4,9,9,6,1
1558441312771608,-1,-2,1,-2,-7,-11,-10,-2
1558441312787568,2,-1,-3,-7,-8,4,1,0
1558441312787568,1,1,-1,-1,0,-10,8,2
1558441312794550,-2,-1,2,3,3,-3,-2,-2
1558441312794550,-1,0,1,1,6,7,0,-1
1558441312801529,-1,-1,1,3,2,8,2,-2
1558441312801529,-3,-2,-4,-9,-14,-1,-10,-5
1558441312816488,0,0,-2,-3,-2,-7,-5,-2
1558441312816488,-1,-1,1,1,5,-2,5,2
1558441312824467,-1,-2,-4,-5,-3,-3,-2,-2
1558441312824467,-2,-2,0,-5,-4,-5,-1,-2
1558441312831691,-1,-1,4,1,-1,-1,1,1
1558441312831691,-2,-3,-6,-8,-7,-2,-4,-2
1558441312847407,0,0,-3,3,6,3,2,1
1558441312847407,2,3,3,8,6,-5,7,3
1558441312854387,-1,-2,-5,-12,-3,2,-7,0
1558441312854387,-2,-2,-1,1,-4,-5,-5,-3
1558441312861368,0,-2,1,0,1,-1,0,0
1558441312861368,0,2,3,1,2,-3,-2,1
1558441312876327,-3,-4,-7,-7,-12,-7,-8,-7
1558441312876327,1,1,-2,-6,4,-1,3,2
1558441312885305,-1,-2,-7,-3,-7,-6,-8,-5
1558441312885305,-2,-5,-1,2,2,4,3,0
1558441312891288,-3,-3,0,-1,-4,-2,-1,-2
1558441312891288,-1,0,2,0,-1,6,2,0
1558441312907245,0,1,0,-1,3,-4,-4,-2
1558441312907245,-3,-4,-2,-1,-1,-2,-1,0
1558441312914227,-1,-2,0,1,3,11,0,-1
1558441312914227,-1,-1,0,1,-2,-8,1,2
1558441312921215,2,2,2,2,5,-9,3,4
1558441312921215,0,-1,-2,2,-5,-5,-2,-2
1558441312937166,1,0,0,-4,-3,-2,-1,-2
1558441312937166,-3,-1,-1,0,3,13,3,-2
1558441312953123,-5,-2,-4,-4,-7,1,-3,-1
1558441312953123,2,0,1,6,4,4,-2,-3
1558441312954121,-1,0,1,0,1,-10,-1,1
1558441312954121,1,0,-1,-3,-3,-3,1,0
1558441312967088,-4,-4,0,0,1,4,3,0
1558441312967088,-1,0,-5,-3,-5,-2,-1,-3
1558441312974068,0,2,3,4,9,19,7,-1
1558441312974068,-4,-1,4,2,-4,-4,-3,-5
1558441312982044,-1,0,-2,-1,0,-1,-1,-1
1558441312982044,-3,-3,-5,-5,-6,-1,-1,0
1558441312997007,0,-3,1,7,-3,-10,1,-3
1558441312997007,1,-4,-4,-11,-2,-5,-1,0
1558441313004985,0,-2,-1,2,-1,-6,-2,1
1558441313004985,1,1,1,-2,3,6,0,0
1558441313011974,-1,-4,-8,-6,-5,-5,-6,-1
1558441313011974,-4,-4,-1,1,1,17,0,-3
1558441313026925,-2,0,3,0,-7,-13,1,-1
1558441313026925,0,2,3,3,9,1,5,3
1558441313033907,1,0,-2,-5,-7,-7,-5,-1
1558441313033907,0,1,-1,3,4,11,-5,-2
1558441313049864,1,0,1,0,0,-6,2,1
1558441313049864,-2,-5,-6,-5,-11,-12,-5,-4
1558441313056845,-1,1,4,4,9,7,4,0
1558441313056845,-1,-1,-3,-10,-3,-9,-3,-1
1558441313064824,-3,-2,-4,-5,-8,2,-11,-7
1558441313064824,0,0,3,2,4,0,3,1
1558441313071805,-1,0,-2,-3,3,13,8,1
1558441313071805,0,-1,-2,5,0,-7,0,-1
1558441313087762,1,-1,0,-8,-5,-2,-5,-3
1558441313087762,-1,-1,-1,0,1,5,-4,-2
1558441313093746,-2,-5,-9,-4,-6,-13,-10,-2
1558441313093746,2,0,0,2,7,4,7,3
1558441313110700,0,-1,-1,3,-4,1,1,-2
1558441313110700,0,-2,3,0,-2,-1,-6,-4
1558441313116685,0,0,-5,-7,6,-5,5,5
1558441313116685,-3,-3,-2,0,-5,-3,-5,-2
1558441313124663,-2,-4,-4,-3,-4,-5,-3,-2
1558441313124663,-2,-1,0,0,4,6,-1,-3
1558441313131644,-1,0,3,0,-10,-5,-7,-7
1558441313131644,2,0,-1,-2,0,-3,4,2
1558441313147602,1,3,5,9,10,0,4,2
1558441313147602,1,3,3,0,3,6,0,-2
1558441313154583,-4,-3,-5,0,-8,-7,-5,-1
1558441313154583,-3,-3,-10,-10,-8,6,-6,-6
1558441313169544,-2,0,1,-6,3,11,7,4
1558441313169544,0,-3,-3,1,3,-11,4,5
1558441313177521,2,2,11,9,11,8,7,0
1558441313177521,-3,-2,-5,-5,-14,-17,-7,-5
1558441313185502,0,-1,2,3,8,12,7,1
1558441313185502,-2,-1,-6,-4,-5,-4,-4,-2
1558441313199464,-2,-2,-4,-5,-7,-5,-8,-3
1558441313199464,0,1,5,5,7,6,-1,3
1558441313207442,0,-2,-4,-2,1,-1,-1,-2
1558441313207442,-3,-1,-2,-13,-8,-6,0,-2
1558441313214426,-1,0,1,-1,-5,-1,-1,-4
1558441313214426,0,-2,0,2,-5,-10,-5,-1
1558441313229384,-1,0,2,3,4,8,1,0
1558441313229384,-2,1,0,-1,-2,0,-6,-3
1558441313236365,1,1,3,2,6,1,2,3
1558441313236365,-4,-3,-8,-5,-4,-1,-1,-2
1558441313245341,-3,-1,-4,-3,-2,-5,-7,0
1558441313245341,-1,0,-2,3,3,12,4,2
1558441313251326,-3,-1,-1,-4,-7,-6,-2,-2
1558441313251326,1,2,5,5,4,6,8,1
1558441313267282,-3,-3,-2,0,-8,-8,-9,-5
1558441313267282,2,2,-3,0,2,-3,0,0
1558441313274266,0,0,1,-10,2,2,4,2
1558441313274266,0,2,3,7,8,1,3,2
1558441313290221,-1,-1,-5,-4,-5,-5,-7,-3
1558441313290221,-3,-3,-1,-4,-5,-1,-1,-1
1558441313296204,0,0,0,7,4,-3,2,1
1558441313296204,-2,-1,3,-2,-6,1,-5,-2
1558441313305181,-1,-1,-1,4,4,8,4,-3
1558441313305181,-2,-2,-6,-7,-3,-16,-5,-1
1558441313319143,0,-3,-2,-1,-1,1,1,2
1558441313319143,-2,-1,-2,-3,-2,-1,-2,-1
1558441313327122,-1,0,2,-1,1,-5,-3,-2
1558441313327122,-1,-1,-1,4,-2,2,-1,0
1558441313334104,-1,0,-1,0,-1,2,5,-2
1558441313334104,-1,-3,-1,-8,-8,-9,-6,-3
1558441313350061,0,0,5,3,9,10,9,3
1558441313350061,-1,-3,-4,-4,0,-11,0,1
1558441313357042,-2,-2,-1,-4,-4,0,-6,-2
1558441313357042,-2,-5,-5,1,-3,3,-8,-5
1558441313365020,0,-2,-2,-4,1,-2,7,3
1558441313365020,0,-1,2,0,0,3,1,-1
1558441313395938,-3,-1,-2,2,-4,-8,-7,-3
1558441313395938,1,2,5,3,6,0,0,1
1558441313396936,-2,-1,2,-4,-10,-5,-4,-2
1558441313396936,-2,-3,-5,-7,1,-3,1,1
1558441313397932,1,-2,-2,-3,1,4,-1,1
1558441313397932,1,0,-4,1,2,1,-1,-3
1558441313409901,-3,0,1,1,-1,-11,-11,-5
1558441313409901,-2,1,4,1,-7,5,-1,-2
1558441313416881,-1,-1,-2,3,-2,-10,-5,0
1558441313416881,0,1,2,-4,1,7,8,2
1558441313432838,1,-1,-5,-6,0,0,0,-2
1558441313432838,0,1,1,2,1,2,-5,-2
1558441313438823,2,3,1,0,1,0,1,0
1558441313438823,-1,-1,2,2,-2,-2,-4,1
1558441313446801,-1,-4,-2,-2,-3,1,2,3
1558441313446801,1,0,2,6,3,-5,-3,-2
1558441313455778,-1,-2,-5,-10,0,12,8,0
1558441313455778,0,1,4,3,1,-11,3,0
1558441313469740,-2,-4,-11,-15,-14,-8,-9,-6
1558441313469740,-5,-2,-3,-3,-4,3,-3,-4
1558441313476749,-2,-3,-6,-2,-3,-1,-4,-2
1558441313476749,0,-1,1,3,8,4,12,4
1558441313492678,0,1,2,1,1,-11,-3,1
1558441313492678,-2,0,-1,2,-1,-2,-1,-1
1558441313499659,-2,-2,1,-5,-9,-8,-10,-6
1558441313499659,-2,-2,-4,-5,-1,2,-1,-1
1558441313515679,-3,-1,-1,2,0,-3,4,3
1558441313515679,-2,-3,-3,-5,-8,-2,-9,-6
1558441313516681,-3,-1,0,-1,-3,-5,-3,-3
1558441313516681,-1,-1,-5,-3,0,8,7,5
1558441313529579,0,1,3,8,3,-2,4,2
1558441313529579,3,-1,-4,-11,4,1,5,2
1558441313536562,-1,-2,0,0,-2,-4,-6,-4
1558441313536562,-4,-4,-6,-9,-15,-7,-13,-8
1558441313552522,-2,0,-2,0,0,5,-3,-2
1558441313552522,0,-2,0,2,0,-3,5,1
1558441313559500,2,2,1,2,8,6,3,2
1558441313559500,-1,0,-1,4,-4,-3,0,-2
1558441313582491,-1,-2,3,-4,-2,6,-4,-2
1558441313582491,-1,1,-2,-2,-1,-3,-3,-2
1558441313590416,-2,-2,-6,-8,-3,-9,-2,0
1558441313590416,-2,-1,-1,6,8,11,1,-2
1558441313591414,-1,0,1,-3,-6,-12,-1,-1
1558441313591414,-4,-3,-3,6,2,6,0,0
1558441313596402,-3,-1,-1,0,-3,-6,-1,-1
1558441313596402,-3,-3,0,-5,-9,-16,-11,-3
1558441313612393,0,-1,-2,0,5,16,3,0
1558441313612393,1,-2,-2,-1,-1,-2,-1,1
1558441313626358,-1,0,1,4,6,6,3,3
1558441313626358,1,-2,0,-5,-2,1,1,0
1558441313635305,1,0,-1,0,-1,1,2,-2
1558441313635305,-1,1,4,11,-4,-6,-2,-1
1558441313637294,0,0,-3,-11,2,-1,6,2
1558441313637294,0,0,-1,-3,7,-4,1,4
1558441313650258,0,-2,-6,-4,-10,-3,-5,-4
1558441313650258,-3,1,1,-1,2,9,-3,-1
1558441313656242,-3,-2,-1,3,-6,6,0,-2
1558441313656242,0,0,3,3,-1,-5,-3,-3
1558441313672198,-1,-1,-3,-2,5,-1,1,1
1558441313672198,-2,-1,-1,-2,2,-6,-2,3
1558441313679181,2,2,0,-1,1,5,2,0
1558441313679181,-2,-1,1,2,1,2,1,0
1558441313695137,2,-2,-6,-6,-4,2,-1,0
1558441313695137,0,-1,-1,-3,-1,4,2,-2
1558441313697132,-1,0,1,0,-4,-4,-6,-3
1558441313697132,0,1,1,8,14,22,12,3
1558441313711096,-2,-1,3,-4,-6,-13,-5,-2
1558441313711096,0,-2,-1,-2,1,-6,8,3
1558441313725057,-2,-1,-1,1,-3,-1,-4,-4
1558441313725057,-2,-4,-6,-2,-3,-5,-5,-1
1558441313732041,-5,-4,-7,-2,-7,-1,-7,-5
1558441313732041,0,2,6,0,6,17,2,-3
1558441313739020,-3,-6,-4,2,2,6,6,1
1558441313739020,1,3,5,2,3,-8,-1,1
1558441313755006,0,-1,-2,-3,4,0,1,1
1558441313755006,-3,-2,0,0,-10,-4,-8,-5
1558441313756037,-2,-1,-1,3,-3,-2,-4,-4
1558441313756037,0,1,-2,-4,1,-4,2,0
1558441313770941,-3,-1,0,1,3,4,-6,-5
1558441313770941,1,2,2,0,-5,-13,-4,0
1558441313777063,1,0,1,2,8,3,8,2
1558441313777063,-2,-1,-5,-3,-5,-2,-6,-1
1558441313791879,-2,-1,3,10,0,-1,6,2
1558441313791879,1,0,-4,-2,-4,-11,-1,-1
1558441313798893,-1,-1,-4,-8,-6,-5,-7,-5
1558441313798893,-3,-2,-4,-5,-10,-3,-11,-8
1558441313814817,4,2,5,7,9,2,8,4
1558441313814817,0,-1,4,-1,3,0,4,3
1558441313815815,-3,-4,0,-1,-4,-8,-8,-2
1558441313815815,1,-2,-4,-4,-2,-10,1,1
1558441313830783,0,-3,-1,0,-1,3,0,-1
1558441313830783,-2,-3,-10,-5,-4,1,-2,-1
1558441313836759,0,2,3,-1,-3,-5,-4,-2
1558441313836759,-3,-2,-3,-4,-5,6,-4,-4
1558441313851719,-2,-1,2,2,3,-5,0,0
1558441313851719,-1,-2,-2,-1,1,-4,4,-1
1558441313859697,0,1,-1,-8,2,4,3,-1
1558441313859697,-2,-3,-2,1,-7,-5,-1,-1
1558441313874657,-4,-1,-1,-1,2,5,-2,-4
1558441313874657,-4,-3,0,0,-4,-2,-7,-4
1558441313875654,0,-1,0,1,2,-2,1,1
1558441313875654,-1,-1,0,-2,0,-2,-1,-1
1558441313890615,-3,1,-1,-5,-9,-7,-5,-2
1558441313890615,0,-1,-3,1,10,15,3,-1
1558441313896599,1,-2,-2,-3,-8,-16,-4,0
1558441313896599,2,1,4,4,11,12,10,3
1558441313911557,1,-1,-4,-3,-9,-5,-2,-1
1558441313911557,-2,-4,-7,-11,-9,-8,-12,-3
1558441313919538,2,1,3,7,0,-11,6,0
1558441313919538,-1,0,1,-5,4,4,0,0
1558441313934500,-2,-1,-2,0,-3,4,-2,-1
1558441313934500,-3,-3,0,0,2,6,-4,-2
1558441313935502,-3,-4,-9,-7,-12,1,-3,-3
1558441313935502,0,0,3,3,4,0,2,-1
1558441313950454,2,-1,-1,-3,7,6,5,2
1558441313950454,-2,-3,2,6,-7,-2,-2,-2
1558441313956438,-3,-2,-7,-13,1,3,-3,1
1558441313956438,-1,1,4,6,0,-6,3,2
1558441313971398,-1,-1,0,-5,-1,1,-2,-2
1558441313971398,-1,-1,-1,2,-1,1,-5,-4
1558441313979378,0,-2,2,5,-2,1,-1,-2
1558441313979378,-1,-2,-5,-17,-7,-3,-4,-2
1558441313995335,0,-2,0,1,6,1,4,2
1558441313995335,2,4,2,-2,1,3,5,2
1558441313995335,-2,-1,4,3,0,-8,-7,1
1558441313995335,-3,-3,-5,2,-6,-6,-7,-5
1558441314010349,-2,-1,1,1,2,8,2,-1
1558441314010349,-4,-2,-2,-1,0,3,-1,-3
1558441314016280,0,-1,-7,-5,3,1,0,-2
1558441314016280,-1,0,0,1,-4,-2,-6,-4
1558441314033233,-3,-2,-2,-4,-7,-2,-3,-4
1558441314033233,2,4,3,5,14,16,10,2
1558441314039244,-3,-2,-1,3,-3,-5,-4,-4
1558441314039244,-3,-3,1,1,-2,-4,-2,0
1558441314055175,0,-1,-4,-1,-4,-2,-3,0
1558441314055175,0,0,-1,-3,-1,-11,-2,2
1558441314055175,-2,-2,-1,5,1,1,0,-2
1558441314055175,0,0,1,0,-1,4,3,1
1558441314070152,1,0,1,-1,-4,-14,-9,-1
1558441314070152,-1,-2,-4,-5,3,4,7,3
1558441314077115,0,2,6,-1,5,-9,-2,2
1558441314077115,-3,-6,-6,-2,-3,-1,-5,-4
1558441314093073,0,1,5,4,-5,-9,0,-1
1558441314093073,-1,0,-6,-5,-8,-8,-8,-3
1558441314099056,-1,0,3,-3,-7,-6,-5,-3
1558441314099056,-3,1,2,10,13,17,8,2
1558441314115057,-3,-5,-16,-17,-7,-16,-7,-3
1558441314115057,-2,-3,-2,0,-6,-2,-4,-3
1558441314115057,2,-2,3,0,-10,0,-3,-3
1558441314115057,2,0,-3,-3,3,1,4,0
1558441314130971,2,2,2,10,12,19,12,4
1558441314130971,-3,-3,2,-4,-3,-9,-1,-1
1558441314143936,0,-2,-5,0,2,0,4,3
1558441314143936,-1,-2,1,-4,-11,-8,-9,-4
1558441314152912,-1,-1,2,6,4,6,2,1
1558441314152912,0,-2,-5,-8,-11,-11,-2,-1
1558441314158897,0,3,7,7,14,11,7,2
1558441314158897,0,1,-1,-12,0,-13,-2,0
1558441314181837,-5,-4,-8,-2,-7,1,-3,-6
1558441314181837,-2,-2,-1,1,-3,2,-4,-2
1558441314182832,1,1,0,-3,-1,3,3,-1
1558441314182832,-2,1,-2,2,3,11,-2,-2
1558441314197794,-4,-2,1,-2,-9,-24,-8,-2
1558441314197794,3,2,4,3,10,17,7,2
1558441314197794,-4,-6,-7,1,-1,7,-2,-4
1558441314197794,0,-1,-4,-6,0,-1,1,-1
1558441314212815,0,-1,3,-1,-1,-7,0,1
1558441314212815,-3,1,7,9,1,-7,-3,-1
1558441314219737,-1,-2,-6,-15,-9,-8,-4,1
1558441314219737,0,-4,-6,-1,0,6,0,-2
1558441314234697,-1,-1,-2,-1,-9,-8,-7,-4
1558441314234697,-1,1,-3,-1,9,-1,-2,1
1558441314241688,-1,-2,-2,-2,2,6,4,1
1558441314241688,-2,-2,0,-2,-8,-16,-4,0
1558441314257647,1,1,-2,-4,0,-1,-2,0
1558441314257647,-2,0,5,14,8,9,4,-1
1558441314257647,-1,-1,-1,-15,-4,2,-6,-4
1558441314257647,-2,-5,-5,-3,-14,-8,-9,-3
1558441314273596,1,-2,-2,1,11,13,5,2
1558441314273596,1,1,-1,-5,-3,-15,2,2
1558441314279587,0,-1,-2,6,4,8,1,0
1558441314279587,1,1,3,2,-2,0,-2,-4
1558441314294570,-2,-2,0,-4,-6,4,-5,-2
1558441314294570,-3,-2,-3,-5,-5,3,-1,-1
1558441314301521,1,0,-2,5,4,-10,4,3
1558441314301521,0,-2,9,-2,-4,-4,-1,0
1558441314317485,-1,-2,-7,-1,-3,-5,-2,0
1558441314317485,-3,-2,-6,-6,-11,-5,-9,-5
1558441314318475,-1,-1,0,1,4,2,7,4
1558441314318475,0,0,-1,6,4,3,3,0
1558441314342411,-3,-3,1,-4,1,0,-3,-2
1558441314342411,0,0,-2,-2,-2,-3,-1,-3
1558441314342411,-2,0,6,6,-4,-6,-6,-5
1558441314342411,2,2,2,2,15,18,13,6
1558441314354613,-4,-2,-1,0,-4,-1,-1,-3
1558441314354613,0,-3,-3,-5,-1,3,-1,-2
1558441314362355,-3,1,-1,-3,-2,0,-4,-2
1558441314362355,-2,0,-2,3,-6,-7,-6,-3
1558441314377523,2,0,-1,-6,-6,-7,0,1
1558441314377523,-2,-1,1,5,-1,-7,-5,-2
1558441314378314,-3,-3,-3,-3,-3,3,-4,-2
1558441314378314,-1,0,-2,0,1,4,6,1
1558441314402252,1,3,2,-2,1,-4,8,2
1558441314402252,-2,-3,-4,-4,0,-1,-1,-2
1558441314402252,-3,-3,1,3,-3,-2,-5,-2
1558441314402252,1,-1,0,-8,-2,-1,0,0
1558441314414434,-6,-6,-5,-7,-10,-7,-9,-4
1558441314414434,0,-2,-4,-6,-5,-2,-5,-3
1558441314430177,0,2,3,8,21,26,15,5
1558441314430177,-1,-1,-2,-3,-2,-16,-4,-2
1558441314437156,-1,-3,-7,-4,-3,7,-1,-3
1558441314437156,1,0,3,4,2,-6,3,4
1558441314438150,-3,-6,-11,-15,-19,-16,-13,-8
1558441314438150,-3,1,1,1,2,8,1,-1
1558441314453110,1,-1,-4,-1,2,-12,-6,-2
1558441314453110,0,1,1,-1,-5,-6,-2,-2
1558441314459350,-2,-1,7,3,3,-4,-6,-2
1558441314459350,-1,-2,-2,1,4,7,2,-2
1558441314474302,-1,-1,-2,1,4,6,4,-1
1558441314474302,-3,0,2,-4,-3,0,-1,-1
1558441314482290,3,1,-1,1,4,1,8,4
1558441314482290,-4,-6,-6,-1,-7,-4,-13,-5
1558441314497261,-3,0,-3,-2,-6,-10,-3,-2
1558441314497261,2,1,5,3,6,-11,7,3
1558441314497992,-1,-2,-4,-3,-6,-4,-3,-4
1558441314497992,0,-1,1,0,-2,-3,-3,2
1558441314512988,2,2,1,-4,6,10,3,0
1558441314512988,0,-3,-4,-5,-2,5,2,3
1558441314518939,-1,1,-1,-3,-3,-1,2,1
1558441314518939,-1,-3,-1,0,-3,-13,-4,-1
1558441314533933,-4,-2,4,-1,-3,7,-3,-5
1558441314533933,-1,0,-1,-3,1,4,-2,-1
1558441314550156,2,4,3,9,14,0,4,2
1558441314550156,-3,-1,2,-3,-3,-3,-2,-4
1558441314564816,-1,-2,-6,-3,-8,-1,-4,-3
1558441314564816,-2,-5,-2,1,0,6,4,0
1558441314565816,1,0,0,1,-1,-6,-3,0
1558441314565816,1,0,2,3,-1,-7,-2,6
1558441314572981,-3,-1,7,4,1,0,-7,-9
1558441314572981,0,2,-5,1,3,9,7,4
1558441314578983,-1,1,0,-4,-6,-7,-1,-3
1558441314578983,-3,-2,-5,-7,-4,-6,2,-1
1558441314594925,-1,-2,0,1,1,-2,-2,4
1558441314594925,0,-1,0,3,-1,-2,-4,-2
1558441314601721,-1,-5,-3,-1,-5,-4,-3,-7
1558441314601721,-3,-2,0,-5,-4,-6,-2,-2
1558441314617672,2,2,2,9,10,13,5,1
1558441314617672,-2,-5,-6,-8,-7,-3,-2,-3
1558441314617672,-2,-3,-3,-12,0,-7,-3,0
1558441314617672,0,1,-2,1,-4,-1,-1,-4
1558441314633629,-5,-4,4,0,1,4,4,0
1558441314633629,2,0,0,0,2,-10,-2,0
1558441314639806,-1,2,2,4,0,1,-1,1
1558441314639806,-1,-2,-8,-5,2,7,3,0
1558441314655569,-1,0,2,-4,1,2,-4,0
1558441314655569,-3,-2,-3,3,-11,-2,-8,-7
1558441314661555,-1,-3,-1,-4,1,-8,1,1
1558441314661555,2,-2,-2,0,3,8,6,2
1558441314678716,1,2,2,9,3,-2,-4,-1
1558441314678716,-2,-5,-1,-13,-7,-7,-7,-4
1558441314684503,0,-1,2,7,2,8,-2,-5
1558441314684503,-2,1,0,1,2,0,4,-2
1558441314701446,-3,-4,-8,-12,-13,-11,-3,-4
1558441314701446,4,3,-3,4,4,10,3,1
1558441314702443,-7,-6,5,5,-4,-3,-1,-1
1558441314702443,0,-3,-2,-6,1,-1,-3,-3
1558441314715726,1,2,-1,4,4,6,7,4
1558441314715726,0,-1,0,-4,0,-5,-2,0
1558441314722497,1,3,0,2,-4,-4,-3,3
1558441314722497,-1,-2,-6,-5,1,5,2,-4
1558441314738105,2,1,-6,-1,1,10,2,3
1558441314738105,-1,-2,2,2,0,-6,-2,-1
1558441314738105,-1,-2,-5,-4,4,7,1,3
1558441314738105,1,0,9,8,0,-4,-7,-2
1558441314753105,-1,-2,-5,-7,-1,-8,-5,-4
1558441314753105,-3,-3,-6,-8,-10,4,-6,-4
1558441314760170,0,3,-3,0,-6,3,6,3
1558441314760170,1,3,4,1,2,-15,-3,1
1558441314774966,0,-1,1,-1,3,-3,4,1
1558441314774966,-3,-1,3,5,0,-8,0,-2
1558441314781953,0,-1,-6,-4,-7,-6,-9,-6
1558441314781953,-2,-2,0,7,2,17,2,1
1558441314797848,3,0,3,-4,5,-6,10,4
1558441314797848,-1,-2,-2,2,1,-7,-2,0
1558441314797848,3,1,2,2,7,14,7,4
1558441314797848,-1,-2,-4,-4,-8,-4,-8,-4
1558441314813550,-1,-1,-1,1,-5,-3,-2,1
1558441314813550,-1,0,3,2,3,12,2,-1
1558441314819534,-1,-3,-6,-6,-5,-7,-3,-3
1558441314819534,2,2,0,3,-1,-6,2,1
1558441314834494,-1,-2,3,-2,-5,-2,0,-1
1558441314834494,-4,-3,-5,-2,-3,-4,-2,-4
1558441314841480,0,-1,-3,-2,0,3,1,-2
1558441314841480,7,3,6,2,2,-6,-1,2
1558441314866411,-6,-4,-12,-13,-13,-16,-9,0
1558441314866411,0,1,-1,2,3,9,-2,-3
1558441314867409,-1,-2,-3,1,-1,3,-7,-7
1558441314867409,-3,-2,-4,-9,-12,-10,-3,-3
1558441314873422,1,0,2,5,6,8,-1,0
1558441314873422,-1,1,4,4,-5,-2,-4,1
1558441314879671,1,0,-4,-13,-1,-1,-1,0
1558441314879671,-6,-2,-3,-2,0,3,4,0
1558441314894633,-1,0,-1,2,2,0,-2,-2
1558441314894633,-3,-1,-4,-7,-7,-3,1,1
1558441314901316,2,-1,3,8,-2,-9,-3,-3
1558441314901316,0,1,-1,-2,8,6,4,0
1558441314917273,-2,-2,-1,-7,-4,-1,-2,-4
1558441314917273,1,-1,1,2,2,-7,-4,-3
1558441314918269,-1,-1,-4,-6,-3,3,-3,-1
1558441314918269,-2,-2,1,-1,1,2,-6,-2
1558441314933232,0,-2,-8,-1,-6,-1,-3,0
1558441314933232,0,2,-2,-3,-6,-5,0,-1
1558441314939216,-3,1,2,2,0,-18,-3,2
1558441314939216,-1,-1,-1,-1,3,9,3,0
1558441314954453,-2,-1,3,7,3,12,2,-3
1558441314954453,2,-4,-3,-10,-8,-8,-4,-2
1558441314962151,-5,-3,-3,-4,0,3,-4,-2
1558441314962151,-3,0,5,10,5,-3,1,1
1558441314978117,3,-1,1,-3,-1,-4,-3,0
1558441314978117,-3,-2,-4,-3,0,8,4,0
1558441314978117,-3,-3,-4,1,-9,-6,-7,-7
1558441314978117,1,2,0,-6,1,-2,6,3
1558441314993070,-1,0,-1,1,0,-5,6,1
1558441314993070,-5,1,1,0,4,-7,-1,1
1558441314999310,-4,-1,1,3,-4,-7,-1,0
1558441314999310,-1,-3,-7,-3,-9,-12,-14,-4
1558441315014298,0,0,3,1,4,5,2,1
1558441315014298,-3,0,1,0,0,3,-4,-1
1558441315021996,0,-3,-4,0,5,12,6,0
1558441315021996,-3,0,-4,-5,-11,-8,-3,-6
1558441315036952,-1,1,2,7,15,0,0,2
1558441315036952,1,-1,-2,-6,-2,-1,3,1
1558441315037950,-1,-3,0,-9,-3,4,-3,-2
1558441315037950,-1,-4,-5,-4,-9,-2,-3,-3
1558441315052910,-2,0,2,7,1,5,-4,-4
1558441315052910,1,-3,-3,-7,4,0,4,2
1558441315059891,-2,0,2,0,1,-5,2,1
1558441315059891,-1,1,-3,-3,2,11,-1,0
1558441315074117,-2,-2,0,0,-2,5,4,0
1558441315074117,-1,-3,-3,0,-8,-10,-9,-5
1558441315082092,2,2,0,-1,6,4,6,7
1558441315082092,-2,-2,-1,5,6,-3,-2,-1
1558441315097966,-3,-2,1,-3,-5,-3,-8,-1
1558441315097966,1,0,-1,5,9,10,3,1
1558441315097966,-2,-2,-4,-8,-9,-4,-3,-4
1558441315097966,-1,-2,-3,4,-4,7,-4,-4
1558441315113001,1,-2,-2,-6,-1,-17,-1,1
1558441315113001,-1,2,7,8,11,2,6,3
1558441315119730,-1,-4,-2,-4,-8,-7,-7,-5
1558441315119730,-5,-2,-5,-6,-6,0,-2,-3
1558441315133824,-2,-3,-4,0,1,9,0,-2
1558441315133824,2,2,1,2,0,-7,1,3
1558441315141703,0,-2,-1,3,2,-2,2,1
1558441315141703,-2,-2,-1,-9,-4,-4,-2,-1
1558441315157888,-3,-2,-5,-4,-6,2,-8,-4
1558441315157888,-1,-1,0,4,-4,-8,-6,-4
1558441315157888,1,-1,-2,-7,2,10,6,2
1558441315157888,1,1,2,0,0,-4,1,1
1558441315172591,-1,0,-3,-4,-6,-5,-6,-4
1558441315172591,0,0,-3,-5,4,11,5,2
1558441315179806,-2,0,3,6,3,-2,-1,0
1558441315179806,-3,-2,-4,-2,-5,-2,-2,-4
1558441315194530,-1,-1,1,0,5,-1,-2,0
1558441315194530,0,-1,1,6,-6,5,0,-3
1558441315201511,1,2,0,-1,0,-13,2,0
1558441315201511,2,1,-1,2,1,-3,-4,2
1558441315216507,-4,-1,-2,-1,-5,0,-1,-3
1558441315216507,-3,-5,-3,-3,-2,-1,0,-3
1558441315224450,4,3,4,7,11,6,8,4
1558441315224450,1,-2,0,1,1,-5,2,0
1558441315233426,2,0,1,-2,-2,-10,-1,0
1558441315233426,-3,0,-3,-2,-1,1,-3,-1
1558441315239412,-3,-4,-9,-3,-7,-3,-9,-4
1558441315239412,-3,-1,1,2,2,5,3,-2
1558441315254428,0,-3,-6,-12,-10,-5,-6,-3
1558441315254428,1,1,5,1,2,6,0,-1
1558441315261352,1,1,1,0,2,-6,1,-1
1558441315261352,-1,0,1,2,0,-4,-2,-3
1558441315276348,-2,-2,-6,3,4,7,3,-2
1558441315276348,-5,-2,-7,-10,-9,-5,-3,-1
1558441315284292,-4,-2,-2,-2,-8,0,-8,-5
1558441315284292,-2,-1,2,1,4,10,0,0
1558441315293375,0,-1,2,2,3,-18,2,5
1558441315293375,2,0,-1,3,2,-7,2,-1
1558441315299703,1,1,4,2,1,-7,5,0
1558441315299703,0,0,-2,-5,-4,-4,1,0
1558441315314650,-1,-2,-5,-9,-14,-10,-7,-3
1558441315314650,0,-3,0,-4,6,12,2,0
1558441315322506,-2,-1,-4,-2,-7,-5,-8,-3
1558441315322506,-2,-2,0,-3,1,4,-3,-5
1558441315347124,2,4,4,3,6,-1,6,4
1558441315347124,-1,-2,-3,0,-4,-16,-5,-2
1558441315353106,-2,1,0,-2,-1,3,-2,-4
1558441315353106,-1,-5,-4,-2,-6,-1,-5,-3
1558441315360090,-2,-3,0,6,8,24,6,-1
1558441315360090,-1,2,0,-4,-1,-4,0,0
1558441315360090,0,-2,2,1,3,4,2,0
1558441315360090,-2,-1,-5,4,-4,-6,-1,-2
1558441315374056,-3,-3,1,-4,-14,-4,-9,-7
1558441315374056,-1,0,-1,0,-1,-5,-2,0
1558441315382435,2,-1,1,0,7,4,6,1
1558441315382435,-1,-2,0,-4,1,1,0,1
1558441315397398,-3,-3,-2,0,-2,-5,1,-2
1558441315397398,-3,-1,-2,-2,-6,-5,-8,-2
1558441315404688,-4,-1,-3,-1,-5,1,-5,-3
1558441315404688,2,-1,-3,-1,-1,-4,-2,-2
1558441315420637,-1,-1,2,3,11,-1,4,2
1558441315420637,-2,-1,-2,-1,-4,-8,-5,-1
1558441315420637,-4,-2,-2,2,-4,2,-3,-2
1558441315420637,-2,-2,-4,-7,-3,0,0,-1
1558441315434302,-3,-2,-1,-3,-7,-6,-7,-2
1558441315434302,3,0,3,6,8,1,7,3
1558441315441312,-1,-3,-3,-7,-7,1,-4,-4
1558441315441312,0,0,-1,2,-2,-4,-6,-3
1558441315456241,0,1,0,-4,-3,-2,2,1
1558441315456241,-1,-2,-7,-11,-6,7,-2,-2
1558441315464709,1,0,4,1,5,-2,2,0
1558441315464709,1,1,1,2,3,-8,11,8
1558441315480575,-1,1,-3,2,-1,-10,-8,-8
1558441315480575,-3,-4,-3,-4,-2,7,-1,-2
1558441315480575,-2,-1,-4,0,-4,5,-2,-2
1558441315480575,-1,-1,3,-2,-1,1,-3,0
1558441315494520,0,0,3,2,10,8,9,5
1558441315494520,0,-2,-2,0,-8,-10,-8,-3
1558441315502118,-1,-3,-2,-6,-1,1,-1,-1
1558441315502118,-2,-1,2,6,-1,3,-2,-1
1558441315525407,-2,-4,-9,-15,-5,0,-3,-3
1558441315525407,1,0,2,-5,2,-3,2,1
1558441315526054,-3,-2,-2,6,-3,-8,0,0
1558441315526054,0,-1,-2,-5,-2,5,0,-4
1558441315540195,2,1,1,0,4,1,-1,-1
1558441315540195,-1,-2,3,2,-2,1,-3,-3
1558441315541014,-1,1,-2,1,2,-3,3,1
1558441315541014,-2,-2,-3,2,0,-11,-2,2
1558441315555034,-1,-1,0,0,5,8,0,1
1558441315555034,-1,-1,0,2,4,5,6,1
1558441315561957,-2,-3,-2,-2,-3,4,-6,-3
1558441315561957,-1,-1,1,-1,-6,-10,-6,-5
1558441315576918,0,2,1,1,7,14,5,2
1558441315576918,-3,-3,-9,-5,-4,0,0,-2
1558441315583969,0,-1,0,2,2,0,1,0
1558441315583969,-3,-1,-1,-4,3,8,1,0
1558441315600234,-4,-1,-2,0,-14,-9,-10,-3
1558441315600234,0,2,1,1,10,-7,3,3
1558441315600855,0,0,1,4,4,-1,-5,-1
1558441315600855,1,-3,-2,-2,-3,1,-2,0
1558441315615090,-1,-4,-5,-3,-11,-10,-4,-5
1558441315615090,-3,-3,-5,-1,1,14,3,-1
1558441315621800,-1,0,-2,-1,-7,-10,-1,-2
1558441315621800,3,3,4,-1,11,1,7,4
1558441315637168,-1,-2,-5,-10,-3,-2,0,0
1558441315637168,-2,0,5,6,-1,0,-9,-5
1558441315643742,-2,-5,-3,-8,-8,-2,-6,-3
1558441315643742,-2,0,-1,-3,-4,4,-3,-3
1558441315659700,-3,-3,-3,5,-2,-3,1,-1
1558441315659700,1,-1,1,0,5,-4,1,-1
1558441315660733,0,1,-4,-3,3,9,3,2
1558441315660733,-4,-5,-2,-5,-11,-11,-10,-5
1558441315673658,-2,0,0,1,-5,-4,-6,-2
1558441315673658,0,-1,3,3,-3,8,-3,-1
1558441315681696,3,0,-4,-10,3,-4,5,6
1558441315681696,-3,0,2,4,7,-5,5,2
1558441315697082,0,-1,4,2,1,2,0,-2
1558441315697082,-2,-5,-7,-4,-8,4,-6,-6
1558441315704578,-8,-5,-3,-1,-7,8,-4,-7
1558441315704578,-2,-4,-8,-9,-4,-2,-1,0
1558441315720898,4,5,6,7,16,5,13,7
1558441315720898,-1,0,-1,-5,-6,-4,-5,-1
1558441315720898,2,2,2,3,4,1,6,3
1558441315720898,-3,-2,-4,-3,-7,-10,-7,-6
1558441315736544,-3,-2,-4,-5,-12,-3,-8,-5
1558441315736544,-1,-1,-4,-6,2,-4,-3,1
1558441315741479,-2,-1,6,9,5,0,1,-2
1558441315741479,0,-2,-2,-9,-1,2,2,-1
1558441315758434,4,-1,-2,5,5,-5,3,3
1558441315758434,-2,-2,-4,-11,-14,-11,-5,-2
1558441315772656,-1,-1,-3,-2,-1,-1,-4,-2
1558441315772656,0,1,2,5,-5,3,-4,-3
1558441315780617,-2,-1,-2,-1,1,10,4,1
1558441315780617,-1,-1,1,1,5,-2,3,2
1558441315780617,-3,-2,-3,-3,-4,0,-5,-3
1558441315780617,1,1,1,1,10,2,3,1
1558441315794587,1,-1,-4,-5,-7,-14,-3,-3
1558441315794587,-1,-2,6,17,5,4,1,-2
1558441315801320,1,-1,-5,-14,-3,-12,-3,-2
1558441315801320,-2,-4,-3,-3,-6,1,-6,-4
1558441315816534,-3,-1,-2,-2,-3,-4,-8,-2
1558441315816534,1,1,-1,2,4,3,0,1
1558441315824519,-2,0,2,-2,-5,-10,-5,-1
1558441315824519,-1,2,1,1,2,-5,0,0
1558441315838223,1,-1,2,0,-4,-3,3,-1
1558441315838223,-3,-5,-5,-6,-3,-1,-2,-2
1558441315840480,0,-2,-2,0,-1,6,-3,-1
1558441315840480,2,1,3,9,9,6,6,3
1558441315871394,-2,-1,-3,-5,-2,4,0,-2
1558441315871394,-1,0,-2,-3,-4,-8,-3,-2
1558441315871394,-1,-1,-1,-1,-2,-5,-2,-1
1558441315871394,-1,-1,5,6,7,3,8,3
1558441315877119,0,0,4,0,3,5,-2,0
1558441315877119,-1,1,-1,-4,-1,3,3,-4
1558441315884100,0,-2,-3,-4,-4,-12,-1,0
1558441315884100,1,1,0,1,2,10,4,1
1558441315900364,-2,0,-4,-1,4,-2,5,0
1558441315900364,0,-1,-4,-5,-2,3,0,1
1558441315901069,0,-2,0,3,-3,-1,-5,-4
1558441315901069,-2,-1,-3,-6,-11,-19,-7,-4
1558441315916015,-2,-3,1,-1,2,3,-3,-4
1558441315916015,1,1,-1,2,2,10,3,1
1558441315922240,-2,-2,2,5,8,1,4,1
1558441315922240,-1,-2,-3,-8,-6,-8,-8,-2
1558441315937187,-1,-2,-2,-1,-4,-7,-3,-1
1558441315937187,-2,-2,2,2,-1,-5,-2,-5
1558441315944198,2,0,3,3,8,13,7,2
1558441315944198,0,-2,-3,-1,-3,-3,0,-3
1558441315960158,-1,-2,-3,-6,-6,-7,-7,-3
1558441315960158,-1,-2,-2,-3,-4,-4,-2,-1
1558441315960896,-2,-2,-3,-2,-1,10,-1,-2
1558441315960896,-2,-2,-4,-4,-6,4,-3,-4
1558441315975856,0,2,3,7,2,-15,-3,1
1558441315975856,1,0,0,-2,0,-2,2,3
1558441315981839,-2,-2,-2,-10,-11,-11,-8,-5
1558441315981839,0,1,2,5,6,6,4,3
1558441315997041,-3,-2,-2,3,1,11,0,0
1558441315997041,-4,-3,0,-2,-4,-8,-8,-4
1558441316004937,1,0,0,3,-1,-5,4,2
1558441316004937,0,-1,-6,-4,-1,-4,-4,-2
1558441316019735,-2,-2,0,-5,-6,3,1,-2
1558441316019735,0,0,0,1,2,-10,1,-1
1558441316020737,-3,0,0,-1,1,13,1,0
1558441316020737,0,0,0,1,0,-6,-5,2
1558441316035693,-2,-1,-6,-7,-3,2,3,3
1558441316035693,-5,-2,-2,-6,-8,-6,-7,-3
1558441316041680,0,0,-1,-3,-2,-5,-2,0
1558441316041680,-1,-1,-2,-5,-3,-3,-2,0
1558441316056897,0,0,-1,1,0,-1,-2,-1
1558441316056897,1,0,2,1,1,-6,3,2
1558441316064826,-1,-4,-8,-5,-8,-3,-10,-5
1558441316064826,-2,-2,-2,-1,-5,1,0,-2
1558441316080609,2,3,5,3,11,-4,5,4
1558441316080609,-3,-3,-5,-3,-7,-6,-5,-2
1558441316080609,0,3,6,10,13,3,6,3
1558441316080609,-1,-1,-6,-9,-6,0,-1,-3
1558441316095618,-4,-3,-6,-1,-7,3,-4,-7
1558441316095618,0,0,-2,4,8,12,2,-2
1558441316101529,-1,-2,2,-4,-13,-12,-10,-5
1558441316101529,-2,-3,-4,-2,1,4,-3,-2
1558441316116725,0,-2,-1,-3,4,8,3,3
1558441316116725,0,-1,2,1,-1,6,-1,0
1558441316124710,-1,-1,-2,-2,3,-2,0,-2
1558441316124710,0,0,4,3,1,4,7,2
1558441316139644,-2,-2,-2,-2,-3,-6,-7,-4
1558441316139644,-2,-1,-5,-5,-4,2,-4,-4
1558441316146651,-3,-1,4,4,2,4,1,0
1558441316146651,1,0,0,1,4,-7,3,3
1558441316155633,0,0,0,2,4,0,0,0
1558441316155633,1,1,0,1,0,2,1,0
1558441316162448,-3,-3,-10,-12,-6,4,1,-2
1558441316162448,0,1,0,2,-1,-4,-8,-2
1558441316176316,-3,-4,-5,-2,-5,-6,-1,-1
1558441316176316,-1,-1,-1,0,-1,-2,-2,0
1558441316184298,2,-1,-6,-3,-4,0,2,-1
1558441316184298,0,2,8,14,6,-1,-1,-1
1558441316199493,0,-1,0,-12,-6,-4,-2,-1
1558441316199493,-1,1,0,1,-1,-4,1,1
1558441316207391,-1,-1,1,0,-2,-6,-3,-2
1558441316207391,-3,-5,-5,-5,-8,0,-5,-6
1558441316215458,-1,1,3,2,4,6,4,-1
1558441316215458,1,1,1,0,1,-6,2,2
1558441316222387,-1,-4,-9,-1,0,1,3,0
1558441316222387,0,0,1,-4,1,-6,3,1
1558441316238154,-1,0,-3,10,6,12,-4,-2
1558441316238154,-1,-5,-3,-9,-12,-5,-5,-5
1558441316244136,1,-1,6,9,7,-1,2,2
1558441316244136,-1,-1,-4,-9,-4,4,-1,-2
1558441316259128,-1,0,1,0,-3,-6,-6,-2
1558441316259128,0,-1,-1,2,-2,-3,-1,-2
1558441316267072,-1,1,-3,-5,-7,-9,-3,-2
1558441316267072,-2,-2,-2,1,0,-7,-1,-3
1558441316284027,1,0,0,-6,4,4,5,2
1558441316284027,1,-1,-1,5,5,-1,5,3
1558441316284027,-4,-4,-2,-7,-10,3,-1,-4
1558441316284027,0,1,1,4,8,4,2,2
1558441316296992,1,1,-4,-6,1,0,4,2
1558441316296992,-3,-3,-1,2,-5,-3,-7,-4
1558441316303974,2,1,4,3,4,0,0,2
1558441316303974,-2,-5,-10,-10,-7,4,-1,-2
1558441316328271,-1,-3,3,0,-5,-1,-6,-5
1558441316328271,1,3,5,2,8,4,2,3
1558441316328271,-1,0,-4,-7,-4,0,-1,0
1558441316328271,0,2,5,2,-4,-10,-1,-2
1558441316343209,-2,-4,-5,0,-7,3,0,-2
1558441316343209,-1,-1,-8,-15,-8,-6,-6,-4
1558441316343209,2,2,6,10,13,-11,5,6
1558441316343209,-1,0,-5,-5,-3,8,0,1
1558441316356833,-3,-4,-4,0,-2,-3,-2,-2
1558441316356833,-1,-3,-1,-2,-5,1,-4,-5
1558441316365151,-1,-3,-5,-3,-3,8,0,-4
1558441316365151,2,1,5,4,2,-13,2,3
1558441316388246,-1,3,-3,-1,-4,-7,-7,-3
1558441316388246,1,-2,-2,-3,-2,-1,-1,-2
1558441316388246,-1,-3,-3,0,-3,-1,-7,-3
1558441316388246,0,-1,3,1,7,17,8,0
1558441316403113,0,0,4,2,-4,-3,-4,-3
1558441316403113,-4,-3,-6,-15,-9,-5,-3,-3
1558441316403113,-3,-1,2,5,7,8,6,1
1558441316403113,2,2,0,0,5,-17,-2,4
1558441316417132,-1,-2,6,1,3,3,3,0
1558441316417132,1,0,3,3,1,2,-2,-2
1558441316424474,2,0,-1,1,1,-8,-6,-1
1558441316424474,-6,-4,-4,-2,-6,-1,-6,-4
1558441316439036,-2,-2,-6,-5,-5,3,1,-3
1558441316439036,-3,-4,0,3,-5,0,2,-2
1558441316447014,4,5,5,1,20,11,15,5
1558441316447014,-1,-2,-1,3,-3,-3,-3,-1
1558441316461975,1,0,0,4,-2,-6,-5,-4
1558441316461975,-2,-3,-13,-28,-14,1,-4,-4
1558441316462970,-3,-5,-2,-1,-12,-6,-10,-4
1558441316462970,1,0,1,-2,7,13,3,1
1558441316476933,-1,1,-1,-3,-2,-7,3,3
1558441316476933,-1,0,4,9,10,3,3,3
1558441316483917,0,-1,-5,-3,-5,-14,-5,-4
1558441316483917,-1,-1,-3,-4,-4,8,-1,-3
1558441316500870,-1,-3,-5,-2,-4,-5,-10,-4
1558441316500870,2,4,3,15,13,5,5,6
1558441316506860,-1,-2,0,-13,-9,-24,-3,-1
1558441316506860,-2,-5,-2,-1,-7,-1,-2,-4
1558441316522826,-1,-5,-3,-4,0,2,6,1
1558441316522826,-1,-1,2,4,3,7,-1,0
1558441316523317,-2,-3,-3,3,-3,3,0,-1
1558441316523317,0,1,1,-1,6,1,5,3
1558441316537610,-1,0,1,-3,0,1,0,-2
1558441316537610,-2,-2,-8,-3,-4,-5,-4,-2
1558441316544744,1,1,2,0,3,8,-1,3
1558441316544744,-2,-2,-6,-7,-6,-5,-8,-4
1558441316569193,-3,-1,5,8,7,0,1,0
1558441316569193,-2,-3,-1,-10,-7,0,1,-3
1558441316570249,-1,-2,-2,-10,-8,8,-3,-3
1558441316570249,-1,-3,-3,3,-2,-11,-7,-1
1558441316582502,0,-1,-6,-14,-9,-19,-3,2
1558441316582502,0,-1,3,3,6,2,6,2
1558441316583156,-3,0,0,1,-1,-3,-6,-2
1558441316583156,-1,0,-4,-4,-6,5,1,-2
1558441316597429,-3,0,1,1,0,9,-2,-3
1558441316597429,-1,-1,2,2,1,-12,-2,0
1558441316604436,-2,-1,-4,-4,-6,3,-2,-2
1558441316604436,-5,-3,-1,-1,-5,-1,-10,-5
1558441316628065,1,-1,-1,1,2,-4,3,3
1558441316628065,1,0,0,1,4,2,2,1
1558441316628065,-2,0,2,4,5,7,4,0
1558441316628065,0,2,3,5,4,-2,2,1
1558441316643066,-5,-5,-8,-11,-10,-3,-6,-5
1558441316643066,-4,-3,-5,-10,-12,-10,-5,-3
1558441316643066,2,0,2,5,5,1,6,4
1558441316643066,0,-3,-3,-3,-3,-16,-4,0
1558441316657098,1,1,3,6,7,8,3,1
1558441316657098,-1,-1,0,0,-4,-3,0,-3
1558441316663942,-3,-3,-3,-2,1,18,2,-2
1558441316663942,1,0,2,-4,0,4,0,0
1558441316678900,-1,2,3,5,4,-2,-3,-2
1558441316678900,-1,0,-1,-2,-7,-2,-6,-4
1558441316686877,-2,-3,-6,0,-3,-9,-7,-4
1558441316686877,0,2,0,-11,5,0,6,2
1558441316701838,-2,-1,-2,1,2,2,-1,-1
1558441316701838,-3,-3,-2,0,-3,4,-3,-2
1558441316702835,1,0,2,2,-2,-17,-4,0
1558441316702835,-1,-1,-3,2,2,12,0,-3
1558441316717147,-1,-2,-2,-4,-6,1,-3,-3
1558441316717147,2,5,6,11,21,-5,9,7
1558441316723778,-2,-1,-1,-4,-7,-9,-4,-1
1558441316723778,-3,-4,2,-4,-7,-9,-3,-4
1558441316740735,0,-2,-2,-2,0,5,0,0
1558441316740735,-3,-6,-3,1,-10,-3,-5,-5
1558441316747069,-1,-1,-2,-4,-4,-8,-3,-1
1558441316747069,1,0,-2,3,5,3,0,2
1558441316762675,-1,0,-2,3,-1,5,3,0
1558441316762675,0,1,1,-1,-2,-9,-1,-3
1558441316763786,2,0,1,-4,4,9,2,2
1558441316763786,-3,-4,0,5,-2,-1,-3,-3
1558441316794590,-1,-1,-3,-8,-12,-14,-6,-2
1558441316794590,0,-1,-2,2,14,7,4,4
1558441316796018,0,-1,0,1,0,2,3,-2
1558441316796018,-2,-1,-4,-2,-4,6,-3,-4
1558441316800037,1,0,3,1,5,-1,-2,1
1558441316800037,-1,0,-1,-5,-8,-26,-5,1
1558441316806559,0,-2,-1,2,5,16,2,-3
1558441316806559,1,-1,1,7,0,0,-1,-1
1558441316822861,-1,-1,-6,-10,-6,-8,2,1
1558441316822861,-1,2,-2,4,5,12,1,-3
1558441316822861,-3,1,1,-1,0,-3,0,-1
1558441316822861,-1,-1,0,-1,-4,-3,-1,-3
1558441316846453,-3,-3,-4,-2,-6,-4,-3,-2
1558441316846453,-2,0,-2,-1,-1,10,-1,-1
1558441316846453,-4,-3,-1,-1,-5,-8,0,-3
1558441316846453,1,-1,2,0,-2,-6,1,0
1558441316859760,3,1,1,6,8,-4,4,4
1558441316859760,-2,-1,1,-1,2,6,1,-1
1558441316866735,-2,-1,-5,-5,-2,1,-3,-2
1558441316866735,-3,-2,-3,-2,-4,-5,-3,-2
1558441316882355,1,-2,0,0,1,-2,-7,-3
1558441316882355,0,1,2,-3,-5,-5,0,0
1558441316883352,-1,-2,-5,-2,-1,-2,-5,0
1558441316883352,-1,-1,-3,-2,-4,-2,-3,0
1558441316906292,1,3,2,1,11,10,7,2
1558441316906292,0,-4,-2,1,-8,-6,-6,-4
1558441316907289,-1,-1,-1,-1,-3,-11,-6,-3
1558441316907289,0,1,-1,-8,1,7,3,1
1558441316927588,0,-2,0,2,-1,3,1,-1
1558441316927588,-1,-3,-6,-2,2,2,3,0
1558441316928234,-2,0,1,1,-6,-14,-1,-1
1558441316928234,-1,0,1,2,-2,1,-5,-5
1558441316942500,-4,-2,-2,-1,-4,-2,2,-2
1558441316942500,-1,3,1,-1,3,-1,2,1
1558441316943195,-1,-1,-5,-3,-2,3,-2,0
1558441316943195,-3,0,2,4,3,11,2,-2
1558441316958155,-3,-1,0,-4,-8,-3,-3,-3
1558441316958155,-2,-4,-7,-4,-8,-14,-11,-4
1558441316973184,0,3,1,4,12,7,4,2
1558441316973184,-1,-4,-3,-15,-4,-5,1,0
1558441316979430,3,3,3,5,7,5,1,-2
1558441316979430,-3,-4,-5,-3,-3,16,7,-1
1558441316987076,2,-1,0,-3,-2,-3,-4,-1
1558441316987076,1,-1,3,7,1,-10,1,1
1558441317004072,-2,-2,-4,-13,1,3,0,0
1558441317004072,0,1,0,-2,-2,-1,-1,-3
1558441317004072,-1,-2,-6,-6,-5,1,4,0
1558441317004072,-2,-2,-1,-1,-10,-7,-5,-3
1558441317016999,-2,-2,-3,5,7,-5,-3,-1
1558441317016999,2,4,5,5,7,8,4,2
1558441317024291,-2,-3,-2,-8,2,1,2,0
1558441317024291,0,-1,-3,-3,-3,-3,-3,0
1558441317039254,-4,-3,-4,-2,-16,-9,-8,-4
1558441317039254,0,-1,-1,0,2,6,8,2
1558441317046916,-1,0,1,3,0,-3,-4,-1
1558441317046916,-3,-2,-4,3,5,8,6,-1
1558441317071850,0,0,0,-2,-8,-7,-3,-1
1558441317071850,-3,-5,-7,-4,-3,-3,-11,-5
1558441317072846,0,-2,3,3,1,5,4,0
1558441317072846,1,2,0,-2,-4,-16,1,2
1558441317077173,-1,0,3,3,3,7,2,-1
1558441317077173,1,-1,3,5,8,10,1,1
1558441317083816,-3,-2,0,-3,-9,-4,-6,-2
1558441317083816,-1,-1,-1,0,-3,-1,-6,-1
1558441317099833,0,-2,-5,-2,-2,2,1,0
1558441317099833,-1,-2,-1,-6,-7,-15,-1,1
1558441317132011,1,0,1,2,6,9,7,1
1558441317132011,2,1,2,1,4,2,2,0
1558441317132687,0,-1,-3,-2,-4,-6,-7,-3
1558441317132687,-4,-3,-2,2,-6,-2,-11,-6
1558441317134681,-2,0,-8,-14,-8,-5,-2,-3
1558441317134681,0,0,-2,-5,-3,-6,0,1
1558441317137699,-1,0,1,0,8,7,1,2
1558441317137699,1,0,0,1,3,6,-2,1
1558441317144959,2,1,3,0,-6,-25,-3,-1
1558441317144959,-2,0,-2,-1,-2,6,-3,-2
1558441317159868,-3,-4,-3,-2,2,0,5,-4
1558441317159868,-2,-4,2,-6,-9,-8,-1,-3
1558441317174572,-1,-2,0,3,0,8,-2,-1
1558441317174572,-2,-3,-3,-4,-5,-2,1,-3
1558441317181589,0,1,0,2,1,-3,-3,-1
1558441317181589,2,2,0,4,1,0,-1,2
1558441317189561,-2,-3,-3,-7,-1,9,-2,-4
1558441317189561,-1,-1,-1,0,-3,-4,-1,-3
1558441317196513,-3,-1,-2,-4,-5,0,0,-1
1558441317196513,-2,0,-2,0,-3,-3,-3,-3
1558441317204509,-1,1,-1,-1,3,0,-4,0
1558441317204509,-2,-6,-6,-3,0,0,-3,-2
1558441317236409,-1,0,-1,-3,-6,-3,-3,-5
1558441317236409,0,2,3,1,9,1,3,2
1558441317238592,-2,-4,-2,7,-3,3,-1,-2
1558441317238592,-2,-2,-7,-7,-3,0,-1,0
1558441317250440,1,-1,-2,-3,-1,3,-2,-1
1558441317250440,-2,-3,-1,2,-8,-11,-7,-3
1558441317251379,-2,-1,-9,-7,-5,-2,-5,-2
1558441317251379,2,3,7,8,10,6,2,1
1558441317264637,-1,1,1,-2,-7,-18,-5,1
1558441317264637,-1,-1,-1,-3,4,11,2,-2
1558441317265331,0,-2,2,2,-2,-8,-3,-1
1558441317265331,-1,-1,-1,1,2,7,2,-1
1558441317303229,1,-1,-1,0,1,3,2,-2
1558441317303229,-3,-1,2,4,-1,-4,-1,-2
1558441317304228,0,1,-2,6,2,0,-1,0
1558441317304228,-2,-1,0,0,1,0,-5,-2
1558441317306222,0,0,2,3,2,3,4,0
1558441317306222,-4,-3,-9,-9,-8,-4,-1,0
1558441317310211,1,1,0,5,12,6,9,6
1558441317310211,-2,0,0,-4,-3,-4,0,1
1558441317325172,-2,-1,1,3,0,-2,-5,-1
1558441317325172,0,-2,-4,-7,-8,-1,-3,-3
1558441317349115,2,1,6,-3,1,3,3,2
1558441317349115,0,-2,-1,4,4,6,1,-1
1558441317350109,-1,-3,-3,-3,1,-11,0,-1
1558441317350109,0,-1,-1,0,-2,-3,-2,0
1558441317351101,-2,-1,-3,-4,-12,-8,-6,-5
1558441317351101,0,0,-2,-6,0,5,4,0
1558441317362088,0,-2,2,9,7,6,-1,-1
1558441317362088,-1,0,1,-3,2,2,-1,-2
1558441317370055,-1,0,-1,-8,-2,3,3,0
1558441317370055,-1,-3,-1,-1,-7,-12,-7,-3
1558441317392989,-2,-3,0,-5,-9,-7,-3,-3
1558441317392989,-2,-4,-7,1,2,0,1,1
1558441317393987,-2,-2,2,0,4,6,-1,-1
1558441317393987,0,0,-1,0,2,-2,6,2
1558441317398984,-2,0,-1,-2,-2,2,-3,-1
1558441317398984,0,0,3,3,5,8,4,0
1558441317406954,-1,-1,-3,1,-9,-18,-7,-4
1558441317406954,-1,-2,-4,-6,-2,0,-2,-2
1558441317431315,1,0,0,0,-2,-5,0,-1
1558441317431315,-3,-3,-9,-7,-9,-3,-4,-4
1558441317431315,-1,-3,0,4,7,9,3,1
1558441317431315,3,1,0,3,-1,-10,1,0
1558441317444893,-1,-1,-5,-8,1,1,-2,1
1558441317444893,0,2,1,-1,-1,8,-3,-3
1558441317445848,-1,0,2,-5,-3,0,2,2
1558441317445848,-2,-1,-2,4,-2,-9,-4,-3
1558441317460808,-1,0,0,1,-5,-6,-3,-2
1558441317460808,-1,-3,-6,-5,-6,-9,-6,-3
1558441317466793,-1,2,2,6,8,6,4,2
1558441317466793,0,1,2,0,5,8,5,1
1558441317482913,-3,-2,-3,-3,1,2,2,0
1558441317482913,1,3,9,7,6,-12,-3,0
1558441317489736,-3,-4,-12,-16,-16,-7,-12,-7
1558441317489736,-1,-3,-5,3,-8,-11,-8,-2
1558441317512669,2,1,0,-6,-2,-9,-1,3
1558441317512669,1,0,4,2,5,9,3,2
1558441317513667,-1,0,2,1,2,0,-2,-3
1558441317513667,-3,0,-1,-3,0,7,2,-1
1558441317518656,-2,-1,0,-6,-3,-1,-3,-4
1558441317518656,0,-3,-2,-4,-4,-8,3,3
1558441317526631,1,0,-3,-1,-1,-7,1,-1
1558441317526631,-2,-1,2,1,0,7,-5,-4
1558441317550568,-2,-1,-3,0,-2,-2,-5,-4
1558441317550568,-1,3,5,6,1,-1,2,1
1558441317551567,-1,-3,-7,0,6,8,6,3
1558441317551567,0,0,2,-1,4,5,0,0
1558441317574504,-2,-2,-1,3,-9,-12,-5,-1
1558441317574504,-2,-2,-3,0,4,2,1,-1
1558441317575501,-4,-3,-2,-1,-7,-6,-7,-4
1558441317575501,-4,-2,-1,-1,-4,-1,-3,-2
1558441317579492,0,-1,-1,0,5,6,3,1
1558441317579492,-1,-1,-3,-2,-3,-6,-1,-1
1558441317586472,1,0,4,5,4,10,5,3
1558441317586472,-1,-2,-4,-6,-7,-15,0,1
1558441317601434,-2,-3,-3,1,-2,0,-7,-4
1558441317601434,0,-1,-2,-7,3,12,3,-2
1558441317626366,-3,-2,3,6,-2,-13,-8,-3
1558441317626366,-1,-2,-3,1,2,6,5,1
1558441317627366,0,-1,-1,-2,-2,-2,7,4
1558441317627366,1,1,-1,2,2,-1,-1,-1
1558441317628359,-1,2,2,-2,-2,2,-3,-4
1558441317628359,-3,-3,-7,-7,-5,-12,-9,-3
1558441317639332,0,-2,-3,3,-2,3,-1,1
1558441317639332,-3,-3,-6,-9,-1,8,2,2
1558441317646311,0,-3,0,-1,-2,-2,-1,0
1558441317646311,-1,0,-3,-2,-4,-3,0,0
1558441317661273,-2,-2,-3,-3,5,6,-1,-2
1558441317661273,-1,0,2,4,-1,-5,-3,0
1558441317669251,0,1,-4,-7,-10,-15,-4,-1
1558441317669251,2,1,1,1,4,2,2,1
1558441317685208,0,1,2,3,4,6,5,1
1558441317685208,-2,-3,-4,-1,-3,-2,-2,-2
1558441317685208,-2,-2,2,-1,-2,7,-2,-2
1558441317685208,-3,-5,-4,0,-3,1,-9,-4
1558441317699180,1,1,3,-1,-4,-2,1,1
1558441317699180,1,2,0,-1,5,-7,1,-1
1558441317706152,-1,-1,-2,0,7,8,3,4
1558441317706152,-4,-3,-2,4,-4,1,3,-1
1558441317738067,-2,-1,0,-1,-5,-15,-9,-3
1558441317738067,-1,-2,0,1,0,5,0,-2
1558441317739071,1,-1,-3,-2,0,1,0,-1
1558441317739071,1,2,5,1,5,-2,-1,2
1558441317745232,-3,-2,-3,-2,-3,3,0,-2
1558441317745232,0,-1,-3,-2,-4,-4,-2,0
1558441317745232,1,0,-1,3,-1,-11,-3,-3
1558441317745232,-1,-1,-1,-2,-3,6,-1,-1
1558441317759012,-2,-2,-3,-5,0,6,-1,-2
1558441317759012,1,1,-1,-5,-2,-9,-5,1
1558441317774124,-1,-1,3,3,4,11,4,0
1558441317774124,1,2,4,7,9,4,7,1
1558441317790924,-1,0,-5,-6,-15,-10,-4,-2
1558441317790924,-3,-3,-1,-2,-7,2,-4,-2
1558441317791922,-2,1,-2,-1,4,0,5,1
1558441317791922,0,-1,-3,-8,-1,7,2,-1
1558441317804888,-1,-2,1,-3,5,0,6,1
1558441317804888,-2,-4,-3,2,-4,0,4,-3
1558441317805884,-1,-2,-4,-4,-4,-2,-2,-1
1558441317805884,0,0,0,-3,1,-4,-3,-2
1558441317818854,-1,1,-1,1,5,0,-3,1
1558441317818854,-1,1,-3,-1,-5,-5,-3,-3
1558441317826829,-1,-1,2,-2,0,1,0,-3
1558441317826829,-1,-1,-2,2,-3,-2,-1,-1
1558441317849767,1,-2,1,2,3,10,-1,-2
1558441317849767,0,1,1,-1,6,-1,3,2
1558441317850770,-1,0,-1,-1,-1,-8,-2,-1
1558441317850770,-1,-1,1,-1,-3,-1,-2,-2
1558441317864793,-3,-2,-5,-3,-8,4,-3,-6
1558441317864793,-3,-1,-2,-3,-7,-4,-3,-2
1558441317865725,1,-1,1,5,4,-8,3,4
1558441317865725,-1,-3,-3,-9,-3,1,1,-2
1558441317887666,-1,1,0,-2,0,-8,-6,-1
1558441317887666,-1,0,3,3,1,10,-4,-3
1558441317887666,-2,-2,-7,-1,1,1,4,1
1558441317887666,-2,-3,3,1,-3,-15,-3,1
1558441317901631,-1,-1,-1,-4,-5,0,-1,-2
1558441317901631,-1,-1,-3,-2,-8,-3,-3,-4
1558441317908619,-2,0,-1,-8,1,5,-1,-1
1558441317908619,2,0,0,2,6,3,4,2
1558441317924567,-2,-2,-2,1,-1,3,0,1
1558441317924567,-2,0,3,0,-2,-5,4,1
1558441317925571,-3,-1,-1,3,-6,-10,-9,-5
1558441317925571,-3,-3,-10,-15,-7,-4,-6,-4
1558441317955485,-2,1,2,2,3,1,1,-1
1558441317955485,-1,0,-2,0,5,11,-2,1
1558441317956485,-3,-3,-2,-2,-9,-4,-5,-5
1558441317956485,0,1,0,0,4,4,2,0
1558441317961618,1,-2,1,-1,2,-3,5,2
1558441317961618,1,-4,-2,-2,-8,-11,-3,-1
1558441317969450,3,1,1,3,0,5,3,3
1558441317969450,-1,-2,-3,3,3,7,0,-4
1558441317984408,-2,-1,0,-4,-3,-2,-3,-3
1558441317984408,-1,-1,-3,-5,6,12,8,3
1558441317985408,-1,1,0,-3,-5,-4,-2,-2
1558441317985408,-2,-2,-4,-1,-9,-11,-5,-4
1558441318007406,0,1,0,2,5,2,1,1
1558441318007406,-1,-5,1,2,-2,-5,-6,-2
1558441318008343,0,-2,1,-1,1,4,0,-3
1558441318008343,-2,0,-3,-3,-9,-8,-5,0
1558441318021485,-2,0,-2,1,7,7,9,1
1558441318021485,-3,-1,2,0,-2,-6,-6,-4
1558441318029288,-3,-3,-5,-6,-1,3,-3,-3
1558441318029288,-1,-1,6,7,2,3,1,-2
1558441318044445,-2,-1,1,3,-4,-12,-3,1
1558441318044445,-1,1,-3,-2,2,2,9,4
1558441318060397,-3,-4,-2,-5,-5,-10,-2,-5
1558441318060397,-1,0,2,0,3,5,3,-1
1558441318062199,-3,-1,-3,-1,-3,3,-3,-4
1558441318062199,-1,-1,0,3,2,-4,0,0
1558441318066191,0,-4,-4,-6,-9,-15,-9,-2
1558441318066191,2,-1,-2,2,2,1,1,2
1558441318081185,1,-1,0,1,4,8,3,1
1558441318081185,-3,-2,-1,-2,-6,-7,-5,0
1558441318089128,-3,-2,-2,1,1,5,-3,0
1558441318089128,0,1,1,-1,-4,-8,-1,-2
1558441318104088,-1,0,-1,6,0,2,1,-2
1558441318104088,0,0,-5,-11,-5,0,-5,-3
1558441318120046,1,1,0,7,13,5,6,2
1558441318120046,-3,-3,-2,-16,-18,-7,-7,-1
1558441318122039,1,0,-5,-1,2,-15,-2,0
1558441318122039,-2,0,0,0,-2,4,-4,-5
1558441318127026,-3,1,-2,-1,-2,6,-2,-1
1558441318127026,1,0,0,4,8,3,4,0
1558441318141985,2,-1,3,-3,2,-2,5,4
1558441318141985,0,0,4,1,4,-8,2,2
1558441318148966,0,1,0,0,-1,3,2,0
1558441318148966,-3,-1,-3,4,-1,2,-8,-4
1558441318173901,-4,-3,-8,-16,-21,-9,-12,-5
1558441318173901,-3,0,-2,4,6,-3,1,0
1558441318174898,1,0,2,2,3,-2,0,2
1558441318174898,-4,-2,-3,-4,0,5,0,-3
1558441318186865,2,-1,3,8,2,-6,-2,1
1558441318186865,1,-2,-5,-4,-4,0,1,-1
1558441318194845,-4,-3,-3,-4,-4,1,-4,-2
1558441318194845,1,-1,2,-5,-2,-11,-2,3
1558441318201828,-2,-1,-2,0,-2,-10,-1,-1
1558441318201828,-1,-2,-2,2,-3,0,-3,-5
1558441318209043,0,-1,-3,-8,-7,-5,-4,-3
1558441318209043,-3,0,-4,1,0,1,0,0
1558441318225765,-1,1,1,0,7,9,3,1
1558441318225765,1,-1,0,5,2,-3,-2,-1
1558441318232744,-1,-1,-2,-2,-5,6,1,-2
1558441318232744,-1,-2,-3,0,-4,-8,-6,-3
1558441318247702,-1,-1,-2,0,4,4,2,0
1558441318247702,-1,0,3,-3,-3,-6,-4,-1
1558441318247702,-2,-3,1,0,-5,2,-4,-1
1558441318247702,-1,2,3,6,13,12,6,2
1558441318261729,-2,-2,-4,-11,-10,3,-3,-2
1558441318261729,1,0,-3,-3,3,-5,4,4
1558441318268648,0,-3,-4,2,-2,2,-1,-3
1558441318268648,-1,-1,8,0,-9,-14,-8,-4
1558441318294577,-3,-1,-7,6,5,9,0,-2
1558441318294577,-2,1,-5,-5,-2,6,4,2
1558441318294577,0,0,1,-1,1,-9,-1,1
1558441318294577,-1,0,-4,-2,0,5,-3,-3
1558441318307545,-1,0,3,4,0,1,-1,-1
1558441318307545,-1,-2,0,-4,-9,-10,-7,-3
1558441318307545,1,-1,0,-1,0,-11,-2,2
1558441318307545,1,2,2,5,9,7,11,5
1558441318321506,-2,-1,-5,-8,-7,-8,-4,-4
1558441318321506,-3,-1,1,3,0,4,-1,-5
1558441318345442,-3,-1,-3,-6,-6,-3,1,-3
1558441318345442,2,0,3,7,3,-2,0,-1
1558441318346439,-3,-4,-5,-9,-6,-5,-4,-3
1558441318346439,0,1,2,-4,1,3,-1,-1
1558441318352425,-2,0,-3,-3,-2,2,-5,-3
1558441318352425,-4,-3,-6,-4,-4,-6,0,-1
1558441318367382,2,1,4,6,6,-9,1,2
1558441318367382,-1,-2,-3,-3,-1,-3,-2,-2
1558441318368380,-2,0,0,-2,4,6,-2,0
1558441318368380,0,-4,-4,-2,-9,-5,-5,-1
1558441318381505,3,0,1,-3,-1,-1,-3,-1
1558441318381505,-1,0,-3,0,-6,0,3,-1
1558441318389324,1,-2,-2,1,1,-2,-2,0
1558441318389324,-2,0,-3,-5,1,1,0,0
1558441318404286,-5,-4,-1,0,-10,-10,-6,-5
1558441318404286,1,0,0,1,4,-4,-3,0
1558441318412264,-1,1,2,-3,-4,7,8,1
1558441318412264,-1,-2,2,4,-4,-3,-4,-2
1558441318427224,0,1,1,1,3,7,-2,0
1558441318427224,0,-2,-2,-7,0,-6,0,1
1558441318428221,-2,1,-1,2,-2,-4,0,-2
1558441318428221,0,-1,-4,-3,3,1,2,-1
1558441318441187,0,-3,2,3,-2,-8,-3,-2
1558441318441187,-4,-4,-9,-10,-6,-3,-5,-2
1558441318457143,0,-1,0,1,5,-1,-3,0
1558441318457143,0,0,-2,-5,-8,-2,-6,-2
1558441318464136,-1,1,1,9,10,15,9,-1
1558441318464136,-1,1,-1,-2,-2,-1,-1,0
1558441318472102,-1,-2,1,1,-4,-12,-8,-2
1558441318472102,-3,-4,-3,-3,3,0,3,2
1558441318487078,1,-2,0,2,1,-3,1,2
1558441318487078,-1,-2,2,4,-2,2,-2,-3
1558441318488060,0,0,-3,1,2,7,2,-1
1558441318488060,-3,0,1,1,-4,-1,-3,-5
1558441318510002,-1,2,-6,-13,-2,0,3,2
1558441318510002,-1,0,3,6,3,5,-3,-1
1558441318510002,0,1,1,4,7,-7,9,4
1558441318510002,0,-4,-3,-3,-4,-2,-5,-3
1558441318525958,-1,-2,0,-1,1,2,-5,-2
1558441318525958,-3,-4,-1,3,-2,1,-2,-1
1558441318531943,-1,-3,-3,-4,-5,4,-4,-3
1558441318531943,3,2,3,5,7,-4,0,4
1558441318554885,-1,2,-3,-7,-9,-15,-7,-1
1558441318554885,0,-1,-6,0,2,1,3,0
1558441318555878,1,-2,0,3,-4,-2,0,-3
1558441318555878,-3,-3,-3,-6,-5,3,-1,-2
1558441318570844,-1,-2,-1,-6,6,15,4,0
1558441318570844,-2,-2,-4,-2,-3,-18,-3,0
1558441318571839,0,-2,0,-2,-4,-4,-4,0
1558441318571839,-2,-1,-3,-4,-1,-2,-6,-1
1558441318583810,-1,-4,-4,2,-4,6,3,-1
1558441318583810,-2,-1,7,1,-3,-3,-1,-3
1558441318592782,-1,0,-8,-4,3,3,3,3
1558441318592782,-3,-1,4,4,-2,-10,-4,-4
1558441318615719,-2,0,-2,-3,5,5,3,1
1558441318615719,-1,2,2,1,2,2,4,1
1558441318616717,-3,-2,-5,-12,-9,-12,-10,-4
1558441318616717,-1,-2,-5,-6,-6,4,-2,-2
1558441318621703,-3,0,1,0,-3,-3,-1,-2
1558441318621703,0,-1,-2,0,1,7,1,-3
1558441318637659,0,1,8,5,4,-2,6,5
1558441318637659,-3,-5,-8,-14,-6,2,-5,-3
1558441318643645,-1,-3,-2,2,-9,-3,-6,-3
1558441318643645,0,-1,-2,2,4,-8,-1,0
1558441318652627,-2,2,1,1,7,15,5,3
1558441318652627,-3,0,1,3,-3,-4,2,1
