timestamp,emg1,emg2,emg3,emg4,emg5,emg6,emg7,emg8
1558441340863099,-3,-2,3,3,1,3,-1,-3
1558441340863099,-3,-3,-4,-2,-7,-3,-3,-4
1558441340863099,-1,-1,-5,-8,-5,0,0,-2
1558441340863099,-2,-1,1,2,3,0,4,2
1558441340868085,-1,-1,-2,-3,-1,-2,-2,-2
1558441340868085,-1,0,2,1,2,-11,3,3
1558441340868085,-1,0,2,9,2,0,-1,-2
1558441340868085,-2,-1,-7,-17,-13,-9,-6,-4
1558441340873071,0,-2,-1,3,-1,4,-1,-1
1558441340873071,-1,-3,-5,-10,-1,2,-2,0
1558441340883046,1,1,-1,1,0,-5,1,3
1558441340883046,0,0,3,-1,-3,-4,-3,-2
1558441340888032,-4,-3,-2,-1,-4,-1,-8,-4
1558441340888032,-2,0,1,-2,0,3,-3,-2
1558441340903989,1,-1,-1,1,4,4,4,-1
1558441340903989,1,1,0,4,8,-2,2,2
1558441340913961,0,-1,-4,-3,-6,-7,-2,-1
1558441340913961,-2,-1,1,1,-5,0,-5,-2
1558441340918948,-4,-5,-3,-3,-7,-3,-8,-2
1558441340918948,-1,-1,0,0,1,8,4,0
1558441340936900,1,-1,-2,-4,2,-9,-4,0
1558441340936900,-1,0,-1,3,7,7,2,-1
1558441340941887,0,0,1,0,-1,3,2,2
1558441340941887,-1,0,-3,0,-2,-7,-4,0
1558441340979785,-1,-1,-3,-2,-7,-4,3,-3
1558441340979785,-2,-2,-3,-2,-1,1,-2,-2
1558441340988762,-2,-3,-1,-3,3,7,-1,-2
1558441340988762,-1,-1,0,0,-4,-9,-2,-1
1558441340989760,0,-1,-1,0,-1,1,-3,0
1558441340989760,-1,-1,-1,3,3,3,2,-2
1558441340989760,-1,0,-3,-7,-2,-6,0,0
1558441340989760,0,0,-1,1,2,4,1,0
1558441341001727,-3,-2,-1,-3,-1,4,-2,-3
1558441341001727,-3,-1,-3,-4,-10,-11,-6,-3
1558441341008710,-2,1,0,3,5,3,2,0
1558441341008710,-4,-2,-2,0,-4,-7,-3,-3
1558441341023668,-1,-1,0,-5,-2,-4,1,0
1558441341023668,0,-1,-2,1,-1,-5,-5,-1
1558441341030650,0,0,1,2,-3,-5,-1,-1
1558441341030650,-1,-2,-2,1,0,6,2,0
1558441341047604,-2,-3,-9,-15,-13,-9,-7,-4
1558441341047604,-1,-3,-1,-1,-3,3,-1,-2
1558441341048602,-2,-2,-2,-3,-7,-9,-4,-3
1558441341048602,2,2,2,3,10,10,11,2
1558441341061566,-1,0,0,4,-4,-1,-1,0
1558441341061566,2,1,1,0,6,0,6,2
1558441341068548,-1,0,-1,-1,3,-2,-1,-1
1558441341068548,-3,-4,-1,0,-9,-6,-9,-5
1558441341075530,-1,-1,1,1,5,3,-1,-1
1558441341075530,-1,-2,-2,-5,-4,1,-3,-2
1558441341090491,2,-3,0,7,6,7,1,0
1558441341090491,-1,0,-2,-13,-2,0,1,1
1558441341098469,-2,-2,2,4,-1,-4,-1,-1
1558441341098469,-3,-2,-2,-3,-4,1,-1,-2
1558441341107444,-2,-1,-2,-4,-6,-9,-4,-2
1558441341107444,-1,-1,-1,-1,1,12,-3,-2
1558441341121407,-1,0,-1,1,-3,-1,-2,0
1558441341121407,1,0,4,1,3,-21,3,3
1558441341128388,-2,-1,1,-1,2,6,1,1
1558441341128388,-2,-1,-2,-2,-5,-4,-6,-2
1558441341135369,-3,-1,1,-1,5,8,1,0
1558441341135369,-2,0,-3,3,-3,1,-4,-2
1558441341159305,1,0,4,5,2,1,4,2
1558441341159305,-3,-4,-4,-13,-9,-14,-7,-3
1558441341159305,-1,-1,-1,2,4,-2,2,-1
1558441341159305,0,0,-2,-1,3,6,0,0
1558441341167284,0,-2,-3,-1,-5,-1,-4,-3
1558441341167284,-1,-1,-1,1,-4,-4,-2,-2
1558441341181246,0,0,-2,-2,3,4,2,0
1558441341181246,-2,1,1,1,0,-7,1,-1
1558441341188229,0,-2,-3,-4,-6,-4,-5,-5
1558441341188229,0,0,-1,0,-2,-1,-3,-2
1558441341196208,-2,-2,0,0,-1,-3,-1,1
1558441341196208,-2,-2,-3,2,1,10,-1,-1
1558441341211168,-1,0,1,0,2,-1,3,0
1558441341211168,-1,-3,0,-1,3,2,3,-2
1558441341218148,-2,0,0,1,-2,2,-3,-2
1558441341218148,0,1,3,-1,7,5,4,2
1558441341227124,-4,-5,-7,-9,-21,-17,-9,-6
1558441341227124,-1,0,-1,-4,5,0,4,2
1558441341241086,3,3,2,3,11,0,6,3
1558441341241086,1,-2,-3,-2,-6,2,-4,-2
1558441341248068,-3,-3,-5,-11,-6,-1,-3,-3
1558441341248068,-1,-2,2,7,1,1,-6,-3
1558441341256047,1,0,-2,-4,-5,2,0,0
1558441341256047,1,0,0,-2,-5,-2,0,0
1558441341286964,-1,1,-1,0,1,-5,-5,-1
1558441341286964,1,1,2,6,12,3,6,3
1558441341287962,-1,-3,-2,-1,-9,-5,-8,-4
1558441341287962,-1,-1,1,0,-2,-1,-3,-2
1558441341292948,0,0,2,0,3,0,4,0
1558441341292948,-1,0,-3,-3,-9,3,-4,-4
1558441341301925,-1,-1,-1,2,5,-1,-3,-1
1558441341301925,2,1,-2,-2,-2,-1,4,1
1558441341307907,1,0,1,3,7,-8,2,1
1558441341307907,0,1,0,1,-4,-6,-6,-2
1558441341323866,-2,-2,-3,-3,-3,-7,-2,-3
1558441341323866,-2,-2,-1,2,1,4,-4,-2
1558441341330848,-1,1,-3,0,0,9,-3,-2
1558441341330848,-3,-3,-6,-4,-4,3,-1,-2
1558441341337828,0,1,5,2,1,-13,5,2
1558441341337828,-1,2,0,-6,-1,-4,0,0
1558441341352790,-1,0,1,3,1,4,-2,-2
1558441341352790,0,-3,-5,-4,-5,-5,-6,-6
1558441341361764,0,-2,-1,0,5,14,4,1
1558441341361764,0,0,2,2,1,-7,1,0
1558441341367754,-1,-2,0,-1,-4,-3,-1,-2
1558441341367754,-3,0,-1,-1,-1,0,-1,1
1558441341375727,1,-1,0,0,3,-3,1,0
1558441341375727,-2,-2,1,4,-4,0,-4,-3
1558441341390688,-1,0,-3,-10,3,0,2,0
1558441341390688,2,0,1,1,1,-2,5,-1
1558441341398670,0,-1,-2,1,1,6,-4,-2
1558441341398670,-4,-3,-5,-6,-8,-8,-8,-3
1558441341413625,0,-2,0,3,5,10,8,4
1558441341413625,-1,-1,0,1,3,1,3,2
1558441341421604,-2,-2,-3,-6,-15,-16,-11,-3
1558441341421604,-3,-2,-4,-3,-2,10,0,-3
1558441341436566,0,-1,0,0,3,-3,1,3
1558441341436566,0,0,-1,-5,0,0,0,-2
1558441341437562,0,-1,-3,1,3,13,7,-2
1558441341437562,0,-2,2,-2,6,-3,2,-1
1558441341450526,-2,-2,-2,2,-4,1,-4,-1
1558441341450526,0,-2,1,-10,-11,-14,-7,-1
1558441341458508,-6,-1,-1,1,-3,6,-3,-3
1558441341458508,-3,1,-6,-6,-3,-5,-3,-2
1558441341474462,0,-1,1,0,8,12,6,2
1558441341474462,-2,-2,-2,2,1,1,-1,0
1558441341480446,0,1,-2,-3,0,-2,-1,0
1558441341480446,0,0,0,2,4,2,3,1
1558441341489423,0,-1,1,0,-6,-3,-3,-2
1558441341489423,0,2,0,-1,3,1,-1,0
1558441341495407,0,2,4,4,2,0,2,-2
1558441341495407,-2,0,-1,0,1,-2,1,0
1558441341510367,-2,-1,-2,-1,-3,-6,-4,-5
1558441341510367,-1,-3,0,1,2,3,2,-1
1558441341518346,0,-2,-3,-5,-3,-3,-3,0
1558441341518346,0,0,-2,-3,-5,-1,-4,-2
1558441341533306,0,0,0,1,4,5,7,3
1558441341533306,0,0,1,0,2,-4,-1,2
1558441341540286,-2,-2,-2,-3,-2,0,-1,-1
1558441341540286,1,-1,-1,-2,-5,-7,-3,-3
1558441341549263,-5,-3,-4,-2,-6,-1,-8,-4
1558441341549263,-2,-1,-2,2,-1,0,4,-2
1558441341555246,0,-2,0,-1,2,1,0,-1
1558441341555246,-2,-1,1,1,-4,-6,-3,0
1558441341579184,0,-2,-2,-1,-9,-17,-8,-4
1558441341579184,-1,-1,0,0,-4,0,-5,-2
1558441341579184,-2,-2,0,-1,5,12,6,3
1558441341579184,-2,-2,-1,1,2,0,-1,-1
1558441341593146,-1,-2,-2,-2,-2,-2,0,-3
1558441341593146,-2,1,-1,-2,-6,-8,-2,-2
1558441341601124,0,-1,-2,-1,-3,-4,-1,0
1558441341601124,-1,-1,-2,-2,-1,-5,-2,-1
1558441341610101,-1,0,1,-1,4,-4,4,3
1558441341610101,-1,-1,-3,1,-3,-5,-1,-5
1558441341624062,0,1,1,-1,1,0,-1,1
1558441341624062,-1,-3,-4,-4,-4,-2,-2,-2
1558441341631044,-2,0,0,-2,-10,-4,-5,-4
1558441341631044,1,0,0,1,3,9,5,3
1558441341638025,0,1,0,3,6,2,1,-1
1558441341638025,0,-2,-5,-11,-3,2,0,0
1558441341652986,-3,-1,-1,-1,-8,-2,-5,-1
1558441341652986,-2,-4,-4,-5,0,3,-3,-2
1558441341660970,-2,-1,1,0,0,-1,-2,1
1558441341660970,-1,-1,0,3,5,6,4,1
1558441341669940,-2,-1,-1,3,-1,-7,-2,0
1558441341669940,-1,-3,-5,-11,-3,-5,-1,-2
1558441341699860,-2,-1,-2,-1,-6,-3,-6,-5
1558441341699860,0,-1,1,0,-3,2,0,-2
1558441341707839,0,-3,-2,-5,0,2,-1,-1
1558441341707839,-2,-3,0,4,-7,-8,-5,-1
1558441341714825,1,1,0,-4,2,2,1,-2
1558441341714825,-1,-1,0,2,-5,-8,-6,-3
1558441341715817,3,1,0,2,12,10,7,3
1558441341715817,1,1,0,-1,-5,0,-4,-2
1558441341720804,-2,-1,1,1,0,2,0,-3
1558441341720804,-2,-2,-2,1,2,2,-2,1
1558441341729780,-3,-2,0,-4,-1,7,0,-1
1558441341729780,1,1,5,5,7,-2,4,2
1558441341751721,-1,-3,-4,3,-3,-10,-2,-4
1558441341751721,-1,-2,-3,-13,-4,7,1,-2
1558441341753716,2,1,0,1,5,6,-2,-1
1558441341753716,-4,-3,-2,-4,-6,0,-1,-3
1558441341758702,1,1,5,4,-1,-1,-2,-3
1558441341758702,-1,-2,-7,-9,-7,-18,-3,-1
1558441341773662,-2,-1,-5,-1,2,5,3,-1
1558441341773662,-2,-1,-2,0,-2,-4,-2,-3
1558441341780645,-1,-3,-2,-10,-5,-1,-4,0
1558441341780645,-1,-1,2,4,1,-7,2,0
1558441341789620,-3,-3,-3,-5,-7,-6,-5,-3
1558441341789620,-1,1,0,3,6,7,3,3
1558441341803582,-1,-2,-3,-2,-1,-6,-6,-1
1558441341803582,2,2,2,3,6,1,-1,3
1558441341810563,-3,-1,0,-1,-9,-9,-8,-4
1558441341810563,0,0,1,2,5,10,3,1
1558441341826522,1,0,-1,2,2,-3,5,1
1558441341826522,-1,-3,0,-4,-4,4,0,-1
1558441341833502,-1,1,1,2,7,-2,-2,1
1558441341833502,-2,-5,-1,-2,-1,2,-3,-1
1558441341840484,0,0,-1,-1,-8,-7,-3,-1
1558441341840484,1,1,3,11,5,0,0,1
1558441341855444,-2,-1,0,-9,-9,-3,-2,-3
1558441341855444,-2,0,3,2,5,1,-2,1
1558441341863422,1,-2,-4,-12,1,2,3,2
1558441341863422,-1,1,0,4,1,2,2,-2
1558441341870403,1,-1,-2,2,-2,-2,-1,-1
1558441341870403,2,0,0,0,1,-10,0,0
1558441341878382,0,-2,-1,-1,-4,5,-3,-3
1558441341878382,-4,-1,-1,-2,-1,8,-3,-3
1558441341893341,-1,-1,1,1,3,-7,1,1
1558441341893341,0,2,0,0,-1,-3,1,-2
1558441341900323,-2,-1,1,5,4,-3,-2,-2
1558441341900323,-1,-1,-6,-14,-3,-3,-1,0
1558441341909304,-2,-5,-4,0,-6,-1,-6,-4
1558441341909304,-2,-4,-5,-2,3,12,0,-3
1558441341924261,0,-1,0,1,-2,0,3,2
1558441341924261,1,1,4,4,0,-13,-2,-1
1558441341931242,-1,0,-1,-1,3,1,-2,0
1558441341931242,0,0,-4,-4,-9,-10,-5,-3
1558441341938224,-3,-2,-3,-3,0,7,-2,-3
1558441341938224,-2,-3,-1,0,4,16,7,-1
1558441341953182,0,0,1,1,2,-10,-2,-1
1558441341953182,0,0,-3,-8,-7,-8,-4,-2
1558441341961165,-2,-2,-2,0,0,3,-2,-2
1558441341961165,-2,0,-1,-1,-4,-2,-4,-3
1558441341976122,-1,-1,1,1,-1,-6,0,-1
1558441341976122,-2,-1,-1,0,-1,3,3,2
1558441341984101,-3,-1,-5,-8,-4,-9,0,0
1558441341984101,-3,-3,-2,3,-2,-2,0,-3
1558441341999061,-1,1,0,-1,0,5,2,0
1558441341999061,1,1,4,4,1,-2,-2,-1
1558441342000058,0,-2,-6,-2,5,3,3,2
1558441342000058,-1,-3,-4,-3,0,3,-1,-3
1558441342013028,-1,-1,1,1,1,-4,0,1
1558441342013028,-4,-2,-3,-8,-13,-20,-9,-4
1558441342021006,-3,0,0,0,-2,3,-3,-1
1558441342021006,-2,-1,3,5,4,2,1,3
1558441342035962,1,0,2,1,2,4,7,1
1558441342035962,0,-2,-3,2,5,7,2,2
1558441342043940,-1,-2,-4,-4,-9,-10,-6,-5
1558441342043940,-1,-1,-1,1,-4,-4,-3,-3
1558441342058901,-1,-4,-7,-12,-4,2,-4,-2
1558441342058901,-2,-1,0,5,0,5,-1,0
1558441342059900,-1,-2,-2,-3,-8,-21,-2,-2
1558441342059900,1,-1,4,6,9,17,5,0
1558441342073899,-1,1,-1,1,2,1,4,-1
1558441342073899,0,0,-1,-3,-2,-15,-1,1
1558441342088822,1,0,1,0,0,1,-4,-2
1558441342088822,-1,-2,0,0,-6,-2,-4,-2
1558441342095803,-2,-3,-2,-4,-3,-6,-5,-3
1558441342095803,-4,-2,-3,0,0,11,-2,-4
1558441342103781,-3,0,2,3,-3,-1,-2,0
1558441342103781,0,-1,-5,-13,-2,-14,-3,2
1558441342118741,-2,0,0,1,-1,9,-2,-3
1558441342118741,1,1,-1,-1,1,0,1,-1
1558441342119736,-2,-2,1,1,-7,-8,-2,-3
1558441342119736,-1,0,-1,1,1,-4,0,1
1558441342133699,-1,0,-2,-4,-2,3,-2,0
1558441342133699,-1,-3,-4,-2,-5,0,-4,-3
1558441342140685,1,2,-1,3,5,10,4,2
1558441342140685,-1,0,-7,-10,-6,-6,-6,0
1558441342157640,0,-1,-2,4,-4,-10,-5,-3
1558441342157640,-2,-1,-4,-9,3,12,8,-1
1558441342171602,-3,-3,3,3,-4,-10,1,0
1558441342171602,1,1,0,5,7,5,6,1
1558441342178586,0,1,-1,-1,0,3,0,0
1558441342178586,-2,-3,2,-1,-1,1,0,-2
1558441342179577,-1,-1,-3,-3,-4,4,-2,-2
1558441342179577,0,-3,3,2,0,-11,-3,0
1558441342193540,-3,-2,-3,2,-2,-5,-4,-2
1558441342193540,-1,1,-1,-3,-4,1,-3,-3
1558441342200522,-2,-1,-4,-12,-4,5,1,1
1558441342200522,0,-2,-1,3,-1,-14,-5,-1
1558441342215481,3,3,2,5,9,-2,8,4
1558441342215481,-3,-4,3,0,-4,-6,-4,0
1558441342223461,2,2,2,3,4,-3,0,1
1558441342223461,0,-1,-2,-1,-5,6,-4,-4
1558441342238419,-4,-4,-3,-4,-5,3,2,-1
1558441342238419,2,0,-1,1,0,-4,1,0
1558441342239417,-1,-3,-4,-2,-4,-7,-4,-1
1558441342239417,0,0,-1,-3,-3,-1,-3,-2
1558441342253379,-1,-2,3,1,0,9,-3,-3
1558441342253379,-3,-4,-7,-7,-3,5,-4,-1
1558441342260359,4,5,3,6,18,0,16,9
1558441342260359,-3,0,-2,-3,-3,-2,1,0
1558441342276317,2,1,2,3,-1,-4,0,0
1558441342276317,-1,-1,-3,-2,-6,-8,-8,-4
1558441342284305,-3,-2,-3,-1,-5,7,-5,-5
1558441342284305,-1,-1,1,1,-5,0,-1,-2
1558441342299258,-3,-2,-1,-5,-5,-6,-4,-3
1558441342299258,0,-1,-7,-10,-3,-1,-1,-2
1558441342299258,0,-3,-1,-1,0,2,-3,-2
1558441342299258,1,1,4,5,7,4,4,2
1558441342313220,0,1,-1,-4,2,-3,-1,2
1558441342313220,-1,3,6,12,9,8,3,1
1558441342321198,-3,-2,-6,-8,-3,3,0,-3
1558441342321198,-3,-2,-3,-2,-11,-8,-5,-2
1558441342336158,-2,-2,0,-1,-1,6,2,-2
1558441342336158,-1,-1,-2,1,3,-3,3,1
1558441342344136,0,0,-2,1,0,-6,-3,-3
1558441342344136,-3,-2,-1,-2,-4,-1,-5,-4
1558441342359095,0,-2,-3,-7,-4,-3,-2,2
1558441342359095,3,1,7,6,5,-10,3,3
1558441342359095,-1,-1,-3,-3,-4,7,-3,0
1558441342359095,-3,-2,-4,-4,-1,4,-2,-1
1558441342373058,-2,1,-2,-1,0,2,5,0
1558441342373058,-1,-1,-3,3,0,2,0,-2
1558441342381041,-4,-2,2,-2,-1,-7,-4,-2
1558441342381041,0,1,1,2,4,5,3,1
1558441342396005,-1,-4,-3,-5,-4,0,-8,-3
1558441342396005,1,0,1,-3,4,-1,3,2
1558441342404043,-1,-2,1,2,-3,-5,1,1
1558441342404043,-2,-3,-4,-3,-2,-1,-2,-2
1558441342419002,0,2,-1,0,0,2,0,-1
1558441342419002,-1,-3,1,1,-4,-1,-6,-5
1558441342419935,0,-2,-4,-3,-3,2,-5,0
1558441342419935,-1,0,3,2,1,-1,0,0
1558441342432907,-1,-3,-3,-3,3,-2,3,-1
1558441342432907,-2,-2,-4,-1,1,8,2,-2
1558441342440938,-1,-2,1,0,-4,-1,-4,-3
1558441342440938,-3,-4,-2,-4,-6,-13,-6,-3
1558441342455903,-1,2,0,-1,4,2,2,3
1558441342455903,-2,-2,0,3,0,7,-1,-2
1558441342463825,1,2,-1,0,3,-4,-1,-3
1558441342463825,-2,-3,-3,-4,-3,0,1,-2
1558441342478879,-1,-1,-4,-9,-5,3,-1,0
1558441342478879,1,-2,-3,-3,-4,-4,1,-1
1558441342479779,-1,1,4,4,10,7,4,3
1558441342479779,-2,-1,0,-3,-3,-2,-4,-2
1558441342493740,-3,-4,-7,-2,-5,0,-2,-5
1558441342493740,-1,1,1,-4,3,0,4,2
1558441342500720,-1,-1,-2,-1,-7,-10,-8,-5
1558441342500720,2,-1,-3,-6,0,2,1,1
1558441342515679,0,1,2,3,2,3,3,-1
1558441342515679,-3,1,-5,-4,-7,-9,-3,1
1558441342523656,-3,-3,4,1,-2,-5,-3,0
1558441342523656,0,4,0,4,9,9,3,0
1558441342538622,-1,-3,-8,-7,-4,1,-5,-1
1558441342538622,1,1,1,-1,-2,-2,-3,0
1558441342546598,0,-3,-2,-4,-9,-15,-5,-1
1558441342546598,1,-2,0,3,6,10,3,2
1558441342553576,-1,0,2,4,4,2,0,0
1558441342553576,-2,-3,-2,-1,-6,-4,0,-3
1558441342560556,0,1,-1,-1,4,-4,-1,0
1558441342560556,1,0,-3,-4,-6,-8,-5,-1
1558441342576514,0,-1,1,5,4,8,5,0
1558441342576514,-2,-2,-3,-4,-5,-4,-7,-5
1558441342583496,-2,-2,-1,0,-6,1,0,0
1558441342583496,-1,1,2,3,10,1,5,2
1558441342598460,-1,-1,1,0,-4,-7,-5,0
1558441342598460,-1,-1,-1,1,0,-4,-1,1
1558441342606640,-1,0,0,2,2,3,0,-2
1558441342606640,0,-2,-5,-11,-8,-4,-1,-2
1558441342613622,1,-1,-2,-2,-2,5,0,3
1558441342613622,-1,1,3,2,2,3,-2,-1
1558441342620601,-2,-3,-4,-1,2,1,6,0
1558441342620601,-1,-4,0,1,-1,6,0,0
1558441342636588,-1,1,1,0,0,-6,-1,-1
1558441342636588,0,-2,-1,-3,0,2,-2,-1
1558441342644650,-2,0,-4,-3,-5,-15,-8,-1
1558441342644650,-2,0,2,-1,-4,1,0,-1
1558441342658575,1,2,0,4,6,4,2,1
1558441342658575,-1,-2,-3,-3,-2,-4,-6,-3
1558441342666278,-1,0,-2,-1,3,13,6,-1
1558441342666278,0,-3,-1,1,-3,-12,-8,-3
1558441342673286,-4,-4,-3,-10,-5,-6,-2,-2
1558441342673286,-3,-3,-2,0,-1,6,1,2
1558441342681237,1,-2,-1,-2,4,14,4,1
1558441342681237,-2,0,-3,-5,-9,-12,-8,-1
1558441342696422,0,-1,0,4,-3,-13,-3,1
1558441342696422,-1,3,0,-3,-2,-6,-1,0
1558441342704175,-2,-3,0,0,4,2,1,0
1558441342704175,0,0,-2,0,-3,0,3,-1
1558441342718316,-4,-3,-1,0,-2,-2,-7,-3
1558441342718316,-1,0,-1,1,2,7,7,2
1558441342726117,0,3,1,4,-1,-4,0,0
1558441342726117,1,0,1,0,-1,0,-1,-1
1558441342742233,-2,-2,-2,2,-5,-13,-3,-4
1558441342742233,-2,-3,-1,-8,-2,-10,-5,-1
1558441342742233,-4,-3,-4,-5,-5,8,-3,-2
1558441342742233,-1,-2,-1,-2,-4,-5,1,-1
1558441342756320,0,0,0,0,3,6,1,-1
1558441342756320,1,-2,0,2,2,1,1,-2
1558441342764013,-2,-2,0,-1,-4,2,-2,-4
1558441342764013,-3,0,-4,-2,-2,-4,-3,0
1558441342778995,0,-1,0,-1,1,-7,2,0
1558441342778995,1,-1,-1,4,-2,-4,-1,-2
1558441342787188,1,1,2,-4,-4,-17,-2,1
1558441342787188,0,-3,-1,4,9,17,4,-1
1558441342802086,-1,-2,-1,-3,-3,1,-5,-2
1558441342802086,-2,-2,-5,-6,-7,-11,-4,-3
1558441342802086,-1,-2,-1,-2,1,7,2,1
1558441342802086,-3,0,-1,1,0,-11,0,-1
1558441342815875,-1,0,-2,0,3,10,1,-1
1558441342815875,1,-1,-2,-1,-1,-6,-3,1
1558441342824072,-1,0,-2,1,1,7,-4,-3
1558441342824072,-4,-3,-1,-2,1,8,-1,-2
1558441342838814,-1,0,-1,-1,-3,2,0,0
1558441342838814,-1,0,1,3,0,-9,1,2
1558441342846793,0,-1,-3,-3,-6,-7,-4,-2
1558441342846793,-1,-1,-2,-1,-3,-3,-4,-3
1558441342862047,-2,0,2,-3,-1,1,-2,0
1558441342862047,-1,-1,-4,-3,-3,5,0,-2
1558441342862047,-1,-2,-2,4,2,-2,-2,0
1558441342862047,-1,1,0,-1,4,-2,0,0
1558441342875989,-3,-3,0,-2,-3,-2,0,-2
1558441342875989,-1,1,0,0,-3,1,-2,-2
1558441342884702,0,-1,-4,-5,1,-3,1,0
1558441342884702,1,1,0,3,-6,-11,-3,-1
1558441342898655,1,0,-1,0,7,11,5,0
1558441342898655,-2,2,0,3,2,8,3,0
1558441342906633,-2,-2,-3,-2,-7,-2,-5,-4
1558441342906633,1,-1,-2,-3,-1,-3,0,1
1558441342921595,-2,-1,-5,-4,-4,-10,-5,-2
1558441342921595,-1,-2,0,3,1,8,0,-3
1558441342921595,-1,-2,2,-1,-3,-9,-2,-1
1558441342921595,0,0,-4,-6,-3,3,0,-1
1558441342935557,1,1,-1,1,-6,-22,-6,1
1558441342935557,-2,-1,-2,-8,6,3,2,3
1558441342944755,-1,-2,-2,-4,-3,5,0,-2
1558441342944755,-1,-1,3,1,2,-9,-2,1
1558441342958773,0,-1,-2,0,-7,-9,-3,-4
1558441342958773,0,-2,-2,0,5,7,2,0
1558441342966760,-2,-1,1,-2,1,-4,1,-2
1558441342966760,-4,-2,0,-1,-5,5,-2,-2
1558441342981432,-3,-4,-1,-3,-4,0,-4,-1
1558441342981432,-2,-1,-3,-2,-1,0,0,-3
1558441342982433,1,2,2,3,5,2,6,3
1558441342982433,0,1,0,2,8,12,2,0
1558441342996476,-1,-1,-1,-1,-3,-2,-1,-3
1558441342996476,-1,-3,-3,-3,-13,-14,-8,-3
1558441343004584,0,-2,-1,1,3,2,-1,-1
1558441343004584,-1,-2,0,-2,2,7,4,-1
1558441343018574,1,1,1,-1,2,-3,1,1
1558441343018574,-1,0,0,-2,-3,-4,-3,-2
1558441343026537,-2,-1,1,-1,-5,-6,-4,-3
1558441343026537,0,1,0,2,-1,-6,0,0
1558441343041503,-1,-1,-5,-9,1,6,-1,-1
1558441343041503,-1,-3,0,1,-2,3,-5,-1
1558441343042273,-2,-2,-6,-4,-3,-3,-3,1
1558441343042273,0,0,0,-1,1,-7,4,2
1558441343056327,0,-2,1,-1,-5,-3,-1,0
1558441343056327,1,0,5,5,11,13,10,2
1558441343064217,-2,-1,1,-5,-7,0,-3,-2
1558441343064217,-2,-5,-6,2,3,10,0,-2
1558441343078382,-1,0,2,4,2,11,4,1
1558441343078382,-3,-1,-2,-5,-12,-25,-5,-4
1558441343087152,0,-1,2,3,11,12,5,2
1558441343087152,-2,0,-3,-4,-10,-8,-6,-4
1558441343102111,2,1,2,4,3,-1,-1,0
1558441343102111,0,-3,-3,-2,-4,-2,-3,-2
1558441343102111,0,0,-2,-2,-3,-8,-3,-1
1558441343102111,0,-1,2,-1,1,4,-2,1
1558441343116073,0,-1,0,1,-1,-2,-2,-2
1558441343116073,-1,0,-2,-2,-3,-1,-1,-1
1558441343124051,-1,-1,-3,-1,-2,4,2,0
1558441343124051,-1,-3,1,-4,-3,-5,-5,-2
1558441343138043,-1,-3,-5,-2,-4,-2,-5,-3
1558441343138043,0,1,1,2,7,5,3,3
1558441343146020,-1,-1,-2,-2,-3,-11,-3,-3
1558441343146020,-3,0,-3,-2,-3,-3,-1,-1
1558441343162232,-3,-1,2,1,-3,-2,-1,-1
1558441343162232,-4,-4,-4,-9,-1,3,-2,-3
1558441343162232,0,-3,0,0,-3,-4,1,-1
1558441343162232,0,-1,-2,-1,3,4,-1,-2
1558441343175913,-1,-3,-2,-2,-4,-6,-5,-2
1558441343175913,0,0,0,-1,-2,-1,-3,0
1558441343184228,-2,-2,-3,1,-6,-1,-7,-5
1558441343184228,1,0,-2,-1,2,6,4,2
1558441343197853,1,0,0,-1,6,-6,3,1
1558441343197853,-2,-1,2,2,1,-3,-1,2
1558441343207109,-3,-5,-3,-3,2,0,-1,-2
1558441343207109,-2,-3,-2,-3,-13,-9,-10,-5
1558441343222021,-1,0,0,1,-1,3,4,1
1558441343222021,3,2,4,5,7,0,5,3
1558441343222021,-2,-1,-5,-6,-5,-5,-4,-3
1558441343222021,0,-1,1,2,4,6,2,0
1558441343235975,-2,-3,-1,-5,-4,-4,-4,-2
1558441343235975,1,-1,0,2,0,-12,-2,-1
1558441343268665,-2,0,0,2,2,-1,1,2
1558441343268665,-2,-2,0,-2,-1,-3,-1,-3
1558441343269664,0,-3,-4,0,1,8,-1,-2
1558441343269664,-2,0,2,-1,4,8,5,2
1558441343270661,-1,0,1,1,-2,-8,-3,-1
1558441343270661,-4,-1,-4,-3,-1,2,-2,-3
1558441343282627,-3,0,-2,1,-5,0,0,-3
1558441343282627,-1,-2,-1,-3,1,-4,-1,-1
1558441343288615,1,1,-1,1,5,1,3,1
1558441343288615,-2,0,1,2,1,-3,1,0
1558441343304601,-4,-3,-3,-4,-5,-5,-10,-4
1558441343304601,-3,-3,-1,1,-3,5,-3,-3
1558441343305568,0,-2,-1,0,0,0,1,0
1558441343305568,2,-2,0,-3,0,-1,1,1
1558441343320526,0,-1,-2,-4,1,0,0,0
1558441343320526,-1,0,0,0,-8,0,-2,-3
1558441343326509,1,1,1,-1,2,6,2,0
1558441343326509,-2,-2,2,0,1,0,-1,0
1558441343341973,-1,-1,-1,-2,-2,-1,-4,-1
1558441343341973,-2,-3,-3,-2,-1,5,1,-2
1558441343342468,0,-3,-1,-1,-2,-6,-3,2
1558441343342468,0,0,1,7,3,-3,1,1
1558441343356608,-3,-1,-2,-6,-2,-3,1,0
1558441343356608,-3,-1,-1,1,3,7,-1,-3
1558441343363801,-3,-4,-1,-3,-8,-2,-7,-5
1558441343363801,2,2,0,-1,0,-4,1,2
1558441343378720,-3,1,2,4,5,3,4,3
1558441343378720,2,-3,-2,-6,1,-7,3,4
1558441343386347,-1,-1,-1,-1,-3,-5,-3,-3
1558441343386347,-3,-2,-3,-4,-10,-2,-5,-4
1558441343401309,1,-1,0,0,4,5,1,0
1558441343401309,-2,0,-4,-1,-3,-1,-6,-1
1558441343402320,0,-1,0,-1,-1,4,1,-1
1558441343402320,-2,-2,-3,-5,-5,-7,-4,-3
1558441343433222,-1,-2,-1,0,-5,1,-2,-2
1558441343433222,-2,0,-1,-1,-5,-7,-6,-2
1558441343434220,1,0,0,-1,7,1,5,5
1558441343434220,-1,-1,-1,-2,0,-4,-3,-1
1558441343447351,-1,-2,-1,0,-2,3,2,-1
1558441343447351,-2,-1,-1,-1,-3,3,0,-2
1558441343448185,-1,0,-3,-4,-6,2,-4,-3
1558441343448185,-1,2,0,2,12,12,8,2
1558441343461596,0,1,4,2,3,-11,0,-1
1558441343461596,-2,-2,1,-3,-4,-2,-7,-2
1558441343462148,-3,-4,0,-1,-1,12,0,-2
1558441343462148,2,-1,-2,-2,-3,-11,-2,0
1558441343493531,0,-2,0,-3,-3,-7,-3,-2
1558441343493531,1,0,0,0,1,0,1,1
1558441343500411,-4,-2,-5,-3,-7,-4,-7,-2
1558441343500411,0,-2,0,0,-5,0,-2,-1
1558441343501042,0,1,-1,-3,5,1,2,2
1558441343501042,-3,0,0,2,-5,-11,-7,-1
1558441343546427,-2,-3,0,-3,-6,1,-2,-4
1558441343546427,-1,-2,-3,-1,2,-1,4,1
1558441343546920,4,3,0,5,3,-3,1,1
1558441343546920,0,-2,-4,1,2,3,1,-2
1558441343547917,-1,-2,-3,-5,-2,0,0,-2
1558441343547917,0,0,-2,-2,0,-1,-1,-2
1558441343553901,-2,-2,0,-2,-5,2,-5,-3
1558441343553901,-2,-3,-7,-3,-5,-4,4,-1
1558441343553901,-1,1,2,5,0,-13,-3,-2
1558441343553901,-1,0,0,-4,-3,-3,-4,-1
1558441343558398,-2,-1,-1,0,4,9,-2,-2
1558441343558398,-2,-1,1,-1,6,8,2,0
1558441343566404,-2,-1,0,-2,-1,-12,1,3
1558441343566404,-3,-3,-4,-1,-5,2,-2,-3
1558441343604580,-1,2,-2,0,-3,-11,-6,-1
1558441343604580,-2,-2,-3,-5,1,8,0,-4
1558441343613591,-1,1,-2,-1,3,-4,3,1
1558441343613591,-1,-1,1,-1,-7,-6,-7,-3
1558441343615274,-3,-4,-1,0,-4,0,-1,0
1558441343615274,2,-1,-2,2,1,-6,3,1
1558441343616526,1,1,2,3,7,12,7,3
1558441343616526,1,0,0,-1,-1,-4,-3,-4
1558441343619573,-4,-1,-4,-6,-9,-6,-9,-4
1558441343619573,-2,-2,-3,-2,-1,2,-3,0
1558441343659143,0,0,2,3,5,-4,5,2
1558441343659143,-1,-1,3,7,6,1,2,1
1558441343660411,-1,-2,-7,-12,-3,10,4,-4
1558441343660411,0,2,2,-1,-5,-11,-8,-4
1558441343660411,-2,-2,0,1,1,7,-1,-2
1558441343660411,0,0,-2,0,1,6,4,2
1558441343665113,2,-1,3,4,3,1,3,0
1558441343665113,-2,-3,-2,-2,-4,-6,-6,0
1558441343666111,-3,-3,-3,-4,-5,-2,-6,-4
1558441343666111,-3,0,-3,-1,-1,1,-1,-1
1558441343678079,-2,-3,3,1,2,-4,4,2
1558441343678079,0,1,3,1,0,-9,0,1
1558441343711239,0,-2,-3,-1,-7,-6,-8,-4
1558441343711239,-1,-3,-2,-4,0,2,-1,-1
1558441343711989,1,1,2,5,10,18,8,2
1558441343711989,0,-2,-3,-1,-2,-6,-3,-2
1558441343724960,-3,-1,1,-4,-4,0,0,-1
1558441343724960,-2,1,-1,-2,-7,-5,-6,-2
1558441343726947,0,-1,-2,2,0,1,3,1
1558441343726947,0,0,-2,-1,2,1,-2,-2
1558441343726947,-2,-2,-6,-4,3,10,-2,-2
1558441343726947,-4,-2,1,-2,-4,0,-1,-4
1558441343770844,1,3,1,2,2,-5,-3,4
1558441343770844,-1,-2,1,-3,-2,-12,2,0
1558441343771828,-1,-2,-3,-5,-10,-4,-9,-6
1558441343771828,1,0,-2,3,9,6,3,2
1558441343773248,-2,-1,-3,-2,-5,-6,-4,-3
1558441343773248,-1,-2,-5,-4,-8,-2,-6,-3
1558441343777280,1,1,0,5,12,10,10,5
1558441343777280,-1,-3,-1,-7,-5,-10,-7,-2
1558441343784251,0,0,-2,-1,-2,2,0,-3
1558441343784251,0,0,0,2,0,-4,-1,-1
1558441343784794,0,-1,-3,-3,-2,0,1,0
1558441343784794,-3,-1,2,3,2,2,0,-1
1558441343824158,-2,-2,-3,-1,-2,-14,-5,0
1558441343824158,-4,-3,-3,-1,-3,8,-3,-4
1558441343825867,-1,-1,1,1,-2,1,-2,-2
1558441343825867,0,3,-3,-2,-1,-18,1,-1
1558441343830129,0,0,0,-1,0,0,-1,-1
1558441343830129,-2,-2,0,0,-2,5,1,-2
1558441343830670,-2,-2,0,-1,-2,1,-1,0
1558441343830670,2,-1,2,0,9,11,8,5
1558441343844420,-1,-2,-1,2,-3,-2,-5,-5
1558441343844420,-3,-1,-4,-9,-3,-8,-1,0
1558441343845511,-2,-2,-3,-1,-1,-1,-2,-3
1558441343845511,-1,-2,-2,-2,-5,-9,-4,-2
1558441343876748,0,-1,-1,0,-1,-2,0,-1
1558441343876748,0,1,1,3,6,9,4,1
1558441343878370,-1,-2,-2,-2,-4,-12,-4,-2
1558441343878370,-2,-2,-1,-1,-4,4,-3,-1
1558441343880469,-1,-2,-5,-7,-5,-8,-2,-3
1558441343880469,1,0,0,2,2,1,1,0
1558441343889679,0,1,-3,-1,0,-1,0,-2
1558441343889679,-1,0,2,-1,-6,-1,-5,-3
1558441343927202,-2,-1,0,0,1,3,0,0
1558441343927202,-1,-1,0,0,0,-4,-3,0
1558441343936177,1,-2,-1,-1,1,4,1,1
1558441343936177,0,-3,-4,-5,2,4,-2,-1
1558441343937174,-2,-1,-4,-5,0,4,-4,-3
1558441343937174,-4,-1,1,1,-15,-15,-9,-3
1558441343938172,1,3,5,6,17,18,12,3
1558441343938172,-3,-1,-3,-4,-5,-5,-1,-2
1558441343942161,-1,-2,-1,1,3,2,4,0
1558441343942161,2,-2,-5,-8,0,2,-1,-1
1558441343949178,-2,-1,-2,-3,-4,-4,-6,0
1558441343949178,1,-2,2,4,-4,-12,-2,-1
1558441343988039,0,2,0,-4,2,-2,1,4
1558441343988039,-4,-5,-5,-3,-1,13,0,-3
1558441343989036,-2,-1,-1,-1,-12,-20,-7,-2
1558441343989036,-3,-1,0,-3,-1,-1,-2,-4
1558441343990468,0,0,-1,-2,4,10,1,2
1558441343990468,1,-1,-1,0,2,-3,1,1
1558441343994485,-1,-2,3,0,-6,-10,-6,-4
1558441343994485,1,-1,-3,-1,2,5,0,0
1558441344001457,-2,-4,-3,-3,-12,-12,-9,-7
1558441344001457,-1,1,1,3,5,11,1,0
1558441344009424,-1,0,-2,-6,7,6,9,4
1558441344009424,-1,-2,-3,0,-1,-3,1,-1
1558441344025217,-3,-3,-1,-4,-4,-3,-3,-1
1558441344025217,-2,0,1,1,0,0,3,0
1558441344025217,1,-2,1,4,-3,-8,-7,-3
1558441344025217,0,-1,1,-1,10,12,5,3
1558441344039902,0,0,0,0,-3,-11,-1,-2
1558441344039902,1,1,-1,0,1,0,-3,-4
1558441344046832,-3,-1,-5,-5,-10,-6,-5,-4
1558441344046832,1,0,-1,-2,5,10,4,2
1558441344061619,0,2,2,3,-4,-6,0,-1
1558441344061619,-1,-2,0,-3,4,-2,2,3
1558441344069820,-2,0,-3,-2,-6,-5,-8,-5
1558441344069820,1,2,-1,4,8,0,5,5
1558441344084216,0,-1,1,-1,1,-4,1,1
1558441344084216,-2,-2,-1,0,-2,0,0,1
1558441344084786,-2,-3,-2,-2,-6,-2,-5,-1
1558441344084786,-2,-2,-1,2,-3,-3,-4,-3
1558441344097751,-2,0,-1,-1,3,8,3,1
1558441344097751,-1,-3,-1,0,-3,-4,0,-3
1558441344107054,1,-2,-1,-2,0,-1,-3,-1
1558441344107054,-3,-3,-2,-2,-8,-3,-6,-3
1558441344120985,-2,-4,-5,0,2,7,-3,-2
1558441344120985,1,0,3,-1,4,0,4,1
1558441344136647,2,2,4,2,9,-3,8,4
1558441344136647,1,0,2,1,-3,2,0,-2
1558441344143628,0,0,2,1,0,-5,-4,1
1558441344143628,-2,0,-4,-4,-7,-3,-3,0
1558441344144623,-3,-2,-2,-2,-3,-2,-5,-1
1558441344144623,-1,-1,0,-3,-4,-1,3,0
1558441344158585,-1,-3,-3,-3,-2,-1,-4,-4
1558441344158585,-3,-1,-1,3,3,5,-4,-2
1558441344166566,-4,-3,-4,-12,-3,-9,-1,-1
1558441344166566,-3,0,-2,-1,-3,-5,-2,-1
1558441344180526,-2,-1,-2,-4,-5,-9,-4,-2
1558441344180526,-2,1,2,3,3,-5,2,1
1558441344189884,0,-2,-1,2,-1,6,3,-1
1558441344189884,0,-3,-4,-7,-6,-1,-8,-3
1558441344203465,0,-3,-2,0,-5,-5,0,-2
1558441344203465,0,-1,-2,-2,-1,2,2,-2
1558441344205460,-2,-1,1,3,3,3,1,-1
1558441344205460,0,-2,0,-4,-4,-11,-1,-2
1558441344218722,-2,-3,-1,1,4,10,2,1
1558441344218722,0,-1,-2,-2,-3,-2,-3,-2
1558441344226741,-3,0,-1,0,-2,5,0,0
1558441344226741,-1,0,-1,-1,0,-9,-3,-3
1558441344241538,0,-2,-3,-2,0,-5,-2,-1
1558441344241538,-1,-2,-1,0,1,-1,-2,-1
1558441344249694,0,-2,-3,-10,-5,-1,0,0
1558441344249694,-2,0,-4,0,0,0,-1,2
1558441344264303,-2,0,1,-2,2,5,2,1
1558441344264303,1,-2,-3,-4,-7,-5,-4,-4
1558441344264303,2,-3,2,6,-1,-12,-2,-1
1558441344264303,0,-2,-2,1,5,9,2,-1
1558441344278596,-1,-2,3,-2,-3,1,-3,-2
1558441344278596,0,-1,-3,-9,0,2,-1,2
1558441344286551,-2,-1,-2,-4,-2,9,2,-3
1558441344286551,1,1,9,3,-4,-10,-2,-1
1558441344301515,-5,-5,-14,-5,-6,-5,-5,-2
1558441344301515,-2,-1,1,1,-9,0,-1,-1
1558441344309215,2,-1,-2,2,11,-2,6,4
1558441344309215,-1,-2,-4,-4,0,-3,-4,-2
1558441344324464,1,1,6,3,1,6,4,-1
1558441344324464,-1,-2,-1,-2,-6,-6,-4,-3
1558441344324464,-1,-2,-7,0,-3,2,-3,0
1558441344324464,-2,0,2,-1,1,10,3,-1
1558441344338106,-2,0,-2,0,-4,-2,-1,1
1558441344338106,-1,-1,-2,-4,-3,0,-5,-1
1558441344346086,0,2,1,-2,-6,-14,-7,-2
1558441344346086,1,0,-1,1,1,-2,0,2
1558441344361053,0,1,4,0,6,4,3,1
1558441344361053,0,0,2,4,9,-5,4,2
1558441344369290,0,-3,0,1,-1,3,-4,-4
1558441344369290,-6,-5,-7,-7,-9,5,-6,-5
1558441344384196,4,2,2,1,-1,-14,1,2
1558441344384196,-3,-4,-2,-5,-3,1,-2,-2
1558441344384983,1,3,3,5,0,0,1,1
1558441344384983,-1,-1,-3,2,6,0,1,1
1558441344397947,-1,-3,1,-2,-7,3,-2,-3
1558441344397947,-1,-1,3,2,3,8,4,1
1558441344407089,-2,-1,-3,-3,-3,-6,-4,-2
1558441344407089,0,1,0,-5,-7,-7,-3,-3
1558441344421145,-2,-3,-1,1,-1,-5,-2,-2
1558441344421145,1,0,-2,-2,-1,0,-6,-2
1558441344429131,-1,-3,2,2,4,3,1,-1
1558441344429131,1,-2,-4,-9,-2,-1,-2,0
1558441344442858,-1,3,0,2,7,14,7,2
1558441344442858,-3,-3,-3,-8,-11,-17,-8,-3
1558441344451803,0,1,4,4,7,10,10,3
1558441344451803,-1,-2,-2,1,-4,-14,-4,-3
1558441344457786,-1,-2,1,-6,-8,0,-7,-4
1558441344457786,-2,-2,-4,0,1,0,-1,-1
1558441344466798,-4,-3,-5,-7,-10,0,-10,-5
1558441344466798,-1,-3,0,4,4,10,4,0
1558441344480724,0,-1,-1,-1,2,0,4,0
1558441344480724,0,2,3,3,9,9,4,1
1558441344488704,0,0,3,1,-4,-21,-5,-1
1558441344488704,-2,-1,-9,-12,-11,-8,-9,-3
1558441344502666,-1,0,-2,1,1,2,1,0
1558441344502666,-1,0,-3,-2,1,-2,3,1
1558441344511640,0,-2,-1,-2,-5,6,2,-2
1558441344511640,-2,1,1,1,-6,-4,-3,-3
1558441344518622,-3,-2,-2,0,-3,-5,-6,-2
1558441344518622,0,-1,1,0,-2,-3,-1,-1
1558441344526602,-2,-1,-4,-3,1,1,-1,-1
1558441344526602,-2,-2,2,0,0,2,1,0
1558441344540602,-1,-2,-3,-5,-1,-1,-6,-1
1558441344540602,0,-1,1,1,-1,-3,0,-1
1558441344548546,-2,0,-2,1,0,-3,0,0
1558441344548546,0,-1,0,1,-1,1,-1,-1
1558441344563502,0,-2,-3,-1,0,2,0,0
1558441344563502,0,-1,2,3,5,4,0,-3
1558441344571482,1,1,-2,-4,-5,-5,-3,-1
1558441344571482,0,0,0,1,3,1,4,1
1558441344578462,-1,0,3,1,0,-5,-1,-1
1558441344578462,2,0,-3,2,1,0,-3,3
1558441344586440,-4,-5,0,2,4,9,3,0
1558441344586440,-2,-2,1,-1,-4,2,-5,-3
1558441344600403,0,-2,-2,0,0,-4,-2,-1
1558441344600403,-2,-1,-2,-3,-7,-12,-4,-1
1558441344609380,2,-1,-1,3,5,8,3,0
1558441344609380,-1,-1,-2,0,0,-4,-2,0
1558441344623341,-2,-1,-2,-3,-5,2,0,0
1558441344623341,0,1,1,3,4,10,5,2
1558441344632319,-1,1,1,1,4,-3,0,0
1558441344632319,-1,-1,-1,-1,-1,-1,0,-1
1558441344647278,0,-3,-3,-1,-4,-6,-6,-2
1558441344647278,-1,-3,-5,-3,-3,3,-2,-1
1558441344648278,-1,-3,-3,-4,-1,4,-3,1
1558441344648278,1,-1,3,0,1,-8,1,-2
1558441344660243,-3,-1,-4,-5,-5,-5,-3,-3
1558441344660243,0,-1,-2,-2,3,2,2,-3
1558441344669220,0,1,2,2,2,-4,0,-1
1558441344669220,-2,-3,-3,0,-1,7,-1,-1
1558441344683182,-1,-1,0,-1,-3,-10,-5,-3
1558441344683182,-3,-2,0,0,-1,-3,-2,-3
1558441344692158,-2,0,-3,-3,-11,-7,-4,-5
1558441344692158,-1,0,-1,2,4,7,5,0
1558441344707119,2,0,2,1,4,11,5,1
1558441344707119,1,-2,0,0,-1,-5,-1,0
1558441344708116,1,0,0,0,3,-4,-2,0
1558441344708116,-2,-3,-2,1,-2,10,-1,-1
1558441344721096,-2,-1,0,0,-1,-11,-1,-1
1558441344721096,-3,-2,-3,0,-5,-7,-4,-2
1558441344730056,-2,-4,-6,-13,-7,-4,-4,-3
1558441344730056,-2,-1,0,0,6,6,2,0
1558441344751999,0,0,-3,-1,1,-4,-2,2
1558441344751999,0,1,1,2,3,9,10,3
1558441344753994,-4,-2,-2,0,1,3,-2,-2
1558441344753994,-1,0,0,-6,-6,-11,-5,-2
1558441344766958,0,1,1,0,-2,-1,1,-2
1558441344766958,-2,-3,-3,-4,-6,1,-4,-4
1558441344768953,0,-1,1,0,-1,0,0,-1
1558441344768953,0,-1,2,2,0,-3,-2,1
1558441344780922,-1,-3,-1,-2,-2,-3,-2,-3
1558441344780922,-2,-3,-4,-4,-4,-1,-1,-2
1558441344789897,-3,0,1,1,-3,3,0,-3
1558441344789897,0,-1,2,0,-3,-8,-5,1
1558441344802862,-1,0,-5,-2,4,-1,2,0
1558441344802862,-1,1,-1,0,4,2,-3,-1
1558441344811837,-2,-2,-4,-11,-1,-3,2,0
1558441344811837,-2,0,-2,1,0,1,-1,-2
1558441344826797,-2,-4,-1,-3,-4,3,1,-1
1558441344826797,2,-1,1,0,1,3,1,0
1558441344832782,-2,-3,-2,-2,-6,-8,-5,-3
1558441344832782,0,0,-1,-2,2,2,6,3
1558441344840760,0,-1,-4,0,-3,-5,-3,0
1558441344840760,-1,-2,-2,-2,-5,0,-3,-4
1558441344849738,0,-2,0,2,0,0,0,-1
1558441344849738,1,-1,-4,-2,-2,-14,-6,1
1558441344862744,-2,0,0,2,6,4,2,-1
1558441344862744,-3,-2,-3,-5,-9,-5,-6,-3
1558441344871677,3,0,5,4,14,7,14,5
1558441344871677,-4,-2,-3,-1,-5,-5,-3,-2
1558441344885674,0,-1,2,0,-3,-2,-3,-1
1558441344885674,-1,-2,-3,-5,-5,-6,-5,-1
1558441344894617,-3,-2,-4,3,-2,6,-3,-1
1558441344894617,-2,-3,-1,-2,-3,-1,1,-3
1558441344909615,-2,0,-1,-3,-4,-1,-4,-2
1558441344909615,-2,-2,-1,1,-1,1,-3,-4
1558441344910616,1,0,-2,1,0,-12,-2,-1
1558441344910616,2,-1,0,0,8,13,7,3
1558441344924847,-2,-3,-5,-2,-2,1,-1,0
1558441344924847,-1,1,4,1,1,-6,1,1
1558441344932514,-2,-1,-3,-1,-9,-12,-8,-2
1558441344932514,1,2,-4,-9,4,5,5,2
1558441344945521,-1,-4,-2,0,2,4,-1,-1
1558441344945521,0,-2,-1,-2,-2,2,2,2
1558441344954464,-3,-1,-2,-1,-1,9,-3,-2
1558441344954464,-3,-3,-4,1,-11,-3,-8,-7
1558441344960477,0,1,3,-2,4,-6,1,1
1558441344960477,0,-2,-1,-3,5,2,3,-1
1558441344969417,2,1,3,1,-2,2,2,1
1558441344969417,-4,-3,-3,-3,-2,-7,-7,-3
1558441344983378,-2,-1,-2,-4,-7,1,-3,-1
1558441344983378,-1,0,1,1,2,-9,-2,0
1558441344992354,-1,-2,-2,2,1,1,0,0
1558441344992354,-2,-3,-5,-9,-5,0,-1,-4
1558441345005322,1,-3,1,0,-8,-1,-6,-5
1558441345005322,-3,-2,-5,-2,1,-10,-1,1
1558441345014298,2,2,1,6,7,8,6,5
1558441345014298,1,-1,3,2,-4,-9,-1,-1
1558441345020279,-3,-4,-5,-6,0,4,0,-3
1558441345020279,1,-1,0,0,1,10,-1,-2
1558441345029256,-3,-2,-1,-6,-7,-7,-4,-2
1558441345029256,-3,-1,-1,0,-7,0,-3,-4
1558441345043220,1,2,2,4,4,-6,6,1
1558441345043220,0,-1,0,5,4,-3,4,1
1558441345052194,-1,-2,-9,-14,-6,3,-3,-4
1558441345052194,1,-2,2,3,-2,-2,2,0
1558441345065166,-3,-2,-2,-1,-4,1,-3,-3
1558441345065166,0,-2,-1,1,4,5,0,5
1558441345074163,-1,0,5,0,-1,-13,-3,0
1558441345074163,1,1,1,0,1,4,0,-1
1558441345081118,0,-2,1,1,-3,0,-3,0
1558441345081118,-2,0,1,-1,-4,1,-2,-1
1558441345089132,-2,-1,-2,-2,0,-9,0,0
1558441345089132,-1,-1,1,3,2,-3,-3,-1
1558441345103093,-1,2,0,-1,3,4,1,-1
1558441345103093,2,0,-3,-1,-3,0,-2,-2
1558441345112036,-2,0,-2,-3,-5,7,-3,0
1558441345112036,-2,-4,-5,-4,1,-1,-2,-1
1558441345126039,1,0,2,3,2,5,3,1
1558441345126039,0,-1,-6,-1,-2,-13,-1,-2
1558441345135008,1,0,1,1,2,1,2,0
1558441345135008,0,-2,1,1,0,-9,-2,0
1558441345140994,-1,-2,-1,0,1,7,1,0
1558441345140994,0,-1,-2,-3,-2,-5,-6,-3
1558441345149933,-2,-4,-3,2,-2,6,-3,-3
1558441345149933,0,0,2,2,1,-2,2,-1
1558441345162936,-2,-1,-3,-2,0,-9,-2,-2
1558441345162936,-5,-3,1,-2,-6,3,-3,-4
1558441345171875,-1,-1,-2,0,-1,-4,0,1
1558441345171875,-1,-1,-1,-4,-5,0,-3,0
1558441345185897,-2,0,-1,-1,5,1,-1,1
1558441345185897,2,1,1,-2,1,3,5,2
1558441345194871,-2,-2,-2,-5,-3,0,-4,-4
1558441345194871,-4,-4,0,3,0,3,-5,-2
1558441345200857,1,-2,0,-2,-5,-9,-2,-2
1558441345200857,-1,0,-3,-3,3,-10,1,0
1558441345209813,-1,-2,2,2,3,6,3,0
1558441345209813,-2,-1,-8,-6,-2,-4,-2,0
1558441345222740,-1,-2,0,-2,-6,4,-4,-1
1558441345222740,-2,0,4,1,-4,-2,-2,0
1558441345231752,1,-2,0,-3,-4,-12,-1,-3
1558441345231752,0,0,3,5,7,0,5,2
1558441345245677,-1,-1,-1,-2,-2,-5,-2,-1
1558441345245677,0,0,-3,-1,-1,-6,-1,-2
1558441345254654,-1,-1,-3,1,-2,4,-3,-4
1558441345254654,-4,0,0,-4,-12,-4,-4,-3
1558441345260638,-2,-2,-6,-6,2,-2,0,-1
1558441345260638,0,-3,0,1,2,-5,-2,1
1558441345269613,0,0,3,1,0,3,-1,1
1558441345269613,0,0,-1,-2,-2,5,2,-3
1558441345283576,-2,-1,-2,-1,-8,-13,-8,-4
1558441345283576,-1,0,0,1,-2,-3,-2,-1
1558441345292568,-3,-3,-7,-10,-3,-3,-2,-1
1558441345292568,0,-2,-2,0,2,10,6,2
1558441345305552,-1,-2,-1,0,1,3,4,-1
1558441345305552,-1,2,-1,-2,-5,4,0,-2
1558441345314495,0,1,1,2,-2,-8,-2,-1
1558441345314495,3,2,0,1,13,5,7,3
1558441345320974,-4,-3,-7,-3,-5,-5,0,-3
1558441345320974,-2,-2,-2,-2,-3,1,-3,-1
1558441345329894,-2,0,1,0,-3,-7,0,-1
1558441345329894,0,-3,-4,-4,-7,-11,-10,-3
1558441345343863,0,1,3,5,5,18,6,1
1558441345343863,0,-4,-3,-2,1,-6,0,-2
1558441345352396,-3,-2,0,0,-3,1,-1,0
1558441345352396,0,0,-1,-2,-3,-8,-5,-3
1558441345366582,-2,2,0,2,-1,-9,-2,1
1558441345366582,0,-3,-4,-13,1,13,5,0
1558441345374644,0,-3,-2,0,-3,-1,-1,-3
1558441345374644,-3,-1,-3,-2,-6,2,-4,-2
1558441345389294,0,0,-1,-1,-3,1,-1,-1
1558441345389294,0,3,2,3,6,1,6,1
1558441345391288,1,2,0,1,9,3,-2,0
1558441345391288,-2,-1,-2,-2,-4,-4,-3,-2
1558441345403257,0,-4,-3,-3,-3,-3,-5,-2
1558441345403257,-2,-2,0,2,0,7,0,-4
1558441345418217,-3,-3,-6,-3,-6,4,-3,-4
1558441345418217,1,-4,4,8,9,4,7,3
1558441345425197,1,-1,1,-6,-6,-11,-3,0
1558441345425197,-3,-2,-1,-1,-2,4,-4,-1
1558441345434172,1,0,2,3,6,7,6,2
1558441345434172,-1,0,-3,-3,-6,-11,-2,-3
1558441345440184,2,0,1,1,5,7,0,2
1558441345440184,-2,-3,-1,1,-3,3,0,-1
1558441345449137,0,-3,-1,-3,-6,-7,-4,-2
1558441345449137,0,-1,0,-1,2,7,-1,-1
1558441345463097,-3,-2,-2,-2,-4,-3,0,-1
1558441345463097,-1,2,0,0,5,3,3,1
1558441345472071,0,0,-2,0,5,-1,2,1
1558441345472071,2,2,3,2,0,0,-1,1
1558441345486061,-4,-1,-3,-2,-5,7,-3,-4
1558441345486061,-2,-2,-5,-6,-12,-10,-7,-5
1558441345495010,2,1,5,7,16,1,14,5
1558441345495010,-2,-1,1,-3,3,-4,-1,-1
1558441345501022,0,0,-1,3,2,0,2,1
1558441345501022,0,-3,-2,-3,-7,-12,-9,-2
1558441345509969,-4,-2,-2,-3,-4,13,-1,-2
1558441345509969,-1,2,-1,-1,0,2,1,-1
1558441345522935,1,-1,-2,0,8,-1,2,1
1558441345522935,-4,-2,-1,0,-4,0,0,0
1558441345537897,-1,-2,-4,-5,-7,-12,-10,-4
1558441345537897,-3,-5,-3,-2,-5,6,0,-3
1558441345545915,-2,-3,1,-1,-2,-6,-2,-3
1558441345545915,1,1,1,-1,2,0,3,2
1558441345554850,-2,-3,-1,-1,1,4,-1,-1
1558441345554850,-2,-1,-2,0,-8,-8,-3,-4
1558441345569810,1,0,-2,-3,3,-1,-2,-2
1558441345569810,-1,-2,0,0,-1,1,-6,-3
1558441345570807,-2,-1,1,1,-4,5,0,1
1558441345570807,-1,-1,-3,-4,2,-14,0,3
1558441345582776,-1,-1,4,0,-1,1,0,-2
1558441345582776,-1,0,-1,-1,-1,-4,1,-1
1558441345591765,0,-1,-4,-4,-5,-15,-3,0
1558441345591765,-2,0,2,3,5,11,1,-1
1558441345605714,-2,-2,-4,-2,-6,-5,-2,-2
1558441345605714,1,-1,3,3,5,-1,1,1
1558441345614690,0,1,2,-1,1,6,0,-1
1558441345614690,-2,-1,-9,-15,-8,0,-4,-2
1558441345629650,-2,1,3,0,2,-1,0,2
1558441345629650,0,-1,-3,-3,-5,-7,-2,-2
1558441345630648,-5,-3,-3,-1,-6,-5,-3,-2
1558441345630648,0,3,2,1,5,6,0,1
1558441345642616,1,-2,-3,-2,-5,-9,-3,-1
1558441345642616,-1,-1,-2,-2,-1,0,-1,-1
1558441345651591,0,-1,-2,-1,1,5,0,-1
1558441345651591,0,-4,0,0,0,5,2,1
1558441345665554,2,-2,0,-2,-3,-6,-2,-1
1558441345665554,0,-1,-2,-1,2,1,1,1
1558441345674531,-2,-1,-1,-4,-4,-6,-1,-1
1558441345674531,-1,-3,1,0,-6,-8,-7,-1
1558441345689490,-3,-1,0,-1,3,9,3,2
1558441345689490,0,1,0,1,1,-5,1,0
1558441345690491,-2,-1,-1,-3,-2,2,-2,-4
1558441345690491,1,0,0,1,1,-3,0,0
1558441345703452,-3,-2,-2,4,-3,-6,-1,-2
1558441345703452,-1,-1,-6,-10,-8,-2,-4,-4
1558441345712430,-1,-1,-1,-2,0,-5,-3,-4
1558441345712430,-3,-1,3,2,2,2,1,1
1558441345725421,-3,-2,-1,2,0,4,0,-1
1558441345725421,-1,-1,1,1,1,2,-4,0
1558441345734369,1,-1,-1,-1,0,-12,0,0
1558441345734369,-1,-1,-2,-2,-3,-6,-4,-3
1558441345749330,-1,0,-1,-4,0,-1,-4,0
1558441345749330,-2,-1,-1,0,-4,-4,-2,-1
1558441345751325,-1,0,-1,0,2,5,4,1
1558441345751325,0,0,0,0,0,0,2,-2
1558441345763295,0,0,-1,-2,-1,-4,0,1
1558441345763295,-1,-2,0,5,3,5,-3,-3
1558441345772269,-1,-2,-2,-8,-1,3,2,0
1558441345772269,0,-2,-4,-3,3,0,4,-2
1558441345785234,1,-2,-1,-2,1,4,0,-2
1558441345785234,-3,-2,0,-3,1,0,1,0
1558441345794217,0,-1,0,3,-7,-4,-5,0
1558441345794217,0,0,-3,-1,-1,-4,-3,0
1558441345809170,0,-3,-5,-5,-7,-8,-3,-1
1558441345809170,0,-2,0,2,-3,2,-3,-2
1558441345811165,0,0,2,2,8,6,2,3
1558441345811165,-1,-1,1,1,0,-3,-1,0
1558441345823134,0,-1,0,0,-1,1,-1,-3
1558441345823134,0,0,-3,-2,-4,0,-1,-3
1558441345832111,-1,-2,-5,-4,-8,1,-2,-4
1558441345832111,1,-2,-1,0,6,-8,2,3
1558441345846079,0,-1,1,0,2,-9,-3,-1
1558441345846079,-3,-1,-1,-3,-3,0,-2,0
1558441345854051,-1,-1,-2,1,5,12,1,0
1558441345854051,-1,-1,-3,-2,-7,-1,-3,-2
1558441345869010,-3,-2,0,0,0,6,-2,-2
1558441345869010,-2,-3,-5,-10,-3,0,-1,-2
1558441345876988,0,-2,0,1,-5,-16,-2,-2
1558441345876988,-1,-1,-2,-4,-1,-5,-3,-1
1558441345882975,-1,-1,-2,-1,0,5,-2,-2
1558441345882975,1,1,0,0,-2,-5,-6,-1
1558441345891951,0,0,1,0,2,6,3,-2
1558441345891951,-1,1,-1,-3,-6,-4,-3,-2
1558441345905920,-1,-1,-3,-1,1,4,3,-1
1558441345905920,-1,-1,-1,1,1,2,4,2
1558441345914889,0,0,0,-2,0,3,0,-1
1558441345914889,-1,1,2,3,1,9,4,1
1558441345928850,0,-2,-4,-3,-4,-4,1,-1
1558441345928850,-2,-3,-2,0,-3,-5,-2,-2
1558441345936829,-1,-2,1,4,-2,-7,-4,0
1558441345936829,-2,-2,-4,-10,-5,2,3,-1
1558441345942816,0,-2,1,-1,0,6,1,0
1558441345942816,1,2,1,0,-1,-2,0,-2
1558441345951809,-1,-1,-1,-2,-5,-13,-7,-1
1558441345951809,-2,-2,-1,1,2,-2,-3,-2
1558441345965753,-2,-3,-2,-4,-6,-12,-6,-2
1558441345965753,1,-1,0,0,0,-2,-2,-1
1558441345974729,0,0,1,4,1,13,2,1
1558441345974729,-1,-2,0,-2,-2,-7,-4,-3
1558441345989688,0,0,0,1,6,6,1,1
1558441345989688,-3,-2,-2,0,-4,-5,-3,-3
1558441345995672,-2,-1,-4,-3,-4,-2,-3,-2
1558441345995672,0,-2,-2,0,-3,0,-1,-1
1558441346003652,0,2,2,4,0,-5,-1,0
1558441346003652,2,-2,0,-1,-4,-11,-4,-2
1558441346011629,-3,-2,-3,1,0,5,2,0
1558441346011629,0,-4,-7,-11,1,2,2,-1
1558441346025591,-1,2,0,-1,-4,-6,1,4
1558441346025591,0,-2,-2,-2,3,1,1,0
1558441346034568,-2,-1,-1,-4,-4,-1,-2,-3
1558441346034568,-1,1,1,4,1,-2,-3,0
1558441346049530,-3,-1,0,0,-4,-1,0,-1
1558441346049530,-2,-3,-2,0,-4,6,-1,-3
1558441346050528,-2,-1,-1,-3,1,-9,-6,-4
1558441346050528,-2,-1,-1,0,-1,-1,3,0
1558441346063491,2,1,0,-2,4,1,1,1
1558441346063491,0,0,4,5,3,6,2,1
1558441346072466,-2,-3,-7,-3,-8,-5,-8,-5
1558441346072466,-1,-3,0,-1,-1,1,-2,-1
1558441346085432,0,-1,-2,-1,-4,-4,-1,-2
1558441346085432,1,1,1,1,12,9,10,5
1558441346094408,-1,-1,1,2,0,0,0,0
1558441346094408,-2,-1,0,1,-1,-1,-4,0
1558441346109368,-3,-2,-4,-1,-2,8,3,-3
1558441346109368,-3,-1,0,0,2,-2,-4,-1
1558441346111362,1,-1,-1,-2,-1,-6,-3,-2
1558441346111362,1,-1,2,1,-4,-16,-2,0
1558441346123334,-1,-4,-2,-2,-2,4,-5,-5
1558441346123334,1,0,-2,0,-4,-11,-2,-3
1558441346132306,-1,-1,-4,-7,6,10,7,0
1558441346132306,-2,1,-2,-3,-5,1,-5,-4
1558441346145271,-1,-3,-1,-2,-8,-15,-9,-3
1558441346145271,0,1,-1,-1,3,15,7,1
1558441346154247,0,-2,4,3,-1,-12,1,0
1558441346154247,0,0,-1,4,2,1,-4,-3
1558441346169207,-1,2,1,-2,4,9,6,4
1558441346169207,-2,-1,-2,0,0,-3,-6,-1
1558441346171204,-3,-3,-2,-5,-5,-2,-6,-1
1558441346171204,0,0,2,2,5,6,6,1
1558441346183171,-3,1,0,-3,-6,-13,-5,-2
1558441346183171,-2,-1,-3,-6,-10,-2,-5,-3
1558441346192147,-1,0,0,0,10,17,7,2
1558441346192147,-1,-5,-1,-1,-3,-4,0,-1
1558441346206108,0,-2,-3,0,-1,1,2,-5
1558441346206108,-1,-1,-1,-5,-4,-16,-2,1
1558441346221069,1,-1,-3,-1,0,-5,-5,-2
1558441346221069,-4,-3,-1,-1,-4,6,-4,-1
1558441346230049,0,-1,1,1,4,9,1,8
1558441346230049,0,-1,-1,0,6,1,1,-4
1558441346231045,-1,3,-3,-3,-6,-2,0,-1
1558441346231045,-2,-1,-2,0,-7,-2,-5,-3
1558441346243010,-1,-1,-4,-10,-4,4,0,-1
1558441346243010,-1,-1,2,1,-7,-11,-2,0
1558441346251988,2,-1,0,-1,12,5,5,4
1558441346251988,-1,-2,0,3,3,9,3,0
1558441346265950,-2,-2,-2,-1,-5,1,-5,-5
1558441346265950,-3,-1,-2,-3,-11,-5,-5,-4
1558441346274925,0,1,2,2,2,-3,3,1
1558441346274925,1,2,-1,-5,0,-5,2,0
1558441346288892,0,0,1,2,5,-8,-1,1
1558441346288892,-2,-4,-2,-1,-2,8,-3,-4
1558441346295870,-1,-4,0,2,-6,-11,-4,0
1558441346295870,0,-1,-4,-12,-1,-1,0,0
1558441346302852,-3,-4,-2,-4,-3,-2,-2,-4
1558441346302852,-1,-3,-3,2,0,-7,-4,-1
1558441346311829,1,1,3,0,0,4,-1,-1
1558441346311829,0,0,-2,2,-8,-10,-3,-2
1558441346325795,3,-1,-1,0,5,5,4,0
1558441346325795,-2,2,0,-1,4,-3,2,3
1558441346334764,-1,-4,-3,-1,-9,-13,-8,-4
1558441346334764,0,0,-2,-1,11,12,4,1
1558441346348728,-1,0,1,1,0,-3,-3,-1
1558441346348728,-2,-4,-1,-2,-5,6,-4,0
1558441346363688,-1,0,1,3,0,-8,3,3
1558441346363688,-2,-2,-6,-12,-8,-8,-6,-6
1558441346364695,0,-2,0,-1,-2,-1,1,0
1558441346364695,0,-1,-1,-1,0,-2,2,1
1558441346371669,-2,0,-3,-2,-4,2,-6,-3
1558441346371669,-1,-1,2,6,1,-1,2,3
1558441346385630,-2,-2,-2,1,-2,1,-2,-2
1558441346385630,-1,-1,1,0,3,2,4,1
1558441346394608,-2,-1,-2,-2,-1,-4,-1,-1
1558441346394608,1,-1,3,6,-3,5,-1,-2
1558441346408568,-1,-2,-6,-11,-1,0,-1,-1
1558441346408568,2,-2,0,0,-3,-3,-4,-2
1558441346415553,-2,-3,-3,-2,-1,-7,-3,0
1558441346415553,1,1,3,0,1,1,1,1
1558441346423527,-4,0,-1,3,1,-2,0,0
1558441346423527,-1,0,-3,-3,-2,-2,-3,-2
1558441346432504,-1,0,-1,-3,3,18,1,0
1558441346432504,-2,-4,1,3,-3,-7,-4,-1
1558441346445473,1,-1,0,-2,-1,-10,-4,-1
1558441346445473,-1,-2,1,-1,-2,1,2,0
1558441346454447,-1,0,0,1,-5,-2,-1,-4
1558441346454447,-1,1,-2,-2,2,7,-2,-1
1558441346477385,-2,-2,1,1,-1,-8,3,1
1558441346477385,-1,0,-1,-1,0,-4,-4,0
1558441346478381,-3,-1,-1,-6,-6,5,-5,-2
1558441346478381,-1,-1,-2,-2,-3,-3,1,-1
1558441346499331,2,0,3,4,8,-6,2,2
1558441346499331,-1,-1,-1,1,1,0,0,1
1558441346501321,0,-1,0,0,-2,1,2,-1
1558441346501321,-4,-3,-4,-4,-7,-4,-9,-5
1558441346505311,0,0,-1,-1,0,0,-1,1
1558441346505311,-1,-1,-3,0,-5,-6,-1,-2
1558441346514287,-1,-3,-2,-3,1,4,2,0
1558441346514287,0,1,1,2,3,-12,3,2
1558441346529246,-1,2,2,2,-1,7,1,-5
1558441346529246,-1,-3,-6,-14,0,-4,1,1
1558441346535241,1,0,0,2,-5,-3,-2,0
1558441346535241,-1,-4,0,-1,-8,-10,-7,-4
1558441346552211,-1,0,-1,2,0,8,2,-2
1558441346552211,1,3,0,2,10,12,5,2
1558441346553181,-2,-2,-3,-4,-4,-8,0,0
1558441346553181,-1,0,8,6,7,-4,0,1
1558441346565152,-2,-1,0,-1,-4,1,-5,-3
1558441346565152,-2,-3,-1,2,5,13,2,-1
1558441346574125,-2,-1,-4,-2,-5,-7,-1,-1
1558441346574125,0,-1,-3,-2,0,1,-4,-2
1558441346589086,-2,-3,-5,-5,-8,-3,-3,-3
1558441346589086,-2,-4,9,8,-5,-3,-4,-5
1558441346614018,1,2,-1,-3,2,-5,-4,0
1558441346614018,0,-1,-4,2,2,-2,4,2
1558441346615020,-1,1,-1,-2,9,8,7,5
1558441346615020,-1,-1,0,-5,-5,-10,-4,0
1558441346618007,-2,-2,4,4,0,5,-1,-2
1558441346618007,-1,-2,-4,-2,-1,5,-1,-3
1558441346625986,-1,-4,-6,-9,-12,-1,-7,-2
1558441346625986,0,-2,-6,-3,-3,-6,-2,-2
1558441346641943,-1,-1,1,-2,-6,-14,-5,-2
1558441346641943,0,1,-3,-3,6,16,7,2
1558441346648925,-1,-1,1,4,3,2,4,0
1558441346648925,-1,0,2,-1,-3,-8,-2,-2
1558441346655907,-1,-1,-2,0,5,8,-1,-1
1558441346655907,-4,-4,-1,-2,-1,10,1,-2
1558441346671862,-1,-2,0,-2,-6,-20,-9,-2
1558441346671862,1,1,-4,-3,-5,4,-1,-2
1558441346672860,-2,-3,-4,-5,-2,-9,-3,0
1558441346672860,2,5,4,3,6,0,7,4
1558441346685827,-4,-1,-2,1,4,10,0,-1
1558441346685827,-2,0,0,-1,-8,-6,-4,0
1558441346694803,-2,-2,-2,1,2,6,-2,-3
1558441346694803,-1,0,-2,-3,-3,1,-4,-1
1558441346708764,2,-1,1,-2,-6,-11,-3,0
1558441346708764,-1,-1,-3,0,-1,-3,-1,0
1558441346715748,-1,-1,-2,3,-1,3,-1,-2
1558441346715748,-2,-3,5,4,4,-8,2,-1
1558441346731703,3,1,-8,-12,1,0,1,2
1558441346731703,0,0,2,0,4,2,2,7
1558441346733697,-2,-4,-2,-1,-7,-3,0,-6
1558441346733697,-2,-2,-4,-4,-7,-2,-9,-5
1558441346745664,0,-2,-4,-3,-6,-3,-6,-4
1558441346745664,1,-2,-2,1,5,2,1,0
1558441346754641,-1,1,-1,0,0,-4,2,2
1558441346754641,-1,-2,2,-5,-5,-1,-4,-2
1558441346768613,-3,-1,-1,3,4,2,1,-1
1558441346768613,1,2,1,-2,1,-2,1,0
1558441346775591,0,0,0,3,5,4,0,1
1558441346775591,0,-2,-6,-2,-2,5,0,-2
1558441346799521,-2,-2,0,2,-3,-4,-2,1
1558441346799521,-1,-2,-2,0,2,8,3,-3
1558441346800518,-2,-2,-1,-3,-7,-4,-7,-4
1558441346800518,3,0,1,-1,2,-5,4,3
1558441346805505,0,-1,0,0,6,3,3,0
1558441346805505,1,0,0,0,4,4,2,-1
1558441346814484,0,-1,-1,-2,-1,3,1,0
1558441346814484,-1,1,-2,-2,-5,11,-3,-2
1558441346828443,1,-2,-1,-2,-4,-9,-2,-1
1558441346828443,-2,0,-1,2,2,-11,5,1
1558441346835427,1,0,-4,-2,-4,-1,-1,0
1558441346835427,-1,-2,-2,-4,0,-2,-4,-1
1558441346852380,-3,-3,-2,-2,-4,3,-4,-3
1558441346852380,-9,-6,-4,-3,-5,4,-3,-6
1558441346853377,-3,-7,-5,-8,-3,-5,1,-4
1558441346853377,5,3,0,1,4,-13,6,4
1558441346865346,-2,-3,6,5,-1,-2,-1,-2
1558441346865346,0,-1,5,-7,1,1,-5,2
1558441346874320,0,2,-2,0,-1,-2,-4,-6
1558441346874320,-5,-3,-1,-2,-4,2,-4,-2
1558441346889303,2,1,-8,-4,-2,6,3,-1
1558441346889303,3,4,1,2,8,0,7,6
1558441346895267,-2,-1,11,4,4,-2,-1,0
1558441346895267,2,2,-5,5,-2,-3,-1,-3
1558441346912219,-3,-2,-3,-8,-9,-3,-6,-4
1558441346912219,1,-1,0,0,-4,-4,-3,-2
1558441346913220,3,2,-5,-4,1,1,3,3
1558441346913220,-4,-3,8,8,5,5,0,0
1558441346925190,-2,-3,-1,3,-2,2,-4,-3
1558441346925190,0,-2,-1,0,-4,0,3,1
1558441346934171,3,1,1,-3,3,-16,1,4
1558441346934171,-5,-3,-4,-2,-4,1,-5,-2
1558441346949121,-1,-2,2,2,4,3,2,1
1558441346949121,-1,-3,-5,-4,-9,-3,-8,-5
1558441346955105,2,1,0,9,11,11,7,1
1558441346955105,-1,-3,-1,-6,-1,-12,-3,-2
1558441346972069,-3,-2,1,-3,-3,-1,-4,-2
1558441346972069,-2,-1,-3,0,-5,0,-2,-3
1558441346973059,-1,-1,-5,-1,-5,5,-4,-1
1558441346973059,1,-1,-3,-8,-2,1,0,-2
1558441347001981,3,1,-2,1,6,-1,4,3
1558441347001981,-2,-2,-3,-2,-4,-6,-6,-4
1558441347002978,-3,-1,6,4,1,-3,-2,1
1558441347002978,0,0,1,-2,-2,-6,-2,1
1558441347008963,-1,-2,-11,-2,1,5,-4,-2
1558441347008963,-2,-1,-5,-5,-6,-2,-1,4
1558441347015943,-3,-2,-3,-8,-5,-3,-2,-5
1558441347015943,-1,-1,5,6,-4,-5,-2,-5
1558441347031900,3,1,-3,-10,1,-9,5,3
1558441347031900,-3,-3,-2,1,2,12,-4,-4
1558441347032898,-2,-1,-2,-4,-1,-3,3,1
1558441347032898,-1,-1,-4,3,-2,-3,-4,-4
1558441347045863,-2,-1,-1,-3,-6,0,-3,-4
1558441347045863,-2,-4,4,3,4,-5,-1,0
1558441347054838,-2,-3,2,-3,-6,-9,-4,0
1558441347054838,-2,-1,-3,-1,0,3,1,-1
1558441347068800,-1,3,-2,2,2,-2,-4,2
1558441347068800,0,3,2,3,1,-6,-4,-4
1558441347076778,-2,-3,0,-2,0,-2,1,-1
1558441347076778,0,-4,-3,1,0,6,1,2
1558441347091743,4,3,3,-3,-8,-2,-3,-3
1558441347091743,-6,-4,-2,0,-3,-5,-5,-3
1558441347093734,1,2,1,7,6,7,8,6
1558441347093734,-6,-2,0,0,1,-11,0,0
1558441347105714,-12,-12,-1,4,1,1,1,-2
1558441347105714,1,0,1,0,-9,4,-8,-7
1558441347114680,-3,-3,-5,-2,-5,-2,-3,-1
1558441347114680,1,0,-6,-4,4,9,5,3
1558441347128671,-7,-5,4,6,0,-1,-10,-8
1558441347128671,1,0,-2,0,0,3,2,3
1558441347136620,1,1,-2,-4,-1,-1,-1,-1
1558441347136620,3,3,-5,-8,-4,-2,2,2
1558441347152583,2,2,5,4,0,-9,0,2
1558441347152583,-2,-1,-5,-5,0,-1,2,-1
1558441347158562,9,3,-1,-5,-1,3,0,3
1558441347158562,-11,-3,-3,1,-7,-7,-10,-7
1558441347165550,2,1,-9,-13,7,13,8,4
1558441347165550,-3,-3,7,6,1,-1,0,-1
1558441347174518,-3,-3,-2,0,-3,-4,-4,-2
1558441347174518,-1,-3,-4,-9,-3,-1,-5,0
