timestamp,emg1,emg2,emg3,emg4,emg5,emg6,emg7,emg8
1558434092922262,-5,-3,-3,4,3,-2,0,-1
1558434092922262,3,7,9,9,10,-7,3,4
1558434092923261,-5,-20,-16,-9,-6,-1,-2,-6
1558434092923261,3,4,1,-3,-4,-1,0,-4
1558434092924257,-2,3,2,1,0,-4,-2,-1
1558434092924257,2,-4,6,3,-4,-1,-1,1
1558434092925254,1,7,-2,2,7,6,3,2
1558434092925254,-5,-8,-6,-6,-12,-5,-2,-2
1558434092937222,4,10,4,-3,-4,-1,1,1
1558434092937222,3,-2,-8,-6,-3,0,-2,1
1558434092943207,-9,-6,-1,-2,5,2,-3,-3
1558434092943207,-1,-2,-1,5,7,7,2,0
1558434092952183,0,3,6,6,6,-6,0,1
1558434092952183,-2,0,0,-2,-6,-10,-2,0
1558434092967143,4,7,13,2,-6,-4,-1,2
1558434092967143,-2,3,-18,-8,-2,-3,-3,-4
1558434092974124,-3,-12,-2,2,1,1,-2,-3
1558434092974124,-2,-2,-1,0,8,8,3,0
1558434092982102,-1,3,0,0,1,-3,-2,-2
1558434092982102,1,5,8,-2,1,4,2,1
1558434092997062,-2,0,-9,-8,-13,-9,-3,0
1558434092997062,-4,-13,-10,0,3,3,5,-1
1558434093003046,3,7,3,-2,-4,-4,-2,3
1558434093003046,-12,-14,1,-2,-2,0,-5,-8
1558434093049922,2,7,7,4,0,2,-1,1
1558434093049922,3,3,-10,-4,-2,-5,2,2
1558434093050919,-3,-4,1,2,-3,-1,-1,-1
1558434093050919,0,-1,5,4,-1,3,0,1
1558434093050919,-3,-5,-7,-6,-7,-11,-6,-4
1558434093050919,-1,2,4,1,-3,0,-4,-7
1558434093051915,3,5,4,1,8,8,7,3
1558434093051915,0,-1,-5,-5,0,-4,-1,1
1558434093062888,-2,1,7,2,4,3,3,3
1558434093062888,-2,-10,3,-1,-1,2,-3,-2
1558434093070864,-2,-6,-14,-11,-11,-4,-7,-9
1558434093070864,-3,0,0,3,2,3,-1,-3
1558434093077846,-1,1,3,1,3,2,7,4
1558434093077846,-4,-4,0,-3,-6,-6,-4,3
1558434093093804,2,7,6,0,-1,-11,-2,9
1558434093093804,-4,-6,-5,-1,-2,-1,-6,-15
1558434093100789,4,1,-2,-1,0,3,-3,-1
1558434093100789,-4,-8,-2,0,1,-3,0,-3
1558434093107766,-1,0,2,-1,-6,2,0,-2
1558434093107766,5,10,0,-1,-8,-9,-3,0
1558434093122726,-7,-16,-4,2,1,1,0,-3
1558434093122726,3,6,0,1,6,2,2,3
1558434093130704,5,3,0,-7,1,2,-1,2
1558434093130704,-5,2,-10,-6,0,-4,-2,1
1558434093139680,-9,-1,-7,-11,-12,-4,-9,-9
1558434093139680,-11,-26,2,8,6,5,4,3
1558434093153642,-6,-8,3,9,6,-1,3,-3
1558434093153642,1,-5,-6,-10,-4,5,-1,-2
1558434093160625,7,14,2,2,-1,-7,3,3
1558434093160625,4,12,-7,-8,-8,-4,-7,-5
1558434093176582,-5,-3,9,8,-1,-1,-6,-4
1558434093176582,1,0,-1,-12,-1,1,3,4
1558434093182565,-3,0,-8,-3,-2,-2,-2,-1
1558434093182565,0,-8,-1,0,6,1,1,2
1558434093190544,6,7,9,5,4,1,4,5
1558434093190544,-4,-2,-10,-1,-4,1,-7,-5
1558434093199520,7,5,-10,-1,3,0,2,-2
1558434093199520,-5,1,7,2,0,-1,-4,-2
1558434093213483,-1,-1,-5,-4,-3,-1,1,-1
1558434093213483,-6,-3,3,5,3,-5,0,-1
1558434093220464,4,-8,11,-1,-3,-3,-3,-1
1558434093220464,-1,1,-9,1,0,2,-1,-3
1558434093227456,-2,1,-3,-1,-3,5,-3,-2
1558434093227456,6,1,11,3,-2,-5,2,5
1558434093243403,-6,0,1,-5,-3,-2,-2,-2
1558434093243403,0,-1,-7,3,4,6,4,0
1558434093250384,-4,-8,-1,-5,4,-1,2,-1
1558434093250384,1,5,2,1,-1,2,-1,-1
1558434093259360,2,-2,-2,0,2,4,2,3
1558434093259360,-3,0,-18,-13,-8,-6,-10,-8
1558434093273322,-3,-3,-9,-2,-3,-7,-4,-2
1558434093273322,-2,-2,4,3,-1,0,2,-3
1558434093280304,1,-3,9,3,2,0,4,1
1558434093280304,5,2,2,-6,-1,3,1,0
1558434093288283,-3,-1,-5,-4,-3,-1,-2,-4
1558434093288283,3,1,6,5,2,-10,1,5
1558434093303244,0,5,10,12,2,2,-1,0
1558434093303244,0,2,-10,-15,-9,-13,-5,-1
1558434093310225,0,0,-2,-3,-2,-6,-5,-3
1558434093310225,-5,-11,-3,-1,0,10,2,-2
1558434093319201,1,1,-2,-2,2,3,-4,-3
1558434093319201,-3,-2,10,9,-3,-10,0,-1
1558434093333164,4,-1,-2,-4,2,-5,-2,2
1558434093333164,1,4,-7,-2,-3,-4,-6,-2
1558434093340144,-15,-14,-12,-4,-3,0,-2,-5
1558434093340144,0,1,0,7,2,5,3,-3
1558434093348122,-5,0,1,-7,-5,-8,-3,-4
1558434093348122,4,9,13,6,-3,-3,2,4
1558434093363082,-6,-17,-15,-8,1,-3,-4,-2
1558434093363082,2,11,7,3,7,14,4,1
1558434093370063,0,1,-2,3,3,5,3,3
1558434093370063,-3,-7,-5,-1,-1,-2,-4,-3
1558434093379040,0,-2,-5,-1,-3,2,-1,-2
1558434093379040,-1,0,2,-3,-3,-5,1,2
1558434093394002,8,3,-1,3,3,1,-4,-2
1558434093394002,-5,-5,-5,-3,0,3,3,0
1558434093399986,4,3,4,2,-1,0,0,-2
1558434093399986,0,1,1,2,-2,-3,-2,1
1558434093407963,-4,-14,5,-4,0,2,2,1
1558434093407963,-1,1,-2,-2,2,-4,-1,0
1558434093422922,0,0,-5,-5,-6,-6,-6,-4
1558434093422922,2,3,3,-2,-11,-7,-5,-5
1558434093430901,-2,-2,-6,6,7,6,8,1
1558434093430901,1,0,4,5,6,0,1,1
1558434093438879,0,2,1,-5,-4,-5,0,-1
1558434093438879,3,7,9,0,0,1,2,-1
1558434093453841,-9,-21,-14,-6,-10,-1,-8,-9
1558434093453841,0,4,-5,-6,-4,-3,3,1
1558434093460821,-1,-4,3,6,8,-1,3,3
1558434093460821,-3,-5,-2,-5,-3,4,-3,-2
1558434093467802,0,7,6,5,1,-8,2,3
1558434093467802,-1,-5,-3,-2,-2,-4,-6,-3
1558434093484758,3,8,16,5,0,1,3,4
1558434093484758,1,0,-24,-8,-2,-2,0,-1
1558434093490741,-6,0,0,-11,-1,5,0,-3
1558434093490741,-4,-5,0,-1,-11,-7,-6,-8
1558434093499718,-2,-1,0,2,8,8,1,2
1558434093499718,5,-1,7,6,6,1,4,3
1558434093513680,-2,0,-10,0,-4,4,-2,-2
1558434093513680,-4,-5,-1,-6,-6,2,0,-1
1558434093520662,0,0,-2,-3,-8,-11,-7,-3
1558434093520662,-2,-8,1,-1,-6,-3,-8,-2
1558434093527644,5,11,9,11,4,2,1,-1
1558434093527644,2,4,2,-5,1,1,-2,-1
1558434093542603,-10,-22,-10,6,9,0,6,0
1558434093542603,-5,-2,-6,-1,-5,-12,-3,1
1558434093550582,-3,-7,-8,-11,-7,-6,-5,-2
1558434093550582,6,8,8,3,6,4,1,1
1558434093559558,-8,-8,-5,-9,-6,2,-5,-4
1558434093559558,-3,0,6,4,1,2,2,0
1558434093573519,2,3,6,6,-5,-9,-2,1
1558434093573519,-4,-5,-6,-1,3,3,0,-1
1558434093580501,5,12,3,2,-6,-3,-7,-4
1558434093580501,-1,-5,-8,-3,13,24,14,2
1558434093587484,3,0,-7,-6,-2,-10,-5,2
1558434093587484,-13,-11,-11,-3,-1,-1,-1,-4
1558434093602444,-1,-1,2,-2,-5,-8,-2,-1
1558434093602444,0,2,5,0,-5,-3,-4,-4
1558434093610421,-1,-1,1,2,1,5,0,-2
1558434093610421,-2,-5,-7,-4,-3,-4,-2,-1
1558434093619399,3,5,1,1,0,-2,-4,-4
1558434093619399,-3,-1,-2,-2,-8,-6,-6,-3
1558434093633362,-1,-2,-3,-2,2,2,4,0
1558434093633362,9,12,11,11,13,-3,8,7
1558434093640341,8,15,9,5,6,6,5,5
1558434093640341,-8,-16,-16,-13,-7,-5,-4,-6
1558434093656299,-4,-8,-5,-2,-4,-4,-5,-2
1558434093656299,-6,-11,-8,-11,-13,-3,-4,-5
1558434093663280,5,5,-3,-3,0,-2,1,2
1558434093663280,5,12,11,7,7,-1,1,2
1558434093670261,-5,-1,0,0,-4,3,-2,-2
1558434093670261,0,-4,-10,-4,-2,1,0,-1
1558434093679237,-4,-5,-5,-5,-6,-1,-3,-3
1558434093679237,-4,-4,5,5,2,6,2,-1
1558434093694198,3,5,5,5,2,-6,2,1
1558434093694198,2,1,1,7,11,5,3,2
1558434093702175,-3,-1,-3,-9,-5,-8,-1,-1
1558434093702175,-1,0,5,-3,-5,-5,-5,-1
1558434093716138,-3,-6,-25,-9,-1,6,1,-2
1558434093716138,-3,-2,3,0,-6,-4,-5,-4
1558434093723120,-2,-6,-5,0,-4,3,-1,-3
1558434093723120,1,0,2,-2,-6,-10,-5,1
1558434093730101,3,2,5,6,7,-1,2,2
1558434093730101,-2,0,-4,-5,-2,-5,-2,1
1558434093739077,-1,6,-3,-2,2,1,0,-2
1558434093739077,-4,-6,-4,2,4,0,1,6
1558434093754037,-1,4,8,2,-3,1,-3,-10
1558434093754037,-1,-4,-6,-2,-1,1,-2,-2
1558434093760023,-2,0,-9,-9,-8,-6,-1,-3
1558434093760023,2,1,-12,-7,-3,1,-3,-5
1558434093775979,-8,-7,4,5,1,0,1,2
1558434093775979,-2,-11,3,3,4,3,0,1
1558434093782961,0,-4,1,1,4,7,3,1
1558434093782961,3,3,0,-1,-1,-7,1,-1
1558434093789941,2,5,-1,-1,2,3,-3,-3
1558434093789941,1,2,9,4,2,0,5,2
1558434093798917,-2,-6,-12,-4,-3,3,-2,-1
1558434093798917,-2,-2,-1,-3,-5,-5,-4,-3
1558434093813877,2,4,1,-1,1,0,0,2
1558434093813877,-5,-8,-2,-3,-2,2,-1,-3
1558434093820858,1,3,-4,-6,-12,-7,-8,-4
1558434093820858,5,5,7,8,4,-1,0,1
1558434093835817,-14,-12,2,-3,-3,-6,-1,0
1558434093835817,-2,6,-16,-9,-9,-6,-10,-3
1558434093842800,-4,-14,0,4,7,-3,4,3
1558434093842800,2,4,-1,-5,-2,1,-3,-2
1558434093850778,2,3,4,0,-6,-3,-3,2
1558434093850778,-3,-3,3,3,7,5,1,-2
1558434093859755,-6,-5,-13,-5,-11,-9,-7,-8
1558434093859755,0,-3,4,4,-1,-6,1,1
1558434093873716,3,2,0,-1,2,0,0,1
1558434093873716,1,3,4,-3,-7,-6,-3,-1
1558434093880698,3,6,5,6,11,15,8,4
1558434093880698,-6,-6,-10,-2,-3,-3,-3,-2
1558434093896662,0,-1,0,0,-1,3,-1,-2
1558434093896662,0,-5,-9,-8,-13,-10,-9,-9
1558434093902638,4,0,8,5,12,9,8,5
1558434093902638,-2,0,-4,2,9,5,5,5
1558434093910622,2,2,-3,-4,-5,-7,-5,-2
1558434093910622,5,7,2,-2,-8,-2,-4,-3
1558434093925582,-15,-10,0,3,-2,-1,0,-2
1558434093925582,-2,-5,-2,0,-4,-3,0,-2
1558434093933564,2,7,3,-3,-1,-2,-2,-2
1558434093933564,-1,-4,2,4,9,11,3,0
1558434093940540,0,1,-6,-8,-8,-7,-2,-3
1558434093940540,-2,2,-1,-3,1,-3,1,-1
1558434093956497,-1,-1,-2,0,3,5,2,-1
1558434093956497,-4,-1,-5,1,0,0,1,2
1558434093962480,5,8,12,1,-1,2,2,0
1558434093962480,-4,-3,-6,-2,0,-1,-6,-4
1558434093970458,2,-3,-3,0,0,0,3,1
1558434093970458,-1,1,2,2,4,2,4,2
1558434093985425,0,0,-2,3,2,-8,-3,0
1558434093985425,3,0,3,0,-3,0,2,2
1558434093993399,-2,-1,-3,-2,-7,-4,-4,-2
1558434093993399,-2,-2,-3,0,2,3,0,-2
1558434094000381,0,0,4,-5,-6,-4,-8,-2
1558434094000381,-4,-3,-4,0,0,0,-1,-3
1558434094024322,1,0,5,4,12,4,1,3
1558434094024322,3,3,-9,-6,-5,-2,3,-1
1558434094025313,-6,-10,-8,0,-1,-6,-2,-4
1558434094025313,-1,1,-1,-7,-9,-2,-3,-3
1558434094047255,-1,0,0,1,-6,-3,-5,-1
1558434094047255,4,7,8,5,11,6,5,4
1558434094048254,1,-1,-7,-7,-9,-9,-5,-3
1558434094048254,-10,-11,-6,2,0,1,0,-5
1558434094053247,0,-1,5,-1,2,2,2,0
1558434094053247,-3,-1,-7,-6,-9,-16,-6,1
1558434094062215,0,3,-4,-5,0,1,2,-1
1558434094062215,1,-2,7,3,2,3,-1,-1
1558434094076176,-5,-9,-11,-11,-5,-1,-4,-4
1558434094076176,-1,-1,7,4,2,-1,0,1
1558434094083164,2,2,0,8,12,2,1,4
1558434094083164,0,0,0,-5,-7,-3,-4,-2
1558434094099115,1,0,2,-1,-6,2,-1,-3
1558434094099115,-2,-3,-5,-3,-5,0,0,-2
1558434094106108,2,6,6,6,0,-2,-1,0
1558434094106108,4,6,4,3,8,5,3,3
1558434094122168,-5,-11,-10,-6,-6,-6,-5,-5
1558434094122168,-2,-1,3,0,0,-2,-2,0
1558434094123058,0,-2,0,-1,-8,-2,-4,-4
1558434094123058,4,4,5,4,4,2,0,-1
1558434094136029,-2,1,1,-1,1,-4,-3,-2
1558434094136029,-1,-2,-7,-2,1,-1,-1,1
1558434094143005,-4,-2,-1,-3,0,-1,-4,-1
1558434094143005,-2,-1,0,-4,-5,-4,-4,-1
1558434094158958,2,-3,4,3,-3,-3,3,-1
1558434094158958,-5,-5,-8,-5,-6,-2,-2,-7
1558434094165938,1,1,5,1,4,1,1,1
1558434094165938,-1,-4,-5,-4,-2,-4,-2,-2
1558434094181898,-1,2,9,4,5,4,0,2
1558434094181898,-1,-4,-7,2,1,5,-3,-3
1558434094182892,-2,-5,-17,-10,-8,-5,-4,-3
1558434094182892,2,-3,5,1,5,4,6,2
1558434094195858,-13,-10,-7,-5,-10,-3,-5,-2
1558434094195858,-2,-3,3,-1,-5,-9,-7,-2
1558434094202839,3,4,-2,8,20,24,12,5
1558434094202839,0,-2,0,2,-4,-11,-4,0
1558434094218794,1,-1,-7,-4,-2,0,1,-1
1558434094218794,-1,4,11,0,-5,-3,-1,0
1558434094225775,-1,-2,-6,-4,-5,-3,-5,-5
1558434094225775,-3,-4,-6,4,3,-2,0,1
1558434094242083,3,5,1,1,1,-2,0,2
1558434094242083,-2,-1,6,-5,-3,2,-4,-2
1558434094243727,-4,-4,-17,-12,-8,0,-1,-3
1558434094243727,0,1,5,2,5,0,3,-1
1558434094256480,-4,-5,-8,0,1,-6,-2,-1
1558434094256480,4,3,5,4,2,3,4,1
1558434094263563,2,-2,14,9,6,-1,-1,1
1558434094263563,-2,2,-8,-8,-6,-2,-6,-5
1558434094279328,0,2,0,-3,-4,0,0,-5
1558434094279328,0,-8,-6,3,3,4,0,-1
1558434094286102,-1,0,5,1,-2,-10,0,1
1558434094286102,0,-1,-1,-4,-3,-1,-1,-1
1558434094302228,4,4,2,3,2,-2,-3,1
1558434094302228,-3,4,-3,-5,-5,-1,-2,-1
1558434094302986,-3,-3,-2,-2,-6,-2,-3,-2
1558434094302986,-9,-16,-11,-3,1,-1,-5,-4
1558434094315950,3,5,2,1,7,7,4,5
1558434094315950,-2,-4,-3,-2,-2,-9,-5,-5
1558434094322938,-6,-4,-10,0,2,1,-2,-5
1558434094322938,4,9,8,-5,-6,-3,2,0
1558434094338895,-2,-3,-7,-4,-4,-1,0,-1
1558434094338895,-3,-4,0,3,1,-8,-7,-3
1558434094345876,-9,-4,4,-2,-1,-1,-1,0
1558434094345876,-3,-7,-1,2,-1,6,0,-2
1558434094361823,3,4,-2,-5,-3,-4,-4,-3
1558434094361823,2,3,3,-1,-3,-10,-2,2
1558434094362821,4,3,4,0,0,-3,2,0
1558434094362821,-6,-4,-2,0,-2,6,3,-2
1558434094375787,-2,-4,-2,1,-3,-4,-2,-2
1558434094375787,1,2,-1,-3,-7,-3,-1,0
1558434094382768,1,-2,12,5,6,12,4,3
1558434094382768,3,3,-11,-1,8,4,-2,2
1558434094398724,-3,-2,-7,-7,-5,-6,-3,-2
1558434094398724,-4,-9,-3,-2,-4,-3,-5,-2
1558434094405706,1,2,6,4,2,-8,2,2
1558434094405706,0,0,-2,-2,-7,-7,-2,-1
1558434094421663,1,2,2,-1,-1,4,1,-1
1558434094421663,-6,-4,-9,0,-1,3,-1,-4
1558434094423660,0,1,-2,-5,-3,-7,-4,-1
1558434094423660,3,0,6,2,0,3,2,0
1558434094435626,0,3,-6,-6,-4,-5,-5,-3
1558434094435626,-1,-4,4,-1,6,11,5,0
1558434094442607,0,-3,-5,-1,-4,-1,-8,-4
1558434094442607,0,0,2,3,-1,-1,1,1
1558434094458576,5,4,7,6,8,0,6,5
1558434094458576,-1,-3,-5,0,1,0,0,-2
1558434094465559,-3,-2,1,-3,-3,-1,-3,-5
1558434094465559,-2,-3,-12,-16,-13,-8,-6,-5
1558434094481564,-3,-1,6,6,2,3,2,1
1558434094481564,-2,-3,-6,-3,0,2,2,3
1558434094483508,1,2,6,2,3,0,1,1
1558434094483508,-3,4,-4,1,-1,-1,-4,-2
1558434094496570,-2,-14,4,-1,-1,-4,-1,-3
1558434094496570,3,7,-5,-6,-11,-5,-4,-4
1558434094503444,1,-3,-5,1,2,-4,-2,1
1558434094503444,1,-5,6,-3,5,9,8,1
1558434094518404,2,4,-2,3,9,8,2,2
1558434094518404,-3,-5,-3,-2,-2,-10,-1,-1
1558434094525385,1,2,-4,-4,-6,-2,-1,-2
1558434094525385,-1,0,5,6,2,-1,-4,1
1558434094541345,-1,-4,-12,-5,-9,-7,-4,-2
1558434094541345,2,2,0,-2,-4,-2,-2,-2
1558434094543339,-1,-1,-4,-2,-4,-2,0,-2
1558434094543339,-1,4,6,6,9,1,4,1
1558434094556549,-2,-4,0,-6,-6,1,0,-1
1558434094556549,-2,-3,1,-2,2,-2,-3,2
1558434094563535,0,-1,-3,-1,-1,0,1,-5
1558434094563535,0,0,1,-2,-5,-6,-4,1
1558434094578245,-1,4,3,1,3,2,0,0
1558434094578245,-2,-2,-4,1,-1,-1,2,-2
1558434094585430,-3,-5,-1,-7,-6,0,-4,-5
1558434094585430,2,6,2,1,4,9,4,0
1558434094602460,-2,-7,1,-1,-3,-7,-4,1
1558434094602460,5,5,-5,5,8,2,4,5
1558434094603179,-2,-1,-6,-3,-7,-3,0,0
1558434094603179,-2,-1,-2,-7,-12,-9,-6,-4
1558434094615145,-1,-1,-5,-4,-1,1,-3,-6
1558434094615145,-1,-5,7,3,0,1,0,0
1558434094624434,-2,1,3,2,-1,-5,-3,0
1558434094624434,-1,1,1,7,13,9,6,1
1558434094639403,0,1,-1,-5,-8,-8,-4,-4
1558434094639403,-4,-4,-9,-8,-2,3,-3,-3
1558434094646238,0,0,1,1,-2,-3,0,0
1558434094646238,-6,-8,3,-1,-5,-9,-8,-2
1558434094662023,0,1,-7,1,1,1,-1,-1
1558434094662023,1,1,1,-1,3,4,3,-1
1558434094663021,-1,-9,-5,-5,-1,3,0,0
1558434094663021,0,0,2,1,-2,2,-3,-2
1558434094676055,4,7,6,4,3,4,2,1
1558434094676055,-11,-14,-4,-2,-5,-9,-3,-2
1558434094684965,3,1,-7,-5,0,-4,-3,0
1558434094684965,0,-2,-8,-2,0,2,1,0
1558434094698925,0,-5,0,0,2,8,4,0
1558434094698925,3,7,4,2,2,-3,1,2
1558434094705914,-1,1,3,1,-3,-2,-1,1
1558434094705914,-2,-3,-3,-4,-4,-6,-6,-3
1558434094721866,-6,-3,2,-1,-5,-6,-5,-4
1558434094721866,2,4,-6,-3,-1,0,-2,-1
1558434094722863,-1,-3,6,5,12,12,8,3
1558434094722863,-3,-4,-10,-8,-8,-6,-2,-2
1558434094735823,-3,-8,-12,-8,-4,-5,-2,-1
1558434094735823,1,-1,8,5,1,-4,-2,-2
1558434094744798,1,1,-2,-4,-4,5,-3,-4
1558434094744798,1,0,0,-1,-1,-11,1,0
1558434094759028,-1,0,1,2,1,-9,0,0
1558434094759028,5,3,0,1,4,3,5,1
1558434094765773,-2,-1,-8,-5,-6,-4,-5,-3
1558434094765773,-7,-6,-1,-3,0,5,2,0
1558434094789949,-3,5,10,5,4,8,-1,0
1558434094789949,0,3,-14,-10,-12,-13,-6,-2
1558434094790681,-2,-9,-6,0,7,5,2,0
1558434094790681,-2,-3,1,2,-2,-2,-2,-2
1558434094795664,0,-3,-6,-5,0,2,1,0
1558434094795664,-1,4,7,6,2,4,-4,-3
1558434094804639,0,3,5,0,1,-3,-1,2
1558434094804639,1,-2,-4,-4,-8,-5,-6,-4
1558434094818609,0,0,6,4,-6,-5,0,1
1558434094818609,-1,-3,-1,-6,3,7,1,0
1558434094825856,-4,-9,-9,-9,-11,-11,-5,-3
1558434094825856,0,4,6,3,7,5,3,0
1558434094842576,-1,-3,-4,-1,-1,0,-1,-2
1558434094842576,-3,-3,-1,2,3,-3,2,2
1558434094843538,1,4,1,3,0,2,-4,-1
1558434094843538,6,5,0,-5,-3,0,1,0
1558434094855736,-12,-11,-4,2,-1,-3,-4,-3
1558434094855736,4,4,19,8,1,0,-1,0
1558434094864481,-8,-7,-25,-8,4,2,2,0
1558434094864481,-4,-2,1,-6,-6,-4,-4,-4
1558434094878717,-1,0,-11,-6,1,7,0,-4
1558434094878717,-3,-2,4,0,0,3,-3,-3
1558434094885688,4,4,9,4,-1,-7,2,3
1558434094885688,0,-1,-4,3,0,-1,1,1
1558434094901631,-1,-1,-2,-2,3,-1,-4,1
1558434094901631,0,8,10,-2,-1,4,1,0
1558434094908362,2,3,-3,0,-1,-10,1,2
1558434094908362,-4,-13,-12,1,6,-1,-2,-2
1558434094915376,0,2,-4,-7,-6,-1,1,2
1558434094915376,0,-3,-6,-2,-1,-6,-5,-1
1558434094924322,0,4,6,-1,-3,5,0,-2
1558434094924322,2,1,-2,-1,-4,-5,-5,0
1558434094939369,4,6,6,3,2,-3,0,0
1558434094939369,-7,-8,-12,-1,-2,2,3,1
1558434094945296,-1,0,7,6,10,7,6,3
1558434094945296,-4,-6,-3,1,-3,-1,-2,-1
1558434094961222,1,0,-4,-4,-5,-2,-5,-2
1558434094961222,-2,-3,-2,-3,-5,0,-3,-3
1558434094968437,-3,-1,1,-1,-5,-5,-5,-5
1558434094968437,4,7,7,5,7,0,4,3
1558434094984362,1,-2,-2,-2,-1,0,1,-1
1558434094984362,-3,-4,-4,-5,-2,-1,-2,-3
1558434094986162,-1,-5,3,1,-1,5,0,-2
1558434094986162,-2,3,2,-1,-3,-1,0,-3
1558434094998128,-1,-1,6,3,-3,-5,1,2
1558434094998128,-2,-4,-17,-4,-2,0,0,-1
1558434095006178,3,0,-3,-3,-4,-3,-2,-1
1558434095006178,-8,-7,-2,-4,3,6,3,0
1558434095021093,2,3,3,0,0,-6,-4,-2
1558434095021093,0,-3,1,2,5,-1,0,0
1558434095035059,0,0,4,0,-6,-3,-4,-3
1558434095035059,-2,-6,-15,-6,-6,-3,-6,-3
1558434095043999,-1,-2,4,4,3,6,5,3
1558434095043999,3,3,4,1,2,1,1,0
1558434095045993,-3,-2,-3,1,-4,-4,-3,-1
1558434095045993,2,3,6,3,11,4,6,5
1558434095059305,-3,-3,-8,-8,-6,-4,-6,-4
1558434095059305,1,-2,2,2,-4,2,2,0
1558434095065941,0,2,2,-4,-2,-8,-2,0
1558434095065941,-4,-1,6,1,-5,2,-2,-7
1558434095081192,0,-4,-12,-3,5,5,1,1
1558434095081192,0,-4,-4,-2,-1,-1,0,-1
1558434095088187,1,1,-2,0,2,5,1,-1
1558434095088187,3,1,3,-6,-10,-5,-3,-1
1558434095104944,-12,-7,-8,-1,-3,-3,-3,-4
1558434095104944,-1,-5,1,-6,-8,-5,-4,-1
1558434095105837,-1,1,-1,1,1,3,-2,-1
1558434095105837,2,1,1,3,6,6,1,3
1558434095119035,0,-2,4,2,2,0,-3,-1
1558434095119035,-2,1,-2,-6,-7,-7,1,1
1558434095125990,0,1,9,5,1,-3,-2,-1
1558434095125990,-1,-1,-20,-11,0,2,-1,0
1558434095141777,2,1,2,2,-3,-12,-5,-3
1558434095141777,-2,-4,-4,3,10,9,3,0
1558434095147947,1,1,4,0,-1,-1,-1,-3
1558434095147947,-3,-5,-5,-3,-4,0,-3,-1
1558434095164903,2,0,1,-1,-4,-2,2,-1
1558434095164903,1,1,-2,-1,-1,-6,-2,0
1558434095165675,-7,-10,-3,0,-1,-1,-1,-2
1558434095165675,1,1,-1,5,-1,2,-4,-2
1558434095178868,1,3,-2,-10,-4,2,2,0
1558434095178868,-7,-5,3,4,4,-3,-1,0
1558434095185846,0,0,2,-2,-4,-7,-7,-2
1558434095185846,-1,1,-5,5,4,-3,1,0
1558434095201585,2,1,4,4,4,2,0,-1
1558434095201585,-9,-6,-2,-6,-7,2,0,-4
1558434095207565,-3,-5,-11,-7,-7,-6,-6,-4
1558434095207565,0,2,6,3,2,-3,2,1
1558434095224517,1,0,-3,-1,7,5,1,0
1558434095224517,2,1,4,4,5,9,2,0
1558434095225514,-1,-2,-5,0,-2,-9,-2,1
1558434095225514,0,-1,5,3,-3,-2,-4,-3
1558434095238482,0,-3,-5,-8,-6,-3,-1,-1
1558434095238482,0,-6,-10,-5,-4,-6,-4,-2
1558434095245460,2,2,-2,-4,-6,-6,0,0
1558434095245460,-1,-2,-4,-4,-2,-3,-1,-2
1558434095261419,-3,-2,6,5,1,5,-1,-2
1558434095261419,1,0,-4,2,0,2,-1,-1
1558434095267427,0,-1,-1,-1,0,4,3,1
1558434095267427,0,1,6,1,0,-9,-2,2
1558434095284355,-5,-5,-10,0,-1,-4,-1,0
1558434095284355,0,0,-5,-5,-2,0,-4,1
1558434095285387,-1,-3,-2,-2,0,7,-1,-3
1558434095285387,0,1,3,2,4,1,-2,1
1558434095299477,-1,0,-2,-5,-3,-1,-1,-2
1558434095299477,1,1,2,1,-5,-3,-5,-2
1558434095305650,-1,0,-2,3,5,6,8,3
1558434095305650,0,-1,-1,2,-2,0,2,1
1558434095321259,0,3,4,3,-2,0,0,0
1558434095321259,3,5,-2,-2,-5,-6,-3,0
1558434095327530,-4,-6,-3,-3,-2,-2,-4,-2
1558434095327530,-4,-4,-6,-7,-5,-4,-1,-3
1558434095344536,-4,-3,-1,4,0,-2,-2,0
1558434095344536,4,5,3,1,9,9,5,0
1558434095345486,-1,-1,3,-3,-2,-3,-3,-2
1558434095345486,-1,-1,-6,-1,-4,-5,-3,-2
1558434095358702,2,-2,-3,-3,0,-1,-2,0
1558434095358702,-3,-2,3,-5,-6,-4,-2,-1
1558434095365438,-1,1,0,2,3,3,0,-1
1558434095365438,-1,-3,0,-5,-4,1,1,-2
1558434095381594,-1,-2,-2,2,-3,-1,-1,-4
1558434095381594,1,-1,2,3,2,-9,-4,0
1558434095388597,0,2,-3,0,4,5,2,0
1558434095388597,-3,-1,-3,-4,-1,6,-2,-2
1558434095404620,0,-2,3,1,0,-3,1,3
1558434095404620,-2,-2,3,3,2,3,1,-1
1558434095405340,-1,0,-9,-9,-8,-8,-3,-2
1558434095405340,-2,0,0,-3,-4,-1,-4,-3
1558434095418289,2,2,1,2,4,2,0,0
1558434095418289,0,1,3,4,3,1,1,0
1558434095427267,-2,-3,0,-2,-6,-2,-4,-2
1558434095427267,3,2,0,-1,-8,-5,-4,-3
1558434095441227,-2,0,-1,-2,4,5,3,0
1558434095441227,-5,-4,-3,-1,-5,-7,0,-3
1558434095448579,1,-2,-3,1,1,3,-1,-2
1558434095448579,1,-1,1,1,5,1,3,2
1558434095464483,0,2,0,-2,-8,-10,-6,-2
1558434095464483,0,0,-1,0,3,-2,0,2
1558434095466162,-4,-4,0,1,-3,-1,1,-3
1558434095466162,0,-1,0,-4,-3,0,-1,-1
1558434095479437,2,5,-2,-1,2,6,1,-2
1558434095479437,-2,-5,-2,-3,-3,-3,-2,-2
1558434095485422,-4,-5,-6,-1,0,-2,-5,-3
1558434095485422,3,0,10,8,5,4,6,4
1558434095501390,-4,-7,-18,-13,-7,-5,-3,-2
1558434095501390,-3,0,-4,-3,-2,4,-1,-4
1558434095508369,3,-3,1,2,-1,-2,1,0
1558434095508369,4,2,5,2,4,1,0,0
1558434095525004,-4,-1,6,0,-1,-5,-5,-2
1558434095525004,-2,-5,-27,-16,-11,-3,-5,-2
1558434095526040,-2,0,2,-3,0,1,-4,-1
1558434095526040,-1,2,-1,-1,-7,-7,-4,-1
1558434095538297,2,0,10,8,6,5,3,3
1558434095538297,1,1,6,0,4,6,5,3
1558434095546950,1,2,-2,0,0,-3,0,0
1558434095546950,-5,-8,-16,-9,-6,-5,-3,-4
1558434095561908,-4,-3,-4,-1,-11,-8,-8,-5
1558434095561908,-3,-2,5,6,2,5,-2,-3
1558434095568182,2,4,4,0,3,-5,3,4
1558434095568182,-1,-3,-7,-7,-4,-5,-6,-3
1558434095585005,-9,-12,-5,-1,-3,-1,-1,-1
1558434095585005,3,4,6,2,-2,-11,-3,1
1558434095585845,-1,1,2,6,-6,1,-5,-3
1558434095585845,-1,-2,-1,-6,2,1,0,0
1558434095598043,3,1,-3,-3,4,2,-2,-3
1558434095598043,-3,-1,5,-3,-1,1,-1,-3
1558434095606844,-1,-1,0,3,-1,5,2,0
1558434095606844,-1,2,7,12,4,-7,-2,2
1558434095620754,-1,-2,-10,-9,-7,2,-4,-2
1558434095620754,0,-2,5,-4,-5,-2,-3,-3
1558434095627730,-5,-5,-18,-13,-4,0,-4,-5
1558434095627730,1,2,4,3,1,1,2,2
1558434095644684,0,5,3,4,5,-3,1,0
1558434095644684,1,3,0,2,-4,-10,-6,-2
1558434095645681,-4,-14,-1,-3,4,8,3,1
1558434095645681,-4,-5,-9,-7,-3,1,-2,-3
1558434095666917,-2,-1,3,2,-2,1,2,0
1558434095666917,-1,1,4,6,2,-2,3,1
1558434095667627,1,0,1,1,-3,-6,-1,-2
1558434095667627,2,3,0,0,4,4,0,-2
1558434095681764,3,1,1,-2,-3,-2,-1,-3
1558434095681764,-7,-8,-9,-6,-1,2,-5,-3
1558434095688573,0,-3,7,4,0,-3,-3,0
1558434095688573,-3,1,3,2,1,-1,5,2
1558434095704788,2,3,-1,-2,1,1,-2,0
1558434095704788,6,4,-1,1,-1,1,-2,-2
1558434095705523,-8,-1,-2,-1,1,-4,-2,-3
1558434095705523,-3,-1,2,-2,-4,1,-3,-5
1558434095718526,-4,-4,-1,-1,0,4,5,0
1558434095718526,-1,-4,-3,-1,-4,-11,-2,1
1558434095726466,3,6,7,-2,-2,1,1,0
1558434095726466,-2,-6,-5,0,-3,-2,-4,-4
1558434095741720,0,-6,-4,-4,-3,1,2,1
1558434095741720,-8,-2,0,1,1,-1,-2,-1
1558434095748684,3,2,5,1,2,-1,-3,2
1558434095748684,-2,-1,-11,-3,-1,1,1,-1
1558434095764621,-1,0,1,1,-5,0,-2,-4
1558434095764621,0,1,-4,-4,-7,-4,-5,-1
1558434095765563,2,1,2,3,3,-2,4,5
1558434095765563,-3,-4,2,0,0,-2,-7,-2
1558434095786576,1,0,-5,-3,1,4,1,1
1558434095786576,-3,-2,-1,2,0,0,4,-1
1558434095786576,4,4,-8,-4,-3,-2,-3,-4
1558434095786576,-1,-4,0,-5,-10,-6,-3,-3
1558434095802263,-5,-6,3,-2,1,-3,0,-1
1558434095802263,0,1,-7,1,1,3,-1,-2
1558434095808515,-2,-3,0,-1,0,-1,0,-1
1558434095808515,0,1,-2,0,-1,-4,-1,2
1558434095823207,-2,-1,1,-2,-5,-5,-8,-2
1558434095823207,2,-2,-7,-2,-1,1,0,3
1558434095830187,-8,-8,1,1,4,1,4,-1
1558434095830187,0,1,2,-4,3,5,-2,-4
1558434095846145,0,3,3,5,-8,-5,-1,0
1558434095846145,1,1,-2,-6,-2,-4,-5,-5
1558434095847154,-1,-5,-10,-6,-1,1,0,-1
1558434095847154,-4,0,7,0,-4,-5,-3,-1
1558434095862101,-3,-1,-2,5,11,9,5,1
1558434095862101,-2,-3,-5,-3,-5,-4,-2,0
1558434095868136,1,4,3,1,-4,-1,-1,-2
1558434095868136,0,-1,3,4,4,4,6,3
1558434095883289,-2,-5,-12,-6,-1,-7,-2,-1
1558434095883289,0,-3,2,-1,3,7,3,-2
1558434095891142,-1,1,-1,-4,-8,-6,-6,-4
1558434095891142,-2,-4,1,0,-4,-3,-5,-2
1558434095906357,2,3,3,1,3,-9,2,4
1558434095906357,3,4,6,1,5,8,0,-1
1558434095906983,-11,-10,-7,-2,-3,-2,-1,-4
1558434095906983,0,0,-6,-4,-7,-2,-3,-3
1558434095921942,2,2,4,0,5,0,-1,1
1558434095921942,-1,3,8,4,1,-6,4,2
1558434095927961,1,-6,-14,-6,-3,-3,-2,1
1558434095927961,-3,-4,-7,-4,-5,-2,-1,-1
1558434095942900,-6,-7,-10,-5,-11,-6,-9,-10
1558434095942900,-2,3,7,4,2,4,1,-2
1558434095950900,3,7,3,5,10,5,2,1
1558434095950900,-1,-3,-2,1,5,-1,1,2
1558434095966360,1,-3,3,-2,0,-3,-1,1
1558434095966360,-1,-3,3,0,0,3,-1,-2
1558434095967623,2,0,-9,-5,-5,-2,-5,-2
1558434095967623,-2,-6,-9,-5,-1,0,0,-2
1558434095981679,2,2,3,-5,-6,-3,-1,-3
1558434095981679,-2,-1,2,0,-3,-6,-3,-2
1558434095988614,-1,-6,1,1,-1,-2,-4,2
1558434095988614,5,3,0,-3,-1,3,3,3
1558434096003513,-13,-9,-1,2,3,2,-1,-1
1558434096003513,2,0,4,0,-2,-4,0,-3
1558434096010244,3,5,3,-1,-2,1,1,-3
1558434096010244,-6,-5,-6,0,-8,-7,-3,-6
1558434096026202,-4,-9,-13,-8,-4,-5,-8,-4
1558434096026202,-1,0,0,0,4,4,5,2
1558434096026202,1,4,9,11,14,7,7,3
1558434096026202,4,3,0,-9,-8,-5,-3,-2
1558434096042158,5,9,5,3,-1,2,2,2
1558434096042158,-4,-10,-22,-11,-5,-4,-5,-1
1558434096048168,-1,-5,4,-1,-8,-5,-3,-1
1558434096048168,-1,1,-1,2,4,1,-1,0
1558434096063161,0,0,2,3,-1,1,0,-2
1558434096063161,1,-1,-3,-7,-2,2,-1,-2
1558434096070584,-2,0,-1,-1,-1,1,-1,-2
1558434096070584,-1,0,6,4,5,2,1,0
1558434096086408,2,0,-1,1,0,1,-1,0
1558434096086408,-7,-4,6,9,-1,2,3,-1
1558434096087039,2,2,-18,-7,4,0,-1,0
1558434096087039,-5,-4,-4,-5,-6,-1,-3,-5
1558434096102044,1,-1,-1,-2,-4,-5,-4,-2
1558434096102044,0,-1,2,-1,2,5,4,1
1558434096108766,1,3,7,1,2,2,0,-1
1558434096108766,-2,0,-4,0,-2,-1,-2,0
1558434096123727,2,4,10,2,4,0,3,1
1558434096123727,1,2,-5,-2,-7,-16,-5,-2
1558434096130690,0,-3,0,-5,-4,-4,-1,-1
1558434096130690,2,0,-7,-3,3,5,3,3
1558434096146670,-3,-7,-3,-4,-2,3,-3,-4
1558434096146670,-3,-2,-1,0,-1,0,-2,0
1558434096146670,1,4,6,5,-2,-6,-2,-1
1558434096146670,-1,0,5,2,2,-1,1,1
1558434096162266,-1,-2,-7,-3,-2,0,0,0
1558434096162266,1,1,3,3,-4,-1,-2,-3
1558434096168566,-3,-3,-11,-4,-3,3,-1,-4
1558434096168566,4,3,3,1,5,1,0,1
1558434096183285,-5,0,2,5,2,0,-2,-2
1558434096183285,-6,-11,-19,-12,-14,-9,-8,-7
1558434096190510,-3,-2,8,7,6,3,0,0
1558434096190510,-4,-4,-4,-11,-5,-11,-3,0
1558434096206473,2,2,6,0,-1,1,-1,-2
1558434096206473,0,1,1,-2,0,3,-3,-2
1558434096207143,2,3,4,3,0,-5,-1,0
1558434096207143,1,0,2,4,1,2,0,-1
1558434096222103,1,-2,-3,-1,-3,1,-1,0
1558434096222103,1,2,4,1,2,-3,2,2
1558434096228087,1,3,-1,-3,-6,-4,0,1
1558434096228087,-3,-8,-6,-2,0,0,-3,-3
1558434096243045,-4,0,3,-4,-5,-1,-2,-2
1558434096243045,2,1,-7,6,6,7,3,2
1558434096250174,1,-1,7,-4,-6,-9,-3,-3
1558434096250174,0,-1,-1,3,1,-7,0,-1
1558434096265984,-3,-4,-8,-6,-3,-2,0,-3
1558434096265984,0,0,7,4,0,-4,-1,-3
1558434096266980,7,9,3,-3,1,-1,3,0
1558434096266980,-12,-13,-9,3,2,1,0,-1
1558434096281942,-3,-8,-10,-12,-4,-5,-5,-1
1558434096281942,0,0,2,-2,0,3,-3,1
1558434096288369,-3,-7,-4,-3,-4,1,-1,-4
1558434096288369,3,4,7,6,1,-4,-2,-1
1558434096302885,3,4,6,6,4,1,2,3
1558434096302885,0,-2,-2,-4,0,-2,1,2
1558434096309871,-6,-1,-5,-8,-7,-2,-4,-3
1558434096309871,-1,0,2,-2,0,6,1,-2
1558434096325823,-1,-2,-8,4,4,1,2,0
1558434096325823,-2,-5,-1,-4,-4,-6,-3,-1
1558434096326821,0,-3,-1,0,-2,-1,1,3
1558434096326821,-1,-2,-1,-6,-2,5,0,0
1558434096342076,2,3,4,3,-4,-7,-3,0
1558434096342076,1,4,3,4,9,6,3,3
1558434096356182,-4,-8,-7,0,0,-5,-1,1
1558434096356182,3,2,1,0,-3,-1,-4,-3
1558434096363180,-1,-1,-5,-7,-10,-5,-5,-3
1558434096363180,-9,-10,-8,-4,-2,1,2,-2
1558434096371151,-2,-1,1,1,5,4,3,-1
1558434096371151,1,0,1,0,-3,0,-3,-1
1558434096387001,3,1,0,1,-1,2,-2,0
1558434096387001,3,0,-1,1,-5,-2,-5,-2
1558434096387001,2,4,13,13,3,1,-1,-1
1558434096387001,-3,-2,-13,-16,-5,-5,0,-2
1558434096401984,-4,-1,2,0,4,-6,1,1
1558434096401984,1,1,-3,-2,0,0,3,2
1558434096408603,-3,-6,-11,-8,-7,-5,-5,-8
1558434096408603,2,0,2,3,2,-8,-1,2
1558434096423648,0,-1,0,0,1,-3,1,0
1558434096423648,-2,-3,-1,0,-2,0,-2,-3
1558434096430545,0,0,6,-1,1,7,1,-2
1558434096430545,1,3,3,3,-5,0,-3,1
1558434096446712,-2,-5,-3,-3,3,4,-1,-2
1558434096446712,0,5,3,2,-2,-8,-2,-1
1558434096446712,-5,-1,-12,-6,-2,-3,-6,-4
1558434096446712,-5,-6,-8,-4,2,0,1,-4
1558434096468767,1,3,2,3,2,4,2,2
1558434096468767,3,1,5,4,1,7,1,-1
1558434096469441,-1,1,-3,-6,-7,-6,-4,0
1558434096469441,-4,-1,-5,-3,-5,-4,-3,-1
1558434096483608,1,2,4,4,4,3,1,0
1558434096483608,-3,-5,-8,-9,-8,2,1,-1
1558434096490720,3,3,3,0,-3,-10,-3,2
1558434096490720,-1,-1,-2,3,5,5,2,0
1558434096506688,-3,-4,-2,-3,-2,0,-3,-3
1558434096506688,-1,1,1,2,6,5,2,2
1558434096506688,-1,-3,-5,-4,-4,-2,0,1
1558434096506688,-3,-3,-2,-3,-4,-1,-5,-2
1558434096521645,-1,2,1,-1,-5,-2,-2,-1
1558434096521645,-1,1,0,-2,0,1,0,1
1558434096528577,-2,-5,-9,1,-1,-1,-1,-2
1558434096528577,-1,1,2,-5,1,2,2,-2
1558434096543245,1,2,-1,5,-1,-5,2,0
1558434096543245,-1,-3,-2,-1,-2,-7,-6,-3
1558434096550341,-3,-6,-2,-1,0,3,0,-1
1558434096550341,4,2,5,1,1,4,-1,-2
1558434096566267,-2,-4,-5,-2,-4,-3,-4,-3
1558434096566267,-1,-2,-2,0,4,1,2,-2
1558434096567459,2,1,1,-2,-1,-7,0,3
1558434096567459,-11,-5,0,3,-3,1,1,-3
1558434096582140,1,2,7,4,4,-2,3,2
1558434096582140,-5,-3,-7,-6,-2,-2,-2,-1
1558434096588421,0,-1,2,-1,-2,1,-2,-2
1558434096588421,-3,-6,-6,-6,-7,-7,-8,-5
1558434096603351,0,1,-3,-1,-3,-4,-1,2
1558434096603351,-4,-2,-7,-2,7,6,1,-1
1558434096610066,-2,-1,6,5,1,2,-1,-3
1558434096610066,3,2,5,2,-3,-1,-2,-2
1558434096626060,-2,-3,-3,-9,-5,4,-2,-3
1558434096626060,4,3,4,2,-2,-14,-5,1
1558434096627018,-3,-4,-3,-2,0,1,1,1
1558434096627018,3,2,2,3,0,-3,-3,0
1558434096641983,-4,-4,-18,-8,-5,-5,-1,-2
1558434096641983,0,1,0,-4,-2,2,2,-2
1558434096648209,-4,-4,-4,2,-5,-5,-6,-5
1558434096648209,-1,1,4,-1,0,1,4,0
1558434096662923,2,-1,4,2,6,3,1,1
1558434096662923,-2,-3,-3,1,2,-2,-4,-1
1558434096671109,1,2,6,-1,-5,-6,-4,0
1558434096671109,-1,-1,14,4,-3,-1,-3,0
1558434096686104,2,0,-19,-5,0,1,0,-3
1558434096686104,-12,-8,-5,-3,0,7,2,-1
1558434096686862,-4,-12,-8,-4,0,-1,-3,-3
1558434096686862,-2,-1,-1,2,2,5,1,2
1558434096709798,0,3,11,4,-3,-6,-1,-2
1558434096709798,3,5,4,5,1,-9,0,1
1558434096710796,1,3,-2,-2,-2,1,1,-1
1558434096710796,-2,-1,-2,-2,4,4,1,-3
1558434096723039,-1,2,5,-3,2,0,0,0
1558434096723039,0,-1,-4,-3,-6,0,-2,-4
1558434096730742,-1,0,-5,-5,-5,-6,0,0
1558434096730742,1,-4,-7,-1,-2,-1,0,0
1558434096745986,-4,-4,0,1,-4,1,-4,-2
1558434096745986,0,-2,2,-1,-8,-6,-4,-1
1558434096752946,0,2,4,6,7,4,2,2
1558434096752946,1,-1,-12,-7,-9,-6,-5,-2
1558434096761745,-3,-3,-8,-1,6,7,0,-2
1558434096761745,5,6,8,6,8,5,5,3
1558434096768650,-3,-2,1,1,0,-1,-2,-3
1558434096768650,0,3,-21,-8,-2,-1,-1,-2
1558434096782650,-2,-2,3,-3,-4,-3,-4,-2
1558434096782650,-5,-4,-4,-2,-9,-4,-6,-4
1558434096790848,-1,0,1,-3,2,4,0,-3
1558434096790848,3,6,11,6,5,-4,1,3
1558434096805817,1,0,6,2,-1,-1,1,-2
1558434096805817,-1,-2,-14,3,0,-4,3,2
1558434096813531,-2,-2,1,-6,-1,-2,1,-1
1558434096813531,-2,-5,-1,-1,-2,0,-2,1
1558434096821772,2,-1,0,-1,-2,-4,-4,-1
1558434096821772,-3,-3,0,-1,-5,1,-1,-1
1558434096827481,-1,-1,0,2,0,5,3,-1
1558434096827481,0,0,-7,-4,-2,-10,-5,-5
1558434096842443,0,0,2,4,2,3,4,1
1558434096842443,-1,0,0,-6,-6,-4,-5,-3
1558434096850681,1,1,0,-1,2,2,0,3
1558434096850681,-2,1,4,5,7,5,4,2
1558434096865666,-6,-4,-5,-3,-6,0,-2,-3
1558434096865666,0,1,9,-4,4,5,-1,-3
1558434096873584,2,0,-20,0,3,-3,3,2
1558434096873584,-2,-5,5,-4,-7,-12,-6,-1
1558434096881666,-2,-5,-3,-5,-6,-2,-3,-3
1558434096881666,-1,-5,-14,-9,-3,4,-1,-4
1558434096888663,0,0,8,2,-8,-6,-4,-3
1558434096888663,1,2,3,9,13,14,6,2
1558434096904277,2,2,1,0,3,-5,-1,1
1558434096904277,1,3,5,3,0,-2,0,-1
1558434096910261,-3,-3,-4,0,1,4,0,-1
1558434096910261,-3,-2,-9,-16,-13,-5,-5,-3
1558434096925575,-2,0,3,3,3,3,2,-2
1558434096925575,-3,-3,-3,-5,-5,-4,-3,-3
1558434096933528,1,1,0,0,-1,2,1,1
1558434096933528,0,-4,4,5,6,6,3,2
1558434096948529,1,1,2,1,-1,-8,-1,3
1558434096948529,0,3,-3,0,1,1,-1,1
1558434096949158,-4,-3,-8,-11,-6,-2,-5,-6
1558434096949158,-2,-4,0,0,-6,0,-5,-5
1558434096964287,2,-1,0,-1,0,-3,-1,0
1558434096964287,2,1,10,6,2,1,1,2
1558434096971099,-1,-2,-7,-6,-1,-4,-4,-1
1558434096971099,-2,-2,-3,0,-5,-1,1,-1
1558434096986205,-5,-4,-3,-1,-1,4,3,-2
1558434096986205,-1,2,0,-1,1,-2,0,-1
1558434096993040,-1,3,8,7,2,2,-1,-2
1558434096993040,1,2,0,-6,-5,-8,-3,-3
1558434097009066,-6,-9,-14,-6,-2,0,2,0
1558434097009066,1,2,9,4,2,-1,-3,0
1558434097009066,-1,1,-1,1,6,9,5,2
1558434097009066,0,-1,-2,1,2,-7,0,1
1558434097024165,0,-1,-4,-7,-12,-9,-7,-6
1558434097024165,-3,-3,-2,-1,-1,-3,-7,-5
1558434097031100,-1,-3,-5,-4,2,2,4,4
1558434097031100,1,4,8,3,3,3,2,-1
1558434097045958,1,3,-9,-5,-5,2,1,2
1558434097045958,-1,-9,-7,2,-2,-8,-4,1
1558434097053105,-3,-5,-5,-4,-7,-8,-3,-3
1558434097053105,-1,-3,2,5,-3,-1,-1,-1
1558434097069101,0,2,4,5,13,9,3,1
1558434097069101,1,2,-1,-2,-3,-5,-2,-1
1558434097069101,-1,0,3,1,-3,-3,-4,-5
1558434097069101,-3,-5,-7,-5,-2,3,1,1
1558434097083800,-1,0,7,0,0,3,0,-2
1558434097083800,2,0,-9,2,7,-4,4,3
1558434097090780,-6,0,3,2,0,-3,-3,-3
1558434097090780,0,0,-2,-3,-3,-4,-4,-2
1558434097106166,-1,-1,-1,-3,-5,-1,-5,-1
1558434097106166,-2,-3,0,-5,-4,0,0,-1
1558434097113650,0,1,0,2,4,2,1,3
1558434097113650,1,1,-5,0,-3,-3,-3,-1
1558434097129415,-10,-11,-1,2,-6,-8,-8,-5
1558434097129415,0,0,-3,-8,-2,8,6,2
1558434097129415,1,-1,-1,1,4,0,0,2
1558434097129415,-2,4,6,2,7,5,0,-2
1558434097144111,0,-3,-11,-3,-1,-4,0,1
1558434097144111,-2,-1,0,-2,-4,-2,-4,-4
1558434097150568,-1,-3,-7,-8,-11,-9,-5,-1
1558434097150568,0,-1,1,1,9,13,6,1
1558434097165056,-1,-1,10,6,-3,-13,-4,-2
1558434097165056,-4,-4,-17,-6,5,9,1,-1
1558434097173493,2,1,2,-1,3,3,2,1
1558434097173493,-3,-1,-1,-2,-10,-10,-5,-3
1558434097189337,0,0,2,-1,1,7,3,0
1558434097189337,1,-1,8,3,-5,-7,-1,-1
1558434097189337,1,-1,-5,-2,-4,-5,-5,-4
1558434097189337,-4,-3,-10,-5,-5,-4,-7,-4
1558434097204175,1,0,1,1,2,6,3,1
1558434097204175,0,1,5,4,0,1,1,-1
1558434097210527,-4,-3,-3,-11,-4,-3,-5,-3
1558434097210527,-3,0,4,2,-1,-6,-2,-2
1558434097225698,2,3,-2,1,5,4,3,3
1558434097225698,0,3,3,1,1,2,1,-1
1558434097232715,-3,-3,-6,-4,-3,1,0,-2
1558434097232715,-1,-2,-4,-4,-4,-6,0,0
1558434097248660,1,-1,0,-1,-4,-7,-4,-4
1558434097248660,-2,-2,-1,2,5,2,-1,-1
1558434097249426,2,3,13,5,0,5,-1,-3
1558434097249426,-2,-1,-8,-3,-2,3,3,0
1558434097264385,-2,-3,-2,-2,-5,-5,-4,-2
1558434097264385,3,-2,-2,1,0,1,-3,-2
1558434097270627,-3,-3,-6,-7,-2,-5,-2,0
1558434097270627,-2,-4,3,2,-1,2,-5,-1
1558434097285359,0,2,4,-1,-4,-4,-2,0
1558434097285359,-1,-2,-6,2,-4,-6,-1,1
1558434097292308,-1,2,4,3,3,3,3,0
1558434097292308,-1,-1,-6,-5,-2,-3,-1,-1
1558434097308266,-1,-1,-10,-5,0,-1,0,-1
1558434097308266,-7,-5,-1,-6,-6,-4,-3,-4
1558434097309263,-1,-1,1,5,6,5,3,1
1558434097309263,2,2,4,2,5,2,4,2
1558434097324569,1,1,4,1,1,7,1,-1
1558434097324569,-2,1,-6,-6,-5,-4,-1,1
1558434097330687,-4,-4,-6,-1,-6,-7,-2,-3
1558434097330687,-2,-4,-7,-1,3,3,2,-1
1558434097345166,0,-3,1,-2,-5,-5,0,-5
1558434097345166,2,0,3,-5,0,5,-3,0
1558434097353145,0,-1,5,1,-1,5,1,-1
1558434097353145,2,2,3,2,4,-8,-2,2
1558434097368105,0,-2,-1,-1,2,2,0,0
1558434097368105,2,0,1,-3,-4,-6,0,-2
1558434097369102,1,1,-2,1,1,0,-3,0
1558434097369102,-2,-5,-5,-3,-4,-6,-3,-3
1558434097384062,2,0,0,-1,2,4,2,4
1558434097384062,-2,-1,2,3,2,-2,-3,0
1558434097390499,1,3,-6,-3,-3,0,1,-1
1558434097390499,-2,-5,-4,-2,-5,-4,-1,0
1558434097406369,0,0,2,1,7,4,0,1
1558434097406369,-2,-1,-5,-4,-3,-3,-2,-1
1558434097413467,1,-3,0,7,1,-1,1,1
1558434097413467,-3,-4,-9,-11,-12,-4,-4,-3
1558434097429443,-2,1,-3,-1,2,2,3,0
1558434097429443,-3,-1,6,1,-1,-5,-4,-1
1558434097429443,-2,-1,-2,-2,0,-2,-1,-1
1558434097429443,2,1,6,-1,-2,-4,-2,-1
1558434097443902,-2,0,-3,0,4,5,0,-1
1558434097443902,-1,-7,1,1,-2,1,0,-4
1558434097451315,-3,-2,-6,-4,-2,-8,-1,1
1558434097451315,0,1,3,3,-4,-2,-3,-3
1558434097465216,-3,2,-1,-4,-8,-7,-5,0
1558434097465216,-1,1,5,4,4,3,2,0
1558434097481905,1,-4,-1,3,0,-7,-2,0
1558434097481905,0,1,-10,0,7,10,5,2
1558434097489063,-3,-2,3,-4,-11,-7,-6,-4
1558434097489063,1,1,-5,-6,-6,-2,-1,-3
1558434097489063,-6,-8,-5,-4,5,9,3,-2
1558434097489063,1,3,12,5,6,3,1,0
1558434097503745,-3,-7,-6,0,-8,-7,-5,-2
1558434097503745,-1,-2,-5,-6,-3,-2,0,2
1558434097510725,-1,1,4,-2,-7,-4,-5,-3
1558434097510725,2,1,1,4,-1,-6,-1,-2
1558434097525977,-2,-2,-6,-3,1,0,2,0
1558434097525977,0,1,2,3,9,8,3,3
1558434097533104,-1,2,1,-3,-7,-3,-2,0
1558434097533104,-5,0,1,-2,-8,-6,-2,-4
1558434097549091,-1,-2,-1,0,-3,-3,-2,-1
1558434097549091,0,-1,-4,-1,-4,-7,-3,0
1558434097549620,1,1,1,3,1,1,0,-1
1558434097549620,0,-3,3,-1,-4,2,-2,-2
1558434097564582,0,-2,-10,-2,4,2,-1,-1
1558434097564582,0,0,-2,-1,2,0,4,1
1558434097571068,-1,0,0,-2,-2,-1,-2,-3
1558434097571068,1,0,5,1,-2,-1,-1,0
1558434097585996,0,4,7,3,1,0,1,2
1558434097585996,-4,-9,-16,-3,3,4,0,-4
1558434097592506,-3,-5,-4,-4,-3,-4,-2,-3
1558434097592506,0,-1,-2,1,0,2,-1,0
1558434097608809,1,2,6,2,1,-5,-1,-1
1558434097608809,-1,1,4,-3,-4,-2,-3,0
1558434097609461,1,2,0,6,1,-2,-3,1
1558434097609461,-5,-5,-7,-13,-4,8,0,-2
1558434097624423,2,2,1,0,-3,-9,-3,0
1558434097624423,4,2,1,1,-3,-5,-3,-1
1558434097630636,-7,-5,-3,-4,2,8,2,-3
1558434097630636,-1,-1,-2,2,3,-6,-2,-1
1558434097645590,-2,0,-1,-1,-1,4,-1,-1
1558434097645590,0,1,-6,-1,-1,-3,1,0
1558434097653583,0,-3,-1,-3,-6,-1,-4,-2
1558434097653583,1,1,-1,5,2,3,1,1
1558434097668536,-1,0,5,-4,-5,-4,-3,-3
1558434097668536,-2,-3,-6,-1,0,-1,-3,-4
1558434097675552,1,3,5,-2,-2,-2,0,0
1558434097675552,-1,0,-4,1,10,3,4,3
1558434097684266,-1,-4,-5,-6,-1,3,-2,0
1558434097684266,0,3,17,7,-5,-4,-2,0
1558434097690483,-1,-2,-12,-5,-1,-4,2,0
1558434097690483,-1,-3,-1,-2,-1,-1,-2,-2
1558434097705205,-2,1,-1,-3,2,3,0,-1
1558434097705205,-2,-2,-3,2,0,5,-3,-1
1558434097713406,0,-1,2,-5,-5,-7,-4,-1
1558434097713406,1,4,2,-1,-2,-7,1,2
1558434097728143,2,-1,-9,2,11,11,6,2
1558434097728143,-3,-4,-4,-3,-2,-1,1,-2
1558434097735153,1,0,1,5,2,1,2,0
1558434097735153,-5,0,2,-2,-5,0,-1,-2
1558434097744100,-1,-2,-1,-1,-5,-3,-2,-2
1558434097744100,1,3,0,-3,3,-3,-4,1
1558434097750232,-1,-1,-6,-4,-5,0,-2,-1
1558434097750232,-6,-4,6,5,4,2,4,1
1558434097765382,-4,-3,-14,-2,0,0,0,-1
1558434097765382,0,0,10,3,-2,-2,-1,-1
1558434097773051,0,-1,-10,-6,-3,-7,-6,-4
1558434097773051,1,-1,0,-3,-3,5,-2,-1
1558434097788016,-1,-3,1,-1,0,-3,-1,-2
1558434097788016,-5,-4,-5,-2,0,-2,2,1
1558434097794992,-2,0,12,6,1,2,1,1
1558434097794992,-2,-5,-17,-11,-9,-5,-7,-2
1558434097803968,-2,-1,6,7,1,-1,-1,-1
1558434097803968,-3,-1,-5,-7,-1,2,2,0
1558434097809923,-4,-1,0,-2,-2,2,0,-1
1558434097809923,-1,-2,-2,-2,-3,-4,-2,-4
1558434097824882,1,2,5,5,5,1,4,2
1558434097824882,0,0,4,-2,-4,-3,-3,-1
1558434097833252,0,-2,1,3,1,3,-2,1
1558434097833252,-1,-3,-10,-4,-2,-8,-4,0
1558434097855802,-1,-4,-1,-5,-3,-3,-2,-3
1558434097855802,-1,0,-6,0,-1,2,0,-2
1558434097856800,-1,3,8,-1,1,3,2,-1
1558434097856800,0,-1,2,6,3,-5,-3,-2
1558434097872757,-2,-1,-1,-5,-9,-9,-4,-3
1558434097872757,-6,-4,-11,-2,4,-6,2,-1
1558434097872757,-1,-3,-3,-3,-7,-3,-5,-4
1558434097872757,-1,-2,3,1,1,5,1,-1
1558434097885969,2,-2,-7,0,4,8,2,0
1558434097885969,0,-2,0,-2,-11,-14,-3,-2
1558434097892703,-1,0,-2,-1,3,-3,2,1
1558434097892703,1,3,7,8,7,4,2,1
1558434097907662,0,2,3,-8,-7,-7,-5,-4
1558434097907662,-12,-11,-12,-2,-7,-1,-3,-3
1558434097915641,-1,-4,-7,-5,0,-3,1,2
1558434097915641,1,0,2,0,10,10,3,0
1558434097930601,-1,-3,-4,-6,-9,-7,-6,-2
1558434097930601,3,2,2,-4,-2,1,1,-2
1558434097931599,1,1,2,3,0,-4,-2,-1
1558434097931599,0,-1,-4,-2,-1,-2,-1,0
1558434097945600,-2,1,6,4,3,-1,2,2
1558434097945600,0,1,3,-1,-2,0,-1,-3
1558434097952543,0,-3,-7,0,4,-3,-1,-1
1558434097952543,0,-4,-8,-7,-10,-6,-4,-3
1558434097967538,-3,-3,-2,-3,-2,2,-3,-4
1558434097967538,-3,-3,-2,-5,-2,2,-2,-2
1558434097975480,1,3,5,8,5,-4,2,1
1558434097975480,1,3,3,-6,-11,-14,-4,-1
1558434097991472,-3,-1,1,3,1,0,0,0
1558434097991472,0,-1,-8,-3,2,3,2,2
1558434097991472,-3,-4,-4,-4,-6,0,-6,-4
1558434097991472,-4,-3,-3,0,2,2,4,0
1558434098005401,-2,-6,-3,-1,2,4,-2,-1
1558434098005401,3,3,9,6,2,-3,-2,0
1558434098012597,0,-1,1,-1,-2,-2,2,1
1558434098012597,0,1,2,3,-3,-4,-3,-3
1558434098027345,-2,-1,-10,-2,-4,0,-2,-3
1558434098027345,-1,-1,-3,1,0,-1,-3,-3
1558434098035322,0,-2,2,-3,-1,1,2,0
1558434098035322,-3,-1,-7,-6,-1,-1,-1,-1
1558434098051279,0,1,6,3,-4,-7,-1,-3
1558434098051279,1,2,-1,4,2,7,2,-1
1558434098051279,0,-1,2,1,3,0,-1,0
1558434098051279,3,0,9,0,-6,-2,0,1
1558434098065241,-3,-6,-17,-4,0,-2,-4,-1
1558434098065241,-2,-3,0,-8,1,4,-1,-2
1558434098073221,-1,0,-7,-8,-4,0,-4,-4
1558434098073221,0,1,6,7,3,1,1,2
1558434098088357,-1,-3,-14,-7,-5,0,-2,1
1558434098088357,1,2,2,-3,-3,-4,-4,-1
1558434098095161,-5,-5,-7,-1,2,0,-1,1
1558434098095161,-2,5,15,5,6,0,-3,-3
1558434098112115,-3,-7,-20,-7,-7,-2,0,-2
1558434098112115,-2,0,12,1,-3,-6,-1,-1
1558434098113114,-1,0,3,6,1,-3,-2,-2
1558434098113114,0,-2,-10,-12,-5,-2,-2,-1
1558434098125277,5,11,28,8,9,1,1,3
1558434098125277,-6,-12,-22,-2,0,-1,-2,-2
1558434098133061,1,-2,-6,-4,-8,0,-1,0
1558434098133061,-2,0,7,1,-1,-2,-1,1
1558434098148019,2,5,19,5,3,1,3,2
1558434098148019,-3,-4,-20,-5,-5,-4,-2,1
1558434098155229,0,5,11,1,-4,-3,-2,-3
1558434098155229,-5,-9,-19,0,4,3,-1,-3
1558434098170960,-2,-8,-10,-5,-4,-2,-1,-3
1558434098170960,-2,-1,7,2,3,1,0,-2
1558434098171955,-1,0,-1,2,-4,-10,-3,-5
1558434098171955,2,7,3,1,3,3,0,0
1558434098186915,-1,4,18,7,8,2,0,0
1558434098186915,-5,-8,-19,-7,-11,-7,-1,-1
1558434098192904,2,6,13,0,17,17,9,3
1558434098192904,2,-3,-11,-4,-2,-3,-2,-2
1558434098208060,2,3,5,3,-3,-3,-3,0
1558434098208060,-2,2,8,6,0,-2,-1,-3
1558434098214842,0,-1,-3,1,-4,-7,-5,-3
1558434098214842,-5,-7,6,-6,-4,-2,-2,-2
1558434098230976,1,-4,-29,-11,-3,2,-2,-3
1558434098230976,3,4,2,-2,-6,-2,-1,-2
1558434098231795,-1,-3,-5,3,3,0,0,0
1558434098231795,0,8,19,-2,-2,0,-1,0
1558434098246760,-6,-9,-5,1,-3,-11,-2,-1
1558434098246760,0,0,6,0,3,2,-1,0
1558434098260718,0,0,2,8,0,-3,2,1
1558434098260718,-3,-10,-19,-9,-5,-4,-2,-2
1558434098267702,-3,1,5,-5,-5,0,-2,-4
1558434098267702,3,0,-2,2,4,3,2,3
1558434098275678,1,1,3,2,7,4,0,2
1558434098275678,-2,-1,-5,2,-1,1,-2,-2
1558434098298618,-2,-3,-5,-4,-5,-5,-2,0
1558434098298618,2,1,4,2,0,-5,-3,0
1558434098298618,-13,-7,13,-5,-8,-2,-3,-4
1558434098298618,1,0,-13,-1,3,4,2,1
1558434098306597,-4,-7,-2,-4,-1,0,0,-3
1558434098306597,3,10,32,11,3,0,-1,0
1558434098312580,0,-5,-32,-17,-8,-7,-5,-3
1558434098312580,-3,-8,-9,-1,-3,-8,-2,0
1558434098327543,-1,-1,-1,5,1,1,1,-3
1558434098327543,-1,-3,-3,-1,0,1,1,-1
1558434098335518,-1,-1,7,0,-3,0,-5,-2
1558434098335518,0,4,4,4,0,0,-2,-1
1558434098350479,-1,-1,-12,-9,-3,-1,-2,1
1558434098350479,-2,-2,0,-1,-1,-3,-1,0
1558434098351475,1,2,-2,2,2,1,2,1
1558434098351475,1,1,4,-1,-1,-2,0,-2
1558434098366435,0,-1,5,6,3,2,1,0
1558434098366435,-5,-4,-13,-13,-6,-3,-5,-3
1558434098372420,3,4,3,1,-1,-1,-3,-2
1558434098372420,-5,-7,-11,-5,2,2,0,-1
1558434098387382,-1,1,7,5,-8,-6,-1,-4
1558434098387382,1,-1,-3,2,0,-3,-2,-1
1558434098395357,4,1,-7,1,9,5,3,6
1558434098395357,-3,-1,2,-2,-8,-9,-4,-2
1558434098411315,0,1,5,-1,6,4,0,1
1558434098411315,-4,1,1,2,-4,3,-1,-2
1558434098411315,-3,-3,-12,-15,-10,-3,-2,-5
1558434098411315,0,1,-5,3,2,-1,1,-1
1558434098426277,-2,-3,3,1,3,-4,0,2
1558434098426277,1,-3,-8,-10,-5,-5,-6,-3
1558434098432260,-5,-5,0,2,-2,-3,-1,-5
1558434098432260,-2,-1,4,2,3,4,0,-1
1558434098448217,1,2,-6,3,7,0,2,3
1558434098448217,-3,1,-1,0,0,0,-3,2
1558434098455198,-4,-3,-1,-4,-9,-5,-1,-1
1558434098455198,1,-3,-7,3,3,6,3,-1
1558434098471159,1,1,6,-7,-4,-4,-2,-2
1558434098471159,0,-4,-2,0,2,4,4,-1
1558434098472155,0,0,3,1,-5,-12,-4,1
1558434098472155,1,1,6,4,0,0,-1,0
1558434098487112,-3,-2,-3,2,5,3,1,-1
1558434098487112,1,0,-3,-4,-1,4,1,-1
1558434098501077,-2,-6,-4,-1,-7,1,-2,-3
1558434098501077,4,1,-1,-4,-7,-12,-4,-1
1558434098508057,-3,-4,-1,-1,1,-1,-4,-1
1558434098508057,-2,-1,2,2,5,3,5,4
1558434098515045,0,3,2,2,0,-2,-2,0
1558434098515045,-1,-3,-4,-6,-6,-6,-1,-1
1558434098531001,2,1,0,4,0,6,3,1
1558434098531001,-1,-1,-1,1,0,-1,-6,0
1558434098531992,3,2,3,3,8,7,4,2
1558434098531992,-3,-2,-4,-6,-10,-8,-8,-2
1558434098546951,0,0,1,2,-4,3,2,-1
1558434098546951,3,3,-2,-2,4,-2,4,1
1558434098552938,-2,-3,-2,-4,-1,-4,-3,-2
1558434098552938,0,-1,-1,1,4,3,4,1
1558434098567898,-3,0,-1,-2,1,-1,-4,-4
1558434098567898,-2,-2,9,5,-6,-5,-3,-5
1558434098574878,-6,-8,-25,-15,0,-2,-3,-1
1558434098574878,0,4,12,9,15,14,5,1
1558434098591045,-2,-2,-6,-10,-9,-5,-4,-3
1558434098591045,0,1,2,2,-1,-10,0,0
1558434098591837,1,2,6,3,-1,3,-1,-1
1558434098591837,1,0,-2,-3,1,6,-2,-2
1558434098606793,-1,-3,1,4,-2,-4,1,-1
1558434098606793,2,3,-1,1,4,5,-3,1
1558434098612779,-3,-5,-5,-10,-17,-11,-3,-3
1558434098612779,1,-2,7,4,4,1,1,0
1558434098627736,-3,2,11,1,-5,-2,-3,-3
1558434098627736,1,3,-7,-1,6,6,12,6
1558434098635892,1,0,7,3,16,9,1,1
1558434098635892,-3,-4,-17,-12,-12,-4,-3,-5
1558434098650857,-2,-7,-17,-8,-6,-6,-7,-2
1558434098650857,-2,-5,0,8,7,-2,-5,-3
1558434098666814,1,3,8,3,1,3,4,1
1558434098666814,0,0,3,4,2,-3,-1,0
1558434098667629,-2,0,0,5,7,3,-1,-1
1558434098667629,0,2,1,-5,-2,5,2,0
1558434098672641,-4,-4,-10,-3,-10,-8,-1,-3
1558434098672641,-2,1,2,4,-3,-2,-2,-3
1558434098687577,2,3,1,-8,-5,-5,0,2
1558434098687577,3,4,4,4,8,2,2,2
1558434098695555,-3,-7,-2,-3,-1,-9,-2,-1
1558434098695555,-2,-1,-5,-6,-9,-7,-3,-4
1558434098710517,-4,-3,-2,1,1,5,-2,-2
1558434098710517,-3,-4,3,-1,-6,-7,-6,-4
1558434098717497,2,2,-3,-1,9,8,5,5
1558434098717497,-2,-4,2,1,-3,-5,-4,-2
1558434098726475,3,5,8,-3,-8,-2,0,2
1558434098726475,-5,-7,-9,-5,-7,-8,-7,-4
1558434098732460,-1,-1,-4,2,-1,4,-1,-2
1558434098732460,-4,-5,-5,0,-5,-8,-6,-3
1558434098747417,0,3,4,0,0,-1,3,1
1558434098747417,0,0,-6,-6,0,8,2,3
1558434098755396,-4,1,3,1,2,4,0,-2
1558434098755396,-1,-1,-2,-6,-6,-8,-3,1
1558434098770354,1,-1,-7,1,6,2,5,0
1558434098770354,0,0,10,1,-7,-3,-1,-1
1558434098777347,3,2,-4,-9,-8,-2,0,0
1558434098777347,-5,-2,9,7,5,1,-2,-3
1558434098793302,1,-2,-8,-5,0,0,-4,-3
1558434098793302,0,4,8,3,-3,-1,-1,-3
1558434098794292,3,1,-4,0,2,5,2,0
1558434098794292,1,6,24,11,1,2,0,2
1558434098807256,-4,-10,-33,-14,-5,-6,-4,-2
1558434098807256,0,1,7,4,4,3,5,0
1558434098815234,-5,-3,6,2,1,0,-2,-3
1558434098815234,-2,-4,-18,-10,-4,-2,1,-1
1558434098830194,1,4,17,15,3,-1,-2,-1
1558434098830194,-8,-15,-44,-34,-15,-11,-8,-6
1558434098838174,-2,2,13,7,1,-2,-1,-2
1558434098838174,3,3,-6,-2,5,4,-1,0
1558434098854132,-8,-2,13,5,-5,-1,0,-1
1558434098854132,1,-1,-2,3,7,2,-2,-1
1558434098854132,-1,-2,-7,2,-1,-2,1,2
1558434098854132,-3,-2,0,-3,7,4,3,2
1558434098868092,1,1,2,1,-3,-3,-4,-1
1558434098868092,-3,-6,-8,-8,-11,-6,-5,-3
1558434098875108,0,0,1,0,3,2,1,0
1558434098875108,0,0,1,3,2,1,1,0
1558434098890034,0,0,0,-1,0,-2,4,3
1558434098890034,-2,-5,6,9,2,-1,-1,-2
1558434098898312,-2,-5,-2,-2,-5,-5,-8,-4
1558434098898312,-2,-5,-22,-13,-8,-6,-3,-4
1558434098914132,1,7,7,1,2,1,0,1
1558434098914132,2,3,5,-3,-2,3,2,-1
1558434098914972,-5,-2,-13,2,-6,-6,-3,-2
1558434098914972,-1,1,7,-2,1,3,2,1
1558434098927934,-1,-3,1,1,-1,1,-2,-3
1558434098927934,2,1,9,6,7,-3,-1,2
1558434098934914,2,0,-11,-7,-2,-6,0,-1
1558434098934914,0,1,0,0,-4,-5,-4,-3
1558434098949875,5,2,3,2,3,5,2,-1
1558434098949875,-6,0,3,5,-2,-7,-2,0
1558434098957854,-1,-1,6,-1,2,1,-1,1
1558434098957854,-4,-1,-3,-3,-4,4,1,0
1558434098973810,-2,-8,-11,-7,-7,-6,-6,-3
1558434098973810,-1,4,5,-1,-3,-1,0,-1
1558434098973810,-2,-4,-1,-3,-5,-5,-2,0
1558434098973810,2,4,2,1,3,4,1,1
1558434098987939,-7,-9,2,0,6,0,2,0
1558434098987939,-2,-1,-7,1,-2,1,0,-4
1558434098994756,2,-2,13,0,3,3,1,-1
1558434098994756,0,-3,-21,-3,-4,-6,0,-1
1558434099009722,0,1,-1,-3,-4,-5,-3,-1
1558434099009722,0,1,4,0,1,1,2,1
1558434099017694,0,1,-7,0,-3,-2,-2,-2
1558434099017694,2,-2,3,1,-1,-1,1,0
1558434099033652,0,1,-5,-6,-1,-1,-1,-4
1558434099033652,-6,-7,0,5,3,-4,-1,-1
1558434099033652,-1,-1,-1,-3,-3,0,1,-1
1558434099033652,-2,-2,10,5,2,-7,-3,-1
1558434099047780,-2,-7,-27,-17,-8,-3,-3,-3
1558434099047780,7,6,11,-5,1,1,2,0
1558434099055591,2,5,-2,7,3,1,-1,-2
1558434099055591,-4,-10,2,-5,-6,-3,-1,-3
1558434099070554,-3,-4,-4,5,1,-5,0,1
1558434099070554,0,3,5,3,4,2,-1,0
1558434099077534,0,0,-10,-2,3,5,4,2
1558434099077534,1,2,2,0,3,1,0,0
1558434099093495,1,3,11,0,0,-1,-1,0
1558434099093495,0,-10,-12,-4,-9,-6,-2,-3
1558434099094488,-2,1,3,1,-2,-4,-4,-2
1558434099094488,-3,0,-3,-6,-5,-3,-4,-2
1558434099107623,2,2,10,7,2,0,2,3
1558434099107623,-1,-1,-6,0,0,-2,1,0
1558434099115432,-2,-1,7,3,0,-1,-1,0
1558434099115432,-2,-4,-2,-5,-4,0,-3,-2
1558434099130451,-1,-4,-13,-6,-5,-3,-4,-6
1558434099130451,-4,-2,-4,-4,-2,1,1,-2
1558434099137396,1,4,2,2,5,-5,1,1
1558434099137396,4,4,10,8,11,6,5,5
1558434099153331,-3,-2,0,-1,-4,-3,-1,0
1558434099153331,-4,-6,-12,-5,-3,0,-5,-2
1558434099154327,0,-2,2,-2,-5,-3,-1,-1
1558434099154327,0,1,2,1,-1,0,-4,-3
1558434099167293,1,2,-1,2,4,3,1,2
1558434099167293,-1,-2,0,3,0,-4,-4,-2
1558434099175270,-3,-2,-4,-12,-11,-4,-2,-4
1558434099175270,0,-2,-8,-1,-2,-2,0,-1
1558434099190232,2,1,7,7,11,7,9,2
1558434099190232,-2,4,0,-1,-3,0,1,-2
1558434099198210,-1,-3,-4,-2,4,2,-4,0
1558434099198210,-4,-3,-4,-8,-5,0,1,0
1558434099213172,-5,-4,-6,-8,-3,2,0,-4
1558434099213172,2,2,3,5,-1,0,-1,1
1558434099214168,-3,-6,0,2,-3,-10,-3,-1
1558434099214168,0,1,1,-1,-2,-7,-1,0
1558434099228131,4,9,2,3,-2,-3,-5,2
1558434099228131,-2,-7,-6,-2,4,3,-1,-2
1558434099235110,-4,-4,-3,-7,-6,-1,-6,-6
1558434099235110,-1,-3,-2,-5,-3,0,-3,-2
1558434099250120,2,0,2,1,-9,-8,1,1
1558434099250120,3,5,1,-2,3,5,2,3
1558434099258112,-2,-6,-3,2,11,11,2,-2
1558434099258112,2,5,4,5,2,0,0,-3
