timestamp,emg1,emg2,emg3,emg4,emg5,emg6,emg7,emg8
1558434023740075,-3,-3,-12,-6,3,3,-1,-5
1558434023740075,-2,-3,-6,-9,-8,-7,-5,-4
1558434023740075,-2,1,2,1,-5,-5,-5,-2
1558434023740075,-3,-1,1,-1,-3,-1,-5,-4
1558434023744065,2,3,8,3,0,-2,-1,0
1558434023744065,-2,-4,-3,2,1,2,-1,-1
1558434023746060,1,1,-1,-1,5,2,0,-2
1558434023746060,2,-1,2,0,0,2,0,-1
1558434023758027,0,-1,-2,-6,-9,-3,-5,-2
1558434023758027,-1,-4,5,8,8,2,3,1
1558434023768998,1,0,0,-6,-7,-5,-4,-1
1558434023768998,1,4,-2,2,7,3,1,2
1558434023772987,1,-2,2,0,0,4,0,0
1558434023772987,-1,-1,-15,-6,-5,-1,-1,-1
1558434023788946,-2,-4,0,-1,-3,-3,-2,-1
1558434023788946,0,-1,1,0,-4,-5,-4,0
1558434023797920,-3,-2,-5,-5,-10,-13,-3,0
1558434023797920,-3,-1,0,-1,2,2,2,-1
1558434023803904,2,8,-1,0,-2,-9,0,1
1558434023803904,-4,-5,8,4,5,9,2,-3
1558434023817868,-5,-12,-12,-7,-1,1,-1,-1
1558434023817868,-1,-1,-2,1,3,-1,1,1
1558434023827841,1,-2,-3,-10,-9,-6,-5,-2
1558434023827841,1,3,4,-2,-7,-7,-5,-1
1558434023856763,0,0,-3,-2,3,4,1,1
1558434023856763,-1,-1,-1,1,-2,-1,-3,-1
1558434023864742,0,1,-1,1,-2,-1,-1,-2
1558434023864742,1,5,5,2,7,4,5,0
1558434023865738,1,-1,1,1,-3,-4,3,1
1558434023865738,-4,-7,-7,-6,-1,1,-1,-5
1558434023866736,1,-2,1,-4,-2,2,1,0
1558434023866736,0,-4,-12,-1,-3,-3,-3,-2
1558434023877707,1,2,11,6,5,-4,2,4
1558434023877707,-1,1,-12,-6,-6,-4,-3,-2
1558434023886683,-1,3,11,8,-4,-7,-1,0
1558434023886683,-6,-9,-13,-8,-4,-3,-3,-6
1558434023892667,-1,1,1,1,5,8,1,-2
1558434023892667,3,1,-3,0,1,-4,1,2
1558434023908625,-1,1,-3,-1,1,-1,-3,-1
1558434023908625,2,1,-1,-3,-6,-2,-2,-1
1558434023915605,-9,-18,0,-2,-2,1,-4,-5
1558434023915605,-2,0,-3,-2,-1,1,-1,-1
1558434023924581,2,0,7,8,10,9,6,1
1558434023924581,-1,1,-12,-13,-7,-7,-4,0
1558434023937548,2,5,0,-1,3,0,1,-1
1558434023937548,-3,-6,5,5,1,0,4,2
1558434023946524,1,-1,-1,1,-1,-1,-4,-2
1558434023946524,1,0,-1,-10,-8,-5,-6,-1
1558434023952507,-1,3,0,0,0,3,-1,0
1558434023952507,1,3,3,3,-1,2,1,0
1558434023969462,-2,0,-6,-2,-1,-4,-2,-1
1558434023969462,-1,-3,3,7,2,5,2,-2
1558434023975446,-1,-2,-7,-5,-5,-2,-4,-4
1558434023975446,-1,1,3,-1,-2,-2,-2,0
1558434023984421,-2,-2,3,3,10,9,5,2
1558434023984421,-3,-2,-1,-5,-5,-1,-1,-1
1558434023997386,0,0,1,-1,-7,-6,-2,-1
1558434023997386,0,-1,1,4,2,-2,-5,-4
1558434024006363,-3,-7,-11,-16,-14,-6,-7,-7
1558434024006363,-1,0,-3,7,6,-4,1,2
1558434024020326,2,8,5,4,7,10,7,2
1558434024020326,-4,-17,-7,-9,-7,-8,-2,-2
1558434024029302,-3,-2,-5,-4,-11,-11,-7,-4
1558434024029302,0,1,9,13,12,9,4,1
1558434024035286,1,1,-8,-7,-7,-6,-6,-2
1558434024035286,0,1,5,2,2,-1,1,0
1558434024044262,0,-1,-4,-5,-3,-5,-4,-2
1558434024044262,-3,0,5,1,0,6,4,-2
1558434024057226,-3,0,0,3,1,2,-1,-3
1558434024057226,0,0,2,2,2,8,0,0
1558434024066202,3,7,4,6,8,-1,2,1
1558434024066202,-8,-7,-6,-13,-12,-9,-5,-3
1558434024073185,-1,-1,-3,-1,0,1,-1,0
1558434024073185,-2,-1,-3,-7,-9,-1,0,-3
1558434024089141,-1,-1,-2,2,4,3,2,-1
1558434024089141,5,3,2,3,8,0,1,0
1558434024095126,-3,-9,-1,-2,-2,-3,-2,-3
1558434024095126,-3,-3,-14,-10,-7,-8,-6,-4
1558434024110086,3,4,7,5,2,2,1,1
1558434024110086,3,2,3,0,1,-4,0,2
1558434024118064,-6,-12,-3,-2,-9,-6,-5,-3
1558434024118064,1,-1,-4,1,1,4,-3,-3
1558434024127040,-2,-1,-1,-3,-6,-1,-1,-1
1558434024127040,2,7,9,-2,0,0,2,0
1558434024133026,-1,-3,-2,0,-4,-7,-1,0
1558434024133026,1,3,5,5,8,4,1,1
1558434024148982,-3,-1,-4,-2,2,6,-2,-2
1558434024148982,0,0,-3,4,-1,-8,-3,0
1558434024154966,1,1,-4,-9,-4,-3,-2,-2
1558434024154966,-3,-4,2,2,-6,0,-1,-2
1558434024169925,-1,-2,-2,-1,2,-1,-2,-1
1558434024169925,0,2,-3,-1,-2,0,2,0
1558434024177904,1,1,-4,-4,1,3,3,-1
1558434024177904,-4,-2,6,1,0,-7,-4,-1
1558434024186889,-3,-4,0,-2,-3,-4,-1,-1
1558434024186889,-2,-2,1,0,-5,1,-2,-2
1558434024192868,3,5,0,2,-1,-9,-1,2
1558434024192868,0,3,0,2,6,4,2,3
1558434024208824,0,2,-1,-2,-2,1,2,0
1558434024208824,0,-1,3,-1,2,1,-1,-1
1558434024214805,-5,-7,1,0,-3,0,-3,-4
1558434024214805,0,2,0,-3,-7,-6,-3,-1
1558434024229768,-3,-2,-3,-1,-4,-5,-3,-3
1558434024229768,1,1,1,0,-8,-2,-7,-3
1558434024237746,0,2,-1,7,11,10,3,-1
1558434024237746,-1,-5,-15,-15,-7,-9,0,1
1558434024246721,-1,-2,-10,-5,-4,-2,-3,0
1558434024246721,-8,-8,-2,-5,-3,1,-1,-4
1558434024252705,1,1,11,3,-6,-20,-10,-3
1558434024252705,5,5,5,8,17,20,11,7
1558434024268663,-3,-1,-6,-4,-5,-2,3,2
1558434024268663,-3,-3,-3,1,3,0,1,-1
1558434024275648,-2,-3,-1,-6,-5,-2,1,-2
1558434024275648,0,1,4,2,-4,-8,-4,-4
1558434024290614,-1,-3,-9,-5,-1,0,-2,-1
1558434024290614,-1,0,-4,1,0,1,-1,-1
1558434024297587,-1,-2,-15,-3,1,7,-1,-3
1558434024297587,2,2,8,2,-2,-4,-2,-1
1558434024306569,-6,-3,10,1,1,0,0,-1
1558434024306569,-8,-17,-4,-3,-4,-8,-2,-2
1558434024312545,-4,-1,-22,-12,-6,1,-3,-4
1558434024312545,-1,-3,-2,1,-1,-1,-2,-1
1558434024329499,3,2,2,6,3,-5,1,1
1558434024329499,4,4,4,0,-2,-2,1,1
1558434024335483,-2,0,7,3,0,0,1,-1
1558434024335483,-3,-1,-3,-2,1,4,0,1
1558434024350445,-1,-5,-13,-7,-3,-4,-2,-2
1558434024350445,-2,1,-7,-1,-2,3,-1,-1
1558434024357425,1,-2,0,1,0,-3,-3,-2
1558434024357425,-4,-5,-10,-4,-7,-7,-8,-7
1558434024366399,-3,-3,7,4,5,6,3,-1
1558434024366399,4,6,4,5,6,0,3,5
1558434024372385,0,0,5,3,-2,-1,2,4
1558434024372385,-2,-1,7,5,-1,1,-2,-2
1558434024389339,-5,-13,-27,-17,-10,-2,-6,-7
1558434024389339,-1,-1,2,1,4,-3,0,2
1558434024395323,3,9,1,-1,3,2,2,2
1558434024395323,0,-1,4,-2,-4,-1,0,-2
1558434024410283,-1,-2,3,2,-5,2,-3,-2
1558434024410283,4,-1,-4,-5,-8,-3,-4,-2
1558434024417264,-3,-2,14,11,9,3,3,1
1558434024417264,0,4,-13,-11,-9,-7,-1,-2
1558434024426257,-3,-5,1,2,2,1,0,0
1558434024426257,2,1,1,-1,2,2,4,-2
1558434024440202,-4,-2,-9,-3,-6,-7,-8,-4
1558434024440202,-1,0,6,1,3,5,0,0
1558434024449179,1,2,-2,-1,-5,-7,-4,-1
1558434024449179,-1,2,10,3,3,2,-1,-2
1558434024455163,0,-2,3,-2,-1,-5,-1,-1
1558434024455163,-2,-1,-3,0,5,1,2,-2
1558434024470122,1,3,10,4,1,1,0,0
1558434024470122,-4,-5,-8,0,-6,-1,-5,-3
1558434024478102,-2,3,-5,-12,-5,0,-1,-1
1558434024478102,-1,2,-4,-2,-3,0,2,0
1558434024487077,0,-3,5,-1,3,4,2,0
1558434024487077,-3,-3,0,4,-1,-3,-1,-4
1558434024500045,1,0,9,4,1,3,-1,0
1558434024500045,-2,-1,-14,-4,3,2,2,2
1558434024509019,4,8,12,4,-2,-3,0,0
1558434024509019,-5,-5,-14,-10,-9,-10,-6,-4
1558434024515002,-1,-5,-5,-1,-5,-3,-3,-4
1558434024515002,2,6,10,7,6,0,3,3
1558434024529963,3,6,4,5,5,4,3,1
1558434024529963,-6,-11,-9,-14,-8,-2,-6,-3
1558434024537941,-1,-2,-6,0,2,-3,-2,0
1558434024537941,1,-4,3,3,3,5,4,3
1558434024546917,1,-2,-3,-3,-1,-7,-3,-1
1558434024546917,1,7,3,1,-1,3,-1,1
1558434024559883,0,1,2,2,-8,-7,-4,-1
1558434024559883,0,-2,4,-1,1,4,-2,-1
1558434024576836,-1,-1,-5,-4,-3,-5,0,2
1558434024576836,-1,-10,4,1,3,3,4,-3
1558434024577834,-3,-5,-10,-6,-4,-2,1,-4
1558434024577834,0,0,2,3,-3,-7,-4,-2
1558434024598779,1,-2,-4,-4,-4,0,2,3
1558434024598779,2,2,4,0,4,0,2,1
1558434024598779,0,1,0,3,2,1,2,2
1558434024598779,-5,-4,-5,-4,-4,-5,-5,-3
1558434024606758,-3,2,7,-2,-5,0,-3,-3
1558434024606758,-3,0,-9,1,-1,0,0,0
1558434024628698,-3,0,0,-1,3,7,-1,-3
1558434024628698,2,-1,-2,-5,-5,-1,-1,-2
1558434024630699,-1,2,8,9,5,0,2,0
1558434024630699,2,1,8,-1,5,-2,3,1
1558434024637849,-1,-5,-11,-5,0,4,2,-2
1558434024637849,-2,-3,-5,-6,-5,1,-3,-3
1558434024650639,-4,-6,-9,-4,-7,-2,-4,-5
1558434024650639,4,3,4,3,-1,-3,-2,0
1558434024657621,3,3,7,4,0,-6,1,2
1558434024657621,-2,1,6,0,-1,-3,-2,1
1558434024666597,-2,-3,-10,-5,-1,0,1,-3
1558434024666597,-5,-9,-15,-2,0,2,0,-1
1558434024680566,-1,-3,-8,-8,-3,-1,0,-1
1558434024680566,0,0,5,10,2,-2,-4,-4
1558434024689536,-1,-1,-1,-13,-8,0,-2,-3
1558434024689536,1,2,-7,0,-1,-1,0,2
1558434024695525,1,0,3,0,-3,-9,0,2
1558434024695525,1,4,3,4,2,-2,-4,-2
1558434024710482,-4,-2,-4,3,11,4,5,0
1558434024710482,-1,-2,-8,-5,-1,-4,-1,-1
1558434024717465,-5,-5,-1,0,-3,0,-3,-1
1558434024717465,3,3,3,-2,-1,-1,-1,0
1558434024726455,-2,2,9,1,-5,-5,-6,-4
1558434024726455,-2,-1,-12,-5,-7,-4,-4,-3
1558434024740402,5,8,10,8,9,-1,6,5
1558434024740402,-4,-7,0,-2,2,-1,0,-2
1558434024749381,-2,-2,-5,-4,-3,-9,-6,-3
1558434024749381,-5,1,0,-4,-5,2,-2,-3
1558434024763339,-4,-9,-1,1,0,-1,-3,-2
1558434024763339,1,1,-4,-8,-4,-3,1,-1
1558434024770336,2,-1,1,-2,-3,-2,-2,1
1558434024770336,0,-1,3,4,-1,2,-2,-1
1558434024777332,1,6,4,5,7,1,2,2
1558434024777332,-4,-7,-3,0,-2,-9,-1,2
1558434024786277,-1,-1,-3,4,4,2,3,-2
1558434024786277,-3,-1,8,-4,-7,-5,-5,-2
1558434024800243,-2,-5,-9,-5,-8,4,-4,-3
1558434024800243,1,1,0,-6,2,6,5,4
1558434024809217,2,1,2,4,-1,-7,-4,0
1558434024809217,2,3,9,2,0,0,0,-3
1558434024815235,-1,-1,-15,-1,1,6,3,-3
1558434024815235,-3,-1,-2,-6,-6,-7,-4,-4
1558434024838147,-3,-3,-12,-5,-2,3,-1,0
1558434024838147,3,-1,9,3,7,2,2,2
1558434024839138,-14,-9,0,-4,-5,3,-2,-4
1558434024839138,0,4,3,3,-2,0,0,-2
1558434024854097,0,-1,4,6,7,6,0,4
1558434024854097,-1,-2,-10,-3,5,-1,1,1
1558434024860089,4,0,3,1,0,-8,0,-2
1558434024860089,-4,-6,-8,-6,-8,-2,-2,-4
1558434024876039,0,1,6,1,-6,-2,-1,-3
1558434024876039,0,7,9,9,6,3,3,4
1558434024883023,-4,-12,-10,-14,-6,0,-4,-2
1558434024883023,-1,-1,-3,-1,-6,-6,-4,-4
1558434024890000,3,-1,0,6,6,1,3,2
1558434024890000,-2,-2,-3,-3,-6,-5,-5,-5
1558434024897981,1,2,-4,-2,-2,0,-3,-2
1558434024897981,3,6,2,2,5,3,3,3
1558434024912950,-5,-8,-7,-5,-6,-2,-1,-1
1558434024912950,-4,-7,-7,-7,-3,0,1,0
1558434024919926,2,2,-6,3,-1,-5,-2,0
1558434024919926,-2,-2,-1,-10,-14,-7,-9,-5
1558434024935884,-1,2,4,5,7,4,2,1
1558434024935884,-1,4,13,11,8,-1,1,3
1558434024936875,-1,0,-3,-2,0,1,-1,-2
1558434024936875,-2,-4,1,-4,1,0,0,0
1558434024949904,1,3,-6,-3,-5,-4,-2,-3
1558434024949904,0,-7,-1,-3,-4,-1,-1,-3
1558434024957883,1,4,2,2,-5,-8,-1,0
1558434024957883,-1,-3,4,4,1,-3,-2,0
1558434024972785,-2,-6,-17,-10,-10,-5,-5,-3
1558434024972785,1,6,-2,0,4,7,2,0
1558434024980758,0,-6,13,10,7,4,2,1
1558434024980758,1,-2,-13,-5,3,4,3,2
1558434024995820,-3,4,12,0,2,0,0,0
1558434024995820,-2,-1,-7,-5,-8,-7,-4,-4
1558434024996717,-2,-1,-2,-8,-6,-1,-4,-4
1558434024996717,-2,-4,-1,2,-2,-3,-3,-2
1558434025010694,0,-7,4,1,-1,-7,-3,1
1558434025010694,3,2,-4,3,7,9,9,5
1558434025017659,-10,-1,13,0,-2,-4,-2,-1
1558434025017659,-2,0,-15,-2,0,0,-2,-3
1558434025032653,-1,2,-6,-5,-8,-10,-6,-3
1558434025032653,-2,0,2,-3,-11,-10,-7,-4
1558434025040721,4,4,1,2,6,6,4,4
1558434025040721,0,2,4,1,4,6,2,1
1558434025056554,-3,-2,-7,0,-1,7,3,-1
1558434025056554,-6,-9,6,4,-1,0,4,-1
1558434025056554,0,1,-9,-4,-2,-4,1,-1
1558434025056554,-3,-4,-4,-1,0,-5,-4,-2
1558434025070654,2,2,2,0,-1,1,0,-1
1558434025070654,0,-2,3,-4,-1,4,-2,-3
1558434025077501,2,-3,-9,-13,-13,-6,-5,-3
1558434025077501,-2,-1,-3,1,4,-2,1,1
1558434025092668,2,-1,-7,-1,7,6,5,6
1558434025092668,-2,2,5,2,0,-5,-4,0
1558434025100550,0,-1,3,4,0,4,-3,-3
1558434025100550,1,2,1,3,-5,-6,1,0
1558434025115480,-2,-3,0,-2,0,2,1,-5
1558434025115480,-4,-4,-12,-7,-5,-4,-1,-2
1558434025116476,2,5,8,4,6,-2,-4,3
1558434025116476,-2,-1,-6,-6,-3,1,-1,-3
1558434025130435,1,-3,-1,2,7,5,4,1
1558434025130435,3,2,-1,2,-2,-5,-4,-1
1558434025137420,-1,1,2,1,3,3,0,-1
1558434025137420,-1,0,5,3,1,1,0,-1
1558434025152377,-4,-1,-1,-3,-6,-7,-5,-4
1558434025152377,3,11,6,-1,0,1,2,0
1558434025160355,-1,-10,-9,3,0,-4,-1,-1
1558434025160355,-4,-4,-2,-11,-9,-5,-4,-5
1558434025176313,-2,-1,2,-3,2,3,0,-1
1558434025176313,-2,-1,-8,-1,3,1,-1,0
1558434025176313,-1,2,6,1,5,4,1,1
1558434025176313,1,0,0,4,4,3,2,2
1558434025190275,-1,0,0,2,-2,-5,-5,-2
1558434025190275,-3,2,7,-1,-5,-5,-7,-2
1558434025198541,0,-2,-10,-3,0,-1,-2,-4
1558434025198541,-5,-7,-17,-8,-3,2,-4,-3
1558434025213520,0,1,8,1,-3,-9,-2,-1
1558434025213520,0,-2,-8,5,13,3,2,3
1558434025220196,-1,-1,-1,-14,-11,0,-1,-2
1558434025220196,1,5,9,4,6,2,2,1
1558434025236153,-1,0,1,4,-1,-3,-1,-1
1558434025236153,-4,-5,-3,-1,-3,0,-4,-3
1558434025236153,-2,-6,-10,-5,-8,-9,-5,-3
1558434025236153,0,-1,-1,-2,2,2,-2,-2
1558434025258504,-2,-1,2,-1,0,0,-1,2
1558434025258504,0,-3,-4,-1,4,5,0,-3
1558434025259092,-2,3,-5,-3,-8,-3,0,1
1558434025259092,-3,-10,3,6,5,-3,1,1
1558434025273339,0,0,-5,-4,-5,-4,-4,-2
1558434025273339,-2,-4,-5,-8,-9,-1,-4,-3
1558434025280282,-2,-6,1,-4,-3,0,-2,-1
1558434025280282,7,12,4,2,-5,-11,-1,3
1558434025296211,-13,-14,-8,4,-1,-4,-3,-4
1558434025296211,-5,-5,-2,-13,-9,-4,-3,-1
1558434025296998,0,2,-1,5,7,3,0,-1
1558434025296998,1,1,-3,1,1,5,4,3
1558434025310025,3,1,6,1,-1,1,-1,1
1558434025310025,0,1,-6,1,-6,-7,-4,-2
1558434025317938,-3,-4,-4,-1,-1,5,2,-2
1558434025317938,-1,1,6,0,-1,3,-3,-1
1558434025333106,1,2,-5,-2,-1,-2,1,-1
1558434025333106,1,-2,5,2,5,-3,0,-1
1558434025340088,1,1,5,6,3,-6,-3,0
1558434025340088,-2,-2,-5,-5,-5,0,1,-1
1558434025354878,-1,1,-1,-4,-2,3,-3,0
1558434025354878,1,7,7,3,2,7,0,1
1558434025363861,-4,-2,-7,-3,0,-7,-2,-1
1558434025363861,-7,-11,-4,3,-2,-7,-3,-3
1558434025370795,3,-2,-1,-2,0,2,0,0
1558434025370795,-1,-6,-8,-7,-7,-7,-2,-2
1558434025377781,2,4,7,-2,1,6,5,2
1558434025377781,0,3,1,4,-2,-4,-2,-2
1558434025392737,0,0,1,-1,-5,2,2,-2
1558434025392737,-1,1,3,5,4,2,4,1
1558434025400715,-2,1,-4,-2,-1,-4,-4,-1
1558434025400715,-2,-6,-3,-1,0,-1,3,1
1558434025415672,-1,-2,-1,-3,-2,-1,1,-2
1558434025415672,-1,-1,4,1,-1,-3,-1,-1
1558434025422659,-4,-7,-16,-7,-6,-1,-3,-3
1558434025422659,-2,3,4,-2,-3,2,-3,-3
1558434025431630,2,2,-2,-3,1,1,0,1
1558434025431630,-3,-1,5,9,5,-2,-2,0
1558434025437619,0,2,8,-2,5,4,4,3
1558434025437619,0,0,-12,-7,-3,3,1,-1
1558434025452574,-2,-1,-6,0,-6,-13,-5,0
1558434025452574,0,5,4,-2,-2,2,1,-1
1558434025460551,-2,0,9,4,0,-1,-2,-3
1558434025460551,1,3,1,-6,-6,-2,0,-2
1558434025475513,-3,-5,3,2,1,0,-2,-1
1558434025475513,0,-1,-5,1,3,1,0,-2
1558434025482502,-4,-2,-11,1,3,3,0,-1
1558434025482502,1,1,5,1,-1,-6,0,0
1558434025491471,-2,1,-12,-9,-5,-4,-2,-2
1558434025491471,0,-6,0,-5,-9,-10,-6,-3
1558434025497458,0,1,3,-3,-9,-3,-5,-2
1558434025497458,1,-1,0,3,5,2,1,0
1558434025512423,0,2,13,6,1,-1,-4,0
1558434025512423,1,-1,-13,-1,7,7,2,0
1558434025520566,-8,-8,-2,-3,-2,-5,-1,0
1558434025520566,-2,-1,1,-4,-1,6,-2,-5
1558434025535457,-3,-6,-9,-5,-4,0,0,-2
1558434025535457,-1,2,2,4,-5,-6,-3,0
1558434025542448,3,0,7,5,3,1,2,1
1558434025542448,-2,1,5,3,-3,-2,-1,-2
1558434025559406,-5,-7,-13,-4,1,4,-1,-3
1558434025559406,0,-1,-9,-10,0,-3,-5,-3
1558434025560415,2,-1,-4,-1,-1,1,-2,0
1558434025560415,-3,-2,13,4,0,-1,-2,2
1558434025572393,2,0,4,2,1,1,0,-2
1558434025572393,-2,-3,-2,-3,-9,2,-1,-1
1558434025580345,3,2,-3,-1,4,1,3,0
1558434025580345,-2,-1,-3,-1,-3,-1,0,1
1558434025595494,-1,0,2,1,-2,-7,-5,-2
1558434025595494,-2,-2,1,-5,-4,-3,-1,-1
1558434025603273,2,0,5,3,8,10,1,1
1558434025603273,1,-4,-5,6,1,-5,-2,-1
1558434025618233,-1,-2,-13,-7,-4,-1,0,-4
1558434025618233,-4,-5,-4,-6,-9,-7,-4,-1
1558434025619230,2,8,9,7,4,2,1,0
1558434025619230,-3,-4,-4,-6,2,0,-4,-2
1558434025632198,2,0,3,5,3,0,1,0
1558434025632198,-1,-2,5,-2,-2,-1,-2,-2
1558434025640715,-1,0,-8,-2,-4,-3,2,-1
1558434025640715,-1,-3,-3,-7,-1,2,-3,-2
1558434025655171,-2,1,5,-1,-5,-1,-3,-1
1558434025655171,5,5,6,8,2,-7,-2,2
1558434025663111,0,-7,-6,-9,-2,-5,1,0
1558434025663111,-3,-1,-5,0,-2,1,-2,-3
1558434025678073,0,-1,-2,-6,-5,-3,-2,0
1558434025678073,-2,0,-3,0,0,2,-1,-3
1558434025679068,0,1,-1,3,-5,-10,-5,-1
1558434025679068,0,-6,-6,-10,-4,0,-3,-2
1558434025693033,0,3,9,4,1,2,1,2
1558434025693033,-3,4,1,5,5,9,5,0
1558434025700014,-2,-1,-8,-2,-5,-9,-2,-2
1558434025700014,-2,-4,-4,2,3,1,0,1
1558434025714974,1,6,11,2,4,-1,0,0
1558434025714974,-4,-8,-7,-10,-4,-1,-3,-2
1558434025723306,-3,-3,-3,-5,-2,2,3,-1
1558434025723306,0,-2,-3,-2,-5,-3,-3,-1
1558434025739049,3,4,5,0,-2,-3,-2,-1
1558434025739049,-2,-3,3,5,1,0,0,2
1558434025739049,0,0,-11,-3,-2,1,-2,-2
1558434025739049,-2,-3,4,-1,-3,-2,-2,-3
1558434025752905,-14,-14,-10,-9,-1,-2,-3,-4
1558434025752905,2,2,17,6,-2,-4,0,1
1558434025761140,0,-2,-7,-4,4,11,-1,0
1558434025761140,3,7,-4,4,6,-5,2,3
1558434025776154,1,3,2,4,1,0,-2,-1
1558434025776154,-5,-1,-3,-8,-10,-3,-4,-4
1558434025783235,-2,-6,-1,-2,-3,0,-3,-2
1558434025783235,2,1,1,4,2,1,1,0
1558434025800053,0,-2,0,-2,4,-3,2,2
1558434025800053,-1,-2,-7,0,0,-1,0,-2
1558434025800744,-1,2,8,3,-1,-2,-1,0
1558434025800744,0,-2,-6,-3,-2,2,-1,-1
1558434025813018,-2,-3,-11,-3,-5,-3,-3,-2
1558434025813018,1,-1,5,-2,-3,-2,-3,-1
1558434025821019,-1,-3,-1,-1,-4,-9,-1,0
1558434025821019,-2,-1,2,3,-1,0,2,0
1558434025835651,4,2,-3,-7,-3,3,1,1
1558434025835651,-4,-3,-2,0,4,4,3,2
1558434025842954,0,-1,5,4,1,-4,-2,-1
1558434025842954,-5,-3,5,-1,-1,-4,-3,-1
1558434025858656,1,-3,-20,-6,0,1,1,1
1558434025858656,-2,-1,11,-1,-3,0,0,-1
1558434025859765,-2,-3,-11,-5,-6,-9,-4,-2
1558434025859765,0,-3,3,3,1,-2,0,0
1558434025872872,0,-3,1,6,4,7,2,-3
1558434025872872,0,-1,-1,-9,4,5,2,0
1558434025888805,-2,2,2,-1,-1,-7,-4,0
1558434025888805,0,0,-2,-1,-3,-2,-4,-3
1558434025895786,-2,-6,-5,-5,-2,-4,-2,0
1558434025895786,1,0,-7,-3,4,9,6,1
1558434025902499,-1,-1,3,2,-7,-7,-4,-2
1558434025902499,-1,-3,-1,0,1,0,4,1
1558434025918431,-2,-4,-7,-7,-5,-10,-2,1
1558434025918431,1,0,-13,2,2,2,1,0
1558434025919426,-3,-2,0,-2,2,8,1,-1
1558434025919426,-2,6,10,-2,-5,-5,-4,-1
1558434025933514,-2,0,10,4,-2,-5,-5,-7
1558434025933514,4,-1,-2,5,1,-6,0,0
1558434025940686,-4,3,0,-6,4,8,6,3
1558434025940686,-3,-8,-5,-2,0,1,-2,-1
1558434025955629,-1,4,0,-1,2,3,2,0
1558434025955629,-2,-9,-4,-2,-3,-8,-3,-1
1558434025963479,1,1,10,4,1,1,0,-2
1558434025963479,-1,-1,-9,-8,2,3,0,0
1558434025978566,-3,-4,-11,0,-2,2,-2,-2
1558434025978566,0,1,0,-3,-2,-2,-3,-2
1558434025979270,2,3,13,6,-1,-2,-3,-1
1558434025979270,0,-2,-10,-6,0,-1,3,2
1558434025993467,-2,-5,-13,-6,-4,-1,-2,-3
1558434025993467,-1,1,-3,-2,0,1,0,-2
1558434026000506,0,0,2,-1,-2,-2,-1,0
1558434026000506,-2,2,9,8,4,3,2,-2
1558434026015403,-3,-2,9,-1,-7,-10,-4,0
1558434026015403,1,-1,-4,3,4,6,2,0
1558434026023150,-1,-5,-7,-4,1,1,0,-2
1558434026023150,1,-1,-7,-3,-5,-3,-3,-3
1558434026038110,2,7,8,4,7,6,5,2
1558434026038110,-3,-2,-3,-2,-5,-5,-5,-3
1558434026039107,-5,-14,-6,-4,-5,-3,-4,-3
1558434026039107,-2,-2,-4,-5,-5,2,-4,-3
1558434026053071,3,2,11,9,-3,-10,-3,0
1558434026053071,-7,-5,-15,-3,8,5,5,2
1558434026060318,0,0,-7,-13,-3,0,-1,-2
1558434026060318,-1,-2,-3,-5,-1,0,-2,-2
1558434026075080,4,4,7,5,0,-1,1,0
1558434026075080,3,2,10,1,-3,-5,-2,-1
1558434026083319,0,-1,-3,2,3,3,2,1
1558434026083319,-1,0,0,-4,-10,-8,-5,-5
1558434026099090,-3,0,5,8,14,13,5,1
1558434026099090,-2,-3,-7,-2,-1,-5,1,1
1558434026099090,-3,-1,-6,-6,-7,-5,-5,-3
1558434026099090,-1,0,1,-5,-8,-8,-4,-2
1558434026114199,-2,-2,0,1,2,9,2,0
1558434026114199,2,-1,0,0,2,2,-1,0
1558434026120888,4,6,8,6,0,-4,-1,0
1558434026120888,-1,4,6,5,-3,-5,-4,-2
1558434026134852,-4,-4,-17,-10,-9,-4,-4,-3
1558434026134852,-2,3,-7,-6,-5,-4,-3,-1
1558434026143159,-2,-11,8,4,5,-3,4,3
1558434026143159,-1,-4,-6,-1,2,0,2,0
1558434026159003,-3,-5,4,2,-7,-1,-3,-3
1558434026159003,-1,4,4,1,-4,2,-5,-4
1558434026159003,0,3,-2,-1,-5,-2,-3,-2
1558434026159003,4,2,7,7,4,-6,1,3
1558434026173016,-11,-6,-14,-12,-7,-2,-1,-2
1558434026173016,-4,-4,4,-4,-10,-8,-6,-4
1558434026180987,-3,1,-3,2,8,3,-1,-2
1558434026180987,-2,-6,-5,1,0,0,0,0
1558434026195957,4,0,8,2,5,10,4,2
1558434026195957,2,1,8,5,6,-3,0,1
1558434026202670,-2,-6,-13,-11,-8,-4,-2,-2
1558434026202670,0,1,-2,2,-4,-10,-4,-3
1558434026218631,-2,-2,-4,-11,-6,-5,-4,-2
1558434026218631,0,-1,-1,3,-1,2,-1,-2
1558434026218631,2,2,2,1,3,0,3,0
1558434026218631,1,4,-5,1,9,2,0,2
1558434026232867,-1,-4,1,1,-1,-4,3,0
1558434026232867,-3,-2,-4,-6,-7,-1,-2,-2
1558434026240570,1,0,-5,-2,-9,-2,-6,-2
1558434026240570,-3,-12,4,-3,-2,5,-2,-2
1558434026255799,2,3,4,0,-1,-4,-2,0
1558434026255799,-1,1,3,8,6,-2,1,1
1558434026262539,-3,1,-8,-8,1,-1,-1,-2
1558434026262539,-3,0,-2,-2,1,6,3,0
1558434026279463,0,1,3,1,4,-1,3,1
1558434026279463,-1,-1,4,-3,-5,-1,-3,-3
1558434026280465,1,-1,-2,-3,-11,-10,-7,-2
1558434026280465,2,-2,-13,-5,3,7,5,2
1558434026292687,2,4,1,4,6,2,-2,1
1558434026292687,-5,-9,-14,-10,-4,1,-2,-3
1558434026300668,-2,1,3,3,-3,-2,-2,-1
1558434026300668,-2,-5,6,-1,0,0,0,-2
1558434026315630,4,1,3,3,3,3,2,3
1558434026315630,0,-2,0,-3,-3,-3,-2,-1
1558434026323428,0,-3,1,5,-1,4,-4,-3
1558434026323428,1,4,3,-2,-4,-7,-2,2
1558434026338310,5,8,5,0,-2,-3,3,3
1558434026338310,-3,-3,-4,-2,8,7,2,1
1558434026346543,-6,-9,0,-1,1,-5,0,0
1558434026346543,-3,-4,-12,-7,-4,2,-3,-4
1558434026352269,-1,-3,0,1,-2,-3,-4,-3
1558434026352269,1,4,1,-2,-3,-1,0,0
1558434026360485,2,3,0,2,3,4,1,-1
1558434026360485,-2,0,3,0,-4,-5,-3,-1
1558434026375436,-2,-5,-8,-5,2,1,-2,-1
1558434026375436,4,3,4,3,2,2,4,1
1558434026383453,-1,1,6,0,-5,-4,-2,1
1558434026383453,0,1,-4,-10,-3,2,3,0
1558434026398414,-2,-9,-9,-3,-2,-8,-7,-4
1558434026398414,-11,-10,-3,-5,-5,-2,-2,-5
1558434026406396,-1,1,1,5,1,2,-1,-1
1558434026406396,-1,2,6,4,5,8,-1,-1
1558434026413367,1,3,7,7,0,-4,4,4
1558434026413367,1,-4,-26,-11,-5,-6,-1,-3
1558434026420363,-2,-4,-1,-4,-4,-1,-3,-2
1558434026420363,1,5,7,6,3,-5,-1,0
1558434026435049,-3,3,1,-1,1,4,-3,-1
1558434026435049,1,2,3,2,-3,-4,-4,-1
1558434026443025,-4,-10,-3,-1,-5,-3,-1,-1
1558434026443025,2,-3,-3,-1,-4,2,-3,-2
1558434026458141,-2,-2,3,0,1,1,0,-3
1558434026458141,3,8,9,8,9,4,6,5
1558434026466324,0,-1,-3,-2,1,-7,-2,-2
1558434026466324,-3,-6,-5,-1,0,0,4,-1
1558434026481283,-2,-2,-3,-4,-4,-7,-3,0
1558434026481283,-2,-2,-7,-7,-9,-3,-8,-4
1558434026482280,1,1,0,1,2,4,0,-3
1558434026482280,0,3,6,7,2,-1,2,2
1558434026497258,-1,-2,-6,1,-6,-13,-3,-1
1558434026497258,1,-1,5,-4,-2,-1,-3,-1
1558434026502866,-2,-1,-2,1,-2,-3,-3,-4
1558434026502866,-1,6,-2,-1,1,-4,-4,-2
1558434026517827,-1,-3,-10,-6,-1,2,-1,-2
1558434026517827,-14,-13,-2,-1,-2,-2,-3,-4
1558434026526089,0,2,0,-1,3,5,4,2
1558434026526089,0,-4,-2,-1,-4,2,1,-4
1558434026541018,5,9,7,5,-3,-2,-3,-2
1558434026541018,-2,-14,-9,-7,-2,-2,-1,1
1558434026541763,-1,0,0,-5,-2,0,0,-1
1558434026541763,-2,-5,-5,-2,-1,-2,-3,1
1558434026555961,-1,5,8,1,-1,-3,-1,0
1558434026555961,0,8,-2,-1,-3,-3,-2,0
1558434026562982,-1,-3,-6,-3,2,5,2,0
1558434026562982,0,0,5,4,-4,-4,-4,-3
1558434026577955,-1,-4,-6,-7,2,6,3,0
1558434026577955,0,2,6,4,-1,-1,-2,-2
1558434026586682,0,0,-7,-3,1,-4,1,2
1558434026586682,0,2,1,2,4,-1,-2,-2
1558434026600901,-6,-6,-5,-2,-1,3,-1,-4
1558434026600901,-1,-3,-2,2,2,3,4,0
1558434026601602,0,-1,5,1,-4,1,-4,-1
1558434026601602,-1,-2,1,-2,-5,-6,0,1
1558434026615857,-1,-3,4,2,-6,-4,-3,1
1558434026615857,2,4,-1,-4,-4,-3,-1,0
1558434026622820,-2,-2,-5,-5,-5,-6,-1,-2
1558434026622820,-2,-1,-4,-4,-4,-2,-2,-1
1558434026637507,-6,-10,-11,-4,-1,0,1,-3
1558434026637507,0,0,6,6,2,1,-1,-1
1558434026645483,0,5,-2,4,1,-3,-3,1
1558434026645483,0,-1,-3,-10,-3,-2,-2,0
1558434026661696,2,4,8,6,-3,1,-3,-1
1558434026661696,-1,-3,-15,0,5,6,1,-2
1558434026661696,-1,-4,-3,-7,-5,-4,-2,-1
1558434026661696,3,0,4,6,10,11,6,2
1558434026675753,-1,-2,2,-3,-3,2,-1,0
1558434026675753,2,2,1,-2,-7,-7,-3,-1
1558434026683535,-3,-4,3,2,-4,-4,-4,-2
1558434026683535,0,-3,-3,2,-1,-1,-1,1
1558434026698509,-1,1,-7,-6,4,2,2,-2
1558434026698509,1,3,-4,-3,3,0,3,1
1558434026706546,0,2,-1,-4,-1,-4,-1,-3
1558434026706546,-4,-6,-6,-1,-2,-2,-3,0
1558434026721615,-1,1,5,-1,1,3,-2,0
1558434026721615,-3,-5,4,0,-10,-10,-10,-6
1558434026721615,-2,-5,-11,-1,1,11,3,-2
1558434026721615,1,5,3,2,7,4,5,3
1558434026735243,-1,-5,-6,-3,-4,-10,-3,-4
1558434026735243,-5,-9,7,2,0,-2,0,0
1558434026742260,0,-1,-8,-4,-1,-4,-2,-1
1558434026742260,-4,-1,-1,-2,-7,-3,-6,-5
1558434026757213,-2,-1,-5,1,0,4,1,0
1558434026757213,2,2,2,-5,-7,-3,4,3
1558434026766161,1,2,11,6,8,5,2,2
1558434026766161,-2,0,-14,-5,-4,-3,-2,-3
1558434026781157,-4,-13,-1,-6,-2,-1,-2,-1
1558434026781157,2,2,-9,7,1,1,0,0
1558434026781157,4,6,4,-6,1,6,3,0
1558434026781157,-5,-9,0,-1,-4,-7,-3,-1
1558434026795396,-1,3,-2,-3,4,3,-3,-1
1558434026795396,1,4,5,2,2,2,0,0
1558434026803365,-1,-2,-5,5,-6,-9,-6,0
1558434026803365,-1,1,-1,-1,1,-1,2,-1
1558434026818025,-1,1,-2,0,-1,-6,3,0
1558434026818025,-1,1,2,-6,-1,-1,-4,-1
1558434026826287,-3,-2,-9,-4,-2,-2,-2,-1
1558434026826287,0,-1,4,-2,-3,-3,-1,-1
1558434026840964,1,4,1,8,7,6,5,1
1558434026840964,0,-3,9,6,6,3,0,1
1558434026841960,-3,-5,-9,-4,-5,-8,-3,-3
1558434026841960,-5,-7,-7,-7,-9,-4,-5,-2
1558434026856045,1,1,-4,-6,-2,1,0,0
1558434026856045,-2,6,7,2,-7,-6,-5,-3
1558434026863320,2,2,12,5,4,5,3,2
1558434026863320,2,3,-1,4,4,-3,0,1
1558434026878183,-5,-11,-5,-5,-4,-1,-4,-4
1558434026878183,-5,-8,-11,-8,-5,-2,-2,-2
1558434026885840,-2,-6,3,3,6,0,0,1
1558434026885840,2,3,8,1,-1,4,5,1
1558434026900941,-2,5,2,-4,-3,-3,-3,-3
1558434026900941,0,-1,-2,-1,0,-4,0,1
1558434026901801,-1,-1,-2,3,7,3,2,0
1558434026901801,-1,0,-4,6,3,2,-3,0
1558434026914799,0,-4,-6,-10,-7,-1,0,-1
1558434026914799,-1,7,2,-4,-5,-6,-4,-2
1558434026923031,-1,-1,-12,-4,2,6,4,1
1558434026923031,-5,-6,-7,-7,-3,-1,-2,-1
1558434026938017,-2,0,5,7,2,-2,-4,-1
1558434026938017,2,-6,-13,-8,-4,-1,0,-3
1558434026946002,1,6,14,1,-5,-6,-5,-2
1558434026946002,3,6,10,2,3,7,3,0
1558434026960962,0,-3,-16,-4,-4,-1,0,-3
1558434026960962,-3,-10,1,2,4,8,2,0
1558434026961642,-2,1,6,1,-6,-6,-6,-4
1558434026961642,-4,-7,-14,-5,-6,-5,-3,-3
1558434026974937,1,1,4,4,1,0,3,3
1558434026974937,-1,-1,2,1,5,-1,-1,-1
1558434026982897,-4,-4,2,-2,-2,1,-1,-2
1558434026982897,-2,-3,-2,-6,-5,-6,-5,-4
1558434026997870,1,0,2,0,0,-2,-1,-1
1558434026997870,-3,-5,-6,1,2,-3,0,1
1558434027006631,-2,2,-3,-2,-3,-2,-3,0
1558434027006631,-2,-2,4,-1,-5,-1,-4,-4
1558434027021478,3,3,5,2,3,4,-1,1
1558434027021478,-1,-3,9,3,1,4,2,-1
1558434027021478,-2,-5,-25,-4,-6,-4,-2,-2
1558434027021478,-2,-4,0,-4,-7,-10,-3,-1
1558434027035440,-3,-4,-2,1,0,1,2,0
1558434027035440,0,2,0,-1,-1,0,0,-2
1558434027042675,-1,0,2,-2,-4,1,0,-3
1558434027042675,-1,3,-6,-2,4,8,-1,-1
1558434027057413,0,-4,-1,0,-2,-2,-1,0
1558434027057413,3,6,-2,-4,-2,-4,-3,1
1558434027065360,5,3,6,0,6,4,4,3
1558434027065360,-10,-6,-4,1,2,-1,-2,-2
1558434027080322,-2,0,6,8,1,-1,-4,-1
1558434027080322,-4,-8,-12,-14,-7,0,0,-1
1558434027081317,0,-3,-2,-3,-6,-7,-2,-2
1558434027081317,3,1,5,-4,-3,0,0,0
1558434027096702,-4,-4,-3,2,0,6,5,-1
1558434027096702,-1,1,4,5,-3,-6,-2,-1
1558434027103472,0,-1,-6,-1,2,5,5,2
1558434027103472,4,1,-1,4,10,4,4,2
1558434027117661,-7,-12,-2,-5,-5,-6,-4,-1
1558434027117661,-2,-3,-8,-3,-5,-2,-4,-4
1558434027126198,-4,-1,4,1,-3,-1,-1,-1
1558434027126198,0,0,0,-1,-4,-4,-4,-1
1558434027141159,2,4,3,3,3,6,0,-2
1558434027141159,2,4,-2,10,8,-3,3,4
1558434027141159,-5,-3,-2,-13,-3,-1,-5,-4
1558434027141159,0,1,-4,-1,-5,-4,-6,-1
1558434027155120,-4,-7,1,-4,-5,-2,-2,-3
1558434027155120,0,-1,0,0,-1,-3,1,1
1558434027163556,0,1,5,4,1,-5,-1,0
1558434027163556,2,-3,-1,0,-6,-4,-1,-1
1558434027178510,2,5,11,-4,-6,-9,-7,-3
1558434027178510,-2,-6,-24,-2,4,9,5,-1
1558434027186037,0,-3,2,0,-2,-4,-3,1
1558434027186037,-3,-2,-3,-5,0,0,1,-2
1558434027201138,-2,3,6,2,-2,-6,0,-1
1558434027201138,0,-2,-2,-1,-1,1,-3,-1
1558434027201996,-1,-2,-3,0,-3,-4,-4,-3
1558434027201996,-1,-4,-1,-1,0,4,-3,-2
1558434027215416,-2,-1,2,4,5,1,3,1
1558434027215416,-1,2,9,3,0,-2,-2,-1
1558434027223303,-4,-1,-9,-7,-3,1,0,-1
1558434027223303,2,5,-2,-3,-1,-4,-1,-2
1558434027238232,-1,-2,-15,-7,-4,-6,-2,-3
1558434027238232,-12,-7,7,0,-3,-3,-1,-3
1558434027246224,2,5,4,5,8,7,3,2
1558434027246224,-1,-3,6,2,2,3,2,0
1558434027259842,2,-2,-10,-7,1,2,2,0
1558434027259842,3,1,2,-1,-1,-4,-4,-3
1558434027268817,0,-3,2,1,-3,-4,-2,-1
1558434027268817,-3,-5,-9,-1,2,-8,0,0
1558434027274800,-1,4,2,-3,-4,-2,-3,-2
1558434027274800,3,0,2,1,-1,0,-3,-1
1558434027282780,-1,-3,0,-3,-4,1,0,-3
1558434027282780,1,-1,3,8,0,2,-4,-3
1558434027298737,-1,-3,-4,-5,4,8,3,1
1558434027298737,-2,2,4,3,5,0,2,1
1558434027304756,-4,-3,-3,-5,-4,-5,0,-1
1558434027304756,-1,-1,0,-5,-6,-3,-3,-2
1558434027319716,-2,-2,-12,-4,-4,-8,-6,-4
1558434027319716,0,-4,-1,3,9,7,6,2
1558434027328692,3,-2,0,-3,-5,-2,0,0
1558434027328692,1,3,6,4,1,-1,0,0
1558434027334648,0,4,4,1,3,6,-1,1
1558434027334648,1,3,-12,-4,1,-2,-6,0
1558434027350597,0,0,6,5,0,-4,0,1
1558434027350597,-2,-4,-1,-1,-7,-7,-1,-4
1558434027357585,-2,0,3,0,-7,-7,-6,-2
1558434027357585,1,3,0,-3,-2,2,-2,-1
1558434027365558,-5,-2,-3,2,1,2,-2,-3
1558434027365558,-1,-2,-7,-4,-2,-5,-3,4
1558434027380533,-1,-1,3,7,1,-1,1,0
1558434027380533,0,-3,1,-10,-5,2,1,-2
1558434027388554,-2,-3,-11,-6,-2,-2,-2,-1
1558434027388554,-1,0,-1,-4,2,4,4,1
1558434027395477,-3,-6,-9,-1,-5,-5,-4,-4
1558434027395477,2,3,7,1,-5,-3,-1,0
1558434027402490,-12,-8,3,0,1,-3,-1,-2
1558434027402490,3,1,1,8,8,6,4,1
1558434027417419,-2,-3,-7,-8,-5,-4,-2,-4
1558434027417419,1,4,5,2,-2,0,2,0
1558434027425431,1,-2,-6,0,-5,0,-3,-2
1558434027425431,-3,-7,-4,-3,3,6,3,0
1558434027440417,2,1,2,1,-1,-8,4,4
1558434027440417,-3,-2,-5,2,0,0,-1,-2
1558434027448337,0,1,5,-4,-3,0,-1,-1
1558434027448337,0,-2,-5,-5,-11,-13,-6,-4
1558434027463295,0,-3,0,-2,-3,3,0,-2
1558434027463295,1,0,-6,1,1,-2,1,-1
1558434027464293,-1,-2,-4,4,11,8,4,1
1558434027464293,-5,-1,4,0,0,5,-2,-3
1558434027477260,-3,-1,0,2,3,-3,-4,-4
1558434027477260,-2,-4,-5,-8,-9,-2,-5,-5
1558434027485238,2,2,2,2,-1,-6,-2,1
1558434027485238,1,1,0,0,-3,-5,-2,-1
1558434027500231,0,-1,-4,-1,4,3,1,0
1558434027500231,0,1,7,3,5,5,2,2
1558434027508211,1,1,-5,0,-5,-10,-5,-3
1558434027508211,-2,0,-4,-10,0,0,-1,0
1558434027523171,0,-2,-1,1,-4,-2,-1,1
1558434027523171,-2,-3,-3,-5,-6,-1,-6,-3
1558434027524133,3,10,7,5,5,5,6,1
1558434027524133,-3,-12,-7,3,7,-2,-1,1
1558434027539093,-3,-1,-4,-8,-6,0,-5,-3
1558434027539093,-2,-12,2,2,6,-5,2,3
1558434027545076,0,-1,1,-4,-5,-1,-1,-2
1558434027545076,0,-1,0,1,-3,-1,-2,-2
1558434027560065,1,-2,0,0,-3,-2,-1,-2
1558434027560065,-5,-3,-9,-4,-5,-1,-2,-3
1558434027568025,3,-2,4,1,0,-5,0,0
1558434027568025,4,3,-1,-1,2,1,1,0
1558434027583012,1,3,1,5,7,5,-1,2
1558434027583012,-2,4,-2,2,-3,-4,-1,-1
1558434027583974,-3,-3,-4,-3,2,4,0,-2
1558434027583974,1,1,3,3,-2,5,1,0
1558434027597937,-1,-6,-8,-5,-4,4,0,-3
1558434027597937,1,2,2,-1,-3,-7,-5,-1
1558434027604946,0,-1,3,0,-7,-9,-4,-1
1558434027604946,1,6,2,0,0,-2,-3,-1
1558434027619911,-1,6,3,5,4,2,1,1
1558434027619911,-6,-7,-2,-1,6,8,6,0
1558434027627855,1,2,-6,-3,0,-5,-2,0
1558434027627855,-3,-1,-6,-5,-3,-5,-3,-2
1558434027642816,0,1,5,0,0,-2,0,1
1558434027642816,-1,-1,-6,-5,-7,-3,-4,-5
1558434027643812,-3,-6,-1,5,7,7,-1,0
1558434027643812,-3,0,4,3,4,1,0,0
1558434027657776,-1,0,2,1,3,-3,2,1
1558434027657776,2,-2,-3,-4,-5,-3,-4,-1
1558434027664756,-4,-6,-8,-11,-10,-3,-5,-5
1558434027664756,1,0,1,1,-5,-9,-3,0
1558434027679753,-1,-4,-6,-2,2,2,1,1
1558434027679753,1,4,5,0,-6,-5,0,1
1558434027688693,-2,-2,1,-4,0,1,-2,1
1558434027688693,0,0,-2,1,-2,7,3,0
1558434027703690,0,-2,-2,-4,-8,-9,-6,-3
1558434027703690,-2,-4,0,4,2,0,0,0
1558434027703690,1,1,3,2,-2,0,0,-4
1558434027703690,-1,-1,-3,-3,-6,-5,-1,-3
1558434027717616,-3,-2,-2,0,-1,1,0,-2
1558434027717616,1,2,-1,-3,-1,-5,-6,-1
1558434027725601,0,2,1,3,4,8,3,1
1558434027725601,7,12,14,9,11,6,7,4
1558434027740553,-8,-16,-15,-11,-10,-9,-5,-4
1558434027740553,-2,1,-12,-6,-1,-1,2,0
1558434027748567,-2,-8,-2,0,-3,-3,-3,-3
1558434027748567,-3,-5,-6,-9,-8,1,-2,-3
1558434027763492,1,2,6,1,-5,-4,-2,0
1558434027763492,1,3,13,8,3,-1,0,1
1558434027763492,1,-3,-8,-6,-1,3,4,3
1558434027763492,-4,-6,-1,1,-1,-1,0,1
1558434027777455,-1,-1,-3,-2,-8,4,1,0
1558434027777455,-2,-6,-6,-5,-6,-7,-6,-5
1558434027785435,0,3,3,4,-2,-3,-2,-1
1558434027785435,-5,-3,-5,-1,5,4,1,1
1558434027800394,-1,2,3,1,5,3,1,2
1558434027800394,1,0,-1,-1,0,4,2,2
1558434027808372,-2,1,0,-2,-5,-9,-4,-3
1558434027808372,-3,-3,-8,-6,0,6,2,-3
1558434027823332,2,3,5,5,-4,-3,-1,-3
1558434027823332,0,1,5,3,-3,-2,-2,-3
1558434027824338,2,1,1,-5,-1,-5,-4,2
1558434027824338,0,-1,-14,-6,2,4,0,-2
1558434027837294,0,1,5,0,1,-4,0,0
1558434027837294,0,-8,0,3,5,-4,2,0
1558434027845274,-2,-2,1,-2,-4,-2,-2,-1
1558434027845274,-1,0,0,1,-5,-4,-5,-2
1558434027860234,-1,1,-7,-2,-2,0,0,-2
1558434027860234,-5,-1,-8,-6,-3,0,2,-3
1558434027868213,3,-1,2,7,7,-2,2,3
1558434027868213,-1,0,5,-3,-1,-2,-2,0
1558434027883173,2,-2,-8,2,1,3,-6,-2
1558434027883173,-13,-10,-3,-8,-9,-4,-5,-1
1558434027884171,0,0,-8,-2,-6,-1,-1,-1
1558434027884171,-1,-2,-2,3,-1,-4,-1,-1
1558434027897134,0,-2,-8,-5,-2,-1,-2,-1
1558434027897134,-1,0,-3,0,-2,2,-4,-4
1558434027905114,1,2,2,3,3,-4,3,0
1558434027905114,-2,3,7,-1,0,-5,-1,-1
1558434027920073,-5,-6,-1,-2,-4,-5,0,-3
1558434027920073,1,-3,-5,-6,0,0,-2,1
1558434027928052,-2,-2,-6,-3,1,6,-2,-1
1558434027928052,3,4,2,0,-6,-1,-1,1
1558434027943012,-4,-1,-1,-1,2,3,0,0
1558434027943012,-3,-10,-6,-2,-5,0,-2,-2
1558434027944010,-1,-1,1,-3,-1,3,1,-1
1558434027944010,0,-4,-6,-3,-8,-8,-5,-3
1558434027957972,1,3,3,2,7,7,1,1
1558434027957972,3,4,1,0,2,0,5,4
1558434027964953,-5,-3,-6,0,4,2,-4,-2
1558434027964953,-5,-3,-2,1,1,1,-3,-3
1558434027979913,3,4,9,-7,-3,-9,-1,-1
1558434027979913,4,5,-3,3,5,-1,1,-3
1558434027987934,-1,-3,-10,-6,-7,-7,0,-4
1558434027987934,-3,-2,-6,-7,-4,-6,-3,-6
1558434028002852,0,-2,6,5,11,10,7,3
1558434028002852,3,5,9,1,-1,1,-2,-1
1558434028003849,1,1,-3,1,-3,-2,-4,0
1558434028003849,0,2,-1,1,-3,-1,-4,1
1558434028017812,-3,-1,-2,2,-8,-9,-6,-3
1558434028017812,-1,1,-8,-6,-3,0,-2,1
1558434028024795,-3,-5,8,6,8,7,0,-2
1558434028024795,-1,-7,-5,-3,-1,-2,1,-1
1558434028039788,-2,-2,-2,4,0,0,1,1
1558434028039788,-2,-2,4,2,0,-2,-2,-2
1558434028048730,-2,1,-5,-6,-6,-5,-3,-2
1558434028048730,0,0,5,-1,-4,-6,-1,1
1558434028063690,0,4,2,2,5,6,4,-1
1558434028063690,-3,-4,-12,-8,-8,-4,-5,-2
1558434028063690,0,0,1,-2,-4,-6,-3,-1
1558434028063690,-1,-1,3,3,7,8,5,1
1558434028077653,1,1,-2,-3,-3,-7,-2,0
1558434028077653,5,4,7,7,5,3,1,1
1558434028084657,-9,-8,-6,-4,-1,4,0,-3
1558434028084657,-6,-7,-3,-3,-2,4,4,1
1558434028100827,-3,-5,3,5,1,0,-1,-1
1558434028100827,2,1,-3,-3,-2,-3,1,0
1558434028108952,-3,-5,-1,-5,-8,-7,-5,-6
1558434028108952,0,2,-1,1,4,1,0,-1
1558434028124004,0,1,3,1,8,6,5,0
1558434028124004,-2,1,3,2,3,-1,1,2
1558434028124004,3,2,2,1,3,1,0,2
1558434028124004,0,-3,-4,-2,0,0,-3,-2
1558434028137862,-2,2,-3,-3,-6,-8,-6,-3
1558434028137862,-4,0,2,1,0,-1,-2,-1
1558434028145809,4,8,10,4,-3,-5,-4,0
1558434028145809,-3,-12,-15,-16,-10,-6,-3,-2
1558434028160632,-1,-5,-8,-3,1,0,-2,-1
1558434028160632,-2,-2,-8,-1,-3,2,4,-1
1558434028168258,-2,0,9,7,4,2,3,0
1558434028168258,1,5,-3,2,-4,-3,-3,-4
1558434028182255,-4,-2,-5,-9,-8,-4,-5,-7
1558434028182255,-4,-9,1,-5,-4,-2,-4,-5
1558434028191231,7,4,2,8,10,8,5,5
1558434028191231,-7,-2,5,5,6,2,0,0
1558434028197180,-4,-10,-10,-8,-9,-3,-4,-1
1558434028197180,0,4,-2,2,0,0,-2,-2
1558434028205157,-3,-4,-7,-6,-3,-6,0,-2
1558434028205157,2,3,1,0,-2,-2,1,0
1558434028220144,-2,3,5,4,-1,1,-1,-1
1558434028220144,-3,0,-5,-7,-5,-4,-4,-2
1558434028228098,2,0,-5,-4,-1,-1,-1,2
1558434028228098,0,1,3,2,4,3,0,0
1558434028243057,-1,1,2,-1,-1,-4,-2,-1
1558434028243057,1,1,8,2,3,1,-2,-2
1558434028251037,-5,-15,-15,-7,-3,-3,-3,-3
1558434028251037,1,-4,-7,-1,4,3,1,1
1558434028258025,0,0,2,2,5,2,3,1
1558434028258025,-1,3,1,-4,-2,-5,-3,-2
1558434028264998,0,-1,5,4,2,-2,-2,0
1558434028264998,1,0,4,-5,-5,0,1,2
1558434028279958,-1,-4,-8,-3,-7,-2,-3,-2
1558434028279958,1,5,5,4,0,5,6,3
1558434028287964,-2,1,-1,1,0,-1,0,1
1558434028287964,-1,1,-1,-3,-3,-6,-5,-3
1558434028302896,1,-2,2,1,-3,-4,-3,-1
1558434028302896,-7,-6,2,3,5,6,2,-1
1558434028310876,-1,1,1,-1,-2,0,-1,-3
1558434028310876,1,5,7,5,5,4,1,0
1558434028317864,0,0,-1,-2,1,-3,-1,1
1558434028317864,-1,-7,-15,-9,-5,-5,-4,-3
1558434028324837,-1,1,2,2,3,3,1,0
1558434028324837,-1,-2,-11,-3,4,8,7,3
1558434028339825,-3,-4,0,-6,-6,-7,-4,-3
1558434028339825,0,2,0,4,0,-1,-3,-2
1558434028347788,-3,-2,-2,-11,-8,-6,-4,-4
1558434028347788,-3,-2,11,8,3,0,1,-1
1558434028362736,-2,-1,-7,-2,4,6,2,0
1558434028362736,-3,-7,-6,-5,0,-3,0,0
1558434028370716,0,4,-1,0,-2,2,0,-2
1558434028370716,-2,0,-3,-1,-5,-5,-5,-4
1558434028385677,-2,0,-1,-8,-12,-10,-8,-6
1558434028385677,0,0,4,7,12,12,7,5
1558434028386673,0,0,4,2,3,2,-1,1
1558434028386673,-2,-4,-6,-5,-4,-4,-4,-3
1558434028399637,-1,2,2,1,2,-3,3,2
1558434028399637,1,-4,2,0,-3,-7,-2,-1
1558434028408676,-3,-10,-6,-4,-3,2,-2,-4
1558434028408676,4,4,5,1,3,-1,0,1
1558434028422576,0,2,-14,-6,-2,0,-2,-1
1558434028422576,-8,-2,7,1,-1,4,-1,-2
1558434028430556,3,7,2,3,1,-4,-2,1
1558434028430556,-5,-2,-7,-5,-7,-7,-5,-5
1558434028445549,4,1,2,4,4,8,3,0
1558434028445549,3,1,2,3,-3,-3,0,1
1558434028446512,-1,-1,7,1,4,5,2,-1
1558434028446512,-3,-3,-6,-4,-7,-9,-5,-3
1558434028460502,-2,3,-3,-1,2,1,1,1
1558434028460502,-2,-5,-4,-2,-3,1,-1,-3
1558434028468456,1,-1,-2,0,1,-1,1,0
1558434028468456,1,0,1,-4,-1,-1,-2,2
1558434028482417,-4,-5,1,0,0,-1,-2,-1
1558434028482417,-1,5,-1,-4,-5,-3,-6,-3
1558434028490396,-1,0,-2,-2,0,2,2,0
1558434028490396,-3,-3,-8,-5,-2,-6,0,-1
1558434028505392,-1,0,1,5,-3,-3,0,-2
1558434028505392,0,-2,-5,-1,-1,-6,0,1
1558434028506352,-3,-4,-1,-3,-6,-1,-4,-2
1558434028506352,1,2,0,1,6,7,3,1
1558434028520316,-1,-5,5,2,-1,0,-2,0
1558434028520316,1,2,-4,0,4,1,-3,-1
1558434028528292,0,-4,-7,-5,-4,-4,-1,-2
1558434028528292,-12,-4,7,4,1,-2,-2,-4
1558434028543318,-1,1,-2,0,2,1,1,-2
1558434028543318,-1,-5,-12,-16,-6,-1,-2,-2
1558434028550587,2,4,12,7,6,3,3,2
1558434028550587,-4,-5,-8,-3,-7,1,-3,-1
1558434028566522,-3,-5,1,1,1,0,-2,1
1558434028566522,-2,0,2,1,-6,-5,-5,-2
1558434028566522,1,1,-4,-2,-4,-7,-5,-1
1558434028566522,1,-1,0,-1,-1,-1,-3,-4
1558434028580158,0,1,1,-1,-3,-2,0,0
1558434028580158,1,0,2,0,0,1,-4,-1
1558434028588138,0,-1,-4,0,0,-3,3,1
1558434028588138,-1,0,6,2,-2,2,0,0
1558434028602097,-2,-3,-7,-7,-5,-5,-4,-3
1558434028602097,-4,-1,-3,-6,-10,-7,-4,-4
1558434028611099,2,1,5,8,12,10,10,6
1558434028611099,1,2,2,2,-1,0,-1,-4
1558434028626031,-1,-7,-2,-2,-4,-3,-1,0
1558434028626031,-1,-4,-4,3,1,-2,3,-1
1558434028626031,-6,-6,-5,-4,-2,1,-2,-3
1558434028626031,-1,3,0,-3,2,1,2,0
1558434028640029,1,1,8,2,3,1,0,0
1558434028640029,0,3,-1,0,0,1,-2,-3
1558434028649595,-4,-13,-18,-7,-10,-5,-7,-3
1558434028649595,3,3,-5,0,-4,-6,-2,0
1558434028662938,-2,-1,1,-3,3,2,-2,-3
1558434028662938,-1,-2,4,2,1,-3,0,2
1558434028671139,-1,5,8,3,-3,0,0,1
1558434028671139,-1,-2,3,-1,-1,3,-4,0
1558434028685874,-1,-1,-8,2,3,3,3,4
1558434028685874,3,1,3,3,6,3,3,3
1558434028686873,-1,0,-5,-9,-8,-3,-5,-5
1558434028686873,2,0,3,0,-1,-3,0,-1
1558434028699836,-2,-4,0,-2,-5,-3,-3,-3
1558434028699836,-3,1,6,2,4,5,1,-1
1558434028707815,-2,-3,-5,0,-4,-1,-6,-2
1558434028707815,-1,-5,-7,-5,-6,-3,-2,-1
1558434028722778,-1,2,0,-3,-3,-6,-1,-3
1558434028722778,1,0,1,3,1,-1,4,0
1558434028730828,-1,2,5,-4,0,-5,-4,-1
1558434028730828,-2,-7,-1,6,3,0,2,-1
1558434028745714,0,-1,1,-2,0,-2,-1,0
1558434028745714,-3,-8,-15,-10,-7,-5,-6,-5
1558434028746709,1,4,6,6,4,-2,3,1
1558434028746709,1,1,2,0,3,5,-2,0
1558434028759676,-12,-8,3,0,-2,4,1,-3
1558434028759676,-1,-3,5,3,-3,-5,-4,0
1558434028768672,-1,2,-3,-6,-6,-2,1,0
1558434028768672,2,-1,-12,0,2,4,3,2
1558434028782621,0,0,3,2,1,0,1,0
1558434028782621,-3,-1,-2,-7,-5,-3,-4,-2
1558434028790593,-2,0,-1,0,-3,-2,-2,-2
1558434028790593,0,0,8,3,4,0,0,0
1558434028805552,2,3,-9,-2,0,-4,-2,-2
1558434028805552,0,-3,-1,-3,1,3,2,-1
1558434028806549,-2,-5,-10,-4,-5,-2,-2,-1
1558434028806549,-2,0,0,0,-3,0,-3,-2
1558434028820512,-3,-9,-9,-3,-2,-5,-4,-2
1558434028820512,1,0,-2,0,5,4,5,3
1558434028835472,-4,-3,-2,-3,-2,0,-2,-3
1558434028835472,-2,0,5,-2,-1,0,-2,1
1558434028842457,2,3,2,5,-2,-8,-5,-1
1558434028842457,2,7,7,3,0,0,-1,-1
1558434028850434,-7,-16,-20,-7,-1,-3,-4,-2
1558434028850434,1,0,1,3,0,-8,-2,-1
1558434028865393,2,0,-1,-3,-5,6,0,2
1558434028865393,-2,-1,-1,-2,-3,3,0,0
1558434028866389,5,9,7,5,-1,-1,-1,-1
1558434028866389,-7,-7,5,1,-2,0,-1,-3
1558434028880353,-3,-8,-26,-2,1,3,0,0
1558434028880353,-1,4,4,-7,-5,-2,-1,-4
1558434028888331,-3,-3,-6,-5,-3,0,0,-1
1558434028888331,2,6,3,-1,2,0,3,1
1558434028902295,0,-3,6,3,4,2,0,0
1558434028902295,-7,-8,-16,-2,-3,-4,-2,-3
1558434028910273,3,6,4,3,3,2,2,1
1558434028910273,-4,-8,2,-1,-2,-4,-1,-1
1558434028925248,-1,0,6,5,0,-3,-1,-1
1558434028925248,1,6,-1,-7,-8,1,-1,-1
1558434028926230,0,-5,-10,-4,1,-2,1,-2
1558434028926230,-10,-9,10,2,-1,-2,-1,-2
1558434028940192,4,15,18,6,7,6,3,2
1558434028940192,-4,-12,-20,4,2,-8,-3,-1
1558434028948170,-4,-7,11,-4,-5,1,-1,-2
1558434028948170,2,2,2,-7,-10,-5,-4,-3
1558434028962137,-4,-9,-8,-4,2,-3,0,-1
1558434028962137,3,5,11,3,4,1,-1,0
1558434028971116,0,1,-8,4,7,1,2,1
1558434028971116,3,3,-1,1,-2,-1,-2,-2
1558434028986076,1,6,12,1,-4,-3,-1,-1
1558434028986076,0,1,-8,-3,-1,-4,-5,-3
1558434028986076,-3,-1,-19,-4,-4,-3,1,-3
1558434028986076,-3,-5,-5,1,4,-4,2,3
1558434029000032,1,3,-4,0,-3,-4,-4,-1
1558434029000032,-2,-5,-11,-6,-4,0,-1,0
1558434029008011,1,2,9,0,-5,-2,-4,-4
1558434029008011,1,6,-6,-5,-4,-1,-1,-1
1558434029022976,-2,-7,0,5,7,-1,2,1
1558434029022976,-13,-15,-4,-2,-2,-3,-1,-3
1558434029037939,2,5,12,0,-3,-1,-1,1
1558434029037939,1,2,-3,-1,-4,-1,-1,-1
1558434029045913,-2,-11,-14,-10,-6,-1,-2,-3
1558434029045913,5,3,6,6,4,5,2,2
1558434029045913,-2,0,3,1,1,-4,-4,-1
1558434029045913,1,6,-1,-1,2,2,-2,-2
1558434029059877,-1,0,-1,-6,-3,3,-2,-1
1558434029059877,1,-2,7,1,0,-6,-1,1
1558434029067851,-4,-3,-2,-2,0,-3,0,1
1558434029067851,1,-3,-3,1,-4,-7,-4,-3
1558434029082813,-1,1,5,-10,-1,3,3,0
1558434029082813,-1,-2,-9,0,3,6,2,-1
1558434029090789,1,2,5,0,1,-3,1,0
1558434029090789,-3,-3,-8,-2,0,-2,-2,-2
1558434029104755,-5,-4,-4,-5,-10,-6,-6,-4
1558434029104755,4,8,13,6,3,2,2,3
1558434029113733,3,0,1,4,3,-1,1,2
1558434029113733,-2,-5,-5,-4,-5,-2,-2,-2
1558434029119712,-2,-5,-3,0,-2,1,-1,-2
1558434029119712,1,3,2,0,1,1,1,2
1558434029127692,-3,0,-3,1,-2,-4,-3,-2
1558434029127692,3,2,-3,0,0,3,1,-1
1558434029142654,3,4,5,0,-2,-2,-3,-2
1558434029142654,-3,-4,-6,-2,-8,-4,-6,-6
1558434029150629,-3,-5,-4,-8,-6,0,-3,-2
1558434029150629,-1,-2,-3,2,7,3,1,3
1558434029164605,0,4,1,2,1,3,1,-1
1558434029164605,0,1,4,2,-3,-10,0,-1
1558434029173569,-3,-3,5,-1,-3,-1,-1,-1
1558434029173569,-3,-5,-9,-3,-4,-2,-3,-4
1558434029180549,-1,-4,-9,-1,3,-4,-1,0
1558434029180549,-1,0,0,1,1,0,-2,-2
1558434029187533,-2,-1,5,2,5,1,-1,1
1558434029187533,-4,-2,-8,-9,-4,-5,-4,-3
1558434029202504,0,2,-3,1,2,3,0,1
1558434029202504,0,2,3,6,3,3,-3,-2
1558434029210506,-2,-5,-4,-12,-7,1,-2,-3
1558434029210506,-1,-2,3,3,-2,-2,0,0
1558434029225509,-2,3,1,0,-1,1,2,-1
1558434029225509,0,-2,-4,-10,-12,-9,-5,-3
1558434029233482,-4,-2,-1,11,5,5,2,-1
1558434029233482,0,0,2,4,3,0,1,0
1558434029240390,-2,-4,-7,-11,-3,-6,-4,0
1558434029240390,0,1,3,-2,2,-2,1,0
1558434029247371,0,3,-3,0,-3,1,-2,-2
1558434029247371,-8,-14,-4,-5,-2,5,-3,-5
1558434029262365,2,0,3,6,1,-2,1,0
1558434029262365,2,-1,1,1,-1,-5,0,3
1558434029271307,2,3,-3,0,1,-2,0,-2
1558434029271307,1,4,1,2,4,6,2,0
1558434029285279,-1,1,4,-1,-2,0,-4,-1
1558434029285279,-4,-9,-8,-1,-6,-2,-5,-4
1558434029293259,1,-3,-1,0,0,-5,0,0
1558434029293259,1,5,9,-2,1,4,2,1
1558434029308211,-6,-10,-17,-4,-6,1,-2,-3
1558434029308211,0,0,3,2,-2,-3,-1,-1
1558434029309212,-1,-4,-2,-6,-2,-1,0,-2
1558434029309212,1,-2,-1,-1,-1,-7,-1,1
1558434029322174,2,5,3,-2,1,-3,0,1
1558434029322174,-1,1,-1,1,1,-3,0,0
1558434029331150,-1,0,-1,1,3,3,-4,1
1558434029331150,-3,-4,1,6,-6,-1,-3,-3
1558434029345109,-2,-3,-1,-6,-3,-1,-2,-1
1558434029345109,3,-2,-5,0,1,0,4,1
1558434029353098,-12,-12,-11,-4,-1,0,2,-3
1558434029353098,1,-1,0,-3,-3,0,-5,-2
1558434029368056,0,1,3,3,-1,-6,-1,-1
1558434029368056,-2,1,7,6,8,2,0,1
1558434029369058,0,-2,-14,-7,-6,-8,-6,-6
1558434029369058,-6,-10,-8,-11,-13,-4,-4,-1
1558434029383027,0,2,4,5,-4,-3,-2,-1
1558434029383027,-3,-5,-7,-8,1,12,1,-3
1558434029390988,7,10,14,10,13,-3,5,8
1558434029390988,-1,5,-2,-6,-9,-11,-8,-6
1558434029404960,-2,-8,-5,4,3,2,1,0
1558434029404960,0,6,5,0,3,1,2,0
1558434029412993,0,-2,1,1,-1,0,-3,-3
1558434029412993,1,-3,-4,-9,-6,4,2,-2
1558434029427889,-1,0,0,0,-1,-10,-4,-3
1558434029427889,-1,-1,-7,3,-2,-1,3,1
1558434029428884,1,-2,0,4,14,13,11,3
1558434029428884,0,4,5,-5,-9,-14,-5,0
1558434029442883,-3,0,1,2,-3,8,1,-2
1558434029442883,-3,-3,5,-4,-7,-7,-7,-2
1558434029450828,1,2,-2,-3,-8,-4,-6,-3
1558434029450828,4,1,5,2,4,-1,8,6
1558434029464823,2,2,0,-3,13,7,0,2
1558434029464823,-3,-1,-3,1,-1,-4,-3,1
1558434029472804,-1,2,13,-2,-11,-2,-7,-3
1558434029472804,-4,-5,-20,2,5,2,-2,-4
1558434029487728,3,6,14,0,-1,4,4,2
1558434029487728,-5,-10,-14,-6,-9,-8,-7,-4
1558434029488734,0,-1,-1,3,-8,-10,-1,0
1558434029488734,-3,0,9,0,10,9,2,1
1558434029502690,1,0,-3,-7,-9,-7,-5,-4
1558434029502690,2,6,11,13,11,10,8,0
1558434029510674,-4,-5,-11,-13,-17,-2,-5,-4
1558434029510674,-8,-15,-10,3,9,1,1,0
1558434029524633,2,2,11,7,4,-10,-2,1
1558434029524633,-5,-8,-11,-13,-3,10,2,0
1558434029533604,5,7,11,6,2,0,5,4
1558434029533604,2,3,-24,-4,-4,-3,-4,-3
1558434029548565,-5,-6,-4,-3,-15,-1,0,-1
1558434029548565,-2,2,4,-8,-3,-2,-8,-6
1558434029548565,1,3,9,4,2,6,3,1
1558434029548565,0,-3,-11,-6,2,-2,3,0
1558434029562528,-4,-3,-6,7,3,2,2,-2
1558434029562528,1,0,-2,-2,-8,-7,0,0
1558434029570539,-2,-2,-6,-4,3,2,-3,-1
1558434029570539,4,12,17,6,-3,-7,-2,0
1558434029585472,0,-1,-2,0,15,13,9,6
1558434029585472,-4,-5,-10,-6,-6,-1,1,-3
1558434029593444,-3,-2,8,3,2,-3,-2,-4
1558434029593444,0,-2,-8,9,-1,2,2,-1
1558434029608408,-1,-2,6,-7,-12,-11,-10,-6
1558434029608408,0,3,11,5,11,2,-1,0
1558434029608408,-1,-1,-4,-3,-6,3,1,0
1558434029608408,-2,-2,-8,3,5,0,2,1
1558434029622367,1,-2,6,3,-1,0,1,0
1558434029622367,-5,-8,-24,-10,-6,-4,-4,0
1558434029630345,-2,-2,-1,1,-4,-6,-7,-3
1558434029630345,1,0,3,-5,-4,0,-3,-3
1558434029645306,0,1,-3,6,8,2,0,0
1558434029645306,1,-2,-1,-12,-9,-2,-2,-1
1558434029653285,0,2,2,5,5,2,1,2
1558434029653285,-2,-2,0,-2,-5,-4,-2,-2
1558434029668255,0,1,-1,-1,-1,1,0,-3
1558434029668255,-3,-2,-3,8,4,1,-1,-4
1558434029675228,-1,1,-13,-8,-5,-2,0,-2
1558434029675228,-3,-6,4,1,-4,-3,-7,-5
1558434029682207,-2,-3,-8,-8,-4,1,4,0
1558434029682207,6,8,7,6,2,-2,0,5
1558434029690186,-3,-2,-5,4,10,5,0,-1
1558434029690186,-1,5,8,0,0,3,5,4
1558434029705145,-2,0,-3,-2,-5,-3,-6,-3
1558434029705145,-1,-5,-6,-2,-1,-1,-2,-2
1558434029713124,-1,-1,2,-3,-5,-10,-3,-2
1558434029713124,1,3,10,-1,1,1,-2,-1
1558434029728095,2,0,-13,2,-3,1,3,-1
1558434029728095,-5,-6,2,4,4,3,0,-1
1558434029729082,-2,-5,-9,-5,-2,-2,0,-3
1558434029729082,0,-2,1,-3,-3,-2,1,2
1558434029743044,0,-2,-4,-5,0,-2,-3,-1
1558434029743044,-1,-1,-5,-1,-4,-8,-8,-4
1558434029751023,-3,-8,-1,6,8,0,0,-2
1558434029751023,4,7,19,1,2,4,7,5
1558434029764987,-6,-8,-25,-11,-4,-5,-6,-4
1558434029764987,-2,3,9,4,-4,-3,-5,-3
1558434029772964,0,-1,-5,-4,-1,2,4,3
1558434029772964,-1,4,1,4,0,3,-1,-2
1558434029787926,-1,0,6,2,-4,-8,-4,0
1558434029787926,-1,-8,-5,0,2,2,-3,-3
1558434029788922,1,3,0,-2,-3,0,0,1
1558434029788922,1,1,2,7,3,-1,-2,-2
1558434029802884,0,0,-3,-3,-3,1,-1,-1
1558434029802884,-2,5,2,-6,-2,-4,2,1
1558434029810864,0,-2,12,1,0,-2,-4,0
1558434029810864,0,3,-8,-1,0,-1,-2,-3
1558434029824830,-6,-5,1,-5,-4,-8,-3,-2
1558434029824830,2,1,6,2,-8,-4,1,0
1558434029832805,-2,-5,-11,0,3,4,2,-1
1558434029832805,-1,-2,3,-8,1,0,0,2
1558434029847764,1,1,11,6,0,1,0,-2
1558434029847764,-2,-4,-8,-3,-3,-6,-3,-2
1558434029848763,-3,-6,-12,-10,-6,-1,-2,-3
1558434029848763,-2,-4,-8,-2,-7,-4,-4,-2
1558434029862730,-3,2,8,-4,-3,-2,2,2
1558434029862730,-1,0,4,4,5,3,4,2
1558434029870703,1,1,1,2,0,-1,-3,0
1558434029870703,-5,-6,3,4,1,-3,-3,-4
1558434029884670,0,0,-5,-2,-1,-1,-2,0
1558434029884670,-2,-7,-5,-5,1,2,0,-1
1558434029892653,1,0,-5,0,-4,-4,-4,-2
1558434029892653,-10,-13,-2,-1,0,-2,-4,-2
1558434029908603,2,1,3,2,1,-1,-1,0
1558434029908603,4,3,13,2,-1,2,1,0
1558434029909606,-2,-6,-20,-6,-3,0,3,0
1558434029909606,-1,7,7,0,1,3,1,-2
1558434029922568,-5,-9,-5,-1,2,4,-1,-3
1558434029922568,0,-1,-6,2,-1,-9,-2,-2
1558434029930543,-1,-1,-4,-11,-4,-6,-1,-1
1558434029930543,3,3,0,4,0,-1,1,0
1558434029945504,-1,-4,-4,-2,-2,-1,1,0
1558434029945504,-3,2,6,-5,-2,1,-1,0
1558434029953485,-3,-1,-5,3,-3,-2,-3,-2
1558434029953485,-2,-4,-10,-7,-3,-4,-5,0
1558434029968443,0,-3,-14,-1,2,3,3,0
1558434029968443,-2,2,5,5,1,-1,-2,-1
1558434029968443,-1,-1,6,-1,-1,-4,-3,-1
1558434029968443,1,-5,-3,0,-5,-2,-2,-1
1558434029982406,0,2,2,-1,0,-2,0,1
1558434029982406,1,4,1,1,-1,-1,-1,0
1558434029990383,0,1,4,0,1,1,-2,-2
1558434029990383,-5,-14,-8,-4,-4,2,-1,-2
1558434030005343,2,4,2,-2,-6,-2,-1,-1
1558434030005343,1,0,-5,2,0,-2,-3,-1
1558434030013325,-1,2,12,5,2,4,4,-1
1558434030013325,1,-2,-11,-7,0,0,2,-1
1558434030028281,-1,0,2,0,-2,-6,-3,-2
1558434030028281,0,-2,-4,-5,-4,-1,-1,-3
1558434030029281,0,-1,9,11,10,6,3,3
1558434030029281,2,1,-1,-6,-1,3,0,0
1558434030042246,-2,-1,-7,-7,-1,4,2,4
1558434030042246,-2,-1,2,-2,-8,-7,-3,-3
1558434030051225,-1,-2,1,-1,-4,-1,0,0
1558434030051225,3,3,7,9,5,-2,3,2
1558434030065189,0,4,4,-1,3,5,-3,-5
1558434030065189,-1,2,0,1,4,7,3,2
1558434030073161,-3,-5,-1,-4,-9,-12,-7,-5
1558434030073161,1,0,-3,-6,2,7,5,6
1558434030087125,-3,0,-1,0,-1,2,-2,-9
1558434030087125,2,-1,-2,0,3,2,3,-1
