timestamp,emg1,emg2,emg3,emg4,emg5,emg6,emg7,emg8
1558434041413987,-5,-1,3,2,-2,-1,0,-1
1558434041413987,-4,-11,3,-4,-3,-3,-5,-2
1558434041414985,-2,-2,1,3,2,7,1,-4
1558434041414985,1,5,2,3,3,-7,0,3
1558434041415981,-1,2,-3,-1,3,0,-1,-3
1558434041415981,1,8,4,2,-3,-2,0,-1
1558434041416979,1,4,5,0,0,0,-2,-1
1558434041416979,-3,-1,3,-1,-4,-2,0,3
1558434041428946,3,-6,-16,-7,-5,-4,-2,-1
1558434041428946,-14,-14,-5,-1,-2,-1,0,-2
1558434041436926,1,2,-6,0,2,-1,0,-2
1558434041436926,2,0,1,0,3,6,2,-1
1558434041441913,-4,5,0,3,1,-3,0,-1
1558434041441913,1,3,3,-5,-2,0,-1,-2
1558434041456873,-6,-20,-9,-6,-3,-5,-4,0
1558434041456873,-1,0,1,2,3,4,1,2
1558434041466846,3,1,4,1,-1,-1,-2,0
1558434041466846,1,7,5,1,0,1,-2,-4
1558434041471832,-5,-3,-1,-3,-6,-3,-1,1
1558434041471832,1,2,3,-2,-7,-7,-7,-4
1558434041487789,0,2,0,-1,9,10,3,3
1558434041487789,3,1,-7,0,2,1,-1,1
1558434041501751,-7,-1,10,0,-5,-3,0,-1
1558434041501751,-8,-16,-23,-11,-3,-7,-3,-6
1558434041535661,6,4,6,-1,-1,2,2,2
1558434041535661,2,6,7,2,0,2,-1,-2
1558434041536659,-2,-4,-14,-1,-5,2,-1,0
1558434041536659,5,6,25,9,5,4,0,0
1558434041536659,-5,-2,-12,-9,-8,-5,-6,-2
1558434041536659,-5,-5,-2,0,-1,2,0,-3
1558434041539652,-6,-19,-17,-6,6,6,0,-3
1558434041539652,3,12,2,-2,-1,11,-2,0
1558434041548627,8,5,12,13,5,14,1,1
1558434041548627,-3,-2,-4,-18,-9,3,-2,-1
1558434041555609,-4,-1,4,-3,-5,-4,-4,-3
1558434041555609,-3,-9,-7,5,-1,-7,2,-2
1558434041562589,10,12,-13,-10,-3,-13,-1,0
1558434041562589,-11,-4,-3,4,0,-9,-1,-2
1558434041578546,8,14,12,5,13,-4,3,2
1558434041578546,-11,-18,4,5,-4,-10,-3,-3
1558434041585527,-15,-10,-11,-9,-3,-6,-1,-5
1558434041585527,17,7,0,-6,3,-3,3,3
1558434041592509,-8,-14,2,-3,-6,-11,-3,-2
1558434041592509,1,5,-5,4,2,-10,-4,-1
1558434041607486,6,5,10,10,-4,-4,-2,0
1558434041607486,-6,-9,3,-1,-3,-2,-3,-1
1558434041614451,3,9,-1,1,-1,3,-2,-2
1558434041614451,1,-2,-8,-11,-3,-8,-3,0
1558434041622444,-6,-9,-2,2,4,3,3,0
1558434041622444,3,7,2,2,-2,-7,-5,-4
1558434041637390,2,14,6,1,-3,-2,-1,-1
1558434041637390,9,-5,-5,-4,0,8,1,-1
1558434041644370,-20,-15,-2,-3,3,0,-1,-4
1558434041644370,-7,-10,4,8,-3,-2,0,1
1558434041653345,5,5,2,-9,-5,1,-2,0
1558434041653345,-2,3,-21,-15,-4,-7,-3,0
1558434041676286,7,10,6,-2,4,0,2,2
1558434041676286,-12,-17,-3,6,1,4,3,0
1558434041677282,-5,-9,-2,-7,-7,-4,-2,-5
1558434041677282,-2,1,9,4,-2,-2,-2,-3
1558434041684263,11,14,13,6,1,2,-2,2
1558434041684263,6,9,-12,-3,5,0,1,0
1558434041705213,-28,-28,-3,-2,-6,-5,-5,-6
1558434041705213,-2,-2,4,2,3,3,-1,-3
1558434041706208,-4,-11,-17,-9,-12,-4,-5,-3
1558434041706208,5,6,9,3,2,6,1,2
1558434041713189,9,5,-2,6,4,-1,1,1
1558434041713189,-5,0,4,-4,-3,-1,-3,-3
1558434041728148,-8,-10,-8,-7,-10,-9,-3,-1
1558434041728148,1,3,0,4,3,-5,-6,-2
1558434041735134,7,-1,-16,-5,2,7,2,0
1558434041735134,-1,1,0,2,-5,-3,0,2
1558434041742145,9,7,4,-2,2,3,0,-1
1558434041742145,-7,-8,-1,-2,2,3,4,-2
1558434041757071,2,7,1,7,2,-1,-2,-1
1558434041757071,-7,-17,-4,-5,-6,-2,0,-1
1558434041765047,-3,-7,5,2,-2,1,-3,-2
1558434041765047,-1,2,-10,-5,1,0,0,-1
1558434041773026,-4,-2,5,3,-1,2,1,-1
1558434041773026,0,5,-2,-7,-4,3,2,0
1558434041787985,0,2,1,1,3,-5,-1,-1
1558434041787985,7,-3,-7,-3,-3,-2,-7,-4
1558434041794967,-6,4,2,3,1,-2,-2,-1
1558434041794967,-2,2,-3,-5,-10,-10,-7,-2
1558434041801949,-4,-6,0,-1,-1,2,2,0
1558434041801949,1,1,3,3,4,6,7,4
1558434041816910,2,-2,-7,-2,10,5,1,0
1558434041816910,0,1,9,6,4,0,0,-2
1558434041824889,-3,4,-1,-9,-7,-5,-3,-5
1558434041824889,-3,-9,-7,-5,-12,-10,-8,-3
1558434041839851,-3,-9,3,0,-6,-1,1,1
1558434041839851,0,0,-4,-1,4,4,0,0
1558434041847826,5,4,-1,1,3,-2,2,0
1558434041847826,-9,-11,1,2,-1,-1,-1,-3
1558434041854808,4,6,-5,-8,-7,-8,-3,0
1558434041854808,2,0,2,8,9,9,2,3
1558434041861791,0,3,-10,-6,-9,-5,-8,-3
1558434041861791,-10,-6,-1,-7,-6,-1,-4,-2
1558434041876749,2,5,13,18,16,9,7,5
1558434041876749,1,2,-27,-15,0,-4,3,2
1558434041885726,3,-9,8,2,0,2,1,0
1558434041885726,-4,3,0,1,0,-2,-6,-4
1558434041899689,-1,-5,0,-9,-9,-5,-2,-2
1558434041899689,-2,-1,-8,-5,-3,-2,0,1
1558434041907667,-2,0,0,1,3,2,-3,-2
1558434041907667,4,-5,-2,-4,-6,-3,-3,-1
1558434041914648,-9,-4,6,2,2,4,1,2
1558434041914648,-1,-1,7,1,0,2,-3,-8
1558434041921630,-3,0,-4,0,0,2,1,0
1558434041921630,0,11,6,4,3,6,2,2
1558434041937586,2,-4,-5,-10,-5,-3,-6,1
1558434041937586,-3,-2,-4,-2,-4,-6,-3,-3
1558434041945564,-2,-5,1,5,1,2,1,-4
1558434041945564,5,7,10,5,0,-6,0,1
1558434041959528,3,0,-8,-11,-5,-7,-2,-3
1558434041959528,-2,-2,-2,-1,2,-1,-1,0
1558434041967506,-2,-7,-10,-8,-5,-3,-1,-3
1558434041967506,1,0,3,2,-2,-1,1,0
1558434041974488,6,10,8,10,0,-1,-3,-2
1558434041974488,-9,-13,-16,-16,-8,0,-5,-2
1558434041982466,1,2,8,8,5,-2,1,0
1558434041982466,7,5,-4,-8,0,1,2,1
1558434041997427,-24,-24,-7,0,0,-3,0,-3
1558434041997427,4,7,15,7,0,0,1,-5
1558434042005405,-4,-6,-12,-6,0,0,1,-1
1558434042005405,4,2,-6,-10,-5,-4,-4,-2
1558434042019368,3,10,5,5,-1,-4,-1,-1
1558434042019368,-5,-6,-4,-2,-2,-2,0,2
1558434042028344,-3,0,8,4,0,-6,-3,-3
1558434042028344,-4,-7,-8,-2,-4,-1,1,-1
1558434042036323,4,0,0,-5,1,0,2,0
1558434042036323,3,2,-1,5,4,4,4,2
1558434042042308,4,3,-5,1,4,-5,-2,0
1558434042042308,-5,-3,-3,-8,-11,-8,-5,-4
1558434042057266,4,5,4,-1,-4,-6,-5,-2
1558434042057266,-6,-8,-2,8,-2,-1,-3,-1
1558434042065244,5,5,1,-5,7,6,4,5
1558434042065244,-5,-2,-6,-9,-3,-3,-1,-2
1558434042079208,-2,-4,3,-5,1,0,0,-2
1558434042079208,3,3,9,5,1,-3,-3,-3
1558434042088185,0,3,3,6,-5,-8,-3,-3
1558434042088185,4,1,-1,2,-2,-4,-3,0
1558434042094173,1,0,-2,-4,-2,-1,1,1
1558434042094173,4,6,0,-2,2,-2,0,2
1558434042110125,2,-2,4,5,6,2,2,1
1558434042110125,2,0,0,0,0,-4,1,-2
1558434042117108,0,-1,-11,-14,-12,-7,-5,-4
1558434042117108,-4,-4,-2,-2,-3,-1,0,-2
1558434042125087,-2,-3,-7,0,-1,-6,-2,0
1558434042125087,-3,3,10,0,9,0,1,0
1558434042140049,8,3,-1,7,-1,-6,3,1
1558434042140049,-9,-8,-3,-1,5,-7,-1,0
1558434042148027,-6,-1,1,0,-8,-10,-5,-2
1558434042148027,9,-1,-3,8,3,-2,2,-1
1558434042155004,0,-1,-2,-2,2,-6,0,0
1558434042155004,-1,-2,-3,2,0,-5,0,-4
1558434042169966,-7,-9,0,-5,-6,-6,1,-1
1558434042169966,6,6,10,11,4,-2,1,3
1558434042176946,-15,-9,-13,-8,-2,-7,-3,-1
1558434042176946,-2,-6,-1,-7,-6,-9,-4,-2
1558434042184925,-1,-1,-9,-12,-3,-8,-4,-2
1558434042184925,-5,0,1,-9,-11,-12,-3,-2
1558434042199886,6,3,2,5,5,-2,4,2
1558434042199886,9,18,19,14,11,0,5,6
1558434042207864,-2,-7,-13,2,4,4,3,2
1558434042207864,-7,-8,0,1,0,-5,-5,-4
1558434042214845,-4,1,-2,1,-8,-16,-7,-5
1558434042214845,-2,-5,-14,-16,-8,-1,0,-1
1558434042229805,6,8,12,7,9,8,3,3
1558434042229805,0,0,-5,5,2,4,-2,-1
1558434042236786,1,3,4,-3,0,6,-2,-2
1558434042236786,-3,-6,-4,-2,-4,-4,-5,-2
1558434042245762,1,3,2,-3,-1,3,0,-1
1558434042245762,-3,0,-2,0,-1,2,-2,-1
1558434042259725,-4,-4,0,-2,-4,3,-4,-5
1558434042259725,2,0,2,1,0,5,-2,-3
1558434042267704,-6,-5,-9,0,-6,-1,-1,-1
1558434042267704,6,2,-5,-2,7,7,1,-1
1558434042274685,9,7,7,1,-8,2,-1,-1
1558434042274685,-5,-3,-4,-4,-1,7,4,1
1558434042290642,-4,-11,-3,0,6,13,4,-2
1558434042290642,-4,-1,-4,-10,-8,1,-3,0
1558434042297623,-2,-6,-6,0,-4,3,-6,-4
1558434042297623,-1,1,4,-2,1,7,0,0
1558434042305602,-1,3,4,-3,-5,-1,-4,-2
1558434042305602,-1,-4,-1,2,5,11,2,0
1558434042319564,-4,-3,-5,-1,2,4,-3,-3
1558434042319564,3,7,4,5,4,3,-1,1
1558434042327561,-8,-6,3,-4,-7,-3,-3,-5
1558434042327561,-6,-4,-16,-3,-3,1,-2,1
1558434042334524,0,-2,1,2,8,10,1,-1
1558434042334524,2,-1,-7,-8,-13,0,-4,-1
1558434042350483,8,11,9,0,2,5,0,2
1558434042350483,-15,-12,-9,-2,2,1,-2,-4
1558434042357463,-2,0,-2,-2,-3,1,-3,-1
1558434042357463,3,-2,1,1,-1,1,0,0
1558434042364444,-1,1,7,4,1,3,-2,-3
1558434042364444,1,2,-2,-2,-2,-3,1,1
1558434042379409,2,-4,-3,9,10,10,6,2
1558434042379409,-4,-1,8,-1,-2,1,-1,-3
1558434042387383,-2,-1,-5,-8,-6,-3,-4,-1
1558434042387383,1,0,3,-3,-8,-10,-2,-1
1558434042394364,0,-3,-4,-1,2,5,-1,-1
1558434042394364,-2,-1,-4,-1,0,3,-3,-5
1558434042410324,-4,-6,-1,-1,-3,2,1,-1
1558434042410324,1,6,-1,2,6,4,5,2
1558434042417307,1,-7,-4,-6,-4,-9,0,1
1558434042417307,-4,1,4,7,4,2,-2,0
1558434042425286,-1,-2,-6,-10,-8,-2,-4,-3
1558434042425286,-11,-11,1,0,-4,4,-3,-2
1558434042439246,0,1,-2,-5,-8,2,-2,0
1558434042439246,1,1,0,3,-2,-14,-1,-3
1558434042448221,-1,-3,-3,6,7,1,3,4
1558434042448221,2,3,3,-6,-3,1,-3,1
1558434042454205,-4,-3,-1,0,-2,-2,-5,-3
1558434042454205,-1,5,-2,-4,-4,-1,-2,0
1558434042470167,1,6,-4,-1,2,5,0,-2
1558434042470167,-3,-6,3,5,1,2,2,0
1558434042477147,-4,-8,-2,-1,1,-1,0,0
1558434042477147,0,-1,-11,-2,1,-1,0,0
1558434042485125,0,-7,1,-5,-5,-6,-2,-2
1558434042485125,1,7,-2,-4,-6,1,-5,-3
1558434042509059,1,12,1,-3,0,-2,3,-1
1558434042509059,0,-9,2,-2,1,6,-2,1
1558434042510055,-6,-13,-7,0,-2,-9,-1,1
1558434042510055,0,-9,2,1,5,0,-1,0
1558434042522024,1,6,1,-2,-4,-3,-2,0
1558434042522024,-2,4,5,-1,-1,-4,1,-1
1558434042530002,-2,-1,-12,2,6,8,-3,-4
1558434042530002,1,2,-2,-3,-6,-5,-3,-3
1558434042544969,1,0,5,-2,2,7,6,2
1558434042544969,-1,-2,1,5,9,6,1,1
1558434042545966,-6,-5,1,3,-9,-8,-6,-5
1558434042545966,1,4,4,1,5,6,3,0
1558434042559923,-3,-13,-13,-8,-11,-11,-3,-1
1558434042559923,0,-7,0,0,-5,-3,-6,-4
1558434042567906,4,6,7,-4,2,2,1,1
1558434042567906,1,-2,-9,-1,5,-4,3,2
1558434042581867,-3,-1,3,2,0,0,-3,-2
1558434042581867,-1,-4,-1,-2,-5,2,0,0
1558434042590841,2,4,1,-1,-2,-1,-1,-1
1558434042590841,-1,5,6,1,-6,-4,-4,-2
1558434042605805,-2,-4,-19,-7,1,3,-3,-1
1558434042605805,-2,-6,-6,-8,-5,-4,-1,-2
1558434042605805,-1,-5,-5,7,4,0,5,2
1558434042605805,-3,-5,3,1,-2,-5,-3,-1
1558434042619763,-3,-3,1,-2,1,1,-1,-1
1558434042619763,0,4,3,-1,5,4,1,1
1558434042627747,-2,-3,-8,-2,-2,-1,-5,-4
1558434042627747,2,5,-1,-5,-5,-1,0,-1
1558434042641704,-2,-4,6,10,10,9,6,3
1558434042641704,0,-1,-6,0,-5,-7,-3,-3
1558434042650680,5,5,10,0,-1,0,0,1
1558434042650680,-11,-11,-16,-9,-2,-3,-4,-3
1558434042665639,1,-1,-5,1,-3,-4,-3,-1
1558434042665639,2,3,10,2,10,11,5,2
1558434042665639,-5,-3,-8,-4,-13,-3,-6,-4
1558434042665639,2,-1,10,7,2,1,-2,0
1558434042679605,1,1,2,1,-2,-11,-5,-2
1558434042679605,-4,2,-8,-11,-4,-4,-1,0
1558434042687585,0,-5,1,-5,1,-2,-3,-2
1558434042687585,0,-2,-6,-2,-5,-2,-1,-3
1558434042702575,-1,5,8,3,1,6,2,1
1558434042702575,-1,-4,-5,3,-2,-2,-1,0
1558434042710627,2,7,8,4,6,4,9,5
1558434042710627,0,-1,3,-4,-4,-6,-4,-3
1558434042725586,-2,-1,2,3,3,3,1,0
1558434042725586,1,2,1,2,13,9,4,2
1558434042726481,-3,-4,-7,-9,-7,-9,-3,0
1558434042726481,3,6,3,1,-4,-3,-1,0
1558434042739547,-2,0,-2,-4,-7,-7,-5,-4
1558434042739547,-5,-16,-2,1,1,-1,-2,-1
1558434042748421,-2,2,0,2,2,-1,-1,-1
1558434042748421,2,0,-2,5,2,-4,-1,1
1558434042762388,3,3,1,-6,-5,-4,0,-2
1558434042762388,-14,-8,-9,-5,-10,-8,-5,-3
1558434042770404,0,-2,-2,0,3,5,-3,-3
1558434042770404,-4,-6,-7,-7,-10,-5,-7,-3
1558434042785324,-2,-3,-1,-1,3,7,4,-1
1558434042785324,5,4,0,4,12,3,10,5
1558434042786316,-1,0,5,3,-4,-2,-4,-4
1558434042786316,1,2,8,2,0,3,3,1
1558434042801277,-1,1,-1,-4,-8,-9,-7,-4
1558434042801277,2,-2,-5,-1,-8,-7,-6,-2
1558434042807263,-2,3,-9,-2,4,5,2,1
1558434042807263,-1,-2,-8,-4,1,0,3,0
1558434042822219,-6,-10,-4,0,4,6,2,0
1558434042822219,1,5,4,-9,-15,-10,-8,-3
1558434042830198,-2,-9,-4,-1,3,0,-2,0
1558434042830198,-2,-2,4,4,6,3,1,-1
1558434042845170,-1,-2,-7,-2,0,-5,-4,1
1558434042845170,-3,0,0,2,2,2,2,0
1558434042846156,4,3,0,-5,-5,-7,-3,-2
1558434042846156,-5,-2,-3,-2,6,7,3,-2
1558434042859122,-3,-6,-4,-7,-8,-6,-2,-3
1558434042859122,3,1,0,1,-6,-7,-5,-2
1558434042868097,0,-1,2,3,0,3,1,0
1558434042868097,3,3,5,-3,-2,-4,-2,2
1558434042882059,-2,0,-9,1,6,3,0,0
1558434042882059,-2,1,0,-5,-4,-2,-3,-4
1558434042890051,-2,2,5,4,0,0,1,-1
1558434042890051,2,-1,-3,2,-5,-3,0,1
1558434042906007,-2,-1,6,-2,-4,-9,-5,-3
1558434042906007,1,1,1,5,1,2,-2,0
1558434042906007,-3,-5,-1,-2,5,5,5,0
1558434042906007,-3,-7,-12,-5,-6,-2,-5,-4
1558434042919960,0,4,2,0,-1,-1,-2,1
1558434042919960,-2,-8,-15,-4,4,-3,0,-1
1558434042928043,-3,3,3,-3,-8,-5,-4,-1
1558434042928043,-1,-2,-5,-2,2,0,-1,-1
1558434042941905,2,4,3,3,1,1,-1,-3
1558434042941905,3,1,7,2,0,2,-1,-1
1558434042950877,-4,-6,-5,-1,-1,0,-1,-1
1558434042950877,0,1,-2,0,1,-5,2,1
1558434042965840,2,5,3,1,-5,-3,-3,-2
1558434042965840,-5,1,-11,-5,-3,1,-1,-3
1558434042965840,1,-2,-3,-3,4,2,1,2
1558434042965840,0,2,22,-1,-4,-1,-4,-1
1558434042980024,-3,-4,-5,2,-4,-3,1,2
1558434042980024,3,3,8,4,1,-2,3,3
1558434042994966,-1,-5,-7,-2,-2,-4,-4,0
1558434042994966,-1,-2,-5,-3,4,7,1,0
1558434043001742,3,2,10,-3,-3,5,-1,-2
1558434043001742,-5,-4,2,0,-7,-8,-6,-5
1558434043010925,1,4,4,5,-3,-10,-2,0
1558434043010925,-2,-5,-6,2,14,10,8,2
1558434043024724,-4,-1,-9,-9,-8,-1,-2,-2
1558434043024724,-2,-5,-8,-4,-3,2,0,-1
1558434043033662,2,7,9,-2,2,-1,-1,0
1558434043033662,-5,-6,-3,3,-7,-9,-7,-4
1558434043039648,-2,-1,-2,-4,-1,-6,5,2
1558434043039648,-2,-4,-1,0,4,8,2,-1
1558434043048615,1,7,3,-3,-8,-10,-7,-4
1558434043048615,0,-4,-3,-1,-3,1,1,-1
1558434043062585,-1,-5,0,2,4,-8,-2,-1
1558434043062585,0,1,3,0,-1,-1,-2,-1
1558434043071554,-2,-1,-8,-1,-1,0,0,0
1558434043071554,-1,1,1,0,-6,0,-2,-3
1558434043093494,-1,1,2,2,3,5,3,-1
1558434043093494,-3,0,-3,-4,1,6,5,0
1558434043094491,-1,-4,-4,1,3,-1,0,-3
1558434043094491,-2,0,-1,-4,-4,-6,-4,-1
1558434043099478,1,-1,2,2,2,2,1,2
1558434043099478,1,5,9,4,3,1,-1,-1
1558434043108453,-3,-6,-19,-4,0,3,3,-1
1558434043108453,-4,0,5,-3,-5,-5,-5,-3
1558434043122418,-1,0,9,0,-4,-5,-5,-4
1558434043122418,-1,1,-9,-6,-3,-7,-1,0
1558434043131393,0,-3,7,6,8,14,7,1
1558434043131393,-2,-5,-3,-4,-4,-6,-4,-3
1558434043145415,-3,-2,-7,-3,0,3,-2,0
1558434043145415,-2,-7,1,-2,-6,-6,-5,0
1558434043153336,3,0,-3,-3,-4,-5,-3,-1
1558434043153336,-7,-8,-8,-1,3,-1,0,0
1558434043159457,0,0,3,0,4,2,2,0
1558434043159457,0,0,-5,1,-5,-3,-1,-2
1558434043168401,-2,-5,-3,-9,-10,-3,-4,-4
1558434043168401,4,4,1,4,8,11,5,3
1558434043182288,0,-2,0,-1,-6,-4,-5,-3
1558434043182288,-3,-2,6,3,6,5,2,-1
1558434043191234,-4,-6,-3,-4,-3,-9,-4,0
1558434043191234,1,4,4,0,-10,-3,1,0
1558434043205369,-3,-5,-10,-4,2,0,-1,-1
1558434043205369,-1,-2,-8,-2,-1,2,-3,-3
1558434043213399,-1,3,3,1,0,2,1,-1
1558434043213399,0,-4,-8,-6,-2,-11,-4,-2
1558434043220158,0,1,3,5,4,5,1,-1
1558434043220158,-2,-5,-3,-7,-8,-8,-2,-2
1558434043236127,-2,1,-1,9,8,6,3,-1
1558434043236127,-1,4,3,-1,-3,-4,-4,-3
1558434043242140,-3,-1,-4,-6,-6,-2,-4,-3
1558434043242140,2,-3,-6,1,1,-8,-3,-1
1558434043251075,-1,1,-1,-3,-8,-14,-4,0
1558434043251075,4,11,7,10,12,11,6,5
1558434043265037,-1,-9,1,-1,2,9,5,-1
1558434043265037,-5,-5,-9,-5,-9,-9,-7,-5
1558434043280996,-2,-3,1,1,3,-3,0,0
1558434043280996,0,-2,-9,-3,-6,-2,-2,-1
1558434043286978,0,3,2,5,11,2,0,1
1558434043286978,-2,-4,-6,-9,-7,4,-1,-2
1558434043295955,-1,3,12,-6,-11,-7,-5,-5
1558434043295955,-3,-5,-4,0,4,2,1,-1
1558434043301939,1,4,0,1,-1,-5,0,-2
1558434043301939,2,1,-1,3,0,-5,-3,-1
1558434043310914,-7,-16,-9,-4,0,6,0,-2
1558434043310914,0,5,4,-4,-6,-3,-2,1
1558434043324907,-4,-3,-3,0,0,0,-1,-1
1558434043324907,1,-5,-10,-4,3,-3,0,-1
1558434043333854,2,2,4,-2,-1,0,-1,-1
1558434043333854,0,-4,-1,3,4,-3,1,-1
1558434043348811,-2,3,-1,-4,-10,-4,-1,-1
1558434043348811,-2,1,6,6,9,8,2,1
1558434043349809,-1,-6,-9,-15,-9,-8,-4,0
1558434043349809,1,2,11,-1,-6,-4,-6,-2
1558434043361814,-1,-5,-16,-3,2,-5,-1,-1
1558434043361814,1,8,6,4,7,13,8,2
1558434043370757,-1,-1,-4,5,10,8,1,0
1558434043370757,-3,-1,-3,3,0,-4,-1,-2
1558434043384715,-1,-3,-5,-6,-7,-6,-3,0
1558434043384715,-3,-1,0,-2,2,-2,-4,-2
1558434043393693,-1,1,2,3,-3,1,-2,-2
1558434043393693,-2,-4,-12,-10,-7,0,-3,-3
1558434043408709,2,2,6,3,0,1,-5,-1
1558434043408709,0,2,3,1,1,-2,3,0
1558434043409649,1,4,1,2,5,6,5,3
1558434043409649,-5,-2,-2,-3,-8,-6,-6,-5
1558434043421617,0,-1,-3,-3,2,0,3,-2
1558434043421617,1,5,9,1,0,-1,-2,0
1558434043430593,-2,-1,-5,-1,-4,-4,-2,0
1558434043430593,2,-6,-13,1,0,-2,-1,0
1558434043444589,-4,-2,3,0,-6,-5,-8,-4
1558434043444589,-1,1,4,-10,-11,-4,-3,-1
1558434043453530,2,0,-2,8,11,0,4,4
1558434043453530,2,3,7,-6,2,3,5,2
1558434043468549,-1,0,7,2,3,-6,-4,-2
1558434043468549,0,0,-6,-2,-7,-7,-6,-3
1558434043469490,-2,-2,-1,-1,-6,-6,-4,-3
1558434043469490,-2,-5,0,0,1,-1,-2,0
1558434043482466,-1,3,1,3,8,2,3,4
1558434043482466,-5,-5,-7,-3,1,6,1,-4
1558434043491430,1,0,4,-5,-7,-9,-3,-1
1558434043491430,0,1,-8,-1,-4,-5,-2,-1
1558434043504429,-2,-4,-7,0,-6,-2,1,2
1558434043504429,1,-2,-2,-1,0,-5,-4,-2
1558434043513371,1,0,8,5,11,12,3,3
1558434043513371,0,-1,-4,-4,-4,5,1,-3
1558434043528333,-2,-3,-7,-3,-2,-1,-1,-1
1558434043528333,0,-2,0,1,0,-6,0,1
1558434043530327,-3,-2,-3,-2,-2,1,-2,-5
1558434043530327,-1,-3,4,1,5,3,-1,0
1558434043542294,-2,-1,-3,-4,-7,0,-3,-2
1558434043542294,-1,0,-1,0,2,-1,2,0
1558434043551271,-2,1,-12,-6,-7,-4,-7,-4
1558434043551271,-1,-2,-5,-3,4,-2,-1,1
1558434043573212,-3,-8,-2,3,3,6,3,0
1558434043573212,0,1,3,1,-2,-2,-1,0
1558434043575212,-4,-8,-4,-3,-5,-4,-2,-3
1558434043575212,0,3,-5,-4,4,2,4,0
1558434043588171,-1,0,1,-1,1,0,-2,-2
1558434043588171,0,0,3,-3,-1,3,-4,-2
1558434043590167,-5,-4,-2,-1,-11,-12,-4,-1
1558434043590167,1,-2,-2,11,7,0,4,2
1558434043602133,-1,-7,3,-11,0,3,-1,0
1558434043602133,-2,-5,-24,0,-10,-3,-4,-2
1558434043618091,2,3,1,-6,-4,-3,-4,-2
1558434043618091,-2,-5,5,0,-1,0,-1,-1
1558434043624074,1,6,6,5,0,1,4,0
1558434043624074,-1,-1,2,3,-1,-9,-2,0
1558434043633051,-2,0,-5,-2,4,4,1,1
1558434043633051,-2,-2,2,3,0,3,-1,-3
1558434043648010,2,1,-2,0,0,0,1,0
1558434043648010,-1,1,6,0,-9,-18,-5,-1
1558434043650005,-2,-6,-9,-7,-8,-2,-1,-2
1558434043650005,2,3,6,4,8,6,1,1
1558434043662007,-4,0,-5,-10,-18,-4,-6,-5
1558434043662007,-1,-3,5,3,15,15,7,2
1558434043670948,3,2,-5,8,4,-5,1,1
1558434043670948,-2,0,-6,-3,0,0,-4,-3
1558434043684915,-4,-11,-4,-5,-12,-11,-6,-3
1558434043684915,1,0,-1,1,0,-2,2,0
1558434043693888,-2,-1,1,-2,5,10,3,-1
1558434043693888,0,1,4,-3,-10,-3,-4,-4
1558434043707849,-1,-2,-11,2,4,-3,-3,-3
1558434043707849,-1,0,6,-6,-10,-4,-4,-2
1558434043714831,-1,0,0,-1,7,10,2,0
1558434043714831,-2,-2,-4,-2,-4,-2,2,0
1558434043721812,0,2,1,-1,1,-3,3,1
1558434043721812,-1,1,11,1,1,4,2,-1
1558434043730788,-1,-3,-11,-1,-3,-2,-2,-3
1558434043730788,-1,0,3,-2,-1,-4,-1,0
1558434043744752,3,4,-2,0,2,3,-2,-2
1558434043744752,-1,-5,-5,1,1,1,0,-2
1558434043753727,-1,-4,-1,-7,-8,-4,-5,-5
1558434043753727,-2,-1,6,1,-2,-2,-3,-3
1558434043767690,3,5,8,6,10,3,3,2
1558434043767690,-2,-3,-5,-3,1,-1,-1,-1
1558434043774671,0,-1,1,0,-1,-3,-5,-1
1558434043774671,1,-3,-7,-1,-4,-2,1,1
1558434043781654,-3,0,2,-3,0,-4,-2,-1
1558434043781654,-2,-1,2,0,0,1,-2,0
1558434043790630,-1,4,2,-2,-7,-3,-1,1
1558434043790630,1,2,7,4,4,3,-1,-1
1558434043804623,-6,-18,-20,-6,-8,-10,-5,-3
1558434043804623,-2,-2,-1,1,3,4,0,-1
1558434043813611,-1,2,6,3,6,1,5,1
1558434043813611,0,3,-8,-8,-10,-7,-5,-2
1558434043827568,1,3,7,2,6,5,2,0
1558434043827568,-2,-2,-7,-4,-5,-8,-4,-2
1558434043834513,-1,-3,0,2,-2,-1,0,-2
1558434043834513,-2,0,2,6,8,5,-1,0
1558434043842491,-1,-3,-5,-6,-8,-2,0,1
1558434043842491,-2,-5,-7,-7,-2,7,0,-2
1558434043851467,1,5,11,2,0,-2,-1,-1
1558434043851467,-2,-3,0,2,2,-6,-3,-3
1558434043864469,-2,-3,-6,2,-4,1,-3,-3
1558434043864469,3,4,7,0,5,5,4,1
1558434043873409,-1,-2,0,-2,-2,-6,-5,-1
1558434043873409,-1,-2,-5,-3,-5,-9,0,0
1558434043887370,0,4,4,-1,-2,-6,-3,-3
1558434043887370,-3,-4,2,3,9,14,9,3
1558434043896346,-4,-4,-7,0,-1,0,-2,-1
1558434043896346,-3,-2,-4,-5,-4,3,-2,-5
1558434043902329,-1,0,2,4,-1,-4,-6,-3
1558434043902329,1,4,-1,-4,-6,-10,-3,0
1558434043911307,-3,-10,-5,-3,1,0,0,-1
1558434043911307,-1,0,2,0,5,8,4,3
1558434043924272,2,3,2,5,6,6,5,2
1558434043924272,-6,-14,-9,-9,-17,-17,-12,-6
1558434043933248,2,4,0,0,4,5,0,-1
1558434043933248,1,-2,-9,0,3,-3,-1,1
1558434043947209,1,-1,2,-5,-4,0,-1,-2
1558434043947209,-2,3,-2,0,-5,0,-1,-5
1558434043956186,-2,0,2,-3,-3,-7,-3,-2
1558434043956186,1,-2,-1,-3,-3,-8,1,1
1558434043962197,1,0,1,2,5,8,5,3
1558434043962197,-1,-3,-14,-6,-9,-6,-10,-5
1558434043971145,-3,-6,-5,-6,-9,-2,-6,-6
1558434043971145,2,3,6,4,3,3,5,1
1558434043984113,0,4,-3,2,11,5,8,5
1558434043984113,-3,1,12,2,-1,1,0,-1
1558434043993088,-2,-3,-11,-1,-2,-2,-3,-2
1558434043993088,-1,-4,-6,-3,-6,-6,-3,0
1558434044007050,-1,-1,7,-11,-6,-4,-2,-4
1558434044007050,3,2,12,10,6,2,1,0
1558434044016026,-2,-8,-18,-5,0,7,3,2
1558434044016026,-1,-4,4,1,2,2,0,2
1558434044022010,-3,-2,-2,3,-5,-7,-6,-3
1558434044022010,1,1,-1,1,5,0,3,3
1558434044030985,0,2,7,2,-3,-3,1,-1
1558434044030985,-2,-2,-5,-7,-6,-4,-7,-5
1558434044044987,-1,0,-2,4,5,2,-3,-1
1558434044044987,-1,-3,-8,-4,2,3,2,1
1558434044053925,1,1,1,-1,-2,-3,-1,0
1558434044053925,1,4,15,2,-3,-1,-2,-3
1558434044075894,-4,-2,-8,-5,0,4,0,-2
1558434044075894,-1,-4,-10,-5,-3,-3,-4,-3
1558434044077860,0,-1,1,-1,0,-2,-2,-2
1558434044077860,-1,-2,4,-1,-4,0,-3,-1
1558434044081884,1,1,-1,0,-3,-4,-1,-1
1558434044081884,1,1,2,5,5,-2,1,1
1558434044098806,-1,2,0,-1,-1,-10,-3,0
1558434044098806,-4,-5,-6,-3,2,0,-3,-5
1558434044104828,-2,1,6,-1,-2,-1,-3,-1
1558434044104828,1,1,2,1,-3,2,3,1
1558434044113765,-3,-4,-7,-3,0,-4,-4,1
1558434044113765,-1,-2,-10,-7,-4,-1,-4,-2
1558434044126787,0,1,4,-1,3,10,6,3
1558434044126787,0,2,0,4,6,-4,0,0
1558434044135705,-4,0,1,-2,-7,0,-4,-3
1558434044135705,0,1,1,4,9,1,8,3
1558434044141719,-1,-1,-2,-6,-9,-7,-4,-3
1558434044141719,-5,-9,-7,-6,-8,-3,-8,-7
1558434044150683,1,1,2,-1,0,-2,3,2
1558434044150683,-1,0,-2,0,5,4,2,2
1558434044173604,-1,-2,-4,-1,-5,-9,-6,-3
1558434044173604,-2,-2,-1,2,7,8,2,0
1558434044174602,0,-4,-8,1,-4,2,0,-3
1558434044174602,0,-1,-4,-11,-8,-7,-4,1
1558434044187934,-1,0,0,6,5,3,3,0
1558434044187934,-4,-1,-5,-4,-6,-7,-3,0
1558434044194994,-1,0,4,1,6,8,3,0
1558434044194994,-3,-2,-1,2,-3,-4,0,-1
1558434044211950,-1,-4,-3,-1,-5,-9,-8,-5
1558434044211950,0,-1,0,5,1,4,0,1
1558434044212502,0,0,6,-7,4,7,5,1
1558434044212502,-2,-2,-4,-3,-2,2,-2,-4
1558434044224776,-2,-5,-5,-5,-1,-3,-4,-2
1558434044224776,0,0,3,0,-3,-3,-1,-1
1558434044233445,0,0,4,6,2,-3,0,-1
1558434044233445,-4,-6,-9,-6,-4,-1,-3,-2
1558434044247728,0,-1,3,5,4,0,2,-1
1558434044247728,0,2,2,-5,-2,-5,-2,0
1558434044256384,1,2,3,2,-1,-3,-2,-1
1558434044256384,-2,-1,0,0,0,4,2,0
1558434044271648,-2,-1,0,-2,-7,-1,-3,-3
1558434044271648,-1,-2,-6,-3,0,0,-2,0
1558434044272341,0,1,4,-1,1,-5,0,0
1558434044272341,-2,2,1,3,-1,-2,-2,-1
1558434044285408,1,-4,-6,-2,4,3,0,1
1558434044285408,1,-1,1,-3,-2,0,0,-1
1558434044293583,0,0,3,2,-4,-6,-3,1
1558434044293583,-3,-6,-11,-7,-3,-2,-2,-2
1558434044307249,2,2,-4,-2,0,-4,2,4
1558434044307249,-3,-2,2,-1,-2,0,-2,-3
1558434044316223,0,-3,0,1,-1,1,-2,-2
1558434044316223,-1,0,4,3,0,-2,-1,-1
1558434044331183,-2,-6,-3,-4,-5,-3,-5,-4
1558434044331183,-1,-1,-3,-1,-5,-5,-4,-2
1558434044332180,2,3,-2,1,9,6,9,5
1558434044332180,2,-2,-1,1,-4,-2,-2,1
1558434044344148,-2,-1,3,2,-5,0,-2,-3
1558434044344148,-2,0,-4,-3,-3,-5,-5,0
1558434044353124,-4,-1,0,-1,-2,3,0,-3
1558434044353124,-2,-1,-1,-2,-2,-7,-4,-3
1558434044367087,0,0,2,4,5,4,0,1
1558434044367087,-1,-3,-4,-1,1,1,0,-3
1558434044376065,-1,-2,-1,6,5,1,0,0
1558434044376065,-2,-2,-3,-11,-6,-4,-3,-2
1558434044391024,0,3,3,1,5,6,4,1
1558434044391024,-3,-4,-4,-8,-14,-7,-3,-5
1558434044392020,0,1,-3,1,4,-1,-3,0
1558434044392020,3,7,9,10,13,11,6,2
1558434044404985,-3,-5,-11,-12,-14,-7,-5,-3
1558434044404985,-1,1,6,6,10,7,5,2
1558434044413962,-1,-3,-5,-7,-11,-10,-7,-3
1558434044413962,0,-1,1,-6,0,0,-2,0
1558434044426927,0,-4,-1,5,5,-3,0,-2
1558434044426927,3,7,12,13,5,7,3,0
1558434044435902,-3,-3,-7,-18,-14,-7,-5,-4
1558434044435902,1,-2,4,2,-6,-3,-3,-2
1558434044458855,1,-1,-6,3,15,18,11,3
1558434044458855,-2,-7,2,-5,-4,-9,-4,-2
1558434044459838,0,1,5,3,0,2,2,0
1558434044459838,-3,-4,-14,0,-6,-16,-5,-2
1558434044464825,0,6,5,3,7,4,3,0
1558434044464825,-2,-3,-21,0,0,-5,-1,2
1558434044473803,-1,0,-1,-2,3,5,0,-1
1558434044473803,-2,-3,1,-4,-4,5,0,-2
1558434044486768,0,-3,1,0,-2,-7,-5,-1
1558434044486768,2,0,0,1,4,-4,1,2
1558434044503721,-1,-2,-4,-2,-5,-2,-3,-3
1558434044503721,-2,-4,-7,-2,-4,2,1,-2
1558434044510702,1,0,3,-1,-4,-6,-6,-1
1558434044510702,1,4,7,3,9,11,5,1
1558434044512700,-1,-1,-5,0,-1,-4,-1,0
1558434044512700,-3,-10,0,-2,-1,3,-2,-3
1558434044533644,-1,-2,-4,-2,-7,-3,-4,-3
1558434044533644,-4,-1,-2,-8,-2,1,-4,-3
1558434044534639,0,-1,1,5,7,7,3,1
1558434044534639,1,4,1,0,0,-3,-1,3
1558434044546606,-2,0,10,2,-1,4,0,-1
1558434044546606,-1,-3,-3,-2,-6,-13,-5,-1
1558434044555584,0,2,5,2,6,8,3,1
1558434044555584,1,1,-4,-1,3,-8,0,0
1558434044570544,-4,-2,0,-5,-6,-6,-5,-3
1558434044570544,-1,-1,-3,-6,-3,3,-1,3
1558434044572538,-2,-4,1,0,-5,-6,-1,-5
1558434044572538,0,-3,-5,-2,-4,-2,-3,-4
1558434044584540,-1,-1,-4,2,5,5,4,0
1558434044584540,-4,-4,-5,-6,-7,-4,-5,-4
1558434044593482,-1,-3,-1,-2,-5,-1,-2,1
1558434044593482,0,1,5,3,4,-3,1,1
1558434044607447,1,2,-2,-4,-4,-1,0,-2
1558434044607447,-3,-3,-5,-7,-8,1,-2,-3
1558434044616435,3,3,5,5,8,-2,3,2
1558434044616435,-2,1,1,2,-1,2,-3,-1
1558434044631694,0,-2,-5,-6,-7,-5,-2,1
1558434044631694,0,2,-5,-2,-1,-4,-1,-1
1558434044632379,-3,-3,1,-1,-2,2,1,-2
1558434044632379,-2,-1,-3,-3,-5,-1,-6,-5
1558434044652694,-3,-3,-1,-5,-10,-6,-8,-4
1558434044652694,4,3,5,7,13,7,8,4
1558434044661301,-1,-1,-3,3,4,-1,1,2
1558434044661301,-5,-2,-3,-7,3,2,-1,0
1558434044667283,-1,0,-1,-4,-4,-2,-1,1
1558434044667283,-4,-4,-5,0,-8,-3,-5,-6
1558434044676261,-1,0,2,-1,-4,-8,-5,-4
1558434044676261,2,1,0,5,4,1,2,2
1558434044692619,-1,-4,-3,0,3,1,-1,-1
1558434044692619,0,-2,-6,-1,5,0,1,2
1558434044692619,-2,-1,-3,-2,-6,-7,-5,-1
1558434044692619,-1,-3,-2,-2,-8,-1,-2,-3
1558434044705183,1,-4,3,-1,2,2,2,3
1558434044705183,3,0,-1,4,5,2,3,2
1558434044713163,-4,-2,-6,-6,-10,-5,-7,-6
1558434044713163,0,-2,-4,-6,1,6,3,0
1558434044727125,1,5,2,13,10,6,9,6
1558434044727125,-2,0,-3,-10,-12,-8,-4,-3
1558434044736099,-2,-8,-1,-3,-6,2,-1,-1
1558434044736099,2,3,9,3,4,0,1,1
1558434044751061,-3,-4,-4,0,7,12,2,-1
1558434044751061,-1,-1,-2,0,-1,-2,-2,-1
1558434044752077,-2,-1,-3,-4,-8,-1,-1,-2
1558434044752077,0,3,5,3,1,-6,1,2
1558434044765339,-5,-5,-10,-8,-11,-11,-7,-5
1558434044765339,-2,-1,3,3,-6,4,-4,-5
1558434044773999,1,2,4,-8,2,-8,-1,3
1558434044773999,-1,-4,-15,5,13,13,4,-1
1558434044787248,0,-1,-5,-2,-3,-2,-1,-1
1558434044787248,-2,-2,-3,-7,-10,-18,-3,-1
1558434044795943,2,3,3,9,8,14,5,1
1558434044795943,-3,1,4,1,-6,-7,-3,-1
1558434044811182,0,1,-6,-4,4,-2,1,2
1558434044811182,-4,-6,0,2,-2,2,-5,-6
1558434044812985,-1,-1,0,-4,-3,2,-2,0
1558434044812985,1,-1,-1,3,2,1,-1,-2
1558434044824894,-2,-1,-2,-5,-10,-6,-3,-5
1558434044824894,0,2,3,-2,-6,-2,-1,2
1558434044833872,-2,-5,-3,3,3,-11,-3,-4
1558434044833872,-1,-1,-4,-5,-4,-2,-3,-2
1558434044846917,1,1,4,5,1,0,0,-1
1558434044846917,-2,1,-2,-6,-2,-2,-3,-3
1558434044855860,0,-2,-3,0,8,15,6,2
1558434044855860,0,0,2,3,-5,-8,-3,0
1558434044870924,-3,-6,-8,-6,-1,-5,-4,-2
1558434044870924,1,3,1,1,8,5,6,1
1558434044871894,-1,1,-4,-2,-10,-15,-7,-4
1558434044871894,-2,0,2,-3,1,7,1,-1
1558434044884894,1,3,4,1,3,7,4,0
1558434044884894,-1,-1,-1,-1,-1,-3,-3,-1
1558434044893834,-2,-3,-9,-2,0,2,0,2
1558434044893834,2,5,13,0,-4,-3,-4,-1
1558434044906799,-3,-1,-2,0,-7,-4,-2,1
1558434044906799,0,-2,-1,1,2,1,-1,-3
1558434044915774,2,2,-1,-4,1,-1,2,0
1558434044915774,-4,-5,-8,-6,-3,-3,-1,-1
1558434044930762,-2,0,2,0,-4,0,-1,-3
1558434044930762,-3,0,1,1,-2,0,2,-1
1558434044932730,-2,-7,-6,-3,-6,-5,-4,-2
1558434044932730,-1,0,0,1,6,8,7,1
1558434044944776,-1,-1,3,3,5,-1,-2,-2
1558434044944776,-1,-1,-4,-8,-2,4,-1,0
1558434044960656,0,3,8,3,-3,-2,-2,-2
1558434044960656,3,1,-8,0,6,3,6,4
1558434044966638,-3,-2,-9,-6,-6,-10,-7,-4
1558434044966638,0,-2,-1,1,0,-1,-2,-2
1558434044975613,0,1,6,0,0,5,-2,-2
1558434044975613,-2,-4,0,-3,-1,-1,3,0
1558434044990574,1,1,5,1,-1,-4,-2,0
1558434044990574,-2,-3,-2,1,1,2,1,0
1558434045005533,-1,-2,-2,8,3,-8,-4,2
1558434045005533,-2,-1,-14,-10,-5,-1,-2,-3
1558434045006530,0,-2,1,-5,-1,-4,-2,-2
1558434045006530,-5,-8,-12,-7,-6,1,-2,-7
1558434045013513,1,1,0,2,5,2,0,-3
1558434045013513,-2,-2,6,-2,-8,-6,-9,-2
1558434045027692,-2,2,0,2,-3,-1,0,0
1558434045027692,-2,-4,4,2,7,5,2,2
1558434045035527,-3,1,-3,-4,-1,3,2,-4
1558434045035527,-2,-4,-6,1,-8,-7,-7,-5
1558434045050475,2,4,4,-5,-2,-6,1,2
1558434045050475,-2,-4,-2,1,2,3,0,1
1558434045057466,0,-2,6,-5,-8,-5,-1,-3
1558434045057466,-1,-1,-2,-1,-6,-4,-6,-1
1558434045064453,-1,0,0,4,7,7,3,1
1558434045064453,1,0,2,2,3,-5,1,2
1558434045073352,-4,-6,-10,-5,-2,-1,-5,-3
1558434045073352,-2,-3,-2,-6,-10,-3,-3,-3
1558434045087482,-1,1,13,2,-3,-4,-3,-1
1558434045087482,3,5,-5,3,10,7,8,3
1558434045096405,-2,-3,-2,-4,1,3,0,-2
1558434045096405,0,-3,2,7,3,-2,0,-2
1558434045110365,-3,-6,-10,-14,-8,-4,-2,-2
1558434045110365,-2,-2,3,5,-2,-4,-5,0
1558434045117344,-1,3,1,0,-1,-3,-2,-1
1558434045117344,-3,0,-7,-2,2,1,3,2
1558434045124354,-2,-4,3,3,3,7,2,-4
1558434045124354,-1,1,2,-1,-3,-5,-3,-1
1558434045133308,-2,-6,-8,-3,-3,-1,-1,-1
1558434045133308,2,1,2,4,6,2,3,3
1558434045147294,-2,1,2,4,-1,0,1,-2
1558434045147294,-1,-2,-6,-3,-4,-3,-3,-2
1558434045163222,-2,-2,-4,-4,-1,-1,-4,-3
1558434045163222,1,3,1,-2,-1,-3,0,0
1558434045170232,-2,1,-1,2,2,3,0,2
1558434045170232,-2,-7,0,-4,-5,-4,1,-3
1558434045177218,3,6,2,4,3,0,1,3
1558434045177218,-3,-3,3,-1,2,0,-3,-3
1558434045193172,-1,-4,-9,-2,-4,-6,-4,-7
1558434045193172,-3,-3,-1,-6,-6,0,-3,-4
1558434045195137,1,2,4,3,4,2,4,1
1558434045195137,2,1,2,3,-2,-4,0,2
1558434045207134,1,1,-7,0,-1,-2,-2,2
1558434045207134,2,8,-1,-2,-2,5,-4,-1
1558434045216089,-4,-7,1,-5,-6,-1,-3,-4
1558434045216089,-3,-12,-12,-10,-5,-1,-4,-4
1558434045230077,3,3,18,7,7,-1,3,4
1558434045230077,2,6,6,3,0,-6,-1,0
1558434045237056,-3,-11,-4,0,0,2,-1,-1
1558434045237056,-1,0,-1,-8,-8,-5,-5,-3
1558434045253013,2,0,-4,1,5,2,1,1
1558434045253013,0,-4,-1,0,0,-6,-4,0
1558434045254978,1,5,-1,2,-3,-2,-1,0
1558434045254978,0,0,10,0,-1,0,-2,0
1558434045266945,-2,-5,-6,-4,-1,4,0,-2
1558434045266945,0,4,8,5,0,-5,-1,1
1558434045275927,-5,-4,-11,-5,-7,-3,-3,-2
1558434045275927,-3,-3,-5,-4,-3,-3,-3,-3
1558434045289914,-1,1,0,-2,-1,-1,0,-2
1558434045289914,1,1,4,1,3,-1,-1,0
1558434045296909,0,1,0,-2,-3,-4,1,1
1558434045296909,-2,-3,1,-1,-1,2,1,-1
1558434045313821,-1,0,-1,2,3,1,-1,2
1558434045313821,1,-2,-1,-1,1,-3,1,0
1558434045314818,-1,-2,-5,-6,-7,-7,-5,-3
1558434045314818,0,5,0,-2,5,6,2,1
1558434045335792,-3,-2,-4,-1,-1,-1,-1,-1
1558434045335792,-1,2,-3,0,-1,7,1,-2
1558434045337771,1,-5,2,1,4,4,2,2
1558434045337771,-3,-2,-1,3,-7,-7,-5,-2
1558434045349723,-1,-6,2,6,0,-3,0,1
1558434045349723,-1,0,-1,-1,4,3,1,1
1558434045356736,-1,4,1,-9,-2,-3,-3,-3
1558434045356736,-2,-3,-8,-6,-5,0,-3,-5
1558434045373660,1,1,0,0,3,10,5,-1
1558434045373660,-1,-5,-8,2,1,-3,-1,0
1558434045374658,-2,-3,1,-4,-2,-5,-1,0
1558434045374658,0,2,-2,-1,0,-3,1,-1
1558434045386719,-1,-1,-2,2,-2,-2,-5,-4
1558434045386719,-1,-2,0,-5,-4,6,2,-1
1558434045395763,-1,0,-7,1,2,-4,1,1
1558434045395763,-1,-5,0,0,-2,-6,-3,1
1558434045410560,-1,0,-7,-6,-5,-3,-2,-3
1558434045410560,-1,-1,8,1,-2,4,-1,-1
1558434045416544,-2,-3,-1,0,-2,-3,-4,-3
1558434045416544,1,1,2,3,5,-2,4,1
1558434045433499,0,-4,-12,-6,-5,-1,-1,-1
1558434045433499,-2,0,5,0,1,-4,-1,-1
1558434045434496,1,1,-1,1,4,3,1,-3
1558434045434496,-1,-3,4,3,-4,4,-5,-2
1558434045447463,-2,-4,-5,-10,-11,-14,-10,-3
1558434045447463,1,0,-1,-2,5,4,2,0
1558434045456438,-5,-6,1,1,0,6,3,0
1558434045456438,0,1,2,4,4,-5,0,2
1558434045470433,-3,-4,-2,-2,-2,-2,-2,-2
1558434045470433,-5,-5,-9,-3,-8,-5,-8,-6
1558434045477420,0,7,2,1,-3,3,-4,-3
1558434045477420,-4,0,-6,-2,-3,0,1,-1
1558434045493377,1,3,7,5,11,5,4,6
1558434045493377,2,6,1,-1,-3,-3,2,1
1558434045495333,-1,-6,-3,-4,2,8,3,2
1558434045495333,0,-3,-15,-3,-7,-4,-2,-2
1558434045507305,-3,-5,-13,-3,-9,-8,-5,-7
1558434045507305,-3,-6,0,-4,-3,-3,-3,-2
1558434045516281,2,4,8,8,3,2,-3,-2
1558434045516281,-1,-4,-13,-15,-4,-3,-3,0
1558434045530245,-1,-4,-4,-9,-4,0,1,-3
1558434045530245,0,0,-1,1,-2,4,1,1
1558434045537255,-5,-1,-5,-2,-4,-4,-3,-3
1558434045537255,1,1,5,4,10,7,6,4
1558434045553209,0,0,2,0,-4,-5,-2,-3
1558434045553209,-2,-6,-4,-2,-3,-7,-2,-1
1558434045555206,2,8,1,3,-4,-8,-7,-4
1558434045555206,0,5,5,-2,0,6,1,-3
1558434045567142,-5,-12,-11,-1,0,-1,-1,-2
1558434045567142,-1,0,-3,-2,-1,-7,-1,1
1558434045576118,-1,-1,-3,0,5,4,2,3
1558434045576118,-2,-1,-4,3,6,2,1,-2
1558434045590206,1,4,5,-11,-13,-3,-1,-1
1558434045590206,0,2,-1,-1,0,-1,-2,-3
1558434045597187,0,-2,-3,1,-1,-6,-1,0
1558434045597187,0,3,15,5,3,3,-2,2
1558434045613151,-2,-3,-1,0,-3,-4,-5,-2
1558434045613151,-2,-5,-9,-1,-1,9,3,-1
1558434045615013,4,1,0,0,5,-3,4,0
1558434045615013,0,1,-6,-2,-2,-6,-2,-1
1558434045627113,-1,0,8,8,5,3,-2,-2
1558434045627113,-1,-2,-6,-1,-9,-10,-5,-1
1558434045635958,-4,-5,-7,-8,-6,5,0,-1
1558434045635958,-2,-3,5,0,-5,-2,1,-1
1558434045649921,-4,-7,-6,-2,5,1,4,3
1558434045649921,0,2,5,6,7,0,-1,-1
1558434045656903,0,-1,-2,-4,-4,-4,-1,-1
1558434045656903,0,-1,-5,-2,0,8,-2,0
1558434045673856,2,3,4,-1,-6,-6,-4,2
1558434045673856,-2,0,5,4,5,3,2,-1
1558434045674855,-3,0,-1,-4,-5,-7,-4,-3
1558434045674855,-2,0,1,-1,-5,-1,-1,-6
1558434045686854,0,4,2,6,4,0,-4,-2
1558434045686854,-1,-7,-7,-16,-8,-1,-1,-2
1558434045695800,-1,2,4,1,-4,-4,-4,-1
1558434045695800,-3,-2,-4,1,-1,1,1,0
1558434045709798,1,5,1,1,3,-3,0,3
1558434045709798,-2,-5,1,1,-1,0,-3,-3
1558434045716773,0,-3,-5,-5,-1,2,0,1
1558434045716773,-1,-7,-1,-1,-9,-16,-9,-3
1558434045740709,3,3,8,6,11,5,6,2
1558434045740709,0,2,-1,1,2,-2,-2,-3
1558434045742673,-3,-4,-11,-11,-3,2,1,-2
1558434045742673,1,7,6,3,3,-5,1,1
1558434045746694,-2,3,-2,-5,-1,0,0,-4
1558434045746694,-1,2,-3,0,-2,-6,-4,0
1558434045755637,-3,-6,-5,0,0,0,-2,-4
1558434045755637,1,0,2,1,-3,1,-3,-4
1558434045770597,-1,0,-1,2,4,2,3,0
1558434045770597,-1,-2,1,-4,0,-3,0,1
1558434045776628,0,-2,1,6,-2,1,-2,0
1558434045776628,-2,-4,-1,-8,-2,-2,-1,-1
1558434045793536,-2,-6,-3,0,3,2,2,-3
1558434045793536,-2,-1,-2,-5,-5,1,-1,-2
1558434045794532,0,0,-2,0,1,2,-2,-3
1558434045794532,0,0,2,2,0,4,1,1
1558434045807597,0,0,2,-1,-6,-1,-4,0
1558434045807597,-4,-7,-3,2,-3,-6,-7,-5
1558434045816474,2,0,1,2,4,0,6,4
1558434045816474,-4,-4,-4,-4,-4,-1,-4,-3
1558434045830639,-1,3,-8,-8,-5,-5,-4,-2
1558434045830639,0,-1,1,3,6,10,9,3
1558434045837615,0,0,12,1,-1,-4,-3,-1
1558434045837615,0,-2,-7,-1,-4,-4,-2,-2
1558434045853571,-6,-4,-4,-2,-4,-4,-3,0
1558434045853571,2,5,7,2,4,5,0,2
1558434045854373,-2,-5,-18,-7,-8,-9,-2,-2
1558434045854373,1,1,3,2,6,6,5,3
1558434045867497,-2,-1,-1,-1,-3,-1,-2,-3
1558434045867497,-1,-3,-7,-2,-2,4,1,0
1558434045876410,0,0,6,0,1,-1,1,1
1558434045876410,-1,-4,2,8,1,3,-1,-2
1558434045890401,-1,-6,-8,-10,-10,-9,-6,-1
1558434045890401,1,-3,-3,-1,1,-7,-1,-1
1558434045897390,-1,0,-1,-2,-4,0,-2,-3
1558434045897390,-2,-1,-1,-5,-4,-1,-2,-2
1558434045912316,1,2,8,10,3,3,1,2
1558434045912316,-3,-1,-1,-2,-3,-2,-5,0
1558434045919331,-3,-6,-2,-3,-4,-4,-3,0
1558434045919331,-1,-2,-14,3,5,-3,2,2
1558434045927314,-1,1,4,2,0,2,2,0
1558434045927314,-1,2,-3,-9,-11,-7,-2,-2
1558434045936249,1,2,-2,1,0,-4,-1,-1
1558434045936249,1,2,5,-1,6,-4,-1,-1
1558434045950211,-2,-2,-3,-4,-1,2,0,-1
1558434045950211,-1,1,0,1,-3,2,-2,-2
1558434045957192,-5,-3,5,-2,-2,1,-2,-1
1558434045957192,-3,-2,-11,-9,-9,-9,-4,-4
1558434045972151,1,-3,-8,2,1,-2,-3,-1
1558434045972151,-2,-1,2,2,1,3,4,1
1558434045979134,1,1,1,1,-1,1,0,0
1558434045979134,0,1,3,-1,-6,0,-1,-2
1558434045987112,-3,1,0,-10,-4,-3,-5,-3
1558434045987112,2,-1,-9,-3,2,-4,2,3
1558434045996088,0,9,8,3,1,4,2,-1
1558434045996088,-2,-7,-7,-4,-3,-4,-2,0
1558434046010247,-3,0,10,9,3,4,0,-1
1558434046010247,0,-3,0,-2,0,-7,-2,-1
1558434046017079,0,0,1,1,4,2,-1,0
1558434046017079,-2,2,4,-2,-1,0,-2,-3
1558434046033036,2,1,4,0,-1,-1,0,-2
1558434046033036,-7,-17,-16,-8,-9,-2,-4,-4
1558434046040018,3,1,6,8,6,0,3,3
1558434046040018,-1,-8,-15,-8,-1,6,2,1
1558434046046999,1,-3,2,2,-2,-2,-2,-1
1558434046046999,-1,6,3,-6,0,-2,-3,-1
1558434046055974,-3,-4,-4,0,-4,-6,-2,-3
1558434046055974,0,-1,5,2,-1,-1,-3,-2
1558434046070134,2,0,-6,-4,-2,-3,3,1
1558434046070134,-1,0,0,1,-5,-5,-7,-7
1558434046077122,-5,-7,-7,-5,-5,2,0,-3
1558434046077122,-1,-3,-4,2,5,3,3,2
1558434046092954,-2,-2,-4,-1,-5,-3,-4,-3
1558434046092954,-3,-7,2,-1,-1,-3,-4,-2
1558434046099857,-3,-1,-2,-4,0,1,0,-3
1558434046099857,-1,-2,-11,-1,-2,1,0,-1
1558434046115816,2,2,8,5,3,-2,-3,0
1558434046115816,-1,-1,-6,-9,-6,0,0,-2
1558434046116812,-1,1,-8,-2,1,4,-2,-3
1558434046116812,2,2,6,2,7,3,5,3
1558434046129861,-2,-3,-9,-3,-5,-9,-2,-2
1558434046129861,1,-1,1,3,4,2,3,1
1558434046138754,-1,-1,0,0,1,2,3,3
1558434046138754,-3,0,3,-1,-1,-4,-5,-1
1558434046152788,-3,-5,-3,-7,-4,2,-1,-1
1558434046152788,1,2,5,7,9,6,2,1
1558434046159770,0,-1,-3,-5,-6,-12,-2,-1
1558434046159770,-2,0,-2,2,5,5,3,1
1558434046175682,-3,1,-7,-8,-4,-4,-3,-3
1558434046175682,-3,4,0,5,-2,2,-2,1
1558434046177732,0,1,5,6,5,-5,0,2
1558434046177732,-1,-2,6,-3,-7,-3,-2,-1
1558434046189700,-1,-6,0,0,0,-5,-3,-4
1558434046189700,-2,-2,-5,-2,-7,-2,0,-1
1558434046198593,1,0,2,6,9,10,3,0
1558434046198593,0,-2,-4,-3,-1,0,-1,-4
1558434046212641,0,2,-3,-2,3,0,6,3
1558434046212641,2,3,7,2,2,1,0,-1
1558434046219617,-1,-3,-7,-5,-7,-10,-6,-4
1558434046219617,0,-2,-1,-1,-3,4,-2,-4
1558434046243508,-3,-1,-1,-3,-6,3,0,-3
1558434046243508,0,-2,-1,6,9,-2,5,1
1558434046244490,-4,-2,-3,-2,-3,-6,-4,-4
1558434046244490,-1,1,2,0,-2,-5,-1,0
1558434046249460,-1,1,-5,-1,2,3,-2,0
1558434046249460,-3,-2,-7,-3,-6,-1,-4,-2
1558434046258436,0,-1,-6,-3,-2,-1,-6,-3
1558434046258436,0,-4,4,1,6,1,0,3
1558434046272426,-3,-5,1,0,7,7,0,-3
1558434046272426,-3,-3,-6,-6,-9,-9,-2,-3
1558434046279417,1,1,3,4,3,0,2,1
1558434046279417,1,3,2,-2,-2,-3,0,-1
1558434046296331,-1,-2,-4,-2,1,-2,-2,1
1558434046296331,-2,2,6,4,5,3,0,-1
1558434046297329,-3,-1,-16,-9,-9,-2,-2,-4
1558434046297329,-2,-2,-3,-2,-3,-3,-3,0
1558434046309296,-2,-1,-4,4,4,1,1,1
1558434046309296,1,-1,0,-2,-3,-10,-4,0
1558434046318297,1,0,7,4,2,4,0,3
1558434046318297,-3,-1,0,-2,-1,2,-4,-2
1558434046332237,-1,-5,-5,-1,-4,3,-1,-3
1558434046332237,-1,0,0,1,-5,0,-1,-3
1558434046339275,-1,0,1,-2,-4,-1,-4,0
1558434046339275,-2,-2,0,2,-3,-3,-1,1
1558434046356244,0,1,3,0,2,0,0,-1
1558434046356244,0,0,0,-4,-3,2,0,1
1558434046357171,-3,-6,-13,-2,0,1,-1,-4
1558434046357171,-3,2,2,-1,-4,-7,-2,-5
1558434046369139,1,1,0,-3,-5,-7,-2,0
1558434046369139,-2,1,-1,-3,-3,-4,-6,-5
1558434046378115,-3,-8,-6,-2,6,7,8,2
1558434046378115,3,-1,1,1,-1,-6,1,2
1558434046393083,1,0,3,3,2,-2,-3,-3
1558434046393083,-1,0,-1,-1,6,8,1,1
1558434046399070,-4,3,1,-4,-9,-3,-3,-3
1558434046399070,-2,-2,-4,0,0,-1,3,-3
1558434046416013,0,-2,7,2,-1,0,4,1
1558434046416013,2,-4,-7,-4,-5,-3,-4,-3
1558434046417009,2,-1,4,2,-9,-1,-3,-4
1558434046417009,2,0,-2,3,4,-3,4,7
1558434046428977,-3,-2,-11,-5,-2,-5,-2,2
1558434046428977,-1,0,1,-2,5,2,2,4
1558434046437965,-1,1,2,1,1,0,-1,2
1558434046437965,-1,3,4,1,-4,-1,-7,-4
1558434046452914,-3,-8,-3,-4,-6,-4,-4,-2
1558434046452914,-2,1,-3,6,-3,-5,-1,-3
1558434046460005,-4,-4,0,-10,-11,-7,0,-1
1558434046460005,1,2,1,-5,-1,6,-2,-4
1558434046476851,1,2,-2,4,1,5,-4,-1
1558434046476851,5,4,11,6,9,-6,7,5
1558434046477847,-4,-10,-7,-3,3,-4,-2,-2
1558434046477847,-3,-9,-7,-8,-3,-3,-5,-4
1558434046489814,-2,-5,-7,-6,-2,4,-1,-3
1558434046489814,-1,0,1,4,-1,1,-3,-5
1558434046498791,0,5,6,2,-1,3,0,0
1558434046498791,-2,0,-3,-2,-3,-4,4,1
1558434046512761,-3,0,1,-2,-4,-3,-3,-1
1558434046512761,-1,-3,-2,-8,-8,-1,-5,-3
1558434046519736,4,2,2,1,8,2,1,3
1558434046519736,-1,1,-2,10,16,9,4,2
1558434046535694,1,5,13,3,7,-1,4,3
1558434046535694,-2,-1,-5,-1,-3,-1,-2,-3
1558434046537686,-3,-13,-25,-17,-13,-8,-5,-6
1558434046537686,1,-1,-1,0,-8,-6,-2,-4
1558434046549664,2,3,0,1,-1,-3,2,-2
1558434046549664,-1,-2,0,-1,2,3,-4,0
1558434046558643,2,4,15,6,1,2,-4,-2
1558434046558643,0,1,0,1,-2,0,-4,-1
1558434046572594,-3,-2,-4,-5,-5,1,-3,-3
1558434046572594,-4,-3,-8,-8,-14,-3,2,-2
1558434046579575,2,6,2,12,12,0,9,8
1558434046579575,-1,0,3,1,18,6,3,1
1558434046595545,0,0,-3,-2,3,1,2,0
1558434046595545,-1,-4,-4,-10,-7,-7,-6,-1
1558434046597528,-4,1,3,-4,-4,-2,-4,-4
1558434046597528,-4,-3,-4,-1,-6,-8,-4,1
1558434046609568,-1,-2,0,2,0,-9,-2,1
1558434046609568,-1,-2,-4,0,4,2,0,2
1558434046618470,1,1,2,0,-1,0,-1,-3
1558434046618470,-1,1,-2,-4,-8,2,-4,-4
1558434046632433,-3,-5,1,-4,-11,-5,-8,-6
1558434046632433,3,-1,-7,4,6,10,8,5
1558434046647393,2,0,8,8,12,-7,4,5
1558434046647393,0,3,3,-3,-3,2,1,-1
1558434046656396,-3,-1,-4,-4,-4,0,1,-3
1558434046656396,-2,-3,-1,-2,-6,-4,-5,-6
1558434046657366,-4,-10,-5,-5,-3,2,-5,-3
1558434046657366,-1,-3,-1,0,1,1,0,-1
1558434046669334,3,3,3,0,3,-4,1,1
1558434046669334,-5,0,12,3,5,1,0,-3
1558434046678309,-1,-2,-21,-8,-4,-3,-1,0
1558434046678309,-1,-5,-2,1,0,-3,-1,0
1558434046692275,2,3,-1,0,-2,2,2,-1
1558434046692275,-2,-6,2,-1,2,-2,0,0
1558434046699264,-2,0,5,2,-2,0,-4,-4
1558434046699264,-4,-9,-6,-3,-2,-2,-3,0
1558434046716208,0,1,-3,1,-2,-2,-3,1
1558434046716208,0,5,3,1,4,-1,1,1
1558434046717207,-1,0,-13,-4,-2,0,-2,-2
1558434046717207,1,6,3,1,1,-1,0,-2
1558434046729175,-2,-5,-3,3,1,1,2,0
1558434046729175,1,0,5,-2,-7,-5,-4,-2
1558434046738190,-1,-5,-7,-7,-10,-4,-4,-4
1558434046738190,1,5,-3,-2,0,-1,-2,-3
1558434046753115,-5,-17,-7,-5,-1,1,-3,-3
1558434046753115,-3,-4,3,0,2,4,1,-2
1558434046759096,-1,1,-5,0,3,-4,5,4
1558434046759096,-2,1,-1,-6,-1,1,1,0
1558434046776049,-1,7,7,4,3,-7,1,2
1558434046776049,-2,-6,-12,-7,-14,-3,-3,-2
1558434046777144,-4,-1,11,5,5,3,-1,-1
1558434046777144,-2,-3,4,-6,-5,-4,-4,-3
1558434046790012,0,1,3,-2,-9,-2,-2,1
1558434046790012,1,1,-8,3,6,2,2,0
1558434046798119,-1,5,6,-3,-6,0,-1,-3
1558434046798119,-3,-9,-18,-1,-1,-4,-4,-1
1558434046813124,1,1,1,8,8,4,1,-3
1558434046813124,0,-1,-7,-5,-3,-6,-1,-3
1558434046819933,1,6,21,9,8,8,3,1
1558434046819933,2,-2,-11,2,1,1,3,3
1558434046834893,-1,5,12,-1,-5,2,0,0
1558434046834893,-4,-5,0,-2,-5,0,-2,0
1558434046841874,1,0,7,1,-3,-4,-5,-3
1558434046841874,-1,1,0,-3,-8,0,-3,-1
1558434046849871,1,1,0,3,-2,0,-2,-2
1558434046849871,0,1,6,0,0,4,-1,-5
1558434046858827,1,-2,-10,3,6,-1,5,1
1558434046858827,0,0,4,4,6,-5,0,1
1558434046872790,-6,-1,-9,-11,-2,1,-3,0
1558434046872790,-1,0,-2,-2,-5,-8,-3,-1
1558434046879774,-4,-14,-23,-13,-14,-4,-4,-3
1558434046879774,1,2,21,3,-3,-1,1,0
1558434046894733,0,-3,-16,-2,-3,-4,0,-1
1558434046894733,-1,-4,-6,-1,-4,-3,-5,-1
1558434046901714,0,1,-2,4,6,6,2,2
1558434046901714,0,0,7,1,-5,3,3,-2
1558434046909804,1,5,1,-1,-6,-5,-1,1
1558434046909804,-2,-5,-8,-2,-2,-4,-3,0
1558434046918667,1,0,2,-6,-3,1,-1,0
1558434046918667,-4,-6,-17,1,-2,-1,-6,-2
1558434046932636,-2,3,13,-7,-1,-1,-3,-3
1558434046932636,1,3,-5,1,0,-7,-2,-1
1558434046939613,-1,0,-5,-1,-2,-2,0,-4
1558434046939613,-1,0,3,-6,3,1,2,-2
1558434046955569,0,-3,1,2,5,-3,1,-1
1558434046955569,-1,-1,2,2,2,3,2,-1
1558434046961552,-2,-1,10,0,-4,-1,-1,-1
1558434046961552,-2,0,-2,0,-4,-3,-3,-3
1558434046969735,-1,-4,-11,-1,1,1,0,-1
1558434046969735,-3,2,4,3,8,4,0,1
1558434046978507,-1,-4,-4,-8,0,-4,-5,0
1558434046978507,-2,-2,-2,-5,-3,0,-2,-1
1558434046992650,-3,-4,-4,-4,-1,-1,-1,-3
1558434046992650,0,-2,1,2,2,0,2,1
1558434046999456,-1,-1,4,3,-1,-7,-2,-2
1558434046999456,-2,0,-2,-2,0,-2,-1,1
1558434047015409,2,-2,4,1,3,2,-1,3
1558434047015409,-1,2,4,0,-1,-1,-1,-2
1558434047022389,-3,-1,-1,2,1,-2,-1,-1
1558434047022389,-2,-3,0,0,-2,-4,-3,-3
1558434047038524,1,-2,-4,0,4,-1,-2,-6
1558434047038524,-3,-1,-7,-8,-3,0,1,2
1558434047039345,-1,4,6,0,-4,-3,-3,-2
1558434047039345,-2,-1,0,-4,-7,-3,0,0
1558434047052407,0,-4,-6,2,5,3,4,3
1558434047052407,-1,3,10,0,2,4,2,0
1558434047059294,-1,0,0,4,2,3,2,-2
1558434047059294,1,-1,3,-5,-7,-6,-4,-1
1558434047083240,0,-4,-26,-3,-2,-3,-6,-3
1558434047083240,0,-3,-3,2,5,-2,-2,0
1558434047085221,0,-1,-1,-1,8,3,5,1
1558434047085221,-2,0,0,1,0,-1,0,-4
1558434047098188,-4,-2,4,3,-1,-2,-2,-2
1558434047098188,-2,-1,-5,-10,-8,-11,-3,-2
1558434047100194,-1,-3,-4,1,-4,0,-4,-2
1558434047100194,-2,-4,0,2,2,4,-2,1
1558434047113147,-3,3,3,-3,-7,-3,-1,-1
1558434047113147,-1,0,0,5,-1,-6,-2,-2
1558434047119132,-1,0,2,-3,-4,-5,-5,1
1558434047119132,0,1,-2,-5,1,3,2,0
1558434047135092,-1,-3,-1,3,1,0,-3,2
1558434047135092,0,0,-1,0,-7,2,-1,-2
1558434047142069,-1,-4,-5,-1,3,7,4,-1
1558434047142069,5,2,2,5,5,-9,2,4
1558434047158209,-2,0,-2,-6,1,2,-3,-2
1558434047158209,0,-2,-4,-1,0,-3,-4,-3
1558434047160022,0,1,-4,-1,-7,-1,-3,-1
1558434047160022,-1,-2,-6,-11,-12,-2,-3,-5
1558434047171990,3,0,3,-2,-5,-9,7,5
1558434047171990,-2,-2,-1,2,6,4,2,-5
1558434047180966,0,2,-1,-3,2,0,0,-2
1558434047180966,-2,3,1,8,6,3,0,5
1558434047194929,-4,-5,-2,-3,-6,0,-2,-5
1558434047194929,-2,-5,0,-3,-10,-4,-6,-2
1558434047201909,-1,0,-2,-3,-5,-7,-1,-2
1558434047201909,-1,-1,0,3,6,0,1,0
1558434047217868,-2,-1,-1,-5,-1,1,0,1
1558434047217868,1,5,3,4,5,1,0,2
1558434047219864,-2,-3,-3,-7,-4,6,0,-1
1558434047219864,-1,-3,-3,-1,0,-1,-2,-4
1558434047231831,0,-1,0,1,4,0,1,0
1558434047231831,0,-1,0,-1,-8,-7,-12,-7
1558434047240804,0,2,2,7,12,15,11,3
1558434047240804,1,0,-3,-3,-3,-14,3,1
1558434047254769,-3,-2,-5,-6,-7,-7,-3,-5
1558434047254769,3,-2,-2,-1,0,-8,-2,2
1558434047261750,-3,-4,-4,2,1,-4,-5,-2
1558434047261750,-2,1,6,8,0,4,-1,-4
1558434047278825,0,0,-3,-13,-4,5,-1,-1
1558434047278825,0,1,0,-1,-8,-7,0,3
1558434047279702,1,-1,-1,4,-7,-5,-3,0
1558434047279702,-1,1,1,-5,4,1,-4,-1
1558434047291671,-1,1,6,2,-4,3,-3,-2
1558434047291671,-3,-4,-19,0,11,13,6,-2
1558434047300645,-1,1,-1,-7,-2,-12,-3,0
1558434047300645,0,0,1,3,3,-2,0,0
1558434047315609,-1,0,3,8,3,-2,0,-2
1558434047315609,0,1,4,-7,-10,-1,-1,-3
1558434047321589,0,-2,-2,0,-5,-5,-4,-1
1558434047321589,2,0,-5,-14,1,6,3,1
1558434047338726,1,1,-1,1,4,-3,1,1
1558434047338726,0,2,10,10,4,3,2,0
1558434047339543,-2,-2,-4,-11,-15,-9,-10,-7
1558434047339543,-2,-3,-4,-1,-6,0,-7,-4
1558434047352507,2,4,5,11,9,6,4,2
1558434047352507,-3,-7,-20,-10,-7,-6,-3,0
1558434047360486,-1,1,13,-4,0,3,0,-1
1558434047360486,-1,-1,-1,4,-2,0,-3,-1
1558434047375447,-2,-4,-12,-4,3,9,4,-3
1558434047375447,-2,3,-1,-1,-6,-11,-4,-2
1558434047382428,-3,-8,2,4,5,3,2,0
1558434047382428,-5,-7,-7,-9,-1,12,8,2
1558434047398384,0,-1,-5,8,0,-12,-3,4
1558434047398384,-2,-5,-6,-15,-5,3,-1,-2
1558434047399391,0,-2,-10,-1,-4,-5,-1,-4
1558434047399391,-1,-2,1,4,6,6,-2,-4
1558434047412345,-2,2,11,3,-8,-5,-5,-4
1558434047412345,0,-4,-4,2,7,4,4,2
1558434047421328,-2,3,-10,-9,0,3,-2,-1
1558434047421328,-4,-2,-2,-3,-8,-9,-3,-4
1558434047435287,-1,-2,1,-6,-9,-9,-7,-3
1558434047435287,-1,0,6,6,5,5,1,0
1558434047442268,0,2,1,-1,0,-6,-4,-2
1558434047442268,0,2,12,5,4,3,0,0
1558434047458316,-2,-11,-17,-1,-5,-9,-2,-1
1558434047458316,0,-2,-2,-7,4,2,0,-1
1558434047460291,-2,0,-1,-3,-1,-1,-1,-3
1558434047460291,-2,-6,-8,-9,-10,-5,-5,-3
1558434047472188,4,5,20,4,4,-1,-3,2
1558434047472188,1,-1,1,3,4,2,4,3
1558434047481165,-2,-6,-1,0,5,2,3,2
1558434047481165,-1,2,-2,1,-2,-5,-2,-2
1558434047495222,-3,-1,7,4,-3,1,-2,-2
1558434047495222,-1,4,6,-5,-6,-2,-2,-1
1558434047502108,-1,0,-3,3,1,2,-1,0
1558434047502108,1,-2,-2,-1,1,-2,0,0
1558434047518064,-1,-1,-2,-3,6,11,4,1
1558434047518064,-3,-2,-1,1,-6,-4,-3,-2
1558434047520060,-1,-6,-7,0,-4,-4,-2,-1
1558434047520060,0,2,6,-6,-8,-4,0,-1
1558434047532028,-4,0,-15,-4,1,1,1,-1
1558434047532028,-4,-3,1,-1,2,3,-1,0
1558434047541004,-2,2,3,-6,-5,-5,-1,0
1558434047541004,1,3,-3,3,-2,-6,-2,-3
1558434047555172,-1,-6,0,-4,-4,-3,-2,-3
1558434047555172,-1,1,-1,2,-4,1,0,-1
1558434047561947,3,0,7,-1,-1,-4,-2,0
1558434047561947,1,0,0,2,3,1,-1,0
1558434047585882,0,2,-2,-1,-5,-6,-3,0
1558434047585882,0,-5,0,3,4,2,0,-1
1558434047586881,-3,-5,-16,-5,-2,-4,-4,0
1558434047586881,1,0,-1,-2,0,0,1,0
1558434047591868,-1,-4,-5,-1,1,-2,-1,0
1558434047591868,-2,-2,-1,5,4,5,1,-2
1558434047600842,2,1,2,-8,-6,-1,2,1
1558434047600842,-4,-7,-11,-9,-11,-7,-5,-3
1558434047614829,-1,2,-2,-1,0,0,0,0
1558434047614829,2,4,6,3,2,0,1,2
1558434047621786,-1,1,4,7,5,4,-4,-4
1558434047621786,-1,-2,-3,-1,-2,-3,-4,-3
1558434047638742,-1,-1,-3,-4,-6,-1,-3,-3
1558434047638742,-1,-4,2,-4,1,1,2,-1
1558434047639738,-2,-6,-2,6,-1,3,5,3
1558434047639738,0,-2,2,7,5,-4,-1,1
1558434047651707,-2,-2,-2,-11,-4,-4,-2,-2
1558434047651707,0,5,-7,-5,-3,0,1,-2
1558434047660685,-4,4,11,2,-6,-4,-3,-2
1558434047660685,1,2,-7,5,1,4,1,-1
1558434047674763,1,1,-7,-2,-1,-3,-1,1
1558434047674763,-1,0,11,-7,-7,-6,-3,0
1558434047682628,-5,-12,-46,-5,6,-1,0,-1
1558434047682628,-2,-2,3,-1,-2,-3,0,-2
1558434047700833,-1,-1,5,-3,-1,2,1,-1
1558434047700833,-1,-1,-10,0,1,4,0,-2
1558434047700833,2,9,28,4,-1,-2,1,2
1558434047700833,-1,-4,-9,0,-2,-4,-1,1
1558434047711735,0,-1,-2,-2,-6,1,1,0
1558434047711735,1,1,-1,-2,-5,-5,-5,-1
1558434047720522,-2,-1,-3,-1,-2,1,-4,-5
1558434047720522,-3,-9,1,0,2,5,1,-1
1558434047735673,1,1,10,3,5,2,2,2
1558434047735673,-2,0,-1,2,1,-3,-2,-2
1558434047742464,0,0,5,-2,0,1,-2,1
1558434047742464,0,3,3,-5,-5,-3,-2,-1
