timestamp,emg1,emg2,emg3,emg4,emg5,emg6,emg7,emg8
1558433949984314,-3,-5,0,0,0,4,-4,-5
1558433949984314,-2,1,6,8,4,8,-1,-5
1558433949985309,0,3,3,1,-1,-6,1,3
1558433949985309,3,8,11,3,-1,-3,2,1
1558433949986307,-2,-7,-9,-2,1,3,4,3
1558433949986307,-5,-5,-8,-8,-10,-8,-6,-3
1558433949987305,0,1,2,3,3,2,-4,-5
1558433949987305,-1,1,-3,-12,-7,0,0,-2
1558433949999272,1,1,7,7,0,-4,-3,-1
1558433949999272,0,1,8,5,6,1,4,1
1558433950007251,-5,-8,-15,-11,-6,-5,-2,-1
1558433950007251,-1,-3,-3,2,-2,-7,-1,0
1558433950013235,1,5,5,2,1,0,1,-1
1558433950013235,0,3,1,-2,2,0,-2,0
1558433950028196,-3,1,-4,-1,-1,2,0,-4
1558433950028196,-4,-8,-5,-3,-1,-4,-9,-1
1558433950036173,-3,-1,-2,-5,-9,-8,-6,-1
1558433950036173,2,4,9,7,2,3,3,1
1558433950043153,2,3,12,8,4,3,4,1
1558433950043153,-2,-5,-17,-8,-2,0,2,0
1558433950058114,0,0,2,1,0,-1,-1,-2
1558433950058114,-2,-1,-5,-2,-2,-2,-4,0
1558433950066092,-3,-2,-2,-3,-9,-5,-7,-4
1558433950066092,2,2,11,8,10,0,1,2
1558433950105986,-3,-2,-14,-2,-1,-2,-3,0
1558433950105986,-5,-3,-3,0,-3,-2,0,-4
1558433950106984,-2,-5,-3,-6,-2,-3,-4,-3
1558433950106984,-1,0,2,4,-5,-1,-4,-2
1558433950107981,-1,-2,0,-7,-5,4,0,-2
1558433950107981,1,4,3,0,0,-3,0,0
1558433950110974,-1,0,-3,2,0,-4,0,1
1558433950110974,-3,-6,-4,2,-1,0,-1,-1
1558433950117955,0,-2,-1,1,2,-4,5,0
1558433950117955,2,1,2,-5,-3,-3,-4,0
1558433950124937,-2,2,0,3,1,5,1,-2
1558433950124937,0,-1,-9,-2,3,3,0,-1
1558433950133912,0,1,4,-1,-3,-5,-3,0
1558433950133912,-1,0,1,3,2,3,-1,-1
1558433950147874,0,-1,4,5,2,-3,1,0
1558433950147874,-1,-3,-11,-8,-2,3,-2,-2
1558433950154856,-1,1,3,-3,-3,-3,-7,-2
1558433950154856,-1,-2,2,-1,-5,-2,-2,-1
1558433950162835,1,2,13,7,9,8,3,1
1558433950162835,-4,-5,-20,-11,-4,-1,-1,-2
1558433950177795,-2,0,4,3,0,0,4,2
1558433950177795,-1,-1,0,2,-1,-7,-4,-1
1558433950184776,-2,-3,-9,-7,-4,-4,-3,-1
1558433950184776,1,4,15,6,7,5,2,1
1558433950193752,-2,-4,-8,1,-5,-2,-2,-4
1558433950193752,0,-1,1,0,1,2,1,1
1558433950208712,0,0,-5,-1,-2,-6,3,3
1558433950208712,0,-3,-4,-1,-3,-5,-2,-2
1558433950214695,-1,-1,0,-8,-4,2,-9,-1
1558433950214695,5,8,15,7,7,6,16,8
1558433950222675,-4,-8,-22,-8,0,3,2,-1
1558433950222675,-3,-4,11,3,-1,-1,-1,1
1558433950237634,-2,-5,-14,-7,-10,-4,-6,-4
1558433950237634,-3,-2,-2,-2,-8,-4,-7,-3
1558433950245614,0,2,9,0,-10,-7,-7,-5
1558433950245614,-1,3,-2,1,7,3,2,1
1558433950253591,4,0,7,9,16,14,15,6
1558433950253591,-4,-4,-7,-3,1,-4,-4,-3
1558433950268554,-2,-10,-5,-5,-7,0,-2,-3
1558433950268554,0,2,9,7,-3,-7,-8,-4
1558433950275534,-1,-2,-10,-12,-7,-10,-6,-1
1558433950275534,-1,-3,-4,-5,-2,2,1,-2
1558433950282514,-2,-1,-2,-5,-9,-9,-12,-4
1558433950282514,-1,6,8,3,-3,5,3,0
1558433950297476,4,6,2,10,9,4,10,4
1558433950297476,-7,-17,-10,-3,-2,0,-3,-4
1558433950305453,0,2,-2,-1,-3,-6,-2,-3
1558433950305453,-1,-4,-5,-6,-3,-1,1,-2
1558433950314430,0,2,9,3,-1,-5,-7,-4
1558433950314430,-1,4,-3,2,-1,0,-2,1
1558433950328392,-3,-2,4,-3,1,3,-4,-3
1558433950328392,-3,-5,-4,-6,-3,-2,-5,0
1558433950335374,-4,-11,-2,-1,0,-4,5,2
1558433950335374,1,0,1,2,3,0,1,-1
1558433950342356,5,7,15,7,7,6,3,3
1558433950342356,2,4,-3,1,0,-6,0,0
1558433950357314,-3,-3,-2,-3,-3,2,-1,-4
1558433950357314,-1,-1,-1,-2,-4,-2,-5,-4
1558433950365294,1,-1,-4,0,6,-1,5,2
1558433950365294,1,-2,6,2,-4,-4,-3,-2
1558433950374269,1,3,-2,-6,-6,-6,-5,-2
1558433950374269,0,-1,0,1,6,9,2,0
1558433950388232,-2,-1,-4,-3,-2,2,-2,-5
1558433950388232,-3,-9,-5,2,-1,-9,-2,-1
1558433950395213,-2,-3,-3,-1,0,-1,-2,-4
1558433950395213,2,4,-1,-4,-4,-7,-2,0
1558433950402196,-3,-3,-2,-2,-1,1,1,-1
1558433950402196,-3,1,4,-2,-6,1,-4,-4
1558433950417168,-2,1,7,7,4,4,4,-2
1558433950417168,1,0,-19,-4,8,-7,2,2
1558433950425133,-1,-4,-4,-3,-1,0,4,2
1558433950425133,0,1,0,-3,0,-5,3,3
1558433950434108,-2,0,7,2,-6,-1,-7,-3
1558433950434108,1,4,13,8,-1,4,-3,-1
1558433950448073,1,0,-6,-7,-6,-6,-5,-1
1558433950448073,-2,-1,-10,-5,-2,-3,-4,-5
1558433950455054,-3,-9,1,0,0,-1,-1,0
1558433950455054,0,1,-2,4,5,-1,-2,-2
1558433950471011,-3,-8,-19,-9,2,5,4,-2
1558433950471011,1,0,7,3,5,6,1,3
1558433950477992,-2,-1,-5,-2,-1,0,2,0
1558433950477992,-1,0,0,-1,-8,-4,-3,-2
1558433950484973,2,2,10,5,-2,-2,2,1
1558433950484973,-3,-5,-11,-1,-3,-1,-1,-2
1558433950493949,-1,2,-1,-3,-2,1,-5,-2
1558433950493949,-3,-4,5,-4,-10,-3,-3,-3
1558433950507913,-3,-1,-6,1,6,6,4,2
1558433950507913,3,-1,7,6,9,14,9,1
1558433950514893,1,0,-14,-5,5,4,-1,0
1558433950514893,-1,-3,1,-1,-7,-7,-2,-2
1558433950530851,0,0,2,-3,-8,-6,-3,-2
1558433950530851,0,8,1,-1,-1,-5,-3,1
1558433950537831,-3,-7,3,3,2,6,2,0
1558433950537831,-3,-6,-6,-6,-4,-1,-4,-3
1558433950544812,-1,0,4,1,-3,-2,-4,-4
1558433950544812,-1,0,4,1,-5,-5,-4,-2
1558433950553789,2,1,-3,-1,-3,-7,-4,-2
1558433950553789,3,2,-1,3,12,1,9,9
1558433950568750,0,0,9,2,-1,1,3,1
1558433950568750,0,-1,-14,-9,1,0,6,-1
1558433950574733,-1,5,-1,-1,-5,-11,-8,-1
1558433950574733,-3,-3,-3,-3,0,0,-5,-4
1558433950590692,-5,-6,5,4,0,2,-6,-3
1558433950590692,1,-2,-1,-2,-6,-2,-3,-3
1558433950597671,-2,-2,-3,0,0,0,0,-2
1558433950597671,0,0,1,-9,-12,-4,-4,-2
1558433950604653,4,4,4,6,7,-1,3,1
1558433950604653,1,6,7,-1,-4,1,-2,-1
1558433950613629,-4,-5,-18,-8,2,6,3,1
1558433950613629,-9,-10,-7,-3,-2,2,0,-7
1558433950628589,-3,-5,-2,-2,0,1,-4,-5
1558433950628589,1,-3,0,1,0,1,1,1
1558433950635569,3,3,7,2,-2,-4,2,0
1558433950635569,3,6,6,2,1,1,-1,-2
1558433950650541,-4,3,-16,-7,-7,-5,-5,-2
1558433950650541,-3,-3,2,-1,2,-3,0,-1
1558433950657512,-6,-10,-2,-2,-8,-7,-8,-5
1558433950657512,0,-2,-7,-6,1,6,3,2
1558433950665491,1,2,6,7,12,9,7,4
1558433950665491,0,0,-3,-1,-1,-6,-1,1
1558433950674467,1,1,1,0,1,1,2,-1
1558433950674467,-3,-2,11,8,-4,-8,-3,-3
1558433950688430,-2,-6,-19,-15,-10,-9,-6,-2
1558433950688430,-1,-2,0,-4,-2,-3,-5,-1
1558433950695410,-4,-1,3,-4,-5,0,1,-2
1558433950695410,-1,-2,-7,-3,-2,-1,-3,0
1558433950710370,3,4,11,7,5,-3,6,5
1558433950710370,-2,-9,-9,-9,5,6,6,3
1558433950717352,0,5,5,0,-1,-2,-4,-2
1558433950717352,-1,-2,-3,0,-1,1,-1,-2
1558433950725330,-2,0,0,-1,-4,-4,-4,-3
1558433950725330,1,1,0,1,-1,-5,-4,-2
1558433950734307,2,7,5,4,-2,1,0,1
1558433950734307,-1,-3,-9,-11,-10,-6,-1,0
1558433950748268,0,-2,-6,4,9,7,5,3
1558433950748268,0,3,6,10,6,-4,-1,1
1558433950755250,-7,-21,-18,-17,-3,-1,-2,-5
1558433950755250,0,2,4,2,-2,-1,-3,-2
1558433950771207,-1,-5,-7,-8,-13,-12,-6,-5
1558433950771207,-1,0,3,3,3,6,1,-1
1558433950778196,3,7,7,8,3,-3,-1,1
1558433950778196,0,-2,-6,0,-1,0,-3,-3
1558433950785170,-2,-1,1,-7,-1,5,-4,-3
1558433950785170,-1,0,-5,-5,-8,-10,-3,-2
1558433950800131,1,3,8,5,8,7,6,4
1558433950800131,0,-5,-11,-6,1,-2,4,1
1558433950808107,0,2,3,4,-5,-2,-3,-3
1558433950808107,-5,-3,-5,-6,-5,-2,-3,-3
1558433950815089,-1,0,7,2,-4,-4,-3,-1
1558433950815089,-3,-2,-13,-6,1,-1,-1,-2
1558433950831049,-2,-6,1,-2,-5,-3,-2,-2
1558433950831049,-4,-5,3,-1,-12,-3,-5,-7
1558433950838033,-2,1,-6,-10,-1,6,-5,0
1558433950838033,2,2,1,9,20,10,11,7
1558433950845010,-3,-1,0,0,-5,-9,-7,-3
1558433950845010,2,0,0,0,4,2,4,5
1558433950861966,1,2,5,5,0,-1,-2,-2
1558433950861966,-4,-5,-8,-10,-8,0,-4,-4
1558433950867952,0,0,1,-3,-1,0,-1,0
1558433950867952,2,3,0,1,-2,-3,-6,-4
1558433950874932,-1,-8,-1,0,-6,-8,-1,-1
1558433950874932,1,4,11,5,7,8,1,0
1558433950890893,-1,0,-7,-4,0,-2,2,0
1558433950890893,-2,-8,-11,-8,0,5,2,-2
1558433950897871,-1,3,-2,3,-1,-6,0,-1
1558433950897871,-2,-3,3,1,-5,-15,-3,-2
1558433950904851,2,2,8,7,3,0,-1,1
1558433950904851,-2,5,-1,-9,-8,-2,-10,-5
1558433950919811,-2,-4,-12,-7,-2,-3,3,-1
1558433950919811,1,1,9,6,1,2,2,0
1558433950928786,0,-5,3,3,3,2,-1,1
1558433950928786,-2,-4,-14,-8,-7,-11,-3,-2
1558433950934771,-1,-6,-6,-6,-4,1,-1,-4
1558433950934771,2,3,0,0,0,7,2,0
1558433950950727,0,2,5,2,4,0,1,0
1558433950950727,-1,0,7,6,2,5,3,2
1558433950957708,0,4,5,0,-3,0,3,2
1558433950957708,-6,-13,-12,-2,-3,-3,-5,-4
1558433950964689,-1,-4,-17,-9,5,8,2,0
1558433950964689,0,-5,7,3,6,1,-3,-1
1558433950979649,4,5,6,2,2,-8,4,3
1558433950979649,2,0,6,-2,-6,-7,-7,-2
1558433950988633,0,2,4,6,2,-2,4,1
1558433950988633,-3,-2,-5,-7,-6,-5,-5,-5
1558433950995611,-1,-2,-7,2,3,8,-5,-2
1558433950995611,3,5,14,4,4,-9,2,5
1558433951011565,-3,1,-13,-6,-7,-4,-4,-2
1558433951011565,0,-2,-2,1,2,2,5,2
1558433951017553,-3,-5,1,-2,-1,3,-3,-3
1558433951017553,0,0,5,3,-2,0,-5,-2
1558433951025534,-3,-4,-7,-9,-8,-1,-2,-5
1558433951025534,-2,-3,-7,-6,-1,-1,2,-2
1558433951040495,1,-1,-2,0,-1,1,1,1
1558433951040495,1,0,-1,-1,-4,-3,1,0
1558433951048477,2,6,8,9,4,4,0,2
1558433951048477,-5,-5,-4,-4,-5,-1,-3,-4
1558433951055515,-1,2,0,0,2,-4,-4,-3
1558433951055515,-2,-7,-4,2,4,5,0,-3
1558433951070419,0,-3,12,2,-5,-2,0,-1
1558433951070419,-1,2,0,4,-2,-1,-2,-1
1558433951077388,-2,-3,-12,-9,-6,-2,0,1
1558433951077388,1,2,-3,-4,0,-5,3,1
1558433951093350,-2,-2,0,2,4,1,-2,-2
1558433951093350,1,0,12,4,1,-7,-3,0
1558433951100432,0,-1,-4,-3,0,3,1,-4
1558433951100432,-2,0,4,-1,-1,4,0,0
1558433951116396,-3,-6,-9,-6,-4,-1,2,-2
1558433951116396,0,2,0,-3,-2,3,0,0
1558433951118281,-1,-1,-3,2,1,-6,-1,-1
1558433951118281,-3,-2,-4,-3,-5,-9,-5,-2
1558433951131333,1,0,4,0,7,6,0,2
1558433951131333,-1,1,5,5,3,-2,-1,-1
1558433951138310,-3,-5,-18,-16,-11,-4,-1,0
1558433951138310,-3,-3,0,1,-6,0,-3,-4
1558433951153402,-2,0,-2,-2,-5,-2,-8,-1
1558433951153402,-2,-5,-1,0,-3,-1,2,-3
1558433951160169,1,-2,-6,1,2,-1,0,1
1558433951160169,0,2,3,-1,1,2,-1,-1
1558433951176136,1,-1,-4,0,1,-2,1,2
1558433951176136,0,-2,-6,0,2,-1,-1,3
1558433951178121,2,3,12,2,-1,-10,-5,1
1558433951178121,-2,1,-7,-5,-2,1,-1,-1
1558433951191094,-2,1,4,4,-2,3,-4,-5
1558433951191094,-4,-11,-12,-13,-13,-11,-7,-2
1558433951198066,0,2,2,7,6,-4,2,2
1558433951198066,-2,-4,-8,-5,1,4,-2,-2
1558433951213026,2,6,3,-2,1,0,5,1
1558433951213026,-2,2,6,5,3,1,-1,0
1558433951220006,-2,-4,-7,-5,-7,-2,-3,-5
1558433951220006,0,-5,4,5,3,3,1,1
1558433951237156,0,-3,1,0,-3,-3,-2,0
1558433951237156,3,2,0,1,11,7,5,3
1558433951237965,-4,-6,-2,-6,-6,1,-6,-4
1558433951237965,1,4,2,3,2,-2,-3,-2
1558433951251131,-1,-3,-5,-6,-3,-4,-2,-2
1558433951251131,2,4,13,8,3,3,-2,-1
1558433951257941,-1,-1,-3,-1,-2,-5,3,0
1558433951257941,-3,-2,-6,-4,-2,0,-9,-2
1558433951272901,-2,-3,2,-3,-7,-7,2,1
1558433951272901,1,0,-6,-2,0,-6,6,2
1558433951279882,1,2,9,5,2,1,-1,-1
1558433951279882,0,2,2,0,-1,-2,0,0
1558433951296800,-5,-4,-21,-9,-5,-2,-3,-4
1558433951296800,0,1,4,0,2,5,2,0
1558433951297799,-1,0,3,3,-3,1,-4,-1
1558433951297799,1,0,-4,-3,-2,-5,2,2
1558433951318809,-1,-2,-4,-7,4,5,1,-1
1558433951318809,-1,-4,-5,3,1,4,1,-2
1558433951320738,2,2,3,3,5,-2,2,3
1558433951320738,-2,-2,2,-4,-8,-6,-7,-3
1558433951333732,0,-2,7,5,1,-1,-2,-4
1558433951333732,-4,-8,-11,-9,-6,1,-2,-3
1558433951341016,-2,-2,0,1,0,1,-2,-3
1558433951341016,2,1,-3,3,7,1,9,4
1558433951357016,3,5,7,3,7,-3,5,4
1558433951357016,-1,0,3,-2,-4,1,-2,-3
1558433951358809,-3,-3,-3,0,-5,-3,-8,-4
1558433951358809,-4,-5,-9,-14,-12,-6,-5,-3
1558433951370645,-4,-11,-10,-8,-5,3,-3,-2
1558433951370645,-1,0,-2,-2,2,0,-6,-3
1558433951377585,1,0,6,3,3,0,1,2
1558433951377585,1,2,3,5,2,-2,3,-3
1558433951393543,0,4,8,-1,-1,-6,-2,0
1558433951393543,-3,-2,-10,-8,-9,-7,-4,0
1558433951400524,-4,-6,-13,-9,-6,1,-4,-3
1558433951400524,-2,-2,0,4,1,-1,-1,-4
1558433951416491,-1,-1,4,-5,-14,-9,-9,-4
1558433951416491,2,4,8,8,13,10,12,3
1558433951417482,0,2,0,3,2,0,2,0
1558433951417482,-3,-3,-12,-5,-3,2,-3,-3
1558433951430445,-3,0,-6,1,1,2,-2,-1
1558433951430445,-1,-1,0,-6,-5,-11,-4,-1
1558433951439420,-1,-2,6,2,3,5,3,0
1558433951439420,1,0,6,2,3,3,0,0
1558433951453732,-2,-3,-11,-3,-5,-1,2,-2
1558433951453732,-1,-2,-1,-1,-4,-7,-3,0
1558433951460365,2,2,7,4,7,2,1,1
1558433951460365,0,-4,-13,-9,-5,-2,2,2
1558433951476671,-2,-5,0,0,-6,-6,-11,-5
1558433951476671,1,2,3,5,5,6,5,2
1558433951478316,-2,-1,-2,-2,-2,-1,1,-1
1558433951478316,-3,0,-2,-6,-6,-1,-2,-2
1558433951490540,1,1,2,4,5,3,3,2
1558433951490540,-3,-2,1,-2,-2,-3,0,-2
1558433951499263,0,4,4,2,3,6,-3,-2
1558433951499263,1,1,0,5,2,-4,-3,1
1558433951513467,-5,-3,-8,-6,-9,-3,-2,-4
1558433951513467,-4,-4,-2,-1,-9,-6,-11,-6
1558433951520244,1,-2,-3,2,2,0,3,2
1558433951520244,1,1,7,5,7,6,5,5
1558433951537210,0,1,8,1,3,1,-1,-1
1558433951537210,-1,-3,-10,-9,-8,-4,-5,-4
1558433951538164,0,1,5,-3,-7,-9,-4,0
1558433951538164,1,0,-5,1,8,7,-2,0
1558433951550314,0,-1,0,3,-3,-11,-3,1
1558433951550314,0,2,11,8,9,8,2,2
1558433951559104,-1,-1,-9,-1,3,-2,1,-1
1558433951559104,-3,-6,7,-7,-8,-7,-7,-4
1558433951574062,-2,-4,-17,-7,1,-1,-1,1
1558433951574062,2,1,3,-2,-5,-1,-4,0
1558433951580051,0,-1,0,2,3,9,6,-2
1558433951580051,1,6,1,1,-3,-5,-4,-3
1558433951597000,-2,-3,5,6,2,-5,4,3
1558433951597000,-1,-3,-6,-5,-3,-2,2,-2
1558433951597999,-4,-4,-7,-7,-6,-2,-6,-3
1558433951597999,-1,-1,0,1,-1,3,3,-1
1558433951609964,0,1,0,-5,-1,1,-2,-3
1558433951609964,0,0,0,2,1,-2,-1,1
1558433951618940,1,3,11,11,8,6,5,2
1558433951618940,-5,-7,-23,-22,-11,-7,-5,-7
1558433951633105,3,1,8,4,0,-2,-2,1
1558433951633105,-1,-2,-3,4,0,-7,2,3
1558433951640343,-1,-2,2,-1,-3,-1,-3,-4
1558433951640343,-2,-3,-5,1,-4,-2,-5,-2
1558433951657122,-3,-4,-9,-4,0,7,1,-1
1558433951657122,0,4,2,4,11,-1,5,3
1558433951658092,-1,-1,1,-3,-7,-7,-1,1
1558433951658092,-1,1,1,3,3,4,4,1
1558433951670261,-3,-2,0,-5,-10,-8,-9,-7
1558433951670261,0,0,5,6,6,5,3,1
1558433951679065,-2,-3,-13,-9,-4,-4,-2,-3
1558433951679065,1,-2,7,4,1,-7,-2,-1
1558433951693252,-5,-6,-11,-3,1,5,0,-2
1558433951693252,-1,-5,-4,-7,-9,-4,-8,-5
1558433951700190,1,2,2,3,0,-4,-1,3
1558433951700190,0,0,6,5,3,7,7,1
1558433951716158,4,5,12,8,3,2,-2,1
1558433951716158,-1,-1,-17,-7,-3,4,0,-2
1558433951723131,-4,-9,-20,-11,-6,-7,-7,-2
1558433951723131,-4,-8,1,1,-3,1,-2,1
1558433951730233,2,2,5,-3,0,-3,2,1
1558433951730233,1,2,2,3,5,2,-1,0
1558433951739208,2,5,10,-2,-10,-6,-2,1
1558433951739208,-1,0,-1,0,-3,-9,0,-2
1558433951753212,0,-3,-9,1,9,7,4,0
1558433951753212,-3,-1,0,-2,-1,1,-1,-3
1558433951760156,-3,-3,-2,-9,-9,-6,-4,-3
1558433951760156,-1,0,8,3,-2,-6,-2,-3
1558433951776151,-3,1,2,-1,-3,-6,0,0
1558433951776151,1,-1,-5,-2,-2,1,2,-1
1558433951783098,-3,-5,4,1,0,0,-2,-1
1558433951783098,0,0,-10,-3,-1,4,1,1
1558433951790066,1,3,-4,1,1,1,-4,-1
1558433951790066,-3,-2,0,-3,-6,-6,1,-1
1558433951799042,-4,-14,-1,2,5,2,1,0
1558433951799042,1,-1,6,0,-6,-6,-7,0
1558433951813005,-1,-3,-15,-9,-4,1,1,0
1558433951813005,1,1,4,0,2,5,-2,1
1558433951819984,-1,4,-4,2,-4,-8,1,-1
1558433951819984,-1,2,4,-5,3,5,2,0
1558433951836176,-2,-7,-12,-2,-5,-5,0,-3
1558433951836176,-3,-2,-1,-4,-1,-4,-5,-2
1558433951843151,0,1,-1,1,0,1,0,-1
1558433951843151,-2,-2,2,2,3,2,-1,-3
1558433951850224,-1,3,8,1,-1,-1,-1,0
1558433951850224,0,-4,0,-3,-6,-1,-4,-3
1558433951859099,-1,-4,-12,-4,1,1,-1,-2
1558433951859099,1,2,2,5,8,4,6,2
1558433951874181,-1,-2,-1,-3,-5,-8,-6,-3
1558433951874181,-3,-2,-5,-1,-2,0,-1,-4
1558433951880823,-3,-8,0,-9,-5,1,-9,-3
1558433951880823,1,0,-4,-2,2,0,-1,1
1558433951895977,1,5,10,8,3,-2,1,-1
1558433951895977,-1,6,11,11,2,-5,-2,1
1558433951902979,-12,-12,-41,-28,-12,-4,-7,-7
1558433951902979,-2,-6,-2,0,-5,-3,-2,-3
1558433951919726,0,0,-5,-3,5,9,3,0
1558433951919726,0,-2,6,0,2,4,4,1
1558433951920723,1,8,12,13,4,2,-1,-1
1558433951920723,-1,-3,-5,-3,-7,-8,-7,-3
1558433951933881,2,2,8,-1,4,2,0,3
1558433951933881,-2,-3,-13,-11,-14,-16,-8,-3
1558433951940844,3,5,8,11,10,5,3,3
1558433951940844,-1,-2,6,-1,2,4,6,2
1558433951955663,-4,-6,-7,0,-6,-7,-6,-5
1558433951955663,-4,-7,-15,-11,4,9,0,-1
1558433951962645,3,5,11,4,1,-2,-3,1
1558433951962645,-2,1,0,-2,-2,-2,-4,0
1558433951978595,2,-2,5,1,-3,-6,0,1
1558433951978595,0,-1,4,4,-3,2,2,1
1558433951980555,-1,1,-1,-1,1,0,4,-1
1558433951980555,-1,-1,-5,-2,0,1,-2,-3
1558433951993519,-2,-4,-5,-7,-8,0,-1,-1
1558433951993519,1,2,0,3,0,-3,0,-1
1558433952000503,1,2,9,6,12,4,4,2
1558433952000503,-4,-8,-6,-3,-6,-3,0,-4
1558433952015461,-3,-3,-6,-1,-5,-7,-8,-4
1558433952015461,2,3,3,-4,2,-2,3,1
1558433952022444,-4,-10,-13,-8,-2,-4,-2,-3
1558433952022444,1,0,-14,-11,-6,-9,-3,-1
1558433952039753,2,-2,11,5,4,6,0,0
1558433952039753,-3,-3,-8,-4,-8,-1,-5,-3
1558433952040397,2,2,11,9,1,2,2,-4
1558433952040397,0,0,1,-4,3,0,-2,-1
1558433952053734,-1,0,-9,-4,2,9,6,-1
1558433952053734,2,3,5,3,0,-2,-2,-2
1558433952060343,-3,-4,-6,-4,-10,-5,-5,-3
1558433952060343,0,0,7,4,0,3,1,0
1558433952076771,-2,3,-7,2,7,1,6,4
1558433952076771,-3,-14,-7,-4,-4,-2,-8,-2
1558433952083370,0,3,2,-1,-7,-5,5,2
1558433952083370,1,4,3,5,9,6,1,0
1558433952099544,-2,-1,10,0,-1,0,-5,-3
1558433952099544,-1,-2,-14,-2,-4,-10,-1,0
1558433952100236,0,0,-1,-7,-3,-5,-3,-2
1558433952100236,-2,2,0,-2,-4,0,-1,-3
1558433952113500,-1,-1,4,8,7,1,3,0
1558433952113500,0,2,11,3,-1,-4,-1,-1
1558433952120454,0,-3,-5,-2,0,0,0,1
1558433952120454,0,-2,-7,-6,-5,-2,1,0
1558433952136419,-2,-2,1,-6,-10,-10,-8,-6
1558433952136419,-5,-10,-10,-3,3,5,2,-1
1558433952143273,0,5,3,2,0,2,2,2
1558433952143273,-3,-4,-3,-1,-2,-6,-8,-3
1558433952159304,-1,0,0,-2,-7,-4,-5,-1
1558433952159304,-1,0,7,2,-2,-2,0,1
1558433952160081,-1,2,0,1,-2,-3,-2,-1
1558433952160081,-4,-5,-2,-2,-2,2,0,-3
1558433952174060,-3,-1,0,4,1,6,0,-2
1558433952174060,-1,-2,-16,-8,-1,2,-1,-3
1558433952180223,0,0,3,-3,-1,-2,7,-1
1558433952180223,-2,1,3,1,3,4,1,1
1558433952196181,0,-1,3,-1,-3,-5,2,1
1558433952196181,-1,-2,-6,-4,0,7,2,-2
1558433952203173,1,1,1,6,0,-1,-4,-3
1558433952203173,-3,-3,1,-1,-2,-5,-7,-3
1558433952218922,-2,-5,-9,-7,-5,-6,2,0
1558433952218922,2,4,3,2,10,12,4,1
1558433952219916,0,-2,-4,-2,-2,2,-7,-4
1558433952219916,-3,-5,2,1,-6,-7,-1,-2
1558433952234058,1,3,7,2,-4,-6,-6,-1
1558433952234058,1,2,-5,-2,2,2,2,-2
1558433952239866,-2,-5,-3,-6,-1,-3,0,2
1558433952239866,1,-1,5,3,2,-6,4,3
1558433952256165,-2,0,-14,-5,-1,1,0,-1
1558433952256165,-4,-12,3,-3,-10,-10,-9,-3
1558433952262830,1,3,-7,-7,-4,-1,-6,-4
1558433952262830,2,1,-3,0,7,11,10,4
1558433952279012,-2,-4,-2,1,4,-2,-1,0
1558433952279012,1,5,14,7,-1,-5,-1,2
1558433952280754,-1,-2,-14,-4,-5,-3,-6,-3
1558433952280754,0,-1,-4,-15,-11,-6,-10,-3
1558433952293722,0,2,10,2,-5,-5,2,-1
1558433952293722,-1,-1,-10,-6,-1,1,1,0
1558433952300037,-2,-4,-2,0,0,-1,3,0
1558433952300037,-3,-3,-6,4,2,3,2,1
1558433952315979,-1,0,7,0,1,1,2,1
1558433952315979,-1,2,7,3,-5,-6,-4,-1
1558433952323972,0,0,1,2,6,8,-1,0
1558433952323972,-3,-2,-10,-7,-4,-2,-1,-2
1558433952339714,-1,-1,-3,2,9,11,5,2
1558433952339714,-3,3,5,0,-3,-9,-1,-3
1558433952340597,0,2,5,-4,-5,-2,-2,-2
1558433952340597,-3,-14,4,5,3,4,1,-1
1558433952353780,-1,-1,-11,0,-4,-3,-5,-3
1558433952353780,-2,-1,-3,-5,-7,-3,-2,-3
1558433952360542,1,0,-5,-2,5,2,-1,2
1558433952360542,-2,2,1,-5,-4,-6,3,0
1558433952376505,1,0,0,-2,-2,-3,-2,-1
1558433952376505,0,0,3,4,1,2,3,1
1558433952382707,-2,-1,1,0,-5,-5,-3,-1
1558433952382707,1,4,-2,9,7,6,-6,-1
1558433952399660,0,0,-1,-16,-8,-2,-5,0
1558433952399660,1,3,-1,0,2,-3,0,1
1558433952400434,-4,-9,0,-5,-8,-8,-2,-3
1558433952400434,1,2,0,0,5,6,2,1
1558433952412399,0,0,3,1,-1,1,-2,-2
1558433952412399,-1,2,-2,0,1,4,-4,0
1558433952421382,-1,-5,7,4,2,-5,6,3
1558433952421382,-1,0,-6,-6,-4,-7,-7,-5
1558433952436552,-1,0,-3,0,-1,1,3,-2
1558433952436552,2,2,4,-1,-2,-2,-2,-1
1558433952442320,-3,0,-12,-1,2,2,1,-3
1558433952442320,-2,-2,1,-1,1,0,-3,-3
1558433952459278,-3,0,-5,3,6,-4,0,-2
1558433952459278,-5,-15,-9,-9,-1,3,0,-1
1558433952460273,0,1,8,7,5,7,-3,-1
1558433952460273,-1,4,9,2,-10,-7,-1,-1
1558433952472245,-2,-4,-11,-7,-7,-5,-3,0
1558433952472245,-4,2,-7,-1,5,-2,0,-2
1558433952481218,0,-1,-1,-3,-6,-7,0,0
1558433952481218,0,3,5,4,0,0,-3,-4
1558433952496445,-4,-6,-5,-3,-1,2,-4,-2
1558433952496445,1,-1,-2,0,0,-6,0,1
1558433952502422,0,2,4,-1,1,5,-1,1
1558433952502422,2,5,2,0,-1,-2,5,3
1558433952519146,-2,-6,10,5,0,0,2,-2
1558433952519146,0,-3,-6,-4,-2,0,-1,-1
1558433952520169,-1,-2,-1,-3,-1,-2,1,-1
1558433952520169,-1,-3,-2,0,0,-3,-5,-2
1558433952533220,2,7,0,1,6,6,2,1
1558433952533220,-1,-1,-1,0,1,1,4,0
1558433952541304,-4,-6,10,6,-2,-3,-2,-2
1558433952541304,0,1,-6,-4,-5,-1,-2,-2
1558433952556281,-4,-7,-15,-9,-2,2,1,1
1558433952556281,-1,-2,5,4,-1,-6,-6,-1
1558433952563243,-2,1,1,-3,-1,1,-2,-2
1558433952563243,-1,-5,-13,-6,-1,2,1,-2
1558433952577958,1,5,5,6,5,1,-7,-2
1558433952577958,1,0,-1,-12,-9,-8,1,0
1558433952578954,2,4,5,6,5,3,4,3
1558433952578954,-4,-1,-1,-5,-7,-1,-4,-5
1558433952601144,-1,-3,-5,4,-3,-3,-1,1
1558433952601144,-3,-3,1,3,7,14,4,0
1558433952602089,-3,0,3,0,-6,-4,-4,-4
1558433952602089,0,-5,-8,-3,-1,-1,-2,0
1558433952616855,-1,1,0,2,0,-6,3,-1
1558433952616855,-2,-4,-5,-5,-6,-6,-6,-3
1558433952623091,0,2,4,-2,-1,3,3,-1
1558433952623091,3,3,11,13,11,7,1,1
1558433952637808,-3,-6,-7,-13,-11,-5,-7,-4
1558433952637808,-2,-3,-13,-1,1,1,1,1
1558433952644779,-2,-4,-5,-3,3,1,-2,-3
1558433952644779,-1,-3,7,3,0,-3,3,1
1558433952660736,2,2,5,-2,-5,-10,-4,-2
1558433952660736,-2,2,3,1,-3,0,-1,-3
1558433952661733,-3,-8,-17,-6,-1,2,0,-1
1558433952661733,0,-2,-3,-4,1,1,2,-1
1558433952676692,-1,0,2,2,-3,-1,0,-1
1558433952676692,-1,-3,6,3,1,2,-1,-2
1558433952683144,2,0,3,1,-3,-8,-7,2
1558433952683144,1,-1,-7,-1,0,1,6,1
1558433952697986,-1,0,1,-2,-3,1,-2,-1
1558433952697986,1,-1,-9,-1,0,-3,-3,-2
1558433952705835,1,3,0,2,5,-5,0,1
1558433952705835,-4,-5,-3,-4,-2,3,-2,-2
1558433952721618,0,1,6,-1,-7,-6,-5,-1
1558433952721618,-1,2,10,9,8,3,4,2
1558433952721618,-2,-2,1,-4,-8,1,-3,-2
1558433952721618,-3,-2,-10,-6,-10,-16,-4,1
1558433952736674,2,1,7,5,15,14,12,5
1558433952736674,-2,-1,-8,-3,-9,-3,-8,-4
1558433952743415,-1,0,-3,-2,3,1,-1,-2
1558433952743415,1,2,3,1,0,-1,-4,0
1558433952758339,-2,-3,-1,-1,-1,2,-1,-3
1558433952758339,1,0,5,-5,-4,-5,0,1
1558433952765260,-1,-2,-3,-2,0,1,3,-2
1558433952765260,-2,-2,-6,-7,-7,-7,-5,-2
1558433952780901,2,4,-1,5,7,6,5,1
1558433952780901,-4,-1,-3,0,-2,-2,-3,-3
1558433952781897,-3,-9,-3,-1,0,0,1,-1
1558433952781897,0,2,5,0,-1,0,2,0
1558433952796857,-3,1,4,0,-5,-5,-8,-5
1558433952796857,1,-1,-1,-1,-2,-1,1,0
1558433952803116,1,3,-2,3,1,-6,0,0
1558433952803116,-1,-4,-5,-1,0,-1,-2,-2
1558433952818068,-3,-2,-7,-10,-12,-9,-7,-5
1558433952818068,-3,-1,0,-3,3,8,0,-2
1558433952825043,0,4,4,7,8,5,7,3
1558433952825043,-2,-3,-1,0,-3,-1,-1,-3
1558433952840741,-1,-3,1,-3,-5,-7,-2,-2
1558433952840741,0,1,10,-1,-6,-11,-9,-3
1558433952841738,-4,-7,-17,-7,3,8,1,1
1558433952841738,3,5,4,7,10,5,3,2
1558433952856696,-1,-6,-9,-5,-1,1,-1,0
1558433952856696,0,0,1,3,-3,-6,4,1
1558433952862679,2,4,5,2,-4,-9,-3,0
1558433952862679,-3,-6,-3,-7,-9,0,-5,-6
1558433952877642,-1,-1,4,3,5,8,0,1
1558433952877642,1,2,1,3,2,2,5,-1
1558433952886044,-6,-5,-8,-9,-8,-6,-7,-5
1558433952886044,-3,-8,-2,0,0,1,-3,-2
1558433952901085,0,-1,-9,-2,4,3,1,-1
1558433952901085,-2,-5,-5,-9,-2,4,1,1
1558433952901576,1,4,4,1,2,6,-2,-4
1558433952901576,0,4,0,1,-2,-11,-5,1
1558433952916744,-2,-1,6,2,-1,-2,-1,-1
1558433952916744,-1,-5,-1,1,0,2,0,-2
1558433952922973,-2,-2,-3,-2,-6,-1,-4,-2
1558433952922973,0,1,3,0,1,0,-4,0
1558433952938365,-1,-1,-6,1,4,5,7,-1
1558433952938365,0,4,3,4,1,-9,-2,3
1558433952944937,-2,-5,-12,-7,-4,-4,-3,-2
1558433952944937,1,-1,5,3,2,-2,1,0
1558433952960896,-2,0,-2,-7,-7,-4,-5,-1
1558433952960896,-1,-3,-6,-6,6,10,0,-1
1558433952961891,0,3,9,3,-2,-2,0,-2
1558433952961891,1,2,2,3,-1,1,-2,-1
1558433952976851,-3,-6,-4,-2,-2,-5,-4,-4
1558433952976851,-2,0,-3,-1,-4,-2,-1,-1
1558433952983118,1,2,-1,1,2,4,0,0
1558433952983118,-1,2,-6,-5,-1,3,-1,-2
1558433952998093,2,-1,4,-1,-2,-1,1,1
1558433952998093,-3,-5,-5,-2,-2,-1,-2,-3
1558433953005887,1,3,10,4,0,-2,-2,-1
1558433953005887,-5,-2,-6,-3,-5,-2,-2,-3
1558433953021028,-2,-3,-9,-4,-3,-4,-5,-1
1558433953021028,0,1,3,-5,-2,-1,0,-2
1558433953021733,-2,-1,-7,-4,-3,-6,-1,-2
1558433953021733,2,-1,4,1,5,1,4,3
1558433953036692,0,0,2,-2,-4,-4,-7,-4
1558433953036692,-1,-2,1,4,2,2,7,-2
1558433953042702,1,0,5,1,0,-3,-3,-2
1558433953042702,-1,1,-5,-6,-4,-6,-6,-4
1558433953058634,-1,-8,2,5,9,6,7,5
1558433953058634,-3,0,2,0,-4,-5,-1,-2
1558433953064617,-4,-4,0,-2,-2,6,1,-3
1558433953064617,0,-2,-6,1,1,-4,-2,0
1558433953081750,0,3,4,-4,-4,-1,1,0
1558433953081750,-1,2,-5,2,6,9,0,0
1558433953081750,0,-1,-1,-2,-4,-5,0,-1
1558433953081750,0,-1,1,-2,-7,-8,-3,-1
1558433953096547,-3,2,-4,1,5,4,2,-3
1558433953096547,0,-5,5,3,-2,-6,-3,-1
1558433953102870,0,-2,-5,1,1,5,5,-2
1558433953102870,-2,-2,1,-8,-8,0,0,-3
1558433953117476,2,3,-3,-2,-9,-10,-10,0
1558433953117476,-1,2,0,1,5,7,2,3
1558433953125786,-5,-9,-3,3,0,-3,-3,-4
1558433953125786,-3,-2,0,-3,0,4,1,-2
1558433953141571,-1,0,3,2,4,0,3,1
1558433953141571,-2,-1,-9,-8,-7,-6,-5,-3
1558433953141571,2,0,2,-2,4,0,-4,-1
1558433953141571,-3,1,-6,1,4,11,2,0
1558433953156520,-3,-2,-9,-7,-9,-6,-5,-3
1558433953156520,-2,-11,-2,2,0,-5,0,2
1558433953162640,-1,2,5,3,5,7,3,0
1558433953162640,1,-3,6,1,-3,-8,0,0
1558433953177320,0,1,-3,-1,1,0,2,-2
1558433953177320,-2,0,-4,-5,-7,-4,-8,-6
1558433953185582,0,3,0,-4,-1,1,1,1
1558433953185582,0,-3,1,8,4,2,4,1
1558433953201405,-2,1,9,4,4,0,3,-1
1558433953201405,1,1,-1,-2,-3,-3,0,0
1558433953201405,-3,-3,-9,-4,-7,-5,-8,-4
1558433953201405,-2,0,-3,-5,-3,-3,-5,-1
1558433953216519,0,-4,0,-3,-4,-1,-3,-2
1558433953216519,3,8,10,6,4,4,-1,1
1558433953223405,1,2,-6,-6,1,-6,4,6
1558433953223405,-6,-11,-4,-2,-1,-1,-5,-4
1558433953239150,-1,-4,-2,5,3,4,4,1
1558433953239150,0,2,9,-2,-4,-6,-4,-2
1558433953245161,0,0,-7,-6,-12,-7,-8,-4
1558433953245161,1,1,1,-2,4,1,0,2
1558433953261092,-2,-2,1,5,5,3,-1,4
1558433953261092,-4,-5,-15,-6,-8,-4,-2,-5
1558433953262335,0,0,6,2,-1,0,-1,-1
1558433953262335,1,-1,-2,-1,-4,0,-2,-2
1558433953276390,0,2,-3,-4,-10,-12,-5,-1
1558433953276390,1,2,3,3,9,7,4,0
1558433953283369,-4,-5,-2,-2,-2,-8,-1,2
1558433953283369,-5,-3,-12,-4,1,4,-1,-4
1558433953297993,1,1,6,1,-1,-2,-3,-3
1558433953297993,-1,-3,-3,-4,-3,1,1,-2
1558433953304974,-2,-4,-1,-1,-4,-4,0,-2
1558433953304974,1,4,12,2,0,0,0,0
1558433953321362,-1,0,-8,-3,3,-1,-1,-2
1558433953321362,-2,-8,-5,-2,-6,-9,-3,-3
1558433953321362,1,3,6,6,9,11,3,0
1558433953321362,1,3,-1,2,-3,-1,7,2
1558433953336890,-3,-6,-8,-6,-5,-5,-7,-1
1558433953336890,-1,-3,2,-1,-2,-5,2,1
1558433953343307,-3,-2,-8,-2,4,8,-4,0
1558433953343307,1,4,5,2,0,-5,0,-2
1558433953358268,-2,-5,-6,-6,-6,-9,-5,-2
1558433953358268,-1,-3,0,0,1,4,0,-2
1558433953365908,0,0,2,1,-2,-2,1,0
1558433953365908,-4,-3,4,0,-1,0,-2,-1
1558433953381086,0,3,-1,-6,-4,8,-2,0
1558433953381086,-2,-2,-4,-2,-2,-2,-9,-4
1558433953382025,-2,-4,0,2,-4,-4,-4,-2
1558433953382025,1,2,0,2,6,8,9,3
1558433953396734,-5,-7,-8,-7,-7,-10,-2,-4
1558433953396734,1,3,-6,1,-3,-2,3,1
1558433953403018,-1,3,8,5,2,-1,-6,-3
1558433953403018,-2,-3,0,-4,1,6,1,0
1558433953417957,-4,-1,-5,-2,-1,-2,-6,-3
1558433953417957,0,-3,-6,-1,-1,-1,-3,-4
1558433953425859,2,0,-2,-1,2,-4,6,4
1558433953425859,0,-3,-6,-3,-3,-4,-5,-3
1558433953440612,1,-1,4,-1,1,4,3,1
1558433953440612,1,5,5,7,6,8,1,1
1558433953441614,-1,-5,-6,-4,-8,-12,-4,-4
1558433953441614,-1,3,-3,-4,-4,-5,-6,-1
1558433953456572,-1,-3,5,8,6,10,4,0
1558433953456572,-2,2,8,5,-4,-3,-2,0
1558433953462555,0,-3,-11,-7,0,5,8,0
1558433953462555,-1,-4,-5,-2,-5,-5,-5,-3
1558433953477514,0,1,4,4,7,3,4,2
1558433953477514,-1,-3,-4,-4,-3,-8,-2,1
1558433953485849,0,4,7,3,0,1,-5,-2
1558433953485849,-3,-8,1,-1,-1,2,-2,-4
1558433953500794,-2,2,-2,0,-3,1,3,0
1558433953500794,-3,-1,-7,-2,-2,-1,-3,-2
1558433953501453,-1,-6,-1,-5,-8,-9,-2,-2
1558433953501453,-1,-1,-5,-2,2,2,-4,-1
1558433953516409,2,2,8,0,-1,-7,3,-1
1558433953516409,-2,-5,2,-1,7,15,10,2
1558433953522744,-3,1,-4,-2,-5,1,-4,-4
1558433953522744,1,-2,-8,0,1,0,-4,-1
1558433953537706,2,-2,-2,-4,2,2,3,4
1558433953537706,-1,-1,-5,-6,-7,-10,-9,-3
1558433953545707,-1,-2,3,-1,-1,3,-1,-2
1558433953545707,3,3,7,6,7,4,9,5
1558433953560294,-1,-2,2,3,-2,-2,0,-1
1558433953560294,-1,1,-5,-3,-4,3,-1,-2
1558433953561290,0,-4,2,-3,-3,0,-7,-3
1558433953561290,0,0,-5,-2,-2,-9,-3,-2
1558433953576403,0,0,-1,-4,-6,-14,-3,-1
1558433953576403,1,0,5,1,-1,-2,0,1
1558433953583236,-3,2,-4,-2,-2,-1,0,0
1558433953583236,0,-1,-6,-4,-8,-5,-2,-1
1558433953598231,-2,-5,-18,-5,0,2,-3,-4
1558433953598231,-5,-6,4,1,4,1,2,-1
1558433953605406,1,0,-4,0,2,0,0,1
1558433953605406,1,5,9,3,0,1,4,1
1558433953620356,-3,-5,2,-3,-9,-13,-5,-4
1558433953620356,-1,3,-8,-2,-3,-1,-5,-5
1558433953627113,-1,-1,5,5,5,0,2,0
1558433953627113,-4,-2,-10,-7,-3,6,2,-3
1558433953636323,-3,1,-1,-1,-7,-3,-7,-5
1558433953636323,0,0,0,-3,4,0,0,2
1558433953643077,-1,-3,4,2,5,3,4,0
1558433953643077,-1,5,-2,-3,-11,-11,-6,-2
1558433953658032,0,1,0,1,7,10,0,1
1558433953658032,-3,-9,-6,0,-3,-8,-7,-3
1558433953665013,-1,-2,1,-5,0,4,2,2
1558433953665013,-2,-5,-1,-4,-1,-1,0,1
1558433953680306,1,1,1,3,2,-1,2,0
1558433953680306,4,7,8,7,5,-3,5,7
1558433953688358,-2,1,-6,-7,-13,-9,-4,-7
1558433953688358,-4,-7,-8,-5,-3,-3,-2,-3
1558433953696323,-1,0,-1,3,5,5,5,-1
1558433953696323,-4,-3,-1,-2,-5,0,-1,-3
1558433953702910,-1,3,2,6,2,2,-1,0
1558433953702910,-1,3,3,-1,-3,-7,-2,0
1558433953718304,-7,-14,-10,-4,-2,2,-2,-2
1558433953718304,0,-4,0,-5,-5,-6,-3,-2
1558433953725271,-1,-1,-4,1,1,-1,0,-2
1558433953725271,3,3,5,2,12,9,6,4
1558433953740978,2,2,8,6,-2,2,-3,-1
1558433953740978,-3,-3,-10,-10,-4,1,-11,-3
1558433953748214,3,-2,-1,-1,2,-3,2,1
1558433953748214,0,-2,2,2,-2,-2,-2,1
1558433953763986,0,1,5,-2,-1,-1,0,1
1558433953763986,1,-1,-12,-7,-6,-4,0,-1
1558433953763986,-1,-2,3,-1,0,3,-6,-2
1558433953763986,1,-3,-6,2,2,0,-2,0
1558433953777143,4,4,14,8,6,-1,3,5
1558433953777143,-4,1,-2,1,-6,-3,0,-2
1558433953785458,-3,-5,-15,-13,-7,-6,-4,-1
1558433953785458,-1,2,5,4,-1,0,2,-1
1558433953800083,-3,0,-4,-8,-7,-2,-3,-3
1558433953800083,-4,-7,3,1,1,-4,-3,-1
1558433953808356,-4,-6,-1,3,6,5,0,-2
1558433953808356,-3,0,2,5,2,-5,-3,-4
1558433953823274,1,3,-13,-12,-2,-1,-1,-1
1558433953823274,-1,-4,-1,-1,0,1,3,-1
1558433953824025,0,1,2,0,-4,1,1,1
1558433953824025,-1,-2,1,-2,1,4,-3,-3
1558433953839018,-3,-2,-1,2,-4,-3,-5,-3
1558433953839018,3,4,6,3,9,2,3,2
1558433953844963,-1,0,0,-1,1,-4,-1,-1
1558433953844963,-2,-2,-5,-9,-11,-1,-2,-5
1558433953859932,-2,-2,-2,3,0,-11,2,-2
1558433953859932,-1,-3,-13,-8,-4,4,-1,-2
1558433953867906,2,1,0,2,0,-5,-1,2
1558433953867906,2,2,1,5,9,6,4,3
1558433953882974,-4,-6,8,-2,-6,0,-7,-4
1558433953882974,1,1,-6,-4,-2,-1,-1,1
1558433953883857,-1,-1,4,0,0,-5,1,-4
1558433953883857,0,2,3,3,2,0,-6,0
1558433953899255,-4,-9,-18,-4,-1,3,0,-1
1558433953899255,1,4,6,-6,-5,-1,1,2
1558433953905931,-2,0,-9,-4,-6,-1,-5,-2
1558433953905931,-4,-2,2,1,1,-2,2,1
1558433953920988,1,0,4,4,3,4,0,0
1558433953920988,0,-2,2,6,0,-1,-3,-1
1558433953927740,-2,1,-2,-4,-4,1,-1,-2
1558433953927740,-1,-2,-7,-5,-7,-4,-5,-4
1558433953943188,-1,2,1,2,5,1,3,0
1558433953943188,0,3,4,6,3,0,6,0
1558433953944185,-1,-3,-1,-3,-5,-3,0,0
1558433953944185,-5,-12,-7,-2,0,3,-1,-2
1558433953959148,0,1,6,4,0,1,0,0
1558433953959148,-4,-4,-10,-9,-4,-5,-5,-5
1558433953965434,2,3,7,6,8,9,9,3
1558433953965434,-2,-2,-2,-3,-4,-1,-3,-1
1558433953980291,-2,-1,-1,-6,-8,-7,-4,-1
1558433953980291,-1,-2,4,0,-4,-3,-3,-3
1558433953987104,-3,-3,-8,-1,-1,2,0,1
1558433953987104,-1,1,1,1,-1,-10,-2,1
1558433954003310,2,8,5,3,3,5,0,2
1558433954003310,-5,-12,-11,-6,-5,-5,-3,-3
1558433954004029,-4,-6,-6,-4,-7,-11,-8,-4
1558433954004029,-1,2,4,5,7,6,2,0
1558433954019067,2,4,-1,-3,-4,-1,-2,1
1558433954019067,0,3,11,4,5,2,7,3
1558433954025252,1,-2,-15,0,0,0,-6,-2
1558433954025252,-2,-5,-6,-9,-10,-5,-1,-3
1558433954040212,-2,-3,-9,-2,4,2,-1,0
1558433954040212,-3,1,5,1,-3,-4,-7,-2
1558433954048186,-1,3,8,4,2,4,2,0
1558433954048186,2,2,1,-1,3,-2,4,4
1558433954062867,-1,-4,-4,2,3,4,3,2
1558433954062867,0,0,0,-1,-5,-2,-4,0
1558433954063865,-3,-4,1,-2,-3,-4,-2,-4
1558433954063865,-1,-2,-1,-2,-1,5,-2,-5
1558433954078825,-1,3,4,0,-3,-4,-2,-3
1558433954078825,3,2,-1,1,5,-5,-1,4
1558433954084843,-2,-10,1,1,2,0,9,5
1558433954084843,-3,-7,-9,-8,-7,-6,-3,-3
1558433954099770,-3,-4,-8,-6,-7,-5,-4,-3
1558433954099770,1,-1,3,0,2,-4,1,0
1558433954107782,1,3,2,-3,-4,-1,-6,-3
1558433954107782,-2,-2,0,1,-4,-4,1,-2
1558433954122707,0,2,10,6,5,6,1,-3
1558433954122707,-2,-2,-6,-2,-3,2,-5,-2
1558433954123706,-2,-4,-13,-8,2,-1,1,1
1558433954123706,0,5,2,0,5,6,1,0
1558433954139001,-3,-6,-5,-2,-8,-7,-4,-6
1558433954139001,-2,-2,0,2,-1,2,-1,-4
1558433954145756,3,4,11,2,1,-3,1,2
1558433954145756,0,0,-9,-2,-2,-8,-5,0
1558433954159846,0,-5,-11,-9,1,2,1,0
1558433954159846,-2,-2,2,-1,-3,-3,-1,0
1558433954168032,0,4,0,4,-1,-3,0,0
1558433954168032,1,-1,8,8,7,-1,2,1
1558433954183743,-1,-1,0,-5,-3,-1,-2,1
1558433954183743,-3,-3,-10,-5,-4,1,-1,-3
1558433954183743,0,1,4,2,0,0,-1,0
1558433954183743,-2,0,-4,-9,-6,-2,-5,-3
1558433954199502,-2,-7,-4,0,-1,-7,-1,-1
1558433954199502,1,2,2,2,1,3,2,0
1558433954205812,-3,-3,0,-3,-5,2,-4,-5
1558433954205812,0,-4,-8,-1,-2,-3,-8,-1
1558433954220685,1,0,-4,0,5,0,3,4
1558433954220685,0,7,5,1,-6,-10,-4,-1
1558433954227432,-1,-1,-3,0,8,11,6,1
1558433954227432,-4,-6,0,-2,-1,4,1,-2
1558433954243431,-3,0,-1,-7,-10,-5,-5,-2
1558433954243431,-2,-7,-6,2,-1,-4,1,0
1558433954244387,3,5,8,6,6,0,1,2
1558433954244387,-1,-2,-10,-3,-1,-3,-5,-2
1558433954259344,-2,-3,-6,-2,-2,1,0,-3
1558433954259344,-1,1,6,-1,1,0,0,-2
1558433954265327,-1,-2,-4,-8,-11,-6,-3,-4
1558433954265327,0,1,9,1,-1,-2,0,1
1558433954280286,0,0,-5,4,4,3,1,-1
1558433954280286,-2,0,5,3,-1,-2,-4,-2
1558433954287268,-4,-5,-9,-11,-10,-8,0,-4
1558433954287268,-1,-2,0,-3,-3,-1,-2,-3
1558433954303671,3,5,3,-1,-2,-1,-5,-1
1558433954303671,-2,-2,-6,-2,9,8,6,2
1558433954304223,-3,-5,-5,1,4,-6,-1,2
1558433954304223,-3,-1,-4,-2,-8,-6,1,-1
1558433954319183,-1,-1,9,2,-2,-3,-1,0
1558433954319183,2,2,-2,-3,-3,2,-1,0
1558433954325644,-4,-3,-6,-2,-5,-2,-4,-3
1558433954325644,1,0,3,1,3,0,5,1
1558433954340585,2,1,6,5,3,-5,0,2
1558433954340585,-2,-3,-14,0,4,9,2,1
1558433954348465,-1,1,-2,-5,-2,1,-2,0
1558433954348465,-3,-3,1,1,-3,-6,-8,-1
1558433954363525,-1,-2,0,-5,-6,-4,0,0
1558433954363525,2,4,6,5,6,7,2,1
1558433954364065,-2,1,4,4,-1,-4,0,-1
1558433954364065,-1,1,-4,-5,-4,-3,1,-3
1558433954379021,-4,-5,1,6,6,2,0,-1
1558433954379021,-4,-9,-13,-13,-11,-7,-4,-4
1558433954385453,-1,-2,-4,0,2,4,-5,-4
1558433954385453,0,3,6,5,-5,-4,2,0
1558433954399967,0,6,3,1,6,-1,-2,1
1558433954399967,4,5,6,3,-2,-4,0,-1
1558433954408260,-3,-12,-9,-2,-3,0,-3,-3
1558433954408260,-2,-3,-5,-2,-4,-3,-9,-2
1558433954423906,0,0,3,2,-2,1,5,1
1558433954423906,0,0,-5,-2,10,11,7,3
1558433954423906,1,2,0,-2,1,-3,-6,-2
1558433954423906,0,-2,1,-1,-1,-4,-2,-3
1558433954439015,1,0,-4,-1,-3,-3,2,0
1558433954439015,-4,-2,5,0,-7,-13,-6,-3
1558433954444846,-1,-4,-11,-6,-4,2,0,-2
1558433954444846,-3,-1,1,1,0,3,-1,0
1558433954459809,0,-1,0,-2,4,5,1,-1
1558433954459809,-4,-2,0,-4,-8,-3,-6,-4
1558433954468042,2,7,12,8,7,3,3,2
1558433954468042,-1,-1,-6,-6,-2,-1,3,1
1558433954483953,-1,-2,-4,-6,-1,1,-2,-2
1558433954483953,-1,-4,0,1,1,0,-4,0
1558433954483953,0,0,-3,1,-1,-4,4,-1
1558433954483953,3,7,6,3,3,6,1,0
1558433954498931,-4,-4,0,0,-4,-3,-3,-3
1558433954498931,-6,-19,-27,-7,-3,-2,-4,-2
1558433954504686,-3,-3,-7,-9,-7,-3,-6,-2
1558433954504686,0,-3,5,5,5,3,2,-1
1558433954519646,-2,4,-6,-5,-5,-3,1,-1
1558433954519646,1,4,10,4,2,-1,-1,-2
1558433954527628,1,3,2,5,2,0,-3,1
1558433954527628,-1,-1,8,-4,0,1,1,0
1558433954543015,-4,-8,-18,-2,1,-5,-5,-1
1558433954543015,0,0,-4,-8,-5,-4,-6,-3
1558433954549974,2,0,3,-1,-3,-3,0,-1
1558433954549974,1,3,4,5,6,5,1,0
1558433954558946,-2,-3,-2,-5,-6,-5,-4,-4
1558433954558946,-3,0,4,9,8,7,4,3
1558433954573920,2,2,6,2,0,-4,-1,2
1558433954573920,1,-2,-5,-1,-1,0,2,0
1558433954580833,4,3,11,10,9,9,5,3
1558433954580833,1,3,4,-9,-6,-1,-4,-5
1558433954595903,-3,-6,-17,-10,-4,-6,-2,-2
1558433954595903,-2,-6,-9,-4,-2,-6,-2,0
1558433954602852,-1,0,0,-4,-8,-5,-5,-4
1558433954602852,1,0,2,0,-2,2,0,-1
1558433954610403,0,1,12,12,16,17,17,4
1558433954610403,-5,-6,-10,-6,-8,-11,-4,-5
1558433954619380,-1,1,2,-3,-5,-2,-7,-6
1558433954619380,0,1,-3,-1,-4,-5,0,0
1558433954625653,-3,-5,-6,-4,-6,-6,-5,-4
1558433954625653,-2,-1,1,4,11,8,0,2
1558433954640588,0,-1,-6,-5,-5,-3,0,1
1558433954640588,0,1,2,1,-1,-3,-3,-3
1558433954648307,2,4,2,3,0,0,-2,0
1558433954648307,-2,0,-1,-2,-3,-1,-1,-3
1558433954662267,-4,-6,-8,-5,1,1,-3,0
1558433954662267,-1,0,-3,-2,-1,2,0,-2
1558433954670467,-3,-4,0,-6,-6,-3,-3,-2
1558433954670467,2,1,4,3,2,-3,1,1
1558433954679228,2,4,0,0,0,0,0,1
1558433954679228,-4,-8,-5,4,9,6,4,2
1558433954685209,0,-2,4,3,-1,2,3,0
1558433954685209,-1,-1,-1,0,0,-2,-1,0
1558433954700204,0,0,-2,-1,-2,2,6,2
1558433954700204,2,2,3,6,3,-1,1,0
1558433954707148,-2,-1,-4,-6,-5,-8,-7,-5
1558433954707148,0,-1,0,-4,-3,4,0,-3
1558433954722137,-1,3,5,4,4,0,-1,-2
1558433954722137,2,1,6,-1,-1,-5,0,1
1558433954730423,-2,0,-5,-4,-3,0,-4,-3
1558433954730423,-3,-5,-11,-10,-10,-3,-4,-3
1558433954746362,-7,-13,-2,0,1,-4,-4,-3
1558433954746362,1,3,9,0,0,-6,4,4
1558433954753343,2,4,0,4,6,-3,0,2
1558433954753343,-1,0,1,1,-5,-3,-2,-2
1558433954760035,0,2,-4,-9,-14,-7,-6,-1
1558433954760035,-5,-6,-10,0,-4,1,1,-2
1558433954768299,1,6,6,-7,-2,1,5,-1
1558433954768299,-1,0,-8,1,3,2,2,-1
1558433954783939,-4,-14,-4,1,5,6,-1,-5
1558433954783939,-3,-5,-6,-5,-4,-4,-1,-5
1558433954790244,0,-1,4,5,2,2,-2,0
1558433954790244,0,2,3,3,2,-4,-1,2
1558433954806217,1,2,2,-3,-4,-4,1,3
1558433954806217,-1,-1,-8,-4,-6,-5,-7,-2
1558433954807141,-4,-2,2,0,-2,1,-6,-3
1558433954807141,-1,1,0,-2,6,3,-2,-1
1558433954820178,-1,-1,-1,2,0,-5,-5,-2
1558433954820178,3,8,2,-5,-3,-1,-1,-1
1558433954835802,1,-4,-6,-1,-1,2,2,-3
1558433954835802,-2,-9,-2,-2,-5,-10,-8,-2
1558433954842781,-1,-3,1,1,-2,-1,2,-1
1558433954842781,-1,-2,0,4,3,2,0,2
1558433954849761,-1,1,2,-2,-3,-3,-2,-1
1558433954849761,-3,1,-5,-4,-5,0,-2,-3
1558433954865718,-4,-2,-10,-6,-3,-1,-2,-4
1558433954865718,2,5,5,4,6,0,1,3
1558433954866717,-2,-5,0,1,1,-3,-1,1
1558433954866717,-1,-3,-8,-6,-4,-6,-4,0
1558433954879708,1,1,2,1,-1,-2,5,0
1558433954879708,-4,-5,-8,-6,-7,-4,-4,-6
1558433954887676,0,-2,-3,-2,-1,-1,-1,-2
1558433954887676,4,4,6,7,9,1,7,2
1558433954902622,-1,0,-4,-2,-2,1,-6,-3
1558433954902622,-1,-3,0,-2,-2,1,1,2
1558433954909603,-4,-5,4,3,-6,-4,-2,-1
1558433954909603,-2,1,-2,-1,-3,-1,-2,-1
1558433954926005,0,0,-3,-6,-2,-2,-2,-3
1558433954926005,0,0,7,2,-1,0,2,1
1558433954926556,-1,-3,-13,-4,5,7,2,0
1558433954926556,-3,-2,4,0,-2,2,0,0
1558433954939999,-3,-4,1,6,3,-1,-5,0
1558433954939999,-2,0,-6,-8,-6,3,2,-3
1558433954947501,0,2,2,1,-2,-3,0,0
1558433954947501,2,-2,2,4,6,8,4,1
1558433954962464,0,4,6,3,1,0,1,-1
1558433954962464,-1,-1,0,3,1,-4,-4,-2
1558433954970439,0,-2,-2,1,3,4,5,1
1558433954970439,-1,3,-6,-8,-6,-6,-1,-2
1558433954985564,-3,-4,6,0,0,5,0,0
1558433954985564,-4,-4,-7,-2,-3,4,-5,-4
1558433954986398,-1,0,3,1,-4,-7,-6,-4
1558433954986398,-3,-5,-14,-4,-5,1,-4,-4
1558433955000361,2,6,2,1,-3,-4,1,1
1558433955000361,-2,-5,1,2,2,-5,2,1
1558433955007342,2,0,1,0,2,0,-3,0
1558433955007342,0,-1,3,0,-4,2,-1,-1
1558433955022300,1,-4,-8,0,4,6,8,1
1558433955022300,1,1,-5,-4,-5,-3,-7,-3
1558433955030279,1,3,3,3,1,-1,3,4
1558433955030279,1,1,3,-5,1,3,7,5
1558433955046248,1,5,1,0,-7,-11,-5,-3
1558433955046248,-1,0,-5,-4,1,-4,-2,-1
1558433955046248,-8,-14,-5,-3,-1,-3,-3,-2
1558433955046248,-1,-2,-1,2,-4,-1,-3,-2
1558433955060199,-4,1,2,-2,-3,2,-6,-5
1558433955060199,4,7,-4,-1,8,-2,5,5
1558433955067342,-3,-5,-6,-5,-4,-1,-5,-1
1558433955067342,-3,-4,0,0,-4,-1,-4,-4
1558433955083140,-2,-4,2,1,5,6,-1,-1
1558433955083140,3,1,3,3,5,7,6,2
1558433955090118,-2,0,-8,-5,-5,-1,-2,-8
1558433955090118,-2,0,-1,-4,-3,0,0,1
1558433955106342,-2,-2,10,5,-1,-1,-3,-1
1558433955106342,-2,-2,-2,-1,-2,-2,-3,-2
1558433955106342,-2,4,-2,1,1,0,-1,0
1558433955106342,-1,3,4,-2,-5,-4,-7,-4
1558433955120039,-1,-6,-2,-3,-2,-3,1,-1
1558433955120039,0,0,6,4,8,4,4,2
1558433955127023,1,2,-1,3,1,-3,0,-1
1558433955127023,-1,0,-4,-3,-3,-4,-2,-3
1558433955141981,0,0,-12,-5,-2,-4,-2,0
1558433955141981,-5,-13,-5,-4,-7,-2,-4,-4
1558433955149962,2,6,22,11,3,-3,-1,1
1558433955149962,-2,-5,-21,-13,-2,-2,-3,-1
1558433955165924,0,-3,-11,-3,-1,0,2,2
1558433955165924,-3,-5,-9,-6,-6,-7,-6,-3
1558433955165924,-4,-6,-17,-9,-10,-5,-6,-4
1558433955165924,0,1,11,6,6,3,1,2
1558433955179882,-1,-5,-4,-1,6,5,3,2
1558433955179882,-1,0,5,-1,-1,-3,2,0
1558433955187858,-1,-6,0,3,2,0,3,3
1558433955187858,-2,2,2,1,1,1,-2,-5
1558433955202819,-2,-2,-11,-6,-5,-4,-6,-2
1558433955202819,-4,-1,19,5,0,6,-4,-8
1558433955209801,4,10,-6,3,4,-1,3,3
1558433955209801,-5,-12,-20,-11,-6,-7,-2,-2
1558433955225757,-1,1,14,6,2,-1,3,0
1558433955225757,-3,-2,-7,-7,-9,-7,-5,-3
1558433955226756,-1,-3,5,-8,-9,-1,-7,-3
1558433955226756,2,4,9,11,5,-3,0,2
1558433955239879,-1,1,1,-4,-2,0,0,-1
1558433955239879,-3,-5,-11,1,-1,-5,2,0
1558433955247850,0,0,-1,-1,3,7,2,-2
1558433955247850,0,0,11,11,2,5,3,1
1558433955262659,-3,-6,-10,-13,-6,-5,-3,-3
1558433955262659,3,6,10,3,2,-2,-2,1
1558433955269638,0,-2,5,-5,-9,-6,-2,-3
1558433955269638,-2,-6,-12,-5,-3,1,-1,-1
1558433955285597,0,1,10,3,-1,-5,-2,1
1558433955285597,-3,-1,-3,-1,1,7,4,1
1558433955286594,-1,-1,-6,-1,-6,-3,-6,-2
1558433955286594,-1,0,5,1,-1,2,2,2
1558433955301553,2,6,5,3,1,0,-2,0
1558433955301553,2,3,-4,4,2,1,-7,1
1558433955307537,-2,-5,-3,-10,-4,2,3,0
1558433955307537,1,-4,-3,-4,-7,-8,-2,1
1558433955322657,1,0,8,6,1,6,4,1
1558433955322657,1,5,-8,-3,-3,-2,-1,1
1558433955330477,-2,-11,-9,-3,-1,-6,-7,-2
1558433955330477,1,2,4,3,6,4,-1,-2
1558433955345436,-1,-2,-3,-3,4,5,10,3
1558433955345436,1,5,9,5,1,-3,-1,-2
1558433955346434,1,-2,-8,-3,-3,-3,0,-2
1558433955346434,0,-5,-3,-6,-3,-3,-2,-3
1558433955361394,0,-1,-3,-3,-5,-7,-8,-3
1558433955361394,-2,-3,0,-2,-2,-4,-3,-3
1558433955367591,0,-2,3,-5,0,3,0,3
1558433955367591,-4,0,1,0,-1,2,7,-1
1558433955382337,0,3,-1,0,2,-3,-4,-3
1558433955382337,-4,-4,0,-3,-8,-5,-5,-2
1558433955390317,-2,1,-3,1,-5,-7,-7,-5
1558433955390317,0,2,0,0,2,4,0,1
1558433955407272,-1,-3,-4,-2,-6,-5,-5,-4
1558433955407272,1,0,-3,-2,4,4,4,1
1558433955408268,-4,-1,3,5,4,2,2,-3
1558433955408268,-1,-3,-5,-7,-2,-2,-7,-4
1558433955421234,-1,1,-2,-3,-2,3,6,1
1558433955421234,3,6,10,2,0,-3,-2,1
1558433955427223,-4,-9,2,2,5,7,0,0
1558433955427223,0,3,-3,2,1,-5,1,1
1558433955442461,-3,-6,-8,-5,-7,-4,-4,-1
1558433955442461,-1,-7,-4,-4,-4,-3,-2,-2
1558433955458287,-1,2,-7,-4,4,5,4,-3
1558433955458287,2,1,11,6,2,-3,-4,-1
1558433955465269,1,0,-3,3,1,-1,-4,0
1558433955465269,1,2,-5,0,1,0,2,0
1558433955472097,2,3,6,0,-3,-3,-1,-1
1558433955472097,-1,0,6,1,-3,-2,1,-1
1558433955481075,-3,-3,-3,1,-2,-4,-2,-3
1558433955481075,0,-3,0,-2,4,2,-2,1
1558433955487213,0,0,0,-1,-4,-4,0,1
1558433955487213,-3,-1,-6,-6,-2,-2,-4,-2
1558433955503016,0,-1,-1,2,2,0,-1,-2
1558433955503016,-3,-5,0,0,-3,-4,4,-1
1558433955509996,-1,2,8,4,1,1,1,-2
1558433955509996,-2,-1,-14,-12,-7,-5,-4,1
1558433955524957,-4,-2,2,-3,-2,-2,-2,-3
1558433955524957,-4,-8,0,-4,-3,-2,-2,-4
1558433955532936,0,2,-11,5,5,3,4,2
1558433955532936,-1,-3,2,3,1,3,1,1
1558433955540914,-3,-4,-3,-3,-4,2,-1,-2
1558433955540914,-1,1,-3,-2,-4,-12,-7,-2
1558433955547925,3,3,1,0,0,-5,-1,4
1558433955547925,0,-2,6,8,-2,-4,2,-2
1558433955562856,-1,3,-7,-6,5,5,4,0
1558433955562856,-3,-3,-4,-4,-4,0,-9,-6
1558433955569865,-2,-1,-2,-3,-4,-1,-2,-4
1558433955569865,-1,-1,-1,1,-2,-3,2,2
1558433955585088,2,1,2,1,-2,-5,-2,1
1558433955585088,-3,-1,-2,2,2,7,0,-1
1558433955592788,-3,-4,-2,-4,-1,0,-4,-2
1558433955592788,-2,-3,-2,-4,0,-1,-2,-2
1558433955601751,0,0,3,2,2,-2,1,0
1558433955601751,-1,0,-3,0,-4,-1,-1,-2
1558433955607735,-1,-1,1,2,3,2,-4,0
1558433955607735,-2,-1,-5,-10,-12,-8,-5,-4
1558433955622696,0,-3,0,7,7,7,3,2
1558433955622696,-3,-2,-2,-9,-6,-4,-5,-4
1558433955629676,-1,-1,-1,2,3,-7,4,3
1558433955629676,-2,-2,-1,0,1,-2,-4,-2
1558433955644830,0,-1,0,1,-7,-5,-3,-1
1558433955644830,0,1,0,-4,-1,1,1,1
1558433955652808,-3,0,-9,-3,-2,-1,-2,-3
1558433955652808,-1,1,4,6,6,7,0,-1
1558433955667767,0,-4,-8,-7,-7,-1,-3,-1
1558433955667767,-3,0,3,1,-4,-5,-3,-1
1558433955668769,-2,-4,-8,-5,-3,-3,0,-1
1558433955668769,1,0,2,3,2,1,-2,2
1558433955682727,-4,-1,-2,-9,-6,-5,-3,-4
1558433955682727,-3,-3,-4,-1,0,4,-4,1
1558433955689999,-2,0,-3,-3,-5,3,8,0
1558433955689999,2,4,5,6,10,6,1,0
1558433955704667,-2,-3,1,0,2,2,-6,-1
1558433955704667,1,1,6,6,2,-13,4,3
1558433955712648,-1,-2,-3,-4,-3,-7,-4,-4
1558433955712648,1,1,-2,-1,-6,3,2,-3
1558433955727609,0,-1,0,-3,-5,-4,-1,-1
1558433955727609,-1,-2,-2,4,7,5,2,1
1558433955728604,1,1,7,-3,-6,-5,-2,0
1558433955728604,0,-4,-1,-2,-2,-3,1,1
1558433955742568,0,0,-3,0,2,-1,-2,0
1558433955742568,0,0,-3,-4,-5,0,-2,-1
1558433955749549,-1,2,16,9,12,18,8,4
1558433955749549,1,1,-5,-3,5,6,-2,0
1558433955765646,-5,-6,-11,-5,-5,-4,2,-1
1558433955765646,0,-3,-11,-11,-10,-13,-4,-3
1558433955772485,-1,2,2,5,-1,-6,-9,-3
1558433955772485,-2,4,10,1,-3,-1,-4,-2
1558433955788742,-1,-7,1,1,2,4,3,2
1558433955788742,-3,-5,-9,2,12,7,5,1
1558433955788742,2,-1,0,-3,-6,-6,-3,-2
1558433955788742,0,-5,-3,-4,-3,-6,0,-1
1558433955802409,0,3,8,2,-3,-4,-4,-2
1558433955802409,-2,-7,-9,-12,-7,3,2,-1
1558433955810391,2,0,3,5,12,8,5,3
1558433955810391,-4,-6,-9,2,-4,1,-3,-3
1558433955825351,0,2,3,1,-3,-2,-3,-1
1558433955825351,3,7,1,5,5,2,1,0
1558433955832326,-4,-7,-6,-3,-4,-2,-6,-3
1558433955832326,0,4,0,-1,-4,-12,3,-1
1558433955848335,1,2,7,13,7,7,2,-1
1558433955848335,-4,-8,-8,-15,-5,4,-5,-4
1558433955849280,0,1,9,7,-7,-10,-3,1
1558433955849280,2,1,6,-8,1,5,-1,1
1558433955862246,-1,-5,-24,-16,-3,-6,-3,-2
1558433955862246,1,1,15,15,8,8,5,-1
1558433955870225,-1,0,-11,-4,-3,-8,-9,-3
1558433955870225,-2,-1,-2,-2,-4,-4,4,-2
1558433955885194,2,9,14,10,9,5,3,3
1558433955885194,1,2,7,7,2,-2,0,2
1558433955892166,-4,-5,-16,-17,-14,-12,-10,-6
1558433955892166,-2,-2,-1,3,4,3,3,2
1558433955908123,-6,-14,-3,-5,-3,-1,-2,-2
1558433955908123,2,3,5,1,-2,0,2,1
1558433955909120,0,2,11,6,5,7,0,-2
1558433955909120,-1,5,-9,-5,-4,-15,-11,-5
1558433955922088,-3,-12,-23,-13,-12,-9,-3,-3
1558433955922088,0,1,9,11,5,2,-1,2
1558433955930065,-1,-3,-9,-15,-7,-2,1,0
1558433955930065,0,-3,3,4,3,3,-1,-2
1558433955945025,0,2,4,-2,-7,-6,-3,-2
1558433955945025,0,-2,-8,-2,6,7,4,-1
1558433955952006,0,-3,-3,1,2,5,-1,1
1558433955952006,-4,-3,12,3,-1,3,3,0
1558433955967967,1,2,-3,4,-4,-8,-6,-3
1558433955967967,-5,-3,-8,-7,-5,-4,-1,-5
1558433955968961,-1,-3,2,3,13,11,4,0
1558433955968961,1,-2,3,5,10,8,3,4
1558433955981927,1,4,3,-7,-9,-4,-4,-2
1558433955981927,-3,-2,-12,-9,-6,-2,-3,-1
1558433955989910,-4,-4,-3,2,-8,-6,-4,-3
1558433955989910,-3,-2,-4,-4,-4,-4,-2,-3
1558433956004878,2,6,18,11,14,5,8,5
1558433956004878,-2,2,-3,-1,-4,-4,-9,-5
1558433956012843,-3,-10,-15,-9,-9,0,0,-1
1558433956012843,-2,-2,-8,0,3,3,1,-1
1558433956027804,1,-1,8,2,-2,5,4,2
1558433956027804,3,3,3,2,-3,-7,-1,1
1558433956028800,0,-1,-8,-2,-6,-1,-1,-2
1558433956028800,0,1,3,-14,0,3,-3,0
1558433956042763,-3,-6,-19,-7,8,6,3,-2
1558433956042763,2,2,12,6,-6,-8,-2,-1
1558433956049745,-2,-1,-6,-7,-3,-1,-1,-3
1558433956049745,-4,-7,-10,-4,-3,2,0,-3
1558433956064706,2,4,8,4,4,1,-2,0
1558433956064706,-4,-4,2,1,-3,1,-2,-1
1558433956072685,1,3,6,2,-1,-9,-2,1
1558433956072685,-1,-6,-10,-4,-5,-6,-4,-3
1558433956087890,-2,2,2,2,-1,1,-6,-3
1558433956087890,-3,-3,-5,-6,-4,-3,1,-1
1558433956088640,-5,1,8,6,1,1,-3,-4
1558433956088640,0,-6,-2,2,4,4,7,2
1558433956102771,1,-2,2,-1,-1,-5,3,1
1558433956102771,3,-1,-8,-3,-1,0,1,1
1558433956109586,2,7,7,2,1,2,-2,-2
1558433956109586,-3,-2,-16,-10,-8,-2,-2,-3
1558433956124545,0,1,6,6,-2,-5,-2,0
1558433956124545,-3,-3,-6,-15,-8,1,-2,-3
1558433956132530,-3,-5,1,1,2,-3,2,-1
1558433956132530,-2,1,2,5,-1,-5,1,-2
1558433956148508,-1,1,-4,1,3,-4,-4,-3
1558433956148508,-1,-1,4,2,-1,1,-1,-1
1558433956148508,-1,-3,-9,-4,-2,2,3,2
1558433956148508,0,-1,4,1,-1,0,-8,-2
1558433956162735,-1,1,5,4,-5,-3,3,-1
1558433956162735,-1,-3,-13,-8,3,5,8,1
1558433956170423,2,1,3,-3,2,-4,-2,-2
1558433956170423,2,3,3,5,0,-1,-4,1
1558433956185382,-3,-4,5,-3,1,2,-3,-2
1558433956185382,-2,0,0,9,-1,-2,-3,-1
1558433956192363,-2,-1,-7,-6,-8,-7,-3,-3
1558433956192363,-3,0,0,-6,-2,-3,2,1
1558433956208322,0,3,7,6,3,0,0,-1
1558433956208322,-4,-8,-19,-10,-8,-8,-4,-4
1558433956208322,-1,3,10,3,3,1,0,-1
1558433956208322,-1,0,-11,-1,-3,0,-3,-2
1558433956222283,-4,-9,-5,-9,-5,-3,-3,-2
1558433956222283,4,5,6,6,9,5,7,3
1558433956230263,1,2,6,-2,3,0,0,-1
1558433956230263,-3,-6,-3,-6,-11,-1,-6,-4
1558433956245222,-1,-4,-3,1,-3,2,2,1
1558433956245222,0,-1,-2,2,0,-5,-1,2
1558433956252205,-1,0,1,-1,0,0,0,1
1558433956252205,-2,-5,-6,-1,3,1,-1,-1
1558433956268163,0,12,15,1,3,3,-5,-1
1558433956268163,-8,-8,-18,-12,-16,-18,-13,-7
1558433956269158,1,-4,7,10,8,4,8,3
1558433956269158,0,5,6,8,3,0,0,1
1558433956282393,-2,-5,-15,-26,-11,-2,-1,-2
1558433956282393,0,4,15,9,4,0,-4,-2
1558433956290327,-2,-2,-5,-6,-8,1,-5,-3
1558433956290327,-1,-1,-2,2,3,1,2,1
1558433956305062,-2,-1,-13,-1,-3,-9,-3,-2
1558433956305062,1,1,3,-2,-3,4,3,-1
1558433956313129,0,-2,-3,-2,-1,-1,-2,-1
1558433956313129,0,2,6,4,1,-1,2,2
