timestamp,emg1,emg2,emg3,emg4,emg5,emg6,emg7,emg8
1558433982488296,1,3,9,1,-1,1,-1,-1
1558433982488296,1,1,3,-2,-5,-6,-3,-1
1558433982489292,-8,-7,-22,-14,-10,-3,-6,-6
1558433982489292,1,2,4,8,7,9,4,1
1558433982490289,-6,-5,9,8,0,-10,0,0
1558433982490289,-2,-2,-24,-25,-9,-6,-2,-2
1558433982491287,5,10,18,11,9,7,5,3
1558433982491287,-8,-16,-8,-7,-4,-8,-2,-1
1558433982502256,-1,1,-2,1,-4,0,-4,-3
1558433982502256,4,0,10,8,5,9,3,0
1558433982511232,3,-1,-4,-1,-8,-10,-5,-3
1558433982511232,-2,-2,-3,0,3,-3,0,2
1558433982517217,0,-5,-1,0,6,7,5,1
1558433982517217,-4,1,2,3,-2,-3,-4,-1
1558433982532177,-1,-1,2,-4,-6,-5,-3,0
1558433982532177,3,7,5,4,-1,-6,0,-1
1558433982540156,-4,-13,-23,-15,-11,-4,-7,-6
1558433982540156,1,3,1,3,0,3,0,1
1558433982547137,-9,-1,23,7,7,5,3,1
1558433982547137,3,5,-9,1,-1,-5,-3,-1
1558433982571073,-2,-2,-4,-1,-3,-2,-5,-3
1558433982571073,-2,-7,-3,5,4,0,2,-1
1558433982571073,1,-2,4,1,5,1,0,-3
1558433982571073,-1,4,-3,2,-2,1,-1,0
1558433982617948,-9,-6,-3,-1,-4,0,-2,-4
1558433982617948,-4,-11,-2,2,-3,-6,2,-1
1558433982617948,-1,-1,1,-2,-3,-2,-4,-3
1558433982617948,-1,-1,1,-1,5,8,3,1
1558433982618945,4,4,2,7,4,3,3,2
1558433982618945,-3,0,-6,-4,-2,-1,-5,-1
1558433982621938,-2,1,2,-1,-5,-6,1,0
1558433982621938,1,-3,4,0,-4,-6,-3,-1
1558433982629916,-4,-4,-15,-7,-1,3,-1,0
1558433982629916,-2,0,0,-4,-1,-2,-4,0
1558433982636896,5,0,0,1,1,1,0,0
1558433982636896,-12,-2,7,1,-8,-10,-7,-1
1558433982643879,2,-6,2,1,4,8,3,-1
1558433982643879,3,1,0,2,5,3,-2,2
1558433982658838,-1,0,5,5,6,7,8,3
1558433982658838,2,2,-17,-12,-7,-3,6,-2
1558433982666816,2,5,5,-3,-8,-12,-7,-1
1558433982666816,-9,-8,-4,-1,0,9,2,-2
1558433982681777,-3,-3,0,11,9,-3,3,1
1558433982681777,1,-2,2,4,8,11,4,0
1558433982689755,-2,-3,-12,-8,-7,-7,0,-3
1558433982689755,4,5,4,-1,-4,3,-3,-3
1558433982696736,-2,3,-2,-8,-6,-10,-6,-2
1558433982696736,-1,3,2,2,-2,-1,-2,-3
1558433982703719,0,-9,-3,3,1,2,0,-1
1558433982703719,4,4,3,-7,-5,-3,-1,-1
1558433982718679,-5,-5,-2,-5,0,4,-5,-2
1558433982718679,-2,-6,-11,-5,-5,-6,-1,-2
1558433982726657,-1,1,4,1,1,-2,-4,-4
1558433982726657,2,2,-1,-2,-4,-2,1,0
1558433982741618,-2,-1,-1,-2,-3,-4,-1,-2
1558433982741618,1,1,4,2,0,2,-2,-1
1558433982749596,-1,-2,0,-4,-4,-7,-2,-1
1558433982749596,-5,-4,-8,-1,3,1,1,-1
1558433982756576,1,-2,-9,-5,2,4,-1,0
1558433982756576,-1,-2,1,1,-2,-2,-3,0
1558433982764560,5,2,12,3,0,-3,-6,0
1558433982764560,1,1,-8,-3,2,-1,1,-2
1558433982779528,-2,-2,0,0,-4,-1,-1,-1
1558433982779528,1,9,-7,-4,-4,-6,-5,0
1558433982786497,-3,-1,3,1,0,4,2,2
1558433982786497,-7,-7,-3,4,1,-10,-5,-3
1558433982801457,-2,2,-5,-2,-2,4,-5,-5
1558433982801457,6,3,-1,-2,4,4,1,1
1558433982809437,-11,-13,1,1,-2,-2,3,-1
1558433982809437,1,5,4,-2,-10,-8,-6,0
1558433982816418,-5,-6,-12,1,5,7,4,-1
1558433982816418,-1,2,5,-3,-1,-1,2,-1
1558433982824396,2,3,-6,-5,-5,-3,-2,-2
1558433982824396,-1,-4,6,2,2,4,-4,0
1558433982839355,-2,-2,-3,-4,-8,-8,-3,0
1558433982839355,-2,-2,0,1,-5,0,-2,-3
1558433982846336,0,3,-11,-1,4,-3,-4,-2
1558433982846336,-1,-3,9,4,-1,-6,3,2
1558433982861297,1,2,4,0,-1,-2,-3,-1
1558433982861297,-4,-10,-2,-2,0,1,-1,-2
1558433982870273,-2,2,-1,-3,-8,-7,-2,-2
1558433982870273,3,4,1,4,3,6,1,0
1558433982876258,2,1,1,-5,0,4,0,0
1558433982876258,1,2,8,9,2,-4,-2,2
1558433982884238,0,-12,-20,-9,-7,-6,-5,-4
1558433982884238,-2,1,8,-1,-4,0,-4,-5
1558433982899195,3,2,4,2,5,-1,7,2
1558433982899195,0,1,-4,1,-4,-4,-5,-3
1558433982906177,4,14,8,6,7,4,4,2
1558433982906177,-4,-11,-9,2,-4,-2,-1,-2
1558433982921137,-9,-16,-9,-12,-12,-8,-6,-3
1558433982921137,3,5,6,-1,-1,-4,-5,-3
1558433982930112,-1,-2,6,6,9,6,7,3
1558433982930112,1,1,-5,-3,3,0,1,-1
1558433982936096,2,3,7,9,-4,0,-4,-1
1558433982936096,-4,-10,-12,-13,-8,-3,-2,-4
1558433982944075,-1,0,0,-2,-1,1,-4,-3
1558433982944075,-2,-2,1,-3,-3,-7,-4,-1
1558433982959035,4,3,1,4,8,4,8,2
1558433982959035,-3,-4,0,5,8,6,4,-1
1558433982967015,-1,1,-5,-8,-11,-12,-4,-5
1558433982967015,1,4,2,-1,-4,-6,1,0
1558433982981973,1,-1,0,-1,9,11,3,2
1558433982981973,-3,-1,-5,0,2,3,-2,-3
1558433982989955,-4,1,5,3,-3,2,-4,-3
1558433982989955,0,-4,-4,-3,1,3,3,1
1558433982996934,-11,-7,-10,-14,-11,-7,-7,-4
1558433982996934,1,-3,0,5,5,-2,-3,0
1558433983011893,-1,1,7,2,-2,-7,-2,0
1558433983011893,5,11,-5,2,3,2,5,1
1558433983019008,1,-12,-2,-5,-5,-5,-6,-1
1558433983019008,-2,-2,10,4,2,6,5,1
1558433983026854,-3,-9,-26,-17,-6,-8,0,1
1558433983026854,-1,1,-6,-2,-1,-2,-8,-2
1558433983041815,-1,-4,-2,-3,-6,-5,-2,-2
1558433983041815,1,0,2,0,1,0,0,2
1558433983057794,4,2,9,7,5,5,2,1
1558433983057794,-2,1,7,-1,-1,1,-2,-1
1558433983059766,-3,0,-8,1,-4,-6,-5,-3
1558433983059766,-2,-4,-6,-10,-7,-6,-2,-1
1558433983080710,0,2,-3,1,3,5,2,1
1558433983080710,1,2,8,-3,2,7,1,-2
1558433983081708,0,-1,-11,-2,-1,-7,-2,-1
1558433983081708,-10,-14,-4,2,1,1,0,0
1558433983086694,-7,-7,2,-6,-4,1,-6,-3
1558433983086694,-3,-4,-4,-2,-5,-7,-1,-2
1558433983101654,7,15,17,5,-2,-1,-3,-1
1558433983101654,-1,-3,-11,-2,2,1,9,1
1558433983109633,3,2,1,0,-1,-6,-1,0
1558433983109633,1,-1,3,-2,0,2,-4,-4
1558433983116614,-4,-5,-9,2,-1,-2,-1,-3
1558433983116614,0,6,2,-1,-2,-2,-4,-1
1558433983132571,0,-3,14,4,3,5,-1,1
1558433983132571,-2,-6,-19,0,0,-2,2,-1
1558433983138556,-1,-3,-9,-4,5,5,2,0
1558433983138556,0,3,5,2,-4,-3,-8,-3
1558433983146533,-4,-5,-4,-10,-8,0,4,-2
1558433983146533,-2,-1,2,1,-4,0,-4,0
1558433983161495,3,3,8,4,4,6,3,1
1558433983161495,-6,-2,-14,-3,-3,-5,-1,0
1558433983169473,1,-1,9,8,7,4,5,2
1558433983169473,-5,-7,-3,-7,-7,-8,-5,-2
1558433983176453,-2,-2,-2,-5,-3,-7,-9,-3
1558433983176453,3,3,-1,0,4,6,2,1
1558433983192411,0,2,-6,1,-1,-5,-6,-3
1558433983192411,-4,-5,5,-10,-3,3,3,-1
1558433983199394,0,-1,-4,2,2,-3,1,-1
1558433983199394,-4,1,2,-2,-4,-3,-5,-6
1558433983206374,-6,-9,-10,-5,-2,2,-1,-4
1558433983206374,2,6,6,5,3,2,2,1
1558433983221335,-5,-2,-4,1,1,7,3,-2
1558433983221335,0,-7,2,-2,-5,-4,1,-1
1558433983229314,3,3,4,3,-1,-2,0,-1
1558433983229314,1,4,-1,2,4,6,0,0
1558433983236294,-1,-6,-6,-10,-12,-10,-5,-3
1558433983236294,-2,-3,-3,-6,-4,-7,-5,-1
1558433983252251,3,2,1,5,4,3,-1,1
1558433983252251,1,2,3,-2,0,0,1,0
1558433983267215,2,2,5,4,6,6,1,1
1558433983267215,0,-1,-3,-1,-1,2,-3,-2
1558433983268210,2,1,4,3,-4,-7,-2,1
1558433983268210,2,2,-6,-2,-5,-6,3,1
1558433983282172,-10,-10,5,1,-1,-7,-2,-1
1558433983282172,-1,-4,-13,-11,-5,0,-2,-3
1558433983290150,1,0,-6,0,3,6,1,-1
1558433983290150,-2,-3,-2,8,10,2,2,2
1558433983296134,0,1,-6,-13,-6,-2,-1,0
1558433983296134,1,1,8,5,-3,-1,-4,-1
1558433983312090,-4,2,-2,-5,-7,-5,-1,-4
1558433983312090,0,3,2,4,5,6,3,1
1558433983319072,-2,-7,-6,-4,-1,-1,0,-1
1558433983319072,-3,-8,-1,-1,-1,-2,3,1
1558433983326054,1,0,-8,-6,-1,2,-6,-2
1558433983326054,0,-3,1,1,-5,-6,0,1
1558433983342012,4,8,9,5,-3,-5,3,1
1558433983342012,6,8,2,3,6,3,3,1
1558433983349990,1,-2,3,-5,3,2,-3,2
1558433983349990,-2,0,-6,-1,-5,-6,-6,-3
1558433983356971,-3,-10,-10,-4,4,5,-1,-4
1558433983356971,1,-2,2,2,-1,-5,-2,0
1558433983371931,-1,-1,-2,2,3,2,6,-1
1558433983371931,1,0,2,0,2,0,-2,0
1558433983378912,4,8,5,-3,-8,-7,-7,-2
1558433983378912,-2,-1,4,5,2,4,-1,-1
1558433983386896,-1,3,3,1,3,4,4,2
1558433983386896,-4,-13,-13,-5,-7,-3,-5,-4
1558433983401855,-2,1,5,4,3,2,0,-1
1558433983401855,-5,-4,-4,-5,-5,-3,-4,0
1558433983409829,-1,2,10,6,0,1,5,1
1558433983409829,-4,-4,-31,-18,-5,-1,-3,-5
1558433983416834,-4,-2,3,6,-5,-5,-5,-2
1558433983416834,-2,-1,1,-2,-2,-2,-2,-1
1558433983432770,0,-3,3,-2,-5,-1,-1,0
1558433983432770,-1,2,8,5,2,1,0,0
1558433983438754,0,0,-1,0,0,4,-1,1
1558433983438754,-2,1,-3,-2,1,3,3,-4
1558433983446740,0,-4,-2,-2,-6,-11,-7,-2
1558433983446740,-6,0,14,1,-3,0,3,-1
1558433983461693,-3,-7,-19,-5,-5,-2,-2,-1
1558433983461693,7,7,5,4,7,2,2,2
1558433983469671,-10,-11,-13,-4,-4,-2,-4,-5
1558433983469671,-2,-5,4,2,1,-2,-1,-1
1558433983483636,3,2,0,-5,3,4,1,-1
1558433983483636,-6,-5,0,-1,-6,-4,-4,-5
1558433983492610,7,7,2,0,2,-2,-2,1
1558433983492610,-2,5,-4,-3,-3,-3,-5,-4
1558433983499592,-5,-10,5,3,-1,1,5,0
1558433983499592,3,3,9,5,7,3,2,3
1558433983506573,-3,-5,-21,-11,-7,-4,-1,-2
1558433983506573,-1,-3,1,0,-1,-7,-3,1
1558433983523676,-1,6,-1,-3,0,-2,-2,-1
1558433983523676,1,0,0,-5,-3,-5,-3,-1
1558433983529510,-1,-2,-7,0,-1,2,0,-2
1558433983529510,0,-2,0,1,-7,-3,-1,2
1558433983536491,-6,-7,7,1,1,-1,-1,-2
1558433983536491,-1,-2,-10,-1,3,-2,4,4
1558433983552452,2,-1,-3,-3,3,4,-1,-1
1558433983552452,2,-1,-2,0,1,3,5,-1
1558433983559433,1,1,5,-1,-5,-3,-4,-1
1558433983559433,0,3,2,3,-1,1,0,0
1558433983566428,-6,-4,-4,-4,-2,-3,-3,-2
1558433983566428,-2,-3,-6,-3,-4,2,-2,-2
1558433983581370,-2,1,-1,-1,-5,-7,-1,-2
1558433983581370,-3,-5,4,1,-1,-4,-3,-2
1558433983589349,5,6,4,4,12,8,8,4
1558433983589349,0,-2,2,-1,3,4,1,1
1558433983604314,-3,2,-5,1,-2,0,-2,-1
1558433983604314,-3,-6,-6,-1,-2,-3,-5,-4
1558433983612290,-2,-3,0,-10,-10,-10,-4,-3
1558433983612290,-2,-3,3,3,3,-3,-3,0
1558433983627254,-1,-2,0,-5,-1,-2,-2,-1
1558433983627254,2,3,3,6,-5,-2,-1,-3
1558433983628249,-1,4,-3,-4,0,2,0,0
1558433983628249,-1,-4,-2,1,9,5,5,1
1558433983641212,4,3,-2,2,3,0,-1,2
1558433983641212,1,-3,-4,-4,-5,-3,-3,-1
1558433983650187,-1,-1,3,3,-6,-7,-5,-2
1558433983650187,1,3,-1,-6,-10,-8,-7,-3
1558433983664156,6,8,18,10,10,12,6,3
1558433983664156,-3,0,-11,-4,-3,-1,-2,-3
1558433983672132,-5,-17,-25,-15,-8,-2,-4,-3
1558433983672132,2,10,4,1,6,0,4,1
1558433983687092,-4,-11,-3,-2,0,3,-2,-1
1558433983687092,1,3,7,1,1,-6,2,2
1558433983688090,-1,2,8,7,3,0,-1,-1
1558433983688090,-3,-3,-7,-2,-4,-4,-4,-2
1558433983702050,-2,3,1,-1,-4,-4,-3,0
1558433983702050,0,2,5,-1,-1,3,-4,-1
1558433983710031,0,2,-1,1,-4,-2,-3,-2
1558433983710031,-7,-8,-8,-7,-7,3,2,-2
1558433983723992,-1,-3,-20,-9,-1,-11,1,0
1558433983723992,-2,-4,-5,-3,2,3,1,0
1558433983731975,-6,-8,5,5,4,3,-2,-1
1558433983731975,2,3,11,2,-2,0,-4,-3
1558433983746932,-1,1,-3,-3,-1,0,1,-1
1558433983746932,0,-3,-8,-4,-3,-5,-3,-1
1558433983755038,0,2,2,-5,-3,1,-1,0
1558433983755038,3,3,3,6,-1,-4,-4,1
1558433983761892,-2,1,3,0,6,6,2,-2
1558433983761892,-9,-22,-18,-12,-2,-4,2,-3
1558433983769882,-3,-1,-11,4,-2,-4,2,-1
1558433983769882,-1,-5,-3,-9,-2,-2,-3,-3
1558433983783831,0,2,-4,-3,-7,-3,-4,-4
1558433983783831,0,9,8,-1,-6,-1,-6,-2
1558433983791809,-1,-6,10,7,10,8,8,5
1558433983791809,0,-1,0,1,5,0,3,2
1558433983807766,-2,-2,-5,2,-1,0,-5,-3
1558433983807766,2,3,5,1,3,5,0,0
1558433983807766,0,5,-4,-3,-5,-4,-5,-4
1558433983807766,-2,-8,-11,-8,-4,-2,1,-1
1558433983821732,-3,-9,5,3,9,10,4,1
1558433983821732,-3,-2,-5,-8,-9,-9,-5,-3
1558433983829712,-1,3,-6,0,1,3,-1,-3
1558433983829712,-2,-1,3,1,-1,0,3,-1
1558433983843670,-1,-8,-1,-4,-7,-1,-1,-6
1558433983843670,-2,-3,-10,1,-4,-4,-2,0
1558433983852648,0,3,11,-6,-2,0,2,-1
1558433983852648,-2,-1,-9,-7,-3,-5,-4,-1
1558433983867608,-1,1,-1,-1,-3,-3,-3,0
1558433983867608,0,0,10,5,4,5,1,-2
1558433983867608,-1,-4,-7,-2,-4,-11,-7,-4
1558433983867608,3,3,-1,3,10,9,1,0
1558433983882566,0,1,3,-1,-2,-4,-1,1
1558433983882566,0,2,1,-2,-4,-6,-3,-3
1558433983889548,-1,-3,2,-1,-9,-7,-9,-1
1558433983889548,3,2,6,8,12,9,12,5
1558433983904508,-1,-2,-3,1,-4,-9,-5,-2
1558433983904508,2,4,-15,-5,-2,2,7,2
1558433983912488,-2,-6,-7,-9,-4,-2,-2,-2
1558433983912488,-4,-4,-6,-2,-5,-2,-9,-8
1558433983926448,0,3,4,-2,-2,-8,1,-2
1558433983926448,1,1,12,6,0,1,-2,-4
1558433983934427,0,1,-1,3,5,1,4,2
1558433983934427,-1,-2,-3,0,0,-1,-1,-3
1558433983941409,-3,0,-5,-2,-4,-5,-2,-2
1558433983941409,-2,-5,-8,-5,0,0,-1,0
1558433983949461,2,6,16,8,2,-3,0,1
1558433983949461,-5,-8,-9,-3,-2,-1,-4,-1
1558433983964415,3,2,4,3,5,4,1,3
1558433983964415,-4,-6,-9,-6,-1,1,0,-1
1558433983972394,-2,0,0,-2,-5,0,-7,-5
1558433983972394,-3,6,4,-1,-8,-4,-5,-2
1558433983986360,-1,-9,7,5,6,2,10,5
1558433983986360,4,5,0,3,4,2,1,3
1558433983994335,-12,-12,-2,-1,2,-4,-5,-1
1558433983994335,-3,-8,-3,-9,-12,-6,-4,-4
1558433984001315,2,5,0,-1,-2,0,-4,-3
1558433984001315,0,-4,-5,-7,-5,-4,-5,-4
1558433984009296,3,-1,-6,0,-1,-2,-4,-2
1558433984009296,1,0,5,3,6,-2,6,4
1558433984024254,-1,3,-1,1,-5,-3,-3,-1
1558433984024254,-2,1,7,7,10,3,5,2
1558433984032233,3,4,-2,1,-1,4,-5,-2
1558433984032233,-5,-5,-7,-11,-11,-7,-5,-3
1558433984047198,2,1,2,0,4,1,-1,0
1558433984047198,0,2,-2,-4,-6,-4,-5,-2
1558433984055176,0,-1,7,10,10,4,10,6
1558433984055176,-1,-2,-1,-1,-4,-6,-5,-3
1558433984061160,-4,-3,-23,-10,-2,2,0,-1
1558433984061160,0,4,3,-2,-2,2,0,-1
1558433984069200,-3,-8,1,-3,-3,3,-2,-2
1558433984069200,0,3,9,7,2,6,2,-2
1558433984085231,1,-2,-1,1,-3,-12,-4,3
1558433984085231,-4,-2,0,-1,2,-3,-1,-2
1558433984092074,-1,0,-5,-9,-4,0,3,-2
1558433984092074,0,2,3,3,1,1,-6,0
1558433984107035,-4,3,-4,-5,-1,6,0,-5
1558433984107035,-1,-6,-5,-1,1,2,0,2
1558433984121993,1,-2,1,0,-1,-3,-2,-1
1558433984121993,-2,4,-2,-1,-2,-2,-3,-2
1558433984129971,-1,2,5,3,4,6,0,-3
1558433984129971,0,0,-1,-3,-7,-11,-4,-2
1558433984129971,-3,-1,-1,0,2,3,2,-1
1558433984129971,3,1,-5,1,2,1,2,1
1558433984143934,0,0,3,-2,-1,-1,-3,-1
1558433984143934,-3,-2,4,3,1,6,5,0
1558433984152143,-3,-1,-7,3,-2,-7,0,-1
1558433984152143,-3,-5,-5,-8,-2,-2,-1,-2
1558433984166874,-2,-2,0,-5,-5,-2,-3,-3
1558433984166874,-1,-5,-7,-5,-5,0,-4,-3
1558433984174851,1,3,6,-1,0,1,8,1
1558433984174851,0,0,1,10,3,-2,-1,1
1558433984189844,1,4,4,2,-2,-3,-3,-2
1558433984189844,1,-2,1,0,-1,1,-2,0
1558433984190809,-4,-5,-16,-6,0,5,3,-1
1558433984190809,2,2,3,1,1,-11,-2,1
1558433984204813,-3,-5,-1,-1,0,-4,3,2
1558433984204813,2,6,6,0,-6,-3,-1,-2
1558433984213029,-1,-3,-2,-3,0,5,-3,-1
1558433984213029,1,3,-3,-5,-1,6,1,0
1558433984227067,-5,-4,1,0,-2,3,-2,-4
1558433984227067,-8,-14,-5,0,0,-13,-5,-2
1558433984235004,3,6,6,0,-3,-5,-1,-1
1558433984235004,2,-1,7,9,4,7,5,1
1558433984249906,-3,0,-18,-8,-6,0,-1,-5
1558433984249906,0,3,4,-2,-4,-5,-4,-1
1558433984250653,1,-1,-3,0,6,2,0,2
1558433984250653,0,1,5,1,-1,-3,-3,0
1558433984264816,-4,-6,-11,-5,-8,-7,-8,-2
1558433984264816,-2,4,-2,-1,4,3,6,1
1558433984272672,0,-4,11,13,2,0,2,2
1558433984272672,-5,-8,-17,-20,-12,-6,-4,-4
1558433984286750,1,-2,15,6,2,1,-3,0
1558433984286750,-3,-4,-8,-4,-7,-9,-2,2
1558433984294533,1,7,1,-3,-1,-1,-3,-1
1558433984294533,-4,-5,-5,-4,-4,0,2,-2
1558433984310530,3,0,4,2,-3,-4,0,1
1558433984310530,3,-1,3,5,14,10,7,3
1558433984310530,5,11,15,7,3,0,2,1
1558433984310530,-14,-13,-19,-4,-4,1,-4,-4
1558433984325451,-3,-9,-5,-6,-4,-2,-2,-4
1558433984325451,1,3,1,0,3,3,-3,0
1558433984332653,-3,-2,1,-4,-6,-10,-6,-4
1558433984332653,2,-4,-2,-1,-3,-3,-6,-4
1558433984346603,0,-1,7,6,11,13,10,4
1558433984346603,-4,-6,-12,-5,0,5,0,-2
1558433984354578,-2,-2,-3,-6,-5,-6,-3,-1
1558433984354578,0,4,4,-2,-7,-9,-10,-2
1558433984369338,0,1,-2,3,4,3,8,2
1558433984369338,2,1,-2,1,4,2,1,-1
1558433984370333,0,-3,-9,-7,-7,0,-2,-1
1558433984370333,-4,-3,-1,-2,-1,-4,-3,-1
1558433984384505,-3,-1,2,2,7,-1,-2,-1
1558433984384505,0,3,-2,-1,-3,1,0,-2
1558433984392271,1,3,4,4,0,-1,-4,-1
1558433984392271,-1,-5,-9,-3,-4,-3,-1,-1
1558433984406234,0,1,-2,-5,-6,-3,-6,-2
1558433984406234,1,-5,-4,-1,0,-2,0,-1
1558433984415209,-3,-1,7,3,4,5,0,-2
1558433984415209,5,4,1,0,3,9,-3,1
1558433984430469,-3,-1,-7,2,1,-2,-1,0
1558433984430469,-2,-8,8,-1,-4,-9,-1,3
1558433984430469,0,-5,-6,-3,-3,1,2,1
1558433984430469,3,6,8,5,2,-2,3,0
1558433984453399,2,6,3,-3,-6,-3,-4,-3
1558433984453399,-4,-7,-8,-6,-4,-1,-5,-4
1558433984454107,-4,-4,-2,1,-1,-4,-3,-2
1558433984454107,-1,1,3,2,3,4,6,0
1558433984467383,2,2,-3,4,2,1,0,2
1558433984467383,0,4,7,-2,0,-2,2,3
1558433984475238,-3,-4,-6,-7,-1,0,-6,-5
1558433984475238,-1,-1,0,-1,-3,-5,3,-1
1558433984490009,0,0,1,0,-4,-8,-4,-4
1558433984490009,0,2,0,1,-1,6,0,-2
1558433984490009,-2,0,-4,-1,1,5,-1,-2
1558433984490009,1,2,3,0,1,-12,-2,1
1558433984504243,0,-1,-2,-4,1,-4,-1,1
1558433984504243,1,4,5,7,3,5,2,-1
1558433984512206,-4,-8,-17,-13,-7,-5,-4,-3
1558433984512206,-2,-4,-1,-4,-6,-2,-7,-2
1558433984524947,-2,-3,-5,-5,-5,0,0,-1
1558433984524947,-1,2,1,-3,-7,-6,-5,-2
1558433984535136,-2,1,5,4,0,-4,-1,-2
1558433984535136,0,2,5,6,10,7,3,2
1558433984550111,-2,-2,-6,-7,-7,-5,-2,-1
1558433984550111,-3,-2,-3,0,0,0,0,-1
1558433984550850,0,0,-7,-1,2,-1,0,-1
1558433984550850,-3,-2,-2,-2,-1,-1,-2,-5
1558433984564041,-1,-1,-3,-3,-4,-4,-2,-1
1558433984564041,-3,-3,-1,-2,-6,-6,-6,-4
1558433984572044,1,0,2,0,6,8,12,3
1558433984572044,1,0,-1,0,6,-1,1,0
1558433984587006,-2,-3,0,-4,-5,-2,-4,-2
1558433984587006,-1,0,-2,0,-1,-4,-3,-2
1558433984594975,-2,-1,-3,0,-2,-3,-3,-1
1558433984594975,0,2,16,5,-1,3,1,-2
1558433984609689,-4,-4,-21,-4,-1,-2,-2,-1
1558433984609689,2,2,5,-4,1,5,2,-2
1558433984610687,-9,-3,2,4,3,2,0,-1
1558433984610687,-5,-8,-15,-10,-7,-3,-1,-3
1558433984623651,3,3,9,3,-2,-4,-3,-1
1558433984623651,-3,-2,-2,-1,-1,0,1,-2
1558433984632627,-2,-12,-12,-5,-2,-5,-8,-1
1558433984632627,4,1,7,5,4,4,6,2
1558433984646594,0,2,0,-3,-2,-1,-4,-2
1558433984646594,1,6,2,2,4,4,-1,0
1558433984654569,-1,-5,12,2,-4,-5,0,0
1558433984654569,-4,-8,-5,1,-1,-4,-2,-1
1558433984669953,1,-2,-8,-2,0,0,-2,-2
1558433984669953,-2,2,1,3,-1,0,0,0
1558433984670527,-1,2,-5,-7,-10,-5,-5,-3
1558433984670527,0,-1,-7,0,7,11,8,4
1558433984684865,2,2,16,7,7,0,6,3
1558433984684865,-4,-7,-8,-6,-4,-3,-3,-5
1558433984692880,-1,0,-4,-4,-10,-8,-8,-2
1558433984692880,3,4,6,0,-6,-6,-1,0
1558433984706443,-1,-2,4,2,3,7,3,-2
1558433984706443,-4,-4,-9,0,2,1,-3,0
1558433984715560,3,1,1,-1,0,3,3,0
1558433984715560,-1,1,-5,-1,-5,-9,-1,0
1558433984729632,-2,-2,0,0,4,-3,2,2
1558433984729632,-1,-2,-3,-4,-4,-5,-7,-3
1558433984730388,0,2,5,-1,1,2,3,0
1558433984730388,-2,-3,-6,-2,-3,-3,-3,-5
1558433984744567,-2,-3,-3,-2,-2,1,-2,-1
1558433984744567,0,-1,1,-3,0,-5,-2,-1
1558433984752562,0,1,3,4,2,-2,6,1
1558433984752562,0,0,4,-1,1,2,0,1
1558433984767321,-3,-1,-2,-2,-4,0,-3,-4
1558433984767321,0,-1,-1,-1,-5,-6,-3,1
1558433984775377,0,3,-1,2,1,-1,-4,-4
1558433984775377,-3,-2,-3,-8,-9,-4,-7,-5
1558433984790208,-3,0,-1,1,-2,-1,-1,-2
1558433984790208,-1,-2,-3,2,2,-8,0,3
1558433984790208,1,1,6,3,7,3,1,1
1558433984790208,0,0,-10,-4,3,-1,1,1
1558433984804432,0,-2,6,-4,-1,5,-2,-3
1558433984804432,-4,-4,-3,3,-5,-1,1,-3
1558433984820380,3,1,0,0,2,-5,-3,2
1558433984820380,-1,0,0,-4,-4,-1,0,0
1558433984827298,-1,0,4,3,-1,-1,-5,-2
1558433984827298,1,-1,-13,-2,4,6,7,1
1558433984835086,0,-1,-1,1,2,1,4,2
1558433984835086,-3,-4,-9,-7,-4,-3,-3,-2
1558433984850347,0,0,-1,-3,-3,-4,-2,-3
1558433984850347,-1,2,7,2,-3,1,-5,-3
1558433984850347,-3,-1,-9,-6,-2,7,2,-2
1558433984850347,1,0,8,6,2,0,-2,-1
1558433984872987,1,-1,-3,-2,0,-5,6,3
1558433984872987,1,4,5,1,2,3,-3,-3
1558433984873982,-1,-6,-11,-7,-6,-4,-1,-2
1558433984873982,-11,-8,-2,-3,-6,-4,-4,-3
1558433984896206,1,0,-4,-4,0,5,0,-1
1558433984896206,-6,-11,-1,0,-3,-6,-1,-4
1558433984896206,-4,-8,1,-1,-2,-3,-9,-9
1558433984896206,5,5,4,3,4,4,3,3
1558433984909187,-2,0,3,2,-2,-4,-2,0
1558433984909187,1,2,-8,-6,-7,-6,-1,-1
1558433984926088,3,6,2,3,4,5,3,3
1558433984926088,-2,-3,-8,-4,-8,-11,-9,-3
1558433984926842,-2,-2,-1,4,0,4,0,0
1558433984926842,1,1,-3,-7,-6,-6,-8,-1
1558433984932977,1,-2,-1,4,12,6,11,5
1558433984932977,1,3,5,0,3,6,-2,0
1558433984947082,-2,-3,-5,-7,-8,-5,1,0
1558433984947082,1,-5,3,2,5,4,2,-1
1558433984955766,-2,2,1,0,-3,-5,1,0
1558433984955766,3,0,5,5,4,-1,-2,1
1558433984969848,-4,-7,-9,-5,-2,0,-5,-3
1558433984969848,-11,-11,5,-1,-1,1,1,1
1558433984977958,-2,-3,-22,-10,-5,-6,0,0
1558433984977958,0,-1,4,1,1,-5,3,0
1558433984983692,-2,0,0,-4,-6,-6,1,-2
1558433984983692,1,5,5,0,-1,0,0,0
1558433984992941,2,4,6,5,3,10,0,1
1558433984992941,-2,1,-2,-2,-3,1,0,-1
1558433985006633,-3,-5,-6,-4,-9,-4,-9,-4
1558433985006633,3,1,-2,2,13,7,8,6
1558433985015606,1,4,10,6,0,-2,0,3
1558433985015606,-4,-6,-11,-9,-1,2,-5,-5
1558433985029830,-1,0,0,-2,-4,-3,0,1
1558433985029830,-2,0,-7,-7,-7,-6,-4,-3
1558433985037543,0,-1,10,11,3,-5,-4,-2
1558433985037543,0,-1,2,-4,0,0,-3,1
1558433985052773,-1,0,-7,-3,1,-1,-2,-2
1558433985052773,-5,-10,-2,0,3,4,6,1
1558433985054504,-1,0,1,-2,-3,-5,-5,0
1558433985054504,-1,-2,5,6,4,-1,-1,-3
1558433985066734,3,5,5,-1,-2,-2,-2,0
1558433985066734,0,0,-10,-5,-2,1,-4,-1
1558433985075476,-7,-9,-7,-10,-9,-6,-6,-4
1558433985075476,-1,-2,-10,-4,-6,-7,0,-2
1558433985098648,3,6,10,8,12,8,8,2
1558433985098648,1,1,1,2,0,1,-3,-2
1558433985099384,-3,-4,1,-6,-6,-5,-5,-3
1558433985099384,-1,-1,0,2,-3,2,2,-1
1558433985113343,-4,-7,-4,-1,-1,1,-1,-3
1558433985113343,0,2,1,-1,-2,-5,-5,0
1558433985114341,3,4,-2,-1,5,3,2,3
1558433985114341,0,0,-5,-7,1,4,2,0
1558433985127338,-4,-8,-6,0,-1,-2,-2,-2
1558433985127338,2,4,3,0,-4,-2,-2,-4
1558433985135533,-1,-3,-4,-3,-5,0,-4,-3
1558433985135533,2,5,9,8,3,4,1,1
1558433985149277,3,3,-12,-9,-5,-4,-2,0
1558433985149277,5,7,8,6,-1,3,-1,1
1558433985158222,-6,-8,-12,-9,-4,-2,-3,-3
1558433985158222,3,2,-4,5,9,8,7,4
1558433985173181,-6,-15,2,-3,-4,-11,2,0
1558433985173181,2,4,-7,-7,-4,-1,0,-1
1558433985174179,1,2,3,0,-6,-2,-3,-3
1558433985174179,-2,-1,-1,0,-4,-6,-8,-1
1558433985186178,2,9,9,10,13,10,5,3
1558433985186178,0,-1,-4,-4,-4,-6,0,1
1558433985195122,-3,-4,0,7,4,-1,-2,-3
1558433985195122,-5,-6,-6,-17,-15,-12,-9,-6
1558433985209459,-1,1,3,0,0,0,-1,0
1558433985209459,-4,-4,2,1,1,2,-1,-1
1558433985218061,-1,-1,-12,2,3,4,-3,-1
1558433985218061,-1,0,3,0,-6,-10,-2,-2
1558433985233325,4,6,-5,1,7,7,3,-2
1558433985233325,-4,-9,-9,-13,-11,-5,-5,-5
1558433985234313,0,1,12,5,1,-3,4,4
1558433985234313,-3,-4,-10,0,-1,-1,0,-2
1558433985246985,0,4,-6,-7,-7,0,1,-1
1558433985246985,3,6,2,3,-1,-8,-3,0
1558433985254965,-6,-19,0,-2,1,-1,0,-1
1558433985254965,0,3,8,4,2,-3,-4,-1
1558433985268926,-1,-2,3,7,4,0,-3,-1
1558433985268926,-1,-1,-3,-3,4,2,2,0
1558433985277905,4,8,4,-6,-7,-2,-3,-2
1558433985277905,-5,-4,-11,-5,-2,4,3,-3
1558433985293212,-2,0,-3,-6,-11,-13,-9,-4
1558433985293212,3,3,9,10,11,14,3,0
1558433985293859,4,2,-3,-4,-3,0,-1,1
1558433985293859,-10,-12,-4,-4,-5,-2,-6,-5
1558433985306824,2,-4,-4,1,4,2,1,3
1558433985306824,2,4,6,1,1,-2,4,2
1558433985315800,3,7,6,-2,0,4,1,0
1558433985315800,-2,-8,0,6,2,2,0,2
1558433985329114,-5,-2,-5,-6,-2,0,-5,-3
1558433985329114,-3,-8,-12,-5,-4,-5,-1,-1
1558433985338080,-1,1,-10,-4,-7,-3,-5,-3
1558433985338080,0,-2,7,-5,2,10,9,1
1558433985353072,-2,-6,-2,3,5,-2,2,1
1558433985353072,2,5,5,2,-3,-1,-2,-1
1558433985359058,-4,-3,-9,-3,-4,-8,-6,-5
1558433985359058,-7,-6,-5,-1,0,-3,-2,-1
1558433985366999,3,5,10,7,3,4,-1,0
1558433985366999,-4,-11,-25,-10,-4,-7,-6,-2
1558433985375640,-1,-8,4,1,0,-4,2,2
1558433985375640,6,9,12,7,6,7,5,3
1558433985388914,-4,-1,-3,-6,-6,-1,-3,-5
1558433985388914,-3,-2,1,1,0,-1,-4,2
1558433985397890,0,6,-3,-2,-2,0,-3,-2
1558433985397890,3,-1,-7,-5,-1,-5,-3,0
1558433985412866,5,10,-1,2,-1,-8,-2,1
1558433985412866,-10,-16,8,2,-2,6,3,-1
1558433985419797,-3,-2,-9,-10,-6,-3,2,-4
1558433985419797,5,4,9,8,7,1,1,0
1558433985426504,-2,-2,0,-2,-4,-4,-3,-1
1558433985426504,6,9,-2,0,1,-1,0,-1
1558433985435480,-7,-9,1,0,-2,1,-4,-3
1558433985435480,2,7,-7,-4,-1,-1,-5,-5
1558433985449455,-4,-18,-8,-5,-4,-4,2,-1
1558433985449455,1,1,9,1,2,1,0,-1
1558433985457422,4,1,5,3,2,-2,5,4
1558433985457422,3,8,5,1,-1,1,0,1
1558433985471839,-4,-8,-18,-9,-8,2,0,-1
1558433985471839,-7,-5,-1,-4,-7,-4,-4,-4
1558433985481398,-4,-5,-4,-2,-1,-1,-4,-1
1558433985481398,1,-2,1,1,-2,-5,1,1
1558433985487503,2,8,11,6,5,5,-2,0
1558433985487503,-4,-7,-3,1,1,4,3,-1
1558433985495766,2,0,-8,-8,-3,-2,0,-1
1558433985495766,-3,-1,1,3,0,-5,-2,-2
1558433985509672,-1,-5,-5,-11,-8,-5,-1,-1
1558433985509672,-1,1,2,-1,-5,-2,-8,-4
1558433985518262,3,4,3,6,8,6,4,3
1558433985518262,6,4,-5,-1,-1,-9,-2,2
1558433985531223,-7,-4,3,0,0,-1,1,-2
1558433985531223,-4,-3,0,3,1,-2,-1,-1
1558433985540199,-2,-8,-4,-4,-6,-4,-7,-4
1558433985540199,0,0,2,-3,-5,-6,-3,0
1558433985555517,1,4,-5,-1,1,1,0,-2
1558433985555517,-1,0,-7,0,-1,-6,1,-1
1558433985557155,2,3,5,2,4,9,7,2
1558433985557155,-3,0,-3,-3,-4,2,-1,-2
1558433985569471,-2,-3,1,1,-2,-2,-3,0
1558433985569471,0,-2,-1,-4,-5,-5,-1,-4
1558433985578099,-5,-5,-2,-3,-8,-11,-4,-2
1558433985578099,3,5,5,6,7,9,1,0
1558433985592404,-3,-7,-11,-11,-1,-1,-5,0
1558433985592404,0,1,0,1,-1,-1,1,-3
1558433985600370,2,4,2,3,8,0,2,0
1558433985600370,1,0,4,-4,-5,-2,2,-3
1558433985606024,-7,1,0,5,6,8,-2,-2
1558433985606024,-4,-11,-16,-9,-3,-1,1,-2
1558433985622982,-2,-3,6,2,-2,-11,-4,-2
1558433985622982,-4,-7,-3,0,-5,-5,-6,-2
1558433985628967,5,6,2,0,3,2,4,2
1558433985628967,1,3,3,0,2,6,3,1
1558433985637976,-4,0,-3,-2,-1,2,-2,-4
1558433985637976,2,0,-1,2,5,2,2,0
1558433985651901,3,1,3,2,-2,0,1,-2
1558433985651901,-1,2,1,1,-3,-7,-2,1
1558433985660876,-3,-3,-8,-2,0,1,-3,-1
1558433985660876,-7,-8,-7,-6,-4,-3,-5,-2
1558433985666860,-1,-2,16,3,-3,-3,5,-2
1558433985666860,1,2,-5,3,6,4,1,0
1558433985675838,4,7,1,-3,-1,4,2,0
1558433985675838,-5,-10,-14,-8,-7,0,-7,-5
1558433985689213,2,-2,-3,-1,-4,-3,-10,-4
1558433985689213,-11,-10,12,4,10,6,2,2
1558433985698812,1,-2,-3,0,-5,-2,-2,-3
1558433985698812,-3,2,2,0,-2,-3,-2,-4
1558433985712181,4,-1,-3,0,-6,-7,-3,-1
1558433985712181,-1,-1,-8,-11,-3,-4,-4,-5
1558433985720718,0,1,0,1,7,6,-2,1
1558433985720718,3,7,3,-2,-5,-1,4,4
1558433985727030,-2,-9,8,9,8,0,3,4
1558433985727030,4,2,-8,2,2,1,-1,0
1558433985735679,-2,-3,-3,0,0,-3,-4,-3
1558433985735679,2,2,3,-8,-3,2,0,-1
1558433985748672,-4,2,0,-1,-7,-7,-3,-1
1558433985748672,0,0,4,1,-1,-2,-1,0
1558433985757620,1,-1,-7,-3,2,-1,0,1
1558433985757620,1,0,-5,-2,0,-1,-9,-3
1558433985771884,-8,-5,1,-1,-6,-4,2,0
1558433985771884,-1,-1,1,0,-6,-4,-6,-3
1558433985780555,-4,-5,-6,-5,-2,-1,6,-2
1558433985780555,2,-2,-3,1,5,0,1,3
1558433985786845,3,4,-1,-3,-1,0,0,1
1558433985786845,0,4,-5,-5,-4,-4,-6,-4
1558433985795521,0,3,2,1,-3,-2,-1,2
1558433985795521,-2,-5,-2,-2,-2,1,1,-2
1558433985809480,-5,5,5,3,0,-1,-4,-4
1558433985809480,-2,-8,-15,-6,-1,3,4,2
1558433985817784,-2,-2,13,4,-4,-6,-4,-2
1558433985817784,-1,-5,-15,3,5,-4,1,3
1558433985831701,7,4,-8,-10,-3,1,0,0
1558433985831701,-3,5,8,1,0,-5,-6,-4
1558433985840399,0,-4,-1,-2,-5,3,-2,-1
1558433985840399,-5,-3,4,-1,-11,-7,-4,-4
1558433985846382,5,4,-5,6,17,10,7,3
1558433985846382,-1,-6,1,-1,-4,-7,0,-1
1558433985855357,-2,-2,-4,-5,-5,2,-3,-4
1558433985855357,-3,-1,-7,0,-2,-2,-2,-3
1558433985869799,-3,-4,-3,-1,-1,1,-7,-3
1558433985869799,3,5,10,2,-1,0,2,0
1558433985878297,-2,1,-6,-2,1,-5,-1,-1
1558433985878297,-4,-5,4,-3,2,0,3,-2
1558433985892390,-5,-7,-1,-4,-5,-5,-5,-2
1558433985892390,4,4,2,5,3,5,2,3
1558433985900738,-4,-3,-6,-5,-6,-4,-4,-2
1558433985900738,0,0,1,-3,-4,0,-5,-1
1558433985906220,2,-2,5,1,-6,-7,3,1
1558433985906220,6,8,11,7,15,13,5,4
1558433985915565,2,-2,-5,-2,0,4,2,-1
1558433985915565,-7,-6,-17,-9,-5,-6,-5,-3
1558433985929498,-5,-12,-8,-6,-3,-1,-5,-3
1558433985929498,0,3,-3,-5,-13,-8,-5,-3
1558433985938137,2,2,8,7,8,4,6,5
1558433985938137,3,3,5,-2,-2,3,-2,1
1558433985952310,1,7,2,2,-2,-8,2,1
1558433985952310,-3,-5,4,6,4,-7,-3,-1
1558433985960324,-1,-1,-13,-6,-1,-1,-2,-5
1558433985960324,1,-5,6,2,3,3,1,-1
1558433985967272,0,1,-2,-1,0,2,-1,1
1558433985967272,-1,-1,-5,-6,-7,0,-5,-3
1558433985975378,6,7,-1,-2,-2,-1,-1,-1
1558433985975378,-3,-4,-2,5,7,-4,1,3
1558433985989172,5,3,5,-1,4,4,1,-2
1558433985989172,-4,-7,2,4,1,-3,-2,-1
1558433985998013,-5,-1,-10,-10,-7,0,-3,-3
1558433985998013,0,-3,5,2,-5,0,-1,-3
1558433986011940,-3,-2,0,-2,-5,-4,-5,-3
1558433986011940,1,-1,2,-2,0,3,-2,0
1558433986020176,1,4,0,4,2,0,5,3
1558433986020176,-1,1,1,0,-2,-8,2,0
1558433986036093,-3,-4,-3,0,2,2,-2,-1
1558433986036093,-3,0,1,0,-5,-7,1,-1
1558433986036875,-4,-6,0,-2,-1,-5,1,0
1558433986036875,2,-1,-5,-3,1,2,1,0
1558433986049071,-4,2,-2,-5,0,1,-1,-1
1558433986049071,0,-3,2,5,2,0,-1,-1
1558433986063978,-6,-4,0,-2,0,0,-7,-3
1558433986063978,1,7,0,-4,-3,4,-2,-3
1558433986071777,-4,-16,-6,-2,-5,-6,-4,-4
1558433986071777,1,6,-7,-3,5,-3,5,5
1558433986080755,0,-4,6,1,-3,-3,-3,0
1558433986080755,-4,-6,3,0,-1,-2,-3,-5
1558433986095852,1,2,-3,4,2,5,1,2
1558433986095852,-4,-5,-6,-6,-7,-4,-3,-5
1558433986096712,8,7,7,5,4,0,-3,0
1558433986096712,-14,-10,-2,-6,-3,-1,2,-2
1558433986109709,-1,-3,-4,-2,-4,-3,-2,-3
1558433986109709,0,-4,1,-4,-1,1,-3,-4
1558433986117918,0,2,-3,3,0,-5,-1,1
1558433986117918,7,3,6,3,7,1,4,6
1558433986131969,-2,3,-3,-5,-1,2,0,-1
1558433986131969,0,1,-5,-4,-3,-1,-3,-2
1558433986140593,-3,-5,3,1,-5,-2,-4,-2
1558433986140593,-1,-3,-17,-4,3,5,-1,0
1558433986155921,0,3,-2,-3,1,1,4,0
1558433986155921,2,8,-2,-2,-3,0,-1,-3
1558433986156552,-4,-11,4,-2,-8,-7,-2,-3
1558433986156552,1,3,7,6,5,4,-2,-2
1558433986169877,-2,-3,-9,-2,-1,-5,-1,1
1558433986169877,-2,-2,-2,-4,-2,5,-2,-1
1558433986177821,2,1,-5,-6,-3,-6,1,-2
1558433986177821,-1,7,8,4,-2,-3,-1,0
1558433986191769,3,2,-2,4,0,1,1,1
1558433986191769,-6,-8,-2,-8,-5,-4,1,0
1558433986200439,0,-2,-4,-3,-3,-2,-4,-4
1558433986200439,2,-2,-7,-3,-1,2,2,1
1558433986215395,-2,1,3,2,0,-1,0,0
1558433986215395,3,0,4,4,5,-2,1,2
1558433986216393,0,2,-1,1,5,3,1,1
1558433986216393,-6,-8,-14,-12,-10,-1,-6,-6
1558433986229395,1,2,8,4,-5,-8,-4,-2
1558433986229395,-6,-13,-7,-7,-8,-6,-3,-1
1558433986238331,1,3,6,3,5,7,7,1
1558433986238331,1,3,-2,0,-1,0,1,-1
1558433986251323,-4,-3,-9,-8,-6,-3,-6,-8
1558433986251323,2,-1,-4,-1,3,-5,-5,0
1558433986260645,-13,-6,12,8,6,5,6,2
1558433986260645,-1,3,0,-5,-5,-6,-5,-1
1558433986275678,-2,-7,2,-5,-2,3,2,-1
1558433986275678,-4,2,-10,4,0,1,0,-3
1558433986277229,2,-4,-7,-6,1,-3,-3,0
1558433986277229,-5,-3,10,7,0,-7,1,-1
1558433986289196,0,1,4,3,-1,1,-5,1
1558433986289196,2,-3,-5,-6,-1,6,0,-1
1558433986298173,-1,-2,-3,-1,-1,-2,5,3
1558433986298173,3,3,4,0,-1,-2,-4,-1
1558433986311178,0,-1,-3,1,-1,-2,-1,-2
1558433986311178,-1,-3,2,0,-1,2,-1,-2
1558433986320490,0,-1,-10,-4,-9,-3,-4,-2
1558433986320490,-3,-3,-1,-3,1,-2,-2,2
1558433986336139,-13,-10,1,1,3,1,1,1
1558433986336139,-1,2,10,0,-2,3,3,2
1558433986337069,-6,-4,-14,-4,-1,-3,-5,-4
1558433986337069,5,5,5,2,-3,-5,-1,1
1558433986349396,3,3,-4,-4,0,1,-3,-2
1558433986349396,-3,-4,-6,-3,-5,-3,0,-1
1558433986358050,3,0,5,0,2,-3,-6,1
1558433986358050,-1,0,6,4,3,1,4,1
1558433986372290,-1,-4,-8,-1,-7,-7,-3,-5
1558433986372290,2,5,8,-1,-2,-2,-3,-2
1558433986380318,-6,-10,-9,-2,0,1,2,-3
1558433986380318,0,-2,-4,-2,0,-2,-1,-3
1558433986396173,0,2,11,3,5,2,4,1
1558433986396173,0,5,-4,3,-3,-4,-1,0
1558433986396910,2,6,3,-2,-1,0,0,-1
1558433986396910,0,-8,-5,-2,-2,-4,-3,-2
1558433986409075,-2,-5,-3,-4,-4,-1,2,1
1558433986409075,0,-1,-1,2,0,1,-4,-4
1558433986417938,1,4,8,4,1,-4,-4,0
1558433986417938,2,0,-5,-9,-2,5,2,-2
1558433986432033,1,-3,-3,-4,-7,-5,-4,-5
1558433986432033,-4,-1,-4,0,7,5,5,1
1558433986440791,2,0,6,4,4,-1,-1,-1
1558433986440791,-3,0,2,-1,-1,5,-1,1
1558433986455784,2,0,-2,-2,-2,-1,-3,-2
1558433986455784,0,-3,1,0,-3,-10,-3,-1
1558433986456752,2,8,6,3,2,1,1,1
1558433986456752,1,5,4,4,1,2,0,0
1558433986469746,-3,-14,-21,-7,-5,-3,-5,-1
1558433986469746,-4,-2,0,-3,-6,-5,-1,-2
1558433986477691,-7,-5,-3,-2,-4,2,-8,-4
1558433986477691,2,-2,-14,-4,-2,1,1,0
1558433986492014,0,1,6,8,7,8,3,2
1558433986492014,2,0,7,5,-1,-2,-5,3
1558433986500631,-3,-8,-11,-8,-4,0,1,0
1558433986500631,-4,3,1,0,-3,-3,-4,-2
1558433986515973,-2,-1,-2,0,4,-2,1,-1
1558433986515973,-3,-5,-7,-4,-3,0,-3,-4
1558433986516590,2,5,8,4,3,8,6,-2
1558433986516590,-2,-8,-6,0,4,-3,0,-2
1558433986528962,1,7,5,1,-3,-1,0,-1
1558433986528962,-1,1,0,-2,0,-1,-3,-1
1558433986537923,-2,-4,-2,-2,-9,-4,-5,-3
1558433986537923,-4,-5,-5,-3,-5,-2,-2,-4
1558433986551496,2,3,-5,1,5,-2,6,5
1558433986551496,1,-1,-2,-1,1,0,-3,-2
1558433986560607,0,0,-1,-4,0,1,-2,0
1558433986560607,1,0,4,1,-5,-9,-3,1
1558433986575871,-2,0,1,-1,-7,-3,-3,-2
1558433986575871,0,0,-6,1,2,1,3,2
1558433986576428,-3,-17,-16,-6,-1,-1,4,0
1558433986576428,2,4,5,2,-2,2,-4,-4
1558433986589394,-3,-2,8,2,8,9,2,2
1558433986589394,1,0,-16,-2,3,0,9,5
1558433986598411,0,0,2,-1,-8,-6,-7,-4
1558433986598411,-1,-1,6,3,-2,-5,1,1
1558433986612367,-2,-2,-2,-3,-7,-10,-7,-3
1558433986612367,-1,-1,-9,-5,-5,3,-2,-4
1558433986620448,-4,-2,-3,-5,-8,-6,-5,-1
1558433986620448,3,0,-2,0,12,9,3,1
1558433986635495,5,7,10,3,4,1,1,1
1558433986635495,-1,-5,5,-2,-4,-6,-3,1
1558433986637268,-3,0,-1,0,-3,-4,1,1
1558433986637268,-4,-1,4,2,-6,0,-5,-5
1558433986649236,1,0,-6,-2,1,2,3,-2
1558433986649236,0,4,2,1,1,-5,-1,-2
1558433986658210,-2,-4,2,3,7,8,3,2
1558433986658210,-5,-18,-12,-3,1,-3,-3,-2
1558433986671177,0,5,5,0,0,2,0,-4
1558433986671177,-3,-3,-3,-6,-8,-5,-4,-4
1558433986680150,4,5,3,3,0,-5,-1,2
1558433986680150,-1,10,9,6,-1,0,-2,0
1558433986695144,3,-1,-14,-7,-6,-2,-4,-2
1558433986695144,-9,-9,-10,-7,-3,-3,-1,-2
1558433986697139,1,-2,3,2,2,-1,0,-4
1558433986697139,-1,-5,-5,-9,-7,-10,-6,-3
1558433986709426,3,5,8,0,0,-2,0,0
1558433986709426,3,8,11,7,0,2,-5,-1
1558433986718051,-10,-8,-15,-9,-2,4,1,-5
1558433986718051,-1,-1,-2,-5,-9,-7,-5,1
1558433986732257,-3,-3,1,5,9,-2,2,3
1558433986732257,0,-4,5,3,4,6,1,1
1558433986739990,3,11,-12,-1,1,-1,-2,1
1558433986739990,0,0,-7,-9,-4,3,1,-2
1558433986755302,-7,-13,1,-2,-9,-6,-3,-4
1558433986755302,2,3,3,-1,-2,-1,-2,1
1558433986761959,1,2,4,0,-3,-2,-6,-3
1558433986761959,0,3,3,4,3,6,5,2
1558433986769211,0,1,-3,1,2,4,5,3
1558433986769211,-3,-2,1,-1,0,1,1,-3
1558433986777889,-4,-2,-6,-7,-8,-7,-6,-2
1558433986777889,-1,-3,1,1,0,-2,1,-2
1558433986792169,-1,-2,-1,-5,-7,-4,-6,-3
1558433986792169,0,2,0,0,1,-1,0,-2
1558433986800829,3,0,3,1,6,3,2,2
1558433986800829,-9,-9,-1,2,1,5,3,-1
1558433986815062,-1,-1,2,3,0,-1,-2,-1
1558433986815062,2,5,3,0,2,1,-1,-1
1558433986822049,-3,-7,-11,-6,-7,-8,-3,-2
1558433986822049,-3,-3,-9,-5,7,10,0,-1
1558433986838012,3,6,0,2,-4,-8,-3,-1
1558433986838012,-8,-12,1,1,-4,-1,-1,-3
1558433986839728,11,12,20,1,0,1,-1,-1
1558433986839728,-6,-1,2,7,4,3,4,0
1558433986851969,-4,-8,-10,-11,-3,-7,-1,1
1558433986851969,-3,-9,-8,-1,3,3,-4,-3
1558433986860667,-2,-2,2,6,2,3,2,1
1558433986860667,2,2,-8,-8,-7,-9,-5,-3
1558433986874632,1,2,7,1,1,6,2,-4
1558433986874632,-1,-1,1,-1,0,1,-1,-1
1558433986881610,-4,1,4,0,-3,1,0,-2
1558433986881610,6,6,-6,0,4,1,1,-1
1558433986888593,-10,-8,-2,2,-1,-1,-2,-3
1558433986888593,-3,-10,-7,-4,-2,-3,1,1
1558433986898037,-1,-6,-15,-5,0,-3,-4,0
1558433986898037,0,2,10,2,1,5,4,1
1558433986911992,4,2,-10,-5,-5,-6,-5,-1
1558433986911992,-1,-7,3,0,-1,4,-1,-1
1558433986920509,-2,-2,6,10,-1,-6,0,-1
1558433986920509,0,-5,-5,-14,-6,-8,-4,-4
1558433986934992,2,10,3,1,5,7,-1,-1
1558433986934992,-4,2,-7,-7,-5,-2,-4,-4
1558433986941480,-1,-6,3,1,-3,-6,-1,0
1558433986941480,-2,-6,-14,1,-2,-1,-3,0
1558433986958679,0,-1,10,0,0,0,0,-2
1558433986958679,0,4,-6,-3,-5,-10,-6,-3
1558433986959404,1,0,-5,-4,0,-2,-2,-2
1558433986959404,0,2,15,10,14,13,5,1
1558433986971764,-1,1,-1,1,-1,-7,2,2
1558433986971764,2,3,-9,-4,-5,-2,-2,0
1558433986980525,-7,-2,0,-5,-6,-5,-7,-1
1558433986980525,2,2,2,3,-3,-1,5,-1
1558433986995557,1,-6,0,1,-5,0,-3,-2
1558433986995557,1,2,6,4,3,-4,-1,0
1558433987001643,2,2,-4,0,5,5,2,0
1558433987001643,2,3,4,0,-6,-9,-7,-2
1558433987018543,-13,-12,-21,-11,0,6,-1,-4
1558433987018543,1,-1,-2,0,0,-3,4,3
1558433987020452,-6,-13,3,-2,-2,-1,0,-1
1558433987020452,-2,-1,0,1,-4,-4,-6,-1
1558433987032250,4,6,6,1,1,5,3,-1
1558433987032250,-1,-2,0,7,7,3,3,3
1558433987040193,-2,-3,-4,-4,-2,-5,1,0
1558433987040193,-1,-3,-4,-3,-4,-2,-2,-4
1558433987055428,1,-2,-11,-6,-5,-4,-7,-2
1558433987055428,-2,3,3,-1,-1,5,1,-2
1558433987061134,2,5,6,3,-3,-1,-4,-3
1558433987061134,2,0,-3,0,5,-11,8,5
1558433987078359,1,-1,4,0,-7,-8,-4,-2
1558433987078359,-9,-9,-1,0,1,0,-3,-2
1558433987079086,1,-1,-3,-5,-5,1,-5,-1
1558433987079086,2,8,14,10,0,-4,-4,1
1558433987092241,-5,-5,-29,-14,1,5,1,2
1558433987092241,-3,-15,-7,-6,-2,5,5,-1
1558433987100374,-3,-1,-7,-4,-8,-7,-5,-6
1558433987100374,1,-2,3,-1,-2,1,0,-2
1558433987115342,2,5,11,8,5,-1,3,-1
1558433987115342,1,1,2,-3,-3,1,-5,-1
1558433987122319,-2,2,-5,0,4,7,1,2
1558433987122319,-3,-8,-6,2,1,-3,-9,-5
1558433987138270,1,-3,2,1,-3,-6,0,0
1558433987138270,1,3,2,-2,-1,-3,2,0
1558433987138923,4,-2,-3,-1,-2,-5,-3,0
1558433987138923,-1,-1,-6,-6,0,1,-2,-1
1558433987152240,-6,-4,3,5,1,-1,4,1
1558433987152240,2,3,3,1,-6,-7,-3,-1
1558433987160211,5,9,10,5,7,3,2,3
1558433987160211,2,4,-7,-3,-2,5,1,0
1558433987175194,-13,-19,-23,-12,-10,-9,-4,-6
1558433987175194,0,6,1,0,0,0,3,0
1558433987182156,-2,4,-2,-2,0,-3,-2,-3
1558433987182156,1,-4,5,-2,0,1,-5,-1
1558433987198078,-2,0,11,5,5,6,1,-2
1558433987198078,2,1,-3,0,-4,-3,-1,1
1558433987198764,-1,-5,-6,-6,-2,-2,1,-2
1558433987198764,-2,4,-1,-1,-1,-3,-2,-2
1558433987212082,1,-1,2,-2,2,5,1,-1
1558433987212082,-3,1,7,2,5,0,-1,-1
1558433987220706,-1,-3,-10,-4,-2,0,0,-1
1558433987220706,-8,-16,-11,-14,-10,-6,-3,-3
1558433987234961,4,5,-7,0,5,0,2,2
1558433987234961,0,-5,4,0,-2,-5,-2,-1
1558433987241648,-1,1,2,3,1,5,7,-1
1558433987241648,-2,3,-1,2,3,3,3,1
1558433987257606,-1,-4,2,-3,-9,-10,-8,-3
1558433987257606,4,6,0,0,2,-3,-3,-1
1558433987259600,-1,1,0,0,5,4,2,0
1558433987259600,-4,-3,-12,-5,-9,-5,-3,-2
1558433987271568,4,6,11,2,5,10,6,3
1558433987271568,-2,-9,-2,3,0,-6,-5,-1
1558433987280545,-2,-4,-4,-2,-3,-1,-3,-1
1558433987280545,2,7,12,6,2,2,2,0
1558433987294507,0,-6,-8,-5,-9,-12,-8,-3
1558433987294507,-4,-8,-17,-9,-2,4,-1,-3
1558433987301487,-2,-3,-2,-3,-1,1,0,0
1558433987301487,3,4,4,1,-1,-4,-1,1
1558433987317445,-2,4,3,2,3,4,5,-1
1558433987317445,-4,-9,-2,-2,-4,-6,-4,-3
1558433987319439,-3,1,4,5,3,1,0,-3
1558433987319439,-2,-4,0,-4,1,0,2,2
1558433987331407,3,0,-5,-2,-4,-3,-1,0
1558433987331407,0,5,-2,-3,-3,-1,0,0
1558433987340384,1,0,1,7,2,2,-1,-3
1558433987340384,1,-4,-5,-11,-10,-9,-9,-3
1558433987362324,-3,-3,3,3,1,3,-2,0
1558433987362324,4,7,-10,1,9,7,8,3
1558433987369306,1,-2,-1,-3,-4,-5,-4,1
1558433987369306,-2,-2,0,3,1,-1,1,-2
1558433987377285,1,2,9,3,-5,-4,-2,0
1558433987377285,2,10,8,3,5,11,-1,0
1558433987379279,-3,-5,-10,-4,-3,-2,-1,-2
1558433987379279,-4,-8,-15,-6,-2,-2,-1,-3
1558433987391247,1,2,3,1,4,4,3,2
1558433987391247,0,0,6,1,-3,-3,-3,-1
1558433987400225,-5,2,7,1,2,8,2,-2
1558433987400225,-4,-6,3,3,-2,-4,-4,-1
1558433987414186,-4,-4,-17,-9,-4,0,-5,-2
1558433987414186,-1,-5,2,-3,-8,-10,-3,-2
1558433987421167,3,0,1,-2,0,-3,-2,2
1558433987421167,2,2,0,3,2,2,0,0
1558433987438122,-8,-3,4,5,0,6,3,-3
1558433987438122,0,0,-6,-3,-2,-3,1,1
1558433987439120,-1,-1,2,-1,-6,-6,-5,0
1558433987439120,0,2,-9,-3,-1,-2,0,-3
1558433987451087,3,7,9,1,0,1,-3,-5
1558433987451087,-10,-17,-7,-4,-2,3,-3,-4
1558433987460064,-1,-4,-5,-2,-3,-4,-1,-1
1558433987460064,-3,0,6,2,2,0,1,3
1558433987475024,2,7,6,9,7,1,1,2
1558433987475024,0,3,-11,-9,-11,-4,-1,-3
1558433987481008,0,-8,-8,0,0,-1,-5,1
1558433987481008,0,0,6,0,0,-2,3,-1
1558433987497963,-3,-8,-13,-11,-9,-15,-5,-2
1558433987497963,1,-1,11,7,7,2,-1,-1
1558433987498960,-1,3,-3,-3,-2,5,3,-1
1558433987498960,0,4,4,1,-10,-4,-6,-2
1558433987511930,1,-1,-10,2,11,3,9,5
1558433987511930,-4,-6,1,-3,-1,-2,-4,-2
1558433987519903,2,3,12,4,2,-2,-4,-1
1558433987519903,0,-5,-16,-10,-7,-3,3,-1
1558433987535212,-9,0,4,0,-3,-1,-6,-4
1558433987535212,-2,-5,-1,7,-1,-1,-1,-1
1558433987541845,-1,0,-3,-8,-4,-7,2,2
1558433987541845,0,-1,7,5,2,6,-2,-2
1558433987557804,2,-2,-9,-1,-4,-4,-7,-3
1558433987557804,2,2,-2,-5,-5,-4,-2,-1
1558433987558800,-4,-3,4,3,-2,-6,-4,-3
1558433987558800,3,0,-14,-6,5,1,1,1
1558433987571766,-8,-6,-1,-3,-2,-2,3,-2
1558433987571766,-2,6,-1,0,1,4,-2,-2
1558433987580742,4,1,2,3,6,6,5,1
1558433987580742,-3,-2,3,1,-1,0,-5,-1
1558433987594707,2,-6,-1,-2,-3,-1,-4,-3
1558433987594707,2,4,-5,-3,3,5,4,1
1558433987601685,-3,-3,-1,-3,-6,-8,-1,-1
1558433987601685,-1,2,5,5,3,1,0,-1
1558433987617642,4,5,1,0,0,0,1,1
1558433987617642,-2,-3,-11,-7,-4,-4,-2,-2
1558433987619636,-5,-5,-7,-6,0,3,-3,-2
1558433987619636,-4,-9,7,4,0,-3,-2,-4
1558433987631604,0,0,-3,-3,-5,2,-4,-3
1558433987631604,4,7,2,4,3,-1,1,2
1558433987640581,1,5,0,9,4,-3,0,-1
1558433987640581,-3,-4,-1,-8,-2,2,1,0
1558433987654546,0,1,-6,-3,-2,1,-4,-2
1558433987654546,-3,-10,-10,-5,-7,-5,-1,-2
1558433987668511,0,3,1,-3,1,-1,-2,-2
1558433987668511,0,-5,9,8,1,1,0,2
1558433987677482,-4,1,-6,-4,-3,-3,-3,-1
1558433987677482,3,-2,-13,-6,-2,-1,0,-1
1558433987684466,0,11,15,3,0,-3,-2,-1
1558433987684466,-6,-16,-28,-2,-2,-2,7,0
1558433987691446,-4,1,27,4,1,-3,-2,-3
1558433987691446,-2,-7,-4,0,-1,2,-2,-3
1558433987700436,3,2,-24,-7,-7,-3,-1,0
1558433987700436,-5,-10,-17,-10,-2,4,-2,-5
1558433987714400,4,2,5,4,1,-2,-3,-2
1558433987714400,3,13,36,12,12,9,8,5
1558433987721365,-5,-14,-29,-15,-4,0,4,-3
1558433987721365,-2,6,-7,-7,0,-4,-5,-4
1558433987737322,0,-9,-6,8,-3,-7,4,3
1558433987737322,-2,0,21,-1,-12,-10,-8,-4
1558433987744305,2,5,5,1,3,7,1,1
1558433987744305,0,3,3,2,-3,-6,-5,0
1558433987751296,1,0,15,-2,-4,4,-5,-1
1558433987751296,1,6,-10,-3,0,-3,3,-1
1558433987760260,-5,-14,-5,-1,-2,-3,0,1
1558433987760260,4,12,13,3,-2,-2,-2,-2
1558433987774223,-3,-6,-11,-3,5,4,0,-1
1558433987774223,-2,-3,-2,2,0,-2,0,-1
1558433987783199,-1,-4,-1,-1,-1,-2,-4,-3
1558433987783199,5,7,12,-1,0,-3,0,0
1558433987797162,0,4,-12,2,2,-3,-3,0
1558433987797162,-9,-16,-11,-7,-5,-5,-6,-3
1558433987804146,-2,0,8,0,4,4,3,1
1558433987804146,5,6,4,6,1,-1,1,-1
1558433987811124,1,3,3,-1,-1,-1,2,0
1558433987811124,0,-1,-15,-7,-4,-2,-4,-1
1558433987820100,-3,0,5,2,-3,-3,-2,-2
1558433987820100,-6,2,3,2,4,1,0,-2
1558433987834064,-1,-12,-1,-2,-2,-1,0,0
1558433987834064,-1,-4,-14,0,3,2,-1,-1
1558433987843042,-1,-4,-4,-5,0,-3,-2,1
1558433987843042,-4,-3,-12,-13,-8,-5,-4,-5
1558433987857003,-1,3,2,-4,-4,0,-3,-3
1558433987857003,0,5,14,7,4,4,1,2
1558433987863983,-1,-3,-1,3,-3,-3,-2,0
1558433987863983,-4,-4,-7,-3,0,0,1,0
1558433987879941,0,1,-5,1,0,-2,0,1
1558433987879941,0,0,3,0,-1,-4,-1,1
1558433987881934,-1,1,0,-1,-4,-3,-6,-2
1558433987881934,0,-5,-4,-1,3,2,4,-1
1558433987893904,0,-1,1,1,1,1,3,0
1558433987893904,3,1,2,-2,-6,-3,-1,-1
1558433987902880,-10,-4,2,1,-2,1,-1,-5
1558433987902880,-4,-7,0,-4,-6,-1,-3,-1
1558433987916847,3,2,1,3,8,2,-3,0
1558433987916847,-3,2,-7,-1,-1,-6,2,1
1558433987923824,2,-1,6,-2,1,-1,1,0
1558433987923824,-1,-3,-6,0,0,-3,-1,0
1558433987940778,-5,-7,-21,-15,-12,-10,-5,-5
1558433987940778,1,6,3,0,1,0,-7,-2
1558433987941775,4,8,6,8,3,-1,11,5
1558433987941775,-4,-10,7,5,-3,-2,0,1
1558433987953743,-2,-2,2,-4,-5,1,0,-3
1558433987953743,-1,-6,-11,-5,-2,1,-2,1
1558433987962719,1,2,1,1,0,1,-2,-2
1558433987962719,3,6,4,2,3,1,-1,-1
1558433987976681,-1,-4,-2,-3,1,2,3,0
1558433987976681,-2,-4,3,-1,-3,-4,-5,-3
1558433987983663,-3,-1,-2,1,5,1,-7,-5
1558433987983663,2,2,1,3,3,-3,7,4
1558433988000617,-1,2,3,-1,-1,0,-4,-3
1558433988000617,-2,0,-6,-3,-1,1,1,-1
1558433988001615,5,2,0,0,4,5,3,2
1558433988001615,-7,-4,-1,1,-5,-1,-5,-2
1558433988013583,1,2,5,3,-4,-2,1,1
1558433988013583,-5,-5,-7,0,4,3,1,1
1558433988022559,0,-2,-1,-2,-6,-6,-9,-4
1558433988022559,3,4,-10,-16,-9,-1,-3,-5
1558433988037520,-2,0,5,-3,1,-3,-3,2
1558433988037520,-6,-7,4,7,4,4,-2,-5
1558433988043503,0,-3,-9,-9,-9,-6,-3,-2
1558433988043503,1,6,7,4,11,-2,2,1
1558433988060457,0,1,-2,3,-6,-2,-4,-3
1558433988060457,-4,-9,6,1,0,0,1,-4
1558433988061456,-5,-6,-19,-9,-3,-5,-6,-5
1558433988061456,-2,-3,2,2,0,1,-7,-2
1558433988074421,0,3,-6,-4,-1,-4,1,0
1558433988074421,2,4,3,0,5,4,5,3
1558433988082400,2,-2,12,10,6,0,3,2
1558433988082400,-4,-6,-12,-10,-13,-6,-8,-5
1558433988097360,-3,-7,-4,1,1,4,1,-1
1558433988097360,6,10,14,3,2,4,4,3
1558433988104341,-2,1,-3,-2,-9,-5,-1,-1
1558433988104341,3,2,3,6,15,3,3,3
1558433988120297,-3,-6,-1,-4,-5,4,3,0
1558433988120297,0,2,6,-2,0,-5,-4,-1
1558433988121296,-9,-6,-11,-9,-6,1,-4,-5
1558433988121296,6,1,12,12,9,3,5,6
1558433988134260,-4,-1,-10,-5,-2,-4,-5,-3
1558433988134260,-1,-3,-9,-7,-1,-4,-3,0
1558433988143249,1,-2,-1,-9,-10,-3,-3,-1
1558433988143249,0,-2,-2,-2,6,2,0,-1
1558433988157200,-1,0,10,7,2,-4,-2,-1
1558433988157200,-5,-13,-24,2,3,0,-3,-3
1558433988164179,0,4,7,5,-2,9,8,0
1558433988164179,-5,-8,-9,-9,-14,-7,-5,-5
1558433988180137,6,7,14,9,11,8,5,1
1558433988180137,2,6,5,6,-1,-6,0,2
1558433988182131,-1,-3,-4,-10,-3,-3,-3,-4
1558433988182131,1,8,14,18,6,9,1,1
1558433988194100,-2,-11,-18,-24,-13,-5,-4,-2
1558433988194100,1,2,0,5,1,-1,-7,-3
1558433988203076,1,6,6,1,1,2,0,-1
1558433988203076,-1,1,-12,-4,2,-8,1,2
1558433988217039,-4,-5,-6,-4,-9,-14,-7,-4
1558433988217039,-1,0,5,-4,-1,3,-4,-4
1558433988224020,7,9,13,14,13,4,5,6
1558433988224020,-4,-8,-12,0,0,0,-4,-2
1558433988239982,-7,-7,-16,-15,-13,-1,-1,-5
1558433988239982,-4,-5,1,-5,-10,-4,-3,-4
1558433988241974,0,-1,-3,5,12,2,3,-2
1558433988241974,2,4,8,2,3,7,6,3
1558433988253940,3,-4,-4,5,7,1,3,2
1558433988253940,-1,9,22,2,-6,-4,-2,-1
1558433988262916,-7,-18,-40,-12,-7,1,-3,-3
1558433988262916,-2,-2,3,-5,-3,-6,-9,-4
1558433988276879,4,5,4,0,-4,3,12,6
1558433988276879,0,0,0,-10,-13,-7,2,0
1558433988283861,-11,-4,6,7,0,-4,-4,-2
1558433988283861,3,4,-3,-4,0,1,-4,-1
1558433988299818,-7,-10,-2,3,-4,7,-2,-1
1558433988299818,0,-2,-11,-4,2,1,4,0
1558433988301814,3,6,16,1,2,0,-2,2
1558433988301814,-4,-7,-17,-10,-15,-10,-1,-2
1558433988313779,-1,-3,9,6,11,4,2,1
1558433988313779,0,-1,-7,1,-1,0,1,2
1558433988322756,2,0,20,9,4,0,-1,0
1558433988322756,-1,5,-2,-2,0,-2,-1,-1
1558433988336718,-3,-4,-10,-9,-5,-7,-13,-5
1558433988336718,4,2,-10,-6,-6,-6,3,1
1558433988343700,-3,-2,-7,-2,1,5,1,-2
1558433988343700,3,2,16,4,0,-1,0,-1
1558433988360656,-2,2,-2,3,0,-6,-3,-4
1558433988360656,-6,-3,5,5,8,0,2,-3
1558433988361656,9,12,-3,-7,-4,0,3,3
1558433988361656,-7,-17,-10,-1,-6,-2,-1,-2
1558433988373620,1,9,6,-2,-2,-3,-5,-2
1558433988373620,1,-4,-2,2,6,0,0,3
1558433988382599,-3,-2,6,3,0,2,2,-1
1558433988382599,-3,-1,-8,-5,-2,-1,-3,-2
1558433988397557,5,11,17,8,7,1,0,1
1558433988397557,-5,-9,-4,-11,-15,-7,-4,-4
1558433988403541,-4,-7,-7,-2,3,-4,-5,-4
1558433988403541,-1,-5,-7,-3,0,-2,1,1
1558433988420495,4,8,9,-3,10,6,6,1
1558433988420495,1,4,1,5,2,1,-2,0
1558433988421493,-4,-7,-11,-6,-7,-3,-4,-3
1558433988421493,-2,3,8,0,-8,-6,-4,-4
1558433988433459,1,-1,-5,2,1,-3,-4,0
1558433988433459,-5,-4,-2,2,4,2,0,-1
1558433988442436,3,-5,-9,2,3,5,3,1
1558433988442436,0,3,6,2,0,1,3,0
1558433988457396,-6,-9,-6,0,5,-3,-1,-2
1558433988457396,-1,2,-5,-12,-16,-5,-6,-2
1558433988463380,-2,-2,14,3,-2,-9,-5,-3
1558433988463380,4,8,3,10,6,9,3,2
1558433988480334,-6,-14,-18,-27,-9,-2,-4,-3
1558433988480334,0,-1,2,3,-3,-4,-4,-1
1558433988481333,-1,2,6,3,9,0,-1,0
1558433988481333,1,-2,1,-3,-11,-2,-1,-2
1558433988494298,-6,-4,3,3,-3,-3,0,-1
1558433988494298,-1,-4,-10,-6,0,0,0,-2
1558433988503274,0,3,1,-4,-8,-10,-2,-1
1558433988503274,1,4,-6,2,6,4,2,-1
1558433988517236,-4,-5,8,12,1,-1,0,-2
1558433988517236,-5,-12,-7,-6,-3,-1,-4,-2
1558433988524224,0,8,4,0,0,0,1,2
1558433988524224,2,-4,-4,-9,-2,-2,-1,-1
1558433988540196,-2,2,6,11,-2,-3,1,-1
1558433988540196,2,6,-1,-2,0,-4,-4,-2
1558433988541175,-1,-8,-8,-5,-4,2,-3,-2
1558433988541175,-7,-12,1,-1,0,-2,0,0
1558433988554137,4,4,-3,0,0,-3,-3,2
1558433988554137,-2,3,3,1,2,-1,0,-1
1558433988563113,-2,-1,-3,-2,-2,-2,-5,-4
1558433988563113,1,8,4,1,1,3,2,1
1558433988577076,-3,-9,-30,-6,-2,-2,-3,-2
1558433988577076,2,-5,5,-5,6,3,3,0
1558433988584057,4,7,6,1,-6,-8,-3,-2
1558433988584057,0,-5,-7,-5,-3,0,-2,-3
1558433988600015,1,3,2,-4,-3,-3,1,-1
1558433988600015,2,6,-1,5,-1,0,-1,0
1558433988602015,-5,-5,0,-2,-5,-1,-1,0
1558433988602015,3,5,-2,-3,1,-1,-1,-1
1558433988613977,2,3,5,-1,-2,-2,-2,0
1558433988613977,-3,-4,-4,0,4,6,7,-1
1558433988622954,-1,2,-4,-1,-5,-1,-1,-1
1558433988622954,-5,-7,2,-1,-4,-4,-4,-2
1558433988636916,3,5,3,4,4,3,2,2
1558433988636916,-3,-2,6,0,0,0,-2,-1
1558433988643900,0,-1,-7,-4,1,-1,-2,-1
1558433988643900,-6,-5,-12,-6,-1,-2,0,-4
1558433988659855,2,2,9,5,0,2,-2,-2
1558433988659855,-3,-3,-4,1,-3,-4,2,2
1558433988666836,4,4,4,2,6,6,6,1
1558433988666836,-15,-20,-4,-1,-3,-6,-6,-4
1558433988673827,3,-2,-1,-2,0,-2,0,0
1558433988673827,1,-2,0,0,1,5,-1,-1
1558433988682794,-3,-5,0,-2,-4,-1,-2,-3
1558433988682794,-1,2,-3,-4,-7,-3,-4,-2
1558433988696756,-1,4,2,-2,-2,1,0,-3
1558433988696756,1,1,0,4,3,0,-1,0
1558433988703738,-1,-6,-5,-5,0,1,1,1
1558433988703738,1,5,0,4,2,-3,0,-1
1558433988719694,-6,-10,-7,-13,-8,-4,-2,-2
1558433988719694,-1,-3,-2,-6,-7,-2,-1,-4
1558433988726677,-3,-6,-4,-2,-8,-8,-2,-1
1558433988726677,0,1,5,3,0,-4,-2,2
1558433988733658,1,4,6,9,6,2,3,1
1558433988733658,-2,3,-11,-5,0,0,0,-1
1558433988742633,-3,-8,8,5,-1,0,-4,-2
1558433988742633,-5,-10,-24,-14,-3,1,0,0
1558433988757594,-1,-2,1,-1,-4,0,-4,-5
1558433988757594,3,3,0,-2,0,-4,-2,1
1558433988763577,-2,2,-2,0,2,2,1,1
1558433988763577,5,4,7,3,2,0,3,2
1558433988779534,-1,-3,-8,-1,1,0,-2,0
1558433988779534,-1,3,4,2,1,4,-2,-3
1558433988786516,0,0,-5,2,-4,-1,-3,-1
1558433988786516,-1,-5,0,-11,-4,-1,0,0
1558433988802472,0,-2,-5,-2,1,5,4,0
1558433988802472,0,-2,3,4,-3,-6,-7,-2
1558433988804467,-2,3,-6,-4,1,1,3,-1
1558433988804467,-2,-5,-6,-6,-6,-1,-4,-3
1558433988817435,0,-2,9,4,0,-4,-4,2
1558433988817435,-3,-4,-3,-1,0,2,6,-2
1558433988824430,3,-1,0,1,0,0,-1,0
1558433988824430,3,10,10,7,1,-1,-4,-2
