timestamp,emg1,emg2,emg3,emg4,emg5,emg6,emg7,emg8
1558434073282059,-1,-1,4,-1,2,3,4,2
1558434073282059,-2,-1,-2,0,-2,-2,-1,3
1558434073288044,0,2,2,0,4,3,1,1
1558434073288044,1,0,-3,-1,-3,3,-1,1
1558434073289042,1,-1,1,3,4,0,-2,0
1558434073289042,1,1,-1,-2,-1,-2,0,-1
1558434073290039,-3,-7,-10,-6,-7,-4,-3,-2
1558434073290039,-4,-4,-14,-3,-4,-5,-6,-1
1558434073301010,0,3,8,0,-4,-2,-6,-3
1558434073301010,-2,-3,1,-3,4,5,-1,-2
1558434073312977,-2,0,-2,6,8,2,3,-1
1558434073312977,1,-2,-2,2,2,-4,3,0
1558434073315969,2,1,-1,3,2,-12,1,1
1558434073315969,-1,0,-3,-12,-11,-6,-8,-6
1558434073332923,-2,-8,-1,-3,-2,-2,-3,-3
1558434073332923,0,-2,2,-2,-5,0,-3,-3
1558434073339904,-3,-5,-6,-3,-7,2,-3,-2
1558434073339904,-5,-6,-11,-6,2,1,-2,-4
1558434073347884,-1,7,8,1,-7,-1,-2,-1
1558434073347884,2,-3,0,3,3,-2,4,2
1558434073361846,-1,-1,2,4,4,-4,0,0
1558434073361846,-1,-2,-6,5,0,-4,2,1
1558434073370823,1,1,1,-1,9,12,3,2
1558434073370823,-2,5,18,0,-4,-3,-2,-3
1558434073408722,-2,-6,-13,-2,-5,-2,-2,-3
1558434073408722,0,-2,-3,-9,-7,-3,-5,-3
1558434073409718,1,-3,-5,-3,-4,-1,-5,-1
1558434073409718,1,3,9,3,-1,3,3,1
1558434073409718,1,0,10,7,17,6,6,6
1558434073409718,0,0,-11,-2,1,2,2,0
1558434073413708,-2,-1,2,0,-4,-6,-4,-3
1558434073413708,-2,-1,-4,-3,-6,-5,-2,-1
1558434073420689,0,2,2,-7,-8,-6,-5,-5
1558434073420689,-2,-6,-5,4,4,4,1,3
1558434073429666,-2,0,7,0,1,3,0,-2
1558434073429666,-2,-3,-16,-3,-7,-8,-6,-4
1558434073435649,0,0,3,1,0,0,0,-1
1558434073435649,3,0,2,2,5,-4,3,2
1558434073452604,3,4,2,2,5,6,7,1
1558434073452604,-2,-6,5,0,6,2,-3,-2
1558434073458587,-2,0,-3,-6,-11,-4,-5,-4
1558434073458587,-1,4,2,3,1,-2,-5,-5
1558434073473547,-1,-4,1,-4,-6,-4,0,-2
1558434073473547,-2,-9,-26,-12,1,1,-2,-2
1558434073481527,-1,-7,-9,0,-1,-1,-3,0
1558434073481527,-1,0,7,-3,-8,1,-5,-3
1558434073489506,3,2,2,6,13,7,7,6
1558434073489506,1,-3,0,6,7,-9,3,6
1558434073496486,-1,3,-2,-1,-4,-4,-2,0
1558434073496486,-4,-2,-4,-6,-6,-2,-3,-2
1558434073512454,-3,-6,-13,-4,-11,-3,-5,-5
1558434073512454,-2,0,3,-1,-1,4,-3,-3
1558434073518431,-1,-1,-3,4,7,4,0,-1
1558434073518431,-1,-2,2,-7,-9,-8,-7,-5
1558434073533390,2,2,6,2,1,-1,2,3
1558434073533390,2,6,6,3,7,4,4,4
1558434073541366,-1,-1,-2,-1,-1,-5,0,0
1558434073541366,-1,-1,-4,1,-1,0,-1,-1
1558434073550342,-3,-3,-6,-6,-10,-13,-3,-5
1558434073550342,-2,-2,-3,-1,-4,1,-1,-5
1558434073556328,-3,-4,2,0,3,7,2,0
1558434073556328,0,0,-4,2,-2,-4,-1,-1
1558434073572284,-2,-3,-1,-7,-1,3,-7,-4
1558434073572284,1,1,5,-2,-15,-7,-2,-4
1558434073578269,3,4,1,11,21,4,11,7
1558434073578269,-1,-3,1,-5,4,0,4,1
1558434073593228,-4,-4,-9,-4,-4,-3,-1,-2
1558434073593228,-2,0,-4,-4,-6,0,-5,-3
1558434073601206,-1,0,6,-3,-13,-7,-7,-5
1558434073601206,1,-1,-10,5,7,3,1,1
1558434073610182,0,1,0,1,5,0,-3,-1
1558434073610182,-2,-1,-1,-9,-10,-3,-7,-4
1558434073616166,-2,-4,-20,-1,-4,3,-2,-2
1558434073616166,1,3,14,5,6,-8,8,7
1558434073632126,-1,-2,-3,-2,6,7,3,0
1558434073632126,0,0,3,4,4,-5,-1,-1
1558434073638109,-3,-3,0,-9,-11,-6,-7,-5
1558434073638109,-1,-2,-2,-4,-2,5,-3,0
1558434073653070,0,3,-1,7,0,-4,-1,-1
1558434073653070,-2,-1,0,-4,1,-3,2,3
1558434073661048,0,-2,3,-3,-4,-1,-3,-1
1558434073661048,-8,-11,-24,-6,-10,-2,-8,-9
1558434073670022,0,-1,1,3,9,3,3,3
1558434073670022,0,3,-3,2,8,0,5,1
1558434073683985,1,1,-2,-3,-4,-2,0,-1
1558434073683985,0,0,5,-2,-3,-1,-3,-3
1558434073692961,-2,-2,-3,-4,-7,-3,-6,-5
1558434073692961,1,-1,-2,4,1,-3,0,0
1558434073698944,0,0,1,-2,2,0,0,1
1558434073698944,-1,-1,1,0,-3,2,1,0
1558434073713905,-3,-1,2,4,1,-1,-3,-1
1558434073713905,-2,-1,-7,-4,-1,2,-3,-4
1558434073720887,-1,1,19,-4,-12,-4,-7,-6
1558434073720887,-2,-5,-2,1,2,1,4,-3
1558434073729863,7,9,9,10,18,-13,10,12
1558434073729863,-3,-5,5,-1,-3,2,-2,0
1558434073743825,-1,1,-1,2,0,0,2,2
1558434073743825,-2,-2,0,-7,-10,-1,-7,-6
1558434073752800,-1,-3,-4,-5,-8,0,-4,-4
1558434073752800,0,2,2,2,2,0,1,0
1558434073758787,-1,0,-4,-1,2,-1,-2,-1
1558434073758787,0,0,5,-3,-1,-1,-3,-1
1558434073773746,-3,-6,-10,-7,-11,-2,-6,-4
1558434073773746,1,2,6,7,5,6,1,-1
1558434073789705,-2,-8,-12,-1,7,4,3,1
1558434073789705,3,7,17,5,8,-2,5,5
1558434073791698,-3,-3,-20,-10,-4,0,-2,-3
1558434073791698,-3,-5,-6,-12,-12,-4,-8,-7
1558434073803670,0,3,2,0,-1,-3,0,0
1558434073803670,0,2,-1,2,2,-3,-1,2
1558434073812642,-1,-3,1,-2,-5,1,-3,-2
1558434073812642,-2,-3,-2,1,0,0,-2,-3
1558434073818624,-1,-2,7,-3,-3,1,-1,-2
1558434073818624,0,-2,-18,1,1,-9,0,3
1558434073833593,-2,-1,9,3,4,-1,0,1
1558434073833593,-2,-4,-10,-5,-1,-2,3,0
1558434073841563,-1,0,2,0,-2,-7,-3,-2
1558434073841563,-3,-3,-7,-5,-9,1,-2,-4
1558434073849542,-1,-1,1,3,1,1,-1,0
1558434073849542,0,2,5,-1,-2,0,-1,0
1558434073863505,-2,-3,-8,-3,-1,1,0,1
1558434073863505,0,2,9,4,7,-1,3,1
1558434073872480,-5,-2,-5,-4,-2,-4,-3,-4
1558434073872480,-1,0,4,0,-2,0,-2,-2
1558434073878465,-1,-1,-3,0,0,0,-4,-3
1558434073878465,1,-1,-2,2,1,2,2,0
1558434073893424,0,1,4,-4,-1,2,1,2
1558434073893424,-3,-2,-4,-2,-5,-5,-4,-1
1558434073901403,0,0,1,1,-5,-13,-3,0
1558434073901403,-2,-1,-3,5,9,2,-2,-1
1558434073910379,1,-1,0,-5,-3,-3,3,2
1558434073910379,0,0,9,-1,5,5,-1,2
1558434073923345,1,-1,-7,-4,-5,-10,2,1
1558434073923345,0,-2,6,-3,-6,-4,-4,-4
1558434073932321,-1,-4,-6,-4,-9,-4,-5,-3
1558434073932321,0,-2,0,1,3,0,-1,-2
1558434073938305,0,3,1,0,1,8,-1,0
1558434073938305,-2,-6,-9,-2,1,4,3,0
1558434073953266,-3,0,4,1,-3,-8,-4,-3
1558434073953266,3,0,-3,0,2,0,3,4
1558434073961244,-2,1,16,5,0,1,-4,-3
1558434073961244,-1,0,-1,-8,-5,-5,-5,-2
1558434073970218,0,-2,0,0,5,7,3,0
1558434073970218,0,0,-4,-3,-9,-10,-3,-2
1558434073992161,-1,-1,-3,0,0,2,0,-1
1558434073992161,-1,1,4,1,-4,0,-2,-2
1558434073994155,-2,-4,-1,-1,-2,-1,-3,-3
1558434073994155,0,-1,-3,0,0,-1,0,-1
1558434073998150,-2,-5,-4,-2,-6,1,-5,-8
1558434073998150,-4,0,-5,-5,-3,6,2,-1
1558434074013105,5,5,-1,9,14,-11,6,7
1558434074013105,-2,0,4,0,7,1,2,-1
1558434074021084,2,-2,-14,-2,-2,-3,3,2
1558434074021084,-5,-10,-11,-11,-10,-6,-5,-5
1558434074030058,-4,0,4,-3,-7,8,-3,-5
1558434074030058,1,-1,-1,2,2,4,-3,-1
1558434074044022,-1,0,-1,2,4,-2,-2,-1
1558434074044022,2,2,0,2,0,-3,-1,1
1558434074052000,-2,-3,-2,-3,-6,1,2,0
1558434074052000,-3,-1,-1,4,-4,-4,-4,-2
1558434074058989,0,0,-2,-3,0,-1,0,-3
1558434074058989,1,-3,1,1,3,5,2,2
1558434074073941,-2,-2,-2,-3,-4,-17,-9,-1
1558434074073941,-8,-8,-3,-4,-2,3,-2,-4
1558434074080922,1,1,-3,3,8,0,5,6
1558434074080922,1,1,1,3,-2,-5,-1,0
1558434074089899,-1,0,9,-4,-9,-3,-2,-5
1558434074089899,-2,-1,-3,1,2,1,3,-1
1558434074103872,-4,-3,-1,-4,-4,-5,-2,-2
1558434074103872,-1,-3,-8,1,2,0,-2,-3
1558434074112839,-2,-2,-10,-5,0,9,4,1
1558434074112839,2,-3,-3,-3,-6,-5,-2,0
1558434074118823,-4,-4,0,-2,1,3,0,-2
1558434074118823,-3,1,-3,-2,-7,-7,-3,-3
1558434074133781,-1,-1,-2,4,4,2,0,0
1558434074133781,2,2,1,-1,3,0,1,2
1558434074140764,-2,-2,-1,0,-3,0,-5,0
1558434074140764,0,2,16,4,-6,-3,-2,-1
1558434074155722,2,1,0,-7,-3,1,-1,-2
1558434074155722,0,-2,-4,0,0,-6,-3,-2
1558434074163702,4,-1,-1,3,7,2,1,1
1558434074163702,-2,-2,2,-4,-3,0,-2,-4
1558434074172677,-2,-2,-1,3,4,11,2,-1
1558434074172677,1,1,-1,-4,-9,-8,-5,-2
1558434074178662,-2,-2,3,-3,0,0,0,-2
1558434074178662,-2,-1,-7,-5,-4,-8,-4,-1
1558434074193621,0,-1,0,3,2,-1,-3,-1
1558434074193621,1,0,1,3,9,6,6,6
1558434074201602,-3,-5,-8,0,-5,2,0,-1
1558434074201602,1,3,3,-5,1,1,-1,1
1558434074209586,-3,-4,-10,-3,-5,-4,-6,-2
1558434074209586,-3,0,0,-3,-8,-8,-6,-5
1558434074232520,0,1,1,2,1,1,0,1
1558434074232520,2,3,10,1,-1,-2,4,3
1558434074233518,-1,-4,1,-1,-5,-1,-2,-3
1558434074233518,-3,-3,8,2,5,10,5,2
1558434074238504,-2,-1,-8,-4,-3,-11,-3,1
1558434074238504,-2,0,-1,3,6,0,-2,0
1558434074253466,-2,-1,0,3,-3,-3,-1,-2
1558434074253466,-3,-4,-4,-8,-8,-1,-2,-4
1558434074261450,-2,0,5,-1,-3,3,-1,-2
1558434074261450,0,0,-3,-1,-2,2,2,0
1558434074270419,-1,-1,-1,0,-1,-4,-1,-1
1558434074270419,1,0,-9,1,5,7,3,2
1558434074283381,-2,0,4,-5,-3,-5,0,-1
1558434074283381,-2,-2,-6,3,3,-1,-3,-3
1558434074292358,1,-2,3,-3,-7,-6,-4,1
1558434074292358,-2,-4,-3,2,-6,-2,-4,-1
1558434074298342,1,1,-1,2,14,9,8,3
1558434074298342,-3,-5,-7,-8,-2,2,-1,-3
1558434074313303,0,2,2,1,-2,1,5,1
1558434074313303,1,1,-1,0,3,-3,0,0
1558434074321287,-1,-1,-2,0,-7,-3,-1,-1
1558434074321287,-1,2,4,-1,-2,3,-3,-2
1558434074336242,-4,-5,-9,1,-2,2,-6,-4
1558434074336242,-2,-4,-12,-10,-7,-7,-3,-2
1558434074343225,0,-1,-2,0,0,-3,0,-1
1558434074343225,-2,0,-1,-2,0,1,-3,-3
1558434074352202,0,0,-3,0,1,-3,-3,0
1558434074352202,0,1,4,3,0,-4,-2,-1
1558434074358189,-1,-4,-2,-4,-3,-1,-2,-4
1558434074358189,-2,-3,-3,-4,-2,-3,0,-2
1558434074375139,0,1,-1,4,6,-5,0,0
1558434074375139,-1,0,2,0,-1,-3,-4,-3
1558434074381121,2,0,0,-3,-1,7,4,-1
1558434074381121,-2,-4,-3,8,7,3,2,-1
1558434074396083,-1,-4,-16,-2,1,1,2,-3
1558434074396083,0,-1,4,-5,-12,-7,-4,-4
1558434074404067,0,1,1,0,1,4,-1,-1
1558434074404067,0,-2,-4,1,3,-1,0,1
1558434074420020,1,-1,4,-2,-2,0,0,-2
1558434074420020,-2,-3,-2,-3,-6,-6,-5,-4
1558434074420020,-4,-2,-3,-3,-6,-3,-3,1
1558434074420020,-3,-4,3,7,9,13,7,3
1558434074434979,-1,-1,-7,-2,3,1,4,2
1558434074434979,-1,2,5,-3,2,3,1,0
1558434074441008,0,0,4,-3,-8,-13,-6,-3
1558434074441008,0,0,4,1,2,0,-2,0
1558434074455933,-1,-1,-7,-3,-6,-1,-3,-1
1558434074455933,-1,0,-2,4,4,2,4,1
1558434074463899,0,-2,-2,1,1,0,-1,-4
1558434074463899,0,3,2,-6,-9,-4,-4,-4
1558434074478860,-2,-2,2,-1,-4,-4,-5,-4
1558434074478860,2,3,3,4,4,1,4,2
1558434074479859,-1,-4,-7,-2,-2,-2,-2,-2
1558434074479859,1,0,0,3,1,1,5,2
1558434074495108,-1,2,7,0,5,1,1,0
1558434074495108,-3,-7,-20,-9,-7,-7,-3,-3
1558434074500845,-3,-3,-2,-1,4,5,-1,-3
1558434074500845,0,-3,-1,-7,-8,-8,-5,0
1558434074515761,-2,-4,-6,0,-3,-2,-1,0
1558434074515761,0,4,9,4,3,3,-1,1
1558434074531717,-1,3,2,4,-6,-5,-1,0
1558434074531717,-4,-1,-4,-4,-4,-6,-4,-2
1558434074539698,-1,3,3,3,5,1,1,1
1558434074539698,0,2,8,1,-1,0,1,0
1558434074539698,-1,-6,-13,-2,7,3,0,-1
1558434074539698,-3,-2,-2,0,-4,0,2,-3
1558434074554833,-1,-1,5,-4,-4,0,-3,0
1558434074554833,-1,-1,1,-1,-2,-2,-4,-1
1558434074561647,2,0,6,-2,-4,-6,-4,0
1558434074561647,-1,-2,-4,-4,-3,1,-3,-4
1558434074576741,1,2,1,0,-4,-6,-1,-3
1558434074576741,0,0,0,10,19,16,8,3
1558434074583846,-1,-2,-2,-9,-8,-4,-1,-2
1558434074583846,-4,-2,-14,-2,1,-2,-4,-2
1558434074599774,-2,0,4,-1,-4,-4,-2,0
1558434074599774,-1,1,4,-1,-5,-8,-2,-1
1558434074599774,-1,-1,-4,3,0,1,1,-1
1558434074599774,2,-1,2,2,3,1,0,-2
1558434074615494,-3,-3,1,-6,-7,2,-2,-3
1558434074615494,1,0,-1,0,2,-6,0,2
1558434074621477,-2,1,-1,1,-1,-2,-6,-4
1558434074621477,-1,-2,-2,-2,-4,-7,-3,0
1558434074636451,-1,-1,0,0,5,8,2,-2
1558434074636451,-3,-3,-6,-5,-2,2,-1,0
1558434074643624,0,1,5,-1,-3,-5,-3,0
1558434074643624,0,-1,3,-1,-5,-6,-1,-2
1558434074658380,1,-1,-2,-2,1,-2,-1,0
1558434074658380,0,0,0,2,0,-7,-3,-2
1558434074666402,-1,0,4,1,1,0,6,2
1558434074666402,-2,-3,-4,-3,-1,-9,-3,1
1558434074675339,-3,0,2,-4,-13,-4,-4,-3
1558434074675339,-2,-4,-7,-5,-5,0,-2,-3
1558434074681319,-2,-2,-3,2,3,6,0,0
1558434074681319,-2,-3,-1,-2,-4,3,-1,-3
1558434074696282,-1,-1,-3,4,4,-7,1,1
1558434074696282,-1,-3,8,-1,-1,-2,-2,0
1558434074703290,-1,0,-9,-2,-3,-7,-1,1
1558434074703290,2,0,0,-2,0,-6,-4,0
1558434074718218,1,0,0,-1,1,1,1,0
1558434074718218,0,-2,-3,-3,-7,1,-3,-4
1558434074726197,-1,-3,2,2,0,2,1,1
1558434074726197,1,5,8,5,8,9,4,2
1558434074735173,-3,-4,-3,-8,-8,-14,-5,-2
1558434074735173,-2,2,-7,0,-1,-8,-2,0
1558434074741158,0,-3,-2,3,4,9,-2,-2
1558434074741158,-1,4,4,-4,-2,1,-1,0
1558434074756118,-1,-4,-3,-1,-2,1,-2,-3
1558434074756118,-1,0,10,3,1,6,-1,-3
1558434074763098,-2,0,-2,-6,-3,-3,1,-1
1558434074763098,-1,2,0,5,3,-5,1,2
1558434074779055,-1,-2,-1,-5,-6,-1,-4,-4
1558434074779055,0,-4,-10,-2,0,2,2,-3
1558434074786039,2,-2,-11,8,6,5,-1,2
1558434074786039,-2,-1,2,-10,-9,-2,-2,-2
1558434074802198,-4,-1,-3,1,1,1,2,0
1558434074802198,-3,-2,1,2,0,-4,-2,-2
1558434074803150,-1,3,6,-3,-6,-6,-1,0
1558434074803150,-3,-3,-3,-4,-4,0,-3,-5
1558434074816163,0,-2,-7,-1,0,6,0,0
1558434074816163,0,-2,0,-4,2,-2,0,1
1558434074824137,1,-1,2,3,6,2,6,4
1558434074824137,1,0,5,1,-1,-4,-3,-2
1558434074838896,-2,-2,1,-1,-3,5,-4,-5
1558434074838896,-2,-2,5,1,1,2,1,-1
1558434074845880,-4,0,5,-6,-9,-9,-5,-3
1558434074845880,0,0,-10,1,2,3,2,1
1558434074861838,-5,-7,-6,3,3,-2,-6,-3
1558434074861838,0,-2,-2,-6,-3,-7,1,1
1558434074862834,1,2,3,2,6,5,1,1
1558434074862834,-3,-1,-2,2,-1,1,1,-2
1558434074876855,-1,-5,-3,3,0,-6,-2,-1
1558434074876855,-1,-1,-11,-11,-12,3,-4,-4
1558434074883982,-1,0,-1,-5,-2,-6,-4,-3
1558434074883982,-2,-7,-3,-2,-3,-2,-1,-1
1558434074898736,2,1,-1,-1,4,5,2,2
1558434074898736,0,0,3,2,2,4,3,2
1558434074905758,-2,-1,-1,-1,-4,-4,2,-1
1558434074905758,0,2,15,1,0,-2,-3,-2
1558434074921675,-1,0,-4,0,2,-3,2,0
1558434074921675,-3,-5,-1,1,-5,-5,-5,-3
1558434074922672,-1,-4,-1,-1,-8,-4,-5,-1
1558434074922672,0,-3,-7,-4,0,-2,-3,-1
1558434074935860,3,5,5,-2,5,3,5,2
1558434074935860,0,4,7,-3,1,4,4,1
1558434074943623,0,-2,-6,3,1,-4,0,-2
1558434074943623,-1,2,8,1,-2,-7,-2,-2
1558434074958575,0,-2,-2,-1,1,6,0,-2
1558434074958575,-2,0,1,0,-5,-9,-6,-2
1558434074965558,-1,0,2,3,1,5,1,-1
1558434074965558,2,-1,-2,-4,4,10,2,2
1558434074981870,1,5,4,-5,-12,-5,-2,-3
1558434074981870,-2,-6,-3,3,2,-1,-3,0
1558434074989492,2,0,0,-2,6,-7,2,4
1558434074989492,-2,2,2,2,0,-7,1,0
1558434074996474,-3,2,5,3,3,2,3,2
1558434074996474,-3,-3,-4,-5,-10,-4,-8,-7
1558434075003455,-3,-2,0,-2,-3,4,-3,-2
1558434075003455,1,-2,-6,2,2,0,1,2
1558434075018415,-2,-4,-5,-5,-4,-10,-3,-2
1558434075018415,-3,-4,-4,-2,-6,-3,-7,-6
1558434075026393,0,-2,-2,-4,-3,1,3,-2
1558434075026393,1,0,-2,0,3,-2,2,1
1558434075042416,-3,-2,-1,-4,1,1,-1,-4
1558434075042416,1,0,1,4,7,0,3,2
1558434075042416,0,0,1,1,-2,-4,-4,-2
1558434075042416,-4,-6,-11,-4,-6,0,0,-1
1558434075056688,0,3,7,3,4,-1,-1,1
1558434075056688,-1,-1,-5,-1,1,3,-2,-1
1558434075064438,-2,0,0,0,-7,-5,-5,-3
1558434075064438,-3,-8,-3,-1,-3,3,-4,-3
1558434075078683,2,2,10,-1,2,-11,2,2
1558434075078683,2,0,-2,0,7,6,7,3
1558434075085805,-3,-2,7,-1,0,6,-2,-3
1558434075085805,-1,-2,-11,-2,-7,-3,-2,-2
1558434075101622,-2,-4,-11,-4,-5,-5,-6,-2
1558434075101622,0,0,2,2,7,11,4,1
1558434075102620,0,-5,-3,-4,-2,-1,-2,-5
1558434075102620,0,-2,-1,1,-6,0,-2,-2
1558434075116917,1,-2,-3,1,5,-5,2,2
1558434075116917,3,3,4,4,5,0,4,3
1558434075123882,-2,-1,-5,-5,-3,-6,-5,-2
1558434075123882,-2,-1,-1,-2,-1,-2,-3,-1
1558434075138523,-2,-2,0,-1,-5,4,-1,-4
1558434075138523,-2,-1,6,-3,-7,-8,-4,-4
1558434075145503,0,1,-2,1,4,6,3,2
1558434075145503,2,-1,1,1,-2,-22,-3,1
1558434075161771,-2,-3,-2,-1,-1,6,0,-1
1558434075161771,0,2,1,-1,0,-3,-2,-3
1558434075162458,0,1,7,0,-4,-3,-2,-3
1558434075162458,-1,1,-2,-5,0,3,-2,0
1558434075176759,-1,-2,-3,3,3,5,4,3
1558434075176759,-3,-3,-8,-7,-6,-1,-1,0
1558434075183725,-1,-3,-4,-2,-2,1,-2,-4
1558434075183725,-1,0,2,6,7,2,1,1
1558434075199028,1,0,3,1,-3,-5,-2,-2
1558434075199028,-2,-6,-11,-7,-5,-1,-3,-4
1558434075206754,-2,-1,2,-7,-10,-10,-8,-1
1558434075206754,0,-2,-13,0,10,10,7,4
1558434075221934,0,1,3,4,8,9,1,0
1558434075221934,-3,0,-7,-4,-11,-11,-3,1
1558434075222723,1,0,-1,-2,1,-2,-1,1
1558434075222723,-2,-2,-1,-5,-2,6,3,-2
1558434075236766,-1,1,3,-1,-2,-6,-3,0
1558434075236766,1,-1,-3,5,3,1,0,0
1558434075243865,0,0,-3,-1,-1,-1,2,1
1558434075243865,-4,-4,2,1,-1,-2,-4,-3
1558434075258817,-3,-3,-4,-2,3,9,1,-1
1558434075258817,0,2,3,-2,-6,-8,-3,-2
1558434075266788,0,1,-2,3,6,4,3,1
1558434075266788,-1,0,7,-3,-3,-5,-3,-2
1558434075281552,-4,-9,-32,-5,-5,-3,-3,-2
1558434075281552,-2,-2,0,1,0,0,-1,-2
1558434075282550,0,1,5,-2,-2,1,2,1
1558434075282550,-3,0,5,0,-4,-2,-5,-4
1558434075296512,2,4,8,2,5,6,2,3
1558434075296512,-1,-1,2,4,3,-7,-1,0
1558434075303689,-1,-3,-4,-1,6,5,2,2
1558434075303689,0,-1,4,-3,-11,-9,-4,-1
1558434075318453,-2,-5,-4,-5,-9,-10,-8,-4
1558434075318453,0,4,0,-1,2,8,5,1
1558434075326439,-2,-3,-2,-1,-2,-6,-1,-2
1558434075326439,-3,-1,-4,-3,-3,-4,-3,-3
1558434075341391,-1,1,3,2,-1,-2,-2,1
1558434075341391,-2,-3,-2,-3,-4,-2,-2,-2
1558434075342390,-3,-4,-4,-3,-5,-4,-5,-2
1558434075342390,-1,0,-3,2,2,9,3,-1
1558434075356351,1,1,6,-2,-4,-5,-3,-3
1558434075356351,-1,-1,1,-1,-2,0,0,-1
1558434075363333,0,0,-3,6,-1,-4,-3,-2
1558434075363333,0,-2,-3,-13,-2,0,-1,2
1558434075378292,0,1,0,-2,1,-4,1,3
1558434075378292,0,0,3,0,0,-1,1,2
1558434075386270,0,-1,1,2,3,1,2,1
1558434075386270,-2,-3,-9,-5,-3,-5,-2,-1
1558434075401230,-2,-4,-4,-2,-5,3,-1,-4
1558434075401230,0,2,2,3,2,-4,1,1
1558434075402233,-1,-4,-12,-3,-9,-2,-4,-4
1558434075402233,-1,-1,3,3,7,3,1,0
1558434075416191,-1,-2,0,-4,-3,2,3,-1
1558434075416191,-4,-6,-13,-4,-9,-3,-6,-3
1558434075423172,2,6,17,4,10,8,5,2
1558434075423172,-2,-2,-8,0,-5,-5,-1,-1
1558434075438131,-3,-4,-3,-9,-6,-4,-3,-3
1558434075438131,1,-2,0,-1,0,0,-4,-3
1558434075446112,0,-1,-4,3,3,4,3,1
1558434075446112,2,-2,-3,1,8,1,3,0
1558434075462069,1,3,8,5,6,-3,2,2
1558434075462069,-1,-3,1,-5,-4,-8,-2,0
1558434075462069,-3,-5,-20,-6,-8,-4,-5,-5
1558434075462069,-2,0,-2,-4,-6,-3,-3,-1
1558434075476069,0,3,5,0,-3,3,1,-2
1558434075476069,-4,-5,-6,-3,1,4,-4,-3
1558434075484009,0,-1,6,0,-1,-5,-2,-2
1558434075484009,4,6,5,10,11,-2,7,5
1558434075498971,-2,-2,0,-10,-6,-4,-6,-3
1558434075498971,-2,-1,1,4,8,1,2,-1
1558434075505950,-2,-4,-6,-8,-7,-5,-6,-2
1558434075505950,-2,-1,-7,2,-12,-2,-6,-5
1558434075529889,-1,0,2,-5,2,-3,-1,-1
1558434075529889,3,3,2,5,11,2,3,3
1558434075530885,-2,-1,-1,-2,-1,0,1,1
1558434075530885,-3,-5,-4,-5,-4,-4,-5,-3
1558434075535873,0,-1,-2,4,4,5,3,2
1558434075535873,-2,0,1,3,1,3,3,1
1558434075543886,-2,-2,-1,-8,-9,-6,-4,-3
1558434075543886,-2,0,1,-5,0,2,-3,-2
1558434075558809,-2,-1,2,6,0,1,-1,0
1558434075558809,-4,-3,-13,-2,-2,3,-2,-4
1558434075565790,0,4,8,1,-3,-2,-2,-1
1558434075565790,1,1,5,6,1,-4,3,1
1558434075580788,-2,-3,-8,-11,-9,-4,-2,-2
1558434075580788,-2,-2,7,-2,-1,-3,0,0
1558434075588766,0,-3,-17,-2,0,-2,-5,0
1558434075588766,-3,-3,3,-4,-4,5,-3,-4
1558434075595711,3,0,-1,6,2,0,0,0
1558434075595711,1,0,0,2,0,-2,2,0
1558434075603689,0,0,4,1,3,-2,-2,-1
1558434075603689,-2,-1,1,3,3,3,0,1
1558434075618651,-4,-7,-8,-3,-4,0,-1,-2
1558434075618651,1,0,1,-1,-2,1,-2,0
1558434075625632,-1,-1,0,-1,-3,-7,1,-1
1558434075625632,-1,-3,-11,-3,1,3,1,-2
1558434075640592,-2,2,1,3,3,-1,-1,-2
1558434075640592,-2,-4,-4,-5,-2,-3,-3,-1
1558434075649568,-2,1,14,4,0,0,0,-2
1558434075649568,0,0,1,-3,-3,-4,-2,-1
1558434075655550,-2,-5,1,0,3,4,3,1
1558434075655550,0,5,2,-1,-2,3,2,-3
1558434075663612,-3,-4,-2,-1,-3,0,-3,0
1558434075663612,1,0,1,-2,1,-3,2,2
1558434075686499,0,2,3,0,-2,-5,-3,-2
1558434075686499,0,-2,-11,-3,-1,2,0,0
1558434075687467,0,-1,1,4,0,-4,-1,0
1558434075687467,-3,-2,-5,-4,-8,0,-4,-5
1558434075701427,-1,-2,-4,4,6,1,4,1
1558434075701427,0,3,12,-5,-4,-8,-2,-1
1558434075709407,-3,-6,-18,-5,-2,2,0,-3
1558434075709407,1,0,-3,0,2,0,-1,2
1558434075716422,0,0,6,3,-10,-11,-6,-2
1558434075716422,0,0,0,-1,1,7,4,1
1558434075723373,0,-5,-5,-1,0,-8,-1,0
1558434075723373,0,0,6,-2,0,-1,-1,-2
1558434075738329,-1,0,-2,0,-3,0,-6,-4
1558434075738329,-2,-5,-5,-5,-10,0,-2,-2
1558434075746308,0,1,2,1,0,-4,-2,0
1558434075746308,1,-1,-4,0,8,2,2,1
1558434075761268,0,1,-3,-1,-2,-8,-2,0
1558434075761268,0,1,2,3,3,0,-2,-3
1558434075769278,-5,-5,-5,-3,-3,5,1,-2
1558434075769278,-4,-5,-3,-1,-12,-5,-3,-5
1558434075785443,0,1,-1,-2,3,0,-1,0
1558434075785443,-1,-4,-13,-2,1,1,2,0
1558434075785443,-2,-1,12,-4,1,3,2,-1
1558434075785443,0,1,-2,5,-1,-3,1,0
1558434075798206,-1,-1,5,0,2,3,1,-1
1558434075798206,0,0,-3,0,1,2,-3,1
1558434075806148,-1,-1,-2,-5,-4,-2,-1,-1
1558434075806148,-1,-2,0,-1,-4,-5,-3,-2
1558434075821107,-2,-4,-6,-5,-9,-3,-4,-2
1558434075821107,0,3,5,6,6,4,0,-2
1558434075837066,0,-2,-7,-2,-2,2,1,-1
1558434075837066,-1,2,-3,-3,4,-4,-1,1
1558434075844047,-1,-2,-7,3,6,7,4,2
1558434075844047,-5,-5,-3,-7,-10,-5,-7,-5
1558434075845043,3,4,5,8,4,-1,-1,1
1558434075845043,-1,-3,-10,0,-1,-6,1,0
1558434075858008,-1,3,13,-15,-14,-7,-4,-3
1558434075858008,-1,-1,-3,1,3,1,2,1
1558434075865988,-1,3,3,2,2,4,0,2
1558434075865988,1,-2,5,3,6,3,3,0
1558434075880948,1,-2,-7,-1,1,-2,-1,-2
1558434075880948,0,0,4,-2,-5,-2,-5,-2
1558434075896906,0,-1,-2,-3,-4,-3,-1,-3
1558434075896906,-4,-3,0,0,-5,2,-5,-6
1558434075912873,-4,-7,-10,-5,3,8,1,-3
1558434075912873,-2,0,5,0,-4,-9,-1,-3
1558434075912873,0,-1,0,0,-3,-8,0,0
1558434075912873,-1,0,0,-4,-1,2,-2,-1
1558434075918846,1,4,17,6,9,5,4,3
1558434075918846,-1,-2,-10,-1,-1,3,1,1
1558434075925829,0,1,7,4,1,-1,-5,-2
1558434075925829,3,0,-1,2,3,2,5,8
1558434075940788,-2,0,7,0,-10,-10,-5,-5
1558434075940788,-2,-1,1,-1,0,-2,-2,-3
1558434075948808,-2,0,-5,-5,-2,-4,0,-1
1558434075948808,-4,-1,1,0,-3,2,-5,-4
1558434075972703,0,0,-5,8,7,4,5,4
1558434075972703,0,-1,-2,-3,-2,-4,0,-1
1558434075972703,-1,-2,-6,-4,2,4,3,-4
1558434075972703,-2,-6,-12,-3,-8,-15,-9,-4
1558434075978686,-1,-1,-4,1,5,6,3,2
1558434075978686,1,3,5,4,5,2,0,1
1558434075985667,-4,-4,-1,-1,-6,-3,-6,-3
1558434075985667,-2,1,6,-1,3,9,1,-3
1558434076000628,-2,-3,-14,-8,-6,-9,-3,-2
1558434076000628,-2,-2,6,4,5,-2,0,-1
1558434076009619,-2,-4,-10,-5,-2,5,1,-2
1558434076009619,0,0,5,4,8,2,5,3
1558434076024564,0,4,-1,-3,-11,-10,-3,-1
1558434076024564,-1,-3,-2,-3,-7,-6,-5,-2
1558434076024564,-2,-2,-14,-3,-4,-4,-5,0
1558434076024564,2,-2,7,3,-1,5,1,-3
1558434076038526,0,-4,1,-3,5,8,-1,-2
1558434076038526,-1,0,0,-1,-3,-7,2,0
1558434076045507,-1,-1,2,9,4,1,-3,-3
1558434076045507,-3,-5,-6,-18,-10,-7,-4,-1
1558434076061465,-1,0,0,-3,2,1,-4,-2
1558434076061465,-2,-1,-3,-2,0,2,1,-1
1558434076069443,-1,0,4,-1,0,-1,4,3
1558434076069443,-2,2,-1,3,-3,-9,-4,-1
1558434076092382,-1,-1,8,2,-1,10,0,-4
1558434076092382,0,-3,-9,0,-4,-11,2,1
1558434076093381,3,3,8,4,13,15,8,4
1558434076093381,-2,0,-8,2,-5,-6,-5,-3
1558434076098367,-3,-2,-3,-9,-3,-5,-5,-1
1558434076098367,-1,-1,4,0,0,3,-2,-1
1558434076114323,-2,1,1,0,-5,0,-1,-2
1558434076114323,-3,-4,1,-1,-3,-1,0,-2
1558434076121305,4,3,-1,7,13,5,5,7
1558434076121305,-4,0,12,-2,-8,-5,-6,-1
1558434076129283,-3,-3,-10,-4,-3,-8,-4,0
1558434076129283,-2,3,0,1,7,5,2,2
1558434076144244,-2,0,1,-8,-16,-7,-2,-1
1558434076144244,-1,-5,-21,1,4,7,1,-1
1558434076145241,0,0,6,-3,-6,-8,0,-3
1558434076145241,0,1,3,5,0,2,0,-3
1558434076158207,0,0,-2,-1,4,0,3,1
1558434076158207,0,-2,-3,-6,-5,-2,-5,-3
1558434076166186,1,-2,-5,-1,-4,-3,-2,-3
1558434076166186,-2,-3,2,-5,2,3,3,-1
1558434076181146,0,0,-7,4,-2,-5,-2,0
1558434076181146,-3,-2,-1,0,1,3,0,-2
1558434076190131,-3,-3,1,-2,-3,-4,-7,-2
1558434076190131,2,6,8,2,5,1,2,3
1558434076204095,-1,0,8,7,3,-5,2,-1
1558434076204095,-2,0,-3,-8,-5,2,-1,-2
1558434076205083,1,-2,-5,-3,0,3,-3,-2
1558434076205083,0,-1,1,-2,8,9,6,4
1558434076219049,-1,-1,1,2,-7,-10,-1,-1
1558434076219049,-1,-2,-5,-1,-2,0,-1,0
1558434076226130,-1,0,0,-1,-10,-3,-9,-3
1558434076226130,-3,-3,0,-4,-3,3,-1,0
1558434076241108,0,-3,-5,2,11,12,6,3
1558434076241108,2,1,7,3,4,-4,0,1
1558434076249072,1,4,2,-6,-3,4,0,-4
1558434076249072,-4,-4,-2,-4,-10,-14,-9,-4
1558434076263924,-3,-4,-17,-3,-7,-12,-3,-1
1558434076263924,0,0,-1,1,-2,0,-1,-1
1558434076264921,0,1,10,5,6,1,3,3
1558434076264921,-1,-5,-7,-6,-6,6,1,-4
1558434076278886,-1,-3,3,-4,-7,0,-5,-5
1558434076278886,-1,1,1,2,4,-2,-2,0
1558434076286103,-2,-3,-8,2,5,0,2,3
1558434076286103,1,2,2,3,1,-3,1,1
1558434076301036,-2,0,3,-2,-4,1,-3,-2
1558434076301036,-2,-1,2,-1,-2,-6,-3,-3
1558434076308867,-3,-4,-9,-4,-5,0,-4,-4
1558434076308867,-1,-4,6,0,1,4,1,-2
1558434076323767,-1,4,4,0,-4,-13,-3,-2
1558434076323767,-2,-2,2,-5,-4,5,0,-1
1558434076324764,1,1,5,6,2,-8,3,3
1558434076324764,1,2,-1,0,1,4,1,-2
1558434076338723,-1,-5,-8,2,1,1,1,0
1558434076338723,2,1,3,0,-3,-1,1,-1
1558434076345706,-1,-1,-4,-6,-2,-3,-5,1
1558434076345706,-2,-2,-3,-3,-8,-1,-2,-2
1558434076369640,-3,-3,-9,0,3,3,-5,-4
1558434076369640,2,6,7,7,10,0,5,2
1558434076369640,-3,-9,-18,-2,-3,0,0,-1
1558434076369640,0,0,-7,-6,-3,-1,-2,-2
1558434076384600,-1,-3,0,-1,-5,1,-6,-4
1558434076384600,-4,-3,-2,-9,-11,-1,-2,-1
1558434076384600,-1,-2,1,0,-3,-8,-1,-1
1558434076384600,1,-2,1,3,5,-8,2,3
1558434076398565,0,-2,-2,-4,2,3,-1,-2
1558434076398565,-1,-1,-2,-1,-4,0,-5,-4
1558434076405545,0,1,3,5,6,-9,-1,1
1558434076405545,-1,-2,-1,-11,-6,-2,-4,-4
1558434076420505,0,1,1,-2,-1,0,-2,1
1558434076420505,-1,0,-2,2,3,1,-3,0
1558434076428485,-2,-1,8,-5,-7,3,-3,-4
1558434076428485,-1,-3,-14,3,0,3,0,0
1558434076444441,-1,1,3,-1,-2,-11,-4,2
1558434076444441,-2,-3,-4,4,3,-1,-1,0
1558434076444441,-1,-1,-3,-7,-4,8,5,-1
1558434076444441,0,2,0,3,-3,-11,-7,-3
1558434076458402,-3,-3,-7,-3,-2,5,-1,-3
1558434076458402,-1,-3,0,2,-2,-3,0,-1
1558434076466381,0,-1,-3,-3,-7,-4,-6,-4
1558434076466381,-2,-4,-1,5,9,8,3,0
1558434076481343,-1,-3,-3,-6,4,2,1,1
1558434076481343,-1,0,1,2,-1,-6,1,1
1558434076488324,-3,-1,1,-3,-1,6,2,-1
1558434076488324,-2,1,0,-5,-11,-5,-9,-5
1558434076503326,1,-3,-5,9,7,2,7,1
1558434076503326,-1,-6,-4,-5,3,4,-1,-2
1558434076511312,-2,2,6,-3,-3,3,0,-5
1558434076511312,-2,2,0,3,3,-6,-1,1
1558434076518275,0,-1,-4,-2,-2,-4,2,2
1558434076518275,-2,-1,0,-4,-6,-4,-1,-2
1558434076526256,2,2,10,1,6,2,-2,-1
1558434076526256,-1,-5,-6,-1,-3,-3,-3,-1
1558434076541181,0,1,6,-4,-10,2,0,-5
1558434076541181,1,1,2,-1,-3,-3,-3,0
1558434076548165,2,0,-4,9,5,-4,4,5
1558434076548165,0,0,0,-10,-2,1,-1,0
1558434076572098,-1,-3,-10,-2,-2,-3,-4,-3
1558434076572098,-2,0,-7,-2,-4,1,-3,-2
1558434076573096,-1,0,7,2,-3,-6,-2,-4
1558434076573096,-3,0,4,5,3,2,1,-1
1558434076578083,-2,-2,-1,0,-1,1,-2,-3
1558434076578083,-2,-5,-16,-4,-3,-9,-1,0
1558434076586063,-1,-4,-8,-3,2,0,4,2
1558434076586063,1,1,-1,-3,-5,-7,0,0
1558434076601022,1,2,5,2,-3,-3,-4,-2
1558434076601022,-3,-3,-2,-2,0,3,0,-2
1558434076608002,0,0,-1,0,4,4,0,0
1558434076608002,-3,-1,-3,0,-4,-3,-5,-1
1558434076623959,-3,-4,-2,-2,-7,-6,-7,-2
1558434076623959,1,1,-7,-2,6,1,2,2
1558434076631966,-1,-5,-4,-4,-2,-1,-3,1
1558434076631966,-2,0,6,1,-2,-5,4,-1
1558434076638920,-1,2,3,1,4,4,4,1
1558434076638920,-2,-1,0,-2,-5,0,1,-1
1558434076645902,-3,1,4,-1,-4,-3,0,-3
1558434076645902,0,0,-13,-5,-4,0,-5,-2
1558434076661203,-1,2,3,-2,3,4,1,1
1558434076661203,0,0,1,3,-1,-4,-3,-6
1558434076668842,-1,1,4,1,1,5,2,-3
1558434076668842,2,2,6,3,4,-2,2,1
1558434076684113,-3,-5,-1,-8,-11,-1,2,-1
1558434076684113,-1,0,2,-3,-3,0,-3,1
1558434076692107,-2,-3,-14,-2,-3,-2,-3,-1
1558434076692107,-3,-5,-3,-1,-3,4,-2,-6
1558434076707062,0,1,3,0,4,2,3,0
1558434076707062,1,1,-1,5,5,-1,1,1
1558434076707738,-2,-2,2,-2,-3,-10,-2,0
1558434076707738,1,0,1,-3,1,-2,-2,1
1558434076721848,-2,-5,-10,-3,-3,-1,-2,-2
1558434076721848,-3,-2,-3,-3,-6,-1,-1,-2
1558434076728682,-1,-2,-4,-5,-4,-2,-7,-3
1558434076728682,0,2,0,10,12,15,8,4
1558434076743933,-1,-1,0,-6,-3,-13,-5,-2
1558434076743933,-3,-1,4,-5,-6,1,-4,-2
1558434076751620,-3,-4,-11,-1,-3,-6,-1,0
1558434076751620,0,1,-1,-4,-3,-7,0,0
1558434076766579,1,0,0,5,6,4,0,0
1558434076766579,1,0,-5,-1,1,2,-1,0
1558434076767577,0,2,8,-1,-4,-2,-1,1
1558434076767577,-2,-4,-4,-5,-7,-5,-5,-3
1558434076780541,-2,1,13,-1,-7,-3,-3,-1
1558434076780541,0,-2,-5,-4,4,3,0,1
1558434076788549,1,-1,-8,9,15,10,7,2
1558434076788549,-1,-4,-1,-3,-7,-9,-5,-3
1558434076803916,0,-1,-2,-5,-6,0,-3,-2
1558434076803916,0,-2,5,1,2,0,3,0
1558434076811674,0,-1,-1,-1,-4,0,-4,-2
1558434076811674,-1,-1,1,-1,6,2,4,0
1558434076827625,-3,-1,-7,-2,-4,-5,-4,-2
1558434076827625,-4,-9,-8,2,-6,-5,-3,-3
1558434076827625,1,3,11,-4,3,0,0,-1
1558434076827625,1,3,-5,-5,-2,-3,1,-1
1558434076841786,-1,-3,-4,-2,-1,-1,-2,0
1558434076841786,-1,-1,1,0,-2,2,1,-1
1558434076848768,-1,-1,7,2,5,4,3,2
1558434076848768,-1,-1,6,3,3,5,1,0
1558434076863322,-1,-2,-8,-2,-1,-4,-4,-2
1558434076863322,0,2,5,-2,0,-2,0,-1
1558434076872531,-2,-3,-12,0,1,-2,-7,-4
1558434076872531,1,5,5,3,1,-1,1,1
1558434076887327,2,1,-2,-1,3,4,2,1
1558434076887327,-1,-2,-1,-2,-1,0,1,0
1558434076888484,0,-1,0,6,-3,-6,-2,-1
1558434076888484,0,-3,-5,-8,-5,0,-2,1
1558434076901553,0,0,1,0,-1,-1,-2,-2
1558434076901553,4,5,11,3,5,-8,3,2
1558434076909374,0,-6,-24,0,0,9,4,-1
1558434076909374,-3,0,8,-3,-8,-6,-4,-1
1558434076924338,-2,0,1,-2,-5,-5,-2,-1
1558434076924338,-1,-2,-4,-8,-5,0,-3,-1
1558434076932138,1,1,4,4,10,5,3,3
1558434076932138,-1,-4,-3,3,3,3,0,-1
1558434076947099,-4,0,1,-2,-8,-4,-3,-5
1558434076947099,-2,-3,-4,1,-3,4,2,0
1558434076947099,0,-1,5,0,-1,-8,5,3
1558434076947099,0,-3,-3,-6,-2,2,-3,-3
1558434076961093,0,-1,0,4,5,6,0,0
1558434076961093,0,1,-4,-2,-1,-13,-7,-1
1558434076968042,-3,0,0,-5,-4,1,-2,-2
1558434076968042,-1,-4,-14,0,-4,-10,-5,0
1558434076983998,0,-1,-9,0,4,3,3,-1
1558434076983998,-1,-1,5,0,-4,1,2,-3
1558434076992057,-1,-3,-3,-5,-5,-4,0,1
1558434076992057,0,1,4,1,3,-1,3,3
1558434077007078,0,0,3,3,4,1,-1,-1
1558434077007078,-2,-4,-10,-2,-8,-7,-7,-3
1558434077007934,-2,0,3,0,0,7,-3,-5
1558434077007934,-1,1,3,4,-2,0,-1,-2
1558434077021041,0,0,3,1,-1,-4,2,2
1558434077021041,-1,1,5,-2,-3,-4,-2,-1
1558434077028879,0,-1,8,-2,-3,-6,-5,-4
1558434077028879,-3,-3,-10,-3,-6,-2,-2,-4
1558434077043985,-1,-4,-3,-3,5,-2,3,0
1558434077043985,1,-1,6,7,6,2,0,-2
1558434077051905,-1,-5,-16,-11,-7,-4,-3,0
1558434077051905,0,2,6,4,-3,-5,-4,-3
1558434077066804,-4,-1,0,-4,-7,-2,1,0
1558434077066804,1,1,1,3,5,3,1,1
1558434077067774,-1,-1,-1,-3,-1,1,0,-1
1558434077067774,-2,-5,-2,0,1,5,-1,0
1558434077080738,2,-1,4,2,-1,-5,3,2
1558434077080738,-1,0,-5,-3,-4,-2,-2,-1
1558434077088749,-3,-3,-4,-4,0,7,0,-3
1558434077088749,-3,-1,-2,-3,-2,-4,-1,-2
1558434077103680,1,1,8,7,8,0,3,1
1558434077103680,-2,-1,-5,-5,-4,1,-2,-3
1558434077111656,0,1,3,1,-1,-5,-5,-1
1558434077111656,-2,-1,2,1,3,1,-2,-1
1558434077134596,0,-1,-8,-9,-7,-2,-3,1
1558434077134596,-4,-2,10,0,1,1,-2,-3
1558434077135593,-2,-2,-6,-3,-4,-2,-1,-3
1558434077135593,0,-2,0,3,2,-6,-1,0
1558434077140577,0,1,2,-1,-2,-2,-3,-1
1558434077140577,-1,0,2,-1,-1,4,1,1
1558434077148557,0,-1,2,-3,-6,-5,-9,-3
1558434077148557,-1,0,-1,-1,0,7,2,-1
1558434077163518,-2,-1,-2,5,-1,-1,-1,-1
1558434077163518,3,3,4,1,9,3,6,2
1558434077171533,-2,-4,-9,-2,-3,-5,2,0
1558434077171533,1,0,-2,0,1,2,5,4
1558434077186457,-2,-1,0,-5,-4,4,-5,-4
1558434077186457,-3,-5,-8,-1,-6,-4,-2,-4
1558434077187462,2,6,14,4,5,-2,3,2
1558434077187462,-1,-3,-7,1,-2,-2,-1,-3
1558434077201421,-2,-1,2,-1,0,4,-1,-1
1558434077201421,-3,-2,-17,0,-1,-9,-4,1
1558434077208427,-2,1,5,-4,1,4,0,0
1558434077208427,-3,-3,-1,-4,-1,-6,-1,1
1558434077223364,-3,-5,-5,-1,-6,-6,-6,-4
1558434077223364,0,-1,0,0,4,11,0,-2
1558434077231344,-1,-1,-7,4,-1,-4,-1,-3
1558434077231344,-1,-1,-8,-9,-10,2,1,-2
1558434077247294,-2,0,2,0,6,-1,4,3
1558434077247294,-1,1,2,5,2,-3,0,0
1558434077247294,-3,-6,-6,-8,-7,-8,-3,-1
1558434077247294,-3,1,4,0,-3,-5,0,0
1558434077261264,0,-3,-4,2,3,3,0,1
1558434077261264,1,-1,0,-5,-4,-4,-5,-2
1558434077277216,1,4,5,2,4,3,1,3
1558434077277216,-2,3,-1,-2,-1,0,-4,-3
1558434077283247,0,-6,-4,-2,-3,-2,-6,-4
1558434077283247,-2,-2,-3,2,-1,-5,-2,-2
1558434077292174,1,2,5,2,-1,-2,2,2
1558434077292174,0,0,4,2,4,0,0,-1
1558434077307141,-2,1,-2,1,2,-2,1,-1
1558434077307141,-2,-5,-7,-7,-3,1,-1,-1
1558434077307141,-2,-3,3,5,5,3,-3,-3
1558434077307141,-2,-1,8,1,4,-1,0,-1
1558434077321145,1,-2,4,-4,-10,-12,-4,0
1558434077321145,1,-2,-9,-5,-5,-7,1,0
1558434077329083,0,1,0,-2,-4,5,-1,-1
1558434077329083,-3,-4,-6,-1,-4,3,-6,-5
1558434077344037,1,2,1,2,1,10,4,-1
1558434077344037,-1,-2,-6,-2,1,-9,0,1
1558434077352070,-1,0,3,2,1,-1,-1,-1
1558434077352070,-1,-3,-9,-9,-3,-4,-4,-2
1558434077366978,-3,-1,-2,-2,-2,-2,-4,-3
1558434077366978,0,-3,-14,1,7,6,5,0
1558434077366978,-3,1,4,4,1,2,1,-3
1558434077366978,1,1,4,2,3,-6,-3,1
1558434077380936,-1,-3,-7,-4,0,2,2,0
1558434077380936,2,-1,6,0,0,5,3,0
1558434077388915,-1,-5,-8,-6,-5,-2,-2,-3
1558434077388915,0,0,4,2,-4,4,1,-1
1558434077403904,1,3,4,-2,-1,-3,-1,1
1558434077403904,-1,1,3,-1,-4,-6,-4,0
1558434077411853,2,-3,-6,-1,2,3,1,1
1558434077411853,1,-1,2,1,1,0,1,1
1558434077426095,-2,0,7,1,3,-4,1,-1
1558434077426095,-4,2,-8,-2,-5,-1,-2,-3
1558434077434056,-3,-1,-4,-6,-7,-2,-3,0
1558434077434056,-1,0,2,2,-1,-10,-3,0
1558434077441038,-1,0,3,0,-2,-7,-5,-1
1558434077441038,0,0,7,0,3,12,4,-1
1558434077449024,-2,-2,-1,-3,-5,-4,-1,-2
1558434077449024,1,0,-4,4,9,14,7,3
1558434077463713,-3,-4,-15,3,-3,-2,0,0
1558434077463713,0,3,14,0,2,1,0,0
1558434077471960,-1,-3,-3,-6,-7,-10,-5,-1
1558434077471960,0,0,3,-8,-9,-9,-4,-3
1558434077486766,-2,-1,-8,-4,1,3,-4,-4
1558434077486766,-1,-2,2,1,-6,-2,-2,-1
1558434077494744,0,-1,4,3,4,0,2,1
1558434077494744,1,2,7,1,2,-3,-5,0
1558434077500872,-1,-3,-10,-1,2,3,3,2
1558434077500872,-4,-3,2,-1,1,6,-2,-2
1558434077508856,-1,2,1,-1,-3,-6,-2,0
1558434077508856,1,-2,-6,2,-2,-5,1,-2
1558434077523787,0,-2,1,-6,-2,1,-1,-2
1558434077523787,-2,-3,0,-3,-2,-3,-4,-4
1558434077531761,-2,-1,-3,-3,-4,-1,-2,-2
1558434077531761,-3,-6,-8,2,3,1,1,-1
1558434077546493,3,0,8,2,2,6,3,1
1558434077546493,-1,-1,-4,2,-3,2,-2,-1
1558434077554695,-1,2,8,7,-6,-5,1,-1
1558434077554695,-6,-6,-17,-6,-5,-2,-3,-6
1558434077561454,-4,-3,-2,-4,-6,-4,-3,-3
1558434077561454,-1,-1,5,-1,-3,-2,-4,-2
1558434077576422,1,0,-3,5,7,2,1,3
1558434077576422,2,2,10,1,-2,-2,1,1
1558434077583395,1,0,-1,2,7,4,2,0
1558434077583395,-4,-5,-4,1,-3,-7,-6,-2
1558434077592445,-1,-2,-3,-7,0,-1,-2,-1
1558434077592445,-1,2,7,1,7,11,3,2
1558434077606335,-1,1,-7,-1,-2,0,-4,-3
1558434077606335,-3,0,-4,-3,-2,-4,0,-1
1558434077614313,-2,-2,-1,-4,-5,-7,-4,-3
1558434077614313,-3,-3,-4,-4,-2,3,-6,-3
1558434077629272,-1,0,7,0,1,-3,-1,1
1558434077629272,1,-1,-11,2,5,6,2,-1
1558434077630638,-2,-4,-9,-1,-5,-5,-1,-2
1558434077630638,1,1,5,1,2,1,0,0
1558434077644267,-2,2,8,0,-5,1,-1,0
1558434077644267,0,-1,-3,-5,-3,-10,-2,0
1558434077652553,-1,0,6,-1,-2,-1,-4,-3
1558434077652553,-4,-4,-18,-3,1,3,-2,-5
1558434077666511,1,1,2,3,1,-1,0,-1
1558434077666511,1,-1,0,-6,-2,-8,1,1
1558434077674484,2,1,4,9,8,4,4,1
1558434077674484,-3,-1,0,-9,-6,-9,2,0
1558434077689447,0,-4,-6,-1,8,3,4,1
1558434077689447,0,2,-1,-2,-3,3,-2,-1
1558434077690110,-2,-2,4,-2,-9,2,-5,-5
1558434077690110,-1,0,12,1,-8,-6,-4,-3
1558434077704382,-2,-6,-15,-3,-4,-6,-1,-1
1558434077704382,1,2,8,4,3,-6,-1,0
1558434077712052,-1,0,-5,-3,1,0,2,0
1558434077712052,0,1,6,5,1,3,-3,0
1558434077726324,-3,-3,-4,-7,-6,-2,-4,-1
1558434077726324,-3,-3,-5,0,0,2,-1,-1
1558434077734236,0,0,10,-3,1,0,-1,-2
1558434077734236,0,-4,-5,0,-3,-6,-2,-1
1558434077749951,1,2,2,2,0,-2,3,0
1558434077749951,-1,-2,-5,0,-3,2,-1,-5
1558434077749951,-4,-3,-6,-7,-4,-2,-1,0
1558434077749951,0,1,1,4,5,10,7,1
1558434077763949,0,1,11,-3,-1,3,1,-1
1558434077763949,-3,-3,0,1,5,6,2,-1
1558434077772042,0,-3,-5,-1,1,-6,-3,0
1558434077772042,2,1,-2,2,-4,-5,-5,-1
1558434077786083,-1,-3,-2,-9,-5,-4,-9,0
1558434077786083,0,-2,-6,-1,1,1,0,0
1558434077793843,0,-2,2,0,5,8,1,-2
1558434077793843,-4,-6,-11,-3,-2,-3,-3,-4
1558434077808822,-1,3,6,6,5,-4,2,2
1558434077808822,0,1,1,-2,0,-2,-1,-1
1558434077809789,-3,-2,-5,1,-4,-6,-3,-2
1558434077809789,-3,0,1,-5,-5,7,1,-2
1558434077823803,-1,-5,-11,4,1,-6,1,2
1558434077823803,-1,2,4,-3,-5,-2,-1,0
1558434077831787,-1,-1,-7,-2,-3,-1,0,-3
1558434077831787,-2,-1,-1,2,-1,0,1,-2
1558434077845695,-2,-4,-10,-12,-12,-2,-7,-5
1558434077845695,2,0,6,6,5,0,2,4
1558434077855020,1,3,1,4,5,-5,2,4
1558434077855020,-1,-4,-4,-4,-5,-5,-3,-1
1558434077869109,-2,1,5,1,0,4,-3,-3
1558434077869109,-1,-3,-1,-2,-3,1,-4,-1
1558434077869632,0,0,6,0,-1,4,0,-2
1558434077869632,-1,-4,-6,2,5,-5,2,2
1558434077883921,-2,-1,-1,3,1,-3,0,-1
1558434077883921,-3,0,2,-8,-11,-2,-2,-3
1558434077891908,-2,-5,-10,2,4,5,1,0
1558434077891908,1,5,7,-1,-4,-2,-5,-2
1558434077906815,-4,-6,-1,-1,-2,4,3,2
1558434077906815,-2,-3,-3,-3,-4,-6,-4,-3
1558434077914815,-3,-4,-3,-3,-6,-1,-5,-2
1558434077914815,0,4,-2,4,0,-5,-3,0
1558434077929469,-1,2,1,-8,0,3,2,1
1558434077929469,1,-1,-5,2,-2,-1,1,-2
1558434077930545,-1,3,1,-3,2,0,2,-1
1558434077930545,-1,-2,-7,-1,-1,4,2,0
1558434077943721,1,1,1,4,0,-7,0,0
1558434077943721,-4,-7,-7,-2,4,-1,-2,-1
1558434077951439,-1,2,4,-1,-4,-5,-2,-1
1558434077951439,-5,-5,-9,-7,-6,-2,-3,-3
1558434077966662,2,3,6,3,5,-2,-2,-1
1558434077966662,2,0,-2,1,-1,-2,3,2
1558434077974631,-1,-1,5,2,5,2,-1,1
1558434077974631,-1,-2,-6,0,3,3,2,2
1558434077989337,-3,-5,-6,-3,-5,-1,-4,-6
1558434077989337,-3,1,0,-1,-1,1,-6,-4
1558434077990306,-4,-3,-4,-4,2,5,4,0
1558434077990306,1,4,6,0,-4,-10,-3,2
1558434078003298,0,-1,-7,0,-4,-4,-4,-2
1558434078003298,2,0,8,0,0,0,1,0
1558434078011430,0,0,-6,0,0,-4,-1,-1
1558434078011430,0,-3,0,-1,8,4,-1,-1
1558434078035693,0,1,5,8,1,5,3,-2
1558434078035693,-1,-4,-12,-3,1,-3,-1,0
1558434078035693,0,-1,-4,-5,-6,-2,-1,0
1558434078035693,-2,1,4,-2,4,4,2,1
1558434078049524,-3,-3,-4,-2,-6,-9,-5,-1
1558434078049524,-2,-2,-2,2,9,9,5,0
1558434078050147,0,-4,-8,-2,-8,-2,-1,-3
1558434078050147,2,1,5,-4,-5,-8,-5,-3
1558434078064112,1,-3,-3,0,-4,3,-1,1
1558434078064112,-1,4,13,0,1,3,-2,-2
1558434078071455,-1,-1,-3,-2,-3,-6,-4,-2
1558434078071455,-1,-1,-1,4,5,1,2,-1
1558434078086199,0,-2,-3,-10,-12,-8,-7,-2
1558434078086199,1,1,-1,1,-1,2,2,1
1558434078094388,-2,-1,-2,-3,4,3,-1,-1
1558434078094388,-4,-6,-16,-7,-11,-8,-4,-3
1558434078109991,-2,-1,7,3,7,3,2,-1
1558434078109991,-2,-6,-16,-5,-8,-10,-5,-3
1558434078109991,2,-3,1,0,0,0,0,2
1558434078109991,1,1,8,7,2,-5,1,1
1558434078124313,0,0,-4,-4,4,3,2,-1
1558434078124313,0,0,-1,-3,-1,1,-1,-2
1558434078130968,-2,-2,-2,0,0,1,-2,-1
1558434078130968,0,-3,-5,-3,-1,-3,-1,-2
1558434078145889,0,1,0,0,-4,-4,0,0
1558434078145889,-2,-2,1,-4,-5,-5,-2,-1
1558434078153868,-3,-1,-3,-1,0,4,-1,-2
1558434078153868,-2,2,14,1,-1,-1,-2,0
1558434078168828,-2,-6,-20,1,-3,-9,-4,0
1558434078168828,-1,-1,1,0,3,1,1,-1
1558434078169827,-1,2,3,-1,0,0,-1,1
1558434078169827,-1,-1,-3,-5,-3,6,2,-1
1558434078183789,-1,1,8,0,-1,-2,1,-1
1558434078183789,0,-1,-2,2,-3,-2,0,0
1558434078190768,0,-2,-4,-2,-3,-8,-5,0
1558434078190768,-2,-1,-1,-6,-3,-4,-7,0
1558434078205729,-3,-1,-9,-3,4,4,0,-1
1558434078205729,-1,1,2,5,9,-1,2,1
1558434078213723,-3,-3,3,-4,-4,-2,2,-1
1558434078213723,-1,-2,-2,2,0,-1,-1,1
1558434078228669,-1,-1,5,2,-2,3,-2,-2
1558434078228669,-1,-2,-3,-6,-9,-6,-5,-3
1558434078229665,2,1,-9,0,2,-3,1,1
1558434078229665,1,-3,-1,-1,-1,-1,1,-3
1558434078243628,1,1,4,0,3,4,1,-1
1558434078243628,-2,2,7,2,-1,-1,-3,-2
1558434078250609,-1,-1,1,-1,2,3,0,-1
1558434078250609,-1,-4,-7,-1,4,3,2,0
1558434078265570,1,2,6,2,3,-3,1,2
1558434078265570,-2,-6,-8,-4,-1,5,-2,0
1558434078274548,-1,2,7,0,-6,-4,-5,-2
1558434078274548,-1,1,4,1,-3,-8,-1,1
1558434078289608,-2,-4,-4,-2,-2,1,-2,-4
1558434078289608,0,1,-1,-2,-5,-5,-3,-1
1558434078289608,-2,-5,-3,3,4,15,4,-1
1558434078289608,-1,0,-1,-9,-4,-3,-1,2
1558434078311446,-2,0,-2,0,-5,-5,1,-2
1558434078311446,-3,-6,-2,-3,-1,1,-2,-4
1558434078312451,1,4,10,6,4,-8,-4,1
1558434078312451,-1,-3,-4,-3,-5,3,-1,-4
1558434078326411,0,-4,-7,-4,-2,-1,-1,-1
1558434078326411,2,0,0,2,1,-1,0,1
1558434078334385,0,-2,-3,0,-1,-1,2,0
1558434078334385,0,-2,-1,5,6,4,1,0
1558434078349345,-2,1,5,-5,-2,-4,-4,0
1558434078349345,-2,0,-1,3,-3,3,2,-2
1558434078349345,-2,-2,-6,0,-2,1,0,-3
1558434078349345,-2,3,7,0,-1,0,-1,-2
1558434078363310,-2,0,-2,0,-2,0,-3,0
1558434078363310,-1,-1,-13,-4,-3,-6,-2,-1
1558434078371287,2,4,8,0,-2,-7,-1,1
1558434078371287,-1,1,15,3,-1,-1,-1,-2
1558434078386245,-2,-4,-12,-7,0,0,-2,0
1558434078386245,-2,-4,-3,-3,-3,1,-2,-4
1558434078394226,-2,-3,-4,-7,-6,-4,-5,-3
1558434078394226,-2,-7,-11,2,-2,-3,0,-1
1558434078408277,2,6,17,8,3,-2,1,2
1558434078408277,-2,-1,-2,-3,1,-5,-1,1
1558434078416256,-4,-1,-2,-3,-2,0,-4,-2
1558434078416256,-4,-2,0,4,5,-1,-3,-1
1558434078424147,-2,-3,-3,-3,-5,-1,0,-2
1558434078424147,-1,1,3,0,-2,-1,-3,-2
1558434078431128,-3,-7,-4,-6,-2,1,0,-2
1558434078431128,-1,-2,-10,-7,-9,-5,-3,-2
1558434078446094,-2,2,-3,2,5,4,4,1
1558434078446094,4,3,5,8,10,0,4,3
1558434078454066,-1,2,18,-2,2,0,-2,2
1558434078454066,-4,-6,-23,-5,-9,0,-2,-3
1558434078468118,-2,1,4,-3,-3,-2,-4,-4
1558434078468118,0,-3,3,-1,-8,-2,-1,-3
1558434078477085,2,1,-2,1,-7,-10,-3,-1
1558434078477085,-2,-2,15,-6,0,-3,-2,-2
1558434078482989,4,5,2,9,11,12,8,7
1558434078482989,-3,-3,-11,-5,-6,-7,-6,0
1558434078491040,0,7,25,6,5,8,-2,-1
1558434078491040,0,5,5,-1,-8,-2,-4,-1
1558434078505929,-4,-11,-1,4,2,-1,2,-1
1558434078505929,-1,5,-5,-4,5,4,0,-1
1558434078513905,-4,-13,-21,-4,-9,-13,-5,-4
1558434078513905,1,0,-6,1,8,12,10,3
1558434078528871,2,5,11,6,6,6,1,0
1558434078528871,-4,-4,-1,-4,-4,-1,-5,1
1558434078536975,-1,-3,-11,-2,-5,-9,-7,-3
1558434078536975,1,0,-1,-6,-2,0,-3,0
1558434078551931,0,-3,-7,-3,-1,-5,-2,-1
1558434078551931,-2,0,6,3,-1,0,0,0
1558434078551931,-1,1,-3,-4,-5,-1,-1,-1
1558434078551931,0,-4,-4,0,-3,-1,-3,-2
1558434078565768,-2,-3,-5,-4,-3,0,-2,-2
1558434078565768,2,0,2,2,7,-5,4,3
1558434078573825,-3,-4,-5,-1,4,6,2,-1
1558434078573825,0,3,8,-2,-4,-4,-1,-1
1558434078588779,-5,-5,-9,2,-5,-1,-5,-4
1558434078588779,-2,-3,-5,-9,-9,-9,-5,-2
1558434078596688,-1,-1,-4,1,4,4,2,0
1558434078596688,-1,-2,4,3,4,0,-1,0
1558434078611644,1,-1,1,0,0,-4,-3,-3
1558434078611644,0,-1,3,0,0,1,0,-3
1558434078612640,0,-1,-8,-3,-1,-1,0,-2
1558434078612640,-2,-2,-1,2,-2,-2,-4,-2
1558434078625605,0,-2,-15,-9,-8,-6,-1,-1
1558434078625605,-2,-3,-1,3,0,0,-1,-2
1558434078634581,-2,0,7,-8,-2,0,2,-1
1558434078634581,-2,-5,-6,4,4,-2,4,1
1558434078648588,0,4,16,1,-1,-2,-1,0
1558434078648588,1,4,3,-3,-2,3,1,2
1558434078656523,0,-2,-10,6,-2,-4,-3,1
1558434078656523,0,-1,5,-1,1,1,-2,1
1558434078671641,-4,1,-3,-2,-2,-3,-4,0
1558434078671641,-3,-4,-12,-1,-1,5,0,-2
1558434078672484,0,-5,-10,-5,-3,-1,1,-1
1558434078672484,3,9,20,5,5,-3,-1,-1
1558434078685447,-3,-5,-11,-2,-9,-4,-3,-3
1558434078685447,-5,-3,-3,-8,-4,-4,-4,-4
1558434078694421,0,1,-2,6,5,4,2,0
1558434078694421,0,-2,-8,-4,-6,-2,3,-1
1558434078708386,2,-3,-2,-1,3,1,-2,-1
1558434078708386,2,7,17,6,3,0,3,0
1558434078716365,-1,-3,3,-2,-3,-3,-2,0
1558434078716365,-4,-1,-1,3,2,2,-3,-2
1558434078731336,-2,1,2,0,-2,-1,-1,-1
1558434078731336,-1,-5,-14,-2,-4,-3,-1,-2
1558434078732320,0,0,3,4,0,-1,0,-1
1558434078732320,-1,-2,-10,-9,-6,0,-1,-2
1558434078746286,0,-2,0,-1,-3,-4,-2,0
1558434078746286,2,-3,7,-2,4,1,-2,0
1558434078754261,0,-1,-1,3,1,-1,-1,-2
1558434078754261,-1,-2,-4,2,0,-3,-1,-3
1558434078768311,-2,-1,2,-5,-5,-3,-1,-2
1558434078768311,-2,0,-1,-2,-1,0,-2,-1
1558434078776206,-1,-3,-4,1,1,-2,-1,1
1558434078776206,1,0,-1,-3,2,6,5,4
1558434078793401,-1,-3,-1,-5,-4,-3,-4,-5
1558434078793401,-1,1,-4,-5,-3,-3,-2,0
1558434078793401,-2,-1,-4,-2,0,3,0,-1
1558434078793401,-1,-2,-7,0,5,1,0,-1
1558434078806127,1,-1,-1,2,-3,1,1,1
1558434078806127,-1,0,8,2,-2,0,0,-4
1558434078814103,-4,-3,-6,-5,-5,-4,-5,-5
1558434078814103,0,1,-2,-3,-1,1,-1,-2
1558434078829063,-2,-5,-4,1,2,-2,0,-1
1558434078829063,-1,-2,-6,-7,-6,-2,-3,-4
1558434078837041,2,2,6,2,1,0,5,3
1558434078837041,-1,-2,0,5,0,0,-3,-1
1558434078852005,-4,-4,-6,-9,-3,-1,-4,-2
1558434078852005,-2,-2,-4,-3,-7,-2,0,0
1558434078852005,0,2,3,3,10,10,6,1
1558434078852005,-3,-5,-3,-3,-8,-8,-7,-4
1558434078865962,-1,2,4,0,-5,-9,0,-2
1558434078865962,1,3,6,9,14,11,6,3
1558434078873941,-1,-2,-3,-4,-14,-9,-7,-2
1558434078873941,-2,-5,-4,0,2,6,-2,-3
1558434078888903,0,0,5,3,0,-3,0,-1
1558434078888903,1,-4,-3,-2,-8,-6,-5,-1
1558434078896884,0,2,-1,-1,-2,-5,-1,1
1558434078896884,-1,1,-2,3,3,-1,-1,1
1558434078911841,-2,-2,-7,-6,-2,0,-5,-1
1558434078911841,-4,-2,1,1,1,0,0,-1
1558434078911841,-4,-10,-17,-7,-1,7,-1,-3
1558434078911841,1,1,6,6,2,-4,3,-2
1558434078925805,-1,-3,-8,-8,-1,6,-1,-2
1558434078925805,-2,-5,-6,2,2,1,2,-2
1558434078933781,0,0,4,-5,-11,-13,-10,-3
1558434078933781,-3,-1,1,-3,-2,-1,0,-2
1558434078948741,1,-1,4,9,10,0,1,3
1558434078948741,0,-2,-1,-2,-11,-10,-9,-6
1558434078956730,2,1,-1,3,10,4,5,1
1558434078956730,-1,-2,-5,-11,-9,-2,0,-1
1558434078971853,-2,-3,-4,-9,-4,4,2,0
1558434078971853,-2,2,-2,-4,-6,-7,-6,-2
1558434078972679,-1,0,4,4,-1,-4,-2,0
1558434078972679,-3,-1,2,3,3,-3,0,1
1558434078985644,-3,-2,-7,-1,-4,-1,-2,-3
1558434078985644,0,0,-1,0,2,3,1,0
1558434078993621,0,-1,0,4,4,-1,-3,-4
1558434078993621,1,1,5,-11,-12,-7,-2,-4
1558434079008582,-2,-6,-8,3,7,9,6,1
1558434079008582,0,-2,-4,-4,-1,1,2,3
1558434079016591,-2,1,1,0,5,2,-3,2
1558434079016591,0,-3,-9,-5,-8,-3,-3,-2
1558434079031520,-4,-2,5,4,-6,-7,-5,-4
1558434079031520,1,0,10,-1,3,4,5,2
1558434079032524,-1,-2,2,-2,-4,5,2,-3
1558434079032524,1,2,1,4,-2,-9,-2,3
1558434079045485,0,-4,-4,-2,3,-3,-3,0
1558434079045485,-3,1,9,2,1,7,-2,-3
1558434079054458,-5,-3,0,-6,-13,-14,-5,-3
1558434079054458,0,0,-1,-4,9,12,6,2
1558434079068434,1,2,5,-1,-3,-9,1,2
1558434079068434,1,-2,-5,3,-4,-9,-4,-1
1558434079076401,0,2,9,-6,-2,-1,-3,-5
1558434079076401,-3,-3,-3,2,-7,-5,-4,-4
1558434079091442,1,1,-11,0,0,-2,0,1
1558434079091442,-1,-2,-4,1,-3,-2,0,1
1558434079092357,0,-2,-6,3,7,3,-2,-1
1558434079092357,-2,-5,-10,-10,-8,1,-1,-2
1558434079115297,-4,-2,1,-11,-8,-4,-4,-2
1558434079115297,-3,-4,-10,-5,0,3,3,-1
1558434079115297,0,1,4,5,5,6,1,0
1558434079115297,0,0,3,6,8,-2,3,1
1558434079128285,-1,-2,-13,-1,-4,-5,-1,-3
1558434079128285,-2,0,2,-4,-4,-5,-5,-1
1558434079136242,-1,-2,-7,-5,-6,-2,-1,0
1558434079136242,-2,3,6,-2,0,4,-5,-3
1558434079151235,-2,-2,4,1,2,3,2,0
1558434079151235,2,3,2,1,3,-7,1,1
1558434079152197,1,1,-1,2,6,1,1,1
1558434079152197,-3,-4,2,-3,-7,-1,-3,-4
1558434079166161,-1,1,8,4,-5,-3,-4,-3
1558434079166161,-2,-4,-19,-5,6,9,2,-2
1558434079174138,-2,-2,-5,-3,-8,-7,-1,1
1558434079174138,0,-2,-10,1,1,-7,-3,-2
1558434079188103,0,3,9,-6,3,-3,-3,1
1558434079188103,-2,-3,-13,-1,-5,4,-2,-3
1558434079197079,0,0,-6,-3,-5,-3,1,0
1558434079197079,-5,-3,3,-2,1,0,0,-2
1558434079212041,-3,-1,0,2,-1,-3,-2,0
1558434079212041,-1,2,3,3,1,-3,-1,-2
1558434079212041,-3,-5,-5,-1,2,3,-1,-2
1558434079212041,1,-3,-8,0,3,0,-1,2
1558434079226003,2,3,9,1,1,2,-1,0
1558434079226003,-1,-6,-19,-8,-7,-4,-3,-2
1558434079233978,0,1,5,5,7,2,2,-1
1558434079233978,1,1,-16,-6,-1,-4,-1,1
1558434079248939,-3,-7,-3,3,3,-2,2,-2
1558434079248939,-1,2,4,-1,4,1,0,0
1558434079256918,0,-1,10,-1,-3,-2,0,-2
1558434079256918,1,4,-2,4,0,2,0,1
1558434079271879,1,4,10,0,0,3,-1,2
1558434079271879,-4,-6,-17,3,0,-3,-1,-2
1558434079271879,-4,-5,-5,-3,-2,-4,-1,-3
1558434079271879,1,5,15,-6,-7,0,3,1
1558434079285840,-3,-10,-33,-2,-3,-2,-3,-6
1558434079285840,3,5,36,7,5,1,-2,1
1558434079293819,2,2,0,3,4,-4,-2,2
1558434079293819,-1,-3,0,6,3,-4,-4,0
1558434079316757,0,5,4,-8,-6,1,3,1
1558434079316757,-5,-11,-23,-5,1,0,-1,-4
1558434079317755,-3,-2,5,-1,-2,3,0,-4
1558434079317755,-1,0,-1,4,1,-10,-3,0
1558434079330721,0,1,-2,2,1,-6,-1,0
1558434079330721,-3,-1,-3,-4,-7,-10,-6,-3
1558434079338707,2,6,7,-2,2,7,5,3
1558434079338707,-4,-4,1,1,-1,-5,-5,-7
1558434079353658,-1,-2,1,-6,-1,5,1,-4
1558434079353658,1,2,9,4,-1,0,0,1
1558434079354656,-1,-1,-11,-7,-11,-2,-3,-3
1558434079354656,-3,-6,-11,2,1,1,-2,-2
1558434079368630,-1,-1,1,-3,2,3,0,0
1558434079368630,-2,2,11,-1,0,-1,0,-1
1558434079376606,-1,-1,-10,-2,-6,-6,-2,-1
1558434079376606,0,0,6,-1,3,2,2,-3
1558434079390565,-1,-3,-18,1,0,-2,1,-2
1558434079390565,1,-1,-4,-4,-5,-4,-2,-2
1558434079399540,-1,1,11,1,4,0,0,1
1558434079399540,-2,-1,1,-3,-3,-1,0,0
1558434079405520,2,2,2,2,-2,-4,-4,0
1558434079405520,-2,1,3,-1,2,0,3,1
1558434079413498,-4,-9,-10,-5,-1,-4,-2,-4
1558434079413498,0,-1,2,2,-6,0,-1,-4
1558434079428503,-1,0,11,-2,-2,-1,-2,-1
1558434079428503,0,-4,-10,-2,3,5,4,2
1558434079436438,0,4,14,3,-1,0,-2,-1
1558434079436438,-6,-6,-16,-6,-5,-4,-4,-2
1558434079450402,0,0,-3,5,10,4,2,0
1558434079450402,-1,0,6,-3,-7,0,-2,-2
1558434079459378,-2,-4,-5,0,-4,-3,-2,-3
1558434079459378,3,1,5,0,2,2,2,1
1558434079466356,1,2,2,0,-3,2,0,-5
1558434079466356,-2,0,2,5,1,-3,-4,-3
1558434079473339,-2,-6,-17,-4,0,1,-1,0
1558434079473339,0,3,-2,-2,2,5,-1,0
1558434079488299,0,0,4,2,2,-2,0,0
1558434079488299,-1,0,2,1,-1,-4,-4,-2
1558434079496284,-5,-2,-2,-3,-5,-8,-6,-2
1558434079496284,0,1,3,-2,3,5,1,1
1558434079511237,1,0,7,-1,-2,-5,-3,1
1558434079511237,0,-2,-5,4,5,5,6,2
1558434079519216,1,0,6,0,1,3,2,3
1558434079519216,-1,-5,-6,-4,-5,-3,-7,-4
1558434079534176,-2,-4,-3,-3,-6,-6,0,-2
1558434079534176,-3,-1,5,-2,-6,-4,-3,-5
1558434079535174,-1,-2,-6,-5,0,-1,-1,-2
1558434079535174,-1,0,0,1,3,0,3,1
1558434079557125,-5,-4,-4,2,-2,4,0,-1
1558434079557125,-1,-1,-4,-6,-3,-5,0,2
1558434079558112,-2,0,-1,2,0,-3,1,-3
1558434079558112,-1,-2,-3,-5,-6,-4,-2,-1
1558434079571089,-2,-1,-2,-2,1,-1,-2,-2
1558434079571089,1,0,2,5,-2,0,-2,-2
1558434079579057,-3,-3,-4,-5,0,0,-2,0
1558434079579057,-1,3,9,2,5,1,-1,-2
1558434079594017,0,1,-1,1,0,0,3,2
1558434079594017,0,0,-5,-2,1,1,-2,-1
1558434079595015,2,0,1,5,0,1,-1,-2
1558434079595015,1,-2,-4,-4,-2,-5,-2,1
1558434079607979,-3,-6,-5,-9,-8,-4,-6,-5
1558434079607979,-1,-3,-8,1,3,2,-1,-3
1558434079616955,2,3,6,9,7,3,7,3
1558434079616955,-5,-3,1,-10,-10,-3,-1,-3
