timestamp,emg1,emg2,emg3,emg4,emg5,emg6,emg7,emg8
1558433967828509,1,2,-1,-1,0,-1,4,-1
1558433967828509,-1,-1,-1,-4,-4,-2,-6,-5
1558433967834487,4,3,4,8,5,1,0,1
1558433967834487,1,3,2,-4,-5,-2,1,2
1558433967835484,-2,-9,-1,-2,0,-5,-3,-1
1558433967835484,-1,-3,-2,1,3,3,4,3
1558433967836482,-1,1,3,1,-2,-1,3,-1
1558433967836482,-9,-9,-23,-15,-7,-1,-6,-5
1558433967847452,1,5,8,4,0,-3,-7,1
1558433967847452,0,3,5,3,-1,2,3,0
1558433967858423,-4,-8,-19,-9,-9,-8,-4,-1
1558433967858423,3,3,-10,-6,1,-2,6,4
1558433967862413,-3,-2,-4,-3,-6,-1,-4,-5
1558433967862413,-3,-12,0,-2,-3,-3,-2,0
1558433967877371,3,11,15,4,-1,4,-2,-1
1558433967877371,-2,-8,-9,0,0,3,0,-2
1558433967885350,1,-1,-1,1,1,0,4,1
1558433967885350,1,5,3,3,4,-2,1,-1
1558433967893330,-1,-4,6,2,-2,-4,-2,-1
1558433967893330,-1,-2,-12,-11,-7,-8,-7,-3
1558433967907292,-5,1,3,3,1,6,-2,-5
1558433967907292,0,1,-2,-4,2,4,-5,0
1558433967917265,1,8,5,3,0,-8,-3,-1
1558433967917265,-1,-6,6,9,6,7,-1,-1
1558433967955164,1,-1,-5,-7,1,1,-1,-1
1558433967955164,-2,0,9,4,0,2,2,-1
1558433967955164,-2,-2,-12,2,5,-7,0,2
1558433967955164,-1,0,3,-7,-6,-3,-2,-7
1558433967956162,-1,-1,1,-2,-4,-5,-7,-1
1558433967956162,1,-1,3,6,2,2,1,0
1558433967959154,1,0,-2,-2,-2,4,2,1
1558433967959154,-2,-1,2,0,2,0,-3,-5
1558433967967132,1,1,-4,6,4,0,1,0
1558433967967132,-6,-11,-2,-8,-7,-2,-1,-2
1558433967976109,-2,0,-16,-11,-2,-1,-1,-3
1558433967976109,-2,-6,-6,-1,-5,-8,-5,-4
1558433967982092,-2,3,8,1,0,4,2,-1
1558433967982092,1,3,2,-1,3,0,0,2
1558433967997052,0,-1,9,7,-4,-2,-4,-2
1558433967997052,-3,-3,-6,-1,-3,2,-1,0
1558433968005031,-1,1,0,3,5,0,3,0
1558433968005031,5,6,8,8,9,1,3,1
1558433968013009,-5,-8,-11,-13,-12,-11,-8,-6
1558433968013009,3,9,1,4,4,4,2,2
1558433968026971,-4,-3,-12,-12,-9,-5,-2,0
1558433968026971,-9,-16,-3,-1,0,-2,-6,-4
1558433968035949,0,-1,8,-1,-7,-1,-3,-3
1558433968035949,2,3,7,2,3,2,-5,0
1558433968041931,3,3,-4,0,-4,-2,2,0
1558433968041931,1,6,-4,0,-3,0,-4,-1
1558433968056893,-3,-3,-4,-4,-4,2,-1,0
1558433968056893,0,0,-3,-1,0,0,2,2
1558433968064871,-6,-8,17,8,2,2,-1,-4
1558433968064871,-1,-7,-28,-14,0,-3,-2,-3
1558433968073846,-1,3,6,2,3,-2,-3,-6
1558433968073846,-1,-5,-4,-4,0,5,0,2
1558433968086812,-7,-5,2,5,2,-2,-2,-5
1558433968086812,3,4,6,-7,-5,-4,4,1
1558433968095788,1,0,-3,1,-1,0,3,1
1558433968095788,-1,-2,-3,-7,-8,-7,-8,-3
1558433968101772,2,0,2,4,-2,0,3,0
1558433968101772,1,2,0,4,2,-3,0,1
1558433968116731,1,0,-4,1,1,-6,0,4
1558433968116731,-1,1,-1,-1,5,6,8,-1
1558433968124710,-4,-9,-16,-11,-9,-3,-6,-4
1558433968124710,-1,4,0,-2,-3,0,0,-3
1558433968139670,1,0,11,4,1,0,1,1
1558433968139670,-6,-12,-10,-4,-7,-5,-4,-4
1558433968146651,3,2,-1,-3,-3,0,0,1
1558433968146651,1,-1,9,7,4,6,2,0
1558433968155628,3,8,11,1,3,3,11,4
1558433968155628,1,14,-1,5,1,-2,-1,1
1558433968161611,-10,-26,-22,-16,-9,-13,-10,-4
1558433968161611,-2,1,5,4,4,6,2,0
1558433968176572,-5,0,-3,-4,-2,2,-4,-4
1558433968176572,2,0,6,4,6,5,6,2
1558433968184550,3,8,2,2,-5,-8,-3,-1
1558433968184550,-1,-3,-2,-2,-2,-2,-5,1
1558433968199511,-1,-2,0,3,8,7,0,1
1558433968199511,-2,1,2,0,1,-1,-2,0
1558433968215469,3,3,-2,0,2,-1,2,1
1558433968215469,-3,-4,1,0,-8,-9,-3,-6
1558433968217462,0,3,0,4,7,8,2,-1
1558433968217462,-1,0,-10,-14,-11,-9,-2,-3
1558433968222449,-3,-4,1,-5,-6,0,-3,-1
1558433968222449,-1,-3,-5,-2,0,-1,9,3
1558433968237409,1,-1,1,0,-3,-9,-4,0
1558433968237409,-1,1,11,5,-2,4,0,0
1558433968244391,4,7,6,6,4,1,-3,0
1558433968244391,0,4,0,2,0,0,-4,1
1558433968259351,-4,-7,-5,-5,-6,-4,-5,-3
1558433968259351,-5,-7,-11,-3,1,-8,1,1
1558433968267329,-1,-1,14,6,3,6,4,1
1558433968267329,-4,-5,-19,-9,-9,-2,-11,-7
1558433968276305,1,-5,10,8,9,4,7,4
1558433968276305,-2,-5,-1,-1,-2,-9,-5,-2
1558433968282303,0,4,1,-5,1,-1,-3,-3
1558433968282303,0,2,4,3,1,-1,-1,-1
1558433968298246,-3,1,-4,-6,-6,-5,-11,-3
1558433968298246,2,2,7,8,8,8,2,-3
1558433968304230,1,9,5,-1,1,2,1,1
1558433968304230,-7,-13,-29,-11,-11,-6,-3,-4
1558433968319191,-1,-5,-2,-5,0,3,3,-1
1558433968319191,-1,-5,-3,-2,-2,4,-3,2
1558433968327168,3,2,7,5,4,-2,8,4
1558433968327168,0,4,11,1,-1,0,-1,-1
1558433968336145,2,8,-6,2,-7,-3,-4,-2
1558433968336145,-2,-7,-9,-12,-3,-8,-3,2
1558433968342130,-1,2,-4,2,1,2,4,0
1558433968342130,-1,0,-4,-7,0,1,-1,-2
1558433968357089,-2,-2,7,11,13,10,6,1
1558433968357089,-1,3,5,3,-3,-4,-4,-1
1558433968364071,-4,-13,-16,-5,-7,0,-1,-3
1558433968364071,1,-4,-6,-7,-1,-2,0,0
1558433968380027,2,5,13,5,-4,-6,-7,-2
1558433968380027,2,1,-12,-2,-2,0,7,-2
1558433968387008,-5,-12,-13,-8,0,-1,-2,0
1558433968387008,-1,1,12,5,4,1,-4,-1
1558433968395985,-1,-1,-11,-6,-3,0,-4,-3
1558433968395985,-1,3,12,-3,-3,2,-2,2
1558433968401970,-2,-1,0,5,4,5,-1,2
1558433968401970,-2,-1,-1,-2,-1,-3,2,-1
1558433968418924,-4,-4,-4,-4,0,-1,2,-1
1558433968418924,-3,0,5,3,-4,-5,-7,-5
1558433968424908,-3,-1,-13,-10,-7,-3,-9,-2
1558433968424908,0,4,6,4,4,-2,4,3
1558433968439868,0,0,-5,-6,-5,-7,3,2
1558433968439868,-2,-11,3,5,1,4,4,-1
1558433968446850,-1,1,-3,-3,1,4,1,-2
1558433968446850,-1,1,-1,3,0,-9,-4,3
1558433968455825,-3,-3,2,-2,1,2,-3,-3
1558433968455825,-4,-7,-16,-5,-3,2,1,-2
1558433968469787,1,5,14,3,2,1,0,0
1558433968469787,0,2,0,-3,-6,-2,0,-2
1558433968476776,0,-2,3,4,2,3,1,-2
1558433968476776,1,0,2,0,1,1,3,-1
1558433968484748,1,-1,2,4,5,2,-2,0
1558433968484748,-1,6,-5,-3,-3,-1,-2,-1
1558433968499707,-7,-14,-4,-6,-5,0,-3,-4
1558433968499707,-1,-1,-9,-1,-3,-2,-5,-1
1558433968506689,0,3,2,-3,-7,-6,-2,-4
1558433968506689,4,7,1,0,2,-5,2,5
1558433968523644,-6,-4,-3,-6,-9,-8,-5,-5
1558433968523644,1,-1,0,6,7,5,-2,-2
1558433968530627,-2,-4,-13,-6,-5,-2,-2,-1
1558433968530627,-1,-3,-1,-4,-2,3,-3,-4
1558433968536608,1,3,-9,1,5,4,4,3
1558433968536608,1,0,4,5,0,-3,-2,-1
1558433968544587,-1,6,10,-3,-5,-7,-2,-3
1558433968544587,-1,-6,2,-5,-9,-5,-8,-5
1558433968559547,1,1,-7,1,8,7,3,3
1558433968559547,-2,-5,-6,-7,-5,-1,-3,-4
1558433968566528,-2,-8,1,3,3,0,1,1
1558433968566528,0,0,3,2,-1,-2,1,0
1558433968575505,0,0,1,1,0,3,-2,-2
1558433968575505,2,3,6,1,-3,-7,6,2
1558433968590465,1,0,-9,-1,-3,0,-6,-1
1558433968590465,-4,-6,-7,1,3,5,-1,-1
1558433968597446,-1,3,-8,-2,-1,-2,-2,-1
1558433968597446,0,0,4,0,-4,0,-1,-2
1558433968604428,-3,-12,-5,-2,1,0,6,0
1558433968604428,-2,-2,5,2,-4,1,-5,-5
1558433968627365,0,-3,2,2,3,-4,1,2
1558433968627365,-2,1,0,-5,6,4,-2,0
1558433968628363,1,2,0,0,-3,-7,-8,-1
1558433968628363,-3,-1,-4,1,3,2,3,-1
1558433968636349,-3,-8,-7,-12,-19,-16,-5,-6
1558433968636349,-4,0,4,6,10,13,3,-2
1558433968650307,0,5,5,7,3,0,-2,-2
1558433968650307,-2,-5,-3,-8,-5,-2,-4,-1
1558433968657287,1,-1,4,-2,-7,-6,-1,0
1558433968657287,-4,-6,-19,-11,-7,-8,-3,-2
1558433968664268,2,-3,11,8,8,3,3,0
1558433968664268,1,0,-5,0,2,5,-4,0
1558433968679232,1,3,-3,-3,-7,-6,-3,-1
1558433968679232,2,-4,10,5,1,5,1,3
1558433968687206,-1,0,-15,-7,2,4,4,1
1558433968687206,-2,-3,1,-2,-5,-4,0,0
1558433968696182,-4,-1,1,1,0,3,-3,1
1558433968696182,3,8,4,4,4,-4,0,1
1558433968710144,-2,0,2,3,-1,1,0,0
1558433968710144,-2,-1,6,-7,-5,-3,-1,-1
1558433968725106,1,1,-6,-2,1,4,0,-3
1558433968725106,-5,-4,-12,-5,-7,-5,-5,-3
1558433968726103,1,5,5,0,-1,-8,-1,-1
1558433968726103,0,-3,0,3,3,2,-1,-2
1558433968739067,0,-4,6,0,-3,-5,-3,-2
1558433968739067,-1,-4,-2,-5,-2,-1,8,3
1558433968747046,-2,1,-1,-3,3,2,-8,0
1558433968747046,1,6,11,10,2,-7,5,3
1558433968756025,-3,-5,-12,-12,-9,-8,-7,-2
1558433968756025,-2,-2,-16,-9,-5,-1,-3,-5
1558433968769992,-5,-9,-6,-8,-8,-7,-5,-3
1558433968769992,-1,0,-1,3,8,13,7,2
1558433968776968,0,2,8,6,2,3,3,0
1558433968776968,2,0,3,0,-3,-13,-9,3
1558433968784947,4,4,9,4,-1,5,5,0
1558433968784947,-1,-1,2,0,-2,-1,-5,-3
1558433968799911,-7,-11,-29,-7,2,0,4,-1
1558433968799911,1,8,4,2,1,0,-4,-2
1558433968806887,-3,-8,-2,2,1,1,1,-3
1558433968806887,-1,-5,4,2,-2,-11,-8,-2
1558433968815862,1,9,10,1,4,4,-1,-1
1558433968815862,-2,-2,0,-3,-1,-6,-3,-1
1558433968838806,-1,3,1,0,0,1,3,-1
1558433968838806,2,1,-6,-1,-2,4,-5,0
1558433968839799,1,3,3,9,8,7,13,2
1558433968839799,-3,-3,2,-1,3,3,1,4
1558433968844785,-2,2,-1,2,-9,-4,-8,-7
1558433968844785,-2,0,0,-2,-8,-3,-3,-1
1558433968859744,-6,-8,-7,-5,-6,-3,-8,-2
1558433968859744,1,-3,-1,3,2,3,-3,0
1558433968866726,1,-8,-1,-2,7,7,16,7
1558433968866726,2,3,-3,-1,1,0,-2,-1
1558433968875702,0,1,9,-2,-4,-3,-5,-5
1558433968875702,3,2,20,9,1,6,3,-1
1558433968890661,-2,-3,-33,-13,-5,-7,-6,-1
1558433968890661,-1,-5,-6,-6,0,-3,-2,-4
1558433968896645,1,3,7,1,6,5,3,0
1558433968896645,-7,-5,-11,-7,-7,-4,-5,-5
1558433968904625,0,-1,11,1,-2,0,-3,-1
1558433968904625,1,-4,-4,1,5,9,4,-3
1558433968919613,1,4,0,2,4,-7,0,1
1558433968919613,1,4,7,1,1,-2,2,-2
1558433968927576,4,13,22,13,4,3,1,0
1558433968927576,-7,-11,-41,-27,-15,-9,0,-3
1558433968942532,-4,-8,4,-1,-8,-3,-5,-4
1558433968942532,-3,-4,-4,-3,-4,-2,-4,-3
1558433968949514,-1,-4,-3,-2,2,2,0,2
1558433968949514,5,7,17,11,14,11,9,4
1558433968965522,2,5,3,3,0,-4,-2,-1
1558433968965522,-4,-8,-4,-4,-7,-3,-5,-2
1558433968966462,-2,-1,-3,-5,-7,-8,-3,-4
1558433968966462,-2,2,2,1,-4,-3,-1,-1
1558433968979430,1,2,-2,-4,-1,2,-3,-1
1558433968979430,-1,-7,-7,-4,-2,2,0,2
1558433968987510,-2,1,-2,-2,1,1,7,-1
1558433968987510,-1,-4,2,2,-2,-8,-5,-1
1558433969002466,1,0,11,8,6,5,4,2
1558433969002466,-1,-7,-17,-9,-6,-6,-4,-2
1558433969009346,-3,-7,-13,-9,-11,-3,-8,-6
1558433969009346,0,-1,8,4,4,3,5,4
1558433969025309,0,-2,-13,-8,-8,-10,-9,-1
1558433969025309,-1,-6,8,3,3,2,2,0
1558433969026300,-1,-1,2,2,4,5,-2,1
1558433969026300,-1,-2,0,1,0,0,3,0
1558433969041270,-1,2,5,0,1,1,-1,0
1558433969041270,1,2,2,-3,-5,-3,-2,0
1558433969047451,-2,-4,-5,0,0,0,-1,-3
1558433969047451,-1,4,-15,-8,0,-7,-5,-1
1558433969062211,-3,-1,-1,0,4,9,5,-2
1558433969062211,-2,-5,-1,4,3,2,-1,-3
1558433969069387,1,-3,-2,-8,-4,-6,-4,-3
1558433969069387,-2,4,0,-3,-12,-7,-14,-4
1558433969085142,0,-2,0,-1,1,-1,7,2
1558433969085142,3,8,-7,0,4,4,3,0
1558433969086140,-2,-5,-2,-1,0,0,-2,-2
1558433969086140,2,1,5,4,-2,-7,-5,2
1558433969100102,-3,-4,-7,-9,-12,-6,-8,-6
1558433969100102,-2,-2,10,8,5,3,-2,-2
1558433969107086,1,3,-15,-7,-3,-3,4,2
1558433969107086,-3,-7,2,-2,-2,-3,2,-2
1558433969122043,0,-4,1,4,-5,-2,-3,-1
1558433969122043,-1,1,-3,2,4,4,4,-1
1558433969130022,0,1,9,4,0,-3,-1,1
1558433969130022,-3,-6,-4,-6,-7,-3,-2,-4
1558433969144980,0,3,8,2,-1,0,-4,-1
1558433969144980,-1,-5,-3,-5,-5,-2,3,-4
1558433969145978,-2,-2,7,8,2,-2,0,-1
1558433969145978,0,4,9,7,8,8,4,1
1558433969159942,-7,-12,-28,-18,-10,-11,-4,-3
1558433969159942,4,6,2,0,2,1,-1,0
1558433969167012,-1,-3,-3,-3,-3,0,1,-1
1558433969167012,4,7,9,6,4,-2,0,-1
1558433969182026,8,-8,5,5,3,1,-1,-2
1558433969182026,4,1,-10,-8,-8,-5,-4,-2
1558433969189862,3,0,3,-4,-8,-6,-7,-4
1558433969189862,-6,-5,0,-1,-3,0,-7,-9
1558433969204822,1,8,-7,0,8,0,5,7
1558433969204822,-1,1,3,4,7,2,4,4
1558433969205818,-6,-3,-1,-3,-2,4,1,-2
1558433969205818,-5,-4,-6,-3,-5,0,-5,-3
1558433969219781,-4,4,2,-2,-3,-2,0,0
1558433969219781,-7,-4,7,4,-1,-2,3,0
1558433969226763,-6,-6,-8,-3,-3,-6,-6,-1
1558433969226763,-4,-4,-5,-1,2,3,2,2
1558433969241731,-3,-4,-1,1,0,4,-1,-3
1558433969241731,-1,4,0,2,-1,0,0,-2
1558433969249702,2,5,3,1,1,-4,-5,-2
1558433969249702,-1,-3,-2,-1,-5,-4,4,-2
1558433969265702,-2,-4,-4,-4,-4,-3,-6,-5
1558433969265702,0,-2,-9,-5,3,5,3,2
1558433969265702,3,2,-2,2,5,1,5,4
1558433969265702,-1,0,-2,-6,-3,0,-2,-4
1558433969279856,-2,0,0,-4,-8,-4,-4,-2
1558433969279856,-3,-7,5,2,-5,-6,-11,-6
1558433969287684,1,-2,-6,0,5,2,4,3
1558433969287684,1,1,-1,3,6,7,2,1
1558433969301590,-1,3,-3,1,0,-2,1,-1
1558433969301590,-3,-5,-10,-6,-5,-2,-3,-2
1558433969309542,-1,1,7,4,2,0,-2,-2
1558433969309542,-1,-4,-3,-2,4,2,3,1
1558433969325499,-1,-2,3,-1,-1,4,-2,-1
1558433969325499,1,1,-1,-4,-7,-12,-8,-1
1558433969325499,3,6,5,7,4,-1,0,3
1558433969325499,0,-2,-5,-2,2,4,2,0
1558433969339462,-3,-8,0,-3,-1,1,-4,-8
1558433969339462,-4,-6,-24,-11,-11,-11,-5,-2
1558433969347441,-1,-1,4,1,1,5,3,-1
1558433969347441,0,-3,-2,-3,-8,-10,-5,0
1558433969362399,1,1,8,6,5,5,2,3
1558433969362399,2,1,3,3,4,1,1,1
1558433969369415,0,3,0,-6,-6,-2,-8,-4
1558433969369415,0,1,2,9,8,5,8,3
1558433969385541,-7,-11,-8,-7,-8,-5,-3,-2
1558433969385541,-3,-4,1,-7,-9,-7,-2,-3
1558433969393352,0,-5,-11,-7,0,3,-3,-1
1558433969393352,0,0,0,-2,3,3,1,2
1558433969400337,2,6,15,7,3,-1,-3,-1
1558433969400337,-1,3,1,4,3,4,1,-1
1558433969407717,-1,1,-4,3,4,8,3,0
1558433969407717,-5,-9,-13,-17,-18,-13,-7,-6
1558433969422607,1,-1,1,4,2,-2,1,2
1558433969422607,2,3,4,8,13,10,8,3
1558433969430434,-2,-4,4,-2,-4,-5,-4,-2
1558433969430434,-3,-8,-13,-3,-5,-3,-7,-4
1558433969445359,2,3,2,1,5,8,2,4
1558433969445359,-2,-1,2,-3,-8,-4,3,-2
1558433969453405,-2,-2,3,3,0,-8,1,2
1558433969453405,3,7,5,3,5,6,5,1
1558433969459144,-2,-6,-14,-13,-12,-8,-4,-5
1558433969459144,-2,-6,10,8,4,-2,-7,2
1558433969467283,-2,-7,-17,-6,1,1,-1,-2
1558433969467283,0,2,9,-2,-4,-6,-2,-3
1558433969483115,1,0,-6,2,-3,-4,-3,-2
1558433969483115,1,3,4,-3,2,2,1,0
1558433969490293,0,1,8,1,-4,0,-4,-1
1558433969490293,-3,-6,-14,5,9,2,-2,0
1558433969505018,-1,1,-3,-9,0,0,2,0
1558433969505018,-2,1,-1,-4,-5,-4,-2,-6
1558433969513257,-4,-4,-3,-4,-9,-10,-7,1
1558433969513257,0,1,10,6,9,10,6,1
1558433969528185,-2,-2,-2,4,0,-5,1,1
1558433969528185,-3,-4,6,0,-3,1,-5,-5
1558433969528185,0,1,-15,-9,-9,-6,-4,-2
1558433969528185,-2,0,-6,-6,-3,-6,-4,-2
1558433969541926,-3,-4,-2,-3,1,0,0,-1
1558433969541926,-1,-3,0,4,9,2,2,4
1558433969549901,-2,-1,4,-1,-2,1,3,-3
1558433969549901,0,4,12,1,-4,-7,-4,0
1558433969564861,0,4,2,9,2,-4,1,2
1558433969564861,-2,-5,-15,-14,-11,-9,-7,-6
1558433969573049,0,-3,0,-4,1,5,4,-2
1558433969573049,1,5,-2,0,-5,-5,1,2
1558433969588032,-2,1,13,4,2,-3,-3,-1
1558433969588032,-2,-2,-9,-5,-1,-4,0,-1
1558433969588799,-4,-4,-3,-2,2,1,1,0
1558433969588799,3,1,8,2,1,7,-1,-2
1558433969602794,-1,-2,-6,-2,-4,-5,0,2
1558433969602794,0,4,-5,-2,0,1,2,1
1558433969609740,1,-2,-11,-1,-4,-3,-1,-3
1558433969609740,0,-4,9,1,1,7,3,0
1558433969624700,0,-3,-12,-7,4,0,1,-1
1558433969624700,-2,-1,2,3,-1,0,-2,-2
1558433969632679,-4,-8,1,1,-6,-9,-7,-1
1558433969632679,0,0,3,6,8,7,2,1
1558433969647854,0,-3,-3,-4,-1,0,0,0
1558433969647854,1,2,-3,-4,-5,0,-3,-3
1558433969648640,0,5,8,3,-3,-2,-1,-1
1558433969648640,-3,-4,-10,-7,-7,-7,-3,-1
1558433969661600,-3,-5,2,-3,-8,-9,-11,-4
1558433969661600,0,3,-1,7,8,6,9,1
1558433969669579,2,-1,10,0,-1,-1,-2,-2
1558433969669579,0,-1,-5,-6,-3,-5,-3,-3
1558433969684540,1,3,1,0,-1,1,6,1
1558433969684540,-1,-4,-1,1,-1,0,0,-2
1558433969692516,-3,0,10,5,3,2,1,-1
1558433969692516,1,3,-15,-7,-9,-11,-4,-1
1558433969707872,-3,-9,0,-1,-2,3,-2,0
1558433969707872,1,0,0,-4,-8,-13,-6,-1
1558433969708474,-2,-1,-4,-3,6,5,-2,-1
1558433969708474,-2,0,1,3,-4,-1,-1,0
1558433969722436,-1,7,7,-1,-1,1,-1,-2
1558433969722436,1,1,2,0,-1,-1,3,-1
1558433969729537,-3,0,-15,-8,-9,-13,-10,-1
1558433969729537,-3,-1,4,-1,0,-1,-10,1
1558433969744693,4,5,6,10,5,8,5,1
1558433969744693,-4,-8,-10,-10,-6,-1,-3,-2
1558433969753591,1,5,11,3,12,11,9,1
1558433969753591,0,-4,-14,-1,2,-13,-2,1
1558433969767704,-2,-4,1,-2,-3,2,-1,-2
1558433969767704,1,-1,14,8,-1,2,-3,-2
1558433969768701,2,1,-5,-5,-7,-5,-7,-2
1558433969768701,-3,-7,-12,-11,-4,4,5,0
1558433969782708,-2,0,-2,0,4,2,2,1
1558433969782708,-2,-7,-1,0,-2,-3,-1,1
1558433969789952,-1,2,7,4,-3,-4,-7,-2
1558433969789952,0,-2,-3,-2,-2,2,0,-4
1558433969804902,-1,-4,-15,-6,-4,-4,-3,-4
1558433969804902,1,5,3,6,10,4,-1,6
1558433969812900,-2,0,5,4,5,3,7,2
1558433969812900,-5,-6,-8,-9,-9,-7,-6,-6
1558433969827861,0,-2,-1,-5,-6,-5,-7,-5
1558433969827861,-2,1,-3,-2,-7,-5,-4,-3
1558433969828546,3,1,5,7,11,7,8,3
1558433969828546,-1,4,15,8,10,6,2,-3
1558433969842502,-2,-2,-10,-5,-4,-2,4,3
1558433969842502,-4,5,-3,-6,-6,-4,-5,-3
1558433969849764,0,-8,-4,-2,-2,-2,1,-1
1558433969849764,-3,2,-2,-1,-3,2,-4,-2
1558433969864446,0,-6,-2,-2,1,-1,-7,-3
1558433969864446,2,-2,7,1,-1,-1,2,0
1558433969873515,-4,-2,-13,-2,3,5,7,-3
1558433969873515,0,-2,5,5,4,0,-2,-1
1558433969887410,-2,2,-11,-7,-5,-3,0,-2
1558433969887410,-1,-2,0,-5,-4,-2,-6,1
1558433969888382,-2,-2,-2,-3,-6,-1,-8,-4
1558433969888382,-2,-1,-6,1,-2,-10,-1,0
1558433969902651,-2,-1,3,-4,-4,-1,-3,-3
1558433969902651,-1,0,-7,-2,1,2,5,-3
1558433969909325,2,-2,-1,2,7,-5,0,3
1558433969909325,1,2,-1,-1,3,6,5,1
1558433969924284,-1,3,14,8,3,2,1,2
1558433969924284,-3,-9,-20,-9,-6,-2,-4,-5
1558433969933398,0,-1,3,1,-4,-2,-3,-2
1558433969933398,0,-6,-2,0,-1,1,1,-1
1558433969947640,-2,-2,-2,0,-2,-5,-2,-2
1558433969947640,1,2,14,8,1,-3,1,3
1558433969948222,-2,-3,-12,-3,4,7,3,-2
1558433969948222,0,1,-5,-2,0,-1,3,2
1558433969962490,1,4,1,-1,8,5,6,3
1558433969962490,-4,-7,0,-3,0,-1,-1,-2
1558433969970365,-1,-1,-4,-4,-8,-8,-4,-3
1558433969970365,-1,-8,8,6,2,-1,-5,-2
1558433969984416,2,5,-4,-2,-3,-6,-2,2
1558433969984416,4,5,0,-1,-3,-2,-3,0
1558433969993347,-5,-9,-1,0,6,11,11,0
1558433969993347,-19,3,0,4,7,5,0,1
1558433970008061,-14,-5,4,1,-5,-3,2,-4
1558433970008061,-7,-3,-15,-9,-4,0,-1,-1
1558433970008061,4,-1,6,1,-9,-12,-8,-3
1558433970008061,11,0,-2,-9,-4,-3,1,1
1558433970022323,8,-4,0,3,4,4,-2,-1
1558433970022323,11,3,16,8,3,-2,1,-2
1558433970030289,2,-3,-20,-9,-4,-1,-8,-8
1558433970030289,3,-3,-5,-5,2,0,1,-3
1558433970045251,7,9,10,7,-2,-6,-1,1
1558433970045251,-2,0,-5,0,6,9,3,-3
1558433970053230,-4,-6,-4,-5,-5,-9,-5,1
1558433970053230,-1,0,3,0,-2,-3,-2,-2
1558433970068205,-2,-3,-6,-2,0,2,0,-1
1558433970068205,-2,4,3,-2,0,2,-1,1
1558433970069063,-6,4,7,4,-4,-5,0,-3
1558433970069063,0,-2,-5,1,2,0,4,2
1558433970081910,-3,-3,-2,-5,-1,-3,-2,-2
1558433970081910,-4,-10,3,-4,-3,-3,-1,0
1558433970090149,-1,0,-5,2,2,6,2,1
1558433970090149,-1,-4,-2,-5,-14,-7,-4,-3
1558433970105086,0,-1,-6,-3,-1,-3,-2,0
1558433970105086,-1,-5,-8,-1,1,8,2,-1
1558433970112812,-1,-2,1,-4,-3,-4,-4,1
1558433970112812,1,4,8,6,3,-7,-5,1
1558433970127743,-2,-2,0,4,2,4,3,-1
1558433970127743,-2,0,1,-5,-5,-6,-2,-3
1558433970128738,1,4,4,1,1,1,-1,0
1558433970128738,-3,-4,-16,-8,-8,-1,-8,-4
1558433970141704,-4,-7,6,3,3,0,5,-1
1558433970141704,-3,2,-13,1,-1,-3,-5,-4
1558433970150158,-3,-5,11,-1,-1,0,1,2
1558433970150158,2,5,10,3,4,3,1,-2
1558433970165069,-1,-3,-14,-5,-7,1,-7,-5
1558433970165069,1,2,3,3,7,2,-1,1
1558433970173107,1,5,-1,1,0,-4,-2,2
1558433970173107,-1,-2,-8,-6,-8,-4,-2,-3
1558433970187579,1,0,4,4,5,3,4,0
1558433970187579,-2,1,7,1,1,3,2,2
1558433970188577,-1,2,-6,2,-1,2,0,-1
1558433970188577,-2,0,1,-7,-4,2,3,-2
1558433970201543,1,4,10,7,3,-2,-2,-1
1558433970201543,-1,0,-11,-9,-4,-1,0,-4
1558433970209521,-3,-2,1,-2,-6,-10,0,-1
1558433970209521,0,0,9,5,1,3,-4,0
1558433970224664,-3,-2,-9,-5,-4,-3,-2,-1
1558433970224664,-3,-4,-5,-4,-3,-2,-5,-2
1558433970232461,-1,-5,0,-2,-6,-1,-3,-3
1558433970232461,-2,1,3,-3,-4,-3,2,0
1558433970247854,3,5,6,5,-1,-11,-5,1
1558433970247854,0,-3,-2,-4,-2,1,-6,-2
1558433970248418,0,-4,-8,1,12,12,17,6
1558433970248418,-3,-2,2,1,-4,-1,1,-3
1558433970263378,0,-4,-6,3,2,-1,0,1
1558433970263378,-1,-1,2,0,-5,-5,-4,-5
1558433970269361,-1,0,0,-8,-10,-9,-11,-6
1558433970269361,-1,-6,-9,-1,0,4,-2,-2
1558433970285449,5,3,9,1,3,2,4,4
1558433970285449,1,0,-1,5,2,-2,1,-1
1558433970293517,-2,2,3,2,1,7,-3,-6
1558433970293517,-4,-5,-12,-10,-12,-11,-8,-2
1558433970307698,-5,-1,-5,-5,-2,-5,-5,-3
1558433970307698,-1,-4,-11,-7,-2,-3,-1,0
1558433970308259,-5,-6,11,8,-4,-9,-3,-4
1558433970308259,2,-1,-5,4,-1,0,4,-1
1558433970322564,-2,-3,-7,-6,5,10,2,-1
1558433970322564,-1,-2,1,1,-5,-6,1,-3
1558433970329200,3,6,-3,-5,1,1,0,2
1558433970329200,4,5,9,4,6,3,-1,0
1558433970345358,-5,-11,-10,0,-4,-2,-1,-4
1558433970345358,-2,3,3,-4,1,2,5,2
1558433970353457,2,-2,-4,-2,-3,-9,-6,1
1558433970353457,0,4,0,-6,2,-3,-3,-2
1558433970367421,-5,-6,-15,-5,-10,-4,-4,-5
1558433970367421,-5,-6,-6,1,10,10,1,-1
1558433970375080,1,-3,-7,-4,-2,1,3,-1
1558433970375080,0,-1,4,-1,-7,-5,-6,2
1558433970382367,3,4,11,6,4,4,8,1
1558433970382367,3,2,9,12,3,-3,4,5
1558433970390341,-1,-4,-25,-11,-8,-5,-7,-4
1558433970390341,1,1,4,2,2,2,6,1
1558433970405249,-1,1,-3,-8,-6,1,-8,-5
1558433970405249,1,-2,9,12,8,6,4,0
1558433970413307,1,4,5,0,-4,-9,-1,-2
1558433970413307,-8,-5,-21,-12,-9,-3,-6,-8
1558433970427295,0,-1,-2,-8,-4,-1,-4,-1
1558433970427295,-1,-2,3,2,0,-2,-4,0
1558433970435920,-3,-4,7,6,7,7,10,3
1558433970435920,-2,-4,-9,-2,2,-2,-4,-4
1558433970441902,0,3,0,-2,0,3,1,1
1558433970441902,2,7,7,3,3,2,0,-1
1558433970450159,-3,-5,-6,-3,-4,-4,-3,-2
1558433970450159,1,1,9,1,-2,-5,1,0
1558433970464870,-3,-6,-4,-5,-7,-3,-4,-1
1558433970464870,-2,-1,-4,-5,-8,-6,-9,-5
1558433970472819,-1,0,-9,-2,10,8,7,3
1558433970472819,1,0,7,9,5,-1,1,1
1558433970487016,-1,4,4,-3,-3,-4,-3,-4
1558433970487016,0,0,-8,-6,-5,1,1,-2
1558433970495917,-1,1,6,2,0,2,-4,-1
1558433970495917,-3,-9,-3,1,1,-1,-2,0
1558433970511045,1,1,7,7,6,-5,2,4
1558433970511045,-1,-2,-3,-4,-10,-12,-7,-3
1558433970511045,0,3,2,-2,-6,-4,-4,-1
1558433970511045,-2,-11,2,6,12,12,6,-1
1558433970524713,-1,-3,5,3,-1,0,0,1
1558433970524713,-4,-4,-15,-14,-8,-9,-8,-6
1558433970532659,1,5,7,6,2,-3,0,1
1558433970532659,1,4,0,-4,-1,-3,-3,1
1558433970547903,0,-2,-6,0,-1,-2,2,0
1558433970547903,0,2,2,-1,-7,-6,4,1
1558433970555943,0,0,-9,-6,2,8,3,0
1558433970555943,2,0,9,9,8,9,3,0
1558433970570874,-1,5,1,4,4,2,-2,0
1558433970570874,-1,-3,-6,-11,-10,-6,0,-2
1558433970570874,1,0,4,4,3,-2,-2,-1
1558433970570874,1,5,7,2,2,5,2,0
1558433970584853,0,-7,-13,-5,-5,-2,-1,-1
1558433970584853,-1,0,-5,3,1,-1,-4,1
1558433970593494,-3,2,-3,-5,-4,-4,0,1
1558433970593494,-3,-6,4,2,-8,-4,-7,-4
1558433970607788,-3,-2,-14,-14,-3,-1,1,-4
1558433970607788,-2,-1,6,2,1,-3,3,-1
1558433970615726,-3,-7,-13,-6,-5,-3,-7,-5
1558433970615726,-1,7,7,9,3,4,0,-3
1558433970630695,-5,-5,-4,-6,-5,4,-4,-5
1558433970630695,0,-3,-1,6,3,6,7,4
1558433970630695,1,-4,-7,-6,-3,-1,-5,-1
1558433970630695,1,0,3,-2,-6,-12,3,4
1558433970645358,4,3,7,10,8,3,0,0
1558433970645358,0,-3,-10,-7,-3,-3,-4,-2
1558433970653525,-1,0,10,2,-2,2,-3,-1
1558433970653525,-3,0,-13,-4,1,4,0,-4
1558433970667599,0,1,21,11,7,0,3,3
1558433970667599,-3,-3,-18,-15,-4,2,-1,-2
1558433970675277,-2,-2,-2,-1,-5,-7,-2,-1
1558433970675277,-1,-2,1,-6,-3,2,-3,-2
1558433970690473,-1,2,0,0,-6,-4,-3,-3
1558433970690473,0,0,-1,12,12,8,2,0
1558433970691242,-5,-12,3,0,1,1,3,-1
1558433970691242,-2,1,-12,-14,-14,-11,-7,-6
1558433970705259,-3,-4,-4,1,9,1,2,3
1558433970705259,2,3,13,8,0,1,-3,1
1558433970713396,-4,-5,-9,-13,-9,-3,1,-4
1558433970713396,0,0,-7,-2,-2,-7,-1,-1
1558433970727146,-2,-4,0,-5,-8,-2,-9,-9
1558433970727146,-2,-2,0,1,2,-5,0,3
1558433970735331,1,4,6,7,5,3,3,1
1558433970735331,0,3,4,2,2,5,0,-2
1558433970750126,2,5,7,5,-1,-6,-3,0
1558433970750126,-6,-12,-31,-21,-10,-7,0,-3
1558433970751073,-1,0,1,-2,-3,-8,-10,-6
1558433970751073,-3,-2,-1,-7,-11,-6,-11,0
1558433970764038,-3,-8,-2,2,2,1,3,-2
1558433970764038,3,5,18,19,14,13,5,3
1558433970773049,3,5,4,-3,-8,-10,-1,0
1558433970773049,0,-6,-10,-4,-3,-4,-1,0
1558433970787485,0,1,-3,-6,-10,-5,-3,-2
1558433970787485,-2,1,5,3,4,4,0,-1
1558433970795946,0,1,-2,2,8,2,9,3
1558433970795946,1,4,8,5,2,4,2,1
1558433970810878,1,-3,-11,-10,-10,-5,-6,-2
1558433970810878,-3,0,-2,-3,-4,-5,-6,-4
1558433970810878,2,1,9,8,-1,-8,-8,-1
1558433970810878,-6,-5,-11,-11,-6,0,-4,-3
1558433970824618,-2,-1,0,-4,-7,-2,1,-1
1558433970824618,0,-3,-5,-4,3,2,-1,-1
1558433970832367,1,1,-1,-1,3,6,2,1
1558433970832367,1,-1,4,2,-1,-2,2,0
1558433970847192,0,4,4,10,11,13,0,2
1558433970847192,-4,-5,0,-9,-12,-7,-1,-4
1558433970856064,0,3,-1,-1,5,5,-1,0
1558433970856064,-5,-17,-4,-3,-1,4,2,-1
1558433970870973,0,-1,-5,-3,-4,-7,0,-2
1558433970870973,1,4,10,12,8,2,3,2
1558433970870973,-5,0,-9,-9,-8,-2,-9,-4
1558433970870973,2,4,1,1,2,0,2,1
1558433970884996,-1,-1,8,0,-5,-5,-3,-2
1558433970884996,-1,-3,-11,-6,-4,-7,-7,-3
1558433970891709,0,-4,-7,-7,-1,8,4,1
1558433970891709,0,-4,-8,-3,3,-2,-3,-1
1558433970906705,-1,-5,1,-1,-3,-1,-2,-1
1558433970906705,1,6,4,2,-1,-3,-1,-2
1558433970915932,2,-1,10,7,2,1,0,0
1558433970915932,-1,2,1,-1,0,0,0,-1
1558433970929604,-2,-4,-17,-4,4,1,4,0
1558433970929604,-1,-1,2,-1,0,6,1,-3
1558433970930602,2,2,2,2,1,0,-1,-2
1558433970930602,0,2,6,0,-2,-5,1,-1
1558433970944593,-2,-5,-6,-6,-6,-2,-5,-4
1558433970944593,-1,-4,10,6,0,-4,-3,-2
1558433970952934,0,-1,-7,-2,-2,-5,4,3
1558433970952934,-3,-2,-5,-2,-3,-4,-2,-4
1558433970967523,1,6,-1,0,6,2,1,1
1558433970967523,-2,-4,-1,-8,-3,0,-1,1
1558433970975001,-3,-6,-4,-1,1,-1,-2,-3
1558433970975001,-1,9,0,4,-1,-6,-1,-1
1558433970990484,-1,-5,2,-4,-8,-5,0,-2
1558433970990484,1,10,10,6,5,9,2,2
1558433970990961,-1,-9,-11,2,1,1,2,0
1558433970990961,1,-3,-2,-8,-4,-6,-2,3
1558433971005422,1,2,-2,6,8,3,0,2
1558433971005422,1,-1,4,0,-5,-7,2,1
1558433971012385,-3,-1,-11,-12,-8,-5,-8,-6
1558433971012385,-3,-4,-13,-1,-2,-1,-6,-4
1558433971027309,-2,-2,7,-1,0,-1,2,-1
1558433971027309,-4,-10,-5,-2,-3,0,-3,-3
1558433971036165,1,3,9,3,-1,-4,-8,1
1558433971036165,-3,-8,-3,-2,-1,-4,-1,-3
1558433971051014,-2,1,-2,0,4,5,3,1
1558433971051014,0,1,-1,-1,-6,-10,-4,-4
1558433971051014,-5,-5,1,-2,-7,-10,-11,-7
1558433971051014,2,4,0,9,15,16,6,1
1558433971064762,-1,-1,6,-7,-6,-6,0,0
1558433971064762,0,-2,-5,1,7,7,1,3
1558433971072769,-4,-2,-8,-4,-4,-3,4,0
1558433971072769,-1,0,3,0,-5,-3,-6,-2
1558433971087014,-3,-6,-17,-3,2,0,3,-3
1558433971087014,0,0,7,-1,-1,1,1,0
1558433971095858,0,3,4,2,-2,-11,-3,-4
1558433971095858,0,1,5,8,5,4,1,3
1558433971110810,-3,-1,2,-3,-5,-7,-8,-2
1558433971110810,1,4,2,-1,-2,5,1,-3
1558433971110810,-2,-3,-2,1,3,6,4,2
1558433971110810,3,4,-5,-5,-5,-4,3,0
1558433971124681,-3,-10,-1,-5,-4,-8,-6,-4
1558433971124681,0,-1,1,1,7,6,1,0
1558433971131624,2,3,5,1,0,2,-1,-2
1558433971131624,-3,-1,1,2,-1,-3,1,1
1558433971146585,1,1,-3,-3,-6,-4,-7,-3
1558433971146585,-1,0,-7,-7,-10,-13,-6,-5
1558433971155562,1,2,11,6,8,8,9,2
1558433971155562,-2,-2,-4,-5,-3,-5,-4,-2
1558433971169869,0,0,-3,1,6,7,3,-1
1558433971169869,-5,-2,2,1,-5,-9,-6,0
1558433971177860,-3,-3,-12,-3,0,3,-2,-2
1558433971177860,-4,-8,-11,-12,-8,1,-6,-6
1558433971184834,0,6,3,4,11,12,10,5
1558433971184834,-3,-5,13,1,-2,-8,-4,-2
1558433971200787,0,-5,-15,-6,-4,0,-1,0
1558433971200787,-2,-1,3,1,0,-3,-1,0
1558433971207726,1,5,0,0,-3,1,-4,-3
1558433971207726,-2,-3,-10,-5,-5,-2,4,2
1558433971215724,-1,-2,8,3,5,-5,-5,-4
1558433971215724,0,1,4,4,1,0,5,-1
1558433971230359,2,1,-3,-1,-1,-2,-1,0
1558433971230359,0,6,-3,0,-2,1,0,-3
1558433971230359,-1,0,-2,-7,-8,-3,-8,-4
1558433971230359,2,0,12,8,5,-1,2,1
1558433971244361,0,-4,-7,-3,-1,-1,3,0
1558433971244361,-4,-9,-26,-13,-3,1,-3,-2
1558433971252303,0,-2,5,0,-7,-5,2,-1
1558433971252303,1,1,3,1,4,9,1,1
1558433971267260,1,2,10,4,5,4,1,3
1558433971267260,2,-3,-4,7,9,-1,10,4
1558433971275240,-2,5,5,6,-5,-4,3,0
1558433971275240,-2,-1,-7,-6,-4,-4,-6,0
1558433971289242,-5,-5,-7,-7,-5,1,-5,-2
1558433971289242,2,2,8,-1,-1,5,-2,0
1558433971297183,0,2,2,3,-1,0,0,0
1558433971297183,-2,-5,-2,2,0,-4,-1,-2
1558433971304162,-4,-4,-1,-3,-8,-8,-7,-6
1558433971304162,-2,-6,0,-3,-3,-8,0,0
1558433971312140,0,-1,-1,-1,6,8,6,2
1558433971312140,0,3,-1,0,-2,0,2,-3
1558433971327101,-3,-11,-10,-5,-12,-11,-9,-4
1558433971327101,0,1,5,6,9,6,-1,-4
1558433971335079,1,7,11,5,5,3,1,2
1558433971335079,-2,-6,-14,-5,1,0,-3,1
1558433971349044,0,4,9,-1,1,7,4,-1
1558433971349044,-3,-1,-3,-3,-7,-8,-4,-3
1558433971358018,-6,-1,-9,-4,1,-2,-7,-4
1558433971358018,1,7,-2,-6,-5,-7,-3,-1
1558433971364002,2,6,8,7,0,-7,4,2
1558433971364002,2,4,-3,-3,-1,2,-2,1
1558433971371980,-3,-14,-1,-3,-5,-6,-2,-1
1558433971371980,-5,-9,3,0,-3,-3,-6,-4
1558433971386940,1,-8,-1,-1,2,-1,-1,-1
1558433971386940,-4,-8,-4,-7,-5,-4,-4,-4
1558433971402924,4,5,6,9,7,4,6,4
1558433971402924,-5,-9,-17,-11,-6,-6,-1,-1
1558433971409898,-4,-6,2,5,0,-3,-1,1
1558433971409898,0,3,5,2,-1,1,-7,-3
1558433971417857,-3,-4,-6,-11,-11,-8,-6,-4
1558433971417857,2,-3,4,6,5,10,3,3
1558433971432818,-1,-3,-10,-5,-4,-7,-3,0
1558433971432818,-3,-4,-4,3,2,2,2,1
1558433971433815,-3,-3,-4,-10,-3,2,0,-3
1558433971433815,2,5,11,2,-8,-7,-2,-2
1558433971446782,-1,5,0,2,7,4,-2,2
1558433971446782,-2,2,-3,-1,-1,-5,-7,-1
1558433971454758,-2,-5,4,3,-3,-2,-8,-1
1558433971454758,-1,1,-3,0,3,6,2,1
1558433971469721,-4,1,-6,-3,-6,0,2,-2
1558433971469721,0,3,4,1,-2,-5,-4,-2
1558433971477697,3,1,1,3,2,0,5,0
1558433971477697,-2,-5,-12,-10,-3,-3,0,-1
1558433971492658,-2,3,5,3,0,-2,-3,-3
1558433971492658,1,2,-4,-8,-1,3,-1,1
1558433971493657,1,-5,8,4,-2,-3,0,0
1558433971493657,-3,-1,-7,1,-2,-3,-3,-2
1558433971506620,2,-2,8,3,4,4,1,0
1558433971506620,-3,3,-8,-4,-1,8,8,1
1558433971515597,-4,-4,-10,-6,-4,-2,1,-4
1558433971515597,-4,-9,8,2,1,-5,0,-2
1558433971529559,0,-1,-3,-2,-2,-2,0,-3
1558433971529559,1,-3,-5,-7,-1,6,1,-4
1558433971537537,-1,-4,0,0,4,2,2,3
1558433971537537,-1,1,-6,0,3,6,0,-1
1558433971552498,-2,0,5,5,-4,-6,-1,-3
1558433971552498,1,-1,-2,-1,-4,-2,-4,-3
1558433971553495,-1,-2,-17,-9,-3,-3,-2,-3
1558433971553495,-1,1,5,1,1,0,3,-1
1558433971566461,0,-1,-3,-7,-7,-2,-4,1
1558433971566461,0,0,6,4,1,-3,0,-1
1558433971575440,-1,-1,-4,-2,-5,-2,-5,-2
1558433971575440,6,6,12,12,4,-1,-2,6
1558433971589398,-1,9,-4,-6,1,5,7,2
1558433971589398,-4,-9,-9,-1,-6,-5,0,0
1558433971597377,-5,-9,-2,-1,1,-4,-4,-4
1558433971597377,1,3,3,-1,-2,1,-3,-1
1558433971612337,0,-9,-3,1,1,-1,3,-2
1558433971612337,2,0,3,5,6,3,0,0
1558433971613335,-3,3,6,3,-5,-1,-5,-3
1558433971613335,0,-2,-14,-10,-6,-2,-1,0
1558433971627299,2,-1,1,1,2,-1,5,1
1558433971627299,-4,-7,-5,-11,-5,-4,-3,-4
1558433971635275,0,2,1,6,2,3,0,1
1558433971635275,-2,0,2,0,3,-2,5,-1
1558433971649240,-2,-1,-2,-3,-3,0,-5,-2
1558433971649240,0,0,-1,2,0,-2,3,1
1558433971657216,-1,1,-1,-1,-1,4,3,2
1558433971657216,-1,1,5,-1,-4,-3,-2,-3
1558433971672209,-1,2,5,4,2,2,-1,2
1558433971672209,-1,-2,-4,2,0,-4,-5,-1
1558433971673176,0,0,-5,-4,-5,-6,0,0
1558433971673176,-1,2,0,0,-3,-3,3,-2
1558433971687181,-3,-6,-3,2,-3,0,-7,-5
1558433971687181,-4,-6,-3,-9,-9,-7,-10,-3
1558433971703102,-1,6,4,-1,-3,-6,-5,1
1558433971703102,-4,-6,-16,-8,-4,-4,-4,-2
1558433971709110,1,2,4,2,8,7,3,3
1558433971709110,-3,3,1,1,-4,-6,-3,-2
1558433971718057,4,-2,-2,2,6,2,-5,-7
1558433971718057,-1,0,11,-2,-1,0,3,0
1558433971733055,-6,-1,-18,-12,-11,-3,-6,-6
1558433971733055,4,4,6,10,12,16,11,5
1558433971733055,5,1,5,5,6,-4,6,6
1558433971733055,-4,-5,-12,-7,-6,-3,-6,-5
1558433971755954,-3,-4,-2,-2,-4,-5,-2,-6
1558433971755954,-4,-8,-1,-3,-2,-2,-2,-1
1558433971756952,2,3,1,1,8,4,-4,-2
1558433971756952,-1,-2,1,0,-1,-3,-2,1
1558433971769916,-2,-4,0,1,1,0,0,1
1558433971769916,0,5,-2,-5,-9,-6,-1,-1
1558433971777894,-2,-5,-4,0,-3,-4,0,-2
1558433971777894,1,-6,-6,0,6,5,4,1
1558433971792886,-1,-3,-7,-4,-2,-3,-1,0
1558433971792886,0,0,8,2,-1,-3,1,-4
1558433971792886,-3,-3,-4,-3,-12,-7,-2,-4
1558433971792886,0,3,2,-5,3,6,-2,0
1558433971806856,-2,-2,-3,0,1,-3,1,2
1558433971806856,0,0,10,6,3,-4,-5,0
1558433971814797,-4,-3,-16,-12,-6,3,-3,-4
1558433971814797,-3,-1,-3,-1,-9,-7,-8,-3
1558433971829755,2,-3,-1,1,7,6,6,6
1558433971829755,1,3,3,3,-2,-3,-2,1
1558433971837734,-6,-7,0,3,1,0,0,0
1558433971837734,0,-4,1,0,0,-3,-1,-1
1558433971852694,-2,-2,-5,-5,-9,-10,-5,-2
1558433971852694,0,0,-7,-4,7,7,6,2
1558433971853692,0,1,10,1,6,3,6,3
1558433971853692,0,0,4,6,-2,-1,3,-2
1558433971866656,-4,-3,-1,-2,-2,1,0,-2
1558433971866656,0,0,-1,1,4,3,1,1
1558433971874635,2,7,0,-2,1,0,3,5
1558433971874635,-2,-8,10,6,2,-4,-1,1
1558433971889597,-2,-4,-21,-10,-11,-9,-8,-5
1558433971889597,-1,-2,1,0,-3,-6,-2,-2
1558433971897576,-1,-3,-7,-4,-3,-2,-2,-2
1558433971897576,0,2,0,1,2,3,0,-1
1558433971912569,1,4,7,3,1,1,0,-1
1558433971912569,-1,-1,-5,1,-1,1,0,-2
1558433971913566,-3,-11,-12,-16,-9,-4,-4,-4
1558433971913566,3,-3,1,-2,-3,-4,-2,0
1558433971926498,3,3,7,7,3,-3,-3,5
1558433971926498,-1,1,0,-1,4,6,3,-1
1558433971935472,1,8,3,1,0,-3,3,1
1558433971935472,-2,0,-2,-2,-2,0,-3,-1
1558433971949466,-3,-5,-10,-6,-2,4,0,-2
1558433971949466,-3,-5,-6,-6,-9,-7,-3,-1
1558433971957415,0,4,4,7,4,5,5,1
1558433971957415,1,4,2,1,-1,-1,-4,0
1558433971972374,-3,-9,-1,-3,-1,2,3,0
1558433971972374,-1,-5,-4,1,-4,-6,-5,0
1558433971973372,-5,-7,-1,-4,-7,-4,-5,-4
1558433971973372,1,3,-1,2,5,4,5,0
1558433971987348,0,3,0,-2,-6,-4,-1,-2
1558433971987348,-3,2,-2,0,0,0,-1,-4
1558433972002296,1,-4,0,-1,2,4,1,1
1558433972002296,-4,-3,-10,-4,-1,-2,2,-2
1558433972009276,1,0,9,3,3,2,-2,-2
1558433972009276,-2,-2,-12,-7,-8,-4,-2,-3
1558433972017289,1,6,-2,2,7,6,2,2
1558433972017289,-3,-3,-5,-3,-2,-4,-2,-1
1558433972032216,-4,-4,-4,-4,4,8,2,-2
1558433972032216,0,-3,7,0,-8,-9,-4,-3
1558433972033212,1,2,10,8,4,-4,-4,0
1558433972033212,2,3,-7,-11,-8,-6,-4,-1
1558433972047173,-4,0,-14,-6,-1,0,-4,-3
1558433972047173,-1,-4,1,-1,-3,-5,-2,3
1558433972055187,-5,-8,-3,-3,-7,-1,-5,-3
1558433972055187,2,3,-3,-2,-6,-7,3,1
1558433972069115,2,1,8,4,2,-3,1,3
1558433972069115,-2,-6,-9,-3,0,1,1,-1
1558433972078091,-1,-1,1,3,4,5,0,-3
1558433972078091,0,-3,4,1,-4,0,-2,-2
1558433972093074,1,3,3,0,-8,-5,-5,-3
1558433972093074,1,-2,5,3,5,7,2,2
1558433972093074,-4,-3,-13,0,0,-2,0,-1
1558433972093074,-4,1,-2,-8,-3,-5,-5,-4
1558433972107515,1,2,0,0,0,-3,2,0
1558433972107515,-3,-3,2,-2,0,1,0,-4
1558433972115495,0,-2,-6,-7,-2,5,-2,0
1558433972115495,0,4,12,10,4,-1,0,-2
1558433972130368,2,0,-10,-2,-2,-4,-3,1
1558433972130368,1,0,-3,-4,-3,-2,7,2
1558433972138260,0,-1,-1,0,6,6,2,0
1558433972138260,-7,-15,-4,1,-1,-2,-3,-1
1558433972153245,-1,-4,5,0,1,1,1,-3
1558433972153245,-3,2,2,2,0,-1,-6,-3
1558433972153245,-3,-4,-10,-6,-10,-12,-4,-1
1558433972153245,-2,2,1,-2,7,10,1,0
1558433972166855,-2,0,6,3,-4,-6,-2,-1
1558433972166855,0,0,-4,-2,3,3,0,0
1558433972174835,0,3,13,3,-6,-8,-3,-3
1558433972174835,-1,-1,-10,1,-3,1,0,0
1558433972189792,-4,-3,-10,-8,-4,2,-1,-2
1558433972189792,-1,0,-4,-1,-1,3,0,-2
1558433972197771,1,2,10,-1,0,-4,-4,1
1558433972197771,0,0,-1,2,-2,-2,4,-2
1558433972211735,0,-2,7,4,6,5,1,-2
1558433972211735,-1,1,4,1,-3,-7,-1,-1
1558433972219712,-1,-2,-8,-5,-1,2,-2,-1
1558433972219712,2,4,3,2,2,3,1,1
1558433972226695,0,5,-1,0,-1,-4,-4,-1
1558433972226695,-3,-2,-3,1,-2,-2,1,-2
1558433972235696,-6,-16,-6,-4,1,-2,1,-1
1558433972235696,-3,0,-1,-4,-6,-4,-5,-2
1558433972249634,-2,0,9,2,-1,0,1,0
1558433972249634,-1,-1,-3,-4,-2,-1,-7,-2
1558433972257611,2,3,-13,-3,0,-1,3,2
1558433972257611,0,-1,-4,1,0,-6,-2,1
1558433972271574,-2,-6,2,-3,0,-1,4,-2
1558433972271574,-1,3,3,0,-1,1,-2,-5
1558433972280550,-3,0,-2,-5,-6,1,-1,-6
1558433972280550,3,1,0,4,2,4,0,-1
1558433972286533,0,3,0,1,-2,-5,-3,0
1558433972286533,-4,-16,-3,-3,0,2,3,-2
1558433972295511,1,5,9,3,-6,-7,-3,-1
1558433972295511,0,-3,0,2,3,0,-4,-1
1558433972309474,-1,-3,-8,-6,-3,-3,3,2
1558433972309474,2,5,1,-1,2,0,-1,2
1558433972317451,-1,0,-1,-1,-2,-1,1,1
1558433972317451,-5,-5,-8,-10,-11,-8,-10,-7
1558433972332419,1,1,4,5,0,6,3,-1
1558433972332419,3,6,-3,5,3,-3,0,5
1558433972340389,-5,-12,3,3,1,-3,-1,-2
1558433972340389,0,-3,-14,-10,-6,-1,1,3
1558433972347370,1,-1,9,0,-4,-4,-5,-4
1558433972347370,-1,-1,-6,0,-1,-2,1,-1
1558433972355351,2,6,2,0,1,6,0,-2
1558433972355351,-4,-8,1,2,1,-2,-2,-1
1558433972369314,0,5,4,-2,-3,-6,-8,-3
1558433972369314,-1,4,-5,-9,3,6,1,1
1558433972377293,-2,-8,-11,-4,-6,-5,-3,-3
1558433972377293,-1,-3,3,1,1,0,2,-2
1558433972392251,0,1,5,6,4,2,-3,3
1558433972392251,-3,-3,2,-1,-7,-2,-4,-4
1558433972400230,-1,3,-4,-4,-4,-2,-6,-4
1558433972400230,1,2,5,-1,0,-4,1,0
1558433972416189,-2,-7,-10,-6,-1,5,-2,-4
1558433972416189,2,-1,0,3,-4,-7,-4,0
1558433972416189,2,-7,0,5,10,7,8,6
1558433972416189,-1,-2,2,-2,-4,-1,-6,-4
1558433972429155,-3,-1,-4,1,-1,-1,0,-2
1558433972429155,-1,0,-2,-4,1,4,0,2
1558433972437133,-7,-9,-12,-7,-4,1,-1,0
1558433972437133,1,9,14,10,3,-5,0,3
1558433972452091,-3,-4,-5,-1,2,1,3,0
1558433972452091,-2,-2,-10,-7,-2,0,-2,-5
1558433972460069,-1,3,1,-3,-3,-2,-1,-4
1558433972460069,-2,-2,0,3,5,9,4,-1
1558433972476029,0,-1,-4,1,-1,0,-4,-1
1558433972476029,-2,-1,8,3,-1,-4,-1,-3
1558433972476029,1,2,6,4,4,-3,1,3
1558433972476029,-3,-3,-8,-6,-8,-1,-1,-2
1558433972488993,-1,3,4,0,-6,-2,-5,-3
1558433972488993,-2,-5,-2,0,5,1,0,-1
1558433972497969,0,4,-1,2,3,-2,0,0
1558433972497969,-2,-1,2,-3,-4,4,-4,-3
1558433972511932,3,1,3,4,-2,-6,-4,0
1558433972511932,0,6,3,-4,1,-1,8,2
1558433972519921,-3,-9,-2,3,-3,-5,-4,-8
1558433972519921,2,2,-10,-6,-1,0,-4,-2
1558433972535878,-7,-16,-4,-6,-3,1,-2,-4
1558433972535878,5,1,8,9,6,2,2,2
1558433972536865,2,4,4,-3,-1,2,2,0
1558433972536865,1,-2,-6,-3,-3,-3,-5,-2
1558433972549954,1,2,5,0,-3,-8,2,0
1558433972549954,-5,-7,-10,-3,-8,-6,-6,-4
1558433972557856,-5,-1,0,-4,-1,-2,-4,-4
1558433972557856,1,1,2,6,4,3,2,-1
1558433972571775,-3,-3,-5,-12,-7,-3,-2,-3
1558433972571775,-4,-1,0,2,1,3,0,-2
1558433972580780,1,3,3,-2,-7,-7,-2,0
1558433972580780,-2,-4,-8,-6,-3,-2,-3,-3
1558433972595941,2,1,-3,5,7,1,4,5
1558433972595941,0,2,3,1,-3,-5,-3,0
1558433972596709,-2,3,2,1,-4,0,-7,-4
1558433972596709,-6,-10,4,-1,-9,-10,5,1
1558433972609702,-1,-3,-4,-4,5,6,-2,-1
1558433972609702,0,-2,-7,-2,2,0,0,1
1558433972617998,4,6,2,2,2,4,2,4
1558433972617998,1,0,-2,0,2,0,-3,0
1558433972632612,-5,-3,0,5,-1,-3,-4,-6
1558433972632612,-3,-3,9,-7,-6,-3,-3,-6
1558433972640743,-1,-4,-18,-12,-6,-9,-2,3
1558433972640743,-2,4,2,-2,-4,-4,-2,-5
1558433972656545,4,1,1,5,13,16,8,2
1558433972656545,0,-1,-9,2,-1,-2,-2,1
1558433972656545,-3,-1,3,0,-3,-5,-2,-1
1558433972656545,-4,-2,-3,-2,5,2,6,3
1558433972669856,-2,-1,-6,-6,-5,-4,-1,-1
1558433972669856,-3,-2,1,3,-4,-7,-4,-3
1558433972677794,0,2,-1,1,0,1,-2,-2
1558433972677794,-4,-12,-8,-8,-8,-4,-5,-3
1558433972691452,2,2,1,0,3,1,1,-1
1558433972691452,2,-2,0,2,-1,-1,2,2
1558433972700455,0,1,5,-3,-5,-3,0,0
1558433972700455,3,9,8,7,7,3,1,1
1558433972715386,-2,1,0,-4,0,0,4,0
1558433972715386,-5,-8,-16,-9,-7,-6,-7,-1
1558433972715386,0,-3,4,3,7,7,-3,-1
1558433972715386,1,0,0,2,-3,-4,2,-1
1558433972729349,-1,-1,-7,-5,-8,-6,-6,-3
1558433972729349,2,0,4,5,7,9,4,0
1558433972737367,-1,2,-2,0,-1,6,0,-2
1558433972737367,-1,-4,-3,0,0,-2,-2,-3
1558433972752293,2,1,-7,-2,0,-1,-1,-1
1558433972752293,-4,-6,-5,-6,-2,-1,0,1
1558433972760287,-1,-2,1,2,-3,-7,0,0
1558433972760287,0,2,7,6,-4,-4,-3,1
1558433972774232,-3,-5,-6,-5,-2,4,4,-1
1558433972774232,-3,-2,-11,0,7,2,-1,-1
1558433972783206,-1,2,-1,-9,-5,-2,-1,0
1558433972783206,-2,2,2,0,2,-1,-4,-1
1558433972798375,0,2,6,2,-3,-3,-8,-4
1558433972798375,0,0,4,1,1,0,2,-3
1558433972799167,0,-5,-10,-1,4,3,-3,0
1558433972799167,-2,2,1,-4,-5,-1,0,-1
1558433972812130,-1,-4,3,3,0,-1,-2,1
1558433972812130,1,3,1,-4,-4,-2,-3,-1
1558433972821123,-1,3,4,3,4,5,3,-1
1558433972821123,-5,-13,-14,-8,-5,1,-3,-2
1558433972834072,-3,2,5,8,1,-2,-7,-2
1558433972834072,3,7,-4,-11,-1,-7,2,3
1558433972843048,0,-5,6,5,0,-1,1,0
1558433972843048,0,2,-7,0,3,6,3,-1
1558433972849030,-1,-3,-5,-3,-10,-6,-2,-2
1558433972849030,-2,-6,4,2,-3,1,-4,-4
1558433972858015,-2,4,2,2,3,-2,3,0
1558433972858015,0,-1,3,-2,-1,-1,-6,-1
1558433972871972,1,2,-4,-1,0,-2,0,0
1558433972871972,-3,-4,-7,-6,1,7,1,-3
1558433972880944,1,-7,-6,-9,-7,-8,-5,-2
1558433972880944,0,0,6,6,6,5,2,0
1558433972894907,-3,-6,-3,-3,0,-1,2,1
1558433972894907,-1,0,3,2,-2,0,-4,1
1558433972902902,-5,-6,-7,-1,-3,1,0,-3
1558433972902902,2,-1,-4,-8,-3,-7,-2,0
1558433972909872,2,4,6,-2,-3,-5,-4,1
1558433972909872,3,0,-1,1,3,-1,1,4
1558433972917885,-1,0,1,4,4,4,1,-2
1558433972917885,-1,-4,0,-4,-4,-1,-2,-2
1558433972931843,-3,0,-1,1,1,-4,0,0
1558433972931843,-1,-1,7,0,-10,-8,-1,-3
1558433972940786,-3,2,-6,-5,1,5,-2,-2
1558433972940786,-3,-1,-9,-2,3,4,1,-1
1558433972954750,1,3,3,5,6,6,2,0
1558433972954750,-1,5,0,1,-1,1,-3,-3
1558433972963723,-1,-3,-6,-5,-7,-7,-3,-1
1558433972963723,1,-8,4,2,-4,-7,0,-3
1558433972969712,1,0,4,-1,4,3,0,1
1558433972969712,-4,-10,-8,0,-3,-2,-3,0
1558433972978683,0,-2,-1,-1,0,-5,-3,-2
1558433972978683,-4,1,-6,-1,0,-1,-1,-2
1558433972991653,0,-1,-2,0,-6,-7,-4,-1
1558433972991653,0,8,3,1,-2,-1,0,2
1558433973000629,3,8,18,5,-2,0,-4,1
1558433973000629,-3,-13,-15,-6,-6,-2,1,-3
1558433973014589,1,-4,0,2,2,-1,6,0
1558433973014589,0,-2,-13,-16,-2,-1,3,0
1558433973023565,0,-6,-8,1,1,-3,2,2
1558433973023565,3,13,33,9,4,1,-1,4
1558433973029611,-8,-8,-21,-10,-12,-5,-5,-5
1558433973029611,2,7,21,10,5,4,-1,-2
1558433973038522,-3,1,-18,-6,1,-4,-1,-1
1558433973038522,0,1,2,1,2,4,1,2
1558433973051489,-6,-11,-13,-5,2,0,-2,-3
1558433973051489,3,2,17,7,2,0,1,-1
1558433973060465,-4,-8,-4,-3,-3,1,0,-2
1558433973060465,1,8,9,9,5,2,1,1
1558433973074426,-3,-9,-22,-7,-3,-7,-1,1
1558433973074426,0,2,-1,-5,-3,-2,-5,-4
1558433973083408,2,0,16,9,3,6,6,0
1558433973083408,-2,-2,-17,-13,-4,-6,-2,0
1558433973089389,2,10,30,14,1,2,3,1
1558433973089389,-8,-13,-28,-4,3,2,1,-2
1558433973098364,-1,-2,2,-15,-8,-6,-8,-4
1558433973098364,2,5,-8,-2,0,0,0,-1
1558433973112328,2,-4,-4,-4,1,2,2,3
1558433973112328,-2,3,16,1,-5,-5,-6,-3
1558433973120308,-1,2,10,5,0,-2,0,0
1558433973120308,-4,-5,-17,-2,-2,-5,-1,0
1558433973134269,0,2,-13,-9,-3,-6,-6,-3
1558433973134269,-1,-4,-3,4,2,3,3,-1
1558433973143243,-4,-13,-19,-3,0,0,-4,-2
1558433973143243,3,5,22,3,-1,-1,-3,-1
1558433973149226,-1,-3,-18,-2,-2,2,-3,-2
1558433973149226,-2,-7,-9,-8,-8,-13,1,2
1558433973158208,2,10,16,10,7,5,1,-1
1558433973158208,-2,3,-16,-4,-5,-1,0,1
1558433973172168,-4,-7,4,-5,-5,-2,-5,-4
1558433973172168,-2,-3,4,1,2,-1,0,1
1558433973181162,2,4,-1,0,-3,-3,-2,-1
1558433973181162,-4,-10,1,-3,-4,-5,-2,-5
1558433973194109,4,10,3,3,8,9,7,2
1558433973194109,-2,-5,-4,-1,-6,-3,-4,-1
1558433973203104,-1,-1,-3,-1,-5,-6,-3,-1
1558433973203104,1,-1,-3,0,3,3,1,-1
1558433973209069,-2,1,6,-3,-8,-5,-4,-1
1558433973209069,-1,-2,0,-1,1,-2,0,-1
1558433973218082,-2,0,-6,-4,0,2,1,0
1558433973218082,1,-2,3,1,1,0,-3,-1
1558433973232005,-1,-2,4,1,2,1,-2,-1
1558433973232005,-1,-3,-8,-10,-9,-7,-7,-3
1558433973240981,-2,-1,-1,4,-2,1,-2,-2
1558433973240981,0,0,-5,0,2,-2,4,4
1558433973253946,-2,0,10,0,-3,-2,0,-1
1558433973253946,-2,-2,-14,0,-2,1,-4,-5
1558433973262954,-2,0,-3,-12,-5,-3,-1,-2
1558433973262954,-2,-1,4,2,-4,-10,-1,-2
1558433973269908,-1,-2,-3,1,2,1,1,-1
1558433973269908,0,0,9,6,4,5,1,0
1558433973277885,1,1,2,1,-2,0,0,-2
1558433973277885,-2,-5,-2,-3,0,1,-3,-2
1558433973291850,-1,3,-6,-5,3,-3,-2,-1
1558433973291850,-2,-2,-1,-4,-2,-1,1,-2
1558433973300822,2,1,9,9,2,2,3,3
1558433973300822,1,7,5,-2,-4,-4,-2,-2
1558433973314816,-5,-14,-14,1,-2,-2,-5,-1
1558433973314816,1,0,1,-7,-1,3,-3,-2
1558433973323761,0,-4,-7,-4,1,-1,0,2
1558433973323761,-2,-2,1,0,-1,3,-1,-4
1558433973337725,1,7,12,5,3,3,3,2
1558433973337725,0,4,1,5,2,-2,2,-1
1558433973344704,-4,-7,-12,-5,-1,-2,-2,-1
1558433973344704,-3,-3,-5,-1,-2,-1,-4,-4
1558433973351689,0,4,1,-6,-2,2,-2,-1
1558433973351689,-1,-1,1,0,-3,-5,1,1
1558433973360662,-3,-3,0,4,-1,-1,1,1
1558433973360662,-1,-7,-1,-1,-2,-2,0,1
1558433973374635,1,-2,-3,-6,-10,-8,-4,-3
1558433973374635,2,3,1,-1,2,2,-1,1
1558433973383620,-2,-2,1,3,5,-1,-1,-1
1558433973383620,-3,-5,-7,-8,-8,-4,0,-2
1558433973397562,0,3,12,10,7,12,5,1
1558433973397562,2,3,1,0,-2,-8,-3,3
1558433973404545,-2,-1,-13,-11,-4,-2,-6,-8
1558433973404545,-1,1,1,-1,2,5,1,-1
1558433973411525,-4,-8,4,1,-1,-2,-4,-3
1558433973411525,-3,-2,-5,3,0,4,2,-4
1558433973420503,1,-3,-1,0,-3,-9,-5,1
1558433973420503,3,5,1,1,3,-1,-2,3
1558433973434464,0,4,4,-2,-7,-4,-2,-2
1558433973434464,-4,-4,-7,0,0,-3,-3,-2
1558433973443445,1,1,1,-2,0,0,-1,0
1558433973443445,1,-2,-6,-3,0,4,-4,-3
1558433973456406,-4,-4,-6,-7,-1,-2,2,1
1558433973456406,-1,0,5,-3,-2,0,0,0
1558433973465387,0,1,1,1,-8,-6,-3,-2
1558433973465387,0,0,4,10,14,10,1,1
1558433973472362,1,0,0,2,-2,-1,9,1
1558433973472362,-2,-8,-1,-6,-10,-11,-9,-3
1558433973481343,-3,-3,-15,-7,2,5,9,2
1558433973481343,1,1,11,11,4,-1,3,2
1558433973494613,-2,0,-14,-18,-5,7,-5,-3
1558433973494613,3,0,2,3,2,3,-1,1
1558433973503281,-2,1,3,-10,-15,-9,-5,-2
1558433973503281,-3,-6,-10,-7,-8,-11,-7,-2
1558433973517248,4,5,2,14,19,16,17,3
1558433973517248,1,5,7,4,5,1,1,0
1558433973526219,-4,-10,0,-3,-4,-1,-3,-4
1558433973526219,0,-1,-5,-2,-3,-2,-4,-2
1558433973541185,0,3,3,5,-5,-4,-4,-2
1558433973541185,-5,-6,-16,-18,-5,1,-2,-1
1558433973542177,4,6,10,13,14,5,5,3
1558433973542177,-2,-7,-1,-7,-6,-4,-3,0
1558433973554144,-2,-2,1,0,-5,-10,-3,-4
1558433973554144,-3,-4,-9,-1,-8,0,-2,-2
1558433973563122,1,3,2,3,-4,-9,-3,1
1558433973563122,1,2,3,-1,10,8,5,3
1558433973577083,4,2,0,-5,2,-2,1,4
1558433973577083,-4,-4,1,1,-10,-4,-5,-4
1558433973586074,-3,-9,-11,-6,5,4,0,-1
1558433973586074,-2,-1,-8,-11,-9,-1,-2,-4
1558433973592049,-1,-3,-3,-2,2,1,-4,0
1558433973592049,4,4,13,11,9,1,4,3
1558433973601021,-3,-8,-14,-5,-8,-2,-5,-5
1558433973601021,0,4,-2,2,4,7,6,-1
1558433973613991,-1,-3,1,0,-9,-6,-5,-2
1558433973613991,1,0,1,-5,3,1,2,3
1558433973623959,1,3,12,9,6,0,-4,-1
1558433973623959,0,-3,-7,-8,-6,-5,2,1
1558433973636923,-2,3,-6,-2,-2,0,-5,-5
1558433973636923,2,-2,2,5,2,-4,-5,1
1558433973645899,-1,-4,8,4,-5,3,10,1
1558433973645899,-4,-2,-3,-8,-5,5,-2,-5
1558433973651891,2,4,6,1,8,-1,2,5
1558433973651891,-2,-1,-9,2,0,2,-1,-3
1558433973660858,-3,2,1,-10,-7,-6,-5,0
1558433973660858,-3,-7,-21,-5,-3,-9,-9,-4
1558433973674824,-1,-2,3,-3,-10,-4,-3,-1
1558433973674824,-1,2,-3,3,7,11,6,2
1558433973682800,-5,-9,-1,-1,2,-1,-1,1
1558433973682800,-3,1,6,4,-3,-8,-1,-1
1558433973696761,-3,-4,-5,2,-6,-9,-6,-3
1558433973696761,0,1,-4,-12,-3,-3,0,-1
1558433973705738,3,5,8,5,5,6,4,1
1558433973705738,1,2,14,8,-3,0,0,-2
1558433973711724,2,4,-3,4,2,0,-1,-4
1558433973711724,-7,-14,-26,-16,-13,-14,-7,-5
1558433973720705,0,5,1,-4,-3,-5,1,2
1558433973720705,3,6,12,6,9,8,5,4
1558433973743640,-3,-5,11,12,10,0,-7,-3
1558433973743640,1,2,2,0,-7,3,0,-1
1558433973744634,-2,-3,-23,-12,-8,-8,-5,-5
1558433973744634,-5,-8,6,-9,-9,-5,-4,-2
1558433973756614,-2,-3,-12,-11,-4,-7,-4,1
1558433973756614,2,9,14,6,13,8,8,1
1558433973765578,4,5,17,13,10,4,4,3
1558433973765578,0,0,-7,3,-1,-1,-3,-2
1558433973771563,-2,-3,-7,-6,-9,-5,-4,-1
1558433973771563,-1,2,2,8,2,0,-5,-4
1558433973780539,-1,1,-11,-14,-9,-4,-5,-3
1558433973780539,-1,-3,-10,-6,0,3,6,2
1558433973794506,-3,-10,-19,-8,-1,-1,2,1
1558433973794506,-2,3,10,7,2,-1,-3,-2
1558433973803477,-2,0,2,1,2,6,2,-3
1558433973803477,-3,-4,-13,-6,-1,-5,-10,-5
1558433973816442,1,2,13,2,-4,-4,4,1
1558433973816442,-4,-2,-10,-9,-5,-6,0,-1
1558433973825418,-1,0,3,9,6,-1,-6,-4
1558433973825418,-2,-1,-7,-7,-5,5,4,-2
1558433973831402,1,-4,4,1,5,0,1,-2
1558433973831402,2,5,8,11,7,3,3,3
1558433973840390,-2,-10,-10,-17,-7,-3,-1,-2
1558433973840390,2,13,26,18,8,0,0,-1
1558433973854345,-4,0,-26,-15,-7,-3,-5,-5
1558433973854345,-6,-20,-4,-3,-6,-7,-7,-2
1558433973863317,-4,-1,-4,4,7,1,4,-1
1558433973863317,-3,-3,2,-3,-2,1,-1,0
1558433973877284,-1,5,11,8,3,0,-2,-1
1558433973877284,0,-2,-6,-8,-6,-5,-6,-3
1558433973886258,0,-2,-3,2,1,2,1,1
1558433973886258,1,1,4,6,4,-1,0,1
1558433973892240,-1,4,5,0,-6,-4,-4,-3
1558433973892240,-1,-10,-6,-7,4,6,7,1
1558433973901216,-1,-2,-5,0,-2,-2,-2,1
1558433973901216,0,3,3,0,-3,-5,-2,-1
1558433973914182,0,-1,1,0,-1,0,0,2
1558433973914182,1,6,8,4,1,2,-3,-2
1558433973923158,-1,4,-6,-6,-6,-4,-2,-2
1558433973923158,-2,-5,-7,-3,1,-2,-2,-2
1558433973937119,-2,-2,6,1,-6,-2,-2,-2
1558433973937119,0,0,-12,0,5,4,0,0
1558433973946100,1,0,7,1,3,4,-1,-2
1558433973946100,-1,0,-6,-4,-5,-2,0,-2
1558433973952081,-2,-5,1,4,3,-3,-1,-3
1558433973952081,2,4,3,-7,-6,-3,1,2
1558433973961056,1,6,5,1,-1,-2,-1,2
1558433973961056,-2,-5,-6,-1,2,-2,-2,-1
1558433973983002,1,3,1,2,-1,0,-1,-2
1558433973983002,-7,-21,-9,0,-1,-4,-2,-5
1558433973984992,-1,-1,-3,-5,-5,-5,-3,-3
1558433973984992,0,0,-6,-6,-7,-8,-3,0
1558433973996965,1,2,4,-1,4,5,4,-1
1558433973996965,1,9,2,5,3,0,3,2
1558433974005941,-1,1,6,2,1,9,4,-1
1558433974005941,-4,-4,-6,1,-3,2,-5,-6
1558433974011924,-2,-4,-2,2,3,5,0,1
1558433974011924,0,2,-2,-11,-12,-12,-10,-2
1558433974020896,-2,-6,-3,-1,0,1,-2,-1
1558433974020896,1,3,6,4,4,1,1,0
1558433974034858,-4,-3,-5,-4,-3,-2,-4,-4
1558433974034858,-2,-1,-3,-1,-3,-2,1,-2
1558433974042837,0,-2,2,6,0,-1,0,-2
1558433974042837,-1,-1,2,0,-2,-5,0,0
1558433974056800,-1,-5,-12,-5,1,0,-11,-4
1558433974056800,0,1,5,6,7,11,9,2
1558433974065776,0,-4,-12,-8,-1,-3,-1,3
1558433974065776,0,-4,2,1,3,4,-2,1
1558433974071760,-2,-3,1,0,-1,-2,0,3
1558433974071760,1,5,9,1,-1,-6,-5,0
1558433974080740,-2,-1,-6,-4,-7,-4,-5,-5
1558433974080740,0,-3,-5,-5,0,-2,-1,1
1558433974094703,0,2,-2,-2,-2,0,4,1
1558433974094703,-2,-3,1,3,2,4,1,-1
1558433974103679,0,5,2,5,2,2,0,2
1558433974103679,-5,-7,-8,-10,-10,-9,-8,-5
1558433974116646,-3,-8,-3,-2,-2,-5,5,0
1558433974116646,-1,1,-1,-3,-2,-3,1,0
1558433974125619,1,1,6,8,13,7,1,0
1558433974125619,1,2,7,-1,-11,-4,0,-1
1558433974131601,-2,1,0,-3,-4,-5,-4,-3
1558433974131601,-2,-2,-2,0,-2,-1,-1,0
1558433974140577,-3,-13,-7,2,6,-2,0,2
1558433974140577,-3,-1,-8,3,-1,0,-2,0
1558433974154543,0,-2,2,-5,-5,0,-1,-1
1558433974154543,1,2,0,-4,-4,-4,0,-1
1558433974163515,0,4,9,1,-2,4,2,-2
1558433974163515,1,-1,-1,-1,5,3,8,0
1558433974176489,-2,1,0,-1,-2,1,-6,0
1558433974176489,-1,-2,-5,0,4,7,1,-2
1558433974186456,-2,-4,-5,-6,-5,-4,-1,0
1558433974186456,2,8,14,12,9,4,2,2
