timestamp,emg1,emg2,emg3,emg4,emg5,emg6,emg7,emg8
1558434107534406,0,0,6,5,0,-6,-1,0
1558434107534406,-1,-2,-7,3,-2,0,-2,-2
1558434107535404,0,0,2,-9,-5,-3,-2,-2
1558434107535404,-5,-8,-17,-7,-10,-3,-7,-6
1558434107539393,1,1,10,6,11,12,3,1
1558434107539393,2,0,-5,-3,3,-9,-2,0
1558434107541388,-2,-1,-7,2,0,-1,-1,0
1558434107541388,-2,-3,-1,-1,-3,-2,-2,0
1558434107545378,-3,-2,-4,-7,-10,-4,-5,-5
1558434107545378,-2,-1,1,6,3,-2,-2,-3
1558434107556348,1,0,1,0,-1,-5,1,1
1558434107556348,-1,1,-2,-3,-4,-2,-2,-2
1558434107570311,-3,-4,-1,-1,-4,-2,-4,-4
1558434107570311,2,3,-2,2,7,10,7,4
1558434107576294,-2,-2,-4,3,-2,-7,-4,-1
1558434107576294,-1,-2,2,0,2,2,1,-1
1558434107583276,-1,1,2,-2,-2,-1,-2,3
1558434107583276,-1,2,8,5,-7,-2,-6,-3
1558434107599233,-2,-5,-12,-7,-5,0,0,-2
1558434107599233,1,4,15,7,11,4,3,1
1558434107605216,-2,-2,-16,-5,-1,0,-2,-1
1558434107605216,-3,-7,-8,-5,-6,-5,-7,-3
1558434107653088,1,2,5,4,-1,-5,1,1
1558434107653088,0,1,6,3,1,-2,-1,1
1558434107653088,-1,0,-2,1,0,-1,-1,-1
1558434107653088,-2,3,8,-2,-6,-2,-6,-3
1558434107654085,-2,-5,-9,0,6,4,2,-1
1558434107654085,0,-1,-1,-6,-4,-1,0,0
1558434107655082,-2,-4,-8,-1,-1,-2,-2,-3
1558434107655082,-1,4,15,5,4,7,1,0
1558434107665061,-1,-3,-6,-7,-6,-3,-4,-4
1558434107665061,2,1,1,-1,2,-2,0,1
1558434107673034,-1,-2,-1,-4,-3,-4,-3,0
1558434107673034,-3,-1,-6,-1,-7,-9,-3,-3
1558434107680017,-1,1,5,1,1,4,-1,2
1558434107680017,-2,-2,-5,-6,8,14,9,0
1558434107695974,-1,3,7,0,-1,0,0,0
1558434107695974,0,-6,-13,-3,0,1,1,-2
1558434107701958,-2,1,10,6,-3,-8,-5,-1
1558434107701958,-3,-3,-8,-2,-8,-7,-6,-1
1558434107710934,-1,-2,2,0,0,3,-1,0
1558434107710934,-1,-1,-1,-7,-5,-4,-3,-4
1558434107724896,-2,-2,-6,2,3,9,2,0
1558434107724896,1,0,-1,6,2,-8,-2,2
1558434107732875,0,0,0,3,6,0,0,0
1558434107732875,-1,-1,-8,-15,-8,-1,0,-3
1558434107739857,-2,-4,0,-3,-7,-7,-5,-2
1558434107739857,0,0,4,4,4,4,0,-2
1558434107755814,-3,-4,-16,-4,-7,-2,-2,-2
1558434107755814,0,-4,1,3,0,-6,-1,2
1558434107762795,-2,2,11,-3,-3,-2,-4,-5
1558434107762795,-3,-1,-6,-2,-5,-3,-3,-4
1558434107769776,3,3,9,5,7,-3,5,2
1558434107769776,-1,0,2,1,4,-2,-2,1
1558434107784737,1,-4,-8,-6,-1,2,2,1
1558434107784737,1,5,15,8,4,0,-3,1
1558434107792715,-4,-3,-8,-8,-12,-6,-6,-6
1558434107792715,-3,-2,-8,-2,1,8,3,-1
1558434107801692,0,3,6,9,2,-2,1,1
1558434107801692,-5,-10,-16,-14,-9,4,-2,-3
1558434107815655,1,3,13,5,3,-4,-2,-1
1558434107815655,1,0,-2,6,0,-6,-3,1
1558434107822638,-1,-5,-10,-9,2,0,-1,-2
1558434107822638,-1,0,4,2,2,5,6,-1
1558434107829617,-2,-5,-2,-5,-5,-6,-2,-2
1558434107829617,0,0,-4,3,1,-2,-2,0
1558434107844578,-2,1,0,0,-6,-7,-2,-2
1558434107844578,-2,1,-3,-6,-5,-3,-6,-3
1558434107853553,-1,-3,-1,-1,1,6,-1,1
1558434107853553,0,2,8,7,7,2,4,2
1558434107859536,-1,4,-7,-4,2,-4,0,2
1558434107859536,-2,-6,-1,-1,-4,-5,0,-1
1558434107875500,0,1,3,-1,0,1,-1,-4
1558434107875500,-1,-4,-2,-2,-2,2,-1,-2
1558434107882475,0,-1,3,-1,-2,4,-3,1
1558434107882475,-1,0,1,10,10,6,1,0
1558434107890453,-1,-1,0,-10,-9,-5,-4,-2
1558434107890453,-1,-3,-11,-2,1,-3,-2,0
1558434107905413,-1,1,16,2,8,8,6,0
1558434107905413,-2,-1,-7,-2,-7,-13,-5,-1
1558434107913393,-1,-1,-3,4,1,6,2,2
1558434107913393,-2,-2,-2,-8,-12,-9,-6,-4
1558434107920374,0,3,-4,3,-1,-1,-2,-3
1558434107920374,-2,-3,-5,-10,-7,0,-6,-6
1558434107935334,-2,-5,4,0,-5,-2,-1,0
1558434107935334,0,0,-5,2,12,6,7,5
1558434107942315,-1,-1,-6,-3,2,1,2,1
1558434107942315,1,3,9,2,2,-2,0,0
1558434107950294,-2,-3,-8,-3,-3,2,-3,-2
1558434107950294,-2,0,6,2,-4,-1,-5,-3
1558434107965266,-1,-5,1,-1,-5,0,0,-3
1558434107965266,0,1,-10,1,9,4,4,1
1558434107973232,-1,3,5,0,2,-2,3,2
1558434107973232,-2,-4,-9,-4,-3,-1,-2,-5
1558434107980214,-2,-4,-6,-2,-1,0,-3,-2
1558434107980214,0,-3,-3,-6,-8,-8,-1,1
1558434107995174,-1,1,1,2,3,2,1,-1
1558434107995174,-1,2,5,1,6,6,3,3
1558434108002155,0,1,-3,0,-7,-9,-4,-3
1558434108002155,-5,-6,-1,-4,-5,-1,-3,-4
1558434108010134,-2,-3,-2,-3,-1,1,-1,-3
1558434108010134,-1,-1,-2,-3,-3,-2,-1,-1
1558434108025094,1,2,4,2,-1,-3,-2,2
1558434108025094,-1,0,-5,1,-1,-2,-3,-1
1558434108033073,-1,0,-4,-7,-4,-3,-2,-3
1558434108033073,-2,-3,-8,3,-4,1,-2,-1
1558434108040054,-3,-3,-6,-6,-2,-3,0,-1
1558434108040054,0,0,3,1,1,0,1,2
1558434108056011,-2,1,2,-1,5,1,0,0
1558434108056011,0,3,7,1,-4,2,-2,-2
1558434108061997,0,-3,-5,0,3,1,1,-1
1558434108061997,-2,-2,-3,0,-1,-1,-3,-1
1558434108076956,-1,-2,-2,-1,-1,-1,-4,-1
1558434108076956,1,-1,1,1,-2,-9,-3,0
1558434108084933,0,0,-3,-2,-2,-1,-3,-2
1558434108084933,0,3,4,1,-2,-4,0,-1
1558434108093909,-2,-3,-11,-3,-1,0,0,-1
1558434108093909,-1,-1,5,-3,1,0,1,0
1558434108099893,0,-4,-3,3,0,-10,-3,0
1558434108099893,1,1,-4,-2,0,3,1,-2
1558434108116849,-1,1,5,4,-1,-5,-6,-2
1558434108116849,-2,-3,-2,1,6,6,1,0
1558434108122832,-4,-5,-9,-8,-10,-1,-2,-3
1558434108122832,-2,-1,-7,3,3,2,0,0
1558434108137792,5,1,4,3,2,-4,5,4
1558434108137792,-1,0,-3,-6,2,1,-1,-6
1558434108144777,-2,-1,2,1,4,-3,-5,-2
1558434108144777,-3,-3,5,-5,-7,-6,-3,-2
1558434108153749,-2,-1,-3,1,-5,-1,0,-1
1558434108153749,1,-1,2,0,-3,0,-2,0
1558434108159735,1,2,0,9,10,7,2,1
1558434108159735,-2,-3,-3,-12,-4,-4,-4,-3
1558434108176689,-2,-2,-6,0,3,0,0,-1
1558434108176689,-1,0,5,0,-3,-6,-1,-1
1558434108182671,-3,-5,-13,-12,-8,4,-2,-2
1558434108182671,-2,-2,5,4,-3,-2,-1,-2
1558434108198630,0,0,-7,1,2,-3,0,2
1558434108198630,-2,-4,-1,-2,-5,-5,-3,-2
1558434108204614,-1,0,6,-2,1,5,3,-2
1558434108204614,-1,0,-8,-5,-1,-1,-2,2
1558434108213590,-3,0,1,-3,-8,-8,-6,-4
1558434108213590,0,0,-6,1,1,-1,1,-2
1558434108219575,1,6,13,3,3,2,4,3
1558434108219575,0,-1,-2,5,6,3,0,1
1558434108236528,-2,-11,-5,-7,-3,4,1,1
1558434108236528,-1,-7,-5,-3,-5,-10,-5,-2
1558434108242512,-1,-3,-2,-1,-2,-4,0,0
1558434108242512,0,2,3,-4,-7,-5,-1,-2
1558434108258469,-1,5,3,2,1,1,-1,-2
1558434108258469,-2,1,-3,-5,-2,4,1,1
1558434108265452,-1,-4,-13,3,2,0,0,0
1558434108265452,-3,-5,-1,-8,-2,-3,-1,-2
1558434108273429,1,1,0,3,5,-5,-1,-2
1558434108273429,0,3,4,-3,-3,8,2,-2
1558434108279414,-1,0,-3,0,-3,-5,-3,-1
1558434108279414,2,2,4,3,2,-5,0,2
1558434108296368,1,-1,1,-3,-1,3,1,0
1558434108296368,-2,-1,4,-2,-6,-5,-8,-3
1558434108302352,-3,-3,-8,0,1,-2,0,-3
1558434108302352,-1,-1,1,3,3,3,1,0
1558434108319307,-3,-4,-5,-7,-3,2,-2,-3
1558434108319307,-1,0,-4,3,2,-7,7,5
1558434108325295,-1,-1,4,-3,-1,2,-1,-1
1558434108325295,0,-2,-2,-1,-2,-3,-1,-4
1558434108334267,0,2,3,5,-2,-1,-2,0
1558434108334267,-3,-3,2,0,1,4,-3,-3
1558434108340250,1,-1,-7,-3,-1,-3,1,2
1558434108340250,1,2,4,1,6,2,3,2
1558434108356207,-5,-8,-6,-3,0,0,-1,-1
1558434108356207,-1,1,3,2,-2,-2,0,1
1558434108362192,-2,-1,6,-1,-2,-2,-3,-1
1558434108362192,-1,-1,1,0,-3,1,-2,-5
1558434108379146,1,3,6,3,-6,-4,-1,-2
1558434108379146,-2,-1,-15,-8,-2,-1,0,0
1558434108385130,0,-1,2,6,4,-4,-3,0
1558434108385130,-5,-4,-14,-13,-8,-3,-5,-1
1558434108394107,-1,3,4,3,7,4,1,-3
1558434108394107,0,-1,0,-2,0,0,-1,-3
1558434108400092,-1,-1,1,-1,-1,3,2,-2
1558434108400092,-1,-1,-1,5,-1,-3,-3,0
1558434108416049,-1,-1,-3,-4,-8,-4,-3,-2
1558434108416049,0,-3,1,0,-2,-3,-2,0
1558434108422032,4,6,4,6,16,10,7,6
1558434108422032,-5,-7,1,-5,-5,-3,-4,-3
1558434108438987,-1,1,-6,-7,-5,-4,-1,0
1558434108438987,-3,-3,-3,0,1,-3,-1,1
1558434108444970,-4,-6,-2,-5,-7,-4,-7,-6
1558434108444970,2,2,2,2,-1,-1,-1,1
1558434108453947,-1,-2,2,1,2,7,0,0
1558434108453947,0,-2,-6,-1,-3,0,-1,-1
1558434108459930,0,0,2,1,-5,-14,-4,2
1558434108459930,2,6,5,-1,-5,-1,-2,-2
1558434108475889,-3,-8,-18,-5,2,1,0,0
1558434108475889,1,2,6,2,8,1,1,0
1558434108482869,-2,0,4,-1,-3,-3,-4,-3
1558434108482869,-2,-2,-6,-2,-2,0,-2,-3
1558434108498826,0,1,5,1,-1,0,-1,-3
1558434108498826,-2,-3,-4,-6,-6,-4,-3,-1
1558434108504811,2,3,5,9,8,11,5,4
1558434108504811,-1,0,12,-1,-4,-2,0,1
1558434108513786,-3,-5,-27,-10,0,0,2,0
1558434108513786,-4,-3,-5,-2,0,7,1,-1
1558434108527748,-3,-5,-8,-11,-10,-1,-6,-6
1558434108527748,0,3,7,4,0,-3,-4,-2
1558434108536725,2,2,13,6,5,3,3,6
1558434108536725,0,-2,2,3,1,-1,0,-2
1558434108542710,-2,-3,-3,-2,-4,-1,2,-2
1558434108542710,0,0,1,5,5,-5,0,1
1558434108558667,-2,-2,-7,-3,-2,-3,-2,-4
1558434108558667,-1,1,2,-2,-2,2,0,-3
1558434108564650,0,2,8,-1,-3,-2,-2,-1
1558434108564650,-1,-5,-19,-6,-1,-1,-2,-2
1558434108579610,-1,1,10,0,-5,-2,-6,-3
1558434108579610,0,-3,-5,2,8,4,5,3
1558434108587588,-1,0,-2,-4,-5,-4,-3,0
1558434108587588,-1,-5,-2,-1,1,1,-1,-2
1558434108604543,-2,1,5,2,-2,-6,-2,0
1558434108604543,0,-1,3,-1,-2,2,-3,-3
1558434108605540,0,-1,-8,-3,-1,-1,0,-1
1558434108605540,-3,-2,2,6,2,0,-2,-3
1558434108618506,-2,-1,-2,-6,-5,4,2,0
1558434108618506,-2,-3,-10,3,-1,-7,-3,-2
1558434108633470,0,1,4,-3,-1,-3,3,2
1558434108633470,-1,-1,-5,-2,10,11,2,0
1558434108639449,-1,1,4,1,-1,-4,-1,0
1558434108639449,-1,3,1,-5,-9,-6,-6,-3
1558434108647428,-2,-5,-6,-2,-6,-3,-5,-4
1558434108647428,1,-1,1,1,8,9,7,4
1558434108663403,-1,-1,0,-2,-4,-3,-4,-1
1558434108663403,2,5,7,11,10,1,7,3
1558434108670379,-4,-7,-11,-6,-3,-2,-7,-7
1558434108670379,0,-1,2,-2,-1,-1,3,4
1558434108678384,0,-2,-3,-1,1,-3,-2,-2
1558434108678384,-1,-3,-1,-6,-10,-2,-6,-6
1558434108685326,1,4,6,7,1,3,1,0
1558434108685326,2,2,-1,-10,-3,-6,1,3
1558434108700288,-1,-1,-12,-3,2,-5,-2,-3
1558434108700288,-2,-4,6,0,-2,-5,-3,-2
1558434108707268,-2,-5,-16,-5,-7,1,-2,-3
1558434108707268,0,0,8,2,-7,-6,-8,-3
1558434108730206,3,3,-1,3,7,4,5,3
1558434108730206,-2,0,-8,-8,-5,-1,-4,-1
1558434108731204,0,0,0,0,3,1,1,-2
1558434108731204,-3,-3,-6,-2,-5,-3,-2,-5
1558434108739184,-1,-3,6,5,0,-2,-4,-1
1558434108739184,0,0,4,1,1,0,0,1
1558434108745167,0,0,0,1,0,-2,-2,-1
1558434108745167,-2,-2,1,-6,-3,-1,0,-2
1558434108760127,-2,-2,-6,-3,-2,0,-4,-1
1558434108760127,1,4,8,1,2,1,0,3
1558434108767108,0,1,-3,7,6,1,2,1
1558434108767108,-3,-1,-3,-9,-6,-5,-3,-5
1558434108783065,-2,-2,2,-1,-1,-1,0,-2
1558434108783065,0,-1,-3,-3,-9,-9,-3,-3
1558434108784063,0,1,4,1,6,2,3,2
1558434108784063,-1,2,-3,5,5,4,4,3
1558434108799022,-1,0,7,-1,-3,2,-2,-3
1558434108799022,-2,-3,-8,-5,-2,1,-2,-2
1558434108805006,-4,-2,-7,-6,-6,-6,-5,-1
1558434108805006,0,-3,-5,2,1,5,1,2
1558434108819966,2,2,4,1,-4,-4,-2,1
1558434108819966,-1,0,3,2,1,-1,-1,-1
1558434108827946,-1,-4,5,-1,-4,0,-2,-3
1558434108827946,-1,-3,-7,2,0,-1,1,1
1558434108844900,-2,-2,-6,-3,-2,-2,-2,-5
1558434108844900,-2,1,2,1,3,4,4,1
1558434108844900,0,-1,3,-4,-5,-3,-1,1
1558434108844900,-3,-2,-7,-2,-5,-6,-5,-2
1558434108858863,-3,-3,-1,-1,-3,-3,-4,-4
1558434108858863,0,-1,-1,-2,0,5,4,0
1558434108864851,0,0,2,1,1,1,2,0
1558434108864851,1,4,6,5,0,3,-1,0
1558434108879807,-4,-7,-9,-3,-4,0,-4,0
1558434108879807,-3,-5,1,-3,-5,-6,-6,-5
1558434108887786,-2,0,-5,-3,-4,-5,-1,0
1558434108887786,-2,-5,-11,-5,-4,-2,-2,-4
1558434108902746,-1,0,2,1,-1,-1,-1,-1
1558434108902746,0,1,-7,-4,6,0,3,3
1558434108903743,0,2,5,1,3,6,2,2
1558434108903743,-3,-6,-2,-3,-5,-6,-3,-3
1558434108918703,1,0,2,-2,2,4,1,-1
1558434108918703,-1,-2,1,-1,-6,-6,-4,-3
1558434108924688,2,4,4,7,7,-6,-2,1
1558434108924688,-2,0,-8,-8,-6,-3,0,-3
1558434108939651,-3,-3,-5,-5,5,2,0,0
1558434108939651,-2,-4,-5,-3,2,5,0,1
1558434108947627,-8,-11,-10,-7,-6,2,-6,-5
1558434108947627,0,1,2,5,4,-3,1,0
1558434108963586,-1,0,5,1,-3,-6,0,-2
1558434108963586,-4,-1,-4,-9,-12,-10,-10,-6
1558434108963586,2,3,5,9,12,14,8,2
1558434108963586,1,0,0,1,5,0,4,3
1558434108987522,0,4,3,1,-3,-3,0,2
1558434108987522,-2,-2,-7,-6,1,5,-1,-3
1558434108987522,-3,-5,-5,-5,-12,-6,-8,-5
1558434108987522,0,1,7,2,3,1,-3,1
1558434108999487,1,1,-1,1,0,-1,0,2
1558434108999487,0,1,3,6,1,-6,1,-3
1558434109007466,-1,-3,6,-4,-3,0,0,-2
1558434109007466,-2,-3,0,-2,1,4,0,-1
1558434109023422,0,-2,0,-1,2,-1,-2,-1
1558434109023422,-3,-3,-22,0,3,5,1,0
1558434109023422,0,0,-6,-11,-13,-9,-3,-2
1558434109023422,-3,-2,0,-1,-3,0,-4,-4
1558434109045403,-3,0,4,2,-3,-2,-1,-1
1558434109045403,1,2,5,1,4,0,1,1
1558434109046362,2,3,0,2,3,-3,-1,1
1558434109046362,-2,-4,-7,-1,-3,5,-3,-1
1558434109060323,0,-2,0,-5,-3,-5,-3,1
1558434109060323,0,1,3,1,0,-5,-2,0
1558434109067304,-1,0,-4,-7,-3,-5,-5,-3
1558434109067304,-3,-2,-1,1,-1,-3,-2,-3
1558434109083264,-1,-1,-5,-2,2,4,1,-1
1558434109083264,-1,-2,4,1,-1,3,4,4
1558434109083264,1,2,9,1,-2,-5,-1,0
1558434109083264,-1,-2,-7,-2,-2,-4,0,-3
1558434109099247,-1,1,-1,-4,-2,2,1,0
1558434109099247,2,0,3,2,0,2,2,0
1558434109105205,0,-1,-5,-3,-2,0,-2,-3
1558434109105205,-1,-2,1,1,0,-4,-2,2
1558434109120164,-3,-4,-4,-6,-6,-3,-2,-2
1558434109120164,-3,-1,1,-2,-4,0,-6,-3
1558434109127147,-3,-3,-10,-1,6,1,1,2
1558434109127147,2,2,2,2,2,1,0,-1
1558434109143137,-1,-3,0,4,2,0,1,-1
1558434109143137,0,2,5,1,-1,-3,-3,-2
1558434109144101,-2,0,0,1,-7,-2,-5,-4
1558434109144101,-1,-4,-14,-6,-4,-5,1,-2
1558434109159059,0,3,7,6,5,1,0,0
1558434109159059,-2,-3,-6,-5,-2,-1,-2,-1
1558434109165059,-3,-4,-2,-4,-3,-5,-3,-3
1558434109165059,4,2,9,3,1,1,-1,-2
1558434109180004,-1,-3,-12,-5,-4,-4,-6,-1
1558434109180004,1,0,2,2,3,6,5,5
1558434109186984,-1,3,12,4,-2,0,-4,-4
1558434109186984,0,-2,-12,1,5,1,-1,-1
1558434109202942,-6,-5,-8,-6,3,5,4,-1
1558434109202942,0,-3,-2,0,0,-1,3,1
1558434109203940,-1,-2,-7,-1,-2,-2,-1,-1
1558434109203940,-1,1,7,-6,-7,-3,-4,-3
1558434109218901,2,2,3,4,2,-8,-8,-4
1558434109218901,2,2,3,4,4,2,8,2
1558434109224885,-1,0,-2,-2,-1,3,3,1
1558434109224885,-2,-4,-4,-5,-2,-5,-5,-2
1558434109239844,-2,-3,-2,-3,-8,-5,-7,-3
1558434109239844,-2,-3,-2,-3,-7,-4,-6,-4
1558434109247823,1,-3,-1,-1,-4,-6,-3,-4
1558434109247823,2,2,6,3,1,3,-1,2
1558434109262782,0,-1,-1,-3,-2,2,3,-1
1558434109262782,-2,-4,-1,-1,-2,-5,-7,-4
1558434109263779,0,2,1,4,4,6,3,2
1558434109263779,1,2,4,6,0,2,1,1
1558434109278739,-1,-1,-10,-9,2,5,8,2
1558434109278739,-3,-6,-7,-5,-6,-9,-4,-3
1558434109284723,-2,-2,-7,-8,-2,2,-3,0
1558434109284723,-2,-1,8,0,-6,-3,-5,-3
1558434109299685,1,3,7,5,-4,-8,-7,-2
1558434109299685,1,0,5,4,6,5,0,0
1558434109307663,1,0,-5,1,3,-3,3,0
1558434109307663,-2,0,-2,-2,-1,-3,0,-1
1558434109322622,-3,-7,-9,-1,-4,-2,1,-2
1558434109322622,-3,-6,-1,-5,-5,-6,-5,-5
1558434109323630,-4,-2,-4,-1,-5,-2,-3,-3
1558434109323630,-2,0,-4,-7,-6,6,2,-2
1558434109338579,0,-1,-1,2,-1,1,-2,-1
1558434109338579,4,4,3,4,3,-3,5,4
1558434109344575,0,-3,0,0,2,3,-2,2
1558434109344575,-3,-3,-6,-3,-2,-7,-3,-4
1558434109359525,-3,-3,0,-3,-3,-1,-3,-2
1558434109359525,2,4,9,5,2,10,3,1
1558434109367535,0,1,-6,-3,-3,-4,0,1
1558434109367535,-6,-9,-25,-8,2,3,-3,-3
1558434109383461,0,-2,-3,-1,0,-4,-2,-2
1558434109383461,-5,-1,-2,-1,1,3,-4,-4
1558434109383461,-2,-2,7,-3,-3,-5,-1,1
1558434109383461,1,2,9,1,-2,-5,-2,-1
1558434109398505,0,0,-2,-4,-5,-3,-2,-1
1558434109398505,0,-2,-5,-2,-1,3,-1,0
1558434109405659,3,4,7,9,6,2,4,2
1558434109405659,-5,-6,-11,-7,-1,1,0,0
1558434109420717,0,1,2,3,3,0,2,0
1558434109420717,-2,-2,-2,-2,-6,-11,-7,-1
1558434109427377,-2,-4,-2,-6,-1,-1,-6,-2
1558434109427377,0,2,6,4,3,3,2,-1
1558434109443802,2,4,10,6,2,3,2,0
1558434109443802,-4,-2,-15,-15,-11,-4,-4,-6
1558434109443802,-3,-8,-14,1,0,-1,-2,-4
1558434109443802,1,-1,5,-4,0,-6,3,3
1558434109458724,-1,-1,-6,0,3,6,1,1
1558434109458724,0,0,5,4,-1,-2,0,0
1558434109464708,-2,-1,-4,-1,-2,5,1,-2
1558434109464708,-2,-2,3,-3,-1,-3,-3,-1
1558434109479956,0,-1,-2,-1,2,-1,1,0
1558434109479956,-1,-1,0,3,-1,-2,-3,-4
1558434109487938,2,0,2,-2,3,6,5,-2
1558434109487938,1,2,0,1,3,1,1,0
1558434109502890,-2,-3,-7,-3,-2,-6,1,-1
1558434109502890,0,1,0,-3,-5,-3,-4,-1
1558434109510617,-5,-5,-2,-2,-5,-3,-1,-3
1558434109510617,1,3,9,1,-9,-7,-4,-2
1558434109518834,0,-1,-7,1,10,8,4,3
1558434109518834,0,1,-1,0,-1,-1,-1,-1
1558434109524549,1,2,4,5,5,-3,6,3
1558434109524549,-2,-3,-6,-3,2,6,0,-1
1558434109540750,-1,0,2,-1,-1,-3,-3,-1
1558434109540750,-1,-2,2,-2,0,1,-2,-2
1558434109547751,-1,0,-7,-2,-6,-6,-6,-5
1558434109547751,-2,-2,1,6,-6,1,-1,-1
1558434109562704,0,-1,-2,-7,2,0,1,-1
1558434109562704,0,-2,1,2,3,2,4,4
1558434109570698,-2,-1,-4,-4,-4,-2,-6,-4
1558434109570698,-1,-1,-1,-6,-3,-2,-3,-4
1558434109578406,-1,-3,-1,0,-9,-6,-3,-2
1558434109578406,1,0,-2,-2,-5,-4,-3,-2
1558434109585656,-1,-3,-3,-2,-2,0,-1,-2
1558434109585656,-2,-4,-2,0,1,-1,0,1
1558434109601341,-2,2,3,1,-3,-5,-3,-2
1558434109601341,-1,-1,-2,1,6,2,0,2
1558434109607620,-2,0,-1,-1,2,0,2,1
1558434109607620,2,3,3,-1,-1,-3,-1,-1
1558434109623337,0,0,-2,-2,-4,2,2,-2
1558434109623337,-3,-1,8,1,-4,-6,-5,-4
1558434109630597,2,1,-2,-1,3,9,3,0
1558434109630597,1,0,-1,2,4,-5,4,5
1558434109646431,-1,-3,0,-2,-3,-4,-3,-3
1558434109646431,-5,-8,-8,0,-2,-4,-3,-3
1558434109646431,-2,-2,3,-1,-6,-1,-2,-2
1558434109646431,-3,1,5,-1,-4,-1,-1,-3
1558434109659585,1,3,4,5,1,-2,1,2
1558434109659585,-3,-5,-14,-9,0,1,0,-4
1558434109667566,-1,-3,4,-2,-8,-8,-6,-3
1558434109667566,0,3,4,8,9,12,4,2
1558434109682523,-2,0,-8,-2,-6,-8,-3,0
1558434109682523,-3,-7,-4,-4,-5,-8,-1,-2
1558434109689543,1,0,3,-1,-1,-4,-2,2
1558434109689543,-2,0,-7,1,1,3,-1,-3
1558434109705464,-3,-7,-5,-7,-1,3,-3,-3
1558434109705464,0,2,0,2,3,4,4,3
1558434109706461,-1,0,1,1,0,2,3,0
1558434109706461,2,-1,3,1,1,-2,-1,-1
1558434109720797,1,2,2,-5,-7,4,-2,-5
1558434109720797,-2,-1,-3,-1,2,3,-1,-1
1558434109727862,-1,3,-2,-3,1,-6,-3,-1
1558434109727862,-3,-10,-9,-2,-5,-3,-4,-3
1558434109742407,0,-1,-1,-1,3,-2,-2,2
1558434109742407,0,1,6,4,1,2,2,0
1558434109750610,-1,-3,-15,-2,4,4,1,1
1558434109750610,-2,3,-5,-8,-9,-1,-2,-2
1558434109765619,-2,-5,4,2,-5,-5,-5,-5
1558434109765619,-2,0,3,-1,-6,-2,-2,-1
1558434109766303,-1,-1,3,0,2,0,-1,-2
1558434109766303,-2,-2,-5,-1,6,3,3,-1
1558434109780269,1,4,4,3,1,0,0,1
1558434109780269,0,2,4,-1,2,8,3,-3
1558434109787559,-4,-11,-16,-10,-8,-1,-3,-5
1558434109787559,-2,-2,-1,-1,-6,-3,-9,-3
1558434109804199,0,-1,3,-1,4,1,2,0
1558434109804199,-1,1,6,0,4,1,-3,-1
1558434109810183,-1,1,3,3,-2,-2,-3,1
1558434109810183,-1,1,-3,-7,-9,-7,-3,-2
1558434109826141,-2,-3,-5,-2,-2,-3,-1,-1
1558434109826141,3,2,0,3,5,-4,4,3
1558434109826141,0,1,8,3,5,8,1,-1
1558434109826141,2,3,4,2,3,3,-1,1
1558434109840587,-2,-4,-10,-9,-6,-3,-1,-3
1558434109840587,-2,-5,-12,-1,-8,-5,-6,-4
1558434109848083,-2,-3,-1,-6,-11,-10,-2,-1
1558434109848083,1,2,8,5,3,0,2,0
1558434109863156,-1,-1,1,-2,-5,-2,-3,-3
1558434109863156,1,1,0,0,3,4,0,1
1558434109870323,-1,2,7,6,9,2,5,5
1558434109870323,0,-2,-5,4,2,-5,0,1
1558434109894259,-2,-2,-4,-2,-3,2,-2,-3
1558434109894259,2,-1,-2,-6,-6,-1,-3,0
1558434109895163,1,-1,1,-3,-3,-2,-5,-7
1558434109895163,-5,-7,-12,-10,-4,-7,-7,-6
1558434109900243,1,1,7,9,10,1,4,3
1558434109900243,-1,-2,-8,-4,-1,1,0,-1
1558434109907222,0,5,5,-5,-7,-4,-3,-1
1558434109907222,-1,-3,-1,1,0,4,0,-3
1558434109923184,0,-2,5,-2,0,-3,-2,-1
1558434109923184,-2,-4,-10,-2,-6,-9,-2,-2
1558434109930166,-3,-6,-2,-2,-5,-4,-1,-3
1558434109930166,-2,0,-4,-2,6,5,0,0
1558434109946129,-2,0,4,2,7,7,2,1
1558434109946129,-1,2,5,1,3,4,1,1
1558434109946818,-3,-3,-9,0,-5,0,-2,-2
1558434109946818,0,4,6,0,-5,-11,0,2
1558434109960046,-2,-1,-2,-3,1,3,1,0
1558434109960046,-3,-3,-1,4,-3,0,0,-4
1558434109968066,0,-2,0,-4,-4,-4,-3,0
1558434109968066,1,1,1,-3,-3,0,0,3
1558434109982724,-3,-1,-6,-3,-5,-2,-6,-4
1558434109982724,-3,-3,2,-2,3,5,3,1
1558434109989985,-3,-2,3,8,3,-2,0,1
1558434109989985,-1,0,5,0,2,1,2,-1
1558434110005660,-3,-1,-7,-4,-4,-2,-3,-2
1558434110005660,0,-4,-3,-2,-3,-7,-5,-3
1558434110006663,2,1,-3,-3,2,2,-1,-1
1558434110006663,0,-4,-6,-2,-4,-1,1,0
1558434110019625,0,1,1,6,1,2,4,4
1558434110019625,0,0,2,-5,-4,-2,-4,-1
1558434110027604,1,1,3,2,7,9,4,1
1558434110027604,-2,-5,-12,-4,0,-5,-2,2
1558434110042562,1,2,4,-3,-2,4,1,-2
1558434110042562,-3,-5,-10,0,0,-5,0,1
1558434110050621,0,0,2,-4,-5,-4,-2,0
1558434110050621,-1,0,5,4,0,3,-1,-1
1558434110065811,-1,-1,-5,-3,-2,-5,-5,-1
1558434110065811,3,2,4,1,0,1,1,0
1558434110066500,0,1,-1,3,-1,-7,-2,-3
1558434110066500,-1,0,8,4,3,1,-1,-1
1558434110081460,-3,-2,-12,-9,-8,-7,-5,-3
1558434110081460,0,-1,2,-3,-2,2,-1,-1
1558434110087443,-2,-5,-8,1,4,-3,0,2
1558434110087443,0,1,3,2,0,-3,0,-1
1558434110102718,-3,-2,5,2,4,2,-1,0
1558434110102718,-2,1,3,0,-4,0,0,-5
1558434110110733,-3,-1,-15,-9,-7,-6,-1,-2
1558434110110733,0,-3,6,4,-2,-4,-2,-2
1558434110125340,1,2,1,0,9,9,4,2
1558434110125340,-1,-5,-9,-3,-3,-4,-4,-1
1558434110126338,0,-1,-2,-3,-1,-4,-3,0
1558434110126338,-3,-3,-6,-4,-2,-1,-3,-1
1558434110141299,-1,-3,3,2,-4,1,2,-2
1558434110141299,1,2,3,0,1,-2,0,3
1558434110147283,1,-3,3,2,9,7,2,-4
1558434110147283,-3,-2,-7,-3,-6,-4,-2,-3
1558434110162242,-1,-1,1,4,-3,-2,2,1
1558434110162242,-2,0,-6,-3,0,-2,-2,1
1558434110170219,0,-2,1,1,-1,-1,0,2
1558434110170219,-3,0,0,-2,0,6,-3,-2
1558434110185181,-1,-3,6,1,1,-3,-2,-4
1558434110185181,-1,0,-9,-3,-1,0,-5,-1
1558434110186178,-1,2,3,0,-2,-3,-1,-1
1558434110186178,0,-7,-3,-6,2,2,5,-1
1558434110201136,-1,-3,-2,-1,-6,-4,-4,1
1558434110201136,-3,-2,-2,-1,0,6,-2,-1
1558434110207121,-2,-3,1,-1,-3,0,0,0
1558434110207121,-1,3,-2,-1,5,1,2,1
1558434110223392,0,0,0,1,-8,-12,-7,-3
1558434110223392,-1,0,7,0,2,4,4,-1
1558434110230544,-1,2,2,3,2,0,-3,-2
1558434110230544,1,0,-5,2,-5,-4,2,1
1558434110246282,-2,-6,-14,-8,-5,-7,-4,-8
1558434110246282,-1,0,6,1,-6,-8,-5,-3
1558434110246282,1,0,-4,5,14,9,6,4
1558434110246282,-4,-3,0,-12,-8,-6,-6,-4
1558434110261250,-3,0,-4,-7,-5,1,-3,1
1558434110261250,-1,2,5,3,0,-2,-2,-3
1558434110268237,1,-3,-8,-1,-5,0,0,-1
1558434110268237,1,0,-4,2,0,-6,-5,0
1558434110283213,-1,-4,0,0,4,-1,1,-2
1558434110283213,0,-4,-5,-2,-2,1,1,-2
1558434110290201,-1,1,7,0,-8,-12,-5,1
1558434110290201,0,1,-7,1,2,4,0,1
1558434110306172,-2,0,1,2,-3,-5,-4,-1
1558434110306172,0,-2,-1,1,8,7,5,-1
1558434110306172,-1,-4,0,-5,-9,-8,-3,-2
1558434110306172,0,5,2,-1,-2,4,5,1
1558434110322051,1,2,3,3,-6,-11,-4,1
1558434110322051,-3,-6,-16,-3,0,2,-1,0
1558434110328110,-3,1,3,2,4,9,0,0
1558434110328110,1,-2,0,-5,-11,-11,-5,-4
1558434110343757,-1,0,1,-1,2,3,0,0
1558434110343757,-1,3,2,5,3,1,3,2
1558434110350034,-2,-1,-4,-12,-6,-2,-2,-1
1558434110350034,0,1,7,8,6,4,1,1
1558434110365993,0,-1,-8,2,1,1,-1,2
1558434110365993,0,1,8,0,-2,-6,-2,0
1558434110366904,-1,-2,-2,1,0,2,0,1
1558434110366904,-4,-2,-7,-7,-4,-1,-4,-3
1558434110381655,0,-2,2,5,9,7,5,3
1558434110381655,-4,-3,-1,2,3,-1,1,1
1558434110387919,1,-3,7,1,-1,-2,-1,-3
1558434110387919,-2,-3,2,-4,-9,-4,-3,-2
1558434110402894,-2,-2,-9,-6,0,6,0,-2
1558434110402894,-1,3,3,-5,-11,-11,-5,-3
1558434110409583,-3,-2,-5,-1,-2,-5,-4,0
1558434110409583,-1,-3,2,-1,5,-1,-1,-2
1558434110424539,-1,1,6,4,7,3,2,1
1558434110424539,2,2,3,-5,-4,2,1,-1
1558434110432519,-3,-2,-13,-2,0,-3,0,-2
1558434110432519,0,-1,4,2,1,-1,-1,-2
1558434110441494,-1,-1,-3,3,-2,-1,-1,0
1558434110441494,-3,-5,-9,-11,-12,-13,-8,-3
1558434110447477,-1,-1,-1,-2,-5,4,-1,-4
1558434110447477,1,-1,1,2,8,5,4,5
1558434110462880,2,0,3,5,7,-2,3,2
1558434110462880,1,5,7,7,3,1,-2,-3
1558434110470731,-1,-5,-10,-5,-6,-1,-5,-5
1558434110470731,-5,-7,-12,-8,-1,2,-4,-4
1558434110485840,0,0,4,-3,0,-2,2,-1
1558434110485840,-4,-5,-3,-2,-5,-4,-4,-2
1558434110492814,-2,0,6,6,1,-6,-2,0
1558434110492814,2,3,9,4,1,3,2,-1
1558434110501508,-3,-5,-18,-8,-4,-6,-2,3
1558434110501508,-1,0,2,-1,1,-1,-2,-2
1558434110507637,0,-7,-11,-9,-5,-2,-2,-4
1558434110507637,-3,-1,0,0,-4,1,-1,-3
1558434110522723,-2,-3,1,-1,-4,-4,-2,-2
1558434110522723,1,-1,2,2,2,-3,1,2
1558434110530738,-1,-4,1,-3,-5,0,-3,0
1558434110530738,1,3,7,3,-6,-7,-7,-2
1558434110545549,-5,-7,-15,-8,-3,3,0,-2
1558434110545549,1,4,-1,8,15,7,10,6
1558434110552555,-2,1,-3,-5,4,5,-1,-2
1558434110552555,-3,-4,-3,-3,-3,2,0,-2
1558434110561205,0,1,2,-4,-10,-5,-8,-4
1558434110561205,0,-2,-1,0,-1,4,-2,-1
1558434110567198,2,3,9,8,7,0,4,3
1558434110567198,-2,-2,-8,1,2,-4,-2,0
1558434110584114,-1,-4,-2,-4,-5,2,2,-2
1558434110584114,-3,-3,-6,-6,-9,-2,-3,-4
1558434110590396,-2,-1,0,-1,-1,-5,-2,-1
1558434110590396,-1,1,-4,0,0,-1,-1,-2
1558434110605058,1,-1,5,-2,-3,-3,-2,-3
1558434110605058,0,-2,1,3,4,7,2,3
1558434110612066,-2,2,8,-5,-5,-5,-1,0
1558434110612066,-4,-4,-15,-6,-6,-9,-3,-2
1558434110628025,1,0,-3,2,6,0,1,0
1558434110628025,3,3,1,0,4,4,2,1
1558434110628993,-3,-4,1,2,-3,-4,-5,-2
1558434110628993,-1,-3,-2,-3,-5,-2,-2,-1
1558434110641958,-3,0,3,-1,-5,-3,-5,-2
1558434110641958,1,1,1,-2,4,-2,-2,-1
1558434110650376,0,-1,0,1,-2,-1,-2,-1
1558434110650376,-1,2,-5,3,4,7,4,-1
1558434110664932,-1,0,-1,-6,-6,-6,-2,-1
1558434110664932,-3,-8,-3,0,-1,-6,1,-2
1558434110672874,1,3,0,-1,3,6,1,2
1558434110672874,0,1,6,1,-1,-1,-2,-1
1558434110687872,-4,-4,-4,-4,-2,6,-5,-5
1558434110687872,-3,1,-1,2,-7,-7,-5,-4
1558434110688833,0,-2,-6,-11,-2,6,5,1
1558434110688833,1,2,2,1,3,1,2,3
1558434110703253,3,5,6,6,11,4,5,2
1558434110703253,-3,-6,-11,-6,-9,-4,-6,-4
1558434110710749,0,0,7,7,11,14,3,0
1558434110710749,0,0,1,0,-3,-5,1,2
1558434110725232,1,-1,-1,1,2,3,3,1
1558434110725232,-1,-1,4,-1,-1,1,-2,-2
1558434110733244,-1,0,-3,3,-7,-6,-1,-2
1558434110733244,-2,-3,-9,-7,-1,-6,-4,0
1558434110748486,0,3,7,6,7,3,2,1
1558434110748486,-1,-4,-5,-7,-8,-4,0,-1
1558434110749481,-4,-6,-21,-10,-6,-7,-6,-3
1558434110749481,1,-1,7,6,4,1,1,-1
1558434110763155,1,-1,-2,-2,-1,0,-1,0
1558434110763155,-2,-2,2,-5,-5,4,-5,-7
1558434110770745,0,2,6,1,-4,1,-3,-2
1558434110770745,0,-1,-5,0,-3,-7,0,3
1558434110785596,3,4,2,7,8,-5,2,4
1558434110785596,-1,-2,-1,-1,1,1,5,0
1558434110792409,-1,-2,0,1,-1,-1,-3,-2
1558434110792409,-2,-4,0,-6,-7,5,-4,-4
1558434110808371,-2,-3,0,0,-5,-1,0,-1
1558434110808371,-1,0,-1,-6,-3,-8,-3,-2
1558434110809367,3,3,6,9,4,2,1,0
1558434110809367,-2,-4,-8,-8,-1,2,2,-1
1558434110822356,-1,-2,1,-5,-4,-2,-3,-3
1558434110822356,1,2,0,3,3,-3,-2,2
1558434110830585,-3,-5,-15,-6,0,2,-2,-2
1558434110830585,1,2,3,1,-2,1,-3,-1
1558434110845612,-3,-4,-1,0,-6,0,-2,-4
1558434110845612,-3,-2,-3,-2,-2,0,-2,-1
1558434110852582,1,3,5,-2,-4,-10,-1,0
1558434110852582,0,0,-3,0,2,3,3,1
1558434110868542,-3,-1,6,3,1,3,-3,-6
1558434110868542,-1,-4,-18,-3,-1,-1,0,0
1558434110869481,0,0,3,2,-1,-5,0,-2
1558434110869481,-2,-5,-13,-8,-2,3,0,-4
1558434110882204,0,1,3,-2,-2,-2,0,6
1558434110882204,-4,0,2,1,2,4,-3,-4
1558434110890488,-3,1,3,2,5,0,-1,-2
1558434110890488,0,1,4,4,0,-3,1,0
1558434110905428,-1,-2,-4,2,0,-3,-1,0
1558434110905428,0,-1,1,1,-1,-4,-2,1
1558434110913094,-1,-1,-3,-5,-7,-2,-1,0
1558434110913094,-2,-1,4,0,-6,-2,-5,-5
1558434110928377,-2,-5,-3,-4,-4,-1,-5,-5
1558434110928377,0,0,2,2,4,-2,3,4
1558434110929043,-3,-1,-1,-3,-3,3,0,-1
1558434110929043,-3,-3,5,4,2,-2,3,1
1558434110943246,0,-2,-12,-6,-3,1,0,1
1558434110943246,-4,-4,-3,3,0,-9,-5,-4
1558434110950318,1,-3,2,-6,0,1,1,1
1558434110950318,-1,2,5,2,-2,-6,-3,0
1558434110965276,-3,-3,-4,-9,-8,-2,-5,-2
1558434110965276,0,1,-1,2,6,1,2,2
1558434110973206,0,1,5,5,3,7,5,0
1558434110973206,-1,-3,-8,-5,-4,-3,-4,-4
1558434110988174,-2,2,8,5,5,1,2,-1
1558434110988174,0,-3,-11,-8,-6,-6,-1,-1
1558434110988887,-1,-3,3,-4,-6,-2,-4,2
1558434110988887,2,2,0,2,-2,-2,-4,0
1558434111002850,-1,-1,-1,-2,-8,-9,-2,-1
1558434111002850,1,0,-5,0,8,10,3,2
1558434111010100,-2,-2,-2,-3,1,-3,0,-4
1558434111010100,-3,-3,4,0,2,4,-2,-2
1558434111024786,-1,-2,-11,-4,-7,-7,-5,-3
1558434111024786,0,0,6,3,0,5,0,-1
1558434111033125,-2,1,0,3,1,4,1,1
1558434111033125,1,3,5,4,-1,-11,-2,0
1558434111047856,-3,-5,-7,-8,-7,-1,-3,-5
1558434111047856,-1,-1,-2,-6,-7,0,-2,0
1558434111048722,-3,-5,-4,3,3,0,0,1
1558434111048722,0,-1,-1,2,8,5,2,1
1558434111063029,0,1,1,-1,3,1,1,1
1558434111063029,1,0,3,0,-8,-3,-5,-3
1558434111070009,-1,-1,-3,-1,0,-2,-3,-1
1558434111070009,-1,-4,-5,-7,-4,-1,0,0
1558434111085623,1,0,3,1,-5,-8,1,0
1558434111085623,-3,-2,3,-2,-5,-5,-5,-2
1558434111092604,0,1,-2,0,2,3,0,-1
1558434111092604,0,-2,4,0,4,2,0,-1
1558434111107567,0,-3,-6,-1,3,0,0,1
1558434111107567,-1,1,2,0,0,-1,-1,-2
1558434111108562,-3,-4,-16,-10,-3,2,-2,-3
1558434111108562,-1,0,4,-2,-2,-8,-1,1
1558434111122819,-1,1,2,1,-3,0,-1,-1
1558434111122819,-3,-2,2,2,2,1,2,3
1558434111129767,1,2,6,6,4,2,3,2
1558434111129767,-3,-3,-7,-5,-4,1,-2,-3
1558434111145683,0,3,5,1,-1,-1,-3,-2
1558434111145683,0,-1,-3,0,3,5,-1,0
1558434111152699,-3,-2,-6,-4,-6,-11,-4,-2
1558434111152699,-1,-4,-6,1,1,-1,0,0
1558434111168656,-2,-4,-3,0,-3,-1,-1,-2
1558434111168656,-2,-1,-1,-2,-3,4,-1,-5
1558434111168656,-2,-1,-1,2,2,-7,-1,1
1558434111168656,0,3,10,1,-2,0,-1,0
1558434111182613,-1,-1,-3,-2,4,3,0,-1
1558434111182613,-1,-3,-9,-8,-6,-8,-1,-1
1558434111190608,-1,-1,-8,-1,-5,-5,-5,-5
1558434111190608,-1,-3,-5,-3,-1,3,0,-2
1558434111205305,-3,-1,0,1,1,4,-3,-1
1558434111205305,0,-1,3,2,-1,-2,1,1
1558434111212287,-1,-1,4,-4,-2,-2,-4,-2
1558434111212287,0,3,1,6,8,10,5,3
1558434111228241,3,0,-4,0,2,-1,6,2
1558434111228241,-2,-4,-1,-3,-3,0,-4,0
1558434111229241,-1,-1,4,1,-6,0,-3,-2
1558434111229241,0,0,0,3,-5,-8,-6,-3
1558434111242206,-2,-3,-6,-9,1,2,0,-2
1558434111242206,-2,-3,-5,-3,-4,0,3,-1
1558434111250184,3,2,3,5,-2,-3,0,1
1558434111250184,-1,-2,6,-10,-9,-7,-1,-1
1558434111265524,-1,0,-6,3,7,9,2,3
1558434111265524,-4,-5,-7,-3,0,-2,-6,-6
1558434111273161,-3,-4,-3,-2,0,2,-2,-1
1558434111273161,0,2,-1,3,-3,-3,0,2
1558434111288456,-2,0,4,2,-1,-9,-2,-1
1558434111288456,0,2,3,-1,-3,7,4,0
1558434111289079,-1,0,-5,-3,1,-6,0,-1
1558434111289079,-1,-3,-5,1,4,6,-2,-3
1558434111302045,-4,-2,1,-2,-4,-3,-1,-2
1558434111302045,-1,1,-1,3,0,-6,-5,-3
1558434111310022,-2,-1,-1,-1,0,5,2,-2
1558434111310022,0,3,-3,-4,0,-4,-2,0
1558434111324982,0,0,3,1,3,1,0,0
1558434111324982,-4,-3,5,4,0,-1,-1,-1
1558434111333209,2,0,-9,-5,2,0,3,3
1558434111333209,-2,-5,-15,-6,-1,0,0,-1
1558434111348215,-1,-4,-1,0,-1,2,-3,-4
1558434111348215,0,0,-4,-3,-3,-6,0,1
1558434111356238,-1,-1,6,0,1,0,1,-3
1558434111356238,0,0,-1,2,0,1,1,0
1558434111363108,1,3,5,1,-1,-4,0,0
1558434111363108,-1,-2,2,-5,-4,-1,-4,-1
1558434111370187,-2,-1,4,1,-7,-5,-2,-2
1558434111370187,-1,-5,-17,-6,2,0,-1,-1
1558434111385098,-4,-2,0,-1,-2,2,-3,-3
1558434111385098,3,1,3,4,8,5,2,2
1558434111392801,0,0,-6,-9,-11,-8,-5,-2
1558434111392801,-1,1,9,3,-4,-7,-5,-5
1558434111407763,-1,-2,3,0,7,10,6,2
1558434111407763,-2,-1,-10,-4,-3,-2,0,-2
1558434111415815,1,-2,7,2,5,1,2,1
1558434111415815,-3,0,-8,0,-6,0,-1,0
1558434111422722,-4,-3,-8,-5,-8,-8,-8,-3
1558434111422722,0,-3,2,0,-1,-5,-1,-1
1558434111429702,-3,-2,1,0,4,8,1,0
1558434111429702,-1,-1,2,-1,0,-3,0,0
1558434111445677,4,1,4,3,1,-5,-2,-2
1558434111445677,-1,3,2,-2,-4,-2,-1,0
1558434111453003,-2,0,-2,4,0,-7,-2,0
1558434111453003,-2,-6,-10,-17,-8,2,-4,-3
1558434111467963,-2,-1,-1,1,2,3,-2,2
1558434111467963,2,4,4,4,10,6,3,3
1558434111475579,1,-2,0,-6,-4,-6,-4,-2
1558434111475579,-2,0,3,3,1,2,0,-2
1558434111482902,-2,-2,0,1,3,1,3,-3
1558434111482902,-1,1,-5,-6,-8,-7,-1,-1
1558434111490710,-3,-4,-2,2,4,6,0,-1
1558434111490710,-4,-1,2,-3,-6,-5,-3,-2
1558434111505563,-1,-3,-7,-4,-6,-2,-5,-3
1558434111505563,1,0,7,5,5,-1,-1,2
1558434111512832,0,-2,-12,-4,-3,-2,-2,-1
1558434111512832,0,1,6,3,0,-3,1,-2
1558434111527762,0,-1,-12,-6,-6,-4,-1,-2
1558434111527762,-3,-3,2,-1,3,3,2,-2
1558434111535742,-2,0,5,2,-6,-6,-3,0
1558434111535742,-1,-2,-9,1,8,7,3,0
1558434111550711,0,1,8,4,-1,-2,-2,1
1558434111550711,0,-1,-7,-3,-6,-3,-1,1
1558434111551379,-4,-3,-2,0,-2,-6,-6,-5
1558434111551379,3,5,9,8,5,2,3,1
1558434111565566,-1,0,0,-3,-4,-3,-2,0
1558434111565566,-3,-4,-6,0,-1,-1,-2,-2
1558434111572642,0,0,3,3,-2,-3,-1,-2
1558434111572642,0,1,0,-8,-3,-1,1,4
1558434111587616,-4,-1,-11,-3,1,-6,-2,-3
1558434111587616,-3,-4,1,-3,-1,-1,-3,-2
1558434111596354,2,2,4,3,2,-2,1,0
1558434111596354,-1,-7,-7,-3,-8,-4,-3,-2
1558434111611315,1,0,8,2,-4,-3,-1,1
1558434111611315,0,2,2,1,5,6,4,0
1558434111611315,-4,-5,-17,-11,-6,1,-2,1
1558434111611315,-3,3,5,2,3,0,-4,-2
1558434111625182,-3,0,-1,-4,-4,-5,-3,-2
1558434111625182,-1,-2,2,3,-3,-7,-3,-3
1558434111632450,0,1,0,-2,1,4,1,1
1558434111632450,1,0,0,0,1,-3,1,2
1558434111647156,-2,-1,-2,-2,-4,-1,0,-1
1558434111647156,-3,-6,-4,-4,-2,-1,-1,-1
1558434111656289,-2,-3,8,2,-4,-5,-5,-3
1558434111656289,-4,-8,-20,-11,-6,-11,-8,-4
1558434111671352,0,0,5,1,1,1,2,0
1558434111671352,-2,-3,-5,0,-4,-7,-3,-5
1558434111671352,-1,-1,0,-9,0,6,3,-2
1558434111671352,0,1,7,9,3,5,0,-1
1558434111685340,-2,-4,-6,-5,-3,-2,-1,-1
1558434111685340,3,4,4,2,0,-4,0,4
1558434111693216,-6,-8,-12,-4,-6,-4,-7,-6
1558434111693216,-1,-1,2,3,2,2,0,-2
1558434111707324,0,0,-4,-4,-5,0,-3,-2
1558434111707324,1,0,-1,-2,4,9,2,-1
1558434111716264,4,5,5,6,11,1,5,6
1558434111716264,-2,-2,2,-2,-2,3,-1,-2
1558434111731219,-2,-4,-10,-1,1,1,-1,-2
1558434111731219,-1,0,-1,-1,-6,-8,-3,-3
1558434111731219,-2,-1,6,-1,-4,-2,-4,-1
1558434111731219,1,-1,9,8,5,7,5,0
1558434111745183,-2,-6,-24,-8,-1,-4,-1,1
1558434111745183,0,-1,0,-6,-3,-4,-1,-1
1558434111753164,-4,-4,-9,-6,-8,-8,-3,-2
1558434111753164,1,7,11,2,-3,-1,-2,-3
1558434111768105,0,-2,4,3,1,-1,-3,-3
1558434111768105,-1,-2,-12,0,1,0,1,0
1558434111775777,0,-2,-3,0,1,-2,0,0
1558434111775777,-2,-2,-7,-5,-3,-3,-3,-3
1558434111790740,0,-1,2,-7,-3,-3,0,1
1558434111790740,-2,-2,-3,1,-2,-1,-1,0
1558434111790740,1,1,7,2,-4,-3,-1,-1
1558434111790740,-1,-1,-6,-1,5,3,2,2
1558434111805122,-1,2,6,5,3,3,1,0
1558434111805122,-2,1,-2,0,-1,3,-3,-2
1558434111813134,-3,-2,-3,-4,-5,0,-3,-6
1558434111813134,1,-2,-10,-6,-1,-4,-2,1
1558434111828082,-1,0,-2,-2,-3,-3,0,-1
1558434111828082,-2,0,10,0,4,3,2,1
1558434111835743,3,4,4,7,6,-3,2,1
1558434111835743,-1,-7,-5,-6,-9,-2,-4,-4
1558434111850759,2,1,7,5,4,4,3,0
1558434111850759,-1,-2,-4,-7,-5,-3,-3,-5
1558434111851698,0,3,-4,2,2,-3,1,-1
1558434111851698,-2,-2,3,0,1,-1,0,1
1558434111864666,2,1,6,2,2,-6,2,1
1558434111864666,-2,0,-6,0,-2,1,-1,-2
1558434111872644,-2,-2,-4,-1,-4,-2,1,1
1558434111872644,0,4,8,1,2,3,1,-1
1558434111889080,-1,-5,-5,-1,2,0,1,0
1558434111889080,-3,-7,-15,-9,-6,-4,-4,-4
1558434111896025,2,2,4,2,3,7,5,2
1558434111896025,-1,-2,-7,-5,-2,-5,-3,-3
1558434111911003,0,1,5,1,0,1,-5,-1
1558434111911003,1,1,5,3,1,-2,1,-1
1558434111911540,-4,-4,-4,-6,-3,0,-4,-1
1558434111911540,-2,-1,-6,-5,-9,-10,-4,-1
1558434111924504,-2,4,9,5,-2,1,1,0
1558434111924504,-2,-3,-7,-4,-1,-4,-3,-1
1558434111932483,-3,0,-3,-2,-2,0,-3,0
1558434111932483,-2,-2,2,4,3,1,2,-2
1558434111947855,0,-3,-4,-6,-5,-5,0,0
1558434111947855,1,3,14,5,0,-1,1,1
1558434111955727,-2,-4,-12,-7,2,6,0,-4
1558434111955727,-3,-5,-9,-3,-4,1,-3,-3
1558434111971083,-4,-3,-2,-1,-2,-1,-5,-3
1558434111971083,0,2,5,5,0,2,1,1
1558434111971984,1,1,9,3,5,0,0,3
1558434111971984,-3,-1,-3,-6,-6,-5,-3,-1
1558434111984993,-2,-5,-5,0,-3,1,1,0
1558434111984993,0,2,3,1,1,-1,-1,-1
1558434111992964,0,-1,4,0,2,2,-2,1
1558434111992964,-1,-5,-5,1,-3,-1,-1,-2
1558434112007657,-1,-1,-1,2,1,-1,-1,1
1558434112007657,-1,-2,-2,-2,-5,-4,-1,-1
1558434112015636,0,-4,-9,-6,-9,-3,-1,0
1558434112015636,0,1,7,4,1,0,-1,-3
1558434112030634,-1,0,-3,-3,1,-6,-6,-2
1558434112030634,-4,-6,-11,-2,6,7,6,-1
1558434112031624,-1,-1,2,-1,2,-1,2,-1
1558434112031624,0,-1,-2,-2,1,3,0,1
1558434112044557,-1,-1,5,0,-7,-4,-2,-3
1558434112044557,0,1,0,5,-2,-4,-5,2
1558434112052895,0,1,1,-4,0,-3,-2,0
1558434112052895,-1,2,3,-2,2,-1,1,1
1558434112067498,-4,-3,-2,-1,0,1,-1,-3
1558434112067498,-1,-3,-2,-4,-6,0,-3,0
1558434112074479,-1,-3,-4,0,-5,-6,-3,-4
1558434112074479,1,1,0,-2,3,0,-1,-2
1558434112090819,-3,-2,-1,3,-2,1,-2,-3
1558434112090819,-3,0,-3,-3,0,0,0,0
1558434112091432,-2,1,1,1,-2,-1,-1,-4
1558434112091432,3,1,1,2,1,1,1,2
1558434112105760,-2,0,-3,-3,-6,-8,-4,-2
1558434112105760,-2,-4,2,-1,3,5,-1,-3
1558434112112735,2,3,5,5,5,2,1,5
1558434112112735,-3,-7,-22,-11,-3,2,-3,-3
1558434112127672,-2,-3,1,-1,-2,-2,-2,-2
1558434112127672,-2,-3,1,-1,-4,-7,-3,-4
1558434112135501,-1,-1,3,-2,-4,3,-1,-2
1558434112135501,-2,-3,-2,4,0,-4,0,-2
1558434112150398,0,3,4,3,3,-2,0,1
1558434112150398,-1,-1,-4,-5,-6,-4,0,-2
1558434112151272,1,2,-3,3,1,-7,-3,-1
1558434112151272,-4,-3,-4,-7,-6,1,-2,-3
1558434112165579,1,-3,-2,1,3,-1,4,3
1558434112165579,1,2,3,2,2,3,-2,0
1558434112172558,-3,-3,-2,0,-2,1,-1,-1
1558434112172558,-1,1,3,1,-7,-10,-4,-1
1558434112189430,-3,-5,-10,-7,2,7,0,0
1558434112189430,0,-1,4,-2,0,-2,0,0
1558434112195458,-2,-4,-11,-5,0,0,0,1
1558434112195458,1,2,9,7,1,1,-3,-1
1558434112211325,0,3,6,7,3,2,2,3
1558434112211325,1,-1,-9,-7,-3,-6,-4,-2
1558434112211325,-3,-6,0,-2,-3,1,-3,-3
1558434112211325,-1,1,3,0,-1,1,-1,-2
1558434112225074,-1,-2,-9,-2,0,1,-1,-3
1558434112225074,0,1,1,1,4,2,7,6
1558434112232055,0,1,-5,-5,0,0,-2,-3
1558434112232055,-4,-8,0,-2,-2,-3,-2,1
1558434112247018,-1,3,5,1,-2,-4,-2,-3
1558434112247018,-1,0,0,-4,-4,2,-1,-1
1558434112254993,-2,-2,-5,0,-2,-3,-2,-2
1558434112254993,0,0,-5,1,1,2,-2,-3
1558434112269992,0,-2,-1,-1,-1,3,1,1
1558434112269992,-1,1,-2,2,0,-7,-5,-2
1558434112277967,-3,-4,-9,-7,-1,4,1,-1
1558434112277967,-1,0,2,1,1,-3,0,-1
1558434112284952,-1,-1,-4,-5,-7,-1,-1,-2
1558434112284952,-4,-2,5,-2,-6,-1,-5,-4
1558434112300871,0,1,-1,-1,2,6,2,0
1558434112300871,1,0,-2,3,2,-1,1,-1
1558434112307854,1,-2,0,-2,-5,-8,-1,-2
1558434112307854,-2,0,-1,0,4,6,3,-5
1558434112323833,-2,-3,-6,-2,-2,-1,-3,-2
1558434112323833,-3,-4,3,-4,-4,0,-1,-2
1558434112330147,2,3,4,3,5,-1,-3,0
1558434112330147,-2,-3,-4,-4,-3,-5,-1,-1
1558434112338772,0,0,12,4,-2,-3,0,-1
1558434112338772,-3,-5,-18,-6,0,-2,0,1
1558434112345107,0,1,-2,-2,1,9,1,0
1558434112345107,-1,0,1,0,-1,-1,-2,0
1558434112353059,-1,3,6,5,2,-4,-2,-2
1558434112353059,-2,3,-1,-8,-9,-7,-4,-1
1558434112368137,-1,-4,-6,-1,-1,1,0,-2
1558434112368137,-2,-5,-8,1,1,-2,-2,-2
1558434112374674,0,1,-1,-5,2,7,3,3
1558434112374674,0,2,10,3,0,2,-1,-3
1558434112389634,0,1,-6,-4,-4,-8,-3,-1
1558434112389634,0,-1,0,1,-3,-1,-4,-4
1558434112397613,0,-1,8,7,1,-6,-3,-2
1558434112397613,-1,-2,-23,-4,6,9,8,5
1558434112404595,-4,-2,-3,-4,-2,0,-1,-2
1558434112404595,-2,-5,4,-1,-3,0,0,-2
1558434112412599,-1,-1,-13,-3,3,2,-3,-1
1558434112412599,-2,-2,7,0,-2,-5,-3,-2
1558434112427533,-1,-1,-4,-5,-6,-2,-4,-2
1558434112427533,0,-1,0,0,-1,-7,-1,-1
1558434112434515,-3,-5,3,2,1,5,1,1
1558434112434515,1,4,5,-4,-5,-2,-2,-1
1558434112450741,-2,-5,-4,0,1,1,-1,-3
1558434112450741,0,0,3,3,3,2,2,1
1558434112458464,-1,1,-2,0,-4,-4,0,-2
1558434112458464,-1,-4,1,1,0,-4,-4,-2
1558434112473742,0,1,2,-2,0,-1,-1,0
1558434112473742,5,5,11,5,-2,-5,1,3
1558434112473742,-4,-5,-19,-7,-2,3,1,-3
1558434112473742,-2,-2,-1,0,-4,-1,0,-2
1558434112487724,-1,3,7,2,-3,-3,-2,-1
1558434112487724,-3,-8,-13,-1,0,-4,-1,-2
1558434112494388,0,1,8,-5,-6,-5,-4,-2
1558434112494388,1,2,1,0,-1,0,-1,-1
1558434112510311,-3,-5,-5,-3,-3,-1,-2,-1
1558434112510311,0,4,1,2,7,5,1,2
1558434112518289,-1,-2,0,-4,-5,-7,-5,-4
1558434112518289,0,0,6,2,-1,2,1,0
1558434112533251,0,2,1,-1,2,0,1,1
1558434112533251,1,1,0,-2,-2,-2,1,3
1558434112533251,1,-2,-2,2,4,4,-1,-1
1558434112533251,-2,-3,-2,-5,-1,-2,-3,-1
1558434112547213,1,0,-5,1,3,1,5,3
1558434112547213,-3,-3,-3,-2,-4,-2,-6,-7
1558434112555195,0,3,4,1,-3,-4,-1,2
1558434112555195,-2,-3,-2,2,-1,-1,-1,-1
1558434112570156,-2,-2,7,-1,-5,0,-5,-5
1558434112570156,-4,-7,-13,-8,-4,0,-2,-3
1558434112578142,4,3,5,7,6,-3,9,6
1558434112578142,-1,3,2,4,2,1,-1,-2
1558434112593090,-4,-5,-14,-5,-6,-6,-4,-2
1558434112593090,0,-3,0,3,1,5,1,-2
1558434112594086,-1,-2,-2,-13,-6,-1,-2,-2
1558434112594086,-2,-1,-2,-4,-1,-2,-1,0
1558434112607057,-1,-3,-7,-5,-5,-7,-5,-3
1558434112607057,2,5,4,3,4,2,4,2
1558434112615171,-4,-4,-3,7,1,0,-2,-1
1558434112615171,0,0,1,-1,-3,-1,-1,0
1558434112630016,-3,-4,0,-1,3,3,-2,-1
1558434112630016,4,1,3,0,-5,-7,-3,-1
1558434112637970,0,2,-3,-1,4,6,1,-1
1558434112637970,-1,-2,10,2,3,2,1,0
1558434112652929,-3,-1,-10,-3,-3,-3,0,1
1558434112652929,-1,-2,0,-4,-2,-2,-4,-2
1558434112653927,0,1,5,1,-1,-2,-1,0
1558434112653927,-2,-4,-9,-3,-3,-4,-3,-3
1558434112667893,1,3,8,3,1,2,2,-2
1558434112667893,-1,2,7,4,-3,-2,-1,2
1558434112674872,-2,-1,-9,-6,0,-1,-3,-5
1558434112674872,-3,-8,-18,-8,0,0,0,-2
1558434112690209,1,3,12,-1,-7,-3,-1,-1
1558434112690209,-2,-2,-2,-3,3,3,-1,-1
1558434112698970,-1,0,15,6,-4,-3,-1,0
1558434112698970,1,-2,-10,1,3,2,4,3
1558434112712769,2,2,11,0,1,2,1,-1
1558434112712769,0,-5,-6,2,1,-3,0,-2
1558434112713767,-3,-4,4,0,-4,-9,-1,1
1558434112713767,-2,-1,1,-6,-3,-2,-6,-6
1558434112727730,-3,-5,-25,-4,-5,2,2,1
1558434112727730,-7,-16,-19,-13,3,-3,1,3
1558434112734979,-1,-5,-9,-5,-7,-3,-5,-4
1558434112734979,2,8,10,14,2,0,0,0
1558434112749671,-3,-4,-2,-9,-1,4,-5,-5
1558434112749671,0,6,10,1,-4,-3,-2,0
1558434112757652,-1,-5,-13,1,-1,-11,-1,0
1558434112757652,2,3,7,-4,3,4,0,0
1558434112772609,-2,-2,-1,9,6,-1,-3,0
1558434112772609,-2,3,-2,-2,2,4,2,-1
1558434112773607,0,2,11,1,-3,2,-1,0
1558434112773607,-2,-1,-5,-2,-2,-5,-2,-2
1558434112787570,-1,3,4,-2,-3,-5,3,2
1558434112787570,-2,-5,-15,-3,-1,-2,1,0
1558434112794587,-3,-7,-3,-4,-2,3,0,-2
1558434112794587,-2,-3,2,-1,-5,-4,-2,-1
1558434112809511,0,1,12,6,8,2,2,1
1558434112809511,1,4,6,-1,-3,-1,0,-3
1558434112818574,-2,-2,-3,-3,-2,-5,-3,1
1558434112818574,1,3,3,-2,-1,0,-2,-1
1558434112833447,-3,-3,-5,-4,-2,-1,0,-1
1558434112833447,2,4,3,1,-1,1,-1,-1
1558434112833447,-3,-4,-6,0,0,2,2,-1
1558434112833447,-3,-3,-7,-6,-2,0,-3,-5
1558434112847410,1,3,10,5,0,1,1,0
1558434112847410,-1,-4,-5,6,1,-2,0,-1
1558434112854638,-1,2,1,-9,-3,0,-1,-2
1558434112854638,-2,-1,-2,2,-1,-4,0,2
1558434112869352,0,-2,-6,0,2,0,0,0
1558434112869352,-2,-7,-3,-2,-3,-2,-2,-1
1558434112878328,-4,-3,-10,-7,-1,0,0,-1
1558434112878328,2,0,7,7,1,1,0,2
1558434112893287,1,-2,-4,-4,-2,-5,-5,-3
1558434112893287,-1,2,3,-1,1,1,3,-1
1558434112893287,2,1,0,8,4,1,2,-2
1558434112893287,-1,1,-5,1,0,0,1,0
1558434112907249,-4,-9,-10,-12,-10,-4,-3,-4
1558434112907249,-3,2,6,-4,-9,-4,-5,-2
1558434112915227,1,2,-2,5,6,2,4,1
1558434112915227,0,2,0,-1,0,-2,2,2
1558434112930373,0,-4,4,3,2,1,-1,-1
1558434112930373,-1,-3,-4,-2,-2,1,-3,-3
1558434112938167,-2,-2,0,-1,-6,-2,-5,-2
1558434112938167,0,-2,-3,-2,-4,-2,0,0
1558434112953127,0,3,1,3,6,3,1,1
1558434112953127,-1,-3,2,-2,-1,1,-2,-2
1558434112954127,-2,-1,-4,4,4,1,-1,-2
1558434112954127,-1,0,0,-7,-5,-5,-3,-1
1558434112967247,2,2,4,4,2,0,1,-1
1558434112967247,-1,-3,-8,-3,-3,-3,0,0
1558434112975068,-3,-1,-10,-14,-8,-5,-4,-6
1558434112975068,0,-2,2,6,4,1,0,-1
1558434112990028,-1,1,-2,-6,5,8,2,1
1558434112990028,-1,0,-1,2,-2,-7,0,0
1558434112998008,2,0,7,0,-3,2,-3,-4
1558434112998008,-2,-4,-5,-3,-5,2,0,-3
1558434113012968,0,0,-2,3,3,-6,2,2
1558434113012968,1,1,0,0,-2,-7,0,1
1558434113013966,-1,0,2,0,-3,-4,-4,1
1558434113013966,-2,-3,-5,-7,-3,3,-1,-3
1558434113026930,-2,-2,-5,-2,-1,0,1,-1
1558434113026930,-3,0,-2,-2,2,3,-3,-2
1558434113034910,-1,-2,-2,0,-1,-2,-1,0
1558434113034910,1,-2,5,8,3,-1,0,3
1558434113049868,0,-1,-1,-1,-1,2,-1,0
1558434113049868,-1,-1,-2,-3,-4,-6,-3,-3
1558434113057850,-2,1,1,2,0,2,0,0
1558434113057850,-3,-1,1,2,-1,0,-3,-3
1558434113072842,-2,-2,-3,-1,-7,-5,-4,-3
1558434113072842,-2,0,-3,-4,1,8,3,-2
1558434113073804,0,-1,3,2,2,2,1,2
1558434113073804,-1,1,-2,-7,7,-4,3,3
1558434113087766,-4,-1,0,0,-5,-4,-3,-4
1558434113087766,-2,-1,-1,0,-3,-2,0,-2
1558434113094748,-1,-4,-2,1,0,1,-3,-4
1558434113094748,-2,-2,-1,1,3,10,3,-1
1558434113109708,2,2,0,6,0,-3,-3,-1
1558434113109708,-2,-2,-3,-3,-3,-3,0,-1
1558434113117687,-1,1,-3,-6,-3,0,0,0
1558434113117687,2,1,0,2,2,1,0,-3
1558434113132825,-2,-4,-2,-5,-2,0,-5,-5
1558434113132825,0,0,3,1,-2,0,1,0
1558434113133650,1,0,-1,2,0,-4,5,3
1558434113133650,1,1,-2,-8,-6,-7,-4,-4
1558434113147789,-4,-3,-4,-7,-12,-5,-3,-4
1558434113147789,-2,-1,1,-1,6,12,3,-1
1558434113154590,-2,-4,-7,-4,0,0,-2,-3
1558434113154590,3,4,2,8,11,5,5,4
1558434113169547,0,-1,-1,-6,-4,-2,-2,-1
1558434113169547,-1,-5,-7,-6,-7,-10,-6,-3
1558434113177739,-1,-1,1,0,0,-3,1,-1
1558434113177739,-1,0,-2,-6,-9,-3,-5,-3
1558434113192490,-3,-3,-1,1,-6,-7,-1,1
1558434113192490,0,-1,0,-7,1,-3,-2,0
1558434113193484,0,3,-2,2,4,2,1,0
1558434113193484,-2,-4,-3,-5,-8,-2,-5,-3
1558434113207462,-2,-1,-5,-1,-5,-7,-4,-2
1558434113207462,1,-1,-2,-1,3,9,1,2
1558434113214430,-2,-2,2,1,-1,-6,-3,-1
1558434113214430,-4,-3,-4,-6,-8,-5,-3,-3
1558434113229390,3,6,9,6,3,-3,2,3
1558434113229390,-2,-2,1,4,2,-1,1,0
1558434113237375,0,-1,-2,-5,-2,0,1,1
1558434113237375,-1,-3,4,5,-2,-1,-5,-3
1558434113252329,0,0,3,-5,4,7,-1,-1
1558434113252329,-1,-3,-8,-4,-6,-4,-4,-2
1558434113260305,1,0,1,0,-5,-5,1,-2
1558434113260305,-4,-7,-8,-9,0,4,1,-3
1558434113267538,0,1,0,6,3,4,1,0
1558434113267538,0,4,11,10,9,-6,-2,1
1558434113275265,-4,-3,-13,-14,-20,-4,-4,-2
1558434113275265,-4,-3,-10,7,5,0,3,3
1558434113290224,0,-2,1,-4,2,-1,-3,0
1558434113290224,0,2,-3,-1,-4,2,-3,-4
1558434113297206,3,3,6,0,6,-1,6,1
1558434113297206,-4,-3,7,0,-5,-2,-3,-3
1558434113312198,-4,-5,-11,-3,4,2,2,-2
1558434113312198,-1,-2,-4,1,-7,-10,-5,-3
1558434113320145,1,2,15,4,-1,2,-5,-3
1558434113320145,0,0,-18,-6,-5,-2,0,-2
1558434113327127,-1,-5,-1,0,-1,-6,-2,-1
1558434113327127,1,4,11,3,-3,3,2,0
1558434113335107,-4,-7,-12,-5,4,1,-4,-3
1558434113335107,1,3,20,-4,-5,-3,-4,1
1558434113350065,0,-3,-3,0,3,5,1,-1
1558434113350065,-2,0,-3,2,9,-5,4,2
1558434113357045,-2,1,2,-2,-8,-4,-3,-2
1558434113357045,-2,-2,0,0,1,-2,-1,-1
1558434113372008,0,-1,3,1,-4,-1,0,1
1558434113372008,-1,0,3,-1,5,-1,-2,-3
1558434113379985,-3,-2,-1,3,-1,-4,-1,0
1558434113379985,-4,-4,-9,-10,-8,-3,-2,-2
1558434113395949,0,1,0,1,3,0,1,-1
1558434113395949,-1,-6,-4,-1,-7,2,0,-3
1558434113395949,2,4,7,3,8,1,-1,0
1558434113395949,-1,-4,-6,-4,-4,-1,2,1
1558434113409905,-6,-4,-10,-8,0,2,0,-6
1558434113409905,-1,-3,-2,-1,-6,-2,-3,-1
1558434113416885,-1,-2,-5,0,-1,-1,-4,-3
1558434113416885,0,2,0,2,5,-1,0,-1
1558434113432846,-1,2,6,5,2,1,0,1
1558434113432846,-2,-1,-8,-5,-5,-3,-3,-1
1558434113440824,-1,-6,0,-2,-3,1,-2,-1
1558434113440824,3,4,3,7,6,2,-1,1
1558434113455783,-1,0,4,1,-2,-2,0,0
1558434113455783,-1,-4,4,-6,-7,-2,-1,-1
1558434113455783,1,2,3,4,4,1,0,0
1558434113455783,-4,-7,-16,-7,-1,-4,-2,-2
1558434113469745,2,2,6,-1,0,1,0,0
1558434113469745,0,1,5,5,0,-1,0,1
1558434113477730,-1,-5,4,-2,-2,0,1,-2
1558434113477730,0,0,0,4,2,-1,-1,-2
1558434113501660,1,4,-4,4,-2,1,-2,0
1558434113501660,-5,-12,-31,-17,-6,-2,-2,-4
1558434113501660,-3,-1,-2,-2,-3,-5,-2,-2
1558434113501660,2,3,11,2,4,3,1,3
1558434113515622,-5,-10,-1,-6,-8,-5,-3,-3
1558434113515622,-2,0,-6,-1,-3,-2,-4,1
1558434113515622,0,-4,-10,-2,-1,0,0,-1
1558434113515622,-1,0,6,4,1,-2,1,0
1558434113531580,-2,0,-5,-7,-2,0,-1,-4
1558434113531580,1,0,7,8,6,2,0,-4
1558434113537569,-2,-1,4,-2,-3,-1,-1,-2
1558434113537569,-2,-3,-16,-6,0,-2,-2,-1
1558434113552524,1,3,12,4,-2,-2,-1,2
1558434113552524,-2,2,-2,3,0,-2,-1,-2
1558434113560502,-3,-2,-3,-4,0,1,-3,-2
1558434113560502,2,2,9,6,-3,-1,0,1
1558434113575462,-3,-2,-7,-4,-1,-2,-4,-4
1558434113575462,0,0,2,-3,0,-2,-1,1
1558434113576458,-1,2,1,11,10,1,2,2
1558434113576458,-3,-5,-3,-7,1,-2,0,-1
1558434113589430,-1,-3,-9,-7,-6,-6,-2,-1
1558434113589430,2,4,11,5,0,1,-1,-2
1558434113597406,-3,-5,-13,-3,3,6,2,-2
1558434113597406,1,1,6,2,-5,-7,-1,0
1558434113621345,4,2,-3,3,3,0,-2,1
1558434113621345,-4,-3,-4,-7,-5,-3,-1,-3
1558434113621345,1,1,8,2,-1,-1,-2,0
1558434113621345,-3,-5,-8,-3,-3,1,0,0
1558434113635304,-1,-1,-3,-5,-1,3,1,0
1558434113635304,-2,-3,-2,-2,-1,-5,-1,2
1558434113636299,-2,-2,-14,-7,-6,-5,-5,-3
1558434113636299,0,4,9,2,-2,-3,-3,-2
1558434113650267,1,-5,-9,-5,-1,-3,1,0
1558434113650267,-2,-4,-8,-3,2,5,2,-2
1558434113657246,1,1,7,2,4,0,1,3
1558434113657246,-1,-2,-2,7,-1,0,-2,-5
1558434113672209,0,0,-2,0,0,-5,0,-1
1558434113672209,3,3,3,-3,-4,-7,-1,-1
1558434113680182,-2,-2,-3,-3,-6,-1,1,-1
1558434113680182,-1,1,1,-2,-3,0,-3,-4
1558434113703121,-4,1,12,4,0,3,-3,-2
1558434113703121,-2,-4,-9,-2,0,1,0,1
1558434113704117,-3,-1,-1,-3,-6,-3,-4,-2
1558434113704117,0,3,5,2,2,-1,0,2
1558434113710109,0,1,-1,6,6,4,3,0
1558434113710109,-2,-5,-8,-4,-2,2,0,-2
1558434113717082,1,1,-3,-4,-3,0,0,-1
1558434113717082,0,-3,-8,-4,1,-2,1,-2
1558434113732044,-2,-6,-4,-2,-3,-2,-1,-1
1558434113732044,-2,3,9,6,1,-1,-3,-1
1558434113740028,0,-2,2,-4,1,2,-1,-1
1558434113740028,-4,-4,-6,0,-4,0,-4,-5
1558434113755984,-3,-1,-7,-1,-3,-8,-1,0
1558434113755984,3,0,8,5,8,10,4,0
1558434113755984,-2,-2,-1,-5,-2,0,1,0
1558434113755984,0,0,4,3,5,3,-2,-1
1558434113769950,1,1,-5,1,-4,-6,-3,1
1558434113769950,-2,-2,-4,-6,-8,-9,-5,0
1558434113776926,-1,-1,-7,-3,-5,-3,-3,-5
1558434113776926,-1,-5,-3,-4,-5,-2,-3,-1
1558434113791888,-1,1,4,-2,-1,3,-1,-2
1558434113791888,2,3,3,7,12,10,4,2
1558434113800860,-1,-1,0,2,0,-2,0,-1
1558434113800860,0,-3,-3,-2,-6,-5,-3,-3
1558434113815820,-1,2,2,2,1,2,3,-5
1558434113815820,-1,-1,-4,-3,-2,-5,-3,0
1558434113815820,0,-2,-2,-3,-5,-3,1,1
1558434113815820,-1,-2,-3,-5,-5,-1,-5,-4
1558434113829786,-2,-2,-2,0,1,-2,-1,0
1558434113829786,-3,-1,1,0,-1,0,1,-5
1558434113836763,1,0,-2,2,1,-2,-2,2
1558434113836763,-2,-2,-3,-5,-9,-5,0,0
1558434113852725,2,3,2,0,7,7,5,4
1558434113852725,-2,-4,-4,-4,0,-2,-3,3
1558434113860699,-3,-2,-4,2,-9,-6,-3,-1
1558434113860699,-1,3,7,5,7,8,6,3
