timestamp,emg1,emg2,emg3,emg4,emg5,emg6,emg7,emg8
1558441652694700,0,-2,-5,-3,-5,2,-2,-3
1558441652694700,0,0,0,0,0,-3,2,-2
1558441652695698,1,1,1,-4,-4,-5,-2,-2
1558441652695698,-2,-5,-5,-4,2,1,-3,-4
1558441652699687,-1,0,3,0,-5,-9,-6,-3
1558441652699687,-2,1,1,0,-1,-3,2,0
1558441652700684,0,-2,-1,-1,1,-1,1,2
1558441652700684,-4,-2,-2,-1,-4,2,3,-1
1558441652713649,-2,0,0,0,6,7,5,2
1558441652713649,1,1,1,1,-2,-3,-5,-1
1558441652714647,-2,-3,0,-3,-5,-3,-4,-3
1558441652714647,1,0,-6,-6,-6,-10,-3,-2
1558441652727613,2,2,1,0,1,4,3,0
1558441652727613,1,0,-6,-5,-3,-4,-1,0
1558441652737587,-2,-5,0,2,0,-1,-1,-1
1558441652737587,1,0,0,1,-2,5,0,-2
1558441652742571,-3,-2,7,-1,-3,2,-4,-1
1558441652742571,3,2,-4,-1,10,5,7,2
1558441652758531,-1,3,-3,2,3,-4,1,-1
1558441652758531,-2,-3,1,0,2,0,0,-1
1558441652766508,-1,-2,-10,-3,-2,1,-1,-3
1558441652766508,-4,-1,2,-5,-13,0,-8,-5
1558441652773491,-1,-1,-1,-2,-7,-10,-4,-3
1558441652773491,-3,-1,2,1,0,1,1,-1
1558441652811387,2,0,1,3,2,5,3,3
1558441652811387,-3,-1,5,1,4,4,4,2
1558441652819366,2,1,-5,2,-1,-1,-4,-2
1558441652819366,2,2,-6,-4,-3,-3,-4,-2
1558441652820363,0,0,-2,0,2,7,2,1
1558441652820363,-6,-4,-1,0,-9,-8,-4,-5
1558441652822358,-2,-2,-3,-3,-3,4,0,1
1558441652822358,-1,0,1,0,-4,-13,-4,-2
1558441652832333,3,1,-2,1,2,4,2,-2
1558441652832333,3,1,-5,-4,0,5,1,-3
1558441652841308,-2,0,11,1,-1,5,1,-3
1558441652841308,0,-6,-15,-6,-5,-12,-2,-1
1558441652848934,-4,-3,3,-1,0,2,-1,-2
1558441652848934,-3,0,1,-1,-2,-10,-6,-1
1558441652871228,-1,-1,-4,-4,-2,-13,0,-2
1558441652871228,-1,1,5,0,4,12,-2,-4
1558441652871228,0,-3,0,-3,-2,-5,-4,-2
1558441652871228,3,1,4,5,12,8,11,4
1558441652879206,0,-2,-2,-1,-5,-2,-3,-2
1558441652879206,-4,-2,2,2,-2,-1,2,1
1558441652893172,-2,-2,-8,-5,0,-2,-8,-4
1558441652893172,3,4,-1,-5,-8,1,-5,-2
1558441652902145,0,-2,3,-3,-5,-12,-3,-3
1558441652902145,-5,-2,2,1,-4,3,-1,-3
1558441652908130,1,2,6,4,4,2,2,-1
1558441652908130,0,-4,-6,-5,-2,-4,1,2
1558441652923088,2,4,-3,1,8,2,3,3
1558441652923088,-2,-2,-3,-3,-6,1,-5,-1
1558441652930071,-5,-2,0,-4,-4,-6,-2,-3
1558441652930071,1,2,3,3,0,1,-1,-1
1558441652939047,-4,-1,-4,1,7,9,4,-1
1558441652939047,0,0,3,-1,-3,4,2,-1
1558441652953009,-1,1,-4,-1,2,-1,3,2
1558441652953009,-3,-5,-3,-3,-1,-13,-1,1
1558441652961985,-2,-4,-3,-3,-10,-2,-6,-4
1558441652961985,-3,-3,0,0,2,4,-4,-3
1558441652967969,1,4,3,0,-2,-2,1,1
1558441652967969,1,4,-6,-1,4,-9,0,2
1558441652982928,-1,-3,0,2,4,-1,0,0
1558441652982928,2,5,7,1,-2,1,0,-1
1558441652998885,-15,-15,-14,-10,-22,-14,-16,-11
1558441652998885,-5,-6,-6,-5,-5,13,-7,-6
1558441653000881,2,2,1,3,14,8,11,5
1558441653000881,4,1,2,2,10,0,7,4
1558441653012848,2,3,4,3,-4,-1,-3,-1
1558441653012848,1,-1,4,3,6,1,4,4
1558441653021824,-2,1,0,-3,-9,-14,-7,-2
1558441653021824,0,-5,-6,-3,-4,-9,-2,-1
1558441653027808,-1,-3,-2,-3,-6,2,-7,-6
1558441653027808,-4,-5,-4,-4,-9,11,-3,-3
1558441653042768,-2,0,3,-1,1,7,-1,0
1558441653042768,-4,0,-5,1,10,-1,5,2
1558441653050746,1,2,3,5,9,-4,6,4
1558441653050746,-3,-4,-4,-3,-8,-6,-4,-5
1558441653058726,0,-2,-2,-3,-10,0,-1,-1
1558441653058726,0,0,-1,-3,-5,-1,-3,-2
1558441653072689,-1,-2,-4,-2,-1,-3,2,1
1558441653072689,3,4,3,3,3,-2,-2,0
1558441653081664,-14,-14,-10,-8,-11,-3,-4,-4
1558441653081664,-1,1,2,0,1,2,-3,-2
1558441653087649,1,0,-4,1,1,-2,-2,0
1558441653087649,-1,0,0,-1,4,12,7,3
1558441653102611,3,-1,-2,0,2,-7,0,2
1558441653102611,1,-3,-3,-1,-5,-9,-2,1
1558441653110590,-1,2,7,1,3,6,1,0
1558441653110590,-3,-2,-6,-2,-6,-4,-8,-5
1558441653119569,-1,0,-3,-4,-6,5,-4,-6
1558441653119569,-3,-2,-3,-2,-6,-8,-4,-2
1558441653132530,6,5,5,2,14,16,12,9
1558441653132530,1,1,3,1,3,-13,-1,1
1558441653141506,1,0,-1,1,4,3,2,0
1558441653141506,0,-2,-3,-3,-8,-4,-7,-6
1558441653147490,-3,-3,-6,-3,-3,7,-3,-3
1558441653147490,1,-1,-4,-3,-6,-6,-1,-1
1558441653162449,-9,-3,2,2,8,2,4,1
1558441653162449,0,3,2,-2,-1,-9,2,0
1558441653170427,-2,-5,-5,-6,-9,-15,-10,-4
1558441653170427,0,-1,1,2,3,11,3,1
1558441653185388,5,3,-1,1,-2,0,-5,-3
1558441653185388,-3,0,2,0,2,8,-1,-1
1558441653192368,0,-3,-4,1,2,2,3,0
1558441653192368,-3,-2,1,-5,-8,-10,-4,-5
1558441653201344,1,2,-1,-2,-4,-3,-4,-2
1558441653201344,-1,-2,-2,-2,4,3,1,1
1558441653207328,2,4,7,3,3,-5,4,3
1558441653207328,-3,-2,1,3,1,-2,-3,-1
1558441653222289,-2,-3,-6,-1,0,4,-1,-1
1558441653222289,0,-2,0,-2,0,-1,1,-3
1558441653230267,0,-2,-5,-1,-2,4,3,-2
1558441653230267,-3,-5,-3,-2,-4,3,-1,-3
1558441653245227,1,0,2,-4,-4,-5,-3,0
1558441653245227,-1,-1,-1,-1,-5,-4,-2,1
1558441653253206,-3,0,3,0,1,-7,2,2
1558441653253206,-4,0,0,1,5,7,1,-2
1558441653262183,1,1,3,1,4,5,7,1
1558441653262183,-1,-1,-2,0,0,2,0,1
1558441653268166,-1,1,-4,-4,-8,-5,-7,-4
1558441653268166,-6,-4,0,-1,1,-9,-4,0
1558441653283126,-3,2,-4,-3,-4,-7,-5,-4
1558441653283126,0,-4,0,1,3,12,4,1
1558441653290107,-3,-3,-3,0,-4,-7,-3,-4
1558441653290107,0,0,-3,1,-1,10,0,-3
1558441653305067,0,-1,3,-2,-4,-10,-4,1
1558441653305067,-2,0,-2,0,0,0,0,0
1558441653313046,0,-1,-1,-3,-1,3,-1,-4
1558441653313046,2,2,3,-1,-4,0,-1,-2
1558441653322022,-1,-4,-4,-3,-4,-9,-4,-3
1558441653322022,0,-1,-4,-1,1,3,-1,0
1558441653328005,-1,-3,-2,-1,-2,-4,0,1
1558441653328005,3,-1,3,2,12,2,5,3
1558441653342966,1,-1,3,1,6,2,8,5
1558441653342966,-3,-2,-2,-1,-7,-12,-9,-4
1558441653349948,-1,-1,1,-3,-4,-4,-3,-1
1558441653349948,-2,0,4,-1,-4,1,-1,-1
1558441653364911,0,1,1,4,-2,-2,-2,-2
1558441653364911,-2,-4,2,-4,-2,3,0,-3
1558441653372886,-5,-5,-14,-3,1,5,0,1
1558441653372886,-2,-3,-7,-6,-10,-12,-10,-4
1558441653381862,0,3,1,-2,1,8,0,1
1558441653381862,0,2,5,1,0,4,1,-2
1558441653387845,-3,1,3,-2,-7,-9,-5,-5
1558441653387845,3,-1,2,4,8,13,13,5
1558441653402806,1,0,1,1,5,-14,0,1
1558441653402806,0,-3,-4,-4,-4,-1,-3,-1
1558441653409787,-2,-2,0,-3,-2,5,-4,-1
1558441653409787,-1,0,-3,-3,0,-4,-1,-3
1558441653425744,-1,-1,-2,-1,-3,4,0,-2
1558441653425744,0,0,-2,-1,0,-3,1,2
1558441653441702,1,0,2,0,2,0,1,-2
1558441653441702,-2,-2,-3,-3,-9,-8,-7,-2
1558441653442699,-3,-3,-3,-2,-3,2,-2,-4
1558441653442699,-3,-1,-3,-1,2,0,-1,1
1558441653447686,-1,-3,0,2,-4,1,-1,-2
1558441653447686,1,0,-1,-1,-2,-13,-6,-3
1558441653462645,1,1,1,-2,2,6,-1,0
1558441653462645,-4,-5,-7,-4,4,4,3,0
1558441653486581,2,3,8,3,12,8,9,4
1558441653486581,-1,-1,-4,0,-4,-1,0,1
1558441653488577,-1,-4,-8,-4,-5,-14,-5,-3
1558441653488577,0,-3,-1,-1,-7,-1,-9,-5
1558441653492568,-7,-7,-4,-2,-4,-9,-5,-3
1558441653492568,-2,2,2,-1,1,5,0,-1
1558441653501545,0,3,2,-1,-2,-4,-2,0
1558441653501545,0,-3,-2,-2,2,3,5,1
1558441653515504,0,0,-2,-2,-7,-6,-4,-2
1558441653515504,-2,-2,-4,-2,-2,2,-2,-3
1558441653522487,-2,-3,-2,0,-2,-4,-1,-2
1558441653522487,2,4,4,5,2,-3,1,0
1558441653530464,2,-1,0,-2,3,4,2,1
1558441653530464,-2,-2,-5,-1,-3,-8,0,-1
1558441653545424,1,0,-2,0,0,8,-1,1
1558441653545424,-3,-4,-5,-4,-6,-8,-4,0
1558441653552406,0,0,1,-2,-5,-6,-7,-3
1558441653552406,-2,-2,1,-1,-1,3,-1,0
1558441653561382,3,3,17,5,3,-1,-1,1
1558441653561382,-3,-2,-8,0,6,0,-2,-2
1558441653576342,-2,-6,-10,-2,4,-11,6,3
1558441653576342,1,-1,2,-2,2,-3,-3,0
1558441653582326,1,1,2,-2,-3,6,-1,-3
1558441653582326,0,-1,0,-2,-5,-1,-5,-2
1558441653590304,1,2,-1,-4,-8,0,-6,-3
1558441653590304,-9,-6,-3,-2,-1,-2,0,-3
1558441653605264,-4,-2,2,1,3,2,1,-1
1558441653605264,-1,5,2,-1,1,4,1,1
1558441653612245,1,-3,0,0,2,3,0,0
1558441653612245,1,-3,-2,-1,-6,-3,-2,-3
1558441653621223,0,0,-5,-2,-1,4,2,-2
1558441653621223,-1,-3,-2,-2,-4,-10,-3,-3
1558441653636181,-1,1,-1,-2,0,4,-3,-2
1558441653636181,0,0,3,1,-2,-4,1,1
1558441653643163,-1,-2,-5,-1,4,-3,5,5
1558441653643163,0,1,1,-2,-6,-4,-5,-1
1558441653650144,0,0,7,1,1,10,1,-1
1558441653650144,1,-1,0,-2,-3,-2,-1,-1
1558441653665103,-7,-9,-15,-7,-5,-2,-6,-7
1558441653665103,1,1,0,0,-2,-5,0,-2
1558441653673082,-2,-3,-5,-3,3,-1,1,0
1558441653673082,-1,1,-2,0,-3,3,-3,-2
1558441653682059,0,-2,-1,-3,-4,-3,-2,0
1558441653682059,0,0,4,0,-2,-1,-1,-1
1558441653696022,-2,-2,0,1,1,-1,0,1
1558441653696022,1,1,-2,1,3,1,1,0
1558441653703011,-4,0,-2,-1,-2,-1,-2,-2
1558441653703011,-3,-1,-4,-2,-1,3,0,-2
1558441653718960,3,2,2,-2,-6,-2,-4,0
1558441653718960,0,-3,4,0,0,5,-7,-6
1558441653724945,0,-2,-6,-1,5,22,6,3
1558441653724945,1,-1,1,3,9,-21,8,8
1558441653732924,-1,0,-2,-2,1,-17,-4,0
1558441653732924,1,2,-1,2,10,21,7,2
1558441653741899,-3,-3,-4,-5,-7,-2,-7,-5
1558441653741899,-4,-2,-4,-4,-9,0,-2,-2
1558441653755862,2,1,2,2,2,-1,-1,0
1558441653755862,-1,0,-1,-3,-5,-7,-7,-3
1558441653762843,-2,-1,1,-2,-2,4,1,-2
1558441653762843,-1,-2,-2,-1,-1,-1,-1,-3
1558441653769826,1,1,1,0,6,6,0,1
1558441653769826,-2,-7,-3,-4,-5,-7,-5,-1
1558441653784784,-2,1,1,0,5,4,3,1
1558441653784784,-2,-1,0,-1,-4,-4,-2,-2
1558441653792762,-3,2,-1,-3,-4,-12,-3,-3
1558441653792762,-3,-1,-3,-2,-1,-2,-1,1
1558441653807730,1,-2,0,0,-3,-6,-4,-3
1558441653807730,-1,1,1,0,0,10,-4,-3
1558441653815703,-2,-1,-4,-3,-7,1,-2,-5
1558441653815703,-3,1,0,-3,-5,-15,-5,1
1558441653830662,1,-2,2,1,0,-14,3,1
1558441653830662,1,-1,-3,1,10,9,8,4
1558441653831658,-3,-2,1,3,0,-1,0,2
1558441653831658,1,-2,-3,-5,-5,-6,-3,-2
1558441653845624,-1,0,-2,-1,-2,3,-7,-3
1558441653845624,2,1,2,-2,-4,9,-2,0
1558441653852604,-2,0,-3,0,6,-1,8,4
1558441653852604,-1,1,3,0,-2,-11,1,-1
1558441653867564,-3,-2,-2,0,-2,3,-2,-1
1558441653867564,-5,-5,-8,-4,-9,-4,-6,-4
1558441653876541,3,-1,-1,1,-3,-2,4,1
1558441653876541,-1,1,-1,0,-2,-7,-1,1
1558441653891499,-1,-1,1,-1,-3,-2,-3,-2
1558441653891499,2,1,2,0,5,4,0,-3
1558441653891499,-2,-1,-1,0,-4,-10,-4,-3
1558441653891499,-3,-3,-3,-1,7,8,4,1
1558441653905461,2,1,1,1,-3,-5,1,-2
1558441653905461,-4,-3,-3,-3,0,5,-3,-2
1558441653912443,-1,0,-2,-2,-3,4,-2,-3
1558441653912443,-2,-7,-7,-5,-5,0,-2,1
1558441653927404,-4,-3,0,-2,-1,-1,-2,0
1558441653927404,0,-1,2,0,-2,-7,1,1
1558441653936381,3,1,6,2,14,6,9,3
1558441653936381,1,2,-1,-1,0,3,-3,-1
1558441653951339,-2,-2,0,-1,-3,2,-1,-1
1558441653951339,-3,-1,-4,-2,-3,-7,-1,0
1558441653951339,-6,-6,-10,-8,-8,-5,-9,-6
1558441653951339,0,3,0,1,3,7,4,1
1558441653965304,5,2,0,-1,-4,-18,-4,0
1558441653965304,-11,-9,1,1,-1,-4,-3,-3
1558441653973282,-1,-2,-1,1,-2,6,-1,-2
1558441653973282,-2,-1,3,2,2,5,1,-2
1558441653988241,-3,-1,-7,-2,-2,-2,-5,-1
1558441653988241,0,-1,-1,1,-3,-3,-6,-2
1558441653996221,0,-5,-7,-3,-5,-1,-2,-4
1558441653996221,0,-2,4,3,2,1,-2,-2
1558441654011179,0,1,1,-1,-2,-5,-1,0
1558441654011179,-1,0,-5,-3,-2,5,-3,0
1558441654011179,-1,3,5,-1,1,13,0,-1
1558441654011179,2,2,-2,2,10,1,7,7
1558441654025142,-4,-5,2,-1,5,-9,2,0
1558441654025142,0,2,2,-1,-1,-6,-5,-3
1558441654033126,-1,-6,-10,-5,-10,3,-3,-2
1558441654033126,0,-3,-2,-2,-4,-11,-4,-4
1558441654048083,0,-1,1,1,-3,0,0,-2
1558441654048083,3,1,9,3,7,2,2,0
1558441654056063,-5,-7,-10,-4,-4,-2,-4,-2
1558441654056063,0,1,-1,-3,-4,-7,-5,-1
1558441654071022,-6,-6,-8,-2,-4,1,-3,-1
1558441654071022,5,4,10,5,10,5,8,1
1558441654072020,5,5,2,0,10,10,8,4
1558441654072020,-6,-4,-3,-2,-3,-5,1,-2
1558441654085019,0,1,0,-4,-5,0,-7,-4
1558441654085019,-4,-3,-3,-4,-8,-6,-6,-2
1558441654100938,-5,-2,1,-1,-8,-11,-5,-3
1558441654100938,-1,-1,-1,-2,1,-1,5,2
1558441654107920,3,2,3,2,7,1,3,2
1558441654107920,-4,-3,-5,-3,-3,0,-6,-2
1558441654115898,1,0,2,0,-3,-1,-4,-4
1558441654115898,0,0,-3,-3,-8,-4,-9,-5
1558441654130859,-4,-4,-1,-1,-3,6,0,-1
1558441654130859,8,8,-2,2,11,15,13,6
1558441654131856,-5,-4,1,0,0,-15,-5,-1
1558441654131856,-2,2,1,1,5,11,1,-1
1558441654145824,0,-5,-2,-2,-1,0,-2,-3
1558441654145824,-2,-4,-2,-3,-8,-9,-4,-3
1558441654152805,1,1,4,0,-4,-9,-2,-1
1558441654152805,3,0,0,-1,6,7,9,2
1558441654167760,1,1,-6,-2,0,2,1,0
1558441654167760,-6,-6,0,-1,-1,3,-4,-4
1558441654175738,-1,-1,2,0,-2,0,-2,1
1558441654175738,-1,-4,-1,-1,-2,-12,-3,-2
1558441654190700,4,3,-8,-3,0,-3,2,3
1558441654190700,-4,-2,-5,-3,-6,-9,-4,-4
1558441654191695,-1,-1,2,-2,-1,6,-2,-4
1558441654191695,-1,-2,-1,-1,-4,-6,-6,-3
1558441654205663,0,-1,5,2,6,10,3,-1
1558441654205663,0,0,-6,-2,-1,3,0,-1
1558441654212640,-1,-2,-5,-3,-4,-1,1,-1
1558441654212640,0,-2,-1,-1,-3,-11,-1,1
1558441654236580,-2,-2,1,1,-1,-5,-2,0
1558441654236580,1,1,-1,-1,2,5,2,2
1558441654237577,-1,0,0,-1,3,-3,-3,-2
1558441654237577,2,2,3,0,0,4,3,0
1558441654250544,0,-1,1,0,-4,-1,0,-1
1558441654250544,3,-2,-4,-4,-5,-7,-4,-1
1558441654251537,-9,-4,-6,-4,-4,1,1,-2
1558441654251537,-4,-5,-2,-2,-4,4,-5,-4
1558441654265502,-4,-3,0,-1,-3,-2,-2,-1
1558441654265502,0,0,-2,0,3,-4,2,0
1558441654272487,0,-1,-2,-1,-1,-9,-2,-1
1558441654272487,-2,0,-6,-1,-1,4,-4,-3
1558441654288440,-1,-1,2,-1,0,0,-4,-2
1558441654288440,2,0,4,2,3,3,6,0
1558441654295428,0,-3,-7,-4,-6,-9,-3,-2
1558441654295428,1,1,-2,-2,-3,-5,-2,-1
1558441654311381,-1,-3,-4,-2,-3,-5,-7,-4
1558441654311381,0,-2,1,1,0,4,1,2
1558441654311381,1,3,9,4,6,-3,2,3
1558441654311381,-2,-1,-12,-5,-2,-2,-2,0
1558441654326348,-1,0,-1,-5,-4,-3,-3,-1
1558441654326348,-1,-3,-2,1,-6,2,-4,-2
1558441654333508,1,4,4,3,3,7,3,1
1558441654333508,-2,-3,5,-1,2,0,3,2
1558441654348477,-1,1,2,0,-2,-11,-4,-3
1558441654348477,0,-4,-8,-1,3,9,4,0
1558441654355474,1,-1,-1,-1,-2,-1,-4,-2
1558441654355474,1,2,0,-2,-2,-2,-4,-2
1558441654371528,-9,-3,-1,-1,1,5,3,0
1558441654371528,2,4,10,2,5,-11,3,4
1558441654372217,2,0,-5,-2,2,8,0,-1
1558441654372217,-1,-3,-3,1,1,9,1,1
1558441654385181,0,2,-1,-3,4,-3,1,0
1558441654385181,-4,-1,-6,-3,-8,-4,-6,-6
1558441654393167,-3,-3,-1,-3,-3,3,1,-1
1558441654393167,-4,-4,0,1,-4,-1,-1,-4
1558441654408160,5,1,1,0,3,1,1,3
1558441654408160,1,0,1,2,0,-8,-5,-2
1558441654415099,2,-1,2,-4,-3,-5,-1,-1
1558441654415099,-2,-1,0,-1,-4,-1,-1,-2
1558441654439063,0,-5,-6,-1,1,0,3,-1
1558441654439063,2,0,-1,-3,-2,-3,-2,-1
1558441654440032,-3,-6,-2,1,2,0,-2,1
1558441654440032,2,1,1,0,3,-4,-2,1
1558441654445019,-4,0,0,-2,-6,1,-4,-2
1558441654445019,-2,-1,0,0,-1,-5,1,1
1558441654452997,1,2,1,-1,-3,2,-3,-1
1558441654452997,2,-1,-2,-3,-1,-6,-2,-2
1558441654468306,-1,0,-1,0,5,4,5,0
1558441654468306,-2,-3,-4,-2,1,3,0,0
1558441654476007,-2,1,4,3,2,-12,-3,0
1558441654476007,2,1,4,0,0,6,-1,0
1558441654490988,-3,-5,-11,-5,-6,5,-5,-6
1558441654490988,-2,-1,0,-3,-4,2,6,1
1558441654498876,3,1,1,3,10,2,7,2
1558441654498876,-1,0,1,-1,0,-2,-3,-1
1558441654514039,-1,-1,-1,-1,-8,-4,-7,-4
1558441654514039,-6,-3,-4,-4,-7,-4,-7,-6
1558441654514039,-3,-1,-1,1,5,5,4,0
1558441654514039,0,2,2,1,2,-9,4,1
1558441654527798,3,2,4,2,2,0,1,3
1558441654527798,-1,0,-5,-3,-2,-2,-5,-3
1558441654536007,-8,-4,-5,-4,-11,0,-9,-5
1558441654536007,-3,-5,-4,-4,-11,0,-9,-6
1558441654550778,4,4,5,4,17,-5,14,7
1558441654550778,1,1,2,3,5,-2,2,3
1558441654558935,-1,-4,-7,-4,-4,-2,-4,-2
1558441654558935,-2,-6,1,1,1,11,2,0
1558441654565820,-6,-5,-7,-6,-16,-10,-9,-6
1558441654565820,1,-1,4,-2,-2,-6,-2,-3
1558441654572891,1,1,-2,0,4,7,2,-1
1558441654572891,-2,0,-3,0,-1,-8,-5,-1
1558441654587705,0,1,1,-2,0,5,0,-1
1558441654587705,-2,1,1,3,3,1,3,0
1558441654595616,-2,-1,1,-3,-7,-14,-6,-1
1558441654595616,0,3,0,-2,-1,1,-1,-2
1558441654610583,-1,-3,-1,-2,-1,-2,-4,-1
1558441654610583,-4,-4,-4,-4,-7,1,-6,-3
1558441654618553,0,0,-2,-1,-1,5,1,-1
1558441654618553,-2,-1,3,1,3,1,0,1
1558441654633513,0,-2,0,1,2,-5,3,1
1558441654633513,-2,-3,-3,-2,-4,0,-3,-2
1558441654634510,-2,0,1,1,-3,-1,-1,-2
1558441654634510,-2,-1,-6,-1,10,12,7,1
1558441654647475,0,0,0,-2,-2,-6,-3,-1
1558441654647475,1,0,2,-3,-4,-5,-2,1
1558441654663432,-3,-3,-2,-2,1,6,1,1
1558441654663432,-2,-3,-1,-3,-8,-3,-1,-3
1558441654670788,-1,0,3,3,4,2,-1,-1
1558441654670788,-3,1,0,0,3,6,0,1
1558441654678393,1,0,-1,-3,-4,-7,-6,-3
1558441654678393,-5,-3,-3,-3,-7,-3,-4,-3
1558441654693356,0,0,-1,-1,-4,-1,-2,0
1558441654693356,1,-1,-1,-1,2,0,-4,-2
1558441654694352,-1,-1,1,-1,-2,-4,-4,-2
1558441654694352,5,1,0,-1,-4,-5,-1,0
1558441654708493,-1,-2,-5,-1,3,-1,4,1
1558441654708493,-3,-1,1,2,4,-12,0,1
1558441654715625,0,-2,-3,-3,1,7,-1,-1
1558441654715625,-2,-1,2,-2,-5,0,-5,-4
1558441654730567,2,1,-1,-1,-4,1,1,-2
1558441654730567,-1,-3,-2,-1,-4,-5,-2,-2
1558441654738523,1,0,-4,-2,-4,-3,3,-1
1558441654738523,-2,-2,-2,-2,1,3,0,-2
1558441654754193,-4,-2,-4,0,-4,-3,-4,-1
1558441654754193,-1,-2,2,0,2,-7,0,1
1558441654754193,-3,0,0,-2,2,-1,1,0
1558441654754193,1,-1,0,0,-4,-1,-1,-2
1558441654776141,0,0,3,0,3,10,-1,-1
1558441654776141,-3,-2,-3,-2,-3,5,-3,-3
1558441654777134,-1,-2,2,-1,-6,-11,-4,-2
1558441654777134,-5,-2,-4,-3,-3,-2,-3,-2
1558441654791096,-2,-1,-1,-1,-3,1,0,-1
1558441654791096,3,2,1,-2,1,-2,2,0
1558441654799074,2,2,2,2,4,0,2,1
1558441654799074,1,0,1,-1,0,0,2,1
1558441654813044,-4,-3,-2,-3,-5,-9,-7,-2
1558441654813044,-2,-3,-3,0,-3,2,-3,-3
1558441654814034,0,-1,1,1,-1,0,1,1
1558441654814034,-2,-3,1,-2,-3,-5,-3,-3
1558441654827994,-2,-3,-9,-7,-5,0,-5,-2
1558441654827994,1,-2,-2,-2,-3,4,-1,-1
1558441654834974,0,-1,-1,-1,-1,-3,-1,-2
1558441654834974,-2,1,1,0,4,-3,2,2
1558441654849939,-1,1,7,1,2,2,2,-2
1558441654849939,0,2,-2,-2,2,7,-1,-1
1558441654858911,2,2,0,-2,-7,-1,-2,0
1558441654858911,-4,-7,-14,-4,1,-2,0,-1
1558441654872873,1,0,-1,-1,0,-4,-2,0
1558441654872873,1,-3,-1,0,-6,0,-2,0
1558441654873870,-3,-1,1,2,4,-1,-1,-3
1558441654873870,-2,0,0,0,2,7,1,0
1558441654888197,-3,-3,-1,-3,-5,-2,-4,-5
1558441654888197,1,2,-1,-3,-3,-7,-5,-1
1558441654896140,0,2,-1,3,12,12,8,5
1558441654896140,-1,1,3,0,-2,-4,-1,-2
1558441654909784,2,1,1,1,2,-7,0,2
1558441654909784,-5,-3,-3,-2,0,8,2,0
1558441654918752,-2,-1,-2,-3,-5,-1,-5,-2
1558441654918752,-3,-1,-7,-2,-3,-2,1,-2
1558441654934106,3,2,6,2,-1,3,0,0
1558441654934106,-1,-2,-6,-3,-3,-10,-3,-2
1558441654934106,-1,-6,-3,-1,-1,-2,-4,-1
1558441654934106,0,-1,3,2,-1,-8,-5,-2
1558441654948134,-4,-3,-6,-3,-3,6,-3,-3
1558441654948134,0,-1,1,1,5,2,7,3
1558441654955686,-1,1,0,-1,-2,-5,0,-1
1558441654955686,4,0,1,-2,-7,-6,-2,-1
1558441654970971,-2,-3,-2,1,2,3,1,-1
1558441654970971,-3,0,-2,-3,-9,-8,-3,-4
1558441654978985,-1,-2,-1,-2,-4,-3,-3,-2
1558441654978985,-1,-2,-3,0,4,5,3,2
1558441654993553,3,1,3,1,10,-3,2,3
1558441654993553,-1,0,2,0,2,6,-3,-2
1558441654994549,-2,-2,-10,-4,-4,-6,-5,-3
1558441654994549,0,3,4,-1,3,-5,2,2
1558441655009516,-1,-3,-6,-2,-8,-3,-5,-4
1558441655009516,-3,0,1,0,2,7,6,1
1558441655015726,-2,-1,2,1,-4,-2,-2,-2
1558441655015726,0,-1,-1,-2,-6,-12,-6,-3
1558441655030490,-1,-3,-4,0,1,0,6,2
1558441655030490,2,-1,1,0,-3,-8,-4,-2
1558441655038433,-3,-3,-1,-1,-1,-5,-3,-2
1558441655038433,-1,-2,-1,-1,2,9,0,0
1558441655053392,2,1,-1,-2,-5,4,-2,-3
1558441655053392,-1,-1,-2,-2,0,-5,-2,2
1558441655054387,3,1,2,-1,2,-1,1,1
1558441655054387,0,0,-4,-2,4,4,0,1
1558441655067353,1,-2,1,0,2,0,2,0
1558441655067353,-7,-3,-5,-4,-7,0,-5,-6
1558441655075691,-2,-3,-7,-7,-3,-7,-6,-4
1558441655075691,-1,3,5,3,8,11,7,2
1558441655090758,-5,-2,-3,-2,-5,-2,-2,-1
1558441655090758,0,0,1,1,-2,-5,0,1
1558441655098580,2,-2,0,1,-3,3,1,1
1558441655098580,-2,-5,-6,-5,-10,-3,-9,-5
1558441655113551,-1,-2,-2,-1,2,-6,-1,1
1558441655113551,3,0,1,2,7,-2,5,2
1558441655114230,-1,1,3,-1,-1,-4,0,0
1558441655114230,0,-1,-4,-3,1,2,-1,-1
1558441655128288,-4,-1,3,-1,-7,-1,-5,-3
1558441655128288,-2,-3,-3,-2,-3,-3,-1,-1
1558441655135486,0,-4,-4,-2,-1,-4,0,-2
1558441655135486,-3,-2,1,-1,-3,-6,0,-1
1558441655159241,-3,0,-1,0,3,1,-3,0
1558441655159241,3,0,-2,-3,-4,2,-1,-2
1558441655160109,-4,-2,-2,-2,-4,1,-5,-1
1558441655160109,-2,-3,-2,-1,2,0,-1,-1
1558441655174123,1,0,3,0,1,-2,-1,-2
1558441655174123,2,2,1,0,3,-7,3,1
1558441655174123,-4,-2,2,-2,-2,3,-2,-3
1558441655174123,-3,-5,-4,-6,-11,-7,-9,-5
1558441655188285,-1,-2,-2,0,1,4,2,0
1558441655188285,-1,-2,-3,0,5,1,0,-1
1558441655195013,2,2,-1,-2,-2,-3,-2,-2
1558441655195013,-1,2,-1,0,1,-1,0,-1
1558441655209990,-3,-2,-1,-3,-3,2,-1,-1
1558441655209990,-2,0,5,2,0,3,1,-3
1558441655218996,-3,-3,-7,-3,-3,-9,-1,1
1558441655218996,1,2,4,3,4,5,6,2
1558441655234149,1,-3,-4,-1,-4,0,-1,-3
1558441655234149,-1,-2,-2,-1,0,4,-1,-2
1558441655234149,0,2,2,1,0,1,-1,-1
1558441655234149,1,1,0,1,-4,-2,-3,-2
1558441655247872,0,1,-1,1,7,8,5,2
1558441655247872,-5,-2,-4,-1,-4,-8,-6,-4
1558441655254855,0,-2,1,-2,0,5,0,-2
1558441655254855,-2,-1,3,-1,-3,-8,-4,0
1558441655269814,-1,0,-3,-4,-5,-15,-4,0
1558441655269814,-1,-1,-5,-1,-2,-2,1,0
1558441655278824,1,-2,-2,-1,4,7,3,1
1558441655278824,-3,-2,-2,-1,-3,0,0,-3
1558441655293748,-1,-2,1,-1,-3,0,-1,-5
1558441655293748,1,-1,-1,-1,-3,-3,-2,-1
1558441655293748,-1,-1,1,-1,-1,1,-1,0
1558441655293748,-1,-1,0,0,0,-1,-1,-2
1558441655308038,-4,-1,-3,-3,-3,2,-2,-1
1558441655308038,-1,0,-2,-1,2,-1,1,0
1558441655315954,0,1,1,1,1,-2,-2,0
1558441655315954,0,1,-1,-1,5,5,1,1
1558441655330999,0,1,-1,0,-3,-2,-3,-2
1558441655330999,-1,-3,0,-2,-7,-10,-4,-3
1558441655338930,0,-1,-2,2,5,5,5,2
1558441655338930,0,-1,-1,0,1,-1,-1,-2
1558441655353886,-1,-2,-2,-2,-3,-7,-3,-3
1558441655353886,-1,0,2,-2,1,5,-3,1
1558441655354586,-3,-4,-2,-2,-1,-1,0,0
1558441655354586,0,1,0,0,0,-2,2,-1
1558441655376540,-2,1,-1,-2,-1,-3,0,-1
1558441655376540,-2,-1,-3,-3,-2,0,-3,-2
1558441655376540,-2,0,-1,-1,1,2,1,1
1558441655376540,0,0,-3,-1,-3,-4,-2,0
1558441655390706,-2,-1,0,1,2,-1,-2,1
1558441655390706,0,-1,0,0,-2,2,0,0
1558441655398658,-1,-1,-2,0,-2,-12,-6,-4
1558441655398658,-1,-1,-3,-2,2,3,6,2
1558441655413431,0,0,0,3,9,0,6,2
1558441655413431,-2,-2,1,-1,-2,6,-4,-3
1558441655421627,-1,-3,-3,-4,-5,3,2,-2
1558441655421627,-3,-2,0,-1,-7,0,-5,-4
1558441655427399,0,-3,1,-3,-3,2,-3,-3
1558441655427399,-3,-3,-11,-2,-2,-6,-1,-2
1558441655435580,-1,-1,2,-2,-2,-5,-5,-2
1558441655435580,0,-2,-2,-3,-2,-6,-1,1
1558441655450338,1,1,2,1,-2,-3,2,-1
1558441655450338,0,-2,-4,-3,1,5,1,0
1558441655458310,-1,1,0,0,-3,-8,-4,-4
1558441655458310,2,1,-1,-2,-1,-4,-4,0
1558441655472271,-7,-3,0,1,-2,5,-3,-2
1558441655472271,-2,-1,0,-1,-1,-6,-2,0
1558441655481545,-2,0,-1,1,2,1,5,2
1558441655481545,0,-1,4,1,2,-2,1,1
1558441655488518,1,-2,-4,-3,-4,-2,-4,-2
1558441655488518,-1,0,-1,1,1,4,0,-1
1558441655495210,-2,-2,-1,0,-2,0,0,-1
1558441655495210,1,0,-1,-3,-3,-2,-2,-1
1558441655510168,1,-1,-3,-3,-6,-4,-3,0
1558441655510168,0,0,2,-1,1,-4,1,0
1558441655519146,0,-2,-1,-2,-1,5,-3,-3
1558441655519146,-3,0,-1,-1,1,0,2,-3
1558441655533111,2,2,0,-2,4,-10,0,0
1558441655533111,0,-1,3,2,2,3,6,1
1558441655541369,0,0,-1,0,0,3,-2,-2
1558441655541369,-2,-6,-9,-4,-5,0,-3,-4
1558441655556338,0,1,1,0,-4,4,0,0
1558441655556338,0,2,-1,0,2,-7,-1,1
1558441655557045,-3,-2,-1,-3,0,-3,-4,-1
1558441655557045,-2,-3,-3,-2,-1,-2,-2,-2
1558441655571007,0,-1,1,-2,0,-10,-2,-1
1558441655571007,0,0,2,0,1,8,3,0
1558441655579144,-1,0,-5,-2,-3,-1,-1,0
1558441655579144,-3,-4,-1,-2,-2,1,-2,-1
1558441655592949,-1,-3,0,-1,-5,0,-5,-3
1558441655592949,0,1,1,0,-4,-5,-2,-1
1558441655600929,0,-3,-4,-4,-2,-6,2,1
1558441655600929,0,1,1,1,-1,0,-2,-1
1558441655616090,-1,-2,-3,-1,1,2,-1,0
1558441655616090,-2,-3,-1,0,-5,5,0,-1
1558441655616886,0,2,6,3,2,0,-1,-1
1558441655616886,0,-1,-4,-1,1,-9,3,3
1558441655629851,-2,0,1,3,5,6,2,1
1558441655629851,-2,-3,-7,-4,-2,1,-2,-2
1558441655639036,-3,-3,-2,0,-2,-3,-4,-3
1558441655639036,-1,-2,-1,0,2,0,-3,-3
1558441655653007,0,0,-2,-1,0,-4,3,1
1558441655653007,-1,0,2,-2,-5,-5,-3,-1
1558441655660767,0,0,-1,-2,-3,2,3,2
1558441655660767,-2,-2,1,2,2,2,-3,-3
1558441655675801,-1,-1,-4,-1,-2,4,-4,-2
1558441655675801,0,-1,0,0,3,0,3,3
1558441655676729,-1,-2,-4,-2,-4,-13,-4,-3
1558441655676729,-2,-1,0,0,-1,-1,-2,-2
1558441655690686,0,-5,-5,-3,0,8,-2,-3
1558441655690686,-2,-2,1,-4,-6,-6,-7,-3
1558441655698664,-1,1,1,1,4,4,2,0
1558441655698664,-1,1,-2,-1,4,-4,3,0
1558441655712758,-2,-2,-3,-2,-6,-9,-3,-3
1558441655712758,1,0,-1,0,6,1,1,0
1558441655721763,1,2,2,0,2,8,0,2
1558441655721763,-3,-3,-4,-3,-3,-4,-5,-2
1558441655736860,-1,-3,2,-1,-5,-12,2,1
1558441655736860,-1,-3,-4,-2,-2,-2,-1,-3
1558441655736860,0,0,0,0,2,7,3,1
1558441655736860,-1,3,0,1,3,2,0,3
1558441655750874,-2,-2,-4,-6,-8,-7,-5,-2
1558441655750874,-1,-1,-2,-2,-2,-5,-2,-2
1558441655758836,-2,-5,-2,-1,-3,-9,-2,0
1558441655758836,0,-1,0,-1,-2,1,0,-2
1558441655773498,0,1,2,0,2,4,-1,-1
1558441655773498,1,2,1,-1,-4,-5,-3,-1
1558441655781675,-11,-10,-5,-2,1,-9,-1,0
1558441655781675,1,-3,1,0,-3,-1,2,0
1558441655796610,-2,2,0,2,4,5,3,1
1558441655796610,-4,-5,-4,-3,-4,-1,-5,-4
1558441655796610,0,3,-1,0,-2,5,-2,-1
1558441655796610,-2,-3,-1,-3,-7,-1,-3,-2
1558441655810370,-2,2,0,0,4,2,3,0
1558441655810370,1,2,2,1,5,8,6,1
1558441655818347,1,0,0,-3,-6,-8,-4,-3
1558441655818347,0,-2,-3,-3,-4,-6,-3,-3
1558441655833382,0,-1,-1,-1,2,-3,0,1
1558441655833382,0,0,1,0,4,0,-1,2
1558441655841292,1,-1,-1,-2,0,3,-1,-1
1558441655841292,0,1,0,-1,0,9,2,0
1558441655854472,-1,-2,-4,-2,-6,-3,-4,-2
1558441655854472,-1,1,3,1,3,-7,3,1
1558441655856752,0,-3,0,-1,0,2,0,-2
1558441655856752,0,-1,-4,-1,-5,-4,-7,-3
1558441655870211,-4,-1,-1,-3,-8,-7,-8,-4
1558441655870211,-1,-3,-2,-1,1,5,-3,-1
1558441655878184,2,1,6,2,3,-5,3,2
1558441655878184,-2,-1,-7,-3,0,3,1,-1
1558441655901123,1,-4,-3,-2,-4,1,-4,-4
1558441655901123,-1,0,-4,-2,-4,-4,-5,-2
1558441655902120,2,1,0,1,5,3,6,2
1558441655902120,0,2,8,2,1,-13,-3,1
1558441655916082,0,-1,-2,0,4,4,3,1
1558441655916082,-2,-4,-6,-6,-8,-8,-2,-2
1558441655916082,2,1,0,1,0,2,2,-1
1558441655916082,0,-1,-1,-2,0,4,3,0
1558441655932040,-1,0,0,0,1,0,1,-1
1558441655932040,-2,-1,0,3,-2,6,2,-1
1558441655938024,1,1,-2,-1,-2,-4,-2,-1
1558441655938024,-5,-3,-4,-5,-5,-6,-6,-4
1558441655953010,-4,-4,-5,-4,-6,-5,-6,-1
1558441655953010,0,0,2,0,2,4,1,0
1558441655960967,0,-2,-5,-3,-6,-7,-3,-1
1558441655960967,1,1,0,0,1,1,0,0
1558441655975961,-1,0,6,3,8,6,6,2
1558441655975961,-4,-3,-8,-4,-4,-1,-3,-3
1558441655976934,-2,-2,-1,-2,-3,1,-4,-3
1558441655976934,0,1,-1,1,6,2,1,1
1558441655990926,0,-3,-1,-2,-2,-6,1,0
1558441655990926,-3,-4,-1,-1,1,1,-3,-1
1558441655999334,0,-1,-2,-1,0,2,-2,-3
1558441655999334,0,0,1,1,-3,-1,-1,-3
1558441656013138,1,3,0,-1,-4,1,1,-2
1558441656013138,3,1,-4,-1,-5,-7,-1,-1
1558441656021072,-13,-7,-2,-2,-3,4,-3,-4
1558441656021072,-1,-2,0,0,2,-3,-1,-1
1558441656035972,0,0,-1,-1,1,-2,2,0
1558441656035972,1,0,1,1,-3,-6,-3,1
1558441656036768,0,2,-4,-4,-2,0,-2,-1
1558441656036768,-3,1,-2,1,2,5,4,-1
1558441656050744,-2,0,2,3,-1,-10,-3,0
1558441656050744,-2,-2,-4,-4,-6,-10,-4,0
1558441656058932,0,-2,-2,-2,-3,-5,-3,-3
1558441656058932,-3,-1,-3,-2,-3,-3,-1,-1
1558441656072671,-2,-4,-8,-6,1,7,0,-1
1558441656072671,0,1,7,1,1,3,3,0
1558441656080644,3,0,-5,0,3,2,2,1
1558441656080644,1,0,2,-1,-4,1,-2,-4
1558441656095606,-1,-2,-3,1,3,4,-2,1
1558441656095606,-1,-1,-1,-2,-4,-6,-3,-1
1558441656096600,-2,-3,0,-1,-5,-6,-2,-2
1558441656096600,0,-1,-3,-1,4,-3,2,0
1558441656110566,-1,2,2,0,0,-4,-2,-2
1558441656110566,-2,0,-2,-2,-1,2,-6,-5
1558441656118542,-2,-1,-2,-3,-4,4,-2,-2
1558441656118542,-1,-1,2,-2,-6,-3,-2,0
1558441656133568,0,-1,1,1,0,-5,2,0
1558441656133568,-1,0,1,1,7,0,5,2
1558441656148946,-2,-3,-2,0,-1,0,-5,-3
1558441656148946,0,-2,-2,-2,2,2,-1,1
1558441656156779,-4,-3,-6,-6,-10,1,-8,-4
1558441656156779,2,0,0,-1,-1,-5,0,0
1558441656156779,-2,-2,-6,0,5,0,2,-1
1558441656156779,-1,-2,-1,-2,-7,0,-3,-3
1558441656170835,-2,-1,0,0,1,6,-2,-2
1558441656170835,-1,-1,0,1,-3,-3,0,0
1558441656177385,2,1,3,1,4,-1,4,2
1558441656177385,-1,-3,0,-1,-2,-4,-2,-1
1558441656192562,1,-1,-4,-2,-7,-10,-4,-2
1558441656192562,-1,1,-4,-2,4,10,1,-1
1558441656201319,-2,0,0,-1,-1,-2,-1,0
1558441656201319,-3,-2,-2,-1,0,-3,1,0
1558441656216617,0,-1,0,0,0,2,1,-1
1558441656216617,2,0,-3,0,-1,4,-3,-2
1558441656216617,-9,-5,0,-2,-3,-1,1,-1
1558441656216617,0,0,1,-2,0,-6,-1,0
1558441656230595,-2,-3,-2,-2,-3,-8,-5,-1
1558441656230595,-1,-1,-1,-1,-2,-3,-2,-4
1558441656238546,3,2,1,-1,0,4,-2,-1
1558441656238546,-1,0,-2,2,10,20,7,3
1558441656253480,0,0,1,-2,-3,-6,-1,0
1558441656253480,-1,-3,-3,-4,-1,-8,1,0
1558441656261307,-1,-3,-2,-3,-8,-10,-5,-3
1558441656261307,-2,-2,1,-2,-1,3,-2,-3
1558441656276133,-2,-1,-9,-4,-5,1,-2,0
1558441656276133,-3,0,2,1,0,2,1,1
1558441656277119,3,-1,-3,2,4,-1,2,1
1558441656277119,-1,1,0,-1,0,2,-1,-1
1558441656290086,0,3,6,2,4,-2,2,0
1558441656290086,-6,-9,-6,-4,-8,-3,-4,-4
1558441656298063,0,-3,-6,0,0,3,-2,-2
1558441656298063,0,0,1,-2,-2,-3,1,-1
1558441656313036,0,0,2,4,1,-1,-3,-2
1558441656313036,0,-4,-4,-4,-1,7,0,-1
1558441656321001,3,2,3,0,1,1,2,2
1558441656321001,2,0,-5,-3,-7,-9,-5,-1
1558441656334962,-9,-8,1,-2,-3,4,1,-4
1558441656334962,1,3,8,3,8,-4,2,5
1558441656342948,-3,0,0,-2,4,0,3,1
1558441656342948,0,-2,-6,-2,-6,-9,-4,-3
1558441656350953,3,2,0,-1,-1,-3,1,1
1558441656350953,-2,-1,-2,1,-5,-2,-6,-3
1558441656358437,-2,-2,4,-1,-1,1,-5,-2
1558441656358437,-2,-3,-6,-2,-5,-1,-3,1
1558441656373337,2,0,4,-1,-7,-10,-5,-1
1558441656373337,0,2,-4,0,6,1,5,0
1558441656381492,-2,2,0,-2,1,3,-1,-1
1558441656381492,-2,-3,-1,-1,2,11,3,-3
1558441656395487,2,1,2,0,1,-7,2,-1
1558441656395487,0,-1,-4,-5,-4,-12,-4,-1
1558441656403453,0,0,1,-1,-4,-5,-4,-3
1558441656403453,-2,-3,-3,-1,-1,3,-1,-4
1558441656410214,0,-1,-4,-4,-5,-1,-4,-5
1558441656410214,0,0,1,3,8,15,4,0
1558441656418292,-2,0,-2,0,0,-13,2,0
1558441656418292,-1,1,3,-1,-4,-8,-2,-1
1558441656433149,-2,-2,-4,-3,-2,4,-2,-2
1558441656433149,-3,-2,-3,-1,-6,-3,-5,-4
1558441656441332,0,3,2,2,3,11,3,2
1558441656441332,-1,-3,-4,-3,4,-3,-3,1
1558441656456306,-1,-2,-3,-1,0,-1,-1,1
1558441656456306,-2,-2,2,-2,-3,0,-1,-1
1558441656464106,-2,0,-1,0,-4,-5,-4,-1
1558441656464106,-3,0,4,1,0,2,-1,-5
1558441656470265,-1,0,-6,-4,1,7,-2,-1
1558441656470265,-2,-4,-2,-2,-4,1,1,1
1558441656478052,3,0,1,-1,-1,-12,-6,-1
1558441656478052,1,1,-1,-2,-1,-3,-1,1
1558441656492987,-1,-1,-1,2,6,9,4,2
1558441656492987,2,2,9,5,3,3,4,-1
1558441656500970,-3,-6,-10,-6,-10,-4,-6,-4
1558441656500970,3,1,1,-1,-4,1,0,-1
1558441656515143,-2,-2,-4,-2,-1,-10,-4,-2
1558441656515143,-2,0,-2,-1,-2,-7,-4,-2
1558441656538882,2,1,-2,-1,-1,4,-1,-1
1558441656538882,-3,-2,2,1,0,-2,1,2
1558441656548048,1,2,-1,-1,2,5,3,1
1558441656548048,0,-2,-2,-2,-2,-5,0,0
1558441656548843,-2,-2,0,-1,0,-2,-1,-2
1558441656548843,1,-1,-2,-1,1,2,-1,0
1558441656553092,-2,-5,-1,-1,-6,1,-4,-1
1558441656553092,-2,0,-2,-1,0,-7,-3,-2
1558441656560806,-3,-1,-1,-3,0,2,1,-2
1558441656560806,-1,-2,1,-1,-5,-3,-5,-2
1558441656575798,2,5,9,2,4,-5,4,1
1558441656575798,-2,-2,-7,-3,-6,3,-3,-4
1558441656584014,-2,-4,-2,-1,1,7,3,1
1558441656584014,2,3,2,3,6,-8,4,3
1558441656607681,-1,-4,-3,0,0,3,-3,-3
1558441656607681,0,-1,1,-2,-8,2,-4,-3
1558441656607681,0,0,0,0,0,-3,0,0
1558441656607681,-1,-2,-6,-1,4,1,3,0
1558441656612890,0,-2,-1,0,-4,-4,-2,-1
1558441656612890,-3,-3,5,2,1,7,2,-1
1558441656621677,2,0,3,0,0,-5,2,3
1558441656621677,0,2,-2,-2,-1,4,1,1
1558441656635608,-8,-7,-6,0,2,-13,1,1
1558441656635608,0,-4,-2,-2,-1,-1,-2,0
1558441656643590,-1,-4,-6,-1,-3,3,-2,-2
1558441656643590,1,1,1,1,-5,-11,-1,-1
1558441656658757,1,0,-3,-4,-1,2,-2,-3
1558441656658757,-2,1,-3,-3,-7,-2,-8,-2
1558441656659547,-2,-2,-1,1,6,10,5,1
1558441656659547,-2,-4,1,-2,-2,-7,-5,-2
1558441656673557,-1,0,-1,1,-2,6,0,-2
1558441656673557,0,-1,-2,1,1,-5,2,0
1558441656680495,-2,3,0,-2,0,3,-2,-2
1558441656680495,-1,-3,1,1,5,1,4,2
1558441656695455,-1,-3,-2,-4,-4,-8,-3,-1
1558441656695455,-1,-3,-1,-5,-6,-3,-5,-2
1558441656711406,-2,-1,-1,1,0,5,-1,-1
1558441656711406,-3,-1,-5,-5,-7,-4,-5,-4
1558441656718384,2,2,4,2,0,3,3,3
1558441656718384,4,2,1,4,11,11,7,2
1558441656719382,0,-2,-7,-6,-3,-14,-7,-2
1558441656719382,-3,-4,-2,-3,-1,-1,-3,-2
1558441656732351,1,1,-1,-1,-5,-1,-3,-3
1558441656732351,-2,-1,-5,-2,-2,4,0,-3
1558441656741322,1,1,3,1,-2,-5,0,-1
1558441656741322,-1,0,1,0,0,-1,-2,-1
1558441656764304,2,1,-3,1,9,11,5,3
1558441656764304,-4,-5,-8,-6,-2,-13,-3,0
1558441656764304,2,0,-3,-2,-5,3,-2,-2
1558441656764304,-7,-4,1,-1,-7,-3,-3,-3
1558441656778225,-1,1,3,2,3,-5,1,2
1558441656778225,-1,1,2,2,-3,-2,-1,0
1558441656779256,-1,-3,-2,-1,-1,-3,-1,-3
1558441656779256,3,3,-2,0,2,2,1,-1
1558441656792208,-2,-2,-1,-3,-4,-3,-2,-2
1558441656792208,-1,-3,-2,1,7,2,0,0
1558441656801197,1,2,6,1,3,-4,-1,0
1558441656801197,1,0,-4,-1,-3,1,-3,-2
1558441656815126,-4,-5,-4,-4,-9,-4,-6,-4
1558441656815126,0,0,4,1,0,-5,0,-1
1558441656823105,0,0,2,1,2,-6,-1,1
1558441656823105,1,-1,-4,-1,-2,-2,-2,0
1558441656838102,0,-1,2,-2,6,16,4,0
1558441656838102,0,0,-6,-3,-4,-6,-2,0
1558441656839061,-2,-1,1,3,2,11,6,2
1558441656839061,-2,-5,-10,-3,0,0,0,-1
1558441656853082,0,0,2,-2,-7,-15,-6,-1
1558441656853082,0,1,-1,-1,-1,3,-2,0
1558441656861003,0,-1,1,-1,-4,3,-3,-2
1558441656861003,1,0,0,1,2,-1,1,0
1558441656874963,0,1,0,0,3,11,4,-3
1558441656874963,-1,1,2,-3,-1,-3,-2,-3
1558441656882942,0,-1,-2,-2,-6,-16,-5,1
1558441656882942,-2,-2,1,0,0,6,1,0
1558441656897961,-3,-3,-5,-5,-2,-8,-5,0
1558441656897961,1,0,3,1,1,-6,4,2
1558441656898903,-2,-4,-4,0,4,6,3,-1
1558441656898903,0,1,1,0,-1,4,0,-1
1558441656912921,-1,-1,-2,-1,-4,0,-1,-2
1558441656912921,-2,-2,-4,-2,-4,-7,-3,-3
1558441656920842,0,2,1,0,1,-5,1,1
1558441656920842,-3,-3,0,-3,0,5,0,-1
1558441656934804,-3,-2,-4,-3,-4,2,-1,-3
1558441656934804,1,0,0,-1,0,1,1,-2
1558441656943782,-2,0,-2,-2,-6,-12,-2,-1
1558441656943782,0,0,0,0,1,-5,1,1
1558441656958741,-2,-3,-2,0,0,0,-1,-2
1558441656958741,-4,-1,1,-2,-8,0,-6,-3
1558441656958741,-3,-1,-4,-3,-1,4,-5,-3
1558441656958741,0,-4,-11,-1,3,-4,-1,2
1558441656972705,1,1,1,1,0,-12,-2,1
1558441656972705,2,0,6,3,5,5,8,2
1558441656980685,-4,-2,0,-1,2,0,-2,-2
1558441656980685,-5,-4,-2,-4,-12,-7,-9,-5
1558441656994655,1,2,1,2,2,2,2,1
1558441656994655,2,-4,-10,-5,1,-7,-3,1
1558441657010602,2,2,0,1,1,5,1,-1
1558441657010602,-10,-9,-2,-6,-7,-4,-2,-2
1558441657018580,1,1,1,3,6,8,6,3
1558441657018580,-2,-3,2,-2,-5,-3,-7,-1
1558441657018580,3,-1,-2,0,0,4,2,0
1558441657018580,2,2,2,-1,-2,-5,-2,-4
1558441657032544,-5,-4,-6,-4,-5,0,-4,-3
1558441657032544,-3,1,-2,-2,-4,3,0,-3
1558441657040556,-2,-4,-2,-2,4,5,3,0
1558441657040556,1,1,2,-1,1,4,1,0
1558441657055520,-2,-1,0,1,6,-10,2,2
1558441657055520,1,1,2,1,5,3,1,0
1558441657063494,-2,-4,0,-2,-9,-6,-6,-4
1558441657063494,0,-1,-4,-1,0,12,-2,-3
1558441657078422,-2,-2,-2,-3,-6,-2,-5,-1
1558441657078422,-1,-2,-1,-2,1,-5,0,3
1558441657079419,-1,-3,0,-1,-7,-9,-4,-1
1558441657079419,-1,0,1,1,-1,1,2,0
1558441657092382,0,0,2,-1,1,-2,-2,-2
1558441657092382,-3,0,1,0,-1,-1,1,1
1558441657100362,-1,-2,-2,0,1,-1,3,-1
1558441657100362,-1,0,-3,-4,-2,-6,-4,-2
1558441657115320,-2,0,-4,-1,-4,4,-2,-3
1558441657115320,2,2,5,4,8,7,5,3
1558441657123299,1,3,4,1,-3,-5,-3,1
1558441657123299,2,1,-9,-2,2,-15,-2,1
1558441657138293,-8,-9,-3,-1,0,5,0,-1
1558441657138293,-2,-3,-6,-6,-8,-7,-3,-3
1558441657139257,-1,-1,-4,-3,-6,-8,-5,-4
1558441657139257,4,4,6,3,2,3,6,3
1558441657152257,2,1,0,-4,-1,-3,-5,0
1558441657152257,0,0,-3,0,-3,6,1,-3
1558441657161198,-3,-2,-1,-3,-3,-1,-1,-2
1558441657161198,-4,-2,2,-2,-1,-3,-5,-1
1558441657175199,0,0,-2,2,4,-6,1,-1
1558441657175199,-1,-3,-1,-1,-2,-2,-5,-4
1558441657183141,-3,-2,-6,-2,0,3,2,-2
1558441657183141,-1,-1,5,0,1,5,5,-1
1558441657198100,-2,-1,1,0,-2,0,-1,0
1558441657198100,-3,-2,-4,-3,-8,-5,-6,-2
1558441657199098,-5,-2,-4,-2,1,2,-1,-1
1558441657199098,1,0,1,0,0,-1,-1,0
1558441657213059,1,3,0,1,4,-10,0,3
1558441657213059,-1,-3,1,-2,-4,-5,-2,-2
1558441657221080,-3,-2,-3,-1,-1,5,-1,0
1558441657221080,1,0,0,-1,-3,-5,-1,0
1558441657235027,3,-1,-3,-2,-3,0,-2,-1
1558441657235027,1,0,-1,-2,-1,5,0,0
1558441657242980,-5,-7,-1,-2,1,2,0,-1
1558441657242980,0,1,0,3,8,2,1,-1
1558441657257939,-2,-2,-3,-4,-6,-7,-2,-3
1558441657257939,0,2,3,1,1,-4,-4,0
1558441657265918,1,2,0,-2,0,5,0,0
1558441657265918,-3,-4,-1,0,-2,-8,-3,-2
1558441657281903,-3,-2,-7,-5,-3,1,0,-2
1558441657281903,-2,0,-5,0,7,-3,2,1
1558441657281903,1,0,1,0,0,-4,1,0
1558441657281903,-2,-3,0,-3,-7,8,-2,-2
1558441657294841,2,-1,0,2,-2,-7,-1,-1
1558441657294841,-2,-2,0,2,4,1,3,2
1558441657303817,0,2,0,-2,-2,-5,-3,-2
1558441657303817,0,-2,-2,1,3,6,0,-2
1558441657317779,-1,-3,-1,-4,-8,-2,-6,-4
1558441657317779,-2,-4,-4,-1,0,6,-1,0
1558441657325758,1,0,-2,-1,1,-2,-1,1
1558441657325758,1,0,3,0,2,-11,0,2
1558441657332743,0,0,2,1,-3,2,-2,0
1558441657332743,1,1,7,2,1,-2,-1,-1
1558441657340719,-2,-2,-8,-4,-3,3,-4,-6
1558441657340719,-5,-3,-3,-5,-12,-4,-7,-3
1558441657354682,2,1,5,3,16,8,10,5
1558441657354682,0,-3,-8,-4,-1,-2,1,-2
1558441657363657,2,-2,0,0,-5,1,-2,-2
1558441657363657,-6,-6,1,0,-3,-12,-3,-1
1558441657377623,-1,-3,-5,-1,4,2,-2,2
1558441657377623,-3,-1,2,-1,-7,-5,-2,-2
1558441657385597,1,2,-1,-2,-3,-8,-4,0
1558441657385597,-1,0,-3,-1,1,15,3,0
1558441657392580,-2,-2,0,-2,-10,-10,-7,-5
1558441657392580,-1,-1,0,1,9,0,5,2
1558441657400559,0,0,3,2,3,-2,4,2
1558441657400559,-1,-1,-6,-2,-4,-5,-4,-2
1558441657415517,1,0,0,0,0,10,1,-1
1558441657415517,-2,-3,-9,-6,-10,-1,-8,-4
1558441657423531,0,2,8,2,1,-3,3,1
1558441657423531,-1,-4,-11,-5,-2,-5,-4,-1
1558441657437500,1,2,4,1,0,4,3,2
1558441657437500,-1,0,-3,-1,1,4,2,-1
1558441657445437,-3,-4,1,-3,-7,-4,-3,-1
1558441657445437,0,2,-1,2,6,7,2,2
1558441657461436,-6,-4,-2,-3,-8,-10,-6,-4
1558441657461436,2,0,3,2,5,3,4,3
1558441657462431,-1,-2,-4,1,-2,1,-3,-3
1558441657462431,-1,-1,-2,-2,-4,1,-1,-2
1558441657475396,-2,-2,-5,-4,-1,-3,-1,-2
1558441657475396,0,1,2,-2,-3,-6,-2,-1
1558441657483363,1,-1,-2,-1,2,0,0,0
1558441657483363,0,-1,2,-1,-3,-8,-2,-1
1558441657497298,0,0,0,2,1,6,3,-1
1558441657497298,1,0,-4,0,0,2,0,-2
1558441657506277,-12,-10,-5,-3,-7,-7,-4,-2
1558441657506277,2,1,0,2,7,9,4,2
1558441657521282,0,-1,-1,0,-6,-12,-7,-2
1558441657521282,-2,-3,-4,-2,6,4,-1,-2
1558441657522234,2,2,1,-1,1,1,-2,0
1558441657522234,-1,0,1,0,7,8,5,2
1558441657535200,-1,0,-3,-2,1,0,0,3
1558441657535200,-3,-1,-1,-4,-14,-22,-8,-2
1558441657543178,0,1,-2,0,4,8,2,1
1558441657543178,-1,0,1,-1,1,-2,-1,-1
1558441657557140,2,0,-1,0,1,2,-2,-2
1558441657557140,-1,-3,-2,-3,-1,-1,0,-2
1558441657566120,0,-1,-2,0,-1,-3,-3,-2
1558441657566120,-2,-1,1,-2,-5,-8,-3,-1
1558441657581077,0,-1,-3,1,0,-2,2,0
1558441657581077,-4,-6,-6,-4,-7,-2,-5,-2
1558441657588056,0,-2,1,-1,0,-2,-1,-2
1558441657588056,-1,-1,-2,0,0,1,1,-1
1558441657595040,-2,-1,3,-1,4,4,2,0
1558441657595040,0,0,3,2,-4,-2,-2,-1
1558441657604013,0,-1,-13,-6,-2,0,2,-1
1558441657604013,-2,-3,1,0,-7,-2,-3,-5
1558441657617980,0,2,-2,-2,2,3,-2,-1
1558441657617980,-2,-1,3,0,1,-6,0,0
1558441657626969,1,0,2,0,-1,-6,-4,-1
1558441657626969,0,0,-2,0,0,5,0,0
1558441657639925,-1,-4,-5,-5,-3,-1,-2,-2
1558441657639925,0,3,1,3,9,10,6,1
1558441657656880,-1,0,3,2,4,2,1,-1
1558441657656880,-2,-1,-4,-3,-4,-5,-4,0
1558441657657875,-1,-1,-1,-2,-4,0,-4,-2
1558441657657875,-1,-2,0,-1,-4,-2,-1,1
1558441657663865,1,-3,0,-2,-2,-5,-1,1
1558441657663865,-1,-1,-1,-3,-5,-5,-3,-1
1558441657677817,1,0,-2,0,2,1,-2,-1
1558441657677817,-2,-4,-3,0,-3,5,0,-4
1558441657686793,-1,0,1,-1,-3,-4,-3,0
1558441657686793,2,2,1,0,1,-1,-1,-2
1558441657708734,1,-2,-3,-1,-2,-3,1,-2
1558441657708734,-2,-1,-1,-2,0,-3,-4,-1
1558441657710739,0,-2,0,-1,-4,-1,-1,-2
1558441657710739,-1,-2,1,0,-2,0,1,1
1558441657714755,-2,0,-3,-1,1,-3,0,2
1558441657714755,-1,-1,-1,-2,2,-3,-2,0
1558441657723696,-2,-1,-2,-1,0,1,-1,0
1558441657723696,2,1,6,1,-1,-2,-3,-1
1558441657737657,0,-1,-8,-2,-3,-2,1,-1
1558441657737657,-1,0,-1,-1,1,6,0,-1
1558441657746633,-2,-3,-6,-5,-7,0,-3,-4
1558441657746633,-1,-3,-8,-1,0,3,1,-1
1558441657760596,0,1,6,1,4,-4,6,1
1558441657760596,0,-1,2,1,-1,-4,-3,0
1558441657768574,-4,-1,-1,1,3,2,-1,-1
1558441657768574,-3,-2,-2,-3,-2,-6,-3,-2
1558441657775560,-4,-2,0,-1,-5,4,-5,-3
1558441657775560,-1,0,3,0,-1,-3,1,1
1558441657783540,0,-2,-5,-2,-1,2,1,-1
1558441657783540,1,-2,-4,-2,-2,-5,-3,0
1558441657797497,-3,-3,-2,-2,-1,-4,-1,-1
1558441657797497,-2,0,-5,-3,-4,-4,-4,-4
1558441657806474,1,1,5,3,0,2,0,-1
1558441657806474,0,1,-3,1,3,5,4,0
1558441657820434,0,-1,-6,-3,4,4,1,1
1558441657820434,0,-3,-5,-3,-6,-1,-1,-2
1558441657829411,1,3,-1,0,1,-3,-5,-1
1558441657829411,-3,-3,1,0,-4,-9,1,-1
1558441657835398,-1,0,5,0,-6,-8,-5,0
1558441657835398,0,-2,-3,-1,3,11,1,1
1558441657844378,2,1,0,2,6,1,5,3
1558441657844378,2,0,3,0,2,-5,0,-2
1558441657857336,0,0,-2,-1,2,4,3,-1
1558441657857336,-4,-2,-1,-2,-2,-1,-5,-4
1558441657866318,-2,-4,-3,-3,-6,-1,0,-1
1558441657866318,-5,-4,-1,-1,1,-2,-2,-1
1558441657880276,-2,-2,0,-1,-4,-5,-2,-3
1558441657880276,1,0,-4,-1,-2,-2,-2,-1
1558441657889251,0,-2,-3,0,0,-1,-3,-1
1558441657889251,-1,-4,-2,-2,-1,2,-1,0
1558441657895236,-1,-2,0,-1,-2,-1,0,-1
1558441657895236,-2,-1,-1,0,1,1,0,-1
1558441657904211,-1,1,2,2,-2,-1,1,0
1558441657904211,1,0,-1,-1,0,-4,-2,-1
1558441657917177,-1,-2,-3,-1,0,0,-2,0
1558441657917177,3,-1,1,0,-1,3,1,0
1558441657926154,-3,-3,-4,-4,4,6,2,0
1558441657926154,0,2,3,0,5,0,1,2
1558441657940115,-2,-1,-5,-1,-2,-6,-3,-1
1558441657940115,-1,-1,1,0,-2,-2,-2,-2
1558441657949092,-1,0,0,0,-4,-10,-6,-2
1558441657949092,-1,2,1,0,0,9,3,1
1558441657955076,2,2,8,0,0,3,2,-1
1558441657955076,-3,-3,-5,-1,0,-4,-3,-1
1558441657964051,0,0,5,0,-6,-1,-1,-2
1558441657964051,-1,-1,-10,-3,5,-1,1,-1
1558441657978018,-3,-5,-2,-3,-7,-3,-5,-5
1558441657978018,2,0,-2,-1,-1,0,-1,1
1558441657986996,-1,-1,-1,1,3,-5,-2,0
1558441657986996,-3,-1,-2,-1,-3,1,-3,-3
1558441657999956,0,2,1,0,-1,1,-1,2
1558441657999956,-1,-4,0,-1,1,-1,-2,-3
1558441658008931,-3,-5,-4,-5,-6,0,-3,-2
1558441658008931,0,0,0,-1,-3,-5,-3,-1
1558441658014916,-2,-2,-4,-3,-1,-4,-2,-2
1558441658014916,-3,-5,-5,-2,-7,-5,-4,-3
1558441658023891,0,3,3,5,17,18,12,5
1558441658023891,-1,-1,2,0,-4,-4,-1,1
1558441658037861,-4,-3,-1,-2,1,0,-3,-4
1558441658037861,0,0,2,-3,-5,-9,2,-1
1558441658046829,-2,-3,-3,-3,-8,-8,-4,-5
1558441658046829,1,-2,-1,-1,0,-3,2,1
1558441658059799,0,0,1,0,-2,-11,-3,0
1558441658059799,1,1,7,3,3,-1,0,3
1558441658068772,-4,-8,-17,-6,-6,1,-4,-4
1558441658068772,-1,-2,-1,-1,1,9,-2,-2
1558441658074755,0,-3,-3,-1,2,8,2,2
1558441658074755,-2,0,-1,0,-2,-5,-2,-4
1558441658083731,-1,1,0,1,-2,-3,-1,-1
1558441658083731,-1,-1,5,0,1,-3,-2,0
1558441658097694,-1,-2,-1,1,3,-1,0,-2
1558441658097694,-1,-3,-2,-2,2,1,2,-1
1558441658106670,-2,-2,-1,-2,-6,-7,-5,-2
1558441658106670,-1,-2,-2,-2,-4,-7,-3,-1
1558441658120633,-1,1,5,1,0,2,-2,-1
1558441658120633,-2,0,0,-2,-1,0,-2,0
1558441658128611,1,0,-1,1,5,8,3,1
1558441658128611,-3,-1,0,2,-1,-8,-4,-3
1558441658135592,1,0,1,1,2,4,1,-1
1558441658135592,0,-2,-3,-4,0,3,2,0
1558441658143577,0,0,-3,-3,-6,-6,-4,-1
1558441658143577,-1,-2,-2,-2,-5,-1,-2,-2
1558441658157534,0,0,-1,-2,-8,-11,-4,-2
1558441658157534,-2,0,-1,1,2,5,-2,1
1558441658166509,1,-1,-2,-4,0,-7,1,0
1558441658166509,-3,-3,-1,-3,-1,7,0,-2
1558441658180474,-2,-2,2,0,2,1,-1,-1
1558441658180474,1,2,-1,0,0,-6,2,0
1558441658197427,-3,-3,-5,0,1,0,0,0
1558441658197427,-4,-1,-5,-1,-2,-4,-3,-3
1558441658197427,0,-4,-5,-3,-4,2,-3,-1
1558441658197427,1,0,3,3,3,1,3,0
1558441658204407,1,-2,4,0,-3,-7,-3,0
1558441658204407,-2,-5,-4,-2,-1,1,-2,0
1558441658217373,0,1,1,-1,3,6,3,1
1558441658217373,0,-1,-1,-1,-2,-3,-4,-1
1558441658226353,-1,-1,0,-2,2,-6,-3,-2
1558441658226353,2,1,-1,-1,-6,-10,-4,-3
1558441658240314,-3,-2,-3,-4,-4,1,0,-1
1558441658240314,-2,0,-3,-1,2,0,0,-1
1558441658249289,-1,-1,2,-1,-2,2,-2,-2
1558441658249289,1,1,1,1,2,5,2,2
1558441658255273,-3,-2,-3,0,0,-7,-3,-2
1558441658255273,-2,-2,-3,-5,-7,-2,-6,-5
1558441658264248,-3,-4,-1,0,-3,2,-2,-2
1558441658264248,2,-1,3,1,8,-3,6,3
1558441658277217,0,0,-4,-2,-1,-9,-1,-1
1558441658277217,-1,-1,-3,-1,-5,-2,-4,-3
1558441658286189,-1,-1,-1,1,6,7,3,1
1558441658286189,3,1,-3,-2,-1,7,-1,-1
1558441658300157,-5,-4,-2,-1,-4,1,-1,-1
1558441658300157,-2,-1,-1,-2,-2,-2,-2,-2
1558441658309130,1,1,2,0,1,5,-1,-2
1558441658309130,-1,-1,0,0,5,3,3,0
1558441658315112,1,1,0,0,-1,-5,0,1
1558441658315112,-2,-4,-5,-3,-5,-7,-4,0
1558441658324088,-2,-1,2,-2,-5,-7,-3,-2
1558441658324088,1,0,1,-2,0,0,-2,-3
1558441658338050,-2,-4,0,-2,-4,-1,-3,0
1558441658338050,0,0,-1,1,2,-2,2,1
1558441658346030,0,0,-4,-2,2,1,-2,-2
1558441658346030,-3,0,-2,-1,-5,0,-1,-2
1558441658368974,-1,-1,-1,-1,-2,-2,0,-3
1558441658368974,-4,-4,-2,0,2,7,3,0
1558441658369969,-2,0,-1,-2,0,2,2,0
1558441658369969,-3,-3,-6,-3,-6,-5,-5,-1
1558441658383928,0,-1,-2,-2,-1,-4,-3,-1
1558441658383928,1,1,1,-2,-3,-9,-3,-1
1558441658384927,0,0,0,0,-1,3,1,0
1558441658384927,-2,-2,-2,0,-1,1,-3,-2
1558441658397891,2,-1,0,0,-1,4,2,-1
1558441658397891,1,0,1,0,2,1,0,0
1558441658406867,-1,0,0,1,0,-7,1,1
1558441658406867,-2,-1,-3,-3,-5,-3,-1,-3
1558441658419841,-1,1,-3,-2,0,2,-2,-1
1558441658419841,-1,-1,-1,-1,2,7,3,-1
1558441658428807,0,-1,-1,-1,-2,-1,-2,-2
1558441658428807,-2,-2,-3,-4,-4,-4,0,0
1558441658443769,1,0,1,-1,1,-4,1,1
1558441658443769,0,-2,1,0,-2,-9,-5,-3
1558441658445762,-2,-3,-6,-3,-5,-2,-9,-4
1558441658445762,-1,-1,1,1,0,6,1,-1
1558441658457730,-1,-1,-4,0,1,0,2,1
1558441658457730,-2,-1,-1,-2,-3,3,-1,-1
1558441658466707,-1,0,0,0,3,1,3,2
1558441658466707,1,1,1,-1,2,0,0,1
1558441658480670,0,0,-1,-1,0,-1,-4,0
1558441658480670,2,3,-2,-1,-2,-4,1,0
1558441658488648,-11,-10,-6,-3,-8,-8,-4,-7
1558441658488648,-2,-2,0,-1,-3,0,-2,-2
1558441658503612,-3,-2,1,0,1,1,-1,-1
1558441658503612,0,-1,1,-3,-1,-2,-1,-1
1558441658505608,3,1,0,-2,-4,1,0,-3
1558441658505608,-1,-2,0,1,8,2,2,1
1558441658517572,1,0,1,1,3,-10,-2,0
1558441658517572,1,0,-3,-2,3,6,4,2
1558441658526548,0,3,2,0,-4,-7,2,2
1558441658526548,0,0,-1,-1,0,-2,-2,-2
1558441658540510,-1,-1,0,-1,-2,2,0,-4
1558441658540510,-3,-3,0,-1,1,1,-1,0
1558441658549485,-1,-3,-3,-2,1,5,1,0
1558441658549485,-3,-1,-1,-2,-6,-5,-4,-2
1558441658564445,0,0,2,0,4,0,2,2
1558441658564445,-3,-1,0,1,0,2,1,-2
1558441658565443,1,-3,-1,-3,1,-4,-2,-1
1558441658565443,2,0,-2,-2,-5,-4,0,0
1558441658577412,-1,-2,-4,-2,-5,1,-2,-1
1558441658577412,0,-2,0,1,0,6,4,0
1558441658586387,0,2,2,2,2,-10,0,-1
1558441658586387,-3,-1,-1,-2,-3,2,-5,-6
1558441658600350,0,-1,-3,-2,0,2,-2,-3
1558441658600350,0,0,1,-1,1,7,4,3
1558441658609326,0,2,3,1,2,-5,-1,3
1558441658609326,-2,-5,-10,-3,-5,-2,-3,-3
1558441658624285,0,1,1,-2,1,-2,-2,-2
1558441658624285,2,0,-3,-2,-2,-4,-4,-2
1558441658625287,-6,-7,-1,1,-1,2,2,-1
1558441658625287,-1,2,2,-1,-3,-6,0,0
1558441658637252,-3,0,1,1,-3,3,-1,-1
1558441658637252,1,-2,-6,-4,-4,-2,-5,0
1558441658646229,1,1,-1,-2,1,0,-3,-1
1558441658646229,-1,0,4,1,-1,-3,-2,2
1558441658660195,-1,-3,-6,-2,-2,3,2,-2
1558441658660195,0,-1,2,2,1,-5,-1,-1
1558441658669166,0,-2,-3,-2,3,2,2,0
1558441658669166,0,-3,-3,-2,-3,-1,-1,-1
1558441658684131,1,1,1,-2,-3,-3,0,0
1558441658684131,-4,-2,0,-2,-3,-9,-5,-3
1558441658685123,0,-3,-3,-1,-1,-1,-1,1
1558441658685123,0,2,2,1,4,4,4,2
1558441658697092,0,-2,-1,0,2,-2,0,-1
1558441658697092,-3,-2,-2,-1,-1,4,-1,-1
1558441658706067,0,1,0,-2,-7,-4,-7,-3
1558441658706067,-1,-1,-3,-3,-2,-10,-3,0
1558441658720029,-2,-3,-3,0,0,6,0,-2
1558441658720029,-2,-1,-1,0,2,6,1,-2
1558441658729005,-3,-2,-1,-3,-2,-3,-2,0
1558441658729005,2,-2,-1,-1,-1,-3,2,0
1558441658743968,-4,2,1,-1,3,5,1,0
1558441658743968,-1,-2,-4,-3,-4,-7,-4,-3
1558441658744963,1,1,1,0,5,8,1,0
1558441658744963,-3,-1,-2,-4,-9,-3,-5,-5
1558441658757927,3,0,0,-2,-1,-8,-1,1
1558441658757927,-1,0,1,1,1,-3,0,0
1558441658766903,0,0,3,0,-1,2,0,-2
1558441658766903,1,-2,-8,-4,-2,-2,0,-1
1558441658779870,-2,-2,1,-2,-1,2,-1,0
1558441658779870,-2,-3,-1,-2,-7,-6,-3,-2
1558441658788845,1,1,1,1,-3,-5,-1,-2
1558441658788845,1,0,4,2,2,6,3,-1
1558441658811788,-6,-5,-5,-4,-5,-2,-3,-2
1558441658811788,-1,-3,-1,0,1,1,0,-1
1558441658812794,-1,1,1,0,-2,2,-2,-2
1558441658812794,-1,-1,3,-2,-2,-1,-3,-2
1558441658817768,-1,-2,-5,-3,-5,-6,-1,-2
1558441658817768,0,-1,-1,-1,3,4,2,1
1558441658826747,-2,0,-3,-2,0,-2,3,1
1558441658826747,-4,-2,-3,1,0,0,-2,0
1558441658839731,-2,0,0,1,-3,5,-2,-1
1558441658839731,2,0,1,-1,2,-19,-2,0
1558441658848684,3,2,1,0,-4,-3,-3,-3
1558441658848684,-13,-7,-3,0,5,11,5,-1
1558441658863895,-1,-6,-2,-4,-2,-3,-7,-4
1558441658863895,-1,0,-3,-1,-4,4,0,-1
1558441658865639,-1,-1,-2,-1,-1,-3,-1,0
1558441658865639,3,3,2,-1,0,-3,-2,-2
1558441658877628,-1,1,2,1,1,2,2,0
1558441658877628,-3,-4,1,-3,-2,2,0,-1
1558441658886589,-3,-6,-7,-2,-3,-3,-2,-3
1558441658886589,2,1,1,0,-1,4,0,-1
1558441658900550,-3,-1,-3,0,-4,0,-3,1
1558441658900550,0,1,0,-2,1,2,0,-1
1558441658909526,-1,0,0,1,-2,-3,-3,-2
1558441658909526,-2,-1,-2,-1,0,-5,0,0
1558441658924483,3,2,3,1,6,1,4,2
1558441658924483,-1,-3,-2,-2,-2,-4,-4,-2
1558441658925481,-4,-4,-3,-5,-7,4,-4,-5
1558441658925481,0,1,10,3,4,5,2,1
1558441658937456,-2,-3,-12,-5,0,-18,-3,0
1558441658937456,0,1,1,2,4,15,1,0
1558441658946423,-3,-3,-3,-2,-2,1,-2,0
1558441658946423,0,-5,-8,-7,-11,-11,-11,-7
1558441658960388,3,2,4,2,3,16,10,3
1558441658960388,3,2,-3,0,-1,-4,0,0
1558441658969367,-8,-8,-2,0,2,2,1,1
1558441658969367,0,2,4,1,0,3,1,0
1558441658984322,-2,-1,2,-1,-11,-9,-10,-5
1558441658984322,-2,-3,-6,-4,-3,-11,-3,-1
1558441658985319,2,2,3,2,0,-6,0,3
1558441658985319,1,2,-4,1,4,7,1,1
1558441658997287,-2,-3,-4,-5,2,0,0,-2
1558441658997287,-4,-2,3,1,-4,-4,-3,-1
1558441659006264,3,0,-2,-2,-2,-2,0,-2
1558441659006264,0,-1,-6,-2,1,4,3,-1
1558441659020226,-1,-2,1,0,-5,-12,-10,-4
1558441659020226,-2,-1,-9,-4,-7,0,-4,-2
1558441659029203,0,2,6,3,5,8,4,1
1558441659029203,-1,-1,-3,0,6,10,3,0
