timestamp,emg1,emg2,emg3,emg4,emg5,emg6,emg7,emg8
1558441669012196,-3,-1,-4,-3,-8,-15,-1,-3
1558441669012196,0,-1,2,1,2,0,2,-2
1558441669012196,-1,-1,-5,-5,-7,-8,-3,-4
1558441669012196,2,1,-3,-2,-2,4,-3,-1
1558441669013192,-9,-4,0,0,-2,-5,-1,-1
1558441669013192,-2,-2,0,-2,-6,1,0,0
1558441669014190,0,2,0,1,0,-2,-4,-1
1558441669014190,-3,-5,2,1,2,-2,6,0
1558441669025161,1,0,0,2,6,12,3,0
1558441669025161,-3,0,-2,-2,0,7,-1,0
1558441669033140,-2,-1,-1,-3,-6,-13,-4,-4
1558441669033140,0,0,-2,-4,-7,-1,-6,-2
1558441669041117,1,-2,2,3,5,4,1,2
1558441669041117,1,-2,-1,0,5,6,1,-1
1558441669055080,-2,-2,1,-2,-4,5,-2,-2
1558441669055080,-4,-3,-7,-4,-1,-11,-3,-1
1558441669066051,3,2,-4,1,2,5,5,1
1558441669066051,0,3,-3,0,-3,-13,-3,-1
1558441669070040,0,-1,1,1,3,15,2,1
1558441669070040,-2,1,1,-1,-3,7,0,0
1558441669088989,-1,0,4,-1,-1,-13,-3,0
1558441669088989,-3,-4,-5,-6,-8,-10,-9,-4
1558441669091992,0,0,-2,-2,0,2,-3,0
1558441669091992,2,-2,1,2,-5,-2,-3,0
1558441669130877,5,3,2,0,0,-19,-1,0
1558441669130877,-9,-8,0,-2,-5,-8,-5,-3
1558441669138856,-1,-4,-4,-1,1,9,3,2
1558441669138856,-1,-2,-4,-3,-6,-8,-6,-2
1558441669139853,-3,-2,-2,-1,0,0,-4,2
1558441669139853,5,4,-1,4,11,12,9,3
1558441669141850,-1,2,3,-1,-1,-8,1,-1
1558441669141850,-6,-6,-6,-6,-5,-9,-4,-5
1558441669151821,-1,-4,-7,-3,-4,5,1,-4
1558441669151821,1,1,-1,-1,-2,-2,-5,-3
1558441669160799,-1,-1,2,2,7,13,7,1
1558441669160799,3,0,2,3,8,-1,2,2
1558441669166781,-1,-1,0,-1,-4,-1,-5,-3
1558441669166781,-4,-2,-5,-4,-7,-5,-6,-2
1558441669183737,0,0,1,-1,-2,1,-3,-3
1558441669183737,1,2,0,-2,-7,-10,-4,0
1558441669198697,3,0,3,2,7,10,10,6
1558441669198697,-2,-2,-2,-4,-4,-3,-4,-2
1558441669199694,-1,1,-2,0,2,-1,-1,0
1558441669199694,-4,0,3,1,0,-1,-3,1
1558441669212658,-3,2,3,0,-4,0,-5,-1
1558441669212658,2,1,-4,-2,1,-4,0,2
1558441669221635,2,-2,-2,-6,-11,-14,-4,-2
1558441669221635,-4,-6,-3,-3,-3,2,-1,-1
1558441669227620,-3,-2,-1,-5,-4,-7,1,-2
1558441669227620,0,1,4,3,7,7,2,0
1558441669243576,1,-3,-1,-1,-2,-6,-7,-3
1558441669243576,0,0,-1,-1,3,6,4,-1
1558441669249561,-3,-1,-2,0,-1,-9,0,-1
1558441669249561,1,-1,1,0,0,7,4,-1
1558441669258536,-1,-2,-3,-2,-4,-2,-5,-3
1558441669258536,0,-2,-4,-2,-3,-2,-6,-4
1558441669272499,-1,-1,1,-1,-4,-3,0,-1
1558441669272499,0,0,3,0,2,3,1,-2
1558441669281476,0,-1,5,5,2,2,0,1
1558441669281476,0,0,-7,-3,-4,0,9,2
1558441669287459,-2,0,-2,-1,0,5,-4,-3
1558441669287459,-1,-1,-3,-2,-11,-19,-7,-3
1558441669304413,1,1,-2,-2,3,-1,4,1
1558441669304413,-2,0,6,4,7,7,-2,0
1558441669309400,1,0,-2,-3,-2,2,0,0
1558441669309400,-1,-5,-4,-1,-5,1,-2,-3
1558441669318376,-1,2,3,0,-5,-4,-3,-1
1558441669318376,-1,0,-5,1,0,-5,-6,-3
1558441669332339,-2,-2,-3,-2,-3,1,0,-3
1558441669332339,1,-2,-2,-2,2,6,1,0
1558441669341316,-4,-5,-4,-2,-3,-2,-2,-2
1558441669341316,2,2,5,0,0,-9,-4,-2
1558441669347299,-2,-2,1,-1,-3,0,-2,-1
1558441669347299,0,3,2,1,-5,-5,-3,-1
1558441669363256,-5,-6,-9,-7,-3,1,-1,-3
1558441669363256,-1,-2,0,0,3,4,5,1
1558441669369240,1,-4,-1,2,3,4,-8,-4
1558441669369240,-1,-2,-2,-4,-5,0,-2,-2
1558441669378218,-2,0,0,-1,-8,-9,-11,1
1558441669378218,1,0,1,-3,3,-2,1,1
1558441669392186,-2,-2,-3,1,1,-6,1,0
1558441669392186,-1,-1,0,-2,1,2,0,0
1558441669401155,0,1,0,-1,-3,-13,-4,0
1558441669401155,0,1,-1,-3,-6,9,1,-1
1558441669407138,2,5,8,3,6,-4,5,5
1558441669407138,-6,-8,-8,-4,-2,2,-4,-6
1558441669424094,0,0,-1,-2,1,-1,1,-1
1558441669424094,-3,-5,-8,-3,-5,-2,-8,-3
1558441669430078,-2,-3,-3,-4,-9,5,-5,-4
1558441669430078,0,1,-1,2,5,2,1,3
1558441669446035,0,-2,0,0,-2,-13,1,0
1558441669446035,1,0,4,5,5,5,3,2
1558441669452018,-1,-1,-3,-3,-5,0,-5,-5
1558441669452018,-1,-1,0,-3,-6,-7,-3,-1
1558441669460996,0,0,-4,0,3,10,5,-2
1558441669460996,-1,1,5,0,-6,-7,-3,-2
1558441669474958,-2,-7,-13,-5,-3,-2,-6,-1
1558441669474958,0,-1,1,0,1,-5,5,2
1558441669483933,-2,-5,-3,-1,8,13,9,-1
1558441669483933,-3,-2,2,2,4,-3,1,-2
1558441669489917,1,3,1,-1,0,-2,-2,0
1558441669489917,1,-1,2,-1,-3,0,-7,-1
1558441669498893,-3,-1,-2,-1,-1,-3,-5,1
1558441669498893,-3,-3,-3,-2,-7,-4,-1,-3
1558441669511858,1,-1,2,0,2,3,3,0
1558441669511858,0,0,1,0,5,-1,-2,-2
1558441669520835,1,1,2,-1,-2,0,-1,2
1558441669520835,-2,-2,-3,-4,-3,-6,-7,-2
1558441669526820,-2,-3,-1,-1,4,10,4,0
1558441669526820,-1,-1,-1,0,-3,-12,-1,1
1558441669543773,3,2,4,0,-4,-4,-2,2
1558441669543773,4,2,0,-1,-1,3,6,4
1558441669549756,-7,-6,0,2,3,-4,4,2
1558441669549756,0,-2,-2,-1,-3,7,-1,-1
1558441669558734,-2,-2,-2,-3,-3,-5,-3,-2
1558441669558734,2,-1,-2,2,3,6,-2,-1
1558441669572696,2,1,1,-1,2,5,-1,-2
1558441669572696,0,-1,1,-1,2,0,-5,0
1558441669580675,0,3,6,4,4,1,15,5
1558441669580675,2,-2,2,-2,1,1,1,-2
1558441669587656,-3,-3,-2,-1,2,5,1,-3
1558441669587656,-3,-3,-5,-8,-14,-9,-8,-4
1558441669603613,0,1,-6,-4,1,-9,-5,-3
1558441669603613,0,1,-1,-1,3,4,0,1
1558441669609596,0,4,1,-1,-9,-11,-6,0
1558441669609596,-2,-2,-2,1,1,2,-1,-1
1558441669624558,0,-3,-2,0,1,9,-1,0
1558441669624558,-2,-1,1,-1,-4,-3,1,0
1558441669641512,0,1,-1,-1,2,9,4,0
1558441669641512,1,-2,0,1,4,-5,2,-1
1558441669642510,-2,-4,-4,-3,-6,0,-9,-7
1558441669642510,-3,-5,-3,-3,-3,2,-5,-4
1558441669647496,0,1,-1,-5,-3,-5,-4,-2
1558441669647496,3,3,2,1,6,-3,10,2
1558441669663454,-1,-3,0,-3,-4,2,2,-1
1558441669663454,-2,-3,-3,-2,-5,1,-7,-1
1558441669669438,0,-2,-5,-3,-9,-14,-3,-3
1558441669669438,-2,0,3,0,3,-1,4,3
1558441669684398,-2,-1,-2,0,3,3,-5,-4
1558441669684398,-2,0,-2,-2,-6,-12,-3,-2
1558441669692377,1,2,2,2,6,-1,6,3
1558441669692377,-1,-1,0,-2,-7,0,-3,-4
1558441669701353,0,-3,-4,-2,-7,-13,-6,-1
1558441669701353,-1,-2,-3,-4,-1,3,-3,-2
1558441669707336,0,0,3,4,8,10,0,0
1558441669707336,-2,-1,-8,-4,-6,2,-1,-1
1558441669723293,1,0,2,5,16,0,3,2
1558441669723293,-1,-1,1,-1,-4,-5,0,1
1558441669729276,-1,-2,-3,-3,-3,-3,-6,-2
1558441669729276,-2,-3,-2,-4,-9,-6,-8,-5
1558441669753213,1,3,4,-1,2,9,4,2
1558441669753213,-1,0,0,0,-1,3,-5,-2
1558441669753213,-2,0,-4,1,4,-5,7,0
1558441669753213,2,1,3,1,1,-12,0,2
1558441669761192,-2,-2,-6,-3,-4,6,-3,-2
1558441669761192,1,-1,0,0,0,1,-1,-4
1558441669767176,-2,-1,0,-4,-12,-8,-9,-4
1558441669767176,-2,-1,-2,0,5,-2,-2,-1
1558441669783133,-3,-3,0,-3,-1,1,-2,-3
1558441669783133,-3,-3,-1,3,3,9,6,0
1558441669790116,1,-2,-3,-2,-6,-12,-2,-4
1558441669790116,-2,-3,-3,-3,-5,-7,-4,-3
1558441669805074,1,0,-3,-2,-10,-8,-5,-3
1558441669805074,-3,0,-1,0,8,4,2,1
1558441669812056,-1,1,4,-1,-3,-5,-3,2
1558441669812056,-2,-5,-11,-3,3,0,0,-1
1558441669821031,-2,1,1,-1,0,-4,0,2
1558441669821031,-1,-4,-8,-5,-7,-2,-6,-3
1558441669827015,1,-1,-2,1,-3,3,1,-1
1558441669827015,0,2,6,2,3,-5,1,3
1558441669843971,-3,0,-1,0,0,7,5,0
1558441669843971,1,5,2,0,6,-1,6,3
1558441669849954,-5,-3,-2,-2,2,14,-1,-1
1558441669849954,-4,-2,-4,-3,-9,6,-1,-5
1558441669864914,-1,-2,-5,-4,-6,-10,-5,-4
1558441669864914,1,-1,1,-5,-5,-2,1,1
1558441669871896,0,-2,-3,-2,-6,-9,-5,-2
1558441669871896,1,2,3,0,3,8,4,3
1558441669880872,-2,-2,0,-2,1,-4,-2,1
1558441669880872,0,-1,-1,-1,-5,-5,0,-2
1558441669886854,0,-2,-2,-2,1,-2,-2,-1
1558441669886854,2,0,4,2,-1,-1,-1,-1
1558441669903811,-2,-4,-6,-3,-2,4,-7,-4
1558441669903811,0,-2,-2,-2,-4,-6,-1,-2
1558441669917772,0,2,3,0,0,-7,5,3
1558441669917772,-1,2,-2,0,4,2,1,1
1558441669924756,-5,-3,1,0,0,9,1,-4
1558441669924756,-3,-2,-4,-1,-3,-4,-3,-3
1558441669931738,2,1,2,0,13,-1,3,2
1558441669931738,0,0,1,1,-8,-13,-3,0
1558441669940724,1,0,0,0,0,-3,-1,1
1558441669940724,-3,-2,-1,0,-3,2,-4,-3
1558441669954679,-3,-2,-7,-2,-2,8,0,-3
1558441669954679,-1,-4,0,2,9,6,3,-1
1558441669978616,-3,-3,-3,-3,-2,-14,-1,-3
1558441669978616,0,1,3,0,3,2,3,0
1558441669979622,1,1,0,0,3,2,3,1
1558441669979622,-5,-2,-2,-2,-5,0,-6,-5
1558441669984600,2,1,1,-1,-1,11,2,1
1558441669984600,-2,-2,1,2,7,-3,2,-1
1558441669992576,-3,0,-1,-2,-7,-5,-5,-2
1558441669992576,0,0,-3,0,0,4,-4,0
1558441670001550,-2,-3,0,-3,-1,-13,-1,2
1558441670001550,1,-3,-1,-2,-2,-1,-5,-3
1558441670015512,0,-2,-4,-4,-8,-10,-9,-1
1558441670015512,2,2,5,3,7,8,7,1
1558441670031499,-1,1,-4,0,-2,7,1,-3
1558441670031499,-2,-2,-4,-3,-1,-2,3,0
1558441670032468,0,-3,0,-1,-5,-3,-3,-2
1558441670032468,-1,4,3,-1,0,9,-3,-2
1558441670044434,-3,-6,-4,-3,-5,-5,-5,-2
1558441670044434,0,1,-1,-1,6,-1,1,2
1558441670052728,0,-1,-1,0,2,0,-1,-1
1558441670052728,-5,-3,-1,-3,-11,-11,-5,-3
1558441670061390,3,1,4,1,-1,10,0,-2
1558441670061390,-2,0,2,-4,-4,0,-1,-2
1558441670074355,-2,-3,-2,-1,-2,7,5,-1
1558441670074355,2,1,-3,-3,-1,-7,-6,-1
1558441670083330,2,5,5,2,5,-16,0,1
1558441670083330,1,-3,-1,-2,-8,-9,-8,-1
1558441670089314,-1,-3,-4,-2,-1,6,-1,-3
1558441670089314,0,-4,-2,-1,-2,3,1,-1
1558441670104274,0,0,-2,0,1,9,1,0
1558441670104274,0,6,3,1,3,0,1,2
1558441670112252,-5,-6,-5,0,-3,-12,-2,-2
1558441670112252,-5,-1,-4,-1,3,8,1,-1
1558441670127212,0,0,-2,-2,-5,-3,-5,-2
1558441670127212,-1,-3,-5,-2,0,-7,-2,-2
1558441670143170,2,3,2,-2,-5,7,-4,0
1558441670143170,-1,-3,0,1,2,-4,1,0
1558441670150161,0,3,4,-4,-5,1,-6,-3
1558441670150161,-1,2,1,-2,-2,0,-2,-3
1558441670151148,-6,-7,-12,-3,8,7,5,-2
1558441670151148,-1,-2,1,0,0,-3,4,0
1558441670166110,0,0,-1,0,0,-10,1,1
1558441670166110,0,-2,0,0,-3,1,-3,-2
1558441670173098,-1,1,1,-1,-7,-10,-10,-4
1558441670173098,2,4,3,2,3,13,2,1
1558441670187137,-3,-3,-3,1,6,17,12,2
1558441670187137,-5,-4,-4,2,1,-2,-4,-2
1558441670195245,-2,-1,-5,-2,7,0,7,1
1558441670195245,-5,-5,-6,-5,-7,-6,-3,-3
1558441670211178,0,0,1,-2,-8,-11,-7,-3
1558441670211178,0,0,-1,0,-1,1,2,0
1558441670211178,-1,-1,5,1,-4,-2,-3,-2
1558441670211178,4,1,0,-3,-3,-2,-2,1
1558441670224954,-6,-2,-2,1,0,-1,-8,0
1558441670224954,-1,-2,1,2,3,12,12,2
1558441670231972,0,3,4,0,-2,-11,-2,1
1558441670231972,-2,-3,-3,-1,4,-3,2,-2
1558441670246932,-1,-1,-2,-2,-4,-8,-2,-1
1558441670246932,-1,-2,-4,-1,-2,5,-1,-1
1558441670254911,1,0,-1,0,-1,0,-3,0
1558441670254911,1,0,-1,1,3,5,-3,-2
1558441670270837,-4,-3,-2,1,-3,-5,0,-4
1558441670270837,-2,-3,-1,-5,-4,-4,-6,-3
1558441670270837,0,1,7,3,6,7,6,-3
1558441670270837,-2,-1,-6,-2,-6,-4,-5,-6
1558441670284792,1,1,-2,-1,5,-1,-2,-1
1558441670284792,-2,-4,-2,-2,-6,-15,-6,0
1558441670291776,-2,0,2,-1,-1,7,3,0
1558441670291776,2,-1,-2,0,0,-12,-2,0
1558441670308729,2,2,0,-1,6,5,-3,1
1558441670308729,-3,-4,-3,-2,-4,-1,1,0
1558441670314714,0,-2,-2,-4,2,7,-9,-2
1558441670314714,-1,0,2,-1,-4,-7,1,0
1558441670330670,-1,0,1,1,-4,6,0,-4
1558441670330670,2,1,-5,0,12,9,10,3
1558441670330670,-1,-3,-3,-1,-5,-10,-5,-2
1558441670330670,-4,-3,-6,-6,-7,-8,-5,-4
1558441670344631,-6,-6,-4,-2,-2,12,4,-2
1558441670344631,4,6,4,2,-5,-22,-4,2
1558441670352643,-3,-3,-4,-3,-9,-11,-5,-3
1558441670352643,0,-2,0,-2,-2,10,-5,-2
1558441670367577,-1,0,3,1,7,9,5,1
1558441670367577,-3,-5,-4,-2,1,7,1,-1
1558441670374555,-2,-1,-4,-1,-7,-11,-2,-1
1558441670374555,1,0,1,1,3,-3,-1,4
1558441670390511,-2,-3,2,0,-1,-2,-1,-2
1558441670390511,2,1,1,-2,-4,3,-4,-4
1558441670391509,0,-2,-1,-2,-2,-1,-5,0
1558441670391509,-7,-6,-3,-5,-13,-1,-6,-6
1558441670404470,-1,0,-5,-1,-4,-10,0,2
1558441670404470,0,2,1,1,4,-4,0,0
1558441670420427,-1,-2,0,0,0,2,2,0
1558441670420427,2,1,2,2,4,10,4,2
1558441670427411,-3,-3,-3,-4,1,-7,-3,-3
1558441670427411,-4,-2,4,-1,-10,-5,-5,-3
1558441670434391,0,1,-7,-1,3,7,-2,-2
1558441670434391,-3,-2,1,0,0,2,3,2
1558441670450819,0,-3,-2,-2,-7,-14,-8,-3
1558441670450819,2,2,2,1,-1,0,2,4
1558441670451345,0,-2,-8,-3,5,6,9,0
1558441670451345,1,1,1,0,7,-9,4,4
1558441670464727,1,4,3,-1,-2,5,-3,0
1558441670464727,-4,-6,-4,-5,-11,-5,-10,-5
1558441670480348,-4,-7,-5,-3,-13,-9,-6,-2
1558441670480348,0,1,-1,4,16,22,16,5
1558441670487249,1,-1,0,1,-2,-5,5,0
1558441670487249,-2,1,-2,0,4,1,-2,-4
1558441670495230,-2,3,4,-2,2,3,1,0
1558441670495230,-1,-2,-1,-4,-10,-20,-10,-5
1558441670510188,-1,-1,-1,-3,-5,4,-3,-2
1558441670510188,0,-6,-4,-3,-6,-6,-1,-3
1558441670511186,0,0,4,5,13,15,10,3
1558441670511186,-6,-4,-3,-3,-8,2,-11,-6
1558441670525157,1,1,-1,1,4,1,3,0
1558441670525157,2,1,-2,-1,0,-4,1,1
1558441670532143,0,1,2,-1,-4,-8,-7,-2
1558441670532143,1,1,-5,0,0,3,1,0
1558441670547090,-3,-2,0,-3,-6,-10,-5,-4
1558441670547090,-2,-2,-4,-2,-9,-3,-5,-1
1558441670555562,0,2,8,4,2,1,5,3
1558441670555562,-6,-7,-6,-2,0,5,-3,-2
1558441670571335,-3,-2,0,-1,2,-5,-1,-1
1558441670571335,1,1,-3,-4,6,6,3,2
1558441670571335,3,0,-3,-2,-6,-6,-3,-2
1558441670571335,-1,-2,2,-2,-2,-2,-5,-2
1558441670585987,-1,-3,-6,-4,-5,3,-4,-1
1558441670585987,0,2,4,1,1,0,3,1
1558441670591970,0,2,-1,0,2,2,1,0
1558441670591970,-1,-1,-2,-3,-5,0,0,-2
1558441670606933,1,1,1,2,5,-5,8,3
1558441670606933,-2,0,2,2,4,3,-3,-1
1558441670615192,-3,-5,0,0,-2,-4,-3,-2
1558441670615192,-3,-2,-3,-2,-1,-7,1,-3
1558441670630985,-3,-4,-4,-1,-2,6,-2,-1
1558441670630985,-1,-3,-1,-5,-9,-10,-6,-4
1558441670630985,-1,-1,-1,0,1,11,5,0
1558441670630985,-2,1,1,1,1,-7,-1,-1
1558441670644835,2,5,4,1,3,7,-1,-1
1558441670644835,-3,-8,-6,-4,5,-1,2,0
1558441670652931,-2,0,2,-2,-4,-17,-4,0
1558441670652931,1,-3,-7,-3,-6,-4,-4,-1
1558441670667881,-4,-1,-2,-2,-4,8,-3,-1
1558441670667881,-1,2,5,3,4,8,3,0
1558441670674751,1,0,0,0,0,0,-5,-1
1558441670674751,0,2,3,1,-2,-3,2,1
1558441670699688,-2,-5,-5,-2,-1,-8,2,-2
1558441670699688,0,-1,-3,0,0,4,-2,-2
1558441670700681,-1,-1,-1,0,-1,-2,0,-1
1558441670700681,1,1,0,1,-1,-12,1,2
1558441670704676,-1,-3,-3,-1,0,2,-2,1
1558441670704676,-1,0,-2,2,1,-2,-5,-2
1558441670720627,-3,-4,-5,-3,-7,0,-4,-3
1558441670720627,2,3,7,2,4,12,-1,2
1558441670727608,3,3,-3,-3,-5,-10,3,0
1558441670727608,-9,-9,2,0,3,-4,-1,1
1558441670734588,0,-2,-3,1,-4,-10,0,-2
1558441670734588,-3,-4,-3,-7,-7,-2,-9,-6
1558441670750545,-1,-1,-1,-1,3,5,-4,-3
1558441670750545,2,2,1,-1,-2,7,1,0
1558441670751545,0,-2,-3,-1,1,1,-3,-2
1558441670751545,-3,0,1,0,0,1,0,-2
1558441670764509,-3,-5,-2,-3,-7,-6,-5,-5
1558441670764509,0,-1,-1,1,0,2,7,1
1558441670772878,0,1,5,1,7,7,4,1
1558441670772878,-1,0,-9,-4,-1,-2,-1,-1
1558441670787799,-3,-2,0,-2,-2,-1,-3,-1
1558441670787799,-4,-3,-2,-2,-1,-3,-8,-4
1558441670794461,-1,-1,-7,-3,-8,-2,-3,-1
1558441670794461,1,0,6,3,4,-2,3,4
1558441670811877,2,3,8,3,5,10,4,-1
1558441670811877,0,-1,-9,-4,-3,1,6,0
1558441670812380,-1,-2,-5,-4,1,-8,-3,0
1558441670812380,0,4,-1,-2,-6,-1,0,-2
1558441670824349,-4,-7,-1,0,-5,-9,-6,-1
1558441670824349,-4,1,3,-1,-8,-2,-1,-2
1558441670832567,-1,0,0,-1,6,9,0,-1
1558441670832567,-2,-3,-2,-2,1,-1,-2,-1
1558441670847623,3,3,0,3,11,3,9,5
1558441670847623,-1,0,-2,0,-3,-8,-2,-1
1558441670855472,-3,-3,-5,-4,-11,-11,-5,-2
1558441670855472,0,1,1,1,3,2,4,0
1558441670870542,-4,-3,-4,-2,-2,5,0,-3
1558441670870542,1,0,2,-1,-1,-10,-3,0
1558441670877433,-3,-1,-2,-1,-1,-6,-1,1
1558441670877433,3,1,2,2,0,8,2,-2
1558441670886217,3,-1,-3,-4,-3,2,-7,-4
1558441670886217,0,2,3,0,-1,0,-7,-3
1558441670894161,-1,-2,1,-1,3,-3,3,-1
1558441670894161,-1,-2,-1,-2,-3,-1,-7,-3
1558441670907422,-1,-1,0,-1,-3,-4,4,1
1558441670907422,-1,-3,-6,-5,-6,-7,-8,-4
1558441670915105,-1,-2,0,0,-4,4,-4,-5
1558441670915105,0,-1,1,-1,0,2,3,1
1558441670930406,-5,-3,-1,1,-1,-9,0,1
1558441670930406,-2,-1,-5,-2,-7,-5,-2,-1
1558441670946346,1,0,-1,-2,3,6,0,1
1558441670946346,-1,-3,-3,0,0,-3,0,-2
1558441670947021,-2,1,7,2,-1,3,-2,-2
1558441670947021,1,0,-7,-2,5,9,5,0
1558441670953049,-2,-3,-1,-3,-2,-2,-6,-4
1558441670953049,-1,1,1,0,0,1,1,0
1558441670984203,-3,0,-9,-7,-5,-10,-6,-4
1558441670984203,-2,-1,3,-1,1,6,-1,-1
1558441670984203,1,2,5,3,7,8,6,4
1558441670984203,-1,-2,0,-3,-4,-8,-6,-1
1558441670990194,-1,0,-3,0,-1,-9,4,4
1558441670990194,0,0,-4,-5,-2,-5,0,-3
1558441670997903,3,0,-1,0,0,3,1,1
1558441670997903,-14,-11,-1,1,0,5,7,-2
1558441671013122,1,2,0,-1,-2,-4,-4,-1
1558441671013122,-4,-3,7,2,0,0,0,-3
1558441671013843,0,-2,-11,-6,-8,-10,-9,-5
1558441671013843,4,-1,-6,-1,0,3,3,2
1558441671028032,-2,-1,0,-3,-6,-6,-5,-1
1558441671028032,-1,2,0,0,4,12,0,-2
1558441671034815,0,3,3,2,1,3,-1,0
1558441671034815,-2,0,-1,0,-1,-9,1,1
1558441671050037,1,-1,-1,-2,4,-1,0,-1
1558441671050037,-1,1,3,3,-5,-3,-4,1
1558441671057725,-5,-3,-2,-3,-6,-4,-4,-5
1558441671057725,-3,-2,-6,-3,-2,8,-4,-4
1558441671073948,0,0,-1,-2,-1,-6,1,1
1558441671073948,1,-1,-3,-1,-1,-9,-3,-1
1558441671080926,0,-1,1,2,2,4,3,2
1558441671080926,-3,-1,-1,-2,-5,-5,-5,-1
1558441671087901,-3,-4,-7,-2,2,11,3,-3
1558441671087901,-2,0,-1,-3,-7,-3,1,1
1558441671094882,-3,-3,0,-1,1,0,0,-2
1558441671094882,2,2,6,0,1,-3,-3,-1
1558441671111580,-3,-2,-3,-1,5,10,-1,1
1558441671111580,1,0,-2,2,7,-10,4,2
1558441671117564,1,2,0,-2,-8,-7,0,2
1558441671117564,1,-4,-3,-1,-3,11,-4,-1
1558441671141499,-2,-4,0,-1,-6,-2,-4,-4
1558441671141499,0,2,0,-1,3,4,0,0
1558441671141499,-2,0,0,2,4,0,2,0
1558441671141499,0,1,0,-1,-1,-3,-2,-1
1558441671147554,-2,-2,-2,-1,-8,-6,-6,-2
1558441671147554,0,-2,1,-2,-2,-3,4,0
1558441671155508,-3,-2,-2,0,2,2,-3,-2
1558441671155508,-3,-1,1,-4,-10,-9,-6,-3
1558441671169424,5,4,2,2,5,1,1,3
1558441671169424,-1,1,-2,2,9,2,4,2
1558441671177404,-1,-2,1,-1,0,-11,-1,1
1558441671177404,-4,-2,-2,-3,-5,-3,-1,-3
1558441671192364,-4,-3,-3,-5,-12,-7,-11,-5
1558441671192364,1,2,0,2,2,9,1,1
1558441671193360,0,2,0,-1,-2,9,3,1
1558441671193360,0,-1,-4,-2,1,-6,-3,-2
1558441671207322,-1,0,0,-1,-1,1,0,-1
1558441671207322,-3,-3,-1,-1,6,6,-3,-5
1558441671214306,-1,-3,3,1,-4,-2,-7,-1
1558441671214306,2,4,2,1,-4,-1,-2,-1
1558441671229469,-2,-6,-17,-7,1,0,4,-2
1558441671229469,-3,-2,4,-1,-11,-9,-6,-4
1558441671237499,-1,-3,-12,-4,4,0,8,3
1558441671237499,1,-1,5,3,6,-13,1,3
1558441671253571,-2,0,4,1,1,4,-3,-1
1558441671253571,-2,-2,-7,-2,-2,4,-2,-1
1558441671253571,-2,-1,2,-1,-8,0,1,0
1558441671253571,4,-1,-2,-1,-1,4,-1,-1
1558441671267525,3,0,6,4,4,1,3,1
1558441671267525,-1,-3,-1,-3,-4,-13,-4,-3
1558441671274271,-3,0,3,0,2,10,1,-2
1558441671274271,3,1,-2,-1,1,0,3,2
1558441671290473,-7,-8,2,-1,-3,1,1,-2
1558441671290473,-2,-3,-3,-4,-8,-2,-2,-2
1558441671297439,-3,-4,-5,-2,-6,-10,-6,-3
1558441671297439,-1,0,-1,0,0,-5,1,1
1558441671313415,4,3,1,1,3,2,5,3
1558441671313415,-1,-2,1,0,1,7,2,0
1558441671313415,-1,1,-2,-1,1,-4,-5,-3
1558441671313415,-5,-5,-1,-3,-2,1,-7,-5
1558441671327116,1,0,2,1,0,1,-3,0
1558441671327116,1,1,-5,1,3,-10,3,2
1558441671335403,0,-1,1,0,0,5,-2,0
1558441671335403,-2,-1,0,-2,3,-3,4,2
1558441671350557,-1,1,-3,-2,-5,-7,-5,-3
1558441671350557,1,-3,1,0,4,10,0,0
1558441671357391,0,-2,-3,2,1,1,0,-4
1558441671357391,-3,0,-3,-2,-2,-2,2,-3
1558441671373558,-1,0,0,-1,-4,-7,0,-1
1558441671373558,-1,-1,2,-1,-2,5,-4,-3
1558441671373558,-1,-1,-4,-4,-1,1,-1,0
1558441671373558,-2,-1,-1,1,1,-6,4,0
1558441671387616,-2,-2,-2,-1,-5,2,2,-3
1558441671387616,-1,-3,-1,1,0,7,-1,-1
1558441671395390,-1,-2,0,-2,-4,-8,-1,-2
1558441671395390,3,0,1,3,4,7,1,0
1558441671410502,-3,-4,-3,-3,0,-2,-6,-2
1558441671410502,-1,-1,-3,-4,-7,-1,-2,-1
1558441671417500,-1,-4,-1,-2,-3,-4,-4,-5
1558441671417500,-2,-1,-3,-2,-5,-8,-9,-4
1558441671433480,1,3,7,4,11,7,9,4
1558441671433480,-7,-7,-3,-2,-1,4,1,-2
1558441671433480,-1,-1,-4,-1,-6,-4,-5,-2
1558441671433480,-2,-3,-2,-1,-1,5,-5,-1
1558441671447392,-1,1,-3,-2,-8,-9,-7,-2
1558441671447392,3,1,1,-1,2,2,-1,2
1558441671455393,2,2,12,4,6,-5,4,2
1558441671455393,-3,-5,-13,-7,-4,7,1,-2
1558441671470076,-1,-2,-3,-3,0,6,-1,-2
1558441671470076,1,1,-1,-1,2,-16,-2,0
1558441671477319,-2,-2,0,0,-2,-2,-1,0
1558441671477319,2,2,4,3,3,3,0,1
1558441671494257,-2,-3,-3,-4,-11,-9,-9,-7
1558441671494257,-2,0,-3,-2,-9,-5,-7,-1
1558441671495015,2,4,3,1,3,6,9,1
1558441671495015,-7,-4,0,2,3,-8,2,-1
1558441671506976,-1,-2,-2,-2,0,5,-1,-1
1558441671506976,0,-1,3,2,-1,1,3,0
1558441671515219,-3,-2,-2,-2,0,6,-2,-2
1558441671515219,-2,-3,-4,-7,-13,-13,-9,-2
1558441671530916,-2,-3,-2,0,-3,-5,-1,0
1558441671530916,-1,1,-1,1,2,10,3,0
1558441671536928,4,1,-3,-2,4,2,5,2
1558441671536928,0,-2,1,1,4,11,3,0
1558441671553203,-2,-2,-3,-1,-3,-3,-1,-1
1558441671553203,-2,-2,-2,0,1,0,5,0
1558441671553851,-4,-3,-5,1,4,4,-4,-1
1558441671553851,0,1,1,-1,-2,-4,-3,0
1558441671568026,-1,0,1,-1,2,-6,0,1
1558441671568026,-2,-3,-3,-4,-8,-6,-10,-3
1558441671574794,-1,-4,-2,-4,-14,-10,-7,-4
1558441671574794,-2,-1,-4,-2,-2,9,5,-1
1558441671590103,4,3,2,7,28,25,17,7
1558441671590103,-4,0,2,3,0,-18,0,-1
1558441671597957,-2,-3,-2,-2,-3,-1,-6,-4
1558441671597957,-1,-2,-1,-4,-3,5,-4,-4
1558441671612066,-3,-3,-2,-5,-12,-7,-7,-4
1558441671612066,-3,0,-2,0,0,2,3,0
1558441671621025,-1,1,-1,0,6,4,0,3
1558441671621025,-2,0,-2,-5,-7,-11,-5,-1
1558441671627998,-2,2,7,0,0,-10,-2,0
1558441671627998,-1,-2,-7,-2,4,10,-1,0
1558441671634978,-2,-4,-2,-1,-3,-12,-4,-1
1558441671634978,1,-1,-2,0,4,8,7,1
1558441671649953,2,1,-2,1,1,5,-1,-1
1558441671649953,-2,-1,1,-2,-2,2,-2,-3
1558441671665802,0,3,-2,1,-2,-2,-3,0
1558441671665802,-2,-5,0,-3,-5,-5,-6,-1
1558441671673590,-7,-7,-5,-1,-4,0,0,-3
1558441671673590,5,5,3,2,7,-5,7,6
1558441671673590,-1,0,-2,0,9,0,4,3
1558441671673590,0,2,0,-1,0,-7,-2,-2
1558441671695697,-2,-5,-5,-6,-14,-11,-11,-4
1558441671695697,-2,-4,-3,-1,-2,6,-4,-3
1558441671696471,-1,-3,-2,-1,-4,3,1,-1
1558441671696471,1,-2,-1,2,7,4,1,1
1558441671709443,0,-1,-2,0,-1,-2,-2,1
1558441671709443,-2,-2,-4,-2,-6,-11,-1,-3
1558441671717413,2,1,5,-2,-10,-3,-3,-2
1558441671717413,3,1,-1,1,3,8,-1,-1
1558441671733594,-13,-8,-2,-1,-1,3,0,-2
1558441671733594,4,0,0,-3,-1,-7,2,5
1558441671733594,-4,-4,-4,-4,-3,-5,-5,-3
1558441671733594,2,1,-1,-2,-7,-1,0,2
1558441671747335,1,2,2,2,5,3,0,-2
1558441671747335,0,0,2,1,5,14,-5,-1
1558441671763559,-5,-7,-4,-2,-9,-6,0,-1
1558441671763559,-2,-1,-1,0,2,-10,-1,-1
1558441671769552,2,1,-1,-4,-1,-15,-1,1
1558441671769552,-3,0,-1,0,-1,3,-3,-1
1558441671777255,3,6,9,4,12,9,9,7
1558441671777255,-3,-1,-4,-1,-6,-6,2,-3
1558441671792240,0,-3,-7,-5,-5,0,-3,-2
1558441671792240,1,1,0,-1,-8,-7,-4,-4
1558441671801267,-4,-4,-6,-9,-9,-2,-6,-3
1558441671801267,-1,0,2,3,4,-1,-1,0
1558441671807290,2,2,4,2,2,1,2,2
1558441671807290,-1,-4,-3,-3,3,6,5,-2
1558441671815151,0,1,7,2,-3,-4,-7,-3
1558441671815151,-4,-4,-11,-6,-1,2,-1,-1
1558441671830380,3,4,9,5,9,2,9,5
1558441671830380,-2,-1,-4,1,6,0,-6,-2
1558441671837400,-1,-5,-7,-4,-2,1,0,-1
1558441671837400,-2,-2,-1,-1,-9,-2,-7,-5
1558441671852081,2,4,1,0,0,-11,-1,0
1558441671852081,-2,-2,-2,-2,-4,-10,-3,-1
1558441671860457,0,1,-1,-1,1,-4,3,-2
1558441671860457,-1,-3,1,1,4,5,-2,2
1558441671867092,0,-1,-2,-1,-6,7,2,-3
1558441671867092,-2,-2,-1,-2,-7,-10,-4,-3
1558441671874992,-12,-7,-6,-3,-3,-4,-4,-5
1558441671874992,2,2,3,2,5,7,3,2
1558441671890280,-2,-1,-1,2,8,11,2,0
1558441671890280,0,-2,-2,-3,-4,-12,-1,0
1558441671896959,4,-1,-2,0,-2,-2,-1,-1
1558441671896959,-2,-1,0,-1,2,-1,-4,-2
1558441671913016,0,-1,-2,-4,-9,-7,-10,-2
1558441671913016,-4,-3,0,0,-5,1,-1,-3
1558441671921187,0,0,-4,-1,7,7,8,3
1558441671921187,0,1,5,3,-2,-12,4,1
1558441671927852,-1,-3,-9,-5,0,-4,-5,-4
1558441671927852,-3,-4,-2,-2,-3,6,-3,-2
1558441671935144,0,3,2,-1,-3,0,1,-1
1558441671935144,2,2,4,2,8,2,5,1
1558441671949791,-4,-3,-6,-6,-7,-3,-4,-4
1558441671949791,-3,-1,1,-1,-6,-1,-4,-3
1558441671956772,-2,-2,-4,0,8,4,2,2
1558441671956772,-2,-3,0,1,3,3,4,3
1558441671971766,1,0,2,0,-3,-5,-7,-1
1558441671971766,-1,-4,-3,0,-3,5,8,0
1558441671980709,1,1,-2,-2,-5,2,-5,-1
1558441671980709,-2,-2,0,-3,-2,-11,-3,-3
1558441671996124,-3,-3,-1,1,-6,-5,1,-1
1558441671996124,3,5,8,0,5,0,1,3
1558441671996124,-2,-6,-7,-2,-3,-7,-6,-2
1558441671996124,0,-2,-9,-3,-5,5,-1,-2
1558441672009630,2,2,-3,-1,3,6,4,0
1558441672009630,-7,-2,1,1,1,-8,1,-3
1558441672018055,-3,-3,5,1,4,9,-1,-3
1558441672018055,-2,-1,-5,-3,-7,-1,-6,-3
1558441672032628,2,-1,-5,-3,-5,-3,-5,-1
1558441672032628,2,-1,-6,-1,1,1,-3,1
1558441672040824,1,2,5,1,0,-6,3,2
1558441672040824,-3,-3,1,-4,-7,0,-5,-5
1558441672056701,-2,1,0,0,-6,5,-2,-3
1558441672056701,0,0,-1,-1,2,-7,-4,0
1558441672056701,1,-2,0,1,3,1,1,1
1558441672056701,0,1,1,4,5,10,7,2
1558441672070666,-1,-2,1,-1,2,-1,1,-1
1558441672070666,-1,-4,-4,-5,-7,-7,-7,-5
1558441672085804,-3,-3,0,-1,1,4,-4,-4
1558441672085804,-1,-1,-3,-2,-5,-8,-1,-1
1558441672092410,-1,0,6,1,2,0,-4,2
1558441672092410,-4,-5,-10,-2,0,2,4,-2
1558441672107372,0,0,-3,-2,-2,-11,-4,-1
1558441672107372,0,-1,0,0,4,2,-1,-1
1558441672115617,-4,-5,-5,-3,-13,-2,-5,-5
1558441672115617,2,2,2,3,5,4,0,3
1558441672116348,0,0,0,-1,0,-12,-2,0
1558441672116348,0,0,-1,-3,-3,-9,0,1
1558441672129601,5,4,3,-1,6,1,-2,0
1558441672129601,-2,0,1,-1,-3,9,2,-2
1558441672137292,-1,1,0,2,8,20,9,3
1558441672137292,-2,-3,-2,-3,-10,-6,-7,-3
1558441672152279,-3,-2,-3,-1,3,0,-1,0
1558441672152279,0,1,-2,-3,-6,-13,-4,-1
1558441672160263,-1,-1,-5,-5,-13,-5,-7,-7
1558441672160263,5,6,1,1,2,-2,2,3
1558441672175190,-13,-11,-2,1,8,0,5,-1
1558441672175190,-1,1,1,-4,0,1,-3,-3
1558441672176186,-1,0,0,1,-3,0,-1,1
1558441672176186,-3,-1,-1,-1,0,2,1,-3
1558441672190559,2,2,0,-1,-5,-4,0,-1
1558441672190559,1,-2,0,0,-2,-2,0,0
1558441672197159,-3,-4,-2,-4,-4,-3,-5,-5
1558441672197159,-1,-2,-4,-5,-6,-5,-8,-4
1558441672212605,-1,-2,-1,-1,-1,-2,-2,-1
1558441672212605,-1,-1,-1,1,0,-2,-1,1
1558441672228089,2,0,-1,-1,0,2,-1,-1
1558441672228089,-3,-2,1,1,2,1,0,0
1558441672235027,1,-1,1,-1,0,-2,-1,-2
1558441672235027,0,-1,-2,-4,-6,-10,-3,-2
1558441672236024,-2,-1,-3,-3,-3,-4,-2,0
1558441672236024,-1,0,2,1,5,6,5,3
1558441672249987,1,0,0,-1,-3,-3,0,0
1558441672249987,-2,-2,-1,-2,-4,0,-5,-3
1558441672256968,-1,1,-1,-2,-7,-11,-11,-3
1558441672256968,0,0,-1,0,8,2,6,3
1558441672271930,1,0,-1,0,-2,-11,-4,-2
1558441672271930,-1,-3,1,1,5,11,7,1
1558441672279907,-6,-5,-2,-1,1,-5,-1,-5
1558441672279907,0,-1,0,-2,-5,3,-2,-2
1558441672304202,2,1,-4,-2,-4,7,-6,-2
1558441672304202,-2,-1,2,3,4,-5,8,3
1558441672304202,1,-1,2,1,5,0,3,0
1558441672304202,-2,-3,-4,-3,-7,-2,-4,-4
1558441672317808,0,1,-3,-3,-3,-3,-2,-2
1558441672317808,-1,1,-3,-2,-1,0,-2,-1
1558441672319114,-1,-1,0,-1,-2,8,3,0
1558441672319114,0,0,2,3,13,14,5,2
1558441672333055,-2,0,1,-2,-2,-4,-3,0
1558441672333055,0,-1,-5,-2,-4,-6,-6,-3
1558441672340747,1,-1,2,-4,-10,-16,0,-1
1558441672340747,-2,1,5,3,3,0,-5,-3
1558441672356136,-4,-1,-6,-1,4,7,8,2
1558441672356136,1,-1,-1,0,1,6,2,-1
1558441672356136,3,2,-4,-3,-6,-1,-5,-2
1558441672356136,-6,-5,-1,0,1,0,2,1
1558441672370081,-2,-1,6,4,3,-9,0,-1
1558441672370081,0,-2,-1,-3,-3,-3,-6,-2
1558441672378097,-2,-2,1,-1,-3,2,-6,0
1558441672378097,1,-3,-7,-3,-6,-6,1,-3
1558441672392701,1,1,1,1,0,-1,4,1
1558441672392701,0,0,-1,-1,2,-1,-3,-1
1558441672401014,0,2,2,2,4,5,1,0
1558441672401014,0,-1,0,-1,-6,-9,-7,-1
1558441672415546,-3,-2,-2,-4,-9,-6,-5,-3
1558441672415546,-1,1,1,0,6,4,6,3
1558441672416543,-3,-2,-3,1,4,0,1,2
1558441672416543,-4,-4,-5,-3,-6,-5,-4,-5
1558441672429937,1,-1,-1,0,0,-2,-2,-2
1558441672429937,3,1,3,2,4,7,0,-2
1558441672437933,1,0,-4,-4,4,-4,3,-1
1558441672437933,-1,1,-1,-1,-6,-3,-4,-1
1558441672452803,0,-2,2,-1,-6,-5,-6,-3
1558441672452803,-4,-5,-7,-2,-7,-4,-4,-3
1558441672460776,2,0,2,1,2,2,2,2
1558441672460776,-3,-2,-2,0,3,-4,0,-1
1558441672475388,-1,0,-3,-1,2,10,4,1
1558441672475388,1,0,2,4,6,3,8,1
1558441672476419,-2,1,0,0,-3,-5,-3,-3
1558441672476419,0,-3,-5,-2,-4,-2,-3,-1
1558441672498548,-2,-3,0,0,3,4,1,1
1558441672498548,-2,-3,-3,-2,-5,0,-5,-3
1558441672498548,-1,-3,-1,-1,-6,0,-2,-2
1558441672498548,1,0,2,2,2,-4,-2,-2
1558441672512320,0,-1,0,-1,8,-1,4,1
1558441672512320,-4,0,0,-2,-9,-12,-8,-3
1558441672520272,0,-1,0,-1,-2,-2,-2,1
1558441672520272,-3,-3,-3,-4,-9,-7,-8,-3
1558441672535476,0,-2,-5,-2,-3,7,-1,-2
1558441672535476,0,2,3,2,4,-5,5,1
1558441672536227,-3,0,-1,1,2,-3,0,0
1558441672536227,-2,1,-4,-2,0,4,1,0
1558441672550416,-1,-1,-2,-3,-1,2,-6,-2
1558441672550416,-1,-1,-3,-1,-3,1,-3,-2
1558441672557173,-1,-1,-1,0,-3,-3,-4,-4
1558441672557173,1,0,0,0,3,2,5,-1
1558441672588417,-3,-1,0,2,4,1,4,1
1558441672588417,0,1,-1,-1,-3,-3,-4,0
1558441672589081,0,-1,4,-4,-2,-11,-2,0
1558441672589081,0,0,2,0,0,0,-1,-2
1558441672596095,0,-1,-2,0,1,-2,0,2
1558441672596095,-1,-2,-2,-3,-6,1,-4,-1
1558441672596095,-2,-6,-6,-1,1,5,6,1
1558441672596095,-4,-3,3,1,5,8,4,-2
1558441672610358,1,0,0,0,3,0,1,-1
1558441672610358,-3,-1,-2,-2,-10,2,-1,-3
1558441672617320,-2,-2,-5,-1,4,7,1,1
1558441672617320,0,0,1,-2,-2,-18,-2,3
1558441672633017,-1,0,1,1,1,-2,-6,-3
1558441672633017,0,-2,-4,-1,-4,-9,-1,-1
1558441672640281,-4,-4,-3,-4,-11,-2,-10,-6
1558441672640281,-3,-4,-4,-2,-6,-1,-2,-4
1558441672656038,1,0,2,-1,9,12,8,2
1558441672656038,2,2,6,2,2,-11,4,0
1558441672656038,2,3,0,1,4,6,2,1
1558441672656038,-1,-1,-4,-2,-3,1,-3,0
1558441672670218,1,-2,0,-3,-8,-8,-2,0
1558441672670218,-1,-2,-1,-2,2,2,2,-1
1558441672677846,-1,1,1,-2,3,-1,2,-3
1558441672677846,-1,0,-2,-3,-11,-7,-6,-1
1558441672693805,-2,-2,-1,0,-2,-1,-2,-1
1558441672693805,-2,-1,1,0,9,9,1,0
1558441672700042,0,1,1,-1,-4,1,-2,0
1558441672700042,2,1,-4,-4,1,-9,-2,-2
1558441672715991,-1,-2,-2,-2,-6,-8,-3,-2
1558441672715991,-4,-3,-4,0,-2,9,-1,-2
1558441672715991,-1,-4,-3,-1,-2,3,-3,-3
1558441672715991,0,0,0,-1,1,-6,-3,1
1558441672737683,4,4,1,1,4,-12,9,4
1558441672737683,1,-1,-1,-1,-5,-10,-4,-2
1558441672738711,-3,-3,-3,-3,-7,1,-4,-3
1558441672738711,2,-3,-2,-1,4,18,4,-2
1558441672752642,-4,-1,0,-1,0,1,-3,0
1558441672752642,-1,-1,-1,-1,3,-14,1,0
1558441672759625,-1,1,0,0,-3,-7,-6,-1
1558441672759625,-2,1,0,0,-2,0,2,-2
1558441672774588,3,2,-4,0,-2,-1,-3,-1
1558441672774588,-10,-12,-4,-2,-2,8,-2,-4
1558441672782564,0,-3,-3,-1,-3,-5,-4,-3
1558441672782564,0,-2,-1,0,3,6,1,0
1558441672789583,-5,-1,-2,-1,-5,-2,-8,-5
1558441672789583,4,1,-2,-2,-1,-5,-2,1
1558441672797561,0,0,1,4,5,-1,4,2
1558441672797561,-2,-1,2,0,2,-9,-3,2
1558441672812485,1,1,1,-2,-7,-2,-2,-1
1558441672812485,0,-1,0,-1,-2,4,-3,0
1558441672819510,-2,-2,-3,0,3,1,1,-1
1558441672819510,2,1,-2,-1,0,-3,2,-2
1558441672834423,-4,-2,-2,-3,-6,0,-2,-3
1558441672834423,1,2,0,-3,-4,0,0,-2
1558441672842403,2,3,0,0,8,1,4,2
1558441672842403,-4,-6,1,3,3,5,4,3
1558441672849418,-1,-5,-8,-1,0,-1,-2,-3
1558441672849418,-11,-7,-3,-2,-7,-4,-9,-7
1558441672857362,-4,2,4,1,-8,0,2,-4
1558441672857362,1,1,-5,-5,-3,-6,-2,0
1558441672872351,0,-3,0,0,-2,-5,-1,0
1558441672872351,3,1,-1,0,8,9,6,4
1558441672888281,1,1,0,-1,5,0,1,1
1558441672888281,-5,-3,2,-1,-7,4,-3,-3
1558441672894299,-3,-3,-2,-2,-4,-4,-5,-2
1558441672894299,2,2,-5,-3,-4,2,-3,-1
1558441672903274,0,-1,3,2,-3,-12,3,3
1558441672903274,-1,-2,-5,-2,-5,1,-4,-2
1558441672918240,1,-1,0,-1,0,-3,1,-3
1558441672918240,1,1,3,0,0,-7,1,0
1558441672918240,-4,-4,-4,-5,0,6,-5,-3
1558441672918240,-1,1,3,2,1,-4,-1,-1
1558441672932165,-4,-1,-1,-2,-4,-4,-4,0
1558441672932165,3,0,1,0,5,9,0,-1
1558441672939145,1,4,2,1,3,7,6,3
1558441672939145,-1,-2,0,-2,1,-13,-3,-1
1558441672955103,0,3,6,-1,-1,3,-1,-4
1558441672955103,-1,-4,-8,-4,-1,-1,0,-3
1558441672963082,-1,0,-2,-5,-9,-4,-6,-1
1558441672963082,-2,-2,6,1,-2,1,-5,-3
1558441672978079,3,1,-4,0,4,3,-1,1
1558441672978079,-2,-3,-5,-5,0,4,1,-1
1558441672978079,-1,-3,0,2,1,-2,-2,-1
1558441672978079,3,3,2,0,2,-11,1,3
1558441672992002,3,0,-4,2,0,-3,-1,-2
1558441672992002,0,-1,2,-3,-7,-3,-5,-2
1558441672999981,-1,-3,-3,1,1,1,1,1
1558441672999981,-1,3,4,0,6,10,3,1
1558441673014940,-3,0,1,-2,2,-3,2,3
1558441673014940,-1,2,0,-1,-9,-7,-4,-3
1558441673022919,1,-4,-2,-3,2,4,2,-1
1558441673022919,-4,-4,0,3,-2,-6,-4,0
1558441673037914,-2,-2,-3,-3,3,3,2,0
1558441673037914,1,1,-1,-1,-3,-4,-1,1
1558441673038912,1,1,1,-1,-5,-1,-8,-4
1558441673038912,-6,-5,-6,-3,-1,8,5,-2
1558441673051843,-5,-5,-2,-1,-3,-2,0,0
1558441673051843,-2,1,5,0,-1,-2,-2,0
1558441673059820,1,1,0,1,0,-3,-3,0
1558441673059820,1,-1,-3,-2,1,4,0,-1
1558441673074781,-2,-2,3,0,0,1,2,0
1558441673074781,0,0,0,3,3,4,4,0
1558441673090740,-4,-4,-4,-4,-1,-14,-2,-3
1558441673090740,0,-2,-5,-4,-6,-2,-5,-3
1558441673097719,-2,-2,1,-3,-8,1,1,0
1558441673097719,2,4,-1,1,11,0,0,3
1558441673113676,-3,-4,4,2,-3,0,-2,-1
1558441673113676,1,4,3,2,-3,-2,0,-1
1558441673114685,-2,-8,-14,-6,-1,-2,0,-3
1558441673114685,-3,-6,1,-2,-6,-5,0,-1
1558441673119692,2,5,-7,-2,-3,2,-1,-1
1558441673119692,-8,-9,1,-2,-3,-6,1,0
1558441673134647,0,0,6,4,-4,-5,-3,-3
1558441673134647,-1,-1,-3,-1,3,0,0,0
1558441673142638,3,-1,1,1,1,0,3,0
1558441673142638,3,1,-1,-2,-6,-2,-3,-1
1558441673157559,1,2,-1,1,10,7,1,2
1558441673157559,-2,-5,-4,-3,-6,-8,-4,-4
1558441673158558,-2,1,0,0,-5,-5,-4,-2
1558441673158558,-1,0,-4,-3,-2,1,-1,-1
1558441673172547,-1,-1,1,0,4,4,1,0
1558441673172547,2,1,2,1,-6,-7,-4,0
1558441673179528,-3,-4,1,0,0,3,4,1
1558441673179528,0,0,-8,-2,-2,-6,-3,0
1558441673194461,-2,-2,-1,-3,0,2,-2,0
1558441673194461,-3,-3,-1,1,-2,-4,-4,0
1558441673202440,-3,-1,1,-3,-5,-7,-5,0
1558441673202440,0,1,-4,-2,0,4,2,-2
1558441673217433,4,2,0,1,-2,5,1,-2
1558441673217433,-5,-3,1,0,1,-5,-5,-3
1558441673218396,-2,-3,-4,-5,-8,-8,-4,-3
1558441673218396,0,0,4,2,12,4,0,0
1558441673232386,2,-1,-2,-1,-5,-1,-1,-3
1558441673232386,2,1,-1,-2,1,6,4,0
1558441673247354,-3,0,-2,-1,0,-1,-4,-3
1558441673247354,-2,-1,-1,-1,-7,-7,-4,1
1558441673256337,-1,0,1,-3,-1,-4,-7,-1
1558441673256337,-3,-4,-4,0,-1,-2,2,1
1558441673263278,-2,0,-4,-3,-5,-2,3,1
1558441673263278,0,0,1,0,-1,1,-1,-1
1558441673278236,-5,-4,-1,-3,0,-2,-2,-3
1558441673278236,3,3,7,1,1,6,1,0
1558441673278236,-1,-5,-4,1,3,6,1,0
1558441673278236,0,-3,-6,-4,-5,0,-2,-3
1558441673292199,-3,-2,-2,-3,-13,-17,-4,-4
1558441673292199,0,1,1,1,8,0,1,0
1558441673299182,1,1,3,3,7,1,1,1
1558441673299182,-1,-2,-2,-2,-2,-7,-3,-1
1558441673314143,-4,-4,-6,-2,4,11,-1,-1
1558441673314143,0,1,-4,-3,-7,-3,-1,-3
1558441673323118,-2,0,4,0,-5,0,-3,-6
1558441673323118,-2,-1,-3,-5,6,3,9,1
1558441673338076,-2,-2,-6,-1,1,5,4,1
1558441673338076,-3,-4,-3,-1,-1,-7,-6,-4
1558441673338076,-1,1,-1,-2,5,15,7,3
1558441673338076,0,0,-1,-1,-9,-5,-6,-2
1558441673353038,1,1,4,0,0,0,0,2
1558441673353038,1,-1,3,1,-3,-5,1,2
1558441673360019,1,1,-9,-3,-1,-7,-6,-2
1558441673360019,-2,-4,3,3,3,12,0,-1
1558441673382957,-4,-1,0,0,-2,-2,2,1
1558441673382957,-1,-2,-4,0,-2,4,-3,-5
1558441673383954,0,0,7,1,0,-3,-2,-2
1558441673383954,1,-2,-10,-4,-2,-6,-3,0
1558441673397925,0,-2,2,-1,-3,0,-1,-1
1558441673397925,-1,-1,-2,0,-7,-4,-1,1
1558441673398914,1,-1,0,0,1,0,-3,0
1558441673398914,1,3,6,2,0,1,-2,-1
1558441673411879,-6,-5,-7,-5,-6,-6,-3,-4
1558441673411879,0,2,0,0,5,-1,5,3
1558441673419859,-3,1,2,-3,2,0,-6,-3
1558441673419859,-1,0,-3,0,-4,3,3,1
1558441673434818,1,-1,4,1,-3,-7,-11,-1
1558441673434818,1,1,2,1,1,1,14,2
1558441673442797,-3,-4,-7,-4,-4,-10,-1,-1
1558441673442797,3,4,7,-1,0,-4,-2,-1
1558441673457757,-1,-2,-4,-4,-1,-5,1,1
1558441673457757,1,1,1,0,-2,9,-5,-5
1558441673458755,-3,-5,-1,1,-2,7,-2,-2
1558441673458755,-6,-5,-2,0,2,-5,-3,-1
1558441673471719,0,0,-3,-4,-6,-7,-5,-1
1558441673471719,-5,-4,-4,-2,-1,3,-5,-2
1558441673479732,0,0,0,1,4,-1,4,0
1558441673479732,-2,-3,-3,-5,-8,-10,-8,-2
1558441673494688,-1,-1,0,3,0,9,6,-2
1558441673494688,0,1,0,-4,5,6,0,0
1558441673502675,0,-3,-5,-5,-11,-10,-4,-3
1558441673502675,-4,-2,1,4,9,4,4,2
1558441673517631,0,2,2,1,-1,-12,-3,-3
1558441673517631,-2,-1,-5,-2,-7,-1,-4,0
1558441673518629,-1,0,2,1,2,-2,0,1
1558441673518629,-4,-5,-7,-3,-5,5,-4,-5
1558441673532558,6,4,1,1,0,-11,4,1
1558441673532558,-14,-9,-9,-1,-1,-6,1,-2
1558441673539539,0,0,2,0,0,6,-3,-1
1558441673539539,1,3,5,0,-1,-5,-6,-1
1558441673554497,-1,-3,-4,-4,-5,4,-1,-2
1558441673554497,1,0,11,1,5,7,0,-2
1558441673562477,-3,-4,-12,-2,1,4,3,-1
1558441673562477,-3,-4,-6,-4,-11,-13,-6,-2
1558441673577437,-1,0,1,-3,2,-1,-1,1
1558441673577437,5,8,4,2,10,4,6,5
1558441673578435,-1,-3,7,4,2,-2,2,1
1558441673578435,-3,-5,-8,-6,-2,4,-5,-6
1558441673592396,-6,-5,-7,-5,-6,1,-7,-6
1558441673592396,-2,-2,-3,-2,-13,-15,-8,-3
1558441673599378,0,1,1,-1,9,-4,6,3
1558441673599378,1,2,7,4,9,12,5,1
1558441673614338,0,1,4,-1,2,2,4,-1
1558441673614338,-1,-7,-9,-6,-3,8,-7,-7
1558441673623316,0,1,2,0,-3,-1,-3,-1
1558441673623316,-2,1,-3,-2,0,-6,1,-4
1558441673638274,-1,0,-3,2,0,1,-4,-1
1558441673638274,1,-2,1,0,-4,-4,-2,0
1558441673638274,-1,-1,-4,-1,0,7,0,0
1558441673638274,0,2,8,1,-2,-3,-1,-2
1558441673652362,2,2,-2,3,13,27,14,3
1558441673652362,2,0,-4,-3,-9,-23,-8,-1
1558441673660257,-4,-4,-4,-4,-10,-3,-3,-2
1558441673660257,-1,0,5,2,6,6,2,2
1558441673674183,-1,-1,-1,-2,-5,-9,-5,-3
1558441673674183,1,-1,-5,-3,2,-3,-4,-2
1558441673683256,0,2,-2,0,1,8,3,0
1558441673683256,0,0,2,0,-6,-6,3,1
1558441673697220,0,-2,-3,0,5,5,-3,-3
1558441673697220,-4,1,4,1,-2,1,-2,0
1558441673705097,-6,-9,-10,-8,-14,-13,-7,-3
1558441673705097,2,1,0,2,13,4,8,1
1558441673712112,1,-1,6,3,-4,-11,0,2
1558441673712112,-3,-3,-2,0,6,13,1,-1
1558441673720055,-3,1,-1,-2,-2,0,-5,-5
1558441673720055,0,-3,-8,-2,-6,-5,-3,-3
1558441673735016,0,2,4,4,0,-8,0,0
1558441673735016,-2,-4,-3,-4,4,8,6,-2
1558441673742995,1,-1,2,5,-5,-9,-3,0
1558441673742995,-2,-2,-9,-4,1,6,-2,0
1558441673756957,1,1,1,-1,-1,1,4,-2
1558441673756957,-2,-2,-6,-4,-5,-4,-4,-1
1558441673764961,0,-2,2,3,3,5,0,-2
1558441673764961,0,-2,-2,-5,-11,-16,-1,0
1558441673771917,-2,-2,1,1,5,3,-2,1
1558441673771917,-3,-2,-1,-3,-12,-14,-3,-3
1558441673779931,1,-1,0,2,6,8,3,0
1558441673779931,5,5,3,0,-2,1,-2,1
1558441673794913,-1,1,-4,-2,0,3,0,1
1558441673794913,-1,-1,10,5,4,-1,0,1
1558441673802833,0,-4,-11,-6,-4,-10,-3,0
1558441673802833,-4,-2,-2,-6,-4,5,-3,-2
1558441673816796,0,-1,-5,-3,-5,1,-8,-4
1558441673816796,0,-2,6,2,-2,0,-1,1
1558441673825774,-3,0,1,-2,-4,-10,-2,-4
1558441673825774,3,0,-6,-5,2,2,2,1
1558441673831755,-5,-3,2,4,-1,-4,-3,0
1558441673831755,-1,0,-6,-2,2,2,-2,-3
1558441673839793,0,1,2,0,-3,1,1,0
1558441673839793,0,0,1,-2,-5,-5,-6,-4
1558441673854694,-3,2,1,-4,-4,-1,-3,-1
1558441673854694,-1,-1,-3,0,7,12,5,1
1558441673861710,-3,-4,3,0,2,-2,3,-3
1558441673861710,-1,-3,0,-1,-3,-5,-3,3
1558441673876638,5,-1,0,1,4,0,0,1
1558441673876638,3,-1,-6,-4,-5,-6,-6,0
1558441673885614,1,1,-6,-7,-2,0,-5,-1
1558441673885614,4,3,12,7,18,11,11,8
1558441673902843,-3,-4,-5,-2,0,-10,1,0
1558441673902843,-3,-2,1,-2,-11,-4,-5,-3
1558441673902843,-1,-1,-5,1,5,8,2,1
1558441673902843,-3,-4,-4,0,-6,0,-3,-2
1558441673914534,-2,-1,-5,-5,-5,0,-2,2
1558441673914534,-2,-3,3,1,3,-5,5,1
1558441673922514,-1,2,-1,-2,3,1,-3,-2
1558441673922514,-2,-2,0,0,-2,0,-3,-4
1558441673937473,-1,2,5,-1,1,2,-6,-4
1558441673937473,0,-4,-10,-5,-7,-4,2,1
1558441673945452,-4,-2,0,-3,-7,-5,-7,-4
1558441673945452,0,1,4,4,7,11,4,-1
1558441673960411,0,-6,-2,-4,-9,-6,-6,-2
1558441673960411,0,2,1,-1,-4,-7,1,1
1558441673960411,1,1,-1,2,10,6,6,3
1558441673960411,-2,0,1,-1,0,-1,0,-1
1558441673974384,2,3,-1,0,-1,2,2,-1
1558441673974384,1,1,0,-2,4,0,-6,-2
1558441673982361,-4,0,5,1,-9,-2,-5,-2
1558441673982361,-2,-7,-10,-1,-1,-5,2,2
1558441673997315,-6,-7,5,5,7,2,2,0
1558441673997315,-1,2,-2,-2,-4,-9,-3,-3
1558441674013270,6,5,1,0,3,12,6,1
1558441674013270,-1,2,7,2,-2,-12,-5,-3
1558441674021249,-2,-6,-17,-11,-8,-3,-3,-5
1558441674021249,4,3,4,2,-1,4,0,0
1558441674022259,-7,-4,-8,-7,-13,-6,-2,-1
1558441674022259,-2,-3,3,1,3,0,1,-3
1558441674034216,-2,-6,-9,-1,-2,-2,-3,-1
1558441674034216,-2,2,3,-1,3,3,5,2
1558441674042195,4,3,6,0,1,-9,-3,-4
1558441674042195,-3,-6,-11,-6,-15,-1,-8,-4
1558441674057158,0,1,5,2,7,-5,5,-1
1558441674057158,2,-1,6,5,5,1,-3,2
1558441674065131,-2,-3,-9,-5,-5,-1,0,0
1558441674065131,-3,-1,-4,-2,7,18,4,0
1558441674080091,2,8,15,8,10,-10,6,4
1558441674080091,0,0,-11,-2,-2,-3,-3,-3
1558441674081088,1,2,6,-1,2,-8,7,4
1558441674081088,-6,-9,-15,-10,-11,-12,-4,-4
1558441674095052,-4,-3,-1,-3,-9,8,-1,-4
1558441674095052,-4,-2,6,4,-2,-1,2,-2
1558441674102032,-1,-5,-15,-5,-1,2,-1,0
1558441674102032,3,4,9,2,2,-3,1,3
1558441674117013,-3,-2,9,3,0,5,3,-1
1558441674117013,-1,0,-11,-7,-1,-2,0,1
1558441674132951,-2,-1,2,-1,-3,-6,-8,-5
1558441674132951,-2,2,0,-3,-5,-6,-2,-2
1558441674139941,-1,-7,-8,-4,-3,-2,-3,-1
1558441674139941,-8,-1,3,0,-3,1,-3,-2
1558441674140933,1,0,9,4,6,4,2,1
1558441674140933,-2,0,-14,-11,2,-1,-2,-3
1558441674155892,1,1,0,2,-5,-8,2,2
1558441674155892,4,-1,9,5,2,4,3,1
1558441674161875,0,-5,-19,-11,-8,-7,2,-3
1558441674161875,0,0,11,7,-2,-3,-4,-3
1558441674193789,-4,4,-2,-6,-4,1,-6,-3
1558441674193789,3,4,5,3,7,4,-1,-4
1558441674193789,-9,-13,-24,-15,-6,-5,-6,-4
1558441674193789,2,-3,1,2,0,-1,0,1
1558441674199777,4,12,3,-1,-1,2,0,-1
1558441674199777,-5,-17,4,3,-2,-3,-3,-3
1558441674200770,-2,-5,7,7,5,5,1,2
1558441674200770,1,9,-2,-3,-2,-1,-2,1
1558441674216727,-3,-9,-4,-3,-2,-3,-4,-1
1558441674216727,0,10,-3,-2,-3,-8,-1,1
1558441674221713,-6,-12,3,-1,2,3,-3,-5
1558441674221713,-1,-10,-17,-12,-12,-11,-6,-3
1558441674236680,4,1,4,5,7,17,7,0
1558441674236680,6,25,6,0,6,11,8,5
1558441674245650,6,16,19,9,5,2,5,2
1558441674245650,-15,-31,-22,-8,1,-4,-3,-5
1558441674260615,5,5,9,4,1,7,1,0
1558441674260615,-5,-18,-25,-14,-1,-3,-5,-3
1558441674260615,8,16,18,8,0,3,4,4
1558441674260615,7,31,13,8,7,6,1,-1
1558441674275572,-12,-36,-27,-13,-16,-5,1,-4
1558441674275572,-17,-38,-7,-9,-15,0,-11,-8
1558441674282562,1,4,0,0,7,7,7,0
1558441674282562,7,6,23,9,-4,-1,5,4
1558441674297510,-3,22,-4,0,7,-6,-4,-1
1558441674297510,-5,-19,-10,1,2,-1,-3,-3
1558441674305493,-1,-15,-9,-3,-14,-13,-4,-2
1558441674305493,4,0,-5,-5,-8,-20,-11,-1
1558441674320455,-13,-6,1,-4,-7,5,4,-4
1558441674320455,3,9,20,9,5,2,-1,-1
1558441674321448,-1,-8,-17,-2,6,10,7,1
1558441674321448,-2,5,-10,-7,-2,-4,5,0
1558441674334414,1,-5,-8,-8,-21,-8,-10,-4
1558441674334414,2,7,11,5,3,4,1,0
1558441674342419,2,8,11,4,4,-21,-3,2
1558441674342419,0,4,5,5,0,-14,-3,-1
1558441674357351,-2,3,-20,-10,-4,-16,-12,-6
1558441674357351,-7,-11,-16,-12,-19,5,0,-4
1558441674365335,3,7,0,-3,-2,5,-6,-1
1558441674365335,-4,-8,12,9,6,-3,-1,0
1558441674380291,-3,-10,-5,0,0,-2,1,-2
1558441674380291,9,19,18,5,5,-4,5,6
1558441674381286,-6,-7,-23,-10,-2,-1,-12,-3
1558441674381286,-5,-9,0,1,-4,8,3,-5
1558441674394252,4,6,9,2,7,3,0,3
1558441674394252,6,12,1,-2,9,-2,2,3
1558441674402233,-2,-8,8,4,-5,-3,-3,-3
1558441674402233,-4,1,2,-3,1,5,-4,0
1558441674417192,-4,-8,-4,2,11,1,2,1
1558441674417192,-2,-5,-7,1,2,2,0,-2
1558441674425170,-4,2,3,-5,-21,-3,-5,-3
1558441674425170,5,3,-7,-2,-2,1,-5,-1
1558441674440129,4,3,4,-3,1,-10,2,1
1558441674440129,-11,-8,-7,1,2,0,3,0
1558441674441129,-1,-6,9,7,10,-5,4,2
1558441674441129,-4,-6,-13,-6,0,7,-2,-1
1558441674454095,4,6,1,0,-7,-2,-5,0
1558441674454095,-2,1,-1,-4,-4,6,-5,-3
1558441674463070,-1,1,1,-4,-2,-19,-4,0
1558441674463070,2,1,-6,0,-3,0,1,0
1558441674477030,-9,-8,-2,-4,-1,1,-3,-2
1558441674477030,1,0,-2,-1,-3,-5,-5,-2
1558441674485010,-3,-4,-12,-6,-4,5,-4,-3
1558441674485010,-1,-1,7,2,-9,6,6,2
1558441674499970,4,5,4,2,6,2,0,-1
1558441674499970,4,6,18,8,-2,-10,2,3
1558441674500969,-4,-5,2,3,-1,6,-6,-3
1558441674500969,2,-1,-5,-2,4,4,5,3
1558441674514937,-2,-6,-1,-4,-4,-6,-3,1
1558441674514937,2,4,-7,-1,-3,-4,1,0
1558441674521911,0,2,0,-1,2,3,-4,-4
1558441674521911,1,2,4,1,1,-3,-7,-3
1558441674536871,0,-7,-6,-3,-2,4,4,-1
1558441674536871,-4,-2,3,2,3,-8,0,0
1558441674544854,-1,-6,0,-3,-3,0,3,-1
1558441674544854,-1,11,-18,-10,-4,-1,-2,-3
1558441674559809,-6,-16,0,1,0,-2,-4,-2
1558441674559809,3,0,-2,-3,-5,-1,0,-1
1558441674560807,-2,3,0,-1,-7,-8,-5,-3
1558441674560807,-5,-3,13,3,-1,8,9,-3
1558441674574776,6,9,0,5,6,2,5,4
1558441674574776,-10,-9,-13,-3,4,-9,2,-2
1558441674589730,3,5,17,9,7,6,3,2
1558441674589730,-5,-9,-18,-10,1,0,-10,-4
1558441674596710,0,4,5,2,-1,1,-1,-1
1558441674596710,2,1,13,3,-5,-3,-4,-2
1558441674605686,-3,-5,-33,-15,-9,-5,-3,-3
1558441674605686,-3,-6,2,0,0,0,-2,-1
1558441674619649,-2,-2,-3,-5,-5,4,-4,-2
1558441674619649,6,7,15,5,2,-4,-2,1
1558441674627628,0,-2,-6,-2,5,3,1,2
1558441674627628,-1,-4,-3,1,7,1,3,-2
1558441674634615,-4,-4,-3,-4,-13,-12,-13,-6
1558441674634615,-1,3,-5,0,1,-1,3,1
1558441674641594,-1,0,7,0,2,-1,2,0
1558441674641594,3,-1,3,1,2,1,0,4
1558441674657551,5,9,7,2,-1,1,7,2
1558441674657551,-4,-7,-17,-7,-8,1,-14,-4
1558441674665531,1,4,5,3,2,1,5,0
1558441674665531,-3,-5,3,-2,-14,-12,-11,-4
1558441674679490,-1,-4,-4,3,9,14,4,2
1558441674679490,2,-2,-10,-6,8,-8,11,5
1558441674695456,0,5,7,7,6,3,1,0
1558441674695456,2,2,16,3,-5,1,-3,-3
1558441674697442,-4,-6,-18,-8,-9,-4,-14,-6
1558441674697442,-1,-3,-7,1,12,29,26,5
1558441674702440,6,9,3,-2,0,-17,-1,3
1558441674702440,5,11,7,3,1,-6,2,2
1558441674717393,-2,-2,19,6,2,-12,0,-2
1558441674717393,-10,-17,-24,-17,-20,2,-21,-14
1558441674725367,-4,-5,8,5,8,23,1,-1
1558441674725367,-3,-3,-8,-5,6,0,2,-4
1558441674739335,6,13,3,3,14,11,16,9
1558441674739335,-4,-2,5,1,-21,-29,2,-3
1558441674748305,6,9,19,9,17,1,8,3
1558441674748305,-7,-16,-23,-5,7,32,2,-4
1558441674754295,-6,-7,-18,-11,2,2,0,-3
1558441674754295,4,7,11,5,2,-6,0,1
1558441674770247,-4,-3,-4,-9,-26,-20,-16,-8
1558441674770247,1,-1,1,3,-2,0,-1,3
1558441674777229,0,4,15,5,-1,-5,5,-7
1558441674777229,-4,-6,-19,-11,-6,8,-6,-1
1558441674785217,2,2,10,8,18,8,14,5
1558441674785217,-3,-3,-18,-9,-6,-5,-6,5
1558441674800169,1,2,10,5,-3,6,5,2
1558441674800169,2,6,-9,-5,-2,-14,-4,1
1558441674808152,-4,-9,6,0,-3,-1,-6,-2
1558441674808152,-6,-7,-12,-9,-11,-7,-4,-4
1558441674823108,1,-5,-13,-1,5,0,-9,-2
1558441674823108,4,5,-4,-6,-4,-3,-3,1
1558441674823108,-3,-2,-3,-1,3,5,-1,4
1558441674823108,-4,-3,19,10,9,-10,11,1
1558441674837082,1,0,-6,-8,-27,-25,-10,-5
1558441674837082,0,5,0,3,9,18,-5,-3
1558441674845047,-1,-2,-10,-7,-6,3,-1,-2
1558441674845047,2,1,11,2,-4,-11,1,0
1558441674860006,-1,-1,2,3,16,9,4,3
1558441674860006,-1,-9,-16,-9,-8,-5,-1,-3
1558441674867985,-4,-2,5,1,-10,3,-16,-8
1558441674867985,-1,2,-9,-3,-3,-6,-7,-3
1558441674882945,3,0,21,6,5,-5,0,1
1558441674882945,-2,-2,8,6,4,1,2,0
1558441674882945,-3,-7,-32,-13,-3,6,11,-1
1558441674882945,-2,-3,1,-1,-8,-10,-12,-3
1558441674896907,-3,-9,-2,2,3,2,1,2
1558441674896907,4,9,23,10,4,-6,-4,4
1558441674904885,-7,-9,-18,-12,-6,-10,3,0
1558441674904885,1,1,-2,3,11,18,8,-3
1558441674919846,0,9,2,3,-2,-3,-5,-2
1558441674919846,-7,-10,0,-2,-8,0,-9,-11
1558441674927826,2,3,6,1,4,2,5,1
1558441674927826,0,1,-2,-4,-8,-12,-3,-1
1558441674942785,-3,0,5,0,-4,2,8,1
1558441674942785,2,-3,-12,-5,5,-7,4,1
1558441674943783,-1,-1,-8,-5,-10,-6,-2,-4
1558441674943783,-5,-9,8,7,14,12,12,5
1558441674956747,0,4,5,0,-3,-3,-9,-4
1558441674956747,-4,-10,-12,-8,-3,4,3,2
1558441674964737,1,-2,0,2,-3,4,-3,1
1558441674964737,5,5,4,-2,-2,-4,3,1
1558441674979686,2,4,-3,-3,9,0,21,6
1558441674979686,-5,0,12,0,-7,-5,-8,-12
1558441674987664,1,1,9,2,3,-1,-17,-5
1558441674987664,-4,-6,-22,-6,-2,0,-1,-1
1558441675002637,-2,-1,-4,-4,-2,2,3,-3
1558441675002637,-3,-3,-3,5,1,0,-14,-5
1558441675003623,-3,-4,2,1,-3,-9,-14,-3
1558441675003623,2,8,13,7,4,1,4,4
1558441675016586,-4,-5,-13,-6,-8,-12,-9,-7
1558441675016586,-6,-7,-6,-7,2,5,1,0
1558441675025563,6,7,13,6,-9,-17,4,3
1558441675025563,-7,-14,-18,-14,-5,-9,-15,-7
1558441675039527,5,5,5,6,12,27,15,6
1558441675039527,-2,-1,8,-6,-12,-9,0,2
1558441675047504,-5,-8,-30,-8,-2,-5,-1,-3
1558441675047504,1,5,7,1,-7,-3,-3,-1
1558441675062467,-8,-12,-11,-12,-12,-9,-12,-7
1558441675062467,-1,-1,7,5,1,5,-4,-5
1558441675063465,3,3,9,5,4,-1,7,2
1558441675063465,0,6,2,3,6,9,6,1
1558441675077427,-7,-10,-10,-6,-19,-6,-18,-7
1558441675077427,4,7,12,9,11,8,4,4
1558441675085415,-1,-4,-11,-8,-4,-14,3,-1
1558441675085415,3,1,-6,-3,-3,4,-4,-4
1558441675099366,1,-2,16,11,3,-2,-2,0
1558441675099366,-5,-6,-19,-7,-3,4,5,1
1558441675108344,-2,-3,2,-6,-10,2,-15,-9
1558441675108344,4,4,7,5,12,5,9,1
1558441675122316,0,1,-5,-1,-1,-3,-6,0
1558441675122316,1,2,5,-4,-7,-16,0,0
1558441675123308,-7,-2,1,4,9,20,1,-2
1558441675123308,4,0,12,2,-2,7,5,0
1558441675146241,2,1,-5,-1,3,-14,-1,3
1558441675146241,1,2,-3,0,-1,-5,0,-3
1558441675146241,-1,0,-13,-7,-3,3,6,0
1558441675146241,-4,-6,-2,-5,-12,-6,-10,-4
1558441675159217,-1,3,11,3,2,3,-8,-4
1558441675159217,2,2,-7,-6,-6,-3,-6,0
1558441675168181,-4,-7,-5,0,5,0,-2,-2
1558441675168181,-4,1,-3,-5,-8,-9,1,-1
1558441675183149,-5,-2,-6,-1,1,4,-2,-4
1558441675183149,2,2,9,5,-1,-1,2,5
1558441675183149,4,8,16,6,-1,5,8,-2
1558441675183149,-11,-14,-16,-7,-6,-9,-4,-1
1558441675198110,-2,-4,-3,-5,0,1,-2,-1
1558441675198110,8,8,6,2,7,5,8,5
1558441675205086,4,8,1,2,1,-5,0,2
1558441675205086,-5,-7,6,4,-4,-7,1,-1
1558441675219048,-7,-6,-18,-9,-6,4,-7,-9
1558441675219048,-2,-6,0,1,6,2,-3,-1
1558441675228024,1,2,7,1,-6,3,7,1
1558441675228024,4,4,4,-1,2,-10,-3,-1
1558441675242984,0,-3,-7,-5,3,1,4,4
1558441675242984,-2,-3,3,3,3,1,0,1
1558441675242984,-5,-6,-9,-5,-5,0,-2,-1
1558441675242984,-6,0,-5,-3,-3,6,-13,-10
1558441675256944,2,-4,1,-2,4,-7,0,3
1558441675256944,1,2,-1,-2,-3,-1,-3,-1
1558441675264940,2,-3,3,0,1,1,-5,-1
1558441675264940,-2,0,-2,0,-5,-2,1,-2
1558441675279886,4,3,4,4,6,5,-2,2
1558441675279886,-2,3,-2,-4,-10,-11,2,-1
1558441675287873,-3,-8,0,-1,3,2,-1,-3
1558441675287873,3,4,-8,-7,2,7,10,3
1558441675302822,-3,-2,-10,-1,-6,-7,-1,2
1558441675302822,-4,-3,2,5,3,10,5,-1
1558441675303819,-3,-4,-7,-4,-5,-4,1,0
1558441675303819,7,7,25,11,3,3,-3,1
1558441675316784,6,-1,-13,-6,5,4,2,4
1558441675316784,0,-2,-8,-3,7,2,-6,-2
1558441675324765,-1,-1,0,-1,-2,-3,-9,-4
1558441675324765,-3,-4,-2,-4,-11,-10,-12,-1
1558441675339724,-5,3,11,3,1,14,3,-2
1558441675339724,-3,-3,-8,-4,-8,-12,-4,-7
