timestamp,emg1,emg2,emg3,emg4,emg5,emg6,emg7,emg8
1558441581821879,-1,-1,-1,-1,-2,-2,6,2
1558441581821879,1,2,1,-3,5,5,5,1
1558441581827863,0,4,3,4,2,-4,3,-2
1558441581827863,-2,-2,-3,-4,-4,-7,-14,-1
1558441581828861,0,1,1,-1,6,8,0,-1
1558441581828861,-2,-4,-4,1,-2,7,-3,-3
1558441581829858,0,-4,-3,1,1,-1,-1,1
1558441581829858,-2,-1,1,-1,3,4,-6,-2
1558441581840829,-1,-2,1,1,-4,-5,-12,0
1558441581840829,0,0,-1,2,-1,-8,4,1
1558441581848808,0,0,2,-2,2,4,-2,0
1558441581848808,5,7,6,2,-7,-5,-2,-3
1558441581855789,-6,-10,-11,-5,-8,-1,-2,-3
1558441581855789,-4,-2,-10,-4,-6,-5,-8,0
1558441581870747,0,-4,-1,-1,7,3,8,5
1558441581870747,3,3,-1,-2,1,1,3,3
1558441581878726,0,4,5,2,1,-7,-1,0
1558441581878726,1,-1,4,-1,-6,-5,-7,-3
1558441581886706,-1,1,-2,-3,-6,4,2,-3
1558441581886706,3,-1,1,2,5,-2,5,0
1558441581900669,1,4,8,3,4,-7,5,-1
1558441581900669,-4,-5,-3,-6,-5,-2,-2,-1
1558441581908654,1,-1,-3,-1,5,4,6,0
1558441581908654,-4,-6,-11,-3,-6,-7,1,-3
1558441581946546,1,2,3,-3,5,6,0,0
1558441581946546,-3,-1,-3,-1,-8,-8,-3,-2
1558441581953527,5,4,2,3,-2,-15,-3,1
1558441581953527,-5,-3,3,-1,2,7,-5,-4
1558441581954524,-3,-9,-4,0,1,-2,4,-2
1558441581954524,1,0,5,0,-3,-2,-4,-1
1558441581955523,-3,-4,-7,-5,-2,10,-5,-1
1558441581955523,3,5,2,2,3,8,-1,1
1558441581960509,1,2,0,1,-3,-8,0,0
1558441581960509,-2,-7,-3,-1,-2,-9,-7,1
1558441581967489,-2,4,1,0,3,5,10,1
1558441581967489,4,-7,0,1,2,2,-2,0
1558441581975468,-13,-9,-7,-3,-5,-2,-6,-4
1558441581975468,-3,-4,-3,0,0,4,-3,-2
1558441581990428,-2,3,7,0,4,1,12,3
1558441581990428,-3,-6,-13,-5,-6,-8,-4,-2
1558441581997410,3,3,3,-2,-5,-2,-6,-3
1558441581997410,2,1,-2,-1,-4,-5,-4,-3
1558441582012370,-1,-5,-1,1,1,9,4,0
1558441582012370,-4,3,1,-1,-3,-8,-3,-4
1558441582020348,1,-2,-1,-4,2,-2,0,-3
1558441582020348,-3,0,-1,-3,-9,-3,-11,-4
1558441582027330,0,1,-2,3,5,-3,6,-2
1558441582027330,-4,-2,1,-3,-8,-8,-1,-2
1558441582035308,1,1,-3,1,1,5,2,1
1558441582035308,1,3,1,-2,0,-4,0,0
1558441582067223,1,0,4,5,-2,1,-5,-2
1558441582067223,-1,-7,-8,-1,5,-5,0,1
1558441582068220,5,4,0,-2,-9,-5,-2,0
1558441582068220,-13,-8,-2,-2,1,9,2,-4
1558441582069218,-4,-5,-5,-6,-10,-11,-5,-5
1558441582069218,-1,-4,3,1,-1,-2,3,1
1558441582080187,1,4,4,4,5,5,2,2
1558441582080187,5,2,-9,-4,1,-5,5,1
1558441582089164,-1,2,3,0,6,9,1,0
1558441582089164,1,3,2,1,3,3,-2,1
1558441582095147,-1,-4,-2,1,0,-5,7,2
1558441582095147,-1,1,2,-2,-3,1,-4,-3
1558441582118086,-4,-6,-1,-2,0,2,-14,-2
1558441582118086,-1,3,-4,-2,3,-3,-1,-1
1558441582119084,-3,-5,-7,-5,-6,-1,-5,-4
1558441582119084,-2,-1,1,1,-4,0,1,0
1558441582133047,0,-2,-1,2,3,-12,10,2
1558441582133047,1,4,0,-3,-5,-3,-2,1
1558441582141025,-4,-6,4,2,3,12,6,-2
1558441582141025,0,-2,-3,-3,-6,-8,3,-1
1558441582148006,0,-3,-7,-5,-8,-1,-6,-3
1558441582148006,4,7,7,3,8,9,12,1
1558441582154988,-8,-4,-10,-4,-1,-8,-5,-2
1558441582154988,3,-3,4,0,2,5,-5,-3
1558441582169948,2,0,-4,-6,-6,-2,-4,-2
1558441582169948,-5,-3,-2,0,-5,-16,-6,-3
1558441582177927,3,4,-1,1,2,14,4,1
1558441582177927,1,-1,0,1,4,-2,6,2
1558441582201862,0,0,0,-2,-5,-12,-9,-4
1558441582201862,-2,0,-1,-2,-3,3,1,0
1558441582201862,0,2,4,1,4,3,1,1
1558441582201862,-1,2,1,1,1,-2,-1,1
1558441582207846,-4,-1,-1,-5,-2,-2,10,0
1558441582207846,-3,-6,2,1,-4,6,-5,-6
1558441582214828,1,0,-7,-5,-4,-10,-9,-1
1558441582214828,4,3,-1,-1,5,9,5,2
1558441582229790,-2,-3,0,3,9,18,2,1
1558441582229790,-2,-3,1,-1,-1,-4,0,-2
1558441582237768,-3,-1,4,0,-7,-10,-7,-5
1558441582237768,0,2,1,-3,-2,3,-6,-1
1558441582252731,-5,-7,-6,-7,-7,-12,-13,-4
1558441582252731,0,0,-2,-1,0,1,5,3
1558441582260706,4,2,1,-1,-2,3,10,1
1558441582260706,4,3,3,0,3,-5,1,-2
1558441582267686,-6,-4,1,2,4,11,0,1
1558441582267686,0,-6,-8,-5,-4,-1,0,-1
1558441582274668,-6,-6,3,-2,0,-5,-5,-1
1558441582274668,-1,-1,-1,0,0,1,2,0
1558441582290625,-1,0,-4,-1,1,3,3,1
1558441582290625,1,-1,0,-2,-7,-12,-14,-6
1558441582297607,-1,3,-1,-1,-3,-3,-8,-3
1558441582297607,-2,-7,3,4,7,-2,4,0
1558441582312566,0,-1,-1,-2,-7,-1,-7,-5
1558441582312566,-1,0,-5,-2,-2,2,-1,-3
1558441582320544,-3,-2,-4,-5,-4,-11,-14,-3
1558441582320544,-2,-3,0,-1,0,-2,5,1
1558441582327526,-3,-2,-5,1,-5,-9,-9,-4
1558441582327526,-3,-1,2,-1,0,7,4,-1
1558441582335505,0,2,-1,-3,-1,3,-11,-3
1558441582335505,-2,-3,1,-1,1,-2,3,2
1558441582350465,4,4,5,-1,-1,3,1,3
1558441582350465,2,2,0,-1,-5,-1,-3,-1
1558441582357446,-3,-12,1,1,3,-5,5,0
1558441582357446,0,0,-7,-3,-2,-1,2,-1
1558441582372407,-1,-3,-2,-1,-2,-1,1,-1
1558441582372407,-4,-3,-4,-5,-6,-3,-5,-1
1558441582380386,1,3,1,0,5,-1,1,0
1558441582380386,-3,0,-1,1,0,8,2,-1
1558441582387366,3,4,3,1,3,-1,0,1
1558441582387366,0,5,1,-4,3,9,-2,1
1558441582395346,-6,-12,-7,-1,-6,0,4,-3
1558441582395346,-2,-1,-2,-3,-2,-10,-7,-3
1558441582410306,-1,-1,-4,-3,-4,-8,-6,-3
1558441582410306,-4,-2,3,-2,-6,-6,-7,-3
1558441582417286,3,3,3,3,1,4,9,2
1558441582417286,-6,-5,-8,-5,4,8,3,1
1558441582432248,-1,-1,-4,0,-4,-5,8,1
1558441582432248,0,-2,-1,0,1,-16,0,-1
1558441582441223,0,3,0,-2,0,0,5,1
1558441582441223,2,0,1,-3,-2,-2,-13,-2
1558441582447207,4,3,3,0,-2,-5,-1,1
1558441582447207,3,1,2,0,0,5,4,1
1558441582463164,-6,-4,-1,0,1,3,2,-1
1558441582463164,-1,-1,-3,-2,3,8,2,0
1558441582470145,-2,-2,-7,-2,1,-4,-2,-1
1558441582470145,1,-1,-1,1,-3,0,-2,-1
1558441582478123,0,-6,1,-3,-12,-15,-8,-3
1558441582478123,-2,0,0,1,-3,2,-4,-2
1558441582493084,3,4,4,1,11,11,-1,1
1558441582493084,-1,-2,3,4,6,4,7,1
1558441582501063,0,2,-5,-4,-2,-6,-3,-1
1558441582501063,-7,-3,-1,0,-3,-5,-4,-6
1558441582508044,-2,0,0,-3,-4,-6,-4,-4
1558441582508044,-6,-7,-3,-2,-2,11,-10,-6
1558441582523003,1,2,2,2,-1,-3,0,1
1558441582523003,5,2,1,0,0,-11,3,2
1558441582529985,-2,1,-4,-4,-5,-2,-1,-2
1558441582529985,-6,0,-1,1,4,4,5,2
1558441582537964,0,-2,-3,-4,-4,0,-1,-1
1558441582537964,0,0,-2,-1,-5,-7,-5,-1
1558441582552924,-4,-4,5,0,4,10,8,0
1558441582552924,1,2,-1,-3,0,-4,6,3
1558441582560902,4,3,-1,0,1,9,1,2
1558441582560902,-1,0,3,-4,-8,-7,0,-2
1558441582567883,-12,-7,-3,1,2,2,-4,-1
1558441582567883,0,-3,0,-1,2,-2,-5,-4
1558441582582843,1,3,0,-1,7,12,6,3
1558441582582843,1,2,-4,-2,-9,-3,-5,-2
1558441582589825,-1,-3,-1,-3,-13,-12,-8,-3
1558441582589825,0,-3,-4,-1,-1,-5,7,2
1558441582597803,-3,-1,-3,0,0,0,-3,0
1558441582597803,1,7,0,-1,-5,-2,-4,-3
1558441582612763,-1,-4,5,3,0,6,-3,-3
1558441582612763,-4,-2,-5,-3,2,-2,1,2
1558441582628721,-2,-4,2,3,4,-14,0,0
1558441582628721,-5,-4,-3,-3,-5,-2,-8,-5
1558441582630716,2,1,2,-2,-1,7,1,0
1558441582630716,3,1,2,2,1,4,2,-1
1558441582643682,-4,0,-1,-1,-6,-5,-7,-8
1558441582643682,2,-1,-2,-1,3,6,0,-3
1558441582651659,-2,-2,-2,-3,-3,-21,-7,0
1558441582651659,0,-4,4,5,3,5,1,-2
1558441582657643,2,3,0,-3,-6,-3,-2,-2
1558441582657643,4,1,-1,1,3,11,0,2
1558441582673600,-3,-3,-8,-5,-2,-4,-9,-5
1558441582673600,1,7,-1,-2,-1,-10,0,2
1558441582680581,-3,-6,-1,-2,-3,0,-7,-2
1558441582680581,-1,-6,1,2,2,-3,1,0
1558441582689558,2,2,4,0,0,2,-5,0
1558441582689558,-3,-1,-13,-6,-9,-4,-3,-3
1558441582703524,2,0,0,0,2,6,4,3
1558441582703524,-3,1,0,-1,3,-10,1,3
1558441582710503,-1,0,0,-2,-3,2,4,-3
1558441582710503,-6,-10,-3,-2,-4,-4,-6,-5
1558441582717483,0,1,0,1,2,13,-1,-2
1558441582717483,-4,-6,-7,-4,2,4,6,2
1558441582732443,3,2,3,0,1,-9,7,3
1558441582732443,4,3,4,2,2,5,-1,-1
1558441582740421,-4,-1,-6,-3,-1,-1,3,-3
1558441582740421,-5,-4,2,0,-4,-4,-2,-3
1558441582749402,1,1,-1,-2,-5,-2,-4,-2
1558441582749402,0,-1,1,-1,1,3,6,2
1558441582763365,-2,-3,-2,-2,0,-11,1,-1
1558441582763365,-1,3,0,-1,-2,2,1,-3
1558441582770342,-8,-6,-5,-2,-6,4,-4,-4
1558441582770342,-1,-1,1,-1,-3,-13,-8,-2
1558441582777329,1,-1,-5,-1,5,5,7,3
1558441582777329,-2,0,-1,-2,-2,6,2,-3
1558441582792288,2,-1,0,2,-3,-8,-4,-3
1558441582792288,-5,-3,-5,-5,-9,-11,-10,-5
1558441582800271,1,5,2,3,1,5,3,-1
1558441582800271,1,-6,1,2,1,-5,-1,0
1558441582809242,1,-3,-10,-4,9,8,7,2
1558441582809242,-2,-3,7,2,-2,-8,-3,-3
1558441582831180,2,3,-2,-6,-3,1,-19,-3
1558441582831180,-6,-9,-11,-4,-10,2,1,1
1558441582833175,-1,-1,-1,1,3,5,12,3
1558441582833175,2,1,3,4,15,6,11,4
1558441582837164,-4,-2,-2,-3,-6,-7,-3,-1
1558441582837164,-2,0,3,-5,-1,0,-4,-3
1558441582853121,-4,-3,-3,-3,-4,-4,-1,-2
1558441582853121,1,1,-3,-2,-3,10,-4,-1
1558441582860106,1,-1,4,3,-2,-7,2,1
1558441582860106,2,3,4,0,0,-12,0,-1
1558441582869080,1,-4,-3,-2,-4,-3,-5,-3
1558441582869080,-2,-1,1,-2,-2,3,-3,-5
1558441582883046,1,3,4,0,-2,-2,-6,-2
1558441582883046,-7,-7,-11,-3,1,2,4,-1
1558441582890025,-2,1,8,5,4,2,3,3
1558441582890025,0,1,-7,-1,5,8,6,3
1558441582898007,1,1,-3,-4,-7,-13,-5,-3
1558441582898007,4,4,7,1,1,2,2,0
1558441582912962,-1,0,2,2,-3,-2,-3,0
1558441582912962,-4,-8,-7,-4,-5,-13,-3,2
1558441582919944,-3,-2,-3,0,-3,1,-4,-2
1558441582919944,1,5,5,0,3,2,1,1
1558441582934904,0,-2,-3,-1,3,8,4,2
1558441582934904,0,2,1,-3,-8,-9,-1,-1
1558441582943880,-1,-4,-2,3,1,-5,5,2
1558441582943880,1,-4,-2,0,-1,-3,-9,0
1558441582958839,4,3,4,-1,-3,0,2,-1
1558441582958839,-4,-2,-8,-1,-3,7,-1,-3
1558441582958839,-3,-3,-4,-2,4,2,3,1
1558441582958839,4,4,2,2,4,-8,3,4
1558441582972804,3,1,0,0,-1,-10,-4,0
1558441582972804,-5,-4,1,-1,-5,0,-9,-5
1558441582979789,-2,-5,0,-4,-8,0,-6,-3
1558441582979789,-2,1,-1,4,14,17,13,4
1558441582994746,2,0,-2,-4,-3,-8,-2,0
1558441582994746,0,-1,-3,-1,5,6,3,1
1558441583003725,-1,5,1,-1,-3,0,-9,-5
1558441583003725,1,-4,1,-3,-4,-3,-6,-3
1558441583018679,-2,2,-2,1,-3,-3,1,-1
1558441583018679,-1,-1,1,-4,-6,-4,-6,-3
1558441583018679,-5,-6,-7,-2,4,15,5,-3
1558441583018679,-1,0,-3,-1,2,3,-1,-1
1558441583032641,0,2,4,1,-2,-14,9,4
1558441583032641,-2,-2,4,3,2,-2,-6,-2
1558441583040620,1,-2,-14,-7,-5,-2,-4,0
1558441583040620,-4,-2,-4,-5,-8,-1,-6,-4
1558441583055581,-5,-6,-4,-2,-2,6,-7,-5
1558441583055581,4,2,7,2,7,-8,10,5
1558441583063560,3,2,5,3,3,0,4,0
1558441583063560,-8,-7,-3,-1,-7,-6,-23,-5
1558441583078518,-1,1,-4,-3,4,14,9,2
1558441583078518,0,-1,-2,-3,-6,-3,-2,-2
1558441583078518,-3,-2,3,0,2,0,2,0
1558441583078518,1,3,0,-3,-6,-5,-4,-2
1558441583092480,-3,0,8,1,0,-4,-10,-1
1558441583092480,0,-5,-14,-5,1,-2,2,2
1558441583100458,4,2,0,0,5,4,4,3
1558441583100458,0,-4,1,0,0,3,1,-4
1558441583115417,-4,0,-6,-3,1,-8,-3,0
1558441583115417,-1,-5,-3,-3,-1,4,-3,-1
1558441583123396,-8,-11,-3,-4,-6,-9,-8,-5
1558441583123396,-1,0,-2,-2,-7,-8,1,-2
1558441583138363,1,0,0,-1,0,-4,1,-1
1558441583138363,1,6,1,-1,2,13,1,1
1558441583139362,-1,4,5,3,4,-5,2,2
1558441583139362,-1,-4,-4,-4,-1,10,-1,-1
1558441583152334,-1,-2,-5,-3,-5,-7,-4,-4
1558441583152334,0,1,-2,-2,-12,-16,-13,-7
1558441583193211,0,-7,2,0,-2,-2,2,1
1558441583193211,-2,0,4,1,7,11,5,0
1558441583194211,-2,-2,-2,-2,-10,-5,-1,0
1558441583194211,1,1,0,0,4,1,10,1
1558441583195209,-2,-1,-1,-2,-3,-1,2,0
1558441583195209,0,-2,-2,-1,-3,-10,-6,-2
1558441583200199,-4,-5,-1,-2,-1,1,-5,-4
1558441583200199,-4,-5,-6,-2,-4,2,-6,-5
1558441583200199,-1,2,1,4,10,15,9,3
1558441583200199,0,-1,-3,0,1,-9,-4,3
1558441583245073,-1,-1,0,-6,-2,4,-1,0
1558441583245073,0,2,3,0,-1,-6,4,1
1558441583246069,2,2,-2,-4,-5,-8,-5,0
1558441583246069,-2,-5,2,2,3,2,1,0
1558441583247068,-5,-8,-6,-1,2,7,-4,-2
1558441583247068,1,-3,-3,-2,-8,-7,-2,-2
1558441583251055,2,1,-3,-1,4,-1,4,0
1558441583251055,-8,-1,8,1,6,5,9,3
1558441583258037,0,4,8,3,-1,0,0,0
1558441583258037,-5,-7,-21,-6,-7,-7,-4,-1
1558441583259035,-4,-4,-11,-12,-12,-12,-11,-5
1558441583259035,-2,-5,-9,-6,-17,-8,-4,-9
1558441583280976,-1,-1,7,6,14,2,7,2
1558441583280976,-4,3,7,2,6,7,0,1
1558441583281973,3,2,8,4,2,4,3,1
1558441583281973,-3,-4,-10,-5,-8,-5,-12,-4
1558441583305911,3,2,-5,-3,-3,1,5,3
1558441583305911,0,2,6,1,5,-1,3,0
1558441583305911,1,0,1,3,4,-3,5,-1
1558441583305911,-3,-7,3,2,-4,-3,-6,-2
1558441583317884,-2,-1,-5,-1,0,5,-3,-3
1558441583317884,1,0,0,0,2,8,3,0
1558441583318876,-3,0,1,0,-2,-1,-2,-3
1558441583318876,3,3,-1,-2,0,-9,2,0
1558441583340922,0,-2,-5,-3,-4,-5,-2,-2
1558441583340922,-1,0,1,-3,-7,-5,-3,-2
1558441583341825,-5,-9,-1,1,-5,3,-6,-3
1558441583341825,6,4,9,2,2,-3,5,3
1558441583356778,0,-3,-11,-2,6,9,-4,-1
1558441583356778,-1,0,3,1,0,-4,0,1
1558441583363840,2,4,0,-1,0,-9,-5,0
1558441583363840,-3,-2,-5,-5,-5,-1,-5,-4
1558441583377772,-6,-5,1,-3,-7,-3,0,-3
1558441583377772,3,2,4,0,3,-1,-1,1
1558441583385700,1,-2,-1,-4,-2,0,1,-2
1558441583385700,4,4,4,5,4,1,3,0
1558441583393715,1,-1,-2,-4,-7,-4,-7,-5
1558441583393715,-2,-1,0,0,0,3,-3,-2
1558441583400785,-2,2,12,6,6,5,-1,-1
1558441583400785,1,0,-11,-3,5,6,6,4
1558441583415815,0,-1,9,2,-4,-6,-6,-3
1558441583415815,0,-7,-4,0,-1,-1,3,0
1558441583423604,-2,-4,-10,-8,-10,-6,-7,-4
1558441583423604,-1,3,1,2,5,3,2,1
1558441583470469,0,-1,-3,0,-5,-10,-4,-1
1558441583470469,3,4,3,3,12,13,10,4
1558441583471468,0,-5,2,2,-1,4,-2,2
1558441583471468,-8,-5,-5,-4,-8,-5,0,-4
1558441583472465,-1,-1,-1,-2,-2,-3,-6,-4
1558441583472465,-3,-5,-2,-2,-5,-9,-1,-3
1558441583476457,4,2,-1,-1,-1,-2,-2,3
1558441583476457,2,4,-1,-5,-7,-4,-2,-2
1558441583477450,-2,-4,1,-1,-1,-1,-6,1
1558441583477450,0,1,-3,-1,3,4,3,0
1558441583483434,-4,-2,-6,-1,3,-2,-3,-1
1558441583483434,2,0,3,1,-5,-7,3,2
1558441583507371,-1,-1,-7,-2,3,-1,3,1
1558441583507371,-2,-1,-3,-3,-7,-8,-10,-4
1558441583507371,-3,-3,0,0,0,5,7,-1
1558441583507371,5,4,2,1,0,3,-8,-5
1558441583521671,1,-3,-1,0,3,4,6,3
1558441583521671,0,-3,1,-1,-1,-5,3,1
1558441583521671,-4,-3,-7,-2,-4,-4,-3,-2
1558441583521671,1,3,4,2,5,7,12,2
1558441583535295,2,7,-2,-2,0,0,0,-1
1558441583535295,-1,-5,2,-2,-5,-9,-8,-2
1558441583543273,-6,-4,1,0,-5,-7,-4,-2
1558441583543273,0,0,-6,-5,2,1,-3,1
1558441583583614,0,-1,-2,-1,2,9,7,-1
1558441583583614,-5,-6,-1,-4,-8,-10,0,-2
1558441583583614,5,2,0,-1,0,0,-3,-3
1558441583583614,-3,-3,0,-1,2,3,-5,-1
1558441583585163,-1,-3,5,2,6,5,1,0
1558441583585163,0,3,-1,-2,-5,5,-7,-2
1558441583588614,-7,-4,-9,-4,-5,-3,-5,-3
1558441583588614,0,-1,-1,-2,-1,-17,2,-1
1558441583595347,1,-3,-7,-2,-2,-8,-5,-1
1558441583595347,-1,2,4,1,1,7,-1,-1
1558441583604581,1,-2,5,-1,-3,-1,-1,0
1558441583604581,-2,-5,-4,-1,-3,1,-4,-4
1558441583617653,-2,-2,-2,0,1,2,-5,-1
1558441583617653,-2,-2,0,1,0,3,1,5
1558441583634548,2,1,-5,-4,-6,-10,7,-1
1558441583634548,3,3,6,3,5,11,8,3
1558441583641270,-3,-5,0,-2,-4,-6,0,-1
1558441583641270,0,1,-5,1,1,0,-6,-1
1558441583641270,-8,-3,5,0,1,6,5,-1
1558441583641270,-1,-3,-8,-4,-5,-5,1,-1
1558441583695625,-4,-2,1,-3,-3,-8,-2,-2
1558441583695625,0,0,1,0,2,4,2,0
1558441583696123,1,-2,-5,-1,2,4,9,0
1558441583696123,1,0,9,4,-1,-1,-4,-2
1558441583698394,-4,-3,-8,-4,-2,-5,4,0
1558441583698394,1,-3,-3,-2,-1,-8,-4,-6
1558441583702106,-2,-3,-3,-1,-2,-6,-3,-3
1558441583702106,-3,-1,-3,-2,-3,13,-4,-2
1558441583703104,5,9,4,1,-1,8,4,1
1558441583703104,-3,-4,1,0,0,-6,-3,-2
1558441583704101,-1,-2,-6,-1,0,-15,-3,-1
1558441583704101,-4,-3,1,-2,3,5,-3,0
1558441583715424,-1,0,1,-1,-3,5,-3,0
1558441583715424,4,11,1,0,4,1,2,0
1558441583724197,-5,-9,-4,1,0,1,-8,-1
1558441583724197,-7,-9,-11,-6,-9,-12,-2,-3
1558441583747097,-1,0,2,-3,-4,-4,-5,-5
1558441583747097,-1,-2,-3,0,-7,3,0,1
1558441583747097,7,6,5,3,8,0,9,5
1558441583747097,0,-1,-4,-4,-2,-5,-13,-2
1558441583761186,1,1,1,2,2,1,-3,0
1558441583761186,-4,-3,1,-2,-2,0,0,-1
1558441583761947,-3,-4,-2,-1,-1,0,1,-1
1558441583761947,-2,-2,-4,-3,-1,5,-2,-2
1558441583808020,-1,1,0,-1,-7,-5,-3,-2
1558441583808020,0,-4,-4,-3,0,3,-1,-1
1558441583808825,2,5,-5,-2,2,-3,2,0
1558441583808825,-4,-7,1,-2,4,-5,5,3
1558441583809819,-3,-3,0,3,4,-2,2,-2
1558441583809819,-2,-1,-1,-1,-1,-5,3,0
1558441583813810,0,3,4,2,-9,-2,-12,-6
1558441583813810,-3,-4,-9,-5,-8,-3,-8,-7
1558441583820828,1,-4,1,3,9,-1,11,3
1558441583820828,-1,-3,-1,-2,-2,-3,2,-1
1558441583821787,2,4,3,-2,-4,4,-5,-6
1558441583821787,-2,-1,-3,-3,-1,-4,0,-1
1558441583860719,0,-1,-2,0,-1,-6,-6,-1
1558441583860719,-1,-3,-10,-7,0,0,1,-3
1558441583861685,2,1,4,-3,0,6,-2,0
1558441583861685,-4,-4,0,2,2,4,1,-1
1558441583866924,-2,-2,1,-1,-1,0,-3,-2
1558441583866924,-2,-1,4,3,-3,-3,-2,1
1558441583867667,0,2,-4,-4,-1,0,-3,1
1558441583867667,-1,-5,-2,-2,-4,-5,-5,-3
1558441583881628,-1,-1,-1,-4,-7,-4,-6,0
1558441583881628,-3,-1,5,4,8,4,6,3
1558441583882624,-3,-2,-5,-2,2,1,1,0
1558441583882624,6,11,11,5,7,-3,8,5
1558441583895588,1,-5,-10,-2,-8,-5,-6,-3
1558441583895588,-7,-11,-6,-5,-10,-2,-8,-6
1558441583911692,-5,-4,-3,0,-1,0,-9,-2
1558441583911692,4,6,4,2,2,6,9,3
1558441583917852,2,5,-2,-4,-8,-10,-8,-1
1558441583917852,0,-1,-2,0,-1,-10,2,3
1558441583926692,0,0,1,0,4,9,4,0
1558441583926692,-2,-2,-4,0,-4,-8,-2,-1
1558441583949764,0,2,2,-2,1,7,-1,-2
1558441583949764,1,3,0,1,4,9,-1,-1
1558441583950445,-3,-7,-7,-9,-7,-8,0,-3
1558441583950445,3,6,1,1,-1,7,0,-2
1558441583964703,-4,1,4,0,6,-5,4,2
1558441583964703,-6,-9,-12,-3,0,1,0,-3
1558441583971429,-3,2,1,2,1,2,-1,-3
1558441583971429,-1,-4,-3,-4,-2,3,-3,-3
1558441583978370,0,3,0,0,-4,6,2,-3
1558441583978370,-4,-2,1,-3,-5,-13,-6,-4
1558441583985366,-1,-7,0,1,2,5,3,3
1558441583985366,0,-1,3,4,2,-14,1,3
1558441584001309,-3,-3,-7,0,6,3,1,-2
1558441584001309,5,8,4,-3,-8,3,-2,-2
1558441584002303,-2,-3,-4,-3,-7,-9,-7,-2
1558441584002303,-4,-1,2,1,5,5,-2,-1
1558441584025417,-2,-4,-2,-3,-2,-7,0,0
1558441584025417,0,0,0,-2,2,-1,-5,-2
1558441584026244,-1,-1,-3,0,-5,-6,-5,0
1558441584026244,1,-2,-2,-2,-2,0,5,0
1558441584037211,-2,-2,1,-3,-7,1,1,-2
1558441584037211,2,4,0,-1,1,-6,-2,-3
1558441584069129,0,6,12,4,4,-5,7,5
1558441584069129,0,-6,-21,-10,-4,-3,-7,-1
1558441584078102,-6,-10,-2,0,-1,14,3,-1
1558441584078102,-1,0,2,-1,-2,-2,-4,-1
1558441584079099,2,3,2,3,7,4,10,0
1558441584079099,-1,1,4,0,-4,-6,-4,0
1558441584084122,0,1,-2,-2,-5,-10,-7,0
1558441584084122,2,1,0,-1,4,3,4,2
1558441584085083,2,8,1,0,5,7,0,-2
1558441584085083,-6,-8,-6,-2,-2,-1,-6,-2
1558441584098048,-3,-3,0,-1,0,0,-1,1
1558441584098048,-2,0,-4,-1,-5,-5,-5,-2
1558441584113038,-5,-5,-2,-3,-6,0,-1,-2
1558441584113038,4,3,-2,1,0,-2,-2,0
1558441584120987,2,1,3,0,2,3,-3,-2
1558441584120987,-4,-6,-3,-2,-5,-5,3,2
1558441584120987,-1,-3,-6,-1,-2,5,5,-2
1558441584120987,-2,-1,1,0,2,3,2,0
1558441584134950,2,2,1,2,8,4,3,3
1558441584134950,4,1,0,1,-1,-2,-5,1
1558441584142987,1,-3,-1,-2,-4,3,-1,-3
1558441584142987,-4,-3,0,-3,-7,-10,-8,-3
1558441584157889,0,4,-3,-2,1,1,1,-1
1558441584157889,-3,-1,2,-1,-7,0,-4,-5
1558441584165865,-6,-8,-5,-3,-2,-16,-6,1
1558441584165865,-2,1,2,2,4,16,4,-2
1558441584180826,-1,2,-1,-2,-1,2,-1,-3
1558441584180826,3,3,7,4,4,-4,3,3
1558441584181823,-5,-8,-6,-4,-6,-12,-2,-1
1558441584181823,-2,-2,3,-2,0,0,3,0
1558441584196018,1,-1,-6,-2,-7,-8,3,-2
1558441584196018,-3,-3,-4,-3,3,11,0,-4
1558441584204085,-3,-2,-3,-1,-6,-6,-7,-6
1558441584204085,4,3,9,3,11,7,10,3
1558441584217933,2,4,0,3,2,-1,-7,2
1558441584217933,-7,-3,-1,-2,-4,-8,4,-1
1558441584226053,3,2,-2,-3,-8,-3,-3,-3
1558441584226053,-2,-3,-4,-3,-3,1,-8,-5
1558441584241093,2,0,-2,-3,-3,-9,-3,0
1558441584241093,1,1,-1,0,3,-1,-1,2
1558441584249021,-1,0,0,0,-1,3,-1,0
1558441584249021,-1,0,-1,-1,-3,-5,-3,-3
1558441584255989,-5,-5,-2,-1,-2,1,0,-1
1558441584255989,-1,-1,-1,0,1,4,-3,-2
1558441584263947,0,2,8,0,2,-4,1,1
1558441584263947,-3,-11,-12,-3,-2,-2,0,1
1558441584277887,-2,-6,-3,-4,-2,-5,-1,-2
1558441584277887,-2,-2,-4,-1,-2,1,5,-2
1558441584285944,2,11,7,4,8,2,2,3
1558441584285944,-2,-1,2,1,1,-4,3,-3
1558441584300909,-4,-6,-4,-3,-3,9,-3,-1
1558441584300909,-2,-1,-1,-1,-2,-10,-4,0
1558441584301901,2,2,-4,-1,1,2,0,-2
1558441584301901,-3,-1,-1,-5,-8,-5,-7,-5
1558441584314865,1,2,0,-2,-1,1,0,1
1558441584314865,-12,-8,3,1,0,6,0,-3
1558441584323874,-4,-4,-5,-3,-3,-4,-3,-2
1558441584323874,0,-2,-1,-4,-7,-20,-6,1
1558441584337805,0,2,10,6,6,6,1,-1
1558441584337805,0,0,-8,-5,-3,1,-9,-2
1558441584346095,1,-2,-7,-5,-4,-2,-1,-1
1558441584346095,-2,0,1,1,-1,2,-2,-1
1558441584360983,-3,1,1,1,0,0,-1,-3
1558441584360983,4,1,1,2,5,4,1,3
1558441584368057,-1,-2,-3,0,1,-1,3,1
1558441584368057,5,9,4,5,1,4,5,0
1558441584375364,-1,-5,-1,-4,-7,-18,-7,0
1558441584375364,-5,-7,-5,-1,4,2,10,0
1558441584384136,-1,-1,3,0,-4,-3,-5,-1
1558441584384136,-4,-5,-4,-4,-1,4,-2,-1
1558441584398277,-3,2,-4,-2,-1,3,-5,-3
1558441584398277,0,-5,-5,-3,-8,-7,-8,-4
1558441584406196,3,2,5,4,9,1,5,5
1558441584406196,1,0,1,0,0,-2,-1,0
1558441584420236,-15,-9,0,0,-4,-5,-3,-4
1558441584420236,4,5,-6,-7,-11,-4,-15,-5
1558441584429144,-2,-6,-1,0,6,10,10,4
1558441584429144,2,2,0,2,3,10,1,1
1558441584434879,-1,1,1,-1,6,4,2,-1
1558441584434879,-1,0,-1,0,-6,-13,-6,-3
1558441584443126,-1,-1,2,-1,-5,-4,-5,-3
1558441584443126,-2,-1,-7,-3,-1,2,-1,-1
1558441584458117,2,-1,1,0,-1,0,-4,2
1558441584458117,-1,-1,1,0,2,-7,3,1
1558441584466101,4,4,-3,-4,-6,-7,-11,-3
1558441584466101,0,-5,9,6,6,4,8,5
1558441584480928,-2,-3,-14,-6,-4,-6,1,-3
1558441584480928,-1,1,0,0,3,10,2,-1
1558441584489032,-3,-4,-3,0,1,-1,-3,0
1558441584489032,-2,2,2,-3,-6,-14,-8,-2
1558441584504065,2,0,1,1,1,2,6,0
1558441584504065,-2,-5,-4,1,-3,-4,-5,-3
1558441584504065,3,4,2,0,0,11,7,0
1558441584504065,-5,-4,-3,-2,5,1,1,-1
1558441584517657,-4,-5,-4,-5,-8,-12,-7,-3
1558441584517657,-2,-1,0,-1,2,9,9,-1
1558441584525739,-4,-2,-1,1,-4,-8,-8,-3
1558441584525739,-1,-3,-2,0,-5,-2,-1,0
1558441584540934,2,4,-4,-5,-5,-8,-11,-3
1558441584540934,-1,-2,-1,0,6,15,9,-1
1558441584548874,1,2,-7,-4,-1,-10,-2,-1
1558441584548874,-1,-4,0,-3,-7,-6,-1,-3
1558441584563888,-2,-3,4,1,-2,3,-1,-4
1558441584563888,1,3,-5,-1,1,4,-7,0
1558441584564533,-1,-4,1,0,-3,4,-1,-1
1558441584564533,-4,2,-6,-4,-4,-4,-5,-4
1558441584577859,5,4,1,1,7,-1,9,3
1558441584577859,0,-1,-2,-5,1,-2,-4,1
1558441584585475,-4,1,-2,0,-6,3,0,-3
1558441584585475,-2,-1,-1,-1,-5,-2,-7,-2
1558441584600771,0,-1,4,1,-1,4,-1,0
1558441584600771,2,1,3,1,-1,-4,3,2
1558441584616639,-4,-4,-6,-2,1,-5,-7,-4
1558441584616639,3,-1,5,2,1,11,0,-1
1558441584623657,-2,-1,-10,-1,0,6,3,2
1558441584623657,1,0,3,-1,-2,-12,-3,1
1558441584624420,-1,-4,4,1,-3,-13,2,-2
1558441584624420,1,1,-4,-3,2,5,0,-3
1558441584637700,-4,-8,-6,0,-1,1,1,-5
1558441584637700,-1,-1,1,0,-10,-11,-4,0
1558441584646654,0,0,1,0,5,8,-1,2
1558441584646654,0,3,3,0,2,-5,-6,0
1558441584660752,0,0,-2,-1,2,6,2,0
1558441584660752,-4,-5,-5,-4,-3,3,1,-1
1558441584668307,-2,-2,-7,-7,-5,-5,-3,-3
1558441584668307,0,2,-1,-1,5,4,5,5
1558441584683302,-3,-5,-3,-3,-6,-15,-8,-2
1558441584683302,-3,0,-1,1,-1,-4,-1,1
1558441584684301,1,0,-1,1,1,-3,-1,2
1558441584684301,-4,1,-2,-2,-4,2,-3,-4
1558441584697264,4,6,9,3,1,1,0,1
1558441584697264,-2,-4,-14,-5,0,0,-6,-7
1558441584706229,-2,-6,-4,-3,-1,6,6,0
1558441584706229,1,1,-5,0,-2,-2,1,0
1558441584720168,2,1,6,0,-3,-17,0,2
1558441584720168,-3,-1,4,3,-4,-5,0,-3
1558441584728181,0,-2,-1,0,2,9,-1,-3
1558441584728181,-4,-1,-2,-1,4,6,2,-1
1558441584744104,0,-3,-7,-3,-5,0,4,-1
1558441584744104,2,3,4,2,-1,-8,-2,1
1558441584751085,-3,-2,-2,-2,-4,1,-5,-2
1558441584751085,-4,-3,7,2,0,-3,4,0
1558441584758067,-3,2,-4,-1,2,1,-4,0
1558441584758067,1,-1,-3,-4,2,-3,0,2
1558441584766044,0,2,0,-3,-4,1,-5,-6
1558441584766044,0,-5,-5,-4,-9,-12,-4,-2
1558441584780009,0,2,2,2,7,5,1,3
1558441584780009,1,2,6,0,5,9,-5,0
1558441584788029,0,-1,-3,-1,4,5,3,1
1558441584788029,-12,-12,-5,-2,-5,1,-4,-4
1558441584802946,-3,-5,-8,-7,-10,-7,-5,-6
1558441584802946,3,1,4,1,-4,-1,-8,-3
1558441584803943,2,4,-1,-1,4,4,4,1
1558441584803943,1,1,3,0,0,-5,-2,-1
1558441584817906,-3,-5,1,0,3,4,3,0
1558441584817906,-7,-7,-12,-5,-2,-9,-4,-1
1558441584825886,-2,-4,2,2,1,2,-2,-2
1558441584825886,-1,0,-7,-4,-2,1,-1,-2
1558441584839875,1,2,3,-3,-1,-2,-2,1
1558441584839875,3,3,4,1,0,10,5,2
1558441584847867,-2,-3,0,-2,-2,-3,-2,0
1558441584847867,4,2,1,0,0,-4,6,1
1558441584863785,0,-3,-1,0,3,6,0,-2
1558441584863785,-3,0,0,-3,-2,-4,-1,-1
1558441584864782,-1,-1,0,0,-1,-7,4,0
1558441584864782,-6,-4,-6,-4,-4,-4,-6,-3
1558441584877748,1,2,0,1,0,8,0,-2
1558441584877748,4,1,5,2,5,-6,9,3
1558441584885726,-2,-2,0,-1,0,-2,-5,1
1558441584885726,3,2,-1,-1,-2,-8,-1,1
1558441584899745,-4,-4,-7,-6,-4,-6,-5,-3
1558441584899745,-2,-2,-3,-3,-7,5,-11,-5
1558441584908666,-1,0,1,-2,-8,-11,-5,-3
1558441584908666,3,1,14,6,8,4,2,0
1558441584923624,1,2,-7,-4,-2,6,3,1
1558441584923624,-4,-2,-5,-2,1,8,7,2
1558441584923624,-3,1,2,-1,-2,-4,-6,-1
1558441584923624,1,-5,-7,-3,-2,1,2,0
1558441584937590,-2,-3,6,4,-1,-9,-2,-3
1558441584937590,-1,1,5,1,2,6,2,-2
1558441584945567,-5,-7,-1,1,-4,-3,4,0
1558441584945567,1,4,2,-3,-3,-6,-1,0
1558441584960526,-5,-4,-8,-5,0,-3,-3,-3
1558441584960526,-2,-4,-3,1,0,6,3,-2
1558441584968504,1,4,1,-1,1,-5,-6,0
1558441584968504,-2,-2,-1,-2,0,4,-3,-3
1558441584983463,0,-5,-1,-3,1,5,5,3
1558441584983463,1,0,-5,-3,-1,-6,3,-1
1558441584983463,0,-1,-2,0,1,3,-4,-2
1558441584983463,1,0,0,1,-4,-1,-4,1
1558441584997427,-2,-2,5,1,1,1,1,2
1558441584997427,-2,-2,-9,-5,-5,-3,-2,-1
1558441585005405,0,-2,0,-3,-7,-6,-3,-1
1558441585005405,-1,-1,-2,-1,5,2,-1,0
1558441585020365,-1,4,9,4,1,0,-3,-5
1558441585020365,1,2,-3,-1,-1,-8,-2,1
1558441585028344,-3,-5,-2,-2,3,5,2,0
1558441585028344,-3,-2,-4,-2,-3,1,-3,-1
1558441585043303,-1,-9,0,3,5,8,3,0
1558441585043303,-2,-2,6,1,-1,-8,0,-3
1558441585044302,0,1,-3,-3,-5,-1,-1,-2
1558441585044302,0,-2,-3,-2,-5,-5,0,0
1558441585057301,1,6,3,0,-4,-1,-7,-2
1558441585057301,-3,-3,4,2,5,-10,2,2
1558441585065290,1,1,-8,-2,-6,-3,-5,-4
1558441585065290,-3,-2,1,2,1,1,1,-3
1558441585080204,0,2,-4,-1,0,3,3,1
1558441585080204,0,-5,-10,-5,-4,-8,-6,-5
1558441585088210,-4,-2,1,2,3,0,-1,0
1558441585088210,-3,-4,-3,-2,-6,-5,-12,-4
1558441585103177,-3,1,0,-1,0,4,10,0
1558441585103177,-1,-2,-2,-2,-3,4,-4,-2
1558441585104175,0,-2,-7,-2,2,5,6,1
1558441585104175,1,2,1,-1,1,-12,-4,-2
1558441585117140,-2,-7,-1,-2,-4,-3,-1,2
1558441585117140,-2,2,2,3,-6,-2,-2,-1
1558441585126083,-2,4,3,-1,1,0,1,0
1558441585126083,-3,-5,-5,-4,4,0,7,2
1558441585140044,1,2,2,1,-1,-1,-5,0
1558441585140044,-2,-1,-4,-1,-3,-6,-2,-1
1558441585148023,2,-4,-2,1,-9,-1,-8,-6
1558441585148023,-11,-6,-5,0,0,1,3,0
1558441585163018,-2,-2,0,0,4,1,3,-1
1558441585163018,-2,-1,1,-1,-1,-1,-5,-3
1558441585163981,1,1,-2,-4,-3,-6,4,-1
1558441585163981,2,-2,0,-1,-1,3,-1,-1
1558441585177978,-1,0,0,0,-2,3,-4,0
1558441585177978,-1,0,1,-2,-6,-4,1,-1
1558441585185924,-1,-2,0,-1,4,0,2,1
1558441585185924,0,0,2,-1,1,3,2,-1
1558441585199884,-1,-2,-13,-6,-5,-7,-7,-3
1558441585199884,2,1,-2,-2,0,2,-5,1
1558441585207864,-3,0,5,-3,1,3,-3,1
1558441585207864,-2,-7,-6,1,-1,-7,6,-1
1558441585222824,1,5,0,0,-1,-5,-1,-2
1558441585222824,-4,-8,-1,-2,-5,-3,-3,-3
1558441585223820,-2,-5,-2,-2,-1,3,-4,-2
1558441585223820,-1,4,2,1,0,4,-3,-1
1558441585237786,1,0,-1,1,4,5,9,2
1558441585237786,-1,1,10,4,5,3,1,1
1558441585245774,-1,-3,-4,-7,-11,-13,-4,-1
1558441585245774,5,2,-3,-2,1,6,-3,-4
1558441585259725,-9,-9,-5,1,0,-13,2,-2
1558441585259725,-1,1,-1,-6,-5,1,-4,-1
1558441585268700,-2,-4,4,3,3,4,0,0
1558441585268700,3,5,4,-2,-3,3,3,0
1558441585282709,0,-4,-6,-7,-7,-7,-15,-4
1558441585282709,1,1,5,3,2,0,7,2
1558441585290672,1,3,0,2,4,0,2,1
1558441585290672,-4,-2,1,-3,-4,-2,-6,-1
1558441585297624,-1,-1,1,1,5,13,4,2
1558441585297624,0,3,-3,-2,0,-18,-4,0
1558441585305635,-1,-1,-1,0,0,4,-5,-3
1558441585305635,0,1,-5,0,1,-1,0,2
1558441585320562,-1,-4,0,-3,-10,-6,-4,-3
1558441585320562,1,-3,2,4,10,13,7,3
1558441585336523,-1,-1,-9,-6,-7,-8,-4,-3
1558441585336523,-1,0,2,1,4,6,-1,-1
1558441585342504,1,1,-2,-2,-1,-1,-2,1
1558441585342504,5,4,0,-2,-2,-2,-4,-3
1558441585351480,-12,-8,2,2,5,5,1,-1
1558441585351480,-2,-4,-7,-1,-7,-8,8,2
1558441585357464,3,1,0,-2,-5,-7,-2,-2
1558441585357464,-3,3,6,3,-2,-2,4,3
1558441585366439,3,-2,-10,-2,-2,1,-2,-2
1558441585366439,-3,-4,-3,-6,-5,0,-1,0
1558441585380436,0,2,-1,-1,2,-6,-1,0
1558441585380436,2,0,6,2,3,4,-6,0
1558441585389379,-2,-5,1,3,-1,3,7,0
1558441585389379,1,-2,-8,-7,2,7,-1,-1
1558441585402343,-1,-2,-4,-3,-4,-1,-3,-3
1558441585402343,-3,-3,-8,-1,-4,-12,-4,-3
1558441585411318,0,3,2,1,2,0,-1,-1
1558441585411318,2,-2,3,2,-1,-4,-3,0
1558441585417303,-1,0,-1,0,-2,-4,-5,-2
1558441585417303,-5,-6,-8,-7,-3,7,4,-3
1558441585426281,2,1,2,-1,-5,-7,-6,0
1558441585426281,6,3,3,3,5,2,3,0
1558441585440240,-14,-6,-1,0,-2,-3,2,-1
1558441585440240,-3,-4,-3,-1,-3,-12,-5,-3
1558441585449217,2,3,-3,-4,3,5,0,-1
1558441585449217,-5,-4,0,-1,-6,0,-6,-3
1558441585462223,6,4,4,1,5,1,1,2
1558441585462223,-4,-2,-1,-2,0,6,-1,0
1558441585471193,-7,-3,0,2,-2,-5,2,2
1558441585471193,-4,-1,-3,-2,-4,-5,-5,-3
1558441585494099,2,1,1,2,2,0,4,0
1558441585494099,-1,-3,-7,-4,-4,-2,2,-1
1558441585496093,2,-5,5,2,1,-3,-1,2
1558441585496093,-1,-3,-7,-3,-7,-5,-7,-3
1558441585500122,-2,-1,-2,-6,-8,-8,-9,-2
1558441585500122,2,3,1,4,8,11,8,1
1558441585509056,0,5,4,-1,-2,-5,-1,1
1558441585509056,-1,-7,-6,-4,3,-3,10,3
1558441585523020,-3,-3,-2,-2,-1,-2,-5,-3
1558441585523020,0,-2,-4,-4,-4,0,-9,-4
1558441585531002,-2,-2,1,0,-2,-2,-7,-2
1558441585531002,4,9,7,1,0,-1,4,0
1558441585546321,-3,-4,-1,1,2,9,4,1
1558441585546321,-3,-2,0,0,3,-1,-5,1
1558441585547954,2,-2,-3,0,3,6,7,2
1558441585547954,-1,-2,-4,0,0,-6,-4,-3
1558441585560427,0,-3,-2,-1,-7,2,-3,-2
1558441585560427,-4,-4,-2,-3,-3,2,-5,-5
1558441585568898,0,1,-2,-4,-1,-9,-4,1
1558441585568898,-1,3,4,3,0,-7,1,0
1558441585583356,5,3,1,-1,3,-15,7,2
1558441585583356,-3,-3,-3,-1,-6,3,-1,-2
1558441585591839,1,3,-5,-4,-6,-2,-6,-2
1558441585591839,-5,-6,0,-1,-2,5,-7,-3
1558441585607088,0,-4,-2,2,6,9,9,0
1558441585607088,2,0,5,3,0,0,4,1
1558441585607798,-1,-5,-6,-2,1,4,5,-3
1558441585607798,1,6,-2,-2,0,-7,-7,-3
1558441585619766,0,-4,-3,-2,-4,-8,-5,1
1558441585619766,-1,1,1,1,-2,-1,1,0
1558441585628737,0,-2,-5,-2,-5,1,-2,-4
1558441585628737,-9,-4,1,3,6,12,6,-1
1558441585642699,2,2,-1,-1,0,6,-3,-3
1558441585642699,-2,0,1,-1,0,-6,3,0
1558441585651678,0,-1,1,1,3,-4,1,1
1558441585651678,0,1,3,2,-6,-4,-3,-1
1558441585666681,-3,-5,-6,-4,-6,-5,-2,-1
1558441585666681,-4,-1,-3,0,-2,2,-2,-1
1558441585667633,6,5,0,0,6,-4,3,1
1558441585667633,-3,-6,-2,-4,-3,-2,-1,-2
1558441585679636,0,-1,-5,-1,-5,2,-5,-3
1558441585679636,0,0,-2,-2,-2,4,1,-2
1558441585688576,4,7,3,1,0,-4,7,1
1558441585688576,-2,-8,0,1,6,-2,-1,0
1558441585702588,-2,3,4,-1,-3,-7,-1,0
1558441585702588,-6,-7,-3,-5,-4,0,-6,-5
1558441585711516,-1,-1,-3,-1,-6,-4,-3,-4
1558441585711516,4,6,0,-2,3,4,-3,1
1558441585726502,3,3,2,1,1,5,2,0
1558441585726502,3,1,1,1,3,-9,1,4
1558441585727500,-2,-2,4,-2,-1,5,-5,-1
1558441585727500,-1,2,-9,-4,-8,-9,-7,-3
1558441585740477,-1,-1,-1,-4,-11,-10,-5,-3
1558441585740477,1,-3,-2,1,3,-1,2,2
1558441585749415,2,-3,0,-1,2,10,3,0
1558441585749415,3,2,4,1,-5,-5,3,1
1558441585762380,-4,-1,-8,-5,-2,-6,-2,-3
1558441585762380,-5,-5,-2,-4,-3,5,-1,-3
1558441585771356,-3,-4,0,0,2,-5,-5,-2
1558441585771356,0,-1,-8,-4,2,6,5,0
1558441585785319,2,3,6,1,2,4,-3,1
1558441585785319,-3,-1,3,0,-6,-5,-2,-3
1558441585792342,-3,-2,-5,0,1,2,1,0
1558441585792342,4,7,4,-1,-3,0,-2,-1
1558441585800313,-4,-12,0,2,3,7,6,0
1558441585800313,-3,-3,-7,-5,0,-8,2,-4
1558441585809254,0,3,5,0,-2,0,-5,-2
1558441585809254,-2,1,-3,0,-1,-7,6,3
1558441585822221,2,0,-1,-3,-4,4,-7,-3
1558441585822221,3,2,1,1,3,4,-1,4
1558441585839174,-4,-2,-1,0,1,-5,4,-3
1558441585839174,2,2,4,-2,-1,1,4,0
1558441585846155,-3,-1,-3,-1,5,-2,-5,0
1558441585846155,-4,-6,-3,-2,-5,3,2,-2
1558441585852143,-3,-2,-1,-3,0,1,-3,-1
1558441585852143,-3,-3,-1,1,-1,-1,-3,-1
1558441585869096,-5,-1,0,-1,-6,-5,-1,-5
1558441585869096,1,-1,-5,-3,2,0,-3,0
1558441585870097,3,-1,-2,-1,-4,-9,3,0
1558441585870097,4,-1,2,-1,3,3,-1,-3
1558441585882060,-10,-4,-1,2,-1,-5,0,1
1558441585882060,1,1,-7,-5,-6,2,-6,-1
1558441585891069,-4,-7,0,-1,-3,1,-1,-4
1558441585891069,0,-1,0,-1,-4,-3,-2,0
1558441585905029,0,0,-6,-4,-7,-9,-6,-2
1558441585905029,1,2,-2,-1,2,-3,2,1
1558441585913975,-2,0,1,2,-2,-5,3,2
1558441585913975,-3,-5,-6,0,8,14,-2,-1
1558441585920017,3,2,3,0,2,4,-5,-1
1558441585920017,0,3,0,1,-3,-3,-3,-2
1558441585929191,-1,-6,-4,-4,-5,0,-8,-3
1558441585929191,-6,-5,0,1,-3,-3,-5,-3
1558441585943308,2,2,0,-3,1,-4,3,1
1558441585943308,1,0,2,1,0,-3,0,-1
1558441585951875,1,1,-2,-1,-2,4,1,-1
1558441585951875,-1,0,4,-2,-3,-6,-4,-4
1558441585965209,4,1,-1,2,9,8,11,2
1558441585965209,-8,-5,-7,-3,-4,-2,-2,-2
1558441585974225,1,1,-4,-2,-4,-7,-1,-1
1558441585974225,-2,-1,1,0,-1,3,-3,-2
1558441585981044,-4,-3,-1,-2,-3,-1,-5,-5
1558441585981044,2,-3,-2,-1,2,-6,-1,1
1558441585989097,-1,-1,-5,1,5,-1,1,2
1558441585989097,-2,-2,-1,-2,-5,-5,-2,-2
1558441586002740,-1,-3,2,0,-5,-4,-3,0
1558441586002740,0,1,2,0,4,8,-5,-3
1558441586018697,-1,0,1,-1,-2,2,-3,0
1558441586018697,0,-3,-7,-5,-3,-4,-2,0
1558441586024993,0,2,0,-1,0,0,-3,-1
1558441586024993,-1,-5,2,1,4,7,-3,-2
1558441586033989,-2,0,-2,0,3,7,13,-1
1558441586033989,2,1,1,-2,-5,-6,-4,-1
1558441586040873,-2,-2,-2,-2,-8,-15,-7,-2
1558441586040873,-1,0,-2,0,-1,4,2,0
1558441586048922,1,1,1,-3,1,1,-4,1
1558441586048922,-2,-5,0,0,1,4,-1,2
1558441586062611,-4,-4,-1,-1,1,-1,5,0
1558441586062611,2,5,1,1,4,1,4,2
1558441586071555,-1,-4,-4,-1,-1,-4,-3,-4
1558441586071555,0,0,-4,-1,6,5,2,-2
1558441586085516,1,3,-4,-4,-3,0,-8,0
1558441586085516,-3,-4,-5,-7,-8,-4,-1,-2
1558441586093594,-4,-3,2,0,3,12,-4,-3
1558441586093594,1,0,-2,-2,-11,-19,-5,-2
1558441586108555,0,2,4,1,7,5,14,4
1558441586108555,1,1,2,2,3,-2,4,4
1558441586110520,-2,-3,-4,-3,-4,-2,-9,-3
1558441586110520,-2,-3,-4,-4,-2,4,0,-2
1558441586122489,1,-1,2,3,-1,-1,-1,0
1558441586122489,1,1,-5,-3,-1,0,-2,-3
1558441586131966,1,3,-1,-4,-4,-9,-2,0
1558441586131966,-4,-4,4,6,-2,-13,2,0
1558441586144935,-2,-1,-2,0,6,7,5,1
1558441586144935,-1,0,0,-2,-4,-3,-5,-6
1558441586153913,-1,0,-1,-2,-5,-9,-5,-2
1558441586153913,1,2,-2,0,2,16,1,0
1558441586159895,-6,-5,1,0,-2,-2,-3,-4
1558441586159895,-1,1,3,-1,-4,1,-7,0
1558441586168871,-1,-2,-5,-1,0,0,1,1
1558441586168871,3,2,1,0,-1,-14,2,-1
1558441586182902,0,-1,-2,-3,-2,1,0,0
1558441586182902,0,0,-1,-1,1,2,-2,-1
1558441586191811,-1,0,1,-2,-7,-1,1,-1
1558441586191811,-4,-2,1,-2,-3,5,-4,-5
1558441586204832,3,0,-2,1,6,9,-1,0
1558441586204832,-3,-1,-1,0,-3,-5,1,0
1558441586213782,1,0,2,0,1,-9,-1,0
1558441586213782,0,0,2,4,9,3,10,6
1558441586219735,-1,-1,-2,-2,1,7,0,1
1558441586219735,2,-1,0,0,-3,-2,-3,-3
1558441586228747,-4,-1,4,2,-2,3,-5,-4
1558441586228747,0,-2,-11,-8,-8,0,-16,-3
1558441586242730,0,0,-8,-6,-9,-12,-5,-2
1558441586242730,-8,-2,2,3,11,8,13,6
1558441586251651,-5,-11,-6,-1,-1,-11,1,0
1558441586251651,0,2,4,1,-2,-3,-5,-3
1558441586264650,1,0,-2,-2,-10,-5,-7,-4
1558441586264650,-1,-4,-7,-5,-4,-10,1,-4
1558441586273590,0,1,5,1,6,6,1,-1
1558441586273590,-4,-3,-7,-6,-6,-1,0,-1
1558441586279574,-1,1,2,4,9,10,6,-1
1558441586279574,2,-1,0,0,-2,0,-4,-2
1558441586288580,-2,-2,0,-1,-2,-2,-1,1
1558441586288580,0,0,0,0,2,2,1,-1
1558441586302515,-1,0,1,-1,-8,-10,-7,-5
1558441586302515,0,-2,3,-3,-4,5,-2,0
1558441586311490,-2,3,-9,-2,0,5,0,-1
1558441586311490,-1,-3,0,0,0,0,3,0
1558441586325455,0,-2,0,0,1,-4,0,-1
1558441586325455,2,-2,1,2,2,-7,-9,2
1558441586333431,3,-1,-5,-3,-1,13,5,0
1558441586333431,-8,-2,-1,-5,-7,-11,-2,-3
1558441586340414,1,2,2,0,2,-2,-2,-2
1558441586340414,-1,3,-4,1,1,3,0,-1
1558441586355400,-4,-14,-4,-3,-1,0,4,-1
1558441586355400,-1,-2,2,0,-1,1,-7,-5
1558441586362354,-2,-6,-5,-3,-4,2,1,-2
1558441586362354,4,3,5,-3,-5,-11,0,0
1558441586371329,0,2,-6,-1,-1,-6,-6,-1
1558441586371329,-4,-1,0,0,0,-1,4,1
1558441586385294,-5,-4,-7,-4,-8,-14,-7,-1
1558441586385294,-2,-1,-1,-2,-1,0,5,0
1558441586400251,-1,2,1,1,2,7,-3,-2
1558441586400251,-1,-3,-1,-1,-1,1,-3,1
1558441586409422,3,4,3,1,7,7,7,3
1558441586409422,-4,-3,-4,-3,-6,-4,-6,-4
1558441586410225,-2,-3,2,0,-4,4,0,-1
1558441586410225,4,2,-3,0,6,7,3,3
1558441586422335,-10,-7,-2,-1,-2,-11,-5,0
1558441586422335,4,3,0,0,6,-3,6,3
1558441586431313,0,0,6,0,1,-3,0,-1
1558441586431313,0,3,-3,-2,-1,2,-5,-2
1558441586445161,-2,-6,-8,-6,-5,1,1,-1
1558441586445161,-1,1,1,3,1,4,-2,0
1558441586454110,-1,-3,-5,-3,-7,-8,-10,-1
1558441586454110,-1,-2,2,0,-1,-6,4,0
1558441586469069,3,2,1,-2,-3,-1,-6,-4
1558441586469069,-4,2,0,-1,2,7,0,-2
1558441586470067,1,3,0,0,3,-2,1,0
1558441586470067,-9,-12,-7,0,3,4,-3,-4
1558441586483030,-1,2,2,-2,2,4,3,-1
1558441586483030,-2,-4,-4,0,-6,-8,-4,0
1558441586491038,0,4,7,2,-3,-6,-3,0
1558441586491038,-1,-1,-12,-12,-9,-5,-10,-5
1558441586505001,0,-3,-4,1,7,15,1,0
1558441586505001,-2,-2,0,0,-3,-7,0,-2
1558441586513950,-4,-2,-1,-2,-1,-3,2,-1
1558441586513950,5,6,9,5,4,-4,-2,2
1558441586528937,1,-1,-1,0,-7,-10,-2,-1
1558441586528937,1,-3,-3,-4,2,5,-1,-3
1558441586530902,2,2,-2,-2,2,-2,-1,-1
1558441586530902,2,-3,0,0,-1,3,-4,-2
1558441586542906,-2,0,2,2,-1,1,5,0
1558441586542906,0,-1,-4,-1,1,5,0,-1
1558441586551847,-1,-2,-2,-2,-5,0,0,-2
1558441586551847,1,1,0,0,11,7,3,2
1558441586564842,-2,-1,1,-3,-6,-8,-11,-3
1558441586564842,1,-1,1,0,0,-5,8,2
1558441586573787,0,0,-3,0,1,0,-1,-3
1558441586573787,-2,0,-3,-3,-8,-5,2,-2
1558441586588747,-3,-5,-1,-1,2,8,-9,-6
1558441586588747,-3,-2,-3,-1,-6,-2,1,-1
1558441586590742,0,0,-2,-4,-1,-22,0,1
1558441586590742,-4,-2,0,-1,0,-6,3,-1
1558441586602743,2,5,1,5,3,5,1,0
1558441586602743,-3,-3,-4,-5,-8,4,-11,-4
1558441586611686,3,3,-2,-1,-2,7,5,-1
1558441586611686,-16,-13,-5,-2,-2,0,-1,-4
1558441586624720,2,0,1,0,2,-7,7,2
1558441586624720,-2,-5,0,0,2,0,-4,-1
1558441586633692,-1,-3,-3,-3,-8,-6,-3,0
1558441586633692,2,1,0,-1,-1,0,-4,-3
1558441586648622,-3,1,3,3,-2,-2,-4,-2
1558441586648622,-1,-1,-3,-4,-5,-9,-7,-2
1558441586650583,0,-1,-2,2,1,4,1,0
1558441586650583,0,2,-4,1,0,3,3,0
1558441586662550,-2,-4,-3,-6,-1,-4,-12,-4
1558441586662550,0,3,1,0,0,1,4,0
1558441586671528,-1,-4,2,-2,-4,1,-2,-2
1558441586671528,3,5,5,1,1,-9,5,1
1558441586693469,2,-1,-2,-3,-2,-2,-3,-1
1558441586693469,-6,-9,-2,0,-2,-1,-4,-3
1558441586695463,-1,2,2,1,6,8,3,-1
1558441586695463,-2,-2,-6,-1,-4,2,-4,0
1558441586708460,6,5,1,-3,-4,-5,-1,-1
1558441586708460,0,6,-3,2,3,6,-2,-3
1558441586710422,-4,-3,0,-2,2,10,3,-1
1558441586710422,0,-8,-1,2,1,-13,5,4
1558441586722423,-4,-3,-4,-2,-4,-9,-2,0
1558441586722423,3,-1,-2,-3,-4,-9,-5,-1
1558441586731366,-1,2,0,-2,-3,-3,-11,-3
1558441586731366,1,1,4,1,-2,7,3,0
1558441586745410,-2,0,0,2,7,7,3,0
1558441586745410,-1,-5,-8,-3,-2,-1,11,1
1558441586754305,-1,1,-2,0,-4,-7,2,1
1558441586754305,2,2,-2,-4,-1,-15,-9,1
1558441586769265,-2,-3,-9,-2,-3,4,3,-1
1558441586769265,-2,1,6,1,0,1,-4,-3
1558441586771259,-3,-2,-8,-5,-2,-1,-3,-2
1558441586771259,-1,-1,-3,-1,-3,9,0,-3
1558441586782230,-3,-6,2,2,2,-3,4,1
1558441586782230,4,8,3,0,4,-1,-2,0
1558441586797340,-5,-7,-2,-2,0,0,1,-1
1558441586797340,-5,-8,-5,-3,-5,-4,-7,-5
1558441586805170,-1,-1,-3,-5,-8,-1,-4,-3
1558441586805170,0,1,4,3,8,9,12,4
1558441586814146,-2,3,1,0,-2,-13,0,0
1558441586814146,0,4,0,-1,2,1,8,-2
1558441586836088,-1,-2,-4,-2,-5,-2,-2,-4
1558441586836088,1,-2,-1,0,-4,0,-1,-2
1558441586838082,1,-1,-2,-2,-1,-7,-1,0
1558441586838082,-3,-3,0,-4,-2,-1,-9,0
1558441586851051,-2,1,1,-3,-2,-4,3,-2
1558441586851051,1,4,9,4,7,3,-3,-1
1558441586853042,-2,-3,-10,0,0,7,2,-2
1558441586853042,0,-2,-2,-4,-7,-10,-7,-2
1558441586865010,0,1,-3,-2,4,1,-1,2
1558441586865010,-6,-8,-7,-4,-5,-3,-4,-3
1558441586873985,-1,-1,2,3,-4,2,-2,0
1558441586873985,1,1,6,3,6,11,-4,-4
1558441586895991,1,2,6,2,5,7,7,3
1558441586895991,-1,-3,-7,-3,-6,-14,-4,-1
1558441586897921,2,3,3,-1,-1,-5,1,-2
1558441586897921,-3,3,-3,-1,0,-1,1,0
1558441586911884,-4,-4,2,-1,-3,-3,-6,-3
1558441586911884,-11,-13,-8,-2,-2,2,-8,-4
1558441586912885,4,1,1,0,3,3,-1,-1
1558441586912885,3,0,-3,-2,4,1,3,2
1558441586924998,2,4,0,-2,-6,-13,-2,0
1558441586924998,0,4,9,2,1,3,1,-1
1558441586965739,-5,-9,-17,-9,-2,-4,-2,-2
1558441586965739,2,2,-1,0,-8,-5,-1,0
1558441586966737,0,0,-1,0,7,4,5,3
1558441586966737,1,1,-1,-4,-3,-4,-6,-4
1558441586971724,-1,0,9,1,-6,-1,-5,-2
1558441586971724,-4,-4,-5,-4,-3,1,2,-2
1558441586972728,2,-1,-4,0,-1,4,1,-1
1558441586972728,0,0,3,2,1,-2,-3,1
1558441586973718,5,4,10,4,6,5,6,1
1558441586973718,-11,-12,-15,-4,0,-4,-1,-2
1558441586984689,-2,-1,-1,-1,-1,6,-5,-2
1558441586984689,-1,1,-7,-5,-7,-3,-3,-3
1558441587025668,-3,-2,-2,-3,-5,3,-6,-4
1558441587025668,2,-2,6,3,2,-2,3,2
1558441587026576,-1,2,-4,-3,3,-12,4,0
1558441587026576,0,1,-4,-4,-5,-2,-7,-2
1558441587032563,-4,-9,-2,-2,-5,-6,-2,-5
1558441587032563,0,4,5,2,3,12,1,-1
1558441587032563,-6,-4,-2,-1,-1,1,-5,-1
1558441587032563,1,1,-3,-3,-4,-7,3,-1
1558441587034555,-4,-3,-4,-5,-2,2,-5,-2
1558441587034555,1,-1,0,-1,-3,-6,-2,-1
1558441587077442,1,-1,0,2,4,3,6,1
1558441587077442,0,1,1,0,3,1,4,3
1558441587079467,-1,1,1,4,4,-3,2,3
1558441587079467,-1,0,-5,-5,-6,1,-7,-4
1558441587079467,2,-1,-1,-4,-10,-12,-10,-1
1558441587079467,0,-3,-1,2,9,11,10,1
1558441587084425,-5,-5,-1,-1,-3,-6,-3,-4
1558441587084425,0,-3,2,-1,-1,3,8,0
1558441587085421,-2,-2,3,0,-3,3,-6,-5
1558441587085421,0,-4,-13,-10,-9,-19,-4,1
1558441587091403,-2,5,-2,0,-1,1,-3,0
1558441587091403,1,3,3,-2,-2,6,-2,0
1558441587130302,1,1,2,3,5,-2,2,2
1558441587130302,-2,-4,4,0,-1,-5,-3,-2
1558441587132294,1,-2,-2,-1,4,5,3,-2
1558441587132294,0,-3,-7,-3,-5,-5,0,-2
1558441587133292,1,0,-3,-3,-3,2,-4,-1
1558441587133292,0,3,1,-1,2,0,-3,0
1558441587136287,-2,1,3,-4,-7,-2,-6,-4
1558441587136287,-2,-4,-5,-2,1,-3,-4,-1
1558441587142266,-3,-1,1,-1,-6,-8,4,-4
1558441587142266,-2,-2,0,1,2,13,6,0
1558441587151243,-1,-5,-2,2,3,-4,-2,0
1558441587151243,1,4,4,3,4,4,3,2
1558441587190335,4,3,-2,-3,-2,-2,-3,0
1558441587190335,-9,-7,-2,0,-5,-5,-2,-3
1558441587192135,1,-2,-4,-1,-5,-3,-3,-2
1558441587192135,2,8,-1,-2,1,5,4,0
1558441587192135,-2,0,0,0,0,-1,-3,-1
1558441587192135,0,-4,1,1,1,6,5,0
1558441587196124,-5,-6,-3,-1,2,-11,-1,0
1558441587196124,0,-3,-1,-2,-3,-5,-5,-2
1558441587202117,-3,-1,-4,-5,-2,3,1,-2
1558441587202117,2,2,-1,-1,-1,8,-3,-1
1558441587242998,-2,-4,-3,-3,-2,2,2,0
1558441587242998,1,1,4,0,-7,-14,-5,-3
1558441587242998,-3,-4,1,2,6,3,-4,-4
1558441587242998,-2,1,0,0,-2,0,-2,0
1558441587244996,-1,4,2,1,-1,-6,-2,-1
1558441587244996,-4,-2,-2,-1,-8,-3,-7,-4
1558441587248090,1,-2,-2,-1,-1,-1,-1,1
1558441587248090,-11,-7,-5,-4,-2,-3,3,-4
1558441587255074,2,3,1,-1,-6,2,-5,0
1558441587255074,1,1,2,1,3,7,3,1
1558441587262085,0,3,-2,-1,1,-7,-1,2
1558441587262085,4,-8,2,3,4,-1,-3,0
1558441587302951,-1,-5,-9,-6,-5,-10,4,0
1558441587302951,-3,-5,1,2,0,3,1,-2
1558441587303944,1,4,3,0,4,6,1,0
1558441587303944,3,2,-2,-1,0,3,-1,1
1558441587308995,-3,-9,4,2,2,-5,2,1
1558441587308995,-2,-1,-6,-3,-3,-4,-5,-2
1558441587309931,-7,-7,-2,-2,-9,4,-3,-5
1558441587309931,1,7,-1,0,0,4,0,0
1558441587314917,4,2,3,-1,0,-2,-2,0
1558441587314917,0,-5,-6,-4,1,-11,0,1
1558441587354810,-1,-2,3,1,3,6,0,-3
1558441587354810,-9,-9,-6,-4,-8,-16,-2,-4
1558441587356803,0,2,1,3,5,13,1,0
1558441587356803,-2,2,5,-1,1,1,-2,-1
1558441587357800,-3,-3,-7,-4,-3,-2,-3,-3
1558441587357800,4,3,1,-2,-5,-4,-11,-6
1558441587361789,-3,-4,1,-2,1,0,1,1
1558441587361789,2,3,2,3,10,5,8,4
1558441587367774,-5,-6,0,2,0,-5,2,0
1558441587367774,0,1,0,-2,-3,-1,-4,-2
1558441587374755,1,3,-3,-4,-5,-7,-6,-1
1558441587374755,2,0,3,0,-1,0,1,0
1558441587406672,-1,-1,-1,-2,1,0,2,0
1558441587406672,-2,-2,-5,-4,1,0,1,0
1558441587408665,-3,0,-3,-2,-8,-1,-9,-4
1558441587408665,1,1,-1,-2,-3,4,1,-1
1558441587409662,-4,-3,1,0,-3,-3,-1,0
1558441587409662,0,-3,-8,-3,3,3,2,1
1558441587413650,3,2,1,-2,-2,-4,-3,-1
1558441587413650,-12,-7,2,0,4,-1,3,-3
1558441587428610,-1,-1,-6,-1,2,3,0,0
1558441587428610,0,2,4,1,1,7,3,1
1558441587467506,3,1,-4,-1,0,3,2,-1
1558441587467506,0,-1,-2,0,-4,-4,-5,-5
1558441587468506,2,-2,-4,1,8,10,11,3
1558441587468506,-1,3,2,-2,-1,-9,-3,-1
1558441587469502,-1,-1,0,1,0,-1,-1,-1
1558441587469502,-2,-3,2,-2,-3,-6,-5,-1
1558441587473495,-1,-4,-1,1,-6,0,-4,-3
1558441587473495,-2,-1,-6,-3,1,7,0,-4
1558441587475486,-2,-1,-4,-2,-7,-4,-3,-3
1558441587475486,2,-2,-3,1,3,-5,-1,0
1558441587489453,-1,2,3,-3,-5,-13,-5,0
1558441587489453,2,1,4,5,2,2,3,2
1558441587496429,-2,-4,-2,-3,0,2,-3,-3
1558441587496429,2,-1,-3,-2,-5,-2,-9,-1
1558441587510397,4,4,1,1,-2,-1,7,2
1558441587510397,-10,-7,-2,-1,-2,-6,-2,-2
1558441587527347,-2,0,-3,-1,2,3,5,-1
1558441587527347,-6,-10,-2,-2,-4,0,-9,-4
1558441587527347,-1,1,-2,-2,-5,-1,-3,-5
1558441587527347,6,-2,2,0,1,3,2,2
1558441587534331,1,2,2,0,3,-1,2,1
1558441587534331,-4,-1,-1,-1,-4,-1,-3,-2
1558441587564247,-2,-2,-5,-5,-5,-4,-7,-3
1558441587564247,-3,-6,-2,0,2,4,-4,-2
1558441587572227,0,0,1,1,3,0,0,2
1558441587572227,1,0,-2,-1,0,0,5,2
1558441587572227,-5,-7,-4,-4,-3,-2,-2,-2
1558441587572227,1,1,-1,-1,-3,-4,-8,-3
1558441587574221,-1,1,-3,-2,1,0,0,-1
1558441587574221,0,0,0,0,3,4,4,2
1558441587585192,1,2,1,-2,3,-1,-3,1
1558441587585192,-2,0,0,-1,-10,-10,-6,-3
1558441587594169,1,-3,-4,0,4,4,12,1
1558441587594169,3,5,-1,0,3,-1,9,2
1558441587633068,4,2,7,2,2,-2,1,1
1558441587633068,-7,-7,-22,-10,-2,-5,-2,-1
1558441587635060,0,-2,5,0,-3,5,-5,-2
1558441587635060,0,-3,-5,-5,-3,-3,-8,-4
1558441587635060,3,-1,2,1,0,-6,1,2
1558441587635060,1,1,7,1,1,2,-2,-2
1558441587639049,-3,-1,1,0,-1,4,1,-2
1558441587639049,2,3,-4,-4,1,-7,1,-2
1558441587645036,-3,-1,-3,-2,-3,2,-1,1
1558441587645036,-5,-7,3,1,-6,-7,-1,-3
1558441587669967,-3,0,-9,-2,5,6,-4,-1
1558441587669967,3,4,3,2,-7,-5,-5,-3
1558441587670967,-6,-7,-3,-2,2,3,-2,-1
1558441587670967,3,7,1,2,10,14,10,4
1558441587682932,-1,-3,-1,-1,-5,-6,1,-1
1558441587682932,1,0,1,0,1,-10,-4,0
1558441587690917,0,0,-4,-4,-8,-1,-5,-3
1558441587690917,3,1,-1,-2,-5,-8,-1,-1
1558441587692904,1,0,0,-1,4,10,0,-4
1558441587692904,-1,-2,1,0,1,3,1,3
1558441587704879,-10,-7,-3,-4,-4,-7,-6,-2
1558441587704879,2,-1,3,1,2,1,3,-1
1558441587713848,-2,-1,0,-1,-3,-2,-4,-1
1558441587713848,-5,-6,-12,-6,-4,8,-2,-1
1558441587743769,1,-1,1,1,2,-11,-4,-4
1558441587743769,3,4,1,-3,0,-2,0,0
1558441587744765,-2,-2,-3,-4,-4,-15,-5,-5
1558441587744765,-4,-4,2,0,-2,-5,-1,-3
1558441587751747,-2,3,-1,1,7,11,4,1
1558441587751747,0,-3,-8,-3,-1,2,-1,0
1558441587752744,-3,-2,-2,-2,-6,-5,-5,-2
1558441587752744,0,0,-3,-4,-2,0,-9,1
1558441587764723,-5,-6,0,0,0,-7,9,0
1558441587764723,1,5,5,0,-2,1,-2,-2
1558441587798623,2,0,-6,-3,-2,-9,0,3
1558441587798623,3,5,-2,-3,0,5,2,-1
1558441587798623,-1,0,4,2,-1,3,-2,-2
1558441587798623,-2,-2,-1,-1,3,9,3,0
1558441587802618,-3,-4,-7,-5,-2,-1,-3,-1
1558441587802618,-3,-1,3,2,-3,-8,-3,-1
1558441587811618,5,5,-3,-2,-3,5,4,-1
1558441587811618,-4,-2,2,0,-2,-11,0,-1
1558441587812584,-3,-3,3,-1,3,-1,1,-2
1558441587812584,3,-1,-3,0,7,7,7,2
1558441587833529,-1,0,-1,-1,-5,-7,-6,-2
1558441587833529,2,-1,-2,-3,-8,-6,-8,-3
1558441587835522,-2,0,3,3,3,4,4,0
1558441587835522,-4,-3,-4,-1,1,4,1,-4
1558441587848487,0,-2,-3,-2,1,3,0,0
1558441587848487,0,2,-2,0,2,-8,3,4
1558441587854473,1,4,1,-3,-4,-6,-5,-4
1558441587854473,-6,-8,3,1,1,6,-4,-3
1558441587871426,-2,0,-7,-4,-1,2,-1,-1
1558441587871426,3,-3,0,2,-1,-5,-2,1
1558441587872424,-6,-9,2,3,-5,-5,-6,-1
1558441587872424,0,2,-4,0,0,3,6,-2
1558441587885393,0,1,0,1,1,1,-1,-3
1558441587885393,-5,-1,-9,-6,-1,2,-4,-3
1558441587893374,1,4,1,-2,-2,-3,-3,1
1558441587893374,0,0,-1,-4,-4,3,-3,-1
1558441587908327,1,-3,0,0,-1,1,-1,1
1558441587908327,-1,-4,-1,-4,-4,-3,0,-2
1558441587915314,4,0,3,4,6,-11,1,4
1558441587915314,-2,-1,-2,-3,-3,-3,-1,-1
1558441587931266,-2,-2,-5,-4,0,6,-1,-4
1558441587931266,-3,-1,-1,-2,-4,5,-5,-4
1558441587933264,-3,-4,-5,-4,-4,5,-5,-1
1558441587933264,-2,1,5,3,-1,-10,-2,1
1558441587945229,0,-2,-2,-3,-5,-6,-2,0
1558441587945229,-1,-3,-3,-2,-3,-10,-4,-4
1558441587960190,-2,-2,-1,0,-1,3,-4,-1
1558441587960190,1,3,0,0,0,1,1,0
1558441587968169,-3,-2,-1,-1,-1,-2,2,2
1558441587968169,-2,-3,0,-2,-7,-7,-3,-3
1558441587975179,3,3,-4,-4,-2,1,3,1
1558441587975179,-11,-8,0,0,-2,-7,-2,-2
1558441587999085,2,6,3,4,7,3,3,2
1558441587999085,1,3,1,-2,2,0,-2,0
1558441588000083,-2,-11,-5,-1,-2,3,1,-2
1558441588000083,-1,-1,-4,-5,-2,4,-4,-3
1558441588005069,-5,-5,1,-3,-8,-4,-3,-3
1558441588005069,0,0,0,2,6,5,7,3
1558441588014046,-1,1,1,-3,1,-2,2,1
1558441588014046,-3,-2,1,-2,-6,-4,-5,-1
1558441588028007,0,-3,-4,0,0,-1,-2,0
1558441588028007,-1,-2,-2,-1,0,4,-2,0
1558441588034994,-2,3,1,1,3,5,0,-1
1558441588034994,-2,-3,-4,-1,-2,1,-5,-5
1558441588051950,0,-1,-5,-4,-3,-8,0,-1
1558441588051950,0,3,2,2,0,7,5,0
1558441588052945,-1,-1,-2,-1,-2,-5,2,-1
1558441588052945,3,3,5,-1,1,-4,-2,2
1558441588064909,-8,-6,1,-1,0,1,-5,-4
1558441588064909,-2,-6,-2,-1,-3,-3,-6,-2
1558441588073885,-2,-5,-12,-6,-6,3,-7,-3
1558441588073885,1,3,1,1,-1,0,3,3
1558441588087856,6,5,-2,0,1,-7,-1,-1
1558441588087856,2,2,-1,-1,-6,-3,2,-1
1558441588096823,-4,-10,0,-3,-5,4,0,-1
1558441588096823,1,-1,0,1,-2,-2,-2,-2
1558441588110785,-3,-1,0,-3,-4,-7,-4,0
1558441588110785,-3,-1,-1,3,10,2,1,-2
1558441588117766,3,6,2,-1,-8,-8,-5,-4
1558441588117766,1,-3,-1,-1,1,1,-4,-2
1558441588124748,-3,-7,-10,-5,-1,5,6,0
1558441588124748,2,2,-3,1,-2,-11,3,4
1558441588133725,-1,-3,-1,1,7,3,6,3
1558441588133725,-3,-1,-5,-3,-6,-6,-3,-2
1558441588147686,-4,-3,1,-1,1,3,-9,-3
1558441588147686,5,1,4,0,2,6,3,1
1558441588156665,3,2,-6,-1,-2,-8,2,-1
1558441588156665,-3,-3,0,-1,2,2,1,-2
