timestamp,emg1,emg2,emg3,emg4,emg5,emg6,emg7,emg8
1558441639649986,-2,0,1,-1,0,5,3,0
1558441639649986,-1,-1,3,-2,-1,4,-1,-1
1558441639650984,-1,-1,-1,1,-2,1,-1,-2
1558441639650984,0,-4,-2,-3,-4,-8,-4,-3
1558441639651983,1,-2,-3,-2,-4,-7,-2,-2
1558441639651983,-1,0,-1,-2,-6,-7,1,0
1558441639652979,-1,-1,-1,0,1,-3,-1,-1
1558441639652979,0,1,0,1,3,11,-1,3
1558441639680904,1,1,1,3,6,4,5,2
1558441639680904,-3,-3,-3,-3,-2,0,-2,-3
1558441639680904,-1,-1,-1,-2,-7,-9,-4,-2
1558441639680904,1,0,1,-2,-3,-6,0,-2
1558441639682899,-2,-5,-2,-4,-7,0,-6,-3
1558441639682899,0,0,2,2,12,15,8,3
1558441639694867,-1,-1,-4,-1,0,-6,-1,-2
1558441639694867,-3,-2,-1,1,2,4,2,-1
1558441639701849,1,1,1,0,0,-6,2,0
1558441639701849,-1,-1,0,2,-3,-7,-3,-2
1558441639725784,-3,-4,-2,-4,-4,5,-2,-3
1558441639725784,-1,-1,-3,-2,-3,3,-2,-2
1558441639728776,-1,-1,-2,-2,-5,-7,-4,-2
1558441639728776,-2,0,-2,-1,-1,-13,-4,-2
1558441639730770,0,0,3,0,4,4,3,0
1558441639730770,-1,-2,-1,1,-1,1,0,-2
1558441639757698,0,1,-3,-1,2,7,3,1
1558441639757698,0,-1,1,-2,-3,-3,-5,-3
1558441639758696,-3,-4,-4,-4,-1,1,-1,1
1558441639758696,3,0,4,2,2,-9,5,4
1558441639762686,1,0,-6,-2,-3,-3,-5,-2
1558441639762686,-6,-4,-2,0,-2,6,-4,-4
1558441639769666,0,1,-1,0,0,-1,-1,-2
1558441639769666,0,-2,-1,-3,-1,-3,-2,-2
1558441639805570,2,2,4,1,1,-7,1,1
1558441639805570,0,-2,-2,-4,-3,-3,-5,-2
1558441639814548,-1,-1,1,-1,0,0,-5,-2
1558441639814548,-2,-3,-6,-1,-1,6,-1,0
1558441639823521,-1,-2,-1,0,-5,-8,-4,-1
1558441639823521,4,0,-2,-2,0,-7,0,-1
1558441639823521,-2,0,0,0,3,6,4,0
1558441639823521,0,1,0,-1,-6,-14,-3,-3
1558441639829508,-1,-3,-2,-3,1,6,1,0
1558441639829508,0,0,-1,1,5,13,4,2
1558441639835490,0,1,1,0,-1,-9,-2,1
1558441639835490,0,-3,-3,-3,-3,-3,-4,-4
1558441639844466,-1,2,-2,-1,0,5,1,0
1558441639844466,-3,-3,-2,-1,-2,-4,-2,-3
1558441639867406,0,-1,0,1,2,1,0,-2
1558441639867406,-2,0,1,-2,-2,3,-1,0
1558441639868403,-1,-1,1,0,4,-2,-5,-1
1558441639868403,-1,1,-1,0,-1,3,2,0
1558441639882364,-1,-1,-3,-1,-3,-7,-3,-3
1558441639882364,0,-3,-1,-2,-2,-2,2,-1
1558441639889345,-1,-1,-2,-1,-5,2,-1,-1
1558441639889345,-2,-1,1,-1,-2,-5,-4,0
1558441639895330,-1,-3,-5,-1,0,8,0,0
1558441639895330,0,0,0,-1,-3,-9,-2,-1
1558441639921261,-1,-2,-2,-1,0,1,2,1
1558441639921261,-2,0,3,-1,1,-5,-1,-1
1558441639921261,-3,-3,-4,-3,0,5,2,0
1558441639921261,-3,0,0,-1,-1,2,-4,-1
1558441639926247,-1,-5,-4,-3,-4,-3,-2,-4
1558441639926247,1,-1,0,1,4,8,1,1
1558441639942211,2,1,1,-1,0,-1,5,0
1558441639942211,3,2,1,1,7,-5,2,2
1558441639943206,-6,-3,-3,-3,-9,-8,-4,-4
1558441639943206,-2,0,0,0,-2,-6,-5,-3
1558441639956179,-3,-3,-5,-4,-4,-1,-4,0
1558441639956179,0,2,0,1,2,4,1,1
1558441639965146,1,-1,-2,-1,2,1,0,0
1558441639965146,-1,-1,-2,-2,-4,-7,-4,0
1558441639971132,0,1,3,-1,-2,-3,-1,0
1558441639971132,-3,-2,-2,-2,-7,-2,0,-2
1558441639994070,1,1,0,0,4,7,2,-1
1558441639994070,-2,-3,-1,-2,-1,0,0,-2
1558441639995064,0,-2,3,1,1,-5,-3,1
1558441639995064,-4,-6,-8,-5,-5,-3,-3,-2
1558441640002046,1,1,0,1,-3,-4,-2,0
1558441640002046,1,-2,-3,-5,-2,3,0,-1
1558441640016110,-2,-1,-2,-1,-3,-7,-3,-1
1558441640016110,-5,-1,0,-1,-3,-4,-1,-3
1558441640024991,-1,-1,0,2,3,3,4,0
1558441640024991,-2,1,0,-2,1,1,1,0
1558441640031003,-1,-2,-2,-1,-4,-9,-3,-2
1558441640031003,-2,-2,2,-2,-7,-1,-4,-1
1558441640053911,3,1,-2,0,4,0,-2,-2
1558441640053911,-1,1,-1,0,3,-3,1,0
1558441640054905,-1,-3,-1,-2,-1,9,2,0
1558441640054905,0,-1,-2,-1,0,-1,0,-1
1558441640069872,-1,1,1,-1,-3,-14,-4,1
1558441640069872,-1,0,-3,-1,-4,6,-1,-1
1558441640075856,0,1,0,1,-1,-8,-1,-1
1558441640075856,0,0,2,0,5,8,2,0
1558441640084827,-4,-2,-3,-5,-6,-2,-2,0
1558441640084827,0,0,2,0,-5,0,-2,1
1558441640090811,0,1,0,-1,-2,-8,0,0
1558441640090811,0,-2,-7,-1,1,4,-1,1
1558441640113745,1,2,-2,-1,-1,4,0,-2
1558441640113745,0,-1,0,-2,2,1,3,0
1558441640114743,-1,-2,1,-2,-4,3,-2,-1
1558441640114743,0,0,1,0,4,2,1,0
1558441640121725,-4,-4,-1,1,4,2,1,-2
1558441640121725,0,0,-1,-3,-6,-14,-8,-1
1558441640135687,-1,0,-2,1,3,11,2,-1
1558441640135687,2,0,0,-2,-2,-6,-1,-1
1558441640144663,-4,-4,-1,-4,-7,-5,-3,-1
1558441640144663,-1,-2,-2,1,0,-4,-3,-1
1558441640173588,-2,-2,-9,-6,-6,0,-2,-1
1558441640173588,0,-2,0,0,-2,-2,-1,-1
1558441640184559,0,3,5,0,5,-7,5,2
1558441640184559,-2,-3,-4,-3,-4,-4,-5,-3
1558441640184559,0,1,2,-2,2,3,1,0
1558441640184559,-2,-2,1,1,1,2,4,1
1558441640188546,-2,-2,-4,-1,-2,2,-2,-3
1558441640188546,-1,-1,4,0,-3,-4,-3,-2
1558441640195528,-1,-2,-9,-2,1,3,-2,0
1558441640195528,-1,0,-2,-2,-2,4,-1,-2
1558441640204504,1,2,2,1,3,-5,3,2
1558441640204504,-2,0,-2,-2,1,2,0,-2
1558441640218465,-1,-2,1,2,-1,-2,-1,-3
1558441640218465,1,1,4,3,5,4,0,0
1558441640225447,0,-2,-1,1,-1,-5,-6,-1
1558441640225447,-1,-5,-8,-4,-2,1,-2,-3
1558441640233426,1,-2,1,-2,-8,-7,-5,-2
1558441640233426,0,1,0,2,7,2,4,0
1558441640249384,1,1,3,-1,3,-1,1,1
1558441640249384,-4,-2,-8,-1,-4,-6,-1,-3
1558441640255367,-1,0,-1,-3,0,7,-1,0
1558441640255367,-3,-3,-5,-6,-15,-10,-10,-6
1558441640273318,1,2,2,-1,0,-1,-1,3
1558441640273318,1,0,0,0,5,1,1,3
1558441640274316,-3,0,0,0,7,10,3,0
1558441640274316,-2,-2,-1,-1,-5,-3,-4,-1
1558441640294263,-1,-1,-3,0,-1,2,1,-2
1558441640294263,0,-2,-1,1,-3,-5,-1,-2
1558441640294263,-1,-2,-1,-1,-6,-5,-5,-5
1558441640294263,2,0,2,0,2,3,0,-1
1558441640308226,1,-2,-7,-2,-2,4,-1,-3
1558441640308226,-2,-2,-1,-3,-2,-6,-4,-2
1558441640315207,-2,1,3,0,-2,-12,-1,0
1558441640315207,-2,0,-2,-1,8,7,5,1
1558441640333166,-1,-1,-1,-2,-3,6,0,-1
1558441640333166,1,-2,0,-1,2,6,4,-1
1558441640333166,0,-3,-2,2,-1,-1,0,0
1558441640333166,0,2,-3,-2,-6,-12,-7,-1
1558441640346125,-2,-2,0,-2,-1,8,0,-2
1558441640346125,-2,0,-1,-2,-2,-1,-4,-4
1558441640353106,2,0,2,1,7,-2,3,1
1558441640353106,-2,-2,-3,-1,1,11,3,-2
1558441640368065,0,-1,-3,-3,-6,-3,-5,-1
1558441640368065,3,2,2,0,-2,-4,-2,1
1558441640385020,-10,-8,-3,-1,-7,-8,-5,-5
1558441640385020,-1,0,-1,1,1,0,-1,-1
1558441640386018,0,1,2,-1,3,1,1,0
1558441640386018,-4,-1,0,-2,-6,-5,-1,-1
1558441640391005,1,1,-2,0,4,3,4,-1
1558441640391005,-3,-1,-2,-1,0,2,-2,-2
1558441640406962,-3,-6,-3,-3,-6,0,-3,-3
1558441640406962,3,1,0,0,5,2,2,1
1558441640412947,3,0,4,0,3,-15,-1,2
1558441640412947,-2,-2,-8,-4,-3,-8,-3,-2
1558441640427906,1,0,-3,-3,-6,0,-4,-2
1558441640427906,-1,0,3,2,4,11,5,-1
1558441640444860,0,-2,-6,-4,-9,-4,-5,-3
1558441640444860,0,0,4,2,3,-1,1,2
1558441640445858,-3,-2,-3,-2,1,-2,2,2
1558441640445858,-2,-2,0,-1,-2,0,0,-2
1558441640458823,-3,-4,-3,-1,-1,3,-6,-2
1558441640458823,3,1,2,1,2,2,4,-1
1558441640465806,-2,-2,-2,-1,0,-5,-5,-4
1558441640465806,-2,-4,-1,-1,-5,-3,-4,-5
1558441640472786,-1,2,2,-2,-1,4,-1,0
1558441640472786,-1,-1,0,-1,4,7,1,0
1558441640496722,-2,-1,1,1,1,-11,0,0
1558441640496722,-2,-2,-1,1,0,-2,0,-1
1558441640496722,-2,-3,-6,-4,-5,-5,-2,-3
1558441640496722,-4,-3,1,-1,-5,-4,-4,-2
1558441640504700,-2,1,-4,-1,1,4,2,-1
1558441640504700,0,-2,-3,-3,-6,-1,-5,-1
1558441640510685,1,-1,1,-1,0,3,-1,0
1558441640510685,1,2,9,2,1,0,2,2
1558441640525644,0,-4,-7,-2,1,-9,-2,-1
1558441640525644,-1,-2,-1,-1,-3,-2,-1,-1
1558441640533623,-1,0,-2,-2,-1,5,-2,-3
1558441640533623,-1,-2,-2,-3,-4,-5,-4,-2
1558441640549580,0,1,3,0,-1,-6,-2,0
1558441640549580,-2,-2,-2,0,3,5,0,1
1558441640555564,2,2,4,2,5,9,6,1
1558441640555564,3,2,-4,-1,-3,-15,-4,4
1558441640572519,-5,-3,-2,-2,-2,-2,-5,-3
1558441640572519,-1,-3,-1,0,0,3,-3,-3
1558441640579500,0,0,2,-1,-1,-5,-2,-1
1558441640579500,1,-1,-2,-2,-4,2,-1,-5
1558441640587479,3,-1,0,-2,-2,-4,1,1
1558441640587479,1,2,-2,-1,-1,-7,-3,0
1558441640593462,-1,1,3,3,7,4,5,3
1558441640593462,-3,-3,-2,0,2,-4,0,0
1558441640609420,-1,-3,-3,-2,-4,6,-1,-3
1558441640609420,-1,0,2,0,3,7,5,1
1558441640615404,0,1,-2,-3,-7,-9,-3,-2
1558441640615404,-4,-3,-2,0,-1,-3,-4,-1
1558441640624380,-3,0,3,0,-2,1,-4,-2
1558441640624380,2,1,-3,-2,-1,0,-4,-3
1558441640639341,2,-1,-3,-2,0,2,5,0
1558441640639341,-2,-4,-2,0,-1,-2,-1,-1
1558441640645324,0,1,2,1,-1,2,1,-1
1558441640645324,-1,1,0,-2,2,5,2,-1
1558441640661282,-3,-4,-3,-1,-8,-4,-6,-2
1558441640661282,0,0,-1,-3,0,-5,-1,-2
1558441640685218,-1,-1,2,-1,2,2,-2,0
1558441640685218,-2,-2,-2,0,3,6,1,0
1558441640686214,-3,-4,-6,-3,-2,-12,-6,-1
1558441640686214,1,0,0,-1,0,6,0,-1
1558441640687212,-3,-1,-3,-1,-4,-6,-3,-1
1558441640687212,-1,-2,-1,-3,-8,-8,-1,-2
1558441640699180,2,3,7,4,7,5,5,2
1558441640699180,-2,-4,-7,-4,-2,3,-2,-3
1558441640714139,-4,-4,2,0,-3,-4,3,-1
1558441640714139,-2,0,-2,-1,-5,-8,-2,-1
1558441640721121,-2,0,-3,-1,-3,-1,-2,-3
1558441640721121,0,1,1,1,3,7,2,0
1558441640736081,3,1,-6,-2,3,-7,0,2
1558441640736081,-3,-3,-2,-2,-7,-3,-3,-3
1558441640737085,-2,-1,-2,-4,-9,-5,-5,-2
1558441640737085,0,3,5,4,12,9,6,3
1558441640745057,3,0,-1,-1,-2,-1,-4,-2
1558441640745057,0,-1,-2,-1,-1,-4,2,-1
1558441640759020,-2,-3,-1,1,-1,2,2,-1
1558441640759020,-1,1,-4,-2,-3,4,-1,0
1558441640773979,-1,1,3,0,0,-5,-1,0
1558441640773979,0,1,0,-2,-1,5,-1,0
1558441640774977,1,1,-2,-1,-4,-3,-1,-3
1558441640774977,-3,-3,-4,-5,1,-6,2,0
1558441640787943,-2,0,0,0,-1,-4,2,2
1558441640787943,-2,-3,-1,-2,-1,0,-2,-2
1558441640795922,-1,-2,-2,0,3,16,-1,0
1558441640795922,-4,-2,1,-1,-8,2,-5,-5
1558441640810881,1,0,-2,-1,1,1,3,0
1558441640810881,-1,0,1,0,4,-6,1,1
1558441640818875,0,-3,2,-1,-4,-13,-3,-2
1558441640818875,-3,-4,-7,-6,-7,-9,-8,-3
1558441640833820,-3,-1,0,0,0,10,-2,-1
1558441640833820,-1,-2,-1,1,1,10,2,0
1558441640834817,-1,-1,-1,-2,1,2,1,-1
1558441640834817,1,-1,3,-1,-3,-12,-1,2
1558441640849777,-2,0,-1,-1,5,15,2,1
1558441640849777,-2,-2,-3,-2,-2,-3,-2,-2
1558441640855761,-2,0,-2,-1,2,-10,-2,-1
1558441640855761,-1,-2,-1,-2,-4,-11,-3,-3
1558441640870720,-2,-2,-2,-2,-5,-6,-2,-3
1558441640870720,1,0,1,-1,2,-4,0,3
1558441640886678,-3,-2,-1,0,4,11,3,0
1558441640886678,-4,-2,-2,0,-2,1,-2,-1
1558441640893660,-1,-1,-1,-1,-2,-7,-4,-1
1558441640893660,-4,-3,-3,-2,-6,-2,-6,-6
1558441640894657,0,-2,-1,0,0,6,1,-1
1558441640894657,3,2,2,-2,-5,-10,-2,0
1558441640908619,-2,-2,-3,-1,-1,-1,-1,-1
1558441640908619,2,0,-1,0,1,2,0,1
1558441640915608,2,1,-3,-1,-4,1,-2,-2
1558441640915608,-4,-3,-1,1,-1,4,-4,-3
1558441640939537,3,0,2,2,4,-9,3,3
1558441640939537,-4,-2,5,0,-2,-18,0,1
1558441640940534,1,0,-5,-2,0,1,-3,-3
1558441640940534,-1,-4,-7,-3,-9,0,-7,-4
1558441640953499,-2,-2,-1,-2,-6,1,-3,-3
1558441640953499,1,-1,1,2,10,-1,3,3
1558441640954497,0,1,3,3,4,-2,3,0
1558441640954497,0,1,0,-1,-4,-3,0,-1
1558441640968460,-2,-3,-3,0,-2,-1,1,0
1558441640968460,-1,1,0,0,-6,0,-3,-1
1558441640975441,-3,-2,-1,-1,4,8,1,1
1558441640975441,0,-1,-1,-1,3,-4,0,-1
1558441640999378,0,-1,1,-2,0,-4,-4,-4
1558441640999378,-1,-1,-3,-1,-4,2,-2,-3
1558441641000375,-3,-2,-3,-2,-1,0,-4,-1
1558441641000375,2,-1,1,1,-1,1,3,0
1558441641013341,2,-1,0,-2,0,-2,-1,0
1558441641013341,0,0,0,0,0,1,1,0
1558441641014338,0,-2,3,-2,-6,-13,-2,-1
1558441641014338,-3,-5,-14,-6,-2,3,-1,-3
1558441641028299,-3,-2,-4,-2,2,13,2,-2
1558441641028299,-1,-1,-4,0,-2,-9,-4,-1
1558441641035281,-3,0,1,-1,-3,-6,-1,1
1558441641035281,0,2,8,2,3,-4,2,2
1558441641052235,1,0,-4,-1,0,9,2,-2
1558441641052235,-4,-4,-2,-4,0,2,-1,-3
1558441641059216,-2,0,3,-1,-4,-12,-2,0
1558441641059216,-1,0,-6,2,5,7,2,2
1558441641082155,-2,-2,-1,0,-6,0,-3,-3
1558441641082155,0,0,-2,-2,-7,-3,-4,-1
1558441641083153,2,1,-1,-3,-3,-4,-4,-1
1558441641083153,-10,-5,2,1,4,3,3,-2
1558441641088140,0,1,3,0,2,-4,-2,2
1558441641088140,-1,-3,-2,-3,-2,1,-2,-2
1558441641096119,-2,-1,-3,-1,2,7,3,-2
1558441641096119,3,3,4,2,9,9,8,5
1558441641111078,0,-1,-2,-1,-3,-8,-2,1
1558441641111078,-4,-3,-2,-3,-8,-7,-2,-2
1558441641126039,0,-1,-4,-2,-2,-3,-1,-2
1558441641126039,2,0,2,-1,-4,0,-2,-3
1558441641134017,-3,-2,0,-2,-2,-1,-4,-4
1558441641134017,3,1,1,1,9,9,3,2
1558441641135014,-1,0,4,-1,1,-5,1,0
1558441641135014,-2,-4,-6,-4,-4,-4,-4,-1
1558441641147979,-1,-1,-1,-2,-4,-3,-5,-2
1558441641147979,-2,-3,-4,-2,-2,3,-3,-2
1558441641163936,-2,0,1,0,-3,1,-2,-3
1558441641163936,-1,-4,-4,-3,-2,3,3,-2
1558441641170919,2,1,-6,0,4,-4,3,1
1558441641170919,0,-1,-1,0,4,7,3,3
1558441641178898,-2,0,1,-2,-4,0,-6,-2
1558441641178898,1,-1,1,-1,-8,-13,-8,-2
1558441641193857,-2,1,3,3,5,9,7,2
1558441641193857,-1,-1,-4,-3,-1,-3,-1,-2
1558441641194854,-5,-3,-5,-1,0,1,-1,-2
1558441641194854,-1,1,0,-2,-6,-1,-8,-6
1558441641216795,0,-1,-1,-2,-2,-5,-1,0
1558441641216795,-2,2,-1,-1,2,-7,1,-2
1558441641216795,0,-2,-1,-1,-2,0,2,0
1558441641216795,0,1,0,0,1,-3,-4,0
1558441641230757,-4,-3,0,-3,-5,1,-5,-5
1558441641230757,0,-2,-8,-1,-4,3,-1,0
1558441641238736,-1,-3,-4,-1,1,-1,-4,-1
1558441641238736,2,1,5,2,8,7,11,3
1558441641253697,-2,-2,4,0,2,-2,0,0
1558441641253697,-4,-5,-2,-2,-6,-5,-8,-5
1558441641254694,-2,-4,-8,-5,-7,-9,0,-1
1558441641254694,2,1,1,0,1,1,-2,-1
1558441641276634,-1,-1,-5,-3,-2,-1,-2,-1
1558441641276634,2,0,0,0,-6,-4,-4,-2
1558441641276634,0,-2,-5,-1,7,-3,2,1
1558441641276634,0,0,2,-1,0,-10,2,1
1558441641292593,0,-2,-1,-1,0,2,0,-1
1558441641292593,-1,-1,1,0,3,5,0,-1
1558441641298576,2,-1,1,-1,-1,0,-3,-4
1558441641298576,-5,-3,-5,-2,-6,0,-3,1
1558441641313537,-1,-1,0,1,0,-7,1,-3
1558441641313537,1,1,-1,-2,-2,-7,0,1
1558441641314533,-3,0,-1,-2,-6,7,-4,-5
1558441641314533,-1,-5,-3,-3,-2,-1,-2,-4
1558441641329493,4,5,7,3,10,-17,3,4
1558441641329493,-2,-2,-3,-1,5,5,3,-1
1558441641335477,-2,-2,1,1,2,1,4,0
1558441641335477,-2,-3,-5,-3,-7,-2,-7,-5
1558441641352432,-1,-4,-4,-4,-11,-2,-6,-2
1558441641352432,-1,1,3,2,6,6,6,3
1558441641358415,2,0,1,1,2,1,-2,2
1558441641358415,-2,-1,-2,-3,-6,-4,-5,-3
1558441641374373,-3,-2,-3,-3,-7,1,-1,-2
1558441641374373,-1,0,1,0,0,-9,0,0
1558441641381354,1,-1,-4,-2,0,9,2,-2
1558441641381354,0,0,1,2,4,8,2,0
1558441641388335,-2,-2,-2,1,0,-8,-4,-2
1558441641388335,1,0,2,1,3,-3,-2,0
1558441641404330,0,0,0,0,-4,-9,0,-1
1558441641404330,-2,-1,-1,-4,-2,-5,-7,-4
1558441641410315,-1,-2,1,-2,0,21,0,-4
1558441641410315,-1,-1,-2,-4,-5,1,-2,-1
1558441641418290,-3,-4,-8,0,1,-1,1,0
1558441641418290,0,1,1,-2,1,-12,3,2
1558441641458188,-4,-3,-5,-5,-4,0,-1,-1
1558441641458188,-2,0,3,-1,-6,-6,-7,-4
1558441641459147,-3,-1,0,1,1,3,2,0
1558441641459147,2,-1,1,2,0,4,-1,1
1558441641460145,1,1,4,-2,1,-2,-2,-1
1558441641460145,-8,-9,-5,-2,-1,2,-2,-3
1558441641464132,-1,0,1,-1,-7,-4,-3,0
1558441641464132,0,-3,-1,0,6,3,-3,-3
1558441641471134,-1,1,-1,0,-2,-6,-3,-3
1558441641471134,2,3,2,1,0,-12,3,1
1558441641478096,5,3,5,4,9,-2,7,2
1558441641478096,-4,-5,-5,-2,-4,2,-1,-3
1558441641495051,0,0,-4,-3,-7,-1,-3,-1
1558441641495051,-3,-2,-3,-4,-4,6,-1,-3
1558441641501035,-2,0,2,0,2,3,-3,-2
1558441641501035,1,2,-1,-2,-3,-3,0,-1
1558441641515993,-3,-3,-3,-2,3,10,-1,0
1558441641515993,-2,-4,1,2,-1,-3,0,0
1558441641516991,-1,-2,-3,-3,2,-4,-1,-1
1558441641516991,0,1,4,1,-3,-2,0,-1
1558441641530957,-2,-2,-7,-2,-1,-8,-2,-3
1558441641530957,0,-1,-4,-2,-2,-10,-3,0
1558441641554927,0,-1,-3,-4,-4,4,-5,-3
1558441641554927,-3,-2,-2,-1,-4,-6,-4,-2
1558441641555888,0,1,2,2,-4,-4,-2,-2
1558441641555888,-1,0,-1,0,-1,7,0,0
1558441641569850,-2,0,0,-3,-3,-1,-1,-2
1558441641569850,-2,-1,-4,-4,-10,-13,-7,-1
1558441641570848,2,1,3,2,13,11,5,3
1558441641570848,2,1,0,1,9,8,8,4
1558441641575833,-6,-4,-2,0,-7,-3,-4,-2
1558441641575833,1,1,1,2,9,11,7,2
1558441641590794,0,-1,0,-1,-5,-15,-3,-1
1558441641590794,-2,-2,-3,-4,-5,-3,-6,-3
1558441641606752,0,-2,-1,-1,-3,0,-1,-1
1558441641606752,-3,-2,-3,-2,-5,-1,-2,-2
1558441641612737,-1,-2,-2,0,-3,0,2,-1
1558441641612737,1,0,2,0,-4,-4,-4,-3
1558441641621713,0,-2,-4,-4,-5,-3,0,-2
1558441641621713,-1,0,-1,-1,1,2,-2,-3
1558441641628693,-1,-3,-2,-1,0,2,-2,-2
1558441641628693,-2,0,0,-4,-9,1,-5,-5
1558441641635673,1,-1,2,1,12,4,9,3
1558441641635673,1,2,5,3,6,-11,3,2
1558441641650633,-6,-4,-11,-4,-7,-5,-3,-2
1558441641650633,2,-1,2,-1,-1,-5,-5,-2
1558441641666623,-1,-1,0,-1,-5,1,-7,-3
1558441641666623,-2,-2,-2,-2,0,13,3,0
1558441641681553,-1,0,3,2,6,3,0,-1
1558441641681553,-2,-4,-5,-3,-7,-11,-3,-2
1558441641682549,1,0,1,1,2,-9,1,1
1558441641682549,-1,-3,-2,-2,0,3,0,0
1558441641696513,0,-2,-1,-4,-7,-1,-6,-2
1558441641696513,0,0,-1,0,3,7,1,-2
1558441641697526,0,0,0,-1,-3,0,-3,-1
1558441641697526,0,-1,-3,-1,-1,-3,-4,-2
1558441641718488,-2,-2,0,-3,-2,-6,-2,-3
1558441641718488,-1,-2,0,1,0,-8,4,1
1558441641719450,0,2,-1,0,2,3,0,-1
1558441641719450,-2,-1,-2,-4,-4,3,-4,-5
1558441641734410,1,-1,2,0,1,-3,1,-2
1558441641734410,-1,-2,-1,-1,0,6,2,0
1558441641741391,-4,-3,-1,-1,-2,-5,-3,0
1558441641741391,-1,-2,1,0,-5,-14,-4,1
1558441641756353,1,0,0,0,5,11,2,0
1558441641756353,2,1,0,0,2,-3,-1,-1
1558441641757349,-4,-3,-6,-4,-9,-11,-5,-4
1558441641757349,1,-2,-3,-1,-2,-6,-2,-1
1558441641770313,0,0,0,0,3,11,2,0
1558441641770313,0,3,1,-1,-2,0,-4,-4
1558441641778293,-11,-8,0,-2,4,4,-1,-1
1558441641778293,-2,-3,1,-1,-4,-5,-2,0
1558441641793252,-1,-1,2,0,-2,4,4,1
1558441641793252,-1,-1,-5,-1,1,-2,-1,1
1558441641801231,5,2,1,-1,0,-9,-3,-1
1558441641801231,-4,-2,-3,-3,0,-1,-2,-3
1558441641817446,0,0,-1,0,-1,-4,0,1
1558441641817446,-1,-1,-1,-1,-5,-3,-1,0
1558441641817446,1,3,-2,-1,1,-5,-1,1
1558441641817446,1,1,3,2,5,2,2,-1
1558441641832153,-2,-2,-8,-6,-8,-1,-4,-4
1558441641832153,-3,-2,-1,-1,-4,-3,-4,-1
1558441641846115,2,0,2,1,2,-3,2,1
1558441641846115,0,2,-2,0,1,-2,-2,-2
1558441641853114,-1,0,0,1,0,1,1,-1
1558441641853114,-2,-5,-3,-3,-1,8,-2,-2
1558441641861076,0,-2,-1,-4,-3,5,-2,-2
1558441641861076,-1,-3,-1,-1,2,12,4,2
1558441641885018,-2,0,-1,0,-6,-12,-1,-1
1558441641885018,0,0,0,0,-1,-11,-4,-1
1558441641885018,3,2,2,-1,4,4,0,1
1558441641885018,-2,1,-2,-1,0,2,1,0
1558441641890994,-1,-1,0,-4,-6,-5,-5,-1
1558441641890994,0,0,-2,0,6,8,6,0
1558441641897975,-2,-2,-2,-2,-2,-3,-3,-3
1558441641897975,-1,-1,-1,-1,-5,1,-1,-1
1558441641912934,-1,-3,-1,-2,-2,-7,-3,-2
1558441641912934,-1,-1,1,2,5,-5,3,0
1558441641920913,1,-1,-4,-2,-6,0,-3,-3
1558441641920913,2,0,0,-1,-1,-7,2,3
1558441641944848,0,0,2,1,6,6,1,0
1558441641944848,-3,-1,0,-2,-3,-1,-5,-2
1558441641944848,-1,0,-2,-2,-4,-3,-4,-1
1558441641944848,-2,-1,-1,-3,-5,-4,-2,-1
1558441641950830,2,0,-1,-1,3,4,0,0
1558441641950830,2,1,0,-2,-1,-7,1,0
1558441641957812,-5,-3,0,0,-2,2,0,-3
1558441641957812,-1,2,0,0,2,3,1,1
1558441641972772,-3,-3,-3,-3,-2,-3,-3,-1
1558441641972772,1,-1,0,-2,0,6,-1,-2
1558441641981748,0,0,0,-2,-3,-7,-2,-1
1558441641981748,-3,-4,-2,-2,-11,-12,-8,-2
1558441641996708,2,4,8,2,5,-3,4,1
1558441641996708,-1,-2,-8,1,2,10,3,0
1558441641996708,-1,-2,-2,0,3,3,1,0
1558441641996708,-2,-2,-4,-1,-2,3,-4,-4
1558441642010671,-3,-3,-2,1,-2,-3,0,-2
1558441642010671,-2,-3,-1,-5,-7,-5,-4,-4
1558441642018650,0,0,2,0,-3,-2,-2,0
1558441642018650,2,0,-2,-1,5,3,5,0
1558441642033609,1,0,0,-1,-2,-10,-1,2
1558441642033609,-3,-3,0,-3,-3,-8,-3,-2
1558441642049593,-3,-1,-2,-2,-4,5,-4,-1
1558441642049593,-4,-2,-1,0,-2,7,-2,-2
1558441642056550,-3,-1,-1,2,5,-5,0,2
1558441642056550,-3,-2,1,2,3,1,3,1
1558441642056550,0,-1,-4,-3,-9,-13,-8,-3
1558441642056550,2,-1,-1,1,9,9,7,3
1558441642072505,-3,-2,-1,-3,-5,-10,-6,-3
1558441642072505,-1,1,3,1,-6,-2,-4,-2
1558441642078490,-1,0,-2,1,11,11,3,0
1558441642078490,-4,-2,2,-1,-3,-8,-5,0
1558441642109409,0,-5,-9,-4,-4,5,-2,-2
1558441642109409,-1,-1,3,-1,-9,-10,-7,-1
1558441642110404,0,1,-2,0,1,0,5,2
1558441642110404,2,1,8,0,4,-5,3,-1
1558441642126361,-2,-3,-7,-1,3,10,-1,-2
1558441642126361,-3,0,-2,-2,-4,4,-2,-4
1558441642126361,0,0,2,2,1,-1,2,3
1558441642126361,0,-2,-3,-1,-2,-3,-2,0
1558441642130352,1,0,3,0,0,-5,-3,0
1558441642130352,0,0,-4,0,-3,2,4,2
1558441642138331,-3,-1,1,0,-7,-3,-3,-2
1558441642138331,0,-1,-4,2,13,14,9,3
1558441642169304,-2,1,-1,-4,-6,-6,-4,-3
1558441642169304,1,0,-3,1,12,13,7,5
1558441642170245,-3,0,2,-1,1,2,-1,0
1558441642170245,0,-1,1,-1,-11,-9,-10,-4
1558441642176255,-1,-2,-2,-2,-3,3,-5,-4
1558441642176255,-2,-3,-4,-2,-5,-11,-4,-2
1558441642177254,1,1,0,1,4,-8,2,0
1558441642177254,-2,-3,-3,-2,-4,0,-4,-2
1558441642190190,-2,-1,2,0,-4,-3,-1,-1
1558441642190190,0,0,-1,-1,2,5,-1,-1
1558441642198169,-3,-4,-4,-2,0,1,-1,-3
1558441642198169,-1,-1,2,0,-3,-12,-4,-2
1558441642222163,-2,-1,-5,-3,-1,6,3,0
1558441642222163,-1,-2,1,-1,3,-2,-2,-2
1558441642223163,0,0,-1,1,-8,-12,-5,-2
1558441642223163,-3,-3,-6,-2,0,3,-2,-2
1558441642237150,1,-1,0,0,-3,0,0,1
1558441642237150,0,1,3,2,5,6,4,3
1558441642237150,-1,-2,-2,-2,2,6,-2,-2
1558441642237150,-3,-2,1,-2,-9,-6,-3,-2
1558441642251223,0,-1,-4,-1,-4,-5,-1,0
1558441642251223,-1,0,-2,-1,5,9,4,1
1558441642259043,0,-3,1,-1,0,-2,0,0
1558441642259043,1,1,0,-3,-6,-7,-2,-2
1558441642291256,-3,-1,-3,-1,-1,-5,0,-1
1558441642291256,1,-1,-2,-1,-2,-8,-1,-1
1558441642291920,0,-2,-4,-4,-3,2,-2,-1
1558441642291920,-1,-1,-1,-1,-1,-1,-1,-2
1558441642295910,1,-1,3,2,7,13,4,0
1558441642295910,-3,-2,-2,-1,-9,-12,-9,-5
1558441642296905,-1,-1,0,-1,0,4,1,-2
1558441642296905,0,0,2,-2,1,5,-1,-2
1558441642310975,-1,1,7,1,0,-7,2,1
1558441642310975,-4,-4,-6,-3,0,-2,0,0
1558441642334804,-1,-2,-6,-2,-4,5,-1,-1
1558441642334804,1,2,-3,0,2,1,4,2
1558441642335802,-5,-1,1,-1,0,1,-5,-3
1558441642335802,1,0,-2,0,2,2,0,-1
1558441642342076,-2,-2,-1,-2,-4,0,-4,-2
1558441642342076,-2,-1,-4,-2,-7,-7,-3,-1
1558441642357150,1,0,1,0,3,-9,-5,-1
1558441642357150,0,-1,-2,-4,-2,2,3,1
1558441642357150,-1,-3,-2,0,0,-7,-5,-1
1558441642357150,-1,-2,1,0,0,-5,-3,-1
1558441642371084,-2,1,0,0,2,11,7,1
1558441642371084,-3,0,-2,-1,-6,-1,-3,-2
1558441642387169,0,-1,-2,-1,-1,3,-1,-1
1558441642387169,-2,-2,-2,0,3,0,2,0
1558441642393416,0,-2,-4,-2,-7,-4,-6,-3
1558441642393416,-1,0,0,-3,-3,-7,-4,-2
1558441642401110,4,1,2,2,5,3,8,4
1558441642401110,0,-2,-2,-2,-2,-6,-5,-2
1558441642416346,-1,-2,-4,0,2,10,1,-1
1558441642416346,-1,-1,2,-1,-2,-3,-4,-4
1558441642425015,-2,-1,-1,-4,-4,4,-4,-5
1558441642425015,0,2,-3,0,1,0,4,1
1558441642432206,1,-1,-1,0,1,-20,-1,1
1558441642432206,-2,-1,-1,1,0,-5,-2,-1
1558441642438276,-3,-2,-1,0,-1,6,-3,-2
1558441642438276,0,-1,-1,-1,3,2,2,0
1558441642454939,1,0,-1,-1,-8,-2,-3,1
1558441642454939,-3,-4,-2,-4,-3,2,-2,-1
1558441642460922,1,1,1,2,1,-6,1,2
1558441642460922,-3,-1,-7,0,0,4,-1,0
1558441642476178,-2,0,5,-1,-8,-4,-5,-5
1558441642476178,1,2,-1,-1,8,-3,5,2
1558441642483859,-2,-4,-3,0,-3,5,1,-1
1558441642483859,0,-1,0,-1,2,2,-1,-2
1558441642499816,1,-1,-4,-1,-4,-4,-1,0
1558441642499816,-1,-1,2,0,-8,-4,-6,-2
1558441642500816,-1,0,1,1,2,-3,-3,-1
1558441642500816,0,-1,1,-3,-1,4,1,-2
1558441642512851,-1,-2,-4,0,2,5,5,1
1558441642512851,0,0,1,1,1,-5,-2,1
1558441642521827,-1,-1,-5,-4,-5,-5,0,-3
1558441642521827,-2,-1,-1,-1,-6,-2,-7,-2
1558441642535789,0,0,-2,0,0,0,-1,0
1558441642535789,0,0,2,-1,1,-4,2,4
1558441642553067,0,1,3,1,5,-3,2,1
1558441642553067,-4,-5,-1,-2,-2,4,-2,-2
1558441642560043,-2,-6,-10,-7,-7,-6,-5,-2
1558441642560043,-2,-1,-2,0,-1,3,-1,-1
1558441642567013,-3,0,-1,-1,-4,-6,-2,-2
1558441642567013,-1,0,3,-1,0,-1,0,1
1558441642573963,0,0,-1,2,8,7,1,0
1558441642573963,0,-3,-4,-2,-3,-6,-2,-3
1558441642581967,1,-2,2,-1,-4,-8,-2,-1
1558441642581967,0,-1,-3,-3,-4,0,2,-2
1558441642595631,-2,-4,1,-3,-2,0,-4,0
1558441642595631,0,0,-2,-1,3,4,3,1
1558441642611589,-1,1,-1,-1,4,3,0,-2
1558441642611589,-1,-2,-2,-1,-4,-2,-4,-3
1558441642619678,-4,-3,3,-2,-3,0,-1,-3
1558441642619678,0,0,-4,-2,-3,0,1,-2
1558441642619678,0,-2,-4,-2,-4,-7,-4,0
1558441642619678,0,1,1,1,7,8,2,2
1558441642633528,0,-2,-2,-4,0,-4,-2,0
1558441642633528,0,-1,0,0,3,9,1,0
1558441642641506,-3,-2,-3,-2,-3,0,-1,-1
1558441642641506,-1,0,0,-2,-2,-12,-2,-1
1558441642655469,-4,-1,-1,0,0,3,1,-4
1558441642655469,-2,-2,0,-1,-3,-1,-1,-2
1558441642664446,0,-1,0,-2,-3,-10,-1,0
1558441642664446,0,1,0,0,4,-1,0,0
1558441642678911,1,2,0,0,-4,-8,-5,-1
1558441642678911,1,1,4,2,6,1,-2,-1
1558441642679908,-6,-3,-5,2,-3,4,-1,-3
1558441642679908,-4,-6,-10,-8,-9,-8,-4,-3
1558441642694101,0,0,-1,0,1,9,6,0
1558441642694101,-4,-4,-4,-3,-5,-4,-4,-4
1558441642701855,2,1,3,-1,-3,-10,-5,-1
1558441642701855,-1,1,2,3,7,15,10,2
1558441642732128,-1,0,-3,1,7,3,1,0
1558441642732128,-1,-1,-1,-3,-5,-7,-6,-3
1558441642733688,-1,-1,0,0,1,1,1,0
1558441642733688,-4,0,-1,-2,-7,-4,-3,-2
1558441642738664,-2,-2,-2,-3,-5,-5,-2,-2
1558441642738664,-1,-3,-3,-2,-3,6,-3,-3
1558441642739662,0,-2,0,-3,-3,-4,-3,-1
1558441642739662,0,-1,1,3,8,-2,3,3
1558441642753656,0,-3,0,-2,-2,-4,-2,-1
1558441642753656,-1,-1,1,-1,3,8,2,-2
1558441642761604,-4,-5,-4,-2,-5,5,-4,-4
1558441642761604,1,-3,-2,-2,-5,-2,-4,-5
1558441642791523,2,0,0,0,-2,-15,0,3
1558441642791523,-1,-2,-2,-2,-9,-9,-4,-2
1558441642792520,0,0,-2,0,6,18,5,0
1558441642792520,-1,-1,0,-1,-4,-19,-4,-1
1558441642798539,-1,1,0,3,8,16,5,1
1558441642798539,0,0,-3,-1,0,-3,0,1
1558441642799502,-3,-1,-1,-1,-3,-3,-2,-1
1558441642799502,-3,-1,-1,-1,-1,1,-2,-1
1558441642813500,-3,0,-1,-3,-3,-8,-5,-3
1558441642813500,-1,-5,-3,-4,-6,-5,-4,-3
1558441642821442,-2,-2,-4,0,0,1,2,-1
1558441642821442,2,2,5,2,9,3,3,4
1558441642836441,-1,-4,-8,-2,-2,1,-1,-2
1558441642836441,-2,0,4,0,0,-1,0,0
1558441642843386,-2,-2,1,-2,-6,-15,-7,-1
1558441642843386,-1,-3,-9,-2,-3,10,-2,-4
1558441642859661,-2,0,2,-1,-1,-2,-1,0
1558441642859661,0,2,0,3,10,4,10,5
1558441642860341,0,-1,0,-2,-4,-9,-2,-3
1558441642860341,-1,-2,1,2,0,7,0,-1
1558441642873626,2,-1,1,-2,-4,-17,-4,1
1558441642873626,-3,-2,-6,-3,-4,-1,-3,-3
1558441642889597,0,0,0,0,1,7,2,-3
1558441642889597,-1,-1,-2,-2,-1,1,-1,-2
1558441642895249,-2,-2,-1,0,-1,9,-2,-3
1558441642895249,-2,-2,-1,0,-4,-7,-4,-3
1558441642904560,-1,0,-3,-2,-1,1,-1,1
1558441642904560,0,-3,-1,-3,0,-15,-3,-2
1558441642919181,-2,-2,-3,0,-3,3,-2,-1
1558441642919181,1,1,8,2,5,2,2,0
1558441642919181,-1,-1,-5,2,8,10,3,2
1558441642919181,-1,-1,-1,-2,-4,-4,-3,-3
1558441642942120,1,2,0,-2,-1,-6,-1,-2
1558441642942120,0,-1,0,-3,-3,-2,-3,0
1558441642943118,2,0,-2,0,-3,-5,-4,-2
1558441642943118,-3,-2,-1,-3,-3,12,-3,0
1558441642956083,0,0,2,0,0,-6,2,1
1558441642956083,1,-2,-1,1,-3,-2,0,-1
1558441642964534,0,1,3,1,6,2,2,2
1558441642964534,-3,-1,-1,-1,-5,-5,-4,1
1558441642979023,-2,-2,-2,-5,-2,0,-4,-4
1558441642979023,-1,-1,-3,-2,-6,0,-4,-2
1558441642980236,1,1,1,0,2,-4,2,2
1558441642980236,-2,-1,-3,-1,0,0,0,0
1558441642994032,-1,-1,-3,-1,-2,1,-1,-2
1558441642994032,1,-3,0,1,-1,-7,-4,-4
1558441643002957,-2,-5,-5,-5,-8,1,-7,-5
1558441643002957,0,4,7,5,9,5,11,5
1558441643015925,1,-2,-5,-2,6,1,5,2
1558441643015925,-2,-3,-7,-1,3,9,2,-1
1558441643024226,-3,-4,0,-1,-6,-9,-5,-3
1558441643024226,0,-2,0,-3,-8,-8,-9,-3
1558441643063020,0,1,3,1,-2,-2,-2,0
1558441643063020,-1,-2,-6,-3,3,-1,3,0
1558441643063020,-3,-1,-1,1,0,1,-2,-1
1558441643063020,-1,-2,-6,-4,-8,-2,-4,-4
1558441643071017,-1,-2,3,0,0,3,0,-1
1558441643071017,0,0,-8,-3,-2,-6,-5,-2
1558441643071778,0,2,3,2,1,2,5,2
1558441643071778,0,1,0,1,7,-2,3,1
1558441643076064,-2,0,0,0,-1,5,-2,-2
1558441643076064,-3,-1,1,-2,-4,4,-3,-1
1558441643084029,1,-4,-3,-1,1,4,-1,-2
1558441643084029,0,-1,-2,0,-5,-6,-2,-2
1558441643099701,-5,-2,-2,-3,-8,0,-2,-1
1558441643099701,2,2,4,3,7,-4,2,3
1558441643100822,-2,-1,-1,0,1,-6,-2,-1
1558441643100822,-2,-1,-4,-5,-7,2,-6,-4
1558441643121643,0,-1,-1,1,3,-8,2,0
1558441643121643,0,-1,1,-1,1,0,2,-3
1558441643122639,-1,-1,-1,-1,-3,2,0,0
1558441643122639,1,-3,-4,0,0,-7,-2,-1
1558441643135869,-2,-2,-2,-2,-2,3,-5,-2
1558441643135869,-4,1,0,-1,-3,0,-3,1
1558441643143582,0,0,-1,-2,1,-3,0,-1
1558441643143582,-1,0,1,-3,-2,-1,0,-1
1558441643158541,-3,-1,-4,-2,-3,-3,-4,-1
1558441643158541,-1,-1,0,-3,-1,2,-2,-3
1558441643159539,-1,1,0,-2,-1,8,4,-1
1558441643159539,1,3,6,3,12,5,7,2
1558441643174692,0,-4,-4,-3,-1,-10,-2,-2
1558441643174692,-3,-4,-5,-3,-1,-12,-1,-1
1558441643181778,-1,-3,-5,-1,2,13,1,-2
1558441643181778,-2,-3,-2,-2,-6,3,-4,-3
1558441643195447,0,1,4,1,-4,-4,-1,0
1558441643195447,0,2,-1,0,0,-2,0,-1
1558441643204616,-1,-1,0,-1,-3,-10,-3,0
1558441643204616,-1,-3,-1,0,-2,1,-1,-1
1558441643218646,-1,-3,-1,0,4,7,-1,0
1558441643218646,-1,-2,-1,0,0,6,0,-1
1558441643219381,1,0,0,1,-2,-8,0,0
1558441643219381,-3,0,0,-2,-4,-3,-5,-2
1558441643234639,-3,-1,-3,-3,-7,-6,-7,-3
1558441643234639,-2,2,2,1,2,-7,4,1
1558441643241610,1,0,3,3,12,10,6,0
1558441643241610,-2,-2,-2,-3,-6,-2,-4,-3
1558441643256454,1,-2,2,1,4,7,4,0
1558441643256454,0,-1,-1,-3,-3,-2,-3,-2
1558441643264553,-1,-2,-6,-5,-13,-12,-11,-4
1558441643264553,0,-2,0,0,2,-8,3,1
1558441643287476,-1,1,1,3,8,12,7,2
1558441643287476,-1,-2,-2,-3,-6,1,-2,-1
1558441643288356,-1,-3,-1,-2,-5,-4,-3,-2
1558441643288356,2,2,0,2,2,3,4,2
1558441643293474,0,1,-1,-2,-3,-14,-6,-2
1558441643293474,2,0,2,2,8,11,2,1
1558441643300445,-3,-2,-2,-5,-7,-8,-7,-2
1558441643300445,-3,-3,-3,-4,-9,0,-8,-5
1558441643316397,0,0,-3,2,7,17,8,1
1558441643316397,1,1,1,0,1,-12,2,2
1558441643324102,-2,-1,-3,-2,1,0,-1,-2
1558441643324102,0,0,4,4,4,4,-2,0
1558441643347038,-3,-3,-10,-4,-6,4,-4,-4
1558441643347038,-3,-4,2,-5,-13,-5,-8,-5
1558441643348037,-1,-1,-6,-1,-2,-9,3,0
1558441643348037,-1,-1,-1,-1,5,5,2,-1
1558441643353024,0,1,1,-2,0,1,-1,0
1558441643353024,0,-1,-1,0,-3,-1,-1,-2
1558441643361001,0,1,2,-1,1,4,2,1
1558441643361001,-2,-1,-4,0,-1,5,-2,-3
1558441643385284,2,-1,2,1,1,-24,-1,2
1558441643385284,-2,-3,-4,0,-4,2,-4,-2
1558441643385284,0,0,3,0,2,6,3,2
1558441643385284,-3,-2,-2,-1,-2,-2,-1,-1
1558441643398908,-3,-3,-6,-4,-5,4,-3,-4
1558441643398908,-1,0,-1,-3,-9,-15,-8,-2
1558441643407162,-1,-2,0,0,3,2,0,0
1558441643407162,2,2,2,0,5,6,6,3
1558441643413888,0,-2,2,-2,-4,-4,-5,-2
1558441643413888,-2,-3,-2,-2,-5,-4,-3,-4
1558441643420842,2,1,4,1,6,-7,0,-1
1558441643420842,-1,0,-3,-2,1,0,0,0
1558441643437125,0,-1,1,0,0,0,-2,-2
1558441643437125,2,0,-2,-2,-1,6,3,1
1558441643451759,-3,0,1,0,0,-2,-1,0
1558441643451759,-2,-4,-1,-3,-6,-10,-3,-2
1558441643459027,-1,1,-1,-1,-2,-2,-1,0
1558441643459027,-1,-4,-5,-2,-2,9,-4,-3
1558441643467012,0,-1,-1,0,3,1,0,-1
1558441643467012,0,-1,-1,1,6,0,6,3
1558441643474003,0,0,3,-1,-5,3,-2,-4
1558441643474003,-4,-2,-1,-1,1,1,-1,-2
1558441643480977,-2,-1,-2,-3,-8,-12,-7,-2
1558441643480977,0,-2,1,0,-2,0,-1,-1
1558441643511599,-1,-3,-8,-4,1,4,2,-2
1558441643511599,3,3,4,2,2,-1,1,2
1558441643512597,-2,-1,-4,-2,-3,-4,0,-2
1558441643512597,-3,-3,-8,-5,-10,-9,-7,-6
1558441643518852,-2,-2,-1,0,2,5,0,-1
1558441643518852,-3,-1,-3,-3,-4,-5,0,-2
1558441643526867,0,0,1,-1,0,1,0,0
1558441643526867,-1,0,-3,1,5,11,1,-1
1558441643541517,-1,-2,1,0,1,-7,-2,0
1558441643541517,-1,-1,-3,-2,-6,-11,-3,0
1558441643541517,2,-1,2,1,2,4,-1,-1
1558441643541517,-2,-3,1,-2,-1,-2,2,-3
1558441643565489,1,1,3,2,0,-6,-1,-1
1558441643565489,-2,-2,-12,-5,0,3,0,0
1558441643566451,-1,0,2,0,0,0,2,-1
1558441643566451,0,-1,-6,-1,-4,1,-2,-1
1558441643578420,-4,-1,1,-3,-2,7,-2,-2
1558441643578420,1,0,5,1,3,-8,2,1
1558441643586749,-1,0,-3,-1,2,-3,-1,-1
1558441643586749,-2,1,-2,-1,-6,-9,-5,-2
1558441643601489,0,0,4,1,0,0,-1,-1
1558441643601489,0,-1,1,0,2,5,0,-1
1558441643602355,0,-2,-6,-2,-2,6,-2,-2
1558441643602355,2,1,6,3,6,1,5,2
1558441643616416,2,0,0,0,-2,-7,-3,0
1558441643616416,0,0,-3,0,2,2,0,1
1558441643623300,-4,-3,-3,-4,-8,-6,-5,-2
1558441643623300,-1,-2,0,-3,-9,-2,-5,-2
1558441643638257,1,0,0,1,6,-4,4,1
1558441643638257,-1,-1,-1,-1,0,0,-2,-4
1558441643646237,0,0,3,1,-2,2,0,-2
1558441643646237,-2,-1,-4,-2,2,-2,-4,1
1558441643661197,-4,-3,-5,-3,-7,0,-2,-2
1558441643661197,1,-1,2,1,4,8,3,1
1558441643662194,0,-4,-6,-3,-3,-7,-3,-1
1558441643662194,2,2,6,0,0,-10,-1,0
1558441643677319,-1,-3,-6,-1,-4,-3,-1,0
1558441643677319,-3,-2,-4,0,2,4,-5,-3
1558441643684138,-2,-2,-6,-2,-2,-1,-3,-2
1558441643684138,1,0,-1,0,-2,-1,-1,-1
1558441643698475,1,2,2,0,8,3,5,3
1558441643698475,-1,-1,1,0,-4,-1,2,1
1558441643707112,-3,-2,1,-1,1,16,0,-1
1558441643707112,0,0,1,0,-2,-11,1,0
1558441643722221,0,-2,-2,-2,1,-8,-6,-1
1558441643722221,-3,-3,-3,-3,-5,-1,-3,-4
1558441643722221,-2,-1,-2,-1,1,-1,2,-1
1558441643722221,-2,-3,-5,-4,-7,-4,-7,-3
1558441643743975,-4,-1,-3,-3,-2,6,2,-1
1558441643743975,2,2,3,2,5,-5,3,3
1558441643744973,-2,-2,2,-1,-3,-3,-7,-2
1558441643744973,-1,-3,-6,-4,-1,-1,0,0
1558441643767254,-1,0,0,-1,0,-1,-2,-2
1558441643767254,-2,-1,-3,-1,-3,4,3,-2
1558441643767913,3,2,3,0,6,-9,4,3
1558441643767913,-3,-2,2,-2,-2,-2,-2,-3
1558441643790203,-1,-2,-7,-4,-8,-4,-7,-4
1558441643790203,-1,-1,6,0,3,5,1,2
1558441643790203,-3,-4,-6,-3,-6,2,-4,-4
1558441643790203,-2,-1,0,0,3,3,0,0
1558441643795839,0,-2,-1,-2,-6,-7,-2,-1
1558441643795839,-1,-5,-4,-3,-7,-11,-6,-1
1558441643804167,0,1,2,-1,0,4,1,1
1558441643804167,0,0,1,3,8,-1,2,1
1558441643817896,-2,2,1,0,0,0,0,0
1558441643817896,-3,0,-4,-4,-4,-2,0,-1
1558441643827080,-3,-1,-5,-4,-5,-6,-1,-3
1558441643827080,-2,-1,-3,-1,-1,7,-1,-1
1558441643841714,0,-1,2,0,-1,6,2,0
1558441643841714,3,3,4,3,10,-5,5,5
1558441643841714,0,0,0,1,-2,-1,-3,-2
1558441643841714,-1,0,-1,-3,-6,-4,-5,-3
1558441643855678,-3,-5,-2,-3,-9,-6,-6,-3
1558441643855678,0,0,-1,2,7,12,2,1
1558441643863657,-1,-1,3,0,2,3,1,3
1558441643863657,-2,-3,-1,-2,-2,-7,-4,-2
1558441643887591,0,0,1,-1,2,2,4,1
1558441643887591,-4,-1,-4,-3,-5,-4,0,-2
1558441643887591,-2,-3,-1,-2,-4,-7,0,-1
1558441643887591,-1,1,-2,0,3,2,1,1
1558441643901977,-3,-2,-3,-2,-1,4,-4,-4
1558441643901977,2,0,1,1,-6,-16,-1,-1
1558441643901977,-1,-5,-7,-3,-3,-6,-3,-1
1558441643901977,1,-2,1,-1,0,5,2,-1
1558441643915969,-3,0,-2,0,1,1,2,1
1558441643915969,0,-1,-1,-1,-4,3,-8,-2
1558441643924834,-2,-1,-1,0,-3,-1,-6,-2
1558441643924834,1,-1,-1,0,2,0,3,3
1558441643938492,1,-1,0,2,2,-2,2,1
1558441643938492,-2,-1,0,-3,-2,-6,-4,-2
1558441643953415,-2,0,0,-1,-3,-3,0,-1
1558441643953415,-2,0,-1,0,-2,4,-3,-1
1558441643961394,-2,0,0,-1,-2,-5,-7,-3
1558441643961394,-1,-3,-10,-5,-3,3,-1,-3
1558441643962392,-1,0,-1,0,2,7,3,1
1558441643962392,0,0,1,0,5,0,5,3
1558441643976625,-2,-3,2,0,-3,0,2,0
1558441643976625,-1,-3,-2,-1,-4,-8,-3,-2
1558441643983756,1,0,2,0,0,-1,-2,-2
1558441643983756,-2,-2,-4,-5,-3,6,-1,-2
1558441643998805,0,1,-1,-1,-3,0,-3,0
1558441643998805,-1,-3,4,0,6,7,3,1
1558441644013700,0,0,-5,-2,2,-10,3,1
1558441644013700,-2,-1,-1,-1,-9,-5,-7,-4
1558441644021694,0,1,-1,-2,0,-1,-4,0
1558441644021694,-2,1,2,-1,-2,1,2,-2
1558441644022233,0,0,1,0,4,1,0,0
1558441644022233,-2,-3,-1,-3,-5,-11,-4,-3
1558441644036183,-2,-3,-4,-3,3,5,-2,-1
1558441644036183,-1,-2,-4,-1,-6,1,-2,-3
1558441644044069,-1,-1,-1,-1,-4,-9,-2,-2
1558441644044069,-1,-1,-1,0,-1,0,-3,-2
1558441644058897,2,0,-1,-1,1,4,1,0
1558441644058897,1,-1,1,2,4,6,0,-1
1558441644066910,1,-2,-2,-2,-3,-12,-1,0
1558441644066910,-2,-3,-2,-4,-2,-10,-2,0
1558441644081880,0,-1,-2,-2,1,-1,2,-2
1558441644081880,-3,0,1,0,0,7,1,2
1558441644081880,2,0,-1,0,4,8,3,0
1558441644081880,-2,-1,1,-1,-4,-5,-3,-3
1558441644095549,0,-2,-2,-2,-7,-9,-5,-1
1558441644095549,-3,-3,-2,-1,-3,2,-2,-3
1558441644104525,0,1,1,0,7,3,1,2
1558441644104525,-1,-1,-3,-1,-3,-2,-1,0
1558441644118747,1,1,4,1,1,-2,-1,-1
1558441644118747,-3,-3,-7,-3,-6,-10,-1,-2
1558441644126467,-1,-4,-2,0,-3,0,-5,-1
1558441644126467,-2,-2,-2,0,0,7,1,-1
1558441644141692,-2,1,0,0,-1,5,2,-2
1558441644141692,1,1,-1,1,2,1,-2,-3
1558441644142630,-2,-3,-3,-1,-4,1,-1,-3
1558441644142630,-2,-2,-1,-1,1,-3,-1,0
1558441644155663,0,-2,0,0,3,2,0,1
1558441644155663,-1,0,1,-2,1,-3,1,1
1558441644164604,-3,0,-2,-2,-4,1,-2,-4
1558441644164604,2,0,-1,-1,-3,-5,-1,0
1558441644178325,-2,-2,-2,1,2,-4,0,0
1558441644178325,-2,0,0,0,-1,-1,1,-2
1558441644186334,-2,-1,-2,-4,-4,1,-2,-2
1558441644186334,1,-1,0,-1,2,6,-1,-3
1558441644201265,-3,0,2,0,-1,-6,0,-1
1558441644201265,-1,-1,-6,-4,-4,-1,-4,-1
1558441644202262,-3,-2,-1,-1,-5,-7,-4,-1
1558441644202262,1,1,-3,0,1,2,-2,-1
1558441644232590,1,-1,-5,-4,-7,-9,-6,-3
1558441644232590,1,-1,5,-1,0,1,-1,-2
1558441644232590,1,0,-5,-2,0,-1,-1,-2
1558441644232590,-1,0,2,-1,3,-7,1,2
1558441644238634,-1,-3,-2,-1,-1,2,2,-1
1558441644238634,0,1,1,2,1,-8,-1,3
1558441644246568,-2,-1,0,0,-2,4,0,-2
1558441644246568,-1,-2,0,-1,0,2,1,-2
1558441644270271,-2,-3,-3,-2,-8,-11,-5,-3
1558441644270271,0,0,0,-1,7,3,3,2
1558441644270271,-2,-1,0,-1,-2,-3,-1,-1
1558441644270271,-3,-4,-4,-2,-8,-2,-8,-4
1558441644276392,-2,-2,-2,-2,-3,4,0,-1
1558441644276392,1,0,0,3,10,12,7,2
1558441644284044,-1,3,1,1,1,-20,0,3
1558441644284044,0,0,-2,-1,-3,-5,-3,-3
1558441644298319,-1,0,-4,-1,-3,8,-2,-1
1558441644298319,-2,1,1,-2,1,-2,-3,-4
1558441644306983,-2,-2,-4,-2,5,14,2,1
1558441644306983,-1,-2,-1,-1,-3,-3,1,-1
1558441644321268,-2,-3,-2,-2,-3,-7,0,-3
1558441644321268,2,1,4,0,2,-9,-2,0
1558441644328923,-2,-7,-7,-3,-5,2,-4,-4
1558441644328923,1,1,3,1,4,8,4,2
1558441644336232,-1,-1,-5,-2,0,1,1,0
1558441644336232,-1,-2,-3,-1,-4,-1,-3,-3
1558441644343936,0,1,5,1,-3,-5,-5,-3
1558441644343936,-2,0,-2,-2,-2,0,-2,-3
1558441644357844,1,-1,-1,0,9,12,5,1
1558441644357844,0,1,0,0,-1,-5,-3,-1
1558441644365824,0,-2,-1,0,-5,-8,-1,1
1558441644365824,-1,-1,-2,1,-1,4,1,-1
1558441644398186,-1,2,3,0,0,-10,-3,-1
1558441644398186,-3,-4,-5,-4,-3,7,-2,-2
1558441644398735,0,1,0,0,3,-4,-1,0
1558441644398735,0,-2,-4,-3,-6,-9,-2,0
1558441644400077,1,0,1,2,2,5,1,2
1558441644400077,-1,-2,0,-1,-8,-2,-5,-5
1558441644404210,2,-1,-2,0,2,5,6,-1
1558441644404210,-2,0,-3,-1,-1,0,3,-1
1558441644418060,-3,-2,-6,-4,-5,-11,-5,0
1558441644418060,-4,-4,-1,-5,-8,-6,-5,-2
1558441644427052,-2,-2,1,-1,2,9,0,-4
1558441644427052,0,0,8,1,0,-1,1,-1
1558441644441958,0,-1,-3,-1,4,5,1,-4
1558441644441958,-1,1,-1,-1,-3,-1,-3,1
1558441644456934,0,-1,-1,-2,6,1,1,2
1558441644456934,-1,-4,-6,-1,-2,-3,-5,1
1558441644464602,-2,-1,3,0,-5,-6,-5,-2
1558441644464602,0,-1,-6,-3,-1,-20,1,2
1558441644465591,-2,-1,-4,-3,-2,3,-3,-4
1558441644465591,-1,0,1,0,2,-7,2,4
1558441644478525,-3,-1,0,1,0,-4,-2,-2
1558441644478525,-1,-3,2,0,-5,1,-5,-5
1558441644486500,1,0,-4,1,7,17,7,2
1558441644486500,-1,-3,-4,-3,-5,-8,-6,-3
1558441644509438,2,-1,0,-2,-4,-7,-2,-4
1558441644509438,-4,-1,-2,-2,-5,-5,-1,-1
1558441644510436,1,2,4,1,1,-4,1,1
1558441644510436,2,0,-2,-1,4,5,-1,0
1558441644524773,-2,-2,-4,-4,-1,1,-1,0
1558441644524773,0,-2,-4,-2,-2,5,-1,-2
1558441644526701,-2,-2,1,-2,-6,-1,-2,-4
1558441644526701,0,-1,-1,-1,2,-7,1,-1
1558441644538362,-1,-2,-1,-2,-5,-4,-5,-4
1558441644538362,0,-1,0,1,9,13,7,2
1558441644547338,-3,0,1,0,-3,-12,-2,1
1558441644547338,-3,-4,-2,-4,-4,0,-4,-1
1558441644560326,-1,-1,-1,0,0,1,-2,-1
1558441644560326,-1,0,-3,-1,-7,-2,-5,-3
1558441644577260,-1,-4,-3,-2,-5,3,-4,-1
1558441644577260,-1,2,1,1,5,5,5,0
1558441644584241,0,0,2,2,6,-4,3,4
1558441644584241,-1,0,-5,-1,-3,4,1,-1
1558441644586234,-2,-1,-1,-3,-3,-4,-5,-5
1558441644586234,-1,0,-1,-2,-5,5,-1,-3
1558441644598202,-1,1,3,-1,0,-2,-1,0
1558441644598202,3,0,3,4,5,3,5,3
1558441644607177,1,0,-1,0,1,-2,-2,1
1558441644607177,0,-2,0,-3,-1,4,-2,-1
1558441644620173,-1,1,0,0,2,7,4,0
1558441644620173,-2,-2,-5,-1,-5,-11,-5,0
1558441644629121,-1,1,0,-1,-4,-8,-1,0
1558441644629121,-1,-2,-3,1,-2,-1,-2,-2
1558441644644079,0,-2,1,-3,-1,-10,-3,-1
1558441644644079,-3,0,-4,-2,2,7,0,-1
1558441644651060,-1,-2,-2,-2,-3,2,-2,-2
1558441644651060,0,-1,-2,-2,-1,2,-1,-3
1558441644658043,-2,-2,-1,0,-6,-10,1,-1
1558441644658043,0,0,2,0,4,-3,0,0
1558441644667018,-2,-2,-2,-2,-1,-5,-1,-1
1558441644667018,-2,-1,1,0,6,9,2,1
1558441644680987,1,-2,-1,-2,1,6,-1,0
1558441644680987,-2,-3,-3,-3,-6,-5,-1,-1
1558441644689956,0,1,-1,0,1,-6,1,1
1558441644689956,2,0,0,1,4,0,-2,0
1558441644711898,-2,0,-2,0,0,-1,0,-2
1558441644711898,-1,-1,-1,-3,-1,2,-1,-4
1558441644713893,-4,-1,-3,-2,-8,4,-4,-5
1558441644713893,1,2,-1,0,3,0,0,0
1558441644717882,2,2,0,1,10,5,6,5
1558441644717882,-1,-2,-2,0,-2,-6,0,-2
1558441644734837,-3,-3,-1,-2,-9,-7,-6,-4
1558441644734837,-2,-1,-3,-2,-10,-10,-5,-2
1558441644740821,-4,-1,-2,1,-2,4,-1,1
1558441644740821,0,-1,1,0,2,-1,-1,-1
1558441644749797,-2,0,1,1,5,9,2,0
1558441644749797,-1,0,-4,0,-2,-6,0,0
1558441644762762,0,-3,-4,-4,-4,2,-4,-4
1558441644762762,-3,0,0,-3,-1,-1,-2,-1
1558441644771741,0,-2,-2,-1,-3,-6,-1,0
1558441644771741,-1,-2,0,-2,1,-6,3,2
1558441644777722,-2,-1,-2,-2,-3,-1,0,-2
1558441644777722,0,-2,-1,-3,-6,3,-4,-3
1558441644786697,1,-2,0,1,6,3,6,1
1558441644786697,-1,-1,-1,-2,1,-4,-2,0
1558441644800660,-2,-1,-1,-1,-4,1,-3,-4
1558441644800660,-2,-4,-4,-4,-8,-3,-5,-1
1558441644809637,2,2,2,1,3,5,3,2
1558441644809637,-4,-1,-1,0,1,-3,-1,-1
1558441644831577,0,-1,0,-2,-7,-14,-5,-1
1558441644831577,0,0,-2,-1,-2,0,1,-1
1558441644833573,-1,-1,-3,-2,0,-3,-3,-3
1558441644833573,1,-1,0,1,3,18,7,2
1558441644837585,-2,-3,-3,-1,-1,-2,0,-3
1558441644837585,-1,-3,1,-2,-6,-10,-6,-2
1558441644846538,0,-3,-2,-2,-1,-2,-5,-2
1558441644846538,-2,0,-2,-2,-5,0,-1,-1
1558441644860500,-3,0,-4,-2,-4,1,-1,-3
1558441644860500,0,-1,2,1,6,4,4,1
1558441644892417,-2,-2,-2,0,4,5,1,0
1558441644892417,-1,-3,-1,-1,-3,-1,-5,-3
1558441644893417,1,2,1,0,-1,-17,-2,2
1558441644893417,-1,2,-3,0,1,-4,-4,-2
1558441644894412,-3,-2,-2,-3,-6,2,-3,-3
1558441644894412,-1,0,0,-2,-2,-3,0,-1
1558441644898402,-2,-2,0,0,1,8,0,-1
1558441644898402,-3,-1,-1,-3,-2,4,-3,-4
1558441644907376,-3,-5,-2,-2,-4,0,-4,0
1558441644907376,1,0,0,1,3,-10,5,3
1558441644920340,-1,-3,-2,-2,2,2,-2,-1
1558441644920340,-2,-2,0,1,-2,-1,-1,-2
1558441644929317,0,0,0,-2,-3,-3,-3,-2
1558441644929317,-1,-2,-3,-2,-3,-6,-6,-4
1558441644943279,0,-2,-1,-5,0,9,0,0
1558441644943279,2,1,1,2,3,2,3,1
1558441644952255,0,1,2,-2,0,-12,1,0
1558441644952255,-3,-1,-6,-1,3,4,-2,0
1558441644958240,-3,-2,-1,1,-2,4,-2,-1
1558441644958240,0,-2,-3,-1,-4,-3,-4,-1
1558441644967220,3,0,2,0,1,4,4,0
1558441644967220,1,-2,1,0,1,4,-1,-2
1558441644989156,-4,-3,-4,-2,-4,1,-4,-4
1558441644989156,-2,-2,-2,-4,-1,-4,0,1
1558441644991151,1,3,4,2,6,-8,3,3
1558441644991151,-2,-2,0,-4,-5,-4,-4,-2
1558441645003118,-2,0,-4,1,1,6,1,-2
1558441645003118,0,0,1,0,0,0,1,-1
1558441645012096,-2,-3,-5,-2,-6,-1,-3,-3
1558441645012096,-2,-2,-3,-4,-6,-10,-6,-5
1558441645018079,0,1,1,0,6,-2,2,3
1558441645018079,0,-2,3,0,0,0,1,-1
1558441645027056,-1,-1,-7,0,-1,7,-2,-1
1558441645027056,0,-2,-4,-1,-7,0,-2,-2
1558441645041017,-1,-2,1,-2,-5,-12,-2,-1
1558441645041017,-2,0,0,-2,1,0,-2,1
1558441645049994,-2,-2,0,-2,-9,-4,-3,-4
1558441645049994,-1,1,-1,2,12,9,5,2
1558441645062966,-2,0,1,0,1,1,0,0
1558441645062966,0,-2,-2,0,-1,-1,4,2
1558441645071941,-1,-2,0,-1,0,-11,-3,-2
1558441645071941,-1,0,-2,-2,-10,0,-3,-4
1558441645077921,1,0,-3,-2,-5,-2,-4,-1
1558441645077921,1,-1,-5,-1,2,1,-1,-2
1558441645086897,-1,-2,1,-1,0,5,-1,1
1558441645086897,-2,-3,1,0,-3,-1,-2,-2
1558441645100862,-1,1,7,3,5,3,0,-1
1558441645100862,-2,1,-3,-2,-1,6,-4,-2
1558441645109833,-1,-4,-12,-5,-1,-2,0,-1
1558441645109833,1,-1,1,-2,-3,-13,-1,2
1558441645122802,-1,-3,-4,-2,-6,-7,-1,-1
1558441645122802,0,-1,4,2,6,3,1,-1
1558441645131774,0,2,2,1,2,-1,-3,-1
1558441645131774,-3,-1,0,-2,-3,4,-4,-3
1558441645137766,1,0,2,-1,2,-1,2,0
1558441645137766,-2,0,-2,-2,-1,-2,0,-1
1558441645154715,0,0,2,0,2,-1,2,2
1558441645154715,-2,-4,-5,-3,-9,-5,-8,-4
1558441645160697,-1,-1,-3,0,4,2,2,2
1558441645160697,-1,0,-1,2,-3,-10,1,-1
1558441645169675,-2,-1,-3,-2,-1,4,-5,-2
1558441645169675,-1,0,-2,-1,2,2,3,-1
1558441645182645,-1,-2,-1,-4,-10,-11,-7,-4
1558441645182645,0,-1,0,1,4,7,6,2
1558441645191615,1,-1,4,3,1,-8,2,1
1558441645191615,2,2,2,-1,2,0,0,0
1558441645197600,-4,-5,-10,-6,-6,0,-4,-3
1558441645197600,-3,-2,-3,-3,-11,-3,-7,-6
1558441645206575,1,3,7,0,4,4,3,1
1558441645206575,-2,-3,-6,1,2,0,0,0
1558441645220561,1,1,0,0,1,-8,0,1
1558441645220561,-3,-3,-2,0,1,5,-3,1
1558441645229513,-4,-3,-4,-4,-9,-3,-2,-4
1558441645229513,-1,1,0,2,4,2,-1,2
1558441645243481,2,0,5,0,4,11,3,0
1558441645243481,-1,-1,-3,-2,-1,-7,-4,-2
1558441645252452,-3,-2,-3,-2,-8,-4,-4,-2
1558441645252452,0,1,5,1,-1,-12,0,1
1558441645267414,-2,2,-4,-1,4,5,0,-2
1558441645267414,1,0,4,1,-1,0,0,-1
1558441645268412,-1,-2,-7,-4,-2,4,2,-2
1558441645268412,-1,-2,-1,-1,0,-3,0,-1
1558441645280377,-3,-2,-3,-2,-1,0,0,-3
1558441645280377,0,0,3,1,-1,-5,-2,1
1558441645289353,0,-2,-4,-1,3,1,-1,-1
1558441645289353,-3,-3,1,-1,-4,3,-4,0
1558441645303319,-1,-1,-1,0,2,7,2,1
1558441645303319,-2,-1,0,-3,-6,-16,-2,-1
1558441645312293,1,1,-1,0,5,3,1,-1
1558441645312293,-1,-1,-3,-1,3,10,6,-2
1558441645318277,0,-1,2,-1,-8,-5,-4,-1
1558441645318277,-2,0,-7,-2,-1,-1,1,-1
1558441645327253,1,2,5,0,0,-5,-2,0
1558441645327253,-5,-4,-8,-5,-4,2,-2,-3
1558441645340224,-1,-1,2,0,2,-1,1,-2
1558441645340224,-1,-3,-4,-2,-3,-3,-4,-2
1558441645349192,-3,-1,-4,1,1,-6,1,1
1558441645349192,3,2,2,1,2,-1,2,-2
1558441645363157,-3,0,-3,-2,-3,-8,-4,-2
1558441645363157,0,-1,1,1,7,6,3,1
1558441645379115,-1,0,2,-1,-6,1,-3,-3
1558441645379115,2,-2,-4,-1,3,6,1,0
1558441645379115,-1,-2,2,1,1,-1,0,0
1558441645379115,0,0,-4,-1,-1,-2,-1,-1
1558441645387096,-3,-3,-3,-3,-5,5,-2,-4
1558441645387096,-1,1,4,-2,-2,1,-1,0
1558441645401054,1,1,-1,2,6,3,4,2
1558441645401054,-3,-3,-3,-2,1,-2,0,0
1558441645409035,-2,0,2,1,-7,-12,-6,-1
1558441645409035,-1,-2,-5,-4,-2,0,-5,-2
1558441645431979,1,0,0,-1,2,-1,1,-1
1558441645431979,-1,-1,0,-2,-3,2,1,-2
1558441645432969,-1,-2,-2,-3,1,-2,-1,-2
1558441645432969,-5,-1,-1,-1,-5,-1,0,0
1558441645446932,-2,-2,2,-2,-1,-7,-2,1
1558441645446932,2,2,4,1,0,1,2,2
1558441645447929,0,-2,-3,-2,0,-1,-2,-1
1558441645447929,0,-1,-6,0,2,-3,2,0
1558441645460895,-1,-4,-9,-6,-8,-3,-8,-4
1558441645460895,-2,-1,2,-2,-5,2,-1,-2
1558441645469870,0,0,0,2,2,6,4,2
1558441645469870,0,2,3,2,3,-18,-2,2
1558441645482835,-3,0,-1,1,-2,0,-2,0
1558441645482835,-3,-3,-3,-2,-5,3,-8,-4
1558441645499790,-2,-3,-5,-5,-11,-3,-11,-7
1558441645499790,0,-1,-1,-1,0,0,0,0
1558441645506781,0,1,2,2,-1,-10,-2,1
1558441645506781,0,1,-2,-3,1,-4,4,0
1558441645508773,0,0,1,2,8,5,8,2
1558441645508773,-3,-2,-3,-3,-4,0,-3,-1
1558441645520734,-2,-2,-2,-3,-6,5,-4,-4
1558441645520734,-2,-3,-2,-3,-6,0,-3,-3
1558441645529711,1,0,0,-2,-3,-9,0,0
1558441645529711,0,-1,0,-2,-3,-4,-6,-3
1558441645542675,0,-2,4,-1,0,6,-2,-1
1558441645542675,1,-2,-7,0,3,-9,1,2
1558441645559630,1,2,2,0,4,-1,4,1
1558441645559630,0,-1,-5,-2,-3,3,-2,-1
1558441645566612,-2,-1,-3,-2,-1,5,1,-1
1558441645566612,0,-1,2,-1,-5,-11,-7,-3
1558441645568607,-1,-2,-2,0,2,3,-1,-1
1558441645568607,-1,-1,1,-3,-8,1,-4,-3
1558441645580576,-2,-2,-2,0,-1,1,-2,-2
1558441645580576,3,4,0,2,13,-7,7,7
1558441645589550,0,0,3,3,5,2,2,2
1558441645589550,-1,-5,-7,-2,-3,3,-1,-3
1558441645603512,-1,-2,0,-2,-2,-1,-1,-2
1558441645603512,-2,0,-3,-1,-4,5,0,0
1558441645611494,-2,-1,-1,-3,-2,-10,-5,-3
1558441645611494,0,1,2,1,1,1,2,-1
1558441645627449,0,2,-1,-1,2,-6,3,1
1558441645627449,-2,-3,-3,-1,-6,2,-4,-5
1558441645628447,0,-2,1,0,0,2,0,0
1558441645628447,-2,-4,-5,-3,-1,0,1,-2
1558441645640414,-1,-1,0,-2,1,1,1,0
1558441645640414,-1,0,0,-1,2,7,-1,-1
1558441645657369,-4,-7,-4,-3,-4,1,-6,-3
1558441645657369,1,0,4,0,-4,-15,-3,-1
1558441645663352,0,-1,0,-1,-5,-9,-2,-2
1558441645663352,-1,-1,-1,-2,4,-3,2,1
1558441645672327,0,0,-3,-2,3,4,3,1
1558441645672327,0,0,4,1,9,10,6,1
1558441645687288,0,-3,-1,-1,-1,6,0,-2
1558441645687288,-1,0,9,3,-5,-3,-6,-1
1558441645688306,-1,-2,-9,-4,-4,-3,-2,-3
1558441645688306,-3,-1,-4,-3,-3,-3,-2,-1
1558441645709231,1,2,0,-1,0,-4,-2,-2
1558441645709231,-1,1,-5,-2,-3,8,2,-3
1558441645711227,-6,-2,-1,1,8,11,2,1
1558441645711227,1,-1,4,0,2,-6,0,0
1558441645723192,-1,0,-7,-2,-3,-1,-2,-2
1558441645723192,1,0,2,1,6,10,6,-1
1558441645732169,0,0,-3,-1,-4,-5,-2,-2
1558441645732169,0,1,3,-2,-3,-7,-2,0
1558441645747128,-3,-3,0,-1,-7,-8,-4,-2
1558441645747128,-2,-5,-4,-1,-3,0,-3,-4
1558441645748128,0,1,2,0,0,4,2,-1
1558441645748128,-5,-3,-3,-2,-7,-2,-2,-5
1558441645760095,0,2,-1,1,6,-6,1,1
1558441645760095,-2,1,1,1,6,7,3,1
1558441645769098,-1,-2,-1,-2,-5,-4,-3,-2
1558441645769098,-1,-1,0,-2,-6,-4,-5,-2
1558441645783038,1,-1,-2,0,1,2,2,0
1558441645783038,-2,-3,-1,0,1,-4,-3,-1
1558441645792009,0,0,5,1,-2,-5,-2,0
1558441645792009,0,0,-5,0,0,-3,1,1
1558441645806969,1,-1,4,1,-2,-1,-3,-2
1558441645806969,-6,-5,-13,-7,-6,-4,-9,-3
1558441645807967,-3,1,-1,0,-2,0,3,2
1558441645807967,-1,0,1,1,5,-1,2,0
1558441645828910,-3,-3,-5,-4,-1,0,0,-2
1558441645828910,1,1,2,2,-3,-2,1,-1
1558441645830905,-4,-2,-4,-4,-3,2,-2,-3
1558441645830905,-2,-1,-1,-4,-4,5,-2,-3
1558441645842873,1,0,1,2,3,1,2,2
1558441645842873,1,2,4,1,5,-9,0,2
1558441645851849,1,-1,-3,0,-2,1,-3,-3
1558441645851849,0,-1,0,-1,-4,1,-2,-1
1558441645866808,0,1,-3,-2,-2,1,1,-1
1558441645866808,-3,1,-3,-2,-2,-2,1,0
1558441645868802,-1,-2,-1,-1,-1,-6,-1,1
1558441645868802,-1,-2,2,-1,-1,-2,-4,-1
1558441645880778,-5,-3,-2,-4,-5,-1,-4,-2
1558441645880778,-1,-2,-1,-3,-9,-3,-4,-2
1558441645889747,1,0,-2,-1,0,2,0,-2
1558441645889747,2,1,0,1,3,2,2,0
1558441645902712,1,-1,-3,-2,2,2,1,0
1558441645902712,-8,-6,6,2,2,0,-3,-1
1558441645911694,0,-2,-9,-5,-5,-19,-2,0
1558441645911694,-2,-6,-5,-2,0,4,-1,0
1558441645934628,-1,0,-3,1,-3,6,-1,-2
1558441645934628,0,1,0,-3,-8,-8,-3,-3
1558441645935624,0,1,5,0,3,8,-2,1
1558441645935624,0,1,1,2,8,2,6,3
1558441645940618,-4,-2,-1,-1,-3,-6,-3,-2
1558441645940618,-1,-1,-1,-1,-1,5,0,-1
1558441645949587,-1,-2,1,0,0,-2,-1,-1
1558441645949587,-2,0,-3,-3,-2,-6,-5,-2
