timestamp,emg1,emg2,emg3,emg4,emg5,emg6,emg7,emg8
1558441567615994,-1,1,-3,2,-3,-4,-2,-1
1558441567615994,7,9,1,-1,0,-1,-4,1
1558441567616991,4,3,2,-1,1,1,4,1
1558441567616991,1,0,3,4,1,0,5,2
1558441567616991,0,-5,-12,-12,-7,-5,-1,-3
1558441567616991,-8,-2,-2,0,-3,-2,-1,-3
1558441567621978,-2,-11,3,1,1,1,-4,-1
1558441567621978,4,12,4,-4,-1,0,1,-1
1558441567624969,-1,-2,-2,2,-1,-1,1,-2
1558441567624969,-1,0,-2,-3,1,-1,-1,-2
1558441567636937,-5,0,-9,-5,-4,-4,-1,-3
1558441567636937,-1,1,12,6,-1,0,-4,-5
1558441567637940,-6,-4,-12,-8,1,1,0,-4
1558441567637940,8,2,0,-5,-5,-4,-3,1
1558441567644916,-13,-4,-4,1,3,2,-4,-5
1558441567644916,-6,-3,-3,-1,1,-2,-3,-4
1558441567651897,6,2,0,-2,-1,-1,-4,2
1558441567651897,3,6,11,7,2,0,9,6
1558441567669850,-8,-3,-3,-4,1,2,2,2
1558441567669850,-6,-8,-11,-9,0,0,-10,-6
1558441567672842,-5,2,-3,-3,-8,-5,-4,-2
1558441567672842,3,-7,2,3,5,4,9,4
1558441567691792,5,6,6,3,-3,-10,-3,-1
1558441567691792,-7,-4,-6,0,-1,4,0,-4
1558441567695779,4,0,2,1,-1,0,-3,-3
1558441567695779,-5,0,-3,-5,1,6,-12,-4
1558441567743652,-1,-3,2,-2,1,2,-2,-2
1558441567743652,0,3,1,2,3,5,-3,-5
1558441567744650,0,-3,-13,-5,9,3,6,3
1558441567744650,-1,-1,8,3,2,-6,0,-3
1558441567745647,2,3,-11,-4,-3,3,0,-1
1558441567745647,-4,-4,1,-1,-4,-6,-6,-4
1558441567748638,-2,0,8,0,-7,-1,-9,-5
1558441567748638,-1,0,-5,-3,0,3,4,0
1558441567755620,-2,-2,3,-2,0,-5,0,-1
1558441567755620,0,-4,-14,-7,-4,-2,3,1
1558441567763599,-2,0,-3,1,-5,-8,-3,-2
1558441567763599,2,2,9,3,-2,-4,-3,1
1558441567770580,2,6,17,9,4,4,-2,-2
1558441567770580,2,-3,-11,-12,-7,-1,4,1
1558441567786537,-6,-11,0,2,-2,3,1,-3
1558441567786537,-6,-7,-9,-5,-6,-5,-5,-3
1558441567793518,-3,-1,-7,-7,-5,-5,-7,-4
1558441567793518,3,0,14,10,12,5,5,5
1558441567801498,-4,-9,-7,-3,-1,1,-1,-3
1558441567801498,3,2,-2,-3,3,3,-1,0
1558441567815460,-6,-9,5,3,-4,-2,-1,0
1558441567815460,-3,0,-6,-6,-5,-5,-5,-6
1558441567823439,-1,3,-2,-4,-5,-1,-3,-2
1558441567823439,-2,2,-2,1,-1,3,1,1
1558441567830419,2,-1,-3,-1,0,-2,-1,2
1558441567830419,1,-1,4,0,-1,-3,-1,-3
1558441567846377,-15,-8,8,5,2,0,0,-1
1558441567846377,3,-1,-12,-5,-2,1,-1,-1
1558441567853358,1,3,-2,-1,-1,-2,-2,-1
1558441567853358,3,2,12,6,0,-7,-2,2
1558441567860341,2,2,-5,-4,-4,-5,1,-1
1558441567860341,-3,-3,-4,-6,-3,0,0,-2
1558441567875303,-10,-7,-13,-5,-6,-4,-4,-2
1558441567875303,-2,0,-2,2,1,2,0,-3
1558441567884276,5,5,4,0,-1,0,2,-1
1558441567884276,1,-3,1,0,-1,0,-1,-2
1558441567890261,2,-1,0,-4,1,-2,5,1
1558441567890261,-3,4,6,1,4,3,-3,-3
1558441567906218,3,0,-11,-5,-3,-7,-6,2
1558441567906218,-1,3,1,-2,-2,4,2,-2
1558441567921178,2,1,-2,1,-2,-1,-8,-1
1558441567921178,-9,-6,6,2,1,3,4,0
1558441567922175,8,7,5,1,4,9,5,-1
1558441567922175,-7,-15,-16,-4,0,-5,-1,-3
1558441567935139,2,3,-5,-2,-3,-4,1,0
1558441567935139,-2,-6,-6,-5,-5,-4,-2,-1
1558441567944115,2,5,8,3,-1,-4,-4,-1
1558441567944115,-1,-1,5,0,0,-2,0,0
1558441567951122,-1,-2,2,3,4,5,2,-3
1558441567951122,1,0,-4,-1,-1,0,-4,1
1558441567966059,-5,0,-5,-3,-2,-1,-4,2
1558441567966059,-4,-6,8,2,1,0,-3,-2
1558441567975034,-2,-8,-13,-5,-3,-5,1,-1
1558441567975034,-5,2,-1,1,1,1,0,1
1558441567981017,4,11,4,1,0,-1,2,2
1558441567981017,-3,-12,1,0,-1,1,-1,0
1558441567995977,-14,-5,7,1,3,5,0,-3
1558441567995977,9,3,-8,-4,-6,-2,-3,-2
1558441568003957,-6,-9,-6,-4,0,-4,-3,-4
1558441568003957,1,8,6,2,2,0,1,2
1558441568010937,-1,-8,-9,-4,1,-4,2,-1
1558441568010937,0,-2,-2,-2,-7,-4,-7,-2
1558441568025896,0,5,7,3,4,6,2,1
1558441568025896,8,9,-9,-3,2,4,1,2
1558441568032879,5,1,-1,-2,0,-3,0,-1
1558441568032879,-6,-3,-6,-2,0,-2,1,-2
1558441568040856,2,-7,0,0,-7,-8,-7,-3
1558441568040856,-4,-3,-4,-5,-7,-6,-1,-1
1558441568055818,5,6,7,3,2,10,1,1
1558441568055818,2,5,14,6,8,-2,6,2
1558441568063795,-6,-12,-33,-14,-6,-7,-3,-5
1558441568063795,-1,1,6,4,-2,-3,-2,-2
1558441568070785,0,3,4,-1,-1,-1,-3,1
1558441568070785,-4,-5,-5,-4,-4,4,-4,-2
1558441568086735,0,-6,-2,1,2,-3,4,0
1558441568086735,-1,1,-2,-1,0,-1,0,-1
1558441568092718,-4,-5,-2,-1,-10,-5,-5,-5
1558441568092718,-1,1,5,2,-1,-11,-5,0
1558441568100698,-3,-3,-4,-3,5,11,2,2
1558441568100698,-1,2,-2,-1,-3,-3,-3,-1
1558441568115657,7,7,12,3,4,2,10,1
1558441568115657,0,0,-9,-5,-4,0,-6,-2
1558441568123636,2,-2,1,-2,-7,-6,4,1
1558441568123636,-3,-3,3,1,-2,-2,-4,-1
1558441568130617,-1,-2,-3,0,1,3,0,-1
1558441568130617,-10,-7,-4,-3,-3,-3,-1,-1
1558441568146574,-1,3,8,2,3,-1,-3,0
1558441568146574,-4,-5,-1,0,-1,4,-5,-2
1558441568153556,-6,1,-1,0,-2,-2,-3,0
1558441568153556,6,2,-2,-4,-2,-14,-2,0
1558441568160536,0,2,4,0,1,5,4,3
1558441568160536,-4,-2,0,0,2,-4,2,3
1558441568175498,0,0,-15,-3,-1,3,5,-2
1558441568175498,1,-5,0,1,0,2,0,0
1558441568183476,1,-1,6,2,-2,3,-3,-4
1558441568183476,1,1,-1,-4,-5,2,-4,-3
1558441568190460,-1,1,1,-4,-2,-4,-9,-4
1558441568190460,-4,1,3,3,2,1,6,1
1558441568206415,0,3,0,2,4,-2,-1,0
1558441568206415,-1,-5,-9,-1,4,5,4,3
1558441568213396,3,1,1,-3,-5,-5,-6,-3
1558441568213396,-8,-6,-8,-7,-7,1,-5,-6
1558441568220378,-1,-3,4,0,0,3,-7,-4
1558441568220378,-2,-3,3,1,-3,-2,-1,-3
1558441568235337,-6,-5,-10,-6,-8,-7,-4,0
1558441568235337,6,11,1,1,6,11,11,2
1558441568244313,-2,-1,0,3,1,-8,5,0
1558441568244313,0,-2,-1,-4,-1,-6,-7,-7
1558441568250296,1,1,3,3,8,8,7,4
1558441568250296,-2,-5,0,-1,-8,-3,-9,-3
1558441568266253,0,6,8,1,-2,1,-3,-2
1558441568266253,0,-2,-15,-7,-5,1,0,-4
1558441568273236,-6,-7,0,0,3,-2,2,1
1558441568273236,1,5,-4,-4,1,-1,-3,0
1558441568289194,1,-4,2,-1,-3,0,0,1
1558441568289194,0,1,5,1,-1,-2,-3,0
1558441568295177,5,3,2,0,-1,4,-2,-3
1558441568295177,-10,-7,1,2,0,-4,-2,-1
1558441568304154,-8,-5,-5,-3,-5,2,3,-2
1558441568304154,-2,1,-6,-4,-2,3,-3,-2
1558441568311134,4,4,10,2,0,-7,-5,0
1558441568311134,5,4,2,1,2,-3,8,3
1558441568326094,-3,-7,-17,-5,3,2,-6,-3
1558441568326094,2,2,-1,3,3,-1,1,1
1558441568333075,-4,-6,2,-4,-4,0,-1,-4
1558441568333075,0,-2,-4,-4,-9,-7,-6,-2
1558441568357011,-1,2,5,-1,-1,-1,-9,-3
1558441568357011,3,3,5,1,4,5,9,4
1558441568358009,0,-1,3,1,-4,-12,-3,1
1558441568358009,-3,-6,-5,0,-1,2,-1,-2
1558441568363994,-2,-5,-5,-4,-7,-2,-5,-4
1558441568363994,0,0,3,-1,-2,-13,-6,-1
1558441568377955,2,5,1,1,2,5,3,3
1558441568377955,-2,-8,-1,3,10,13,7,1
1558441568385935,1,-3,-1,0,-2,-9,-3,0
1558441568385935,0,-4,-4,-3,-5,-2,-12,-4
1558441568392917,-5,-1,0,-1,1,2,7,4
1558441568392917,1,0,-6,-6,-2,0,-2,-1
1558441568416853,1,1,5,3,1,0,-3,-2
1558441568416853,-3,2,2,-4,-4,-5,0,0
1558441568418847,-8,-7,-6,-4,-4,-2,-12,-9
1558441568418847,1,0,0,1,-1,11,-5,-4
1558441568423833,0,1,6,2,-4,-11,2,2
1558441568423833,3,3,4,2,0,-16,5,2
1558441568430813,-3,-4,-24,-7,3,8,0,1
1558441568430813,-6,-5,-1,-2,-5,-3,-2,-4
1558441568446771,-3,-5,-6,-2,-2,9,3,-4
1558441568446771,1,3,12,6,8,-3,1,2
1558441568452762,1,1,7,2,-1,3,-1,0
1558441568452762,1,3,0,-2,-5,-4,-5,-3
1558441568476692,1,2,0,-2,-2,-1,-5,-2
1558441568476692,-2,-3,-1,-1,-3,10,1,0
1558441568478686,2,0,4,3,2,-5,2,-1
1558441568478686,2,2,-1,1,5,3,2,2
1558441568483672,-1,0,-1,-2,-4,-2,-3,1
1558441568483672,-1,0,-3,-3,-3,-1,0,-2
1558441568490654,-11,-8,-3,0,0,5,-1,-2
1558441568490654,2,3,21,7,4,-13,0,4
1558441568506612,3,0,-24,-4,4,4,3,0
1558441568506612,1,1,-11,-7,-2,2,-2,1
1558441568513602,-5,-9,0,-2,-11,-5,-7,-2
1558441568513602,1,0,3,-1,1,-1,0,-1
1558441568528554,1,4,14,4,7,-5,4,3
1558441568528554,-3,3,-6,-1,-1,4,-1,-4
1558441568535536,1,-5,-3,-6,-4,-6,-3,-3
1558441568535536,-1,-4,-3,-2,-4,1,-3,-3
1558441568543519,-2,-4,0,-3,-4,1,-1,-4
1558441568543519,2,-1,3,0,-3,-6,0,-1
1558441568550499,1,2,5,2,0,-2,-4,1
1558441568550499,-3,-3,-8,-1,-2,1,4,0
1558441568567449,-5,-2,-2,-5,-2,-2,2,-2
1558441568567449,-3,-2,11,4,1,-2,-2,-2
1558441568573432,3,1,-4,-2,1,1,0,1
1558441568573432,-3,-2,-13,-7,-4,-1,-4,-4
1558441568589393,2,6,6,1,0,-3,-5,3
1558441568589393,-10,-16,-16,-6,-3,-2,-2,-2
1558441568595385,8,10,16,6,3,0,3,3
1558441568595385,1,-5,-3,-6,0,0,0,1
1558441568604351,1,-1,-17,-8,-7,-4,-7,-4
1558441568604351,-13,-9,6,4,1,4,3,-2
1558441568618312,-1,-9,-8,-6,-2,-1,9,1
1558441568618312,0,2,8,4,0,-5,-15,-3
1558441568627288,2,9,13,2,0,0,1,1
1558441568627288,3,1,-9,-1,0,1,-3,0
1558441568633277,-1,3,8,2,-1,-4,4,-3
1558441568633277,1,2,-12,-7,-2,0,5,-1
1558441568649236,-11,-11,-11,-2,-1,2,0,-7
1558441568649236,0,-4,5,-1,-5,-3,-5,-4
1558441568655221,-2,-6,-14,-4,2,3,3,-1
1558441568655221,3,4,15,9,0,-1,-8,2
1558441568664191,0,4,-8,-4,2,1,-3,0
1558441568664191,1,3,-1,-2,-3,-3,1,0
1558441568678153,-1,4,5,4,5,5,-3,-2
1558441568678153,0,-8,1,-2,-2,-3,5,0
1558441568687131,-2,-5,0,2,1,2,0,-1
1558441568687131,1,-1,-4,-5,-1,0,-1,-1
1558441568693113,8,13,11,5,-1,2,-5,2
1558441568693113,-14,-11,-25,-11,-3,-3,1,0
1558441568709070,-1,-7,16,6,4,2,9,2
1558441568709070,6,6,-10,-4,-1,-6,-1,-1
1558441568716051,-12,-15,-15,-7,-7,-10,-7,-4
1558441568716051,2,10,12,3,1,1,5,2
1558441568731010,2,0,3,-2,-3,2,-1,-3
1558441568731010,2,0,-3,1,2,2,-1,0
1558441568737992,5,12,11,5,6,4,5,2
1558441568737992,3,8,-4,-5,-3,-3,-7,-1
1558441568753950,-14,-16,-18,-7,-12,-5,-3,-4
1558441568753950,3,0,9,7,7,7,0,-2
1558441568753950,2,-4,-22,-8,2,-5,3,-2
1558441568753950,-2,-1,1,1,0,-1,2,-1
1558441568769907,8,13,7,2,3,-5,-2,1
1558441568769907,-6,-10,11,2,-3,1,-5,-3
1558441568775892,0,-2,-7,-4,-4,-3,-5,-2
1558441568775892,-2,-6,-15,-8,-2,-1,-3,-2
1558441568790850,3,-1,0,0,0,1,-3,-1
1558441568790850,-2,1,5,0,-3,-4,-3,-3
1558441568797832,-3,-7,-3,3,1,2,0,-3
1558441568797832,3,5,2,-3,-1,1,-1,-2
1558441568813788,-7,-10,-5,-5,-3,-1,-3,-2
1558441568813788,-2,3,10,0,-1,-3,0,6
1558441568814786,3,3,-3,-1,-2,4,11,1
1558441568814786,-5,-1,-4,0,-3,-4,-5,-3
1558441568829747,3,-3,4,2,1,3,4,0
1558441568829747,5,9,-5,-6,-5,-9,1,-2
1558441568835735,-18,-13,4,2,0,4,-12,-5
1558441568835735,5,2,3,1,6,9,9,2
1558441568850691,2,7,12,4,2,-5,-7,2
1558441568850691,1,-5,-9,-4,1,1,-5,-1
1558441568857674,-1,5,-4,-4,-9,-4,-6,-3
1558441568857674,-3,-3,5,0,-1,-1,-5,-2
1558441568873629,-6,-14,-1,1,-1,-7,1,-2
1558441568873629,1,1,0,0,0,2,2,1
1558441568874626,-1,0,6,0,-1,-10,-6,-1
1558441568874626,2,2,-8,0,1,3,-2,-1
1558441568889586,2,4,-8,-6,-3,3,5,0
1558441568889586,-3,1,1,-4,-4,-2,-1,-2
1558441568903549,2,-2,-3,-2,1,3,-1,-2
1558441568903549,-18,-23,5,3,-3,-11,-2,-3
1558441568912526,4,6,2,4,-1,2,-8,0
1558441568912526,2,4,6,2,4,0,4,4
1558441568918508,4,-1,-13,-8,-7,-5,3,1
1558441568918508,0,6,8,-2,0,4,0,-2
1558441568933470,-5,-7,-5,-1,-1,-2,-3,-1
1558441568933470,-1,2,-2,5,5,4,5,0
1558441568934467,4,3,7,-3,-9,-19,-11,-2
1558441568934467,1,-3,-1,4,12,15,7,1
1558441568949426,0,8,-2,-4,-2,-3,-5,-4
1558441568949426,-4,-7,-6,-2,0,9,3,-1
1558441568955411,-2,-4,3,-2,-1,-1,1,0
1558441568955411,3,5,-6,1,-6,-15,-7,-2
1558441568972366,10,8,-4,-4,-2,-1,-3,-1
1558441568972366,-16,-23,-14,-12,-7,-5,-3,-3
1558441568978349,-4,-2,-2,2,1,5,-7,-4
1558441568978349,-1,-2,9,-2,-3,3,-1,-2
1558441568993309,9,7,-4,1,-2,1,3,0
1558441568993309,-7,-7,-15,-9,-5,-9,-5,-5
1558441568994310,-1,0,4,4,1,5,0,0
1558441568994310,6,8,-2,-5,-2,-1,-1,2
1558441569009266,-10,-6,2,1,-1,-3,3,1
1558441569009266,3,-1,1,0,-1,-1,-4,-3
1558441569023229,-4,-4,-4,-1,3,4,10,2
1558441569023229,1,-1,2,0,0,-2,-6,-1
1558441569032205,-7,1,-1,-3,-1,0,-2,-4
1558441569032205,0,2,3,3,-3,-5,-5,-5
1558441569038189,3,-3,0,-1,3,0,1,1
1558441569038189,-1,-2,-6,-3,-4,0,10,1
1558441569054147,-2,0,-1,-1,2,2,-2,-2
1558441569054147,1,0,6,3,3,3,-1,1
1558441569054147,-1,1,-8,-5,-2,-4,-1,-3
1558441569054147,-4,-6,4,3,-1,0,-6,-3
1558441569069106,-3,-9,-5,-5,-1,-2,-3,1
1558441569069106,3,7,5,-1,-3,0,-4,1
1558441569075089,-10,-11,-11,-5,-4,-4,-2,-2
1558441569075089,-2,0,1,-1,0,0,2,-3
1558441569092044,5,10,13,2,-1,1,1,2
1558441569092044,2,7,-1,-1,-2,2,0,-6
1558441569098028,-3,-12,4,2,1,1,-3,-2
1558441569098028,0,8,-1,-3,2,4,2,-1
1558441569113987,-6,-7,-9,-4,-4,-7,5,0
1558441569113987,4,6,-5,1,0,-3,1,1
1558441569113987,-3,-1,-1,1,-4,-4,-7,-3
1558441569113987,-5,-13,1,2,-4,-5,-2,-4
1558441569135928,2,1,0,1,2,0,-8,-1
1558441569135928,0,-1,-1,-4,-1,0,-1,2
1558441569136924,2,2,-3,-2,-4,-4,-2,0
1558441569136924,0,-2,-6,-1,1,1,6,2
1558441569151886,-3,-8,1,1,-1,1,3,1
1558441569151886,-3,-2,5,2,0,1,-4,0
1558441569157869,1,-1,1,0,1,0,-2,0
1558441569157869,-2,-1,-10,-5,-5,-3,0,0
1558441569173826,3,0,9,0,1,1,7,3
1558441569173826,0,8,5,1,2,2,-2,-2
1558441569174823,7,6,-4,-2,0,0,3,0
1558441569174823,-11,-16,-5,-6,-7,-6,-10,-5
1558441569196764,-4,2,8,4,-3,-3,-2,-6
1558441569196764,-2,-9,-13,-7,-4,0,6,0
1558441569196764,8,18,3,2,2,0,-3,0
1558441569196764,-3,-7,-13,-1,5,11,0,-1
1558441569211725,2,-6,1,-2,1,-12,0,1
1558441569211725,-5,-5,-6,0,0,0,-2,-2
1558441569217710,-8,-15,0,-1,-3,-2,1,-2
1558441569217710,6,8,5,1,-4,-1,-6,-2
1558441569233665,1,2,-3,1,1,5,-3,-2
1558441569233665,-2,-1,-17,-12,-5,-5,-3,-3
1558441569234663,4,3,-1,1,-3,-3,-4,0
1558441569234663,-6,-9,2,-1,0,-4,1,2
1558441569256605,-3,0,-2,-1,0,3,0,-1
1558441569256605,-2,-5,5,2,0,-5,4,2
1558441569256605,2,3,4,1,0,2,-6,-3
1558441569256605,4,4,2,0,0,2,2,-2
1558441569271566,1,-3,-2,1,1,0,-5,-1
1558441569271566,-8,-9,-12,-5,-1,-1,-4,-1
1558441569277550,-1,8,7,2,3,3,6,2
1558441569277550,-3,-11,-5,-8,-7,-9,-2,-1
1558441569293507,-4,-2,-1,-2,-4,0,-3,0
1558441569293507,1,5,3,3,0,0,2,1
1558441569294503,-3,-2,-2,0,1,1,1,-1
1558441569294503,2,1,-2,-4,0,-3,0,-1
1558441569309465,1,-6,-6,-3,-3,-2,-1,0
1558441569309465,-10,-2,6,4,4,6,2,0
1558441569315491,1,3,14,5,2,0,2,0
1558441569315491,0,0,-9,-6,-2,-1,-4,-3
1558441569330408,-1,-2,-8,-4,-4,-3,-6,-5
1558441569330408,4,-3,-2,-5,-3,-2,-3,-4
1558441569338387,-4,-4,-5,-4,-3,-2,0,-1
1558441569338387,3,8,6,5,1,3,-1,0
1558441569353346,-3,2,1,-2,-2,3,1,0
1558441569353346,-2,-8,6,3,-2,-9,-2,1
1558441569354344,0,2,-5,-4,-3,1,2,0
1558441569354344,2,4,3,3,5,-7,-3,1
1558441569369304,1,1,-5,-2,-5,0,-1,-1
1558441569369304,2,2,-4,0,-1,2,-3,-2
1558441569375286,-6,-11,-6,-4,-2,3,2,-1
1558441569375286,2,0,-1,1,-1,3,0,0
1558441569390285,-1,4,2,0,-2,-5,-1,0
1558441569390285,-7,-6,6,4,-2,-5,-2,-1
1558441569398268,-2,0,-11,-8,-4,-4,-2,0
1558441569398268,-4,3,6,3,8,0,3,1
1558441569414183,-4,-8,-3,-2,1,3,1,-3
1558441569414183,3,4,1,-2,-4,-2,-3,0
1558441569414183,-1,2,2,0,-3,0,-5,-3
1558441569414183,3,8,5,1,-1,0,-2,1
1558441569429143,-5,-7,-6,-1,-3,-9,-3,-1
1558441569429143,-3,0,3,2,9,2,0,0
1558441569435162,4,0,-1,1,-2,-1,1,-2
1558441569435162,-1,-4,-11,-5,-5,2,-10,-3
1558441569476019,-2,2,5,1,4,8,2,-3
1558441569476019,8,7,-2,-1,-2,-9,-1,2
1558441569476019,-13,-10,19,4,3,-3,1,-1
1558441569476019,2,4,0,3,1,1,1,1
1558441569478012,-7,-12,-27,-16,-11,-7,-5,-5
1558441569478012,-4,0,1,-1,-2,3,0,-1
1558441569481003,3,2,-9,-4,-2,-4,-10,-6
1558441569481003,-5,-1,8,3,-2,-1,0,-2
1558441569488983,7,10,9,3,3,3,1,4
1558441569488983,-6,-8,-4,-1,0,0,2,-1
1558441569495991,4,5,1,-2,3,2,-3,-1
1558441569495991,-1,-8,-5,-3,-4,-3,0,-5
1558441569536857,-6,-3,-5,-2,-2,-8,-6,-1
1558441569536857,6,8,0,1,2,0,1,-1
1558441569536857,-4,-2,-3,0,-2,-1,-2,0
1558441569536857,-5,-10,-6,-2,-1,0,-2,-1
1558441569540845,4,1,1,0,0,0,-2,1
1558441569540845,1,-2,5,3,0,3,2,0
1558441569541841,1,1,-6,-4,-1,-2,-2,-1
1558441569541841,3,6,-6,-3,-4,-3,-1,0
1558441569549820,-6,-7,5,0,0,1,-1,-2
1558441569549820,4,4,-2,-3,-5,-4,-5,-3
1558441569555803,-2,-6,-3,0,6,6,0,1
1558441569555803,-3,0,-1,-2,-1,-3,-1,0
1558441569586724,7,9,12,4,0,-5,-4,1
1558441569586724,-9,-16,-25,-7,0,2,3,0
1558441569587721,-2,-3,-5,-4,-5,-3,-1,-2
1558441569587721,-5,-3,1,-2,-3,-3,1,-4
1558441569592707,2,4,3,1,-3,1,-2,-3
1558441569592707,1,0,4,0,-1,-2,-4,-3
1558441569600684,-2,-4,3,0,0,0,3,-2
1558441569600684,2,0,-2,-1,0,-3,0,0
1558441569609688,-1,-2,-1,-1,0,-1,1,0
1558441569609688,4,7,8,0,-1,3,-7,-2
1558441569617673,0,3,-8,-3,-3,-5,4,0
1558441569617673,-4,-14,1,3,-2,0,0,-3
1558441569630954,-5,-3,-9,-1,2,1,2,-1
1558441569630954,-1,-4,2,-2,-1,-1,-5,-3
1558441569638675,1,-2,4,2,0,0,-3,-1
1558441569638675,4,8,-3,-2,-1,-1,0,0
1558441569653543,-3,1,-3,-2,-3,0,-5,-1
1558441569653543,-6,-2,0,-2,-9,-5,-1,-3
1558441569660899,0,-1,-6,-2,7,-7,10,6
1558441569660899,1,-4,8,2,1,-3,-4,-1
1558441569669502,0,-1,0,1,-3,-7,-1,-2
1558441569669502,1,2,-4,0,1,-4,0,1
1558441569675822,2,-5,-8,-1,2,14,5,2
1558441569675822,-2,4,0,0,0,-4,-5,2
1558441569690734,0,-5,2,0,-2,0,-1,-3
1558441569690734,1,-2,-1,-1,-10,-4,-10,-4
1558441569698427,-4,0,3,-3,-10,-10,-5,-1
1558441569698427,3,4,2,0,0,-2,1,1
1558441569713417,2,7,4,-2,1,5,5,2
1558441569713417,-3,-4,-1,1,2,-5,0,-1
1558441569720366,-2,-7,-2,-3,-3,1,-4,-4
1558441569720366,-5,2,2,1,3,7,4,-1
1558441569736321,-3,-8,-14,-10,-7,-5,-9,-4
1558441569736321,1,-3,3,2,6,12,8,3
1558441569737322,3,8,5,4,3,-9,-6,-1
1558441569737322,-4,-3,1,-5,-8,-4,-2,-4
1558441569752280,-2,0,2,2,2,4,-1,-1
1558441569752280,-1,4,-6,-3,-2,-9,0,2
1558441569758262,-2,-4,-2,-3,-6,-1,-6,-1
1558441569758262,3,3,0,2,2,-5,-1,3
1558441569773224,1,3,4,1,5,6,7,2
1558441569773224,6,2,13,4,4,-4,5,5
1558441569780205,-15,-3,-3,0,-2,-1,-5,-5
1558441569780205,-8,-24,-20,-12,-7,-8,-9,-5
1558441569796160,-3,-3,1,-1,-2,5,-8,-6
1558441569796160,1,-2,1,1,3,1,1,-3
1558441569797158,10,11,7,3,4,3,9,5
1558441569797158,-3,2,7,5,3,2,2,-1
1558441569812119,-5,-8,-14,-3,0,9,1,1
1558441569812119,0,-2,-11,-6,-7,-2,-7,-4
1558441569818102,2,2,7,0,4,-12,-3,0
1558441569818102,3,8,4,2,2,10,10,1
1558441569833063,-4,-8,-16,-4,-3,-15,-4,0
1558441569833063,-1,4,0,3,3,8,7,1
1558441569841041,-2,-9,3,-4,-17,-7,-9,-5
1558441569841041,-2,0,-5,-1,-4,-1,-10,-2
1558441569856003,2,-2,5,0,7,2,3,3
1558441569856003,3,4,3,0,10,7,6,2
1558441569856998,-6,-4,-11,-7,-4,-9,-9,-4
1558441569856998,-3,-7,0,3,-4,3,-2,-3
1558441569871960,0,1,3,-6,-9,-1,1,-3
1558441569871960,-2,0,-3,-2,-2,1,-6,-3
1558441569877974,2,0,0,0,3,3,5,0
1558441569877974,6,3,2,1,4,3,1,2
1558441569892904,3,3,1,2,1,-6,0,-1
1558441569892904,-7,-8,-4,-4,-8,-6,-5,-6
1558441569900880,-5,0,-4,0,-1,0,-2,-3
1558441569900880,-1,1,-13,-7,-4,-5,-5,-5
1558441569915874,0,-5,5,3,2,-2,2,1
1558441569915874,0,4,5,0,1,-2,1,4
1558441569916839,-3,-12,-6,-3,-3,4,-2,-3
1558441569916839,-2,2,2,1,1,-2,0,-1
1558441569931798,5,14,15,2,2,-2,1,0
1558441569931798,-4,-8,-11,-7,-5,-4,-1,-1
1558441569937784,5,0,-11,-3,1,3,1,-1
1558441569937784,-7,-6,2,1,-1,-2,-4,-1
1558441569952741,-1,-1,7,3,-2,-3,-3,-4
1558441569952741,-1,4,1,0,-3,-5,-2,2
1558441569960722,1,4,4,2,5,6,4,1
1558441569960722,-1,0,-4,-1,1,-1,1,0
1558441569976677,0,-1,-5,-1,-2,-1,0,0
1558441569976677,-8,-10,-6,-2,-5,-5,-8,-2
1558441569976677,4,5,7,-1,-2,-2,0,1
1558441569976677,-2,0,4,3,9,10,1,1
1558441569991637,-2,-4,-10,-3,1,-4,7,1
1558441569991637,2,-1,2,1,-2,1,-4,-4
1558441569997623,-1,1,-2,-3,-1,0,0,0
1558441569997623,5,6,4,-2,-3,-10,-2,1
1558441570013579,-4,-5,1,-1,0,2,-7,-2
1558441570013579,0,-3,-9,-4,-1,3,5,0
1558441570028753,-7,-6,-2,1,-6,-4,-6,-5
1558441570028753,-2,-5,-23,-11,-10,-5,-4,-4
1558441570036518,-1,1,2,1,1,5,3,-3
1558441570036518,-3,-1,10,4,4,0,2,0
1558441570036518,3,1,8,1,0,-1,0,-1
1558441570036518,0,-3,2,0,-8,-11,-4,0
1558441570052475,0,2,-6,-4,5,3,0,2
1558441570052475,0,-2,-4,-5,-3,0,-2,0
1558441570058462,-2,0,-5,-4,1,1,-6,1
1558441570058462,2,-1,4,1,-2,-1,7,-2
1558441570073419,-1,0,6,-1,-4,-3,-4,-1
1558441570073419,1,2,-7,-1,0,-2,0,-2
1558441570080400,-2,-7,-1,-1,-6,-1,-3,-2
1558441570080400,1,2,2,-3,0,0,-4,1
1558441570096358,3,3,5,2,-2,-5,-2,-2
1558441570096358,1,3,9,2,5,0,1,-1
1558441570097357,0,-4,-14,-5,-2,-2,-1,-2
1558441570097357,2,5,0,1,1,4,-2,-1
1558441570112318,-16,-15,-14,-7,-5,-5,0,1
1558441570112318,-3,-3,14,5,-4,-6,-6,-6
1558441570118691,3,2,-7,-3,-1,1,2,1
1558441570118691,1,-2,-6,-3,4,-2,0,0
1558441570133600,4,5,-3,0,3,4,11,0
1558441570133600,0,1,-4,-3,-4,-5,-3,-2
1558441570141415,0,7,28,13,15,13,8,4
1558441570141415,-1,-2,-4,-1,2,-9,2,3
1558441570156199,-5,-9,-29,-11,-9,-3,-11,-4
1558441570156199,-3,-3,-4,-6,-2,8,-1,0
1558441570157200,0,-2,-4,-3,-4,-7,4,-2
1558441570157200,1,8,30,11,-5,-10,-5,-2
1558441570172156,-1,-3,-2,-4,3,-4,-2,-1
1558441570172156,0,-5,-46,-12,2,4,4,0
1558441570178408,-7,-7,-12,-5,-8,0,-6,-5
1558441570178408,0,2,10,3,1,7,4,-1
1558441570193102,3,2,5,1,-4,-7,-2,3
1558441570193102,2,3,8,2,7,-5,-3,-3
1558441570201347,0,4,9,2,6,4,7,-2
1558441570201347,-6,-6,3,0,-4,1,-6,-4
1558441570217067,6,3,-4,-3,-2,14,1,-1
1558441570217067,-5,-2,3,0,6,-4,3,2
1558441570217067,-2,-7,-19,-7,-8,-7,-6,-2
1558441570217067,0,0,0,-3,-5,-3,-1,-3
1558441570231995,2,5,9,5,5,-3,-6,-2
1558441570231995,-2,-3,11,0,-2,-3,-2,0
1558441570237982,2,-2,-7,-2,0,-7,1,4
1558441570237982,3,5,-7,-4,-4,6,0,1
1558441570252939,-15,-23,-24,-13,-11,-7,-9,-7
1558441570252939,3,4,14,4,-7,-10,-2,1
1558441570260984,-2,0,1,3,5,4,1,-2
1558441570260984,7,4,-1,-2,4,4,1,4
1558441570276184,3,4,-7,-4,-3,-3,0,3
1558441570276184,5,0,14,7,1,6,1,2
1558441570276878,-3,-3,-2,-7,-4,-10,3,-3
1558441570276878,-10,-8,-13,-4,0,-7,-4,-6
1558441570308821,5,8,26,7,1,-2,3,-2
1558441570308821,-2,-5,-13,-1,-1,4,1,-1
1558441570308821,7,3,15,4,-1,-1,-6,-1
1558441570308821,-1,0,-18,-6,2,1,-1,1
1558441570313088,2,7,9,8,2,-1,1,2
1558441570313088,0,-3,-7,0,-3,0,-1,-2
1558441570320760,-5,-6,-18,-12,-6,-10,-1,0
1558441570320760,6,8,-5,-2,-3,-1,-7,-2
1558441570336716,7,4,32,14,10,16,11,4
1558441570336716,-20,-20,-24,-11,-6,-12,-3,-4
1558441570336716,-1,10,6,5,-2,0,-8,-5
1558441570336716,-6,-18,9,1,-4,1,-6,-2
1558441570351678,0,-3,-22,-9,-8,-4,-2,-1
1558441570351678,14,18,13,5,4,3,2,1
1558441570357662,-5,-3,11,4,3,3,3,0
1558441570357662,-1,1,-19,-8,-4,-9,-3,-3
1558441570372620,-6,-2,2,0,-1,-1,-4,-1
1558441570372620,2,-2,-3,-4,-3,-1,-6,-2
1558441570380599,-7,-13,-2,-1,-7,-3,-2,-2
1558441570380599,4,5,19,9,5,-1,-2,2
1558441570420493,-11,-17,-43,-20,-11,-10,-5,-6
1558441570420493,4,4,9,3,-6,-4,1,-1
1558441570421489,13,13,0,1,4,4,2,4
1558441570421489,-8,-6,-8,-3,-1,-1,3,2
1558441570422490,2,4,22,6,0,0,3,-4
1558441570422490,0,-3,-18,-6,1,-4,-6,-4
1558441570426516,-1,-5,6,-1,-6,-6,-8,-2
1558441570426516,-9,-12,-4,-1,-6,0,2,-4
1558441570433751,2,5,3,4,11,-1,0,1
1558441570433751,3,8,9,3,-4,3,-5,-3
1558441570440439,-1,0,1,-1,2,8,-2,0
1558441570440439,4,3,-12,-5,5,-6,11,4
1558441570457406,-4,-10,-2,-1,-2,-7,-3,1
1558441570457406,5,6,9,2,-1,3,0,-2
1558441570458391,-3,-7,2,-5,-10,-5,-13,-5
1558441570458391,-2,-5,-21,-6,-2,12,7,-2
1558441570472353,-2,-1,-5,-3,-2,0,-4,-1
1558441570472353,1,1,14,6,3,-8,0,4
1558441570478463,2,3,5,4,6,11,4,3
1558441570478463,-4,-9,-15,-15,-13,-4,-5,-3
1558441570493325,3,3,-2,-2,-6,-11,-4,-1
1558441570493325,-10,-7,-18,-10,-4,-2,-3,-3
1558441570500306,-2,2,1,1,0,-2,1,-1
1558441570500306,1,1,17,8,5,5,2,-1
1558441570532226,3,3,-4,-3,1,2,3,1
1558441570532226,-7,-3,0,0,1,4,-5,-1
1558441570533192,-1,1,5,2,-2,-2,1,-2
1558441570533192,-3,-7,-1,-3,3,-3,-1,-1
1558441570535218,-2,3,-7,-1,-3,-3,-1,0
1558441570535218,-3,-5,2,-3,-4,-10,0,1
1558441570538179,7,2,-12,-1,2,5,2,2
1558441570538179,-10,-6,17,2,-7,-1,-8,-4
1558441570553137,4,2,-10,-3,3,9,-4,-4
1558441570553137,-6,1,-2,-2,-4,-3,0,-1
1558441570560155,-3,-13,-8,-1,2,-1,-1,-4
1558441570560155,3,-1,6,5,2,-1,-7,-2
1558441570584211,-3,-3,6,1,1,-1,5,0
1558441570584211,-4,-6,1,1,-1,3,0,0
1558441570585056,0,4,3,-1,-2,-1,0,1
1558441570585056,4,7,-10,-5,0,2,-1,0
1558441570592033,-7,-4,3,-1,-6,-3,-5,-2
1558441570592033,3,-2,-10,-5,-8,-8,-5,-2
1558441570598183,-9,-2,12,7,17,14,14,5
1558441570598183,-2,-7,-19,-9,-4,-9,0,1
1558441570613133,1,3,2,-1,-8,-8,-4,-1
1558441570613133,-1,-2,-6,-4,0,2,-3,-2
1558441570621361,0,2,11,4,2,-1,-3,-1
1558441570621361,7,11,5,3,0,3,2,2
1558441570636912,8,11,0,-1,2,3,5,2
1558441570636912,-7,-19,18,3,-7,-5,-9,-4
1558441570642900,-6,-8,-37,-15,-14,-17,-9,-8
1558441570642900,-5,-6,15,4,9,9,5,-3
1558441570651874,4,7,3,1,9,7,3,0
1558441570651874,-7,-7,-22,-6,-2,-2,6,-1
1558441570657857,5,5,4,1,1,5,2,1
1558441570657857,-4,-3,1,-1,-5,-2,-4,-3
1558441570689806,-4,-2,7,3,-4,-4,-5,-2
1558441570689806,11,12,14,7,5,2,2,1
1558441570689806,-14,-15,-14,-11,-8,-5,-6,-5
1558441570689806,5,10,-1,-1,-4,-3,-6,-3
1558441570695754,1,4,2,1,5,10,0,1
1558441570695754,-9,-3,-8,0,4,3,-4,-1
1558441570702799,0,-13,-6,0,-6,-19,6,1
1558441570702799,3,-3,4,2,2,2,3,1
1558441570718887,-2,-2,-1,-1,-2,0,-2,0
1558441570718887,5,8,2,0,3,2,-1,1
1558441570719691,1,7,3,-1,0,2,-7,-2
1558441570719691,-1,1,3,1,-5,-5,-7,-2
1558441570741840,3,3,12,2,0,7,-1,1
1558441570741840,0,2,-19,-8,-4,-6,-5,0
1558441570741840,-8,-21,-15,-4,1,-5,3,3
1558441570741840,3,2,-3,0,5,-8,5,2
1558441570756796,-9,-7,2,0,-2,-7,-5,-3
1558441570756796,0,-1,8,0,-3,1,-9,-2
1558441570763681,6,9,4,0,1,10,0,0
1558441570763681,1,-2,1,0,-6,-6,-2,2
1558441570780528,-2,-2,-3,-1,0,0,2,-1
1558441570780528,4,7,8,1,6,0,4,-1
1558441570780528,0,1,-12,-5,-10,-15,-4,-3
1558441570780528,-10,-11,4,-3,0,5,-2,-2
1558441570793511,1,-6,-6,-1,-1,3,8,0
1558441570793511,-3,-9,-10,-8,-4,-2,1,-3
1558441570808490,2,8,2,3,4,4,-3,-2
1558441570808490,2,1,5,3,2,0,1,0
1558441570815436,-8,-12,-24,-6,-10,-13,-9,-4
1558441570815436,-1,-6,-7,-4,2,6,5,-1
1558441570823446,6,8,8,2,2,-3,-4,1
1558441570823446,-6,-6,2,-1,-1,-1,1,0
1558441570863308,0,1,6,4,2,-2,-2,0
1558441570863308,-1,3,3,5,5,7,4,1
1558441570864306,0,2,4,-1,-5,-2,-5,-1
1558441570864306,3,2,-17,-5,-5,-1,1,-3
1558441570865301,3,9,18,3,8,-3,5,3
1558441570865301,-5,-16,-13,-6,-5,-2,2,0
1558441570868296,-3,-13,2,1,-2,1,-2,-2
1558441570868296,-1,0,-4,-3,1,-1,-3,-2
1558441570875275,-2,-9,-6,-3,-10,-3,-4,-4
1558441570875275,6,13,7,-1,-2,-1,-2,0
1558441570883255,0,5,3,2,5,-7,6,0
1558441570883255,0,-2,2,1,2,4,3,0
1558441570899431,0,0,-6,-3,-1,-1,-7,-3
1558441570899431,-1,2,7,1,0,-2,0,-1
1558441570906247,2,0,-4,-4,-1,10,-1,0
1558441570906247,0,8,12,2,-3,-4,-2,0
1558441570913223,-11,-13,-6,-3,-1,-2,-2,-5
1558441570913223,-1,-11,-29,-9,-4,9,1,-3
1558441570920154,-8,-3,-5,1,0,-11,-1,-2
1558441570920154,0,-1,-10,-5,-4,-5,-5,-1
1558441570935171,0,3,4,1,-4,-3,3,0
1558441570935171,5,8,17,7,-1,-3,-4,0
1558441570943144,0,-8,-1,-2,-1,6,2,0
1558441570943144,-4,0,-5,-1,0,2,3,2
1558441570975041,-3,-1,2,-3,-2,-4,-3,-2
1558441570975041,-2,-1,2,-1,3,0,1,0
1558441570976011,6,6,1,-1,0,9,1,1
1558441570976011,-6,-4,4,0,0,-1,-4,-1
1558441570977002,0,0,0,1,2,-7,1,-1
1558441570977002,-2,3,-5,-4,-5,-6,-4,-2
1558441570981031,-8,-15,-7,-5,-9,-5,-9,-6
1558441570981031,1,-5,-6,-2,0,-1,3,0
1558441570995985,3,2,11,3,5,-5,4,5
1558441570995985,-1,-2,-2,-3,1,-1,4,0
1558441571002938,-4,3,-5,-3,-4,-1,-4,-3
1558441571002938,-3,-3,-4,-3,-5,2,-5,-2
1558441571028864,0,0,0,1,1,-4,2,-1
1558441571028864,2,4,9,3,1,-4,-2,1
1558441571028864,1,7,18,7,1,-1,2,2
1558441571028864,-7,-7,-19,-8,-6,-1,-3,-3
1558441571040866,1,-2,-16,-7,3,5,0,0
1558441571040866,-4,-8,-11,-2,-1,1,0,-1
1558441571041829,-4,-13,-6,-3,-7,-2,-4,-5
1558441571041829,3,5,7,1,-2,-2,-3,-1
1558441571055796,0,1,6,0,-1,1,-10,0
1558441571055796,-1,2,1,-2,-1,2,6,0
1558441571088754,2,8,6,2,11,4,6,3
1558441571088754,2,2,5,2,1,-11,1,0
1558441571089700,-2,1,-2,-5,-7,-3,-6,-1
1558441571089700,-4,-3,5,2,-2,-1,-5,-3
1558441571090771,-2,3,6,3,5,11,2,0
1558441571090771,-2,-4,-6,-6,-6,-3,-3,-2
1558441571094688,-2,-7,-15,-7,-6,3,3,0
1558441571094688,6,5,10,5,-4,-16,-3,1
1558441571100673,-5,-5,-16,-9,-6,-10,-3,-1
1558441571100673,2,3,10,4,9,1,-3,0
1558441571115634,1,1,-1,1,-6,-2,5,-1
1558441571115634,0,-1,5,1,3,11,2,-1
1558441571139568,-4,-3,-5,-5,-6,-5,-3,-2
1558441571139568,1,-2,0,0,-1,-5,-3,-1
1558441571141563,4,8,16,5,-2,-11,-1,1
1558441571141563,-3,-7,-27,-9,1,8,0,-2
1558441571142561,2,4,-5,-1,-3,-3,-1,-1
1558441571142561,-4,-4,-8,-6,-5,-2,-5,-3
1558441571153530,0,-4,8,0,1,9,-3,-5
1558441571153530,-1,4,8,9,10,7,10,6
1558441571160551,3,-1,-2,-3,0,-8,-4,-1
1558441571160551,1,0,3,2,1,5,2,-1
1558441571177465,-1,-3,-3,-2,1,1,-5,-3
1558441571177465,0,1,5,-3,-4,3,-3,-2
1558441571200609,-4,-1,2,0,0,4,-2,0
1558441571200609,0,0,-1,0,-1,-8,-3,0
1558441571201403,3,5,0,-1,0,-1,1,2
1558441571201403,-11,-3,17,8,1,-2,5,-1
1558441571202399,-8,-14,-34,-13,-2,1,-6,-3
1558441571202399,1,-2,6,1,2,10,5,0
1558441571213575,-4,-12,0,-3,-2,-1,-2,-1
1558441571213575,1,-5,-31,-14,-10,-10,-8,-5
1558441571220352,3,11,18,6,1,0,7,0
1558441571220352,-3,0,-5,-2,-3,-2,-2,-1
1558441571235442,-2,-1,-4,-1,1,2,0,-2
1558441571235442,4,2,11,3,0,-4,-2,0
1558441571251303,1,0,5,1,-3,-1,3,2
1558441571251303,-2,-10,-10,-3,0,1,-5,-1
1558441571258250,-1,1,1,3,2,-1,2,0
1558441571258250,0,0,-1,-3,-5,-11,-8,-4
1558441571259248,6,6,19,8,2,2,-2,0
1558441571259248,-10,-13,-13,-5,0,2,2,-3
1558441571273210,-3,2,-4,-7,-5,-1,0,-3
1558441571273210,-6,-12,-35,-11,-8,-4,-6,-5
1558441571305207,-6,-7,-10,-3,-8,-13,-13,-4
1558441571305207,8,10,17,8,3,2,5,4
1558441571306123,0,-2,6,4,6,11,8,2
1558441571306123,1,2,11,3,3,1,4,0
1558441571307119,2,4,8,1,6,4,3,1
1558441571307119,-1,-2,-5,-2,-2,-2,-4,-4
1558441571319306,-4,-4,-13,-3,-6,-4,-7,-3
1558441571319306,-1,3,7,0,-6,-6,-3,-2
1558441571319306,3,0,-5,-1,3,7,0,-1
1558441571319306,4,7,2,-3,-6,-8,-6,-3
1558441571333267,-4,-2,10,8,8,-3,4,0
1558441571333267,-6,-5,-15,-4,4,2,7,0
1558441571341172,-6,-12,-5,-9,-3,-3,0,-2
1558441571341172,3,3,-6,-2,0,5,-2,-1
1558441571355995,2,1,1,-1,-5,2,-1,-2
1558441571355995,2,5,-1,-1,0,4,-1,0
1558441571362969,-1,3,5,2,-2,-4,-4,-1
1558441571362969,4,7,7,2,-1,2,4,2
1558441571379139,0,-2,-6,-7,-6,-18,-6,-1
1558441571379139,0,-5,10,8,11,9,16,4
1558441571380036,2,5,0,-1,3,3,5,1
1558441571380036,-2,-8,2,5,0,2,-3,-2
1558441571392891,0,-1,-1,-2,-8,-7,-11,-4
1558441571392891,-2,0,-19,-14,-13,-7,-7,-4
1558441571400961,-4,-13,-3,0,-7,-4,-5,-2
1558441571400961,-3,5,4,1,14,12,12,3
1558441571415916,-3,-12,-6,-3,3,-10,7,0
1558441571415916,3,5,8,2,-1,0,-4,-3
1558441571422901,2,7,3,3,1,5,3,-1
1558441571422901,0,0,-1,-1,-3,-4,-4,-2
1558441571437770,-3,-5,-9,-3,-4,7,-2,-3
1558441571437770,6,3,4,-1,0,0,-4,-1
1558441571446777,1,-6,0,1,1,-6,-2,-4
1558441571446777,-2,-3,-3,-4,-1,3,2,1
1558441571452732,0,1,5,3,2,-3,1,2
1558441571452732,-1,-7,-11,-6,-6,-12,-13,-4
1558441571460708,-2,-1,-7,-2,-3,5,2,3
1558441571460708,-1,-1,-8,-5,-2,-2,-2,-1
1558441571475669,0,0,-2,-1,0,9,1,-1
1558441571475669,0,1,8,2,-4,1,-3,-1
1558441571482752,-5,-7,0,-1,-3,-3,1,-2
1558441571482752,-1,2,-3,-2,-1,-11,-6,-2
1558441571497705,3,4,-1,-1,0,-3,2,2
1558441571497705,-6,-8,2,0,1,1,1,1
1558441571506683,6,9,-10,-4,5,7,6,3
1558441571506683,2,-4,0,0,-6,-8,-1,-2
1558441571512667,0,11,15,3,-2,5,-7,-1
1558441571512667,-7,-20,-35,-14,-8,-9,-5,-5
1558441571520692,-2,-1,-1,-1,1,-4,0,1
1558441571520692,-3,-7,9,4,2,-1,1,-3
1558441571535752,2,4,-7,-2,3,6,1,1
1558441571535752,3,11,17,6,6,5,4,2
1558441571543631,-7,-4,3,2,1,0,-2,-2
1558441571543631,-2,-3,-9,-7,-7,-6,-2,0
1558441571566639,-4,-9,-8,-3,-7,-6,-8,-6
1558441571566639,-3,-1,3,1,-4,-5,-5,-4
1558441571566639,3,2,-3,2,7,6,4,2
1558441571566639,-1,-2,4,3,5,2,-1,1
1558441571574547,0,-1,-2,-3,-4,-5,1,-2
1558441571574547,3,3,11,2,0,6,-2,-2
1558441571580610,-10,-7,-11,-9,-8,-6,-6,-4
1558441571580610,-4,-6,-9,-4,-5,-17,1,-2
1558441571595674,-1,-2,-8,-1,3,9,3,0
1558441571595674,-4,-1,1,2,-3,-5,-5,-3
1558441571602715,4,3,3,-3,-10,-6,-5,-3
1558441571602715,-3,-1,11,7,8,13,11,4
1558441571617707,2,4,-9,-4,2,-6,-1,4
1558441571617707,3,-4,-2,0,1,-1,6,2
1558441571633703,-6,-11,-4,-2,-3,-1,-12,-3
1558441571633703,1,0,-3,-4,-12,-4,-5,-2
1558441571641639,2,5,13,2,2,9,4,0
1558441571641639,0,3,1,0,0,-6,2,2
1558441571641639,1,1,-5,-3,-2,-10,-5,-2
1558441571641639,2,0,0,1,1,6,-2,-2
1558441571655642,-2,0,6,-2,0,0,-4,-3
1558441571655642,2,2,-7,-2,-1,-5,-3,0
1558441571663553,-11,-8,6,1,-4,-6,0,-1
1558441571663553,0,3,-1,-1,0,3,0,0
1558441571678511,-6,-9,-14,-8,-3,-5,1,-2
1558441571678511,0,3,12,7,2,-3,2,0
1558441571685596,4,2,-10,-3,1,-3,6,1
1558441571685596,2,4,1,2,0,-1,0,1
1558441571700813,-7,-13,-13,-7,-7,-1,-6,-5
1558441571700813,-3,-2,1,0,-2,-1,-5,-5
1558441571701810,2,2,7,5,8,9,6,1
1558441571701810,2,3,1,-3,-5,-7,0,-1
1558441571715952,-7,-8,-1,2,4,2,0,-1
1558441571715952,1,3,4,-2,1,-8,-4,-2
1558441571722928,1,1,-1,1,-3,-2,-2,-1
1558441571722928,-5,-5,-10,-7,-7,-3,-7,-4
1558441571738106,0,-3,-1,-1,-5,-1,-5,-2
1558441571738106,-1,-2,0,-2,-4,3,-1,-2
1558441571746077,1,2,5,1,0,0,-3,-3
1558441571746077,5,6,10,4,3,-6,-2,-1
1558441571760958,-18,-17,-26,-9,-6,-9,-1,-4
1558441571760958,-4,-3,-12,-4,-2,-2,2,-2
1558441571761868,5,4,-7,-5,1,-1,1,0
1558441571761868,-10,-7,-1,-2,-1,-7,-4,-2
1558441571775872,5,9,18,5,6,7,1,-1
1558441571775872,-1,-2,2,-3,-7,-4,-7,-3
1558441571782831,-2,1,-2,1,-1,3,5,-2
1558441571782831,5,4,-5,3,4,5,4,1
1558441571797864,3,2,11,3,2,-1,1,1
1558441571797864,-3,-6,-7,-4,-1,-4,-3,0
1558441571805841,-3,0,-2,-3,-8,-7,-3,-2
1558441571805841,-3,-6,-2,-4,-3,2,-4,-3
1558441571821709,3,-5,-11,-4,-6,-8,-4,0
1558441571821709,3,8,11,3,2,7,-1,1
1558441571821709,1,1,3,-1,6,7,10,4
1558441571821709,-2,-1,-19,-6,5,6,0,-4
1558441571835763,-1,-1,-2,-2,-4,-5,-1,1
1558441571835763,-2,-5,0,-4,-3,-5,-7,-4
1558441571842741,-11,-8,-4,-2,-9,-13,-7,-2
1558441571842741,1,-1,9,7,8,16,4,0
1558441571857642,3,4,-2,0,3,2,5,1
1558441571857642,-2,-2,-3,0,-4,-13,-6,-1
1558441571865591,3,7,5,1,-4,0,-2,-1
1558441571865591,-1,-1,0,-1,5,9,2,1
1558441571881579,7,11,11,4,5,4,0,1
1558441571881579,-1,-1,3,4,4,10,1,1
1558441571881579,-5,-11,-18,-11,-12,-10,-2,-4
1558441571881579,-4,-3,1,-5,-10,-10,-7,-4
1558441571895683,0,-3,-6,-2,-5,0,-6,-4
1558441571895683,1,4,1,1,4,-2,11,3
1558441571903489,7,6,10,5,3,-3,-8,-3
1558441571903489,-5,-11,-7,-3,-1,8,5,2
1558441571918448,-2,-2,3,0,-4,-7,-3,-3
1558441571918448,0,0,9,1,-5,-4,-5,-1
1558441571925564,8,5,-4,-3,7,5,3,0
1558441571925564,-15,-9,-8,-5,-2,-11,2,-2
1558441571941522,-2,0,0,0,-8,-7,-5,-3
1558441571941522,-5,-10,-3,-2,-1,5,-3,-3
1558441571942421,-1,-3,5,2,0,1,-2,0
1558441571942421,8,5,1,1,5,7,1,2
1558441571955484,-2,-1,-9,-3,-1,-4,-4,-2
1558441571955484,1,4,14,0,-1,4,4,2
1558441571963468,2,3,-5,1,5,5,1,0
1558441571963468,-6,-8,-6,-5,-8,-7,-5,-3
1558441571978425,-4,-8,5,1,0,0,1,1
1558441571978425,-2,-1,-12,-3,-3,2,-4,-4
1558441571985269,-2,0,5,1,1,6,-10,-1
1558441571985269,2,5,1,-1,1,-12,3,0
1558441572001293,2,1,-2,1,6,0,8,2
1558441572001293,0,1,12,5,3,5,-2,0
1558441572002292,-2,0,-2,-5,-2,0,0,-2
1558441572002292,-3,-10,-15,-8,-11,-7,-12,-6
1558441572015234,4,5,11,2,-3,-3,-3,-1
1558441572015234,-4,-12,-26,-6,4,-4,4,2
1558441572023209,-1,-1,4,3,4,-6,0,2
1558441572023209,3,5,7,0,-5,-4,-3,1
1558441572038165,-6,-6,-11,-6,-5,4,-10,-5
1558441572038165,0,-3,0,-3,-4,0,0,-3
1558441572045147,-2,0,0,1,5,-1,7,1
1558441572045147,2,4,5,0,-2,-5,-4,-1
1558441572061104,-1,-2,3,4,11,12,6,2
1558441572061104,0,6,10,4,-1,-1,3,-1
1558441572062069,-9,-14,-16,-12,-12,-8,-6,-6
1558441572062069,0,0,0,0,-2,4,3,-2
1558441572075031,7,11,18,8,6,0,1,3
1558441572075031,-4,-3,-14,-7,-5,-8,-2,-2
1558441572083045,3,8,7,1,-4,-9,-8,-1
1558441572083045,0,-5,-8,-2,9,8,6,4
1558441572097971,-2,2,15,7,1,1,4,-1
1558441572097971,-3,-6,-24,-9,0,-1,3,-2
1558441572105948,-1,5,9,1,-3,-3,2,0
1558441572105948,-1,-2,-1,0,-5,-4,-6,-6
1558441572120908,-1,-3,-16,-10,-4,-2,2,-1
1558441572120908,-2,-1,8,2,1,5,1,2
1558441572121905,4,6,5,5,2,4,-1,-1
1558441572121905,1,5,18,5,0,-5,-3,-1
1558441572136864,-4,-6,-22,-12,-7,-7,-4,-4
1558441572136864,-5,-3,-10,-5,-3,-1,-4,-4
1558441572142882,0,-8,4,-1,-3,5,-9,-2
1558441572142882,1,11,4,6,9,4,12,2
1558441572158030,0,-5,2,-1,-4,-13,-7,-1
1558441572158030,-6,-8,2,-1,1,1,2,0
1558441572166012,1,-1,3,-1,0,2,-1,0
1558441572166012,-2,-4,1,-3,-4,-2,-8,-5
1558441572182743,-12,3,1,0,0,5,-1,-5
1558441572182743,-2,-8,-32,-15,-5,-4,-4,-2
1558441572183740,3,5,17,11,3,-3,3,0
1558441572183740,1,-2,-15,-8,-6,-6,-3,-1
1558441572195706,0,-3,3,0,-1,0,-3,-1
1558441572195706,-1,7,-8,-2,-4,-6,-9,-2
1558441572202688,-3,-6,-10,-4,2,7,6,-1
1558441572202688,2,-1,19,7,6,0,-3,0
1558441572217647,-1,-8,-1,-3,-1,-4,2,2
1558441572217647,2,4,7,1,-3,0,0,-1
1558441572225828,4,9,11,7,4,-7,3,1
1558441572225828,-2,-7,-35,-20,-11,-4,0,-1
1558441572241682,-3,0,24,7,3,8,-8,-1
1558441572241682,-3,-11,-18,-3,-1,-1,10,-2
1558441572241682,4,7,25,10,3,2,-8,0
1558441572241682,-6,-11,-21,-10,-9,-6,-13,-7
1558441572255681,3,6,-10,-3,4,11,8,3
1558441572255681,8,11,20,7,-2,-7,0,5
1558441572263554,-6,-10,0,-3,-6,-7,4,-1
1558441572263554,5,11,5,4,7,7,0,1
1558441572277665,-7,-8,-4,2,4,11,1,-4
1558441572277665,-4,-6,2,-6,-3,-8,-2,1
1558441572285642,0,6,-10,-3,-2,-1,2,-2
1558441572285642,5,1,8,2,-3,-5,3,0
1558441572301599,-6,-10,-14,-5,-4,-4,-5,-4
1558441572301599,-1,-1,10,2,0,5,-2,-3
1558441572301599,3,2,13,3,4,7,-4,-1
1558441572301599,-7,-12,-29,-12,-8,-3,-2,-4
1558441572315793,-1,-1,-2,2,-5,-4,-1,1
1558441572315793,6,10,25,9,10,6,3,2
1558441572323635,3,0,-22,-8,4,3,3,1
1558441572323635,-7,-9,-17,-9,-8,1,-5,-4
1558441572338502,9,14,15,3,-5,-10,-7,1
1558441572338502,-2,-2,-10,-6,0,4,-3,-2
1558441572345710,-8,-10,17,8,3,-1,2,-5
1558441572345710,1,-2,12,8,7,2,6,0
1558441572360669,5,5,-29,-11,-8,-12,-9,-3
1558441572360669,1,7,20,8,4,10,13,7
1558441572368648,1,-5,-9,-5,-4,0,3,2
1558441572368648,-8,-4,8,2,-4,-8,-22,-7
1558441572375630,-2,-3,-11,-6,0,-3,8,-1
1558441572375630,3,5,5,-1,-9,-8,-16,-5
1558441572383568,-1,-6,-19,-9,-8,-6,5,2
1558441572383568,-3,-5,2,3,2,0,11,5
1558441572398482,2,-5,5,2,-2,-9,0,2
1558441572398482,-2,-1,8,3,7,9,7,-3
1558441572405418,-7,4,-8,-6,-1,-4,-2,-3
1558441572405418,1,-2,4,-7,-5,4,0,1
1558441572420289,-4,-5,-5,-2,2,-4,-3,-5
1558441572420289,-2,-5,-14,-4,-3,-6,-1,-2
1558441572429259,-4,-3,2,-5,-5,-2,-16,-8
1558441572429259,1,1,17,9,1,-5,1,2
1558441572435242,2,5,-8,-7,4,11,5,0
1558441572435242,-4,-6,-2,-1,-5,-8,-3,-4
1558441572443250,3,14,23,12,9,4,8,2
1558441572443250,-4,-15,-47,-18,-4,-4,-11,-4
1558441572458180,-5,-5,9,4,-6,-6,-6,-3
1558441572458180,-5,-6,-12,-6,-5,2,-3,-5
1558441572465162,10,9,4,-1,-2,-2,2,4
1558441572465162,-9,-6,-13,-10,-3,0,-11,-9
1558441572480122,-4,-7,1,4,-1,-6,-4,-2
1558441572480122,7,8,4,2,2,1,-8,4
1558441572489098,1,-2,10,6,4,3,20,6
1558441572489098,-3,2,3,0,-3,-5,7,2
1558441572495082,-1,-3,-1,-3,3,9,3,0
1558441572495082,-5,-1,7,2,-3,-11,-19,-8
1558441572503075,-4,-10,-33,-17,-7,2,-9,-7
1558441572503075,11,25,59,31,19,14,6,2
1558441572518277,-7,-20,-51,-28,-16,-7,1,-2
1558441572518277,5,8,27,7,7,6,4,1
1558441572525254,-11,-19,-25,-8,-7,-4,1,-1
1558441572525254,3,4,8,9,1,-6,8,-2
1558441572541026,1,8,11,5,-3,4,3,-1
1558441572541026,1,-9,2,3,2,2,2,-1
1558441572548943,3,4,-5,1,7,8,2,5
1558441572548943,-5,-4,-16,-11,-3,2,3,0
1558441572563904,-1,0,18,9,5,-1,1,5
1558441572563904,-1,3,-13,-5,-3,-2,1,1
1558441572563904,-4,-5,14,8,6,5,-9,-4
1558441572563904,2,1,0,-1,-6,-7,-6,2
1558441572577879,0,0,-6,-3,2,-3,5,1
1558441572577879,-4,0,0,-3,-7,-10,-18,-6
1558441572585921,-4,-7,19,8,-3,-8,-10,-2
1558441572585921,-3,-8,-51,-22,-9,-1,4,1
1558441572600799,-6,-8,-15,-10,-8,-7,-6,-9
1558441572600799,8,4,23,6,4,3,4,7
1558441572608777,-10,0,-41,-16,-8,-9,-1,-3
1558441572608777,-3,0,33,13,4,3,-2,1
1558441572623772,7,11,16,9,2,-3,-15,1
1558441572623772,-4,-7,-16,-5,-4,-1,0,2
1558441572627014,2,-2,-17,-7,-1,0,1,-2
1558441572627014,-11,-9,-19,-18,-9,0,1,-8
1558441572637704,0,0,2,-2,-4,-8,-11,0
1558441572637704,0,0,10,7,9,4,5,1
1558441572645680,0,-3,-7,-4,-4,4,-7,-1
1558441572645680,8,6,22,10,5,1,4,2
1558441572660642,1,-2,4,2,0,1,-1,1
1558441572660642,-1,7,-5,-1,5,6,17,0
1558441572668869,-5,-12,4,-3,-4,-9,-12,-6
1558441572668869,1,-1,-3,-2,0,-5,-6,-1
1558441572683582,-8,-4,-6,-4,-3,6,4,-5
1558441572683582,-5,-6,-13,-15,-17,-22,-29,-9
1558441572684576,-2,6,-6,-5,-5,3,0,-3
1558441572684576,1,6,27,8,5,10,-9,-6
1558441572698565,-6,-19,-23,-11,-3,-12,10,-1
1558441572698565,-1,9,8,5,3,-3,-4,0
1558441572705519,3,0,-6,-7,-5,-3,7,4
1558441572705519,4,0,0,3,3,5,0,3
1558441572720480,8,13,11,4,5,3,1,0
1558441572720480,-12,-16,-29,-10,-3,2,-1,-6
1558441572728457,4,3,22,13,5,1,3,3
1558441572728457,-4,-3,-6,-5,-6,-6,-1,-1
1558441572752394,2,8,6,3,1,1,0,0
1558441572752394,0,3,4,3,2,-1,15,-2
1558441572752394,-6,-9,-7,-2,-5,-5,-13,-3
1558441572752394,6,8,12,10,4,-5,10,4
1558441572758377,2,11,-17,-13,-2,9,-4,-1
1558441572758377,-13,-37,-7,-1,-4,0,10,-2
1558441572765551,-12,-2,-5,-1,-4,-6,-3,-5
1558441572765551,-3,-12,-9,-5,-8,-8,-4,-3
1558441572780449,5,15,20,7,-2,-2,-10,-1
1558441572780449,5,3,-1,-4,1,4,-1,3
1558441572805252,0,0,-1,-1,-2,6,12,-4
1558441572805252,-7,-2,-8,-2,-4,-2,-8,-6
1558441572806287,-1,-3,8,4,-3,-3,2,2
1558441572806287,3,7,-10,-4,4,1,4,6
1558441572807248,5,2,24,10,5,-1,-1,-1
1558441572807248,-3,-4,-28,-9,-4,2,1,2
1558441572818218,-5,-10,-8,-8,-7,-9,3,-4
1558441572818218,-1,2,-1,3,2,6,0,-3
1558441572825201,2,8,2,-3,-4,-3,-5,1
1558441572825201,-1,-3,14,7,7,10,2,-1
1558441572857112,-5,-8,-7,-2,4,4,3,-1
1558441572857112,0,-1,-3,1,1,-5,2,-3
1558441572857112,3,1,-3,-3,-2,6,-1,-1
1558441572857112,-1,4,3,-3,-5,-11,0,1
1558441572864094,-4,-11,7,5,1,1,2,0
1558441572864094,1,6,0,-1,-7,-6,-4,-5
1558441572864094,0,-8,-8,-7,-3,-4,-8,-3
1558441572864094,-2,2,0,-2,-3,3,-6,-2
1558441572878057,-8,-5,5,6,7,11,12,5
1558441572878057,1,2,-2,-3,-2,-7,-10,0
1558441572885040,3,2,-5,-2,-5,-10,4,2
1558441572885040,6,2,4,-2,0,5,1,-1
1558441572916981,0,-2,-3,0,1,-5,-2,-3
1558441572916981,1,-2,-4,-4,-2,10,-5,1
1558441572917955,-3,-5,-7,-2,2,-1,-5,-2
1558441572917955,5,3,7,4,4,-12,0,4
1558441572923934,2,3,0,-2,-10,-11,-15,-2
1558441572923934,-4,-5,-6,-6,-3,3,1,2
1558441572924934,3,2,5,5,5,-1,-1,1
1558441572924934,-1,-1,-3,-4,4,5,6,-2
1558441572937899,-1,-1,-4,-6,-11,-9,-10,-3
1558441572937899,-3,-5,0,-6,-10,-10,-7,-3
1558441572945876,-4,2,-1,-3,-1,4,5,5
1558441572945876,2,4,2,5,7,4,12,2
1558441572970810,-5,3,-2,-1,-2,-7,-1,-3
1558441572970810,2,-3,-1,2,7,0,-3,-3
1558441572971807,-2,0,-4,-9,-13,2,0,-2
1558441572971807,-2,-4,1,1,-2,-15,-5,1
1558441572983776,7,2,5,5,10,5,0,-2
1558441572983776,-11,-3,-5,-3,-1,3,0,-2
1558441572984773,-1,-5,-5,1,9,7,1,-2
1558441572984773,-3,-2,3,1,-9,-4,-13,-4
1558441572997865,2,3,0,2,3,5,2,1
1558441572997865,4,4,1,4,10,12,4,3
1558441573005715,-3,-2,8,-1,-4,-6,2,-3
1558441573005715,-2,-9,-37,-21,-8,-5,-5,-3
1558441573031653,2,2,9,5,3,-2,1,1
1558441573031653,-3,2,5,7,-3,0,2,-3
1558441573031653,1,-1,-6,-4,2,-2,-6,0
1558441573031653,6,6,11,5,4,4,10,7
1558441573043617,-5,-7,1,-1,5,11,-6,1
1558441573043617,-6,-11,-29,-12,-6,-10,7,0
1558441573044613,2,2,12,8,1,-1,3,0
1558441573044613,-2,1,7,3,0,0,-2,-2
1558441573057576,0,4,1,-3,-2,0,4,1
1558441573057576,7,6,22,6,0,-1,-7,0
1558441573081722,-17,-16,-21,-8,-2,-3,-7,-4
1558441573081722,-6,-5,-1,0,1,4,3,-3
1558441573083517,2,3,12,5,-1,0,11,1
1558441573083517,-2,-2,-9,-7,3,1,6,-1
1558441573088495,2,3,2,-3,-7,-10,-6,-5
1558441573088495,-5,-6,-18,-5,0,6,-5,-3
1558441573103457,0,0,-5,-1,-4,-4,6,1
1558441573103457,-8,-13,-11,-14,-8,-8,-6,-6
1558441573104452,5,7,16,9,2,-2,2,2
1558441573104452,-7,-7,5,-7,-11,-12,-8,-2
1558441573118414,2,-4,-18,-7,-1,-3,2,-3
1558441573118414,1,2,5,7,2,2,-12,-1
1558441573133375,4,2,-2,-2,1,5,11,3
1558441573133375,3,0,16,1,-3,-4,-8,1
1558441573140392,-7,-10,-29,-12,-4,-6,-1,-2
1558441573140392,4,6,18,9,-2,-4,-3,-1
1558441573148334,2,0,-18,-7,0,1,-5,1
1558441573148334,-7,-1,10,-1,1,8,14,2
1558441573164308,-2,-3,-10,-4,3,6,0,-2
1558441573164308,0,6,11,1,-2,-5,-4,1
1558441573164308,-4,-13,-16,-6,-7,-11,-8,-5
1558441573164308,4,6,5,5,5,9,7,-1
1558441573178260,-2,-3,7,2,0,1,5,-2
1558441573178260,-4,-2,2,3,2,4,0,-2
1558441573185432,-1,2,8,0,0,-1,-3,-2
1558441573185432,-1,-2,-1,-7,-3,-2,-14,-7
1558441573202191,3,11,18,5,-1,2,-6,-2
1558441573202191,1,-2,-34,-10,-5,-10,5,3
1558441573208203,-6,-9,-3,-2,1,4,-4,-5
1558441573208203,2,6,7,10,-6,-7,1,2
1558441573223137,-3,-5,8,0,1,-4,-11,-7
1558441573223137,2,-1,-18,-15,-7,-3,1,-1
1558441573224132,-17,-14,-3,0,-1,-4,6,1
1558441573224132,7,8,18,10,9,1,-3,-2
1558441573247071,-7,-9,-14,-11,-11,-2,-11,-3
1558441573247071,-4,-6,6,6,0,3,-11,-8
1558441573248069,6,1,-11,-7,-3,-2,5,-1
1558441573248069,-5,-5,-6,-1,5,3,1,-2
1558441573261036,4,1,10,4,-2,-8,3,3
1558441573261036,1,3,4,-1,6,6,-1,-1
1558441573269011,0,7,16,9,-3,2,-4,-4
1558441573269011,-4,-4,-11,-4,-7,-6,-5,-1
1558441573283972,-1,-2,-6,-6,-5,-6,-3,-4
1558441573283972,0,1,2,3,2,-6,-1,2
1558441573283972,8,8,8,2,2,-1,7,4
1558441573283972,1,-2,5,1,-2,0,-10,-4
1558441573307908,-1,-1,-16,-7,5,10,4,4
1558441573307908,8,10,29,14,4,-2,1,0
1558441573307908,-9,-10,-30,-21,-8,-3,-5,-5
1558441573307908,-5,-6,-12,-5,-3,1,-9,-8
1558441573320878,0,5,9,7,1,2,4,1
1558441573320878,0,-7,1,1,-2,-3,7,-1
1558441573328852,8,8,24,14,14,9,4,0
1558441573328852,-1,-3,-15,-8,2,7,8,5
1558441573351798,1,-2,-5,-1,-9,-13,-1,-1
1558441573351798,-1,3,11,1,-3,1,-4,-1
1558441573352787,-3,-3,-22,-10,-10,-6,-13,-1
1558441573352787,3,1,2,3,-1,-8,3,3
1558441573365752,4,5,18,1,8,16,16,2
1558441573365752,-12,-13,-25,-10,-3,-2,-9,-5
1558441573366750,4,6,14,8,1,1,3,-1
1558441573366750,4,5,7,-3,-5,-10,-12,1
1558441573380713,-5,-6,-7,5,7,4,-4,-4
1558441573380713,3,6,1,-7,-3,6,-3,1
1558441573387694,-1,-8,13,12,8,3,-5,3
1558441573387694,-4,-5,-12,-13,2,7,21,-3
1558441573411633,2,3,-5,1,-2,-6,-7,-1
1558441573411633,-2,4,13,9,6,8,12,4
1558441573412638,-5,-4,2,4,5,-1,-19,-4
1558441573412638,2,2,1,2,-7,-3,3,-1
1558441573417618,3,0,8,1,-1,-4,1,2
1558441573417618,-2,-2,-10,-7,-10,-11,0,-3
1558441573425595,1,5,0,1,1,3,6,3
1558441573425595,-1,2,0,3,4,5,-3,2
1558441573440554,-5,-6,-9,-4,3,9,11,1
1558441573440554,-6,-12,-6,1,-2,-5,4,-1
1558441573447535,-3,-2,-5,-4,-2,-8,10,1
1558441573447535,-1,0,2,-2,-8,-3,-11,-8
1558441573473465,-7,-4,-14,-1,1,-1,-11,-6
1558441573473465,4,1,2,1,-2,-3,7,0
1558441573473465,-2,1,-4,-10,-13,-4,-7,-4
1558441573473465,-6,-4,-16,-7,-6,1,1,-2
1558441573486431,-2,-2,-2,-4,-8,-10,-17,-3
1558441573486431,-3,-5,-14,-10,-7,-6,-6,-5
1558441573486431,2,6,3,2,5,0,-3,-4
1558441573486431,-1,-4,7,4,-2,-8,-3,0
1558441573500395,-7,-2,-2,-3,-5,-5,-3,-3
1558441573500395,-3,-5,-7,-5,-4,1,-9,-6
1558441573533305,-4,-1,-4,-5,-7,-8,-1,0
1558441573533305,2,-2,8,4,5,5,-5,-4
1558441573534302,2,2,15,8,8,0,4,2
1558441573534302,-6,1,-3,-4,0,-1,-9,-3
1558441573535301,2,3,0,4,3,0,4,-1
1558441573535301,-8,-8,-22,-11,-7,-2,-4,-1
1558441573546273,2,-4,-18,-6,-6,-1,2,2
1558441573546273,4,4,11,4,0,-3,-6,2
1558441573547268,-10,-11,-5,-2,-1,-1,2,-3
1558441573547268,-1,-1,4,1,6,3,-3,-3
1558441573560232,5,6,5,1,2,1,-6,-2
1558441573560232,3,6,7,5,8,8,4,5
1558441573568212,0,-5,-1,-2,-1,-6,4,1
1558441573568212,7,11,14,7,4,-7,4,1
1558441573583171,-15,-7,-6,-8,-8,-6,0,-3
1558441573583171,-1,-11,-4,-2,-1,5,-1,-2
1558441573591149,2,-1,5,-5,-1,-6,-14,-2
1558441573591149,-3,-6,-26,-11,-5,1,2,0
1558441573606116,5,7,22,9,6,2,2,1
1558441573606116,-2,-5,-16,-12,-7,-12,-1,0
1558441573607109,0,1,-9,-5,-1,5,0,-2
1558441573607109,2,5,6,-1,-9,-8,-6,-2
1558441573620073,-3,-6,-1,-3,-1,2,8,0
1558441573620073,-2,0,2,2,-4,-2,-5,-1
1558441573628065,3,0,3,0,-3,-10,8,2
1558441573628065,1,0,4,5,0,1,-1,-2
1558441573643013,-6,0,-5,-6,-4,-4,6,0
1558441573643013,-3,-9,-3,2,8,13,7,2
1558441573650991,3,-1,-4,0,4,11,3,-3
1558441573650991,-5,-2,3,-2,-5,-7,-2,0
1558441573665950,2,4,-4,-1,0,2,-1,-2
1558441573665950,-5,-6,-3,0,-6,-11,-16,-6
1558441573666947,3,3,-4,-2,-6,-4,-3,1
1558441573666947,2,1,-1,-3,1,3,4,2
1558441573679917,3,1,3,2,3,-3,0,-2
1558441573679917,-7,-2,-1,-4,-12,-9,-5,-3
1558441573687891,-1,-3,-3,1,3,-1,-7,3
1558441573687891,0,3,13,5,3,4,3,1
1558441573703851,-3,-11,-38,-14,-5,-1,-5,-1
1558441573703851,3,8,3,2,2,1,2,0
1558441573710830,0,4,7,-1,-3,-3,-2,0
1558441573710830,-3,-1,15,8,6,8,5,-1
1558441573725789,1,-1,-10,-5,2,-7,2,1
1558441573725789,-4,-6,-4,0,1,-2,-3,-4
1558441573726787,1,-2,-5,-4,-5,4,1,-5
1558441573726787,3,3,2,2,-3,-8,-5,-1
1558441573741747,-5,-5,10,2,2,7,2,0
1558441573741747,-7,-12,-14,-10,-2,1,-2,-8
1558441573747732,-5,2,-1,0,-2,-4,-7,-2
1558441573747732,2,-9,-8,2,4,6,2,1
1558441573762693,4,4,14,7,1,-9,-7,-2
1558441573762693,3,10,8,6,6,7,4,6
1558441573770673,-3,-6,-18,-7,-5,-2,-3,-2
1558441573770673,-6,-4,-9,-6,-5,-8,-7,-1
1558441573786629,3,4,5,2,-7,-7,-1,2
1558441573786629,3,1,13,3,3,4,7,5
1558441573786629,-3,5,4,5,16,10,1,3
1558441573786629,0,-1,7,5,3,1,4,2
1558441573800590,-6,-9,-26,-18,-11,-8,-11,-4
1558441573800590,-1,-1,-6,-2,-1,-2,-12,-4
1558441573807578,4,-1,4,-1,2,7,8,2
1558441573807578,-10,-4,-3,0,7,6,3,-1
1558441573822531,7,12,29,11,9,3,1,-2
1558441573822531,-2,-5,-10,-7,-12,-9,-4,-2
1558441573831507,-8,-11,-2,-6,-12,-13,-7,-7
1558441573831507,0,-2,0,0,-1,-2,-5,-1
1558441573846467,-6,-8,-18,-10,-4,4,-19,-5
1558441573846467,5,10,1,5,6,3,25,5
1558441573846467,0,-2,5,-1,-3,-1,-3,-1
1558441573846467,-8,-9,-8,-7,-7,-12,-2,-3
1558441573860437,0,1,6,3,0,8,6,3
1558441573860437,1,5,8,2,3,2,0,-1
1558441573868409,-2,3,4,1,0,1,1,-5
1558441573868409,1,3,4,4,0,1,-2,-3
1558441573883369,-5,-10,-12,-4,-4,-6,-6,-6
1558441573883369,-3,-2,6,-2,-4,0,-3,0
1558441573891348,2,3,-6,-3,-4,-2,-2,0
1558441573891348,-5,-7,-27,-15,-13,-7,-7,-4
1558441573906313,-1,-1,3,1,8,8,7,1
1558441573906313,9,13,10,5,5,3,4,3
1558441573907304,-9,-9,-3,-1,-6,-7,-11,-2
1558441573907304,2,2,8,5,10,8,15,8
1558441573920276,1,4,15,10,0,-6,1,1
1558441573920276,-3,-11,-18,-13,-7,-13,-3,-3
1558441573928255,3,7,1,-1,-1,4,-2,1
1558441573928255,0,-3,-3,-4,-2,-2,-1,1
