timestamp,emg1,emg2,emg3,emg4,emg5,emg6,emg7,emg8
1558441697610399,1,2,1,0,3,-10,2,3
1558441697610399,1,0,0,3,13,9,7,3
1558441697611396,0,0,-3,-2,-3,2,-3,-3
1558441697611396,0,-2,0,-3,-9,-7,-9,-2
1558441697616384,-1,-3,-2,-1,-4,3,-6,-3
1558441697616384,1,2,2,1,0,-13,-5,-2
1558441697619375,0,-4,-8,-5,0,2,3,0
1558441697619375,-3,-3,-1,-4,3,8,1,-1
1558441697619375,2,4,0,1,-8,-1,-3,-3
1558441697619375,-13,-9,-1,-3,-11,-18,-8,-1
1558441697621370,1,0,-3,-3,2,4,1,-2
1558441697621370,3,4,4,3,-1,6,13,3
1558441697637327,2,2,7,3,13,3,9,2
1558441697637327,1,-1,-3,-1,2,2,-2,0
1558441697645306,-3,0,4,3,2,-10,-1,5
1558441697645306,-3,-6,-13,-8,-11,-6,-2,-5
1558441697651290,-1,-1,-2,-5,-10,-5,0,-2
1558441697651290,4,0,0,-2,0,2,-2,-1
1558441697676222,1,3,7,1,1,1,4,0
1558441697676222,-1,0,4,6,2,-3,-4,-2
1558441697677220,-1,-3,-1,-2,9,17,2,1
1558441697677220,-1,-2,1,-3,-10,-18,-3,-4
1558441697689189,-1,0,-11,-2,1,10,-9,-5
1558441697689189,1,3,7,3,6,7,11,5
1558441697698164,0,-6,-13,-5,-10,-11,-4,-3
1558441697698164,-7,-6,1,-1,3,-7,-1,2
1558441697736064,-1,-1,-5,-4,-3,7,-9,-4
1558441697736064,3,1,1,1,8,6,5,2
1558441697737059,-2,2,2,1,-5,-6,-3,-3
1558441697737059,-1,0,3,-1,4,5,-6,-5
1558441697738058,-3,-1,-3,0,-2,3,7,2
1558441697738058,-2,-4,0,-1,-3,-4,-5,-3
1558441697741049,-2,-3,-4,0,4,8,-1,-1
1558441697741049,-3,-3,1,-4,-5,-11,-2,1
1558441697749029,0,2,7,3,1,-1,-1,-3
1558441697749029,1,-1,-8,0,0,3,-4,1
1558441697758004,0,-3,-6,-7,-4,-21,7,2
1558441697758004,-2,2,11,3,-2,5,-3,-4
1558441697763988,0,-3,-16,-6,1,-5,-2,-2
1558441697763988,4,2,9,2,-1,-13,6,1
1558441697779946,-8,-5,-4,-1,-4,5,-9,-5
1558441697779946,0,-3,-7,-3,1,3,3,0
1558441697785930,-4,1,4,0,2,0,5,-6
1558441697785930,1,1,2,0,0,1,-1,1
1558441697802883,2,0,-2,-3,-2,6,0,-3
1558441697802883,3,4,10,5,-2,-8,6,1
1558441697808868,-1,-2,0,0,-4,-11,-7,0
1558441697808868,-5,-5,-13,-8,-8,-1,-4,-1
1558441697833801,0,2,7,1,2,3,9,1
1558441697833801,1,2,-1,1,9,17,4,1
1558441697833801,0,-1,0,1,1,-3,6,1
1558441697833801,-1,-2,2,-2,-6,-7,-8,-5
1558441697839785,1,-1,-17,-7,-5,6,-11,-3
1558441697839785,-3,-5,-1,0,-7,-9,-6,0
1558441697845769,4,2,0,-2,4,-8,3,4
1558441697845769,-3,-1,3,1,2,3,4,0
1558441697861726,-1,3,2,-1,-1,-6,-2,-2
1558441697861726,3,2,-1,2,3,5,-1,1
1558441697868708,-2,-5,-1,-2,-1,6,4,1
1558441697868708,-5,-6,-9,-4,-8,-9,-7,-6
1558441697885662,3,2,7,2,-2,-4,3,3
1558441697885662,-3,-3,-4,-8,-8,-12,-12,-3
1558441697886660,-5,-2,-1,0,-7,2,0,0
1558441697886660,-1,0,2,-2,-2,2,-4,-4
1558441697899625,2,2,14,8,9,7,12,6
1558441697899625,-6,-7,-22,-9,-8,-8,-13,-8
1558441697906606,0,-2,-4,-3,2,-2,0,-1
1558441697906606,1,-2,2,3,1,7,6,0
1558441697929545,-1,0,1,-2,-4,-8,-5,-3
1558441697929545,-1,-1,-1,-4,-6,0,1,1
1558441697930543,0,1,4,1,2,9,-7,-2
1558441697930543,0,3,5,2,2,-7,2,0
1558441697937524,0,-2,-6,-4,3,2,-8,1
1558441697937524,2,1,12,5,7,1,19,4
1558441697943508,-2,-4,-4,0,-3,-2,-9,-4
1558441697943508,-2,-3,-5,-7,-4,1,-3,-3
1558441697960462,-1,-3,-5,-3,-4,2,-5,-3
1558441697960462,0,-1,-9,-6,-6,-8,-7,2
1558441697966447,0,-2,7,3,-1,1,2,-2
1558441697966447,1,4,7,6,13,5,11,7
1558441697998361,-1,-4,-3,-2,-6,-5,2,1
1558441697998361,-5,-4,-8,-2,-1,-1,-4,-7
1558441697999358,1,1,5,0,3,4,0,-1
1558441697999358,1,1,-5,-3,-5,1,-9,-1
1558441698000355,-2,-4,-5,-2,0,-16,0,-1
1558441698000355,-8,-5,3,4,2,15,8,2
1558441698003347,0,2,3,1,-5,-13,-2,2
1558441698003347,-3,-5,-4,-4,0,13,1,-3
1558441698020302,-2,-1,-3,-3,-10,-12,-2,-1
1558441698020302,5,4,-5,-2,-3,-17,-4,1
1558441698026285,-2,1,1,0,4,9,4,2
1558441698026285,0,0,1,1,0,0,1,1
1558441698041246,2,1,7,3,-2,1,-1,1
1558441698041246,-1,-6,-7,-7,-12,-4,-12,0
1558441698048227,2,1,1,4,17,23,14,3
1558441698048227,0,2,-1,-3,-4,-10,2,2
1558441698057204,-2,0,-5,-3,-2,6,-16,-7
1558441698057204,4,1,6,7,13,8,7,7
1558441698064184,1,-2,10,1,-7,-22,-6,-1
1558441698064184,-3,-6,-19,-9,-6,-2,-8,-2
1558441698080141,-3,-1,0,1,4,10,2,1
1558441698080141,1,1,3,2,-10,-1,-3,-4
1558441698086125,-2,-2,-1,-3,-6,-16,-11,-3
1558441698086125,0,0,3,1,5,-9,-1,-4
1558441698103081,-1,0,-3,-3,1,2,0,-2
1558441698103081,0,-1,-4,-1,9,13,7,-1
1558441698109065,0,-2,-7,-2,-2,8,6,-1
1558441698109065,2,0,-2,0,-7,-3,-1,-5
1558441698118041,-7,-4,8,5,8,-3,4,1
1558441698118041,0,1,1,0,2,-2,1,-1
1558441698131006,0,-1,-3,0,-11,-4,-9,-3
1558441698131006,-2,-3,-2,-4,6,9,1,1
1558441698139982,1,1,-8,-4,2,8,3,0
1558441698139982,-6,-6,-7,-2,-5,-3,0,-5
1558441698145967,-3,0,3,-2,-8,-9,-12,-7
1558441698145967,-2,-2,-10,-2,-2,-6,-4,-3
1558441698160927,1,1,4,1,0,-14,4,5
1558441698160927,0,-3,-3,-2,3,-1,-4,-4
1558441698177881,-1,-2,-5,-5,-12,-8,-11,-6
1558441698177881,1,2,12,5,8,13,10,2
1558441698178879,0,-3,-3,-2,0,2,-3,-4
1558441698178879,-1,2,0,-2,-6,-9,-7,-1
1558441698183865,1,0,0,2,14,6,10,4
1558441698183865,-3,-1,-6,-7,-16,-10,-9,-4
1558441698199822,1,1,6,3,0,1,-13,-4
1558441698199822,-2,-3,1,-6,4,9,1,-1
1558441698205806,0,-2,-21,-8,-8,-2,0,0
1558441698205806,4,0,0,3,1,-1,3,3
1558441698221767,-6,-4,-3,3,3,7,6,-1
1558441698221767,1,4,9,5,6,-11,-7,-3
1558441698228746,-2,0,2,-4,-4,-5,0,0
1558441698228746,1,0,0,-3,-7,-13,-10,-5
1558441698237721,1,1,2,2,2,6,-1,0
1558441698237721,2,-1,0,0,2,5,8,4
1558441698251684,-3,-2,-3,-1,-1,1,-2,-3
1558441698251684,-3,0,8,3,6,4,7,4
1558441698260659,0,-1,1,-4,-7,-13,-4,-2
1558441698260659,-1,-3,-11,-6,-6,-5,0,-1
1558441698266644,0,-1,2,-4,-5,0,-11,-3
1558441698266644,-4,-3,-4,-3,2,-1,-11,-2
1558441698281604,-1,-2,-7,-1,0,4,5,1
1558441698281604,2,4,2,-1,-3,-15,-2,1
1558441698288585,-3,-2,-1,2,-8,-11,-5,-1
1558441698288585,-3,-2,2,-2,1,7,-9,-3
1558441698297561,1,0,1,-1,-1,-3,4,0
1558441698297561,2,1,3,2,5,11,3,0
1558441698311523,-1,-6,-17,-6,-1,-8,2,0
1558441698311523,-5,-7,-9,-4,-6,3,2,-4
1558441698320500,-2,-1,-2,-2,-3,2,-5,-4
1558441698320500,4,2,4,6,2,-8,5,2
1558441698326483,2,5,7,2,8,3,4,2
1558441698326483,-10,-9,0,-1,-6,-7,-3,-4
1558441698341444,0,1,-1,-4,-5,-7,-1,-2
1558441698341444,-4,-4,-8,-1,-4,10,1,-3
1558441698348426,4,1,4,2,2,10,0,1
1558441698348426,-1,-1,-3,-2,6,-7,-8,0
1558441698357401,-3,-4,-11,-8,-5,3,0,-2
1558441698357401,-2,-1,1,-2,3,-2,-4,0
1558441698371364,-1,1,8,3,2,-8,6,0
1558441698371364,2,1,2,-2,-6,-3,2,-3
1558441698388318,1,0,1,2,6,7,-2,-2
1558441698388318,-5,-3,-1,-5,-8,1,-6,-2
1558441698389317,-4,-4,-6,-3,-7,-2,-3,-3
1558441698389317,3,3,9,4,10,5,5,2
1558441698402282,1,-2,1,0,-6,-15,-8,-1
1558441698402282,0,-3,-9,-8,-7,-5,-6,-5
1558441698408265,-5,-1,5,3,6,9,4,-1
1558441698408265,-1,2,1,-1,-3,4,2,-1
1558441698417241,-2,0,0,-1,0,-1,-3,-1
1558441698417241,-3,-1,-11,-4,1,-14,-2,0
1558441698440179,0,-3,-5,-5,-1,-3,2,-2
1558441698440179,4,7,-3,-1,-3,1,1,2
1558441698441192,-1,-2,9,3,1,-3,-1,0
1558441698441192,-3,-4,-12,-7,-11,-3,-12,-6
1558441698446163,0,-3,-1,1,-6,3,-1,-1
1558441698446163,3,3,-1,4,9,4,13,7
1558441698463119,1,3,1,-3,-6,-20,0,0
1558441698463119,2,2,5,1,-4,5,-7,-4
1558441698469103,-5,-4,-10,-7,3,-3,5,0
1558441698469103,-2,-4,2,2,-2,3,-1,-2
1558441698478078,0,-2,6,5,2,0,9,1
1558441698478078,-4,-5,-7,1,13,9,5,2
1558441698491044,2,-1,3,-2,-6,-1,-17,-2
1558441698491044,2,1,-1,1,-3,-1,-4,-4
1558441698500020,-6,-8,-9,-5,4,-16,1,2
1558441698500020,-2,-3,1,-2,-11,-5,2,-1
1558441698506003,-1,0,-1,3,1,5,1,1
1558441698506003,2,-1,1,1,1,-1,2,1
1558441698522958,-3,-1,-4,-2,-7,4,-9,-5
1558441698522958,-1,3,8,2,-1,5,-6,-3
1558441698528943,3,2,3,2,16,-2,22,6
1558441698528943,-3,-1,-7,-4,-9,-22,1,0
1558441698537920,-1,-1,-5,-6,-6,3,-1,-4
1558441698537920,-1,-1,3,1,-4,-2,-5,-3
1558441698550883,-2,-3,-3,-1,1,15,-7,-4
1558441698550883,2,6,8,3,8,-2,3,2
1558441698559859,-2,-4,2,-3,0,0,2,1
1558441698559859,-4,-5,-19,-6,4,10,6,-1
1558441698565844,-2,-1,-2,-6,-9,-13,-17,-4
1558441698565844,-2,-3,-4,-2,-8,-9,-4,-4
1558441698582797,1,3,4,2,6,8,-1,1
1558441698582797,4,3,7,3,-2,-1,-1,2
1558441698588782,-2,-2,-3,-4,3,-1,3,-2
1558441698588782,0,-1,3,3,-3,1,-9,-6
1558441698597758,4,2,-2,-1,-1,5,-3,-1
1558441698597758,-1,-3,7,4,6,0,11,2
1558441698611721,-2,-1,-4,-2,3,10,1,0
1558441698611721,0,-1,-5,-6,-4,-2,5,3
1558441698619699,0,-2,5,3,-1,-2,-5,-1
1558441698619699,0,-3,-9,-7,-7,-15,-4,-3
1558441698626681,-1,0,1,3,5,3,-2,0
1558441698626681,-4,-2,0,-2,-3,-5,-13,-4
1558441698642637,-1,1,2,1,1,9,4,-3
1558441698642637,1,0,-4,-4,-1,-7,-6,1
1558441698648622,0,-3,-3,-3,-13,-8,-1,1
1558441698648622,-6,-5,-4,-3,-1,9,-3,-3
1558441698673555,-2,-3,-3,-1,0,8,0,-3
1558441698673555,0,0,7,3,13,7,1,2
1558441698673555,-1,0,-2,-3,-16,-17,-8,-5
1558441698673555,-2,-4,-4,-3,2,-1,-8,-5
1558441698680537,-3,2,2,3,1,5,4,3
1558441698680537,2,4,8,2,2,0,6,3
1558441698686520,-3,-5,-11,-6,-1,0,1,-1
1558441698686520,5,3,-1,-5,-3,-12,-6,-5
1558441698702477,-10,-6,-4,-3,2,9,4,-1
1558441698702477,-5,-3,1,1,1,-2,-2,-2
1558441698708461,-1,-4,-4,-3,-8,1,-3,-3
1558441698708461,1,-1,2,3,-1,-6,0,0
1558441698723421,1,0,-13,-9,-3,-5,5,0
1558441698723421,2,1,8,2,0,0,3,0
1558441698731399,-2,0,4,3,4,-1,-7,-1
1558441698731399,-3,-6,-2,-1,-5,1,5,2
1558441698747357,3,1,-2,4,2,1,1,2
1558441698747357,-8,-5,-10,-8,-21,-23,-16,-6
1558441698747357,2,4,7,8,17,27,21,3
1558441698747357,-1,0,-4,-1,4,-8,4,3
1558441698762317,-1,-1,7,0,4,-8,-10,-4
1558441698762317,0,0,-10,-8,-12,-7,-12,-6
1558441698768301,1,-2,5,4,2,1,7,6
1558441698768301,-3,-1,-4,-2,-8,0,2,2
1558441698783260,1,-1,0,-3,-1,1,-2,-2
1558441698783260,-3,0,-3,2,-1,3,-6,-5
1558441698791240,3,4,4,0,6,0,5,1
1558441698791240,-3,-3,-1,0,-2,2,-2,-2
1558441698807199,1,-1,4,0,-6,-13,-5,-1
1558441698807199,3,-1,-10,-2,6,5,9,0
1558441698807199,-9,-5,-1,1,-4,-9,-7,-4
1558441698807199,1,-1,0,-2,2,3,1,-1
1558441698822159,0,1,4,3,1,2,-7,-1
1558441698822159,-2,-5,2,2,9,13,12,2
1558441698829139,-1,-2,-8,-5,-5,-9,-3,-3
1558441698829139,-2,-2,-2,-1,-1,-2,-3,1
1558441698844099,-3,-4,-9,-8,-4,-8,-13,-4
1558441698844099,1,1,9,3,5,9,10,3
1558441698851080,2,2,2,0,-9,-15,-3,1
1558441698851080,-2,-2,0,3,3,9,1,-4
1558441698867037,-1,-1,-2,2,3,3,2,-1
1558441698867037,-3,-1,-7,-7,-13,-17,-5,-2
1558441698868034,1,0,-3,-3,0,8,-2,-3
1558441698868034,-1,1,-1,0,0,-23,-6,1
1558441698882994,0,-1,-2,2,-1,-1,4,-1
1558441698882994,-4,0,-4,-4,-2,-3,-21,-8
1558441698888980,1,0,2,-1,-9,-1,-4,-2
1558441698888980,-1,-1,1,-1,8,14,4,0
1558441698903938,-2,-3,-4,-4,-5,-6,-1,-1
1558441698903938,3,0,6,1,8,4,-4,0
1558441698910919,3,3,2,2,-2,1,2,-2
1558441698910919,-7,-8,-5,-3,-1,11,-2,-2
1558441698926877,-2,-3,-9,-3,-10,-6,-4,-4
1558441698926877,2,0,5,1,0,-9,3,3
1558441698927877,-4,-5,-3,-3,0,-9,-7,-2
1558441698927877,3,3,1,0,0,3,4,1
1558441698949881,-2,-1,2,-1,5,2,3,0
1558441698949881,0,1,11,3,-1,-4,5,2
1558441698949881,-2,-4,-16,-7,7,10,-1,0
1558441698949881,-2,0,5,-1,-7,-9,0,-6
1558441698963812,-3,-3,-9,-5,-6,4,1,0
1558441698963812,1,-2,-2,-3,-7,-5,-4,-2
1558441698970760,2,-1,-1,1,2,3,-2,0
1558441698970760,0,-3,2,-1,-3,3,-7,-2
1558441698986745,1,1,4,3,4,11,3,1
1558441698986745,1,2,-5,0,1,-7,3,0
1558441698987716,-3,-2,0,-4,-5,-6,-6,-3
1558441698987716,1,-1,-4,-1,-5,0,-1,0
1558441699002674,-1,0,3,-2,-1,-7,-8,-2
1558441699002674,-1,-2,-1,0,-2,-2,-5,-1
1558441699008658,5,3,0,2,0,-13,0,0
1558441699008658,-2,0,4,2,11,20,13,4
1558441699023680,0,1,10,-1,-2,-1,1,-1
1558441699023680,-6,-6,-19,-7,-7,-3,-7,-3
1558441699031603,-3,-1,-10,-5,-4,6,3,-2
1558441699031603,1,3,-2,-3,-7,-2,1,-3
1558441699054552,-2,-5,-1,1,2,-3,-4,-6
1558441699054552,0,1,4,2,9,19,6,1
1558441699062576,0,-2,2,-1,-2,-10,-10,-1
1558441699062576,-1,-3,-3,-2,-2,-3,1,-2
1558441699064530,4,2,4,1,-3,-12,-4,0
1558441699064530,2,0,-3,1,12,18,10,3
1558441699068499,-2,-1,-6,-4,-4,-12,-3,1
1558441699068499,-1,-1,-1,1,5,-7,-2,0
1558441699083535,-2,-3,-6,-4,-9,-5,-6,-2
1558441699083535,-3,-3,3,-1,-11,-6,-9,-4
1558441699091566,3,0,8,5,8,9,5,3
1558441699091566,2,2,4,0,-10,-17,-9,-3
1558441699107395,-3,-3,-14,-4,3,2,8,0
1558441699107395,0,-1,-8,-5,1,-4,1,-4
1558441699107395,0,0,0,0,-3,9,1,-2
1558441699107395,-7,-8,-3,-4,-8,-8,-10,-3
1558441699122355,0,-1,-2,-1,2,-3,-6,-2
1558441699122355,-1,0,2,1,-2,3,3,0
1558441699128345,-1,1,2,1,9,6,4,2
1558441699128345,0,-1,0,2,2,10,5,0
1558441699144345,0,1,4,-1,1,2,-1,-1
1558441699144345,-1,-4,-6,-5,-2,-14,-2,1
1558441699151380,-3,1,5,-1,-13,-12,-4,-5
1558441699151380,3,1,0,1,13,14,5,6
1558441699166458,-2,-1,-6,-5,-9,-1,1,0
1558441699166458,2,1,2,3,7,5,4,0
1558441699174395,-5,-4,-7,-5,-8,-4,-9,-4
1558441699174395,-1,0,-2,-2,-1,1,-3,1
1558441699183202,-1,0,2,1,-1,-7,4,3
1558441699183202,-3,-4,-2,0,-1,4,-1,-1
1558441699189180,1,-1,4,3,6,-3,5,3
1558441699189180,-1,-3,-10,-9,-8,-8,-13,-4
1558441699204147,0,0,1,1,3,9,2,0
1558441699204147,-3,-3,-2,-3,-7,-1,-3,-5
1558441699211334,-3,-3,1,2,0,5,1,-1
1558441699211334,-2,1,-2,-2,-6,-11,-4,-2
1558441699226139,0,2,4,5,5,-11,5,3
1558441699226139,2,2,-2,-3,4,-3,4,1
1558441699234282,-4,-6,-6,-4,-6,1,-9,-3
1558441699234282,-2,-2,2,-1,-8,-1,-2,-2
1558441699243035,0,-2,-13,-6,-1,7,5,-1
1558441699243035,1,3,7,2,-4,-10,-7,-2
1558441699249213,1,-1,0,2,10,5,7,3
1558441699249213,-1,0,0,0,-2,-8,0,1
1558441699263983,-2,1,4,1,-6,-5,-10,-3
1558441699263983,-2,-6,-5,-5,1,3,6,4
1558441699270965,-1,-2,-5,-1,-2,-7,5,-1
1558441699270965,0,-1,-1,0,1,7,-5,-2
1558441699285918,-1,-3,-4,-5,-3,5,4,-1
1558441699285918,0,0,2,2,-5,-7,0,0
1558441699293896,-1,0,0,-3,-4,-9,-3,-3
1558441699293896,2,2,5,2,9,12,12,3
1558441699302872,-3,-2,-1,1,-3,-1,-2,0
1558441699302872,-2,-1,-7,-6,-5,0,-10,-5
1558441699308885,4,3,2,3,-2,12,2,-1
1558441699308885,-13,-10,-8,-2,-2,-4,-2,-4
1558441699323815,-2,-1,0,-1,8,5,1,0
1558441699323815,-2,1,5,5,3,-2,5,-1
1558441699331042,-1,1,-2,-1,-4,-8,-7,-2
1558441699331042,6,4,4,-1,-1,7,-1,-2
1558441699362745,-3,-3,2,0,-1,6,-2,-2
1558441699362745,-3,-4,-16,-8,-3,-8,2,0
1558441699363715,-2,-1,-4,-5,-2,0,-4,-2
1558441699363715,-2,-1,-3,-1,-1,4,3,-2
1558441699369692,1,0,4,0,1,-10,-3,0
1558441699369692,3,2,8,0,-5,3,-5,0
1558441699369692,-3,-1,1,0,4,11,10,2
1558441699369692,-1,2,4,0,0,-1,0,0
1558441699383899,-3,0,-6,-3,-4,1,-6,-2
1558441699383899,-1,1,-3,-1,0,-12,1,2
1558441699391884,-1,-3,-1,2,6,4,-3,-1
1558441699391884,0,0,0,-1,-5,-11,-2,0
1558441699406947,-4,-2,-6,-5,-5,-4,-3,-3
1558441699406947,1,3,2,5,14,23,9,3
1558441699413923,0,2,4,-3,-3,-12,-6,-1
1558441699413923,5,1,-5,-1,1,-8,0,-2
1558441699429831,-10,-5,0,-3,-11,-13,-11,-5
1558441699429831,-3,-6,-10,-1,6,21,11,0
1558441699430760,0,2,2,1,4,-1,1,0
1558441699430760,1,-1,-3,-1,-2,-6,1,2
1558441699443499,1,-2,-4,-2,-1,1,2,-2
1558441699443499,0,0,4,1,-5,-6,-8,-4
1558441699451682,-1,0,1,-1,4,4,-2,2
1558441699451682,-2,-1,-5,-2,-4,-9,6,2
1558441699466466,3,-1,1,2,1,3,-2,-1
1558441699466466,-4,-5,-1,-4,-2,-7,-8,-4
1558441699473415,-2,-4,-3,-1,-6,0,-6,-6
1558441699473415,-2,-3,-6,-5,1,-7,-6,-2
1558441699489373,2,0,-1,1,0,2,3,2
1558441699489373,-5,1,4,0,-2,-3,-6,-3
1558441699490371,-1,0,9,0,-8,-4,-3,-2
1558441699490371,-1,-1,-7,-3,-1,-7,-1,-1
1558441699503335,-2,-3,-6,-3,2,2,-1,-2
1558441699503335,-1,2,3,-2,-7,-4,0,-2
1558441699511314,-4,-4,-4,-3,1,1,-5,-2
1558441699511314,2,3,10,7,10,14,3,-1
1558441699526647,2,1,-1,-1,0,-11,-6,-1
1558441699526647,4,1,-1,-2,-1,-1,2,0
1558441699533632,-8,-7,-2,0,-1,-3,0,-5
1558441699533632,-2,-2,-4,-3,-4,3,-5,-2
1558441699550271,4,4,2,1,3,8,4,3
1558441699550271,-7,-7,1,-1,-4,-1,-5,-6
1558441699550271,-1,-1,-11,-2,1,-10,-6,-2
1558441699550271,1,2,4,3,8,0,2,2
1558441699565170,-2,0,-4,-4,-5,5,2,-3
1558441699565170,-3,-4,-2,-4,-12,0,-6,-2
1558441699571155,-2,-2,-9,-3,1,5,6,-1
1558441699571155,-3,-1,1,1,-7,-7,-6,-3
1558441699586358,2,1,4,0,2,-6,-2,-2
1558441699586358,1,1,5,4,7,4,5,5
1558441699594096,2,0,0,-1,-5,-8,-4,-1
1558441699594096,-2,-3,-6,-7,-3,-1,-6,-3
1558441699609054,-1,1,1,5,1,9,11,3
1558441699609054,-4,-3,-4,-3,-2,-17,2,-2
1558441699610058,-2,-3,-3,-2,-9,-3,-2,-2
1558441699610058,-1,0,5,2,-1,3,-2,-1
1558441699624041,0,0,-1,1,7,0,-1,4
1558441699624041,-1,0,-3,-2,-1,-7,-4,-1
1558441699630998,1,-1,2,0,1,1,6,3
1558441699630998,-2,-2,-4,-1,-6,-5,-3,-2
1558441699645982,0,0,1,0,4,2,7,2
1558441699645982,0,-2,1,-1,-2,-7,-1,0
1558441699653934,5,5,1,-2,1,4,-2,0
1558441699653934,5,-1,4,5,4,10,5,-1
1558441699668893,-12,-12,-3,-7,-5,-9,-5,-4
1558441699668893,-3,-6,-20,-6,-2,4,-1,1
1558441699669890,-4,-2,-2,-3,-8,-15,1,-3
1558441699669890,-2,-1,-8,-4,-2,7,-6,-3
1558441699683851,4,3,5,2,-2,3,2,1
1558441699683851,2,-1,6,3,-5,-7,-11,-5
1558441699690836,0,0,-1,-3,-1,-3,1,2
1558441699690836,-1,-3,-6,-4,-9,-10,-9,-1
1558441699705800,-1,2,7,2,-1,-1,-3,-4
1558441699705800,-5,-1,-12,-2,6,12,7,1
1558441699714075,4,4,4,6,5,5,0,1
1558441699714075,-3,-4,3,-2,-1,-1,1,-1
1558441699729729,1,-3,-9,-6,-9,-6,-11,-3
1558441699729729,-2,-3,-1,-6,-9,-4,-6,-6
1558441699729729,-4,-4,0,-1,2,5,-4,-3
1558441699729729,3,3,4,4,4,-11,6,4
1558441699744053,1,4,0,0,7,6,1,-3
1558441699744053,-4,0,2,1,1,8,0,0
1558441699752055,-3,-5,-10,-5,-8,-9,-4,-4
1558441699752055,-2,1,-4,-3,-4,3,-2,-3
1558441699766632,3,2,2,2,9,9,7,3
1558441699766632,-1,0,1,0,1,-5,0,1
1558441699782834,-1,0,2,-3,-5,-8,-4,1
1558441699782834,-2,-2,5,-1,-4,-4,-3,0
1558441699789956,-3,-3,-6,-4,-8,-4,-6,-2
1558441699789956,3,3,8,2,3,3,6,1
1558441699790569,-3,-4,-7,-2,-3,3,-2,-3
1558441699790569,0,0,1,-2,-3,-2,-2,-3
1558441699803916,-1,-1,-1,0,2,3,-4,0
1558441699803916,2,-1,4,4,8,12,9,4
1558441699811605,2,1,3,1,0,-5,0,0
1558441699811605,-3,-3,-2,-2,1,3,-4,-6
1558441699826808,-3,-4,-8,-4,-9,-12,0,-3
1558441699826808,1,0,-2,0,2,2,-3,-1
1558441699834450,-1,1,-1,-1,4,7,1,0
1558441699834450,-3,-2,0,-3,1,-1,8,0
1558441699857524,1,1,-1,0,-1,0,-4,-2
1558441699857524,1,1,6,0,-2,-4,-5,-1
1558441699858520,2,2,6,5,5,-1,0,2
1558441699858520,-9,-6,-17,-3,9,21,9,0
1558441699863510,-1,-3,3,0,-10,-12,0,-2
1558441699863510,1,2,0,0,3,0,3,1
1558441699871485,-5,-6,-8,-5,-9,-10,-9,-5
1558441699871485,-1,1,5,0,-7,-10,-4,-3
1558441699886785,-2,-4,-6,-1,0,3,6,1
1558441699886785,-2,-1,-1,-1,1,1,0,0
1558441699894564,2,4,3,1,-2,2,-1,-2
1558441699894564,-1,-2,0,2,9,-1,-3,3
1558441699909690,-5,-3,-6,-3,-1,2,-3,-1
1558441699909690,-1,-2,0,-4,-15,-12,-15,-5
1558441699910380,-2,-2,1,-1,2,6,5,-1
1558441699910380,1,1,-7,-1,1,3,9,3
1558441699923376,-1,-1,4,1,-2,-17,-3,0
1558441699923376,1,0,-2,-4,3,-2,-2,-2
1558441699931575,1,0,-2,-1,5,12,-6,-1
1558441699931575,-1,-2,-2,-3,-9,-13,-14,-5
1558441699946592,1,2,1,0,-1,1,4,2
1558441699946592,-1,1,1,2,12,5,7,3
1558441699953584,1,-1,0,-2,-2,-3,0,-1
1558441699953584,0,-2,-4,-2,-6,0,-8,-1
1558441699969841,-11,-8,-1,-2,-1,-5,-8,-3
1558441699969841,3,2,10,5,1,2,0,1
1558441699970518,-3,-3,-2,-1,3,-2,5,2
1558441699970518,1,-2,-6,-4,-3,2,-1,0
1558441699983801,0,-3,-3,-4,1,3,-2,-3
1558441699983801,-1,-2,-2,-1,0,1,3,2
1558441699993453,2,0,4,3,4,-1,2,2
1558441699993453,2,7,9,3,5,1,8,4
1558441700006739,-1,-2,-1,-1,-1,-8,-8,-5
1558441700006739,-6,-5,-15,-7,-7,1,-4,-4
1558441700014562,-2,-4,-5,-4,-7,-5,-2,-1
1558441700014562,-2,1,6,1,-2,-3,-4,-5
1558441700029680,2,2,-8,-4,1,4,4,1
1558441700029680,1,2,4,0,-5,-8,-4,-1
1558441700030358,-3,-1,-5,-3,-6,-4,3,-3
1558441700030358,-3,-3,-4,-4,-2,4,-3,-2
1558441700043646,2,2,-2,-1,0,-4,7,2
1558441700043646,-3,-1,0,2,-1,2,2,-2
1558441700051626,-2,-1,-1,0,8,19,5,0
1558441700051626,-1,-2,4,2,2,-8,-2,1
1558441700066572,4,3,3,-1,-6,-6,1,1
1558441700066572,2,1,2,1,-5,-6,-5,-2
1558441700073241,-7,-3,-9,-4,-1,0,-7,-3
1558441700073241,1,-6,-5,-1,6,7,5,-1
1558441700088205,-4,0,2,5,4,7,5,0
1558441700088205,-1,-2,2,-5,-9,-8,-3,-3
1558441700097178,-1,0,3,1,-3,-2,-6,-4
1558441700097178,-4,-5,-13,-9,-10,-8,-6,-2
1558441700103189,1,1,2,1,1,0,11,0
1558441700103189,0,-1,0,0,1,-4,-2,-2
1558441700111143,-1,-5,-3,-1,-5,-7,-3,-2
1558441700111143,-4,-3,-4,-1,-9,-8,-7,-5
1558441700126141,1,0,1,1,11,25,3,2
1558441700126141,-3,2,4,2,4,0,0,-1
1558441700134432,0,-1,-6,-7,-16,-24,-8,-2
1558441700134432,5,5,2,5,23,10,10,5
1558441700149409,-3,-1,1,3,3,1,-8,-4
1558441700149409,0,-2,-2,0,5,2,5,1
1558441700157134,-2,-2,-2,3,3,-9,-5,1
1558441700157134,-3,1,-2,-3,-7,1,-2,-2
1558441700172092,-1,-2,0,-2,-8,-2,-4,-3
1558441700172092,-1,0,-8,-4,5,10,-2,0
1558441700173328,-2,-2,4,-1,-10,-7,-4,-4
1558441700173328,-4,1,0,-3,-4,-9,-8,-4
1558441700186620,-1,0,5,1,-1,-3,-1,-3
1558441700186620,-5,-7,-16,-11,-8,-6,-4,-4
1558441700194356,1,2,0,-1,7,9,5,4
1558441700194356,1,0,1,-3,-4,1,1,-2
1558441700209532,1,4,6,0,-5,-9,-12,-3
1558441700209532,-6,-5,-5,-2,-4,-4,2,0
1558441700216529,-1,-1,-2,0,1,4,5,0
1558441700216529,1,-2,-2,0,3,-4,-6,-1
1558441700233402,1,-1,0,-3,-6,-8,-7,0
1558441700233402,0,1,0,4,6,7,3,0
1558441700234170,-4,-3,-7,-6,-10,-3,-1,-3
1558441700234170,-1,-1,0,1,-6,-8,2,-2
1558441700246445,-1,-2,-3,-2,3,5,3,-1
1558441700246445,0,0,-1,-5,-10,-10,-10,-4
1558441700254115,-2,-5,-4,0,4,-3,3,-2
1558441700254115,0,1,3,0,-3,-6,3,2
1558441700269405,-4,0,-6,0,0,2,1,0
1558441700269405,-3,-2,-1,-1,-4,-2,-5,-1
1558441700284036,0,3,4,1,0,5,4,0
1558441700284036,-3,0,6,1,-8,0,2,0
1558441700292315,-1,-6,-17,-5,2,-4,-2,-2
1558441700292315,0,-2,-4,-3,-3,-6,-3,-2
1558441700293013,1,0,0,-1,2,0,2,1
1558441700293013,3,2,-1,-1,-5,-4,-4,0
1558441700307058,-15,-12,-3,-4,-7,2,-1,-4
1558441700307058,-1,-1,5,2,-2,2,-7,-3
1558441700314272,-2,-4,-5,-5,-5,-7,-11,-4
1558441700314272,0,1,-5,-1,2,5,2,1
1558441700330227,0,-1,1,-3,-6,-7,-4,-4
1558441700330227,-1,2,-3,-3,7,-4,4,2
1558441700337060,-1,1,7,3,5,-4,2,2
1558441700337060,2,-3,-6,-2,0,5,-4,0
1558441700352208,-1,1,-2,1,-1,3,4,1
1558441700352208,0,-2,2,1,-2,-5,1,-2
1558441700352901,-1,0,1,1,-6,-3,-5,-2
1558441700352901,-3,-1,-3,-1,-1,-4,4,0
1558441700366901,2,-1,-2,1,12,11,1,2
1558441700366901,-1,-2,1,-3,-3,-2,1,-1
1558441700373844,1,0,0,-1,-1,-5,-1,-2
1558441700373844,-6,-4,0,-4,-3,1,-6,-5
1558441700388487,-4,0,-1,0,-5,-7,-3,-4
1558441700388487,1,1,4,2,1,2,0,0
1558441700396779,0,-3,-6,-2,7,10,7,1
1558441700396779,0,-3,-5,-1,0,-8,-1,0
1558441700412710,-1,-2,-1,-3,-3,-3,-7,0
1558441700412710,-2,-1,-3,-1,-2,5,-6,-2
1558441700412710,0,4,7,2,-1,8,3,0
1558441700412710,-2,-4,-3,-3,0,4,-1,0
1558441700426702,3,-1,-2,-4,-1,-13,1,1
1558441700426702,4,3,1,0,-11,-4,-7,-1
1558441700434555,-7,-3,0,1,4,9,-3,-1
1558441700434555,1,1,3,0,3,2,4,2
1558441700449541,2,4,5,-2,-2,-20,-6,-3
1558441700449541,0,-4,-6,-2,4,3,-1,0
1558441700456628,3,3,2,1,0,5,3,1
1558441700456628,-3,-1,0,2,-4,1,-2,-6
1558441700472262,0,-1,-1,0,5,8,6,0
1558441700472262,-2,1,2,3,-3,-9,4,2
1558441700473260,0,-3,-4,-4,2,3,0,-2
1558441700473260,-3,-3,-2,-5,-11,-13,-6,-4
1558441700494517,2,0,2,1,1,6,-4,0
1558441700494517,3,5,2,1,10,18,13,4
1558441700502185,-5,-5,-5,-3,-3,-6,-9,-7
1558441700502185,-1,0,0,-1,2,5,-4,-1
1558441700509498,2,-1,1,0,-2,-21,1,0
1558441700509498,-5,-4,-3,-1,-3,5,1,-4
1558441700516488,3,2,0,1,1,-12,1,4
1558441700516488,-1,-1,0,0,1,3,0,0
1558441700532437,1,1,-1,0,-3,6,0,-2
1558441700532437,-1,0,-2,-3,-7,-6,-11,-7
1558441700533102,-4,-4,-1,-3,-8,-9,-4,-1
1558441700533102,-2,-4,-3,-2,4,1,7,-4
1558441700546409,-2,-1,2,-1,6,14,2,0
1558441700546409,4,3,5,-1,4,-4,6,2
1558441700554047,1,4,0,3,10,16,6,1
1558441700554047,-3,-4,-6,-5,-9,-10,-4,-1
1558441700569347,-2,0,0,-2,-8,-8,-8,-3
1558441700569347,-4,-9,-6,-1,-3,-8,-4,-3
1558441700576996,2,1,4,-2,-5,-5,-3,-3
1558441700576996,1,0,5,2,1,2,1,0
1558441700591979,-2,-3,-12,-7,-5,2,-3,-1
1558441700591979,-1,0,2,3,5,8,7,4
1558441700592940,-1,0,3,2,4,6,9,2
1558441700592940,2,2,-3,0,-2,-13,-2,0
1558441700607087,-3,-4,-4,-7,-12,-2,1,-1
1558441700607087,-2,-3,0,-3,-3,-1,-8,-1
1558441700613887,0,-2,-6,-2,-3,5,-6,-3
1558441700613887,1,3,10,6,8,-1,0,0
1558441700629198,-3,-1,-7,-4,-3,1,-1,-2
1558441700629198,-1,-2,-8,-5,0,-6,-3,0
1558441700637065,2,3,1,-1,-7,5,2,-2
1558441700637065,-3,-2,-1,0,0,6,-2,-3
1558441700652110,4,1,2,1,4,-19,-5,3
1558441700652110,0,-1,-1,-1,-1,7,-1,0
1558441700652782,-4,-1,-4,-2,-4,-7,-6,-2
1558441700652782,-2,-4,-3,-1,2,7,3,0
1558441700667060,3,1,1,3,5,3,7,0
1558441700667060,-2,-1,-5,-2,-6,-9,-5,-5
1558441700674047,-1,-1,2,-1,-7,-8,-4,0
1558441700674047,0,-1,-9,-6,-3,2,-3,0
1558441700689077,-3,-2,-4,1,0,5,0,-1
1558441700689077,0,-2,-1,-2,-1,-5,-1,-1
1558441700696093,-3,-3,-1,-4,2,-11,-3,0
1558441700696093,2,3,4,3,7,15,7,-1
1558441700712017,1,-2,-3,3,-3,-2,-1,-1
1558441700712017,-4,-3,-4,-3,-6,-1,-9,-4
1558441700712017,0,-3,1,2,4,3,14,3
1558441700712017,2,0,1,0,8,3,2,2
1558441700725979,-2,-1,5,2,3,2,-14,-5
1558441700725979,-1,-3,-7,0,5,10,6,4
1558441700733954,1,2,2,2,-1,2,5,2
1558441700733954,0,-2,-3,-6,-4,-8,-2,0
1558441700748914,-4,-3,-2,-1,-6,4,1,-3
1558441700748914,-3,-3,0,-4,-11,-10,-9,-5
1558441700755897,0,-3,-5,-2,-3,-5,-7,-3
1558441700755897,-3,-2,2,1,3,2,4,5
1558441700771855,-3,0,-3,-4,-5,-4,1,-2
1558441700771855,-2,-4,-3,-1,-6,-12,-2,-2
1558441700772851,1,1,0,0,1,2,1,0
1558441700772851,2,3,1,-2,-4,1,-4,-5
1558441700787833,-8,-6,-4,-5,-1,-3,-7,-5
1558441700787833,0,0,4,3,15,15,9,3
1558441700794226,-2,0,-4,0,-3,-3,2,0
1558441700794226,-1,-1,-1,-1,-2,-11,-2,-1
1558441700808793,2,2,3,3,7,7,10,8
1558441700808793,0,1,1,0,-6,-8,-6,-2
1558441700817078,-4,-1,1,-1,3,2,-9,-3
1558441700817078,-1,-2,2,3,-1,7,-4,0
1558441700832692,-1,-2,-9,-11,-15,-5,-2,-6
1558441700832692,-1,0,-2,-2,2,-3,-2,0
1558441700832692,-3,-3,-2,-3,3,7,-1,-4
1558441700832692,-3,-1,-4,-1,-3,2,0,-4
1558441700847085,0,-1,4,3,-6,-2,0,0
1558441700847085,2,1,7,1,9,1,2,-2
1558441700862657,-1,-2,-3,-2,2,-13,-2,1
1558441700862657,0,-2,-5,-2,4,7,0,1
1558441700868894,-1,-1,0,-2,-7,0,-6,-2
1558441700868894,-3,0,-4,-1,-6,5,0,1
1558441700876580,3,0,4,1,4,-4,0,2
1558441700876580,2,-1,-1,-3,-3,-2,6,2
1558441700891538,0,-2,-4,-2,2,5,0,0
1558441700891538,5,3,1,-2,2,-7,-7,0
1558441700892532,-9,-6,-1,-1,-4,-4,1,-4
1558441700892532,-3,-6,-7,-7,-10,-4,-3,-4
1558441700906493,-5,-3,-1,-2,1,-1,5,-3
1558441700906493,1,1,5,3,-1,-1,4,-3
1558441700913475,5,0,-3,-4,3,5,0,0
1558441700913475,-4,1,2,0,-7,-6,-2,-2
1558441700928917,0,1,-4,-3,4,5,-2,-2
1558441700928917,-4,-3,5,-1,-4,1,0,-2
1558441700936917,1,1,-1,0,-5,-6,-2,-1
1558441700936917,1,1,-1,1,-1,-5,-2,2
1558441700952841,0,-1,-3,2,2,1,-1,-2
1558441700952841,-2,0,8,3,1,-2,0,0
1558441700952841,-4,-4,-15,-5,-6,8,-8,-4
1558441700952841,0,0,0,-1,-2,-14,-7,-2
1558441700966755,2,0,9,4,14,11,1,3
1558441700966755,-5,-4,-15,-5,-5,-2,0,-4
1558441700974710,-1,0,1,0,-6,-1,-3,-2
1558441700974710,1,1,-2,0,-3,4,-1,-2
1558441700988277,-16,-10,-4,-10,-14,-17,-9,-6
1558441700988277,-1,-1,4,0,4,5,6,1
1558441700996252,3,1,-2,0,4,-10,3,5
1558441700996252,-2,-5,-4,-3,-1,2,-8,-1
1558441701012626,1,0,4,3,-2,2,-1,0
1558441701012626,1,0,-3,-5,2,5,-3,1
1558441701012626,-2,-2,-5,-3,-4,-5,6,0
1558441701012626,1,3,5,2,3,2,0,-3
1558441701026355,-3,-1,-3,-1,-9,-4,-10,-2
1558441701026355,-1,-1,1,1,-1,-3,5,1
1558441701034475,3,3,6,1,8,4,3,4
1558441701034475,0,-3,-1,-1,-1,-7,4,0
1558441701049381,5,3,2,2,4,5,5,2
1558441701049381,-10,-7,-3,-4,-6,-5,-7,-3
1558441701056339,-5,-7,-6,-5,-5,-2,-6,-5
1558441701056339,-4,-2,-3,2,1,-8,0,1
1558441701071059,4,8,2,1,2,0,5,2
1558441701071059,2,-1,2,2,2,-7,2,-2
1558441701080069,-6,-5,0,0,-10,-6,-13,-9
1558441701080069,-2,-2,4,-1,7,12,8,0
1558441701086019,-1,-1,-4,0,3,2,-8,-2
1558441701086019,0,5,-5,3,10,13,3,0
1558441701102195,-1,-3,0,-3,-4,-2,-1,1
1558441701102195,0,-2,-3,-4,-11,-9,-12,-7
1558441701108960,4,-1,2,-2,-11,-8,-5,-3
1558441701108960,2,2,-1,1,8,9,2,1
1558441701115939,-8,-5,2,1,2,-7,-4,-2
1558441701115939,-1,-2,-2,0,8,12,7,2
1558441701132021,0,0,0,-2,-4,-5,8,0
1558441701132021,0,-2,-6,-3,-12,-17,-6,-3
1558441701138872,5,6,-1,-3,-6,1,-1,-2
1558441701138872,0,-2,0,1,-4,0,-8,-2
1558441701146886,-4,-6,1,-2,4,-5,2,0
1558441701146886,-2,-5,-17,-7,-13,0,-3,-2
1558441701153833,-2,-2,2,-2,3,-1,2,0
1558441701153833,-1,1,-5,-3,-3,0,-4,-2
1558441701169114,4,1,6,2,2,-17,-1,2
1558441701169114,-4,0,2,2,1,0,-5,-2
1558441701177044,-2,-2,-1,-3,-1,7,4,0
1558441701177044,-1,-2,-1,0,-1,0,0,1
1558441701191049,0,-4,-1,2,3,2,-1,-3
1558441701191049,-4,-5,-8,-6,-15,-9,-4,-4
1558441701200049,4,2,3,4,9,10,2,1
1558441701200049,2,2,-4,-6,-3,7,4,2
1558441701214990,-15,-7,2,0,8,3,2,-1
1558441701214990,3,3,5,1,4,-4,1,1
1558441701222699,0,0,-7,-2,-1,7,-1,1
1558441701222699,-2,-5,-4,-1,-2,-1,-3,0
1558441701228922,2,0,-5,-2,-11,-9,-3,2
1558441701228922,-1,0,5,-1,3,-7,-5,1
1558441701236873,1,-2,-3,0,-4,-19,-2,-2
1558441701236873,1,2,0,-3,-3,-7,-12,-3
1558441701251850,-1,2,-2,1,1,8,-2,0
1558441701251850,-2,-1,4,1,3,4,9,0
1558441701259738,3,0,0,1,-1,-5,-1,-4
1558441701259738,-10,-8,1,3,6,-3,7,0
1558441701275702,1,0,-2,2,4,7,-1,0
1558441701275702,0,0,3,-1,-4,3,-5,-4
1558441701275702,-3,-2,-12,-7,-15,-5,-9,-5
1558441701275702,1,2,-2,0,1,0,-1,2
1558441701290471,0,0,2,2,2,-4,3,1
1558441701290471,-1,-2,0,-1,-1,-3,5,2
1558441701296458,-1,-1,2,-1,1,8,0,0
1558441701296458,-6,-6,0,-6,-19,-14,-10,-7
1558441701311413,4,3,2,4,7,8,8,3
1558441701311413,4,-1,-7,-4,-1,-4,-7,1
1558441701319390,-5,-6,0,0,-2,-2,0,-3
1558441701319390,3,2,0,-1,1,-13,-1,1
1558441701334677,-7,-5,-3,-6,-12,-8,-17,-11
1558441701334677,1,0,-3,-2,-1,3,-6,-3
1558441701335348,4,0,4,2,7,8,5,0
1558441701335348,0,3,0,-2,-1,0,8,3
1558441701349533,0,-2,-2,-1,0,-2,-1,-1
1558441701349533,2,-1,0,0,-1,-1,0,1
1558441701356292,-9,-7,-2,1,2,0,-3,-1
1558441701356292,3,2,-2,-2,0,1,-7,-2
1558441701371252,0,0,0,0,-1,2,6,3
1558441701371252,1,1,-2,-1,-10,-15,-2,-3
1558441701379938,-1,3,2,0,3,7,-1,0
1558441701379938,-1,-2,0,0,-4,-9,0,-2
1558441701394569,1,-3,-4,-2,5,13,2,1
1558441701394569,-2,-4,-3,2,4,4,4,1
1558441701395651,3,0,1,0,-4,-7,1,0
1558441701395651,-1,-1,0,3,1,-4,-5,-5
1558441701408811,1,1,-6,-8,-12,-4,-8,-3
1558441701408811,-5,-9,-7,-6,-8,0,-5,-4
1558441701416805,2,3,3,2,7,2,8,6
1558441701416805,1,2,4,6,16,12,8,4
1558441701431744,-3,0,-2,-1,0,-2,2,0
1558441701431744,-7,-1,-1,-3,0,0,-4,-4
1558441701439734,-1,-3,-6,-4,-15,-11,-13,-8
1558441701439734,1,1,0,1,11,22,14,3
1558441701454410,3,3,4,1,7,-7,-1,-1
1558441701454410,-1,-2,-4,-3,-5,-3,-14,-4
1558441701455405,-2,0,-1,-2,-4,-5,3,1
1558441701455405,-2,-2,-4,0,-3,-9,-1,-3
1558441701469461,-3,-3,-1,-1,0,6,1,-3
1558441701469461,1,0,2,0,2,3,1,1
1558441701476609,2,1,-3,-3,-2,3,-1,-1
1558441701476609,-5,-3,2,0,-4,8,0,-4
1558441701491579,0,-2,-4,1,6,6,6,2
1558441701491579,-2,0,0,3,6,-6,8,2
1558441701507541,-2,2,2,0,3,-2,-3,0
1558441701507541,-3,-2,-5,-4,-9,-7,-12,-5
1558441701514247,2,0,2,1,-6,4,-4,-1
1558441701514247,1,2,8,4,13,5,12,7
1558441701515244,1,1,-10,-5,-7,-6,0,-1
1558441701515244,-8,-7,-2,-5,-3,4,-3,-3
1558441701529463,0,-1,-8,-4,-8,-7,-5,-2
1558441701529463,1,1,3,0,-5,-4,-3,-3
1558441701536468,-1,-1,-1,0,6,4,-2,-1
1558441701536468,-1,-2,-1,-2,-5,-1,-4,-2
1558441701560394,-1,-2,-1,0,-1,-19,2,1
1558441701560394,0,2,1,3,4,3,-3,0
1558441701561123,-3,0,-5,-5,-6,3,5,-2
1558441701561123,2,0,-4,-5,-12,-5,-8,-4
1558441701574086,-5,-1,3,2,14,4,5,3
1558441701574086,0,-3,-3,-5,2,-3,0,-1
1558441701575086,0,1,-2,4,-10,-6,-3,1
1558441701575086,-2,-3,-4,-2,-3,-11,-2,0
1558441701589079,0,1,-1,-1,-6,0,5,-1
1558441701589079,0,1,0,-5,-5,2,2,-3
1558441701596028,1,1,5,2,4,1,0,1
1558441701596028,-9,-4,2,2,2,-2,-5,-1
1558441701620248,1,-3,-9,-7,-11,-11,-14,-2
1558441701620248,-2,2,8,5,0,5,6,-2
1558441701620962,0,-4,-10,-3,9,16,-2,-2
1558441701620962,2,-2,-11,-11,-5,-11,4,0
1558441701635126,0,1,7,1,-6,0,-12,-6
1558441701635126,1,1,-4,4,8,-4,-1,2
1558441701635126,-4,-2,4,3,-3,-9,-9,-2
1558441701635126,1,3,0,1,-5,0,-5,-1
1558441701649158,-4,-1,-3,-1,2,-3,-2,0
1558441701649158,-1,-6,-5,-8,-17,4,-4,-4
1558441701656869,2,2,4,8,12,2,-3,-2
1558441701656869,-3,-3,-2,0,0,-11,-7,1
1558441701680908,0,-1,-3,-2,-7,-1,-6,-5
1558441701680908,0,-1,1,-1,0,-6,-5,-1
1558441701680908,-1,0,3,-3,3,4,8,3
1558441701680908,2,2,2,-2,-4,-4,-2,-4
1558441701695000,0,-3,-11,-3,0,0,4,0
1558441701695000,-1,0,6,4,5,5,1,3
1558441701695000,-1,-4,-13,-7,-9,-6,2,2
1558441701695000,2,2,7,6,10,15,9,0
1558441701723686,-2,-1,7,3,3,6,2,0
1558441701723686,-6,-8,-17,-12,-9,-7,-4,-5
1558441701733037,-3,0,1,2,-2,-1,-7,-7
1558441701733037,4,8,0,0,8,9,10,6
1558441701734039,-8,-9,0,4,-5,-3,-1,0
1558441701734039,-7,-3,-2,-2,-7,-8,-4,-4
1558441701739025,1,2,4,-1,-2,-11,0,1
1558441701739025,-3,-5,-5,-1,-4,-2,-6,-3
1558441701753993,1,2,-1,-2,-1,4,6,0
1558441701753993,2,0,-1,-1,3,3,-3,0
1558441701754984,-3,-8,0,-3,-4,-8,1,-2
1558441701754984,1,1,-1,-1,-2,1,-5,-5
1558441701768947,-3,-1,-1,-2,-1,-11,7,5
1558441701768947,-6,-4,-4,-2,-3,6,2,-3
1558441701775926,2,4,7,2,7,13,5,-1
1558441701775926,2,-2,5,0,-2,-14,-4,0
1558441701790921,1,-1,-4,-5,-10,1,-6,-3
1558441701790921,-6,-3,-3,1,-1,-3,1,-2
1558441701798864,0,0,2,1,4,1,1,2
1558441701798864,-4,-5,-5,-2,-9,-2,-9,1
1558441701813826,0,1,1,3,11,13,0,-1
1558441701813826,2,2,-1,-2,-5,-17,-13,0
1558441701814825,0,0,-2,-3,-1,5,19,1
1558441701814825,-3,-4,4,7,5,-2,4,1
1558441701829239,-1,-4,-5,-9,-1,-9,-7,-1
1558441701829239,2,0,-8,0,-5,3,-11,-3
1558441701836692,-5,-2,1,-1,3,-1,-5,-3
1558441701836692,-2,-4,-6,-4,-11,-5,1,-2
1558441701851645,-1,-1,2,1,1,9,-2,-3
1558441701851645,5,1,2,1,8,3,9,3
1558441701859642,-2,-1,0,-1,-7,-7,-9,-5
1558441701859642,-3,-2,-1,-3,0,11,4,-1
1558441701875129,1,2,-6,-6,-1,0,-12,-6
1558441701875129,-2,0,0,1,5,4,13,4
1558441701875129,3,0,0,0,-4,-7,-3,-3
1558441701875129,0,0,2,0,3,-5,12,4
1558441701890199,-4,-6,-1,1,3,1,1,-3
1558441701890199,-3,-4,0,0,-5,0,-5,-2
1558441701896073,2,1,3,-3,-4,-5,-5,-1
1558441701896073,-4,-1,-11,-5,-11,-5,-7,-2
1558441701920335,-2,-3,-1,2,6,-7,8,3
1558441701920335,0,2,2,2,4,2,-1,-1
1558441701921007,-5,-6,-3,-4,-3,6,-5,-1
1558441701921007,4,0,1,0,0,-8,-3,0
1558441701935164,-2,1,0,0,0,-5,1,1
1558441701935164,0,0,4,-1,-3,-2,7,3
1558441701935164,-2,-4,-6,-1,-8,-7,-5,0
1558441701935164,0,3,4,4,10,14,9,-1
1558441701949276,1,1,0,2,0,1,1,-1
1558441701949276,1,1,4,-1,-5,-10,-7,-3
1558441701956254,-1,-3,-7,-1,-3,1,3,1
1558441701956254,-12,-7,-3,-3,-1,2,0,-3
1558441701970873,1,-5,-1,-1,-7,-5,-7,-2
1558441701970873,-2,0,1,0,4,6,3,1
1558441701980212,3,6,7,2,11,15,12,4
1558441701980212,2,-3,-6,-1,0,-8,-4,0
1558441702003126,-2,-1,0,-2,-7,-4,-6,-3
1558441702003126,-2,-4,-6,-7,-12,-7,-7,-5
1558441702003126,-2,-2,0,1,1,-5,2,0
1558441702003126,-1,3,8,5,11,2,3,2
1558441702009116,-2,-1,-8,-9,-7,-8,-12,-3
1558441702009116,-2,0,-4,-4,-3,4,-11,-7
1558441702017041,-5,-3,-1,-2,-2,-8,-12,-6
1558441702017041,4,4,8,4,3,6,12,5
1558441702032706,-3,-5,-6,-3,-8,-15,-3,-3
1558441702032706,0,0,-1,-1,-1,10,-4,-2
1558441702040065,-3,-4,-9,-4,-6,3,-6,-1
1558441702040065,3,1,1,0,4,-6,-2,1
1558441702053650,4,2,6,5,9,13,3,4
1558441702053650,-8,-6,-3,-3,-1,-3,4,0
1558441702062628,-1,-2,1,1,1,-10,-1,-2
1558441702062628,0,0,0,-2,-6,3,-6,-5
1558441702068956,-6,-2,-3,-1,-3,2,3,-3
1558441702068956,4,3,0,0,1,7,1,0
1558441702084913,-4,-6,-3,2,7,0,-7,1
1558441702084913,-2,-1,-5,-8,-7,-5,-3,-2
1558441702091905,1,2,2,2,4,-1,0,-1
1558441702091905,0,-3,-2,0,1,4,-1,1
1558441702098875,-1,1,0,-3,-5,-5,-5,-1
1558441702098875,1,-1,-1,-1,2,5,-2,-1
1558441702113831,0,-2,0,-2,-2,0,2,1
1558441702113831,-3,-1,3,2,-4,-10,-1,-1
1558441702121469,0,3,-1,1,7,5,0,0
1558441702121469,-5,-7,-7,-6,-12,-18,-16,-4
1558441702136799,-1,0,5,1,-3,8,0,-1
1558441702136799,2,1,0,1,5,-17,4,2
1558441702137426,0,-3,-8,-8,-11,0,0,-2
1558441702137426,-7,-4,-8,-3,-10,-3,-12,-1
1558441702151829,-1,1,1,2,6,7,11,1
1558441702151829,0,-1,-3,-1,-4,-3,-6,-4
1558441702158838,1,0,7,3,5,1,4,2
1558441702158838,5,0,1,1,-2,-5,-3,-3
1558441702184303,1,3,3,-4,1,2,7,4
1558441702184303,0,-3,-5,1,2,-3,1,1
1558441702185509,-5,-4,-2,-2,-4,-4,1,-3
1558441702185509,-2,-1,0,-4,-7,3,-4,-3
1558441702197590,-4,-2,-2,-5,-9,-10,-11,-3
1558441702197590,0,2,3,8,17,33,14,2
1558441702197590,-2,-2,-5,-4,4,-1,4,-2
1558441702197590,1,0,1,-2,0,-2,2,0
1558441702211450,-1,2,4,0,-1,-13,-7,0
1558441702211450,-4,-7,-16,-10,-10,-1,-2,-3
1558441702244464,-1,-1,4,4,2,7,5,2
1558441702244464,0,3,1,1,0,-4,3,0
1558441702246137,5,5,-1,0,3,2,3,-1
1558441702246137,-15,-9,-4,-5,-6,-8,-9,-6
1558441702246137,3,1,-1,-5,-13,-6,-8,-1
1558441702246137,-5,-7,-2,0,7,8,7,-2
1558441702265352,-1,-3,0,3,9,7,1,4
1558441702265352,2,2,8,2,-2,-15,-14,-3
1558441702266314,-1,0,-10,-4,-13,-5,-2,-4
1558441702266314,-12,-12,-18,-13,-7,-17,-12,-9
1558441702271071,0,0,-3,0,3,13,8,0
1558441702271071,1,1,-1,-2,1,-1,3,2
1558441702279342,-3,1,8,2,3,-5,1,-1
1558441702279342,5,4,3,3,-2,0,-1,1
1558441702295171,-3,-3,4,3,3,3,3,0
1558441702295171,4,1,4,0,1,0,4,2
1558441702302282,-1,0,-1,-2,-9,-4,-7,0
1558441702302282,1,1,5,6,10,17,9,2
1558441702317249,-3,-3,-3,-4,-6,-3,-7,-3
1558441702317249,4,2,3,2,2,-7,-1,2
1558441702318173,-2,-3,-4,-3,-7,-7,-1,-3
1558441702318173,1,2,1,1,3,3,-1,-1
1558441702330909,-2,1,0,-2,-2,0,-1,-2
1558441702330909,-2,1,-4,-3,-4,-4,0,1
1558441702338888,-3,-2,-2,2,6,12,-2,-1
1558441702338888,-1,1,1,1,-2,0,3,2
1558441702353849,1,-3,-2,-4,-6,-10,2,-2
1558441702353849,-2,-4,-3,-5,-14,-7,-3,-5
1558441702361883,0,0,4,6,16,15,10,2
1558441702361883,1,1,2,-2,0,-10,-2,-1
1558441702377144,-2,-3,-5,0,-3,-2,-6,-3
1558441702377144,-2,-3,-2,-4,-6,-4,-5,-1
1558441702377785,1,0,3,0,3,-7,-4,-1
1558441702377785,-2,-4,-7,-6,-13,-5,-3,-5
1558441702400939,-1,0,1,2,2,-1,4,-1
1558441702400939,-3,-1,0,-1,2,2,2,0
1558441702401720,0,-2,-8,-8,-6,-4,-8,-1
1558441702401720,0,1,0,1,5,1,5,3
1558441702414189,-1,-1,-1,0,-2,-1,-3,1
1558441702414189,-2,0,-3,-2,-10,-1,-8,-6
1558441702422663,2,1,6,1,5,8,5,1
1558441702422663,-1,-1,-7,-3,1,-4,-2,-1
1558441702436983,-3,-3,-1,3,1,9,-2,-1
1558441702436983,0,-2,-1,-6,0,-3,-6,-1
1558441702437623,1,-2,1,0,-8,-4,-2,-2
1558441702437623,1,0,3,1,2,0,0,3
1558441702451587,1,0,0,0,1,-9,4,3
1558441702451587,-2,-2,-2,0,4,-3,-3,-4
1558441702458570,-2,-2,-4,-3,-2,-3,-7,-5
1558441702458570,-2,-3,0,-1,-6,-2,-16,-4
1558441702473556,0,1,0,-1,0,-4,5,-1
1558441702473556,1,3,4,0,2,0,1,1
1558441702481504,-4,-5,-10,-7,-3,-6,0,-2
1558441702481504,-7,-8,-4,-1,5,12,-4,-5
1558441702496492,0,-1,-2,-4,-7,-18,-14,-3
1558441702496492,-1,-1,4,2,4,8,6,3
1558441702497462,0,-1,0,-1,0,4,3,1
1558441702497462,0,3,-1,2,-3,5,8,2
1558441702519403,-2,0,-1,-3,-3,3,-4,-1
1558441702519403,1,0,-1,-2,-4,-13,-10,-3
1558441702520401,-1,-1,2,3,4,0,4,2
1558441702520401,1,-2,0,0,2,0,5,2
1558441702533367,0,-2,-2,-2,-6,1,1,-3
1558441702533367,-1,-1,1,1,1,0,-5,-2
1558441702542345,-3,-3,-2,-2,-2,7,-2,-3
1558441702542345,2,3,3,0,0,-1,4,-2
1558441702556764,-3,0,-1,-3,-5,-9,-10,0
1558441702556764,-3,-4,-7,0,-4,-2,10,-2
1558441702557304,-1,-2,2,1,1,6,3,1
1558441702557304,2,3,4,1,0,-6,3,3
1558441702571268,0,-2,0,-2,8,7,7,3
1558441702571268,-4,-5,-4,-1,-6,-8,-8,-3
1558441702578621,0,1,2,0,1,0,2,-3
1558441702578621,0,-3,-1,1,-1,-1,-1,-1
1558441702594492,-2,-4,-11,-6,-6,1,-6,-5
1558441702594492,4,4,1,-1,-2,3,5,1
1558441702602211,-11,-4,3,1,-1,-9,-2,2
1558441702602211,1,-1,-9,-6,-5,-4,-7,-1
1558441702617404,0,1,2,1,-4,-2,8,-4
1558441702617404,1,-3,-3,-3,-1,8,-1,-2
1558441702617404,2,2,2,2,2,4,-1,0
1558441702617404,-2,-1,4,-2,-6,-8,1,-1
1558441702631340,-1,-1,1,3,8,5,3,2
1558441702631340,0,0,-2,-1,1,5,-4,3
1558441702639085,1,0,-2,-1,-7,-5,-4,-1
1558441702639085,-2,-1,-2,-3,1,-8,-4,-2
1558441702654045,-3,-3,-3,-3,-7,0,-15,-9
1558441702654045,1,0,-1,-2,-2,-2,8,2
1558441702662044,-1,0,1,4,6,6,5,2
1558441702662044,0,-3,-3,0,-5,-3,-4,-3
1558441702676984,-4,-1,4,0,3,-5,3,-1
1558441702676984,0,-1,4,2,4,10,7,3
1558441702676984,0,-3,-13,-6,-11,-14,-11,-4
1558441702676984,3,1,-2,-3,-5,10,7,0
1558441702691291,-13,-10,-4,-4,-5,-6,-6,-4
1558441702691291,0,3,6,5,10,-5,3,0
1558441702698926,3,1,4,0,3,2,-5,2
1558441702698926,-3,-3,-1,1,5,8,-1,1
1558441702713884,4,-1,0,1,-4,-7,-1,2
1558441702713884,0,-2,-3,-3,8,19,1,-2
1558441702721863,1,1,1,2,0,-2,1,-1
1558441702721863,-3,-2,-2,-4,-7,-6,-11,-5
1558441702736824,0,-1,-2,-3,-1,7,2,-1
1558441702736824,-4,-3,3,3,-6,-20,-8,0
1558441702737823,1,0,-1,-1,4,1,4,1
1558441702737823,-2,-1,-5,-4,-5,-6,2,-1
1558441702750786,2,0,-3,-1,3,1,-1,0
1558441702750786,0,0,-1,-1,-1,-5,1,-3
1558441702759123,-2,1,-1,-2,-9,-9,-8,-7
1558441702759123,-1,-3,0,-1,-5,-1,1,-1
1558441702773724,3,3,1,0,-2,0,8,4
1558441702773724,1,0,-2,3,4,-3,-2,-2
1558441702781703,-5,-2,0,-4,1,7,-1,1
1558441702781703,0,2,-1,0,1,5,2,3
1558441702796774,1,2,-3,-3,-6,-6,-7,-3
1558441702796774,-2,-6,-3,-3,-3,-4,-7,0
1558441702797659,0,-4,-2,-2,-6,-12,-3,-2
1558441702797659,-1,-1,2,1,8,9,2,-1
1558441702811724,-2,2,2,0,-1,-2,-4,-2
1558441702811724,0,3,-1,0,-2,4,0,0
1558441702818605,-2,-3,-5,-4,-1,4,0,-5
1558441702818605,-1,-1,-5,-6,-7,-11,-6,-1
1558441702833565,1,3,8,6,2,-6,4,2
1558441702833565,-2,-3,-3,-2,6,14,5,-1
1558441702841543,-1,-3,-3,-1,-4,1,-3,-2
1558441702841543,-1,-1,0,1,0,2,-6,-4
1558441702856505,1,-3,-3,-3,-3,7,-5,-2
1558441702856505,-2,2,6,2,2,7,12,3
1558441702857501,0,-2,-7,-2,0,-8,-2,-1
1558441702857501,3,3,7,1,2,-8,3,-3
1558441702871464,-7,-5,-5,-1,-3,-7,-1,-1
1558441702871464,1,-1,-4,-4,-4,-2,-10,-4
1558441702878444,-1,-2,1,0,-1,1,-3,-3
1558441702878444,0,-4,-5,0,1,1,4,2
1558441702903377,2,1,2,-1,0,2,-1,-2
1558441702903377,-1,-2,-2,-3,-1,-1,3,1
1558441702903377,-3,0,-4,-1,-7,-6,-9,-2
1558441702903377,1,7,8,7,8,5,8,2
1558441702916348,1,-1,-3,-5,2,-3,5,2
1558441702916348,-6,-7,-4,-1,-4,1,-7,-5
1558441702924321,2,-1,-3,-3,-7,-2,-11,-2
1558441702924321,-1,-2,-1,1,5,5,7,2
1558441702931301,-1,-2,-5,-1,-4,-2,-5,-4
1558441702931301,-4,-2,-1,-3,6,4,3,2
1558441702938284,1,0,3,1,4,-4,4,0
1558441702938284,-1,0,-3,-4,-11,-4,-9,-6
1558441702953386,-3,-2,-1,1,4,11,4,0
1558441702953386,1,0,1,0,-9,-17,-6,-1
1558441702962220,-1,-2,-1,-5,-9,-5,1,1
1558441702962220,-4,-2,-3,2,-2,6,-1,-1
1558441702976184,1,0,4,1,9,3,9,4
1558441702976184,-1,0,0,-1,1,-13,-2,1
1558441702992202,-1,0,-1,1,7,5,4,2
1558441702992202,-2,-2,6,-2,-6,-1,-5,-3
1558441702994137,-3,-1,-5,-2,4,11,-5,-8
1558441702994137,0,-1,-5,1,-8,-6,3,1
1558441702999121,-2,-4,3,3,6,3,3,-1
1558441702999121,-3,-4,-7,-4,0,-1,-3,-2
1558441703013092,0,0,3,-1,-2,-5,-14,-2
1558441703013092,-5,0,-2,-1,0,1,7,2
1558441703022226,0,2,2,3,-2,0,-2,-2
1558441703022226,-7,-8,-6,-6,-4,-2,-10,-5
1558441703036024,-2,-1,-1,1,-1,6,0,-1
1558441703036024,8,5,3,-3,-6,-6,2,-1
1558441703044002,-13,-11,-10,-1,0,0,2,0
1558441703044002,2,3,4,3,8,-4,-1,3
1558441703051191,1,1,-2,-1,-1,-8,2,3
1558441703051191,-2,-1,0,1,-3,2,0,-3
1558441703066940,4,3,2,-1,-1,-3,2,2
1558441703066940,1,-2,0,-2,5,7,1,2
1558441703073931,-2,-3,0,0,-6,-7,-3,-2
1558441703073931,-4,-1,-6,-2,-9,-7,-6,-2
1558441703081901,2,2,2,2,5,9,0,-1
1558441703081901,-1,1,-3,-2,-7,-14,-4,-1
1558441703095863,4,3,-3,-5,-4,-6,0,1
1558441703095863,-1,-4,4,2,8,13,-2,0
1558441703104840,-5,-5,-4,-3,-3,-9,1,0
1558441703104840,1,1,2,1,-2,-4,6,3
1558441703119798,-3,-2,1,3,1,7,-16,-6
1558441703119798,-3,-4,-12,-9,-13,-3,-6,-7
1558441703119798,6,5,1,2,2,-12,1,-1
1558441703119798,-5,-5,5,6,11,11,12,3
1558441703133762,-1,0,-2,2,0,-6,1,0
1558441703133762,-1,-1,-3,-3,-6,-6,-4,2
1558441703149717,-4,-2,-3,-5,-11,3,-7,-7
1558441703149717,-1,-2,-5,-1,-2,1,-5,-4
1558441703155704,3,0,4,1,5,-1,8,3
1558441703155704,-1,0,5,3,10,-1,-4,-1
1558441703164678,0,0,-6,-6,-8,-4,1,1
1558441703164678,-1,2,1,0,5,-8,-8,0
1558441703179639,-3,-7,-4,-4,-3,6,6,0
1558441703179639,1,0,-4,-2,-3,2,-4,-4
1558441703179639,2,3,2,0,5,-1,-5,1
1558441703179639,0,0,0,-2,-6,1,-1,-1
1558441703193820,0,-1,1,-2,3,-2,11,2
1558441703193820,-4,-2,-3,0,1,-4,-1,-1
1558441703201581,0,-1,-2,-4,-8,-3,-7,-4
1558441703201581,-8,-6,-6,-5,-9,-1,-7,-5
1558441703216672,1,2,-3,-3,-3,-3,-2,-1
1558441703216672,0,-1,-3,0,4,-6,-3,0
1558441703240477,-1,-1,1,-1,-1,3,3,1
1558441703240477,1,-1,1,-2,-4,-2,3,0
1558441703242470,-2,-5,-5,-1,-3,8,-4,-4
1558441703242470,-3,-2,3,-1,-3,-8,0,-1
1558441703242470,0,1,0,2,8,2,5,4
1558441703242470,0,-2,-6,-5,-1,-3,1,-2
1558441703255435,-6,-5,0,-2,-6,-7,-6,-5
1558441703255435,-1,2,-3,-3,-5,8,-5,-4
1558441703261597,-2,-2,-2,-2,-8,-3,-6,-2
1558441703261597,2,-2,1,2,3,-7,11,5
1558441703276555,-2,0,0,1,11,10,4,2
1558441703276555,0,-2,-1,-3,0,-3,8,1
1558441703285357,0,-1,3,1,-2,2,-4,-2
1558441703285357,-1,0,-4,-1,-5,6,-4,0
1558441703300324,1,1,-3,-5,-6,-18,-5,-1
1558441703300324,-1,-2,1,3,2,2,-2,-1
1558441703300324,-1,4,1,-3,0,9,-2,-1
1558441703300324,4,0,-2,-1,3,7,3,3
1558441703313414,-13,-11,-3,0,-5,-10,-4,-4
1558441703313414,-1,0,-3,-5,-10,-6,-8,-2
1558441703322266,-4,-2,0,0,1,1,-1,-2
1558441703322266,2,4,1,3,3,2,3,-1
1558441703345195,6,5,2,1,4,15,2,3
1558441703345195,0,2,2,0,7,0,9,1
1558441703345195,0,-3,-5,-1,-3,-11,-4,-3
1558441703345195,-1,0,-1,-3,-8,-8,-8,-4
1558441703359157,1,-1,-3,-6,-3,2,-6,0
1558441703359157,0,-1,3,2,0,-3,-4,-1
1558441703360155,1,-1,-1,-4,-1,3,2,-1
1558441703360155,0,-2,-9,-6,3,2,-3,-2
1558441703373125,-2,-1,-3,-1,-12,-25,-3,-3
1558441703373125,-1,1,-4,-2,0,17,4,-3
1558441703382099,-3,-2,4,3,2,-18,4,2
1558441703382099,-3,-4,1,-3,-10,-14,-15,-5
1558441703396061,-1,-1,1,7,24,36,11,2
1558441703396061,3,1,1,2,2,-7,9,4
1558441703404038,-1,-1,-3,-3,-9,-8,-10,-5
1558441703404038,-10,-11,-7,-7,-3,2,0,-3
1558441703418998,1,2,0,-4,-4,-6,-5,-3
1558441703418998,-4,-3,-3,-1,2,1,-2,-1
1558441703419996,1,-1,-3,-1,-4,-7,-2,1
1558441703419996,1,5,0,2,6,9,6,3
1558441703433958,-2,-1,6,3,0,-4,1,1
1558441703433958,-3,-6,-10,-4,-2,-8,-5,-4
1558441703441938,-4,-5,-3,-4,-13,-7,-7,-7
1558441703441938,2,0,2,4,10,15,1,-3
1558441703456896,1,0,-1,-1,-5,-14,-1,0
1558441703456896,0,0,2,-1,6,13,1,2
1558441703463878,-2,0,-3,-2,-4,-2,-7,-3
1558441703463878,-2,-1,1,-2,0,-1,7,-2
1558441703478838,0,0,-5,0,-8,-2,-5,-3
1558441703478838,-1,-1,0,-2,-1,-3,-1,0
1558441703479835,2,2,2,1,8,3,10,4
1558441703479835,-3,-1,3,3,0,-2,-1,-1
1558441703493799,3,-1,-4,-3,-4,-12,-3,1
1558441703493799,1,-1,-3,1,-10,0,-3,-4
1558441703501780,-7,-6,-3,-1,3,2,-1,0
1558441703501780,0,-1,-2,-2,2,0,1,1
1558441703515743,-1,0,3,2,4,5,3,0
1558441703515743,0,0,-1,-3,-6,-8,-9,-3
1558441703531700,1,0,-2,-1,2,9,6,2
1558441703531700,0,1,-3,-1,-7,-8,-8,-1
1558441703539675,0,2,-1,-1,1,-18,-1,-1
1558441703539675,-3,-1,-1,-1,-2,1,-4,2
1558441703539675,-2,-3,-1,1,6,9,8,1
1558441703539675,-3,-6,-4,-7,-16,-15,-11,-1
1558441703553643,1,-1,-1,0,0,13,4,-1
1558441703553643,0,0,2,-2,5,-11,1,-1
1558441703562614,0,2,-2,-1,1,-5,-9,0
1558441703562614,-1,0,-2,1,-2,5,-2,-4
1558441703576576,1,-1,-3,-3,-4,5,2,0
1558441703576576,-1,1,-1,-1,-3,-4,-1,-1
1558441703584557,-1,-1,0,0,0,2,-5,-3
1558441703584557,0,0,5,6,12,11,11,1
1558441703599515,-4,-3,-9,-9,-7,-3,-3,-4
1558441703599515,0,-2,-2,-1,-2,-7,-2,-3
1558441703599515,-2,0,-1,-3,-5,-15,-5,-2
1558441703599515,-2,-4,-2,-1,0,4,-11,-7
1558441703622461,-2,-2,4,1,-4,-6,0,-2
1558441703622461,1,0,-2,-1,7,5,9,4
1558441703623455,0,-2,6,1,-6,-7,-5,-2
1558441703623455,0,1,-4,-2,-2,-4,0,-1
1558441703636418,-2,-3,-11,-6,-10,-2,-6,-1
1558441703636418,-1,3,-1,-1,0,2,0,-4
1558441703644395,-1,-3,-1,2,2,8,1,-1
1558441703644395,-3,0,0,-4,-3,-7,-7,0
1558441703659356,3,2,0,3,10,1,10,6
1558441703659356,-2,-5,1,1,-3,-3,-4,-1
1558441703660354,0,0,-1,-1,0,6,1,0
1558441703660354,-1,-2,0,0,-5,-15,2,-2
1558441703673318,-2,-5,-4,-4,-3,2,-4,-1
1558441703673318,-3,-1,0,0,-2,1,2,0
1558441703681302,2,1,1,0,-2,-3,-2,-2
1558441703681302,2,1,0,-4,0,-9,4,4
1558441703696257,0,2,4,2,0,2,0,0
1558441703696257,0,-3,0,0,2,9,-7,-3
1558441703704238,-2,-5,-13,-9,-11,-5,-1,-3
1558441703704238,-2,-2,0,2,0,-5,3,-1
1558441703719197,-3,1,2,0,1,3,-6,-4
1558441703719197,-2,-2,2,0,6,11,-2,0
1558441703720193,0,-1,7,4,1,-5,4,2
1558441703720193,-2,-1,-10,-6,-5,-4,-8,-5
1558441703735155,-1,3,3,-2,-3,1,-2,-4
1558441703735155,-4,-8,-7,-4,-13,2,-7,-4
1558441703742137,1,3,1,3,18,2,11,4
1558441703742137,2,0,4,3,4,4,5,5
1558441703772054,-3,-2,0,1,-3,-4,-11,-5
1558441703772054,0,-1,-2,-6,-2,-3,2,-2
1558441703773051,1,-1,-5,-2,-8,-3,-2,-3
1558441703773051,2,3,0,4,6,10,11,4
1558441703787016,-3,-4,-4,-5,-5,-9,-1,-4
1558441703787016,-2,-2,1,-1,-8,-12,-2,2
1558441703788023,-2,-3,2,2,6,6,3,0
1558441703788023,1,1,-1,-3,-5,-3,-5,0
1558441703793995,1,-1,-1,0,-1,2,-1,-1
1558441703793995,-2,-2,-3,-5,-1,-2,1,-1
1558441703808956,0,-2,0,-4,0,-6,-6,-4
1558441703808956,0,-1,0,1,-7,-3,1,0
1558441703815937,1,1,-1,1,6,6,-3,-1
1558441703815937,-3,-1,-2,-3,-5,-3,-8,-6
1558441703823914,-2,2,2,-1,5,7,9,3
1558441703823914,-2,-4,-5,1,-5,-1,-2,-1
1558441703838875,0,-1,-1,-1,-3,-9,2,2
1558441703838875,0,0,-7,-4,-1,-2,1,2
1558441703846856,0,2,-1,2,4,19,0,0
1558441703846856,2,5,2,1,-3,-14,-5,-4
1558441703862816,2,-3,0,2,7,-1,3,2
1558441703862816,-8,-3,-1,-3,-2,-4,4,-2
1558441703862816,-2,0,4,3,3,16,4,1
1558441703862816,-2,1,-2,-5,0,-6,-6,-3
1558441703875778,1,2,-1,0,-5,5,-3,-1
1558441703875778,5,2,6,6,7,3,4,1
1558441703883754,-4,-4,-10,-8,-15,-12,-10,-6
1558441703883754,0,-2,3,-1,3,5,7,2
1558441703898715,-3,-2,-2,-1,0,0,-3,0
1558441703898715,2,2,2,1,-1,-21,-6,1
1558441703906694,-3,-3,0,1,-4,-3,-5,-5
1558441703906694,-2,-1,3,2,7,6,3,1
1558441703913681,-3,-3,-8,-7,-4,3,0,-2
1558441703913681,-1,1,-3,3,-3,5,-6,-5
1558441703921659,3,1,-3,-5,-8,-11,-3,1
1558441703921659,-2,-2,3,-3,-3,-6,-5,-2
1558441703935615,-6,-3,1,0,1,2,-2,-2
1558441703935615,1,-3,-1,-6,0,3,6,1
