timestamp,emg1,emg2,emg3,emg4,emg5,emg6,emg7,emg8
1558441623167761,0,2,-1,-3,1,-5,-1,0
1558441623167761,-2,-2,-1,-2,-2,-2,-3,-1
1558441623167761,-2,0,-3,-1,-1,-2,-6,-2
1558441623167761,-1,0,-1,-4,-2,-7,-4,0
1558441623168745,-1,-5,-3,-1,-6,-2,-1,-2
1558441623168745,2,-1,0,1,1,-4,1,-1
1558441623180712,0,0,3,1,4,7,4,1
1558441623180712,0,0,-4,-2,4,4,1,-1
1558441623181710,-4,-4,-8,-2,-6,-2,-3,-1
1558441623181710,-1,-1,2,-1,1,-1,1,0
1558441623186695,-1,-3,-3,-7,-6,-6,-1,-4
1558441623186695,0,1,1,3,-1,-1,-2,-2
1558441623194674,-4,-5,-11,-5,-5,-1,-6,-4
1558441623194674,-2,-1,-1,-2,-2,2,0,2
1558441623209634,1,1,2,2,3,-4,1,1
1558441623209634,-1,0,7,3,1,4,0,-3
1558441623217613,0,1,-4,-3,0,-13,-4,-2
1558441623217613,-4,-4,-5,-3,0,3,-2,-2
1558441623232574,-2,-4,-6,0,-3,-3,-3,-1
1558441623232574,1,-2,1,0,-3,-2,0,1
1558441623239554,-7,-4,3,1,4,8,-1,-1
1558441623239554,-1,0,-2,-3,-7,1,-6,-4
1558441623247533,1,1,3,-1,-2,-5,-3,0
1558441623247533,-1,-4,0,-3,2,-6,-1,0
1558441623253516,5,4,4,-2,-1,5,1,-1
1558441623253516,-1,-1,-8,-3,-1,2,3,0
1558441623317347,-2,0,-4,-8,-7,-7,-6,-2
1558441623317347,1,1,-3,0,-1,-7,-1,1
1558441623318343,-1,-3,2,2,3,-6,1,2
1558441623318343,0,-2,-5,-4,2,3,-3,-4
1558441623324327,-4,-7,-6,-1,-3,3,-3,-5
1558441623324327,3,3,4,1,-3,0,1,2
1558441623324327,-1,-2,-5,-5,-5,-3,-1,-4
1558441623324327,1,3,4,2,-1,-6,-3,0
1558441623325324,2,4,2,2,3,-5,1,2
1558441623325324,-5,-4,-8,-1,1,6,-3,-3
1558441623329314,-3,0,-1,-7,-2,3,-2,-2
1558441623329314,-1,-2,1,3,3,4,2,0
1558441623330312,3,-1,3,-1,-6,-7,-5,-2
1558441623330312,1,1,1,-5,-3,-3,-2,-1
1558441623345271,2,-1,-1,0,-3,-4,0,0
1558441623345271,1,0,-1,-2,4,-2,4,4
1558441623351256,-4,0,1,-2,2,7,2,1
1558441623351256,-1,1,6,4,0,3,-1,-3
1558441623367212,-2,-1,-11,-4,-1,-3,-1,-4
1558441623367212,-5,-5,-3,-6,-8,-4,-5,-3
1558441623374194,2,1,0,2,2,-2,2,3
1558441623374194,-2,-2,5,2,7,-6,3,3
1558441623383169,2,4,0,1,-4,1,-6,-2
1558441623383169,0,-2,-2,-3,-8,-3,-4,-3
1558441623389154,1,-1,-1,0,9,6,4,0
1558441623389154,-3,-3,-4,-3,-9,-5,-5,-3
1558441623404114,-2,-3,4,1,-2,-2,-2,-1
1558441623404114,0,0,-5,-2,-8,-2,-4,-4
1558441623411095,-3,-5,-6,-3,-1,-3,-4,-3
1558441623411095,0,0,3,2,8,3,1,0
1558441623420073,2,4,7,1,-2,-3,1,2
1558441623420073,-7,-2,-10,-4,-7,-6,-8,-3
1558441623434033,-2,-1,-1,-3,-5,3,1,-1
1558441623434033,1,1,-3,-2,4,7,7,1
1558441623443010,0,-2,4,2,2,-7,0,0
1558441623443010,3,3,1,0,-1,2,-3,-1
1558441623448995,1,-4,-1,-1,2,-1,-2,-1
1558441623448995,-4,-4,-1,-2,-4,-9,-3,0
1558441623463953,-2,0,0,-1,-2,1,-1,2
1558441623463953,-3,-1,0,0,4,5,3,1
1558441623479911,0,2,-2,-1,-3,-2,-3,-2
1558441623479911,-4,-5,-5,-4,-9,3,-3,-3
1558441623481906,-2,-2,-3,-3,0,-3,-1,-1
1558441623481906,-1,-1,1,-1,5,-1,4,-1
1558441623493872,-2,-2,-1,1,-3,0,0,-2
1558441623493872,1,0,-3,-2,-3,-4,-4,-3
1558441623533767,-3,-2,-3,-3,-1,5,2,-3
1558441623533767,-1,-1,3,0,0,-2,0,1
1558441623534764,-1,-1,0,0,0,-4,-3,-1
1558441623534764,3,2,7,0,-3,3,-4,-2
1558441623535762,-10,-8,-8,-4,-1,-3,-2,-1
1558441623535762,0,0,-10,-1,8,7,7,3
1558441623539750,-6,-2,-2,-2,-3,-1,-1,0
1558441623539750,-1,-2,-7,-3,-3,3,-2,-2
1558441623541748,2,1,5,4,-4,-10,-1,-1
1558441623541748,5,4,8,0,-2,-8,-1,-1
1558441623553713,0,-6,-1,-2,-4,2,2,-1
1558441623553713,0,2,3,0,0,-1,0,-2
1558441623578646,-1,-1,-7,-5,-1,3,-3,-1
1558441623578646,-4,-4,-3,-1,-8,-11,-6,-4
1558441623579645,0,5,0,-3,-4,3,-3,-1
1558441623579645,-2,-4,-2,0,0,-5,-1,1
1558441623583634,3,-1,0,4,6,4,2,-3
1558441623583634,-1,0,3,-1,-6,1,-3,-1
1558441623591612,-2,1,2,1,6,5,-2,2
1558441623591612,-7,-9,-9,-5,-4,-3,-4,-2
1558441623606572,-1,-1,-5,-2,-4,-13,-2,-1
1558441623606572,-1,-2,1,0,1,-1,-1,-3
1558441623621532,3,2,6,4,3,9,5,0
1558441623621532,-1,2,-4,-1,0,6,0,-2
1558441623630509,-1,-1,-2,-3,0,-5,-4,-1
1558441623630509,-4,-3,3,2,-1,1,-2,-1
1558441623631506,-2,-3,1,-1,-5,-15,-1,-3
1558441623631506,1,0,-6,-4,2,1,1,-1
1558441623645468,0,0,2,1,-3,6,0,-1
1558441623645468,0,-2,1,0,3,7,1,-1
1558441623651452,2,2,-2,-2,-2,-5,-3,-1
1558441623651452,-5,-4,-2,-1,-4,-7,0,0
1558441623666414,0,1,2,2,3,11,3,1
1558441623666414,0,0,-1,-1,8,-2,7,4
1558441623681374,1,0,2,3,0,-5,-3,0
1558441623681374,-2,-5,-4,-4,-2,0,-3,-3
1558441623690348,-3,-4,-8,-5,-5,-3,-7,-6
1558441623690348,1,-1,1,0,1,3,-1,0
1558441623691347,-3,0,-2,-2,-5,-8,-4,-1
1558441623691347,-1,-1,2,-2,-6,-2,-1,-3
1558441623703313,-1,-1,3,2,2,11,3,-3
1558441623703313,-6,-6,-8,-4,-1,-9,-2,-2
1558441623711291,-1,1,4,2,6,-3,3,1
1558441623711291,0,0,-1,-1,2,-9,1,1
1558441623749191,3,5,1,-1,-1,4,-2,1
1558441623749191,-1,-6,-3,0,-5,3,-3,-1
1558441623759165,-5,-2,-4,-3,-6,-1,-1,-4
1558441623759165,1,0,-1,1,1,-4,-2,-2
1558441623760163,-2,-3,-2,-5,0,3,1,-1
1558441623760163,2,1,-3,-4,-9,-5,-5,-4
1558441623761160,-1,-3,-2,-1,7,4,3,1
1558441623761160,0,0,1,1,4,-10,3,3
1558441623765151,0,1,8,4,1,1,1,1
1558441623765151,-3,1,-7,-3,0,7,-1,-1
1558441623771132,1,-1,-1,-1,-4,-3,-3,-2
1558441623771132,-2,1,5,-1,-3,1,-4,-2
1558441623812023,0,-1,-8,-4,-9,-6,-2,-3
1558441623812023,3,5,8,2,10,8,7,5
1558441623813020,-1,-3,-1,1,1,-2,-2,1
1558441623813020,-3,-6,-4,-2,-3,5,-4,-2
1558441623818006,-2,-2,-1,-2,-1,-9,-3,-1
1558441623818006,-3,-1,-2,-4,-6,-5,-5,-5
1558441623818006,1,4,4,-2,-4,-2,-5,-4
1558441623818006,-2,-2,-2,-3,-4,-10,-5,-5
1558441623823991,-4,-6,-7,-3,-8,-1,-3,-2
1558441623823991,0,0,0,5,10,-1,5,4
1558441623830972,1,-4,-3,-3,1,0,1,-1
1558441623830972,0,2,0,2,1,9,3,1
1558441623864882,0,1,4,1,5,-2,4,1
1558441623864882,1,0,4,-3,-8,-7,-3,-2
1558441623864882,-5,-3,-10,0,-5,-3,-2,0
1558441623864882,2,3,2,-2,-8,-1,-5,-3
1558441623878844,-8,-8,-11,-2,-2,0,-8,-3
1558441623878844,-3,0,6,4,3,5,6,6
1558441623879842,2,1,-4,0,12,0,4,3
1558441623879842,4,4,6,2,1,5,3,-1
1558441623883831,0,0,1,-2,-2,-8,-5,-1
1558441623883831,-4,-3,-2,-4,-7,1,-5,-7
1558441623900786,-2,-4,3,-3,-8,-6,-3,0
1558441623900786,-1,-1,-3,0,5,-1,3,2
1558441623923724,2,-1,-2,-1,-5,-4,-3,-1
1558441623923724,-4,-8,-7,-6,-9,-9,-8,-6
1558441623923724,-1,-1,-7,-2,3,2,4,2
1558441623923724,3,2,4,3,11,7,7,7
1558441623925719,1,2,6,2,4,-5,1,1
1558441623925719,2,1,1,-1,3,1,2,3
1558441623936689,-2,-3,-2,-4,-8,-6,-4,-2
1558441623936689,-2,0,1,1,-4,-1,-3,-3
1558441623943670,-2,-4,-7,-4,-5,5,-2,-2
1558441623943670,-1,0,-1,-2,-10,-5,-13,-7
1558441623959630,-3,0,-5,-2,-10,-1,-3,-2
1558441623959630,2,1,3,5,16,12,12,5
1558441623966609,-3,-2,5,3,10,-1,8,5
1558441623966609,0,0,-4,1,-4,-10,-3,-3
1558441623973591,0,-1,2,-4,-4,5,-4,-2
1558441623973591,-2,-2,-5,-4,-10,-11,-6,-3
1558441623982567,0,1,0,-1,-1,5,1,-2
1558441623982567,-1,1,8,3,4,2,-1,1
1558441623996529,1,2,-4,0,2,5,1,-3
1558441623996529,-6,-11,-8,-5,-12,-14,-8,-6
1558441624003511,-4,-1,-4,-5,-4,-2,-6,-3
1558441624003511,-2,0,2,3,1,1,4,3
1558441624011490,1,3,1,5,15,-3,8,7
1558441624011490,2,0,0,2,1,1,-1,-2
1558441624026449,-2,-4,-3,-3,-3,1,-3,0
1558441624026449,-1,-1,-2,-2,-1,6,0,-2
1558441624033431,-2,-3,2,0,-4,-4,-4,-2
1558441624033431,-2,-1,-7,-2,-1,-2,-3,0
1558441624042406,5,6,8,4,8,-4,2,4
1558441624042406,-1,-1,-8,-3,-2,-1,-5,-3
1558441624065345,-1,-4,-1,-3,-7,3,-2,-4
1558441624065345,-9,-8,-5,-1,-4,-6,-4,-3
1558441624066343,-1,-1,5,1,2,2,5,-1
1558441624066343,1,2,-3,0,7,0,7,2
1558441624088285,-4,-1,-2,-1,-2,-3,0,-3
1558441624088285,0,2,3,-3,-6,1,-6,-1
1558441624094268,-2,-1,-4,0,-1,0,-2,-1
1558441624094268,-2,-2,0,-2,-2,-3,-3,-2
1558441624095266,-3,-4,-6,-3,-11,0,-10,-5
1558441624095266,-1,-1,4,0,-7,6,1,0
1558441624102246,7,5,7,5,21,0,18,9
1558441624102246,-3,-6,-5,-4,4,-13,2,1
1558441624125185,1,1,1,2,3,6,1,-2
1558441624125185,-4,-4,-5,-5,-8,-4,-8,-4
1558441624126183,-2,-1,-2,-2,-11,0,-8,-5
1558441624126183,0,-1,0,0,-7,-1,-5,-1
1558441624131170,2,1,2,0,10,2,7,4
1558441624131170,1,2,1,2,8,1,1,0
1558441624146134,-1,1,-2,0,-3,4,0,-3
1558441624146134,2,1,-3,-2,-5,-9,-5,-2
1558441624154110,-11,-10,0,-2,-7,-4,-6,-5
1558441624154110,2,1,-3,-2,-1,-11,-2,0
1558441624163087,-1,-3,-1,-2,3,1,-1,1
1558441624163087,-2,-3,-6,-4,-9,5,-1,-3
1558441624177047,2,5,6,1,7,-2,9,5
1558441624177047,0,2,6,5,7,7,2,-1
1558441624184030,-3,-5,-11,-8,-10,-6,-5,-3
1558441624184030,-3,-2,-4,-1,1,4,0,-2
1558441624191010,1,0,-3,-3,-10,-10,-8,-3
1558441624191010,-3,-4,-1,-2,0,1,2,1
1558441624205969,3,0,-1,2,3,5,-1,1
1558441624205969,1,3,3,1,5,2,4,2
1558441624213948,-1,-2,1,0,-1,0,-2,-1
1558441624213948,-1,-1,-1,-3,-3,-2,-3,-3
1558441624222931,-1,-2,2,-2,-5,-8,-3,-2
1558441624222931,-1,-3,-2,-2,-3,-3,-5,-2
1558441624237886,-1,2,0,-3,-5,3,-6,-1
1558441624237886,3,3,-4,1,7,0,6,3
1558441624243872,-4,-6,-3,1,-2,-2,0,-3
1558441624243872,2,-1,3,2,-6,-7,-1,-2
1558441624250851,-11,-9,-1,-1,-1,-1,-1,-4
1558441624250851,-3,-2,-1,-1,-1,1,1,1
1558441624266809,1,3,0,-3,-1,1,0,-3
1558441624266809,-1,-3,-3,-1,2,-5,-1,2
1558441624273789,1,0,2,3,1,5,1,1
1558441624273789,-2,-4,-4,-5,-4,2,-2,-2
1558441624288750,-3,-4,-2,0,0,-3,1,-1
1558441624288750,-2,-1,-4,-3,-3,-3,-5,-4
1558441624296728,4,1,-2,-1,-1,3,-1,0
1558441624296728,-1,-1,0,-1,-2,-3,-1,-1
1558441624311689,3,1,0,-2,-4,-2,-5,-1
1558441624311689,1,-1,3,0,3,5,6,2
1558441624312684,-2,-1,-1,-2,0,-12,-2,0
1558441624312684,1,0,0,-1,0,5,-1,-3
1558441624326646,3,1,1,2,1,-1,-2,1
1558441624326646,0,0,2,1,4,4,0,-1
1558441624333627,1,-2,-2,-3,-1,2,0,-2
1558441624333627,2,3,1,-2,-7,-8,-2,-1
1558441624348587,-2,-5,3,-1,-3,-2,-4,-2
1558441624348587,-1,-2,-11,-1,5,8,5,1
1558441624357569,3,0,0,-2,3,-8,1,2
1558441624357569,-1,0,0,-2,-6,-3,-5,-3
1558441624371591,1,-1,-1,0,6,1,3,1
1558441624371591,-4,0,10,2,-4,-3,-4,-3
1558441624372523,0,-2,-10,-8,-10,-7,-4,-4
1558441624372523,-3,-2,0,-1,1,-1,-3,-1
1558441624386548,-1,-3,0,-3,-4,-4,-5,-4
1558441624386548,-1,-2,1,-2,-6,4,-5,-3
1558441624393629,-2,0,-3,4,11,16,8,1
1558441624393629,3,2,6,2,2,-20,3,1
1558441624408430,-4,-1,-8,-1,0,3,2,1
1558441624408430,-1,-1,-1,-4,-1,3,-1,-1
1558441624417412,-2,0,4,0,-4,2,-4,-2
1558441624417412,0,-2,-1,-2,0,11,1,-1
1558441624432364,2,0,-1,-3,-5,-10,-6,-2
1558441624432364,-8,-7,-3,-1,-8,-13,-5,-2
1558441624432364,0,2,2,1,3,3,0,0
1558441624432364,-1,0,3,3,0,-2,-4,0
1558441624446325,-3,-3,-2,-3,-4,2,-1,-2
1558441624446325,-2,-2,-12,-2,6,0,2,1
1558441624454306,2,2,6,1,-1,-14,-2,-3
1558441624454306,-3,-4,-1,-2,-3,4,-2,-2
1558441624468269,-4,0,-2,-4,-5,5,-5,-7
1558441624468269,0,1,3,1,-4,-3,0,1
1558441624477252,-2,-3,-5,1,12,1,7,4
1558441624477252,2,1,-1,0,2,-3,2,0
1558441624492205,-3,1,0,-2,-3,-3,-2,0
1558441624492205,1,-1,0,-1,-4,3,-1,-2
1558441624492205,-3,-5,0,-4,-8,-1,-7,-4
1558441624492205,-1,-5,-4,-3,-5,-5,-6,-3
1558441624506166,3,2,3,0,-2,-9,-1,1
1558441624506166,0,-1,2,0,1,-4,0,0
1558441624514145,2,4,-4,0,5,9,5,1
1558441624514145,0,-5,-2,-1,-1,-13,2,2
1558441624529105,0,0,-2,0,1,-1,2,0
1558441624529105,3,1,5,1,2,-3,-3,0
1558441624537083,-3,-3,-4,-3,-5,-4,-4,-2
1558441624537083,-2,-1,-4,-4,-3,5,0,-3
1558441624552043,-2,-3,-3,-4,-8,3,-1,-2
1558441624552043,-3,0,-1,1,0,-6,-3,-1
1558441624553041,2,3,9,2,3,2,1,-1
1558441624553041,-1,0,-4,-2,3,1,0,-2
1558441624566005,-4,-6,-1,-3,-5,-1,-2,-1
1558441624566005,0,-3,-5,-3,-7,2,-1,-3
1558441624573984,0,0,2,-2,-5,-9,-2,-1
1558441624573984,-2,-1,-5,-1,-1,8,-3,-1
1558441624588952,-2,1,-4,-2,3,3,0,-2
1558441624588952,2,-1,-1,1,9,0,2,3
1558441624596925,0,1,-5,-3,-3,-2,0,-1
1558441624596925,2,-3,3,2,5,-1,0,3
1558441624611888,-2,0,3,2,-5,-17,-3,-1
1558441624611888,2,3,0,-1,2,3,-2,-2
1558441624612882,-1,-4,0,3,4,11,5,-1
1558441624612882,-2,2,-2,-1,-1,-2,-2,-1
1558441624625911,-1,-4,-2,-2,-1,-2,0,0
1558441624625911,-2,-4,-2,-2,-5,-10,-7,-1
1558441624633829,0,-1,-6,-3,-8,-2,-6,-3
1558441624633829,-3,0,4,2,-2,5,0,-2
1558441624648785,-2,-3,-2,1,3,5,-1,-1
1558441624648785,-1,0,2,-3,1,-4,4,0
1558441624656824,2,0,-1,1,9,9,4,3
1558441624656824,-2,-1,-2,-3,-5,-8,0,1
1558441624671793,3,3,-2,1,3,-2,0,-1
1558441624671793,-14,-9,-4,-3,-6,-2,-4,-4
1558441624672727,-2,-4,-6,-6,-5,-3,-5,-1
1558441624672727,0,0,1,0,0,-3,-1,0
1558441624686684,2,-1,9,5,2,-1,0,2
1558441624686684,5,4,3,1,1,3,1,0
1558441624693671,-5,-6,-19,-9,-7,-8,-1,-2
1558441624693671,-2,-3,-6,-2,-10,-6,-4,-3
1558441624708624,-2,-1,0,-2,2,7,0,0
1558441624708624,1,2,9,3,0,11,4,2
1558441624716603,-1,-3,0,-3,0,-5,-5,-3
1558441624716603,2,1,-5,0,5,8,1,0
1558441624731566,1,-2,0,-1,-2,0,0,1
1558441624731566,-1,-4,-5,-3,-5,-9,-2,-3
1558441624732560,-3,0,5,1,0,3,0,-1
1558441624732560,-2,-4,-8,-6,-6,4,-2,-4
1558441624746523,-1,0,-1,-1,3,-6,-2,0
1558441624746523,1,0,-3,-6,-7,-10,-4,-3
1558441624753505,2,0,2,2,6,10,3,3
1558441624753505,-3,-1,2,0,2,-1,0,0
1558441624768495,-1,-1,-3,-1,-9,0,-5,-5
1558441624768495,-10,-10,-7,-4,-2,-4,-4,-4
1558441624776482,-3,-2,1,0,-6,-11,-3,-3
1558441624776482,2,4,6,5,6,4,7,4
1558441624791404,-3,-3,-5,-4,2,-1,2,0
1558441624791404,4,2,-2,1,-1,1,-4,-3
1558441624792400,-3,-3,3,-2,-1,1,-5,-3
1558441624792400,1,-1,-3,-2,2,-5,2,1
1558441624806421,-2,-4,-1,-2,-3,8,0,0
1558441624806421,0,0,-6,-1,1,-1,1,1
1558441624813344,0,0,4,2,-3,-9,-3,-1
1558441624813344,0,4,6,-1,0,-4,-1,0
1558441624828304,0,1,-5,-1,3,-1,2,-1
1558441624828304,-1,-1,0,-2,-1,6,1,-2
1558441624852241,-1,-4,-4,-2,0,3,-1,0
1558441624852241,-3,-6,1,0,-5,-6,-4,-3
1558441624854235,-2,-2,-3,-1,-2,-2,-1,-4
1558441624854235,1,2,-3,-2,2,2,0,-1
1558441624859221,1,2,3,2,-3,-12,-1,0
1558441624859221,-1,3,2,-1,0,5,-2,-3
1558441624866202,-4,-5,-7,-5,0,8,-1,-3
1558441624866202,2,4,2,2,4,-3,4,3
1558441624874180,-4,-2,-4,-2,0,-3,1,-1
1558441624874180,-2,-4,3,0,2,-7,-3,0
1558441624889178,1,2,5,3,0,3,1,1
1558441624889178,1,-1,-6,-4,1,-2,-1,1
1558441624913078,1,-1,-3,-3,-7,-1,-4,-4
1558441624913078,-5,-4,-1,0,-6,-3,-4,-5
1558441624921092,0,2,3,0,-3,-7,-4,-1
1558441624921092,-2,0,0,0,4,-1,3,1
1558441624922052,-3,-2,0,-2,-8,-6,-4,-4
1558441624922052,1,2,-4,-4,-6,-5,-4,-1
1558441624926077,-2,-3,1,3,12,9,7,3
1558441624926077,-1,0,8,3,-2,3,-3,-2
1558441624934055,0,0,-3,4,5,6,3,1
1558441624934055,-2,-6,-6,-10,-9,1,-5,-6
1558441624973914,-2,0,-3,-2,-10,-14,-7,-2
1558441624973914,0,0,0,2,5,-6,2,2
1558441624974912,1,3,3,0,11,-2,8,6
1558441624974912,-3,-1,-2,1,-1,-2,-2,-1
1558441624975909,2,1,2,-4,-7,2,-7,-4
1558441624975909,1,-1,-3,0,-2,11,0,-1
1558441624978901,2,3,-1,-2,-4,-1,-4,-5
1558441624978901,-3,-5,2,4,3,0,3,5
1558441624985942,-3,-5,-12,-9,-4,-12,-1,-1
1558441624985942,-4,-1,0,3,-1,12,0,-3
1558441624993920,3,2,-2,-2,3,-4,1,1
1558441624993920,-4,-3,-3,-2,-3,-4,-3,-4
1558441625024820,1,3,12,7,0,0,-1,-2
1558441625024820,-2,-7,-6,-4,-4,-5,-2,-3
1558441625032757,-4,-1,-8,-6,-4,7,-3,-3
1558441625032757,-1,-1,-1,1,2,-1,0,0
1558441625033754,-3,-4,-3,0,-4,-13,-4,-2
1558441625033754,3,3,5,0,5,6,6,2
1558441625039739,-3,-2,-1,2,-4,2,-2,-1
1558441625039739,0,-4,-3,-1,5,5,-2,-2
1558441625054699,4,2,4,-2,1,-6,2,-1
1558441625054699,1,0,0,-3,-2,-8,-4,-2
1558441625054699,-14,-12,-6,-4,-9,-10,-6,-5
1558441625054699,0,4,-3,-1,-2,6,3,3
1558441625084652,-2,-1,-2,2,5,8,1,0
1558441625084652,-2,-3,-3,-2,-4,-1,-4,-4
1558441625085616,0,0,3,0,-7,-1,-2,-3
1558441625085616,1,0,3,1,-1,-14,-4,-1
1558441625091600,-2,-5,-5,-5,1,1,4,3
1558441625091600,-2,2,4,-1,0,0,-1,-2
1558441625099605,1,-5,-4,-3,-5,1,-4,-1
1558441625099605,-2,2,-1,-3,-7,4,-6,-6
1558441625146453,0,0,-2,0,4,4,5,1
1558441625146453,-2,0,-3,-1,6,-3,3,1
1558441625147450,5,4,6,2,7,7,3,2
1558441625147450,-2,-6,-5,2,-2,-8,0,-2
1558441625148448,-2,-2,-6,-5,-9,-8,-7,-4
1558441625148448,2,-1,-1,0,-2,2,0,1
1558441625152437,-2,-2,3,-3,1,0,-2,-2
1558441625152437,2,0,1,-2,-7,-21,-4,-1
1558441625154431,2,3,2,1,2,3,1,-1
1558441625154431,-7,-6,-3,-2,-6,-2,-2,-4
1558441625159418,-2,-2,-4,-2,-4,-5,-3,-1
1558441625159418,-1,0,0,-2,6,19,4,1
1558441625174377,-1,-3,-2,-1,2,8,1,0
1558441625174377,0,0,-1,0,0,0,-2,0
1558441625175374,0,3,4,0,-4,-15,-4,0
1558441625175374,0,0,-1,2,8,3,5,2
1558441625198314,-7,-4,-6,-4,-9,-5,-6,-7
1558441625198314,-2,-4,-10,-4,-6,4,-2,-4
1558441625199313,4,4,8,3,8,1,5,4
1558441625199313,1,0,-10,-5,2,4,1,0
1558441625211319,-4,-2,7,0,-2,-1,-2,-2
1558441625211319,5,2,-1,0,1,-17,-2,1
1558441625219298,-5,-2,-1,0,-4,-6,-3,-1
1558441625219298,-3,-5,-6,-4,0,-1,1,1
1558441625235215,-3,-1,0,1,4,8,2,1
1558441625235215,-3,-2,-4,-5,-9,-5,-6,-4
1558441625236213,5,3,1,0,7,13,5,1
1558441625236213,0,-1,-1,1,7,-4,2,2
1558441625249177,-2,1,-3,-1,-4,-7,-3,-2
1558441625249177,-2,-1,6,3,-1,1,-3,-2
1558441625256159,2,5,-1,0,-5,-6,-4,-2
1558441625256159,-4,-11,-8,-7,-10,-9,-6,-6
1558441625271177,-2,-2,2,0,3,3,1,0
1558441625271177,0,1,-5,-2,-5,-14,-1,0
1558441625287121,-6,-6,-4,-5,2,12,1,-1
1558441625287121,2,6,5,2,0,1,0,0
1558441625295119,3,-3,-3,-3,-5,-10,-5,-2
1558441625295119,2,1,7,2,3,8,2,3
1558441625296060,-13,-11,-7,-6,-6,1,-3,-5
1558441625296060,0,0,-3,1,1,11,6,2
1558441625310014,0,-2,4,2,3,-17,0,3
1558441625310014,-1,-1,-2,-1,-2,-4,-3,-4
1558441625316000,3,-1,-2,-2,2,-1,0,1
1558441625316000,1,3,7,3,4,3,5,1
1558441625330960,-2,0,0,-2,-2,5,0,-2
1558441625330960,-1,-1,-6,-5,-5,-1,-2,-2
1558441625338937,2,4,2,3,4,0,1,1
1558441625338937,-3,-3,0,1,-4,0,-8,-5
1558441625354897,-3,-10,-13,-8,-6,-9,-5,-2
1558441625354897,-1,-2,-2,-1,0,-6,1,1
1558441625354897,1,-1,-1,-4,-2,12,5,1
1558441625354897,2,4,5,2,-1,-2,0,-1
1558441625368859,7,6,7,0,2,-6,-2,1
1558441625368859,1,0,-4,1,5,14,6,1
1558441625375840,-12,-9,-4,0,-6,-7,-8,-6
1558441625375840,-3,-4,1,-3,0,0,-1,1
1558441625390800,-3,-4,-3,2,2,0,2,1
1558441625390800,3,1,2,1,2,-8,-2,1
1558441625399776,2,5,3,0,-3,-4,2,-2
1558441625399776,-5,-5,-14,-7,-5,1,-7,-5
1558441625414735,-2,1,0,0,-4,14,-1,-4
1558441625414735,-3,1,-2,-2,-4,-4,0,-3
1558441625414735,2,-4,2,2,2,-12,-2,2
1558441625414735,-2,2,4,-1,5,-2,2,1
1558441625428697,3,0,-6,-1,-2,0,-2,0
1558441625428697,-7,-5,1,-3,-7,7,-6,-6
1558441625436677,1,-3,-10,-3,-5,-4,0,-1
1558441625436677,1,3,4,1,5,-3,1,2
1558441625451637,2,6,3,2,5,6,5,0
1558441625451637,-3,-3,1,-2,-6,-8,-5,-3
1558441625459616,2,-5,-1,-1,4,4,2,-1
1558441625459616,-9,-9,1,1,-5,-3,-4,-3
1558441625474574,-1,4,4,2,1,0,1,0
1558441625474574,-3,-5,-8,-5,-5,-3,-4,-2
1558441625475572,0,3,-1,-4,-3,-11,-10,-4
1558441625475572,4,2,-4,-1,0,2,3,2
1558441625488538,-2,-2,10,5,7,-8,3,3
1558441625488538,-1,-2,0,-4,1,11,1,0
1558441625496516,0,3,-2,-1,-1,1,0,-1
1558441625496516,-2,-5,-6,-4,-4,2,-3,-4
1558441625511476,-1,2,-2,0,-4,-2,-1,-3
1558441625511476,2,-3,3,3,6,-2,3,3
1558441625519456,2,1,3,-2,0,-2,-1,0
1558441625519456,-2,-2,-4,-2,-2,2,-3,-2
1558441625534416,-3,-6,-6,-3,-6,1,-2,-3
1558441625534416,2,1,5,2,8,4,4,-1
1558441625535413,3,2,-2,0,0,2,2,0
1558441625535413,-13,-8,-2,-2,-5,-7,-4,-4
1558441625548379,-1,-3,-4,-6,-4,-1,-1,-2
1558441625548379,2,5,1,0,4,-7,2,1
1558441625556355,-4,-2,-1,-2,-5,-3,-10,-2
1558441625556355,4,4,-1,-1,-2,3,0,-3
1558441625571317,-2,-6,-4,1,3,4,3,2
1558441625571317,-4,0,-3,-2,1,2,-1,-2
1558441625579296,-2,-6,0,0,-1,-2,-1,-2
1558441625579296,-3,-6,-1,-1,0,0,3,0
1558441625594317,-2,-4,-5,-3,-9,0,-9,-6
1558441625594317,0,0,-1,-1,-6,-3,-3,0
1558441625595253,2,7,8,6,7,1,5,3
1558441625595253,2,5,1,-2,-4,-2,-3,-1
1558441625609482,-3,-4,-5,-2,2,7,-3,-1
1558441625609482,-1,-6,-6,-4,-3,-3,0,-1
1558441625616570,4,2,6,1,-1,0,7,3
1558441625616570,-3,-2,5,1,1,-6,-2,0
1558441625633154,-4,-1,-6,-3,-2,-1,-6,-3
1558441625633154,-1,-3,-6,-6,-2,-14,-3,1
1558441625640240,-1,2,-1,3,4,13,6,0
1558441625640240,3,-2,-1,1,0,-3,-1,-1
1558441625654095,-2,-3,-1,-2,0,-1,-2,-2
1558441625654095,-1,3,6,2,-1,5,-4,-2
1558441625655094,-5,-8,-16,-6,-10,-8,-6,-3
1558441625655094,1,3,4,2,6,6,7,2
1558441625677035,2,3,8,1,4,4,3,1
1558441625677035,-2,-6,-10,-4,-2,-2,-3,-2
1558441625678031,-6,-10,-5,-6,-9,-5,-9,-6
1558441625678031,1,5,-3,-4,-4,-1,-4,0
1558441625690995,-1,1,-3,0,-1,-15,-4,2
1558441625690995,3,2,9,4,2,1,6,2
1558441625698974,0,0,-6,-4,0,6,-1,-2
1558441625698974,-13,-11,-6,-4,-3,-4,-5,-3
1558441625713936,3,2,3,1,3,-5,5,3
1558441625713936,-3,-3,-5,-1,-1,-1,-2,0
1558441625714932,0,-1,-2,-1,-7,-9,-6,-3
1558441625714932,3,1,0,-1,-6,4,-6,-4
1558441625736931,2,1,1,-2,-4,6,-1,-1
1558441625736931,-3,2,1,-1,1,-4,-2,-3
1558441625737907,-2,-2,2,2,9,5,3,0
1558441625737907,3,5,4,3,-2,-2,6,2
1558441625750835,-4,-6,-3,-1,-5,-4,-1,-4
1558441625750835,-2,-4,-5,-1,-2,-5,-7,-2
1558441625759811,-2,1,2,-2,0,0,1,0
1558441625759811,4,1,-1,-3,-5,-6,-3,0
1558441625774771,2,3,4,2,4,-4,2,1
1558441625774771,-3,-6,-5,-2,-4,4,-5,-6
1558441625774771,1,5,2,1,2,5,0,0
1558441625774771,-7,-7,-3,2,1,6,3,-1
1558441625788794,-1,-5,-4,-5,-6,-6,0,-3
1558441625788794,-1,-2,3,1,-1,-7,-2,-2
1558441625795778,3,4,0,-1,5,3,4,4
1558441625795778,3,7,8,4,1,-5,-3,0
1558441625811675,-3,-3,-6,-6,-5,-7,-8,-5
1558441625811675,-3,-8,-10,-3,-3,4,-2,-2
1558441625819653,-1,-2,3,0,-2,-13,-5,1
1558441625819653,2,3,6,2,3,0,-1,0
1558441625833616,-1,-2,-6,0,1,0,2,-2
1558441625833616,-3,-3,1,-1,-1,5,2,-1
1558441625841594,1,3,0,1,-8,-5,-3,-5
1558441625841594,1,-6,-7,-4,2,-6,-4,1
1558441625848574,-1,3,3,0,-2,0,-2,2
1558441625848574,0,2,4,1,-2,2,-3,0
1558441625856554,-3,-7,-6,-6,-1,-4,2,0
1558441625856554,-2,-5,-7,-3,-8,-3,-5,-3
1558441625871545,-1,-1,-2,1,5,7,-1,-3
1558441625871545,0,5,6,4,4,-3,1,0
1558441625879492,-1,3,-1,-4,-1,2,0,-1
1558441625879492,-4,-7,-7,-5,-3,3,-3,-2
1558441625893454,-1,-5,3,-2,-4,1,-6,-3
1558441625893454,3,4,2,5,8,5,10,2
1558441625901432,-1,-4,-1,-2,0,-7,-6,-2
1558441625901432,1,2,-2,-4,1,3,4,0
1558441625908414,0,3,6,1,3,0,-2,0
1558441625908414,-3,-5,4,-1,-3,2,-2,-3
1558441625916394,-1,-2,-8,0,-4,1,2,-3
1558441625916394,-3,-5,1,0,3,-6,0,0
1558441625931353,-3,-1,-8,-2,-1,2,0,1
1558441625931353,2,7,6,-2,1,-5,-2,1
1558441625939331,0,-4,-2,-1,-9,-3,-10,-6
1558441625939331,-1,0,-9,-5,-5,0,-2,-2
1558441625953295,0,2,3,1,7,8,6,3
1558441625953295,-7,-9,-9,-4,-4,0,0,-5
1558441625962269,1,1,7,3,4,1,9,4
1558441625962269,3,0,2,2,1,-14,-6,-3
1558441625977264,2,-1,-2,-2,-1,-2,1,1
1558441625977264,4,7,3,-2,-6,-8,-1,3
1558441625977264,-5,-7,-9,-1,-3,5,-4,-2
1558441625977264,0,2,-4,2,7,13,2,-1
1558441625991562,-2,-1,-2,-3,-7,-3,-3,-4
1558441625991562,2,-1,-4,-1,3,1,-2,-1
1558441626000214,-1,-1,5,3,0,-12,3,1
1558441626000214,0,1,3,-2,-4,-8,-1,0
1558441626014136,-4,-4,-2,-3,-4,-5,-6,-5
1558441626014136,-2,-3,-3,-4,-5,4,-4,-2
1558441626022393,0,-4,-8,-4,5,-2,0,-2
1558441626022393,3,5,1,0,4,15,3,2
1558441626037391,7,8,9,3,-3,-12,0,2
1558441626037391,-5,0,-7,-6,-6,-8,-6,-1
1558441626038391,-4,-12,2,2,3,-8,0,3
1558441626038391,1,6,1,0,3,6,1,-2
1558441626051369,1,0,-2,-2,-7,-1,-3,-4
1558441626051369,-4,-10,-2,-4,-3,0,0,-2
1558441626060285,0,-3,1,1,1,4,0,-4
1558441626060285,0,-1,-6,-1,0,-2,-2,0
1558441626073999,-1,2,8,6,3,3,-1,0
1558441626073999,1,-1,-12,-7,-1,-2,0,1
1558441626081950,-5,-1,-4,-6,-9,-1,-3,-3
1558441626081950,-3,-2,0,-4,-11,-12,-8,-5
1558441626096919,0,1,11,7,4,-1,4,2
1558441626096919,0,-2,-8,-1,4,3,6,1
1558441626097909,1,-1,-5,-1,-1,-4,-2,2
1558441626097909,-3,-5,-2,-2,-3,-4,-7,-2
1558441626112103,-3,3,0,-2,-4,1,-5,-3
1558441626112103,0,-2,4,1,-3,0,1,1
1558441626128103,2,3,0,-3,-1,1,0,-2
1558441626128103,-8,-6,-3,1,2,-9,2,0
1558441626135154,-1,-4,-2,-1,-4,-9,-4,-1
1558441626135154,-1,1,1,-1,-2,8,1,0
1558441626142125,0,5,-3,-3,-5,2,-2,2
1558441626142125,3,1,10,8,7,2,9,3
1558441626157081,0,-2,-10,-6,3,7,2,-2
1558441626157081,-6,-8,2,2,1,-1,-6,-6
1558441626157749,-1,1,0,1,0,0,-4,-1
1558441626157749,-2,-7,-1,-7,-10,-3,-6,-2
1558441626179693,-3,-5,-3,0,-4,-2,0,0
1558441626179693,3,4,-9,-2,3,-7,4,3
1558441626180686,-4,0,-3,-1,-1,5,3,-1
1558441626180686,-1,-2,0,2,-1,-7,2,1
1558441626193961,3,7,5,-1,4,7,5,2
1558441626193961,1,-3,8,3,0,-5,-5,-1
1558441626201905,-1,3,8,5,6,-5,3,0
1558441626201905,-1,-3,-15,-13,-12,-7,-8,-4
1558441626216860,-6,-9,-9,-2,-9,0,-1,-3
1558441626216860,-1,1,-4,0,-4,-3,-1,-1
1558441626217589,2,-1,1,2,5,7,1,3
1558441626217589,2,5,5,1,0,4,0,0
1558441626231585,1,-5,2,1,4,-3,-2,-1
1558441626231585,-7,-3,-6,-2,2,2,2,-3
1558441626239798,2,4,9,5,-4,-5,-4,-4
1558441626239798,-4,-9,-10,-10,-10,0,-7,-3
1558441626253746,-5,-5,-14,-7,0,12,1,-1
1558441626253746,1,2,7,7,4,-10,4,3
1558441626262506,2,2,1,0,8,-5,5,1
1558441626262506,-1,3,5,4,3,-7,-1,-2
1558441626276431,-1,2,1,1,-3,0,-4,-5
1558441626276431,-2,-3,6,-2,-6,3,-6,-3
1558441626277429,-2,-2,-4,-4,-4,0,-4,-1
1558441626277429,4,6,3,0,0,3,2,2
1558441626291621,1,1,-5,-5,-9,-13,-7,-1
1558441626291621,-6,-3,2,0,-2,9,1,-1
1558441626299370,-1,-3,0,4,1,-6,0,0
1558441626299370,-4,-12,-11,-4,2,-4,1,-1
1558441626313333,0,2,1,1,7,4,4,3
1558441626313333,1,3,-1,-1,-2,-3,-6,-3
1558441626322308,-5,-2,-5,-6,-10,4,-7,-3
1558441626322308,-1,5,3,1,-4,2,-2,-2
1558441626337267,-8,-13,0,-1,3,-7,-1,1
1558441626337267,5,4,-2,0,0,-1,6,1
1558441626337267,-1,-1,-1,-1,3,-3,1,0
1558441626337267,-1,0,5,3,-1,3,-1,-1
1558441626351230,-1,1,-3,-4,0,6,-3,-2
1558441626351230,-4,-2,-6,-1,-2,2,-2,-3
1558441626359210,-3,-4,-7,-2,-8,-9,-5,-4
1558441626359210,-1,-1,3,-2,-2,-1,-5,-4
1558441626374466,0,4,9,0,-1,-3,-3,-1
1558441626374466,-3,-6,-22,-6,3,3,7,3
1558441626382485,-1,-6,6,2,2,-5,1,3
1558441626382485,-1,-3,-12,-3,3,2,4,0
1558441626397109,0,-1,-3,1,-6,-11,-3,-2
1558441626397109,0,3,6,0,-3,0,-8,-4
1558441626398190,-2,-1,-8,-5,-5,3,-4,-3
1558441626398190,-1,-2,6,3,4,7,1,1
1558441626411329,-1,3,0,1,1,-2,3,0
1558441626411329,-2,-7,-3,-3,-6,-7,-6,-1
1558441626419306,1,0,3,2,7,-4,6,0
1558441626419306,-3,0,-1,3,6,-1,3,1
1558441626434036,2,4,0,0,2,3,-1,0
1558441626434036,-2,-1,8,1,-3,-8,-5,-4
1558441626442016,-4,-7,-14,-7,-9,-2,-3,-4
1558441626442016,0,-1,7,0,2,0,-4,0
1558441626456946,0,-1,-8,-3,-4,-6,0,0
1558441626456946,5,1,-1,-2,3,2,0,0
1558441626457944,-10,-6,3,0,-1,8,0,0
1558441626457944,1,2,-3,-1,1,-3,5,0
1558441626470910,-3,-5,2,-1,-3,-6,-3,-2
1558441626470910,1,0,6,2,-6,-1,-6,-4
1558441626478889,-1,3,-6,-3,-5,-5,-5,0
1558441626478889,2,-2,-3,-2,2,6,1,0
1558441626493848,-4,-5,-3,-2,-3,-1,0,-4
1558441626493848,1,5,5,0,-4,-21,-5,-1
1558441626517257,1,1,-8,-6,3,4,6,3
1558441626517257,-4,1,-2,-1,3,-1,2,0
1558441626526762,-3,-5,-1,0,-1,3,-2,-3
1558441626526762,-2,-6,0,3,5,17,3,-1
1558441626526762,-1,0,-2,-4,-7,-3,-4,-2
1558441626526762,-1,0,0,-3,-9,-11,-6,-4
1558441626530766,1,2,-6,-4,-2,-1,2,-2
1558441626530766,-2,-3,3,1,-1,1,-3,-1
1558441626540176,-2,-2,-6,-3,-4,1,-5,-5
1558441626540176,-3,-3,-4,-4,-1,-3,1,1
1558441626554025,3,-2,1,2,11,-2,6,4
1558441626554025,-9,-5,-4,-3,-3,-4,1,0
1558441626562665,0,1,7,2,1,3,-2,1
1558441626562665,-3,-3,-3,-3,-6,1,-8,-3
1558441626576885,-2,0,-3,-3,-4,4,2,-1
1558441626576885,4,4,1,0,10,-16,0,1
1558441626577629,1,1,-2,-1,-2,1,-5,0
1558441626577629,-1,1,2,1,-3,-8,0,0
1558441626591593,0,7,13,5,6,13,1,0
1558441626591593,-6,-13,-29,-13,-12,-1,-2,-5
1558441626599755,1,1,5,1,12,15,2,-2
1558441626599755,-1,-3,-7,-1,-8,-7,-5,-6
1558441626613532,0,-1,6,0,-4,-7,-2,-1
1558441626613532,2,4,3,1,-2,-1,0,0
1558441626629492,-2,4,9,2,-3,-9,1,-1
1558441626629492,-1,-6,-14,-1,10,23,9,2
1558441626637466,-2,-7,-6,-5,-4,-12,-8,-1
1558441626637466,-4,0,4,0,-6,-2,-5,-3
1558441626637466,1,-3,-2,0,-2,-1,-1,-3
1558441626637466,-2,5,8,3,0,2,-1,0
1558441626651428,-1,1,-5,-4,-6,-9,-6,-4
1558441626651428,3,3,2,-2,-3,-4,-4,0
1558441626659612,-2,-4,-3,-1,2,4,3,1
1558441626659612,1,1,-2,-2,4,2,8,5
1558441626674400,-5,-4,-6,-5,-4,-10,0,-2
1558441626674400,3,7,1,1,2,9,0,0
1558441626689332,0,-4,5,4,5,0,2,1
1558441626689332,0,-3,2,0,2,-2,-1,1
1558441626697307,-1,-2,-5,-3,-3,-6,-8,-3
1558441626697307,-2,-1,0,-3,-4,-1,-2,-3
1558441626697307,-3,0,-4,-3,-5,7,0,-4
1558441626697307,1,-3,7,1,-1,-8,-5,-4
1558441626719323,2,2,3,4,5,5,6,6
1558441626719323,-2,-2,1,-3,2,-2,-1,0
1558441626720245,-1,-5,-14,-6,-5,-6,-8,-3
1558441626720245,-5,-2,-1,-5,-11,-9,-9,-8
1558441626734544,-4,-5,2,2,-2,1,-2,-2
1558441626734544,-4,-4,1,4,11,16,8,3
1558441626742529,2,5,5,3,4,-4,2,2
1558441626742529,-1,-2,-7,-6,-3,0,-4,-2
1558441626756475,0,3,-1,-4,-5,-15,-5,-1
1558441626756475,1,-2,-3,-2,-2,-6,-3,-1
1558441626765158,-13,-12,-3,-3,-4,-5,-4,-2
1558441626765158,1,2,1,4,1,0,3,1
1558441626771389,1,1,1,2,7,14,6,1
1558441626771389,3,0,-1,-1,-3,-2,-3,-2
1558441626779395,2,3,0,-3,-6,-9,-4,-2
1558441626779395,-1,-4,-3,-2,-3,2,-6,-2
1558441626794347,-1,-4,-3,-2,-1,4,4,-1
1558441626794347,2,2,2,2,3,-2,4,1
1558441626810173,1,2,-3,-4,-2,-8,-3,0
1558441626810173,-5,-2,1,2,-3,-11,0,-1
1558441626816985,1,-1,-1,-2,1,1,-4,-2
1558441626816985,-4,-3,-7,-4,-8,-2,-4,-2
1558441626825154,-2,-3,3,2,0,2,0,-1
1558441626825154,4,6,9,2,5,4,4,1
1558441626830968,-4,-4,-3,-2,-1,3,0,-3
1558441626830968,-6,-3,-8,-3,-2,0,-1,-2
1558441626839174,0,-2,-9,-6,-2,5,0,1
1558441626839174,3,4,0,0,5,3,0,-1
1558441626854104,4,2,7,3,2,-3,2,2
1558441626854104,3,0,3,0,0,-9,-1,1
1558441626862096,-8,-4,-3,-1,-2,3,-5,-4
1558441626862096,1,3,2,1,3,12,3,1
1558441626876988,-3,-6,-3,-1,-4,-8,-1,-3
1558441626876988,-2,-3,-3,-2,-1,4,0,-3
1558441626884813,4,0,2,-1,-1,-2,3,-1
1558441626884813,-1,-5,-4,-4,-11,-16,-5,-3
1558441626890791,1,3,-1,0,-2,3,-2,-1
1558441626890791,-4,-2,-4,-4,-1,-6,-1,0
1558441626898768,0,1,4,1,1,-3,2,-1
1558441626898768,-2,-3,-4,1,2,6,0,2
1558441626913726,0,-2,-4,-3,-3,0,-1,1
1558441626913726,-2,-1,1,1,0,1,-2,0
1558441626921708,-1,2,-3,-1,-1,2,-1,0
1558441626921708,-4,-4,-6,-2,-3,-6,-3,-2
1558441626936694,-3,-2,-2,-4,-5,-8,-2,-2
1558441626936694,2,1,-1,-1,2,8,0,-2
1558441626944960,2,0,4,5,2,1,3,2
1558441626944960,-2,-5,-4,-7,-6,-12,-6,-6
1558441626959920,-4,-1,-8,-3,5,11,2,-1
1558441626959920,-3,0,-3,-1,-5,-7,-1,-1
1558441626959920,6,6,6,1,2,-3,0,1
1558441626959920,0,-2,3,2,0,5,5,1
1558441626982854,1,1,0,-1,-3,-4,-2,-2
1558441626982854,6,3,3,0,1,2,2,1
1558441626983541,-5,-6,-1,-2,-2,-3,-4,-1
1558441626983541,-5,-4,-8,-2,-6,-1,-5,-4
1558441626996505,-5,-11,-5,-1,-1,-3,-4,-3
1558441626996505,3,1,1,-1,-2,-8,-2,-2
1558441627012497,1,2,-1,-3,1,2,1,1
1558441627012497,3,3,3,1,0,0,0,1
1558441627027634,-1,1,0,0,-2,0,1,-1
1558441627027634,-4,-3,-3,-1,-2,-5,-1,-3
1558441627028428,1,0,-2,3,9,2,3,1
1558441627028428,-3,-2,-1,-3,-2,-2,1,0
1558441627033410,-1,1,1,-2,0,3,-3,-1
1558441627033410,-5,-3,-1,-1,-1,-1,-2,-1
1558441627042593,-4,-5,-5,-4,-6,-4,-4,-1
1558441627042593,2,1,0,0,4,4,1,1
1558441627056392,-1,0,-2,0,1,-6,-1,1
1558441627056392,-1,-1,1,-1,-2,1,-1,1
1558441627064332,-1,2,2,1,-2,-1,-2,-3
1558441627064332,-3,-5,-9,-5,-5,-6,-3,-2
1558441627079344,-1,-1,2,-2,-1,3,0,-2
1558441627079344,1,2,3,4,-3,-1,-3,-3
1558441627080289,1,-2,5,3,5,7,5,2
1558441627080289,-1,-5,-17,-4,0,-4,-2,-2
1558441627094444,-4,0,1,1,-7,-2,-4,-2
1558441627094444,-2,-4,-6,-4,-4,-6,-1,0
1558441627102238,2,3,11,4,1,-2,-2,-1
1558441627102238,2,4,-2,-2,2,6,5,1
1558441627116189,-6,-6,-3,4,7,-7,4,2
1558441627116189,-1,-1,-3,-2,-3,0,-2,-1
1558441627132141,-4,-5,-6,-4,-3,0,-5,-3
1558441627132141,-1,-3,6,0,-3,-4,-9,-2
1558441627139122,-1,1,0,-1,-3,6,6,-1
1558441627139122,0,-1,2,2,9,4,6,1
1558441627140120,0,0,-3,-4,-3,-13,-8,-1
1558441627140120,-3,2,3,1,-4,-3,2,0
1558441627155286,-1,0,-2,-5,-4,2,-4,-1
1558441627155286,-4,-1,-2,-2,-4,-2,-4,-5
1558441627162430,-1,-2,-5,-2,2,10,2,-1
1558441627162430,-1,-1,4,2,1,-2,2,-1
1558441627176367,4,2,4,1,1,-11,-2,1
1558441627176367,0,-1,-4,-1,2,2,2,1
1558441627185215,-4,-8,-9,-6,-9,-7,-6,-4
1558441627185215,-3,-3,3,3,3,7,0,-1
1558441627198964,-1,-2,-6,0,3,2,-1,-2
1558441627198964,0,-1,0,1,4,9,5,2
1558441627199960,-2,2,-4,-3,-4,-3,-5,-6
1558441627199960,1,1,2,-1,-1,-8,0,-1
1558441627213924,0,-1,-1,-3,-6,-4,-5,-2
1558441627213924,1,1,-3,-4,-3,-3,-2,-2
1558441627222186,-11,-8,-1,0,2,-2,1,0
1558441627222186,-1,0,-1,-3,-7,-5,-4,-4
1558441627236884,3,0,0,1,1,7,2,1
1558441627236884,1,0,12,5,11,-3,4,3
1558441627261005,0,-1,-16,-5,-3,-1,1,-1
1558441627261005,-2,-3,0,0,-2,0,-2,-1
1558441627261806,-4,-3,3,-2,-2,3,-1,-3
1558441627261806,0,-3,-7,-2,-6,-7,-2,-2
1558441627262795,1,1,0,-1,-5,-7,1,-2
1558441627262795,-2,1,-3,-2,-1,-5,-4,-3
1558441627273984,-1,-1,-5,-2,-4,6,-3,-4
1558441627273984,-2,-2,1,-1,-4,-4,-6,-3
1558441627281750,1,2,11,4,8,6,8,3
1558441627281750,0,-1,-8,-4,1,-1,1,2
1558441627296706,2,0,1,1,0,-6,-1,3
1558441627296706,-3,-2,-2,-1,0,8,-1,-2
1558441627304900,-2,-3,-9,-5,-9,-6,-7,-4
1558441627304900,0,1,7,1,0,1,0,0
1558441627319642,0,2,3,1,0,-6,-3,-1
1558441627319642,-4,-4,-5,-2,1,7,0,-3
1558441627319642,1,2,0,0,5,4,3,1
1558441627319642,3,1,9,1,2,-15,3,3
1558441627333604,-3,-3,-13,-6,0,-4,-9,-2
1558441627333604,-3,-1,0,-1,-5,-4,-2,0
1558441627349559,-1,0,2,-3,-7,0,-2,-2
1558441627349559,1,1,-1,4,4,12,2,0
1558441627364522,0,0,0,-1,-3,-6,-1,-1
1558441627364522,-2,0,4,1,5,1,1,2
1558441627365517,3,0,0,-1,4,2,0,0
1558441627365517,0,-5,-4,-3,-5,-5,-2,-1
1558441627379518,-1,-1,-1,0,-4,0,3,-4
1558441627379518,-2,-2,-2,-2,-3,-1,-2,-4
1558441627380477,-1,0,-4,-1,-5,-7,-6,-1
1558441627380477,-2,-2,-1,-2,-4,1,-4,-3
1558441627394496,-1,2,0,1,11,11,6,3
1558441627394496,0,0,1,-3,2,-7,-1,2
1558441627402550,-2,-4,-11,-4,3,2,3,-1
1558441627402550,0,1,-2,-3,-1,0,0,1
1558441627416724,-2,-4,-3,-3,-4,-7,-5,-3
1558441627416724,-1,-5,-2,-1,-4,-4,-2,1
1558441627424656,2,2,6,2,-1,-1,-1,-2
1558441627424656,-5,-2,-4,-1,-2,1,-1,-5
1558441627439540,-1,0,1,0,-1,1,-1,0
1558441627439540,1,1,-4,-1,1,1,1,-2
1558441627440322,-3,0,1,2,-4,-4,-3,-2
1558441627440322,-1,-2,0,-1,0,-1,-1,-2
1558441627454445,-1,-1,0,-2,1,-1,1,2
1558441627454445,-1,0,-3,0,1,-2,-2,-2
1558441627462496,0,-4,1,-3,-4,-3,0,-3
1558441627462496,-3,0,-1,0,-1,-1,0,-1
1558441627485401,1,-2,-2,-1,-3,-3,0,-2
1558441627485401,0,0,-4,-3,-2,-3,-1,-1
1558441627486197,-2,1,2,0,1,-1,-2,0
1558441627486197,0,0,-1,0,-1,3,-1,0
1558441627499378,-4,-3,-3,-2,-1,0,-1,-2
1558441627499378,-3,-5,-2,-3,-3,2,-3,-1
1558441627500160,-1,0,1,1,-2,-4,0,1
1558441627500160,0,-1,-1,-1,3,2,-2,0
1558441627514120,-3,-2,0,-2,-7,-10,-4,-2
1558441627514120,0,-1,1,-1,-1,-10,3,0
1558441627529102,-1,1,1,0,0,1,0,0
1558441627529102,-1,0,-1,0,5,11,2,-1
1558441627536061,0,-1,-5,-2,-4,3,-3,-3
1558441627536061,0,-1,-1,0,1,2,3,1
1558441627544040,1,-2,3,1,6,1,2,3
1558441627544040,-1,0,0,0,4,5,2,2
1558441627559001,0,-1,12,0,-8,-9,-7,-3
1558441627559001,-5,-7,-29,-14,-7,2,-2,-4
1558441627559997,0,-5,-9,-3,-6,-10,-5,-3
1558441627559997,0,-1,1,-3,5,-10,5,0
1558441627574956,0,0,4,1,2,-5,0,0
1558441627574956,0,0,7,4,2,9,-1,-3
1558441627581937,-2,0,1,-1,-2,1,-2,0
1558441627581937,-3,-1,-4,-4,-10,-9,-9,-5
1558441627596024,-3,-2,-4,-2,-1,-3,1,-1
1558441627596024,2,2,7,3,6,1,5,1
1558441627605091,-1,-3,-3,-2,-2,7,-2,-1
1558441627605091,-1,-2,-1,0,-5,-4,-5,-3
1558441627643802,-3,0,-4,-3,-3,-6,-2,-1
1558441627643802,-1,1,5,1,-3,5,-1,-1
1558441627644799,-2,-2,-1,1,2,2,3,-1
1558441627644799,1,-2,-2,0,-2,-6,-5,-1
1558441627645768,2,-3,-2,-2,0,3,2,0
1558441627645768,1,2,7,3,1,0,1,0
1558441627650050,1,1,-6,-3,0,-3,2,3
1558441627650050,-7,-6,-7,-10,-11,-9,-4,-4
1558441627657027,-3,-4,-2,1,5,11,-2,-2
1558441627657027,1,2,6,1,1,-10,-3,2
1558441627665018,0,3,6,0,0,-1,0,-1
1558441627665018,-1,-3,-7,-1,-3,1,-1,3
1558441627678977,0,1,2,2,4,5,0,0
1558441627678977,-4,-6,-6,-1,-4,-1,-4,-4
1558441627687655,-1,-1,1,-1,-1,3,-4,-2
1558441627687655,1,-1,2,-3,-3,-8,1,1
1558441627693642,-1,0,3,1,6,3,5,1
1558441627693642,-2,-2,-3,-2,-3,0,-2,-2
1558441627701921,0,-5,-1,-2,1,-3,-5,0
1558441627701921,-2,-1,0,-1,-5,0,-1,-1
1558441627716856,3,1,-1,-1,-1,0,-2,0
1558441627716856,0,2,0,2,0,3,4,1
1558441627724559,-4,-3,-6,-5,-4,-14,-3,-2
1558441627724559,-1,3,5,4,5,3,2,0
1558441627739521,-2,-1,-4,-5,-6,-1,-1,-3
1558441627739521,-1,-4,-2,0,2,9,-3,-1
1558441627747496,-1,-2,-1,-3,-6,-11,-4,-3
1558441627747496,0,-3,-1,4,2,9,1,0
1558441627753480,-2,1,4,1,0,4,4,0
1558441627753480,-1,-1,-5,-1,4,-5,0,-2
1558441627761457,0,1,1,-1,-6,0,-3,-4
1558441627761457,-3,-2,-1,-2,2,3,-3,-3
1558441627785394,-1,1,-4,-1,-4,-4,-2,1
1558441627785394,1,4,8,1,1,-16,0,0
1558441627786507,3,-1,-4,0,3,5,1,1
1558441627786507,2,0,1,0,0,-4,2,1
1558441627807800,-3,-3,-5,-2,-4,-4,-3,-2
1558441627807800,-1,-2,0,-4,-6,-3,-7,0
1558441627808333,-1,2,3,3,-3,-5,-1,-3
1558441627808333,1,-1,-2,-1,8,18,3,0
1558441627823434,-1,0,-4,-1,1,-6,5,2
1558441627823434,-2,-1,-2,-1,-1,-2,-2,-2
1558441627824765,-6,-4,-2,-2,-3,2,-2,-2
1558441627824765,-3,-3,-1,-3,-6,-1,-6,-4
1558441627836259,1,0,4,4,4,-9,1,0
1558441627836259,-1,-1,1,-2,3,5,0,-1
1558441627845236,0,1,3,1,2,8,-1,-1
1558441627845236,-5,-2,-5,-2,-5,-2,-4,-5
1558441627859514,-4,-7,-7,-10,-6,-9,-3,-1
1558441627859514,-2,1,4,3,-3,-3,-2,0
1558441627875157,-2,0,0,0,3,7,3,1
1558441627875157,4,3,-2,2,10,10,4,3
1558441627883242,-3,-2,0,-1,-8,-8,-7,-3
1558441627883242,1,-3,-3,-2,0,2,2,0
1558441627884132,-1,-4,1,-1,-9,-2,-4,-3
1558441627884132,-1,0,-1,-1,6,11,4,0
1558441627905300,1,-2,-5,0,2,-11,-1,2
1558441627905300,-3,-2,0,-2,-11,-9,-7,-3
1558441627906080,2,3,-2,-1,4,-4,-1,1
1558441627906080,-3,-2,-2,-4,-3,-6,-5,-3
1558441627919232,-1,-2,7,1,-3,4,-2,-3
1558441627919232,-1,-1,-9,-3,0,11,1,0
1558441627928014,-1,-1,0,3,0,-2,5,-1
1558441627928014,3,0,4,2,2,-13,0,2
1558441627942979,-1,0,-1,-1,-2,3,-1,-3
1558441627942979,-1,-1,8,2,-5,-3,-6,-5
1558441627948956,-5,-7,-10,-9,-3,11,-3,-3
1558441627948956,1,0,-1,0,-1,-3,6,2
1558441627956995,0,2,2,1,0,-13,-4,0
1558441627956995,0,-1,-3,-1,-2,-4,-2,0
1558441627964916,-1,2,3,1,2,2,3,2
1558441627964916,-3,-3,-5,-3,-8,-7,-7,-4
1558441627978878,4,3,1,0,12,7,7,3
1558441627978878,0,-1,-3,-3,4,-1,6,0
1558441627987852,-2,-3,-1,-2,-3,-10,-4,1
1558441627987852,-2,0,0,0,-5,5,-7,-3
1558441628000843,-4,-3,-3,-3,1,6,-5,-2
1558441628000843,-1,-1,-4,-1,3,-3,3,1
1558441628017808,-1,-1,3,2,1,0,0,0
1558441628017808,1,1,10,6,0,-13,2,2
1558441628018769,-2,-4,-9,-6,-6,3,-4,-3
1558441628018769,-1,-3,-8,-5,-4,-4,-3,0
1558441628032734,-3,-3,-4,-4,-8,-9,-11,-6
1558441628032734,0,1,-1,0,3,-10,2,4
1558441628038746,0,1,5,4,6,13,5,0
1558441628038746,-3,-2,-5,-2,1,6,-1,-2
1558441628047704,-1,1,3,1,0,-1,2,0
1558441628047704,-2,-3,-5,-4,-6,-7,-7,-5
1558441628062654,-1,-3,-2,-1,-4,0,-2,-4
1558441628062654,0,1,4,0,0,-7,-2,0
1558441628068639,1,2,5,2,6,-2,2,1
1558441628068639,-2,-1,-5,-2,-3,-1,-5,-2
1558441628085765,-5,-8,-14,-10,-9,8,-3,-2
1558441628085765,-1,1,2,0,-4,-15,2,0
1558441628086590,3,0,-3,0,4,-4,6,4
1558441628086590,-1,-2,6,0,4,-5,0,1
1558441628098557,-2,-1,1,2,-3,1,-1,-1
1558441628098557,-2,-2,-3,-1,0,4,-6,-3
1558441628107535,-1,-1,-4,-2,-5,8,1,-1
1558441628107535,0,-1,3,-4,-6,-7,-1,-2
1558441628138467,1,0,-5,0,3,-3,0,0
1558441628138467,-2,0,6,0,-3,2,2,-2
1558441628139454,-3,-2,-7,-1,2,-2,0,-2
1558441628139454,-2,-2,0,-1,-2,5,-4,-3
1558441628140444,-1,0,2,-4,-6,-3,-3,-1
1558441628140444,1,1,0,4,5,5,3,2
1558441628145436,-1,-2,-1,0,0,-9,-4,-1
1558441628145436,-2,-2,-3,-3,-4,4,0,-2
1558441628158764,-2,-1,0,0,-7,-7,-2,-2
1558441628158764,3,1,6,2,6,-1,3,4
1558441628167372,2,2,10,2,1,0,6,0
1558441628167372,-4,-8,-23,-10,-3,9,-3,-4
1558441628181342,-1,-1,5,3,5,15,2,0
1558441628181342,-4,-4,-14,-5,-10,-27,-12,-2
1558441628190310,-2,-2,-1,-3,0,4,-2,0
1558441628190310,1,3,5,4,-2,-10,1,2
1558441628196295,-2,-2,-3,-3,-3,-4,-6,-3
1558441628196295,-1,1,6,5,11,20,12,7
1558441628205271,0,1,-1,1,-1,-3,-2,-1
1558441628205271,-4,-3,-8,-7,-1,10,1,-1
1558441628218238,0,-1,-1,-1,7,-10,-3,-1
1558441628218238,-1,-2,1,-2,-9,0,-4,-3
1558441628227211,-3,-2,-9,-7,-11,-21,-8,-3
1558441628227211,-3,-2,1,0,-3,3,2,-2
1558441628250152,-2,0,2,2,4,2,5,1
1558441628250152,-2,-2,-1,-2,-4,6,-5,-3
1558441628251148,2,5,9,3,2,10,-1,0
1558441628251148,-2,0,-3,-3,-3,-15,-5,-2
1558441628256136,0,-2,-8,-3,-4,-8,0,-1
1558441628256136,-4,-4,-8,-2,3,4,-2,-3
1558441628265114,-1,-4,-2,-2,-6,-2,-2,-1
1558441628265114,1,1,5,3,2,-1,0,1
1558441628279073,0,0,5,1,0,0,0,-1
1558441628279073,1,-1,0,-3,3,7,3,0
1558441628311990,-3,-1,-3,0,-3,-5,-2,-1
1558441628311990,2,2,5,2,1,12,2,1
1558441628312984,-2,-6,-11,-2,3,1,3,0
1558441628312984,0,1,2,-3,-5,-17,-3,-3
1558441628316971,3,-3,-1,-2,1,4,0,-1
1558441628316971,-1,2,4,1,-7,-7,-2,-1
1558441628317970,-1,2,6,1,0,8,-2,-2
1558441628317970,-3,-1,-5,0,1,4,-1,-1
1558441628324951,0,-1,1,-2,-2,-1,3,-1
1558441628324951,1,0,1,1,3,-13,-2,2
1558441628347892,1,-1,-4,-4,-4,-5,-2,0
1558441628347892,-2,-3,-1,0,-2,6,-4,-4
1558441628348887,1,2,0,1,-3,-3,-1,-2
1558441628348887,-2,-2,1,1,1,7,1,-1
1558441628369831,0,4,0,-3,-3,5,-1,-1
1558441628369831,0,-2,4,-1,-1,-9,-1,-4
1558441628371832,-6,-5,-11,-4,5,1,3,1
1558441628371832,2,0,2,3,6,7,4,2
1558441628375815,-13,-5,-1,-3,-5,-9,-5,0
1558441628375815,0,-2,-5,-4,-11,-2,-2,0
1558441628384789,-4,-4,-3,-4,-6,0,-5,-6
1558441628384789,-3,-4,-8,1,0,-6,0,0
1558441628423686,4,2,3,3,4,6,2,0
1558441628423686,1,3,7,0,-1,-4,-1,0
1558441628424683,-8,-9,-14,-4,-2,-3,-1,0
1558441628424683,1,0,4,-2,0,3,-1,-1
1558441628425692,2,0,1,-2,-2,-9,-1,0
1558441628425692,-2,-4,-4,-1,-3,-8,-4,-1
1558441628429675,2,2,7,3,8,12,3,1
1558441628429675,-1,-2,-7,-7,-3,2,-6,-4
1558441628435664,3,1,0,3,-3,-6,1,0
1558441628435664,-2,1,-4,-2,2,2,-1,-2
1558441628477545,-1,-1,2,1,3,4,1,0
1558441628477545,-4,-3,-5,-3,-2,0,0,-2
1558441628477545,2,2,4,1,-5,-7,-1,2
1558441628477545,-3,-5,-1,-1,0,-4,-2,-2
1558441628481536,0,2,-5,-4,-9,-2,-6,-1
1558441628481536,2,1,4,0,4,3,6,3
1558441628482531,-10,-4,1,2,4,0,6,0
1558441628482531,5,4,-1,0,0,2,1,1
1558441628490508,1,-1,-2,0,-2,-11,-2,-1
1558441628490508,0,2,0,-1,-2,0,-5,-3
1558441628527419,-1,-3,-4,-7,-4,6,-5,-4
1558441628527419,-3,-3,-3,-1,-4,-1,-3,-3
1558441628535388,-2,1,3,-1,-2,-9,1,-1
1558441628535388,2,1,2,0,1,-7,-5,0
1558441628536394,1,-3,-5,-4,1,2,-2,-1
1558441628536394,-4,-1,-6,1,4,5,3,3
1558441628537383,0,-2,2,0,-3,-1,-4,-3
1558441628537383,-1,-2,-1,1,-6,4,-1,-2
1558441628541384,0,2,-1,-1,6,-1,-1,1
1558441628541384,0,-1,-1,-2,-3,-1,-5,-1
1558441628550357,0,-4,2,-1,-3,1,-5,-3
1558441628550357,-2,-2,-3,-4,-6,-6,2,0
1558441628556332,-3,-1,-1,-1,0,2,1,0
1558441628556332,-1,1,-2,-3,1,-6,4,-1
1558441628565312,-3,-4,-2,-2,1,6,0,-2
1558441628565312,-2,0,3,0,-6,-8,-5,-5
1558441628579271,5,-1,-7,-1,-1,-5,-1,-2
1558441628579271,4,2,2,-1,0,0,0,1
1558441628593234,-5,-3,6,0,2,-6,-4,-3
1558441628593234,1,-5,-12,-3,-2,7,2,-2
1558441628601213,0,1,-1,1,-1,-7,2,2
1558441628601213,1,0,1,-3,4,1,-2,-2
1558441628610188,0,-1,-3,-1,-3,1,2,0
1558441628610188,0,-1,2,-3,-3,-4,-6,-2
1558441628616174,-3,-1,1,1,-4,1,-4,-3
1558441628616174,-1,-2,-2,1,0,-3,3,1
1558441628649082,2,1,1,-1,-2,-2,-3,0
1558441628649082,-6,-2,-1,-2,3,5,3,-1
1558441628650084,0,-3,-1,0,3,5,2,-1
1558441628650084,0,-1,1,-2,-3,-4,-1,-1
1558441628654070,-2,-1,0,-1,1,-3,-1,0
1558441628654070,0,-2,-7,0,-3,-2,-1,-3
1558441628661053,-1,-1,-1,-3,-4,3,-4,-4
1558441628661053,-3,-1,2,0,-7,0,-3,-2
1558441628670028,0,-1,-10,0,1,-5,0,0
1558441628670028,-2,0,1,0,2,-4,-2,1
1558441628691971,2,1,4,2,6,-2,3,1
1558441628691971,-6,-5,-4,-3,-7,-4,-3,-4
1558441628700946,4,3,2,0,0,9,1,0
1558441628700946,-2,-3,-7,-5,-2,-8,-4,-2
1558441628700946,-9,-7,-1,2,-1,-1,0,-3
1558441628700946,0,-1,-3,1,1,0,0,0
1558441628707928,0,-2,1,0,-1,2,5,1
1558441628707928,3,2,0,-3,-2,3,-11,-4
1558441628743830,0,-1,1,-2,-5,-10,-5,-1
1558441628743830,1,2,4,1,2,-4,5,-1
1558441628754802,-2,0,-1,0,2,8,0,1
1558441628754802,-2,-4,-9,-4,-2,-4,-1,-2
1558441628754802,0,-1,-3,1,0,8,1,0
1558441628754802,-2,-3,0,-2,-1,-2,-1,1
1558441628758790,2,0,1,0,-2,-12,-3,-1
1558441628758790,-3,-2,2,-2,-3,-2,-5,0
1558441628759787,-3,0,4,-2,-1,-3,3,1
1558441628759787,3,0,0,2,1,1,-1,-2
1558441628767767,-2,0,-7,-5,-2,16,1,-2
1558441628767767,-2,-3,7,3,2,5,3,0
1558441628781728,1,-1,-5,-2,-1,-16,-4,-1
1558441628781728,1,1,1,0,6,1,2,1
1558441628789708,-4,-4,-4,-2,-3,3,-4,-1
1558441628789708,2,2,1,1,-5,-12,-1,-3
1558441628804669,1,1,4,-1,3,14,0,0
1558441628804669,0,2,1,1,-6,-9,-1,-2
1558441628806663,-5,-6,-7,2,-2,-7,-4,-4
1558441628806663,0,-3,2,-2,-5,5,-1,-3
1558441628818632,-1,-6,-13,-6,-7,4,-1,-2
1558441628818632,2,2,0,-1,5,-6,3,4
1558441628827608,3,2,2,1,0,-12,-3,0
1558441628827608,-2,-3,2,1,0,3,3,1
1558441628841568,1,1,2,0,-1,6,1,-2
1558441628841568,-3,-3,-3,-2,-5,9,-5,-3
1558441628856530,-4,-2,1,0,2,-6,3,-1
1558441628856530,3,1,-1,1,6,-6,2,2
1558441628864507,0,-3,-7,-5,-9,-15,-9,-4
1558441628864507,-2,-4,-5,-2,-4,10,0,-1
1558441628866502,1,2,4,-3,-3,-2,-1,-1
1558441628866502,-3,-3,-4,0,3,8,0,-1
1558441628878470,-1,2,2,0,-1,2,-1,-1
1558441628878470,-3,-1,3,-1,-5,-7,-8,-3
1558441628887451,2,-3,-6,-6,-2,-10,-1,-1
1558441628887451,-1,-2,-3,-4,-1,-8,0,0
1558441628901408,2,-2,3,1,4,7,0,0
1558441628901408,1,-1,-4,0,7,3,-2,-1
1558441628910390,-1,1,3,1,-1,1,-1,-1
1558441628910390,6,5,1,0,0,-6,-1,2
1558441628925344,-7,-4,5,-2,-9,-8,-8,-7
1558441628925344,-2,-2,-9,0,1,16,3,-2
1558441628926343,-1,-3,-6,-4,5,1,6,2
1558441628926343,-2,-3,-4,0,0,-2,2,1
1558441628938331,-1,-3,-4,-1,0,3,0,-1
1558441628938331,-1,0,3,0,-6,-7,-7,-3
1558441628947292,1,3,2,1,0,11,3,0
1558441628947292,-5,0,0,-2,-5,-2,-4,-2
1558441628961253,0,-2,-2,-1,1,3,-1,0
1558441628961253,-3,-3,-1,-2,-1,-7,-4,0
1558441628970226,3,2,0,-1,-1,0,-4,0
1558441628970226,0,-2,6,6,4,-3,4,1
1558441628992166,-6,-5,-20,-12,-10,-8,-3,-4
1558441628992166,-2,-5,-2,-2,5,-1,2,-2
1558441628994160,0,0,1,0,-5,-5,-6,-1
1558441628994160,-1,-2,0,-1,0,1,0,0
1558441628999147,1,0,5,3,1,-2,-2,-1
1558441628999147,-2,-2,-5,-3,-1,2,-1,0
1558441629007126,0,1,3,1,-1,4,6,-2
1558441629007126,0,5,-2,-2,-3,-3,-2,-2
1558441629021095,1,4,-3,0,-4,-5,-1,2
1558441629021095,-9,-8,-3,0,8,13,6,0
1558441629030066,-2,-6,2,1,1,-7,0,2
1558441629030066,-1,1,2,1,2,5,4,0
1558441629045027,1,1,0,0,-4,-2,-3,-1
1558441629045027,3,0,0,-1,-4,-12,-3,-1
1558441629046022,-3,-3,-5,-2,-5,3,-3,-2
1558441629046022,-1,-4,-3,1,4,11,6,-1
1558441629058988,-1,2,9,4,0,-9,0,0
1558441629058988,1,2,-3,-3,-5,-7,-2,-2
1558441629067967,-4,-5,-2,0,0,-1,-2,-4
1558441629067967,1,1,-6,-1,-1,1,-6,-3
1558441629080931,-4,-6,-5,-5,1,-1,0,-1
1558441629080931,-1,0,2,-3,-7,-8,-1,0
1558441629089907,-3,-2,-4,-2,-4,4,-4,-5
1558441629089907,-2,-2,1,-2,-5,0,-3,-2
1558441629104877,2,1,3,2,7,-5,-1,1
1558441629104877,6,2,0,4,3,7,7,1
1558441629106859,-2,0,0,-2,2,-1,-1,-1
1558441629106859,-4,-6,-10,-4,-4,-3,-3,-1
1558441629118830,-2,1,0,1,6,3,6,1
1558441629118830,-1,-2,-4,-3,-6,-9,-6,-3
1558441629134784,2,-1,3,-2,0,4,2,0
1558441629134784,-3,-1,2,-1,-5,-13,-5,-2
1558441629140769,-1,0,-3,-1,-1,2,-1,-3
1558441629140769,-2,-2,0,-2,-6,0,-5,-4
1558441629149746,1,0,1,3,3,4,4,1
1558441629149746,-1,1,5,0,5,2,1,2
1558441629164706,-3,-7,-5,-1,-2,-10,-1,0
1558441629164706,0,-1,-4,-2,-2,-4,-4,-2
1558441629166702,-3,-1,-4,-2,-1,10,-2,-2
1558441629166702,-1,2,0,-3,-5,-8,-4,-2
1558441629178668,0,1,2,1,3,7,-1,0
1558441629178668,-2,-4,1,-1,0,3,1,0
1558441629187645,1,-1,4,2,2,-8,-1,1
1558441629187645,2,2,4,1,-2,1,3,2
1558441629200609,2,4,-5,-1,4,10,8,1
1558441629200609,0,-1,-6,-7,-7,-12,-10,-1
1558441629209585,-7,-7,-9,-2,-4,-6,-5,-5
1558441629209585,-1,-5,0,-1,1,7,3,-2
1558441629224545,-1,-1,4,1,-6,-7,-8,-3
1558441629224545,1,5,5,0,1,4,5,1
1558441629226539,-1,0,1,0,-5,-5,-1,-2
1558441629226539,0,0,-1,-1,0,-9,-5,-2
1558441629239504,0,-3,-6,-3,-3,-6,-2,-3
1558441629239504,2,1,4,2,6,9,3,2
1558441629247483,-1,-1,-3,-3,-9,-9,-6,-4
1558441629247483,-2,-1,1,0,-2,6,-3,-2
1558441629261447,-2,0,3,3,14,23,13,6
1558441629261447,-3,0,3,2,2,-1,1,-1
1558441629270423,1,0,-6,-4,-5,-11,-5,-5
1558441629270423,-4,-4,-4,-5,-3,-3,-5,-4
1558441629292364,3,5,3,1,-2,-2,1,-1
1558441629292364,-1,-1,-1,1,1,0,-1,-2
1558441629294357,1,3,4,1,3,14,2,2
1558441629294357,-4,-2,-5,-4,-8,-24,-4,0
1558441629298358,4,1,3,-2,-3,-6,-3,-2
1558441629298358,-3,-7,-3,1,-4,-2,0,-1
1558441629307323,3,3,1,-3,-1,-19,-2,0
1558441629307323,-4,-1,-1,-3,-2,7,-2,-2
1558441629321295,0,4,9,7,17,19,8,3
1558441629321295,-2,-3,-12,-6,-6,-5,-1,-2
1558441629330263,0,-2,2,-1,0,3,1,0
1558441629330263,-2,-3,0,-2,-5,-1,-3,-2
1558441629345234,-7,-7,-1,0,-6,-10,-9,-3
1558441629345234,3,3,-1,-2,-2,1,2,-3
1558441629346222,-7,-5,-7,-2,2,4,3,3
1558441629346222,-1,1,-3,2,4,5,2,0
1558441629358198,0,1,5,-4,-7,-2,-3,-1
1558441629358198,2,1,4,4,3,1,1,2
1558441629367173,-11,-7,-3,-1,-1,-1,0,-2
1558441629367173,-1,-4,-6,-5,0,-1,-1,-3
1558441629381129,0,0,6,1,-6,-16,-5,-1
1558441629381129,-1,-2,-12,-6,2,-4,-5,0
1558441629390102,1,0,0,-1,-6,-11,-11,-1
1558441629390102,2,4,0,5,6,18,6,-1
1558441629405061,-4,-5,-7,-1,1,2,1,-2
1558441629405061,-2,-1,0,-2,-9,-13,-7,-3
1558441629406059,3,3,3,-1,0,1,0,2
1558441629406059,2,2,6,1,3,-2,0,2
1558441629419024,-6,-6,-18,-8,-9,-6,-1,-2
1558441629419024,1,-2,5,4,8,7,7,1
1558441629427999,3,2,3,1,0,1,-3,-3
1558441629427999,-2,-6,-10,-4,-4,-3,-5,-1
1558441629440965,-1,1,1,0,-5,-4,-6,-1
1558441629440965,-6,-5,4,1,-3,1,1,-1
1558441629449941,2,1,-6,-5,-2,0,-6,-4
1558441629449941,0,-1,3,1,1,0,1,2
1558441629472882,0,0,-5,-3,-1,2,1,0
1558441629472882,-3,-4,-10,-4,-4,-7,-8,-7
1558441629473877,2,4,7,0,2,-2,1,-1
1558441629473877,2,0,4,-2,1,0,3,1
1558441629478863,-5,-3,-1,1,-1,-3,-5,-3
1558441629478863,-2,-6,1,-4,-5,-2,2,1
