timestamp,emg1,emg2,emg3,emg4,emg5,emg6,emg7,emg8
1558434879521144,-1,-1,0,-4,0,-2,-1,0
1558434879521144,-1,-3,-3,1,-4,-6,-5,-2
1558434879527128,-1,0,0,-1,0,-3,-1,0
1558434879527128,1,0,2,-6,-2,1,1,-1
1558434879528125,1,0,0,2,3,4,4,2
1558434879528125,-2,-2,0,0,-5,-1,-3,-2
1558434879529123,-2,-3,-7,-7,-4,-3,-4,-2
1558434879529123,-2,-3,-6,2,-2,-2,-4,-1
1558434879540092,-2,-1,2,-2,-4,-1,-2,-1
1558434879540092,1,2,3,2,1,1,1,1
1558434879548071,0,-1,2,5,-2,-2,0,0
1558434879548071,-1,-1,0,6,0,-2,1,0
1558434879555053,-3,-4,-7,-21,-4,0,-2,-2
1558434879555053,0,0,1,-1,2,-1,-1,-2
1558434879570012,-1,-2,-2,0,-3,-2,-3,-2
1558434879570012,1,-1,-2,-2,2,2,0,0
1558434879579985,2,2,2,12,3,1,-2,-1
1558434879579985,0,-1,-6,-5,-1,1,1,-2
1558434879585970,-2,-1,-2,-7,-4,-1,1,-1
1558434879585970,-2,-4,-4,-8,-6,-3,-4,-3
1558434879600929,-3,-4,1,6,-5,-6,-6,-3
1558434879600929,-1,-1,1,1,-1,1,1,0
1558434879607913,1,0,-3,0,6,5,3,1
1558434879607913,-1,0,0,5,4,-1,2,1
1558434879647805,-2,-1,4,10,-5,-1,-1,0
1558434879647805,-2,-3,-3,-18,0,0,-2,0
1558434879648802,-2,-3,-4,-4,-4,-5,-4,-1
1558434879648802,-1,-2,0,4,-1,-1,-1,-2
1558434879649800,0,-1,0,4,9,6,2,2
1558434879649800,1,1,1,8,2,4,2,-1
1558434879651794,-2,-3,-4,-11,-5,-5,-5,-3
1558434879651794,-3,-1,-1,-2,-8,-9,-7,-1
1558434879660770,-1,0,1,-10,-12,-5,-2,-1
1558434879660770,0,3,4,16,8,7,5,2
1558434879666754,-1,-1,-5,-9,4,2,-1,-2
1558434879666754,-3,-1,-1,0,-8,-4,-3,-3
1558434879674733,0,2,-3,4,4,1,-2,0
1558434879674733,-3,-5,-1,1,-3,-6,-3,-3
1558434879689692,-1,0,-1,1,-3,3,3,0
1558434879689692,0,-1,-3,-3,-2,-3,-2,-2
1558434879696674,-2,-1,6,8,-1,-4,-3,-4
1558434879696674,-2,-2,-13,-21,-11,-6,-4,-2
1558434879705650,-4,-1,-1,0,2,0,1,0
1558434879705650,0,0,-2,-3,6,6,4,2
1558434879720612,2,-1,-1,-5,2,2,-1,0
1558434879720612,0,1,5,9,2,-1,0,-2
1558434879726594,-1,0,0,5,4,2,0,-1
1558434879726594,-2,-1,-3,-5,-6,-3,-3,-2
1558434879734573,0,0,-2,-1,0,0,-3,-3
1558434879734573,-3,-2,-2,-10,-11,-7,-5,-4
1558434879749534,2,1,2,2,3,4,1,0
1558434879749534,-2,-4,-5,-3,-3,-2,0,-2
1558434879757510,-3,-1,-3,-3,-1,-3,-1,-1
1558434879757510,0,0,-1,3,3,0,2,1
1558434879773469,0,0,4,2,-1,0,-1,1
1558434879773469,2,0,0,6,4,2,0,0
1558434879780450,-2,-2,-3,-12,-12,-6,-4,-3
1558434879780450,-4,-6,-15,-21,-12,-5,-4,-3
1558434879787430,0,0,1,4,3,-2,-1,-1
1558434879787430,0,-1,3,5,8,3,2,2
1558434879794413,-1,-1,-4,-3,-1,-4,-2,-1
1558434879794413,-2,0,4,8,0,-1,-2,-1
1558434879809372,1,-1,4,8,-7,-6,-1,-1
1558434879809372,-1,-1,3,7,0,-1,-2,-1
1558434879817352,-2,-3,-3,-7,-5,-2,-1,-3
1558434879817352,-2,-2,-1,3,-1,-5,-4,-2
1558434879826327,-2,-2,-4,-15,0,2,1,1
1558434879826327,2,1,4,12,8,7,5,2
1558434879840289,-2,0,0,1,1,2,1,0
1558434879840289,-1,0,0,0,3,1,0,-1
1558434879847270,-1,0,2,4,-5,-4,-4,-3
1558434879847270,-1,-4,-4,-13,-5,-5,-5,-5
1558434879854258,-2,-5,-5,0,1,-2,-2,-1
1558434879854258,0,-1,7,4,-3,-2,-2,-1
1558434879869212,1,-1,-3,2,2,1,-1,-3
1558434879869212,-1,1,-2,-2,0,2,2,1
1558434879877191,1,1,-5,-17,-2,3,1,1
1558434879877191,-1,-2,-2,-1,-6,-8,-3,-2
1558434879886168,-1,-3,-3,-6,-7,-4,-3,-3
1558434879886168,-3,0,2,5,5,6,-2,-3
1558434879900131,0,0,5,15,13,7,5,1
1558434879900131,0,0,-3,-4,5,1,0,1
1558434879907111,-1,-3,-2,-10,-12,-7,-3,-1
1558434879907111,0,0,2,-6,-4,-4,-4,-1
1558434879915091,-2,-5,-14,-10,-7,-5,-3,-4
1558434879915091,2,1,2,0,0,3,1,-2
1558434879930050,-2,-2,-3,6,-2,-6,-3,-4
1558434879930050,-2,0,4,1,2,0,2,2
1558434879937031,-3,-2,4,11,6,2,-1,-1
1558434879937031,0,-1,0,6,-3,-4,-2,-2
1558434879951993,0,-1,-3,-12,-3,0,1,-1
1558434879951993,-2,-3,-7,-10,-9,-6,-5,-4
1558434879959973,-1,0,3,-2,-5,-4,-1,-1
1558434879959973,0,-3,-7,6,16,7,4,1
1558434879966951,0,1,7,2,1,5,3,4
1558434879966951,1,-1,0,-1,0,-2,-1,1
1558434879974930,0,-3,-11,-3,-8,-9,-4,-2
1558434879974930,-5,-5,-2,-2,-8,-3,-5,-2
1558434879989889,0,-2,-2,0,4,-1,-2,-2
1558434879989889,0,-1,-2,-2,-5,-4,-3,-2
1558434879996871,0,1,3,1,-5,-6,-2,-3
1558434879996871,-1,1,1,-9,3,3,0,-1
1558434880011832,-1,-1,0,-1,3,2,1,0
1558434880011832,-1,-2,0,9,3,-1,-2,-2
1558434880020807,-1,0,2,3,-3,0,-1,-1
1558434880020807,0,0,0,3,3,0,1,0
1558434880026790,0,-1,2,5,-1,2,-1,-2
1558434880026790,-1,2,3,-2,0,-2,0,-2
1558434880034771,0,0,-3,-12,-4,0,0,-1
1558434880034771,-1,0,-3,-2,2,2,0,0
1558434880049730,0,0,-4,0,1,-4,-4,0
1558434880049730,-2,-3,-7,1,-9,-3,0,-4
1558434880056711,1,-3,-3,-5,4,-1,-1,-1
1558434880056711,-1,-2,0,-16,-16,-4,-4,-1
1558434880080648,-2,-3,-2,5,2,-6,-2,-2
1558434880080648,-2,-1,0,2,-4,-4,-2,0
1558434880081647,0,-1,1,0,3,5,2,1
1558434880081647,0,1,0,4,5,2,1,0
1558434880086633,-1,-1,-3,4,2,-2,0,-1
1558434880086633,0,0,-1,-3,2,3,1,0
1558434880094612,-1,-2,-1,-2,-3,-2,0,-1
1558434880094612,2,1,0,-7,-1,0,-1,-1
1558434880109570,-2,2,-1,-11,-10,-6,-8,-3
1558434880109570,-1,-3,-7,-10,-5,-4,0,-2
1558434880117550,-2,-2,-1,8,5,7,2,-1
1558434880117550,0,2,3,13,10,1,1,-1
1558434880132509,0,0,-2,-4,-10,-4,-1,-1
1558434880132509,-1,-2,0,-3,1,-1,-4,-3
1558434880140488,0,2,6,4,-1,-3,-4,-2
1558434880140488,-2,-3,-5,-9,-6,-5,-3,-3
1558434880147469,-2,-1,2,5,3,3,1,1
1558434880147469,1,1,-8,-20,-2,-1,1,1
1558434880154451,0,-1,3,19,9,3,0,0
1558434880154451,-1,-2,1,0,-2,-3,-1,-1
1558434880170652,0,0,-3,-18,-8,0,1,-2
1558434880170652,-1,1,5,8,2,0,1,0
1558434880177392,1,1,0,-7,-1,-3,-1,1
1558434880177392,0,-1,0,8,-4,-1,-1,0
1558434880192348,-5,-2,-2,8,8,1,-1,0
1558434880192348,-1,-4,0,3,-1,-1,-2,1
1558434880200326,-2,-1,0,-11,-6,-4,-3,-2
1558434880200326,-3,-3,0,-1,-7,-4,-2,-2
1558434880207309,1,-1,-1,0,8,7,5,2
1558434880207309,0,0,-1,4,6,5,0,0
1558434880223266,-2,1,-3,-14,-6,-2,0,-3
1558434880223266,2,-1,-4,-4,-6,-4,-2,-2
1558434880229250,2,-1,2,4,5,-1,-2,-2
1558434880229250,-2,-2,-3,-6,-4,-4,-5,-2
1558434880237228,-3,-3,-1,6,-2,-3,-4,-2
1558434880237228,-2,-1,-5,-6,-1,1,2,-1
1558434880252188,3,2,4,6,4,-1,-1,-2
1558434880252188,0,1,0,5,1,0,1,-2
1558434880260167,-2,-3,-3,-3,-6,-4,-4,-3
1558434880260167,-4,-3,-4,6,0,-2,-4,-6
1558434880267149,-3,-2,-3,4,-2,0,2,-1
1558434880267149,-2,-3,-1,-19,-7,-4,-1,-1
1558434880283105,-1,0,-7,-13,-3,0,-1,1
1558434880283105,1,2,3,0,5,2,3,3
1558434880289089,-1,0,-5,-7,-5,-2,-1,-2
1558434880289089,0,0,7,15,2,1,1,-2
1558434880297068,-4,-5,-4,-2,-4,-4,-4,-2
1558434880297068,-3,-2,-8,-12,-7,-6,-8,-3
1558434880312041,-1,0,-2,-2,-5,1,1,-1
1558434880312041,2,3,-1,-1,11,5,3,2
1558434880320008,2,3,3,6,12,10,5,1
1558434880320008,1,1,4,11,-1,-2,-1,2
1558434880326988,-2,-3,-5,-16,-13,-9,-7,-5
1558434880326988,-3,-3,-4,3,-2,-5,-6,-2
1558434880342947,-3,-3,-4,-11,-10,-6,-3,-5
1558434880342947,0,0,2,4,3,3,4,1
1558434880349927,1,-2,-6,-7,12,6,5,3
1558434880349927,-2,-3,-11,-8,-12,-4,-1,-1
1558434880356907,1,0,0,1,4,-2,-4,0
1558434880356907,-1,1,3,2,-4,-2,-3,-3
1558434880371870,-2,1,4,10,2,0,0,0
1558434880371870,-1,0,4,5,0,-5,-4,-3
1558434880379846,-1,-3,-5,-8,-14,-1,-2,0
1558434880379846,1,1,0,-2,18,12,7,1
1558434880386828,0,1,2,6,-5,-4,-1,-1
1558434880386828,0,-2,-4,-6,-1,-2,0,-1
1558434880402786,2,3,4,14,5,1,1,2
1558434880402786,-2,-1,-1,-4,-8,-3,-3,-2
1558434880409766,-2,-1,-7,-7,-1,-1,-3,-2
1558434880409766,0,1,2,-2,-3,-3,-3,-1
1558434880416748,1,0,3,2,-4,-2,-3,-2
1558434880416748,-1,-2,-2,2,1,-2,-3,0
1558434880431709,-6,-6,-4,-9,-10,-6,-6,-2
1558434880431709,0,1,3,5,4,5,7,1
1558434880440684,1,3,0,-5,10,5,5,2
1558434880440684,-1,-3,-3,-7,-10,-5,-5,-4
1558434880446672,-1,-3,-5,-6,-4,-1,-2,-1
1558434880446672,-4,-1,-3,0,-5,-3,-4,-2
1558434880462626,-4,-3,-3,-6,-2,-8,-6,-6
1558434880462626,-1,-2,-2,5,-5,-4,0,-2
1558434880469607,3,1,7,6,15,12,6,6
1558434880469607,-1,-1,-4,-5,0,0,2,1
1558434880485563,2,0,2,5,8,5,3,0
1558434880485563,0,2,4,13,3,-3,-3,-1
1558434880492551,-4,-4,-12,-34,-18,-9,-5,-5
1558434880492551,-3,-4,2,2,-1,-4,-4,-5
1558434880500529,-2,0,1,-2,-12,-10,-8,-4
1558434880500529,-1,-3,-10,-7,-8,-3,-3,0
1558434880507508,2,4,2,18,17,13,10,5
1558434880507508,3,2,0,-4,8,12,7,4
1558434880522467,-2,-4,-2,-2,-2,-4,-2,-1
1558434880522467,0,0,3,-2,-3,-3,-1,1
1558434880529447,-2,-3,-1,4,-8,-11,-8,-4
1558434880529447,-2,-2,0,-3,-8,-7,-8,-5
1558434880537425,-2,-3,0,10,2,-2,-3,-3
1558434880537425,-1,0,0,-11,-7,1,1,0
1558434880552390,0,0,0,2,3,4,3,1
1558434880552390,2,2,2,10,11,7,1,-1
1558434880560370,1,0,-1,-3,-2,0,2,0
1558434880560370,-1,0,2,5,0,-1,-2,0
1558434880567355,-1,1,3,3,-4,-5,-2,-1
1558434880567355,-2,-2,-1,-6,-4,-1,1,-1
1558434880583304,-1,-2,-3,2,0,-3,-4,-2
1558434880583304,0,-2,0,-5,-2,-4,-3,-2
1558434880589289,2,2,4,10,7,10,5,1
1558434880589289,-1,0,-1,4,1,0,0,0
1558434880597271,-2,0,-3,-10,1,5,3,-1
1558434880597271,-1,0,0,-2,5,1,0,-1
1558434880621207,-4,-4,-1,4,-9,-10,-9,-5
1558434880621207,-2,-2,-1,-5,-10,-6,-4,-1
1558434880621207,0,0,3,1,-1,-2,-1,0
1558434880621207,-4,-4,-6,-6,-4,-4,-5,-3
1558434880635166,2,0,0,10,10,6,6,2
1558434880635166,0,-1,-1,-5,6,2,3,0
1558434880643250,-1,0,1,1,-3,1,2,1
1558434880643250,0,0,2,-1,1,5,0,-1
1558434880658111,-4,1,-1,-4,-9,-9,-6,-3
1558434880658111,-2,-1,-4,-1,-13,-11,-7,-5
1558434880659100,-1,-1,1,4,0,-4,-3,-2
1558434880659100,0,-2,-3,-5,0,3,1,0
1558434880672073,-4,-4,-3,-8,-9,-6,-3,-4
1558434880672073,1,-1,2,5,13,10,5,3
1558434880680096,2,0,0,6,-2,-2,-1,-1
1558434880680096,-1,-3,-6,0,5,6,3,0
1558434880695015,0,0,2,-7,-2,-4,-4,-3
1558434880695015,-5,-3,-3,1,-8,-10,-6,-2
1558434880702993,0,-1,0,0,-6,-2,-2,0
1558434880702993,0,0,-2,-2,2,0,-1,-1
1558434880717954,0,-1,-1,1,2,0,0,-1
1558434880717954,-2,0,3,5,4,2,2,-2
1558434880718940,0,-2,-5,-9,-3,6,6,-1
1558434880718940,-1,0,-1,-9,-3,-2,-2,0
1558434880731907,0,-1,-5,-4,0,0,-2,-1
1558434880731907,1,0,0,3,-1,-4,-4,1
1558434880740883,-3,-1,0,2,5,0,0,1
1558434880740883,0,1,1,3,0,-6,-4,-2
1558434880754846,-1,0,5,12,0,-3,-3,-2
1558434880754846,-1,-2,-2,-6,-3,-2,0,-3
1558434880762824,0,-2,0,-4,0,3,2,-2
1558434880762824,2,0,1,12,6,7,4,3
1558434880777782,0,-2,-6,0,5,4,3,4
1558434880777782,-2,-2,-6,-8,-11,-11,-6,-4
1558434880778779,-1,-3,-7,-10,-3,-5,-4,-2
1558434880778779,-1,0,2,-1,1,-1,-1,-2
1558434880791746,0,-1,4,3,-3,0,-3,-3
1558434880791746,-1,1,-1,-5,-1,1,0,-1
1558434880800722,-1,-1,-2,5,5,2,2,0
1558434880800722,-2,-1,6,2,-5,-4,-1,-2
1558434880814684,-3,-4,-8,-12,-10,-4,-5,-3
1558434880814684,0,-3,-2,-8,2,3,0,1
1558434880822665,0,-1,-2,3,4,2,6,5
1558434880822665,0,-1,-7,-15,0,1,0,2
1558434880837626,-2,-1,2,2,3,-1,-1,-4
1558434880837626,-3,-1,3,-4,-11,-7,-6,-4
1558434880838623,-1,-2,-8,-7,-6,-4,-3,-2
1558434880838623,0,0,1,7,7,8,6,3
1558434880852590,1,1,-1,-3,0,0,1,2
1558434880852590,1,-2,-7,-7,1,3,2,1
1558434880859568,0,-1,5,3,-4,-3,-3,-4
1558434880859568,-1,-2,0,3,-10,-11,-7,-2
1558434880874524,-3,-3,-4,-4,-3,-7,-5,-3
1558434880874524,1,-1,-1,6,3,2,2,1
1558434880882504,0,1,2,6,10,8,4,2
1558434880882504,-3,0,-1,-2,-1,-1,-2,-1
1558434880897462,0,-2,-6,-5,-2,0,1,-1
1558434880897462,-3,-3,-7,-2,-5,-6,-5,-4
1558434880898459,-1,-1,0,-3,-5,-4,-4,-3
1558434880898459,-1,-1,4,2,0,-1,-1,-3
1558434880912422,-1,0,5,7,0,-3,-1,0
1558434880912422,1,-1,-1,-11,2,3,3,-1
1558434880919454,-4,-2,-2,4,-5,-5,-2,-3
1558434880919454,-1,-4,-3,-4,-5,-2,-4,-1
1558434880934364,-1,0,4,-2,1,-2,-1,1
1558434880934364,1,1,-2,2,5,7,4,2
1558434880943345,-1,-1,0,0,0,-1,-4,0
1558434880943345,2,-1,-1,3,0,-2,-1,-2
1558434880958302,1,2,6,2,0,3,4,1
1558434880958302,-2,-1,-6,-6,-2,-1,0,-2
1558434880959302,-3,0,1,2,3,-1,-1,-2
1558434880959302,-2,-1,-6,-5,-4,-6,-4,-5
1558434880972265,1,-3,0,-4,-2,1,0,-1
1558434880972265,0,-1,7,10,0,0,-1,0
1558434880979246,0,-1,-3,-6,-2,-2,-1,0
1558434880979246,0,-1,3,7,1,-2,-1,-1
1558434880994204,-2,-1,-8,-15,-8,-2,-1,-1
1558434880994204,-2,-2,-1,3,4,0,-1,-2
1558434881003179,0,0,0,0,3,1,1,0
1558434881003179,0,-1,0,2,0,-2,-2,-1
1558434881018143,-3,-2,-1,-5,-6,-4,-4,-3
1558434881018143,-2,-1,1,1,-1,-2,-3,-1
1558434881018143,0,0,-3,-9,-6,-3,4,2
1558434881018143,-1,-3,-4,2,1,3,0,-1
1558434881032106,-2,-3,-5,-1,5,9,2,2
1558434881032106,-3,-2,-2,-4,-3,-4,-4,-2
1558434881040082,1,0,4,5,1,-2,-1,0
1558434881040082,-3,-1,-3,-8,-2,-1,-1,-1
1558434881055041,-1,0,2,8,-1,-5,-4,-3
1558434881055041,0,-1,-2,-15,-4,-4,-3,-2
1558434881063094,-1,-3,-5,5,-1,-1,-2,-1
1558434881063094,-2,-2,-3,-7,-5,-2,1,1
1558434881077980,0,-1,-1,1,4,1,-2,-1
1558434881077980,-1,-1,2,0,1,4,4,1
1558434881078978,-1,-2,3,-6,-1,-5,-4,-2
1558434881078978,-1,-1,-3,2,4,3,1,-1
1558434881091944,0,-3,-3,-1,-9,-2,-1,-1
1558434881091944,0,0,-4,1,-5,-4,-3,-4
1558434881099922,-2,-3,-1,-3,1,3,3,2
1558434881099922,-1,1,4,3,3,1,1,0
1558434881114880,0,0,0,0,0,-2,0,0
1558434881114880,-1,-1,-1,5,-2,-1,-1,2
1558434881122858,-1,1,-1,0,-7,-6,-8,-4
1558434881122858,1,-1,2,1,4,4,2,-1
1558434881137821,-2,-1,0,10,2,-2,1,1
1558434881137821,-2,-1,1,-3,1,3,1,0
1558434881138819,-3,-1,0,-5,0,-2,-2,-2
1558434881138819,-1,-4,-4,-7,-8,-6,-4,-4
1558434881151785,-1,1,2,3,3,1,0,0
1558434881151785,2,1,0,-5,1,3,2,0
1558434881159765,0,-1,-5,-4,0,1,0,-1
1558434881159765,-1,-1,0,1,1,5,2,-1
1558434881174723,-1,-1,-1,0,-5,-6,-4,-2
1558434881174723,1,2,7,16,7,4,3,1
1558434881182699,-2,-4,-11,-8,-2,-2,-1,-2
1558434881182699,-1,0,1,-5,-7,-5,-3,-2
1558434881196666,-2,-3,-4,-3,-3,-2,0,-3
1558434881196666,-3,-3,-3,-8,-8,-5,-4,-2
1558434881205638,-2,-1,3,4,-1,-4,-4,-3
1558434881205638,0,1,7,14,-2,-4,-2,1
1558434881220604,-2,-2,-7,-12,6,4,3,2
1558434881220604,-1,-1,-6,-6,3,2,1,0
1558434881220604,0,-1,1,1,-2,0,-1,-2
1558434881220604,-3,-1,-1,-5,-2,-5,-4,-2
1558434881234563,0,2,6,9,1,-4,-3,-1
1558434881234563,-1,-3,-7,-3,-9,-5,-3,0
1558434881242544,-1,-2,-1,0,1,1,0,1
1558434881242544,-2,-1,-4,-11,1,1,2,-1
1558434881257620,0,0,3,-2,0,2,0,0
1558434881257620,-1,-3,0,5,0,-3,-3,-3
1558434881265596,2,1,1,1,-1,1,1,-2
1558434881265596,-1,-2,-3,0,-1,1,-1,0
1558434881272579,0,-3,4,1,-3,-3,-2,-2
1558434881272579,-3,-1,-7,0,-5,-7,-6,-3
1558434881279665,-3,-2,-3,-6,-3,-3,-1,0
1558434881279665,0,-1,0,0,4,7,3,1
1558434881296520,2,-1,-4,-9,2,8,5,0
1558434881296520,-1,2,11,18,6,-3,0,-1
1558434881302497,-1,-2,-3,-8,-5,-7,-4,-2
1558434881302497,-4,-4,-7,-24,-14,-10,-6,-5
1558434881317508,-3,0,1,3,-6,-7,-4,-3
1558434881317508,0,2,0,-8,1,2,1,2
1558434881325477,0,0,-2,-1,4,5,4,0
1558434881325477,-2,-2,2,7,-2,-2,-1,-1
1558434881332422,1,-1,3,-1,0,3,0,1
1558434881332422,-2,-4,-2,5,4,1,0,-2
1558434881339401,-2,-1,1,-7,-8,-5,-6,-2
1558434881339401,0,-1,-6,-7,1,2,2,-2
1558434881354356,-2,-1,2,11,1,-7,-4,-3
1558434881354356,-2,-5,-11,-20,-8,-1,1,0
1558434881362336,0,0,-1,1,-2,3,2,2
1558434881362336,0,1,1,6,-2,-4,-3,-2
1558434881377726,-2,-1,2,4,2,1,1,-1
1558434881377726,2,1,1,1,4,4,4,0
1558434881385773,0,-2,-2,9,-1,-2,-2,-2
1558434881385773,-1,-3,-4,-14,-6,-5,-4,-2
1558434881400657,0,0,-6,-4,0,3,1,1
1558434881400657,-1,-2,7,14,-2,-3,-3,-1
1558434881401232,0,0,0,-1,1,0,-1,-1
1558434881401232,-1,-4,-1,1,0,0,1,1
1558434881414196,2,0,-3,-3,1,0,-2,-1
1558434881414196,-3,-2,-1,-4,0,-1,-3,-3
1558434881423470,-1,2,4,13,-2,-2,-1,-2
1558434881423470,0,2,1,12,1,2,0,-2
1558434881437142,-2,-2,-7,-21,-3,0,-2,-2
1558434881437142,-1,-3,-9,-9,-4,-7,-2,-1
1558434881445332,-1,-2,0,4,-1,-1,1,0
1558434881445332,-1,0,2,4,0,-2,1,0
1558434881461114,-1,-3,-10,-5,-3,1,1,0
1558434881461114,-2,0,1,3,-2,-3,-2,-2
1558434881461114,0,0,-2,-6,-1,-6,-3,-4
1558434881461114,-2,0,-1,0,-4,-3,-2,1
1558434881475194,0,2,7,16,3,1,1,0
1558434881475194,-2,-2,-3,-3,4,4,1,1
1558434881483020,-2,-2,0,-2,-1,-2,-1,0
1558434881483020,0,1,3,1,5,5,1,0
1558434881497279,-4,-1,0,2,-3,-7,-3,-3
1558434881497279,0,0,1,0,-6,-3,-3,-1
1558434881504957,-2,-2,-6,0,10,2,-2,-2
1558434881504957,0,1,0,-4,-5,-2,0,0
1558434881520137,-1,-2,0,1,-3,-4,-4,-1
1558434881520137,-1,-2,-8,-28,-9,-1,-1,1
1558434881520950,-1,-1,5,3,2,-1,1,-1
1558434881520950,2,-3,-4,4,2,0,-2,0
1558434881534913,-2,0,-2,-3,-1,-2,-1,-1
1558434881534913,1,3,8,15,5,7,5,1
1558434881543071,0,-2,-3,-4,-5,0,0,1
1558434881543071,-1,0,6,7,6,-3,-2,-1
1558434881556857,-3,-5,-10,-12,-16,-9,-6,-3
1558434881556857,-2,-3,6,4,1,-3,-3,-3
1558434881565792,-1,-2,-14,-23,2,7,4,2
1558434881565792,0,0,0,7,1,2,1,-2
1558434881580753,-3,2,3,7,2,-1,1,0
1558434881580753,-3,-3,-4,-8,-4,-5,-5,-4
1558434881596743,-1,-1,3,4,-3,-4,-2,-1
1558434881596743,0,1,1,-1,-3,-2,-2,-2
1558434881597707,-1,-5,-5,-4,4,4,2,0
1558434881597707,1,1,0,3,2,-2,2,0
1558434881602693,-1,-1,4,10,1,0,2,1
1558434881602693,-1,-2,-11,-25,0,1,0,0
1558434881616655,-1,0,3,0,-1,-2,0,1
1558434881616655,-3,-1,0,6,3,0,-1,0
1558434881625804,-1,-5,-10,-15,-10,-5,-4,-4
1558434881625804,-3,-1,3,12,-7,-7,-4,-4
1558434881640622,0,0,-1,-6,1,3,0,-1
1558434881640622,-2,-2,-1,-4,3,3,2,2
1558434881641620,0,1,4,5,6,1,0,-2
1558434881641620,-2,-3,0,-5,-3,-2,-2,-1
1558434881656607,1,-1,0,-4,-5,-1,-2,-2
1558434881656607,0,0,0,-1,-1,-3,-2,-2
1558434881663589,-1,-1,-1,12,-2,-2,-2,-1
1558434881663589,-3,-5,-10,-17,-5,-4,-1,-1
1558434881677781,-2,-1,4,17,2,-2,-2,-4
1558434881677781,-2,-4,-6,-17,-13,-8,-6,-5
1558434881685807,1,2,1,3,8,11,7,4
1558434881685807,3,3,5,9,16,13,9,5
1558434881700758,-1,-1,0,-4,0,-1,1,-1
1558434881700758,-2,-2,-5,-1,-4,-5,-3,-3
1558434881700758,-2,-3,-2,-2,-9,-11,-9,-4
1558434881700758,-1,-1,0,5,-3,-3,-2,1
1558434881714450,-1,-1,-3,-7,-5,-1,1,1
1558434881714450,-1,-5,-10,-18,-9,-4,-5,-4
1558434881723599,-1,2,1,-1,1,-4,-1,1
1558434881723599,-1,0,1,6,7,3,1,1
1558434881737624,0,-1,-3,-8,-7,-2,0,-1
1558434881737624,-3,-2,-1,0,0,-1,1,0
1558434881745589,-1,-1,4,-5,-3,2,0,-1
1558434881745589,-1,-4,-4,1,-5,-4,-5,-2
1558434881760630,-3,-2,-8,-10,-5,-5,-6,-2
1558434881760630,0,-2,-2,6,2,1,-1,-1
1558434881761323,3,-2,3,7,2,4,5,2
1558434881761323,1,0,3,0,-1,-2,-1,-1
1558434881774288,3,2,2,11,9,8,5,2
1558434881774288,0,0,1,-10,1,1,0,-1
1558434881783261,-3,-3,-1,4,-7,-5,-6,-1
1558434881783261,-3,-4,-7,-13,-12,-6,-5,-3
1558434881797225,-3,0,-3,0,-12,-11,-7,-3
1558434881797225,1,-1,0,-4,9,6,7,3
1558434881805245,0,1,0,-4,5,6,4,3
1558434881805245,-1,0,0,4,3,1,0,-1
1558434881820449,-2,0,4,7,0,-1,-4,-1
1558434881820449,-2,0,0,5,-5,-3,-4,-2
1558434881821163,-2,-4,-6,-11,-4,-5,-4,-4
1558434881821163,0,-1,-4,-18,-8,-5,-2,1
1558434881835313,0,1,4,1,5,-1,0,0
1558434881835313,-3,-1,6,12,-7,-6,-3,-2
1558434881843395,-1,-1,-1,1,3,3,4,2
1558434881843395,-2,-1,1,6,6,2,-1,0
1558434881857355,2,1,2,8,6,6,4,2
1558434881857355,1,1,-3,-10,-5,-4,-2,-1
1558434881865047,1,2,-1,-3,0,1,-2,-1
1558434881865047,-2,-3,-1,5,-5,-6,-6,-3
1558434881880298,-2,-3,0,-1,5,5,3,1
1558434881880298,-1,0,-1,8,1,1,-1,-1
1558434881881001,-3,-2,1,-4,-5,-6,-6,-3
1558434881881001,-2,-4,-12,-16,-6,-1,-3,-4
1558434881895214,0,-2,-7,-6,-4,-5,0,1
1558434881895214,4,2,8,19,8,7,6,3
1558434881903194,-1,-3,-4,-10,-4,-5,-3,-3
1558434881903194,-2,-2,1,2,-3,-2,-2,-2
1558434881925912,-3,-6,-5,-3,-9,-7,-5,-4
1558434881925912,0,2,0,-5,3,0,1,1
1558434881926880,-3,1,3,5,4,3,4,2
1558434881926880,-3,-3,-4,-5,-3,-1,-1,-1
1558434881939882,-1,-1,0,-4,0,0,-1,0
1558434881939882,-2,0,0,2,3,2,-1,-1
1558434881940842,-1,-1,6,4,-1,-1,-2,-1
1558434881940842,0,0,-5,-2,-1,-4,-2,-1
1558434881954803,0,-3,-7,1,-1,-1,1,0
1558434881954803,1,-1,0,0,4,2,-1,0
1558434881962781,-2,-1,-1,0,-9,-7,-4,-3
1558434881962781,1,2,8,9,4,3,4,-1
1558434881976747,-1,-1,-1,-2,-4,-3,-2,-1
1558434881976747,-1,-2,-2,3,0,-2,-1,0
1558434881985719,-1,-2,-8,-11,0,-2,-1,0
1558434881985719,1,-1,4,2,0,-4,-2,-2
1558434882001000,-1,-1,1,-2,1,-1,-2,-1
1558434882001000,-2,-2,-2,-1,-6,-1,-3,-3
1558434882001000,-2,0,0,1,-1,2,0,-2
1558434882001000,3,4,5,14,6,3,4,3
1558434882014653,-3,-5,-6,-12,-6,-3,-5,-4
1558434882014653,-4,-7,-11,-10,-10,-9,-5,-5
1558434882022930,-1,-1,-1,6,6,3,0,1
1558434882022930,-1,-1,-4,-17,1,1,1,-1
1558434882037951,0,-1,0,9,5,3,1,1
1558434882037951,2,0,3,-5,-10,-6,-2,-3
1558434882045944,-3,-2,-4,-3,-6,-3,-5,-3
1558434882045944,1,-2,-1,4,3,2,1,-1
1558434882060522,0,2,6,0,3,2,2,2
1558434882060522,1,0,1,6,8,7,4,2
1558434882061730,-1,-3,-3,-5,-6,-6,-3,-2
1558434882061730,-2,-1,0,-3,-4,-1,-3,-2
1558434882074845,-1,-3,-3,-3,-4,-7,-5,-5
1558434882074845,-2,-2,-3,1,-1,-3,2,0
1558434882083609,2,1,1,6,3,4,3,1
1558434882083609,-3,-1,0,2,-1,-1,-1,0
1558434882097424,-4,-3,-2,-9,0,3,4,-2
1558434882097424,-2,0,-1,1,1,-4,-4,-4
1558434882105670,-2,-3,-11,-14,-7,-1,-1,-2
1558434882105670,-1,0,1,0,-5,-2,-3,2
1558434882119392,1,0,4,6,4,1,-2,2
1558434882119392,-1,-2,3,-2,-1,-4,-2,-1
1558434882128588,0,1,3,4,-2,-5,-4,-1
1558434882128588,-2,-4,-7,-7,-6,-3,-3,-4
1558434882135404,-3,-2,-1,5,0,3,1,-1
1558434882135404,-1,-1,-6,-17,-3,-3,-1,0
1558434882143597,-1,-2,-1,0,3,1,-1,-1
1558434882143597,0,0,-4,-1,-1,-3,-1,-1
1558434882157558,0,-1,0,1,1,2,0,-2
1558434882157558,-1,0,-1,8,0,2,0,-1
1558434882165240,1,-2,1,-3,-6,-7,-3,-3
1558434882165240,-4,-3,4,10,7,4,-1,-1
1558434882179502,-1,0,-9,-17,-2,2,1,1
1558434882179502,-1,-3,-2,-1,0,2,1,1
1558434882188469,0,-1,-1,-3,-3,-4,-1,-2
1558434882188469,-1,-1,1,2,1,-4,0,-3
1558434882195409,1,-2,-5,-6,-10,-6,-2,-2
1558434882195409,-1,0,1,2,-1,-3,0,1
1558434882203425,-1,-1,-2,-2,-1,-3,-2,-1
1558434882203425,-2,-2,1,7,-2,-2,-2,-3
1558434882217432,0,-1,1,4,-1,-3,1,-1
1558434882217432,2,3,0,-4,9,8,2,3
1558434882226119,-3,-5,-3,-4,2,0,-2,0
1558434882226119,0,-1,1,-3,-2,2,0,1
1558434882240361,-3,0,-2,-1,-3,-4,-1,-3
1558434882240361,-2,-1,0,2,-7,-5,-3,-3
1558434882248021,0,-2,-1,-1,1,-2,-3,-1
1558434882248021,-2,-1,-6,-8,-9,-8,-6,-2
1558434882255303,0,2,13,15,2,0,1,-1
1558434882255303,1,2,-2,0,13,14,12,6
1558434882263343,0,-1,-2,2,3,4,4,0
1558434882263343,-1,-2,0,-1,-11,-3,-1,-1
1558434882277276,-2,-6,-6,-13,-9,-11,-9,-2
1558434882277276,1,-1,0,4,-1,-3,-5,-1
1558434882286114,1,2,-1,3,3,2,1,0
1558434882286114,0,-2,-7,-8,-1,-1,0,-3
1558434882300311,1,1,3,0,-1,-2,-5,-2
1558434882300311,-1,-3,-1,0,-10,-6,-2,-3
1558434882308163,0,0,-1,5,4,4,3,3
1558434882308163,1,0,2,5,10,4,5,1
1558434882324069,-2,0,-5,-16,0,3,1,1
1558434882324069,-3,-4,-9,-14,-15,-8,-6,-6
1558434882324069,1,0,4,3,-5,-4,-2,-1
1558434882324069,-1,-3,-6,-5,-2,1,-1,-2
1558434882336780,0,-1,-2,1,-3,-5,-5,-3
1558434882336780,2,1,3,5,6,-1,-1,2
1558434882352738,0,1,1,8,8,7,7,2
1558434882352738,0,3,6,2,8,4,3,0
1558434882360941,-3,-3,-8,-6,-5,-3,-3,-3
1558434882360941,-3,-3,-6,-7,-12,-8,-7,-6
1558434882367729,-1,-3,2,4,-2,-4,-3,-3
1558434882367729,-1,-2,-1,2,-1,-3,0,0
1558434882383661,-1,0,1,0,0,-1,-1,-2
1558434882383661,-3,-4,2,2,-4,-6,-6,-4
1558434882383661,-2,1,-2,0,1,2,2,2
1558434882383661,1,2,0,-9,15,14,8,5
1558434882413601,2,1,4,7,7,5,3,1
1558434882413601,0,3,3,4,6,1,1,1
1558434882414594,-3,-7,-12,-16,-16,-11,-9,-8
1558434882414594,-3,-3,-6,-9,-9,-10,-5,-5
1558434882419595,0,-1,2,2,2,3,2,-2
1558434882419595,0,-1,4,7,-3,-2,-5,-2
1558434882427539,-2,-2,-5,-13,-5,-2,-3,-4
1558434882427539,0,1,2,15,7,4,4,3
1558434882443495,1,0,0,5,13,8,7,3
1558434882443495,-2,-1,-4,-7,-2,2,1,0
1558434882444492,0,0,5,5,-2,-4,-2,-1
1558434882444492,-1,-3,-1,-1,-9,-5,-4,-3
1558434882457883,-1,-2,-6,-16,-9,-4,-5,-4
1558434882457883,0,0,2,11,1,-4,-2,-2
1558434882465436,-3,-1,-7,-15,-5,1,2,3
1558434882465436,1,0,3,6,3,1,1,3
1558434882479834,-2,1,1,7,4,3,2,3
1558434882479834,-2,-3,-9,-13,2,2,0,0
1558434882488685,-2,-3,4,6,-1,-2,-2,-2
1558434882488685,-3,-3,-6,-10,-9,-9,-8,-4
1558434882503794,-1,-1,0,-3,-5,-5,-4,-1
1558434882503794,-3,-2,-2,-1,-8,-5,-2,-2
1558434882504334,1,3,1,4,2,2,2,0
1558434882504334,0,0,-1,1,4,4,4,2
1558434882517281,1,0,-3,0,1,3,3,0
1558434882517281,-1,-1,1,1,2,1,0,-1
1558434882526272,-1,0,1,4,0,-1,-2,-1
1558434882526272,-2,0,-2,-4,-4,-4,-3,-3
1558434882540082,-2,-2,1,2,-4,-4,-5,-1
1558434882540082,0,-2,-2,0,-3,-1,0,-2
1558434882547730,-2,-2,-7,-25,-8,-2,-4,-4
1558434882547730,-1,-3,-3,-5,-8,-6,-4,-3
1558434882563775,2,3,4,11,14,8,9,4
1558434882563775,4,2,6,9,8,10,7,4
1558434882563775,-1,2,3,7,8,2,0,0
1558434882563775,-2,-1,2,2,-7,-5,-4,-4
1558434882577740,-6,-4,-11,-18,-13,-12,-9,-4
1558434882577740,-1,1,1,-2,0,-4,-1,0
1558434882585881,1,0,7,15,1,-1,-2,-1
1558434882585881,-1,-2,-5,-9,1,-3,-4,-2
1558434882599620,3,1,-2,-2,2,11,7,3
1558434882599620,-2,-1,6,6,-1,-1,1,-3
1558434882608566,-2,-1,0,-1,4,2,0,-2
1558434882608566,-2,-2,-3,-1,-2,-5,-4,-2
1558434882622568,-3,-2,0,2,-1,-5,-5,-4
1558434882622568,-1,-3,-6,-6,-4,-1,-2,0
1558434882631503,1,-1,1,1,-4,-2,-2,0
1558434882631503,-1,-3,-2,2,-1,-1,-1,-1
1558434882637487,-1,-1,3,7,3,1,-1,-2
1558434882637487,-1,0,-8,-6,2,4,0,2
1558434882646463,-3,-3,-1,-9,-1,-2,0,-2
1558434882646463,-1,0,-4,-2,-1,4,3,2
1558434882659487,-3,-3,-7,-7,-7,-6,-4,-1
1558434882659487,-2,-1,5,3,1,-5,-1,-2
1558434882668442,0,1,1,7,5,-1,-2,-1
1558434882668442,-2,-2,1,-10,-13,-2,-3,-3
1558434882682662,0,2,7,12,8,2,1,0
1558434882682662,-1,-1,-3,3,3,5,4,3
1558434882691344,2,2,-1,1,6,7,6,3
1558434882691344,-1,0,3,10,3,0,0,-4
1558434882697327,0,-3,-6,-15,-11,-8,-6,-3
1558434882697327,-3,-1,1,-2,-5,-6,-6,-5
1558434882706304,-2,-4,-10,-14,-11,-10,-4,-2
1558434882706304,-3,-2,-14,-13,6,8,7,2
1558434882719604,2,1,7,13,8,7,5,0
1558434882719604,-2,-4,-4,-9,-5,0,-2,-1
1558434882728550,-5,-2,1,6,-3,-4,-4,-3
1558434882728550,-1,-2,-1,-5,-6,-5,-4,-3
1558434882742472,-1,0,-1,4,3,0,-1,0
1558434882742472,2,2,7,12,-1,-3,-1,0
1558434882751186,-2,-6,-13,-19,-5,-3,-3,-3
1558434882751186,0,-2,1,-3,-10,-5,-4,-1
1558434882757408,-4,-3,-1,-4,-1,-3,-2,-3
1558434882757408,1,2,0,5,8,9,6,1
1558434882766143,1,0,5,8,5,2,4,1
1558434882766143,-2,-2,-11,-9,6,3,2,0
1558434882780403,-2,-5,1,1,-8,-7,-5,-3
1558434882780403,-3,-2,0,-6,-6,-4,-3,-3
1558434882789083,-2,1,0,3,-3,-1,-1,0
1558434882789083,4,3,6,11,6,4,5,3
1558434882802288,0,-1,-3,-2,-1,1,0,0
1558434882802288,-2,-3,-12,-19,-3,-2,-3,-4
1558434882811024,-1,0,4,5,-2,0,-2,-1
1558434882811024,-1,2,6,7,-5,-4,-3,-2
1558434882817264,-2,-1,-7,-9,-8,-6,-3,-3
1558434882817264,0,0,4,4,6,-1,-3,-1
1558434882825984,-2,-3,-3,-7,-8,-3,-4,-1
1558434882825984,-1,-1,0,5,0,-2,0,1
1558434882840262,1,-1,-4,-2,5,3,3,3
1558434882840262,-2,-3,-7,-16,-4,-3,-1,1
1558434882848921,1,1,3,11,1,0,-1,-2
1558434882848921,-1,-1,3,1,2,-2,-1,-2
1558434882862233,0,0,-1,-6,-9,-1,-4,-5
1558434882862233,-4,-5,-2,1,-11,-9,-6,-4
1558434882870866,-1,0,0,0,10,4,6,2
1558434882870866,-1,0,1,2,7,9,7,4
1558434882877201,1,2,4,5,3,-1,0,0
1558434882877201,-1,-3,-11,-4,-1,-2,-2,-1
1558434882886192,-2,-2,-4,-5,-12,-7,-7,-4
1558434882886192,-2,-1,-2,4,-5,-7,-3,-5
1558434882900182,1,0,1,1,4,6,6,2
1558434882900182,0,-2,-3,-9,2,2,1,0
1558434882908763,-1,-1,-4,-3,2,-2,0,-1
1558434882908763,1,-2,0,-4,-7,-7,-6,-1
1558434882922826,-3,-1,-2,-1,0,-4,-3,0
1558434882922826,0,2,5,4,2,4,2,0
1558434882930703,-1,-1,0,12,8,6,1,-3
1558434882930703,-4,-2,-2,-4,0,-1,-1,0
1558434882936688,0,-2,-3,-10,-9,-6,-2,0
1558434882936688,-2,0,0,6,-3,-2,0,0
1558434882945983,-1,-1,-1,-10,-1,-1,0,-1
1558434882945983,0,2,-3,0,5,4,0,-2
1558434882959899,-3,-5,-5,2,-10,-9,-5,-5
1558434882959899,-1,-1,0,-2,-3,-1,-1,-3
1558434882968603,1,0,-2,2,-3,-2,-3,-1
1558434882968603,-2,-2,-1,1,1,-2,-2,0
1558434882981566,0,0,-3,-12,-3,3,3,0
1558434882981566,0,0,2,2,4,0,-1,1
1558434882990541,-2,-1,0,-2,-6,-2,-2,1
1558434882990541,1,-2,1,0,4,1,-1,-1
1558434882996525,1,3,6,14,3,-3,-3,0
1558434882996525,-1,-1,-4,-1,1,2,1,1
1558434883005502,-1,-1,-3,-11,-2,2,2,1
1558434883005502,-2,0,6,9,1,-3,-2,-4
1558434883019494,-2,-2,-1,-15,-6,-3,-4,-3
1558434883019494,-1,-3,-6,-11,-8,-7,-7,-4
1558434883028659,1,0,-2,-1,1,0,-1,1
1558434883028659,0,0,-1,0,-4,-2,1,-1
1558434883042899,-1,0,0,12,7,5,2,0
1558434883042899,-3,0,2,-5,-4,-5,-3,-1
1558434883051269,-2,-1,2,-2,-4,-3,-2,-1
1558434883051269,0,-3,3,13,5,4,1,1
1558434883057321,1,-1,-4,-10,0,-2,2,2
1558434883057321,0,-2,-4,-4,-3,-5,-1,1
1558434883065830,0,0,3,3,6,5,2,-2
1558434883065830,-4,-3,-13,-23,-13,-8,-5,-4
1558434883080222,-2,-1,2,6,-2,-3,-5,-3
1558434883080222,3,1,1,7,6,7,3,1
1558434883088769,-1,1,-4,-1,5,2,2,-1
1558434883088769,0,1,4,5,2,1,-2,0
1558434883102771,-4,-3,-9,-16,-7,-7,-5,-3
1558434883102771,-2,-1,3,2,2,1,0,-3
1558434883110997,-1,0,-2,0,-5,-5,-3,0
1558434883110997,-2,-4,-6,2,-6,-4,-2,-1
1558434883117880,-2,1,0,-1,6,4,1,-1
1558434883117880,-1,0,5,11,1,0,1,-2
1558434883126016,0,1,-4,-14,1,3,2,1
1558434883126016,0,-1,-1,3,1,-1,0,-1
1558434883139977,0,-2,0,4,2,-2,-5,-1
1558434883139977,1,3,8,12,-2,-3,-1,0
1558434883148608,-3,-3,-14,-6,-4,-5,-4,-1
1558434883148608,-1,-1,0,-13,-5,-6,-1,-1
1558434883162908,0,-1,-4,-3,2,2,1,0
1558434883162908,0,-1,2,8,6,2,2,-3
1558434883170840,-1,-2,2,9,-5,-5,-1,-1
1558434883170840,0,3,3,-8,1,2,2,1
1558434883179062,-1,1,1,6,8,4,2,0
1558434883179062,-4,-3,-8,-6,-9,-6,-6,-2
1558434883185786,0,-1,-1,-19,-11,-4,-1,-1
1558434883185786,1,-2,1,11,8,5,3,0
1558434883199777,-1,-1,6,17,0,1,1,0
1558434883199777,-1,-1,-6,-15,-1,0,-4,-4
1558434883208572,-3,-3,-6,-3,-5,-5,-4,-2
1558434883208572,-5,-3,-5,-7,-5,-4,-3,-1
1558434883222695,1,1,-2,-4,-4,-2,0,0
1558434883222695,1,-1,4,15,8,5,2,0
1558434883231388,-1,-1,3,6,1,-1,-1,0
1558434883231388,0,0,-9,-18,-3,1,-1,-1
1558434883246666,-2,-4,-5,-6,-4,-4,-4,-1
1558434883246666,-4,-4,-2,0,0,0,0,0
1558434883247346,0,1,4,10,7,3,2,-1
1558434883247346,0,-1,5,11,-1,-5,-4,0
1558434883260343,-1,-2,-10,-16,-7,-3,-3,-1
1558434883260343,-1,-2,-4,-13,-4,-2,0,0
1558434883268656,2,0,6,6,3,2,1,0
1558434883268656,-2,-1,-3,5,6,0,-2,-3
1558434883282252,1,1,4,-1,-5,0,0,1
1558434883282252,1,-1,-1,-5,-1,-5,-4,1
1558434883291229,-4,-6,-5,1,-7,-5,-4,-1
1558434883291229,-2,2,-2,-8,1,4,3,2
1558434883306523,-2,0,3,4,9,5,1,0
1558434883306523,1,3,2,4,3,1,0,0
1558434883307426,0,-3,0,10,-1,-3,-2,-2
1558434883307426,-1,-2,-4,-9,-2,0,-3,-2
1558434883320426,-1,-2,-1,-2,-6,-2,0,-2
1558434883320426,0,0,-4,-5,-5,-4,-6,-2
1558434883328445,0,1,-3,-10,-3,2,-2,-2
1558434883328445,2,0,4,13,3,-4,0,1
1558434883342405,-2,-1,-4,0,-4,-2,1,-1
1558434883342405,-1,-1,2,1,3,0,-1,1
1558434883367025,-1,-3,-7,-4,-2,-3,-4,-2
1558434883367025,-2,-2,-3,-4,-12,-7,-6,-5
1558434883367025,0,1,2,4,-2,-1,1,0
1558434883367025,2,1,0,6,7,8,6,3
1558434883369021,1,-1,-1,1,6,6,5,1
1558434883369021,-1,2,0,-12,-3,-2,0,-1
1558434883380227,-3,-2,-4,6,-10,-9,-8,-2
1558434883380227,-3,-3,-2,-4,-6,-5,-2,0
1558434883388004,0,2,7,5,0,2,-1,0
1558434883388004,-2,-4,-2,-14,-4,0,0,-2
1558434883401933,-1,0,-3,4,7,2,1,-2
1558434883401933,-1,-1,1,0,-3,4,5,2
1558434883411082,-3,-1,0,-1,-1,-5,-2,-1
1558434883411082,1,1,1,3,-2,-2,-3,-2
1558434883426201,1,2,2,-1,3,2,0,-1
1558434883426201,-3,-4,0,7,-2,-2,-2,-3
1558434883428054,-1,-2,-3,0,-2,1,0,-1
1558434883428054,-1,-2,0,-3,-1,-2,-1,1
1558434883440158,0,1,-5,-24,-3,4,1,3
1558434883440158,-2,-1,-5,2,-6,-5,-5,-5
1558434883448806,-2,-4,-1,-2,-6,-1,-1,-1
1558434883448806,0,2,0,7,4,2,2,1
1558434883462853,-1,-3,-1,6,8,2,0,-2
1558434883462853,-1,-4,-7,-28,-14,-7,-2,-2
1558434883470749,0,1,-2,2,3,1,1,-1
1558434883470749,-2,-4,-2,6,-1,-4,-2,-1
1558434883486045,-1,0,5,-9,-4,-2,-2,-3
1558434883486045,-1,0,-4,1,-5,-4,-5,-2
1558434883487702,-1,-2,-1,-5,2,-3,-2,0
1558434883487702,-1,-1,-1,4,10,7,1,1
1558434883500003,0,-1,1,-2,-5,-3,-1,-2
1558434883500003,-1,-2,-2,7,1,-1,-1,-2
1558434883508649,-1,0,-6,-11,-4,-2,-2,-3
1558434883508649,-1,2,2,6,-1,-1,-2,0
1558434883522786,-1,-1,-4,-10,-3,-2,0,-1
1558434883522786,-3,-2,-4,-7,-1,-2,-1,-1
1558434883530589,0,-1,3,11,3,-1,2,-2
1558434883530589,0,1,2,3,0,2,1,-4
1558434883546698,-5,-4,-10,-11,-8,-3,-2,-1
1558434883546698,1,-1,10,8,5,3,-1,1
1558434883547543,-2,0,-3,-8,0,-1,-1,0
1558434883547543,-3,-2,-2,6,-1,-1,-1,-1
1558434883560768,1,1,5,6,0,-2,-2,0
1558434883560768,1,0,-9,-11,-3,1,0,0
1558434883568488,-2,-2,1,11,6,0,-4,0
1558434883568488,1,0,-2,-6,-2,1,2,1
1558434883582701,-2,-2,-2,3,3,1,0,-1
1558434883582701,-1,-1,-2,2,-2,-4,-3,-2
1558434883591471,-2,-1,-1,-11,-7,-4,-2,-2
1558434883591471,-1,0,1,2,1,-3,-2,-1
1558434883606643,-1,-1,1,-4,0,-1,-1,-3
1558434883606643,0,-3,0,-10,-3,-1,0,-1
1558434883607384,1,2,2,-1,0,3,1,1
1558434883607384,-1,-5,-2,2,-1,-1,-3,-1
1558434883619612,-4,-2,1,7,-1,0,0,0
1558434883619612,-3,0,1,3,0,-1,0,-1
1558434883628541,-1,0,1,-3,1,-1,-1,-1
1558434883628541,2,0,-2,4,1,2,2,0
1558434883642290,-1,-2,-6,-12,-9,-3,2,0
1558434883642290,-2,-1,-4,0,2,-1,0,-2
1558434883651265,-1,0,1,0,-2,4,2,-2
1558434883651265,-1,2,-1,-6,-5,-2,-3,-3
1558434883666653,-1,0,3,3,-2,-4,-2,-1
1558434883666653,2,1,-1,1,3,0,-1,1
1558434883667224,-3,-3,-5,1,-5,-3,-3,-1
1558434883667224,-3,0,-1,-2,-2,-1,-1,-1
1558434883680446,1,-2,-4,6,2,-1,-1,0
1558434883680446,3,1,3,-7,0,1,1,1
1558434883688465,0,-1,1,5,0,1,1,1
1558434883688465,-1,-3,-1,-5,-2,-3,1,-1
1558434883702129,-1,0,4,3,-2,-1,-2,-3
1558434883702129,-4,-2,-3,4,5,-2,-3,-4
1558434883711105,1,-1,-1,-3,1,1,3,0
1558434883711105,0,1,-2,-9,-1,0,0,0
1558434883726504,1,-1,3,6,2,2,0,0
1558434883726504,-1,-1,2,5,-1,-3,-1,-2
1558434883728235,-3,-4,-6,-8,-10,-8,-8,-5
1558434883728235,1,1,4,2,6,2,3,2
1558434883740427,-1,-2,-5,-3,6,3,4,2
1558434883740427,-2,-1,-2,4,-3,1,1,0
1558434883748007,-2,-2,-5,-4,-2,-1,-2,0
1558434883748007,-3,-3,-4,-5,-8,-7,-4,-2
1558434883762319,0,1,5,4,1,4,-2,-1
1558434883762319,0,0,1,1,3,2,3,2
1558434883770947,-1,-2,0,3,3,-3,-2,0
1558434883770947,-1,0,-3,6,-4,-2,-2,-2
1558434883786188,-3,-2,1,-8,3,-4,-3,-1
1558434883786188,-1,-2,-4,1,-8,-3,-2,-1
1558434883786902,0,0,-1,-4,7,7,4,1
1558434883786902,0,0,-2,-1,-2,-2,-2,-1
1558434883799867,1,0,-4,-5,-2,1,-2,-1
1558434883799867,-3,-3,-2,-9,-5,-2,-2,-3
1558434883808844,-1,-2,0,-4,-5,-5,-2,0
1558434883808844,-3,-1,1,1,2,0,-1,-1
1558434883821808,1,-1,-4,3,1,-2,1,1
1558434883821808,-1,0,1,8,1,-2,-2,2
1558434883830784,-1,0,1,-1,0,2,-1,-2
1558434883830784,-2,-3,0,-1,-4,-3,-4,-4
1558434883845744,0,-3,-1,-2,-2,-3,-1,-2
1558434883845744,0,0,-3,-11,1,0,2,1
1558434883847740,-2,0,0,0,-9,-6,-1,-4
1558434883847740,0,0,2,3,2,0,-2,-1
1558434883859707,-2,-1,-3,4,0,2,0,0
1558434883859707,0,2,3,3,7,9,2,-1
1558434883875665,-3,-3,-1,-6,-2,-3,-1,1
1558434883875665,-2,-2,-7,-13,-2,-2,-3,-2
1558434883881648,-1,0,4,14,-2,-2,-2,-1
1558434883881648,-1,-2,-4,-11,-9,-5,-2,-3
1558434883890625,2,-1,2,6,9,9,6,1
1558434883890625,0,-1,3,9,0,0,-1,-3
1558434883905583,0,0,-7,-15,-9,-5,-4,-1
1558434883905583,-1,-1,0,-2,0,-3,-3,0
1558434883907578,-1,0,-7,-20,-8,-5,-3,-2
1558434883907578,-1,-4,-2,2,-3,-1,-2,-2
1558434883919546,0,1,1,-3,4,5,2,1
1558434883919546,1,-1,2,10,2,0,-1,0
1558434883928523,-1,-2,0,3,-1,0,-2,-2
1558434883928523,-3,0,-4,-8,0,-3,1,-3
1558434883941488,-3,-4,1,-3,-9,-8,-5,-4
1558434883941488,-2,0,2,0,-2,2,2,-1
1558434883950463,0,1,-5,2,8,2,2,2
1558434883950463,-1,-5,-4,-14,-10,-3,-2,1
1558434883965425,-1,-3,1,2,2,-2,-2,-1
1558434883965425,0,-1,-3,-13,-2,-3,1,1
1558434883972405,1,3,3,7,3,0,0,-1
1558434883972405,-2,-1,-1,-3,0,3,2,1
1558434883979386,-2,-3,-9,-6,-5,-4,-4,-4
1558434883979386,0,-1,3,7,-2,-5,-4,-5
1558434883996341,-2,-2,0,0,-5,-2,-3,-2
1558434883996341,-1,0,0,1,0,1,1,0
1558434884002324,1,2,3,7,-2,2,1,0
1558434884002324,0,0,0,1,-2,-3,-2,1
1558434884011300,-3,-3,-6,-8,-5,-3,0,0
1558434884011300,1,-1,-2,9,7,6,6,3
1558434884025263,-2,-1,-3,-14,0,-2,-1,-1
1558434884025263,-1,-2,1,6,1,-2,-3,-1
1558434884032245,0,-2,0,-6,-3,-4,-4,-2
1558434884032245,1,-2,-2,-5,-6,-3,-1,0
1558434884048203,-1,1,-2,8,8,2,2,3
1558434884048203,-2,-2,0,1,0,4,3,0
1558434884050197,1,0,4,3,3,0,1,-1
1558434884050197,-3,-4,-4,2,-3,-6,-5,-5
1558434884071142,-1,-1,0,-1,-9,-1,0,-2
1558434884071142,-3,-2,-9,-9,-1,-4,-4,-2
1558434884072138,-2,0,3,4,1,-1,-1,-1
1558434884072138,0,0,3,4,-1,2,2,0
1558434884085105,-2,-2,0,-3,-1,-3,-3,-4
1558434884085105,-1,-1,-5,-14,-4,-2,-3,0
1558434884092084,-1,-2,-1,-7,-4,1,-1,0
1558434884092084,-2,-3,-5,-12,-6,-5,-4,-1
1558434884099067,-1,-2,4,3,3,-1,-1,2
1558434884099067,0,-2,-8,-6,-7,-2,-1,0
1558434884108042,0,2,1,6,8,6,4,2
1558434884108042,1,3,5,8,13,11,2,4
1558434884122006,-1,-1,4,8,-6,-3,-1,-2
1558434884122006,-3,-3,-7,-28,-4,-3,-2,-3
1558434884130983,-3,-4,-11,-7,-16,-10,-9,-6
1558434884130983,0,0,-1,1,1,2,0,1
1558434884144943,3,2,-4,0,12,9,6,2
1558434884144943,-1,0,6,17,2,-4,-4,-2
1558434884151924,0,-3,1,1,-7,-4,-4,-2
1558434884151924,-2,-3,-5,-17,-6,-3,1,-1
1558434884167881,-3,-4,-4,-5,-1,-1,-2,-2
1558434884167881,-3,-2,3,7,-1,-2,-1,-3
1558434884169877,-1,-1,-5,-1,0,-2,0,-2
1558434884169877,0,-1,-2,1,-1,-1,-3,-2
1558434884182091,-2,0,4,4,-2,-1,-2,1
1558434884182091,-2,-1,-1,6,6,4,3,0
1558434884190820,-2,-1,2,13,5,1,-1,0
1558434884190820,1,0,2,-10,-8,-5,-2,-1
1558434884204784,-2,-5,-15,-8,-3,-3,-1,-2
1558434884204784,0,-2,0,7,-2,1,0,0
1558434884211764,1,0,0,-2,1,1,0,1
1558434884211764,-3,2,-1,-3,3,-1,-3,0
1558434884228719,1,2,5,9,5,1,-1,-1
1558434884228719,-2,-2,-7,-14,-4,2,0,0
1558434884229716,-1,-2,2,11,0,-4,-1,-1
1558434884229716,-3,-5,-10,-16,-5,-2,2,-4
1558434884241683,-1,-1,1,-2,-8,-9,-5,-3
1558434884241683,1,0,0,4,7,1,1,1
1558434884250661,-1,2,3,4,1,2,-1,-1
1558434884250661,1,0,4,6,1,2,3,0
1558434884265621,-2,-2,-1,-8,-1,-1,-1,0
1558434884265621,-1,0,-4,-11,-5,-1,0,0
1558434884279582,1,0,0,4,0,-2,-3,-2
1558434884279582,-2,0,-4,6,-1,-7,-3,-2
1558434884288587,1,0,-4,-1,-5,0,1,-1
1558434884288587,0,0,3,5,-1,-3,-3,0
1558434884289558,-3,-2,-4,-13,-1,-1,0,0
1558434884289558,0,2,7,9,4,2,1,1
1558434884301525,1,0,-4,-3,8,5,3,2
1558434884301525,0,-1,5,16,-1,-3,-3,-2
1558434884310501,-1,-1,1,-8,-5,1,2,-3
1558434884310501,-3,-5,-10,3,-9,-9,-6,-2
1558434884325460,0,-1,2,-2,-2,-1,-2,-2
1558434884325460,-1,-2,-2,1,7,7,4,0
1558434884332443,1,-1,-1,-1,0,2,2,3
1558434884332443,-1,1,0,-12,-1,1,1,-1
1558434884348550,-2,-2,-2,9,0,-5,-4,-3
1558434884348550,-3,-4,-5,-13,-7,-3,-4,-3
1558434884349430,-2,-2,4,10,3,3,2,-1
1558434884349430,2,1,2,-1,-2,-1,-4,-3
1558434884362361,-3,-1,-5,-3,-4,-4,-3,-1
1558434884362361,2,0,5,6,3,-1,0,0
1558434884371337,-2,-3,-10,-6,-1,0,-1,1
1558434884371337,-4,-4,0,-4,-8,-5,-6,-1
1558434884385300,-2,0,5,7,4,2,1,-2
1558434884385300,-2,-1,-9,-5,5,6,2,-1
1558434884392281,-1,-1,3,12,-3,-5,-1,-3
1558434884392281,-1,-2,-5,-4,-5,-6,-2,-3
1558434884408238,-2,-2,-3,-9,-5,-4,-1,-1
1558434884408238,1,0,4,12,3,3,2,2
1558434884409236,-3,-1,-8,-23,-8,-1,-2,-1
1558434884409236,1,-1,0,-2,3,0,-1,-3
1558434884422201,-1,0,3,12,4,2,3,0
1558434884422201,-1,-2,0,-2,-4,-5,-3,-2
1558434884431179,0,-2,-9,-14,-5,-6,-5,-2
1558434884431179,-2,-4,2,11,1,-2,0,-2
1558434884445140,0,-1,3,4,2,5,3,-1
1558434884445140,-3,2,-3,-5,1,-1,1,0
1558434884452122,-2,1,5,-2,-4,-2,-2,-2
1558434884452122,-1,-2,-2,-2,3,1,-1,0
1558434884468080,0,-3,-5,-11,-5,-3,-4,0
1558434884468080,0,-2,5,14,-7,-9,-5,-4
1558434884470074,-1,-1,-3,-7,-2,-1,-1,0
1558434884470074,0,0,0,1,4,4,5,1
1558434884482043,3,3,4,15,20,12,6,4
1558434884482043,1,1,4,-5,-7,-3,-1,0
1558434884491018,-3,-6,-8,-5,-8,-6,-4,-4
1558434884491018,-4,-2,-8,-15,-1,-2,-2,-1
1558434884504981,-1,-1,-3,-13,-8,-4,-3,-3
1558434884504981,-2,-2,-4,-8,-4,-2,-1,-1
1558434884511962,-1,0,8,16,4,-2,-2,-1
1558434884511962,2,1,3,4,2,3,1,-1
1558434884527919,-3,-3,-5,-7,-7,-7,-4,-1
1558434884527919,0,-1,-6,-7,-2,-2,-2,0
1558434884529914,2,1,3,12,8,4,3,2
1558434884529914,-2,-3,-8,-18,-8,-3,-4,-2
1558434884541882,0,0,-1,-2,-2,-1,-1,-1
1558434884541882,1,-1,2,1,-1,-4,-3,-3
1558434884550858,-2,-2,-4,1,0,-3,-2,0
1558434884550858,-1,1,0,-3,4,3,5,3
1558434884564821,1,-3,-4,-2,3,3,2,-1
1558434884564821,-1,-1,-7,-3,-6,0,-2,-1
1558434884573797,-3,-4,1,-3,-9,-4,-4,-4
1558434884573797,-1,-1,4,7,-2,-3,-5,0
1558434884595737,1,0,0,2,-2,-3,-3,-3
1558434884595737,-1,1,2,4,4,4,3,2
1558434884597733,1,4,1,-4,4,1,1,1
1558434884597733,-4,-4,-11,3,-2,-5,-3,-3
1558434884601723,-2,-4,-1,-6,-9,-5,-3,-2
1558434884601723,-1,-3,-4,-2,1,1,1,1
1558434884618677,-1,1,-1,-3,1,-1,-2,-2
1558434884618677,1,0,3,3,0,1,0,0
1558434884624660,1,1,-1,1,4,2,2,1
1558434884624660,0,1,0,-4,-4,-4,-1,-1
1558434884633637,-1,0,-1,-2,-3,-4,-3,-2
1558434884633637,-1,-1,1,6,0,-1,0,0
1558434884648605,-1,-3,2,4,1,1,2,1
1558434884648605,0,-2,0,5,8,4,2,2
1558434884649594,0,-1,-1,-2,0,2,0,1
1558434884649594,-1,1,2,7,-4,-2,-4,-2
1558434884661562,-4,-4,-5,-10,-9,-2,-4,-2
1558434884661562,-4,-2,2,5,-1,-4,-3,-5
1558434884670539,-1,-5,-6,3,-2,-1,0,-1
1558434884670539,1,-1,0,-4,-3,-2,0,-2
1558434884684501,-1,1,4,1,1,-1,1,2
1558434884684501,1,4,-4,0,-3,-2,-2,1
1558434884693476,-1,1,11,-2,3,4,2,2
1558434884693476,-3,-1,1,2,0,1,-2,2
1558434884708446,1,2,-6,-4,-1,-2,-4,-2
1558434884708446,0,4,0,-2,0,-1,1,3
1558434884709434,0,3,-15,-10,-8,-2,-3,-4
1558434884709434,0,-3,12,3,0,0,-1,1
1558434884722399,3,6,-4,-4,-1,-3,-3,-3
1558434884722399,-6,-13,-1,-12,-3,1,-1,-2
1558434884731375,-1,-7,-46,-4,-4,-7,-5,-5
1558434884731375,-6,-1,4,3,2,2,1,-2
1558434884744340,0,7,-2,-6,-6,-4,-2,0
1558434884744340,1,1,6,4,0,-3,1,4
1558434884753317,-6,-20,-4,-1,4,1,-3,-6
1558434884753317,1,1,1,2,-1,-4,0,-3
1558434884768278,-3,-3,0,1,1,-1,1,-1
1558434884768278,1,4,-7,-5,-1,0,-2,-2
1558434884769278,2,4,10,4,6,4,0,2
1558434884769278,1,2,-4,4,2,0,1,-3
1558434884782240,-1,-1,6,-20,-7,-1,-2,4
1558434884782240,0,-5,-6,0,-5,-4,-1,-2
1558434884791215,-2,1,6,-1,-2,-1,-1,2
1558434884791215,0,-4,1,-4,-2,1,1,-2
1558434884804181,-5,-5,-17,-1,3,2,-1,-4
1558434884804181,-3,-2,-4,-14,-8,-2,-5,-5
1558434884813155,-1,0,8,1,-5,-3,-1,-1
1558434884813155,-2,4,-6,4,1,-5,-4,0
1558434884836096,-2,-4,7,-1,5,2,2,1
1558434884836096,0,0,-2,0,4,2,2,-1
1558434884837092,-3,3,8,0,-6,0,3,1
1558434884837092,2,-1,-2,7,3,2,2,0
1558434884842078,-1,-2,4,-2,-3,-1,0,-2
1558434884842078,-2,-5,1,8,6,1,-2,-2
1558434884858043,-2,2,2,-12,5,2,2,1
1558434884858043,-2,-3,-6,-4,-8,-5,-4,-3
1558434884864020,-1,1,4,5,-1,0,-1,0
1558434884864020,-2,-1,-1,4,-1,-1,-2,-1
1558434884880976,1,-1,3,6,-2,-2,-1,-1
1558434884880976,1,-1,3,-1,1,3,-1,0
1558434884887958,0,-1,-3,0,-4,-3,-2,0
1558434884887958,1,2,1,4,3,1,0,1
1558434884889953,-1,0,6,16,1,-4,-1,-1
1558434884889953,-2,-2,-11,-13,0,0,-2,0
1558434884910899,0,-5,-7,-2,-3,1,1,0
1558434884910899,-1,-1,-4,-8,-1,2,1,-1
1558434884911893,0,1,7,7,3,-3,-3,1
1558434884911893,-1,0,-8,-16,-7,-5,-5,-2
1558434884924863,0,-3,5,16,2,1,0,0
1558434884924863,1,2,3,3,6,3,4,1
1558434884932836,-1,-3,-9,1,-1,-3,-1,-1
1558434884932836,-2,-2,0,-9,-5,2,0,-2
1558434884947802,-2,-1,-5,3,-2,-2,-2,0
1558434884947802,0,-2,3,-14,-9,-4,-4,-2
1558434884954778,-1,1,1,0,3,1,1,-1
1558434884954778,-3,-4,-6,4,-1,-6,-4,-1
1558434884961759,-2,-6,-2,6,-2,0,-4,-2
1558434884961759,-2,-1,3,9,1,0,1,-2
1558434884970735,1,-1,1,0,1,3,1,0
1558434884970735,-2,-3,-3,-10,-1,0,2,1
1558434884984700,0,3,3,7,3,-1,-1,0
1558434884984700,-1,-1,2,9,-1,-4,-2,-1
1558434884993674,2,1,2,-6,-3,-4,-5,2
1558434884993674,-3,-4,-4,-4,1,2,3,1
1558434885007649,-1,-1,1,5,4,3,3,-1
1558434885007649,-1,-1,-7,-9,2,-1,-4,-3
1558434885014618,0,0,5,9,3,1,3,-2
1558434885014618,-1,-1,-6,-26,-12,-6,-3,-4
1558434885021599,-3,-3,0,-6,-1,-3,-1,-2
1558434885021599,-5,-7,-11,-11,-12,-2,-1,-3
1558434885030576,2,0,2,0,-1,0,1,-1
1558434885030576,2,4,20,33,13,3,0,1
1558434885044538,-3,-3,-16,-28,-16,-7,-3,-5
1558434885044538,-2,-4,-6,-5,-5,-4,-4,-1
1558434885053513,-1,0,3,1,11,11,2,1
1558434885053513,2,4,1,13,6,3,1,4
1558434885067476,-1,-1,6,0,2,-1,1,0
1558434885067476,0,2,5,6,-2,-4,-2,-1
1558434885074458,-1,-2,-9,-16,-11,-2,-2,-2
1558434885074458,-2,-2,0,5,2,0,-2,-2
1558434885082437,0,0,3,3,4,0,-2,0
1558434885082437,0,1,0,2,5,2,1,1
1558434885106372,-2,-3,0,-6,-7,-6,-3,-2
1558434885106372,0,-1,-7,-4,-9,-3,-2,-3
1558434885107370,0,1,-1,5,1,-2,-6,2
1558434885107370,-2,-4,-1,-1,-1,1,9,-1
1558434885121333,-1,0,-1,2,1,2,-1,1
1558434885121333,0,-1,-5,-14,-1,3,2,2
1558434885127316,-2,-4,-1,0,-5,-6,-4,-4
1558434885127316,0,2,1,9,0,-5,-4,-2
1558434885134297,-3,-3,-9,-18,-5,-1,-2,-2
1558434885134297,-3,-3,0,9,-1,-5,-4,-3
1558434885151252,-3,-4,-8,-23,-6,-1,-3,-5
1558434885151252,-1,-6,-3,3,0,0,-2,-2
1558434885152272,2,1,4,0,7,6,4,0
1558434885152272,1,2,2,1,3,0,-1,0
1558434885164222,0,-3,-2,6,-4,-1,1,0
1558434885164222,-1,-2,-2,9,2,-3,-7,-3
1558434885173193,-3,-4,-5,-8,-8,-5,-2,-2
1558434885173193,0,-1,4,8,-1,-1,1,0
1558434885187156,-1,-2,-13,-12,-7,-5,-2,0
1558434885187156,0,-1,-3,-4,-4,-1,-3,-3
1558434885194137,1,-1,1,0,0,1,-1,-2
1558434885194137,0,-2,1,2,1,-1,-1,-3
1558434885211092,0,2,6,8,0,0,-1,-1
1558434885211092,-3,0,-2,-9,0,3,-1,-2
1558434885212096,0,1,2,0,0,-4,1,1
1558434885212096,-2,-5,-14,-11,-13,-9,-4,-4
1558434885224058,0,0,4,7,7,6,2,2
1558434885224058,-1,-2,-4,-8,6,3,2,2
1558434885233035,-2,-2,0,4,3,-2,-2,-3
1558434885233035,-2,-2,-3,-9,-9,-3,0,-1
1558434885247993,-1,-1,4,14,1,1,2,-2
1558434885247993,0,3,0,-10,0,-1,-2,1
1558434885254975,-1,-5,-3,3,-1,-3,-1,-1
1558434885254975,-1,2,1,2,2,-2,3,-1
1558434885270932,-1,-2,-4,-10,-11,-5,-4,-1
1558434885270932,1,1,4,2,1,1,1,3
1558434885271934,-2,-1,-6,-9,-4,0,1,-1
1558434885271934,-1,2,10,7,4,4,-3,-1
1558434885284894,-4,-6,-18,-27,-2,-2,-2,-3
1558434885284894,-1,-2,0,7,-3,-3,-1,-2
1558434885299855,0,0,-2,3,1,-4,-6,-2
1558434885299855,-1,2,2,-3,2,4,6,2
1558434885307834,-3,-1,5,9,3,-5,-2,-3
1558434885307834,-1,-3,-2,-4,-2,-2,-1,0
1558434885314815,-4,-3,-4,-6,-5,-3,-4,-3
1558434885314815,1,-1,2,4,2,0,-3,1
1558434885330773,1,0,5,3,1,3,3,1
1558434885330773,0,-1,0,0,1,-1,0,-2
1558434885332773,-3,-1,-4,0,-2,-1,-2,-3
1558434885332773,-3,-1,-2,-2,-1,0,-4,-3
1558434885344733,-1,1,0,-6,-1,2,2,0
1558434885344733,-2,-1,-3,2,0,-2,-2,-1
1558434885353712,2,1,3,7,5,5,5,4
1558434885353712,-2,-5,-2,-10,-7,-8,-4,-3
1558434885367673,-1,-2,-7,-4,-9,-5,-2,-2
1558434885367673,-2,-2,3,7,-2,-2,0,0
1558434885374655,-5,-3,-3,-4,-5,-11,-10,-7
1558434885374655,-1,-3,-7,-9,-10,-6,1,1
1558434885390612,2,1,9,14,8,7,1,0
1558434885390612,1,2,0,-4,2,5,5,2
1558434885392606,4,1,0,3,9,9,4,2
1558434885392606,1,0,3,10,16,6,0,-1
1558434885404575,0,-1,-3,-5,-5,-6,-1,0
1558434885404575,0,-1,-1,-3,-6,0,-1,3
1558434885413551,-2,-2,-2,-5,-11,-7,-6,-2
1558434885413551,-2,-5,-7,-10,-11,-7,-1,-4
1558434885427512,-1,1,2,9,6,2,-3,-1
1558434885427512,-2,0,1,-6,4,3,0,-3
1558434885434497,-1,-1,-2,-1,-2,5,1,1
1558434885434497,-1,-2,-2,5,-1,-4,-3,-2
1558434885450451,-4,-4,-8,-18,-14,-12,-7,-3
1558434885450451,-2,-3,-7,-17,-8,-1,0,-2
1558434885452446,4,2,2,4,14,3,5,6
1558434885452446,0,-1,0,5,-1,-3,-2,-3
1558434885464417,1,0,7,12,5,5,4,0
1558434885464417,-2,-1,1,6,4,1,-5,0
1558434885473390,-4,-4,-6,-12,-14,-11,-5,-4
1558434885473390,-3,-3,-4,-4,-7,-8,-7,-3
1558434885487353,-2,-1,0,0,-7,-7,-5,-1
1558434885487353,0,-3,-4,-4,-3,1,4,-1
1558434885494333,-2,-1,-1,3,1,2,2,-1
1558434885494333,2,2,3,5,10,10,7,3
1558434885510291,1,2,4,3,10,7,0,-1
1558434885510291,1,2,2,4,4,5,1,1
1558434885512286,-3,-3,-5,-6,-3,-8,-8,-4
1558434885512286,-6,-3,-6,-15,-16,-12,-10,-8
1558434885524255,3,2,3,7,0,-2,5,2
1558434885524255,1,1,-7,-14,-2,-1,2,1
1558434885533251,-2,-2,-1,4,-4,3,2,-1
1558434885533251,-2,-1,-2,-2,4,-1,-3,0
1558434885548195,-2,-3,0,3,7,2,-2,-5
1558434885548195,-3,-2,-1,-1,-8,-5,-5,-2
1558434885554174,-1,-2,2,5,-5,-2,-1,-1
1558434885554174,0,-4,-3,-4,-2,-2,1,2
1558434885571128,-2,-1,-3,3,3,-3,-3,-3
1558434885571128,1,1,0,-7,-9,-7,0,2
1558434885572127,1,3,0,-1,8,10,3,0
1558434885572127,1,3,5,15,13,9,6,4
1558434885584095,-3,-3,-6,-14,-11,-12,-14,-6
1558434885584095,-2,-5,-8,-14,-9,-10,-4,-5
1558434885593070,0,-1,-1,-4,-10,-5,1,-1
1558434885593070,3,2,7,15,13,9,3,2
1558434885608032,0,-1,-3,-3,9,12,8,3
1558434885608032,-1,0,1,6,0,-4,-14,-4
1558434885614021,1,0,-1,-3,-10,-9,10,5
1558434885614021,-3,-2,-2,-3,9,7,-3,-3
1558434885630980,2,3,1,-2,-5,2,2,1
1558434885630980,-5,-4,0,4,-2,-5,-5,-3
1558434885631966,3,1,-2,7,20,6,11,3
1558434885631966,-1,0,-3,-7,-17,-6,-10,1
1558434885644932,-1,-4,-1,3,-1,-3,-1,-7
1558434885644932,-2,-2,-1,1,2,-6,-7,-4
1558434885652910,-4,-4,-3,-8,-23,-16,-10,-4
1558434885652910,3,4,3,0,7,12,13,4
1558434885667869,3,2,3,5,19,16,2,6
1558434885667869,-1,-5,-2,8,-3,-7,-5,-4
1558434885674851,-6,-7,-14,-18,-13,-16,-17,-10
1558434885674851,1,-2,-6,-13,-2,2,10,4
1558434885690810,2,0,2,6,-2,4,4,5
1558434885690810,-2,-1,1,3,6,8,6,-1
1558434885691806,-1,-1,3,1,-4,-14,-9,-4
1558434885691806,-4,-3,-1,1,-4,-1,-2,-3
1558434885704771,3,4,4,7,11,9,8,6
1558434885704771,1,3,4,4,6,3,-3,0
1558434885713748,-2,-3,-5,-2,-1,9,5,-2
1558434885713748,-4,-4,-5,-7,-6,-9,-12,-9
1558434885727710,-8,-9,-13,-19,-24,-22,-15,-8
1558434885727710,-2,-3,0,-1,-10,-9,0,1
1558434885734691,2,3,3,5,6,13,2,3
1558434885734691,3,2,3,6,12,1,4,2
1558434885750652,-1,-1,-3,1,0,1,-1,0
1558434885750652,1,0,0,-1,-3,0,2,7
1558434885752644,0,0,2,1,2,-1,-1,-4
1558434885752644,-2,-2,-5,5,-1,2,-2,-3
1558434885764613,-2,-2,-7,-17,-19,-15,-3,-2
1558434885764613,0,2,-1,-3,3,4,5,2
1558434885773590,0,1,2,6,18,17,7,5
1558434885773590,-2,-4,-1,-2,-7,-3,-7,-4
1558434885786553,-4,-2,-3,1,-6,-14,-8,-4
1558434885786553,-1,0,2,3,-4,2,5,2
1558434885795550,0,-1,-2,-2,0,-7,-6,0
1558434885795550,0,1,-2,-7,3,0,-4,-1
1558434885810500,0,2,7,12,9,15,8,0
1558434885810500,1,1,4,8,11,11,8,3
1558434885816476,-4,-3,-11,-9,-2,-3,-5,-3
1558434885816476,-3,-3,-2,-7,-13,-13,-1,-4
1558434885824479,-4,-4,-4,-8,-9,-16,-12,-5
1558434885824479,-1,0,0,-2,2,7,-1,-1
1558434885833427,0,1,5,11,6,-3,3,0
1558434885833427,0,0,-2,-6,2,2,0,0
1558434885847391,0,1,1,0,12,12,6,4
1558434885847391,-3,-3,-5,-11,-14,-14,-9,-7
1558434885856367,-3,-3,-2,-6,-14,-8,-3,-3
1558434885856367,1,2,2,3,10,3,-4,1
1558434885870339,-1,0,2,2,2,8,9,4
1558434885870339,-1,1,0,0,10,5,2,-2
