timestamp,emg1,emg2,emg3,emg4,emg5,emg6,emg7,emg8
1558434863177806,3,2,3,10,24,21,8,6
1558434863177806,2,0,-5,-18,1,7,6,5
1558434863177806,0,-1,3,11,7,6,-1,0
1558434863177806,-1,0,-3,-6,-4,-4,-2,0
1558434863178804,-2,-2,-3,-3,-10,-11,-7,-7
1558434863178804,-2,-3,1,8,-9,-10,-7,-5
1558434863179802,2,-1,0,-7,-3,-2,3,-2
1558434863179802,-4,-6,-1,3,8,0,-3,-5
1558434863190772,1,1,-2,-8,-11,-4,-1,-1
1558434863190772,0,0,4,7,3,2,4,2
1558434863199749,-1,-1,-3,-4,2,3,0,-1
1558434863199749,1,2,6,17,10,6,1,1
1558434863212714,-3,-3,-5,-14,5,6,3,1
1558434863212714,-2,0,0,-4,-2,-6,-2,0
1558434863221689,-2,-1,1,-4,-6,-6,-2,-2
1558434863221689,-1,-2,-4,1,-2,-3,-1,0
1558434863227673,-1,0,0,1,-6,-8,-5,-2
1558434863227673,-2,-3,2,12,-4,-2,-4,-4
1558434863236649,-3,-3,-4,-5,-6,-3,-4,-4
1558434863236649,2,1,-1,-3,5,5,4,5
1558434863251621,-1,-2,-1,-2,2,-1,2,-1
1558434863251621,-1,2,-3,3,6,4,3,2
1558434863258592,-2,2,2,11,9,6,3,2
1558434863258592,-1,-1,-1,-4,-10,-3,-2,-2
1558434863296490,-5,-6,-11,-23,-13,-7,-2,-1
1558434863296490,0,-1,3,6,3,2,-1,0
1558434863305466,0,0,-2,2,3,4,1,2
1558434863305466,-3,-4,-3,0,-4,-4,-5,-3
1558434863306463,-1,-2,-2,0,0,-2,-2,-2
1558434863306463,1,1,0,-3,6,4,7,1
1558434863306463,-1,0,1,6,8,6,4,-1
1558434863306463,0,1,1,1,-2,-1,-2,-1
1558434863318430,2,0,-1,-3,-5,0,2,0
1558434863318430,-3,-2,-4,1,-2,-6,-7,-3
1558434863325411,-1,-2,0,-2,-5,-6,-4,-2
1558434863325411,-6,-9,-8,-10,-12,-10,-8,-3
1558434863332393,-2,1,0,7,-1,1,0,-4
1558434863332393,1,-1,1,1,13,7,1,0
1558434863347353,2,2,4,9,10,5,3,4
1558434863347353,2,1,1,-3,4,4,4,-3
1558434863355332,-1,-1,-1,5,-3,-5,-4,-2
1558434863355332,-1,-5,-11,-21,-12,-6,-4,-2
1558434863364307,-1,-2,-3,-5,-9,-7,-6,-4
1558434863364307,-2,-2,-3,-3,-7,-8,-3,-2
1558434863378271,-1,-2,3,9,3,1,0,-3
1558434863378271,-2,0,-2,3,-5,4,-1,-1
1558434863385255,-2,0,0,2,5,-2,0,3
1558434863385255,1,3,2,3,8,6,5,4
1558434863392233,-1,0,3,3,12,3,1,-1
1558434863392233,0,-1,-4,-18,-11,-9,-3,-2
1558434863407193,-2,-5,-7,-12,-10,-6,-4,-4
1558434863407193,1,0,0,-2,2,1,0,2
1558434863415172,1,-1,7,9,0,-1,-4,1
1558434863415172,-2,-3,-1,2,1,2,2,-1
1558434863424149,-3,-4,-6,-6,-11,-5,-4,-5
1558434863424149,-2,0,-2,-1,1,-1,0,-5
1558434863438113,-1,-2,-6,-16,-2,0,1,0
1558434863438113,2,0,1,3,12,11,5,6
1558434863445091,0,2,6,-1,5,5,4,2
1558434863445091,0,0,4,13,4,1,0,3
1558434863453073,-2,-1,-4,7,-1,-4,-5,-1
1558434863453073,-1,-1,-1,-12,-17,-13,-6,-6
1558434863469028,-2,-3,-5,-8,-5,-7,-6,-6
1558434863469028,-1,0,7,2,-7,-1,0,-3
1558434863475014,1,-1,0,3,2,6,-1,-1
1558434863475014,-1,-3,-7,6,0,-4,2,3
1558434863483989,4,3,9,17,18,3,5,4
1558434863483989,-1,-2,-14,-24,-5,4,0,0
1558434863497952,-1,1,-1,-14,0,2,-1,-2
1558434863497952,-5,0,3,7,-6,-4,-7,-6
1558434863504933,-1,-3,-1,-9,-12,-6,-4,-4
1558434863504933,-2,-1,-1,11,2,-4,-3,-1
1558434863512910,0,-1,-3,-4,-1,-3,0,1
1558434863512910,-2,-1,0,4,-1,0,-5,-2
1558434863528868,0,-1,-2,-3,0,-4,1,-2
1558434863528868,0,-1,-2,-5,0,2,2,-1
1558434863534852,0,-1,-1,2,7,4,3,5
1558434863534852,0,1,5,9,10,7,6,1
1558434863543828,-1,2,-2,2,-4,-2,-1,-2
1558434863543828,2,2,0,6,-1,-3,-2,-6
1558434863558787,0,-2,-2,-11,-11,-5,-5,-4
1558434863558787,1,-1,2,7,1,-3,-1,-2
1558434863564771,0,-4,-4,-14,-5,-2,-2,2
1558434863564771,-3,0,2,-3,-4,-8,-8,-2
1558434863572751,-2,1,5,7,-5,-1,-1,1
1558434863572751,-1,-2,-3,-2,1,2,3,2
1558434863587710,-2,-2,2,4,4,5,-3,-2
1558434863587710,4,2,3,3,15,12,9,5
1558434863594691,2,0,1,3,8,4,3,0
1558434863594691,3,3,-1,-1,3,0,-2,-2
1558434863603668,-1,-3,-6,-3,-12,-7,-4,-3
1558434863603668,-3,-2,-4,-6,-8,-6,-5,-1
1558434863618629,-2,-2,-2,4,-7,-4,-3,-2
1558434863618629,1,1,-5,-1,-1,-3,-1,0
1558434863625609,-1,-1,3,-7,-2,-2,-1,-2
1558434863625609,-4,-7,-9,-22,-21,-11,-5,-7
1558434863632590,1,0,-1,5,-1,-1,3,0
1558434863632590,2,3,5,13,21,14,9,2
1558434863647551,1,2,3,13,9,8,1,0
1558434863647551,2,0,4,5,6,4,1,2
1558434863655530,-1,-3,-1,-7,-4,-8,-6,-5
1558434863655530,-4,-4,-4,-12,-17,-13,-9,-5
1558434863670492,-2,-1,-1,4,-4,-1,-3,-1
1558434863670492,-1,1,6,16,10,0,-4,-2
1558434863678468,-3,-3,-7,-27,-23,-11,-8,-2
1558434863678468,-2,-3,-7,-3,-12,-10,-4,-3
1558434863685449,-1,1,-1,2,10,7,4,3
1558434863685449,3,5,2,11,15,18,13,8
1558434863692431,2,4,7,9,12,8,2,3
1558434863692431,-1,-3,-1,-3,-11,-4,-4,-3
1558434863707391,-3,-5,-8,-11,-12,-9,-8,-5
1558434863707391,-2,-2,0,-2,-3,-7,-4,-2
1558434863715369,-2,-2,-1,7,2,0,-1,-3
1558434863715369,-4,-3,0,-18,-9,-6,-5,0
1558434863730331,-1,-1,-4,1,-3,-7,-2,0
1558434863730331,1,-4,-7,-21,-7,-5,-2,-3
1558434863738307,-2,-5,-11,-4,-4,-3,0,-4
1558434863738307,0,1,6,8,12,10,5,5
1558434863745288,4,3,5,6,17,13,9,4
1558434863745288,-4,0,2,5,0,-1,-2,-2
1558434863752271,0,3,-2,-3,-3,-5,0,-3
1558434863752271,-2,-5,-1,1,-6,-5,-6,-8
1558434863767237,-2,-4,-2,-9,-12,-7,-9,-6
1558434863767237,-1,-3,-2,7,-6,-8,-4,-4
1558434863775208,1,1,3,1,9,5,5,2
1558434863775208,0,4,1,2,9,8,7,5
1558434863790169,0,1,0,0,5,4,2,1
1558434863790169,-1,-2,-3,-4,-3,-1,-2,1
1558434863798148,-1,-2,4,5,-2,-4,-5,-2
1558434863798148,-1,-3,-6,-13,-9,-8,-5,-4
1558434863805131,-3,-4,-4,2,-7,-7,-6,-4
1558434863805131,-1,0,2,3,1,-1,-3,1
1558434863813107,-3,-2,-4,-7,-5,0,-3,-1
1558434863813107,-1,-5,-2,-10,-4,1,0,-1
1558434863828067,0,0,0,-1,-1,4,2,-1
1558434863828067,0,-1,-1,4,2,1,1,0
1558434863835049,-1,2,3,8,6,3,0,-2
1558434863835049,-3,-2,0,2,-5,-4,-2,-3
1558434863850009,0,0,1,0,0,-1,-2,-3
1558434863850009,0,-3,-7,-1,-4,-3,-1,1
1558434863857989,-1,-1,-1,-7,-3,-2,-2,0
1558434863857989,0,1,3,8,6,3,2,0
1558434863864969,0,0,3,9,6,2,0,0
1558434863864969,-2,-1,-8,-33,-6,-1,-2,-3
1558434863872951,-3,-2,-2,1,1,-3,-3,-2
1558434863872951,0,-3,-7,-7,-2,-1,0,-1
1558434863887907,-1,-2,1,9,0,0,4,1
1558434863887907,-2,-2,0,6,-5,-4,-1,-2
1558434863894889,-1,1,-1,-1,-2,0,-2,-2
1558434863894889,1,3,8,10,-1,-2,-5,-2
1558434863909848,0,-1,-4,-14,-2,4,1,2
1558434863909848,-1,-1,-4,-3,3,-1,-1,1
1558434863917828,2,0,4,7,4,0,2,2
1558434863917828,0,2,5,16,3,-1,2,1
1558434863924810,-1,-1,-5,-27,-2,0,0,1
1558434863924810,-4,-6,-7,-5,-10,-5,-3,-5
1558434863940766,-1,-3,-3,-4,-6,-3,-3,0
1558434863940766,-3,-3,3,8,-2,-5,-2,-5
1558434863947749,2,1,6,9,-3,-6,-1,-1
1558434863947749,2,0,3,3,13,11,1,-2
1558434863954730,-1,-3,-6,-7,-5,1,1,-1
1558434863954730,0,-2,-3,-2,-3,-1,-2,0
1558434863970690,-3,-1,-9,-13,-4,-3,-2,-2
1558434863970690,-1,0,9,10,1,-5,-2,-1
1558434863978667,1,0,5,10,-2,-4,-1,1
1558434863978667,-2,-2,-7,-11,5,6,3,0
1558434863985647,1,0,0,3,-6,-5,-3,-1
1558434863985647,-2,-1,-2,-4,-2,-1,-2,-3
1558434864000608,0,0,0,0,7,6,2,0
1558434864000608,-1,0,6,6,0,-2,0,-3
1558434864007588,0,-2,-14,-17,-4,-1,0,1
1558434864007588,-1,0,1,10,4,1,-1,-1
1558434864015566,-2,-1,-6,-17,-11,-8,-4,-4
1558434864015566,-3,-1,-4,-4,2,-3,-3,0
1558434864030526,-1,-1,6,9,-2,-6,-2,-3
1558434864030526,0,-3,-4,-1,-4,-1,-1,0
1558434864038505,-2,1,2,0,9,7,4,1
1558434864038505,5,2,7,7,5,6,1,3
1558434864045485,-1,0,-1,-7,-3,-2,-1,0
1558434864045485,-3,-1,-1,-10,-8,-6,-3,-1
1558434864060445,2,-2,0,5,-3,-2,-3,-2
1558434864060445,-1,-2,-5,-16,-1,0,-1,0
1558434864067427,-3,-2,-6,4,-2,-2,-3,0
1558434864067427,-1,0,4,1,-1,-1,-2,-1
1558434864075412,1,-1,-1,1,1,-1,2,-1
1558434864075412,-5,0,2,2,0,4,3,1
1558434864090373,-1,-3,-5,-3,9,5,4,-1
1558434864090373,0,-2,0,7,-3,-3,-3,-2
1558434864098352,-1,0,3,5,1,0,-2,-2
1558434864098352,-2,-4,-12,-32,-18,-11,-7,-3
1558434864105331,-2,0,5,15,0,2,0,-2
1558434864105331,2,0,1,-3,-5,3,3,1
1558434864121329,-1,-3,-2,-3,-1,-3,-2,-1
1558434864121329,1,-3,-3,2,2,-2,-3,-1
1558434864127296,0,1,6,11,-1,0,-2,0
1558434864127296,1,0,-6,-9,1,-1,-2,1
1558434864135284,-4,-1,1,5,3,-2,1,-2
1558434864135284,-3,-1,-13,-21,-9,-6,-3,-4
1558434864150207,-4,-2,3,5,0,0,-2,-3
1558434864150207,-1,0,0,-3,-3,0,1,0
1558434864157188,0,0,-2,1,3,2,-1,0
1558434864157188,1,0,3,6,2,-2,-1,-1
1558434864167162,0,0,2,-10,-6,-9,-6,0
1558434864167162,-1,0,1,3,9,3,2,-3
1558434864181156,0,2,3,12,-3,0,-3,1
1558434864181156,-1,0,-5,-23,-8,1,-4,-2
1558434864188105,-1,-3,-2,5,-4,-5,-4,0
1558434864188105,-1,-2,0,-1,-2,-5,3,-2
1558434864195087,-1,0,0,-7,-4,-1,0,-3
1558434864195087,3,1,7,21,9,2,0,1
1558434864210204,2,1,0,4,13,9,2,3
1558434864210204,-2,-2,-6,-8,-7,-3,-4,-1
1558434864218025,-2,-3,-4,-2,2,1,-1,-3
1558434864218025,-6,-2,4,7,-4,-2,1,-1
1558434864227003,-2,-1,-4,-14,-7,-4,-4,-4
1558434864227003,1,5,8,16,8,2,3,0
1558434864241041,-3,-3,-4,-10,-4,0,1,-2
1558434864241041,0,-2,-1,11,-3,-5,-5,-3
1558434864248234,-1,-3,-2,-16,-6,-4,-3,2
1558434864248234,-1,0,-1,3,-1,1,-4,1
1558434864255940,2,0,3,-7,-2,1,-4,1
1558434864255940,0,0,-2,8,3,-3,-2,-3
1558434864271889,-2,-1,6,16,6,4,2,-2
1558434864271889,-1,-3,-6,-8,-8,-3,-4,-1
1558434864278070,-3,-3,-7,-10,-3,-2,-1,-1
1558434864278070,0,0,3,7,2,3,4,0
1558434864292868,-1,-3,-7,-16,-5,-6,2,-2
1558434864292868,-1,0,5,13,11,5,2,3
1558434864300809,1,0,4,-3,-6,-2,0,-1
1558434864300809,0,-1,-2,1,4,-2,-5,-1
1558434864315969,-3,-4,-3,-8,-7,-3,-2,-4
1558434864315969,-1,0,0,-1,0,1,1,-1
1558434864316777,1,0,0,1,1,1,-1,1
1558434864316777,-3,-2,0,1,2,-1,0,0
1558434864330728,-1,1,2,4,7,1,0,3
1558434864330728,0,-3,1,3,-2,-4,-4,-3
1558434864337708,0,0,-4,-12,-2,-3,0,0
1558434864337708,0,2,3,0,2,4,3,2
1558434864352714,2,-1,3,5,0,1,-1,-3
1558434864352714,-2,-2,-7,-6,0,0,0,-2
1558434864360823,-4,0,-2,6,-1,0,-2,-4
1558434864360823,-2,-2,-3,-9,-8,-9,-4,-3
1558434864375605,1,1,2,6,-3,-6,-1,0
1558434864375605,2,3,1,1,0,4,3,1
1558434864376602,-2,-4,-4,-6,-2,-5,-2,-2
1558434864376602,-2,-2,-3,-2,0,1,0,-2
1558434864390567,-3,-1,-2,1,-3,-3,-7,-2
1558434864390567,1,-3,1,0,2,-2,-2,0
1558434864397545,0,-1,2,8,4,3,0,1
1558434864397545,-1,-1,-3,-12,-7,-2,-1,-4
1558434864414678,-2,-4,-7,-3,-6,-7,-4,-3
1558434864414678,0,1,3,2,5,1,3,2
1558434864421626,-2,-3,-2,0,-1,0,-1,-1
1558434864421626,1,0,-3,-7,-3,1,0,0
1558434864436525,-2,-1,-2,-12,-5,-5,-4,-3
1558434864436525,-2,-1,-5,0,-2,-1,-3,0
1558434864436525,0,-1,0,-2,-6,2,2,3
1558434864436525,0,2,-2,-2,3,-3,-4,0
1558434864450405,-3,-1,-1,1,0,3,2,-1
1558434864450405,1,0,1,-4,2,3,1,0
1558434864457454,0,-2,2,2,0,-7,-3,1
1558434864457454,-2,-4,-5,-2,-6,-7,-5,-5
1558434864472414,1,1,1,5,5,7,2,1
1558434864472414,-1,-5,-5,-1,-4,-5,-2,-2
1558434864481420,-1,1,0,-4,4,1,0,-2
1558434864481420,0,-2,0,2,-4,1,1,2
1558434864496504,0,1,2,1,-1,-2,2,0
1558434864496504,-2,-1,-2,-4,-1,2,-2,-3
1558434864496504,0,-1,-6,-8,-3,2,2,1
1558434864496504,-1,2,4,9,6,5,1,0
1558434864510443,-1,-1,0,-1,-3,-2,-2,-3
1558434864510443,-3,-1,0,-1,-10,-9,-4,-3
1558434864517225,-3,-4,-2,5,-1,-5,-4,-1
1558434864517225,-1,-1,1,4,-2,3,1,1
1558434864533183,0,0,-5,-7,0,4,3,3
1558434864533183,-2,0,0,-5,-1,-2,-2,-3
1558434864541170,1,1,0,10,7,3,0,-1
1558434864541170,0,0,-2,-6,-2,-4,-2,0
1558434864556121,-3,-3,0,1,-7,-1,-4,-6
1558434864556121,-1,-2,-7,-7,5,-1,2,0
1558434864556121,-2,-1,-4,1,1,1,2,1
1558434864556121,-2,-1,-1,-11,-4,2,-2,2
1558434864570084,-2,1,0,-8,-3,-4,-6,-2
1558434864570084,-2,-2,0,6,-12,-9,-3,-4
1558434864578062,-2,0,6,7,4,4,4,2
1558434864578062,0,2,4,7,12,3,1,-1
1558434864593022,-3,-1,-9,-2,-4,3,1,-2
1558434864593022,2,-2,-1,-7,-4,-1,-2,2
1558434864601001,2,1,0,4,7,-1,-3,-2
1558434864601001,-1,-1,-2,2,-1,0,1,1
1558434864615962,0,-3,0,1,5,1,0,2
1558434864615962,0,-2,-1,-5,0,-1,-3,0
1558434864616958,-1,-1,3,0,-9,-6,-5,-5
1558434864616958,-1,-1,0,7,-4,-5,-3,-2
1558434864629934,-1,-2,-5,-9,-1,-1,0,-4
1558434864629934,-2,-3,0,-1,3,1,-3,-2
1558434864637912,-3,-2,-4,-16,-6,-2,-1,-4
1558434864637912,-1,0,0,-1,0,2,1,2
1558434864652862,-1,-1,4,9,0,-3,3,2
1558434864652862,-3,0,1,3,1,4,1,2
1558434864660843,-2,-2,-3,1,2,-1,-4,-2
1558434864660843,1,-2,0,-5,2,0,-1,-2
1558434864675804,0,0,-1,5,4,7,6,1
1558434864675804,-2,-1,-2,5,-2,-6,-3,-1
1558434864676803,-1,-1,-2,-16,-7,-3,-1,-2
1558434864676803,-2,-1,-2,1,-5,-5,-3,-8
1558434864689828,0,-2,0,-5,-2,-3,-6,-5
1558434864689828,-2,0,6,10,2,2,3,0
1558434864697866,-1,-1,-3,0,1,-3,-4,-1
1558434864697866,-1,-2,0,-7,-6,-5,0,1
1558434864712712,0,-1,3,6,12,7,6,3
1558434864712712,0,0,-7,-7,5,1,-1,-2
1558434864720686,1,2,3,6,-1,0,-2,0
1558434864720686,-1,-2,-6,-5,-2,1,-1,1
1558434864735642,-2,-2,3,7,-2,-3,0,-2
1558434864735642,-1,-3,-5,-13,-7,-5,-4,-1
1558434864736638,-2,-3,2,4,-8,-7,-2,-2
1558434864736638,-1,0,4,1,3,4,1,-4
1558434864750603,1,-2,-10,-6,-1,1,2,1
1558434864750603,-1,1,3,4,0,0,-1,-2
1558434864757590,0,0,-1,4,5,2,2,1
1558434864757590,-1,-2,-1,-2,-4,-5,-3,-2
1558434864772572,-1,1,-1,-4,-5,-8,-7,-1
1558434864772572,-2,0,-2,-1,-2,-1,1,0
1558434864780520,-1,-2,-3,-4,-4,0,0,1
1558434864780520,1,-2,0,-2,4,2,1,1
1558434864795481,-1,-1,1,0,-2,-2,-1,1
1558434864795481,1,-1,-3,-5,-7,-3,-3,-3
1558434864796477,-1,-1,0,2,6,-1,-1,1
1558434864796477,0,-1,1,2,1,-5,-1,-4
1558434864810439,-1,-2,-1,-3,-2,-3,-6,-3
1558434864810439,-2,-2,-1,-6,-4,0,-2,-4
1558434864817421,-2,-2,-1,-4,-5,-6,-4,-2
1558434864817421,1,-1,-4,4,6,6,7,2
1558434864832388,0,2,-1,3,4,0,0,2
1558434864832388,-3,-3,-3,-2,-5,-5,-2,-2
1558434864841363,-2,-3,-3,-2,-4,-1,0,0
1558434864841363,-3,-3,-2,-3,-6,-1,-4,-3
1558434864855323,-2,-3,0,-5,-7,-2,-2,-1
1558434864855323,1,1,1,0,0,-5,-1,0
1558434864863300,2,1,0,4,10,6,4,1
1558434864863300,-2,2,2,-2,-1,0,1,1
1558434864870283,-3,-2,-5,-1,-1,-3,-4,-2
1558434864870283,-3,-2,-4,-2,-3,2,-3,-2
1558434864877265,-2,-5,-4,-3,-9,-7,-3,-5
1558434864877265,-3,-2,1,2,1,-1,2,2
1558434864892226,0,1,4,2,5,5,4,2
1558434864892226,1,0,-1,-6,5,2,1,3
1558434864901209,0,-2,1,-3,-5,-1,0,-2
1558434864901209,1,-1,-5,0,0,-3,-6,-4
1558434864915165,0,-1,-4,-2,-8,-6,-6,-4
1558434864915165,0,1,0,8,3,2,2,0
1558434864923143,-2,1,2,-1,0,-1,2,0
1558434864923143,0,-1,5,-4,-3,0,2,0
1558434864930122,-2,-3,-4,-1,1,4,2,0
1558434864930122,1,-1,-13,-19,-6,-2,-2,-3
1558434864938102,-5,-3,-3,-5,-9,-9,-9,-5
1558434864938102,0,2,0,2,0,3,-1,2
1558434864953064,2,-1,4,6,8,8,3,3
1558434864953064,-2,-4,4,4,-4,-7,-6,-3
1558434864961080,1,0,0,2,-4,2,3,2
1558434864961080,0,0,-1,-4,4,1,2,-2
1558434864975004,-3,0,0,2,-2,-5,-1,-3
1558434864975004,-1,-2,0,-4,2,4,3,2
1558434864982978,0,-1,-3,-3,0,-5,-3,-3
1558434864982978,-2,-2,-3,-2,-15,-8,-4,-3
1558434864989961,0,2,2,3,8,5,1,-1
1558434864989961,-3,-2,-1,-2,2,0,0,1
1558434864997999,1,-1,-5,0,5,0,5,1
1558434864997999,-1,-2,-4,-3,-5,5,0,0
1558434865013009,-4,-4,-8,-13,-5,-4,-1,-2
1558434865013009,-3,0,7,1,-6,-5,-4,0
1558434865020980,0,1,0,-3,2,1,-1,0
1558434865020980,0,-2,-2,5,1,-7,-5,-3
1558434865034846,-1,0,6,17,0,0,-1,-1
1558434865034846,0,1,-1,0,0,1,1,0
1558434865043895,-2,-2,1,-5,-3,-4,-3,0
1558434865043895,-1,-1,1,1,1,-1,2,-2
1558434865058913,-1,-2,-3,-6,-4,-6,0,1
1558434865058913,1,3,2,7,5,5,0,2
1558434865058913,1,1,2,0,5,8,1,1
1558434865058913,-7,-5,-13,-8,-4,-4,-7,-6
1558434865072953,-1,-4,-5,-19,-12,-5,-3,-3
1558434865072953,1,0,5,5,5,2,4,-1
1558434865080927,-1,-1,-8,7,2,-2,0,-2
1558434865080927,0,0,-2,-7,1,-2,2,3
1558434865095678,-2,-4,-2,6,-10,-13,-6,-5
1558434865095678,-2,0,-5,-13,-9,-5,-5,-4
1558434865103660,0,1,5,2,7,8,2,1
1558434865103660,-3,-2,-1,1,-3,-2,-1,0
1558434865118809,2,0,-2,8,1,0,-4,-2
1558434865118809,-3,-1,-5,-9,-7,-3,-1,-2
1558434865118809,-3,-2,-1,3,1,-2,-1,0
1558434865118809,3,3,4,2,7,4,3,1
1558434865132587,-3,-4,-4,-6,-1,2,-1,-1
1558434865132587,-1,-4,-3,3,-2,-2,-2,-2
1558434865141562,0,0,-4,-5,0,6,3,2
1558434865141562,-2,1,5,10,9,5,3,0
1558434865155735,-1,-2,-2,-6,-7,0,-3,-3
1558434865155735,-1,-3,-3,-5,-2,-4,-3,-2
1558434865163533,0,-4,-2,-1,0,-1,-1,1
1558434865163533,-1,0,0,3,2,0,-1,1
1558434865178678,-2,2,4,1,1,1,3,2
1558434865178678,1,2,4,6,4,-1,0,0
1558434865179463,-1,2,3,1,-9,-8,-4,-3
1558434865179463,-1,-3,-9,6,-2,-3,-1,-3
1558434865192424,0,1,6,-4,3,-1,2,0
1558434865192424,-1,-4,-3,0,-1,1,4,-1
1558434865200397,-2,-1,-1,-8,-1,-2,-2,-1
1558434865200397,-3,-3,-4,3,-1,-1,-3,-1
1558434865215357,-3,-3,-2,-8,-7,-6,-4,2
1558434865215357,1,-1,3,13,13,8,3,3
1558434865223679,-1,1,5,4,-2,-1,-2,-3
1558434865223679,-2,-7,-10,-16,-11,-6,-5,-3
1558434865238634,0,-1,-5,-3,-1,0,-1,-3
1558434865238634,-1,3,4,-3,-1,-4,0,1
1558434865239581,-1,0,-2,4,2,6,4,2
1558434865239581,-1,0,-2,-5,4,2,-2,2
1558434865253288,0,1,6,5,7,3,0,-2
1558434865253288,0,0,3,5,-1,-3,0,-1
1558434865261567,-3,-9,-21,-18,-13,-10,-6,-5
1558434865261567,-1,0,3,-1,-5,-8,-4,-2
1558434865275542,1,-1,-5,-8,4,1,-1,0
1558434865275542,-1,0,2,1,5,7,4,3
1558434865283177,-1,0,0,1,-3,-1,-2,-1
1558434865283177,0,2,1,4,5,0,-1,-2
1558434865298342,-1,-2,-5,-1,-3,-2,-3,0
1558434865298342,-2,-3,-5,-5,-4,-6,-3,-2
1558434865299138,1,-2,3,4,3,0,-3,-2
1558434865299138,-1,-1,-1,9,-4,-2,1,-3
1558434865313324,0,0,0,-5,-7,-2,2,0
1558434865313324,2,3,1,-2,12,7,2,3
1558434865321086,2,0,-4,5,6,2,4,1
1558434865321086,0,-1,3,-10,-5,-6,-4,-1
1558434865335050,-1,-1,4,-4,-7,-5,-4,-3
1558434865335050,-6,-6,-14,-4,-16,-7,-4,-7
1558434865351008,0,-1,3,9,9,1,-1,-1
1558434865351008,1,2,0,9,9,8,4,2
1558434865358162,-2,-1,-3,-1,-1,-2,0,-1
1558434865358162,-2,0,0,-3,-5,-5,-6,-3
1558434865358976,-4,0,-1,-6,-5,-6,-5,-4
1558434865358976,0,-1,-3,-2,-2,0,0,1
1558434865373949,-1,-2,-4,0,6,5,4,1
1558434865373949,0,-3,-6,-10,-5,-2,-2,-1
1558434865381126,-1,-1,0,4,-6,-2,0,0
1558434865381126,1,2,7,-3,-2,0,-1,-3
1558434865404079,0,-3,-9,-12,2,4,2,-2
1558434865404079,-2,-1,1,10,5,2,-2,-3
1558434865404854,-3,-4,1,1,-5,-4,-3,-2
1558434865404854,-1,1,1,-2,-5,-7,-2,-1
1558434865417815,2,3,5,16,4,-3,1,5
1558434865417815,-1,-3,-12,-13,-10,-7,-2,-4
1558434865418813,0,1,1,-8,1,1,-1,0
1558434865418813,-3,-2,0,-9,-11,-6,-7,-3
1558434865432807,-1,-4,-4,1,2,1,1,0
1558434865432807,0,3,6,7,14,12,4,2
1558434865441127,0,3,2,11,6,2,0,0
1558434865441127,-1,0,-1,-11,-1,3,4,-1
1558434865455879,-2,-1,-11,-12,-10,-5,-5,-4
1558434865455879,0,-1,1,6,-11,-8,-4,-2
1558434865463817,-1,-1,2,-11,2,1,-1,-1
1558434865463817,1,-2,1,15,9,2,0,4
1558434865478915,-2,-1,-4,-15,-9,-3,-2,-2
1558434865478915,-1,-4,-5,-10,1,2,-1,-4
1558434865478915,1,0,4,7,-3,0,1,-3
1558434865478915,-2,-1,-2,-5,3,0,-1,1
1558434865492910,-2,3,6,13,4,-4,-5,1
1558434865492910,-1,-3,1,2,-11,-12,-6,-1
1558434865500598,-1,-1,-4,-18,-4,0,1,1
1558434865500598,1,1,3,7,10,7,7,2
1558434865515782,1,-2,4,12,1,1,2,-2
1558434865515782,-1,-1,-1,-2,2,-3,-2,-1
1558434865523576,-3,-5,-10,-3,-12,-7,-6,-4
1558434865523576,-2,-5,-6,-19,-15,-8,-4,-2
1558434865538755,0,-4,-6,-7,6,2,0,1
1558434865538755,1,-1,3,4,4,1,0,2
1558434865539493,-2,0,0,0,-1,-2,-1,-2
1558434865539493,-2,-3,-3,3,-7,-3,-4,-3
1558434865552458,1,2,2,4,7,5,1,0
1558434865552458,-1,-3,-8,-9,2,6,4,2
1558434865561549,0,2,2,0,1,-3,-3,2
1558434865561549,-4,-3,-5,-3,-5,-5,-4,-3
1558434865575624,-1,-1,3,16,-6,-9,-3,-4
1558434865575624,-2,0,-4,-20,-7,-5,-2,-3
1558434865583377,-3,-3,-5,-20,-5,-1,1,-1
1558434865583377,-3,-2,2,8,5,4,-2,-3
1558434865598378,-1,-1,-2,-2,-1,3,1,1
1558434865598378,-2,-3,0,9,1,-2,-2,0
1558434865599335,1,-1,-2,2,-5,-3,-1,-1
1558434865599335,-2,0,-1,-5,-2,-6,-2,-1
1558434865612296,-1,2,2,4,10,5,2,3
1558434865612296,-1,0,-5,-5,-5,-3,-1,-1
1558434865621273,-1,-3,3,7,0,-1,-1,-2
1558434865621273,1,0,-4,3,5,8,4,2
1558434865635233,-1,1,2,-1,2,-1,-2,0
1558434865635233,-2,-2,3,4,-5,-3,-4,-2
1558434865643212,-3,-2,-7,-5,-10,-8,-7,-5
1558434865643212,-1,-2,-2,-3,-7,-3,-3,-2
1558434865658364,-1,-1,0,-10,4,3,3,0
1558434865658364,-1,-1,2,3,9,7,6,0
1558434865659169,1,-1,-3,-7,0,3,2,1
1558434865659169,0,-1,4,7,-3,-6,-7,-1
1558434865672136,-3,-3,1,4,-14,-9,-4,-4
1558434865672136,-2,-4,-2,-14,-11,-4,-3,-4
1558434865681603,0,0,-4,-2,-1,-3,-4,-1
1558434865681603,1,1,-1,0,6,7,1,0
1558434865695569,0,-1,-4,-7,0,2,0,-1
1558434865695569,0,2,1,12,3,3,1,0
1558434865703320,-2,0,-1,-11,1,-2,-2,-1
1558434865703320,-3,-5,-6,-12,-12,-8,-3,-3
1558434865719011,-1,1,1,4,3,2,-2,-2
1558434865719011,-2,2,1,-1,-2,-2,0,1
1558434865719011,-1,0,-1,9,4,1,2,3
1558434865719011,0,0,3,3,4,0,1,-1
1558434865732982,-4,-4,-9,-15,-5,-5,0,-1
1558434865732982,-2,-2,3,1,-6,-5,-3,-2
1558434865741131,3,1,5,9,9,4,1,4
1558434865741131,-1,1,-1,2,0,-3,-2,0
1558434865755925,1,-3,-6,-9,-8,-2,0,-3
1558434865755925,0,-2,-1,-2,0,-1,-2,-3
1558434865763893,-2,-2,-2,7,4,4,3,0
1558434865763893,-2,-3,-8,-11,0,0,1,1
1558434865779063,1,1,10,7,-1,-2,-3,2
1558434865779063,-1,1,1,6,8,2,-2,0
1558434865779063,0,-1,-4,-10,-8,-6,-1,-5
1558434865779063,0,1,-3,0,-5,-3,-4,-1
1558434865793039,-1,1,1,4,2,2,1,1
1558434865793039,3,1,0,-2,1,1,2,3
1558434865800793,-1,-5,-7,-4,-5,-2,0,-5
1558434865800793,1,1,4,11,1,-2,0,-1
1558434865814765,2,0,-2,-8,2,4,-1,-2
1558434865814765,0,1,2,4,-4,-6,-4,-4
1558434865823731,-1,-3,-10,-11,-4,1,0,0
1558434865823731,-1,0,5,2,7,4,4,2
1558434865837692,-1,0,1,10,-1,0,-1,-3
1558434865837692,1,-1,1,4,-1,-2,-1,1
1558434865845671,0,1,0,-3,-4,-5,-5,-1
1558434865845671,-3,-3,-4,-4,-12,-7,-6,-4
1558434865852687,0,0,4,5,6,1,1,1
1558434865852687,-1,-1,-3,-8,1,5,2,0
1558434865860630,-3,-6,-5,1,-1,-4,-1,-1
1558434865860630,-1,-2,-2,-14,-2,-3,-2,0
1558434865874651,-1,0,-3,1,-3,-3,-1,-1
1558434865874651,-2,-3,-5,-8,-5,1,1,-1
1558434865883573,0,3,5,-3,3,3,-2,1
1558434865883573,-1,-1,3,9,1,0,-2,-1
1558434865897907,-3,-5,-6,-9,-15,-11,-7,-4
1558434865897907,0,-1,-2,3,3,-1,1,0
1558434865906540,-1,-1,3,9,11,9,3,0
1558434865906540,0,-1,-4,-6,-3,0,-1,-3
1558434865912711,-2,-1,1,-1,-4,-8,-5,-2
1558434865912711,-1,-3,-4,-4,-5,-4,-4,-1
1558434865920471,-2,-3,2,0,-4,-3,-2,-3
1558434865920471,0,0,6,8,0,-3,-3,-3
1558434865935736,-4,-5,-11,-10,-3,0,0,-1
1558434865935736,1,4,-1,-5,13,10,6,3
1558434865943445,-1,1,-1,4,2,3,3,1
1558434865943445,-3,-2,0,3,-3,2,2,-1
1558434865957672,-3,0,-1,4,4,-1,-3,0
1558434865957672,0,-3,-2,-4,-9,-9,-4,-1
1558434865965609,-2,-2,1,0,-3,-5,-3,-1
1558434865965609,-1,0,-2,-5,-3,-5,-5,-3
1558434865973330,-1,-1,-3,0,1,3,1,3
1558434865973330,-3,-6,-8,-19,-2,-3,-1,0
1558434865980314,-2,-2,-2,7,-2,10,6,1
1558434865980314,3,3,-1,-3,11,7,5,3
1558434865995515,-1,0,5,5,1,-3,-3,-3
1558434865995515,-4,0,-4,-2,-8,-8,-6,-5
1558434866003283,-1,-2,-1,-2,-9,-11,-6,-2
1558434866003283,-2,-3,1,0,-1,0,-2,-2
1558434866018264,1,1,9,16,11,6,3,2
1558434866018264,-1,-1,0,-4,-7,-1,1,1
1558434866026412,-1,-3,-8,-15,-11,-10,-4,-5
1558434866026412,-2,-3,-4,-4,-10,-6,-1,-1
1558434866041150,2,1,-1,-4,15,6,3,0
1558434866041150,1,0,1,12,9,6,2,1
1558434866041150,-1,-1,0,2,3,2,1,4
1558434866041150,0,0,-1,-2,-1,-2,0,1
1558434866055115,-1,-3,-5,-5,-12,-8,-5,-2
1558434866055115,-3,-2,1,1,-10,-7,-8,-7
1558434866063089,-1,-2,1,5,2,-4,0,2
1558434866063089,2,3,0,-5,17,11,7,5
1558434866078049,0,-1,-3,4,1,2,0,1
1558434866078049,0,2,-1,-9,-6,-3,-1,-3
1558434866086027,-2,0,1,-4,-1,-4,-7,-5
1558434866086027,-3,-4,0,12,-6,-6,-3,-3
1558434866101026,-2,-1,-8,-18,-11,-2,1,-1
1558434866101026,-1,-1,-2,1,1,-1,-1,-2
1558434866101986,1,3,5,7,10,4,1,1
1558434866101986,-2,-5,-5,6,2,1,1,-2
1558434866115948,-1,-1,0,1,3,3,0,1
1558434866115948,-3,-4,2,8,-7,-6,-2,-2
1558434866123147,0,2,3,-6,-4,-2,-2,-2
1558434866123147,-3,-4,-7,-7,-3,-1,-1,-2
1558434866138301,-1,-1,-1,-3,-9,-5,-2,-2
1558434866138301,1,1,1,9,7,4,1,3
1558434866154149,0,-1,2,4,7,1,-1,0
1558434866154149,0,-2,-6,-9,-4,2,0,1
1558434866161265,-2,-2,-6,-11,-8,-1,-2,-2
1558434866161265,-1,-2,4,6,1,-5,-3,-3
1558434866161826,-2,-3,-12,-20,-8,-4,-2,-3
1558434866161826,0,1,5,1,4,4,3,-1
1558434866176036,0,-1,-3,-5,10,6,2,0
1558434866176036,0,1,6,18,7,1,0,0
1558434866182770,-3,-3,-3,7,-3,-5,-3,-4
1558434866182770,-3,-3,-11,-23,-17,-10,-6,-5
1558434866197728,1,1,5,6,9,0,1,0
1558434866197728,-3,-3,-6,-7,-10,-2,-1,1
1558434866205739,-1,1,3,2,-1,1,2,1
1558434866205739,0,1,0,13,3,1,-1,0
1558434866220915,0,-2,4,-5,-6,0,-4,-3
1558434866220915,-1,1,0,-5,0,1,1,-3
1558434866221671,0,0,-1,4,2,1,0,-1
1558434866221671,0,2,0,-12,-5,-4,-2,0
1558434866234630,-4,-3,-2,2,-2,-5,-2,-3
1558434866234630,0,0,1,9,6,3,-2,-1
1558434866243605,-1,-1,1,-5,-4,-4,1,1
1558434866243605,0,-2,-1,-5,2,0,0,1
1558434866258021,-1,-3,-1,-6,-6,-2,0,0
1558434866258021,-1,-3,-4,-1,3,7,2,0
1558434866265964,1,0,5,10,-3,0,-1,-1
1558434866265964,1,-3,-8,-8,0,-3,-3,0
1558434866281723,0,2,0,2,5,2,-2,-1
1558434866281723,-1,0,0,9,8,-1,-3,-3
1558434866281723,-2,-3,-6,-34,-10,-4,-3,-3
1558434866281723,0,0,5,15,2,-1,0,3
1558434866295989,-2,-1,-6,-10,-9,-4,-1,-2
1558434866295989,-2,2,-5,-13,0,-1,-1,-1
1558434866303475,-1,-3,-2,11,0,-3,-3,0
1558434866303475,-2,0,10,11,0,-3,-2,-3
1558434866318422,0,0,3,5,5,5,3,3
1558434866318422,-1,-5,-12,-12,-12,-5,-2,-2
1558434866326414,1,0,0,6,4,0,-1,-2
1558434866326414,-1,-3,-3,-11,-8,-4,-2,-5
1558434866341509,1,-1,6,5,-1,-6,-2,0
1558434866341509,0,1,3,2,9,5,3,3
1558434866341509,-1,-2,-4,-7,-3,2,1,1
1558434866341509,-2,3,1,10,6,2,-1,-2
1558434866355635,-3,-1,1,3,-6,-4,-4,-5
1558434866355635,0,0,-5,-16,-12,-9,-2,-3
1558434866363321,-1,-3,1,1,11,4,1,0
1558434866363321,-2,-3,-3,-1,-2,1,-1,1
1558434866378437,-3,-2,-2,-2,-1,0,0,-1
1558434866378437,3,3,9,13,9,4,0,1
1558434866386565,-3,0,-7,-12,-9,-6,-3,-3
1558434866386565,0,0,1,3,5,0,1,2
1558434866401490,0,-1,0,-10,1,3,3,0
1558434866401490,-3,-5,-5,-2,-10,-3,0,0
1558434866401490,-3,-2,-3,-5,-7,-7,-4,-4
1558434866401490,-2,-3,-8,-15,-9,-5,-4,-2
1558434866415488,-2,-4,-2,7,-5,-7,-6,-3
1558434866415488,3,3,4,6,9,6,6,0
1558434866423133,3,1,4,2,4,5,1,0
1558434866423133,-2,-1,-8,1,-7,-3,-3,-3
1558434866438087,2,2,-1,2,5,3,1,3
1558434866438087,0,1,9,14,7,1,-3,0
1558434866446341,-3,-5,-13,-29,-16,-6,-5,-4
1558434866446341,-3,-2,1,-3,-2,-3,1,-1
1558434866461054,-1,-2,-3,0,6,2,2,0
1558434866461054,-1,1,1,0,-1,-2,0,0
1558434866461054,-2,1,10,22,10,8,3,0
1558434866461054,2,1,6,6,6,1,-1,1
1558434866475988,-3,-3,-11,-10,-15,-9,-6,-4
1558434866475988,-4,-5,-7,-13,-15,-9,-8,-4
1558434866482965,1,-1,-1,-3,0,1,-1,1
1558434866482965,0,0,-2,-7,6,7,4,-1
1558434866498282,1,1,4,9,1,0,-1,1
1558434866498282,-3,-2,-4,-6,-5,-3,-3,-2
1558434866506084,-1,-2,-3,8,-2,-3,-4,-1
1558434866506084,0,-1,2,8,-2,2,2,1
1558434866521231,1,0,1,-5,-1,-6,-3,-1
1558434866521231,-1,-2,-6,-2,-1,0,-2,-1
1558434866521863,-1,-2,2,1,-1,1,4,2
1558434866521863,-2,-3,-3,3,3,3,1,-1
1558434866535243,-1,-1,-1,-8,-4,-1,-1,-2
1558434866535243,-3,-1,-5,-7,-6,-3,-2,-3
1558434866543175,0,3,4,8,3,-1,-6,-1
1558434866543175,0,-1,2,-1,-9,-8,-8,-4
1558434866558140,-1,-1,-4,-5,1,1,1,-2
1558434866558140,3,2,7,15,14,7,5,4
1558434866565885,-1,0,3,6,-3,2,3,1
1558434866565885,-4,0,-5,-16,-2,-3,-2,0
1558434866581073,-4,-4,-6,2,-2,-2,-1,-2
1558434866581073,-1,-1,0,-6,-7,-2,0,0
1558434866582067,-2,-1,2,6,7,5,6,2
1558434866582067,1,0,0,9,1,-2,-4,-2
1558434866595900,0,-1,-3,-13,-1,-3,-2,-2
1558434866595900,-1,1,-1,-3,0,-1,-3,-4
1558434866603644,-2,1,-1,0,-2,-2,-4,-2
1558434866603644,1,0,-3,-3,-1,1,1,1
1558434866617605,0,1,10,20,9,0,-3,0
1558434866617605,-5,-5,-14,-20,-7,-2,-3,-1
1558434866625587,-1,0,2,14,1,-4,-2,-1
1558434866625587,-2,-4,-10,-16,-1,1,1,0
1558434866641547,-3,-4,-2,1,-6,-3,-3,-3
1558434866641547,0,-1,1,-3,-5,-2,1,-2
1558434866641547,1,1,-1,6,5,8,4,2
1558434866641547,-3,0,2,5,2,-1,-1,-1
1558434866655505,-1,2,0,-8,-15,-10,-7,-6
1558434866655505,2,0,3,8,6,4,1,2
1558434866663483,1,-2,-2,-7,7,5,4,4
1558434866663483,2,2,6,11,11,7,4,1
1558434866677955,-3,-2,-4,2,-1,2,-2,-1
1558434866677955,-2,-2,-1,-23,-10,-8,-6,-3
1558434866686914,-4,-4,-12,-13,-11,-11,-5,-3
1558434866686914,-2,-3,-2,-11,-18,-14,-4,-4
1558434866700384,-1,-2,-3,5,5,6,4,0
1558434866700384,1,1,5,14,10,7,2,1
1558434866702530,3,0,2,7,13,7,1,-1
1558434866702530,-3,-4,-2,-10,-6,-6,-2,-2
1558434866715794,-4,-5,-2,5,-10,-6,-3,-2
1558434866715794,-2,0,-2,5,5,2,1,1
1558434866724370,-2,0,-2,-4,-4,-1,0,-4
1558434866724370,-1,-2,2,-5,-4,-5,-6,-1
1558434866737766,0,1,0,2,0,0,-2,0
1558434866737766,-1,-4,-3,-5,1,0,0,0
1558434866746711,0,-1,-1,4,-3,-2,0,-1
1558434866746711,-1,-1,-4,-2,2,0,-3,1
1558434866760671,-1,0,-6,-9,-2,-3,-1,0
1558434866760671,0,0,0,-2,-2,-4,-2,-2
1558434866769202,0,0,-2,-2,-3,-2,-1,-3
1558434866769202,-2,0,2,4,-5,0,-2,-3
1558434866775287,-1,-2,-3,1,8,4,2,1
1558434866775287,-1,0,-2,-8,2,1,1,0
1558434866784160,-1,-2,-5,-16,-5,-1,1,-1
1558434866784160,-1,-3,-1,4,1,0,-3,-3
1558434866798360,-1,-2,1,-3,-2,0,0,0
1558434866798360,-2,-2,0,2,-3,-2,-3,-2
1558434866807233,-2,-3,1,-2,-9,-11,-8,-2
1558434866807233,0,0,0,-2,-2,-6,-1,-2
1558434866820301,2,4,8,10,16,14,11,4
1558434866820301,-2,-4,-15,-10,-3,1,0,-2
1558434866829046,0,-2,-2,-1,0,-4,-4,-1
1558434866829046,-3,-2,3,9,-3,-7,-3,-3
1558434866844246,0,-1,-5,-21,-10,-3,0,1
1558434866844246,-2,-2,4,1,2,-2,-2,-1
1558434866845000,-4,-1,-2,-5,-11,-4,-3,-4
1558434866845000,-1,-1,-3,2,10,9,4,2
1558434866858189,0,0,-1,8,7,2,2,-1
1558434866858189,-1,0,3,-1,-6,-3,-3,-2
1558434866866940,0,-1,-2,-4,0,-2,0,-3
1558434866866940,2,0,4,3,-3,3,0,-1
1558434866880172,-3,-2,0,1,-5,-7,-5,-4
1558434866880172,1,0,3,8,3,2,1,-1
1558434866888880,-2,-1,-1,-1,-2,-2,0,-1
1558434866888880,-1,-1,-2,-5,-1,4,3,1
1558434866894915,0,1,-3,-10,-5,-6,-2,0
1558434866894915,0,0,0,1,-1,-2,0,-2
1558434866903839,-1,0,3,5,2,1,-3,-1
1558434866903839,-1,-1,-4,0,0,1,-2,-1
1558434866917803,-1,-3,0,1,1,1,-2,0
1558434866917803,-3,-3,-2,-2,-11,-7,-3,-2
1558434866926778,-1,0,1,7,5,4,0,3
1558434866926778,-5,-1,-8,-4,2,0,1,0
1558434866939745,-5,-4,-1,-3,-4,-4,-2,-2
1558434866939745,-3,-2,-2,-2,-6,-4,-5,-4
1558434866949199,1,0,-1,3,2,2,3,2
1558434866949199,2,1,7,10,5,1,1,0
1558434866964760,1,0,-1,2,-2,1,-2,-4
1558434866964760,-3,-4,-10,-16,-6,-6,-2,-2
1558434866965677,0,1,6,11,3,0,1,-1
1558434866965677,0,-3,-10,-19,-4,-3,-1,1
1558434866978086,-1,-2,1,3,-4,-2,-1,-1
1558434866978086,2,-1,3,6,5,1,0,1
1558434866986621,-1,-1,-2,-7,4,-2,-2,0
1558434866986621,-1,0,1,-1,-3,-1,1,-1
1558434866999585,-1,-2,0,-1,-2,-2,-2,-1
1558434866999585,-1,0,0,-4,-10,-3,-6,-4
1558434867008895,-2,-2,-4,1,-6,-3,-3,-5
1558434867008895,0,3,2,3,12,9,4,4
1558434867024750,-1,-1,-4,-3,1,0,0,-2
1558434867024750,2,-2,-5,-1,-6,-3,-2,-1
1558434867025519,-3,-1,1,-3,2,5,0,-1
1558434867025519,0,0,4,11,3,-2,-2,-1
1558434867037762,-2,-2,-8,-13,-5,-5,-2,1
1558434867037762,-1,-1,0,-1,2,2,1,0
1558434867046459,-4,-2,-4,0,-12,-11,-6,-3
1558434867046459,-3,-5,1,8,-7,-10,-5,-6
1558434867060692,2,4,8,0,6,8,4,2
1558434867060692,0,0,1,1,13,7,4,4
1558434867069397,-1,-2,0,-2,-2,3,3,0
1558434867069397,-2,-4,-12,-19,-10,-6,-6,-3
1558434867084359,-2,-1,-2,5,-5,-5,-4,-3
1558434867084359,-1,0,4,3,-3,-3,0,-2
1558434867085355,2,0,-2,-4,4,-1,-1,-1
1558434867085355,0,0,0,-1,5,4,2,0
1558434867098324,-4,-2,-2,-1,-5,-7,-2,-3
1558434867098324,-3,-2,1,0,-13,-6,-5,-2
1558434867106594,1,2,-3,6,7,6,6,2
1558434867106594,3,1,-2,-3,10,8,1,3
1558434867120555,0,1,-1,-3,6,5,4,3
1558434867120555,-3,0,1,3,5,-1,-1,-1
1558434867129244,0,0,4,2,-9,-6,-4,0
1558434867129244,-6,-6,-11,-14,-14,-9,-5,-4
1558434867144199,1,-1,2,3,-5,-3,-5,-4
1558434867144199,-3,-4,-2,-7,-2,-1,-1,-4
1558434867145474,-2,-3,-8,-2,-5,-6,-2,-4
1558434867145474,2,5,5,11,10,12,10,4
1558434867158253,-2,-5,-6,-1,6,4,0,-1
1558434867158253,-1,0,1,17,2,-2,0,0
1558434867166139,0,-1,-1,-19,0,1,1,1
1558434867166139,-1,-2,2,-3,-10,-7,-5,-1
1558434867180407,1,-1,3,1,-4,-6,-4,-2
1558434867180407,0,1,1,-1,2,2,0,2
1558434867189118,-2,-2,-5,-2,0,-1,-4,-3
1558434867189118,-5,-3,-3,-10,-18,-15,-9,-7
1558434867204333,-2,-3,-3,4,-3,2,0,-1
1558434867204333,2,3,6,15,30,19,12,4
1558434867205262,0,1,1,-6,5,5,1,1
1558434867205262,-2,-2,-1,-7,-3,-1,-1,-1
1558434867218320,0,-2,-1,1,-5,-5,-5,-2
1558434867218320,0,-2,-3,4,-8,-7,-3,-1
1558434867227208,0,0,4,3,1,-3,-2,-2
1558434867227208,-1,3,-1,-7,-2,-1,-2,-3
1558434867240036,-1,-3,-8,-17,-11,-12,-6,-4
1558434867240036,-2,-2,-7,-14,-16,-7,-4,-1
1558434867248916,1,1,4,26,24,18,10,3
1558434867248916,1,0,4,1,7,8,6,2
1558434867264124,0,3,3,5,9,6,2,3
1558434867264124,-2,-1,-2,3,-10,-8,-6,-2
1558434867265872,-4,-6,-10,-20,-20,-14,-8,-4
1558434867265872,0,0,3,9,7,1,-2,-1
1558434867277842,0,0,2,2,6,2,-1,-2
1558434867277842,-1,-1,-6,-5,2,5,2,0
1558434867286582,0,0,0,5,-1,-3,-2,1
1558434867286582,0,-2,-3,-4,-7,-5,0,-1
1558434867300300,-1,1,3,-4,-5,-3,-1,-1
1558434867300300,-2,-3,5,5,-1,-3,-2,-3
1558434867309278,-3,-6,-9,-22,-8,-3,0,-4
1558434867309278,-4,-2,-3,-5,-2,-3,-1,-2
1558434867323241,0,-2,-6,3,-1,-1,0,0
1558434867323241,0,0,-1,-4,0,-1,-1,0
1558434867330591,0,1,9,18,14,8,3,2
1558434867330591,0,2,1,2,2,1,0,2
1558434867338326,-1,-1,-4,-9,-3,-5,-3,-2
1558434867338326,-1,0,-2,-3,-3,-7,-5,-4
1558434867346189,-1,-4,-4,2,-4,0,-2,-1
1558434867346189,-2,-4,-5,-5,-4,-1,0,0
1558434867360596,-2,-1,2,6,5,6,5,2
1558434867360596,3,1,0,-3,8,7,4,0
1558434867369118,2,1,-1,-9,-2,-4,-1,0
1558434867369118,-1,-2,-1,6,1,-2,-1,-1
1558434867383080,-3,-1,-2,-3,-4,-5,0,-2
1558434867383080,-4,-5,-6,-15,-14,-10,-4,-4
1558434867390542,1,1,2,1,-1,3,1,0
1558434867390542,0,0,1,6,2,1,-1,0
1558434867398456,-3,-3,-3,-3,-2,-2,-1,-1
1558434867398456,0,1,2,6,4,2,-1,-1
1558434867407018,0,1,6,6,5,-1,0,1
1558434867407018,-2,-4,-8,-5,-13,-9,-2,-2
1558434867420249,1,-3,-2,5,1,0,-4,-3
1558434867420249,-1,-2,-5,-8,0,5,2,0
1558434867429031,-4,-1,-8,-8,-1,-6,-2,-2
1558434867429031,-2,-1,-3,-4,-2,-2,-1,-2
1558434867443182,1,1,0,-1,-2,-2,0,1
1558434867443182,-1,-3,3,10,6,2,0,-1
1558434867451897,-2,-1,-2,-5,-9,-5,-3,1
1558434867451897,-2,-4,-3,-5,-2,-2,-3,-3
1558434867458147,-2,2,6,16,7,7,2,2
1558434867458147,1,2,-1,-5,7,5,5,3
1558434867466857,-1,-3,2,8,-3,-1,-3,-4
1558434867466857,0,2,-1,-5,-5,-3,-2,-1
1558434867479821,-2,-3,-2,-11,-4,-1,-2,-3
1558434867479821,-2,-1,-4,-2,2,1,3,0
1558434867488796,-3,-3,-3,-4,-3,-3,-1,-2
1558434867488796,-2,-1,3,8,1,-3,-6,-4
1558434867502760,0,0,0,1,-6,-7,-5,-3
1558434867502760,2,3,3,3,6,9,3,3
1558434867511736,1,-1,4,2,6,2,1,0
1558434867511736,-4,-5,-11,-14,-7,-1,-2,-1
1558434867518159,-1,0,1,-4,-3,-2,-2,-1
1558434867518159,-4,-6,-10,-5,-14,-14,-8,-4
1558434867526696,-1,1,-1,-2,-3,-2,-2,-1
1558434867526696,4,3,12,9,8,3,-1,0
1558434867540957,-1,-2,-3,1,5,2,4,-1
1558434867540957,-3,-2,-4,-12,-11,-5,-3,-3
1558434867549021,-2,-4,-3,-1,1,1,3,-2
1558434867549021,1,-1,1,12,0,-1,2,3
1558434867562950,0,1,1,-7,5,5,0,1
1558434867562950,-3,-2,0,8,3,-2,-4,-1
1558434867571605,-2,-2,-6,-8,-8,-7,-4,-3
1558434867571605,0,-1,1,4,5,4,1,-2
1558434867577913,0,-1,2,2,-2,-4,-2,-2
1558434867577913,-3,-2,-3,-4,-8,-11,-4,-2
1558434867586565,0,0,1,1,6,7,0,-1
1558434867586565,-4,-5,-10,-12,-4,-2,1,-2
1558434867600498,-1,1,0,3,4,2,-1,-1
1558434867600498,-4,-2,-1,-5,-7,-2,-3,-3
1558434867608828,0,-2,-2,0,0,0,0,0
1558434867608828,-2,1,1,-2,-1,-3,1,0
1558434867622603,-3,-2,-6,-7,-5,-1,-4,-2
1558434867622603,0,-2,6,4,-5,-4,-4,-3
1558434867632118,1,1,2,3,0,-1,-3,4
1558434867632118,-3,-1,-1,0,4,2,-1,1
1558434867647175,-2,0,0,3,0,0,0,1
1558434867647175,0,-2,1,4,11,5,2,1
1558434867648812,0,-2,1,7,-5,1,1,2
1558434867648812,-2,-1,-1,-4,-3,-5,-3,-3
1558434867660885,-2,-3,-5,2,-4,-5,-2,-1
1558434867660885,0,-2,-4,-21,-2,-1,0,-2
1558434867668757,-2,0,0,2,2,0,-3,-2
1558434867668757,0,-1,-5,-6,-10,-7,-4,-3
1558434867691695,1,-2,-6,-1,1,5,2,-1
1558434867691695,1,1,2,5,5,5,2,1
1558434867692701,-2,0,0,3,-2,-5,-4,-2
1558434867692701,0,-3,5,-2,-6,-7,-5,-2
1558434867697680,-1,-1,-3,-5,-3,-3,-2,1
1558434867697680,1,-1,-1,1,-3,-4,1,1
1558434867706656,-4,-2,-4,-12,1,8,2,0
1558434867706656,0,1,-2,-2,2,1,2,1
1558434867720955,-2,-1,-3,-6,-5,-4,-3,-2
1558434867720955,-2,-2,-4,6,-1,1,-1,0
1558434867728970,0,-2,0,-9,0,1,-1,-1
1558434867728970,2,0,2,7,3,4,3,0
1558434867742928,-1,-3,-6,-8,1,-4,-2,0
1558434867742928,-3,-1,0,-1,-7,-7,-5,-3
1558434867751540,1,0,2,-2,-3,-3,0,-2
1558434867751540,-1,-2,-1,8,4,6,2,-2
1558434867757887,1,1,0,0,-3,-1,2,0
1558434867757887,1,1,-2,-3,6,2,0,0
1558434867766496,-3,-3,-3,2,-1,-3,-3,1
1558434867766496,1,0,-3,-2,0,-1,-2,-2
1558434867780815,0,-1,2,1,2,0,0,-1
1558434867780815,1,0,0,-2,-7,-5,-5,-3
1558434867789471,-1,0,4,8,1,-5,-5,-3
1558434867789471,1,-1,-6,-8,-9,1,-1,1
1558434867802400,-2,2,-1,4,7,9,3,-1
1558434867802400,0,1,-1,3,2,4,0,1
1558434867811376,-2,-1,-10,-22,-9,-4,0,-2
1558434867811376,-1,0,5,11,5,-1,-1,1
1558434867817364,-2,-3,0,-6,-2,-4,-2,-3
1558434867817364,-1,-1,5,14,-4,-2,0,-1
1558434867826335,1,-2,-4,-11,-4,-5,-2,-1
1558434867826335,1,0,2,6,2,-1,0,1
1558434867849274,1,-1,-4,-11,6,4,1,1
1558434867849274,-4,-5,-5,5,-3,0,-1,-4
1558434867850273,-2,-3,-1,2,-3,-5,-3,-4
1558434867850273,-2,-1,-2,-19,-8,-6,-2,-1
1558434867862278,0,0,3,8,6,6,3,3
1558434867862278,-2,-1,-5,-13,1,3,-2,-2
1558434867871215,-1,2,3,5,-2,0,-3,0
1558434867871215,-4,-3,-1,3,-7,-8,-6,-4
1558434867894158,-4,-6,-10,4,-6,-6,-3,-2
1558434867894158,0,-2,-1,0,8,6,4,2
1558434867895152,-1,-3,-1,3,-1,1,3,-2
1558434867895152,0,0,0,0,1,-1,-3,-3
1558434867900139,-2,-2,2,1,-4,-4,-2,-2
1558434867900139,0,2,7,13,-4,-6,-2,0
1558434867909116,-3,-2,-6,-13,2,-1,1,-1
1558434867909116,-2,-2,-7,-14,-3,1,-1,-2
1558434867922106,1,2,6,9,1,2,-2,0
1558434867922106,0,-1,-5,-5,-2,-3,-3,-2
1558434867931057,1,1,3,8,3,3,3,1
1558434867931057,0,2,0,3,10,5,4,2
1558434867946015,-1,-1,-3,-8,-7,-8,-2,-3
1558434867946015,-2,-2,-1,-10,-12,-9,-4,-3
1558434867948011,1,-1,3,15,5,4,0,0
1558434867948011,2,-3,-7,-8,9,6,4,1
1558434867959978,-2,0,0,0,-4,-2,-1,0
1558434867959978,-1,-1,-2,-3,2,-3,-2,-2
1558434867968954,-4,-2,-1,-3,-8,-5,-5,-4
1558434867968954,-2,0,-1,6,-1,-3,0,0
1558434867982917,0,1,3,-5,2,-1,-5,0
1558434867982917,-1,-3,-4,-2,-7,-5,-3,0
1558434867991893,1,2,-3,-1,6,8,3,3
1558434867991893,1,1,6,7,4,-2,-1,1
1558434868006853,-4,-3,-7,-7,-9,-8,-3,-2
1558434868006853,-2,0,2,8,6,1,1,3
1558434868007851,-1,-3,-14,-32,-14,-7,-2,0
1558434868007851,-2,-1,0,10,0,4,1,-1
1558434868019821,0,-1,2,2,4,5,4,1
1558434868019821,-3,-1,-3,-3,-2,-3,-5,-5
1558434868028794,-2,1,2,4,0,-2,-2,-1
1558434868028794,-1,0,5,15,5,7,5,0
1558434868042756,-1,-3,-7,-10,-3,-3,-1,0
1558434868042756,1,1,-4,-2,-1,-2,-1,-1
1558434868051733,-2,-1,-2,-2,-4,-4,-3,-3
1558434868051733,-2,-2,-1,-3,-5,-9,-7,-3
1558434868066693,0,1,1,6,-1,-1,0,-2
1558434868066693,2,0,4,-4,0,0,-1,2
1558434868067690,-1,2,1,17,9,5,0,1
1558434868067690,-5,-4,-11,-23,-14,-2,0,-1
1558434868079661,0,0,0,7,1,4,2,1
1558434868079661,-3,-2,-3,-8,-1,-3,-2,0
1558434868088635,-3,-1,2,2,-7,-9,-5,-4
1558434868088635,-1,0,2,2,0,-4,-2,0
1558434868102623,-1,0,-1,-1,0,2,-1,-3
1558434868102623,0,0,3,11,11,11,4,-2
1558434868111574,1,0,2,6,7,4,3,1
1558434868111574,0,-4,-14,-22,-10,-4,-3,0
1558434868126535,-4,-3,0,-1,-7,-12,-6,-4
1558434868126535,-1,-3,-7,-13,-13,-6,-4,-3
1558434868127532,-2,-1,1,-3,-7,-4,-3,-3
1558434868127532,3,1,-1,0,6,7,2,3
1558434868139497,2,3,7,7,25,16,5,4
1558434868139497,-1,-2,4,10,0,0,0,0
1558434868148476,-2,-3,-4,2,-10,-9,-6,-2
1558434868148476,-6,-5,-11,-19,-10,-15,-9,-6
1558434868162440,-2,-2,0,5,-5,1,0,-2
1558434868162440,2,1,-1,-8,7,3,4,3
1558434868171413,0,-2,-2,-8,2,-1,0,-2
1558434868171413,-3,1,4,14,1,-2,-3,-2
1558434868186372,-1,-1,0,-6,-5,-5,-2,-3
1558434868186372,-2,-2,-1,2,3,4,5,0
1558434868187372,1,-1,-1,-9,-4,-2,0,0
1558434868187372,3,1,3,11,6,5,2,0
1558434868200338,-1,-1,-4,-9,-6,-4,-3,-1
1558434868200338,-4,-4,-5,-9,-13,-8,-8,-7
1558434868209313,1,-1,4,10,0,-1,-1,0
1558434868209313,1,-1,1,10,11,8,2,0
1558434868222277,-3,-6,-6,-6,0,-2,0,1
1558434868222277,-2,-3,1,0,1,-3,-3,-2
1558434868231255,-1,0,-1,-3,2,6,3,0
1558434868231255,-1,-1,2,0,-4,-5,-5,-3
1558434868246215,0,-1,0,-1,-8,-4,-3,-1
1558434868246215,-1,-1,-5,-5,-2,-5,-2,0
1558434868248208,-1,-2,-3,-1,-10,-10,-8,-4
1558434868248208,0,-2,-3,-4,-7,-3,3,1
1558434868260175,3,3,3,16,23,19,8,4
1558434868260175,-1,2,-3,4,5,3,1,5
1558434868269151,-3,-1,2,-4,-2,-5,-3,-2
1558434868269151,-4,-4,-5,-1,-5,-3,-2,-6
1558434868283119,0,-1,0,-11,-12,-7,-1,-3
1558434868283119,0,-2,-1,2,-1,-5,-2,-4
1558434868291093,-2,-3,-5,3,-2,6,0,0
1558434868291093,-1,-1,2,5,16,9,3,0
1558434868306053,-3,-3,-3,4,-4,-6,-3,-4
1558434868306053,0,0,5,5,-1,0,-2,-1
1558434868308055,-1,0,-7,-25,-9,-8,-4,-4
1558434868308055,0,1,5,5,-3,-1,0,0
1558434868320016,0,0,5,9,0,-2,-4,-1
1558434868320016,-2,-5,-5,-8,-12,0,0,1
1558434868328992,1,0,2,10,11,6,3,2
1558434868328992,-1,0,-3,2,5,4,-2,0
1558434868342953,0,-1,0,3,4,0,0,-1
1558434868342953,-2,-1,-1,4,-8,-6,-2,-2
1558434868351932,-2,-3,-12,-28,-8,-4,-2,-1
1558434868351932,-3,-5,-5,-11,-10,-6,-4,-3
1558434868365895,-3,1,0,-3,-6,-5,-4,-1
1558434868365895,1,0,0,0,3,4,1,-1
1558434868367894,0,-1,6,11,6,5,2,0
1558434868367894,1,2,1,-2,-2,-5,-1,-1
1558434868379855,-1,-3,-6,-8,-9,-5,-4,-1
1558434868379855,0,1,3,4,8,4,2,1
1558434868388832,0,-1,1,10,5,1,1,0
1558434868388832,-4,-1,-7,0,-4,-5,-3,-3
1558434868402795,-1,-4,3,-4,-2,-1,0,1
1558434868402795,0,-1,-1,-2,0,2,-1,-2
1558434868411770,-2,-1,-4,-6,-3,-3,0,-3
1558434868411770,-2,1,-4,-2,-5,-3,-2,0
1558434868426731,-1,1,-4,-5,-3,-2,2,2
1558434868426731,-1,0,1,8,6,0,-2,-1
1558434868427729,-1,-2,1,1,0,-1,-1,0
1558434868427729,2,0,-6,-11,-5,-3,0,-2
1558434868439695,-1,-3,-6,-5,-1,0,-2,-1
1558434868439695,0,1,0,-3,1,-2,0,0
1558434868448674,1,6,0,13,0,1,-2,-1
1558434868448674,-2,-2,7,3,1,0,1,0
1558434868462634,-3,-2,-8,-9,-4,-3,-3,-3
1558434868462634,-3,-1,-1,-2,-1,1,2,-2
1558434868478592,0,3,1,5,1,-2,0,1
1558434868478592,0,-1,1,-6,0,0,-2,-4
1558434868486570,-2,-3,-14,-10,-11,-6,-4,-5
1558434868486570,0,2,2,6,5,2,0,-2
1558434868487567,0,2,10,4,2,0,1,0
1558434868487567,-2,-4,-8,1,-3,-4,-3,1
1558434868499537,-3,-2,-5,-5,-2,-1,0,0
1558434868499537,0,-2,-8,-6,-4,-2,-2,-1
1558434868508513,2,-1,6,6,3,1,0,2
1558434868508513,1,1,0,-9,-4,-1,-1,1
1558434868522474,0,-2,6,5,3,3,2,-1
1558434868522474,-2,-3,-11,-7,-4,-2,0,-1
1558434868539434,-1,-1,6,11,2,-1,-4,-1
1558434868539434,0,-1,4,-1,3,2,0,-1
1558434868547407,1,-2,-8,-8,-4,-3,-2,0
1558434868547407,-1,-3,2,-17,-6,-1,1,0
1558434868548406,-2,-4,-4,-1,-2,-2,4,3
1558434868548406,-2,-3,-4,-4,-4,-2,-3,1
1558434868560375,0,2,10,16,7,1,0,-2
1558434868560375,-2,-3,-1,-1,-2,-1,-2,0
1558434868569348,-2,-2,-13,-15,-4,-3,-2,-2
1558434868569348,0,2,5,9,4,0,2,1
1558434868582315,-2,1,1,5,-3,-1,2,-1
1558434868582315,-1,0,1,-13,-2,0,-2,0
1558434868591290,-2,-3,-4,-7,-4,-1,-3,-3
1558434868591290,0,-3,1,6,1,0,0,-1
1558434868605252,-1,-2,-5,-13,-5,-1,-3,1
1558434868605252,0,0,1,9,6,1,-1,-1
1558434868614229,-3,-3,-8,-4,-8,-3,-3,0
1558434868614229,-2,0,3,0,2,1,-3,-2
1558434868620213,-1,0,-1,3,-4,-4,0,-2
1558434868620213,0,0,7,8,2,0,1,0
1558434868629206,0,0,0,3,7,7,0,0
1558434868629206,2,1,6,7,2,4,6,3
1558434868642153,-2,-4,-9,-10,-5,0,-2,-3
1558434868642153,-1,-4,-9,-7,-4,-8,-4,-2
1558434868651138,-2,-3,1,2,-6,-4,2,-1
1558434868651138,-3,1,3,10,0,0,-2,-3
1558434868666092,-1,0,8,2,0,1,1,0
1558434868666092,2,4,-1,2,3,1,3,1
1558434868672074,-2,-2,-9,-33,-4,-2,-1,-2
1558434868672074,-1,-2,-6,-5,-10,-5,-5,-1
1558434868680057,-1,-1,2,4,3,1,1,0
1558434868680057,-1,-1,4,0,2,1,-1,-2
1558434868689030,-2,-1,-1,1,4,3,-3,0
1558434868689030,0,0,-5,1,7,4,1,0
1558434868702996,-3,1,6,10,5,-2,-4,-4
1558434868702996,-2,-4,-10,-4,-14,-5,2,-3
1558434868710975,-4,-1,1,-10,-3,1,3,-4
1558434868710975,0,0,-5,-10,3,3,2,0
1558434868725929,1,-2,1,7,0,-3,0,-1
1558434868725929,0,0,4,0,-4,-5,-6,-3
1558434868732918,1,0,-2,-1,-1,0,-1,1
1558434868732918,-2,-4,5,16,1,-1,-2,0
1558434868739893,3,3,4,1,3,4,5,3
1558434868739893,-2,-2,-1,-6,-4,-3,-3,-2
1558434868756847,1,-1,-3,-2,0,-3,-1,-1
1558434868756847,-2,-1,-1,0,-9,-6,-4,0
1558434868762831,0,-1,-9,-23,-8,-4,-4,-1
1558434868762831,-2,-1,3,13,5,0,3,-1
1558434868771811,-1,-4,-3,8,3,4,-1,0
1558434868771811,0,-2,-4,-3,5,3,1,-2
1558434868785770,-2,0,0,-7,-8,-3,-6,-4
1558434868785770,0,-3,-9,-17,3,1,-1,1
1558434868799733,-1,-2,-1,10,-7,-5,-2,-1
1558434868799733,1,4,13,9,5,4,2,-1
1558434868808708,-2,-4,-9,-14,-5,-2,-2,-1
1558434868808708,-4,-1,0,6,0,2,-1,-2
1558434868810707,0,0,1,5,1,0,-1,-1
1558434868810707,-2,-4,-1,2,-5,-10,-5,-1
1558434868831646,2,1,0,-1,-3,-5,0,3
1558434868831646,-3,-5,-12,-17,-4,3,1,-4
1558434868832645,1,3,7,22,24,14,4,1
1558434868832645,0,3,2,1,-1,-3,-1,0
1558434868845610,-1,0,-10,-12,1,0,3,4
1558434868845610,2,2,4,9,-1,-3,-3,3
1558434868852595,-1,-4,-1,-9,-17,-10,-1,-3
1558434868852595,0,-2,-2,4,-4,-2,-1,0
1558434868868548,-3,-4,-3,2,1,-1,-2,-5
1558434868868548,1,3,8,4,5,2,-2,-1
1558434868870549,-5,-6,-17,-25,-12,-9,-3,-4
1558434868870549,-3,-3,-9,-5,-4,-2,-1,-1
1558434868882511,0,1,10,20,10,4,1,2
1558434868882511,-2,-3,-8,-6,-3,-2,0,-1
1558434868891487,2,2,9,11,-1,-3,-3,0
1558434868891487,1,-2,-11,-25,-3,-1,5,2
1558434868905449,-1,-3,-8,-2,-5,1,-4,-1
1558434868905449,-3,-4,0,1,4,-3,-2,-5
1558434868912431,-1,-1,2,8,1,1,-4,-1
1558434868912431,-3,-2,-4,-12,1,3,2,-2
1558434868928388,0,0,8,22,4,0,0,0
1558434868928388,-1,-1,-5,-22,-12,-5,-1,2
1558434868930382,1,-2,0,-3,-4,-7,-8,-3
1558434868930382,-5,-5,-8,-9,-13,-8,-3,-3
1558434868942352,-2,0,3,3,5,0,3,-2
1558434868942352,-1,0,-7,5,4,8,3,-1
1558434868951328,-2,-2,0,-15,3,3,5,1
1558434868951328,0,-2,1,0,-6,-2,-4,0
1558434868965290,-2,-2,-2,1,1,-2,-4,-4
1558434868965290,0,-1,-1,-1,-7,-6,-5,-1
1558434868972270,0,1,0,0,10,4,5,2
1558434868972270,1,1,2,9,10,6,3,0
1558434868989225,0,-1,-6,-12,-17,-6,-2,2
1558434868989225,0,1,6,7,3,7,4,2
1558434868990223,-4,-5,-10,-5,-5,-14,-12,-2
1558434868990223,-2,-1,1,-8,-14,-6,1,-1
1558434869002190,-1,-1,0,-1,10,5,1,-3
1558434869002190,0,-1,0,7,-1,1,5,0
1558434869011166,2,2,4,17,8,7,-2,-2
1558434869011166,-2,-1,-5,-12,2,-1,-6,-1
1558434869025130,-1,-3,-3,-1,-10,-14,-12,-6
1558434869025130,0,-3,-2,-11,-11,-4,-4,1
1558434869034111,-1,1,3,9,10,5,10,4
1558434869034111,0,0,-1,3,4,5,-3,0
1558434869049066,3,0,2,4,7,6,11,4
1558434869049066,-3,-3,-2,-6,4,-9,-16,-4
1558434869050063,1,0,-1,-9,-20,-7,2,1
1558434869050063,3,0,-1,0,8,1,0,1
1558434869062031,-2,-1,-3,-10,-7,-7,4,2
1558434869062031,3,-1,1,10,-16,-7,-16,-4
1558434869071006,-6,-3,3,3,11,10,7,-7
1558434869071006,-3,-1,-2,8,9,11,15,-1
1558434869084969,4,2,2,-5,1,5,8,2
1558434869084969,1,0,0,8,5,-12,-23,-3
1558434869093945,-1,-2,-2,-6,-10,-3,-9,-2
1558434869093945,2,2,-2,-5,1,-3,-6,0
1558434869108905,-2,-1,4,26,18,12,4,0
1558434869108905,-7,-6,-5,-19,-16,-7,9,-2
1558434869109902,-4,-4,-5,-7,-6,-14,-18,-6
1558434869109902,0,1,2,7,-1,-2,14,3
1558434869122868,2,-1,-8,-22,-4,0,-1,4
1558434869122868,2,2,5,17,20,16,18,5
1558434869131844,0,-1,-3,-7,-12,-4,-7,-6
1558434869131844,-1,-3,-4,-4,-4,-6,-7,-2
1558434869144811,5,6,8,16,8,3,-11,5
1558434869144811,2,3,3,-1,17,8,16,8
1558434869153785,-3,-5,-10,-16,-16,-5,0,0
1558434869153785,-7,-6,-3,-1,-5,-5,-6,-8
1558434869168757,-2,-2,-1,-2,0,4,5,-3
1558434869168757,2,2,2,2,3,-3,-4,2
1558434869170740,1,1,0,3,3,-2,-2,-5
1558434869170740,-2,-5,-6,-11,-25,-19,-18,-8
1558434869182711,-7,-6,-6,-12,-11,-4,-11,-7
1558434869182711,1,3,3,10,12,11,18,5
1558434869191684,0,1,0,-4,1,-3,-2,3
1558434869191684,-3,-3,-4,-13,-18,-16,-16,-7
1558434869204649,-3,-4,-5,-1,-9,-8,1,3
1558434869204649,2,2,-1,3,18,22,4,1
1558434869213624,10,7,10,17,47,30,33,13
1558434869213624,-3,-1,-2,-4,1,5,-7,-7
1558434869228586,-7,-6,-7,-14,-27,-33,-13,-13
1558434869228586,-1,0,0,3,-17,-14,-3,0
1558434869230579,0,0,1,7,16,16,-3,-4
1558434869230579,1,-1,4,2,-8,1,5,8
1558434869242548,4,4,6,10,33,15,5,0
1558434869242548,-6,-5,-7,-6,-14,-12,-14,-10
1558434869251525,-5,-4,-5,-8,-14,-12,-5,-6
1558434869251525,-2,-3,-5,-2,-11,-6,-8,-2
1558434869264489,-6,-4,-4,-9,-11,-11,-23,-5
1558434869264489,5,3,1,2,7,8,17,11
1558434869273465,1,3,5,11,5,2,0,1
1558434869273465,-1,-3,-5,-13,-12,-9,-6,-4
1558434869296405,-4,-4,-6,-7,-10,1,9,-2
1558434869296405,0,0,0,-4,7,8,-3,-6
1558434869297401,-1,-3,-5,-3,-15,-17,-4,5
1558434869297401,3,4,12,23,24,17,6,5
1558434869302390,-2,1,0,4,9,11,12,-4
1558434869302390,-6,-6,-7,-10,-17,-14,-12,-6
1558434869311364,-3,-6,-6,-8,-15,-21,-8,-4
1558434869311364,2,4,4,7,13,12,6,7
1558434869325327,3,3,3,-1,2,4,0,2
1558434869325327,-5,-6,-7,-10,-9,-8,-4,-8
1558434869334303,-2,-1,3,6,-3,-3,-4,0
1558434869334303,-1,-1,-4,-8,-2,-7,-3,0
1558434869349265,2,2,6,10,11,20,3,5
1558434869349265,-3,-3,-2,-1,1,-4,-2,-3
1558434869350262,-3,-5,-7,-14,-18,-12,-12,-4
1558434869350262,-1,1,1,5,5,2,11,1
1558434869362228,2,2,3,8,-2,0,4,0
1558434869362228,-1,-1,-9,-19,-10,-4,0,10
1558434869371205,-5,-3,-1,-2,-1,-2,-8,-5
1558434869371205,-3,-2,-5,-8,2,-4,6,-1
1558434869385167,0,-2,-1,-3,-8,-8,-5,-5
1558434869385167,-1,-4,2,7,-2,13,3,-3
1558434869394143,6,7,9,16,32,26,18,8
1558434869394143,-1,0,2,4,3,-2,-8,-3
1558434869409103,-3,-4,-4,-8,-17,-21,-11,0
1558434869409103,-2,-4,-4,-11,-7,-16,-4,-4
1558434869410105,-2,-2,0,-6,-7,1,-3,-2
1558434869410105,-4,-3,0,1,-3,2,-1,-3
1558434869431044,0,1,0,2,4,-1,5,4
1558434869431044,3,3,6,15,21,14,1,1
1558434869433045,-4,-4,-7,-6,-16,-14,-6,-4
1558434869433045,1,1,4,5,-2,0,5,4
1558434869445006,-2,-6,-10,-10,14,15,-5,-3
1558434869445006,-3,-1,-3,-3,-7,-1,0,-7
1558434869453982,1,1,1,-1,9,-2,11,4
1558434869453982,0,0,4,10,-2,0,-3,-2
1558434869468942,-5,-6,-12,-23,-29,-24,-17,-9
1558434869468942,-3,-4,-5,3,-15,-20,-8,-4
1558434869469939,5,3,1,7,5,6,7,9
1558434869469939,0,-2,-3,-7,-2,9,3,-5
1558434869482906,-2,-1,1,4,11,-1,7,4
1558434869482906,3,3,4,0,17,12,-1,2
1558434869490885,-4,-2,-5,-7,-15,0,-1,-3
1558434869490885,0,-2,2,7,10,-5,-8,-4
1558434869504848,-1,1,3,-6,-12,-10,-7,-6
1558434869504848,-5,-5,-8,-9,-6,-4,3,1
