timestamp,emg1,emg2,emg3,emg4,emg5,emg6,emg7,emg8
1558434893153740,0,1,5,8,-2,-5,-4,-3
1558434893153740,-1,-1,-3,-12,-5,-4,-2,-4
1558434893154735,1,1,4,6,4,5,2,1
1558434893154735,0,2,1,-6,-1,1,2,-1
1558434893155733,-1,0,-9,-3,0,2,0,-1
1558434893155733,-2,-6,0,1,-6,-4,-3,-3
1558434893155733,-2,-2,-4,-6,-6,-6,-5,-4
1558434893155733,-1,-3,1,3,-1,-1,-1,0
1558434893166704,2,1,7,11,4,4,1,0
1558434893166704,-2,0,-1,2,1,-2,-2,-1
1558434893175680,1,-2,-1,-1,3,5,3,0
1558434893175680,0,-1,-1,5,0,1,1,0
1558434893183659,-1,-2,-5,-12,-7,-6,-3,-1
1558434893183659,0,-1,-4,0,-3,0,-2,1
1558434893197622,-3,-4,-2,-1,-7,-8,-5,-2
1558434893197622,-1,-2,-1,-1,-3,-3,-4,-3
1558434893206907,1,1,2,6,4,3,2,-1
1558434893206907,-2,-4,-9,-14,1,4,1,1
1558434893211584,0,2,2,3,6,-1,2,2
1558434893211584,-2,-4,-8,-15,-9,-5,-4,-3
1558434893235520,-1,-3,-1,0,-2,-3,-3,-2
1558434893235520,1,1,3,-3,-6,1,2,1
1558434893237531,0,0,-4,7,6,-2,-2,-1
1558434893237531,-1,1,1,3,6,3,1,2
1558434893275414,-2,1,-3,1,-3,0,0,-1
1558434893275414,-2,-1,0,-1,-3,-2,0,-1
1558434893275414,-2,0,0,1,-5,-6,-3,-2
1558434893275414,-2,-1,3,5,-7,-5,-4,-5
1558434893276411,-1,-3,-3,-13,-9,-6,-6,-4
1558434893276411,-2,-3,-4,-4,-3,-3,-2,-2
1558434893279403,-1,-1,-2,-3,5,7,8,1
1558434893279403,1,1,-4,-4,9,5,4,2
1558434893286385,1,2,3,5,6,0,0,-2
1558434893286385,-1,-3,0,4,-5,-2,-1,-4
1558434893294364,-2,0,-2,-6,-10,-8,-7,-2
1558434893294364,-3,-3,-2,1,-3,-3,-1,-2
1558434893309323,0,-1,3,4,0,1,1,1
1558434893309323,-2,-1,-10,-10,-4,-7,-4,-2
1558434893317302,1,2,8,10,4,8,9,2
1558434893317302,1,-2,-11,-13,6,7,2,1
1558434893324282,1,0,4,2,3,2,1,0
1558434893324282,-1,-3,-7,-10,-7,-3,-2,-3
1558434893331265,0,-3,-5,-8,-4,-5,-3,-3
1558434893331265,-2,1,1,1,-8,-4,-3,-2
1558434893346223,-2,-1,-1,-2,-3,-1,-2,-3
1558434893346223,-2,-2,1,0,2,1,-2,-2
1558434893354202,-2,-2,0,-3,-7,-6,-5,1
1558434893354202,-1,-1,9,13,5,0,1,0
1558434893363179,2,3,0,3,9,3,4,4
1558434893363179,1,1,-2,6,2,5,3,2
1558434893377141,-3,-4,-3,-11,-3,-1,-4,-2
1558434893377141,0,-4,-10,-18,-9,-9,-6,-4
1558434893384122,-2,-2,-5,-7,-6,-5,-3,-2
1558434893384122,2,4,4,1,0,-4,-4,0
1558434893400079,-1,-3,-4,2,-1,0,-3,-2
1558434893400079,1,1,5,6,5,9,7,2
1558434893407060,3,2,7,16,16,8,4,4
1558434893407060,-1,0,6,-3,-1,-2,0,0
1558434893414043,-3,-1,-4,3,-2,-4,-4,-1
1558434893414043,-3,-3,-1,-1,-9,-9,-7,-5
1558434893423018,-2,-3,-7,-12,-10,-4,-2,-1
1558434893423018,-1,0,-2,6,7,4,3,2
1558434893436982,0,-2,-1,0,-1,-4,-2,-3
1558434893436982,0,0,2,2,1,0,-3,-2
1558434893443962,-1,-1,0,-3,-2,-3,0,-3
1558434893443962,2,-2,1,4,7,6,4,-1
1558434893451941,0,0,5,12,7,3,1,-2
1558434893451941,-3,-5,-13,-7,-3,-4,-2,1
1558434893466901,-1,-1,-2,3,-3,-7,-7,-2
1558434893466901,-2,-3,-6,-11,-14,-11,-7,-3
1558434893473882,-1,-2,-8,-15,-10,-1,-1,-3
1558434893473882,0,-1,6,16,7,7,0,0
1558434893482857,1,-1,1,-1,5,3,2,1
1558434893482857,2,2,6,0,6,7,6,4
1558434893496821,-1,-1,-8,-5,3,-2,-3,1
1558434893496821,0,0,-2,-7,-6,-5,-2,-1
1558434893511780,-3,-3,0,3,-10,-5,-4,-5
1558434893511780,0,-3,-1,0,-1,-7,-7,-3
1558434893512778,-2,-3,-2,-2,-9,-4,-1,-3
1558434893512778,-1,-1,-1,-4,4,1,1,-1
1558434893526741,-2,-3,-3,1,0,5,2,0
1558434893526741,0,0,9,9,7,6,4,2
1558434893533722,1,4,1,2,10,1,2,0
1558434893533722,-2,-4,-5,-6,-8,-5,-2,-2
1558434893542698,-4,-1,-4,-3,-6,-4,-2,-2
1558434893542698,-4,-7,-5,-2,-11,-8,-7,-4
1558434893557657,0,-6,-2,-2,0,0,-2,0
1558434893557657,2,2,3,2,-1,0,2,1
1558434893564639,0,0,0,2,3,4,3,3
1558434893564639,2,10,2,2,11,9,6,2
1558434893571621,-3,-2,2,-1,-4,-4,-2,-2
1558434893571621,-3,-2,-4,-3,0,-4,-3,-4
1558434893586581,-1,-5,-6,-10,-16,-9,-5,-4
1558434893586581,-3,-1,2,-4,3,-1,0,-1
1558434893594559,1,-1,-6,3,7,5,3,3
1558434893594559,1,1,12,6,-1,-2,-4,-2
1558434893603535,0,-2,-4,-8,-12,-9,-10,-2
1558434893603535,-2,-4,-11,-9,0,0,-3,-2
1558434893617498,0,-1,-3,-4,-1,1,1,1
1558434893617498,-5,-4,-2,-1,-1,-1,3,-2
1558434893624479,3,2,0,-1,4,4,3,3
1558434893624479,-1,0,6,14,-2,-5,-4,-2
1558434893631461,-1,-1,2,-9,-11,-6,-6,-5
1558434893631461,1,3,0,-2,8,6,1,3
1558434893646421,0,0,2,5,10,3,3,2
1558434893646421,-2,-4,-8,-10,-12,-7,-3,-3
1558434893654399,0,-3,-5,0,-2,-4,-3,-1
1558434893654399,-2,-2,1,2,-7,-7,-4,-3
1558434893663376,-2,2,5,12,4,-2,-4,-4
1558434893663376,-1,-1,-5,-19,-4,2,2,-1
1558434893677339,3,4,12,27,14,7,6,0
1558434893677339,-2,-5,-9,-13,-3,-1,1,-1
1558434893684319,1,-1,0,-9,-4,1,-1,3
1558434893684319,-3,1,-8,-3,-5,-3,-1,-4
1558434893700277,1,3,5,3,-1,0,-2,-1
1558434893700277,1,-2,-3,0,-5,-3,0,0
1558434893706260,0,-2,-1,4,5,-1,-1,-1
1558434893706260,-1,0,5,1,-12,-7,-5,-1
1558434893714239,-1,0,-5,-9,1,0,-1,-1
1558434893714239,-2,2,5,-1,5,4,0,-1
1558434893723216,-3,-2,-2,-15,-2,0,-2,-1
1558434893723216,-1,-3,-4,3,0,1,-2,-3
1558434893737193,-3,-3,3,6,-3,-3,-4,-3
1558434893737193,-1,-2,3,5,0,-2,-2,-2
1558434893744160,0,0,-6,-5,-9,0,1,-3
1558434893744160,0,-2,-2,-10,3,1,-1,-1
1558434893760115,-3,-4,-3,-2,-3,-3,1,0
1558434893760115,2,3,5,9,1,0,1,-1
1558434893767097,-5,-4,-8,-7,-3,-4,-4,-3
1558434893767097,2,2,3,13,8,5,2,0
1558434893774079,0,1,1,-1,0,-1,-3,0
1558434893774079,-2,-2,-5,-10,-8,-5,-1,1
1558434893783055,-2,-1,-4,-8,-4,1,2,-1
1558434893783055,-2,-1,2,8,0,-3,-3,-1
1558434893797027,-2,-2,0,-7,-5,-5,-3,-3
1558434893797027,-2,-3,-5,3,0,1,0,-2
1558434893804000,-1,-1,0,3,12,3,3,1
1558434893804000,-1,0,-1,5,-1,-2,-1,1
1558434893819957,2,1,-2,-7,-2,1,-1,1
1558434893819957,-1,-2,3,4,-3,-4,-4,-3
1558434893826938,-2,-3,0,6,-7,-9,-8,-5
1558434893826938,-2,-5,-5,-10,-7,-4,-1,-1
1558434893833919,3,4,5,5,18,13,10,7
1558434893833919,2,2,-7,-1,-3,0,1,1
1558434893842895,-2,-3,-1,-3,-5,1,-2,-1
1558434893842895,1,4,4,7,3,-3,-3,-3
1558434893856858,-2,-4,-2,-2,-14,-14,-6,-3
1558434893856858,-2,-2,-6,-20,-12,-1,-2,1
1558434893865834,1,1,4,13,7,4,2,-2
1558434893865834,1,2,-1,0,5,4,-2,-2
1558434893879797,-3,3,-2,-3,-5,-2,-3,-4
1558434893879797,1,3,1,7,10,0,1,2
1558434893886777,-2,-7,-3,-3,-6,-5,-2,-1
1558434893886777,-1,-1,-3,-10,-8,-2,2,-2
1558434893902735,-5,-8,-3,-1,-3,-2,-2,-5
1558434893902735,-2,-2,-2,-4,-4,-2,-3,-3
1558434893904730,-1,-1,2,5,4,3,1,1
1558434893904730,1,-2,-1,-1,5,1,3,2
1558434893916698,0,3,-4,2,2,2,-1,0
1558434893916698,-2,0,-3,-4,-3,-3,-1,-3
1558434893925674,1,-1,1,6,-5,-5,-1,-1
1558434893925674,-3,-3,-2,-8,-3,1,-1,-1
1558434893939636,-1,-4,-2,5,-8,-6,-3,-1
1558434893939636,-1,-2,-5,-20,0,0,-3,-2
1558434893954597,1,3,3,8,5,3,2,3
1558434893954597,-1,-2,-3,1,-4,-5,-4,-3
1558434893955594,0,-1,0,-8,2,0,2,0
1558434893955594,1,0,0,0,7,5,3,2
1558434893969556,0,0,-1,-3,1,0,1,-2
1558434893969556,-2,-3,-1,2,-1,-2,-2,0
1558434893976538,1,1,2,-1,0,-3,-1,-1
1558434893976538,-2,-3,2,11,-7,-10,-6,-6
1558434893985514,-2,-1,-7,-22,-9,-5,-1,-4
1558434893985514,1,2,6,9,10,10,5,1
1558434893999476,1,1,6,6,11,9,3,2
1558434893999476,-1,-1,-5,0,-1,-2,-1,-1
1558434894006457,-3,-2,-3,1,-2,-4,-3,-3
1558434894006457,-3,-1,-3,-4,-14,-11,-7,-1
1558434894014437,-2,-3,-2,-9,-12,-10,-3,-4
1558434894014437,3,0,-5,6,11,11,6,4
1558434894029397,-3,-1,-5,-11,3,5,2,0
1558434894029397,0,1,-2,1,2,2,0,0
1558434894045353,-2,2,5,4,1,-1,-4,-1
1558434894045353,-3,-3,-3,-6,-10,-9,-5,-3
1558434894047351,1,1,2,4,7,0,0,0
1558434894047351,0,-1,5,5,5,-2,0,1
1558434894060313,-4,-4,-7,-16,-11,-5,-6,-3
1558434894060313,-2,-1,2,2,-7,-9,-6,-2
1558434894066298,1,3,4,8,-2,-1,4,3
1558434894066298,1,-1,-10,-8,4,6,5,2
1558434894074277,-1,-3,-8,-7,4,5,1,-2
1558434894074277,0,-2,-3,2,10,7,2,1
1558434894089236,-2,-1,-1,-4,-6,-5,-6,-3
1558434894089236,-1,-2,0,5,-4,-7,-5,-2
1558434894096218,-3,-1,-3,1,-7,-5,-3,-4
1558434894096218,1,1,4,-1,-5,0,-3,-3
1558434894105193,0,-1,4,11,4,-2,0,0
1558434894105193,-1,-1,-2,-9,-4,-1,5,2
1558434894120159,1,2,-2,0,9,10,7,3
1558434894120159,1,4,12,25,11,5,1,1
1558434894126137,-4,-6,-9,-14,-11,-5,-7,-4
1558434894126137,-2,-5,-2,-2,-8,-7,-4,-4
1558434894134116,1,-3,-3,-7,-2,-2,0,2
1558434894134116,0,-2,-6,-7,-2,-7,-4,-3
1558434894149076,-1,0,2,11,-1,0,1,-2
1558434894149076,-2,1,0,4,0,3,-3,-2
1558434894157055,-2,-3,0,4,-4,-5,-4,-1
1558434894157055,-1,-1,1,-3,0,0,1,0
1558434894166031,0,1,-2,-2,3,3,-1,1
1558434894166031,-2,-3,-4,-6,-2,-1,-2,-3
1558434894179994,-3,2,-1,-1,-4,-7,-5,-5
1558434894179994,-3,-1,0,-4,-11,-5,0,-1
1558434894186988,1,2,-1,-4,9,7,3,2
1558434894186988,-1,-3,-1,2,2,0,-1,0
1558434894193962,2,0,1,6,4,5,0,1
1558434894193962,-2,-2,-1,-4,-8,-6,-4,-1
1558434894209912,-1,-1,0,4,-5,-3,-1,-3
1558434894209912,0,-1,-6,-4,9,5,2,0
1558434894216895,0,1,3,5,3,-1,3,0
1558434894216895,-3,-6,-13,-28,-9,-2,-3,-3
1558434894225871,0,2,3,4,3,-2,-3,1
1558434894225871,-3,1,3,3,-9,-4,-5,-3
1558434894239832,-1,-2,-6,-1,6,2,2,1
1558434894239832,-3,0,0,2,2,-1,-1,1
1558434894246815,-1,0,-2,-5,-3,0,-1,-1
1558434894246815,2,0,-1,5,-2,-3,2,-1
1558434894262772,-4,-3,-3,-9,-7,-4,-3,-2
1558434894262772,-1,-1,1,2,2,5,3,1
1558434894269756,-1,-1,-3,-2,2,0,-1,-1
1558434894269756,1,-2,1,0,1,-1,0,0
1558434894285712,1,-1,-1,2,-6,-4,-5,-1
1558434894285712,1,-1,10,25,6,1,-2,0
1558434894286709,-1,-3,-15,-29,-15,-5,-1,-2
1558434894286709,-1,-1,4,8,8,4,1,2
1558434894299675,-2,-3,-13,-15,1,3,1,-3
1558434894299675,-2,0,0,6,4,-1,-2,-1
1558434894306662,-1,-1,5,5,-3,-6,-4,-1
1558434894306662,-1,0,3,-1,-6,-6,-7,-1
1558434894322613,-1,-3,2,0,-6,-5,-3,-3
1558434894322613,1,2,-3,-5,0,2,3,1
1558434894329594,1,1,5,7,7,3,1,-1
1558434894329594,-1,-2,-9,-14,-1,1,-1,0
1558434894345551,-1,1,0,0,1,2,0,-1
1558434894345551,0,2,3,-1,-1,0,2,-1
1558434894346551,-2,-6,-7,-4,-3,-2,-1,0
1558434894346551,-3,-1,4,14,0,-6,-4,-4
1558434894359515,-2,-5,-5,-17,-13,-5,0,-1
1558434894359515,-2,-5,-8,-5,-4,-2,-2,-2
1558434894366499,-1,1,3,13,13,5,2,-1
1558434894366499,0,-1,-4,-13,-7,1,3,1
1558434894382454,1,2,4,16,5,2,0,0
1558434894382454,0,-2,-8,-19,-14,-8,-4,-2
1558434894389437,-2,-2,3,2,0,-1,-2,-1
1558434894389437,-1,-1,-2,-2,2,-1,-4,-1
1558434894405392,1,0,4,4,-1,-5,-2,2
1558434894405392,-4,-7,-8,-7,-5,-4,-5,-3
1558434894407385,-1,-2,-4,-6,-5,-4,0,-3
1558434894407385,-1,-1,2,7,6,6,4,0
1558434894420354,1,3,7,13,4,-3,-2,-2
1558434894420354,-2,-4,-3,-2,-2,-4,-3,-1
1558434894426339,1,2,-1,-8,-1,6,6,4
1558434894426339,0,-1,5,7,4,1,0,0
1558434894442296,-4,-3,-18,-23,1,-1,0,0
1558434894442296,1,0,5,3,1,-2,-2,-2
1558434894449279,-1,-2,0,1,-10,-9,-7,-3
1558434894449279,-1,-1,-4,-6,-9,-7,-4,-4
1558434894465291,0,1,1,6,2,5,1,0
1558434894465291,2,5,6,11,17,12,9,3
1558434894467229,1,-1,-7,-12,0,1,1,1
1558434894467229,-3,-5,-4,1,-4,-5,-4,-4
1558434894480193,0,0,11,-5,-9,-4,-1,-1
1558434894480193,-4,-6,-16,-12,-7,-2,-2,-2
1558434894487178,-1,2,10,11,-1,-6,-4,-2
1558434894487178,-2,-3,-8,-6,-10,-7,-3,-4
1558434894502137,-1,-7,-6,1,2,4,1,-1
1558434894502137,5,7,13,13,16,7,5,2
1558434894509149,-5,0,-6,-1,-2,-3,-2,0
1558434894509149,-2,-5,-4,-10,-4,-2,-1,-2
1558434894525111,-1,2,9,17,-7,-4,-2,-1
1558434894525111,-2,-4,-12,-29,-9,-4,-3,-1
1558434894527066,1,-1,-2,4,3,0,-1,-2
1558434894527066,0,1,-1,-3,8,5,4,2
1558434894548009,3,1,2,8,6,2,0,2
1558434894548009,-1,-1,3,6,1,0,-3,-3
1558434894550004,-4,-4,-2,-7,-12,-7,-5,-3
1558434894550004,0,5,1,-2,-8,-4,-3,1
1558434894561972,-4,-4,-5,-2,-2,0,-2,-3
1558434894561972,1,0,1,1,11,1,0,-1
1558434894577928,0,0,1,5,2,1,0,-2
1558434894577928,-1,-4,-3,-7,-3,2,-1,-1
1558434894585907,0,0,0,5,3,-3,-3,0
1558434894585907,-1,0,1,4,-5,-3,0,2
1558434894586905,0,-3,1,0,1,1,-1,-2
1558434894586905,-1,2,-3,-1,1,-2,-1,-2
1558434894599870,-1,-1,-3,-13,2,1,1,-1
1558434894599870,-3,-6,-1,9,-7,-5,-3,-3
1558434894606852,0,-1,-7,-2,1,-2,-3,-2
1558434894606852,0,3,5,1,10,11,4,4
1558434894622809,1,1,1,8,5,2,2,1
1558434894622809,-1,1,-1,-4,-3,-8,-3,-1
1558434894629791,-2,-4,0,-2,-10,-9,-5,-3
1558434894629791,-3,-3,-1,1,-9,-9,-6,-5
1558434894645748,0,-2,-2,-4,3,4,2,2
1558434894645748,2,6,9,9,11,4,3,3
1558434894646745,-3,-3,-11,-24,-10,-1,0,-1
1558434894646745,-5,-5,-3,4,-3,-5,-6,-2
1558434894659717,-1,-1,-3,-10,-7,-6,-3,-4
1558434894659717,-2,-1,-1,-2,-6,1,0,-1
1558434894667760,0,2,-5,-4,3,3,2,1
1558434894667760,-1,-1,0,7,11,6,3,0
1558434894682684,-3,-2,-4,-1,-8,-4,-5,-3
1558434894682684,1,-1,-1,2,0,2,0,0
1558434894696627,0,0,1,0,2,0,0,0
1558434894696627,1,0,1,4,-4,-5,0,-1
1558434894705594,-4,-4,0,-14,-4,-5,-4,-4
1558434894705594,-3,-5,-13,-6,-5,0,-6,-3
1558434894706588,-2,-3,0,-1,-2,-1,-2,-1
1558434894706588,5,2,8,6,12,5,5,2
1558434894719551,-2,-1,-1,4,0,-1,2,-3
1558434894719551,-1,-1,2,-4,-11,-6,-4,-1
1558434894728528,1,1,-2,4,7,4,1,1
1558434894728528,-3,-3,-5,-14,-12,-4,-4,-1
1558434894742591,-1,-1,0,15,4,0,-3,-1
1558434894742591,-2,-3,-2,-4,-3,-2,-2,-3
1558434894749476,-1,1,4,11,0,-5,-4,-3
1558434894749476,0,0,-1,-9,-6,-6,-1,-1
1558434894765430,0,0,0,4,3,10,6,4
1558434894765430,0,3,2,0,12,6,2,1
1558434894767423,-1,1,2,7,-3,0,-1,-2
1558434894767423,-3,-2,-3,-4,-3,-3,-4,-4
1558434894779392,-3,-1,-1,-7,-8,-11,-8,-4
1558434894779392,-3,-3,-5,-6,-8,-5,-1,-1
1558434894788374,1,-3,-2,-2,5,7,2,1
1558434894788374,1,2,2,8,11,6,2,1
1558434894802330,2,0,-3,2,-2,2,4,1
1558434894802330,-1,-5,-6,-16,-8,-7,-4,-1
1558434894809318,-2,-3,-1,2,-5,-10,-5,-4
1558434894809318,-3,0,-1,-10,-12,-6,-5,-3
1558434894825270,1,0,2,2,6,6,0,1
1558434894825270,0,0,1,10,0,-1,-1,0
1558434894827263,-2,-3,-1,-7,-3,0,0,-2
1558434894827263,-1,-1,-3,7,-2,-2,-2,-1
1558434894839265,2,3,1,1,15,9,4,1
1558434894839265,-2,-1,3,-2,-6,0,1,-2
1558434894848206,0,-2,1,-6,-5,-2,-2,-2
1558434894848206,0,3,5,11,5,1,-1,-1
1558434894862168,-1,-3,-7,-8,-9,-8,-4,-2
1558434894862168,-1,-3,-10,-21,-1,-2,-1,-2
1558434894869149,-1,-2,1,-1,-1,0,0,2
1558434894869149,-1,0,-2,-4,-3,3,0,0
1558434894885458,2,-1,2,3,1,-1,0,0
1558434894885458,-1,1,5,10,2,-1,-2,0
1558434894892090,-1,-4,-2,-1,-5,-3,-2,-1
1558434894892090,-1,-2,-4,-4,-7,-8,-6,-3
1558434894899071,0,-1,-1,-2,0,-3,0,-1
1558434894899071,2,3,6,14,18,13,10,4
1558434894908046,0,2,2,-7,-2,-1,1,1
1558434894908046,-1,-3,1,1,-1,1,2,0
1558434894922008,-2,-4,-11,-6,-3,-6,-6,-4
1558434894922008,-3,-3,-3,-6,-14,-10,-6,-2
1558434894928989,-3,-2,-4,-7,-3,0,-1,-4
1558434894928989,1,-2,0,3,4,0,0,0
1558434894945397,-1,-3,0,-3,-7,-4,-4,-2
1558434894945397,0,-5,-3,1,3,4,-1,-3
1558434894952339,0,5,0,6,-2,-2,-2,-1
1558434894952339,-2,0,-1,-5,-5,-1,0,-1
1558434894960061,-4,-5,0,1,3,3,1,2
1558434894960061,-3,-7,-5,5,2,-2,-2,-2
1558434894968264,1,0,-1,-3,-4,-3,-1,-1
1558434894968264,2,17,1,-4,4,0,0,-1
1558434894983188,-5,-12,-8,-7,-7,-4,-3,-3
1558434894983188,0,0,-1,5,3,3,1,3
1558434894990026,-3,-8,-1,2,0,-6,-4,-4
1558434894990026,2,-5,-3,-19,-5,-2,0,0
1558434895005041,3,6,-2,-2,-2,2,2,2
1558434895005041,-1,6,1,-1,-1,-2,0,-1
1558434895012768,-5,-5,-6,0,4,1,-2,-3
1558434895012768,-5,-12,5,9,-3,-1,-3,-1
1558434895027762,-2,-4,-7,-6,-6,-3,-2,-2
1558434895027762,2,-4,-2,-8,-6,-4,-4,-3
1558434895029721,0,2,-2,8,8,3,1,2
1558434895029721,0,1,3,2,0,1,-2,0
1558434895042982,-3,0,1,-1,0,0,1,-1
1558434895042982,1,3,0,-3,0,3,1,0
1558434895049668,-2,2,1,-3,-3,-4,-1,1
1558434895049668,0,-3,-5,3,0,1,3,0
1558434895064657,-1,3,8,6,2,-1,-2,-1
1558434895064657,-5,-2,-7,-10,-12,-11,-6,-3
1558434895071636,-1,-1,-3,-7,-3,0,1,0
1558434895071636,0,-2,-4,2,13,9,4,3
1558434895088621,0,0,2,7,0,-3,-2,-2
1558434895088621,-3,-4,-5,-4,-8,-6,-5,-2
1558434895090557,-3,-1,4,1,-3,-4,-2,-2
1558434895090557,-4,-4,-5,-1,-6,-10,-4,-3
1558434895102899,0,2,-3,-15,2,7,4,3
1558434895102899,2,3,9,22,11,10,4,4
1558434895109884,1,-3,-7,-16,6,4,1,1
1558434895109884,-4,-3,-7,-7,-14,-2,-2,0
1558434895125588,1,0,6,2,7,0,-2,-1
1558434895125588,-2,-4,-2,-1,-5,-5,-5,-1
1558434895131660,2,1,1,9,0,-1,-3,-2
1558434895131660,-1,3,3,0,-3,-5,-2,-3
1558434895148733,-3,-2,-7,-10,-11,-4,-2,-1
1558434895148733,0,1,2,4,9,6,3,1
1558434895149401,3,0,4,10,5,1,1,0
1558434895149401,-1,-4,-6,-6,-1,-5,-2,0
1558434895162368,1,0,3,7,-4,-4,-2,0
1558434895162368,-3,-1,-2,-10,-6,-3,-2,-3
1558434895169349,-1,-3,1,-2,1,3,1,-1
1558434895169349,-1,0,0,0,1,0,-2,0
1558434895185495,-3,-2,4,8,-3,-4,-3,-3
1558434895185495,1,0,1,3,4,-1,2,1
1558434895193287,-2,-2,-5,-15,-8,0,-2,0
1558434895193287,1,-1,-2,-7,11,10,4,3
1558434895208291,-3,-3,-1,3,-1,-4,-4,-3
1558434895208291,0,-2,-2,-7,-9,-6,-3,-4
1558434895209243,-1,-1,-1,5,0,-3,-2,-2
1558434895209243,-1,0,-1,4,0,-1,-2,-2
1558434895222207,-3,-1,-4,-13,-6,-1,-1,-2
1558434895222207,-3,-4,-1,0,-5,-4,-3,-1
1558434895229191,-1,-3,-3,-5,-10,-7,-5,-1
1558434895229191,0,0,4,9,3,0,1,-1
1558434895245379,1,2,5,17,20,12,6,4
1558434895245379,-1,-2,-8,-17,-4,1,3,-1
1558434895252347,-1,-1,-8,-6,-4,-3,-3,-1
1558434895252347,-2,0,1,-1,-6,-5,-4,-1
1558434895268085,-2,-3,-7,-2,-9,-6,-5,-2
1558434895268085,1,0,3,4,0,-1,-1,0
1558434895269080,-1,-2,3,2,6,2,0,0
1558434895269080,-2,-4,-5,-6,-5,-7,-5,-5
1558434895282045,2,2,2,-3,-8,-3,0,0
1558434895282045,2,3,4,8,20,13,8,4
1558434895289415,-2,0,2,4,3,5,4,2
1558434895289415,-1,-2,-2,1,-1,-2,-2,-1
1558434895305366,-1,-2,0,1,-9,-7,-5,-3
1558434895305366,-2,-5,-4,-7,-8,-7,-5,-4
1558434895312360,-1,0,-1,-5,-11,-6,-2,0
1558434895312360,-2,-5,-11,-6,7,8,4,1
1558434895328283,0,-2,-5,-1,1,2,0,-1
1558434895328283,-1,2,6,5,0,-1,-4,1
1558434895329917,-1,-1,2,2,2,0,-2,-2
1558434895329917,-2,-1,-5,-9,-10,-8,-5,-2
1558434895342994,0,-2,0,2,-2,-2,-1,-2
1558434895342994,0,2,3,22,2,3,2,1
1558434895349129,-3,-2,-3,-20,-4,-1,1,-2
1558434895349129,1,-1,3,8,6,3,-2,0
1558434895364825,-1,-2,-5,-20,-1,-2,-4,-4
1558434895364825,-2,-4,-7,3,-5,-3,-1,-3
1558434895371805,1,0,-5,-3,-6,-6,0,1
1558434895371805,-1,1,-1,2,6,2,1,-1
1558434895388763,1,1,2,5,2,0,-1,0
1558434895388763,-2,-1,-1,-8,-7,-7,-6,-3
1558434895390755,-1,1,1,8,2,0,-3,-2
1558434895390755,2,-1,4,-1,0,2,5,2
1558434895402960,-4,-2,-3,-6,-3,0,-1,0
1558434895402960,0,1,-1,0,2,1,1,-1
1558434895409804,-1,-2,2,6,-2,0,1,-1
1558434895409804,-3,-1,0,3,3,4,-1,-3
1558434895424668,-1,0,-1,-6,-1,-2,-2,0
1558434895424668,-2,-2,-2,-7,-8,-6,-2,-3
1558434895439860,0,-1,-2,1,-2,-3,-4,-3
1558434895439860,-1,-2,3,3,-2,-2,0,-2
1558434895447603,-1,-2,-1,-2,0,2,2,0
1558434895447603,1,0,4,9,1,-1,-2,1
1558434895449598,-2,-4,-6,-8,-2,-1,-2,-1
1558434895449598,-3,-2,-9,-23,-11,-3,-4,-2
1558434895462563,-3,-4,-6,6,1,-1,0,-3
1558434895462563,-1,-1,1,4,2,-1,2,0
1558434895469544,0,-2,2,3,1,3,3,0
1558434895469544,1,0,2,2,3,2,-1,0
1558434895484540,-2,3,2,0,-2,-2,-1,-3
1558434895484540,-1,-1,1,2,0,0,0,-1
1558434895491812,-1,-4,-6,-6,-7,-7,-8,-3
1558434895491812,-2,-2,-4,-7,-15,-13,-7,-3
1558434895508155,3,2,3,9,7,8,5,1
1558434895508155,2,2,3,2,17,13,8,3
1558434895510101,-1,-2,-2,-9,2,3,1,0
1558434895510101,-2,-2,-4,-7,-7,-6,0,0
1558434895523057,-3,-5,-4,-4,-12,-11,-6,-3
1558434895523057,-2,-3,-8,-2,-2,-2,-3,-3
1558434895528960,-3,7,3,11,5,3,0,-1
1558434895528960,-3,-1,-3,2,-5,-3,0,-3
1558434895544738,1,-1,5,7,8,7,2,1
1558434895544738,-2,-5,-8,-21,-11,-5,-2,-1
1558434895551989,1,-3,4,10,3,1,3,2
1558434895551989,0,0,-4,1,5,2,-2,-1
1558434895567897,-4,-1,0,-3,-7,-7,-7,-2
1558434895567897,0,-1,3,6,-4,-3,-2,-1
1558434895569673,1,0,-5,-6,-4,-1,0,0
1558434895569673,-1,0,3,7,8,4,3,1
1558434895581681,0,-3,-2,-3,1,-3,-2,-1
1558434895581681,-4,-4,-6,-3,-5,-5,-5,-4
1558434895590621,-3,-2,-2,-2,-6,0,0,0
1558434895590621,0,0,1,-1,2,3,1,1
1558434895604578,1,2,0,-6,3,-1,1,-1
1558434895604578,-3,-1,1,3,-1,-5,-2,-3
1558434895611562,-1,-1,-3,3,-2,-1,-1,-1
1558434895611562,1,4,3,-5,-6,-2,0,-2
1558434895628753,-2,-5,-4,0,-1,-1,1,-2
1558434895628753,0,-3,-5,-13,-4,1,0,1
1558434895629513,-2,-1,2,9,7,3,-1,-1
1558434895629513,-4,-1,-1,4,1,-1,-4,-4
1558434895641727,-1,-3,-4,-3,-4,-3,-2,-2
1558434895641727,-2,0,1,-5,-2,1,1,-1
1558434895650457,-1,-2,1,5,4,3,-1,-1
1558434895650457,1,1,-2,2,-4,-7,-2,1
1558434895664449,1,2,-1,-5,2,2,1,0
1558434895664449,-2,-1,6,9,0,-3,-3,-2
1558434895672430,-2,-3,-13,-10,-3,-2,-1,0
1558434895672430,-2,-4,0,-14,-3,-1,3,0
1558434895688385,-2,-3,0,7,0,3,1,2
1558434895688385,-1,0,-3,-10,-2,-1,-2,-1
1558434895689354,-2,0,-1,-1,-3,-4,-5,-4
1558434895689354,-1,-2,-3,-1,-6,-5,-3,-3
1558434895702431,-3,-3,-11,-10,-9,-5,-1,-4
1558434895702431,2,1,1,6,10,3,1,2
1558434895710532,2,3,8,2,8,5,4,2
1558434895710532,0,-3,-8,11,8,9,6,2
1558434895725487,0,3,3,-13,-9,-3,-3,1
1558434895725487,0,1,4,4,3,0,-1,-1
1558434895731238,-3,-4,-3,4,-10,-11,-5,-6
1558434895731238,-2,-2,1,-3,-5,-4,-6,-2
1558434895748430,1,5,5,10,10,6,3,0
1558434895748430,-1,-3,-7,-4,0,4,2,-1
1558434895749194,-1,3,-10,-11,3,1,2,1
1558434895749194,-1,-4,-2,14,3,0,0,-1
1558434895762190,0,3,3,-5,-5,-6,-3,0
1558434895762190,-1,-8,-3,-3,1,-4,-1,-1
1558434895770136,-3,2,-4,-8,-13,-7,-5,-3
1558434895770136,-3,-5,-4,-1,-9,-4,-5,-3
1558434895785096,-2,-3,-4,-17,-6,1,1,-1
1558434895785096,-1,-2,-5,1,7,0,-3,-2
1558434895792304,1,0,8,5,4,-1,1,0
1558434895792304,0,2,1,11,3,0,1,2
1558434895808273,0,-2,-2,-3,-4,-2,0,0
1558434895808273,-2,0,-6,-10,-10,-2,-1,0
1558434895809031,0,-5,-1,2,-1,-2,-1,-2
1558434895809031,0,0,-2,-2,-3,-6,-5,-3
1558434895822242,-5,-6,-5,10,-9,-8,-6,-4
1558434895822242,2,1,0,-2,-2,2,3,2
1558434895831005,1,1,5,8,18,13,5,3
1558434895831005,-1,-1,0,-14,-3,2,0,1
1558434895845183,0,1,8,12,6,1,-2,-2
1558434895845183,-4,-4,-5,0,-13,-12,-8,-4
1558434895851950,-2,-6,-6,-10,-3,-6,-2,-3
1558434895851950,0,4,5,9,0,0,0,-2
1558434895866876,1,-2,-8,-4,3,3,1,0
1558434895866876,0,4,4,4,-1,1,-1,0
1558434895873857,-2,-3,-2,-2,-3,-4,-3,-3
1558434895873857,-1,-1,1,-7,-5,-3,-2,-1
1558434895881835,-2,-3,-3,3,-2,-4,-3,-2
1558434895881835,-1,3,3,2,4,4,4,-1
1558434895890813,1,-1,3,5,0,1,0,3
1558434895890813,-3,-3,0,-1,2,-1,3,0
1558434895905113,0,1,-4,-4,0,-1,-1,0
1558434895905113,-5,-5,-4,-6,-8,-7,-6,-5
1558434895912075,-2,-1,-4,-7,-1,-1,0,-3
1558434895912075,-2,-1,-1,-1,-1,1,0,0
1558434895928032,1,1,9,5,9,4,4,2
1558434895928032,-1,-2,-4,3,2,1,-2,-1
1558434895934782,1,0,3,-4,-2,-1,-1,1
1558434895934782,-3,0,5,-5,1,2,-1,-3
1558434895941677,-1,-2,-4,13,0,-2,-3,-3
1558434895941677,1,5,1,-9,-4,-4,-1,2
1558434895950650,-2,0,-3,-8,2,6,3,-1
1558434895950650,-2,-2,-8,3,2,-1,-1,-1
1558434895964666,0,-1,3,-1,6,3,2,3
1558434895964666,-2,-5,-6,-7,-13,-3,-2,-2
1558434895971594,0,1,7,4,0,0,-3,-1
1558434895971594,-1,0,-5,2,8,0,-1,-1
1558434895987551,-3,-5,-8,-10,-15,-11,-5,-5
1558434895987551,0,-1,0,4,-3,-2,-3,0
1558434895994533,0,-1,-2,5,1,2,2,0
1558434895994533,6,3,7,3,10,11,7,5
1558434896002573,-2,-1,-1,0,3,3,1,0
1558434896002573,-2,-3,-9,-4,2,-5,-3,-1
1558434896010624,-2,-4,-3,-9,-13,-7,-7,-4
1558434896010624,-1,-1,5,4,-6,-6,-4,-3
1558434896025504,-2,-1,-3,-16,-8,-5,-2,-1
1558434896025504,-2,1,4,-1,6,5,3,-2
1558434896031771,0,0,2,12,5,-1,-1,0
1558434896031771,-4,-6,-15,-24,-8,-3,1,-2
1558434896047559,0,-1,4,7,5,2,-1,-2
1558434896047559,-2,-1,-2,-3,5,4,0,-1
1558434896054376,-1,-2,-6,-10,-12,-8,-5,-5
1558434896054376,-3,-3,2,9,-1,-2,-2,-1
1558434896070330,-2,-2,0,-4,-4,0,1,0
1558434896070330,-1,-3,-3,-2,3,1,-1,-2
1558434896072356,1,1,1,11,11,6,4,3
1558434896072356,-2,1,-3,-11,-6,-5,-4,0
1558434896085620,-1,-1,-2,-2,0,-1,-3,-3
1558434896085620,0,1,8,9,-4,-4,0,0
1558434896092480,-4,-5,-6,-7,-8,-4,-5,-4
1558434896092480,-1,-2,-1,0,-1,-2,0,-3
1558434896107940,1,1,4,8,7,2,0,-1
1558434896107940,0,-1,3,4,-1,1,2,0
1558434896114743,-2,0,-3,-9,-3,-1,0,1
1558434896114743,1,1,7,7,-2,1,-1,1
1558434896130864,-5,-3,-9,-10,-3,-3,-5,-3
1558434896130864,0,-3,-3,-2,-2,-4,-3,-2
1558434896131547,-2,0,5,5,-2,-1,1,1
1558434896131547,-1,-3,-1,0,2,1,0,-3
1558434896145512,1,2,-3,5,-1,6,5,5
1558434896145512,1,1,-4,-5,5,3,1,2
1558434896153816,0,-2,-4,-5,2,-2,0,0
1558434896153816,0,-1,0,5,0,-1,-3,-2
1558434896167778,-3,-4,1,-3,-6,-8,-5,-2
1558434896167778,-2,-5,-3,-7,-7,-3,-2,-2
1558434896174434,0,3,8,9,-6,0,-1,-2
1558434896174434,2,2,0,3,8,3,2,2
1558434896190711,-1,0,1,0,1,0,0,0
1558434896190711,-5,-6,-12,-15,-6,-2,-2,-2
1558434896192581,-2,-1,-1,4,3,-3,-3,-4
1558434896192581,0,-3,-3,-3,-4,0,0,2
1558434896205663,-1,-3,-2,-3,-1,1,0,-1
1558434896205663,0,0,2,-2,-6,-3,-1,-2
1558434896211651,-3,-3,-6,-6,-3,0,-1,-2
1558434896211651,-1,1,4,9,3,3,1,1
1558434896227609,1,0,0,-2,5,2,0,0
1558434896227609,0,3,0,2,5,1,2,0
1558434896234584,0,-2,-1,-2,-2,-2,0,-2
1558434896234584,-2,-1,0,3,-2,-5,-5,-3
1558434896250541,0,-1,-4,-8,-1,-4,0,-1
1558434896250541,-2,-2,-5,-7,-5,-2,0,0
1558434896252222,1,2,6,10,5,5,2,3
1558434896252222,-2,-4,-15,-18,-5,-3,-1,-3
1558434896265187,0,-1,-2,4,0,-3,1,-1
1558434896265187,-1,0,5,14,-2,-1,-1,-1
1558434896272472,0,-2,0,-8,1,-1,-2,-1
1558434896272472,-3,-6,-9,-16,-11,-4,-3,-2
1558434896287426,-1,2,13,13,0,-4,-2,-1
1558434896287426,-2,-5,-5,-2,0,0,-1,1
1558434896294432,-1,3,0,-8,9,9,3,2
1558434896294432,-2,0,-3,-2,2,3,0,-2
1558434896311367,-2,-3,1,2,-5,-3,-2,-6
1558434896311367,0,-2,0,-3,-3,-1,0,0
1558434896312064,-4,-4,-7,4,-7,-8,-6,-4
1558434896312064,0,1,8,10,2,-4,0,-2
1558434896325341,-4,-5,-13,-21,-12,-1,2,-1
1558434896325341,-1,1,5,0,2,3,1,-1
1558434896332013,0,-1,-10,0,-1,-2,0,0
1558434896332013,0,-2,-4,5,0,-2,-2,1
1558434896348034,0,2,1,-6,2,1,-3,-2
1558434896348034,1,2,0,-2,-3,-3,1,0
1558434896354269,-1,0,8,9,1,0,2,0
1558434896354269,0,2,1,-4,0,0,0,0
1558434896371215,-1,0,-3,0,-1,-1,2,1
1558434896371215,2,0,2,1,7,5,0,0
1558434896371906,-2,0,2,-2,-3,-6,-6,-3
1558434896371906,-2,-2,-6,1,-6,-2,-1,-2
1558434896385262,2,-3,-7,-15,-5,1,-2,0
1558434896385262,1,1,6,14,1,-3,-4,0
1558434896391248,1,-1,-4,-8,-3,4,4,0
1558434896391248,-3,-1,4,0,-5,-2,-3,-1
1558434896407294,-4,-2,-6,7,-6,-5,-3,-3
1558434896407294,-4,-2,-5,-11,-2,-3,-4,-5
1558434896414185,-3,-5,-5,-4,-3,-4,-2,-2
1558434896414185,1,2,8,4,2,-1,0,-2
1558434896430148,-1,-1,-1,4,-1,1,-1,1
1558434896430148,1,-1,-9,-16,1,6,2,1
1558434896437451,-1,-4,-2,2,0,-3,-1,-1
1558434896437451,-1,2,7,1,7,5,4,1
1558434896445453,-2,-1,-5,-1,-3,-4,0,-1
1558434896445453,-2,0,4,3,-7,-8,-6,-2
1558434896452324,-1,-1,-3,-4,-4,-2,-4,-2
1558434896452324,-3,1,0,-11,1,1,-1,-2
1558434896468158,-1,-3,3,18,6,-1,-1,-1
1558434896468158,-1,-1,0,-5,-1,4,3,0
1558434896474345,0,-2,-4,-6,-2,-1,1,1
1558434896474345,-1,-3,-9,-18,-3,-4,-5,-3
1558434896489982,-3,-1,-1,2,0,-5,-2,-1
1558434896489982,-2,-1,-3,3,-3,-5,-5,-1
1558434896491977,-2,-1,5,8,-5,0,-1,-1
1558434896491977,-1,-2,-5,-3,5,9,3,2
1558434896505001,-2,-2,2,-4,1,-1,0,0
1558434896505001,-3,-4,-5,-2,-7,-5,-5,-1
1558434896511945,0,-1,1,-2,3,0,0,1
1558434896511945,-1,-1,-3,3,-1,-1,2,1
1558434896528185,-3,-1,0,-4,-5,-4,-3,-1
1558434896528185,-2,0,3,7,0,-4,-2,-2
1558434896534315,0,-1,-3,-11,0,0,-2,0
1558434896534315,-1,-3,-6,-1,-7,-7,-5,-4
1558434896551273,2,2,3,4,4,5,3,-1
1558434896551273,1,2,1,1,1,0,2,0
1558434896551817,-1,-1,-2,2,-1,-6,-5,-3
1558434896551817,-4,-3,-4,3,-1,3,0,2
1558434896563784,0,3,4,-2,2,8,1,-1
1558434896563784,-1,0,5,15,7,0,1,0
1558434896573158,-2,-4,-10,-17,-13,-1,1,-1
1558434896573158,-1,-4,-6,-1,-10,-10,-5,-4
1558434896588183,-2,-2,-3,-9,-4,-5,-2,-1
1558434896588183,1,4,2,4,10,8,0,1
1558434896595145,0,1,4,11,3,3,4,1
1558434896595145,1,-2,4,-4,1,-1,-3,-3
1558434896610983,-2,-2,-4,-12,-11,-10,-5,-2
1558434896610983,-4,-6,-8,-7,-4,-7,-4,-1
1558434896611932,0,1,4,6,0,-1,-1,0
1558434896611932,-3,-3,-5,-7,-4,-2,0,-1
1558434896624965,0,-3,0,-1,5,4,0,-2
1558434896624965,1,1,2,-4,1,5,5,2
1558434896632900,-1,-1,2,0,0,2,-2,-1
1558434896632900,1,-1,-1,3,-4,-3,-1,1
1558434896647856,-2,-1,-1,1,7,-3,-1,0
1558434896647856,-3,-5,1,0,-7,-6,-5,-4
1558434896654847,-1,-1,-2,4,-4,-2,-3,-2
1558434896654847,0,-1,1,-4,4,0,0,-1
1558434896670527,-2,-3,-2,2,1,2,-1,-1
1558434896670527,-1,-1,-2,1,-6,0,5,0
1558434896671528,3,2,6,12,14,1,0,2
1558434896671528,-3,0,-3,-3,-4,-4,-1,-4
1558434896684493,-1,-4,-4,-6,-4,-7,-5,-3
1558434896684493,-1,-2,0,7,0,2,-2,-2
1558434896693440,-3,-2,-1,-14,0,4,2,-1
1558434896693440,1,0,5,6,2,0,1,1
1558434896707900,0,-1,-1,0,3,5,3,2
1558434896707900,0,-1,-2,-6,-7,-6,-2,1
1558434896714382,-2,0,-10,-8,-7,-6,-3,-1
1558434896714382,-2,-3,-3,-2,-1,-3,-3,-2
1558434896730339,-1,-1,-3,3,-6,-5,-3,-2
1558434896730339,-1,0,2,-3,-1,0,0,-1
1558434896732334,2,0,2,5,5,2,1,-2
1558434896732334,-1,-1,2,6,-3,-2,2,0
1558434896744669,-2,0,-3,-11,1,6,4,2
1558434896744669,1,2,-1,-11,-1,-3,-2,-1
1558434896753282,-5,-6,-13,-11,-10,-9,-5,-3
1558434896753282,1,-1,3,6,-1,-1,-6,-1
1558434896767612,3,1,6,9,12,6,2,1
1558434896767612,0,-2,3,9,12,7,4,2
1558434896774587,-1,2,0,-2,-6,-3,-2,-2
1558434896774587,0,0,-3,-1,-6,-2,0,-3
1558434896790555,-1,-2,-3,2,-6,-5,-4,-2
1558434896790555,0,2,2,-2,2,-1,0,0
1558434896796164,-3,-5,-11,-13,-3,-2,-4,-4
1558434896796164,-2,4,1,7,7,5,3,4
1558434896804523,0,1,1,-4,-3,1,4,1
1558434896804523,-1,-2,-2,6,3,-5,-4,-4
1558434896813118,-5,-6,-4,3,-6,-5,-2,-2
1558434896813118,-1,-2,-2,-2,3,4,1,2
1558434896828159,1,2,5,14,5,5,0,1
1558434896828159,-3,-5,-9,-18,-4,-5,-5,-3
1558434896834070,1,1,1,-9,-2,2,1,2
1558434896834070,-2,1,1,2,8,3,-1,-2
1558434896850366,-2,-2,2,6,-8,-6,-2,-2
1558434896850366,0,-2,-2,1,3,6,0,0
1558434896857004,0,-2,-2,-13,-7,-8,-5,-3
1558434896857004,-3,-5,-6,-12,-11,-4,-4,-4
1558434896864267,-3,1,1,2,3,0,2,0
1558434896864267,-2,-1,-2,-3,-1,0,1,-2
1558434896872959,2,2,3,13,6,2,2,0
1558434896872959,-2,-1,0,-13,-8,-4,-4,-1
1558434896887655,-3,-4,-3,-10,-9,-10,-6,-5
1558434896887655,-1,2,-3,-1,5,4,-1,3
1558434896894317,0,1,6,17,5,5,1,1
1558434896894317,0,-3,-8,-5,-4,-4,-2,0
1558434896910625,1,-1,-10,-13,6,9,1,1
1558434896910625,-2,-3,0,5,-3,-3,0,-5
1558434896917473,0,-2,-1,-11,-1,-1,0,-1
1558434896917473,-3,-2,2,10,-3,-6,-5,-3
1558434896924588,-2,-2,-1,4,-2,-6,-4,-1
1558434896924588,1,2,3,11,-1,-2,-2,0
1558434896933213,-3,-1,-7,-11,-5,2,2,0
1558434896933213,-2,-1,2,-4,1,0,0,-3
1558434896948177,-1,-1,0,2,-3,-3,-1,-2
1558434896948177,-4,0,-6,-7,-7,-2,-3,-1
1558434896954507,1,6,3,3,6,3,0,2
1558434896954507,-1,1,8,10,2,1,0,0
1558434896978444,-2,-5,-8,-5,-7,-6,-2,-3
1558434896978444,0,0,0,-2,4,-1,2,1
1558434896979090,-2,-5,-3,5,-2,-1,-3,-3
1558434896979090,-1,-3,-9,-12,-6,-1,-2,-4
1558434896993391,1,1,-1,-9,-3,0,-4,-1
1558434896993391,0,1,5,9,-2,-4,-2,0
1558434896995099,-1,2,5,-7,2,2,3,2
1558434896995099,-1,-2,-5,-8,-1,-2,-2,1
1558434897007041,-5,-3,-4,2,-6,-4,-4,-6
1558434897007041,-2,-3,-5,-7,-6,-1,-1,-2
1558434897014031,-1,-3,1,7,4,-1,0,0
1558434897014031,2,1,1,0,2,1,3,2
1558434897029953,1,3,5,2,0,2,0,1
1558434897029953,-3,-4,-5,-8,-7,-2,-2,-3
1558434897036934,0,-1,1,3,0,-1,-1,-1
1558434897036934,0,1,3,6,5,3,2,1
1558434897051895,0,-1,2,1,1,-1,-1,0
1558434897051895,-2,1,-3,-5,-2,-4,-2,-2
1558434897053925,-3,-3,-5,-5,-11,-8,-4,-4
1558434897053925,0,-1,0,6,3,2,0,1
1558434897068148,-2,-4,-8,-24,0,2,2,1
1558434897068148,-1,-3,0,4,0,-3,-5,0
1558434897074279,-1,1,2,-3,-11,-7,-4,-2
1558434897074279,1,-3,-3,1,4,2,2,0
1558434897089996,-2,1,5,12,8,5,2,1
1558434897089996,-1,-2,-4,-6,-1,-3,-2,-2
1558434897096272,0,-1,-4,-7,0,-4,-4,-3
1558434897096272,-2,-2,-8,-8,-5,-7,-4,-5
1558434897112230,0,-2,2,6,-12,-5,-2,-1
1558434897112230,1,0,3,1,5,6,3,2
1558434897113227,0,2,5,7,5,3,1,-1
1558434897113227,-3,0,-4,-4,-3,0,-2,-3
1558434897128217,-3,-3,-5,-3,-3,-2,-1,-2
1558434897128217,1,-2,-1,-2,-3,2,-1,0
1558434897134502,-2,-2,1,4,3,2,0,3
1558434897134502,1,0,-1,-3,-2,0,1,0
1558434897149457,-1,-1,-2,-9,0,-1,-4,-2
1558434897149457,-3,-5,-6,9,-6,-3,-5,-4
1558434897157378,-1,-1,0,2,-3,-2,-2,-1
1558434897157378,-3,-1,-2,-5,-7,-6,-1,-3
1558434897180232,-2,1,3,8,6,2,1,1
1558434897180232,1,-2,-7,-21,5,5,3,1
1558434897181195,-1,-2,3,1,2,-1,-2,-2
1558434897181195,-1,0,-1,-5,-7,-4,-5,0
1558434897188059,-1,0,4,13,6,1,1,0
1558434897188059,-1,-2,-3,-5,-8,-4,-2,-1
1558434897194346,-2,-3,-6,-4,-6,0,0,-2
1558434897194346,0,1,4,3,10,5,3,2
1558434897209313,-2,0,-6,1,6,5,1,1
1558434897209313,-2,0,4,3,0,-5,-2,-2
1558434897216299,-3,0,-4,-13,-10,-3,-2,-3
1558434897216299,-1,-4,-4,12,4,2,-2,-3
1558434897233107,2,0,4,-7,-6,-4,0,0
1558434897233107,0,4,1,-9,0,4,5,4
1558434897233107,-1,-4,-3,9,5,-1,-1,-1
1558434897233107,-3,-1,0,-5,-4,-2,-3,-3
1558434897248210,0,-2,-5,-4,-4,0,-4,-1
1558434897248210,-1,-1,2,10,-3,-6,-3,-2
1558434897254205,-2,-2,-6,-3,0,-3,1,-2
1558434897254205,0,1,-2,-4,0,2,1,3
1558434897278095,-1,0,1,-1,6,2,0,0
1558434897278095,-1,-2,1,11,-4,0,-3,-2
1558434897278095,-1,-2,-5,-8,-1,1,-1,2
1558434897278095,0,-3,0,3,-6,-5,-5,-5
1558434897293745,-1,-2,-7,-8,-2,2,3,-1
1558434897293745,-2,-3,1,-1,-2,-5,-5,-4
1558434897294742,0,1,5,7,-1,-2,-3,1
1558434897294742,-1,2,2,2,4,4,4,3
1558434897308062,3,2,2,3,7,3,2,0
1558434897308062,-3,-1,3,1,-4,-3,-1,-3
1558434897313691,1,2,4,4,2,1,-1,-1
1558434897313691,-3,-7,-12,-16,-12,-8,-1,0
1558434897328760,3,3,5,4,3,2,1,3
1558434897328760,-1,1,-4,2,1,0,-1,-1
1558434897336638,-3,-1,3,0,-2,-6,-1,-2
1558434897336638,-2,0,0,1,5,2,-2,-3
1558434897352816,-3,-5,-7,-9,-10,-8,-3,-4
1558434897352816,1,-2,-5,-6,1,-3,-1,-1
1558434897353596,0,1,7,4,4,4,1,1
1558434897353596,-2,-2,-2,2,2,-1,-1,-2
1558434897376529,-3,-2,-6,-11,-7,-5,-2,-3
1558434897376529,0,1,9,8,0,0,1,-1
1558434897376529,-2,-3,-3,1,0,-4,-1,-1
1558434897376529,-3,-4,-9,-3,-2,-1,0,1
1558434897389735,-1,1,5,6,-3,0,0,0
1558434897389735,-2,0,-6,-4,2,2,0,0
1558434897396714,0,1,4,2,3,-1,0,-2
1558434897396714,0,1,6,1,-8,-4,-1,-2
1558434897412667,-4,-4,-7,-9,-4,-1,-3,-2
1558434897412667,0,3,4,14,14,6,3,2
1558434897412667,-1,-4,2,-13,-5,-2,0,-2
1558434897412667,1,1,-4,6,-1,-3,-3,-1
1558434897428020,-2,-1,-2,-5,-5,-5,-3,-1
1558434897428020,-2,-5,-4,-5,-7,-3,-3,-1
1558434897433969,0,0,-5,0,5,2,-1,-2
1558434897433969,1,2,4,-1,-2,-3,1,-2
1558434897449930,2,2,7,9,4,2,1,-1
1558434897449930,1,-1,-1,3,1,0,-1,-1
1558434897456907,-3,-4,-17,-10,-4,0,-1,0
1558434897456907,-2,-2,-1,-16,-7,-3,-2,-1
1558434897472877,-1,-1,-1,7,2,-4,-1,-2
1558434897472877,-3,-1,1,-9,-6,-5,-2,-4
1558434897472877,0,3,1,8,0,1,-2,-2
1558434897472877,-1,0,6,12,7,2,-1,1
1558434897487824,-2,-2,-2,-2,-6,-6,-4,-2
1558434897487824,-1,-1,-1,-5,1,0,-3,0
1558434897494826,1,2,4,18,6,6,4,0
1558434897494826,-4,-4,-14,-21,-2,2,0,0
1558434897509409,-2,-2,3,-4,-1,-1,0,-2
1558434897509409,1,-3,-2,-3,-7,-3,-2,-2
1558434897516425,0,-2,-3,-13,-6,-2,-4,-1
1558434897516425,1,2,12,16,2,-4,-2,-2
1558434897532347,2,3,1,7,3,5,2,1
1558434897532347,-3,-3,-11,-5,-1,1,1,-2
1558434897533656,-5,-4,-8,-4,-3,-5,-4,-2
1558434897533656,1,1,2,10,4,1,0,-1
1558434897548308,-2,-3,1,-13,-4,-1,0,-2
1558434897548308,0,0,0,-4,-13,-8,-2,0
1558434897554641,-2,0,-2,-5,2,1,1,0
1558434897554641,-1,-3,3,-1,-3,2,-3,-3
1558434897570542,-1,-3,-7,-1,3,-3,-1,-1
1558434897570542,-2,-1,1,0,2,1,1,2
1558434897577467,0,2,6,3,-1,0,0,-2
1558434897577467,-1,-1,-11,-7,0,0,0,2
1558434897592190,1,1,5,15,1,2,0,0
1558434897592190,-1,-4,-11,-32,-10,-5,-4,-2
1558434897599530,-1,-3,1,6,-2,-5,-2,-1
1558434897599530,-2,2,2,0,5,5,3,-1
1558434897608144,1,2,4,7,-1,1,0,-1
1558434897608144,-3,-3,-3,7,3,-3,-4,-3
1558434897614433,-1,0,-6,-18,-6,-1,-1,-2
1558434897614433,1,1,3,8,11,4,4,3
1558434897630406,-3,-3,2,-10,-12,-7,-4,-1
1558434897630406,-1,-4,-9,2,-3,-5,-3,-4
1558434897637404,1,-2,0,2,4,3,3,3
1558434897637404,-1,0,5,7,2,4,-2,-1
1558434897653049,-3,-3,-10,-21,-5,-2,-4,0
1558434897653049,-3,-1,4,-3,-3,-3,-1,-1
1558434897653049,-1,1,5,9,3,1,2,1
1558434897653049,0,1,-2,-16,-4,1,-3,0
1558434897667985,-1,-3,-2,12,2,-1,0,0
1558434897667985,1,3,-1,1,-1,1,-1,2
1558434897673971,-4,-4,-8,-10,-10,-5,-3,-3
1558434897673971,-2,-3,5,6,0,-2,0,-1
1558434897690925,-1,-1,-4,0,-3,-3,-5,-3
1558434897690925,0,1,1,2,1,-2,-2,1
1558434897696907,-1,-3,1,1,-2,0,-1,-3
1558434897696907,3,-1,1,-4,-3,-2,-1,-1
1558434897711867,-3,-4,-11,-5,-3,-1,-2,-2
1558434897711867,0,2,6,6,9,3,2,1
1558434897719194,0,-1,0,-2,5,3,0,0
1558434897719194,-3,-3,-4,-4,-9,-6,-4,-4
1558434897728170,1,-1,2,-1,-2,3,3,0
1558434897728170,1,-2,-1,1,0,-4,-3,-1
1558434897734216,-2,-1,-3,-8,-9,-6,-5,-4
1558434897734216,-1,0,-5,3,3,1,-2,-2
1558434897750801,-1,1,1,8,10,9,7,1
1558434897750801,0,-1,5,1,4,6,4,1
1558434897757143,0,-4,-3,0,-7,-2,-2,-1
1558434897757143,-2,-6,-7,-8,-2,-8,-4,-3
1558434897772086,-2,1,-3,-2,-6,-7,-7,-3
1558434897772086,1,2,2,7,5,3,1,-3
1558434897778694,-1,-2,3,-4,-3,-4,1,0
1558434897778694,1,4,6,12,7,7,4,2
1558434897795002,-3,-4,-2,-11,-4,-4,-3,-1
1558434897795002,-5,-5,-12,-19,-9,-5,-3,-3
1558434897795644,-2,-1,-4,5,-2,-2,-4,0
1558434897795644,-2,-4,-4,-2,-8,-5,-4,-4
1558434897810607,3,3,5,9,2,2,1,-1
1558434897810607,3,2,6,9,12,4,0,2
1558434897824868,-3,-3,-10,-16,-10,-4,-3,-1
1558434897824868,-4,-7,-12,-15,-8,-5,-1,-1
1558434897831863,1,0,3,5,7,5,0,0
1558434897831863,-2,-2,-5,0,-11,-5,-2,-1
1558434897839812,-1,-2,-1,5,6,1,-1,0
1558434897839812,1,0,0,-7,-2,1,2,0
1558434897855564,-3,-1,-4,-14,-6,-5,-3,-3
1558434897855564,0,-1,2,-1,2,-1,-4,-1
1558434897855564,-2,-3,-3,2,0,1,-1,-2
1558434897855564,2,2,4,8,0,-1,1,0
1558434897870567,-2,1,2,0,1,0,1,0
1558434897870567,0,3,3,8,7,6,3,2
1558434897876723,0,-2,2,10,3,0,0,-1
1558434897876723,-5,-7,-20,-18,-9,-7,-6,-5
1558434897892388,0,-2,0,3,-2,-3,0,0
1558434897892388,-2,1,2,7,1,-3,-2,-1
1558434897899666,0,0,-3,-10,-9,-5,-2,-1
1558434897899666,-1,-1,1,-12,-4,0,0,-1
1558434897915595,1,-1,-3,-10,0,-1,3,-1
1558434897915595,-4,-4,-9,-3,-5,-5,-3,-4
1558434897915595,0,1,-1,0,-1,-4,-1,-1
1558434897915595,-1,1,4,6,3,0,-1,1
1558434897930284,-2,-2,-1,5,4,1,-2,-1
1558434897930284,0,-2,1,-5,-4,0,0,-4
1558434897936295,-1,-2,4,12,2,0,-4,-1
1558434897936295,-1,2,-2,6,-1,-2,-1,0
1558434897951284,-3,-3,-3,-12,-2,-2,1,-3
1558434897951284,-2,-1,6,5,2,5,3,1
1558434897959262,0,0,-2,8,1,-1,-2,-2
1558434897959262,0,-2,4,-3,0,-1,-1,1
1558434897975570,1,-1,-3,-1,3,-2,-2,-2
1558434897975570,-1,-1,-3,-2,-5,-4,-1,-1
1558434897975570,0,3,5,3,7,3,1,0
1558434897975570,-2,-3,4,10,-8,-4,-2,-3
1558434897997104,0,-1,-3,-10,1,1,-3,2
1558434897997104,-2,0,2,4,0,-1,-1,-1
1558434897998102,0,-1,-5,1,1,1,0,3
1558434897998102,0,1,-4,-2,6,4,2,0
1558434898011067,-1,-2,3,11,3,-1,-1,-1
1558434898011067,-1,-2,-2,-4,-6,-4,-2,0
1558434898019071,2,3,3,-12,-4,-4,-2,-1
1558434898019071,-4,-4,-8,-11,-7,-6,-3,-2
1558434898035029,2,1,-1,3,-2,3,0,0
1558434898035029,-1,-4,-4,3,0,-2,-2,1
1558434898035029,-1,-1,0,-9,0,1,2,-2
1558434898035029,-1,-2,-2,-3,-1,2,-1,-3
1558434898050959,-2,2,4,10,0,-2,0,-2
1558434898050959,0,2,-1,-4,-2,-2,-1,-1
1558434898057001,-3,-2,-2,-4,-3,-2,-1,-1
1558434898057001,0,1,4,7,2,1,2,2
1558434898071906,-2,-5,-5,0,-4,-6,-4,0
1558434898071906,0,-5,-14,-19,-3,3,1,-1
1558434898078884,-2,-2,-2,-5,1,0,-3,-1
1558434898078884,1,2,4,2,-1,-1,-3,-4
1558434898094842,-3,-4,-1,4,-7,-6,-4,-2
1558434898094842,3,2,5,5,7,3,3,4
1558434898095839,0,-1,-3,-10,1,4,2,2
1558434898095839,-1,-3,-3,-2,-2,-2,0,0
1558434898110802,-1,-3,-3,-3,-5,-1,-1,0
1558434898110802,-2,-1,1,0,-4,-4,-4,-2
1558434898116784,-1,3,0,10,0,-1,-3,-3
1558434898116784,-1,-2,2,-1,0,0,-3,0
1558434898131744,-1,0,-4,-7,-3,-2,-1,-2
1558434898131744,-2,-6,-4,-4,-8,-2,-1,-1
1558434898138725,-1,0,0,0,7,4,3,-1
1558434898138725,-2,-2,-12,-15,-9,-3,-2,-2
1558434898154694,2,3,6,7,10,4,0,2
1558434898154694,-1,-3,-1,-7,-2,-5,-2,-2
1558434898155681,-2,-1,3,4,-2,-5,-2,0
1558434898155681,-4,-2,-2,4,1,-2,1,-1
1558434898170639,-2,0,0,0,-1,-1,0,0
1558434898170639,-2,1,1,4,-2,-3,-3,-2
1558434898176626,1,-1,-5,-11,-3,-3,-3,-1
1558434898176626,1,-1,-1,1,4,5,1,1
1558434898191595,-1,0,6,13,2,0,-2,-1
1558434898191595,-3,-2,-7,-15,-12,-5,-2,0
1558434898198568,-2,-4,-1,10,3,-2,-1,-1
1558434898198568,2,0,6,7,4,1,-2,0
1558434898214524,0,-2,-9,-17,-5,0,0,-1
1558434898214524,1,1,5,10,5,0,0,-1
1558434898215521,-3,-1,1,1,-8,-5,-3,-3
1558434898215521,-1,-3,-6,-10,-7,-2,0,1
1558434898230479,-1,0,6,18,9,5,0,1
1558434898230479,-2,-1,-1,-5,-5,-1,-3,-2
1558434898236494,1,-2,-3,0,-3,1,4,0
1558434898236494,-2,2,-1,0,12,4,0,0
1558434898251433,0,-3,-8,-2,-6,-3,1,-2
1558434898251433,0,0,-2,-16,-2,-2,-4,-3
1558434898259412,-2,-2,-1,-7,-2,-3,-3,-2
1558434898259412,-2,0,1,3,-4,-4,-1,-2
1558434898274362,-1,-2,-1,7,2,1,2,0
1558434898274362,-1,2,2,0,4,3,2,1
1558434898275360,-4,-4,-10,-11,-5,-2,-4,-2
1558434898275360,0,-2,6,23,3,-4,-2,-2
1558434898290318,-1,-1,-6,-24,-9,-5,-4,-2
1558434898290318,0,-2,2,12,3,3,0,-1
1558434898296306,0,-1,-3,-4,-1,1,-1,1
1558434898296306,0,0,0,0,0,0,0,-1
1558434898311268,1,0,1,-1,-5,-3,-2,-1
1558434898311268,0,-1,-3,0,0,1,1,-4
1558434898319242,1,-1,1,5,4,1,0,0
1558434898319242,1,4,3,-8,-6,-2,-1,0
1558434898334202,-2,0,-3,-5,-4,-2,-1,0
1558434898334202,-4,-2,-2,0,1,-2,-1,0
1558434898335199,1,0,2,8,2,2,-1,-3
1558434898335199,-1,2,9,3,3,0,0,0
1558434898350174,-2,-3,-6,-5,-2,-2,-3,-1
1558434898350174,-3,-4,-5,-2,1,-1,1,2
1558434898356142,0,1,-1,-1,2,-1,-2,0
1558434898356142,0,-2,6,0,-3,0,-2,-1
1558434898371108,-3,3,-9,-7,-3,-3,0,3
1558434898371108,-3,-5,-8,10,1,0,-3,-9
1558434898379089,3,4,8,13,5,2,2,0
1558434898379089,-3,-5,-11,-24,-8,-6,-3,-4
1558434898395039,1,5,10,-1,-1,0,-1,-1
1558434898395039,1,2,-2,-4,-4,-1,1,2
1558434898395039,-3,-4,-2,1,-3,-1,0,0
1558434898395039,2,1,-4,5,1,1,0,1
1558434898410000,1,-3,-3,-1,2,-2,2,0
1558434898410000,-1,-1,2,4,0,0,-2,-1
1558434898416983,-2,-4,-5,-16,-1,-3,-2,-4
1558434898416983,0,1,6,4,0,0,1,-1
1558434898431941,-2,0,-5,-6,-5,-2,-1,-3
1558434898431941,0,-3,2,-1,0,0,-1,0
1558434898438922,-3,-1,1,12,2,1,0,1
1558434898438922,-4,-2,-8,-11,-3,0,1,0
1558434898454879,-1,-4,-3,0,-3,-1,-4,-2
1558434898454879,-1,2,4,4,2,-2,-2,-1
1558434898455876,-1,-2,-9,-13,-3,-2,0,-1
1558434898455876,1,0,7,5,1,0,-1,0
1558434898470838,0,0,5,15,4,0,-4,-5
1558434898470838,-3,-6,-9,-12,-9,-4,-2,-3
1558434898476828,-1,-3,8,4,-2,0,0,1
1558434898476828,-1,-5,-9,-4,-4,-2,-5,-3
1558434898491787,-2,2,4,-2,1,0,0,0
1558434898491787,-1,1,1,10,6,2,-2,2
1558434898498763,-2,-1,-3,-5,-3,-4,-2,-4
1558434898498763,-3,-2,-6,-2,-3,-1,0,-2
1558434898514722,0,-4,1,-10,-2,0,0,0
1558434898514722,-1,-2,-1,-8,-4,-6,-4,-3
1558434898515716,-1,-2,-5,-4,-6,-4,-2,-1
1558434898515716,1,0,-1,4,2,5,1,0
1558434898530678,-1,-3,0,2,8,6,1,-1
1558434898530678,2,-2,1,4,2,0,5,2
1558434898536661,-1,-2,-3,-3,-1,-3,-3,-1
1558434898536661,-3,-4,-4,1,-6,-7,-4,-2
1558434898551620,0,0,3,-1,-4,-3,2,-2
1558434898551620,-1,1,3,2,0,2,2,1
1558434898559602,-4,-3,-2,-3,-2,-1,-1,-2
1558434898559602,-1,-3,-2,1,-2,-1,-1,0
1558434898574570,0,-3,-6,-4,-2,-2,-3,-1
1558434898574570,2,1,6,3,2,-2,-6,0
1558434898575563,-2,0,-3,-5,-7,-3,3,-1
1558434898575563,-1,3,4,-3,3,0,1,3
1558434898590524,-2,-4,-4,6,3,2,3,-1
1558434898590524,1,2,7,2,-6,0,-2,-2
1558434898596518,-1,-4,-15,1,4,1,-1,-1
1558434898596518,3,1,0,7,0,-1,-2,0
1558434898611471,-3,-5,-10,-32,-9,-3,0,-1
1558434898611471,0,1,-1,-7,4,3,1,0
1558434898619442,1,0,11,17,3,-1,-4,-2
1558434898619442,-2,-3,-2,-10,-3,-4,-4,-4
1558434898634399,-2,-1,-3,6,0,1,1,-1
1558434898634399,-1,-3,-3,-20,-3,1,-2,-1
1558434898641383,-2,-1,4,1,-4,-3,-4,-1
1558434898641383,-3,-2,0,-3,-2,-1,1,-3
1558434898650362,0,3,4,2,3,3,2,1
1558434898650362,-1,-3,-3,-3,-6,-6,-2,-3
1558434898656351,-1,0,-1,-3,-8,-5,-2,-2
1558434898656351,-2,1,13,17,-1,0,-2,-1
1558434898671302,1,-2,-6,-6,7,6,-1,3
1558434898671302,-4,0,-5,3,11,8,8,0
1558434898679285,0,1,5,9,4,0,-6,-4
1558434898679285,-3,-4,-11,-13,-10,-8,-3,-2
1558434898694238,-2,-3,-2,-23,-20,-10,-3,-1
1558434898694238,-1,-3,3,19,8,3,-1,0
1558434898701221,-2,-3,-13,-22,-2,7,5,2
1558434898701221,2,1,0,-1,6,4,0,1
1558434898710330,-1,0,8,14,-2,-5,-1,-2
1558434898710330,-2,-3,-2,5,-8,-4,-7,-3
1558434898716315,0,1,8,9,2,-3,-2,1
1558434898716315,-3,-3,-8,-8,0,1,6,-1
1558434898733268,0,-1,0,-1,4,4,-1,-4
1558434898733268,1,0,0,-9,-3,-1,0,-2
1558434898739253,-1,2,-4,-2,2,4,4,0
1558434898739253,-1,-1,0,-3,-5,-6,-6,-3
1558434898754211,-5,-1,-2,11,1,-5,-6,-4
1558434898754211,-2,-2,-3,-2,-9,-8,-2,-1
1558434898761194,1,-2,-6,-8,-5,-2,-1,0
1558434898761194,-2,-3,-5,-12,-1,0,-1,1
1558434898770258,-2,-4,-9,-7,-4,-5,-1,-2
1558434898770258,1,0,0,7,4,2,0,1
1558434898776153,0,0,6,6,9,3,2,-1
1558434898776153,0,-1,-6,-10,-2,0,1,-1
1558434898793111,-1,0,2,6,-5,-3,1,-1
1558434898793111,-3,-4,-9,-9,-6,-2,1,0
1558434898799094,2,3,3,3,9,0,-2,0
1558434898799094,-1,2,4,6,0,-4,-5,-5
1558434898814058,-1,0,-4,-2,-8,0,1,-1
1558434898814058,-2,-1,-3,1,3,2,3,0
1558434898822042,-1,-1,3,7,1,4,2,0
1558434898822042,0,0,0,2,5,4,0,1
1558434898837051,-3,-3,-4,-11,-9,-11,-7,-2
1558434898837051,0,1,-1,-7,-11,-7,-5,0
1558434898837989,-1,-1,-1,-2,-4,0,0,3
1558434898837989,2,0,3,10,8,3,0,1
1558434898852948,2,-1,2,5,6,6,6,-1
1558434898852948,2,0,1,-3,-3,4,2,1
1558434898858932,-2,0,-2,-9,-4,-3,-2,-4
1558434898858932,-1,-3,1,9,6,3,2,1
1558434898873951,2,0,-2,-5,-5,-3,-3,0
1558434898873951,-4,-2,-7,-6,3,1,-2,-2
1558434898881873,2,-2,0,3,1,1,1,-1
1558434898881873,-3,-2,-5,-4,-9,-6,0,-1
1558434898896830,0,0,2,9,-1,-4,-5,0
1558434898896830,-4,-4,-2,-4,-9,-12,-6,-4
1558434898897829,-3,-2,-4,-10,-8,-7,-7,-7
1558434898897829,2,-2,-2,1,4,10,3,0
1558434898912791,6,9,7,11,20,16,15,10
1558434898912791,0,-1,-2,-3,-2,-1,-6,-2
1558434898918773,-3,-4,1,1,-9,0,12,2
1558434898918773,-3,-2,-9,-6,0,-10,-19,-9
1558434898933732,-4,-6,-5,-3,-10,-14,-4,-6
1558434898933732,2,0,1,-2,-2,-5,-2,-1
1558434898941712,1,-1,-2,2,5,7,2,3
1558434898941712,-3,-1,1,-2,-1,9,5,-3
1558434898957685,-2,1,0,-1,1,-1,-7,-5
1558434898957685,-1,1,0,3,15,4,2,-1
1558434898957685,0,1,2,5,4,2,-1,0
1558434898957685,1,7,1,2,0,4,6,5
1558434898972630,-4,-5,2,10,1,-5,-6,-1
1558434898972630,-7,-12,-21,-39,-34,-20,-11,-8
1558434898979617,-1,-2,-1,-2,-2,-3,-6,-2
1558434898979617,-2,-2,-4,-2,3,5,2,-2
1558434898993572,0,-2,-4,-1,-1,5,6,0
1558434898993572,2,1,1,15,25,15,8,3
1558434899001550,1,1,4,9,-1,-10,-6,-1
1558434899001550,-2,-5,-9,-17,-22,-19,-3,-1
1558434899017508,-4,-3,-2,-3,-18,-4,-10,-5
1558434899017508,-2,0,3,-3,8,6,-1,-4
1558434899017508,2,6,0,5,20,11,8,5
1558434899017508,1,-2,2,7,1,1,2,4
1558434899032468,-2,8,3,0,-2,-7,-11,-6
1558434899032468,-2,1,0,7,-6,-2,3,1
1558434899039449,-4,-7,-5,-7,-8,-5,-13,-7
1558434899039449,2,-1,1,0,9,2,-1,-2
1558434899054410,0,-2,-4,-14,-7,6,11,7
1558434899054410,3,1,8,14,20,14,0,0
1558434899061391,-2,0,-1,-2,-12,-6,10,0
1558434899061391,-3,-4,-2,-3,-12,-9,-12,-6
1558434899077350,-2,-3,-1,0,6,0,-2,-3
1558434899077350,-4,2,0,2,-6,-7,-4,-4
1558434899078344,-3,-4,-9,-20,-20,-11,-4,-3
1558434899078344,3,5,3,6,5,4,3,1
1558434899093305,5,7,2,5,18,21,10,5
1558434899093305,-1,-10,1,5,4,1,0,2
1558434899099289,1,4,2,-2,0,-1,-1,-1
1558434899099289,-5,-6,-6,-2,-15,-10,-9,-8
1558434899114249,-2,-3,-5,1,-4,-11,0,-3
1558434899114249,4,5,2,-3,0,7,5,7
1558434899121231,-3,-4,-2,-4,0,2,-5,-2
1558434899121231,-5,-5,-3,-3,-7,-16,-4,-4
1558434899137206,-2,0,-1,2,2,-2,-3,0
1558434899137206,-1,3,1,0,3,12,1,-3
1558434899138185,3,0,-5,-7,7,2,8,5
1558434899138185,0,-5,4,2,-4,-2,3,2
1558434899153145,-3,-2,-5,-5,2,-1,-6,-3
1558434899153145,-4,-3,-2,-1,-14,-11,-7,-5
1558434899159129,-3,2,-4,-7,2,3,-8,-5
1558434899159129,1,5,2,2,8,4,14,9
1558434899174090,1,-1,3,0,-2,-4,-2,7
1558434899174090,2,2,-5,-3,-2,-2,0,-5
1558434899181090,-4,-4,-4,-1,-15,-10,-13,-6
1558434899181090,-6,-13,-4,-1,-11,-9,-1,-4
1558434899197033,3,4,5,5,28,22,9,7
1558434899197033,0,1,4,6,5,5,5,0
1558434899198025,1,-1,0,-3,4,0,7,5
1558434899198025,-4,4,-5,-9,-7,-2,-13,-7
1558434899212985,-5,-6,-5,-8,-23,-22,-12,-8
1558434899212985,0,-1,3,4,-9,-12,0,2
1558434899218968,1,2,1,4,15,12,1,1
1558434899218968,-3,-2,-2,-4,-2,2,3,0
1558434899233928,-1,-3,-3,-3,1,-1,-2,-2
1558434899233928,-4,-4,-4,-15,-8,-4,-4,-3
1558434899241907,-1,-2,-3,3,-7,-6,3,2
1558434899241907,2,4,2,5,15,14,-2,-1
1558434899256868,-4,-7,0,-2,-12,-16,-8,-6
1558434899256868,1,1,-1,0,9,6,4,5
1558434899257865,-2,0,3,6,1,-1,-6,-2
1558434899257865,3,1,2,0,7,5,4,2
1558434899272827,-2,5,1,-2,-2,7,1,-4
1558434899272827,-3,-7,-6,0,-11,-15,-6,-3
1558434899278812,1,-2,1,5,7,5,0,-2
1558434899278812,0,3,2,0,-7,-5,-1,-1
1558434899293774,0,-6,-2,1,-1,-3,-3,-1
1558434899293774,-2,-1,-10,-24,-5,-8,-5,-3
1558434899301749,-2,-3,-2,8,-6,-3,3,0
1558434899301749,2,3,2,6,12,10,1,0
1558434899316713,2,2,3,5,10,8,8,4
1558434899316713,-2,-3,0,-2,-9,-10,-8,-4
1558434899317704,-3,-5,-3,-9,-23,-20,-9,-8
1558434899317704,0,-1,-2,-6,-1,-2,0,-2
1558434899332665,5,3,4,12,19,23,15,9
1558434899332665,2,0,0,6,4,2,-4,-2
1558434899338650,-3,-2,1,-5,-9,-6,-3,-1
1558434899338650,-1,0,2,-2,-5,-12,-1,-1
1558434899353620,-6,-3,-8,-7,-15,-11,-11,-8
1558434899353620,0,-5,-10,-10,-5,2,3,1
1558434899361587,2,1,1,2,11,7,2,2
1558434899361587,2,3,3,1,1,6,2,3
1558434899377546,-4,-8,-4,-5,-11,-18,-6,-3
1558434899377546,-4,-1,3,7,-3,1,-5,-4
1558434899377546,-1,-1,-1,-3,2,0,-3,-5
1558434899377546,-2,-4,-6,-15,-11,-5,-9,-6
1558434899392506,2,3,5,4,0,1,1,2
1558434899392506,1,2,0,11,12,8,6,5
1558434899398489,-1,-1,-1,2,0,-2,-3,-2
1558434899398489,0,-2,-3,-2,-2,0,3,-1
1558434899414447,-5,-1,0,-12,-21,-18,-13,-8
1558434899414447,-1,-3,-3,-7,2,1,5,3
1558434899421428,2,0,2,13,17,11,11,7
1558434899421428,0,0,-2,3,4,3,-3,-1
1558434899437385,-3,-3,-12,-9,-8,-4,-2,-4
1558434899437385,-4,-3,2,-14,-21,-14,-13,-8
1558434899437385,1,-1,-6,-5,8,3,4,2
1558434899437385,-1,2,6,11,12,12,9,6
1558434899453343,1,-2,0,0,3,5,-1,0
1558434899453343,-2,1,2,7,-5,-6,-7,-7
1558434899459326,-3,-2,-4,-14,-18,-14,-8,-4
1558434899459326,-1,-4,-1,-1,4,3,4,3
1558434899474286,0,1,-1,3,19,16,7,3
1558434899474286,0,2,8,13,0,0,0,0
1558434899481291,1,0,-2,-5,0,-4,0,-1
1558434899481291,-2,-3,-2,0,-3,-4,-3,-2
