timestamp,emg1,emg2,emg3,emg4,emg5,emg6,emg7,emg8
1558434941400468,-1,2,3,14,4,2,4,1
1558434941400468,1,4,4,-9,1,6,2,1
1558434941401465,0,1,-4,-6,3,3,0,-1
1558434941401465,0,-2,-6,-7,-2,-5,-2,-1
1558434941407450,-2,1,3,0,-9,-9,-5,-4
1558434941407450,0,0,-1,4,-7,-7,-2,-2
1558434941407450,1,-1,3,10,7,6,1,4
1558434941407450,-3,0,-4,-5,-5,-4,-2,-2
1558434941412436,0,-5,1,3,5,2,1,-1
1558434941412436,0,0,8,4,3,2,0,-2
1558434941422409,0,1,5,9,1,3,5,0
1558434941422409,1,-3,-8,-13,-2,-2,-3,-2
1558434941429390,-1,-2,-3,-5,-9,-7,-3,-2
1558434941429390,-1,-3,0,-8,-3,-2,-2,0
1558434941443353,-3,-5,-15,-6,1,1,-4,-2
1558434941443353,-1,0,2,6,1,-2,-1,-1
1558434941451332,2,2,-6,-4,7,9,7,4
1558434941451332,-1,-3,6,11,1,-3,-3,-2
1558434941457316,-1,0,4,-6,-9,-9,-6,-4
1558434941457316,-4,-2,-6,-10,-11,-5,-2,-3
1558434941473273,-1,1,2,3,4,-1,-5,-4
1558434941473273,-1,1,0,0,0,3,2,2
1558434941481251,-3,-7,-8,-5,1,-3,0,-1
1558434941481251,1,1,5,3,-1,0,-2,-1
1558434941521145,-1,-2,-2,0,-12,-8,-3,0
1558434941521145,2,1,4,9,8,6,5,2
1558434941522142,2,3,4,8,10,10,6,1
1558434941522142,0,0,-4,-12,-1,2,1,-1
1558434941522142,0,3,4,9,2,-2,-1,-2
1558434941522142,-6,-5,-8,0,-5,-10,-8,-6
1558434941526132,-4,-3,-5,-18,-16,-10,-8,-3
1558434941526132,-2,-3,-7,-7,-5,-1,-3,0
1558434941532116,0,-1,6,17,6,1,-2,-3
1558434941532116,-1,-4,-14,-18,-10,-3,-2,-4
1558434941541091,-1,-3,-7,-10,1,0,2,-1
1558434941541091,1,0,0,2,3,0,0,0
1558434941548073,0,0,2,1,1,3,3,1
1558434941548073,-1,0,2,-4,2,2,1,1
1558434941563033,0,0,1,9,2,-1,-1,-1
1558434941563033,-3,-2,-1,-2,-7,-5,-2,-2
1558434941570015,0,1,0,-7,-4,-2,0,-1
1558434941570015,-2,-1,1,17,5,1,0,-1
1558434941577994,-1,-1,-2,-1,-7,-3,-3,-3
1558434941577994,0,-1,5,1,0,-1,0,-1
1558434941592954,-2,-2,-8,-9,-1,-2,-2,2
1558434941592954,-1,-3,-1,0,-5,-6,-4,0
1558434941599934,-3,-3,0,2,-7,-3,-3,-1
1558434941599934,2,1,3,12,12,4,-1,-2
1558434941608910,-1,-2,0,-8,-3,5,0,1
1558434941608910,-1,-1,0,-4,-5,-2,1,1
1558434941622874,-2,1,1,0,3,0,-2,-2
1558434941622874,-2,0,2,-3,-4,-2,-1,-3
1558434941629853,-3,-2,-6,-7,-8,-4,-4,-3
1558434941629853,1,0,3,5,5,6,0,-1
1558434941637833,3,4,5,8,12,7,6,5
1558434941637833,-2,-4,-5,2,2,-3,0,-1
1558434941652793,-2,-1,-7,-22,-9,-5,-3,-4
1558434941652793,0,-4,-5,0,-7,-2,-2,0
1558434941659775,2,1,5,-6,-2,4,2,1
1558434941659775,1,-1,3,4,4,4,1,0
1558434941668750,-2,-3,-2,9,1,-3,-4,-2
1558434941668750,-2,0,0,-5,-5,-6,-5,-4
1558434941683710,1,3,10,5,0,2,1,0
1558434941683710,-1,-2,-14,-3,3,3,1,1
1558434941689694,0,-1,2,9,1,-2,-3,-1
1558434941689694,-3,-3,-8,-42,-11,-1,0,0
1558434941697673,-1,0,4,13,2,-5,-2,0
1558434941697673,-3,-4,-11,8,-8,-6,-4,-2
1558434941712633,1,2,0,4,8,4,1,1
1558434941712633,-3,-2,-1,-2,-3,-3,-1,-1
1558434941720614,-1,3,3,4,3,1,0,0
1558434941720614,-2,-1,1,-16,-9,-5,-2,-1
1558434941728595,-2,-4,-12,-5,-2,-4,-1,-3
1558434941728595,1,3,5,5,3,5,4,1
1558434941743551,-5,-10,-5,5,-6,-5,-3,-3
1558434941743551,1,2,6,13,1,0,-2,0
1558434941750531,1,-1,0,-2,8,3,0,2
1558434941750531,-2,-1,7,8,-2,-2,-3,0
1558434941757514,1,-3,-8,10,5,3,1,0
1558434941757514,-1,-1,-1,-4,-3,3,3,-1
1558434941772472,-3,-1,-2,-18,-6,-1,-3,-1
1558434941772472,0,1,2,9,3,-5,-4,-3
1558434941780451,-4,-4,-1,8,-3,-4,-1,-2
1558434941780451,2,1,1,-8,5,6,6,4
1558434941789427,4,5,9,1,6,4,4,4
1558434941789427,-3,-3,-2,5,1,-1,-2,-1
1558434941803391,-2,-5,-2,4,-6,-7,-6,-6
1558434941803391,2,6,15,8,5,1,-1,-1
1558434941810372,-5,-4,-9,-22,-6,2,-1,-3
1558434941810372,-2,-1,-1,5,-10,-11,-8,-4
1558434941817353,-2,-3,-9,-21,-2,-2,-2,-1
1558434941817353,-3,-5,-9,-13,-8,0,0,1
1558434941832313,-1,-2,0,3,2,0,0,-2
1558434941832313,3,0,2,1,-2,2,3,1
1558434941840295,1,0,0,-2,-5,-6,-6,-2
1558434941840295,2,0,11,21,2,-7,-4,-3
1558434941849268,-3,-3,-12,-30,-14,-8,-3,-4
1558434941849268,-2,0,-7,-9,-8,-8,-4,-4
1558434941863231,0,1,3,2,-4,4,3,2
1558434941863231,-1,1,-7,5,33,26,11,4
1558434941870211,3,1,9,20,4,3,3,2
1558434941870211,-1,-2,-3,3,7,3,0,0
1558434941886169,0,1,-7,-27,-13,-12,-5,-3
1558434941886169,-4,-5,4,15,-11,-14,-9,-5
1558434941892153,-3,-8,-9,-9,-11,-6,-2,-1
1558434941892153,-2,-4,-9,-5,1,1,0,1
1558434941901128,1,-2,5,8,3,-1,-3,-1
1558434941901128,-2,-6,-12,-11,-11,0,-4,-4
1558434941907113,0,4,10,11,6,-1,-4,-2
1558434941907113,-2,-2,-2,2,1,1,3,2
1558434941923069,1,3,-2,1,9,9,6,-1
1558434941923069,-1,-2,3,-2,-3,-3,1,-2
1558434941930051,2,1,0,11,1,-2,-1,-1
1558434941930051,0,1,1,-18,-9,-3,0,0
1558434941946009,-2,-3,-1,10,4,0,-4,-1
1558434941946009,-4,-3,-12,-29,-13,-9,-7,-3
1558434941952990,-2,0,-1,10,0,1,3,-1
1558434941952990,-1,-4,-4,-10,1,4,2,0
1558434941960968,-2,0,-1,0,7,4,4,3
1558434941960968,2,5,8,10,3,-1,0,1
1558434941967951,-4,-6,-5,2,-4,-3,-3,-5
1558434941967951,-3,0,1,3,-1,-1,-2,-1
1558434941982911,-2,-3,-5,-1,-5,-6,-1,-1
1558434941982911,0,-1,-2,-15,-16,-8,-4,-1
1558434941989891,0,0,3,9,6,4,1,1
1558434941989891,1,0,-6,-5,2,5,2,0
1558434942005848,-1,-4,-3,5,1,-1,-3,-2
1558434942005848,-4,-4,-6,-24,-11,-7,-4,-3
1558434942012831,0,0,3,8,7,3,2,0
1558434942012831,0,1,1,6,4,3,-2,0
1558434942020809,-1,-1,2,3,-4,-2,-1,1
1558434942020809,-3,-3,-8,-9,-2,-2,-1,-3
1558434942027791,0,1,4,2,-9,-8,-4,-1
1558434942027791,-1,-2,2,4,2,5,2,0
1558434942043747,1,0,-6,-10,1,3,1,-1
1558434942043747,1,0,4,7,5,5,3,2
1558434942049731,0,1,0,-4,-4,-2,-1,0
1558434942049731,-1,2,4,17,3,-7,-5,-2
1558434942065689,0,-1,-3,-12,-5,-5,-3,-3
1558434942065689,-2,0,0,8,1,-2,1,-1
1558434942072670,2,-2,-7,-21,0,6,2,0
1558434942072670,0,-2,4,5,-8,-5,-3,-3
1558434942079651,-1,-5,2,7,-2,2,-3,-1
1558434942079651,-1,-2,-8,-3,3,-2,-2,1
1558434942088628,-3,-1,-2,6,-4,-5,-4,-3
1558434942088628,-1,2,2,-10,-3,-3,-3,-1
1558434942103586,-1,3,0,-13,-1,-1,0,0
1558434942103586,0,-1,0,9,-2,3,2,0
1558434942110568,-3,-2,2,0,-2,-2,-1,-1
1558434942110568,-1,-1,5,18,5,-1,4,-1
1558434942133507,-3,-2,-2,-9,-1,0,0,-1
1558434942133507,0,2,4,-6,-2,3,-1,0
1558434942135503,1,0,-3,2,-3,-5,-1,-1
1558434942135503,-1,-3,-4,-5,-2,-6,-3,-2
1558434942140488,-1,0,-2,-4,-2,5,2,0
1558434942140488,-2,-4,-1,7,2,-4,-3,-1
1558434942149464,1,1,5,18,16,10,3,3
1558434942149464,0,-1,3,-9,-13,-2,-1,0
1558434942163427,0,0,-1,-7,-5,-6,-2,-1
1558434942163427,0,-1,-4,5,3,4,-1,0
1558434942170409,-3,-5,-8,-9,-11,-9,-2,-4
1558434942170409,2,4,2,10,13,4,3,2
1558434942185369,-2,-1,-3,-5,-3,-3,-1,-1
1558434942185369,-1,2,2,3,-7,-6,-6,-1
1558434942192350,-2,-1,5,6,-2,0,-2,0
1558434942192350,0,-3,-1,-4,-3,-3,-1,-4
1558434942200329,0,0,-1,0,-1,0,-1,-2
1558434942200329,-1,-3,-4,-6,4,-2,-1,-2
1558434942215288,-3,-3,-2,2,3,-1,0,-1
1558434942215288,-3,-3,-8,-14,-8,-2,-3,-2
1558434942223267,-1,1,7,12,7,-1,-1,0
1558434942223267,-5,-4,-8,-7,-5,-3,-1,-4
1558434942230248,1,0,3,5,4,7,4,2
1558434942230248,1,3,-3,2,8,5,1,3
1558434942246206,-1,-3,-1,2,-7,-9,-6,-4
1558434942246206,-1,-1,1,-5,-10,-5,-4,-2
1558434942252190,3,-1,0,-6,-1,2,0,-2
1558434942252190,2,1,3,4,7,1,2,-1
1558434942260168,0,0,1,11,3,3,5,2
1558434942260168,-2,-1,-4,-10,-3,-8,-5,-2
1558434942275128,-4,2,5,5,-6,-4,-6,-2
1558434942275128,0,0,3,9,2,4,2,1
1558434942283108,-1,-1,-2,-9,1,2,-1,-1
1558434942283108,-1,-3,1,5,-2,-7,-3,-4
1558434942291086,-2,-4,-5,-8,-1,-5,-1,-2
1558434942291086,-1,-2,-1,-9,1,7,5,3
1558434942306045,-1,-2,2,0,-5,1,2,-2
1558434942306045,3,2,-4,4,3,3,2,1
1558434942313026,-2,-3,-4,-11,-9,-7,-7,-2
1558434942313026,-4,-3,-2,-3,-3,-8,-6,-6
1558434942320010,-3,-3,-4,0,-3,-2,-3,-2
1558434942320010,1,4,8,0,2,7,4,3
1558434942334968,-2,-4,-10,-2,9,1,1,-2
1558434942334968,-1,-1,1,0,0,0,0,0
1558434942342947,-2,-2,4,6,4,1,-1,-5
1558434942342947,-2,-2,-5,-21,-11,-2,-3,-1
1558434942349929,-3,-1,0,5,2,0,2,2
1558434942349929,0,-1,4,-1,5,0,-2,1
1558434942365885,-1,-2,-11,-9,-10,-5,-3,1
1558434942365885,-1,-2,7,10,3,1,1,-1
1558434942372866,0,-2,-1,-5,-3,-2,-3,-3
1558434942372866,-2,-2,-4,-8,-4,-6,-5,-4
1558434942379849,0,-2,-1,-8,-11,-4,-3,-1
1558434942379849,-3,-5,-4,-1,6,2,1,0
1558434942395804,3,4,4,5,11,7,4,3
1558434942395804,-1,-2,-5,-5,-11,-5,-2,-2
1558434942402786,-3,-3,-3,-5,0,-2,-3,-2
1558434942402786,-2,1,4,9,-2,-6,-2,0
1558434942409769,-2,0,-1,-4,-4,-10,-8,-4
1558434942409769,0,1,5,6,2,4,1,2
1558434942425725,1,0,-9,-7,4,2,3,1
1558434942425725,-2,-3,-2,-1,6,5,4,-2
1558434942440687,0,2,6,6,-1,-5,-1,-2
1558434942440687,-2,-3,-5,1,-4,-3,-2,-5
1558434942441688,0,0,4,5,1,-3,-4,-1
1558434942441688,3,3,4,-4,-1,2,0,1
1558434942454654,-2,-3,-5,7,-7,1,0,0
1558434942454654,-4,-5,-19,-37,-7,-4,-3,-2
1558434942463627,-1,-2,-2,-12,-1,-3,-2,-2
1558434942463627,-4,-3,0,8,0,-8,-6,-3
1558434942469610,1,-1,-2,-5,-5,-1,-3,-2
1558434942469610,-2,2,3,4,-10,2,2,0
1558434942485570,3,4,11,22,41,25,9,6
1558434942485570,0,-2,-5,-2,0,3,1,1
1558434942492548,-1,-2,-2,-7,-5,-5,-4,-2
1558434942492548,-2,-2,0,6,-5,-11,-6,-4
1558434942508504,-2,-2,-6,-20,-23,-13,-7,-7
1558434942508504,-1,1,2,4,-2,-2,-1,0
1558434942515487,2,1,5,12,10,7,4,3
1558434942515487,0,-1,-7,-24,-1,-1,0,1
1558434942531447,-4,-2,-1,6,-9,-9,-5,-4
1558434942531447,-2,-2,-1,-4,-1,-1,0,-1
1558434942532443,-4,-7,-9,-7,-8,-5,-2,-3
1558434942532443,2,3,8,14,10,6,4,2
1558434942545409,0,-1,-1,3,1,3,1,1
1558434942545409,0,1,-2,-17,-1,-1,-3,-3
1558434942552391,-3,-2,-4,-7,-9,-7,-5,-4
1558434942552391,1,-3,-6,0,1,4,3,1
1558434942568443,-1,-1,5,4,-5,-6,1,-2
1558434942568443,0,-3,-6,4,3,4,0,-2
1558434942575336,4,3,6,1,18,11,4,4
1558434942575336,-3,-4,-16,-24,-17,-13,-6,-2
1558434942591288,-2,-1,-4,2,3,-1,-1,1
1558434942591288,1,3,4,-6,1,5,4,2
1558434942593280,-4,-2,-1,6,-5,-6,-4,-3
1558434942593280,0,1,7,23,8,0,-3,-2
1558434942606244,-1,-2,-6,-23,-9,-2,-1,0
1558434942606244,2,2,10,12,2,-2,0,0
1558434942612229,-3,-5,-16,-22,-3,-2,-1,0
1558434942612229,-1,-1,7,12,-3,-4,-5,-3
1558434942628186,-1,4,-1,6,-4,-6,-2,-2
1558434942628186,-3,-3,-2,4,-2,-4,-1,-2
1558434942635167,-3,-4,-7,-16,-8,-3,-2,0
1558434942635167,1,-1,0,4,8,6,4,2
1558434942651123,3,-1,0,1,6,9,3,3
1558434942651123,-3,-1,7,11,-4,-6,-6,-4
1558434942653119,0,0,8,11,-6,-5,-1,-1
1558434942653119,0,0,-5,-7,4,2,2,1
1558434942666117,-2,-5,-2,-2,-1,-5,-4,-2
1558434942666117,-4,-2,-11,-14,-7,-4,-1,-2
1558434942673063,-2,0,-5,-3,-7,-2,0,-4
1558434942673063,-3,-1,3,11,-1,-3,-4,-2
1558434942688084,-1,-3,0,-6,-5,-8,-5,-5
1558434942688084,1,0,-2,-1,0,2,4,1
1558434942695067,1,3,6,10,9,4,1,-1
1558434942695067,-2,-3,-4,-14,-7,1,0,-3
1558434942711962,-2,-2,-5,-2,-3,-1,0,-1
1558434942711962,-1,-3,3,3,0,-2,0,0
1558434942712959,2,3,4,-3,11,7,3,2
1558434942712959,0,1,6,10,10,5,2,2
1558434942725922,-3,-2,-1,0,-12,-7,-7,-2
1558434942725922,-3,-3,0,-7,-4,-7,-5,-3
1558434942732975,0,-2,-7,-5,-6,-1,-1,-2
1558434942732975,-3,-6,-9,-8,-3,0,-2,-3
1558434942747904,3,1,-1,7,7,5,4,3
1558434942747904,1,1,0,5,5,2,2,2
1558434942754891,-1,-1,2,-2,-3,-5,-6,-2
1558434942754891,-2,-1,2,-2,-4,-4,-4,-4
1558434942778786,1,0,1,3,4,4,0,1
1558434942778786,-4,-3,-12,-24,-9,0,0,-1
1558434942780780,-2,-3,-6,-5,3,-2,0,-1
1558434942780780,0,0,1,1,-8,-8,-2,-1
1558434942785765,-2,0,0,3,-1,-4,-2,-3
1558434942785765,0,-1,1,-4,-4,-5,-5,-3
1558434942792743,-1,-4,0,1,-5,-2,-1,-1
1558434942792743,0,0,3,5,6,4,3,0
1558434942808701,-1,1,0,3,13,7,4,3
1558434942808701,1,2,3,9,2,4,2,-1
1558434942814687,0,0,2,-4,-8,-2,1,-1
1558434942814687,-3,-1,-6,-3,0,-2,-4,-1
1558434942831640,-2,-2,-3,2,-3,-1,-3,-3
1558434942831640,0,-2,-4,-2,0,-3,-1,1
1558434942832637,-2,0,1,7,7,3,2,-1
1558434942832637,1,3,3,0,-4,-1,0,1
1558434942845603,-1,-3,0,-5,-8,-5,-2,-2
1558434942845603,1,0,-1,7,6,5,1,1
1558434942852584,0,2,-1,6,-1,4,1,-1
1558434942852584,-3,-5,-10,-20,-3,-5,-1,-2
1558434942868541,-2,-3,-10,-19,-12,-6,-4,-4
1558434942868541,1,2,2,6,-1,-5,-3,-2
1558434942875531,-1,-1,-1,-2,-1,-4,-3,-2
1558434942875531,1,0,0,4,-2,-1,-3,-1
1558434942891484,-2,-2,1,3,5,1,-1,0
1558434942891484,0,-1,-1,0,1,1,-1,-1
1558434942892479,-1,-1,2,-1,-3,-1,-1,1
1558434942892479,-4,-2,-4,0,-4,-3,1,-1
1558434942905450,1,1,-1,-1,8,9,2,-1
1558434942905450,-1,-2,-2,3,5,3,2,-1
1558434942914427,-2,-2,4,11,0,-3,-5,0
1558434942914427,1,0,-2,0,-8,-8,-6,-3
1558434942928446,-2,-3,0,-13,-5,-3,0,2
1558434942928446,-1,0,-1,-1,3,4,1,1
1558434942935434,-4,-3,-5,-4,-4,-3,1,-1
1558434942935434,-1,0,8,8,2,-1,0,-1
1558434942951328,0,3,-1,-4,-4,2,0,0
1558434942951328,-3,-4,2,3,-1,-2,-2,-3
1558434942953343,-2,-3,-9,-4,-3,-1,-4,-2
1558434942953343,-1,0,1,2,0,-1,-1,0
1558434942965384,-1,-1,1,-4,-5,-7,-5,-2
1558434942965384,-1,0,2,5,-1,0,3,0
1558434942981323,2,3,0,1,14,11,8,4
1558434942981323,-2,-2,-6,-8,-1,4,3,0
1558434942988323,0,-1,3,6,-2,-6,-3,-4
1558434942988323,-3,-4,-9,-12,-10,-9,-8,-5
1558434942995425,-2,-1,1,-3,-6,-6,-5,-3
1558434942995425,1,1,2,6,5,2,1,0
1558434943012187,1,0,3,5,-8,1,3,-2
1558434943012187,0,3,-2,-5,3,-2,0,1
1558434943013163,-4,-3,-7,-12,-4,-1,-1,-3
1558434943013163,-3,-4,-4,5,3,3,0,-1
1558434943025122,-2,-1,0,6,11,7,0,2
1558434943025122,0,-2,1,-1,-4,-4,-2,0
1558434943034101,0,1,3,-1,-7,-7,-4,-1
1558434943034101,-3,-3,-7,-7,-10,-7,-7,-2
1558434943048092,-1,-2,-6,-6,-3,-7,0,0
1558434943048092,-3,-5,-5,1,1,3,3,-1
1558434943055071,2,3,2,-1,5,4,0,-2
1558434943055071,-1,0,0,4,2,0,2,0
1558434943071026,-1,-2,-1,-1,0,2,0,0
1558434943071026,-1,-2,-4,-8,-5,-2,-1,-2
1558434943072994,-3,-1,-3,2,-4,-7,-3,-3
1558434943072994,-2,-2,-4,-3,-3,-2,-3,-3
1558434943084963,-1,-1,2,3,-2,-5,-4,-3
1558434943084963,-2,-2,-8,-10,2,3,4,0
1558434943093938,-1,-1,3,0,1,5,3,1
1558434943093938,1,1,6,6,2,-2,0,3
1558434943107904,-4,-4,-6,-13,-3,-3,-3,-2
1558434943107904,-2,-2,-3,-2,-8,-2,-3,-4
1558434943115934,-2,-3,-3,7,-3,-8,-5,-2
1558434943115934,1,-3,-2,-10,-6,-1,-1,-1
1558434943131232,2,0,5,12,5,6,1,0
1558434943131232,1,2,1,4,12,6,3,3
1558434943138194,0,0,-2,-8,-5,-1,0,1
1558434943138194,-1,0,3,9,5,2,0,-1
1558434943145804,-4,-2,-8,-16,-11,-8,-3,-1
1558434943145804,-1,3,7,8,-5,-7,-8,-4
1558434943154064,-2,0,-1,-10,-3,-2,0,-2
1558434943154064,0,-2,-2,13,7,7,3,3
1558434943168969,-1,-2,-11,-16,2,2,1,0
1558434943168969,-2,-1,3,5,-2,-3,-3,0
1558434943174728,-2,-1,0,1,-4,-3,-3,-2
1558434943174728,1,0,7,0,-3,-4,-2,-1
1558434943190684,1,1,-1,-4,6,2,1,-1
1558434943190684,-2,-4,1,5,-8,-4,-2,-1
1558434943197679,-2,-2,1,7,4,3,1,2
1558434943197679,-2,-2,-6,-14,2,0,2,0
1558434943205827,-1,1,3,11,5,3,1,1
1558434943205827,-1,-1,-5,-10,-3,-1,-2,-3
1558434943214491,1,-1,2,7,1,1,-1,-1
1558434943214491,-2,1,-2,-13,-11,-6,-3,-2
1558434943236439,-3,-2,1,7,-10,-11,-6,-4
1558434943236439,-1,-2,3,6,5,2,1,-1
1558434943237437,-3,-4,-17,-27,-1,5,5,2
1558434943237437,1,2,3,8,9,6,2,1
1558434943251484,0,2,8,10,2,0,0,-2
1558434943251484,-4,-3,-6,-9,-6,-5,-3,-3
1558434943257383,-1,-2,-1,0,-4,-4,-5,-2
1558434943257383,1,1,1,-5,-3,-2,-1,0
1558434943265368,-2,-3,-1,6,-9,-4,-2,-3
1558434943265368,0,0,-4,-7,-3,-1,0,-2
1558434943274340,-1,-3,-6,-1,14,9,5,1
1558434943274340,1,1,1,-2,6,4,2,2
1558434943288478,-1,0,3,10,1,3,-1,0
1558434943288478,-2,-3,-1,-12,-9,-6,-3,0
1558434943295456,-1,0,3,5,-5,-8,-6,-3
1558434943295456,-4,-5,-8,-8,-11,-8,-7,-5
1558434943311395,-3,-5,-1,-1,-11,-10,-2,-4
1558434943311395,0,3,-2,-3,5,3,5,1
1558434943318368,0,-3,-3,4,14,10,5,0
1558434943318368,0,0,-1,3,3,2,3,1
1558434943334506,2,-1,-2,-3,-1,-1,-3,2
1558434943334506,-2,0,2,3,-6,-7,-5,-4
1558434943335268,-3,-4,-1,-20,-12,-3,-2,-2
1558434943335268,0,0,1,1,1,4,0,1
1558434943348448,-2,0,-3,2,8,5,2,0
1558434943348448,0,0,0,-1,4,0,2,2
1558434943355439,-2,-1,-1,7,-4,-5,-3,-2
1558434943355439,-1,-2,-4,-7,-7,-6,-4,-4
1558434943370405,1,1,0,-2,-2,-1,-2,1
1558434943370405,3,3,4,3,-4,-1,-4,0
1558434943377372,0,1,2,3,-4,-3,-1,0
1558434943377372,-3,-3,-7,-16,1,2,1,-2
1558434943393316,-3,-1,-4,-10,-1,0,2,-1
1558434943393316,-4,-4,2,4,-1,-1,-2,-3
1558434943394117,1,-1,-1,2,-5,-5,-5,-2
1558434943394117,-3,-2,0,7,-1,-5,-1,-1
1558434943409067,1,-1,-1,3,4,2,-2,1
1558434943409067,-1,0,-4,-2,4,3,4,0
1558434943415051,-2,2,9,11,-2,-2,-1,0
1558434943415051,-3,-5,-10,-10,0,0,1,-1
1558434943430013,1,-1,-2,-4,10,9,4,2
1558434943430013,-2,-1,1,6,-5,-4,-2,-2
1558434943436992,-1,1,1,-3,1,-1,-2,-1
1558434943436992,0,-1,-4,1,-5,-2,-3,0
1558434943452979,-2,-3,-5,-11,-7,-8,-6,-2
1558434943452979,0,4,2,0,1,-1,-2,-1
1558434943453949,1,2,-1,4,0,1,2,-1
1558434943453949,-2,0,0,-3,2,1,-2,-3
1558434943469169,0,-2,1,5,0,2,0,0
1558434943469169,0,-2,0,-5,1,-2,-2,2
1558434943474894,-3,-3,-5,2,0,0,0,1
1558434943474894,-1,-3,2,-2,-3,-3,-1,-1
1558434943489852,-2,-1,1,9,1,-1,-1,-3
1558434943489852,-1,-4,-9,-10,-3,-1,0,1
1558434943497831,-1,0,3,3,2,1,-1,-1
1558434943497831,-2,0,-1,-3,-4,1,2,2
1558434943513972,-1,2,-2,2,3,2,0,1
1558434943513972,-2,-2,-2,-7,0,0,-2,-2
1558434943513972,-2,-4,-10,-14,-7,-6,-5,-6
1558434943513972,2,3,4,6,-5,-3,-3,-2
1558434943529012,0,0,4,4,-2,0,2,2
1558434943529012,-3,-2,-6,0,1,5,0,-2
1558434943535800,1,1,-6,-4,-5,2,1,1
1558434943535800,-4,-4,1,3,-2,-4,-4,-6
1558434943550881,-2,-5,-3,-6,-5,-8,-4,-4
1558434943550881,0,0,0,2,2,1,0,-2
1558434943557671,-4,-3,-1,-9,-2,-1,-2,-3
1558434943557671,0,-1,0,3,5,3,2,1
1558434943573629,1,4,3,4,3,5,4,2
1558434943573629,-1,-4,-1,2,-1,-4,-2,-2
1558434943573629,-1,-1,4,0,-4,-5,-3,-1
1558434943573629,0,0,0,4,-5,-7,-5,-1
1558434943588873,-3,-4,-12,-15,-2,0,-2,-1
1558434943588873,0,1,3,5,4,2,2,2
1558434943595727,-2,0,-5,6,-5,-3,0,-1
1558434943595727,-3,-1,9,3,-4,-5,-4,-4
1558434943610774,-2,-5,-7,-8,-5,-4,-1,1
1558434943610774,3,1,-1,7,4,6,6,2
1558434943617756,-1,1,4,6,14,8,1,2
1558434943617756,0,0,4,6,3,2,2,2
1558434943633723,-3,-1,-5,-9,-6,-5,-6,-4
1558434943633723,-2,-1,-1,-4,-7,-8,-6,-4
1558434943633723,-1,-3,0,2,-4,-5,-4,-3
1558434943633723,-1,2,1,7,7,4,1,-1
1558434943649425,0,0,0,-14,-5,-2,-1,0
1558434943649425,-2,-2,2,1,-1,-3,-1,1
1558434943655663,-2,-1,0,2,3,3,0,-1
1558434943655663,-2,-3,-9,-14,-3,0,0,-1
1558434943670370,-2,1,2,6,1,1,-1,-1
1558434943670370,0,2,6,2,-2,-2,-3,-2
1558434943678419,-1,-3,-3,-7,-7,-6,-2,-1
1558434943678419,2,0,0,6,6,4,3,-1
1558434943693645,2,0,5,5,-1,0,0,1
1558434943693645,-1,-1,3,9,2,-1,-3,-3
1558434943694579,-4,-6,-17,-24,-14,-6,-4,-5
1558434943694579,-1,0,-3,-3,2,3,2,0
1558434943709266,-1,-1,-6,-8,-3,-2,-2,-1
1558434943709266,-3,-1,3,2,-7,-4,-2,-3
1558434943715600,2,1,3,11,5,4,4,3
1558434943715600,-1,-1,1,-9,-1,-2,1,1
1558434943730529,-2,-1,0,3,2,0,-2,-3
1558434943730529,0,-2,-3,0,-4,0,-3,0
1558434943738269,0,-2,-3,-3,-2,-3,-4,-3
1558434943738269,-1,-1,-4,-6,-9,-10,-4,-3
1558434943753436,-1,-1,6,14,5,-2,0,-1
1558434943753436,-2,-1,-12,-29,2,4,2,2
1558434943754149,-1,0,2,3,1,3,1,-1
1558434943754149,-2,0,-4,-9,-3,1,0,0
1558434943769106,-3,-4,-8,-7,-6,-4,-4,-3
1558434943769106,-1,-1,4,6,2,-1,1,-2
1558434943775121,1,3,4,3,3,-2,0,0
1558434943775121,-1,0,4,-2,-6,-6,-5,-1
1558434943790050,-2,-1,0,8,-7,-7,-3,-3
1558434943790050,-2,-5,-8,-5,7,10,3,-1
1558434943798247,1,1,3,3,3,7,2,2
1558434943798247,1,-2,-2,-1,6,0,-2,-3
1558434943813232,2,1,0,2,-1,-2,0,1
1558434943813232,-2,1,-3,-3,-5,-5,-5,0
1558434943813986,-3,-3,0,2,-5,-4,-2,-2
1558434943813986,2,2,8,13,6,2,0,1
1558434943828947,-2,-4,-10,-13,-3,-3,-1,-2
1558434943828947,-1,-3,-4,3,-4,1,2,0
1558434943835160,-1,-2,1,-10,-1,-3,-2,-1
1558434943835160,-3,-2,-1,3,-4,-2,-2,-2
1558434943849894,0,2,4,-1,1,0,2,-2
1558434943849894,0,1,3,11,-2,-4,-3,-1
1558434943857868,-1,0,0,-6,0,-2,-1,-1
1558434943857868,-1,-2,0,-2,-2,-7,-3,-2
1558434943872894,-1,-2,-7,-3,-2,0,-2,0
1558434943872894,1,-1,2,2,-2,-2,0,-1
1558434943873825,1,0,-2,9,5,4,1,1
1558434943873825,2,2,1,0,8,8,5,2
1558434943889133,-3,-1,2,4,-2,0,-3,-5
1558434943889133,-2,-3,-7,-12,-9,-10,-6,-4
1558434943904084,-2,0,6,-4,-8,-3,-3,1
1558434943904084,1,2,-1,-3,11,11,4,4
1558434943910765,-1,-1,-2,8,10,1,0,-1
1558434943910765,-1,-2,-1,-2,-6,-4,-1,0
1558434943918042,-2,-1,-1,6,-3,-6,-1,-2
1558434943918042,-3,-1,-5,-4,-8,-3,-5,-2
1558434943933954,-2,-1,-1,-9,-8,-1,0,-1
1558434943933954,-1,-1,-2,-7,-3,-6,-5,-4
1558434943933954,0,-1,-4,1,4,3,-1,0
1558434943933954,-1,-2,1,4,5,-1,0,-1
1558434943948909,1,0,3,6,2,4,4,2
1558434943948909,0,-2,-3,-6,7,6,3,1
1558434943955926,-2,-2,0,-2,-6,-2,-2,-1
1558434943955926,-3,-3,0,3,-2,-5,-3,-3
1558434943979544,-2,-1,-2,-3,0,-3,-2,-2
1558434943979544,-2,-3,-4,-2,-5,-3,-3,-1
1558434943980540,-2,0,0,-1,1,2,-1,0
1558434943980540,0,-2,-1,3,-1,0,0,0
1558434943993537,2,4,17,15,9,0,-1,2
1558434943993537,-3,-3,-16,-17,-10,-2,0,-3
1558434943994557,0,-1,-6,-5,0,-3,-1,-2
1558434943994557,-3,-3,-5,-10,-9,-4,-1,-2
1558434944009463,-1,-3,-2,-3,-3,-4,-5,0
1558434944009463,2,4,17,21,5,3,2,2
1558434944015707,-1,-1,-3,-12,-1,-3,2,0
1558434944015707,-2,-5,-8,5,0,3,3,0
1558434944031528,-1,-1,-4,-17,-3,1,1,1
1558434944031528,-1,-3,-3,4,1,-1,-2,-2
1558434944037656,-2,-3,-2,-4,-7,-4,-4,-3
1558434944037656,-3,1,2,-5,-4,-3,-4,-3
1558434944053345,0,1,-2,0,-5,-3,-1,-1
1558434944053345,-1,1,4,1,-1,1,1,0
1558434944054342,1,2,2,8,9,3,4,1
1558434944054342,0,0,-1,-4,5,3,2,1
1558434944069302,-1,-5,-11,-8,-7,-2,-4,1
1558434944069302,-3,-3,-2,-3,-2,-2,-1,-4
1558434944075317,-2,-3,-5,-6,-8,-4,-5,-2
1558434944075317,-2,-3,-4,-3,-8,-6,-4,-3
1558434944091245,-1,2,1,3,-1,-6,-4,-3
1558434944091245,4,2,5,10,7,2,2,5
1558434944098383,1,1,4,-1,8,8,4,2
1558434944098383,-3,-3,-5,0,2,1,-2,-2
1558434944112521,-4,-1,-4,-3,0,2,2,-1
1558434944112521,-1,-1,-4,-6,-6,-6,-3,-1
1558434944120494,-2,-3,-3,-2,-6,-7,-5,-4
1558434944120494,0,1,-1,-9,-13,-8,-5,-1
1558434944136452,-3,-4,-3,0,5,2,0,-2
1558434944136452,3,0,6,11,16,10,9,5
1558434944136452,1,0,4,10,6,4,1,1
1558434944136452,-2,-4,-6,-18,-10,-7,-3,-2
1558434944151085,1,0,3,1,-6,-3,-3,-3
1558434944151085,-4,-7,-15,-16,-4,-8,-6,-4
1558434944157069,-3,-2,-2,2,-7,-4,-2,-2
1558434944157069,0,1,8,9,3,-1,-1,-1
1558434944181488,-3,-3,1,3,0,0,-1,-2
1558434944181488,0,4,7,6,-2,3,0,1
1558434944181488,-2,-2,-5,-10,3,1,1,-1
1558434944181488,-1,-1,-4,3,3,4,2,2
1558434944196096,0,1,4,-7,-1,-1,1,-1
1558434944196096,-2,0,2,2,-2,-3,-4,-2
1558434944197228,-2,-1,-2,-1,-9,-9,-7,-4
1558434944197228,1,2,-1,-4,-8,-3,1,-1
1558434944211920,2,-1,5,9,12,9,5,3
1558434944211920,-2,1,4,10,3,2,2,2
1558434944218186,0,1,0,-2,1,1,1,2
1558434944218186,-2,-1,0,0,1,-2,-3,-1
1558434944233180,-1,-2,-3,-10,-9,-8,-3,-4
1558434944233180,-2,-5,-7,-5,-1,-2,-4,-5
1558434944239848,0,-1,-3,-1,-3,-3,0,-3
1558434944239848,0,0,2,6,-4,-4,-4,-1
1558434944256040,-2,-1,-3,2,5,4,2,0
1558434944256040,-1,-1,1,-3,-1,3,0,-1
1558434944256805,0,-1,-3,-8,-1,1,1,-2
1558434944256805,-1,-1,-1,2,2,2,-1,0
1558434944271761,0,0,0,-12,-10,-5,-6,-1
1558434944271761,-2,0,0,5,0,-3,-2,0
1558434944277989,-1,-2,-3,2,11,2,-1,-1
1558434944277989,3,3,10,9,3,8,7,3
1558434944292704,-1,0,-6,-6,1,1,4,0
1558434944292704,-5,-6,-8,-7,-9,-7,-7,-3
1558434944308662,-2,-5,-4,-8,-6,-3,-1,0
1558434944308662,-1,-4,-12,-21,-5,-5,-3,-2
1558434944315693,0,1,11,22,3,5,1,2
1558434944315693,0,1,-2,-4,5,4,0,0
1558434944316697,1,-1,-1,9,-2,-2,0,3
1558434944316697,1,4,7,17,11,5,2,0
1558434944331600,-1,-5,-12,-16,-10,-6,-3,-3
1558434944331600,-2,-2,0,-3,-5,-7,-5,-4
1558434944338016,-2,-1,1,-12,-4,-3,-4,-2
1558434944338016,-1,-1,-4,-1,-2,0,0,0
1558434944353009,0,0,1,6,-1,-4,-4,-1
1558434944353009,3,3,-2,-2,8,6,3,2
1558434944360896,-2,-3,-7,-3,-6,-2,0,-4
1558434944360896,-2,-1,4,3,-5,-1,1,-2
1558434944375926,-1,0,-2,3,9,1,0,-1
1558434944375926,1,0,5,12,-7,-7,-1,-1
1558434944377476,0,1,-1,-16,-1,0,-1,0
1558434944377476,-3,-3,-4,-3,-2,-3,-1,-2
1558434944391438,-2,-4,-7,-8,-5,-1,-1,-1
1558434944391438,0,0,4,1,0,-2,0,1
1558434944397869,1,1,-2,1,-4,-1,-3,-1
1558434944397869,-2,-4,-4,2,1,3,-1,1
1558434944412384,-1,1,5,6,-2,-1,0,-3
1558434944412384,-3,-4,-7,-15,-9,-10,-5,-5
1558434944420727,-2,-4,3,11,0,-2,1,0
1558434944420727,-1,1,3,8,6,3,3,0
1558434944435351,-2,0,-10,-27,-5,-1,0,-1
1558434944435351,-3,1,3,3,-2,0,-1,0
1558434944436319,2,4,5,7,4,4,-1,0
1558434944436319,-3,-5,-14,-16,-5,-3,-1,-2
1558434944451586,-1,-4,2,9,3,0,0,1
1558434944451586,-2,-4,-8,-13,-5,1,0,-1
1558434944457263,-2,-1,8,9,1,-2,-3,-3
1558434944457263,1,2,8,8,4,-3,-4,-2
1558434944472222,-4,-2,-7,-6,-8,-1,0,-2
1558434944472222,-2,-2,-4,-16,-4,-3,-2,-2
1558434944480201,-2,-2,-1,8,2,2,1,-1
1558434944480201,-1,-2,2,5,-6,-7,-1,-1
1558434944495162,-1,-4,-1,-3,1,2,1,-1
1558434944495162,-1,1,-1,-1,0,0,0,-1
1558434944496158,-1,-1,1,5,4,0,0,-2
1558434944496158,0,-1,-6,-14,-5,-2,-2,-2
1558434944520094,-2,-2,1,0,-4,-7,-6,-4
1558434944520094,0,0,1,6,0,1,2,0
1558434944520094,1,1,-9,-27,-2,-2,-1,2
1558434944520094,1,0,3,8,8,8,4,1
1558434944533464,-1,-3,-6,4,1,0,0,-2
1558434944533464,0,0,0,-3,1,2,0,-2
1558434944540043,-2,-1,3,7,-6,-7,-4,-1
1558434944540043,-2,-3,-6,-10,-9,-5,-4,-2
1558434944556448,1,3,4,-2,-3,-2,-1,3
1558434944556448,-2,-2,-6,-4,-5,0,1,-3
1558434944556448,-1,0,4,8,2,-2,-1,-2
1558434944556448,-3,-4,-7,-5,1,-5,-3,-5
1558434944571419,2,1,2,11,4,1,0,2
1558434944571419,0,0,-1,3,4,5,2,1
1558434944578346,0,1,-1,-1,-3,4,0,1
1558434944578346,-2,0,3,0,-1,-1,-3,-2
1558434944593250,-3,-1,-3,-1,-3,-7,-5,-3
1558434944593250,-2,-1,1,5,-2,-5,-5,-2
1558434944600879,-3,-1,-5,-6,1,4,2,-1
1558434944600879,0,-1,0,3,3,2,2,1
1558434944616092,2,1,3,1,1,1,4,1
1558434944616092,1,0,4,0,4,2,1,0
1558434944617118,-3,-1,1,2,-3,-5,-3,-3
1558434944617118,0,-3,-2,0,-4,-3,-5,0
1558434944632051,0,-2,-6,-18,-7,-7,-4,-5
1558434944632051,1,0,6,13,5,1,-2,-2
1558434944638088,1,-2,-6,1,1,1,-1,-1
1558434944638088,-1,1,2,-9,-6,1,4,0
1558434944653063,-4,-5,-8,-4,-5,0,-1,-1
1558434944653063,-1,1,1,0,2,-1,-2,-1
1558434944660721,-1,-2,3,6,-3,-7,-6,-3
1558434944660721,-4,-1,-6,-8,-1,-1,-2,-1
1558434944675969,2,3,4,1,7,7,5,3
1558434944675969,-1,-1,-5,-1,-3,-1,-1,-1
1558434944676678,0,-2,-1,1,-2,0,0,-1
1558434944676678,0,-1,3,-3,-6,-4,-5,-4
1558434944691636,-1,-3,-9,-8,-5,-6,-6,-4
1558434944691636,1,1,0,1,12,9,4,3
1558434944697941,2,0,0,-3,-2,2,2,5
1558434944697941,-1,-1,4,5,-2,-3,-3,-2
1558434944720881,-2,-2,-2,0,-4,-1,-2,-1
1558434944720881,-1,-2,-4,-1,3,1,3,1
1558434944721558,-2,1,-2,0,-1,-5,-3,-2
1558434944721558,-1,-1,0,1,0,1,-2,-2
1558434944735846,-2,0,4,2,1,0,-1,-2
1558434944735846,0,-2,-8,-10,-10,-4,-1,-1
1558434944736520,0,-3,2,8,5,1,3,1
1558434944736520,-1,0,-4,-2,-2,0,1,-1
1558434944759738,-1,3,2,4,-2,-5,-4,-2
1558434944759738,-3,-3,-2,-7,-9,-6,-4,-3
1558434944760453,-2,4,-5,-11,-4,-2,-1,-1
1558434944760453,-3,-5,-5,1,3,0,1,1
1558434944772741,0,0,4,10,8,8,4,3
1558434944772741,-3,-1,-3,-5,-2,1,1,1
1558434944780105,-2,-4,-5,-6,-1,-1,-4,-2
1558434944780105,0,-3,-2,-2,-4,-5,-2,-2
1558434944796030,0,3,2,-2,2,-1,-1,-2
1558434944796030,-4,-1,-1,6,-7,-4,-4,-2
1558434944796739,-2,-1,-2,-5,0,-1,1,-2
1558434944796739,-1,-3,-7,1,2,2,2,1
1558434944811697,1,-4,2,1,2,0,0,0
1558434944811697,2,0,4,2,1,-4,-1,-1
1558434944817967,-1,0,-1,-4,-3,-5,-3,-1
1558434944817967,0,1,4,1,-6,-4,-3,-1
1558434944840621,1,0,-4,1,0,0,-2,-2
1558434944840621,0,-2,-1,-4,-3,-1,-2,-1
1558434944841619,0,-2,-7,-14,-7,0,1,1
1558434944841619,0,1,1,2,1,1,1,-1
1558434944855584,-3,-2,1,6,-2,-1,0,-2
1558434944855584,0,-1,-2,0,7,-1,0,-1
1558434944856577,0,-2,5,14,7,2,2,-2
1558434944856577,-1,-1,-5,-10,-5,-3,-2,-1
1558434944871537,-3,-4,-4,-9,-7,-4,-2,-2
1558434944871537,0,-1,4,-1,-3,-2,0,-2
1558434944886531,0,-3,-11,-13,3,3,0,-1
1558434944886531,-2,-3,1,7,1,-1,-2,-2
1558434944892482,0,0,-4,-5,-7,-1,-2,-1
1558434944892482,-3,-1,0,-1,-2,-3,-2,0
1558434944900459,0,-1,4,4,-1,0,0,0
1558434944900459,-1,3,2,-2,3,5,6,1
1558434944915789,-3,-4,-6,-4,-4,-3,-3,-2
1558434944915789,1,1,-2,1,-5,-2,-3,0
1558434944939681,-2,-1,-2,-1,1,-4,-4,1
1558434944939681,-3,-4,-4,0,-8,-4,-2,-3
1558434944941352,0,0,2,-2,6,1,1,-2
1558434944941352,-1,-2,-2,1,2,-1,0,-1
1558434944941352,-1,-2,-5,-21,-10,-4,-2,-3
1558434944941352,-3,-2,-8,-3,-1,-2,-4,-4
1558434944952662,1,0,4,2,2,0,0,2
1558434944952662,0,0,5,7,5,4,4,3
1558434944960636,0,2,0,5,5,5,4,0
1558434944960636,0,-1,-1,3,5,-1,-3,-3
1558434944976259,-2,-2,-4,0,-8,-8,-7,-2
1558434944976259,0,-3,-5,-11,-10,-7,-6,-3
1558434944976259,-1,-1,3,3,2,3,3,-3
1558434944976259,1,2,2,3,7,5,5,0
1558434944991218,0,-2,-2,0,1,6,3,1
1558434944991218,-1,-2,-1,1,1,-4,-1,-3
1558434944997526,-3,-2,2,0,-4,-3,-4,1
1558434944997526,2,-2,1,1,2,-2,-1,2
1558434945013191,-2,-2,-2,-1,-4,-4,-3,-4
1558434945013191,-4,-1,-9,-17,-7,-4,-4,-2
1558434945020384,-2,-4,0,-1,-3,-4,-2,-2
1558434945020384,0,0,-3,-1,-3,-2,-2,-2
1558434945035360,0,2,2,5,3,2,1,2
1558434945035360,-2,0,-2,1,3,9,3,-1
1558434945042424,-2,-2,-2,-1,-7,-8,-6,-3
1558434945042424,1,-2,1,1,0,-4,-3,-2
1558434945051401,-1,2,-2,-3,3,1,1,0
1558434945051401,-4,-1,-2,-2,-3,-3,-1,-3
1558434945057381,-1,1,0,4,7,4,-1,1
1558434945057381,0,2,1,-6,-1,0,-1,1
1558434945072343,-2,-4,0,-3,-11,-9,-5,-3
1558434945072343,1,1,-2,5,11,6,1,1
1558434945080361,-3,-3,-3,-4,-3,0,-2,-3
1558434945080361,-3,-1,-2,-5,-4,-2,-1,0
1558434945095281,0,-2,-3,4,1,2,-1,0
1558434945095281,-1,-2,1,-1,1,-3,1,-1
1558434945102261,0,-2,0,6,0,-3,-3,-2
1558434945102261,-3,-1,-2,-3,-7,-5,-3,-2
1558434945119590,-1,0,-1,-2,7,7,5,1
1558434945119590,0,-1,-1,-1,-10,-4,-4,-1
1558434945121224,-1,1,1,2,-2,-3,-2,-2
1558434945121224,-1,0,-3,-5,-1,-6,-3,-1
1558434945133348,0,-1,0,0,9,10,6,1
1558434945133348,-1,-1,0,4,6,4,0,0
1558434945140161,-4,1,-1,0,-4,-4,-3,-2
1558434945140161,-2,-3,4,3,1,0,-1,-1
1558434945155489,-1,-5,-9,-15,-11,-11,-5,-4
1558434945155489,-2,0,2,5,4,3,5,2
1558434945162444,1,-2,-6,-15,-10,-5,-1,-1
1558434945162444,-1,-3,-2,2,10,1,0,-2
1558434945178404,1,1,4,8,-4,-7,-4,-1
1558434945178404,-1,-6,-4,-11,-5,-8,-5,-4
1558434945179057,1,-1,5,9,0,0,-2,1
1558434945179057,-1,0,-4,-14,-8,0,-1,0
1558434945192806,-2,-1,-5,4,8,7,2,-1
1558434945192806,-1,2,3,7,4,2,2,1
1558434945200720,-1,1,-2,4,3,1,3,1
1558434945200720,-1,0,4,1,-3,-1,-3,0
1558434945216545,0,-1,3,-2,-6,-6,-4,-1
1558434945216545,-1,-5,-12,-17,-12,-7,-3,-3
1558434945222592,-1,1,2,-2,7,7,4,1
1558434945222592,0,-4,-10,1,-2,-1,-2,-3
1558434945238539,-3,3,9,10,1,0,-2,-1
1558434945238539,0,2,4,3,5,1,0,-1
1558434945239319,-1,-3,-13,-13,-6,-3,-1,-2
1558434945239319,3,-1,11,20,2,-4,-3,-1
1558434945253316,-4,-5,-15,-36,-13,-8,-2,-2
1558434945253316,1,2,3,12,4,5,3,0
1558434945260472,-1,-4,-3,-9,2,2,1,-1
1558434945260472,-1,0,-5,-6,-4,-2,0,-2
1558434945275218,-1,-2,1,1,-5,-7,-5,-5
1558434945275218,0,0,2,-3,-4,-2,-4,-2
1558434945283288,0,1,2,0,-2,2,3,1
1558434945283288,-1,3,-1,1,6,4,3,2
1558434945298383,-1,-5,-2,7,0,1,1,1
1558434945298383,-1,-1,1,5,-2,-6,-7,-2
1558434945299159,-1,-2,-4,-6,-4,-5,-3,-2
1558434945299159,-1,-1,-1,-1,-1,0,1,-1
1558434945314114,-3,-3,-13,-18,-3,-1,0,-3
1558434945314114,0,1,1,3,-5,-6,-3,0
1558434945320421,0,-2,0,2,3,3,0,-1
1558434945320421,0,0,2,5,4,7,3,2
1558434945335058,1,0,3,-3,7,3,-2,0
1558434945335058,-1,-1,0,9,7,1,-3,-1
1558434945343236,-3,-1,6,7,-9,-6,-4,-1
1558434945343236,-2,-2,-5,-16,-6,-5,-5,-3
1558434945358378,-2,3,6,10,2,-1,0,1
1558434945358378,-4,-4,-17,-18,-6,-2,-3,-2
1558434945359663,-4,0,2,13,-1,-2,-2,-1
1558434945359663,-1,-2,3,6,5,2,2,1
1558434945372685,-2,-5,-12,-14,-7,-2,1,-4
1558434945372685,-1,-1,0,-10,-4,-1,1,-1
1558434945380665,1,-1,-3,-2,2,1,0,-2
1558434945380665,-1,0,4,6,-2,-4,-1,-2
1558434945395621,2,2,7,10,6,1,1,0
1558434945395621,-2,-5,-9,-9,-6,-2,-1,-1
1558434945402588,0,-1,-1,0,1,0,0,0
1558434945402588,-2,-1,-2,-2,-3,-2,-2,-2
1558434945418555,-2,-2,-1,12,0,-1,-1,-1
1558434945418555,-1,-2,4,-8,0,-1,0,2
1558434945419476,0,-1,-5,-13,-5,-3,-1,-1
1558434945419476,-3,-4,-3,-1,3,-3,-3,-5
1558434945433289,0,1,-4,3,-6,0,1,2
1558434945433289,1,2,3,-2,-2,-2,-2,-1
1558434945440160,-2,-3,0,-2,0,-2,-3,-2
1558434945440160,-4,-3,-3,-6,-6,-8,-6,-4
1558434945455155,-1,0,3,0,2,4,2,1
1558434945455155,0,2,4,8,8,7,6,2
1558434945462469,0,0,-1,7,10,7,4,4
1558434945462469,-1,0,-2,-18,-10,-4,-3,-2
1558434945478436,0,-1,2,2,-1,-9,-5,-1
1558434945478436,-3,-6,-11,-17,-5,-2,2,-1
1558434945479057,-1,-1,4,5,2,0,-2,0
1558434945479057,-1,-1,0,3,-3,-1,-2,1
1558434945492451,1,0,5,2,1,-2,-2,-2
1558434945492451,-1,-3,-6,-7,-6,-2,-5,-4
1558434945500364,-2,-2,-6,-1,-2,0,2,-2
1558434945500364,0,1,3,6,1,1,0,5
1558434945516321,-1,-1,5,5,-6,-7,-6,-2
1558434945516321,1,-2,-5,-4,-3,-2,5,1
1558434945530918,1,-3,-2,-1,3,4,0,-3
1558434945530918,2,2,3,2,2,3,2,0
1558434945537897,-3,-3,-3,5,3,-2,-3,-2
1558434945537897,0,3,10,0,-2,-4,-5,-3
1558434945538894,-4,-5,-18,-21,-13,-5,-2,-2
1558434945538894,0,-1,-2,8,5,5,4,1
1558434945552858,3,-3,-7,-7,2,5,3,0
1558434945552858,0,1,3,12,-2,-4,-4,-2
1558434945559839,-1,-2,8,-10,-12,-10,-6,-4
1558434945559839,-2,-3,-5,-1,2,1,0,-1
1558434945575871,-3,3,0,2,1,3,2,-1
1558434945575871,-1,1,2,6,5,4,-1,0
1558434945583130,-1,-1,3,2,1,-3,-3,-1
1558434945583130,-2,-3,-9,-11,-6,-5,-3,-3
1558434945598856,1,0,1,-7,-5,-5,-3,-1
1558434945598856,0,0,5,11,-2,1,3,0
1558434945598856,-3,-3,-8,-1,-6,-5,-3,-1
1558434945598856,-1,-5,-7,-12,-1,-2,-1,-1
1558434945621121,0,1,1,-5,5,5,4,1
1558434945621121,-2,0,-7,-7,0,2,0,-2
1558434945621675,-1,0,6,17,3,-2,0,-2
1558434945621675,-1,-3,0,-3,-9,-7,-4,-2
1558434945635999,-3,-4,-5,-3,-2,-4,-5,-3
1558434945635999,1,0,1,0,-2,-4,-1,0
1558434945643060,4,3,7,18,15,13,6,3
1558434945643060,-4,1,-5,-19,-1,2,2,0
1558434945658574,-2,-4,-5,-5,-8,-4,-2,-1
1558434945658574,-2,-2,-2,-2,-4,-5,-5,-2
1558434945658574,2,2,1,-1,-1,-2,0,0
1558434945658574,1,-1,-1,1,5,0,-1,-1
1558434945672913,-3,-2,-6,-9,-5,1,1,-1
1558434945672913,-3,0,-1,10,2,0,0,-3
1558434945680780,-1,-1,6,4,-5,-5,-5,-4
1558434945680780,-1,-1,-2,0,0,1,0,-3
1558434945695796,1,1,0,-2,0,-4,0,0
1558434945695796,0,0,-2,0,0,4,0,1
1558434945702764,-2,-3,-5,-10,-4,-2,-5,-2
1558434945702764,-2,1,1,6,-1,-3,-1,-1
1558434945719412,0,0,-1,-1,2,-2,-1,0
1558434945719412,-1,-1,-4,-8,-3,-2,0,-1
1558434945720410,0,-1,2,2,-2,0,-1,0
1558434945720410,0,-1,0,0,1,2,-2,1
1558434945732379,-1,-1,0,0,-7,-3,-4,-3
1558434945732379,-5,-3,-3,15,2,-3,-1,-1
1558434945740356,1,1,-2,-18,3,4,5,3
1558434945740356,0,0,1,1,1,0,-1,0
1558434945755317,0,1,1,-1,0,1,-1,0
1558434945755317,0,-1,-1,-6,-8,-7,-6,-4
1558434945763298,-3,-2,-4,-2,-7,-4,-4,-3
1558434945763298,-2,-5,-1,14,2,-1,1,-3
1558434945778685,-1,-2,-1,4,7,3,0,2
1558434945778685,0,1,2,-6,-2,-1,-3,-1
1558434945779254,-1,0,3,1,0,-2,0,-1
1558434945779254,0,0,-5,-20,-6,4,2,-2
1558434945794213,-1,-4,-3,3,0,-2,-2,0
1558434945794213,-3,-3,-3,-5,1,2,1,-2
1558434945800592,0,-3,-7,-5,-3,-7,-2,-1
1558434945800592,1,0,7,7,-5,-6,-1,0
1558434945823137,-3,-2,-2,-3,-1,-1,2,0
1558434945823137,1,1,-5,3,4,1,1,0
1558434945824132,-1,-2,-1,6,2,2,1,-1
1558434945824132,-2,-1,-5,-1,-2,4,0,1
1558434945839504,0,0,4,4,7,0,-4,-3
1558434945839504,0,0,4,1,1,1,-3,1
1558434945845491,-2,-2,-8,-3,1,2,1,-2
1558434945845491,1,-2,1,5,-5,-4,0,-2
1558434945854054,-4,-3,0,-1,-4,-2,-1,-2
1558434945854054,-4,-4,-4,-4,-5,-1,-2,-3
1558434945860386,-2,0,-3,-8,-2,-7,-1,-2
1558434945860386,-1,-1,0,2,2,3,3,0
1558434945875348,0,1,-2,2,1,0,0,0
1558434945875348,3,2,9,12,4,0,0,0
1558434945883332,0,-1,-2,-8,-6,-4,-3,0
1558434945883332,-3,-5,-7,-4,-9,-5,-6,-3
1558434945898269,0,-2,1,-1,-2,0,-1,-3
1558434945898269,-1,-4,-7,-4,7,5,1,-1
1558434945898936,1,2,5,3,-1,-1,0,0
1558434945898936,0,3,11,14,4,-3,-2,1
1558434945920902,-3,-2,-13,-20,-2,5,3,0
1558434945920902,-3,-2,1,-2,-4,-3,-5,-1
1558434945920902,0,-2,-6,-10,-4,-1,-2,-1
1558434945920902,-3,-4,-5,1,-6,-6,-6,-3
1558434945934836,1,1,5,3,-2,-3,-1,-1
1558434945934836,0,2,2,5,2,-1,2,0
1558434945942814,-2,1,-4,-5,4,4,5,0
1558434945942814,-1,-3,-3,-3,0,0,-1,-2
1558434945957775,0,-3,1,1,-2,-1,0,-1
1558434945957775,-2,-3,-2,-5,-9,-2,-1,0
1558434945965181,1,-3,3,5,-4,-2,-2,-2
1558434945965181,0,2,-1,10,4,-4,-3,-2
1558434945973734,-1,2,6,-7,1,4,-1,1
1558434945973734,1,0,-5,-1,1,3,2,0
1558434945979717,-2,-3,-6,-1,-1,2,-2,1
1558434945979717,-1,-3,-3,-11,2,1,1,-3
1558434945995844,-1,0,4,16,-4,-5,-1,-1
1558434945995844,-1,0,1,-7,-5,-8,-4,-4
1558434946003114,0,2,2,7,-1,-2,-1,-1
1558434946003114,1,1,2,2,8,5,2,0
1558434946017973,-2,1,-1,8,-1,0,-1,0
1558434946017973,-1,0,2,-2,1,-1,0,-2
1558434946025836,-1,-2,-6,-3,-4,-4,-5,-2
1558434946025836,1,-1,0,4,-3,-2,-1,0
1558434946033823,0,-1,-3,-15,-3,0,-1,-3
1558434946033823,-1,-3,0,4,1,-3,-3,0
1558434946039561,-3,-3,-2,-4,-7,-2,-4,-3
1558434946039561,-2,-1,-5,-5,2,2,1,1
1558434946055716,0,-1,3,2,-4,-4,-2,0
1558434946055716,-2,-3,-9,-9,1,2,3,-2
1558434946062738,-1,3,6,7,5,2,1,0
1558434946062738,0,3,8,9,2,2,1,-1
1558434946077691,-2,-4,-16,-26,-2,-3,-2,-2
1558434946077691,-2,-3,-1,-3,-3,-5,-3,1
1558434946085666,0,-2,-2,0,-5,-5,-2,-2
1558434946085666,-2,-2,4,0,-3,1,1,1
1558434946094412,0,0,-3,6,8,2,1,0
1558434946094412,-1,-1,-3,-4,-2,-2,-2,-2
1558434946100621,-1,-4,0,1,1,-1,2,0
1558434946100621,-3,-1,-3,-6,-6,-7,-4,-2
1558434946115357,0,0,3,11,4,-3,-3,-2
1558434946115357,-4,-5,-13,-29,-18,-6,-3,-1
1558434946122576,-1,-3,0,6,13,5,2,-1
1558434946122576,-1,0,-3,-15,-4,0,3,-2
1558434946137325,1,0,-1,4,-4,-2,3,2
1558434946137325,-1,1,4,10,1,-3,-2,-2
1558434946145273,-4,-3,0,2,-5,-5,-5,-2
1558434946145273,1,-2,-1,-4,0,2,0,-3
1558434946161586,0,0,2,1,3,5,2,1
1558434946161586,0,1,4,6,-1,2,-2,-2
1558434946161586,-3,-1,-3,-6,-4,-6,-2,-1
1558434946161586,-3,-5,-6,4,2,-2,-4,-3
1558434946175473,1,1,0,1,-2,0,-1,0
1558434946175473,-1,-1,1,10,2,2,2,3
1558434946182315,1,-1,-1,-11,-3,2,2,0
1558434946182315,-3,0,-3,-4,-5,-6,-3,-1
1558434946198237,-2,0,4,6,0,-3,-5,-2
1558434946198237,2,1,0,5,6,3,4,1
1558434946205450,1,1,-1,5,11,7,2,2
1558434946205450,-1,-4,-6,-17,-14,-4,-2,-1
1558434946221382,-2,-3,-6,-12,-7,-6,-7,-5
1558434946221382,-5,-2,1,6,-5,-8,-3,-4
1558434946221382,0,2,2,-9,-4,0,0,0
1558434946221382,2,3,1,9,19,16,8,6
1558434946235347,-2,-1,-5,-3,-6,0,-1,0
1558434946235347,0,-2,1,4,1,0,-4,-2
1558434946243119,-2,0,-5,-11,-10,-10,-4,-3
1558434946243119,-2,-1,-6,-8,-7,-10,-6,-5
1558434946257972,-1,-4,-5,-3,-3,1,-2,-2
1558434946257972,1,0,5,11,13,6,2,2
1558434946264982,0,1,8,17,-1,2,1,-2
1558434946264982,-2,-2,-9,-8,-2,2,-2,-2
1558434946280945,-3,-4,-3,-4,-3,-6,-1,-1
1558434946280945,-2,-2,-4,-8,-3,-4,-6,-2
1558434946280945,0,0,4,10,7,1,0,1
1558434946280945,1,0,0,-4,-5,-3,-1,-1
1558434946294900,1,0,5,14,7,1,-3,-2
1558434946294900,-2,-2,-11,-22,-13,-2,-2,-1
1558434946302886,-1,-4,-3,1,3,2,-2,2
1558434946302886,-1,-2,4,7,2,-4,-1,-1
1558434946326163,-3,-2,-1,3,-1,-1,3,-1
1558434946326163,-1,-1,-2,-7,-7,-2,0,-2
1558434946326788,1,-1,1,2,1,-1,-1,0
1558434946326788,2,-2,-2,-1,4,5,-1,1
1558434946340757,-2,3,5,6,2,2,1,0
1558434946340757,-1,0,2,8,2,-1,-3,-2
1558434946341748,-2,-1,-1,-13,-9,-4,-3,-3
1558434946341748,-4,-7,-18,-5,-8,-6,-6,-2
1558434946355810,0,0,4,2,6,1,2,2
1558434946355810,0,-2,-10,-10,2,3,2,0
1558434946362729,-2,-1,-5,-17,-2,0,-2,-1
1558434946362729,0,3,10,14,4,1,2,1
1558434946377652,-1,-3,-7,-16,-10,-5,-1,-1
1558434946377652,-1,-1,6,14,4,-5,-1,-1
1558434946385654,4,2,1,4,1,5,3,1
1558434946385654,-2,0,1,-10,-3,-1,-3,-2
1558434946400592,-2,-3,-7,-3,-8,-4,-2,-1
1558434946400592,-1,-2,0,0,0,3,2,2
1558434946401591,0,1,11,18,1,-4,-5,1
1558434946401591,-2,1,-20,-32,-9,-5,-4,-3
1558434946415550,-1,-1,2,5,8,8,2,-1
1558434946415550,0,-2,-3,-9,1,1,1,0
1558434946422534,-3,-2,2,11,-2,-3,-2,-2
1558434946422534,0,-3,4,1,0,-1,0,1
1558434946437490,-1,0,-2,-1,-7,-7,-4,0
1558434946437490,1,2,6,2,-1,0,0,1
1558434946445482,-1,0,-5,-1,1,0,0,2
1558434946445482,0,-1,5,13,7,0,-1,-2
1558434946460430,-1,-1,-1,-5,-3,-1,-2,0
1558434946460430,-3,-4,-3,-5,-3,-1,-1,-3
1558434946461428,-2,-2,-7,-3,-7,-7,-4,-3
1558434946461428,-2,0,2,-3,-1,-2,0,0
1558434946475390,-1,-2,4,8,6,1,0,-1
1558434946475390,0,-2,-11,-11,-3,-2,0,-1
1558434946482373,-3,-3,-4,-8,-2,2,1,-2
1558434946482373,-1,-3,-2,1,-4,0,-2,-2
1558434946497627,0,-1,4,3,1,0,-1,0
1558434946497627,0,1,2,1,1,-4,-2,-2
1558434946505602,-1,-2,-2,-3,2,-1,0,-1
1558434946505602,0,2,4,8,-1,-2,-1,2
1558434946520621,0,-1,-3,-4,-1,1,0,0
1558434946520621,0,-1,-5,0,0,0,0,0
1558434946521267,0,-2,-4,-7,-5,-4,-1,-1
1558434946521267,-2,0,4,6,0,0,-2,-3
1558434946535447,0,1,-1,-3,3,-1,1,0
1558434946535447,-1,1,-3,1,-4,0,-2,-1
1558434946542211,-3,-2,3,5,-2,-2,-2,-1
1558434946542211,0,-3,-2,2,1,2,1,0
1558434946557172,-2,-3,-5,-5,-2,-4,-3,-4
1558434946557172,-2,-2,-3,-3,-6,-4,-2,-1
1558434946565151,3,0,-5,-17,-3,1,1,-2
1558434946565151,-2,-2,-1,-7,-3,-2,0,-3
1558434946580137,0,0,-2,-7,-2,2,-1,0
1558434946580137,0,-3,1,5,0,-2,0,-1
1558434946581106,-3,-2,-2,3,0,-2,-2,0
1558434946581106,0,-1,2,0,1,-3,1,1
1558434946595070,-1,0,-2,-1,1,0,-2,-1
1558434946595070,2,2,5,9,2,0,-2,1
1558434946602082,-1,0,-2,-10,-1,0,-1,0
1558434946602082,1,1,4,7,3,1,2,-2
1558434946617013,-3,-2,-2,-1,-1,-1,-1,-1
1558434946617013,-2,-3,-5,-2,-4,0,0,-1
1558434946624993,-1,-3,2,2,0,0,-3,-3
1558434946624993,1,1,-1,4,1,0,0,1
1558434946640949,2,-1,-1,-5,-4,-2,1,1
1558434946640949,0,2,2,7,1,1,1,-4
1558434946640949,-2,-2,-3,-9,-1,-2,-1,-3
1558434946640949,-2,-3,-3,-5,-3,0,-2,0
1558434946654911,0,-2,-3,7,-1,-1,0,-2
1558434946654911,-4,-1,6,4,-1,-1,-3,0
1558434946662891,-1,-2,-7,-2,-3,-2,-2,0
1558434946662891,-4,-1,-5,0,-3,-3,-3,-2
1558434946677849,-1,0,0,-4,-2,-1,1,-1
1558434946677849,-1,0,2,-4,0,-3,-2,-1
1558434946684887,1,-1,-3,-5,-1,-1,0,-1
1558434946684887,-2,-1,0,-5,-5,-4,-5,-3
1558434946700792,0,0,4,2,2,-1,2,-1
1558434946700792,-4,-6,-3,4,-1,-3,-1,-2
1558434946701795,0,5,6,-2,1,2,0,-1
1558434946701795,-1,0,-4,0,-2,-2,-3,0
1558434946714863,-2,-1,-1,0,-5,-2,0,0
1558434946714863,-1,3,1,-4,2,1,3,2
1558434946722732,0,-1,7,13,1,-1,-3,1
1558434946722732,1,-1,-5,-9,-3,-1,-2,-1
1558434946737690,0,-2,-4,-1,-3,-3,-1,0
1558434946737690,0,0,-1,2,2,1,1,1
1558434946745666,-4,-5,-13,-10,-8,-3,-1,-1
1558434946745666,0,0,4,-1,4,-1,1,-1
1558434946760627,-2,-3,-10,-7,-6,-3,0,-1
1558434946760627,0,0,1,-5,-2,-2,-1,0
1558434946761630,1,-1,-3,6,3,0,-3,-1
1558434946761630,0,1,5,9,0,1,0,-1
1558434946774601,-2,-1,-3,-9,-7,-2,-2,-1
1558434946774601,-1,-2,-7,-15,-5,-4,-2,-1
1558434946782568,-2,-1,2,2,1,0,1,-1
1558434946782568,0,-2,-4,-2,-2,2,2,0
1558434946797529,1,2,7,16,10,6,1,-1
1558434946797529,0,2,-2,-16,-7,-1,-3,-3
1558434946805511,-4,-6,-9,-15,0,-1,0,-2
1558434946805511,1,3,8,1,5,1,1,1
1558434946820468,-5,-7,-15,-12,-8,-6,-4,-4
1558434946820468,0,-2,6,8,-5,-4,-6,-3
1558434946828445,1,1,1,3,0,0,-2,0
1558434946828445,-1,-2,-4,-2,-2,4,7,1
1558434946834458,-1,1,8,-2,5,1,-1,-1
1558434946834458,-2,-3,-8,3,2,-1,2,-1
1558434946842444,-3,-2,1,1,-7,-5,-6,-2
1558434946842444,1,0,7,7,-6,-6,-6,0
1558434946857371,2,0,-3,-2,1,1,2,2
1558434946857371,0,-1,1,7,7,3,-1,1
1558434946865346,-1,-3,-3,-7,3,3,-1,0
1558434946865346,-3,-2,-8,-3,-9,-8,-1,-2
1558434946880337,0,0,5,14,3,-4,-4,-1
1558434946880337,-2,-2,-10,-25,-6,0,1,-1
1558434946888286,1,2,13,25,5,3,4,1
1558434946888286,-2,-4,-8,-15,1,4,0,-3
1558434946895300,-1,-1,-2,2,-6,-6,-4,-1
1558434946895300,-4,-5,-3,-12,-5,-3,-5,-4
1558434946902551,1,-1,0,11,0,-5,-1,0
1558434946902551,-3,-2,2,-4,-4,-1,-3,-2
1558434946917208,-5,-4,-14,-18,-6,-2,2,-2
1558434946917208,1,1,4,9,4,4,3,-2
1558434946925187,2,2,-3,-10,-1,2,4,0
1558434946925187,-1,-3,6,20,5,1,-1,-1
1558434946940148,0,1,6,0,0,0,-3,-2
1558434946940148,-3,-3,-7,-9,-7,-4,-2,0
1558434946948126,-2,-1,-5,0,-1,-1,2,-2
1558434946948126,0,0,-1,5,1,0,-2,2
1558434946955108,-1,-1,2,6,3,1,0,0
1558434946955108,0,2,2,3,-1,4,1,-3
1558434946962267,-2,1,1,-7,-4,-8,-7,0
1558434946962267,-4,-4,-6,-12,-9,-7,-3,-1
1558434946977051,-2,-3,-2,-6,-2,0,1,1
1558434946977051,-2,-2,-1,5,-4,-2,-3,-2
1558434946985201,0,0,-1,6,3,-2,-2,-1
1558434946985201,3,1,2,1,4,7,4,0
1558434947000158,2,1,6,8,5,5,0,2
1558434947000158,0,-2,-6,-7,-4,-1,-1,1
1558434947007009,0,-1,1,0,2,3,0,0
1558434947007009,0,2,-2,-5,1,-5,2,1
1558434947016112,0,-1,4,1,-2,-2,-3,-4
1558434947016112,-2,-2,1,12,-2,-7,-6,-3
1558434947022926,-3,0,-5,-10,-12,-6,-3,-4
1558434947022926,-3,-3,-3,-5,-7,-5,-6,-3
1558434947037886,-1,-4,-1,-6,-1,-1,4,-2
1558434947037886,1,0,0,-2,9,4,2,-1
1558434947044897,0,-2,1,3,-1,-3,-2,0
1558434947044897,-3,0,-2,4,2,0,-2,-2
1558434947060044,0,1,-3,-5,-8,-4,-6,0
1558434947060044,-1,-1,0,-5,-5,-3,2,1
1558434947067806,-2,-5,-4,-4,-3,0,3,-1
1558434947067806,0,1,1,6,12,11,5,-2
1558434947082766,-2,-1,-2,-4,1,-1,-2,-1
1558434947082766,0,0,3,12,-6,-2,-3,1
1558434947083764,0,-2,-5,-14,3,3,-2,-2
1558434947083764,-1,0,-5,-3,-5,-6,-7,1
1558434947097726,-1,-3,-8,-9,-6,-7,0,0
1558434947097726,-2,-1,-1,-4,-6,-5,-3,0
1558434947104707,1,1,6,13,-1,2,-1,0
1558434947104707,3,-1,-1,-5,12,9,7,3
1558434947119867,-1,-2,-1,-8,-6,-7,-7,-5
1558434947119867,-4,-3,-5,-2,-3,-4,-5,-4
1558434947127645,-4,-4,-3,-2,-1,5,2,-1
1558434947127645,-2,-2,1,5,-6,-8,-5,-2
1558434947142666,2,3,4,6,-2,11,10,5
1558434947142666,3,2,0,-2,21,7,2,2
1558434947143602,-2,-3,3,2,3,-4,0,-2
1558434947143602,-2,-2,-2,-2,-6,-3,-6,-4
1558434947157566,-4,-4,-4,-5,-11,-9,-4,-3
1558434947157566,0,1,-1,2,-9,-10,-8,-2
1558434947164576,-1,0,-1,-2,14,13,7,-1
1558434947164576,0,0,0,0,0,4,4,0
1558434947179543,-2,-5,-2,-2,3,-1,-6,-2
1558434947179543,-3,-1,2,-2,-15,-12,-2,-1
1558434947187521,1,2,-4,-3,-9,-11,-3,0
1558434947187521,-1,-4,-5,-6,-1,1,-4,-1
1558434947211426,0,1,4,15,2,3,-6,-4
1558434947211426,0,-1,-3,-15,8,5,8,1
1558434947212421,-5,-4,-2,-1,-9,-8,-4,-5
1558434947212421,-4,-1,-3,-3,-4,-7,-1,-2
1558434947217405,2,2,2,5,5,8,4,3
1558434947217405,2,4,5,9,10,13,8,5
1558434947225398,1,3,0,-1,17,10,-1,3
1558434947225398,-4,-5,-3,0,-8,-8,-6,-6
1558434947240344,-5,-4,-6,-12,-20,-23,-9,-4
1558434947240344,-3,-3,-3,6,-14,-5,-3,-3
1558434947247336,0,1,1,-6,10,11,9,3
1558434947247336,2,1,-4,3,12,7,-1,0
1558434947263283,-3,-2,-1,-1,-8,-12,-14,-8
1558434947263283,-5,-6,-14,-16,-8,-8,-4,-8
1558434947264280,-2,-1,0,3,-17,-4,-4,-3
1558434947264280,-1,-1,-1,-3,4,-5,1,-1
1558434947277246,-5,-3,-4,-4,-3,-1,-1,-5
1558434947277246,4,2,5,13,15,14,5,6
1558434947285224,-1,-1,1,3,-6,-8,-6,0
1558434947285224,-7,-3,-9,-19,-10,-7,-3,-8
1558434947300184,1,0,1,8,8,11,10,6
1558434947300184,5,6,7,9,15,9,1,5
1558434947307167,-5,-5,-9,-11,-10,-11,-24,-16
1558434947307167,2,2,7,8,2,5,11,6
1558434947323125,-2,2,-1,-2,-9,-5,-4,-4
1558434947323125,-5,-6,0,-1,10,7,-1,-6
1558434947324124,-4,-7,-9,-5,-15,-13,-2,1
1558434947324124,-5,-3,-5,-6,-11,-21,-21,-10
1558434947337091,6,5,3,4,28,26,23,13
1558434947337091,2,2,5,7,7,7,1,4
1558434947345069,0,2,4,1,1,3,9,1
1558434947345069,0,4,2,-4,4,4,5,5
1558434947360023,-5,-6,-8,-17,-29,-21,-10,-8
1558434947360023,-12,-10,-7,-14,-39,-40,-29,-17
1558434947367006,-1,-4,1,0,6,-2,-2,-3
1558434947367006,10,10,12,19,20,33,22,14
1558434947382961,5,6,3,11,42,22,9,8
1558434947382961,-3,-4,-3,-5,-14,-10,-5,-8
1558434947383960,-4,-2,-7,-10,-16,-12,-3,-5
1558434947383960,-4,-5,0,-1,-6,-11,-10,-7
1558434947396926,1,-3,-2,-2,-7,-3,5,4
1558434947396926,0,0,-2,-2,3,-5,-19,-9
1558434947404904,0,0,1,0,-4,-4,6,1
1558434947404904,-2,0,-1,-7,-12,-1,-3,-1
1558434947419863,2,2,7,10,18,21,12,6
1558434947419863,0,1,-1,-2,5,2,8,2
1558434947427848,0,-2,-2,-1,-5,3,-4,1
1558434947427848,-3,-5,-8,-16,-5,-4,-7,-6
1558434947442804,-1,0,-3,-2,-11,-14,-1,0
1558434947442804,1,-1,2,2,7,8,12,9
1558434947443805,3,2,6,9,1,-2,-1,1
1558434947443805,0,-3,-1,3,-2,0,-2,-1
1558434947458761,-6,-8,-7,-18,-32,-30,-28,-12
1558434947458761,0,1,-1,1,-11,-5,15,6
1558434947464749,6,5,7,11,45,34,15,8
1558434947464749,0,3,2,9,14,23,4,0
1558434947479705,-2,-3,-1,-4,7,0,-1,-5
1558434947479705,-7,-5,-4,-4,-17,-15,-18,-13
1558434947487684,-6,-5,-9,-11,-32,-28,-19,-7
1558434947487684,4,4,12,15,22,13,17,10
1558434947502654,1,2,-3,-9,10,12,-2,-1
1558434947502654,-5,-3,-5,-10,-10,-7,0,-4
1558434947503648,-4,-3,-6,-4,-10,-5,-3,-1
1558434947503648,-2,-4,0,3,-11,-11,-17,-7
1558434947517609,-2,-2,-4,-11,-5,-11,1,-1
1558434947517609,4,1,-1,-6,1,8,7,3
1558434947533560,-2,-3,-1,-2,2,-1,-3,-2
1558434947533560,3,-2,-4,0,-1,-1,0,0
1558434947540555,1,0,4,7,-5,1,5,0
1558434947540555,2,6,6,9,28,25,12,6
1558434947547528,2,3,1,2,15,18,11,3
1558434947547528,-7,-7,-9,-13,-31,-28,-11,-8
1558434947563494,1,0,0,0,1,-1,5,1
1558434947563494,-2,-2,-7,-5,-4,1,-5,-4
1558434947563494,-4,-2,0,0,-10,2,-1,-4
1558434947563494,1,4,3,8,14,-1,0,2
1558434947577443,0,-3,-3,-3,9,7,-2,-3
1558434947577443,-1,-1,3,8,-6,-5,-3,-2
1558434947584426,2,0,-2,-1,8,7,7,6
1558434947584426,-2,-2,-3,-11,-11,-9,-9,-6
1558434947600414,-4,-3,-6,-4,-11,-4,-9,-8
1558434947600414,4,0,0,-3,7,-1,7,5
1558434947608367,0,1,3,9,3,1,-6,1
1558434947608367,-5,-2,-4,-13,-13,-5,1,-4
1558434947624319,-1,0,-4,1,-4,-4,-3,0
1558434947624319,0,-1,0,4,3,-2,-1,3
1558434947625315,-3,-2,1,-2,-11,-10,-6,-5
1558434947625315,0,2,0,5,5,5,11,6
1558434947637294,-2,-2,3,0,5,0,-8,-4
1558434947637294,-3,-5,-7,-10,-12,-9,-4,-4
1558434947645264,4,2,2,4,10,2,7,6
1558434947645264,0,-2,-2,1,-3,-2,0,-1
1558434947660222,0,0,3,7,2,1,0,2
1558434947660222,-3,-1,-3,-4,-5,-1,-5,-5
1558434947667204,2,-1,1,2,10,10,7,3
1558434947667204,-5,-5,-6,-9,-16,-11,-15,-8
1558434947683161,-1,1,1,3,4,6,7,3
1558434947683161,0,-1,0,1,-2,-3,0,1
1558434947684157,0,3,0,1,7,4,2,0
1558434947684157,-1,-1,0,-1,-4,-8,-6,-3
1558434947697127,-6,-4,-3,-5,-12,-6,-7,-7
1558434947697127,0,-2,-7,-6,6,10,1,-2
1558434947705102,-5,-4,-7,-11,-20,-17,-9,-7
1558434947705102,2,1,5,9,16,6,12,7
1558434947720062,-1,-3,-6,-3,-4,-7,-5,-5
1558434947720062,-4,-3,-4,-8,-13,-14,-14,-7
1558434947727043,-1,1,2,2,-3,1,4,2
1558434947727043,0,0,-2,-3,1,0,0,-1
1558434947742999,1,2,2,10,3,4,6,4
1558434947742999,2,1,5,4,22,22,3,1
1558434947743997,0,1,1,4,-4,-5,0,1
1558434947743997,1,-3,-5,-3,5,4,-2,-2
