timestamp,emg1,emg2,emg3,emg4,emg5,emg6,emg7,emg8
1558434834605561,1,3,2,2,9,7,2,2
1558434834605561,0,0,1,0,-3,1,1,0
1558434834606557,-1,1,0,-6,-3,-5,-3,0
1558434834606557,-1,0,2,-1,-5,-4,-4,-1
1558434834611547,1,-2,0,-3,-2,-2,-2,-2
1558434834611547,0,-1,0,5,9,4,3,0
1558434834611547,0,-1,-1,-2,-2,0,1,-1
1558434834611547,0,-1,-8,-5,-1,-1,-2,1
1558434834616533,-1,0,1,5,4,2,4,2
1558434834616533,-1,-1,3,9,-2,-1,-4,-2
1558434834627501,-2,-3,-10,-25,-6,-4,-1,-2
1558434834627501,-2,0,1,-1,0,1,0,-1
1558434834639469,-2,-4,-2,-6,-9,-5,-4,-3
1558434834639469,-2,-4,-4,0,-4,-6,-4,-2
1558434834647448,0,1,7,14,9,4,2,0
1558434834647448,1,-1,-1,-3,-6,-1,0,0
1558434834654429,0,0,-2,-4,-3,-1,0,1
1558434834654429,-1,-1,-1,-5,2,1,-3,-2
1558434834669389,0,-1,2,2,0,-1,-2,-1
1558434834669389,-3,-3,1,8,5,-3,1,-2
1558434834676370,0,2,-1,-11,-3,4,1,1
1558434834676370,-1,-2,-6,-10,-9,-10,-4,-2
1558434834715266,1,1,4,4,4,3,-1,1
1558434834715266,-1,1,-4,-6,-2,0,-2,-2
1558434834723245,-2,-5,-3,4,-5,-4,-2,-3
1558434834723245,-1,1,-1,1,-1,-3,-2,-2
1558434834724241,-1,1,4,9,1,1,-1,-1
1558434834724241,1,2,2,1,2,2,2,2
1558434834738205,0,0,0,-4,0,0,0,1
1558434834738205,0,0,3,-2,1,1,-1,-1
1558434834739202,-4,-6,-3,3,-6,-5,-4,-5
1558434834739202,-6,-8,-20,-27,-14,-7,-4,-4
1558434834745186,0,1,2,6,8,1,-1,1
1558434834745186,1,-1,-3,2,1,2,2,2
1558434834751170,-1,2,2,2,2,1,0,-2
1558434834751170,-1,-3,-2,-2,-2,-3,-2,-3
1558434834767126,-3,-3,-5,-5,-8,-5,-4,-1
1558434834767126,-1,-1,-1,-8,-4,-1,-2,-3
1558434834773111,-1,-2,0,8,9,2,2,2
1558434834773111,-3,0,5,-9,-5,-1,0,-1
1558434834782086,0,1,-6,-2,3,4,0,-1
1558434834782086,-2,0,-2,-9,1,0,-3,-2
1558434834796049,-2,-6,-15,-25,-20,-4,-3,-2
1558434834796049,1,2,8,16,7,3,0,1
1558434834805025,-1,-1,-3,0,-3,-6,-3,-3
1558434834805025,-2,0,2,-1,-5,-4,-4,-1
1558434834818987,2,1,3,7,11,4,3,0
1558434834818987,-1,-4,-7,-10,0,0,2,0
1558434834827963,-1,-2,-3,-3,2,4,0,-1
1558434834827963,-1,-4,-2,3,-6,-6,-4,-1
1558434834833948,-1,0,1,-2,-5,-8,-5,-2
1558434834833948,-1,2,5,10,-3,-2,-3,0
1558434834842924,-2,0,3,0,-1,0,2,-1
1558434834842924,-2,0,0,-1,3,1,3,1
1558434834855889,2,3,7,17,15,4,-1,1
1558434834855889,-2,-6,-8,-23,-19,-4,-3,-3
1558434834864865,0,-1,-9,-4,4,8,4,1
1558434834864865,-1,-3,-1,2,-4,-1,-1,-1
1558434834870850,-2,-2,-3,-4,-4,-7,-5,-2
1558434834870850,0,2,6,15,11,-1,1,-2
1558434834887824,0,0,2,-4,-6,-4,-4,0
1558434834887824,0,-1,-2,3,-1,-3,-3,0
1558434834893792,-1,0,-4,-11,2,6,5,1
1558434834893792,1,3,6,31,9,1,-1,-1
1558434834902764,-2,-4,2,-6,-5,-1,0,-3
1558434834902764,-3,0,-6,-27,-4,1,-1,-1
1558434834915730,-2,-3,-5,-8,-11,-5,-2,0
1558434834915730,-2,-5,-10,-9,-9,-3,-1,0
1558434834924708,-2,0,8,15,11,2,-1,-2
1558434834924708,-1,-3,-1,3,-7,-4,-4,-3
1558434834930691,1,0,2,-6,1,-1,-1,-3
1558434834930691,1,3,9,19,7,4,-1,1
1558434834947644,-2,-4,-8,-10,-7,-5,-4,-3
1558434834947644,0,-1,-4,-8,-2,0,3,0
1558434834953631,1,0,1,3,-1,0,-2,0
1558434834953631,-2,-3,-7,-16,4,3,1,-1
1558434834962608,0,2,7,8,-2,-2,1,1
1558434834962608,-1,1,5,11,4,0,0,0
1558434834975569,-2,-3,-7,-3,-6,-2,0,-4
1558434834975569,-1,-1,0,-4,-1,-2,-1,0
1558434834984547,-1,-1,-2,0,0,-3,-3,1
1558434834984547,-2,-2,1,3,-2,-5,-2,-2
1558434834991527,-1,-3,0,6,2,0,2,1
1558434834991527,-2,-3,-2,-4,-4,0,-3,0
1558434835007485,-2,-1,-6,-15,-7,-4,-3,-3
1558434835007485,1,0,-5,9,15,7,0,1
1558434835013470,0,0,2,-8,-7,0,0,1
1558434835013470,-1,2,3,-3,-4,-5,-1,-1
1558434835022444,-2,-1,-1,5,-5,-4,-2,2
1558434835022444,1,-1,1,-4,0,-3,-6,-5
1558434835045382,-4,-3,-7,0,-2,-3,-2,-1
1558434835045382,-1,0,0,4,0,1,0,-2
1558434835046380,2,3,-1,-16,-4,0,2,2
1558434835046380,-2,-2,-2,-1,1,1,1,1
1558434835051369,-2,-1,2,11,-1,2,-1,0
1558434835051369,0,-4,-1,6,4,-2,-1,0
1558434835067324,-1,0,2,0,-1,-5,-2,-1
1558434835067324,-3,-3,-12,-13,-3,3,1,-3
1558434835073309,-2,-2,-6,0,-3,-3,-2,-3
1558434835073309,1,-1,1,6,1,-1,-3,-1
1558434835082284,0,-1,-1,-11,2,2,-1,-3
1558434835082284,0,-1,2,6,-5,-1,2,1
1558434835096247,-2,1,-1,-7,5,1,-2,0
1558434835096247,-1,0,-1,-2,-4,-3,-2,-1
1558434835105223,0,0,2,4,-3,-1,0,-1
1558434835105223,-1,-3,2,1,-8,-8,-4,-2
1558434835111206,-2,-1,-3,-13,-6,-2,1,-1
1558434835111206,2,2,3,9,17,8,4,3
1558434835127165,0,-2,-2,8,-3,-3,-2,-1
1558434835127165,1,0,-5,-10,-2,0,-2,-2
1558434835133147,0,-1,3,2,-3,-8,-7,-4
1558434835133147,-1,-3,-4,-18,-12,-7,-4,-3
1558434835142158,1,1,8,13,3,4,1,2
1558434835142158,-1,-1,1,7,8,7,7,2
1558434835156089,-1,-2,-2,-1,0,1,0,-2
1558434835156089,0,-1,-3,-7,-1,-1,-4,-1
1558434835165070,-1,-1,-5,-1,0,-1,-2,-1
1558434835165070,-3,-3,-6,-12,-12,-7,-3,0
1558434835171062,1,1,2,2,0,2,-1,1
1558434835171062,-1,-2,1,-1,-5,-8,-3,-3
1558434835188003,1,3,5,3,8,7,6,3
1558434835188003,-2,-4,-5,3,3,3,1,-1
1558434835193987,1,-3,-3,-2,-3,1,2,0
1558434835193987,-2,-2,-5,-4,-5,-2,-1,-2
1558434835208946,-3,-3,-7,-8,-9,-8,-7,-5
1558434835208946,-2,2,5,4,0,0,-3,-1
1558434835215927,-2,-1,0,0,0,-1,-2,0
1558434835215927,2,3,12,21,14,8,6,1
1558434835231884,-2,-7,-15,-33,-15,-5,-3,0
1558434835231884,-1,-2,0,-4,-6,-7,-2,0
1558434835232882,-2,-3,-8,-13,-2,-1,-2,-2
1558434835232882,-3,-2,-4,0,5,1,0,1
1558434835247842,-1,0,5,9,3,1,1,-1
1558434835247842,1,1,5,17,-3,-3,-1,-3
1558434835253832,-2,-4,-5,-8,-10,-10,-6,-3
1558434835253832,0,0,3,-7,-6,-5,-5,-4
1558434835268784,0,1,6,13,10,8,6,2
1558434835268784,0,1,0,0,-2,1,2,-1
1558434835275765,3,1,1,5,13,7,6,1
1558434835275765,-1,-2,-12,-15,-8,-1,-3,-1
1558434835284743,-1,-2,0,-1,-4,-8,-7,-4
1558434835284743,-1,0,5,4,2,-1,-3,0
1558434835290728,0,0,3,6,0,-2,-3,-3
1558434835290728,-2,1,-2,0,2,0,0,-2
1558434835307681,-1,-1,0,1,6,3,1,0
1558434835307681,0,2,6,14,6,6,1,1
1558434835313693,-2,-3,-12,-24,-4,-3,0,-1
1558434835313693,-3,-5,-1,-4,-5,-6,-3,-4
1558434835328626,-1,-1,1,5,-5,-5,-2,-3
1558434835328626,-1,-2,-3,-7,-2,-4,-4,-2
1558434835335606,-1,1,6,8,-3,-5,-5,-2
1558434835335606,1,1,-1,-4,-6,3,5,2
1558434835344584,-2,-5,-1,0,5,1,5,0
1558434835344584,-3,-3,-14,-7,0,1,1,0
1558434835350569,0,0,6,4,4,-2,1,-2
1558434835350569,-2,-2,-5,-5,-6,-6,-3,-2
1558434835367522,0,1,1,0,-2,-1,-2,-5
1558434835367522,1,0,1,0,4,-4,-2,-1
1558434835373505,-3,-1,-3,-1,-10,-3,0,1
1558434835373505,-4,-3,1,11,4,-1,-3,0
1558434835388465,-1,0,1,-8,-3,-1,-4,-1
1558434835388465,-3,-4,-17,-17,-4,-1,-1,-3
1558434835396445,-1,-2,4,7,10,6,3,1
1558434835396445,1,-2,-4,-1,-1,-1,1,2
1558434835405422,0,-1,1,4,-3,-4,-6,0
1558434835405422,-1,0,4,0,-2,-2,-1,-1
1558434835411405,-1,3,6,2,-3,-4,-4,0
1558434835411405,-2,-4,-8,1,-8,-4,1,-2
1558434835435351,-1,0,1,2,14,8,4,0
1558434835435351,1,1,6,8,4,6,6,2
1558434835436337,0,-1,-2,-3,-3,-2,2,0
1558434835436337,-1,3,3,-5,0,-2,-4,0
1558434835448306,-3,-1,-4,2,-8,-6,-6,-5
1558434835448306,-3,-1,-3,-4,-7,-8,-7,-1
1558434835456284,0,2,4,2,1,0,1,-1
1558434835456284,-1,-1,2,-1,0,5,0,-2
1558434835465260,2,1,4,10,1,2,3,2
1558434835465260,-3,-4,-4,-22,-5,0,-5,-4
1558434835471244,0,-2,-7,-10,-8,-7,-1,-1
1558434835471244,-2,-3,-7,0,-1,-4,-4,-4
1558434835487203,-1,-1,-5,-3,3,4,0,0
1558434835487203,2,1,6,6,4,3,2,3
1558434835493187,-2,1,1,3,3,4,-1,-1
1558434835493187,-3,0,3,-5,-4,-4,-3,-1
1558434835508145,1,3,4,10,2,1,0,1
1558434835508145,1,-1,0,3,2,0,0,0
1558434835516124,-1,-1,0,7,3,2,2,0
1558434835516124,-2,-4,-12,-22,-4,-2,-2,-3
1558434835532092,-4,-5,-5,-14,-8,-11,-5,-3
1558434835532092,-1,-2,1,6,-4,-5,-5,-4
1558434835538067,0,-1,2,2,0,-1,-1,0
1558434835538067,3,0,6,9,9,2,2,1
1558434835556017,2,1,0,-1,-2,0,-1,2
1558434835556017,1,-1,1,1,6,6,4,2
1558434835556017,-2,-1,-4,3,4,1,-2,-1
1558434835556017,2,4,4,1,-2,-4,0,-1
1558434835568985,-4,-5,-11,-25,-6,-5,-4,-3
1558434835568985,-2,1,10,16,2,-1,-2,-2
1558434835584939,-1,-3,-12,-16,-4,2,-2,-1
1558434835584939,-1,-1,3,4,1,2,1,1
1558434835585941,1,1,-1,2,1,-1,0,-1
1558434835585941,1,0,2,0,-3,-9,-1,-1
1558434835598903,-1,-4,-5,-5,-6,-2,-5,-4
1558434835598903,2,3,2,5,3,5,2,1
1558434835607878,0,0,2,6,6,4,2,-3
1558434835607878,-5,-2,-8,1,-7,-5,-3,-2
1558434835613862,-2,-1,-3,-10,2,-1,-3,-1
1558434835613862,-2,0,-4,-11,-8,-1,-1,-2
1558434835628828,-2,0,2,2,-1,-5,-1,-1
1558434835628828,0,1,-1,-2,-1,-3,-2,-1
1558434835635808,0,-1,3,8,-2,-3,-1,-1
1558434835635808,2,-1,7,8,10,3,1,-1
1558434835644782,-4,-9,-19,-19,-18,-1,-1,-3
1558434835644782,-2,-2,-8,-13,-6,-3,-4,-4
1558434835667728,-2,-3,-3,-7,-8,-4,-1,0
1558434835667728,-2,0,6,9,2,-5,-3,0
1558434835668718,-2,-3,3,3,-1,-5,-1,-3
1558434835668718,0,-2,1,1,4,3,1,0
1558434835673705,-2,1,5,6,-1,-3,-2,-1
1558434835673705,1,2,3,1,2,8,3,4
1558434835688666,0,-3,-10,14,4,3,1,0
1558434835688666,-2,-3,-10,-22,-17,-5,-3,-2
1558434835696644,-2,0,1,6,2,1,-1,-2
1558434835696644,-3,-4,-11,-11,-10,-6,-5,-4
1558434835711601,1,1,5,4,4,-1,-1,1
1558434835711601,4,6,4,4,12,10,10,3
1558434835718643,-1,-2,-1,-1,-2,-3,-3,-1
1558434835718643,-1,-1,1,3,2,0,1,-2
1558434835744517,0,-2,-4,-4,-4,2,-3,0
1558434835744517,-2,-1,0,1,-3,0,-2,-3
1558434835744517,1,0,1,1,7,7,5,3
1558434835744517,-2,0,-2,3,-3,-2,-5,-3
1558434835748518,-2,1,2,-9,-4,-9,-8,-3
1558434835748518,-2,-5,0,7,2,-3,-2,-1
1558434835764469,0,1,-11,-27,-5,-1,2,0
1558434835764469,0,-5,-2,-2,-4,6,3,1
1558434835771441,0,1,6,4,2,-1,1,-1
1558434835771441,-3,-1,0,-2,-2,-6,-6,-4
1558434835778455,0,2,7,6,1,1,4,1
1558434835778455,1,-2,-9,-12,-1,-2,0,0
1558434835794379,3,2,2,-7,-2,1,0,-1
1558434835794379,-1,-1,0,16,4,-1,-4,-2
1558434835795377,-3,-7,-7,-14,-13,-6,-5,-7
1558434835795377,-1,-1,7,9,3,0,2,1
1558434835808341,-2,0,-14,-19,-5,-2,-3,1
1558434835808341,-1,-1,-4,-9,0,1,0,-2
1558434835816320,0,2,4,8,3,1,0,-1
1558434835816320,-4,-1,-5,-2,-1,-2,0,-1
1558434835831282,-2,-3,8,15,1,-5,-2,1
1558434835831282,-3,-2,-5,-13,-6,-1,-2,-3
1558434835838262,-3,-4,-3,-2,-7,-8,-7,-4
1558434835838262,1,2,0,-7,-2,-1,-1,-1
1558434835855216,1,3,13,29,18,11,5,4
1558434835855216,1,-3,-1,-2,-2,2,1,1
1558434835856214,-2,-3,-9,-1,1,-2,-1,-1
1558434835856214,-1,0,1,-2,-10,-10,-5,-5
1558434835868182,0,-1,-4,-8,-7,-3,0,-2
1558434835868182,0,2,11,20,6,2,-1,1
1558434835876160,0,1,1,-9,2,4,3,1
1558434835876160,-3,-2,-6,-3,-2,-3,-2,0
1558434835891120,-2,-3,-2,-5,-4,-1,-1,-3
1558434835891120,-2,0,-2,-10,-1,0,-4,-2
1558434835898101,0,-3,0,7,-1,-5,-2,0
1558434835898101,-1,0,-1,8,7,-2,-1,0
1558434835914097,-2,-4,-6,-18,-4,0,3,1
1558434835914097,3,1,3,4,7,2,1,0
1558434835915056,-2,-2,-4,-15,-11,-4,-6,-3
1558434835915056,-1,-1,4,6,2,2,0,-3
1558434835936998,-1,1,0,0,1,1,-1,-3
1558434835936998,-3,-6,-10,-4,-11,-10,-4,-2
1558434835936998,1,2,4,5,9,3,4,4
1558434835936998,-1,-4,-7,-7,0,-1,0,2
1558434835950961,-1,-2,-1,5,-2,-5,-3,-2
1558434835950961,0,-1,6,5,-2,-3,-3,0
1558434835958938,0,-1,-2,1,6,5,3,1
1558434835958938,0,-1,6,11,2,-2,0,-1
1558434835973898,-2,3,0,-5,-1,-1,2,-1
1558434835973898,-2,-1,-8,-8,-1,-4,1,0
1558434835974897,-2,1,6,17,-1,-7,-5,-6
1558434835974897,-1,-4,-10,-24,-8,-1,-3,-2
1558434835989856,2,-1,5,7,6,5,3,1
1558434835989856,-4,-1,-3,-2,6,5,3,2
1558434835995842,1,1,3,3,-2,-1,0,2
1558434835995842,-1,1,2,4,2,-4,-5,-2
1558434836012807,-3,-1,-5,-9,-9,-7,-6,-5
1558434836012807,1,-1,8,4,-2,3,0,-1
1558434836018781,0,0,1,6,11,11,6,2
1558434836018781,2,0,-4,-1,3,3,3,1
1558434836033741,-1,1,2,8,6,1,-1,1
1558434836033741,1,-3,-5,-20,-12,-8,-3,-1
1558434836034736,-4,-1,4,14,-2,-7,-6,-4
1558434836034736,-1,-1,-5,-12,-3,1,-1,-1
1558434836048772,-2,-3,-3,3,-4,-5,-3,-3
1558434836048772,0,0,-1,4,1,3,4,1
1558434836064657,-1,-1,-2,-4,-2,1,1,4
1558434836064657,-3,-1,-1,2,-2,-1,-2,-1
1558434836070640,-1,0,-1,-7,-2,-1,-3,-3
1558434836070640,-2,1,3,22,6,3,1,-3
1558434836095575,2,2,-10,-19,-7,-3,-1,0
1558434836095575,1,-3,1,2,2,0,0,-1
1558434836096572,-2,-4,-6,-13,-9,-3,-3,-2
1558434836096572,0,-1,4,4,3,-2,0,0
1558434836097568,2,-3,-5,-6,-4,-3,-3,-2
1558434836097568,-1,-3,-7,-12,-1,0,-3,-3
1558434836116519,-3,-4,2,12,1,-2,-2,-1
1558434836116519,0,0,-1,4,3,-2,1,-3
1558434836117516,-1,-2,2,7,2,3,-1,-2
1558434836117516,1,2,3,0,-2,1,-1,1
1558434836139455,-2,-1,-2,-3,0,0,-1,1
1558434836139455,-2,-2,-5,-10,-8,-5,-4,-1
1558434836139455,-1,-1,0,3,1,-3,-4,-4
1558434836139455,-1,0,1,7,-1,1,2,0
1558434836154416,2,1,1,-4,3,7,5,2
1558434836154416,-2,-4,-6,0,3,-3,-3,1
1558434836155413,0,1,5,1,-3,-1,2,-1
1558434836155413,-2,0,1,13,3,-3,-3,-4
1558434836168415,-2,-4,-3,-5,-10,-6,-4,-2
1558434836168415,-3,-3,-6,-12,-3,0,0,2
1558434836176359,-2,-2,-1,-1,0,-1,0,0
1558434836176359,-1,-2,-1,6,6,1,2,0
1558434836192314,-1,1,0,-1,0,-2,-1,-1
1558434836192314,0,1,0,-2,-2,-2,-3,-2
1558434836198299,-4,-4,-2,6,0,1,-1,-2
1558434836198299,0,-1,2,-10,-3,-3,1,0
1558434836215252,0,-2,-7,-8,-4,0,0,-2
1558434836215252,0,0,-2,-6,1,0,-2,0
1558434836216250,-2,-1,-8,1,1,-2,1,1
1558434836216250,-2,-2,-1,-3,-5,-3,-1,-2
1558434836228246,1,0,2,-2,3,-2,0,-1
1558434836228246,-1,-1,0,5,-3,-1,2,-3
1558434836236198,-1,2,7,-2,0,0,0,-2
1558434836236198,-3,-5,-8,-17,-4,-4,-3,-2
1558434836251158,-3,-2,0,1,-2,-2,-1,0
1558434836251158,2,2,2,6,3,4,-2,3
1558434836258173,-2,-2,-3,-10,-3,0,-2,-2
1558434836258173,1,0,1,14,-2,1,-1,-2
1558434836274096,-2,-3,-9,-6,1,5,2,0
1558434836274096,1,-3,-1,-18,-5,-4,-1,0
1558434836275094,0,-3,-1,1,-2,-9,-6,-5
1558434836275094,-2,-2,1,-2,-7,-9,-3,-2
1558434836290054,-3,-1,2,14,2,-4,1,-1
1558434836290054,0,1,0,-9,0,4,0,0
1558434836296036,0,0,-2,0,1,4,3,4
1558434836296036,-1,-1,-3,-1,2,3,1,1
1558434836310998,0,1,-3,-17,-2,-1,-2,-1
1558434836310998,-2,-2,5,4,0,-4,-5,-3
1558434836319006,1,-5,-7,-3,-4,-3,1,3
1558434836319006,-1,0,-1,2,6,3,-1,-1
1558434836333936,1,3,1,-3,-9,-3,-1,2
1558434836333936,-1,0,-1,6,0,-1,0,-1
1558434836334934,0,0,-3,3,2,4,-1,-1
1558434836334934,0,1,-2,-5,-4,-1,0,-1
1558434836349894,-2,-3,1,4,2,-1,-4,1
1558434836349894,-1,-1,1,-2,-2,-1,0,2
1558434836355876,-2,-2,4,10,-2,-4,-2,2
1558434836355876,1,1,-2,-1,1,1,3,1
1558434836370837,0,-1,2,1,4,2,1,-2
1558434836370837,-2,-2,-12,-6,-1,-3,-2,-2
1558434836378815,0,0,-1,-1,3,-1,-2,-2
1558434836378815,-3,-2,1,-1,-9,-2,-7,-2
1558434836393778,0,-1,0,10,-1,-4,-3,-2
1558434836393778,-1,-1,-2,-4,3,0,3,0
1558434836394773,-1,-2,-8,-13,-4,-4,-3,-2
1558434836394773,-3,-2,1,4,-3,-5,-4,-1
1558434836409735,1,-1,1,-6,-2,0,0,1
1558434836409735,-3,-3,0,7,-4,-2,-3,-2
1558434836415719,-1,-1,0,-3,3,6,2,-1
1558434836415719,0,-1,4,0,0,0,-1,0
1558434836430676,0,-1,-3,2,5,2,0,0
1558434836430676,2,1,3,2,0,1,2,-2
1558434836438683,0,-1,-4,-14,-6,-4,-2,-1
1558434836438683,-2,1,0,7,0,-4,-3,1
1558434836453620,-3,-2,-1,-1,-2,-5,-4,-2
1558434836453620,-1,1,-1,6,6,3,-1,0
1558434836460627,-1,-2,-3,-3,-5,-2,-6,-4
1558434836460627,-1,-1,-1,-3,2,1,5,1
1558434836469573,-3,-3,1,5,0,-1,0,-5
1558434836469573,0,-1,2,-2,-5,-3,-1,-3
1558434836475587,0,-1,4,15,-1,-2,-1,1
1558434836475587,-1,0,-2,-17,-5,-3,-6,-2
1558434836490551,0,-1,-6,-5,-1,-6,-3,-2
1558434836490551,-1,-5,-6,-14,1,-4,-4,-2
1558434836498536,-2,0,4,2,1,2,3,2
1558434836498536,1,-2,3,13,3,-2,-3,-2
1558434836515450,-4,-7,-20,-25,-13,-5,-4,-2
1558434836515450,-1,-4,1,4,-1,3,0,-2
1558434836521435,0,1,1,-2,5,2,1,1
1558434836521435,-2,0,5,10,7,3,4,2
1558434836530427,0,0,5,-6,-2,0,0,0
1558434836530427,-1,-1,-4,-5,-7,-3,-4,0
1558434836536395,-3,-4,-6,-10,-5,-2,-3,-1
1558434836536395,-1,-4,-15,-10,-6,-2,-1,-1
1558434836551392,-1,-1,0,3,7,3,2,0
1558434836551392,-4,-4,-7,-5,-8,-4,-2,-1
1558434836558370,-2,-1,8,14,2,-3,-1,-2
1558434836558370,1,1,1,-2,0,-2,0,-2
1558434836573331,1,0,3,8,3,3,0,0
1558434836573331,-2,4,2,-5,1,-2,1,0
1558434836581301,-1,0,-1,-1,-5,-6,-4,-1
1558434836581301,-4,-1,-2,-24,-8,-3,-3,-2
1558434836590249,0,-1,3,23,5,1,0,-1
1558434836590249,-2,-1,-1,2,4,4,2,-3
1558434836596234,-1,0,-6,-16,-8,-3,-1,-3
1558434836596234,-1,-3,-5,-2,-7,-6,-1,-3
1558434836611230,1,-1,2,7,11,5,1,-1
1558434836611230,-2,-3,4,8,4,3,0,1
1558434836618209,3,0,-2,-6,4,3,2,1
1558434836618209,0,0,1,0,-9,-1,1,0
1558434836633134,-3,-1,0,-6,-4,-3,-1,-3
1558434836633134,-3,-3,-4,4,0,-4,-3,-5
1558434836641141,1,-1,1,2,3,0,2,1
1558434836641141,-1,-1,-1,-9,-3,1,-6,1
1558434836665088,0,0,-3,-6,-8,-8,-3,2
1558434836665088,2,2,5,12,4,1,0,1
1558434836666085,-1,-3,-9,-1,1,0,0,1
1558434836666085,0,-2,-5,-3,5,3,0,-1
1558434836671130,-1,-2,2,4,-1,-2,-1,-3
1558434836671130,-2,-2,1,-14,-15,-7,-5,-2
1558434836679013,-2,0,-6,-9,4,6,3,-2
1558434836679013,0,0,7,12,-1,0,3,1
1558434836693974,-2,-3,-18,-31,-10,-6,-3,-1
1558434836693974,-1,-3,1,18,8,6,3,2
1558434836701330,-2,3,7,1,-1,0,1,-1
1558434836701330,-1,-4,-4,2,1,-2,-4,-6
1558434836717288,-2,1,3,-2,-7,-1,-2,-3
1558434836717288,-1,1,2,11,5,2,2,2
1558434836717288,-2,2,1,-14,-7,-1,-4,0
1558434836717288,-6,-3,-1,-1,0,0,-1,-1
1558434836731346,-2,-2,2,7,2,1,-4,0
1558434836731346,0,1,0,-3,2,2,3,2
1558434836738857,0,2,7,20,6,-2,-5,-2
1558434836738857,-1,-2,-2,-5,-6,-4,2,1
1558434836753813,-3,-3,0,5,5,0,-2,-4
1558434836753813,2,1,-6,-12,-5,-2,-2,0
1558434836760794,0,-2,-1,4,-5,-7,-1,-1
1558434836760794,-1,-4,-2,4,6,3,-1,0
1558434836776998,-2,-4,-11,-8,-3,0,-3,4
1558434836776998,1,1,3,-12,-1,-2,-3,-3
1558434836777751,-5,-5,-10,-9,-7,-2,-6,-3
1558434836777751,0,3,-4,-3,2,2,2,0
1558434836800690,-1,3,8,9,0,0,0,-1
1558434836800690,0,0,-5,-6,-3,-3,0,-2
1558434836801685,1,-2,2,12,0,-2,-5,-5
1558434836801685,-1,0,4,-9,-6,-2,0,1
1558434836813688,4,1,-2,-6,2,3,5,6
1558434836813688,-2,-1,-4,-4,-6,-6,-5,-3
1558434836820634,-2,-2,4,9,5,1,-4,-2
1558434836820634,0,-1,-3,-3,-4,-3,1,-1
1558434836836593,-1,-3,0,8,-3,-5,-1,-2
1558434836836593,-2,0,-2,-9,-1,3,6,1
1558434836837589,-2,1,-1,-5,-2,2,-1,-3
1558434836837589,0,0,0,9,4,4,-1,-2
1558434836850589,-1,1,2,-6,-5,1,0,-3
1558434836850589,-4,-3,-8,-4,-2,-2,-5,-1
1558434836866510,-1,-2,-10,-22,-9,-3,-3,2
1558434836866510,1,-2,-5,-7,-2,-3,-1,-2
1558434836873493,0,-3,5,14,0,-3,-2,-2
1558434836873493,-1,-2,0,-2,11,1,2,-1
1558434836889449,-4,-5,-6,-6,-12,-3,2,-1
1558434836889449,1,-1,0,-4,3,-5,-5,-4
1558434836896433,1,-3,0,-1,-1,3,1,-1
1558434836896433,2,0,3,7,-1,-3,-5,-1
1558434836897428,-1,-4,0,3,1,-2,2,-1
1558434836897428,-3,-1,-1,11,3,-1,-3,2
1558434836911391,0,1,-2,-23,-3,1,1,2
1558434836911391,-4,-3,-4,-6,-7,-1,-6,-4
1558434836918372,1,-2,6,19,0,-1,0,-2
1558434836918372,-3,-1,-4,3,4,3,1,-2
1558434836933360,-1,-1,-6,-6,-8,-3,2,0
1558434836933360,-3,-2,0,5,1,0,1,-1
1558434836941310,-2,0,-1,-10,-2,-5,-5,-2
1558434836941310,-1,0,3,9,-5,0,-3,-1
1558434836956270,-2,0,0,1,2,2,3,1
1558434836956270,1,0,2,7,-3,0,0,-1
1558434836957268,3,-1,-4,0,0,-1,-2,1
1558434836957268,0,-5,-5,-26,-8,-5,-2,-2
1558434836971231,-2,0,-2,0,1,-2,-3,-2
1558434836971231,-4,-2,-3,-3,-5,-6,-2,-4
1558434836978212,1,4,5,18,10,5,3,0
1558434836978212,1,0,-2,-11,6,9,3,1
1558434836993182,-4,-6,-7,-2,2,2,0,0
1558434836993182,-1,0,4,-7,-5,-2,0,1
1558434837001151,-4,-2,-3,7,-1,-4,-4,-3
1558434837001151,-2,-2,-1,-1,-5,-7,-8,-6
1558434837017108,0,1,4,7,2,1,-1,-1
1558434837017108,1,0,-1,-3,0,0,-1,-1
1558434837017108,-2,-3,-1,-11,-1,-1,2,0
1558434837017108,2,-1,-3,-8,-8,-3,-1,3
1558434837031324,-1,-1,8,10,0,-3,-2,-1
1558434837031324,-2,-1,-2,-2,-4,-3,-1,-1
1558434837039051,0,2,-6,-7,-2,-1,-2,-3
1558434837039051,-2,-1,-4,13,4,2,1,-4
1558434837054009,-1,-1,-3,-6,-1,1,0,-4
1558434837054009,1,1,-6,-3,2,5,0,3
1558434837069004,0,2,5,2,-3,1,2,4
1558434837069004,-1,-1,5,11,0,-4,-2,2
1558434837076975,0,0,-9,-7,-3,-4,-4,1
1558434837076975,-1,-2,1,-8,-1,-1,0,0
1558434837076975,-2,-4,-9,-12,-2,1,-3,-3
1558434837076975,-2,1,7,7,-1,0,-5,-1
1558434837106901,-1,0,4,3,2,1,-1,1
1558434837106901,-2,-1,-2,-2,-3,-2,-2,-2
1558434837107867,3,1,1,1,13,7,4,4
1558434837107867,0,-1,-2,-2,-3,1,5,1
1558434837113848,-2,-1,4,7,-2,-6,-5,-5
1558434837113848,-1,-2,1,13,-2,-1,2,-1
1558434837120830,-2,-4,-1,-12,-11,-7,1,-1
1558434837120830,-1,-1,-5,-1,3,7,2,1
1558434837136791,0,0,-5,-6,5,2,1,1
1558434837136791,-1,-2,-2,9,2,-2,-1,1
1558434837137785,-2,1,-2,6,-5,-7,-13,-5
1558434837137785,-2,0,0,-2,-1,-5,3,0
1558434837151988,-1,-1,-3,-1,-2,-2,-1,-3
1558434837151988,2,0,0,-13,-6,-1,5,3
1558434837159242,-1,-3,2,5,-1,1,4,1
1558434837159242,2,3,10,23,6,2,-3,0
1558434837174133,-2,-5,-15,-50,-16,-4,-3,-3
1558434837174133,-2,-4,0,8,7,1,-1,-4
1558434837182081,-4,-3,-9,-6,3,1,1,-2
1558434837182081,-2,-1,4,12,2,-3,1,1
1558434837197008,-2,1,6,17,0,-1,2,2
1558434837197008,-2,-4,-12,-24,-11,-8,-6,-4
1558434837197626,1,0,4,10,13,5,0,2
1558434837197626,0,-1,-4,-8,-6,1,-1,-3
1558434837211918,2,-1,4,6,5,-1,-2,-3
1558434837211918,-1,0,3,0,0,-2,-2,-1
1558434837218570,-2,-5,-14,-15,-4,-1,1,1
1558434837218570,-3,-2,5,5,0,-2,-1,0
1558434837233897,-1,-1,-7,0,-5,-1,-1,1
1558434837233897,0,1,4,6,3,2,2,-1
1558434837241606,-4,-2,1,-7,-8,-6,-2,-3
1558434837241606,-1,1,-4,-6,-6,-8,-1,-1
1558434837257524,1,4,9,16,10,9,4,3
1558434837257524,1,-2,-8,-11,-6,1,-3,-2
1558434837257524,1,0,5,12,6,2,-2,0
1558434837257524,0,-2,-5,-9,-8,-3,0,1
1558434837271461,-1,-2,-3,-3,-4,-5,-5,-2
1558434837271461,1,2,4,12,7,5,3,1
1558434837278484,-1,-1,5,-8,-6,-3,-2,-4
1558434837278484,-4,-6,-16,-28,-12,-9,-9,-6
1558434837293509,-2,-1,9,14,1,-1,0,-1
1558434837293509,1,-1,-6,-8,-2,5,3,3
1558434837301716,2,1,3,5,4,4,4,0
1558434837301716,0,0,5,5,2,1,-1,1
1558434837317555,-2,-5,-7,1,-3,-3,-8,-3
1558434837317555,-2,-3,-3,-20,-5,-5,-5,0
1558434837317555,-1,1,-1,-3,-1,1,2,-1
1558434837317555,1,0,-3,7,4,2,0,-3
1558434837331277,0,-5,-6,-17,-7,-5,0,-3
1558434837331277,0,-1,6,23,6,-3,0,-2
1558434837338252,4,2,1,-2,7,6,1,2
1558434837338252,-1,-4,-6,-14,-2,-2,-4,-3
1558434837353208,-5,-3,-3,-2,-1,-3,-4,-1
1558434837353208,-3,-1,-5,-22,-7,-7,-4,-4
1558434837361189,-2,-1,-5,-3,-6,-5,-4,-3
1558434837361189,-1,-1,1,2,3,2,3,2
1558434837377147,3,4,5,7,14,11,6,4
1558434837377147,-3,-4,-2,12,4,0,0,-3
1558434837378143,-4,-4,-6,-2,-6,-2,-3,-4
1558434837378143,-1,0,0,-6,-5,-1,1,2
1558434837391425,-1,0,2,5,-1,-1,1,0
1558434837391425,-1,2,11,9,7,-2,-4,-1
1558434837399394,-2,-6,-12,-27,-16,-7,-6,-2
1558434837399394,0,-2,-7,6,9,5,2,0
1558434837414047,2,-3,-3,-9,6,6,6,0
1558434837414047,-4,0,-3,-3,-4,-3,-1,-2
1558434837421027,0,1,7,14,1,-3,-4,-1
1558434837421027,-1,1,3,-3,-1,-3,0,-1
1558434837435988,-1,2,0,1,-2,-2,-1,-3
1558434837435988,1,-1,1,10,-3,0,1,-2
1558434837443976,-1,-1,6,12,-3,1,-3,-1
1558434837443976,2,0,-3,-8,0,1,-3,1
1558434837450948,0,1,-2,2,3,-1,-1,-2
1558434837450948,0,-3,-6,1,-6,-2,-1,-1
1558434837466907,-2,0,-1,-1,0,-6,-2,-2
1558434837466907,-3,-4,-2,-6,-7,-3,-3,-2
1558434837473890,-1,-2,-9,-9,-4,-5,2,0
1558434837473890,0,2,-1,7,6,-1,0,-1
1558434837480904,-2,1,4,-2,-3,2,4,1
1558434837480904,-2,0,-1,-1,0,1,-6,0
1558434837495909,-1,-1,3,2,-3,-4,-2,1
1558434837495909,-1,-4,-3,-6,1,1,-2,-2
1558434837504039,2,-1,-5,-8,-7,-5,2,-4
1558434837504039,0,1,-1,2,-1,-1,-1,-3
1558434837511074,-2,-1,-1,-9,-4,-6,-5,-3
1558434837511074,-3,-1,-2,-6,-3,0,-2,0
1558434837519027,-2,0,3,5,6,3,0,0
1558434837519027,3,-1,5,1,0,-1,1,-1
1558434837534003,-2,-4,-6,4,-4,-3,-4,-2
1558434837534003,-1,0,-1,-4,-2,-1,-1,-1
1558434837540980,1,-1,-3,1,8,6,1,0
1558434837540980,0,2,6,10,7,3,3,-1
1558434837555898,1,0,3,0,-9,-2,0,-2
1558434837555898,1,-1,-4,-3,-5,-1,2,1
1558434837563906,1,-1,0,5,-1,-3,-1,0
1558434837563906,1,0,-1,-9,-5,-6,-3,0
1558434837570891,-3,0,0,3,-2,0,-3,-3
1558434837570891,-2,-2,-5,-15,-3,0,0,1
1558434837578866,-1,-1,-1,1,6,0,2,0
1558434837578866,-1,-3,3,1,1,-1,3,0
1558434837594796,-1,-1,-8,-6,-8,-4,-7,-3
1558434837594796,-3,-6,-2,5,2,2,-7,-6
1558434837600813,-3,-3,-2,2,-5,-3,-1,-1
1558434837600813,2,1,2,6,7,5,5,1
1558434837615739,0,1,0,-1,5,4,5,2
1558434837615739,1,1,0,-3,-5,-6,-2,-3
1558434837624715,-4,-4,-3,7,-5,-6,-6,-4
1558434837624715,-2,-2,1,4,-5,-3,-3,0
1558434837638740,-1,0,2,0,1,-1,-1,2
1558434837638740,-1,1,0,1,-1,0,-1,0
1558434837639674,0,2,-1,-4,5,2,3,-1
1558434837639674,-2,-1,-1,2,-3,-3,-8,-3
1558434837653637,-2,-4,-8,-7,0,-4,-1,-1
1558434837653637,1,-1,-2,-9,-4,2,-2,0
1558434837660703,2,1,4,-1,6,7,4,1
1558434837660703,-4,-3,-9,-4,0,-1,-3,-2
1558434837676610,-3,-2,2,0,-7,-7,-3,-4
1558434837676610,-3,0,1,0,-8,-8,-3,3
1558434837684748,1,-1,-1,-3,0,4,3,3
1558434837684748,-1,-1,1,7,6,3,5,0
1558434837699708,-1,-1,2,8,0,2,2,0
1558434837699708,0,-2,-3,-6,-2,-2,3,-1
1558434837699708,-3,-3,0,-3,-8,-8,-5,-5
1558434837699708,1,-2,-6,0,1,2,-1,-1
1558434837713559,-4,-1,2,-3,-8,-7,-6,-2
1558434837713559,-2,0,2,7,9,4,4,2
1558434837721522,-1,-2,-11,-9,-9,-5,-7,-1
1558434837721522,1,1,3,6,1,4,0,1
1558434837736417,1,0,1,-4,8,8,1,0
1558434837736417,-1,-2,-6,-2,0,-4,-4,-3
1558434837743453,-3,1,-2,-7,-8,-4,-1,-2
1558434837743453,-3,-3,-5,-3,-3,-2,1,-2
1558434837759385,1,-1,2,5,2,0,-2,0
1558434837759385,0,-1,-1,-1,-1,-4,-3,-1
1558434837759385,3,0,7,10,0,-3,0,1
1558434837759385,1,2,-4,-4,2,1,2,0
1558434837781331,-1,-1,4,-8,-2,2,2,1
1558434837781331,-2,-1,1,8,-3,-3,0,-2
1558434837782295,-5,-5,-6,-8,-3,-4,-2,-2
1558434837782295,1,0,3,-3,-8,-6,-2,-3
1558434837797291,-1,0,1,1,-2,-3,-2,-2
1558434837797291,2,-1,-3,1,2,5,3,0
1558434837804236,-1,-2,-2,3,3,3,-2,0
1558434837804236,0,-1,4,-1,4,1,-4,-1
1558434837819194,0,-1,-7,-1,3,0,3,-3
1558434837819194,-1,0,3,-1,-7,-1,2,-1
1558434837820192,0,0,-2,-13,0,1,1,-2
1558434837820192,-3,0,-1,-4,-3,-3,-4,1
1558434837833157,-1,1,2,3,-10,-7,-9,-4
1558434837833157,-1,-1,3,3,3,0,-1,-1
1558434837849114,-1,-2,1,-2,6,-2,-1,-3
1558434837849114,0,-4,-1,-1,-7,-1,0,-1
1558434837856183,-1,-1,-1,-4,3,5,1,4
1558434837856183,1,0,-2,9,0,1,2,0
1558434837864295,-3,-1,-3,0,-2,-1,-6,-1
1558434837864295,-9,-5,-9,-7,-8,-6,-8,-7
1558434837879253,-1,-1,-5,-8,0,1,7,3
1558434837879253,0,2,5,4,8,1,2,2
1558434837880032,1,0,1,0,1,3,4,1
1558434837880032,-1,0,-2,7,6,2,-2,1
1558434837894219,-3,-3,-5,-5,-7,-4,-7,-4
1558434837894219,-3,-3,-3,-7,-7,-7,-5,-3
1558434837901200,-2,-1,0,-3,-5,-9,1,0
1558434837901200,1,-3,1,0,-10,-2,2,-1
1558434837924961,-1,-4,-6,-6,1,1,3,-2
1558434837924961,-1,-4,-4,-7,-6,0,-6,-2
1558434837925911,1,-1,1,15,2,2,-3,-1
1558434837925911,1,-2,-3,-15,-4,-4,-3,-1
1558434837938904,0,0,-2,0,-5,-7,-4,-5
1558434837938904,-2,0,-2,-6,-3,-1,-2,-3
1558434837939871,0,2,4,8,11,4,-2,2
1558434837939871,-5,-3,-9,-4,1,3,2,0
1558434837953863,0,0,6,13,0,5,2,0
1558434837953863,0,-1,-3,-16,-8,-3,2,2
1558434837960843,-1,-1,3,15,6,3,3,1
1558434837960843,-2,-3,1,-3,-7,-7,-3,-2
1558434837975776,-1,0,4,-1,-2,-4,-6,-4
1558434837975776,-4,-3,-4,-2,4,2,-3,-4
1558434837984842,-1,1,1,-6,2,3,3,1
1558434837984842,-2,3,-1,5,0,-4,1,-3
1558434837999800,0,-1,-5,0,1,0,2,1
1558434837999800,-1,1,4,14,5,3,2,1
1558434837999800,-1,-4,-11,-23,-12,-1,-4,-6
1558434837999800,-2,-3,4,10,2,-2,-5,-2
1558434838013925,-3,-7,-6,-8,-11,-9,-6,-2
1558434838013925,-2,3,1,-11,-3,-1,0,-2
1558434838020657,-1,0,3,14,5,1,-1,-4
1558434838020657,1,0,-5,-11,0,1,2,-2
1558434838035768,0,0,6,13,1,-1,-2,1
1558434838035768,-1,-4,-3,-5,-7,-7,-3,3
1558434838044734,-1,1,-2,-3,4,3,3,0
1558434838044734,-2,-1,-6,-4,-4,0,-1,1
1558434838059552,-1,0,2,12,13,8,2,3
1558434838059552,0,0,3,1,-4,-1,1,-1
1558434838059552,-3,-4,-9,-12,-10,-9,-3,0
1558434838059552,0,1,1,-6,3,4,2,1
1558434838073665,1,0,-2,-3,3,3,2,2
1558434838073665,0,0,1,-1,0,0,-4,-1
1558434838081604,-1,-2,0,7,-9,-3,-2,-2
1558434838081604,0,-1,-2,1,5,-2,0,1
1558434838096558,-4,-2,-6,-16,0,1,1,1
1558434838096558,-1,-3,-2,3,-7,-7,-6,-4
1558434838104489,2,1,7,3,-2,-1,1,0
1558434838104489,0,0,-4,5,6,3,-4,-1
1558434838119391,1,0,0,-2,0,-4,2,2
1558434838119391,1,-1,1,0,5,1,-2,-2
1558434838119391,-4,-5,-6,-10,-11,-6,-5,-3
1558434838119391,2,1,7,6,6,4,4,-1
1558434838133387,-2,-3,-3,8,1,0,-2,-3
1558434838133387,-2,-1,-3,0,0,-1,0,0
1558434838141362,0,-1,-3,-4,-2,-1,-3,-1
1558434838141362,-1,0,1,0,-3,-6,-3,-2
1558434838156321,-1,2,1,2,0,-2,-2,0
1558434838156321,-1,-2,-3,4,11,6,6,1
1558434838163306,-3,-2,2,-13,-14,-8,-5,-2
1558434838163306,-4,-4,-6,-11,-6,0,-4,1
1558434838180264,0,1,1,2,4,2,-1,1
1558434838180264,-3,0,1,15,9,8,2,-1
1558434838181227,1,1,-1,-7,-2,-1,0,0
1558434838181227,-1,-1,0,3,-11,-9,-5,-2
1558434838193224,1,0,4,-2,2,4,2,-1
1558434838193224,1,-1,0,-4,-4,0,-1,0
1558434838201207,-2,-4,-4,11,8,1,1,-4
1558434838201207,-3,-3,1,-4,1,-2,0,-2
1558434838216171,-4,-2,-5,0,-5,-3,-4,-4
1558434838216171,-1,-2,-2,-8,-5,-3,-4,-1
1558434838223114,0,2,2,-1,3,4,-2,-1
1558434838223114,1,-1,1,4,-3,-3,0,0
1558434838239075,0,-2,1,2,-1,-3,-2,-3
1558434838239075,2,0,2,0,-2,1,2,1
1558434838240068,0,3,2,7,2,-2,0,1
1558434838240068,-2,-1,-4,-8,1,4,2,-1
1558434838255029,0,-1,0,-8,1,4,2,2
1558434838255029,-2,-4,-2,3,-3,-6,-4,-2
1558434838261041,-2,-2,-7,-12,-6,-3,0,0
1558434838261041,0,1,-1,3,2,-1,-1,-4
1558434838276002,-1,-3,0,-1,-9,-7,-7,-7
1558434838276002,-1,-1,5,1,-5,-3,2,0
1558434838283984,-3,-2,-8,-9,7,6,4,2
1558434838283984,1,2,5,5,0,0,1,2
1558434838298945,-2,-4,-5,-6,5,1,-2,-2
1558434838298945,-2,-1,-9,-2,-13,-6,-8,-4
1558434838299911,-1,-1,4,5,7,2,-4,-1
1558434838299911,0,-1,-4,-17,-7,-3,-4,-1
1558434838314180,-3,-5,-6,-6,-7,-4,-1,-1
1558434838314180,0,-1,1,10,12,4,2,0
1558434838329893,2,0,0,2,3,6,6,1
1558434838329893,-1,-2,5,14,4,-1,-2,-2
1558434838335855,-1,-1,-3,-12,-6,-1,2,-1
1558434838335855,-2,-2,-14,-14,4,-3,-1,-1
1558434838352070,-2,-2,0,-4,-10,-3,-1,-3
1558434838352070,-1,0,-1,-1,-2,-2,0,-2
1558434838358753,0,2,3,-3,-8,-5,-3,-2
1558434838358753,-2,-2,-1,3,9,7,-1,-2
1558434838367028,0,-2,-1,-4,-4,-3,-5,-2
1558434838367028,-3,-1,0,3,-6,-4,-1,1
1558434838381991,-1,-2,-8,-2,-3,-2,-2,0
1558434838381991,3,4,4,1,1,3,3,2
1558434838382689,-3,-5,-9,-21,-7,-2,-2,-2
1558434838382689,-1,-3,3,6,1,2,1,0
1558434838404629,1,0,-3,-3,1,-1,-2,-1
1558434838404629,-3,-1,-1,-3,-5,-4,-3,-2
1558434838404629,0,2,3,7,3,-4,-1,-2
1558434838404629,-1,-1,-8,-19,-9,-4,-2,-6
1558434838418592,-2,-1,3,18,8,5,2,-3
1558434838418592,1,0,3,-8,-2,3,3,1
1558434838426573,1,-1,1,4,6,0,-4,1
1558434838426573,-1,-1,-4,3,-2,-1,-2,0
1558434838433586,-1,-2,-6,-8,-1,-5,-4,-2
1558434838433586,0,-2,-3,1,-7,-5,-1,-1
1558434838440533,-3,-2,-1,-5,-9,-5,-2,0
1558434838440533,1,-2,-8,4,5,1,0,1
1558434838455494,0,2,8,8,1,1,-2,-2
1558434838455494,-2,1,2,-3,-3,-6,-6,-2
1558434838463470,0,-1,0,10,2,1,2,1
1558434838463470,-1,-2,6,10,0,0,-1,-1
1558434838478755,0,-2,-8,-14,-7,-4,-1,1
1558434838478755,1,-1,-3,-10,4,7,2,1
1558434838486410,-1,-1,2,13,3,-2,-2,-1
1558434838486410,-4,-5,-7,-17,-7,-2,1,-2
1558434838493600,-2,1,7,17,4,3,2,1
1558434838493600,-4,-3,-7,-10,-8,-7,-2,-2
1558434838501633,-3,-3,-5,-8,-4,-3,-4,-2
1558434838501633,2,1,5,15,10,6,1,2
1558434838524628,-2,-2,-6,-21,-10,-6,-5,-3
1558434838524628,-2,-1,1,11,1,-3,-1,0
1558434838525307,-1,1,-1,2,5,5,5,1
1558434838525307,-2,-1,2,-1,0,-4,-2,3
1558434838538702,1,0,4,6,5,2,2,1
1558434838538702,-2,-2,-4,-4,-10,-8,-4,-4
1558434838547640,-1,0,4,3,-3,-5,-8,-5
1558434838547640,0,-1,-9,-19,-6,2,5,3
1558434838562597,1,1,3,11,6,2,0,2
1558434838562597,-3,-2,-2,8,2,-1,-2,-4
1558434838562597,0,-1,-4,-9,-7,-1,-3,-3
1558434838562597,-5,-3,-5,-13,-2,-4,-2,-2
1558434838576171,-3,-1,3,7,-4,1,2,-4
1558434838576171,-1,0,-7,-9,4,-1,2,1
1558434838584475,0,0,2,6,-1,-1,-1,-1
1558434838584475,0,0,2,5,0,-1,-3,-1
1558434838599309,-3,-4,-7,-5,-5,-2,-1,0
1558434838599309,0,0,5,-19,-5,-1,-3,0
1558434838607335,-2,-6,-16,-11,-10,-12,-6,-1
1558434838607335,-1,1,4,5,0,-5,0,-1
1558434838622335,-1,0,1,2,1,3,1,1
1558434838622335,4,3,9,19,15,11,4,3
1558434838622335,0,-1,-3,-2,5,4,1,-1
1558434838622335,-1,-2,-3,-16,-9,-5,-5,-1
1558434838637008,0,0,-1,8,-6,-5,-1,-2
1558434838637008,0,2,-1,3,-4,1,2,1
1558434838642999,-2,0,1,-12,3,2,4,2
1558434838642999,0,0,3,9,-3,-3,-3,0
1558434838660013,-2,-1,-1,4,1,-5,-4,-1
1558434838660013,-2,-2,3,-7,-13,-8,-5,-2
1558434838667269,-5,-6,-15,-10,-2,-1,2,1
1558434838667269,-2,-2,0,11,11,9,1,-2
1558434838682230,-1,1,-7,-10,4,6,2,2
1558434838682230,-2,1,3,12,-2,-4,-6,-3
1558434838682230,-2,-1,-6,-17,-9,-7,-3,-3
1558434838682230,-1,0,3,11,-7,-1,-1,-2
1558434838696141,0,-1,-3,-11,5,5,3,2
1558434838696141,-2,-2,-2,4,2,0,0,-1
1558434838703830,1,3,9,12,2,0,0,-1
1558434838703830,-1,-1,-3,-5,-4,-6,-1,-3
1558434838719141,-2,-5,-1,1,-9,-8,-6,-4
1558434838719141,0,-2,-4,0,6,0,4,-1
1558434838726837,0,0,2,-4,-2,4,-3,0
1558434838726837,3,3,1,12,8,7,5,-1
1558434838742032,0,-2,1,-7,-3,-1,-1,-1
1558434838742032,-2,-2,-2,-3,-2,-2,-1,-2
1558434838742727,-1,-1,3,12,3,-2,1,-2
1558434838742727,-1,1,1,3,1,-2,-4,-3
1558434838756729,-1,1,3,2,3,1,0,2
1558434838756729,-3,-2,-2,8,-6,-1,-4,0
1558434838763982,-2,-1,-1,-18,4,2,0,2
1558434838763982,1,-2,4,3,-2,0,2,1
1558434838778948,-1,-3,-6,-1,-1,-3,-1,-2
1558434838778948,-1,-3,-2,-1,-3,-1,2,-1
1558434838786609,0,1,0,10,1,2,-1,-1
1558434838786609,-1,-6,-11,-19,-6,-4,-4,-4
1558434838802565,-1,1,3,2,-9,-7,-5,-3
1558434838802565,-4,-2,-3,5,5,2,0,-1
1558434838802565,0,3,-2,-4,6,8,4,3
1558434838802565,-2,-2,-1,-11,0,-1,-3,0
1558434838816132,1,1,4,5,3,1,-3,-1
1558434838816132,-1,-1,1,-16,-11,-7,-3,-4
1558434838824069,1,-3,0,12,1,-2,-1,-2
1558434838824069,1,1,4,5,4,-3,-1,1
1558434838838771,-2,-5,-9,-7,-5,1,-2,-1
1558434838838771,1,2,0,-1,2,1,2,1
1558434838846750,-4,-6,-6,-8,-11,-6,-4,-3
1558434838846750,-3,0,1,4,-1,-3,-3,1
1558434838862050,0,0,1,0,0,4,4,3
1558434838862050,3,0,3,8,11,5,-3,-1
1558434838862978,1,3,4,4,4,3,5,0
1558434838862978,-1,1,3,-2,-4,-4,-2,-4
1558434838876037,2,3,8,11,3,-1,-2,-6
1558434838876037,-2,-9,-17,-14,-10,-5,-4,-1
1558434838884018,0,0,1,1,1,1,-3,0
1558434838884018,0,-1,-2,-1,-2,1,1,1
1558434838898975,0,0,5,5,10,-1,4,2
1558434838898975,0,1,2,1,-2,-6,-4,-1
1558434838906954,-1,-5,-5,-8,-11,-9,-6,-2
1558434838906954,0,0,-4,-1,4,7,5,3
1558434838922174,-2,-6,-10,-18,-9,-5,-2,-4
1558434838922174,-3,-1,-2,-5,4,1,-1,-5
1558434838922772,0,3,8,15,3,-1,1,0
1558434838922772,0,0,0,4,1,-2,-3,-2
1558434838935741,0,-1,6,5,8,6,1,1
1558434838935741,2,-1,-3,-5,0,1,1,-2
1558434838944048,0,-2,-3,-8,-8,-3,-1,0
1558434838944048,2,2,2,8,-1,-2,-3,0
1558434838959014,-4,-4,-6,-18,-9,-7,-6,-2
1558434838959014,0,1,3,0,2,0,1,1
1558434838966988,-1,1,1,10,3,1,1,-1
1558434838966988,-4,-2,-7,-2,9,6,1,-2
1558434838981612,1,1,3,-4,-6,-2,0,-1
1558434838981612,-3,-7,-12,-18,-11,-7,-2,-1
1558434838982610,-1,-3,4,4,-1,-5,-3,-3
1558434838982610,-2,-2,0,-3,-3,-6,-3,-2
1558434838995575,1,2,-10,0,3,6,4,1
1558434838995575,0,5,4,4,6,5,-2,1
1558434839003560,-1,-1,-2,-4,-9,-6,-6,1
1558434839003560,0,-3,-1,-7,-5,0,2,1
1558434839018514,1,1,5,8,0,-2,0,2
1558434839018514,-1,-1,3,11,4,-1,0,0
1558434839026493,-1,-1,-1,-7,-1,1,-1,1
1558434839026493,-1,-1,-1,7,-1,-1,-1,-4
1558434839042627,-2,-3,1,1,-2,-4,-1,-2
1558434839042627,-2,-3,-6,-8,-5,-3,-1,0
1558434839042627,-2,0,0,0,1,-3,-2,-2
1558434839042627,-2,0,1,-4,-3,-3,2,0
1558434839056415,0,-2,-1,-2,-1,0,-2,1
1558434839056415,-1,0,1,0,-1,2,1,0
1558434839063429,0,-4,-3,5,0,-2,1,-4
1558434839063429,-1,0,0,0,-2,-2,-2,-1
1558434839078353,-2,2,-4,-11,-7,-5,-2,-2
1558434839078353,-2,-3,0,-6,2,1,-3,1
1558434839086335,0,0,-1,-4,-3,2,-1,0
1558434839086335,-1,-5,-6,-2,-3,-3,-1,0
1558434839102535,3,2,4,16,15,4,1,2
1558434839102535,0,2,3,-3,-3,3,2,0
1558434839102535,-3,-5,-5,9,1,-1,0,-1
1558434839102535,-1,-2,-1,-10,-5,-1,-3,-2
1558434839116711,-3,-2,-1,-5,-8,-7,-8,-5
1558434839116711,1,2,1,10,-2,-2,2,0
1558434839123698,0,0,1,0,2,5,1,2
1558434839123698,1,-1,-1,-4,3,1,-2,-2
1558434839138194,-1,-3,-1,4,-2,-5,-3,-3
1558434839138194,0,1,5,14,4,0,0,-2
1558434839146172,-2,-1,-5,-17,-6,-2,0,-3
1558434839146172,-1,-1,-6,-9,6,4,3,0
1558434839162585,0,3,-2,-4,3,2,3,5
1558434839162585,-1,-5,-2,2,-5,-4,-7,-1
1558434839162585,-2,-1,3,6,-3,-3,0,-2
1558434839162585,-1,-1,-3,-4,-1,-3,-2,-3
1558434839176093,2,2,3,-1,3,8,4,0
1558434839176093,-2,-1,2,7,0,-3,-2,1
1558434839184393,-2,-4,-7,-11,-6,-5,-4,-2
1558434839184393,0,-1,1,12,-1,-2,-4,-1
1558434839199376,-3,-2,-3,-5,-3,-1,1,-1
1558434839199376,-1,-1,-4,-6,-7,-1,-2,-2
1558434839207365,1,1,2,3,8,4,2,0
1558434839207365,0,-2,0,3,-3,0,-1,0
1558434839222346,2,-3,-2,-1,1,2,2,-1
1558434839222346,-1,-3,-3,-5,-5,-3,-1,-3
1558434839222346,-2,-1,1,3,-3,-6,-4,-3
1558434839222346,-3,0,0,-5,-5,-2,-1,-2
1558434839235933,-4,-3,-2,1,-6,-7,-2,-4
1558434839235933,0,-1,-8,-16,-8,-4,0,-2
1558434839242914,2,2,4,3,11,7,6,2
1558434839242914,-2,-2,-5,-2,-2,-3,-5,-1
1558434839258873,-1,-1,-1,3,-6,-4,-2,0
1558434839258873,-4,-3,-2,-12,1,2,0,-2
1558434839267200,-1,1,4,4,3,3,1,2
1558434839267200,-2,1,-10,-14,-6,-3,0,-1
1558434839281182,-4,-4,-1,3,-1,-9,-5,-3
1558434839281182,0,1,-5,-4,-7,-2,2,2
1558434839290069,1,0,1,4,1,5,2,2
1558434839290069,1,0,3,-3,5,-1,-3,1
1558434839296871,0,0,3,5,-2,-1,-1,-3
1558434839296871,1,0,2,5,1,-2,-4,-1
1558434839304138,0,-2,-5,-9,-5,-2,1,-2
1558434839304138,-5,-2,0,3,-6,-5,-4,-3
1558434839319097,-3,-4,-7,-10,-4,0,-1,-2
1558434839319097,-1,0,3,3,2,-1,-2,0
1558434839326692,-2,0,-2,4,0,-1,-2,-1
1558434839326692,0,-3,0,1,-1,0,2,-1
1558434839341716,-1,-2,-4,-8,-3,-3,-3,-2
1558434839341716,-1,-3,-4,-3,-2,-3,-2,-2
1558434839349936,1,4,7,15,4,1,-2,1
1558434839349936,1,-2,-3,5,2,6,5,5
1558434839355949,-3,-3,-8,-23,-7,0,-1,0
1558434839355949,-4,-4,-6,4,5,-1,-1,-5
1558434839363943,0,-3,-1,-2,-11,-2,-2,-2
1558434839363943,0,1,-1,-3,1,-2,-3,-1
1558434839379317,-2,-1,3,10,-1,-2,-1,0
1558434839379317,-1,-1,1,0,-3,-3,-5,1
1558434839386953,-1,-3,-1,-8,1,0,1,-3
1558434839386953,0,-1,5,5,7,4,4,1
1558434839402208,-1,2,2,5,3,-1,4,0
1558434839402208,-1,0,-3,-8,-2,-1,0,-3
1558434839409896,-5,-5,-3,2,-2,-6,-7,-3
1558434839409896,-1,0,1,-4,-5,0,-1,-2
1558434839416138,-3,-3,-7,-15,-7,0,-2,-2
1558434839416138,0,-2,2,0,7,6,4,1
1558434839424108,1,0,-4,-8,0,-3,-4,-1
1558434839424108,-1,-3,-7,-11,-12,-7,-5,-4
1558434839439815,1,1,1,11,8,5,-1,-1
1558434839439815,-2,0,-1,-7,-1,-3,-2,-1
1558434839446797,-1,-6,-6,-7,-6,-5,0,-3
1558434839446797,-2,-1,2,3,3,-1,-1,1
1558434839460755,0,-2,-4,-8,-1,-1,0,-3
1558434839460755,2,1,4,10,3,2,1,-3
1558434839468769,-4,-5,-11,-20,-7,-4,-5,-4
1558434839468769,0,-1,-1,-2,-1,1,0,-2
1558434839483728,-3,-3,2,6,2,-3,-4,-1
1558434839483728,-1,-2,6,13,-2,-1,-2,1
1558434839484692,-1,2,-6,-7,0,1,3,2
1558434839484692,-5,-3,-4,-5,-2,0,-1,-4
1558434839498656,1,2,4,8,1,1,1,2
1558434839498656,-1,-3,-4,-9,-3,-2,0,-1
1558434839506633,0,-1,4,1,-3,1,0,-1
1558434839506633,-1,0,0,5,0,-1,-5,-2
1558434839520596,-1,2,-2,2,1,2,2,1
1558434839520596,0,1,-2,1,0,3,1,0
1558434839529579,-2,-3,-2,-5,-3,-5,-4,-2
1558434839529579,0,0,0,0,2,-1,1,1
1558434839544533,-1,-3,3,-4,-3,-1,-2,1
1558434839544533,-2,-2,-3,-3,-4,-5,-3,-2
1558434839544533,-2,-2,3,6,2,-2,-5,-3
1558434839544533,-1,-1,3,6,-1,1,2,0
1558434839558846,1,-2,-7,-1,7,3,3,1
1558434839558846,-1,-1,-5,-9,3,1,1,-2
1558434839566823,0,2,-1,2,0,-3,-1,0
1558434839566823,-2,-1,0,-2,-7,-5,-5,0
1558434839581433,-3,-2,-1,6,-5,-4,-3,-1
1558434839581433,-1,0,0,-7,-2,-3,1,1
1558434839589532,-4,-5,-7,-4,-2,-3,-1,0
1558434839589532,2,2,4,7,5,2,2,-1
1558434839604373,-3,-2,-1,-4,-1,-2,-2,-2
1558434839604373,-1,0,1,3,-1,-2,-2,-1
1558434839605496,-1,0,0,-4,2,2,-1,-1
1558434839605496,0,-2,-1,5,1,-1,-1,-1
1558434839618336,-1,-2,-4,-15,-8,-4,-1,-2
1558434839618336,-2,-2,2,3,3,-2,-2,-2
1558434839626341,-1,1,-1,-4,-2,0,0,0
1558434839626341,-1,-3,1,4,-8,-5,0,-1
1558434839641274,-2,-3,-2,0,2,2,-2,-1
1558434839641274,1,1,2,3,-4,0,-1,-1
1558434839649253,-3,-2,-1,2,6,4,2,2
1558434839649253,-1,-2,-1,-6,-1,-1,-4,-3
1558434839664211,1,0,7,17,6,-4,2,-2
1558434839664211,0,-2,-6,-19,-16,-4,-1,0
1558434839672197,1,1,0,-4,-5,3,1,0
1558434839672197,-2,-3,-4,-4,5,1,0,1
1558434839678175,-2,-1,7,14,6,0,0,1
1558434839678175,-1,-2,-5,3,2,0,0,0
1558434839687150,0,-1,5,2,-2,-1,0,-2
1558434839687150,-3,-4,-3,-2,-9,-5,-4,-2
1558434839701129,0,0,-1,-5,3,4,2,1
1558434839701129,0,-4,-5,1,1,-2,-3,-1
1558434839709108,-2,-1,-2,4,-4,-3,-5,-3
1558434839709108,0,0,-6,-23,2,0,0,-1
1558434839724053,0,-1,0,9,3,-1,-3,-3
1558434839724053,-2,-1,-1,-11,-8,2,2,0
1558434839725048,0,0,1,1,3,-2,0,2
1558434839725048,-1,-3,-6,-15,-9,-6,-3,-2
1558434839738014,-3,-3,-4,-5,-11,-5,-3,-2
1558434839738014,-2,-3,1,14,10,2,1,-1
1558434839746993,0,-1,-4,-4,-5,1,2,2
1558434839746993,-1,0,1,5,3,2,2,1
1558434839760955,0,3,-1,-8,-1,2,0,1
1558434839760955,0,2,3,3,-3,-4,-5,0
1558434839768933,-2,-4,-5,-16,-5,-4,-2,-2
1558434839768933,-1,1,2,5,-1,-2,-4,-2
1558434839784020,-1,-4,-11,-15,-5,-1,-4,-2
1558434839784020,0,0,9,15,3,1,6,1
1558434839784888,1,3,3,1,12,4,2,-1
1558434839784888,-1,-4,-4,-5,-6,-2,1,-3
1558434839798954,0,-1,1,-4,-4,-2,-1,0
1558434839798954,0,2,-3,-12,-4,-4,0,-1
1558434839805833,-2,-5,-4,13,-3,-3,-4,-2
1558434839805833,0,-2,3,5,4,1,-2,-1
1558434839820839,0,-2,0,2,-4,-4,-6,0
1558434839820839,-2,-3,-9,-13,-6,-1,0,-2
1558434839828772,-2,0,-8,-5,-1,5,-1,0
1558434839828772,0,3,6,8,3,0,1,3
1558434839843732,-2,1,1,-1,-1,-3,1,-2
1558434839843732,0,-4,-1,7,2,0,0,-2
1558434839844730,-1,-1,8,11,3,2,1,-3
1558434839844730,1,0,-5,-5,0,0,1,-1
1558434839858695,-1,-2,-4,-3,-6,0,1,-2
1558434839858695,-3,1,-1,-9,-2,-4,-5,0
1558434839865675,-1,0,1,2,0,1,-1,-1
1558434839865675,2,1,7,1,7,3,-1,2
1558434839880633,-2,-2,0,19,1,-1,-3,-3
1558434839880633,2,1,0,-14,-2,0,-1,1
1558434839889609,-1,-4,-4,-2,-3,-5,1,0
1558434839889609,-2,-2,-8,-2,-3,-3,-2,-1
1558434839904569,-1,1,-5,-20,-4,-2,1,0
1558434839904569,-3,-2,0,5,-6,-6,-5,-2
1558434839904569,-1,1,6,7,2,1,0,-1
1558434839904569,-2,-5,-10,-12,-1,-1,0,-2
1558434839918546,0,-1,1,4,-3,0,-2,-2
1558434839918546,0,0,-1,3,3,1,-2,-1
1558434839926511,1,0,7,7,-2,1,1,-1
1558434839926511,0,0,-6,-1,5,7,1,0
1558434839951442,-3,-7,-14,-14,-1,0,-2,-1
1558434839951442,1,2,6,17,5,-1,-1,-2
1558434839951442,-3,-4,0,3,-5,-7,-4,-3
1558434839951442,-2,-1,-5,-27,-10,-2,1,0
1558434839964407,1,1,-1,-3,5,1,2,1
1558434839964407,-2,-3,0,-1,1,1,0,-3
1558434839964407,-1,0,-6,-2,-4,-6,-5,0
1558434839964407,-4,-5,-1,18,2,-4,-6,-3
1558434839978371,0,1,-1,-16,-4,1,1,0
1558434839978371,-4,-1,-5,5,2,3,0,-1
1558434839986350,0,1,0,-9,-1,2,1,1
1558434839986350,-2,-3,0,-5,-6,-5,-3,-1
1558434840001310,3,5,14,25,14,4,2,3
1558434840001310,-2,-3,-6,-10,0,1,2,1
1558434840009289,-4,-7,-19,-12,-5,-4,-4,-3
1558434840009289,-1,-2,-4,0,-8,-4,-5,-5
1558434840024250,-3,-3,-6,-5,-9,-9,-3,-3
1558434840024250,1,3,12,-11,0,0,-2,-2
1558434840025246,2,3,-13,-24,2,2,1,4
1558434840025246,-4,-5,-7,1,0,-2,-2,-3
1558434840039493,4,5,33,40,17,5,0,-1
1558434840039493,1,-3,-23,-32,-11,-2,-1,-1
1558434840046191,-5,-9,-3,-3,-5,-5,-2,-3
1558434840046191,0,2,6,0,2,-1,2,0
1558434840061150,-3,-4,-12,-14,-8,-4,-1,0
1558434840061150,1,3,16,22,5,-1,2,1
1558434840069150,0,3,7,8,8,2,-1,-2
1558434840069150,-2,1,-3,2,-3,-2,2,1
1558434840084089,-3,1,8,14,1,-1,-4,-2
1558434840084089,-3,-5,-13,-24,-7,0,1,2
1558434840085086,-2,-1,5,11,4,-2,-2,-1
1558434840085086,-1,-2,-2,6,1,-1,0,-4
1558434840098055,1,-1,-8,-7,-2,-1,-1,1
1558434840098055,2,0,-2,6,7,6,4,4
1558434840106030,0,0,0,-12,-5,0,3,2
1558434840106030,-1,2,10,16,6,3,1,0
1558434840121986,-1,-4,-8,-7,-2,-2,-4,-4
1558434840121986,-5,-10,-23,-22,-17,-12,-8,-6
1558434840128970,0,0,10,11,2,-2,-1,-2
1558434840128970,0,3,7,0,1,-1,-5,0
1558434840143956,-3,0,-5,-5,-6,-2,-3,-1
1558434840143956,-1,1,7,17,8,-1,-2,-4
1558434840144927,-1,-3,-6,-3,-6,-2,-2,-2
1558434840144927,-1,-3,-2,-5,2,2,1,1
1558434840158888,-2,-1,-1,5,4,5,1,-2
1558434840158888,1,2,14,29,8,2,0,2
1558434840165872,0,0,-7,-12,-7,-6,-5,-3
1558434840165872,0,0,-2,2,2,-3,-4,-4
1558434840180831,-3,0,4,-9,-10,-6,0,2
1558434840180831,-2,-2,-4,-6,-4,-1,0,1
1558434840188807,-1,1,6,11,-2,-3,-1,-2
1558434840188807,1,-2,-6,-8,-4,-2,-3,-1
1558434840203769,-1,-2,-1,6,4,2,1,-3
1558434840203769,-3,-2,-3,-8,-4,-1,-1,-1
1558434840211751,3,2,7,7,6,5,0,0
1558434840211751,-1,-1,-6,-7,2,0,3,0
1558434840218727,-3,-5,-9,-11,-8,-5,-5,-4
1558434840218727,1,-1,-1,-3,-4,-5,6,1
1558434840225716,-2,-3,2,-8,-1,4,-3,-1
1558434840225716,2,3,0,-2,-3,0,-1,-1
1558434840240682,0,-5,-9,-8,-4,-2,0,-1
1558434840240682,-2,0,0,2,0,-1,-4,0
1558434840249645,-3,-2,-4,2,1,-2,1,1
1558434840249645,-3,-4,-6,1,-4,-2,-5,-4
1558434840263610,-3,-3,-5,-5,2,1,4,2
1558434840263610,2,2,17,5,3,2,-2,-1
1558434840271587,-3,-5,-22,-7,-2,-2,-2,-2
1558434840271587,0,-1,0,-5,-4,-1,-5,0
1558434840278568,-2,-2,-6,-10,-9,-4,-1,-3
1558434840278568,0,-2,-3,3,0,-1,-2,-4
1558434840285549,0,4,8,-5,1,2,0,0
1558434840285549,-2,-1,4,9,4,4,2,0
1558434840300510,-3,-2,-7,-2,-2,-3,-3,-2
1558434840300510,1,2,2,-2,0,-2,-1,0
1558434840309486,0,-3,-1,1,-1,0,3,1
1558434840309486,-3,-2,-4,-8,-3,-3,-3,0
1558434840323448,-2,-2,9,7,0,-1,-3,1
1558434840323448,-3,-3,-9,-10,-3,-1,0,-3
1558434840331427,1,2,8,4,-6,-4,-5,-3
1558434840331427,-1,-1,0,1,-1,0,1,0
1558434840338410,-3,-4,-4,-1,-5,-5,-2,-1
1558434840338410,-3,-3,-6,-23,-8,-4,-3,-3
1558434840346405,-1,-2,4,3,-2,-1,-1,0
1558434840346405,1,4,1,1,5,3,3,0
1558434840361347,0,3,-2,-5,-4,-4,-6,-2
1558434840361347,0,-1,-4,6,7,3,-2,1
1558434840369328,2,2,-3,-5,-3,-1,4,2
1558434840369328,0,-4,1,0,-4,2,0,1
1558434840383294,1,1,-1,4,7,6,9,-1
1558434840383294,0,0,0,7,5,1,5,3
1558434840391274,0,1,7,9,20,12,-1,-2
1558434840391274,-6,-4,-4,-2,-8,-8,-7,-4
1558434840398249,0,0,-2,-8,-12,-9,-5,-4
1558434840398249,-2,-2,0,4,-7,-5,-5,-4
1558434840406228,-5,-6,-11,-14,-12,-10,-6,-3
1558434840406228,0,-1,-2,-1,-6,-6,-1,0
1558434840421187,1,-1,0,8,8,6,-3,-1
1558434840421187,-1,2,-2,-10,6,7,7,1
1558434840429175,0,2,4,12,5,1,-1,-2
1558434840429175,-1,-1,0,-14,-9,0,6,2
1558434840452104,-1,-2,1,-2,-1,-1,-2,-2
1558434840452104,-1,-2,3,18,3,-2,-4,-1
1558434840453105,-3,-4,-6,-12,-8,-6,-8,-5
1558434840453105,-1,-2,-4,-4,0,0,1,-1
1558434840466068,-1,-1,1,2,-6,-4,-3,0
1558434840466068,-2,-2,-4,-1,1,2,-4,-4
1558434840467064,-1,-2,-3,-8,-3,3,-6,0
1558434840467064,5,4,7,12,4,-2,15,7
1558434840481026,-1,2,2,2,9,9,7,4
1558434840481026,0,-1,0,1,12,4,-3,2
1558434840489008,-3,-2,-2,-2,-13,-11,-5,-3
1558434840489008,-7,-5,-4,-5,-12,-12,-12,-8
1558434840503970,1,1,-1,-2,-2,2,3,2
1558434840503970,3,3,8,23,7,5,0,1
1558434840511945,-1,-2,-19,-42,1,2,1,2
1558434840511945,-2,-2,0,1,-5,-6,0,-2
1558434840526905,-2,0,0,-7,-7,-4,-2,0
1558434840526905,-2,1,6,9,1,-3,-7,-5
1558434840526905,0,0,-1,1,-3,-4,4,0
1558434840526905,-3,-4,-9,-6,-7,-5,-2,-2
1558434840540866,-2,-1,1,-2,6,3,-1,0
1558434840540866,-3,-1,-5,-8,-2,3,7,-1
1558434840548845,0,2,9,22,9,8,3,1
1558434840548845,1,-2,1,-4,3,-3,-6,-1
1558434840563808,1,2,4,6,0,-3,0,1
1558434840563808,-4,-3,-6,-8,-11,-6,-7,-2
1558434840571784,0,2,3,11,-2,-3,8,3
1558434840571784,-2,-1,0,-5,-2,2,-7,-1
1558434840586744,-3,-5,-6,-5,1,-3,0,0
1558434840586744,0,-1,-3,-5,2,1,2,4
1558434840587742,1,0,4,9,-1,3,-8,-4
1558434840587742,0,1,2,5,5,0,-5,-7
1558434840600706,1,-2,0,-2,-4,-4,-4,-6
1558434840600706,-1,0,0,-2,10,8,7,2
1558434840608688,-1,-2,-1,4,-9,-9,-3,-1
1558434840608688,-2,-1,1,2,1,3,-1,-3
1558434840623647,-1,-2,-2,5,2,-2,6,1
1558434840623647,1,0,-6,-7,-2,-1,0,-1
1558434840631633,0,-4,-9,-11,-14,-2,-1,-1
1558434840631633,-1,1,8,12,11,1,-3,1
1558434840646592,3,3,4,1,1,4,5,6
1558434840646592,-1,-1,-5,2,4,4,-3,-2
1558434840647606,0,3,6,9,12,3,0,-1
1558434840647606,-4,-5,-9,-14,-22,-11,-6,-5
1558434840660550,-1,-2,3,6,-3,-9,-6,-3
1558434840660550,1,2,3,-2,10,11,8,4
1558434840669527,-4,-3,-7,1,-5,-4,-1,-1
1558434840669527,1,0,-2,-3,0,-6,-1,3
1558434840683485,-3,0,-2,-6,3,-3,-1,0
1558434840683485,1,-1,-2,-3,-8,-3,6,2
1558434840691464,-1,-2,0,-3,3,2,-7,0
1558434840691464,0,2,0,2,2,3,7,6
1558434840706424,-3,0,-2,-4,-5,-1,-17,-15
1558434840706424,-4,-5,-2,1,-9,-8,-9,-8
1558434840707421,-3,-4,-3,-10,-9,-8,-2,-6
1558434840707421,3,3,-1,4,12,15,14,6
1558434840721383,6,7,3,-2,21,17,15,13
1558434840721383,-5,-3,-1,-1,-11,-8,-8,-6
1558434840729363,-6,-6,-9,-7,-27,-24,-15,-11
1558434840729363,-2,-1,4,-2,-2,0,-1,-2
1558434840743324,2,-1,-2,-1,18,13,-1,1
1558434840743324,-2,-4,1,2,-6,-4,1,-2
1558434840751303,-3,-1,0,0,1,3,0,0
1558434840751303,3,2,5,7,1,-1,5,2
1558434840767262,2,0,-1,3,-3,3,6,5
1558434840767262,-2,-3,-6,-2,-8,-16,-16,-4
1558434840767262,-1,0,3,-7,-6,-6,2,0
1558434840767262,-1,1,0,0,7,3,2,-2
1558434840781226,-2,-3,-1,0,-1,4,3,-3
1558434840781226,0,-1,1,-2,-11,-9,-7,-5
1558434840789202,1,1,5,5,9,-2,5,3
1558434840789202,-1,2,0,6,11,8,-3,-2
1558434840803167,-3,-5,-7,-3,-12,-11,-7,-1
1558434840803167,1,0,2,-2,0,3,3,0
1558434840811148,4,2,3,11,25,21,14,7
1558434840811148,0,-2,-3,-6,1,0,-1,-2
1558434840827102,-4,-3,-3,-9,-16,-14,-9,-6
1558434840827102,-6,-7,-7,-10,-16,-15,-8,-5
1558434840827102,-3,0,2,-1,-5,-9,-7,-1
1558434840827102,-1,-4,-5,3,-1,-2,-2,-2
1558434840841065,0,-2,-8,-14,-12,-5,-3,-3
1558434840841065,4,2,6,13,8,7,2,3
1558434840849053,-2,-3,-6,-22,-5,0,-2,1
1558434840849053,-4,-3,-5,-8,-6,-3,-2,-1
1558434840863005,0,3,4,9,0,-3,-2,-2
1558434840863005,-3,-2,-8,-2,-1,-4,-3,-3
1558434840871983,-3,-4,-2,2,-9,-7,-2,-2
1558434840871983,1,3,1,2,0,2,0,3
1558434840886941,0,-2,2,2,-2,-2,3,1
1558434840886941,7,5,0,-14,23,22,14,10
1558434840886941,3,4,5,12,11,9,3,0
1558434840886941,-5,-7,-9,-12,-17,-15,-11,-9
1558434840901906,-1,-3,0,6,2,-2,-6,-1
1558434840901906,-3,0,-2,-3,-10,-7,-1,-2
1558434840908885,0,0,-5,-2,2,1,5,2
1558434840908885,2,0,2,3,4,7,1,0
1558434840923844,-4,-3,-5,-4,-11,-10,-5,-4
1558434840923844,0,-1,3,3,2,-5,-4,-4
1558434840931831,-2,-3,-6,-6,-3,4,-3,-3
1558434840931831,0,-2,2,4,1,1,-2,1
