timestamp,emg1,emg2,emg3,emg4,emg5,emg6,emg7,emg8
1558439037442440,-2,0,1,-7,-7,-10,-8,-3
1558439037442440,0,0,-2,-8,3,6,-1,-1
1558439037442440,0,-2,-5,5,-3,-2,3,2
1558439037442440,-1,0,5,8,-1,-6,-5,-1
1558439037443438,0,-1,-5,-11,8,15,9,3
1558439037443438,-1,2,0,6,-7,-12,-4,-3
1558439037447427,-1,-2,5,3,10,13,3,-1
1558439037447427,-4,-4,-7,-12,-4,0,0,-1
1558439037453411,3,0,4,8,-3,-12,-5,0
1558439037453411,0,0,2,-3,1,8,2,1
1558439037462388,0,-1,-7,-5,-3,2,0,-2
1558439037462388,0,-1,2,-5,-6,-7,-6,-4
1558439037470366,1,-1,1,7,1,1,-2,-2
1558439037470366,0,-2,5,4,6,-1,2,3
1558439037484329,3,-1,-7,-10,-4,-11,-7,-3
1558439037484329,-7,-3,-3,1,-2,4,4,-1
1558439037493304,1,1,-5,-6,-4,3,2,-1
1558439037493304,-1,-2,-4,-10,-2,3,0,-3
1558439037508263,-4,0,9,7,-3,-1,-6,-3
1558439037508263,0,-4,-13,-10,-13,-8,-9,-2
1558439037514247,-3,1,0,-1,11,9,10,5
1558439037514247,-1,1,0,0,-5,-21,-6,-3
1558439037562125,1,-2,-2,-15,-7,-12,-7,-4
1558439037562125,-2,-4,-10,-13,-5,-1,-8,-5
1558439037563118,-1,-1,2,10,-4,-5,-2,-1
1558439037563118,2,-1,4,-2,4,1,2,1
1558439037563118,-1,-1,-5,3,7,12,6,3
1558439037563118,0,1,0,2,-10,-11,-3,-5
1558439037567107,-1,0,1,-1,4,3,3,2
1558439037567107,-3,-6,-7,-25,-13,-7,-8,-7
1558439037581070,-2,-3,-4,4,-7,5,-3,-4
1558439037581070,1,3,6,10,6,5,4,4
1558439037590046,0,-1,-7,-10,6,2,4,-2
1558439037590046,1,0,3,4,4,2,3,1
1558439037591043,-3,-1,0,6,-4,-2,-5,-2
1558439037591043,2,1,6,2,7,1,0,1
1558439037604008,3,-1,0,-5,-6,0,-4,-1
1558439037604008,-10,-8,-8,0,-6,-2,-2,-3
1558439037610989,-2,-1,2,8,7,-10,4,3
1558439037610989,-2,-3,-3,-10,-5,-1,-3,-2
1558439037618968,2,-2,-5,-1,-2,-2,-7,-2
1558439037618968,-6,1,6,9,1,4,-1,-2
1558439037633929,1,-1,-2,-8,-9,-5,-5,-5
1558439037633929,0,2,-2,-4,6,2,6,4
1558439037640909,0,2,5,5,2,-2,2,0
1558439037640909,2,-3,-7,-12,-8,-1,-8,-5
1558439037649885,-1,4,12,7,10,2,3,1
1558439037649885,0,-3,-7,-4,-2,0,1,0
1558439037664846,-2,-5,-2,1,-7,-10,-6,-2
1558439037664846,2,6,1,-1,3,5,5,3
1558439037670829,-1,-3,-6,-6,-2,-3,-4,-2
1558439037670829,-1,0,3,8,-7,-1,-5,-1
1558439037678808,-2,-3,0,-4,2,6,2,0
1558439037678808,0,-1,4,8,2,1,-2,-2
1558439037693768,1,1,-2,-4,-1,-4,0,1
1558439037693768,-2,-1,-3,-3,-6,-3,-4,-3
1558439037700749,-1,-1,-1,3,-2,-1,-3,-4
1558439037700749,3,2,-3,-9,-3,-2,-1,1
1558439037709725,0,-1,-3,-11,0,9,4,0
1558439037709725,-2,-3,5,10,17,9,4,0
1558439037724685,-2,-1,-6,-14,-8,-4,-2,0
1558439037724685,1,0,-1,4,-10,-18,-11,-2
1558439037730670,2,2,1,-1,-1,-1,0,0
1558439037730670,-3,-4,-2,-3,-3,0,0,-3
1558439037738649,1,0,-5,-5,9,9,3,0
1558439037738649,-3,-3,-7,-2,0,10,2,-1
1558439037753608,-6,-2,-4,-2,-4,2,-4,-3
1558439037753608,1,-1,5,7,0,-20,-1,2
1558439037761586,-6,-3,-1,-4,-5,-6,-2,-1
1558439037761586,0,-1,7,13,7,4,4,1
1558439037769564,4,3,-7,-21,-9,-2,0,-2
1558439037769564,1,-1,-2,-3,1,4,-3,-3
1558439037784527,-4,-3,0,5,-4,-4,-7,-5
1558439037784527,1,1,-2,-13,4,2,1,1
1558439037791510,-1,-1,2,2,-2,3,3,0
1558439037791510,-3,-4,-6,-7,-16,-12,-9,-2
1558439037798489,0,-1,-4,-1,0,2,0,0
1558439037798489,0,0,7,12,5,-8,3,3
1558439037813449,0,1,5,4,7,-2,0,0
1558439037813449,-3,-2,-11,-16,-7,3,1,-2
1558439037821426,-4,0,3,3,-8,-8,-9,-3
1558439037821426,-1,1,0,0,5,10,6,1
1558439037830410,1,-1,0,6,-1,2,0,-2
1558439037830410,-1,-1,4,11,1,4,1,-1
1558439037844366,0,-1,-5,-12,-7,-13,-4,0
1558439037844366,-1,-1,-7,-2,-3,-8,-2,-1
1558439037851358,-1,-4,2,6,8,-2,4,3
1558439037851358,0,-1,-5,6,-1,2,-5,-3
1558439037867307,2,-1,-2,-12,-3,5,-2,-4
1558439037867307,-6,-4,4,4,4,7,5,0
1558439037882263,0,0,3,2,-2,-16,-8,-1
1558439037882263,-3,-3,-15,-15,-1,11,4,-2
1558439037882263,1,3,3,3,-4,-6,0,2
1558439037882263,2,0,-2,4,-3,-1,-3,-1
1558439037890243,-4,-2,1,4,0,-4,-3,-3
1558439037890243,0,0,4,0,1,-1,2,-1
1558439037904206,2,-1,1,7,9,12,5,3
1558439037904206,-2,-1,-5,-5,-8,-7,-8,-4
1558439037911187,-1,1,-2,3,3,8,5,0
1558439037911187,0,0,-1,-11,-3,-7,-5,-2
1558439037927144,-4,-2,-1,4,1,3,5,-1
1558439037927144,4,3,12,15,1,-2,-2,-1
1558439037933127,-1,-2,-13,-21,-9,-7,-4,-4
1558439037933127,-5,-5,-3,1,-6,-8,-2,-2
1558439037950091,-2,0,1,-1,-2,-2,-5,1
1558439037950091,3,5,2,4,2,-7,3,2
1558439037951080,1,-2,-1,-4,-8,-4,-9,-5
1558439037951080,-6,-3,1,1,4,10,-2,-2
1558439037972023,-1,0,-4,0,0,-2,4,1
1558439037972023,0,0,-1,-2,1,-4,2,0
1558439037974018,2,2,-3,-1,-5,-5,1,-1
1558439037974018,-1,2,5,1,3,10,2,-2
1558439037979006,-1,-1,-2,3,-4,-9,-5,-2
1558439037979006,0,1,-2,-5,-6,-5,-3,-4
1558439037993969,-2,0,4,3,4,10,6,1
1558439037993969,3,1,-3,1,6,-8,4,4
1558439038000946,0,2,2,5,7,4,1,1
1558439038000946,-1,-5,-2,0,-3,0,-6,-3
1558439038009923,-2,-5,-1,-5,-1,-2,-3,-4
1558439038009923,1,4,1,-7,-7,-10,-6,-1
1558439038023885,0,-2,12,14,1,0,2,-1
1558439038023885,-4,-4,-20,-21,-6,-4,-2,0
1558439038030866,-2,-3,-1,3,1,-3,-1,2
1558439038030866,-1,1,5,5,-1,-1,-1,-1
1558439038038845,3,1,-1,-4,7,6,5,0
1558439038038845,1,3,6,-1,8,10,4,-1
1558439038053804,-4,-5,-4,2,-8,-3,-8,-5
1558439038053804,-1,1,-1,-2,0,-10,4,2
1558439038060793,0,2,2,0,-4,-4,-2,-2
1558439038060793,-1,-4,-9,-14,-6,2,-1,-3
1558439038069762,0,0,-3,-1,-4,-8,-2,1
1558439038069762,-1,0,3,-1,2,3,2,-1
1558439038092702,1,-2,1,1,4,4,-3,-1
1558439038092702,-1,-2,-1,3,5,7,0,0
1558439038093699,-4,1,-3,-3,-3,-1,-4,1
1558439038093699,0,-2,-1,-4,-8,-7,-5,-2
1558439038114643,-2,0,2,4,-5,-4,-5,-3
1558439038114643,-2,-1,-3,1,1,1,9,5
1558439038116637,1,-3,5,5,4,-2,1,0
1558439038116637,-3,-2,-7,-2,5,6,1,1
1558439038120626,-3,-2,-5,-8,-2,-4,-1,0
1558439038120626,-2,-2,2,3,-4,4,-6,-4
1558439038129603,-1,0,-9,-11,-9,-3,-1,-4
1558439038129603,2,0,3,4,3,-8,-4,1
1558439038144570,1,0,-5,-7,0,7,4,-1
1558439038144570,-1,0,0,-1,-5,-4,-3,-4
1558439038158526,0,2,5,9,6,3,4,0
1558439038158526,-1,-1,5,4,2,6,-2,-4
1558439038166504,-5,-6,-10,-11,-6,1,-3,-3
1558439038166504,1,-1,-1,-2,-4,-23,-5,0
1558439038181464,0,2,2,7,1,3,-2,0
1558439038181464,-2,-1,-2,-2,-3,7,-1,-4
1558439038182461,0,0,-1,-6,-3,-5,-2,-1
1558439038182461,3,6,3,-2,-4,-5,-2,-1
1558439038190440,-4,-6,0,6,1,2,-1,-2
1558439038190440,-1,-1,1,4,6,-5,0,0
1558439038204403,-4,-2,-2,1,-3,-1,-1,-1
1558439038204403,-2,-3,2,3,4,5,-1,0
1558439038211383,1,-1,2,0,-7,-7,-8,-4
1558439038211383,-1,-2,-13,-12,-6,0,-3,-3
1558439038226344,0,1,3,1,6,-2,5,4
1558439038226344,0,-1,4,5,1,1,-3,-3
1558439038233325,-2,-4,-12,-19,-8,1,-2,-2
1558439038233325,3,2,7,10,2,-1,-1,-1
1558439038241304,-8,-9,-6,-6,-8,-21,-11,-7
1558439038241304,-3,-1,0,0,2,6,6,1
1558439038250279,0,-1,3,8,4,1,2,-1
1558439038250279,-2,0,-6,-7,-7,-4,-2,-1
1558439038264242,2,3,3,2,5,10,-2,-1
1558439038264242,0,0,-7,-3,-3,-9,-3,-3
1558439038271224,-4,-3,2,7,7,-5,2,2
1558439038271224,-3,-2,-3,-4,-5,-10,-3,-1
1558439038287181,1,1,3,2,-5,3,0,-4
1558439038287181,-4,-7,-18,-14,-5,5,-4,-2
1558439038293164,-1,4,1,4,1,0,-1,-1
1558439038293164,2,2,1,-2,4,4,7,2
1558439038301146,0,-4,-4,2,-2,-3,1,2
1558439038301146,-2,1,0,-4,1,3,3,1
1558439038310120,0,-2,-1,-4,-2,-7,-4,0
1558439038310120,-2,0,6,9,1,-2,-4,-1
1558439038324081,1,0,-2,4,1,-3,1,-2
1558439038324081,-1,-2,-6,-16,-1,7,1,0
1558439038331064,-2,0,1,3,-2,-2,-2,-3
1558439038331064,1,0,-2,-4,-6,-7,-4,-2
1558439038347022,1,3,0,-4,5,5,3,2
1558439038347022,-4,-3,3,5,-6,-4,-6,-7
1558439038361981,-1,-1,-1,-3,4,4,1,-1
1558439038361981,-2,-2,7,5,4,3,5,3
1558439038361981,-2,-1,-8,-10,-5,-10,-6,-1
1558439038361981,-2,0,3,7,7,7,2,2
1558439038369959,-1,-2,1,-3,5,7,5,0
1558439038369959,1,-1,-8,-3,-4,5,0,-1
1558439038383923,-2,0,1,0,1,-5,-2,0
1558439038383923,-2,0,1,3,-3,-4,-3,-1
1558439038390903,-2,-1,-2,-15,-6,2,-6,-3
1558439038390903,-3,-2,-1,4,-4,-2,-4,-3
1558439038406860,-1,-1,-4,-1,0,-5,4,-1
1558439038406860,0,0,1,0,4,-1,1,-1
1558439038413842,1,-3,2,5,2,-3,1,2
1558439038413842,-1,-3,2,-1,1,-7,0,0
1558439038420824,-2,-1,5,7,-2,6,-1,-2
1558439038420824,3,1,-6,-16,-5,-3,-3,-1
1558439038437780,-6,-4,0,4,-2,4,0,-1
1558439038437780,0,-2,2,2,-4,-3,-6,-3
1558439038444760,-2,-1,-11,-12,-7,-5,0,1
1558439038444760,-4,-5,2,5,3,1,-1,-4
1558439038450743,1,1,-2,-1,-2,-3,1,0
1558439038450743,0,1,4,6,5,2,-1,-1
1558439038466700,-2,-1,1,-5,-1,2,-3,-1
1558439038466700,-1,2,-1,3,-9,-16,-6,-3
1558439038473682,0,1,-1,-3,-5,-2,-5,-3
1558439038473682,-1,-2,-10,-8,3,4,4,2
1558439038480663,1,-2,1,2,-4,-1,0,-2
1558439038480663,-3,-1,0,5,3,5,-1,1
1558439038495625,-1,2,2,-7,2,9,7,-1
1558439038495625,-2,-4,-7,-11,-7,-10,-3,-1
1558439038504598,0,-1,4,2,4,4,6,2
1558439038504598,0,-1,-4,-4,-6,-7,-5,-3
1558439038510584,-3,-3,-1,3,-3,-1,-4,-2
1558439038510584,0,-1,0,-1,-1,8,-4,-6
1558439038526540,0,-3,-8,-13,-2,-1,2,2
1558439038526540,2,2,6,3,-1,-8,2,5
1558439038533522,2,-1,1,7,-5,-10,-5,-2
1558439038533522,-3,-2,-3,-8,1,6,1,0
1558439038549479,-3,-4,2,5,0,6,1,-2
1558439038549479,2,0,-2,-3,-3,1,0,-1
1558439038556459,-1,2,-4,-3,-2,-4,-5,0
1558439038556459,-4,-1,2,1,-1,-7,-1,-2
1558439038563443,-1,1,3,3,5,-10,-2,-1
1558439038563443,-3,-4,1,3,2,2,-1,-1
1558439038572417,1,0,-4,-4,-4,9,4,1
1558439038572417,-3,-1,1,2,-6,-5,-4,-3
1558439038586379,-2,-4,-4,-5,-3,1,-4,-4
1558439038586379,-2,0,5,11,10,6,4,1
1558439038593361,-1,-3,-8,-20,-1,-9,-1,0
1558439038593361,2,2,-8,-7,-10,-4,-2,-3
1558439038617303,-3,-1,4,5,5,3,-1,-2
1558439038617303,0,0,1,5,-4,-12,-5,-3
1558439038619293,-3,-2,-4,-8,2,3,-2,-3
1558439038619293,-3,1,3,8,4,6,3,0
1558439038632256,2,3,-6,-15,-5,-5,-2,1
1558439038632256,-1,-1,4,5,-1,-1,-1,-3
1558439038634252,2,2,0,4,5,3,4,3
1558439038634252,1,-2,-4,-6,-6,-9,-3,-4
1558439038647218,-2,0,-3,3,-4,3,-3,-3
1558439038647218,-3,-1,-1,-5,-4,1,-5,-3
1558439038653201,3,1,3,8,9,6,8,4
1558439038653201,-2,0,9,5,7,2,3,0
1558439038669158,-3,-3,-9,-1,-8,-2,-3,-4
1558439038669158,-5,-1,-6,-10,-7,-6,-3,-2
1558439038676182,-1,-2,-1,1,-3,1,-2,-3
1558439038676182,0,-3,-3,-4,5,5,-1,0
1558439038692134,0,0,9,8,7,-6,-1,0
1558439038692134,4,0,-3,-8,-13,-11,-10,-5
1558439038694093,-7,-7,0,-1,3,5,3,0
1558439038694093,1,3,0,-1,2,-6,3,3
1558439038707058,0,-2,3,5,1,3,-1,2
1558439038707058,-4,-4,-7,-11,-5,-2,-5,-2
1558439038714038,2,1,4,5,-3,-1,0,-2
1558439038714038,0,0,-11,-16,-4,-4,-4,-2
1558439038729033,0,0,6,8,2,-13,-1,-1
1558439038729033,-2,-1,1,2,5,12,9,1
1558439038736015,2,3,4,1,-7,-7,-8,-4
1558439038736015,-4,-3,3,8,6,14,6,2
1558439038752935,-1,-1,-10,-10,-2,-4,-4,-3
1558439038752935,-3,-4,-3,-6,-3,-3,2,0
1558439038753932,-1,-1,-2,-4,-6,-8,-7,-3
1558439038753932,0,-4,0,2,-2,3,0,0
1558439038766898,1,1,7,9,3,1,2,2
1558439038766898,-2,-1,-5,-1,4,-2,-2,-2
1558439038773913,-3,0,-3,-4,-12,-14,-6,-3
1558439038773913,-1,0,-1,-1,-2,-1,0,-2
1558439038788838,1,2,-4,-2,3,11,0,0
1558439038788838,-4,-4,1,3,11,7,10,5
1558439038795857,1,-1,0,1,-2,-8,-1,-1
1558439038795857,-1,-3,2,8,0,-2,-2,-3
1558439038812775,-1,-3,-3,-9,-9,-10,-5,-5
1558439038812775,1,0,-4,-1,-6,5,-1,-2
1558439038813773,-2,-2,4,3,7,3,0,0
1558439038813773,-3,-3,-7,-6,-10,-7,-3,1
1558439038826738,-1,-1,2,5,1,1,-4,-4
1558439038826738,0,-1,-1,-3,-8,-8,-4,-3
1558439038833721,1,-2,4,1,18,23,10,5
1558439038833721,0,0,3,1,-5,-8,-7,-2
1558439038849675,-1,-1,-4,-3,-2,4,1,-1
1558439038849675,0,-2,-1,-1,0,1,-1,-1
1558439038855686,-1,-1,-2,-3,-7,-15,-5,-3
1558439038855686,-2,0,-1,-5,0,4,0,-1
1558439038872648,-3,0,-9,-8,-7,-9,-2,-1
1558439038872648,1,0,3,-1,4,3,4,-2
1558439038873638,-2,0,3,9,1,9,4,-3
1558439038873638,-3,-2,-2,-6,7,9,7,0
1558439038886577,2,1,-3,-9,-6,-5,1,0
1558439038886577,2,-1,1,11,-4,-14,-9,-4
1558439038893560,-3,-1,-1,-5,2,6,2,0
1558439038893560,0,3,-4,-6,-8,-8,-5,-2
1558439038909555,-2,0,5,8,5,-3,3,0
1558439038909555,0,-1,-2,-13,1,4,0,0
1558439038916498,0,-1,-1,0,-1,-6,-3,-1
1558439038916498,-4,-3,3,11,2,3,1,0
1558439038933452,1,-1,-3,-7,-3,4,0,-1
1558439038933452,-3,-3,0,0,-2,-3,-8,-4
1558439038933452,-3,1,-3,-2,-3,-8,2,1
1558439038933452,-1,0,-4,-1,5,4,5,0
1558439038946417,-2,-3,-1,-2,2,8,-3,-2
1558439038946417,-1,-1,-1,-3,-3,-1,-2,-2
1558439038953397,1,0,1,2,-9,-13,-4,0
1558439038953397,0,0,2,-1,5,-6,0,-1
1558439038969354,-1,-1,-1,2,-3,-1,4,1
1558439038969354,-1,-1,2,6,6,14,4,1
1558439038976336,-3,-3,-14,-18,-6,-5,-7,-2
1558439038976336,-1,-2,-2,-3,-13,-4,-5,-4
1558439038992332,0,-2,4,6,5,2,-3,-1
1558439038992332,0,1,-1,-1,0,-9,-1,1
1558439038994328,0,2,0,7,3,2,4,-1
1558439038994328,0,-2,-2,-3,-4,-2,-4,-2
1558439039007277,-3,-4,-5,-5,-10,1,-5,-3
1558439039007277,-2,-2,-1,1,0,-4,-2,2
1558439039013265,3,1,1,-11,2,-7,2,0
1558439039013265,1,0,-7,0,1,2,0,-1
1558439039029196,-5,-5,-4,-4,-5,-6,-3,-3
1558439039029196,0,-1,-4,-4,-3,-3,-3,0
1558439039036176,-1,1,-1,2,2,12,4,1
1558439039036176,2,-2,7,1,4,-6,-3,3
1558439039052134,-3,-1,-5,-6,-9,-7,-4,-3
1558439039052134,-5,-2,-5,-8,-4,-1,-4,-3
1558439039054129,-3,-3,-3,-1,-3,10,1,-3
1558439039054129,1,0,2,2,2,-7,1,0
1558439039067093,2,3,6,11,6,1,1,1
1558439039067093,-1,0,-1,2,-4,-4,0,-4
1558439039074075,-4,-6,-11,-6,-12,-10,-11,-6
1558439039074075,0,2,-3,-10,5,21,9,2
1558439039089037,-3,-5,-7,-2,-3,-19,-6,0
1558439039089037,2,2,-2,-4,3,-1,6,0
1558439039096052,2,-1,6,10,2,-3,0,-1
1558439039096052,-11,-8,2,5,4,5,-1,-1
1558439039112001,-2,-3,3,-2,-7,-4,-8,-4
1558439039112001,0,-1,-6,0,-3,2,0,1
1558439039113969,1,2,1,-1,7,-5,3,2
1558439039113969,0,-1,-7,-7,-6,1,4,-1
1558439039126000,1,2,2,-2,5,10,5,2
1558439039126000,0,-2,6,8,-3,-15,-5,-2
1558439039134912,-2,-3,1,-5,-9,-2,-7,-4
1558439039134912,-1,-3,-3,-3,-6,-9,-10,-3
1558439039148875,-3,0,1,4,1,4,2,-3
1558439039148875,0,-3,-11,-8,-1,2,4,0
1558439039155858,-1,0,2,7,2,-9,1,1
1558439039155858,2,-1,-4,-5,-3,-3,-2,0
1558439039172811,-2,-4,-2,-1,-2,3,-3,-3
1558439039172811,-3,0,5,3,-2,7,-3,-3
1558439039173809,0,0,1,4,1,-1,2,0
1558439039173809,5,5,3,-5,1,-3,2,0
1558439039185776,-6,-4,-3,-4,2,-2,-3,-1
1558439039185776,0,-2,1,-2,2,9,4,1
1558439039194754,-2,-6,-8,-6,-10,-15,-7,-4
1558439039194754,1,0,3,6,0,-7,-3,-1
1558439039209713,0,-1,-6,-3,6,7,5,2
1558439039209713,-1,0,3,1,-3,1,-6,-5
1558439039224167,0,-3,-5,-5,1,10,2,0
1558439039224167,1,2,-1,-2,1,-3,-7,-2
1558439039232656,3,-2,-6,-3,-3,-7,6,0
1558439039232656,-5,-3,2,3,1,-2,-2,1
1558439039233650,-1,-3,-7,-9,-10,-1,-8,-3
1558439039233650,-3,-1,1,4,1,4,3,-1
1558439039245616,0,1,3,3,7,12,0,0
1558439039245616,0,-2,-1,-3,0,-3,-3,-1
1558439039254594,0,-1,4,3,7,-7,7,5
1558439039254594,-3,-3,-9,-11,-12,-10,-5,-3
1558439039269553,2,0,3,2,4,9,2,0
1558439039269553,-1,-2,-6,-6,-8,-10,-3,-1
1558439039276534,1,4,3,7,6,9,-3,-2
1558439039276534,-4,-4,2,3,-5,-9,-2,-2
1558439039292994,-2,0,-7,-7,-7,-4,1,-3
1558439039292994,2,2,5,0,2,-6,-4,-2
1558439039293489,1,2,8,8,6,8,5,1
1558439039293489,-1,-6,-20,-15,-10,-2,-3,-3
1558439039306504,-2,-1,-2,-1,0,2,-3,-2
1558439039306504,-3,0,0,-1,-2,-5,-1,1
1558439039315449,-2,-2,-1,1,-3,-3,-6,-1
1558439039315449,-1,-2,5,3,2,-2,-1,1
1558439039329419,1,1,0,-3,-9,-10,-4,-1
1558439039329419,2,4,5,6,12,8,5,1
1558439039336375,2,-4,-4,-1,0,6,5,-1
1558439039336375,-3,-4,-5,-2,2,10,5,-1
1558439039351335,1,0,-2,-3,-4,-12,-5,-2
1558439039351335,-2,-2,-4,0,-4,-2,-2,-2
1558439039358316,-4,-1,1,1,1,2,-3,-2
1558439039358316,0,3,3,4,2,-7,2,2
1558439039366293,0,1,1,1,12,17,7,2
1558439039366293,0,-4,-6,1,-3,-1,-2,0
1558439039375296,-2,1,-7,-11,-6,-2,-4,-1
1558439039375296,-4,-1,1,3,-9,-5,-5,-5
1558439039389233,-1,-2,-2,-9,-8,-10,-4,-1
1558439039389233,0,0,2,-1,3,7,8,1
1558439039396213,0,-4,-2,-4,3,-3,-3,-1
1558439039396213,3,2,7,9,4,1,-1,0
1558439039412198,0,0,-5,-9,-5,-2,-5,-4
1558439039412198,-5,-2,0,-1,0,2,-1,-2
1558439039418154,-5,-3,-9,-12,-11,-6,-5,-4
1558439039418154,-1,2,3,3,-4,-12,-7,-1
1558439039426133,0,-1,6,9,5,-1,5,0
1558439039426133,3,-2,1,-1,-3,-4,-2,-2
1558439039435110,-4,-4,-2,-3,3,10,5,0
1558439039435110,-3,-2,-13,-10,3,7,1,0
1558439039449072,0,-1,1,3,-3,-3,-3,0
1558439039449072,-1,-1,2,0,0,-2,-1,-1
1558439039456053,-1,-2,-3,-1,-2,-2,2,-4
1558439039456053,-1,-5,-4,-10,-15,-10,-8,-3
1558439039472011,-1,0,0,1,5,4,3,0
1558439039472011,-1,0,0,1,3,3,2,0
1558439039479027,0,0,-1,2,0,-13,-4,1
1558439039479027,2,0,1,-3,3,2,2,-1
1558439039485974,0,-1,2,3,-4,-3,-3,0
1558439039485974,-3,-5,-6,-9,-9,1,-9,-5
1558439039494949,-1,-2,-5,-4,-5,-1,1,-1
1558439039494949,1,2,6,8,4,-5,2,0
1558439039508913,-2,0,0,2,0,-11,-2,-1
1558439039508913,-1,-2,-4,2,5,5,4,1
1558439039515893,-4,0,-6,-15,-14,-7,-8,-4
1558439039515893,-3,-6,0,5,9,13,4,1
1558439039531853,-1,-1,4,5,-5,-2,-3,-4
1558439039531853,-1,0,-7,-3,10,15,8,2
1558439039538833,-2,1,9,9,3,-19,2,4
1558439039538833,1,0,-4,-3,-6,-3,-5,-2
1558439039545844,2,4,2,-3,-8,-4,-5,-2
1558439039545844,-2,-4,-2,-4,0,-10,-8,-2
1558439039554789,-5,-3,-3,-1,1,6,1,-3
1558439039554789,-2,0,4,4,2,2,-3,-3
1558439039568752,-5,-4,-3,-1,-4,-3,-3,-1
1558439039568752,3,0,-1,5,-5,-4,2,0
1558439039575733,-4,-5,-4,-9,-9,-8,-7,-2
1558439039575733,0,-1,-1,-5,9,9,4,2
1558439039591690,-4,-2,2,7,0,-1,0,-1
1558439039591690,2,3,-1,-8,-3,-2,0,-1
1558439039598673,5,1,-3,5,0,-3,0,-2
1558439039598673,-6,-4,-4,-3,-3,5,-1,-3
1558439039614628,-1,0,0,-2,1,1,1,1
1558439039614628,-4,0,4,-1,0,-6,-2,-2
1558439039616623,0,0,4,4,2,4,3,1
1558439039616623,-1,-1,-2,-1,-7,-10,-7,-3
1558439039629786,-2,-2,-4,-7,0,-2,-3,0
1558439039629786,-1,-1,-5,-3,2,3,-2,-3
1558439039635770,-1,1,2,1,4,8,2,-1
1558439039635770,3,3,2,3,3,-8,3,2
1558439039651657,-4,-6,-4,-2,-6,1,-4,-5
1558439039651657,-1,-1,3,3,-8,-13,-4,-3
1558439039658512,1,0,-1,0,6,16,10,3
1558439039658512,-1,1,2,0,-3,5,-2,-2
1558439039675538,1,-1,-5,-4,0,-9,-1,1
1558439039675538,-11,-9,-1,1,-4,-3,-5,-3
1558439039676465,1,-1,4,6,3,1,1,-4
1558439039676465,0,-1,-6,-12,-4,-2,0,-1
1558439039689458,2,1,-8,-2,-6,-3,3,0
1558439039689458,-2,-1,-4,-3,-11,-11,-6,-2
1558439039696439,-3,-1,0,-5,-2,0,-7,-1
1558439039696439,-2,1,5,8,1,3,2,2
1558439039712397,-1,-1,0,1,6,-1,-1,0
1558439039712397,3,0,-6,-21,-5,2,2,1
1558439039720375,1,-1,-4,4,-2,2,-3,-2
1558439039720375,2,1,3,-1,-4,-10,-3,0
1558439039735383,-1,1,2,2,8,16,9,3
1558439039735383,-2,0,0,6,2,-4,0,-2
1558439039736381,-2,-5,-2,-3,-10,-5,-9,-3
1558439039736381,3,-2,-12,-7,0,-2,1,-1
1558439039749376,-12,-5,2,1,-2,-2,-3,-4
1558439039749376,4,4,4,5,4,-7,1,4
1558439039756361,-1,-3,-9,-8,-1,8,0,-2
1558439039756361,0,1,3,6,-4,-6,-4,-4
1558439039772286,-5,-4,-5,-21,-6,-9,1,-2
1558439039772286,1,1,1,4,5,15,5,-2
1558439039778271,0,1,2,2,-5,-8,-4,-2
1558439039778271,-4,-3,1,4,5,4,1,-1
1558439039795254,5,3,-1,-1,-5,-5,0,-1
1558439039795254,0,-2,-2,-4,-2,0,0,2
1558439039796138,-1,-1,3,0,11,7,1,1
1558439039796138,-3,-1,-4,-3,-3,0,-2,-3
1558439039809137,-1,-2,3,2,-3,1,-4,0
1558439039809137,-3,-4,-1,-2,-7,-6,-3,-3
1558439039816119,0,-2,-3,1,-5,-3,-2,0
1558439039816119,1,1,3,2,9,7,5,3
1558439039832079,0,0,0,4,-1,0,-3,-4
1558439039832079,-1,-1,4,-1,-4,-7,-5,-3
1558439039839069,-3,-1,-14,-21,-9,-7,-3,-1
1558439039839069,-3,-2,-4,-6,-1,1,0,-2
1558439039855023,1,0,4,5,10,2,9,3
1558439039855023,-2,-3,-2,4,-2,-3,-8,-2
1558439039855988,-1,1,5,6,3,9,4,-1
1558439039855988,-1,-3,-2,-3,-9,-8,-7,-2
1558439039868947,1,1,-2,0,-6,-17,-7,-2
1558439039868947,3,3,0,1,7,9,3,1
1558439039875931,-11,-7,3,-3,-1,-3,-3,-4
1558439039875931,-4,-4,-7,-6,-7,7,-1,-3
1558439039892001,-1,0,3,3,2,6,-3,-1
1558439039892001,-1,2,-6,-3,-4,-5,-2,-1
1558439039898977,3,0,-4,0,3,-9,2,2
1558439039898977,0,-1,6,4,0,-4,0,-1
1558439039914935,-2,-3,-5,-9,-7,-1,-4,-4
1558439039914935,-3,-5,1,1,5,14,3,-2
1558439039916821,2,4,3,7,10,5,8,3
1558439039916821,0,-2,-1,-2,-3,-7,-3,0
1558439039928786,0,-3,0,-1,1,6,2,-2
1558439039928786,-1,1,-1,-5,-5,-5,-1,-1
1558439039935767,0,-2,0,6,5,0,-1,-2
1558439039935767,-2,-1,0,-5,-3,-12,0,0
1558439039951725,1,1,-2,-3,-7,-8,-5,-2
1558439039951725,-4,0,2,4,9,13,5,3
1558439039958709,0,-1,0,2,-1,-3,0,-1
1558439039958709,2,1,-4,-11,-2,0,-3,-2
1558439039974697,-3,-8,-3,5,-5,0,-6,-2
1558439039974697,1,0,-2,-7,1,-16,2,1
1558439039976659,5,4,10,6,-1,-8,-3,2
1558439039976659,-5,-4,-4,7,5,9,2,-5
1558439039989813,-1,0,-9,-16,-2,5,-2,-3
1558439039989813,0,-1,3,4,-5,-5,-4,-1
1558439039996666,-1,-2,-6,-6,-7,-6,-3,-3
1558439039996666,1,0,6,3,3,1,1,3
1558439040011566,-3,0,9,7,3,2,4,0
1558439040011566,-1,-3,-6,-6,-6,-14,-5,-4
1558439040018547,-4,-2,0,-2,-6,0,-1,-3
1558439040018547,-2,1,-5,-4,1,4,0,-1
1558439040034630,0,-4,1,4,-1,-2,-3,0
1558439040034630,2,0,0,-4,2,3,-1,0
1558439040036499,-3,-1,-2,-2,-12,-12,-8,-3
1558439040036499,1,-1,-2,0,-1,3,3,3
1558439040049464,1,1,3,0,9,0,3,3
1558439040049464,3,1,4,7,3,9,5,0
1558439040056626,-1,-4,-11,-15,-8,0,-4,-4
1558439040056626,-10,-9,0,2,-8,-13,-8,-3
1558439040071516,0,0,-4,-4,0,-3,1,0
1558439040071516,-2,0,0,-1,6,8,5,1
1558439040078387,0,1,3,7,3,0,-1,-1
1558439040078387,3,2,-1,-4,-6,-4,0,-2
1558439040095342,0,3,3,5,2,7,-2,0
1558439040095342,-2,-7,-11,-10,-7,-6,-4,-2
1558439040096338,0,-1,6,9,10,-1,4,3
1558439040096338,-4,-3,-6,-1,-10,-4,-3,-4
1558439040108340,-2,-2,1,-3,0,-1,1,-1
1558439040108340,-1,0,-3,-2,-1,8,0,-2
1558439040117283,-2,0,-5,-8,-5,-2,2,1
1558439040117283,3,3,8,10,16,12,6,4
1558439040132243,6,5,1,3,2,-5,-2,0
1558439040132243,-13,-6,0,-1,-8,-1,-8,-8
1558439040138260,-1,-5,-13,-9,-8,-8,0,-4
1558439040138260,1,2,2,3,-1,-19,-1,0
1558439040155211,3,-1,-6,-6,4,7,7,2
1558439040155211,-8,-6,-6,-6,-5,-3,-5,-4
1558439040156183,-1,-1,4,1,1,7,-3,-3
1558439040156183,-1,-1,-2,1,-4,3,-5,-5
1558439040168176,-2,-2,0,-2,-2,-13,-3,-2
1558439040168176,2,2,2,10,2,-1,4,3
1558439040177126,-4,-4,-3,-5,-2,3,0,0
1558439040177126,-1,0,1,-4,0,0,-5,-1
1558439040192121,-4,-5,4,7,-2,0,-5,-3
1558439040192121,0,0,1,-3,-4,-4,-2,-1
1558439040199065,0,-1,-1,1,-4,-8,-3,1
1558439040199065,2,4,1,2,7,4,4,1
1558439040215057,-3,-2,-7,-6,3,7,-2,-2
1558439040215057,3,3,-7,-11,-10,-7,-3,-1
1558439040216022,-1,-5,0,2,1,1,-4,-2
1558439040216022,4,0,2,0,-4,-1,2,0
1558439040228984,-6,0,1,2,-1,4,1,-4
1558439040228984,-6,-5,1,2,11,-2,5,4
1558439040237963,1,2,8,7,5,3,2,0
1558439040237963,-4,-3,-3,0,-2,0,-5,-5
1558439040251923,-2,-4,-18,-27,-17,0,-1,-3
1558439040251923,1,-2,1,8,1,-2,-5,1
1558439040258904,1,2,-4,-6,-1,-2,-3,-3
1558439040258904,-3,-4,0,0,3,4,1,-1
1558439040274863,2,-1,1,10,2,-9,-1,-1
1558439040274863,1,1,1,-9,0,5,0,-3
1558439040276858,-1,1,-2,1,3,4,6,3
1558439040276858,0,1,-8,-14,-11,-10,-1,0
1558439040288857,0,2,-1,0,3,3,-1,1
1558439040288857,-5,-1,-4,-1,-10,-9,-8,-4
1558439040297800,-2,-1,2,4,8,7,3,-1
1558439040297800,-1,-1,-4,-1,3,5,4,1
1558439040311763,1,-3,5,2,1,-6,2,3
1558439040311763,3,-1,-4,-4,2,-2,1,-1
1558439040318816,-1,1,-1,2,-5,5,-4,-3
1558439040318816,-4,3,4,2,-5,-4,-8,-3
1558439040334740,3,-4,-10,-5,-7,-4,-5,-1
1558439040334740,-7,-2,-1,5,-3,-4,3,-2
1558439040340749,0,-1,-3,-6,1,-5,1,1
1558439040340749,3,2,5,-2,1,-5,-1,1
1558439040348728,-9,-5,-5,0,-3,2,-3,-3
1558439040348728,5,3,3,7,2,6,3,0
1558439040364690,-1,0,3,3,5,-2,3,1
1558439040364690,-2,-7,-3,1,0,2,-3,-2
1558439040371675,1,4,0,3,-2,2,0,-2
1558439040371675,3,1,1,-2,-2,-7,-4,-1
1558439040378612,-4,-3,-1,-3,1,2,2,0
1558439040378612,2,1,2,5,2,6,4,2
1558439040394577,-4,-3,-6,-6,-4,-6,-3,0
1558439040394577,2,-1,-4,-7,-5,-8,-3,-1
1558439040401522,1,-1,0,2,1,5,-1,-2
1558439040401522,-1,-3,-4,0,-5,-4,-1,-2
1558439040408541,0,1,4,3,5,8,4,-1
1558439040408541,0,0,3,1,-1,-1,-1,-2
1558439040425463,0,-5,-4,-6,-12,-18,-12,-4
1558439040425463,-1,0,1,0,2,-1,-1,1
1558439040431479,-4,1,2,0,6,1,1,1
1558439040431479,0,-2,-2,-1,-4,-2,-5,-3
1558439040438464,-6,-5,-12,-12,-7,1,-5,-2
1558439040438464,0,0,0,0,-3,1,2,-1
1558439040454384,0,-1,-1,-2,-1,-15,-1,2
1558439040454384,0,2,6,13,11,12,4,3
1558439040469380,-6,-4,-6,-10,-8,-10,-9,-4
1558439040469380,-3,-4,-7,-5,-5,2,0,-2
1558439040470343,0,-3,2,-1,0,-6,-5,-4
1558439040470343,-3,-3,-5,-4,-9,0,-4,-4
1558439040477321,5,3,5,7,10,9,10,1
1558439040477321,-1,0,0,-4,2,-4,1,0
1558439040491282,-5,-2,2,2,-3,-4,-2,-3
1558439040491282,-1,0,-5,-9,2,3,0,0
1558439040498263,2,4,3,2,1,4,2,0
1558439040498263,-4,-2,3,8,1,4,1,-1
1558439040514260,4,2,-6,-15,-4,-10,-1,0
1558439040514260,-4,-6,-5,-10,-9,-4,-3,-2
1558439040521201,-1,-2,-2,8,0,-2,-3,-1
1558439040521201,-2,-1,-2,-10,-1,0,0,-1
1558439040537325,-2,-1,2,3,2,-3,-2,-1
1558439040537325,-1,0,-2,-2,8,9,4,1
1558439040539154,-2,-2,-1,0,-3,3,-2,-2
1558439040539154,4,1,6,3,-9,-6,-8,-4
1558439040552317,-7,-3,-1,4,-1,7,0,-4
1558439040552317,4,1,-1,-5,-1,-12,1,2
1558439040566278,-9,-5,1,5,6,8,6,-1
1558439040566278,-1,0,2,4,7,-2,-3,-1
1558439040574270,1,0,-1,-4,-7,3,-1,0
1558439040574270,-3,0,-1,-1,-1,-3,-4,-3
1558439040589055,3,4,3,1,2,-5,2,3
1558439040589055,-2,0,-8,-11,-8,-2,-3,-3
1558439040597042,0,-2,-1,-1,1,-2,-1,-1
1558439040597042,-2,-5,2,2,2,6,0,-2
1558439040598996,1,-1,1,-1,-8,-10,-8,-2
1558439040598996,-1,0,-2,0,2,-3,-1,1
1558439040611963,0,3,6,8,4,2,0,2
1558439040611963,-1,-2,-2,-4,2,-6,0,-3
1558439040618984,1,0,1,1,-5,-2,-2,-2
1558439040618984,-4,-6,-5,-3,-4,2,-1,-4
1558439040633933,-1,0,-2,-1,-3,3,-1,0
1558439040633933,-1,0,3,2,2,0,-1,0
1558439040640884,-2,1,0,-1,2,2,0,1
1558439040640884,1,0,-1,2,3,0,4,1
1558439040657838,-1,-6,-11,-9,-6,-3,-5,-4
1558439040657838,-3,-2,-1,-2,-2,4,4,1
1558439040658835,2,1,-3,-2,4,1,-1,0
1558439040658835,-2,0,-4,-3,-3,-8,0,-1
1558439040679778,-5,-6,0,0,2,6,-2,-3
1558439040679778,-2,-4,-6,-4,-7,0,-7,-3
1558439040681801,2,1,-3,-4,-2,-6,-4,-1
1558439040681801,-4,-1,3,6,5,-4,2,3
1558439040693742,0,1,1,1,3,4,5,0
1558439040693742,1,2,2,1,-2,0,-1,-1
1558439040701719,0,-7,-4,-2,-6,-3,-2,-1
1558439040701719,-3,-2,-4,0,-4,5,0,-3
1558439040717896,-1,1,0,-2,0,2,2,3
1558439040717896,-1,1,8,11,2,-2,-1,1
1558439040718692,-2,1,-4,-12,-5,-3,-4,-2
1558439040718692,-2,-4,-12,-11,-4,0,0,0
1558439040731691,-1,-4,-3,-2,11,12,8,2
1558439040731691,0,1,4,7,-3,-20,1,1
1558439040738675,0,1,6,3,4,4,-2,-1
1558439040738675,-3,-3,3,-4,-3,4,-3,-2
1558439040754632,2,1,-2,3,-2,-2,-4,-3
1558439040754632,0,-2,-5,-2,2,1,1,1
1558439040768590,0,-1,0,-1,-6,-12,0,-2
1558439040768590,-4,-4,-2,-5,3,-4,-4,0
1558439040777518,-1,-1,2,2,-9,-4,-3,-1
1558439040777518,2,2,3,2,10,8,7,3
1558439040778515,-2,-4,-3,-1,-3,0,-2,-2
1558439040778515,0,-3,-7,-10,-2,1,-3,-4
1558439040791535,-2,-2,2,1,-2,-7,-2,-2
1558439040791535,-5,-5,-7,-5,-8,-5,-8,-5
1558439040798564,0,2,0,5,6,9,5,1
1558439040798564,2,1,8,8,2,-9,1,1
1558439040814531,-2,0,-5,-3,-1,3,0,-1
1558439040814531,1,-2,-4,-6,-3,5,-3,-2
1558439040821480,0,1,-1,0,3,-8,-1,1
1558439040821480,-3,-2,-6,-6,-10,-6,-5,-4
1558439040845379,-1,-3,0,-1,-10,-7,-8,-6
1558439040845379,1,2,2,4,10,2,8,4
1558439040846376,-2,-1,2,-2,0,-3,-5,-3
1558439040846376,0,1,3,5,1,1,-2,0
1558439040851399,2,0,-8,-14,-4,-12,-1,1
1558439040851399,-2,-2,0,-3,-8,2,-4,-5
1558439040858380,-1,-3,1,3,2,1,3,0
1558439040858380,-3,-2,-1,0,0,2,3,1
1558439040874297,-4,-2,-9,-8,-5,-1,-4,-3
1558439040874297,2,3,-2,-3,2,-1,0,-3
1558439040888301,-10,-6,0,-3,-2,-5,2,1
1558439040888301,2,0,2,5,4,1,1,-1
1558439040897240,-2,1,2,1,-1,7,0,-4
1558439040897240,-3,-3,-2,-7,-4,-7,-3,-1
1558439040899257,1,0,-6,-2,1,0,-1,-2
1558439040899257,-2,-2,-2,-3,-2,6,-3,-4
1558439040911198,2,-1,1,5,3,-4,-2,2
1558439040911198,-2,0,-1,-2,-5,-7,-4,-1
1558439040920174,-2,-3,-2,0,-8,-14,-8,-4
1558439040920174,1,0,-2,0,9,7,10,3
1558439040934137,2,2,1,-1,0,7,1,2
1558439040934137,-4,-3,-3,1,-4,10,-2,-4
1558439040941117,-1,0,-3,-4,1,-9,-2,0
1558439040941117,1,2,-3,-1,2,-5,0,1
1558439040958071,-1,-1,5,6,-1,1,-1,-2
1558439040958071,-2,-3,-5,-6,-8,-5,-5,-1
1558439040959070,-2,-3,-3,-7,0,8,-3,-4
1558439040959070,-2,-1,-2,-3,-3,-8,-6,-3
1558439040972252,0,2,6,7,4,-1,2,3
1558439040972252,0,-1,-3,0,-2,-11,-4,-2
1558439040979044,4,2,-6,-14,-12,3,0,-3
1558439040979044,-1,0,1,3,6,-1,3,2
1558439040993977,-3,-2,-2,-4,-3,-8,-3,0
1558439040993977,0,-2,0,1,2,8,-2,-2
1558439041001053,1,6,6,7,1,4,8,3
1558439041001053,-2,-6,-1,0,-5,-3,-8,-2
1558439041017921,-2,0,-4,-9,0,-7,0,-1
1558439041017921,-4,-3,-5,-3,-8,-11,-5,-1
1558439041018912,0,-2,-2,-1,2,10,3,-3
1558439041018912,1,2,4,0,3,-3,3,2
1558439041030965,0,0,3,3,1,-11,-4,-2
1558439041030965,-3,-3,-9,-4,-2,5,-3,-3
1558439041039960,-3,0,5,7,-5,-6,-2,-1
1558439041039960,-4,-3,-10,-16,-9,-2,-7,-5
1558439041053953,0,0,3,6,7,11,5,2
1558439041053953,2,2,4,1,4,-4,4,2
1558439041061476,-4,-3,-6,-1,-1,1,-2,0
1558439041061476,-3,-4,4,8,-6,-5,-6,-6
1558439041077404,-1,-3,-3,0,0,-2,-5,-2
1558439041077404,1,2,4,1,8,8,4,3
1558439041078402,0,-2,0,-3,-2,3,-3,-2
1558439041078402,-1,1,0,-5,-6,-6,1,0
1558439041091407,-4,-5,-10,-1,-4,2,1,-2
1558439041091407,-4,-3,-8,-4,-2,-8,-2,-2
1558439041100344,-1,0,-1,1,-2,-3,-4,-2
1558439041100344,-2,-1,0,0,-3,-1,-5,-3
1558439041114305,2,2,7,7,9,9,7,1
1558439041114305,4,2,2,-1,2,3,3,-1
1558439041121351,-8,-7,-5,-7,-4,-3,0,0
1558439041121351,-1,-2,-8,1,-5,2,-1,-2
1558439041137347,-2,-1,5,0,-9,-12,-11,-3
1558439041137347,-2,-2,-8,-13,-2,-3,2,1
1558439041139351,5,5,2,5,6,1,2,1
1558439041139351,-2,-4,-2,-12,0,8,0,-2
1558439041151309,-5,-4,-8,-4,-3,1,-4,-5
1558439041151309,-3,-2,0,0,1,3,3,0
1558439041160196,-3,-3,-2,0,-10,-10,-7,-3
1558439041160196,3,3,4,7,13,12,8,3
1558439041174229,1,1,0,0,-4,0,-2,-2
1558439041174229,-1,0,6,1,0,-8,0,0
1558439041181198,-1,-4,-7,-5,6,5,0,2
1558439041181198,-2,-2,-1,1,-8,-9,-9,-5
1558439041197114,-1,-3,-5,-8,0,1,4,0
1558439041197114,-1,1,2,7,7,4,1,-1
1558439041197114,2,1,2,5,0,4,-2,-1
1558439041197114,1,1,-3,-1,2,3,3,2
1558439041219056,-4,-2,-7,-13,-8,-2,0,-3
1558439041219056,-4,-2,0,-2,-8,-3,-10,-2
1558439041220026,1,3,0,4,15,5,8,3
1558439041220026,-5,-4,4,4,-4,-9,-1,-1
1558439041234986,2,0,2,2,-3,4,-2,-3
1558439041234986,-1,-1,-9,-8,-13,-3,-4,-4
1558439041241008,4,4,9,10,16,3,5,7
1558439041241008,-3,-6,-7,-7,-2,-2,-4,-1
1558439041255964,-3,-2,1,6,-4,-13,-3,-1
1558439041255964,0,-1,7,3,5,8,2,1
1558439041263936,-3,-1,-1,-3,-14,-5,-5,-4
1558439041263936,0,0,-6,-3,3,8,5,-1
1558439041280863,0,2,5,5,5,-7,0,4
1558439041280863,2,0,-2,1,1,1,1,0
1558439041281857,-3,-2,2,4,-4,-1,-4,-4
1558439041281857,0,1,-4,-1,2,-1,-1,1
1558439041294824,-2,-1,-7,-13,-6,-3,-1,-2
1558439041294824,-1,1,6,15,13,16,5,3
1558439041300806,0,0,-4,-16,-1,-5,2,1
1558439041300806,0,-2,-8,-7,-11,-10,-6,0
1558439041315766,-1,-2,0,-2,-8,-6,-6,-3
1558439041315766,1,-1,-1,-1,10,3,3,3
1558439041323748,-3,-1,5,6,-1,-2,2,-1
1558439041323748,1,0,3,1,-6,-3,-9,-5
1558439041338703,0,0,-7,-3,3,1,6,3
1558439041338703,-1,-1,-1,3,-3,-8,0,-1
1558439041339702,-2,-5,-6,-7,-7,-1,-4,-3
1558439041339702,0,4,4,5,2,7,1,-1
1558439041354663,-1,1,1,2,-4,0,-1,0
1558439041354663,0,-6,2,-5,-2,-2,-3,-1
1558439041360687,-2,-3,-12,-2,0,-4,0,1
1558439041360687,0,0,2,-2,-1,-10,0,2
1558439041375822,-2,-4,-3,1,-6,1,-8,-5
1558439041375822,-1,-3,-3,-4,-6,1,-3,-2
1558439041383683,1,-1,2,0,4,1,3,0
1558439041383683,-3,-2,0,2,-4,-8,-4,-2
1558439041399630,-1,-1,0,-1,0,3,0,-1
1558439041399630,-3,-1,1,-2,0,-2,-4,-3
1558439041399630,0,-3,-5,-5,-3,-7,-6,-1
1558439041399630,-5,-5,-3,-2,-1,1,-1,1
1558439041414531,-1,-1,3,0,0,-7,1,-1
1558439041414531,-2,-1,-1,-6,-2,-1,-1,-2
1558439041421482,-3,0,-4,1,-6,0,-3,0
1558439041421482,0,0,1,-3,2,-5,3,3
1558439041436480,0,1,-2,0,9,10,2,0
1558439041436480,-1,-2,1,1,-10,-7,-7,-4
1558439041443427,-1,-6,-10,-9,4,-2,1,-1
1558439041443427,1,1,4,4,7,6,3,-1
1558439041459393,-3,-3,-4,1,-5,3,-1,-1
1558439041459393,2,2,-4,-3,1,3,2,1
1558439041460412,-1,-1,4,3,0,-4,0,-1
1558439041460412,-3,-1,-3,-10,-6,-3,-3,-3
1558439041475341,0,-1,-1,-1,3,-4,4,3
1558439041475341,2,3,4,4,-4,-6,-6,-4
1558439041481368,0,0,-2,-3,-1,5,7,1
1558439041481368,1,-1,5,7,4,-4,-2,-2
1558439041496286,-2,-3,-1,-2,-3,3,-3,-5
1558439041496286,-5,-3,-5,-4,-2,-2,0,-1
1558439041512248,1,2,4,3,9,-4,-2,1
1558439041512248,2,2,-1,1,-3,-1,0,-3
1558439041519229,1,-2,-6,-8,-6,-5,-2,-2
1558439041519229,-4,-3,-6,-2,-13,-9,-7,-8
1558439041520221,1,1,4,-3,4,9,5,3
1558439041520221,-3,0,-6,-6,5,2,3,2
1558439041535180,-1,-1,8,7,0,-2,-7,-3
1558439041535180,-1,-3,-7,-6,-2,4,-2,-1
1558439041541200,0,-3,-6,-5,-9,-7,-7,-5
1558439041541200,0,-2,1,2,0,-2,0,-1
1558439041556367,-3,0,0,2,6,13,5,0
1558439041556367,3,7,11,8,1,-12,0,3
1558439041564179,-3,-7,-10,-11,-3,1,-3,-4
1558439041564179,-10,-8,-9,-12,-5,-4,-5,-5
1558439041579142,2,2,9,5,0,-3,0,-1
1558439041579142,-1,0,-7,-5,6,12,9,4
1558439041580060,-2,-1,1,2,-15,-8,-7,-4
1558439041580060,0,0,-2,6,9,9,5,2
1558439041595018,-2,-2,-6,-4,-1,2,-3,-1
1558439041595018,-4,-1,1,-5,-1,-8,-3,1
1558439041601084,-2,2,2,2,0,-5,1,2
1558439041601084,1,5,-2,-3,-1,7,-1,0
1558439041615998,0,-4,2,0,-3,-2,-6,-1
1558439041615998,-2,-4,-1,-1,-4,-9,-1,-2
1558439041623976,1,2,6,7,4,-3,1,-1
1558439041623976,-2,-3,-4,-9,-5,2,-1,-4
1558439041638948,0,0,-2,-3,3,-1,6,2
1558439041638948,-1,-4,-7,-7,-1,5,1,0
1558439041639906,-5,-4,-4,-1,-13,-9,-9,-5
1558439041639906,2,0,2,4,1,3,0,0
1558439041654860,-1,2,2,8,1,0,-2,-1
1558439041654860,1,-5,-2,-4,-4,-7,-4,-2
1558439041660849,2,0,1,-5,10,15,9,0
1558439041660849,1,-1,-3,3,0,-6,0,0
1558439041675849,-2,-1,0,-3,1,1,-5,-3
1558439041675849,-3,-1,-5,-1,2,-2,0,-1
1558439041683790,1,1,0,0,-6,-3,-5,-2
1558439041683790,2,1,3,4,-1,-5,-1,2
1558439041699740,0,-2,-4,-3,-4,-2,-2,-2
1558439041699740,2,2,3,-3,1,3,1,-2
1558439041699740,-5,-3,-15,-15,-18,-8,-10,-5
1558439041699740,0,-3,1,-3,6,8,7,2
1558439041714702,-3,-2,1,3,3,-11,2,3
1558439041714702,-2,-4,-8,-2,-3,-2,-2,-1
1558439041720725,-1,2,4,3,7,6,6,1
1558439041720725,-1,0,3,6,-2,0,-2,0
1558439041735685,0,0,2,-2,1,2,2,-1
1558439041735685,-4,0,3,6,-2,0,-5,-2
1558439041743625,-5,-5,-11,-9,-10,-10,-6,-3
1558439041743625,2,1,-5,-7,2,4,-1,1
1558439041759580,2,2,3,0,0,-3,5,2
1558439041759580,-2,-4,0,1,5,2,2,1
1558439041759580,2,3,7,7,6,-5,0,1
1558439041759580,-3,-3,3,3,-5,-6,-7,-4
1558439041774857,-2,0,-6,-6,-6,2,-6,-4
1558439041774857,1,-3,-4,-8,-7,-2,-6,-3
1558439041781713,-1,0,5,5,6,1,1,-1
1558439041781713,0,0,0,1,2,2,5,0
1558439041796773,0,-1,0,1,6,-6,1,3
1558439041796773,-4,0,-4,-11,-8,0,-1,-1
1558439041803758,-3,-4,-2,4,-4,2,-4,-2
1558439041803758,-1,3,1,-2,-6,-9,-5,-6
1558439041819776,1,-4,-3,2,-1,-1,0,-1
1558439041819776,-1,-2,-3,2,1,-5,-1,-3
1558439041819776,-1,-1,0,-2,-2,5,-6,-5
1558439041819776,1,0,4,4,1,1,0,0
1558439041835378,-4,-4,-10,-4,0,-6,2,-1
1558439041835378,1,2,3,-3,5,5,7,4
1558439041841640,2,-2,-4,-8,-4,-3,2,1
1558439041841640,-11,-8,-4,0,1,1,-2,-3
1558439041856559,-2,1,0,0,-6,-3,-3,-3
1558439041856559,-1,-1,3,5,1,7,2,-4
1558439041864336,2,-1,-1,-3,-3,-7,-5,0
1558439041864336,1,2,0,-2,2,4,0,-1
1558439041879293,0,2,-1,-5,-6,-6,0,0
1558439041879293,0,1,2,8,4,-1,-4,-2
1558439041880261,-3,-1,0,5,5,9,5,-2
1558439041880261,-1,-3,-14,-11,-11,-8,-2,-3
1558439041895217,-5,-2,1,-4,0,7,-2,-3
1558439041895217,2,1,-1,0,-6,-5,-1,0
1558439041901398,0,-1,5,5,-1,0,-7,-3
1558439041901398,0,-3,5,2,7,9,2,1
1558439041916162,3,1,2,2,11,0,11,5
1558439041916162,-4,0,-5,-7,-6,-3,-3,-3
1558439041924297,-1,-2,5,6,-6,-4,-1,-1
1558439041924297,0,-2,-5,-7,4,4,2,-1
1558439041939140,0,0,-5,-3,2,0,-3,-1
1558439041939140,-6,-6,-2,-2,-5,-10,-4,-1
1558439041942097,-2,0,0,0,0,4,4,-1
1558439041942097,3,0,3,2,-8,-10,-4,-3
1558439041955056,2,0,-2,-1,0,-4,-7,-3
1558439041955056,1,0,-2,-3,5,6,1,0
1558439041961040,-2,0,-4,-5,-1,2,-2,-2
1558439041961040,1,2,6,8,2,-8,-1,0
1558439041975999,-4,-4,-1,-5,-10,5,-1,-4
1558439041975999,0,-4,-12,-11,-6,-3,-4,-3
1558439041983019,0,-2,-2,-3,8,0,6,3
1558439041983019,-3,-2,-4,0,-10,-7,-6,-3
1558439042000072,-2,-1,3,5,7,0,2,1
1558439042000072,-2,-3,-1,2,-1,-4,-2,-2
1558439042000072,0,0,1,0,0,-1,0,0
1558439042000072,1,3,-1,0,3,10,5,1
1558439042014938,-5,-5,-3,-9,-9,-1,-6,-2
1558439042014938,3,2,0,4,3,-7,-3,0
1558439042020916,2,2,3,1,13,14,10,2
1558439042020916,-10,-6,1,4,-9,-16,-6,-4
1558439042035841,0,-1,-4,-9,2,14,5,-1
1558439042035841,-2,1,-1,-4,3,0,5,5
1558439042043837,-4,-3,0,3,-8,-6,-8,-3
1558439042043837,0,-1,-11,-10,-9,-4,-3,-3
1558439042059227,-1,-1,2,3,-1,-4,-6,-4
1558439042059227,-2,-2,5,4,-4,-4,0,-2
1558439042059776,1,0,-4,-5,0,-9,-3,-2
1558439042059776,-1,0,-1,-6,-1,-5,2,3
1558439042075112,-1,0,2,6,0,4,3,0
1558439042075112,0,-2,-6,-4,0,3,-5,-3
1558439042089998,-1,-2,4,3,3,-1,2,1
1558439042089998,2,0,2,3,5,-1,-1,-1
1558439042096724,5,1,-5,-10,-5,-7,-4,-4
1558439042096724,-8,-4,2,8,-2,-2,-3,-4
1558439042103910,-3,-1,-4,-7,-12,-2,-8,-7
1558439042103910,-1,1,-5,-3,1,5,1,1
1558439042119844,-5,-3,-1,3,-4,-13,-7,-1
1558439042119844,1,3,0,-1,6,7,8,1
1558439042119844,1,0,-4,-3,-5,-15,-6,-1
1558439042119844,5,1,4,6,9,5,-2,-2
1558439042134578,-9,-8,-2,1,1,8,2,-2
1558439042134578,3,0,0,-4,-9,-7,-4,-1
1558439042141759,-3,-4,-5,-1,5,3,2,1
1558439042141759,1,1,4,3,-1,-6,-2,-1
1558439042156755,2,0,-2,-2,-6,-10,-2,-1
1558439042156755,0,-1,1,2,-4,2,-7,-5
1558439042163503,0,3,-5,-12,4,5,7,4
1558439042163503,-4,-2,-4,-5,-5,2,-3,-4
1558439042178459,-2,-3,-2,0,-3,-3,-3,-1
1558439042178459,3,4,9,11,9,3,10,2
1558439042186716,0,-3,-1,-5,-9,-2,-9,-7
1558439042186716,-4,-5,-3,-2,4,5,2,2
1558439042203394,-1,3,3,3,-1,-3,-3,0
1558439042203394,1,-2,-10,-13,-7,-15,-4,-1
1558439042204593,1,0,1,6,-5,-2,-2,-2
1558439042204593,-1,-3,-1,-7,0,4,2,-2
1558439042216384,2,-1,-6,-1,-3,5,4,0
1558439042216384,0,0,5,3,9,0,-1,2
1558439042223373,-5,-2,-3,-1,-1,-3,-2,1
1558439042223373,0,0,-1,0,-4,-7,-3,-1
1558439042239296,2,0,2,4,6,8,0,-1
1558439042239296,-14,-10,-5,-9,-3,-5,-4,-4
1558439042246279,1,1,-4,0,0,1,3,1
1558439042246279,-4,-1,-7,-6,-12,-3,-7,-3
1558439042255254,4,4,-1,-2,4,1,5,1
1558439042255254,2,1,6,5,5,3,-1,-1
1558439042261237,-3,-3,-9,-4,-7,-6,0,-3
1558439042261237,2,1,-1,1,-1,6,5,-1
1558439042276199,-4,-2,3,-1,-8,-9,-7,-4
1558439042276199,2,2,6,8,3,3,-1,-1
1558439042283178,-1,3,-2,-7,-1,4,1,0
1558439042283178,0,-3,0,1,-7,-12,-5,0
1558439042306148,0,0,-5,1,13,15,15,7
1558439042306148,0,-2,-3,-8,-7,2,-4,-4
1558439042307113,3,1,5,5,5,-2,-4,0
1558439042307113,-2,-2,1,1,-5,-13,-4,-1
1558439042315119,-4,-1,-1,-7,1,0,-3,-4
1558439042315119,-2,-3,-2,2,-5,-8,-3,0
1558439042321110,-2,-3,0,-5,2,6,-1,-1
1558439042321110,-1,2,0,-1,2,6,3,1
1558439042336036,0,-1,3,2,-1,-4,0,2
1558439042336036,5,1,-2,-2,4,2,4,3
1558439042343018,0,-2,-1,-1,-13,-19,-10,-5
1558439042343018,-4,-4,-2,1,7,9,-1,-2
1558439042358988,0,1,0,-6,-1,-10,5,2
1558439042358988,-4,-2,-9,-8,-7,3,-3,-5
1558439042365958,-1,-1,1,6,-3,7,-3,-3
1558439042365958,0,0,-2,-1,6,3,5,2
1558439042381972,-3,0,1,2,3,-2,0,0
1558439042381972,0,2,1,-1,-4,-1,-5,-1
1558439042381972,-4,-4,2,2,-1,-4,-1,-2
1558439042381972,-1,1,3,-2,-1,2,-2,-2
1558439042396876,1,0,0,-2,4,5,-3,-3
1558439042396876,-1,-2,1,2,-2,-6,4,3
1558439042403890,-2,-1,-1,1,-1,-1,-2,-1
1558439042403890,-2,0,-3,-5,-5,4,-1,-3
1558439042418819,3,-2,-1,2,2,-2,-1,-1
1558439042418819,-1,1,0,2,4,4,3,0
1558439042425797,-1,0,3,7,4,3,3,0
1558439042425797,3,1,-2,-9,0,-7,-4,-1
1558439042441755,-4,-5,-3,-1,-19,-10,-11,-2
1558439042441755,3,0,-3,-3,0,-2,-2,-2
1558439042442754,3,1,1,2,11,14,9,5
1558439042442754,-2,-2,2,4,1,-2,5,2
1558439042457712,-2,-1,0,0,-2,1,-6,-3
1558439042457712,-4,-4,-4,-6,-6,-6,-5,-4
1558439042463697,1,1,6,3,1,5,4,2
1558439042463697,-1,-2,-5,-4,0,-16,-8,-1
1558439042478655,-1,0,1,-1,-2,0,0,0
1558439042478655,-2,-2,-15,-10,-7,4,-5,-4
1558439042485837,-2,0,1,4,-3,4,-3,-1
1558439042485837,-1,-3,-4,-9,2,3,4,1
1558439042501594,-2,0,2,2,-8,-8,-3,-3
1558439042501594,2,2,3,1,6,-2,3,0
1558439042502591,-2,-2,-7,-9,-4,-2,0,-1
1558439042502591,4,1,1,1,-6,-1,-5,-1
1558439042517552,-3,-2,0,4,0,1,0,-2
1558439042517552,-1,-5,2,1,-1,2,0,-2
1558439042523719,-2,-3,-8,-8,-5,-9,-2,-2
1558439042523719,3,2,9,9,6,5,0,2
1558439042538787,-3,-4,-7,-6,-3,-2,-5,-2
1558439042538787,2,3,3,6,6,5,3,3
1558439042545482,1,1,6,3,3,-12,-1,0
1558439042545482,-7,-8,-20,-13,-13,0,-5,-5
1558439042561434,-2,-2,-3,-2,-12,-8,-8,-4
1558439042561434,2,0,1,1,4,2,-1,-1
1558439042562432,-1,-1,-1,1,12,1,3,4
1558439042562432,2,2,5,8,1,-3,2,1
1558439042577394,0,1,0,-6,-1,1,0,0
1558439042577394,-2,-3,4,2,-2,5,4,0
1558439042583376,-5,-3,-6,-8,-5,4,0,-4
1558439042583376,-2,2,5,7,3,2,0,2
1558439042598338,-3,-2,-13,-15,-9,-8,-6,-4
1558439042598338,-3,0,4,4,-1,5,-1,-1
1558439042606490,0,1,4,1,3,-8,-1,1
1558439042606490,-4,-6,-13,-10,-7,-5,-6,-4
1558439042621274,2,3,4,4,1,2,4,1
1558439042621274,-1,0,0,4,3,-5,-5,-3
1558439042622270,0,-2,0,-3,-2,10,0,-4
1558439042622270,7,2,2,2,-1,-13,-1,1
1558439042637232,-8,-3,-1,1,3,-1,2,0
1558439042637232,-5,-6,-9,-10,-11,-8,-2,-2
1558439042643231,0,-5,-1,0,1,5,4,-1
1558439042643231,-3,1,2,3,-1,2,-6,-5
1558439042658343,4,1,-1,1,2,2,-1,1
1558439042658343,0,3,5,3,0,-6,0,-1
1558439042666323,-2,-3,0,6,5,11,2,1
1558439042666323,-1,1,-1,-7,-8,-8,-4,-1
1558439042682113,-2,-1,3,-4,0,-2,3,2
1558439042682113,-5,-5,-20,-14,-13,-12,-10,-3
1558439042682113,-2,-3,-2,0,-5,2,-4,-4
1558439042682113,2,1,3,8,4,-9,8,5
1558439042697071,0,-1,3,0,4,10,1,-2
1558439042697071,-1,-1,4,1,-3,-8,-2,-1
1558439042703175,2,2,-1,-1,4,-3,2,2
1558439042703175,-4,-1,0,1,-1,0,-7,-3
1558439042719076,-3,-4,-6,-10,-10,-5,-3,-4
1558439042719076,-2,-3,-6,0,-4,0,-3,-4
1558439042726023,0,2,-4,-9,7,9,6,3
1558439042726023,-4,-1,1,1,-2,-10,1,-1
1558439042741954,1,-1,1,2,-2,-3,-6,-2
1558439042741954,1,1,2,-1,-4,-4,-1,0
1558439042741954,0,-1,2,0,-5,-4,-5,-1
1558439042741954,2,-2,2,-1,-3,1,0,-1
1558439042756911,-10,-10,-12,-2,3,7,2,-2
1558439042756911,3,4,4,0,1,2,1,1
1558439042763892,-4,-3,3,4,-4,-6,-5,0
1558439042763892,0,-2,-7,-9,4,8,1,-1
1558439042778853,3,3,4,5,-1,-5,-3,2
1558439042778853,0,0,3,2,9,6,3,1
1558439042785869,-2,0,-7,-9,-9,-6,-6,-4
1558439042785869,-3,-5,0,6,-1,14,5,-2
1558439042802003,3,3,1,0,-6,-19,-2,-3
1558439042802003,-1,-3,1,3,6,18,9,0
1558439042802789,0,-2,-2,-1,-5,-7,-4,-2
1558439042802789,0,0,-1,-2,6,-1,-1,1
1558439042817776,7,5,4,1,8,5,9,4
1558439042817776,-7,-2,-1,4,-4,0,-5,-4
1558439042823732,-3,-4,-9,-9,-5,-2,-8,-6
1558439042823732,-2,0,-2,-1,-10,-9,-2,1
1558439042838693,-2,-2,-7,-4,6,11,8,2
1558439042838693,1,-1,0,-3,-5,-11,-7,-1
1558439042845803,0,-1,3,6,-2,-5,-4,-2
1558439042845803,-2,0,-8,-13,-3,16,2,-4
1558439042861637,-3,-4,-3,-3,-4,-6,-5,-4
1558439042861637,2,1,3,4,12,4,7,6
1558439042862630,-3,-1,-2,-5,0,-1,4,-1
1558439042862630,0,1,1,7,2,5,0,-3
1558439042877591,2,2,0,2,0,-6,-2,0
1558439042877591,-3,-3,-9,-10,-11,-2,-4,-5
1558439042883573,0,1,4,7,8,-5,3,3
1558439042883573,0,1,7,-1,-2,-1,-4,-3
1558439042899530,-1,-2,-5,-4,0,1,0,1
1558439042899530,0,1,-4,-8,-1,8,2,3
1558439042905693,0,-4,-6,-6,-4,-5,0,1
1558439042905693,-2,-1,0,0,-1,-5,-4,-3
1558439042922469,-1,-1,3,2,-1,-8,-9,-1
1558439042922469,1,1,5,6,3,4,1,0
1558439042923467,-1,-2,-1,-1,-5,-8,2,-1
1558439042923467,-3,-2,-11,-8,9,15,5,3
1558439042937428,-2,-2,0,-1,-5,-6,-9,-3
1558439042937428,0,-2,-3,-3,-4,-14,-4,-1
1558439042943412,-3,0,-2,-3,0,17,1,-2
1558439042943412,-2,-3,3,6,-9,-16,-6,-4
1558439042966352,-1,0,-3,-2,-7,-3,0,-3
1558439042966352,3,2,1,6,1,3,-1,-4
1558439042967348,-8,-7,-8,-20,-5,-7,0,-2
1558439042967348,4,1,2,6,2,10,4,2
1558439042981312,-5,-3,-4,-4,1,5,-1,-1
1558439042981312,-5,-6,-10,-12,-11,-10,-5,-3
1558439042982331,2,1,4,11,-3,-1,-5,-3
1558439042982331,-1,1,2,0,8,7,5,1
1558439042997272,1,1,2,-1,-4,-8,-4,-2
1558439042997272,1,7,8,11,8,4,0,0
1558439043003255,1,-1,-5,-5,-3,-6,4,2
1558439043003255,-3,-3,-4,-5,-8,-14,-4,0
1558439043018211,-2,-3,-6,-2,-5,4,-4,-4
1558439043018211,1,-4,-2,-2,-5,3,-6,-4
1558439043026192,-4,2,1,3,3,-2,-2,0
1558439043026192,2,0,2,0,-4,-13,2,1
1558439043041180,0,1,0,4,5,5,-1,0
1558439043041180,1,0,-3,-8,2,10,4,2
1558439043042150,3,-2,4,6,3,2,-2,-2
1558439043042150,0,-1,-8,-5,1,3,-1,-1
1558439043057109,-2,-1,0,-1,-3,-11,-4,0
1558439043057109,-2,-3,-4,-6,-7,-2,-5,-5
1558439043063092,-1,0,1,-2,-9,-2,-5,-3
1558439043063092,-1,0,2,3,4,1,6,4
1558439043087028,1,0,3,5,6,8,4,1
1558439043087028,-1,-2,4,2,5,-3,1,4
1558439043087028,1,0,2,7,-7,-8,-5,-2
1558439043087028,-2,-2,-4,-8,0,10,-2,-2
1558439043108970,1,-2,0,3,2,-1,1,0
1558439043108970,-1,0,-2,-6,-7,-12,-4,-1
1558439043109969,3,2,3,2,3,0,1,1
1558439043109969,-2,-5,-3,-2,0,6,-2,-4
1558439043117945,-3,-2,2,3,-4,3,0,-2
1558439043117945,-3,-4,-11,-7,0,-8,2,-1
1558439043132042,-3,-1,-5,-4,-3,-2,0,-1
1558439043132042,-1,1,-1,1,0,-4,-3,-1
1558439043138889,1,-2,1,2,4,2,2,0
1558439043138889,-2,1,3,4,-2,-4,1,-1
1558439043153850,2,2,1,2,3,3,-1,1
1558439043153850,-3,-1,-4,3,-8,-4,-3,-1
1558439043160832,-2,-2,-5,-11,-2,-1,-2,-1
1558439043160832,-1,-1,2,3,6,5,4,0
1558439043168811,-3,-1,-5,-9,0,2,0,0
1558439043168811,-2,-2,2,0,-4,-6,-4,0
1558439043177786,1,0,0,2,-1,1,-3,-4
1558439043177786,1,2,2,4,1,3,4,0
1558439043183768,2,-1,-4,-2,5,-2,0,1
1558439043183768,-4,0,-1,0,-2,-2,-2,-3
1558439043199731,-4,-3,-8,-10,-3,-1,-1,1
1558439043199731,-1,-2,5,2,1,7,1,0
1558439043205712,2,-2,1,5,3,5,1,0
1558439043205712,1,0,4,-1,4,2,3,1
1558439043222666,-2,-2,0,-1,-5,-11,0,-1
1558439043222666,1,2,-5,-12,1,-1,-1,1
1558439043228663,0,2,-4,-1,-6,1,-2,-2
1558439043228663,-2,-7,-6,-11,-6,-8,-6,-4
1558439043245605,1,0,-1,3,1,10,2,0
1558439043245605,0,-1,5,6,1,3,0,0
1558439043246601,1,3,5,4,2,-5,-2,3
1558439043246601,-5,-3,-1,2,-5,-8,-4,-3
1558439043258569,-1,1,1,1,-1,1,-2,-1
1558439043258569,-2,-1,-3,-2,4,7,3,-1
1558439043265550,2,-3,-1,4,-2,-7,-1,-1
1558439043265550,0,-1,-2,-1,-6,-6,-5,-3
1558439043280510,-2,-1,-3,-6,-2,-4,2,0
1558439043280510,-3,-2,0,1,-4,-5,-6,-3
1558439043288491,-3,-1,-1,0,4,12,3,-1
1558439043288491,3,3,6,5,5,-7,-1,1
1558439043297466,-3,-3,-6,-4,-8,-2,0,-5
1558439043297466,-1,-2,-5,-5,-5,-2,-3,-2
1558439043303451,-1,-2,1,0,-4,-10,-3,-1
1558439043303451,-1,0,-3,-1,-2,-3,-2,2
1558439043318411,0,1,1,3,2,1,-1,-1
1558439043318411,0,0,0,1,-2,-7,2,-1
1558439043326395,-7,-5,-6,-6,-4,2,-3,-3
1558439043326395,3,3,3,-2,10,0,9,2
1558439043341348,-4,-5,-4,-2,-5,-8,-7,-1
1558439043341348,-3,-3,-6,-1,-8,-6,-6,-4
1558439043348330,0,-1,-7,-5,-2,5,-1,-3
1558439043348330,0,-1,3,5,0,0,-3,-2
1558439043365283,1,0,0,-8,-1,-2,-2,-1
1558439043365283,3,0,4,2,17,18,17,6
1558439043366281,-2,-1,2,2,-8,-13,-3,-2
1558439043366281,-5,-3,-7,-9,-7,3,-6,-3
1558439043386228,2,0,2,4,5,1,3,1
1558439043386228,-5,-4,-4,-4,-11,-10,-14,-7
1558439043387226,0,1,-2,-5,-4,-1,-5,-3
1558439043387226,1,1,6,9,10,5,12,4
1558439043409166,-3,1,0,1,2,-1,5,0
1558439043409166,-2,-3,-3,-2,-7,-6,-5,-3
1558439043410167,0,-1,3,2,5,4,-1,0
1558439043410167,-1,-2,-8,-6,-10,-9,-9,-3
1558439043424128,-3,-1,-5,-6,5,12,4,1
1558439043424128,-2,2,3,1,0,-9,1,3
1558439043425129,-2,-4,2,-7,-2,-3,-2,-3
1558439043425129,-4,-3,1,4,-11,6,-6,-5
1558439043438088,4,0,-2,-4,1,5,3,1
1558439043438088,1,1,6,5,12,-2,6,5
1558439043454046,-1,-1,-2,-1,-6,-6,0,-1
1558439043454046,0,0,-2,0,0,5,-1,-3
1558439043461029,-4,-3,-1,-1,-7,-2,-5,-5
1558439043461029,-1,-2,-4,-4,-3,2,-3,-3
1558439043476989,-1,-3,1,1,4,0,0,1
1558439043476989,-1,-2,-1,1,-3,-4,-3,-1
1558439043483966,3,1,3,9,-1,3,0,-1
1558439043483966,4,4,0,-5,3,1,5,0
1558439043484964,-5,-4,-4,2,6,1,3,0
1558439043484964,-1,-3,-5,-3,-2,1,1,-1
1558439043498926,0,-2,4,1,-2,-11,-6,0
1558439043498926,-2,-2,0,7,1,4,-4,-2
1558439043505907,-1,-3,-6,-8,-5,9,4,-2
1558439043505907,-1,1,1,-2,-3,-8,-6,-5
1558439043520868,-1,1,-8,-5,-5,-3,-5,0
1558439043520868,2,1,0,2,12,11,13,6
1558439043528847,2,0,4,1,6,-11,-1,2
1558439043528847,-4,-4,-1,-2,0,3,0,-1
1558439043543808,1,1,2,-3,-5,-6,-3,-4
1558439043543808,-8,-6,-5,-3,-10,-6,-8,-4
1558439043544805,-2,0,-1,0,-1,1,1,-2
1558439043544805,2,1,5,4,5,3,1,3
1558439043558768,1,1,1,-3,-9,-12,-7,-4
1558439043558768,2,-1,-7,-9,-1,-6,-4,0
1558439043565748,-2,-1,-2,3,-3,3,4,-1
1558439043565748,0,1,2,3,6,-4,6,5
1558439043580707,-3,-2,-2,-2,2,7,2,-1
1558439043580707,-5,-5,-5,-5,-10,-8,-10,-8
1558439043588686,0,-1,-1,-2,-7,-4,-10,-4
1558439043588686,0,2,3,6,14,17,4,2
1558439043603646,-2,-2,-2,-6,-3,-7,2,1
1558439043603646,-2,-1,4,12,4,-5,3,1
1558439043604647,0,0,-6,-9,-7,-8,-4,-3
1558439043604647,-2,-3,-5,-6,-9,-4,-6,-4
1558439043618608,-4,-3,0,5,3,10,1,0
1558439043618608,1,1,0,0,1,1,-3,-1
1558439043634564,-1,0,-1,0,-3,-8,-2,0
1558439043634564,-2,-3,2,1,4,-1,3,0
1558439043640573,1,3,9,10,9,1,2,1
1558439043640573,4,3,-9,-15,-9,-2,-2,-3
1558439043648526,-2,-7,-3,0,-4,-1,-3,0
1558439043648526,-3,-2,-2,0,0,4,2,-2
1558439043664483,-2,-3,-9,-15,-8,0,-3,0
1558439043664483,0,-3,4,1,0,-5,-1,1
1558439043664483,0,4,2,1,5,13,-1,-1
1558439043664483,1,-1,-2,-3,-6,-16,-2,-1
1558439043678449,-1,0,1,5,1,-4,-3,-3
1558439043678449,0,2,4,5,7,13,6,-1
1558439043686425,-2,-2,-4,-10,4,6,3,2
1558439043686425,-5,-2,-2,-2,-5,-7,-7,-3
1558439043701387,1,2,0,0,2,-4,5,4
1558439043701387,-3,-3,-3,-4,-13,-13,-9,-5
1558439043708373,-1,-2,1,2,-5,0,-4,-3
1558439043708373,1,-2,-3,-3,3,13,5,1
1558439043724330,-1,-1,1,9,-6,-19,-6,-3
1558439043724330,-1,-3,-5,-4,2,5,1,1
1558439043724330,0,-2,-3,1,2,6,3,-1
1558439043724330,4,2,-2,-3,-10,-9,-3,-3
1558439043738286,-5,-5,1,0,3,0,-1,0
1558439043738286,-3,-1,-2,3,-5,-9,-9,-4
1558439043746264,-1,0,2,-2,-1,1,-2,-3
1558439043746264,1,3,-8,-13,-8,4,-1,-2
1558439043761227,-2,-4,-1,4,-3,0,2,0
1558439043761227,-2,0,2,-2,4,-9,-3,-1
1558439043768211,-3,0,4,6,6,-6,0,0
1558439043768211,-2,-2,2,7,1,0,-5,-5
