timestamp,emg1,emg2,emg3,emg4,emg5,emg6,emg7,emg8
1558439108578351,3,2,8,9,7,8,5,1
1558439108578351,-5,-3,-10,-6,-8,-7,2,-1
1558439108578351,0,0,2,2,1,-1,0,-1
1558439108578351,0,2,5,12,0,-4,-3,0
1558439108583338,-1,-1,-5,-15,-6,-3,-6,-3
1558439108583338,0,-4,-8,-4,-2,2,1,1
1558439108586339,-1,0,2,6,-5,-8,-2,2
1558439108586339,-1,-3,-4,-8,-2,1,1,0
1558439108596304,2,0,8,9,7,0,0,-1
1558439108596304,5,-2,1,7,0,2,-4,-3
1558439108607275,-8,-8,-11,-18,-6,-1,-3,-4
1558439108607275,2,0,-3,-4,6,7,4,1
1558439108629214,-4,-2,-7,-6,-4,-6,-2,-3
1558439108629214,3,2,3,4,7,5,3,4
1558439108630212,1,4,6,6,4,-6,-3,0
1558439108630212,-3,-4,-3,-10,-6,-5,-7,-4
1558439108633204,-2,-4,-6,5,-13,-4,0,-1
1558439108633204,-1,-3,-6,-8,3,-4,-2,1
1558439108643179,2,1,5,6,0,-3,-2,-1
1558439108643179,1,7,5,1,2,6,0,-3
1558439108650159,0,-3,-9,-1,-2,-5,1,1
1558439108650159,-12,-5,1,1,-3,1,-3,-5
1558439108665120,-2,-1,-5,-4,-2,3,0,-2
1558439108665120,-2,-6,-6,-4,-9,-8,-2,-2
1558439108672100,-1,2,5,4,6,-3,1,1
1558439108672100,3,6,10,7,-1,2,1,-1
1558439108689055,4,-3,-6,-8,6,9,2,3
1558439108689055,-3,-2,0,-4,4,7,0,-3
1558439108689055,1,0,-7,-1,-11,-5,-3,-2
1558439108689055,-3,-4,-4,-6,-5,-12,-9,-1
1558439108734933,2,5,8,2,10,15,6,3
1558439108734933,6,1,5,0,0,-4,3,2
1558439108734933,-8,-7,-9,-1,-7,0,-2,-5
1558439108734933,0,-2,2,-1,1,-9,-8,-2
1558439108735930,-2,-1,-6,-8,-6,3,0,-1
1558439108735930,-1,-2,-3,10,-5,-3,-1,-3
1558439108738923,2,3,-7,-23,-3,2,-2,0
1558439108738923,2,2,1,-4,-2,-7,2,4
1558439108745909,0,1,3,5,4,-2,-4,-2
1558439108745909,-5,-2,2,0,0,3,-2,-1
1558439108753882,0,0,4,5,-3,-2,-2,-2
1558439108753882,-2,-1,-2,-4,0,5,-1,-1
1558439108762859,-1,-2,-6,-1,-1,0,3,2
1558439108762859,-1,-1,1,-3,-2,-5,-1,1
1558439108775826,-1,0,3,5,3,2,0,0
1558439108775826,-1,3,8,11,0,-4,2,-3
1558439108784798,4,0,-1,3,2,0,4,0
1558439108784798,-3,-3,-2,-4,0,7,-2,-5
1558439108790783,1,-4,5,5,1,-1,-3,-3
1558439108790783,-1,-1,-7,-14,-3,7,-4,-1
1558439108806741,-7,-10,-5,3,-10,-6,-6,-4
1558439108806741,-2,0,-4,-9,0,-4,2,1
1558439108813722,0,1,-3,-5,-6,-9,1,1
1558439108813722,-1,-1,2,4,2,2,-1,-1
1558439108822698,2,6,11,2,4,-1,-2,0
1558439108822698,2,-1,-14,-9,-5,4,-3,-1
1558439108836661,-4,2,11,8,-1,-7,-3,-1
1558439108836661,0,-3,-13,-8,3,4,4,1
1558439108845637,-1,0,6,12,3,-4,-2,-2
1558439108845637,-9,-5,-15,-15,-3,4,-1,-3
1558439108859598,4,4,3,3,4,6,0,2
1558439108859598,-4,-4,-4,-6,-14,-6,-7,-8
1558439108866580,-1,-2,4,7,0,-11,0,3
1558439108866580,4,6,3,-3,7,3,3,3
1558439108873562,-10,-5,-7,-7,-1,-8,-6,-4
1558439108873562,2,-1,2,4,-2,6,4,1
1558439108882537,-1,0,-5,-7,-7,-5,-9,-5
1558439108882537,2,-1,5,6,0,-8,-4,-2
1558439108896499,-2,-5,-2,0,4,3,4,1
1558439108896499,1,5,1,3,8,-1,1,3
1558439108905477,-4,-5,-6,-17,-8,-1,-1,-3
1558439108905477,-3,-1,-4,2,1,3,-1,-2
1558439108919440,3,2,4,6,3,-1,-5,-1
1558439108919440,-2,-4,-3,-4,-6,3,0,-5
1558439108926420,1,0,-5,1,4,3,1,1
1558439108926420,0,-2,7,7,5,6,3,3
1558439108933401,2,0,0,0,-9,-2,0,-2
1558439108933401,0,0,3,4,-4,-4,-6,-5
1558439108942379,1,1,-7,-1,2,-2,2,2
1558439108942379,-10,-9,-5,-11,-4,-5,-6,-4
1558439108956342,1,2,0,1,2,5,5,1
1558439108956342,0,-1,5,5,3,-3,-4,1
1558439108965317,-4,-2,2,0,4,11,2,-3
1558439108965317,0,-1,-7,-1,-8,-7,-4,-3
1558439108987258,2,2,3,4,5,5,3,0
1558439108987258,1,-3,-10,-12,-5,-9,1,-3
1558439108989252,0,-7,-1,2,-2,-7,-3,2
1558439108989252,0,2,-8,-15,-6,-1,0,-3
1558439108994240,3,0,1,6,0,9,-1,-2
1558439108994240,-6,-2,0,-4,2,-2,-1,0
1558439109002217,0,3,2,-4,1,-6,-4,-2
1558439109002217,2,0,7,12,2,2,0,0
1558439109016182,-3,-1,-2,-1,0,0,3,-1
1558439109016182,2,2,-1,2,-1,-9,-5,-3
1558439109025156,-2,-5,-8,-16,-3,2,2,0
1558439109025156,0,4,4,3,4,5,0,0
1558439109039121,-8,-6,-4,2,-3,2,0,-3
1558439109039121,0,-3,-7,-2,-2,-8,-1,-1
1558439109054079,-2,3,4,0,-2,-3,0,-1
1558439109054079,-1,-4,-2,-3,-8,-11,-6,-4
1558439109055076,4,1,-3,-3,16,19,10,4
1558439109055076,-4,-3,4,4,-6,-4,-2,-1
1558439109063055,1,3,11,17,3,1,-1,-3
1558439109063055,1,-4,-7,-17,-1,6,-3,-1
1558439109076021,-6,-6,1,-2,-14,-16,-6,-4
1558439109076021,-2,-1,-3,-4,5,12,2,2
1558439109084996,1,4,1,-1,1,-2,-3,0
1558439109084996,2,4,12,16,6,-8,-1,0
1558439109099960,-2,-6,-12,-10,-3,-2,-5,-3
1558439109099960,-1,-3,2,4,0,5,-1,-2
1558439109106950,-2,-1,0,-5,-10,-6,-3,-3
1558439109106950,1,4,3,4,1,4,4,1
1558439109113918,0,4,-5,-8,-2,-10,-5,-3
1558439109113918,-1,-5,0,4,0,2,-4,-2
1558439109128878,-1,-6,-7,-4,-5,0,-1,-1
1558439109128878,3,1,6,6,1,0,3,3
1558439109135860,-3,-5,-5,-10,-8,-5,-5,-3
1558439109135860,3,4,3,10,4,7,3,-1
1558439109152815,-2,-5,-7,-15,-7,-7,-4,1
1558439109152815,2,-1,-9,-8,5,6,1,-1
1558439109159812,1,5,5,9,-1,-7,-4,-2
1558439109159812,-6,-8,-8,-13,-1,2,0,0
1558439109174757,-3,-3,-6,-7,0,13,7,-2
1558439109174757,-3,-2,-4,1,-7,-19,-5,-2
1558439109174757,-1,-1,1,2,-3,-5,-3,-3
1558439109174757,0,5,4,1,4,-1,1,0
1558439109196715,0,0,4,8,6,3,-3,-1
1558439109196715,-2,-2,0,2,-1,6,2,-1
1558439109197695,1,0,-1,-1,1,0,-1,1
1558439109197695,-3,-1,-6,-12,-8,-7,-2,-1
1558439109204675,-2,-1,2,3,-1,1,-2,0
1558439109204675,2,2,4,-1,2,4,-1,1
1558439109219636,-7,-1,-3,4,0,-5,-3,-4
1558439109219636,2,-2,5,1,-1,1,0,-3
1558439109226618,1,-2,-1,1,7,10,6,2
1558439109226618,0,-2,3,0,-10,-24,-9,-3
1558439109241578,-7,-7,-1,-1,1,2,1,0
1558439109241578,-3,2,-1,0,-2,4,-3,-2
1558439109248558,-1,-1,-9,-7,-11,-20,-12,-5
1558439109248558,1,1,4,4,5,18,8,1
1558439109256536,1,-7,0,-2,-6,-7,-1,0
1558439109256536,-7,-1,1,8,-2,-6,0,-4
1558439109265513,1,0,5,-6,5,5,-2,1
1558439109265513,-4,-3,-15,-14,-11,-11,-8,-4
1558439109279475,1,0,-1,-3,-1,4,0,-2
1558439109279475,3,-2,-4,-11,-5,-6,-3,-1
1558439109286458,-1,1,1,6,2,5,5,-2
1558439109286458,-2,0,8,11,9,4,1,1
1558439109293438,-1,0,-9,-14,-12,-9,-2,-1
1558439109293438,0,0,5,4,-3,-7,-2,0
1558439109308400,0,2,1,4,6,8,5,0
1558439109308400,-3,-5,4,5,0,-3,-6,-1
1558439109316377,0,0,-4,-6,1,0,-1,-1
1558439109316377,-1,1,-4,-3,2,10,4,1
1558439109325353,1,0,2,7,-2,-7,-3,1
1558439109325353,0,-3,-5,-11,-7,0,-1,-3
1558439109339316,4,3,3,1,2,-5,-3,1
1558439109339316,4,2,3,9,7,-4,4,1
1558439109346297,-3,-4,-9,-22,-9,3,1,-2
1558439109346297,-1,1,-4,3,-1,4,3,2
1558439109353278,-4,-10,-1,-4,-1,0,-4,-2
1558439109353278,0,0,-3,-4,0,-5,-8,-4
1558439109377214,0,2,-3,6,-7,-3,-6,-4
1558439109377214,-3,-1,1,2,2,1,-2,-2
1558439109377214,2,3,-5,-5,4,9,10,4
1558439109377214,-3,-4,-1,0,0,2,-2,0
1558439109385193,-2,1,5,2,-1,1,-1,-4
1558439109385193,1,1,2,6,1,-8,-2,0
1558439109399156,-2,-3,-8,-4,2,-1,0,-1
1558439109399156,-2,-3,-5,-14,-5,1,0,-3
1558439109406136,-3,-1,-5,-6,-5,-7,-2,-1
1558439109406136,-1,0,2,1,3,0,-1,0
1558439109414115,1,2,13,15,10,2,3,1
1558439109414115,-2,-2,-4,-5,-7,-7,-7,0
1558439109429076,-2,-4,-11,-7,-9,-1,-6,-2
1558439109429076,-1,-3,-3,-1,-3,-3,-2,-2
1558439109436058,5,4,4,2,-1,-5,3,0
1558439109436058,-1,-1,4,-1,3,3,0,-2
1558439109460990,-1,0,-3,-2,-2,-15,-5,-3
1558439109460990,-1,3,2,2,0,12,7,1
1558439109461986,-2,-1,1,6,5,-1,-4,-2
1558439109461986,1,2,-2,-10,1,3,4,0
1558439109474958,2,0,1,3,-3,-3,-4,-3
1558439109474958,-10,-8,-11,-17,-10,-6,-4,-4
1558439109474958,1,2,2,0,0,-1,0,1
1558439109474958,0,-2,4,11,-3,-2,1,0
1558439109496900,-1,1,-2,-3,8,5,2,0
1558439109496900,3,2,2,3,-1,-6,-6,-2
1558439109497894,1,0,-11,-9,-3,6,-1,-2
1558439109497894,1,0,3,5,12,6,2,1
1558439109504879,-2,-3,4,4,-3,-1,3,1
1558439109504879,-3,-3,-2,-2,-6,-11,-4,-2
1558439109519834,-2,1,6,2,5,7,0,1
1558439109519834,1,0,-1,8,2,-6,-4,0
1558439109526815,0,-2,-4,-14,1,1,0,0
1558439109526815,-1,1,0,3,1,3,-1,-3
1558439109533805,-1,-5,-4,-5,-7,-1,-3,-3
1558439109533805,-3,-3,-14,-7,-11,-10,-6,-1
1558439109548758,0,1,4,12,1,-3,-4,-1
1558439109548758,3,-1,5,0,7,1,3,2
1558439109555739,-3,-4,1,2,5,7,6,-1
1558439109555739,-9,-2,7,0,-3,-9,-4,-4
1558439109564714,-3,-8,-18,-13,-9,-5,-1,0
1558439109564714,0,1,0,1,8,10,2,-1
1558439109579673,0,1,-6,-1,-2,2,-3,-2
1558439109579673,1,1,1,-2,-3,0,6,-1
1558439109586655,-1,-1,5,4,-6,-10,-6,-3
1558439109586655,0,1,-2,0,-7,-4,-1,-2
1558439109593636,4,6,5,-1,12,7,5,4
1558439109593636,3,-2,-8,-16,-6,-2,-5,-3
1558439109608596,-6,2,5,5,4,3,2,-2
1558439109608596,-2,-9,-14,-2,-3,3,2,-2
1558439109616575,-3,1,1,-2,-4,-7,-7,-2
1558439109616575,1,2,7,10,3,0,0,0
1558439109625553,2,3,2,5,3,-2,3,3
1558439109625553,-5,-2,-5,-18,-9,-7,-1,-1
1558439109639515,2,-1,-3,0,-2,6,0,0
1558439109639515,1,-1,-4,-3,5,9,-1,2
1558439109646497,-2,-3,7,8,-1,3,-1,-1
1558439109646497,3,2,7,7,12,5,4,1
1558439109662453,0,2,-6,-11,-11,-17,-7,-3
1558439109662453,-1,-3,-2,1,-3,2,3,-2
1558439109668438,-5,-6,-3,-5,-4,2,-2,-4
1558439109668438,0,-2,-4,-7,-6,-4,-7,-4
1558439109676417,0,2,7,10,11,7,8,3
1558439109676417,-1,-3,1,-1,7,12,5,1
1558439109685394,2,3,-2,-2,-4,-2,1,-2
1558439109685394,3,1,4,3,-2,-8,-3,1
1558439109707332,-1,-2,-5,-2,-8,-6,-7,-4
1558439109707332,-5,2,2,2,-4,-10,-2,-4
1558439109709328,-1,-4,-2,-2,8,17,7,2
1558439109709328,-5,-2,-3,-4,-5,-8,-3,-2
1558439109730280,0,2,3,1,1,-1,0,-3
1558439109730280,-1,-1,-4,-2,-8,-5,-5,-2
1558439109731268,4,1,-3,-5,6,6,3,0
1558439109731268,-2,1,6,9,6,-1,-4,0
1558439109752221,-4,-7,-8,-16,-14,-7,-5,-2
1558439109752221,3,0,10,15,4,2,0,-1
1558439109754207,-7,-4,-15,-22,-5,-7,0,0
1558439109754207,1,0,-2,-6,-1,3,1,1
1558439109759204,0,-1,1,0,-1,-4,0,-1
1558439109759204,-3,0,-2,2,3,3,-2,-1
1558439109766184,1,-1,2,5,-1,-6,-6,-3
1558439109766184,-2,0,1,1,-4,0,0,-2
1558439109782138,-6,-8,-4,2,-1,-1,-1,-2
1558439109782138,2,3,6,1,2,4,0,0
1558439109796201,-4,-5,-2,3,-1,-8,-5,-1
1558439109796201,-2,1,-7,-7,-8,0,-5,-2
1558439109805081,2,4,2,3,-2,-2,1,3
1558439109805081,2,1,-3,-3,-1,-7,0,-2
1558439109807068,-5,-2,3,0,7,8,1,-2
1558439109807068,-6,-7,-1,13,-4,-4,-4,-2
1558439109819035,-4,-5,-12,-22,-9,-5,-5,-3
1558439109819035,-1,-1,-7,-6,-5,-2,3,0
1558439109828011,5,4,0,1,1,0,-1,2
1558439109828011,3,2,3,5,0,1,-5,-4
1558439109841973,-6,-5,0,6,-4,-12,-12,-5
1558439109841973,-2,1,-1,-3,2,4,2,1
1558439109848953,3,4,7,0,-9,-12,-1,-1
1558439109848953,-1,0,3,2,13,8,5,1
1558439109864920,2,1,-7,-8,-2,1,2,-2
1558439109864920,-2,0,-6,-4,-10,-8,-4,1
1558439109866917,0,0,9,10,7,6,2,0
1558439109866917,-2,0,1,-2,6,0,-1,-1
1558439109887859,-2,-4,-6,-6,-9,-2,-3,-3
1558439109887859,-2,-6,-3,0,4,6,3,0
1558439109888846,1,3,0,-3,-4,-5,-5,-1
1558439109888846,2,2,-1,-3,-4,-5,1,1
1558439109901813,-8,-5,6,16,11,4,-1,-1
1558439109901813,-2,-1,-2,-6,-6,-5,-8,-4
1558439109908827,-1,-1,-2,-1,1,9,3,0
1558439109908827,-3,-7,-2,-3,-7,-13,-7,-3
1558439109924784,-3,-2,0,-5,-9,-8,-4,-2
1558439109924784,3,-1,-4,3,8,7,9,2
1558439109926745,1,1,-1,0,-1,-3,-4,-2
1558439109926745,1,1,-12,-20,-8,8,-1,-4
1558439109938712,1,2,1,1,-2,-1,2,0
1558439109938712,-3,-3,6,4,0,-11,-7,-4
1558439109947689,-1,-3,-15,-14,-5,-5,-1,-1
1558439109947689,-2,-1,1,0,-4,-2,-2,-2
1558439109961653,4,3,-2,-6,-2,0,2,1
1558439109961653,-4,-6,4,11,-1,-3,-5,-2
1558439109968634,1,-3,3,-2,-1,3,-1,-1
1558439109968634,0,-1,3,6,8,11,7,2
1558439109984985,0,0,-4,-3,1,-9,0,2
1558439109984985,3,2,-6,-13,-6,-4,-4,0
1558439109986314,-1,-1,-1,-2,-3,-4,-1,-4
1558439109986314,-2,-2,-13,-7,-5,-4,-1,-2
1558439110007290,3,2,14,18,7,5,-1,-2
1558439110007290,2,1,-18,-13,-1,6,5,2
1558439110009282,-7,-7,6,8,3,-3,-2,0
1558439110009282,-3,-3,-3,-2,-1,-8,0,0
1558439110022223,0,1,-1,1,0,2,-4,-2
1558439110022223,-4,-1,4,0,-4,-1,-4,-4
1558439110028204,-1,0,-6,-4,-6,-6,-5,-2
1558439110028204,1,2,6,7,12,2,4,5
1558439110052143,-3,-6,-6,-3,-4,-2,3,-1
1558439110052143,1,2,0,-11,-5,-4,-4,-2
1558439110054135,1,-1,-2,0,3,10,1,1
1558439110054135,1,0,-1,-8,-12,0,-6,-3
1558439110059124,-5,-6,-1,3,3,6,4,-1
1558439110059124,0,2,8,12,-4,-21,-5,-1
1558439110075079,-1,-1,-11,-11,-3,-12,-1,-2
1558439110075079,0,-2,7,5,2,2,0,1
1558439110082377,1,1,-6,-5,-4,6,-1,0
1558439110082377,-4,-6,-1,1,-6,2,-4,-5
1558439110097052,-1,1,5,4,-1,-8,-5,-3
1558439110097052,2,3,1,-5,9,5,6,1
1558439110105253,1,2,4,3,-6,-4,-1,-2
1558439110105253,-5,-7,-6,-2,2,4,3,0
1558439110118964,2,0,-2,0,2,2,3,3
1558439110118964,-6,-6,-6,-5,-5,-3,-6,-3
1558439110119961,2,3,4,2,3,2,1,-2
1558439110119961,3,2,1,-5,1,-1,-2,0
1558439110127943,-3,-2,1,0,-1,5,2,-2
1558439110127943,-4,-1,6,11,3,3,5,1
1558439110142112,-1,-1,-6,-6,-2,-7,-6,-3
1558439110142112,-2,-4,-6,-3,2,9,4,-2
1558439110148888,0,-1,-8,-9,-1,-9,-5,0
1558439110148888,0,1,-5,-5,-8,-16,-6,0
1558439110164840,-2,-3,2,2,-5,-4,-5,-1
1558439110164840,1,-1,4,3,-1,3,-2,-2
1558439110170824,-3,1,7,6,8,2,6,5
1558439110170824,-5,-8,-6,-6,-3,-1,3,-1
1558439110179067,-1,-1,-6,-3,2,5,0,-2
1558439110179067,0,1,3,1,-6,-13,-8,-2
1558439110187778,2,1,10,14,4,5,3,1
1558439110187778,0,2,-8,-14,-6,4,-1,-4
1558439110201743,-6,-5,4,0,6,-4,3,1
1558439110201743,0,0,0,1,0,2,0,-2
1558439110209031,2,0,-10,-4,-3,2,-4,-2
1558439110209031,-2,2,3,5,-1,2,1,1
1558439110224679,4,1,-5,-15,2,-2,4,1
1558439110224679,-2,-5,0,2,-3,-8,-5,0
1558439110231974,-2,1,0,-3,2,1,0,-1
1558439110231974,1,-1,-2,-1,-2,3,-1,-1
1558439110247932,-2,1,-1,-2,-6,-6,-6,-3
1558439110247932,0,3,8,6,8,2,5,2
1558439110249712,0,-1,-1,-7,-5,-1,-3,-3
1558439110249712,-3,-2,-12,-8,-6,-10,-6,-3
1558439110262727,1,0,4,8,-2,7,-1,-1
1558439110262727,-2,-7,-2,-3,5,6,3,1
1558439110268563,-5,-4,-1,-4,-14,-7,-4,-4
1558439110268563,-1,-1,3,-5,-3,-6,-4,-1
1558439110284519,1,1,-4,-1,7,0,4,3
1558439110284519,1,2,4,5,0,0,-1,-2
1558439110291532,2,1,-6,-12,-3,5,-1,-2
1558439110291532,-3,-7,8,4,-1,-4,2,-2
1558439110307489,1,-2,-3,3,-7,-7,-10,-4
1558439110307489,-4,-1,-5,-13,2,6,4,1
1558439110309479,1,2,6,7,0,-4,-2,1
1558439110309479,2,1,-4,-5,-4,1,3,1
1558439110330395,-1,-2,0,4,5,3,0,1
1558439110330395,2,3,1,4,-2,-6,-2,-2
1558439110331393,-4,-4,-2,-3,-6,-3,0,-3
1558439110331393,-2,-4,-9,-3,8,10,6,1
1558439110352340,-3,-3,-6,-12,-14,-11,-2,-5
1558439110352340,1,-2,-17,-12,-1,1,2,3
1558439110354367,-2,1,4,3,-8,-12,-7,-2
1558439110354367,0,3,8,7,2,-5,-4,0
1558439110375278,-2,-9,-1,2,5,15,1,-1
1558439110375278,-2,0,-4,-8,-9,-2,-2,-3
1558439110376276,1,-2,3,6,8,-8,1,1
1558439110376276,-2,2,-1,-3,2,4,-1,-2
1558439110382258,-1,2,3,4,4,3,2,-3
1558439110382258,-2,-5,-8,-10,-11,-8,-5,-2
1558439110396286,1,-2,1,5,4,13,5,2
1558439110396286,1,4,2,4,-2,-4,-4,1
1558439110404200,0,0,4,1,1,-8,-3,0
1558439110404200,0,-1,3,15,8,11,1,0
1558439110411220,-5,-3,-10,-15,-4,5,-6,-4
1558439110411220,5,0,5,5,9,2,10,1
1558439110427176,-5,-1,-6,-5,-4,2,3,2
1558439110427176,-5,-1,-1,-2,-13,-9,-5,-3
1558439110429167,1,-1,-6,-5,-3,-9,0,-1
1558439110429167,1,1,3,-3,6,10,-1,-1
1558439110442099,0,-1,3,0,1,2,-2,-2
1558439110442099,1,-1,-3,4,-4,-16,-1,1
1558439110449137,-4,-1,4,8,-5,2,-4,-3
1558439110449137,1,-1,-2,6,2,3,-4,-3
1558439110464038,1,-1,-6,-12,1,2,6,2
1558439110464038,-2,4,1,-8,-7,-13,-6,1
1558439110471021,-5,-3,0,0,4,5,3,-1
1558439110471021,-7,-11,-2,1,-4,0,-1,-2
1558439110487974,3,5,5,12,5,6,1,1
1558439110487974,-4,-3,-2,0,4,0,-3,0
1558439110488972,-1,-1,-1,-2,-7,-5,-1,-4
1558439110488972,0,0,-14,-11,-1,-5,1,0
1558439110501937,-3,0,3,5,-1,3,-4,-1
1558439110501937,-4,-3,-9,-18,-3,4,-2,-3
1558439110508920,0,0,2,6,0,-6,-5,-2
1558439110508920,2,-2,2,-1,0,-2,1,0
1558439110523910,0,-1,-3,2,3,-3,-2,0
1558439110523910,-1,-4,1,-4,5,15,8,1
1558439110538838,0,-2,-11,-2,-7,-17,-12,-1
1558439110538838,-4,0,0,-1,-6,-2,-3,-4
1558439110547849,-6,-4,-5,-11,0,3,0,-4
1558439110547849,-1,1,9,9,-1,0,-1,-2
1558439110548813,-1,-3,-7,-5,-6,-3,1,-2
1558439110548813,4,0,-1,1,-1,-4,-1,0
1558439110561825,-3,-3,2,4,6,2,4,2
1558439110561825,-2,1,-1,-1,-4,-3,-5,-3
1558439110568762,-5,-5,-1,-7,2,9,2,0
1558439110568762,2,6,1,0,-8,-6,-9,-3
1558439110584715,3,4,-2,-2,-7,-1,-4,-2
1558439110584715,-8,-10,3,6,11,-5,5,3
1558439110590731,-1,-1,4,10,2,1,-4,-2
1558439110590731,-6,-4,-7,-10,-10,-9,1,-2
1558439110607654,-4,-1,-8,-11,-5,-4,2,1
1558439110607654,6,5,5,2,10,7,3,2
1558439110608690,-1,-2,-6,-8,0,4,0,-2
1558439110608690,-3,-5,10,7,-2,-10,-7,-3
1558439110629630,-1,-1,-4,-9,-7,2,-2,-3
1558439110629630,-3,-4,-9,-4,-3,2,-2,-3
1558439110631625,3,5,6,7,6,-9,4,4
1558439110631625,-4,0,-2,-4,-3,6,-3,-3
1558439110644556,-1,-2,0,2,-5,-10,-5,-1
1558439110644556,3,0,-2,-1,-6,-13,-6,-2
1558439110651538,1,1,9,4,13,19,7,2
1558439110651538,-4,0,-12,-3,-1,-2,0,-1
1558439110675472,2,1,6,11,1,-4,2,-3
1558439110675472,-7,-4,-11,-19,-11,0,-9,-7
1558439110676470,5,0,3,4,-4,-1,-1,0
1558439110676470,-8,-5,11,13,14,5,7,5
1558439110681457,0,-3,-11,-9,-9,-7,-3,-2
1558439110681457,1,-1,-8,-7,-7,-4,-4,-2
1558439110688437,1,2,2,0,0,-2,3,2
1558439110688437,2,3,0,-2,1,8,-3,-2
1558439110704396,-5,-9,5,5,6,7,-3,-1
1558439110704396,0,-1,2,6,-2,-5,1,0
1558439110711376,0,-1,4,5,1,-6,0,1
1558439110711376,2,2,-15,-19,-5,-1,-4,-1
1558439110727335,-4,-4,-3,-1,-4,-1,-3,0
1558439110727335,2,1,6,10,7,15,5,0
1558439110729330,-4,-3,-12,-13,-3,-6,5,2
1558439110729330,2,0,5,5,-8,-6,-4,-6
1558439110741296,-1,1,-2,-11,1,-4,0,0
1558439110741296,-1,1,0,3,2,0,0,1
1558439110750311,-4,-2,5,6,-1,3,-3,-2
1558439110750311,-1,-4,-6,-5,-4,-2,-4,-2
1558439110772214,2,0,-4,-4,-4,-6,-6,-3
1558439110772214,5,6,7,6,9,-1,11,3
1558439110774210,-2,-2,2,-1,-9,-6,-8,-5
1558439110774210,-1,-4,-11,-10,3,4,5,2
1558439110787173,-11,-9,-8,-10,-6,-3,-4,-3
1558439110787173,-1,-1,-1,3,-2,3,-3,-2
1558439110789169,-1,-1,-5,-6,7,4,0,-2
1558439110789169,3,5,9,9,-6,-5,-5,-1
1558439110810140,4,3,4,5,5,3,-1,-1
1558439110810140,1,1,-9,-10,3,14,12,4
1558439110816096,-4,-3,-3,1,5,-1,1,3
1558439110816096,-2,-4,4,5,3,-5,-5,0
1558439110824075,1,0,-4,-2,-4,-3,-1,-4
1558439110824075,-3,-4,5,0,-5,-1,-6,-6
1558439110831056,-1,-4,-5,-1,-9,-8,-6,-3
1558439110831056,0,1,3,0,7,7,10,4
1558439110848012,0,2,11,7,4,-6,5,3
1558439110848012,-1,0,-4,-2,-7,-3,-7,-3
1558439110849009,-1,-2,-8,-22,-12,2,-3,-2
1558439110849009,-1,0,-2,-2,-1,-1,2,-1
1558439110861012,-6,-4,0,1,-2,1,-2,-2
1558439110861012,-6,-4,-6,0,0,0,-10,-2
1558439110869953,-1,1,10,13,6,6,6,-1
1558439110869953,2,3,-5,-6,-15,-9,-4,-2
1558439110883914,2,-5,-3,-5,-6,-2,2,0
1558439110883914,-3,-3,3,7,9,0,5,4
1558439110890896,-3,-2,0,-1,-3,-4,-7,-3
1558439110890896,-2,-1,-8,-4,2,8,0,-2
1558439110907853,1,4,-2,-3,-4,-1,2,-2
1558439110907853,-1,-1,4,9,0,-3,-2,-1
1558439110908849,-1,-4,-3,-13,1,-4,1,0
1558439110908849,-1,-1,4,-3,0,-3,-2,1
1558439110920817,-1,5,1,7,-1,-4,-4,-2
1558439110920817,0,-8,-5,-12,-7,-5,-6,-3
1558439110929835,0,0,-3,3,5,6,4,0
1558439110929835,-2,-3,1,2,-7,-4,-4,-3
1558439110952732,-2,-2,2,3,3,8,-1,0
1558439110952732,2,3,0,-1,-2,-9,5,0
1558439110953728,0,-3,-9,-4,-6,-12,-4,-2
1558439110953728,0,2,8,0,6,5,2,-3
1558439110967691,-4,-6,-8,-9,-1,6,2,0
1558439110967691,2,1,2,5,-1,-1,-5,-2
1558439110968728,0,-1,-10,1,-10,-1,-7,-6
1558439110968728,-4,-2,-5,-4,4,-9,3,3
1558439110981653,-1,0,3,-5,4,4,2,3
1558439110981653,-5,-6,3,-2,4,-4,2,1
1558439110989633,-3,0,-1,3,1,5,1,0
1558439110989633,0,-1,4,9,-2,3,-7,-3
1558439111004621,2,7,-1,-4,-1,-2,2,0
1558439111004621,0,-2,-3,-6,-12,-16,-7,-4
1558439111011604,2,1,5,7,1,0,-1,-1
1558439111011604,1,2,-9,-14,6,5,6,2
1558439111026574,-2,-6,3,8,-3,-2,-4,-1
1558439111026574,0,1,-5,-11,-2,8,3,-3
1558439111033554,-2,0,9,13,4,-2,2,1
1558439111033554,0,-3,6,-2,-3,-6,-7,-2
1558439111041493,0,1,-5,-1,-2,-10,2,-1
1558439111041493,2,0,-1,-4,2,9,-3,2
1558439111050470,-3,-1,0,4,4,3,-2,-4
1558439111050470,-1,-2,6,8,1,0,1,1
1558439111064490,0,0,-6,-7,-5,0,-4,-3
1558439111064490,0,2,-2,1,-4,4,2,-3
1558439111071414,-3,-5,-4,-9,-2,-7,1,1
1558439111071414,-1,-1,-5,0,-2,-3,-1,-3
1558439111095351,4,2,5,7,-1,-6,-5,-1
1558439111095351,4,7,4,3,3,6,3,1
1558439111096348,-4,-4,-16,-21,-7,1,-2,-5
1558439111096348,2,0,2,1,3,3,0,-2
1558439111101358,-3,-5,-3,-1,0,-3,0,2
1558439111101358,-3,-3,3,1,-7,-12,-10,-5
1558439111116797,2,0,1,-1,-2,-1,-2,-2
1558439111116797,-2,-5,-2,1,7,4,6,3
1558439111124789,1,1,4,4,1,1,0,-3
1558439111124789,-7,-5,-3,-7,0,1,-3,-1
1558439111131756,-1,1,1,6,-7,-9,-1,1
1558439111131756,-4,0,-5,-6,-2,0,-2,-4
1558439111147519,0,2,7,4,6,14,7,2
1558439111147519,0,1,-2,5,4,-4,5,2
1558439111162469,0,-1,0,-13,1,-1,-5,0
1558439111162469,0,-5,-5,3,-11,-8,-7,-3
1558439111162469,-6,-6,-5,-10,-8,-2,-1,-2
1558439111162469,1,0,-2,1,5,5,5,0
1558439111170150,1,1,7,5,3,8,2,1
1558439111170150,-4,-1,2,3,-1,-6,-5,2
1558439111184422,3,3,1,5,5,-1,1,0
1558439111184422,0,-2,-4,-5,-2,-1,-2,-1
1558439111191128,1,1,-11,-6,-6,-4,-2,-2
1558439111191128,-2,-2,0,1,-4,2,-6,-5
1558439111207346,-2,-6,-6,2,-2,-4,-2,0
1558439111207346,2,1,0,-14,12,5,6,5
1558439111214105,-1,-3,-4,7,-2,-2,2,1
1558439111214105,-2,-1,-2,-15,-6,-3,-1,0
1558439111230091,-3,-4,2,4,6,9,1,-4
1558439111230091,-3,-3,-14,-10,-11,-1,-5,-2
1558439111231088,0,2,8,4,-2,-8,-3,-1
1558439111231088,-1,-1,1,2,0,-3,1,0
1558439111244025,0,0,-4,-2,-1,-1,0,1
1558439111244025,1,1,9,12,6,4,-3,-2
1558439111251006,0,-2,-6,-8,-2,2,-3,-3
1558439111251006,-3,-2,2,6,-5,-4,-6,-4
1558439111266965,3,1,-9,-6,0,-6,1,2
1558439111266965,1,0,-1,4,-3,-8,0,-1
1558439111273944,-7,-1,1,-2,-4,0,-4,-3
1558439111273944,-5,-2,-4,-3,6,9,2,0
1558439111289901,1,1,8,6,-1,-6,-4,-1
1558439111289901,-1,-2,-15,-10,-2,4,2,-1
1558439111291898,0,-2,5,1,7,0,-1,0
1558439111291898,1,-1,-2,-3,-10,-10,-3,-2
1558439111303867,-3,2,-4,-1,-5,3,-5,-8
1558439111303867,1,4,4,-6,-4,-2,1,0
1558439111310846,-2,-5,5,8,8,4,6,3
1558439111310846,2,2,-13,-15,0,2,7,1
1558439111326803,0,5,9,7,-2,-6,-3,0
1558439111326803,-6,-8,-4,-1,-4,-3,-5,-5
1558439111333785,-2,0,1,8,2,6,1,-2
1558439111333785,2,2,-3,-6,2,4,-1,2
1558439111349741,-2,-6,-1,-4,-13,-13,-5,-3
1558439111349741,1,3,6,7,5,3,0,2
1558439111351738,3,2,-2,-4,1,-11,-1,-1
1558439111351738,-2,-1,1,6,-4,-7,-6,-3
1558439111364702,2,0,-5,-7,4,9,2,3
1558439111364702,-11,-8,-2,0,-12,-5,-7,-5
1558439111370687,-1,-1,-4,0,5,10,3,-2
1558439111370687,0,3,9,6,1,-6,1,-1
1558439111394622,-3,-4,-10,-12,-13,-8,-3,-2
1558439111394622,1,3,6,6,0,-4,-2,1
1558439111396617,0,-3,-11,-4,-7,-5,-4,-1
1558439111396617,-4,-5,-3,-3,3,0,-4,-3
1558439111417561,1,0,3,1,-1,-3,-3,0
1558439111417561,-1,3,4,1,2,3,-4,-2
1558439111418558,2,3,3,1,2,3,5,3
1558439111418558,-2,1,0,2,11,-1,7,3
1558439111424541,-3,-5,1,3,3,4,-2,-6
1558439111424541,-4,-4,-8,-11,-19,-14,-12,-6
1558439111438504,-1,-1,1,-4,11,13,2,4
1558439111438504,-3,0,-13,-10,-12,-3,1,-3
1558439111446483,-2,1,2,5,6,-2,5,0
1558439111446483,1,1,7,7,-1,-4,-1,0
1558439111461443,-2,-6,-13,-17,-16,-3,-9,-6
1558439111461443,0,2,10,11,5,8,1,-1
1558439111470419,3,3,-7,-11,3,3,5,4
1558439111470419,-9,-10,2,0,2,-9,1,-2
1558439111471416,0,2,4,2,-3,0,-3,-3
1558439111471416,2,-4,-2,1,-9,-12,-7,-2
1558439111484381,3,0,0,-2,3,2,1,3
1558439111484381,4,3,-4,0,12,21,10,2
1558439111491363,-4,-3,0,1,-5,-15,-2,1
1558439111491363,-2,0,3,3,-2,3,-1,-4
1558439111507319,-1,1,-2,-7,2,-2,-5,-2
1558439111507319,-2,-5,-12,-3,-14,-13,-8,-2
1558439111513304,-2,-2,-6,0,-2,3,2,0
1558439111513304,-1,5,1,-3,1,5,3,2
1558439111530259,-3,-2,-1,0,-2,-5,0,1
1558439111530259,-3,-6,-8,-9,-2,-5,-5,-1
1558439111531257,0,2,4,3,-2,-7,-6,-6
1558439111531257,-6,-10,-2,1,-3,-4,-1,-3
1558439111544226,2,4,0,4,2,2,-2,-3
1558439111544226,1,-3,-5,-11,-4,8,0,-2
1558439111551205,-2,-1,1,2,-4,-16,-1,2
1558439111551205,0,-2,-12,-20,-3,-8,-5,0
1558439111567165,-5,-5,2,4,3,6,3,0
1558439111567165,6,6,6,9,5,-3,-1,-1
1558439111574144,-8,-5,4,3,3,1,0,-4
1558439111574144,-2,-2,-9,-16,-15,-1,-3,-2
1558439111590107,-4,-3,-4,0,-4,-2,-5,-5
1558439111590107,1,0,-4,-13,0,0,5,4
1558439111591102,3,5,6,6,5,4,0,1
1558439111591102,1,1,9,18,10,4,0,-1
1558439111605061,-3,-4,-6,-7,-11,-8,-9,-5
1558439111605061,4,4,6,5,2,-2,4,1
1558439111611083,1,-2,-1,-2,-1,-3,-2,0
1558439111611083,-2,0,3,2,-1,0,-3,-2
1558439111627130,-3,-8,-9,-16,-11,-2,-4,-4
1558439111627130,-4,1,3,7,5,1,1,-1
1558439111634064,-6,-6,-5,-9,-6,-6,-5,-1
1558439111634064,1,1,3,11,7,3,3,3
1558439111649940,-1,0,5,-1,2,2,5,2
1558439111649940,-3,-2,2,2,0,4,-1,-1
1558439111651934,0,-4,-5,-11,-11,-8,-1,-1
1558439111651934,-2,-5,-3,-4,-3,-2,-2,-3
1558439111665187,1,4,1,7,6,3,2,1
1558439111665187,2,3,3,-1,-4,-6,-3,0
1558439111678892,-7,-3,-2,1,7,8,2,-5
1558439111678892,0,-4,2,8,2,0,2,1
1558439111688197,1,-1,-6,-15,-2,4,0,-3
1558439111688197,-4,-3,-7,-5,-9,0,-7,-5
1558439111694158,6,4,0,3,4,4,4,4
1558439111694158,2,3,4,-3,5,-9,4,3
1558439111717759,-4,-3,-5,4,-4,-1,-2,2
1558439111717759,2,0,4,10,5,1,-3,0
1558439111718755,-2,-3,-5,-5,-5,1,-6,-4
1558439111718755,-2,-4,-6,-19,0,5,-5,-4
1558439111723795,1,4,2,5,-10,-16,-3,-3
1558439111723795,-1,1,-1,0,2,-7,1,1
1558439111739698,5,7,5,9,6,7,6,4
1558439111739698,-4,-9,-2,2,-2,6,-5,-3
1558439111746680,-1,0,0,3,-6,-10,-7,-1
1558439111746680,-2,-4,2,3,1,9,7,2
1558439111761646,-4,-6,-13,-16,-8,-12,-4,-2
1558439111761646,3,5,4,3,1,0,4,3
1558439111770345,1,-3,-8,-8,-3,-6,-7,-4
1558439111770345,-1,-2,1,6,9,9,3,-2
1558439111770971,-5,-6,4,5,8,8,0,-1
1558439111770971,-3,-1,-9,-13,-9,-7,-2,-1
1558439111783969,1,2,3,11,-3,-7,-2,-1
1558439111783969,1,1,-4,-15,-6,-5,0,1
1558439111792948,4,1,7,7,4,4,4,0
1558439111792948,-1,2,-3,-1,0,-5,-5,-3
1558439111807219,-1,-4,3,3,4,8,1,0
1558439111807219,-3,-5,-7,-3,-12,-13,-8,-4
1558439111814193,-3,-2,-7,-8,-9,2,-6,-4
1558439111814193,2,-1,2,-4,-4,0,1,1
1558439111830158,1,2,-2,-4,13,3,8,4
1558439111830158,-2,-2,-8,-4,-2,-2,0,-2
1558439111832085,1,3,6,9,-3,0,-3,-3
1558439111832085,1,-2,0,4,-4,-6,-8,-5
1558439111844100,-3,-4,-6,-13,-4,-1,-2,-3
1558439111844100,-2,-2,3,-2,-2,3,3,2
1558439111852753,-1,0,-6,-4,-1,-4,-4,-2
1558439111852753,2,6,6,10,2,-1,-1,2
1558439111867013,-3,1,5,6,3,-8,-2,1
1558439111867013,-1,-3,-1,-1,1,0,1,-3
1558439111881676,0,1,-3,-4,-7,-4,3,1
1558439111881676,-1,-2,2,7,6,15,6,-1
1558439111889713,-4,-6,-6,-9,1,2,-1,-3
1558439111889713,-1,0,5,8,-4,-11,-5,-1
1558439111891647,2,0,1,-6,-2,-7,-1,3
1558439111891647,-8,-6,-3,-2,-1,2,-2,-2
1558439111903615,0,1,4,6,-2,5,2,-2
1558439111903615,1,4,3,0,17,4,9,1
1558439111912591,-2,-4,-13,-11,-8,-5,-4,-3
1558439111912591,1,0,-3,-5,-10,-13,-7,-3
1558439111926555,1,5,9,5,8,14,7,1
1558439111926555,-2,-5,3,6,1,1,-5,-1
1558439111934562,-1,-3,-2,-3,-8,-13,-4,-4
1558439111934562,2,1,1,6,7,6,6,3
1558439111957472,-1,2,-1,-4,-4,2,-4,-1
1558439111957472,-1,-1,-1,-1,10,11,1,2
1558439111959465,-3,-1,0,5,3,0,3,0
1558439111959465,-5,-6,-7,-11,-8,-5,-4,-3
1558439111964452,-1,-3,0,-4,-6,-9,-2,0
1558439111964452,2,3,2,-1,4,4,1,2
1558439111972597,0,-4,-12,-6,-13,-5,-6,-3
1558439111972597,-3,-5,-3,-1,-1,3,-2,-3
1558439111995679,2,1,-1,-3,-4,-9,-1,3
1558439111995679,0,-2,-2,-7,-7,-3,-3,-3
1558439111996370,-5,-4,5,8,3,0,-3,-1
1558439111996370,-3,1,-8,-6,3,0,5,1
1558439112017611,-2,-2,-4,1,2,4,-2,-2
1558439112017611,3,0,-5,-4,-4,-5,-1,-3
1558439112019309,-6,-2,9,14,6,4,3,0
1558439112019309,0,-3,-6,-15,-8,-5,-2,-1
1558439112023571,0,0,-2,1,5,-3,1,-1
1558439112023571,-3,0,-4,0,-8,-4,-5,-4
1558439112040251,3,4,4,2,6,12,8,5
1558439112040251,1,0,1,2,-4,-11,-4,-2
1558439112047535,-3,-3,1,0,0,8,-2,-3
1558439112047535,-4,-7,-13,-7,-8,-11,-5,-3
1558439112061469,2,5,6,3,13,9,6,3
1558439112061469,-1,0,-6,0,1,-7,2,2
1558439112069187,-5,-7,5,4,-1,-1,-1,0
1558439112069187,-3,-4,-13,-13,-6,5,1,-2
1558439112076156,-1,-2,1,-5,-10,-8,-7,-6
1558439112076156,1,3,6,8,8,9,3,-1
1558439112084134,3,1,1,4,5,-4,2,2
1558439112084134,-5,0,3,2,0,-6,-4,0
1558439112092111,-2,-2,0,-1,0,-5,-1,-2
1558439112092111,1,2,-4,-8,-5,-5,-2,-1
1558439112107215,-2,-3,1,-2,-7,-11,-5,-5
1558439112107215,-1,3,3,6,2,8,4,1
1558439112114440,1,0,-1,1,9,11,5,2
1558439112114440,-5,-4,-1,2,-6,-1,-8,-5
1558439112130196,0,0,-10,-11,-6,-7,-1,0
1558439112130196,2,0,5,4,7,-6,3,2
1558439112135995,-2,-2,0,-2,-3,-2,0,-1
1558439112135995,-1,-3,-5,-5,2,9,1,0
1558439112152976,-3,-2,1,5,-5,-2,-2,-2
1558439112152976,-1,-2,3,0,-13,-8,-12,-5
1558439112153978,1,3,-8,-22,-2,4,3,1
1558439112153978,1,-4,9,6,8,4,4,1
1558439112167219,0,0,-3,0,-3,-3,-1,-2
1558439112167219,0,1,-1,0,7,5,2,-2
1558439112174180,2,1,2,8,2,8,-2,-1
1558439112174180,1,-3,-8,-6,-8,-15,-3,0
1558439112189871,-11,-11,-5,-6,-10,1,-1,-1
1558439112189871,-1,-2,5,9,6,1,3,0
1558439112213824,-4,-6,-16,-19,-7,-5,-7,-3
1558439112213824,-1,4,3,6,5,9,4,0
1558439112213824,2,1,-1,-2,-3,7,-2,-1
1558439112213824,-3,0,5,11,3,-9,2,1
1558439112215785,3,0,-7,-21,-10,-15,-3,-1
1558439112215785,-2,-2,-3,-3,1,2,-3,-4
1558439112226799,1,3,4,1,5,4,-1,-1
1558439112226799,-1,0,2,-2,-5,2,-4,-2
1558439112233996,0,-5,-7,-1,3,4,0,-2
1558439112233996,1,-1,1,2,-1,5,6,0
1558439112249935,-5,0,0,0,6,-1,2,0
1558439112249935,0,-1,-2,-4,-4,-6,-5,-1
1558439112256948,-4,-2,1,5,-8,-8,-8,-4
1558439112256948,-2,-2,7,10,-2,3,-6,-3
1558439112272889,4,-2,-13,-15,4,-4,4,5
1558439112272889,-1,-1,4,0,2,-1,0,2
1558439112273626,-1,0,4,5,0,2,2,0
1558439112273626,-7,-2,-12,-16,-13,-9,-7,-6
1558439112295813,4,2,5,7,8,7,4,1
1558439112295813,4,-4,-6,-7,-9,-12,-3,-1
1558439112296566,-6,-3,3,10,6,0,-1,0
1558439112296566,2,4,12,7,1,2,1,0
1558439112317508,0,0,-14,-8,-2,-1,0,-1
1558439112317508,-3,-2,-5,-8,0,3,-2,-3
1558439112318505,1,3,3,4,-4,-4,-3,0
1558439112318505,-1,0,-1,0,-2,-7,-2,0
1558439112340481,-3,-3,1,0,-2,-1,-3,-3
1558439112340481,-1,-2,-4,-4,-1,9,5,1
1558439112341446,2,1,13,15,8,-4,-2,-2
1558439112341446,-6,-8,-22,-16,-2,1,2,2
1558439112347418,-3,-5,-9,-13,-14,-2,0,-2
1558439112347418,-1,2,3,1,3,-1,3,1
1558439112354080,-1,-1,-1,-6,-3,1,-1,0
1558439112354080,2,3,7,10,4,-5,-5,1
1558439112370067,-1,0,1,7,-3,-6,-5,-3
1558439112370067,-3,-5,-6,-7,-11,-2,-6,-3
1558439112376325,0,1,6,5,13,9,6,1
1558439112376325,1,-1,-10,-8,-3,-10,1,0
1558439112393098,-1,1,1,1,1,-1,1,-1
1558439112393098,2,-2,-1,-5,-4,-4,-7,-5
1558439112393972,-10,-9,-6,-2,-12,-4,-5,-5
1558439112393972,-1,-2,3,7,5,8,1,-2
1558439112407219,2,1,0,-15,2,-9,-1,3
1558439112407219,0,2,-3,2,-1,3,2,-1
1558439112414210,4,4,-3,-2,-1,-9,-2,3
1558439112414210,-2,-4,6,-3,4,4,-5,-1
1558439112430162,-4,-1,5,13,-3,4,-2,-6
1558439112430162,-4,-3,-5,-5,-2,0,-3,-2
1558439112435860,-4,-3,-9,-14,-7,-10,-6,-2
1558439112435860,1,-3,1,3,-5,-6,0,2
1558439112452814,2,2,4,11,6,7,-2,-2
1558439112452814,-1,-1,-13,-16,-4,-2,-4,-2
1558439112453931,1,5,7,9,4,-2,5,2
1558439112453931,2,1,2,-7,-1,-4,-1,0
1558439112467077,-4,-7,-9,-6,-6,1,-4,-2
1558439112467077,-2,-1,8,14,1,1,1,-2
1558439112480740,1,0,-9,-12,-4,2,-3,-1
1558439112480740,1,-1,-1,-4,-5,-5,-4,-2
1558439112489976,-5,-1,3,3,8,8,8,0
1558439112489976,-1,2,1,-2,-7,-8,-4,-2
1558439112503677,3,0,1,3,2,6,6,0
1558439112503677,-6,-4,2,0,-5,-3,-1,-2
1558439112512659,1,1,-3,-1,-3,-4,-3,1
1558439112512659,-2,0,1,4,4,1,-1,1
1558439112513651,-1,1,-2,-2,-6,-6,-6,-3
1558439112513651,1,-2,1,3,0,11,2,-3
1558439112527613,-2,-5,-5,-6,2,-3,-4,-1
1558439112527613,1,2,4,-5,6,-8,4,4
1558439112533630,1,-1,-4,2,1,2,-1,-2
1558439112533630,-2,-2,-5,3,6,6,7,2
1558439112549851,-1,1,3,-4,-8,-11,-7,-3
1558439112549851,-3,-6,-6,2,-3,-3,-3,-3
1558439112556834,-5,-4,-9,-15,-8,-1,-4,-4
1558439112556834,3,2,2,2,14,18,13,4
1558439112572782,-4,-2,2,-1,-2,-5,-3,-2
1558439112572782,0,1,2,0,3,6,-2,1
1558439112573492,0,-3,-1,2,-3,-8,-2,-2
1558439112573492,2,1,7,12,-5,-11,-10,-4
1558439112587524,-5,-5,-14,-19,-3,7,5,1
1558439112587524,-1,-1,2,7,-7,-1,-4,-3
1558439112593734,2,-2,-1,2,6,-2,2,1
1558439112593734,-13,-6,0,-4,-3,-10,-3,-3
1558439112609677,5,4,13,13,8,7,1,2
1558439112609677,-3,-7,-8,-6,-11,-6,-3,-3
1558439112616682,1,-1,6,4,2,7,-2,-1
1558439112616682,5,2,-1,0,-2,-10,-3,1
1558439112632631,1,2,1,1,0,-1,-1,-1
1558439112632631,-2,0,-1,-2,5,3,7,1
1558439112634328,-2,-2,0,6,-6,-12,-6,-1
1558439112634328,-1,-1,-5,-17,-8,3,-2,0
1558439112646596,-1,-1,-2,-4,-2,3,-1,-2
1558439112646596,2,4,3,4,12,11,5,2
1558439112655277,-2,-4,-2,4,0,-6,0,0
1558439112655277,-4,-2,0,2,-10,-5,-7,-7
1558439112669236,-1,-1,-4,0,-3,-5,-3,0
1558439112669236,-1,-2,-3,-4,1,3,0,-1
1558439112676524,-2,0,-1,-2,-2,4,3,-2
1558439112676524,-3,0,0,1,2,-4,3,2
1558439112692203,3,-1,8,9,6,3,-1,2
1558439112692203,1,0,0,-1,0,-4,-5,-1
1558439112694196,-8,-5,-10,-10,-5,1,1,-2
1558439112694196,2,0,-5,-7,-6,-3,-7,-4
1558439112715112,-4,-5,-5,-7,-8,0,-1,-2
1558439112715112,-10,-5,0,0,4,0,-2,-2
1558439112717256,2,1,5,8,3,3,1,-1
1558439112717256,2,2,-5,-6,2,-7,0,1
1558439112729073,1,-1,-4,-4,0,-3,-3,-2
1558439112729073,1,-1,-1,1,-10,-2,2,1
1558439112737106,-3,2,1,-1,0,1,-4,0
1558439112737106,-5,-4,-10,-5,-8,-5,-7,-6
1558439112767971,1,-2,8,10,12,8,10,5
1558439112767971,-1,0,-4,-6,-2,-2,2,-1
1558439112769966,-1,-2,-1,-4,-1,-6,-9,-4
1558439112769966,0,-3,1,6,-1,4,1,2
1558439112769966,0,-1,-2,1,-6,-16,-5,-3
1558439112769966,0,0,-2,-11,-4,0,-2,-4
1558439112774956,0,-2,-2,-5,-10,-7,-2,-2
1558439112774956,1,1,-6,-4,5,9,5,0
1558439112789925,-1,-3,2,1,-2,-3,-2,-1
1558439112789925,-2,0,-3,2,1,-1,-2,-1
1558439112795929,1,-2,-4,-6,-2,-3,1,2
1558439112795929,3,3,3,1,8,11,4,2
1558439112813297,1,8,10,8,6,3,0,2
1558439112813297,-14,-19,-22,-15,-19,-11,-5,-5
1558439112814955,-3,-5,-7,-5,-6,1,-6,-4
1558439112814955,0,0,3,7,2,6,2,-1
1558439112827029,1,3,2,-3,3,-1,3,-1
1558439112827029,6,5,7,-2,-2,-10,-3,1
1558439112835295,1,1,-2,-6,11,8,6,2
1558439112835295,-1,-2,1,6,2,-2,0,-2
1558439112849718,-2,-2,-1,-3,-8,-6,-9,-4
1558439112849718,-1,-5,-6,-6,-1,5,0,-2
1558439112856694,-3,-2,2,3,-4,1,-1,1
1558439112856694,1,3,3,2,-3,-10,-3,-2
1558439112872559,0,0,0,0,1,-7,1,1
1558439112872559,4,6,2,6,10,6,4,0
1558439112878546,-1,0,-2,-7,-5,1,-4,-2
1558439112878546,-2,-1,6,4,7,1,0,2
1558439112894135,-2,2,-4,-6,-8,-3,-7,-5
1558439112894135,-1,-12,-9,-6,-3,2,1,1
1558439112895131,0,-2,-2,3,5,-9,0,-1
1558439112895131,0,-2,-3,-2,-4,2,-3,-2
1558439112910328,-15,-9,-2,-1,-3,-2,-4,-5
1558439112910328,6,11,17,10,16,9,5,3
1558439112916077,-1,-2,-9,-5,-5,5,3,-4
1558439112916077,-2,-1,-3,-8,-6,-8,-1,0
1558439112931537,2,0,-4,1,-4,-1,-3,-3
1558439112931537,-2,1,4,1,-6,-6,-2,0
1558439112939537,-3,0,-1,0,8,3,0,0
1558439112939537,0,-2,1,4,-4,4,2,-1
1558439112955210,-1,-4,2,10,6,3,1,0
1558439112955210,-1,-2,-11,-17,-11,-9,-7,-1
1558439112955210,3,3,8,6,-1,-1,-1,-1
1558439112955210,-2,-1,-6,-9,-4,-8,-7,-1
1558439112970089,1,-4,-5,-2,-1,1,2,-2
1558439112970089,-1,-1,2,5,-6,-3,-3,-1
1558439112977026,0,0,1,6,14,13,12,5
1558439112977026,-3,-2,-8,-15,-7,-6,-7,-2
1558439112992872,-2,-6,-3,-4,-2,2,3,2
1558439112992872,0,1,5,10,0,-12,-5,-3
1558439112999303,-2,-5,-4,-13,-9,-2,-8,-4
1558439112999303,0,-3,3,5,4,4,4,1
1558439113015144,4,5,1,-2,-2,-5,-3,0
1558439113015144,-5,-3,-6,-6,2,2,1,-1
1558439113015144,-9,-6,8,12,0,-1,-1,0
1558439113015144,0,2,-14,-15,-4,-6,-2,-3
1558439113038041,-4,-4,-5,-4,-6,1,-2,0
1558439113038041,1,2,2,2,-1,6,-4,-2
1558439113038750,0,-1,1,-2,-8,-12,-8,-4
1558439113038750,1,1,5,8,10,3,4,2
1558439113050822,3,4,0,0,4,6,3,1
1558439113050822,-2,-7,-6,-1,-5,0,2,-2
1558439113059006,2,1,2,4,-1,-9,-4,2
1558439113059006,-3,-2,6,7,-4,-4,-4,-3
1558439113082188,-2,0,-11,-12,-2,-4,-1,-2
1558439113082188,0,-2,6,5,0,-7,-5,-2
1558439113082911,4,5,2,0,4,13,8,2
1558439113082911,-3,-6,0,1,-2,-10,-6,-3
1558439113090100,-3,-2,-4,-2,1,2,-1,-1
1558439113090100,-2,1,4,3,-7,-8,-9,-4
1558439113103857,-2,-4,-11,-16,-2,4,1,-1
1558439113103857,-3,0,-8,-5,-1,-1,1,-1
1558439113111882,-3,-2,-2,-4,0,5,0,-1
1558439113111882,0,0,-1,-1,-3,-8,-5,-1
1558439113127064,-5,-2,3,1,3,-1,1,-2
1558439113127064,-1,0,8,11,6,10,4,4
1558439113134773,1,0,-7,-10,-8,-9,0,0
1558439113134773,2,-2,-1,3,8,3,1,-1
1558439113134773,0,3,2,0,1,4,-2,-2
1558439113134773,-3,-4,-12,-15,-12,-4,-7,-5
1558439113150072,-1,1,9,11,3,-2,0,1
1558439113150072,-2,-1,-9,-11,0,4,6,1
1558439113156984,2,0,-5,-6,-6,-15,-4,-1
1558439113156984,-2,-1,4,4,0,3,-4,-4
1558439113171896,3,5,5,3,0,-3,-5,-3
1558439113171896,-2,0,-4,-2,-2,1,1,0
1558439113178972,-1,-6,-1,6,-5,-3,0,1
1558439113178972,-4,-7,-3,-4,-4,3,-3,-3
1558439113194942,-3,-4,3,-1,-8,-3,-6,-5
1558439113194942,4,3,5,5,10,3,6,4
1558439113194942,0,-1,-12,-9,-6,-11,-5,-2
1558439113194942,2,3,3,3,3,7,5,-1
1558439113210768,-3,-3,-1,8,3,6,2,-1
1558439113210768,3,4,3,-4,3,-4,1,2
1558439113216830,-6,0,2,2,0,2,-4,-2
1558439113216830,-12,-11,-4,-6,1,13,6,1
1558439113231857,-2,-2,-5,-2,0,-16,-2,0
1558439113231857,-2,1,0,1,-8,5,-3,-3
1558439113238778,4,2,2,2,5,1,-1,-1
1558439113238778,0,1,3,0,-9,-20,-8,-4
1558439113254706,-3,-6,-13,-11,-6,7,2,0
1558439113254706,0,0,1,2,3,-6,1,-1
1558439113255451,-1,-2,7,3,-3,5,-4,-3
1558439113255451,-2,1,-8,-3,0,10,7,3
1558439113270446,2,2,5,0,6,-7,-1,-1
1558439113270446,1,3,-1,6,-4,-2,0,0
1558439113276596,-2,-3,-1,-9,-6,-7,-8,-3
1558439113276596,4,0,6,6,6,1,0,1
1558439113291388,-3,-3,-3,1,0,6,4,1
1558439113291388,-2,-2,-1,0,-2,0,-4,-2
1558439113299370,0,2,5,6,3,-6,1,0
1558439113299370,2,1,-3,-5,-4,-7,-5,-2
1558439113314539,-2,-2,0,3,-1,4,-2,-2
1558439113314539,-1,-2,-3,-4,-6,-5,-9,-3
1558439113315294,0,-2,-3,-1,1,3,5,0
1558439113315294,1,1,7,5,4,-8,-1,-1
1558439113338263,4,5,-4,-3,-4,3,3,-1
1558439113338263,-9,-10,-1,-4,-3,-6,-4,-3
1558439113339230,-2,-4,-7,2,1,1,0,-2
1558439113339230,3,1,-3,-2,5,-6,0,0
1558439113359517,-3,-1,0,-4,-12,-12,-11,-4
1558439113359517,-1,-1,-2,-4,-3,5,-3,-1
1558439113360173,1,4,-2,0,6,11,8,4
1558439113360173,-2,-3,1,2,-2,1,4,1
1558439113375166,1,3,-5,-15,-4,-4,-5,-1
1558439113375166,0,-4,-5,-6,-7,-2,0,-2
1558439113375166,-2,2,2,4,5,7,3,0
1558439113375166,3,1,2,5,3,1,-1,0
1558439113390091,-5,-10,2,2,-1,0,1,-1
1558439113390091,-1,0,-3,4,2,-3,0,-1
1558439113396076,0,-1,-8,-8,-2,-7,-7,-3
1558439113396076,-1,1,-4,-8,-5,5,2,-2
1558439113411032,2,1,3,3,1,-5,-3,0
1558439113411032,0,2,4,4,12,7,7,2
1558439113419013,1,0,3,1,1,-2,-1,0
1558439113419013,-2,-1,-5,-7,-9,-8,-9,-3
1558439113433971,0,-2,0,0,1,7,4,-1
1558439113433971,-1,-4,-1,-1,-3,2,-1,-2
1558439113434969,4,0,-1,-2,-1,-3,2,2
1558439113434969,-2,-1,-2,-4,-2,-1,-2,-5
1558439113449928,0,-1,1,2,3,2,0,-1
1558439113449928,3,0,0,-1,5,3,5,4
1558439113455912,-2,-1,1,1,-4,0,-3,-4
1558439113455912,-5,-7,-6,-3,-12,-6,-9,-5
1558439113472869,3,2,4,5,20,9,14,8
1558439113472869,0,1,4,-3,-3,-10,-4,0
1558439113479242,-4,-5,-12,-3,-8,1,-4,-3
1558439113479242,1,1,3,-3,-1,-10,-6,-3
1558439113495141,-3,-1,-9,-6,-12,-2,-5,-6
1558439113495141,-4,-4,2,0,2,1,-1,-1
1558439113495141,0,2,2,-7,2,1,5,2
1558439113495141,-4,-2,-5,-1,-2,-5,-2,-2
1558439113509769,-2,-4,-3,-2,-5,-5,-6,-3
1558439113509769,-1,2,3,12,2,1,0,-1
1558439113515908,-3,-7,-7,-15,-6,-5,-9,-6
1558439113515908,3,5,5,5,3,3,4,4
1558439113530714,-2,3,1,-1,-3,-1,-4,-2
1558439113530714,3,5,0,0,2,0,-3,-2
1558439113538695,-3,-7,-1,3,0,-9,1,2
1558439113538695,-1,-1,-4,-5,3,-6,-4,2
1558439113554649,-3,-6,1,6,-1,-3,-7,-4
1558439113554649,-5,-6,-9,-19,-11,-6,-3,-4
1558439113555846,2,2,7,5,2,7,1,-2
1558439113555846,0,0,4,1,3,5,7,2
1558439113569610,0,2,0,3,0,-8,-2,1
1558439113569610,0,-3,-7,-10,4,11,0,-3
1558439113575807,-2,-1,4,6,0,-3,0,-1
1558439113575807,-5,-6,-5,-8,-11,-5,-9,-4
1558439113592551,2,1,7,6,5,-4,4,3
1558439113592551,-1,0,-2,-2,3,-4,-2,-3
1558439113598533,-5,-4,-5,-8,-3,8,3,-1
1558439113598533,1,-1,-2,4,0,4,-1,-2
1558439113615487,0,-1,-2,-2,-4,-7,-5,-1
1558439113615487,-3,0,-1,2,3,1,2,2
1558439113616486,2,4,7,4,0,-7,1,3
1558439113616486,4,4,3,3,-1,1,0,-2
1558439113630458,0,-2,-3,-6,-4,2,-5,-4
1558439113630458,-11,-10,-8,-10,3,10,7,2
1558439113636429,-2,-7,0,0,-4,-14,-5,0
1558439113636429,1,3,-6,-2,3,0,4,2
1558439113651390,2,3,3,3,-2,5,8,0
1558439113651390,0,-1,1,-1,-4,-8,-9,-6
1558439113658374,0,1,1,0,-2,-1,-6,-2
1558439113658374,-4,-5,-4,-7,0,-6,0,0
1558439113674466,-2,1,4,-1,5,5,3,-1
1558439113674466,1,2,-2,6,4,6,-4,-1
1558439113675326,0,-1,-6,-5,-6,-2,1,-1
1558439113675326,1,-1,1,0,1,-3,-3,-3
1558439113690288,-2,-4,-3,-1,-5,4,1,0
1558439113690288,-2,-4,-4,-13,-4,-2,-1,1
1558439113696271,0,0,3,4,1,-8,-7,-2
1558439113696271,-2,0,6,6,-2,5,-2,-2
1558439113711257,0,1,-3,1,3,-3,1,0
1558439113711257,-1,-3,3,1,-6,-11,-6,-4
1558439113718220,-2,0,-5,-4,2,11,2,0
1558439113718220,1,0,-1,-3,1,-7,1,1
1558439113734170,-1,1,4,4,-6,-2,-2,-4
1558439113734170,4,-2,0,5,1,-3,-1,0
1558439113735169,-3,0,0,2,0,4,-1,0
1558439113735169,-1,-6,-4,-3,-2,-4,-1,-2
1558439113750139,-1,-3,0,-1,1,-2,0,1
1558439113750139,1,1,-4,-1,-7,-3,0,-1
1558439113756110,2,0,0,-3,5,12,4,1
1558439113756110,-9,-3,0,2,-1,-5,-4,0
1558439113771071,0,-1,-5,-8,-3,-3,-1,-1
1558439113771071,0,-2,3,6,-9,-11,-4,-3
1558439113779147,0,-1,-1,-2,0,3,2,-1
1558439113779147,2,5,-1,5,6,10,4,2
1558439113794009,-3,-1,-1,-3,0,-2,-5,0
1558439113794009,-7,-6,-4,-6,-1,2,4,0
1558439113800990,-1,-4,-2,-2,-7,-16,-9,-5
1558439113800990,2,1,2,-3,1,8,1,-4
1558439113809966,-3,-3,-2,2,0,-6,-3,-2
1558439113809966,5,5,2,3,8,7,4,2
1558439113815951,-2,-1,-4,-7,-6,4,-2,-3
1558439113815951,-1,-3,0,2,0,-7,-1,2
1558439113830912,1,2,1,-3,8,8,3,3
1558439113830912,-7,-5,-2,-1,-7,-6,-5,-2
1558439113838888,0,0,-6,-3,-3,-4,-3,-3
1558439113838888,0,1,3,4,-3,3,-2,-2
1558439113853850,3,0,-3,-8,-1,0,5,0
1558439113853850,2,4,1,-2,6,-1,-1,0
1558439113860830,0,-7,1,5,-1,-2,0,2
1558439113860830,-3,0,-1,-1,-1,-4,-1,-2
1558439113869807,-2,-3,-2,3,0,-4,-1,0
1558439113869807,-5,-1,0,-6,-2,0,1,-1
1558439113875791,0,2,-6,-13,-7,-5,-5,-4
1558439113875791,-1,-2,2,-5,0,6,-3,-3
1558439113900723,-2,-2,-12,-5,0,-1,-1,-2
1558439113900723,2,2,5,12,8,-2,1,1
1558439113901725,0,1,-2,-6,-3,1,-1,-1
1558439113901725,-1,-5,-3,-2,-16,-18,-11,-6
1558439113913700,-1,0,0,-1,3,12,8,0
1558439113913700,-1,-2,-1,0,-4,7,2,0
1558439113920709,1,2,2,3,8,-3,6,5
1558439113920709,5,2,2,4,3,8,2,1
1558439113929649,-11,-9,5,5,0,-1,-8,-2
1558439113929649,1,-1,-9,-11,-13,-13,-6,-1
1558439113936628,-4,-2,-1,0,-7,-13,-13,-4
1558439113936628,-4,-3,-10,-8,-5,2,1,-3
1558439113952585,5,6,5,1,9,6,6,0
1558439113952585,-1,-6,2,6,1,3,1,-3
1558439113958568,0,1,7,10,6,2,7,1
1558439113958568,3,2,-4,-9,3,-12,-3,-1
1558439113973531,0,-2,-1,2,-7,-2,-7,-5
1558439113973531,-1,0,0,-3,-3,-8,-2,-1
1558439113981507,-2,-2,-11,-7,-3,0,-6,-5
1558439113981507,-1,-2,5,8,2,3,2,2
1558439114004454,0,0,-2,-2,-9,-11,-6,-3
1558439114004454,3,1,-7,-2,-3,9,2,-1
1558439114005446,-1,-4,1,1,-4,0,4,-1
1558439114005446,-1,1,3,2,12,3,7,5
1558439114012427,-2,-3,-4,-3,-6,-8,-9,-3
1558439114012427,2,3,6,5,1,3,-3,-2
1558439114018412,-3,-3,-4,-1,-5,-4,-3,-2
1558439114018412,-2,0,-8,-18,-9,5,-3,-2
1558439114033374,1,0,-3,5,2,-1,5,3
1558439114033374,0,-3,1,-2,-3,-3,-1,-2
1558439114041351,1,2,0,8,5,-1,0,-3
1558439114041351,-8,-4,0,-9,0,3,0,0
1558439114056367,-4,-5,-1,-3,-5,-4,-6,-4
1558439114056367,-2,0,-8,-3,-2,-4,0,-1
1558439114057310,0,-1,2,3,-6,1,-6,-4
1558439114057310,3,4,2,2,-2,-8,-3,1
1558439114072268,0,-3,1,-1,0,-2,1,1
1558439114072268,-3,-1,1,1,-1,-10,-3,-1
1558439114078254,2,-1,4,2,6,8,4,3
1558439114078254,-2,-2,-6,-4,-4,-5,-3,-4
1558439114102187,-4,-3,-9,-8,-6,-3,-6,-5
1558439114102187,0,0,3,8,5,10,3,1
1558439114102187,-2,-2,-8,-18,-5,-9,-2,-1
1558439114102187,1,2,0,6,-1,-1,1,0
1558439114117159,0,-1,2,-3,6,9,2,0
1558439114117159,-2,-4,-3,0,-5,-5,2,1
1558439114117159,2,1,6,7,-1,0,0,1
1558439114117159,-5,-6,-6,0,-4,0,-3,-5
1558439114132115,2,2,-3,-7,-7,-9,-5,-1
1558439114132115,-2,-1,-4,-7,-4,5,-1,-2
1558439114147076,-1,-1,-2,-2,5,5,2,3
1558439114147076,1,-1,2,5,-2,-3,-2,-1
1558439114154046,-3,1,3,5,-1,0,-5,-3
1558439114154046,3,1,1,-4,3,-5,4,4
1558439114169005,-1,2,0,-2,-1,0,10,3
1558439114169005,-1,0,5,10,7,4,-3,-2
1558439114177983,1,0,-6,-14,-12,-2,0,0
1558439114177983,-1,2,1,-2,-1,-4,-3,0
1558439114178985,-7,-8,-7,-9,0,7,0,-1
1558439114178985,-1,-1,5,4,3,5,6,1
1558439114192942,-1,-4,4,5,3,2,3,1
1558439114192942,1,0,4,2,-4,-8,-5,-3
1558439114198929,2,4,3,7,2,-4,-4,-3
1558439114198929,1,-2,-4,-9,-5,-2,-2,-2
1558439114214882,-4,-4,-5,-2,-3,-4,0,0
1558439114214882,-1,0,-2,1,2,5,1,-2
1558439114220869,-2,-3,2,2,1,4,-1,-1
1558439114220869,0,2,-2,1,3,4,4,-1
1558439114237823,2,2,-1,1,-5,-11,-3,-3
1558439114237823,-3,-3,-4,-3,6,14,1,-1
1558439114238818,2,1,5,2,-3,-3,-3,-1
1558439114238818,-17,-12,-7,-4,-6,-12,-7,-2
1558439114260762,2,1,0,-1,5,-2,5,4
1558439114260762,3,2,3,3,3,2,5,1
1558439114261770,-1,-3,1,9,2,-8,-5,-3
1558439114261770,5,0,-5,-7,-3,8,-1,0
1558439114273790,-2,-2,-4,-2,-1,6,1,-3
1558439114273790,-3,0,-6,-6,-8,-8,-10,-6
1558439114280774,1,3,3,6,5,16,7,2
1558439114280774,-2,-4,2,-3,-4,-17,-2,-1
1558439114296664,-1,-2,-6,-6,1,-6,-1,1
1558439114296664,0,-2,-1,0,2,1,-2,-1
1558439114297663,0,-1,-6,-4,-5,-4,-2,0
1558439114297663,0,-2,3,2,-5,1,-4,-6
1558439114312623,-2,0,-4,-8,0,1,-1,-1
1558439114312623,-2,0,1,0,4,3,4,1
1558439114318635,-6,-1,-8,-4,-4,-2,-6,-3
1558439114318635,2,1,4,5,3,-4,1,1
1558439114333581,2,0,-4,0,3,-8,1,1
1558439114333581,-1,-2,3,5,-6,-3,-4,-2
1558439114341546,-3,-2,-6,-22,-5,-7,-2,-2
1558439114341546,-1,-1,-5,-1,-2,4,2,1
1558439114356507,1,3,5,3,-1,8,0,-1
1558439114356507,-2,-2,3,1,-1,-1,-2,-2
1558439114357503,-1,-3,-1,8,0,-10,-1,1
1558439114357503,0,1,-5,-9,1,3,-3,0
1558439114372462,-2,-4,3,3,-6,-4,-4,-1
1558439114372462,-3,-2,-3,-5,-9,-12,-5,-2
1558439114378445,-1,0,6,3,-1,-6,-2,-4
1558439114378445,3,3,-3,-2,2,1,1,-1
1558439114395399,-8,-5,-2,2,-5,13,4,-2
1558439114395399,3,3,2,0,16,4,1,5
1558439114401386,-3,-1,-1,-3,-2,-1,-3,-1
1558439114401386,0,0,6,9,-2,-10,-6,-1
1558439114424323,1,4,-3,-8,-1,-6,-1,2
1558439114424323,-4,-5,-12,-7,-10,-4,-3,-5
1558439114425320,-6,-6,-2,-6,-4,0,-8,-3
1558439114425320,0,-1,4,9,2,5,4,1
1558439114432304,0,-3,-3,-4,-4,-5,-4,-2
1558439114432304,-1,1,-3,-4,-3,-3,3,1
1558439114438286,5,4,1,4,8,11,7,0
1558439114438286,5,2,-5,-4,-4,-12,-4,0
1558439114453251,-1,-3,7,6,6,3,-3,-3
1558439114453251,-3,0,-2,-7,-13,-5,-8,-4
1558439114469203,0,-2,0,2,11,20,10,6
1558439114469203,1,1,0,-4,5,-3,5,4
1558439114477183,2,4,5,4,3,-10,-1,-1
1558439114477183,-1,1,1,-1,1,7,-5,-5
1558439114477183,-4,-2,-1,3,-12,-2,-11,-3
1558439114477183,-4,-3,3,5,2,3,1,-1
1558439114492143,-1,-1,-6,-5,-6,-12,-3,-2
1558439114492143,3,1,-2,4,0,-2,2,0
1558439114498129,-9,-8,-4,-5,-2,-1,1,-1
1558439114498129,-4,-4,2,-1,-6,-1,-3,-4
1558439114513087,-2,-6,-4,-1,3,4,-2,-2
1558439114513087,2,1,0,0,-2,-6,-1,2
1558439114521065,3,3,0,1,3,-5,2,-2
1558439114521065,-5,-4,-3,-10,-2,6,1,-1
1558439114537027,-6,-2,-6,0,-5,1,-4,-3
1558439114537027,1,-1,-1,0,-1,-5,-4,1
1558439114537027,7,5,-2,-3,-2,-7,1,0
1558439114537027,-4,-2,4,5,8,5,2,0
1558439114558968,-2,-1,-5,-6,-6,0,-3,-3
1558439114558968,-2,-5,2,4,-1,6,-1,-3
1558439114559959,-1,-2,-10,-14,-8,-15,-8,-1
1558439114559959,0,-3,-3,-1,5,1,-2,-1
1558439114573933,0,0,5,6,2,-3,1,0
1558439114573933,-3,-5,-5,-1,-1,-7,-2,-4
1558439114580904,-2,-2,-1,-12,-19,-8,-7,-6
1558439114580904,5,-1,-8,-5,3,8,1,3
1558439114596868,-3,2,3,1,6,5,4,3
1558439114596868,-2,-6,5,2,-1,-4,2,2
1558439114597859,-3,-5,-3,-1,-1,-2,-2,-4
1558439114597859,3,3,3,-3,-8,-10,-1,-1
1558439114612834,2,-2,-7,-3,-9,-2,-9,-5
1558439114612834,0,3,-2,-4,8,19,7,2
1558439114618804,1,0,4,3,3,-6,5,3
1558439114618804,-2,1,-7,-9,-9,-8,-6,-3
1558439114633764,0,0,1,2,-4,4,-1,-3
1558439114633764,-3,-7,-6,-5,7,13,5,0
1558439114640771,1,3,6,10,8,-1,6,4
1558439114640771,-2,-1,-2,-4,-2,-9,-3,-1
1558439114656712,-4,-5,-2,-4,-7,-3,-5,-5
1558439114656712,0,2,0,-4,-6,2,-3,-4
1558439114657702,-2,-2,4,3,0,-2,-5,-1
1558439114657702,-3,-2,0,1,3,7,1,0
1558439114672661,4,1,-3,-6,1,4,8,5
1558439114672661,3,2,6,2,-3,-18,-6,-1
1558439114678646,-9,-5,-7,0,-5,-1,-4,-2
1558439114678646,0,4,2,1,-3,-3,1,-4
1558439114693603,-5,-7,-8,-12,-8,-6,-6,-4
1558439114693603,-2,-4,1,3,6,12,9,4
1558439114701582,2,1,-1,-8,-4,-7,-5,-2
1558439114701582,-1,-4,-9,0,-1,5,-7,-1
1558439114716548,1,0,1,-4,7,7,9,4
1558439114716548,-1,3,4,3,-4,-9,-8,-2
1558439114717538,3,1,-6,-7,-4,-1,1,-1
1558439114717538,-3,-2,1,2,-7,-7,-5,-3
1558439114732505,5,4,5,7,6,0,4,0
1558439114732505,-10,-8,-2,2,1,-7,-4,0
1558439114738487,-1,-1,3,-1,5,15,2,0
1558439114738487,-3,-1,-4,-1,4,20,7,-1
1558439114753444,2,2,-5,3,3,-15,-5,1
1558439114753444,1,-2,-6,-8,-4,-4,0,0
1558439114761432,-1,-1,0,3,1,2,-4,0
1558439114761432,-2,-1,-2,-3,-12,-13,-5,-4
1558439114776380,-7,-6,-1,-2,4,9,-5,-5
1558439114776380,3,1,2,6,-3,-1,-2,-1
1558439114783362,2,-1,-3,-5,-1,2,-1,-4
1558439114783362,1,-1,2,0,-1,-7,2,1
1558439114792343,1,3,6,5,1,3,3,5
1558439114792343,2,5,3,0,5,-2,0,0
1558439114798327,-1,-3,-7,-5,-4,-1,-7,-3
1558439114798327,-3,-2,-4,-6,-5,1,-7,-4
1558439114813283,-1,-3,10,9,7,-4,4,-1
1558439114813283,0,-5,-13,-4,-4,-9,1,-2
1558439114821263,0,1,-1,-4,0,6,1,0
1558439114821263,3,3,2,7,8,8,1,2
1558439114836220,-11,-8,-3,-5,-8,-6,-4,-4
1558439114836220,-1,1,3,-4,-6,2,-2,0
1558439114843202,0,2,2,5,5,6,4,3
1558439114843202,2,-1,-1,-1,-1,-9,-2,0
1558439114852180,4,-2,4,0,4,0,0,0
1558439114852180,-4,-2,-1,-3,2,3,-1,-3
1558439114859174,-3,-1,4,1,-8,-5,-3,-3
1558439114859174,-2,0,0,-2,-3,-6,-2,-1
1558439114873125,-4,-3,-14,-4,-15,-8,-5,-3
1558439114873125,0,-3,-5,-12,3,2,0,0
1558439114881107,3,1,3,6,6,9,8,2
1558439114881107,-5,-4,-2,-3,-1,-11,-4,-2
