timestamp,emg1,emg2,emg3,emg4,emg5,emg6,emg7,emg8
1558439065348069,-3,-4,1,5,-4,1,-4,0
1558439065348069,2,2,7,0,8,5,-1,-2
1558439065349065,0,1,8,14,9,6,8,4
1558439065349065,2,3,-1,2,-7,-4,4,3
1558439065350063,-4,-7,-6,-6,1,0,-1,-4
1558439065350063,-12,-9,-6,-4,-7,-3,-3,-3
1558439065353055,0,1,1,6,-2,-7,-2,1
1558439065353055,2,2,7,2,1,1,-3,-2
1558439065361034,3,3,-1,-5,1,2,3,1
1558439065361034,-3,-7,-17,-7,-5,-3,-2,-4
1558439065376990,-2,-3,-4,-4,1,-2,0,-1
1558439065376990,0,0,5,7,5,2,-3,-1
1558439065378986,1,0,4,-3,-3,3,1,-1
1558439065378986,-3,-2,-8,-11,-6,-2,-2,-3
1558439065391951,3,2,1,1,4,-11,6,7
1558439065391951,-4,-3,-7,-9,-9,-5,-12,-8
1558439065397934,1,3,3,10,9,9,-2,1
1558439065397934,3,-1,2,0,-6,-7,1,1
1558439065408906,0,-2,0,-5,-5,-9,-7,-4
1558439065408906,-4,-4,1,1,-1,3,4,4
1558439065421870,0,3,9,10,-2,-2,-2,-2
1558439065421870,5,3,0,-1,5,-3,4,3
1558439065427855,-7,-12,-12,-13,-12,-1,-11,-9
1558439065427855,-1,-5,-4,-1,4,-1,-1,-3
1558439065474730,1,4,4,5,-2,2,2,0
1558439065474730,-1,-1,-6,3,-8,-11,-7,-3
1558439065475726,0,-1,0,-3,6,-1,1,1
1558439065475726,-1,-1,2,-2,-5,-3,-2,-3
1558439065475726,-2,-1,3,3,-1,7,2,-2
1558439065475726,-2,-2,-3,-5,-1,-1,1,-2
1558439065476724,-2,0,-1,-5,-9,-18,-8,-1
1558439065476724,3,4,5,5,9,9,17,8
1558439065487704,0,4,3,1,-1,-7,-7,-3
1558439065487704,-2,-4,3,-2,-3,11,3,0
1558439065495673,-2,-3,-4,-2,10,7,1,-4
1558439065495673,0,-1,0,3,-3,-6,1,1
1558439065503652,1,-3,3,0,1,0,-7,-2
1558439065503652,0,0,-7,-8,1,-1,1,-1
1558439065517614,4,2,-2,7,-8,-5,-5,-2
1558439065517614,-15,-9,-8,-18,-2,1,-4,-4
1558439065526590,-2,-2,-3,-4,1,1,6,0
1558439065526590,0,-2,-3,-3,-5,-8,-12,-2
1558439065540553,-2,-1,8,6,4,6,2,0
1558439065540553,5,3,2,-4,-5,-4,-4,-2
1558439065547534,0,-2,-5,-1,-6,-9,-3,-3
1558439065547534,-2,0,5,5,4,7,5,3
1558439065564489,1,-2,6,-4,4,2,3,3
1558439065564489,-1,-5,-16,-4,-9,-6,-8,-6
1558439065565486,-1,-2,0,1,1,2,-1,0
1558439065565486,0,1,6,10,5,-2,-2,-2
1558439065586430,-2,1,-3,-3,-3,0,-1,-1
1558439065586430,2,0,7,16,6,1,0,3
1558439065588424,-4,-7,-19,-25,-6,-4,-5,-3
1558439065588424,-1,-3,-2,-1,1,-1,2,-1
1558439065592414,-1,-1,-4,3,-2,0,-5,-5
1558439065592414,-2,-1,3,-1,2,0,0,0
1558439065615352,6,4,2,-2,2,0,-5,-2
1558439065615352,-2,2,5,-2,6,5,8,3
1558439065616350,-3,-3,-6,-7,-14,-1,-8,-6
1558439065616350,5,4,4,5,7,-5,3,2
1558439065631310,-9,-5,-9,-5,-4,3,0,-2
1558439065631310,0,-1,7,3,-1,8,0,-1
1558439065637295,-2,0,2,2,-1,-18,-6,0
1558439065637295,1,-3,-13,-18,-9,1,-2,-2
1558439065646270,1,3,3,5,-4,-11,-2,1
1558439065646270,0,2,8,13,10,9,-1,0
1558439065652254,-2,3,-4,-9,-3,3,0,-2
1558439065652254,0,-1,5,4,0,-5,-6,0
1558439065667214,0,1,-1,2,3,-4,8,1
1558439065667214,1,0,-6,-5,-16,-10,-6,-3
1558439065675194,-3,-3,3,11,10,0,-3,-2
1558439065675194,2,5,1,-8,1,3,2,0
1558439065684168,-6,-4,-6,-8,1,0,1,0
1558439065684168,1,-2,-10,-2,-3,-4,-1,0
1558439065697133,-1,-5,-2,-7,-9,-12,-4,-2
1558439065697133,-5,-1,-6,1,-10,-11,-14,-10
1558439065707108,5,0,12,25,15,23,9,3
1558439065707108,-2,0,-3,-22,-3,-4,-3,-1
1558439065713091,-2,-5,-16,-11,-2,-6,8,8
1558439065713091,-2,1,4,9,1,0,-10,-9
1558439065728051,-1,0,-2,-8,-11,-8,-3,-2
1558439065728051,-1,-1,-6,2,-2,0,-6,-5
1558439065735034,0,-1,6,3,3,4,3,0
1558439065735034,3,1,-1,-3,3,-4,10,5
1558439065744008,0,-2,10,25,1,-6,-10,-6
1558439065744008,4,3,3,-5,3,7,11,5
1558439065757971,-6,-6,-18,-20,-8,0,-3,-6
1558439065757971,1,0,10,12,2,8,-3,-2
1558439065766948,-3,0,-1,-5,1,3,7,4
1558439065766948,0,-3,-15,-5,-5,-11,-3,3
1558439065772932,6,5,10,11,2,-1,-3,-1
1558439065772932,-4,-4,-11,-18,-4,-1,-1,-2
1558439065787891,4,2,6,3,1,4,-4,-2
1558439065787891,-8,-7,-1,0,5,13,4,-3
1558439065794872,3,2,-11,-7,-5,-6,2,1
1558439065794872,-1,5,10,9,8,6,5,1
1558439065803849,3,3,-6,-6,-7,-11,-5,0
1558439065803849,-4,-9,-2,5,5,5,5,-2
1558439065817811,5,6,10,7,14,15,10,4
1558439065817811,-8,-8,-5,-7,-14,-6,-9,-8
1558439065826788,-2,-1,-7,-14,-8,-7,-5,-3
1558439065826788,1,2,-2,2,-8,-5,-1,-2
1558439065840752,1,-3,5,6,3,0,1,0
1558439065840752,4,-1,-1,9,11,0,1,3
1558439065847731,-4,-7,2,-6,-5,9,0,0
1558439065847731,0,0,-1,-3,7,-4,-4,1
1558439065863688,-1,-1,5,9,-3,-9,0,2
1558439065863688,-2,-2,-7,-9,-8,-9,-5,-4
1558439065865683,1,1,0,-2,4,11,4,1
1558439065865683,0,4,3,2,-8,-13,-11,-7
1558439065886628,-1,-1,-2,-4,-2,1,-7,-3
1558439065886628,-7,-3,3,4,3,7,2,1
1558439065893610,0,1,-1,1,2,-2,0,0
1558439065893610,-2,-2,0,2,-4,-12,-8,-4
1558439065893610,-5,1,-1,-3,-3,1,4,-2
1558439065893610,3,-3,1,2,8,11,7,2
1558439065907571,-11,-5,-19,-27,-15,-16,-6,-4
1558439065907571,1,0,5,-8,-9,1,-6,0
1558439065915550,-3,-3,4,7,-2,-2,-3,-4
1558439065915550,4,4,-11,-9,-4,5,0,1
1558439065938490,8,14,21,27,18,5,6,3
1558439065938490,0,-2,-2,-13,-5,-6,0,-1
1558439065939486,-11,-22,-18,-23,-11,2,-4,-3
1558439065939486,-2,-2,3,5,-8,-7,-3,-3
1558439065946468,-4,-4,-1,6,3,1,1,1
1558439065946468,-5,-1,-2,4,2,-11,-8,-4
1558439065952452,5,8,0,-1,5,-1,0,0
1558439065952452,2,-2,-4,-13,-9,-3,2,2
1558439065967412,-9,-11,-2,2,3,6,-7,-8
1558439065967412,1,4,7,8,1,-1,-1,-1
1558439065975389,6,9,-7,-12,-1,5,-2,0
1558439065975389,-8,-13,0,-1,-7,-14,-7,-2
1558439065984366,5,3,-1,-5,1,0,2,-1
1558439065984366,0,-4,-11,-21,5,12,6,-1
1558439065997331,-9,-4,-2,11,0,6,3,0
1558439065997331,8,15,13,6,8,-4,5,4
1558439066006310,-7,-6,4,8,-4,-5,-7,-5
1558439066006310,-2,2,-4,-5,-5,2,0,-1
1558439066013548,5,-2,-7,-11,-3,-1,1,0
1558439066013548,-9,-8,-13,-7,1,-1,-3,-2
1558439066027251,5,2,2,-9,-1,-5,-8,-4
1558439066027251,-4,-9,1,2,-1,-4,-5,-4
1558439066035231,-3,3,6,8,2,2,2,-4
1558439066035231,-2,-7,4,5,2,3,-2,-1
1558439066044205,-3,1,-16,-19,-10,-14,-8,-4
1558439066044205,1,5,-1,13,0,5,3,1
1558439066058168,3,0,11,1,8,8,4,2
1558439066058168,-1,0,-5,13,-5,-2,-5,-4
1558439066066155,0,3,-6,-13,-9,-10,0,2
1558439066066155,-4,-14,-10,-15,-7,0,-5,-6
1558439066081107,-6,-1,7,12,-2,-4,-5,-3
1558439066081107,2,1,-2,-5,-9,-16,3,1
1558439066096067,9,5,-1,-6,10,8,5,3
1558439066096067,1,4,-5,-5,-9,-3,-8,-2
1558439066096067,2,1,-2,-6,-11,-3,-6,-3
1558439066096067,0,4,3,5,12,2,0,3
1558439066104046,-6,-10,-2,5,-6,-6,3,0
1558439066104046,-8,-9,-3,1,0,1,0,0
1558439066118007,2,5,2,10,13,6,10,7
1558439066118007,0,2,2,-9,-9,0,-9,-8
1558439066126984,0,-5,-3,4,-2,-1,-1,0
1558439066126984,4,4,8,3,-1,-7,2,4
1558439066140950,1,-3,-20,-30,-12,-7,8,3
1558439066140950,-9,-6,7,21,10,5,-10,-8
1558439066147930,1,1,-7,-15,-4,2,-3,-1
1558439066147930,3,5,5,4,3,-4,6,5
1558439066154912,-1,4,0,3,-13,-2,-7,-2
1558439066154912,5,2,-3,-7,2,-3,4,1
1558439066163886,-9,-18,1,11,5,7,2,-4
1558439066163886,-4,-5,-13,-7,-1,0,-4,-2
1558439066177848,-3,1,2,12,-5,-3,-4,-4
1558439066177848,7,3,-6,-22,-7,5,4,-1
1558439066186824,-2,8,5,15,11,6,-3,1
1558439066186824,0,1,9,6,-3,-9,-3,-3
1558439066208767,-5,-7,6,3,7,-2,5,-1
1558439066208767,-3,-3,-11,-8,1,10,-2,-4
1558439066210760,4,2,1,3,-9,-15,-3,2
1558439066210760,-3,-1,-3,-5,-1,3,-2,-1
1558439066214750,3,6,4,2,2,-4,-6,-5
1558439066214750,-7,-5,-1,5,-5,-2,2,0
1558439066231704,5,3,6,-1,-2,-7,-3,-1
1558439066231704,1,2,-11,-3,-4,1,-3,-4
1558439066237688,-4,-7,7,3,13,16,3,-1
1558439066237688,-4,-7,-22,-26,-11,-13,8,5
1558439066253646,1,5,5,4,-1,-1,-6,-3
1558439066253646,-2,-5,0,-1,-4,-2,-8,-6
1558439066260627,4,4,-4,-3,-4,6,1,2
1558439066260627,-3,-3,5,8,7,-4,-1,-2
1558439066277584,-5,0,0,6,4,0,2,1
1558439066277584,1,3,0,-8,-1,1,5,1
1558439066277584,-4,-3,0,2,-2,-10,-6,-4
1558439066277584,-1,0,5,5,1,11,6,5
1558439066284563,3,2,-10,-11,-3,0,-3,-4
1558439066284563,-5,-1,2,1,9,2,1,0
1558439066297534,-10,-5,-8,-8,0,5,-5,-5
1558439066297534,-2,-5,1,-13,-13,-10,-17,-8
1558439066306503,0,-6,-3,2,1,10,14,6
1558439066306503,-1,2,4,9,3,-7,-3,-2
1558439066320474,0,1,-5,-11,-9,-13,-12,-5
1558439066320474,-8,-12,-1,-2,0,1,-3,-5
1558439066329446,-5,-3,0,-7,-6,3,-3,-1
1558439066329446,7,2,6,2,7,-3,11,7
1558439066335433,3,0,-4,2,-2,0,-3,-1
1558439066335433,8,7,4,7,3,1,0,1
1558439066350401,1,4,2,2,-7,-2,0,-1
1558439066350401,5,2,-5,-10,8,3,7,6
1558439066357371,-1,-9,-1,3,-3,-4,-4,-4
1558439066357371,2,3,4,5,5,-4,0,2
1558439066374324,-3,-5,8,11,-4,-2,-1,-3
1558439066374324,-2,3,-5,-5,-6,7,0,-2
1558439066380309,2,-1,-4,-7,-4,-12,5,4
1558439066380309,3,3,-4,-4,-3,-5,-13,-4
1558439066397262,1,5,9,5,3,2,4,1
1558439066397262,0,-3,-5,-4,-1,8,-2,-2
1558439066398259,1,2,5,2,0,7,0,0
1558439066398259,-1,2,2,5,0,-13,5,2
1558439066418222,-6,-6,-5,-1,4,8,-1,-2
1558439066418222,2,0,4,9,-2,-9,-3,-2
1558439066419207,-2,-3,-7,-10,2,-1,3,2
1558439066419207,0,1,-2,-1,-10,5,-5,-3
1558439066426184,1,1,-5,-6,-1,-1,-4,-2
1558439066426184,-7,-8,0,0,1,4,13,3
1558439066440148,-7,-6,-3,-10,-6,-5,-1,-4
1558439066440148,0,2,11,16,4,-4,-3,0
1558439066449126,2,4,-10,-17,-8,-10,-6,-3
1558439066449126,-4,-4,5,3,-3,1,-4,-3
1558439066463089,-2,0,4,5,-9,-6,-8,-4
1558439066463089,0,-2,0,-1,13,14,9,4
1558439066470074,3,0,-7,6,5,-10,6,5
1558439066470074,-5,-6,-12,-21,-12,-5,-12,-7
1558439066478055,-4,-3,6,2,-2,4,2,-1
1558439066478055,0,-3,-3,-3,-4,-3,-13,-9
1558439066487030,-4,1,2,4,15,9,1,5
1558439066487030,3,5,5,7,2,-9,-6,-7
1558439066500032,-2,-2,-9,-13,-19,-8,-15,-5
1558439066500032,-4,-7,0,3,5,14,6,1
1558439066508963,-6,-8,0,-2,-9,-24,-12,-7
1558439066508963,1,0,-3,7,11,17,9,5
1558439066523928,1,-1,0,-3,-2,-3,-3,0
1558439066523928,7,10,6,9,1,-8,4,3
1558439066530011,-6,-7,5,-3,0,11,3,-4
1558439066530011,-4,-1,-1,3,-8,-7,-4,-6
1558439066546876,2,2,10,13,13,7,9,4
1558439066546876,-6,-2,-24,-14,-7,-1,-7,-3
1558439066547884,4,1,5,-8,2,1,6,2
1558439066547884,-1,0,0,8,-4,-9,-6,1
1558439066559869,-2,-2,-7,-11,-6,-3,-2,0
1558439066559869,-3,-3,7,19,12,8,-1,-5
1558439066568817,2,5,7,7,4,14,5,-1
1558439066568817,1,0,-8,-18,-12,-7,-7,0
1558439066583763,-3,1,-2,4,3,-15,-5,-2
1558439066583763,0,0,-1,-10,-6,3,2,-1
1558439066590748,-1,-3,-5,5,-5,-3,-2,1
1558439066590748,2,0,4,-7,1,5,4,2
1558439066606703,1,-2,2,11,3,-4,-5,0
1558439066606703,-5,1,3,-7,0,-9,-3,-1
1558439066607700,0,-2,-8,-5,-13,2,1,-3
1558439066607700,0,0,10,15,6,-7,1,1
1558439066620664,3,4,6,10,6,8,1,-2
1558439066620664,-1,0,-7,-15,-8,-3,5,2
1558439066628644,-3,-3,-8,-8,-1,0,-6,-4
1558439066628644,-5,-4,-11,-10,-19,-17,-8,-7
1558439066643748,0,-1,8,12,21,15,5,1
1558439066643748,2,0,-3,2,-5,-3,3,3
1558439066650703,-1,1,2,7,4,-1,2,-1
1558439066650703,1,1,-7,-12,0,-3,2,0
1558439066666689,-7,-3,9,20,8,8,3,-2
1558439066666689,-1,-2,-13,-21,-3,1,-5,-3
1558439066668539,-1,-1,-21,-24,-23,-14,-9,-3
1558439066668539,-1,-3,5,10,12,8,-6,-5
1558439066680536,2,-1,-14,-9,-6,-3,6,1
1558439066680536,-1,2,1,-3,-7,-11,1,3
1558439066689482,-6,-9,4,-1,-1,-18,-3,-2
1558439066689482,1,1,5,18,10,11,4,0
1558439066703473,1,-2,-13,-29,-13,-1,-6,-3
1558439066703473,-5,-5,-5,-2,-4,-2,-3,-3
1558439066710425,3,7,3,7,3,7,0,-1
1558439066710425,0,-5,9,19,19,12,12,8
1558439066726381,-1,-1,-1,-2,-6,-10,-5,0
1558439066726381,0,-2,-5,-13,-13,-6,-7,-6
1558439066728376,0,-1,-10,2,18,23,14,4
1558439066728376,-3,0,6,4,4,-7,4,2
1558439066740343,2,4,-9,-21,-10,1,0,-1
1558439066740343,-2,-8,2,8,1,-2,2,-1
1558439066749319,1,1,-1,-5,-2,-4,-17,-6
1558439066749319,-1,0,-4,-1,-8,-5,-2,-3
1558439066763285,-1,2,3,5,14,4,7,6
1558439066763285,-1,2,1,-3,-10,-9,-10,-5
1558439066770699,0,0,8,7,7,1,8,3
1558439066770699,-3,-8,-10,-10,-6,-3,-6,-5
1558439066786223,0,-2,-7,0,-13,-9,-4,-3
1558439066786223,-1,1,-1,1,17,26,7,3
1558439066788243,-5,-3,-9,-11,-9,-13,-3,-2
1558439066788243,2,4,14,12,1,-9,0,1
1558439066800210,3,0,-6,-10,-3,4,-2,-1
1558439066800210,0,-3,4,9,0,-1,-1,1
1558439066809160,-3,-3,-1,-12,-9,-7,-1,1
1558439066809160,-1,5,4,1,-1,-2,0,1
1558439066823166,0,2,16,21,10,-2,0,0
1558439066823166,4,3,-10,-22,-5,-3,-4,-1
1558439066830433,0,3,-3,1,-1,-6,-6,-2
1558439066830433,-7,-14,-7,-7,-8,3,0,-5
1558439066847247,0,-1,-3,-9,-6,-7,-3,-1
1558439066847247,-3,0,4,9,2,4,3,0
1558439066848059,6,3,10,12,0,-2,-3,0
1558439066848059,-1,3,-13,-21,-15,-12,-7,-1
1558439066860314,1,-1,0,10,16,17,10,5
1558439066860314,1,0,12,22,9,0,3,3
1558439066869213,-7,-8,-4,-7,-5,-3,-5,0
1558439066869213,1,2,-3,-7,-1,-3,-2,-2
1558439066882965,-3,-3,-11,-9,-1,-2,0,0
1558439066882965,-3,1,-2,-6,-6,-5,-5,-3
1558439066889951,3,-1,0,7,5,8,0,-3
1558439066889951,1,1,1,9,12,4,4,2
1558439066906911,0,0,-2,-12,-13,-13,-2,0
1558439066906911,-4,-3,5,6,7,4,-3,-3
1558439066907898,-9,-8,-11,-6,-15,-2,-3,-8
1558439066907898,-2,-1,-6,-11,-1,2,0,1
1558439066920908,1,-1,2,-2,-1,-9,0,-1
1558439066920908,-2,-1,-1,0,0,-2,-1,0
1558439066929026,4,8,17,12,2,2,6,3
1558439066929026,-1,-2,-20,-9,-5,9,-12,-9
1558439066943808,-10,-12,8,8,6,1,-2,-2
1558439066943808,2,2,-3,-7,-3,-16,1,4
1558439066950815,-1,-2,-1,-1,6,10,-1,-1
1558439066950815,3,4,9,12,4,10,5,4
1558439066966955,5,4,4,12,-1,-3,-1,-2
1558439066966955,-5,-7,-2,-7,-6,-2,-7,-3
1558439066967738,1,-1,-8,-20,-8,-10,-3,0
1558439066967738,-3,-1,7,7,3,-4,-4,0
1558439066980779,1,-4,-7,-9,-7,2,-2,-3
1558439066980779,-3,-4,-12,-5,-8,-1,0,-3
1558439066989682,1,3,8,17,10,7,4,0
1558439066989682,0,2,8,4,1,1,4,1
1558439067003642,-3,-1,0,-5,-2,7,-1,-2
1558439067003642,4,4,-1,1,3,-2,11,8
1558439067010655,-8,-9,-5,-9,-3,-11,-5,-3
1558439067010655,-1,-4,-13,-14,-15,-8,-12,-4
1558439067026695,-2,0,2,1,-2,6,3,-2
1558439067026695,-1,2,0,12,17,10,8,2
1558439067027577,1,-1,3,3,0,-1,-4,-3
1558439067027577,4,3,-6,-5,3,9,9,1
1558439067040540,3,0,6,5,0,-9,-4,-2
1558439067040540,-13,-13,-6,-10,-13,-9,-5,-3
1558439067049517,1,3,5,14,8,6,6,2
1558439067049517,-2,-1,11,3,3,0,-5,-2
1558439067063870,-3,-11,-25,-36,-15,1,-4,-1
1558439067063870,-2,2,2,5,-5,-8,-9,-7
1558439067070852,1,-1,-5,-4,-6,-4,-3,-1
1558439067070852,3,4,12,12,5,-7,4,5
1558439067086421,-8,-3,3,8,4,1,-8,-6
1558439067086421,2,0,-4,-9,-6,2,2,-2
1558439067088642,3,1,2,0,2,-12,1,5
1558439067088642,-1,0,-2,0,-1,6,-2,-4
1558439067100731,-5,-2,-15,-15,-8,-3,0,-1
1558439067100731,3,3,10,12,7,1,-1,1
1558439067109360,-1,0,-3,-4,-2,-4,-2,1
1558439067109360,1,-3,-4,-13,-6,0,0,-1
1558439067123351,-12,-8,6,6,0,-8,-1,-2
1558439067123351,-2,-2,-3,-1,-2,-2,-2,-3
1558439067130332,-1,-1,3,2,7,10,4,3
1558439067130332,0,-1,1,-1,-6,-10,5,5
1558439067146290,2,4,-1,-2,1,3,-11,-10
1558439067146290,4,1,4,7,1,12,2,0
1558439067148255,-4,-2,1,0,4,1,3,-1
1558439067148255,-6,-5,-12,-17,-11,-4,-1,-5
1558439067160224,4,4,10,9,4,-9,3,5
1558439067160224,-9,-8,-11,-14,-14,-12,-11,-4
1558439067169200,3,0,-2,-8,-5,4,-8,-7
1558439067169200,-4,-5,2,5,4,6,2,-2
1558439067183389,3,5,4,10,10,0,9,5
1558439067183389,4,1,6,-1,4,0,1,0
1558439067190144,0,-2,-4,-5,-2,-4,-5,-2
1558439067190144,1,3,-8,-3,-15,-9,-14,-7
1558439067206362,-9,-8,0,-11,-2,0,-5,-2
1558439067206362,-3,-9,-17,0,13,6,11,3
1558439067208095,-6,-2,-11,-13,-15,-6,1,-1
1558439067208095,3,2,10,15,6,6,-1,1
1558439067229291,2,2,-1,3,-8,-2,-9,-2
1558439067229291,3,5,2,-6,-2,1,-5,-3
1558439067230036,-6,-7,-9,-5,-3,-9,0,-1
1558439067230036,-6,-4,7,6,3,-6,0,0
1558439067244029,6,3,4,10,3,4,7,2
1558439067244029,-2,0,-1,-8,-4,-2,-5,-3
1558439067249981,-2,0,-5,-5,-1,0,-2,-2
1558439067249981,-3,-3,-7,-6,0,-6,-1,1
1558439067273915,1,-1,4,8,3,11,4,1
1558439067273915,-3,-2,-4,3,-3,-4,-2,-2
1558439067275911,2,0,4,1,-2,1,-2,-2
1558439067275911,-1,-2,-5,-3,-8,0,-7,-4
1558439067279939,-1,0,10,10,9,-6,-2,1
1558439067279939,3,5,1,-12,9,3,7,6
1558439067288875,-1,-3,3,6,1,11,4,-2
1558439067288875,-2,-5,-9,-17,-1,3,8,2
1558439067303835,-5,-2,-6,1,-6,0,-11,-8
1558439067303835,0,1,3,-2,-11,-6,-9,-3
1558439067309819,1,6,4,6,6,-5,9,7
1558439067309819,-1,-4,8,7,6,-2,-1,-2
1558439067326252,0,-1,1,1,7,8,2,3
1558439067326252,-3,-2,1,-4,-8,-8,-4,-2
1558439067340738,0,-3,-11,-7,-11,4,-10,-8
1558439067340738,3,9,10,18,15,12,8,2
1558439067341735,-1,-2,-9,-22,-10,-17,3,3
1558439067341735,-4,-4,-10,-1,-7,-1,-8,-7
1558439067349151,1,-1,-2,2,3,5,2,2
1558439067349151,-2,-1,-1,-5,-2,-9,-5,1
1558439067363677,-2,-1,5,17,3,-6,3,0
1558439067363677,1,1,10,0,7,9,4,2
1558439067371101,-4,-2,5,3,-1,-5,-11,-2
1558439067371101,-4,1,-8,-9,-10,-4,1,-6
1558439067386776,0,-6,-4,-5,-5,2,-4,-6
1558439067386776,-5,-5,-4,3,1,-5,1,-1
1558439067392998,-1,2,-1,-13,4,6,6,0
1558439067392998,4,1,1,-3,4,3,1,1
1558439067400954,-4,-2,-11,-13,-14,-15,-2,0
1558439067400954,0,0,4,9,9,11,-3,-2
1558439067409554,-4,-4,5,11,-2,-4,-3,-2
1558439067409554,1,3,-4,-9,-3,0,-3,-3
1558439067423519,0,-7,-9,-5,-6,3,-2,-2
1558439067423519,4,1,6,11,2,-3,6,1
1558439067430793,-2,1,-3,-1,-5,-9,-4,1
1558439067430793,-3,0,6,10,6,0,0,0
1558439067446719,0,1,-1,-3,6,8,2,-1
1558439067446719,0,0,-6,-16,-7,1,2,2
1558439067452774,3,1,-3,-2,-6,-7,3,-2
1558439067452774,-5,-7,1,4,1,0,-1,-2
1558439067460721,-3,0,5,12,-2,-9,-9,-4
1558439067460721,0,0,-14,-21,0,2,3,1
1558439067469395,-2,-1,-6,-9,0,3,3,0
1558439067469395,-1,0,-2,1,-5,-4,-3,-3
1558439067483358,0,2,2,4,5,2,4,2
1558439067483358,-4,0,8,10,-2,-1,-2,-4
1558439067490339,-1,-2,0,2,-3,-1,-9,-5
1558439067490339,0,-3,5,3,6,9,5,3
1558439067506428,4,5,-2,-6,5,-3,9,8
1558439067506428,-4,-9,-35,-41,-19,-13,1,-2
1558439067513399,-3,-3,-4,0,-7,-5,-7,-3
1558439067513399,-5,-5,0,0,-2,-3,-5,-2
1558439067529232,3,3,7,4,2,5,-2,-4
1558439067529232,0,1,10,16,1,-3,-1,3
1558439067530233,0,0,1,4,13,7,6,3
1558439067530233,2,-1,-3,-4,-8,-4,-3,-2
1558439067543535,-2,2,-6,-17,-7,-2,-2,-4
1558439067543535,4,1,10,13,6,2,0,-2
1558439067558217,-2,-2,-5,-8,-5,-4,-2,-1
1558439067558217,1,2,3,-3,-5,-14,-8,0
1558439067566175,-11,-14,-16,-7,-4,7,1,-3
1558439067566175,-1,-3,-3,0,-3,-1,-4,-4
1558439067573121,-2,-2,2,0,-2,-10,-9,-5
1558439067573121,-1,-2,1,5,-3,-1,5,0
1558439067597222,3,7,6,4,8,1,-1,3
1558439067597222,1,3,6,3,4,1,-5,2
1558439067598052,1,1,3,9,7,8,1,-1
1558439067598052,-2,-2,0,4,5,-2,-1,-1
1558439067604092,0,-4,-15,-25,-16,-2,-5,-5
1558439067604092,-2,2,4,-4,-1,1,-1,-2
1558439067618293,0,-2,-13,-11,-3,-6,7,1
1558439067618293,-1,-5,-2,-3,-1,-6,-1,-1
1558439067626005,-5,-4,6,9,-4,-2,-6,-4
1558439067626005,4,4,2,9,6,-4,-2,-1
1558439067633270,2,0,3,4,8,3,6,4
1558439067633270,-4,-4,-13,-12,-4,-1,-2,-3
1558439067649229,1,2,5,3,-4,-1,0,1
1558439067649229,-4,-2,0,3,-4,-3,-4,-2
1558439067650911,-2,-3,-6,-9,-8,-8,-9,-4
1558439067650911,-1,-2,-1,-5,-1,-7,-3,-1
1558439067662876,-1,0,-3,-1,0,2,-3,-2
1558439067662876,1,1,-3,-2,2,1,6,-2
1558439067671024,-3,-3,2,4,-2,0,-1,-2
1558439067671024,2,-2,4,6,3,7,4,2
1558439067686160,-4,-2,-9,-14,-10,-5,-6,-3
1558439067686160,-2,0,10,7,3,4,0,1
1558439067693116,2,-1,-3,-13,-12,-12,-2,0
1558439067693116,-3,1,-6,-5,-5,2,-1,-3
1558439067709779,0,-1,13,18,17,8,4,2
1558439067709779,-4,-2,-3,-8,-4,0,-5,-4
1558439067710751,-1,2,4,-2,-2,-4,-1,-1
1558439067710751,0,-1,-7,-6,-2,-2,3,1
1558439067723713,3,-1,2,3,5,4,4,4
1558439067723713,-1,-2,-1,-1,1,-8,-8,-4
1558439067730873,-5,-5,0,3,-13,-2,-2,-4
1558439067730873,3,4,9,10,5,4,-5,0
1558439067745979,3,0,-16,-15,1,-1,9,2
1558439067745979,-10,-8,4,7,-5,-5,-3,-2
1558439067752959,0,1,-2,-2,0,5,-4,-3
1558439067752959,-8,-3,8,13,4,6,-2,-5
1558439067769802,4,4,5,2,0,-5,1,0
1558439067769802,-3,-5,-16,-17,-9,-5,-2,-2
1558439067770589,-2,-5,-2,2,3,-4,0,-1
1558439067770589,0,-3,-11,-15,-8,5,0,-1
1558439067783554,0,3,11,13,6,-3,-2,-1
1558439067783554,-1,-2,4,3,2,13,4,1
1558439067790537,-3,-3,1,-2,2,-4,2,0
1558439067790537,1,1,9,10,-1,-11,-5,-1
1558439067805783,1,1,-2,-4,-6,0,0,1
1558439067805783,0,2,-9,-11,-3,4,9,0
1558439067812516,-5,-5,0,2,-3,3,-10,-5
1558439067812516,-1,-4,-11,-15,-1,1,3,1
1558439067829430,2,1,2,6,2,-9,-1,2
1558439067829430,-2,1,5,10,11,9,5,3
1558439067830427,2,3,-1,3,1,3,1,-2
1558439067830427,-1,-7,-8,-18,-9,-8,-6,-5
1558439067843396,-7,-3,-4,-5,-13,-5,-10,-6
1558439067843396,1,1,7,11,9,1,6,4
1558439067850374,2,4,6,4,12,3,11,7
1558439067850374,2,4,2,10,1,-5,-5,-2
1558439067866698,-1,-4,-20,-23,-14,-5,-11,-7
1558439067866698,-6,-8,0,-10,-14,-7,-7,-3
1558439067872683,-7,-5,-14,-11,-1,4,-1,-2
1558439067872683,1,4,4,5,13,13,13,8
1558439067896391,-1,0,10,8,-1,-2,-3,-3
1558439067896391,6,4,4,8,10,5,5,2
1558439067898249,2,0,1,-2,-2,1,1,0
1558439067898249,-2,-1,-1,1,-1,-7,0,1
1558439067903591,1,4,12,7,10,3,2,-1
1558439067903591,-6,-8,-29,-31,-20,-1,-9,-7
1558439067918392,-4,-9,-10,-18,-14,-12,-10,-5
1558439067918392,2,6,-1,0,0,1,5,2
1558439067926489,-6,-7,-1,-3,-4,-2,0,2
1558439067926489,6,3,6,13,4,-6,-1,3
1558439067940136,3,4,6,7,8,5,5,3
1558439067940136,-5,-2,-3,-5,-17,-11,-14,-7
1558439067949386,4,4,-1,-3,3,3,-2,-2
1558439067949386,2,1,4,7,12,7,7,4
1558439067951137,-3,-4,3,9,4,0,-2,0
1558439067951137,-5,-6,-8,-8,2,8,2,-2
1558439067963103,-1,-2,-3,0,-2,-3,0,-1
1558439067963103,2,1,-9,-3,-16,-9,-9,-5
1558439067970337,-1,1,1,-1,-8,-9,-7,-4
1558439067970337,-9,-8,-3,2,4,4,6,0
1558439067986293,0,-1,1,5,5,4,3,1
1558439067986293,0,0,10,10,7,-2,2,1
1558439067993281,0,-1,-1,-6,-5,2,3,0
1558439067993281,0,-4,-15,-16,-10,-10,-5,-2
1558439068009224,-5,-4,-6,-1,-6,-4,-6,-5
1558439068009224,-2,-2,8,11,5,2,-2,-2
1558439068010944,1,2,2,0,-4,-4,0,0
1558439068010944,-1,-1,0,-2,-5,-12,-6,0
1558439068022955,-2,1,2,8,3,2,2,-1
1558439068022955,2,2,9,4,5,2,4,6
1558439068039136,1,1,-2,-3,-2,-2,-3,-3
1558439068039136,-5,-2,0,2,-3,4,0,-2
1558439068045852,-6,-12,-10,-11,-9,0,-5,-4
1558439068045852,1,1,2,-2,-3,-13,-1,0
1558439068060896,3,3,2,3,10,5,9,3
1558439068060896,2,1,4,-4,0,2,-2,-2
1558439068069946,3,2,-3,3,-4,3,-2,-1
1558439068069946,-6,-6,-7,-8,-4,-9,-3,-5
1558439068071271,4,-2,-1,-3,1,-4,0,1
1558439068071271,-2,-1,-6,-9,-3,5,-4,-4
1558439068082971,-6,-6,-2,-2,-8,-10,-3,-2
1558439068082971,2,3,-4,-10,2,3,2,0
1558439068091730,-3,-4,-11,-7,-2,3,-2,-1
1558439068091730,3,2,12,12,3,-6,-1,-1
1558439068106167,1,0,-3,-9,0,-3,1,2
1558439068106167,-6,-4,-8,1,-13,-10,-11,-9
1558439068113110,1,-2,9,19,19,15,6,4
1558439068113110,-3,-4,-3,-7,-7,2,1,0
1558439068128936,3,3,1,-1,4,-7,3,4
1558439068128936,-1,-3,-4,-6,-6,-1,-4,-3
1558439068130625,1,4,4,5,-6,-4,-7,-6
1558439068130625,-8,-8,-13,-17,-1,-1,2,-1
1558439068142852,-5,-7,5,7,7,3,4,1
1558439068142852,0,0,-1,5,-3,1,0,-2
1558439068151630,1,-3,-8,-19,-3,4,-2,2
1558439068151630,4,5,13,19,-2,-15,-6,-2
1558439068174509,-3,1,-8,-12,0,5,-1,-3
1558439068174509,-1,-1,-13,-12,-2,8,1,0
1558439068175509,0,-2,1,11,-6,-19,-5,-2
1558439068175509,2,-1,-3,-3,1,0,-1,0
1558439068196451,-1,-2,5,6,6,4,2,2
1558439068196451,1,1,-1,-1,-6,-5,-7,-1
1558439068198444,2,-1,-1,-1,-2,6,1,-3
1558439068198444,-2,-1,1,5,7,-6,2,2
1558439068202699,2,4,-1,0,-5,-6,-2,-3
1558439068202699,-4,-7,-4,-7,1,2,2,-1
1558439068219389,-2,2,1,-4,-12,-2,-6,-4
1558439068219389,-3,-2,2,4,0,1,1,-1
1558439068226623,1,-1,-2,0,12,17,6,1
1558439068226623,2,5,5,7,6,1,0,1
1558439068232623,-2,-1,-2,-2,-2,-3,1,-2
1558439068232623,3,-1,-7,-7,-3,4,2,-1
1558439068248579,-5,-6,-9,-12,-9,-10,-4,-1
1558439068248579,2,2,4,1,0,-10,2,0
1558439068255290,-4,-4,1,-1,-2,-1,-5,-1
1558439068255290,1,1,7,9,5,7,-4,-3
1558439068262272,-5,-2,-12,-6,-6,4,0,-1
1558439068262272,-4,-5,3,2,3,-3,1,0
1558439068271250,1,6,0,3,0,3,3,0
1558439068271250,2,0,1,0,-1,1,-5,-1
1558439068286207,-6,-6,-4,-4,-2,-8,2,0
1558439068286207,0,1,0,-2,-6,-4,-4,0
1558439068292191,-3,-1,2,5,8,12,7,3
1558439068292191,0,0,-1,2,-2,4,-2,-3
1558439068309295,3,4,7,6,0,-11,-5,-2
1558439068309295,0,-2,1,1,-1,4,2,1
1558439068315597,-2,-4,0,-5,5,2,-1,-1
1558439068315597,-5,-3,-15,-11,-13,-11,-2,-1
1558439068322113,2,2,2,-3,1,4,1,0
1558439068322113,-4,-2,3,12,-1,0,-2,-1
1558439068339067,-2,-2,-10,-15,-10,-10,-10,-4
1558439068339067,-2,-2,4,5,8,3,3,4
1558439068346047,2,3,12,8,4,1,0,0
1558439068346047,0,1,-11,-5,-4,4,2,-1
1558439068360045,-7,-5,-9,-13,-9,-9,1,-1
1558439068360045,-2,-2,-10,-9,-3,-2,-9,-3
1558439068367989,-1,-4,11,15,6,12,6,2
1558439068367989,1,2,2,-6,4,-5,2,1
1558439068384226,-12,-9,-6,-3,-9,-10,-7,-6
1558439068384226,1,2,-1,0,-5,4,1,-2
1558439068384226,1,4,2,-2,4,4,0,0
1558439068384226,0,-2,-3,-3,-2,-4,-3,0
1558439068391960,0,-7,-4,3,-2,-1,-1,-2
1558439068391960,1,0,1,-3,2,-4,0,0
1558439068406344,-2,-1,-2,-3,-9,-10,-7,-4
1558439068406344,-4,-2,4,4,1,9,-2,-2
1558439068412870,6,9,6,-1,8,8,4,1
1558439068412870,1,-2,0,-1,-2,-15,-2,2
1558439068429316,-1,-2,-6,-6,-4,3,2,1
1558439068429316,-3,-4,-11,-3,-8,-2,-9,-9
1558439068435996,-2,-9,1,4,-4,-3,-2,-3
1558439068435996,0,1,1,1,10,12,10,3
1558439068451767,3,4,4,2,5,2,3,4
1558439068451767,0,2,-2,-7,1,-3,-3,0
1558439068452762,0,3,6,14,3,8,-1,0
1558439068452762,-10,-5,-11,-12,-2,-7,1,-2
1558439068466166,-1,-3,-11,-12,-12,-10,-9,-7
1558439068466166,0,-2,8,7,11,14,7,1
1558439068472710,3,3,-1,-2,10,6,5,3
1558439068472710,2,0,5,9,-9,-9,-2,-1
1558439068489168,-3,-4,-2,-4,-4,-6,-6,-3
1558439068489168,-2,1,-6,-13,-8,-5,-4,-2
1558439068496139,2,5,6,7,7,-7,-3,3
1558439068496139,-7,-9,-5,-5,-4,12,3,-5
1558439068519943,-1,-2,-3,-2,0,8,4,-1
1558439068519943,1,0,7,13,3,-11,1,1
1558439068520582,1,2,2,-18,2,10,5,1
1558439068520582,5,0,-3,0,-3,-8,0,0
1558439068526779,-5,-7,-3,0,-5,-5,-7,-5
1558439068526779,-1,-2,1,-1,-4,-8,-5,-2
1558439068533013,-5,-2,6,10,2,8,6,-2
1558439068533013,5,8,-4,-9,-2,5,-3,0
1558439068548969,3,0,-1,3,-1,-1,-1,1
1558439068548969,-11,-7,1,-1,3,-2,3,1
1558439068555963,1,0,-4,3,-2,-5,-6,-4
1558439068555963,2,2,7,6,0,1,-2,-2
1558439068571480,-2,0,-6,-7,1,0,-1,-2
1558439068571480,-1,-5,-10,-8,-11,-4,-4,-3
1558439068572445,-3,-3,-3,-3,-5,-5,-3,1
1558439068572445,-5,-2,2,2,-2,-8,-6,-1
1558439068586662,2,2,6,7,6,2,2,0
1558439068586662,2,-1,5,4,0,12,-1,-2
1558439068592842,-1,-1,-1,8,2,-3,-2,-1
1558439068592842,-1,-1,-6,-15,-2,-2,2,0
1558439068608760,-1,0,3,1,-8,-9,-6,-1
1558439068608760,-1,-1,-2,-1,2,1,1,-3
1558439068615750,0,0,2,-3,-2,-6,0,-1
1558439068615750,-1,-1,-3,3,5,6,1,0
1558439068631643,0,4,2,-4,3,0,1,-1
1558439068631643,1,-3,-6,-6,-3,-5,-3,0
1558439068638356,-1,-6,7,9,3,-3,0,-2
1558439068638356,-4,-1,-5,-6,-8,-8,-5,-7
1558439068646448,0,-5,-4,1,1,9,3,-1
1558439068646448,2,5,5,5,7,-1,1,1
1558439068653473,1,0,-3,-7,-3,-1,1,1
1558439068653473,0,-1,8,9,3,2,-4,1
1558439068669184,-4,-3,-7,-8,-12,-16,-7,-2
1558439068669184,1,2,0,-6,-3,-1,2,0
1558439068675168,-1,-2,-5,-2,3,4,1,2
1558439068675168,-1,-1,1,5,0,-11,-5,-2
1558439068692293,-1,1,-7,-15,0,0,-1,-1
1558439068692293,-1,2,8,8,2,7,3,-1
1558439068693122,-4,-6,-15,-12,-12,-7,-6,-7
1558439068693122,6,3,-1,0,3,3,-1,-1
1558439068706270,-10,-8,1,7,-1,-5,1,-1
1558439068706270,-1,-2,-15,-17,-7,-11,-5,-5
1558439068713069,-2,-1,-2,3,-8,-4,-3,-1
1558439068713069,-1,-1,4,2,8,7,3,0
1558439068728348,-1,3,1,4,2,-3,4,2
1558439068728348,-3,-4,-4,0,-5,-1,-4,-2
1558439068735335,-4,2,-5,-8,-14,-11,-11,-6
1558439068735335,-1,-1,12,17,25,19,9,6
1558439068752200,-4,-4,-16,-14,-9,-6,1,-3
1558439068752200,5,4,4,2,4,5,4,3
1558439068752963,0,-1,-2,-2,2,-2,2,-1
1558439068752963,-4,-5,-6,-5,-15,0,-6,-5
1558439068766216,1,-3,10,10,2,-6,-8,1
1558439068766216,-2,-4,1,0,2,-4,-1,0
1558439068772937,-1,2,-16,-9,-2,2,-2,-1
1558439068772937,-1,1,-8,-20,-8,-12,-3,-4
1558439068789128,1,3,6,7,-2,3,3,2
1558439068789128,-3,0,-4,-3,-10,-12,-10,-5
1558439068795116,2,-1,12,15,16,14,4,2
1558439068795116,-1,-3,-1,-1,-3,-5,-1,-1
1558439068812062,3,2,-4,-10,-7,-1,2,-2
1558439068812062,-3,-4,3,4,0,3,0,-2
1558439068812801,-1,-1,5,4,0,1,2,-1
1558439068812801,3,-3,-9,-9,-6,1,-4,-2
1558439068825974,-4,-5,3,3,4,5,3,0
1558439068825974,4,4,7,9,10,3,5,2
1558439068832988,-3,-2,-11,-18,-10,-12,-4,-2
1558439068832988,-1,1,-2,4,-1,4,1,1
1558439068848704,-1,1,9,9,3,-2,-5,-1
1558439068848704,-2,-3,-18,-19,-12,-1,-5,-2
1558439068855868,0,-5,0,3,6,1,0,3
1558439068855868,-12,-6,0,0,-5,-4,-3,-4
1558439068871645,-2,-2,-2,0,2,8,2,-4
1558439068871645,0,5,12,18,7,-4,-2,1
1558439068872643,1,-4,-7,-19,-10,-10,1,-2
1558439068872643,-4,-6,-14,-13,-6,2,-6,-4
1558439068886080,0,-2,-3,-9,-2,2,-2,-2
1558439068886080,0,-1,-3,-4,4,-8,2,3
1558439068893029,1,5,8,10,1,5,-1,-2
1558439068893029,1,1,-4,-14,-2,0,2,0
1558439068909002,-4,-3,-4,-1,0,2,-2,-2
1558439068909002,2,2,9,5,1,3,2,0
1558439068915985,-2,-3,-12,-7,-3,-9,-7,-1
1558439068915985,-2,-1,3,3,-3,-3,3,-1
1558439068931843,3,4,0,2,4,3,0,-1
1558439068931843,-5,-4,1,-3,-4,0,1,0
1558439068933737,-3,-2,7,12,-1,0,-3,-3
1558439068933737,6,4,1,-16,-6,-4,1,3
1558439068945820,-11,-10,-4,1,-3,-6,-7,-5
1558439068945820,-1,-1,-3,-7,-2,6,1,-3
1558439068954422,3,2,2,-1,-6,-7,-2,-2
1558439068954422,2,-5,-8,-2,-2,-3,-4,0
1558439068968755,2,2,4,4,3,-2,1,0
1558439068968755,-2,-2,1,-4,-1,6,-1,-4
1558439068975749,-6,-3,-2,0,-4,4,-4,-4
1558439068975749,0,1,0,12,-2,-17,-2,0
1558439068992356,4,3,1,-8,16,17,12,6
1558439068992356,0,-3,-5,3,-10,-2,-8,-3
1558439068993320,-3,2,-5,-18,-2,5,8,0
1558439068993320,-1,1,14,14,6,-6,1,0
1558439069005622,-2,-6,-6,-1,-7,-3,-5,-4
1558439069005622,-1,-3,-7,-3,-1,-10,-2,-1
1558439069014263,0,-3,-2,-4,-2,-5,-1,2
1558439069014263,0,1,2,2,8,11,1,-1
1558439069028508,-8,-5,-2,-2,-4,-1,-7,-5
1558439069028508,1,5,1,1,-1,-1,-2,2
1558439069035509,-1,-3,6,10,8,1,4,3
1558439069035509,-1,-3,-10,-13,-10,-3,-9,-5
1558439069051165,5,6,4,5,-2,0,3,1
1558439069051165,-2,-5,-10,-8,-5,-10,-3,-3
1558439069053159,0,2,5,10,4,-1,-4,1
1558439069053159,1,1,2,-1,0,1,-1,-2
1558439069065127,-6,-4,-7,-10,-10,-2,-6,-5
1558439069065127,2,-3,3,4,4,7,7,4
1558439069074103,-2,-2,-5,-2,-1,-8,-6,-2
1558439069074103,-3,-3,2,6,-4,0,-4,-2
1558439069089267,1,0,2,0,-2,2,1,0
1558439069089267,-2,-2,-4,3,-3,-10,-2,-3
1558439069095403,1,4,12,2,12,12,10,5
1558439069095403,-6,-2,5,10,5,-2,-1,-1
1558439069112316,0,1,-12,-15,-8,-10,-5,-3
1558439069112316,-1,-1,2,-10,-6,-2,-3,-3
1558439069112998,0,-4,-11,-4,-10,5,2,-2
1558439069112998,-1,-2,-3,1,1,3,3,-1
1558439069125291,2,-2,8,11,2,-5,0,4
1558439069125291,0,2,2,3,11,14,8,3
1558439069134095,-2,-2,-2,3,0,-6,-7,-5
1558439069134095,-1,2,-13,-21,-13,-11,-5,-4
1558439069149159,-1,1,8,8,12,11,5,3
1558439069149159,-1,-5,1,10,2,11,0,-4
1558439069155915,-4,-2,-7,-12,3,-4,4,2
1558439069155915,-2,-2,-6,-9,-4,-1,-5,0
1558439069171195,1,6,0,-3,-9,-6,-3,-2
1558439069171195,-4,-7,-1,-3,-3,2,-8,-3
1558439069178112,1,0,5,12,10,4,11,4
1558439069178112,3,2,5,6,2,-2,-1,1
1558439069194043,-3,-1,0,3,-2,-13,0,0
1558439069194043,-4,-3,-16,-15,-9,-10,-6,-4
1558439069195807,1,-1,-4,-10,-8,-4,-9,-3
1558439069195807,1,0,4,3,4,-5,1,-2
1558439069217004,3,-2,-9,-2,1,7,-1,0
1558439069217004,2,4,-1,-3,-3,-8,-3,0
1558439069217725,0,-4,-4,-4,-3,12,2,0
1558439069217725,-3,-2,-1,5,9,14,6,2
1558439069238934,3,1,4,2,1,-6,3,1
1558439069238934,-7,-2,4,8,0,-3,0,-2
1558439069240657,0,3,0,-4,-4,-8,-6,-4
1558439069240657,1,-1,-8,0,-6,0,1,1
1558439069245913,-1,-2,-3,-8,-4,-3,-3,-3
1558439069245913,0,-2,-6,1,6,1,3,2
1558439069261632,-1,0,-5,-15,-17,-11,-13,-8
1558439069261632,0,-1,-7,1,2,9,7,3
1558439069268582,-7,-9,-6,-10,-4,-13,0,-2
1558439069268582,3,6,6,2,0,1,-2,-1
1558439069282794,-1,-5,1,5,1,8,-1,-1
1558439069282794,-2,-3,1,5,1,-2,-5,-3
1558439069290523,0,3,-5,-5,-2,-7,1,0
1558439069290523,-3,-3,4,-3,-2,-2,2,0
1558439069297559,-2,0,-11,-9,-10,-7,-5,-7
1558439069297559,2,1,4,0,-5,-2,2,2
1558439069305888,5,4,7,11,10,18,1,0
1558439069305888,-3,-2,-6,-1,-1,-8,0,-2
1558439069313838,-1,-3,2,-8,-4,-6,-2,1
1558439069313838,-1,-1,2,2,2,-4,-3,-1
1558439069328917,-1,-2,4,9,-5,2,-4,-3
1558439069328917,0,-4,-13,-14,-7,2,1,-1
1558439069335788,0,4,7,6,7,4,6,2
1558439069335788,0,2,3,-2,-7,-5,-3,-4
1558439069350997,-14,-11,0,14,7,1,-2,-1
1558439069350997,1,-2,-4,-12,-6,-2,-4,0
1558439069357750,-3,-4,-1,5,-1,-3,-2,0
1558439069357750,-1,0,-1,1,1,-2,2,-1
1558439069373676,5,4,5,-3,3,2,1,1
1558439069373676,-2,-7,-8,-3,-1,1,3,-1
1558439069375673,-3,-7,-1,0,-7,-5,-6,-1
1558439069375673,-5,-3,-1,1,-1,6,-3,-3
1558439069388635,1,7,9,5,2,-7,3,3
1558439069388635,-1,2,-7,-2,5,1,1,0
1558439069394617,-1,1,1,-1,1,-2,0,0
1558439069394617,-2,-2,1,-2,-6,-4,-7,-2
1558439069410574,1,0,-10,-8,-2,0,-5,-4
1558439069410574,-6,-1,11,8,0,2,-2,-1
1558439069417555,0,0,-5,4,4,-2,2,0
1558439069417555,0,-2,-3,-13,0,0,-1,-1
1558439069441492,-3,-7,-7,-6,-8,-4,-3,-1
1558439069441492,1,0,2,-3,-4,-6,-2,-1
1558439069449938,-2,1,-3,2,-2,1,-3,-1
1558439069449938,-2,0,4,1,1,-1,1,1
1558439069449938,5,3,-1,-4,4,1,-1,3
1558439069449938,0,0,-7,-5,-5,0,0,2
1558439069455916,4,1,9,11,3,-4,1,0
1558439069455916,-6,-5,-9,-8,-4,-2,-3,-5
1558439069470414,-5,-8,-2,-6,-13,-5,-9,-5
1558439069470414,-1,1,4,7,7,6,8,2
1558439069477396,4,6,-4,-2,2,-6,0,4
1558439069477396,2,2,-1,-5,0,-1,-2,-3
1558439069494858,-9,-8,-7,-3,4,14,7,-2
1558439069494858,-1,0,5,7,-1,1,-2,-2
1558439069495350,-4,-4,-7,-7,-6,1,-2,-4
1558439069495350,-1,0,4,4,5,0,2,1
1558439069508757,1,0,-1,1,-8,-18,-6,-3
1558439069508757,3,1,4,1,5,4,4,1
1558439069515775,-5,-4,-1,-1,-1,0,-2,-1
1558439069515775,-1,-4,-12,-12,-9,-1,-6,-4
1558439069531649,-3,1,1,5,-4,-4,-1,-1
1558439069531649,-1,1,1,0,1,0,-1,1
1558439069538469,1,2,-1,2,1,-1,-2,-3
1558439069538469,1,-3,2,-2,-5,-6,-1,0
1558439069554552,1,-2,0,-1,7,9,4,0
1558439069554552,-1,-3,-4,-2,-3,-11,-5,-1
1558439069556190,-5,-3,5,8,6,5,2,0
1558439069556190,0,2,-3,-5,-4,-6,-4,-1
1558439069569188,3,1,1,2,-5,-6,-7,-4
1558439069569188,0,3,4,5,18,15,10,5
1558439069575135,-1,-1,-17,-19,-10,-10,-3,-2
1558439069575135,0,-2,1,7,-3,-6,2,1
1558439069591092,-2,-5,-8,-14,-5,8,-3,-4
1558439069591092,1,1,2,3,-4,2,-1,-2
1558439069605428,0,3,8,10,5,-9,3,3
1558439069605428,-2,1,-3,-14,-10,-13,-1,0
1558439069614353,1,0,-7,-6,-4,-1,-8,-3
1558439069614353,-3,-2,3,3,-1,4,-1,-2
1558439069616117,-1,-1,6,2,8,13,6,1
1558439069616117,-4,0,-2,2,1,-6,-4,-2
1558439069629155,3,-1,0,0,-4,-4,1,2
1558439069629155,-4,-3,-1,-5,-2,1,-4,-3
1558439069635327,3,5,15,15,-1,-7,2,1
1558439069635327,-2,-9,-16,-22,-4,10,0,-1
1558439069651241,-3,-4,-6,-1,-6,-6,-1,-2
1558439069651241,2,4,5,3,0,-8,-8,-4
1558439069657916,-3,-3,-6,-4,5,11,4,-1
1558439069657916,0,3,3,2,2,-3,0,2
1558439069673871,1,2,4,3,-3,-6,-4,0
1558439069673871,-2,-1,-2,-3,-9,-17,-10,-4
1558439069674872,1,0,-2,-2,6,9,4,1
1558439069674872,-2,-6,3,6,11,14,4,0
1558439069688830,3,2,3,2,0,-3,7,1
1558439069688830,0,3,3,1,4,8,2,0
1558439069694816,-1,-1,-6,-4,-8,-12,-9,-3
1558439069694816,-5,2,3,7,-1,-8,-3,-1
1558439069710772,-2,-2,7,7,6,10,4,0
1558439069710772,-4,-8,-13,-12,-7,-11,-4,-2
1558439069718205,-1,-2,-5,-15,4,0,1,2
1558439069718205,1,1,0,6,-9,-1,-1,-1
1558439069734890,-2,0,2,1,-3,-5,-7,-4
1558439069734890,1,1,5,5,-2,7,-1,-2
1558439069736196,-11,-11,-1,-4,-6,0,-4,-5
1558439069736196,-1,2,6,9,1,-11,-2,0
1558439069748960,2,3,-14,-14,4,4,5,0
1558439069748960,0,-3,3,-13,-3,-2,5,0
1558439069755800,2,1,-8,-6,-7,-6,-2,0
1558439069755800,0,-1,3,-2,6,2,-2,-1
1558439069770944,-2,1,0,1,1,5,-4,-1
1558439069770944,-2,-5,-7,-3,-5,-2,-2,-1
1558439069777952,1,2,3,5,0,3,3,-1
1558439069777952,-1,-2,6,10,5,-4,1,-4
1558439069794808,-2,0,-3,-10,-6,-9,-3,-3
1558439069794808,0,-2,1,7,4,-2,-1,2
1558439069795547,-3,-3,-19,-28,-10,3,-5,-5
1558439069795547,4,2,4,5,6,10,1,2
1558439069808848,0,0,-6,-5,-2,-4,-2,2
1558439069808848,1,3,2,-4,-4,1,-7,-2
1558439069815819,-3,-6,-2,6,-3,-6,-3,-2
1558439069815819,2,4,4,-3,6,-1,8,4
1558439069831647,-4,-7,-8,-6,-3,8,-1,-4
1558439069831647,-2,3,1,2,2,-4,-1,0
1558439069837694,3,3,6,5,0,-6,-2,2
1558439069837694,-5,-3,-4,5,-2,1,-9,-6
1558439069854611,-1,2,8,9,0,0,1,2
1558439069854611,2,-2,-9,-13,-5,-10,-1,-1
1558439069855390,1,-1,-8,-10,-5,-4,-2,-1
1558439069855390,0,-2,-2,0,-2,-1,1,1
1558439069867353,1,-1,5,-1,-1,-2,-1,1
1558439069867353,-8,-7,5,14,-3,0,-4,-5
1558439069876332,-3,-4,1,7,-1,2,-4,-2
1558439069876332,-4,-2,-2,-8,1,6,3,-1
1558439069890293,1,1,3,8,7,-2,2,1
1558439069890293,5,6,-3,-2,1,-2,6,3
1558439069897273,-7,-10,6,15,-2,-1,-4,-2
1558439069897273,0,-2,-12,-13,-6,-7,-6,-2
1558439069914705,-2,1,4,1,3,3,1,-1
1558439069914705,-2,1,-2,0,0,-4,1,0
1558439069916436,2,3,-2,-5,-6,0,0,-2
1558439069916436,-2,-3,1,-1,1,0,-2,0
1558439069928464,-2,-3,-2,6,-5,-9,-5,-2
1558439069928464,1,-3,-8,-14,-4,2,0,-1
1558439069936684,2,0,3,1,4,3,1,2
1558439069936684,2,4,7,7,4,6,4,1
1558439069951633,-4,-5,-5,-6,-9,-12,-3,-1
1558439069951633,-1,0,-2,0,-4,3,0,-2
1558439069958368,3,-1,-1,-4,3,-4,2,0
1558439069958368,-2,-2,-5,-6,1,11,5,0
1558439069974326,-1,3,10,12,13,3,-2,-1
1558439069974326,-1,-3,-4,-4,-13,-18,-9,-2
1558439069975498,3,1,8,0,7,5,5,3
1558439069975498,-12,-9,-3,6,0,6,-3,-5
1558439069987293,0,-3,-12,-24,-7,2,5,3
1558439069987293,-4,-4,-5,-1,-5,-6,-6,-6
1558439069997368,3,5,7,9,-3,-8,-7,-3
1558439069997368,4,1,5,3,15,17,12,5
1558439070011689,-2,-1,-1,6,-2,2,-5,-5
1558439070011689,-2,-1,-17,-20,-10,-4,-3,-1
1558439070018175,-8,-5,7,10,-1,-8,0,-1
1558439070018175,-5,-5,-5,-5,-11,-9,-12,-7
1558439070034060,-1,1,-2,5,4,1,6,3
1558439070034060,0,1,1,-6,5,2,1,2
1558439070035674,-2,-2,-11,-6,-8,2,-7,-7
1558439070035674,6,4,2,0,0,-6,2,2
1558439070048014,0,-3,4,1,-1,0,0,1
1558439070048014,2,2,10,8,4,-1,0,1
1558439070056619,-12,-7,-7,-11,-2,3,1,-1
1558439070056619,0,-2,-4,-5,-3,-3,1,1
1558439070070584,0,-3,-1,0,-5,-5,-5,-3
1558439070070584,-2,-1,1,5,5,6,1,-1
1558439070077868,1,2,0,-1,0,1,-5,0
1558439070077868,2,6,6,7,-1,-7,-5,-4
1558439070093524,-4,-8,-9,-16,-11,-4,-3,-4
1558439070093524,1,-2,1,1,0,3,-1,1
1558439070100846,-2,-1,-7,-16,-4,-3,3,1
1558439070100846,-2,-2,-1,1,-3,-3,-3,-2
1558439070107484,2,6,8,9,3,-1,2,3
1558439070107484,-2,-2,-5,2,3,-5,0,-2
1558439070116626,4,2,3,4,2,5,-1,2
1558439070116626,-3,-6,-9,-11,-4,-7,-4,-1
1558439070130739,-2,0,7,13,6,5,0,0
1558439070130739,0,3,5,-7,-2,3,1,1
1558439070137741,5,-1,-6,2,-4,-12,1,1
1558439070137741,-4,-4,-8,-2,-14,-16,-8,-6
1558439070153703,-1,2,3,-2,1,-4,-2,-1
1558439070153703,-3,-4,7,13,9,14,5,2
1558439070160669,1,2,-2,0,-2,3,-3,-1
1558439070160669,4,2,4,0,3,5,2,4
1558439070168319,-2,-4,-11,-6,-5,0,-3,-4
1558439070168319,-5,-1,9,10,5,0,-3,-4
1558439070176650,2,3,-11,-10,-2,-3,6,0
1558439070176650,1,2,5,4,-7,-13,1,1
1558439070190260,-10,-11,-12,-4,5,7,-1,-1
1558439070190260,0,1,2,1,0,-2,-1,3
1558439070197242,-4,-3,-1,-11,-3,-2,-3,-3
1558439070197242,-5,0,-6,-4,-9,3,-4,-4
1558439070213207,4,3,5,6,0,-2,3,0
1558439070213207,0,-5,-5,-5,2,2,-1,-4
1558439070220179,1,0,9,15,2,-5,-3,0
1558439070220179,3,-1,-5,-10,5,7,1,2
1558439070227161,-6,-6,2,-4,-9,-9,-7,-3
1558439070227161,-4,-1,-16,-20,-12,0,-1,-2
1558439070236138,0,1,7,4,2,-2,2,0
1558439070236138,1,-2,2,4,1,4,0,-2
1558439070251100,2,1,7,3,4,6,0,-1
1558439070251100,-4,-5,-8,-1,-7,-10,-2,0
1558439070257082,-2,-1,1,-6,-2,-6,-1,-1
1558439070257082,1,1,-1,1,4,3,2,-1
1558439070273041,-1,2,-1,-4,-2,-2,1,1
1558439070273041,-8,-5,-3,-5,-4,-9,-6,-5
1558439070280021,-2,-5,-2,-4,1,5,0,-1
1558439070280021,-1,0,8,13,-4,-9,-5,-3
1558439070295980,1,1,-11,-6,-2,-2,-2,-3
1558439070295980,0,3,2,2,2,2,3,1
1558439070297973,4,-1,-1,3,2,5,2,2
1558439070297973,-7,0,1,-12,-1,3,1,-1
1558439070310964,1,-2,-3,6,-5,-8,-7,-2
1558439070310964,-2,-8,2,1,8,10,4,-1
1558439070317918,-1,-1,-5,-1,-1,-11,-5,-2
1558439070317918,0,1,2,-1,0,-4,-1,0
1558439070333876,1,4,-4,-6,-10,-5,-7,-2
1558439070333876,3,3,5,8,0,5,1,-2
1558439070339879,-6,-2,1,2,4,8,-2,-3
1558439070339879,-1,-3,-4,-5,-5,-4,-4,-3
1558439070356825,-2,-4,-5,-11,0,-3,2,-2
1558439070356825,3,-1,2,3,-1,-4,-3,1
1558439070357813,-2,-3,3,11,-4,1,-3,-4
1558439070357813,-1,-1,-7,-10,0,-3,2,3
1558439070370777,2,2,-2,-5,3,0,4,3
1558439070370777,0,0,0,0,-2,-1,-1,-1
1558439070377758,0,4,1,-1,-5,-8,-6,-4
1558439070377758,-4,-4,0,7,4,6,0,-3
1558439070393715,-4,-4,5,-1,1,-2,1,1
1558439070393715,1,-1,-7,-2,3,-4,6,0
1558439070399701,1,0,2,7,0,3,-4,-1
1558439070399701,-3,-5,-8,-12,-5,-3,-5,-2
1558439070416655,3,4,2,-2,4,13,10,-1
1558439070416655,1,4,4,7,9,5,-4,1
1558439070417656,-4,-6,-9,-12,-6,-5,-1,-2
1558439070417656,-2,0,-3,1,-8,-2,1,1
1558439070438598,-1,1,5,11,4,1,5,2
1558439070438598,0,0,-3,-13,-3,-2,-2,2
1558439070440593,-3,-5,-3,-3,-1,-11,-2,-1
1558439070440593,1,2,-2,8,-4,-7,-11,-5
1558439070453556,0,-1,-4,-12,-4,0,-7,-4
1558439070453556,-2,-4,1,10,0,8,9,1
1558439070459541,-2,-2,-5,-14,-1,1,2,2
1558439070459541,2,-3,-3,0,6,1,4,3
1558439070476495,1,1,0,-2,-11,-13,-10,-1
1558439070476495,-1,1,11,7,2,3,-3,-1
1558439070477493,-2,-5,-19,-9,-11,-4,-6,-4
1558439070477493,0,0,-1,0,8,14,8,1
1558439070490459,0,3,0,3,3,2,6,2
1558439070490459,-1,-2,-2,0,-4,-11,-11,-3
1558439070497440,-1,0,2,-1,-1,-5,-4,-2
1558439070497440,4,1,2,-3,3,0,0,4
1558439070513396,-3,-4,-4,5,2,-7,0,0
1558439070513396,-1,1,0,-8,-14,-4,-8,-3
1558439070520382,-2,-3,-4,-12,1,5,1,0
1558439070520382,-1,3,1,4,0,-3,4,-3
1558439070536336,0,0,4,3,-2,-2,0,0
1558439070536336,0,1,1,-2,-7,-7,2,-2
1558439070538329,-1,1,4,4,1,9,-5,-6
1558439070538329,1,-1,4,8,10,9,7,6
1558439070559274,-8,-6,-10,-8,-4,-2,-1,-4
1558439070559274,2,-3,-11,-12,-16,-14,-6,-4
1558439070560278,3,-1,8,10,7,7,5,2
1558439070560278,-2,-2,-6,-9,-7,-5,-5,-1
1558439070580220,-2,-3,5,5,8,-4,-3,2
1558439070580220,-5,-3,-6,-1,-2,2,-2,-2
1558439070589194,-2,1,-1,-6,-6,-6,-2,0
1558439070589194,0,0,8,3,6,-8,-3,-3
1558439070596174,-1,-1,-14,-12,-7,7,-1,-2
1558439070596174,-2,-6,-10,-16,-11,-14,-4,-4
1558439070602160,-1,-2,-1,3,6,5,6,2
1558439070602160,3,3,3,3,-2,-1,-3,-2
1558439070611137,-3,-7,-6,-6,-10,0,-9,-4
1558439070611137,1,1,5,10,17,17,7,5
1558439070625098,2,3,5,0,0,-12,-1,1
1558439070625098,-17,-11,-9,-11,-11,-9,-7,-4
1558439070633077,1,0,3,6,1,1,-3,-4
1558439070633077,-3,-1,1,2,7,7,4,0
1558439070640059,2,1,-1,-3,-5,-7,-4,-1
1558439070640059,3,-1,2,16,-2,0,-3,-5
1558439070656015,-7,-3,-4,-11,-8,-4,0,-2
1558439070656015,1,-2,-12,-4,-1,-7,-4,-1
1558439070658011,-2,-3,-2,-3,2,2,-1,-1
1558439070658011,1,2,3,-3,-4,4,0,0
1558439070670976,-2,-3,-7,-8,-6,-7,-5,-2
1558439070670976,0,-1,6,7,3,6,4,-1
1558439070677957,1,2,6,11,6,-1,-1,0
1558439070677957,0,0,-9,-17,2,6,1,2
1558439070692916,-2,-2,-2,-2,-7,-13,-4,-1
1558439070692916,-3,0,5,7,7,9,4,2
1558439070699899,-1,-3,-1,-2,-2,0,3,0
1558439070699899,2,4,6,-2,-5,-1,-4,-2
1558439070715855,-5,-5,-1,-3,2,-1,-2,-6
1558439070715855,-4,-8,-18,-16,-14,-6,-4,-4
1558439070717850,2,3,2,4,8,5,5,-1
1558439070717850,4,2,5,6,0,-11,-6,-1
1558439070730814,4,3,2,-6,0,2,3,2
1558439070730814,-5,-1,2,-2,0,-1,-4,0
1558439070737796,0,-2,-2,0,0,6,2,0
1558439070737796,0,1,6,6,-1,-3,-1,-1
1558439070752758,-3,-3,-4,-9,-2,4,-2,-1
1558439070752758,-2,0,-5,-3,-7,-15,-8,-5
1558439070759738,-7,-8,-9,-7,-2,6,7,-1
1558439070759738,-1,-1,6,6,3,1,2,0
1558439070776693,3,1,-5,4,1,3,3,0
1558439070776693,-1,0,3,7,-1,-4,-6,-4
1558439070777690,-1,0,-9,-18,-10,-5,-7,-3
1558439070777690,-2,-1,-3,-1,-2,0,0,0
1558439070790661,2,2,6,1,10,11,7,1
1558439070790661,-2,0,4,11,0,-6,0,-1
1558439070798634,-4,-2,-8,-17,-8,-10,-4,-1
1558439070798634,-4,-6,-5,-5,-4,-6,-5,-2
1558439070813597,1,1,2,3,-3,-4,-3,0
1558439070813597,5,3,1,-3,5,4,3,3
1558439070819578,1,4,10,13,3,4,2,-1
1558439070819578,1,2,5,5,2,-5,1,-1
1558439070836531,1,-6,-11,-9,-5,2,-5,-1
1558439070836531,-3,-2,3,8,-1,-2,2,-3
1558439070837530,-3,-2,-7,-13,-1,6,1,1
1558439070837530,-5,-7,-8,-1,-2,1,1,-1
1558439070849498,0,3,14,15,3,-2,-2,-1
1558439070849498,1,1,-1,-17,-5,2,-4,-1
1558439070858473,-1,0,3,7,2,-1,-2,1
1558439070858473,1,0,-1,3,-1,-6,0,-1
1558439070873435,-2,-1,0,2,-6,-1,1,0
1558439070873435,2,-2,-4,-3,2,-3,-3,1
1558439070880414,-7,-4,2,3,2,-3,-2,-1
1558439070880414,-3,-2,-3,-3,1,4,2,1
1558439070896387,0,-1,-1,2,2,-4,-2,0
1558439070896387,-5,-5,-6,-11,-7,4,-3,-3
1558439070897370,-2,-3,1,2,-4,1,-3,-3
1558439070897370,0,0,2,8,-3,-7,-5,-3
1558439070910335,-7,-5,-9,-11,1,-9,0,1
1558439070910335,1,0,-8,-10,2,4,2,0
1558439070919311,0,-5,-4,4,-8,-2,-4,-3
1558439070919311,-1,0,-9,-14,-3,2,1,-1
1558439070933273,2,3,4,2,0,4,3,-2
1558439070933273,-4,1,5,4,2,-3,0,-3
1558439070940257,2,1,3,9,8,-4,0,3
1558439070940257,-5,-5,-12,-17,-10,-5,-2,-3
1558439070956212,-4,1,2,6,6,5,-2,0
1558439070956212,-2,-5,-2,-2,-6,-2,2,-2
1558439070958211,3,4,3,-2,0,2,-2,-1
1558439070958211,-5,-4,-13,-5,-5,-4,-3,-1
1558439070970174,-1,-1,2,5,-4,-7,-2,-2
1558439070970174,-3,0,-22,-25,-2,2,-1,0
1558439070979151,0,0,5,4,2,-5,1,0
1558439070979151,1,-3,3,4,-1,-1,-4,-1
1558439070993114,1,0,-1,-2,0,4,-5,-4
1558439070993114,-12,-11,8,24,1,0,2,-2
1558439071000094,5,4,4,0,3,5,4,0
1558439071000094,-1,-2,-2,-3,3,1,1,1
1558439071016052,0,1,-4,-1,-10,-5,-2,1
1558439071016052,0,3,7,3,-2,3,-6,-3
1558439071018047,-3,-1,-8,-10,-4,0,-3,0
1558439071018047,1,1,6,2,9,4,7,4
1558439071030016,-1,-1,-1,1,2,6,-1,-4
1558439071030016,-6,-6,1,6,3,-7,-1,-4
1558439071038991,-4,-3,-3,-3,-8,-6,-5,-3
1558439071038991,0,0,0,0,-8,-9,-3,-1
1558439071052956,1,1,5,5,7,12,4,1
1558439071052956,4,1,2,-3,1,0,2,4
1558439071059934,-3,-3,-11,-6,-6,-7,-6,-2
1558439071059934,0,-3,-4,-4,-3,-5,-5,-2
1558439071075892,-6,-3,-2,-3,-5,-9,-3,-2
1558439071075892,2,2,0,2,5,1,2,-1
1558439071082873,2,2,11,14,7,1,3,-1
1558439071082873,-1,1,-12,-9,-9,-5,-5,-3
1558439071089857,-2,-3,-1,-4,3,3,1,1
1558439071089857,2,1,-4,-8,-5,-4,-6,-2
1558439071098835,1,2,3,3,4,7,1,1
1558439071098835,-4,-8,-5,-1,2,3,1,0
1558439071112793,-3,-4,2,5,-3,-2,-2,-1
1558439071112793,-1,1,1,-6,-2,-13,-2,0
1558439071127753,2,0,1,5,-6,-5,-2,-4
1558439071127753,1,3,9,2,2,9,2,0
1558439071135731,1,-1,-10,-6,7,6,7,2
1558439071135731,1,0,-3,-4,-1,3,0,1
1558439071142714,-3,-3,-8,-16,-7,3,-1,-2
1558439071142714,1,0,3,5,-5,-5,-1,0
1558439071149695,0,0,7,6,3,2,2,-1
1558439071149695,-1,0,6,3,-1,1,-4,-1
1558439071158670,-4,-2,-5,-2,-4,-3,-3,-2
1558439071158670,2,-2,-9,-13,-2,-8,0,2
1558439071173636,-1,0,6,1,6,9,5,1
1558439071173636,0,2,0,3,-2,-2,-1,-1
1558439071179620,1,-2,4,2,5,3,1,2
1558439071179620,-1,1,0,3,-11,-9,-6,-5
1558439071195574,0,1,8,12,-3,-13,-6,-1
1558439071195574,0,0,-10,-18,2,13,8,2
1558439071202553,-4,-5,-1,2,-3,-4,-5,-2
1558439071202553,-1,0,-1,0,0,-1,-4,-2
1558439071209534,2,2,-11,-16,1,0,1,0
1558439071209534,-10,-9,-4,0,-14,-11,-8,-3
1558439071218511,-2,-3,2,-2,3,4,3,0
1558439071218511,-1,2,1,2,2,3,1,0
1558439071233471,-2,-3,4,5,-3,1,-3,-2
1558439071233471,0,-2,-10,-3,-5,-9,-4,0
1558439071240453,1,0,3,1,6,8,7,0
1558439071240453,-2,-2,4,4,-5,-2,-3,-2
1558439071255411,0,0,-6,-6,-5,-10,-3,0
1558439071255411,1,3,4,9,0,-3,-4,1
1558439071262393,1,0,-5,-2,0,1,-1,0
1558439071262393,0,3,3,-10,8,8,7,0
1558439071278351,2,3,-3,-8,-2,4,2,-1
1558439071278351,2,-5,-4,0,-3,-11,-1,1
1558439071280345,-4,-7,-7,-4,-7,-8,-7,-3
1558439071280345,-2,-3,-3,-1,5,6,-2,-1
1558439071293310,-3,-4,0,3,-7,-4,-5,-2
1558439071293310,3,7,9,7,3,-3,4,2
1558439071300291,0,1,-1,-3,-5,-2,-2,-2
1558439071300291,-4,-4,3,3,3,3,-3,-1
1558439071315252,-1,-3,-6,-5,-17,-20,-11,-5
1558439071315252,2,2,5,0,19,21,15,8
1558439071322237,1,0,-4,-3,2,-6,0,2
1558439071322237,0,4,-4,-3,-6,1,-4,-2
1558439071339188,1,-2,4,5,-1,-3,-5,-3
1558439071339188,-6,-4,2,13,-10,-3,-11,-7
1558439071340188,-5,-4,-9,-9,-3,-6,-2,-2
1558439071340188,-1,-1,-3,-3,1,-3,-1,0
1558439071353151,-3,-2,-9,-12,-7,-4,0,0
1558439071353151,0,0,-3,-3,7,13,4,-1
1558439071360131,1,2,6,6,2,-2,-2,-1
1558439071360131,-12,-13,-6,-3,-4,-7,-5,-5
1558439071376088,-1,-2,-1,0,4,3,2,3
1558439071376088,-1,-5,0,1,-7,-2,-3,-4
1558439071382073,0,3,4,0,2,3,1,-3
1558439071382073,2,1,-1,-3,7,4,4,1
1558439071399028,-3,-1,5,11,2,-7,2,0
1558439071399028,-3,-2,-8,-9,0,-1,-4,-1
1558439071400025,3,1,-1,-6,-7,3,0,-1
1558439071400025,0,-6,-4,-3,-11,-13,-4,-4
1558439071413989,-2,-1,2,5,12,17,3,0
1558439071413989,2,1,2,3,6,2,3,2
1558439071419970,-1,4,-3,-2,-3,-8,-3,-2
1558439071419970,2,3,2,3,3,5,1,0
1558439071434932,-7,-4,-5,-6,-5,-10,-3,-3
1558439071434932,-2,-3,2,-9,-6,-7,-6,-2
1558439071442915,-3,-1,-2,-3,-2,4,0,-1
1558439071442915,2,4,4,8,-1,1,3,3
1558439071457879,-4,-4,-6,-6,1,3,-1,0
1558439071457879,0,2,1,0,3,0,0,1
1558439071458867,-4,-5,2,5,-6,-5,-8,-3
1558439071458867,-1,-2,1,-3,1,-9,2,1
1558439071473833,5,1,-1,0,2,10,6,1
1558439071473833,-2,-4,-3,-7,-9,-3,-3,-4
1558439071479812,-1,-3,-9,-6,-5,-5,-4,-4
1558439071479812,-1,-1,-1,0,3,9,-1,-2
1558439071494774,-1,-2,3,6,-1,-6,-4,-1
1558439071494774,1,1,-2,-3,0,-1,2,-1
1558439071502750,2,1,7,9,0,-3,1,2
1558439071502750,-6,-5,-9,-18,-10,-2,-4,-4
1558439071517710,1,0,1,-5,0,4,-2,-1
1558439071517710,1,1,-4,2,-6,-2,-3,-3
1558439071518706,0,-2,0,-3,6,6,1,2
1558439071518706,-1,1,1,6,6,-4,0,-1
1558439071533669,1,3,0,4,4,0,0,1
1558439071533669,5,5,10,7,2,1,0,-1
1558439071539653,-4,-5,-2,-2,-4,4,4,1
1558439071539653,-8,-7,-13,-6,-4,-6,2,-1
1558439071554612,-1,-1,-5,-8,-3,-3,-2,-3
1558439071554612,0,0,-2,-1,1,6,-1,-2
1558439071562590,0,1,0,-4,2,8,0,0
1558439071562590,5,4,3,0,-2,-5,0,1
1558439071578547,2,6,3,4,-1,-5,-4,-3
1558439071578547,-5,-9,-7,-4,-2,-1,4,2
1558439071578547,-3,-2,-1,-2,-3,-5,-4,-4
1558439071578547,1,0,3,5,3,10,1,2
1558439071593507,-4,-3,-3,-6,-8,-15,-7,-1
1558439071593507,-1,-2,-4,-5,-10,-8,-7,-3
1558439071599491,2,3,7,8,17,12,9,3
1558439071599491,-2,-4,-5,-13,-10,0,-1,-2
1558439071615450,-1,-1,1,4,-4,-10,-4,-2
1558439071615450,-1,-1,0,2,7,4,2,-1
1558439071622430,4,-1,-6,-9,-6,-14,-1,0
1558439071622430,0,6,14,21,6,3,-2,0
1558439071638387,-1,-2,-4,-18,2,12,8,3
1558439071638387,-2,-3,-2,-3,-11,-16,-9,-6
1558439071638387,-1,-1,-3,2,-4,5,-4,-4
1558439071638387,2,1,-5,-3,0,-3,2,3
1558439071662323,-3,-4,3,10,-7,-7,-5,-4
1558439071662323,0,2,7,1,0,-6,-4,-2
1558439071668307,-5,-3,-7,-8,-1,0,4,1
1558439071668307,-1,-1,11,10,4,5,0,0
1558439071675291,0,-2,-11,-7,-8,-6,-3,1
1558439071675291,-1,-2,-3,-4,8,14,6,-2
1558439071682270,0,0,-8,-6,-2,-4,-4,0
1558439071682270,-4,-5,-3,-4,-4,-5,-5,-5
