timestamp,emg1,emg2,emg3,emg4,emg5,emg6,emg7,emg8
1558439005117227,-8,-7,3,-1,-1,4,-2,-2
1558439005117227,0,-2,-1,16,-5,6,1,-2
1558439005117227,0,0,2,4,-1,-8,-3,-1
1558439005117227,4,-1,-16,-25,-2,8,-2,-4
1558439005118224,3,1,2,10,0,-8,-2,-1
1558439005118224,-3,0,7,10,1,-6,-3,-1
1558439005119221,1,3,-6,-21,-6,0,-1,-2
1558439005119221,-4,-11,-3,4,-4,-6,-4,-1
1558439005130191,0,1,-5,-3,-1,1,6,4
1558439005130191,0,2,3,-2,6,3,-5,-3
1558439005138171,1,-2,-2,-4,-8,-10,-7,-5
1558439005138171,-1,5,5,14,-6,-6,-8,-5
1558439005146149,-2,0,0,-5,9,17,7,2
1558439005146149,0,-3,-7,-11,-1,-7,3,2
1558439005160111,0,1,5,16,4,5,-2,0
1558439005160111,1,-1,0,1,-1,2,0,-1
1558439005168091,-11,-8,-5,-11,-2,-3,-1,-5
1558439005168091,1,0,1,-4,-3,-2,-2,-1
1558439005175072,-5,-4,6,13,4,-5,-1,0
1558439005175072,-3,-4,-18,-16,13,24,14,4
1558439005190032,4,3,-11,-12,-14,-12,-4,-3
1558439005190032,-2,0,-4,-5,-4,-7,-3,-1
1558439005198013,0,-2,2,0,-2,-5,-1,0
1558439005198013,1,1,7,7,1,-9,-2,-2
1558439005237903,-6,-2,4,20,3,1,-4,-1
1558439005237903,-2,-2,-7,-5,-7,-2,-5,-3
1558439005238901,0,-4,-4,-11,-11,-11,-8,-5
1558439005238901,1,-2,-10,-3,-2,-4,5,1
1558439005239900,-1,0,7,6,8,-3,0,0
1558439005239900,-1,0,0,-2,6,4,4,0
1558439005242889,0,-2,-4,-8,-5,-3,-6,-3
1558439005242889,1,1,4,9,2,4,-4,1
1558439005249873,0,-3,-17,-20,-11,-5,-1,-3
1558439005249873,-3,0,7,0,3,4,5,-1
1558439005256853,-3,2,-5,9,-3,-3,-2,-2
1558439005256853,-3,-4,-1,-4,-4,-2,-3,-3
1558439005265829,1,3,2,-2,2,2,-2,0
1558439005265829,3,1,0,-9,-2,-4,-1,0
1558439005280789,-1,2,7,14,4,10,6,3
1558439005280789,-4,-4,-2,-10,-10,-11,-4,-1
1558439005286774,1,0,-3,2,0,-8,-4,1
1558439005286774,-3,0,4,11,7,2,5,1
1558439005294752,-6,-7,-11,-10,-5,2,2,-2
1558439005294752,2,-1,-2,-3,-2,-1,-6,-3
1558439005309712,0,-1,1,0,0,-1,-2,1
1558439005309712,1,3,8,13,1,-1,-2,-1
1558439005316693,3,4,-3,-6,0,2,-1,0
1558439005316693,-3,1,-2,1,2,11,8,1
1558439005325669,-3,-6,6,3,-1,-4,1,-2
1558439005325669,4,-1,-15,-16,-8,-14,-7,-4
1558439005340629,-5,-5,4,5,-7,-8,-3,-4
1558439005340629,-1,1,0,6,11,8,1,1
1558439005347611,-5,3,-1,-5,5,8,7,2
1558439005347611,2,0,-1,2,-5,1,-4,-1
1558439005354592,4,1,5,5,-5,-2,-5,-3
1558439005354592,-4,-4,-6,-8,-5,-11,-5,-2
1558439005369551,3,3,8,9,7,8,5,1
1558439005369551,-2,-2,-7,-1,-4,-1,-5,-2
1558439005377530,1,-1,-11,-18,3,-3,3,0
1558439005377530,1,-1,5,-2,1,0,-1,-1
1558439005386507,1,-1,-2,6,-7,-1,-4,-2
1558439005386507,-5,-2,-8,-9,1,4,-1,-1
1558439005400469,1,1,7,6,2,-4,6,4
1558439005400469,0,1,3,6,-1,-9,-8,-6
1558439005407450,1,-1,-1,-8,1,5,2,-3
1558439005407450,2,1,5,4,-5,-8,-2,-2
1558439005414432,-10,-7,-5,9,6,3,0,-3
1558439005414432,-6,-3,9,-1,-2,3,1,1
1558439005429391,-3,-4,-30,-32,-14,-11,-3,-2
1558439005429391,-2,0,5,5,0,-3,-5,0
1558439005437371,0,2,7,1,5,8,0,0
1558439005437371,3,2,-2,6,-12,-12,-3,-1
1558439005446346,3,2,7,9,-4,-7,-8,-3
1558439005446346,-5,-8,-9,-9,5,5,3,0
1558439005460309,1,-1,-1,1,7,6,3,3
1558439005460309,-3,-1,1,1,-2,-1,-7,-5
1558439005467291,5,3,-2,-4,5,9,4,0
1558439005467291,-4,0,3,6,0,-4,-1,-2
1558439005474273,-1,-3,0,-8,-6,-13,-8,-3
1558439005474273,2,-1,-16,-19,3,9,9,3
1558439005489231,-7,-6,4,3,-7,-6,-4,-2
1558439005489231,-4,-1,-3,-1,-2,4,-2,-3
1558439005497210,0,3,7,7,0,-4,1,0
1558439005497210,0,-3,-11,-7,-8,-9,-5,-1
1558439005506186,0,1,1,0,1,-1,-2,-1
1558439005506186,4,0,2,1,3,1,3,2
1558439005520151,0,-2,-1,-3,-5,-3,-7,-4
1558439005520151,0,1,6,11,5,3,3,0
1558439005527130,1,4,2,-7,4,11,7,-1
1558439005527130,-1,-4,-6,-4,0,-1,-3,-3
1558439005535111,0,-2,-8,-15,-5,5,4,1
1558439005535111,-4,-4,3,6,4,-2,-2,-1
1558439005550069,-3,-3,-8,-2,-1,2,-1,2
1558439005550069,1,3,5,1,-6,-6,-1,1
1558439005557050,3,3,4,2,3,1,1,1
1558439005557050,-12,-9,-4,1,0,-7,-3,-5
1558439005566026,1,0,-2,-3,3,7,2,1
1558439005566026,-9,-4,-3,-3,-7,-4,-5,-4
1558439005579990,0,1,0,3,5,2,-3,-2
1558439005579990,4,6,6,-2,2,6,2,2
1558439005586971,-9,-6,4,9,-5,-13,-5,-5
1558439005586971,-4,-5,-8,-12,-10,-4,-7,-7
1558439005594949,0,2,5,13,13,11,4,1
1558439005594949,3,4,-6,-15,3,0,3,1
1558439005609908,-1,-3,-1,-6,-4,-4,0,-2
1558439005609908,1,-1,6,7,1,-2,-3,2
1558439005616893,0,1,-6,-2,-12,-15,-6,-3
1558439005616893,1,-3,-1,4,4,12,3,-1
1558439005625865,1,3,0,6,-2,1,-5,-2
1558439005625865,2,-1,3,-6,3,5,6,2
1558439005640826,-2,-2,0,5,-7,-19,-4,1
1558439005640826,0,1,2,-5,0,-2,4,3
1558439005646810,1,2,3,3,2,7,0,-2
1558439005646810,-1,1,8,11,1,1,-6,-2
1558439005662769,0,-1,-6,-6,-6,3,-6,-6
1558439005662769,0,1,-3,-3,-9,-8,-7,-2
1558439005669748,-2,-1,-6,-7,2,-7,6,2
1558439005669748,3,4,2,4,5,0,3,3
1558439005676730,2,-1,5,5,7,8,2,4
1558439005676730,-6,-11,2,3,-8,-3,-9,-6
1558439005685707,-2,-1,-12,-8,-8,-2,-4,-3
1558439005685707,0,-5,-4,-3,-1,4,-2,-4
1558439005699669,-2,-2,-2,0,6,0,6,2
1558439005699669,3,3,3,0,4,-3,-4,2
1558439005708645,3,0,0,1,-3,-3,3,0
1558439005708645,-9,0,-2,-8,-8,-6,-8,-3
1558439005722608,-4,-5,-9,-7,-3,8,2,-4
1558439005722608,2,1,5,7,7,4,3,2
1558439005729588,-1,0,-1,-3,3,-2,-3,0
1558439005729588,1,-2,-4,-1,-5,0,-1,-3
1558439005737566,-2,-2,-1,-6,-7,-3,-7,-4
1558439005737566,0,5,2,2,0,-3,0,1
1558439005746543,3,1,4,0,5,3,0,2
1558439005746543,-1,-7,1,0,1,5,9,0
1558439005759508,-2,-4,1,4,1,-2,-5,-2
1558439005759508,0,4,-12,-24,-13,-9,-3,-1
1558439005768485,-3,-3,-7,-6,-7,0,-1,-2
1558439005768485,-5,-4,-6,-1,8,-2,-2,-1
1558439005782448,1,1,7,6,6,4,9,5
1558439005782448,-1,-3,-14,-4,-10,-7,-7,-5
1558439005789429,1,4,5,2,-6,1,5,0
1558439005789429,4,3,-1,0,10,8,-1,2
1558439005797408,1,3,3,2,5,-1,1,1
1558439005797408,-10,-3,4,0,5,1,1,-2
1558439005806385,-6,-6,0,3,-3,-1,-6,-3
1558439005806385,-2,-2,-6,-10,-14,-16,-1,-4
1558439005819348,0,0,-3,0,-1,5,4,0
1558439005819348,7,1,5,6,4,7,3,2
1558439005828326,-1,-5,-2,-2,-3,-4,-6,-2
1558439005828326,2,3,1,1,4,-4,1,1
1558439005851264,-3,-2,0,3,-3,-3,-4,-6
1558439005851264,-2,-7,-7,-11,3,10,1,-1
1558439005852261,-4,1,8,6,-1,-9,-5,-5
1558439005852261,1,0,-1,2,-7,-3,-5,-2
1558439005857247,0,2,-8,-16,-6,-5,-4,-3
1558439005857247,8,6,16,31,21,11,12,5
1558439005866224,-3,-4,-17,-26,-10,-3,-7,-3
1558439005866224,-10,-8,-3,2,-1,4,-1,-1
1558439005879193,-3,-5,-5,-13,-3,-8,-4,-1
1558439005879193,-2,3,1,6,0,-3,0,2
1558439005888166,4,0,6,10,2,-2,0,-1
1558439005888166,1,3,3,1,-2,6,-1,-1
1558439005903125,-3,-5,-9,-8,-12,-9,-12,-5
1558439005903125,-2,-4,4,3,7,1,5,2
1558439005910107,-1,0,4,1,4,-4,4,1
1558439005910107,-1,-2,-4,-9,-4,2,-7,-6
1558439005917088,-2,2,3,5,2,4,7,3
1558439005917088,-1,-3,-6,-5,-6,-3,-12,-7
1558439005932048,-1,-1,4,8,3,6,-1,2
1558439005932048,4,5,-5,-13,-4,-12,5,3
1558439005940026,2,-2,6,7,1,-3,-2,-2
1558439005940026,-8,-7,-14,-12,-5,1,-2,-4
1558439005949001,-5,-6,-14,-18,-11,-6,-9,-5
1558439005949001,-2,-1,3,9,0,5,-1,0
1558439005962965,3,6,6,-1,3,1,0,1
1558439005962965,0,0,-3,-6,-6,-9,-4,-1
1558439005969947,-6,-4,0,4,-2,-2,3,-3
1558439005969947,3,5,1,0,4,-1,4,0
1558439005976927,1,-3,-6,-7,1,-1,4,-2
1558439005976927,2,0,5,5,-3,3,-5,-2
1558439005991887,-1,1,4,8,0,-2,-7,-4
1558439005991887,0,-2,2,0,1,-5,1,1
1558439005999867,-3,-3,-12,-11,-9,-7,-6,0
1558439005999867,-3,0,-5,-3,-1,5,9,2
1558439006008841,3,1,3,1,3,-4,-2,0
1558439006008841,-2,-1,7,13,4,10,-2,-2
1558439006022804,-1,-1,6,4,1,-2,-11,-3
1558439006022804,0,2,7,5,0,-11,4,2
1558439006029793,-2,-5,-11,-12,-11,-5,-5,-3
1558439006029793,4,2,4,9,7,7,6,2
1558439006036766,-2,-2,-4,-8,1,6,2,-1
1558439006036766,-13,-10,-3,-3,-2,3,-4,-4
1558439006052726,0,1,4,7,2,1,0,-2
1558439006052726,0,1,-5,-5,-10,-11,-8,0
1558439006059712,0,5,6,4,7,0,8,4
1558439006059712,2,2,-5,-5,-10,-8,-6,-3
1558439006068691,6,-3,-1,1,1,-5,-1,2
1558439006068691,-11,-5,-1,1,2,4,-2,-2
1558439006082647,-4,-2,0,1,0,6,1,0
1558439006082647,0,0,-3,-3,-7,-9,-11,-4
1558439006089638,0,8,8,4,-1,1,1,-1
1558439006089638,-2,-7,-9,-9,-7,-10,-2,-1
1558439006097604,-1,-2,1,-4,13,-3,7,4
1558439006097604,-4,0,1,-2,-4,4,-2,-3
1558439006112564,6,6,7,10,6,1,0,1
1558439006112564,-9,-6,-16,-24,-7,-8,-2,-3
1558439006119544,-2,-1,-1,-1,-7,2,0,-2
1558439006119544,2,-2,-4,-7,-8,-2,-9,-4
1558439006128526,-4,0,7,9,9,6,4,0
1558439006128526,6,6,6,8,3,-6,0,0
1558439006142484,1,1,0,-2,-3,3,-6,-1
1558439006142484,3,-3,-2,2,1,-8,9,3
1558439006149466,-5,-4,-13,-10,-9,-1,-12,-4
1558439006149466,-1,-4,-2,-5,6,15,5,-2
1558439006157448,-6,0,0,-4,3,-2,3,0
1558439006157448,0,1,7,13,-1,-15,-3,0
1558439006172408,-2,-4,2,0,-1,-4,0,0
1558439006172408,0,0,0,-3,-3,-5,-4,-1
1558439006180385,0,0,5,20,-2,2,-7,-6
1558439006180385,0,-5,-8,-13,3,11,2,-1
1558439006188365,-1,1,-3,-10,3,0,3,3
1558439006188365,3,1,4,5,-2,-7,-2,-2
1558439006203323,1,-1,0,2,4,12,3,-1
1558439006203323,-7,-2,0,-1,1,0,-3,-1
1558439006209312,6,3,2,4,-3,-8,0,2
1558439006209312,2,-1,1,-6,-3,-1,4,3
1558439006233246,-5,-4,0,2,-4,-6,-10,-6
1558439006233246,1,2,-3,-3,8,2,2,0
1558439006235237,0,0,0,2,-4,7,4,-1
1558439006235237,-1,-7,-7,-3,-4,-1,4,1
1558439006248202,5,0,-4,-1,0,-3,1,2
1558439006248202,-2,0,5,-1,-3,-2,-6,-2
1558439006250196,-4,-4,1,7,3,4,3,-2
1558439006250196,-1,1,7,13,-1,3,-5,-4
1558439006262163,0,-1,-18,-29,-12,-14,-4,-1
1558439006262163,1,2,5,7,6,-4,3,3
1558439006271147,0,-4,-11,-14,-3,2,-3,-2
1558439006271147,-5,1,11,8,1,4,-2,-2
1558439006285102,-2,-5,-9,-9,1,5,3,1
1558439006285102,-2,-1,2,-1,-7,-1,2,1
1558439006292083,-4,-3,-3,5,-2,-3,-10,-9
1558439006292083,3,0,-3,-5,-1,-4,0,-1
1558439006309038,-2,0,11,15,2,3,-5,-2
1558439006309038,0,-1,-15,-18,-7,-7,-3,-2
1558439006311033,1,-2,6,1,2,0,3,5
1558439006311033,1,3,2,0,0,1,-1,-1
1558439006323002,-8,-9,-9,3,-11,-12,-8,-4
1558439006323002,-8,-6,-8,-5,-4,0,5,-1
1558439006329983,3,3,-4,-12,6,17,7,2
1558439006329983,-2,-1,1,2,1,-9,-4,-3
1558439006344942,3,3,5,-5,-3,-1,5,2
1558439006344942,3,1,8,18,13,20,1,-1
1558439006359903,-2,-3,-6,-13,-9,-15,-7,-1
1558439006359903,-4,-1,4,4,-2,3,3,4
1558439006368879,0,-2,-17,-18,-9,-4,-6,-3
1558439006368879,0,-2,-11,-2,-2,7,-1,-3
1558439006369876,0,2,5,5,1,-6,-1,0
1558439006369876,1,0,1,7,-3,-1,-2,1
1558439006382841,-3,-1,1,-5,-4,-3,-8,-3
1558439006382841,0,0,6,-2,-1,8,4,2
1558439006389822,-4,-3,0,15,4,-9,-3,-1
1558439006389822,0,2,-2,-13,1,-3,-2,-3
1558439006405780,0,0,-3,-1,-10,1,2,-2
1558439006405780,-1,-1,1,2,3,2,2,1
1558439006411763,-4,-2,-5,-2,-4,2,-7,-5
1558439006411763,1,-1,-4,1,-2,-6,-4,-3
1558439006428717,4,0,9,9,14,8,7,3
1558439006428717,-1,2,0,1,-12,-23,-6,-4
1558439006429715,-1,-3,3,0,5,13,5,1
1558439006429715,0,-1,-15,-18,-8,-2,-2,-2
1558439006442680,2,0,8,12,17,20,11,1
1558439006442680,-2,-2,3,8,-7,-7,-7,-1
1558439006449721,-5,-3,-2,-8,-5,-7,-7,-2
1558439006449721,-1,2,-1,0,1,9,1,-2
1558439006465619,-3,-8,-4,-4,-5,-5,-3,-1
1558439006465619,1,-1,1,-5,2,1,-1,-1
1558439006472601,-4,-1,-1,4,-3,-1,-1,-1
1558439006472601,-1,0,2,-7,0,-3,4,3
1558439006488558,-1,2,-1,3,2,0,-1,0
1558439006488558,-1,-2,4,7,6,3,-3,-1
1558439006489556,4,1,-3,-1,-1,2,2,1
1558439006489556,-9,-7,-8,-17,-8,-10,-7,-3
1558439006511496,-2,-3,-4,0,-6,-1,-3,-3
1558439006511496,5,2,2,-2,1,-3,-4,0
1558439006512493,-8,-4,3,4,7,5,7,0
1558439006512493,-2,-5,-6,1,2,2,-3,-1
1558439006525458,1,-1,2,-8,-4,-12,-7,0
1558439006525458,-1,-1,-8,-16,-9,0,-5,-4
1558439006532441,1,-3,0,6,-4,1,2,0
1558439006532441,4,2,-10,-10,3,6,6,3
1558439006548399,-2,1,-1,-4,-6,-8,-5,-4
1558439006548399,-10,-6,3,10,11,4,1,0
1558439006550393,1,1,-7,-11,-10,-13,-3,-2
1558439006550393,0,-1,2,1,-2,-2,-1,-1
1558439006571337,0,1,5,5,3,3,4,1
1558439006571337,0,-1,7,3,-6,0,-5,-2
1558439006572334,0,1,-8,-1,4,9,3,2
1558439006572334,0,-1,0,0,-7,-10,-5,-2
1558439006585298,3,3,-1,-2,1,-10,4,2
1558439006585298,-2,3,14,15,9,11,6,-2
1558439006592280,-11,-17,-19,-25,-14,-9,-8,-7
1558439006592280,2,0,1,8,-4,-1,-3,-1
1558439006608237,0,0,0,-2,4,2,8,2
1558439006608237,5,9,5,8,3,-3,3,0
1558439006610232,1,-1,6,0,-5,-1,-5,-2
1558439006610232,-5,-6,-2,6,6,7,0,-2
1558439006622200,0,-1,-3,-6,-4,-1,-4,-1
1558439006622200,-3,-5,-18,-15,-7,-4,0,-2
1558439006631177,2,5,1,4,-3,-2,-2,-2
1558439006631177,-1,-2,-5,0,-4,-2,-8,-7
1558439006645138,0,1,6,2,7,6,4,0
1558439006645138,1,0,-10,-13,-9,-8,-2,1
1558439006652119,-5,1,6,2,2,-7,3,0
1558439006652119,2,5,8,6,3,3,0,0
1558439006668077,-9,-11,-4,1,-3,-4,-6,-1
1558439006668077,-4,-6,-19,-15,-12,-1,-7,-3
1558439006670072,-6,-1,5,5,2,1,-1,1
1558439006670072,2,3,2,6,8,-3,6,3
1558439006682058,-1,1,6,10,-1,1,-3,-3
1558439006682058,2,-3,-11,-19,-3,-3,-4,-1
1558439006691016,5,2,4,4,-7,-8,-4,-1
1558439006691016,-5,-6,-2,-2,10,10,7,0
1558439006704979,-1,0,-2,3,-4,-6,-7,-3
1558439006704979,0,-2,6,7,0,1,-2,-1
1558439006711959,1,1,-8,-6,-7,-8,0,-4
1558439006711959,-1,1,6,4,2,-1,3,1
1558439006728914,-3,-3,-9,-15,-8,-11,-4,-5
1558439006728914,0,0,6,7,0,0,3,1
1558439006729915,3,1,-1,-11,-2,3,-6,0
1558439006729915,1,-1,-2,8,-2,0,-6,-3
1558439006741881,1,0,-9,-3,-4,-4,-2,0
1558439006741881,2,4,7,-1,3,-6,7,5
1558439006750856,2,-2,-2,1,-4,-4,-3,-1
1558439006750856,-6,-5,4,4,3,2,-3,-3
1558439006765816,-2,-2,-7,-5,-8,6,-1,-6
1558439006765816,1,0,0,-1,3,-2,-4,-3
1558439006771801,1,3,6,13,11,6,4,3
1558439006771801,3,0,-21,-32,-9,-4,3,3
1558439006788755,-3,-3,4,1,-2,-4,-4,-1
1558439006788755,-8,-9,0,5,-3,3,-4,-2
1558439006789753,0,-5,-13,-11,-2,-4,0,-3
1558439006789753,-2,-1,-2,7,-4,-3,-5,-3
1558439006801719,4,4,4,-1,7,3,6,4
1558439006801719,-10,-5,-1,3,-2,-4,3,2
1558439006810695,-1,-2,2,2,4,1,1,1
1558439006810695,0,-1,-6,-5,-9,-4,-10,-4
1558439006825655,0,-1,-7,-4,1,0,-2,-1
1558439006825655,-1,-4,6,5,-1,-6,-2,-3
1558439006831656,-3,-1,1,-3,-1,4,2,-1
1558439006831656,-1,0,10,2,5,4,2,1
1558439006848595,1,0,-12,-14,-8,-5,-4,-3
1558439006848595,1,3,4,6,0,0,0,0
1558439006849593,1,1,1,-5,2,0,3,1
1558439006849593,-2,-2,1,0,-2,-4,-2,-2
1558439006862558,1,0,4,7,3,5,4,1
1558439006862558,-4,0,-1,2,-1,-12,-2,-2
1558439006870541,0,0,8,4,1,8,0,-1
1558439006870541,0,-1,-14,-17,-3,4,3,-1
1558439006885496,0,-4,7,7,1,-2,-4,-3
1558439006885496,3,2,-6,-2,-8,1,1,0
1558439006892478,-3,-4,-2,4,4,-3,-2,-2
1558439006892478,0,1,2,-8,-2,-1,-3,-3
1558439006907437,-4,-1,3,2,1,3,1,0
1558439006907437,3,1,-12,-11,-6,-7,-1,1
1558439006914420,-2,0,6,8,-1,-3,-5,-3
1558439006914420,-4,-5,-5,-7,-2,0,2,1
1558439006922397,-2,-1,-1,2,2,-1,-5,-2
1558439006922397,3,5,7,4,5,5,0,-1
1558439006931376,-3,-6,-8,-3,-8,-2,0,-1
1558439006931376,-4,-1,-1,2,0,-2,1,0
1558439006945336,-2,-4,1,6,-4,0,1,-1
1558439006945336,0,2,7,5,-1,-13,-2,-1
1558439006952317,2,0,-11,-9,0,0,-4,-1
1558439006952317,1,0,5,5,-1,-3,-4,-1
1558439006968274,-2,-1,2,2,0,-1,-1,2
1558439006968274,-1,0,-1,-4,0,14,2,-4
1558439006974258,-5,-2,8,10,9,-3,7,5
1558439006974258,-1,-1,-4,-9,-4,-4,-3,-2
1558439006982237,-2,-4,-8,-10,-4,-1,-1,-2
1558439006982237,-4,-5,-8,-3,-9,-3,-9,-5
1558439006991213,2,3,4,5,1,-5,-3,-2
1558439006991213,1,1,-3,-3,8,8,4,0
1558439007005175,1,4,15,20,13,-5,3,2
1558439007005175,-5,-7,-22,-29,-13,1,-9,-6
1558439007012156,-3,-3,-2,-3,-6,-3,-9,-2
1558439007012156,1,2,7,14,2,1,4,1
1558439007028114,0,-2,-10,-10,-6,1,0,-1
1558439007028114,-2,-7,8,10,10,-3,2,1
1558439007035096,6,7,0,0,3,8,3,2
1558439007035096,-4,-5,-2,-1,0,-1,-4,-1
1558439007042078,0,5,11,9,-2,1,0,0
1558439007042078,-6,-6,-13,-17,0,3,1,1
1558439007051053,-1,-1,-7,-10,-8,-5,-6,-3
1558439007051053,1,2,7,12,3,0,-1,2
1558439007065015,-1,2,-4,-9,-1,-2,-3,-3
1558439007065015,-1,4,8,12,5,5,5,0
1558439007071997,-8,-5,-7,-12,-6,-3,-1,-1
1558439007071997,0,-2,-1,9,6,1,-1,0
1558439007087991,-3,-6,-9,-17,-10,-8,-5,-5
1558439007087991,1,-2,-11,-11,-16,-10,-4,0
1558439007094970,-1,-2,1,0,2,14,3,-3
1558439007094970,0,0,3,0,-8,-7,-6,-1
1558439007110932,2,1,6,11,15,8,7,5
1558439007110932,-1,-1,-3,-8,3,6,1,-2
1558439007112927,-3,-1,-9,-6,-10,-8,-4,-3
1558439007112927,1,1,-2,-3,-11,-12,-5,-2
1558439007125853,4,3,8,17,7,0,8,4
1558439007125853,-2,-2,-6,-19,-2,0,-5,-3
1558439007131837,-3,-4,-11,-9,1,1,0,0
1558439007131837,-2,-6,1,4,3,-2,-3,-3
1558439007147796,-10,-7,-7,-9,-15,-5,-8,-4
1558439007147796,3,5,13,12,4,-10,2,3
1558439007154914,6,5,0,-6,6,4,6,4
1558439007154914,-3,-1,-4,-4,-6,-1,4,0
1558439007170927,-5,-4,-4,-5,-2,-1,-8,-4
1558439007170927,1,1,-1,2,5,8,0,-1
1558439007172731,1,-1,6,6,-7,-8,-8,-3
1558439007172731,-2,-2,0,-2,7,10,6,2
1558439007186047,-3,-2,3,2,-3,-3,0,-1
1558439007186047,0,-1,4,6,0,0,3,1
1558439007193127,1,1,-3,-6,0,1,-6,-2
1558439007193127,0,-3,-9,-7,2,2,3,-2
1558439007208761,0,1,-2,-6,-4,-7,-5,0
1558439007208761,-3,-3,0,6,-1,-6,4,2
1558439007214617,1,-1,3,4,-4,-10,-8,0
1558439007214617,2,1,4,10,0,-1,1,-1
1558439007230573,2,-1,-5,-12,3,4,-2,-2
1558439007230573,0,4,-1,3,1,7,1,-1
1558439007232568,-4,-2,1,-9,0,0,8,1
1558439007232568,2,3,-2,-3,-6,-9,-4,0
1558439007245532,-6,-6,-1,6,3,9,0,0
1558439007245532,1,0,0,-3,-5,-8,-7,0
1558439007252514,-2,-4,-1,4,-2,-3,0,-2
1558439007252514,1,2,7,8,9,9,5,3
1558439007267476,0,0,-1,-6,-4,-4,-2,-1
1558439007267476,-2,-5,0,3,-1,5,-2,-5
1558439007282435,-1,1,3,1,2,-7,-2,-1
1558439007282435,4,3,1,-5,-9,-15,-5,-1
1558439007291411,-2,-2,-9,-2,-2,5,-1,-3
1558439007291411,-10,-8,-1,3,3,1,4,0
1558439007292407,1,1,1,2,-1,-3,-5,-2
1558439007292407,-2,-1,6,9,6,15,4,1
1558439007305401,1,1,-5,-17,-10,-9,-3,-1
1558439007305401,-3,-1,-7,-1,3,-3,-4,-1
1558439007319373,-4,-2,7,6,-1,7,-1,-4
1558439007319373,-3,-6,-16,-16,-7,-4,-2,-3
1558439007328312,1,2,3,11,5,-9,2,2
1558439007328312,4,2,-3,-10,3,4,4,2
1558439007334324,-1,2,8,14,9,5,5,2
1558439007334324,-6,-3,-11,-12,-16,-9,-12,-6
1558439007351250,-2,-7,-5,-3,-4,1,-3,-2
1558439007351250,-4,2,3,1,5,0,1,0
1558439007352248,-2,-2,-2,0,-2,-1,3,1
1558439007352248,1,3,0,0,-1,-12,-2,4
1558439007365213,-4,-4,-3,0,-3,-5,-5,-3
1558439007365213,3,2,3,0,-12,-10,-12,-3
1558439007372230,3,3,-3,-4,4,8,3,-1
1558439007372230,-10,-6,-4,4,4,3,-1,-2
1558439007388153,2,0,-2,-7,0,6,7,1
1558439007388153,-1,-2,0,-5,-2,-8,-2,-2
1558439007395132,0,0,1,-1,-10,-8,-7,-3
1558439007395132,-1,-3,-9,-10,-7,-2,-4,-2
1558439007411091,0,0,3,10,8,13,5,2
1558439007411091,0,0,2,5,5,3,5,1
1558439007412088,-2,-2,-1,-1,-6,-10,-4,-2
1558439007412088,-4,-4,4,0,-4,-4,-7,-5
1558439007425054,-3,-3,-16,-20,-11,-2,-2,-3
1558439007425054,4,3,4,4,3,-9,1,3
1558439007432034,-1,-1,2,14,14,9,9,2
1558439007432034,1,0,1,-5,0,3,-1,-1
1558439007447992,3,2,-7,-13,-5,-3,-2,-4
1558439007447992,-11,-10,-4,-4,-9,0,-8,-8
1558439007454972,-3,0,-1,3,-8,-1,-3,-2
1558439007454972,-7,-6,3,6,10,3,4,-3
1558439007470931,5,6,5,-3,-3,-6,6,4
1558439007470931,3,-1,-15,-1,-5,0,3,0
1558439007472926,-2,-7,-2,-12,-2,0,-6,-3
1558439007472926,1,2,1,0,-4,2,-2,-2
1558439007485890,-3,0,5,4,3,-2,-4,-1
1558439007485890,1,3,13,17,6,-3,0,-3
1558439007491873,-3,-6,-19,-26,-4,5,4,1
1558439007491873,1,0,-4,-1,-5,-13,-1,-1
1558439007507866,-3,-7,2,10,4,-3,-4,-1
1558439007507866,1,0,2,3,-5,1,-1,-2
1558439007514815,-2,0,-1,2,1,2,2,-2
1558439007514815,-1,0,-3,-3,-1,3,-1,-2
1558439007530770,-2,-1,1,4,2,0,-2,-1
1558439007530770,3,-1,-1,-4,-5,-3,3,2
1558439007532765,-10,-7,-5,-3,-3,-5,-14,-7
1558439007532765,2,3,3,3,-4,-3,1,1
1558439007544768,-1,-2,-2,0,-3,-2,-1,-3
1558439007544768,-4,2,2,-8,0,4,0,-1
1558439007553710,5,4,-2,-4,3,3,7,3
1558439007553710,-5,-11,-3,0,-1,-1,0,1
1558439007567673,-1,-2,-4,-3,-4,-3,-9,-1
1558439007567673,-1,0,1,-2,2,2,-6,-2
1558439007574841,1,3,4,8,0,-5,3,3
1558439007574841,1,2,2,-2,3,-4,-1,-1
1558439007590689,3,3,-1,4,-3,0,8,-1
1558439007590689,-5,-5,-5,-3,-4,-2,-11,-7
1558439007592605,-5,-7,-4,-1,-3,1,0,-4
1558439007592605,1,1,-3,-4,-2,2,-1,-1
1558439007604648,-2,1,6,8,7,-2,6,3
1558439007604648,2,2,2,7,-3,-3,-3,-1
1558439007613548,1,-1,-2,-11,-4,1,-4,-3
1558439007613548,-2,-1,3,1,1,-2,0,0
1558439007627595,-5,-4,-9,-6,-7,-2,-10,-4
1558439007627595,2,1,2,1,5,3,-1,-1
1558439007634541,3,5,3,4,-1,-7,1,1
1558439007634541,-3,-8,4,8,1,4,-4,-3
1558439007651497,-10,-2,-1,-4,-1,-1,-2,-7
1558439007651497,-2,-4,-6,-7,-7,-5,2,2
1558439007652449,2,-1,-1,3,-1,-10,-3,-1
1558439007652449,1,5,2,0,-4,2,-1,-2
1558439007664414,-2,-5,-7,-9,-1,3,-1,2
1558439007664414,1,-1,0,0,5,7,8,3
1558439007673390,-2,2,1,2,1,0,1,0
1558439007673390,6,4,3,8,-2,-5,-1,-2
1558439007688349,-18,-16,-3,-11,-6,-5,-5,-5
1558439007688349,-3,-3,-14,-9,-8,-3,-1,-3
1558439007694361,3,0,-1,-11,9,12,9,3
1558439007694361,1,2,-1,-1,-2,-6,-3,-1
1558439007711322,6,7,11,13,-1,2,0,-1
1558439007711322,-3,0,-6,-8,-6,-6,-8,-2
1558439007712285,-2,0,0,6,1,2,-2,-3
1558439007712285,-3,-4,-2,-6,2,3,3,0
1558439007724310,4,3,-2,0,-3,-1,2,3
1558439007724310,-12,-10,-12,-7,1,1,-3,-5
1558439007733237,-3,-4,-1,0,-5,-1,-5,-6
1558439007733237,2,1,1,0,1,-9,6,4
1558439007748190,3,5,1,-2,0,-3,-3,0
1558439007748190,4,4,6,1,0,2,-1,-3
1558439007754175,-1,-3,-8,-7,-8,-4,-7,-5
1558439007754175,-5,-3,-5,-3,0,6,4,-1
1558439007771255,-11,-11,4,8,12,8,9,3
1558439007771255,3,0,-6,-8,-4,-4,1,-1
1558439007772125,-1,-3,2,6,-3,-7,-4,0
1558439007772125,-1,0,-7,-11,-4,5,-3,-3
1558439007785115,4,3,-1,2,-5,-3,-4,-2
1558439007785115,4,2,7,2,4,2,1,1
1558439007794077,-4,0,0,-1,-2,-12,1,1
1558439007794077,-4,-6,2,2,7,9,-1,-1
1558439007808063,1,-1,-9,-7,-4,-6,-3,-2
1558439007808063,-1,0,1,1,-2,0,0,-1
1558439007815016,0,1,0,-6,-2,3,2,-1
1558439007815016,-2,1,-7,-1,-3,-2,-5,-4
1558439007830002,1,2,4,4,0,-5,-1,-1
1558439007830002,-3,-3,0,5,1,-5,0,1
1558439007836981,-1,-5,-12,-17,-9,-3,-4,-3
1558439007836981,-5,-2,1,1,0,3,4,1
1558439007844965,7,7,1,-4,4,4,5,4
1558439007844965,0,-2,-1,3,-3,-4,-6,-1
1558439007859929,-5,-3,-1,5,-3,1,-2,-2
1558439007859929,-1,-3,-4,1,-5,-12,-7,-4
1558439007875886,3,1,-8,-6,-1,2,1,-1
1558439007875886,1,-1,4,2,-3,-15,0,0
1558439007877844,-2,-4,10,8,6,4,2,-1
1558439007877844,-6,-5,-25,-33,-23,-9,-12,-6
1558439007890812,-5,-3,-2,-1,-9,-8,-8,-1
1558439007890812,2,2,2,-4,20,23,14,7
1558439007896795,3,0,2,7,5,-2,2,2
1558439007896795,-2,4,8,5,2,4,0,-1
1558439007904770,0,-2,4,0,-6,-4,1,-1
1558439007904770,-7,-9,-14,-3,-3,2,-6,-6
1558439007913746,-3,-2,-3,7,-7,-5,3,2
1558439007913746,-6,-3,-6,-2,1,3,-1,-2
1558439007927713,-1,1,-3,-2,-1,0,-3,-4
1558439007927713,4,5,2,0,-1,2,3,1
1558439007934693,-1,1,6,6,7,0,0,-1
1558439007934693,4,-1,-3,5,1,-2,1,0
1558439007950648,2,-2,6,2,-1,-4,0,1
1558439007950648,-2,0,-4,-13,-3,-4,-6,-3
1558439007956631,-4,-3,-8,-14,-4,5,3,-1
1558439007956631,5,3,15,11,6,0,-5,0
1558439007964610,-4,-5,-6,-1,-3,2,-6,-6
1558439007964610,-1,1,0,4,-10,-11,0,1
1558439007973591,2,7,4,1,12,4,2,2
1558439007973591,4,1,0,4,4,4,6,3
1558439007987624,-8,-10,-8,-4,0,-2,-5,-3
1558439007987624,1,-1,4,2,-12,-8,-8,-4
1558439007994720,-1,-1,-9,-5,1,9,3,0
1558439007994720,5,3,10,3,6,-6,0,2
1558439008010600,5,3,-2,3,8,6,6,3
1558439008010600,-3,-4,0,6,-3,-6,-3,-3
1558439008018578,-1,-2,-7,-9,-10,-9,-6,-4
1558439008018578,-1,1,1,-6,-3,1,-3,-2
1558439008033688,-2,-5,-8,-6,-5,6,-2,-1
1558439008033688,-5,-3,0,1,4,0,2,1
1558439008034690,1,4,8,12,7,9,8,6
1558439008034690,-2,-2,2,0,3,2,2,1
1558439008047639,0,-1,-9,-7,-10,-11,-7,-3
1558439008047639,-4,-1,1,1,-2,3,-3,-3
1558439008054634,2,-4,2,8,-4,-1,-5,-2
1558439008054634,2,2,-1,1,1,-2,1,0
1558439008070565,-3,0,1,1,2,0,-2,-2
1558439008070565,0,0,-5,-7,-1,0,1,0
1558439008077585,-9,-7,-9,-13,-5,-11,-5,-1
1558439008077585,-1,0,2,4,-3,-5,-5,-2
1558439008093547,2,-4,4,1,1,-5,2,-1
1558439008093547,-1,-2,0,1,1,1,2,-3
1558439008095497,-8,-2,4,4,3,3,1,-1
1558439008095497,-2,-4,-8,-9,-5,1,-2,-4
1558439008107465,-3,-1,-4,-3,-5,-11,-8,-3
1558439008107465,4,1,1,1,7,3,5,3
1558439008114445,0,1,-7,-8,-11,-8,-6,-2
1558439008114445,-2,-2,-2,0,-8,-15,-4,0
1558439008130404,-1,2,4,4,9,14,8,1
1558439008130404,1,-4,5,0,0,-1,-1,0
1558439008137419,1,-1,-4,0,-4,1,-6,-5
1558439008137419,-1,-1,4,5,2,2,4,3
1558439008153389,0,3,-6,-12,-3,-5,-5,1
1558439008153389,0,-2,-10,-13,-9,-2,-1,-1
1558439008155383,-1,-4,0,6,5,-2,-1,0
1558439008155383,-3,-5,-2,-7,-10,-4,-4,-4
1558439008168300,0,1,-1,8,7,3,3,2
1558439008168300,-3,1,5,1,5,5,4,2
1558439008174318,5,4,-10,-7,-7,2,-5,-4
1558439008174318,-4,-6,-1,0,1,-4,-4,-1
1558439008190240,-2,-4,10,10,1,9,4,-2
1558439008190240,-4,-3,-19,-16,0,0,-2,-2
1558439008197239,-2,0,6,8,-1,-14,-5,-1
1558439008197239,-2,-2,-12,-20,-4,0,5,2
1558439008213377,-2,-1,6,7,-3,0,-6,-3
1558439008213377,0,2,9,14,1,5,3,0
1558439008215174,-1,-3,3,-6,-2,-2,-2,-2
1558439008215174,-1,1,3,5,8,7,5,1
1558439008228333,2,3,-4,-9,-7,-9,-3,0
1558439008228333,0,-1,2,4,-2,-1,-5,-4
1558439008235149,-9,-9,-6,-3,2,2,1,-1
1558439008235149,2,4,6,5,6,2,0,-1
1558439008250133,0,-6,-14,-24,-11,-2,4,1
1558439008250133,-7,-4,0,5,0,-3,-11,-5
1558439008257094,2,-1,1,1,1,3,0,1
1558439008257094,1,-2,-3,2,1,-6,-3,1
1558439008274017,-4,1,8,1,-3,-4,0,-1
1558439008274017,-3,-3,-11,-13,-7,-2,2,1
1558439008275017,2,0,1,-1,-3,0,0,-1
1558439008275017,-3,-1,2,2,-2,-1,0,-3
1558439008287981,0,2,-2,1,2,-3,-2,-3
1558439008287981,1,2,2,1,-3,-1,-3,0
1558439008294962,0,-1,2,2,5,5,0,-2
1558439008294962,-5,-6,-3,2,-3,1,-1,-2
1558439008309921,-1,0,-4,-1,0,2,4,-1
1558439008309921,3,2,3,1,2,-1,0,1
1558439008316903,1,1,-2,-4,-2,2,-2,-2
1558439008316903,-4,-2,-1,3,-5,-8,-4,-2
1558439008333857,0,-4,1,2,-1,3,-3,-1
1558439008333857,2,5,-2,-6,5,6,5,1
1558439008334854,6,1,3,8,-3,-5,-1,3
1558439008334854,-7,-6,-5,-4,-8,-3,-3,-3
1558439008347821,-4,-2,-9,-6,-1,-3,-5,-1
1558439008347821,0,-1,5,2,1,5,5,1
1558439008354800,0,3,8,6,-3,-10,-5,-2
1558439008354800,6,2,-1,-12,5,13,6,0
1558439008370758,-4,-2,-1,0,-2,-3,1,0
1558439008370758,-1,-3,1,2,-3,-5,-5,-5
1558439008376742,-2,-2,-1,-7,-1,2,0,-1
1558439008376742,3,4,2,1,-3,-2,-1,-1
1558439008393736,1,3,7,8,1,-2,-3,1
1558439008393736,0,-4,-5,-1,0,-3,3,2
1558439008394693,0,0,-4,-11,-2,1,1,0
1558439008394693,-2,1,-2,-3,1,1,-2,2
1558439008407693,-3,-7,4,8,7,2,10,0
1558439008407693,-5,-5,-6,-11,-4,-9,-14,-7
1558439008414642,-1,1,3,2,6,8,6,1
1558439008414642,0,0,-4,0,-2,3,-5,-3
1558439008430598,2,-1,3,5,-2,-5,0,3
1558439008430598,-2,-2,1,3,-2,-2,1,-1
1558439008437701,-3,0,-18,-22,-6,-3,1,-1
1558439008437701,0,0,2,2,0,-3,-2,-2
1558439008453725,-1,-2,5,4,3,2,0,-2
1558439008453725,2,-1,-5,-3,-2,-3,-2,-1
1558439008455585,-4,-6,-2,-2,-4,0,-6,-1
1558439008455585,1,0,-3,-4,1,-5,2,2
1558439008467689,-7,-6,-1,-3,6,1,0,2
1558439008467689,-6,-3,5,10,1,3,-2,-4
1558439008474526,2,2,4,5,2,-1,0,-1
1558439008474526,0,-3,-7,-5,-5,-3,-4,-1
1558439008490467,4,4,0,-8,-6,-7,-3,-5
1558439008490467,0,2,3,-1,-3,-6,1,1
1558439008497421,-7,-9,-6,1,1,6,0,-3
1558439008497421,-1,3,3,6,4,-11,-3,-1
1558439008513491,-1,-2,-4,-4,1,3,0,1
1558439008513491,-2,-4,0,5,8,9,4,2
1558439008514487,1,2,1,-3,-6,-11,-1,-2
1558439008514487,-2,-4,-2,-1,-8,-4,-8,-5
1558439008527496,-2,-1,-5,-5,-1,1,0,1
1558439008527496,5,2,1,-1,1,1,1,1
1558439008536430,-3,-3,-2,3,0,-3,-4,-1
1558439008536430,0,-3,-4,-3,-6,3,-1,-3
1558439008550395,4,4,-1,2,2,-3,1,2
1558439008550395,-4,-4,0,-1,0,-7,-3,-3
1558439008557407,-1,-1,-3,-1,-3,1,-1,-1
1558439008557407,0,-2,4,3,0,0,2,0
1558439008573357,0,-1,-7,-8,-6,0,-5,-6
1558439008573357,1,-3,-5,-3,-5,-8,-2,-1
1558439008575357,0,1,8,11,6,4,3,0
1558439008575357,-4,-1,3,-4,-7,-5,-6,-2
1558439008587424,1,3,-2,1,8,13,12,4
1558439008587424,0,0,-5,-4,-2,-14,-4,2
1558439008596267,-10,-6,6,4,7,4,-2,0
1558439008596267,-1,-1,-3,0,2,1,3,-1
1558439008610370,-1,5,7,7,0,-5,-8,-4
1558439008610370,1,4,-1,0,0,1,3,0
1558439008617352,-4,-13,-14,-12,-11,-7,-5,-6
1558439008617352,-2,0,2,6,3,2,-1,-1
1558439008633964,0,0,-4,-14,-8,-8,-7,-2
1558439008633964,-9,-5,0,3,-7,-1,-3,-3
1558439008634966,1,2,2,2,-2,-9,-4,-2
1558439008634966,-1,-1,-1,0,5,8,6,1
1558439008646932,3,2,4,6,-1,-6,-1,-1
1558439008646932,-3,-4,-4,-4,-2,1,-1,-3
1558439008655911,1,1,-2,-4,-8,-4,0,1
1558439008655911,3,0,3,6,9,1,6,2
1558439008669905,-5,-4,-8,-7,-2,-4,-2,-3
1558439008669905,3,1,-1,1,3,11,1,0
1558439008676888,2,-2,6,6,-7,-5,-5,-1
1558439008676888,-5,-5,-18,-20,-6,0,0,-2
1558439008693841,-1,-3,-4,3,-3,-7,-3,-3
1558439008693841,1,2,-5,-13,-3,3,3,2
1558439008694808,5,3,1,3,2,-1,2,2
1558439008694808,0,1,11,8,3,6,2,1
1558439008706804,-16,-8,-4,-3,-5,-1,-7,-5
1558439008706804,1,-1,1,5,-4,2,-2,0
1558439008715780,-6,1,0,1,5,0,-4,-2
1558439008715780,5,3,5,3,-1,-14,0,3
1558439008730708,-2,-8,-13,-18,-3,1,-3,-3
1558439008730708,2,-1,5,8,2,1,-4,-2
1558439008736723,0,1,-6,-11,2,6,4,0
1558439008736723,-4,-7,-7,-1,-6,-1,-3,-3
1558439008752650,1,3,11,11,-1,-10,2,1
1558439008752650,-1,1,8,10,9,4,3,0
1558439008759631,1,-3,-11,-10,-6,-8,0,1
1558439008759631,-2,-2,-6,-5,1,2,1,0
1558439008766613,-4,0,2,-1,-3,4,-4,-1
1558439008766613,-5,-5,-4,-8,-11,-8,-5,-6
1558439008775590,0,2,6,6,10,12,8,3
1558439008775590,4,2,2,-2,-3,-6,1,0
1558439008790768,1,0,7,14,-3,2,-4,0
1558439008790768,-12,-6,-12,-7,1,-4,-1,-3
1558439008797538,0,-2,-10,-9,-3,-3,-6,-2
1558439008797538,1,-2,-6,-13,-6,-3,0,-1
1558439008812644,2,0,4,5,3,1,0,1
1558439008812644,0,1,7,7,-1,-6,-6,-2
1558439008819622,2,2,-9,-14,-6,0,-3,-1
1558439008819622,-6,-7,0,8,8,8,-1,-2
1558439008827606,0,-1,-4,-6,-3,-2,5,0
1558439008827606,3,-2,-3,-3,0,-4,-3,0
1558439008836426,-3,0,2,4,-6,-5,-4,-3
1558439008836426,0,1,0,2,-3,1,-6,-6
1558439008851414,3,3,2,3,6,-4,6,2
1558439008851414,0,0,0,-5,1,6,6,3
1558439008857402,-1,-1,-4,2,-2,-3,-3,-3
1558439008857402,-4,-1,5,6,-4,-7,-8,-3
1558439008872408,-3,-6,-15,-21,-10,-1,-3,-2
1558439008872408,0,1,-4,-5,-2,4,1,0
1558439008879389,2,1,8,5,1,-6,0,0
1558439008879389,1,4,8,15,13,15,8,2
1558439008887400,-10,-9,-18,-27,-12,-9,-5,-4
1558439008887400,2,2,0,1,0,-3,-1,1
1558439008896341,-3,-2,-1,0,0,4,0,-2
1558439008896341,2,-1,-7,-2,1,-1,1,-2
1558439008910980,3,0,8,12,6,0,0,0
1558439008910980,-3,0,-1,-4,-1,4,-2,-2
1558439008917163,-2,-3,3,2,-2,-3,-4,-4
1558439008917163,-1,-1,-8,-5,-1,-4,1,1
1558439008932996,3,3,12,15,4,7,-2,0
1558439008932996,-1,-1,-12,-16,0,-4,1,0
1558439008939979,3,4,5,4,2,0,0,-1
1558439008939979,-3,-1,-4,-8,-4,-2,0,0
1558439008955935,-3,-6,-1,7,3,-2,2,0
1558439008955935,-2,-3,1,5,-3,-4,-2,-3
1558439008957939,-2,-6,-2,-2,-5,0,-1,-1
1558439008957939,-1,0,-2,-4,-4,-5,-4,-2
1558439008969855,-2,3,4,6,5,9,1,1
1558439008969855,0,1,4,1,-4,-1,-2,-2
1558439008976807,2,1,-3,-4,0,-1,-6,-3
1558439008976807,-11,-6,0,-5,-7,-9,-3,-1
1558439008992764,1,-2,3,7,5,3,5,-1
1558439008992764,-1,-1,0,0,1,-6,-3,0
1558439008999781,-2,-4,-10,-12,-13,-7,-4,-6
1558439008999781,-1,1,-1,2,4,10,-1,-2
1558439009023681,2,2,2,1,-4,-8,-3,-1
1558439009023681,1,1,-7,-12,-8,0,-2,-1
1558439009024680,-2,-6,3,7,3,1,0,0
1558439009024680,-1,-3,-6,-6,-4,-1,-2,-1
1558439009030663,-2,-2,2,2,-2,-9,-2,-1
1558439009030663,0,1,1,-4,1,3,5,1
1558439009037643,0,1,1,-1,-4,-6,0,0
1558439009037643,1,-1,0,0,-3,-3,-1,0
1558439009052742,-3,-2,-6,-10,-5,-2,-7,-4
1558439009052742,2,-2,2,9,5,2,0,1
1558439009059725,0,4,3,5,6,8,5,2
1558439009059725,-4,-5,-1,1,-3,-5,-3,-5
1558439009076540,-3,-1,-4,-6,-9,0,-3,-3
1558439009076540,2,2,1,-2,-1,-10,-4,0
1558439009077539,6,7,2,-2,9,6,8,6
1558439009077539,-5,-14,-2,-1,-5,-1,-6,-4
1558439009090598,-2,-1,-5,-1,-7,-4,-5,-3
1558439009090598,-3,-2,0,0,-1,-6,-1,-1
1558439009097486,-1,3,-1,1,5,3,3,2
1558439009097486,1,3,-4,-7,-6,-5,-2,-1
1558439009112481,0,-3,-3,-6,-6,-6,-4,-2
1558439009112481,0,1,-3,3,-3,1,-2,-2
1558439009119457,-5,-6,6,4,5,-4,0,-2
1558439009119457,3,4,1,2,-2,0,1,1
1558439009136415,0,0,-4,0,6,14,-1,1
1558439009136415,1,3,5,5,3,-1,1,1
1558439009137380,-8,-6,-9,-3,-9,-6,-5,-6
1558439009137380,1,3,5,1,-3,-3,-2,0
1558439009150377,-2,-7,-3,-8,-4,-7,-2,-2
1558439009150377,-2,-2,-5,-4,-10,2,-3,-4
1558439009157323,1,-1,2,3,6,6,5,0
1558439009157323,-3,-1,3,9,22,7,12,6
1558439009173281,0,2,0,-10,-4,7,2,-2
1558439009173281,-5,-6,-5,1,-7,-14,-7,-5
1558439009179267,1,-1,-3,-7,-7,-3,-3,-1
1558439009179267,2,2,1,4,-4,1,-4,-6
1558439009195434,0,2,2,7,11,11,10,6
1558439009195434,-4,-4,-5,-10,-6,-8,-4,-4
1558439009196235,-2,3,-4,-3,5,10,5,2
1558439009196235,-4,-6,-3,1,-8,-12,-10,-2
1558439009211181,0,0,0,-3,-3,3,-3,-1
1558439009211181,-2,1,-2,-5,2,-1,-2,0
1558439009217307,-2,-1,-2,0,-5,-12,-6,-1
1558439009217307,2,2,-6,-9,-9,-1,-4,-2
1558439009232152,1,0,-2,-5,-4,-8,-3,-1
1558439009232152,0,-3,6,7,10,16,7,3
1558439009240129,-9,-5,-1,1,-2,-4,-1,-3
1558439009240129,0,0,-4,-4,1,0,4,-2
1558439009255249,-1,1,1,-1,-10,-10,-5,-4
1558439009255249,3,2,-5,-2,-2,-1,-3,-1
1558439009256186,-5,-6,13,14,6,3,-4,-1
1558439009256186,1,5,1,-5,3,14,8,2
1558439009279124,0,-1,-5,-5,0,-16,-2,-1
1558439009279124,-4,-3,4,6,3,1,1,1
1558439009280124,0,-2,-3,-6,-3,-4,0,2
1558439009280124,-1,-1,-6,-5,-7,-1,-11,-8
1558439009292130,-2,-1,-3,-3,-12,-5,-8,-6
1558439009292130,0,2,3,2,9,2,2,2
1558439009300068,1,-2,-4,-3,-1,-15,-1,3
1558439009300068,-1,0,2,-3,-1,0,-3,-1
1558439009315028,-3,-3,4,2,1,1,9,3
1558439009315028,-1,-3,-10,-7,-11,-10,-10,-8
1558439009316026,-6,0,6,8,4,8,7,0
1558439009316026,3,0,2,-3,3,3,2,4
1558439009330985,-1,-2,-3,3,9,13,0,-3
1558439009330985,1,4,1,1,-7,-3,0,0
1558439009337010,1,3,-2,1,5,10,4,0
1558439009337010,-2,-5,-3,0,-1,-7,1,-1
1558439009353925,2,5,-4,-10,-4,-3,0,1
1558439009353925,-4,-4,12,12,2,0,-1,-4
1558439009359951,-1,-3,-6,-5,-7,-2,-5,-1
1558439009359951,-3,-5,-1,0,-4,-10,-1,1
1558439009374868,-5,-2,-1,-3,2,-1,-6,-3
1558439009374868,3,4,-3,-3,-1,0,7,4
1558439009375866,5,3,-3,-8,-3,5,-2,-3
1558439009375866,0,-4,-3,3,0,-3,2,-1
1558439009390824,2,5,5,-3,0,-1,-1,1
1558439009390824,-10,-16,-21,-12,-8,0,-6,-5
1558439009396809,-1,-2,4,2,3,1,-4,-3
1558439009396809,6,5,-6,-4,-6,-9,-5,0
1558439009413764,-3,-6,5,10,-1,-5,-5,-6
1558439009413764,2,4,2,-5,8,7,13,5
1558439009419983,1,1,-3,-1,-4,-6,-4,-3
1558439009419983,-3,2,2,0,2,8,2,1
1558439009436702,3,1,3,4,2,8,1,-2
1558439009436702,0,1,5,3,-1,-9,-5,-2
1558439009437826,-1,-1,-2,-2,-5,-9,-7,-2
1558439009437826,-4,-2,-3,-5,-2,-5,5,1
1558439009450794,-2,0,2,6,8,19,8,2
1558439009450794,2,-1,-3,2,-4,-11,-7,-1
1558439009457647,-4,-4,-7,-12,-1,6,-2,-1
1558439009457647,-3,-4,1,0,-5,-7,-8,-5
1558439009473605,4,5,0,2,-2,-5,-3,-1
1558439009473605,2,3,7,-1,3,3,9,3
1558439009479650,-9,-11,-16,-16,-8,-9,-5,-7
1558439009479650,-3,-5,-1,-5,-1,-2,-2,-1
1558439009495582,-2,-1,-7,0,-4,-7,-4,0
1558439009495582,1,4,8,9,9,10,3,4
1558439009496547,4,6,3,1,-3,-1,-4,-1
1558439009496547,-1,-2,5,8,0,2,2,3
1558439009511502,0,-3,-1,1,8,-3,6,3
1558439009511502,-6,-3,-8,-16,-12,-1,-5,-4
1558439009517511,5,8,5,10,3,7,1,1
1558439009517511,-2,-8,-5,-6,-6,1,-4,-3
1558439009533448,-4,-7,-9,-8,-3,3,-4,-4
1558439009533448,0,-1,4,6,7,2,1,-1
1558439009540106,2,1,3,1,3,1,6,1
1558439009540106,3,9,13,23,2,-8,-6,0
1558439009557177,1,-3,-11,-36,-8,0,-7,-3
1558439009557177,1,2,-1,2,0,-5,0,1
1558439009557177,-1,-4,-4,-1,-4,1,-4,-2
1558439009557177,-2,5,-2,-7,-1,6,2,-1
1558439009578122,-6,-9,8,20,13,2,6,0
1558439009578122,-8,-5,-14,-20,-16,-8,-9,-5
1558439009578122,-1,-1,-2,4,-2,-5,-2,-2
1558439009578122,0,-1,0,-3,1,2,1,-1
1558439009593104,-3,-1,2,1,-6,-2,-4,-3
1558439009593104,1,2,-14,-23,-3,0,-2,1
1558439009599059,3,1,9,19,8,7,9,6
1558439009599059,-7,-12,-6,-4,-5,-8,-4,-4
1558439009615019,-2,3,12,11,6,4,5,1
1558439009615019,0,-1,-9,-13,-8,-6,-6,0
1558439009616015,-4,-3,-22,-18,-5,1,-2,-4
1558439009616015,-6,0,1,1,0,-4,-6,-5
1558439009637990,3,3,4,5,-3,-2,0,2
1558439009637990,2,4,12,16,1,2,3,2
1558439009638954,0,-4,3,4,1,1,4,0
1558439009638954,1,7,0,-9,6,7,4,4
1558439009654133,-5,-9,-5,5,-6,-7,1,-2
1558439009654133,3,1,2,3,0,4,-6,-2
1558439009660117,-3,2,3,-2,-7,-11,-1,-1
1558439009660117,0,-7,8,15,4,3,0,-2
1558439009675088,3,3,-13,-30,-10,-2,-4,-1
1558439009675088,-6,-3,-2,6,5,-2,-1,0
1558439009681949,3,6,-3,-7,-2,-3,1,1
1558439009681949,-8,-18,-8,-8,1,4,-1,-1
1558439009697795,1,3,7,11,-2,3,4,2
1558439009697795,-4,-5,5,9,-1,-2,-6,-7
1558439009698874,-1,-1,4,-1,-6,-6,-9,-3
1558439009698874,6,10,0,-4,2,-1,2,4
1558439009713753,-5,-10,-9,-2,-8,-16,-5,-1
1558439009713753,-2,-2,9,13,5,3,5,0
1558439009719767,5,9,6,-4,2,-6,-4,-1
1558439009719767,-2,-2,-16,-5,1,8,4,-1
1558439009734728,-6,-4,-3,-3,-1,2,3,1
1558439009734728,-5,-8,-16,-20,-7,-5,-5,-4
1558439009741713,3,7,17,11,4,2,-2,-2
1558439009741713,-5,-12,-19,-15,-14,-7,-6,-3
1558439009757758,-4,2,6,6,9,3,9,5
1558439009757758,1,3,15,22,9,7,5,1
1558439009758714,-8,-11,-33,-38,-17,-7,-9,-3
1558439009758714,4,-3,5,5,3,-4,-3,0
1558439009773675,-4,3,-1,3,5,0,-5,-7
1558439009773675,-5,-7,-1,-2,-7,-1,-5,-3
1558439009779792,-3,-1,9,7,2,7,4,0
1558439009779792,3,3,-4,-1,-5,-8,-6,-2
1558439009794710,4,0,5,5,1,-6,-1,2
1558439009794710,0,0,-18,-17,-1,-5,0,0
1558439009801693,-5,-4,-3,-3,-6,-9,-9,-4
1558439009801693,3,11,14,5,11,20,8,3
1558439009818088,1,-6,4,4,-3,-7,-3,-1
1558439009818088,-4,-2,-5,5,-7,-8,-7,-5
1558439009818088,-2,-9,3,5,4,3,5,1
1558439009818088,1,1,-7,-5,0,4,-1,-4
1558439009833102,0,5,1,-2,1,-7,-3,-1
1558439009833102,3,2,0,0,2,10,6,2
1558439009840103,-9,-7,12,13,7,4,5,1
1558439009840103,2,6,7,13,-2,-5,-5,-2
1558439009855077,0,-5,-14,-28,-8,0,-3,-1
1558439009855077,-2,-2,-7,-11,-9,-10,-3,-1
1558439009862068,1,1,-3,-2,-1,1,-2,-2
1558439009862068,1,4,2,6,6,3,3,0
1558439009878031,3,2,3,9,-3,-7,-3,-1
1558439009878031,2,8,7,4,7,2,4,4
1558439009878964,-2,-6,-11,-7,4,3,-5,-4
1558439009878964,0,-4,2,-2,-6,-2,7,0
1558439009893882,-8,-5,-10,0,-4,-2,-8,-7
1558439009893882,2,0,14,8,-2,1,-4,-2
1558439009899964,0,-1,-2,-6,-8,-9,3,1
1558439009899964,-2,-4,-11,-10,-1,-2,-4,-3
1558439009914827,4,1,-1,2,13,12,9,4
1558439009914827,-1,3,0,-1,-5,-4,0,-1
1558439009921838,1,-1,-5,-3,-5,-8,-8,-3
1558439009921838,-4,3,9,1,-2,-4,4,2
1558439009945746,1,-1,-6,-7,-2,0,-3,0
1558439009945746,2,-2,-1,9,5,5,2,-3
1558439009945746,-2,3,-2,2,0,1,-2,-2
1558439009945746,2,1,1,-6,-7,-10,-2,0
1558439009953722,-4,-3,0,7,-1,9,0,-4
1558439009953722,2,-2,-2,-4,2,-6,-2,3
1558439009959705,-2,-4,-3,3,-6,-4,1,2
1558439009959705,2,2,0,-5,2,0,-3,-4
1558439009974702,1,8,1,-3,6,2,4,0
1558439009974702,-8,-10,-2,0,-2,-1,-2,-5
1558439009981649,5,3,-2,-8,-3,-2,1,-2
1558439009981649,-1,2,1,0,-4,-4,-7,0
1558439009997606,-13,-14,-2,4,-6,-8,-8,-4
1558439009997606,1,3,-4,-9,-1,-3,4,2
1558439009998604,3,4,8,7,11,10,4,2
1558439009998604,4,0,-7,-2,-7,-7,-3,-5
1558439010013562,-4,-3,-6,-3,0,5,3,-1
1558439010013562,-3,-5,-5,-7,-5,-1,-3,-1
1558439010019550,-3,0,0,3,-4,-1,-4,0
1558439010019550,-10,-15,-4,-7,-1,-6,-7,-3
1558439010034506,0,4,2,-6,-2,4,-3,-3
1558439010034506,1,0,10,13,4,-1,2,-2
1558439010042511,-2,2,-7,-10,-2,-5,0,0
1558439010042511,-3,-6,-13,-5,2,4,1,0
1558439010057443,0,-3,-1,-1,-6,-6,-6,-3
1558439010057443,1,4,0,1,4,4,-3,1
1558439010058441,1,0,6,15,-3,-3,0,1
1558439010058441,-3,-1,-4,-19,-7,-4,-1,-1
1558439010073401,-1,-2,-4,-4,-4,-3,-9,-4
1558439010073401,-9,-6,-6,0,5,11,4,-2
1558439010079385,0,-2,3,-2,5,-7,0,1
1558439010079385,0,1,-3,6,-3,-9,-3,1
1558439010094347,6,5,2,1,-5,-1,-1,-1
1558439010094347,2,0,5,6,-1,2,-5,-3
1558439010102323,-5,-8,-16,-18,-10,4,-5,-5
1558439010102323,-1,-1,3,-12,0,2,3,2
1558439010119279,3,2,-5,-7,2,-3,0,1
1558439010119279,0,-4,-7,-2,-13,-19,-9,-6
1558439010120527,0,-3,1,9,8,5,5,2
1558439010120527,-1,0,-16,-9,-4,-4,-3,0
1558439010133373,4,4,12,24,6,-1,3,0
1558439010133373,-1,-1,-4,-23,-7,4,8,2
1558439010139410,-7,-12,-9,1,-4,-7,-18,-10
1558439010139410,0,1,7,2,-4,-3,0,1
1558439010155205,-2,-3,-9,-7,-3,0,0,1
1558439010155205,3,1,3,8,4,-5,2,1
1558439010162344,-5,-2,-2,-11,2,0,1,-1
1558439010162344,-2,-1,-2,-5,-2,1,-1,-4
1558439010178122,0,-2,0,6,-2,-1,-1,-3
1558439010178122,1,4,2,-1,-4,2,0,0
1558439010178122,7,6,8,1,2,2,4,6
1558439010178122,0,1,2,18,12,7,-1,0
1558439010193195,-5,-4,-5,-9,-4,-12,6,4
1558439010193195,0,-2,-1,-3,2,-1,0,0
1558439010199072,0,-1,-1,-4,-5,-1,-6,-5
1558439010199072,-2,2,5,9,0,5,2,2
1558439010215023,3,2,7,5,-5,-16,-9,-3
1558439010215023,-5,-6,-3,0,11,16,7,1
1558439010222126,-1,-1,4,4,2,-3,6,4
1558439010222126,-1,-2,-4,-5,-12,-5,-8,-7
1558439010237962,-9,-8,-16,-11,3,4,1,2
1558439010237962,-4,2,1,6,-7,-13,-15,-7
1558439010237962,3,0,7,4,1,3,3,0
1558439010237962,3,-3,-8,-10,1,-4,5,3
1558439010253919,-5,0,5,-5,-6,1,-1,-4
1558439010253919,-1,-2,-3,-8,-5,-3,-5,-2
1558439010259903,-1,-2,5,15,2,0,1,-1
1558439010259903,0,-2,0,3,-1,-5,-3,-3
1558439010274863,4,3,9,9,7,1,5,3
1558439010274863,0,-1,2,0,4,1,3,3
1558439010281844,-2,2,-11,-18,-9,1,-3,-1
1558439010281844,-3,1,15,14,5,7,-3,-3
1558439010297805,-4,-6,-8,-12,-9,-10,-3,-1
1558439010297805,5,6,4,3,10,8,10,5
1558439010298798,4,8,-3,2,5,-6,-6,-1
1558439010298798,-13,-11,2,-4,-1,6,3,-1
1558439010313767,0,2,-1,3,-1,9,0,-2
1558439010313767,0,-4,-2,0,-6,-9,-2,0
1558439010319743,-1,-3,-3,-2,-9,-8,-2,-4
1558439010319743,7,4,3,2,2,2,-2,-2
1558439010334703,-1,-5,0,3,2,3,-3,-4
1558439010334703,0,-1,-13,-20,-4,2,3,1
1558439010341685,-5,-5,-8,-8,-2,1,7,1
1558439010341685,2,3,2,-3,-7,-14,-8,-2
1558439010357642,-4,-1,8,5,10,14,10,5
1558439010357642,-1,-2,-3,-4,-5,-6,-7,-4
1558439010358638,-3,-4,-6,-4,-2,-4,-4,1
1558439010358638,-1,1,-6,-8,-6,-4,0,-2
1558439010373597,4,4,-3,-1,-7,-5,-7,-4
1558439010373597,2,2,0,3,3,9,4,-1
1558439010379601,-11,-3,24,22,12,-1,0,1
1558439010379601,-6,-10,-11,-15,1,5,3,-2
1558439010394543,1,0,-3,-7,-3,3,-2,-2
1558439010394543,-3,0,3,3,-6,-12,-8,-3
1558439010402671,3,-2,-7,1,5,10,3,0
1558439010402671,-1,1,6,13,5,-6,6,1
1558439010417483,1,3,4,4,2,5,-4,-2
1558439010417483,-2,-3,7,10,0,-8,-6,-4
1558439010418480,5,4,1,-13,-5,-1,0,1
1558439010418480,-4,-1,-6,-3,0,1,-2,1
1558439010433439,-7,-8,-10,-6,-7,3,0,-4
1558439010433439,2,2,6,3,-5,-9,0,-2
1558439010439423,-4,-6,-6,1,1,7,-3,-4
1558439010439423,-1,1,5,-2,4,-3,2,1
1558439010456376,4,3,-5,-3,-10,-18,-4,0
1558439010456376,-2,-5,-5,2,3,8,-3,-3
1558439010462363,1,3,-1,-6,-5,-4,-1,-3
1558439010462363,-5,-2,-6,1,-2,3,-4,-3
1558439010479316,2,-5,-3,-6,-2,-7,0,-1
1558439010479316,3,3,6,3,6,7,1,5
1558439010480315,1,1,8,0,-10,-2,2,-1
1558439010480315,3,2,-4,-4,13,4,5,1
1558439010493281,-3,-6,-26,-15,-2,-5,-2,1
1558439010493281,-7,-7,-7,-10,-8,-2,-3,-3
1558439010499270,0,1,0,2,-5,-5,-3,-3
1558439010499270,0,-4,12,16,-10,-9,-7,-4
1558439010514223,-1,3,4,-2,8,13,5,1
1558439010514223,3,1,-2,0,3,1,2,-1
1558439010522236,-2,-1,-5,-2,5,6,1,0
1558439010522236,3,7,-3,-7,-4,-4,1,1
1558439010538191,-3,-5,4,-2,-2,-1,-8,-4
1558439010538191,-1,-2,2,4,-7,-5,-1,2
1558439010538191,-5,-5,3,6,0,-12,1,-1
1558439010538191,5,3,-4,-3,0,-6,-7,-3
1558439010553168,3,4,-12,-5,-5,-6,-4,0
1558439010553168,-2,-2,3,3,10,19,5,1
1558439010559104,-4,-5,-2,-12,-9,-7,-2,-1
1558439010559104,-5,-7,-1,5,5,7,2,-1
1558439010574134,-2,0,2,-7,-2,-8,-1,-1
1558439010574134,0,-5,-4,-1,-5,2,-3,-2
1558439010582067,2,0,-13,-13,-5,1,-7,-3
1558439010582067,3,-1,0,6,-2,0,-2,0
1558439010598000,-2,3,10,12,11,8,7,2
1558439010598000,-2,-1,-11,-9,-8,-8,0,-3
1558439010598000,1,-2,0,2,6,4,0,0
1558439010598000,-12,-8,-13,-11,-10,0,-1,-4
1558439010620075,6,1,4,2,-6,0,-4,-3
1558439010620075,-8,-2,6,-3,-4,-7,-9,-5
1558439010620941,2,1,-8,4,3,2,-2,1
1558439010620941,3,2,7,3,5,-5,5,3
1558439010634898,-3,-3,-1,9,1,0,3,1
1558439010634898,-1,-1,-10,-19,-7,-6,-2,-2
1558439010641882,-2,0,1,-6,-9,-8,-10,-5
1558439010641882,-1,-2,-2,-1,-3,5,-2,-3
1558439010657030,0,-4,5,9,1,0,1,-2
1558439010657030,1,-2,-9,-11,-7,-10,1,-1
1558439010664821,0,1,-8,-1,12,9,9,1
1558439010664821,0,1,0,0,-7,-5,-7,-3
1558439010673795,-3,-1,4,7,-4,0,1,0
1558439010673795,-7,-6,-1,6,-1,0,-10,-7
1558439010679784,4,3,-1,-1,3,2,2,3
1558439010679784,-1,1,7,1,4,1,6,4
1558439010694739,1,0,-3,-3,0,-3,-2,-2
1558439010694739,3,4,1,-4,0,6,1,0
1558439010701723,-3,-1,6,8,-5,4,1,-1
1558439010701723,0,-7,-2,-5,6,-2,-3,-2
1558439010716813,-1,-7,-16,-27,-17,-6,-4,-2
1558439010716813,0,-2,-5,6,13,6,8,2
1558439010724660,-2,3,-7,-6,-11,-11,-1,0
1558439010724660,3,0,12,14,6,9,1,-2
1558439010733635,-4,-2,-5,4,1,-2,2,1
1558439010733635,1,4,-9,-18,-9,-3,-6,-1
1558439010739621,-2,-7,3,6,-3,-2,-2,-3
1558439010739621,-5,-2,-7,-10,-2,-2,4,1
1558439010754771,3,3,14,12,7,5,-2,-1
1558439010754771,-5,-7,-18,-12,0,1,-1,-2
1558439010762578,3,6,6,15,2,-3,-2,-1
1558439010762578,-3,-6,-28,-31,-19,-9,-5,-5
1558439010777517,-3,-2,5,4,6,5,2,0
1558439010777517,5,5,9,10,6,-7,1,3
1558439010784611,-1,-3,10,3,1,-3,0,1
1558439010784611,-7,-6,-4,-4,-1,8,-2,-4
1558439010793475,-2,-1,-3,-1,-9,-8,-6,-4
1558439010793475,1,-2,4,-2,-9,-11,-3,-2
1558439010807437,3,4,-1,3,14,12,0,-2
1558439010807437,-2,3,10,13,7,3,2,3
1558439010814422,-2,1,-6,-14,-2,-3,2,0
1558439010814422,-6,-8,8,10,-2,-1,1,-2
1558439010822400,-5,-9,-10,-9,-15,-18,-14,-5
1558439010822400,6,7,3,-1,5,11,6,1
1558439010837359,-2,2,8,10,9,1,2,4
1558439010837359,0,0,-4,-2,4,5,1,1
1558439010844471,2,-4,0,-16,-7,0,-1,-1
1558439010844471,1,3,-10,-4,-5,-5,-7,-4
1558439010868275,-1,-1,3,5,-4,-4,-3,0
1558439010868275,-4,-2,-9,-5,-6,-4,-6,-3
1558439010869273,-2,0,-1,-2,-2,-11,-3,0
1558439010869273,2,-1,11,12,12,10,9,5
1558439010874260,2,2,-5,-3,2,4,8,2
1558439010874260,0,0,7,6,7,-2,6,5
1558439010882238,0,1,3,3,-2,2,-4,-5
1558439010882238,-1,2,-8,3,-6,-8,-3,-4
1558439010897199,-1,-4,-1,-2,-6,-6,-5,-1
1558439010897199,3,0,10,4,10,11,2,0
1558439010904180,-14,-14,-10,-1,-6,-2,3,-1
1558439010904180,0,0,8,8,-4,-4,-5,-1
1558439010920143,2,3,2,-5,2,2,-1,-2
1558439010920143,2,2,-2,-3,4,3,0,1
1558439010921144,0,1,-2,-3,5,2,3,2
1558439010921144,0,-6,1,3,-4,-1,-5,-3
1558439010934098,-9,-9,3,3,-5,-14,-3,-3
1558439010934098,-2,-2,-13,-18,-13,-12,-4,-2
1558439010942079,0,0,-3,1,7,4,0,2
1558439010942079,-3,-5,-12,-19,-17,-3,-6,-4
1558439010957040,0,-2,4,-1,3,6,-3,-3
1558439010957040,-2,-1,-2,8,-2,1,-1,-1
1558439010972995,2,5,1,-2,5,5,5,2
1558439010972995,-1,-5,3,-11,0,-18,-3,2
1558439010979977,2,-2,-4,-9,5,5,5,2
1558439010979977,-2,-3,-2,9,-7,2,3,-1
1558439010980974,-1,1,1,-2,-3,-1,-8,-4
1558439010980974,1,3,7,10,4,4,4,3
1558439010994936,-3,1,-4,1,0,2,-3,0
1558439010994936,1,-2,-1,-5,0,5,5,-1
1558439011001919,0,-1,-1,4,-5,-15,1,3
1558439011001919,-1,4,8,7,2,0,-2,0
1558439011016878,-2,-4,-18,-12,-6,-2,-4,0
1558439011016878,4,5,0,1,-2,-1,-5,-2
1558439011024993,-2,-5,-7,-4,-4,4,-3,-3
1558439011024993,-3,-4,6,8,1,-5,1,-2
1558439011039949,1,6,4,-6,3,3,2,1
1558439011039949,-1,-4,-1,3,0,2,-1,-1
1558439011040814,-1,-1,-4,-4,0,-5,2,1
1558439011040814,0,-1,-5,-5,-4,0,0,0
1558439011054976,-9,-4,3,10,6,9,1,-3
1558439011054976,-3,-2,1,-1,-5,-11,-4,-1
1558439011061761,-1,-3,-5,-4,-8,-6,-2,0
1558439011061761,0,1,2,-2,-3,4,-1,-4
1558439011076719,-8,-7,-4,-2,-11,-12,-11,-4
1558439011076719,-1,2,4,2,16,14,8,0
1558439011084697,-1,-4,0,2,-1,-5,-2,-1
1558439011084697,2,3,-3,1,5,6,2,0
1558439011100654,2,-1,-2,-12,-4,-5,0,0
1558439011100654,-6,-5,-2,0,-7,-8,-5,-2
1558439011100654,0,3,1,1,5,7,4,0
1558439011100654,-1,1,-7,-4,-2,-2,-4,0
1558439011114616,1,0,2,3,-2,-1,-7,-4
1558439011114616,2,1,-6,-10,-3,-2,1,1
1558439011121598,0,2,4,3,0,-3,-1,-4
1558439011121598,-5,-9,-7,-5,1,0,-1,1
1558439011136559,4,6,-3,-3,-1,1,2,3
1558439011136559,-4,-7,6,9,-4,-9,-10,-6
1558439011144535,-6,-5,-7,-7,-3,10,1,-6
1558439011144535,1,3,2,-1,3,-2,-2,-1
1558439011160500,1,0,-5,-2,1,3,6,2
1558439011160500,-2,0,-2,1,-6,-11,-6,-1
1558439011160500,-1,1,2,6,-2,1,-5,-4
1558439011160500,0,-1,-6,-9,9,11,13,5
1558439011175452,3,3,2,1,-3,-8,-2,-1
1558439011175452,-5,-1,-1,-5,3,2,1,-2
1558439011182438,-1,-1,1,-4,-2,0,0,0
1558439011182438,-1,-4,-4,-1,-10,-7,-12,-6
1558439011205374,-2,-7,-6,1,1,6,4,-1
1558439011205374,4,3,7,-9,-4,-7,0,1
1558439011206382,-3,-3,-8,-11,1,6,3,1
1558439011206382,0,0,-2,2,3,-5,-1,1
1558439011220336,0,-4,-2,-1,-2,5,-1,0
1558439011220336,-1,0,2,1,1,5,-1,-2
1558439011221332,-1,-3,4,0,-2,-7,-3,2
1558439011221332,3,-1,1,1,-6,-9,-4,-1
1558439011236292,2,1,0,-1,3,0,-1,0
1558439011236292,4,3,-2,2,0,0,-1,0
1558439011242276,-8,-7,1,-2,-3,-6,-3,-1
1558439011242276,0,6,-7,-6,-2,6,-3,-4
1558439011257239,-9,-8,9,15,1,-7,-6,-5
1558439011257239,2,0,-16,-29,-1,-1,3,3
1558439011264222,0,2,-3,0,-1,-4,-5,-3
1558439011264222,-3,-4,5,2,0,0,2,-1
1558439011280174,0,2,5,8,0,3,2,-1
1558439011280174,0,-2,-2,-3,0,8,-2,-1
1558439011281171,2,3,4,7,-3,-4,1,0
1558439011281171,-1,0,2,-7,-5,-15,0,0
1558439011296130,2,2,0,-6,5,7,4,5
1558439011296130,-5,-9,-2,11,-1,-1,-5,-3
1558439011302115,1,-4,-7,-11,0,3,4,1
1558439011302115,-7,-7,6,9,-1,2,1,-3
1558439011317081,3,3,0,-7,-8,-7,-4,-4
1558439011317081,3,2,7,4,-6,-12,-2,-2
1558439011324055,0,2,-1,6,8,2,-1,3
1558439011324055,0,1,-2,-8,-2,1,2,-2
1558439011340019,-2,-2,-2,3,-5,-3,-4,0
1558439011340019,-5,-12,-14,-12,-7,7,-3,-5
1558439011341010,-9,-9,-2,-8,-7,-7,-7,-4
1558439011341010,2,1,0,-1,-9,-13,-7,-2
1558439011355976,4,2,-2,-2,17,20,21,7
1558439011355976,-4,2,5,6,1,-4,3,1
1558439011361967,4,0,0,2,-1,3,-2,-3
1558439011361967,-5,-4,-4,-3,-1,0,0,0
1558439011376926,-1,0,-6,-6,-11,-8,-16,-7
1558439011376926,1,2,8,6,6,3,4,1
1558439011384902,-1,-1,-3,1,2,2,3,-1
1558439011384902,1,2,2,1,1,-3,2,0
1558439011399853,0,-1,1,-4,-6,-8,-4,0
1558439011399853,0,-1,-4,2,0,2,-1,-1
1558439011400851,-1,-1,-6,-20,-6,6,0,-2
1558439011400851,3,3,-3,-2,4,4,2,-1
1558439011415812,-6,-4,0,7,-5,-6,0,-1
1558439011415812,-1,3,3,2,1,-3,-3,-3
1558439011421794,2,4,2,4,-3,1,1,0
1558439011421794,4,0,0,5,7,-6,-5,0
1558439011436757,-10,-9,-4,-13,1,2,1,-2
1558439011436757,-2,-2,4,4,-3,0,-2,-3
1558439011444734,3,3,8,15,8,-11,1,1
1558439011444734,-3,-6,-11,-31,-8,5,0,0
