timestamp,emg1,emg2,emg3,emg4,emg5,emg6,emg7,emg8
1558439138980350,-3,-2,-5,0,-5,-2,-4,-1
1558439138980350,-2,-2,1,6,-2,-6,-5,-1
1558439138981348,-1,-1,4,-2,0,4,0,-1
1558439138981348,-4,-2,-10,0,-5,-5,-6,-3
1558439138982344,0,1,1,-3,-3,-2,0,-1
1558439138982344,2,1,-2,-4,10,8,6,3
1558439138989325,2,-1,7,-1,-5,-5,-4,-2
1558439138989325,2,-5,-12,-2,-5,-3,-4,-3
1558439138993317,-7,-4,3,-2,0,-3,2,0
1558439138993317,0,1,1,5,-4,-4,1,0
1558439139004286,0,-1,-6,-12,-6,-7,-2,-3
1558439139004286,1,2,10,6,8,8,5,3
1558439139008277,1,1,-2,-3,1,-6,-5,-4
1558439139008277,-1,-2,5,6,-3,3,-2,-2
1558439139024232,-6,-4,-20,-15,-5,0,2,-1
1558439139024232,-3,-1,0,-6,-11,-9,-9,-5
1558439139031213,2,2,12,12,14,15,8,2
1558439139031213,-2,0,-4,-5,5,6,2,1
1558439139046172,-2,0,1,6,-3,0,0,0
1558439139046172,0,1,6,1,-4,-8,-5,-2
1558439139053155,-3,-3,-12,-12,-7,0,-6,-1
1558439139053155,1,2,5,2,5,-5,3,1
1558439139064129,0,-2,-6,-4,-1,3,-4,-1
1558439139064129,-2,-4,0,0,-1,-1,3,-1
1558439139076092,1,-3,1,3,-8,-1,-3,-2
1558439139076092,-3,-4,-2,0,5,10,0,-6
1558439139122968,1,0,0,3,-2,-5,0,0
1558439139122968,1,0,0,0,4,-1,0,2
1558439139123965,-2,0,1,-2,-4,1,-1,-2
1558439139123965,-1,-1,-10,-13,-7,-3,-2,-1
1558439139123965,-1,-4,2,4,0,-4,-4,0
1558439139123965,0,0,5,-1,4,1,2,0
1558439139124962,4,5,5,8,7,0,1,1
1558439139124962,-3,-2,-3,1,-1,5,-5,-2
1558439139128952,-4,1,-5,-13,-5,-7,-6,-4
1558439139128952,0,-2,-15,-16,-6,-5,0,-1
1558439139143911,2,2,4,7,2,-1,5,1
1558439139143911,-4,-3,-6,-2,-2,-5,0,0
1558439139145906,-1,-1,3,1,-12,-8,-7,-2
1558439139145906,1,0,6,4,1,7,-2,-1
1558439139166850,-1,-1,-1,-2,-1,-5,0,-2
1558439139166850,-1,-3,-1,4,6,-3,-1,1
1558439139167847,0,-2,1,-1,3,11,3,-2
1558439139167847,1,1,-1,2,-7,-3,-2,0
1558439139172833,-2,-3,-1,2,-1,-4,0,2
1558439139172833,0,0,0,-5,-4,-10,-3,-2
1558439139187800,-3,-2,-6,-4,1,-1,-3,-1
1558439139187800,-1,3,5,3,7,9,2,1
1558439139194776,-1,-1,5,8,-4,-3,-8,-3
1558439139194776,3,-1,1,-2,-2,0,1,-1
1558439139203751,-3,-5,-17,-15,-4,3,6,-1
1558439139203751,-3,-1,1,3,-9,-10,-5,-2
1558439139217713,-4,-2,-4,-8,0,0,-1,-4
1558439139217713,-2,-1,1,6,-5,-7,-7,-3
1558439139234669,0,2,9,10,3,8,4,0
1558439139234669,-1,-3,-7,-15,-8,-1,-5,-1
1558439139235666,0,0,0,0,5,-4,-1,1
1558439139235666,-1,1,3,4,2,-5,3,1
1558439139255613,0,0,-8,-7,-1,-1,-4,-4
1558439139255613,-5,-6,-2,1,-8,3,-2,-7
1558439139256610,-2,-2,-5,-6,-3,1,-4,-1
1558439139256610,-1,-2,2,-2,0,-1,-2,-1
1558439139264589,2,3,7,10,5,-2,2,2
1558439139264589,0,-1,-4,-2,-2,-9,-5,-2
1558439139277554,-2,-4,-7,-7,-2,10,1,-1
1558439139277554,4,3,1,1,9,7,3,1
1558439139286789,-8,-7,3,7,1,-5,-4,-2
1558439139286789,-3,-3,-11,-11,-9,-7,-2,-2
1558439139292515,0,-1,3,8,-5,0,-2,-1
1558439139292515,-3,-3,-11,-15,0,-1,0,0
1558439139307474,1,0,0,0,-3,2,-1,-1
1558439139307474,2,1,5,5,6,-7,-2,-1
1558439139315453,-5,-4,-5,-2,-6,3,-3,-3
1558439139315453,-1,-1,3,2,-4,3,-6,-3
1558439139324434,2,1,-1,1,9,6,8,5
1558439139324434,-2,-1,-1,3,2,-8,3,2
1558439139338396,-2,0,-3,-5,-4,-7,-6,-3
1558439139338396,-3,-1,3,4,-5,2,-6,-5
1558439139353353,2,4,-1,-1,-9,-8,-4,-2
1558439139353353,6,1,4,5,9,10,2,2
1558439139354350,-13,-10,-7,-8,-2,-12,-2,-1
1558439139354350,-2,-4,-3,1,0,5,1,-3
1558439139376291,-1,-3,-5,-7,-4,-3,-2,-2
1558439139376291,2,2,0,4,-2,-4,-6,-4
1558439139376291,4,4,6,1,2,10,9,0
1558439139376291,0,1,0,1,2,-6,2,1
1558439139384271,-3,0,0,1,-2,-7,-2,0
1558439139384271,-3,-4,-2,-2,-3,4,-2,-2
1558439139398232,3,3,-1,1,-8,-21,-9,-1
1558439139398232,-1,1,15,7,8,13,7,2
1558439139405214,0,-1,-5,-9,-3,1,-4,-2
1558439139405214,-3,-2,-4,0,3,3,2,-1
1558439139421170,-1,-3,-6,-10,-5,-5,-3,-2
1558439139421170,1,-2,-5,3,-12,-15,-5,-2
1558439139428151,0,0,14,13,17,7,1,1
1558439139428151,-3,-2,-2,-11,5,21,7,0
1558439139435133,-2,-1,-7,1,-2,9,5,0
1558439139435133,2,0,1,-3,-5,-6,-4,-2
1558439139444108,-4,-5,-8,-12,-7,-9,-3,-1
1558439139444108,-1,2,10,18,1,-9,-4,-2
1558439139466050,3,2,-1,-7,5,4,1,0
1558439139466050,1,1,-9,-13,-9,4,-3,-2
1558439139468045,-9,-6,0,3,0,-5,-4,-3
1558439139468045,0,-1,1,-1,-1,-1,-3,-1
1558439139473033,-1,-1,2,6,5,7,1,-1
1558439139473033,-1,0,-2,-2,0,6,1,1
1558439139487991,2,-1,-1,2,-4,-12,-5,-1
1558439139487991,-1,0,-1,-1,-6,-3,2,2
1558439139494973,-2,-4,-8,-4,3,-1,-4,-3
1558439139494973,-4,-3,-2,4,-1,2,2,-1
1558439139511928,3,5,4,6,13,3,6,3
1558439139511928,-1,1,-5,-8,-8,-15,-6,-1
1558439139517911,1,1,7,0,2,11,1,0
1558439139517911,-2,-2,-1,-1,0,3,-2,-2
1558439139532871,0,-2,-4,2,-3,0,4,0
1558439139532871,-1,-1,0,1,-6,-12,-4,-3
1558439139533868,-1,0,1,0,-1,-2,3,2
1558439139533868,-4,-1,0,1,1,-7,-4,0
1558439139547832,2,0,1,-4,2,12,-1,0
1558439139547832,-1,-1,-6,-6,-2,2,3,0
1558439139554812,-1,3,8,3,2,-1,0,1
1558439139554812,-1,-3,-9,-3,-8,-5,-3,-2
1558439139563788,-3,-5,-7,-10,-13,-4,-5,-4
1558439139563788,3,3,4,2,5,10,5,3
1558439139577752,-4,-8,-8,-3,-1,-6,-3,-5
1558439139577752,4,4,10,5,7,-3,1,1
1558439139586727,-3,1,-4,-10,-3,-5,-5,0
1558439139586727,-3,-4,-4,2,3,3,-3,-3
1558439139592713,1,-1,-6,-8,-18,-9,-5,-2
1558439139592713,1,1,0,8,6,6,1,1
1558439139607671,-2,-2,0,-2,-1,0,1,-1
1558439139607671,1,1,6,8,7,4,4,1
1558439139615650,-2,0,8,10,2,-1,-3,-1
1558439139615650,-6,-4,-26,-29,-10,3,2,-2
1558439139631608,2,1,2,-1,-6,-7,-3,-2
1558439139631608,-2,-2,1,3,3,-8,-6,0
1558439139637591,1,0,-1,3,6,7,7,1
1558439139637591,0,0,8,3,1,-2,-2,1
1558439139654545,0,0,-6,-8,-3,4,-3,-2
1558439139654545,-1,-1,1,0,-7,-2,-6,-3
1558439139655543,4,3,2,1,1,-9,-1,0
1558439139655543,0,1,6,5,4,0,3,0
1558439139675489,-3,-1,-7,-15,-9,-6,-5,-1
1558439139675489,0,-2,1,1,-3,4,1,-1
1558439139676487,-7,-4,-12,-10,6,8,1,0
1558439139676487,4,3,5,8,-1,-8,-1,2
1558439139684466,-1,-1,4,10,-2,-3,0,-4
1558439139684466,0,-1,-6,-1,4,3,5,-2
1558439139697431,2,2,0,-6,-5,-1,-6,-3
1558439139697431,-2,-1,-4,-3,1,3,-3,-2
1558439139706407,0,2,2,6,11,13,10,4
1558439139706407,-3,-5,-1,-3,-5,-7,-2,0
1558439139721369,-2,0,1,3,-3,-9,-5,-3
1558439139721369,-5,-5,-2,-6,-12,-14,-9,-5
1558439139727352,1,1,4,6,-4,-3,-7,-3
1558439139727352,0,0,-10,-14,8,19,12,2
1558439139735330,2,1,5,4,1,-2,3,1
1558439139735330,0,1,3,0,9,6,3,1
1558439139744305,4,3,1,4,-4,-5,-2,-1
1558439139744305,-11,-8,-7,-10,-7,-9,-13,-6
1558439139757273,-2,-3,1,4,-8,-3,-4,-2
1558439139757273,0,1,2,-4,1,-4,3,0
1558439139766247,-3,-3,-8,-14,-6,-1,1,-2
1558439139766247,1,2,6,9,2,-3,-3,-1
1558439139780211,-1,-2,-13,-14,-6,-1,0,-1
1558439139780211,-1,1,6,5,4,3,0,-1
1558439139796167,-2,-1,0,3,-2,-3,-3,-2
1558439139796167,-3,-1,-1,-3,-8,-7,-3,-3
1558439139796167,1,-1,1,-7,5,8,5,2
1558439139796167,3,2,1,4,0,2,1,2
1558439139804146,-4,-5,-3,-2,-2,-8,-5,-2
1558439139804146,0,1,-2,-2,-3,0,0,-1
1558439139818109,-1,0,2,4,2,6,-4,0
1558439139818109,-4,-5,-2,-1,-6,-9,-7,-5
1558439139826087,2,2,5,10,7,4,6,2
1558439139826087,-2,-1,-12,-26,-3,-2,0,-2
1558439139841047,1,1,-2,-1,-2,0,0,-1
1558439139841047,-6,-5,0,1,-1,4,-2,-4
1558439139848029,0,0,5,1,3,-4,-3,-3
1558439139848029,2,-5,0,10,-3,1,-1,-1
1558439139855010,-2,0,-13,-20,-5,-8,-1,0
1558439139855010,-2,-5,-7,-5,-9,-6,-6,-3
1558439139863985,-1,0,-4,-2,-3,0,-2,-2
1558439139863985,0,-1,5,3,-6,-8,-3,0
1558439139877948,3,2,9,8,17,14,7,2
1558439139877948,2,3,3,9,2,2,5,-1
1558439139886924,-2,-2,-9,-6,0,0,3,-1
1558439139886924,-1,0,0,-2,-2,-9,-5,-1
1558439139900887,-3,-1,-2,3,-9,-8,-7,-4
1558439139900887,0,-3,-7,-3,-2,-4,1,3
1558439139907868,1,1,7,11,3,3,-1,-1
1558439139907868,6,1,-6,-4,1,5,2,0
1558439139914851,-10,-7,0,-4,-6,-8,-6,-4
1558439139914851,2,1,-1,1,0,8,4,-2
1558439139923832,-6,-5,-2,-4,2,-6,-2,0
1558439139923832,0,1,6,12,1,-1,-1,-3
1558439139937797,-1,2,-2,-6,-4,-2,-1,-2
1558439139937797,1,0,0,-7,-3,1,-1,1
1558439139946763,-2,-1,0,0,6,11,5,4
1558439139946763,-3,0,3,0,1,-4,0,-1
1558439139960727,0,-2,-4,5,4,-3,2,1
1558439139960727,0,-1,-9,-16,-10,-6,-5,-2
1558439139967708,1,-1,-4,-6,0,-1,-5,-1
1558439139967708,-1,-1,2,4,-2,1,-2,-3
1558439139975692,-1,-5,-2,-1,-1,-5,-1,-2
1558439139975692,-2,2,6,9,8,4,2,0
1558439139983666,-3,-4,-3,-5,-2,1,-4,-3
1558439139983666,0,1,-4,-6,-5,-4,-2,-2
1558439139997628,0,-1,3,5,1,0,2,-2
1558439139997628,1,0,-2,2,1,-4,-4,-3
1558439140006605,0,0,-2,0,-1,5,-1,-1
1558439140006605,-2,-2,-5,-12,-2,4,-4,1
1558439140020566,4,2,-2,9,-3,-7,-2,-1
1558439140020566,-12,-6,6,-5,5,1,-1,0
1558439140027548,1,0,2,3,-9,-9,-3,-2
1558439140027548,-2,-4,-18,-16,0,3,-1,1
1558439140035708,0,0,7,6,6,7,1,2
1558439140035708,3,1,3,-6,1,1,-2,-1
1558439140050490,-1,0,-3,-3,-4,-4,0,0
1558439140050490,-6,-1,-4,-1,-5,-4,-3,-3
1558439140058492,-2,0,0,0,-2,-5,-2,-1
1558439140058492,2,1,-3,1,4,-2,3,1
1558439140066444,1,0,1,-1,-4,1,-1,-1
1558439140066444,1,0,5,12,5,3,0,-2
1558439140081405,-4,-1,-5,-15,-6,-6,-5,-2
1558439140081405,-2,-2,-3,1,-6,-4,-3,-3
1558439140088419,3,2,3,4,11,6,4,3
1558439140088419,0,2,1,2,4,5,1,0
1558439140103350,-3,-3,0,0,-1,-5,-2,-2
1558439140103350,0,-3,-4,-7,-3,-7,-2,-1
1558439140110564,-2,-1,-2,-1,-9,-9,-2,-2
1558439140110564,-10,-5,5,4,7,4,0,-1
1558439140117343,1,2,9,6,1,-1,-4,0
1558439140117343,-1,-5,-19,-20,-9,4,-1,0
1558439140126529,-3,-4,3,4,1,1,-2,-1
1558439140126529,0,-5,-12,-12,-8,-12,-6,-4
1558439140141280,3,3,1,-1,0,1,4,1
1558439140141280,-6,-1,4,9,6,4,4,-2
1558439140148247,-2,1,3,2,-6,-4,-5,-1
1558439140148247,-1,-1,5,0,-6,-5,3,-1
1558439140163234,-2,-5,-12,-10,-1,0,-2,-2
1558439140163234,2,3,7,4,0,-1,0,-1
1558439140170208,1,2,-9,-8,5,8,3,0
1558439140170208,-3,0,3,-4,-3,-3,-1,1
1558439140178194,-3,-2,-2,-3,-9,-8,-7,-4
1558439140178194,0,-2,-5,5,-2,7,-1,0
1558439140187123,-2,2,6,5,11,8,9,3
1558439140187123,3,3,0,2,5,-4,1,2
1558439140201087,2,-1,-5,-2,-7,4,2,-1
1558439140201087,-8,-5,0,-2,0,-7,-9,-3
1558439140208069,-3,-5,-11,-7,-5,-4,-4,-5
1558439140208069,0,-2,-7,-10,-9,-5,-4,-5
1558439140223028,-1,-1,9,4,12,6,5,3
1558439140223028,2,2,1,1,-5,-1,-2,-2
1558439140230008,2,1,-2,-6,-7,-9,-4,-1
1558439140230008,1,1,-2,-5,-4,-2,-2,0
1558439140247004,-3,-3,0,2,1,7,-1,-3
1558439140247004,-1,-1,-11,-10,-10,-8,-6,-2
1558439140247963,0,-3,4,3,6,-3,2,2
1558439140247963,-6,-2,-2,-3,0,5,3,-1
1558439140260959,3,2,2,9,8,-4,4,2
1558439140260959,3,0,3,3,-1,-3,-1,-3
1558439140267935,-1,-1,0,-9,-10,0,-8,-5
1558439140267935,-1,-3,-7,-5,-4,-9,-11,-4
1558439140283892,-1,-1,-1,1,-1,5,3,-2
1558439140283892,2,1,5,3,6,-3,1,4
1558439140289882,3,1,-2,-2,-10,-11,-1,-1
1558439140289882,-4,-3,11,17,21,27,13,3
1558439140306804,-5,-5,-16,-18,-18,-2,-9,-4
1558439140306804,-1,0,-3,1,11,7,4,2
1558439140307803,-5,-4,-4,-8,-11,-15,-8,-2
1558439140307803,0,0,1,4,-1,0,-1,-1
1558439140320764,0,-4,1,-4,-2,-7,-2,-3
1558439140320764,-2,-4,-9,-9,2,6,1,-2
1558439140327776,3,5,10,17,15,12,10,4
1558439140327776,-1,-2,-3,-9,-2,-15,-8,-1
1558439140343701,-4,-2,1,-2,-14,-12,-11,-4
1558439140343701,-2,0,-1,-2,-7,3,0,-2
1558439140350683,0,-1,4,9,6,1,4,1
1558439140350683,4,-1,-5,-3,1,11,5,1
1558439140366643,-2,-2,2,-1,2,-4,-6,-2
1558439140366643,0,-2,2,3,2,3,-1,0
1558439140367638,-3,-2,-6,2,-5,-15,-4,-3
1558439140367638,3,3,-2,-9,-4,-5,2,1
1558439140381063,-1,-3,4,12,7,9,2,1
1558439140381063,-2,-2,-6,-9,3,7,4,-3
1558439140387650,-1,-1,-3,-9,-1,9,0,1
1558439140387650,1,0,7,11,-5,-13,-8,-2
1558439140403541,3,1,1,4,3,9,6,1
1558439140403541,4,0,3,-4,4,-5,0,2
1558439140410523,-2,-4,-5,-3,-8,-7,-8,-5
1558439140410523,-2,-2,1,6,5,-3,0,-2
1558439140426481,-3,-3,-7,-12,-8,-6,-8,-3
1558439140426481,-2,2,12,16,0,9,1,0
1558439140427479,4,0,-22,-32,-8,-1,2,-1
1558439140427479,0,1,7,10,7,4,5,1
1558439140440444,-5,-1,-3,3,1,-4,3,-2
1558439140440444,1,1,2,-5,-11,-12,-5,-1
1558439140447424,-4,-3,1,3,-2,-8,-9,-4
1558439140447424,-1,-3,-6,-10,-2,16,6,0
1558439140463773,2,-2,-4,-6,8,-5,6,2
1558439140463773,-6,0,1,6,0,0,-5,-3
1558439140470512,-2,0,-2,-7,-6,1,-6,-3
1558439140470512,-4,-4,2,0,-9,-6,-8,-3
1558439140486625,0,-3,-8,-14,-6,-10,-4,0
1558439140486625,0,0,-2,-1,-6,-12,-1,-1
1558439140488316,2,1,3,9,7,2,0,2
1558439140488316,3,4,-2,-12,1,-2,-3,-2
1558439140501624,3,7,1,1,3,8,3,-1
1558439140501624,-5,-7,-4,2,-10,-17,-8,-3
1558439140508448,-2,-2,3,2,11,20,9,1
1558439140508448,2,2,5,8,-1,-9,-1,1
1558439140523483,1,-2,-2,-2,-6,-6,-7,-2
1558439140523483,-2,-2,-4,-2,4,13,3,-3
1558439140538190,0,-1,3,6,3,8,3,2
1558439140538190,-4,-2,0,6,-2,3,4,-1
1558439140547336,-1,1,0,1,1,-7,2,1
1558439140547336,0,-1,-4,-4,-8,-14,-7,-3
1558439140548162,-1,0,-8,-15,-8,-5,-3,-4
1558439140548162,-1,-4,1,6,11,24,7,1
1558439140561317,0,-2,0,4,-7,-11,-5,1
1558439140561317,2,4,2,0,11,8,6,3
1558439140568145,-3,3,-1,1,-3,-4,-5,-5
1558439140568145,-6,-7,-6,-2,-5,-11,-7,-5
1558439140583070,-1,-6,0,-6,-2,8,1,-2
1558439140583070,4,6,0,-2,-2,-13,-4,1
1558439140590235,5,6,6,2,8,14,12,3
1558439140590235,-4,-12,-1,0,-9,-13,-7,-1
1558439140607033,2,11,4,3,6,3,7,5
1558439140607033,5,5,1,0,1,-4,0,-1
1558439140608005,-20,-24,-7,-3,-12,-8,-10,-6
1558439140608005,-3,-6,-3,-9,-1,-2,-6,-2
1558439140620968,-6,-7,-4,4,-8,3,-4,-4
1558439140620968,7,4,7,3,8,4,8,4
1558439140627946,-3,13,3,4,3,-9,-1,0
1558439140627946,-4,-3,-16,-9,-3,-1,1,-2
1558439140642929,-4,-11,-2,-3,-4,4,-1,-2
1558439140642929,1,4,-2,-2,-10,-7,-8,-2
1558439140649918,8,-7,7,8,1,5,3,2
1558439140649918,3,23,6,4,6,0,-1,-1
1558439140666866,-2,-9,-4,-9,-3,-6,-3,-2
1558439140666866,-14,-24,-13,-1,-7,-3,-4,-5
1558439140667835,0,0,-3,-8,-3,-6,0,1
1558439140667835,3,1,2,-5,-5,0,-5,-1
1558439140680803,3,6,-4,1,1,7,3,-3
1558439140680803,2,4,3,3,0,-3,2,2
1558439140687783,5,-2,6,-1,3,3,2,2
1558439140687783,-9,-2,-5,2,-2,2,3,0
1558439140712223,0,5,5,0,4,-3,-5,1
1558439140712223,-6,-8,-2,-6,-4,-6,-5,-5
1558439140713940,7,6,0,3,3,0,-3,0
1558439140713940,3,0,-1,0,-5,-2,-1,-1
1558439140727052,-6,-5,-1,-4,-4,0,-4,-3
1558439140727052,-3,-3,0,-7,0,8,5,-2
1558439140728799,2,-1,-8,-8,-6,-13,-10,-3
1558439140728799,5,-1,6,6,1,1,-1,-1
1558439140740984,-6,-8,-8,-1,-1,-6,-1,-1
1558439140740984,3,6,4,9,5,3,3,2
1558439140748621,-6,-5,-1,0,-1,3,5,-3
1558439140748621,0,0,-5,-6,-7,-6,-3,0
1558439140763921,6,13,13,12,0,2,-2,-1
1558439140763921,0,-11,-13,-10,-4,0,-5,-3
1558439140770776,-13,-7,5,9,15,14,10,2
1558439140770776,-1,-3,-5,-9,-14,-11,-5,-2
1558439140786727,3,2,4,-2,11,-1,1,4
1558439140786727,1,1,3,5,-10,-14,-8,-2
1558439140787526,-1,-2,-4,-6,-8,-1,-6,-7
1558439140787526,1,1,-7,-8,5,10,3,-2
1558439140800680,-1,-4,-8,-9,1,-2,4,2
1558439140800680,-5,-2,-1,2,1,2,1,-1
1558439140816440,1,-1,-1,-1,-4,-7,0,-1
1558439140816440,0,0,4,1,2,5,0,-2
1558439140823714,-1,-1,-2,-3,-10,-6,-7,-4
1558439140823714,-3,0,3,1,-5,1,-2,-2
1558439140830444,0,-1,-1,1,5,-2,-1,-1
1558439140830444,-3,-6,-14,-16,-11,-15,-5,-1
1558439140847377,2,2,2,1,11,21,6,1
1558439140847377,0,-1,-3,-1,-2,2,1,-2
1558439140848357,-8,-5,1,3,-1,-1,2,0
1558439140848357,3,4,5,4,3,-8,-2,-1
1558439140860325,-3,-5,6,5,1,4,2,-1
1558439140860325,0,-2,-1,-4,-1,-2,-3,-1
1558439140869297,4,1,-2,3,-4,-18,-2,1
1558439140869297,-3,-3,-1,-4,4,7,-2,1
1558439140883541,-4,-1,-7,-7,-11,1,-4,-5
1558439140883541,2,1,5,0,1,7,1,-1
1558439140890561,-1,-1,1,4,0,-4,0,-2
1558439140890561,-2,-2,-3,-4,3,-11,-2,0
1558439140907226,-2,-4,-8,-10,-3,-3,-2,1
1558439140907226,-3,1,-9,-10,-1,3,-2,-1
1558439140908196,1,2,-2,-2,-7,-4,-9,-4
1558439140908196,4,1,3,9,13,15,10,6
1558439140920163,-2,1,4,3,2,-4,1,0
1558439140920163,-2,-3,-6,-11,-6,-6,-4,-2
1558439140929138,2,3,4,0,1,9,3,0
1558439140929138,-1,-3,2,5,-4,-10,-4,-3
1558439140943127,0,-3,-6,-3,-1,-1,0,-2
1558439140943127,0,-1,-4,-2,0,0,0,-1
1558439140950108,-4,-4,-6,-7,-8,2,-10,-6
1558439140950108,0,1,5,-1,-1,8,2,0
1558439140966037,2,2,-3,4,6,-11,2,3
1558439140966037,-1,-1,8,8,10,0,1,2
1558439140973018,1,-1,-13,-5,-2,2,1,0
1558439140973018,-5,-5,1,1,-8,-2,-7,-5
1558439140980453,-5,-6,-5,-3,-13,-13,-10,-7
1558439140980453,-2,-3,-5,-3,-1,1,5,-1
1558439140989383,3,0,4,0,7,-2,2,3
1558439140989383,1,3,9,10,-1,-2,0,0
1558439141003376,-1,-1,-5,-2,-7,0,-5,-5
1558439141003376,0,3,-1,-1,0,1,-1,0
1558439141010372,-1,0,-1,-2,-3,-4,-3,-1
1558439141010372,1,-1,-3,2,3,5,1,1
1558439141026319,2,4,8,8,6,3,8,3
1558439141026319,-1,-2,-1,-5,-3,-1,-3,-3
1558439141033200,-6,-3,-4,-2,0,5,-1,-1
1558439141033200,0,-2,0,4,-3,-4,-4,-3
1558439141041088,-1,0,-6,-12,-5,-5,-2,-2
1558439141041088,0,-2,-2,-3,1,-2,0,2
1558439141048816,-4,-3,3,2,-3,-4,-3,-2
1558439141048816,-3,0,1,-1,-3,0,-5,-3
1558439141063777,-1,0,-7,-1,3,10,5,1
1558439141063777,-2,-3,-2,-1,-6,-10,-3,-4
1558439141069760,3,2,-1,-1,1,-1,-1,-2
1558439141069760,-2,-1,1,4,2,-7,-2,0
1558439141094898,-4,-4,-4,-15,-4,1,-3,-2
1558439141094898,-1,-1,4,8,0,7,-1,-2
1558439141095994,-1,-3,-9,-13,-5,-11,-4,0
1558439141095994,0,-1,-4,-5,-4,-6,1,0
1558439141101011,0,-1,5,8,-4,5,-1,-2
1558439141101011,3,4,5,4,4,1,0,0
1558439141109931,-11,-8,-1,5,-1,2,-2,-4
1558439141109931,-2,-4,-4,-6,-9,-5,-4,-2
1558439141123950,0,1,2,4,6,-8,2,2
1558439141123950,-4,-3,-6,-3,2,7,4,0
1558439141130870,3,0,1,1,-3,-2,-4,-2
1558439141130870,3,2,1,2,2,-1,-1,0
1558439141146556,0,-2,7,8,0,1,1,0
1558439141146556,4,0,-7,-9,-2,2,2,-2
1558439141152541,-5,-1,-3,-9,-8,-7,-3,-3
1558439141152541,-4,-5,-6,1,3,8,0,1
1558439141169769,1,0,-5,-7,-4,-11,-5,-3
1558439141169769,-1,0,4,3,1,-5,1,1
1558439141170493,2,-1,0,4,3,10,2,-1
1558439141170493,-3,-1,1,-3,-1,-3,0,1
1558439141183780,-3,-3,4,6,0,-1,-3,-1
1558439141183780,-2,-6,-8,-9,-10,-9,-4,-1
1558439141190776,1,2,1,2,7,1,6,2
1558439141190776,4,1,4,9,9,6,4,-1
1558439141206738,-4,-2,7,4,3,4,-1,-2
1558439141206738,-6,-4,-18,-7,-9,-12,-6,-5
1558439141220625,1,2,4,0,-6,-1,-5,-2
1558439141220625,0,1,-7,-9,-3,2,5,2
1558439141229595,3,0,2,4,4,3,3,2
1558439141229595,1,1,9,8,5,0,-4,-3
1558439141230335,-5,-5,0,1,-2,0,-2,-2
1558439141230335,-4,-5,-2,-3,-4,-1,-3,-3
1558439141243557,-2,1,-4,-4,-8,-5,-3,-2
1558439141243557,0,3,-1,-9,-3,3,4,3
1558439141250278,3,4,3,8,8,-2,-1,1
1558439141250278,-3,-5,2,-2,-3,-1,-4,-5
1558439141266266,-3,-3,-3,-8,-1,-9,2,1
1558439141266266,-3,-2,-6,-2,3,7,1,-2
1558439141272223,2,-2,-4,-10,-1,6,1,-1
1558439141272223,-2,0,-2,0,-8,-7,-6,-5
1558439141291203,2,1,0,0,11,11,7,1
1558439141291203,-4,-2,4,2,0,-12,-3,-2
1558439141291203,-2,-4,-10,-9,-7,-1,-5,-4
1558439141291203,2,2,-1,-1,3,-1,3,0
1558439141303473,-6,-5,2,2,-10,-14,-12,-3
1558439141303473,-2,0,11,9,7,12,3,1
1558439141310118,0,1,-2,6,5,-4,3,-1
1558439141310118,-2,-2,-12,-15,-10,-7,-9,-3
1558439141326398,-3,-3,-2,-1,-4,-2,-4,-3
1558439141326398,4,1,-3,-2,1,3,2,0
1558439141333057,-4,1,6,13,11,-3,2,1
1558439141333057,-1,0,-1,-3,-2,-3,2,-2
1558439141349014,-1,-2,-7,-7,-5,-3,-4,-2
1558439141349014,-1,-1,-2,0,-5,-2,-3,-3
1558439141350011,2,-1,0,-3,1,8,1,-1
1558439141350011,0,2,4,5,6,-5,3,4
1558439141364109,1,0,0,4,3,-2,-4,-1
1558439141364109,-4,-6,-11,-10,-5,-1,-4,-1
1558439141370264,-1,1,1,-1,-4,-5,-3,-1
1558439141370264,-4,-4,-3,-3,-1,7,-1,-4
1558439141386229,1,2,-4,-3,-7,3,0,0
1558439141386229,-2,0,5,3,-3,-6,-1,1
1558439141393218,-2,-4,-1,-5,-3,-5,-4,-3
1558439141393218,4,0,4,-2,0,-1,1,2
1558439141409158,2,1,-3,-1,1,2,1,-4
1558439141409158,-14,-7,-1,0,1,-4,-2,-3
1558439141411156,-1,-1,-3,-4,-2,-3,-1,0
1558439141411156,-1,-2,-1,5,2,5,0,-1
1558439141424079,-1,-2,-1,-2,-8,-5,-5,-4
1558439141424079,2,2,-3,-7,-3,1,0,0
1558439141430809,0,0,-3,-3,0,-3,3,1
1558439141430809,-4,-2,1,4,2,4,0,0
1558439141445994,-1,-3,-1,3,-2,-3,-2,0
1558439141445994,2,0,2,1,0,2,-6,-4
1558439141453737,0,-3,-5,-4,-4,-4,-4,-2
1558439141453737,1,1,-1,-2,7,11,9,2
1558439141469782,-3,-2,-1,1,-1,-7,-2,1
1558439141469782,1,3,4,4,11,5,7,3
1558439141470690,5,-1,-2,-2,-5,-3,-3,-2
1558439141470690,-9,-3,-2,-3,2,1,-2,-3
1558439141483656,-3,-2,-3,-1,-3,3,-1,0
1558439141483656,0,-2,-4,2,-5,-15,-5,-2
1558439141490892,1,2,6,2,5,6,3,2
1558439141490892,1,2,-6,-13,-13,-7,-5,-2
1558439141505712,-2,-5,0,2,1,4,2,-2
1558439141505712,-3,0,1,0,4,1,0,1
1558439141512918,-3,-2,5,6,-12,-7,-7,-4
1558439141512918,3,-1,-6,-8,3,2,1,1
1558439141529773,-5,-1,-4,-7,-3,-6,-4,-3
1558439141529773,3,1,2,4,-2,-5,4,2
1558439141530530,-2,-3,2,3,1,-3,0,-1
1558439141530530,3,0,-5,-7,-5,-3,-1,-1
1558439141543850,2,2,6,3,11,13,6,1
1558439141543850,-2,-4,-9,-11,-5,-1,-3,-2
1558439141550819,-2,-3,-4,-5,-10,-3,-5,-3
1558439141550819,0,1,2,3,-4,-1,-9,-4
1558439141574716,1,-2,-3,1,-1,3,1,-1
1558439141574716,-1,1,1,2,-2,-19,-3,1
1558439141576406,-1,-1,-4,-6,0,2,1,0
1558439141576406,-2,-1,3,6,0,1,-1,-3
1558439141589643,-4,-2,2,9,3,2,-6,-4
1558439141589643,0,-2,-6,-11,1,17,6,0
1558439141590372,-1,-1,-6,-12,-2,-7,-3,0
1558439141590372,-3,-3,-8,-6,-6,-11,-3,-1
1558439141603336,-3,0,4,-2,-1,-1,-4,-2
1558439141603336,3,0,4,9,4,4,-1,-1
1558439141618317,-3,-2,-1,3,1,1,0,-1
1558439141618317,-1,-1,3,4,1,4,0,-1
1558439141626513,2,1,-1,-5,2,-14,6,5
1558439141626513,-1,2,2,2,-3,-5,-2,-2
1558439141632258,4,2,-6,-8,-2,2,-2,-2
1558439141632258,-12,-3,-2,2,3,4,-5,-4
1558439141650259,-2,-5,-4,-3,-5,-3,-4,-2
1558439141650259,-2,-1,1,1,-2,1,-1,-2
1558439141651211,-1,1,6,5,5,-4,2,2
1558439141651211,1,-3,-14,-15,-10,0,-1,-1
1558439141663173,2,-1,0,2,0,4,0,-1
1558439141663173,0,-2,0,-2,0,-16,-2,2
1558439141671184,-1,0,8,14,2,8,3,-1
1558439141671184,1,2,5,0,9,6,6,3
1558439141686125,-2,-1,-5,-7,-3,-9,0,0
1558439141686125,0,-2,0,-1,0,5,0,-2
1558439141693094,-2,0,0,0,-2,-5,-2,-2
1558439141693094,1,0,-2,-8,-9,-10,-5,-3
1558439141709501,1,-1,2,3,3,9,3,0
1558439141709501,-5,-5,-5,-12,-10,3,-3,-5
1558439141711326,-2,-1,-3,1,8,2,3,2
1558439141711326,1,0,7,13,4,-13,1,1
1558439141723520,1,1,3,5,-1,0,-6,-2
1558439141723520,-4,-4,-9,-11,0,3,-1,-2
1558439141731990,-1,-2,-5,-2,-12,0,-3,-4
1558439141731990,-3,-5,2,6,-2,-4,0,-1
1558439141754069,2,3,-6,-3,6,1,4,2
1558439141754069,1,1,7,6,4,5,3,1
1558439141755927,-1,-2,-7,-7,-4,0,-1,-3
1558439141755927,3,0,-6,-2,3,3,1,-1
1558439141769212,-7,-5,-2,-6,-8,-2,-3,-4
1558439141769212,1,0,0,5,-7,-7,-7,-3
1558439141770884,2,1,1,1,11,6,6,2
1558439141770884,-2,2,1,-1,-4,-4,-1,1
1558439141782854,0,0,1,0,4,7,0,1
1558439141782854,-1,0,0,-1,0,1,0,0
1558439141791830,-3,-3,-1,3,-7,-11,-10,-4
1558439141791830,0,1,0,1,2,6,2,-2
1558439141806092,1,-2,-5,-3,0,-8,2,3
1558439141806092,-4,-1,0,3,-1,-1,0,-3
1558439141813034,-3,-3,5,7,-2,4,-2,0
1558439141813034,-2,-6,-5,-12,-12,-3,-7,-4
1558439141829799,2,5,-2,-5,5,-4,0,-1
1558439141829799,-2,-2,-2,-3,-3,0,0,-1
1558439141830732,0,0,-5,-2,5,7,6,-1
1558439141830732,-1,-1,5,6,-2,-4,0,-1
1558439141851942,1,0,7,8,6,10,6,3
1558439141851942,-1,-2,-22,-21,-12,-11,-7,-5
1558439141852669,1,1,1,-4,4,-3,-6,-2
1558439141852669,0,-1,-2,11,4,10,4,1
1558439141865922,-2,-3,-3,-11,-8,-5,-8,-4
1558439141865922,-1,0,7,8,0,-2,0,0
1558439141873175,-3,-2,-7,-7,-6,-4,1,1
1558439141873175,1,-1,-6,-10,-5,-11,-7,-2
1558439141896838,0,1,2,11,4,6,2,-3
1558439141896838,0,0,3,-3,2,-2,-2,0
1558439141897837,-4,-5,-8,-7,-7,-5,-2,-1
1558439141897837,-1,0,3,3,7,-2,-1,0
1558439141902823,-3,-2,-6,-5,-12,0,-4,-4
1558439141902823,3,0,2,4,0,-1,2,0
1558439141919112,1,0,2,-3,1,1,-1,0
1558439141919112,-3,-3,-5,-6,-3,-4,-5,-4
1558439141926759,-3,-5,-4,-1,-12,-7,-7,-6
1558439141926759,-1,2,4,6,10,3,-1,1
1558439141933179,3,5,2,0,2,0,6,2
1558439141933179,0,-4,2,0,-1,-1,-4,-2
1558439141948142,-3,1,0,-2,0,5,3,-2
1558439141948142,-1,-4,-4,-4,-4,-10,-3,-1
1558439141955473,-4,-2,-1,-1,-5,-6,-5,-1
1558439141955473,1,0,-4,-8,0,6,0,1
1558439141963445,-1,0,1,-1,4,-10,-2,0
1558439141963445,-1,-2,-3,0,-4,1,0,0
1558439141971572,0,0,-1,-5,-2,0,-1,-1
1558439141971572,-1,-1,-1,-4,-11,-9,-8,-4
1558439141985512,-1,0,2,0,5,14,5,1
1558439141985512,1,0,0,4,5,2,1,1
1558439141992494,0,-3,-3,0,-1,-3,-3,0
1558439141992494,-1,-4,-1,5,2,2,1,0
1558439142008487,1,3,-2,-2,-3,4,2,0
1558439142008487,-7,-5,0,-2,-6,-9,-4,-4
1558439142015433,0,1,0,1,4,-1,3,2
1558439142015433,-1,0,2,5,-1,1,4,0
1558439142022414,1,0,-2,-4,0,1,0,-1
1558439142022414,1,0,-3,0,2,10,0,-1
1558439142031391,-1,-4,-14,-22,-9,-10,-7,-4
1558439142031391,-5,-2,1,6,-4,-4,-1,-1
1558439142046794,-1,-1,-1,-2,-8,-13,-10,-3
1558439142046794,-1,-1,9,9,6,2,5,2
1558439142052773,-2,0,5,4,3,4,4,1
1558439142052773,-1,1,4,11,6,-3,1,3
1558439142068325,-3,-3,-9,-17,-13,-11,-9,-1
1558439142068325,-2,-2,-3,-4,0,12,0,-4
1558439142075274,1,-2,-2,4,7,5,3,0
1558439142075274,-1,-1,-2,-4,-3,-7,-3,-3
1558439142092438,1,3,4,4,0,-7,-1,0
1558439142092438,-2,-2,3,3,-5,-7,-2,1
1558439142093226,-4,-7,-2,-7,1,3,-3,-2
1558439142093226,-2,0,-3,-7,0,8,1,-1
1558439142106619,2,-1,-1,3,4,5,5,3
1558439142106619,3,2,-2,-4,0,-7,-2,-3
1558439142113733,-1,0,6,8,-2,3,-1,-1
1558439142113733,0,-2,-6,-4,5,7,2,0
1558439142129208,1,0,-6,-9,-6,-19,-4,0
1558439142129208,1,0,-1,2,1,4,-1,0
1558439142143137,-5,-2,-4,-3,-10,-5,-4,-4
1558439142143137,0,1,1,-1,1,-4,-6,-3
1558439142152158,-5,-6,-1,4,2,9,-3,-4
1558439142152158,1,0,-1,-2,-2,-2,5,4
1558439142152632,-4,-1,2,4,1,-4,-3,-2
1558439142152632,-1,0,0,-6,1,3,2,3
1558439142166646,0,-2,1,3,-1,4,-2,-2
1558439142166646,-2,0,1,2,0,-9,-4,-3
1558439142180557,1,-1,-12,-6,-2,2,1,2
1558439142180557,0,0,1,-1,-3,-1,0,-3
1558439142196901,-2,-1,4,2,0,1,3,2
1558439142196901,-2,-1,-4,-4,-8,1,-1,-2
1558439142197511,3,2,14,11,6,2,2,1
1558439142197511,-1,-5,-17,-22,-7,-15,-5,-3
1558439142219456,-5,-4,-3,6,-3,-6,-1,0
1558439142219456,2,0,-5,-18,-2,5,-1,-4
1558439142219972,-1,0,-2,-3,-10,-8,-6,-4
1558439142219972,-3,0,13,17,7,5,2,1
1558439142226409,1,0,-6,-9,-1,-5,0,0
1558439142226409,2,0,-1,2,1,0,0,1
1558439142240387,-1,-4,0,4,-3,-2,-3,-4
1558439142240387,0,-3,-8,-11,-5,1,-3,-1
1558439142247897,-4,-2,2,5,-4,-1,0,-2
1558439142247897,-1,3,2,8,5,-2,-1,-1
1558439142263192,-2,-3,-5,-8,2,0,-1,-2
1558439142263192,-3,0,3,11,3,11,2,-1
1558439142271863,-1,2,6,6,-1,-2,-1,0
1558439142271863,-2,-2,-10,-16,-8,-19,-6,1
1558439142272832,-1,0,0,-7,-1,0,-2,-2
1558439142272832,0,-3,-2,-1,-1,0,1,0
1558439142285796,-2,-4,-5,-3,-10,3,-6,-7
1558439142285796,-4,-2,4,6,6,14,3,-4
1558439142292777,-1,0,-3,-3,-5,-18,0,1
1558439142292777,-1,-1,3,2,1,0,0,2
1558439142308733,1,-1,-2,-4,3,8,0,-1
1558439142308733,0,-4,1,2,-7,-5,-7,-2
1558439142314718,-3,-2,0,3,0,-5,-4,0
1558439142314718,5,3,-4,-8,-5,-6,-1,0
1558439142331674,-10,-6,1,5,10,3,6,1
1558439142331674,-1,0,-2,-5,4,10,3,0
1558439142332671,-2,-2,-3,-1,-10,-4,-6,-2
1558439142332671,3,2,0,3,-4,4,4,0
1558439142345634,1,-2,-4,-8,1,-3,-4,0
1558439142345634,0,-1,-1,-2,-4,-8,-2,-1
1558439142352651,-1,-2,-3,1,-1,5,1,-1
1558439142352651,-2,3,1,0,-2,-10,-3,0
1558439142368575,4,2,-1,-1,-2,2,0,-1
1558439142368575,-4,-3,-1,-2,-1,-1,-1,-2
1558439142375556,2,5,-2,-2,-4,-2,-4,-2
1558439142375556,-3,-2,1,0,6,8,2,1
1558439142391570,-1,0,6,13,4,-5,2,2
1558439142391570,-1,-2,0,-14,-12,-3,-3,-1
1558439142392568,0,-2,-5,-7,5,4,5,2
1558439142392568,-4,-5,-3,-12,-5,-13,-6,-2
1558439142405477,0,-1,0,-5,-6,-6,-6,-1
1558439142405477,1,-2,-2,3,2,5,-1,-1
1558439142412491,-2,-3,4,6,-3,2,-1,-3
1558439142412491,-2,-4,-6,1,0,-1,-4,-3
1558439142428448,0,0,-1,-8,-2,-1,-1,-2
1558439142428448,0,1,-1,11,2,2,1,-1
1558439142435456,0,1,-5,-5,-3,-5,-3,-1
1558439142435456,0,1,4,7,4,1,4,-1
1558439142459330,-3,-3,-5,-10,-1,3,2,-1
1558439142459330,0,-1,-3,-5,-6,-1,-3,0
1558439142460328,-1,-1,2,7,6,4,-2,0
1558439142460328,1,1,6,2,-6,-4,-8,-2
1558439142465346,2,-1,-4,-4,-1,-2,-2,1
1558439142465346,-1,3,10,10,9,3,5,2
1558439142472355,-2,-5,-3,-6,0,-5,1,1
1558439142472355,-6,-5,-2,0,-10,-2,-5,-4
1558439142496291,0,2,-2,3,1,6,0,-1
1558439142496291,0,-1,-3,1,8,-5,0,1
1558439142498228,2,3,3,6,2,0,4,1
1558439142498228,-1,-4,-6,-2,5,6,-2,-5
1558439142519173,-2,-1,-4,-6,-8,5,0,-2
1558439142519173,2,-2,2,4,0,-7,-3,0
1558439142520170,2,2,3,2,6,-6,6,3
1558439142520170,0,-1,1,1,-1,-8,-1,1
1558439142525190,-1,-2,-2,-5,-5,-1,-3,-4
1558439142525190,-5,-4,-1,1,-4,2,0,-2
1558439142541113,-2,-3,-4,-6,-2,7,-1,-1
1558439142541113,0,1,1,3,-2,-7,-4,1
1558439142548094,-1,1,4,7,10,2,3,2
1558439142548094,-2,1,-3,-6,-9,-4,-4,-3
1558439142563053,-1,-2,-8,-3,-5,5,1,-2
1558439142563053,-6,-4,-4,-1,-3,-3,-2,-4
1558439142571034,2,0,0,2,-1,-13,-7,-1
1558439142571034,2,-1,-4,-1,4,10,9,3
1558439142573027,1,-2,7,4,4,-3,-2,1
1558439142573027,-2,-1,-6,-13,-4,-2,1,1
1558439142584994,-4,-5,-6,1,-2,3,1,-1
1558439142584994,-1,1,1,-1,0,-8,-7,-3
1558439142593970,1,1,2,2,1,0,1,-2
1558439142593970,1,2,4,4,-5,1,-1,0
1558439142607968,-3,1,-1,-7,-3,-4,0,-1
1558439142607968,0,-2,-2,-2,0,1,1,-1
1558439142614917,-2,0,4,7,0,-2,-4,-2
1558439142614917,-1,0,-2,-9,2,3,2,-1
1558439142631869,-1,1,-3,-4,-5,-1,-2,-2
1558439142631869,0,0,-3,-2,0,-3,-2,0
1558439142632869,-3,-3,-1,1,-6,-5,-5,-3
1558439142632869,0,-2,-3,-6,-3,-4,-3,-1
1558439142644834,-2,-3,-1,1,-8,-3,-7,-3
1558439142644834,-3,0,-1,-2,9,19,7,1
1558439142653809,-2,0,6,3,9,-2,7,3
1558439142653809,1,1,-6,-1,3,-5,-1,0
1558439142668771,0,-1,-3,-2,-2,-5,-3,-1
1558439142668771,-3,-1,-3,1,-5,1,-4,-3
1558439142682753,-1,-1,-4,-4,-8,-6,-6,-6
1558439142682753,-2,-2,0,6,-6,0,-3,-4
1558439142691709,1,-3,-6,-18,-5,0,0,-1
1558439142691709,-2,-4,-2,-1,-6,-7,-3,-2
1558439142692707,0,2,3,-1,16,9,12,5
1558439142692707,2,-1,0,6,1,2,-2,-2
1558439142704673,-1,1,9,16,4,5,-1,1
1558439142704673,-3,-4,-14,-25,-13,-14,-7,-2
1558439142713651,0,1,-2,-3,-6,-7,-6,-4
1558439142713651,1,0,1,-2,1,-2,1,-1
1558439142728649,-2,-2,1,1,-1,-3,3,-4
1558439142728649,-1,-2,2,5,7,14,4,2
1558439142735591,1,3,0,1,3,5,1,1
1558439142735591,0,-2,-2,1,3,4,3,1
1558439142751550,-2,-3,-2,-5,-2,-7,-6,-4
1558439142751550,-3,-1,6,10,-3,-4,-4,-2
1558439142752547,-2,-2,-8,-7,-3,-3,-5,-3
1558439142752547,-1,3,4,2,1,4,3,1
1558439142765512,1,0,-8,-4,0,-2,0,1
1558439142765512,1,1,2,-1,11,12,7,2
1558439142774489,-2,-2,1,3,-9,-6,-4,-2
1558439142774489,-2,-3,-1,-2,-3,-3,-3,-3
1558439142788452,-1,3,1,5,2,-3,0,1
1558439142788452,-1,-1,0,-4,-8,-7,-3,-2
1558439142795432,-2,-2,-3,-5,-7,0,-6,-1
1558439142795432,-6,-3,5,5,-1,-5,-2,-2
1558439142811388,-3,0,-5,-8,2,3,0,0
1558439142811388,-1,-1,-5,-1,-5,-16,-5,-2
1558439142812386,-2,0,2,1,7,12,5,0
1558439142812386,0,-1,-1,4,0,2,-2,-1
1558439142825390,-1,-1,-5,-12,-5,-3,1,-2
1558439142825390,0,1,0,-3,-1,1,-2,-1
1558439142834329,-4,-7,-3,-2,0,4,-5,-3
1558439142834329,1,1,2,-3,-4,-9,4,4
1558439142848292,-2,1,3,9,13,9,5,-1
1558439142848292,-1,-1,-2,-2,-3,-6,-3,-2
1558439142862252,-2,0,0,2,5,1,3,1
1558439142862252,-1,0,6,8,0,3,-3,-2
1558439142871230,-2,-1,-6,-17,-8,-3,-2,1
1558439142871230,-2,-2,-4,0,-6,-1,-1,-3
1558439142877213,-1,-1,-5,0,-3,-4,-5,-2
1558439142877213,2,3,-3,-5,4,-3,1,-1
1558439142885225,2,-3,7,14,0,0,1,2
1558439142885225,-4,-3,5,9,7,1,-1,-1
1558439142894167,-1,1,0,-6,-5,3,0,-2
1558439142894167,-5,-3,-18,-17,-19,-10,-8,-5
1558439142908130,0,3,6,7,3,1,-1,1
1558439142908130,1,-1,0,-1,-2,-3,-4,0
1558439142915114,2,-3,3,7,1,-1,0,-2
1558439142915114,-9,-6,-1,-10,4,0,0,1
1558439142931069,0,-1,2,4,-4,-4,4,0
1558439142931069,-4,-3,-4,-5,-2,-2,-3,-1
1558439142938051,-3,-2,3,4,-5,3,-4,-2
1558439142938051,0,0,-4,-4,-1,6,2,-2
1558439142945072,-2,-1,-4,-3,6,-4,1,1
1558439142945072,-1,2,3,6,0,-3,1,-1
1558439142954009,1,-2,-3,-7,-8,-12,-7,-3
1558439142954009,0,-3,-1,3,2,2,3,-1
1558439142967969,-2,-2,1,1,-5,-6,-4,-3
1558439142967969,0,0,-3,0,8,5,3,2
1558439142974992,-2,0,-6,-13,-4,4,1,2
1558439142974992,0,1,5,2,-2,2,-4,-2
1558439142990943,1,-3,-8,-11,-2,-9,-7,-3
1558439142990943,-4,-4,-6,-2,-9,-6,-1,-4
1558439143005904,-1,0,-3,0,-4,-1,0,1
1558439143005904,3,4,9,12,13,8,13,7
1558439143006901,-5,-1,-3,-12,-6,-4,-5,-2
1558439143006901,0,-4,-5,-5,-7,1,-9,-5
1558439143013847,1,0,-5,-1,3,-1,2,0
1558439143013847,1,1,3,-2,-7,-13,-4,0
1558439143027811,-9,-7,0,3,-2,0,-3,-2
1558439143027811,1,-1,0,-2,-5,-3,-3,-5
1558439143034793,-1,1,-1,-3,-4,-1,-2,-4
1558439143034793,1,-1,-1,8,6,2,-1,-2
1558439143050750,0,-2,-9,-15,-5,-7,-2,0
1558439143050750,-2,0,2,1,2,8,2,1
1558439143057733,-1,-1,-3,-6,2,0,2,2
1558439143057733,-1,0,1,0,-2,-4,2,1
1558439143073688,-1,-2,2,7,0,0,-1,-1
1558439143073688,-1,-1,2,1,-2,-1,-2,-2
1558439143075724,0,-3,2,5,-3,-8,-3,-3
1558439143075724,-4,-6,-4,-2,-7,1,-10,-6
1558439143087650,2,4,-3,-1,5,2,8,4
1558439143087650,1,1,0,-1,8,-3,2,2
1558439143096626,-3,0,3,-2,5,2,0,0
1558439143096626,-3,-2,0,2,0,5,-1,-2
1558439143118629,-1,1,10,16,0,2,-4,-2
1558439143118629,3,-1,-9,-13,-5,-3,4,3
1558439143120563,1,1,-5,-3,-5,-7,-5,-2
1558439143120563,-6,-5,-5,-7,-4,-1,-4,-4
1558439143141567,1,-1,2,0,0,7,1,-1
1558439143141567,-3,-1,-1,2,3,-2,-2,-2
1558439143142514,-1,-1,-2,1,-2,-4,-2,-2
1558439143142514,4,2,-2,-6,6,9,5,1
1558439143148501,-1,-4,0,2,-8,-10,-8,-3
1558439143148501,0,0,5,10,-2,1,3,0
1558439143155534,-2,-4,-8,-4,8,8,6,0
1558439143155534,-1,2,-1,-8,-8,-14,-10,-3
1558439143171442,-2,-2,-10,-7,3,17,9,-1
1558439143171442,-4,-4,5,7,0,-10,0,0
1558439143177473,-3,-3,-9,-10,0,6,2,-1
1558439143177473,-1,0,0,0,0,-6,-2,0
1558439143194378,1,0,0,4,-6,-5,-6,-3
1558439143194378,2,3,1,-5,-8,-3,-6,-4
1558439143195365,-14,-11,1,4,0,3,0,0
1558439143195365,1,-1,-1,0,1,2,1,0
1558439143208455,0,0,-6,-11,-5,-2,-3,-3
1558439143208455,-1,-1,-1,5,7,6,0,-1
1558439143215309,1,2,-1,-5,-15,-26,-13,-2
1558439143215309,-1,-2,-2,0,9,18,8,1
1558439143230269,1,0,3,-4,1,5,4,2
1558439143230269,-2,-1,-2,-1,-1,-7,-3,-4
1558439143239244,2,2,0,-1,-2,-7,0,1
1558439143239244,-1,-5,-4,0,-1,-5,-2,-2
1558439143261244,0,2,-1,-2,5,7,5,1
1558439143261244,1,1,0,-1,2,-2,-6,-1
1558439143263208,-2,-4,-1,-5,-5,-4,-1,-3
1558439143263208,-4,-4,4,8,0,-2,-1,0
1558439143268167,-1,-2,-1,-1,-3,-6,-4,-4
1558439143268167,-2,-1,-3,-4,-6,-4,0,1
1558439143284124,3,0,2,7,1,4,0,-2
1558439143284124,0,1,-3,-4,10,14,6,1
1558439143291105,-2,-2,3,1,-3,-12,-6,-2
1558439143291105,1,2,-1,-4,-4,-5,0,0
1558439143305104,-4,0,1,5,4,3,1,0
1558439143305104,-2,-1,-1,2,-1,2,2,2
1558439143314045,-2,-2,-1,3,-2,-2,-7,-1
1558439143314045,-2,-1,6,7,-2,-1,-3,-3
1558439143315044,2,-1,-7,-12,-5,5,0,-2
1558439143315044,1,-2,-3,-9,-10,-16,-5,0
1558439143328007,-3,-1,-3,7,4,-2,0,-2
1558439143328007,-3,-2,-11,-15,-4,2,-1,-2
1558439143334988,1,2,13,11,9,2,4,1
1558439143334988,-2,-2,-7,-9,-15,-11,-9,-4
1558439143350945,-1,1,0,0,0,9,5,0
1558439143350945,0,-1,2,4,2,7,5,2
1558439143357928,-1,-2,0,2,5,-2,-2,1
1558439143357928,-2,0,3,5,3,1,2,-1
1558439143373921,-1,-1,-5,-9,-7,-11,-5,-2
1558439143373921,-3,-2,-5,-4,-3,0,-4,-1
1558439143374882,-1,-1,-3,0,3,10,1,-1
1558439143374882,2,2,5,4,-3,-11,0,-1
1558439143387848,1,1,-1,-4,1,-11,1,1
1558439143387848,-1,1,2,-5,-4,6,-1,1
1558439143396880,3,-2,3,0,-6,-1,0,-3
1558439143396880,-6,-3,1,4,6,4,-2,-2
1558439143418763,-2,-1,-7,-2,1,-4,4,1
1558439143418763,-1,-3,-4,-6,4,-3,-1,0
1558439143420758,3,2,-1,-1,-15,-2,-7,-1
1558439143420758,-1,-1,-2,5,0,4,-3,0
1558439143433723,-2,1,3,2,3,9,-1,-1
1558439143433723,1,-1,-4,-1,1,1,4,1
1558439143435718,-2,-1,3,3,2,-5,-2,-1
1558439143435718,3,0,-1,-4,-5,-5,-1,-2
1558439143448705,-2,-2,-1,2,-2,-9,-5,-2
1558439143448705,-3,-4,-11,-18,-3,3,1,-2
1558439143454667,-1,0,-2,-2,6,1,6,3
1558439143454667,-3,-3,-2,-6,-6,-4,-7,-3
1558439143470625,0,0,4,10,-8,-6,-4,-2
1558439143470625,0,1,5,4,2,6,-1,-2
1558439143477607,-2,-2,-6,-6,-3,-5,0,-1
1558439143477607,2,0,-6,-5,1,0,4,1
1558439143493563,-4,-4,-6,-4,-2,4,-5,-3
1558439143493563,-3,-2,-1,1,0,4,2,1
1558439143493563,2,2,4,6,3,-5,-8,-4
1558439143493563,-5,-3,-1,-4,1,0,4,0
1558439143508550,-1,-1,1,-2,5,3,2,1
1558439143508550,-2,-1,-1,-6,-7,-5,-4,-2
1558439143515505,-1,-2,-7,2,-7,-11,-3,-3
1558439143515505,2,-1,-1,-7,-3,2,3,-1
1558439143539442,-2,-3,2,-1,3,2,3,1
1558439143539442,-2,1,4,7,6,2,1,0
1558439143540439,-3,-1,0,1,-4,-6,-4,-1
1558439143540439,-1,0,-3,-1,-1,3,-4,-3
1558439143560706,-4,-3,-3,-6,-10,-11,-1,-3
1558439143560706,0,-1,2,9,5,0,2,0
1558439143568647,0,0,-2,2,3,7,3,0
1558439143568647,-1,0,-2,-7,-3,-4,-7,-3
1558439143584510,-1,0,-2,-1,2,13,1,0
1558439143584510,-1,-2,-1,-2,-7,-12,-7,-2
1558439143585325,1,1,3,-6,12,9,8,5
1558439143585325,1,-1,3,2,-2,-10,-2,0
1558439143591434,1,-2,3,4,2,5,-3,-3
1558439143591434,-1,-2,-10,-10,-5,6,3,-4
1558439143597289,1,2,1,-4,-6,-9,-5,1
1558439143597289,-2,-3,-7,-7,-5,-10,-3,-1
1558439143613424,1,4,2,1,4,7,3,1
1558439143613424,-2,-5,1,-1,0,-10,-3,-2
1558439143628495,-1,-2,-5,-2,-8,5,-2,-3
1558439143628495,0,-1,-1,4,5,11,9,2
1558439143636474,-4,-1,-1,-1,-2,-12,-4,-4
1558439143636474,2,2,1,0,2,0,-1,-1
1558439143636474,-5,-2,-4,0,-5,-6,-2,-2
1558439143636474,-1,0,0,-5,-2,-4,-2,-1
1558439143651403,1,0,-2,-4,-7,-1,-4,-1
1558439143651403,-1,2,0,4,-1,-2,-2,0
1558439143658421,-3,-4,3,1,5,1,2,1
1558439143658421,-1,-5,-13,-10,0,1,-5,-3
1558439143675084,-2,-2,1,1,-2,-2,-3,0
1558439143675084,1,-2,2,-3,-5,-2,-1,1
1558439143675084,0,-1,-6,-9,-8,-6,-4,-3
1558439143675084,2,0,4,8,8,8,8,1
1558439143696320,0,-2,-3,-7,-2,-1,-5,-1
1558439143696320,-3,-2,1,2,3,1,-2,-2
1558439143696320,3,2,5,0,0,-7,6,0
1558439143696320,1,-1,4,9,3,0,-3,-2
1558439143711982,-2,-1,1,-4,-2,-2,3,-2
1558439143711982,-3,2,-2,-1,-2,4,0,-1
1558439143717964,-4,-4,-9,-5,-6,1,-8,-4
1558439143717964,0,4,5,9,0,-1,-2,1
1558439143734922,1,-1,-7,-9,-3,-5,2,2
1558439143734922,-1,-3,0,3,-2,-5,-5,-2
1558439143734922,0,0,-3,-8,3,17,3,-2
1558439143734922,-1,-2,-1,-5,-7,-7,-7,-2
1558439143755947,0,-1,-2,-1,-3,-5,2,0
1558439143755947,1,1,4,2,3,-1,4,2
1558439143756861,0,-2,1,2,-2,-9,-6,-4
1558439143756861,-1,1,2,0,0,14,7,2
1558439143771830,-3,-4,2,5,3,-2,-3,-2
1558439143771830,-3,-1,-3,-3,3,5,2,-2
1558439143778137,-2,-1,5,5,-1,-6,-2,0
1558439143778137,-1,-2,-3,-4,-1,-6,-4,-2
1558439143794762,1,1,0,2,-4,-1,-5,-2
1558439143794762,0,0,0,6,6,-7,-1,-2
1558439143799746,-4,-6,-9,-17,-4,6,3,0
1558439143799746,2,2,-4,-3,-5,-7,-3,-2
1558439143816728,2,-2,4,6,2,7,2,1
1558439143816728,-2,-4,-11,-13,-2,6,-2,-3
1558439143817697,-4,-2,1,4,-2,-4,2,-3
1558439143817697,0,0,-3,-4,1,0,2,-1
1558439143839639,-1,0,-2,-2,-7,-5,-4,-1
1558439143839639,3,0,3,6,0,-5,-3,0
1558439143840663,0,-1,-7,-7,-4,-5,-3,1
1558439143840663,-1,-1,4,2,10,11,4,0
1558439143860581,0,1,6,7,1,0,-2,-2
1558439143860581,-1,-3,-9,-13,-8,-7,-2,1
1558439143861579,0,1,1,2,2,6,0,-1
1558439143861579,-6,-4,2,6,-5,-2,-4,0
1558439143875543,0,0,2,2,-1,-10,2,0
1558439143875543,-2,-3,-4,1,7,13,5,2
1558439143876540,0,-1,-2,-7,-3,-9,-7,-3
1558439143876540,0,0,-8,-8,-9,-4,-3,-2
1558439143891501,-2,-2,-2,-4,-1,1,-6,-1
1558439143891501,-1,0,4,2,-7,-1,0,-3
1558439143897517,-1,-1,-2,0,-4,-5,-5,-2
1558439143897517,-1,1,6,5,1,2,-1,-2
1558439143912819,-3,-2,-4,-6,2,-1,2,-1
1558439143912819,1,-1,-1,-1,-4,-8,-3,-2
1558439143920423,1,0,6,15,4,2,2,0
1558439143920423,-2,-5,-5,-15,1,1,5,2
1558439143935457,-1,-1,-4,0,1,1,-2,-1
1558439143935457,1,-2,1,1,6,3,4,3
1558439143936382,2,1,6,4,0,6,-2,-5
1558439143936382,-5,-4,-14,-14,-10,-9,-7,-4
1558439143951339,-2,-2,-5,-6,-2,-12,-2,1
1558439143951339,1,4,2,4,5,12,6,2
1558439143957400,-1,-3,0,-2,-1,-7,0,1
1558439143957400,-2,-2,-4,-8,-3,2,0,-3
1558439143972286,-1,-2,-2,-3,0,3,-2,-2
1558439143972286,0,-2,0,2,-8,-9,-10,-6
1558439143980286,-3,-3,-1,2,7,-1,2,1
1558439143980286,1,-1,0,0,-5,-13,-3,0
1558439143996223,0,-3,-1,1,-1,6,1,-2
1558439143996223,-3,-3,-3,-7,-5,2,-5,-4
1558439143996223,0,1,3,3,7,9,9,5
1558439143996223,2,4,5,8,8,-5,2,3
1558439144011180,0,-1,-2,-3,2,2,1,0
1558439144011180,-4,-2,-2,2,-4,-5,-5,-2
1558439144017166,-1,-2,-1,-1,-6,0,-7,-3
1558439144017166,0,-2,-6,-5,-4,-9,-7,-4
1558439144032124,1,1,-5,-2,-2,2,4,1
1558439144032124,0,0,2,1,11,4,4,3
1558439144040155,-3,-1,-9,-3,-2,1,-3,-1
1558439144040155,4,4,15,13,4,1,1,2
1558439144056064,-2,-1,-10,-9,-7,3,-3,-3
1558439144056064,-4,-5,-11,-16,-9,-7,-5,-4
1558439144057069,1,-2,-4,-8,1,0,-2,-2
1558439144057069,-4,-4,0,8,-5,-3,-2,-2
1558439144071107,-1,-2,4,3,2,-2,-1,-1
1558439144071107,-1,1,1,5,-1,-8,-1,1
1558439144078001,0,-1,0,2,1,3,3,-1
1558439144078001,-3,-4,-5,-6,0,0,-2,-2
1558439144092961,1,3,4,8,10,15,6,2
1558439144092961,-2,-6,-6,-16,-11,-12,-5,-2
1558439144099944,-4,-1,0,3,-1,4,-2,-3
1558439144099944,0,-2,-5,-9,-1,0,1,1
1558439144115900,-3,-1,0,2,2,2,-1,-1
1558439144115900,-3,0,4,5,5,-2,-1,0
1558439144116897,1,1,-4,-2,-1,-3,-3,-1
1558439144116897,1,2,3,2,-3,-1,-3,-1
1558439144131858,2,-1,2,1,3,-2,0,-1
1558439144131858,1,2,1,0,0,6,4,0
1558439144137841,-3,-3,1,2,0,1,-1,-2
1558439144137841,3,3,7,8,6,3,2,0
1558439144152802,-3,-2,-2,-8,0,2,2,3
1558439144152802,-2,-3,-5,-6,-13,-9,-4,-5
1558439144159782,0,2,-1,-4,-3,-2,-5,1
1558439144159782,-2,-2,0,2,2,0,-4,-2
1558439144175740,-1,-1,5,9,2,-5,-2,0
1558439144175740,-2,-2,-8,-19,-6,-2,-2,-1
1558439144176737,-4,-3,1,0,-6,-8,-7,-2
1558439144176737,-5,-6,-12,-7,-3,6,3,-3
1558439144191697,-2,-2,2,0,-9,-16,-7,-2
1558439144191697,3,3,-2,4,7,11,7,-1
1558439144197680,1,0,2,2,0,0,4,-1
1558439144197680,0,0,-1,-3,-2,-6,-6,-3
1558439144212640,1,1,-5,-9,-4,6,1,-2
1558439144212640,-2,-6,4,14,1,0,2,0
1558439144220629,1,0,0,-1,0,-7,0,0
1558439144220629,-5,-4,-7,-19,-3,4,-1,-2
1558439144235581,-3,-3,-12,-6,-17,-8,-13,-5
1558439144235581,-3,-1,-6,-5,0,5,-2,1
1558439144236578,0,0,7,2,5,-2,2,2
1558439144236578,1,3,6,6,-2,-9,-1,2
1558439144251538,1,-1,-3,0,10,8,5,0
1558439144251538,1,1,3,3,2,1,1,0
1558439144257527,-1,-2,-3,-3,-5,-3,-5,-1
1558439144257527,-3,-1,0,0,-1,-3,-6,-3
1558439144272483,-4,1,-1,-2,0,3,3,1
1558439144272483,-1,3,3,7,0,-8,-3,-3
1558439144280462,0,-2,-4,-8,-3,-1,0,-1
1558439144280462,-2,-5,-5,0,-9,-3,-1,-6
1558439144295420,5,0,1,-3,8,12,8,1
1558439144295420,-1,-1,7,9,6,-4,4,3
1558439144296418,-1,1,-2,-9,6,5,-1,-2
1558439144296418,-5,-5,-14,-14,-14,-2,-5,0
1558439144311378,-2,-1,1,3,0,0,-3,-2
1558439144311378,2,0,0,3,-3,-1,-3,-1
1558439144318360,1,-3,7,4,4,-4,-2,0
1558439144318360,-10,-7,-2,6,0,2,1,-2
1558439144332328,-1,-1,-1,-7,-4,-15,-9,-4
1558439144332328,-2,0,1,2,1,2,0,0
1558439144340302,-1,0,-6,-5,-2,6,2,1
1558439144340302,2,3,5,-1,7,5,4,3
1558439144355260,-1,-3,4,6,-7,-5,-5,-3
1558439144355260,-1,-3,-9,-14,-13,-10,-5,-5
1558439144356257,2,0,0,-3,3,-2,-2,0
1558439144356257,1,1,5,10,4,4,2,1
1558439144371216,0,0,0,2,-2,-1,4,0
1558439144371216,-2,-1,-4,-2,0,-2,-7,-4
1558439144377203,-4,-3,-3,1,-6,1,-3,-4
1558439144377203,-1,2,2,2,10,8,3,1
1558439144392166,0,-1,3,3,4,-3,4,3
1558439144392166,-1,-4,-3,-3,-8,-8,-3,-3
1558439144400139,1,-1,-4,-2,-4,-2,0,-3
1558439144400139,2,1,9,11,4,0,0,-1
1558439144416097,-1,-3,-13,-8,-6,-3,-6,-3
1558439144416097,0,-1,6,2,4,-3,-1,0
1558439144416097,1,1,-2,-8,-6,0,-1,0
1558439144416097,5,1,-1,-3,-1,1,1,-1
1558439144431059,-4,-3,2,1,-4,-4,-6,-1
1558439144431059,1,-1,-5,-4,1,1,0,2
1558439144437045,-1,0,1,10,-2,-6,-1,-3
1558439144437045,0,1,0,-6,0,0,-1,-2
1558439144452998,-3,-3,-7,-7,-6,-4,-3,-1
1558439144452998,-2,-1,-1,1,-9,-8,-10,-5
1558439144459987,1,1,-2,2,2,5,3,0
1558439144459987,0,0,0,5,5,-2,5,3
1558439144475938,-3,3,8,4,5,3,0,1
1558439144475938,-1,-2,-2,-6,-4,2,-3,-2
1558439144475938,-4,-1,-2,5,-1,-1,-3,-2
1558439144475938,2,-1,-7,-12,-10,-9,-6,-3
1558439144491895,-1,-3,2,0,-4,-5,-1,-3
1558439144491895,1,-4,-2,-2,0,5,-2,-2
1558439144497880,-3,-2,-6,-3,2,-6,-1,0
1558439144497880,-4,-4,-1,2,-5,0,-2,-3
1558439144512838,4,3,2,-3,5,7,6,2
1558439144512838,2,-2,-1,3,-4,-9,-2,-1
1558439144519819,0,-1,4,-1,-1,-2,0,1
1558439144519819,0,-4,-12,-12,-4,-3,-4,1
1558439144535776,-1,-2,-3,2,-6,2,-3,0
1558439144535776,1,3,7,6,4,6,3,-1
1558439144536773,-5,-4,-8,-6,-6,-4,0,-3
1558439144536773,-2,-2,4,3,8,10,3,1
1558439144551735,0,4,2,5,2,-7,-2,-2
1558439144551735,0,0,6,6,10,3,1,2
1558439144557716,-2,-7,-4,-11,-8,-3,-4,-4
1558439144557716,1,2,-1,-3,2,5,-1,-3
1558439144572680,-1,-3,-9,-5,-6,-2,-1,-1
1558439144572680,1,2,3,-3,-1,-3,0,1
1558439144579660,0,1,1,-2,6,-1,2,2
1558439144579660,-4,-5,0,6,-6,-11,-3,-1
1558439144595615,2,1,2,0,6,-6,2,3
1558439144595615,-3,-1,-5,-4,-3,1,-1,-5
1558439144596614,-1,2,1,8,-3,3,-3,-3
1558439144596614,-1,0,-7,-18,-13,-5,-9,-5
1558439144611574,0,0,4,3,13,19,13,4
1558439144611574,0,-2,-7,-4,1,-12,0,0
1558439144617557,-11,-9,4,9,-4,-4,-3,-3
1558439144617557,1,-2,-5,-1,4,5,4,3
1558439144633520,0,-1,0,-5,-7,-14,-6,-3
1558439144633520,0,-3,-7,-2,-2,6,0,1
1558439144639500,1,0,-5,-11,0,11,3,1
1558439144639500,0,2,3,2,-10,-9,-3,-2
1558439144655456,-3,-4,-1,2,2,-6,-5,-2
1558439144655456,-2,-3,3,6,3,3,0,0
1558439144656454,2,2,-2,-10,-4,-6,-6,-1
1558439144656454,-2,-3,3,5,2,5,4,-1
1558439144671416,1,3,2,3,-1,-2,0,1
1558439144671416,-3,0,-7,-7,2,-4,1,1
1558439144677400,2,-2,-2,1,-3,0,-5,-1
1558439144677400,0,1,4,5,5,8,7,0
1558439144700338,-2,-4,-3,3,-1,5,-4,-3
1558439144700338,-2,-1,-1,-3,-6,-3,-4,-2
1558439144701334,0,0,-3,-4,5,9,4,-1
1558439144701334,-7,-5,0,0,-2,-15,-6,-3
1558439144715298,-5,-1,-3,1,-9,-10,-9,-4
1558439144715298,-1,0,-1,-2,5,12,9,4
1558439144722277,1,0,3,5,4,6,1,0
1558439144722277,5,5,1,-1,2,-1,-5,-1
1558439144731256,1,-4,-1,1,-4,-8,1,-1
1558439144731256,-6,-5,-2,-6,-10,-6,-8,-4
1558439144737238,0,2,1,2,2,4,3,-2
1558439144737238,-2,-2,1,5,-2,0,-4,-1
1558439144752201,0,3,-4,-3,5,4,6,2
1558439144752201,3,0,-2,-2,0,-3,1,-2
1558439144760180,-4,-2,3,0,0,-5,1,0
1558439144760180,1,0,-3,1,-3,2,-1,-2
1558439144775137,-2,-4,-5,-8,-4,2,-6,-5
1558439144775137,4,-1,0,1,4,3,4,2
1558439144783116,1,0,2,0,1,-10,-3,1
1558439144783116,0,1,4,2,2,-2,-2,1
1558439144791095,0,-3,-3,-7,0,6,-3,-1
1558439144791095,-2,1,-1,2,-4,3,-2,-3
1558439144806053,-4,-5,0,1,-8,-12,-3,-2
1558439144806053,1,0,-3,-1,10,1,4,1
1558439144812037,-3,0,-3,-10,-1,1,-3,-2
1558439144812037,0,1,2,1,1,10,2,-1
1558439144820016,1,1,-2,4,-2,-3,1,0
1558439144820016,0,0,-2,0,3,-7,3,0
1558439144834977,-3,-4,0,-1,-1,6,0,-1
1558439144834977,-4,-4,3,3,0,-4,-3,-2
1558439144842955,0,-1,-10,-17,-15,-10,-4,-1
1558439144842955,1,-3,1,5,2,9,2,0
1558439144850933,0,0,-9,-17,-7,-8,-4,-3
1558439144850933,1,-2,0,-1,-1,-1,0,0
1558439144857914,-1,-3,5,6,8,2,4,3
1558439144857914,1,1,-3,-9,-4,-10,-4,-2
1558439144872876,0,-1,-1,2,-5,-4,-2,-2
1558439144872876,-5,-5,-11,-13,-9,-3,-2,-5
1558439144879860,-1,2,1,-2,2,9,0,-1
1558439144879860,-3,-2,2,1,-6,-8,-3,-2
1558439144894816,-1,-2,5,12,11,5,4,2
1558439144894816,-2,-1,-1,-6,-2,4,0,0
1558439144902795,0,0,-8,-13,-4,-1,-2,-1
1558439144902795,0,-4,-4,-2,-6,0,0,0
1558439144926733,-1,1,3,-1,-4,-6,-3,-1
1558439144926733,0,-2,-3,3,3,-8,-3,-1
1558439144926733,-3,-2,5,10,5,5,-1,-3
1558439144926733,0,3,3,5,7,13,3,1
1558439144932717,-1,0,2,5,-7,-9,-5,-1
1558439144932717,3,1,-4,-10,-8,-12,-4,-1
1558439144939697,-6,-5,15,23,18,20,11,4
1558439144939697,-6,-4,-5,-12,-8,-6,-9,-2
1558439144955656,3,3,-7,-1,2,10,5,0
1558439144955656,-2,-1,10,7,5,-2,5,1
1558439144970614,1,1,-6,3,-5,-7,-1,-2
1558439144970614,0,-2,3,-10,-1,-1,-4,-2
1558439144978592,-3,-2,-11,-8,-4,5,0,-2
1558439144978592,5,9,8,7,6,5,4,4
1558439144978592,5,-3,-5,-5,-1,-17,-5,1
1558439144978592,-8,-10,-3,9,-5,-9,-8,-2
1558439144993551,-8,-5,2,1,1,2,-1,-3
1558439144993551,-2,-2,-2,-3,-4,1,-1,-4
1558439144999536,0,-3,-6,6,0,3,0,-3
1558439144999536,2,2,-1,1,-2,-6,0,1
1558439145016490,4,2,-1,-15,1,4,2,1
1558439145016490,-1,-5,-9,-1,-7,-2,-10,-4
1558439145022474,-4,-1,-15,-21,-7,-4,-6,-2
1558439145022474,0,1,-1,-1,7,3,9,4
1558439145039434,-2,1,4,4,2,1,-4,-3
1558439145039434,-3,1,6,7,9,6,0,0
1558439145040428,2,2,5,7,0,-3,-6,-2
1558439145040428,-7,-10,-15,-19,-18,-6,-7,-6
1558439145060379,2,0,1,1,-3,-3,5,1
1558439145060379,-1,1,12,10,4,-5,4,2
1558439145061371,0,-2,-18,-18,-12,-3,-4,-4
1558439145061371,2,5,4,4,8,12,4,1
1558439145075333,-1,-2,8,7,-3,-8,-1,1
1558439145075333,-3,-5,-15,-7,2,2,-2,-3
1558439145082315,-3,0,14,6,4,3,5,0
1558439145082315,-9,-9,-15,-13,-5,-1,0,-4
1558439145098280,3,1,-4,-4,3,-1,-5,2
1558439145098280,3,-2,-2,0,-6,-3,2,0
1558439145099269,-1,5,8,6,1,-4,-5,-2
1558439145099269,-6,-14,-18,-12,-7,3,-3,-3
1558439145114231,-2,1,10,18,-1,-9,-3,-3
1558439145114231,-3,-4,-5,-17,-1,10,2,0
1558439145120216,0,3,0,5,6,0,5,4
1558439145120216,5,5,-1,-3,-6,-9,-3,3
1558439145135176,0,-6,-4,1,1,0,-1,0
1558439145135176,1,-1,1,1,-2,0,-7,-5
1558439145142158,-9,-10,-3,-9,-10,-2,-5,-5
1558439145142158,4,6,14,21,6,3,4,0
1558439145158113,2,5,-2,-6,1,-2,0,2
1558439145158113,-2,-4,-9,-4,0,-2,-3,-2
1558439145159110,-6,-9,-2,-13,-2,-1,-1,0
1558439145159110,0,0,-2,-6,2,0,3,-2
1558439145182053,1,3,13,6,2,1,-1,-2
1558439145182053,-1,3,-8,-18,-5,1,2,2
1558439145183046,-2,-8,0,14,6,0,-1,-1
1558439145183046,-1,-1,-2,1,-7,-6,-6,-2
1558439145202994,-2,1,-3,-14,-6,-3,-4,-2
1558439145202994,1,5,4,-2,3,-1,-1,0
1558439145203990,1,-2,1,5,-3,-1,0,-2
1558439145203990,-4,-1,7,5,3,3,0,-2
1558439145225930,-3,-2,-11,-3,3,2,6,1
1558439145225930,0,-1,0,10,3,1,0,-1
1558439145225930,-9,-5,-2,-12,-1,5,-2,-2
1558439145225930,4,4,4,4,3,1,7,2
1558439145233910,-2,-7,-4,-1,-5,-14,-4,-2
1558439145233910,0,-2,-1,13,2,3,3,0
1558439145248868,7,9,-8,-18,-14,-13,-10,-3
1558439145248868,3,6,-2,-3,-4,-1,-4,-2
1558439145254865,-5,-13,6,7,0,0,-1,0
1558439145254865,-8,-5,-5,-6,-1,-1,-1,-4
1558439145270810,2,0,-4,8,-6,-4,-5,-1
1558439145270810,-5,-3,-12,-16,-5,-3,-3,-4
1558439145277792,2,5,-3,-6,-2,-4,-1,-2
1558439145277792,-3,-6,4,3,-1,-1,-2,-2
1558439145278789,2,6,7,6,10,15,6,3
1558439145278789,7,3,12,16,7,4,2,2
1558439145293753,-13,-11,-17,-14,-7,4,3,0
1558439145293753,4,1,3,-3,1,-10,-4,0
1558439145299736,5,3,1,5,0,-3,2,2
1558439145299736,-4,-2,9,-4,5,5,2,1
