timestamp,emg1,emg2,emg3,emg4,emg5,emg6,emg7,emg8
1558439591020095,-2,-1,-3,1,-3,3,-3,-3
1558439591020095,0,1,2,5,3,3,4,4
1558439591020095,-1,0,0,-2,5,2,2,-4
1558439591020095,-2,-1,-3,-3,-7,-11,-5,-3
1558439591021092,-2,1,1,4,1,0,-1,-2
1558439591021092,1,0,-1,-2,3,11,2,1
1558439591022091,2,-2,-2,-4,-7,-2,-7,-2
1558439591022091,1,-2,0,3,2,-5,-4,1
1558439591033061,1,-1,0,-4,-5,-4,1,1
1558439591033061,-1,-3,-2,-3,-4,-3,-2,-3
1558439591042037,1,2,1,4,1,3,6,5
1558439591042037,-14,-8,-3,-1,-7,-13,-9,-3
1558439591048021,2,1,-1,-2,2,4,2,-3
1558439591048021,2,1,-3,-1,-2,-5,-4,-3
1558439591062982,-1,-2,-2,-2,-4,-2,-4,-2
1558439591062982,4,1,-1,-2,6,12,9,1
1558439591070959,-2,-3,-1,-2,-2,-6,-2,-2
1558439591070959,0,0,0,1,0,-9,-4,-3
1558439591077940,2,0,-1,-2,-3,3,-1,-2
1558439591077940,-2,-1,-1,-5,-8,1,-4,-6
1558439591092901,0,-1,2,1,-2,0,-1,3
1558439591092901,1,0,-1,0,3,4,4,2
1558439591139776,-3,-1,-1,3,-4,-5,-6,-3
1558439591139776,2,2,5,1,7,4,9,5
1558439591139776,-3,-2,-3,-6,-2,-1,-3,-2
1558439591139776,3,2,-2,4,3,-1,1,1
1558439591140773,3,2,0,-1,1,1,3,3
1558439591140773,-5,-3,0,-5,-5,-2,-2,-2
1558439591141770,-3,-4,-4,0,-5,-3,-9,-4
1558439591141770,-2,-2,1,1,-4,-4,2,0
1558439591152741,0,-2,-1,-2,6,1,-1,-4
1558439591152741,2,0,-3,0,-4,0,-2,-2
1558439591160720,1,-1,-1,3,-4,-4,-4,-2
1558439591160720,-2,-3,-2,-5,-2,-1,-3,-3
1558439591167700,-2,-3,-6,-4,-2,-5,0,4
1558439591167700,4,0,1,2,1,6,-1,-2
1558439591183658,-15,-7,-2,-1,-1,1,-1,-5
1558439591183658,-1,1,0,-3,0,-3,-5,-1
1558439591189640,0,0,1,-1,-5,-2,-1,0
1558439591189640,0,0,-5,0,1,-2,0,1
1558439591197621,4,3,0,-1,-1,2,4,2
1558439591197621,-2,-2,-2,-2,-1,-1,0,-2
1558439591221559,-4,-3,1,-2,-2,-7,-5,-5
1558439591221559,3,0,-3,-1,0,1,2,3
1558439591221559,0,3,1,1,3,2,2,3
1558439591221559,-3,-3,-3,0,1,1,3,2
1558439591227541,-1,-1,-2,-1,-4,4,-5,-9
1558439591227541,-2,-3,-1,-3,-2,1,2,0
1558439591243499,2,2,0,-1,-4,-8,-1,-1
1558439591243499,0,0,-1,-2,2,-3,0,5
1558439591250479,0,0,1,0,3,8,6,1
1558439591250479,-3,-2,-1,-1,-4,-15,-12,-3
1558439591265439,2,0,0,-2,5,10,9,5
1558439591265439,3,1,-3,-3,-11,-9,-9,-6
1558439591272420,-7,-7,-1,-2,-3,-6,0,-2
1558439591272420,-1,-1,1,2,1,2,-2,-3
1558439591280398,1,-2,-2,-1,5,-1,1,4
1558439591280398,1,-1,-2,-2,-3,3,-3,-2
1558439591287380,3,5,0,-1,3,4,0,0
1558439591287380,1,3,3,0,1,-2,4,3
1558439591303337,-5,-4,-2,0,0,-5,-1,-7
1558439591303337,-1,-1,1,0,0,-4,-2,-2
1558439591310318,-3,-3,-4,-2,-7,-3,-3,0
1558439591310318,-4,-3,-1,-2,-6,1,-4,-4
1558439591317300,1,-1,-2,-4,-5,-8,-7,-3
1558439591317300,0,1,1,2,10,12,14,6
1558439591332260,4,1,3,1,1,-2,-5,1
1558439591332260,-1,0,-4,-3,-3,-2,-1,-3
1558439591341239,3,-1,-1,-1,-2,4,-2,-2
1558439591341239,-11,-6,-4,-1,-7,-6,-10,-8
1558439591347222,-2,-1,-1,-2,3,4,6,3
1558439591347222,0,4,3,3,10,-1,7,6
1558439591363182,1,-1,1,-2,-2,1,2,0
1558439591363182,2,-1,-2,-2,-3,0,-6,-6
1558439591370166,7,5,1,0,2,1,4,6
1558439591370166,-13,-11,-7,-4,-11,-6,-10,-14
1558439591377142,-1,-1,2,0,2,2,2,2
1558439591377142,-1,2,0,0,-1,-1,-3,0
1558439591393100,-1,-2,-1,-3,-7,-5,-1,-5
1558439591393100,0,0,0,0,2,3,4,2
1558439591401077,-2,-2,0,1,10,1,7,3
1558439591401077,-4,-1,-1,-1,1,2,0,0
1558439591407060,0,1,-1,-2,0,-1,4,2
1558439591407060,4,1,-5,-5,-10,-9,-14,-4
1558439591423017,-7,-2,-2,-1,-2,4,0,-7
1558439591423017,-1,-2,-3,-4,-8,-9,-4,-2
1558439591429998,0,0,3,-1,9,3,5,4
1558439591429998,1,-1,1,0,6,-1,0,2
1558439591437976,3,2,2,1,9,15,9,0
1558439591437976,-2,-1,-3,-4,-7,-6,-8,-6
1558439591452936,-7,-1,-3,-2,-10,-12,-15,-11
1558439591452936,-2,-2,-2,-2,-6,0,-8,-5
1558439591460917,5,3,0,-2,0,-7,-3,4
1558439591460917,-10,-8,2,3,7,13,10,2
1558439591467898,1,0,-3,1,-2,5,-3,0
1558439591467898,-1,-1,0,-2,-5,-5,-1,0
1558439591482858,0,-3,-3,-4,-14,-18,-12,0
1558439591482858,6,1,2,-1,-2,-3,-3,-8
1558439591489838,-2,-3,-2,-1,-1,0,-2,-4
1558439591489838,-1,0,0,-3,1,0,5,0
1558439591497818,-4,1,0,0,4,1,-3,-4
1558439591497818,4,1,0,-2,-4,-8,-2,3
1558439591521753,-2,-1,-1,2,7,9,2,-1
1558439591521753,-3,-2,0,-1,2,1,1,-2
1558439591521753,0,-2,-4,-2,-8,0,-6,-5
1558439591521753,2,2,0,0,1,8,1,-1
1558439591527738,-7,-4,-3,-4,-9,-15,-5,2
1558439591527738,1,0,0,1,5,4,6,4
1558439591543702,-3,-7,1,0,-4,-7,-6,-6
1558439591543702,2,-1,-2,-2,-4,-12,-7,1
1558439591549684,2,2,2,-3,0,4,3,0
1558439591549684,6,2,1,5,9,12,9,3
1558439591557663,-4,-4,-5,-2,-7,-5,-4,-2
1558439591557663,-1,0,-1,-1,1,-7,0,3
1558439591572633,1,-1,0,0,-2,1,-3,-5
1558439591572633,-2,0,-1,-2,-1,1,-1,-3
1558439591580605,-2,-2,-1,-2,-2,-2,-3,-1
1558439591580605,1,-2,-1,-1,1,3,2,-1
1558439591587619,-3,-5,-6,-2,-4,-2,-3,-2
1558439591587619,-3,-4,-3,-3,-3,1,-4,-3
1558439591603543,3,4,1,1,-4,-6,-2,-3
1558439591603543,-10,-5,-2,1,4,6,5,-1
1558439591610525,1,2,-1,0,-4,-12,-9,1
1558439591610525,-3,-2,-3,-2,2,-5,2,-2
1558439591617500,-4,-5,-4,-2,-2,-8,-2,-1
1558439591617500,2,1,1,-1,-1,11,-5,-4
1558439591632457,-2,-2,-3,-4,-7,5,-3,-3
1558439591632457,-1,-1,1,2,3,-12,-1,4
1558439591640437,2,1,1,-3,1,-4,-1,0
1558439591640437,4,0,1,1,6,1,5,1
1558439591647418,-3,-6,-4,-5,-12,-5,-8,-2
1558439591647418,-3,0,-2,0,-9,3,-9,-11
1558439591663374,-1,0,-1,2,8,-3,5,3
1558439591663374,-2,-2,0,-1,-5,-4,-5,-2
1558439591670357,1,2,1,3,7,15,8,5
1558439591670357,1,2,3,0,4,2,4,4
1558439591677337,2,4,-2,-3,0,3,0,-1
1558439591677337,-5,-4,-3,-1,-5,-1,-2,-1
1558439591692298,-1,-2,-1,-1,2,-7,5,-3
1558439591692298,-1,-2,0,-1,2,1,-7,2
1558439591700275,2,3,1,0,-1,5,4,-1
1558439591700275,0,-2,-4,-1,-1,-1,-2,-4
1558439591707257,-1,-1,0,-2,-2,0,-4,-4
1558439591707257,-1,-5,-3,-3,-9,-7,-3,-5
1558439591723215,3,0,5,5,13,4,8,10
1558439591723215,-12,-4,-1,-2,-4,-7,-5,-5
1558439591730196,-3,-1,-2,0,0,-2,1,-1
1558439591730196,-5,0,-1,-1,-5,-6,-12,-11
1558439591746153,-2,-2,-3,-2,-1,12,2,0
1558439591746153,4,4,1,1,6,7,8,2
1558439591752136,1,2,2,0,4,-7,-1,2
1558439591752136,-2,-1,-1,0,-5,-6,-4,-7
1558439591761114,4,-1,-2,-1,-4,-2,-5,4
1558439591761114,-7,-6,-1,-4,0,-2,-4,-1
1558439591767097,-2,-2,0,0,-5,2,3,0
1558439591767097,1,1,-2,-3,-5,-1,-3,2
1558439591783054,1,-2,3,2,7,-1,4,0
1558439591783054,6,4,3,1,4,1,-2,-2
1558439591790043,2,-1,-1,-1,-3,-1,-3,0
1558439591790043,-3,-3,0,-3,-7,-4,2,-3
1558439591805993,-5,-1,-2,0,1,7,-3,-8
1558439591805993,2,4,0,2,6,3,10,4
1558439591811978,1,-2,-1,-4,-1,-10,-6,1
1558439591811978,0,-1,-1,0,2,10,1,1
1558439591820953,-1,-2,-5,-5,-14,-10,-8,-4
1558439591820953,-8,-5,-1,-1,-5,-9,-6,-1
1558439591827936,-1,2,3,2,8,10,8,0
1558439591827936,0,1,-3,-3,-5,-7,-8,-1
1558439591842895,-1,-3,-1,0,1,-1,-1,2
1558439591842895,1,0,-1,-1,1,1,5,0
1558439591849879,0,0,-1,-2,-2,-2,-1,2
1558439591849879,-7,-6,-2,-1,-4,-7,-3,-4
1558439591865833,1,1,-2,-3,-2,1,3,2
1558439591865833,-1,0,-3,-3,-10,-1,-11,-12
1558439591872815,-4,-4,-1,1,6,12,11,6
1558439591872815,6,5,5,5,9,0,5,2
1558439591880793,-4,-2,0,-2,2,5,6,4
1558439591880793,1,-2,0,-1,-1,-9,-6,-1
1558439591887774,2,0,-1,-2,-8,-8,-12,-8
1558439591887774,-2,-1,-4,-5,-7,-2,-5,-4
1558439591902736,-5,-4,-1,0,-7,-11,0,0
1558439591902736,2,2,1,1,8,1,7,7
1558439591909716,-3,-2,-4,-2,-5,-3,-3,-5
1558439591909716,1,-2,0,-1,3,13,-1,1
1558439591925675,-2,0,-1,0,-8,-14,-6,-4
1558439591925675,4,1,-2,-3,-4,-16,-6,-2
1558439591932654,-2,0,0,2,12,21,10,2
1558439591932654,-1,1,0,1,9,8,14,5
1558439591940635,-2,-2,-2,-2,-7,3,-9,-9
1558439591940635,0,-2,-1,-3,-9,-8,-8,-3
1558439591947623,-1,-1,-2,-1,-3,-4,-6,-5
1558439591947623,-1,-1,1,-2,-4,-8,-5,6
1558439591963571,1,1,0,3,8,8,3,-5
1558439591963571,0,-1,0,-1,-6,-2,-2,-3
1558439591969555,-1,-1,0,-1,-4,-8,-10,-4
1558439591969555,0,-4,-6,-5,-8,-3,1,1
1558439591985513,-5,-5,-1,1,7,0,2,-2
1558439591985513,0,1,3,0,2,-5,2,2
1558439591992494,-2,-3,-3,1,7,7,2,0
1558439591992494,1,1,-2,-1,-3,3,4,-2
1558439592000473,-3,-1,-1,-4,-5,1,-3,-2
1558439592000473,3,-1,-3,0,-2,2,0,0
1558439592015432,-12,-2,3,1,7,-1,2,1
1558439592015432,0,1,-1,0,1,-2,-1,-2
1558439592023417,-1,-2,-3,-3,-9,1,-4,-8
1558439592023417,-3,-1,0,-3,-1,2,-2,2
1558439592030393,4,2,1,0,1,-16,-1,-3
1558439592030393,-4,-3,-2,1,2,-5,-1,1
1558439592045353,-3,0,-2,-2,-5,1,-6,-5
1558439592045353,-2,-5,-2,-2,-1,6,-1,-1
1558439592052334,7,3,-1,1,-1,-4,6,3
1558439592052334,-2,2,2,2,8,3,0,-3
1558439592060314,2,-3,-2,-6,-5,-9,0,13
1558439592060314,-5,-2,-1,-3,-3,6,-4,-11
1558439592075278,-2,-2,0,-2,-5,0,-2,-4
1558439592075278,1,-2,-3,-3,-5,-4,-4,0
1558439592083253,1,0,0,0,1,-2,0,-2
1558439592083253,2,-2,-1,2,6,11,8,6
1558439592090234,-11,-4,0,0,0,5,0,-3
1558439592090234,1,1,0,-3,-1,-5,-2,-2
1558439592105193,-2,-2,-3,-3,-7,-14,-6,-2
1558439592105193,2,4,2,-1,4,3,4,3
1558439592112174,6,0,-2,0,1,3,2,2
1558439592112174,-2,-4,-4,-2,-8,-5,-12,-5
1558439592128131,-3,-2,0,2,2,-2,-1,-3
1558439592128131,0,1,1,0,2,-2,3,-4
1558439592135113,4,-2,-3,-3,-7,-12,-6,0
1558439592135113,-8,-3,-3,0,-1,-2,4,1
1558439592142100,3,4,1,0,5,8,0,-1
1558439592142100,-4,-1,-4,-4,-11,-7,-9,-6
1558439592151075,1,0,-1,1,2,8,5,6
1558439592151075,1,-4,2,1,3,-2,4,5
1558439592166032,-2,0,-2,-1,-2,-5,-8,-5
1558439592166032,-3,-3,-2,-1,2,2,2,1
1558439592173013,0,1,0,1,-2,-6,-3,-2
1558439592173013,-2,-1,-1,-2,-7,-9,-8,-6
1558439592187977,3,3,1,0,10,16,11,5
1558439592187977,-16,-5,-2,-3,-5,-10,-7,-5
1558439592194955,-2,-6,-3,-4,-6,-6,-2,1
1558439592194955,-1,1,-1,0,-1,-2,-5,-2
1558439592211917,0,-3,-2,-3,-9,-10,-11,-5
1558439592211917,4,1,-1,1,3,2,3,2
1558439592212909,1,2,1,1,11,5,4,-1
1558439592212909,3,2,0,-1,1,3,2,2
1558439592225874,-16,-9,-5,-2,-9,-5,-8,-10
1558439592225874,1,-1,-2,-2,-6,-4,-2,2
1558439592232856,-3,-4,-4,-3,-6,-2,-7,-6
1558439592232856,3,0,3,2,3,6,13,6
1558439592247815,3,1,0,0,6,-2,2,0
1558439592247815,-2,-1,0,-2,1,0,1,-1
1558439592254794,-3,-5,-1,-3,-5,0,-3,-1
1558439592254794,-3,-1,-2,-2,-7,5,-7,-7
1558439592271751,8,3,-2,0,-2,-1,6,5
1558439592271751,-8,-5,0,1,5,-1,5,3
1558439592272746,1,2,-1,-2,-1,-1,-5,-6
1558439592272746,-4,-1,0,-1,2,0,-3,-4
1558439592285712,2,-1,0,-1,1,7,1,5
1558439592285712,2,0,-3,-2,-5,-4,-5,-2
1558439592292698,-2,0,0,-2,-4,-2,-1,-2
1558439592292698,-2,-4,-2,-1,2,1,2,1
1558439592308650,3,6,5,1,5,2,4,2
1558439592308650,-5,-5,-1,2,1,-7,-5,-8
1558439592314634,-5,-2,-1,-3,-3,2,-2,2
1558439592314634,-1,0,0,0,4,2,-6,-8
1558439592331591,2,-2,-3,-1,-5,-8,-4,-1
1558439592331591,3,-1,-2,-3,-5,-4,1,0
1558439592332586,-3,-2,-3,-3,-6,-6,-4,-3
1558439592332586,-1,1,-3,-2,-3,1,-5,-2
1558439592345552,-3,-1,0,1,3,6,2,0
1558439592345552,6,4,0,1,2,-11,-2,2
1558439592352537,-1,2,0,1,6,1,3,-1
1558439592352537,3,-1,1,-2,3,-2,4,7
1558439592368494,2,0,-2,-4,-3,1,-5,-10
1558439592368494,-5,-5,-2,-2,-8,1,-7,-2
1558439592375470,2,-1,-2,-2,-7,-8,-2,-3
1558439592375470,-4,-4,-3,0,5,2,6,2
1558439592399416,0,0,1,0,9,-2,8,3
1558439592399416,5,3,-1,0,2,5,1,2
1558439592400406,-7,-2,-1,-2,-5,-6,-6,-3
1558439592400406,-2,-2,-4,-5,-9,-4,-7,-3
1558439592405398,0,1,-1,2,-2,-6,1,-4
1558439592405398,0,-2,-1,-1,4,4,6,-1
1558439592412372,-2,-3,-2,-1,-3,-2,-8,-4
1558439592412372,1,0,-1,0,3,-5,2,3
1558439592428328,-6,0,1,0,-2,-6,-4,1
1558439592428328,1,-2,-1,-2,4,8,4,1
1558439592435310,1,-3,-3,-1,-2,-3,-6,0
1558439592435310,-3,-2,-1,-1,-1,3,-4,-5
1558439592451267,-2,-2,-4,-4,-5,-1,-3,0
1558439592451267,-1,0,0,2,-1,1,4,0
1558439592453261,-2,-3,0,-1,-3,-9,0,-1
1558439592453261,4,1,-2,-3,-6,-6,-4,-1
1558439592465229,-2,-3,-3,-2,0,2,5,7
1558439592465229,3,0,0,-1,-1,-1,-5,-7
1558439592472211,-13,-8,-3,1,3,9,1,-3
1558439592472211,4,4,2,-2,-4,-5,-5,-3
1558439592488168,-3,-1,-2,-1,-7,-5,-4,0
1558439592488168,-1,-2,-1,0,0,-1,-5,-2
1558439592495149,6,0,-4,-1,-3,-4,3,1
1558439592495149,-5,-5,1,0,3,3,4,-1
1558439592511108,-3,0,2,2,7,7,4,0
1558439592511108,-2,0,-1,-2,-3,-4,-1,0
1558439592513104,0,0,-2,-1,-2,1,-6,-5
1558439592513104,-5,1,0,-1,-5,-6,-4,-2
1558439592526067,1,-2,-3,-5,-3,4,0,-1
1558439592526067,-1,0,-1,-2,2,3,4,0
1558439592532052,1,0,-1,-3,-1,-9,0,1
1558439592532052,-4,-5,-6,-1,-2,5,5,0
1558439592548075,-3,-4,-2,-2,-3,-4,-10,-3
1558439592548075,-3,-1,1,0,-2,0,1,0
1558439592555112,2,1,1,0,-3,-3,0,0
1558439592555112,-1,-1,0,-2,0,-4,-7,-2
1558439592571947,1,0,-5,-5,-5,-4,-3,-4
1558439592571947,1,0,-3,-3,-8,-2,-9,-6
1558439592572949,-5,-3,-3,-1,2,1,0,7
1558439592572949,1,-1,0,-1,0,-10,0,-1
1558439592593893,-2,-3,0,1,0,6,0,-2
1558439592593893,3,-2,0,-3,-2,4,1,2
1558439592594885,3,2,3,2,9,10,7,2
1558439592594885,-5,-4,-4,-5,-7,-1,-7,-8
1558439592608897,-3,-1,-1,0,-8,-20,-11,-3
1558439592608897,-3,0,1,1,4,1,6,6
1558439592614869,-1,-2,-3,0,2,1,-3,-5
1558439592614869,-1,-1,-1,-2,-3,-3,1,0
1558439592638775,-3,-1,-2,-1,2,10,4,1
1558439592638775,-3,-2,-5,-3,-8,-8,-8,-3
1558439592640764,-1,-2,-1,-1,4,4,6,-2
1558439592640764,2,1,-2,1,2,3,4,2
1558439592645748,-2,-2,0,-3,-3,-7,-7,-2
1558439592645748,-2,-3,-4,-2,1,-1,2,-2
1558439592652729,4,2,1,-2,-6,-3,-1,-1
1558439592652729,-6,-2,1,-2,2,-1,-1,-6
1558439592668686,-10,-5,2,3,4,-1,-1,8
1558439592668686,-2,0,-2,-1,-2,-2,0,0
1558439592674671,0,-2,1,-2,-3,2,-1,-1
1558439592674671,-2,1,-4,0,-2,2,-2,-6
1558439592690626,0,-3,-1,-3,2,6,2,-3
1558439592690626,2,-1,2,-1,-2,-4,-3,-1
1558439592697608,-1,0,-1,-3,-6,-1,-3,1
1558439592697608,3,2,2,0,-2,-14,-5,1
1558439592713564,-2,-1,-3,0,3,4,3,-7
1558439592713564,-1,-2,-3,-2,2,-1,0,3
1558439592713564,2,1,3,-2,-4,-5,-2,-4
1558439592713564,-1,-1,0,-1,0,7,0,1
1558439592728525,0,0,-3,-1,-4,4,3,0
1558439592728525,-3,-2,1,-1,1,-6,1,3
1558439592734509,-3,-2,-3,-1,-1,-4,-4,-3
1558439592734509,1,-1,-3,-2,1,5,0,2
1558439592751524,-2,0,-1,-3,-5,-6,-7,-4
1558439592751524,4,3,0,1,8,12,9,3
1558439592751524,-4,-2,0,0,-4,-7,-4,-2
1558439592751524,-2,-1,1,-1,0,3,2,1
1558439592773843,2,1,-2,-3,-6,-4,-3,-2
1558439592773843,-3,-2,1,1,1,4,5,-3
1558439592773843,3,1,1,0,3,0,4,6
1558439592773843,-2,-2,1,0,0,-3,-2,1
1558439592789363,0,-2,-2,-2,-3,-2,-4,0
1558439592789363,-2,-1,-2,-6,-14,-12,-10,-3
1558439592795596,-1,0,0,0,3,6,-2,-9
1558439592795596,1,0,0,1,1,-2,0,2
1558439592810310,-2,-5,-3,0,-2,-5,-2,-2
1558439592810310,-3,-2,-1,-3,-2,-6,-4,-4
1558439592811309,3,-1,-1,-1,5,8,5,3
1558439592811309,0,-2,-4,-2,-5,-3,-1,-2
1558439592833474,0,-4,0,-3,-3,3,0,-2
1558439592833474,0,-1,-1,-1,1,-5,-1,-3
1558439592834246,-3,-1,2,1,3,3,3,2
1558439592834246,2,-2,-1,0,2,4,3,-1
1558439592849272,4,3,-2,-3,-2,-2,-2,1
1558439592849272,-11,-6,-2,0,-3,-1,-5,-2
1558439592855464,1,1,-1,0,3,0,4,4
1558439592855464,-3,-1,0,-2,-4,-8,-8,-3
1558439592871350,-1,-2,-1,-2,5,5,4,-5
1558439592871350,0,-1,-4,-2,-4,-4,-6,-1
1558439592871350,-1,-2,0,-3,-7,-7,-6,0
1558439592871350,1,0,0,0,2,3,2,2
1558439592893153,3,5,1,1,-2,-2,-2,-3
1558439592893153,3,5,1,5,8,9,3,2
1558439592894149,-4,-1,-3,-2,-4,-6,-1,-1
1558439592894149,1,1,0,0,2,3,2,0
1558439592909107,-5,-3,-2,-1,-7,-3,-7,-6
1558439592909107,-2,-1,-1,-2,1,-2,0,-1
1558439592915092,0,-2,0,-1,2,0,-1,-1
1558439592915092,-4,-4,-1,-2,-5,-3,-2,-1
1558439592931048,3,4,2,4,7,1,4,6
1558439592931048,5,0,-3,-5,-1,0,-3,-2
1558439592931048,-5,-1,-3,-1,0,0,-1,-3
1558439592931048,-4,-3,-2,0,-2,0,-2,-6
1558439592952989,0,-3,1,-2,2,1,-2,1
1558439592952989,2,-1,0,-1,-6,-1,0,0
1558439592953987,2,2,-3,0,-2,-2,-7,-2
1558439592953987,-2,-2,0,-1,2,-1,1,0
1558439592968946,-1,-1,0,-3,-4,-11,0,1
1558439592968946,-4,-3,-2,1,-2,0,-2,-5
1558439592975300,-1,-3,-1,-3,0,-2,-1,-3
1558439592975300,-2,-2,-4,-2,-4,0,-5,0
1558439592990241,0,-1,-4,-2,-2,3,-1,0
1558439592990241,1,-2,0,-1,5,5,7,0
1558439592998323,0,0,1,2,-2,-11,-6,-3
1558439592998323,-2,-1,-1,-2,2,0,-2,-5
1558439593014018,-2,-1,-2,-1,-3,-4,-6,-4
1558439593014018,-4,-2,0,-5,-10,-1,-10,-4
1558439593014018,0,-5,-4,-2,5,9,8,6
1558439593014018,3,3,1,1,2,-13,2,3
1558439593029154,-13,-6,-1,0,0,-2,-1,0
1558439593029154,-4,-6,-6,-1,-1,2,1,-2
1558439593035771,1,1,0,-3,-8,-9,-7,-2
1558439593035771,2,1,0,-1,-2,4,-2,0
1558439593049816,3,2,1,0,2,3,6,0
1558439593049816,1,-1,2,1,5,1,0,2
1558439593057989,-3,-1,-1,0,3,6,2,0
1558439593057989,-1,-1,-3,-1,0,-2,0,-1
1558439593074718,4,4,0,-3,0,0,3,1
1558439593074718,-14,-5,-2,0,-3,-3,-4,-4
1558439593075716,-1,-3,-3,-2,-8,-5,-7,-3
1558439593075716,-2,-1,-1,-1,0,0,-2,-5
1558439593088991,-2,-2,-2,2,-4,1,2,0
1558439593088991,7,3,1,1,6,7,10,4
1558439593094669,-3,0,3,0,3,1,-4,-3
1558439593094669,-5,-1,-2,-2,-1,-8,-2,1
1558439593118787,0,-3,0,1,5,2,3,3
1558439593118787,2,1,0,-3,-5,-2,-5,-4
1558439593118787,-1,-1,0,0,-6,-1,-5,-4
1558439593118787,5,2,1,-2,-3,0,-4,-5
1558439593140542,-9,-6,-1,1,10,6,8,0
1558439593140542,-1,1,-3,0,2,-4,-4,0
1558439593141539,0,-3,-3,-3,0,-7,1,3
1558439593141539,1,-1,0,1,-3,2,0,3
1558439593148558,3,0,0,-4,-8,-9,-8,-2
1558439593148558,-3,-1,0,-3,0,2,-3,-9
1558439593154541,-2,-1,-2,-1,-5,-1,-6,-3
1558439593154541,-1,1,-1,-1,6,8,10,5
1558439593170551,2,1,0,-2,0,-6,-3,2
1558439593170551,2,-2,-1,1,3,-3,1,3
1558439593177444,0,2,0,-4,-6,-3,-5,-7
1558439593177444,1,0,0,-2,1,6,5,-1
1558439593193402,-10,-3,-2,-2,-7,-5,-6,-5
1558439593193402,-3,0,-3,-2,-5,-4,-2,3
1558439593193402,0,-1,-2,1,3,2,-2,-3
1558439593193402,-2,-5,-2,-1,-1,-2,1,0
1558439593208520,8,5,3,1,3,-1,0,2
1558439593208520,-3,-3,-3,-3,-9,-5,-5,-4
1558439593231569,-3,-1,-2,-2,-7,-4,-4,0
1558439593231569,-2,-1,-2,0,3,1,0,-3
1558439593232299,1,-2,-1,-2,-3,-2,0,0
1558439593232299,3,1,3,-1,5,4,5,2
1558439593237285,1,1,1,0,1,4,2,-1
1558439593237285,-5,-4,-2,-1,-2,-4,-2,-3
1558439593260223,2,1,1,-2,-1,-2,-5,-2
1558439593260223,1,-2,-3,-2,-7,-7,-8,2
1558439593261220,0,0,-1,1,9,13,12,5
1558439593261220,-3,0,-1,-3,-9,-5,-8,-3
1558439593269199,-2,0,-2,-1,-1,3,0,-3
1558439593269199,-2,-3,-1,-2,-4,-8,-8,-4
1558439593283202,-1,1,0,-1,1,1,3,-1
1558439593283202,-1,1,-2,1,-2,-1,1,0
1558439593290338,-1,-2,-1,-1,-4,2,-3,-3
1558439593290338,-3,-1,0,-1,-7,-6,-9,-4
1558439593298162,0,-4,-3,-1,4,-3,4,3
1558439593298162,2,1,3,-1,2,-9,-2,3
1558439593313081,-2,-2,-3,-2,-1,5,4,1
1558439593313081,9,3,-2,-1,2,1,5,-5
1558439593314078,-22,-12,-6,-2,-3,-4,-9,-5
1558439593314078,-1,0,-1,-1,-2,-4,0,1
1558439593329039,-1,-2,-1,-3,-5,-2,-5,-3
1558439593329039,1,0,1,0,0,-2,-4,-2
1558439593335023,6,3,3,-1,1,0,6,3
1558439593335023,-4,-3,-2,1,6,9,3,-4
1558439593349981,-2,0,1,-3,-5,-9,-6,-1
1558439593349981,-3,-5,-3,-1,-2,4,6,1
1558439593358064,1,2,-1,-1,-1,-3,-4,-1
1558439593358064,-1,-1,-4,-2,-3,-5,-5,-3
1558439593374915,4,2,-2,-1,1,1,-2,-2
1558439593374915,-2,1,0,0,-1,-4,-1,1
1558439593375941,2,2,1,-1,3,2,2,-1
1558439593375941,0,0,-4,-4,-5,2,-4,-2
1558439593405951,-4,-2,-1,0,-4,-8,-7,-2
1558439593405951,1,2,1,1,5,4,8,1
1558439593405951,-1,1,1,-3,3,2,0,3
1558439593405951,2,-3,-3,-1,-2,1,-5,-5
1558439593409822,-10,-1,-1,1,-2,1,1,-5
1558439593409822,-4,-6,-6,-4,-5,-5,-2,1
1558439593418081,4,4,2,1,3,3,1,-1
1558439593418081,1,0,2,-2,0,2,-1,-3
1558439593440986,0,-1,-1,1,3,11,6,8
1558439593440986,0,1,-1,-2,-2,-12,-5,-5
1558439593441737,-2,-2,-4,0,-6,-3,-1,-3
1558439593441737,-2,-2,-2,-3,-5,-1,-4,-2
1558439593448717,3,1,1,0,6,2,4,2
1558439593448717,-3,-1,0,1,0,-1,-1,1
1558439593454986,0,-1,-1,-2,-3,-1,-2,-1
1558439593454986,-3,-1,0,0,-4,-4,-1,0
1558439593470686,-3,-4,-3,-2,-3,-2,-4,-5
1558439593470686,0,0,1,1,2,-6,-4,1
1558439593477640,0,0,0,-1,-3,-1,4,-2
1558439593477640,0,1,1,0,-1,-6,-5,-3
1558439593493597,1,-1,-3,-1,-2,-2,3,6
1558439593493597,-3,-3,-2,-3,-1,2,-2,-1
1558439593493597,-4,-5,0,0,0,2,-2,-2
1558439593493597,1,0,1,0,7,8,8,3
1558439593508564,3,2,-3,-1,1,0,-1,-3
1558439593508564,-10,-6,-3,-3,-7,-5,-7,-10
1558439593523815,-2,-2,-5,-3,-12,-11,-7,-4
1558439593523815,-2,-2,0,-1,-3,-7,-2,0
1558439593538478,0,1,0,0,1,1,-1,-1
1558439593538478,3,-1,-3,0,1,-1,3,2
1558439593538478,1,-2,-1,1,4,10,2,2
1558439593538478,-4,-1,-3,-1,-3,-4,-2,-3
1558439593561415,-4,-1,-1,-3,-5,-3,-5,-4
1558439593561415,-3,0,-1,-2,-4,4,-1,0
1558439593567734,1,-3,-1,-2,-4,-9,-5,0
1558439593567734,5,3,2,1,7,8,3,1
1558439593577372,0,-1,0,-2,-2,-3,2,0
1558439593577372,-1,1,1,0,1,2,0,-1
1558439593583677,1,1,-3,-2,-5,-6,-3,0
1558439593583677,2,1,-2,-1,2,11,4,1
1558439593590669,-5,-7,-1,-2,-4,-5,-2,1
1558439593590669,0,1,2,1,9,7,3,0
1558439593597655,5,0,0,-2,-1,-3,0,1
1558439593597655,-13,-7,-4,-3,-9,-16,-6,-6
1558439593621314,2,0,-1,-1,0,2,0,0
1558439593621314,-3,0,-1,-2,-5,-7,-7,-4
1558439593621314,-2,1,-1,-2,-3,0,-5,-3
1558439593621314,4,1,1,0,3,2,9,6
1558439593629234,-2,-2,0,2,3,3,-8,-11
1558439593629234,-1,-2,0,0,1,-2,0,3
1558439593635546,-2,-1,-3,-1,-5,-6,-6,-5
1558439593635546,3,3,2,1,7,5,5,8
1558439593650452,-1,1,1,-3,-2,-7,-1,-1
1558439593650452,3,-2,-4,-2,-2,4,-1,-3
1558439593658186,-1,-2,1,1,9,8,5,2
1558439593658186,-3,-2,-2,-3,-12,-15,-9,-4
1558439593673057,2,1,0,0,1,-1,1,1
1558439593673057,0,-1,0,1,3,2,4,0
1558439593673796,-2,-3,1,-4,-7,-10,-4,-1
1558439593673796,2,1,-3,0,3,6,5,2
1558439593697736,-8,-6,0,0,1,-1,-3,-2
1558439593697736,-2,-2,-1,-2,-1,2,2,1
1558439593697736,4,0,-3,-2,-3,-2,-2,-4
1558439593697736,4,-1,1,-1,1,-1,-2,-2
1558439593718131,0,-1,-3,-3,-5,-5,-6,-3
1558439593718131,-1,1,0,-2,1,2,3,3
1558439593718933,-3,-1,3,0,0,-2,1,-4
1558439593718933,-4,-3,-4,-3,-10,-3,-13,-6
1558439593741112,4,3,-2,1,7,9,13,3
1558439593741112,1,0,2,1,5,-6,0,2
1558439593748850,2,2,0,0,1,-3,-2,0
1558439593748850,-4,-4,-1,-3,0,3,-3,-2
1558439593749848,-2,-3,-5,-3,-8,-10,-10,-2
1558439593749848,-2,-2,-1,-1,-3,1,-1,-4
1558439593772050,0,1,2,2,7,7,9,1
1558439593772050,-4,-3,-3,-4,-4,0,-3,-4
1558439593772786,-1,-1,4,-1,0,0,2,1
1558439593772786,3,2,2,0,-1,-4,-2,0
1558439593786079,-4,-1,-3,-3,-6,-5,-7,-6
1558439593786079,1,0,0,-2,0,4,2,0
1558439593792730,-8,-5,-1,0,7,9,1,-2
1558439593792730,1,-3,-1,-2,-4,-10,-3,0
1558439593793728,0,-1,0,0,0,5,2,3
1558439593793728,0,-1,-1,-2,-8,-6,-4,-3
1558439593808839,-10,-2,-4,-4,-11,-10,-10,-7
1558439593808839,-2,-1,-5,0,3,8,6,3
1558439593815708,-3,-4,-4,-2,1,0,-3,-2
1558439593815708,4,2,2,2,3,-4,2,5
1558439593829949,2,0,0,0,-1,1,-1,-1
1558439593829949,-5,0,-1,-3,-6,2,-5,-6
1558439593837939,0,-3,-2,-2,-2,1,-1,-1
1558439593837939,-4,-3,1,-3,2,-3,0,-2
1558439593853913,4,2,0,0,1,2,3,1
1558439593853913,-4,-2,-3,-4,-7,-5,-8,-3
1558439593853913,3,0,-3,0,2,-2,2,4
1558439593853913,-2,-3,-1,-1,-2,-3,-6,-3
1558439593868840,1,0,-3,-1,0,0,-5,-4
1558439593868840,0,2,-1,1,7,8,9,0
1558439593883708,-1,-1,-2,-1,2,-1,2,0
1558439593883708,-2,-4,-4,-3,-4,-2,-3,-4
1558439593890688,3,0,-1,-2,-1,-4,1,-1
1558439593890688,0,-2,-1,-2,-9,-8,-8,5
1558439593906474,-3,-2,-3,-2,-2,-2,-5,-2
1558439593906474,3,-1,-2,1,7,2,10,3
1558439593912411,-7,-5,0,-1,1,-1,-5,-5
1558439593912411,0,-4,-6,-3,-5,-2,-1,-4
1558439593928373,-1,-2,-1,-1,-2,-2,-1,0
1558439593928373,-5,0,0,0,-2,-2,-4,-3
1558439593930365,0,-1,1,0,2,-1,3,3
1558439593930365,-1,-1,1,0,4,2,-1,-3
1558439593935352,-1,0,-1,-3,-8,-4,-7,-1
1558439593935352,-3,-2,-4,-2,-12,-7,-8,-4
1558439593958331,2,-1,-3,-1,0,-1,1,2
1558439593958331,0,1,2,1,3,-2,-2,0
1558439593959288,1,-3,-1,-2,4,2,4,-2
1558439593959288,0,-1,1,-2,3,6,3,0
1558439593974249,-1,-2,-2,-2,-7,-2,0,0
1558439593974249,-3,2,-3,-1,-6,-10,-6,-7
1558439593980231,-4,-2,-2,0,3,-1,-5,-2
1558439593980231,0,0,0,-3,-2,0,-1,-1
1558439593989207,4,1,-1,0,2,4,2,2
1558439593989207,-1,2,2,-3,0,1,4,4
1558439593995190,-1,2,-1,0,2,0,5,2
1558439593995190,-1,-4,0,3,2,1,2,3
1558439594018129,0,0,-2,-3,-7,-9,-10,-5
1558439594018129,4,3,2,0,0,3,-4,0
1558439594019127,-6,-2,3,2,0,-13,2,3
1558439594019127,-4,-4,-8,-1,1,4,-3,-3
1558439594040069,0,-1,-3,-1,-1,4,1,0
1558439594040069,-2,-3,-1,-2,-3,0,-3,-2
1558439594041065,-1,1,0,0,0,6,0,-5
1558439594041065,2,2,3,0,4,-3,5,2
1558439594056381,-2,-1,0,-3,-2,-6,-4,-3
1558439594056381,0,-2,-1,-1,-2,2,-4,-1
1558439594063360,-1,-1,-2,-2,-3,-1,-3,0
1558439594063360,1,3,1,0,5,-1,1,1
1558439594070340,0,-1,0,-1,0,2,1,-2
1558439594070340,-2,-4,-1,-2,-1,2,1,-2
1558439594076973,0,-1,-1,-1,-2,-3,-3,-3
1558439594076973,-4,-2,-2,0,-3,-1,0,1
1558439594092401,-1,-1,0,-1,-1,-3,-4,-3
1558439594092401,0,0,1,-1,2,9,8,3
1558439594099910,2,0,-2,-4,-5,-1,-7,-3
1558439594099910,-8,-7,-2,0,-4,-4,-5,2
1558439594115937,0,2,1,1,1,-1,4,0
1558439594115937,0,1,-2,-1,2,-3,2,-1
1558439594117029,-2,1,-4,-1,-6,-2,-5,-3
1558439594117029,3,3,3,-2,-3,-7,-4,-4
1558439594130062,-9,-6,-2,-3,-1,0,-3,0
1558439594130062,0,-1,3,3,6,2,3,0
1558439594137811,-4,-3,-3,1,0,7,5,-1
1558439594137811,0,1,0,-2,-3,-1,-5,-2
1558439594152993,1,-1,0,-2,-3,-8,0,3
1558439594152993,1,0,-3,0,10,16,8,-1
1558439594159754,-1,-2,1,-2,0,0,2,0
1558439594159754,3,2,2,-1,-4,-5,-1,1
1558439594183686,0,1,1,0,-1,-4,0,-3
1558439594183686,-1,-5,-5,-4,-7,-11,-7,-1
1558439594184685,2,-3,-1,-2,-4,3,0,-4
1558439594184685,-1,-4,-4,-2,-2,4,-2,-4
1558439594189719,6,4,0,-1,0,-6,-4,2
1558439594189719,-13,-8,-1,-2,0,3,4,0
1558439594197649,-1,-2,0,0,2,-5,-2,-2
1558439594197649,-2,-2,-3,-2,-8,-7,-5,-2
1558439594212610,0,-2,-4,-2,-3,1,-4,-1
1558439594212610,2,0,0,-3,-3,-6,-8,-1
1558439594219591,1,0,-3,-3,-3,-2,1,0
1558439594219591,3,4,2,4,10,10,5,7
1558439594235546,-12,-3,1,-1,1,2,3,-3
1558439594235546,0,0,0,0,-5,-4,-4,-2
1558439594236543,-2,-1,-1,0,-3,2,-3,-6
1558439594236543,-1,-3,-4,-3,-6,-4,-6,-5
1558439594250736,3,-2,-3,0,4,6,2,2
1558439594250736,-1,0,1,0,-2,-11,-5,-2
1558439594258183,-2,1,2,-2,-2,-4,-1,0
1558439594258183,-3,-2,-5,-2,-1,-2,0,-2
1558439594273081,-2,-1,-1,-2,-3,5,-1,-4
1558439594273081,-1,-3,-3,-2,-5,-3,-1,-2
1558439594279835,4,2,2,1,4,5,4,2
1558439594279835,-9,-4,1,3,8,-5,5,3
1558439594296205,0,-2,-1,-1,-1,-1,-3,-3
1558439594296205,-1,1,0,-1,-4,-2,-5,-5
1558439594296205,-1,-3,-2,-1,-2,-1,-4,-1
1558439594296205,1,0,-1,0,-2,5,-1,-2
1558439594311744,7,1,0,2,7,5,6,7
1558439594311744,-11,-7,-4,0,2,0,2,-2
1558439594317983,-1,0,1,-1,-3,-6,-5,-2
1558439594317983,-3,-5,-2,-3,-3,-1,2,-2
1558439594332689,0,0,0,-1,-5,-4,-8,-7
1558439594332689,4,2,-2,-1,-2,-3,0,0
1558439594340183,-3,1,2,1,1,-1,5,6
1558439594340183,-1,0,0,-2,-5,-6,-10,-10
1558439594356158,-2,-2,0,-4,-5,-4,-3,-3
1558439594356158,1,-2,-1,3,8,11,8,6
1558439594356158,-4,0,-1,-1,3,1,1,0
1558439594356158,4,3,0,-1,4,10,5,5
1558439594370903,-4,-1,0,0,-4,-5,-4,-2
1558439594370903,-4,-3,-4,-5,-7,-9,-6,-4
1558439594377872,2,1,0,-1,-2,0,1,2
1558439594377872,1,-1,4,3,2,5,3,2
1558439594392832,-1,-1,1,0,2,-1,-3,-7
1558439594392832,0,0,-1,-2,-2,-7,-2,2
1558439594399846,1,-3,-3,-2,-1,1,-2,-5
1558439594399846,-13,-5,-1,-3,-5,0,-3,-6
1558439594415930,-1,2,-2,1,3,1,2,4
1558439594415930,1,0,2,0,-1,-2,-1,-1
1558439594416768,-3,-4,-5,-2,-6,-5,-5,-3
1558439594416768,1,-4,-3,-2,-3,-6,-6,-4
1558439594431728,1,-4,-1,-1,2,3,9,6
1558439594431728,0,1,-1,2,4,1,0,-5
1558439594437868,-1,2,-3,1,-4,0,-2,0
1558439594437868,-1,2,-1,0,4,-2,1,0
1558439594452918,-3,-2,-2,-2,-3,-2,-5,-2
1558439594452918,0,-1,1,-2,-9,-5,-5,-2
1558439594459655,1,-1,1,-4,-4,-11,-4,0
1558439594459655,3,3,-1,-2,-1,0,4,2
1558439594475775,-3,-2,-2,0,1,-2,-1,-8
1558439594475775,1,1,1,0,0,4,3,0
1558439594476612,-3,0,-1,1,0,1,-1,-3
1558439594476612,1,-2,-1,-1,-4,-5,-3,0
1558439594491568,0,-1,-1,-3,-5,1,-5,-2
1558439594491568,0,0,0,-1,1,0,-3,3
1558439594497777,0,0,0,0,5,6,5,0
1558439594497777,6,3,0,2,8,8,6,2
1558439594512547,-6,0,1,-1,0,-5,-4,-1
1558439594512547,-2,-4,-4,-3,-7,-1,-7,-6
1558439594520711,-2,-3,0,0,-3,-1,0,0
1558439594520711,1,1,0,2,0,5,0,-1
1558439594535453,-1,-2,0,0,-4,-4,2,1
1558439594535453,3,2,-1,-1,3,4,2,2
1558439594536452,0,0,0,1,-3,-5,2,3
1558439594536452,-6,-5,-4,-3,-11,-14,-14,-10
1558439594551478,3,0,0,1,4,7,4,3
1558439594551478,1,1,2,1,4,-4,1,2
1558439594557625,2,-1,-3,-2,8,11,0,-7
1558439594557625,-15,-10,-4,-5,-6,-1,-2,-8
1558439594572579,0,-2,-3,0,-3,-4,-4,0
1558439594572579,0,-2,0,-3,-1,-5,-1,-2
1558439594580331,1,-2,-2,-3,-5,0,-5,0
1558439594580331,2,1,-1,3,5,2,2,4
1558439594595291,-3,-1,-4,-2,-1,-2,-1,-3
1558439594595291,0,-1,-1,-4,-1,-6,1,-1
1558439594596287,-1,0,1,-1,-3,-1,-2,-1
1558439594596287,5,5,-2,-2,-1,-8,-3,-2
1558439594620258,-5,-2,-1,-3,0,4,-1,-1
1558439594620258,-2,-4,-4,-1,-2,2,1,1
1558439594620258,-2,-3,1,3,6,0,4,2
1558439594620258,1,-1,1,-3,-5,-5,-4,1
1558439594632428,4,1,-1,-1,0,5,3,3
1558439594632428,-1,-2,-4,0,-7,-11,-9,-5
1558439594640169,-1,4,1,0,6,9,4,2
1558439594640169,-3,-1,3,0,-1,0,1,-2
1558439594656198,0,-1,1,0,-3,-7,-5,-3
1558439594656198,-2,-3,0,1,3,10,6,-3
1558439594656198,1,-2,-4,-2,-3,-2,-1,2
1558439594656198,-8,-4,0,-1,3,-1,-4,-7
1558439594671309,-1,-1,-4,-4,-10,-9,-5,0
1558439594671309,1,2,1,1,8,9,6,5
1558439594677080,-1,-2,0,-1,0,-10,2,2
1558439594677080,0,-2,-1,-1,1,1,-2,-2
1558439594692251,-4,-3,-3,-4,-2,6,-5,-3
1558439594692251,-2,-4,-4,-3,-4,4,-2,-4
1558439594700013,1,2,-1,1,0,2,-1,-1
1558439594700013,-11,-4,1,1,0,-8,3,1
1558439594716179,2,-2,-2,-1,-2,-2,-1,0
1558439594716179,1,2,-1,-3,-6,-10,-3,0
1558439594716179,-4,-3,0,-1,-1,4,0,-2
1558439594716179,8,5,0,1,-3,-2,-5,3
1558439594731132,-4,0,-2,1,7,7,3,-4
1558439594731132,-4,0,-2,-2,-3,-4,-6,-9
1558439594738135,-1,-1,-2,-1,-4,-5,-5,1
1558439594738135,1,-2,-1,-4,0,2,5,3
1558439594753051,6,1,0,0,-2,-4,3,5
1558439594753051,-5,-3,1,2,1,0,-1,-1
1558439594759851,-2,-2,-1,-3,-2,-1,-4,-5
1558439594759851,2,-2,-4,-3,-5,-3,-4,-1
1558439594775812,-2,0,0,1,0,-6,-1,0
1558439594775812,0,0,-2,-2,-1,-2,0,0
1558439594775812,-4,-4,-2,-1,-1,-3,-2,-5
1558439594775812,-1,-2,-2,0,-2,-1,2,5
1558439594791764,0,-1,0,-2,3,-2,-3,-6
1558439594791764,4,2,1,0,1,6,4,4
1558439594797750,-3,-2,-1,0,-1,-1,-3,-1
1558439594797750,2,1,1,-1,-2,0,1,0
1558439594812708,-10,-7,-1,-2,-6,-16,-3,-5
1558439594812708,-3,-2,-2,-3,0,4,-2,-2
1558439594819944,-2,-3,-4,-1,-6,-6,-5,-2
1558439594819944,1,1,-2,-2,1,3,-1,2
1558439594835757,0,1,-1,-2,-2,9,2,-4
1558439594835757,4,2,1,2,0,-8,0,1
1558439594842628,1,1,-1,-3,-2,-7,-5,-6
1558439594842628,0,-4,0,0,0,2,2,-1
1558439594851250,4,0,1,2,9,12,8,8
1558439594851250,-5,-4,-3,-2,-7,-9,-9,-5
1558439594858103,3,1,0,-2,-2,-5,-4,-3
1558439594858103,0,0,-4,-2,0,0,0,-3
1558439594873264,0,-3,-3,-2,-3,-2,-6,0
1558439594873264,0,-1,2,-1,4,9,7,2
1558439594880177,-4,-5,-4,-4,-9,-13,-6,-1
1558439594880177,-1,-4,-1,-2,-5,-8,-7,-4
1558439594894868,2,0,1,1,8,19,14,5
1558439594894868,-2,2,0,-2,-4,-1,-2,-1
1558439594903074,-1,0,0,2,0,-3,0,1
1558439594903074,-1,1,0,-2,-5,-3,-4,-2
1558439594911823,-9,-6,-1,-1,-6,-4,-4,-3
1558439594911823,0,-1,2,1,6,10,5,2
1558439594917807,-2,1,0,0,0,0,-1,-7
1558439594917807,-3,0,-1,-1,-2,-1,-1,5
1558439594932768,2,4,0,-3,-6,-10,-6,-2
1558439594932768,0,-4,-4,-2,-3,0,-1,0
1558439594940237,-11,-9,-3,-2,0,-4,-2,2
1558439594940237,2,-1,0,1,8,0,1,0
1558439594954974,0,1,2,0,0,-6,5,6
1558439594954974,0,0,1,2,4,5,0,-5
1558439594963131,4,1,-4,-3,-4,-4,-6,-3
1558439594963131,-3,-1,-5,-3,-4,-1,-1,-4
1558439594971147,1,-3,-4,-2,-2,6,5,2
1558439594971147,0,1,2,-2,-2,-5,-2,3
1558439594976911,-3,-2,-2,-2,-4,1,-2,1
1558439594976911,0,-2,0,1,4,9,3,-2
1558439594992866,0,-2,-2,-1,1,-3,-2,-4
1558439594992866,-1,-2,-2,-4,-5,-9,-4,-3
1558439594999848,3,-1,1,0,0,2,1,5
1558439594999848,1,-2,1,0,-2,0,0,0
1558439595015075,0,-2,-1,-1,-4,-5,-9,-2
1558439595015075,-4,-5,-2,-1,2,-2,5,2
1558439595023098,4,1,3,2,0,2,1,-3
1558439595023098,1,2,-3,-2,-1,2,2,1
1558439595038943,-8,-2,-1,1,5,4,-6,-1
1558439595038943,1,-1,-4,-1,-4,-6,-7,2
1558439595038943,3,1,3,1,6,3,8,6
1558439595038943,-2,-4,0,-1,-2,2,-1,-5
1558439595052732,-1,-2,2,-1,-9,-13,-5,-9
1558439595052732,-5,-4,-3,-4,-7,-6,-7,-4
1558439595059685,-1,1,-1,2,12,16,14,3
1558439595059685,-1,-1,1,-1,1,-5,-1,4
1558439595074644,-2,0,-1,-2,-4,-3,-2,-3
1558439595074644,-2,-3,-2,-1,-5,-3,-6,-3
1558439595082623,-2,-2,-3,-4,-6,2,-3,-5
1558439595082623,1,1,-2,0,0,-6,-1,2
1558439595097585,6,2,0,-1,2,1,0,-1
1558439595097585,-8,-2,-2,-2,-1,-3,-1,-1
1558439595098580,-6,-4,-2,-1,-8,-6,-11,-7
1558439595098580,0,4,3,2,13,18,12,3
1558439595112983,-10,-10,-2,-1,-5,-5,-7,1
1558439595112983,2,-1,-3,0,-1,-6,-4,-2
1558439595120902,-1,-1,1,0,2,1,1,3
1558439595120902,-5,-3,-1,-4,-4,0,1,-3
1558439595135763,1,3,1,-3,-5,-7,-4,-1
1558439595135763,1,1,-1,-1,0,2,4,3
1558439595142596,-3,-1,-3,-2,-11,-12,-8,-6
1558439595142596,1,1,3,0,3,-2,-2,-2
1558439595158878,1,1,-1,1,2,6,3,4
1558439595158878,-2,-4,-4,-2,-2,1,-1,-1
1558439595158878,4,1,-2,-2,1,3,3,4
1558439595158878,-6,-4,-2,-2,-4,-6,-4,-9
1558439595172824,-1,-2,-1,-1,-1,-8,-3,1
1558439595172824,1,-1,-1,0,-1,1,0,1
1558439595180773,0,2,1,0,4,11,2,-7
1558439595180773,1,1,-2,0,2,5,1,1
1558439595195322,9,2,2,2,5,2,1,0
1558439595195322,-20,-10,-1,-1,-2,-1,0,-1
1558439595202305,-3,-1,-2,-3,-5,-5,-5,-1
1558439595202305,-1,0,1,0,-4,-6,-5,0
1558439595218560,3,2,-1,-3,-2,3,-3,-2
1558439595218560,3,4,-1,0,4,0,-3,-6
1558439595218560,-4,-4,1,0,0,-3,6,3
1558439595218560,0,0,-2,-1,-1,-3,-3,1
1558439595232228,-4,-3,-5,-4,-6,-7,1,-2
1558439595232228,5,1,0,1,0,-3,0,0
1558439595240536,-3,-4,-3,-1,0,4,0,-3
1558439595240536,2,0,-1,-1,-3,-8,-2,1
1558439595255500,-4,-2,-1,-1,0,4,2,5
1558439595255500,-1,-1,0,0,-3,2,-1,-5
1558439595262483,4,3,1,1,4,-5,1,3
1558439595262483,-3,-3,0,-2,-2,4,-3,-5
1558439595278349,-2,-2,-3,-2,-3,-1,-3,-1
1558439595278349,3,1,2,-1,-1,-2,-1,1
1558439595279100,-1,0,0,-1,0,0,1,1
1558439595279100,1,-2,-4,-1,-3,-4,-5,-5
1558439595292396,-11,-5,-2,-3,-5,-4,-4,-4
1558439595292396,8,3,-3,-3,2,8,-1,2
1558439595300162,-3,-2,-3,0,-6,-5,3,-1
1558439595300162,0,-1,0,-1,-3,-9,-4,-1
1558439595315336,4,1,-2,-2,3,-3,1,-1
1558439595315336,2,-1,1,0,-3,2,-4,-1
1558439595323271,-2,-3,-3,-4,-3,1,-3,-3
1558439595323271,0,-3,-6,-4,-3,0,-3,0
1558439595347100,1,0,0,0,3,1,3,3
1558439595347100,-4,1,0,0,-2,-8,1,0
1558439595347100,0,-1,-1,2,6,8,4,1
1558439595347100,-2,-3,2,-3,-5,-2,-4,-3
1558439595353196,-1,-1,-1,2,7,10,3,-7
1558439595353196,-2,-1,1,-3,-2,-2,-4,-2
1558439595360257,-1,-1,-1,-3,-3,-7,-5,-2
1558439595360257,2,0,-2,1,1,-3,0,4
1558439595375521,-1,1,0,1,-4,-4,-4,-1
1558439595375521,2,1,2,4,12,11,12,5
1558439595382464,-11,-5,-1,0,1,-7,-1,-2
1558439595382464,-4,0,-1,-2,-2,-3,2,-1
1558439595398155,1,0,2,-1,0,0,-5,-2
1558439595398155,-2,-5,-3,-3,-8,-5,-5,-3
1558439595399150,4,3,0,0,-3,0,-4,-1
1558439595399150,0,-4,0,-3,0,8,3,1
1558439595412145,-3,-2,-2,-2,0,-3,5,4
1558439595412145,1,0,0,1,1,-6,-3,-7
1558439595420426,1,0,0,-2,1,-1,2,2
1558439595420426,-1,-2,0,-1,-5,-3,-5,-3
1558439595435405,2,1,-2,0,3,13,5,3
1558439595435405,-4,-3,-4,-3,-9,-9,-5,-3
1558439595442388,2,2,-2,-2,1,-1,0,3
1558439595442388,0,2,0,3,6,2,4,2
1558439595458798,-3,-3,-3,1,-1,-4,-5,-6
1558439595458798,1,1,0,-2,-1,0,-4,0
1558439595458798,0,1,-3,-4,-10,-2,-5,-6
1558439595458798,-2,0,-3,-2,-8,-14,-11,0
1558439595473980,2,1,4,2,11,8,10,5
1558439595473980,3,-1,-2,-1,-1,-8,1,0
1558439595480052,-14,-5,-3,-2,-1,0,1,-2
1558439595480052,2,0,2,3,0,11,0,-2
1558439595496667,-2,-3,-4,-4,-9,-4,-10,-4
1558439595496667,-1,0,0,-1,-4,-5,-5,-4
1558439595502999,2,-2,-2,-1,3,2,-2,-2
1558439595502999,-5,-3,-2,-2,-2,-10,-1,-1
1558439595518769,-3,-1,3,-2,-2,-7,-7,-6
1558439595518769,1,0,-1,2,6,12,11,6
1558439595518769,4,2,0,1,-3,-5,-8,-1
1558439595518769,-3,-2,-2,-2,3,4,4,1
1558439595532539,1,2,0,1,-2,3,-2,-5
1558439595532539,1,-1,-1,-1,-6,-9,-3,-1
1558439595540703,2,-1,0,1,-1,3,2,0
1558439595540703,-3,-2,-2,-2,3,5,5,2
1558439595555605,3,2,1,-1,-2,-10,2,7
1558439595555605,-2,-1,-1,-2,-2,-4,-7,-11
1558439595562660,-5,-7,-4,-1,-3,-2,0,7
1558439595562660,2,3,2,0,4,5,6,-1
1558439595578631,-1,-1,-6,-2,-5,-1,-2,-1
1558439595578631,-6,-4,0,1,5,10,1,0
1558439595579261,1,0,-3,-3,-6,-6,-6,-5
1558439595579261,0,-2,-1,0,-6,-15,-10,-6
1558439595592428,-4,-5,-2,-1,1,2,7,1
1558439595592428,1,2,3,1,1,-2,-1,4
1558439595600204,1,-2,0,3,6,9,0,-1
1558439595600204,-4,-5,0,-1,0,7,3,-2
1558439595615166,1,-2,-5,-4,-9,-15,-8,-7
1558439595615166,-3,-3,-2,-1,1,3,1,2
1558439595623430,-2,1,-1,-2,-6,-4,-2,-1
1558439595623430,3,1,-2,-1,3,0,-2,1
1558439595638102,0,3,1,-2,-1,0,1,3
1558439595638102,-2,-4,-5,-3,-4,-1,-3,-4
1558439595639099,6,4,2,-1,4,-3,0,0
1558439595639099,-12,-9,-2,-1,-3,-5,-3,-4
1558439595652520,-3,-2,-3,-2,-3,0,-3,-2
1558439595652520,0,-2,-2,-3,-4,-6,-2,6
1558439595660089,6,0,3,0,0,-2,3,-3
1558439595660089,0,1,-4,1,4,4,-4,-2
1558439595675523,-2,0,-1,-2,-3,2,-1,3
1558439595675523,-1,0,-1,-1,-1,2,-3,-4
1558439595682451,2,2,1,1,8,5,12,3
1558439595682451,-1,0,-6,-4,-9,-3,-5,-4
1558439595698435,-4,-2,1,0,-1,-2,-1,-2
1558439595698435,0,-3,-3,-3,-9,-8,-8,-3
1558439595698986,-3,-4,-2,-1,-3,-7,-3,-2
1558439595698986,1,-2,-3,-3,-2,-3,-2,-2
1558439595713272,0,-1,-2,-3,0,3,-2,-2
1558439595713272,0,2,3,3,0,-4,-2,-1
1558439595728345,-2,-4,-3,-3,-3,-7,-6,-4
1558439595728345,0,0,0,-1,-3,-9,-2,-1
1558439595735402,5,2,0,1,2,1,2,1
1558439595735402,-10,-5,1,-1,5,6,2,-3
1558439595742523,-1,-1,-4,-3,1,3,1,-2
1558439595742523,1,0,-1,0,-1,5,1,0
1558439595757700,1,-1,0,0,4,3,0,-2
1558439595757700,-3,-3,-2,-2,-1,-2,0,3
1558439595774493,-2,-1,2,-2,-7,-8,-7,-6
1558439595774493,-2,-6,-1,-2,-4,-2,-1,-2
1558439595775301,-3,-2,-1,2,-2,-6,-3,2
1558439595775301,2,2,-2,0,3,-4,0,-3
1558439595780523,-2,-5,-1,-1,4,6,-2,-3
1558439595780523,-2,0,0,-1,-2,-3,1,6
1558439595795477,-2,0,0,1,0,3,-1,-1
1558439595795477,2,1,-3,-3,-4,3,4,1
1558439595802472,-2,-1,-3,-1,-8,-6,-9,-6
1558439595802472,3,1,2,1,7,1,8,5
1558439595817189,-1,0,0,2,4,-3,-2,-3
1558439595817189,-1,0,2,0,-3,2,1,0
1558439595825166,-1,-2,-3,-1,-2,4,-1,1
1558439595825166,3,2,-1,-3,-7,-2,-5,-3
1558439595832146,-11,-8,-1,-1,2,4,3,-6
1558439595832146,-1,-2,-4,-1,-2,0,-1,0
1558439595840587,-1,1,-1,-1,-3,3,2,-1
1558439595840587,2,3,3,0,4,-2,-2,-4
1558439595855549,2,-1,-1,-3,-7,-10,-6,-2
1558439595855549,1,-4,-2,-1,2,3,0,0
1558439595862067,-3,-1,-2,-2,-5,-5,-7,-1
1558439595862067,-2,-1,-2,-2,-3,0,1,-4
1558439595877030,0,1,-3,-2,-4,-2,-5,0
1558439595877030,2,1,4,2,8,4,8,5
1558439595893980,2,2,3,3,5,4,10,5
1558439595893980,-2,-1,2,0,-3,-9,-3,-2
1558439595894978,0,-1,-1,-4,-5,-5,-5,-2
1558439595894978,-3,-5,-4,-2,-4,1,-8,-9
1558439595899964,1,-1,-1,2,1,2,3,10
1558439595899964,-1,3,1,0,8,8,6,3
1558439595914923,-1,0,-4,-4,-3,-4,-1,-1
1558439595914923,2,3,-1,-2,-6,-8,-3,1
1558439595921905,-10,-7,0,0,0,1,0,-2
1558439595921905,-1,-4,0,-2,-6,-5,-3,-1
1558439595937240,0,0,4,-1,-2,-4,-3,3
1558439595937240,0,-1,-4,-1,5,7,3,-5
1558439595945848,1,0,-4,-4,-3,-2,-2,-2
1558439595945848,1,2,-1,-1,2,7,5,8
1558439595960802,-4,-6,-9,-1,-4,-2,-6,-10
1558439595960802,0,1,4,0,1,-3,-1,3
1558439595961806,-2,-2,0,-3,-1,0,-5,-7
1558439595961806,-5,-7,-5,-1,-5,-7,-6,-3
1558439595974769,1,0,0,1,7,14,10,5
1558439595974769,-1,-1,-2,-3,-9,-6,-7,-2
1558439595982747,3,0,1,1,5,-4,5,2
1558439595982747,1,0,0,-1,-2,0,-6,-4
1558439596006679,-2,-3,-1,-2,-2,-6,-4,1
1558439596006679,-1,1,-2,0,3,5,5,0
1558439596006679,-5,0,0,2,1,-2,-1,0
1558439596006679,-4,-4,-3,1,3,0,-2,-1
1558439596020866,1,-1,2,0,0,0,1,-2
1558439596020866,-5,-4,-5,-5,-11,-8,-11,-3
1558439596021639,3,1,0,-2,0,-3,1,0
1558439596021639,0,-2,-1,-1,-1,-6,-2,2
1558439596034605,-2,-1,0,0,3,5,2,1
1558439596034605,0,2,5,3,6,1,0,-2
1558439596042583,-1,-1,-6,-4,-1,3,0,2
1558439596042583,2,0,-2,-1,-2,2,4,-2
1558439596057771,0,-1,0,-1,-3,-1,-4,-2
1558439596057771,0,-3,-1,-3,-8,-7,-6,-1
1558439596065704,1,1,1,0,3,4,0,-1
1558439596065704,-14,-5,-1,1,3,6,6,-2
1558439596080484,0,1,0,-2,0,-8,1,0
1558439596080484,-4,-3,-2,0,0,2,2,0
1558439596081482,-3,-3,-4,-6,-17,-14,-15,-4
1558439596081482,5,1,0,0,8,12,8,5
1558439596094445,-3,-1,0,0,0,3,-2,-5
1558439596094445,3,1,-2,0,1,-2,1,1
1558439596102425,-11,-9,-2,1,1,0,-2,-5
1558439596102425,-1,0,-3,-3,-9,-8,-5,-5
1558439596125395,-2,-2,-2,0,3,3,4,5
1558439596125395,2,1,0,-1,-5,-6,-6,-3
1558439596126359,3,3,3,-1,1,-1,2,0
1558439596126359,1,-1,1,-1,-2,-8,-6,1
1558439596148331,-3,-1,-3,1,3,10,3,-5
1558439596148331,-1,-1,-3,-1,2,2,4,7
1558439596149301,-1,3,1,-2,0,-3,-6,-8
1558439596149301,-4,-4,-1,-2,-4,1,-5,-3
1558439596155282,4,1,1,-1,-1,-4,-1,2
1558439596155282,-3,-2,-2,-4,-3,-2,-2,0
1558439596162266,5,2,0,2,6,11,6,2
1558439596162266,-11,-4,-3,0,-4,-7,-4,-7
1558439596177224,-1,-5,-2,-4,-6,-6,-5,0
1558439596177224,-3,-2,-4,-3,1,2,0,-1
1558439596185205,0,0,0,-1,0,0,4,3
1558439596185205,8,4,1,0,7,2,3,2
1558439596201190,-2,-1,-4,-3,-11,-10,-8,-5
1558439596201190,-5,-4,0,0,7,1,5,1
1558439596201190,1,4,2,-1,-1,2,-3,-3
1558439596201190,1,0,1,-1,-1,6,2,-2
1558439596216119,-1,1,-2,-2,-3,-4,-2,-1
1558439596216119,2,-2,-2,-1,-2,5,4,-4
1558439596222104,-3,-2,-1,-1,-1,-5,-3,0
1558439596222104,1,0,-1,-1,-2,-9,-3,0
1558439596239058,0,-1,1,0,-2,-2,-1,3
1558439596239058,-2,-1,0,-1,0,5,-2,-1
1558439596245043,-2,-5,-3,-2,0,-1,1,-2
1558439596245043,-1,0,-1,-4,-6,-6,-6,2
1558439596261999,-3,0,-1,0,-4,0,-2,-6
1558439596261999,-2,0,1,-2,-4,-1,-1,1
1558439596262995,1,-3,-2,-4,-6,-7,-3,-1
1558439596262995,7,1,2,1,8,5,3,1
1558439596274962,-1,-2,-1,-2,-1,-4,-1,2
1558439596274962,-1,-2,-5,-2,2,3,4,-2
1558439596281970,-1,-2,-3,-1,-5,-5,-5,-2
1558439596281970,4,2,-1,-2,-8,-4,-4,-2
1558439596297117,-11,-8,-2,0,5,0,-1,0
1558439596297117,-1,2,4,0,0,-1,-1,0
1558439596304883,1,1,-3,-1,2,-2,8,3
1558439596304883,-1,-2,-4,-2,1,3,-2,-3
1558439596320998,1,-4,-3,-2,-1,-6,-2,0
1558439596320998,-1,-1,-1,0,-1,-5,-4,-2
1558439596320998,-2,-3,1,-2,-6,1,-2,-3
1558439596320998,-4,-3,2,-3,-9,-3,-3,-3
1558439596334801,1,3,-3,1,6,7,5,3
1558439596334801,0,0,3,-1,2,-4,-3,-1
1558439596342784,0,1,4,2,7,10,7,1
1558439596342784,-3,-3,-2,-3,-5,-10,-6,-1
1558439596357742,-3,0,-1,-2,-5,-3,-6,-10
1558439596357742,3,2,-1,0,5,5,2,2
1558439596364722,-3,-3,-6,-4,-6,3,-5,-6
1558439596364722,-1,-4,-1,-1,-2,-3,-1,6
1558439596388658,4,0,2,-1,1,-5,1,0
1558439596388658,-1,0,-1,0,-1,-8,-7,-1
1558439596389655,-3,1,-3,-2,-1,-11,-3,-2
1558439596389655,-5,-2,-1,1,9,11,4,-2
1558439596402624,4,1,-2,-3,-2,1,-1,0
1558439596402624,-6,-6,-5,-4,-12,-5,-6,-8
1558439596403617,5,1,2,1,1,-9,-2,5
1558439596403617,0,0,-1,-3,-1,5,6,-1
1558439596417581,-2,-3,2,2,4,7,5,1
1558439596417581,1,3,2,2,-1,-2,3,-1
1558439596424561,-5,-4,-2,-3,-8,-2,-7,-4
1558439596424561,0,1,0,0,6,2,-3,-2
1558439596440517,-2,-1,1,0,-1,-9,-4,0
1558439596440517,-1,0,2,-1,-3,-1,4,-1
1558439596448500,1,2,0,-2,2,-4,1,3
1558439596448500,-5,-4,-3,0,-4,1,-3,-5
1558439596454482,5,3,1,1,3,5,2,3
1558439596454482,2,-2,-4,-4,-4,-6,-1,2
1558439596462735,-9,-4,-3,-2,-6,-7,-8,-6
1558439596462735,6,3,0,-1,-1,4,-1,-2
1558439596477455,-14,-8,-2,0,-2,-3,-1,-1
1558439596477455,-1,-1,1,-1,1,-1,3,-2
1558439596493381,2,-1,3,-1,1,1,-3,1
1558439596493381,0,-2,-4,-3,-4,-7,-2,0
1558439596500357,1,1,0,1,3,7,1,-2
1558439596500357,-4,-4,-1,1,4,5,4,0
1558439596501357,-1,-2,-4,-4,-2,3,-1,0
1558439596501357,-3,-5,-4,-2,-4,1,-2,-4
1558439596517314,1,0,-1,-3,-4,-11,-3,0
1558439596517314,1,-2,2,2,9,2,3,3
1558439596522531,2,1,0,2,5,6,8,2
1558439596522531,-4,0,0,-1,-3,-5,-6,-4
1558439596537260,1,-2,-4,-5,-10,-14,-10,-4
1558439596537260,-1,-3,-4,-4,-7,-3,0,2
1558439596545239,2,-2,0,2,3,0,-3,2
1558439596545239,-3,-1,3,1,2,4,6,-3
1558439596560198,-2,-3,-2,-2,1,9,0,-8
1558439596560198,3,2,1,0,-4,-3,-6,-3
1558439596568177,-8,-5,0,0,1,-3,2,0
1558439596568177,-7,-2,-2,-1,-3,-8,-9,-3
1558439596575158,1,2,1,-1,-2,3,1,1
1558439596575158,3,1,-1,3,5,7,0,1
1558439596582148,-1,1,-1,1,-6,-3,-1,-4
1558439596582148,2,0,0,0,8,4,7,4
1558439596597100,-1,-3,-1,-3,-9,-1,-2,-3
1558439596597100,-4,-3,-4,-1,0,1,-2,2
1558439596605194,2,0,3,1,-1,-4,6,0
1558439596605194,-1,-1,2,0,1,-8,-7,-1
1558439596620039,0,-3,-3,-1,-3,-4,-3,2
1558439596620039,-1,-1,-1,-3,-6,-9,-9,-9
1558439596621038,1,-3,-3,-3,1,8,3,7
1558439596621038,1,-1,-1,0,-1,-4,1,-5
1558439596635236,-3,0,-2,-1,2,7,4,1
1558439596635236,-4,0,1,-1,-6,-3,-10,-8
1558439596642979,4,3,0,-2,-4,-12,-4,0
1558439596642979,-12,-7,-2,1,1,1,1,0
1558439596666169,4,3,1,1,5,1,6,-1
1558439596666169,2,-1,0,-2,-5,-3,-2,-2
1558439596666169,-7,-3,-5,-4,-7,-1,-9,-5
1558439596666169,5,1,0,2,5,-3,0,1
1558439596681872,-4,-1,0,-2,-2,0,-2,-3
1558439596681872,1,2,2,-2,-1,4,7,7
1558439596682870,2,-1,-3,-1,0,4,-3,-4
1558439596682870,0,-3,-2,-4,-4,-5,-2,-2
1558439596694854,-2,0,-1,-3,-6,-13,-6,-1
1558439596694854,-2,-3,-2,0,4,0,2,-2
1558439596702816,0,-2,0,0,3,4,5,6
1558439596702816,-2,1,0,-3,-2,5,1,0
1558439596725756,0,-1,-1,-2,-8,-3,-5,-4
1558439596725756,-2,-2,-3,1,-2,-8,-4,-1
1558439596732737,0,1,4,0,10,8,7,2
1558439596732737,-2,-1,-5,-5,-9,-4,-4,-4
1558439596739717,3,-2,-1,0,2,-1,-4,0
1558439596739717,-3,-1,-3,-3,-2,-1,-3,-5
1558439596747857,2,4,0,0,-2,2,1,-3
1558439596747857,-3,-2,-1,-3,-7,-10,-4,2
1558439596754678,-4,-1,1,0,4,5,6,1
1558439596754678,0,1,0,-1,3,-6,3,5
1558439596770637,7,1,2,-2,-5,-8,-3,-3
1558439596770637,-8,0,0,3,8,18,4,-5
1558439596777619,-1,-3,-3,-1,-2,-2,1,0
1558439596777619,-1,-1,0,-2,0,7,0,0
1558439596784820,-2,-1,-2,0,1,1,1,-6
1558439596784820,5,-2,-3,-4,-9,-9,-2,7
1558439596801586,0,0,3,2,9,10,7,2
1558439596801586,-3,0,0,-2,-6,0,-3,-4
1558439596816524,-6,-6,-6,-4,-10,-6,-11,-5
1558439596816524,3,-2,-1,0,4,-1,0,4
1558439596817511,-2,-2,2,1,3,6,3,-2
1558439596817511,2,-2,-1,0,-3,-2,-5,2
1558439596822527,-3,-1,-3,0,-2,-5,-5,-3
1558439596822527,6,0,-3,-4,-5,-5,-2,-1
1558439596838456,-3,-1,-3,-1,-6,-6,-5,-1
1558439596838456,-6,-3,-4,-1,-3,2,-6,-9
1558439596844438,-2,0,0,0,4,-1,2,4
1558439596844438,-1,-2,-1,-1,-2,-1,-4,-1
1558439596860396,3,2,0,0,5,-2,7,3
1558439596860396,2,-3,-3,-3,-3,-1,-2,-5
1558439596868375,-5,-5,-3,-2,-4,0,-4,0
1558439596868375,4,5,3,1,2,-3,-3,-4
1558439596874358,-1,-2,0,-1,1,-3,-1,-5
1558439596874358,2,0,2,-1,0,-10,-3,6
1558439596882338,-1,-3,-2,-1,-3,0,2,-1
1558439596882338,-1,-1,-2,-2,-5,0,-4,-3
1558439596897300,-1,-2,-2,-2,-3,-6,-6,-2
1558439596897300,-4,-1,1,3,6,7,7,1
1558439596905275,-1,0,1,-1,-2,-4,2,-1
1558439596905275,-1,-3,-4,-3,-3,-1,-2,1
1558439596920236,-3,-4,-2,-1,-4,1,-4,-2
1558439596920236,0,-2,-3,0,3,3,-1,-1
1558439596928215,3,3,2,0,-3,-4,-5,-3
1558439596928215,-2,2,2,1,2,-6,2,-1
1558439596943175,-1,-1,-4,-4,-12,-13,-8,-2
1558439596943175,-3,-3,-3,-2,0,4,5,-2
1558439596944172,1,-1,2,2,11,15,11,3
1558439596944172,4,3,2,0,-2,-1,-6,-1
1558439596957139,-2,-2,-5,-3,-3,3,-1,-2
1558439596957139,-1,0,0,-1,-1,0,2,1
1558439596965115,6,1,-2,-2,-1,-8,-6,-1
1558439596965115,-4,-4,1,1,5,8,6,1
1558439596980075,-1,-1,0,-2,-4,-4,-8,-6
1558439596980075,-1,0,1,0,2,-8,-7,2
1558439596988054,-1,-3,0,-1,0,5,2,-2
1558439596988054,-3,-2,-3,-1,-8,-3,-4,-5
1558439597003014,-3,-4,-2,-2,2,13,8,1
1558439597003014,-2,0,-2,-1,-6,-12,-7,-3
1558439597004014,-5,-1,-1,-2,0,-12,-8,-2
1558439597004014,2,1,1,0,2,2,4,1
1558439597025957,0,2,1,0,-3,-5,-1,1
1558439597025957,-1,1,-1,1,6,11,7,0
1558439597026953,1,-2,-6,-5,-5,3,-3,-1
1558439597026953,-13,-9,-5,-4,-9,-5,-5,-6
1558439597048897,4,1,3,2,7,2,-1,3
1558439597048897,2,-2,0,-4,-3,-5,0,3
1558439597048897,-4,-1,0,1,-2,0,-4,-7
1558439597048897,4,2,2,0,3,0,4,-1
1558439597062855,-4,-1,2,1,-2,-3,0,1
1558439597062855,-2,-2,-3,-4,-4,-1,-2,0
1558439597063851,1,1,2,0,-3,-4,1,-1
1558439597063851,-2,-1,-4,-2,-3,3,-4,-2
1558439597076820,0,2,0,-1,2,0,4,0
1558439597076820,8,4,1,1,6,8,8,5
1558439597084798,-9,-3,-2,0,4,-10,-1,-1
1558439597084798,0,0,0,-2,-2,0,-1,1
1558439597099754,-2,-3,-1,-1,-3,-3,-5,-1
1558439597099754,3,-1,1,0,-5,-1,0,0
1558439597107733,-4,-3,-1,-1,2,5,0,-4
1558439597107733,-3,-1,-1,0,-2,1,-7,-4
1558439597122694,0,-1,-2,-3,-2,-4,-4,-3
1558439597122694,-1,-3,0,-1,6,1,7,3
1558439597123694,1,-1,-2,-2,-6,2,-1,-2
1558439597123694,0,-1,-1,-3,-2,-5,-2,0
1558439597137658,0,-1,-2,-1,-3,0,3,-2
1558439597137658,-2,0,-2,1,-1,1,-5,0
1558439597144638,0,-1,1,0,0,6,2,-5
1558439597144638,4,1,1,-1,5,-5,4,4
1558439597159601,-3,-1,-1,-2,1,-8,-3,0
1558439597159601,-6,-3,-3,-2,-8,-5,-6,-6
1558439597167577,-1,-4,-5,-4,-2,3,1,3
1558439597167577,5,1,0,1,1,2,1,2
1558439597182540,0,1,1,0,0,-1,-2,-4
1558439597182540,-3,-3,-2,-1,3,-8,3,0
1558439597183533,-1,1,0,0,-4,-1,-5,-1
1558439597183533,-3,-2,-3,-3,-2,4,0,-3
1558439597213452,3,0,-2,-1,3,4,1,0
1558439597213452,2,2,-2,-1,-5,-6,-5,-5
1558439597214449,-3,-3,-1,-3,-1,-5,-3,3
1558439597214449,0,-2,-3,0,3,4,-1,-1
1558439597219435,-4,-1,-1,0,0,7,4,-3
1558439597219435,0,-1,-1,-1,-4,-2,0,1
1558439597228417,0,-1,-2,1,-2,-4,-1,-3
1558439597228417,-1,1,-2,-1,1,-2,5,2
1558439597243372,-1,-1,-1,-1,-1,-5,-1,-1
1558439597243372,-4,-5,-2,-5,-5,-3,-9,-2
1558439597243372,1,1,1,1,3,6,2,1
1558439597243372,-1,-3,0,0,-4,-7,0,0
1558439597257333,-2,-3,3,0,4,3,1,2
1558439597257333,5,2,-6,-3,-5,-7,-1,-5
1558439597264314,-10,-5,-4,-1,-2,-3,-1,4
1558439597264314,1,2,-1,-3,-3,-1,-4,-8
1558439597288251,2,2,-2,-1,-5,0,-1,5
1558439597288251,-12,-9,0,1,1,0,-5,-4
1558439597289248,3,1,1,-2,-2,-8,-2,-3
1558439597289248,-2,1,0,1,5,10,6,3
1558439597303210,1,-3,-2,0,-2,-5,0,-2
1558439597303210,1,-1,1,-1,1,5,6,4
1558439597303210,-2,-2,0,-2,-2,1,-4,-3
1558439597303210,1,1,0,-2,-8,-8,-11,-3
1558439597317173,-1,-1,-4,-2,-1,3,-4,-5
1558439597317173,3,2,-2,0,-2,-3,-1,-1
1558439597325156,-2,-2,1,-1,5,-2,6,4
1558439597325156,1,0,0,0,-2,-5,-3,1
1558439597340112,1,2,-1,-2,-7,-1,-9,-1
1558439597340112,-14,-8,-5,-3,0,0,-1,-9
1558439597348097,6,0,0,0,3,1,4,7
1558439597348097,-4,-2,0,0,2,7,-4,-12
