timestamp,emg1,emg2,emg3,emg4,emg5,emg6,emg7,emg8
1558439726743336,0,1,-2,6,-2,3,2,-1
1558439726743336,-2,0,0,2,3,4,2,-2
1558439726744334,0,-1,-1,-5,0,-2,-1,4
1558439726744334,-1,2,0,3,5,3,1,0
1558439726746328,-1,1,-1,1,-5,-7,-5,-4
1558439726746328,1,-3,-3,-4,-1,-4,1,5
1558439726765277,-3,-2,-4,-6,-13,-7,-7,-6
1558439726765277,-1,-4,-5,0,-8,-1,-4,-1
1558439726767273,2,1,2,1,14,4,8,1
1558439726767273,1,1,0,-3,5,-1,-2,0
1558439726770264,1,3,2,6,6,2,-1,-1
1558439726770264,1,0,-1,-4,-9,-9,-6,-3
1558439726787219,-3,-3,-2,-6,-7,1,0,-2
1558439726787219,2,1,2,1,-1,-3,1,-1
1558439726791208,3,1,1,4,4,1,2,2
1558439726791208,-2,0,-2,-5,-4,-1,6,5
1558439726802179,2,1,2,1,7,1,-1,-2
1558439726802179,-1,0,0,3,1,5,-4,-1
1558439726806168,-2,-3,-3,-3,-5,-7,-5,-10
1558439726806168,0,0,0,-1,7,4,3,5
1558439726833095,-2,-4,-4,-3,-8,-11,-7,-3
1558439726833095,-1,-3,-3,-4,-5,-3,0,-1
1558439726834092,-1,-1,1,-1,0,7,4,-1
1558439726834092,1,-2,1,3,1,-3,-4,-1
1558439726835091,1,-4,-2,-1,3,-5,-1,1
1558439726835091,-1,1,-1,0,2,-1,-1,0
1558439726857032,-2,0,-2,0,-3,2,-1,-2
1558439726857032,0,-4,-1,-2,-7,-4,-6,-5
1558439726858029,-1,0,1,-2,4,3,-1,-1
1558439726858029,-2,-2,-1,-1,-8,-1,-1,-3
1558439726877976,-2,-3,-6,-1,-7,-3,0,1
1558439726877976,1,0,0,0,8,-3,4,1
1558439726909890,-1,0,0,1,4,10,2,-3
1558439726909890,3,3,1,5,3,0,-8,-9
1558439726909890,-13,-10,-5,-7,-7,-2,-8,-6
1558439726909890,-1,-2,-3,-7,-6,-4,-5,-1
1558439726930836,1,-2,-1,6,7,4,9,6
1558439726930836,-2,-1,0,-3,3,-2,5,2
1558439726930836,0,0,-2,-5,-9,-7,-4,-2
1558439726930836,0,0,-3,1,-7,-10,-8,-3
1558439726931831,-5,-2,-1,-2,3,10,-4,-7
1558439726931831,-1,-2,-3,-5,-2,6,-1,6
1558439726935820,0,2,0,3,3,-5,-3,-1
1558439726935820,-1,-3,-2,-1,-4,-1,0,2
1558439726936818,2,0,1,-2,1,-2,-2,1
1558439726936818,-1,0,0,0,2,-10,-1,1
1558439726950780,-2,-1,0,3,-1,2,3,-3
1558439726950780,0,0,0,-2,-4,-4,-3,-1
1558439726957763,-1,-2,-2,-5,-4,-4,-4,-3
1558439726957763,-1,-3,-2,1,-3,5,1,-2
1558439726966750,3,-3,-3,-2,-3,-5,-5,2
1558439726966750,-1,-3,-1,-3,1,2,5,-2
1558439726988679,-3,-1,-3,-2,-4,-6,-8,-7
1558439726988679,1,3,1,0,0,-5,-1,-1
1558439726997655,3,-1,-1,-3,0,-1,4,10
1558439726997655,0,0,2,0,1,5,2,-2
1558439726997655,-2,-4,-4,-1,-6,-6,-5,-2
1558439726997655,1,0,1,-1,1,3,3,0
1558439727019597,3,1,1,-2,5,8,3,-4
1558439727019597,-3,-2,-1,-1,-7,-2,-5,-4
1558439727020594,-1,-1,-1,-4,-13,-21,-9,-2
1558439727020594,-1,-3,0,0,7,-1,2,8
1558439727026579,3,2,3,3,2,5,0,-5
1558439727026579,-4,1,2,1,10,8,5,2
1558439727049518,-1,0,-2,-1,-1,4,-4,-2
1558439727049518,-2,-3,-4,-5,-11,-5,-7,-6
1558439727064477,-4,-2,-1,-3,-5,-5,-3,-2
1558439727064477,3,1,-2,0,2,-1,6,5
1558439727065474,-1,-1,-1,-2,4,-2,5,1
1558439727065474,0,-1,2,1,1,3,0,0
1558439727087415,1,1,-1,0,2,4,1,3
1558439727087415,-2,-3,-3,-5,-10,-8,-12,-9
1558439727088413,1,2,2,2,5,13,12,3
1558439727088413,-1,-2,-3,0,-2,1,-2,-2
1558439727089411,0,1,-1,0,4,5,3,-3
1558439727089411,0,-4,-1,-1,-5,-8,-6,-3
1558439727101378,-1,-1,-2,-3,-9,-17,-6,-1
1558439727101378,-2,-1,-1,-2,-4,3,2,-5
1558439727108359,-2,-3,0,0,-3,-6,-5,0
1558439727108359,1,2,2,4,16,13,10,3
1558439727115340,2,0,0,-3,0,6,3,8
1558439727115340,-5,-4,-3,-4,-10,-8,-13,-19
1558439727132295,-1,-1,0,-1,-5,-4,1,7
1558439727132295,-3,-3,-4,-3,-9,-5,-3,-6
1558439727138279,-1,-2,0,-1,3,-1,-3,0
1558439727138279,0,1,-2,-1,4,1,6,6
1558439727171191,2,1,3,-2,0,6,9,6
1558439727171191,-1,0,1,-1,2,-4,-4,-2
1558439727172190,1,1,0,1,11,7,-1,-6
1558439727172190,-2,0,-2,-4,-6,-7,-4,0
1558439727177175,-2,-1,-3,-1,-5,-1,1,-3
1558439727177175,2,-1,0,-1,5,7,2,1
1558439727178172,0,1,2,1,0,-1,0,1
1558439727178172,1,1,1,1,1,-2,2,5
1558439727199118,-4,0,-1,-2,-1,-5,-5,-10
1558439727199118,-3,-1,-2,-2,-4,1,-4,-2
1558439727207095,1,-3,-3,0,-1,3,5,7
1558439727207095,-2,1,1,-1,-1,5,0,-4
1558439727208093,-3,-4,-3,-2,-7,-10,-5,-2
1558439727208093,-2,-2,-2,-2,-2,-11,-6,-2
1558439727221058,1,1,2,-1,-3,3,4,-1
1558439727221058,-1,0,0,1,10,5,2,2
1558439727228039,-1,0,-1,0,-1,1,1,0
1558439727228039,-3,-2,-1,-1,0,0,-7,-8
1558439727251976,-2,-3,-3,-4,-12,-12,-9,-4
1558439727251976,1,-3,-3,-1,-6,-7,-2,-1
1558439727252972,0,2,1,-3,-2,-1,-5,-4
1558439727252972,3,2,1,2,11,11,11,1
1558439727257960,-3,-2,-1,0,3,0,0,5
1558439727257960,-1,-2,1,0,1,6,-4,-3
1558439727266935,-1,-3,-3,-3,1,-2,-8,-3
1558439727266935,1,0,0,-4,-12,-11,-4,-2
1558439727280898,-4,-5,-4,-3,-4,-2,-3,-5
1558439727280898,-1,-2,-3,-2,-4,-5,1,2
1558439727287879,0,0,0,0,6,6,1,-2
1558439727287879,-1,1,2,1,3,5,0,2
1558439727295858,-1,3,0,-2,-3,-2,-5,-3
1558439727295858,-1,-1,-3,-1,-3,4,4,1
1558439727310818,2,2,2,-1,0,-4,-1,1
1558439727310818,-4,-3,-1,-1,-2,-4,-4,-5
1558439727317800,1,-3,-1,-1,-3,-9,-4,3
1558439727317800,-5,-1,-1,0,-4,-6,-6,-10
1558439727341734,3,1,0,1,6,4,8,8
1558439727341734,-4,-2,-1,-1,-9,-6,-7,-7
1558439727342731,2,2,3,0,7,8,4,-1
1558439727342731,0,-1,1,-1,-1,-1,-2,0
1558439727347718,0,-2,-2,-1,0,-6,-1,-1
1558439727347718,-1,0,0,-2,3,3,6,8
1558439727363676,-3,0,-2,0,-4,-12,-6,-8
1558439727363676,0,-1,-1,-2,2,5,-4,-2
1558439727378637,-4,-1,-2,-3,-12,-8,-7,-7
1558439727378637,-2,-2,-4,-2,-4,3,3,2
1558439727379634,0,5,6,4,8,4,5,1
1558439727379634,1,-1,1,1,7,3,4,4
1558439727401574,-1,-3,-3,-5,-4,-5,-10,-4
1558439727401574,-4,-3,-5,-2,-12,-9,-7,-4
1558439727402584,-1,-3,-2,-3,-2,2,3,1
1558439727402584,-1,1,1,0,6,2,2,-3
1558439727407559,3,1,-1,3,5,3,4,8
1558439727407559,3,0,3,1,2,-1,2,3
1558439727438476,-4,-4,-4,-6,-8,-3,-8,-13
1558439727438476,-1,0,-1,-2,-4,-2,-1,2
1558439727471389,-4,-1,-4,-2,-5,-6,-3,-4
1558439727471389,1,1,1,1,2,1,-3,-2
1558439727472386,1,1,0,0,-1,-4,0,6
1558439727472386,-3,-3,-1,-1,-4,-2,-8,-9
1558439727485351,-2,-2,0,-1,6,3,4,-1
1558439727485351,0,1,-1,0,0,-5,4,3
1558439727486348,-1,-1,1,2,-1,-3,-3,-2
1558439727486348,-2,0,-2,0,-6,-5,-2,0
1558439727487345,2,-1,0,0,8,10,6,2
1558439727487345,3,1,1,0,1,-1,3,8
1558439727506295,0,0,0,-1,2,7,8,2
1558439727506295,-6,-2,-3,-2,-9,-8,-5,-9
1558439727507292,-5,-4,-5,-5,-10,-1,-5,-6
1558439727507292,0,2,-1,-1,-1,2,1,3
1558439727530232,0,1,-1,-1,3,-3,3,2
1558439727530232,-2,-1,1,0,6,-3,-3,-3
1558439727530232,1,-2,1,-4,-3,-1,-3,-4
1558439727530232,0,0,-2,-2,-2,-2,-4,-5
1558439727532225,-1,-1,-1,-1,1,2,-2,-1
1558439727532225,-1,-1,-1,-3,1,6,4,2
1558439727566135,0,1,-3,-1,-7,-8,-1,-2
1558439727566135,3,2,0,0,1,0,-1,-1
1558439727576108,-3,-1,0,-2,-1,-5,-5,-1
1558439727576108,1,0,0,0,5,6,-2,1
1558439727577111,-3,-1,-2,0,2,1,3,2
1558439727577111,0,-2,-3,-3,-11,-10,-3,1
1558439727597051,-5,-3,-4,-2,-4,-1,0,-8
1558439727597051,0,1,1,1,2,2,0,1
1558439727598049,-1,-3,-6,-4,-10,-4,-5,-6
1558439727598049,-1,-1,1,2,12,3,3,0
1558439727600044,2,1,1,2,7,5,1,4
1558439727600044,1,-1,-2,-2,-4,-2,-3,-3
1558439727604034,0,1,2,-2,0,-10,2,3
1558439727604034,-1,-2,-3,-5,-8,-3,-8,-1
1558439727619991,-1,-3,-2,-2,-5,0,1,5
1558439727619991,0,-2,1,1,10,11,1,-5
1558439727620988,-1,1,-1,-1,0,-1,2,0
1558439727620988,-3,-3,-2,-3,-9,-6,-5,-6
1558439727642930,0,-1,-1,1,-1,-2,3,1
1558439727642930,1,3,-1,-2,0,-1,1,4
1558439727643928,0,-1,-2,-1,-6,-7,-8,-4
1558439727643928,-2,-1,0,1,2,3,6,3
1558439727655894,-1,-1,-2,-2,-6,-2,-5,-6
1558439727655894,-1,-1,1,1,2,4,5,9
1558439727663875,-1,-1,1,4,12,13,1,-4
1558439727663875,-1,-1,0,-3,-5,-9,-7,-4
1558439727678833,-3,-2,-5,-2,-6,-8,-7,-5
1558439727678833,2,-1,-4,-2,-11,-17,-2,2
1558439727678833,-2,-2,-3,-2,-6,-2,-7,-4
1558439727678833,-3,-1,0,0,5,11,3,1
1558439727692795,0,1,1,0,7,3,1,-3
1558439727692795,2,-1,-1,-2,0,2,1,4
1558439727715733,-3,-3,-1,-2,1,5,-4,-11
1558439727715733,-1,-1,-2,-3,-8,-5,-3,-2
1558439727741664,-1,-3,-2,-2,-3,-7,-3,1
1558439727741664,-3,-4,-2,-2,-5,-3,-2,-7
1558439727755626,1,-1,2,-1,-5,-4,0,2
1558439727755626,0,0,1,2,10,10,3,-1
1558439727756624,0,0,1,0,4,6,2,5
1558439727756624,-3,-4,-4,-2,-6,-4,-2,-2
1558439727757621,-1,-1,-2,-1,-2,1,3,4
1558439727757621,0,0,0,-2,-5,-3,-1,0
1558439727786545,2,-1,0,0,-1,0,-3,-4
1558439727786545,0,3,2,0,8,2,7,5
1558439727786545,-1,1,-2,1,1,-9,0,4
1558439727786545,-3,-3,-2,0,1,2,-4,-5
1558439727808485,-2,-1,-2,-2,-6,-1,-7,-5
1558439727808485,-1,1,0,0,3,8,3,-1
1558439727808485,0,-2,-1,-3,-1,0,-1,2
1558439727808485,0,-2,-4,-5,-5,-9,-3,2
1558439727810496,-4,-3,0,-1,-5,-6,-9,-5
1558439727810496,2,1,1,3,5,8,5,-1
1558439727814471,-4,-4,-5,-3,-4,0,0,-5
1558439727814471,1,-2,-3,-2,-4,-6,-7,-2
1558439727815467,3,2,4,4,10,8,14,10
1558439727815467,-1,-3,0,-4,-5,-8,-4,-4
1558439727829431,2,1,2,-2,-5,-3,-5,-4
1558439727829431,-2,-3,-2,0,-4,-3,0,4
1558439727830428,-3,1,-1,-2,-1,-8,0,3
1558439727830428,-1,-1,-2,-4,3,7,-1,2
1558439727851371,-2,-1,-2,-1,-5,-4,-6,-9
1558439727851371,0,0,0,0,-3,3,4,0
1558439727853367,-3,-3,-2,-1,-5,-3,0,-1
1558439727853367,-2,0,-1,-3,-3,-2,-3,-1
1558439727858354,1,0,1,-1,7,3,5,5
1558439727858354,0,0,-2,0,2,3,2,-2
1558439727874311,0,-2,-2,-4,-8,-6,-8,-8
1558439727874311,-1,-1,-3,0,0,8,0,-3
1558439727897250,-1,2,0,0,2,-3,2,6
1558439727897250,-3,-2,2,0,5,8,6,2
1558439727898248,-2,-2,-3,-1,-6,-6,-2,-3
1558439727898248,-2,-1,-3,-2,-12,-12,-9,-3
1558439727920188,-3,-1,-1,-2,5,5,-2,-6
1558439727920188,-1,-1,0,0,0,-3,-2,1
1558439727921186,-1,0,1,-1,9,5,3,2
1558439727921186,-1,-3,0,-1,-2,-2,-5,-5
1558439727922183,0,0,-2,1,-3,1,2,6
1558439727922183,-1,-2,0,-1,-4,-9,-2,-2
1558439727942128,-1,-2,-4,-3,-6,4,-3,1
1558439727942128,-3,-3,-5,-5,-8,-10,-8,-5
1558439727942128,2,2,2,2,9,11,9,2
1558439727942128,0,1,3,1,12,10,5,-3
1558439727955127,0,-1,2,0,1,-3,1,5
1558439727955127,0,0,1,0,1,-6,-3,0
1558439727964071,-2,-2,-3,-1,-7,0,2,0
1558439727964071,-1,-3,-2,-3,-7,-9,-5,-2
1558439728017925,-1,-4,-2,-2,1,10,4,-3
1558439728017925,2,2,1,0,-1,-3,1,0
1558439728017925,-1,-1,-2,-4,-9,-19,-10,2
1558439728017925,4,3,2,5,19,22,10,7
1558439728024907,-3,0,1,0,5,3,-2,-9
1558439728024907,-2,-3,-1,0,-7,-1,-3,1
1558439728032887,-2,-3,-1,-3,-5,-10,-3,-1
1558439728032887,-4,-2,-2,-6,-13,-18,-8,-1
1558439728034881,-1,-1,-2,-2,-14,-5,-12,-12
1558439728034881,2,2,2,4,24,26,18,4
1558439728034881,3,1,1,2,8,3,0,3
1558439728034881,-2,-3,-6,-2,-1,-7,-4,-4
1558439728040864,-1,-2,-2,-2,-5,-5,-3,5
1558439728040864,-3,-3,-1,-3,-4,-2,0,-5
1558439728061809,1,-2,-2,-1,-7,5,-4,-1
1558439728061809,-1,-1,1,0,-2,-1,-3,0
1558439728085745,-1,-2,-1,-2,-1,-4,-1,1
1558439728085745,-1,-1,-5,-2,-3,-2,-5,-1
1558439728085745,-2,0,-1,-2,-7,-9,-3,-4
1558439728085745,0,1,1,0,-1,-1,2,-2
1558439728087739,3,2,4,1,8,0,6,6
1558439728087739,1,1,3,3,12,12,6,2
1558439728099070,-2,-1,0,-1,1,4,1,0
1558439728099070,2,-1,0,-1,-8,-2,-1,0
1558439728107685,-1,1,-1,-2,0,-7,-6,-4
1558439728107685,-1,-2,-1,-3,-7,-7,-1,1
1558439728108683,4,1,-1,1,4,2,-3,-2
1558439728108683,0,-2,0,0,-2,-2,-1,-2
1558439728129659,-2,0,-2,0,2,5,2,0
1558439728129659,-4,-5,-4,-6,-12,-11,-5,-4
1558439728129659,-3,-1,-3,-1,7,10,5,3
1558439728129659,-4,-1,-1,0,-4,1,-3,-5
1558439728151568,1,0,0,1,3,1,0,0
1558439728151568,0,-2,-3,-2,-1,-4,-2,-3
1558439728152566,-2,-4,-4,-3,-10,-8,-6,-3
1558439728152566,-3,-3,-3,-3,-12,-11,-9,-4
1558439728167603,-1,-1,0,2,6,2,6,2
1558439728167603,3,1,3,1,10,-4,7,10
1558439728167603,0,-1,3,1,0,4,1,-1
1558439728167603,0,0,-3,-2,12,10,8,1
1558439728174507,-5,2,-3,-2,-10,-8,-12,-8
1558439728174507,0,-2,-2,0,-10,-9,-8,0
1558439728196509,-2,-2,-2,-3,-6,-9,-6,-5
1558439728196509,-2,-1,-3,-5,-7,-6,-3,-6
1558439728198470,1,-4,-2,0,1,0,6,4
1558439728198470,1,1,3,3,8,6,-1,2
1558439728211410,-3,-1,0,-2,-2,6,3,-1
1558439728211410,-2,-3,-2,-3,-13,-14,-10,-6
1558439728218389,-3,-5,-2,-2,-5,-6,-4,-1
1558439728218389,1,3,0,-1,4,8,5,3
1558439728219386,0,-1,-2,1,6,4,6,0
1558439728219386,-1,-1,1,2,4,4,3,-2
1558439728242325,-2,0,0,-2,-7,-3,-4,-4
1558439728242325,-4,-3,-4,-4,-10,-5,-9,-3
1558439728243324,0,-2,0,-2,1,6,1,0
1558439728243324,-2,-3,-4,-5,-11,-4,-5,-3
1558439728255290,1,-1,3,0,1,-15,-1,4
1558439728255290,3,4,5,6,25,8,18,12
1558439728271248,-1,-1,0,-1,4,1,-4,-4
1558439728271248,-1,0,-2,-3,-1,4,1,2
1558439728319147,-4,-5,-5,-6,-17,-4,-8,-10
1558439728319147,-2,0,-3,-4,-12,-8,-7,-6
1558439728319147,0,0,2,2,16,5,3,1
1558439728319147,2,0,2,1,2,2,6,7
1558439728323110,-1,1,-3,-1,3,6,3,1
1558439728323110,-3,-4,-5,-5,-14,-6,-7,-7
1558439728340114,-1,-1,-2,-2,-8,-3,-4,-2
1558439728340114,-1,0,0,2,7,-4,-3,0
1558439728342059,-3,-3,-2,-4,-16,-9,-9,-2
1558439728342059,2,0,0,1,5,0,3,3
1558439728347072,1,-1,1,-1,1,-6,-1,3
1558439728347072,-3,-1,-1,-3,-6,1,-6,-5
1558439728347072,1,-1,-2,0,2,9,6,1
1558439728347072,0,0,-3,-3,-3,-4,-5,-2
1558439728361009,-3,0,-2,-1,-3,0,-5,-5
1558439728361009,1,1,-3,-2,-3,-1,1,1
1558439728362005,-1,0,0,-1,-1,-1,-2,-3
1558439728362005,-3,-2,0,-3,-2,-5,-1,2
1558439728383948,2,-1,-3,-3,-4,-1,1,-1
1558439728383948,-1,-3,-2,-1,-3,-7,-2,-2
1558439728384944,1,-2,-2,-1,-5,-9,-9,-7
1558439728384944,-1,-3,-2,0,4,13,0,-1
1558439728406886,-3,-2,-1,1,6,1,1,1
1558439728406886,-4,-1,0,-2,-2,1,1,0
1558439728407882,-1,-1,0,-1,1,-8,-1,2
1558439728407882,-1,0,0,-1,-7,-4,-3,-1
1558439728428832,2,0,0,0,8,15,4,-1
1558439728428832,-1,0,-4,0,0,-6,-1,1
1558439728429823,-3,-2,-2,-3,-5,-1,3,0
1558439728429823,-4,-1,0,0,-4,-8,-6,-3
1558439728443787,-1,0,-3,0,3,-2,1,1
1558439728443787,-1,-2,-2,-1,-5,6,-5,-8
1558439728444783,2,1,-1,0,4,4,8,8
1558439728444783,1,1,1,-1,3,4,1,3
1558439728458757,-2,-2,-2,-2,-7,-5,-3,-1
1558439728458757,-2,-2,-1,-1,-7,-6,-8,-7
1558439728459747,-1,0,-2,2,5,2,-1,-1
1558439728459747,2,-1,-1,-1,4,-4,1,1
1558439728498644,-2,-2,0,-3,-4,-1,0,1
1558439728498644,-2,-2,-1,0,0,0,0,-3
1558439728499638,-1,-2,-1,0,4,2,2,0
1558439728499638,-2,0,-2,-3,-8,-5,-3,-1
1558439728520671,-2,-3,1,-1,0,-1,-4,-5
1558439728520671,-3,-2,-1,-1,-2,-2,-1,1
1558439728520671,0,1,-2,-3,-2,-7,-3,1
1558439728520671,-6,-3,-2,0,7,-1,-5,-4
1558439728522577,-2,-2,-2,1,-2,5,0,0
1558439728522577,1,-2,0,-3,-4,-4,-2,-2
1558439728526565,-3,-1,-1,-1,-6,-3,-4,-2
1558439728526565,-2,-2,-1,-2,-2,4,1,-1
1558439728532748,-2,0,-2,-3,-4,-20,-7,-1
1558439728532748,-1,-1,-3,1,2,6,-2,-3
1558439728587679,1,1,1,0,1,-2,-3,-4
1558439728587679,2,-3,-2,0,-1,-1,8,3
1558439728588403,-1,1,0,-1,3,6,0,-3
1558439728588403,1,2,1,0,5,6,5,6
1558439728610348,-2,-2,-3,-4,-10,-6,-3,-4
1558439728610348,-3,-2,-2,-2,-5,-1,-7,-9
1558439728612345,-1,-4,-3,-4,-7,-16,-1,1
1558439728612345,-5,-3,-3,0,-2,-9,-15,-15
1558439728612345,-1,-2,2,2,8,16,8,3
1558439728612345,-2,-2,-1,-3,-5,-7,-3,-1
1558439728617372,0,0,-2,-2,2,8,1,1
1558439728617372,1,-1,-1,-2,-7,-9,5,8
1558439728618327,-3,0,-1,-1,-1,-8,-9,-7
1558439728618327,1,3,1,3,9,16,7,5
1558439728619321,-1,-3,-1,-1,-9,-4,-2,-3
1558439728619321,-1,1,2,0,11,7,9,2
1558439728623514,-1,0,-1,1,3,3,3,1
1558439728623514,0,0,-2,0,-5,-8,-4,-2
1558439728639336,0,0,-2,-1,-2,2,-4,-3
1558439728639336,2,0,-2,-2,-4,4,4,7
1558439728663204,-2,-1,-2,1,-1,-5,-5,-6
1558439728663204,0,1,2,1,6,2,1,7
1558439728664200,-4,-3,0,-2,-6,-3,-3,-10
1558439728664200,-1,-2,0,0,1,6,6,4
1558439728664200,-2,-2,-2,0,-6,-7,-4,-1
1558439728664200,0,-2,-1,0,4,5,1,-4
1558439728684178,0,-3,-2,1,4,3,0,4
1558439728684178,-2,-1,-2,-2,-1,2,-5,-1
1558439728685143,0,-1,-4,-4,-7,-12,-2,1
1558439728685143,-1,1,1,-2,-1,-4,-1,-8
1558439728698445,-1,0,-2,1,4,10,7,9
1558439728698445,-3,-3,-3,-2,0,-1,1,-3
1558439728706085,1,0,-1,-2,1,3,-1,1
1558439728706085,-1,0,0,-5,-12,-9,-8,-1
1558439728713604,0,1,-2,0,3,2,1,-1
1558439728713604,-4,-1,0,2,5,-6,-9,-11
1558439728729300,-2,2,2,0,5,14,10,3
1558439728729300,0,0,0,0,0,0,4,2
1558439728752271,-2,-4,-4,-5,-9,-6,-10,-7
1558439728752271,0,-1,-2,-2,-3,-6,-5,-1
1558439728752961,-2,-3,0,0,-1,-5,1,0
1558439728752961,0,-3,-2,-1,-1,2,3,0
1558439728758246,-1,2,5,1,0,1,-3,-5
1558439728758246,0,-3,-3,-1,-9,-5,-7,-5
1558439728766224,0,-3,0,-1,3,-7,-2,6
1558439728766224,-1,-2,-4,-1,5,4,1,-1
1558439728781216,1,1,2,1,4,3,2,2
1558439728781216,-1,-1,-4,-1,3,-2,1,0
1558439728781883,-2,0,-3,-3,-5,1,2,2
1558439728781883,0,-3,-3,-2,-6,-6,-6,2
1558439728796140,-4,-3,-4,-1,-4,-5,-2,-11
1558439728796140,0,-3,0,-1,-2,1,-2,-1
1558439728850699,0,0,-1,0,3,1,2,0
1558439728850699,0,1,-1,-1,1,-6,-4,0
1558439728851700,-1,-2,-1,-1,1,-1,-3,1
1558439728851700,-2,-1,1,-3,-9,-5,-1,-3
1558439728852698,0,-2,-1,1,-1,7,0,1
1558439728852698,-1,1,1,2,-1,-8,4,1
1558439728857681,2,2,2,2,7,2,3,5
1558439728857681,-4,-2,-2,-2,2,1,-1,-3
1558439728858679,2,-1,0,-3,-9,-15,-3,7
1558439728858679,-1,-2,0,1,3,12,-5,-6
1558439728859676,3,2,3,0,2,4,6,5
1558439728859676,0,2,-1,-1,-2,-8,-4,1
1558439728863665,-2,-1,-1,-2,-1,1,-1,-4
1558439728863665,-2,0,0,-2,1,-2,2,1
1558439728877627,-1,-3,-6,-3,-7,-4,-5,-2
1558439728877627,0,0,1,3,7,5,4,0
1558439728917519,-1,-3,-3,-5,-7,-5,-11,-6
1558439728917519,-3,-2,-1,-3,-4,0,-4,-6
1558439728926496,0,-2,0,1,4,2,4,8
1558439728926496,-2,0,1,-1,1,4,-2,-1
1558439728927493,0,-2,-1,0,0,-3,-6,-5
1558439728927493,-1,-1,-4,-3,-9,-3,-2,-3
1558439728954796,-2,-2,-3,-2,-4,-4,2,-3
1558439728954796,0,1,-3,-2,-1,-2,0,3
1558439728984345,-2,-1,0,2,6,6,4,-2
1558439728984345,-2,-1,-3,-1,3,0,0,0
1558439729023529,0,0,1,0,1,-5,1,1
1558439729023529,0,-2,0,-1,0,-5,0,-1
1558439729024459,-3,-2,-1,-1,-5,3,-6,-5
1558439729024459,-3,-1,-2,-1,-2,2,5,3
1558439729025235,0,0,-1,-1,-2,-6,-4,-2
1558439729025235,-1,-3,-1,-2,-7,-6,-4,-2
1558439729030501,1,2,0,-2,1,-2,-3,-5
1558439729030501,0,-2,-2,-1,1,8,9,5
1558439729030501,0,1,1,0,6,-8,0,3
1558439729030501,-4,-1,-2,-3,2,6,4,0
1558439729031219,-4,-4,-4,-4,-8,-3,-6,-6
1558439729031219,0,-3,-1,-5,-8,-4,-6,-4
1558439729052358,1,3,2,-3,-1,0,1,-2
1558439729052358,-3,-5,-2,0,2,6,1,-4
1558439729052358,-1,-1,1,1,6,6,1,2
1558439729052358,-2,-2,-2,0,1,-7,-3,-4
1558439729076097,-2,-4,-3,-3,-3,-7,-5,-1
1558439729076097,-1,-2,0,0,-3,1,0,3
1558439729076097,1,0,0,-2,-2,5,2,-4
1558439729076097,-1,-2,-1,-1,2,-2,-7,3
1558439729113002,-3,0,0,0,-3,-3,-3,-8
1558439729113002,0,1,1,-1,5,0,3,2
1558439729113995,-1,0,-2,-3,-5,0,-1,-1
1558439729113995,0,-3,-3,-5,-7,-1,-1,-4
1558439729114993,-2,-1,0,-1,1,0,2,-1
1558439729114993,-1,-3,-5,-4,-16,-19,-15,-2
1558439729120978,-1,0,0,2,11,11,5,-3
1558439729120978,0,2,1,0,-4,0,0,-2
1558439729133943,0,-1,-1,0,-2,5,3,1
1558439729133943,-4,-3,-2,-1,0,-3,-4,-4
1558439729134938,0,-1,-3,0,-6,-10,-4,3
1558439729134938,-2,-2,1,1,0,-1,-2,-5
1558439729142328,-2,-2,-4,-3,-2,3,-6,-4
1558439729142328,0,-3,-4,-2,-6,-6,-5,-1
1558439729157348,0,-1,1,0,1,-2,0,0
1558439729157348,0,-1,-2,-2,-2,-2,3,1
1558439729159092,1,-2,-1,-2,-4,-3,-5,-9
1558439729159092,-1,-1,0,1,2,2,0,0
1558439729164354,-1,-1,1,-1,8,-1,4,3
1558439729164354,-2,-1,0,-2,-3,-3,-5,-3
1558439729177824,-1,0,-1,-2,-4,-3,0,4
1558439729177824,1,1,1,-1,-1,5,3,-1
1558439729203064,-1,-2,-1,-3,-5,-3,-4,-6
1558439729203064,-4,-4,-5,-5,-9,-9,-9,-4
1558439729203757,1,1,3,3,15,10,8,6
1558439729203757,2,2,3,0,5,6,5,1
1558439729204751,0,0,-2,-3,-6,-8,-3,3
1558439729204751,-3,0,1,1,0,5,-1,-4
1558439729216029,1,-1,-1,0,-2,-4,-3,1
1558439729216029,0,-2,-2,-2,1,2,5,7
1558439729223951,-3,1,0,2,5,3,-3,-11
1558439729223951,-3,-4,-4,-6,-10,-8,-4,1
1558439729238699,-2,-4,-1,-3,-1,2,-1,-1
1558439729238699,-4,-1,-1,0,2,0,-1,-8
1558439729246800,2,-2,-2,0,-3,-5,0,2
1558439729246800,0,1,0,0,10,5,4,1
1558439729260607,-4,-1,-1,-1,-5,0,-4,-3
1558439729260607,-1,-1,1,-3,-4,-1,0,-1
1558439729261600,-2,-1,-2,-5,-5,-6,-4,-2
1558439729261600,1,1,1,0,5,-2,5,4
1558439729275604,-1,1,-3,-2,-4,-2,-4,-1
1558439729275604,-3,0,-2,-1,-1,6,1,-2
1558439729283551,-2,-2,-2,2,0,-5,-2,-3
1558439729283551,3,0,2,1,4,7,5,3
1558439729298542,-1,-2,-1,-2,-3,-11,-3,-6
1558439729298542,-1,-3,-2,-1,-4,0,1,4
1558439729306485,1,2,1,-2,-2,-1,-2,-2
1558439729306485,0,-4,-2,-2,-3,0,0,7
1558439729321472,-3,-3,0,0,-4,-6,-4,-10
1558439729321472,1,1,-1,1,7,10,3,-1
1558439729321472,-3,-1,0,-1,4,-2,-3,-1
1558439729321472,-4,0,-1,1,-5,-5,-5,-4
1558439729335744,-1,-1,0,-2,2,13,9,8
1558439729335744,-1,1,-3,0,-3,-10,-5,-7
1558439729343381,-2,-3,-2,-1,-5,-8,-1,0
1558439729343381,-2,0,-1,-3,1,5,-5,-5
1558439729367434,1,0,1,0,-2,3,3,2
1558439729367434,-2,0,-1,0,-5,-11,-11,-8
1558439729367434,-2,0,0,-1,-1,-1,3,0
1558439729367434,0,0,1,2,-1,-4,-5,-1
1558439729389461,2,-1,-1,1,4,9,6,5
1558439729389461,-2,-3,-2,-3,2,7,1,2
1558439729390257,0,-3,-5,-5,-6,-3,-3,-6
1558439729390257,-1,0,-1,-3,-4,-5,-3,-3
1558439729395270,0,1,-1,1,5,-4,4,5
1558439729395270,-2,-1,1,1,4,1,-1,-6
1558439729411200,0,1,3,0,0,-2,-1,2
1558439729411200,-2,-2,-2,-2,-1,-6,-4,-2
1558439729418428,0,-1,-3,-2,1,3,-1,-2
1558439729418428,-1,-1,0,-3,-1,1,3,4
1558439729433145,0,0,1,1,-4,2,-4,-2
1558439729433145,-1,-2,-1,0,0,1,-1,-1
1558439729441121,1,-2,-2,-6,-7,-10,-5,-4
1558439729441121,1,0,1,1,6,0,5,2
1558439729442119,2,-2,0,3,3,7,6,4
1558439729442119,-2,-2,-3,-5,-11,-14,-9,-5
1558439729455081,-3,1,-1,0,-1,0,-7,-4
1558439729455081,2,1,0,3,7,11,3,0
1558439729463059,-3,0,-3,-4,-2,-4,-1,-2
1558439729463059,-1,-1,1,-3,-4,-5,-1,-1
1558439729478019,-2,-3,0,0,1,-3,-3,-2
1558439729478019,-1,-2,0,-2,0,2,1,0
1558439729486436,-2,-3,-2,-1,3,3,1,4
1558439729486436,-1,-1,-1,0,1,3,3,0
1558439729501324,-2,2,1,-2,0,0,0,2
1558439729501324,-3,-5,-3,-5,-7,-11,-9,-7
1558439729509400,-1,-5,-3,-2,-8,-4,-7,-6
1558439729509400,0,0,0,1,7,16,6,-4
1558439729514922,1,3,1,1,1,-7,-3,3
1558439729514922,1,-1,-4,-1,-4,-4,0,1
1558439729523897,-3,0,1,-2,1,5,2,2
1558439729523897,1,0,0,-3,-10,-8,-4,0
1558439729537859,-3,-5,0,3,11,11,4,-3
1558439729537859,-1,3,2,0,2,-7,0,6
1558439729545877,-2,-2,-2,-1,0,-3,-2,-5
1558439729545877,0,1,-2,-2,-4,-1,0,0
1558439729560803,-2,-4,-3,0,-5,3,4,-1
1558439729560803,-3,-3,-2,-1,-5,-3,-8,-4
1558439729569247,-1,-1,-2,-1,1,0,-1,-1
1558439729569247,3,1,-1,0,3,-1,2,1
1558439729576232,1,1,1,-1,5,0,-1,-3
1558439729576232,1,-1,0,-3,-5,-2,0,3
1558439729584198,-3,-2,-2,-4,-9,-2,-7,-6
1558439729584198,-3,1,1,-1,2,2,1,-2
1558439729598047,2,1,0,1,3,-10,-3,3
1558439729598047,2,0,1,-1,1,2,-1,-1
1558439729606950,-1,-1,-1,-1,-3,3,-2,-3
1558439729606950,-1,-3,-3,-1,-1,6,4,5
1558439729620999,-6,-3,-2,-2,-4,-8,-6,-7
1558439729620999,0,-1,-3,-3,-4,-3,0,-2
1558439729628915,-1,1,0,0,3,0,4,2
1558439729628915,-1,-4,-3,-1,-1,-6,-3,-3
1558439729635903,0,-2,0,-2,-2,5,2,1
1558439729635903,-1,0,-3,-1,-5,-1,2,-3
1558439729643580,-1,0,0,1,3,2,-1,5
1558439729643580,-1,1,0,-1,2,-1,0,1
1558439729658671,-1,-1,-2,0,-4,0,-4,-2
1558439729658671,-1,-3,-1,-2,-3,-7,-4,-1
1558439729666519,1,-2,-2,-3,-6,-9,-8,-5
1558439729666519,-6,-3,-4,-1,-2,3,-2,-5
1558439729689703,-1,3,1,-1,4,-3,8,2
1558439729689703,-1,0,3,3,9,11,2,3
1558439729689703,-1,-4,-2,-1,-4,-7,-2,-2
1558439729689703,2,-1,2,0,-3,-4,0,0
1558439729704454,-3,-2,-3,-1,-1,5,-3,-9
1558439729704454,-2,-2,0,0,1,5,2,0
1558439729705425,1,0,0,0,4,-4,1,3
1558439729705425,0,-2,-1,0,-2,-1,-5,-1
1558439729718376,0,-1,-2,-3,-5,1,4,2
1558439729718376,-1,-1,-2,-2,-2,-2,-1,-3
1558439729726355,0,0,1,-2,2,3,2,-1
1558439729726355,-2,1,0,-1,0,3,-1,-4
1558439729740319,0,-1,0,0,1,1,-5,-1
1558439729740319,0,-4,-2,-2,-9,-10,-8,3
1558439729748816,-2,-1,-4,-3,-8,-3,-4,-3
1558439729748816,-1,-2,-1,-1,-1,-8,-3,-1
1558439729764774,-4,-1,1,0,3,8,4,-1
1558439729764774,2,-3,-4,0,-1,0,2,5
1558439729765253,1,1,-1,0,1,5,2,-1
1558439729765253,1,1,1,0,3,-8,-2,-4
1558439729778217,-3,-4,-2,-4,-16,-4,-6,-3
1558439729778217,-2,0,2,2,10,-2,0,-2
1558439729786675,-2,0,-1,-3,-5,-4,-1,0
1558439729786675,-1,-2,-2,0,0,4,3,2
1558439729800159,-1,-4,-1,-1,-3,-6,-3,-3
1558439729800159,0,-1,-1,-1,-1,5,2,1
1558439729809532,0,1,1,0,5,3,4,0
1558439729809532,-3,-2,-3,-3,-9,-11,-9,-5
1558439729824425,-2,-1,-2,-1,-4,-2,-3,2
1558439729824425,2,0,-1,-1,2,-4,2,-1
1558439729825095,-3,-1,-1,2,3,1,-2,-2
1558439729825095,2,-3,-2,-2,-4,-1,2,2
1558439729838086,2,2,0,1,8,9,3,1
1558439729838086,-4,-4,-3,-2,-2,2,-6,-9
1558439729846065,0,-2,-2,-1,-3,-13,-4,3
1558439729846065,1,0,0,-1,-4,-2,-7,-5
1558439729869412,1,0,1,1,3,-3,4,2
1558439729869412,-1,2,0,-2,-4,-5,-1,-1
1558439729869975,-1,-2,-1,1,-4,8,3,0
1558439729869975,-2,0,-3,0,8,5,4,0
1558439729884935,-1,-2,-4,-3,-7,-12,-9,-1
1558439729884935,1,1,1,1,9,14,7,0
1558439729884935,0,-1,0,-3,-2,-3,-1,2
1558439729884935,-5,1,-3,-3,-8,-1,-1,-1
1558439729898817,0,1,1,-1,-1,0,-1,-3
1558439729898817,0,-1,0,-4,-2,-4,0,3
1558439729906862,3,-2,3,0,1,4,3,-4
1558439729906862,-1,-3,-1,2,1,-6,-2,-1
1558439729929316,-2,-3,-5,-2,-3,-3,-4,-1
1558439729929316,-3,0,-2,-1,-4,-5,-6,-4
1558439729930313,-3,0,-4,-2,-2,1,-5,-3
1558439729930313,0,0,2,2,8,5,5,2
1558439729944598,-1,-3,-2,-3,0,0,1,3
1558439729944598,1,-3,1,0,-4,4,-1,-4
1558439729945274,-2,-3,-1,-2,-6,-8,-9,-6
1558439729945274,0,1,0,0,-6,-9,-4,-1
1558439729958556,2,2,2,3,11,5,5,7
1558439729958556,-1,-1,0,2,7,3,-1,-3
1558439729966537,-2,0,-2,-3,-4,-4,-6,-3
1558439729966537,-4,-4,-4,-3,-7,-6,-6,-4
1558439729980183,-1,0,-1,-3,-11,-10,-1,-4
1558439729980183,0,3,2,-1,-2,4,1,0
1558439729989245,0,-2,1,1,11,10,5,-2
1558439729989245,-2,1,1,1,3,9,-1,-2
1558439730003455,-2,-2,-2,-2,-4,-8,-4,1
1558439730003455,-3,-4,-4,-4,-7,-7,-9,-4
1558439730012095,1,-1,-2,-2,-7,-9,-2,5
1558439730012095,1,1,3,4,9,10,8,-1
1558439730018356,-1,-2,0,0,3,6,2,-3
1558439730018356,-2,-1,0,-1,-6,-5,-5,-3
1558439730027056,-2,-5,-4,0,1,1,0,-1
1558439730027056,-1,-2,0,-4,-5,-7,-6,-3
1558439730041186,1,-3,0,-2,-2,-2,1,4
1558439730041186,-2,-1,-2,-1,-3,-7,-8,-6
1558439730049043,-1,1,2,-2,1,-3,7,6
1558439730049043,-3,-3,-7,-2,-4,1,0,-3
1558439730063259,-2,0,-2,0,2,6,0,-5
1558439730063259,0,0,-2,2,1,2,2,1
1558439730071937,0,2,-2,-3,-1,3,-1,-5
1558439730071937,2,-3,-2,-4,-2,-3,1,1
1558439730077919,2,0,-1,2,3,2,4,2
1558439730077919,-2,-1,-2,-4,-8,-10,-3,-3
1558439730086895,-4,0,1,1,1,2,-3,-2
1558439730086895,1,2,2,-2,-5,-8,0,3
1558439730101141,0,1,-1,-4,0,4,-2,-3
1558439730101141,-2,0,-4,-4,-6,-2,0,0
1558439730109124,-1,1,2,3,8,2,7,6
1558439730109124,-6,-2,-1,1,1,-2,-9,-12
1558439730123089,-2,-1,1,-3,-9,-9,-9,-7
1558439730123089,-3,-2,-2,-1,-1,2,0,-1
1558439730131774,0,-1,0,1,3,2,4,3
1558439730131774,-2,0,-2,-1,0,4,0,3
1558439730137758,1,-1,-2,-2,-4,-6,-1,1
1558439730137758,-3,-2,-2,-2,-10,-9,-8,-4
1558439730146848,0,-2,-2,0,4,9,5,-1
1558439730146848,0,0,1,-1,3,-9,-3,-1
1558439730160697,-1,-2,-4,-1,2,12,3,-2
1558439730160697,3,-2,0,0,-1,-3,4,1
1558439730169672,-1,-4,-4,0,-4,-5,0,-5
1558439730169672,0,0,-2,-3,-2,3,-4,2
1558439730183691,-3,-2,-2,-1,-3,-7,-1,-1
1558439730183691,-1,0,2,2,14,10,5,4
1558439730191613,-1,-2,-1,-3,-6,-6,-6,-2
1558439730191613,1,0,-1,-2,-6,1,-4,-2
1558439730198643,0,-1,-2,-4,-7,-9,-7,-4
1558439730198643,-1,-1,-2,3,9,6,9,6
1558439730206757,-2,-1,1,-1,-5,-7,-5,-4
1558439730206757,-3,-4,-2,-1,0,2,1,2
1558439730220893,-1,2,1,-3,-5,-8,-2,3
1558439730220893,-4,-4,-4,-4,-8,-7,-14,-16
1558439730229592,4,2,-1,3,13,9,8,4
1558439730229592,0,-3,0,-2,-2,0,-2,4
1558439730242700,1,-1,0,2,8,10,-3,-5
1558439730242700,-3,-1,-2,-2,-5,-8,-1,-6
1558439730251765,-3,0,-2,-5,-13,-11,-10,-4
1558439730251765,1,1,-1,1,3,5,7,-2
1558439730258715,0,1,1,2,7,-5,6,12
1558439730258715,-2,-2,-1,-2,0,5,-1,-2
1558439730266751,-3,-1,-3,-3,-4,-1,-6,-4
1558439730266751,-1,1,-1,-3,-2,2,3,0
1558439730289694,-2,-3,-3,-1,-8,-4,-8,-7
1558439730289694,3,1,1,1,2,-3,2,7
1558439730291395,0,-2,-1,-1,3,-2,-2,0
1558439730291395,-1,-2,0,1,0,5,1,-3
1558439730303683,-1,0,0,-1,-3,-4,-7,-8
1558439730303683,-4,-4,-4,-4,-3,2,2,5
1558439730311596,-1,-2,-2,-1,-8,-6,-8,-3
1558439730311596,0,0,-1,1,6,0,10,4
1558439730318593,-1,-3,-2,-2,-1,5,4,-2
1558439730318593,0,1,1,1,5,0,3,3
1558439730326304,-3,-3,-3,-2,-3,-2,-7,-5
1558439730326304,-1,-2,-3,-2,-6,-6,-7,1
1558439730341298,-2,-2,-2,0,2,0,5,-5
1558439730341298,-4,-3,-5,-1,-8,-7,-9,-6
1558439730349240,-1,-2,-4,-1,-4,3,-2,0
1558439730349240,-1,0,1,1,6,5,3,-1
1558439730363522,1,-1,-2,1,1,-4,0,4
1558439730363522,3,1,2,-2,-3,-6,4,2
1558439730372180,-3,-2,-1,-1,-4,0,-1,-2
1558439730372180,-4,-4,-2,-5,-6,-6,-8,-5
1558439730378190,-2,0,0,-2,-5,-6,-5,3
1558439730378190,1,-1,1,-1,6,3,0,-2
1558439730387140,4,1,1,0,4,2,3,5
1558439730387140,0,0,-1,-1,2,4,4,6
1558439730401124,-3,-1,0,0,-1,-2,-4,-4
1558439730401124,-1,-1,-2,-2,-10,-4,-2,1
1558439730409265,-1,1,0,0,3,3,5,-2
1558439730409265,0,-2,-2,-1,1,-2,-6,-5
1558439730423371,1,0,0,0,9,-2,1,1
1558439730423371,0,-2,-1,-1,-2,-1,0,-1
1558439730432023,-2,-2,0,0,2,9,4,0
1558439730432023,1,1,2,0,-1,4,2,0
1558439730438294,-1,-3,-2,-3,-6,-1,-2,-3
1558439730438294,0,1,1,2,5,-1,1,1
1558439730446982,-2,0,0,-4,-1,0,-2,-1
1558439730446982,-2,-1,-3,1,-8,-9,-3,-6
1558439730459945,-1,0,-2,-2,0,1,-2,-1
1558439730459945,0,0,-2,-1,-1,-1,-4,-1
1558439730469160,-3,-1,-1,-3,-2,-3,-4,-4
1558439730469160,0,0,0,0,6,-3,4,3
1558439730483090,-1,-2,-3,-1,-4,-6,-1,-1
1558439730483090,0,-1,1,-1,2,11,3,0
1558439730491858,-2,0,-2,-2,-3,-1,-4,-1
1558439730491858,-2,0,-1,-1,-5,-10,-4,-1
1558439730497845,-1,-2,-2,-2,-1,4,1,1
1558439730497845,0,1,1,-1,6,4,3,0
1558439730506819,-1,-3,-3,-2,-2,-4,-2,-1
1558439730506819,-2,-2,-2,-4,-10,-5,-3,0
1558439730520780,-2,-1,1,1,2,1,-6,-8
1558439730520780,2,0,-1,3,8,0,7,2
1558439730528759,-1,-1,-3,-1,-7,-9,-9,-8
1558439730528759,0,-2,-1,-2,-1,4,0,0
1558439730542721,-2,-2,0,-2,-6,1,-1,-2
1558439730542721,-3,-1,-3,-3,-5,-7,-10,-1
1558439730551738,0,-1,-1,2,-1,1,4,2
1558439730551738,0,-2,0,0,6,-2,3,1
1558439730557756,-2,2,1,2,2,6,1,2
1558439730557756,-1,1,0,-1,0,2,2,-1
1558439730566699,-2,-3,-1,-2,-6,-6,-4,0
1558439730566699,-1,-4,-2,-3,-7,1,-6,-8
1558439730581162,0,0,0,-2,1,-4,2,8
1558439730581162,0,-4,-2,-1,-2,-5,0,-1
1558439730589640,2,2,2,0,4,4,1,3
1558439730589640,-3,-1,0,1,9,8,3,1
1558439730603064,-2,-2,-3,-3,-6,-8,-8,-5
1558439730603064,-1,-2,0,-3,-3,-1,1,3
1558439730612071,2,0,1,-1,-1,1,6,3
1558439730612071,-3,0,0,-2,-6,-3,-3,-6
1558439730634927,-2,-1,0,-1,3,-4,-4,-4
1558439730634927,0,-2,-1,-1,3,5,3,1
1558439730636551,-3,-1,0,-1,-5,-3,-1,1
1558439730636551,-1,-4,-3,-2,0,0,-6,-8
1558439730640796,-3,-1,-2,-2,-3,-3,3,3
1558439730640796,-4,-1,2,1,-2,4,-4,-4
1558439730649478,-2,-3,-3,-4,-5,-7,-6,-3
1558439730649478,-1,1,1,-1,0,-8,-1,6
1558439730663595,0,-2,-2,-1,1,6,6,-2
1558439730663595,-3,-5,-7,-4,-9,-7,-5,-4
1558439730671449,1,-1,-1,1,5,6,2,-1
1558439730671449,1,2,-1,3,11,11,3,1
1558439730687463,1,-2,-2,-1,0,-4,-4,-3
1558439730687463,0,1,1,-1,-6,-4,1,-1
1558439730688381,0,-1,1,-1,4,0,-1,0
1558439730688381,0,-2,-2,0,-3,0,0,1
1558439730700563,-1,-3,-3,-1,1,0,0,1
1558439730700563,-5,-1,-3,-2,-10,-8,-7,-6
1558439730709322,-1,0,0,2,1,-3,2,1
1558439730709322,-1,-1,-1,-2,-2,-4,-5,-2
1558439730723278,-2,2,0,0,7,12,7,1
1558439730723278,-2,-1,-3,-1,-6,-2,-4,-2
1558439730732260,0,-2,-2,0,-3,-9,-1,-1
1558439730732260,-1,0,1,-1,1,0,2,3
1558439730747217,-1,-1,-3,-4,-12,-11,-8,-3
1558439730747217,-1,-2,-4,1,2,5,3,2
1558439730748212,-1,1,1,-1,10,11,5,-5
1558439730748212,-1,-1,-1,-2,-4,-3,2,1
1558439730760180,1,-4,0,1,1,3,-3,-7
1558439730760180,0,1,-1,-1,3,-1,1,-3
1558439730769158,-1,-4,-5,-2,-5,-7,-5,4
1558439730769158,-1,0,-1,-1,-5,-4,3,3
1558439730783521,-3,1,-2,-1,0,-2,-2,-5
1558439730783521,-1,-2,0,-3,-5,-2,-2,0
1558439730792095,-2,-2,-1,-2,1,5,2,-2
1558439730792095,-2,-3,-5,-4,-1,-5,-6,-2
1558439730807434,3,1,1,-2,-1,-2,0,2
1558439730807434,1,0,1,1,5,1,0,0
1558439730809094,-1,-1,-2,-2,-4,-3,-4,-3
1558439730809094,-2,-2,-1,0,-4,0,0,-4
1558439730821118,-2,0,1,-3,-4,-5,-2,4
1558439730821118,-2,-1,-4,1,3,0,1,-3
1558439730828996,-3,-2,1,1,6,6,0,-2
1558439730828996,-3,1,-1,-1,-7,-5,-4,-5
1558439730842959,-1,-2,-2,1,7,10,7,2
1558439730842959,-2,-2,-1,-2,-3,-6,-5,-2
1558439730851942,-1,-2,-1,-2,-6,-7,-1,2
1558439730851942,-1,1,1,1,8,-1,1,-2
1558439730867189,0,2,1,1,5,9,4,4
1558439730867189,-2,-3,-2,-3,-5,-7,-3,-4
1558439730867893,1,-1,-2,-1,-3,1,1,1
1558439730867893,-2,-2,1,-1,-5,-3,-3,1
1558439730881111,-2,-5,-4,-3,-12,-3,-7,-11
1558439730881111,1,-1,2,-4,0,-5,0,5
1558439730889114,1,2,-1,1,5,-2,3,1
1558439730889114,-3,0,-1,1,-8,-5,-4,-4
1558439730903075,-2,0,-1,-1,-1,1,2,0
1558439730903075,-1,1,2,0,4,7,1,-3
1558439730911869,-2,0,-3,-4,-6,-7,-10,-4
1558439730911869,-1,-3,-3,-3,1,2,1,-1
1558439730926754,-2,-1,-1,0,-4,-1,2,0
1558439730926754,0,-3,-2,-1,-2,1,-2,-4
1558439730927738,-2,-1,1,1,0,-6,-2,-1
1558439730927738,2,0,2,-1,2,5,3,0
1558439730940729,-2,-3,-2,-5,-10,-10,-10,-2
1558439730940729,-1,1,-1,0,0,-4,-1,1
1558439730949702,-1,0,-1,0,2,2,0,-1
1558439730949702,-3,-2,-4,-2,-2,1,-1,-1
1558439730962637,-1,-1,0,1,4,-1,1,2
1558439730962637,-1,0,1,0,-1,-1,-6,-4
1558439730971614,-2,0,-3,-3,-2,2,0,-1
1558439730971614,-2,-2,-3,0,-5,-10,-4,-3
1558439730987016,-2,1,1,0,1,-3,4,2
1558439730987016,0,-2,-4,-1,-5,4,-2,6
1558439730988573,-1,0,2,2,3,1,0,-8
1558439730988573,1,-1,1,0,-1,6,1,-2
1558439731000538,-1,-2,-3,-4,-4,-5,-5,1
1558439731000538,-1,-2,-2,-1,-2,-3,-1,-3
1558439731010544,-3,-3,0,0,-6,-1,-2,-1
1558439731010544,1,0,1,-1,3,-4,-2,-1
1558439731023867,-1,-1,-2,-1,0,7,1,-3
1558439731023867,-1,-1,-1,-2,-2,-3,0,2
1558439731031873,2,1,2,1,3,1,1,5
1558439731031873,0,-1,-1,1,3,3,1,-4
1558439731047629,0,-2,-2,-4,-5,-8,-8,1
1558439731047629,0,2,0,-1,3,9,1,-1
1558439731048450,-1,1,-3,-4,-4,-6,3,1
1558439731048450,-1,-1,-1,1,5,5,6,0
1558439731060379,0,-2,0,1,2,6,-1,-2
1558439731060379,-3,-2,-1,1,2,-2,0,0
1558439731069198,-1,-2,-2,-3,-8,-7,-5,-2
1558439731069198,-3,-2,-3,-4,-8,-5,-7,-7
1558439731082704,2,0,-2,1,3,3,6,4
1558439731082704,3,0,1,1,3,1,3,0
1558439731091874,1,-2,0,-2,0,2,-1,-3
1558439731091874,1,-4,-4,0,-2,-3,4,8
1558439731106961,-1,0,1,1,8,0,1,-5
1558439731106961,0,-2,2,-1,-4,-3,-3,-4
1558439731108860,-3,-3,-2,-2,-5,-2,-4,-3
1558439731108860,-4,0,-1,-2,1,-2,-7,-3
1558439731120907,-3,0,-3,-4,-6,-8,-5,0
1558439731120907,1,0,-1,2,3,1,6,5
1558439731129581,-1,-2,-1,0,3,5,-2,-5
1558439731129581,1,-4,-1,-3,-6,3,0,2
1558439731142545,-3,-2,0,0,-1,-6,-3,-4
1558439731142545,-1,0,2,-3,1,2,-3,-4
1558439731151796,-1,-3,-5,-5,-12,-8,-3,2
1558439731151796,-2,2,-1,1,1,2,7,4
1558439731166803,3,1,1,3,5,-2,-1,-2
1558439731166803,-3,-1,-2,-2,-3,-1,-7,-6
1558439731168476,-3,-2,-1,-1,-2,4,1,-3
1558439731168476,0,0,-2,1,5,4,-1,3
1558439731180471,1,-2,-1,-2,-5,1,4,-2
1558439731180471,-1,0,1,-1,-3,-6,-3,1
1558439731189420,-1,0,-1,-1,1,0,0,-1
1558439731189420,0,-2,0,-1,2,0,0,1
1558439731203474,-1,-2,0,-1,-2,1,-1,-3
1558439731203474,-2,-2,-6,-2,0,4,1,-1
1558439731211665,0,1,2,1,-5,-11,-5,1
1558439731211665,0,-1,-1,-2,-7,-3,-4,-5
1558439731226352,-4,-2,-2,2,5,-2,-5,-4
1558439731226352,-3,-3,-2,-1,0,0,1,0
1558439731228315,-4,-3,-2,-1,4,10,6,-2
1558439731228315,-2,-2,-1,-4,-1,-6,-3,-1
1558439731240981,0,0,-4,-3,-8,-6,-6,0
1558439731240981,-2,-1,-2,2,-2,-3,1,-2
1558439731249636,0,-2,-2,-2,-1,-4,-3,-2
1558439731249636,-1,-1,-3,-2,-2,-3,-1,-1
1558439731263597,0,0,2,0,4,8,1,0
1558439731263597,0,0,-1,-3,0,3,-1,-2
1558439731271837,1,1,0,-3,4,0,5,4
1558439731271837,-3,-2,-4,-2,-9,-7,-9,-9
1558439731286825,-1,0,1,-1,0,-5,-4,1
1558439731286825,-4,-3,-3,-2,-2,-1,-5,-5
1558439731288818,2,3,1,3,4,-2,-3,-1
1558439731288818,-1,1,3,0,2,2,0,-1
1558439731300770,-2,-4,-3,-6,-8,-1,3,-3
1558439731300770,0,-2,-1,0,0,-8,0,3
1558439731309475,-2,0,-1,-1,6,8,6,0
1558439731309475,-1,4,0,0,-3,2,-2,3
1558439731323626,1,-5,-2,-2,-8,-7,-3,2
1558439731323626,-3,-1,-2,-1,-1,-1,-1,-4
1558439731331662,-4,-2,-1,-3,-7,-8,-6,-6
1558439731331662,3,-2,0,1,10,4,3,1
1558439731346412,-2,0,1,-2,4,9,3,-1
1558439731346412,0,-4,-2,-4,-13,-12,-8,-4
1558439731352361,-1,-2,-1,2,5,7,5,5
1558439731352361,-4,0,-1,-1,-2,-7,-2,-3
1558439731360340,-4,0,0,-1,-1,-6,-1,2
1558439731360340,0,0,-3,-2,-8,-1,-6,-4
1558439731369315,-1,-1,1,-2,-4,-2,1,-2
1558439731369315,-1,-1,-3,-1,-1,-1,-2,-1
1558439731383370,0,1,-1,-1,-1,-3,0,0
1558439731383370,-1,-2,-1,-2,-6,0,4,6
1558439731391698,0,-2,0,1,9,10,-4,-11
1558439731391698,1,2,0,0,2,-8,1,2
1558439731406631,-5,-5,-5,-3,-6,3,1,-5
1558439731406631,2,-1,-1,0,0,-1,0,1
1558439731413629,1,1,-1,0,1,3,0,2
1558439731413629,2,-1,3,0,5,12,3,2
1558439731420618,1,1,2,-1,-3,-13,-3,1
1558439731420618,-2,1,0,-1,0,-5,-1,0
1558439731429155,-2,-3,-1,-2,-1,3,1,3
1558439731429155,-1,-1,-1,-3,-11,-14,-7,-5
1558439731443119,-3,-2,-3,-3,-5,-1,-4,-2
1558439731443119,1,1,2,1,7,5,4,3
1558439731452094,2,-1,0,-4,-2,-9,-6,3
1558439731452094,-4,-3,-3,-3,-4,5,-2,-12
1558439731466057,0,-1,-1,-1,2,3,2,4
1558439731466057,1,0,0,1,5,1,2,0
1558439731473414,-1,-3,-3,-2,-1,1,1,-3
1558439731473414,-3,-3,-2,0,-4,2,1,0
1558439731480431,-1,-1,-1,1,4,8,1,-2
1558439731480431,-1,-1,0,0,-2,-6,-3,-1
1558439731489403,1,1,-1,-2,-5,-14,-3,3
1558439731489403,0,-1,-1,-1,-5,0,-2,-2
1558439731502957,0,0,1,-2,-1,-7,-3,-2
1558439731502957,-1,-1,0,-2,-4,1,-1,-2
1558439731511933,-3,-1,-2,-1,-4,-3,-3,-1
1558439731511933,-3,-3,-2,-1,1,-3,1,1
1558439731525894,3,-1,4,3,7,2,0,1
1558439731525894,-2,-2,-3,0,2,8,3,3
1558439731532875,-3,-3,-2,-2,-6,-9,-9,-10
1558439731532875,-1,1,-2,-2,1,-2,-4,-1
1558439731549271,0,-1,-1,1,-4,2,1,3
1558439731549271,-1,0,-3,-1,4,-1,4,0
1558439731550832,0,-2,0,-2,-1,0,0,2
1558439731550832,-2,-1,-1,-1,-1,-1,-5,-4
1558439731562796,-1,-2,-4,0,1,-3,3,-3
1558439731562796,-1,-1,-1,-1,-2,3,1,-1
1558439731571774,-1,0,0,0,-2,0,-2,0
1558439731571774,-1,0,1,1,0,-4,-2,0
1558439731585734,-1,-1,-4,-3,-7,-5,-1,0
1558439731585734,0,2,-1,0,5,2,0,-5
1558439731592722,-2,-3,-5,0,-1,9,3,5
1558439731592722,-2,-3,-1,-3,-8,-4,-2,-1
1558439731608708,-1,2,0,0,-5,-10,-7,-2
1558439731608708,0,-1,1,-1,2,-3,-3,-2
1558439731610670,0,1,1,1,8,6,4,3
1558439731610670,1,-2,-1,-3,0,6,1,0
1558439731622643,-3,-2,-1,-3,-3,-4,-3,0
1558439731622643,-2,-1,-2,0,-7,-9,-8,-5
1558439731631612,0,0,0,0,-2,-5,4,-3
1558439731631612,-1,-4,-2,1,9,11,4,3
1558439731645756,2,2,0,0,-4,2,1,0
1558439731645756,-2,-3,-2,-1,-2,-11,-11,-3
1558439731652559,-2,-3,-3,-3,-8,-5,-6,-5
1558439731652559,0,0,1,0,5,-1,-3,-3
1558439731669511,0,2,1,2,9,10,7,4
1558439731669511,-1,0,-1,-2,3,4,6,2
1558439731670509,-3,-4,-3,-3,-6,-9,-4,2
1558439731670509,0,-2,-3,-3,-8,-13,1,-1
1558439731682477,0,-3,0,-2,0,6,-4,-4
1558439731682477,-5,-5,-1,-3,-5,-8,-1,-2
1558439731691452,-4,-1,-2,0,-6,2,-1,-6
1558439731691452,0,0,1,-2,3,-3,-2,0
1558439731706689,0,1,1,0,7,5,5,1
1558439731706689,1,-1,4,0,5,10,5,3
1558439731713393,0,-4,-4,-3,-5,-10,-8,-4
1558439731713393,-1,-2,-3,0,-10,-2,1,2
1558439731729352,-2,-1,-4,-4,-4,-4,-5,-6
1558439731729352,1,-1,1,0,-4,-7,-2,3
1558439731730348,-3,0,1,0,-2,3,-6,-7
1558439731730348,1,2,2,2,9,4,3,1
1558439731742316,-4,-3,-4,0,-2,-5,-1,-2
1558439731742316,-4,-3,-1,-4,-4,-2,-7,-10
1558439731751301,-1,-2,1,-1,-5,-5,-2,-1
1558439731751301,1,-1,-1,2,4,5,3,7
1558439731766728,0,-1,2,2,9,14,3,-1
1558439731766728,-1,-1,-4,-6,-15,-13,-6,-1
1558439731773235,-1,-2,-4,-1,0,-2,-2,-2
1558439731773235,-1,0,-1,-1,-1,4,-3,-6
1558439731789458,1,-3,-3,-2,-4,-3,1,5
1558439731789458,-4,-1,1,3,7,15,11,-4
1558439731790189,2,1,3,2,1,-6,4,2
1558439731790189,-2,0,-1,-1,-5,-2,-2,-2
1558439731803154,-2,-1,-2,0,-2,1,-4,-1
1558439731803154,1,-1,-2,0,-3,-8,-3,0
1558439731812137,-1,2,2,1,8,12,4,1
1558439731812137,-2,-2,-3,-3,-7,-7,0,-2
1558439731826092,-1,0,-1,-1,2,-3,5,1
1558439731826092,-4,-2,-3,-2,-6,-5,-5,-2
1558439731833272,-1,-1,-1,-1,3,1,2,4
1558439731833272,-1,-2,-1,-1,-1,-4,-7,-2
1558439731849172,0,0,-1,0,-2,1,-6,-6
1558439731849172,2,-1,-1,-1,1,2,1,1
1558439731851026,2,0,-2,-3,-1,-5,2,-1
1558439731851026,-2,-1,-3,0,-3,-3,-2,1
1558439731863142,-3,-2,2,-1,0,-3,-2,-5
1558439731863142,0,0,-1,0,3,8,7,8
1558439731871971,-1,-3,-2,-2,-4,1,-2,-7
1558439731871971,1,-2,-1,-2,-3,-3,-1,5
1558439731884936,-3,0,0,-2,-1,0,1,-6
1558439731884936,1,0,-1,-1,-6,-12,-7,0
1558439731893919,-1,1,1,1,8,6,3,3
1558439731893919,1,-1,1,-1,1,2,-3,-1
1558439731909006,0,-1,0,1,5,4,6,4
1558439731909006,0,-1,-4,-1,-2,-2,-2,-2
1558439731910866,0,-1,0,-1,-4,-2,0,2
1558439731910866,-4,-3,-2,-2,-6,-11,-7,-4
1558439731922978,-2,-4,-4,-3,-10,-11,-6,-3
1558439731922978,-1,0,-1,-1,5,8,2,1
1558439731931810,-2,-1,0,0,-4,-6,-3,-8
1558439731931810,-1,-1,2,1,8,6,4,0
1558439731944919,-3,-2,-3,-2,-6,-1,-4,-4
1558439731944919,0,-2,0,0,-3,2,1,1
1558439731953753,0,-1,-3,-3,-3,-2,-2,-1
1558439731953753,-2,0,0,-1,1,-3,-1,-3
1558439731968711,-1,0,2,1,3,3,1,1
1558439731968711,2,2,1,1,7,3,1,2
1558439731970706,1,-1,-4,-2,-4,0,-4,-3
1558439731970706,1,-4,-3,-2,-7,-4,-1,-3
1558439731982673,2,-1,1,-1,-2,-12,-3,2
1558439731982673,0,1,-2,0,0,0,0,0
1558439731991649,0,-1,-3,1,-2,-1,-6,-1
1558439731991649,0,0,1,-2,3,7,6,1
1558439732005613,-2,-2,-2,-2,-4,3,0,1
1558439732005613,-2,-3,0,-1,-3,0,3,-3
1558439732014590,-1,-1,-1,-2,2,-1,-1,-1
1558439732014590,0,0,-1,-2,-5,0,-3,-2
1558439732029583,-2,-1,-2,-4,-6,-11,-1,-1
1558439732029583,-3,0,1,1,3,4,5,-2
1558439732030545,-4,-1,-1,-2,-1,-2,-8,-4
1558439732030545,-3,-3,-1,-3,-5,-2,-7,-3
1558439732042513,2,1,3,2,5,5,10,6
1558439732042513,1,-1,-1,-2,-4,-7,-8,-2
1558439732051492,-1,0,1,1,2,5,6,4
1558439732051492,-3,-4,-4,-2,-6,-6,-6,-5
1558439732065456,-3,-2,-2,-4,-8,-13,-7,-4
1558439732065456,-1,-2,-2,-3,-1,6,0,-2
1558439732074427,0,-1,1,3,9,2,4,4
1558439732074427,-2,3,1,3,7,4,8,0
1558439732089649,0,0,-3,-3,-5,0,-4,-2
1558439732089649,-1,-5,-2,-2,-4,-5,-4,-3
1558439732090386,-2,-1,-1,0,3,-1,4,5
1558439732090386,1,0,-1,-2,0,-2,-2,2
1558439732102382,-5,-3,-3,-1,-1,3,-5,-10
1558439732102382,-1,-1,-2,-2,-6,-5,-8,-5
1558439732111331,2,0,3,0,4,5,4,0
1558439732111331,-1,-3,-2,1,3,3,4,4
1558439732125491,0,-1,-4,-2,-1,-10,-4,-1
1558439732125491,-3,-2,-1,-2,-7,-5,-1,-1
1558439732134269,-3,-3,-5,-5,-12,-12,-6,-3
1558439732134269,0,1,0,1,3,3,2,-1
1558439732149403,2,1,2,2,4,2,-5,-1
1558439732149403,-3,-4,-3,-3,-3,-3,-2,-1
1558439732151225,0,-1,-2,-3,-3,-3,-4,0
1558439732151225,-1,1,-1,0,1,5,-3,-4
1558439732163191,-1,0,-1,-3,-3,-2,-3,-1
1558439732163191,-2,-1,-1,-1,-5,-5,-4,-3
1558439732172288,1,0,3,2,10,13,10,5
1558439732172288,1,1,-1,0,-2,-7,-1,0
1558439732185132,-5,-2,-2,-2,-6,2,-1,0
1558439732185132,1,-1,-2,-2,0,-3,-3,1
1558439732194107,-1,-1,-2,0,-1,-5,-5,-2
1558439732194107,-3,-4,-1,0,-5,-1,0,-3
1558439732209068,0,-1,-1,-1,7,5,1,0
1558439732209068,-2,-1,-3,-2,-4,1,1,-1
1558439732211068,-1,-4,-2,-2,-2,-2,-2,-1
1558439732211068,4,1,2,-1,4,-3,4,2
1558439732223031,0,0,0,-1,-2,-2,-3,-3
1558439732223031,-3,1,-1,-2,-1,-1,-2,-2
1558439732232006,-2,-2,-2,-3,-7,0,-5,-5
1558439732232006,-1,-2,1,0,2,0,-3,-3
1558439732244972,-1,-4,-2,2,0,5,2,2
1558439732244972,1,1,0,-1,5,2,4,1
1558439732253947,-2,0,-2,-2,-5,-10,-7,-1
1558439732253947,-2,-3,-2,-4,-6,-2,1,1
1558439732268910,0,1,0,0,5,0,0,-4
1558439732268910,1,0,0,-2,0,0,-2,0
1558439732274893,-1,-1,-2,0,-2,1,2,-1
1558439732274893,-2,0,-1,-1,2,-7,-4,-3
1558439732282872,0,0,0,-1,3,6,7,4
1558439732282872,-1,-2,1,0,-2,-2,-4,-2
1558439732291846,1,1,1,1,-2,-1,-2,0
1558439732291846,-4,-2,-1,-2,-6,-2,-3,-2
1558439732304813,-1,-2,-1,-2,-3,-2,-3,-2
1558439732304813,0,-1,-2,-1,0,-4,-3,-1
1558439732313789,0,0,-1,0,-3,-2,3,0
1558439732313789,-2,-2,-5,-3,-1,0,-7,-1
1558439732328748,1,-1,0,2,4,4,-2,-1
1558439732328748,-4,0,0,-1,2,7,2,-1
1558439732335730,0,0,-1,-2,-4,-7,-1,-1
1558439732335730,0,0,0,-3,0,-5,1,-1
1558439732342712,0,-1,0,-1,-5,-2,-2,2
1558439732342712,0,-1,1,-1,2,-2,0,0
1558439732351688,-1,0,2,-1,2,3,-3,-2
1558439732351688,-2,-1,0,-1,-2,-4,-2,1
1558439732365653,-4,-4,-3,-4,-6,-8,-4,-5
1558439732365653,0,1,0,-1,0,0,1,-2
1558439732374628,-2,-2,-3,-1,-1,-1,0,-2
1558439732374628,1,-1,-1,1,1,1,-3,-3
1558439732388588,0,-2,-2,-2,-2,-1,2,2
1558439732388588,-1,-1,-1,-2,-4,0,-2,-1
1558439732395569,-1,-3,-1,-3,-4,-4,0,0
1558439732395569,1,0,1,1,3,1,2,2
1558439732402568,0,1,1,0,7,4,-1,-2
1558439732402568,0,-1,-1,-1,-2,-5,-3,0
1558439732419513,-2,-2,-2,-4,-5,0,-3,-5
1558439732419513,-1,0,2,-3,1,2,0,0
1558439732425491,-2,0,-3,-4,-11,-12,-10,-3
1558439732425491,0,-1,1,2,6,3,3,0
1558439732434471,-1,-2,0,0,9,9,4,1
1558439732434471,-3,-3,-3,-2,-7,1,-1,-2
1558439732448434,0,-1,0,1,2,0,3,1
1558439732448434,0,0,0,-1,-4,-9,2,3
1558439732455409,-3,-1,-3,-2,-4,-8,-4,-2
1558439732455409,-1,0,-1,-1,3,9,1,-10
1558439732462390,-3,-2,-5,-3,-3,3,-4,-3
1558439732462390,1,0,-1,1,2,-2,-4,-4
1558439732477350,2,0,1,4,3,-2,2,7
1558439732477350,-3,-2,-1,-2,-8,-6,-6,-4
1558439732485331,-1,-1,0,-2,-1,-2,0,-1
1558439732485331,0,-2,1,-2,2,2,1,-1
1558439732494306,-1,-1,-1,-1,3,8,-2,-1
1558439732494306,-2,-2,-2,-3,-1,-3,0,2
1558439732508270,-2,-1,-1,0,2,-2,-3,0
1558439732508270,-2,-1,-1,-1,-4,-4,-2,-1
1558439732515248,-2,-2,-1,-3,-12,-6,-6,-4
1558439732515248,0,1,-1,0,-1,-5,-2,0
1558439732531206,1,1,2,2,2,-3,3,2
1558439732531206,-3,-4,-4,0,1,2,0,0
1558439732533201,0,-2,1,-3,1,-2,0,0
1558439732533201,1,-5,-1,-3,-1,5,2,0
1558439732545169,-1,-5,-2,-1,-3,-6,-4,-5
1558439732545169,-4,0,-1,1,1,6,0,-1
1558439732554146,-2,-2,-2,-1,-2,-1,-2,-4
1558439732554146,-1,0,-1,2,3,1,1,0
1558439732568108,0,2,-1,-2,-4,-5,-1,1
1558439732568108,-2,0,0,-1,1,5,-2,1
1558439732577091,0,-1,0,0,2,1,-1,-1
1558439732577091,0,2,-1,-3,-6,-8,-6,-1
1558439732592045,0,-1,0,-1,0,3,0,-4
1558439732592045,1,1,-1,-2,-2,-6,2,4
1558439732593041,-1,0,-2,-2,1,3,4,3
1558439732593041,-2,0,1,0,-5,1,-2,-3
1558439732605009,-2,-2,-2,-2,-2,-6,-2,0
1558439732605009,0,-1,0,-1,-4,2,2,-3
1558439732613985,1,-2,0,-2,3,0,-3,2
1558439732613985,-2,-1,-1,2,5,3,0,0
1558439732627947,0,-1,-1,1,-1,1,4,1
1558439732627947,-2,-1,-4,-5,-7,-13,-8,-3
1558439732634929,-1,0,0,0,5,7,7,1
1558439732634929,-1,2,-2,-1,-4,-4,-5,-1
1558439732651883,-1,-3,-1,-3,-3,2,-4,-2
1558439732651883,0,-3,-2,-1,2,3,4,0
1558439732652881,0,-2,-4,0,-7,-3,0,-2
1558439732652881,0,-1,0,1,4,0,2,3
1558439732664849,0,0,0,-2,0,2,1,-1
1558439732664849,-2,-1,-2,-2,-5,-6,-9,-5
1558439732673824,-2,1,-1,-1,-7,-7,-3,-5
1558439732673824,0,0,-2,-2,-1,-1,3,0
1558439732688786,-3,-2,-3,-2,0,-6,-2,-2
1558439732688786,-2,0,0,-2,-11,-6,-5,-2
1558439732694769,-2,-1,-1,1,4,7,-6,-3
1558439732694769,0,-1,-1,2,10,7,10,6
1558439732711736,-2,-3,1,-1,0,2,3,1
1558439732711736,-2,-1,0,0,2,-3,-4,-3
1558439732712720,-1,-1,0,-1,-1,-6,-1,-2
1558439732712720,-2,-1,1,-2,-8,-1,-3,-5
1558439732725685,0,1,0,0,-1,-5,-4,2
1558439732725685,2,-2,-1,0,2,11,12,4
1558439732741648,-1,-3,-3,-4,-7,-6,-2,0
1558439732741648,-1,-3,-3,0,1,-1,0,-3
1558439732748629,0,-2,-3,1,0,6,1,-1
1558439732748629,-2,0,0,-1,-5,-8,-5,-2
1558439732755606,-2,-2,-1,-1,2,0,-1,-3
1558439732755606,-3,-5,-3,-3,-8,-7,-8,-3
1558439732771564,-1,-1,0,-1,-1,0,-1,-1
1558439732771564,0,-1,1,1,3,8,7,0
1558439732772560,3,-1,-3,1,6,4,3,6
1558439732772560,-1,-1,-1,0,-2,-4,-7,-4
1558439732785527,0,2,0,-1,1,-1,0,-2
1558439732785527,-2,-2,0,-2,-1,3,1,-3
1558439732794502,-2,1,2,-1,-9,-11,-4,-4
1558439732794502,-1,-1,0,0,3,1,7,2
1558439732808466,0,-4,-2,0,1,0,-2,-2
1558439732808466,-1,-1,-2,0,-1,-1,-5,1
1558439732815446,-1,0,-2,-1,2,10,2,-1
1558439732815446,0,1,0,-1,-2,-12,-6,-1
1558439732831403,-1,-1,0,-1,1,3,3,-1
1558439732831403,-1,-1,2,-1,3,3,2,0
1558439732833399,-5,-4,-4,-3,-11,-11,-8,-7
1558439732833399,0,-1,-2,-5,-3,-1,-4,-2
1558439732845366,1,0,0,0,-2,4,2,3
1558439732845366,2,-1,1,1,9,5,7,6
1558439732854344,-3,-2,-2,1,2,-6,-10,-10
1558439732854344,-4,-1,-2,0,-4,-3,2,0
1558439732868304,0,-1,-1,-2,-4,-1,0,-2
1558439732868304,0,-2,-4,-3,2,6,1,-1
1558439732875313,-1,-3,-1,-1,-5,0,2,-1
1558439732875313,0,-2,-1,-2,-1,-1,2,5
1558439732891250,-1,2,3,0,1,-9,-3,-3
1558439732891250,-3,0,1,1,0,-2,-5,-3
1558439732893238,0,-1,1,0,1,4,-1,0
1558439732893238,-4,-2,-2,-2,-3,-2,-1,-4
1558439732905215,-2,-2,-3,-1,0,6,4,2
1558439732905215,0,-2,-3,-2,-9,-13,-7,-4
1558439732914182,-1,2,1,-2,4,-6,1,3
1558439732914182,-1,-1,0,-2,-3,2,0,-1
1558439732928147,-2,-3,-3,-1,-4,-4,1,-1
1558439732928147,-2,-2,-1,-2,-2,-5,-1,-2
1558439732935126,-1,-2,0,0,2,4,-3,-1
1558439732935126,1,0,1,0,0,0,-5,-2
1558439732952081,-1,-2,0,-2,-4,-2,-4,-3
1558439732952081,-2,0,-2,0,-1,0,3,0
1558439732953079,1,-3,-2,-1,0,-7,-1,2
1558439732953079,1,-2,-2,1,1,0,-1,-1
1558439732965051,1,0,0,1,1,2,-3,-1
1558439732965051,0,-1,-3,-4,-6,-4,-4,-4
1558439732974022,-3,-1,-1,-2,-7,-5,-2,-3
1558439732974022,0,-2,0,-2,-5,-1,0,-2
1558439732988982,-3,-2,-5,-2,-3,-11,-7,-2
1558439732988982,-2,-1,-2,2,7,6,3,2
