timestamp,emg1,emg2,emg3,emg4,emg5,emg6,emg7,emg8
1558439711842082,-2,1,1,-2,-1,-1,1,-3
1558439711842082,-1,0,-1,3,-3,-5,-7,0
1558439711849064,-2,-1,0,0,4,7,0,-1
1558439711849064,-3,-3,-2,-3,-1,-5,-5,-2
1558439711850062,-2,-5,-2,1,-7,-8,-2,-2
1558439711850062,-1,2,1,-1,0,-4,-2,-1
1558439711850062,-3,-3,-3,-4,0,0,-2,0
1558439711850062,-2,1,-1,-1,-9,-4,-4,-1
1558439711871006,2,1,-1,2,5,1,6,10
1558439711871006,-3,-2,-3,-3,0,3,-3,-11
1558439711873998,0,0,1,0,1,1,3,-1
1558439711873998,-2,0,0,0,-4,-5,-1,-5
1558439711875992,-4,-1,-3,-5,-8,-4,-5,-2
1558439711875992,3,-1,1,0,6,5,9,8
1558439711890966,3,1,0,1,0,2,-2,2
1558439711890966,-3,-3,0,0,0,1,2,-2
1558439711899928,1,3,0,-3,2,-2,-3,-3
1558439711899928,-3,-3,-5,-1,1,-2,-5,-2
1558439711915886,-3,0,1,1,-1,0,1,-2
1558439711915886,-1,-1,-1,-3,-5,-3,3,3
1558439711922867,1,-3,-4,-1,3,4,0,1
1558439711922867,-3,-1,0,1,-2,-2,-2,-4
1558439711928852,0,1,1,-2,0,-3,-4,3
1558439711928852,-2,0,-3,-2,0,3,-1,-3
1558439711945813,3,2,3,1,1,-2,4,-1
1558439711945813,-8,-7,1,-1,-6,-2,0,0
1558439711950794,-1,0,-1,-1,5,5,1,-1
1558439711950794,-1,-2,-5,-1,-3,-3,-6,0
1558439711959769,1,-1,-1,-2,2,10,0,-6
1558439711959769,3,2,0,-2,-7,-18,-4,-1
1558439711999663,1,-1,-1,-1,1,-1,4,4
1558439711999663,-2,-2,0,2,-7,-1,-8,-11
1558439712013626,-2,-1,-1,-3,-3,-2,1,-1
1558439712013626,0,-1,-2,-4,3,7,1,2
1558439712014622,-1,1,0,3,1,0,-1,-1
1558439712014622,-1,-2,-1,-2,-3,0,0,0
1558439712014622,1,-1,-2,-4,4,-2,0,0
1558439712014622,0,1,1,2,-2,-1,0,-1
1558439712018612,-2,-1,-1,0,-3,-7,-5,-3
1558439712018612,-2,1,1,-2,-1,-6,-1,-1
1558439712019608,-1,0,-1,2,2,-2,-3,2
1558439712019608,-1,0,0,3,5,4,1,2
1558439712027587,0,0,1,-2,5,5,-1,0
1558439712027587,0,0,0,-4,3,4,3,3
1558439712049528,1,-1,-2,0,-8,-7,-6,-3
1558439712049528,0,-3,-4,-5,-7,-8,-2,1
1558439712051523,-3,-3,-4,-5,-9,-2,-8,-7
1558439712051523,1,1,1,2,7,7,10,3
1558439712055512,0,0,2,1,-1,-2,-1,0
1558439712055512,-3,0,0,-2,-6,-6,-3,-4
1558439712080445,1,-1,-1,-2,0,-9,-5,3
1558439712080445,1,0,0,1,2,1,-3,2
1558439712081443,-1,-2,-1,-2,1,6,0,-1
1558439712081443,-1,-3,-4,-2,-4,-8,-3,-3
1558439712103384,-2,-1,-2,0,-7,2,-1,-2
1558439712103384,6,1,0,0,8,6,1,0
1558439712104382,1,3,3,-3,-5,0,-2,-2
1558439712104382,-2,-5,-4,1,2,-1,-2,-3
1558439712116350,1,4,5,2,8,2,5,4
1558439712116350,-1,-2,-4,-3,-5,-6,-1,2
1558439712117348,0,0,0,0,4,7,-2,-2
1558439712117348,-1,-2,-1,-2,-6,3,-2,-4
1558439712131310,-1,-3,0,-2,0,2,5,3
1558439712131310,-1,-2,-1,-4,-6,-7,-3,-5
1558439712147268,-4,-5,-6,-4,-8,-7,-2,-3
1558439712147268,0,1,1,-2,-2,4,-3,-4
1558439712148264,0,-2,-3,-3,-5,-5,-6,-3
1558439712148264,0,-1,0,1,7,5,4,0
1558439712170205,0,-1,0,0,-3,-11,-4,0
1558439712170205,-3,0,1,-1,-2,-5,-1,-3
1558439712176190,3,-1,1,2,9,18,15,3
1558439712176190,-4,0,-5,-4,-8,-4,-7,-5
1558439712177187,-1,-4,-3,-2,-1,2,-1,-3
1558439712177187,-1,-1,-2,-2,-5,-3,-3,2
1558439712191149,-1,-1,-1,-3,-9,-10,-10,-9
1558439712191149,2,2,2,3,8,3,4,7
1558439712198131,-1,-1,2,0,5,5,5,1
1558439712198131,-2,1,2,0,7,1,-6,-7
1558439712207107,-1,-1,-1,-3,-6,-2,-3,-3
1558439712207107,-2,-4,-3,-5,-9,-8,-7,-1
1558439712222066,-1,1,-2,0,4,7,4,0
1558439712222066,0,0,1,-2,-1,-1,5,3
1558439712245005,1,-1,-2,1,-3,-9,-2,0
1558439712245005,0,-1,-2,0,1,4,-1,-4
1558439712246010,-6,-5,0,-1,0,-2,-3,-2
1558439712246010,2,-3,-3,-1,-1,-2,-7,-1
1558439712250991,-3,-2,-4,-2,1,3,0,-3
1558439712250991,-2,-1,-1,0,-5,-6,-4,-3
1558439712266947,-1,0,-2,-2,-5,-6,-1,2
1558439712266947,-1,-1,-1,-2,3,2,4,1
1558439712268941,1,1,1,1,8,10,9,4
1558439712268941,-4,-1,-2,-1,-2,-6,-4,1
1558439712289886,-2,0,-3,-1,-2,-1,-2,-5
1558439712289886,-1,-1,-2,-3,-9,-1,-3,-3
1558439712290883,-2,-2,-1,-1,-1,-7,-8,-1
1558439712290883,3,3,4,2,13,9,2,2
1558439712295872,-3,-2,-2,-1,-1,0,1,-5
1558439712295872,1,0,-3,2,1,-9,-7,-2
1558439712312824,-2,3,-2,-3,-7,-5,1,-3
1558439712312824,-3,-4,-3,-3,-4,-1,-3,-5
1558439712326788,-2,1,-1,0,-3,-4,-3,0
1558439712326788,-1,-4,0,-1,-1,7,1,1
1558439712328782,1,-1,0,0,2,-9,-5,-1
1558439712328782,-2,-1,-3,0,-4,-3,-3,-1
1558439712341785,1,1,-2,-1,2,6,3,0
1558439712341785,-1,1,-1,-1,1,1,1,0
1558439712356743,2,1,1,0,-5,-6,-3,-3
1558439712356743,-10,-12,-5,-4,-15,-22,-12,-6
1558439712357743,-2,-3,-3,0,4,3,-3,-3
1558439712357743,-1,2,5,1,9,13,7,0
1558439712372665,-1,-1,-1,2,1,11,3,1
1558439712372665,2,1,-1,-2,-4,-8,-1,1
1558439712378649,-1,-1,0,-3,-6,-9,-6,-1
1558439712378649,-2,-1,-3,1,3,-2,-2,0
1558439712403590,-2,-3,-1,1,3,5,2,-1
1558439712403590,0,0,-2,-3,-5,1,-2,-2
1558439712404579,2,-2,1,-1,-7,-17,-5,2
1558439712404579,0,-1,-2,-5,-9,-8,-6,-1
1558439712408569,-1,-1,0,1,11,9,1,3
1558439712408569,1,2,2,4,7,8,3,0
1558439712415549,1,1,0,1,6,3,6,0
1558439712415549,0,0,0,-2,-2,-3,0,-1
1558439712448462,-5,-4,-5,-5,-13,-7,-4,-7
1558439712448462,1,-2,-1,-3,-2,3,-3,0
1558439712449459,-1,2,4,-1,1,0,-4,0
1558439712449459,-3,-4,0,-2,-1,-1,3,0
1558439712450456,-1,-2,-3,-1,-1,-4,-2,0
1558439712450456,0,1,0,-1,1,1,-6,-6
1558439712461427,1,-3,-1,-1,4,7,7,5
1558439712461427,1,-2,0,-1,2,0,1,2
1558439712470403,-4,-3,-1,-4,-10,-7,-7,-5
1558439712470403,0,2,2,-1,-5,-1,0,0
1558439712475389,0,1,0,1,2,-1,-2,-3
1558439712475389,1,0,0,0,8,-3,-2,0
1558439712499326,3,2,-1,-4,-4,-4,-4,-1
1558439712499326,-12,-5,-1,1,4,9,5,-2
1558439712499326,-2,-4,-4,-2,-5,1,-2,-1
1558439712499326,1,1,2,1,5,-1,10,2
1558439712507304,-1,-2,-2,-3,-7,-9,-7,-3
1558439712507304,0,0,0,-1,-4,-2,-2,1
1558439712521266,-2,0,1,1,3,8,4,0
1558439712521266,0,-2,-2,-1,-4,2,-1,-1
1558439712536228,0,-2,2,0,5,-4,1,3
1558439712536228,0,-1,0,-1,-4,-9,1,-1
1558439712544205,0,-2,-4,0,1,7,1,0
1558439712544205,-2,-1,-1,-2,-9,-11,-12,-12
1558439712551187,1,1,1,0,4,10,5,2
1558439712551187,2,2,2,0,5,5,5,1
1558439712558168,0,1,-3,-2,-3,-8,-5,-2
1558439712558168,-3,0,-2,-2,-2,-2,-6,-2
1558439712567143,-3,-2,0,-2,-5,-6,-3,-4
1558439712567143,2,0,-2,0,-1,1,5,9
1558439712582104,-4,0,1,-2,-1,2,-3,-5
1558439712582104,-5,-2,-4,1,-5,-4,-6,-4
1558439712588088,-2,-1,-3,-1,0,3,-2,-1
1558439712588088,2,-1,0,0,11,0,5,3
1558439712604045,-1,-1,0,-3,-5,-1,0,0
1558439712604045,-1,-2,-1,0,1,7,3,2
1558439712612023,3,0,-2,-5,-6,-9,-6,-1
1558439712612023,0,1,0,-1,2,5,2,-2
1558439712634969,-3,-1,-2,-2,-3,-4,-2,-2
1558439712634969,-3,-2,0,-1,4,-1,-1,0
1558439712635966,-3,0,-1,0,1,8,0,-2
1558439712635966,1,1,-1,-1,-3,-2,-2,0
1558439712649925,0,-3,-1,-1,-7,-8,-3,-2
1558439712649925,4,0,0,1,4,3,6,6
1558439712650923,0,-1,-3,-1,0,-2,-4,-7
1558439712650923,-3,0,1,-2,3,-3,-4,0
1558439712671865,-1,-2,1,-2,-3,-2,1,1
1558439712671865,-1,-3,-4,1,-6,-2,0,1
1558439712678847,-1,2,1,2,7,3,-2,3
1558439712678847,-2,-2,-3,-5,-14,-7,-9,-11
1558439712679843,0,0,-1,0,3,3,5,-1
1558439712679843,4,0,-1,-3,-4,-8,-3,5
1558439712694803,1,0,2,2,7,8,9,4
1558439712694803,1,0,-2,-1,4,6,-1,-3
1558439712701785,-1,0,-4,-1,-9,-7,-5,-4
1558439712701785,0,1,1,0,1,-2,1,-3
1558439712708771,-2,-1,-1,-3,-2,-2,-3,0
1558439712708771,-4,-2,0,-2,-5,1,-1,-1
1558439712723726,2,-1,0,-2,2,1,-4,1
1558439712723726,-3,1,-4,-2,-8,1,-3,-5
1558439712746664,0,-1,0,-1,-2,-6,-2,-3
1558439712746664,1,1,0,2,3,-4,1,1
1558439712778580,0,2,1,-1,2,4,-1,-1
1558439712778580,1,2,-1,-1,0,7,-3,-4
1558439712779579,-11,-8,-3,-2,-4,-9,-1,0
1558439712779579,0,-2,-3,-2,-2,-1,0,0
1558439712780576,-5,-5,-4,-1,-3,1,-3,-2
1558439712780576,0,-3,-1,0,2,-2,0,-1
1558439712808510,0,1,-1,0,3,4,-1,-1
1558439712808510,-3,-1,0,-1,-3,-1,-4,-2
1558439712809505,0,2,-2,-3,-4,-15,-9,1
1558439712809505,-1,-4,-1,1,2,4,6,-1
1558439712810500,0,0,-2,-3,-8,-2,-4,-3
1558439712810500,-3,-1,-2,0,1,3,2,-2
1558439712831437,-1,-1,-3,-1,-5,-3,-4,-3
1558439712831437,-2,-1,1,-4,-3,-4,-4,-2
1558439712832436,2,0,5,-1,2,-1,3,3
1558439712832436,-1,-3,-1,-1,-5,-4,-7,-7
1558439712833433,0,0,-3,-1,-2,1,-1,-4
1558439712833433,1,1,0,2,8,-1,3,3
1558439712846398,0,-2,-2,-2,-2,1,2,-1
1558439712846398,-1,2,1,-3,-2,-2,-2,-1
1558439712847416,-2,-5,0,2,1,8,2,0
1558439712847416,-5,0,-2,-4,-8,-7,-8,-4
1558439712851383,3,0,-1,-2,-1,3,2,-1
1558439712851383,1,0,-1,3,4,-3,1,2
1558439712866345,1,-2,-3,-3,-5,-11,-6,-5
1558439712866345,-1,0,0,-2,1,-4,1,2
1558439712882305,-2,-2,-2,0,2,5,-1,-3
1558439712882305,0,-3,-1,-3,-6,-5,-3,-3
1558439712883301,-2,-1,0,-1,-1,7,1,-2
1558439712883301,2,2,1,1,1,-4,1,3
1558439712888286,0,0,0,0,-2,-2,0,-2
1558439712888286,-2,-3,0,-2,-4,0,-2,-1
1558439712905243,1,1,1,2,2,-2,-5,4
1558439712905243,-2,1,1,-2,-6,-4,-4,-5
1558439712929176,-1,1,-3,1,4,4,3,1
1558439712929176,0,-2,-1,-1,-4,-9,-4,3
1558439712929176,-4,0,1,1,8,4,1,-5
1558439712929176,-1,0,0,-3,-3,1,1,0
1558439712933174,0,-1,1,-1,2,0,-6,-3
1558439712933174,-1,-1,-1,1,-2,-2,1,0
1558439712941156,2,-3,0,0,4,1,3,1
1558439712941156,-2,-3,-3,-3,-7,-7,-6,-6
1558439712956209,0,-1,-4,-2,-7,-2,3,2
1558439712956209,-1,2,3,1,6,7,0,-2
1558439712972095,-1,-1,-2,-2,-2,-6,-6,-3
1558439712972095,-2,-1,-1,0,-4,1,-2,-2
1558439712980042,-1,-3,-1,-1,2,2,1,0
1558439712980042,-1,-2,0,-3,-1,-11,-4,-3
1558439712986027,0,2,2,0,1,8,9,3
1558439712986027,5,1,0,0,1,3,-2,0
1558439713001983,-15,-9,-5,-5,-9,-9,-9,-9
1558439713001983,0,0,-3,-2,0,-3,1,1
1558439713001983,1,0,1,-2,-2,-1,-1,1
1558439713001983,-2,-1,-3,-1,-4,3,1,0
1558439713034895,1,1,0,1,3,2,-1,-3
1558439713034895,-4,-2,-3,-1,-4,-2,-1,-3
1558439713034895,-2,1,-1,-1,-2,-6,-2,-1
1558439713034895,-1,-4,-5,-4,-10,-13,-11,-4
1558439713038884,1,0,-1,-1,1,-8,-3,0
1558439713038884,-2,-2,-2,1,4,13,7,4
1558439713070803,0,2,2,-1,3,8,6,-1
1558439713070803,-2,0,-1,-1,-3,-2,-2,-7
1558439713072795,2,3,1,-2,3,3,2,3
1558439713072795,-2,-2,-2,-2,3,2,0,-1
1558439713072795,-5,-4,-3,-3,-4,-12,-8,-1
1558439713072795,-3,-2,-2,-1,1,1,-1,-1
1558439713077781,1,0,0,1,-8,-7,-5,-2
1558439713077781,2,0,-1,-1,-1,5,-3,-1
1558439713084759,1,0,-1,1,1,7,8,4
1558439713084759,-1,0,-1,2,3,-4,1,-2
1558439713106703,1,0,-4,-1,-8,-6,-4,-1
1558439713106703,0,3,-2,-1,-4,-4,-2,0
1558439713123764,1,-1,0,1,4,1,0,-1
1558439713123764,3,3,4,0,7,4,3,4
1558439713137621,-7,-5,-3,-3,-11,-4,-2,-6
1558439713137621,2,1,0,-1,0,0,1,-3
1558439713138615,-2,-1,0,-2,-1,-8,-5,-2
1558439713138615,1,-3,-3,-2,-3,4,2,0
1558439713169532,2,-1,0,-2,0,-3,-5,-1
1558439713169532,-1,-3,-2,-4,-5,1,-2,0
1558439713169532,-1,0,2,-2,2,5,3,-4
1558439713169532,-1,1,0,0,8,10,7,2
1558439713191473,-1,-1,0,0,-6,-13,-7,-1
1558439713191473,0,-1,-2,0,-2,-6,-3,-4
1558439713191473,-1,2,1,2,9,8,4,5
1558439713191473,-4,-4,-1,-1,-7,-4,-3,-3
1558439713193469,2,0,0,-1,1,4,4,0
1558439713193469,-2,1,0,-1,-5,-8,-9,-8
1558439713206470,-2,-4,-2,-1,-1,6,6,-2
1558439713206470,-4,-4,-2,-2,-6,-3,-4,-1
1558439713207431,-1,1,-2,-3,0,-3,2,4
1558439713207431,-1,-3,-1,-2,3,-1,-2,-2
1558439713208465,1,0,-2,-1,0,-5,-3,-3
1558439713208465,-4,-2,0,-2,-2,1,-1,-3
1558439713212418,6,3,2,0,4,8,4,2
1558439713212418,1,1,-1,-2,-4,-11,-3,-1
1558439713234360,-9,-7,-2,-2,-6,-2,0,2
1558439713234360,-1,0,-3,-1,1,-2,-4,-1
1558439713236354,-4,-2,-1,1,8,7,2,-3
1558439713236354,0,1,1,0,-2,7,3,4
1558439713258561,-3,-3,-2,-4,-8,-7,-7,-5
1558439713258561,1,-2,-1,0,-1,-6,-5,-2
1558439713259295,-3,-4,-4,0,1,2,-1,-2
1558439713259295,7,2,2,-1,4,3,1,3
1558439713279240,-9,-2,-4,-1,-11,-16,-9,-6
1558439713279240,-1,0,1,4,14,13,10,3
1558439713281267,2,1,1,-1,7,7,4,-1
1558439713281267,-3,-2,-2,0,0,4,0,2
1558439713295213,4,1,1,-2,-8,-12,-1,1
1558439713295213,-1,2,-1,-2,-8,-6,-12,-9
1558439713318359,-3,-3,-1,-1,-1,-3,0,-1
1558439713318359,-4,-5,-3,-2,-3,-4,-6,-4
1558439713319143,2,2,-2,1,3,10,0,-1
1558439713319143,2,1,-1,0,-1,-2,5,5
1558439713320131,9,0,0,-1,4,-1,3,8
1558439713320131,-16,-5,-1,0,-3,-2,-2,-7
1558439713325302,-1,-1,-1,-3,-4,-12,-6,-2
1558439713325302,-6,-4,-3,-4,-2,-1,-3,-6
1558439713340093,-4,0,-2,1,2,3,1,1
1558439713340093,2,2,2,2,6,6,2,1
1558439713355078,2,-3,-3,-2,-5,-4,-2,1
1558439713355078,0,-2,-2,-2,-7,-7,-6,2
1558439713356036,-3,-3,-2,-1,-1,7,1,-2
1558439713356036,2,0,0,0,-2,-13,-2,0
1558439713394142,0,0,1,1,9,9,9,7
1558439713394142,-1,-2,-3,-3,-9,-2,-5,-6
1558439713394935,-2,-2,-1,-3,-8,-3,-6,-8
1558439713394935,2,2,0,-1,3,-3,5,2
1558439713395931,1,-1,-2,-3,-5,3,-5,-6
1558439713395931,1,-2,-2,-1,-3,-7,3,2
1558439713399926,-2,3,1,3,14,15,8,6
1558439713399926,-3,-1,-2,-1,1,4,-3,-3
1558439713422058,1,-2,-2,-3,-9,-10,-9,-5
1558439713422058,-1,0,1,-1,7,7,5,5
1558439713439815,-1,0,-3,-4,-8,-1,-3,-6
1558439713439815,-4,-4,-3,-1,-2,-10,-4,2
1558439713439815,0,0,1,2,7,9,-1,-1
1558439713439815,-2,-3,-2,-4,-11,-10,-6,-5
1558439713444800,-3,-2,-2,-3,-7,-6,-3,0
1558439713444800,-2,-3,-3,-2,-8,-5,-3,2
1558439713468734,-2,-3,-2,-2,-4,-4,-6,-6
1558439713468734,2,3,2,4,13,14,12,4
1558439713469732,-1,1,-1,2,8,2,2,1
1558439713469732,-3,-2,-1,-6,-9,-2,-7,-6
1558439713470731,0,0,-1,0,-1,6,6,1
1558439713470731,0,0,-2,-2,0,-4,-1,2
1558439713482695,0,-3,-4,-4,-13,-18,-11,-3
1558439713482695,3,-2,0,1,13,15,13,6
1558439713490183,0,1,2,3,7,-2,-2,-5
1558439713490183,-1,0,2,0,3,2,-3,-1
1558439713491096,-2,-2,-2,-2,-6,1,2,-2
1558439713491096,-1,-3,-1,-1,-4,3,-1,-1
1558439713512040,-2,1,-2,-2,1,2,6,2
1558439713512040,-2,0,-2,-2,-5,-19,-9,-7
1558439713514034,4,1,1,-3,-5,-13,-12,1
1558439713514034,0,-1,-3,0,4,5,3,1
1558439713527405,-1,-1,-1,0,0,1,1,0
1558439713527405,-2,0,0,0,0,6,0,0
1558439713533664,-3,-4,-1,-2,-6,-6,-2,-5
1558439713533664,0,0,-2,-2,-6,-5,-5,-4
1558439713596227,-3,-2,-1,-2,-7,-5,-5,0
1558439713596227,1,-1,2,1,13,6,11,6
1558439713597220,1,2,1,1,-1,6,2,-1
1558439713597220,-2,1,-1,-1,-2,1,1,-6
1558439713598216,1,-1,-5,-4,-9,-17,-10,-3
1558439713598216,-2,-2,-1,-1,-5,1,-6,0
1558439713627150,0,-3,3,0,4,5,5,2
1558439713627150,-2,-2,0,0,4,-3,-2,-2
1558439713628139,-2,0,0,-1,2,6,5,0
1558439713628139,-1,1,-1,-2,-3,2,0,2
1558439713628139,2,-1,1,0,1,-2,2,6
1558439713628139,-1,-2,0,0,2,7,-1,-9
1558439713634119,-1,-2,-4,0,-5,-3,-6,0
1558439713634119,-2,-1,0,-3,1,2,1,-3
1558439713635119,1,-4,-3,-1,1,3,0,3
1558439713635119,0,-3,-4,-2,-4,-7,-3,-1
1558439713646087,-2,0,-1,-1,-2,-6,-3,-4
1558439713646087,1,-1,-1,2,2,3,1,2
1558439713655065,-4,0,1,-1,1,-2,0,3
1558439713655065,-4,2,-2,0,-2,0,-1,-5
1558439713656062,2,1,-1,1,2,6,3,0
1558439713656062,-9,-8,2,0,0,5,4,1
1558439713670058,-2,-2,1,-2,-4,-6,-9,-7
1558439713670058,-2,-3,-4,-3,-6,-6,-1,-1
1558439713677274,-1,0,-5,-3,-4,1,-5,-6
1558439713677274,5,2,-1,0,0,-2,2,4
1558439713700277,-2,4,-1,0,-3,-2,2,-4
1558439713700277,-1,-2,-1,0,-6,-9,-6,-3
1558439713700940,-4,-1,1,-1,8,10,5,-1
1558439713700940,0,-2,-1,-2,-7,-4,1,2
1558439713715150,0,2,2,4,11,6,6,4
1558439713715150,-2,-3,-3,-2,-4,-1,-2,-3
1558439713716145,-3,-4,-2,-2,4,4,1,-2
1558439713716145,0,-1,0,0,-5,-11,-3,-1
1558439713745822,2,2,2,1,5,8,2,1
1558439713745822,-2,3,3,2,9,10,5,4
1558439713746822,0,-2,-2,-2,-7,-13,-10,-3
1558439713746822,0,-1,-2,-3,-3,1,-4,-5
1558439713747816,-2,-2,-3,-5,-5,-4,0,-1
1558439713747816,0,-3,-1,-1,-6,-14,-3,3
1558439713759819,0,1,2,3,9,12,7,4
1558439713759819,-1,1,0,-3,0,0,-5,-4
1558439713766990,-2,-4,-3,-1,-7,-11,-6,-4
1558439713766990,-1,0,0,0,5,6,4,2
1558439713780922,-2,2,0,-3,-8,-8,-2,-1
1558439713780922,-3,-1,-6,-3,-7,-6,-6,-6
1558439713789739,0,-2,2,2,10,2,4,4
1558439713789739,0,-2,-1,-1,-2,-5,-3,-2
1558439713795691,-2,-2,0,-1,-5,-9,-3,0
1558439713795691,-1,-1,-1,-2,-1,1,-3,-4
1558439713803668,-1,-2,-1,-1,0,7,0,-1
1558439713803668,6,1,-1,1,4,3,-1,1
1558439713812642,-3,-1,-1,-1,-1,-2,0,-2
1558439713812642,3,3,4,4,8,2,12,6
1558439713841576,-1,-1,-1,-4,-8,-11,-4,-3
1558439713841576,-1,-2,1,1,0,6,1,0
1558439713859523,1,-1,-4,-2,-7,1,-3,-4
1558439713859523,-2,-3,-1,-2,-4,-6,-6,-4
1558439713860515,-2,-1,-1,-2,-4,-3,-3,-2
1558439713860515,-1,0,-2,-2,2,1,0,-1
1558439713864507,-1,-3,-1,-1,-4,-11,-2,1
1558439713864507,1,0,-1,0,3,-1,4,1
1558439713864507,-2,-2,-1,0,3,7,0,-5
1558439713864507,-2,-5,-4,-3,-11,-8,-8,-2
1558439713872480,2,-1,-1,0,0,-9,-4,-1
1558439713872480,1,0,-4,-3,7,0,0,5
1558439713887440,1,-2,-1,-3,-1,3,1,3
1558439713887440,-3,1,0,1,4,10,4,-5
1558439713900406,-2,-3,-2,-2,-3,3,1,-4
1558439713900406,2,3,5,1,4,0,4,4
1558439713909380,-2,-2,-4,-2,-5,-4,-2,-4
1558439713909380,0,-1,-2,-4,-2,-8,-3,0
1558439713916637,-1,1,-1,-3,-2,-3,-3,-4
1558439713916637,-1,-1,-2,2,-1,4,-2,-2
1558439713932546,-1,-1,0,0,3,1,-2,-3
1558439713932546,2,-2,1,-2,-7,-5,-2,-2
1558439713940445,-8,-5,0,0,2,2,3,0
1558439713940445,-2,-4,-6,-2,-6,-4,-3,0
1558439713946284,-1,1,-2,-1,0,-2,-1,-1
1558439713946284,-2,-1,0,0,3,-1,-1,-2
1558439713953327,4,3,1,0,8,8,2,3
1558439713953327,-3,-2,-1,-3,-7,-11,-4,-3
1558439713978203,0,-2,0,-1,0,3,2,1
1558439713978203,-2,-3,-4,-2,-6,1,-1,-4
1558439713979197,1,-1,0,0,3,-7,-1,0
1558439713979197,2,2,3,3,10,4,1,2
1558439714000330,-4,-2,-3,-3,-12,-8,-8,-6
1558439714000330,0,-1,-1,-2,0,8,7,2
1558439714002135,-2,-1,0,0,0,2,-2,-2
1558439714002135,-2,0,-1,-1,1,3,0,-1
1558439714007356,-1,0,-1,0,0,2,1,3
1558439714007356,-4,1,0,0,-1,5,3,-2
1558439714013111,-4,-6,-5,-3,-5,0,-5,-5
1558439714013111,0,-2,-1,-2,-5,-9,-4,-3
1558439714038041,0,0,1,-2,3,1,3,0
1558439714038041,0,-2,-2,-2,-1,-3,-5,-2
1558439714039042,2,0,0,1,-2,0,2,2
1558439714039042,-2,-2,-6,-4,-5,1,-7,-5
1558439714060023,0,-2,-3,-4,-10,-7,-7,-4
1558439714060023,3,4,3,3,12,6,11,9
1558439714066960,-2,0,-1,-1,-2,-9,-7,-5
1558439714066960,-1,-4,0,-2,-1,2,0,-3
1558439714067957,0,-1,-2,0,-3,-13,-6,-1
1558439714067957,1,1,1,1,2,6,1,0
1558439714080922,3,3,0,-2,1,7,3,2
1558439714080922,-7,-3,1,-2,-4,-4,1,0
1558439714088900,-3,-5,-2,1,-1,-2,-1,-2
1558439714088900,-1,-4,-1,-1,-2,-8,-5,1
1558439714095884,2,0,-1,-2,-1,-2,-4,-3
1558439714095884,1,0,-3,-1,-6,0,-1,-3
1558439714111842,1,0,1,-1,0,-2,-3,-1
1558439714111842,-2,-1,-3,-3,-4,-3,-4,-4
1558439714113869,-3,0,-2,0,6,9,9,5
1558439714113869,-2,-2,-4,-2,1,-4,-3,-2
1558439714135129,-1,-1,-1,-2,-2,5,-1,-4
1558439714135129,-2,-1,-2,-2,-12,-14,-6,-5
1558439714135777,-3,-3,-1,-2,-1,-3,-4,-4
1558439714135777,1,-2,0,2,3,12,5,2
1558439714157899,1,0,0,1,9,-3,2,1
1558439714157899,2,0,3,0,5,-1,1,2
1558439714158718,-4,-2,-4,-2,-9,-9,-6,-5
1558439714158718,0,-2,-3,-3,-7,-6,-5,-2
1558439714172893,-1,0,1,0,4,8,0,-3
1558439714172893,-2,-5,-5,-3,-12,-11,-10,-4
1558439714173677,0,-1,1,1,9,5,7,3
1558439714173677,2,2,0,0,2,0,6,6
1558439714187818,-2,-4,-6,-2,-7,-7,-5,-4
1558439714187818,3,3,1,1,5,5,3,1
1558439714193879,-10,-7,-2,-2,-2,1,-2,-3
1558439714193879,-1,-2,-4,-2,-4,-2,-3,-2
1558439714209814,0,0,-1,1,1,6,6,2
1558439714209814,-2,-4,-4,-3,-6,1,1,0
1558439714215563,3,2,0,0,-2,-7,-2,-3
1558439714215563,-1,1,2,1,9,7,6,-2
1558439714232555,-1,-1,-4,-2,-6,-4,-1,-1
1558439714232555,-3,-1,-2,-3,-4,-4,-3,-2
1558439714233515,2,2,2,-1,-3,-2,2,-1
1558439714233515,-3,-3,0,0,2,-5,-5,-2
1558439714254461,0,0,2,0,4,4,-1,-1
1558439714254461,-1,-4,-4,0,-4,-3,-1,1
1558439714256453,2,0,-1,0,5,3,0,3
1558439714256453,1,2,-1,-1,-1,2,1,3
1558439714269419,-3,1,-2,-3,-4,-5,-2,-4
1558439714269419,-3,-4,0,0,3,5,3,-2
1558439714275404,-1,-2,-3,-3,-9,-9,-8,-4
1558439714275404,0,-2,-1,-1,-2,1,0,-1
1558439714300548,0,-1,1,0,1,-3,1,3
1558439714300548,-1,-1,-1,-1,5,7,-2,-2
1558439714301378,-1,-3,-1,-2,-10,-6,-3,-3
1558439714301378,1,-1,-1,0,-1,0,-5,-2
1558439714307698,-1,0,-1,-1,-6,-3,-2,1
1558439714307698,-3,-2,-3,-3,0,0,2,-1
1558439714315296,0,0,2,1,6,6,4,1
1558439714315296,-3,-3,-2,1,-7,-11,-5,-3
1558439714337738,1,-2,-2,0,0,1,-3,-2
1558439714337738,4,0,0,1,4,8,-1,-2
1558439714338235,-4,-4,-2,-3,-8,-4,-3,0
1558439714338235,-4,-2,-1,-2,-2,-4,1,-1
1558439714352050,-1,2,0,-2,1,0,6,3
1558439714352050,-4,-3,-3,-2,-5,-5,-6,-7
1558439714359975,2,1,-1,0,4,-4,-1,0
1558439714359975,2,1,2,1,7,6,5,2
1558439714366939,-3,-3,-1,0,-4,0,-5,-1
1558439714366939,0,2,0,0,-1,-2,-4,0
1558439714373925,-4,-3,-3,-3,-9,-5,-12,-5
1558439714373925,-1,1,0,1,9,1,9,2
1558439714389829,0,-2,1,1,2,2,4,3
1558439714389829,-4,-2,-3,0,-8,-9,-1,-3
1558439714403552,0,0,-3,-2,-2,5,-3,-3
1558439714403552,-2,-2,0,-3,-1,9,5,2
1558439714412063,0,1,1,1,8,4,1,1
1558439714412063,0,0,3,1,2,-3,-1,0
1558439714414054,0,-4,-4,-3,-6,-4,-2,-2
1558439714414054,0,1,-3,-2,-9,-8,-8,-5
1558439714427123,-3,-1,-1,-5,-11,-12,-6,-1
1558439714427123,-3,-4,-1,-1,4,6,1,-4
1558439714434999,1,3,2,3,9,6,3,1
1558439714434999,1,0,-1,1,3,2,1,5
1558439714448994,-2,-1,0,-2,1,3,2,-1
1558439714448994,-3,-2,-1,-2,-5,-2,-1,4
1558439714464918,4,-1,1,1,-6,-4,0,-2
1558439714464918,0,2,0,-2,-7,-2,-12,-6
1558439714471932,-9,-6,-2,0,1,-11,-5,-2
1558439714471932,1,1,0,1,0,-2,7,4
1558439714473895,0,1,0,2,10,10,6,3
1558439714473895,2,2,2,-2,1,2,-2,-2
1558439714485864,0,-1,-3,-2,-4,0,-2,-4
1558439714485864,-4,0,1,0,-5,-4,-6,-7
1558439714509897,-3,0,-2,-1,1,3,5,2
1558439714509897,-4,-4,-2,-3,0,-4,0,0
1558439714510794,0,1,1,-1,-2,-7,-2,3
1558439714510794,-2,-2,-2,-2,-3,-4,-3,-5
1558439714515875,-1,1,0,-2,-5,-2,-2,1
1558439714515875,-4,-2,-2,-2,-3,-7,-5,-4
1558439714532764,-1,0,-2,1,6,9,5,-2
1558439714532764,2,-1,-2,-1,-1,-6,-3,2
1558439714533763,-2,-3,-2,-2,-2,2,6,0
1558439714533763,-3,-4,-2,-2,-10,-5,-6,-6
1558439714545701,2,0,1,2,3,-4,-4,-3
1558439714545701,2,2,0,1,9,8,5,5
1558439714554677,-1,-2,0,0,1,2,-6,-2
1558439714554677,-2,-2,0,-3,-5,-6,-1,-1
1558439714577649,1,0,-2,-1,-4,-4,2,-2
1558439714577649,-3,2,1,-1,2,-2,-1,-1
1558439714578614,-2,-3,-3,-2,-3,-5,-4,-1
1558439714578614,0,-3,-2,-1,-2,2,-1,-3
1558439714592610,0,-3,-3,-1,-1,6,-1,-1
1558439714592610,0,-1,-1,-3,-1,-8,-3,1
1558439714594606,-3,-4,-2,-2,-3,-3,-4,-1
1558439714594606,-4,-1,-1,-1,-7,-6,-1,-5
1558439714614566,1,-1,0,-1,4,2,0,0
1558439714614566,-2,-3,-3,-1,-4,1,-2,-4
1558439714616512,1,1,0,0,-1,-4,-3,-2
1558439714616512,-1,2,1,-1,3,-1,0,2
1558439714629476,-1,0,-1,-3,-4,5,3,1
1558439714629476,-5,-1,-3,0,-1,-2,-2,-8
1558439714636331,1,-1,0,1,3,4,1,2
1558439714636331,3,0,0,0,8,-2,5,1
1558439714653285,0,-2,1,-2,-2,3,-2,-2
1558439714653285,0,0,-1,-1,-4,-2,-2,2
1558439714658239,-2,-1,0,-2,-6,-8,-4,-3
1558439714658239,-3,-2,-2,-2,2,11,2,-1
1558439714666216,-4,-2,-3,-3,-7,-7,-4,-1
1558439714666216,2,-1,-3,0,3,9,7,3
1558439714698159,0,2,1,0,-1,-9,-1,-2
1558439714698159,0,0,1,-1,1,-3,1,1
1558439714698159,-3,-3,-1,0,5,10,0,-2
1558439714698159,1,-2,-2,-1,-1,-3,1,2
1558439714700125,-2,2,-1,-1,-3,-2,-2,-2
1558439714700125,-1,-1,-2,-1,-6,1,-5,-4
1558439714720211,0,1,0,0,2,-3,-1,-2
1558439714720211,-1,0,3,1,-1,-2,0,2
1558439714721066,-4,-3,-3,-1,3,10,6,-2
1558439714721066,-4,-4,-2,-3,-10,-9,-9,-7
1558439714726201,1,1,0,-2,2,-6,2,2
1558439714726201,1,3,1,2,6,6,1,-2
1558439714735059,-3,-3,-1,-1,-2,-2,0,3
1558439714735059,-1,0,1,0,-4,1,-3,-2
1558439714757003,-1,-3,-5,-1,-5,-2,-4,-4
1558439714757003,2,0,-2,-2,-5,-9,-3,1
1558439714764951,-6,-1,1,1,5,3,-3,-4
1558439714764951,2,1,1,3,9,7,8,3
1558439714771963,-1,-2,-2,-3,-11,-11,-6,0
1558439714771963,-1,-4,-4,-3,0,8,5,-2
1558439714777918,1,-1,-4,-3,-3,4,-1,-2
1558439714777918,-2,-2,-3,0,-3,-3,-3,0
1558439714785923,-2,1,-1,-1,-1,-9,-6,-4
1558439714785923,1,-1,0,-4,-7,1,-2,-2
1558439714810869,0,0,-1,0,3,-2,3,0
1558439714810869,-2,1,1,0,4,0,3,1
1558439714811827,-1,0,-2,-1,-1,4,2,1
1558439714811827,-3,-4,-2,-3,-8,-8,-13,-11
1558439714815826,1,1,0,1,2,-1,4,3
1558439714815826,2,-2,-1,0,-1,-2,-5,-2
1558439714831820,0,1,1,2,3,4,5,-1
1558439714831820,1,0,0,-3,-3,-8,-3,1
1558439714838810,-2,0,-3,0,-2,-4,-4,0
1558439714838810,-2,-2,-2,-3,3,-4,-1,-3
1558439714845740,-1,-1,4,1,5,13,4,0
1558439714845740,-5,-2,-2,-2,-10,-7,-4,-6
1558439714877651,0,-3,-3,-3,-3,-1,-2,0
1558439714877651,0,0,-1,-1,0,0,-1,0
1558439714878649,-3,-3,-5,-2,-3,0,2,1
1558439714878649,-1,-1,-2,1,2,4,7,1
1558439714880642,3,1,-2,-1,-7,-3,-7,-4
1558439714880642,-8,-5,-1,-2,-3,-7,-3,-3
1558439714891652,0,-1,1,-1,3,2,2,2
1558439714891652,1,0,1,0,3,0,0,1
1558439714898593,-2,-4,-4,-2,-1,0,1,-1
1558439714898593,3,0,-2,1,-2,0,1,0
1558439714913590,-3,-1,-2,-4,-9,-4,-5,-4
1558439714913590,-3,-1,-2,-2,-3,-9,-6,-2
1558439714922531,1,1,2,0,5,-4,-1,0
1558439714922531,-1,1,0,0,-1,9,1,-1
1558439714928514,-1,-2,0,0,1,0,0,3
1558439714928514,-2,-2,-2,0,2,1,-3,-4
1558439714935549,1,1,-1,-3,-6,-9,-4,-1
1558439714935549,-1,-1,-4,-1,1,4,-2,-5
1558439714951506,0,2,1,0,2,6,-2,-1
1558439714951506,-1,-1,0,1,1,-2,-1,1
1558439714966544,-1,-4,-1,1,1,-3,2,-1
1558439714966544,-2,-1,-4,-4,-4,-3,-1,0
1558439714975531,4,1,1,0,-8,-10,-3,-1
1558439714975531,2,1,-1,-2,4,4,3,-1
1558439714976386,-13,-7,-1,-1,2,2,-1,2
1558439714976386,-1,-1,-2,-2,-8,0,-3,-2
1558439714989679,-2,-1,-1,0,1,-10,-8,-5
1558439714989679,1,2,2,0,1,7,8,4
1558439714996331,1,2,-1,1,6,6,1,-3
1558439714996331,-3,0,-2,-1,-1,-3,-1,0
1558439715011294,-5,-3,-5,-6,-13,-13,-8,-8
1558439715011294,-1,-1,0,1,3,1,3,1
1558439715018304,2,0,1,1,7,13,8,4
1558439715018304,2,0,0,3,10,7,-1,-2
1558439715035442,0,-3,-3,-4,-8,-9,-9,-5
1558439715035442,-3,-4,-2,-3,-4,-8,-5,-3
1558439715036231,-3,-2,-1,-2,-9,1,-1,-4
1558439715036231,3,1,2,0,-4,-8,0,4
1558439715049398,-3,-3,-3,-1,1,4,2,-1
1558439715049398,-1,0,0,-1,-3,-5,-4,0
1558439715057331,-3,-3,-3,-3,-8,-7,-6,-5
1558439715057331,1,-1,1,1,3,1,8,4
1558439715087093,1,-1,-2,0,5,4,3,0
1558439715087093,-5,-2,-2,-2,0,0,-4,-3
1558439715089087,-1,1,-3,-1,-4,0,-3,-1
1558439715089087,0,-1,-1,-2,-6,-13,-6,0
1558439715111113,-1,0,1,3,6,-1,5,3
1558439715111113,1,-1,-1,-1,3,3,2,4
1558439715113019,2,0,-2,-2,-4,-1,-6,-10
1558439715113019,-13,-8,-1,-1,-2,3,-1,-3
1558439715113019,0,0,-1,-1,2,9,1,0
1558439715113019,-2,-2,-1,-1,-4,-5,-1,-2
1558439715117010,0,-1,0,-1,0,-10,-2,2
1558439715117010,2,1,-3,-3,-4,-2,-5,-2
1558439715131970,-2,-2,-4,-3,-4,-2,-2,1
1558439715131970,-1,-3,-2,-2,-5,0,-1,-2
1558439715145931,-1,0,-1,0,0,-1,3,1
1558439715145931,1,-2,-3,-1,2,-3,1,-1
1558439715155249,-2,0,-2,-3,1,-1,-2,-2
1558439715155249,3,1,-2,0,-1,5,-1,3
1558439715156211,-2,-1,0,-4,-7,-1,-4,-1
1558439715156211,0,0,0,4,11,17,9,2
1558439715169212,-1,0,-3,-1,-1,-11,-6,-2
1558439715169212,-3,-1,-3,-1,2,0,0,-3
1558439715176209,0,-2,-3,-3,-4,-5,-3,-3
1558439715176209,-1,-2,-3,-3,-10,3,0,-1
1558439715191163,1,0,1,2,6,8,3,0
1558439715191163,-1,-2,1,2,2,-17,-6,1
1558439715199061,0,-1,0,-2,-3,-6,-5,0
1558439715199061,-2,-1,-2,-1,3,3,1,-2
1558439715222038,1,0,2,1,5,13,6,1
1558439715222038,1,0,-1,-1,-3,3,0,0
1558439715222038,2,2,-1,1,4,4,1,-4
1558439715222038,-5,-3,1,-2,-2,-12,0,4
1558439715230709,-4,-3,-4,-4,-10,-8,-10,-9
1558439715230709,-3,-3,-2,-2,-1,3,3,3
1558439715236720,4,5,3,2,5,3,0,4
1558439715236720,1,2,-1,-2,-6,-5,-9,-9
1558439715259797,-1,-2,1,3,8,1,7,5
1558439715259797,0,-1,-1,-4,-5,-6,-6,-6
1558439715259797,-3,-3,-3,-2,-1,4,4,2
1558439715259797,-1,0,-3,0,0,0,-4,-1
1558439715274785,-2,-2,-3,-1,-2,1,2,-1
1558439715274785,-2,0,0,1,-1,-5,-4,-3
1558439715274785,-3,-1,1,0,2,-2,2,1
1558439715274785,2,0,-1,-1,-1,0,-1,1
1558439715290551,0,2,0,-1,-3,-4,0,0
1558439715290551,-4,0,-2,-1,0,5,-1,-3
1558439715304506,-1,-5,-5,-3,-8,-7,-7,-3
1558439715304506,-2,-3,-4,-1,-1,1,1,-3
1558439715310491,-1,-3,-1,-3,-1,-3,1,1
1558439715310491,1,2,5,0,4,10,3,-3
1558439715318469,-3,-3,0,-2,1,-3,0,1
1558439715318469,1,3,0,-1,-5,-12,0,1
1558439715334427,0,-2,-4,-3,-3,-4,-6,-4
1558439715334427,-2,-4,-3,-1,3,9,7,4
1558439715334427,3,1,1,-2,-4,4,-4,-4
1558439715334427,1,1,0,0,6,7,10,6
1558439715365344,0,-1,0,0,0,-1,4,6
1558439715365344,-2,0,-1,1,-7,-12,-7,-12
1558439715366343,-1,-2,-1,-1,2,3,-1,-1
1558439715366343,-1,-3,-1,-4,-7,-4,-6,-5
1558439715380472,-2,1,0,1,-3,-3,-1,0
1558439715380472,-1,-4,-2,-1,2,-1,5,5
1558439715381305,0,1,-2,0,2,0,1,0
1558439715381305,0,0,-1,0,0,3,-5,-4
1558439715410225,-1,-1,-2,-2,-6,-3,-4,-2
1558439715410225,1,1,-2,0,4,-3,2,5
1558439715411221,-1,2,-1,0,-3,-1,-2,-2
1558439715411221,-2,-2,-1,-1,1,-7,-5,-1
1558439715412223,-3,-2,-1,-2,0,2,-2,-5
1558439715412223,-1,-1,-4,-4,-9,-4,-3,-2
1558439715423494,2,-1,2,3,8,5,6,6
1558439715423494,-2,-2,-1,-1,-3,1,1,0
1558439715432343,2,-2,1,-2,5,-1,2,4
1558439715432343,-2,-2,-2,-1,-10,-9,-6,-9
1558439715439159,-4,-2,-2,-3,-3,4,-4,-2
1558439715439159,-2,0,-1,-1,-2,-1,-2,-1
1558439715454453,-3,-4,-2,-1,-5,-9,-5,-3
1558439715454453,0,-2,1,-1,4,3,-1,3
1558439715455105,-3,-3,-4,-2,-6,-12,-2,-1
1558439715455105,2,2,-1,-1,0,3,1,0
1558439715478045,-2,-1,-1,1,5,2,2,-1
1558439715478045,-4,1,-2,0,1,6,-4,-3
1558439715479044,0,-1,0,-3,-5,-5,1,-3
1558439715479044,-1,0,2,-2,-3,1,-4,-2
1558439715501169,2,0,-2,-2,-7,-7,-4,-2
1558439715501169,1,-2,-1,0,3,-4,1,2
1558439715523969,-1,0,2,3,12,9,9,2
1558439715523969,1,-3,-4,-2,-5,-4,3,5
1558439715524922,-3,-4,-4,-3,-5,4,-8,-13
1558439715524922,-4,-1,-4,-3,-3,-3,-6,-4
1558439715525919,-1,-1,-2,-2,-6,-7,0,-1
1558439715525919,-2,-1,0,0,10,9,0,-3
1558439715529909,1,0,-2,1,-1,0,2,4
1558439715529909,-2,-1,1,-2,-3,-5,0,-1
1558439715535891,2,-1,-1,0,-1,-1,0,-1
1558439715535891,-2,-3,-2,-5,-6,-11,-5,-4
1558439715552842,1,2,2,-2,1,3,5,5
1558439715552842,0,-2,-1,-1,-6,-6,-6,-1
1558439715566840,-1,1,0,0,9,10,3,-4
1558439715566840,-3,-2,-2,2,-2,-7,1,0
1558439715573837,-1,0,-1,1,1,7,1,0
1558439715573837,0,-3,0,-1,-4,-7,-1,-1
1558439715574784,0,-1,-2,-4,-4,-10,-4,-2
1558439715574784,2,1,-2,1,1,2,-4,-2
1558439715597724,1,3,-1,0,7,6,3,-1
1558439715597724,-7,-5,0,-1,-10,-2,-1,-2
1558439715598721,-4,-5,-6,-5,-16,-14,-12,-7
1558439715598721,3,0,4,3,17,12,12,5
1558439715620664,3,1,3,2,8,2,3,2
1558439715620664,4,1,0,0,3,13,5,-1
1558439715621843,-2,-1,-3,-2,-6,-6,-6,-1
1558439715621843,-2,-1,-2,-5,-7,-17,-5,-2
1558439715635622,-5,-1,0,-2,-12,-13,-8,-4
1558439715635622,-1,0,-2,-1,4,2,4,0
1558439715636619,-2,0,0,-1,2,9,3,-3
1558439715636619,1,-3,-1,0,0,2,2,2
1558439715664735,1,-2,1,0,2,-6,-3,1
1558439715664735,1,-2,-1,1,1,4,-1,0
1558439715664735,0,0,0,0,-4,-8,-3,-2
1558439715664735,-3,-1,-3,-3,-5,0,-2,0
1558439715689481,-3,-3,-2,-2,-6,0,-2,-4
1558439715689481,0,0,-1,-2,2,0,-2,-2
1558439715690741,-3,-3,-3,-2,-2,0,-1,-2
1558439715690741,0,2,2,3,8,6,2,-2
1558439715701680,-2,-3,-1,-2,0,3,1,2
1558439715701680,0,2,1,0,3,0,2,5
1558439715709699,1,0,-1,-1,-1,-5,-2,5
1558439715709699,-2,-2,-1,-3,-10,-9,-6,-1
1558439715717418,-2,-2,-3,-2,-3,4,0,-3
1558439715717418,3,1,-2,-4,-2,-2,-4,-3
1558439715717418,3,2,3,2,6,0,1,0
1558439715717418,-7,-3,1,0,3,0,3,-1
1558439715732364,1,1,0,-2,-2,-3,-3,-2
1558439715732364,-4,-2,-1,-1,2,6,4,-2
1558439715738351,3,2,2,0,-4,-4,-4,-2
1558439715738351,2,1,-3,-2,-7,-12,-6,-3
1558439715753307,-2,0,4,2,3,4,5,1
1558439715753307,1,-1,-3,-1,3,4,1,0
1558439715761286,-3,-4,-3,-1,-1,2,2,0
1558439715761286,-1,-3,-4,-3,-7,-4,-6,-7
1558439715777364,-2,-5,-2,-4,-4,-2,-1,4
1558439715777364,2,2,4,1,0,-2,1,3
1558439715777364,0,0,3,2,10,12,7,4
1558439715777364,-1,-1,-1,0,-4,-4,-6,-5
1558439715800434,-3,0,-5,-4,-8,-7,-3,-5
1558439715800434,0,-2,-3,-3,-1,-7,-9,-3
1558439715801180,-1,-2,-2,-1,-5,-1,-1,-1
1558439715801180,0,0,1,0,7,8,9,6
1558439715813147,-1,-1,-1,1,2,8,4,-4
1558439715813147,-3,-1,0,-1,-3,-10,-10,-5
1558439715821471,-5,-4,-2,-3,-4,-7,-8,-6
1558439715821471,1,-2,-3,-3,-9,-1,-5,-2
1558439715844377,1,-2,1,0,5,4,5,3
1558439715844377,1,1,1,-1,-1,0,2,2
1558439715845062,-5,0,-4,-3,-1,0,-1,-4
1558439715845062,1,-1,-1,-2,-7,1,0,0
1558439715852332,-5,-2,-2,-3,3,2,-2,-2
1558439715852332,-1,0,-2,1,0,-6,0,-1
1558439715859158,1,0,1,0,-1,-5,0,0
1558439715859158,-2,-1,1,-1,4,4,-1,-1
1558439715899120,0,0,-4,-3,-16,-14,-11,-7
1558439715899120,-3,-4,-3,-1,4,11,7,2
1558439715899120,0,2,2,3,16,5,7,6
1558439715899120,-2,0,0,1,1,6,-2,-3
1558439715900913,-2,0,-2,-3,-4,-1,-3,-1
1558439715900913,-4,-2,-5,-5,-12,-11,-8,-8
1558439715921050,0,-2,-1,-3,-7,-10,-9,-3
1558439715921050,1,1,4,1,14,8,8,5
1558439715921865,0,0,3,2,5,2,1,2
1558439715921865,0,2,2,-3,-3,1,3,0
1558439715922855,-2,-5,-7,-2,-3,0,-1,-2
1558439715922855,-1,-2,-4,-3,-7,-5,-5,-1
1558439715942801,-1,-1,-1,1,3,4,4,-3
1558439715942801,-2,1,-3,-2,-4,-9,-3,-3
1558439715943798,1,0,2,0,2,2,0,0
1558439715943798,-2,0,0,-2,-2,0,1,2
1558439715967007,1,0,-2,-1,-4,0,-3,0
1558439715967007,-3,1,-2,4,7,8,-1,-1
1558439715967007,0,0,0,-2,0,-1,6,1
1558439715967007,0,-2,-3,-1,-5,-9,-7,-7
1558439715980698,-1,-3,0,-1,-3,-13,0,4
1558439715980698,-1,-4,0,-3,-4,1,0,-1
1558439715980698,-3,-2,0,-3,-3,1,-2,2
1558439715980698,0,0,-1,2,5,5,5,1
1558439716001742,2,2,-2,-1,-1,-4,-4,-4
1558439716001742,0,-1,0,1,4,3,1,2
1558439716009864,-3,-3,1,0,-4,-1,0,0
1558439716009864,0,-6,-5,-5,-7,-7,-6,-4
1558439716033557,-2,0,0,-3,-4,-3,-3,-2
1558439716033557,2,2,3,2,2,2,2,3
1558439716033557,1,-2,-5,-1,-2,1,-1,-2
1558439716033557,-1,-2,-3,-2,-2,-3,-2,-2
1558439716035552,-2,-1,-1,0,6,7,1,-1
1558439716035552,3,0,-1,-3,-2,-9,-1,5
1558439716046556,-3,-3,-1,-1,-4,5,0,-5
1558439716046556,-3,-1,2,-1,0,-7,-4,-2
1558439716061488,-1,-2,-4,0,-6,-5,-2,-2
1558439716061488,-6,-5,-5,-2,-3,-4,-5,-6
1558439716062480,0,1,0,-2,2,0,1,2
1558439716062480,-2,-2,-4,-1,-2,-1,-3,-1
1558439716078443,0,-1,0,-3,-6,-5,-5,-4
1558439716078443,-2,-3,-3,0,5,10,10,5
1558439716083652,-1,-1,-3,-3,-7,-7,-11,-9
1558439716083652,0,0,-2,0,3,5,6,2
1558439716092401,0,-2,0,0,1,-1,2,3
1558439716092401,0,-2,-1,-3,-8,-8,-6,-5
1558439716123528,-2,-1,-2,-2,-3,-2,-3,1
1558439716123528,-2,-1,1,2,8,5,3,3
1558439716124319,-3,-1,-2,0,-3,-3,-5,-4
1558439716124319,-1,0,-1,-3,-8,-7,-6,-2
1558439716125320,-2,-5,-2,0,1,0,1,-1
1558439716125320,2,2,1,-2,-3,-8,-3,-2
1558439716161220,-4,-4,-5,-1,5,6,2,-2
1558439716161220,-4,-4,-1,-1,1,4,-3,-5
1558439716161220,-1,1,1,0,-1,-7,0,3
1558439716161220,-3,-1,-1,-2,-6,-7,1,-1
1558439716177175,0,2,2,0,-2,-2,-2,-1
1558439716177175,0,0,-2,-1,-1,-6,-4,0
1558439716177175,0,0,0,1,7,7,6,2
1558439716177175,2,0,-2,0,0,4,2,-2
1558439716181165,-1,0,1,-2,-2,0,2,3
1558439716181165,0,-2,-1,1,3,5,1,-1
1558439716182159,-2,-2,-1,-2,-9,-12,-8,-2
1558439716182159,-1,-2,-1,0,-3,-1,-3,-3
1558439716198152,0,-1,-1,0,8,5,7,4
1558439716198152,-1,-1,-1,-2,-4,-2,-3,1
1558439716198152,4,2,4,4,10,7,8,4
1558439716198152,-1,0,1,-1,-7,-6,-6,-1
1558439716221108,-2,-2,-1,-2,-2,1,-4,-5
1558439716221108,-1,0,-2,-1,-5,0,3,-2
1558439716222053,-1,2,-4,-2,-5,-7,-4,-1
1558439716222053,-1,-2,-3,-1,3,3,3,3
1558439716235018,2,1,1,0,4,2,1,1
1558439716235018,-1,1,-3,1,3,2,4,-1
1558439716241418,-2,-4,-1,-2,-4,7,0,-5
1558439716241418,-2,-1,-1,-1,-1,-2,-2,-4
1558439716257987,-1,-3,-1,-2,-3,-4,-5,-1
1558439716257987,-1,-1,0,-2,-2,2,4,3
1558439716259233,-4,-1,1,3,2,5,-6,-9
1558439716259233,0,-1,-1,-2,-1,1,0,-1
1558439716287120,4,3,-2,-1,-5,-2,-1,-1
1558439716287120,-12,-7,-3,-2,-3,-9,-7,-6
1558439716287884,1,2,-1,-2,-5,-12,-2,-1
1558439716287884,0,-1,2,1,-1,-1,-5,-1
1558439716310030,-3,-1,-1,-2,-5,-7,-4,-3
1558439716310030,4,2,1,2,7,2,0,1
1558439716310824,-2,-3,-3,-3,-4,-1,-1,-2
1558439716310824,-3,-3,-4,-1,-2,1,1,-4
1558439716323977,-1,-3,-3,-3,0,-2,-2,-2
1558439716323977,3,1,1,-1,-5,-3,-1,-1
1558439716332930,2,2,1,2,6,6,3,5
1558439716332930,-1,2,-1,-4,-3,-6,-3,-2
1558439716333758,-2,-2,-2,-1,0,1,-3,-3
1558439716333758,-2,0,-1,-2,-4,1,0,-2
1558439716361682,-3,-2,-4,-3,-2,-1,-4,-4
1558439716361682,0,-1,2,0,3,4,3,5
1558439716370824,-2,-1,-3,0,-2,-5,-4,-2
1558439716370824,-3,-4,-2,-5,-10,-13,-9,-5
1558439716371655,2,-1,0,-2,4,6,8,3
1558439716371655,1,0,3,2,6,10,6,2
1558439716376640,1,-2,-1,-2,-7,-10,-3,-1
1558439716376640,-1,1,-1,0,3,-2,-3,-3
1558439716377637,-1,-1,-1,-2,-5,-1,-4,-2
1558439716377637,-2,-1,1,-1,1,-3,-2,0
1558439716398618,1,0,-1,0,-1,5,8,0
1558439716398618,1,2,-2,-2,-3,2,-3,-3
1558439716399580,-4,0,-2,1,1,-5,1,1
1558439716399580,0,-1,-1,0,-1,5,0,-2
1558439716413575,-3,-1,-1,-2,-4,-4,-1,1
1558439716413575,1,0,-3,-4,-2,-1,-4,-3
1558439716428502,-2,-2,-2,-2,-4,-1,-2,-3
1558439716428502,2,0,-2,0,6,-2,0,1
1558439716476790,0,-2,0,-1,2,4,4,1
1558439716476790,-1,0,1,1,-2,-3,-1,1
1558439716476790,-2,0,-2,-4,-6,-8,-9,-2
1558439716476790,-5,-1,-3,-1,-3,1,0,-7
1558439716478367,1,2,1,2,8,6,2,1
1558439716478367,2,0,1,-1,2,-3,1,3
1558439716483828,-3,-2,0,-1,-3,-4,0,3
1558439716483828,-2,-1,-4,-4,-12,-12,-11,-6
1558439716484353,-2,-3,-1,-1,7,10,2,1
1558439716484353,1,-1,1,0,7,8,3,-1
1558439716485348,4,-1,0,1,5,-5,4,4
1558439716485348,-4,-5,-3,-4,-11,-11,-12,-4
1558439716497536,-3,1,0,0,-2,0,-5,-5
1558439716497536,-1,-1,0,3,12,18,10,3
1558439716497536,3,2,-4,0,-5,-2,-1,-5
1558439716497536,-7,-6,1,0,2,-2,6,6
1558439716521553,-2,-3,-3,-3,-3,-5,-7,-7
1558439716521553,-1,-1,-1,0,-4,-3,0,0
1558439716521553,-1,0,1,-1,0,0,0,0
1558439716521553,2,0,1,-2,1,3,-1,-2
1558439716534516,1,-1,-3,-2,-5,-8,-5,-2
1558439716534516,-1,0,-2,-2,-4,-9,-1,1
1558439716541433,1,-1,-1,-3,1,7,1,-1
1558439716541433,-1,1,-1,1,0,3,-2,0
1558439716556336,-2,-1,1,-1,-4,-4,-1,-1
1558439716556336,0,1,2,-1,1,2,2,0
1558439716557160,-4,-3,-4,-4,-6,-7,-1,-1
1558439716557160,-1,0,-1,0,0,-1,-1,-1
1558439716572322,-2,1,0,0,1,4,0,0
1558439716572322,0,-2,-2,-2,-2,-2,-3,-1
1558439716587080,-4,-2,0,0,-2,1,-2,-2
1558439716587080,0,-2,-3,-3,-2,5,2,-2
1558439716594103,-1,-1,0,0,-2,3,0,1
1558439716594103,-2,-3,-2,-4,-7,-10,-6,-4
1558439716609354,-1,-1,2,-1,0,-4,1,0
1558439716609354,2,2,2,3,14,6,4,2
1558439716616334,-2,-2,-1,-1,-6,-4,-4,-1
1558439716616334,-2,-1,-4,-3,-9,-4,-9,-4
1558439716624188,0,-1,-3,-3,-8,-5,-5,-7
1558439716624188,-10,-5,0,1,7,4,10,4
1558439716632293,1,0,0,1,8,-3,0,2
1558439716632293,-1,0,1,0,-1,1,-2,-1
1558439716639078,-2,-3,-2,-3,-4,0,-5,-4
1558439716639078,4,0,-2,0,-2,6,4,0
1558439716654150,1,-1,0,-2,-2,-10,-5,-1
1558439716654150,-4,-3,-5,-3,-4,-5,-3,-1
1558439716661052,-1,-1,-1,-2,3,4,4,0
1558439716661052,1,2,1,-2,-6,-5,-6,-6
1558439716675842,-1,-3,-1,-1,0,5,6,2
1558439716675842,2,1,-2,0,-1,2,0,-3
1558439716682847,-1,0,1,2,10,6,6,1
1558439716682847,1,1,0,-2,-5,-9,-8,-1
1558439716699813,-2,-1,0,-3,-4,-2,-3,-5
1558439716699813,-4,-3,-1,-3,-6,-3,-3,-1
1558439716706755,-4,-1,-2,1,-2,-4,-2,0
1558439716706755,-3,-1,-1,-3,-1,-3,-4,-4
1558439716713738,1,-2,-3,2,1,2,3,1
1558439716713738,0,1,1,-1,-2,-5,-3,-4
1558439716728697,-2,-2,-1,0,2,-2,0,2
1558439716728697,5,3,1,1,5,-1,0,1
1558439716736113,-2,0,-2,-2,-7,-7,-5,-3
1558439716736113,-3,-2,2,0,6,10,8,0
1558439716752635,1,1,-2,-2,2,9,5,1
1558439716752635,0,-1,-3,-4,-12,-2,-4,-2
1558439716753630,-10,-9,-5,-2,-8,-8,-4,-5
1558439716753630,1,0,-2,-1,10,-2,-2,1
1558439716758616,-1,-2,0,-2,-5,-3,-8,-3
1558439716758616,0,-2,1,3,11,11,13,5
1558439716773576,3,2,1,0,5,5,2,2
1558439716773576,0,-5,-6,-4,-10,-14,-9,-5
1558439716780558,-2,-1,0,-3,-4,-3,-4,-2
1558439716780558,-4,-2,-4,-4,-11,-14,-8,-1
1558439716795519,-2,0,-1,1,4,6,-4,-5
1558439716795519,-1,-1,-1,-1,-1,2,3,0
1558439716803499,4,4,3,2,6,5,3,0
1558439716803499,-2,-3,-1,0,3,6,5,2
1558439716819470,1,1,0,-2,2,-2,0,3
1558439716819470,0,-3,0,2,6,10,2,-4
1558439716819470,-2,-3,-3,-3,-9,-14,-3,-3
1558439716819470,-1,0,-2,-4,-8,-3,-1,-5
1558439716841395,-2,0,0,-2,-5,-5,-4,1
1558439716841395,1,0,-1,0,3,0,-4,3
1558439716842393,-2,-1,2,1,9,13,4,0
1558439716842393,-1,-4,-2,-2,-3,-9,-6,-2
1558439716856361,7,5,2,4,4,5,5,1
1558439716856361,-11,-9,-2,-1,-1,-1,1,-2
1558439716863338,-1,0,-1,0,1,2,-2,-1
1558439716863338,-1,-1,0,-1,2,2,-1,-2
1558439716879294,1,-1,-3,-3,-7,-4,0,1
1558439716879294,0,1,1,-1,-4,5,4,2
1558439716879294,-4,-6,-7,-4,-11,-14,-12,-6
1558439716879294,-1,-1,-1,0,11,8,4,1
1558439716910215,-2,-1,0,0,3,2,-1,-2
1558439716910215,2,2,1,-1,-2,-8,-1,3
1558439716911210,0,1,1,-2,1,3,4,3
1558439716911210,-2,0,-2,-1,-9,-2,-4,-4
1558439716916196,-4,-2,-3,-2,-8,-9,-5,-3
1558439716916196,0,2,-2,-3,-2,-1,-1,-2
1558439716923176,1,-3,-1,3,9,7,7,2
1558439716923176,0,0,-1,-1,-3,-7,-6,-1
1558439716947116,-1,-3,0,-1,2,2,2,4
1558439716947116,-2,-2,0,1,-4,-11,-7,-8
1558439716947116,-1,-2,-3,-4,-3,3,-1,0
1558439716947116,-1,-1,3,0,3,5,6,-3
1558439716971050,-2,-1,-1,-2,-2,-4,-5,-1
1558439716971050,-1,0,-3,-3,-3,-3,2,2
1558439716972054,-1,-1,0,-1,0,-4,2,1
1558439716972054,1,-2,-4,-1,-5,-5,-6,-1
1558439716984015,-1,1,3,-2,2,3,-2,-3
1558439716984015,-2,-1,0,0,6,8,5,2
1558439716992000,0,0,0,0,-4,-6,-5,-2
1558439716992000,2,3,1,-2,2,2,2,3
1558439716998975,-5,-4,-2,-2,-6,-6,-6,-5
1558439716998975,2,-1,-2,-3,-5,-8,-6,-2
1558439716999973,-2,1,0,2,3,5,5,3
1558439716999973,-1,-1,0,-1,-3,2,-2,-2
1558439717030892,2,-1,-5,-1,-2,-4,2,0
1558439717030892,-8,-5,3,3,10,4,1,4
1558439717031889,0,-2,-1,-3,-9,-12,-14,-9
1558439717031889,-7,-3,-2,0,-3,1,0,-3
1558439717035876,1,0,3,1,6,5,5,4
1558439717035876,3,0,-3,-2,-5,-8,-9,-2
1558439717042860,-2,2,-1,0,0,2,-3,-6
1558439717042860,1,-1,-1,-2,-4,-4,0,5
1558439717066795,0,-2,0,-2,-4,1,-1,-7
1558439717066795,0,-1,0,0,0,7,3,-2
1558439717067796,1,-1,-2,-1,-2,0,1,1
1558439717067796,-1,-3,-1,-2,-3,-6,-5,-1
1558439717073774,-2,-1,-2,-3,-5,-15,-2,2
1558439717073774,1,1,-2,-2,0,3,-2,0
1558439717080758,-1,-2,-1,-1,0,10,5,-1
1558439717080758,0,1,-4,2,4,-1,2,1
1558439717095719,-1,-1,-2,0,-1,-3,-1,-1
1558439717095719,0,-3,-2,-2,-7,-7,-6,-5
1558439717118653,-2,-3,0,-3,-3,-7,-2,2
1558439717118653,-2,-2,-2,-2,-5,-5,-9,-6
1558439717136606,1,0,0,1,6,6,0,1
1558439717136606,-1,2,1,1,0,-2,4,1
1558439717137603,0,0,-2,-1,5,4,2,1
1558439717137603,-1,-3,-2,-1,-6,-5,-1,-1
1558439717141595,-1,-3,-2,-1,5,2,0,-2
1558439717141595,0,0,2,0,0,2,-2,1
1558439717142590,-2,-2,1,-2,-2,-4,-2,0
1558439717142590,2,1,1,1,3,0,0,0
1558439717155563,2,0,-1,1,1,8,1,0
1558439717155563,3,3,-1,-3,-8,-7,-3,-3
1558439717163536,-6,-5,-1,0,2,0,2,3
1558439717163536,1,0,2,1,1,4,-5,-8
1558439717180490,-3,0,0,-4,-6,-7,-2,4
1558439717180490,2,-2,-2,3,10,6,8,4
1558439717181487,-3,1,-3,-1,-3,1,-3,-8
1558439717181487,-3,-4,-2,-4,-5,-1,4,2
1558439717203431,-1,-1,-2,-3,-1,-1,-1,-1
1558439717203431,-1,-2,1,-3,-2,-7,-6,-3
1558439717203431,-3,-3,-4,-2,-8,-6,-4,2
1558439717203431,-1,-2,1,0,3,4,5,3
1558439717215399,-1,-2,-2,0,-2,-5,-1,1
1558439717215399,-1,0,-3,0,3,9,7,2
1558439717223375,-1,0,1,-1,4,1,2,-2
1558439717223375,-1,1,-1,-3,-8,-4,-4,-5
1558439717246313,-2,-5,-3,1,-4,-3,-5,-3
1558439717246313,-1,-1,0,1,7,1,3,-2
1558439717247309,1,-1,-3,-3,-8,-3,-7,-4
1558439717247309,-2,-1,0,-4,-3,-4,0,1
1558439717254297,-2,2,0,0,-3,-7,0,-1
1558439717254297,-2,1,-2,0,-4,-4,-2,-1
1558439717269252,1,-3,-1,-1,4,3,-1,-1
1558439717269252,-1,0,-2,1,2,0,-2,-2
1558439717284216,-1,-2,-3,-4,-1,5,-1,-2
1558439717284216,-3,0,1,-1,-6,-7,-4,0
1558439717284216,1,0,-1,0,-5,-12,-4,-1
1558439717284216,-1,-1,-4,-2,1,-2,-6,-3
1558439717299185,-2,-1,2,0,5,10,7,0
1558439717299185,1,0,2,2,3,7,9,3
1558439717299185,-3,-2,-1,0,-3,-3,-3,-2
1558439717299185,2,-3,-1,1,2,1,-3,1
1558439717331086,1,1,-2,1,0,0,-1,5
1558439717331086,-1,-1,-1,-1,-4,-2,-3,-5
1558439717332084,-11,-6,0,-2,-3,1,2,0
1558439717332084,0,1,-2,-2,0,-2,7,-2
1558439717344050,-1,0,-1,-2,-2,-5,0,0
1558439717344050,0,0,0,-1,1,-2,-4,1
1558439717345056,2,3,1,-1,1,-4,-3,1
1558439717345056,-2,0,-1,-1,1,7,2,0
1558439717375027,-2,-5,-3,-2,-4,-2,2,-2
1558439717375027,-2,-1,0,-3,-7,-9,-5,-1
1558439717375965,4,0,0,2,8,6,4,-1
1558439717375965,-1,-2,-2,-1,-1,-3,-3,-1
1558439717377960,-2,-2,-4,-4,-7,-5,-6,-5
1558439717377960,-4,-2,-5,-4,-5,-1,-6,-5
1558439717388932,2,1,0,0,3,3,3,0
1558439717388932,0,2,3,-1,-2,1,3,4
1558439717396911,-2,-2,-1,1,8,12,5,0
1558439717396911,-1,-2,-2,-1,3,1,4,-1
1558439717419854,0,1,-2,0,-6,-6,1,2
1558439717419854,0,-1,0,-2,-7,-9,-5,-4
1558439717421843,1,-1,-1,-3,-7,-13,-4,1
1558439717421843,-2,-1,0,-2,0,3,-4,-5
1558439717422840,0,0,-2,-2,-2,-1,-2,-2
1558439717422840,-2,-2,-2,-1,0,-1,-1,-4
1558439717463730,1,-1,1,3,4,6,2,2
1558439717463730,0,-2,-3,-1,1,2,4,3
1558439717478697,0,-3,-4,-1,-2,-1,-4,-2
1558439717478697,-1,-1,-3,-3,-4,-3,-5,-1
1558439717488665,0,2,1,1,0,1,0,-4
1558439717488665,-1,-3,-3,-1,-4,2,-2,0
1558439717489662,-1,1,1,0,-2,-7,2,1
1558439717489662,0,-1,2,0,5,11,3,0
1558439717495650,0,-1,-2,-2,1,-4,1,4
1558439717495650,1,2,0,0,3,-3,-1,-2
1558439717495650,0,-1,-3,-2,-2,-2,-4,-3
1558439717495650,-3,-2,-4,-3,-5,-9,-1,1
1558439717497644,-3,-3,-3,-4,-8,-3,-1,-3
1558439717497644,-3,-3,-1,-2,-5,-2,-7,-6
1558439717500632,0,-1,0,0,0,4,0,-1
1558439717500632,1,1,2,1,8,1,3,5
1558439717525566,-1,-1,0,0,2,3,0,-1
1558439717525566,1,-2,-3,-1,-5,-2,-2,-2
1558439717526563,-3,0,-3,-4,-3,0,0,-1
1558439717526563,-6,-6,-4,-3,-7,-8,-5,-3
1558439717546509,1,3,4,2,4,-2,-1,4
1558439717546509,0,-2,1,0,3,6,3,1
1558439717547506,0,-2,-3,-4,-1,5,-1,-3
1558439717547506,1,0,-3,0,-2,-7,-2,-2
1558439717562476,-3,-1,-3,0,-3,-7,-11,-5
1558439717562476,1,0,-2,-1,1,-4,0,1
1558439717563464,-3,-2,1,-1,0,2,-3,1
1558439717563464,-1,-1,-1,-2,-2,1,1,-2
1558439717584410,0,-2,0,-2,-7,-12,-6,-4
1558439717584410,-1,0,-2,-1,1,4,4,0
1558439717584410,-1,-1,-3,0,-3,-2,1,-2
1558439717584410,2,-1,0,1,7,3,3,3
1558439717599369,-2,0,2,-3,-3,4,3,-2
1558439717599369,-5,-5,-3,-3,-10,-9,-8,-8
1558439717605357,-1,0,2,0,1,-1,0,1
1558439717605357,-2,-3,-4,-1,1,10,3,-2
1558439717621310,2,0,-3,0,0,6,0,3
1558439717621310,-1,-1,0,0,-3,-7,-3,-1
1558439717622307,1,0,-1,-1,-1,-2,0,0
1558439717622307,-2,0,-2,-2,-4,-4,-5,-2
1558439717644248,-2,-2,-1,2,4,5,-1,-3
1558439717644248,-2,-4,-3,-4,-5,-11,-5,2
1558439717644248,-1,-3,-2,-3,-6,-2,0,-4
1558439717644248,2,2,2,2,6,8,5,2
1558439717666189,-1,0,-1,-1,5,1,-1,-1
1558439717666189,-4,-1,-4,-3,-3,3,-3,-2
1558439717667186,-4,-3,1,-1,-1,-4,-3,-1
1558439717667186,-2,-2,-1,-3,-9,-12,-6,-4
1558439717674168,1,0,0,0,1,7,7,1
1558439717674168,1,1,-2,-2,-8,-8,-7,-3
1558439717681149,0,1,-1,1,3,-3,-2,0
1558439717681149,0,0,1,1,10,6,5,3
1558439717696110,-1,-1,-2,-3,-6,-2,-2,-3
1558439717696110,-1,-4,0,-3,-5,-4,1,0
1558439717720046,0,-1,-1,0,-1,0,-1,-1
1558439717720046,-2,-1,-3,0,3,5,-6,-3
1558439717721042,-1,-3,-2,-1,0,-2,0,3
1558439717721042,-2,-2,-3,-1,-5,-1,2,-2
1558439717742992,0,-1,-4,-3,-7,-8,-8,-3
1558439717742992,-2,-3,1,0,-2,-6,2,-2
1558439717744983,-1,2,1,0,6,-3,-2,0
1558439717744983,0,1,0,-3,2,11,3,2
1558439717748969,-2,-1,0,-2,2,-4,-3,0
1558439717748969,-2,-2,-2,-2,-6,-2,-1,-6
1558439717756955,-4,-3,-4,-4,-11,-3,-4,-1
1558439717756955,2,2,2,1,4,-3,0,4
1558439717771918,4,1,-1,1,7,8,5,0
1558439717771918,-6,-5,-1,-2,-11,-7,-6,-4
1558439717778895,-3,-4,-3,-4,-2,-8,-6,-5
1558439717778895,3,1,3,2,15,16,9,4
1558439717785876,5,0,-1,2,2,5,6,7
1558439717785876,5,-1,-2,-1,-2,-8,-2,-1
1558439717817785,-2,-2,-2,-3,-7,-3,-3,-4
1558439717817785,-3,-1,-4,0,0,-6,-2,-1
1558439717818782,-3,-2,-1,0,3,4,2,-2
1558439717818782,-5,-2,-1,-2,-7,-6,-5,-2
1558439717819779,-4,-2,-4,-4,-6,-4,-3,-5
1558439717819779,-1,-1,-3,0,-3,3,-1,-1
1558439717822771,-3,-3,-1,0,-1,0,-2,-1
1558439717822771,-1,0,-1,0,5,6,3,2
1558439717838730,2,1,4,1,6,3,0,2
1558439717838730,-4,-2,-3,-2,-3,-2,-3,-2
1558439717853688,-3,-1,-3,-4,-9,-16,-8,-6
1558439717853688,1,-1,-1,2,1,7,1,5
1558439717861670,-1,0,-2,0,-3,-1,-2,-3
1558439717861670,-4,-2,-1,-2,-2,-3,-6,-3
1558439717861670,-2,-2,1,1,3,7,4,1
1558439717861670,-2,-2,-5,-4,-7,-4,-4,-4
1558439717883619,1,-2,-1,2,5,2,11,5
1558439717883619,1,-2,0,0,1,-4,-4,-1
1558439717884610,-2,-2,-1,-3,-9,-8,-1,-1
1558439717884610,1,0,-2,-1,1,-1,-4,-2
1558439717906550,-5,-2,-4,-4,-13,-6,-6,-7
1558439717906550,0,-1,-1,0,0,6,6,2
1558439717907547,3,5,3,5,17,14,6,4
1558439717907547,0,0,0,-1,-3,-3,-5,-3
1558439717922507,3,-1,-3,-3,1,-1,-1,1
1558439717922507,-2,-1,2,1,-2,-2,-2,-5
1558439717923501,-4,-5,-3,-4,-2,3,-1,-2
1558439717923501,-1,0,-1,-2,0,-1,-3,-4
1558439717952425,-1,-1,-1,0,5,1,1,6
1558439717952425,0,-2,-3,-2,-3,-2,-1,-2
1558439717952425,1,4,-1,-3,-10,-7,-4,-3
1558439717952425,2,3,2,1,0,2,6,2
1558439717966445,-4,-2,1,0,8,4,2,0
1558439717966445,1,0,1,2,4,2,0,0
1558439717974410,1,-2,0,-3,-4,-9,-8,-5
1558439717974410,0,-3,-3,-4,-3,7,0,3
1558439717989333,0,0,0,-1,-4,-6,-4,-4
1558439717989333,-2,1,-1,-2,-6,-13,-6,-2
1558439717990334,0,-1,-2,-2,4,5,3,0
1558439717990334,-3,-2,-3,-3,-5,-7,-6,-4
1558439717996313,-2,-1,-1,0,-2,7,3,-1
1558439717996313,2,1,2,4,12,11,8,6
1558439718003299,-4,-2,0,-1,-3,-9,-7,-3
1558439718003299,-2,-1,-2,-2,-2,-7,0,0
1558439718020252,-2,1,-1,-1,4,7,4,-2
1558439718020252,-1,-3,-2,-3,-6,-6,-6,-3
1558439718026227,0,-1,0,0,2,7,7,5
1558439718026227,-1,-1,0,1,0,-3,-5,1
1558439718042184,0,0,-2,0,-8,-8,-11,-7
1558439718042184,-1,-1,-2,-4,-1,6,1,-3
1558439718049172,-1,1,2,2,7,3,4,2
1558439718049172,-3,-1,-1,-1,-1,-9,-2,2
1558439718056150,-2,1,0,-3,-1,2,1,-1
1558439718056150,-1,-3,0,-3,-3,0,3,1
1558439718063133,-1,-3,-1,1,3,-2,-7,-1
1558439718063133,-2,-1,-2,-1,-3,-2,0,-3
1558439718078092,2,-1,-1,2,9,10,7,2
1558439718078092,-1,1,0,-1,-5,-8,-4,0
1558439718086072,-2,-1,-3,-2,-12,-1,3,1
1558439718086072,-1,1,0,-1,3,-2,-4,-6
1558439718101085,0,0,2,0,5,4,2,0
1558439718101085,-3,-4,-3,-2,-1,0,0,-1
1558439718102025,-2,-4,-4,-1,-3,-5,-5,-4
1558439718102025,0,0,1,0,3,5,2,3
1558439718116983,-3,-2,0,-2,-5,-3,-8,-5
1558439718116983,0,-1,-1,-2,-5,-4,-1,0
1558439718123029,5,2,2,2,8,4,9,3
1558439718123029,1,2,-2,-3,-4,-4,-2,-4
1558439718139933,-5,-5,-3,0,-3,-4,-2,-1
1558439718139933,0,3,2,2,12,9,4,3
1558439718162864,-5,-2,-1,-3,-6,-4,-7,-7
1558439718162864,1,-1,-1,0,2,2,0,0
1558439718163860,-4,-1,-2,-4,-7,-6,-3,-2
1558439718163860,-4,-2,-4,-1,-8,-1,-1,-3
1558439718164859,3,1,0,3,8,-1,-1,2
1558439718164859,-1,-3,0,1,0,1,-1,-4
