timestamp,emg1,emg2,emg3,emg4,emg5,emg6,emg7,emg8
1558439668192390,-2,-2,-4,0,-5,0,-2,-2
1558439668192390,-3,0,-3,-6,-9,1,-6,-6
1558439668192390,-1,-1,1,0,2,2,1,-1
1558439668192390,-1,1,0,4,-2,-8,-4,-1
1558439668193387,2,1,2,-2,4,5,4,5
1558439668193387,2,0,-1,-5,-6,-9,-6,-3
1558439668194397,-7,-7,-2,1,-3,4,0,-2
1558439668194397,1,0,-1,-3,0,0,2,2
1558439668205355,-3,-1,-1,-4,3,1,-2,-4
1558439668205355,0,-1,-2,4,-1,4,-1,0
1558439668213333,0,3,-1,-2,-5,-8,-9,-2
1558439668213333,-2,-3,-2,-3,-3,-9,-1,2
1558439668220315,-2,-2,0,-1,-1,-2,-3,-3
1558439668220315,-1,-1,1,2,3,1,0,1
1558439668235275,-2,0,-1,-3,1,4,2,-1
1558439668235275,-4,-1,-3,-4,-6,-2,-5,-8
1558439668244251,2,1,-1,1,-4,-5,1,2
1558439668244251,-3,-2,-1,0,2,-4,1,1
1558439668250235,1,-2,0,-2,5,2,2,-3
1558439668250235,1,0,2,1,1,-2,0,4
1558439668266191,2,0,-1,1,7,10,8,0
1558439668266191,-2,-2,-2,-3,-4,1,0,-4
1558439668273173,-1,-2,-4,-3,-6,-11,-8,-4
1558439668273173,-1,-3,1,-1,-1,3,1,2
1558439668313066,1,1,-1,-3,0,4,2,1
1558439668313066,-2,0,-3,-5,-5,1,-2,-1
1558439668314063,-1,0,1,4,4,-2,-1,0
1558439668314063,0,-1,0,-2,-4,0,-2,-3
1558439668315061,-2,-3,-1,-4,-3,-10,-4,-3
1558439668315061,-1,0,0,5,-1,0,1,-1
1558439668317057,-1,1,1,-1,1,3,1,0
1558439668317057,-1,-2,-3,-4,-1,-3,-6,-3
1558439668326032,1,0,0,3,6,9,7,6
1558439668326032,0,-1,-2,-3,-8,-9,-7,-9
1558439668340993,-1,-4,-3,-6,-6,-5,-3,0
1558439668340993,2,0,2,0,2,7,7,1
1558439668340993,0,-1,-2,4,0,0,0,2
1558439668340993,-3,-1,-1,-2,0,-1,-3,-2
1558439668371910,3,2,-3,-2,3,4,3,0
1558439668371910,-11,-5,-2,3,2,3,5,0
1558439668372906,-1,2,1,-4,-5,-12,-5,-3
1558439668372906,2,1,0,3,6,9,5,3
1558439668373903,0,-1,-3,-4,-7,-7,-7,-4
1558439668373903,1,2,1,1,-3,-4,-3,-1
1558439668385871,-3,-2,-4,-4,-1,6,0,-1
1558439668385871,-3,-4,0,-4,-1,-1,-3,-4
1558439668391856,-2,-1,1,-1,-3,-2,0,2
1558439668391856,3,1,1,-1,3,1,-2,1
1558439668399834,0,-1,1,0,1,-1,0,-1
1558439668399834,3,0,-2,-3,-5,-9,-1,2
1558439668414795,0,0,-1,-1,4,3,-1,-3
1558439668414795,-2,-4,-3,-5,-10,-2,-5,-5
1558439668431749,-2,0,-1,2,2,-4,-4,-2
1558439668431749,-1,2,2,3,13,14,14,8
1558439668432746,-5,-3,-2,-3,-5,-4,-4,-2
1558439668432746,1,-1,-2,-1,-4,-10,-8,-4
1558439668445712,1,-1,0,-3,-6,-4,-4,-3
1558439668445712,0,-1,-1,-2,-1,-2,1,4
1558439668452692,-1,-2,-1,1,2,3,2,0
1558439668452692,-2,-2,0,-2,-8,-2,-7,-4
1558439668459676,-3,-2,-3,-2,-5,-6,-2,-3
1558439668459676,0,1,0,1,7,2,4,3
1558439668476628,0,0,1,1,2,-3,-2,-1
1558439668476628,1,0,-4,-4,-3,-5,-4,0
1558439668482613,0,0,0,-2,1,0,-1,-2
1558439668482613,-6,-5,-4,-2,-5,-6,-8,-4
1558439668489594,1,-1,1,-1,2,3,0,0
1558439668489594,-2,-1,-1,0,-1,-1,3,0
1558439668505552,0,1,-1,0,-1,0,-1,-1
1558439668505552,0,-1,-2,-1,-1,-2,-4,-3
1558439668512533,0,-2,-4,-3,-3,-1,-2,-1
1558439668512533,1,1,1,-2,1,0,3,2
1558439668528492,-2,1,1,0,1,3,1,-2
1558439668528492,-2,-2,-1,-1,-4,0,-3,-4
1558439668534477,-3,-1,1,-1,-7,-11,-7,-1
1558439668534477,1,3,1,2,7,-3,4,4
1558439668543461,0,-2,0,0,8,8,6,2
1558439668543461,-1,1,0,-1,0,-11,-2,-3
1558439668550441,-2,1,-2,1,1,5,1,1
1558439668550441,-2,-3,-4,-2,-3,2,-3,-5
1558439668573372,-2,-4,-2,-1,-8,2,-3,-2
1558439668573372,1,-1,-1,2,-1,1,0,-3
1558439668575366,-2,-3,-2,-3,-9,-14,-6,-4
1558439668575366,-2,1,-1,-2,-1,-3,0,-1
1558439668580351,-1,1,0,1,4,11,5,0
1558439668580351,0,-1,0,-2,-1,0,0,-1
1558439668595311,0,-2,-1,0,-1,-3,0,0
1558439668595311,-3,-5,-5,-3,-2,3,-1,-3
1558439668603291,0,-3,-1,-1,-6,-10,-4,0
1558439668603291,5,1,0,0,8,15,5,6
1558439668617253,-13,-7,-3,-1,3,5,-1,-6
1558439668617253,0,-1,-2,-2,-7,-8,-6,-2
1558439668625231,0,-1,-2,-1,-4,-9,0,0
1558439668625231,2,1,0,-2,3,-5,-2,2
1558439668632212,2,0,-1,-3,-5,-6,-2,-1
1558439668632212,0,2,4,5,6,8,4,1
1558439668640191,-4,0,1,-1,-1,-1,-4,-4
1558439668640191,-3,-1,-2,-2,-9,-5,-5,-6
1558439668664128,0,2,-2,-1,-1,1,1,0
1558439668664128,-1,-2,-2,-2,-4,-2,-1,-1
1558439668664128,1,0,-2,-2,-4,-5,-4,-2
1558439668664128,-1,-3,-1,0,2,1,4,-1
1558439668677093,0,-1,-2,-1,-3,0,-2,-3
1558439668677093,-1,-1,1,-1,-3,-4,-2,1
1558439668686070,-1,-2,-2,-2,2,-3,-4,1
1558439668686070,-1,-1,-2,0,-4,-1,-1,-3
1558439668692053,1,-1,-2,1,3,4,3,1
1558439668692053,0,-2,-1,-2,0,0,0,-3
1558439668708010,-2,-2,-3,-1,-1,2,0,-3
1558439668708010,-2,1,2,-2,-6,-6,-5,-3
1558439668714992,1,3,2,1,5,-1,3,3
1558439668714992,0,-2,-2,0,-2,-6,-5,-3
1558439668722970,-2,-1,-2,-2,-1,-2,-3,-1
1558439668722970,0,-2,-1,0,-2,-5,0,-1
1558439668736934,2,0,1,1,5,6,3,4
1558439668736934,0,1,-2,0,3,2,0,-1
1558439668745910,-4,-4,-2,-2,-4,-3,-2,-3
1558439668745910,-2,-2,-2,-2,1,6,1,-1
1558439668752889,-3,-2,-3,-2,-8,-2,1,-5
1558439668752889,-1,0,1,0,3,-4,-3,3
1558439668759872,0,0,-1,0,-1,-1,-6,-1
1558439668759872,0,-1,-3,-2,-3,1,-3,-3
1558439668774831,0,1,3,2,7,1,5,1
1558439668774831,0,1,0,-1,3,5,2,1
1558439668782810,-2,-3,-2,-3,-5,-3,-2,-3
1558439668782810,-3,-2,-2,0,-2,-10,-4,0
1558439668805750,0,-3,-7,-5,-12,-8,-10,-7
1558439668805750,-1,0,-3,-1,0,-4,-1,1
1558439668806746,3,4,2,1,9,5,11,8
1558439668806746,-2,-3,-1,0,-2,0,-3,-8
1558439668812730,1,-3,3,-2,1,4,-1,0
1558439668812730,-1,-2,-2,0,0,-2,-1,-3
1558439668828942,-2,-2,0,-2,-2,3,1,0
1558439668828942,2,0,-5,-4,-4,-9,-2,2
1558439668834676,-1,1,-2,-1,0,-2,-3,0
1558439668834676,-3,0,-2,-2,-5,0,0,-1
1558439668850630,0,2,1,0,3,2,0,-3
1558439668850630,-3,-1,0,-3,-1,2,-6,-4
1558439668857611,-2,-4,-3,-2,1,3,3,1
1558439668857611,2,-1,1,0,1,-6,-1,4
1558439668865590,-2,1,1,0,0,3,0,-6
1558439668865590,-1,2,0,3,2,4,3,2
1558439668873568,-2,-1,-2,-3,-2,-2,-7,-4
1558439668873568,0,-5,-4,-1,2,7,1,0
1558439668879554,1,-1,-1,1,1,-7,1,4
1558439668879554,-1,0,2,1,-2,-11,-4,-3
1558439668894511,0,-3,-1,-3,-7,-2,-4,-5
1558439668894511,-2,0,-1,0,-3,0,4,-2
1558439668903487,-1,-2,-1,-1,-2,-1,-4,1
1558439668903487,-4,-1,-2,-1,1,13,6,1
1558439668917451,2,4,3,3,8,-1,4,4
1558439668917451,-3,-1,-1,-2,-5,-6,-4,-2
1558439668925430,0,0,-3,0,0,-4,-7,-4
1558439668925430,1,-1,0,-4,-7,-2,-3,0
1558439668932410,-1,0,1,-1,2,5,1,-4
1558439668932410,2,1,-1,2,8,12,5,6
1558439668948367,-1,-1,-3,-3,-7,-5,-1,-6
1558439668948367,-2,-4,-2,-2,-2,-6,-6,-4
1558439668963326,-1,-3,-3,0,-6,-13,-7,-1
1558439668963326,0,-1,-5,-5,-8,-5,-5,-3
1558439668964324,0,-1,-1,1,2,1,7,1
1558439668964324,1,1,-1,1,3,2,1,1
1558439668986267,0,1,-3,1,-1,2,-1,-3
1558439668986267,-5,-1,0,0,1,-1,1,-1
1558439668987263,0,1,0,-1,1,0,-1,0
1558439668987263,-4,-2,-2,0,2,8,4,-1
1558439668992250,3,0,1,-2,-5,0,-1,-1
1558439668992250,2,0,0,-2,1,-7,-2,1
1558439669008208,1,1,0,2,6,8,3,3
1558439669008208,-1,-2,-2,-3,-2,0,0,-1
1558439669015189,-2,0,1,-1,-6,-8,-3,0
1558439669015189,-2,-1,-2,3,-2,0,-1,-3
1558439669023167,-3,-5,-5,-6,-8,-9,-8,-6
1558439669023167,0,1,1,0,4,2,2,2
1558439669037130,-1,-3,0,-1,0,3,1,-3
1558439669037130,-3,-2,0,-3,-5,-5,-3,-6
1558439669045110,2,2,3,1,5,-5,2,1
1558439669045110,-2,-1,-4,-2,-4,-8,-4,1
1558439669052091,0,-1,0,0,3,-2,-4,-7
1558439669052091,0,0,1,-1,4,3,2,1
1558439669068053,-2,0,-3,-1,-7,-2,-4,-5
1558439669068053,2,-2,-1,-2,-4,-4,1,1
1558439669084005,-2,-1,0,-1,2,-1,2,1
1558439669084005,0,-5,-2,-2,-3,-2,-4,-3
1558439669084005,-2,-4,-1,-1,1,3,5,2
1558439669084005,-1,0,2,2,4,5,1,2
1558439669105945,-4,-4,-4,-5,-5,-4,-6,-8
1558439669105945,-1,2,2,-3,-2,-1,-4,-1
1558439669106944,-1,-1,1,0,-1,0,-4,-1
1558439669106944,-1,0,2,-1,-2,1,2,-2
1558439669112930,2,1,-1,1,-2,-4,0,4
1558439669112930,-2,-2,0,1,4,4,-1,-4
1558439669127892,0,-1,0,-4,-2,-13,-5,-1
1558439669127892,1,2,3,-1,1,0,-2,-2
1558439669134869,-2,-4,-2,-2,1,5,4,2
1558439669134869,0,1,-2,-2,-7,-11,-4,-4
1558439669150828,-1,-2,0,0,2,8,4,-2
1558439669150828,-1,-1,-3,1,-4,-6,-6,0
1558439669157808,1,1,0,-3,-1,-3,1,2
1558439669157808,0,1,1,0,2,-1,-1,-1
1558439669165790,-1,-5,-1,-2,-4,-1,-2,1
1558439669165790,-2,-2,-2,1,4,2,-2,-6
1558439669172770,-1,2,-1,-1,-7,2,-1,-2
1558439669172770,-3,0,-2,1,0,2,-1,3
1558439669195706,-4,-2,-3,-5,-10,-5,-8,-5
1558439669195706,0,-2,0,-2,-10,-8,-3,-3
1558439669197701,3,0,-1,1,5,1,-2,2
1558439669197701,0,0,-1,1,6,8,8,5
1558439669202687,2,-1,0,3,3,1,2,2
1558439669202687,-3,-2,-3,-4,-2,-2,-5,3
1558439669217647,-2,-1,1,-1,1,2,1,-2
1558439669217647,0,-1,1,-2,-8,-8,-5,-5
1558439669225631,-2,-2,-3,1,2,3,-5,-4
1558439669225631,-1,-1,0,-1,-2,0,2,-2
1558439669239588,-4,-5,-6,-5,-8,-2,-5,-4
1558439669239588,1,0,-3,-1,-2,-5,-1,-2
1558439669248565,1,2,0,-1,1,-2,1,-1
1558439669248565,-1,-1,3,-1,8,9,1,2
1558439669254550,1,0,0,2,5,5,1,4
1558439669254550,1,-3,1,0,1,0,-1,-1
1558439669263527,1,-1,0,-1,2,3,6,1
1558439669263527,-1,-1,-2,-2,-3,-5,-2,-1
1558439669277491,-4,-1,0,-1,-4,-5,-1,-2
1558439669277491,-3,-2,-2,-5,-11,0,-8,-5
1558439669285475,-1,0,0,1,-1,4,1,-1
1558439669285475,1,0,-1,0,1,-7,0,1
1558439669299441,0,0,0,-1,3,-1,1,2
1558439669299441,0,-2,0,-1,1,0,2,0
1558439669308409,0,1,-4,-2,-7,-6,-6,-1
1558439669308409,-9,-6,-3,-2,-4,2,-2,-2
1558439669324407,-1,-1,-1,-1,0,-1,1,-2
1558439669324407,-1,-2,-1,0,1,0,0,0
1558439669324407,-1,-3,-2,-2,-5,1,-1,-1
1558439669324407,2,2,-1,-4,-11,-8,-6,-4
1558439669337431,1,-1,2,-1,2,-8,-2,3
1558439669337431,-1,0,2,2,10,7,7,2
1558439669345407,-1,-2,0,-1,-3,-6,-7,-4
1558439669345407,0,-2,-3,-2,-1,0,0,-1
1558439669360308,0,0,-3,-1,-2,6,3,-4
1558439669360308,-2,-3,0,-2,0,0,-3,-1
1558439669368249,0,-1,1,-1,-3,-12,-8,1
1558439669368249,-1,-2,-3,1,3,1,-2,-2
1558439669384205,-2,1,1,-1,-2,3,0,0
1558439669384205,-1,-2,-1,-2,-4,-4,1,1
1558439669384205,-2,0,-1,-1,-2,0,3,0
1558439669384205,-3,-4,-4,-3,-4,0,-3,-5
1558439669398210,1,-2,-4,1,9,4,3,3
1558439669398210,-2,-1,-4,-3,-7,-5,-3,-2
1558439669406144,0,0,1,0,-3,0,-1,0
1558439669406144,1,1,0,0,1,3,2,0
1558439669420147,0,-1,-1,1,1,2,0,-1
1558439669420147,-2,-1,0,-1,-2,0,-5,-1
1558439669428103,-1,-2,-4,-1,-1,1,0,-1
1558439669428103,0,-1,-2,-4,-3,-8,-4,-4
1558439669443046,2,-2,2,2,0,2,1,-1
1558439669443046,2,1,1,1,2,-2,0,0
1558439669444043,2,0,-1,-2,2,4,3,0
1558439669444043,-8,-5,-3,0,-2,-3,-5,0
1558439669457008,0,0,-1,-1,-1,-1,-3,0
1558439669457008,-2,-1,-4,-3,-10,-7,-9,-4
1558439669466164,-4,-2,0,0,6,13,8,-2
1558439669466164,2,2,3,2,8,9,10,4
1558439669480127,-2,-3,-2,-3,-1,-6,-2,3
1558439669480127,-1,-2,-4,-2,-5,-1,-4,-8
1558439669496900,3,2,2,-1,0,-5,-2,-1
1558439669496900,1,-2,-1,0,-2,-5,-1,0
1558439669501888,0,0,1,1,4,2,2,3
1558439669501888,-1,-1,0,-2,0,2,3,0
1558439669510862,-5,-3,-5,-3,-3,-3,-7,-3
1558439669510862,-3,-4,-3,-4,-3,0,-1,-3
1558439669517844,1,-1,-3,-3,-14,-14,-12,-7
1558439669517844,3,0,-1,4,9,7,10,2
1558439669526890,0,1,0,-1,5,3,2,1
1558439669526890,-1,3,1,0,1,2,-5,-3
1558439669539968,0,0,0,-1,-2,3,0,-1
1558439669539968,0,0,0,-2,-2,1,0,4
1558439669548763,-1,-4,-5,-2,-1,-11,-2,0
1558439669548763,2,0,2,-1,-6,-5,-4,-1
1558439669562730,-2,0,0,-3,-6,-8,-9,-7
1558439669562730,-8,-7,-1,2,4,11,5,0
1558439669571707,-3,-3,0,-2,-5,0,-5,-4
1558439669571707,-1,-1,-2,-2,-6,-18,-6,0
1558439669577684,-2,0,-1,-1,4,8,1,-2
1558439669577684,-1,0,-1,-1,0,4,7,1
1558439669586660,1,-1,-3,1,0,-8,-3,1
1558439669586660,-2,-2,-3,-1,0,8,0,-3
1558439669599624,0,-2,-1,-3,-5,-3,3,4
1558439669599624,-1,2,-1,1,5,6,2,1
1558439669608602,-3,-1,-1,-1,2,3,-1,-2
1558439669608602,-1,0,-1,-2,-4,-3,0,0
1558439669622568,-1,-1,0,-2,-4,-4,-2,3
1558439669622568,-2,-2,-3,-3,-9,-6,-9,-12
1558439669631542,1,-1,-1,-3,-4,-13,-4,2
1558439669631542,1,0,0,1,8,8,1,-3
1558439669637525,-3,-2,-2,1,5,5,1,-1
1558439669637525,0,1,0,-1,-5,-13,-2,3
1558439669646500,-2,0,0,0,-4,3,-2,-4
1558439669646500,0,-3,-2,-4,-6,-2,-5,0
1558439669660598,-4,-2,-5,-4,-6,-4,-2,-5
1558439669660598,1,0,1,-1,3,-2,0,3
1558439669668456,-1,-2,0,-1,-1,-2,-3,-2
1558439669668456,1,-1,1,3,7,5,9,7
1558439669682756,-2,0,0,0,0,-1,-3,-9
1558439669682756,-1,0,-6,-4,-7,-8,-5,-5
1558439669691493,-6,-2,-1,0,-5,2,0,-1
1558439669691493,-1,-1,0,-1,-5,-3,-3,-5
1558439669697718,-2,0,0,-1,1,2,3,1
1558439669697718,5,0,0,-1,-1,-3,-4,0
1558439669706453,0,-1,1,0,1,0,-1,0
1558439669706453,-2,-2,1,-1,-1,-3,0,2
1558439669720415,1,-1,-4,-2,-1,-2,3,3
1558439669720415,-1,-3,-2,-3,-4,1,-3,0
1558439669728607,-3,-1,-3,1,4,8,2,-8
1558439669728607,-2,-1,-2,-1,-1,0,-3,-1
1558439669742406,0,-2,2,2,-1,-3,-1,-1
1558439669742406,-3,0,-1,-1,0,-2,3,1
1558439669751335,0,-2,-2,-2,-3,-4,2,2
1558439669751335,0,-1,-2,-2,4,0,1,1
1558439669757317,-1,-1,2,0,-1,1,-3,-3
1558439669757317,0,2,1,2,2,3,0,-1
1558439669766297,0,2,3,-1,2,5,5,0
1558439669766297,-5,-2,-5,-4,-8,-5,-2,-1
1558439669780506,-3,-2,-3,-4,-6,-5,-4,-1
1558439669780506,-1,-1,2,-1,0,-2,-6,-3
1558439669789233,0,-3,-5,-1,-1,-2,-4,-4
1558439669789233,3,1,0,0,-3,1,2,2
1558439669802207,-1,-1,1,-1,6,5,3,-2
1558439669802207,-3,-4,-5,-4,-9,-5,-6,-6
1558439669811196,3,2,-2,0,5,7,9,6
1558439669811196,-6,-1,1,0,0,-9,-4,-2
1558439669817159,1,0,0,2,5,-3,3,2
1558439669817159,0,-1,-1,-1,2,-3,0,2
1558439669826135,-4,-3,-3,-4,-11,-5,-13,-4
1558439669826135,1,0,-4,-1,-2,3,-1,-4
1558439669840098,-1,-2,-1,-1,-1,2,1,-2
1558439669840098,0,-2,0,0,0,1,0,0
1558439669849074,1,-1,2,-2,-1,0,-2,0
1558439669849074,-1,0,-2,-1,-2,-2,-4,-3
1558439669862064,-3,-1,-1,0,1,-1,1,-1
1558439669862064,1,0,-3,-3,-2,-3,3,5
1558439669871042,-1,-2,-4,-2,-4,-6,-3,-2
1558439669871042,-1,-1,1,1,3,4,-1,-2
1558439669887006,-1,-3,-4,-2,-1,5,0,0
1558439669887006,1,0,-2,0,0,1,-2,-2
1558439669887968,2,3,4,4,7,-8,1,4
1558439669887968,1,0,0,-1,1,-3,2,2
1558439669899934,1,4,2,-1,1,2,0,2
1558439669899934,-5,-4,-5,-3,-4,0,-3,-5
1558439669908911,-3,-4,-1,-2,-2,6,0,0
1558439669908911,1,-1,-1,-1,-5,-6,-1,0
1558439669922873,-3,-1,0,-1,-7,-11,-8,-4
1558439669922873,-3,-5,-5,-2,-2,1,-4,-3
1558439669930851,-2,2,1,-1,0,0,1,0
1558439669930851,1,2,3,1,4,6,2,-1
1558439669937833,-3,0,-5,-1,-5,1,-2,-5
1558439669937833,-3,-3,2,0,1,5,3,-1
1558439669945813,-1,0,-1,-2,-1,-5,-4,-3
1558439669945813,-1,-1,-3,-1,-4,-12,0,5
1558439669959774,5,2,0,0,2,2,-1,2
1558439669959774,0,-1,-2,-2,-3,0,-2,1
1558439669968750,-4,-4,-3,-1,-4,0,1,-4
1558439669968750,-1,-2,0,1,-1,3,-2,-6
1558439669983134,-2,-4,-3,-3,-2,-3,-3,-3
1558439669983134,2,-1,-1,-2,-8,-12,-3,-2
1558439669990807,1,-1,-2,2,6,0,4,1
1558439669990807,-2,0,2,-1,4,6,1,0
1558439669998253,-3,-2,0,-2,-6,-4,-2,-2
1558439669998253,-2,-1,1,-1,2,-3,-3,-3
1558439670006765,-1,0,-2,-1,-3,3,0,1
1558439670006765,1,-2,-1,-1,-1,0,4,3
1558439670020042,-1,-3,-1,2,5,4,0,-5
1558439670020042,-2,-1,-2,-2,-7,-6,-5,-4
1558439670028837,-1,0,-2,-4,-7,0,-1,-1
1558439670028837,1,1,3,1,6,7,5,2
1558439670043003,1,-1,-1,-1,2,-5,1,2
1558439670043003,1,0,1,0,-1,-5,-1,-1
1558439670051645,2,-1,-3,-1,-5,-6,-6,-1
1558439670051645,-12,-7,-4,-2,-1,1,-2,-4
1558439670066680,0,3,4,0,-2,2,0,2
1558439670066680,-1,-1,1,1,7,1,5,2
1558439670067602,1,2,1,-3,-3,0,0,1
1558439670067602,2,1,-1,-2,-3,-7,-6,-4
1558439670079570,-1,-5,-4,-3,-5,-2,2,2
1558439670079570,-2,0,-1,0,0,0,-3,-6
1558439670088857,-1,0,3,1,2,3,0,1
1558439670088857,2,1,-3,-1,1,5,1,-2
1558439670102837,-2,-1,0,0,4,-3,2,3
1558439670102837,-2,-2,-3,-3,-11,-7,-6,-4
1558439670111485,-1,-4,-5,-1,-4,-5,-2,-2
1558439670111485,2,-1,1,-2,5,3,5,4
1558439670126789,0,0,1,-1,0,9,-1,1
1558439670126789,2,0,2,2,3,4,6,4
1558439670128440,-1,-1,-1,-4,-8,-14,-9,-4
1558439670128440,-11,-10,0,1,-2,-3,-1,-4
1558439670140407,-2,0,-4,0,-2,0,-5,-4
1558439670140407,-1,0,0,-1,5,4,4,3
1558439670148707,-2,-1,-2,0,4,13,4,0
1558439670148707,4,0,-2,-2,-9,-7,-3,1
1558439670162410,3,-1,1,0,-2,-3,5,3
1558439670162410,-2,-1,-1,-2,1,0,-5,-6
1558439670171460,-3,-1,1,0,2,2,3,-2
1558439670171460,0,-2,-4,-3,-1,-5,-7,-5
1558439670186569,-2,-2,-3,-2,-3,-4,0,3
1558439670186569,0,1,-4,-4,-9,-5,-4,-1
1558439670187284,-1,-2,1,1,3,7,3,1
1558439670187284,-2,0,-2,-3,-8,-7,-7,-5
1558439670200248,5,3,0,2,4,-5,3,2
1558439670200248,-7,-5,0,1,9,13,3,2
1558439670209224,-2,-2,-1,-4,-12,-11,-5,0
1558439670209224,-3,-2,0,0,-2,-3,-3,-8
1558439670222478,-1,-4,-1,-4,-5,-8,-10,-6
1558439670222478,3,0,-1,1,1,-3,3,2
1558439670231454,-3,-1,0,-1,4,9,3,1
1558439670231454,-1,0,-3,-2,-4,-1,-2,1
1558439670246153,0,2,-3,1,-2,-1,0,-1
1558439670246153,0,1,1,-1,3,1,1,-1
1558439670248118,-4,-2,-4,-3,-4,-1,-3,-6
1558439670248118,2,-2,-4,-2,-6,-7,-1,5
1558439670260383,-1,1,3,-1,6,-2,0,-1
1558439670260383,1,-3,-2,-1,-3,1,0,1
1558439670269065,-1,-1,-1,-1,0,-4,-4,-1
1558439670269065,-1,-3,-4,-2,-2,0,-5,-1
1558439670283071,-4,-1,-1,-2,-2,4,-3,-3
1558439670283071,0,1,0,0,4,-2,5,4
1558439670291361,0,-2,-1,1,-3,-4,-4,-5
1558439670291361,2,3,2,1,2,2,-1,-1
1558439670306311,2,-1,-2,-1,0,-1,-4,0
1558439670306311,-2,-1,0,1,-5,0,1,-4
1558439670307959,-3,-1,-1,-1,1,-1,-2,1
1558439670307959,0,-2,-2,-4,-10,-7,-5,-2
1558439670320326,-5,-7,-5,-3,-8,-10,-6,-8
1558439670320326,4,5,4,3,10,11,9,8
1558439670328905,-2,-1,0,0,2,-1,0,-6
1558439670328905,-4,-2,1,-2,-1,0,-1,-3
1558439670343223,-2,-3,-5,0,-4,7,2,0
1558439670343223,-2,-2,2,-1,-2,2,2,3
1558439670350845,1,-2,0,-2,3,-9,1,4
1558439670350845,-2,-3,-4,-2,-1,-5,-3,-2
1558439670366805,-3,-2,0,-2,-7,-2,-5,-6
1558439670366805,-3,-1,-2,-3,-3,-1,-4,-4
1558439670367800,0,-1,0,2,2,-10,-3,-1
1558439670367800,2,2,3,1,6,9,13,3
1558439670380130,-2,-3,2,-1,-2,-5,-3,-5
1558439670380130,-1,-4,-5,-4,-1,5,-3,-4
1558439670388782,1,-1,-2,0,-5,4,-1,-1
1558439670388782,2,1,0,-4,-3,-9,-6,2
1558439670403038,-7,-3,-1,2,6,8,4,0
1558439670403038,0,-1,1,-2,-7,-12,-6,-3
1558439670411683,0,0,-2,-3,-3,0,-3,-2
1558439670411683,1,0,2,0,5,6,5,-1
1558439670426641,4,4,2,1,7,6,5,5
1558439670426641,-2,-1,-3,4,-1,-4,-5,-3
1558439670427680,-2,-2,-1,-2,1,-1,0,-1
1558439670427680,-1,2,-1,-1,-1,0,-2,0
1558439670439608,0,0,0,-1,-2,-3,-1,0
1558439670439608,-1,-2,-2,-4,-7,-7,-3,-1
1558439670448873,-2,0,-2,1,1,5,-2,1
1558439670448873,-2,-2,-1,0,-1,2,-1,-3
1558439670462827,-1,0,-2,-2,-1,-9,-2,-1
1558439670462827,0,0,0,0,0,3,0,-3
1558439670471521,-1,-1,-3,-2,-4,2,4,0
1558439670471521,-3,-4,-2,-1,-1,-4,-3,-3
1558439670486483,-1,-2,-4,-4,-6,-5,-7,0
1558439670486483,-1,-1,0,-3,-4,-1,-5,-5
1558439670487517,1,-2,-1,-1,1,2,1,0
1558439670487517,1,5,7,4,16,2,14,5
1558439670499799,2,-1,0,-2,-7,-4,-4,2
1558439670499799,-7,-2,-2,2,7,0,1,-1
1558439670508424,-3,-4,-3,-3,-6,1,-6,-10
1558439670508424,-2,-2,-3,-4,-10,-5,-9,-3
1558439670522386,0,-3,-3,0,-1,-2,2,0
1558439670522386,3,-1,0,-1,0,7,4,1
1558439670531501,-3,-1,0,-3,-8,-9,-6,-1
1558439670531501,1,0,-2,0,0,-5,4,1
1558439670546753,0,4,4,2,8,9,7,3
1558439670546753,-2,-1,-1,-2,-1,-8,-4,-1
1558439670548562,1,-1,0,1,2,1,3,5
1558439670548562,-1,-2,-1,0,-5,4,-5,-5
1558439670560712,-2,0,-3,-4,-8,-4,-6,-2
1558439670560712,-2,-2,-3,-1,3,-3,1,-2
1558439670568274,-2,0,2,0,2,1,0,-1
1558439670568274,-1,-2,-4,-1,-1,-2,-3,3
1558439670582669,1,-2,0,1,6,2,5,2
1558439670582669,0,1,1,-1,-3,-4,-5,-1
1558439670591628,1,1,-1,-1,-2,-3,0,-1
1558439670591628,-3,-3,-2,-3,-5,-1,-6,-7
1558439670606598,-1,-1,-3,-2,-4,-1,0,-4
1558439670606598,0,-1,-1,0,-1,-1,-3,-2
1558439670607161,-1,-3,-2,-3,-2,-3,-3,-2
1558439670607161,-1,-1,1,0,0,2,2,1
1558439670629100,1,1,0,0,4,0,3,5
1558439670629100,-5,-3,-2,0,-1,-3,-6,-9
1558439670630099,1,-2,0,0,-1,-1,2,1
1558439670630099,-6,-3,-5,-1,-6,-5,-4,-10
1558439670642064,-1,-1,-3,-3,-6,-3,-4,1
1558439670642064,2,0,-1,-1,0,1,-1,3
1558439670651041,1,-1,0,1,7,-1,4,0
1558439670651041,2,4,2,3,12,9,8,4
1558439670666002,0,0,0,-2,-6,-8,-6,-5
1558439670666002,0,0,0,-1,-7,-8,-3,1
1558439670667996,-2,-2,-3,-2,0,5,-1,-2
1558439670667996,-1,2,1,-2,-3,-2,-1,3
1558439670679968,-1,-1,-1,0,0,6,4,1
1558439670679968,1,-2,-4,-1,-3,-3,-4,-3
1558439670688940,1,0,0,0,-6,-9,-8,-4
1558439670688940,-2,-6,-3,-4,-3,1,-2,-4
1558439670701942,-2,-1,-1,-2,-3,-5,-6,-3
1558439670701942,4,1,0,-1,4,-1,10,12
1558439670710923,-2,1,1,2,-1,-7,-2,-6
1558439670710923,-3,0,-1,-2,1,8,-2,-3
1558439670725840,-2,-3,-2,2,-3,-6,-1,-4
1558439670725840,-4,-3,-1,-4,-5,0,-5,-3
1558439670727835,2,0,-1,-1,-1,-1,6,5
1558439670727835,1,0,-1,-1,0,-6,-5,-1
1558439670739802,-2,-1,1,0,-2,-1,-5,-4
1558439670739802,-1,-2,-2,-2,-1,-3,-1,-2
1558439670748780,-2,-2,-2,0,7,7,2,1
1558439670748780,0,-2,-1,-1,-2,-2,-1,1
1558439670762742,-1,-4,-4,-1,3,5,2,1
1558439670762742,-1,-2,-3,-2,-2,-3,-1,-3
1558439670771717,-1,-1,-3,-3,-6,-7,-8,0
1558439670771717,-2,0,-1,0,-1,-6,-1,0
1558439670785682,-1,2,2,0,2,0,-2,-3
1558439670785682,-10,-5,-3,-2,-3,2,2,1
1558439670792661,0,-2,-2,-3,-10,0,-6,-5
1558439670792661,-2,-2,-2,-1,-3,3,1,-1
1558439670799642,3,2,-1,0,6,-2,6,2
1558439670799642,3,-1,1,0,6,5,2,-1
1558439670808619,0,0,-2,-2,-2,0,0,2
1558439670808619,2,-1,-1,-1,3,4,0,0
1558439670822617,-2,0,-2,-2,-6,-1,-5,-2
1558439670822617,-2,1,-1,-1,-1,2,2,0
1558439670831592,-2,-2,-1,-1,0,-8,-1,-2
1558439670831592,1,0,0,2,-3,-10,-7,-1
1558439670845520,0,-2,0,1,-1,-3,-3,0
1558439670845520,3,0,0,1,9,17,7,2
1558439670852501,1,-1,0,-2,-3,4,0,-1
1558439670852501,-3,0,-1,-1,-2,-2,0,0
1558439670859483,-2,-2,-1,-3,-1,0,0,0
1558439670859483,-1,0,-2,-4,-10,-15,-11,-5
1558439670868460,-3,-3,-1,0,-2,2,0,-3
1558439670868460,-2,-2,1,-1,-1,-1,2,1
1558439670882422,-2,-3,-4,-1,-2,-4,-2,-4
1558439670882422,3,1,0,0,0,0,3,4
1558439670891397,-1,0,0,-1,5,1,0,1
1558439670891397,0,-1,-3,-4,1,5,1,0
1558439670905394,4,2,1,0,-3,-5,-2,-2
1558439670905394,0,-1,0,2,-1,-3,-4,-2
1558439670912378,-2,1,1,-1,2,-2,-4,-1
1558439670912378,0,-2,-4,-2,2,4,3,1
1558439670920323,-3,-1,2,0,5,-5,-3,-2
1558439670920323,3,1,1,-1,-2,1,-4,-1
1558439670928298,-1,-2,-3,-2,-5,-4,-2,3
1558439670928298,-4,-4,-1,-2,-12,-7,-9,-8
1558439670942263,-3,1,0,-2,2,6,4,-1
1558439670942263,-2,0,0,0,4,2,1,-2
1558439670951237,-1,0,0,0,0,1,-1,-2
1558439670951237,4,-1,0,0,1,2,7,5
1558439670965201,-4,-7,-5,-2,-5,0,-4,-7
1558439670965201,-4,-1,-1,-3,-7,-8,-5,-2
1558439670972181,-4,-2,-4,-1,-6,-4,-2,-4
1558439670972181,4,3,1,2,7,-8,-1,4
1558439670980159,1,1,3,2,15,12,5,3
1558439670980159,-2,-4,-5,-3,-1,4,-2,-3
1558439670989138,-1,0,-1,-2,-3,-5,0,-1
1558439670989138,-2,-1,-3,-1,-5,-2,-1,-3
1558439671002102,-3,-1,-4,-2,-12,-8,-7,-4
1558439671002102,-1,-2,-2,-1,-5,-2,-1,-3
1558439671011077,-1,0,0,-3,0,-2,-3,0
1558439671011077,2,1,5,2,10,-5,2,2
1558439671026037,0,-4,-3,-1,-3,2,0,2
1558439671026037,4,1,-2,-3,-2,0,4,8
1558439671032021,-11,-6,2,1,1,-1,-3,-7
1558439671032021,-2,-4,-4,1,4,3,1,-2
1558439671048975,0,2,1,-1,1,-2,-1,-1
1558439671048975,-2,-2,-1,-3,-9,-8,-8,-4
1558439671049974,2,1,-5,-4,-6,0,0,1
1558439671049974,0,-2,1,0,3,4,0,3
1558439671061941,1,-1,2,-1,1,-1,2,1
1558439671061941,1,-2,-1,0,2,2,-1,-2
1558439671070945,2,0,-1,0,-2,1,-1,-2
1558439671070945,-3,-2,-3,-2,-3,3,-2,-3
1558439671085878,2,-1,-1,0,5,0,4,4
1558439671085878,-3,-1,-2,-2,-2,-4,-7,-3
1558439671091862,-1,0,1,1,3,7,5,2
1558439671091862,-5,-4,-4,-4,-9,-10,-6,-5
1558439671108854,-2,-3,-2,-2,-5,-3,-1,0
1558439671108854,-2,0,-1,1,-1,0,0,-4
1558439671109848,1,0,-1,-1,0,-4,-1,-1
1558439671109848,-1,-2,-4,-3,-7,2,-2,0
1558439671122779,-1,0,1,0,0,-2,-3,0
1558439671122779,0,-1,1,-1,4,2,3,0
1558439671130757,2,-3,-4,-3,-2,-3,-4,-3
1558439671130757,-2,0,-2,-2,-8,-2,-1,-1
1558439671145759,-3,-2,-3,-3,-3,-1,-3,-2
1558439671145759,-2,-1,0,0,3,5,6,1
1558439671152733,0,-1,0,0,3,5,1,1
1558439671152733,2,-1,1,2,7,-4,4,2
1558439671168657,-3,-1,-1,-2,-9,-6,-7,-7
1558439671168657,-3,-1,0,-3,-5,-4,-2,0
1558439671169654,0,3,2,0,3,3,5,5
1558439671169654,-1,-2,-4,-4,-9,-1,-5,1
1558439671182660,2,0,-3,-3,-8,-5,-6,-9
1558439671182660,-5,-4,-1,1,7,-2,1,-3
1558439671191636,2,-1,-1,-1,0,2,0,3
1558439671191636,-1,4,0,0,2,-4,-2,-2
1558439671205591,-1,-1,-2,-2,2,7,6,7
1558439671205591,0,-1,-2,-2,-10,-9,-8,-9
1558439671212538,-2,-3,-3,-1,-3,-6,-3,-2
1558439671212538,-3,-3,-3,-2,-4,-3,-4,-4
1558439671228495,1,2,0,-1,-3,-2,7,5
1558439671228495,3,1,-1,1,10,8,4,3
1558439671230490,-2,0,0,0,2,1,2,2
1558439671230490,2,2,1,0,0,4,0,-3
1558439671242459,-3,-4,-4,-2,-3,-5,-5,-5
1558439671242459,-1,1,0,-3,0,-4,0,1
1558439671251435,-2,-2,-2,0,-2,1,0,-2
1558439671251435,-1,-2,1,-1,-2,2,0,-4
1558439671265397,-4,-3,0,-2,0,5,1,-2
1558439671265397,-2,0,1,-1,-4,-5,-5,0
1558439671272379,1,0,-2,-2,-2,-9,-1,1
1558439671272379,0,-1,-3,0,3,2,2,1
1558439671288337,0,-3,-2,1,3,5,2,6
1558439671288337,3,2,3,0,1,-1,2,0
1558439671290333,-1,1,2,1,3,10,0,-3
1558439671290333,-3,-5,0,-5,-9,-7,-2,-1
1558439671302300,0,-1,-1,1,0,1,-3,-2
1558439671302300,-1,-2,-1,0,-8,-4,-3,-2
1558439671311273,-2,1,-1,-4,-2,-4,5,6
1558439671311273,1,2,1,3,6,0,2,-4
1558439671325237,-2,-1,-2,-1,-1,0,-3,-3
1558439671325237,-2,-2,-2,0,6,7,4,0
1558439671333215,-2,-2,-1,-2,-6,-8,-7,-7
1558439671333215,-1,-3,-4,-2,-5,-1,-2,3
1558439671348175,-3,1,1,1,4,5,3,1
1558439671348175,-1,-1,-2,-3,-11,-7,-9,-6
1558439671350171,-1,-1,-1,-1,1,0,3,-1
1558439671350171,-1,1,2,1,14,15,7,5
1558439671362139,3,2,3,1,-1,-19,-7,-3
1558439671362139,-2,-2,-3,-3,-7,-3,-1,-1
1558439671371114,1,0,-1,0,-2,2,-1,1
1558439671371114,0,1,-1,-2,-3,0,1,-3
1558439671385076,-2,1,-2,-3,-5,1,1,-3
1558439671385076,-3,-3,-2,-3,1,-1,-1,1
1558439671394055,-2,-3,0,-3,-8,-8,-8,-4
1558439671394055,0,-3,-2,-1,-2,-2,-3,0
1558439671409049,1,0,-1,2,8,3,3,4
1558439671409049,0,0,0,-1,-2,-3,0,5
1558439671410010,-2,-2,-3,-1,2,5,0,-5
1558439671410010,1,2,2,-1,-5,-4,-4,-2
1558439671421977,-14,-12,-3,-2,-11,-2,-9,-10
1558439671421977,-1,-1,-2,-1,-2,3,0,1
1558439671430954,-2,-4,-3,-2,-6,-2,-5,-4
1558439671430954,1,2,2,2,9,-4,7,9
1558439671444916,4,3,3,1,12,-2,4,3
1558439671444916,-2,-2,-4,-1,0,2,1,2
1558439671453896,-4,0,-1,-1,-2,3,1,-2
1558439671453896,-3,-4,-7,-3,-10,-1,-6,-5
1558439671468855,1,-2,-3,-4,-7,-2,-2,-2
1558439671468855,0,0,2,1,1,-10,-3,-1
1558439671469852,2,1,0,-1,-3,-1,-4,-3
1558439671469852,-3,-3,-3,-6,-15,-5,-9,-8
1558439671483234,0,-3,-3,-2,-3,-1,2,1
1558439671483234,2,-2,2,6,16,4,8,5
1558439671490795,-2,-1,1,0,4,2,4,3
1558439671490795,-1,0,-1,-1,3,1,0,-2
1558439671505857,0,-1,-1,-2,-9,2,-5,-5
1558439671505857,-3,-3,-4,-5,-13,-6,-7,-7
1558439671513973,0,-1,-1,-2,2,-1,4,2
1558439671513973,-1,1,2,0,2,1,1,0
1558439671529022,-1,-1,-2,0,-1,3,-1,0
1558439671529022,0,0,-1,0,6,-7,4,3
1558439671530916,-1,-1,2,0,2,3,1,0
1558439671530916,-5,-2,-2,2,-5,-5,-7,-7
1558439671542719,-3,-1,-1,0,-2,-5,-3,-4
1558439671542719,-5,-3,-4,-4,-10,2,-4,-8
1558439671551632,1,-4,-3,0,-2,-2,-1,1
1558439671551632,2,-1,2,0,4,3,5,7
1558439671564674,0,3,1,0,5,6,7,2
1558439671564674,-1,-1,-4,-2,-6,-3,-4,1
1558439671573572,1,3,1,2,6,7,6,-1
1558439671573572,2,-1,-3,-2,-3,-9,-5,-4
1558439671588532,-14,-10,-5,-2,-3,-4,-2,-3
1558439671588532,0,-2,0,-1,0,2,0,-2
1558439671590527,1,0,1,0,2,-6,-1,2
1558439671590527,-2,-2,0,0,-2,5,-3,-2
1558439671602495,1,1,-1,-4,-4,-4,-5,-1
1558439671602495,0,0,0,0,-1,11,3,-3
1558439671611475,-2,-3,0,1,1,0,-1,-2
1558439671611475,-3,-3,-3,-3,0,-4,-3,-4
1558439671624541,1,-2,-4,-3,-7,-7,-5,-2
1558439671624541,1,0,0,2,4,-2,4,3
1558439671633412,-2,-1,-3,-3,-8,-10,-8,-4
1558439671633412,-2,-3,-2,-2,0,0,1,2
1558439671648387,1,-1,1,0,5,6,5,-2
1558439671648387,-3,-1,-1,0,-3,2,-4,-4
1558439671654390,-1,-1,-1,2,1,1,1,2
1558439671654390,-3,-3,-4,-4,-14,-12,-6,-1
1558439671662334,1,0,0,-2,-2,-8,-6,0
1558439671662334,1,0,-1,-3,-3,-1,2,0
1558439671671311,-1,2,2,0,1,-5,-1,-3
1558439671671311,-3,-2,-2,0,-1,1,-2,-4
1558439671684312,2,-1,-3,-1,-3,0,0,1
1558439671684312,-1,-1,1,0,5,3,5,4
1558439671693281,-3,0,-3,-2,-9,-6,-11,-6
1558439671693281,-1,0,0,1,6,3,1,-1
1558439671708213,0,1,2,-1,-2,-8,-3,1
1558439671708213,-2,-2,-1,-4,-9,-11,-10,-5
1558439671710209,-2,-4,-2,-1,8,10,3,0
1558439671710209,-1,-1,-1,-2,0,2,0,-2
1558439671722204,0,0,-1,2,3,8,7,2
1558439671722204,0,-1,1,1,-1,-6,0,2
1558439671731152,-1,0,-1,-3,-5,-3,-4,0
1558439671731152,-3,-2,-2,1,-4,5,-2,-2
1558439671745115,0,3,0,0,-1,-1,4,0
1558439671745115,0,1,0,0,-1,-10,-7,-1
1558439671754090,1,-3,-1,-1,1,-7,-1,3
1558439671754090,2,2,1,-1,5,-3,1,-3
1558439671768059,-9,-6,0,-1,-1,1,-2,-1
1558439671768059,-2,-1,-1,-1,-1,6,-1,-6
1558439671775035,0,-1,0,-1,-8,0,-4,-2
1558439671775035,-1,1,-1,-2,-3,5,0,-1
1558439671782016,3,1,0,0,4,-2,2,-1
1558439671782016,-2,-2,0,2,5,3,7,1
1558439671790992,-2,-1,1,0,0,-6,-3,-1
1558439671790992,-1,-3,1,0,4,1,3,1
1558439671804953,1,-2,-2,-2,-3,3,0,1
1558439671804953,-2,-2,-3,-2,-2,-1,-2,0
1558439671813963,-2,0,-2,-2,-2,-4,1,-1
1558439671813963,-1,1,1,1,3,-1,-2,1
1558439671827892,0,-4,-3,-1,-4,-5,-5,-4
1558439671827892,1,-1,-2,-3,-4,0,-4,-3
1558439671837157,0,-1,-3,-2,-1,-1,5,2
1558439671837157,-4,-3,-5,-3,-12,-13,-11,-11
1558439671841874,0,1,-1,0,1,-8,-4,-3
1558439671841874,2,0,-1,0,3,-2,-3,-2
1558439671850833,-2,-1,-2,-1,2,11,1,0
1558439671850833,-1,-2,1,0,4,6,5,5
1558439671864794,-1,-1,-2,-1,0,12,7,1
1558439671864794,-1,-1,-2,-2,-7,-10,-10,-4
1558439671873771,-3,-2,-1,-2,-7,-16,-10,-3
1558439671873771,1,-4,-4,-3,1,-2,0,-3
1558439671887733,-3,-2,-3,-4,-5,-5,-7,-5
1558439671887733,-4,-4,0,1,4,1,2,-2
1558439671902692,1,1,1,-1,-3,0,-1,0
1558439671902692,0,0,2,0,1,1,3,3
1558439671903691,2,-1,-2,1,2,-4,1,2
1558439671903691,-5,-3,-4,-3,-8,-2,-7,-4
1558439671910861,-2,-3,-3,-3,-6,2,-5,-5
1558439671910861,3,1,3,2,3,0,6,5
1558439671924634,4,6,2,-1,-1,-11,-4,3
1558439671924634,-7,-5,1,-1,-1,7,0,-1
1558439671933610,-3,-1,0,-1,4,4,1,-5
1558439671933610,-2,-1,-1,-2,-10,-13,-7,-3
1558439671956577,4,0,2,1,12,11,4,1
1558439671956577,1,1,0,-2,-2,-2,2,3
1558439671957548,-2,-1,-2,-2,-2,-9,0,-1
1558439671957548,-4,-2,-3,-4,-2,0,4,0
1558439671971538,-1,0,1,0,6,7,4,1
1558439671971538,1,1,-2,-2,-5,-3,-4,-5
1558439671972509,-3,-3,-4,-3,-4,-1,-2,-3
1558439671972509,0,-1,-4,-2,-1,-1,-2,3
1558439671984474,-3,-1,0,-1,-2,-2,1,1
1558439671984474,2,2,4,3,5,4,2,4
1558439671993466,1,1,-1,0,-2,-9,0,5
1558439671993466,-4,0,-2,-2,1,2,-7,-12
1558439672008441,-5,-4,-3,-3,-9,-3,-6,-4
1558439672008441,-1,-1,-1,-2,1,-1,1,-2
1558439672014428,2,-1,0,1,4,9,5,0
1558439672014428,0,-2,-2,-2,1,2,-2,5
1558439672031382,-3,0,-2,-2,-9,-14,-7,-6
1558439672031382,0,1,0,1,4,3,8,1
1558439672032381,1,0,-1,3,0,-2,0,1
1558439672032381,3,1,1,2,8,11,9,6
1558439672044347,-2,-2,-1,-3,-3,-4,-5,-5
1558439672044347,-3,-1,-3,-4,-4,-2,-5,-4
1558439672061268,0,-3,-1,-1,2,8,3,-1
1558439672061268,-1,-2,-2,-1,-10,-8,-10,-5
1558439672068250,3,2,1,-3,0,-6,0,3
1558439672068250,-1,-2,-1,-2,4,6,3,3
1558439672075231,-2,-1,-1,-1,0,-1,-1,-1
1558439672075231,2,-1,0,0,0,-3,1,0
1558439672091191,-3,-5,-3,-2,-4,3,-1,-3
1558439672091191,-1,-4,-2,-1,-4,-10,-4,-2
1558439672092221,-2,-1,-2,-4,-9,-10,-8,-5
1558439672092221,-1,-1,0,0,6,12,8,2
1558439672105151,0,2,1,1,6,-2,4,2
1558439672105151,-2,0,1,0,-1,0,-1,0
1558439672114148,-2,-1,-1,-1,-1,0,2,0
1558439672114148,-3,2,-1,-1,-4,-4,-4,-4
1558439672128089,-1,-4,-3,-2,-3,6,-1,-2
1558439672128089,1,0,-1,-3,-5,2,-1,-2
1558439672135071,-2,-1,0,-2,0,-7,-8,-3
1558439672135071,-1,1,4,3,7,2,1,2
1558439672151030,0,0,-2,-1,2,0,1,-1
1558439672151030,-1,-2,-2,-1,1,-2,-2,-2
1558439672153058,-2,-2,0,-1,-8,-2,0,-4
1558439672153058,-1,0,-2,-2,-6,-15,-5,-1
1558439672165187,-2,-2,0,1,3,5,5,3
1558439672165187,1,-1,-1,-1,-4,-7,-3,-1
1558439672173967,-2,-4,-2,-1,2,4,3,1
1558439672173967,2,-2,-1,-3,-7,-11,-9,-3
1558439672188009,0,1,0,0,-1,0,-1,-2
1558439672188009,-6,-5,-1,0,-1,2,1,-3
1558439672194922,0,-1,-2,-2,1,3,1,0
1558439672194922,-5,-4,-4,-2,-3,4,2,-3
1558439672210868,4,1,3,0,3,-3,2,5
1558439672210868,-1,0,-3,-2,2,-1,-8,-8
1558439672212865,-2,1,0,-2,-1,-1,-4,-3
1558439672212865,-1,-1,-2,-1,-1,-4,3,1
1558439672224833,-2,-1,-1,-1,-1,0,-4,-4
1558439672224833,0,-3,-2,0,-3,3,5,2
1558439672233807,-1,0,-2,-2,-2,-5,1,1
1558439672233807,1,2,-1,-2,1,-5,-2,-1
1558439672247771,-2,-3,-2,-3,1,3,-1,1
1558439672247771,0,0,-1,1,3,-1,1,1
1558439672254962,0,0,0,0,2,1,-3,0
1558439672254962,-2,-3,-2,-3,-5,-3,-3,-3
1558439672270737,-5,-5,-2,0,-9,-7,-8,-6
1558439672270737,-4,-2,-5,-3,-7,-4,-5,-3
1558439672272705,2,0,1,2,11,13,10,4
1558439672272705,-2,0,-1,0,1,0,0,0
1558439672284671,-2,-1,-2,-3,-1,-3,-1,-2
1558439672284671,1,0,-3,-1,-4,-1,-2,0
1558439672293648,0,-1,-1,-2,-3,-5,-4,-1
1558439672293648,1,0,-4,-2,-2,7,-1,-2
1558439672307611,0,1,-1,3,1,-8,-2,2
1558439672307611,-2,1,-1,0,6,9,8,4
1558439672314663,-1,-2,-1,1,4,1,1,-1
1558439672314663,-2,-3,1,-1,-8,-2,-3,-1
1558439672331546,0,-3,-3,-3,-11,-9,-9,-5
1558439672331546,2,1,0,-2,-4,-11,-3,0
1558439672332543,2,0,1,2,7,2,5,2
1558439672332543,-3,-2,-1,-1,0,5,-3,-3
1558439672344552,0,0,3,0,-3,1,1,-1
1558439672344552,0,-2,-1,-2,1,0,-6,-1
1558439672353487,-2,-2,-3,-2,-2,-5,0,-2
1558439672353487,-2,0,-1,1,5,8,3,3
1558439672367451,-3,-2,-5,-2,-3,4,-7,-5
1558439672367451,0,-2,0,1,-2,-4,3,-1
1558439672374460,0,0,-3,-3,-2,-13,-4,0
1558439672374460,3,1,0,1,4,8,7,1
1558439672391416,-9,-8,-5,-4,-10,-9,-10,-7
1558439672391416,1,-2,1,3,8,9,6,3
1558439672392382,-3,0,1,-1,-3,-1,-4,-3
1558439672392382,-2,-3,-3,-3,-6,-9,-6,-3
1558439672404352,2,1,-1,0,-2,3,4,2
1558439672404352,-3,0,0,0,5,7,7,2
1558439672413360,-1,1,3,0,1,11,1,-1
1558439672413360,0,0,-2,-1,1,-8,-7,-3
1558439672428323,1,0,1,0,0,0,3,0
1558439672428323,-1,-3,0,-3,-6,-8,-2,-3
1558439672435271,-2,-2,-2,-4,-6,-2,-4,-3
1558439672435271,-1,0,0,-1,1,-6,1,0
1558439672451227,0,-2,-3,-3,5,3,0,2
1558439672451227,-1,-2,-1,-1,0,-4,-4,0
1558439672452225,-2,-1,-2,0,-3,4,-2,-3
1558439672452225,-4,-3,-5,-4,-5,0,-3,-6
1558439672465188,-1,-1,-2,-3,-9,-9,-4,-3
1558439672465188,3,4,2,2,4,3,3,2
1558439672474198,0,-3,-1,-3,2,7,-1,-3
1558439672474198,-2,-1,0,1,1,2,0,3
1558439672488157,1,4,0,1,5,2,0,2
1558439672488157,-1,0,-2,-3,-7,-8,-5,-2
1558439672495143,-2,-1,-3,0,-3,-1,-1,-2
1558439672495143,0,2,0,0,0,2,1,1
1558439672511066,1,-2,-2,0,0,-5,0,0
1558439672511066,-3,-3,-2,-5,-13,-9,-9,-5
1558439672517053,-2,-2,0,-1,4,0,0,0
1558439672517053,1,1,1,0,3,-4,3,1
1558439672525058,-2,-1,-2,-4,-8,-4,-2,-4
1558439672525058,-1,0,1,2,6,4,7,2
1558439672534005,2,1,2,0,4,1,5,8
1558439672534005,-2,-2,-1,0,-3,-4,-3,-3
1558439672555948,1,-1,2,-1,2,6,0,0
1558439672555948,-3,-1,-1,-3,-6,0,-5,-3
1558439672557942,-1,-3,-4,-1,-6,-9,-6,-4
1558439672557942,-1,-2,1,-1,2,-1,-1,-4
1558439672570970,0,-2,-1,-2,1,4,4,2
1558439672570970,-1,1,3,1,-2,-8,-1,0
1558439672572928,-5,-1,-4,-3,-11,-3,-9,-5
1558439672572928,2,2,2,2,12,2,9,5
1558439672584870,4,5,4,3,3,3,0,-3
1558439672584870,-3,-3,-5,-3,-6,-1,-8,-5
1558439672593845,0,-4,-1,-2,-3,-3,-1,3
1558439672593845,-4,-4,-5,-3,-3,3,-2,-1
1558439672607865,-5,-4,-4,-2,-4,4,-2,-4
1558439672607865,4,2,3,2,6,3,7,8
1558439672614858,-2,-1,-1,1,2,1,-2,-10
1558439672614858,-1,0,1,-1,-1,-3,-4,-2
1558439672630781,-2,-1,-2,-1,-1,-6,-4,0
1558439672630781,-1,-2,-3,-3,-2,1,-2,0
1558439672632741,2,0,-3,-1,0,-3,8,6
1558439672632741,0,-2,-1,1,0,5,0,-3
1558439672644743,-3,-1,-2,-2,-2,-2,-2,-2
1558439672644743,-3,-4,-4,-3,-11,-9,-13,-11
1558439672653686,0,1,0,0,2,-4,7,8
1558439672653686,0,0,0,-3,2,3,1,4
1558439672667648,-2,-3,-4,-1,-6,-12,-7,-2
1558439672667648,0,-1,-4,0,1,4,1,-2
1558439672674629,-2,1,-2,-5,-2,5,4,4
1558439672674629,-2,-2,1,3,3,8,1,-3
1558439672690615,-2,0,-1,-3,-4,-9,-6,2
1558439672690615,-1,1,-2,-1,-1,-6,-6,-4
1558439672697601,3,-2,-2,2,5,8,3,1
1558439672697601,-2,-2,-1,-4,-8,-11,-4,-1
1558439672704577,-1,-2,2,1,3,8,4,0
1558439672704577,1,1,-1,-1,-2,-6,-2,1
1558439672713525,-3,-1,-2,-1,-7,-6,-7,-2
1558439672713525,1,1,0,0,-2,-4,2,1
1558439672727517,1,0,1,1,4,3,1,-1
1558439672727517,-1,1,-2,-3,-3,-5,-6,-4
1558439672734468,0,-1,-2,-2,-7,-3,-8,-4
1558439672734468,-5,-7,-4,-2,-5,0,-2,-4
1558439672750425,3,3,3,2,10,1,9,6
1558439672750425,-1,-1,1,0,1,3,9,5
1558439672757442,-1,1,1,-1,0,-3,-9,-10
1558439672757442,0,0,-3,-5,-7,-9,-4,-1
1558439672765421,-4,-4,-2,-3,-4,-4,-4,-5
1558439672765421,-1,-2,1,4,6,14,5,4
1558439672773566,-2,2,0,0,-2,-3,0,0
1558439672773566,-2,1,-3,-3,-5,-3,-3,-1
1558439672788519,-1,-2,-3,0,-1,-4,-4,-3
1558439672788519,-1,1,2,0,3,5,6,0
1558439672795399,-2,-5,0,-2,-1,-2,-1,3
1558439672795399,-1,-2,-2,1,-3,2,-5,-3
1558439672810461,2,0,-2,1,-2,5,3,3
1558439672810461,-1,-1,0,0,5,-5,0,0
1558439672817248,0,0,2,0,1,-8,-3,-1
1558439672817248,2,3,1,0,3,4,3,5
1558439672825253,-3,-3,-3,-3,-3,5,-2,-10
1558439672825253,-3,-2,-3,-2,-9,-2,-3,-5
1558439672834201,-1,-1,0,-1,11,14,9,4
1558439672834201,1,0,2,0,3,-10,-1,4
1558439672848193,1,-1,-3,-3,-8,-13,-8,-3
1558439672848193,1,0,0,-1,5,9,8,5
1558439672855174,-7,-5,-2,-1,-6,-6,-7,-4
1558439672855174,-3,-2,-3,-3,-3,4,2,-1
1558439672870135,-2,0,-1,0,4,7,4,0
1558439672870135,1,-1,-3,-5,-15,-16,-12,-4
1558439672877115,1,0,0,-2,0,4,1,-2
1558439672877115,-2,-2,-2,-1,1,-5,0,-2
1558439672894078,1,-1,-1,-1,-4,-5,1,7
1558439672894078,-3,-1,-1,-1,3,13,4,-3
1558439672895040,-1,-2,-2,-2,0,-3,-5,-3
1558439672895040,-3,-1,-1,0,-2,-5,-8,-2
1558439672908034,-1,0,-2,-2,-1,6,4,0
1558439672908034,-2,-1,0,1,2,-10,-5,0
1558439672915022,-2,1,0,0,-1,3,1,-2
1558439672915022,-2,-2,1,-2,-8,-6,-3,-4
1558439672929947,0,-2,-2,-1,-3,-5,-9,-6
1558439672929947,2,0,0,-2,0,-1,0,0
1558439672936926,-11,-9,-2,-1,0,4,1,-3
1558439672936926,1,2,1,1,6,4,5,1
1558439672953880,-2,1,0,-1,3,5,5,4
1558439672953880,-2,-4,-5,-3,-8,-4,-4,-6
1558439672954878,-2,0,-5,-5,-13,-14,-8,-3
1558439672954878,2,-2,-1,1,11,13,8,3
1558439672967847,1,-1,0,1,2,-2,1,0
1558439672967847,-1,-2,-3,0,3,7,3,0
1558439672974879,2,0,-3,-2,-5,-6,-2,-1
1558439672974879,-5,-3,-4,-3,-9,-1,-7,-10
1558439672990831,-1,0,-1,0,-1,-9,-7,-4
1558439672990831,-2,0,1,-1,3,-2,-2,0
1558439672997763,-2,-2,0,-1,-5,-4,-1,-2
1558439672997763,0,-1,-3,-3,-6,-3,0,4
1558439673013776,-2,-2,-1,0,-3,-5,-1,-3
1558439673013776,-2,-1,-3,-3,0,-3,-1,0
1558439673014719,3,0,-1,0,4,1,-2,-2
1558439673014719,-5,-4,0,1,3,5,-3,-3
1558439673027738,-4,-1,-1,-3,-3,3,-1,0
1558439673027738,-3,-5,-4,-4,-9,-9,-7,-5
1558439673034695,2,0,-1,1,10,10,8,4
1558439673034695,1,-1,-1,-2,-5,-17,-5,2
1558439673050622,-3,0,-2,-1,0,2,1,-3
1558439673050622,-3,-1,0,-1,1,3,0,0
1558439673057602,1,0,-1,0,-1,4,0,2
1558439673057602,1,1,-1,-1,2,1,4,3
1558439673073595,-3,-5,-3,-1,-3,1,0,-4
1558439673073595,1,2,2,0,1,2,4,2
1558439673074592,-4,1,0,1,4,5,-3,-4
1558439673074592,1,1,1,-1,0,-2,-4,-1
1558439673087522,0,0,1,-3,-3,-12,-5,0
1558439673087522,-2,-1,-2,0,-1,-5,-2,-3
1558439673094503,1,-2,-1,-1,-1,6,1,-1
1558439673094503,-1,0,1,1,1,3,2,-8
1558439673110528,0,-1,0,1,2,2,5,6
1558439673110528,2,-1,-5,-1,-6,-6,-5,-4
1558439673117449,-11,-6,-2,-2,1,2,4,2
1558439673117449,1,-2,-4,-2,-6,-5,-10,-4
1558439673133401,-1,-4,-1,-1,-1,4,3,0
1558439673133401,0,-1,0,0,3,4,2,-2
1558439673135396,4,3,0,0,-3,-13,-6,1
1558439673135396,-2,-2,-2,-2,-1,5,-2,-4
1558439673147365,3,0,2,0,-1,-5,-1,8
1558439673147365,-4,-2,0,1,5,5,2,-7
1558439673156340,0,2,-1,0,1,0,3,-1
1558439673156340,-3,-2,-2,-2,-4,3,0,-3
1558439673170303,0,0,-2,-2,-1,-13,-8,-3
1558439673170303,1,0,1,0,0,1,5,5
1558439673177284,-2,-2,-2,0,-7,-2,0,-5
1558439673177284,-3,-1,0,-2,-2,-4,-1,-3
1558439673193241,2,-1,-3,1,7,8,8,6
1558439673193241,-2,0,2,3,6,4,1,1
1558439673195236,0,0,-1,-2,-4,3,-3,-4
1558439673195236,2,-1,-5,-3,-8,-7,-5,-4
1558439673207203,1,1,-2,-3,-1,-5,2,6
1558439673207203,-6,-5,-2,-4,-5,-2,-5,2
1558439673216179,0,-1,0,1,-1,-4,1,-5
1558439673216179,-2,0,1,2,4,-5,-4,1
1558439673230144,3,1,2,1,5,-2,-2,-4
1558439673230144,2,-2,0,-3,-4,3,2,7
1558439673237123,-4,-2,0,-2,-7,2,-2,-8
1558439673237123,-1,1,-1,-3,-7,-10,-3,-2
1558439673253080,-2,0,0,-1,-1,2,-1,-4
1558439673253080,0,0,-1,2,-1,-2,-4,1
1558439673255075,0,-3,-3,-2,-3,-5,-5,0
1558439673255075,1,-1,-1,-2,1,2,4,3
1558439673267044,-2,1,1,0,8,13,8,2
1558439673267044,-1,-1,1,1,-2,-3,-3,-4
1558439673276019,2,2,-3,-4,-1,-3,-5,-2
1558439673276019,-10,-7,-2,-2,-4,-5,-7,2
1558439673289989,-5,-6,-8,-3,-11,-3,-8,-8
1558439673289989,2,2,-1,0,4,-1,9,4
1558439673296962,4,4,0,-1,8,3,5,3
1558439673296962,-1,-2,-2,-1,-4,4,5,5
1558439673312920,-5,1,3,1,1,-1,-7,-11
1558439673312920,-4,-1,-1,-4,-3,-9,-10,-7
1558439673320899,-2,-2,-1,-1,-3,-7,-2,-2
1558439673320899,-2,0,-1,-1,-3,-4,-5,-5
1558439673326885,-1,-2,0,1,8,15,10,3
1558439673326885,0,-2,-3,0,-3,-5,-3,0
1558439673335869,-2,-3,-2,-1,-8,-8,-6,0
1558439673335869,2,0,0,-2,-3,3,0,-1
1558439673358799,-1,-4,-3,-4,0,3,0,0
1558439673358799,3,3,3,0,-1,-2,-4,-1
1558439673359795,-9,-8,1,1,0,-10,-3,1
1558439673359795,1,1,-2,1,-3,-4,-1,1
1558439673373759,-2,1,0,-3,-7,1,-6,-8
1558439673373759,-2,0,-2,-1,2,-4,-2,-8
1558439673374755,3,1,1,0,2,0,3,11
1558439673374755,1,-2,0,0,6,3,3,0
1558439673387731,-1,-3,0,-1,-3,-2,0,2
1558439673387731,-2,-1,-1,-1,-2,1,1,3
1558439673403679,-4,-3,-5,-2,-7,-8,-7,-14
1558439673403679,-2,-1,0,-1,3,4,3,0
1558439673410662,2,-2,3,3,11,3,3,2
1558439673410662,-2,-3,-1,-2,1,-1,0,-1
1558439673424623,1,0,-2,-3,-5,-3,0,1
1558439673424623,1,5,1,-2,0,-1,2,1
1558439673433611,3,3,-1,-2,-3,-7,-5,-4
1558439673433611,-14,-7,-4,-2,-5,0,0,-1
1558439673435596,0,1,1,0,2,1,-1,1
1558439673435596,-1,0,0,1,3,0,5,0
1558439673447565,3,-3,-1,-1,1,3,0,1
1558439673447565,3,0,1,1,0,-3,0,-2
1558439673456537,0,2,-1,-3,-4,-1,-3,-5
1558439673456537,-4,-3,-1,-3,-3,-1,-2,-1
1558439673470501,-4,-3,-6,-1,-9,-7,-6,-1
1558439673470501,1,-4,-2,-2,-1,1,0,1
1558439673477488,-2,-1,-3,-2,5,-2,1,1
1558439673477488,1,0,-2,1,-5,-2,-5,-3
1558439673493442,-3,-3,-1,-3,-6,-8,-3,-1
1558439673493442,-1,0,-3,-3,3,6,1,-2
1558439673495433,5,3,2,1,1,3,0,2
1558439673495433,-1,-2,-2,0,3,2,6,2
1558439673507407,-2,4,5,3,5,10,3,-2
1558439673507407,-2,-3,-4,-2,-10,-7,-10,-5
1558439673516377,0,0,0,1,-3,2,0,-1
1558439673516377,-4,-5,-4,-1,3,13,5,0
1558439673530343,0,-1,-3,0,-1,-11,1,1
1558439673530343,2,0,3,-1,0,-5,0,0
1558439673544305,-1,-1,-1,-1,0,4,3,1
1558439673544305,0,-1,0,-1,-2,-4,-7,-4
1558439673553280,-3,-3,-2,-4,-7,-1,-4,-3
1558439673553280,1,3,1,2,2,0,5,4
1558439673555272,-4,-3,-4,-3,-4,1,-6,-7
1558439673555272,-4,-1,-1,-2,-3,-2,-5,-7
1558439673567247,1,2,3,1,7,1,7,2
1558439673567247,-2,-2,0,-2,-1,-4,-5,-3
1558439673576217,1,-2,0,2,5,2,2,4
1558439673576217,1,1,-2,-1,-3,-4,-5,-2
1558439673590192,-2,-4,-4,-3,-7,-3,-3,-1
1558439673590192,1,2,0,-2,-6,2,-2,-2
1558439673597170,-5,-7,-5,0,0,2,4,1
1558439673597170,2,2,2,0,-1,1,-3,-1
1558439673613118,-2,-1,-2,-2,-5,-12,-5,-3
1558439673613118,1,1,-1,-1,6,1,1,3
1558439673620111,0,0,0,-2,-4,-8,-4,-4
1558439673620111,-2,-2,-5,-4,-5,-2,-5,-4
1558439673636067,-3,-3,-2,0,-9,-4,-3,-4
1558439673636067,1,1,0,2,6,-1,5,3
1558439673638052,1,0,1,-1,5,-2,-1,2
1558439673638052,0,3,5,2,7,10,9,5
1558439673659005,-3,-3,-5,-4,-13,-2,-9,-5
1558439673659005,-5,-4,-6,-2,-9,-3,-6,-5
1558439673659993,4,2,2,2,7,13,13,6
1558439673659993,-6,-4,-2,-2,-1,-5,-3,-6
1558439673680944,1,0,0,-1,3,-3,1,2
1558439673680944,-1,-1,-1,-1,-7,-8,-5,-4
1558439673682932,-1,-3,-2,-4,-4,0,0,-1
1558439673682932,-3,-3,0,0,0,1,0,1
1558439673686921,1,0,0,-2,-6,-2,-2,-2
1558439673686921,2,0,0,-1,8,-6,2,4
1558439673695898,4,3,2,-1,-2,-1,1,-2
1558439673695898,2,-1,-1,-1,-3,-6,-2,3
1558439673710875,-6,-4,-4,-3,-8,-3,-6,-5
1558439673710875,-3,-3,-4,-1,-4,5,-3,-6
1558439673716840,-3,1,0,2,3,1,4,1
1558439673716840,-2,-2,-2,-2,-6,-8,-2,-2
1558439673732799,2,1,1,4,18,21,13,4
1558439673732799,-3,-4,-2,-3,-7,-2,-3,-3
1558439673739787,-2,-2,0,0,-5,-8,-7,-2
1558439673739787,-4,-2,-4,-2,-6,-9,-7,-4
1558439673746761,2,2,3,1,9,6,6,7
1558439673746761,3,2,2,2,5,7,4,1
1558439673755739,-9,-6,-4,-4,0,3,-2,-2
1558439673755739,6,1,-3,-3,-4,-14,-6,-1
1558439673770701,-13,-9,-3,-4,-12,-11,-5,-4
1558439673770701,-2,0,-2,-1,-2,-2,-3,-4
1558439673777678,-1,-2,-1,-2,-3,-1,-4,-2
1558439673777678,1,0,2,1,3,2,4,5
1558439673792639,2,0,-1,2,1,-4,1,4
1558439673792639,-4,-3,0,-3,-7,-3,-6,-7
1558439673799618,-2,-2,-2,-3,2,4,1,-2
1558439673799618,1,3,2,1,8,10,5,1
1558439673815587,3,0,1,-2,-3,-6,-5,-2
1558439673815587,-5,-1,-4,-3,-4,3,3,4
1558439673817573,3,3,-1,0,-4,-3,-1,0
1558439673817573,-3,-4,-1,1,4,1,-2,-3
1558439673830536,0,0,1,1,0,0,-2,0
1558439673830536,1,0,0,1,1,-1,1,1
1558439673837527,-2,1,-2,-1,-1,-8,-1,1
1558439673837527,-3,-3,-2,-2,1,4,3,-2
1558439673852478,3,1,0,-1,0,3,0,0
1558439673852478,-1,2,0,-1,-6,0,-4,-3
1558439673867440,-1,-3,0,0,2,-1,0,-2
1558439673867440,0,0,-1,-2,4,-7,1,4
1558439673876424,-3,-1,-1,-2,-2,0,1,2
1558439673876424,2,2,1,1,8,12,5,-1
1558439673877411,-3,-1,-1,-2,-3,-8,-8,-5
1558439673877411,-2,-2,0,0,0,6,1,-2
1558439673890386,0,0,-1,-3,-2,-2,-3,-7
1558439673890386,-4,-4,-4,-5,-9,-9,-1,2
1558439673897368,-2,-3,-6,-3,-12,-10,-8,-7
1558439673897368,2,-1,1,4,20,14,11,8
1558439673913316,-1,1,-2,-1,-1,-9,-4,-2
1558439673913316,-2,-6,-3,-1,3,8,5,2
1558439673919299,-1,-1,1,0,-1,0,-2,-1
1558439673919299,-1,1,-1,-2,-15,-14,-11,-5
1558439673943236,-1,0,-1,-3,-1,0,-3,-2
1558439673943236,2,-2,-1,2,9,3,2,0
1558439673945231,3,3,2,2,-7,-2,-7,-2
1558439673945231,-15,-10,-6,-7,-17,-10,-7,-7
1558439673958196,1,0,3,1,14,6,6,2
1558439673958196,0,-1,0,-1,-2,-7,-4,-1
1558439673960190,2,-2,1,-1,1,1,0,5
1558439673960190,0,0,-1,1,1,3,2,-2
1558439673973156,-3,-3,-3,-2,-8,-10,-7,-4
1558439673973156,-4,-2,-1,-3,-3,-4,-2,-3
1558439673987117,-2,-1,-4,-3,-1,-4,-4,-1
1558439673987117,1,3,0,-2,-3,4,0,-3
1558439673996094,-4,-3,-4,1,0,-3,0,-2
1558439673996094,3,0,1,1,5,-2,1,3
1558439674002078,-1,-4,-1,-1,0,-1,-1,1
1558439674002078,0,0,0,-1,0,0,0,1
1558439674010057,0,-2,-2,-4,-5,3,-1,-3
1558439674010057,-2,-1,-1,-2,-9,-5,-4,-5
1558439674025099,-2,0,-3,-1,1,-2,2,-1
1558439674025099,3,0,0,0,1,2,0,2
1558439674032994,-1,-2,-2,0,0,2,1,1
1558439674032994,-2,-1,-3,0,0,1,-4,-1
1558439674039977,0,-1,2,-1,3,-1,4,3
1558439674039977,1,0,-4,0,-7,-10,-8,-3
1558439674056118,-1,-2,-1,0,3,9,5,1
1558439674056118,-2,1,-4,-1,-7,-8,-6,-3
1558439674057928,-7,-6,-3,-1,1,2,-2,-3
1558439674057928,0,-2,-1,-1,0,-2,2,0
1558439674078930,-1,-3,-1,0,-2,-1,0,-2
1558439674078930,2,2,0,-1,6,2,-1,1
1558439674079871,1,2,2,2,9,5,10,5
1558439674079871,-3,-1,-2,-2,-7,-3,-5,-3
1558439674100817,-1,0,-1,-3,-7,-5,-3,-1
1558439674100817,-2,-5,-3,-2,-3,-1,-4,-4
1558439674102807,-3,-4,-6,-6,-16,-15,-14,-7
1558439674102807,2,-1,2,3,13,2,8,7
1558439674123825,3,3,1,0,6,1,2,4
1558439674123825,-4,-1,-2,-1,-5,-2,-4,-7
1558439674124750,-3,-2,-6,-1,-5,3,-4,-2
1558439674124750,-2,-4,-3,-1,-2,2,1,-2
1558439674130753,-2,1,0,-1,0,-1,-1,1
1558439674130753,0,-2,0,-3,-5,-3,-3,0
1558439674137882,1,-2,-1,-2,-1,-1,-4,-6
1558439674137882,1,0,0,-1,-2,-3,3,-1
1558439674152794,-2,2,-1,0,3,0,1,4
1558439674152794,-2,-1,-3,1,0,3,2,1
1558439674167634,0,0,1,-1,-3,5,1,-2
1558439674167634,5,0,-1,-3,-1,-5,-5,-2
1558439674176610,-5,-3,1,1,1,-4,0,2
1558439674176610,-1,1,-1,-3,-4,-5,-3,-3
1558439674177607,-1,-2,-5,-2,-3,-3,0,2
1558439674177607,-1,0,1,4,6,8,1,-1
1558439674198551,0,0,-2,-3,-6,-8,-8,-4
1558439674198551,-1,-1,-1,-1,2,2,2,3
1558439674200550,-1,1,4,0,8,7,10,4
1558439674200550,-2,2,0,-2,-5,0,-5,-7
1558439674221490,0,-2,-3,-1,-8,-2,-1,-4
1558439674221490,-4,-3,1,-4,-6,-8,-5,-3
1558439674222487,2,0,0,0,5,1,0,4
1558439674222487,-1,1,1,2,6,1,2,0
1558439674236488,-1,-2,0,-1,-1,1,-1,-2
1558439674236488,-2,-4,-3,-1,-2,4,6,-2
1558439674237447,-2,0,-1,1,0,-10,-3,2
1558439674237447,-3,-2,-3,-4,-11,-16,-11,-4
1558439674258393,-4,-5,-3,-2,-1,2,-2,-6
1558439674258393,0,-1,0,3,7,8,5,4
1558439674260388,-3,-1,3,-1,-4,5,0,-5
1558439674260388,-2,-1,-1,-1,-3,-7,-1,1
1558439674273351,2,-1,-1,1,-3,-7,-4,-2
1558439674273351,-1,-1,-1,-3,-5,-4,0,2
1558439674279336,1,2,0,0,3,-1,-3,-2
1558439674279336,1,-3,-3,-2,-3,0,-3,-2
1558439674296292,-13,-9,-2,-1,-1,-1,-1,-3
1558439674296292,2,2,1,1,1,-3,7,2
1558439674297288,-1,-1,-2,0,2,-2,0,0
1558439674297288,1,0,-2,-1,-5,-5,-4,-2
1558439674309255,4,3,-1,-3,0,5,1,-3
1558439674309255,-1,0,-1,-1,-1,1,-1,0
1558439674318232,0,-2,-1,0,-4,-3,2,2
1558439674318232,-1,-1,-1,-2,-2,-1,-1,-3
1558439674333197,-2,-2,-3,-1,0,1,-7,-3
1558439674333197,-1,-2,-2,-3,-5,-8,-8,-6
1558439674340178,2,-2,-4,-3,-7,5,4,1
1558439674340178,-2,-1,4,4,16,9,11,1
1558439674356130,0,0,2,1,3,2,1,-2
1558439674356130,0,1,1,0,0,1,-1,1
1558439674357127,-3,-2,-3,-2,-5,-4,-6,-3
1558439674357127,-1,-1,-2,-4,-7,-8,-3,2
1558439674370093,0,-1,-2,-1,-5,-4,-4,-2
1558439674370093,-2,-2,-3,-2,-5,1,-3,-6
1558439674385055,-3,-2,-4,-6,-10,-7,-8,-7
1558439674385055,-4,-1,-1,-1,-5,-4,-1,-2
1558439674393031,6,5,5,6,26,9,16,11
1558439674393031,-1,1,1,2,6,0,4,2
1558439674400016,0,-1,2,1,3,2,2,3
1558439674400016,0,-2,-6,-4,-12,-4,-14,-13
1558439674415971,0,1,-2,-5,-11,-6,-6,-4
1558439674415971,-2,-4,-1,-2,2,8,4,4
1558439674417965,-1,-2,-1,-1,0,-2,-2,-2
1558439674417965,-3,-2,-1,-1,-4,5,0,-1
1558439674429932,3,1,-1,-1,0,1,3,1
1558439674429932,2,-1,0,1,8,-3,2,1
1558439674438922,-2,-1,1,0,2,-3,-2,0
1558439674438922,0,-1,0,-2,2,0,3,5
1558439674452872,-3,-3,-4,-2,-9,-5,-10,-7
1558439674452872,-2,-1,-3,0,-6,-2,-2,-2
1558439674459852,-1,1,1,0,0,0,-1,-4
1558439674459852,-2,-1,-2,-1,-7,-7,-6,1
1558439674475810,-2,-1,-2,-1,1,0,0,-1
1558439674475810,1,0,1,2,6,-1,3,2
1558439674477804,2,1,4,4,10,0,2,-2
1558439674477804,-2,-2,0,0,1,8,4,-1
1558439674489785,-4,-1,-1,-3,-9,-4,-3,-2
1558439674489785,2,-2,-3,-3,-5,-8,-7,-4
1558439674498751,-2,-2,-4,-2,-4,0,-1,-4
1558439674498751,1,-5,-1,1,0,3,2,2
1558439674520721,-2,0,-2,0,-1,-3,-4,0
1558439674520721,3,2,2,1,9,11,4,3
1558439674522687,-1,1,-1,-3,-8,-10,-2,0
1558439674522687,3,4,1,2,1,5,1,-1
1558439674535651,-9,-8,-4,1,1,-2,-2,0
1558439674535651,-2,-1,-1,-4,-7,-6,-8,-5
