timestamp,emg1,emg2,emg3,emg4,emg5,emg6,emg7,emg8
1558439609126162,0,-4,-6,-13,-6,4,0,3
1558439609126162,0,0,-2,6,-2,10,1,-4
1558439609132144,7,3,1,1,1,-7,7,8
1558439609132144,-13,-5,-3,-2,-2,1,-12,-7
1558439609133141,1,-4,-2,3,-3,4,-6,-7
1558439609133141,-3,2,1,3,6,-2,-4,1
1558439609134139,-1,0,-4,-4,0,1,1,2
1558439609134139,5,1,2,-3,-2,-8,0,1
1558439609146108,0,0,-2,1,-6,-4,-2,-3
1558439609146108,-2,-1,-3,-7,-5,0,-3,-2
1558439609152090,-1,-1,3,2,7,3,2,-2
1558439609152090,3,-1,-1,5,6,0,5,6
1558439609169045,-6,-3,-3,-1,1,2,0,-4
1558439609169045,-2,-1,0,-7,-3,-4,0,2
1558439609175030,-3,-1,-5,-3,-6,-6,-6,-4
1558439609175030,3,3,-1,0,4,8,3,6
1558439609199963,-2,-4,0,-4,-3,-2,-3,-9
1558439609199963,-1,-3,-4,-1,-3,-4,-3,-1
1558439609201957,-12,-4,-2,-3,-7,-9,-12,-10
1558439609201957,-2,-6,-3,-2,-3,0,-1,-4
1558439609212928,3,5,0,-4,-1,-8,3,3
1558439609212928,-9,-7,-4,2,9,6,-4,-2
1558439609214923,3,2,4,-2,0,10,7,6
1558439609214923,-5,0,2,-2,-4,-7,-7,-17
1558439609220907,-5,-4,-4,3,0,-3,-4,2
1558439609220907,0,1,1,-3,-2,-6,-4,-6
1558439609235866,0,-3,-2,-4,-6,-1,-1,6
1558439609235866,1,0,0,3,9,18,7,-2
1558439609242847,0,-3,0,0,-1,-6,-2,-4
1558439609242847,5,4,4,3,4,7,11,7
1558439609258807,0,-1,-2,-1,-6,-13,-1,-2
1558439609258807,1,0,-3,-2,-11,-6,-4,4
1558439609265787,-1,-2,0,2,5,5,1,2
1558439609265787,0,2,1,0,5,3,1,2
1558439609305680,-2,-1,-2,6,3,4,3,0
1558439609305680,8,4,-2,-4,-5,-3,-6,-3
1558439609306677,-14,-8,-4,-5,-4,-3,-3,-3
1558439609306677,1,-4,-2,1,-11,-12,-8,-1
1558439609310667,-2,-3,-1,1,6,8,8,3
1558439609310667,0,3,0,-4,1,-5,-4,-4
1558439609311664,4,1,-2,3,3,10,3,2
1558439609311664,-2,0,3,1,3,-2,7,2
1558439609325627,0,2,-2,-4,-4,-3,-11,-5
1558439609325627,-5,-6,0,1,0,-5,4,-2
1558439609326624,0,-3,-4,-1,-12,-8,-7,1
1558439609326624,-1,2,3,-1,4,12,1,-4
1558439609331624,2,1,2,-4,0,-3,7,1
1558439609331624,-5,-3,-1,5,0,0,-1,-5
1558439609347569,1,1,-2,0,0,-2,0,0
1558439609347569,2,6,6,-1,0,-1,-5,-2
1558439609354550,5,0,-5,-2,-12,-10,-19,-8
1558439609354550,-1,2,1,1,4,3,9,9
1558439609361529,-1,1,6,4,8,7,6,1
1558439609361529,2,0,-5,-4,-8,-5,-1,2
1558439609376490,-18,-10,-3,-3,-7,-4,-9,-7
1558439609376490,1,-2,-2,-3,-6,1,1,2
1558439609393445,5,0,3,3,11,-4,4,6
1558439609393445,-4,-3,-4,1,4,1,-5,-4
1558439609394446,6,2,-1,-3,0,5,-2,-3
1558439609394446,1,0,-2,-2,-4,6,0,3
1558439609407407,-2,2,2,1,3,-4,1,-5
1558439609407407,-4,-7,-3,-2,-5,-1,-5,3
1558439609422367,-3,-3,-3,-4,-10,-4,0,-3
1558439609422367,3,2,3,-1,6,-3,0,6
1558439609423366,3,3,1,2,5,13,0,-3
1558439609423366,-4,-3,-1,1,-1,7,9,-8
1558439609437328,2,-1,-1,1,2,0,14,16
1558439609437328,-2,-2,1,-1,-4,-5,-14,-10
1558439609445306,4,3,-3,-4,-3,-4,-5,-2
1558439609445306,-4,-2,-2,-5,-7,-11,-9,-3
1558439609452288,7,5,1,4,8,1,8,-1
1558439609452288,-17,-10,-5,-1,0,-1,0,-3
1558439609467247,-3,-1,-3,-6,-9,-5,-5,-4
1558439609467247,2,4,1,3,5,5,2,3
1558439609474230,-6,0,2,-3,-5,-5,-8,-11
1558439609474230,2,-3,-3,-1,-1,1,3,9
1558439609490186,1,1,0,1,9,7,13,3
1558439609490186,-4,-4,-3,-2,-2,0,4,-2
1558439609498164,0,-3,-1,-3,-5,-7,-12,-7
1558439609498164,2,0,-1,0,-1,5,1,-4
1558439609505146,-4,-4,-5,-3,-12,-13,-16,-7
1558439609505146,2,-2,-2,-1,2,2,6,3
1558439609512127,2,4,1,0,6,2,3,4
1558439609512127,-3,-5,-1,-3,-8,-10,-6,-4
1558439609527088,5,2,-2,-3,-3,1,-5,1
1558439609527088,-15,-8,-2,-2,-3,-5,-3,-8
1558439609534069,0,0,1,0,-1,-9,0,3
1558439609534069,-1,2,0,0,2,7,11,7
1558439609550025,0,1,-3,-1,-5,-5,-8,-17
1558439609550025,9,-4,-4,-1,-3,-1,-8,5
1558439609557008,-16,-6,1,1,7,14,8,-1
1558439609557008,1,1,0,0,5,3,3,2
1558439609564989,0,-2,0,-1,-1,-3,5,1
1558439609564989,-1,1,-4,-3,-1,2,-2,0
1558439609571969,0,-2,-3,-3,-8,-13,-5,2
1558439609571969,1,3,1,1,5,-2,-3,-6
1558439609587926,-1,1,3,-1,0,-3,1,1
1558439609587926,-1,-2,-1,-1,1,3,2,-4
1558439609593909,3,1,0,0,0,4,-4,0
1558439609593909,-5,-5,-4,-2,-6,-7,-8,-6
1558439609609867,-4,-9,-4,-2,-6,-1,0,4
1558439609609867,1,3,1,0,-2,-9,-1,-4
1558439609616848,8,3,-1,-2,-3,3,4,-2
1558439609616848,-9,-5,-2,1,-5,-2,-11,-9
1558439609624826,-3,-1,1,-3,-4,1,5,2
1558439609624826,4,-2,-2,-1,8,2,3,11
1558439609631809,-5,-1,1,2,2,4,-3,-14
1558439609631809,6,2,-2,-4,-6,-4,-1,-2
1558439609647764,-1,-2,0,-3,-7,-8,-10,-1
1558439609647764,7,5,2,1,5,6,7,1
1558439609654746,1,-1,1,-1,-2,-4,3,5
1558439609654746,2,-1,-1,0,4,0,0,0
1558439609669706,-2,-2,-1,-2,2,-4,-5,-5
1558439609669706,3,4,1,-2,-8,-7,-5,-4
1558439609676687,-5,-6,-1,-1,0,-1,-5,-4
1558439609676687,0,4,1,0,0,1,2,0
1558439609684667,1,-4,0,3,5,6,3,3
1558439609684667,-3,-2,-2,0,2,-1,0,1
1558439609691649,-2,-2,-4,-3,-5,2,2,-2
1558439609691649,-2,-2,-2,-2,-2,-1,-4,-1
1558439609707606,1,2,-2,0,-4,-4,-4,-7
1558439609707606,-3,-2,0,-1,3,3,2,-3
1558439609714587,1,-2,2,2,5,-1,4,10
1558439609714587,4,2,-2,1,-2,-1,-7,-4
1558439609729546,-4,-2,-3,-3,-7,0,-3,-2
1558439609729546,-5,-4,-5,-6,-12,-8,-11,-9
1558439609736527,9,4,1,0,5,1,6,6
1558439609736527,-9,-7,-1,-1,-2,-6,-2,-4
1558439609745502,1,0,2,0,4,5,3,5
1558439609745502,-3,-5,-1,-2,-5,1,-9,-5
1558439609751487,-2,-3,-7,-1,-4,-9,-1,0
1558439609751487,5,0,0,-1,6,3,4,2
1558439609767445,-5,0,-3,-2,-7,-13,-6,-11
1558439609767445,1,2,1,1,2,3,6,4
1558439609774427,-4,-4,-3,-4,-6,0,-7,-4
1558439609774427,-3,-3,1,-1,-4,-5,-2,-7
1558439609790383,-2,2,-1,2,6,5,2,5
1558439609790383,2,0,0,-1,-3,-3,-5,-5
1558439609797364,2,3,5,3,7,-3,0,4
1558439609797364,-2,-3,-2,-2,-5,2,0,1
1558439609805343,3,-1,-3,-3,-5,5,-1,-5
1558439609805343,-9,-5,-3,-2,-3,-6,-3,3
1558439609819306,0,-2,1,0,-5,-1,-5,-7
1558439609819306,0,1,-2,0,-3,-14,-2,1
1558439609827285,0,0,3,1,12,7,5,4
1558439609827285,-2,0,-1,-2,-4,2,-2,-3
1558439609834267,-3,-1,-7,-3,-3,0,-5,-7
1558439609834267,9,6,1,-1,-4,1,-1,2
1558439609850224,-12,-6,-4,-2,-5,-11,-4,-2
1558439609850224,1,0,2,3,8,8,10,1
1558439609857204,-4,-1,1,-2,3,3,1,-2
1558439609857204,3,1,-1,-2,-3,6,4,4
1558439609866182,0,-1,-2,-1,-5,-3,-4,-3
1558439609866182,-2,-2,-3,-2,-2,-2,-4,-2
1558439609879146,-4,-5,-3,-1,-3,3,1,-2
1558439609879146,-1,-1,2,1,2,-4,2,-1
1558439609888122,0,1,2,-1,1,-4,-3,0
1558439609888122,-1,0,-3,0,0,-3,-1,-2
1558439609894106,3,-2,-4,-5,-5,2,-2,-1
1558439609894106,-2,-3,-4,-4,-6,-5,-6,-1
1558439609911061,1,-3,2,2,5,-6,1,4
1558439609911061,3,5,1,0,9,11,10,2
1558439609917046,-3,-1,-2,-2,-2,-3,-6,-2
1558439609917046,-6,-6,-5,0,0,8,0,-7
1558439609926021,2,0,-2,-5,-12,-10,-5,-8
1558439609926021,-2,-4,-2,-2,1,0,-3,1
1558439609938990,0,1,3,1,3,-8,1,6
1558439609938990,-3,-1,-2,-2,-3,-2,-9,-7
1558439609947963,0,-2,-3,-1,3,11,8,3
1558439609947963,6,5,3,4,7,-3,3,2
1558439609953947,-4,-3,-1,-1,-3,1,-3,-1
1558439609953947,-1,1,1,-4,-3,-3,-6,-4
1558439609970901,4,1,0,-1,4,4,2,5
1558439609970901,-2,-4,0,-1,-1,1,-1,-5
1558439609976884,2,5,0,-1,-1,-8,-4,2
1558439609976884,-1,0,-1,-1,-1,4,1,-1
1558439609985860,-3,1,-2,-1,-6,1,-3,-1
1558439609985860,2,1,1,-2,-2,-6,-4,-5
1558439609999825,-5,-6,-2,-2,-4,-5,-2,4
1558439609999825,-2,-5,-4,2,5,-1,4,-1
1558439610007802,-1,-2,-1,1,2,2,3,-1
1558439610007802,1,0,-2,-1,-2,3,-2,1
1558439610014783,-2,-2,-3,-2,-8,-1,-7,-9
1558439610014783,-2,3,1,1,0,-4,-4,-1
1558439610030741,-1,-2,-1,-1,0,2,5,0
1558439610030741,-1,-2,0,1,-1,-9,0,-1
1558439610036726,0,2,0,0,5,5,4,0
1558439610036726,3,0,-2,0,1,11,1,6
1558439610045701,-4,-1,-1,-2,-1,-1,-4,-10
1558439610045701,-2,-3,-3,-1,-6,-8,-4,1
1558439610068639,4,1,1,1,5,3,5,5
1558439610068639,-5,-2,-1,-3,-3,-10,-2,-1
1558439610069636,-1,3,0,1,7,12,4,0
1558439610069636,2,-2,-1,-4,-9,-4,-3,-3
1558439610074628,2,-2,-4,0,0,0,-3,-3
1558439610074628,-2,-8,-5,-3,-2,-3,2,-3
1558439610090582,0,-3,0,-2,-2,-5,-2,3
1558439610090582,-3,-1,-3,-2,-8,-7,-3,-2
1558439610096567,-1,2,1,0,-2,2,-2,-4
1558439610096567,0,3,2,2,-1,-2,-3,-1
1558439610111526,0,0,0,-1,1,0,8,6
1558439610111526,0,-3,-3,-4,-3,1,2,0
1558439610119509,-1,1,1,2,9,-2,3,0
1558439610119509,-2,-1,0,-1,-3,3,-1,1
1558439610128481,-7,-4,-1,-2,-6,-6,-6,-8
1558439610128481,0,0,-1,-2,-6,-3,-5,-4
1558439610134464,-3,-2,-1,-2,-4,1,-7,-8
1558439610134464,2,1,-1,-2,-1,4,5,-1
1558439610150422,2,2,1,1,4,-3,1,4
1558439610150422,0,-2,1,2,8,8,6,5
1558439610157403,-17,-11,-5,-2,-6,-9,-1,-5
1558439610157403,3,0,1,-3,-3,-3,-2,-1
1558439610172363,-1,-4,-5,-4,-8,-6,-6,-3
1558439610172363,-3,-2,-2,-2,-1,3,-8,-3
1558439610179345,5,5,2,1,4,11,8,6
1558439610179345,-3,-1,1,1,-5,-8,-6,-1
1558439610188322,-2,-2,-3,-1,-3,0,2,-2
1558439610188322,-2,-3,-2,-4,-2,-8,-8,-5
1558439610194304,0,-1,0,-2,0,-1,1,1
1558439610194304,0,0,1,5,12,6,9,3
1558439610211262,0,-1,-1,-2,-4,0,-4,-2
1558439610211262,-1,1,-2,-1,3,12,8,3
1558439610217253,2,1,2,-1,-4,-8,-10,-6
1558439610217253,-6,-6,-4,-4,-11,-10,-9,-3
1558439610232211,3,3,-1,-2,1,-3,-2,4
1558439610232211,-4,-1,-1,-1,8,8,1,-9
1558439610239194,-2,-2,-4,-4,-8,-1,-4,-3
1558439610239194,1,-1,0,-2,4,4,7,-3
1558439610248162,1,-3,-2,0,2,-7,-1,8
1558439610248162,0,1,2,2,6,-1,6,9
1558439610254146,1,0,-2,-1,-5,-6,-7,-5
1558439610254146,10,5,-1,-2,2,5,3,3
1558439610271098,-9,-5,-2,-3,-4,5,0,-7
1558439610271098,-9,-6,-4,0,-9,-4,0,-1
1558439610277082,1,2,3,4,13,3,6,5
1558439610277082,0,0,-1,-3,-3,-2,-8,-4
1558439610292044,4,2,-1,-1,-5,-3,-3,-3
1558439610292044,1,0,-3,-3,-8,-11,-5,-2
1558439610299023,-1,0,-2,0,6,7,5,1
1558439610299023,-3,-4,2,2,8,4,5,6
1558439610314980,1,-1,3,1,4,2,-6,-9
1558439610314980,-3,-3,-4,-4,-9,-6,-11,-4
1558439610315977,-4,-4,-3,-3,-11,-7,-4,-9
1558439610315977,0,-1,1,2,5,1,3,5
1558439610330937,-2,-4,-1,-3,0,-1,-3,0
1558439610330937,0,-2,-2,-1,-4,-3,-3,-1
1558439610336921,1,-1,-2,1,0,-1,-1,0
1558439610336921,-3,2,1,-1,-7,-4,-4,-3
1558439610351887,-1,0,-1,2,0,-3,-1,0
1558439610351887,10,5,3,0,4,7,10,6
1558439610359863,-5,-6,-1,0,3,5,-1,-5
1558439610359863,-7,-4,-3,-1,-1,0,-1,-5
1558439610374826,2,0,0,1,-2,-4,-4,1
1558439610374826,-6,-5,-4,-3,-6,-6,-5,-5
1558439610375851,2,1,-2,-5,-9,-7,-2,0
1558439610375851,1,-1,-1,1,4,5,3,2
1558439610390792,-2,1,0,3,10,12,6,1
1558439610390792,0,0,-2,-2,-5,-4,-4,-3
1558439610396867,-3,-5,-3,-6,-10,-9,-8,-1
1558439610396867,-7,-2,-2,0,2,1,-1,-6
1558439610411760,-4,-3,-4,-3,-5,-5,2,0
1558439610411760,5,3,2,2,8,2,6,2
1558439610419838,1,3,2,1,1,-2,0,-1
1558439610419838,-1,-5,-5,-4,-8,-4,-7,-3
1558439610435702,-1,-2,-1,-3,-4,-1,-6,-3
1558439610435702,-5,-2,-1,0,-7,0,-6,-2
1558439610435702,2,3,2,1,0,-11,-3,-2
1558439610435702,1,1,0,-2,9,8,10,10
1558439610450662,-2,-1,-1,-1,3,-3,-1,-2
1558439610450662,1,0,0,0,5,2,-7,-3
1558439610456708,-9,-6,-2,-2,-1,6,4,0
1558439610456708,-9,-4,-4,0,-7,-11,-10,-9
1558439610471564,0,-1,1,0,-2,3,-2,-2
1558439610471564,-2,-5,-1,-1,0,-2,-1,-4
1558439610479542,3,-1,0,-1,1,-2,1,4
1558439610479542,3,0,-3,-4,-11,-11,-5,-2
1558439610495498,-5,-4,2,-2,-3,-2,-2,-3
1558439610495498,1,0,-4,-1,2,-8,-1,0
1558439610495498,-1,-2,0,-2,-1,-4,-6,-5
1558439610495498,1,3,3,2,5,1,7,3
1558439610510458,1,0,-2,1,-2,1,0,-1
1558439610510458,-3,-2,0,-3,-4,2,-3,-3
1558439610516442,1,-2,-1,0,0,1,-1,0
1558439610516442,2,2,-1,-4,-9,-4,-6,-4
1558439610532400,-2,-4,-3,-1,-7,-1,0,-2
1558439610532400,0,0,5,1,7,1,-1,-3
1558439610539379,0,2,-1,1,5,9,6,5
1558439610539379,0,-2,0,-1,-1,-8,-4,-5
1558439610555337,6,2,0,0,5,8,3,0
1558439610555337,-14,-10,-2,-1,-4,-1,0,0
1558439610555337,-1,0,1,-1,1,-1,-2,0
1558439610555337,1,1,-1,-1,-1,0,-4,-3
1558439610571301,-2,0,-5,-2,-9,-3,3,0
1558439610571301,4,2,-2,-4,0,-3,-7,-4
1558439610577281,-11,-6,-3,-1,-2,4,-3,0
1558439610577281,-4,-4,-4,-5,-7,-6,-7,-5
1558439610592240,0,-1,2,4,14,2,12,7
1558439610592240,6,4,3,2,9,6,7,4
1558439610599221,1,0,-3,-3,-9,-6,-5,-5
1558439610599221,-1,-2,-1,-1,-5,0,-7,-2
1558439610615181,-4,0,-1,-1,-4,-8,-4,-4
1558439610615181,-3,-3,-1,1,6,3,6,6
1558439610616180,3,1,-1,-2,0,1,1,0
1558439610616180,0,0,0,-1,0,7,-1,-2
1558439610631146,-2,-4,-3,-4,-5,-3,-9,-1
1558439610631146,-5,0,-2,-1,-4,-9,1,-7
1558439610637224,3,-1,-1,1,0,-4,-2,1
1558439610637224,3,4,0,1,8,8,6,1
1558439610653078,-6,-4,-4,-2,-1,4,-1,-1
1558439610653078,-2,-10,-6,-3,-7,-5,-8,-6
1558439610668320,-2,0,-2,-3,-11,-7,-6,-3
1558439610668320,1,-1,-2,-2,0,-3,-1,0
1558439610675030,2,1,-2,1,3,-2,-3,-2
1558439610675030,-3,1,1,0,-2,-4,2,2
1558439610676016,0,0,2,2,8,3,8,3
1558439610676016,-1,0,2,0,-3,0,-4,-1
1558439610690977,3,-2,-4,-2,-7,-4,-5,-2
1558439610690977,-4,0,-1,0,0,2,2,3
1558439610696986,0,-1,-1,-2,-3,-2,-4,-4
1558439610696986,-3,-1,-3,-1,-5,-2,0,-1
1558439610711919,0,-1,1,-2,4,-5,-3,-1
1558439610711919,-1,2,3,0,0,5,1,-3
1558439610718900,-1,-1,-2,-1,1,-4,-1,1
1558439610718900,-3,-3,0,-1,1,3,2,0
1558439610734858,2,3,1,-3,-6,-10,-5,2
1558439610734858,8,4,-2,0,-2,-2,-2,3
1558439610741840,-15,-6,-3,3,5,6,3,-2
1558439610741840,-4,-4,-5,-3,-8,0,-2,-8
1558439610750865,-1,-2,1,-2,3,7,7,5
1558439610750865,1,1,0,1,4,1,0,0
1558439610757147,5,3,0,-4,-7,-10,-6,-2
1558439610757147,2,-1,0,-1,-3,-8,-5,1
1558439610773105,-7,-7,-5,1,-1,6,-1,-4
1558439610773105,-2,-1,-2,-1,3,4,4,2
1558439610779945,2,-1,-2,-2,-3,-4,-2,-3
1558439610779945,-2,-3,-1,0,3,5,0,-1
1558439610794901,0,2,1,0,-1,-5,-5,-3
1558439610794901,0,-3,-2,-4,-7,-7,-9,-4
1558439610801707,-1,0,-1,-1,2,4,3,-1
1558439610801707,9,4,0,0,2,-6,5,5
1558439610810913,-14,-6,-3,-5,-9,-9,-8,-4
1558439610810913,-6,-4,-1,1,2,2,-2,-9
1558439610824628,3,-1,1,1,6,7,12,10
1558439610824628,2,2,0,0,2,-1,-3,-3
1558439610833597,6,3,3,-1,0,-1,1,-2
1558439610833597,-5,-5,-4,-2,-13,-10,-11,-2
1558439610839786,1,-1,-1,-1,0,4,0,-3
1558439610839786,-7,-6,0,-2,2,-1,6,2
1558439610854747,4,0,-4,-2,-4,-6,-3,2
1558439610854747,0,5,3,2,4,3,2,1
1558439610862593,1,-1,-2,-3,-1,-1,-6,-4
1558439610862593,-3,-2,-2,-3,-4,-2,-1,2
1558439610870717,1,1,0,0,-2,-7,-3,-6
1558439610870717,0,-2,-4,-2,2,2,0,-3
1558439610877484,-4,-2,-4,-3,-10,-2,-7,-7
1558439610877484,-2,-1,1,0,2,5,1,-2
1558439610893436,-2,-1,-1,0,4,-6,-1,0
1558439610893436,1,0,-1,1,1,-1,1,4
1558439610899420,0,-1,1,-2,-3,-5,-4,-5
1558439610899420,-4,-7,-3,-1,-2,-6,-6,-4
1558439610914378,2,-2,-1,-1,-2,7,5,5
1558439610914378,0,-1,-1,-3,0,2,0,1
1558439610922356,-4,0,0,-1,-2,-1,-3,-6
1558439610922356,1,1,-1,-3,-8,-7,-5,1
1558439610937315,5,3,1,0,0,-5,-6,-4
1558439610937315,-2,-2,1,-1,5,5,4,4
1558439610938312,-9,-3,-3,-1,0,5,7,5
1558439610938312,-1,1,0,1,6,1,0,-1
1558439610953272,3,1,1,-2,-4,2,-5,-3
1558439610953272,1,-2,0,-3,-8,-5,-4,-4
1558439610959256,4,2,1,0,5,-1,3,3
1558439610959256,-2,-4,-4,-2,-4,0,-3,-4
1558439610974215,-5,-5,-4,-1,-4,7,0,-2
1558439610974215,-2,-1,1,-2,-4,-8,-4,-3
1558439610982534,3,0,0,-1,2,-6,-1,0
1558439610982534,2,2,2,1,8,7,3,4
1558439610997158,-4,0,1,0,-2,-3,-3,-2
1558439610997158,0,-4,-4,-2,-9,-2,-3,-4
1558439610998152,-1,1,0,0,2,4,5,-2
1558439610998152,-3,-3,-2,-1,-2,-5,-1,-1
1558439611013528,-3,-3,-2,-1,-2,4,-3,-2
1558439611013528,1,1,-2,-2,0,-1,1,2
1558439611019861,1,-1,0,2,8,2,0,7
1558439611019861,1,1,-1,1,4,2,2,-4
1558439611034767,1,0,-2,-2,-1,0,1,0
1558439611034767,1,-2,-2,-1,-7,-3,-5,-3
1558439611041453,-3,-2,-6,-4,-6,-3,-5,-4
1558439611041453,5,0,-2,-3,-4,1,1,5
1558439611057445,-18,-7,-1,-1,4,-2,-1,-10
1558439611057445,5,8,0,0,4,-1,4,2
1558439611058407,-1,-7,0,0,-2,-1,-1,3
1558439611058407,1,1,1,-2,0,1,-3,-2
1558439611073370,1,-1,0,0,-4,-7,-1,-1
1558439611073370,-4,-1,0,0,4,3,-1,-1
1558439611079549,2,3,3,0,1,7,3,0
1558439611079549,-2,-4,-5,-3,-7,-2,-6,0
1558439611094483,4,1,2,1,2,-3,10,5
1558439611094483,-1,-1,0,0,-1,-11,-7,-2
1558439611102290,-1,0,-1,-1,-5,-7,-7,-3
1558439611102290,-1,-1,0,-1,-3,0,-2,-2
1558439611118248,0,1,0,0,8,12,2,-3
1558439611118248,-2,-4,-4,-4,-4,-1,2,4
1558439611118248,3,0,2,1,2,-2,1,-1
1558439611118248,0,2,1,0,-3,-5,-6,-3
1558439611133210,-4,-3,-3,-1,-7,0,-2,0
1558439611133210,-3,-1,-3,-1,-5,-11,-2,-2
1558439611139406,-1,-1,-3,-3,-2,2,-4,-3
1558439611139406,-2,0,-1,1,9,2,4,3
1558439611163127,-1,-1,-2,0,6,-2,3,-4
1558439611163127,6,1,0,-1,-1,2,-1,-2
1558439611163127,-17,-10,-4,-4,-11,-3,-5,-6
1558439611163127,-1,0,-1,-1,-6,-6,-2,2
1558439611178187,-1,-1,-1,0,-4,5,-1,-3
1558439611178187,0,0,2,0,4,2,-1,1
1558439611178187,0,0,-3,0,0,0,-1,-2
1558439611178187,-5,-6,-1,1,5,1,3,-5
1558439611193046,1,0,1,-1,-1,1,-3,3
1558439611193046,-4,-3,-1,-4,-7,-6,-4,-3
1558439611200028,4,1,-1,3,4,9,5,6
1558439611200028,-2,0,0,-2,-3,-2,-6,-6
1558439611214988,-1,-2,-4,-3,-6,-1,-3,-1
1558439611214988,-2,-1,1,-1,-1,4,5,1
1558439611222206,2,2,1,2,8,-8,0,2
1558439611222206,5,2,1,1,3,-9,3,1
1558439611238168,-9,-8,0,-1,3,0,1,-3
1558439611238168,-3,0,-1,0,-1,10,1,1
1558439611238168,-1,-3,-5,-7,-13,-6,-10,-7
1558439611238168,-4,-1,-1,-1,-3,-1,-3,-5
1558439611253125,8,6,4,4,12,6,12,5
1558439611253125,-5,-4,-3,-2,0,-4,-3,3
1558439611258870,2,1,-1,-2,-2,-2,-1,-1
1558439611258870,-1,-3,-4,-4,-12,-9,-4,1
1558439611274121,1,1,-4,-1,4,7,-1,-4
1558439611274121,-2,-2,-1,2,3,0,1,-2
1558439611282098,-2,-1,-1,0,0,-4,-6,1
1558439611282098,-3,-2,-2,-2,-7,3,-2,-4
1558439611297337,-1,-3,-2,-5,-8,-9,-5,-2
1558439611297337,2,2,4,2,8,4,6,2
1558439611298055,4,-1,-3,-2,-4,-6,-3,-2
1558439611298055,-1,0,0,-1,6,1,4,0
1558439611313015,0,-2,-3,-1,-7,-7,-2,0
1558439611313015,-2,0,-2,0,-2,-10,-6,-3
1558439611320189,-1,1,2,-2,-2,1,0,-1
1558439611320189,-2,-2,-2,2,6,12,3,3
1558439611333960,0,2,2,-2,-1,-2,-3,-1
1558439611333960,-1,-2,-2,-2,-4,-2,-4,-4
1558439611341939,-2,-1,0,-1,0,5,5,0
1558439611341939,6,3,1,-1,1,-4,0,0
1558439611364927,-9,-3,-1,-2,-3,-17,-6,-1
1558439611364927,1,-2,-2,-1,-1,3,-2,-4
1558439611365929,2,-1,0,-1,4,3,3,-1
1558439611365929,-1,-4,-2,-3,-5,1,-4,-4
1558439611372913,0,2,0,3,7,7,9,7
1558439611372913,-2,-4,-4,-1,1,-1,0,-1
1558439611379835,-1,0,-1,-1,-1,-2,-2,-1
1558439611379835,-3,-3,-2,-3,-1,-1,-6,1
1558439611393798,2,-2,-3,-3,-12,-10,-9,-8
1558439611393798,0,-4,-2,-3,-5,-3,1,1
1558439611401776,5,2,-3,1,0,3,-1,-6
1558439611401776,-1,-1,1,-1,1,-2,2,3
1558439611417737,1,1,2,0,2,1,-4,-2
1558439611417737,-2,-1,-1,0,3,4,0,-3
1558439611417737,4,3,3,2,-6,-8,-3,2
1558439611417737,-2,0,-2,-3,-1,5,2,-1
1558439611433756,-2,-3,-3,-2,0,2,-2,3
1558439611433756,1,2,-2,-1,-7,-4,-7,-6
1558439611439678,-5,-2,-2,-3,-2,0,-6,-4
1558439611439678,5,1,2,1,3,-11,6,4
1558439611454960,-7,-3,-3,-1,-2,-1,-1,-1
1558439611454960,-1,-2,-2,-2,-4,0,-4,-2
1558439611462625,-5,-3,-2,0,4,-3,-1,2
1558439611462625,-3,-1,-1,-1,1,8,2,0
1558439611477975,2,2,1,0,2,5,2,2
1558439611477975,0,0,0,-3,-2,-6,-2,0
1558439611478573,-4,-1,0,-2,-3,3,-2,-6
1558439611478573,1,4,0,-1,-4,-3,-1,-2
1558439611493565,1,0,-1,-2,0,-2,5,6
1558439611493565,-4,-1,-2,-3,-7,-6,-12,-10
1558439611499517,7,0,-1,-1,1,-1,-1,1
1558439611499517,-10,-3,-2,1,2,3,0,-6
1558439611514477,1,-4,-2,-1,-7,0,-2,0
1558439611514477,-4,-5,-3,-2,-5,-4,1,0
1558439611522718,0,-1,0,-1,3,0,5,1
1558439611522718,1,-1,-1,1,-3,-3,-5,1
1558439611537415,-3,-3,-1,1,4,12,0,-12
1558439611537415,1,2,0,-2,2,-4,7,5
1558439611538416,0,-1,-1,-1,-2,-8,-3,0
1558439611538416,-7,-3,-2,-3,-1,2,-1,-3
1558439611553375,-2,0,-2,-1,-8,0,-7,-4
1558439611553375,5,3,3,1,5,0,2,3
1558439611559739,-4,-2,-1,0,3,-6,3,0
1558439611559739,5,-1,2,1,1,2,2,6
1558439611574701,0,-2,-1,-3,-7,-6,-7,-3
1558439611574701,-3,-1,-4,0,-1,5,-3,-2
1558439611581683,-2,0,1,2,1,3,6,1
1558439611581683,1,-4,0,2,4,-5,-1,0
1558439611598101,-1,-2,-4,-3,-3,-3,-2,0
1558439611598101,-1,-3,-4,-4,-5,2,-5,-2
1558439611598636,-5,-2,-2,-1,-1,6,1,0
1558439611598636,0,2,2,1,6,-1,0,-10
1558439611613596,4,-1,-2,-2,-4,1,-2,7
1558439611613596,4,2,2,1,4,2,6,1
1558439611619980,-8,1,-1,-1,1,3,2,-1
1558439611619980,-1,-3,-4,-3,-4,0,-2,0
1558439611642943,1,1,1,-2,-1,-8,-4,1
1558439611642943,-1,0,2,1,2,-4,4,-6
1558439611643517,4,-1,-4,-3,-9,-4,-9,-4
1558439611643517,-8,-2,-2,-2,-5,2,-4,-3
1558439611657260,-3,1,1,1,7,6,1,-4
1558439611657260,-3,-1,0,-1,-6,-5,-1,7
1558439611665322,-3,-2,-3,-1,3,-1,-2,-3
1558439611665322,1,0,-1,-1,-1,1,1,-1
1558439611673343,3,0,-1,0,0,-6,2,3
1558439611673343,-3,-4,0,0,0,1,-2,-4
1558439611679304,2,0,-1,-3,-6,-4,-6,-3
1558439611679304,0,0,-3,-2,-7,-9,-6,0
1558439611694809,-1,0,-1,1,9,4,7,1
1558439611694809,-3,-3,-2,-1,-4,0,-1,-4
1558439611710815,0,-1,3,4,5,3,6,5
1558439611710815,0,-2,-1,-2,-2,-2,2,1
1558439611716752,-5,0,0,-1,-7,-11,-11,-8
1558439611716752,1,3,0,1,3,3,4,4
1558439611733062,1,2,1,-2,-1,1,-3,1
1558439611733062,-4,-7,-6,-3,-1,0,0,2
1558439611734704,3,2,-1,-1,2,2,3,-1
1558439611734704,-12,-5,-4,-3,-6,-6,-5,-4
1558439611739689,-4,-3,-1,-1,-9,-7,-6,-10
1558439611739689,7,5,4,3,6,3,9,8
1558439611755971,-4,-1,0,1,4,3,-2,1
1558439611755971,-3,-4,-3,-2,1,5,-3,3
1558439611762678,-1,-4,-4,0,1,2,2,-2
1558439611762678,-4,0,0,-3,-8,-7,-10,-6
1558439611778615,3,-2,-1,-4,-5,-9,-1,-3
1558439611778615,3,-1,0,-1,2,-1,1,-5
1558439611784900,-1,-3,0,0,1,-1,4,12
1558439611784900,1,-1,-2,-1,-4,-4,-7,-5
1558439611800840,-2,-2,0,-4,-5,-2,-3,-4
1558439611800840,0,-1,1,-1,1,8,3,0
1558439611800840,-4,0,-4,-3,-8,-12,-11,-6
1558439611800840,-3,-6,-3,-2,-1,0,2,0
1558439611822791,0,2,2,3,9,7,9,6
1558439611822791,1,-1,-3,-1,1,1,-2,-3
1558439611823468,-1,1,1,-3,0,1,-2,-2
1558439611823468,-2,0,-2,-3,-6,2,-1,-2
1558439611837693,1,-2,0,1,-2,-5,-2,-1
1558439611837693,3,0,1,1,2,-1,-3,-2
1558439611844409,-2,-4,-2,-4,-3,2,2,3
1558439611844409,-2,-1,-2,-1,0,-2,1,-3
1558439611860689,-4,-2,-1,1,1,-5,0,-1
1558439611860689,2,1,-2,-1,1,-1,4,2
1558439611860689,6,1,1,-3,-3,-3,-2,5
1558439611860689,-7,-6,-1,1,0,4,-6,-9
1558439611874331,-3,-5,-3,-3,-5,1,-1,-3
1558439611874331,-4,1,1,-3,-4,-7,-5,-1
1558439611882643,0,0,-2,-1,-3,-2,0,-2
1558439611882643,6,5,0,0,2,-4,-1,4
1558439611897298,0,-3,-4,-2,4,4,1,-6
1558439611897298,-3,0,0,-1,-1,-4,-1,7
1558439611904552,-1,-1,-2,1,7,9,7,-2
1558439611904552,-3,1,0,-4,-2,2,-2,-4
1558439611920209,0,0,-2,-3,-4,1,-3,-1
1558439611920209,-3,-2,-2,-2,-5,-7,-3,-4
1558439611920209,-1,-1,2,0,-3,-8,-3,-1
1558439611920209,-1,-2,-2,-3,-5,-7,-7,-4
1558439611942147,1,3,5,3,12,17,14,10
1558439611942147,-2,-3,-2,-1,1,0,0,-3
1558439611943145,1,0,0,1,2,0,-2,0
1558439611943145,-3,-1,-3,-1,-2,0,1,-4
1558439611965517,-2,0,0,-1,-4,-2,-5,-2
1558439611965517,-1,-4,-2,-2,-1,-3,-2,-3
1558439611966085,-2,0,0,0,4,4,1,0
1558439611966085,1,1,-1,0,-2,-2,-2,0
1558439611988192,-2,-4,-3,-4,-7,-8,-10,-7
1558439611988192,5,3,-1,0,-3,3,-3,-1
1558439611996488,-22,-12,-6,-3,-8,-7,-4,-7
1558439611996488,5,6,5,3,19,13,15,11
1558439611997001,-2,-1,-1,-1,-1,-2,-1,0
1558439611997001,2,1,0,-2,-5,-1,-4,-2
1558439612010410,3,1,-1,-2,0,2,-2,-2
1558439612010410,0,0,0,4,7,2,4,4
1558439612017401,-3,-1,0,0,-2,-7,-4,-2
1558439612017401,-5,-2,-1,-1,-6,-2,-3,-4
1558439612032809,2,0,-1,-4,-6,-1,-3,-1
1558439612032809,-4,-2,-4,-4,-6,-5,-1,-1
1558439612040507,3,2,-2,-1,1,0,-5,-8
1558439612040507,-1,-2,0,1,5,6,6,6
1558439612040507,1,-2,-1,0,2,2,-1,-1
1558439612040507,1,1,3,1,4,5,6,1
1558439612054772,-2,-1,-2,-2,-7,-6,-1,0
1558439612054772,-3,-1,-2,-1,-3,-14,-4,-1
1558439612062730,-4,-5,-3,-1,1,0,0,-4
1558439612062730,1,-3,0,-2,-5,-1,-3,-3
1558439612078448,-3,-1,-3,-2,-4,1,-3,-5
1558439612078448,-1,-2,-3,-1,2,5,-1,-2
1558439612084734,7,2,0,0,-2,-11,-3,3
1558439612084734,-10,-6,-1,0,-2,-2,-3,-1
1558439612100874,-13,-7,-1,0,-1,2,-1,0
1558439612100874,2,0,1,-2,-3,-2,-2,-3
1558439612100874,1,3,3,3,7,-6,0,5
1558439612100874,5,0,1,-3,-7,0,-4,-2
1558439612114659,3,0,-1,-2,6,5,3,1
1558439612114659,-2,-1,0,1,8,6,3,3
1558439612122661,-2,1,-1,-3,-6,-5,-1,-4
1558439612122661,-4,-3,-4,-3,-4,-3,-4,-2
1558439612137625,2,0,-2,0,-3,-5,0,4
1558439612137625,-3,-5,-3,-1,-7,-8,-4,-7
1558439612144577,2,4,0,1,3,4,0,3
1558439612144577,-2,0,-2,-1,-7,-8,-7,-5
1558439612160748,-1,-1,-2,-2,-7,-1,-2,0
1558439612160748,1,1,0,0,5,7,6,2
1558439612160748,-2,0,-1,0,3,5,2,-2
1558439612160748,-3,2,0,1,4,2,-1,-1
1558439612174498,-4,-6,-3,-4,-6,-10,-4,-4
1558439612174498,5,5,0,-1,-2,1,-1,0
1558439612181596,-4,-5,1,0,6,-3,4,3
1558439612181596,1,-1,0,-2,-6,0,-3,-4
1558439612198434,4,3,1,0,8,12,6,1
1558439612198434,1,-2,-4,-2,-9,-9,-5,-1
1558439612204793,-12,-6,-4,-1,-8,0,-5,-7
1558439612204793,0,-2,-1,-1,6,-5,2,4
1558439612221410,-2,-1,0,-1,-8,-9,-8,-6
1558439612221410,-1,0,-1,-2,-1,-5,1,1
1558439612222371,6,4,-1,-1,4,8,7,4
1558439612222371,-1,-4,-2,0,2,3,-1,-2
1558439612242661,-1,-1,0,0,-3,5,4,4
1558439612242661,-6,-2,0,-3,-3,-6,-4,-7
1558439612243314,0,-2,-2,-4,-9,-5,-7,-3
1558439612243314,-1,1,-2,-4,-10,-6,-6,-6
1558439612265586,1,2,1,4,13,8,6,3
1558439612265586,-3,-3,0,-1,1,-3,-1,4
1558439612265586,3,0,0,0,-1,1,-1,-1
1558439612265586,1,-1,-1,0,-1,5,0,2
1558439612280331,0,5,-1,-3,-6,-12,-7,-5
1558439612280331,-3,-4,-2,-1,5,5,4,3
1558439612281480,4,4,2,-2,-3,-5,-4,-7
1558439612281480,-7,-10,-5,-2,-4,0,-2,1
1558439612294517,-4,-4,1,3,6,6,9,4
1558439612294517,-3,-3,-1,0,-1,-5,-6,-6
1558439612302513,1,2,-1,2,-2,-2,-3,-3
1558439612302513,0,-1,-5,-3,-4,-4,-1,-2
1558439612317427,-1,-3,-5,-5,-13,-4,-9,-7
1558439612317427,2,1,2,0,7,8,10,3
1558439612324100,-4,-4,-2,-3,-5,-10,-4,1
1558439612324100,-1,1,-1,-2,-1,-2,-3,-1
1558439612340054,-6,-5,-2,-1,-6,-5,-7,-5
1558439612340054,1,-1,-4,-2,-3,-2,-6,-3
1558439612341053,-3,-2,-3,-3,-2,2,3,-2
1558439612341053,0,0,1,2,4,4,2,3
1558439612354017,0,1,0,-1,0,-2,-2,-1
1558439612354017,-4,-2,0,0,-1,3,-4,-2
1558439612362029,1,-2,-1,0,5,3,5,3
1558439612362029,1,-2,-2,-1,-5,-4,-2,-1
1558439612378329,-2,-3,-3,-3,-7,-7,-6,-3
1558439612378329,2,0,0,-1,3,2,1,0
1558439612385201,-2,-1,-3,-2,-2,2,-2,-2
1558439612385201,5,3,3,2,8,3,9,4
1558439612400366,-3,0,-4,-4,1,-2,-1,0
1558439612400366,-2,-2,-2,-4,-10,-9,-4,-2
1558439612400893,5,3,1,3,6,5,3,2
1558439612400893,-1,1,-1,-3,-5,-3,-4,-3
1558439612413896,3,1,2,-1,4,6,2,2
1558439612413896,-2,-3,-1,-2,-5,-5,-3,-3
1558439612421835,-5,-3,-2,-5,-9,-1,-5,-6
1558439612421835,4,4,0,0,5,-6,1,4
1558439612436829,-1,-2,2,2,-1,-11,-3,-4
1558439612436829,-5,-2,-3,0,-1,8,4,-1
1558439612444773,1,0,-1,-3,-4,-3,-6,-4
1558439612444773,-5,-3,1,1,1,3,1,0
1558439612459734,5,-2,-2,-2,-3,-1,-3,2
1558439612459734,-1,-1,-3,-1,3,0,2,-2
1558439612460732,-2,-1,2,1,3,-6,-1,0
1558439612460732,-4,0,-1,-2,-1,1,2,-2
1558439612475692,-4,-1,0,0,-1,2,-3,-2
1558439612475692,2,2,1,0,-1,-2,-3,-1
1558439612481708,1,-1,-2,-2,-2,3,0,2
1558439612481708,-5,-4,0,-3,-4,-1,1,-1
1558439612496906,1,-1,-1,2,2,-5,-3,0
1558439612496906,3,0,-3,-1,-1,-4,2,1
1558439612504893,0,1,-3,1,3,-1,-2,0
1558439612504893,-3,-2,-1,-3,-6,-7,-6,-6
1558439612521574,4,2,0,0,-2,3,0,0
1558439612521574,-3,-5,-4,0,0,4,0,-3
1558439612522800,-1,-2,-2,-3,-5,-2,-3,-4
1558439612522800,1,-3,-2,-1,-3,5,-1,-1
1558439612534537,-2,-1,-3,-3,-2,-1,1,0
1558439612534537,4,3,5,2,8,1,7,5
1558439612541517,-1,-1,1,0,3,-4,-1,0
1558439612541517,-5,-6,-1,1,3,3,1,-1
1558439612556911,1,1,0,-1,2,9,7,3
1558439612556911,-2,1,-1,-2,-7,-10,-4,-1
1558439612564454,-7,-4,-3,-4,-2,1,-6,-8
1558439612564454,2,3,-1,0,-6,-7,-6,-2
1558439612587850,-4,1,-3,-2,-2,-5,-2,-1
1558439612587850,-5,-6,-1,-3,-1,0,-5,-2
1558439612588391,-1,0,0,0,1,-7,0,2
1558439612588391,2,1,3,-1,6,5,4,-2
1558439612595836,-2,-3,0,-1,-3,0,-2,-5
1558439612595836,-1,-2,-2,1,-4,2,-1,3
1558439612602795,2,2,-1,0,-3,5,2,0
1558439612602795,2,-1,-3,-4,-11,-12,-10,-3
1558439612617793,-5,-6,-2,-2,-2,2,3,3
1558439612617793,2,5,9,3,3,-5,0,0
1558439612624300,-4,-5,0,-2,3,9,2,0
1558439612624300,2,3,-3,-2,-7,-8,-6,-5
1558439612639612,6,0,-2,3,4,-5,3,2
1558439612639612,-3,-1,-1,-2,2,-1,-7,-3
1558439612656640,3,0,-2,0,-1,-2,3,4
1558439612656640,1,0,0,0,2,-2,3,3
1558439612657207,-1,0,0,-2,-2,5,-4,-4
1558439612657207,-2,-4,-3,-3,-5,4,-1,-3
1558439612662574,-3,-1,-1,0,-5,1,-6,-6
1558439612662574,-4,-2,-2,-2,-3,4,0,-1
1558439612677518,-4,-4,-4,-2,0,-7,0,0
1558439612677518,1,4,-1,1,3,7,5,2
1558439612685215,-4,-3,0,-2,-3,-11,-3,0
1558439612685215,-3,-1,0,1,5,8,1,1
1558439612700115,-1,-1,0,-1,0,3,-3,-1
1558439612700115,-2,-3,-4,-3,-9,-5,-4,-4
1558439612707076,-1,-3,-2,-3,-13,-15,-9,-3
1558439612707076,-2,-2,-2,0,4,5,6,2
1558439612716051,0,3,2,0,7,5,3,1
1558439612716051,-6,-6,-6,-3,-7,-9,-7,-4
1558439612722326,2,0,3,0,6,7,4,2
1558439612722326,-2,-2,-2,-4,-8,-8,-5,-4
1558439612736996,1,3,0,2,4,8,9,4
1558439612736996,3,1,1,-2,4,8,5,2
1558439612744231,-3,-1,-2,1,1,-4,8,7
1558439612744231,-2,-1,3,3,1,-6,-6,-6
1558439612760121,1,1,-1,-3,-11,-12,-10,-5
1558439612760121,-4,-4,-3,-3,-8,-5,-7,-3
1558439612776217,6,2,0,1,11,12,9,2
1558439612776217,-16,-6,-2,-2,-1,2,-1,-3
1558439612776886,0,0,1,1,2,-3,2,3
1558439612776886,1,-2,-2,-1,-4,-6,-2,-2
1558439612782073,-1,-3,-4,-2,-5,0,-5,-4
1558439612782073,2,1,-2,-2,1,-4,0,1
1558439612797217,1,0,-2,-2,2,1,-4,-1
1558439612797217,-6,-1,-1,-1,-1,5,0,-3
1558439612805057,-4,-4,-3,-4,-7,-3,-2,-4
1558439612805057,5,5,0,1,2,-3,1,-1
1558439612827533,-1,-4,1,-1,-1,-4,2,2
1558439612827533,2,0,-1,0,0,0,-4,-3
1558439612828178,-3,-3,0,-1,-10,-4,-8,-6
1558439612828178,1,1,2,0,7,6,7,2
1558439612844137,-1,-4,-5,-2,-2,-5,-1,-3
1558439612844137,1,-1,-1,0,5,1,-2,-1
1558439612844137,0,-2,-3,-2,0,8,4,3
1558439612844137,-1,-5,-3,-2,-5,-7,-3,-1
1558439612873059,0,0,3,1,-2,-7,-5,0
1558439612873059,-1,1,-2,0,4,6,6,2
1558439612874056,-2,-3,-5,-1,-1,-8,-6,-6
1558439612874056,4,1,0,1,1,10,5,2
1558439612888276,-4,-5,-3,-3,-4,-7,-5,-3
1558439612888276,8,4,-1,-5,-8,-13,-4,4
1558439612888276,-7,1,1,0,5,6,3,-3
1558439612888276,-4,-3,-5,-3,-4,-5,-6,-5
1558439612903241,1,0,-1,1,0,6,0,-1
1558439612903241,2,2,1,2,7,6,6,3
1558439612903241,0,-1,0,-2,-4,-10,0,-6
1558439612903241,-2,-3,-1,-1,-4,-6,-6,-3
1558439612917476,0,2,0,2,7,14,5,1
1558439612917476,-1,-2,0,0,-2,-9,-4,0
1558439612933289,0,0,0,0,2,3,2,6
1558439612933289,2,-1,-2,-2,2,-10,-1,-3
1558439612939170,-1,-3,-2,-1,-5,-7,-9,-4
1558439612939170,-4,-3,-2,-3,-2,7,-2,-3
1558439612947146,-1,1,0,0,1,-1,0,-2
1558439612947146,-1,0,0,0,-2,5,0,0
1558439612962131,-1,-2,-1,-5,-6,-11,-4,0
1558439612962131,-2,-1,-1,-1,1,-2,2,-1
1558439612963100,5,2,-1,-1,1,1,-2,0
1558439612963100,-12,-5,-1,-1,-2,3,-4,-1
1558439612977070,2,1,-1,-2,-6,-3,-1,-3
1558439612977070,-2,-3,-2,-1,-7,-9,-6,-3
1558439612985275,0,1,1,2,12,11,9,5
1558439612985275,5,5,3,1,6,5,9,6
1558439613000299,-3,0,-1,0,-1,1,-1,-3
1558439613000299,-3,-3,0,-1,-4,-3,-5,-5
1558439613007132,-2,-4,-4,-2,-8,-7,-4,-5
1558439613007132,2,2,0,-2,2,0,3,4
1558439613023151,2,1,1,0,-2,-3,-2,2
1558439613023151,-12,-10,-1,-1,-4,-3,0,-4
1558439613030377,0,-1,-3,-2,-7,-3,-7,-4
1558439613030377,-1,-4,-3,-2,-6,-10,-6,-3
1558439613037355,-2,-1,-2,0,4,7,6,0
1558439613037355,-1,0,0,0,6,7,4,1
1558439613053297,-5,-1,1,-2,-5,-8,-7,-5
1558439613053297,0,-2,-4,-2,-4,1,-6,-6
1558439613060165,0,1,1,1,-1,-4,-2,1
1558439613060165,2,-1,1,2,6,5,5,1
1558439613067162,-2,-2,0,-3,-6,-7,-1,1
1558439613067162,5,2,-1,-1,-7,-4,0,0
1558439613083110,-11,-9,-4,-3,-5,1,-6,-3
1558439613083110,0,2,-2,0,0,-8,-3,-2
1558439613083110,-1,-1,0,-1,1,2,1,3
1558439613083110,1,-2,-4,-1,-3,-2,-5,-6
1558439613098773,0,0,0,-2,0,5,5,1
1558439613098773,0,-1,0,-1,-4,1,-3,1
1558439613105012,1,0,0,-2,2,1,1,0
1558439613105012,-5,0,0,-2,-2,-1,3,0
1558439613120828,-2,-2,-1,-1,1,-6,-1,-1
1558439613120828,1,-1,-4,0,3,0,1,0
1558439613126940,8,1,0,0,1,-2,-5,-1
1558439613126940,-18,-8,-1,-1,3,5,1,-3
1558439613143619,-1,-1,-3,-2,-6,-12,-6,-2
1558439613143619,-3,-2,-2,-4,-3,-4,-5,-3
1558439613144615,2,1,2,2,6,17,12,7
1558439613144615,1,1,0,-1,-6,-5,-2,-1
1558439613166557,-2,-2,-4,1,-2,1,-4,-2
1558439613166557,-2,2,-2,-2,0,1,0,-3
1558439613166557,-2,2,0,2,7,-2,4,2
1558439613166557,3,0,0,-1,1,-5,-1,1
1558439613187935,-2,-1,0,-1,1,5,0,-4
1558439613187935,7,2,0,-2,-5,3,-3,0
1558439613188499,-12,-8,-5,-4,-10,-7,-8,-4
1558439613188499,5,2,-1,0,9,11,10,5
1558439613202906,1,2,0,-3,-4,-9,-1,0
1558439613202906,-3,-2,-1,-1,2,9,2,-3
1558439613203495,-2,-5,-4,-3,-9,-8,-5,-2
1558439613203495,0,0,-1,-1,-3,-9,-7,-2
1558439613216851,-3,-2,-1,0,1,4,3,0
1558439613216851,3,4,2,3,5,0,6,5
1558439613224402,0,1,-4,-4,-4,-4,-6,-6
1558439613224402,-1,-2,-3,-2,-5,3,-1,0
1558439613240057,2,3,1,-1,6,3,5,5
1558439613240057,-4,-4,-5,-3,-4,-7,-5,-6
1558439613247787,1,2,2,1,4,7,4,0
1558439613247787,1,-1,2,0,-4,-5,-3,-4
1558439613263103,2,0,0,-2,-1,10,2,-2
1558439613263103,-6,-2,-1,-3,-4,-2,0,3
1558439613263103,0,-2,-3,-1,1,-4,-1,0
1558439613263103,1,2,-1,-1,5,4,-1,1
1558439613277088,3,-2,-2,0,2,-6,-1,2
1558439613277088,1,1,0,-1,3,1,-2,-4
1558439613285159,0,1,0,0,-7,-6,-2,-1
1558439613285159,-1,-1,-1,-1,0,3,-1,-1
1558439613300225,-4,-3,-4,-3,1,5,0,-3
1558439613300225,1,0,-1,-3,-9,-3,-6,-1
1558439613307104,1,3,4,1,4,-10,2,5
1558439613307104,-1,1,1,2,5,-1,1,-2
1558439613323242,-1,-3,-2,-2,-4,0,-5,-2
1558439613323242,-2,-3,-5,-2,-2,-1,-2,-3
1558439613323242,4,1,-1,-2,0,2,-2,-2
1558439613323242,-1,-1,-3,-1,0,-1,-4,-2
1558439613337311,-5,-4,-1,0,-2,-2,0,3
1558439613337311,-1,-1,1,0,1,-7,-1,0
1558439613344260,3,0,1,0,7,0,4,5
1558439613344260,-4,-2,-3,-2,-1,1,-3,-3
1558439613358966,-2,-1,-2,-2,-1,1,2,-1
1558439613358966,-2,-4,-3,-1,-5,-2,-5,-1
1558439613366943,-6,-4,-5,-4,-8,1,-8,-9
1558439613366943,5,-3,-2,1,-4,-9,1,2
1558439613383333,-2,0,-1,-1,-1,-7,0,1
1558439613383333,-1,1,2,1,3,1,4,4
1558439613383333,-3,-3,0,0,1,2,0,-3
1558439613383333,3,-1,0,-1,-2,3,-1,-1
1558439613397862,-2,-3,-4,-4,-9,-5,-7,-5
1558439613397862,0,1,2,2,5,-2,3,1
1558439613405232,-4,-3,-6,-5,-4,-4,-8,-6
1558439613405232,-2,-2,-1,-3,-1,2,3,3
1558439613420239,6,1,2,1,-1,0,0,0
1558439613420239,-12,-6,1,1,0,-3,-2,1
1558439613427278,-1,2,0,0,6,8,3,-3
1558439613427278,-6,-4,-1,-1,-3,-7,-5,-2
1558439613443156,0,2,-1,-1,-1,2,-4,-2
1558439613443156,4,2,-2,-5,-6,-3,-4,-2
1558439613443156,-1,0,2,0,-1,8,4,4
1558439613443156,-7,-3,-2,0,0,-6,-3,0
1558439613456929,0,-2,-2,-1,2,-5,3,2
1558439613456929,-1,-2,-4,-3,-8,-2,-7,-6
1558439613465063,-1,-3,1,1,3,-3,2,1
1558439613465063,0,1,0,-2,-4,0,-5,-4
1558439613487620,-4,-2,0,-1,0,-1,1,1
1558439613487620,4,2,0,1,3,4,4,1
1558439613487620,-4,-3,-1,-2,-6,-4,-5,-3
1558439613487620,0,-2,-2,-2,-4,3,2,2
1558439613502619,-5,-1,-1,-1,-3,0,-2,-8
1558439613502619,-2,-2,-1,0,2,-3,3,1
1558439613503577,2,0,-2,-1,-2,-3,-2,-2
1558439613503577,4,1,1,1,5,2,1,2
1558439613516578,0,-1,0,-2,-1,-3,-2,-2
1558439613516578,2,-2,-3,-3,-3,3,-7,-6
1558439613524522,-4,-3,-3,-4,-12,-12,-10,-6
1558439613524522,1,1,-1,0,13,8,11,4
1558439613539934,4,4,1,0,3,4,7,3
1558439613539934,-6,-6,-1,-2,2,4,-2,-1
1558439613547468,-1,-1,-3,-2,-3,-2,-4,-2
1558439613547468,-3,-1,1,1,1,1,-1,-2
1558439613561424,1,1,-1,1,-2,-4,-1,-2
1558439613561424,1,0,-1,-2,-2,-9,-6,-4
1558439613570398,-1,0,0,-2,-2,3,-1,-2
1558439613570398,-2,-1,-4,-4,-4,-2,-2,-3
1558439613577774,-4,-2,0,1,11,11,5,2
1558439613577774,0,-2,-2,-3,-9,-10,-4,-2
1558439613584791,4,5,2,3,9,9,10,5
1558439613584791,-1,-2,-3,-3,-4,-3,0,0
1558439613599774,-4,-4,-2,-1,1,-1,-4,-2
1558439613599774,-2,-2,-4,-1,1,-5,0,-1
1558439613606766,0,-1,-1,-2,-3,-1,-4,-4
1558439613606766,-5,-4,-5,-3,-13,-10,-9,-6
1558439613622730,-1,-3,0,1,0,-2,-2,2
1558439613622730,0,2,3,2,9,9,9,0
1558439613630675,-1,-3,-1,-2,-3,-2,0,0
1558439613630675,-2,-1,0,-1,1,4,-5,-7
1558439613637553,2,-1,-2,-3,-6,-11,-6,-2
1558439613637553,11,6,1,0,-2,-4,-2,1
1558439613644579,-18,-9,-4,0,0,3,-2,2
1558439613644579,-1,1,2,1,-4,0,-1,-4
1558439613659578,0,-3,-1,-2,4,8,2,-1
1558439613659578,6,2,3,-1,2,-5,1,6
1558439613667520,0,1,-3,-1,-5,-4,0,-3
1558439613667520,0,1,1,1,2,0,1,2
1558439613682475,-3,-2,-3,-3,-6,-11,-8,-5
1558439613682475,-4,-1,-2,-1,-1,8,1,-3
1558439613690272,2,-1,0,1,9,10,4,3
1558439613690272,-5,-3,-2,-2,-1,-5,1,0
1558439613697448,2,0,0,0,-6,-7,-3,1
1558439613697448,-4,-2,-4,-3,-8,-6,-11,-6
1558439613705078,-2,-5,-3,0,-2,-1,2,1
1558439613705078,3,3,0,0,7,7,7,4
1558439613720149,-5,1,1,-1,-3,3,-2,-3
1558439613720149,0,0,0,0,4,-2,0,2
1558439613727288,3,2,0,0,1,-4,2,-1
1558439613727288,-3,-3,-1,0,-3,-1,-2,-3
1558439613741969,-6,-3,-3,-4,-8,-4,-7,-3
1558439613741969,-5,-3,-2,-2,-5,0,0,-2
1558439613749921,2,2,-3,-3,-4,-7,-7,-5
1558439613749921,6,0,2,2,4,-10,-2,7
1558439613764879,-2,0,-1,-2,1,6,2,-7
1558439613764879,3,-1,2,0,5,4,5,1
1558439613765880,-6,-3,-3,-3,-7,-3,-3,-2
1558439613765880,-2,-2,-2,-2,-2,3,-2,-4
1558439613778844,-1,0,-1,1,5,-3,1,0
1558439613778844,-4,-3,-4,-1,-6,-5,-2,-1
1558439613786820,3,3,0,-2,-1,3,0,-4
1558439613786820,-9,-6,-3,-3,-7,-13,-8,-4
1558439613801779,3,-3,-1,-1,4,7,4,5
1558439613801779,1,1,1,-2,-7,-3,-2,-4
1558439613810203,-4,-2,-1,-2,2,3,-4,-1
1558439613810203,0,2,1,1,-1,-2,-2,1
1558439613825213,3,3,0,-1,-3,-4,0,3
1558439613825213,-3,-3,-1,-1,0,1,3,-3
1558439613826209,0,-2,-2,-3,-2,-7,-3,1
1558439613826209,1,-3,1,-1,-1,2,-1,-3
1558439613839688,-1,0,0,0,2,2,2,-1
1558439613839688,1,-2,-1,-5,-3,5,-2,-3
1558439613847154,1,1,1,-1,-3,-6,-2,3
1558439613847154,-5,-6,-5,-2,-5,-6,-3,-1
1558439613862116,-1,1,-1,0,7,7,8,4
1558439613862116,1,3,1,0,1,-2,-4,-7
1558439613870446,2,4,-1,0,-1,-6,-5,-2
1558439613870446,0,-1,-2,-3,-9,-5,-1,-1
1558439613885406,0,0,-2,-2,-7,-5,-3,0
1558439613885406,-4,-6,-5,-2,-2,-3,-2,-1
1558439613886049,2,-1,1,0,3,8,5,1
1558439613886049,3,4,1,0,0,0,0,0
1558439613900014,-4,-3,-3,2,5,7,4,-1
1558439613900014,0,2,-2,0,-1,0,-4,-1
1558439613906995,-1,-4,-2,-1,-5,-4,-1,-2
1558439613906995,1,-3,-1,-1,2,0,-2,-1
1558439613922307,2,-3,-2,-1,-4,-2,0,-1
1558439613922307,-17,-5,0,1,1,-6,-1,0
1558439613930059,-3,-4,-2,-2,2,3,1,1
1558439613930059,-4,-2,0,-2,-1,5,3,-2
1558439613945220,2,1,-1,-1,-7,-11,-8,-7
1558439613945220,2,-1,-1,0,1,-1,2,2
1558439613945894,-2,-5,1,1,5,5,2,2
1558439613945894,-1,-2,-3,-2,1,4,-1,-2
1558439613958853,-2,-2,3,-1,2,2,6,4
1558439613958853,-2,-3,-5,-2,-8,-6,-7,-3
1558439613966835,-1,1,1,2,2,-5,-4,-3
1558439613966835,3,3,0,-3,-2,2,0,3
1558439613981793,-1,-3,-2,-2,-5,-1,-9,-8
1558439613981793,1,4,2,1,4,-1,3,3
1558439613989772,-1,1,-1,-1,-1,-3,4,3
1558439613989772,1,-2,-1,-1,-1,-5,-2,-3
1558439614004731,-4,-8,-4,-2,0,9,3,3
1558439614004731,4,2,1,0,3,3,0,3
1558439614005729,0,-2,-3,0,-1,-5,-1,-2
1558439614005729,-5,0,-1,-2,1,1,0,-1
1558439614019709,0,1,0,-2,-7,-12,-9,-2
1558439614019709,-1,-5,-4,-3,-2,0,0,0
1558439614027048,1,-2,-1,-2,-3,-4,-3,1
1558439614027048,0,-1,-3,2,1,-4,-2,-3
1558439614041633,-1,2,0,0,8,11,9,-1
1558439614041633,-2,0,1,1,1,4,2,0
1558439614050624,0,-1,-3,-1,-1,-4,-1,-1
1558439614050624,1,-2,-6,-1,-5,1,-4,-1
1558439614064928,0,-1,-1,-3,-2,-3,-5,-2
1558439614064928,-9,-6,-2,-1,-2,-1,2,5
1558439614065571,0,2,-1,-1,-7,-3,-5,-8
1558439614065571,-1,0,-1,-1,-2,-5,0,0
1558439614079534,4,5,3,3,3,-1,5,4
1558439614079534,-8,-7,-3,-1,0,0,-3,-4
1558439614086513,-2,-3,-1,-3,-2,1,-2,2
1558439614086513,-3,1,1,-2,-2,1,-5,-6
1558439614101473,-1,0,-4,-2,-3,0,2,-2
1558439614101473,6,0,-2,0,4,3,3,1
1558439614109638,0,-1,1,0,2,3,0,2
1558439614109638,-3,-1,-1,-3,-2,2,-1,-2
1558439614124412,-2,-2,-3,0,3,-1,-4,1
1558439614124412,3,-1,-1,-3,-6,-5,-4,-4
1558439614125408,2,0,-1,-2,-3,-3,5,0
1558439614125408,-2,0,3,2,2,-3,1,-3
1558439614139574,0,-1,-2,0,1,5,-1,1
1558439614139574,-1,0,-2,-1,-2,5,-4,-1
1558439614146355,-4,-1,0,-2,-4,-5,-6,-2
1558439614146355,1,-1,2,2,5,4,4,2
1558439614161313,0,-1,1,-1,1,-5,1,-1
1558439614161313,1,3,-1,0,-1,1,0,-1
1558439614170295,0,-3,-1,-2,-2,-1,-1,0
1558439614170295,-1,1,1,-1,-5,-9,-7,-1
1558439614184251,-2,0,-1,-2,-3,-2,-3,-3
1558439614184251,-6,-2,1,2,4,-1,-2,-3
1558439614192230,-8,0,-1,-1,3,5,0,-3
1558439614192230,-3,-5,-1,-2,0,-3,0,-2
1558439614199406,-4,-4,-3,-3,-4,-11,-3,-2
1558439614199406,3,-3,-2,-3,-8,-5,-3,-2
1558439614207198,-1,2,-1,-2,0,4,-2,-6
1558439614207198,1,1,1,2,8,9,11,5
1558439614222509,-1,0,0,-1,-7,-6,-6,-5
1558439614222509,0,-1,0,-3,-3,0,-2,0
1558439614230129,-1,-2,-1,1,4,3,3,3
1558439614230129,-1,-2,-3,-1,-4,0,0,0
1558439614245088,4,2,-1,-1,0,-1,-1,3
1558439614245088,-1,-3,-1,-2,-4,-6,-5,-4
1558439614246086,1,-1,-1,1,-3,1,-1,-1
1558439614246086,0,-1,-1,-1,2,-2,5,2
1558439614259051,-2,1,-2,0,-2,-3,-4,1
1558439614259051,0,0,-3,-4,-3,-6,-5,-4
1558439614267220,-1,-2,0,-1,0,3,-3,-1
1558439614267220,1,0,-1,-2,-3,3,2,3
1558439614281991,-5,0,-2,-4,1,-3,-1,-2
1558439614281991,0,-1,0,1,2,3,3,-1
1558439614289970,2,-1,-4,-3,-8,-15,-9,-5
1558439614289970,11,4,0,0,3,2,-3,0
1558439614304928,-15,-8,1,-1,-4,-6,-4,-5
1558439614304928,0,0,0,-1,7,3,6,7
1558439614305927,-4,-2,-2,0,-3,0,-2,0
1558439614305927,1,1,0,-2,-6,-2,-6,-8
1558439614318900,2,-2,-2,1,2,5,0,-1
1558439614318900,-1,-1,0,2,5,-1,5,2
1558439614326887,1,-4,-3,-2,-6,-10,-5,-2
1558439614326887,-1,-1,0,0,0,4,0,1
1558439614341832,-3,-1,-5,-1,-1,4,-1,-6
1558439614341832,-3,0,-1,-2,-1,7,0,-2
1558439614350021,1,2,1,0,0,2,3,1
1558439614350021,-6,-3,-1,-3,0,-3,0,-1
1558439614364773,8,4,-1,0,-2,-6,1,0
1558439614364773,4,0,1,-1,-2,-3,-2,1
1558439614365765,-3,-3,-1,0,2,2,-1,-4
1558439614365765,-2,-4,-5,-2,-4,-3,-1,4
1558439614378731,3,3,3,-1,0,-1,0,0
1558439614378731,1,-1,-2,-1,-7,-6,-6,-4
1558439614386710,-1,0,0,1,4,0,0,-1
1558439614386710,-4,-1,-1,-1,-3,-4,-4,-5
1558439614409648,2,1,1,-1,1,3,0,1
1558439614409648,-1,3,-1,0,0,9,6,-3
1558439614410645,-4,-5,-2,-2,-2,2,2,0
1558439614410645,4,1,-3,0,-1,-5,0,0
1558439614424617,-13,-4,-2,-1,-6,-8,-6,-1
1558439614424617,1,1,2,-1,-1,-5,-2,0
1558439614425605,-2,0,0,-2,-3,-3,0,0
1558439614425605,0,-1,-1,-1,0,1,-4,-5
1558439614439577,3,-1,-1,-1,4,6,3,2
1558439614439577,-3,-7,-3,-1,-1,-5,1,0
1558439614446550,-1,-2,-3,-1,-1,-2,2,-1
1558439614446550,-4,1,1,-2,0,-7,-7,-1
1558439614461511,0,0,-2,-2,1,1,-1,0
1558439614461511,0,-2,0,1,3,3,1,-2
1558439614469702,1,-1,-2,-1,-5,-5,-2,4
1558439614469702,-4,-1,1,-1,3,5,2,-6
1558439614484593,-3,-5,-3,-2,-3,-3,-3,1
1558439614484593,0,2,0,0,-2,-2,-4,3
1558439614492444,0,-2,-4,-4,-3,-6,-2,-3
1558439614492444,-1,-1,0,-1,1,1,-1,1
1558439614499408,-2,-3,-1,-3,-6,1,-7,-8
1558439614499408,-2,-4,-3,-1,-7,-2,-4,-3
1558439614506389,2,2,1,0,0,-6,0,3
1558439614506389,-5,-1,-4,-3,-2,-1,0,1
1558439614522380,1,1,1,1,9,3,5,3
1558439614522380,2,3,0,0,3,-1,3,1
1558439614529329,-2,0,-1,1,3,6,1,-1
1558439614529329,3,-2,-3,-2,-7,-6,-4,-1
1558439614544289,-3,-1,-4,-4,-11,-5,-7,-5
1558439614544289,-4,-2,-2,-3,-2,1,-1,-2
1558439614552301,6,7,5,3,7,2,2,2
1558439614552301,-16,-11,-3,-1,-4,-3,-1,-1
1558439614559248,-1,-2,0,0,4,-1,1,0
1558439614559248,-2,-1,-1,0,-2,-8,-2,0
1558439614566252,-4,-5,-4,-2,-6,0,-3,-6
1558439614566252,3,1,-3,-2,-2,0,-7,-2
1558439614582188,-1,-3,-3,-3,-7,-7,-3,-3
1558439614582188,-3,-4,-2,-1,2,4,0,0
1558439614589172,-3,-4,1,-1,5,4,3,-1
1558439614589172,2,2,0,0,0,-11,-2,4
1558439614606123,0,-2,-1,0,-2,3,2,-1
1558439614606123,1,1,-1,-2,-3,-4,-3,-4
1558439614612109,-3,0,-1,-1,-4,2,1,-1
1558439614612109,3,0,-3,-3,-2,4,2,-1
1558439614619088,-5,-5,-1,0,-1,-7,-8,0
1558439614619088,0,0,0,0,6,0,4,-1
1558439614635046,1,1,1,1,0,-3,-1,-3
1558439614635046,1,-2,-1,0,1,6,4,2
1558439614642029,-1,1,0,-2,-3,-1,-2,3
1558439614642029,-6,-3,1,-3,-5,-6,-10,-8
1558439614649009,4,0,-2,-2,0,0,0,-1
1558439614649009,-17,-8,-2,-2,-2,0,-1,-7
1558439614663969,0,0,1,-2,-1,2,1,0
1558439614663969,1,1,1,1,6,0,4,6
1558439614672110,2,2,2,-1,0,-5,0,6
1558439614672110,2,-1,0,-1,-2,0,-7,-8
1558439614687953,1,-2,-3,-2,-4,-3,-4,-2
1558439614687953,-1,0,-1,-1,-2,2,-3,-2
1558439614687953,-4,-3,-3,-5,-6,-4,-9,-6
1558439614687953,2,-2,1,-1,-1,1,4,1
1558439614702022,-1,1,2,3,11,13,9,0
1558439614702022,-2,-4,-3,-1,-4,-3,-1,2
1558439614708847,-3,-1,-2,-1,-2,-1,0,-1
1558439614708847,0,-1,-3,0,-1,0,-4,0
1558439614724806,2,1,2,-3,-6,-6,-5,-2
1558439614724806,4,3,-2,-1,-1,-2,0,2
1558439614732785,-9,-8,-1,-1,2,4,1,-1
1558439614732785,5,2,1,0,4,-1,0,-1
1558439614747927,-2,0,-3,-2,-1,1,0,5
1558439614747927,-1,1,-1,0,-1,-2,-4,-8
1558439614747927,-3,-1,-1,-1,-10,-3,-5,-5
1558439614747927,0,3,0,-2,-6,-7,-2,-3
1558439614761706,1,-3,-2,2,8,3,3,3
1558439614761706,-3,-1,0,2,9,11,7,5
1558439614769685,-1,-3,-2,-1,-2,-2,-6,-2
1558439614769685,-2,-4,-1,-2,-8,-2,-2,-1
1558439614784662,-3,-1,-3,-2,-8,-13,-12,-5
1558439614784662,3,2,2,-1,-4,-7,-2,3
1558439614792627,2,-1,0,2,12,9,11,4
1558439614792627,1,-1,-1,1,4,1,0,-1
1558439614807586,-1,-3,-3,-2,-6,-3,-4,-8
1558439614807586,-3,-2,-4,-1,3,13,2,-2
1558439614808581,3,3,0,-1,-4,-13,-4,5
1558439614808581,-3,0,0,-2,0,0,-1,-1
1558439614821546,-4,-6,-2,-3,-1,4,-1,-2
1558439614821546,1,0,0,-1,-4,-2,-5,-3
1558439614829525,6,2,1,-3,1,-6,0,3
1558439614829525,-12,-7,0,1,2,-1,0,0
1558439614844487,-2,1,0,-2,-3,-1,2,-2
1558439614844487,1,1,0,-1,5,8,7,3
1558439614852465,-1,0,1,0,-2,1,-4,-4
1558439614852465,1,-1,-1,-3,-2,0,1,1
1558439614867423,-2,-3,-2,-5,-4,1,0,-3
1558439614867423,-3,-4,-6,-1,-10,-11,-9,-4
1558439614868421,2,2,3,4,8,8,11,3
1558439614868421,4,5,2,2,8,-2,4,1
1558439614881388,-1,-3,1,-2,1,3,1,3
1558439614881388,0,-2,-1,-1,1,3,1,1
1558439614889376,-4,-3,-5,-3,-9,-6,-11,-10
1558439614889376,-1,-2,-5,-2,-6,-3,-1,-1
1558439614904338,-1,1,-2,1,0,-9,-3,-4
1558439614904338,0,-2,-3,-2,0,1,0,-1
1558439614920283,-1,0,-1,-1,0,-7,-3,0
1558439614920283,1,0,0,3,5,10,2,0
1558439614927264,-1,-2,0,-2,-3,-2,-2,-1
1558439614927264,0,-3,-2,-6,-8,-4,-8,-6
1558439614928263,4,0,0,-1,-1,2,3,1
1558439614928263,-4,-1,1,1,1,-3,2,0
1558439614941230,2,1,3,2,5,4,5,4
1558439614941230,1,0,0,-3,-5,-8,-4,0
1558439614949372,1,0,-4,0,3,12,1,0
1558439614949372,-3,-3,-1,-2,-1,-7,-3,-3
1558439614964167,-2,0,-2,-1,-3,-1,0,-2
1558439614964167,-2,0,1,1,1,-4,3,4
1558439614972145,-3,-3,-1,-2,0,0,-2,-3
1558439614972145,5,-1,-2,-5,-5,-3,-7,-4
1558439614987139,-2,-2,-3,0,3,2,2,-1
1558439614987139,-2,-3,0,-2,-3,-3,0,-1
1558439614988105,-5,-2,-1,0,-3,-4,0,-1
1558439614988105,-1,-2,-3,-2,-1,1,-3,0
1558439615002065,1,-1,-3,-1,-2,2,0,-3
1558439615002065,-2,-1,0,-2,-3,-3,-1,-2
1558439615009046,0,-3,-1,0,-2,-7,-1,2
1558439615009046,-3,-3,-1,0,4,3,2,-5
1558439615024010,3,4,1,0,-1,-5,-2,3
1558439615024010,-3,-3,1,0,0,-2,-2,-1
1558439615031984,-3,0,-3,-5,-7,-5,-6,-4
1558439615031984,2,1,-4,-1,-9,-9,-6,-3
1558439615047147,-4,-3,-3,0,5,9,2,-3
1558439615047147,0,0,2,2,5,2,5,-1
1558439615047942,-4,-4,-2,-4,-3,3,0,-1
1558439615047942,4,3,1,-1,-4,-2,1,4
1558439615061906,2,3,0,-1,-5,-4,-1,0
1558439615061906,2,-1,-2,-1,-4,-4,-3,-1
1558439615068884,-4,-2,-2,0,4,5,-1,-2
1558439615068884,-5,-3,-1,0,1,0,1,1
1558439615083854,2,-1,-3,-3,-7,-7,-7,-3
1558439615083854,4,2,0,-1,2,3,1,1
1558439615092820,-4,1,2,-1,0,1,-5,-2
1558439615092820,-1,-2,-3,-3,-8,-4,-6,-1
1558439615107784,-2,0,2,2,6,4,3,3
1558439615107784,-4,-3,-3,-2,0,-9,0,2
1558439615107784,0,-1,0,-1,-3,1,0,-1
1558439615107784,0,-3,-1,-2,-5,-4,0,-2
1558439615121744,0,0,-1,-2,-5,-6,-6,-2
1558439615121744,-1,-1,-3,0,1,-1,-2,-1
1558439615128728,-2,-1,-3,0,2,-1,0,-1
1558439615128728,0,-1,-2,0,0,2,-3,0
1558439615144812,1,1,2,0,-3,-3,2,1
1558439615144812,-3,-3,-1,-4,-4,1,1,-5
1558439615152720,0,-2,-2,2,3,0,1,0
1558439615152720,2,3,1,-1,1,3,1,0
1558439615167622,7,1,2,-1,0,-8,2,3
1558439615167622,-17,-9,-4,0,-2,5,-5,-8
1558439615168618,2,0,-1,-2,-5,-4,3,6
1558439615168618,0,1,1,-1,0,-8,-7,-4
1558439615181643,3,2,-3,1,4,5,0,-1
1558439615181643,3,3,1,-2,1,-1,1,0
1558439615189561,-3,-3,-2,-2,-3,-3,1,3
1558439615189561,-1,-2,0,0,2,10,4,-1
1558439615204522,-6,-4,0,-2,-3,-4,-3,-3
1558439615204522,-1,-1,-2,-2,-5,-4,-3,-3
1558439615212523,0,1,2,-1,0,3,3,-1
1558439615212523,1,-2,-1,-2,3,-3,1,1
1558439615227462,-5,-4,-1,-3,5,4,1,2
1558439615227462,-2,0,-2,-1,-3,2,-2,0
1558439615228460,1,2,1,1,-2,4,-1,-2
1558439615228460,-2,-2,-2,0,-3,-10,-4,1
1558439615241424,-7,-4,-3,-3,-2,-1,-2,-6
1558439615241424,3,-1,0,0,-5,-5,-3,4
1558439615249403,-3,-5,-3,-1,-6,-14,-7,-5
1558439615249403,-1,-1,-1,0,3,12,8,1
1558439615265361,1,2,1,4,6,1,2,3
1558439615265361,-12,-6,-3,-2,-6,-2,-6,-5
1558439615272536,-1,-2,-5,-3,-5,-4,-7,-4
1558439615272536,4,6,5,1,11,4,10,6
1558439615287301,-18,-11,-3,-2,-9,-1,-1,-4
1558439615287301,3,1,0,0,-2,0,2,2
1558439615288300,0,2,1,-2,3,-1,1,-2
1558439615288300,-4,-3,-2,-2,-7,-6,-6,-3
1558439615301463,4,2,-1,-2,2,-3,0,-2
1558439615301463,0,-2,0,-1,0,6,5,2
1558439615317221,-6,-4,-3,-1,-2,-2,-8,-9
1558439615317221,2,0,-2,0,0,1,-1,-1
1558439615324203,-1,-3,-1,-2,-2,-1,-3,-1
1558439615324203,-2,-2,2,-1,-5,-7,-6,-3
1558439615332412,4,1,2,1,3,8,7,2
1558439615332412,-4,-4,-5,-2,1,-6,-5,-1
1558439615347140,-1,-3,-2,-2,-7,-5,-4,-2
1558439615347140,1,1,-1,-2,-1,-2,-4,0
1558439615348137,-3,-1,-3,-1,-6,-4,-6,-3
1558439615348137,-3,-2,0,0,3,4,4,3
1558439615362331,1,1,1,-2,-4,-7,-1,-1
1558439615362331,6,5,0,1,4,-6,4,1
1558439615369311,-2,-1,-2,-2,-4,3,1,0
1558439615369311,-3,-4,-4,-6,-12,-7,-12,-7
1558439615384042,-2,1,-1,2,6,5,3,3
1558439615384042,2,1,-1,0,0,-12,-3,-1
1558439615392021,1,-2,-3,0,-1,5,4,-1
1558439615392021,-4,-3,-1,-1,2,5,2,-3
1558439615406982,3,2,3,-1,1,1,-3,-1
1558439615406982,-2,-3,1,0,4,2,1,0
1558439615414961,-1,1,-1,-3,-3,-10,-7,-2
1558439615414961,3,-1,-3,-1,-5,-1,0,-1
1558439615421944,-3,-2,-2,-3,-4,-6,-3,-1
1558439615421944,2,1,0,-2,0,2,0,0
1558439615429932,-2,-4,0,-1,-1,-3,1,0
1558439615429932,1,0,1,1,4,6,2,2
1558439615443881,0,-1,-3,-3,-2,1,-2,-4
1558439615443881,-2,-2,0,-1,-4,-2,-3,-5
1558439615452058,-1,-4,-3,-2,-3,-11,1,7
1558439615452058,0,3,2,2,4,-4,-2,-6
