timestamp,emg1,emg2,emg3,emg4,emg5,emg6,emg7,emg8
1558439638862738,-2,-1,0,5,0,-5,-11,-5
1558439638862738,3,0,1,2,1,3,1,-3
1558439638863736,-4,-3,-1,-4,-1,-4,-4,0
1558439638863736,-3,-5,-5,-5,-4,-7,-4,-4
1558439638867726,-2,0,3,5,3,8,4,0
1558439638867726,-2,-3,-2,-3,1,5,0,-2
1558439638868723,4,1,-2,-7,-1,4,0,0
1558439638868723,-3,-1,0,2,-3,1,-5,-5
1558439638873709,0,0,-1,-6,-8,-11,-5,7
1558439638873709,1,-2,-2,-4,3,4,4,-6
1558439638882685,-1,0,0,4,6,0,6,10
1558439638882685,-5,-3,-2,1,-3,-2,1,-2
1558439638889666,-3,-3,-4,-6,-1,-4,-2,-6
1558439638889666,-1,-1,0,0,-5,-6,-8,1
1558439638913602,-2,-4,-1,4,0,3,3,-3
1558439638913602,2,0,-1,0,3,-8,0,3
1558439638916594,3,4,0,-2,5,9,5,3
1558439638916594,-2,-3,-3,-3,-6,-4,-9,-2
1558439638918591,-2,-3,-1,0,-2,-3,-9,-7
1558439638918591,1,1,0,-4,-3,7,0,-1
1558439638933549,1,-2,-1,0,-5,0,0,-1
1558439638933549,-2,0,1,0,-4,-11,-8,-3
1558439638942524,-1,3,3,2,1,6,3,1
1558439638942524,-2,-5,-3,-1,3,-1,-1,-5
1558439638950503,0,-3,-2,-1,2,2,3,6
1558439638950503,-1,0,1,2,9,12,10,0
1558439638964465,3,0,-5,-7,-13,-10,-7,-3
1558439638964465,-5,-1,0,-2,-6,-1,-6,-5
1558439638972445,-1,1,1,1,2,2,7,4
1558439638972445,2,1,2,0,8,-6,8,6
1558439639019320,0,-1,-2,6,-5,2,-4,-2
1558439639019320,-1,-3,-1,0,-3,2,-4,-4
1558439639020316,-2,-1,-1,-6,-2,3,2,0
1558439639020316,-2,-1,-1,2,-2,2,-2,-2
1558439639020316,-3,-1,-3,-4,-9,-9,-8,-5
1558439639020316,0,-1,-1,-4,-3,-2,0,-1
1558439639024306,-1,2,0,0,3,-1,3,-1
1558439639024306,2,3,1,4,0,-1,-1,2
1558439639025303,-2,-2,-2,-6,1,0,1,-1
1558439639025303,-1,-4,-5,-4,-5,-1,-6,-4
1558439639031287,2,0,0,3,-3,-5,-6,2
1558439639031287,3,-2,-1,-5,-5,-5,2,21
1558439639038268,-9,-1,0,1,7,11,-3,-30
1558439639038268,-1,-2,0,2,0,0,4,-2
1558439639053229,0,0,3,3,12,-5,4,3
1558439639053229,-2,-2,-4,-5,-6,-4,-8,-5
1558439639061208,3,0,-3,-1,-5,2,4,7
1558439639061208,-3,-3,0,-1,-4,-6,-2,-1
1558439639076167,0,-1,-1,-3,-2,7,4,-2
1558439639076167,2,0,-1,1,4,5,3,-1
1558439639084146,-1,1,1,-2,-1,-3,0,5
1558439639084146,1,3,-1,-2,0,1,0,0
1558439639091127,-13,-12,-5,-6,-9,-10,-5,0
1558439639091127,-2,1,-1,1,-2,-3,-3,-9
1558439639098109,2,0,0,1,7,-5,6,8
1558439639098109,-1,3,2,-1,0,-9,-9,-9
1558439639113068,3,1,0,1,1,14,2,1
1558439639113068,0,-1,-2,-2,-1,3,4,2
1558439639121047,-2,-2,0,-1,-6,-6,-9,-11
1558439639121047,-2,-3,-1,0,2,-3,4,11
1558439639136009,1,2,-1,1,-6,-9,-7,-4
1558439639136009,-8,-6,-4,-3,-3,-2,-2,-9
1558439639143987,4,1,-1,-4,-2,-1,0,7
1558439639143987,0,1,-1,0,-4,5,-4,-2
1558439639158945,0,0,1,0,5,6,4,-5
1558439639158945,-2,-3,0,1,6,2,1,6
1558439639159943,-2,-3,0,-3,-6,-8,-4,-2
1558439639159943,-3,-4,-2,-2,-2,-3,-6,-2
1558439639181884,0,1,0,-2,-5,-6,-9,-7
1558439639181884,2,2,3,-1,-1,-8,3,2
1558439639181884,0,-2,1,1,4,8,8,18
1558439639181884,-8,-4,-1,1,5,6,-5,-24
1558439639204823,0,-2,-4,-2,-4,3,1,-1
1558439639204823,-2,-2,1,0,-7,-9,-7,-10
1558439639205822,1,1,-1,-2,-3,-4,-2,0
1558439639205822,3,2,-2,-2,0,0,8,11
1558439639226764,1,1,-1,0,-5,-9,-4,0
1558439639226764,-2,1,3,2,9,10,9,0
1558439639227761,0,-2,-2,0,5,5,4,3
1558439639227761,1,-1,-1,0,0,2,1,1
1558439639233746,-2,-3,-2,-3,-10,-7,-10,-7
1558439639233746,0,-1,0,-1,2,5,2,3
1558439639248704,-1,-1,2,-1,3,-5,1,-1
1558439639248704,4,1,1,2,-2,1,2,1
1558439639255687,-4,-2,-2,-3,-4,-3,-1,0
1558439639255687,0,0,-4,-5,-6,-3,-5,-5
1558439639272643,-2,0,-1,1,-3,-3,-2,-2
1558439639272643,-2,-2,0,-2,5,0,1,2
1558439639273639,4,3,0,-1,2,3,2,6
1558439639273639,-1,-2,-1,0,2,-1,-1,-5
1558439639278626,-2,-3,-2,-1,-4,-2,-3,-3
1558439639278626,0,-1,-2,-3,-6,-6,-8,-1
1558439639294582,-1,0,0,-2,4,1,0,4
1558439639294582,-3,-1,-1,1,1,6,1,-5
1558439639300566,-1,-1,-2,-2,-7,-8,-10,-6
1558439639300566,-5,-3,-5,-2,-5,-3,-7,-5
1558439639315526,2,0,2,3,7,4,9,6
1558439639315526,-1,-2,0,-4,-7,-6,-7,-5
1558439639324502,-1,-2,-5,0,1,8,3,-2
1558439639324502,0,0,0,1,-4,-14,0,3
1558439639330487,-1,-1,-3,-1,-4,-4,-8,-5
1558439639330487,1,-3,-2,-1,-1,-2,-2,-1
1558439639338466,-1,1,-1,-1,0,-1,1,-3
1558439639338466,0,2,1,0,2,0,1,5
1558439639353424,-4,-2,-4,-2,-2,-4,-4,-5
1558439639353424,-1,-1,-2,-4,-7,-7,-7,-4
1558439639360406,0,-1,0,0,-6,5,-3,-1
1558439639360406,-1,-4,-3,-1,5,8,5,-2
1558439639376364,-1,2,4,2,6,-11,0,4
1558439639376364,0,0,-2,1,2,0,0,1
1558439639384343,-2,0,-1,-3,-1,-2,-1,-3
1558439639384343,2,2,-2,-3,-6,1,-4,-4
1558439639391323,0,-3,-3,-3,-5,4,0,-1
1558439639391323,-7,-3,-1,2,0,1,-9,-13
1558439639406284,5,3,1,-2,3,-2,4,9
1558439639406284,-2,-3,1,-1,0,-12,0,-1
1558439639413266,-1,-1,-3,-2,-1,2,-3,0
1558439639413266,-1,-1,-2,0,3,3,7,4
1558439639421244,-2,-1,-3,-3,-5,-4,-9,-7
1558439639421244,-2,-2,-1,0,-2,5,3,3
1558439639436205,-6,-2,-1,-2,-4,1,2,-4
1558439639436205,2,0,1,0,-2,-2,0,1
1558439639444183,2,3,5,3,13,10,7,4
1558439639444183,0,-1,-3,-2,-1,0,-4,-3
1558439639458145,2,-2,0,-1,3,6,7,-2
1558439639458145,-4,-3,-3,-3,-8,-7,-8,0
1558439639466124,-3,-2,-2,0,-4,-9,-5,-5
1558439639466124,-3,-1,0,-1,-1,1,-1,2
1558439639481083,-1,0,-2,-1,-1,5,-3,-4
1558439639481083,2,1,1,1,5,4,5,6
1558439639482080,-2,-3,-2,-3,-6,-13,-4,-4
1558439639482080,0,0,0,-2,0,-8,-3,6
1558439639505028,-1,0,-1,0,2,2,3,3
1558439639505028,-2,-2,-4,-2,-3,0,-5,-6
1558439639505028,-6,-6,-2,-2,-4,0,-6,-2
1558439639505028,3,4,5,5,3,4,10,4
1558439639511004,2,0,-2,0,3,0,1,0
1558439639511004,0,1,-2,-5,-1,-4,-2,3
1558439639526960,-4,-3,-3,-2,-8,-3,-7,-6
1558439639526960,0,-2,-1,1,2,2,7,-3
1558439639532944,0,-2,1,1,0,-3,-9,-6
1558439639532944,0,0,-1,-3,-1,6,4,-2
1558439639548903,-2,-3,-2,-2,-1,-3,-6,-7
1558439639548903,-2,-1,-4,-3,-5,4,-2,2
1558439639555885,-3,-2,-4,-4,-5,-6,-2,-3
1558439639555885,-1,0,1,-1,4,-4,-4,1
1558439639571841,1,0,0,-1,0,5,10,6
1558439639571841,-6,-7,-5,-3,-2,-5,-3,-7
1558439639573836,0,1,3,2,6,-2,1,-4
1558439639573836,-3,-4,-4,-2,-9,-4,-4,-2
1558439639586802,3,2,-1,-1,9,7,4,2
1558439639586802,1,1,0,-2,-5,0,-7,-5
1558439639593782,0,0,-2,-3,-12,-14,-6,1
1558439639593782,1,-4,-1,-1,-5,0,1,5
1558439639600763,-3,-2,-4,-2,-4,-2,-4,-9
1558439639600763,-1,-1,-1,2,6,9,2,-3
1558439639615725,0,-2,1,0,0,-2,1,4
1558439639615725,1,2,4,0,-1,-6,-5,-2
1558439639623703,0,0,-2,-4,-8,-8,-9,0
1558439639623703,-2,0,0,2,10,21,13,0
1558439639630684,0,0,1,-2,-4,-10,-4,1
1558439639630684,2,0,0,-1,-2,2,5,-1
1558439639646642,-7,-5,-4,1,2,3,-3,-1
1558439639646642,2,-3,0,-2,-2,-4,-4,-3
1558439639653623,-2,-2,-2,-4,-4,-4,-6,-5
1558439639653623,2,1,1,1,7,8,7,1
1558439639668583,-2,-1,-5,-3,-6,-4,-1,0
1558439639668583,-1,-1,-2,-1,1,2,0,3
1558439639675563,0,-4,-1,1,-1,-6,-2,0
1558439639675563,-4,-1,-1,-1,-4,-5,-6,-2
1558439639692518,-1,-2,1,-1,0,2,3,-1
1558439639692518,2,2,0,-3,0,-1,3,9
1558439639693515,-5,0,-2,3,1,4,0,-14
1558439639693515,-5,-3,-4,-4,-8,-7,-8,-8
1558439639714460,5,0,4,1,7,5,14,3
1558439639714460,1,-1,-2,-3,-6,-6,-9,-4
1558439639716454,0,0,-1,-1,4,6,2,8
1558439639716454,-1,-3,-2,2,2,-9,-2,-3
1558439639720443,3,2,1,-2,-2,-4,4,5
1558439639720443,-4,0,0,0,-3,3,0,-6
1558439639737398,-2,-6,-5,-3,-3,4,-5,-5
1558439639737398,-1,-1,-2,-1,2,-3,-2,3
1558439639744380,0,0,-2,2,1,-3,-3,-3
1558439639744380,0,0,-2,-3,-8,-3,-2,-2
1558439639758342,3,2,0,-3,-7,-5,-7,-2
1558439639758342,0,-1,0,0,2,-5,2,2
1558439639766320,1,1,2,1,2,4,-2,-1
1558439639766320,-4,-1,-1,2,6,1,-2,-3
1558439639773306,0,-1,-2,-5,-3,1,4,2
1558439639773306,1,-1,-6,-3,-13,-12,-9,-10
1558439639781280,-3,-1,-1,2,7,5,4,4
1558439639781280,-4,-1,-2,-1,-9,-5,-3,0
1558439639796241,1,1,2,1,-1,2,0,-4
1558439639796241,-3,-4,-2,-5,0,-1,2,2
1558439639804220,3,1,1,-1,2,-8,-2,4
1558439639804220,-2,-1,2,-2,-1,0,-4,-6
1558439639811202,-3,1,-3,1,-1,-2,1,4
1558439639811202,-1,3,1,-1,2,8,1,-2
1558439639826161,0,-1,0,-3,-6,-2,0,-4
1558439639826161,-2,-4,-3,0,2,-11,-9,-2
1558439639833142,0,0,0,0,2,-1,-1,1
1558439639833142,2,-1,2,1,0,6,6,6
1558439639849099,-6,-4,-1,-2,-7,-1,-14,-18
1558439639849099,3,1,-2,1,5,-6,6,7
1558439639856081,-2,-4,-4,-2,-4,-3,-1,-2
1558439639856081,0,0,2,1,3,6,6,4
1558439639864060,-2,-3,-2,-2,-4,3,0,2
1558439639864060,-1,0,0,-2,-5,-8,-4,-3
1558439639871044,-2,0,0,0,2,-1,-1,-2
1558439639871044,-1,0,-1,0,0,-2,0,1
1558439639886997,2,-1,0,-1,1,1,2,2
1558439639886997,-1,-3,-1,-1,1,3,-1,-1
1558439639892981,-1,-3,-2,-1,-1,2,1,0
1558439639892981,-1,1,0,-2,-1,0,-6,-4
1558439639900960,2,1,-3,-3,-5,-3,-5,-6
1558439639900960,-1,0,-1,2,1,-1,3,6
1558439639915920,-4,-4,-2,-4,0,1,-1,-1
1558439639915920,-3,-2,-2,-2,-3,-5,-7,-3
1558439639923899,-3,-2,-1,0,0,-2,-3,-6
1558439639923899,5,2,2,0,-1,-7,6,6
1558439639930880,-4,-3,-2,0,-3,-3,-11,-10
1558439639930880,2,3,2,1,-1,2,2,1
1558439639946890,1,2,0,1,6,4,7,8
1558439639946890,-1,0,2,2,2,5,0,-3
1558439639953818,-1,-1,-1,-4,1,1,-2,0
1558439639953818,-5,-5,-3,-3,-4,-6,-4,0
1558439639968778,-4,-4,-2,0,-4,-1,-5,-2
1558439639968778,0,-1,-4,-3,-7,1,-5,-2
1558439639975794,-1,2,1,0,-1,-1,3,0
1558439639975794,0,-1,-1,0,-4,-10,-6,-6
1558439639991717,0,2,2,-1,1,-4,3,3
1558439639991717,-3,-4,-3,-1,0,-1,-3,-1
1558439639998699,3,2,3,0,0,5,0,3
1558439639998699,-3,-4,-2,-2,-3,-2,-5,-5
1558439640013659,0,0,0,-1,1,-2,8,7
1558439640013659,-1,-2,-2,0,-2,5,-1,-2
1558439640021641,1,0,-1,-2,-6,-7,2,7
1558439640021641,0,0,-1,2,9,12,4,-3
1558439640022640,-2,0,-3,-2,-3,-6,-6,-8
1558439640022640,3,1,-1,0,2,1,-2,1
1558439640037595,1,0,-1,-1,1,-3,3,0
1558439640037595,-1,-6,-2,0,4,8,2,4
1558439640043579,0,0,-1,-2,-3,-2,-2,-1
1558439640043579,-4,-3,-3,-7,-16,-9,-15,-12
1558439640058539,0,-1,-3,-3,-3,-7,3,-1
1558439640058539,-1,1,5,4,12,3,13,5
1558439640066518,-3,-2,-1,-2,-2,3,-6,-2
1558439640066518,-1,0,-1,-2,-1,4,1,-3
1558439640081477,0,-2,-1,-2,-3,-6,-2,-1
1558439640081477,1,-1,-2,-4,0,1,0,0
1558439640082475,-1,-2,0,0,-2,0,-1,3
1558439640082475,-6,-2,0,-3,-5,-4,-6,-10
1558439640104423,-2,0,0,1,5,13,3,-1
1558439640104423,1,0,0,-1,2,-6,5,6
1558439640104423,-2,-1,-1,-3,-4,0,-4,-3
1558439640104423,-1,-2,-1,1,0,-9,-1,5
1558439640127360,-3,-3,-2,-3,-4,1,-6,-8
1558439640127360,-1,1,-2,-2,-9,-1,-8,-4
1558439640128352,-3,-2,-3,-3,-2,-6,2,-3
1558439640128352,0,0,0,2,0,-11,-4,3
1558439640141384,-1,-2,1,0,5,5,3,3
1558439640141384,0,-1,0,-2,-3,-1,-3,-2
1558439640142316,0,-1,-1,0,-4,2,-1,-3
1558439640142316,-4,-3,-3,-4,-6,-3,-5,-3
1558439640156279,-3,-3,-2,-1,0,-2,-1,-1
1558439640156279,0,1,-2,4,5,0,5,1
1558439640163358,-2,1,3,-3,-2,-8,-5,-1
1558439640163358,2,-3,-4,-7,-3,-2,2,3
1558439640187202,2,3,3,1,3,0,-1,-3
1558439640187202,-14,-10,-5,-3,-7,-2,-8,-8
1558439640188195,-2,-1,-3,0,1,1,-1,-3
1558439640188195,1,3,4,0,4,1,5,5
1558439640201197,-1,-3,-5,-3,-11,-13,-11,-3
1558439640201197,1,1,2,0,10,16,15,2
1558439640202157,0,-3,0,2,5,1,0,4
1558439640202157,-3,-1,1,-1,-5,-9,-5,-5
1558439640224132,-2,-1,-3,-3,-4,-4,-1,-2
1558439640224132,1,4,-2,-3,-6,-5,-7,-5
1558439640225093,-4,-4,-6,-2,0,-2,-5,-3
1558439640225093,1,1,2,1,5,-3,6,0
1558439640238059,-1,-2,0,-1,4,7,6,3
1558439640238059,1,0,-1,-3,-5,-6,-7,-4
1558439640247034,-1,-4,-6,-3,-8,1,-4,0
1558439640247034,-1,0,2,0,0,0,1,1
1558439640269974,-2,-3,-5,-2,-4,-8,-6,-2
1558439640269974,-1,1,0,-1,-4,-8,-6,-2
1558439640270973,1,-1,2,0,3,7,3,1
1558439640270973,-2,-4,-3,-5,-8,-2,-4,-2
1558439640275957,-5,-2,-1,0,1,-4,-2,-1
1558439640275957,1,-4,-4,1,2,7,8,0
1558439640291917,0,-1,0,0,-2,0,6,1
1558439640291917,-2,1,-2,-2,-8,-10,-10,-5
1558439640297898,-4,-3,-1,2,5,5,-2,-3
1558439640297898,0,1,2,2,7,5,2,3
1558439640313855,1,1,2,0,5,2,4,1
1558439640313855,-3,-2,-2,-1,0,6,-1,-5
1558439640320838,0,-1,0,-2,-5,6,3,7
1558439640320838,-2,-2,0,-5,-10,-14,-9,-5
1558439640328816,6,4,2,4,10,-2,5,11
1558439640328816,-3,-1,-4,1,1,2,-3,-14
1558439640335798,3,3,4,-2,-4,-4,-6,-3
1558439640335798,-1,-1,0,-1,1,5,3,0
1558439640343775,0,-1,0,0,-1,-10,1,0
1558439640343775,-3,-5,-5,-1,7,9,3,5
1558439640358736,-3,-1,-3,0,-5,2,-6,-7
1558439640358736,-3,-1,-2,-4,-16,-14,-12,-6
1558439640366714,-1,-1,2,1,10,14,9,3
1558439640366714,0,1,1,0,-1,-8,-3,-2
1558439640380676,1,0,-2,0,-2,-4,4,3
1558439640380676,2,2,0,-1,6,5,0,-1
1558439640388655,0,-2,-4,-3,-1,3,-6,0
1558439640388655,0,-1,0,0,-2,1,-1,0
1558439640395636,2,2,6,3,7,8,8,3
1558439640395636,-2,-1,0,-2,-5,-10,-3,-3
1558439640403615,-3,-2,-2,-3,-8,1,-1,-7
1558439640403615,3,-2,0,1,-1,-2,3,2
1558439640418575,2,2,-3,-2,0,-8,-7,-3
1558439640418575,-5,-5,-2,2,3,2,1,0
1558439640426612,0,-1,-1,-4,-5,-5,-2,3
1558439640426612,-1,0,1,1,7,10,5,4
1558439640440518,2,1,0,-2,-1,-3,0,0
1558439640440518,-1,-2,-5,-3,-4,1,-2,2
1558439640448495,-5,-2,-3,-2,-11,-3,-6,-8
1558439640448495,0,-1,0,2,6,5,6,3
1558439640455476,-3,-4,-1,-2,3,0,0,1
1558439640455476,2,2,3,1,1,-3,-4,1
1558439640463455,-3,-2,-4,-2,-1,-4,-2,-3
1558439640463455,1,2,0,-2,1,6,2,1
1558439640478415,-3,-4,-4,0,3,6,0,-1
1558439640478415,-3,-2,-3,-4,-13,-16,-8,-3
1558439640486394,0,-1,-1,-2,-4,-7,-6,0
1558439640486394,0,0,1,0,6,-2,3,-1
1558439640501353,-1,-2,-5,-4,-6,-1,-6,-5
1558439640501353,-1,-2,-2,-2,-5,1,-3,-1
1558439640509333,-4,-4,-2,-1,-7,-6,-8,-10
1558439640509333,-1,0,-3,2,5,4,7,4
1558439640524293,0,0,2,-1,-1,-2,1,1
1558439640524293,-1,0,0,0,1,2,3,0
1558439640524293,0,-1,0,0,4,2,2,-2
1558439640524293,-3,-3,0,-3,-2,-6,-1,4
1558439640538255,-2,-1,0,-1,-2,8,4,-6
1558439640538255,0,-1,-1,-3,-5,-2,-6,-3
1558439640546233,-1,-2,0,0,1,0,2,0
1558439640546233,0,1,-2,-1,1,-15,-6,0
1558439640561542,1,0,0,-2,-6,-9,0,6
1558439640561542,-2,-3,-5,-1,5,15,6,-1
1558439640569523,1,2,-1,-2,-6,-5,-2,1
1558439640569523,1,0,-1,-2,-4,0,-2,-3
1558439640584482,-2,-1,1,2,5,-8,0,0
1558439640584482,3,4,5,3,11,9,11,5
1558439640585290,-1,-3,-3,-1,-2,1,-1,-1
1558439640585290,-4,-4,-1,-4,-15,-3,-13,-8
1558439640599256,-2,-2,-2,-1,-4,0,-2,-1
1558439640599256,4,1,2,0,6,-8,2,4
1558439640607358,0,-1,-3,-2,0,-2,-5,-5
1558439640607358,0,-1,-2,0,0,3,1,4
1558439640621200,-1,-2,-2,-1,-2,-8,-2,0
1558439640621200,0,-4,-5,0,1,6,1,0
1558439640629543,0,-1,1,2,4,3,0,1
1558439640629543,-5,-1,-1,-4,-7,-2,-10,-15
1558439640644176,-1,-2,-4,-3,-4,-5,-3,1
1558439640644176,1,0,0,1,-1,-8,1,1
1558439640651154,0,1,2,1,3,0,2,1
1558439640651154,-1,-2,-1,-3,1,5,5,-1
1558439640660134,0,-1,1,-2,0,1,-2,-1
1558439640660134,-4,-1,-1,-3,-7,-4,-5,0
1558439640666138,-3,0,0,-3,-6,-12,-7,-6
1558439640666138,-1,-1,-1,0,3,1,-1,3
1558439640681037,-1,1,2,2,7,12,7,2
1558439640681037,-2,0,-3,-1,0,5,1,2
1558439640689020,-4,-2,-2,-2,-4,-4,-6,-3
1558439640689020,-2,-2,-3,-1,0,-2,-2,-3
1558439640703976,-3,-3,-3,-2,-2,-3,-6,-5
1558439640703976,-4,-2,0,-4,-6,-4,-6,-3
1558439640704976,0,2,0,0,3,1,-1,3
1558439640704976,1,1,1,0,-3,-4,-1,1
1558439640727383,0,0,1,-3,4,4,4,1
1558439640727383,-2,0,0,-1,-1,-1,-3,-5
1558439640727914,-2,-3,-5,-2,-1,2,-3,-6
1558439640727914,-2,-1,-1,-1,-3,0,5,12
1558439640741323,-2,-1,-1,0,3,-3,-6,-9
1558439640741323,-1,0,2,2,1,1,1,-1
1558439640750061,0,0,-3,-2,-1,-8,-3,-2
1558439640750061,-2,-3,0,-4,-7,-3,-10,-5
1558439640764814,-2,-2,-4,-3,-6,-2,0,1
1558439640764814,-2,-1,3,0,-2,-6,-3,-1
1558439640764814,4,3,3,3,10,8,8,2
1558439640764814,-3,-3,-2,-2,-4,-2,1,0
1558439640779062,2,2,2,2,2,0,1,1
1558439640779062,-3,-3,-5,-3,-1,-4,-3,-3
1558439640786891,1,-1,-1,-2,0,9,8,5
1558439640786891,0,1,-1,-3,-2,-7,-3,1
1558439640801022,2,-1,-1,-1,-1,-2,-5,-2
1558439640801022,0,-3,-3,-1,-3,3,0,0
1558439640808995,-1,0,-2,-1,4,2,3,-4
1558439640808995,1,2,1,2,1,3,1,2
1558439640824793,-3,-5,-2,-3,-6,-3,-2,-5
1558439640824793,0,0,-1,-2,4,3,1,0
1558439640824793,-3,-3,-1,-2,-11,-10,-8,-3
1558439640824793,2,1,-1,1,12,1,12,3
1558439640838618,-2,4,0,-3,-6,-8,-10,-5
1558439640838618,0,-2,-4,-3,-2,2,0,1
1558439640846597,-2,-3,-1,2,1,11,7,2
1558439640846597,-3,-3,1,-1,-2,-1,-4,-3
1558439640860589,0,-3,-3,-2,-1,-1,0,1
1558439640860589,-1,0,-3,-2,-8,-4,-3,-1
1558439640869795,-2,-2,-1,-5,-12,-13,-11,-4
1558439640869795,0,0,1,1,6,5,4,3
1558439640883528,0,1,2,2,6,5,6,-2
1558439640883528,-3,-2,-2,-2,0,-2,-4,-4
1558439640884494,0,-1,0,-1,0,2,1,2
1558439640884494,-2,-3,-3,-1,-5,-2,-6,-3
1558439640898456,-2,-1,-2,1,-1,2,-3,2
1558439640898456,3,3,1,1,6,5,2,3
1558439640906436,-3,-2,-2,-2,-1,-5,-2,-3
1558439640906436,-1,2,2,3,1,-7,0,-3
1558439640920425,1,0,-1,-1,-3,-1,1,-1
1558439640920425,0,1,0,-3,-2,-4,-2,4
1558439640929408,-2,-5,-5,0,-3,4,-7,-7
1558439640929408,0,1,1,0,1,6,5,-2
1558439640944683,-1,0,-2,0,3,-5,5,3
1558439640944683,1,-2,1,1,1,-1,-4,0
1558439640944683,-1,2,0,-1,-3,2,-1,-3
1558439640944683,-1,-2,-3,-3,-7,-4,-5,-6
1558439640958645,2,0,-2,0,4,4,0,4
1558439640958645,-3,-1,-4,1,-1,-3,-1,-3
1558439640966623,2,0,0,-3,4,7,5,8
1558439640966623,0,-2,-1,-2,-11,-12,-6,-3
1558439640981688,-2,-1,1,-3,1,5,0,1
1558439640981688,-6,-3,-3,-2,-1,-1,0,-5
1558439640989964,0,1,1,1,3,-1,-2,0
1558439640989964,-1,-1,-5,-2,-1,-2,-1,-3
1558439641013067,-2,-2,-3,-5,-14,-11,-8,0
1558439641013067,-2,-3,-2,1,5,9,3,-3
1558439641013067,-1,-2,-2,-3,-6,-4,-5,-4
1558439641013067,1,-3,-1,-1,5,0,4,9
1558439641018672,-1,-1,0,-2,6,11,8,-3
1558439641018672,-5,-6,-4,-4,-11,-13,-7,-9
1558439641027287,-2,0,-2,3,4,5,2,1
1558439641027287,-2,-2,-2,-4,-6,-7,-8,-9
1558439641041503,0,0,-1,-1,-4,-10,-3,2
1558439641041503,2,2,2,2,7,9,6,7
1558439641049450,-1,-1,-1,-3,-2,-5,-1,-1
1558439641049450,-3,0,-2,0,-1,3,-7,-1
1558439641064106,-3,-1,-3,-3,-6,-2,-5,-3
1558439641064106,0,-1,0,1,-2,-3,-4,0
1558439641065365,-1,-3,-1,-2,1,-6,3,2
1558439641065365,-1,-1,-3,-3,0,-1,-4,-2
1558439641078068,-4,-3,-1,-1,3,5,0,-4
1558439641078068,0,1,-1,-4,-5,-5,0,1
1558439641086316,-3,2,-1,-3,-8,-10,-9,-6
1558439641086316,1,-2,-1,0,2,8,9,4
1558439641101006,-2,-2,0,1,-3,-6,-3,-4
1558439641101006,2,0,3,2,10,13,8,2
1558439641108985,-2,-2,-3,-2,-1,0,2,4
1558439641108985,-1,-1,-1,0,-1,0,0,-2
1558439641123944,0,-2,-3,-5,-9,-9,-8,-4
1558439641123944,-1,0,-2,-2,-1,-2,3,1
1558439641124943,2,-2,1,0,-2,-9,-7,0
1558439641124943,-1,-1,0,0,0,0,2,3
1558439641138344,2,-1,-2,1,3,6,8,5
1558439641138344,-4,-2,0,0,-8,-10,-14,-11
1558439641147320,-1,-1,-3,-2,0,9,4,-1
1558439641147320,-1,2,3,1,8,8,6,4
1558439641160818,-1,0,1,1,0,-2,-6,-2
1558439641160818,-2,-3,-4,-4,-13,-13,-12,-8
1558439641169957,1,1,1,1,1,0,-3,1
1558439641169957,-1,-2,0,-1,3,6,3,-5
1558439641184795,0,-1,-1,0,-1,1,0,0
1558439641184795,1,-2,-2,-4,0,-2,-3,2
1558439641184795,-2,-3,-3,-3,-1,-9,4,2
1558439641184795,-3,-1,-1,0,-2,0,-2,-6
1558439641198920,-2,0,-1,-3,0,2,0,1
1558439641198920,0,2,0,0,5,-1,3,2
1558439641206564,0,-1,0,0,-2,-1,-3,0
1558439641206564,-2,-3,-4,-3,-6,-8,-7,-1
1558439641220535,0,-1,0,-1,-4,1,3,-3
1558439641220535,-3,-2,-3,-1,-2,-2,3,-4
1558439641236751,0,1,2,2,4,-3,-2,4
1558439641236751,0,-2,-1,-3,-1,-1,-7,-3
1558439641243495,1,1,0,0,3,0,2,5
1558439641243495,-1,1,0,-1,-1,0,1,0
1558439641251707,1,0,0,2,-4,0,-5,-4
1558439641251707,0,-2,-2,-2,-2,1,3,4
1558439641258672,-4,0,-1,0,0,-3,-7,-9
1558439641258672,-1,-1,-2,-2,-1,-2,-1,0
1558439641266672,-2,-4,-3,-3,-2,-1,2,-4
1558439641266672,0,2,2,0,-2,1,-4,-3
1558439641281364,0,-1,-2,-2,-6,-7,0,1
1558439641281364,2,-1,1,0,3,3,6,8
1558439641289342,-6,-1,-2,-4,-3,2,-7,-15
1558439641289342,1,-1,-3,-1,-2,-1,1,6
1558439641303304,-1,-1,2,1,7,4,6,2
1558439641303304,-1,-4,-3,-4,-5,2,-5,-4
1558439641312368,0,-2,-1,-2,-6,-3,-5,-4
1558439641312368,2,1,-1,0,5,-6,1,1
1558439641318552,0,0,0,1,7,10,5,1
1558439641318552,-1,-3,-4,-3,-9,-8,-7,0
1558439641327363,-3,1,-1,-2,-6,-1,0,1
1558439641327363,-1,-2,-3,-3,-1,-2,0,-2
1558439641341493,0,3,1,3,6,6,5,2
1558439641341493,-1,-3,-5,0,-3,-1,-2,-3
1558439641349181,-1,-1,1,-1,4,1,4,4
1558439641349181,0,-2,-2,-1,2,-2,-1,-2
1558439641363433,-1,-3,-4,-4,-11,-6,-3,-5
1558439641363433,0,1,2,1,6,4,0,1
1558439641371123,-3,-3,-3,-2,-4,-1,-7,-7
1558439641371123,-1,-1,0,-2,-3,-1,-6,-3
1558439641378143,-3,-4,-6,-2,-6,-7,-2,3
1558439641378143,-3,-1,-3,-2,-6,-7,-9,-10
1558439641386370,1,0,0,0,6,2,6,6
1558439641386370,-2,1,3,3,7,6,4,1
1558439641410051,-2,-3,0,-2,-3,-2,-5,-3
1558439641410051,-1,0,2,-1,-8,-6,-1,0
1558439641410051,-1,-1,-4,-2,-6,-13,-1,1
1558439641410051,-1,-1,2,1,-1,-3,-2,-4
1558439641422982,-3,-3,-3,1,8,4,-1,-4
1558439641422982,-1,0,0,0,2,6,1,1
1558439641432230,-2,-3,0,-1,3,-1,3,6
1558439641432230,-2,-3,-5,-4,-8,-9,-4,-3
1558439641447962,0,-1,3,-1,0,-2,6,5
1558439641447962,-1,-1,-1,0,-2,-1,-2,-4
1558439641447962,0,-2,-2,-2,-3,4,-4,-2
1558439641447962,0,0,-4,0,-1,-3,-6,-5
1558439641460913,-3,-4,-5,-4,-6,-12,-4,2
1558439641460913,-3,-2,-1,0,6,6,4,5
1558439641469894,-3,-2,-2,0,-1,0,-2,-5
1558439641469894,-4,-3,0,-3,-4,6,-1,1
1558439641484094,2,-1,1,0,-5,-1,-2,-4
1558439641484094,-2,0,1,-1,-1,-7,-2,-4
1558439641491802,1,1,1,-1,3,-1,4,3
1558439641491802,-1,2,0,4,6,4,4,0
1558439641507994,-2,-2,-1,-3,-1,4,-3,-2
1558439641507994,0,-2,-5,-2,-4,0,-1,3
1558439641507994,0,-2,2,0,3,6,-2,-2
1558439641507994,-1,1,0,-3,-5,-4,-1,-1
1558439641520722,-1,-1,-3,-2,-1,-2,-3,-5
1558439641520722,-2,-1,-1,-1,-2,-5,0,-2
1558439641529809,-3,0,-1,0,1,7,0,-4
1558439641529809,-1,-3,-3,-2,-3,1,4,8
1558439641543917,1,-1,2,2,4,0,-1,0
1558439641543917,-3,-1,-3,-2,-1,-4,-1,-4
1558439641551917,-1,0,-1,-1,3,2,5,3
1558439641551917,-2,-4,-4,-4,-8,-8,-8,-4
1558439641567863,-1,-2,-1,-1,-3,-1,0,1
1558439641567863,0,-3,0,-1,-6,-7,-6,-3
1558439641567863,2,1,1,-2,1,5,-2,3
1558439641567863,-5,-4,-3,-1,2,-4,-3,-4
1558439641581615,-1,-1,-1,0,0,-5,-3,-2
1558439641581615,-2,-2,-1,-2,1,-1,4,2
1558439641589727,-2,1,-2,-3,-5,0,-1,-2
1558439641589727,0,-2,-2,0,2,6,-1,0
1558439641603503,0,0,-2,-3,-3,-5,-4,0
1558439641603503,2,-1,0,-2,0,-7,-2,0
1558439641611480,0,0,-3,2,3,6,8,4
1558439641611480,0,-1,1,1,4,6,4,-2
1558439641626044,-2,-2,-1,-1,-1,0,-2,2
1558439641626044,1,0,0,-1,-1,2,-4,0
1558439641634771,-1,-1,1,0,1,-6,0,-1
1558439641634771,-1,-1,0,-4,-5,-6,-2,0
1558439641640966,-2,0,-3,-1,-7,-4,-7,-5
1558439641640966,-1,2,0,2,2,8,2,1
1558439641650008,1,0,1,3,6,3,2,-3
1558439641650008,0,-2,-2,-3,-6,-8,-4,-1
1558439641664093,-4,-4,1,-1,-4,-1,-2,-6
1558439641664093,-2,-5,-5,-2,0,4,-1,-1
1558439641671975,2,0,2,1,8,10,9,5
1558439641671975,-2,-1,-1,-1,-2,-6,-3,-4
1558439641686153,0,-1,-2,-4,1,9,4,0
1558439641686153,-2,-1,-3,1,2,4,3,-4
1558439641694882,-3,-3,-4,-1,-1,-2,-4,1
1558439641694882,1,0,-2,1,1,-2,2,1
1558439641701036,-1,-2,-1,1,-1,-2,-3,-1
1558439641701036,0,-1,2,-1,-6,-1,0,-2
1558439641709842,-1,-4,-3,-1,-6,-13,-9,-4
1558439641709842,-1,-2,1,-2,1,1,0,0
1558439641722808,0,1,-4,-1,-3,-7,-2,2
1558439641722808,-2,2,0,-1,0,3,-1,-3
1558439641731783,-1,2,0,0,-1,-3,0,3
1558439641731783,-3,-1,-1,-2,-7,-7,-5,-3
1558439641745745,-3,-2,0,-4,-1,1,-2,-5
1558439641745745,0,2,-1,1,1,1,-2,-1
1558439641755973,2,-2,-2,-1,0,2,1,0
1558439641755973,1,2,0,1,6,4,2,1
1558439641760706,2,0,1,1,3,-1,4,4
1558439641760706,-7,-3,-3,-5,-9,-9,-10,-10
1558439641769680,-4,-4,-4,-7,-10,-3,-5,-8
1558439641769680,-2,-2,0,-1,-8,-5,-2,-6
1558439641783644,0,-2,-3,0,1,-5,1,6
1558439641783644,2,0,0,2,5,2,3,1
1558439641792681,-2,-3,-1,0,-1,-2,-3,0
1558439641792681,0,-2,-2,-1,4,4,4,1
1558439641805594,-1,1,1,-1,-5,-1,0,-3
1558439641805594,1,-1,2,-1,1,-5,0,3
1558439641814562,-1,-2,0,-2,-5,-7,-3,-5
1558439641814562,1,1,1,-2,-3,-2,-1,0
1558439641820557,0,0,2,1,9,8,2,1
1558439641820557,2,-1,-2,-1,1,1,-1,5
1558439641829554,-4,-4,-3,0,-1,-2,-4,-7
1558439641829554,-2,0,-3,-4,-10,-11,-13,-5
1558439641843596,-1,-2,0,-2,0,1,3,-3
1558439641843596,-1,-2,-2,0,2,1,4,4
1558439641852473,0,-1,0,1,-2,-5,-4,0
1558439641852473,0,-1,1,-2,-4,-3,-2,-1
1558439641866498,1,-2,-1,-2,-4,-7,-3,-1
1558439641866498,-1,-1,-1,1,4,8,1,-3
1558439641874405,-1,0,-4,-3,-5,2,-1,-1
1558439641874405,-3,-3,-2,0,-1,4,2,0
1558439641881384,-3,-2,-1,-1,7,2,-3,-6
1558439641881384,2,1,-1,-1,0,-6,1,2
1558439641889364,0,-1,-2,-2,-2,-6,-3,-1
1558439641889364,0,0,-1,2,1,1,-2,-1
1558439641903323,-1,-1,-2,-1,-5,-2,2,3
1558439641903323,-3,-4,-3,-5,-5,-5,-5,-3
1558439641912300,1,1,3,2,3,4,3,1
1558439641912300,-1,-1,-3,-1,0,-8,-3,1
1558439641926262,1,0,0,-1,-3,-2,1,0
1558439641926262,-1,1,0,1,-1,-2,-3,-3
1558439641934241,-3,0,-4,-1,-4,-2,-5,-1
1558439641934241,-3,-2,-2,-1,4,15,6,0
1558439641941576,-3,0,1,3,6,4,4,1
1558439641941576,-1,-4,-1,-1,-4,-10,-5,0
1558439641950200,1,-2,0,-1,0,3,-1,-1
1558439641950200,-1,-4,-3,-4,-7,-2,-1,-5
1558439641963225,-1,-1,-2,-2,-10,-4,-5,-3
1558439641963225,0,-1,-1,1,9,7,7,5
1558439641972144,-4,1,1,-1,-1,-6,-3,-3
1558439641972144,-2,-4,-4,-1,-1,2,-1,-1
1558439641986183,-1,0,0,0,1,4,7,2
1558439641986183,-2,-1,1,-2,-1,6,1,-4
1558439641995094,-3,-2,-2,-2,-1,-7,-5,-3
1558439641995094,3,2,2,1,-1,0,0,-1
1558439642001172,-3,-2,-5,-4,-9,-4,-7,-5
1558439642001172,0,2,1,1,0,-14,-2,3
1558439642010057,-2,0,-1,-1,0,6,0,-4
1558439642010057,2,2,2,-1,6,6,6,3
1558439642024005,-1,-2,-1,0,3,-5,-1,-1
1558439642024005,-2,-1,-3,-2,-3,-1,2,0
1558439642032068,0,-3,-1,-2,-6,-7,-3,-3
1558439642032068,0,0,-1,-1,-1,2,5,1
1558439642045976,-3,-1,-2,-4,-4,0,-8,-10
1558439642045976,0,-1,0,5,5,1,2,3
1558439642054921,-1,-2,-2,-3,-2,-2,-5,-2
1558439642054921,-1,-1,-2,-2,-6,-2,-1,0
1558439642060905,0,-1,0,-1,0,-6,-4,-4
1558439642060905,1,-4,-2,-3,-5,-5,-1,-3
1558439642069884,0,1,-1,0,2,6,7,2
1558439642069884,-4,0,-1,0,-1,-9,-5,-3
1558439642083968,1,-1,-2,-2,-10,2,-3,2
1558439642083968,-1,0,-1,-2,1,2,-5,-6
1558439642092821,1,0,1,1,6,7,6,2
1558439642092821,-3,-4,-2,-2,-7,-10,-9,-3
1558439642105784,0,-3,-2,-3,-4,-4,-3,-2
1558439642105784,0,2,2,0,8,8,6,1
1558439642114762,-1,-1,0,1,-1,-3,0,1
1558439642114762,1,0,1,2,5,-1,1,1
1558439642120744,-1,-1,-5,-2,-5,-8,-7,-2
1558439642120744,-1,0,0,-2,-5,-2,-1,-3
1558439642129720,-1,-3,-2,-3,-4,-1,-4,0
1558439642129720,-3,-3,1,-1,0,-4,-3,-3
1558439642143684,-1,1,3,3,6,3,2,4
1558439642143684,-3,-3,-2,-4,-8,-1,-4,-3
1558439642159643,0,1,1,-1,-2,3,6,2
1558439642159643,-3,-1,0,-1,4,6,3,-1
1558439642165683,0,0,1,-1,0,-3,-1,3
1558439642165683,-3,-3,-2,-2,-2,-6,-3,-4
1558439642174601,2,0,0,-2,2,-3,-2,0
1558439642174601,-2,-4,-6,-2,-3,2,0,1
1558439642180592,0,1,2,-1,5,-1,1,1
1558439642180592,1,0,1,0,3,5,5,7
1558439642189561,-1,-2,0,0,1,-3,-3,-6
1558439642189561,2,1,1,1,2,4,1,-2
1558439642203524,-4,-2,1,-3,-6,-1,-1,-8
1558439642203524,0,-3,-4,-2,-5,-4,-3,3
1558439642212507,2,1,0,4,7,3,8,2
1558439642212507,-4,0,0,0,0,6,1,0
1558439642225527,0,-4,-3,-2,-2,-6,-5,-3
1558439642225527,-3,1,-3,-4,-9,-7,-11,-7
1558439642234515,-3,-1,-2,-5,-3,0,-2,-3
1558439642234515,1,-3,-1,-1,2,-1,3,2
1558439642240433,-4,-3,-5,-1,-3,2,-3,-1
1558439642240433,1,0,1,2,6,7,6,1
1558439642249529,-3,0,1,1,-3,-3,3,0
1558439642249529,0,-1,-1,-3,-2,3,-4,-5
1558439642263472,-2,0,0,0,0,-3,-2,-3
1558439642263472,0,0,1,-1,-3,-10,-4,-1
1558439642272341,0,-1,-3,-1,5,9,1,3
1558439642272341,3,2,3,4,8,4,7,4
1558439642286429,0,-1,0,0,-2,-2,0,-1
1558439642286429,-2,-1,-4,-4,-7,-6,-8,-4
1558439642295279,-3,-3,-3,-4,-7,-3,-3,-1
1558439642295279,-3,-3,-2,-4,-5,-12,-9,-2
1558439642301351,2,2,2,1,6,6,8,2
1558439642301351,1,1,1,1,8,5,7,3
1558439642310237,-3,0,0,-2,-8,-15,-10,-6
1558439642310237,-2,-2,-4,-5,-8,-3,-4,-1
1558439642323214,-2,-1,-1,-1,2,10,-1,-2
1558439642323214,-3,-4,-3,-1,-4,2,-1,-3
1558439642332179,-2,-4,-3,-2,4,4,3,3
1558439642332179,1,1,1,2,3,-3,2,2
1558439642346144,1,0,-1,-1,-1,-4,-2,0
1558439642346144,-3,-5,-5,-4,-7,-6,-10,-7
1558439642355116,1,-3,-2,0,5,6,4,4
1558439642355116,-3,-2,-1,-1,-1,-3,3,-7
1558439642361170,-2,-2,-1,0,0,-2,-4,-3
1558439642361170,0,-2,-2,-2,0,0,3,1
1558439642370080,-3,0,-2,-4,-10,-10,-12,-7
1558439642370080,-3,1,0,0,3,8,3,-1
1558439642383101,0,-2,-1,-1,1,-6,1,7
1558439642383101,-1,-4,-3,-4,-1,3,-2,-1
1558439642392027,0,0,-2,-1,-10,-8,-4,-3
1558439642392027,0,-1,-1,3,5,0,0,2
1558439642405981,1,3,1,-1,3,3,4,4
1558439642405981,-5,-2,-3,-4,-7,-4,-11,-8
1558439642414967,-2,1,3,1,2,5,3,1
1558439642414967,-2,-2,-4,-2,-8,-7,-5,-3
1558439642429977,-2,-1,-3,-1,4,5,4,-4
1558439642429977,2,1,2,4,8,6,5,8
1558439642430914,0,0,-3,-2,-1,-12,-7,-2
1558439642430914,-1,-3,-2,-3,-7,-3,-3,-1
1558439642443881,-1,-2,-2,-3,-9,-4,-6,-3
1558439642443881,1,-1,0,0,0,7,3,-2
1558439642452857,-1,-3,-1,-2,-2,1,-1,0
1558439642452857,2,1,3,-2,3,-3,-2,1
1558439642465872,-5,-2,-6,-2,-9,-9,-6,-5
1558439642465872,-2,1,0,1,4,6,5,0
1558439642474800,-1,-3,-1,-2,2,8,2,-3
1558439642474800,0,3,0,0,0,1,5,0
1558439642489762,-1,-3,1,-1,-4,-4,-1,2
1558439642489762,0,1,-1,1,0,-8,-4,-7
1558439642490755,0,0,0,1,7,1,2,9
1558439642490755,-2,-3,-3,-2,-3,8,-9,-8
1558439642503769,-4,-4,-5,-2,-4,0,-4,-4
1558439642503769,-1,2,1,-1,-1,-6,1,2
1558439642512700,-1,-2,-2,-2,-4,-2,-2,-3
1558439642512700,-1,-1,-1,-3,-1,0,-1,0
1558439642526662,0,-1,0,0,3,0,1,-1
1558439642526662,-1,-3,-1,-2,-6,-6,-5,0
1558439642534640,-1,-1,0,-2,-5,-3,-3,-8
1558439642534640,-3,-4,-5,-2,-9,-3,-4,-1
1558439642549601,2,1,4,3,9,-6,5,2
1558439642549601,-1,-3,-3,-2,-1,-1,-2,-1
1558439642551594,-3,0,-2,0,3,0,2,-4
1558439642551594,-1,-1,1,-1,1,0,-1,-1
1558439642563561,-2,-2,-1,-1,0,5,2,1
1558439642563561,1,-5,-2,-1,-3,-5,-4,-2
1558439642572536,-3,-2,-2,-3,-5,1,-4,-4
1558439642572536,-1,-2,-2,-2,-7,-9,-7,-3
1558439642586528,0,1,3,0,8,5,10,5
1558439642586528,1,2,2,-2,-2,-1,-2,-2
1558439642594623,0,0,-2,1,0,0,2,-3
1558439642594623,-4,1,-2,1,2,0,3,2
1558439642609496,0,-1,-2,-3,-4,5,-4,-3
1558439642609496,-2,-1,-1,-2,-5,-9,-1,0
1558439642611460,1,1,2,1,2,-9,-1,3
1558439642611460,1,-1,2,-2,-3,4,7,4
1558439642623446,-2,-3,-2,-2,-2,-5,-15,-13
1558439642623446,-1,-1,-1,3,3,-1,1,-1
1558439642632385,0,-3,0,-1,1,4,1,3
1558439642632385,1,0,2,1,4,0,3,0
1558439642646339,-1,-2,-3,-1,-4,7,3,0
1558439642646339,-3,-2,-1,-3,-7,-3,-5,-4
1558439642654318,-4,-2,0,-3,-5,-5,-3,-1
1558439642654318,-1,-2,-2,-2,-1,3,-1,-1
1558439642669283,3,1,1,1,0,-3,3,8
1558439642669283,-4,-3,-4,-1,1,5,0,-8
1558439642671274,-2,-1,-2,-1,-1,1,2,-2
1558439642671274,-4,0,-3,-3,-8,-12,-8,-5
1558439642683348,-2,-1,-3,-2,-7,-6,-5,-6
1558439642683348,2,3,2,3,7,12,11,6
1558439642692215,3,3,3,4,7,4,3,3
1558439642692215,-1,-3,0,-1,-2,-2,-2,2
1558439642706186,-1,-2,-4,-6,-5,-11,-5,-2
1558439642706186,-3,0,-2,-1,1,2,-2,0
1558439642715164,-1,0,-1,0,-1,5,-1,-3
1558439642715164,-2,-1,0,-2,-1,-1,0,-3
1558439642730160,0,0,3,1,-2,-4,0,0
1558439642730160,0,0,2,2,7,12,11,5
1558439642731113,0,-3,-3,-4,-11,-10,-13,-1
1558439642731113,0,-1,-2,-1,5,1,-3,-4
1558439642743081,0,-2,-1,-1,-5,-2,-2,-1
1558439642743081,-1,-2,-2,-3,-9,-15,-7,-1
1558439642752058,-1,0,-1,2,1,-1,3,-1
1558439642752058,0,-1,0,-1,-4,-3,-5,-1
1558439642774000,-1,-2,0,2,10,9,4,0
1558439642774000,0,-1,1,-1,1,-3,-2,-1
1558439642781976,-1,-1,0,-3,-6,-9,2,1
1558439642781976,-2,-2,-3,0,0,5,4,-4
1558439642789953,-3,-2,-1,-5,-6,-1,-4,-3
1558439642789953,-1,0,-2,-2,0,-6,-3,2
1558439642790950,-2,-2,-1,0,-4,-6,-7,-7
1558439642790950,-1,1,-2,-2,-6,-4,-1,3
1558439642811895,-1,-1,3,3,11,12,7,1
1558439642811895,1,0,0,-1,1,0,0,-5
1558439642813890,-1,-1,-2,-3,-9,-7,-6,-1
1558439642813890,2,-2,0,0,7,8,5,3
1558439642825856,-2,-2,-2,-2,-4,-2,-7,-5
1558439642825856,-1,-2,1,0,1,5,4,3
1558439642834831,-2,-1,-2,0,0,3,4,0
1558439642834831,0,-4,-3,-3,-7,-12,-10,-9
1558439642849826,-1,0,-3,0,-2,-4,-3,2
1558439642849826,-2,-2,-1,-1,-3,6,0,-2
1558439642850789,0,-1,-3,-3,-2,-9,-2,-1
1558439642850789,-2,2,0,3,6,-1,7,3
1558439642864062,-1,-3,-2,0,-3,0,-2,-3
1558439642864062,2,2,2,1,2,2,4,5
1558439642871733,-1,-2,-1,0,-3,3,-3,-4
1558439642871733,-4,-2,-3,-3,-7,-1,-5,0
1558439642886694,2,2,2,0,3,-1,3,1
1558439642886694,-2,-3,-1,-3,1,3,0,-3
1558439642894900,1,-3,-1,-1,-2,-4,-2,3
1558439642894900,-1,-3,0,-2,2,1,-1,-6
1558439642909996,-1,1,0,-1,-4,1,5,1
1558439642909996,0,0,1,-1,-6,-2,-5,-1
1558439642910631,0,-1,-2,2,9,5,5,5
1558439642910631,-5,-1,0,-2,-6,-8,-9,-8
1558439642923856,-3,-2,-1,-2,-5,-1,-4,-4
1558439642923856,0,0,0,1,0,-9,-3,1
1558439642932573,-4,-2,0,-1,3,4,0,-5
1558439642932573,1,0,0,-1,0,-2,1,1
1558439642945552,-2,-3,-3,0,-7,-11,-5,-3
1558439642945552,1,-1,-3,-3,-5,-2,-3,-2
1558439642954514,-1,-1,1,0,7,7,3,2
1558439642954514,1,2,2,1,4,4,3,3
1558439642977460,-2,0,-1,-1,-2,3,0,-1
1558439642977460,-5,-4,-4,-4,-8,-7,-7,-5
1558439642978451,-2,-3,-4,-3,-8,-3,-7,-4
1558439642978451,3,2,4,6,11,-4,6,4
1558439642983439,3,1,2,-2,3,-3,2,4
1558439642983439,-2,-2,-4,-1,1,7,3,-2
1558439642992413,0,0,-1,-3,-7,-3,-2,-2
1558439642992413,-4,-4,-5,-5,-10,-4,-7,1
1558439643005411,-3,-2,-3,0,1,4,4,-3
1558439643005411,2,2,1,3,4,-1,0,0
1558439643014488,-3,-1,4,2,6,7,4,-1
1558439643014488,0,-1,-1,-2,-9,-9,-7,-1
1558439643030349,-1,-1,0,-5,-11,-12,-7,-3
1558439643030349,0,-4,-3,0,3,10,5,6
1558439643031311,-1,1,-1,0,10,6,6,-2
1558439643031311,0,1,-2,-1,1,0,0,2
1558439643043402,-3,-6,-4,-2,-4,2,-5,-5
1558439643043402,-4,-3,-2,-4,-14,-8,-9,-5
1558439643052251,-1,-1,0,-1,-6,-10,-7,0
1558439643052251,1,-2,0,1,10,7,12,2
1558439643066431,2,2,0,1,-1,-4,3,3
1558439643066431,0,0,0,0,10,11,7,1
1558439643075191,-3,-4,-1,-4,-6,0,-1,1
1558439643075191,-2,1,2,-1,-4,-2,-4,-3
1558439643089297,0,1,-2,-1,2,3,-3,0
1558439643089297,0,1,-4,-3,-8,-13,-5,-9
1558439643097132,0,1,-1,2,8,4,2,6
1558439643097132,0,-4,-2,-2,3,2,4,2
1558439643103175,-4,-3,-2,0,-2,0,-3,-5
1558439643103175,-4,-2,-2,-2,-7,-5,-8,-8
1558439643119126,1,0,1,-3,-9,-5,-1,0
1558439643119126,-1,-1,1,0,0,-7,-6,-2
1558439643126251,2,-1,1,0,9,10,8,4
1558439643126251,-3,-1,-1,-4,-3,-11,-5,0
1558439643135038,-2,0,-2,-1,-3,-1,-2,-5
1558439643135038,-3,-2,-2,-2,-2,0,-4,-3
1558439643148993,0,0,0,-1,-1,-11,1,6
1558439643148993,1,0,2,2,3,-2,0,-3
1558439643155980,-2,-4,-1,-2,-2,-1,-2,-5
1558439643155980,-2,0,-3,0,-3,5,0,-3
1558439643162955,-2,-2,-2,-2,-1,2,0,2
1558439643162955,2,2,2,2,8,11,10,7
1558439643171930,1,2,-1,-2,-4,-10,-8,-1
1558439643171930,-4,-3,-5,-4,-5,-3,-9,-6
1558439643185895,-1,0,1,2,8,8,7,1
1558439643185895,-2,-2,-1,-1,-2,-6,-2,1
1558439643194870,-2,-3,-4,-1,1,3,-2,-8
1558439643194870,-2,-3,-3,-5,-9,0,-5,-4
1558439643208831,-2,-1,1,-2,-4,-3,-3,2
1558439643208831,-1,-2,-1,0,-3,-9,-4,-3
1558439643215812,-1,-1,-1,1,4,2,5,0
1558439643215812,-1,0,0,0,1,1,-3,-5
1558439643222793,-1,-3,-2,-1,-3,3,1,-3
1558439643222793,0,0,2,-1,-2,-1,1,3
1558439643232115,0,-1,-1,-4,-10,-2,-4,-3
1558439643232115,0,-1,-2,0,-3,-3,0,-1
1558439643246075,1,1,2,3,8,-1,6,6
1558439643246075,0,-1,-1,0,8,6,2,-1
1558439643254708,0,-2,0,-5,-5,-7,-5,-3
1558439643254708,0,-1,-1,0,-1,3,-1,-3
1558439643269718,-3,-3,0,-1,1,5,1,0
1558439643269718,-1,-2,-3,-3,-5,-2,-2,-2
1558439643275654,-1,1,2,1,2,3,2,-1
1558439643275654,2,0,-1,1,5,-1,5,4
1558439643284088,-1,-2,-4,-4,-12,-18,-13,-10
1558439643284088,0,-1,-2,0,2,2,2,4
1558439643298966,-1,2,2,1,2,0,2,2
1558439643298966,-2,-3,0,-1,-2,1,0,-3
1558439643305952,0,3,1,0,2,-5,-2,-2
1558439643305952,-2,-2,-3,-2,-7,-4,-5,-5
1558439643314832,-2,-4,-4,-2,-8,-1,-4,0
1558439643314832,3,1,4,2,5,2,3,6
1558439643328514,-4,-4,-5,-1,-1,2,-4,-10
1558439643328514,0,-2,-2,-2,-4,-3,1,0
1558439643336534,1,-2,-1,2,6,1,3,1
1558439643336534,-3,0,0,-2,1,-2,-1,2
1558439643352682,-4,-3,-6,-4,-4,-1,-10,-5
1558439643352682,-1,1,-3,-4,-8,-2,-4,-1
1558439643353451,-3,-2,-2,-2,-3,-7,5,5
1558439643353451,1,0,1,3,4,1,-2,-2
1558439643366504,0,0,0,0,-1,-1,2,1
1558439643366504,-1,-2,0,-2,-2,1,-1,-2
1558439643374428,2,0,-3,-3,-1,-7,-7,-1
1558439643374428,-3,0,-1,-2,-1,-1,-2,-5
1558439643389353,-1,0,0,-2,0,5,-1,-3
1558439643389353,2,0,-1,2,7,5,3,3
1558439643395363,-2,-2,-2,0,-10,-3,-3,-3
1558439643395363,-1,-1,-1,-2,-3,-7,-3,1
1558439643412288,2,-1,0,-3,-3,-3,1,3
1558439643412288,-3,0,1,1,7,7,4,-5
1558439643413285,0,1,-1,-2,-2,-1,3,-4
1558439643413285,-2,-2,-3,-2,0,-1,1,-1
1558439643426250,-2,-3,-5,-1,-6,-8,-11,-5
1558439643426250,1,-1,0,-2,3,2,3,6
1558439643434653,-1,-3,-3,0,1,6,-1,0
1558439643434653,-2,0,2,-2,-3,-3,4,0
1558439643449635,-2,-1,1,0,3,-1,3,1
1558439643449635,0,-3,-1,-3,-4,-6,-2,1
1558439643456170,-1,-1,-2,-1,0,0,-4,-4
1558439643456170,-1,-3,-2,-3,-9,-7,-7,-4
1558439643472440,2,2,1,0,7,14,14,7
1558439643472440,-2,-1,-3,-1,-5,-6,-8,-8
1558439643473128,-3,-2,-3,-4,-4,-5,-5,-2
1558439643473128,1,4,-1,1,12,18,13,1
1558439643486435,1,1,2,0,0,-1,2,2
1558439643486435,0,0,0,-1,-2,-7,-3,-1
1558439643495067,1,-4,1,-1,-2,-3,-1,-2
1558439643495067,-4,-5,-4,-2,-2,2,-3,0
1558439643509343,-3,-2,-2,-2,-1,-2,-5,-3
1558439643509343,-4,-2,-4,-3,-5,-6,-5,-4
1558439643516011,0,-1,-1,-1,-1,-4,1,5
1558439643516011,2,0,0,0,2,-2,-1,2
1558439643532966,-5,-3,0,0,-5,0,-1,-7
1558439643532966,1,-1,-2,-1,-3,-4,-7,-5
1558439643533964,-2,1,0,-2,2,4,1,-3
1558439643533964,1,-1,1,1,-3,0,2,7
1558439643546242,-1,1,0,-1,-5,0,-2,-2
1558439643546242,-1,0,1,0,3,-6,-1,1
1558439643554907,0,-1,2,3,7,9,10,2
1558439643554907,-2,-5,-3,-3,-3,-9,-11,-8
1558439643569094,2,1,1,0,8,2,2,2
1558439643569094,-1,-5,-1,-2,-2,6,2,3
1558439643575852,-4,-1,-3,-2,-8,-6,-11,-10
1558439643575852,0,0,0,-2,-11,-14,-10,-4
1558439643592865,0,-3,-1,1,7,13,7,2
1558439643592865,-1,1,0,0,1,0,1,-1
1558439643593803,1,0,0,1,6,1,2,2
1558439643593803,-1,0,0,-2,-6,-8,-3,-3
1558439643605805,-2,-2,-1,-6,-8,-8,-9,-8
1558439643605805,0,-1,1,1,0,-4,4,4
1558439643614747,-1,0,2,1,7,1,-1,0
1558439643614747,-2,-1,-2,-1,6,13,4,0
1558439643629740,-2,-3,-2,0,-5,-3,-5,-2
1558439643629740,0,-1,-2,-3,-7,4,1,2
1558439643636000,-1,-1,0,-2,-5,-11,-2,-1
1558439643636000,-2,0,-1,-1,-1,-11,0,-4
1558439643652959,0,0,-1,1,6,9,0,3
1558439643652959,-2,-3,-1,-3,0,2,-8,-7
1558439643653647,3,1,2,2,3,7,4,6
1558439643653647,1,1,1,2,0,-4,2,1
1558439643665904,-3,-5,-3,-4,-9,-8,-5,-4
1558439643665904,-2,0,-1,-2,-2,-1,2,-2
1558439643674808,2,-2,-2,-1,0,-1,0,2
1558439643674808,-5,-2,-1,0,1,5,0,-1
1558439643689630,0,-1,-4,-1,-4,-10,-3,-2
1558439643689630,-2,-2,-2,0,-2,-6,-4,-1
1558439643695530,-2,-1,-1,0,4,6,2,-2
1558439643695530,0,0,1,-3,-1,6,4,2
1558439643712486,-3,-1,-3,-3,-5,-2,-5,-10
1558439643712486,0,3,1,3,5,-1,6,3
1558439643713482,-2,0,0,-5,-3,0,-3,-3
1558439643713482,-2,-2,-4,-2,-4,-8,-7,-5
1558439643725476,0,-1,-1,1,0,8,4,3
1558439643725476,-1,-1,1,-2,-2,-1,-4,-2
1558439643734424,-3,0,1,1,5,1,3,-3
1558439643734424,1,-1,-1,0,1,0,1,3
1558439643749394,-4,0,1,1,-1,-6,-4,-2
1558439643749394,-1,-1,-4,-4,-5,-3,-5,1
1558439643756640,-1,-2,-3,-1,5,6,2,-1
1558439643756640,1,0,0,-1,-4,-8,-7,-4
1558439643772750,2,-1,-2,-2,-3,-11,-5,7
1558439643772750,2,-2,1,2,11,10,8,1
1558439643773323,-3,-3,-2,-1,-5,3,-2,-1
1558439643773323,-2,-1,-2,-3,-4,-1,-2,-6
1558439643786286,2,0,0,-2,-3,-8,-3,3
1558439643786286,1,1,3,4,8,10,6,1
1558439643794265,-1,-2,-2,-2,-9,-10,-10,-4
1558439643794265,0,-2,0,-1,1,4,3,5
1558439643808228,-2,1,0,1,1,0,3,-7
1558439643808228,-6,-3,-4,-5,-10,-10,-7,-3
1558439643817206,1,1,1,0,-2,-1,-5,-3
1558439643817206,-2,3,-1,2,7,7,6,6
1558439643832222,-2,-1,1,0,1,-1,1,-1
1558439643832222,-3,-3,-1,-2,-5,-5,-4,-10
1558439643833163,1,-2,-2,0,4,9,4,3
1558439643833163,1,-2,-2,-1,-1,-7,-1,-1
1558439643846126,3,0,0,-2,0,3,4,2
1558439643846126,0,0,0,0,-1,-4,-8,-3
1558439643855104,-4,-3,-4,-6,-17,-13,-13,-7
1558439643855104,-1,-3,-1,1,-3,-6,-1,-1
1558439643868075,0,1,1,-1,6,3,5,7
1558439643868075,-6,-7,-6,-4,-7,-2,-7,-6
1558439643877045,-3,2,-2,0,3,1,0,-1
1558439643877045,-1,-2,-2,-3,-10,-1,-5,-6
1558439643892004,0,0,1,-1,5,6,8,-1
1558439643892004,6,3,3,5,16,8,14,17
1558439643893002,-2,-2,-1,-1,0,-5,-2,-3
1558439643893002,-1,-3,-1,-2,-4,-1,-5,1
1558439643905968,0,0,0,-3,-8,-5,-5,-5
1558439643905968,-3,-1,-5,-4,-10,-1,-8,-6
1558439643914942,1,0,-2,0,-2,-10,-2,6
1558439643914942,1,2,2,1,11,-1,10,4
1558439643927910,-2,-5,-3,-2,-8,-7,-10,-3
1558439643927910,3,4,3,1,7,8,1,3
1558439643936884,-3,-2,-3,-4,-5,2,-3,-5
1558439643936884,0,-1,0,1,4,12,6,-1
1558439643951845,-3,0,2,2,5,2,4,4
1558439643951845,-1,1,2,-2,-6,-14,-5,1
1558439643958828,-3,-4,-3,-3,-6,-4,-5,-9
1558439643958828,-4,-1,-2,-3,-1,8,-4,-5
1558439643965807,0,-3,-3,-4,-4,-12,-3,0
1558439643965807,-5,-4,-3,0,-3,4,0,-7
1558439643974783,6,-1,0,2,9,-1,15,16
1558439643974783,-1,-1,-1,-1,3,3,1,-2
1558439643988749,2,-2,-3,-5,-7,-3,-7,-8
1558439643988749,-12,-6,-6,-6,-16,-17,-18,-10
1558439643996724,6,4,3,5,19,29,18,6
1558439643996724,-2,0,0,1,0,1,-4,0
1558439644011689,-3,-2,-1,3,10,-2,9,3
1558439644011689,0,-2,-3,-3,-2,-3,1,2
1558439644013681,-5,-2,1,-4,-4,-6,-10,-11
1558439644013681,-3,-4,-2,-2,-6,-5,-3,-1
1558439644025648,-1,2,0,-1,2,1,-4,0
1558439644025648,4,-1,-3,-3,-2,6,14,18
1558439644034624,-3,-3,0,-2,-7,-11,-7,-11
1558439644034624,-2,-3,-6,-3,-14,-4,-17,-9
1558439644048586,2,0,-1,1,2,8,2,-5
1558439644048586,-4,1,3,3,15,3,12,7
1558439644057563,-1,-1,0,0,-2,-2,-1,6
1558439644057563,-3,-2,-2,-2,-3,-3,1,0
1558439644071525,-2,-1,-4,-6,-13,1,-11,-7
1558439644071525,1,1,-1,1,3,-3,-2,-1
1558439644078506,-1,-2,0,-3,-1,-15,-3,1
1558439644078506,2,-1,0,-2,-3,-4,-1,-2
1558439644085486,0,0,-1,2,7,3,3,0
1558439644085486,2,-2,-2,-2,-5,4,-4,-5
1558439644094463,-6,-2,-3,-1,-4,-1,-3,-6
1558439644094463,0,-3,-1,-1,1,-3,2,3
1558439644108433,-2,-4,-5,-5,-11,-13,-9,-2
1558439644108433,-5,-4,-3,-1,-6,-4,-5,-10
1558439644117401,3,2,2,1,5,4,3,6
1558439644117401,-3,-1,-1,-1,0,-1,-2,-7
1558439644131366,0,0,0,0,-3,-2,3,13
1558439644131366,5,3,0,2,6,3,5,1
1558439644138349,1,0,1,-1,-1,-1,-7,-3
1558439644138349,0,-2,-1,2,4,9,4,0
1558439644145350,-4,-2,-1,-2,-8,-11,-9,-3
1558439644145350,-6,-3,0,-2,-4,-3,-5,-10
1558439644154304,2,-1,-5,-2,0,3,-1,3
1558439644154304,-2,1,0,0,2,-12,-2,-3
1558439644168276,3,0,0,2,3,2,-3,-3
1558439644168276,6,-1,0,0,9,17,10,4
1558439644177242,-3,-3,-2,3,0,1,4,0
1558439644177242,-2,-3,-4,-6,-8,-5,-8,-2
1558439644191205,-4,-3,-5,-4,-6,-4,-1,0
1558439644191205,4,2,4,3,7,0,5,3
1558439644198188,0,0,0,-3,-5,-2,-5,-5
1558439644198188,3,3,2,-2,-2,-11,0,6
1558439644206165,-2,0,-2,1,3,7,4,-2
1558439644206165,-2,-5,-4,-2,-4,-4,-3,2
1558439644222121,-1,-2,-2,-2,-3,0,3,-4
1558439644222121,-3,-1,-2,-4,-11,-7,-11,-5
1558439644228107,-4,-3,-3,2,4,3,-1,-3
1558439644228107,-1,2,1,-1,8,-2,5,3
1558439644245060,-2,-2,-2,-3,-8,-8,-2,0
1558439644245060,3,-2,1,-1,5,5,4,2
1558439644251054,-5,-6,-2,-3,0,1,-7,-7
1558439644251054,-2,-3,1,0,-11,-4,-12,-2
1558439644266014,-4,-3,-2,-2,-3,-9,-6,-8
1558439644266014,1,3,-1,3,7,8,6,2
1558439644275011,0,3,-2,-3,0,-2,0,3
1558439644275011,-3,0,-2,0,-4,-3,0,-3
1558439644275978,1,0,0,-1,-2,-6,-3,4
1558439644275978,-3,-4,-4,-3,-6,-6,-1,0
1558439644287945,-1,-1,0,-1,0,-1,0,0
1558439644287945,0,1,0,1,-2,5,-1,-5
1558439644296921,-1,1,-1,-1,4,-1,3,0
1558439644296921,3,0,0,-1,6,2,1,1
1558439644311882,-6,0,4,4,2,1,-4,-5
1558439644311882,-1,-4,-1,-6,-3,-3,-2,1
1558439644317868,0,-2,-3,-2,1,4,-1,4
1558439644317868,-5,-1,0,0,1,4,5,-5
1558439644334822,-1,-3,-5,-2,-9,-4,-2,9
1558439644334822,-3,0,-1,0,0,-5,-12,-23
1558439644335817,-4,-1,-1,0,1,4,-1,0
1558439644335817,-1,-3,-3,-2,-3,0,0,2
1558439644347786,1,-2,-3,-2,-2,-9,-3,2
1558439644347786,0,-3,-2,-3,-2,1,-1,0
1558439644356763,0,-2,0,0,-3,5,-1,-8
1558439644356763,0,-3,0,0,3,-5,3,8
1558439644371727,3,2,0,0,0,3,7,1
1558439644371727,-2,-1,0,-2,6,7,3,5
1558439644385761,-1,-3,-5,0,-5,-8,-8,-4
1558439644385761,-3,1,-2,-4,-3,2,-5,-6
1558439644394660,2,0,3,0,1,7,1,-1
1558439644394660,1,-2,-1,0,0,-9,2,8
1558439644395659,1,0,1,1,4,0,4,-3
1558439644395659,-3,-2,-1,1,-2,-7,-5,-1
1558439644408625,-2,-3,-4,-3,-11,-9,-15,-9
1558439644408625,-1,-2,-5,-1,-3,-2,2,0
1558439644417601,-2,1,2,0,7,3,7,4
1558439644417601,0,1,2,0,1,1,-3,3
1558439644431564,-3,0,0,3,8,12,5,-5
1558439644431564,-3,-4,-2,-5,-14,-17,-17,-9
1558439644438547,-3,-3,-5,-5,-10,-16,-11,-2
1558439644438547,1,1,2,6,11,7,16,6
1558439644455501,-2,-1,-1,-2,-5,-5,-2,-1
1558439644455501,0,2,-1,0,6,9,4,3
1558439644456497,1,1,3,0,0,-7,-2,2
1558439644456497,0,-1,1,-2,-4,2,-1,-4
1558439644477441,-2,-4,-7,-4,-2,-2,-1,0
1558439644477441,-2,-3,-3,2,1,1,-1,-5
1558439644478440,1,1,3,2,1,9,7,2
1558439644478440,-3,-3,-2,-4,-4,-3,-3,-7
1558439644499380,3,2,2,2,2,-7,-1,8
1558439644499380,0,-1,-4,-4,-8,-6,-4,4
1558439644501374,-1,-4,-6,-4,-7,-11,-9,-4
1558439644501374,-1,0,0,3,7,8,-2,-11
1558439644514341,-2,2,0,-2,-7,-5,-7,-6
1558439644514341,-5,-4,-3,-1,0,6,1,-6
1558439644516346,1,-1,1,0,0,4,6,9
1558439644516346,-2,1,-1,-2,-3,-6,-4,2
1558439644528305,0,-2,1,0,0,0,4,-2
1558439644528305,0,1,2,0,5,6,-2,4
1558439644537283,-1,-2,-3,-1,-2,4,2,-1
1558439644537283,-3,-3,-4,-2,-5,-4,-6,-2
1558439644551252,2,3,7,2,10,8,9,-1
1558439644551252,-2,-4,-3,-3,-9,-9,-4,1
1558439644566201,-1,2,2,2,3,5,-1,0
1558439644566201,-1,0,-3,-2,-2,0,-1,-1
1558439644574183,2,0,-3,-4,-9,-7,1,8
1558439644574183,-6,-1,-2,1,-2,-2,-6,-14
1558439644576174,1,1,1,1,6,-5,0,0
1558439644576174,-3,-3,-1,-2,-3,-9,1,-1
1558439644588147,0,-4,-4,-3,-2,3,1,-2
1558439644588147,1,2,2,3,2,3,-4,-2
1558439644597119,-5,-4,-3,-4,-5,5,-2,-2
1558439644597119,0,0,-3,-5,-7,-7,-6,-3
1558439644611084,0,0,0,3,8,2,5,4
1558439644611084,-2,-2,0,-4,-6,-5,-3,5
1558439644618066,-3,0,-4,-4,-8,-6,-4,-12
1558439644618066,3,3,3,2,10,11,11,6
1558439644635016,-1,0,2,0,8,2,1,-2
1558439644635016,2,-3,-3,-3,-6,-3,3,5
1558439644636014,1,-2,0,-2,-5,-9,-10,-4
1558439644636014,-1,-1,-1,0,-3,3,-4,-1
1558439644647986,-2,-1,0,1,3,-4,0,1
1558439644647986,2,2,1,-2,2,2,6,7
1558439644664937,-7,-3,-3,-3,-6,-2,-7,-15
1558439644664937,-2,-4,0,-2,0,3,4,1
1558439644671918,0,-1,-3,-2,-5,-6,-8,0
1558439644671918,1,1,0,2,9,15,10,-2
1558439644685881,0,0,1,-2,-2,3,4,4
1558439644685881,-1,-2,-3,-5,-12,-19,-18,-2
1558439644694860,-2,-1,-2,-2,-4,0,-9,-12
1558439644694860,-2,0,1,-3,-3,-1,-1,-8
1558439644695854,1,-1,-2,0,7,4,7,12
1558439644695854,0,1,3,3,11,8,12,3
1558439644716799,-1,-4,-5,-4,-13,-13,-5,0
1558439644716799,-3,-3,-4,-2,-5,0,-5,-6
1558439644718792,-2,-2,-3,0,2,3,-5,-2
1558439644718792,1,0,-1,-2,-5,-12,-4,1
1558439644731758,-2,-1,-2,-3,-3,3,-4,-3
1558439644731758,0,-2,-2,0,2,2,2,4
1558439644737749,-3,-2,0,1,6,14,10,-2
1558439644737749,-2,-2,-3,-3,-3,1,-5,-6
1558439644754696,-2,-4,0,-2,-5,-3,-2,-2
1558439644754696,-1,1,1,0,-1,-6,-2,-2
1558439644755694,2,0,-1,-2,-9,-16,-1,7
1558439644755694,-1,-2,-1,1,8,9,-1,-8
1558439644776643,1,1,1,0,5,2,2,-4
1558439644776643,1,3,-1,1,3,-1,2,4
1558439644778633,-1,0,0,-3,-6,-5,-7,-2
1558439644778633,-1,-1,1,0,6,4,6,4
1558439644791598,-1,0,0,0,3,3,5,3
1558439644791598,-4,-4,-3,0,-8,-5,-9,-7
1558439644798579,1,-1,-1,0,1,4,2,0
1558439644798579,-2,-1,-4,-2,-12,-8,-12,-6
1558439644822516,-1,-1,-1,0,1,1,2,4
1558439644822516,-1,-5,-2,-5,-1,-4,-2,-5
1558439644823513,-3,-3,-1,-2,-4,1,2,-4
1558439644823513,0,1,1,0,-5,-8,-1,2
1558439644828501,-1,-2,1,-1,1,1,3,1
1558439644828501,-2,-4,-2,0,7,8,3,3
1558439644844456,0,-3,-4,-6,-10,-8,-8,-4
1558439644844456,-2,-3,2,1,-1,-1,-1,-2
1558439644851437,1,-3,-1,-1,-1,3,-1,0
1558439644851437,2,3,0,-1,1,-5,4,4
1558439644858422,-4,0,-1,2,8,0,-2,-6
1558439644858422,0,-2,-3,-5,-9,-8,0,-1
1558439644874381,-2,-1,-3,-2,-7,-8,-6,-4
1558439644874381,-1,-1,2,4,7,7,5,2
1558439644876372,0,-2,-1,-1,0,-3,-2,0
1558439644876372,-2,-2,-3,-3,-4,2,-6,-3
1558439644888340,-3,-2,-1,-2,1,1,0,-1
1558439644888340,1,0,-1,-2,-3,-7,4,5
1558439644897315,-2,0,1,1,3,4,2,-1
1558439644897315,-3,-1,-4,-3,-6,0,-7,-4
1558439644911283,-3,0,1,2,0,9,3,1
1558439644911283,-2,2,1,-3,-6,-9,-6,-4
1558439644918285,-2,-3,-5,-3,-5,-4,-2,-1
1558439644918285,1,2,1,3,8,2,1,3
1558439644934221,-1,-1,0,-1,0,0,2,-2
1558439644934221,0,-1,0,-1,1,-2,-1,-2
1558439644942196,-1,1,0,0,-2,1,-2,-1
1558439644942196,-1,-3,-3,-2,-5,0,-1,-2
1558439644948185,1,-2,-1,-1,-3,-5,-6,-1
1558439644948185,0,1,0,0,2,1,1,3
1558439644957154,-3,-2,-4,-3,-7,-1,-7,-9
1558439644957154,1,-3,-3,0,3,1,9,6
1558439644971123,-1,1,1,-3,-3,-5,-5,-4
1558439644971123,-1,-5,-4,-3,-9,-1,-6,-3
1558439644978101,0,1,0,0,4,1,4,4
1558439644978101,-1,0,1,0,-1,8,4,-1
1558439644994057,2,1,1,1,1,-8,0,0
1558439644994057,-2,-1,-2,-1,-2,-8,-6,-5
1558439645009016,-2,0,0,2,5,5,-1,-2
1558439645009016,2,2,4,-1,-4,0,3,5
1558439645010014,-3,-2,-5,-4,-10,-10,-8,-5
1558439645010014,1,1,2,0,7,5,3,1
1558439645016995,-1,-2,0,-1,-1,0,-1,0
1558439645016995,-4,-1,-1,0,-2,-8,0,0
1558439645030964,-1,-2,-2,-2,-2,-3,-2,-5
1558439645030964,-2,-2,-3,-3,-10,-9,-6,1
1558439645037939,-3,-3,-1,-2,-2,5,3,0
1558439645037939,0,0,2,0,4,-7,-3,1
1558439645053899,-1,-1,-1,1,8,16,12,3
1558439645053899,-2,-1,1,-2,-4,-7,-6,-3
1558439645060879,0,0,-1,0,-1,1,-1,-1
1558439645060879,-2,-5,-5,-5,-12,-3,-11,-8
1558439645067858,0,0,1,1,-5,-5,2,9
1558439645067858,1,2,2,4,15,6,17,7
1558439645076834,1,0,0,1,3,-4,-4,-4
1558439645076834,-1,1,0,-2,4,3,0,-1
1558439645091797,-3,-3,-3,-2,0,3,-4,-5
1558439645091797,-3,-5,-6,-3,-14,1,-6,-4
1558439645097778,2,2,2,1,0,-20,-4,1
1558439645097778,-2,-4,-3,-1,-1,-7,-4,3
1558439645121719,-5,-3,-1,-1,5,9,8,1
1558439645121719,0,0,0,-3,-2,2,2,-1
1558439645123710,-2,-3,-5,-5,-9,-5,-10,-7
1558439645123710,0,-2,0,2,4,5,1,-1
1558439645127704,0,1,0,-3,-1,-5,-4,-1
1558439645127704,0,-2,0,-2,1,5,-4,-7
1558439645137672,0,0,1,0,-5,-6,0,2
1558439645137672,-2,-1,-3,-2,-2,-1,-3,-2
1558439645151666,0,0,0,-1,-2,-3,0,1
1558439645151666,0,0,-4,-1,3,-4,5,2
1558439645158623,1,-2,0,-1,2,4,3,7
1558439645158623,-3,0,-1,-2,-5,0,-1,-9
1558439645173577,0,-2,-2,-2,-4,-5,-4,-2
1558439645173577,-1,-1,-1,0,0,-3,-7,-6
1558439645180563,0,-3,-2,-2,-4,1,2,5
1558439645180563,-3,2,0,1,5,5,-2,-7
