timestamp,emg1,emg2,emg3,emg4,emg5,emg6,emg7,emg8
1558439743010723,0,3,-1,-5,-5,-9,-6,-2
1558439743010723,-3,-12,-5,-4,-4,-4,-4,-3
1558439743011720,-3,-4,-2,3,-7,-5,-2,-2
1558439743011720,1,1,3,0,12,11,6,2
1558439743012718,1,1,1,-6,-1,1,1,-1
1558439743012718,0,1,-2,2,-3,-9,-6,-5
1558439743015709,0,1,-2,-4,-4,-7,-3,-1
1558439743015709,-3,-3,-5,-7,-10,-10,-7,-3
1558439743023688,-1,-2,1,4,4,-4,4,1
1558439743023688,-1,0,0,0,1,0,0,-1
1558439743030670,-2,-1,2,-4,3,2,4,-1
1558439743030670,-2,-2,-2,-1,-2,-4,-6,-3
1558439743037651,-2,-4,-2,2,5,7,0,2
1558439743037651,1,1,2,-1,2,4,4,3
1558439743052611,-1,-2,-3,-5,-2,-1,-3,-3
1558439743052611,0,0,0,4,-2,-2,3,2
1558439743061587,-4,-2,-3,-4,-4,0,-1,-6
1558439743061587,-1,-2,-2,-1,-2,0,-1,-2
1558439743068568,3,2,5,3,2,-4,-3,4
1558439743068568,1,-2,0,-1,-3,-3,-1,-4
1558439743083536,-3,-5,-3,-4,-6,-4,-5,-4
1558439743083536,-2,0,-3,-2,-4,3,-3,-4
1558439743091507,-2,-1,-3,0,-3,-6,0,-1
1558439743091507,1,0,0,0,2,-2,4,4
1558439743130403,1,0,-2,-6,-1,4,-1,-4
1558439743130403,-3,0,1,5,3,6,1,-1
1558439743131399,0,-3,-1,-2,-2,-2,-2,-2
1558439743131399,-2,-2,0,-6,-2,-1,-3,-4
1558439743132398,-1,-1,-3,1,-3,-4,-1,0
1558439743132398,-3,-4,-3,-4,-3,-3,-2,-1
1558439743134392,-1,0,1,-2,4,5,2,3
1558439743134392,4,1,1,1,7,0,-4,1
1558439743143369,-1,3,2,2,-1,2,2,0
1558439743143369,-1,-5,0,-4,-1,8,1,-2
1558439743150350,-3,-1,-2,-2,0,-6,-4,-1
1558439743150350,-2,-2,-4,-1,-8,-8,-3,-2
1558439743157331,0,3,1,-3,-2,-7,-6,-2
1558439743157331,-1,-6,-1,-1,4,5,5,0
1558439743172292,1,2,1,-1,1,4,2,1
1558439743172292,-2,-5,-4,-3,1,-2,-3,-1
1558439743180269,-5,-5,-2,-4,-8,-6,-8,-4
1558439743180269,2,3,1,1,0,-3,1,1
1558439743189246,1,1,1,2,5,5,1,1
1558439743189246,-2,0,-2,-2,-5,0,-3,-4
1558439743203208,-2,-1,-2,-3,-3,1,2,-2
1558439743203208,1,1,-2,-2,-2,-8,-3,-1
1558439743210189,-2,-3,-2,0,0,1,0,-1
1558439743210189,-1,1,1,-1,1,2,-3,1
1558439743225149,-5,-4,-4,0,-4,-2,-2,0
1558439743225149,-1,0,-2,-2,3,1,-5,-3
1558439743232130,-1,-1,-2,-1,0,-4,-1,1
1558439743232130,-1,-2,0,-1,-2,0,4,0
1558439743240109,-1,-4,-1,0,1,3,-1,-1
1558439743240109,0,1,0,-2,-1,-11,-4,1
1558439743249086,0,0,1,0,6,6,2,0
1558439743249086,-4,-2,-1,2,-4,-5,1,-2
1558439743263048,-1,0,2,-3,0,-7,-2,-1
1558439743263048,-2,-2,-5,-5,-4,8,-2,-4
1558439743270029,-1,-5,-5,-1,-8,-3,-5,-3
1558439743270029,3,0,1,1,11,9,9,6
1558439743285987,-2,-2,-1,-2,-4,-5,-2,-1
1558439743285987,0,-2,0,1,-3,-3,-2,0
1558439743291970,-1,1,0,-2,0,-2,-2,-3
1558439743291970,-1,-4,-1,-1,2,5,2,0
1558439743299949,1,0,4,2,8,6,3,2
1558439743299949,-1,0,-1,-4,-10,-8,-9,-5
1558439743308925,-1,-1,-1,-3,-8,-10,-1,-1
1558439743308925,1,2,3,1,0,0,1,1
1558439743330867,2,-1,-1,1,6,3,0,-3
1558439743330867,-2,-3,0,-2,-1,2,0,-3
1558439743332861,1,0,0,-2,-3,-1,-2,-3
1558439743332861,-2,-1,-3,-3,-6,-10,-7,-2
1558439743336850,0,0,-1,-2,-1,1,2,3
1558439743336850,1,0,1,-1,-4,-7,-2,-3
1558439743353805,-4,-5,-5,-4,-13,-11,-11,-7
1558439743353805,-2,-1,0,0,4,12,6,0
1558439743359789,0,-2,1,0,9,3,2,2
1558439743359789,-1,-1,-4,1,1,-3,0,0
1558439743368765,0,2,-1,-2,0,-4,-1,1
1558439743368765,-2,-3,-1,-5,-8,1,-5,-1
1558439743382728,-1,-1,-1,0,1,6,3,1
1558439743382728,-2,-2,-1,0,-7,-9,-5,-1
1558439743389709,-3,-2,-2,-2,-5,-3,-8,-6
1558439743389709,0,-1,-3,-3,-1,-5,1,1
1558439743397689,0,1,0,1,1,7,3,-1
1558439743397689,-1,2,0,1,5,4,4,0
1558439743412648,0,0,-1,-1,3,-1,-2,0
1558439743412648,-2,-2,-4,-3,-6,-5,-4,-2
1558439743419629,-1,-2,-1,-2,-4,-5,-7,-2
1558439743419629,2,0,4,1,8,12,8,5
1558439743434589,-2,-3,-4,-3,-10,-10,-6,-4
1558439743434589,-1,0,1,1,6,2,1,-1
1558439743442568,0,-2,2,-1,0,1,-1,-2
1558439743442568,-1,0,-2,-2,1,1,-1,0
1558439743449549,1,-1,-2,-2,0,-2,-1,0
1558439743449549,-1,-1,-2,-3,-10,-4,-6,-4
1558439743457528,-2,-2,-3,-1,0,0,4,1
1558439743457528,-2,-1,3,1,0,-8,-4,-1
1558439743473484,-1,-3,-1,-3,-4,2,1,0
1558439743473484,-2,-1,-1,0,0,0,-4,-2
1558439743479468,1,2,1,1,1,-1,1,2
1558439743479468,-1,-4,-6,-3,-7,-6,-6,-2
1558439743494430,-3,1,0,-3,0,8,8,2
1558439743494430,-1,0,-2,0,-6,-9,-6,-3
1558439743503405,-1,-3,-2,1,12,11,6,1
1558439743503405,3,2,3,0,2,-1,3,2
1558439743509389,-1,1,1,2,5,5,2,1
1558439743509389,-3,-4,-4,-4,-13,-8,-7,-7
1558439743517367,-1,-1,-4,-2,-5,-9,-6,-3
1558439743517367,-2,-3,-4,-5,0,0,0,-1
1558439743532328,2,-2,1,2,1,-4,-3,-1
1558439743532328,2,4,4,5,15,11,9,4
1558439743540306,-1,-4,-1,-3,-6,-8,-7,-3
1558439743540306,-5,-2,-2,-3,-7,1,-4,-3
1558439743555266,-2,0,0,-1,-3,-5,-1,1
1558439743555266,0,-1,-3,-1,-1,-1,-6,-4
1558439743563245,0,4,1,0,0,0,2,2
1558439743563245,0,1,-3,-1,-5,-8,-2,0
1558439743570227,-3,-5,-1,-1,7,6,3,0
1558439743570227,2,-1,-1,0,3,-1,-1,1
1558439743585186,0,1,-2,-3,-5,-1,-1,-3
1558439743585186,0,-1,0,2,4,8,0,-2
1558439743592168,-2,2,-2,-1,-7,-5,-3,-2
1558439743592168,-2,-1,-1,-2,1,4,3,0
1558439743600145,-2,-1,0,-2,-3,-6,-4,-2
1558439743600145,0,1,1,-3,-4,-7,-1,1
1558439743615107,0,-1,0,1,2,1,3,-2
1558439743615107,0,-2,1,2,5,3,2,0
1558439743623085,-1,-1,2,1,-2,-1,-2,-1
1558439743623085,-2,1,1,-3,0,2,0,-1
1558439743630066,-4,-2,-4,-3,-3,3,-2,-3
1558439743630066,-3,0,-3,-4,-8,-13,-3,0
1558439743637047,-1,0,-2,-2,-6,-10,-3,-2
1558439743637047,-1,-2,0,1,7,14,2,-1
1558439743652007,2,1,3,4,5,0,-1,-1
1558439743652007,-1,-2,-2,-4,-2,-1,-3,0
1558439743659987,-6,-4,-3,-3,-7,-6,-8,-9
1558439743659987,-2,-2,-1,-1,-3,-5,0,-3
1558439743674946,2,-1,-3,-3,-3,4,0,0
1558439743674946,0,0,0,1,-2,-1,-1,-1
1558439743682925,2,1,3,1,7,2,3,3
1558439743682925,-3,-2,-5,-3,-9,-3,-4,-5
1558439743689907,-2,1,-1,-3,-7,-6,-5,0
1558439743689907,3,3,3,0,11,5,4,3
1558439743696887,-2,-3,-3,-1,-2,-2,-2,0
1558439743696887,2,1,3,0,2,2,2,1
1558439743712846,0,0,0,0,0,2,2,-1
1558439743712846,-3,-1,-5,-3,-6,-6,-5,-2
1558439743719826,-3,-3,-4,-4,-5,-1,-5,-3
1558439743719826,0,1,1,0,4,0,2,2
1558439743734786,-1,-3,-3,-1,-4,-7,-6,-2
1558439743734786,0,1,-3,0,4,5,3,-1
1558439743742765,2,-3,-4,0,2,-1,2,1
1558439743742765,-3,0,0,-3,-12,-6,-8,-8
1558439743749746,3,0,2,-1,3,7,7,6
1558439743749746,-1,0,2,1,4,-1,-1,1
1558439743765702,-1,-2,-4,-2,-6,-1,-4,-4
1558439743765702,0,-2,-1,2,0,-4,1,-2
1558439743772683,-2,-4,-3,-2,2,-1,-2,-1
1558439743772683,0,-1,1,-1,-9,-7,-2,-2
1558439743779664,2,0,1,1,0,3,5,0
1558439743779664,-2,-2,-1,0,9,14,4,3
1558439743794626,-1,1,2,0,3,1,-2,-4
1558439743794626,0,-1,-2,-2,-1,-3,-3,0
1558439743802605,-2,-1,-1,0,0,-2,-3,0
1558439743802605,-1,-2,-1,-1,-7,-9,-5,-1
1558439743809587,0,2,1,0,2,-3,1,2
1558439743809587,-1,-1,-4,-1,-8,0,-3,-7
1558439743825544,-1,-1,1,-2,-7,-7,-6,-3
1558439743825544,-2,-2,0,1,8,8,2,0
1558439743832524,0,1,3,-2,0,2,-1,-1
1558439743832524,0,-1,0,1,2,-2,-2,-2
1558439743839507,-1,-1,-2,-2,-7,-4,-3,-1
1558439743839507,-1,0,-1,-1,-3,-12,-2,1
1558439743854466,1,4,3,5,7,8,3,2
1558439743854466,-4,-4,-3,-3,-6,0,-5,-2
1558439743863441,-2,0,-2,-2,5,3,3,-1
1558439743863441,1,-1,-4,-1,-8,-4,-5,-4
1558439743869426,-1,-2,-2,-3,-2,-1,4,-3
1558439743869426,-2,0,2,2,7,9,3,2
1558439743885383,-2,1,2,1,0,-6,-2,-1
1558439743885383,-3,-3,-5,-4,-6,-10,-4,-3
1558439743892366,-2,-2,0,-2,0,1,-2,1
1558439743892366,-1,-3,-4,-3,-8,-8,-9,-6
1558439743900344,-1,1,4,0,2,8,4,-2
1558439743900344,1,1,0,-1,6,5,5,5
1558439743915304,-3,-3,-5,-3,-7,-9,-8,-5
1558439743915304,-2,0,0,0,3,7,0,0
1558439743923283,2,-2,-1,1,0,6,3,0
1558439743923283,1,1,1,2,10,8,4,1
1558439743930263,-2,-2,-5,-3,-10,-14,-5,-3
1558439743930263,0,-2,-3,-5,-12,-15,-7,-2
1558439743945222,-2,0,-1,-2,-3,1,-1,1
1558439743945222,-1,0,2,1,6,14,2,-3
1558439743952204,1,-1,0,4,3,2,-1,-1
1558439743952204,-1,-1,1,-1,-2,-10,-4,-4
1558439743960183,0,0,-1,-3,-2,-6,-3,-2
1558439743960183,-1,0,-3,-3,-9,-9,-6,3
1558439743975148,-2,-3,-2,-2,2,10,5,-3
1558439743975148,-2,-1,-3,0,-3,2,1,-1
1558439743983121,0,-2,-2,-2,0,-3,2,-1
1558439743983121,-1,-1,3,2,8,-5,2,0
1558439743990102,-2,0,0,-2,-2,-4,-4,-4
1558439743990102,-1,0,-2,0,-1,2,0,1
1558439744005062,1,3,1,0,-6,-4,-7,-2
1558439744005062,-3,-4,-4,-3,-5,-4,-1,-2
1558439744012044,0,-1,1,0,7,1,1,4
1558439744012044,-1,1,2,4,6,5,3,0
1558439744020022,0,-2,-4,0,5,8,-2,-1
1558439744020022,0,-1,-2,-3,-10,-8,-4,-4
1558439744034983,-5,-3,-2,-5,-6,-4,-7,-5
1558439744034983,1,1,-1,-3,-4,-7,-1,1
1558439744045207,-3,-4,0,-4,-6,-5,-5,-2
1558439744045207,3,1,3,2,7,5,7,2
1558439744049943,-1,0,-1,1,5,1,-2,0
1558439744049943,-3,-1,0,-5,-5,0,1,-3
1558439744065900,-1,0,-2,0,-3,-8,-5,-3
1558439744065900,0,0,-1,-3,1,-5,-4,0
1558439744071884,2,3,-1,-1,-4,2,5,5
1558439744071884,-2,1,1,-1,10,9,0,-3
1558439744079862,1,1,1,-1,-5,-10,-1,0
1558439744079862,-1,-1,0,0,-7,-6,-4,-2
1558439744094823,-1,-4,-6,-3,-3,0,-5,-3
1558439744094823,0,-3,-2,-1,1,-5,1,5
1558439744102802,0,1,2,2,11,15,11,4
1558439744102802,-1,2,0,-2,-4,-4,-5,-5
1558439744117760,-1,-3,0,0,-1,0,-1,-3
1558439744117760,-1,0,0,1,0,8,4,-1
1558439744125740,-1,-2,-4,-1,-5,-10,-2,-2
1558439744125740,-1,0,0,-1,0,-2,-2,1
1558439744140699,-3,-1,-2,-2,-9,-11,-7,-4
1558439744140699,-1,-3,-1,-2,-1,1,0,-2
1558439744141698,1,0,2,4,19,20,7,1
1558439744141698,1,-2,-1,1,1,2,-1,0
1558439744154662,0,-3,-2,-3,-3,2,2,-3
1558439744154662,3,2,2,0,-2,-5,0,3
1558439744162641,-3,-3,-1,-3,-11,-9,-6,-7
1558439744162641,-1,0,-2,-1,-4,-6,-7,-2
1558439744177601,1,2,3,2,7,4,3,1
1558439744177601,0,-1,-3,-4,-2,-7,-5,2
1558439744185579,0,0,-1,-1,0,-1,2,0
1558439744185579,-3,-3,-3,-3,0,2,2,-3
1558439744208528,-2,0,0,-2,1,0,1,1
1558439744208528,0,-2,-3,-1,-6,-5,-4,-3
1558439744209516,-1,-2,-2,-4,-5,-2,-4,0
1558439744209516,-3,-3,0,-1,-5,-2,-5,-4
1558439744214543,1,-1,1,4,11,3,8,3
1558439744214543,1,-1,1,1,6,11,1,-2
1558439744223494,-2,1,1,-1,2,-3,-2,0
1558439744223494,-1,-3,-5,-6,-11,-9,-5,-2
1558439744237443,-2,-1,-3,-3,-10,-8,-7,-2
1558439744237443,0,2,2,2,7,3,2,1
1558439744245447,1,0,2,2,6,0,2,2
1558439744245447,-2,-2,-1,-3,-6,3,0,-2
1558439744260380,-1,0,0,3,0,5,5,3
1558439744260380,-3,-2,-5,-3,-3,-1,-3,-5
1558439744261377,-2,-1,-2,-3,-4,-2,1,-2
1558439744261377,-2,0,-1,0,2,-13,-3,3
1558439744274343,-5,-3,-4,-4,-11,-5,-4,-10
1558439744274343,-2,-1,-2,-1,0,1,2,0
1558439744283317,1,0,-4,-3,-8,-5,-3,1
1558439744283317,-3,0,-1,0,2,7,-1,-2
1558439744306318,1,-1,-1,-1,-1,-2,-2,-2
1558439744306318,-1,-1,0,0,-4,-6,-3,-2
1558439744307257,0,-5,-4,-1,-3,0,-3,-2
1558439744307257,0,1,-1,0,3,2,7,2
1558439744320220,0,0,-1,-1,0,-1,-2,-1
1558439744320220,-3,-2,0,-1,-3,-3,0,-1
1558439744328199,-1,-3,-3,-1,2,6,1,1
1558439744328199,-1,1,3,-2,1,4,-1,0
1558439744335179,-3,-3,-1,-1,-4,-6,-11,-5
1558439744335179,-2,-2,-3,-4,-2,-5,-1,-2
1558439744343158,0,0,-1,0,2,0,2,4
1558439744343158,1,-2,-2,0,5,11,2,-1
1558439744357121,1,0,-3,0,0,4,0,0
1558439744357121,-1,4,1,0,1,-8,0,2
1558439744365099,-2,-3,-4,-3,-7,-10,-10,-6
1558439744365099,-1,-3,-3,-1,-4,-4,3,-1
1558439744381056,-1,-2,0,-3,1,5,-1,1
1558439744381056,-1,-1,1,3,1,7,3,3
1558439744381056,0,1,1,1,1,-2,-3,-8
1558439744381056,0,0,-2,-3,-4,-4,-2,1
1558439744404993,-2,-4,-1,-2,-5,-5,-6,-9
1558439744404993,-2,-2,-2,-3,-8,-8,-8,-1
1558439744405990,-1,-1,0,2,9,7,6,2
1558439744405990,2,0,1,0,0,5,1,5
1558439744416960,-1,-1,2,2,11,9,7,-2
1558439744416960,-1,0,-2,-1,-4,-2,-5,-3
1558439744425936,-3,-3,-5,-5,-12,-15,-10,-5
1558439744425936,-2,1,-2,-1,3,5,1,-3
1558439744440896,1,2,-1,3,7,7,7,10
1558439744440896,1,-1,1,-3,0,5,4,-2
1558439744440896,0,0,-4,-1,-2,-3,-1,0
1558439744440896,-3,-1,-1,-2,-3,-12,-4,-2
1558439744454859,-1,-1,-4,-2,-7,-6,-5,0
1558439744454859,-1,-1,-2,-3,3,3,-3,-2
1558439744462837,-2,-2,2,-3,-7,-2,1,4
1558439744462837,-4,-3,0,-1,1,2,-1,-2
1558439744477798,1,0,0,-2,-1,-5,-3,0
1558439744477798,0,-1,-1,0,-4,0,-4,-3
1558439744485776,1,-1,-1,1,2,1,1,0
1558439744485776,1,1,0,-2,-1,-7,-1,-2
1558439744500736,-2,-1,-2,-3,-4,-6,0,1
1558439744500736,0,-1,-1,1,12,10,2,2
1558439744500736,0,-1,1,-1,-5,2,-3,-1
1558439744500736,-1,-2,-2,-1,-2,2,2,-1
1558439744514703,-1,-1,-2,-4,-7,-6,-4,-3
1558439744514703,-2,-1,1,-1,-6,-9,-2,-4
1558439744522677,-2,1,2,-1,6,9,4,0
1558439744522677,-2,-3,-1,-1,-1,-1,-3,-2
1558439744537637,0,0,2,2,5,2,6,4
1558439744537637,0,-2,-3,-1,-1,-4,-4,0
1558439744545616,-3,0,-1,-1,1,1,-4,-6
1558439744545616,0,-1,-3,-2,-7,-2,-3,-4
1558439744560577,-1,0,-3,-2,-10,-13,-11,-7
1558439744560577,2,-1,0,0,5,11,9,4
1558439744561574,0,1,1,2,9,8,7,4
1558439744561574,-2,-2,-2,0,0,-1,-4,-3
1558439744574538,-3,-1,-3,-4,-10,-12,-4,-1
1558439744574538,1,0,-2,-2,-1,-3,-1,1
1558439744583514,-1,-1,0,-1,-2,3,-1,0
1558439744583514,0,-2,1,-1,-1,0,0,-2
1558439744597536,1,-1,3,1,3,2,1,1
1558439744597536,1,0,1,1,2,-3,3,4
1558439744605458,1,-4,-2,-2,-6,-3,1,1
1558439744605458,-2,0,-2,0,-1,-4,-9,-14
1558439744620416,-2,-2,-3,-2,0,4,-3,-2
1558439744620416,-2,1,-1,1,-4,0,-1,-2
1558439744621413,-2,0,-1,-3,-5,-9,-4,0
1558439744621413,0,2,0,-2,2,2,6,5
1558439744634379,1,1,0,-1,-1,-1,1,0
1558439744634379,1,-1,-1,0,-1,-2,-2,-1
1558439744643354,0,-2,0,0,5,4,-1,1
1558439744643354,-1,-2,-1,-2,-5,-3,2,0
1558439744657319,-3,-3,0,-2,-4,-1,-1,-2
1558439744657319,-2,-1,0,-4,-4,-8,-4,-1
1558439744665296,0,-1,-1,-1,3,1,-3,-2
1558439744665296,-1,-1,0,2,4,11,2,2
1558439744680257,-1,0,-1,-1,3,3,2,1
1558439744680257,-1,0,-2,-2,-2,-8,-1,-2
1558439744688235,0,-2,-2,-1,-4,-7,-3,-4
1558439744688235,0,1,1,-1,2,2,-1,0
1558439744695216,-2,-1,-4,-3,-6,-9,-5,-4
1558439744695216,-6,-4,-2,-2,-1,8,-3,-8
1558439744702198,0,2,0,-1,-2,-5,1,-1
1558439744702198,0,-3,-2,-1,-2,2,4,4
1558439744717157,-1,0,1,1,6,0,-1,-1
1558439744717157,-1,-2,-4,-1,-2,-2,-3,1
1558439744733120,-5,-2,0,-1,-4,-1,1,-7
1558439744733120,-3,-3,0,-2,-12,-11,-6,-5
1558439744740104,2,-2,-3,-1,-3,-4,0,2
1558439744740104,-1,-3,-2,-3,-4,2,0,-2
1558439744748081,2,2,0,1,4,2,4,4
1558439744748081,0,1,1,2,7,-1,-2,2
1558439744763035,-3,-1,0,-1,-2,1,-2,-4
1558439744763035,-1,1,1,-1,-1,-2,0,-1
1558439744764033,-1,-2,-2,-2,-4,-6,-6,0
1558439744764033,0,-1,-5,-1,2,4,1,0
1558439744776998,0,-3,-3,-2,-8,-5,-4,-1
1558439744776998,-3,-4,-1,-1,-5,-5,-8,-5
1558439744785973,1,0,2,1,3,6,7,3
1558439744785973,0,1,3,2,15,3,4,3
1558439744799935,-3,-1,0,-1,-1,3,1,-3
1558439744799935,-4,-1,-2,-3,-11,-10,-6,-6
1558439744808912,-1,-1,-5,-3,-9,-15,-8,-3
1558439744808912,0,-2,-3,-4,1,0,1,7
1558439744815893,2,2,-1,-1,2,-3,2,0
1558439744815893,3,1,-1,4,5,10,3,1
1558439744822876,-4,-1,-2,-1,7,5,1,-5
1558439744822876,-3,-1,-4,-1,-10,-10,-6,-6
1558439744837842,-3,-1,-2,0,3,0,2,2
1558439744837842,-2,-2,-1,-5,-7,-7,-1,-2
1558439744845920,-1,-4,-1,-4,-13,-8,-5,-3
1558439744845920,3,2,2,2,7,8,9,6
1558439744860782,5,0,3,4,12,15,3,4
1558439744860782,1,-1,-2,-3,4,4,0,-1
1558439744867758,-2,-1,-2,0,-4,-1,-1,-4
1558439744867758,-3,-4,-1,-6,-13,-11,-4,-3
1558439744882718,-2,-2,-5,-1,-4,0,2,-1
1558439744882718,0,2,0,2,5,6,2,2
1558439744883713,0,0,1,4,6,-1,0,3
1558439744883713,-2,-3,-1,-3,-4,1,-5,-4
1558439744897839,1,0,2,-1,-1,1,0,1
1558439744897839,-1,-1,-2,0,-3,-9,-3,2
1558439744905655,-1,1,1,-3,-6,-4,-7,-2
1558439744905655,2,1,2,1,4,4,3,0
1558439744920647,1,0,0,-2,-2,-2,-5,-2
1558439744920647,-3,-5,-5,-3,-2,-4,1,-3
1558439744928792,2,1,2,1,5,1,9,8
1558439744928792,-2,-3,-4,-1,-6,-3,-9,-10
1558439744943698,-1,-1,0,-1,1,1,1,-4
1558439744943698,-1,0,0,-3,-8,-9,-6,-2
1558439744943698,0,-2,-2,-2,-4,0,-1,-2
1558439744943698,0,0,-3,-1,1,2,1,4
1558439744957582,-2,-2,-4,-2,-4,-2,0,-1
1558439744957582,0,1,3,2,7,4,3,0
1558439744965775,0,-2,-2,-3,-5,-7,-6,-1
1558439744965775,-4,-4,-2,-3,-5,-7,-3,-2
1558439744980642,1,1,2,2,10,10,2,2
1558439744980642,1,0,0,0,-6,-1,2,2
1558439744988673,1,0,0,-1,1,2,-3,-3
1558439744988673,0,-2,-3,0,-5,-6,-4,-1
1558439745003555,0,1,-2,0,-7,-7,-4,-3
1558439745003555,0,-1,0,1,3,11,5,1
1558439745003555,-4,-1,-4,-3,-6,-2,-5,-5
1558439745003555,-1,0,2,2,2,0,5,2
1558439745017362,-1,0,-2,0,-3,-11,-5,0
1558439745017362,1,-1,-1,0,2,-2,-2,-1
1558439745025338,0,-2,-1,-2,0,7,1,-1
1558439745025338,-1,1,0,0,3,-1,-3,-2
1558439745040299,-4,-2,-4,-1,-3,-4,-1,-1
1558439745040299,0,-1,0,-1,4,-4,1,3
1558439745048310,-4,-4,-3,-4,-4,-6,-5,-5
1558439745048310,0,-2,0,-3,-8,-6,-3,-2
1558439745063233,0,-1,2,0,5,7,9,3
1558439745063233,1,0,0,1,1,2,-3,-1
1558439745063233,-1,-1,-1,1,7,4,-2,-1
1558439745063233,-2,-1,-1,-2,-3,0,0,-3
1558439745077195,1,-1,-4,-3,-10,-11,0,4
1558439745077195,-1,-3,-4,-4,-9,-3,-3,-4
1558439745085174,0,-2,2,2,0,3,-4,-3
1558439745085174,-2,-1,0,0,4,5,2,-1
1558439745100134,-4,-3,-3,-2,1,0,-4,-4
1558439745100134,-2,-4,-4,-1,5,3,1,4
1558439745108113,0,0,-3,0,4,0,0,0
1558439745108113,-3,-1,1,-2,-2,-2,-4,-4
1558439745123071,-1,-3,0,-1,-6,-2,-2,-1
1558439745123071,-1,0,2,1,4,3,4,-2
1558439745124069,-2,0,-1,-1,-4,-2,1,-1
1558439745124069,0,-2,-2,0,-2,0,-1,0
1558439745138352,-2,-1,0,0,0,5,-3,-1
1558439745138352,-2,-1,1,-1,-4,-9,-7,-5
1558439745146497,-1,-1,-3,0,0,-3,3,2
1558439745146497,-1,1,-1,-2,-3,-4,0,1
1558439745161299,-2,-1,-2,-2,-2,-1,-2,-5
1558439745161299,0,1,-1,-3,-1,2,1,-2
1558439745168458,1,-1,1,0,2,2,7,5
1558439745168458,-3,-1,-1,-3,-4,-6,-2,-3
1558439745183379,-1,-2,1,-4,-5,-2,-4,-2
1558439745183379,-1,1,1,0,3,0,5,2
1558439745183910,-1,0,0,3,9,15,4,1
1558439745183910,0,-1,-5,0,-1,-2,-3,-1
1558439745198195,0,1,1,0,2,2,-2,-2
1558439745198195,-5,-3,1,-2,-5,0,-1,-1
1558439745206204,0,0,0,-1,3,-10,-3,1
1558439745206204,0,-4,-2,-2,-4,-4,-6,-2
1558439745220159,-2,-1,0,0,-5,-1,2,2
1558439745220159,0,-1,0,1,3,7,1,0
1558439745228823,-2,-2,-1,-2,-3,0,-2,0
1558439745228823,-1,0,-2,-1,-1,0,-2,-5
1558439745243759,3,0,-1,2,6,-12,-1,3
1558439745243759,0,0,-1,-2,-4,-5,-3,-3
1558439745243759,-1,-3,-1,-2,-5,2,-2,-3
1558439745243759,0,1,-1,-2,-4,5,-2,-1
1558439745257717,-2,-5,-5,-3,-7,-4,-1,-1
1558439745257717,0,5,1,3,7,3,6,6
1558439745265963,-4,-3,-3,-3,-5,-4,-3,0
1558439745265963,0,-1,1,1,7,4,-1,1
1558439745279654,-1,0,-1,-2,0,-2,-2,-1
1558439745279654,-1,-4,-2,-2,-4,-3,-4,-3
1558439745288788,-1,0,-2,-4,-8,-10,-3,-4
1558439745288788,0,-2,-2,-1,-2,3,0,-1
1558439745302596,-2,-1,0,0,3,5,2,-2
1558439745302596,-2,-3,-2,-1,1,-9,-6,-2
1558439745303590,-2,0,1,1,0,2,3,-1
1558439745303590,-1,-1,-1,-3,-1,-2,-1,-2
1558439745318551,0,0,-3,0,-5,-1,-2,-1
1558439745318551,-1,0,-1,-1,2,-4,0,1
1558439745325542,-2,-2,-2,-2,-1,2,1,0
1558439745325542,1,0,0,2,2,2,3,4
1558439745340711,-2,-1,0,-1,-7,-2,-7,-4
1558439745340711,0,-4,-4,-3,3,7,-2,-2
1558439745348695,1,2,-1,-2,5,5,2,-1
1558439745348695,1,1,3,3,8,-8,5,7
1558439745363742,-3,-2,1,-2,-6,-1,-4,-5
1558439745363742,0,-3,-3,-2,-7,-5,-7,-2
1558439745363742,-1,-2,-3,-1,-7,-9,-6,-1
1558439745363742,1,1,0,1,12,21,13,0
1558439745377701,1,0,0,0,6,-1,2,3
1558439745377701,0,1,0,-1,-2,-1,1,-3
1558439745385685,-1,-3,-1,-2,-8,-12,-3,0
1558439745385685,-2,-2,-2,-3,-9,-12,-14,-10
1558439745400619,-4,-3,-2,0,5,11,5,0
1558439745400619,0,-3,-4,-2,-10,-4,-5,-4
1558439745408321,-1,-3,-3,-2,-2,-4,-2,-1
1558439745408321,-1,-3,0,-2,-4,-6,2,2
1558439745423528,-1,-1,0,1,7,6,5,1
1558439745423528,-3,0,2,-2,-1,0,-2,-2
1558439745424272,-3,-1,1,-1,0,4,1,-2
1558439745424272,0,0,0,-1,1,-6,-2,0
1558439745437484,0,-1,-3,-2,-1,1,-2,-3
1558439745437484,0,-1,-3,-1,-3,-5,5,4
1558439745446300,-1,-2,-2,-2,-10,-12,-9,-8
1558439745446300,0,-3,-1,1,5,9,7,1
1558439745460426,-3,-1,0,-2,-3,-1,0,-4
1558439745460426,-1,-4,-3,-2,-4,-3,-6,-2
1558439745468388,0,1,0,-2,7,-1,1,3
1558439745468388,-2,-1,-2,-2,-8,-5,-8,-5
1558439745483115,3,0,-1,1,2,-4,0,3
1558439745483115,-2,1,0,1,6,5,4,1
1558439745484107,-1,-1,-2,0,-1,3,2,0
1558439745484107,-2,-1,-3,-4,-3,0,-1,2
1558439745506294,3,1,0,1,5,0,2,2
1558439745506294,-3,0,-1,0,-5,0,-4,-3
1558439745507048,-5,-3,-1,-2,-5,-4,-9,-10
1558439745507048,-1,1,-3,-2,-6,-12,-4,0
1558439745520011,-1,1,1,1,2,6,1,0
1558439745520011,-1,-5,0,-3,-3,-2,0,-2
1558439745528238,1,0,1,1,1,-4,0,2
1558439745528238,-3,-3,-2,-4,-7,-4,-4,-4
1558439745543180,1,0,1,0,2,7,5,1
1558439745543180,0,2,2,1,7,5,0,2
1558439745543949,-1,1,-2,-1,-1,2,-1,-2
1558439745543949,-1,-3,-2,-2,-8,-5,0,0
1558439745557179,0,-3,0,-2,6,2,0,-1
1558439745557179,-1,0,-1,-1,-3,-3,1,-2
1558439745565252,0,0,-1,-2,-4,1,-2,0
1558439745565252,-3,-2,-3,-2,1,6,-1,-4
1558439745580182,-1,0,-2,-2,-3,-10,-5,-1
1558439745580182,0,-2,0,-1,-2,-4,-2,-2
1558439745588433,-3,-5,-4,0,4,3,-3,-2
1558439745588433,1,-1,1,0,2,4,0,0
1558439745602123,-3,-2,-2,-3,-6,-6,-3,-3
1558439745602123,-2,0,-2,-2,-2,-9,-2,3
1558439745611325,2,-2,-1,0,4,12,8,1
1558439745611325,1,1,-3,-1,-2,1,-2,1
1558439745617085,-1,-2,-1,-2,-7,-12,-2,-2
1558439745617085,-1,-2,-2,-2,-3,0,1,0
1558439745625062,0,1,1,1,3,5,5,4
1558439745625062,-3,0,2,3,5,1,-4,-4
1558439745640296,-4,-4,-5,-3,-6,-4,-5,-5
1558439745640296,1,0,0,0,-2,-1,-2,3
1558439745648004,0,-1,-2,-1,-1,0,5,5
1558439745648004,-2,-2,-5,0,7,-2,-3,-8
1558439745661962,-3,1,-3,-6,-14,-11,-8,-6
1558439745661962,0,-1,0,-3,3,-2,-2,-1
1558439745670936,-1,-3,-2,1,4,12,-1,-2
1558439745670936,-1,0,-2,-2,-2,-4,2,3
1558439745686173,-2,-3,-3,-4,-3,-2,-2,0
1558439745686173,-3,-2,-3,-2,-9,-2,-5,-4
1558439745686897,3,4,4,3,7,0,4,6
1558439745686897,-1,0,2,-1,2,-3,1,0
1558439745700135,-1,-1,-2,0,2,8,3,0
1558439745700135,0,1,-2,-4,-7,-11,-3,-2
1558439745707839,-4,-3,-1,-1,1,2,1,0
1558439745707839,1,3,1,1,0,-5,-1,0
1558439745723074,-2,-2,1,0,0,0,2,2
1558439745723074,-2,-1,-2,-2,0,3,-3,-3
1558439745730780,-3,-3,-6,-4,-15,-16,-13,-10
1558439745730780,2,-1,-2,-2,-2,-1,0,2
1558439745737757,2,1,-1,0,2,-6,2,1
1558439745737757,-2,-1,2,1,6,4,1,-6
1558439745746733,-2,-3,0,1,3,-4,-1,-1
1558439745746733,-2,-4,1,-1,0,4,-1,-2
1558439745760719,-1,0,-1,-1,-4,-7,-7,0
1558439745760719,-1,-2,-3,-3,-5,-2,-3,-3
1558439745768992,-1,-1,-3,0,-4,6,4,3
1558439745768992,-2,-2,-2,0,5,2,2,0
1558439745791613,0,-1,-2,-1,0,-1,-5,-4
1558439745791613,-1,-2,-1,1,3,7,4,2
1558439745792619,0,0,2,-2,0,-5,-3,1
1558439745792619,0,-1,-2,-3,-11,-13,-7,-3
1558439745806574,0,-2,1,1,3,8,0,0
1558439745806574,2,0,0,1,1,-4,3,3
1558439745807571,-1,-2,-2,-2,0,1,2,-2
1558439745807571,-1,-1,0,0,-2,4,-2,-1
1558439745819572,-2,-2,0,-1,-5,-8,-5,-2
1558439745819572,0,-3,-5,-4,-5,-6,-2,-1
1558439745828514,-4,-1,0,-3,-1,1,-2,-6
1558439745828514,3,0,0,2,3,3,0,-1
1558439745842478,1,-1,0,0,4,3,7,4
1558439745842478,-4,-3,-3,0,1,3,-7,-9
1558439745851488,0,-1,0,-1,-10,-8,-6,-3
1558439745851488,-4,-1,-3,-2,3,10,6,-1
1558439745873394,-1,1,-2,1,4,2,7,3
1558439745873394,0,-4,-1,-1,-1,-3,1,2
1558439745875424,0,0,-1,-1,2,-3,-4,-3
1558439745875424,-2,-3,-4,-5,-10,-4,-6,-1
1558439745879416,-2,-3,0,-1,-4,-5,-4,-3
1558439745879416,-1,0,0,1,3,5,3,-2
1558439745888704,2,0,1,0,4,3,1,1
1558439745888704,-1,-2,-1,-3,-1,1,4,1
1558439745902666,-1,-1,-1,-1,-2,-2,-5,-6
1558439745902666,0,-2,4,-1,-5,-7,-5,-1
1558439745911295,-1,0,1,-1,1,-5,1,2
1558439745911295,0,1,0,0,-2,-1,0,1
1558439745926254,-1,1,1,1,6,10,1,1
1558439745926254,-3,1,-2,-2,-5,4,-1,-1
1558439745927252,0,-2,-1,-1,-1,-6,1,1
1558439745927252,0,0,-1,-1,-5,-13,-9,-2
1558439745940566,-1,-1,0,-1,-5,-1,2,-2
1558439745940566,0,-1,0,1,7,8,4,2
1558439745949315,-1,-4,-3,-1,-2,2,0,-2
1558439745949315,-3,-2,-2,-3,-7,-9,-6,-4
1558439745962495,0,-3,-3,-5,-1,8,0,-2
1558439745962495,-1,-1,-4,-2,-1,-6,3,4
1558439745971393,0,2,-1,1,0,-4,-5,-3
1558439745971393,-1,-2,0,1,1,7,5,3
1558439745986095,0,-3,-2,-1,-6,-10,-9,-7
1558439745986095,-2,-2,-5,-3,-2,-5,-3,-2
1558439745988088,0,-1,1,-2,0,-5,-4,-1
1558439745988088,-1,-1,0,-1,1,-2,0,1
1558439746000087,-1,-1,-2,-1,0,2,-1,0
1558439746000087,1,-1,2,0,-2,-1,2,0
1558439746009059,-3,-2,-3,-1,-4,-3,-6,-6
1558439746009059,-1,-3,1,1,7,15,15,5
1558439746021999,-3,-2,3,1,0,-1,-3,-4
1558439746021999,-4,-1,-3,-1,-4,-9,-6,-1
1558439746031294,-1,0,-1,1,2,5,2,2
1558439746031294,0,1,0,1,-1,-10,-7,0
1558439746046259,0,1,-2,-2,-1,3,4,-1
1558439746046259,-1,-1,1,-1,-6,-4,-6,-4
1558439746051947,-1,1,0,0,0,6,4,-1
1558439746051947,-2,-2,-4,-3,0,2,1,0
1558439746060230,1,0,0,0,-5,-8,2,1
1558439746060230,0,-2,2,1,5,3,-2,-2
1558439746068874,2,0,3,2,8,-1,2,4
1558439746068874,0,1,-1,0,1,1,-1,-6
1558439746081836,-3,-4,-2,-3,-2,0,-3,-1
1558439746081836,-2,-1,-5,-5,-13,-5,-4,-3
1558439746091044,-2,-1,0,-5,-15,-15,-8,-3
1558439746091044,-1,-2,4,4,14,5,7,1
1558439746106203,2,0,1,5,10,9,5,6
1558439746106203,-1,-1,0,0,-3,-1,-2,-3
1558439746112755,-1,-2,-3,-2,0,5,-1,-1
1558439746112755,0,-2,-1,-4,-13,-9,-10,-4
1558439746119735,0,-1,-1,1,2,-4,5,3
1558439746119735,2,1,-2,-2,2,4,4,5
1558439746128712,-1,-1,-3,-3,-4,-3,-3,-4
1558439746128712,-2,-1,-3,-2,-10,-9,-2,1
1558439746142712,0,-4,-3,-3,-2,-5,-6,-9
1558439746142712,1,1,4,3,11,2,3,4
1558439746151650,-1,-2,1,0,1,3,1,2
1558439746151650,-3,0,-1,-1,-2,2,-5,-8
1558439746164725,-1,0,0,-6,-7,-7,-4,1
1558439746164725,-3,-1,-2,-3,-8,-10,-5,-5
1558439746173780,0,0,-1,2,5,9,8,1
1558439746173780,-1,1,-1,0,1,-5,-5,-1
1558439746179914,-4,-2,-1,-1,3,-3,3,3
1558439746179914,0,-1,-1,1,0,1,-2,0
1558439746196531,-1,-2,-2,-3,-7,-1,-2,-2
1558439746196531,-1,-2,-4,-1,-1,7,-1,-2
1558439746202851,2,3,1,3,6,-1,0,1
1558439746202851,-2,-1,0,0,7,7,1,-3
1558439746211491,-2,-1,0,-2,-9,-13,-9,-6
1558439746211491,1,-2,0,-3,-4,-5,3,2
1558439746224457,-1,0,-1,0,-5,0,-4,1
1558439746224457,0,-2,-2,0,1,-2,2,1
1558439746233767,0,0,0,-2,-1,-1,-3,-1
1558439746233767,-3,-4,-5,0,0,-1,-1,-3
1558439746249504,-1,-2,-2,0,-1,-1,-1,-2
1558439746249504,-2,2,-1,-2,-4,-3,-2,-3
1558439746250388,-3,-3,-6,0,-1,1,-1,2
1558439746250388,-2,0,2,1,10,5,5,2
1558439746262387,-2,-3,-3,-3,-6,0,-4,-3
1558439746262387,-1,-3,-3,-3,-4,-8,-6,-1
1558439746271334,-1,-3,0,-2,-3,-5,-2,2
1558439746271334,-1,-3,0,-1,4,3,-3,-5
1558439746284982,-1,-1,-1,-1,1,8,6,1
1558439746284982,1,0,1,1,1,0,0,-1
1558439746300623,0,0,-1,-2,0,-2,1,1
1558439746300623,-1,-2,0,-4,-9,-11,-8,-3
1558439746300623,1,-1,-3,-2,-3,-10,-5,-4
1558439746300623,0,1,0,1,8,11,12,10
1558439746308603,-2,0,0,0,-3,-1,1,-5
1558439746308603,-2,-3,-1,0,-4,3,2,-1
1558439746322930,-4,-2,-4,-4,-10,-12,-8,-5
1558439746322930,1,0,0,2,10,4,7,2
1558439746331541,1,1,2,1,1,7,-1,0
1558439746331541,-3,0,-1,-1,-7,-3,-4,-5
1558439746345797,2,1,1,0,6,5,4,4
1558439746345797,-2,-1,-3,-2,-4,2,-5,-7
1558439746353982,-4,-3,0,-2,-4,-7,-1,-3
1558439746353982,2,0,0,-2,0,-6,-1,1
1558439746359468,-3,-2,1,-1,4,7,2,-3
1558439746359468,0,0,-2,-1,-5,-4,-2,-1
1558439746368974,0,0,-2,1,3,0,1,1
1558439746368974,1,1,-2,-1,1,-3,1,0
1558439746382889,-1,-1,-2,-1,-4,-2,-5,-1
1558439746382889,-2,-1,-2,-1,-5,4,-3,-4
1558439746391381,-1,-1,-1,-4,-6,-9,-3,-2
1558439746391381,0,-2,-1,-1,-1,1,-1,0
1558439746405343,0,-1,2,0,5,9,5,-1
1558439746405343,-2,-2,0,0,-2,-9,-2,-2
1558439746413670,-1,-3,-6,-3,-4,0,4,-1
1558439746413670,0,2,1,0,2,-3,-2,5
1558439746420609,-2,-1,-1,-3,-2,-5,-4,-3
1558439746420609,-2,-2,1,-4,-9,-9,-7,-5
1558439746428584,-2,-1,0,0,2,6,3,-1
1558439746428584,0,-2,0,0,0,1,0,0
1558439746443244,-2,0,-1,0,5,5,2,3
1558439746443244,-1,-2,-3,-2,-5,-3,-4,-2
1558439746451221,4,-2,-1,0,-2,-5,-2,-1
1558439746451221,-1,0,-1,-3,-3,-4,0,-3
1558439746465435,0,-3,-1,-2,-8,-2,1,2
1558439746465435,-3,-3,-1,2,8,6,1,-5
1558439746474162,0,-2,-1,-1,3,6,-2,5
1558439746474162,-2,-1,-1,0,-6,-4,-3,-7
1558439746480408,-3,-2,-2,-1,-2,-9,-4,-6
1558439746480408,1,1,2,1,6,15,6,1
1558439746496260,-3,-2,-2,-2,1,0,-3,-2
1558439746496260,-2,0,0,-1,-2,-10,-5,1
1558439746502086,0,-1,-1,-5,-10,-7,-8,-3
1558439746502086,-1,-3,-4,-1,-3,6,5,2
1558439746511259,0,2,3,2,3,-18,-7,-2
1558439746511259,-3,-3,-1,0,5,18,8,3
1558439746525026,1,-1,0,1,1,-1,-3,-3
1558439746525026,-2,-1,-1,-5,-5,-10,-7,0
1558439746534001,-2,-3,-5,-2,-6,-1,2,-3
1558439746534001,-2,-2,-1,-1,-4,3,2,-1
1558439746540506,-1,-2,-1,3,7,5,3,1
1558439746540506,-3,-1,0,-2,-1,-1,-7,-2
1558439746548961,-2,-2,-2,0,0,-2,0,-4
1558439746548961,2,1,1,0,4,1,0,0
1558439746563243,-3,1,-2,-5,-8,-3,-4,-1
1558439746563243,1,-1,0,0,-2,-5,0,1
1558439746571381,-2,-2,0,-3,-4,1,0,0
1558439746571381,-1,-3,-5,-5,-8,-6,-7,-4
1558439746585220,3,1,2,1,7,-2,2,2
1558439746585220,-4,-2,0,-1,-3,-3,-4,-2
1558439746593841,-3,-1,0,-1,3,5,1,1
1558439746593841,0,0,-1,0,-1,-2,0,1
1558439746600167,-3,-2,0,-4,-1,-2,-3,-2
1558439746600167,-1,-4,-3,-5,-9,-14,-7,-3
1558439746608799,-1,0,3,1,2,8,7,3
1558439746608799,0,1,0,3,7,6,4,1
1558439746623137,-3,0,-2,-1,-2,2,-1,-4
1558439746623137,-1,-1,1,1,2,5,3,2
1558439746631791,-3,-2,-1,-1,-5,-3,-8,-5
1558439746631791,-1,-3,-3,-2,-4,0,-1,0
1558439746645054,0,-1,0,0,4,0,2,0
1558439746645054,-1,0,-3,-3,-4,-6,-8,-5
1558439746653763,-1,-1,-3,-2,-8,-4,0,2
1558439746653763,-2,-1,-1,-2,2,-2,-2,-1
1558439746660675,0,-2,-2,-2,0,0,1,1
1558439746660675,-2,-1,-1,-1,-2,-5,-3,-3
1558439746668641,-1,-2,-4,2,5,3,-1,-3
1558439746668641,-1,-2,-1,-5,-5,-9,-4,-1
1558439746682925,-4,-2,-1,-2,-3,0,-2,0
1558439746682925,-2,-1,0,2,5,3,4,1
1558439746691579,-1,-1,0,-2,-2,-2,-3,-2
1558439746691579,-3,-3,-4,-2,-2,0,-4,-4
1558439746704546,-2,-3,-3,-1,-6,-5,-5,-4
1558439746704546,2,2,2,-1,1,-2,3,3
1558439746713810,-1,-2,-2,-1,-5,-4,-4,-6
1558439746713810,2,0,2,2,2,0,2,1
1558439746719505,3,0,-1,1,4,6,2,1
1558439746719505,-3,-2,-2,-4,-6,-3,-5,-4
1558439746735699,0,0,-1,0,2,2,6,6
1558439746735699,0,-2,1,1,-1,-6,-3,1
1558439746742494,-2,2,0,-1,0,4,-1,-1
1558439746742494,-2,-3,-4,-1,-5,-4,-1,-5
1558439746751421,-3,-2,-2,0,-2,-12,-6,-2
1558439746751421,2,3,2,2,7,7,4,4
1558439746764385,1,-3,-2,-1,-3,-3,0,3
1558439746764385,0,-1,-2,0,2,9,3,0
1558439746773792,0,0,1,-1,-4,2,-3,-2
1558439746773792,-3,-1,0,-1,0,1,-1,-1
1558439746789506,-2,-4,-4,-1,-5,-3,-2,-3
1558439746789506,1,1,0,-1,0,-1,3,1
1558439746790318,0,0,-1,-1,3,-4,-1,3
1558439746790318,-1,-1,0,-1,3,3,-2,-2
1558439746802284,0,1,1,1,-8,-6,-6,-3
1558439746802284,-2,-4,-3,-1,2,1,-2,-3
1558439746811404,5,0,1,0,5,2,1,1
1558439746811404,2,0,0,2,6,6,0,-2
1558439746825222,-2,-1,0,-2,-7,-6,3,-1
1558439746825222,-1,-1,-2,-2,-4,-4,-1,0
1558439746834454,-3,-2,-2,-1,-1,-9,-6,-3
1558439746834454,-2,-1,0,0,1,-1,0,-2
1558439746849193,-1,0,1,2,7,8,2,0
1558439746849193,-1,-1,-3,-5,-5,-2,0,2
1558439746850156,-4,-2,-3,-2,-12,-5,-5,-9
1558439746850156,0,-2,-2,-2,-6,-8,-6,-2
1558439746862160,1,-1,0,2,13,5,3,2
1558439746862160,0,2,2,4,9,5,0,2
1558439746871255,-2,-2,-2,-2,-4,2,3,3
1558439746871255,-1,-2,-1,-3,-11,-8,-2,-3
1558439746885096,-1,-2,1,-3,-3,-8,-3,-4
1558439746885096,-1,-1,-2,-1,-6,-8,-5,-3
1558439746894037,-2,0,1,-2,5,5,1,1
1558439746894037,-3,-2,-4,-2,-3,-1,1,4
1558439746908997,-1,-1,-1,-3,-4,0,0,-1
1558439746908997,-2,-2,-2,-1,-5,-8,-4,-7
1558439746909994,3,1,1,2,9,2,3,5
1558439746909994,-1,-3,-1,-2,-3,0,-5,-1
1558439746921962,-2,0,-2,-2,-5,-4,-3,1
1558439746921962,-1,-2,1,0,2,4,0,-3
1558439746930939,-1,-1,-1,-1,-5,0,-1,-2
1558439746930939,-3,-1,-1,-1,-2,-3,0,-7
1558439746944902,-3,-2,-2,-2,-1,2,1,-2
1558439746944902,0,0,0,0,3,2,0,3
1558439746953941,-2,-5,-3,-1,-4,1,1,1
1558439746953941,0,-2,-4,-3,0,4,0,-2
1558439746969227,0,1,-1,-2,-3,-8,-4,1
1558439746969227,1,0,1,1,4,1,1,2
1558439746970860,0,2,0,-2,2,-3,-4,-1
1558439746970860,-3,-1,-2,-1,-3,1,4,0
1558439746982998,-2,-2,0,-1,-4,-1,1,2
1558439746982998,-1,0,-1,-1,-3,-10,-5,-6
1558439746990778,-1,-1,0,1,3,5,-1,-4
1558439746990778,0,0,-1,-2,-2,0,-1,1
1558439747005066,0,2,-1,3,-1,0,1,1
1558439747005066,-3,-2,-2,-2,3,4,0,-3
1558439747013873,-1,0,-1,-4,-4,-5,-1,-1
1558439747013873,-3,-2,-5,-2,-5,-3,-4,-4
1558439747029128,-2,-3,-4,-2,1,1,-1,-2
1558439747029128,-1,-1,0,-1,-2,3,1,0
1558439747036389,2,2,0,0,2,5,1,0
1558439747036389,0,2,3,-1,1,3,-3,-3
1558439747043091,0,-2,1,-1,4,-3,0,4
1558439747043091,0,-1,-2,-1,-3,-1,-2,-3
1558439747053640,-3,-2,-3,-4,-9,-8,-4,-5
1558439747053640,-1,-2,-1,-1,-3,-9,-4,-1
1558439747065389,-1,-1,1,0,5,2,2,1
1558439747065389,0,-2,-2,1,0,5,3,3
1558439747073741,3,1,1,1,3,1,2,3
1558439747073741,-1,-3,-3,-4,-1,3,-3,-2
1558439747089496,0,-1,-2,-2,-5,-13,-9,-3
1558439747089496,-3,-3,-4,-3,-4,-8,-4,0
1558439747090328,-2,0,2,0,5,11,5,-1
1558439747090328,-1,1,1,0,-1,2,2,1
1558439747102603,0,0,-1,-1,-2,1,-1,-7
1558439747102603,0,-1,1,-3,-6,-5,-4,0
1558439747118518,-3,-4,-3,2,0,0,-4,-5
1558439747118518,2,1,4,4,9,5,7,5
1558439747125233,-2,-2,-3,-4,-8,-1,-4,-4
1558439747125233,-1,1,1,0,-2,-5,-1,1
1558439747134213,0,0,-3,0,-1,-3,0,1
1558439747134213,-4,-6,-2,-3,-5,-7,-7,-4
1558439747149405,-2,-3,-3,-5,-9,-6,-6,-5
1558439747149405,-1,1,0,0,5,7,5,3
1558439747150170,2,4,1,3,11,4,6,4
1558439747150170,1,0,-1,1,0,2,0,-1
1558439747162635,-3,-3,-2,-1,-5,-1,-3,-3
1558439747162635,-1,-2,-3,-5,-10,-3,-8,-2
1558439747171578,0,-3,0,-1,-3,-11,1,0
1558439747171578,1,3,0,-2,4,2,2,0
1558439747185591,-1,-2,-2,0,-5,-2,-2,-5
1558439747185591,-2,-1,-4,-2,2,3,-3,-3
1558439747194050,1,0,0,-2,6,9,3,3
1558439747194050,0,-1,-1,-3,-4,-13,-2,1
1558439747209009,0,1,-2,0,7,6,4,1
1558439747209009,-2,-3,-2,0,-3,-4,-5,-2
1558439747210132,-3,0,-2,-4,-11,-11,-11,-5
1558439747210132,-4,-4,-4,-1,-2,-4,3,2
1558439747223236,0,4,4,2,10,5,3,0
1558439747223236,0,-2,-1,-1,0,3,0,-2
1558439747232011,-1,-3,-2,-1,-6,2,-1,-2
1558439747232011,0,-2,-4,-4,-4,-7,-4,0
1558439747245271,-1,1,0,-2,-8,-7,-2,0
1558439747245271,-2,-4,-3,-1,2,-3,0,-2
1558439747253892,0,-2,0,0,3,5,3,6
1558439747253892,0,-2,-2,0,-1,-4,-3,-4
1558439747269070,0,-3,0,-2,4,2,-4,0
1558439747269070,-4,0,0,0,-2,-2,-2,-4
1558439747269975,-2,-2,-3,-3,-5,-10,-3,0
1558439747269975,-1,0,-2,-3,1,5,2,-2
1558439747283042,-1,-2,-1,0,-2,3,5,-1
1558439747283042,0,2,4,1,7,4,4,3
1558439747290796,-3,-1,-1,-2,-4,3,-3,-4
1558439747290796,-2,-1,-2,-2,-4,-4,-7,-4
1558439747305002,-1,-1,-3,-1,-4,-1,-1,-1
1558439747305002,0,-1,-2,0,3,-1,1,0
1558439747313729,3,0,0,-1,-1,-5,-2,-1
1558439747313729,-2,-1,0,-1,-4,1,-3,-2
1558439747328691,-3,-4,-4,-2,3,7,5,1
1558439747328691,0,-2,0,-1,-5,-16,-7,-5
1558439747329687,-1,-2,-2,-1,-4,-4,0,-2
1558439747329687,0,-1,1,-1,3,8,1,0
1558439747342652,0,-2,-1,0,4,-2,-1,0
1558439747342652,0,0,-2,-1,3,0,4,2
1558439747351022,-4,-2,-2,-2,-5,-3,-4,-3
1558439747351022,-2,-1,-1,-4,-13,-13,-8,-4
1558439747373989,-1,0,-1,-1,-2,4,1,1
1558439747373989,2,3,2,2,2,3,1,0
1558439747375574,1,1,0,0,6,3,2,1
1558439747375574,-3,-2,-1,1,1,5,4,-1
1558439747388902,0,-2,-3,0,-3,-9,-4,-2
1558439747388902,-2,-1,-3,-2,-7,3,0,-1
1558439747390523,-2,0,-2,-2,-7,-4,1,-3
1558439747390523,0,-2,-4,-3,-2,-8,-8,2
1558439747402879,0,3,4,3,5,-1,0,-4
1558439747402879,-1,-1,2,0,5,5,8,3
1558439747411470,0,-4,-2,-1,1,5,-1,2
1558439747411470,-1,-1,-3,0,2,3,1,-4
1558439747424435,-2,-1,-4,-3,-8,-3,-4,-2
1558439747424435,-1,-2,-2,-3,-8,-6,-2,-1
1558439747433784,-2,2,2,3,8,3,0,2
1558439747433784,-3,0,2,-2,-4,-9,-7,-3
1558439747449366,-1,-3,-2,-2,2,7,4,-1
1558439747449366,0,0,0,1,-4,-2,1,0
1558439747450365,-1,-3,-3,-2,-5,-3,-4,-5
1558439747450365,1,-1,-1,-2,1,-1,0,2
1558439747471560,-1,-3,-1,-2,-6,-10,-7,-2
1558439747471560,2,-1,-1,0,2,4,1,2
1558439747473303,-1,-2,0,-1,1,0,-1,-2
1558439747473303,1,1,1,3,3,7,10,2
1558439747485513,-1,1,-3,-1,-3,-9,-5,0
1558439747485513,-3,0,-2,-3,2,6,1,-2
1558439747493492,0,-1,0,-2,-4,-7,-3,0
1558439747493492,-1,-4,1,1,-2,2,-1,-1
1558439747508214,1,-1,1,1,3,5,3,1
1558439747508214,-2,-2,-1,-1,1,-4,-7,-4
1558439747515191,-2,1,-2,-4,-8,-6,-5,-4
1558439747515191,-1,-1,-3,-1,-4,-4,-1,-4
1558439747522174,1,-2,0,-2,1,-5,1,2
1558439747522174,0,-1,0,0,1,1,0,1
1558439747531148,-2,-2,-1,-1,-3,4,1,-4
1558439747531148,1,-2,-1,-1,-2,-4,-1,0
1558439747545113,-1,0,2,-2,4,1,4,6
1558439747545113,-3,-1,-2,-1,-3,0,-6,-7
1558439747554085,-1,0,-1,2,0,-2,-2,2
1558439747554085,-2,1,1,0,6,6,6,-3
1558439747577060,-2,-3,-3,-2,-4,-4,-5,-3
1558439747577060,0,-1,-1,-1,-4,-2,-2,1
1558439747578061,0,-1,-1,-1,0,2,-1,-1
1558439747578061,3,1,-2,-1,5,0,2,2
1558439747583196,0,2,1,1,-2,-3,-1,-1
1558439747583196,-2,-2,-3,-5,-11,-9,-7,-4
1558439747591515,1,-2,-3,0,7,8,8,2
1558439747591515,-2,-1,-2,1,6,2,4,3
1558439747604481,-1,-1,-2,-3,-4,-2,-6,-4
1558439747604481,-2,-3,-3,-4,-5,0,-1,-2
1558439747621437,0,-3,-1,-1,0,0,0,-2
1558439747621437,-2,0,2,0,0,-6,-3,0
1558439747628899,-2,0,-1,-1,1,5,3,1
1558439747628899,1,2,1,0,4,-2,3,3
1558439747635269,0,-2,-2,-4,-7,-5,-4,-3
1558439747635269,-1,-2,0,-2,0,2,1,1
1558439747643278,1,-3,-3,-3,-5,-8,-8,-2
1558439747643278,-4,-1,0,1,-1,3,0,-6
1558439747651230,0,-1,0,-1,-4,-6,-1,-4
1558439747651230,0,2,-1,-1,0,-2,-2,-1
1558439747665679,-1,0,-1,-1,-6,-4,-3,-3
1558439747665679,2,-1,-3,-1,2,1,3,3
1558439747673628,2,0,0,-3,-2,-2,1,2
1558439747673628,-1,-2,0,-2,-4,-6,-7,-7
1558439747689304,-1,1,-1,0,2,7,4,-1
1558439747689304,-1,-3,-2,-1,3,6,1,2
1558439747695561,0,0,2,1,11,-4,-4,-3
1558439747695561,0,-1,2,-1,-1,-2,1,2
1558439747711412,-3,0,-1,-3,-2,0,-2,0
1558439747711412,-2,0,-3,-4,-11,-12,-7,-4
1558439747712068,-3,1,-2,-2,-3,-2,3,1
1558439747712068,-2,-1,-1,-1,7,7,2,1
1558439747725042,-1,-3,0,-1,-3,4,-1,-5
1558439747725042,-1,0,2,0,2,0,2,2
1558439747734008,-1,-2,-2,0,-1,-7,-2,-1
1558439747734008,1,0,-2,-2,-2,-2,-1,-1
1558439747747970,-1,-3,-1,-3,-6,-5,-8,-2
1558439747747970,-3,-3,-2,0,7,2,2,-2
1558439747754952,-1,0,1,0,3,4,0,0
1558439747754952,-4,-5,-3,-2,-8,-2,-6,-4
1558439747771409,-1,0,1,-1,6,-2,6,3
1558439747771409,1,-1,-1,-1,-10,-11,-5,0
1558439747772933,-2,0,-1,2,7,13,6,0
1558439747772933,-2,-1,-2,0,0,2,0,-3
1558439747785402,-1,-2,1,0,3,-1,-1,-2
1558439747785402,1,-2,-3,-3,-3,-3,-3,-4
1558439747793850,-2,1,-2,-2,-4,-4,-1,0
1558439747793850,-1,-2,-2,0,-8,-2,-2,-2
1558439747807810,0,2,3,2,4,-1,0,1
1558439747807810,0,1,2,0,9,7,2,2
1558439747815141,-3,-3,-4,-4,-10,-6,-11,-7
1558439747815141,-2,1,-2,-2,-4,2,0,-3
1558439747831872,-1,0,-2,1,-2,-5,2,3
1558439747831872,0,-3,1,2,4,4,2,0
1558439747832745,0,0,0,2,3,5,2,-4
1558439747832745,1,1,2,-4,-4,-4,-1,-3
1558439747845055,-3,-2,-3,-4,-4,3,3,-1
1558439747845055,-2,0,1,1,2,-2,-3,-1
1558439747853832,-3,-1,-1,-3,-8,-14,-8,-1
1558439747853832,0,-1,-1,-1,4,0,2,3
1558439747867679,-2,-2,-1,-1,-1,-1,0,0
1558439747867679,-1,0,0,-1,1,2,-2,-3
1558439747874634,0,0,0,0,0,1,2,1
1558439747874634,0,-1,-4,0,-1,-4,-1,0
1558439747891588,-3,-2,-1,-2,-5,-4,-3,-4
1558439747891588,0,-2,-2,-1,-2,2,2,-3
1558439747892585,-1,-1,0,-2,-4,1,-6,-3
1558439747892585,-1,2,2,1,4,-4,-3,0
1558439747904551,-1,-2,-2,-2,-2,-1,-1,-1
1558439747904551,-1,1,-3,-2,-3,3,1,4
1558439747913527,2,0,-1,0,2,2,3,0
1558439747913527,-1,-1,2,0,3,-1,0,2
1558439747927491,0,-1,-1,-3,-5,0,-5,-6
1558439747927491,-1,-1,-3,-3,-7,-12,-5,-3
1558439747935640,0,0,-2,0,1,-6,0,1
1558439747935640,-1,-1,-1,0,1,5,5,0
1558439747951428,0,0,-2,1,4,1,-3,-3
1558439747951428,1,1,0,0,1,3,4,3
1558439747952437,-4,-2,-1,-3,-8,-10,-9,-4
1558439747952437,-1,0,-1,-2,-1,0,2,0
1558439747964391,-2,-2,-1,-1,0,11,1,0
1558439747964391,0,-2,-1,-1,-7,-6,-4,-3
1558439747973368,-1,-3,-4,-3,-3,-7,-4,-3
1558439747973368,2,0,2,1,2,3,2,1
1558439747988329,1,0,0,1,-2,-7,-1,5
1558439747988329,-3,-2,1,-2,3,7,0,-9
1558439747994313,-3,1,-2,0,2,-2,2,2
1558439747994313,-1,-2,-1,1,1,6,-3,-4
1558439748011268,-1,-2,-2,-3,-4,-7,-4,0
1558439748011268,-2,-1,-2,-3,-7,-10,-6,0
1558439748012263,3,0,-1,-1,-1,0,2,-2
1558439748012263,2,1,-4,-1,2,-4,-3,-3
1558439748025229,0,1,0,1,5,4,3,-2
1558439748025229,-4,-4,-4,-2,-3,-5,-3,0
1558439748033207,-2,-2,-1,-1,0,10,5,1
1558439748033207,-3,-1,0,0,-4,-6,-2,1
1558439748048171,0,-1,1,-4,2,-4,0,0
1558439748048171,0,-2,0,0,3,8,2,-1
1558439748056422,-1,-2,0,1,0,-3,-1,0
1558439748056422,-3,-1,-2,-2,-6,-6,-2,-1
1558439748071138,-2,-2,-3,-1,-4,-5,-5,-5
1558439748071138,0,0,0,-1,-1,-4,-4,1
1558439748072103,0,-1,-1,-4,-3,5,0,0
1558439748072103,-3,-1,-2,-2,-5,-1,-3,-6
1558439748085348,2,1,0,2,11,1,3,3
1558439748085348,0,0,-1,-2,2,-1,1,2
1558439748094080,-2,-1,-1,-3,-8,-7,-4,-2
1558439748094080,-4,-6,-4,-5,-9,-6,-5,-3
1558439748108008,-2,-2,-2,-2,-5,5,2,-1
1558439748108008,1,2,1,3,9,3,3,1
1558439748114989,-3,-3,-1,0,-3,-3,-1,-4
1558439748114989,-1,-1,-3,-1,-3,1,0,0
1558439748130945,-1,-2,0,0,1,2,0,-4
1558439748130945,0,-2,0,-2,-2,-5,-3,3
1558439748132940,-1,0,2,3,7,7,1,-2
1558439748132940,-1,-2,-3,-2,-6,-6,-4,-2
1558439748144910,0,0,-2,-1,-3,-3,2,5
1558439748144910,-2,-1,-1,2,-1,1,-3,-5
1558439748153885,0,2,1,-2,3,-2,-2,0
1558439748153885,0,-3,-2,-1,-5,-5,-2,-3
1558439748167848,-1,-2,0,1,6,3,1,1
1558439748167848,0,-1,0,-2,-3,0,0,-1
1558439748174831,-2,-4,0,0,0,3,-3,-3
1558439748174831,-2,0,2,0,1,4,2,-3
1558439748190786,-1,-3,-2,-2,-3,-2,-2,-1
1558439748190786,-3,0,-1,-4,-9,-15,-5,-4
1558439748192783,1,0,-2,0,-2,3,0,-1
1558439748192783,0,1,0,1,2,0,5,1
1558439748205024,2,0,0,4,5,6,-1,0
1558439748205024,0,1,0,0,4,3,1,-1
1558439748213725,-2,-4,-4,-5,-8,-6,-9,-3
1558439748213725,-1,-1,0,0,4,1,0,2
1558439748227687,-1,0,0,-3,1,0,4,0
1558439748227687,-1,-3,-1,-1,-4,4,2,0
1558439748242647,2,-1,-1,1,0,0,1,2
1558439748242647,0,-4,-1,-1,2,-2,-3,-2
1558439748251724,-1,-2,-1,-2,0,-4,-4,1
1558439748251724,-4,0,0,1,-3,3,3,-4
1558439748252622,0,-2,-2,-1,0,-2,3,-1
1558439748252622,1,0,-1,-1,2,1,-4,-4
1558439748264751,-1,-1,-1,-3,-5,-2,-6,-2
1558439748264751,-2,-1,-2,-3,-4,-6,-5,-7
1558439748273573,-1,1,2,0,2,-2,3,3
1558439748273573,0,-2,-1,-1,2,3,1,0
1558439748287528,-2,-3,-2,-4,-7,-10,-8,-2
1558439748287528,-1,-2,-2,-3,-1,7,1,1
1558439748294511,-2,-1,-1,-2,0,4,3,1
1558439748294511,-1,0,2,3,3,-8,0,1
1558439748311463,-2,-1,0,-2,-3,-1,-4,-4
1558439748311463,-1,-4,-3,0,-1,3,2,-3
1558439748312461,-1,-2,-2,-1,-3,-7,0,-2
1558439748312461,-1,1,0,-2,0,2,1,3
1558439748324432,0,2,1,1,4,1,-1,-1
1558439748324432,-1,0,-1,0,0,0,-3,1
1558439748333542,1,0,0,1,4,4,2,0
1558439748333542,-1,1,0,-3,-8,-12,-7,-4
1558439748347367,-2,-4,-6,-4,-6,-2,-3,-5
1558439748347367,-2,-1,-1,-2,-5,-8,-1,3
1558439748355345,-3,-1,-1,1,3,10,2,0
1558439748355345,0,0,0,0,8,9,2,-1
1558439748371310,-2,-1,0,1,-4,1,1,-3
1558439748371310,-1,-5,-4,-2,-2,-9,-4,-1
1558439748372300,2,-1,0,-1,4,2,4,6
1558439748372300,-2,0,0,-1,-6,-9,-7,-3
1558439748385423,1,-1,0,-1,-2,-9,-1,3
1558439748385423,-4,-1,-4,-1,3,7,-2,-8
1558439748393244,-6,-2,-3,-3,-8,-6,-7,-4
1558439748393244,-1,-1,0,2,4,8,3,0
1558439748407206,-2,-1,0,1,-1,-3,-1,-1
1558439748407206,0,0,1,1,4,-6,-1,1
1558439748416182,0,-1,-2,1,3,6,2,0
1558439748416182,0,-1,-2,-1,-2,0,-1,-1
1558439748430146,-2,-1,1,0,1,5,0,-2
1558439748430146,-2,-1,0,-2,0,-4,0,1
1558439748445108,-4,-3,-2,-2,-2,1,1,-5
1558439748445108,2,-1,-1,-2,-5,-3,0,6
1558439748446103,-1,-1,-1,-2,-1,-7,-5,-5
1558439748446103,1,0,1,1,-1,1,1,0
1558439748454081,-1,0,0,-1,2,-6,-3,-2
1558439748454081,-2,-4,-4,-3,-6,-3,-5,-4
1558439748467225,0,-1,-2,0,-2,-1,1,1
1558439748467225,-2,-2,-3,-3,-4,-4,-2,-3
1558439748476023,1,-2,-2,-2,0,-3,0,3
1558439748476023,0,-2,1,1,9,9,3,-1
1558439748490071,-2,-3,-3,-1,0,2,-2,-3
1558439748490071,0,1,1,-2,-3,-6,-1,1
1558439748496967,0,1,-2,-1,-2,-11,-3,-2
1558439748496967,-1,-1,-3,-1,-3,-1,3,1
1558439748513921,-1,-2,2,-1,-6,-1,-6,-7
1558439748513921,-4,-2,-2,-2,0,2,-1,-2
1558439748514921,-2,-2,-1,0,0,-2,-3,-2
1558439748514921,0,-1,-1,-1,0,-1,0,0
1558439748535863,1,1,1,-2,6,12,13,7
1558439748535863,-1,1,1,1,0,-3,-6,-8
1558439748537858,0,-1,0,-2,-5,-4,-6,-4
1558439748537858,-3,-3,-3,-3,-6,-5,-3,-3
1558439748558802,1,1,0,0,-1,-10,-2,3
1558439748558802,-1,-3,-2,0,-2,1,0,1
1558439748559810,1,2,-1,-3,-1,1,-2,-1
1558439748559810,-1,-2,-1,-1,-3,3,-3,-3
1558439748564787,-1,0,-1,-2,-5,-1,-3,-2
1558439748564787,1,1,2,1,7,6,10,8
1558439748573769,0,0,0,0,1,-9,0,2
1558439748573769,1,-1,-2,0,3,4,-2,-1
1558439748586731,0,-2,-3,0,-1,-2,0,-2
1558439748586731,2,0,3,1,3,5,1,-1
1558439748603681,-3,-3,-5,-3,-9,-8,-9,-6
1558439748603681,-3,0,-2,-2,-1,0,2,1
1558439748610664,-2,0,-1,-1,6,7,4,1
1558439748610664,-1,-1,-3,-2,-4,-4,-3,-2
1558439748617664,-1,0,1,0,-4,-3,1,1
1558439748617664,0,2,1,0,7,3,-1,4
1558439748633839,-4,-3,-2,-2,-3,1,3,-5
1558439748633839,-1,0,0,-1,2,2,1,-3
1558439748634600,-1,-3,0,0,-7,-10,-5,1
1558439748634600,-2,-4,-2,-4,-7,-4,-2,-4
1558439748647566,1,-3,-2,-2,-1,1,-1,1
1558439748647566,1,0,0,1,2,4,2,2
1558439748663521,-1,0,-1,0,5,3,5,3
1558439748663521,-1,-1,1,0,5,-3,-6,-8
1558439748670538,0,-2,-1,1,-1,1,-3,-2
1558439748670538,-5,-3,-4,-3,-8,-4,-5,-3
1558439748677675,1,0,-2,-2,-2,2,0,0
1558439748677675,-1,-1,1,1,-3,-4,2,3
1558439748693470,-3,-1,-6,-4,0,-5,-5,-4
1558439748693470,-1,-2,-3,-4,-4,0,-4,-2
1558439748695438,-3,0,1,0,4,8,5,0
1558439748695438,1,2,0,0,-3,-8,-2,-1
1558439748707407,-1,-2,0,-1,2,-2,-1,-1
1558439748707407,1,1,-1,1,4,-4,-4,2
1558439748724364,-1,-1,-1,-1,-3,2,-5,-3
1558439748724364,-2,0,-3,-3,-5,-3,0,0
1558439748730345,1,0,0,0,-1,4,5,1
1558439748730345,-2,-4,-3,-1,-10,-19,-3,-2
1558439748737327,0,-1,2,1,10,8,-1,-1
1558439748737327,-1,-1,-1,0,3,-1,0,1
1558439748753305,0,-2,-2,-1,-4,-1,-5,-2
1558439748753305,-3,-3,-3,0,-4,1,0,-2
1558439748755278,-2,-2,-2,-1,-6,-7,-4,-5
1558439748755278,-3,-3,-4,-2,3,6,1,0
1558439748767244,1,3,3,3,6,3,6,7
1558439748767244,-1,0,-1,-3,0,1,2,1
1558439748776221,-1,-4,-3,-2,-7,-8,-6,-5
1558439748776221,-1,-1,0,-1,2,-3,-1,-3
1558439748790189,0,1,1,0,-3,-7,-3,-3
1558439748790189,-3,-2,-4,-3,-4,1,-2,-6
1558439748797163,-3,1,0,0,5,7,5,2
1558439748797163,0,0,3,1,0,0,1,4
1558439748814265,0,-3,-1,-1,2,-7,-7,-1
1558439748814265,3,-4,1,-1,-3,0,2,0
1558439748815118,-1,-3,-4,-1,-6,-1,0,1
1558439748815118,-2,0,-1,0,2,4,4,-4
1558439748827253,-2,0,-2,-3,-3,-7,-2,1
1558439748827253,2,0,1,0,-6,-4,-3,-2
1558439748836059,-3,-2,-3,-3,-4,-2,-5,-3
1558439748836059,0,-1,1,-1,3,8,3,3
1558439748858999,-5,-4,-3,-4,-9,-7,-9,-8
1558439748858999,-2,0,-1,0,2,0,0,0
1558439748859998,0,-1,1,0,2,-3,0,-4
1558439748859998,-2,1,-3,1,3,4,2,3
1558439748880940,0,-3,0,-1,-3,2,4,3
1558439748880940,-3,-5,-4,-2,-1,0,-6,-7
1558439748882935,-1,-2,-2,-4,-5,0,2,-2
1558439748882935,0,-3,-2,-4,-9,-14,-8,-6
1558439748886923,-2,1,0,-1,0,-4,2,1
1558439748886923,0,0,1,-1,-3,5,1,0
1558439748895990,0,-1,1,0,6,4,-1,4
1558439748895990,-2,-1,-4,1,-2,-5,-4,-2
1558439748911033,-4,-3,-3,-2,-4,-5,-2,-7
1558439748911033,-3,-2,-2,-1,0,2,-3,3
1558439748916843,-1,0,-1,1,-5,-10,0,0
1558439748916843,-3,-5,-3,-2,-1,-1,-2,-5
1558439748933799,1,-3,-1,-3,-1,5,5,1
1558439748933799,2,2,0,2,8,5,1,-1
1558439748934795,-1,-1,-1,-1,4,9,3,0
1558439748934795,-1,-1,-2,-1,-5,-8,-3,1
1558439748946980,-1,-2,-3,0,-4,-5,-3,-3
1558439748946980,-1,0,1,3,6,5,-2,1
1558439748955749,-2,-2,-2,-2,0,3,-2,-6
1558439748955749,0,0,0,-4,-7,-10,-2,5
1558439748970700,-1,-3,-1,-2,-3,-3,-2,-2
1558439748970700,-1,1,2,-3,0,-2,1,2
1558439748976711,1,1,0,2,-3,-1,-4,-3
1558439748976711,1,0,1,0,4,2,0,-1
1558439748993641,1,0,-1,0,4,13,8,5
1558439748993641,-2,-1,0,-3,-4,-10,-10,-5
1558439748999622,0,1,-1,0,2,-2,-2,0
1558439748999622,0,-1,-2,1,-1,8,1,-3
1558439749007601,1,1,1,0,-2,-2,1,8
1558439749007601,-1,0,0,-1,0,-6,1,1
1558439749016577,-3,-3,-3,-1,-3,-1,-3,-8
1558439749016577,-1,-2,-1,-2,-2,-4,-6,-4
1558439749030539,1,-1,-2,1,0,0,0,-5
1558439749030539,0,-1,-1,2,4,7,5,2
1558439749037520,-1,-3,-3,-2,-3,-3,-2,1
1558439749037520,-4,-2,0,-1,-1,-4,-1,-4
1558439749061457,2,2,-2,0,0,-2,-3,3
1558439749061457,-1,-5,-5,-3,-7,-8,-4,-1
1558439749062458,1,-1,-1,-1,0,3,4,7
1558439749062458,-2,0,1,-2,-3,-9,-5,-6
1558439749067449,-4,-2,-2,2,5,0,-4,-6
1558439749067449,4,2,3,0,0,-4,0,6
1558439749076417,-1,-1,-2,0,-1,-1,-7,-7
1558439749076417,-4,-3,-5,-5,-6,4,-1,-4
1558439749090380,-2,0,0,-4,-7,-5,-7,-5
1558439749090380,-2,0,-1,1,5,5,3,-6
1558439749097362,0,-1,2,3,9,2,10,8
1558439749097362,0,-1,1,0,-4,-4,1,3
1558439749113324,-3,-4,-4,-6,-13,-10,-12,-12
1558439749113324,3,-1,0,0,1,2,9,12
1558439749115313,-4,-3,-4,-2,-1,-2,-2,-1
1558439749115313,5,1,0,-3,0,-3,1,3
1558439749127283,-7,-3,-1,1,3,8,-2,-8
1558439749127283,-3,-1,-3,-2,-3,-3,-8,-16
1558439749136257,-1,-3,-1,-2,-6,-7,-8,-4
1558439749136257,0,1,0,0,3,0,3,6
1558439749150220,0,-2,-1,-2,-4,-5,-2,4
1558439749150220,-1,5,1,0,2,-2,3,7
1558439749157206,-7,-8,-3,-3,1,1,-2,-10
1558439749157206,-2,-3,-3,-4,-8,0,-4,-4
1558439749173158,2,-2,3,2,4,3,3,-1
1558439749173158,0,-4,-2,-1,-1,0,-4,0
1558439749175156,3,3,3,0,8,3,12,14
1558439749175156,-3,-3,-4,-3,-7,-6,-10,-4
1558439749187120,-4,0,-1,1,-2,-3,-12,-12
1558439749187120,-3,-2,-1,-3,-5,-7,-1,-1
1558439749196097,2,2,2,1,-1,2,0,2
1558439749196097,-2,-2,0,2,11,9,8,0
1558439749210060,3,-2,0,-3,-2,0,5,7
1558439749210060,-3,-4,-4,-3,-8,-2,-6,-5
1558439749217041,-1,0,-2,-3,-7,-7,-4,-3
1558439749217041,-1,-1,-1,-1,-2,-7,2,1
1558439749233996,2,4,2,1,7,6,5,4
1558439749233996,1,1,0,-1,4,2,4,3
1558439749234997,-4,-1,-2,-2,-7,-1,-5,-6
1558439749234997,-2,-1,-1,-1,-8,-9,-3,-2
1558439749246962,-1,-3,1,1,6,2,6,5
1558439749246962,-1,-5,-2,-1,-1,-6,-6,-6
1558439749255939,0,0,-3,-1,0,2,-2,0
1558439749255939,-3,-1,0,2,5,7,1,-4
1558439749270899,-3,1,-1,-1,-8,-4,-1,6
1558439749270899,0,0,0,-1,-5,-5,-5,-8
1558439749276884,-2,-1,-3,-1,-2,-8,-3,-2
1558439749276884,2,1,3,3,5,3,5,2
1558439749293842,-1,-2,-1,-3,-2,-5,2,-2
1558439749293842,-1,-2,1,-1,-3,-2,0,1
1558439749294834,-2,-2,-3,-2,-1,4,-3,-4
1558439749294834,1,-2,-2,-1,-6,-3,-3,1
1558439749306802,-3,0,-2,-1,0,-3,0,-1
1558439749306802,1,2,2,1,5,6,5,5
1558439749315777,0,-1,1,0,-2,0,0,0
1558439749315777,-2,-2,-1,-4,1,1,-3,-3
1558439749330738,0,-1,-4,-5,-11,-9,-5,-3
1558439749330738,-1,-3,-3,1,-2,-11,-3,-4
1558439749336720,2,3,2,2,15,9,6,5
1558439749336720,-2,-2,-1,1,1,5,1,-3
1558439749352680,-1,-2,-1,1,2,1,-4,-1
1558439749352680,-2,-2,-2,-3,-4,4,2,-2
