timestamp,emg1,emg2,emg3,emg4,emg5,emg6,emg7,emg8
1558439681676274,-3,0,-4,-7,-6,3,-6,-14
1558439681676274,-1,-2,-3,4,0,1,-1,-3
1558439681677277,0,-1,-1,0,-2,-4,-2,-2
1558439681677277,-2,-1,-1,-5,2,9,-1,-4
1558439681678271,4,1,0,2,4,4,8,11
1558439681678271,-2,-5,-3,0,-4,-11,-6,-3
1558439681679267,-4,-2,-3,-5,-10,-4,-8,-5
1558439681679267,2,-1,-2,1,4,1,4,1
1558439681689240,-4,-2,1,3,-3,-2,-4,-5
1558439681689240,-2,1,1,-7,-1,-1,-2,-2
1558439681698215,0,-1,-1,-2,-1,-2,2,3
1558439681698215,-2,-2,-2,1,2,7,3,-2
1558439681706195,0,-2,0,-2,1,-2,1,0
1558439681706195,-1,0,0,-3,-1,2,1,1
1558439681720155,4,1,0,0,-7,-8,-7,-4
1558439681720155,-3,-1,-1,-1,-9,-10,-9,-3
1558439681728134,-3,-2,-2,1,7,11,7,1
1558439681728134,1,2,1,0,3,-2,0,3
1558439681735115,2,-1,0,1,6,10,8,6
1558439681735115,-1,-1,-2,-2,-2,0,-4,-9
1558439681750077,-2,-1,-1,-3,-7,-20,-14,-3
1558439681750077,-4,-3,-2,-3,-7,-1,-6,-5
1558439681758054,2,1,1,0,6,7,7,1
1558439681758054,2,-1,-2,-2,-4,-7,1,3
1558439681797948,-2,0,-1,4,6,1,2,1
1558439681797948,-2,0,1,2,1,-1,-3,0
1558439681798946,-4,-1,-4,-5,-7,-4,-7,-7
1558439681798946,-3,-4,-4,-4,-6,1,0,-4
1558439681798946,0,-1,0,2,-3,-7,-2,0
1558439681798946,-1,-3,-3,-4,-1,-5,-5,-4
1558439681802935,2,2,4,2,10,0,5,3
1558439681802935,-1,0,1,2,0,3,2,-1
1558439681809915,-1,-2,-3,-3,-5,-3,-4,1
1558439681809915,-1,-1,-2,-4,-1,0,-1,-1
1558439681816897,-2,-4,-4,-2,-10,-4,-7,-5
1558439681816897,-1,0,1,2,5,-6,4,3
1558439681825873,1,2,2,-2,-1,4,-2,-3
1558439681825873,1,-1,-1,0,2,-1,4,4
1558439681839836,-1,-1,0,-1,-2,1,-7,-8
1558439681839836,0,1,-1,-4,-1,6,2,0
1558439681846817,-2,1,0,-2,-4,-4,-1,0
1558439681846817,-1,2,0,0,-6,-10,-7,-5
1558439681854798,0,-1,1,1,5,3,7,6
1558439681854798,-4,-5,-5,-4,-6,-10,-9,-5
1558439681869756,-1,-2,-2,1,-5,-1,-6,-4
1558439681869756,0,-3,-1,-1,7,6,2,3
1558439681876738,-3,-3,-4,-2,-3,0,0,-2
1558439681876738,0,-1,-2,-1,-2,1,-5,-1
1558439681885712,-5,-6,-3,-4,-4,-3,1,-6
1558439681885712,0,-1,-1,0,-2,-2,3,-1
1558439681900673,0,2,3,1,6,-2,6,6
1558439681900673,1,0,1,3,8,-4,-2,5
1558439681906657,-1,1,-2,-1,-2,1,-3,-2
1558439681906657,-1,2,0,-2,-5,4,0,-5
1558439681914635,2,0,0,-1,2,11,6,4
1558439681914635,-9,-6,-3,-1,-10,-11,-8,-8
1558439681937575,4,3,3,0,13,4,7,7
1558439681937575,-4,-4,-2,-1,-2,4,3,0
1558439681938571,1,2,-1,0,-5,-16,-13,-3
1558439681938571,2,-1,-2,-1,-1,7,4,-1
1558439681945554,-4,-2,-1,-3,-4,-3,2,-4
1558439681945554,-2,-3,-2,1,0,3,3,0
1558439681960513,-1,-2,-2,-2,-3,3,1,-2
1558439681960513,1,-1,3,0,-2,-10,-4,2
1558439681966498,-1,-1,1,-2,0,-5,-7,-5
1558439681966498,-1,1,-1,-2,-1,-1,-9,-2
1558439681974476,2,0,3,1,5,12,9,3
1558439681974476,0,3,1,0,6,9,4,-2
1558439681989436,1,-1,-1,-3,-6,2,-1,-2
1558439681989436,0,-3,-3,-4,-9,-18,-10,-1
1558439681997414,-4,-2,-2,0,8,3,5,-1
1558439681997414,4,5,3,2,5,4,1,3
1558439682005393,3,2,-2,-3,-6,-7,0,2
1558439682005393,-10,-5,1,1,10,9,6,1
1558439682020353,-2,-1,-2,-1,-10,-19,-11,-3
1558439682020353,-2,-4,-4,-3,-4,-6,-4,-2
1558439682027335,-2,-1,-1,2,6,11,7,2
1558439682027335,1,0,-3,-4,-12,-8,-7,-3
1558439682034317,-1,-2,-1,-3,-5,-8,-2,-4
1558439682034317,-1,-1,-1,1,9,12,3,0
1558439682049277,-2,0,0,-1,-5,-7,-6,-2
1558439682049277,0,-1,-2,-1,0,8,5,2
1558439682057256,-1,-1,-2,-2,-3,5,-2,-2
1558439682057256,-1,-2,-2,-5,-9,-10,-4,-2
1558439682066232,-1,0,2,3,9,0,-2,-1
1558439682066232,0,2,-1,-1,3,1,-3,-3
1558439682080194,-2,-2,-3,-2,-3,-2,2,1
1558439682080194,-1,-2,-3,0,4,2,2,2
1558439682095154,-1,-4,-2,-2,-6,-8,-6,-1
1558439682095154,-1,0,1,-1,-2,-2,-1,-3
1558439682096151,-1,1,2,-2,-1,5,-4,1
1558439682096151,-1,-1,-1,-2,-4,-3,3,2
1558439682109115,0,-1,-2,2,6,10,0,-7
1558439682109115,-4,-1,-2,-1,1,-3,-3,-3
1558439682117096,-4,-4,-3,-4,-12,-16,-12,-6
1558439682117096,-3,1,0,-1,2,6,3,-2
1558439682126071,-3,-1,-2,-3,-3,-13,-4,2
1558439682126071,3,0,2,3,4,7,6,3
1558439682140033,0,1,2,2,6,12,4,1
1558439682140033,-1,-2,-3,-3,-8,-2,-4,-9
1558439682147016,1,-2,-1,-2,-3,-11,1,7
1558439682147016,-1,-2,-1,-4,-4,-7,-1,1
1558439682153995,-3,-2,-1,-1,-6,-7,-10,-2
1558439682153995,1,-1,0,2,5,3,3,3
1558439682168955,-1,0,0,2,3,19,3,-1
1558439682168955,0,-1,1,0,4,-3,-1,-2
1558439682176934,-2,-2,-4,-3,-2,-6,-5,-2
1558439682176934,-1,-3,-3,-2,-3,0,-2,-3
1558439682185910,-4,-5,-4,-5,-8,-5,-1,0
1558439682185910,-1,0,1,1,0,-5,0,1
1558439682199873,1,-1,-4,-1,3,3,-1,-1
1558439682199873,-2,2,0,-1,-9,-8,-10,-4
1558439682206853,1,-2,-1,-2,3,8,2,1
1558439682206853,0,0,-1,-1,-5,-5,-2,-5
1558439682222812,1,0,-3,-1,-1,2,3,-2
1558439682222812,-5,-3,2,0,5,-4,2,-1
1558439682229793,1,0,0,-2,-8,-6,-2,0
1558439682229793,-3,0,-1,0,5,1,-3,2
1558439682236774,3,3,2,3,5,-3,-1,1
1558439682236774,-2,-1,0,-2,-1,-1,-1,2
1558439682245750,-3,-1,0,-2,-9,-4,-9,-8
1558439682245750,0,-1,-4,-1,-4,3,3,-3
1558439682260712,-3,-3,0,2,8,9,3,1
1558439682260712,-1,0,-1,0,1,5,-4,-2
1558439682266695,-1,-3,-1,-4,0,-12,-1,0
1558439682266695,0,-1,0,-3,-4,3,-3,-5
1558439682282652,0,-2,0,-2,-5,-4,-1,-2
1558439682282652,1,-1,0,4,2,3,2,1
1558439682289633,3,1,0,-1,3,0,6,2
1558439682289633,-7,-1,-2,1,-2,-3,-4,-3
1558439682296616,1,1,-1,-1,-2,-6,-1,-3
1558439682296616,-1,-1,-2,-7,-6,-1,-2,-4
1558439682305590,-4,1,-1,-1,-2,0,-9,-4
1558439682305590,3,1,1,-2,-3,-4,3,8
1558439682319553,1,1,-2,1,0,-1,-1,-4
1558439682319553,-3,-1,0,-1,0,-1,-4,0
1558439682328529,-1,-3,-2,-1,0,7,1,-4
1558439682328529,1,0,-1,2,8,11,4,2
1558439682342491,-3,-3,-2,-6,-4,-2,0,-1
1558439682342491,2,-1,-3,-2,-7,-9,0,-1
1558439682349473,-1,0,-2,-1,-1,-10,-3,1
1558439682349473,-2,-3,0,-2,-5,-5,-11,-8
1558439682356453,1,1,-1,0,3,7,4,-1
1558439682356453,-3,0,-3,-3,-2,3,-1,-2
1558439682365431,-2,1,0,-1,-3,-3,0,-1
1558439682365431,-2,0,-3,-3,-4,-6,-4,-5
1558439682379393,-1,1,2,0,-1,-2,0,2
1558439682379393,-1,-2,-2,1,1,-7,3,2
1558439682388368,-2,0,0,-3,-3,-4,-3,0
1558439682388368,1,1,2,0,4,7,5,-2
1558439682402331,-3,-4,-3,-2,-6,-2,-6,-1
1558439682402331,2,-1,-2,-1,-4,-6,-12,-5
1558439682409315,5,5,2,1,11,14,13,4
1558439682409315,-9,-5,-1,0,-2,-5,0,1
1558439682417290,-2,-1,2,1,6,3,2,3
1558439682417290,1,-3,-2,1,0,6,1,-1
1558439682426267,-3,-6,-6,-3,-12,-8,-7,-6
1558439682426267,4,1,-1,-3,-1,-3,2,2
1558439682439233,-1,1,-1,1,7,-1,5,1
1558439682439233,-3,-2,0,-6,-5,-4,-5,-3
1558439682448208,-1,-2,-1,2,5,3,4,-1
1558439682448208,-1,-1,-2,-1,-7,-5,-5,-2
1558439682462171,-3,-2,0,-2,-3,0,-4,-4
1558439682462171,2,3,2,-1,3,-2,2,0
1558439682478129,-1,-1,-2,-2,-2,0,-6,1
1558439682478129,-1,-1,1,-1,4,6,4,2
1558439682478129,0,-1,-2,-2,0,1,-1,0
1558439682478129,0,0,-1,1,-4,-7,-2,0
1558439682492094,-1,1,3,-1,-4,-2,-3,-6
1558439682492094,-1,-1,-2,-2,-1,1,-3,0
1558439682499073,0,-2,1,-3,-3,-10,-5,-3
1558439682499073,4,1,0,-1,4,5,6,4
1558439682508050,-11,-9,-3,0,-3,-3,-1,-4
1558439682508050,2,0,0,0,-5,-5,-2,1
1558439682523008,-3,-2,-4,-3,-8,-3,-2,-6
1558439682523008,1,5,5,2,11,10,5,2
1558439682528993,2,1,1,0,3,4,-1,3
1558439682528993,-1,-3,-4,1,-4,-3,-3,-2
1558439682536970,-2,-5,-3,-7,-11,-6,-4,-2
1558439682536970,-3,-2,-2,-3,-6,-5,-3,-1
1558439682551931,3,2,1,3,13,13,6,5
1558439682551931,-1,1,2,-1,-3,-5,-7,-7
1558439682558913,-2,1,1,-2,-5,0,0,-2
1558439682558913,-2,-3,-2,1,2,-13,-10,-4
1558439682567889,-1,1,2,0,4,1,4,1
1558439682567889,-1,1,0,0,1,-2,-1,0
1558439682582849,-3,-3,-4,-2,-1,2,-6,-3
1558439682582849,-2,-2,-3,-2,-11,-3,0,-6
1558439682589830,-5,-2,-6,-5,-13,-11,-12,-8
1558439682589830,2,0,2,3,15,7,10,10
1558439682596811,2,3,4,1,7,3,8,3
1558439682596811,2,-3,-1,-1,-2,-1,-4,4
1558439682611793,-9,-9,-6,-3,-8,-9,-5,-8
1558439682611793,1,2,-1,-2,-7,-2,-4,-8
1558439682619752,1,2,-1,-1,11,9,6,5
1558439682619752,-1,-1,0,-3,-1,-2,-2,-2
1558439682628727,2,4,0,-2,-6,-7,-11,-2
1558439682628727,-1,0,1,1,0,-2,1,4
1558439682642694,0,-1,0,1,2,-8,-2,0
1558439682642694,-3,-2,-1,-1,-1,4,-1,-3
1558439682649671,3,1,-3,1,6,3,10,3
1558439682649671,-4,-4,-3,-5,-6,-6,-10,-7
1558439682656658,1,0,1,1,-3,-2,-1,0
1558439682656658,-2,-1,-1,-1,0,1,-2,-1
1558439682671612,-2,-2,-1,-1,0,4,2,-3
1558439682671612,0,-2,-4,-2,0,0,4,2
1558439682679591,-3,-3,-2,-2,-8,-9,-9,-6
1558439682679591,-3,-1,0,-1,0,-6,-1,-1
1558439682688567,4,1,2,0,7,6,5,4
1558439682688567,0,-1,-2,-2,0,2,1,-2
1558439682702529,-2,-2,-3,-4,-8,-6,-5,-2
1558439682702529,-4,-4,-5,-5,-7,-2,-6,-9
1558439682709513,5,5,5,4,15,8,14,6
1558439682709513,-2,-3,-3,-1,0,1,-2,-2
1558439682717490,1,1,-2,-2,-3,-3,-6,-2
1558439682717490,3,1,0,0,1,1,4,7
1558439682732451,-2,-1,0,-2,-9,-3,-4,0
1558439682732451,-1,-1,-1,-1,-3,-4,-4,-4
1558439682739431,-3,-4,-3,-1,-2,8,1,0
1558439682739431,3,1,0,1,4,-9,-1,0
1558439682755387,0,1,1,2,-1,-1,-2,-3
1558439682755387,-2,-3,-1,-1,2,2,2,3
1558439682762368,-2,0,-3,-2,-6,-3,-4,-5
1558439682762368,-5,-3,-2,-4,-8,0,-6,-3
1558439682769349,-2,-2,-4,-2,-7,-6,-5,0
1558439682769349,-1,1,2,0,2,4,3,2
1558439682785309,1,0,2,1,0,-4,-1,-2
1558439682785309,1,1,2,4,13,5,11,8
1558439682792290,-3,-3,-5,-3,1,-3,-5,-3
1558439682792290,-2,-1,-4,-4,-9,-1,-4,-4
1558439682808251,-2,-5,-1,0,-3,-6,0,-1
1558439682808251,-1,-1,-1,-1,-4,-3,-4,-4
1558439682809248,4,0,1,-1,2,2,0,3
1558439682809248,-1,-1,-1,-1,0,1,-2,-4
1558439682823205,-2,1,1,1,2,5,0,3
1558439682823205,0,0,-2,-2,-6,-7,-5,-1
1558439682829195,-2,-3,-2,-1,-1,-1,-1,-2
1558439682829195,2,0,0,-2,-3,-2,-1,-3
1558439682845147,-11,-8,-3,0,-1,-5,-1,0
1558439682845147,-2,-2,-1,-2,-1,-3,2,-2
1558439682852174,1,0,0,-1,-1,4,-2,-2
1558439682852174,1,2,0,2,1,-6,0,4
1558439682868194,3,1,-3,-2,3,7,1,-1
1558439682868194,-1,2,1,0,-3,2,-1,0
1558439682870090,-4,-3,-3,-2,-7,-5,-2,-8
1558439682870090,0,0,0,0,1,-1,-4,-1
1558439682883046,1,-4,-1,0,4,5,1,-2
1558439682883046,-2,-2,-2,-3,-1,-1,4,2
1558439682889077,-2,-2,-1,-2,-6,-3,-7,-9
1558439682889077,-3,0,-1,-2,-1,-2,-4,-3
1558439682904995,1,0,0,1,-3,-1,-1,0
1558439682904995,-1,-4,-3,0,2,5,0,0
1558439682912003,-2,-1,-4,-3,-6,-4,-1,1
1558439682912003,-3,-5,-5,-1,-5,-9,-4,-1
1558439682927925,1,1,0,-1,1,-2,-3,-1
1558439682927925,-1,-3,-1,0,-1,2,2,-2
1558439682929920,-3,0,1,-1,1,1,1,0
1558439682929920,-1,-1,-4,-2,-1,2,1,1
1558439682942911,-3,-2,-1,-4,-7,-3,-3,-4
1558439682942911,2,2,1,1,5,-7,-3,3
1558439682956849,5,4,0,-1,0,0,0,0
1558439682956849,-11,-8,0,-1,1,-1,-2,-4
1558439682964827,0,-1,-3,0,0,-1,3,3
1558439682964827,-4,-1,-3,-2,-3,3,-4,-5
1558439682971807,-1,-4,0,0,1,-1,-2,3
1558439682971807,1,1,-3,-2,-7,-3,-7,-3
1558439682988794,-3,1,0,-1,-3,-5,-2,-2
1558439682988794,-2,-4,-3,0,4,-1,1,-2
1558439682989761,2,0,-1,-1,-1,-2,4,3
1558439682989761,0,1,3,0,2,-2,1,-2
1558439683003346,-2,-1,-2,-1,-5,2,-6,-9
1558439683003346,0,0,0,-1,-2,3,-3,-3
1558439683017113,-1,-4,-2,-2,1,-3,-1,0
1558439683017113,2,-1,0,0,-1,0,3,1
1558439683025094,0,0,0,-1,1,-4,0,0
1558439683025094,-4,-4,-3,-5,-13,-7,-5,-6
1558439683032392,2,2,1,4,7,1,4,6
1558439683032392,2,1,0,1,4,0,3,1
1558439683048362,0,-1,1,0,4,-1,0,5
1558439683048362,1,0,-2,-2,-2,6,0,-3
1558439683049346,-5,-1,0,0,-3,0,-2,-3
1558439683049346,-1,-1,-1,-3,-5,-10,-3,-3
1558439683062311,0,0,-3,-3,-1,7,-1,-3
1558439683062311,2,2,2,-1,4,-6,6,5
1558439683069292,0,-2,-3,-1,-1,-5,-4,-2
1558439683069292,4,2,1,0,4,4,4,2
1558439683085250,-9,-7,-1,-1,-5,-8,-6,-4
1558439683085250,-1,0,-1,-3,-5,1,-4,1
1558439683092231,-3,-2,-3,0,-3,4,-4,-10
1558439683092231,0,1,-1,-4,-5,-6,-4,0
1558439683108637,3,1,0,-1,3,7,6,2
1558439683108637,-2,-2,0,0,0,-3,-4,0
1558439683110187,-2,-2,-3,-2,0,0,6,2
1558439683110187,-1,0,2,3,4,2,1,0
1558439683123179,3,2,-2,1,7,0,0,2
1558439683123179,1,2,2,0,-1,3,0,-1
1558439683129132,-1,0,-3,-2,-4,0,-6,-5
1558439683129132,-3,-3,-2,-3,-5,3,1,-1
1558439683145091,-1,-1,-2,-3,-5,-10,-3,0
1558439683145091,-1,-4,-1,-2,-4,-2,-4,-3
1558439683152071,-2,0,2,1,2,1,1,4
1558439683152071,1,0,0,-3,0,-5,-2,0
1558439683168028,0,-1,0,0,0,5,6,0
1558439683168028,1,1,2,5,12,10,9,3
1558439683170024,-2,-1,-1,-6,-8,0,-3,1
1558439683170024,1,2,-1,-2,-3,-3,-4,-1
1558439683182036,-7,-2,-4,-3,-3,-3,-4,-2
1558439683182036,-3,-2,-3,-2,-10,-7,-6,-4
1558439683190968,-2,-1,-3,-3,-6,-6,-4,-4
1558439683190968,0,-1,-2,0,4,3,7,2
1558439683204930,3,1,3,2,9,-1,7,5
1558439683204930,-1,-3,-1,2,5,9,1,2
1558439683212099,-1,-2,1,0,0,-5,-9,-8
1558439683212099,-2,-2,-4,-3,-6,-1,-6,-4
1558439683228897,-1,-2,-3,-6,-10,-1,-5,-7
1558439683228897,-4,-3,-2,-2,-1,-9,0,-2
1558439683229863,1,-1,1,1,6,-4,1,5
1558439683229863,-3,-3,-1,-2,-5,-4,0,4
1558439683241874,1,0,1,2,6,-2,-4,-1
1558439683241874,-1,-1,-2,-2,-6,3,1,-5
1558439683250807,-1,-2,-4,-4,-9,-9,-7,-2
1558439683250807,-2,-1,1,1,3,7,3,1
1558439683264817,0,4,2,-1,0,-5,-2,6
1558439683264817,-1,0,0,0,-4,-4,-3,-6
1558439683271794,2,2,2,2,7,7,7,0
1558439683271794,-1,-3,-1,0,-3,-2,-5,-1
1558439683288738,-2,-3,-2,-4,-7,-11,-4,-4
1558439683288738,-1,-2,1,-2,2,7,2,1
1558439683289707,1,1,2,1,4,5,10,4
1558439683289707,-1,-1,-1,-1,0,-5,-5,-3
1558439683301711,2,1,-2,0,-1,4,6,8
1558439683301711,-1,-1,-3,-3,-6,-6,-7,-7
1558439683310647,-11,-10,-3,0,4,0,-1,-2
1558439683310647,1,-1,1,0,-1,-4,-1,0
1558439683325646,-2,-4,-4,0,-2,3,-2,-3
1558439683325646,-2,0,-2,-4,-7,-2,-2,-3
1558439683331595,1,-1,-4,-3,-7,-4,-7,0
1558439683331595,-3,0,-1,-1,1,-3,1,-3
1558439683348546,-5,-1,-1,0,2,3,2,-1
1558439683348546,0,2,3,2,6,3,4,3
1558439683349544,-2,-1,-2,-2,-8,-3,-4,-6
1558439683349544,1,-4,-2,0,1,2,4,3
1558439683361512,-1,-1,0,-1,0,3,-2,-2
1558439683361512,-1,-5,-4,-2,-6,-7,-8,-7
1558439683370519,-1,-1,2,0,0,-4,2,2
1558439683370519,1,-1,-2,0,4,3,3,-1
1558439683385477,-1,-2,-3,0,-3,0,-2,-2
1558439683385477,-2,0,-1,-2,-1,-5,-5,-3
1558439683391462,-2,-1,-3,1,0,8,7,3
1558439683391462,-2,-1,1,0,-1,-9,-5,-2
1558439683415367,0,-5,-2,-1,-1,0,1,4
1558439683415367,0,-1,-3,-2,-6,-1,-1,1
1558439683417363,2,1,-2,-4,-2,-6,-11,-7
1558439683417363,-7,-3,1,0,0,-1,1,-1
1558439683422383,-1,0,-3,-3,-2,-4,0,-3
1558439683422383,1,-4,-2,0,0,-2,-1,3
1558439683431325,-4,-4,-1,-4,-4,4,0,-3
1558439683431325,1,-2,-1,0,1,3,2,2
1558439683445321,1,1,1,-3,0,-5,-5,-5
1558439683445321,0,2,0,2,6,3,5,5
1558439683452521,2,1,-2,1,3,3,4,-1
1558439683452521,-1,0,0,-2,-2,-2,-5,-3
1558439683468433,-1,-3,0,-2,-3,2,-1,-2
1558439683468433,-1,-2,-3,-1,-3,-2,2,4
1558439683475240,-3,-1,-3,-3,-5,-9,-12,-13
1558439683475240,0,0,-2,-2,-5,5,4,1
1558439683482192,1,0,-1,1,2,0,3,-1
1558439683482192,-1,-2,0,1,7,3,1,-4
1558439683491166,-2,1,0,0,-1,-5,3,8
1558439683491166,-4,-3,-2,-1,-6,-5,-8,-6
1558439683505406,0,1,2,-2,-1,-1,-1,0
1558439683505406,-1,-3,-2,-3,-5,-5,-4,-2
1558439683512377,-1,-3,-4,-2,1,0,0,0
1558439683512377,1,-1,-5,-2,3,1,2,2
1558439683536293,-3,0,-1,-1,-5,0,-2,-2
1558439683536293,-2,0,0,-1,2,3,0,-2
1558439683537045,1,0,2,3,4,-2,3,2
1558439683537045,0,0,0,0,-2,-4,-5,-2
1558439683542276,-2,-3,-3,1,1,3,3,1
1558439683542276,1,-2,-6,-3,-8,-8,-6,-4
1558439683558226,-9,-9,-4,-3,-8,2,-3,-4
1558439683558226,-4,1,1,-2,-1,1,-1,-2
1558439683564967,1,3,3,1,2,-12,2,2
1558439683564967,0,0,-1,1,4,7,3,0
1558439683572195,0,2,-2,-2,-1,-3,-1,2
1558439683572195,1,0,-1,-2,-3,3,4,4
1558439683587908,-8,-6,-2,-2,-5,1,-12,-17
1558439683587908,-1,0,-2,-2,-2,-4,-5,-2
1558439683601868,2,3,1,0,-1,-4,-4,-3
1558439683601868,-1,-1,-3,1,1,6,1,-1
1558439683611188,2,0,1,-1,0,-4,0,6
1558439683611188,-1,0,2,-1,-1,2,0,-2
1558439683612130,1,0,0,-1,-5,-4,-6,-2
1558439683612130,1,-1,-1,1,3,6,3,1
1558439683625942,-1,-1,-4,-2,-5,-3,-4,-4
1558439683625942,-3,0,0,-1,2,-3,3,1
1558439683631789,1,1,1,0,4,4,8,6
1558439683631789,0,0,-4,-3,-4,-8,-4,-4
1558439683648102,-2,-1,-1,-4,-7,-3,-4,-2
1558439683648102,-1,-3,-2,-2,-5,-5,-5,-4
1558439683654806,2,2,-1,-1,4,-4,-3,-2
1558439683654806,-1,-1,-2,1,0,2,1,1
1558439683670685,0,-1,1,0,4,8,2,1
1558439683670685,-4,-3,-3,-2,-6,-6,-7,1
1558439683672745,2,-1,-2,-4,-4,-3,-3,-2
1558439683672745,1,1,1,-2,1,5,3,-4
1558439683685999,-1,2,1,0,-5,-15,-6,-1
1558439683685999,1,2,1,1,2,2,4,4
1558439683692817,1,1,0,0,4,4,1,2
1558439683692817,-4,-3,-5,-5,-9,-10,-8,-7
1558439683707898,6,1,0,2,11,17,16,9
1558439683707898,-3,-2,0,1,2,-4,-4,-6
1558439683714897,0,-3,-1,-1,-2,-7,-4,-2
1558439683714897,1,0,-1,-3,-4,-1,-4,0
1558439683738536,-5,-3,-2,-4,-6,-13,-9,-6
1558439683738536,-2,-1,-1,-2,2,5,8,3
1558439683740499,-1,-3,-2,1,2,5,2,2
1558439683740499,-3,-1,-1,0,-1,-8,-6,-2
1558439683745733,0,-1,-2,0,-2,0,3,0
1558439683745733,1,1,2,0,2,3,1,-3
1558439683752466,-4,-3,-5,-4,-7,-3,-1,-2
1558439683752466,0,1,2,0,0,0,2,1
1558439683767426,-1,-3,-3,0,3,7,3,5
1558439683767426,-2,-1,-1,-2,-3,-10,-8,-4
1558439683774625,-1,-1,-2,0,1,0,1,-1
1558439683774625,-3,-2,0,-2,-6,-5,-6,-3
1558439683791577,-3,-2,-2,0,-1,0,3,-1
1558439683791577,1,0,-1,-3,4,2,1,5
1558439683792361,3,1,0,2,6,2,0,2
1558439683792361,-2,-2,0,2,1,6,1,0
1558439683805638,-1,-2,-1,-3,-11,-14,-12,-5
1558439683805638,-1,0,-2,0,0,5,4,2
1558439683812659,-3,-1,-1,-2,-4,-6,-4,-4
1558439683812659,5,4,1,0,2,3,4,4
1558439683836493,-9,-7,1,0,5,8,4,4
1558439683836493,-1,-4,-2,-3,-2,-4,-5,-7
1558439683837242,-1,-2,2,0,-1,-1,-2,-4
1558439683837242,-2,-4,-3,-1,-5,-9,-4,-4
1558439683858245,2,2,-1,0,3,0,1,2
1558439683858245,1,0,-2,1,0,1,-1,4
1558439683860179,-2,-1,-3,-2,1,6,-1,-3
1558439683860179,-1,-2,-2,-2,-1,-4,-3,-2
1558439683865163,-2,-1,-2,-1,-6,-6,-7,-6
1558439683865163,0,-1,2,1,-2,-6,-1,2
1558439683879126,1,0,-1,-1,-6,-1,0,-1
1558439683879126,-2,-1,0,-3,-4,-6,-4,-2
1558439683888145,1,3,1,5,14,21,13,3
1558439683888145,1,0,2,-1,-4,-4,2,-2
1558439683902410,-2,-2,-2,-3,-6,-7,-5,-2
1558439683902410,-2,-6,-5,-1,5,7,3,0
1558439683911068,-1,0,3,-1,-3,-7,-2,-2
1558439683911068,-3,-2,-2,-1,0,1,-3,0
1558439683912037,0,1,0,2,2,0,3,2
1558439683912037,-2,-2,-2,-2,-1,-3,-3,-2
1558439683925351,0,0,-2,-2,-5,-2,-5,2
1558439683925351,-2,-2,-1,0,1,-6,-8,-4
1558439683931988,0,-3,-1,-1,-1,0,0,3
1558439683931988,-2,1,0,1,7,5,7,-3
1558439683948313,-1,0,-1,-2,-5,-4,-6,-7
1558439683948313,0,-2,-3,-2,-8,0,-2,-1
1558439683954946,-1,2,0,0,0,-2,1,0
1558439683954946,-3,-2,-2,-2,0,-4,2,3
1558439683970883,-1,-2,-3,-4,-5,-5,-7,-3
1558439683970883,-1,1,-1,-1,2,4,0,-1
1558439683971879,2,-1,-1,0,1,-2,5,2
1558439683971879,2,0,2,1,-3,-4,3,2
1558439683984846,0,1,1,1,4,7,0,-2
1558439683984846,2,1,-2,-4,-4,-3,4,0
1558439683991825,-4,-3,-3,-3,4,9,3,0
1558439683991825,-2,-1,0,-3,-7,-9,-11,-4
1558439684007819,1,-4,-1,0,1,-8,-1,4
1558439684007819,-1,-2,0,0,1,-5,0,-1
1558439684014762,0,2,0,0,-2,0,0,-1
1558439684014762,-1,-5,-1,0,1,7,2,-2
1558439684030720,0,1,-3,-3,-3,6,0,-2
1558439684030720,0,-4,-5,-2,-8,-7,-4,-1
1558439684036704,1,-1,0,1,5,2,3,1
1558439684036704,-2,1,3,0,2,-2,-4,0
1558439684045814,-1,-2,-1,-2,-3,-4,1,1
1558439684045814,-4,0,1,-3,-5,-3,-3,-5
1558439684052018,-1,-1,-2,-4,-9,-8,-9,-2
1558439684052018,0,-2,-3,-2,-5,-2,0,-1
1558439684067974,-2,-1,-1,1,-1,-5,-8,-10
1558439684067974,-1,0,-1,1,7,2,4,4
1558439684075040,-3,-2,-1,-1,-4,3,-4,-3
1558439684075040,1,-1,-3,-2,1,8,0,1
1558439684091690,0,-1,-1,-4,-8,-20,-5,1
1558439684091690,-1,-1,3,0,8,3,4,1
1558439684093038,-1,-3,-3,-2,-2,-2,-7,-4
1558439684093038,-1,-2,-1,1,1,1,3,-1
1558439684113877,0,0,-1,-2,-5,-3,-2,-2
1558439684113877,-2,-2,-1,-1,-2,3,1,-4
1558439684114497,-1,-2,0,1,4,4,3,2
1558439684114497,-1,-1,-1,-2,-1,-8,-6,-3
1558439684128818,-1,0,-1,-1,1,0,5,1
1558439684128818,-1,-3,-3,0,-1,5,1,-1
1558439684134732,0,0,-1,-2,-5,-1,-2,-5
1558439684134732,-2,-1,-2,-1,-3,-5,-2,0
1558439684158605,0,1,2,1,5,5,2,2
1558439684158605,0,0,0,1,3,6,5,3
1558439684159386,-2,-3,-2,-2,-2,-2,-1,-3
1558439684159386,-4,0,1,-2,1,-4,-1,-3
1558439684164569,-4,-3,-1,0,-4,-6,-5,-1
1558439684164569,-1,-1,-1,-2,-2,-5,-4,-2
1558439684173345,0,1,-3,-1,3,1,-1,2
1558439684173345,0,-2,1,0,-6,0,-3,1
1558439684187343,-3,-4,2,-2,-2,0,1,-3
1558439684187343,0,-1,-2,-3,1,5,0,0
1558439684202588,3,1,2,1,2,4,3,3
1558439684202588,-4,-2,-6,-2,-3,-1,0,2
1558439684211618,-1,-3,-3,-1,-2,-1,-1,0
1558439684211618,-1,-2,-2,-2,-5,-8,-6,-3
1558439684212236,-1,0,1,0,1,-5,-1,0
1558439684212236,2,2,-2,-1,4,2,-2,1
1558439684224719,-4,-4,-3,-3,-4,-2,-4,-7
1558439684224719,0,-4,0,-1,-2,1,-1,5
1558439684233181,-2,1,-1,-1,-3,-5,1,-1
1558439684233181,3,2,3,2,8,4,3,-1
1558439684248314,-2,0,-1,0,-2,-3,0,-4
1558439684248314,-3,-1,-1,-1,-6,-10,-7,0
1558439684255296,-3,-4,1,-2,0,6,0,-3
1558439684255296,-2,-1,0,1,3,2,3,0
1558439684271416,-1,-1,-3,-3,-2,1,0,0
1558439684271416,0,-1,-1,0,1,0,0,-3
1558439684272078,-1,-1,-2,-2,-1,-1,-1,-1
1558439684272078,-4,0,0,-1,-1,-1,-3,-2
1558439684285140,-1,-4,-2,-1,-4,-6,0,2
1558439684285140,-1,1,-1,1,5,4,4,1
1558439684293530,-2,-1,-3,-2,-2,-7,-5,-1
1558439684293530,0,-2,1,-1,6,5,4,0
1558439684308384,1,0,0,-2,-4,0,-2,2
1558439684308384,0,0,1,-1,-1,1,1,-3
1558439684314979,-3,-3,0,0,-4,-4,-3,-5
1558439684314979,-4,-4,-5,-4,-12,-7,-9,-3
1558439684331199,0,1,0,1,7,4,2,0
1558439684331199,0,1,2,2,3,-6,2,0
1558439684331925,1,-2,-3,-2,-5,0,-5,-2
1558439684331925,2,1,-2,-2,-5,-4,-1,-2
1558439684345129,-1,-2,-2,-2,-1,-4,-3,-1
1558439684345129,2,-1,0,2,8,12,8,4
1558439684353860,-5,-2,1,0,-4,-4,3,-1
1558439684353860,-1,1,1,1,1,-4,1,0
1558439684368070,-3,0,0,-1,6,8,1,1
1558439684368070,-6,-4,-6,-6,-10,-5,-7,-7
1558439684375030,-1,0,1,-1,0,0,3,0
1558439684375030,0,1,0,2,5,1,-1,-2
1558439684389794,2,-1,-3,2,-3,-5,-5,-4
1558439684389794,-1,2,4,-2,1,3,-2,1
1558439684396743,-2,-4,-2,-2,0,-2,-4,0
1558439684396743,0,-2,-1,-2,-3,-2,0,-1
1558439684404722,-1,-2,-2,-3,-1,4,3,0
1558439684404722,-2,-2,-5,-4,-8,-3,-4,-4
1558439684414019,-1,-1,-2,-3,-11,-16,-9,-3
1558439684414019,1,0,2,2,14,14,13,8
1558439684435981,3,3,2,-1,4,1,0,0
1558439684435981,-11,-11,-3,-2,-5,0,-5,-12
1558439684437634,0,1,-2,0,2,4,-1,-1
1558439684437634,-1,-2,-3,-3,-6,-7,-5,-5
1558439684450935,-1,-1,-1,0,-4,0,-5,-3
1558439684450935,5,1,-1,1,1,-3,4,5
1558439684457738,-2,-3,-3,-1,4,1,0,1
1558439684457738,-3,-1,1,-3,-6,-6,-4,-1
1558439684464932,-2,-3,-1,1,4,5,3,1
1558439684464932,0,3,1,-1,0,-5,-2,-1
1558439684473538,-1,-1,1,0,2,-1,0,-1
1558439684473538,-1,-1,-4,-2,-2,1,1,-1
1558439684487863,-4,-1,-1,-4,-3,-1,-3,-1
1558439684487863,0,2,0,0,0,2,1,-1
1558439684502714,0,-3,-2,-1,-1,-4,-1,3
1558439684502714,-2,-2,-2,0,2,0,1,4
1558439684510686,2,2,0,1,5,4,3,-2
1558439684510686,1,-1,-2,-2,-1,-3,-2,-2
1558439684525646,-3,-2,-3,-4,-8,-3,-5,-4
1558439684525646,1,2,2,1,2,5,4,-1
1558439684525646,0,1,1,1,2,-4,4,7
1558439684525646,0,-3,-1,0,-1,0,-3,1
1558439684533376,1,1,0,0,-1,0,4,2
1558439684533376,3,0,-2,-3,-9,-9,-5,-6
1558439684547587,-1,3,-1,1,11,12,7,0
1558439684547587,-1,-1,-1,-1,-3,-3,-6,-1
1558439684554571,-1,-2,-2,-2,-1,4,1,-1
1558439684554571,-1,-3,-4,-1,-5,-10,-9,-5
1558439684570515,2,-1,0,-2,-8,-8,-4,0
1558439684570515,0,0,0,0,8,11,6,4
1558439684577513,-3,-2,-1,0,4,3,-1,-2
1558439684577513,-4,-3,-1,-2,-4,-2,-3,-4
1558439684593249,-2,-2,-1,-1,-1,-9,-2,-4
1558439684593249,1,0,-2,2,0,1,2,5
1558439684595213,-2,-2,0,0,-2,-1,-3,-4
1558439684595213,-3,-1,-3,-3,-8,-4,-5,-5
1558439684607179,-4,-4,-4,-5,-13,-7,-7,-6
1558439684607179,1,0,1,0,5,-7,5,3
1558439684622140,3,1,0,0,3,-4,2,0
1558439684622140,-2,-2,-1,1,4,2,-1,-3
1558439684630117,-3,-2,-2,-1,2,8,3,4
1558439684630117,-4,-3,-5,-5,-13,-9,-9,-5
1558439684645338,0,0,1,-1,-2,-1,0,-2
1558439684645338,-5,-1,0,-4,-3,-4,-5,-4
1558439684653519,2,1,0,-3,1,1,3,4
1558439684653519,-3,-3,-2,-1,-5,-3,-5,-10
1558439684655054,1,0,0,-1,6,8,1,2
1558439684655054,0,1,-1,-2,1,3,6,1
1558439684668488,2,0,-3,0,1,-2,-1,-1
1558439684668488,-13,-4,2,1,6,-1,4,4
1558439684674469,-1,-1,-2,-2,-3,-3,-2,-4
1558439684674469,-1,-3,0,0,2,-1,-3,0
1558439684690426,0,-2,-1,-2,-2,1,2,0
1558439684690426,3,0,-2,-3,-5,1,-1,-2
1558439684697378,-2,-1,-1,-1,1,6,3,0
1558439684697378,-1,2,-1,-1,-2,-6,0,1
1558439684714089,-4,-3,-2,-2,-4,-2,-7,-2
1558439684714089,-1,0,1,-1,-2,0,-5,-4
1558439684714892,0,3,2,2,8,5,6,2
1558439684714892,1,-3,-3,-1,-5,-6,-3,1
1558439684728235,-1,-3,-3,1,2,2,1,-3
1558439684728235,2,0,0,0,5,6,3,1
1558439684735180,-1,-1,-1,-3,-12,-16,-8,-5
1558439684735180,-2,-2,-2,-3,2,6,0,1
1558439684750797,-1,1,1,1,1,-3,0,-3
1558439684750797,3,2,-1,-3,-5,-9,-5,-1
1558439684757024,-1,-2,-1,0,3,3,6,-1
1558439684757024,1,0,1,0,-1,-1,0,0
1558439684773978,-2,-4,0,0,2,3,-2,2
1558439684773978,1,-3,-2,-1,-3,-5,-2,1
1558439684774736,-3,0,-2,-4,-5,-7,-10,-6
1558439684774736,2,3,4,2,2,8,6,2
1558439684787697,0,2,0,-3,-4,4,-2,-5
1558439684787697,-11,-6,-1,-2,-10,-9,-5,-2
1558439684794709,0,0,0,0,7,3,6,2
1558439684794709,-1,-1,-4,-1,1,0,-1,0
1558439684809665,0,2,-2,0,-2,-5,0,1
1558439684809665,1,0,1,-2,-1,4,0,-3
1558439684816620,-2,0,-2,-1,-3,4,-5,-3
1558439684816620,-2,-2,-2,-1,-1,-1,0,-1
1558439684833600,1,0,-1,-1,1,-5,-1,-2
1558439684833600,0,0,-1,-2,-7,-9,-5,-5
1558439684834570,-4,-4,-2,-3,-4,-6,-4,0
1558439684834570,1,-2,-1,0,3,5,0,0
1558439684848038,-1,-3,-2,3,-1,2,-3,-3
1558439684848038,1,0,-2,-3,-4,-6,0,0
1558439684854853,1,-1,2,-1,2,1,1,1
1558439684854853,-1,-3,-2,-2,-4,-2,-3,-2
1558439684870799,-3,-2,-2,-2,0,-3,0,-2
1558439684870799,1,1,0,-1,4,5,0,-1
1558439684877724,-1,-4,-4,-3,-7,-8,-4,-2
1558439684877724,-1,-4,-3,-2,-7,-13,-9,-2
1558439684893735,0,1,2,2,12,20,14,5
1558439684893735,-3,1,-1,1,4,5,1,-3
1558439684895447,-1,-2,-2,0,-2,-3,-5,-1
1558439684895447,-1,-3,0,-1,-6,-5,-7,-4
1558439684907722,-3,-5,-2,-4,-9,-5,-4,-7
1558439684907722,1,1,2,-1,4,0,-1,-2
1558439684914686,0,-1,-2,0,1,-2,1,-4
1558439684914686,2,3,1,-2,0,0,0,1
1558439684930719,-10,-6,0,-2,-2,-6,-3,-1
1558439684930719,-1,0,-4,-1,-4,-3,-2,-1
1558439684937620,-2,-1,-3,-3,-6,0,-3,-4
1558439684937620,3,0,1,1,7,8,6,3
1558439684953509,1,-1,-1,-2,-4,-19,-7,0
1558439684953509,-1,0,-1,-1,3,5,4,5
1558439684954251,-5,1,0,-1,-2,0,-5,-3
1558439684954251,-4,-1,0,-2,-1,8,2,-1
1558439684968443,3,-1,0,2,4,10,8,3
1558439684968443,-1,-4,-3,-3,-4,-5,-2,-2
1558439684974508,0,-1,2,0,-1,0,1,1
1558439684974508,-2,-1,-5,-1,1,-3,0,-1
1558439684990468,2,1,-1,-2,-2,-1,-4,0
1558439684990468,0,0,-1,0,-4,-1,-4,-5
1558439684997481,-3,-4,-3,-2,-3,-2,-2,-2
1558439684997481,0,2,2,2,1,-9,-5,1
1558439685013421,-3,-2,-2,-4,-6,-3,-4,-5
1558439685013421,-2,-2,-3,-1,2,3,-2,5
1558439685015088,2,0,0,2,7,13,8,7
1558439685015088,-3,-2,-3,-1,-5,-10,-7,-8
1558439685028385,-1,1,-4,1,-5,-5,-10,-5
1558439685028385,-2,-4,-3,-3,-5,-1,2,-1
1558439685034040,1,2,-3,-2,-1,-6,-9,-3
1558439685034040,-10,-7,1,1,1,-2,1,-1
1558439685050031,-1,0,1,0,-2,3,2,-3
1558439685050031,-1,-2,2,4,8,4,4,5
1558439685057012,1,0,-1,-2,-1,-2,-2,0
1558439685057012,1,1,-3,-4,-7,-1,-3,-3
1558439685072934,-3,-2,-2,-3,-6,-9,-4,-6
1558439685072934,1,-2,-2,-2,-3,-4,-1,-2
1558439685074930,2,0,3,2,7,11,10,3
1558439685074930,-1,0,-2,-2,-5,-6,-6,-2
1558439685086896,0,-2,0,1,3,8,3,1
1558439685086896,1,1,0,-1,0,-5,-1,0
1558439685095871,-1,-1,0,-2,-9,-10,-7,-2
1558439685095871,-1,-2,-2,-2,0,5,2,-4
1558439685111036,0,-1,-2,-2,-4,-1,-3,3
1558439685111036,0,0,-1,-1,2,6,6,1
1558439685117813,-2,1,-1,2,1,-3,-2,2
1558439685117813,1,0,0,2,6,10,11,4
1558439685134141,-1,0,-1,-1,3,5,-3,-3
1558439685134141,-1,-2,-3,-2,-10,-6,-11,-6
1558439685134771,-3,-5,-2,-3,-4,-9,-2,-1
1558439685134771,-1,-1,0,-3,-3,-10,-7,2
1558439685147241,0,1,2,2,4,5,3,-4
1558439685147241,-1,-1,0,-2,0,3,0,-4
1558439685155724,0,1,0,0,0,4,2,0
1558439685155724,-1,-1,-3,-2,-4,-3,-2,1
1558439685170803,-4,-2,-1,-1,-4,-8,0,1
1558439685170803,1,-1,0,-1,2,1,2,0
1558439685177691,1,-3,-1,0,3,1,2,-2
1558439685177691,0,0,0,1,2,1,3,0
1558439685193946,-1,1,-3,-3,-5,-7,-7,-1
1558439685193946,-1,-1,-4,-3,-1,4,2,1
1558439685194609,-3,-3,-2,0,1,-2,0,-2
1558439685194609,2,2,2,0,0,-2,-4,0
1558439685223530,1,-1,-1,-2,-1,-3,2,1
1558439685223530,-4,-2,0,-1,-3,-1,-7,-7
1558439685224539,-3,-1,-3,-1,-2,2,-2,-4
1558439685224539,0,0,0,0,4,7,3,2
1558439685231012,-6,-2,-2,-2,-7,-10,-7,-9
1558439685231012,0,1,3,1,6,-2,0,3
1558439685237893,1,1,-1,0,4,8,6,-1
1558439685237893,-1,-2,-1,-1,-3,3,1,1
1558439685253825,-1,-2,-2,-2,-2,3,-2,1
1558439685253825,0,1,0,0,4,-4,0,-1
1558439685254448,-2,-2,-1,-4,-9,-10,-9,0
1558439685254448,0,-1,-3,-2,-1,-2,-3,-3
1558439685267666,-2,-1,-1,-2,-1,5,0,-4
1558439685267666,0,-2,-2,-1,-5,-11,-3,0
1558439685276563,1,0,1,0,3,-2,-2,1
1558439685276563,-2,-1,-3,-2,-7,-6,-7,-5
1558439685290717,1,-1,0,-1,-1,1,5,5
1558439685290717,-3,0,-1,-1,-6,-4,-6,-5
1558439685297682,2,-1,-3,-3,0,-3,0,-2
1558439685297682,-4,-2,0,-1,0,1,0,-1
1558439685313368,2,-1,2,0,2,-3,2,3
1558439685313368,-1,0,-2,-2,-1,3,5,2
1558439685319578,-4,-4,-3,-1,-4,-2,-5,-2
1558439685319578,0,-1,-3,-2,2,0,2,-3
1558439685327579,1,-2,0,-1,2,-2,-6,-4
1558439685327579,-1,-3,-2,-1,-2,0,1,2
1558439685336238,-2,-1,-2,-2,0,2,1,0
1558439685336238,-2,0,1,-1,1,-7,0,-3
1558439685350391,-1,-2,0,2,5,9,5,3
1558439685350391,1,-2,0,-1,-3,-7,-3,-3
1558439685357175,-2,-2,0,-2,-8,-5,-7,-4
1558439685357175,0,-1,0,-1,6,5,5,5
1558439685373170,-3,-2,-3,-3,-5,0,-2,-3
1558439685373170,-1,0,0,0,5,4,2,3
1558439685380158,0,0,-1,1,0,-11,-3,0
1558439685380158,-1,-2,-1,0,0,1,-2,-3
1558439685387343,1,1,0,-5,-4,-5,-9,-4
1558439685387343,-4,-4,-4,-4,-6,7,4,0
1558439685396074,-2,0,1,0,-2,-2,2,3
1558439685396074,-2,1,-1,0,-3,-5,-5,-6
1558439685410032,0,-3,-4,-3,-1,1,3,0
1558439685410032,-2,-1,1,1,3,-3,-4,-4
1558439685423999,-2,0,-1,0,-2,-3,-2,-2
1558439685423999,4,0,-3,-2,-1,-2,-3,2
1558439685432971,-4,-2,-2,0,1,-5,-4,1
1558439685432971,-1,-2,-2,-1,-2,-4,-3,-2
1558439685440241,-2,-1,-3,-2,-3,1,0,-2
1558439685440241,-4,-1,-3,-3,-8,-5,-7,-6
1558439685447284,0,1,0,2,2,2,2,1
1558439685447284,3,2,5,3,5,-3,4,7
1558439685455909,0,0,0,-2,0,2,0,-3
1558439685455909,1,-1,-1,-1,1,4,1,1
1558439685470200,-1,-1,-2,-2,-3,-4,-3,-3
1558439685470200,-4,-1,-3,-1,-2,1,-3,-6
1558439685477196,-1,-1,1,0,0,1,-1,1
1558439685477196,-2,-2,0,-1,2,4,3,1
1558439685493160,-1,0,-2,-1,1,0,2,0
1558439685493160,2,0,1,2,5,2,4,2
1558439685499793,-4,-3,-2,-3,-6,-7,-8,-10
1558439685499793,-4,-3,-1,-3,-6,3,-2,-2
1558439685515751,-2,0,2,0,2,5,2,4
1558439685515751,-1,-4,-6,-3,-6,-11,-8,-3
1558439685516746,1,1,2,1,3,2,1,3
1558439685516746,0,-3,-1,2,7,6,3,3
1558439685530890,0,1,1,0,-2,-2,0,4
1558439685530890,0,0,0,1,-2,-1,-3,-1
1558439685537020,-1,-4,-4,-4,-3,1,6,1
1558439685537020,-2,-3,-2,-3,-7,-6,-7,-3
1558439685552977,3,0,-2,-1,-2,6,1,0
1558439685552977,-5,-3,-1,0,7,5,5,0
1558439685559968,-1,0,0,-2,2,-2,0,-1
1558439685559968,-3,1,-1,-1,-4,-4,-3,-2
1558439685576586,-1,-2,0,0,-2,-7,-3,0
1558439685576586,-3,-1,-4,-4,-11,1,-4,-5
1558439685577617,1,-1,-1,-1,6,5,4,2
1558439685577617,-3,-3,-1,-1,2,1,1,-2
1558439685590801,-2,-1,-5,-1,-5,-10,-7,-7
1558439685590801,-1,0,-3,0,-2,3,2,-1
1558439685597688,-2,-3,-1,1,1,-1,-4,-2
1558439685597688,-2,-2,-1,-1,-4,-3,-3,0
1558439685612492,1,-2,-1,0,1,-3,-2,1
1558439685612492,-4,1,0,-4,-5,-3,-6,-9
1558439685619723,-2,3,3,-1,-2,1,2,-2
1558439685619723,1,1,1,-1,4,0,0,2
1558439685635457,-4,0,0,1,-1,-6,4,4
1558439685635457,-3,-2,-2,-1,-1,5,1,-1
1558439685637423,-1,0,-2,-2,-4,-1,1,0
1558439685637423,-4,-3,-4,-2,-3,-5,-9,-8
1558439685650663,0,0,-1,-1,2,1,2,4
1558439685650663,3,1,1,0,-1,-1,-2,1
1558439685657709,-3,2,1,1,4,9,0,2
1558439685657709,1,2,0,2,2,1,4,1
1558439685680645,-3,-4,-3,-3,-2,-4,-3,-3
1558439685680645,-1,-3,-2,-3,-8,-5,-2,-1
1558439685680645,1,-4,-6,-4,-11,-7,-4,0
1558439685680645,0,3,1,3,6,-7,0,-2
1558439685695625,2,4,3,2,7,8,3,-1
1558439685695625,-9,-8,-1,-2,-3,-3,-4,-1
1558439685695625,-1,-2,-3,-2,-6,-3,-7,-3
1558439685695625,-3,-4,-5,-7,-13,0,-1,-2
1558439685711227,2,0,1,0,3,0,5,2
1558439685711227,2,0,-3,-1,8,1,-2,-3
1558439685717558,-1,-1,-1,-1,0,1,2,0
1558439685717558,-2,-1,-1,-1,-2,-3,-2,0
1558439685732172,-3,-2,-2,-4,-7,-9,-6,-6
1558439685732172,-1,0,-1,0,4,8,6,4
1558439685739442,-2,-2,-2,-2,3,1,-1,-4
1558439685739442,1,0,3,-1,-1,-1,-3,-3
1558439685755140,-2,-4,-3,-2,-9,-4,-6,-2
1558439685755140,0,0,1,0,1,-3,-4,0
1558439685756107,0,-1,-1,2,3,5,4,-1
1558439685756107,-1,-1,0,0,0,0,4,0
1558439685771070,-3,-2,-3,-3,-1,-2,-5,-5
1558439685771070,0,-1,-2,-2,-8,-9,-7,2
1558439685777301,-1,-3,-2,-1,1,0,5,2
1558439685777301,-2,-3,-3,-2,-6,-3,-6,-3
1558439685792241,-1,-2,1,0,-2,0,-3,-4
1558439685792241,1,-1,2,-1,7,11,7,2
1558439685798995,-1,0,0,3,2,7,2,-3
1558439685798995,0,-1,1,-4,0,-9,-3,0
1558439685814953,-1,2,0,-2,0,2,2,1
1558439685814953,4,0,-4,-2,-9,-11,-5,0
1558439685815947,-4,1,-3,-1,2,4,-1,-4
1558439685815947,-1,1,1,-1,0,-3,-4,-1
1558439685830943,-3,-3,-5,-4,-3,7,2,-4
1558439685830943,0,0,1,0,-1,-10,-1,-2
1558439685836890,3,-1,-2,-3,-6,-5,-3,3
1558439685836890,-1,-1,-3,4,11,12,7,3
1558439685852218,-3,-2,1,2,3,-2,-1,1
1558439685852218,1,1,-1,-1,2,5,0,0
1558439685860204,-2,-2,-2,-3,-9,-11,-7,-5
1558439685860204,-2,2,0,0,2,3,3,0
1558439685875889,-1,-2,0,-1,-6,-3,-3,-1
1558439685875889,-3,-2,-1,-2,-3,4,6,0
1558439685875889,1,-1,2,0,1,-6,-4,1
1558439685875889,0,-3,-1,-1,-3,-5,-2,0
1558439685890746,0,0,0,-3,-1,-7,-5,-2
1558439685890746,-3,-3,-3,-3,-7,-8,-10,-7
1558439685897754,0,2,1,2,4,6,5,4
1558439685897754,0,-1,-4,0,-2,3,5,2
1558439685912687,0,-1,1,1,7,4,1,0
1558439685912687,-4,-3,-3,-4,-7,-6,-3,-5
1558439685920071,-3,-2,1,-3,-6,-5,-7,-4
1558439685920071,-2,-3,-2,-1,2,1,-3,-1
1558439685934671,-1,-1,-3,2,-1,-4,2,2
1558439685934671,0,1,2,0,4,12,4,2
1558439685936670,-3,-4,-4,-3,-6,-7,-1,-1
1558439685936670,4,4,2,2,7,3,6,7
1558439685950674,2,2,1,-1,-1,1,-5,-3
1558439685950674,-12,-10,-1,-2,1,0,-3,-3
1558439685957611,-2,-3,-3,-3,-7,-5,-7,-4
1558439685957611,-2,-2,-2,-4,-10,-5,-5,-3
1558439685973526,4,4,0,1,8,6,10,5
1558439685973526,2,2,0,1,0,1,3,4
1558439685979811,-1,-1,0,2,1,2,0,2
1558439685979811,-2,-2,0,-3,0,-1,0,-2
1558439685995780,-2,1,0,-2,-2,1,-2,-2
1558439685995780,0,2,0,-2,-6,-6,-3,-4
1558439685995780,2,-2,0,0,3,-3,5,5
1558439685995780,2,-2,-2,-2,-2,-1,1,-4
1558439686010674,-4,-2,-2,-1,-3,2,-2,-2
1558439686010674,-1,1,-2,1,2,-8,-7,-1
1558439686016413,-1,-1,1,-2,2,6,0,0
1558439686016413,0,1,4,1,8,6,5,2
1558439686033368,-2,-5,-2,-2,-8,-8,-5,0
1558439686033368,-1,-2,-4,-2,-4,4,-1,-5
1558439686039347,0,0,-2,0,3,5,4,0
1558439686039347,-3,-1,-4,-3,-7,-11,-5,-1
1558439686055307,-2,0,-2,0,1,-1,-4,-1
1558439686055307,4,0,-1,-2,-2,-3,0,0
1558439686055307,-1,-2,-2,-2,-1,0,-6,-2
1558439686055307,0,-1,-2,0,-5,1,-8,-4
1558439686070299,-6,-4,-1,-3,-4,-11,-7,-3
1558439686070299,1,1,3,1,4,5,4,4
1558439686077284,-2,1,0,1,6,6,6,3
1558439686077284,2,0,-1,-1,-8,-6,-5,-1
1558439686094202,-1,0,-3,-2,0,6,2,-3
1558439686094202,-2,-1,0,-1,-2,-5,-1,1
1558439686099189,2,1,2,2,-1,-4,1,0
1558439686099189,-4,-3,-3,0,5,0,3,-1
1558439686115144,-1,-1,-1,0,-3,3,2,-2
1558439686115144,-5,-2,-4,-2,-4,3,-4,-3
1558439686116145,0,-1,-1,-2,-2,-5,-3,5
1558439686116145,-2,-2,-1,-2,-3,-5,-9,-10
1558439686131139,0,0,2,1,2,-1,2,2
1558439686131139,0,0,1,-2,5,7,3,-1
1558439686137086,0,1,-1,-2,-3,-5,-1,-4
1558439686137086,-3,-4,-2,-3,-2,2,1,-1
1558439686153043,-1,-3,-4,-2,-8,-7,-2,-1
1558439686153043,1,0,0,3,8,1,-1,1
1558439686159062,-2,-4,0,-2,-3,0,-1,-4
1558439686159062,-2,-3,-3,-2,-5,1,0,0
1558439686175444,0,1,0,0,1,1,-3,1
1558439686175444,0,1,-1,1,2,2,2,1
1558439686175983,-3,-2,0,-2,-2,-2,-4,-7
1558439686175983,3,2,0,0,0,-4,0,1
1558439686190944,-12,-8,-3,-2,-2,-4,-3,-3
1558439686190944,0,0,-2,-3,-3,-5,-5,-1
1558439686197386,0,0,0,-1,-4,-5,-3,1
1558439686197386,-2,-2,1,-1,2,3,0,-3
1558439686212886,2,-1,-1,-2,2,3,1,-1
1558439686212886,-1,-1,0,0,5,4,6,1
1558439686220212,-1,-1,-4,-2,1,1,-1,-2
1558439686220212,-1,-1,-1,-2,-6,-1,0,1
1558439686233827,0,-1,-3,1,0,2,-1,-1
1558439686233827,-2,-1,-1,-2,-7,-13,-7,-5
1558439686241807,-1,0,-1,-3,-1,-1,-1,-1
1558439686241807,-1,1,0,0,3,0,2,4
1558439686257766,0,0,-1,-1,-2,-3,-1,0
1558439686257766,-2,-2,-3,-2,-5,-2,-2,-3
1558439686257766,-1,-2,-2,-1,0,0,0,2
1558439686257766,-1,0,-1,0,-1,2,-2,-4
1558439686273233,0,-1,-1,-1,1,4,4,3
1558439686273233,0,-2,1,1,-1,0,-3,-7
1558439686280216,-1,-2,-1,0,1,-3,-1,0
1558439686280216,-1,0,-2,-3,-4,-7,-3,-1
1558439686295118,-2,-2,-3,-3,-3,-7,-3,0
1558439686295118,-1,-1,1,2,2,-1,0,-1
1558439686302772,-2,1,1,0,2,3,1,-3
1558439686302772,-6,-2,-4,-2,-5,-5,-4,-5
1558439686318065,1,3,-1,1,-2,-4,-5,-1
1558439686318065,1,2,1,1,2,4,1,4
1558439686318602,-3,-4,-2,-3,-1,3,-1,-4
1558439686318602,3,2,3,-1,-2,5,3,1
1558439686333563,0,-2,-3,-1,-7,-12,-6,-5
1558439686333563,-1,0,2,1,9,2,4,3
1558439686339927,-1,3,1,2,1,4,1,0
1558439686339927,-3,-3,-2,-1,-5,-9,-6,-1
1558439686355844,-1,-2,-2,-3,-1,7,1,-1
1558439686355844,1,-1,-2,-4,-6,-1,-4,-3
1558439686362669,-3,-2,-4,-4,-9,-10,-10,-5
1558439686362669,2,1,1,2,12,7,11,7
1558439686377750,0,1,2,0,5,3,2,1
1558439686377750,0,-1,-3,-3,-8,-4,-4,1
1558439686378442,-1,-3,-1,-1,-2,-1,-5,-5
1558439686378442,1,-2,-2,0,-5,-9,-5,0
1558439686393405,-7,-2,0,-2,4,1,1,-2
1558439686393405,0,-1,-3,-1,0,2,4,2
1558439686399385,0,2,2,0,1,0,0,-2
1558439686399385,-3,-3,-1,0,1,2,4,-1
1558439686414643,2,-1,0,-2,2,7,1,0
1558439686414643,0,-3,-2,-1,-1,2,-2,1
1558439686422562,0,-3,-1,-2,-8,-14,-10,-3
1558439686422562,1,4,0,-2,2,-1,-2,-1
1558439686437284,-2,2,2,2,2,5,6,-1
1558439686437284,-3,-3,-3,-2,-6,-2,-5,-5
1558439686438281,-2,0,-1,-1,1,-3,0,-1
1558439686438281,0,0,1,-1,-2,-4,-2,0
1558439686453241,1,-2,0,-2,-6,-1,0,-1
1558439686453241,1,-1,-1,0,5,-2,4,0
1558439686459739,-1,1,1,-1,-4,-3,-4,-1
1558439686459739,-2,-3,-2,-1,-3,3,-1,-2
1558439686474637,1,1,0,0,-1,-3,-1,0
1558439686474637,5,5,1,-1,3,4,7,7
1558439686482162,-6,-8,-2,-1,0,1,-1,-3
1558439686482162,-3,-3,-3,-2,-6,-3,-1,-3
1558439686498176,2,1,1,-1,-3,-4,-3,-3
1558439686498176,1,-1,1,4,7,3,1,2
1558439686498176,0,-1,-1,-3,-8,-5,-5,-3
1558439686498176,-3,-2,-1,-3,-1,7,-2,-1
1558439686513085,-2,0,-3,1,1,2,4,0
1558439686513085,-2,0,-1,0,-1,-9,-7,-1
1558439686519342,1,1,-2,-3,1,7,7,3
1558439686519342,-2,-4,-4,-2,-7,-5,-4,-4
1558439686534027,2,1,3,1,-2,-6,-5,0
1558439686534027,-4,-1,-3,-2,-2,-3,-3,-4
1558439686542004,1,-2,-3,-1,1,2,2,0
1558439686542004,-1,1,1,2,-1,-5,-5,-4
1558439686556964,-4,-4,-4,-2,-5,0,0,2
1558439686556964,-1,-1,2,0,3,0,2,0
1558439686557960,3,-1,0,2,2,-2,0,4
1558439686557960,0,-1,-1,-1,0,0,1,-1
1558439686572919,0,-3,-2,-2,-3,-1,-2,-2
1558439686572919,-4,-2,-3,-3,-3,-11,-5,-8
1558439686578906,-2,0,-3,1,9,8,6,0
1558439686578906,-2,-5,-3,-3,-1,0,-2,-1
1558439686595143,4,0,-2,-3,-3,-4,-3,-2
1558439686595143,-12,-10,-6,-4,-12,-5,-7,-2
1558439686601861,-1,1,0,0,1,-1,-1,1
1558439686601861,-1,1,2,-2,1,-2,-2,0
1558439686617801,1,0,0,-1,3,3,1,-1
1558439686617801,1,-1,-3,-2,-5,-1,-1,-2
1558439686617801,-3,0,-1,0,3,-2,1,-2
1558439686617801,0,-3,-1,-1,-2,-3,-1,0
1558439686632760,-2,-2,-3,-2,-1,0,-3,-2
1558439686632760,1,2,-2,-4,-2,6,2,1
1558439686639757,0,1,1,-1,-8,-8,-5,-2
1558439686639757,1,1,0,1,7,-7,2,1
1558439686655698,-3,-2,0,-1,4,2,1,-2
1558439686655698,0,0,1,0,-2,0,-4,-2
1558439686661685,1,-4,-2,0,0,3,4,5
1558439686661685,-3,-4,-3,-4,-3,-2,-3,-5
1558439686677644,-2,-1,0,0,0,-3,-1,-1
1558439686677644,2,3,1,0,-1,2,3,0
1558439686678638,2,-1,-3,-3,-3,2,0,-3
1558439686678638,-11,-6,-1,-1,-4,-6,-5,-3
1558439686693599,-1,1,0,-2,-1,-1,-1,4
1558439686693599,0,-2,-3,-2,-6,-7,-7,-4
1558439686699585,3,2,2,1,5,5,3,5
1558439686699585,3,0,-1,1,7,10,4,0
1558439686714543,-1,-3,-2,-1,-3,-5,-5,-6
1558439686714543,1,-2,-2,0,-1,1,-2,1
1558439686721524,0,0,-2,-1,-5,-5,-2,-3
1558439686721524,1,0,-2,-1,-4,1,-5,1
1558439686737482,-3,2,2,1,-3,-10,-4,-3
1558439686737482,-2,2,0,-2,3,1,2,-1
1558439686738478,-4,-5,-2,-5,-4,-4,-6,-8
1558439686738478,-1,-1,-2,1,0,3,0,-2
1558439686753438,1,-1,-2,0,1,5,4,1
1558439686753438,0,-2,0,0,3,5,2,-2
1558439686759423,-1,-2,-2,-3,-3,-1,-1,2
1558439686759423,2,2,0,0,6,-4,0,2
1558439686774381,-3,-2,-3,-2,-6,-4,-3,-4
1558439686774381,4,2,2,-2,2,5,3,2
1558439686781364,0,2,0,-1,4,7,2,1
1558439686781364,-4,0,-2,-2,-7,-3,-4,-2
1558439686797321,0,-1,-1,-3,-3,-6,0,-2
1558439686797321,-4,-1,-3,-1,-3,-6,-5,-1
1558439686798318,-1,2,0,-2,-2,4,0,-3
1558439686798318,-1,-2,-2,-2,4,3,3,6
1558439686813282,-2,-2,-1,-1,0,-1,-5,-3
1558439686813282,0,-4,-1,0,-3,0,-1,-2
1558439686819264,0,-5,-3,-2,-1,-7,-10,-5
1558439686819264,1,1,0,-3,-5,-4,-3,-5
1558439686834225,-2,0,-2,0,-1,0,4,2
1558439686834225,-2,-2,-4,-1,2,2,2,-4
1558439686842204,-2,0,0,2,0,-2,2,1
1558439686842204,0,-2,-2,-1,-2,-1,3,0
1558439686857161,-2,-1,-1,-2,-2,-1,-5,-3
1558439686857161,0,-2,0,1,-1,-3,-4,1
1558439686858158,-2,1,0,0,1,0,1,-1
1558439686858158,3,1,-1,0,1,2,2,1
1558439686873118,2,2,-2,-2,0,3,0,1
1558439686873118,-4,1,-2,-1,-7,-4,-4,-4
1558439686887080,-3,-3,-1,0,0,-5,-1,1
1558439686887080,-1,0,4,-1,0,0,-3,-1
1558439686894066,-1,-2,0,0,-1,-3,-2,-1
1558439686894066,1,0,-1,-4,2,-2,-1,-2
1558439686902040,-1,-1,-5,-2,-2,3,0,-1
1558439686902040,0,-1,1,-1,-4,-5,-4,-2
1558439686917000,-1,1,-3,-4,-10,-11,-8,-1
1558439686917000,-3,-2,0,0,-2,5,1,0
1558439686917999,1,1,0,1,4,-8,1,2
1558439686917999,0,0,-1,0,5,7,5,0
1558439686932958,0,-4,-1,-1,2,0,-4,-3
1558439686932958,2,-3,-1,-1,-2,-6,-3,8
1558439686938943,-2,-1,0,-2,0,2,-3,-11
1558439686938943,1,-3,-3,-2,-6,1,-4,-3
1558439686953910,-1,0,0,-1,-4,-10,-7,-3
1558439686953910,-1,0,-1,0,1,1,4,-1
1558439686961881,-1,0,-1,-3,-5,-4,0,3
1558439686961881,1,3,2,2,8,7,6,3
1558439686977837,-4,0,-1,-3,2,3,1,-4
1558439686977837,3,1,-1,0,-3,-4,1,-2
1558439686977837,-11,-9,-1,0,-4,-8,-2,-1
1558439686977837,0,-1,-3,-3,-5,0,-5,-5
1558439686992798,-2,-4,-5,-1,-1,-1,1,1
1558439686992798,-1,1,-1,-2,-1,-5,-6,-1
1558439686999779,4,3,2,1,5,10,6,2
1558439686999779,-2,0,2,0,6,9,7,4
1558439687014748,0,-4,-2,0,-2,0,-1,-2
1558439687014748,-2,-3,-2,-3,-7,-5,-3,-5
1558439687021722,-1,0,-2,-4,-6,-10,-6,-4
1558439687021722,0,0,1,-1,-2,-5,-5,-3
1558439687037678,1,1,0,0,0,1,6,4
1558439687037678,-1,-1,0,0,4,1,0,0
1558439687037678,1,-1,-2,0,0,5,1,3
1558439687037678,-2,-4,-3,-1,-4,-7,-5,-3
1558439687053635,-4,1,1,-1,-5,-6,-5,-4
1558439687053635,-2,-2,-1,-1,0,1,4,-1
1558439687059620,2,-2,1,-1,-3,-1,-4,-1
1558439687059620,-1,-3,-2,-2,2,-2,2,2
1558439687074580,1,-3,-2,0,3,9,2,-1
1558439687074580,-3,-1,0,0,2,-2,-1,-1
1558439687081570,-3,-1,-1,-2,-10,-2,-8,-3
1558439687081570,-1,0,-1,-2,-7,-7,-3,-5
1558439687097517,4,4,-2,-2,4,0,4,6
1558439687097517,-8,-7,-2,1,4,10,10,1
1558439687098514,1,2,-1,-1,2,-5,-4,-4
1558439687098514,-3,-3,-1,-2,-1,-1,0,0
1558439687113475,-1,0,2,1,2,5,3,-3
1558439687113475,2,1,-1,-1,-1,-2,-2,0
1558439687119459,-1,-2,-3,-2,-6,-6,-3,0
1558439687119459,-1,-3,-1,0,2,3,2,0
1558439687135417,-3,0,-2,0,-3,-2,-4,-2
1558439687135417,0,-1,-1,-2,2,7,3,1
1558439687141399,0,0,0,-2,-2,-11,-2,-1
1558439687141399,-1,0,0,-2,-8,-6,-7,-7
1558439687156362,0,-3,0,1,9,7,8,5
1558439687156362,1,4,3,2,-5,-6,-8,-2
1558439687173315,-3,-3,-5,-1,1,7,5,1
1558439687173315,-2,1,-1,1,3,-4,-2,2
1558439687174311,-4,-3,-1,-5,-6,-3,-3,-3
1558439687174311,0,-2,-3,-3,-9,-13,-8,-4
1558439687179298,3,1,-1,2,7,1,3,3
1558439687179298,-2,-2,-1,-2,-4,5,0,-2
1558439687195256,-1,-3,0,2,1,0,0,-1
1558439687195256,-2,-2,-3,-4,-4,-2,-6,-4
1558439687202238,-1,-2,1,-2,-6,2,-4,-4
1558439687202238,1,-2,0,-1,-1,-1,4,2
1558439687218195,4,3,1,2,8,3,3,1
1558439687218195,-12,-10,-4,1,-3,-3,-3,-4
1558439687224180,-1,1,-1,0,-4,-5,-4,-4
1558439687224180,-2,0,-1,-3,0,3,-2,1
1558439687233155,-2,-3,-3,-3,-7,-10,-3,-3
1558439687233155,4,3,0,-2,0,3,2,9
1558439687239140,-4,-4,-1,1,11,11,3,-7
1558439687239140,0,1,1,4,8,7,5,1
1558439687254099,-2,-3,0,-1,-3,-1,-1,-1
1558439687254099,0,-1,-1,-4,-8,-10,-5,-1
1558439687262077,-1,0,-3,-3,-9,-4,-2,-1
1558439687262077,1,-1,-3,-2,-3,-2,-3,-1
1558439687277037,0,-2,-1,-1,3,3,-1,2
1558439687277037,-3,0,-1,2,-1,3,0,-3
1558439687284019,-1,-1,1,0,0,-3,2,1
1558439687284019,-3,-1,-2,-1,-2,-7,-5,-2
1558439687292997,-3,-1,-4,-1,-7,-6,-5,-1
1558439687292997,2,1,1,3,6,4,4,0
1558439687298979,-1,-1,-1,-1,2,2,0,-2
1558439687298979,0,0,-1,-2,-7,-5,-2,2
1558439687313939,-3,-1,-1,0,3,3,-1,-2
1558439687313939,3,1,0,0,4,7,0,0
1558439687321918,-8,-5,-2,-2,-3,-1,-3,-7
1558439687321918,-1,-2,-2,-1,-7,-7,-1,-2
1558439687336878,-2,0,-1,-2,-5,-2,-1,-1
1558439687336878,-1,0,-2,-2,0,-1,-3,-4
1558439687343858,2,3,-1,0,2,0,0,3
1558439687343858,-1,-3,-3,-2,-7,-7,-4,-2
1558439687359825,-3,0,2,0,-1,-4,-3,-3
1558439687359825,1,0,0,-1,3,2,2,2
1558439687360813,-2,0,-3,-2,-4,-1,1,1
1558439687360813,0,1,2,0,2,-4,-2,2
1558439687373779,0,-3,-2,-4,-7,5,-3,-1
1558439687373779,-2,0,-1,-1,-3,-5,0,-2
1558439687381759,2,-1,0,-1,1,-4,-1,3
1558439687381759,0,0,0,-2,4,4,5,2
1558439687396717,-1,-4,-2,0,5,10,-2,-3
1558439687396717,-1,-3,0,0,-7,-4,-4,-3
1558439687404695,-2,0,1,-2,-2,-4,-2,-2
1558439687404695,4,2,1,0,7,8,4,2
1558439687419658,-2,-2,-1,-2,-4,-5,-1,-1
1558439687419658,0,-3,-3,0,-5,-6,-2,-2
1558439687420654,6,0,0,0,0,1,0,-1
1558439687420654,-3,0,-1,-1,-2,-9,-6,-2
1558439687434617,-2,0,0,0,2,3,4,-2
1558439687434617,-4,-2,0,-4,-6,-4,-4,-1
1558439687441597,0,-2,-2,-1,2,3,6,3
1558439687441597,3,2,0,1,2,0,-2,-2
1558439687456556,1,0,-1,-2,-1,-8,-2,1
1558439687456556,-2,-3,-4,-2,-1,5,-1,-4
1558439687464536,-2,-3,-2,-2,-7,-3,-6,0
1558439687464536,-5,-5,-5,-5,-10,-9,-4,-3
1558439687480493,1,-1,0,-1,-3,1,0,-2
1558439687480493,2,0,4,2,9,2,4,3
1558439687480493,-1,-1,1,0,3,2,3,0
1558439687480493,-2,-5,-3,-3,-7,-3,-8,-5
1558439687494456,-1,-2,-2,-3,-4,1,-1,0
1558439687494456,0,0,-1,-2,1,-9,0,0
1558439687501437,-1,0,-1,1,4,0,1,1
1558439687501437,0,1,1,0,7,8,7,0
1558439687516397,-1,-1,-4,-1,-5,-3,-5,-1
1558439687516397,0,1,1,-2,-4,2,-2,-6
1558439687524377,-4,-1,-3,-3,-7,-4,-6,-3
1558439687524377,-4,-5,-3,-1,2,0,0,1
1558439687540337,3,3,1,3,7,-7,8,9
1558439687540337,1,2,0,-1,5,3,3,-1
1558439687540337,-1,0,2,0,0,6,3,1
1558439687540337,-4,-1,-3,-3,-9,-5,-7,-10
1558439687554295,-1,0,1,-1,1,3,2,0
1558439687554295,0,-4,-6,-4,-7,-3,0,-3
1558439687561278,4,1,1,-2,-1,-9,1,0
1558439687561278,-1,-1,1,0,2,0,0,5
1558439687577233,0,0,1,2,1,3,3,-3
1558439687577233,-3,-1,1,1,0,0,-2,3
1558439687584215,-2,-5,-2,-1,-2,3,-3,-2
1558439687584215,-2,-1,-4,-1,0,-1,0,-1
1558439687600175,-1,-1,-1,-1,-4,-3,-5,-3
1558439687600175,0,1,1,-1,-5,-4,-2,-1
1558439687600175,-1,-2,-3,-3,1,3,-1,-2
1558439687600175,1,3,2,1,-1,-3,2,-1
1558439687614135,-1,-3,-3,-1,-1,-2,2,0
1558439687614135,-1,-1,1,0,2,4,3,2
1558439687622115,0,0,0,0,0,-3,-4,-1
1558439687622115,5,3,1,0,1,-2,0,0
1558439687637074,-11,-9,-3,0,1,1,-5,-5
1558439687637074,-1,0,-2,-2,-4,-3,-4,-2
1558439687644056,-3,-3,-4,-2,-7,-12,-4,-4
1558439687644056,1,-2,2,0,7,6,4,4
1558439687660030,0,1,-3,-3,-6,-4,-5,-4
1558439687660030,-1,-1,-4,-1,5,1,0,0
1558439687661016,-1,1,2,0,2,3,3,-2
1558439687661016,-2,-3,-4,-1,-8,-1,-2,-2
1558439687673977,1,1,1,0,-1,-5,-1,-1
1558439687673977,-3,-6,-5,-3,-3,0,-6,-5
1558439687681958,1,-2,-3,-2,-4,-1,-3,-3
1558439687681958,-2,-2,0,-2,1,0,-1,-2
1558439687696913,4,2,2,-2,0,-4,0,2
1558439687696913,-10,-8,-3,-1,-5,-2,4,3
1558439687703898,-2,-1,-4,-2,-2,-1,-5,-3
1558439687703898,-1,-1,1,1,6,6,1,-4
1558439687719855,0,-1,-2,-2,-6,-6,-6,0
1558439687719855,3,0,-1,1,-3,-7,-3,-3
1558439687720857,1,2,1,-1,2,4,6,4
1558439687720857,-2,-1,-3,-5,-7,-2,-2,-1
1558439687733816,-2,-3,-2,-4,-4,-5,-6,-5
1558439687733816,1,0,-2,1,7,9,10,5
1558439687749774,0,-2,0,1,3,3,-2,0
1558439687749774,0,0,-3,-3,-8,-9,-5,-3
1558439687756766,0,0,0,-1,5,5,3,3
1558439687756766,1,0,-2,-3,-6,-2,-7,-3
1558439687764732,-2,0,-2,0,-4,-3,2,0
1558439687764732,-1,-1,-1,0,2,1,-2,-2
1558439687779692,-3,-7,-8,-4,-8,-6,-3,-3
1558439687779692,-2,2,0,1,6,4,3,-4
1558439687780692,2,-1,-2,-2,-4,-1,0,-1
1558439687780692,2,3,3,0,-3,-4,-3,-1
1558439687794652,-11,-6,-1,1,-3,-4,-6,-3
1558439687794652,1,2,2,0,6,2,7,2
1558439687801637,0,1,0,-1,0,-3,-2,-2
1558439687801637,0,-3,-3,-2,-5,1,-2,-5
1558439687816594,3,0,-1,1,5,8,5,2
1558439687816594,-1,0,1,-1,-3,4,-1,0
1558439687824573,0,-3,-1,-5,-7,-15,-4,4
1558439687824573,-3,-4,-1,-1,0,-2,-2,-5
1558439687839534,0,0,-1,0,3,11,-7,-9
1558439687839534,-2,-2,-1,-4,-5,-12,0,1
1558439687840530,4,1,1,1,9,9,5,2
1558439687840530,0,0,-1,1,0,4,0,2
1558439687855490,0,1,2,-3,-5,-2,4,-1
1558439687855490,-1,-4,-3,-3,-6,-7,-5,-4
1558439687861474,-2,0,1,1,1,8,1,0
1558439687861474,0,-1,-2,-1,-1,-4,-2,1
1558439687876434,-3,-2,-1,-2,0,0,0,-1
1558439687876434,2,1,0,1,3,-1,2,3
1558439687884413,-4,-3,-2,-1,-2,-1,0,-3
1558439687884413,-5,-1,-4,-3,-4,-1,-2,-2
1558439687900370,4,1,1,0,-1,-3,-2,0
1558439687900370,2,1,0,1,9,14,11,5
1558439687900370,-2,-2,0,-4,0,-4,-2,-3
1558439687900370,1,-1,0,-1,1,2,1,-1
1558439687915332,1,1,1,-3,-4,-5,-3,0
1558439687915332,-3,-6,-3,-2,-8,-7,-7,-6
1558439687921313,-1,-1,-1,-1,-4,4,-4,-4
1558439687921313,-3,-2,-2,-1,3,-4,5,5
1558439687936276,-1,1,4,1,5,-5,2,0
1558439687936276,0,-2,0,-2,1,0,-4,-1
1558439687944256,-3,0,-2,-1,-1,-2,-3,1
1558439687944256,-2,-3,-1,1,0,4,1,-2
1558439687960209,1,1,-2,-2,-3,2,-1,3
1558439687960209,0,1,2,-1,1,-2,-1,-1
1558439687960209,-1,-4,-3,-4,-7,-8,-9,-6
1558439687960209,6,0,-2,-1,2,2,4,5
1558439687975171,-2,1,-1,2,-1,-3,-1,0
1558439687975171,1,1,1,-3,-4,0,-3,-3
1558439687982152,0,0,-1,2,9,7,4,3
1558439687982152,-1,-2,2,0,2,3,8,5
1558439687997110,-4,-4,-6,-4,-1,-2,-11,-10
1558439687997110,1,1,1,1,-2,-10,-7,-2
1558439688004094,-1,-5,-4,-2,1,4,2,-1
1558439688004094,0,0,0,0,-3,-2,-2,-2
1558439688020049,3,1,-1,-2,1,-6,1,2
1558439688020049,-2,-2,0,-2,-1,1,1,2
1558439688021049,0,-1,-1,-2,-2,-1,1,-1
1558439688021049,-3,-1,-1,-1,-2,0,-2,-2
