timestamp,emg1,emg2,emg3,emg4,emg5,emg6,emg7,emg8
1558435529854537,-4,-9,10,20,11,-2,2,4
1558435529854537,1,2,-2,0,5,9,2,4
1558435529855536,1,4,0,-15,-8,-5,2,4
1558435529855536,-2,3,9,23,10,1,-2,-2
1558435529856532,9,11,0,-5,-5,-4,1,7
1558435529856532,-8,-14,-25,-3,6,10,4,-3
1558435529856532,-2,-5,-3,7,-7,-11,-14,-2
1558435529856532,-1,-2,1,-31,-19,-4,-13,4
1558435529867503,-4,-2,-7,13,6,3,8,-1
1558435529867503,2,2,-6,-11,-3,-2,-7,-4
1558435529876479,1,-4,-20,5,-4,-10,5,1
1558435529876479,4,9,11,5,6,6,5,4
1558435529882462,-7,-6,8,8,7,-1,-15,-16
1558435529882462,0,1,10,-2,-13,-9,-3,7
1558435529898420,1,4,-6,3,9,12,9,2
1558435529898420,6,5,6,-5,-6,-13,-4,0
1558435529906399,-3,-10,-5,-9,-6,1,-2,-1
1558435529906399,3,8,12,15,8,3,-2,6
1558435529912382,0,2,18,12,14,6,7,3
1558435529912382,2,1,-13,-10,7,17,16,0
1558435529927343,0,-1,0,10,-2,3,0,-1
1558435529927343,-4,-2,10,-4,-3,1,-1,-3
1558435529936319,0,0,2,-7,-3,-1,5,4
1558435529936319,-5,-5,-10,-7,-12,-6,6,0
1558435529976212,6,13,22,12,0,-4,-1,3
1558435529976212,-5,-8,-3,13,8,-4,0,0
1558435529976212,-2,-1,-5,-9,3,2,-2,0
1558435529976212,1,0,8,-1,-2,2,-11,-2
1558435529977208,-1,-1,-23,-11,-3,1,5,-1
1558435529977208,-1,-5,-16,-5,-6,-5,1,0
1558435529980201,2,5,24,-1,4,-6,5,5
1558435529980201,-3,-4,-2,22,1,1,5,-3
1558435529987183,-7,-9,1,-10,-14,-14,-16,-10
1558435529987183,-2,1,-9,-20,-9,2,0,-6
1558435529996159,-5,-6,-18,-3,-2,1,3,-1
1558435529996159,1,-2,-1,15,9,-2,1,0
1558435530002142,-3,-3,-2,-14,-2,2,0,-5
1558435530002142,-5,-6,-8,2,8,8,9,-4
1558435530018098,4,-3,-12,-4,-6,-14,-6,1
1558435530018098,-8,-4,8,-9,-5,1,3,-5
1558435530025081,2,-1,-7,7,1,4,-4,-2
1558435530025081,4,3,15,3,2,-6,-1,3
1558435530032062,0,1,0,4,1,4,3,-1
1558435530032062,2,2,-7,-10,-3,4,4,3
1558435530047023,-3,-5,-5,3,4,-2,-3,0
1558435530047023,2,3,5,0,-5,2,-4,-1
1558435530055997,-3,-3,0,1,-6,-5,-3,-7
1558435530055997,0,-2,-8,-3,-2,-6,-3,2
1558435530062978,1,2,2,0,5,5,-2,6
1558435530062978,0,2,-5,-2,-5,-4,3,0
1558435530077939,-4,1,4,-6,0,9,0,-8
1558435530077939,-8,-10,-16,25,10,-3,-10,-7
1558435530084920,0,1,-4,-13,-7,-8,-5,-1
1558435530084920,-1,-6,-1,0,-5,-7,-13,-4
1558435530092899,5,2,-3,-4,-6,-3,0,9
1558435530092899,-2,5,15,-2,3,4,12,1
1558435530107861,1,-2,-14,-11,-7,-6,2,1
1558435530107861,-2,-1,8,33,5,-5,-3,4
1558435530115845,-8,-3,0,-8,0,12,-9,-8
1558435530115845,2,2,1,-11,0,-4,-2,-2
1558435530122826,4,5,6,-3,3,1,7,8
1558435530122826,0,1,-6,-8,-5,4,-1,0
1558435530137785,-3,-7,-3,10,-1,-6,1,-4
1558435530137785,1,-1,-1,0,-4,-10,-20,-2
1558435530144767,1,1,-9,0,-2,3,11,2
1558435530144767,1,2,13,-12,-8,-2,1,-1
1558435530152745,-1,0,2,23,13,0,-9,-4
1558435530152745,-3,-3,-3,-11,-10,-5,1,-3
1558435530167701,-4,-3,-2,-16,-2,1,0,-3
1558435530167701,1,4,-1,-2,5,-6,1,3
1558435530175679,-2,-2,6,9,-10,-11,-6,-4
1558435530175679,1,2,13,-11,-11,-6,2,-1
1558435530182661,-1,-6,-8,9,-1,4,-1,-3
1558435530182661,-6,-2,14,-4,5,11,0,-2
1558435530198704,1,-3,-23,-8,1,0,15,5
1558435530198704,2,-1,-5,-2,1,-1,4,6
1558435530204602,-7,-6,-4,-7,-2,-1,2,-9
1558435530204602,1,2,-6,-3,4,7,-2,-2
1558435530212630,-5,-4,12,12,3,-7,-16,-10
1558435530212630,0,-2,-2,-11,-2,4,-8,-3
1558435530227541,0,1,5,19,0,-5,2,-3
1558435530227541,0,-2,-9,-8,4,1,9,2
1558435530235527,2,9,18,2,4,8,15,4
1558435530235527,-4,-9,-11,0,-9,-5,-5,-3
1558435530242504,0,2,2,-28,-5,-1,-10,-3
1558435530242504,0,0,3,15,-1,-8,-10,-3
1558435530258457,3,1,1,-14,-7,-6,1,4
1558435530258457,-4,-5,-10,12,15,14,1,-3
1558435530265440,-2,0,7,4,-1,1,-3,-6
1558435530265440,-3,1,2,8,4,6,-2,-4
1558435530272420,-1,-8,-16,-8,-4,-4,0,2
1558435530272420,4,6,5,-23,-11,-9,-8,2
1558435530287380,-2,-2,4,2,-2,0,5,-1
1558435530287380,1,0,-29,-15,-5,-1,1,-1
1558435530295357,-1,-3,-1,-2,-2,-3,0,2
1558435530295357,1,7,-5,11,4,-2,2,0
1558435530302341,-1,0,13,9,6,-2,-7,3
1558435530302341,-3,-5,-5,-14,-3,1,-9,-3
1558435530318298,1,0,5,0,1,6,4,2
1558435530318298,5,2,3,-6,2,5,6,1
1558435530325279,-5,-10,-8,21,-5,-21,-14,-8
1558435530325279,0,-1,-3,2,-7,-7,3,5
1558435530332261,1,2,6,-3,3,6,5,2
1558435530332261,-5,9,14,-11,-2,12,4,-6
1558435530347220,2,1,-13,6,8,5,4,2
1558435530347220,-2,-6,-4,3,-6,-8,-10,-3
1558435530355200,0,5,0,-5,5,4,1,-3
1558435530355200,-1,-3,0,4,-8,-5,4,2
1558435530362179,9,15,5,0,3,0,0,5
1558435530362179,-8,-9,-12,-6,-4,-11,-13,-7
1558435530378137,-5,-12,-11,-7,-1,3,8,-3
1558435530378137,-5,-12,-31,-14,-9,-4,-11,-8
1558435530385119,-1,-6,0,-4,2,1,2,1
1558435530385119,4,6,10,-6,-5,0,8,10
1558435530401075,-5,-2,6,10,7,7,-9,-10
1558435530401075,-3,-5,1,11,1,-5,-2,-4
1558435530407059,-1,2,7,5,-8,-5,-2,-5
1558435530407059,-1,4,3,11,5,4,3,-4
1558435530416037,2,4,-1,-8,-5,-6,-4,4
1558435530416037,3,1,4,4,15,15,11,6
1558435530422019,3,4,-5,-16,-5,-3,-14,0
1558435530422019,-4,-12,-1,8,1,3,0,-5
1558435530437977,-1,-5,-15,-6,-7,-2,-17,-3
1558435530437977,3,9,-13,-4,0,-5,8,4
1558435530444959,-2,3,40,13,2,1,-1,2
1558435530444959,-1,-11,-16,-4,-7,-9,1,0
1558435530460916,0,-2,-8,5,-3,-6,-5,-2
1558435530460916,-1,4,9,-11,-1,2,-4,-6
1558435530467898,-4,-8,-20,7,0,2,5,0
1558435530467898,-1,0,4,-5,2,-2,1,4
1558435530475877,0,2,2,7,2,4,19,1
1558435530475877,0,-3,0,5,-8,-5,-6,-2
1558435530482856,-5,-2,-4,-7,0,0,-2,-6
1558435530482856,0,9,-1,-2,-1,1,-5,-8
1558435530497816,-2,-13,-5,-8,-2,-6,-6,3
1558435530497816,-1,-2,8,-3,-3,-7,-8,0
1558435530504799,-4,-8,-10,-8,0,4,-4,-7
1558435530504799,3,5,20,15,12,10,8,0
1558435530520756,-2,6,-6,6,-14,-16,-11,-6
1558435530520756,1,0,6,-12,1,2,8,1
1558435530527736,6,11,5,8,6,0,11,5
1558435530527736,-3,-11,-4,-8,-6,-4,-4,-2
1558435530535716,-9,-11,-4,5,-3,0,-7,-10
1558435530535716,3,0,-11,-4,-1,-7,-4,4
1558435530542709,3,12,-5,-10,-5,7,6,5
1558435530542709,3,-1,16,30,14,-2,0,0
1558435530558654,2,2,-1,-10,-11,-5,-6,1
1558435530558654,1,2,5,8,-1,-6,-5,-2
1558435530564639,-6,-3,2,-1,1,-3,-5,-2
1558435530564639,-9,-6,-14,-26,-15,-1,-3,-8
1558435530580597,-1,-9,7,8,6,-1,2,2
1558435530580597,-2,-3,3,5,-3,-1,-5,-4
1558435530587577,2,-6,-3,-5,-4,0,-1,-1
1558435530587577,-4,6,1,0,5,0,3,-9
1558435530595555,-1,2,-23,-6,1,4,-8,-5
1558435530595555,-4,-2,19,14,5,4,0,3
1558435530602537,-2,-7,-7,1,-4,-11,-6,0
1558435530602537,-1,-2,3,2,-8,-1,-1,-1
1558435530618494,8,10,1,-12,1,2,-1,4
1558435530618494,-1,1,-8,-1,-3,1,3,-2
1558435530625475,-4,-10,8,16,12,13,4,0
1558435530625475,4,2,-11,-5,-16,-15,-5,3
1558435530640436,-2,0,-2,-10,5,10,7,-2
1558435530640436,-2,-4,-3,-1,1,-2,-2,3
1558435530647416,-1,3,12,8,5,6,5,0
1558435530647416,-2,-3,-13,-7,-3,-5,-10,-3
1558435530655397,0,2,7,1,3,1,-2,3
1558435530655397,-6,-7,-14,-2,-2,-7,10,-4
1558435530670360,-1,-1,2,-7,-8,-1,3,-4
1558435530670360,-1,0,-1,-11,-3,6,-6,1
1558435530678335,5,17,14,22,9,7,12,6
1558435530678335,-8,-18,-28,-5,-11,-9,-8,-7
1558435530685316,-1,1,9,14,6,-3,-2,-1
1558435530685316,1,6,13,5,-2,-5,-1,-2
1558435530700276,-3,-7,-7,-3,-1,-3,-3,-7
1558435530700276,5,5,11,-8,5,9,7,9
1558435530707256,1,-1,-15,-22,-11,-4,-4,5
1558435530707256,-3,-6,12,34,10,4,-1,-13
1558435530715237,6,11,17,-3,-6,-3,-5,5
1558435530715237,-10,4,9,7,-1,-6,-17,-15
1558435530730196,-2,-7,0,-11,-4,-6,7,-1
1558435530730196,3,7,-6,-3,6,4,13,5
1558435530738176,-3,-8,-6,1,-8,-8,2,0
1558435530738176,5,2,-9,-18,-4,0,4,5
1558435530745155,-4,-4,-10,6,1,2,2,-3
1558435530745155,4,5,-7,-22,-5,2,16,9
1558435530761112,-7,-8,3,1,-2,-3,-9,-9
1558435530761112,1,3,2,-5,-2,2,4,-3
1558435530767098,-1,-2,-9,2,4,4,-7,-4
1558435530767098,2,1,3,22,4,-6,-9,1
1558435530776074,3,6,10,-17,2,8,16,7
1558435530776074,-6,-8,-2,1,8,5,-9,-7
1558435530790037,-2,2,1,-6,-8,-8,-6,0
1558435530790037,-1,-12,-28,-22,-10,0,-6,0
1558435530798014,-1,-3,10,14,-4,-9,-7,-5
1558435530798014,-2,2,0,28,6,-1,3,-5
1558435530804996,1,-7,-15,-19,-3,-3,0,4
1558435530804996,5,13,24,-1,-4,1,-2,3
1558435530820953,-4,-8,-28,-3,2,-2,-12,-2
1558435530820953,2,-1,-15,-21,-8,-7,11,1
1558435530827933,0,-4,2,-2,1,3,2,-2
1558435530827933,-11,-4,13,24,8,1,-5,-6
1558435530834914,-8,-22,-6,-7,-4,-2,5,-5
1558435530834914,5,7,17,-2,-2,-1,-9,1
1558435530849888,0,0,-9,5,-3,-1,2,0
1558435530849888,5,3,-1,2,3,-1,-3,2
1558435530857854,2,8,-1,8,12,7,2,-1
1558435530857854,-6,-9,4,8,-17,-8,-10,-6
1558435530864837,-2,-2,-8,-9,-3,2,7,-1
1558435530864837,0,0,0,-15,-2,-7,1,4
1558435530880821,1,7,4,2,-4,0,-5,0
1558435530880821,1,-2,-8,9,1,-2,-8,2
1558435530887776,1,-1,9,11,4,-3,-2,2
1558435530887776,2,5,9,0,9,15,15,1
1558435530894761,-3,-10,-12,-11,-1,0,-3,-3
1558435530894761,1,-2,-9,-15,-4,8,7,4
1558435530909727,-6,-3,-8,-5,-1,-4,1,-9
1558435530909727,-3,-4,-4,-13,-3,-2,-10,-7
1558435530917700,-4,-1,15,18,1,-3,-1,-3
1558435530917700,7,12,17,-1,7,2,7,8
1558435530924675,-9,-13,-8,4,1,1,-9,-7
1558435530924675,0,2,-8,-11,-4,-2,-8,1
1558435530940635,-5,-1,0,-12,-9,-7,-19,-13
1558435530940635,-7,-4,10,31,9,5,-3,-3
1558435530947618,-2,2,19,-7,-11,-9,-6,-3
1558435530947618,-1,-8,-26,-14,-15,-6,1,1
1558435530963573,4,1,-5,6,-3,-5,1,0
1558435530963573,0,-3,-6,-26,-1,1,-4,2
1558435530970556,1,-1,-11,23,11,5,0,2
1558435530970556,3,12,11,1,9,15,21,1
1558435530986514,9,20,6,-3,4,11,15,9
1558435530986514,-14,-20,-3,-4,-7,-3,-2,-4
1558435530987509,-4,-1,17,28,3,-12,-9,-8
1558435530987509,-6,-9,10,-9,-7,-7,-10,-2
1558435531000473,1,-5,-29,-23,-4,-7,-9,-2
1558435531000473,2,9,10,11,3,2,13,7
1558435531007453,2,2,-2,-32,-9,3,-4,2
1558435531007453,4,2,4,9,0,0,0,-4
1558435531023412,-14,-9,-2,22,1,-8,2,-4
1558435531023412,2,4,-18,-38,-16,-10,-1,0
1558435531030396,1,2,0,2,3,-2,-7,2
1558435531030396,-8,-17,-12,6,6,10,10,-6
1558435531046354,3,6,25,11,-1,-4,-15,0
1558435531046354,-6,-8,-18,6,-2,-10,-14,-11
1558435531047349,4,9,4,-1,-3,3,6,0
1558435531047349,-3,5,4,4,-1,-7,-5,0
1558435531060318,-7,-20,-8,-3,-13,-16,-19,-9
1558435531060318,-5,-14,-5,2,0,-3,-19,-4
1558435531067296,0,-5,-19,-12,0,6,-1,-2
1558435531067296,8,8,-6,-26,-3,-2,0,9
1558435531083255,0,2,8,4,0,-3,7,0
1558435531083255,2,-3,6,17,4,2,0,-1
1558435531090239,1,14,9,-8,-3,1,-7,1
1558435531090239,1,-7,1,7,3,1,14,3
1558435531106194,2,4,-16,-53,-14,5,16,12
1558435531106194,4,8,5,12,13,-1,-4,0
1558435531108185,1,-7,1,-3,-5,-3,20,8
1558435531108185,-13,-4,-1,-8,-11,-10,-21,-18
1558435531121150,6,4,21,20,14,1,-6,1
1558435531121150,1,6,-1,-4,-5,-6,21,7
1558435531135111,10,6,-9,0,11,11,16,6
1558435531135111,0,9,3,1,-6,-6,-5,2
1558435531143096,-7,-18,-12,-18,-1,1,6,3
1558435531143096,0,-7,4,14,11,13,2,2
1558435531150078,-3,-10,-14,2,3,2,-14,-6
1558435531150078,-2,5,-9,8,1,-4,-2,1
1558435531166033,-1,0,-1,22,3,-4,0,0
1558435531166033,-1,6,-12,-23,-10,-8,12,-3
1558435531168029,-9,-17,-4,-2,-5,-2,-1,-6
1558435531168029,1,1,1,-17,-7,-5,-10,-1
1558435531181094,-3,-3,-8,-5,-1,-2,-3,1
1558435531181094,8,8,0,-12,-1,3,-2,3
1558435531188030,-2,8,15,27,11,5,0,-5
1558435531188030,-2,-9,-11,-7,0,0,0,-4
1558435531202933,5,5,3,19,9,2,0,-5
1558435531202933,-10,-6,-25,-17,-10,-7,-10,-7
1558435531209922,-4,0,-4,-27,-6,5,4,-1
1558435531209922,2,9,28,34,17,8,-1,-3
1558435531226868,-14,-24,-35,-16,-13,-16,-11,-10
1558435531226868,-2,-4,16,14,1,2,-9,-7
1558435531227866,2,-1,-12,8,6,-7,2,5
1558435531227866,0,-8,-19,-39,-17,-4,-5,2
1558435531240831,10,22,19,-3,1,6,14,7
1558435531240831,1,-2,-5,3,-3,-5,-3,-1
1558435531247811,-8,-2,11,-18,-13,-15,-15,-2
1558435531247811,3,8,6,6,0,3,-1,4
1558435531262770,-6,1,1,17,5,6,-1,-6
1558435531262770,4,-8,-16,-18,0,-5,-24,7
1558435531269751,14,16,24,16,9,9,22,8
1558435531269751,-4,0,-9,10,4,-1,-5,-2
1558435531286706,-8,-20,-7,-21,-17,-4,-5,-6
1558435531286706,-5,-12,0,27,11,4,11,0
1558435531287703,6,8,5,-13,-15,-3,-3,1
1558435531287703,-11,-13,-11,-7,1,1,8,-3
1558435531300670,3,12,-24,-16,-3,-3,-5,0
1558435531300670,-11,-18,-10,-16,-17,-6,-10,-8
1558435531307651,-1,-2,-7,6,3,1,3,0
1558435531307651,-4,-1,38,35,7,-3,-8,-3
1558435531323607,3,4,-25,-32,-6,3,-4,-2
1558435531323607,5,11,11,17,10,-1,7,7
1558435531329592,-7,-7,-29,-31,-15,-5,-1,-6
1558435531329592,-5,-8,4,-4,0,-1,3,-9
1558435531346552,7,6,-6,5,3,1,0,5
1558435531346552,12,11,10,-14,-4,2,12,3
1558435531347543,-14,2,11,27,10,-8,-25,-14
1558435531347543,-1,-7,-29,-27,-8,2,3,3
1558435531360512,-10,-19,15,17,0,-1,4,-3
1558435531360512,1,5,8,-3,3,7,3,-2
1558435531369487,5,0,0,1,-3,-2,1,1
1558435531369487,3,1,-2,-25,-9,-5,-5,5
1558435531384450,-2,1,6,21,12,1,13,4
1558435531384450,-2,0,4,10,1,-3,-2,1
1558435531390513,1,4,0,-9,-3,-4,-1,0
1558435531390513,-5,-7,5,19,-4,-7,-13,-12
1558435531405397,1,-1,8,-8,-6,3,-5,1
1558435531405397,0,9,4,-13,-5,3,11,-1
1558435531406395,-5,-6,-23,0,6,4,1,-6
1558435531406395,5,0,-3,9,6,5,13,9
1558435531428333,0,7,30,14,8,0,7,-1
1558435531428333,2,-2,-12,-6,1,8,0,-4
1558435531429335,-1,-1,-5,-5,-2,1,-8,-4
1558435531429335,0,-4,-5,-9,-8,-8,-6,-3
1558435531444290,6,11,11,7,5,4,-5,1
1558435531444290,-4,-6,-21,-56,-25,-10,6,1
1558435531450486,-2,8,30,46,18,7,-2,-11
1558435531450486,-15,-30,-77,-46,-9,6,-1,-8
1558435531465454,-8,-11,4,2,0,0,0,-12
1558435531465454,3,6,17,12,0,-10,-4,-1
1558435531466232,-3,0,-16,-13,-8,-8,-4,-2
1558435531466232,1,-8,6,30,13,9,7,3
1558435531488169,-1,-2,-3,-38,-17,-12,-15,-4
1558435531488169,1,2,1,6,3,-3,-4,-2
1558435531489166,0,-5,2,-5,-12,-11,-27,-4
1558435531489166,2,10,15,14,8,2,10,2
1558435531504127,2,2,-6,2,0,1,9,7
1558435531504127,-1,5,16,12,3,2,-10,-3
1558435531510117,-3,-13,-4,3,6,4,11,5
1558435531510117,-2,4,3,-10,-10,-9,-20,-11
1558435531525068,3,-2,-10,-3,-7,-8,4,8
1558435531525068,2,5,0,44,16,7,8,6
1558435531532052,1,12,9,-12,2,5,5,3
1558435531532052,-2,-5,10,19,1,-7,-8,-5
1558435531548009,3,-5,1,-9,2,8,-1,0
1558435531548009,-4,-6,0,15,11,9,22,7
1558435531549004,-4,-7,-4,-7,-8,-9,-3,-6
1558435531549004,6,25,31,20,10,4,5,-2
1558435531564079,-1,2,-10,-31,-7,1,5,3
1558435531564079,-5,-12,4,-1,-3,-5,-10,-3
1558435531569948,-3,-6,-3,49,17,-4,-1,2
1558435531569948,3,1,3,-29,-15,-4,1,1
1558435531585230,-5,-4,7,24,0,-8,-17,-15
1558435531585230,-2,2,-2,-5,-10,-2,-20,-2
1558435531592890,-4,-7,-21,-25,-8,-2,8,1
1558435531592890,3,6,-5,-3,6,11,1,6
1558435531607875,-1,3,2,5,0,-5,3,3
1558435531607875,-2,-3,4,0,-1,-6,-1,-5
1558435531608845,1,-2,2,5,-6,-7,0,-2
1558435531608845,1,0,-14,-27,-12,-7,-14,4
1558435531623804,-2,-2,1,25,8,6,1,-5
1558435531623804,-2,1,-8,-4,-8,-6,-5,-10
1558435531629788,1,-3,2,-20,0,7,-3,2
1558435531629788,4,5,-6,-7,-2,-7,7,5
1558435531646743,1,2,12,1,0,0,0,0
1558435531646743,-9,-4,-8,5,1,-2,-8,-9
1558435531652730,-4,-20,-11,-9,-3,-2,1,1
1558435531652730,-5,0,26,16,1,5,-6,-4
1558435531668147,0,0,-20,1,-6,-4,-6,-4
1558435531668147,3,4,2,-17,-1,6,6,5
1558435531668686,2,2,11,17,13,17,18,1
1558435531668686,-1,1,5,-14,-10,-3,-4,5
1558435531684114,-2,-2,-15,-16,-8,-7,0,1
1558435531684114,1,-2,2,-5,-4,2,10,5
1558435531690048,-1,2,-3,-4,-1,-2,1,-2
1558435531690048,2,0,0,6,5,-1,-6,-2
1558435531705958,-5,-2,-3,-1,-9,-4,-3,-1
1558435531705958,4,4,1,7,6,3,-4,3
1558435531712933,1,2,13,-24,-4,-1,6,2
1558435531712933,-8,-14,-14,-2,-8,-12,-6,-8
1558435531728526,-3,-11,-36,-16,0,3,-9,-2
1558435531728526,-4,0,22,-5,-11,-5,1,-5
1558435531728526,0,-1,-5,4,-4,2,-2,1
1558435531728526,3,3,6,-9,5,8,23,8
1558435531743805,-4,-2,12,36,9,-4,-12,-3
1558435531743805,0,0,-14,-7,9,3,7,-2
1558435531750786,2,0,-19,-6,-10,-9,-11,-1
1558435531750786,-7,-5,10,0,-2,-2,1,-6
1558435531765671,3,6,5,3,1,0,7,2
1558435531765671,-5,-11,-3,18,0,-3,-9,-3
1558435531772708,-5,-2,-17,-9,-3,-2,-2,-5
1558435531772708,4,9,6,2,-2,1,10,6
1558435531788662,1,6,16,2,7,1,3,2
1558435531788662,-2,-2,-16,-27,-12,-5,-5,-3
1558435531789362,-2,-8,-26,-14,-5,-6,-3,1
1558435531789362,4,-1,-6,1,4,4,-7,-3
1558435531804325,-7,-1,22,43,10,2,11,-4
1558435531804325,-9,-3,-8,-20,-9,-17,-13,-10
1558435531810307,-6,-3,7,8,-4,-3,-12,-10
1558435531810307,4,-8,-2,18,15,8,9,6
1558435531825537,5,9,2,-9,-2,8,0,2
1558435531825537,-1,-8,-23,8,3,0,-1,2
1558435531833307,0,6,21,1,0,-5,6,3
1558435531833307,-7,-9,-10,19,-2,-14,-7,-11
1558435531856522,9,9,5,-29,0,5,4,4
1558435531856522,2,-1,-2,-7,0,2,-2,0
1558435531856522,-4,2,-3,4,1,-2,-22,-7
1558435531856522,-2,-7,-19,-11,-15,-2,10,2
1558435531864244,-3,-6,-20,-18,-12,-8,-7,-6
1558435531864244,2,5,18,4,5,2,3,0
1558435531878204,2,-7,-11,1,0,-3,-2,0
1558435531878204,-6,-1,15,5,-1,-9,-9,-7
1558435531885185,-2,3,9,11,3,-1,-10,0
1558435531885185,-3,0,-7,-3,-4,-1,3,2
1558435531901372,1,4,23,-7,1,9,21,1
1558435531901372,4,2,-21,17,6,-6,-8,3
1558435531908355,-3,-8,-3,-14,-13,-5,3,-5
1558435531908355,-1,4,9,21,7,4,1,-2
1558435531909125,-1,-2,-13,-27,-12,-5,-8,-1
1558435531909125,-1,2,11,5,5,6,-6,0
1558435531924080,1,4,8,-1,1,-1,-2,-2
1558435531924080,-1,-10,-24,-11,-4,4,2,2
1558435531930299,-4,-2,5,13,-9,-6,-4,-6
1558435531930299,-5,-4,-9,-16,-10,-8,-7,-7
1558435531945057,5,11,4,0,13,11,7,6
1558435531945057,0,-2,12,9,10,2,4,3
1558435531952008,-1,-6,-2,10,6,-4,-2,2
1558435531952008,-1,3,-8,-24,-13,-7,3,0
1558435531968299,-11,-19,-18,-24,-16,-11,-10,-6
1558435531968299,4,3,10,18,4,7,1,-1
1558435531968961,3,1,-9,-6,0,-2,-10,8
1558435531968961,1,2,2,8,8,7,8,1
1558435531983919,0,11,2,-8,1,-4,1,3
1558435531983919,-5,-10,4,-12,-11,-5,1,-2
1558435531990223,-1,-2,-4,-2,-1,-4,0,1
1558435531990223,-3,-2,1,-11,1,8,-7,-5
1558435532005227,2,-3,-1,7,-3,3,1,2
1558435532005227,4,3,0,-4,-1,-5,0,2
1558435532013186,2,7,3,6,3,9,11,4
1558435532013186,-2,0,9,3,3,-4,-4,-1
1558435532028827,0,-3,0,-7,0,3,3,-2
1558435532028827,0,-2,-3,12,-1,-9,-5,-3
1558435532028827,0,3,10,5,-4,0,3,0
1558435532028827,1,4,15,5,5,5,6,2
1558435532043762,-3,-9,-2,-9,-13,-12,-6,-3
1558435532043762,-2,2,-9,-4,1,-3,-10,-5
1558435532050742,2,-4,-12,-4,8,11,4,-1
1558435532050742,3,12,16,10,9,1,5,3
1558435532065819,-4,-2,-6,1,-6,-6,-6,-2
1558435532065819,-9,-13,-2,-7,-7,-10,-3,-4
1558435532073017,-3,-2,11,5,-3,-8,-13,-6
1558435532073017,-4,-13,-23,-5,-3,-2,-6,-1
1558435532088955,1,3,13,15,3,-1,3,4
1558435532088955,0,4,2,-3,6,5,6,-4
1558435532088955,0,2,3,10,16,7,4,4
1558435532088955,-3,-3,-6,-5,-2,1,2,-3
1558435532103598,-3,-3,-8,-10,-2,1,-9,-3
1558435532103598,4,12,36,24,6,5,6,1
1558435532110881,0,-4,-4,-4,-5,-6,4,-2
1558435532110881,0,-3,-22,-24,-13,-3,-8,-2
1558435532124545,-2,-4,3,12,4,-1,-7,0
1558435532124545,0,4,15,-4,4,4,-8,-3
1558435532132854,5,10,16,7,6,-3,6,4
1558435532132854,-1,-1,-7,-3,0,1,3,3
1558435532148478,-1,-7,-18,-16,-3,-4,-1,-3
1558435532148478,0,-1,-2,-9,-10,-5,-11,-4
1558435532148478,-1,-7,-21,-17,-12,-5,-5,0
1558435532148478,3,2,-8,0,-1,-2,5,3
1558435532163788,3,8,7,18,10,8,16,7
1558435532163788,-11,-12,-20,-17,-7,-5,-4,-6
1558435532170433,-12,-19,-8,-13,-15,-6,-15,-12
1558435532170433,5,4,19,14,3,-4,-1,0
1558435532185379,0,1,10,4,-1,1,0,1
1558435532185379,7,8,-6,-11,-1,5,5,8
1558435532192717,-3,0,-4,7,-5,-8,-12,-11
1558435532192717,-10,-7,-9,-8,-7,-4,-7,-8
1558435532208318,0,-4,-10,-7,3,5,12,4
1558435532208318,0,-4,-22,-3,1,5,6,-3
1558435532208318,-2,3,15,4,2,1,5,2
1558435532208318,-2,-9,-20,-11,-7,-7,-9,-2
1558435532224276,1,3,3,-7,-5,-5,-1,-1
1558435532224276,2,4,-4,-26,3,4,-1,1
1558435532230259,-2,-3,3,-3,-7,-2,-5,-1
1558435532230259,-2,0,5,5,1,-1,5,-1
1558435532245258,-1,0,10,9,5,0,-3,-3
1558435532245258,-1,-5,-4,5,0,1,1,-2
1558435532252201,7,10,1,7,5,-3,-7,4
1558435532252201,-3,-6,-22,-6,-4,-3,4,0
1558435532268158,-3,2,12,-2,0,2,-4,-3
1558435532268158,3,4,-1,7,5,1,2,2
1558435532269169,0,-5,-3,9,-6,-6,-6,1
1558435532269169,3,2,22,11,6,1,6,4
1558435532284116,0,0,-4,-19,0,4,2,-2
1558435532284116,-4,-11,-19,-6,-10,-8,-2,1
1558435532290102,0,10,14,-5,11,18,13,2
1558435532290102,2,-1,-1,14,7,7,-1,3
1558435532305096,2,8,5,-8,-14,-12,-6,-1
1558435532305096,-12,-18,-6,0,-4,-6,-4,-5
1558435532312040,-4,-9,-13,-3,-2,-4,-7,3
1558435532312040,-6,-6,-8,-8,-2,0,-2,-5
1558435532327999,-5,1,-9,-20,-17,-14,-10,-11
1558435532327999,0,3,13,12,-4,-6,-2,-1
1558435532329033,-2,-2,-5,2,8,9,16,0
1558435532329033,3,3,11,1,4,4,1,2
1558435532343956,-2,-7,-6,1,-5,-3,2,3
1558435532343956,-3,-1,-11,-9,-10,-6,-7,-12
1558435532349997,0,0,0,7,12,2,0,0
1558435532349997,-1,-1,2,-2,-4,-2,0,0
1558435532364900,-3,-16,-50,-16,5,6,7,-1
1558435532364900,3,7,11,3,1,0,-5,2
1558435532372878,2,0,4,-10,-5,-2,0,-3
1558435532372878,-5,-5,2,4,1,-1,-16,-2
1558435532387840,1,5,-6,19,6,0,-2,2
1558435532387840,-3,3,-4,-3,1,1,-1,-5
1558435532388836,-5,-13,-17,-3,-3,-7,-3,-1
1558435532388836,4,10,25,4,5,7,5,2
1558435532403801,-2,-7,5,3,-6,-1,2,-1
1558435532403801,3,8,9,5,7,1,3,2
1558435532409781,1,4,-25,-22,-13,-3,0,-1
1558435532409781,-2,-5,-8,-7,-7,-5,-18,-5
1558435532424739,0,-2,10,16,9,7,6,3
1558435532424739,3,4,12,2,2,-3,2,4
1558435532432717,-5,-3,15,4,-3,-3,-9,-9
1558435532432717,4,13,15,6,3,0,6,3
1558435532447721,-5,-10,-17,-23,-17,-5,-25,-4
1558435532447721,-2,-12,-22,-3,-7,-2,9,9
1558435532448676,-4,-2,-5,-2,-1,-2,3,-9
1558435532448676,-3,-3,-1,-7,-8,-7,-1,-6
1558435532463635,1,9,20,18,9,0,-4,-2
1558435532463635,0,-3,-3,-4,3,9,-4,-2
1558435532469620,-3,-5,-5,-20,-11,-1,-1,0
1558435532469620,-5,-5,0,26,-2,-13,-7,-3
1558435532484579,0,5,7,8,12,3,10,-1
1558435532484579,-5,-11,-22,-6,5,7,-2,-2
1558435532492558,3,7,11,6,2,0,6,3
1558435532492558,-5,-9,-10,-15,-10,-4,-6,-3
1558435532508515,1,3,3,-10,-5,0,9,-2
1558435532508515,1,10,14,12,5,-4,-10,-2
1558435532508515,-1,0,22,5,4,2,-4,-2
1558435532508515,2,-2,-6,-19,-9,-3,0,4
1558435532523475,-5,-14,-10,22,7,2,-8,-5
1558435532523475,1,5,4,-2,8,11,5,-1
1558435532529459,-3,0,-1,-5,-14,-5,-3,-4
1558435532529459,0,3,2,-29,-6,-3,1,-2
1558435532545417,-3,-3,-1,11,-1,-6,-2,3
1558435532545417,-2,-10,-3,-8,-10,-11,-2,0
1558435532552407,1,-4,-20,-5,5,4,1,7
1558435532552407,-1,-1,-10,0,7,4,3,-3
1558435532567360,-4,-5,-3,-7,-9,-9,-6,-8
1558435532567360,3,6,14,-13,-8,-5,-4,0
1558435532575337,6,4,-17,-5,1,1,8,6
1558435532575337,-4,-4,0,24,5,-2,-4,-5
1558435532584312,3,9,8,-4,8,4,0,1
1558435532584312,-6,-9,6,4,-7,-6,-6,-5
1558435532590298,-2,6,2,4,1,-2,-10,-4
1558435532590298,1,-2,-6,-12,-5,4,8,4
1558435532605256,3,-1,2,2,4,4,5,2
1558435532605256,-1,-2,1,-5,-3,-1,2,-1
1558435532612238,4,6,14,10,6,1,0,4
1558435532612238,-1,-3,-18,2,4,3,1,1
1558435532627197,-5,-3,7,-10,-4,-2,-1,0
1558435532627197,2,0,-10,-8,-5,-6,-1,-1
1558435532635176,-2,-1,3,3,-3,-3,-1,-2
1558435532635176,2,9,7,4,4,2,-7,3
1558435532644152,-4,-2,-4,-6,-8,4,6,-5
1558435532644152,3,1,11,21,8,6,2,6
1558435532650136,-2,4,-5,-5,6,5,0,-3
1558435532650136,-4,-8,2,3,-6,-6,-5,-3
1558435532665096,1,3,-18,-21,-4,-4,-4,3
1558435532665096,-4,-6,3,10,-4,-3,-8,-5
1558435532672079,1,3,8,12,1,-7,-6,0
1558435532672079,5,-3,-14,-7,2,4,9,3
1558435532687037,0,0,-1,4,8,5,-2,-1
1558435532687037,-2,-5,-11,14,9,8,2,2
1558435532695016,1,9,10,-24,-7,4,-5,-2
1558435532695016,-7,-6,0,9,-1,-5,8,-2
1558435532703992,-4,-6,-8,-9,-14,-5,-10,-1
1558435532703992,1,-2,-9,0,0,-4,0,0
1558435532709976,-5,-18,-7,6,-1,2,-1,0
1558435532709976,0,4,9,-21,-11,-11,-2,-6
1558435532724936,-1,-4,-21,1,6,5,1,2
1558435532724936,-3,0,-4,7,5,0,5,-4
1558435532731917,-2,-3,-5,-14,-8,-3,5,-3
1558435532731917,-1,-2,15,26,8,0,-10,-6
1558435532747875,3,2,-9,-23,-5,-5,1,0
1558435532747875,3,10,27,9,-7,-6,-9,-1
1558435532754856,-4,1,-1,-3,-7,-11,1,-1
1558435532754856,0,-3,-6,6,16,7,3,-1
1558435532770814,3,2,17,-13,-12,-5,2,-1
1558435532770814,2,0,-12,-20,-2,9,6,1
1558435532770814,1,-4,-1,8,2,-2,3,1
1558435532770814,-1,11,9,6,0,-4,-14,-6
1558435532784776,0,1,10,16,5,8,7,-5
1558435532784776,0,1,-3,-16,-5,-1,1,0
1558435532792755,-3,-15,-12,14,-3,-3,-6,-4
1558435532792755,-2,-7,-30,-30,-10,-3,-5,1
1558435532807714,-2,0,-6,3,1,0,-9,-2
1558435532807714,3,6,8,4,0,0,9,4
1558435532814696,2,4,2,7,12,4,7,8
1558435532814696,-2,3,14,-6,-1,3,-2,0
1558435532830653,0,-3,-12,5,-10,-15,-12,-3
1558435532830653,-4,8,10,2,7,12,4,2
1558435532831651,-5,-10,-2,-3,9,0,-1,-3
1558435532831651,-3,-5,-7,-30,-16,-7,2,-3
1558435532846611,-1,-1,5,1,0,5,-2,3
1558435532846611,-2,0,-9,-10,-3,-3,-4,-5
1558435532852595,-5,-3,5,13,-1,1,2,-2
1558435532852595,0,3,10,4,2,-1,2,0
1558435532867554,-2,-2,10,8,0,-5,2,-6
1558435532867554,0,1,-6,0,-2,0,-12,-3
1558435532874536,-1,2,9,8,0,-3,-3,-4
1558435532874536,3,-3,-3,2,-1,-2,1,4
1558435532890494,0,4,-1,-8,0,-5,-12,-3
1558435532890494,-4,-10,-6,6,-4,-7,0,0
1558435532891491,-3,1,-20,-14,-4,4,2,-6
1558435532891491,0,-2,-8,4,-1,0,-1,-3
1558435532906450,-1,-5,-5,3,5,2,6,7
1558435532906450,-5,-7,-7,-17,-11,-4,-2,-3
1558435532912434,6,12,24,17,5,5,0,0
1558435532912434,0,-7,-22,-21,-11,-5,-5,-1
1558435532927395,-1,-4,-15,-3,2,2,3,3
1558435532927395,2,5,8,2,0,-3,6,0
1558435532935375,-8,-17,-17,-17,-8,-7,0,-5
1558435532935375,0,6,14,20,7,9,6,5
1558435532950333,-1,2,21,-3,-10,-8,4,-2
1558435532950333,-6,-15,-23,-12,-11,-6,-10,-7
1558435532951330,3,3,-1,-3,-2,-9,-17,-1
1558435532951330,3,3,-4,-14,-7,2,11,4
1558435532966290,2,3,13,9,7,5,6,1
1558435532966290,1,-2,-5,-8,-4,-3,-13,-5
1558435532972277,0,-3,-7,6,-2,0,3,-1
1558435532972277,-1,-2,10,18,8,3,-4,-2
1558435532987236,0,-2,-1,-7,-2,-1,3,0
1558435532987236,-3,-3,-23,-16,-6,-10,-6,0
1558435532995213,1,0,1,-7,-8,2,5,0
1558435532995213,-3,-5,10,15,7,4,3,-1
1558435533010175,-1,5,-29,-5,4,-3,-1,1
1558435533010175,-7,-13,3,-10,-8,-7,5,-2
1558435533011170,-3,-1,-7,-6,-1,-1,-11,-2
1558435533011170,-3,-5,-1,4,0,-3,-8,-3
1558435533026134,-4,-5,8,13,3,3,0,-6
1558435533026134,0,1,1,-17,-10,-5,-1,0
1558435533032115,4,7,-5,-3,5,-1,9,4
1558435533032115,5,5,6,4,17,15,5,1
1558435533047075,-6,-4,10,-6,-8,0,-12,-7
1558435533047075,-2,6,1,26,14,12,8,-3
1558435533055058,-1,-5,-9,-12,-11,-6,-3,-2
1558435533055058,1,-4,-5,1,-1,-5,-4,0
1558435533071010,-3,-5,7,6,3,-6,3,1
1558435533071010,0,1,-1,2,6,6,3,2
1558435533071010,-1,4,10,3,3,5,2,5
1558435533071010,-3,1,-3,5,-2,-1,-1,-4
1558435533085973,0,0,-1,6,-3,-4,-12,1
1558435533085973,-2,-7,-3,-4,-4,-5,0,-1
1558435533092956,-4,-2,-2,2,1,1,5,2
1558435533092956,-1,2,-1,11,-3,-5,-15,-3
1558435533108160,0,-5,-1,-12,-3,1,12,4
1558435533108160,2,2,-11,0,3,0,-1,-2
1558435533115118,4,3,24,15,7,-5,-5,3
1558435533115118,-9,-12,-22,-21,-10,-6,-1,-3
1558435533131256,2,5,0,16,9,5,-1,-2
1558435533131256,-1,-4,-5,-8,-1,5,1,4
1558435533131256,3,4,12,5,-1,-2,9,4
1558435533131256,-3,-1,6,3,2,-1,-1,-3
1558435533146029,-7,-6,5,7,-8,-9,-5,-10
1558435533146029,2,3,-5,-16,-14,-7,-12,-1
1558435533152012,1,-4,-16,1,9,3,2,1
1558435533152012,-2,2,18,11,1,1,7,1
1558435533166970,-1,4,-8,-11,-6,2,4,-2
1558435533166970,-1,-4,5,3,1,-6,-6,-3
1558435533174949,2,1,-6,-12,-10,3,-11,-3
1558435533174949,-1,-4,-1,-1,-2,-8,1,-5
1558435533190907,2,4,-2,-15,-2,1,0,3
1558435533190907,-2,-1,7,22,5,-2,0,1
1558435533190907,3,5,-14,-6,0,6,4,-2
1558435533190907,-3,-9,-1,-1,-6,-6,-2,-1
1558435533205896,-4,-3,5,6,2,2,-5,-7
1558435533205896,3,4,-3,-1,11,5,1,0
1558435533212848,-6,-3,-5,-4,-2,-4,0,0
1558435533212848,0,3,-4,-11,-7,-7,-13,0
1558435533227807,0,0,-10,-8,-1,-3,4,5
1558435533227807,-4,-4,23,29,-3,-7,-7,-6
1558435533234788,-4,-2,-1,4,-2,-2,-1,1
1558435533234788,0,0,-18,-17,-6,-4,-11,-5
1558435533250780,1,-2,-7,-2,11,8,11,5
1558435533250780,3,8,4,8,6,0,7,6
1558435533251743,-2,-5,10,-21,-13,3,1,-2
1558435533251743,2,3,5,10,5,7,5,1
1558435533266702,-4,-5,-13,-12,-10,-8,-17,-8
1558435533266702,0,5,-9,2,1,3,5,2
1558435533272726,4,4,5,0,9,-1,6,3
1558435533272726,-5,-4,-3,-17,-12,-4,1,-3
1558435533287648,2,1,1,2,3,7,10,5
1558435533287648,-2,-2,3,-2,-8,-9,-13,-6
1558435533294627,-3,-6,1,2,5,5,13,-2
1558435533294627,0,0,-9,-11,-2,3,9,2
1558435533310620,2,2,11,16,2,-3,-6,0
1558435533310620,2,-1,-9,-4,-1,4,5,-1
1558435533311618,-2,0,-1,13,5,-2,-5,-2
1558435533311618,-4,-5,5,-3,7,3,1,-4
1558435533326544,-2,-1,-18,-32,-14,-5,-3,2
1558435533326544,-7,-9,11,23,9,1,-8,-7
1558435533332528,-4,-3,-2,-2,-11,-5,-7,-7
1558435533332528,1,1,-4,1,-7,-5,-7,2
1558435533347487,2,5,11,3,1,0,-3,-5
1558435533347487,-2,-6,-8,-17,-7,-3,4,2
1558435533354468,-3,-2,-1,-5,-4,1,-4,-3
1558435533354468,-3,-2,-12,-6,-7,-12,-9,-8
1558435533370425,4,-3,-1,15,2,-3,-5,1
1558435533370425,-1,-1,1,-22,-1,4,-4,-2
1558435533371424,2,8,-1,-6,6,4,4,1
1558435533371424,-4,-11,6,21,-1,-4,-6,-5
1558435533386383,0,4,8,-2,0,-4,4,2
1558435533386383,-2,-2,11,26,1,-10,-2,0
1558435533392405,-1,-5,-16,-26,-13,-4,-11,-4
1558435533392405,2,5,0,1,2,5,9,5
1558435533407353,-1,0,-3,7,3,1,-5,-5
1558435533407353,2,0,7,0,0,0,6,3
1558435533423319,-2,-4,8,0,-3,-4,-4,-1
1558435533423319,4,2,-9,2,6,6,7,4
1558435533430265,-4,-8,8,8,-3,-4,-8,-2
1558435533430265,6,9,-8,-18,-6,0,13,5
1558435533431262,-3,-5,4,8,7,2,-5,-1
1558435533431262,2,6,1,-9,-9,-6,-16,-1
1558435533446224,1,-1,1,5,6,8,13,5
1558435533446224,0,3,-1,7,8,2,-5,-1
1558435533452210,-3,0,-8,0,-3,0,1,-5
1558435533452210,-5,-5,13,3,1,-2,-1,2
1558435533468208,1,2,1,11,6,4,2,-2
1558435533468208,0,-4,-5,-11,-13,-6,-2,0
1558435533475350,0,-2,-16,-2,6,4,4,-1
1558435533475350,1,6,3,1,2,4,0,1
1558435533490406,-2,4,12,4,4,-4,3,0
1558435533490406,-4,-6,-14,-24,-9,-2,-4,-4
1558435533498150,-2,-6,-19,-26,-10,-4,-9,-5
1558435533498150,3,3,16,27,10,7,6,-1
1558435533506359,-6,-12,-39,-25,-4,2,7,-1
1558435533506359,-3,3,10,-10,-3,-1,-4,-6
1558435533513148,-2,-5,8,16,-10,-11,-9,0
1558435533513148,1,-1,-2,-11,1,1,6,4
1558435533528319,-1,-1,4,20,5,-1,-3,-1
1558435533528319,-4,1,13,-11,-2,-3,3,-4
1558435533543229,0,-2,-9,-13,-8,-9,-7,0
1558435533543229,-3,-8,-7,-3,-9,-4,-1,-8
1558435533549947,-3,-6,-7,2,-3,-2,-9,-5
1558435533549947,4,2,6,14,7,5,5,5
1558435533558243,-1,3,6,-4,6,2,1,0
1558435533558243,0,4,-23,-7,-9,-11,0,4
1558435533566353,-4,-5,-8,-11,-6,-9,-8,-8
1558435533566353,-5,-12,-7,-3,6,9,7,1
1558435533572342,2,0,12,9,-5,-7,1,2
1558435533572342,-3,-2,-4,-1,-1,-2,-7,-7
1558435533588301,-2,-1,-7,-23,-12,-5,-2,-3
1558435533588301,-1,-2,-6,10,-2,-3,-4,0
1558435533595640,1,-1,4,-2,1,1,13,-1
1558435533595640,-3,-5,-7,-15,4,5,-3,-1
1558435533610452,-1,-1,7,12,-4,-5,5,2
1558435533610452,-1,2,4,31,11,-1,-5,-5
1558435533618256,-5,-5,-6,-8,-13,-6,-12,-8
1558435533618256,1,-2,8,-14,-9,-6,12,2
1558435533627196,4,-2,-15,3,17,8,10,4
1558435533627196,1,3,-5,-1,-2,-2,-2,-2
1558435533633241,-1,3,21,8,4,4,-2,0
1558435533633241,-7,-9,-36,-12,-3,0,-5,-5
1558435533648267,-5,-2,14,-1,-13,-4,-12,-2
1558435533648267,0,-2,-4,-6,-4,-3,1,1
1558435533655444,-1,3,1,7,12,3,-3,-5
1558435533655444,-1,4,16,5,3,7,5,1
1558435533670084,0,2,-6,-4,-2,2,-6,1
1558435533670084,-3,-3,1,-12,-9,-10,-12,-4
1558435533678241,-7,-8,-2,13,2,-2,-6,-9
1558435533678241,4,-3,-8,-13,1,4,2,6
1558435533694016,7,9,24,15,1,2,-2,7
1558435533694016,0,1,-15,7,15,12,20,5
1558435533694016,2,2,11,6,3,4,7,5
1558435533694016,1,1,25,15,5,-3,-4,2
1558435533707277,4,4,-1,-5,-9,-2,1,-1
1558435533707277,0,5,3,0,2,2,-11,-2
1558435533714959,-2,-13,-9,-7,-4,-2,7,2
1558435533714959,3,6,1,-12,4,8,7,2
1558435533729918,-6,-6,-12,-16,-8,-12,-10,-7
1558435533729918,3,3,15,13,2,-5,1,1
1558435533737897,-6,-6,-35,-32,-10,-5,-4,-3
1558435533737897,-3,-5,7,19,0,-5,-7,-10
1558435533752858,-3,-6,-9,-15,-4,-3,-7,-3
1558435533752858,-1,-7,-6,14,0,0,6,5
1558435533753854,-1,-1,-5,13,4,-1,-1,-4
1558435533753854,-1,-2,-13,-3,-4,-3,-3,-1
1558435533767821,3,7,16,8,4,3,-1,-3
1558435533767821,-8,-13,-19,-26,-15,-2,-6,-5
1558435533774799,2,11,8,-6,-1,0,-2,2
1558435533774799,-4,-10,-6,5,0,-8,-11,-1
1558435533789760,-3,-2,-8,-8,6,12,19,3
1558435533789760,7,6,5,4,6,1,3,4
1558435533797737,-2,2,6,-2,-3,-1,1,-2
1558435533797737,-1,-3,-7,1,-2,-3,-2,-2
1558435533812726,1,0,3,-3,-5,-2,-12,-1
1558435533812726,-1,-6,-16,-16,1,-1,2,-6
1558435533813694,2,1,1,14,1,-8,-6,-1
1558435533813694,2,5,10,5,8,12,11,1
1558435533827663,-6,-8,-17,-3,-4,-1,6,-4
1558435533827663,-4,-2,-5,-8,-9,-2,-7,-6
1558435533834793,-3,-4,-12,-10,-5,-3,-9,-6
1558435533834793,-1,2,2,5,2,-1,1,1
1558435533849793,2,5,0,-4,5,3,-3,5
1558435533849793,-6,-6,14,17,-4,-5,-5,-6
1558435533857619,1,0,-3,-11,-9,-6,0,2
1558435533857619,0,0,-11,-3,-3,-4,-5,-2
1558435533873492,-3,-2,0,-14,1,0,6,0
1558435533873492,1,3,10,-5,-6,-4,-6,-2
1558435533873492,2,0,18,36,13,-3,-2,1
1558435533873492,2,3,0,-28,-11,-4,-1,1
1558435533887449,2,2,-15,-10,0,2,2,4
1558435533887449,-5,-6,16,31,6,0,2,-2
1558435533894421,-2,-3,-3,-13,-3,-4,-7,-2
1558435533894421,1,4,-3,6,-1,-2,-2,1
1558435533910379,-6,-10,-2,9,1,-3,-6,-3
1558435533910379,-2,3,-10,-6,-3,-1,3,-3
1558435533917383,4,5,0,-8,-5,4,9,4
1558435533917383,4,2,7,4,6,6,2,2
1558435533933319,-3,-7,-4,12,0,-2,-5,-6
1558435533933319,-2,3,-9,-1,-2,-5,-7,-4
1558435533934281,-1,-5,-3,-11,-3,-1,-5,0
1558435533934281,-2,0,-16,-6,-6,-5,8,2
1558435533947281,-2,0,2,-2,-5,-2,-3,-5
1558435533947281,1,-3,5,11,3,-1,0,5
1558435533955257,-4,-5,-16,-6,10,10,4,1
1558435533955257,-2,4,10,16,1,-3,1,-4
1558435533970218,-2,-1,-3,-10,-7,0,0,0
1558435533970218,0,0,2,-5,-2,-1,6,0
1558435533985148,3,-3,-8,-12,-10,-2,4,4
1558435533985148,-2,-5,12,18,5,0,-6,-5
1558435533993159,1,8,13,1,9,5,6,-1
1558435533993159,-3,-9,-21,-15,1,0,-3,2
1558435533994152,1,9,28,10,-3,-1,-1,-4
1558435533994152,-4,-15,-23,3,-9,-12,-7,-5
1558435534007117,0,3,-2,-18,-1,-2,-3,-1
1558435534007117,0,-1,9,23,0,-6,-5,1
1558435534015102,-4,1,-11,9,4,1,5,-2
1558435534015102,-1,0,-3,-18,-7,2,-1,2
1558435534030028,-2,-4,4,7,3,1,-8,-7
1558435534030028,0,-2,4,-4,-1,-1,-1,0
1558435534037007,4,1,-9,-5,1,1,1,-1
1558435534037007,-3,-1,4,-4,-5,-2,-3,-5
1558435534052966,-3,-8,5,18,2,-8,5,4
1558435534052966,1,6,-24,-16,-1,6,5,1
1558435534053963,1,-6,7,10,7,-2,-13,-2
1558435534053963,3,4,1,-12,-6,3,5,2
1558435534067964,-2,-8,-5,-8,-4,0,1,-2
1558435534067964,4,12,9,-4,4,4,-4,2
1558435534074965,-8,-8,-13,10,-1,-5,-2,-4
1558435534074965,-4,-3,-12,-6,1,3,-8,-3
1558435534089931,4,12,11,-10,-4,-1,-3,3
1558435534089931,-3,-6,-13,-10,-8,-8,-4,-3
1558435534097877,0,2,9,6,2,2,3,0
1558435534097877,0,8,27,14,13,8,0,1
1558435534112871,-2,-12,-38,-8,-10,-4,-4,-4
1558435534112871,-1,-5,2,-8,-1,-3,-3,-2
1558435534113803,3,5,14,-1,2,5,-1,6
1558435534113803,-1,-1,-6,1,-3,-5,-3,-4
1558435534127801,-3,-7,-2,-3,6,6,13,3
1558435534127801,-2,2,3,-3,-5,-3,-3,-3
1558435534134748,3,7,2,4,2,0,6,2
1558435534134748,-2,-4,0,-27,-9,-6,-4,0
1558435534149739,-2,-6,-4,-3,-11,-15,-10,-2
1558435534149739,4,2,5,12,13,18,7,2
1558435534157718,0,0,-4,-6,-3,0,5,0
1558435534157718,0,2,9,1,-1,0,-1,-4
1558435534172646,-3,-10,-8,-5,-11,-6,-7,-2
1558435534172646,-4,-6,-4,-15,-7,-10,-5,-3
1558435534173644,-1,-2,-10,-5,-4,-5,7,0
1558435534173644,-1,0,3,-6,-2,0,3,1
1558435534187608,0,7,18,34,16,8,3,1
1558435534187608,-2,4,-2,-16,-7,2,0,0
1558435534194620,-4,-8,-11,-12,-3,-2,-6,-3
1558435534194620,-6,-11,-15,20,2,-6,-6,-8
1558435534209547,7,6,10,-12,-7,0,4,3
1558435534209547,4,1,-5,-5,7,7,5,1
1558435534217524,0,4,3,6,3,2,-5,1
1558435534217524,-3,-3,-2,12,5,-1,-2,-2
1558435534233481,-9,-12,-9,-1,-12,-15,-14,-13
1558435534233481,-4,-5,-11,4,-1,-3,-7,-5
1558435534233481,0,-3,10,-4,6,6,14,3
1558435534233481,2,4,7,1,6,2,1,3
1558435534247634,4,5,-4,0,3,2,-4,5
1558435534247634,-9,-10,-6,-14,-8,-3,6,-4
1558435534255422,-3,-2,2,16,-1,-6,-7,-6
1558435534255422,3,2,3,-5,-2,-1,0,5
1558435534270392,1,3,-12,-7,7,11,11,2
1558435534270392,-3,-9,12,10,7,0,-2,-1
1558435534285344,3,15,15,-9,-9,0,-4,-1
1558435534285344,-6,-12,2,15,2,-3,-2,-4
1558435534293375,-2,1,-19,-30,-11,-6,-1,-2
1558435534293375,1,1,-1,-5,-9,-4,-9,-3
1558435534293375,-7,-13,-8,2,-3,-4,-4,-2
1558435534293375,6,6,6,3,0,-10,-1,9
1558435534307333,-4,-5,7,-16,-5,1,-2,-4
1558435534307333,-4,-1,-2,24,6,-2,-1,-5
1558435534315296,0,0,-7,-19,-13,-6,-5,-3
1558435534315296,-4,-2,-1,0,-1,4,-1,-5
1558435534330412,1,3,12,24,3,-8,-6,1
1558435534330412,0,-3,-8,-20,-1,5,9,5
1558435534337393,-6,-12,-17,5,-1,-1,-5,-5
1558435534337393,3,5,5,-1,4,3,2,1
1558435534353162,2,-1,12,9,-7,-1,8,1
1558435534353162,2,2,-14,-11,-8,-2,-6,-4
1558435534354159,2,3,2,5,5,-3,2,2
1558435534354159,-5,-8,-10,-9,-4,4,-6,-5
1558435534367317,-4,1,-7,-15,-5,-2,-3,-2
1558435534367317,3,5,15,21,7,-4,-5,-1
1558435534375185,1,-4,-14,-22,-6,5,1,3
1558435534375185,2,2,8,6,5,-1,2,1
1558435534390111,-2,-3,2,0,-6,-2,-3,-1
1558435534390111,0,2,-7,-2,-3,-3,-2,0
1558435534397077,5,7,16,34,17,9,7,2
1558435534397077,-2,-3,-24,-26,-12,-3,-2,-4
1558435534412033,-4,0,8,19,10,2,-1,-5
1558435534412033,-1,-1,3,0,-4,-4,-5,-2
1558435534420981,-2,-6,3,9,0,-7,-4,-4
1558435534420981,4,3,3,3,1,5,4,4
1558435534426967,1,3,-10,-18,6,5,5,5
1558435534426967,-1,-3,3,-1,-5,0,0,1
1558435534434943,-6,-2,-8,-29,-15,-8,-8,-4
1558435534434943,0,0,-3,23,1,-8,-4,-1
1558435534450096,-2,-2,2,1,0,0,-1,-5
1558435534450096,1,3,4,1,6,2,-2,0
1558435534457881,1,2,1,-1,-4,-3,0,0
1558435534457881,-7,-2,-5,-18,-12,-3,-2,-2
1558435534472847,-4,-9,-3,8,5,-1,-2,1
1558435534472847,-1,2,0,-2,6,4,6,4
1558435534480823,0,-2,-7,8,1,-5,1,0
1558435534480823,-4,-2,6,14,6,-3,-11,-9
1558435534487831,2,-1,-14,-18,-7,2,-1,1
1558435534487831,-3,-1,-9,-6,-3,0,7,3
1558435534494815,-5,-1,5,-2,-2,0,-1,-7
1558435534494815,-7,-10,3,0,-8,-8,0,-5
1558435534509772,1,-3,-21,-15,-2,1,-4,-2
1558435534509772,5,3,9,20,8,-1,3,4
1558435534517755,-1,1,-1,-12,-6,0,-5,-3
1558435534517755,-2,4,-9,-19,-10,-3,1,-3
1558435534532715,-1,-1,9,16,7,0,-6,0
1558435534532715,1,2,4,0,0,2,11,4
1558435534540693,2,4,22,4,3,1,-1,5
1558435534540693,-7,-9,-22,-9,-1,0,-3,-3
1558435534548640,1,1,4,0,-6,1,1,-3
1558435534548640,-7,-7,-14,-14,-6,-2,-18,-14
1558435534554653,-2,-5,-9,-15,-5,1,4,0
1558435534554653,3,5,15,15,5,-3,2,4
1558435534569586,-3,5,6,5,-1,-4,1,-7
1558435534569586,-8,-14,4,15,0,-6,-8,-7
1558435534577562,-2,-3,-12,-2,0,0,0,-1
1558435534577562,2,5,1,2,1,-1,-1,-1
1558435534592556,1,-2,-6,-11,5,9,7,5
1558435534592556,4,5,4,-9,-9,-6,-4,1
1558435534600537,-5,-1,-2,3,8,3,7,-5
1558435534600537,-4,-15,-10,6,0,1,5,-1
1558435534615501,-3,-4,4,9,-7,-4,-3,-2
1558435534615501,-4,-6,-9,-35,-9,0,2,-2
1558435534616461,2,1,-12,6,0,-1,-3,-1
1558435534616461,-4,-5,-3,-4,4,5,-2,-2
1558435534629426,-2,-2,5,1,-1,-6,-7,-2
1558435534629426,-2,0,-3,-3,-6,-4,-2,2
1558435534637430,5,4,12,22,6,3,2,5
1558435534637430,-1,-2,-4,-4,-6,-7,-7,-6
1558435534652362,3,8,24,21,12,4,3,-1
1558435534652362,1,1,1,6,-3,2,-3,0
1558435534661510,-1,-3,-20,-18,-13,-9,-8,-2
1558435534661510,-4,-1,4,0,-2,-2,-3,1
1558435534676142,0,-2,-11,-2,4,2,7,2
1558435534676142,0,5,8,7,0,-6,0,-3
1558435534676142,0,-4,10,2,-3,-1,-1,-1
1558435534676142,3,5,-11,-25,-5,4,0,-1
1558435534690107,-2,1,15,17,11,3,-8,-2
1558435534690107,-2,-8,-35,-9,-4,-6,4,1
1558435534697088,-2,6,7,2,6,0,-5,0
1558435534697088,-1,-2,1,4,0,4,4,-6
1558435534712048,-5,-5,1,-18,-20,-12,-14,-4
1558435534712048,2,0,4,2,3,8,14,3
1558435534720055,-3,-4,-8,-3,4,8,5,1
1558435534720055,4,9,8,6,5,1,-2,2
1558435534735985,0,-4,-15,-24,-7,0,-1,-1
1558435534735985,-2,-3,3,8,-3,-9,-11,-3
1558435534735985,0,-1,-2,-6,-1,-3,-4,0
1558435534735985,7,10,9,11,14,13,11,7
1558435534750405,-1,3,3,27,-2,-8,-10,-11
1558435534750405,-6,-11,-3,-27,-11,-7,-2,-5
1558435534758269,0,-6,9,13,3,2,-1,-3
1558435534758269,-1,4,-6,-11,-2,-3,-2,3
1558435534771889,-1,-8,-9,-6,-8,-9,2,5
1558435534771889,-3,2,7,-2,-9,-8,-5,-5
1558435534779868,-3,-5,-6,20,4,1,-4,-2
1558435534779868,4,-4,3,-15,-5,-9,-1,2
1558435534795825,6,9,12,17,13,18,14,5
1558435534795825,-4,-2,1,-3,3,3,-12,-6
1558435534795825,-4,-6,0,-8,-8,-11,1,-2
1558435534795825,-1,-6,-20,-5,0,-1,1,1
1558435534817766,-1,4,-4,-20,-2,-3,2,0
1558435534817766,-4,-2,20,2,-3,4,-1,-2
1558435534818764,-1,-4,-1,2,0,-8,1,1
1558435534818764,-4,-5,-6,-9,-8,-7,-5,-7
1558435534840705,2,3,-1,-5,-2,-1,0,2
1558435534840705,2,5,5,16,7,7,0,3
1558435534841702,1,-1,-26,-20,-12,-9,1,3
1558435534841702,0,-1,28,22,13,10,6,2
1558435534855664,-3,-4,-6,-14,-1,3,2,1
1558435534855664,1,7,2,7,3,-5,1,2
1558435534856663,0,0,0,-15,-8,2,0,-3
1558435534856663,-1,-2,-20,-7,-15,-9,-15,-5
1558435534871622,1,-2,1,29,16,8,9,-1
1558435534871622,1,-3,-12,-16,-5,0,0,-3
1558435534877611,-1,1,0,6,8,9,-3,-3
1558435534877611,-6,-9,-14,-24,-19,-12,0,1
1558435534892567,-3,8,15,21,1,-4,-10,-10
1558435534892567,-7,-17,-26,-26,-3,3,6,-2
1558435534899547,-3,-4,-3,-16,-9,-4,-11,-3
1558435534899547,-1,3,11,6,0,-3,-6,-2
1558435534915518,-1,-11,-15,0,-6,-4,2,3
1558435534915518,3,4,-6,-4,5,2,0,2
1558435534916505,5,8,14,-2,4,6,6,4
1558435534916505,-3,-4,0,7,2,6,-6,0
1558435534929468,-6,-8,7,21,5,-1,7,0
1558435534929468,3,7,8,-4,1,-6,-13,1
1558435534937455,-4,-2,-11,8,1,2,5,1
1558435534937455,2,2,1,3,4,4,12,3
1558435534952413,0,-1,-6,-20,-12,-11,-4,-1
1558435534952413,0,1,-3,9,3,8,5,1
1558435534960399,-2,-2,6,13,-1,-8,-6,-4
1558435534960399,3,3,13,-1,2,1,2,7
1558435534975345,-6,-5,-10,-11,-6,-4,-9,-10
1558435534975345,0,-2,4,10,0,-7,-3,1
1558435534976343,-4,-1,9,9,-2,-3,-3,0
1558435534976343,-2,-4,-1,7,-1,-5,6,-4
1558435534990308,3,0,-8,-15,-11,-2,-3,4
1558435534990308,-2,0,-6,3,-2,3,-3,-2
1558435534997297,-1,-1,-2,-6,6,1,6,-1
1558435534997297,0,-2,2,-3,-1,-1,-6,-1
1558435535012395,-1,-4,6,11,-4,-8,-10,-1
1558435535012395,2,5,-1,0,5,7,15,2
1558435535020226,-2,-4,-15,-15,-4,0,-2,-1
1558435535020226,-1,0,-6,-6,-5,-6,-6,-3
1558435535036187,2,9,-1,-5,4,2,3,1
1558435535036187,-4,-6,5,16,5,1,-9,-6
1558435535037185,0,-2,2,-1,-7,-10,0,0
1558435535037185,-2,0,-2,4,2,1,-11,-7
1558435535050145,-1,-2,1,-13,-8,-6,-1,0
1558435535050145,-1,-1,-2,3,-4,-8,-1,1
1558435535057130,-2,-1,3,3,1,1,0,-1
1558435535057130,-3,-6,-11,-9,1,9,6,3
1558435535072086,1,0,9,4,12,5,7,-2
1558435535072086,1,2,5,-11,-14,-5,0,0
1558435535080072,0,-6,-13,-3,1,1,-11,-1
1558435535080072,1,3,3,-1,-2,-4,7,-3
1558435535095028,4,3,8,-5,1,4,-1,0
1558435535095028,-8,-7,-10,4,-8,-7,-5,-6
1558435535096023,-6,-1,4,0,-1,0,7,-2
1558435535096023,-3,-3,-9,3,-4,-13,-16,-9
1558435535109985,-3,-6,-10,-13,-11,-3,-3,-1
1558435535109985,5,4,1,12,12,3,-1,0
1558435535117966,-1,2,7,1,6,2,-6,-2
1558435535117966,-1,-5,-2,-18,-10,-1,11,2
1558435535131932,-2,-4,-14,1,-3,-5,0,-2
1558435535131932,3,1,-1,5,4,3,-6,5
1558435535139905,1,9,13,3,0,-5,-4,-1
1558435535139905,-3,-1,-8,-6,1,2,3,1
1558435535155862,0,-1,4,2,-2,-3,-1,0
1558435535155862,-9,-11,-1,5,-2,-11,1,-7
1558435535155862,1,1,3,18,20,10,5,0
1558435535155862,-2,-4,8,-3,-10,-8,-6,1
1558435535169826,-1,2,-7,-3,0,2,-3,1
1558435535169826,-2,-2,-5,-1,-7,-7,-3,-4
1558435535177816,3,6,17,10,4,3,2,-2
1558435535177816,-1,-3,-14,-30,-2,2,5,-3
1558435535192774,-3,-3,2,13,1,-4,-13,-3
1558435535192774,0,2,-2,-4,2,-4,-4,-1
1558435535199748,2,0,-3,19,10,7,9,6
1558435535199748,2,-1,-3,-16,-13,-3,-1,3
1558435535215730,4,6,11,-2,1,3,8,4
1558435535215730,-1,-4,-16,-17,-7,-1,-2,-1
1558435535216699,2,6,6,-10,-5,5,-6,-3
1558435535216699,-4,-6,-11,7,3,-1,-4,-2
1558435535231660,-5,-6,-18,-9,-11,-8,-1,-4
1558435535231660,-1,2,9,10,3,7,-4,-1
1558435535237645,-4,-8,-12,-9,-10,-11,-8,-9
1558435535237645,2,8,17,24,12,7,2,1
1558435535252611,-3,-6,-1,-10,5,4,-7,-2
1558435535252611,-2,0,-8,-5,-5,2,0,-3
1558435535259650,-5,-9,-7,-12,-10,-4,0,-5
1558435535259650,0,-3,-8,-1,-4,-12,-15,-3
1558435535275622,1,3,4,7,6,11,12,3
1558435535275622,3,7,20,24,11,2,7,7
1558435535276539,-4,-8,-20,-31,-17,-9,-4,0
1558435535276539,-1,1,4,-1,2,-2,-6,-3
1558435535289505,-3,-4,-3,17,0,-7,1,0
1558435535289505,1,1,2,-15,3,6,4,6
1558435535297486,-1,-2,-7,-18,-22,-13,0,0
1558435535297486,0,6,1,-4,3,4,-6,-5
1558435535312446,-7,-7,7,27,9,-5,-11,-11
1558435535312446,3,1,5,-14,-3,-4,12,4
1558435535320493,4,2,-4,-3,7,9,4,8
1558435535320493,-2,-1,7,30,10,-1,4,2
1558435535334443,1,-2,-14,-55,-18,1,-6,-1
1558435535334443,0,-3,0,13,1,0,3,-2
1558435535343425,-2,-1,-2,-1,-1,-5,-5,3
1558435535343425,7,5,4,-2,2,6,3,4
1558435535350366,-4,-5,-3,19,3,-6,-7,-2
1558435535350366,6,8,13,-3,-1,3,15,4
1558435535357322,-9,-7,-22,-12,-4,-1,-17,-15
1558435535357322,-2,-2,9,12,3,4,15,6
1558435535372285,-3,-2,2,2,-2,-10,-10,-6
1558435535372285,2,-2,-3,-9,-4,-1,-21,-3
1558435535380261,-1,-1,7,-5,-6,-4,8,-1
1558435535380261,0,2,10,15,4,2,-10,-4
1558435535395222,-4,-5,-5,10,7,6,9,-7
1558435535395222,-5,-4,-8,-8,-9,-8,-2,-7
1558435535403206,3,9,-1,-1,2,3,-8,-3
1558435535403206,-3,-11,-2,-2,0,-4,3,-2
1558435535410183,0,-1,-3,-9,-6,-1,-2,2
1558435535410183,-3,6,-4,3,3,0,1,-7
1558435535417179,-6,-10,0,-4,-4,-8,-6,-2
1558435535417179,3,7,2,-14,-4,-3,0,0
1558435535432126,-3,1,2,14,2,-4,-11,-3
1558435535432126,-13,-19,-20,-1,-4,-3,10,-10
1558435535440103,3,4,15,16,2,3,10,2
1558435535440103,2,2,-1,-1,7,6,9,3
1558435535455063,9,11,7,7,19,11,5,9
1558435535455063,-6,-6,-3,-20,-17,-7,-8,-3
1558435535463039,1,-2,-2,-16,2,1,6,3
1558435535463039,-6,-5,3,44,-1,-8,0,-5
1558435535470023,2,4,5,0,-4,-2,2,0
1558435535470023,2,0,-6,-8,0,-1,-6,0
1558435535477077,0,-1,1,23,5,-2,-10,2
1558435535477077,1,0,-8,-14,4,6,6,2
1558435535491965,0,0,2,-2,-8,-3,-5,-1
1558435535491965,-3,-10,-11,-7,0,-4,4,0
1558435535499977,1,2,-1,-1,2,-1,4,2
1558435535499977,-7,-2,-12,-23,-6,-5,-16,-8
1558435535514984,-3,1,12,7,-7,0,5,1
1558435535514984,0,0,-6,3,-7,-6,-5,1
1558435535522965,-2,1,1,11,7,7,0,-6
1558435535522965,-4,-8,-3,-7,-4,-4,-2,-2
1558435535537839,1,-6,-11,-21,1,2,5,7
1558435535537839,5,7,17,-2,-6,7,4,5
1558435535538838,-3,-6,-17,5,7,4,5,2
1558435535538838,-3,-2,8,-4,-9,-3,0,-3
1558435535552803,2,6,-6,0,-3,-2,5,-2
1558435535552803,-5,-7,-13,-4,-2,-12,-20,-7
1558435535559783,5,8,16,8,4,-2,-5,5
1558435535559783,1,0,-13,-36,-14,-4,-7,2
1558435535574742,-2,0,14,15,8,6,15,5
1558435535574742,-1,-7,-18,-2,-1,-7,-22,-2
1558435535582721,-2,0,-12,-27,-14,-5,-2,-3
1558435535582721,3,11,16,4,7,10,14,9
1558435535597839,-4,-7,-6,-1,-2,-6,-7,-1
1558435535597839,2,0,-15,-37,-3,4,4,1
1558435535598677,-5,-7,15,32,4,-1,-5,-7
1558435535598677,-2,-6,-11,4,-8,-5,-3,-7
1558435535612648,4,5,28,29,6,1,-3,-1
1558435535612648,1,2,-11,9,4,3,10,8
1558435535619622,-5,-7,-16,-25,-6,-3,3,-6
1558435535619622,-5,2,13,-5,-3,-5,-6,-9
1558435535634583,-6,-8,-14,-12,-7,-7,-4,-1
1558435535634583,-1,4,21,13,-3,-6,-14,-9
1558435535643559,0,-2,-5,-24,-11,3,6,3
1558435535643559,-2,-6,-2,45,18,9,9,6
1558435535657524,5,3,-12,-12,12,10,6,1
1558435535657524,7,10,23,3,0,10,18,12
1558435535658518,-3,-4,0,-1,-9,-9,-7,-4
1558435535658518,0,-1,-8,-20,-13,-14,-5,-2
1558435535672481,1,0,-5,-22,-1,7,7,2
1558435535672481,-5,-7,-3,22,14,13,-1,-9
1558435535679462,-1,2,4,-10,-6,-2,-1,0
1558435535679462,3,1,0,12,9,-2,8,7
1558435535694642,-7,-6,1,-5,-14,-19,-19,-11
1558435535694642,1,2,-9,-22,-2,2,1,1
1558435535703406,3,-1,0,6,10,6,0,2
1558435535703406,-5,-6,-9,1,-7,1,-7,-5
1558435535718358,1,6,-5,-21,-9,0,18,2
1558435535718358,0,0,15,17,5,0,8,2
1558435535718358,-8,-16,-7,-1,3,-3,-18,-9
1558435535718358,1,1,-6,-3,0,8,0,3
1558435535732323,-2,-2,3,19,1,-7,0,2
1558435535732323,2,3,10,19,12,-4,-4,0
1558435535740299,-3,-1,-16,1,4,7,9,1
1558435535740299,-1,-1,3,-19,-11,-12,-21,-14
1558435535755258,7,6,4,4,2,3,1,9
1558435535755258,-5,-6,-16,19,5,1,-1,-7
1558435535763236,-1,-6,-17,-36,-3,3,-1,3
1558435535763236,1,4,21,1,5,7,4,3
1558435535778240,-9,-9,-20,3,-7,-4,-12,-9
1558435535778240,1,-3,1,-3,5,6,2,-2
1558435535779197,-2,0,7,14,-9,-21,-21,-5
1558435535779197,-2,6,-3,-11,-12,-9,-5,0
1558435535792161,5,-2,-1,-4,3,-3,-1,10
1558435535792161,6,17,5,-11,10,23,20,9
1558435535800149,-2,-15,-5,11,10,16,13,4
1558435535800149,-6,-13,-13,-7,-6,-10,4,-3
1558435535824085,-1,-1,-10,4,0,-6,-4,-1
1558435535824085,-2,-4,3,-10,-8,-8,-7,-5
1558435535824085,0,14,11,11,1,0,2,-9
1558435535824085,-2,4,1,3,2,-2,-1,-4
1558435535838040,-2,-8,-13,-25,-17,0,5,-6
1558435535838040,-4,-8,-7,-4,-7,-8,-9,-2
1558435535839044,-2,-2,5,17,9,5,4,2
1558435535839044,-4,-3,9,12,5,6,4,-5
1558435535852002,-3,3,-1,-19,-12,-2,-13,-12
1558435535852002,1,-1,8,13,3,-4,-2,2
1558435535859993,5,2,-17,-21,7,0,11,8
1558435535859993,-4,-4,-5,-7,5,8,-2,-2
1558435535874939,2,2,7,-2,-1,-4,-1,-4
1558435535874939,-15,-3,-8,-10,-14,-4,-2,-6
1558435535882917,2,-2,10,9,1,-7,-12,-1
1558435535882917,-3,-9,-7,5,7,6,-4,1
1558435535905862,-6,0,-2,-9,-6,-7,-5,-4
1558435535905862,-1,-1,4,-4,-5,-2,4,-1
1558435535906854,10,16,-12,12,0,-1,-4,-2
1558435535906854,-16,-13,-1,-10,-12,-7,-3,-3
1558435535912839,3,2,11,12,2,-5,-11,-1
1558435535912839,0,-8,-12,-13,-12,-12,-4,2
1558435535919819,5,8,17,13,5,4,10,9
1558435535919819,11,7,-4,-8,4,0,-4,1
1558435535934778,-2,-5,-2,10,15,14,5,1
1558435535934778,-3,-4,-5,-5,0,-1,-4,-1
1558435535942758,2,8,18,-13,-11,-4,-12,-3
1558435535942758,-3,-8,-8,-8,-11,-10,8,1
1558435535957717,-2,0,6,16,4,1,7,6
1558435535957717,1,0,-5,-2,2,3,0,-5
1558435535958715,-7,-15,-20,-7,-12,-13,-6,-2
1558435535958715,-5,-5,-8,-13,-13,-5,-8,-14
1558435535972681,3,6,10,13,10,4,7,4
1558435535972681,3,-1,-7,1,-2,-3,-4,-2
1558435535979665,-9,-5,7,8,-6,-7,-4,-5
1558435535979665,14,8,-15,-26,5,4,3,10
1558435535994624,-8,-11,-12,11,1,1,0,-4
1558435535994624,-5,-4,1,-12,-7,-8,-13,-7
1558435536002598,5,-1,4,6,2,3,3,-6
1558435536002598,-6,-6,-20,6,-2,-2,-8,-4
1558435536017561,3,-1,0,-16,-9,0,-6,-3
1558435536017561,-4,2,21,15,13,0,3,3
1558435536018555,-4,0,-21,-1,-1,3,1,1
1558435536018555,7,5,11,2,1,-1,11,2
1558435536032519,-1,0,-1,3,0,0,-4,0
1558435536032519,-5,-2,13,20,1,2,-2,-8
1558435536039500,-2,-8,-12,-11,-6,-5,-1,-3
1558435536039500,-1,1,2,-5,-3,-5,-5,0
1558435536055460,-8,-16,-7,-6,-3,-6,-8,-4
1558435536055460,9,3,0,-5,-4,-3,1,6
1558435536062459,-5,-2,8,-16,-5,-4,0,-2
1558435536062459,4,3,-10,19,4,3,1,3
1558435536078397,-4,-2,-6,-13,-8,-1,-9,-2
1558435536078397,4,2,-1,-2,1,1,18,2
1558435536078397,-5,-2,10,10,9,6,2,-2
1558435536078397,-4,-5,9,19,1,2,-1,-1
1558435536092359,-2,5,2,-16,-2,-1,2,0
1558435536092359,4,4,-14,-1,1,1,-6,1
1558435536100336,5,-1,-3,-2,-11,-6,0,7
1558435536100336,-4,-2,7,-15,2,2,1,-3
1558435536115297,2,0,-5,-3,-2,1,5,-7
1558435536115297,-1,-4,-5,-3,-8,-5,-12,-5
1558435536122278,-8,-1,1,5,1,-3,-5,-3
1558435536122278,1,-7,-9,6,8,7,3,2
1558435536138235,2,4,3,-2,0,0,0,1
1558435536138235,1,-1,-8,-23,-7,-2,0,2
1558435536138235,1,2,12,6,0,-1,0,-1
1558435536138235,0,-3,-11,-15,-12,-12,-12,-3
1558435536154192,2,-1,8,1,9,10,10,7
1558435536154192,-7,0,5,15,-1,-2,0,-8
1558435536160176,1,-4,-13,-8,-3,-1,0,-2
1558435536160176,-12,-4,-7,-16,-12,-7,-2,-3
1558435536175137,1,-10,-8,3,2,-5,1,0
1558435536175137,-3,-7,-14,-12,-2,2,-1,1
