timestamp,emg1,emg2,emg3,emg4,emg5,emg6,emg7,emg8
1558435679994194,0,-1,3,9,4,-2,4,3
1558435679994194,3,3,-13,-17,6,7,2,3
1558435679994194,-1,0,31,58,0,-13,-9,1
1558435679994194,1,-6,-11,-30,-9,-2,1,4
1558435680002171,6,10,-6,-23,-2,7,6,3
1558435680002171,-9,-14,11,51,15,7,3,-4
1558435680003169,-4,-7,-16,-21,-2,3,1,-5
1558435680003169,8,5,6,6,-5,-4,-9,-2
1558435680005163,-4,6,7,7,6,6,3,2
1558435680005163,6,5,4,3,-3,-9,-4,1
1558435680016134,6,0,0,25,9,1,0,8
1558435680016134,-2,-2,4,-5,5,4,5,0
1558435680029099,-9,-5,-13,-10,-5,-1,-2,-9
1558435680029099,-12,-9,-2,11,-2,-4,0,-8
1558435680036080,4,3,6,-14,2,6,7,1
1558435680036080,4,1,-15,-13,4,8,-2,2
1558435680044065,2,-1,29,18,-5,-10,5,4
1558435680044065,-1,3,-26,-40,-23,-7,-8,-6
1558435680061015,-12,-15,-2,4,-4,-4,-8,-11
1558435680061015,7,4,0,-2,4,-6,12,9
1558435680065005,-18,-10,-11,-21,-14,-11,-21,-11
1558435680065005,7,6,9,-11,2,10,6,3
1558435680112876,-8,-13,-14,2,-7,-8,-2,-10
1558435680112876,1,7,6,-1,-7,0,-1,0
1558435680113873,-1,-5,-14,-15,-12,-10,-10,-2
1558435680113873,5,5,-4,-8,-1,-2,0,-3
1558435680114872,-4,-5,-4,8,4,-3,-3,-1
1558435680114872,-6,-2,8,-5,2,5,4,-2
1558435680125841,-2,0,-7,-6,-2,4,6,1
1558435680125841,-5,-7,2,0,-22,-25,-32,-13
1558435680127836,5,8,13,16,12,4,0,7
1558435680127836,6,-1,-10,-20,10,14,24,8
1558435680132824,-13,-7,15,23,-7,-3,-8,-11
1558435680132824,1,-3,-4,1,10,5,10,5
1558435680139804,7,7,0,-17,-6,1,-3,10
1558435680139804,-9,-9,1,8,-10,-22,-9,-12
1558435680155763,2,4,4,3,-4,-3,-4,-5
1558435680155763,12,-3,-26,-13,-4,1,14,10
1558435680162742,-28,-9,-6,-15,-9,-9,-15,-15
1558435680162742,12,5,8,10,8,4,10,13
1558435680169725,6,1,-16,-7,4,-6,0,7
1558435680169725,-12,-4,2,10,-7,-13,-8,-11
1558435680184694,5,-4,10,-4,-4,6,-6,-3
1558435680184694,4,5,-7,14,-3,-7,-3,5
1558435680192664,-8,-2,16,18,18,15,14,-6
1558435680192664,-1,-7,-22,-15,9,17,12,1
1558435680199643,-2,1,17,-6,-10,-10,-8,-6
1558435680199643,-10,-11,4,33,1,-6,-22,-17
1558435680215601,4,0,-2,2,-1,4,17,3
1558435680215601,-2,6,13,-1,5,5,-2,-1
1558435680222583,0,-7,-6,0,-2,-2,2,-1
1558435680222583,1,0,-6,-32,-19,-12,-12,-2
1558435680229563,7,6,3,16,15,3,-5,7
1558435680229563,3,2,15,25,0,-2,-8,-1
1558435680244525,-4,-5,-32,-21,-11,-6,-8,-1
1558435680244525,5,1,5,2,11,13,0,3
1558435680253500,-17,-7,-3,-10,-4,-4,0,-4
1558435680253500,5,9,11,-14,-1,2,-2,2
1558435680259483,3,0,-8,6,-1,3,4,1
1558435680259483,0,0,5,6,-2,-8,-19,-2
1558435680275442,5,1,-1,-2,1,8,0,8
1558435680275442,-5,1,-7,-22,-5,2,7,2
1558435680282422,-2,-4,5,18,5,3,3,-5
1558435680282422,-5,-7,-8,-28,-5,3,25,2
1558435680290400,4,0,13,19,5,5,-1,1
1558435680290400,-6,-3,-12,-4,-6,-11,-11,-7
1558435680305360,12,9,-2,0,8,4,14,12
1558435680305360,-6,-8,-10,-1,5,6,2,-8
1558435680313340,3,6,1,-15,-7,2,-1,4
1558435680313340,-2,-7,12,33,9,-2,-4,-3
1558435680320321,1,6,12,-5,-6,-10,0,5
1558435680320321,-5,-8,-23,-2,-4,9,6,-4
1558435680335281,5,4,0,7,7,0,0,8
1558435680335281,1,5,9,-10,-6,-6,0,-1
1558435680342262,2,-3,-2,4,4,6,1,-5
1558435680342262,-8,-8,-1,-2,-11,-12,-14,-3
1558435680350241,0,3,-6,-6,-4,-3,-1,-2
1558435680350241,-11,-7,-10,2,-4,5,16,0
1558435680365201,-1,8,26,29,10,3,5,1
1558435680365201,6,-4,-35,-21,-6,-4,-5,3
1558435680373179,-7,-5,4,-4,-2,-2,-3,-13
1558435680373179,0,-4,-2,3,1,-3,-11,0
1558435680380162,4,6,8,3,1,7,8,4
1558435680380162,0,-1,4,0,-5,-4,0,0
1558435680396118,0,3,7,-3,-2,-11,-5,-7
1558435680396118,-1,-7,-19,-12,-4,6,-3,-1
1558435680402101,-2,-5,-7,-5,-9,-10,-7,-8
1558435680402101,2,8,19,19,20,9,7,4
1558435680410081,-3,-7,-14,-21,-11,-2,-8,0
1558435680410081,1,4,25,20,4,3,-8,-5
1558435680425040,-3,-9,-40,-37,-9,-5,-6,0
1558435680425040,1,5,16,21,3,0,2,4
1558435680433020,-3,-3,-18,-29,-17,-15,-8,-9
1558435680433020,0,2,-6,0,15,12,14,7
1558435680440002,1,2,10,11,0,-7,4,0
1558435680440002,-5,-2,-13,-22,-11,-4,-8,-5
1558435680455957,-2,-2,7,16,1,1,3,2
1558435680455957,2,5,10,7,-1,-2,1,0
1558435680462940,-3,-2,-8,-27,1,11,8,1
1558435680462940,-2,-4,2,11,1,-7,-4,-2
1558435680469921,2,-8,-10,0,-1,-4,-11,-1
1558435680469921,-6,1,12,12,-2,-3,-9,-11
1558435680484880,-1,4,16,17,9,11,0,-3
1558435680484880,-2,2,-22,-22,-7,-5,-5,-1
1558435680492862,-5,-8,2,-5,-2,3,-2,-4
1558435680492862,4,0,0,-2,-2,-11,3,7
1558435680499842,1,0,1,10,5,3,-1,-3
1558435680499842,-2,1,3,-3,-6,-7,-8,-7
1558435680515798,2,7,11,13,12,6,14,6
1558435680515798,-1,-5,-13,-15,-8,1,-3,2
1558435680522781,-2,-1,-2,0,-3,-2,6,0
1558435680522781,-4,-2,-4,-11,-5,0,-7,-5
1558435680529762,0,3,7,2,-1,0,2,0
1558435680529762,-2,-4,-2,-1,-4,-8,-3,0
1558435680544723,3,0,-6,-8,1,7,5,6
1558435680544723,-8,-7,-2,3,7,11,-3,-11
1558435680552700,3,5,-3,4,-3,-11,-1,2
1558435680552700,-4,-6,1,-14,-8,-10,-6,-6
1558435680559680,0,0,-4,8,2,-3,-13,-1
1558435680559680,2,6,7,-12,-6,-2,-1,3
1558435680575638,1,-6,-2,-4,3,5,1,3
1558435680575638,-3,-3,-9,-8,1,-3,-13,-9
1558435680582620,-4,-5,1,4,-13,-17,-17,-4
1558435680582620,0,0,-1,3,1,2,-1,-5
1558435680589600,2,3,4,4,9,5,4,-1
1558435680589600,4,5,4,10,3,1,0,1
1558435680604560,0,-4,6,13,7,2,12,4
1558435680604560,3,1,-8,-5,2,5,-12,-1
1558435680613536,-3,0,3,13,5,-5,-2,-6
1558435680613536,-3,1,-5,-21,-5,3,9,5
1558435680619520,-4,-10,1,1,-8,-8,-17,-7
1558435680619520,6,2,2,13,8,6,18,12
1558435680635478,-3,-3,-7,-12,-9,-11,-13,-4
1558435680635478,0,5,-1,2,-1,8,3,0
1558435680642466,0,2,-3,-4,0,0,-2,-1
1558435680642466,-5,-8,3,0,-4,-10,-7,-3
1558435680650437,-2,0,4,4,-5,-7,-11,-5
1558435680650437,-6,-9,-10,-6,-4,6,5,-2
1558435680665408,6,9,10,-2,4,-3,3,5
1558435680665408,-3,-4,-6,2,2,5,-3,-9
1558435680673378,-2,0,-15,-6,-1,11,1,-6
1558435680673378,2,-3,-5,6,-1,-11,-7,3
1558435680680358,-3,-1,-10,-14,-7,-2,-6,-9
1558435680680358,-6,-1,3,-12,-8,-8,6,-2
1558435680695318,-1,-4,0,1,1,-1,-2,0
1558435680695318,4,4,9,10,1,-2,-7,2
1558435680702298,-3,-5,-14,-23,0,6,12,0
1558435680702298,3,1,5,11,-4,2,-6,0
1558435680718257,0,-2,-1,-7,-3,-3,-1,-1
1558435680718257,4,4,3,-4,-1,2,14,7
1558435680725237,-1,2,4,10,2,1,-8,-7
1558435680725237,2,2,3,6,3,4,1,3
1558435680733217,-2,-5,-6,-17,-7,-5,4,3
1558435680733217,-1,1,2,-2,6,3,-1,-1
1558435680740200,-6,-9,-18,-12,-6,-8,-7,-5
1558435680740200,-1,1,7,-2,-11,-16,-5,-1
1558435680755159,-4,-6,-7,-3,-8,1,-4,-1
1558435680755159,0,-2,0,-2,4,9,-3,-3
1558435680764134,0,2,4,3,1,-3,11,3
1558435680764134,7,8,6,1,10,5,1,6
1558435680778097,-5,-4,-7,-10,-9,-11,-14,-6
1558435680778097,-4,-10,-8,7,-3,-2,-8,0
1558435680785078,-4,-5,-7,-3,-7,-2,-6,-8
1558435680785078,-5,0,4,4,0,-3,-1,-4
1558435680801035,5,11,-1,5,3,5,7,4
1558435680801035,0,1,3,-7,-3,0,3,-1
1558435680803029,-5,-7,-14,-2,-6,-3,-17,-5
1558435680803029,1,-1,-1,-7,3,8,10,7
1558435680815994,-1,0,1,9,13,3,8,4
1558435680815994,-2,-1,2,6,7,2,1,-2
1558435680821978,3,5,3,-8,-8,-2,-1,2
1558435680821978,-3,-1,5,-1,-10,-5,-16,-8
1558435680837936,-2,-6,-15,-8,-5,-2,10,2
1558435680837936,-3,-2,5,4,-3,-8,-5,-5
1558435680844918,-2,-4,-6,-12,-1,-6,-3,-2
1558435680844918,3,2,-1,12,10,0,5,3
1558435680852897,-2,0,7,-3,-1,7,-4,-3
1558435680852897,-2,0,-11,-21,-15,-8,-8,-4
1558435680859878,-2,-1,4,6,1,-3,-1,-1
1558435680859878,-1,-6,-7,-1,2,-3,3,-2
1558435680875835,1,1,0,0,0,3,2,-3
1558435680875835,-1,-6,-3,6,-1,-12,-3,-2
1558435680882815,0,4,13,8,2,6,1,4
1558435680882815,0,-2,-8,-20,-5,-1,-2,1
1558435680897780,0,-3,2,8,0,-6,2,-2
1558435680897780,-3,-2,-7,-14,-5,-3,-2,-3
1558435680904759,-1,-1,-1,3,-5,-5,-6,0
1558435680904759,1,6,4,9,-2,-3,-2,-1
1558435680912737,-4,-13,6,6,5,7,4,0
1558435680912737,-2,-2,-15,-21,-5,-8,-9,0
1558435680919719,4,1,-2,17,10,7,20,8
1558435680919719,-3,5,-4,-24,-10,-8,-3,-1
1558435680935675,-1,0,0,-6,-9,-2,-13,-5
1558435680935675,0,0,8,16,1,0,-1,-2
1558435680942662,1,0,3,-2,6,3,-7,-2
1558435680942662,-3,-4,2,23,1,-1,4,-3
1558435680958619,3,3,-8,-20,-7,-9,-4,-1
1558435680958619,1,1,2,6,9,11,6,3
1558435680964600,-6,-10,-2,-9,-7,-6,-4,-7
1558435680964600,2,-1,2,6,-3,-6,-5,2
1558435680973576,-1,2,2,-4,-1,-7,0,0
1558435680973576,0,2,4,0,3,6,0,0
1558435680987537,-1,0,-12,0,3,-2,-4,0
1558435680987537,-4,-5,-4,-2,2,8,12,-1
1558435680995520,-5,-7,-3,3,-4,-8,-8,-10
1558435680995520,1,5,4,6,3,2,0,4
1558435681002497,4,6,8,-8,2,8,13,4
1558435681002497,-5,-7,-5,2,2,-3,-7,-6
1558435681018458,0,4,-5,-7,-4,1,-4,-1
1558435681018458,-5,-4,9,6,-7,-6,-3,-6
1558435681025436,-2,-9,-2,6,5,5,7,3
1558435681025436,1,1,-3,0,2,3,5,1
1558435681033416,-4,2,11,19,5,-2,-10,-5
1558435681033416,6,4,7,-13,-1,-3,4,3
1558435681047376,-1,-2,-26,-30,-18,-6,-6,-4
1558435681047376,-3,-6,-4,-10,-7,-6,-14,-3
1558435681055354,3,-1,-15,0,8,10,7,4
1558435681055354,-5,-1,4,15,4,0,-1,-3
1558435681062344,1,4,10,0,1,-3,-2,0
1558435681062344,-2,1,5,11,5,4,-1,-1
1558435681078299,-2,5,9,-11,-5,-3,-4,-1
1558435681078299,1,-3,-12,6,6,8,3,1
1558435681085275,-3,0,-2,6,3,5,3,-4
1558435681085275,2,-1,-4,-15,-4,-6,-1,2
1558435681101237,2,1,10,6,-5,-5,-11,-4
1558435681101237,-6,-7,-2,8,-4,-3,1,-8
1558435681107219,-2,-8,-15,-25,-10,-4,-2,-1
1558435681107219,-3,1,2,1,4,1,-4,-4
1558435681115195,0,1,-4,-7,2,8,1,1
1558435681115195,1,1,6,18,3,-1,-3,-2
1558435681124174,-4,-4,-12,-9,-5,-5,-7,-4
1558435681124174,-2,-2,0,10,4,7,5,3
1558435681138135,1,-2,1,-5,5,3,3,2
1558435681138135,2,9,7,-7,-7,-4,-9,-2
1558435681145114,0,5,12,14,7,5,9,-1
1558435681145114,-3,-2,0,-11,-6,-10,-3,-3
1558435681161071,0,-4,-10,9,0,-5,-2,3
1558435681161071,0,-4,-11,-26,-7,-2,14,2
1558435681167055,2,3,5,-2,-4,-2,-5,-1
1558435681167055,-5,-7,-5,16,-2,-7,-9,-4
1558435681184010,1,3,5,4,9,12,13,6
1558435681184010,-4,-8,-11,-8,-7,-6,-4,-3
1558435681185007,1,3,4,-3,-2,-1,-9,-2
1558435681185007,4,1,0,9,4,1,7,5
1558435681197979,-6,-5,1,-20,-14,-11,-10,-4
1558435681197979,-2,-4,-4,2,2,6,0,-3
1558435681204956,-2,-2,4,6,-5,-2,-6,1
1558435681204956,2,4,2,-4,4,2,13,5
1558435681220914,-5,-6,-18,2,-2,-6,1,-3
1558435681220914,3,0,-6,-8,3,4,2,2
1558435681227896,-3,1,8,6,1,-4,1,-1
1558435681227896,-4,-5,-6,-6,-8,-2,-11,-8
1558435681243851,-2,-3,-2,-1,-4,-3,-3,-1
1558435681243851,3,7,6,2,9,4,4,6
1558435681244848,2,0,5,17,5,1,-5,1
1558435681244848,2,1,-3,-11,1,6,6,0
1558435681257813,-4,-4,1,-1,-7,-6,-3,-7
1558435681257813,-1,1,-12,-3,-1,-2,1,0
1558435681264799,1,0,18,25,8,-1,-2,0
1558435681264799,-2,-2,-4,-3,-4,2,0,-3
1558435681280759,0,-1,-6,-20,-2,4,1,1
1558435681280759,-6,-4,7,15,-5,-5,-16,-15
1558435681287736,-5,-2,-12,-11,-5,0,0,-3
1558435681287736,6,6,8,5,6,-10,-4,6
1558435681303696,3,4,6,7,9,6,10,8
1558435681303696,-2,-6,-4,0,-7,0,1,2
1558435681305687,-2,-1,3,-5,-2,1,1,-7
1558435681305687,0,-1,-10,-3,-13,-8,-8,-6
1558435681318657,-4,-7,-8,1,5,10,0,-2
1558435681318657,2,2,7,5,9,5,7,5
1558435681324638,1,-1,-10,-13,-2,-3,2,2
1558435681324638,-2,1,-1,-1,-4,-4,-2,-1
1558435681340595,1,0,1,-4,-4,-3,-6,-5
1558435681340595,-8,-15,-12,-9,-10,-5,-8,-4
1558435681347572,0,-1,-2,-2,-6,-8,-5,-5
1558435681347572,1,-1,4,10,13,11,9,7
1558435681363529,3,7,10,6,4,-4,-2,-1
1558435681363529,-6,-1,-4,-4,-3,-3,2,-7
1558435681365524,1,10,14,1,0,0,-3,-1
1558435681365524,-7,-8,-13,-8,-14,-4,-11,-9
1558435681378490,-5,-8,-8,4,-1,-6,2,-4
1558435681378490,7,5,9,0,8,2,5,4
1558435681384473,-1,-3,1,-1,-6,-1,-5,-3
1558435681384473,-2,-3,-16,-2,1,-2,2,0
1558435681400434,-1,-3,6,-2,1,1,2,3
1558435681400434,-1,-3,-12,-7,-10,-4,-8,-5
1558435681407419,4,5,8,2,2,-5,4,8
1558435681407419,-2,0,-3,-3,1,1,5,0
1558435681423371,-4,-5,-6,10,1,-3,-8,-5
1558435681423371,-3,-5,8,1,-7,-8,-1,-2
1558435681423371,-6,-4,-9,-10,2,9,7,-2
1558435681423371,-1,3,-2,-4,-10,-7,-6,-4
1558435681438330,-1,-6,3,-6,-13,-14,-24,-5
1558435681438330,4,5,-2,9,15,21,18,2
1558435681445311,-3,-8,-6,1,1,-6,-6,-2
1558435681445311,1,4,10,-8,5,8,9,3
1558435681460271,-6,-9,-14,7,-6,-3,-5,-5
1558435681460271,0,4,-1,-2,-1,-5,-3,-3
1558435681467252,1,-4,-3,-2,-3,-5,-1,2
1558435681467252,1,7,14,2,2,6,-4,0
1558435681483214,1,2,-2,-11,-6,-1,15,7
1558435681483214,-3,-11,-16,-5,-1,-2,-4,0
1558435681484208,0,1,-8,-6,-5,-2,-8,-5
1558435681484208,-2,-7,0,5,6,5,0,-3
1558435681499172,4,7,15,16,8,-5,4,1
1558435681499172,-3,4,4,1,-7,-7,-10,-2
1558435681505158,-4,-13,-7,5,4,0,-8,-3
1558435681505158,1,-4,1,3,0,-3,-2,-3
1558435681520115,1,5,2,-6,-2,5,5,2
1558435681520115,-5,-2,0,-5,1,-6,-7,-6
1558435681527097,-2,3,6,-5,-3,4,8,4
1558435681527097,-2,-3,10,13,3,-3,-2,0
1558435681543171,-1,-5,-22,-13,-3,-5,-1,0
1558435681543171,-2,-3,-12,-12,-6,-5,-6,0
1558435681544059,-4,0,6,10,-2,1,0,-5
1558435681544059,-2,-4,-8,-22,-4,-1,7,3
1558435681559020,3,7,9,3,1,8,-1,2
1558435681559020,-1,-2,0,1,2,2,-3,-1
1558435681565098,3,1,-2,6,9,1,11,7
1558435681565098,-1,1,2,-1,-3,-4,-8,-3
1558435681581950,-3,-4,4,9,-6,-8,-11,-11
1558435681581950,2,2,2,-9,0,5,3,0
1558435681587969,3,0,0,2,7,7,10,6
1558435681587969,3,4,-7,-7,-1,0,-3,0
1558435681603888,-6,-6,-1,7,-2,3,-1,-3
1558435681603888,-1,-1,1,2,-1,0,-3,-3
1558435681603888,0,0,2,12,2,-4,-6,0
1558435681603888,2,1,-4,-6,1,1,-1,0
1558435681618858,0,0,2,0,0,0,3,0
1558435681618858,-2,4,2,-18,-6,-3,4,-3
1558435681624834,-1,-5,-11,3,6,4,-3,-1
1558435681624834,3,4,4,11,1,2,10,4
1558435681641788,-7,-9,-1,-6,3,-2,0,-3
1558435681641788,1,0,3,-3,-5,-3,3,2
1558435681647800,2,3,2,0,-5,-3,-8,-2
1558435681647800,-1,-2,-19,-16,2,5,9,-1
1558435681662731,2,3,-2,4,2,3,2,3
1558435681662731,-2,-1,4,4,3,0,-2,-1
1558435681663727,-2,-3,-8,-3,-2,4,7,-1
1558435681663727,-5,-7,-1,-3,-5,-1,-2,-6
1558435681678959,1,3,11,0,-2,-6,-2,0
1558435681678959,1,-3,-9,-5,-1,2,-1,3
1558435681684672,0,5,9,4,1,2,5,-1
1558435681684672,-8,-8,1,7,1,-2,-8,-7
1558435681701627,-4,-10,-11,-14,-14,-16,-2,-4
1558435681701627,3,5,4,3,2,5,1,4
1558435681707822,-4,-6,4,-4,1,-1,-1,-4
1558435681707822,-2,1,16,7,-5,-3,-4,-1
1558435681723650,0,-1,-14,-7,3,5,-4,-4
1558435681723650,0,-4,-8,-4,-6,-7,7,0
1558435681723650,1,-1,-3,0,-2,-5,1,4
1558435681723650,1,2,3,-5,-2,-2,-4,-2
1558435681747504,-1,2,2,-2,-4,-4,-1,-2
1558435681747504,1,0,0,7,2,-4,-1,3
1558435681748669,-4,-2,-7,-4,2,2,-3,-2
1558435681748669,0,-2,-6,-3,6,5,5,2
1558435681761469,-1,2,6,-4,-8,-3,-2,-1
1558435681761469,-2,-3,6,4,-10,-16,-15,-8
1558435681767451,0,-3,-17,0,0,-3,-6,-5
1558435681767451,-3,-4,-4,-4,-5,-6,-3,0
1558435681783410,4,4,4,13,6,4,-4,0
1558435681783410,2,1,6,5,12,5,3,6
1558435681784407,-2,6,10,-6,-6,-5,-8,-3
1558435681784407,-5,-4,-23,1,-2,-3,-8,-7
1558435681799368,-1,-9,-16,-21,-8,-2,-4,4
1558435681799368,1,2,13,13,8,2,6,6
1558435681805351,0,-1,-6,-12,-1,3,1,1
1558435681805351,-4,-3,17,13,3,-3,2,-3
1558435681821309,-1,2,5,11,2,2,2,-1
1558435681821309,0,-3,-19,-17,-13,-5,-11,-7
1558435681827327,0,1,15,21,2,-5,-3,-2
1558435681827327,3,5,14,-16,-6,-2,4,5
1558435681843472,0,-4,-14,11,11,7,3,-1
1558435681843472,-3,-2,-1,-15,-3,0,9,0
1558435681844247,1,-2,-10,-5,-8,-3,-1,0
1558435681844247,0,-2,21,11,-5,-8,-12,-3
1558435681865192,-4,-3,-8,-12,2,4,6,-1
1558435681865192,-1,-2,-3,13,4,2,-2,0
1558435681866187,-1,-2,-6,-7,-6,-7,-10,-1
1558435681866187,-2,-1,-3,-5,5,11,8,-3
1558435681881145,-1,-1,18,23,5,-4,4,-1
1558435681881145,-4,-3,-1,-6,3,-1,5,-2
1558435681888218,-2,-3,3,6,-1,-2,-4,1
1558435681888218,1,1,-14,-8,-7,-1,-3,-3
1558435681903205,0,5,9,2,1,6,-4,-2
1558435681903205,-4,-5,-9,-11,-1,2,-9,-1
1558435681910395,1,-1,-7,15,1,-1,12,5
1558435681910395,-1,-1,-5,-5,2,7,-1,-2
1558435681926355,-1,2,-1,-3,-2,-3,-5,1
1558435681926355,-5,-5,6,-2,-3,-7,-2,-10
1558435681926355,0,1,-8,-15,-6,-2,-2,0
1558435681926355,-1,-1,11,5,-6,-11,-10,-2
1558435681941246,-2,-4,-18,0,2,0,2,-1
1558435681941246,-1,0,-3,4,1,3,-7,-1
1558435681948127,-2,-2,0,-4,1,7,7,-1
1558435681948127,-1,0,6,-1,-2,-5,-6,-3
1558435681963184,3,3,6,-1,-5,-9,1,-2
1558435681963184,3,2,15,8,2,8,3,1
1558435681970133,-4,-4,-19,-22,-15,-5,-7,-7
1558435681970133,-1,-1,0,8,8,1,0,2
1558435681985873,-1,-1,0,-2,5,7,4,1
1558435681985873,6,13,9,5,0,-3,3,5
1558435681985873,-2,-8,8,-1,3,8,15,3
1558435681985873,-1,-5,-10,-1,-4,2,-3,-2
1558435682001823,-2,7,13,-5,-6,-8,-9,-8
1558435682001823,-1,-10,-16,4,7,4,4,2
1558435682007810,-3,-1,4,2,5,-2,3,-2
1558435682007810,-3,-2,-16,-10,-8,-7,-9,-3
1558435682022979,4,0,0,-12,0,1,13,9
1558435682022979,-2,2,3,6,-1,3,0,-1
1558435682030747,-5,-5,-10,-7,-3,-4,-9,-8
1558435682030747,0,3,9,7,3,-2,3,1
1558435682045916,2,3,0,-2,-4,-5,-4,1
1558435682045916,-5,-9,-14,-11,-9,-9,-21,-5
1558435682046711,1,2,6,-11,2,3,5,2
1558435682046711,1,0,-3,-6,-6,-6,4,0
1558435682061664,-5,-5,-3,7,7,13,0,-3
1558435682061664,-2,-2,-10,-3,-1,2,8,-2
1558435682067651,-1,1,13,17,6,-1,-10,-5
1558435682067651,-1,0,-2,-1,0,0,-1,0
1558435682082636,-3,-4,-5,-13,-10,-8,-5,-3
1558435682082636,0,1,12,13,9,0,-9,-2
1558435682089590,2,3,3,2,-2,0,4,3
1558435682089590,2,-3,-5,1,-2,-6,-1,2
1558435682105859,3,6,14,-1,0,0,3,4
1558435682105859,-4,-4,-23,-9,-1,5,3,-5
1558435682106544,-5,-9,-4,-19,-8,-14,-20,-11
1558435682106544,-7,-4,6,5,0,-2,-1,0
1558435682121506,-1,-4,-11,-7,-11,-10,-22,-4
1558435682121506,2,4,11,6,1,-1,9,2
1558435682127816,1,1,-3,0,2,-4,3,3
1558435682127816,3,0,-4,0,1,-1,-1,0
1558435682142779,-5,-5,-2,-6,-5,-3,-17,-11
1558435682142779,0,2,2,-10,-6,1,8,2
1558435682150430,3,-4,1,19,16,5,12,6
1558435682150430,-4,-6,-9,-9,-8,-6,-1,-4
1558435682173560,-2,-2,-13,-14,-1,2,4,-2
1558435682173560,2,-2,-3,-6,-6,-8,-6,-2
1558435682173560,5,7,5,-5,-4,4,0,2
1558435682173560,-6,-3,0,-2,-1,0,-6,-3
1558435682181380,-2,-4,-9,6,-2,-4,5,0
1558435682181380,-1,5,13,1,-9,-7,-8,-2
1558435682187334,-2,1,-17,-10,-1,1,6,0
1558435682187334,2,-2,-2,11,11,2,5,8
1558435682202293,0,-3,1,3,-1,4,6,0
1558435682202293,1,2,9,6,10,0,-1,3
1558435682210266,-2,1,9,-2,-13,-1,-3,-4
1558435682210266,-1,0,-11,-19,-7,-3,-1,-5
1558435682225226,-7,-8,-22,-6,-8,-8,-6,-4
1558435682225226,1,0,3,0,7,11,11,5
1558435682226222,-1,-7,-3,8,2,-4,-3,-2
1558435682226222,1,1,-4,1,1,4,2,2
1558435682241184,-2,-5,-2,6,2,0,-1,-2
1558435682241184,1,8,12,-6,-8,-4,-4,-3
1558435682247167,-8,-4,4,3,-2,-2,-4,-8
1558435682247167,1,-2,-2,-3,0,-2,-1,-3
1558435682262166,5,8,-1,-4,4,-5,-5,6
1558435682262166,-3,-5,-5,9,-4,-5,8,0
1558435682270107,-4,-2,12,14,2,2,1,-1
1558435682270107,-1,0,-7,-9,0,-5,-3,0
1558435682286062,0,-4,-6,-4,-7,-5,-5,-3
1558435682286062,1,3,0,-3,8,10,1,3
1558435682286062,-5,-3,-6,-11,-18,-9,-7,-5
1558435682286062,-2,-1,5,12,6,10,7,-3
1558435682301022,3,7,8,8,4,-4,2,3
1558435682301022,-2,-8,-13,-11,-8,-10,-10,-2
1558435682307007,2,-2,-9,-3,6,2,1,3
1558435682307007,0,1,-2,-10,-10,-3,-10,-2
1558435682323315,-1,1,7,2,5,5,-4,-1
1558435682323315,-1,-3,2,3,-8,-2,5,1
1558435682330290,-1,-7,-26,2,9,7,-4,0
1558435682330290,-3,-3,7,7,-3,-2,0,0
1558435682346275,4,4,13,2,2,4,8,4
1558435682346275,-5,-5,-4,-1,-4,-11,-9,-10
1558435682346275,1,1,-20,-8,2,1,-6,-4
1558435682346275,0,1,12,13,3,-2,1,1
1558435682362126,-2,-3,0,-5,-1,7,7,-4
1558435682362126,-6,-9,-22,-7,-9,-6,-10,-4
1558435682367844,1,1,8,-4,-5,-5,6,-2
1558435682367844,-2,-1,-3,9,8,3,-1,-3
1558435682383133,1,-1,8,-1,-4,-2,3,3
1558435682383133,1,2,0,-6,-2,0,0,2
1558435682389786,-4,0,10,-1,-8,-9,-13,-6
1558435682389786,-1,0,-10,-7,0,2,-2,0
1558435682406031,-3,-3,-4,5,1,-8,0,-2
1558435682406031,0,-3,-1,-3,2,5,1,-2
1558435682406741,1,-2,-8,-8,0,0,4,4
1558435682406741,5,1,6,5,5,5,4,4
1558435682421699,-4,-2,3,-4,-7,-2,-6,-4
1558435682421699,-3,-1,-10,-10,-7,-3,-1,-7
1558435682427925,4,6,31,11,9,7,5,6
1558435682427925,2,1,-15,5,3,0,3,2
1558435682442873,-6,-5,-4,-2,13,8,6,2
1558435682442873,-1,1,-4,-13,-5,2,-5,-2
1558435682449856,-2,-2,8,4,-4,-1,-2,-3
1558435682449856,-1,-1,-1,-6,-1,-1,-4,0
1558435682465812,1,2,-1,-3,-4,-3,4,-1
1558435682465812,-1,-3,-10,5,-5,-4,-3,-1
1558435682466586,-3,-1,-12,-31,-11,-7,-9,-7
1558435682466586,-5,-5,-2,3,-9,-7,2,-7
1558435682481541,3,-1,-5,2,4,5,8,4
1558435682481541,1,5,8,3,7,2,2,0
1558435682487560,-1,-1,2,2,6,3,0,1
1558435682487560,-3,-2,2,4,1,-3,-5,-4
1558435682502484,-2,-3,-17,-24,-9,1,-5,-6
1558435682502484,4,-2,7,2,-3,-6,6,7
1558435682510801,-1,3,4,3,-4,-4,-8,-10
1558435682510801,-4,-6,-13,-7,-5,-1,-7,-7
1558435682526582,-2,-3,1,5,2,1,4,4
1558435682526582,0,-3,2,8,9,6,6,3
1558435682526582,1,-1,-1,4,2,-3,1,2
1558435682526582,1,3,-2,-14,-9,-2,2,3
1558435682542377,-2,-3,-2,1,-6,-2,-4,-3
1558435682542377,5,6,9,-10,-5,-4,-18,1
1558435682547862,-1,1,7,2,2,9,24,8
1558435682547862,-4,-6,-5,-10,2,10,9,-4
1558435682562326,2,1,4,11,12,2,5,6
1558435682562326,-3,0,-12,-10,-2,-2,-6,-6
1558435682570810,2,0,-7,2,0,-4,-8,-1
1558435682570810,-1,-1,4,-4,-7,-10,-7,-1
1558435682586483,-3,1,3,-10,-10,-5,-3,-3
1558435682586483,-3,-3,5,21,6,2,-1,-4
1558435682586483,-2,-2,2,-2,-9,-10,-6,2
1558435682586483,-2,-2,-3,6,2,-1,-2,1
1558435682601221,0,3,6,-3,-2,-4,-13,-7
1558435682601221,2,3,28,14,4,5,11,1
1558435682608201,-3,-4,-23,-13,-5,-3,-7,4
1558435682608201,4,3,3,5,6,-2,6,5
1558435682622478,-1,-1,-1,-4,1,1,-5,-4
1558435682622478,-5,-6,-6,-11,-9,-7,-13,-10
1558435682630440,-2,-5,5,8,0,-1,1,0
1558435682630440,4,2,1,-1,6,7,8,5
1558435682646415,-1,-4,-8,-3,0,0,0,0
1558435682646415,1,-1,-7,6,3,3,4,1
1558435682646415,-4,-6,-5,-11,-10,-5,-4,-5
1558435682646415,0,1,2,-2,-6,-8,-9,-3
1558435682661366,-3,-5,-8,-17,-7,-5,1,-1
1558435682661366,-3,-4,-2,18,3,-2,2,-2
1558435682667047,0,3,4,-4,-6,0,-3,-3
1558435682667047,-4,-9,-11,-17,-9,-6,-7,-6
1558435682682004,1,-2,10,9,9,3,8,7
1558435682682004,-1,2,-4,-11,3,9,17,3
1558435682689985,0,-2,-10,-1,-1,-1,2,-1
1558435682689985,-1,4,14,16,5,1,0,-1
1558435682706290,-1,-1,1,4,-16,-13,-13,0
1558435682706290,-5,-7,-5,-13,-5,-8,-1,-2
1558435682706290,1,2,4,7,2,-6,0,-3
1558435682706290,-1,-1,-4,-1,10,16,8,-2
1558435682721311,1,-1,-10,2,9,2,7,3
1558435682721311,0,0,4,2,-12,-12,-13,-4
1558435682728303,0,1,8,-2,2,5,0,0
1558435682728303,1,-3,-12,-13,-4,-3,-5,-2
1558435682743230,-5,-4,-3,-9,-8,-11,-16,-6
1558435682743230,-1,-1,3,-4,0,4,6,3
1558435682750280,0,1,-5,0,1,-3,-1,-1
1558435682750280,-4,-3,-1,0,-8,0,-4,-6
1558435682766323,3,1,3,4,5,5,-1,0
1558435682766323,2,0,1,-12,-11,-6,-3,2
1558435682766323,-2,-4,-7,-1,-2,1,-1,-4
1558435682766323,2,4,10,-11,0,-1,4,7
1558435682781460,-6,-7,-15,20,4,3,-1,-3
1558435682781460,-4,-6,-6,4,0,-10,-7,-8
1558435682788197,-2,-3,2,0,-3,-5,-4,-2
1558435682788197,-3,-2,-5,-4,-12,-11,-14,-7
1558435682802140,3,6,9,-1,3,2,12,3
1558435682802140,0,-1,-2,1,4,3,-5,2
1558435682810603,0,-5,-16,0,5,3,2,1
1558435682810603,-5,-10,-4,6,1,-3,-4,-4
1558435682825081,-4,-7,-16,-17,-16,-6,-5,-5
1558435682825081,-1,-1,-1,-10,-2,-5,-4,2
1558435682833356,1,4,2,0,3,1,0,1
1558435682833356,-1,2,1,4,-2,-1,-1,-2
1558435682841340,0,1,8,7,4,3,-1,-2
1558435682841340,2,2,-1,-7,-2,-4,-3,-1
1558435682848282,-5,-7,-8,2,-10,-3,5,-3
1558435682848282,-4,0,5,6,7,2,0,-8
1558435682862714,-1,-1,0,-4,-7,-11,-3,-2
1558435682862714,3,5,7,5,14,17,13,8
1558435682870694,2,0,7,-2,-1,-5,-6,0
1558435682870694,4,2,-2,-10,-10,-9,-1,0
1558435682885356,-3,-1,4,9,-5,-8,-10,-5
1558435682885356,-2,-5,-19,-1,-3,-1,4,-4
1558435682892338,0,2,9,1,3,4,0,4
1558435682892338,0,-2,-5,-1,-8,-3,0,-2
1558435682901314,-4,-3,2,-13,0,-2,-3,-3
1558435682901314,2,5,4,19,7,1,0,2
1558435682907297,0,-4,-3,-6,0,4,4,-1
1558435682907297,-2,0,2,3,-4,-2,-3,1
1558435682922258,1,2,3,-1,-2,-2,2,3
1558435682922258,-6,-5,-6,-1,0,1,-5,-3
1558435682930270,1,1,-1,-5,5,-2,1,2
1558435682930270,2,-1,-4,-8,0,3,1,3
1558435682945657,-4,0,5,-1,-3,-1,-5,-6
1558435682945657,-1,-3,-5,-3,-2,-1,1,-1
1558435682953406,0,0,1,5,-2,-8,-6,2
1558435682953406,-2,-4,-7,-8,0,0,4,-2
1558435682961586,0,1,2,14,13,16,11,4
1558435682961586,-5,-1,-7,-19,-14,-5,-4,-4
1558435682967138,-2,-2,1,8,0,0,0,-2
1558435682967138,2,2,1,-11,-4,-11,1,2
1558435682983336,0,0,-3,3,-1,1,1,-2
1558435682983336,0,-1,-1,1,-2,-4,-3,1
1558435682990520,-4,-6,1,-5,0,4,1,1
1558435682990520,-4,1,2,5,-1,-2,-2,-4
1558435683005037,1,0,-5,-12,-1,-2,-7,-2
1558435683005037,-3,-4,2,3,-4,-9,-4,-7
1558435683013246,0,4,4,-6,-3,4,1,-2
1558435683013246,2,1,2,11,4,2,0,4
1558435683021329,-1,-4,-2,-2,-2,-6,-1,4
1558435683021329,-2,-4,1,-8,-4,-1,-3,-2
1558435683028323,0,3,0,3,-1,-6,-6,-3
1558435683028323,-3,-4,-4,-7,-3,-3,-10,0
1558435683043185,1,0,-8,5,4,8,7,3
1558435683043185,2,0,-6,7,5,6,2,1
1558435683050086,-2,-3,-2,-8,-8,-5,-4,-5
1558435683050086,0,4,5,2,-3,4,2,2
1558435683065145,-5,-8,-9,-4,-1,-5,-1,-1
1558435683065145,-3,-1,7,11,7,5,3,0
1558435683073137,-2,-4,-8,-19,-6,0,-7,-2
1558435683073137,0,1,-1,4,5,0,5,2
1558435683087843,2,2,1,-7,-7,-3,-2,-5
1558435683087843,-2,-5,-4,-2,-2,-5,-3,-1
1558435683088811,2,4,-2,3,1,4,1,6
1558435683088811,-2,-3,7,12,7,0,0,-3
1558435683102774,0,-1,-4,-5,-5,-5,-2,-1
1558435683102774,-1,-7,-4,-9,-6,2,0,-3
1558435683110108,1,2,-7,-3,-3,-13,-7,0
1558435683110108,-4,-5,-7,-4,2,5,3,-5
1558435683124715,2,6,12,18,3,1,1,1
1558435683124715,0,0,-1,-16,-7,-7,-5,-6
1558435683133196,-4,-5,-4,9,7,8,4,2
1558435683133196,3,0,1,-9,0,0,1,3
1558435683149112,-1,0,6,20,7,5,5,2
1558435683149112,-3,-3,-4,-3,-4,-3,-5,-4
1558435683149112,1,4,7,8,-2,-2,-10,-2
1558435683149112,-2,-3,-3,-8,2,5,7,0
1558435683163099,0,-1,-12,-20,-2,5,3,-1
1558435683163099,-1,0,1,5,3,-3,0,2
1558435683170401,-3,-4,1,1,-7,-8,-3,-3
1558435683170401,0,-2,-7,0,-5,-4,-8,0
1558435683185080,-1,-3,8,3,3,5,5,-2
1558435683185080,2,4,-8,-6,-2,-2,3,5
1558435683193327,-2,0,3,12,3,-2,0,-4
1558435683193327,-2,-4,1,7,0,-9,2,1
1558435683207992,-4,-4,-14,-18,-5,-2,-4,-2
1558435683207992,-3,-7,-13,-4,-1,2,-3,-5
1558435683208987,1,4,6,-11,-6,-1,-1,0
1558435683208987,-4,-4,-8,7,3,-2,-1,-8
1558435683223379,1,4,1,-2,-2,1,-2,2
1558435683223379,1,1,10,9,-9,-11,-9,-5
1558435683230305,2,0,-2,-1,13,15,15,7
1558435683230305,-3,-6,2,-4,-4,1,-3,1
1558435683245379,-5,-6,-5,-5,-2,-4,-1,-6
1558435683245379,2,4,3,-5,2,1,0,2
1558435683252402,0,3,5,17,6,-3,-4,-4
1558435683252402,3,3,0,-17,-11,-5,-5,0
1558435683268320,-2,1,2,-6,-5,-6,-6,-3
1558435683268320,-4,-2,11,1,-5,-4,1,1
1558435683268320,0,-5,-6,-2,-4,-10,-7,-3
1558435683268320,-1,-2,-7,4,1,4,-1,-3
1558435683282283,-4,-3,9,13,4,-3,-7,-8
1558435683282283,-1,-4,-12,-15,0,3,2,2
1558435683290262,-5,-6,-6,-8,-4,-3,0,-4
1558435683290262,-2,3,4,-7,-10,-9,-8,-1
1558435683306221,3,2,5,0,0,1,5,3
1558435683306221,1,-2,-2,2,-2,-6,-1,3
1558435683312688,1,-1,3,1,0,1,-1,1
1558435683312688,2,2,-12,1,6,5,2,3
1558435683328686,-4,-4,-4,-5,-6,-2,-3,-4
1558435683328686,0,1,2,0,0,-5,-4,-3
1558435683329176,-6,-5,-1,3,-3,-7,-7,-2
1558435683329176,1,6,-4,2,1,0,4,-1
1558435683343215,0,-3,-5,-2,-2,-4,-7,-2
1558435683343215,-4,-7,3,6,3,3,4,2
1558435683350195,0,0,-1,-10,-1,1,-3,0
1558435683350195,-1,1,12,1,2,-2,-5,-9
1558435683366443,3,2,-9,-2,-3,3,-4,4
1558435683366443,2,-1,-14,-8,-6,-6,2,0
1558435683373185,-1,-3,-1,1,0,4,6,1
1558435683373185,1,-2,5,-2,5,3,1,2
1558435683388001,0,-4,-10,0,-5,-6,1,-1
1558435683388001,-5,-3,2,3,0,3,-3,-3
1558435683388998,1,5,10,7,1,-4,2,1
1558435683388998,0,0,0,1,-6,-5,-5,1
1558435683403229,-2,0,9,-4,0,-1,1,-1
1558435683403229,2,2,-1,12,9,6,5,3
1558435683410275,-2,-4,-7,-15,-10,-2,-4,-4
1558435683410275,-1,-2,-2,-2,-4,-5,0,0
1558435683425253,1,4,5,9,11,0,4,1
1558435683425253,-2,-2,-1,-14,-13,-7,-17,-7
1558435683433228,-2,-4,-9,-3,-3,0,2,-2
1558435683433228,0,0,5,5,2,3,-5,-1
1558435683448838,-4,-7,-16,-23,-11,-3,-3,-2
1558435683448838,6,7,8,5,11,3,7,4
1558435683448838,-2,-5,-6,-3,-3,-1,-4,-4
1558435683448838,-2,-2,1,7,-2,-6,-1,-1
1558435683463951,0,-1,3,4,-2,-4,2,-3
1558435683463951,-2,1,0,1,1,-2,-5,-1
1558435683470052,1,3,-4,-10,-1,1,-1,-2
1558435683470052,-2,-5,-2,7,9,4,3,-4
1558435683484743,2,2,8,3,3,5,1,0
1558435683484743,-2,-4,-5,-4,-7,-3,-1,-3
1558435683492724,1,1,-1,-6,0,0,9,8
1558435683492724,-5,-4,-17,-2,0,-4,-4,-7
1558435683507920,-1,1,13,3,-2,-6,-2,-6
1558435683507920,0,-4,-4,7,3,3,-3,-1
1558435683508683,1,3,13,12,2,5,5,-1
1558435683508683,1,3,-3,-7,-1,0,-2,7
1558435683523804,-1,-1,-3,-9,-7,-8,-4,2
1558435683523804,-1,1,4,6,-1,-2,3,-1
1558435683530649,2,-3,-8,-7,2,2,-3,-2
1558435683530649,-1,1,8,-3,4,2,0,-1
1558435683545618,-2,0,-6,-12,-8,-2,-4,-2
1558435683545618,-1,-1,2,-2,-1,-2,5,1
1558435683552850,-4,-5,-2,6,-6,-11,-6,-4
1558435683552850,-2,-4,-6,-13,1,7,6,0
1558435683568517,0,1,12,8,1,-1,0,3
1558435683568517,-5,1,1,-16,-5,-1,-4,-5
1558435683568517,-6,-4,-3,6,-3,-3,-8,-5
1558435683568517,1,1,2,9,3,0,10,1
1558435683583480,2,-3,-5,-3,2,2,0,4
1558435683583480,0,0,-3,-5,-3,-2,2,3
1558435683589744,-6,2,5,12,3,-2,-6,-13
1558435683589744,-1,-1,-4,-20,-8,1,5,4
1558435683605732,-2,-1,-6,4,3,4,-10,-3
1558435683605732,-1,0,-7,-4,8,8,6,2
1558435683612710,-2,-5,-3,-8,0,2,1,1
1558435683612710,1,-3,-2,7,-4,-4,-6,-3
1558435683628659,0,1,5,4,3,6,3,0
1558435683628659,0,0,-5,-6,-9,-9,-6,-1
1558435683629508,-3,-5,2,8,5,3,1,0
1558435683629508,0,2,10,3,3,-3,-1,0
1558435683644484,-4,-5,-6,9,1,-5,-6,2
1558435683644484,-1,-3,-7,-20,-5,4,2,-2
1558435683650302,0,1,-5,-5,-11,-11,-5,-1
1558435683650302,-2,-5,-12,-7,-11,-2,-11,-5
1558435683665585,3,0,0,9,4,-2,10,4
1558435683665585,2,1,8,22,14,1,0,-2
1558435683672515,-3,0,-7,-22,-11,-3,1,0
1558435683672515,0,2,-7,-9,-9,-6,-7,-3
1558435683688456,-3,-3,1,-7,-11,-7,-7,-6
1558435683688456,-4,-6,1,8,5,4,-9,-1
1558435683689197,2,1,-1,1,7,2,2,2
1558435683689197,2,4,15,12,4,2,8,4
1558435683712166,-3,-1,-10,-5,-3,-4,-1,2
1558435683712166,-4,-3,1,-8,-6,-3,-5,-9
1558435683713131,3,1,12,8,0,1,1,4
1558435683713131,-6,-5,-15,-10,-11,-4,-15,-9
1558435683725480,1,1,-4,-5,5,3,9,5
1558435683725480,0,-2,-1,3,-3,-1,-1,2
1558435683733284,-3,-1,-4,-5,-6,-7,-1,-4
1558435683733284,0,-1,2,13,10,5,0,1
1558435683748422,-2,-1,-3,-10,-6,-2,-3,-3
1558435683748422,-1,0,-1,-2,-2,0,-2,-4
1558435683749036,0,1,-2,8,-4,-5,-1,-4
1558435683749036,-1,-2,0,-8,2,5,0,0
1558435683763998,-2,-1,-9,-7,-1,2,3,0
1558435683763998,-2,-5,2,2,-4,-4,-3,-6
1558435683770295,0,2,-1,-5,5,3,2,6
1558435683770295,-5,-6,-3,2,-2,-10,-11,0
1558435683784941,-1,-1,-1,0,2,3,11,-1
1558435683784941,1,2,-1,-4,-1,-1,5,5
1558435683793256,-6,-5,-4,-3,-3,-4,-7,-12
1558435683793256,1,4,8,8,2,0,5,2
1558435683808088,1,4,3,-2,0,1,-7,2
1558435683808088,0,1,3,2,2,2,0,0
1558435683815189,-6,-10,-20,-15,-15,-12,-6,-2
1558435683815189,-8,-6,-3,0,-5,-8,-5,-8
1558435683823864,2,-2,0,-1,2,1,-4,-2
1558435683823864,1,3,8,13,-1,-7,3,1
1558435683830296,1,2,1,1,9,11,5,4
1558435683830296,3,4,4,0,-2,-2,-3,1
1558435683845250,-5,-6,-3,-4,-8,-6,-8,-5
1558435683845250,0,-1,-8,-1,4,-1,3,4
1558435683853090,2,5,14,10,7,6,3,-2
1558435683853090,-1,-2,0,5,-2,-2,1,-1
1558435683867859,-7,-7,-8,-18,-13,-14,-12,-9
1558435683867859,-1,0,-4,2,5,13,8,4
1558435683875120,1,-4,-11,-11,-2,1,-1,-1
1558435683875120,-1,1,6,4,1,1,4,1
1558435683883820,-3,-5,-3,12,5,-3,-5,-4
1558435683883820,-2,-4,-4,-10,-9,-7,-2,-4
1558435683890389,3,2,4,12,10,-1,-3,8
1558435683890389,-2,2,3,-6,-4,-1,-8,-9
1558435683905666,0,-1,-4,-12,0,-5,4,1
1558435683905666,-5,-3,-3,3,-1,0,-2,-5
1558435683912335,-4,-3,-11,-15,-11,-2,-6,-4
1558435683912335,1,-2,-2,1,1,1,3,3
1558435683927629,2,5,13,7,9,8,6,6
1558435683927629,-1,-1,4,11,0,-4,-7,-5
1558435683935274,0,3,5,5,11,12,7,6
1558435683935274,-2,-1,-8,-4,-6,-4,-7,-8
1558435683944541,-2,-6,-5,-4,-4,1,-4,-3
1558435683944541,0,-5,1,-2,5,6,3,1
1558435683950233,-1,0,1,1,-4,-10,1,-1
1558435683950233,-5,-8,-8,-6,-2,2,2,0
1558435683965529,3,4,0,4,-2,-3,3,1
1558435683965529,2,5,1,2,0,-12,-3,3
1558435683972510,-2,-2,-5,-12,-1,3,-3,-2
1558435683972510,0,-3,6,16,10,9,5,3
1558435683987455,-1,-2,-3,-15,-13,-9,-3,1
1558435683987455,-2,-3,-2,-7,-5,-4,-5,-3
1558435683995446,4,2,-1,-8,0,-5,0,-1
1558435683995446,-4,-5,13,14,-2,-9,0,-3
1558435684011431,-2,-3,-10,1,-7,2,-2,0
1558435684011431,2,3,1,-9,-4,-3,-7,-2
1558435684011431,2,1,3,19,12,16,14,7
1558435684011431,0,0,4,0,-1,-4,-5,-4
1558435684025371,-2,-1,0,-11,-6,-2,-2,-1
1558435684025371,1,1,0,3,-7,-15,-7,-1
1558435684033282,-3,-3,-3,-1,4,7,0,-5
1558435684033282,1,1,-13,-5,3,2,3,3
1558435684056197,-1,1,15,22,11,5,4,0
1558435684056197,-1,1,-10,-10,-7,-2,-9,-4
1558435684056197,-5,-10,3,1,-2,-5,2,-1
1558435684056197,4,5,-9,-22,-3,0,6,3
1558435684071138,0,3,0,16,8,4,-2,-2
1558435684071138,-6,-7,4,2,6,9,3,-2
1558435684071138,-4,-4,-7,-18,-14,-10,-8,-4
1558435684071138,0,-1,-8,-7,4,-4,-2,1
1558435684084875,-1,-4,-1,4,-4,-5,-6,-1
1558435684084875,0,-2,-10,-8,-4,7,3,-2
1558435684093075,-2,-3,4,8,-2,-2,-13,-5
1558435684093075,1,2,2,-1,-3,2,7,2
1558435684108020,0,4,-3,-2,5,-2,2,1
1558435684108020,-3,-6,-5,-9,-4,-4,1,-1
1558435684114793,-2,-2,-4,-10,-3,3,-9,-4
1558435684114793,-3,-1,12,10,-2,-2,-7,-7
1558435684131023,4,2,0,3,11,9,12,6
1558435684131023,-5,-3,-3,6,-1,-3,-2,0
1558435684131751,1,2,-4,-4,-7,-10,3,3
1558435684131751,-3,-4,-3,-14,-5,0,2,-3
1558435684144714,-7,-2,-2,6,4,1,-13,-11
1558435684144714,-3,-3,-3,-3,1,3,-1,-3
1558435684153020,0,1,0,-4,-17,-14,-9,-1
1558435684153020,-1,-4,-2,-3,-10,-10,-1,0
1558435684167652,0,-1,2,-2,-1,4,1,2
1558435684167652,0,1,0,-18,4,8,0,-2
1558435684174663,-5,-6,-5,12,3,-7,-5,-7
1558435684174663,0,0,-6,-3,2,1,5,3
1558435684191113,-2,1,1,1,-2,-1,2,-2
1558435684191113,2,3,7,19,6,-2,-6,-5
1558435684191588,2,-3,-15,-15,-7,-3,0,4
1558435684191588,2,6,0,4,10,12,9,1
1558435684205743,-6,-4,4,-20,-9,-3,-10,-2
1558435684205743,1,0,-3,7,4,4,12,3
1558435684212958,0,0,9,18,11,3,-1,-1
1558435684212958,-1,-4,-7,-3,-13,-8,-13,-4
1558435684227856,3,0,1,4,1,-3,3,3
1558435684227856,0,3,2,-2,0,-1,7,4
1558435684235730,-1,-2,0,0,3,2,4,0
1558435684235730,-4,-3,-6,-17,-10,-1,-9,-4
1558435684250432,-2,1,6,15,1,-3,2,-2
1558435684250432,-2,-2,1,7,3,-2,-1,0
1558435684251427,3,2,-2,-15,2,10,10,1
1558435684251427,0,2,3,10,12,2,0,3
1558435684265710,-2,-4,-6,-12,-8,-5,1,-5
1558435684265710,0,1,-2,-3,-5,-4,-8,-3
1558435684272694,0,6,6,5,1,1,-2,-1
1558435684272694,0,2,21,28,6,2,3,2
1558435684287331,0,-3,-22,-18,1,2,0,1
1558435684287331,-2,-4,3,4,1,-3,-2,4
1558435684295309,-3,-4,-6,-9,-3,5,-5,-5
1558435684295309,-2,-3,-1,-4,-6,-5,-5,-2
1558435684310271,4,6,8,11,5,-1,11,4
1558435684310271,-5,-5,-5,4,3,2,-5,-5
1558435684311267,-1,-2,4,1,-3,-1,-2,0
1558435684311267,0,1,-7,-6,-4,0,4,1
1558435684325230,-4,-5,3,0,-3,-1,-9,-7
1558435684325230,3,4,-5,-14,1,3,8,3
1558435684332211,-2,-3,1,7,2,-4,-1,1
1558435684332211,-2,-4,3,6,0,0,-8,-1
1558435684347171,0,0,2,-7,-6,-1,0,0
1558435684347171,-4,-5,-10,-14,-14,-12,-13,-5
1558435684355150,-1,3,4,22,12,9,9,1
1558435684355150,0,-2,-5,-10,-2,3,2,1
1558435684370109,2,1,-2,-8,-5,-6,-6,2
1558435684370109,-3,-6,5,17,2,-5,-2,-3
1558435684371106,3,7,5,-11,-3,-3,0,1
1558435684371106,-4,-3,-6,-4,-4,-5,0,-3
1558435684385069,-2,-6,-10,-4,5,8,1,0
1558435684385069,3,6,10,-3,5,14,12,4
1558435684392050,0,-3,1,6,1,-4,-3,0
1558435684392050,-2,-3,-11,-6,-3,-8,-4,-3
1558435684407010,-2,0,1,-5,3,0,-1,-1
1558435684407010,-2,-3,-3,7,-5,-4,-10,-4
1558435684414989,-4,1,17,7,1,-2,-1,-4
1558435684414989,3,1,-14,-28,0,-6,8,6
1558435684430947,-2,0,2,11,3,4,1,0
1558435684430947,-2,-1,-9,-11,-3,1,-2,-6
1558435684431944,-3,-1,2,-12,-12,-9,-3,-4
1558435684431944,-2,-2,13,28,7,-10,-9,-3
1558435684444909,0,-2,-4,-7,-7,-2,-5,-3
1558435684444909,-2,-2,-4,-4,-5,-3,0,-2
1558435684451891,-1,-3,-11,6,4,4,1,-1
1558435684451891,0,3,14,-14,-5,-3,-5,-2
1558435684466851,-5,-7,-14,1,7,4,4,1
1558435684466851,2,2,6,10,5,-4,0,2
1558435684474830,1,-3,-10,-10,-7,-5,-2,-4
1558435684474830,-1,-2,4,13,-1,2,-3,0
1558435684490801,-2,-2,-13,-21,-13,-11,-14,-5
1558435684490801,-4,1,0,-14,1,9,13,-2
1558435684490801,0,1,6,26,13,0,0,3
1558435684490801,1,-1,-1,-4,7,9,10,4
1558435684504749,-1,-3,12,24,1,-2,-6,-1
1558435684504749,-2,-3,-11,-20,-12,-3,-5,-5
1558435684512729,0,-1,-6,-4,4,-2,4,0
1558435684512729,-3,0,-7,-14,-8,1,1,-4
1558435684527688,-2,0,6,17,-2,-9,-4,-3
1558435684527688,2,1,3,-1,5,5,1,4
1558435684534671,-8,-10,-4,11,-4,3,-3,-6
1558435684534671,-4,-5,-13,-19,-11,-13,-14,-3
1558435684550627,-1,0,-3,-5,-4,-4,6,1
1558435684550627,-1,0,6,11,3,-2,-9,-2
1558435684551624,1,5,2,-4,-1,-4,5,4
1558435684551624,-2,-4,-15,-6,-9,-3,-3,-2
1558435684564589,-2,-4,0,-13,-7,-5,-7,-4
1558435684564589,2,1,14,28,19,8,9,4
1558435684572568,-2,-3,-14,-24,-9,-1,-12,-5
1558435684572568,0,1,9,15,1,4,-2,-2
1558435684587527,4,1,-6,-11,0,-1,9,5
1558435684587527,-1,-5,-1,-1,-6,-8,-2,-4
1558435684594509,2,5,7,-1,-1,0,1,0
1558435684594509,-3,-4,-12,-1,4,5,-4,-4
1558435684612723,-3,1,9,10,2,-1,-4,-3
1558435684612723,5,2,-4,-19,-11,-6,-1,6
1558435684612723,-3,-5,-3,17,4,3,3,1
1558435684612723,1,3,6,-2,12,9,7,-1
1558435684624428,-1,1,2,15,7,5,2,-2
1558435684624428,-2,-1,2,-1,-1,-1,-1,-1
1558435684632407,0,3,-2,-11,-11,-8,-11,-7
1558435684632407,-1,-3,-3,2,-1,0,1,2
1558435684647368,-2,-6,-3,-5,-4,0,9,0
1558435684647368,4,6,0,8,6,1,2,4
1558435684654349,-1,-4,7,1,-2,1,-3,1
1558435684654349,-1,1,-6,12,5,1,4,3
1558435684672301,-1,1,5,-20,-3,-10,-1,2
1558435684672301,-8,-8,-21,-12,-12,-7,-6,-6
1558435684672301,-1,0,-5,-8,-2,2,-1,-5
1558435684672301,-2,2,6,5,-2,-4,-16,-7
1558435684684295,-3,-6,7,9,-4,2,-7,-7
1558435684684295,-2,-4,-5,3,2,-1,3,-2
1558435684692247,5,7,5,-1,8,10,15,9
1558435684692247,-1,-2,0,2,-2,-6,-3,-3
1558435684707207,-1,0,0,1,-7,-8,-1,-2
1558435684707207,-1,-1,0,-3,-2,-1,-9,0
1558435684715234,-5,-4,-15,-23,-11,-4,-7,-9
1558435684715234,-1,1,6,6,-4,-4,-3,-5
1558435684730181,3,1,0,7,6,8,3,8
1558435684730181,-2,0,-1,-10,2,1,3,-5
1558435684738125,0,0,-5,-2,-6,-9,-5,2
1558435684738125,-5,-9,-3,3,4,-3,2,-2
1558435684745105,1,4,-2,-1,0,8,3,-2
1558435684745105,1,-1,1,-7,-7,-8,1,3
1558435684752087,-4,-7,-1,-7,-3,0,-2,-3
1558435684752087,3,-2,-9,0,2,4,9,1
1558435684767048,1,1,-8,-6,3,1,4,7
1558435684767048,-1,-6,-3,11,1,-2,-3,-2
1558435684775060,-3,-2,-5,-9,-9,-7,-11,0
1558435684775060,5,6,13,-3,6,10,13,7
1558435684789986,0,-3,-6,0,2,-1,-1,-4
1558435684789986,-4,-1,-6,-13,-13,-8,-4,-3
1558435684797964,3,0,2,3,1,-4,-8,0
1558435684797964,-4,-7,-4,-6,-6,1,6,1
1558435684804982,-6,-2,-4,-9,-3,1,-8,-8
1558435684804982,3,3,4,9,6,-3,5,5
1558435684811966,3,-1,1,-2,5,3,7,4
1558435684811966,-2,3,0,3,-1,-1,-3,-4
1558435684826926,-5,-7,-6,1,-8,-8,-11,-6
1558435684826926,-6,-6,-8,-21,-6,-1,-5,-4
1558435684834865,1,2,12,8,9,8,7,2
1558435684834865,1,0,-9,-22,-12,-11,-6,-3
1558435684849825,0,-1,-1,1,-3,0,8,-1
1558435684849825,0,-4,-4,9,5,2,-9,3
1558435684857804,1,4,7,1,4,7,10,2
1558435684857804,0,3,2,2,3,4,2,2
1558435684864785,-3,-2,-12,-15,-5,2,-9,-8
1558435684864785,-3,-5,9,6,-3,1,6,-3
1558435684872764,1,0,1,6,3,2,3,1
1558435684872764,-2,-4,0,-4,1,0,-7,-2
1558435684887724,3,2,2,9,1,-9,5,6
1558435684887724,0,-2,1,2,1,1,-1,-1
1558435684894707,-4,-4,-10,-4,-1,6,-4,-5
1558435684894707,-2,0,4,3,-7,-8,-8,-2
1558435684909692,1,-1,-6,9,6,5,7,4
1558435684909692,-1,0,-8,-18,-6,-5,-7,-4
1558435684917645,-2,-3,-2,8,-2,-6,-5,-3
1558435684917645,0,-4,-3,-4,-9,-2,-3,-4
1558435684932662,1,1,6,5,12,5,11,7
1558435684932662,-5,0,-4,-6,-7,-5,-4,-5
1558435684933603,-5,-5,-13,-4,-3,2,0,-3
1558435684933603,2,3,10,10,11,8,5,5
1558435684947568,-2,-5,-4,-19,-6,-4,-13,-6
1558435684947568,-2,-3,5,10,-9,-10,-6,-8
1558435684954574,-3,-3,-19,-5,0,4,2,2
1558435684954574,3,3,5,2,9,0,4,6
1558435684969506,-2,-2,4,12,-5,-1,-6,-4
1558435684969506,4,6,-9,-15,1,3,1,7
1558435684978482,-1,-2,5,1,-5,-7,1,-1
1558435684978482,-2,-1,-3,5,1,3,-3,-3
1558435684993445,1,1,14,10,3,-2,1,0
1558435684993445,4,3,-3,2,4,-8,5,8
1558435684993445,1,2,5,-4,2,0,-3,-1
1558435684993445,-4,-6,-9,5,-7,-2,3,-3
1558435685008401,1,2,9,-2,4,0,-2,-2
1558435685008401,-3,1,0,3,-4,3,-6,-6
1558435685015383,-1,-3,0,7,-1,-8,-7,-1
1558435685015383,0,2,2,-8,-1,1,1,1
1558435685029348,-3,-5,-16,-9,-5,0,-1,-4
1558435685029348,0,-4,0,10,8,9,3,-1
1558435685038324,4,5,2,1,-1,1,3,4
1558435685038324,-4,-9,-3,-6,-8,-11,-14,-6
1558435685053283,-5,-2,9,12,2,2,-3,-6
1558435685053283,0,-3,-15,-5,2,5,2,0
1558435685053283,-3,-1,3,-12,-8,-5,-5,-5
1558435685053283,1,1,1,10,0,-3,2,3
1558435685067247,1,1,-3,-6,0,-3,2,3
1558435685067247,-3,-6,4,6,1,-5,-7,-2
1558435685075225,-1,-1,-3,0,-11,-8,-9,-2
1558435685075225,-3,-3,-7,-18,-11,-5,-4,-6
1558435685090184,-1,-2,-17,-6,1,2,6,3
1558435685090184,2,9,28,23,11,8,4,1
1558435685098161,-3,-4,-17,-33,-11,-8,-6,-2
1558435685098161,-2,-5,0,-3,7,13,7,-2
1558435685113153,-4,-4,1,5,0,-5,-3,-4
1558435685113153,0,1,-6,-9,-9,-1,-1,-2
1558435685114125,-2,0,-7,6,-2,-6,-4,-3
1558435685114125,-1,0,-3,-6,1,1,4,3
1558435685127085,3,4,3,-9,4,1,3,2
1558435685127085,-3,-4,-2,-5,1,1,-1,-4
1558435685143044,1,-3,1,0,-12,-6,0,0
1558435685143044,0,0,-3,2,-4,-3,-6,2
1558435685150027,-3,-1,-3,-10,-3,0,-1,0
1558435685150027,1,0,4,-1,2,-2,-2,4
1558435685158002,-2,-1,-1,-2,2,4,5,-2
1558435685158002,-2,-4,-10,-3,-2,-7,-5,-3
1558435685172972,2,0,8,16,9,12,3,3
1558435685172972,-1,-2,-9,-20,-1,0,7,0
1558435685173960,-5,-3,9,6,3,-2,-5,-3
1558435685173960,1,3,-3,0,1,1,4,0
1558435685186931,-1,-1,2,8,-7,-15,-7,-3
1558435685186931,2,1,-1,-2,-2,2,-3,1
1558435685194904,1,2,5,7,10,5,9,5
1558435685194904,-3,-1,2,-7,4,6,2,-2
1558435685218839,0,0,-6,-12,-10,-5,-7,-2
1558435685218839,1,-4,2,11,-6,-11,-4,0
1558435685218839,-1,1,2,2,4,2,2,-3
1558435685218839,1,1,5,3,-2,-9,-7,0
1558435685232802,-4,-7,-8,-13,-7,-2,-8,-6
1558435685232802,3,2,2,2,1,-1,6,3
1558435685233801,-7,-6,-6,17,-1,-9,-4,0
1558435685233801,-3,-4,-5,-28,-8,-2,-5,-2
1558435685247761,0,-1,0,-2,-4,-2,-6,-4
1558435685247761,-3,-1,3,-2,-5,-3,-2,-3
1558435685254744,1,-1,-7,-3,-3,-3,-3,1
1558435685254744,-2,-4,6,12,3,-4,1,1
1558435685269703,-3,0,2,3,1,0,-2,-5
1558435685269703,-2,-2,-8,-8,0,2,-4,-5
1558435685277687,-1,-1,1,4,4,4,4,-2
1558435685277687,-4,-3,-9,-18,-13,-7,-7,-2
1558435685292643,4,6,11,4,3,-1,-1,3
1558435685292643,-4,-3,-7,-17,-6,0,4,-3
1558435685293640,0,-4,-8,1,6,5,0,3
1558435685293640,0,-1,-2,-1,-8,-3,-5,-2
1558435685307602,4,4,-3,0,1,2,8,5
1558435685307602,4,3,6,6,3,2,0,2
1558435685314588,-8,-4,5,-1,0,-4,-1,-6
1558435685314588,-3,-1,-2,2,1,-4,-7,-6
1558435685329544,-2,-1,-6,-9,-6,1,-6,-3
1558435685329544,-2,-5,5,9,2,3,-3,-2
1558435685337523,2,3,0,-2,7,7,-6,-2
1558435685337523,-1,-1,-3,1,0,-5,5,-1
1558435685352487,-1,-2,0,6,2,0,0,-2
1558435685352487,0,-2,-10,-14,-2,-1,1,0
1558435685353479,4,2,-2,0,-6,-4,1,3
1558435685353479,0,1,7,8,4,3,1,-3
1558435685367445,-1,-1,1,-4,4,5,2,0
1558435685367445,-3,-3,1,11,-3,-6,-8,-5
1558435685374423,2,3,2,-2,6,8,12,2
1558435685374423,0,1,4,8,8,7,3,2
1558435685389392,-1,-5,-5,-2,-6,-7,-5,-5
1558435685389392,-2,-3,2,5,0,0,1,-2
1558435685397362,1,3,5,-4,-3,-4,-8,1
1558435685397362,-2,-5,-11,-10,-3,3,3,1
1558435685413323,-1,-1,-4,-8,-4,-2,2,1
1558435685413323,1,3,14,18,10,4,-2,-1
1558435685413323,-3,-7,-12,-18,-19,-12,-4,-4
1558435685413323,0,-2,-3,1,1,0,0,-1
1558435685427281,0,-1,-2,-2,-7,-10,2,5
1558435685427281,0,4,-2,12,5,10,3,0
1558435685435272,-1,-2,10,-14,-1,-1,-2,0
1558435685435272,0,-2,-5,8,-2,-6,0,-1
1558435685450221,-5,-5,-6,-15,-3,-3,-1,-5
1558435685450221,-1,1,-2,-1,-4,-4,-3,3
1558435685457201,-1,1,0,-1,-1,-3,1,1
1558435685457201,0,0,4,5,-2,-5,-6,0
1558435685473159,1,1,3,6,6,4,5,0
1558435685473159,-3,-3,-8,-4,-3,-1,1,-5
1558435685474158,2,-1,-2,-10,-1,1,-6,-1
1558435685474158,-2,1,-2,-2,4,7,10,1
1558435685487121,-2,-2,-1,0,0,2,0,-1
1558435685487121,-4,-4,-1,-4,-8,-6,-5,-2
1558435685495102,0,1,-10,-5,-2,4,-2,0
1558435685495102,2,4,14,15,5,-4,6,3
1558435685510066,1,-1,-1,-4,0,5,-3,0
1558435685510066,-4,-7,-9,-18,-6,-2,3,-3
1558435685517044,-3,-3,-1,28,9,0,-5,0
1558435685517044,3,4,-4,-13,-6,3,2,2
1558435685533001,-5,-5,0,-5,-6,-4,0,-2
1558435685533001,2,0,2,-9,-2,-1,2,4
1558435685534000,0,1,17,33,10,-1,5,-2
1558435685534000,0,-4,-1,7,2,3,-9,-3
1558435685546962,-4,-2,-8,-4,-10,-10,-9,-3
1558435685546962,-2,-1,-4,-6,-4,-8,-6,-5
1558435685554941,-2,0,-1,-3,-2,-1,-1,-3
1558435685554941,-2,-4,-6,-2,-1,-5,-8,0
1558435685569902,1,0,3,0,-3,-2,1,-2
1558435685569902,-3,-2,-10,-3,1,0,-2,-2
1558435685576882,0,-2,1,-12,-12,-2,0,-1
1558435685576882,-2,-2,3,3,0,-9,-6,-2
1558435685592840,-4,-5,-7,-2,-6,-7,-2,-1
1558435685592840,0,2,1,-7,1,5,3,5
1558435685593837,-3,-4,0,4,4,3,1,-3
1558435685593837,-4,-2,2,-1,-3,2,2,-5
1558435685607799,0,-2,-10,-10,-5,-2,-3,-3
1558435685607799,-3,-4,1,4,-5,-8,-3,0
1558435685615068,0,0,-4,-8,0,0,-10,-5
1558435685615068,3,5,4,-9,-8,-5,-5,2
1558435685629740,-2,-2,12,14,7,1,1,-5
1558435685629740,2,-3,-1,7,0,-1,0,1
1558435685637718,-1,0,-6,1,4,5,3,2
1558435685637718,4,7,-2,-20,1,9,3,3
1558435685652685,1,6,23,42,18,11,4,1
1558435685652685,-5,-9,-22,-20,-9,-6,-13,-6
1558435685660658,-1,0,-5,-5,-2,-5,3,0
1558435685660658,-2,-5,-2,6,3,5,1,-1
1558435685667639,1,-1,-6,-7,-3,-2,-2,2
1558435685667639,0,3,16,5,3,0,1,-2
1558435685674634,-2,-1,-3,-9,-4,0,1,-3
1558435685674634,-4,-6,-7,-1,-6,3,-2,-7
1558435685689581,4,5,4,5,10,8,11,6
1558435685689581,-6,-10,-8,8,-6,-9,-2,-2
1558435685697558,1,8,6,-6,-7,-3,-2,-2
1558435685697558,-7,-7,3,13,-1,-8,-10,-5
1558435685712519,-3,-4,-5,-24,-6,0,-2,-4
1558435685712519,5,6,-4,-9,-4,2,-2,2
1558435685720497,2,0,-5,5,10,4,10,5
1558435685720497,3,6,12,15,2,0,-3,5
1558435685727478,-4,4,-5,-4,-5,-13,-14,-13
1558435685727478,-3,-1,2,-16,-1,-5,3,1
1558435685734461,-5,-11,-4,-3,-8,-1,1,0
1558435685734461,-4,-5,-1,-8,5,1,-1,-4
1558435685749421,-2,-6,-6,3,-10,-10,-8,-2
1558435685749421,-1,3,1,-9,1,6,-3,-8
1558435685757402,-2,8,27,41,21,14,5,-1
1558435685757402,2,-3,-10,-3,-2,-4,0,0
1558435685781333,-2,-6,-14,-12,-6,2,7,3
1558435685781333,2,3,2,3,1,-3,-5,-1
1558435685782332,2,-1,-4,0,-4,-5,-11,1
1558435685782332,-3,-1,-1,1,-3,-4,7,-4
1558435685787319,1,2,3,-4,0,2,-3,0
1558435685787319,-4,-7,-3,-12,-16,-10,-8,-6
1558435685795297,0,-2,-20,-10,5,2,5,3
1558435685795297,5,6,26,32,17,7,3,4
1558435685818236,-3,-5,-9,4,-7,-6,-4,1
1558435685818236,-11,-11,-28,-25,-10,-13,-11,-13
1558435685818236,1,1,4,-23,-8,2,1,-5
1558435685818236,-1,4,2,20,5,6,6,2
1558435685832198,1,0,-4,-16,1,8,7,1
1558435685832198,2,4,7,16,11,7,2,7
1558435685840176,-2,-2,-2,-7,-8,-11,-17,-3
1558435685840176,-5,-5,-14,3,4,0,5,-4
1558435685855141,3,7,15,-12,4,3,4,3
1558435685855141,-2,-7,-23,-28,-18,-3,-1,-1
1558435685856135,0,-2,6,22,2,3,-5,-4
1558435685856135,5,4,-3,-35,0,12,16,8
1558435685870096,-2,-1,12,12,10,2,1,1
1558435685870096,3,11,19,28,8,-5,-5,1
1558435685877078,-9,-16,-23,-14,-10,-12,0,0
1558435685877078,1,1,2,-11,-21,-10,-13,-2
1558435685892040,-5,-6,-9,17,9,2,-14,-5
1558435685892040,1,4,11,6,-1,-2,0,-3
1558435685901015,-1,-1,5,9,0,-1,0,-1
1558435685901015,1,1,-26,-41,-22,-13,-4,-1
1558435685914978,-8,-10,-3,18,9,4,5,0
1558435685914978,9,6,12,14,22,23,9,11
1558435685915974,1,3,2,-8,-3,-9,-3,0
1558435685915974,-5,-6,-14,-14,-13,-6,-1,-6
1558435685929936,-2,-2,1,-2,-12,-10,-8,-3
1558435685929936,-8,-10,-5,3,-9,-10,-1,-5
1558435685936920,2,4,5,-8,-3,-5,5,1
1558435685936920,5,6,16,25,24,12,7,9
1558435685951878,-1,-1,-20,-35,-15,-2,-5,-2
1558435685951878,-4,-5,6,22,12,10,5,0
1558435685960855,-1,2,-2,-18,-17,-10,3,0
1558435685960855,-6,-9,-3,4,-3,-3,-5,-7
1558435685975815,7,7,-5,-3,3,-2,2,5
1558435685975815,3,-1,11,19,17,7,9,5
1558435685975815,2,1,-3,-6,1,13,2,-3
1558435685975815,-5,-4,-2,3,-2,-10,-13,-7
1558435685989778,1,1,0,-19,-8,-2,-3,-1
1558435685989778,2,2,4,5,-4,-7,3,4
1558435685997756,-7,-9,-11,-4,-5,-5,-8,-8
1558435685997756,-3,0,-6,4,5,3,-4,-2
1558435686012715,0,2,13,12,4,4,4,0
1558435686012715,-1,-5,-12,-20,-13,-2,-7,-7
1558435686020695,-1,0,-2,3,-6,-10,-5,3
1558435686020695,2,-1,2,1,4,8,9,2
1558435686035657,0,4,14,17,12,5,3,1
1558435686035657,-2,1,2,5,4,0,0,0
1558435686035657,0,-9,-27,0,5,-4,1,5
1558435686035657,-4,-9,-2,-17,-10,-8,-4,-3
1558435686049618,-2,-4,-11,15,-8,-6,-1,-1
1558435686049618,-1,-2,-1,-3,1,-1,2,-1
1558435686057596,4,6,8,-4,2,6,3,0
1558435686057596,0,1,4,10,4,3,-1,1
1558435686072554,-2,-1,-6,-17,1,3,-7,-2
1558435686072554,-1,4,9,2,-2,-5,-2,0
1558435686080534,0,-1,0,2,-3,-3,-10,2
1558435686080534,2,1,-2,1,-1,-6,9,5
1558435686095495,-1,-3,-4,-3,-9,-10,-19,-8
1558435686095495,3,0,-4,-1,0,6,8,3
1558435686096491,-9,1,14,1,7,3,-3,1
1558435686096491,5,4,0,7,-4,-7,3,-1
1558435686109457,-4,-6,-3,-3,0,7,9,-2
1558435686109457,-5,-2,-4,4,-5,-10,-10,-4
1558435686117437,-12,-19,-3,-1,2,1,-1,-8
1558435686117437,-10,-5,12,1,-4,-11,-14,-8
1558435686132395,4,3,0,19,15,6,6,3
1558435686132395,5,6,-18,-43,-6,7,1,0
1558435686140375,0,5,18,19,-2,-5,-6,-2
1558435686140375,0,-1,-4,-4,2,1,-2,1
1558435686155334,5,-6,6,-5,-6,-3,-2,2
1558435686155334,-8,-7,-8,0,-2,1,-2,-6
1558435686156332,1,1,-6,-8,-10,-10,-4,-3
1558435686156332,8,10,3,0,6,2,-3,5
1558435686170294,3,3,7,5,1,-2,15,6
1558435686170294,-10,-12,-3,1,-4,0,-7,-3
1558435686185254,6,6,-3,-6,3,6,5,-4
1558435686185254,1,0,-5,-5,-7,-4,-6,-1
1558435686192236,-9,-6,1,-2,3,4,5,1
1558435686192236,4,9,8,7,3,-1,0,0
1558435686200214,-11,-14,-19,-2,-2,1,1,-5
1558435686200214,0,-5,0,-3,-3,-11,-9,-7
1558435686215174,3,5,-2,-8,-8,-7,-7,-3
1558435686215174,-6,-7,1,4,-4,-5,-3,-3
1558435686216171,7,1,3,4,9,10,7,8
1558435686216171,-4,-5,-10,-10,-1,5,-2,0
1558435686230133,-1,-1,10,-2,-2,-6,1,-3
1558435686230133,-9,-8,0,10,6,1,-2,-2
1558435686237115,4,7,-1,-17,-12,-4,-2,-2
1558435686237115,-3,-2,-6,3,-1,2,1,-4
1558435686252075,-1,1,3,-6,-2,2,2,0
1558435686252075,7,2,-6,-4,-12,-13,-15,-5
1558435686260054,-4,-1,3,-3,7,4,7,-2
1558435686260054,0,-1,2,5,6,5,5,3
1558435686275015,-3,0,0,6,-4,-2,-7,-5
1558435686275015,3,-4,-18,-8,-4,-3,2,2
1558435686276012,-1,-1,3,5,4,-3,-1,0
1558435686276012,-4,-4,1,2,0,-1,2,-2
1558435686289976,0,-1,-5,0,1,1,-5,-5
1558435686289976,0,2,7,6,-1,-2,7,3
1558435686296970,6,0,-11,1,-4,-5,-6,2
1558435686296970,-9,-5,10,-6,-2,1,5,-6
1558435686311917,-2,-4,-14,5,1,-2,1,0
1558435686311917,-2,-2,-1,-21,-7,-3,-2,-1
1558435686320891,13,10,5,9,6,1,5,10
1558435686320891,-14,-9,-14,-11,-8,-4,-13,-13
1558435686335862,-7,-8,0,-3,-8,-3,-2,-2
1558435686335862,0,6,-1,4,4,4,-2,-3
1558435686335862,-4,-4,5,2,-6,-6,4,-1
1558435686335862,1,2,3,5,5,4,1,5
