timestamp,emg1,emg2,emg3,emg4,emg5,emg6,emg7,emg8
1558435557755025,-1,-2,-4,4,-3,-7,-6,1
1558435557755025,5,3,-15,1,12,5,7,8
1558435557761008,-4,0,1,-5,-3,2,-8,-9
1558435557761008,-5,-3,-5,1,-7,-9,-8,-5
1558435557761008,-1,-3,-7,-18,-7,1,8,1
1558435557761008,2,-3,6,12,6,4,1,3
1558435557762005,-3,-7,-8,0,0,-3,0,-6
1558435557762005,2,1,-6,-7,3,2,-3,1
1558435557775969,-1,3,8,0,-4,-5,-4,-4
1558435557775969,-2,0,8,-2,-4,-2,-7,-1
1558435557782949,-1,3,-1,-7,-1,2,10,1
1558435557782949,-2,-2,0,-4,-5,-1,-4,2
1558435557788934,0,-1,-7,9,3,2,-1,1
1558435557788934,1,3,10,-3,4,4,6,2
1558435557803893,1,-5,-10,4,1,-3,-1,4
1558435557803893,0,4,14,2,2,3,-2,-1
1558435557813867,-3,-5,-21,-10,-3,-2,-4,-3
1558435557813867,-2,3,4,1,-3,0,5,-5
1558435557818854,2,0,-4,-2,-4,-8,-8,1
1558435557818854,2,-1,0,0,0,-1,13,5
1558435557834811,0,-5,-11,8,2,1,-2,0
1558435557834811,-2,-5,-15,-6,-8,-7,-9,-3
1558435557842790,4,9,31,4,6,2,1,4
1558435557842790,-2,-3,-4,2,-9,-10,-7,-2
1558435557882682,-2,2,-5,-10,-3,3,-2,-3
1558435557882682,-2,0,4,10,0,-2,-5,-4
1558435557882682,-5,-8,-18,-10,-6,3,2,0
1558435557882682,2,3,1,5,11,5,2,3
1558435557883680,-4,-1,2,3,6,5,14,-2
1558435557883680,0,-1,-8,-13,-12,-1,0,1
1558435557886672,0,3,8,10,2,4,0,-2
1558435557886672,-1,0,-11,-4,-2,-7,-5,1
1558435557894652,-2,-5,8,9,3,-4,-5,-2
1558435557894652,-2,-2,-4,-15,-6,-2,-9,-1
1558435557901632,-5,-6,-11,-9,-12,-5,-1,-10
1558435557901632,-2,-3,0,3,-5,2,-4,-7
1558435557908612,3,-4,-1,7,14,-1,8,9
1558435557908612,-1,3,13,7,3,-1,0,-1
1558435557924570,-1,0,-1,-8,1,-4,-5,-1
1558435557924570,-3,-1,1,-14,-13,-8,-6,-6
1558435557932550,-2,-3,-2,0,-7,-2,-6,-4
1558435557932550,2,1,-9,-3,4,5,6,1
1558435557938534,4,4,11,4,8,5,9,6
1558435557938534,-2,1,3,3,1,-7,-2,-4
1558435557962470,1,6,9,-2,8,8,0,-1
1558435557962470,0,-8,-7,-5,-4,-4,1,2
1558435557964463,1,-3,-3,10,-5,-9,-4,-1
1558435557964463,0,-1,1,4,6,6,-4,1
1558435557969450,-1,-2,-10,-10,-12,-8,-8,-3
1558435557969450,-5,-3,-5,-5,0,4,-1,-9
1558435557984410,-1,1,1,2,-4,-9,-9,0
1558435557984410,-3,-8,-2,-9,5,5,14,4
1558435557992388,-2,-3,-26,-10,-12,-5,-1,-2
1558435557992388,-2,-4,-1,11,6,-1,1,0
1558435557999371,1,1,2,-6,0,3,4,3
1558435557999371,1,1,-6,-3,-5,-4,3,1
1558435558014332,-1,3,12,-5,-7,-5,-13,-6
1558435558014332,-3,-5,-12,11,2,1,-9,-3
1558435558021311,-3,-4,2,13,1,-1,-2,-1
1558435558021311,3,-1,-10,-9,4,-1,3,3
1558435558029290,2,1,-8,-7,-1,2,7,4
1558435558029290,1,4,18,-3,-2,1,-1,2
1558435558045248,-2,0,7,13,11,6,0,-2
1558435558045248,0,-2,-3,-11,-22,-12,-8,-2
1558435558052230,-5,-4,3,2,-2,-8,-10,-10
1558435558052230,4,2,-3,6,0,5,8,3
1558435558059209,3,11,24,-5,5,8,6,1
1558435558059209,-2,-1,2,-1,3,7,3,0
1558435558075168,-4,-5,-14,-11,-9,-10,-12,-5
1558435558075168,0,0,5,15,13,2,5,2
1558435558082149,1,3,7,-13,-8,-5,-7,0
1558435558082149,-2,-3,-6,4,-7,-2,0,-3
1558435558089148,-4,-5,6,7,0,-1,-10,-7
1558435558089148,-1,0,-6,-5,-6,-6,-5,-4
1558435558104092,-3,-3,-4,11,0,-5,-3,-1
1558435558104092,-2,0,4,-3,-3,-4,-1,1
1558435558112069,1,3,8,11,5,8,6,3
1558435558112069,-3,0,-5,-13,-4,-1,1,0
1558435558119050,-1,-2,-1,-12,-6,-7,-2,-2
1558435558119050,1,-4,-5,1,0,-4,-8,-3
1558435558135007,-1,5,7,7,2,1,2,-3
1558435558135007,0,-3,2,0,-9,-12,-6,-4
1558435558141989,-1,1,5,-13,0,6,-4,-3
1558435558141989,-2,-3,-9,2,12,9,8,3
1558435558148970,0,-1,6,8,-1,-2,0,1
1558435558148970,-1,2,1,-2,0,2,-5,-4
1558435558163929,-1,-7,-17,-1,-11,-10,-3,-2
1558435558163929,1,3,12,18,6,3,-2,0
1558435558171909,1,-2,-3,-6,1,1,5,2
1558435558171909,-5,-4,-2,-12,-12,-5,-2,-5
1558435558186869,-5,-5,-14,0,0,-1,0,-2
1558435558186869,0,1,-4,6,7,6,5,2
1558435558194846,0,4,7,-5,-6,-4,-5,0
1558435558194846,0,-2,6,0,-2,-2,3,3
1558435558201829,2,-1,-19,0,2,0,1,1
1558435558201829,0,2,-6,-26,-5,-3,-11,-6
1558435558208810,-2,-4,19,33,6,1,1,-2
1558435558208810,-1,-3,-26,-23,-3,-2,-1,-2
1558435558223769,-1,0,5,11,8,7,7,-1
1558435558223769,-5,-5,-7,-8,-9,-7,-5,-2
1558435558232745,2,1,-8,-17,-6,-7,-3,0
1558435558232745,-1,1,3,0,-2,-2,-2,-2
1558435558246708,-3,-1,7,7,5,0,-4,-1
1558435558246708,1,4,-3,-6,-7,-2,2,-5
1558435558254687,0,-5,-12,-24,-5,-6,0,2
1558435558254687,0,-1,-8,6,1,-3,1,3
1558435558261668,-3,-2,7,-7,-1,2,1,-4
1558435558261668,0,8,26,11,0,6,0,-3
1558435558268651,-3,-6,-17,6,3,2,3,-1
1558435558268651,-1,-1,1,0,-4,-7,-10,-4
1558435558283610,3,0,-6,-11,-1,5,5,4
1558435558283610,-1,0,22,5,6,1,-1,-1
1558435558292586,-1,0,-15,12,7,6,5,0
1558435558292586,-4,-4,-8,-25,-5,-5,0,-3
1558435558306548,-2,-2,-1,21,9,5,-1,-3
1558435558306548,-1,-6,-5,-16,-11,-7,-5,-2
1558435558314527,-1,0,10,7,-3,-6,-5,-2
1558435558314527,-1,0,1,1,3,4,0,-2
1558435558321508,-1,-1,-3,-6,-6,-4,-4,1
1558435558321508,-3,-6,-8,4,5,8,10,3
1558435558329487,4,-6,-14,-2,2,4,4,6
1558435558329487,0,6,16,1,-3,-2,0,-2
1558435558344448,0,-2,1,7,-4,-7,-3,3
1558435558344448,0,-2,-20,-7,1,3,1,-4
1558435558352426,-3,-1,0,-19,-6,0,0,-7
1558435558352426,-4,-4,8,23,2,-1,-4,-5
1558435558366390,-2,-2,-5,-8,-4,-8,-1,-6
1558435558366390,0,1,12,6,1,1,-5,4
1558435558374367,1,3,-9,-6,2,4,5,1
1558435558374367,0,0,5,0,1,-4,0,1
1558435558381349,1,3,1,-4,-7,-5,-6,-1
1558435558381349,-4,-4,-4,-6,-7,-8,-6,-4
1558435558389327,-2,2,3,-10,-1,4,3,2
1558435558389327,-2,-1,-7,5,-3,-1,-8,-5
1558435558404288,-2,-5,-16,-7,2,3,13,0
1558435558404288,-1,1,13,12,7,4,6,-1
1558435558412266,0,-1,-1,1,-4,-6,-7,-4
1558435558412266,0,1,12,-15,-7,-1,-1,1
1558435558426228,0,-1,9,31,10,3,0,2
1558435558426228,2,2,-3,-26,-7,-7,3,3
1558435558435204,2,0,5,2,1,0,0,3
1558435558435204,-2,-1,-5,-6,-4,-4,-4,-5
1558435558441188,-2,-1,-2,-2,1,2,-3,-4
1558435558441188,0,-3,-5,8,-2,-3,-4,0
1558435558449168,-2,0,4,1,-3,-2,-3,-2
1558435558449168,8,8,15,-6,3,6,1,9
1558435558464126,-3,-5,-3,-3,-2,-8,-3,1
1558435558464126,-4,-5,-18,0,-1,-4,-10,-6
1558435558472105,0,-1,-2,-2,-5,-3,1,4
1558435558472105,1,-1,-5,-4,6,5,4,-3
1558435558486068,-2,-2,3,-1,-2,4,-6,-5
1558435558486068,-3,-4,-1,2,-6,-9,-1,-4
1558435558495044,-1,-2,4,6,7,4,-3,-1
1558435558495044,-2,-2,-7,17,11,7,5,0
1558435558509007,2,2,-9,-23,-7,0,2,1
1558435558509007,-1,0,1,-2,-7,-3,-6,-3
1558435558516988,0,0,4,14,6,-3,-1,0
1558435558516988,-2,-1,-8,4,5,1,0,3
1558435558523967,-6,-3,-3,-8,-9,-3,-4,-7
1558435558523967,-3,-6,-12,-25,-9,2,-9,-6
1558435558531947,4,7,15,8,8,1,17,3
1558435558531947,-2,-11,-46,-8,-5,-1,3,0
1558435558546906,-1,-3,4,-17,-11,-12,-6,1
1558435558546906,0,2,5,11,7,3,5,5
1558435558554884,-2,-2,-2,-11,-7,2,-9,-2
1558435558554884,-3,0,-1,6,2,-1,-1,-6
1558435558561866,-1,-3,-7,-5,-6,-2,-8,-1
1558435558561866,1,-1,-22,-14,-3,-6,-4,0
1558435558576826,-3,-3,-5,0,2,-2,3,1
1558435558576826,2,2,9,-1,-3,-6,0,4
1558435558583810,-3,-4,-11,2,2,5,-1,-1
1558435558583810,-2,-1,13,10,2,-1,-6,-3
1558435558592783,0,2,4,-2,0,2,4,3
1558435558592783,-2,-2,0,0,-3,-1,5,2
1558435558606746,-1,-1,2,2,6,2,-2,-2
1558435558606746,3,0,-6,-4,-4,-5,-5,0
1558435558614725,-2,1,3,-10,1,6,-7,-3
1558435558614725,-3,-6,-3,4,-12,-10,-5,-3
1558435558621707,6,3,6,-5,8,6,10,9
1558435558621707,-1,0,-2,14,1,-4,2,1
1558435558637663,-10,-5,6,7,1,-2,-4,-13
1558435558637663,2,2,16,-10,-3,-3,-5,-2
1558435558643647,-2,0,-3,3,-4,-5,-5,-2
1558435558643647,-3,-5,-8,-7,-6,-2,-3,-3
1558435558652624,4,6,16,5,3,-2,8,7
1558435558652624,-4,-1,6,-1,3,5,-1,-2
1558435558666586,-2,3,-1,4,-3,-4,0,-1
1558435558666586,2,-2,2,7,3,4,0,1
1558435558674564,-4,-5,-5,-6,-11,-8,-9,-7
1558435558674564,-2,-1,6,13,3,-2,-5,-4
1558435558689524,5,3,-1,-3,3,-2,0,5
1558435558689524,-1,9,22,12,8,7,2,-1
1558435558697503,-3,-5,-10,0,-1,0,-4,-1
1558435558697503,-2,-6,-22,-15,-6,-3,5,3
1558435558704484,1,0,-2,-2,-3,-4,-2,-3
1558435558704484,-3,-1,6,12,4,0,1,3
1558435558712463,2,3,-2,-5,-3,3,-6,2
1558435558712463,-2,2,-1,-9,-4,2,7,0
1558435558726427,-4,-5,11,5,-2,-4,-10,-4
1558435558726427,-3,-7,-8,-5,-4,-5,4,-1
1558435558734405,-1,0,-2,7,3,1,1,3
1558435558734405,-2,-2,-7,7,2,2,-4,-9
1558435558741386,2,4,5,-7,-1,1,3,3
1558435558741386,-4,-1,8,0,-5,-9,-5,-5
1558435558757344,-2,-4,-2,-7,-11,-8,-9,-1
1558435558757344,1,6,20,-1,1,3,-1,-1
1558435558764324,-1,-1,-4,12,-1,5,5,-1
1558435558764324,0,0,2,3,12,4,14,5
1558435558772303,-1,-2,0,7,-3,-5,-5,-2
1558435558772303,2,2,0,-9,-5,1,2,2
1558435558786266,-3,-5,-8,0,-4,-4,-13,-6
1558435558786266,-1,-5,-23,-24,-9,-4,-1,-1
1558435558794244,2,4,5,-6,0,8,2,-4
1558435558794244,-2,0,0,8,4,0,-2,1
1558435558801226,-2,-2,-7,-13,-4,-10,-1,-1
1558435558801226,2,0,0,16,17,15,9,5
1558435558817183,-4,-6,-6,-12,-11,-9,-5,-3
1558435558817183,-6,-6,-6,-2,-3,2,-9,-6
1558435558824164,2,3,5,9,2,-1,7,1
1558435558824164,1,2,11,-5,2,1,1,-1
1558435558833141,-5,-3,-13,-13,-4,-3,-2,-5
1558435558833141,2,1,-2,-3,2,3,5,5
1558435558846105,-3,-6,-8,-9,3,-1,0,0
1558435558846105,1,5,13,5,-4,0,-6,-1
1558435558855083,-2,-1,4,-2,-1,-1,-2,-1
1558435558855083,-7,-9,-12,-15,-13,-19,-13,-6
1558435558869044,-4,1,-2,2,3,2,-3,-3
1558435558869044,-1,-3,-8,3,7,8,9,2
1558435558885001,4,5,0,-6,0,0,2,2
1558435558885001,2,-3,-4,-1,0,0,-3,-1
1558435558891989,-2,-4,7,-4,-10,-8,-6,1
1558435558891989,-3,0,4,11,-7,-10,-13,-10
1558435558892979,-3,-6,-18,-15,-6,3,-4,-3
1558435558892979,5,2,15,14,2,-11,4,7
1558435558906946,-4,-2,-24,6,10,11,13,-2
1558435558906946,-4,-10,-17,-24,-9,-1,0,0
1558435558914923,1,0,-15,-6,-1,-4,3,3
1558435558914923,0,4,16,8,-1,-2,-9,-3
1558435558928885,2,2,13,-10,-7,0,1,-2
1558435558928885,-5,-6,-22,-4,-10,-8,-7,-6
1558435558936862,-1,0,3,8,6,1,-3,1
1558435558936862,-1,1,8,14,12,15,12,9
1558435558951823,-1,-2,-10,-19,-4,1,2,1
1558435558951823,0,1,11,6,7,3,-4,0
1558435558952820,-2,-3,-8,-6,-18,-13,-5,-9
1558435558952820,-1,-2,-3,7,5,3,-3,-1
1558435558967782,-5,-5,-14,-8,0,2,-4,-9
1558435558967782,-1,1,9,8,-7,-8,-8,-2
1558435558974763,1,2,9,5,10,5,2,2
1558435558974763,-1,1,3,-4,1,2,8,2
1558435558988724,0,-2,-11,-7,-3,-6,1,3
1558435558988724,1,1,4,-6,-3,1,4,-2
1558435558997699,-4,-4,0,16,0,-3,-1,-5
1558435558997699,-5,-3,-8,-14,-9,-5,-8,-7
1558435559012663,-2,-3,1,-4,-3,0,-4,1
1558435559012663,3,4,14,18,11,6,9,5
1558435559012663,0,-2,-5,-15,-2,0,-2,0
1558435559012663,3,-1,-1,-2,2,1,2,1
1558435559026633,-1,1,23,37,14,6,4,-2
1558435559026633,-2,-10,-35,-17,-8,-5,-2,1
1558435559034603,2,2,19,9,4,3,6,-1
1558435559034603,-7,-6,-1,-2,-2,1,-6,-8
1558435559049562,0,4,-4,-12,-7,-8,-8,1
1558435559049562,1,0,3,0,-1,-4,-5,-2
1558435559057544,2,2,8,8,5,10,14,7
1558435559057544,5,2,-13,-20,-5,-4,-1,5
1558435559072507,-5,-8,12,35,8,3,1,-6
1558435559072507,-6,-5,-1,-3,0,-4,-6,-3
1558435559072507,-5,-3,-5,-11,-15,-11,-7,-9
1558435559072507,0,2,3,11,1,-2,-4,-2
1558435559086467,2,1,10,-9,-6,-10,-6,1
1558435559086467,-5,-1,-10,-6,-9,-5,-2,-4
1558435559094447,-1,-1,-6,-10,7,8,5,3
1558435559094447,-2,-4,-7,0,-3,2,4,-1
1558435559109415,0,-1,-14,-11,-9,1,-5,-1
1558435559109415,-2,-1,16,11,-4,-11,-6,-5
1558435559117382,2,1,-6,-16,-3,0,-2,0
1558435559117382,-1,1,-6,7,7,4,6,0
1558435559132341,-3,-4,0,6,-3,-4,-9,-1
1558435559132341,0,2,4,-6,-1,2,0,2
1558435559133339,0,-1,-3,5,5,4,5,5
1558435559133339,0,2,6,9,11,2,1,-1
1558435559146311,1,-1,2,-15,2,3,3,1
1558435559146311,1,4,-7,-25,-14,-2,1,0
1558435559155280,-6,-6,13,32,-1,-14,-14,-7
1558435559155280,0,0,-4,-4,3,5,5,5
1558435559169242,5,6,11,5,2,-1,1,0
1558435559169242,-3,-5,-18,-13,-1,3,-2,-5
1558435559178220,-1,-5,-6,-5,-10,-11,-7,-3
1558435559178220,-1,-2,5,-2,-5,-10,-5,0
1558435559191183,2,3,3,1,3,5,3,2
1558435559191183,2,0,1,-8,-1,1,-3,3
1558435559200158,-4,-5,-3,14,3,4,-5,-1
1558435559200158,0,4,-7,-7,-3,2,11,4
1558435559206146,-6,-6,8,7,-1,4,1,-2
1558435559206146,-3,-4,-14,-1,-4,-6,-10,0
1558435559215117,-2,0,-5,-20,0,-3,8,2
1558435559215117,-1,-2,-4,-3,-5,-3,-6,-3
1558435559229081,1,2,-4,-17,-6,2,5,1
1558435559229081,-1,-2,18,25,9,0,-1,-2
1558435559238056,1,2,2,6,-6,-3,-7,-3
1558435559238056,-5,-8,-25,-17,-2,-1,-4,-2
1558435559251023,-4,-1,-5,-17,-8,-8,1,-3
1558435559251023,3,5,11,18,13,7,9,5
1558435559261000,-2,-4,-12,-1,0,2,4,1
1558435559261000,-4,2,13,5,1,1,2,-9
1558435559267016,-2,-2,-5,-11,-4,-3,-4,-4
1558435559267016,-1,-3,-2,-2,-6,-3,0,-3
1558435559274958,1,-5,-23,2,2,0,-2,-1
1558435559274958,1,-1,10,2,-7,-4,-10,-4
1558435559288927,-1,-1,-6,7,9,3,4,4
1558435559288927,1,4,3,-7,5,5,8,2
1558435559297897,-2,2,17,23,6,-5,-1,0
1558435559297897,-4,-8,-12,-22,-12,-6,-4,-5
1558435559311981,1,3,1,0,0,-4,-6,-1
1558435559311981,-4,-7,-9,-9,-11,-9,-10,-5
1558435559320840,5,6,15,1,14,16,8,4
1558435559320840,-1,-3,-12,2,2,4,9,3
1558435559326826,-2,-2,-1,0,-5,-8,0,0
1558435559326826,-6,-1,-7,2,0,2,-4,-6
1558435559335797,-4,0,8,-16,-10,-11,-7,-6
1558435559335797,-3,-2,9,12,-1,-2,-9,-6
1558435559348763,2,2,-9,-3,4,8,4,2
1558435559348763,0,2,3,9,5,6,0,-2
1558435559357739,1,2,2,-14,-9,-5,0,2
1558435559357739,0,-1,2,11,7,6,8,4
1558435559371934,-4,-7,-4,-11,-10,-13,-17,-5
1558435559371934,-4,-5,-7,-3,1,3,6,-3
1558435559380689,-1,4,-2,-2,-2,2,-3,-2
1558435559380689,4,0,5,-1,-7,-7,-9,0
1558435559386699,0,-5,-16,-9,-1,0,4,3
1558435559386699,0,3,0,0,4,0,9,-3
1558435559395640,-3,-3,0,7,-1,1,-1,-2
1558435559395640,-5,-7,-10,1,-5,-6,-4,-2
1558435559409604,1,1,-5,2,-1,-4,-3,-1
1558435559409604,0,-2,-1,6,0,2,-3,-2
1558435559417579,-2,-2,-4,-3,-2,-1,-1,3
1558435559417579,0,3,8,5,1,-4,-1,3
1558435559431545,-2,2,9,11,5,3,4,-5
1558435559431545,-1,1,5,-5,-3,-1,-1,-1
1558435559440518,1,-2,-9,1,1,-2,-5,-4
1558435559440518,-3,-6,-5,5,-8,-5,-9,-2
1558435559446500,-2,0,15,-14,-6,-3,-6,0
1558435559446500,4,6,0,3,3,4,10,6
1558435559455475,0,-2,0,-21,-5,-1,0,-2
1558435559455475,1,5,-1,8,10,7,7,0
1558435559469439,-7,-3,31,25,1,-8,-7,-10
1558435559469439,-1,0,-6,-1,-2,-6,-3,-1
1558435559478413,-1,-1,-3,1,8,4,3,0
1558435559478413,-4,-6,-18,-22,-7,0,-3,-4
1558435559491418,-1,-1,-5,-10,-9,-3,-4,-3
1558435559491418,-1,-5,1,-10,-12,-9,-13,0
1558435559500757,-1,0,-3,0,3,0,9,2
1558435559500757,6,3,-6,-15,-3,1,0,0
1558435559515716,-3,-5,-1,23,7,3,1,0
1558435559515716,-4,-4,-12,-6,3,3,-2,-5
1558435559516714,-5,-4,-4,1,-8,-8,-5,-1
1558435559516714,-5,-3,-3,10,4,-5,-9,-2
1558435559529691,2,5,-4,-9,3,7,7,-1
1558435559529691,-7,-7,-1,2,-4,-3,-10,-7
1558435559537862,1,1,1,1,7,4,-2,-2
1558435559537862,0,0,2,-1,-12,-8,2,1
1558435559551916,4,-1,-17,-8,7,8,6,5
1558435559551916,3,4,15,13,4,-3,1,4
1558435559560600,-1,-2,0,-3,-7,-1,-4,-2
1558435559560600,-3,-3,1,-8,-7,-6,-9,-4
1558435559566582,4,5,-11,7,9,13,3,-2
1558435559566582,-6,-9,0,-16,-11,-9,-1,-2
1558435559575560,1,4,18,9,-3,-7,-5,-1
1558435559575560,1,3,-7,6,3,1,6,5
1558435559589623,-4,-5,-4,-27,-15,-8,-5,-3
1558435559589623,-1,-4,-13,4,12,10,6,1
1558435559598498,-3,-1,-4,22,4,-1,-2,-1
1558435559598498,-3,-4,3,-15,-9,-3,-10,-5
1558435559611752,-3,-3,-5,9,0,-7,-4,0
1558435559611752,-2,-2,3,-10,-5,-3,0,-3
1558435559620441,1,-3,-11,-11,-3,2,2,1
1558435559620441,1,2,12,5,3,1,2,2
1558435559635418,-5,-6,6,6,-3,-4,-3,-5
1558435559635418,1,2,-3,3,-6,-8,-7,-2
1558435559636397,0,-2,-2,0,4,3,7,-2
1558435559636397,3,6,7,3,11,12,13,3
1558435559649376,0,-2,10,6,1,0,-1,1
1558435559649376,-5,-6,-14,-14,-7,-8,-4,-7
1558435559658339,-3,-5,-11,-19,-10,-3,-7,-2
1558435559658339,-3,-3,-1,3,-1,-3,0,-2
1558435559671302,2,3,8,1,1,6,5,3
1558435559671302,1,3,-13,1,-1,-2,-4,0
1558435559680277,0,0,-3,-10,-11,-13,-1,0
1558435559680277,-4,-2,12,6,10,4,-6,-4
1558435559695236,1,-2,-14,-3,-5,-7,3,1
1558435559695236,1,5,14,10,8,5,4,3
1558435559697231,-1,0,-4,5,2,2,-3,-3
1558435559697231,-2,-2,3,-8,-7,-4,-7,-2
1558435559709202,-4,-4,-6,-7,-1,-2,-2,-3
1558435559709202,3,4,16,6,-1,-2,-4,-1
1558435559718175,-1,-6,-15,11,4,5,0,-1
1558435559718175,1,1,-1,-7,0,-7,-1,-5
1558435559731141,1,0,-5,-11,-7,5,-1,4
1558435559731141,0,-1,6,10,5,-2,5,2
1558435559740116,0,-1,-12,-17,-6,-1,-3,0
1558435559740116,-2,-3,5,2,-1,1,2,-1
1558435559755965,-1,2,-14,-3,-8,-7,-2,1
1558435559755965,2,0,2,9,1,1,-4,0
1558435559756969,-3,-3,-4,-1,-3,-8,6,1
1558435559756969,1,2,-1,-7,1,5,8,1
1558435559768936,2,1,4,5,1,2,-3,0
1558435559768936,-2,-5,2,-11,-12,-4,2,-1
1558435559777913,-2,-1,4,11,12,14,5,0
1558435559777913,0,-2,-11,4,-1,-3,4,3
1558435559792190,-1,2,12,-6,-2,-4,-4,-3
1558435559792190,5,8,6,-20,-9,2,0,4
1558435559800158,0,-2,12,25,12,-4,2,-4
1558435559800158,0,4,-9,-11,-1,1,1,-2
1558435559815121,-5,-6,-1,-3,-8,-8,-2,-7
1558435559815121,1,0,-2,6,5,1,-2,-1
1558435559817114,-3,-1,6,-15,-17,-6,3,2
1558435559817114,-2,-6,-2,-1,3,2,-5,-3
1558435559829378,0,0,-2,23,1,-7,-1,1
1558435559829378,-5,-10,-30,-21,-4,-2,-8,-1
1558435559844044,2,5,6,-7,-1,3,2,4
1558435559844044,-1,-1,0,22,7,3,6,-1
1558435559852021,-1,-2,3,-42,-13,-4,-1,-2
1558435559852021,2,2,2,20,6,-1,-2,3
1558435559866993,1,5,9,-8,0,8,-9,-5
1558435559866993,-3,-4,-8,-17,-8,0,3,2
1558435559876154,1,0,-4,4,5,-5,3,2
1558435559876154,-4,2,10,1,0,1,-2,-9
1558435559876959,-4,-11,-15,-11,-6,-5,-6,-3
1558435559876959,-3,-1,3,15,0,-4,-4,0
1558435559888926,1,4,-13,2,4,5,0,2
1558435559888926,-5,-6,8,13,1,4,-7,-5
1558435559898004,-4,0,10,-1,-2,-1,-3,-7
1558435559898004,1,2,-2,-14,-11,-6,-10,-2
1558435559912097,-5,-5,7,8,3,-4,1,-4
1558435559912097,3,2,4,9,7,5,8,0
1558435559920837,1,2,-3,-4,-5,-7,-11,-3
1558435559920837,-4,-6,-8,4,2,-5,-4,-3
1558435559936122,4,7,3,8,6,8,4,4
1558435559936122,-3,-8,-16,-19,-11,-11,-9,-1
1558435559936888,-1,-2,-3,-7,-1,-5,-1,-3
1558435559936888,4,4,2,11,4,5,8,2
1558435559948856,-4,-5,-2,-14,0,0,-5,-5
1558435559948856,0,1,-3,-7,-5,-2,3,-1
1558435559957903,2,1,-12,1,2,-3,2,5
1558435559957903,-4,-5,9,6,-3,-2,-3,0
1558435559971790,0,-2,-4,4,-6,-3,-9,-2
1558435559971790,4,4,8,9,12,6,11,4
1558435559980771,-2,-2,1,6,7,1,-2,-1
1558435559980771,1,5,6,1,-1,2,-2,-4
1558435559995964,-3,-10,-9,-15,-6,-5,4,1
1558435559995964,-8,-7,-16,-12,-10,-5,0,-4
1558435559996726,6,9,14,15,12,9,6,5
1558435559996726,2,-1,-11,-18,0,0,-2,1
1558435560008690,-5,-5,-9,-9,-12,-8,-11,-10
1558435560008690,1,1,-1,-3,-5,-8,-4,1
1558435560017666,1,2,15,11,8,3,8,4
1558435560017666,-3,-4,-1,-8,-16,-6,-3,-7
1558435560031629,-1,-2,-14,4,-3,-5,-3,0
1558435560031629,3,5,10,3,8,11,6,2
1558435560040605,-7,-6,-4,-5,-7,-5,-5,-7
1558435560040605,-2,-3,-7,-5,3,0,5,3
1558435560054788,1,5,9,1,4,1,-1,0
1558435560054788,-3,-3,-3,16,1,-3,-2,-2
1558435560062545,-2,-4,-7,-4,-6,-2,-5,0
1558435560062545,-2,4,5,-6,-1,1,-6,-7
1558435560068532,-2,-2,-5,11,5,0,1,-3
1558435560068532,-2,-1,1,-10,-5,-5,-7,1
1558435560078503,-1,-2,-5,-9,-6,1,4,-5
1558435560078503,0,-1,-7,-1,0,-2,-1,-3
1558435560091687,-1,3,4,7,1,1,-2,-3
1558435560091687,-1,-3,0,3,2,3,-1,-3
1558435560100444,0,2,-4,-26,-7,-2,-6,1
1558435560100444,-1,-6,-8,0,-1,-5,3,7
1558435560115404,2,3,6,4,8,8,3,0
1558435560115404,-4,-7,-9,-1,-3,-3,2,-3
1558435560116403,-3,-5,7,5,-3,-6,-8,-6
1558435560116403,4,3,4,-7,-4,-5,2,1
1558435560129555,1,-3,9,32,14,10,6,1
1558435560129555,-1,-2,-6,-22,-11,-3,-5,-2
1558435560138346,2,0,-15,-3,-2,2,0,0
1558435560138346,-5,-2,-1,-9,-7,-6,-6,-6
1558435560152320,-1,-4,0,15,1,0,-1,1
1558435560152320,-2,-1,4,-13,-6,-8,-2,-5
1558435560160286,0,1,4,12,5,1,-1,1
1558435560160286,0,-2,-3,-2,-1,-2,0,-1
1558435560175472,-3,4,11,-15,-3,-2,-2,-1
1558435560175472,-1,-4,-6,7,1,-1,-3,-1
1558435560177242,2,2,2,-9,-11,-10,-7,0
1558435560177242,-1,-4,0,19,16,4,-1,0
1558435560189210,-2,-1,-2,-29,-12,0,1,-1
1558435560189210,1,4,12,21,10,2,0,1
1558435560198194,-2,-6,-1,3,-2,4,3,-1
1558435560198194,-1,1,4,1,-2,-3,-7,-5
1558435560212232,-3,-5,-33,0,-1,-9,4,0
1558435560212232,1,2,6,-5,-3,4,-1,3
1558435560220307,-5,-9,-8,-7,1,4,1,-3
1558435560220307,1,1,8,2,1,0,0,2
1558435560235099,0,1,13,-5,-2,2,-4,2
1558435560235099,-1,-3,-12,13,-5,-8,-12,-2
1558435560242068,-6,-7,-25,-13,-5,-2,0,-5
1558435560242068,0,1,6,0,8,9,9,1
1558435560249050,-4,-6,-10,-3,-8,-5,-4,-5
1558435560249050,0,2,-1,-9,-2,-2,0,-1
1558435560258027,0,-3,-14,-9,-1,-3,-4,-1
1558435560258027,-4,-2,13,19,-5,-4,-2,-3
1558435560271988,3,-4,-6,12,2,-6,-1,1
1558435560271988,-3,-1,5,13,1,2,1,-3
1558435560280973,-3,-2,-6,-9,-11,-10,-5,-2
1558435560280973,-4,-6,-15,-12,-1,3,-2,-3
1558435560294924,-1,1,1,-12,-1,3,-1,-1
1558435560294924,2,0,3,-7,-4,-6,4,3
1558435560301906,1,1,-4,12,8,-1,3,5
1558435560301906,-5,0,5,6,-8,-8,-8,-9
1558435560317861,1,-5,-5,-7,8,10,6,2
1558435560317861,0,-2,0,-5,-4,-6,-8,1
1558435560318859,-2,0,4,3,2,2,-5,-4
1558435560318859,-2,3,-8,-17,-7,0,9,-3
1558435560331825,2,2,4,3,4,-4,0,2
1558435560331825,-3,-2,14,11,-4,0,2,-8
1558435560340800,-2,-7,-9,-5,1,-2,-2,1
1558435560340800,1,-1,1,-11,-3,3,-3,1
1558435560353766,1,4,5,-2,-6,-3,5,1
1558435560353766,0,-1,-7,1,3,1,-2,-1
1558435560362741,0,6,25,14,5,0,-1,-2
1558435560362741,-1,-1,-15,-20,-5,0,-3,0
1558435560368725,-4,-5,-4,-15,-10,-3,-6,-3
1558435560368725,3,2,5,0,8,9,10,4
1558435560377701,-1,2,7,12,1,-4,-5,-5
1558435560377701,-2,-4,-12,5,0,0,-1,-3
1558435560391664,-2,0,-4,1,-6,-4,-7,-6
1558435560391664,-2,-4,-16,-8,1,3,0,2
1558435560400640,2,-2,-8,0,7,11,8,8
1558435560400640,1,4,24,23,10,0,-3,0
1558435560414602,-2,-4,-6,-13,-7,-5,-6,-1
1558435560414602,-4,-4,-8,-23,-7,-4,2,-8
1558435560421585,2,2,3,1,-4,-3,-3,-1
1558435560421585,3,0,-7,-1,3,3,-1,3
1558435560428566,-3,-2,5,1,0,-6,-3,-3
1558435560428566,0,4,18,5,0,-1,0,3
1558435560437541,-2,-2,-10,-16,-13,-8,-6,-2
1558435560437541,1,-3,-3,-16,1,9,14,4
1558435560451504,-2,-2,6,23,1,-1,0,-5
1558435560451504,1,-2,-1,15,8,3,6,0
1558435560466466,-3,-7,-7,-5,-6,-8,-1,-5
1558435560466466,-2,-7,-5,4,0,-3,-8,1
1558435560474442,1,2,-4,-13,-3,-2,1,1
1558435560474442,0,1,2,-6,-2,2,-8,1
1558435560481424,5,8,11,22,4,-1,7,4
1558435560481424,-5,-15,-40,-23,-8,-4,0,-3
1558435560489404,-2,1,2,-3,-1,0,-1,3
1558435560489404,-5,-4,-7,-6,-3,-4,-5,-9
1558435560498381,-4,0,5,-9,-1,1,-9,-4
1558435560498381,-2,0,8,21,-3,-6,-8,-4
1558435560511344,2,1,-1,4,7,6,6,4
1558435560511344,-2,-1,-9,-8,-10,-2,-3,-4
1558435560520319,-2,-1,14,1,-1,2,11,-3
1558435560520319,3,5,1,16,10,5,1,1
1558435560534283,-3,-2,7,-17,-5,0,-3,-5
1558435560534283,2,1,-8,-4,5,-2,4,6
1558435560541265,-2,-3,-6,-16,-5,2,-5,-3
1558435560541265,-1,-2,-1,-4,-6,-6,-6,-1
1558435560558218,0,-5,0,13,6,2,-3,0
1558435560558218,-1,-2,-1,3,-4,-4,-7,1
1558435560559216,-2,1,-5,-10,-4,3,4,0
1558435560559216,-1,0,6,-4,-3,-2,0,-2
1558435560571197,1,-3,-18,18,9,1,-1,1
1558435560571197,-3,-5,4,-7,-12,-6,-4,0
1558435560580173,1,-1,6,8,2,0,-2,1
1558435560580173,-3,1,-8,-20,-6,-9,-2,-3
1558435560595225,-6,-3,-1,-10,-8,-1,-10,-6
1558435560595225,-2,-2,-6,-3,-3,-4,-1,-2
1558435560602104,-1,-1,-3,5,4,1,2,2
1558435560602104,2,-3,7,4,-1,-2,-2,1
1558435560618171,1,-2,2,6,1,-5,0,-3
1558435560618171,-3,-4,-21,2,-1,1,1,-3
1558435560619060,-5,-2,-6,-19,-11,-1,-9,-3
1558435560619060,-5,-3,0,-3,0,6,9,-1
1558435560632024,0,1,-4,-2,-4,0,-3,-1
1558435560632024,-4,-3,-1,-9,-6,-6,-6,-7
1558435560640213,0,0,5,14,4,-7,-3,1
1558435560640213,5,7,-5,-12,-1,-3,-4,3
1558435560655195,-4,-9,2,11,0,-5,-3,-6
1558435560655195,0,-1,-1,2,3,1,1,3
1558435560661945,-2,-4,-4,-13,-8,-2,-7,-2
1558435560661945,-2,-2,1,7,-2,1,-5,-3
1558435560677902,-3,2,12,4,12,10,9,-5
1558435560677902,2,2,0,-4,-1,0,2,0
1558435560678903,-1,-3,-3,15,-1,-4,-3,-2
1558435560678903,-3,-6,-3,-3,-4,-2,1,1
1558435560691863,2,6,5,-18,-3,1,1,1
1558435560691863,-5,-4,9,-5,-5,-2,-4,-8
1558435560700839,-1,-2,-9,14,8,10,8,3
1558435560700839,0,5,11,5,-12,-12,-5,-3
1558435560714804,-3,-1,-3,-4,-3,-4,-4,-3
1558435560714804,3,7,2,-6,9,11,10,5
1558435560721868,-3,-5,17,18,-2,-6,-4,-2
1558435560721868,-4,-4,-3,-16,-2,-2,-4,-2
1558435560737827,-3,-7,-28,-8,-4,-3,-5,-3
1558435560737827,0,2,3,0,-4,-7,-6,0
1558435560739738,-4,-3,-7,1,1,2,-1,-5
1558435560739738,-1,1,-9,-32,-5,-1,-2,1
1558435560751704,1,-2,10,23,8,4,9,1
1558435560751704,0,-2,4,-6,-3,-2,-3,2
1558435560760679,5,4,-6,-1,7,1,10,5
1558435560760679,-1,-2,0,-2,-7,-4,-6,-3
1558435560773644,-3,-3,-4,-10,-9,-4,-2,0
1558435560773644,0,0,5,3,-3,-2,-3,-6
1558435560782618,-3,-2,-5,-18,-2,-3,-8,-4
1558435560782618,-1,-3,5,10,6,5,5,2
1558435560797641,3,5,21,3,-1,-4,-1,6
1558435560797641,-3,0,-6,1,3,1,2,-4
1558435560799574,0,-3,-8,-6,-4,-5,-10,-5
1558435560799574,1,0,-6,11,10,8,7,4
1558435560811986,1,3,2,1,-5,-6,0,2
1558435560811986,1,-5,-4,-8,-6,-1,-2,2
1558435560820521,-4,-3,-1,2,-5,-1,0,1
1558435560820521,-6,-4,-4,-5,-3,-2,-10,-10
1558435560834910,0,1,4,13,10,5,3,2
1558435560834910,2,6,1,6,9,4,7,4
1558435560842897,-1,-3,-12,-24,-11,-1,-2,0
1558435560842897,-2,-1,6,9,-3,-6,-2,-2
1558435560857862,-2,-11,-24,-11,-10,-10,-12,-6
1558435560857862,2,6,20,5,3,7,3,1
1558435560859591,2,1,11,15,8,13,11,2
1558435560859591,3,3,13,14,8,1,4,1
1558435560880678,1,1,-10,-15,-11,-7,-6,-4
1558435560880678,-4,-7,0,15,2,-5,-4,-2
1558435560881357,0,3,-4,6,3,5,8,0
1558435560881357,1,2,11,7,2,3,7,5
1558435560894637,-6,-4,-10,-38,-17,-7,-3,-3
1558435560894637,-6,-6,-1,12,1,-3,-2,-9
1558435560903329,1,2,1,3,5,1,-1,-1
1558435560903329,-1,-2,-6,2,-1,-3,1,-2
1558435560918499,4,4,1,-1,5,7,1,3
1558435560918499,1,3,11,-6,-3,-3,1,2
1558435560919254,-4,-2,-10,1,-4,-6,-7,-11
1558435560919254,-3,2,-2,-21,-4,-1,-6,-6
1558435560931257,2,2,8,19,5,4,-1,6
1558435560931257,-1,-2,-12,-12,-1,-2,8,0
1558435560940198,1,1,10,7,12,9,-2,2
1558435560940198,-4,-8,-16,-9,-19,-12,-4,-1
1558435560954189,-2,2,7,-1,5,2,3,0
1558435560954189,-1,0,-11,1,-6,-2,-1,0
1558435560963137,1,2,4,2,7,-2,5,4
1558435560963137,0,-3,-6,-4,0,6,2,-4
1558435560978582,-2,-4,3,0,-2,1,2,-2
1558435560978582,0,-5,-6,-1,-1,1,-5,-2
1558435560980203,-5,-9,-15,-27,-14,-6,-5,-5
1558435560980203,7,10,29,25,14,4,2,7
1558435560992441,-6,-10,-21,-6,-16,-15,-3,-4
1558435560992441,-4,-1,0,-7,3,9,1,0
1558435561000040,0,-1,-24,-7,-6,-4,-4,1
1558435561000040,-7,-9,1,1,-6,-10,-7,-5
1558435561014001,1,2,3,17,4,4,7,-1
1558435561014001,1,-1,-4,-3,7,4,2,2
1558435561023127,-2,-1,5,-10,-8,-5,-6,-2
1558435561023127,0,-2,-20,5,1,0,-3,-2
1558435561037936,6,9,5,-8,3,5,6,8
1558435561037936,-3,-1,3,5,-1,-8,-7,-4
1558435561038936,-5,-2,-12,4,-4,-5,-5,-5
1558435561038936,-1,-2,-3,1,0,1,3,2
1558435561052393,-7,-7,-26,-19,-8,-4,-8,-10
1558435561052393,-1,-1,-4,-2,-5,-2,-2,-2
1558435561061258,-2,-2,7,-19,-4,-4,3,1
1558435561061258,-3,-4,0,-3,-12,-14,-13,-5
1558435561074207,2,2,-1,7,13,8,2,0
1558435561074207,0,2,-1,-3,1,-3,2,2
1558435561082817,0,-2,0,-2,-3,-2,-2,0
1558435561082817,0,-3,-9,-2,1,1,0,-2
1558435561098086,4,2,13,6,5,1,1,8
1558435561098086,0,1,1,7,-3,-5,-5,-3
1558435561098775,-3,0,3,6,7,-2,-2,-6
1558435561098775,-4,-4,-4,-4,-8,-2,-6,-4
1558435561111738,0,1,13,3,-1,-1,1,-1
1558435561111738,2,0,-9,2,-1,2,0,0
1558435561120715,1,0,-8,-17,-5,-5,0,3
1558435561120715,1,0,14,13,6,2,-5,-5
1558435561134998,-3,-2,-2,-2,-4,3,-1,-4
1558435561134998,-1,-4,-8,-12,-1,-2,1,4
1558435561143126,3,7,23,18,3,-1,-3,-1
1558435561143126,-2,-2,-13,-19,4,8,0,1
1558435561158674,-4,1,1,5,1,-3,5,0
1558435561158674,-2,-7,-5,-4,-4,-1,-2,-1
1558435561159612,1,7,6,0,-4,3,2,1
1558435561159612,-4,-2,-4,-6,-8,-3,-1,-4
1558435561181046,1,-1,4,0,0,-2,-9,3
1558435561181046,-2,0,-12,18,7,-2,4,1
1558435561181552,0,-7,-9,-11,0,2,3,2
1558435561181552,0,0,5,14,-4,-4,5,3
1558435561194953,-4,-4,-6,-12,-3,0,-5,-6
1558435561194953,-4,-5,-2,-15,-17,-9,-13,-6
1558435561202982,1,2,9,15,7,0,3,4
1558435561202982,2,2,-19,-4,9,11,14,7
1558435561218823,-6,-4,0,-7,-6,-2,-1,-7
1558435561218823,0,3,10,13,2,-4,-8,-2
1558435561219451,-1,-5,-10,-7,-4,-4,0,2
1558435561219451,2,2,9,6,1,-4,-1,0
1558435561231789,3,7,10,17,9,6,7,6
1558435561231789,-1,-1,-1,-10,-3,2,-1,-2
1558435561242447,-3,-4,-16,-5,-7,-6,-5,-8
1558435561242447,5,7,6,-9,-1,-2,3,1
1558435561254806,-7,-12,-5,15,6,-5,-6,-6
1558435561254806,-1,2,-1,-14,-8,3,6,5
1558435561263335,0,-2,-7,3,3,3,2,-1
1558435561263335,-3,0,23,18,-3,-2,-13,-7
1558435561278702,0,1,-6,-8,-1,-3,0,-2
1558435561278702,0,1,6,14,11,4,6,3
1558435561279293,-2,0,5,-7,-1,-4,-5,-4
1558435561279293,-4,-3,-7,-16,-4,0,1,-4
1558435561292311,0,2,-15,-5,-2,0,-1,-1
1558435561292311,-2,-6,4,7,8,2,-1,-3
1558435561300299,2,2,16,-2,-6,3,-3,1
1558435561300299,-1,-3,-19,-4,-7,-13,-3,5
1558435561314565,-1,1,11,7,6,8,1,-3
1558435561314565,7,5,-14,-25,-5,1,8,5
1558435561323208,-6,-2,24,36,7,-7,-7,-6
1558435561323208,-4,-10,-25,-16,-8,-4,-8,-1
1558435561337506,-3,-4,2,21,3,-5,-1,-1
1558435561337506,-2,1,1,-3,-1,-2,0,-3
1558435561344117,3,2,2,-11,-3,2,6,5
1558435561344117,-1,-1,5,-1,0,5,5,-1
1558435561351099,-2,-7,-7,8,-10,-11,-7,-4
1558435561351099,-4,-5,-8,-14,-3,0,-4,-3
1558435561360466,0,4,4,10,3,2,4,2
1558435561360466,-3,-8,-4,1,7,2,-3,-5
1558435561374397,4,6,2,-14,-12,-6,-2,6
1558435561374397,0,-1,4,7,3,-1,-6,2
1558435561383013,-2,-4,-7,-9,2,10,12,0
1558435561383013,4,6,5,-1,0,-2,-2,0
1558435561397974,-4,-8,-2,5,8,4,1,-3
1558435561397974,-3,-2,2,1,-6,-9,-4,0
1558435561404081,-3,-3,-18,-15,-9,-4,-6,-5
1558435561404081,-1,2,13,12,6,2,1,-1
1558435561412281,3,3,6,-3,-5,-4,-6,2
1558435561412281,-3,-2,-4,-1,1,1,7,0
1558435561419917,0,-2,-5,-1,1,-3,-4,0
1558435561419917,-1,1,-5,-26,-7,2,1,1
1558435561434235,-1,-5,-13,-11,-3,-6,0,1
1558435561434235,1,5,14,19,12,8,4,0
1558435561442854,-2,-2,-1,1,-4,-8,-12,-5
1558435561442854,-5,-9,-23,0,-2,0,0,-2
1558435561458054,-3,1,0,-12,-1,4,1,0
1558435561458054,1,1,7,4,-6,-3,2,-2
1558435561464798,1,-2,6,8,2,-4,3,8
1558435561464798,-1,-2,1,4,7,-4,-8,-1
1558435561481082,-1,0,-5,-14,-12,-4,-3,-2
1558435561481082,-4,-4,-10,8,0,0,-8,-8
1558435561481749,1,2,-10,-22,-9,0,-2,-3
1558435561481749,1,2,7,10,0,-7,2,2
1558435561494425,5,7,6,0,10,9,6,3
1558435561494425,-2,-4,-4,-9,-11,0,-2,-4
1558435561503082,-2,-2,-1,6,5,-2,-2,0
1558435561503082,0,3,1,-2,-2,-4,-3,2
1558435561517368,-5,-4,-8,0,-7,-7,-5,-10
1558435561517368,-2,2,5,-4,-3,-2,-3,0
1558435561524023,-1,-4,3,-3,2,2,0,-2
1558435561524023,0,2,3,8,3,4,4,-1
1558435561538983,3,4,2,-6,2,1,4,4
1558435561538983,-4,-1,3,-6,-4,-4,-6,2
1558435561548107,-3,0,3,28,5,-1,0,-3
1558435561548107,-1,-3,-13,-41,-11,1,-5,-1
1558435561554451,-1,-1,0,-1,-4,-4,-1,0
1558435561554451,-1,-5,-4,-7,-2,-3,-1,0
1558435561562918,1,8,5,-4,-5,4,-2,-2
1558435561562918,-8,-9,7,16,-2,-6,-3,-4
1558435561578086,-3,-5,-6,5,5,-4,-4,0
1558435561578086,-1,-1,-2,-3,-2,1,12,-1
1558435561583859,-3,-1,-1,-3,-5,-3,-5,-2
1558435561583859,2,2,-2,3,4,2,3,0
1558435561601081,1,3,8,5,3,2,3,4
1558435561601081,0,0,-9,6,-1,-6,-3,-1
1558435561601814,-1,-7,-1,-35,-12,-2,-4,-2
1558435561601814,4,3,4,15,13,12,15,3
1558435561614102,-6,-6,6,13,-7,-13,-6,-6
1558435561614102,2,2,-6,-5,9,8,-1,2
1558435561622884,-2,-2,-9,-9,-7,-4,-1,-5
1558435561622884,3,1,3,6,3,1,-2,-3
1558435561638033,-4,-7,-6,-15,-14,-5,-7,-5
1558435561638033,-2,-1,1,17,0,-2,-3,-3
1558435561644877,2,5,5,-15,7,6,7,5
1558435561644877,-4,-3,-3,-16,-9,-3,1,-1
1558435561667972,0,-2,-8,-7,-4,-1,-1,-6
1558435561667972,-2,-3,1,2,-1,-1,-10,-7
1558435561669636,-2,-4,-5,11,0,-3,-2,0
1558435561669636,2,2,8,16,9,-1,1,3
1558435561674859,0,0,-19,-8,1,3,7,3
1558435561674859,-4,-4,3,1,-3,-5,-9,-8
1558435561682599,-1,0,12,6,3,0,-4,1
1558435561682599,-1,0,-21,-6,-6,-1,-5,-5
1558435561697893,-1,-5,-3,3,-2,-2,-1,4
1558435561697893,3,4,6,8,10,4,4,7
1558435561703543,-8,-8,-10,-9,-7,-7,-5,-12
1558435561703543,-1,-2,-3,-10,-8,-1,-5,-3
1558435561720788,1,3,5,-1,-2,-1,0,-2
1558435561720788,-2,-1,0,8,0,-4,-1,0
1558435561721549,3,1,-2,7,7,5,6,6
1558435561721549,1,2,8,10,-1,0,-2,-1
1558435561734462,-1,1,-2,-15,-1,1,-10,-5
1558435561734462,0,1,11,-2,-5,7,10,0
1558435561743663,-2,-3,-10,-4,-4,-8,-10,-5
1558435561743663,-1,-4,1,-7,-2,-5,-1,1
1558435561757396,-1,-2,-2,13,9,5,3,2
1558435561757396,0,-1,-4,-13,-4,-5,-4,0
1558435561764723,-2,-3,-8,-11,-13,-10,1,2
1558435561764723,0,5,19,9,2,-1,0,-2
1558435561780843,0,0,1,5,4,7,-3,-1
1558435561780843,-1,-1,-5,6,4,3,3,2
1558435561781333,-1,-2,2,3,-4,0,-2,-1
1558435561781333,-2,-1,-3,-3,-2,-4,-4,-2
1558435561794333,3,1,2,-23,-5,0,3,0
1558435561794333,-3,-4,-1,2,-4,-4,-8,-2
1558435561803273,-5,-6,-8,16,13,9,6,-7
1558435561803273,-2,-1,9,4,-6,-2,-3,-1
1558435561817236,-2,2,31,2,-2,-5,1,0
1558435561817236,0,0,-16,-10,-1,2,3,2
1558435561824217,4,2,5,5,6,4,5,8
1558435561824217,-2,-2,-5,-5,-2,-2,-4,-6
1558435561840175,-5,-5,0,-3,-12,-6,-6,-6
1558435561840175,1,-1,1,-6,-2,-1,-2,1
1558435561842171,2,4,8,8,-1,-7,-2,-1
1558435561842171,-2,-8,-17,-7,9,4,9,3
1558435561854615,3,2,-3,13,1,0,3,3
1558435561854615,-3,-7,3,-8,1,-3,3,-5
1558435561863121,-1,-3,-5,-3,-4,2,-8,-7
1558435561863121,2,-2,-11,0,2,4,-1,3
1558435561877531,-1,2,2,-2,-3,-8,-2,-5
1558435561877531,-1,2,12,10,-1,-3,-6,-4
1558435561884470,-3,-6,-46,-18,-5,2,2,1
1558435561884470,-1,-1,7,0,-1,-5,2,4
1558435561900437,-2,-8,-8,-5,-6,0,-3,-4
1558435561900437,4,4,8,5,-4,-1,-3,1
1558435561902013,-1,0,8,-5,3,2,2,-1
1558435561902013,2,3,2,1,2,1,0,2
1558435561914422,-1,1,-4,9,8,3,1,2
1558435561914422,-4,-3,-5,-19,-8,-7,-4,-5
1558435561922953,-1,-3,2,-3,-4,0,-3,-3
1558435561922953,-1,3,7,-5,-8,-8,-5,-5
1558435561938093,0,-2,-2,-15,-2,1,4,4
1558435561938093,1,0,-1,9,4,1,3,3
1558435561943899,-1,1,5,0,-3,-4,3,2
1558435561943899,-2,-1,2,8,-3,1,-4,-7
1558435561959854,-2,-2,-1,6,-1,-3,-4,-4
1558435561959854,3,2,4,-4,-1,-3,-5,0
1558435561961849,2,1,-1,2,0,-4,3,4
1558435561961849,-5,-5,-3,7,0,5,-2,-1
1558435561974229,2,3,-1,4,0,-3,0,1
1558435561974229,-1,-1,-2,-10,-4,3,-10,-6
1558435561982793,1,1,4,-3,1,-4,4,3
1558435561982793,-1,1,4,-7,1,4,3,2
1558435561998125,-5,-2,-2,3,2,-1,-5,-5
1558435561998125,-1,-2,-6,4,5,-1,-2,0
1558435562004043,-2,-1,6,2,-6,-8,-7,-1
1558435562004043,-3,-3,-5,2,2,-1,4,-2
1558435562020986,-2,-2,0,-4,0,0,-5,-5
1558435562020986,0,-2,-12,-16,-2,-3,5,0
1558435562021643,0,-2,6,1,1,4,3,1
1558435562021643,-3,-9,-23,-4,-4,-3,-10,-4
1558435562034275,0,-1,11,1,-2,3,0,-1
1558435562034275,-2,1,3,4,1,5,4,3
1558435562043048,1,4,1,-2,1,-9,-3,0
1558435562043048,2,4,2,12,10,4,-3,-2
1558435562057339,-1,-1,-4,-13,-11,-6,-3,0
1558435562057339,-2,0,-7,-6,-4,-4,3,0
1558435562063992,-3,-3,-2,3,6,10,0,-1
1558435562063992,0,3,13,11,-3,-8,-7,-2
1558435562079957,-2,-2,-1,-10,-1,0,3,-1
1558435562079957,-7,-7,-9,0,-1,-5,-3,-2
1558435562081941,0,0,3,12,9,8,2,2
1558435562081941,-1,0,-9,-16,-7,-1,4,0
1558435562094350,1,0,8,15,3,-4,-5,3
1558435562094350,-1,1,12,-4,-8,-4,-2,-7
1558435562102921,-2,-3,-11,-6,-2,-2,-5,-5
1558435562102921,-5,-3,8,3,-1,0,0,-7
1558435562118090,2,3,-7,-14,-6,-3,2,0
1558435562118090,-4,-4,0,-1,-5,-3,-6,-5
1558435562124297,-3,-4,-6,-8,-1,0,1,-2
1558435562124297,2,-2,-14,-22,-5,0,5,3
1558435562141135,2,5,9,2,4,3,-2,4
1558435562141135,-1,-3,-6,7,3,-3,-3,1
1558435562141782,-2,2,10,9,0,2,-2,-3
1558435562141782,-1,-3,5,2,4,4,1,0
1558435562154123,0,-1,-6,3,1,1,4,0
1558435562154123,2,0,-10,-4,1,-1,1,5
1558435562162520,-1,4,1,-6,-4,-6,-4,1
1558435562162520,-1,1,15,8,-5,-4,-7,-4
1558435562177870,-4,-9,-16,-2,-5,0,-4,-5
1558435562177870,1,-1,-11,-26,-8,2,7,0
1558435562184497,0,-2,-2,6,1,1,3,2
1558435562184497,0,-3,2,3,5,2,-2,2
1558435562200423,1,2,-6,-3,-2,-3,-1,1
1558435562200423,-4,-5,-6,8,-2,-4,-7,-2
1558435562201416,-1,-3,-7,-10,-7,-4,-3,-2
1558435562201416,-3,3,2,2,-1,1,-5,-1
1558435562214717,-4,-3,-4,-6,4,6,5,-3
1558435562214717,0,1,16,-6,-8,-6,-3,1
1558435562223358,1,1,-6,1,4,3,0,-2
1558435562223358,8,5,2,-2,9,12,19,10
1558435562237321,-3,-3,-5,1,-7,-7,-6,-3
1558435562237321,1,0,0,10,4,6,0,-3
1558435562243339,-2,-2,3,-2,-12,-9,-4,1
1558435562243339,-2,-5,-17,5,-2,-10,-7,-3
1558435562260576,0,1,2,-17,-2,1,2,2
1558435562260576,-4,-9,-13,-4,-2,1,0,-4
1558435562267350,-2,2,8,-5,-8,-5,-6,-4
1558435562267350,-4,-5,-15,-13,1,1,-5,-2
1558435562274552,-2,-2,5,7,0,-6,-3,-3
1558435562274552,3,5,3,1,-2,-4,-1,1
1558435562283196,0,2,8,6,9,7,4,0
1558435562283196,-1,-2,-5,4,-9,-13,-9,-3
1558435562297512,-3,-4,-10,-10,1,2,1,2
1558435562297512,2,12,27,10,12,8,6,3
1558435562304472,-3,-6,-17,-9,-8,-3,-3,-6
1558435562304472,-1,-1,5,15,0,-9,-10,-2
1558435562320433,2,0,0,6,3,4,7,6
1558435562320433,-7,-6,-11,-7,-5,-3,-8,-9
1558435562327382,3,5,1,5,7,2,2,3
1558435562327382,-6,-5,7,-3,-5,-4,-3,-6
1558435562343391,0,-5,-4,11,4,3,-3,-1
1558435562343391,0,-1,-7,0,2,0,0,3
1558435562344276,0,-1,8,16,6,3,-2,2
1558435562344276,1,1,1,-22,-15,-7,6,2
1558435562356998,0,3,1,-5,-3,-4,-8,-2
1558435562356998,-3,-4,-5,3,2,3,2,-1
1558435562363982,-1,-1,4,-2,2,2,4,4
1558435562363982,-3,-1,-10,8,8,6,0,-1
1558435562379938,-4,-1,1,-23,-7,-2,-2,-8
1558435562379938,1,1,-14,3,-3,-9,-8,-2
1558435562385955,-2,-2,5,7,0,0,3,1
1558435562385955,1,5,1,-12,-1,0,4,5
1558435562394351,-2,-2,12,29,6,-3,2,-2
1558435562394351,-2,-3,-18,-3,2,2,1,-1
1558435562402879,1,-6,-17,-19,-6,-6,-6,-4
1558435562402879,0,5,27,21,6,1,-1,-1
1558435562418166,2,4,-1,4,4,2,-2,0
1558435562418166,2,5,14,-4,-9,-3,1,1
1558435562424281,-4,-5,-9,-8,-4,-2,-1,-4
1558435562424281,2,-3,-5,0,4,-6,-1,4
1558435562440206,3,0,7,9,1,1,2,3
1558435562440206,-5,-6,-8,-4,-2,2,-2,-7
1558435562447223,1,4,3,-7,-5,-4,-6,1
1558435562447223,-5,-8,-14,-4,-8,-5,2,-7
1558435562471083,-3,-5,-1,0,2,-1,-1,3
1558435562471083,4,1,3,4,5,5,8,5
1558435562471693,-3,-1,-6,-16,-8,-4,-5,-1
1558435562471693,0,4,5,0,-2,0,3,1
1558435562478049,-1,-3,1,-13,-6,-7,-4,3
1558435562478049,-1,-3,-2,1,-2,-5,0,-2
1558435562484513,-2,1,1,6,3,2,0,1
1558435562484513,-1,-1,-3,1,-3,1,-4,-3
1558435562500488,-6,-4,-13,-13,-3,0,-7,-7
1558435562500488,-3,-1,8,-1,-1,2,5,-1
1558435562507324,-2,-4,1,0,-1,-3,-4,-4
1558435562507324,1,0,-7,-6,-4,-1,-2,-1
1558435562523322,0,4,2,-2,-3,-7,-2,-3
1558435562523322,-1,-10,-27,-16,-13,-14,-14,-2
1558435562524209,-2,-1,-2,11,2,1,-7,-4
1558435562524209,-1,0,-1,-4,4,10,15,1
1558435562537264,4,5,-4,6,8,5,1,1
1558435562537264,-2,-3,10,6,4,0,-3,-3
1558435562544242,-1,-4,-8,2,-4,-5,4,5
1558435562544242,-3,-8,-11,-11,-5,-7,-10,-5
1558435562559947,-4,-1,5,6,-3,-2,-7,-7
1558435562559947,-1,0,-8,-9,-1,-2,-2,-1
1558435562566900,1,-1,1,0,-3,0,1,0
1558435562566900,-1,2,6,-4,5,12,4,2
1558435562582857,0,-7,-11,-15,-6,-3,4,2
1558435562582857,1,3,9,20,10,8,2,2
1558435562583855,-1,0,1,-11,1,4,0,-5
1558435562583855,1,-2,-6,1,-6,-10,-4,0
1558435562596820,1,1,-6,-2,3,4,0,1
1558435562596820,-5,-1,12,3,-4,-7,-4,-7
1558435562605796,0,1,0,3,4,3,1,1
1558435562605796,-2,-1,-6,-11,-6,-3,-6,-4
1558435562619786,-3,-5,-9,-6,-1,2,6,2
1558435562619786,2,2,15,1,-1,-5,-1,-1
1558435562626766,0,-1,-24,0,3,0,-1,0
1558435562626766,-3,-3,-4,-17,-1,1,3,-4
1558435562642696,-4,-3,1,12,-2,-4,-16,-7
1558435562642696,2,0,-5,-8,-2,6,6,2
1558435562644705,1,2,12,4,2,-3,-8,0
1558435562644705,-1,0,-5,1,1,1,-3,-4
1558435562656661,1,-1,-7,-3,-7,0,10,0
1558435562656661,-6,-2,3,4,4,0,-3,-3
1558435562665636,0,-2,2,0,3,4,3,2
1558435562665636,-3,2,4,-2,-8,-7,-10,-4
1558435562679972,-8,-7,5,13,1,-2,-5,-6
1558435562679972,3,6,0,-8,0,-2,-6,2
1558435562686952,-3,-7,-12,-3,-3,-2,5,-3
1558435562686952,0,-4,7,15,1,-4,-5,-2
1558435562703722,-2,-4,-6,-2,-6,-8,-4,-4
1558435562703722,2,4,11,4,2,3,3,3
1558435562704533,-3,-5,-7,-16,-5,-2,-1,-3
1558435562704533,2,0,-5,-4,0,0,5,4
1558435562716500,-2,2,1,-1,-5,-5,-6,-3
1558435562716500,1,-2,-1,13,9,3,4,3
1558435562725478,-3,2,12,-1,-7,-6,-6,1
1558435562725478,-1,0,-5,-6,-3,-1,-3,-1
1558435562739674,4,7,3,-2,1,-2,4,1
1558435562739674,-6,-10,-25,-16,-11,-9,-8,-9
1558435562746420,-2,-1,4,-1,-3,-4,0,-2
1558435562746420,-4,-5,-10,15,9,5,1,5
1558435562763389,3,2,-4,-10,-2,0,0,1
1558435562763389,-3,-4,-1,-3,-2,-3,-5,-5
1558435562764373,4,0,-5,11,4,-2,0,1
1558435562764373,-4,0,19,-12,-8,-2,4,-3
1558435562776340,1,-4,-3,-4,-6,-5,-1,2
1558435562776340,0,-3,-34,-5,3,4,0,2
1558435562785318,-2,1,7,2,-4,1,3,-1
1558435562785318,2,1,2,0,-3,-4,-7,0
1558435562799281,-2,-3,-4,0,-1,-2,0,-5
1558435562799281,0,0,12,-2,-2,2,4,-2
1558435562806260,-8,-5,-8,-12,-2,0,-6,-7
1558435562806260,0,0,-9,-4,0,2,-2,-4
1558435562823217,1,2,5,0,3,-5,-1,4
1558435562823217,0,0,6,2,-10,-5,-5,1
1558435562824246,0,-1,-9,3,0,3,-2,-2
1558435562824246,0,-1,1,0,0,-1,2,2
1558435562837427,-2,1,5,4,4,5,2,-2
1558435562837427,3,0,1,-19,-6,-2,1,1
1558435562845171,-2,-1,15,21,4,2,-11,-8
1558435562845171,-2,-3,-7,2,-5,-8,-3,-2
1558435562868095,-1,1,0,-4,0,3,4,4
1558435562868095,1,-1,-7,15,10,7,11,8
1558435562869091,0,-2,1,-6,-7,-4,-4,-2
1558435562869091,1,1,-7,-3,-5,-3,-2,0
1558435562883057,-5,-2,3,9,2,-2,-6,-8
1558435562883057,-3,-1,9,-1,-4,-2,4,-1
1558435562884053,-1,1,-11,3,4,-5,0,3
1558435562884053,-1,-4,-1,-5,1,1,1,3
1558435562896018,-1,-5,-11,-5,-1,3,1,0
1558435562896018,-3,1,13,-3,-6,-4,-8,-6
1558435562904995,0,0,3,-3,2,1,5,3
1558435562904995,-1,-2,-4,-9,-4,-1,0,-2
1558435562919957,-1,-3,-2,0,-1,1,-3,-1
1558435562919957,1,-1,-1,4,0,-1,-3,-1
1558435562926232,2,3,-5,-1,-3,-3,5,1
1558435562926232,0,3,20,9,3,1,-1,0
1558435562943079,-3,0,-10,-25,-4,3,-4,-2
1558435562943079,-6,-8,8,51,10,-2,-4,-7
1558435562943892,2,0,-2,-29,-10,-5,2,8
1558435562943892,0,0,-7,-3,-1,-2,7,1
1558435562956856,-4,-3,2,3,3,5,0,-8
1558435562956856,0,0,-4,-18,-2,-2,-2,0
1558435562965835,2,-1,3,1,2,-4,-11,1
1558435562965835,-2,-5,-8,4,0,4,11,1
1558435562979795,3,2,5,-3,-6,-7,-1,6
1558435562979795,-3,-2,-14,-4,-2,0,1,-2
1558435562986779,-1,-1,7,8,1,3,2,-2
1558435562986779,1,-2,-7,-29,-6,-3,-3,-1
1558435563002736,1,-3,-2,10,0,-6,1,3
1558435563002736,-1,3,-4,-18,-1,2,2,-1
1558435563003734,-1,-1,0,-5,-9,-8,-1,-2
1558435563003734,2,5,3,14,10,0,-4,0
1558435563015962,-1,-1,-2,-14,-5,1,4,-1
1558435563015962,-4,-5,-5,-19,-7,-5,-8,-3
1558435563024934,0,1,5,4,5,4,5,-1
1558435563024934,-4,0,8,2,0,-4,-12,-6
1558435563039896,1,0,3,7,0,0,3,4
1558435563039896,1,1,-5,-4,0,2,-3,1
1558435563046875,-6,-8,-6,9,-6,-7,-2,-6
1558435563046875,-3,0,0,-9,-5,-3,-1,-1
1558435563062832,-3,-1,-4,1,5,2,-6,-2
1558435563062832,0,5,6,2,-3,-5,4,1
1558435563063831,2,1,7,18,12,10,2,0
1558435563063831,-1,-2,-13,-42,-17,-2,0,-1
1558435563076823,-5,-7,8,38,8,-5,-8,-6
1558435563076823,0,-1,9,-9,-6,-9,1,0
1558435563085772,-1,-1,1,3,0,-3,2,0
1558435563085772,-1,0,6,20,10,6,-2,1
1558435563099734,1,1,-10,-30,-8,2,5,2
1558435563099734,2,3,18,31,13,5,-1,4
1558435563106722,-5,0,-1,-15,-4,-3,-4,-10
1558435563106722,-2,-2,4,-8,-4,-3,-14,-5
1558435563121713,2,-1,-14,4,2,0,5,1
1558435563121713,0,-1,3,-4,-1,2,-2,-3
1558435563130652,1,1,-5,-5,-3,0,2,2
1558435563130652,-3,-3,-2,5,0,-4,-3,-3
1558435563136637,2,4,6,2,0,4,2,0
1558435563136637,-3,-7,-19,-15,-8,-7,-3,-1
1558435563145849,4,5,-5,-2,5,3,-2,2
1558435563145849,-3,-6,-4,2,-10,-7,7,-1
1558435563159827,-3,-5,2,-14,-3,-1,-1,-2
1558435563159827,1,2,-22,-10,-2,-4,-1,1
1558435563166795,-5,-6,1,-9,-7,-3,-2,-2
1558435563166795,0,0,-7,-6,-8,-2,-3,-3
1558435563190732,2,5,15,13,4,-2,3,0
1558435563190732,0,-4,-23,-4,-8,-3,2,4
1558435563191730,2,3,-1,-7,4,5,0,1
1558435563191730,-3,-6,0,9,3,-1,2,-4
1558435563196937,-3,-4,-6,-25,-9,-1,-5,-4
1558435563196937,-5,-6,2,-11,-2,-1,-5,-10
1558435563205693,-1,4,6,8,-5,-6,-1,1
1558435563205693,1,-3,-9,2,13,8,6,7
1558435563219654,-2,-1,7,13,8,1,-2,-2
1558435563219654,0,0,6,12,9,7,3,0
1558435563226857,-1,-4,-5,-10,-7,-7,-6,-5
1558435563226857,0,1,3,1,-3,1,-4,0
1558435563241805,2,2,-10,5,1,0,-3,3
1558435563241805,-4,-1,28,12,0,-2,1,-3
1558435563248621,-3,-2,-8,-2,-4,-3,0,0
1558435563248621,3,5,-4,-7,1,1,1,2
1558435563256756,0,-3,3,24,5,0,3,1
1558435563256756,-3,-1,3,4,0,2,-3,-2
1558435563265537,-4,-3,3,4,0,-2,-12,-6
1558435563265537,6,7,3,0,-2,0,10,5
1558435563279495,-2,-2,1,4,2,0,-3,0
1558435563279495,-6,-3,-10,-11,-6,-2,-3,-10
1558435563286477,2,-1,0,6,5,0,-2,2
1558435563286477,-6,-3,0,1,-3,-7,-4,-5
1558435563302434,4,5,5,3,8,5,3,4
1558435563302434,2,-2,-6,-17,2,4,2,3
1558435563308417,-1,-6,-13,10,-1,-3,9,-1
1558435563308417,-2,2,13,11,7,8,1,0
1558435563316397,-10,-13,-23,-19,-24,-19,-14,-12
1558435563316397,3,4,-2,-13,-5,-1,2,1
1558435563325372,1,0,1,-11,-2,3,1,1
1558435563325372,-3,-5,1,39,11,-2,-6,-3
1558435563339336,-3,0,-4,-26,-6,1,3,-2
1558435563339336,0,0,0,21,5,-1,-6,-4
1558435563346507,-6,-7,-3,5,-1,-7,-2,-3
1558435563346507,0,-2,-1,4,-9,-5,-1,-3
1558435563362315,6,8,1,-14,4,5,-5,4
1558435563362315,0,-1,8,-1,-8,0,9,1
1558435563369257,4,1,-4,-26,-11,-2,1,4
1558435563369257,-8,-8,0,16,9,1,-1,-7
1558435563385212,-1,-2,7,-3,-2,-2,-2,-6
1558435563385212,0,1,-15,-24,-11,-4,-5,-1
1558435563386212,0,2,2,28,18,13,5,-3
1558435563386212,1,5,10,-8,-5,-5,-1,-2
1558435563400173,-3,-9,-7,16,7,5,1,-4
1558435563400173,-1,-2,-12,-7,-1,-1,0,1
1558435563406455,-2,-3,10,13,-1,-6,-4,-1
1558435563406455,5,3,-10,-27,-9,0,-4,3
1558435563422113,-2,-1,2,29,6,0,10,4
1558435563422113,0,4,16,-20,1,2,-2,1
1558435563429096,2,0,-8,-23,-12,-3,-4,3
1558435563429096,-11,-10,-5,5,-7,-15,-15,-11
1558435563445345,1,1,-3,-8,-1,0,7,2
1558435563445345,2,-1,-3,22,8,4,-2,1
1558435563447046,0,7,13,-3,-1,-2,1,0
1558435563447046,3,-3,-21,-22,-3,4,-3,3
1558435563460012,-3,-4,3,3,-8,-5,-5,-5
1558435563460012,-1,-2,-7,-8,1,1,7,2
1558435563465996,-3,0,9,14,8,2,-6,-3
1558435563465996,5,0,-6,-17,-9,-7,-1,5
1558435563481955,-4,-2,-11,-8,1,3,1,-4
1558435563481955,0,-1,-5,2,2,2,-2,-4
1558435563488953,-5,-6,0,-4,-5,-6,-11,-9
1558435563488953,0,-1,7,2,3,1,7,5
1558435563504895,-2,-6,-13,2,-2,-4,-1,-1
1558435563504895,5,4,15,26,7,5,1,6
1558435563506887,-4,-4,-13,-54,-17,-7,-4,-7
1558435563506887,-3,0,5,12,-4,-4,-5,-7
1558435563519853,2,-2,-6,-7,1,1,-1,0
1558435563519853,2,6,5,-13,2,9,0,2
1558435563527021,-2,-3,16,30,5,-2,-3,1
1558435563527021,-2,-8,-30,-18,2,-4,-6,-2
1558435563541804,3,9,33,14,-1,-2,5,0
1558435563541804,-4,-5,-7,-9,0,-6,-8,-8
1558435563548776,-1,-3,1,-3,-14,-9,5,2
1558435563548776,1,0,-4,3,6,8,2,0
1558435563564732,-2,1,6,-3,-4,-2,-7,-5
1558435563564732,-2,-3,-13,1,-2,-4,2,2
1558435563566727,-1,-1,-13,-13,-10,-3,-4,2
1558435563566727,-2,-2,-7,-2,-2,-2,2,-1
1558435563578878,-4,-2,2,-10,-6,-2,-10,-4
1558435563578878,0,0,21,33,10,-5,5,-1
1558435563587670,-6,-10,-27,-8,7,4,-8,-4
1558435563587670,1,2,8,-8,-8,3,3,0
1558435563601635,0,-3,-14,15,9,3,2,3
1558435563601635,0,1,-5,-21,-10,-8,2,-1
1558435563608614,-2,3,20,25,7,3,-4,-4
1558435563608614,-1,-1,-1,23,9,-4,3,1
1558435563625570,0,-6,-30,-24,-7,-1,-8,-4
1558435563625570,-4,-3,-2,4,-5,2,1,2
1558435563626566,3,2,-4,-7,3,4,7,2
1558435563626566,4,4,11,14,1,0,-4,4
1558435563638547,-2,-3,13,-2,-6,-8,-5,-4
1558435563638547,-5,-10,-14,11,-3,-3,1,-3
1558435563647724,0,-2,-3,-5,4,4,1,-2
1558435563647724,1,4,11,4,-1,-4,3,-1
1558435563662470,-5,-4,-5,-9,2,0,-9,-5
1558435563662470,3,4,10,1,6,7,-12,2
1558435563668454,2,6,12,3,-9,-6,8,4
1558435563668454,-6,-2,2,-5,-3,-3,-7,-10
1558435563685410,0,-5,-27,-26,-20,-12,2,3
1558435563685410,-3,-3,3,-13,-4,2,-2,-4
1558435563686406,0,-1,-16,3,5,3,0,0
1558435563686406,1,0,-15,-17,-2,-3,-7,-1
1558435563699372,-7,-11,19,21,4,0,-2,-5
1558435563699372,-2,-2,8,7,5,1,5,3
1558435563707574,5,4,-7,-19,0,-1,-1,7
1558435563707574,-2,3,15,6,3,2,-4,-6
1558435563722312,-3,-6,-16,-1,-1,-1,4,3
1558435563722312,1,0,4,16,-2,-11,1,0
1558435563729308,-2,0,8,1,-1,2,2,-4
1558435563729308,-3,-7,-12,-3,-1,5,-5,-5
1558435563745249,-2,3,1,-12,-14,-11,-6,-5
1558435563745249,-4,-3,0,0,-5,-6,-6,-3
1558435563746247,-2,2,4,22,13,4,2,-5
1558435563746247,-1,-5,0,-1,11,18,11,8
1558435563759211,3,3,-2,4,7,4,8,4
1558435563759211,-4,-3,-7,-8,-13,-13,-11,-7
1558435563768220,1,-3,-6,5,-1,-4,0,1
1558435563768220,-3,1,6,-5,-8,-7,-2,-2
1558435563782151,-2,2,-3,-7,0,-2,2,-4
1558435563782151,-4,-5,-15,-7,-6,0,-1,-9
1558435563789131,-2,-2,4,11,1,4,-5,0
1558435563789131,1,-2,-17,0,5,3,8,0
1558435563805090,2,2,17,5,1,5,1,3
1558435563805090,-6,3,10,-5,3,-3,-5,-11
1558435563807083,0,-2,-8,-7,-3,-3,0,-2
1558435563807083,0,-1,-5,1,1,5,3,1
1558435563819051,5,8,15,-2,-4,-3,-10,2
1558435563819051,3,-2,-7,-2,-4,-3,2,4
1558435563828028,-3,-7,-9,-8,-4,-1,8,0
1558435563828028,4,6,19,14,4,-1,-3,3
1558435563841992,1,4,-6,0,1,1,1,1
1558435563841992,-4,-6,0,-4,-6,-6,-8,1
1558435563848971,1,1,-2,1,1,3,8,3
1558435563848971,-4,-10,-12,10,5,5,-2,-3
1558435563864931,-2,-1,9,0,1,0,3,-1
1558435563864931,1,-1,-11,-28,-5,0,-9,6
1558435563866925,-2,2,2,-4,1,2,-1,-7
1558435563866925,0,-2,3,-2,-9,-11,-1,-1
1558435563878891,2,6,6,8,5,2,-1,-2
1558435563878891,-3,-4,-5,4,-1,-5,-5,-3
1558435563887867,1,-1,-13,-6,3,5,7,4
1558435563887867,-4,0,10,-11,-2,2,-1,-7
1558435563901831,0,-4,-12,0,-2,-4,-2,0
1558435563901831,1,-2,-2,2,-2,-5,-3,4
1558435563908813,-1,-2,0,-5,0,-3,1,2
1558435563908813,3,2,1,8,4,3,0,-1
1558435563924804,1,2,10,4,-3,-2,-1,0
1558435563924804,-4,-7,-13,-8,-6,-1,-5,0
1558435563926763,2,4,8,2,-8,-6,-2,-1
1558435563926763,-1,3,-4,-9,1,1,-4,0
1558435563938738,-6,-16,-19,1,4,0,2,0
1558435563938738,2,1,4,7,7,7,7,2
1558435563947708,-1,-5,-7,-21,-13,-9,-13,-7
1558435563947708,-7,-7,3,21,3,-2,3,-2
1558435563961670,3,2,1,8,5,5,-1,0
1558435563961670,3,2,-11,-9,-1,0,3,2
1558435563968654,-1,1,9,5,6,2,0,0
1558435563968654,-4,1,-5,-11,-7,-7,-7,-8
1558435563985619,-3,-6,2,1,-7,-6,-8,-3
1558435563985619,-1,-2,-8,-5,1,2,8,-3
1558435563986607,3,5,9,9,5,4,-2,2
1558435563986607,2,5,18,-8,-6,0,3,4
1558435563998573,-3,-2,-9,-7,0,3,-1,-3
1558435563998573,-3,-3,-1,-5,-6,-6,-3,-4
1558435564007548,2,-1,9,9,6,1,-1,-1
1558435564007548,-1,1,18,-1,-1,-1,-2,-2
1558435564030487,-2,2,2,-4,-1,-4,0,2
1558435564030487,1,0,-1,5,2,4,3,-1
1558435564031484,-3,-3,-7,0,-3,-1,-7,-1
1558435564031484,-1,-3,1,-6,-4,-3,1,-4
1558435564045446,-1,2,-4,-21,-3,-1,1,1
1558435564045446,-1,1,4,9,7,9,0,-3
1558435564046550,-3,3,11,5,1,2,6,-4
1558435564046550,-1,-11,-23,2,-5,-8,0,2
1558435564059410,0,0,0,-1,-3,-2,-3,-1
1558435564059410,-1,1,-1,6,-2,-4,-7,-9
1558435564067473,-4,-12,-17,-16,-4,-3,-8,-2
1558435564067473,5,4,-11,-5,2,1,6,3
1558435564082349,-1,-5,3,-5,-9,-6,-4,-3
1558435564082349,1,4,3,8,4,3,5,2
1558435564089502,-4,-7,-2,3,4,2,0,0
1558435564089502,-5,-6,-15,-5,-3,-3,-5,-6
