timestamp,emg1,emg2,emg3,emg4,emg5,emg6,emg7,emg8
1558435693830232,-1,-1,-1,-12,-12,-8,-2,-3
1558435693830232,-2,-5,-3,17,5,0,-5,-4
1558435693831230,0,1,3,0,6,8,1,-2
1558435693831230,1,-3,-3,-2,-9,-10,-4,1
1558435693832228,-1,1,3,1,2,0,-1,-2
1558435693832228,-3,-2,-4,-4,2,4,5,0
1558435693836218,0,-1,2,8,1,-1,1,1
1558435693836218,-2,-1,-1,5,-2,1,-3,-6
1558435693842203,-4,-6,-7,-20,-9,-5,-6,-2
1558435693842203,0,-3,0,-4,-5,-6,-5,2
1558435693851177,-1,0,1,5,2,3,2,-5
1558435693851177,-2,0,1,0,1,5,-4,-2
1558435693857160,-3,-3,-3,6,-4,-4,-8,-4
1558435693857160,1,5,11,11,7,3,9,6
1558435693873119,0,4,12,-1,4,2,5,3
1558435693873119,1,-2,-13,-15,-4,-1,-1,0
1558435693881096,-1,-3,0,18,0,1,1,-2
1558435693881096,-3,-4,-11,-20,-10,-4,-3,-4
1558435693896056,1,4,1,4,3,-4,-7,2
1558435693896056,-1,-8,-4,-14,-5,-8,-5,-1
1558435693902040,2,4,-1,-1,-1,5,2,1
1558435693902040,-2,-6,-19,-11,-4,0,-1,-1
1558435693948916,2,2,9,5,1,-4,1,4
1558435693948916,-1,3,0,-10,-3,0,0,1
1558435693949913,-6,-5,-1,10,-2,-2,-3,-6
1558435693949913,-1,-2,-12,-9,-1,-3,-2,1
1558435693950910,-4,-3,-4,-3,-9,-4,-7,-3
1558435693950910,-2,1,5,8,8,10,1,-7
1558435693950910,4,2,-3,-9,2,-3,8,8
1558435693950910,0,-1,0,6,6,4,3,-2
1558435693961880,-1,-1,0,0,-6,-2,-4,-2
1558435693961880,-3,-7,-16,-18,-13,-3,-3,-6
1558435693969860,1,1,5,6,1,5,-2,-2
1558435693969860,1,3,15,1,-1,-4,-2,-2
1558435693976841,-5,-11,-19,-18,-6,-5,-1,0
1558435693976841,0,4,15,11,3,1,-7,-4
1558435693992799,-4,-3,-10,-15,-10,-3,1,-4
1558435693992799,1,0,-3,4,3,-2,2,2
1558435693999780,3,4,8,12,11,4,3,-1
1558435693999780,-1,-1,-2,-2,-2,-1,5,4
1558435694006762,0,-2,2,-1,-1,-1,-9,-4
1558435694006762,-3,-4,4,-16,-9,-2,-10,-8
1558435694021720,0,2,-1,3,-3,-10,-2,-1
1558435694021720,1,-2,2,5,9,-3,6,9
1558435694030696,-2,3,4,14,9,4,-2,-4
1558435694030696,-1,-2,-6,-10,-7,-2,-1,0
1558435694036680,0,-1,3,-1,-3,-5,-5,0
1558435694036680,1,2,3,-2,2,4,0,0
1558435694052639,-6,-6,0,7,-5,-5,-7,-9
1558435694052639,0,0,-3,-13,-6,-1,2,-2
1558435694059619,-2,-3,0,12,6,5,7,1
1558435694059619,3,2,-6,1,0,-3,-1,3
1558435694066601,-3,-4,-10,-2,-6,-6,-9,-1
1558435694066601,-1,-1,3,-5,2,7,2,3
1558435694081560,-1,-3,-11,-4,-7,-3,-1,-6
1558435694081560,-4,-3,-5,-1,-2,-5,-2,-3
1558435694090537,4,5,9,6,11,10,4,5
1558435694090537,-3,1,4,8,-3,-3,5,-1
1558435694096520,-2,0,-1,-16,0,3,-2,-2
1558435694096520,-4,-5,-2,4,2,-3,-5,-6
1558435694112477,-1,-2,-3,-15,-13,-8,-1,2
1558435694112477,2,2,-5,8,2,-1,-6,1
1558435694119459,1,3,4,1,3,2,1,0
1558435694119459,1,-2,0,-1,-5,-2,1,2
1558435694127438,-3,0,-2,-13,-7,-6,-1,-5
1558435694127438,-3,-5,-4,19,8,5,-1,2
1558435694142397,-1,2,11,-6,-6,0,-9,-7
1558435694142397,-3,-3,2,-7,-9,-7,-5,-3
1558435694150376,3,0,-7,9,7,3,4,3
1558435694150376,0,-1,7,5,-3,-4,6,0
1558435694157357,-1,0,-1,4,5,3,0,2
1558435694157357,-2,1,3,-5,3,3,-4,-3
1558435694172319,-5,-6,1,-5,-9,-3,-3,-6
1558435694172319,-1,-4,-8,-2,-8,-11,-8,-3
1558435694179299,1,1,6,5,2,0,0,2
1558435694179299,4,0,-6,2,5,2,6,3
1558435694187278,1,-1,-6,-13,-4,-3,2,-1
1558435694187278,-4,0,-7,-21,-5,2,-4,-3
1558435694202240,-3,-3,-1,-5,-4,-2,-4,-4
1558435694202240,-2,-4,-8,1,-9,-9,-4,-1
1558435694210220,-1,-1,4,11,10,1,5,-2
1558435694210220,1,-2,-3,-6,-3,-4,-5,-1
1558435694217198,-1,-5,-21,-8,0,3,-2,0
1558435694217198,-1,0,-2,8,1,0,3,-6
1558435694233156,4,5,5,1,-2,-2,-5,5
1558435694233156,-1,0,-4,-9,2,1,8,0
1558435694239146,-4,-3,-6,2,1,-5,2,0
1558435694239146,0,0,2,-2,-3,0,0,2
1558435694247117,-2,-3,-2,-4,-3,-5,-4,-4
1558435694247117,2,2,-9,-3,1,2,3,3
1558435694262078,0,-2,9,2,1,2,3,-2
1558435694262078,-6,-5,-8,-6,-10,-8,-6,-8
1558435694269059,-3,2,5,-1,0,-4,-8,-1
1558435694269059,-2,2,7,5,2,3,-5,0
1558435694278036,-1,4,1,-2,6,7,11,3
1558435694278036,0,-2,4,4,2,-1,-4,-1
1558435694292995,2,-3,-9,-18,-12,-2,-2,1
1558435694292995,-3,-5,-5,8,-2,-9,-6,-6
1558435694299977,1,4,9,4,-4,0,-6,-2
1558435694299977,-2,-3,-12,-20,-4,5,2,2
1558435694306958,1,-1,2,20,3,-7,3,8
1558435694306958,-5,-3,9,15,10,8,1,-6
1558435694321917,-1,3,-1,-13,-4,1,-1,-3
1558435694321917,0,-1,0,1,-2,-1,-3,-1
1558435694329897,0,-3,-5,-3,-4,-5,-1,4
1558435694329897,1,-1,-2,-1,-1,-1,2,0
1558435694336877,-4,-3,-4,4,-1,-2,-1,-2
1558435694336877,2,3,12,-1,1,5,-1,-1
1558435694352835,0,0,-14,-1,1,6,0,-3
1558435694352835,-4,-6,-15,7,2,-7,-3,-1
1558435694359816,1,1,-3,-4,-4,-1,-1,-5
1558435694359816,-1,2,1,-4,-5,-6,-4,-1
1558435694366797,-2,-1,-2,-22,-10,-4,-3,-2
1558435694366797,-1,-6,2,-5,0,7,2,2
1558435694383752,0,-3,0,9,3,4,-1,2
1558435694383752,-3,-7,-14,0,-2,-6,-2,-3
1558435694389736,-3,0,-2,-7,3,3,2,-5
1558435694389736,2,3,7,-5,-5,0,-2,3
1558435694396718,-6,-5,2,4,3,0,4,-9
1558435694396718,2,4,6,0,2,-1,2,1
1558435694412675,-1,-1,2,8,6,7,2,0
1558435694412675,2,3,7,-6,-6,-7,-8,-6
1558435694419657,3,3,-9,4,1,0,2,9
1558435694419657,1,1,-17,-31,-11,-3,-2,0
1558435694426638,-7,-7,16,35,15,0,3,-6
1558435694426638,-3,1,2,1,-7,-3,-8,-2
1558435694441597,1,-1,0,-15,-12,-5,1,-1
1558435694441597,2,4,7,12,5,-3,1,3
1558435694450574,3,0,-7,-24,-5,4,0,5
1558435694450574,2,-1,-13,4,9,5,5,4
1558435694456558,-2,0,4,10,5,5,1,-5
1558435694456558,-6,-4,-15,-7,-4,-6,-5,-5
1558435694472515,-1,-1,2,2,-2,2,-1,-2
1558435694472515,-2,3,2,-4,-10,-10,-5,-7
1558435694479496,-5,-10,-6,5,-2,-7,-6,-2
1558435694479496,0,-1,9,6,3,2,2,4
1558435694487475,-4,-3,-12,9,5,5,-1,-6
1558435694487475,0,-3,-1,-12,-7,-2,2,2
1558435694502435,4,4,-7,-6,-3,-3,-9,1
1558435694502435,-5,-2,11,6,4,3,7,-6
1558435694510413,-1,-2,-6,1,-1,-1,-3,-2
1558435694510413,0,0,3,-16,-4,2,6,-1
1558435694517395,-2,-2,-11,-8,-5,-8,-2,-1
1558435694517395,3,1,-3,-3,-3,0,-3,2
1558435694532355,4,6,16,10,2,-1,1,2
1558435694532355,-8,-7,-1,13,6,2,3,-8
1558435694539336,-4,-4,-3,-20,-13,-10,-7,-5
1558435694539336,1,-4,0,-3,-4,-3,-9,1
1558435694555293,-4,-5,-9,-4,3,3,6,-1
1558435694555293,4,4,8,7,2,-1,1,6
1558435694562276,0,-1,2,-9,-3,-4,-6,2
1558435694562276,-6,-4,-8,13,1,-1,-1,-6
1558435694569256,5,3,-14,-9,-1,-3,-4,2
1558435694569256,-2,-2,2,-10,-4,-1,-4,-2
1558435694578232,-2,-5,-9,6,0,0,-1,-4
1558435694578232,-2,0,-3,-1,2,6,-5,-5
1558435694592195,1,0,4,-2,-5,-4,-3,-1
1558435694592195,3,2,0,11,6,1,11,5
1558435694599176,1,1,-4,-11,-5,-2,1,1
1558435694599176,0,2,9,7,-2,-1,-2,1
1558435694615133,-2,4,8,-1,-2,-2,-2,-4
1558435694615133,-7,-13,-18,-26,-13,-8,-21,-6
1558435694622116,0,1,1,13,5,-1,2,0
1558435694622116,3,0,6,6,11,2,14,8
1558435694629097,0,-1,5,7,-2,0,-1,-2
1558435694629097,0,4,6,-4,-4,2,1,-3
1558435694639069,1,0,6,12,6,3,-2,1
1558435694639069,0,1,-6,-21,-9,-6,-1,1
1558435694653033,-1,0,1,16,11,1,4,0
1558435694653033,-1,-3,-1,13,1,0,-3,1
1558435694659031,-5,-5,-16,-18,-3,1,-5,-11
1558435694659031,0,1,-1,2,4,7,3,-1
1558435694674980,-1,-2,5,-17,-5,3,0,0
1558435694674980,0,0,-6,10,-2,-6,1,2
1558435694681955,-1,3,13,12,3,-1,-4,2
1558435694681955,-1,-3,3,-5,-11,-5,-5,-4
1558435694689933,-5,-9,-24,-17,-5,-4,-2,-2
1558435694689933,1,4,-3,-11,0,-6,3,1
1558435694698911,-1,0,8,0,-1,2,0,0
1558435694698911,-2,-1,7,10,3,1,-5,-4
1558435694712872,-2,-4,-5,-2,-5,-5,-3,-2
1558435694712872,-1,0,-4,-6,-6,-2,-4,-3
1558435694720851,0,1,6,8,1,0,3,-1
1558435694720851,-3,-5,-7,-3,0,-8,-3,-2
1558435694734813,1,6,9,-3,1,7,1,-1
1558435694734813,-4,-5,-4,0,3,4,0,-3
1558435694741796,-4,-4,-10,-8,-6,-8,-2,0
1558435694741796,2,2,4,3,-1,0,-1,-4
1558435694749780,2,0,1,5,-2,-6,-4,0
1558435694749780,2,4,1,-2,-1,-5,-2,-2
1558435694758749,3,2,3,14,4,6,7,2
1558435694758749,-4,-10,-9,4,0,0,-3,-2
1558435694772713,0,-2,-9,-6,-5,-2,-2,6
1558435694772713,-4,-2,3,4,3,0,-5,-4
1558435694779694,2,2,4,1,7,5,5,3
1558435694779694,1,4,1,8,2,-1,0,2
1558435694795657,-1,1,1,-14,-6,-6,-8,-6
1558435694795657,-6,-8,-1,12,9,9,10,-4
1558435694801633,0,-3,-1,-7,-8,-6,-5,-1
1558435694801633,-1,0,-4,-8,-3,-4,-1,0
1558435694809619,0,-1,2,4,4,3,3,-2
1558435694809619,1,2,0,-11,-6,-1,-6,1
1558435694824575,1,2,0,2,3,0,-1,-3
1558435694824575,-3,-7,-11,-8,-6,-5,-6,-4
1558435694832554,4,3,12,8,3,4,12,5
1558435694832554,2,3,3,15,7,-2,0,0
1558435694839533,-3,-5,-8,-28,-11,1,2,-2
1558435694839533,-1,0,-10,6,2,3,-2,-3
1558435694855497,-5,-7,1,4,-2,-3,-7,-4
1558435694855497,-2,-1,1,-9,-2,4,-1,-4
1558435694862472,1,1,-5,0,-5,-5,-7,0
1558435694862472,-3,1,0,-9,-10,-5,-2,-2
1558435694869453,-3,-4,-4,2,-2,-1,0,-1
1558435694869453,5,5,-1,6,14,15,15,10
1558435694885411,0,-2,4,4,-1,0,-5,-3
1558435694885411,-3,-3,-3,-9,-4,-6,-4,-4
1558435694892399,-4,-1,2,3,-1,-3,-4,-7
1558435694892399,-2,-5,-3,-9,-17,-12,-12,-3
1558435694899376,0,1,-1,5,5,-1,2,3
1558435694899376,6,5,12,3,9,16,14,6
1558435694915331,1,2,6,9,6,-2,-2,-1
1558435694915331,-2,-4,-13,-13,-6,-2,-2,-4
1558435694922315,-2,0,-7,-7,-9,-2,-4,-6
1558435694922315,-2,-3,5,4,-5,-7,-4,-1
1558435694938271,0,-1,-10,-6,4,5,-1,4
1558435694938271,-2,3,1,6,3,0,1,-4
1558435694944260,-2,0,3,-2,-3,-5,-4,1
1558435694944260,-3,-10,-20,-7,-2,3,8,1
1558435694952235,3,5,8,7,0,2,9,3
1558435694952235,-1,-4,5,-3,3,-5,-5,3
1558435694961210,-1,0,-8,-12,-4,-2,-3,-2
1558435694961210,-6,-1,12,17,16,7,-6,-4
1558435694975181,1,-3,-6,-12,-11,-4,-3,-1
1558435694975181,1,0,-3,5,-2,-4,1,0
1558435694982159,0,0,7,5,0,3,2,-1
1558435694982159,4,3,7,-5,-5,-4,-4,-1
1558435694998181,-2,-2,-16,-5,-6,-3,-4,-2
1558435694998181,1,1,9,2,6,7,6,5
1558435695005093,-6,-4,-1,6,0,-2,-3,-5
1558435695005093,1,4,9,2,-4,-1,-4,-3
1558435695021053,-2,-5,-5,-6,-2,0,2,0
1558435695021053,1,0,3,3,-3,-6,-1,-1
1558435695022046,2,1,-4,-5,8,11,5,4
1558435695022046,-5,-7,-8,-1,-13,-9,-6,-6
1558435695035116,1,2,5,-2,0,-3,-3,-1
1558435695035116,-2,-2,-5,3,-3,-1,-7,-4
1558435695042100,-2,-2,7,-10,3,-4,0,2
1558435695042100,0,1,-10,-5,-1,1,-4,1
1558435695057959,-3,3,17,3,0,-2,4,-3
1558435695057959,-1,-3,-4,-12,-3,2,0,-1
1558435695064940,-1,-1,-7,1,-2,-2,2,0
1558435695064940,-4,-4,16,21,9,1,0,-4
1558435695080890,-4,-3,-17,-13,-6,-5,-4,-4
1558435695080890,-3,5,5,9,-2,-2,-4,-3
1558435695081885,-3,-11,-7,-6,-3,-4,-3,-2
1558435695081885,3,3,-2,-8,3,6,6,7
1558435695094851,2,1,4,-2,0,3,4,3
1558435695094851,-1,-1,-5,-2,-5,-4,-2,-4
1558435695110016,1,3,1,-1,5,3,-1,1
1558435695110016,-1,-2,-6,0,-1,-2,0,0
1558435695117791,-3,-6,-8,-3,-3,-3,-4,-3
1558435695117791,0,1,2,-8,-5,-4,0,0
1558435695124771,4,6,9,13,-3,-2,0,-1
1558435695124771,0,3,4,-16,0,4,11,5
1558435695140727,-3,-5,-12,7,13,11,1,-2
1558435695140727,-3,-9,-24,-4,-1,1,-7,-4
1558435695142722,-4,-3,-3,-11,-6,0,-2,-5
1558435695142722,3,3,3,4,0,-4,-7,3
1558435695154689,-3,-3,3,-4,-7,-8,-4,-3
1558435695154689,1,2,7,-1,1,-2,4,2
1558435695161730,0,0,2,9,4,3,-2,-2
1558435695161730,-5,-3,-11,3,-7,0,-2,-6
1558435695177686,-1,-2,1,-11,-6,-2,-7,-1
1558435695177686,0,0,2,5,-1,0,-3,-2
1558435695184671,-1,-4,-3,2,-5,-9,-2,4
1558435695184671,3,3,2,1,6,-2,4,5
1558435695200567,1,1,6,5,0,-2,0,-1
1558435695200567,-1,-2,-5,-9,0,3,-2,2
1558435695202562,-4,0,3,10,-2,-2,-3,-9
1558435695202562,-4,-5,-1,-5,-3,-5,-6,-4
1558435695215527,2,2,2,4,1,1,4,3
1558435695215527,0,1,5,0,7,6,9,3
1558435695221511,0,-4,-16,-2,8,6,3,2
1558435695221511,-1,-1,-3,-11,-8,-2,-2,-3
1558435695237468,-1,-1,-5,-16,-16,-10,-8,-4
1558435695237468,-3,-2,5,14,0,-4,-4,-1
1558435695244449,1,0,-4,-9,-3,-4,-1,4
1558435695244449,-1,-1,1,4,8,5,2,1
1558435695261648,2,5,1,5,1,-1,-1,0
1558435695261648,-4,-5,-2,-5,-7,-2,-6,-3
1558435695262403,-3,-2,3,-6,2,0,0,-1
1558435695262403,-1,-6,-10,11,-2,-4,-2,-2
1558435695275366,-2,1,16,1,1,-1,-5,2
1558435695275366,-2,-5,-14,-1,4,1,5,-3
1558435695282349,0,2,7,4,1,1,4,1
1558435695282349,-3,-1,-2,-9,-5,-1,-4,-5
1558435695297315,-3,-1,3,6,2,3,-4,-2
1558435695297315,0,-1,-4,0,-1,1,3,-3
1558435695304290,-3,-4,0,-9,-9,-2,-1,-6
1558435695304290,3,4,0,-5,4,3,5,5
1558435695321244,-3,-3,-8,16,5,-2,-1,-5
1558435695321244,-2,-1,0,-10,-8,-12,-12,-2
1558435695322241,4,2,4,4,8,2,9,6
1558435695322241,3,5,12,-1,5,4,0,-1
1558435695335212,-5,-10,-21,-2,-6,-8,-5,-1
1558435695335212,0,1,3,1,-3,1,-4,0
1558435695342194,-2,-3,1,-5,-8,-5,-6,-3
1558435695342194,3,1,-15,-4,3,3,4,5
1558435695358190,-1,-1,6,5,1,-4,2,3
1558435695358190,-3,-1,3,5,-5,-2,-2,-3
1558435695364196,-5,-1,-2,0,-3,-2,-9,-5
1558435695364196,-3,-4,-1,-7,-10,-2,-4,-10
1558435695381086,-1,1,4,7,5,5,4,-2
1558435695381086,6,4,6,12,15,11,14,9
1558435695382084,0,-2,-11,-27,-10,-9,-2,-2
1558435695382084,-4,-2,8,18,2,-4,-10,-3
1558435695395096,-2,1,0,-18,-7,2,1,2
1558435695395096,-5,-3,-3,-1,-9,-9,-7,-8
1558435695402035,4,2,1,8,5,0,2,3
1558435695402035,-3,-2,-3,-3,0,2,-2,-1
1558435695417987,-1,-6,-11,-5,0,0,-1,0
1558435695417987,1,2,1,-1,0,0,-2,-1
1558435695425059,-4,-4,-7,-7,-4,0,-6,-4
1558435695425059,2,0,9,5,4,3,1,0
1558435695441031,2,2,1,2,3,0,4,2
1558435695441031,-5,-10,-27,-30,-11,-9,-4,-3
1558435695441926,2,4,-2,5,0,1,3,3
1558435695441926,-3,-5,5,4,0,0,-1,0
1558435695455925,-8,-5,-2,-7,-3,-5,-8,-10
1558435695455925,1,3,10,1,6,6,6,4
1558435695461975,-5,-5,2,17,-2,-10,-7,-3
1558435695461975,2,0,-6,-10,-3,-2,1,2
1558435695477827,2,2,5,-3,-7,-5,-1,-1
1558435695477827,-1,-1,-7,-8,-4,1,1,1
1558435695484810,-2,-3,7,14,3,0,0,-5
1558435695484810,0,0,4,6,5,-3,4,3
1558435695501799,3,1,-8,-8,-2,1,-2,-2
1558435695501799,-2,0,5,3,0,-4,-4,-1
1558435695502759,0,0,3,-3,-3,3,4,2
1558435695502759,-5,-6,-9,-4,-3,-5,-7,-6
1558435695514903,0,-1,2,-11,-15,-7,-11,-6
1558435695514903,4,3,3,9,14,11,16,6
1558435695523703,-1,3,7,9,5,3,2,0
1558435695523703,-1,-5,-17,-11,-11,-12,-6,0
1558435695537874,0,0,1,1,3,8,-2,-1
1558435695537874,-6,-7,-2,-2,-8,-9,-10,-6
1558435695552749,1,-2,-5,-1,12,6,6,5
1558435695552749,1,3,8,7,-2,1,4,-1
1558435695561633,-1,1,0,-5,-5,-5,-1,2
1558435695561633,-3,-4,-1,6,-2,-1,0,-2
1558435695562601,1,1,-4,-10,-4,-4,-2,-2
1558435695562601,-2,-2,-2,-8,-4,-3,-4,-2
1558435695574718,-1,-1,-6,9,4,7,6,1
1558435695574718,1,0,-4,-9,-3,-4,-5,1
1558435695583547,-1,-2,7,6,3,4,0,-3
1558435695583547,-4,-1,-1,-4,-7,-4,-3,-5
1558435695598511,1,0,4,13,2,-10,-6,2
1558435695598511,-2,-3,-2,-6,-2,0,7,2
1558435695604500,-4,-3,-6,3,-1,-8,-7,-6
1558435695604500,4,5,7,-6,4,5,4,2
1558435695621622,-7,-6,2,8,0,-2,-5,-7
1558435695621622,1,2,-2,-4,-4,-1,-3,-2
1558435695622445,-2,2,4,3,3,3,1,0
1558435695622445,-1,-2,-1,-10,-5,-8,-3,2
1558435695634415,4,3,6,-2,11,15,18,8
1558435695634415,-1,-4,-11,-15,-7,-12,-10,-3
1558435695643384,-1,0,4,10,9,10,0,-1
1558435695643384,-6,-3,-2,-3,-7,-2,-5,-7
1558435695657384,-2,-4,0,0,-3,-6,-8,-1
1558435695657384,-1,0,3,5,1,-3,-3,-3
1558435695664328,1,-2,-11,-9,-7,-3,1,1
1558435695664328,-1,-1,-8,2,-1,-9,-9,-1
1558435695681585,0,-3,-9,-17,-7,-5,-1,-2
1558435695681585,1,2,7,16,5,3,4,3
1558435695687268,-3,-3,-14,-21,-10,-2,-7,-3
1558435695687268,-4,-8,12,14,7,9,5,-1
1558435695695378,-1,0,-6,-4,-7,-11,-9,-3
1558435695695378,0,-1,6,7,6,5,-1,1
1558435695703222,2,0,-5,-16,-9,-6,2,3
1558435695703222,0,0,-5,-7,0,4,1,0
1558435695717187,1,-3,-10,-2,0,-1,-1,1
1558435695717187,1,3,10,10,10,9,3,0
1558435695725446,-6,-1,-1,-10,-10,-5,-8,-10
1558435695725446,-1,-1,-5,4,-6,-9,-4,-3
1558435695741445,2,1,10,5,9,3,2,3
1558435695741445,2,2,-2,-2,0,1,3,0
1558435695742121,-2,-4,-8,-2,-3,1,-6,-4
1558435695742121,1,6,6,-13,0,-4,1,1
1558435695754395,-6,-6,-3,11,-2,-1,-1,-6
1558435695754395,-3,-3,1,-3,-2,0,-2,-4
1558435695763328,-1,-2,2,4,3,-3,-4,-3
1558435695763328,1,-2,-6,-2,-5,0,-2,-1
1558435695778257,3,8,1,1,2,4,0,5
1558435695778257,-3,-2,0,-12,1,-3,1,-2
1558435695785004,-3,-5,2,4,-7,-8,-3,-2
1558435695785004,0,-1,-6,-1,3,4,-1,-1
1558435695799969,-2,-2,3,0,-4,-2,-2,-5
1558435695799969,-3,-2,-4,-3,-7,-3,-11,-7
1558435695806950,1,1,11,8,8,6,4,4
1558435695806950,-2,-3,-14,9,-3,-9,1,2
1558435695815119,-3,-2,-4,-8,-2,-4,-2,-4
1558435695815119,1,2,-1,-1,-3,-8,-3,-3
1558435695823903,-1,3,2,-3,-2,3,-4,-2
1558435695823903,-1,-4,-4,0,3,3,8,1
1558435695838075,0,-1,4,-2,0,-4,2,1
1558435695838075,-4,-10,-9,2,3,4,1,-2
1558435695845075,1,2,-1,-2,-4,-6,-2,0
1558435695845075,-2,0,3,4,-2,1,-2,-3
1558435695860905,-1,2,-2,-12,1,7,4,0
1558435695860905,-1,3,6,9,-1,-3,-1,-1
1558435695866790,-4,-6,-11,-3,1,-2,-2,-4
1558435695866790,-1,-2,1,-6,-4,2,1,-2
1558435695874958,-1,-2,-5,-7,-3,4,6,0
1558435695874958,-3,-5,0,-4,-5,-5,-14,-1
1558435695883741,1,0,-3,-1,-6,-5,4,-2
1558435695883741,-2,1,2,14,3,-7,-9,-5
1558435695897922,2,7,6,-13,0,1,2,0
1558435695897922,0,-6,-10,8,2,-1,-4,0
1558435695904687,0,1,4,-3,-1,1,6,3
1558435695904687,0,-2,0,-16,-1,6,4,2
1558435695920643,1,0,-1,-5,-6,-3,-5,-1
1558435695920643,-3,0,-2,-5,-10,-9,-5,-2
1558435695926626,1,1,5,12,10,6,5,0
1558435695926626,1,2,-4,-6,3,7,2,0
1558435695934930,-5,-8,1,6,-7,-4,-7,-5
1558435695934930,0,0,-7,-10,1,4,5,4
1558435695943581,0,-2,-3,0,3,2,0,2
1558435695943581,-4,-6,-7,-1,-6,-2,-3,1
1558435695957713,-4,-1,-9,-12,-2,1,-4,-8
1558435695957713,0,3,10,-3,0,-5,1,-6
1558435695964912,0,2,7,7,-1,-2,1,4
1558435695964912,-2,-1,-10,0,2,-5,-4,-3
1558435695980886,1,-4,-6,8,0,-4,3,1
1558435695980886,1,1,-2,-9,-2,0,-1,1
1558435695987868,-2,-1,-2,5,-2,-4,-1,-4
1558435695987868,-3,-4,6,2,-1,-2,-4,-4
1558435696003725,-3,-3,-2,2,0,-2,-1,-1
1558435696003725,0,0,2,16,5,9,3,-1
1558435696004419,0,0,-2,-17,-3,0,-3,3
1558435696004419,2,3,6,4,2,1,3,-1
1558435696018409,-1,-3,-3,-11,-6,-3,4,-2
1558435696018409,3,-1,-11,-8,-2,1,2,1
1558435696025364,0,1,4,1,-3,-2,-7,-5
1558435696025364,-1,-2,2,-4,-8,-5,-5,-5
1558435696040326,1,2,0,10,11,2,0,4
1558435696040326,-1,2,1,1,3,1,5,2
1558435696047509,-4,-4,-8,-16,-5,2,-4,-1
1558435696047509,-1,0,5,23,10,2,0,-5
1558435696063472,-1,-3,3,0,-5,-3,-3,-3
1558435696063472,-4,-4,0,6,-3,-5,-4,-5
1558435696065257,-1,-2,-19,-34,-10,-4,0,-3
1558435696065257,-4,-5,6,0,-5,-5,-8,-2
1558435696078274,-1,-2,8,11,3,3,0,1
1558435696078274,1,1,-9,-6,-3,2,0,-1
1558435696084214,-5,-5,-4,4,-1,-5,-1,-6
1558435696084214,1,1,-1,-4,6,7,8,7
1558435696100171,0,1,-5,-5,-3,-2,-4,-6
1558435696100171,-2,1,1,-3,-9,-10,-13,-5
1558435696107144,0,0,1,9,-1,4,-6,-4
1558435696107144,3,2,-5,-16,-1,-2,4,3
1558435696123103,-3,-1,3,17,7,3,2,3
1558435696123103,0,-2,8,1,-1,-3,0,3
1558435696125130,-3,-2,-6,-14,-4,-5,-3,-5
1558435696125130,-3,-3,8,17,1,-6,0,0
1558435696138399,0,1,-7,-15,-3,0,-8,-1
1558435696138399,-2,-2,-2,9,-1,-2,0,-1
1558435696144045,-1,-2,4,20,11,3,-1,2
1558435696144045,2,2,-4,-34,-10,1,0,0
1558435696160351,0,-1,-2,-6,-5,-3,-2,-1
1558435696160351,-1,0,6,-5,3,8,4,0
1558435696166985,0,-1,-3,9,-1,-9,-1,0
1558435696166985,2,1,-11,-1,5,6,1,0
1558435696182942,-2,-1,6,11,0,2,1,-3
1558435696182942,-5,-6,-7,-11,-8,-8,-4,-5
1558435696182942,4,1,7,10,4,-2,2,3
1558435696182942,-4,-3,0,4,-1,1,-1,1
1558435696197899,-2,-1,-3,-6,-5,-2,-1,-2
1558435696197899,-4,-2,-5,-4,-3,3,-5,-7
1558435696204881,1,1,0,-3,0,1,5,4
1558435696204881,1,0,6,7,-2,-1,-1,-3
1558435696219875,1,-2,-7,5,1,-2,-1,4
1558435696219875,0,2,-3,-29,-4,2,-6,-4
1558435696226858,0,-3,-4,7,5,2,-4,0
1558435696226858,-2,-3,-1,-9,-6,-1,4,-1
1558435696243688,-2,-1,-6,-7,-5,-8,-2,5
1558435696243688,1,0,3,3,-2,-2,-2,-5
1558435696243688,-3,-2,-2,-3,-11,-9,-8,-5
1558435696243688,3,4,5,13,14,4,4,9
1558435696258652,-2,-3,-5,-15,-2,0,6,-1
1558435696258652,0,-4,-4,0,-2,-2,0,1
1558435696265072,-5,-2,3,-3,-10,-2,-3,-3
1558435696265072,-5,-6,-11,-3,-14,-15,-9,-7
1558435696281062,2,2,0,1,8,3,-1,3
1558435696281062,-1,0,15,5,-1,-4,-1,3
1558435696287869,7,5,-2,8,11,11,9,3
1558435696287869,-5,-2,-6,-7,-4,-1,-6,-11
1558435696302886,-4,-6,-10,-16,-6,-2,-1,-3
1558435696302886,-1,-2,4,13,6,1,0,2
1558435696303533,2,2,7,-6,1,1,6,7
1558435696303533,-1,-2,-11,-15,-8,3,-1,-3
1558435696326471,-4,-5,-8,0,-8,-5,-6,-5
1558435696326471,-3,1,1,6,4,1,1,-2
1558435696327467,-6,-5,5,-6,-6,-5,2,-3
1558435696327467,-1,0,9,11,3,-2,-3,-1
1558435696339769,0,-2,-6,-19,-4,1,-3,-3
1558435696339769,0,-1,-3,7,0,2,3,-1
1558435696347763,1,-1,-3,1,3,2,-4,-1
1558435696347763,-2,-1,2,5,3,0,-1,1
1558435696363401,1,0,3,-5,-6,-1,0,-1
1558435696363401,-2,-1,-3,-11,-5,-6,-5,-6
1558435696363401,-5,-7,-16,-11,-4,-3,-4,-2
1558435696363401,3,1,6,7,-2,-1,1,6
1558435696378537,-8,-2,-4,3,2,-2,3,-12
1558435696378537,4,6,18,7,12,8,7,6
1558435696385312,-3,-4,-8,-3,-7,-9,-9,-6
1558435696385312,1,0,0,3,3,-2,-6,5
1558435696399277,2,1,7,12,6,2,6,7
1558435696399277,-2,-1,-5,-2,-8,-3,-2,-7
1558435696407560,1,1,6,7,3,5,4,1
1558435696407560,-2,-5,-7,-15,-5,-5,-5,-4
1558435696423322,4,2,7,16,3,-3,-2,0
1558435696423322,-1,-1,0,-5,-4,-1,-2,2
1558435696423322,1,1,-3,0,-2,-2,0,1
1558435696423322,-2,2,-4,-9,-3,1,0,-6
1558435696438562,0,-1,-2,4,3,-1,2,6
1558435696438562,1,-2,-1,-4,-1,0,4,1
1558435696444780,-2,-7,-11,4,-6,-4,-5,-4
1558435696444780,-4,-4,1,-4,-7,-7,-12,-4
1558435696460717,0,2,4,7,3,7,9,2
1558435696460717,1,1,-2,4,4,2,1,2
1558435696466772,3,4,4,-6,-1,1,4,5
1558435696466772,0,-1,-5,-6,-1,-1,-3,1
1558435696482730,-6,-2,4,11,-5,-6,-5,-10
1558435696482730,0,-5,-11,-13,-11,-4,-12,-2
1558435696483723,-4,-2,1,0,2,0,1,-6
1558435696483723,-2,0,-1,-2,2,0,0,2
1558435696498687,1,-1,2,0,4,4,-1,0
1558435696498687,3,3,6,23,8,3,2,4
1558435696504878,-5,-6,-26,-29,-16,-11,-4,-2
1558435696504878,0,1,11,8,-3,-8,-3,1
1558435696520835,2,4,-2,-8,4,9,7,3
1558435696520835,-3,-4,0,1,-1,-2,-4,-5
1558435696526609,0,0,1,11,3,0,-2,0
1558435696526609,3,0,-7,-10,-1,1,6,0
1558435696542781,2,0,-2,-11,-3,3,-1,1
1558435696542781,0,-2,-5,4,3,0,1,1
1558435696543568,0,3,10,1,-1,-1,-1,1
1558435696543568,-3,-1,2,9,8,5,2,-3
1558435696558523,-1,-3,-1,6,-1,-4,-8,-3
1558435696558523,2,1,-4,-12,-4,-3,-2,4
1558435696564507,0,-2,4,5,1,1,5,2
1558435696564507,-5,-6,0,0,-1,2,-1,-5
1558435696580874,-1,0,2,12,5,0,-7,-2
1558435696580874,-4,-1,-13,-22,-4,1,0,-3
1558435696587749,1,2,13,14,6,3,0,-1
1558435696587749,1,1,-19,-17,-3,4,5,3
1558435696602763,-3,-6,-7,-4,-10,-14,-8,-2
1558435696602763,2,0,2,6,3,2,6,3
1558435696603404,-1,2,4,-7,2,5,-4,-5
1558435696603404,0,-2,-5,-4,-5,0,-5,-3
1558435696618825,1,1,4,14,5,3,6,1
1558435696618825,-6,-6,-3,3,-4,-9,-7,-7
1558435696625181,-3,-2,-5,-6,2,2,1,-1
1558435696625181,-1,0,0,-2,-1,-7,-4,-1
1558435696640977,-2,-1,0,-7,-6,-3,1,1
1558435696640977,0,-1,0,-2,1,-3,1,-1
1558435696647751,0,2,3,1,-4,-4,1,-4
1558435696647751,0,-2,-5,-5,-9,-5,-5,-6
1558435696663077,-2,-2,-1,-10,-3,-3,-3,-4
1558435696663077,0,-2,-5,0,3,2,4,2
1558435696663706,1,0,2,-4,5,6,3,5
1558435696663706,-1,0,3,13,3,1,-3,-2
1558435696678666,-1,1,-4,-12,-9,-3,-7,-4
1558435696678666,-4,-4,0,10,2,-3,-5,-3
1558435696684977,-1,2,0,-1,-2,-4,-3,1
1558435696684977,0,-1,1,1,4,6,5,4
1558435696700897,0,-1,-9,-12,-6,-6,-5,3
1558435696700897,-2,-1,3,16,-6,-2,-6,-4
1558435696707796,0,1,7,-2,3,-1,2,1
1558435696707796,2,4,7,9,4,1,-1,-3
1558435696721857,-1,2,3,-2,2,-1,3,0
1558435696721857,-2,-3,0,14,1,5,0,0
1558435696729818,-4,-4,-11,-20,-11,-5,-3,-1
1558435696729818,-2,-2,1,0,5,5,-3,1
1558435696745787,-5,-3,3,5,0,2,7,-6
1558435696745787,-2,-1,2,-5,1,2,1,2
1558435696745787,2,-1,-4,7,4,4,0,1
1558435696745787,2,1,3,-4,-2,-5,3,3
1558435696760446,0,-2,-3,-4,1,-1,-8,-1
1558435696760446,-1,1,-3,-14,-12,-1,6,-4
1558435696766433,-8,-8,-6,7,-4,-8,-7,-8
1558435696766433,3,2,-1,2,0,-4,4,5
1558435696782387,1,3,7,6,3,5,0,2
1558435696782387,-1,-2,-8,-15,-3,-4,-2,-3
1558435696789398,1,-2,-3,5,-2,-2,-6,-1
1558435696789398,-2,-1,-3,-16,-12,-5,-2,-2
1558435696805450,-4,-5,-2,2,-4,-7,-5,-3
1558435696805450,-1,-2,0,0,4,-1,3,3
1558435696806359,-2,-1,-6,-2,5,9,5,0
1558435696806359,-4,-3,3,8,5,1,2,-2
1558435696821284,2,0,-4,-12,-4,0,-7,-2
1558435696821284,-2,-1,3,-6,-10,-4,-10,2
1558435696826727,-5,-7,-3,4,-7,-13,-4,-6
1558435696826727,0,1,-3,-4,1,4,6,6
1558435696842846,0,0,1,-1,3,3,-5,1
1558435696842846,-4,-5,-14,-23,-8,-5,0,-5
1558435696849695,-1,-2,-1,1,-2,-2,-5,0
1558435696849695,-3,-3,-3,-9,-8,-6,-4,-3
1558435696864990,3,0,2,3,5,0,5,7
1558435696864990,2,2,3,14,9,0,-4,0
1558435696865623,2,3,4,-17,-10,-2,-8,-3
1558435696865623,-2,-1,7,19,11,-2,1,-2
1558435696880908,-2,-1,4,3,4,8,8,2
1558435696880908,0,0,-17,-27,-9,-6,-1,-1
1558435696887807,-2,-2,1,0,1,0,1,2
1558435696887807,-4,-4,-6,-6,-11,-3,-7,-8
1558435696902191,1,3,2,6,4,1,-5,0
1558435696902191,2,4,5,8,10,5,5,4
1558435696910140,0,2,3,3,2,1,1,-2
1558435696910140,-7,-8,-10,-7,-8,-6,2,-3
1558435696925862,-4,-6,-3,-5,-1,-5,1,-2
1558435696925862,0,0,7,11,4,4,1,-1
1558435696925862,2,4,5,1,2,-2,2,3
1558435696925862,0,2,-3,-3,-2,2,0,-5
1558435696940799,-1,1,4,17,3,1,0,-4
1558435696940799,-5,-12,-19,-27,-12,-6,-2,-5
1558435696946813,-1,-1,7,7,2,-4,-3,0
1558435696946813,-2,-4,-1,-4,1,3,-1,2
1558435696961780,-1,-1,-2,-7,-2,2,2,0
1558435696961780,-1,3,5,9,4,0,-2,-3
1558435696969747,-1,-3,-4,-7,-2,3,0,-3
1558435696969747,2,1,-8,-11,-9,-4,-2,1
1558435696984679,-5,-10,-2,5,-3,-8,-5,-5
1558435696984679,0,2,16,20,5,-2,-8,-5
1558435696985676,1,-1,-4,-8,-6,-5,-1,1
1558435696985676,-2,-3,-9,-4,5,2,-1,1
1558435697000714,-2,1,-10,-12,-5,-2,-1,-7
1558435697000714,-2,1,-2,3,0,-1,-3,-1
1558435697007685,-2,-2,1,1,-5,2,-9,-4
1558435697007685,1,2,7,8,-3,-5,-5,-3
1558435697022867,-6,-7,-8,1,2,-2,-1,-3
1558435697022867,0,-1,-1,-3,6,8,9,3
1558435697029559,0,1,-4,-7,-1,-1,-7,-2
1558435697029559,2,-1,-2,3,-3,-2,-1,2
1558435697045881,1,4,-4,-22,-8,-1,1,3
1558435697045881,-1,-5,6,15,0,1,-2,-1
1558435697045881,-3,-7,-4,2,-2,0,-2,-4
1558435697045881,-3,-2,6,13,0,-5,-5,-3
1558435697060816,2,1,-8,-14,4,7,4,4
1558435697060816,0,-4,-24,-12,-12,-9,-1,1
1558435697067755,-1,-2,0,6,1,-2,5,0
1558435697067755,-3,-3,0,-5,-4,-8,-3,-1
1558435697082417,2,5,6,4,1,-1,-6,3
1558435697082417,-1,-2,1,-9,3,7,3,4
1558435697089984,-7,-5,-10,-18,-8,-1,2,-9
1558435697089984,3,3,5,4,6,5,4,2
1558435697105240,-5,-3,0,6,-5,-3,-7,-10
1558435697105240,-5,-3,3,2,-6,-8,-8,-5
1558435697105945,2,3,4,11,3,-5,2,0
1558435697105945,-2,2,3,-10,4,8,5,0
1558435697120908,-1,-3,2,4,2,1,3,2
1558435697120908,-2,-4,-5,8,-3,-9,-7,-5
1558435697126891,2,4,0,-9,8,7,4,3
1558435697126891,-3,-6,-1,3,-6,-3,-4,-2
1558435697141849,4,2,0,-3,-4,-8,-8,1
1558435697141849,-1,2,-8,-6,-2,-1,5,-3
1558435697149857,-2,-1,2,8,-1,-5,-3,2
1558435697149857,0,-3,-5,-12,0,-2,3,0
1558435697164791,-4,-4,-1,0,-5,4,2,1
1558435697164791,2,6,13,2,4,2,-2,3
1558435697165796,1,0,-3,-14,-3,-5,0,3
1558435697165796,-5,-7,-4,12,7,2,-4,-9
1558435697181171,-1,-2,-4,-11,-11,-5,-3,-3
1558435697181171,0,3,2,-6,-1,2,4,0
1558435697187813,1,-4,-8,8,3,0,-2,4
1558435697187813,0,2,8,2,0,1,3,0
1558435697202761,-4,0,3,3,3,0,4,-6
1558435697202761,-4,-5,-1,9,-8,-3,-8,-6
1558435697210004,2,1,2,-7,1,4,4,1
1558435697210004,3,5,2,-3,-2,-2,1,3
1558435697225826,-1,-2,-5,10,2,-1,0,0
1558435697225826,-1,-1,-12,-24,-5,-4,0,4
1558435697225826,-1,4,7,2,-2,-3,0,-3
1558435697225826,-2,-4,-9,-1,-3,-3,-9,-2
1558435697240584,0,-2,0,-1,-2,1,5,-1
1558435697240584,6,7,14,15,12,4,7,5
1558435697246569,-5,-5,-5,1,-4,-5,-1,-2
1558435697246569,-2,-2,-12,-23,-7,-2,-5,-2
1558435697261527,-4,-5,-3,4,-5,-4,-3,-5
1558435697261527,-3,-3,2,-5,-6,-3,-4,-2
1558435697269506,0,1,5,4,10,10,4,0
1558435697269506,0,0,3,9,4,2,4,0
1558435697285934,2,1,-5,-9,1,2,2,1
1558435697285934,-2,-1,5,1,-1,0,-3,-7
1558435697285934,-2,-4,-5,7,-4,0,-3,-3
1558435697285934,0,1,5,10,3,-4,-3,3
1558435697300424,1,-1,-6,-16,2,2,6,3
1558435697300424,0,0,-2,-12,-3,-2,-2,-1
1558435697307826,-2,-1,-3,-8,-6,-2,-7,-5
1558435697307826,-1,-3,-1,3,2,6,3,0
1558435697322849,3,1,6,10,5,0,-3,-1
1558435697322849,-5,-7,-14,-10,-13,-11,-2,-1
1558435697329799,-2,-2,-4,-2,3,6,2,-3
1558435697329799,-4,-5,-4,-11,-7,-1,-5,-8
1558435697345647,2,4,5,5,9,6,4,4
1558435697345647,-3,-6,-3,5,-1,-4,-1,-1
1558435697346303,2,2,1,-3,-7,-10,-1,2
1558435697346303,-2,-2,-5,-10,-6,-1,-4,0
1558435697361266,0,-1,-4,-3,-2,5,-2,2
1558435697361266,5,6,9,10,10,3,7,4
1558435697367245,1,2,14,18,3,2,2,3
1558435697367245,-3,-1,-1,3,0,-3,-3,-8
1558435697382209,-6,-4,-5,-20,-13,-7,-2,-4
1558435697382209,-1,-2,-6,-1,1,8,-2,-3
1558435697390288,1,1,5,18,6,-1,-3,1
1558435697390288,0,-1,-3,-21,-12,-8,8,1
1558435697405528,-3,-3,1,13,2,-3,-2,-2
1558435697405528,-1,1,-1,-8,1,0,1,2
1558435697406143,-2,-1,-4,-3,0,2,2,-1
1558435697406143,1,0,-4,-16,-3,1,-2,1
1558435697421103,-1,0,3,14,3,-2,-1,1
1558435697421103,-1,1,-1,2,4,3,0,-1
1558435697427444,-8,-6,-10,-20,-16,-10,-11,-12
1558435697427444,-3,-2,8,14,-1,-6,-10,-3
1558435697442395,5,5,6,5,14,10,13,8
1558435697442395,4,4,1,-1,0,4,-2,4
1558435697449029,-2,-3,-6,-4,2,0,-1,-1
1558435697449029,2,4,10,12,5,0,-5,-1
1558435697465030,-9,-9,-20,-23,-20,-17,-15,-8
1558435697465030,-1,-5,-2,-5,-1,4,4,1
1558435697465982,3,4,7,2,8,4,6,4
1558435697465982,-1,1,-3,1,0,3,-2,-1
1558435697480954,0,1,4,11,-3,-4,-3,0
1558435697480954,-1,-1,3,7,2,-2,-4,-3
1558435697487129,4,3,-1,-14,-3,0,6,7
1558435697487129,2,2,-2,-2,7,4,6,2
1558435697502082,-1,-3,-5,0,-7,-7,-7,-4
1558435697502082,-4,-4,-4,7,-4,-4,-6,-3
1558435697510054,-4,-3,-2,-4,-4,-2,-5,-7
1558435697510054,-2,-2,0,6,-1,-1,1,4
1558435697524833,2,1,3,3,9,7,4,2
1558435697524833,-1,-1,1,-5,-5,-2,-2,-2
1558435697525823,-1,1,-4,9,3,-1,-7,-3
1558435697525823,-2,-4,-7,-16,-8,1,5,-2
1558435697540873,-3,-5,-4,-5,-8,-10,-2,4
1558435697540873,-3,-4,-2,2,3,-3,-1,-2
1558435697547779,-2,-2,3,1,0,-2,0,-1
1558435697547779,1,1,2,15,6,0,-6,-1
1558435697562754,1,-1,-2,-9,-5,2,2,0
1558435697562754,1,2,3,6,3,1,5,-2
1558435697569932,-3,-4,-2,0,1,-3,-3,-3
1558435697569932,-1,-3,-8,4,-3,-3,0,-3
1558435697584665,-5,-4,5,-11,-4,-2,-5,-5
1558435697584665,-1,-1,-3,-1,-6,-4,-8,-5
1558435697585663,2,1,3,-2,5,5,12,5
1558435697585663,2,4,-2,-13,-1,0,1,3
1558435697600621,-5,-5,2,24,4,-4,-11,-7
1558435697600621,0,-2,-1,-8,-6,-3,6,3
1558435697607846,-1,-4,-2,4,2,-2,1,0
1558435697607846,-1,-1,0,-8,-4,0,1,-3
1558435697621567,-3,1,-1,0,-3,-1,-5,-7
1558435697621567,-4,-1,-7,-7,-5,-1,-4,-3
1558435697629892,1,4,8,6,-1,-4,-4,4
1558435697629892,-4,-6,-7,-14,-9,-5,-4,-1
1558435697644850,2,1,3,-1,3,4,10,4
1558435697644850,-4,-6,-17,-1,3,0,-4,-2
1558435697652630,3,3,-4,-15,-2,8,2,2
1558435697652630,-7,-6,8,25,0,-8,-5,-6
1558435697660797,-1,0,-6,5,2,-2,0,-3
1558435697660797,1,0,0,-10,-6,-5,-1,0
1558435697667800,-2,-4,0,10,1,-6,-5,-3
1558435697667800,2,2,-4,-9,2,-1,1,-1
1558435697682403,-1,2,3,-4,-6,-3,-2,-2
1558435697682403,-1,-3,-4,-15,0,3,2,-1
1558435697689485,-2,-3,-11,-10,-10,-4,-4,-1
1558435697689485,1,1,-2,-4,-1,-1,-1,0
1558435697713431,1,2,8,6,0,-4,-2,-1
1558435697713431,-3,1,-3,-4,1,1,-2,-6
1558435697713431,0,-3,-7,-2,-7,-3,-9,-4
1558435697713431,-1,-3,-7,4,4,2,-6,4
1558435697721316,1,-1,5,6,2,-3,6,5
1558435697721316,4,6,6,4,8,8,7,5
1558435697727563,-4,-3,4,0,0,-3,2,-4
1558435697727563,-2,-1,-15,2,3,3,-2,0
1558435697742491,1,0,-7,-10,-6,-1,-8,-2
1558435697742491,1,0,1,-5,-12,-13,-4,2
1558435697749227,-2,-1,12,30,17,11,7,4
1558435697749227,-2,-2,-1,0,4,-1,0,-1
1558435697764419,-6,-2,-2,-14,-6,-2,-9,-8
1558435697764419,-3,-2,-3,3,2,6,8,-4
1558435697772166,-2,-1,0,-16,-7,-4,-1,-1
1558435697772166,0,-1,1,-5,-1,-4,2,3
1558435697781141,0,-1,-13,-12,-1,-2,0,2
1558435697781141,-4,-4,0,5,1,1,-2,0
1558435697787471,-1,2,4,-7,0,1,1,-3
1558435697787471,0,3,11,12,2,0,4,1
1558435697802436,0,-2,-3,8,2,0,-5,-3
1558435697802436,-4,-2,5,-7,1,-2,-5,-4
1558435697810280,-1,-6,-14,-16,-9,-2,-6,-2
1558435697810280,-2,0,-2,-9,-7,-8,-1,-2
1558435697824367,-3,-1,11,20,6,5,1,-1
1558435697824367,2,1,14,14,5,-1,1,1
1558435697840319,1,-2,-11,2,0,1,-2,4
1558435697840319,-4,-2,2,-3,-5,-1,-2,-5
1558435697848305,1,0,-7,-13,-6,0,3,2
1558435697848305,-4,-4,6,12,-1,-7,-8,-3
1558435697848305,3,3,-7,-8,-2,-2,3,3
1558435697848305,-4,-3,8,11,1,-1,-5,-2
1558435697862267,-4,1,-3,2,1,3,-1,-7
1558435697862267,1,2,0,4,2,-9,-7,-2
1558435697870228,-1,-1,-1,-2,0,5,7,2
1558435697870228,4,1,0,6,5,6,6,-4
1558435697885159,0,0,4,2,0,-6,-2,2
1558435697885159,1,-1,-16,-29,-8,-1,-1,-1
1558435697892159,-5,-4,4,22,0,-7,-7,-5
1558435697892159,0,-1,0,-2,-1,2,0,-3
1558435697908034,0,-3,0,-14,-9,-3,-5,-1
1558435697908034,-2,-5,-22,-3,-3,-1,-1,3
1558435697908797,3,2,5,2,8,4,10,5
1558435697908797,-1,-2,-4,-7,1,3,2,-1
1558435697922004,1,3,7,5,6,-2,3,2
1558435697922004,3,0,5,-9,-9,-3,0,2
1558435697929984,-3,-1,1,3,-4,-6,-12,-7
1558435697929984,1,-1,-4,-3,-1,1,-8,0
1558435697944962,-4,-6,-4,-8,-5,-6,0,-3
1558435697944962,0,1,12,10,5,3,8,6
1558435697952681,-1,-1,-9,0,-1,-1,-3,-1
1558435697952681,0,1,0,-13,-2,-1,0,-1
1558435697968892,-2,-2,-5,5,-2,-4,-5,-3
1558435697968892,0,0,5,11,1,-4,-6,-3
1558435697969637,-1,-2,-5,-2,-8,-4,1,-3
1558435697969637,0,1,4,11,10,5,3,3
1558435697981631,-1,1,-6,-15,-2,5,0,0
1558435697981631,-3,-7,-4,4,-1,0,0,-1
1558435697989582,-4,0,3,-1,1,1,-1,-5
1558435697989582,-4,-5,-12,-8,-8,-5,-13,-2
1558435698004542,3,1,-5,-7,-4,-3,5,2
1558435698004542,0,2,17,18,12,2,6,-1
1558435698012685,4,0,-14,-15,-4,-2,2,5
1558435698012685,-5,-4,3,7,0,-7,-1,-7
1558435698027850,2,0,-6,-1,-1,-3,-4,1
1558435698027850,0,1,-11,-27,-6,6,2,-1
1558435698028478,-4,-3,4,-2,-2,0,-1,-6
1558435698028478,1,0,3,-3,-5,-6,2,3
1558435698042781,2,2,2,6,2,2,4,5
1558435698042781,-8,-7,-5,9,0,-9,-5,-9
1558435698049421,0,0,5,-5,-3,-1,0,2
1558435698049421,1,-1,2,2,-3,-3,-2,-3
1558435698064719,-4,-4,-11,-14,-3,2,1,-2
1558435698064719,1,2,3,4,-1,-2,-5,-1
1558435698072688,-5,-6,-7,3,-2,-6,-7,-5
1558435698072688,-1,0,-2,-12,-1,2,8,0
1558435698087632,-5,-5,-2,6,-4,-5,-6,-7
1558435698087632,3,4,8,-10,-1,0,2,3
1558435698088320,1,0,1,8,4,3,-1,-1
1558435698088320,-1,1,-2,2,0,2,2,2
1558435698102559,-1,0,1,12,9,4,0,-1
1558435698102559,-4,-7,-15,-5,-7,-4,-3,-4
1558435698109511,-1,0,-2,-16,-6,-5,-4,-3
1558435698109511,-4,-6,0,6,-4,-11,-9,-6
1558435698125238,0,0,6,-7,-1,3,1,-1
1558435698125238,3,1,2,4,-2,-3,1,2
1558435698132208,0,2,1,6,5,-1,-2,1
1558435698132208,2,2,-3,-3,8,7,3,4
1558435698148159,-3,-3,-1,4,-6,-7,-3,-6
1558435698148159,-3,-4,-7,-9,-6,0,-3,-4
1558435698148159,1,0,-4,-8,5,4,3,1
1558435698148159,1,3,-4,-8,-12,-6,-5,1
1558435698162155,-1,-2,7,9,4,1,-5,-2
1558435698162155,3,6,1,-11,10,9,8,6
1558435698169129,-4,-6,-10,-6,-6,-4,1,0
1558435698169129,0,3,14,9,3,-4,-2,-3
1558435698184406,0,-3,-11,-11,-6,-4,-3,0
1558435698184406,-5,-5,-6,5,-3,-2,-7,-9
1558435698192039,0,1,7,3,5,4,3,-1
1558435698192039,1,-2,2,-1,6,9,4,4
1558435698207998,2,5,10,12,4,-3,-3,3
1558435698207998,-8,-6,-13,-18,-13,-5,0,-2
1558435698207998,1,0,5,-1,4,3,3,1
1558435698207998,-1,-1,-2,-2,-4,-3,-4,-5
1558435698221993,-1,-2,-2,3,5,3,1,0
1558435698221993,2,3,3,5,3,6,-4,-2
1558435698230164,-3,-1,-2,2,-7,-7,-3,-2
1558435698230164,0,0,1,-1,1,-2,1,1
1558435698245961,0,0,-13,-3,-3,1,-1,-1
1558435698245961,-2,-2,-3,-4,-2,0,-7,-4
1558435698269312,-1,-2,1,1,-4,-4,3,0
1558435698269312,1,0,-1,-4,1,1,1,-1
1558435698270829,-3,-2,2,-3,2,2,9,0
1558435698270829,-1,-2,-2,7,0,-5,-6,-2
1558435698270829,-1,-5,-11,-13,-15,-7,-10,-6
1558435698270829,0,-4,-5,2,5,6,0,4
1558435698281800,3,3,8,-4,0,-3,0,-1
1558435698281800,0,-1,-7,-8,-8,-2,-2,1
1558435698289777,-5,-1,2,12,5,2,-4,-4
1558435698289777,-1,-1,-5,3,-4,-8,-3,-1
1558435698304766,-1,0,0,-8,-3,1,-2,0
1558435698304766,0,3,12,6,4,-2,0,2
1558435698311719,3,0,-3,-2,-1,-2,-2,0
1558435698311719,-1,-3,-8,-9,-6,1,-4,0
1558435698328130,0,-1,3,11,4,1,5,-2
1558435698328130,1,-1,2,-4,1,-4,2,0
1558435698328676,-1,1,4,2,-1,-2,-1,-3
1558435698328676,0,-1,-7,-3,-3,-2,-1,-2
1558435698343635,-1,0,-4,-23,-5,4,0,1
1558435698343635,-4,-5,4,15,2,0,-2,0
1558435698349618,-1,0,-2,-4,0,2,-1,-2
1558435698349618,4,4,-1,-7,-2,-1,-2,1
1558435698365037,-5,-8,-15,-7,-4,-7,2,-4
1558435698365037,0,0,3,8,0,-5,-3,-3
1558435698372003,2,3,9,10,8,6,6,3
1558435698372003,-2,-2,-17,-16,-5,1,1,-1
1558435698388006,-3,-4,2,15,-2,-4,-7,2
1558435698388006,-2,0,-3,-17,2,9,2,-1
1558435698388006,2,1,0,-4,-4,-7,-1,1
1558435698388006,-3,-5,-7,-1,-1,-1,-10,-4
1558435698402967,0,2,4,0,2,6,6,3
1558435698402967,0,-1,-2,4,-5,-3,0,-2
1558435698408953,-2,-4,-2,-2,-4,-5,-6,-5
1558435698408953,1,3,6,3,6,1,5,4
1558435698423942,0,0,2,3,1,3,-1,-2
1558435698423942,3,6,-5,-6,2,4,0,2
1558435698431891,-7,-6,-7,-4,-11,-6,-5,-4
1558435698431891,-4,-2,16,13,1,-3,3,-4
1558435698447848,-1,-8,-16,2,1,-5,-1,0
1558435698447848,1,2,-6,-14,-5,4,0,-1
1558435698447848,-3,-5,-12,-20,-8,-7,0,0
1558435698447848,-6,-3,-1,-8,-4,0,1,-9
1558435698463805,3,4,13,13,9,4,6,3
1558435698463805,0,-4,-7,1,-2,-4,-5,4
1558435698469788,-1,0,5,2,-2,-1,-6,-3
1558435698469788,0,0,2,7,-4,-1,-5,-3
1558435698485162,0,-1,3,-2,-4,-5,-7,-3
1558435698485162,-2,-2,0,6,8,0,7,0
1558435698492494,2,2,11,6,5,3,4,5
1558435698492494,-2,1,-7,-6,-4,-4,1,0
1558435698508432,-4,-1,1,3,-1,-1,-5,-3
1558435698508432,-2,-1,4,3,2,1,-3,-2
1558435698508432,1,1,-12,-19,-5,0,3,3
1558435698508432,-2,-2,17,39,11,-1,-1,-3
1558435698523368,1,0,-3,-2,2,8,4,2
1558435698523368,-3,-3,-4,-1,-7,-7,-7,-9
1558435698530108,-3,-4,-9,-15,-2,-1,1,-3
1558435698530108,1,-1,-5,-10,-7,-3,1,4
1558435698546009,-3,0,-2,1,-1,-3,-5,-4
1558435698546009,-1,-4,13,12,0,-1,2,1
1558435698552245,-1,1,6,8,2,1,-5,-5
1558435698552245,0,-1,-10,-3,1,0,4,4
1558435698566978,0,1,4,5,4,-1,-7,0
1558435698566978,0,0,4,4,-9,-3,4,0
1558435698575081,1,0,1,-7,2,-4,2,4
1558435698575081,1,-2,-4,-10,1,2,2,1
1558435698582907,-3,-4,1,-1,-11,-6,-2,-3
1558435698582907,-4,-4,-8,-1,-3,-2,-12,-9
1558435698589886,2,-1,1,9,4,0,0,1
1558435698589886,1,3,11,5,2,2,7,2
1558435698604880,-2,-2,-5,-7,-2,-2,2,0
1558435698604880,-2,3,-3,-11,-4,-4,0,0
1558435698611859,-3,-5,-1,14,-3,1,-6,-6
1558435698611859,0,2,-5,-16,-2,-4,-3,3
1558435698627077,-1,-4,1,1,4,-1,8,4
1558435698627077,-1,-1,-10,1,3,2,2,-1
1558435698635167,-4,-3,-9,-11,-8,-7,-9,-6
1558435698635167,-2,-3,2,8,-10,-7,-10,-7
1558435698643743,0,2,-4,-2,2,6,6,0
1558435698643743,2,-1,-4,-12,-4,-7,2,4
1558435698650529,1,1,3,6,5,0,3,3
1558435698650529,1,-4,-9,-12,-6,-6,-6,-4
1558435698664685,-3,-2,-4,-6,-5,-1,-5,-5
1558435698664685,1,3,4,12,4,-1,1,2
1558435698671701,-1,-3,-6,-8,-6,0,-5,-1
1558435698671701,-4,-2,10,12,6,4,3,-3
1558435698686664,-2,-4,-2,-16,-5,-4,-4,-3
1558435698686664,-1,-3,6,5,3,0,-2,-1
1558435698694605,1,1,-7,5,-2,1,3,-2
1558435698694605,0,-5,-8,-6,-2,1,7,4
1558435698703582,-1,1,-9,-13,-6,1,-3,-4
1558435698703582,-2,0,6,2,-4,-2,-3,-2
1558435698709564,-2,-1,4,4,2,0,-1,-1
1558435698709564,-3,-3,-5,-2,-5,-2,-3,-3
1558435698724527,1,2,-2,-3,3,1,5,2
1558435698724527,0,-2,-6,-13,-9,-6,-4,-2
1558435698731507,0,1,4,10,3,1,1,-2
1558435698731507,-1,-1,3,-6,1,5,4,0
1558435698747781,-1,-2,-2,-11,-4,-9,-8,1
1558435698747781,-1,1,5,-1,2,-1,-3,-1
1558435698762802,0,0,-7,-1,6,3,-6,-2
1558435698762802,1,1,3,4,4,5,6,1
1558435698770778,1,-1,-2,-5,-10,-5,-3,2
1558435698770778,-5,-3,8,5,4,-3,3,-3
1558435698770778,0,2,3,-15,-1,4,1,0
1558435698770778,-3,-3,-6,-1,0,1,-6,-4
1558435698784365,4,3,3,5,0,-1,1,-1
1558435698784365,-3,-5,-1,13,4,-4,-7,-3
1558435698792343,-2,-2,1,-5,-6,-7,3,4
1558435698792343,-1,-2,-8,-12,-5,-6,-2,-2
1558435698807325,-1,-2,5,2,-2,-4,-3,-3
1558435698807325,2,0,4,12,-1,0,-1,2
1558435698814284,1,0,-2,-8,-4,-1,1,3
1558435698814284,-5,-5,-6,-8,-4,1,-7,-7
1558435698830245,-4,-2,4,2,1,-1,4,-5
1558435698830245,1,1,-10,-10,-2,-1,0,1
1558435698830245,-2,1,7,11,6,2,2,0
1558435698830245,1,3,6,4,1,-1,-3,2
1558435698844206,-2,-2,-3,1,1,-1,-1,2
1558435698844206,-4,-3,4,7,4,3,1,-5
1558435698852191,1,-2,-2,-3,-6,-3,-3,-1
1558435698852191,0,2,3,6,1,-2,-3,2
1558435698867145,1,0,1,8,10,9,3,1
1558435698867145,-3,-3,-4,-4,-4,1,3,-1
1558435698874125,-1,0,-2,-3,0,-2,-1,-2
1558435698874125,-5,-5,1,7,-4,-3,-8,-7
1558435698890238,-4,-2,-2,-6,-1,1,-2,-2
1558435698890238,3,1,-6,-5,6,2,8,5
1558435698891081,1,2,6,5,3,1,-9,2
1558435698891081,-2,-5,-11,14,6,3,15,0
1558435698905337,-3,-5,-2,-15,-12,-5,-4,-3
1558435698905337,1,-3,-5,-12,-8,0,-1,0
1558435698912444,4,2,-3,4,7,5,6,3
1558435698912444,0,2,1,-15,-2,0,-6,0
1558435698926984,-2,-2,-3,16,-5,-9,-3,-3
1558435698926984,-4,-2,1,3,0,0,-1,-3
1558435698933973,-1,-2,1,-19,-13,-13,-4,-2
1558435698933973,0,-1,-2,9,9,7,2,2
1558435698949924,-1,-1,-5,-6,0,1,-1,-2
1558435698949924,-2,-2,-4,-4,-8,-5,-9,-2
1558435698950919,-3,1,10,7,0,-2,0,-4
1558435698950919,0,-2,-2,-4,0,-6,5,3
1558435698964883,4,-1,2,9,4,-1,0,1
1558435698964883,-3,-2,-12,-22,-9,-2,-4,-5
1558435698971863,-5,-4,-4,-2,-1,0,3,-2
1558435698971863,-2,0,4,-1,0,-5,-1,-2
1558435698987041,-2,-3,-7,-13,-5,1,-3,-1
1558435698987041,1,1,-3,0,2,2,5,4
1558435698994802,-6,-8,1,13,2,0,-3,-9
1558435698994802,0,1,0,0,2,-2,3,0
1558435699009763,1,5,6,-18,-6,-3,-2,2
1558435699009763,-1,-3,-4,7,5,-4,-4,1
1558435699010760,0,1,0,0,3,3,0,1
1558435699010760,1,-2,-4,-16,-6,-3,-3,3
1558435699024722,0,0,5,18,7,2,-5,0
1558435699024722,-2,-5,-6,-16,-10,-4,0,-5
1558435699031702,-1,-4,-5,2,1,-1,-2,0
1558435699031702,1,5,5,-2,-1,0,-1,-3
1558435699047660,2,3,1,14,6,0,3,2
1558435699047660,-3,-1,4,-4,-1,-1,-5,0
1558435699054645,0,0,-1,-10,-5,-5,-2,2
1558435699054645,-1,-3,-4,8,0,-4,-5,-1
1558435699070626,0,0,0,-8,-3,2,-1,-4
1558435699070626,1,1,-1,6,1,-3,-6,-2
1558435699070626,-1,-3,-2,-9,-3,2,6,-3
1558435699070626,-1,0,2,2,1,-1,0,2
1558435699084563,-3,-2,-8,6,1,-4,-2,0
1558435699084563,0,1,0,5,3,1,2,2
1558435699091542,2,1,8,18,6,4,-1,-2
1558435699091542,-3,-5,-14,-24,-8,-1,-4,-1
1558435699106658,-3,0,1,12,4,1,3,-2
1558435699106658,-1,-1,0,-4,-4,0,2,1
1558435699114483,-2,1,-4,1,-1,-3,-3,-1
1558435699114483,-3,-3,9,3,-4,-3,-6,-4
1558435699130438,-3,-3,-3,-3,-2,-4,-7,-3
1558435699130438,0,-4,-7,1,0,5,7,4
1558435699130438,-1,-1,-3,0,0,-3,0,4
1558435699130438,0,3,3,0,-1,-3,-6,-2
1558435699144403,0,-2,-12,-15,-9,-2,5,-1
1558435699144403,2,1,8,13,0,-1,-1,0
1558435699152501,-5,-4,3,11,1,2,1,-4
1558435699152501,-2,-1,-14,-30,-6,-2,1,-2
1558435699167343,0,0,6,-1,2,-1,-4,0
1558435699167343,1,1,4,15,6,2,-1,0
1558435699174321,0,-2,-13,-17,-8,-3,-3,3
1558435699174321,-2,-3,4,5,-4,-9,-9,-7
1558435699190280,0,0,3,-5,-1,-1,0,4
1558435699190280,-2,-2,-2,2,0,1,4,-2
1558435699190280,-3,-6,-14,-25,-10,-9,-10,-5
1558435699190280,-2,0,0,0,-2,2,-7,-4
1558435699204243,3,4,6,8,6,6,8,3
1558435699204243,-1,0,3,-4,-1,-3,-6,-1
1558435699212220,0,-1,1,12,6,3,8,-1
1558435699212220,1,1,-4,-6,0,1,-1,5
1558435699227185,-9,-6,1,9,0,2,-1,-7
1558435699227185,2,2,2,1,-3,-2,-1,2
1558435699234163,-1,-2,-8,-11,-6,-2,-8,-4
1558435699234163,0,-2,8,14,3,-1,2,0
1558435699250119,1,1,1,2,-6,-8,-2,2
1558435699250119,-4,-5,-18,-33,-11,-2,1,-2
1558435699251117,-1,0,4,-2,-4,-5,0,-2
1558435699251117,-3,0,1,12,2,-7,-1,-1
1558435699264125,-2,-1,-1,-6,-2,-3,-5,-1
1558435699264125,-4,-10,-9,-11,-10,-6,-6,-4
1558435699272237,3,7,8,2,7,7,6,3
1558435699272237,1,-2,-7,3,7,7,5,0
1558435699287020,1,3,5,-4,0,-2,2,1
1558435699287020,-4,-1,-5,7,-2,-1,-2,-6
1558435699294002,-1,-2,-4,-5,0,1,-5,2
1558435699294002,-1,1,0,9,3,2,9,-2
1558435699309958,-1,-2,-9,-27,-7,-1,-7,-4
1558435699309958,1,2,8,-2,4,-2,1,3
1558435699310957,-3,-4,-5,-6,-3,-1,-2,-6
1558435699310957,1,-1,1,5,-6,-6,-8,-1
1558435699323924,-1,0,8,21,10,5,9,3
1558435699323924,-5,-7,-21,-49,-17,-3,-1,-3
1558435699331900,5,9,15,18,9,4,3,7
1558435699331900,-5,-9,-12,5,1,-3,-2,-5
1558435699346860,1,1,7,7,-3,-6,-9,-3
1558435699346860,-1,1,9,15,10,4,1,1
1558435699353842,-1,-1,-5,-22,-9,-3,1,-2
1558435699353842,0,-1,-2,-9,-6,0,1,1
1558435699369799,-2,-2,2,36,20,8,1,-1
1558435699369799,3,5,0,-11,-1,3,3,2
1558435699377777,-4,-5,-17,-22,-10,-7,-9,-4
1558435699377777,1,5,22,8,1,1,0,0
1558435699384758,-7,-14,-4,0,-9,-15,-14,-8
1558435699384758,2,3,0,16,9,5,6,1
1558435699391756,-2,-3,5,39,18,6,1,0
1558435699391756,4,9,-6,-36,-4,4,1,5
1558435699406702,1,-2,7,-11,-4,4,8,7
1558435699406702,-6,-9,-12,-36,-19,-14,-6,-5
1558435699414678,-2,-3,8,24,1,-6,-3,-4
1558435699414678,1,5,-7,-1,-2,-1,-5,2
1558435699429667,-4,-2,16,36,1,-1,-4,-4
1558435699429667,-3,-3,-1,-28,-7,-7,-8,-4
1558435699430636,0,-2,2,24,12,9,9,2
1558435699430636,4,2,13,5,8,7,8,4
1558435699444599,-2,-4,-22,-23,-7,-4,-3,-4
1558435699444599,-2,2,1,-9,-11,-7,-11,-4
1558435699451579,-9,-9,-4,6,-17,-20,-21,-12
1558435699451579,0,-1,-6,1,3,6,12,3
1558435699466544,4,6,-12,-33,12,11,10,7
1558435699466544,-1,-4,12,31,9,2,3,-2
1558435699474518,-1,-2,-2,-17,-13,-11,-7,-1
1558435699474518,-8,-7,-10,-9,-15,-13,-10,-7
1558435699490591,2,6,-6,-19,-7,-1,-2,2
1558435699490591,3,-3,-3,3,5,7,3,0
1558435699490591,-2,0,1,-3,5,5,2,4
1558435699490591,0,-2,5,7,5,6,4,1
1558435699504438,1,4,-1,-3,4,-3,-4,-6
1558435699504438,-2,-2,-5,-2,-14,-9,-9,-2
1558435699511621,-6,-8,-6,10,-12,-13,-8,-13
1558435699511621,-4,-8,-7,-19,-15,-12,-7,-3
1558435699526381,2,0,1,0,9,10,7,1
1558435699526381,4,7,7,25,16,5,4,1
1558435699534811,-4,-4,-1,-10,0,-3,-5,-4
1558435699534811,2,-3,7,10,7,6,14,11
1558435699549565,-1,-2,-8,-9,-6,-5,-5,-5
1558435699549565,-7,-3,-1,-1,-2,1,-6,-8
1558435699556605,5,6,6,-7,2,6,4,4
1558435699556605,0,1,-7,-14,-8,-4,-5,-5
1558435699565523,-3,-3,2,4,-6,-2,-1,7
1558435699565523,0,6,2,8,1,-6,5,-3
1558435699571524,-4,-4,-2,3,-4,-3,-2,1
1558435699571524,-5,-7,-2,8,7,-4,-10,-3
1558435699587464,2,-2,1,16,5,6,-1,-6
1558435699587464,-1,-4,-3,-9,-7,-2,-10,2
1558435699594446,7,8,9,8,12,3,4,9
1558435699594446,-6,-5,-11,-6,-8,-4,11,-9
1558435699609404,-6,-6,-13,-27,-12,-3,-2,-5
1558435699609404,4,3,10,9,13,9,14,11
1558435699616386,4,3,-4,-5,2,6,2,8
1558435699616386,1,3,12,22,5,0,-15,-5
1558435699625362,-2,-2,-17,-29,-23,-17,-12,-1
1558435699625362,-3,-5,4,15,3,3,-5,-3
1558435699631345,6,3,0,-10,9,8,11,9
1558435699631345,-9,-4,2,9,9,5,-8,-15
1558435699647303,0,0,-4,2,-5,-6,-4,-3
1558435699647303,0,3,15,15,-3,-4,-3,-5
1558435699654285,-9,-14,-21,-23,-16,-8,-5,-10
1558435699654285,4,2,1,7,-2,-3,0,2
1558435699677223,-3,-10,-4,-3,-1,-3,4,0
1558435699677223,2,1,10,8,12,7,-1,-2
1558435699678220,3,4,-9,2,5,10,3,1
1558435699678220,1,3,-2,-12,-14,-10,-3,1
1558435699686199,2,3,5,12,6,0,1,5
1558435699686199,-3,-3,3,10,8,5,3,0
1558435699692438,-3,-1,-8,-18,-4,-2,0,-5
1558435699692438,5,4,-7,-11,-5,4,6,9
1558435699707143,-5,-9,4,26,-2,-7,-2,-3
1558435699707143,-7,-7,-6,-15,-6,-2,0,-6
1558435699714156,-4,2,10,6,1,1,3,-5
1558435699714156,1,1,-4,2,5,-1,-6,-2
1558435699729085,4,7,1,-16,-5,0,3,3
1558435699729085,-2,-3,-7,-2,-9,-10,-9,0
1558435699737062,-3,-6,2,-5,-11,-8,4,-5
1558435699737062,0,-2,-8,-19,-3,-2,-6,-2
1558435699752231,1,1,7,20,19,15,18,7
1558435699752231,2,2,-7,-7,8,13,7,7
1558435699753021,4,5,10,11,5,3,1,3
1558435699753021,-4,-4,-1,8,-7,-7,-4,1
1558435699766983,-2,1,5,-20,-19,-16,-23,-8
1558435699766983,-1,1,-10,-2,-4,-10,9,1
1558435699774267,0,-1,0,-6,-5,-4,-4,-1
1558435699774267,0,-2,1,10,5,5,2,-2
1558435699789154,-1,-4,1,-2,1,7,2,0
1558435699789154,-2,4,-1,5,0,-2,1,0
1558435699797132,-2,0,-11,-23,4,5,-2,-2
1558435699797132,2,-1,12,11,8,4,2,1
1558435699812861,0,0,-8,3,1,2,3,-2
1558435699812861,1,0,-4,-18,-10,-2,-6,0
1558435699812861,-2,-8,0,14,-6,-8,1,-3
1558435699812861,-4,-6,0,-3,-2,-5,-1,-2
1558435699826825,-2,-7,-24,-7,-6,-1,-11,-8
1558435699826825,7,7,7,2,10,9,1,5
1558435699834801,0,2,-1,11,3,2,3,5
1558435699834801,-3,0,1,-6,-10,-7,-3,0
1558435699849762,1,2,14,12,6,2,2,1
1558435699849762,-4,-10,-23,-25,-14,-12,-8,-5
1558435699856742,-1,1,3,1,1,-5,-6,-2
1558435699856742,3,-3,-3,-3,4,5,3,-3
1558435699872702,-7,2,3,1,-1,-2,-5,-3
1558435699872702,2,1,9,4,-7,-8,-13,-6
1558435699873699,-4,-7,-7,2,2,1,8,2
1558435699873699,0,5,5,9,5,4,1,0
1558435699886664,1,0,10,-8,5,1,0,2
1558435699886664,2,-4,-13,7,7,11,4,3
1558435699894648,3,4,10,-13,-7,-8,-7,1
1558435699894648,-3,-2,-13,-6,-8,-4,-6,-9
1558435699909601,1,1,0,-2,-3,0,-1,0
1558435699909601,-2,2,2,16,6,0,8,4
1558435699916589,2,-2,-4,-21,-5,0,0,-4
1558435699916589,-3,-3,-1,-3,-9,-7,-6,-5
1558435699932540,-2,-7,-11,-5,-1,1,-7,-2
1558435699932540,-1,2,4,7,4,0,1,-6
1558435699933539,0,1,-1,-2,-3,4,-7,-2
1558435699933539,-1,0,3,1,0,-5,0,-4
1558435699946503,3,4,-3,-12,-4,-2,6,6
1558435699946503,-1,-5,5,14,1,-1,-4,1
1558435699954481,-2,-3,0,-5,3,0,2,-6
1558435699954481,-6,-6,-16,-9,-2,1,-5,-1
1558435699969441,0,-3,2,11,-6,-4,1,-5
1558435699969441,-1,0,-8,-15,-5,-4,1,4
1558435699977425,-4,2,8,14,4,-2,-7,-2
1558435699977425,2,-1,-18,-10,3,6,10,6
1558435699992381,5,4,13,9,10,1,4,0
1558435699992381,-3,-8,-12,-8,-7,-4,-8,-6
1558435699993377,1,-2,-2,2,-1,4,-1,-2
1558435699993377,-3,-1,6,14,3,-3,0,-2
1558435700007455,-3,3,0,-10,-6,-3,-3,-3
1558435700007455,-2,-5,5,-3,-7,-6,-4,-2
1558435700014324,0,-2,-5,-1,-2,-3,1,0
1558435700014324,2,5,10,13,4,8,2,2
1558435700029282,1,-3,3,4,-4,-5,-2,-2
1558435700029282,-4,-1,-17,-19,-7,-4,-2,-3
1558435700037260,-2,-5,3,30,4,-2,-3,1
1558435700037260,2,-1,5,-15,3,2,-1,-1
1558435700052421,3,3,-6,5,6,3,3,1
1558435700052421,-7,-5,-6,1,-3,-5,-1,-2
1558435700053218,-2,3,-9,-14,1,7,13,5
1558435700053218,-2,-4,3,-1,-2,0,0,-2
1558435700067180,-2,-3,-4,-8,-9,-6,-5,1
1558435700067180,1,3,12,12,5,2,-1,-4
1558435700074461,4,6,-6,-8,-6,-6,-5,-1
1558435700074461,-5,-4,7,9,-5,-9,-9,-2
1558435700089122,-7,-5,-14,-35,-13,-5,0,0
1558435700089122,2,4,10,28,13,8,5,3
1558435700097099,-1,-1,5,1,-3,-3,-4,-2
1558435700097099,-1,-3,-7,-8,1,5,1,-3
1558435700113131,-1,1,-5,8,-2,-7,-11,-2
1558435700113131,-1,-2,9,14,1,0,3,-5
1558435700113131,-2,-1,-7,-11,-8,-6,-4,-4
1558435700113131,4,4,1,6,4,3,6,10
1558435700127021,-4,-5,-13,-4,10,13,5,-2
1558435700127021,2,4,16,-12,-10,-3,-1,1
1558435700134001,-4,-10,-15,3,1,-2,-6,-5
1558435700134001,-2,-2,6,14,0,-3,-3,-10
1558435700149003,-1,2,-2,-25,-5,-3,-3,-1
1558435700149003,4,1,0,-6,-7,-3,4,2
1558435700156939,-1,-1,9,-3,3,2,2,1
1558435700156939,-2,-2,-15,-15,-10,-10,-15,-3
