timestamp,emg1,emg2,emg3,emg4,emg5,emg6,emg7,emg8
1558435708138513,0,-2,-10,-5,-3,-4,-2,-5
1558435708138513,-1,-6,-4,11,4,-3,4,0
1558435708139510,-4,-4,-3,-11,-5,-3,9,-3
1558435708139510,-3,1,7,12,4,-1,1,-3
1558435708140507,-3,-2,0,4,0,-6,-8,0
1558435708140507,0,-1,3,-1,0,5,0,-3
1558435708140507,5,4,-1,7,13,9,7,6
1558435708140507,0,-2,1,1,-2,2,0,1
1558435708152477,0,1,-3,-6,-1,1,-3,-2
1558435708152477,-1,2,5,0,-1,1,-18,-3
1558435708161450,0,-3,0,5,-9,-6,-14,-4
1558435708161450,-3,-1,7,-1,0,0,8,0
1558435708166439,-2,-7,-18,-12,-4,0,-5,1
1558435708166439,-1,1,-3,-12,-2,2,16,3
1558435708181398,-2,-1,0,-1,-2,-1,-7,-7
1558435708181398,-3,-6,-5,7,3,3,3,2
1558435708191371,-1,-2,8,-5,-5,-4,-2,-2
1558435708191371,0,-1,-1,13,1,2,0,1
1558435708196358,4,3,3,-5,-5,-7,1,2
1558435708196358,-4,-5,-19,-19,-13,-10,-11,-7
1558435708212315,4,4,5,3,4,4,2,5
1558435708212315,1,-1,-3,-5,8,12,14,4
1558435708220293,-6,-5,-1,18,4,-2,-3,0
1558435708220293,-1,-1,-3,-11,-9,-13,-10,-3
1558435708260188,-2,-1,3,3,1,-3,9,-3
1558435708260188,1,0,3,20,9,6,4,-1
1558435708261184,0,-3,-10,-12,-8,-5,-3,-2
1558435708261184,1,0,-5,-3,-6,-3,-5,1
1558435708265174,0,1,8,3,2,3,-3,-5
1558435708265174,0,-4,-18,-15,-4,-1,3,3
1558435708265174,2,2,2,-1,9,10,3,6
1558435708265174,-4,-4,12,27,6,-2,-4,-3
1558435708272154,-4,-2,-1,-10,-7,0,-6,-6
1558435708272154,0,-1,-8,-13,-8,-6,-4,-1
1558435708279137,-3,-2,8,3,-4,-4,-5,-4
1558435708279137,-2,-1,-2,5,-1,-4,1,-1
1558435708286118,-2,-4,-12,-1,5,2,4,4
1558435708286118,0,3,11,4,5,-4,-5,-3
1558435708301078,-1,1,1,12,4,-4,3,-2
1558435708301078,-2,-1,-9,-26,-7,1,-4,-7
1558435708310054,-2,-1,2,4,-3,-3,-6,-5
1558435708310054,-2,0,1,5,-1,-2,-7,3
1558435708317035,5,4,-8,-11,-2,1,-1,2
1558435708317035,-3,-2,-3,-2,-3,-3,-4,-6
1558435708331995,-3,-5,-2,1,-4,-8,-12,-4
1558435708331995,-3,-1,1,-8,2,4,4,-1
1558435708338976,0,2,7,5,-1,1,-4,0
1558435708338976,1,0,0,-2,5,-1,8,2
1558435708346955,0,-1,-5,0,-2,2,-1,0
1558435708346955,0,1,4,4,2,2,-3,-5
1558435708361915,-2,-4,-5,-6,-8,-7,5,-1
1558435708361915,0,-1,-7,-13,-5,-5,-5,-5
1558435708369895,-1,0,-1,-5,-7,-4,0,-2
1558435708369895,1,2,6,9,8,0,1,0
1558435708376875,-2,-4,-5,-9,-5,2,-3,-2
1558435708376875,-2,0,3,1,1,3,-4,2
1558435708391835,-2,0,0,3,-2,-1,-11,-6
1558435708391835,-2,0,-7,-19,-6,0,1,-1
1558435708398816,0,0,-2,14,9,6,3,1
1558435708398816,-2,-4,-1,15,7,9,9,3
1558435708406797,1,-1,-4,-17,-3,-2,4,5
1558435708406797,-1,-2,6,3,-9,-4,-8,-4
1558435708421755,-7,-2,-8,0,-1,0,-17,-14
1558435708421755,-1,1,5,-1,-2,-4,-8,-1
1558435708429733,4,3,3,14,8,1,7,7
1558435708429733,-1,-1,-5,-17,-9,-6,-1,-2
1558435708436715,1,0,6,-2,-5,-6,2,1
1558435708436715,-1,-2,3,5,0,-5,-6,-2
1558435708452673,1,0,-1,12,5,4,6,2
1558435708452673,-2,-4,-11,-26,-9,-5,-7,-5
1558435708458656,-2,-3,-9,-2,2,5,0,-4
1558435708458656,3,2,15,19,3,-11,6,5
1558435708466635,-4,-4,-7,-5,-4,-5,0,0
1558435708466635,1,1,-2,3,-2,-2,2,4
1558435708481595,0,3,4,-1,11,13,8,-2
1558435708481595,-1,0,-8,-8,-6,3,-4,-5
1558435708489573,3,7,16,5,7,6,5,4
1558435708489573,-1,-3,-7,5,1,-2,3,-1
1558435708496554,-7,-12,-10,-7,-12,-10,-7,-5
1558435708496554,2,3,0,-8,1,1,-5,3
1558435708520492,0,-3,-10,-29,-5,1,2,-3
1558435708520492,-3,-1,18,33,9,2,-5,-3
1558435708521488,0,-3,-6,-13,-2,-10,4,3
1558435708521488,1,-1,4,8,5,7,-3,0
1558435708526475,-2,-2,-18,-13,-10,-6,2,-3
1558435708526475,1,-1,-3,4,2,0,-3,1
1558435708541435,2,1,8,6,-4,-2,9,5
1558435708541435,0,0,-8,-17,-1,0,1,-1
1558435708549415,0,-1,11,10,-3,-7,-9,0
1558435708549415,-1,3,1,-1,10,9,11,1
1558435708556395,-3,0,8,-1,-7,-9,-15,-6
1558435708556395,-6,-10,-24,-25,-9,4,5,-2
1558435708572352,0,1,10,26,7,-1,1,-2
1558435708572352,1,-1,-11,-8,-6,-7,-1,1
1558435708579334,2,2,-4,-10,-6,-6,5,4
1558435708579334,-3,-4,9,13,7,7,-5,-1
1558435708586316,-2,-5,-1,3,-5,-8,-2,-4
1558435708586316,-3,-1,1,-7,-4,-2,-2,1
1558435708601276,-4,-2,-9,-7,-6,-6,-9,-4
1558435708601276,-1,2,3,0,-1,2,2,-3
1558435708609253,0,2,2,-2,-3,0,-1,-1
1558435708609253,-1,-1,-1,8,1,-8,13,-3
1558435708624213,1,2,-1,-11,1,10,-1,-4
1558435708624213,-2,-5,-13,-1,-1,-8,-1,-1
1558435708632191,-1,-1,6,-4,4,-3,-4,2
1558435708632191,-1,-2,1,4,-3,3,-14,-2
1558435708640171,-1,2,12,14,11,5,11,8
1558435708640171,-2,0,3,3,-2,-3,-1,-8
1558435708646155,2,4,-5,10,15,13,1,1
1558435708646155,-3,-4,-7,-22,-17,-10,-9,-2
1558435708661114,0,0,-9,-19,-13,-8,-3,0
1558435708661114,1,-1,8,8,0,0,0,-2
1558435708670090,3,2,-4,0,12,8,3,7
1558435708670090,-2,-3,-2,-1,2,-1,-2,-1
1558435708684053,-2,1,10,21,9,3,1,-3
1558435708684053,-1,3,-11,-23,-14,-7,4,1
1558435708692031,-8,-10,-14,-12,-12,-11,-19,-6
1558435708692031,-1,0,5,5,5,7,13,-1
1558435708699015,-2,-2,0,6,-2,-5,-7,-4
1558435708699015,-2,-1,0,0,5,8,4,-1
1558435708706991,0,1,9,13,4,4,4,-4
1558435708706991,0,1,2,-6,-2,-2,-3,-5
1558435708721952,-1,-5,-13,-6,0,4,4,1
1558435708721952,0,1,0,0,-5,-9,-5,0
1558435708729930,1,-2,-2,-15,-4,5,3,3
1558435708729930,-4,-3,-19,-1,1,-4,-4,-4
1558435708743894,0,4,14,21,2,-4,-9,-4
1558435708743894,3,4,-8,-16,4,5,0,5
1558435708751871,-6,-8,-4,2,-4,-6,9,-5
1558435708751871,1,4,19,9,-3,-4,-6,2
1558435708758854,-1,-4,-6,8,8,5,-9,3
1558435708758854,-2,-3,-6,-7,-4,-1,7,-1
1558435708766832,-1,1,-3,6,-1,-2,2,-4
1558435708766832,-2,-3,-1,-9,-3,-1,-2,1
1558435708781792,4,3,11,23,5,0,0,2
1558435708781792,3,5,14,-6,-3,1,-5,-1
1558435708796753,-2,-5,-10,-12,-7,-5,-12,-3
1558435708796753,-1,-2,-16,-16,-9,-2,4,0
1558435708812708,0,-2,-8,-16,-7,-1,-2,1
1558435708812708,-4,-1,-1,5,4,-1,-3,-5
1558435708813706,4,5,11,9,7,4,8,6
1558435708813706,-1,-1,2,8,7,4,-1,-1
1558435708818693,-3,-7,-3,-11,0,-4,1,-5
1558435708818693,0,-2,2,4,-8,-6,-9,-2
1558435708826671,-3,0,-4,-2,-9,-5,-7,-6
1558435708826671,1,1,2,15,8,-3,3,0
1558435708841634,-3,-1,-6,-15,-5,-5,1,-2
1558435708841634,-2,-5,1,3,-2,-3,-9,-2
1558435708849609,0,1,0,-8,-3,-1,5,-3
1558435708849609,4,4,12,12,8,10,7,7
1558435708863573,-3,-4,-1,-2,-3,-1,1,-1
1558435708863573,-3,-6,-13,-6,-10,-5,-4,-2
1558435708872549,1,-2,-6,-4,-3,-5,-8,-1
1558435708872549,-4,-6,9,13,3,4,7,-1
1558435708878533,1,4,6,-9,4,0,2,0
1558435708878533,2,0,-3,5,-4,-4,-3,1
1558435708894490,-3,-1,-5,-7,-5,1,4,2
1558435708894490,2,0,-11,-17,-4,-5,-4,0
1558435708901473,0,1,0,4,3,-1,-4,1
1558435708901473,1,2,11,4,7,9,8,3
1558435708909450,-1,0,-5,-1,0,-4,-4,-1
1558435708909450,-2,-4,4,14,3,3,-5,-5
1558435708924411,0,0,-6,-16,-12,-7,-1,-2
1558435708924411,-1,-2,-13,-17,-4,-10,-8,-2
1558435708932389,-3,-5,4,7,0,1,-2,-2
1558435708932389,0,1,7,10,-2,-3,-8,-2
1558435708939370,-3,-5,-8,-10,-8,2,-1,0
1558435708939370,-2,2,6,18,6,-2,5,1
1558435708954345,1,-1,0,-16,-3,-5,-6,-1
1558435708954345,-1,1,4,-1,-7,-2,-4,-3
1558435708961312,-4,-7,-6,6,0,-3,-5,-2
1558435708961312,-2,-1,-9,-12,-3,-3,0,0
1558435708969291,2,3,9,-2,-4,-5,-3,2
1558435708969291,-4,-6,-20,-25,-3,-2,-9,-9
1558435708984251,-2,1,6,19,5,-7,0,0
1558435708984251,0,2,10,10,4,2,11,-1
1558435708992229,-2,-6,-10,-13,-12,-5,-4,-4
1558435708992229,3,0,-3,-11,0,4,6,3
1558435708999210,2,3,-6,-5,0,6,-5,1
1558435708999210,-2,-4,-4,4,1,1,3,-2
1558435709015168,0,2,9,11,3,-2,-5,1
1558435709015168,-3,-4,-1,1,-9,-11,-15,-7
1558435709021152,1,-2,-10,-23,-4,-1,5,0
1558435709021152,2,0,4,4,2,1,5,8
1558435709030127,1,0,-13,-12,3,3,1,-3
1558435709030127,-2,1,12,17,0,-3,-1,2
1558435709044090,-3,-2,-4,-8,-4,1,-5,-8
1558435709044090,-2,-8,-2,6,-1,-4,-9,-5
1558435709052068,3,4,8,3,10,12,11,6
1558435709052068,1,3,-6,8,2,3,1,1
1558435709059051,-3,-3,6,7,-2,-6,-2,-3
1558435709059051,0,1,8,1,0,5,-1,0
1558435709075020,-2,-6,-12,-2,-9,-7,-4,-1
1558435709075020,-1,-1,-5,-20,3,9,-8,-7
1558435709081989,-1,0,9,12,-3,-4,5,0
1558435709081989,3,6,7,4,3,1,3,2
1558435709089968,-2,2,-2,-1,0,2,0,-5
1558435709089968,-4,-6,-5,-1,6,6,0,3
1558435709103931,3,2,7,0,5,4,-1,-1
1558435709103931,-7,-5,-4,-5,-8,-4,-4,-8
1558435709111908,4,7,4,7,2,-3,-2,3
1558435709111908,-1,-4,-14,-27,-18,-11,-3,-4
1558435709118890,4,3,-6,2,6,5,7,11
1558435709118890,1,1,2,4,13,9,1,4
1558435709134855,0,6,15,15,-1,-2,-7,-2
1558435709134855,-2,-2,-13,-9,-5,-7,4,-6
1558435709141829,-2,-2,-1,-8,0,-1,-9,-4
1558435709141829,-2,-2,-3,-9,-7,-4,0,0
1558435709149807,-3,-3,2,10,2,2,1,-4
1558435709149807,3,4,7,4,0,1,5,2
1558435709163770,1,1,5,9,-4,-2,-5,-4
1558435709163770,-4,-3,-23,-28,-8,-8,-3,-3
1558435709171749,-5,-6,-5,4,6,7,2,-5
1558435709171749,-1,2,8,3,-6,-2,4,6
1558435709178729,0,-2,-2,8,2,5,7,1
1558435709178729,1,2,1,1,-5,-3,-8,-4
1558435709194686,-5,-5,-11,-20,-2,5,2,-3
1558435709194686,2,-1,2,-2,8,11,10,8
1558435709201668,-3,-2,1,12,5,-4,-4,-2
1558435709201668,0,0,5,5,4,1,6,-1
1558435709209647,2,-1,-4,-6,-12,-12,-8,1
1558435709209647,3,6,5,9,4,1,-3,-1
1558435709223610,-4,-5,-13,-11,-8,-3,-2,-1
1558435709223610,-2,-5,-6,-4,-2,1,2,-2
1558435709232587,-3,-2,9,6,3,-2,-10,-1
1558435709232587,-2,-2,-2,3,3,2,3,-2
1558435709246548,3,3,8,7,-1,1,0,-1
1558435709246548,-3,-6,-8,-6,-7,-10,-9,-6
1558435709254527,3,1,0,-19,-1,-4,-2,5
1558435709254527,0,-3,-7,-4,-2,4,0,0
1558435709269486,-4,-5,-4,-3,-3,-2,-2,-4
1558435709269486,1,1,2,3,1,1,-7,-5
1558435709270483,0,-2,0,0,-3,-1,7,-2
1558435709270483,2,2,-2,-2,0,-6,2,1
1558435709284446,-3,-5,-4,3,-4,-7,-6,-4
1558435709284446,3,3,9,5,-1,6,2,4
1558435709292424,-4,-2,-8,8,1,-1,0,-5
1558435709292424,-1,2,1,6,0,2,0,-4
1558435709306389,0,-5,0,-18,-5,2,-1,-1
1558435709306389,0,1,1,-1,-1,-4,-6,0
1558435709314367,4,0,4,-3,-3,-5,-3,6
1558435709314367,-2,2,15,12,5,-2,-3,-4
1558435709329326,-3,-2,-14,3,10,11,11,2
1558435709329326,-3,-6,-4,-3,-3,4,3,-1
1558435709338307,3,0,-5,-4,2,8,3,-1
1558435709338307,-3,-2,-4,-5,-12,-22,-14,-1
1558435709344287,2,4,3,-7,3,1,0,6
1558435709344287,0,0,9,20,10,8,7,2
1558435709353264,0,-3,-10,-5,-1,-1,-1,0
1558435709353264,1,1,5,12,3,2,-1,2
1558435709366227,-7,-8,-12,-29,-14,-8,3,-7
1558435709366227,0,1,-9,-3,-3,-3,0,3
1558435709375203,1,1,9,8,2,-2,3,-2
1558435709375203,-4,-8,-8,-19,-12,-3,-10,-6
1558435709389167,1,1,8,9,4,4,0,0
1558435709389167,-3,1,2,-5,-3,4,-6,-6
1558435709398151,-2,-1,-2,-7,-2,-5,1,1
1558435709398151,1,1,0,8,7,7,9,1
1558435709404126,-1,-1,-3,-5,-6,-8,-8,-1
1558435709404126,2,-1,-5,-15,-5,-3,6,-3
1558435709413103,-8,-7,-1,6,3,3,-5,-6
1558435709413103,-1,-2,-4,-9,-8,-6,-4,-3
1558435709426068,-2,0,-5,8,6,5,11,-1
1558435709426068,1,-4,-2,-6,-4,-8,-6,2
1558435709435044,0,-3,-9,-15,-7,0,-1,7
1558435709435044,-2,-1,6,7,5,-2,2,-3
1558435709449011,5,5,9,-1,2,7,6,4
1558435709449011,-1,1,3,13,1,-2,-1,-2
1558435709457982,-5,-7,-4,3,-4,0,2,-5
1558435709457982,0,0,-5,-9,1,-2,-3,2
1558435709463968,1,2,9,17,1,-3,-9,1
1558435709463968,4,6,1,4,7,3,5,7
1558435709472942,-5,-7,-14,-21,-10,-9,-7,-5
1558435709472942,-3,-3,-5,-17,-8,-3,-1,-3
1558435709486905,-4,-2,1,-2,-9,-14,-9,-3
1558435709486905,-3,-4,-5,-2,-2,-2,-5,-3
1558435709495881,-2,-2,-3,3,-2,-2,-7,-4
1558435709495881,2,-1,8,8,4,5,1,2
1558435709508846,3,2,-4,4,5,-2,-3,0
1558435709508846,-1,-2,-3,-11,-6,-10,-6,-2
1558435709517823,5,4,0,3,3,3,5,5
1558435709517823,-5,-5,-8,3,0,-3,-2,-4
1558435709523806,-3,-6,6,12,3,6,5,4
1558435709523806,-2,-3,-9,-13,-9,-5,-16,-5
1558435709532783,1,6,10,-1,4,1,5,-8
1558435709532783,3,2,0,1,-4,-3,3,4
1558435709546746,1,-2,-9,-14,-2,0,-2,-5
1558435709546746,-1,-1,5,15,3,-1,-3,-2
1558435709555721,-1,-1,1,-7,-6,1,-2,0
1558435709555721,0,0,-1,8,3,6,2,-3
1558435709568686,-4,-1,-5,-16,-8,-3,1,-6
1558435709568686,-1,-2,5,1,5,6,5,-3
1558435709577662,-1,-2,0,7,-2,2,2,-2
1558435709577662,0,1,4,2,-3,-9,-5,-3
1558435709583645,-2,0,-2,2,-4,-6,-13,-6
1558435709583645,0,1,11,-6,0,4,4,1
1558435709592624,0,-2,-16,-7,1,-1,-1,0
1558435709592624,1,1,4,2,10,8,7,3
1558435709606596,4,6,5,19,3,-4,-1,3
1558435709606596,-7,-8,-6,-21,-10,-7,-6,-4
1558435709615561,1,0,0,1,0,-1,-1,-2
1558435709615561,-1,-1,1,6,6,-3,0,0
1558435709629530,5,4,4,5,4,4,0,5
1558435709629530,-4,-3,-2,9,2,2,9,1
1558435709638506,-2,-5,5,7,-6,-8,-12,-1
1558435709638506,-2,-2,-8,-16,-4,1,5,0
1558435709644570,-3,-2,-4,-2,-1,2,-1,-3
1558435709644570,3,4,9,3,5,4,6,6
1558435709653467,-1,-3,-3,-2,-1,-7,-7,0
1558435709653467,0,-1,-2,-3,-7,-7,-10,-6
1558435709667427,2,1,11,13,12,3,-10,-1
1558435709667427,3,3,-12,-13,-5,1,8,5
1558435709675411,-6,-5,-1,6,1,-2,4,-6
1558435709675411,0,-1,-3,-8,-5,1,-7,0
1558435709689371,-5,-7,-5,-8,-15,-16,-8,-11
1558435709689371,1,0,1,6,2,-2,-8,1
1558435709698341,5,8,9,6,13,7,6,7
1558435709698341,-2,-4,2,-1,-3,0,-4,-2
1558435709704327,-4,-5,-7,-9,-2,-2,5,3
1558435709704327,-1,-4,-11,7,-5,-10,-8,-6
1558435709713299,0,-2,3,-1,-3,-4,-3,-1
1558435709713299,-5,-8,-16,-8,-8,-1,-3,-3
1558435709726264,2,4,8,-2,2,10,-4,-7
1558435709726264,-5,-2,-7,0,-6,-6,-2,-4
1558435709735240,0,2,10,12,10,13,11,5
1558435709735240,-2,-1,-7,-5,8,3,9,2
1558435709749204,2,-1,-6,-3,-9,-5,-6,-1
1558435709749204,1,-2,5,-7,3,3,0,4
1558435709758179,-2,0,4,2,-5,2,2,-4
1558435709758179,-2,-3,-4,-10,-13,-8,-17,-5
1558435709764165,1,-1,-7,-2,-1,-3,4,4
1558435709764165,5,8,10,12,10,2,7,4
1558435709773183,-3,-4,-10,-18,-16,-13,-4,-7
1558435709773183,0,1,4,5,0,-1,-1,3
1558435709786143,-2,0,-5,-8,3,4,7,1
1558435709786143,-5,-6,-9,-7,-9,-7,1,-9
1558435709795115,-1,-3,3,5,-4,-6,-8,-4
1558435709795115,-3,-3,0,12,-1,-1,-6,-6
1558435709809101,-3,-1,1,-4,-1,4,4,3
1558435709809101,0,2,6,5,8,8,2,4
1558435709818020,-1,2,-2,-3,-1,-3,-2,-1
1558435709818020,-1,-1,1,1,-2,-1,6,-1
1558435709824031,1,1,10,-1,-3,-1,-1,-3
1558435709824031,-1,-6,-16,-6,0,0,3,0
1558435709832979,1,0,6,30,18,6,-5,1
1558435709832979,-1,1,-3,-28,-10,1,14,1
1558435709846941,-4,-7,-5,3,-1,-9,-8,-6
1558435709846941,1,3,5,0,1,6,0,0
1558435709855934,2,1,4,-8,-6,-3,-3,1
1558435709855934,-2,-3,-7,3,-2,-4,-10,-1
1558435709868882,0,-3,3,3,4,-6,-1,2
1558435709868882,-7,-6,-16,-13,-3,1,-9,-4
1558435709877860,1,-1,1,7,1,-2,5,5
1558435709877860,-1,0,-1,-13,-3,-7,-3,-3
1558435709883842,-3,0,-6,-14,-9,2,-2,-1
1558435709883842,-2,0,4,-2,-6,-3,-10,-9
1558435709892818,1,-1,-4,3,0,-1,3,7
1558435709892818,5,3,14,25,16,5,16,9
1558435709906791,-3,-4,-9,-1,-3,-12,-5,2
1558435709906791,2,2,1,-6,2,2,1,2
1558435709915757,-1,-2,-10,-5,-3,1,-4,-6
1558435709915757,-3,0,12,17,7,2,-2,-4
1558435709928724,-1,-1,-10,-12,-7,-2,-2,0
1558435709928724,1,0,7,4,4,1,1,-1
1558435709937699,-3,-4,-3,-1,-2,-1,2,-4
1558435709937699,1,-1,-7,-11,-8,-7,-5,1
1558435709943682,0,4,7,2,6,7,7,0
1558435709943682,-5,-6,-1,-1,-11,-12,-4,-2
1558435709952659,0,-3,-12,-10,2,4,1,-3
1558435709952659,-6,-6,-10,-4,-4,-1,-11,-6
1558435709966622,3,3,8,3,7,12,3,0
1558435709966622,5,6,10,27,8,-3,-1,4
1558435709975637,-6,-2,-9,-32,-11,-3,0,-4
1558435709975637,-7,-10,4,26,1,-3,-7,-8
1558435709988599,-2,-5,-15,-25,-10,-1,3,1
1558435709988599,0,-1,1,4,0,1,3,-4
1558435709997542,5,7,15,12,8,0,3,7
1558435709997542,4,3,-11,-13,-8,-1,3,7
1558435710012562,-3,-2,2,6,3,2,-4,-4
1558435710012562,-3,0,4,4,-2,-3,-1,-4
1558435710014494,-2,-1,-8,-7,-6,-7,0,-4
1558435710014494,-3,-4,-4,0,6,5,8,1
1558435710026536,1,-1,2,-3,-1,-5,-5,1
1558435710026536,-1,-3,-11,-6,-8,-5,0,-2
1558435710035443,-2,0,0,-2,-5,-7,-12,-4
1558435710035443,4,0,5,-4,1,2,0,6
1558435710049465,0,0,1,8,6,1,14,5
1558435710049465,-4,-1,4,-5,1,-1,-4,-6
1558435710058400,-3,-3,1,2,1,5,4,-5
1558435710058400,-2,-3,-16,-11,-10,-8,-11,-3
1558435710073460,1,0,1,-3,-4,-1,-5,-3
1558435710073460,2,1,-1,15,4,2,1,1
1558435710074337,-2,-1,4,5,6,8,2,-2
1558435710074337,-3,0,2,0,-8,-7,-3,-5
1558435710087300,-1,0,-10,-9,8,8,7,1
1558435710087300,-3,-3,-5,-4,-8,-9,-8,-4
1558435710095374,0,-3,6,11,1,0,-2,0
1558435710095374,1,4,3,2,-3,-6,-6,-4
1558435710109387,1,-1,8,11,2,0,0,-1
1558435710109387,-3,-6,-15,-7,-5,-1,-1,1
1558435710118221,1,2,-4,-8,-1,3,0,2
1558435710118221,-2,-2,-7,-10,-2,-1,-2,-4
1558435710133500,2,1,8,18,12,1,6,3
1558435710133500,1,2,1,-13,-5,4,0,-1
1558435710134180,-4,-4,6,5,-10,-8,-2,-5
1558435710134180,0,2,-4,0,5,3,7,3
1558435710146145,-7,-5,-16,-8,-2,1,-11,-7
1558435710146145,-2,-3,3,-4,-3,-5,-2,1
1558435710155118,1,0,-2,-2,0,-1,0,2
1558435710155118,3,1,7,5,2,-1,-1,6
1558435710169080,-1,1,5,8,2,4,-1,-9
1558435710169080,-2,-1,-4,-8,-3,-2,-1,-5
1558435710178056,-1,-3,1,1,4,3,-4,1
1558435710178056,-5,-7,-10,-14,-5,-6,-6,-6
1558435710193017,-1,0,2,10,-4,-7,0,0
1558435710193017,1,2,3,-9,-1,-2,0,2
1558435710194013,-2,-2,0,15,4,-4,-3,-2
1558435710194013,1,1,9,5,5,6,4,0
1558435710207317,-2,-1,-4,-8,4,8,-2,1
1558435710207317,-1,-5,-7,-15,-20,-10,-6,-2
1558435710215954,0,0,-6,3,6,2,9,6
1558435710215954,0,1,-2,-11,-3,-5,-4,0
1558435710229957,-3,-3,3,14,1,-3,5,-3
1558435710229957,0,-2,3,6,7,-3,5,0
1558435710237902,2,0,5,6,-1,0,-2,-1
1558435710237902,1,1,-1,1,-6,-4,-5,-3
1558435710260858,3,1,-9,-20,-11,-5,1,3
1558435710260858,-3,-3,3,31,16,10,4,3
1558435710261833,-2,-5,-14,-36,-7,-1,1,-2
1558435710261833,1,2,6,6,5,4,-1,-3
1558435710266860,-4,-6,-12,-14,-15,-15,-10,-4
1558435710266860,0,2,11,10,6,2,3,2
1558435710275795,-2,-2,-17,-15,-14,-4,-7,-2
1558435710275795,-2,-3,-1,-3,-6,-4,-11,-6
1558435710288951,-1,2,8,13,5,1,4,0
1558435710288951,1,3,2,4,11,9,8,2
1558435710297738,0,3,5,1,4,1,6,1
1558435710297738,-5,-8,-8,-2,-5,-8,-12,-5
1558435710312730,-3,-5,-5,-7,-9,-7,-7,-4
1558435710312730,1,1,0,4,1,-5,-6,-2
1558435710314691,0,-3,-4,-12,-5,-6,-10,-3
1558435710314691,0,1,-1,-4,-3,-2,7,2
1558435710326682,2,-1,5,4,5,5,5,1
1558435710326682,-2,-4,-12,-9,-3,1,0,-3
1558435710335636,-1,0,4,4,4,0,-1,-3
1558435710335636,1,2,3,-1,0,8,13,3
1558435710348600,-2,-1,2,15,0,-10,-13,-6
1558435710348600,0,2,1,-18,-7,-4,-2,3
1558435710357577,-1,-1,1,20,4,2,7,0
1558435710357577,-1,2,-1,-17,3,8,1,0
1558435710372538,1,2,-5,-6,-9,-8,-8,-2
1558435710372538,-2,-8,-8,-11,-6,1,3,1
1558435710374533,0,2,7,7,4,2,-11,-3
1558435710374533,-3,1,10,13,7,2,3,-3
1558435710386498,-1,0,-10,-15,-7,2,1,3
1558435710386498,-3,-3,-3,4,-9,-9,-12,-7
1558435710395475,-2,-5,-8,-10,-4,-3,3,-1
1558435710395475,3,4,8,9,5,-3,2,1
1558435710409603,1,-1,0,8,6,1,0,-1
1558435710409603,-3,-6,-8,-16,-12,-4,-2,0
1558435710417612,-2,0,-2,-3,-8,-12,-16,-8
1558435710417612,-1,-2,-2,6,4,1,3,5
1558435710433458,-1,2,10,0,1,0,5,3
1558435710433458,0,-1,-1,7,7,8,7,2
1558435710434370,1,0,1,-6,-5,0,-1,-2
1558435710434370,-1,0,-8,4,-3,0,-3,0
1558435710446539,-2,-8,-8,-7,-4,-2,2,1
1558435710446539,3,2,3,2,6,8,7,2
1558435710455314,-2,-3,1,8,-6,-6,9,1
1558435710455314,-2,0,-2,-4,-1,4,-4,-5
1558435710469444,1,3,2,3,0,1,-2,-3
1558435710469444,0,1,0,-3,3,1,-1,-2
1558435710478255,0,1,1,-7,-7,-7,-3,1
1558435710478255,-1,-1,-13,2,4,8,8,3
1558435710493380,0,2,4,6,3,-2,-6,-2
1558435710493380,-5,-8,-2,-7,-8,-5,-3,-6
1558435710494210,0,0,0,-2,-1,-3,-5,-2
1558435710494210,-2,-2,0,-3,-5,-4,-2,-3
1558435710506343,0,1,6,9,12,6,3,5
1558435710506343,-1,-1,-5,19,7,1,-1,3
1558435710515259,-4,-1,-3,-8,3,11,13,1
1558435710515259,-3,-3,0,-4,-11,-8,-3,-7
1558435710529151,-2,-5,-6,0,-4,-2,-6,-6
1558435710529151,5,6,6,-5,0,2,3,9
1558435710538096,-1,-3,-7,-7,3,1,0,3
1558435710538096,-4,1,6,10,1,-7,-6,-7
1558435710553057,0,0,0,6,9,5,-2,4
1558435710553057,1,5,-5,-18,-6,2,1,0
1558435710554052,-8,-8,14,18,-7,-8,-19,-9
1558435710554052,4,-1,-17,-15,6,10,16,7
1558435710567017,0,-1,0,-5,2,-1,2,0
1558435710567017,-3,-1,-3,-3,0,-7,-11,-7
1558435710575028,1,1,-2,-3,-5,0,4,-1
1558435710575028,-4,-6,-1,2,-8,-8,-6,-4
1558435710589046,-4,-4,4,-7,-10,-4,-7,-9
1558435710589046,1,2,0,4,2,-4,-9,2
1558435710597934,6,8,7,-3,4,7,15,7
1558435710597934,-6,-10,-11,-5,1,1,0,-1
1558435710613104,0,-1,-5,-12,-8,-6,-1,0
1558435710613104,-2,0,1,5,-6,-11,-7,-7
1558435710614017,0,-2,-4,1,5,2,-15,-2
1558435710614017,-1,-2,7,1,-1,1,7,6
1558435710626981,0,1,-16,-10,-9,-13,-14,-3
1558435710626981,1,-3,0,-12,0,2,7,5
1558435710635958,-3,-1,1,3,-3,-2,-4,-5
1558435710635958,-2,-4,-4,-9,-6,-2,-13,-4
1558435710649003,0,1,4,8,4,5,-3,-1
1558435710649003,-2,1,9,11,4,3,7,-4
1558435710657899,2,-2,-15,-9,0,0,9,2
1558435710657899,3,2,9,8,3,2,0,0
1558435710672924,-2,0,4,1,-3,-3,3,-3
1558435710672924,0,-2,-3,7,-1,-2,-3,0
1558435710673857,-10,-11,-18,-24,-10,-5,-10,-7
1558435710673857,1,1,2,-8,-5,0,6,1
1558435710686887,-3,0,-3,1,2,-1,3,2
1558435710686887,-2,-1,-2,-5,-2,-3,5,-2
1558435710695799,2,2,2,6,2,-1,-4,3
1558435710695799,0,0,7,7,-1,-4,-4,-2
1558435710708831,-1,-4,-3,-5,-4,3,0,-3
1558435710708831,-1,-1,4,5,0,-1,-5,-1
1558435710717739,-3,-3,8,13,-1,-1,4,-1
1558435710717739,1,-2,-21,-35,-8,-1,-7,1
1558435710732700,-2,-2,5,13,9,6,9,2
1558435710732700,-1,-3,-1,-1,-4,-6,0,-1
1558435710738732,-5,-3,-5,3,-4,-5,-7,-6
1558435710738732,0,-1,-7,-2,-4,-3,-4,-1
1558435710746663,4,4,4,4,11,16,15,4
1558435710746663,-2,-1,0,-9,-3,1,-3,1
1558435710755638,2,3,-1,-3,4,0,4,-1
1558435710755638,-3,-6,9,21,3,-9,-5,-3
1558435710768604,0,1,-9,-16,-3,-5,-5,2
1558435710768604,-3,-4,-4,1,-2,4,4,-2
1558435710777662,2,3,5,2,0,3,-7,0
1558435710777662,0,0,-4,-10,-1,3,-1,1
1558435710792735,0,1,7,0,-4,-3,2,2
1558435710792735,-3,-2,-4,6,2,2,-2,-2
1558435710799535,-3,-7,-14,-9,-9,-7,-6,-5
1558435710799535,1,2,10,11,0,-7,-1,-2
1558435710806636,-1,-2,-6,-1,-1,1,3,-2
1558435710806636,0,-3,-6,-16,-9,-6,-13,-6
1558435710815478,-2,-1,2,15,7,3,3,2
1558435710815478,-3,-2,-6,-5,3,7,9,-3
1558435710829485,0,-2,0,-3,-6,-10,-8,-4
1558435710829485,1,1,3,1,-5,-4,-2,-1
1558435710838479,1,1,10,8,3,-5,-5,2
1558435710838479,0,-3,-14,-13,-8,1,-3,2
1558435710852447,-3,-2,-1,-7,-3,1,-5,-5
1558435710852447,-2,-4,-9,-4,-1,2,-1,-2
1558435710859412,1,1,7,4,4,-1,2,2
1558435710859412,4,5,6,7,1,1,1,1
1558435710866371,-1,-4,6,6,-4,-15,-3,7
1558435710866371,-5,-1,0,-6,-6,-6,-4,-6
1558435710875885,0,-2,-8,-5,-2,3,-1,-2
1558435710875885,-1,-3,8,1,4,3,2,-3
1558435710888888,-6,-6,-16,-15,-8,-4,-8,-7
1558435710888888,-1,-1,8,14,6,1,-5,1
1558435710897834,-1,-3,-10,-5,-2,0,12,1
1558435710897834,-2,-1,-4,0,-3,-6,-4,-4
1558435710911831,1,2,4,-6,-3,1,-1,0
1558435710911831,0,-3,-10,-10,-8,-7,-5,0
1558435710918808,-1,1,7,-6,-6,0,0,-5
1558435710918808,-1,-3,-8,9,14,13,5,3
1558435710926795,3,4,8,8,-1,-3,5,2
1558435710926795,-2,-2,-12,-6,2,3,0,-4
1558435710935735,-2,-2,-8,-23,-7,-4,-3,-1
1558435710935735,0,-2,4,10,-1,-3,0,0
1558435710948734,-4,-2,9,27,3,4,-6,-7
1558435710948734,-2,-1,2,-12,0,6,9,3
1558435710957671,-2,-4,-7,-4,-3,-7,-6,-4
1558435710957671,-5,-5,-5,-4,-2,-6,-3,-2
1558435710972630,-4,-5,-11,-3,0,1,-1,-8
1558435710972630,4,4,10,-2,-5,-6,-3,4
1558435710978615,-4,-6,-14,-15,-1,5,-2,-4
1558435710978615,-2,0,2,15,4,-3,5,-3
1558435710995597,-2,-3,-7,-18,-5,-2,-14,-4
1558435710995597,-3,-3,-2,5,0,-1,7,-1
1558435710996566,-1,3,7,1,-3,1,7,1
1558435710996566,0,4,1,-1,-1,-6,-6,0
1558435711008533,0,1,11,3,2,6,7,2
1558435711008533,-9,-15,-23,-6,-1,-4,-4,-6
1558435711017659,2,0,6,9,3,0,-1,2
1558435711017659,-3,-3,-1,-9,-8,-4,-5,-3
1558435711032683,1,4,8,3,-1,2,-1,-1
1558435711032683,3,6,10,11,8,5,-1,2
1558435711039600,1,-4,-4,-1,-6,-6,-2,4
1558435711039600,-3,-1,-2,-3,-1,2,1,-9
1558435711055620,0,2,-7,-18,-10,-6,5,-1
1558435711055620,3,1,1,4,8,7,1,3
1558435711056613,-2,0,-2,7,8,10,4,0
1558435711056613,3,0,6,-3,-6,-5,-24,-1
1558435711069503,1,0,2,0,9,5,17,7
1558435711069503,-2,-2,1,10,-5,-10,-2,-4
1558435711078392,-1,2,10,14,14,18,9,6
1558435711078392,-4,-3,-6,-23,-11,-7,-4,-5
1558435711092345,-4,-5,-5,9,4,0,-3,-5
1558435711092345,1,1,-3,-8,0,-1,0,0
1558435711099293,-1,4,1,-1,-3,-3,-1,1
1558435711099293,1,0,4,7,0,0,4,3
1558435711115251,-2,-3,-1,-1,2,-3,-5,0
1558435711115251,0,-1,-7,6,0,-4,-1,0
1558435711117281,-1,-1,6,-1,-3,-7,-3,-5
1558435711117281,-2,0,-11,-8,-6,-4,3,1
1558435711129246,-1,-4,-7,-8,-6,-2,-5,0
1558435711129246,-3,-3,0,8,0,1,-6,-5
1558435711138192,-1,2,4,0,9,-1,7,1
1558435711138192,2,5,8,7,3,2,-8,1
1558435711152184,-4,-2,-6,-8,-5,4,-7,-6
1558435711152184,-7,-6,-2,0,-7,-3,-5,-8
1558435711159132,3,1,-10,-11,4,-5,1,5
1558435711159132,0,1,5,10,1,-7,-4,-3
1558435711175088,2,1,1,4,1,-2,-4,-1
1558435711175088,1,2,4,-7,2,6,7,1
1558435711177083,-3,-4,-8,8,-4,-1,-8,-7
1558435711177083,-5,-5,-4,-3,1,3,6,-2
1558435711189090,-4,-5,-4,1,-10,-12,-6,-5
1558435711189090,-1,-1,-1,-9,-3,-4,1,-1
1558435711198028,2,-1,0,4,2,1,-3,1
1558435711198028,1,-2,2,3,-1,-1,-2,-1
1558435711211990,-3,-3,-8,-9,-7,-5,-2,-1
1558435711211990,2,2,1,-7,4,2,1,0
1558435711218970,-4,-2,1,-4,-7,-4,-11,-7
1558435711218970,-3,-8,-14,-13,-9,-2,-3,-2
1558435711234929,-1,-1,2,-4,9,3,7,6
1558435711234929,0,1,10,5,1,-2,-1,-6
1558435711236924,-2,-5,-15,-15,-8,-4,-2,-2
1558435711236924,-1,3,4,3,1,2,4,-1
1558435711248892,-2,-2,-2,3,-5,-6,2,-1
1558435711248892,2,3,2,-2,1,-2,-6,4
1558435711257866,-1,0,-1,3,-4,1,-4,-2
1558435711257866,1,0,6,-5,-7,-3,1,2
1558435711272854,3,-2,3,5,14,10,5,1
1558435711272854,-3,-5,-13,1,1,2,-2,-1
1558435711278967,-3,-1,10,7,0,1,2,-1
1558435711278967,0,1,-8,-9,5,5,1,-1
1558435711295857,2,2,4,12,-4,1,2,-1
1558435711295857,-1,-2,0,2,-3,-15,-13,4
1558435711296764,4,3,8,1,-4,2,7,4
1558435711296764,-3,-3,-10,3,0,-2,9,-2
1558435711309728,2,2,-4,-7,0,-2,-3,3
1558435711309728,1,-1,0,4,2,5,-1,-4
1558435711317867,-2,-4,-7,-8,-2,2,1,0
1558435711317867,-1,-3,11,-3,3,1,-3,-1
1558435711331830,-4,-4,-9,8,-7,-10,-8,-7
1558435711331830,-1,-2,-1,5,2,2,5,1
1558435711340803,2,6,0,-6,3,-9,-7,0
1558435711340803,0,2,9,9,8,5,2,1
1558435711354768,-1,0,-3,-10,3,6,2,1
1558435711354768,-2,-4,-10,-12,-14,-10,-7,-2
1558435711356761,-2,-3,-5,3,-6,-2,1,-3
1558435711356761,-2,-4,1,3,5,0,-4,-6
1558435711368730,-3,-1,2,-5,-3,-1,-2,-1
1558435711368730,0,5,-2,-17,-4,1,0,0
1558435711377769,-1,-1,8,6,6,-3,3,2
1558435711377769,-1,1,1,5,-2,-3,1,0
1558435711391912,-1,-3,-8,-3,-7,-6,-5,-6
1558435711391912,1,4,15,10,12,16,9,2
1558435711400643,-4,0,2,9,3,0,-10,-8
1558435711400643,2,5,-1,-7,-1,-1,-5,2
1558435711415782,-3,-7,-6,2,1,-1,5,2
1558435711415782,-1,-1,1,-2,-2,-2,-8,-5
1558435711416602,0,-2,0,3,-3,2,4,-1
1558435711416602,-4,-3,-13,-12,-14,-14,-12,-4
1558435711428748,-1,3,4,3,7,13,10,4
1558435711428748,2,-1,-2,-5,-2,-5,5,2
1558435711437719,3,2,-5,-18,-5,-1,-14,-1
1558435711437719,-3,2,9,6,6,7,16,0
1558435711460658,-1,-2,1,-4,-1,-3,-3,0
1558435711460658,-3,0,-8,-3,-1,0,-1,-3
1558435711461617,-1,-4,-10,-10,-1,1,3,-2
1558435711461617,3,1,3,1,-5,-7,-10,0
1558435711475777,-2,-1,-2,4,-1,-4,-6,-4
1558435711475777,1,2,0,-7,2,3,6,4
1558435711476778,-5,-8,-7,-6,-8,-8,-3,-5
1558435711476778,0,0,-6,2,5,5,3,4
1558435711488745,-2,-1,0,3,2,-3,-4,-2
1558435711488745,-1,0,3,4,-1,-2,-2,-2
1558435711497723,-2,2,0,0,1,1,2,0
1558435711497723,-4,-5,2,7,4,1,-3,-3
1558435711511850,3,2,3,-8,-4,-4,-5,2
1558435711511850,3,1,6,9,1,1,7,-1
1558435711520660,0,-3,-10,-15,-11,-5,12,1
1558435711520660,0,2,10,14,10,9,7,1
1558435711535864,-2,-3,-14,-9,-9,-9,-7,0
1558435711535864,-5,-5,-6,-2,-6,-2,-5,-7
1558435711536825,0,-3,4,1,0,3,0,0
1558435711536825,-1,-3,-2,1,0,-4,1,0
1558435711548912,-2,-1,-6,-13,-7,3,4,0
1558435711548912,-3,-1,0,-1,-1,0,3,-3
1558435711557770,-1,-1,-6,-12,-4,-4,-4,-2
1558435711557770,-3,-6,-10,0,-5,-2,-2,-1
1558435711571766,2,4,11,6,10,5,0,4
1558435711571766,-4,-6,-1,2,-6,-7,-5,-3
1558435711580709,0,-1,5,3,-2,-3,-6,-6
1558435711580709,-1,-2,-12,-8,-5,4,-2,-3
1558435711595710,3,3,11,9,1,-5,5,2
1558435711595710,-2,-2,-6,-6,0,-3,2,2
1558435711596667,-4,0,-1,10,5,-1,-3,-1
1558435711596667,2,-2,-7,-15,-6,-5,-6,-1
1558435711608666,0,-4,-2,-4,-5,2,-8,-4
1558435711608666,1,-2,1,-2,-4,-4,-3,2
1558435711617609,1,4,10,16,4,2,2,3
1558435711617609,-2,0,-4,-19,-8,-7,-4,-1
1558435711631575,-5,-3,-2,8,4,-2,-3,-2
1558435711631575,-3,-7,-7,-6,-7,-1,-4,0
1558435711640549,1,-2,-8,-12,-3,-1,0,-3
1558435711640549,-3,-4,6,8,0,-2,2,-5
1558435711655658,-3,-1,-1,-5,-7,1,0,-4
1558435711655658,-4,-2,4,6,-1,-4,-10,-9
1558435711656568,2,3,2,0,9,13,13,8
1558435711656568,3,1,-3,2,4,1,2,4
1558435711669472,-5,-5,-6,-1,-4,-5,2,-2
1558435711669472,-2,-4,-8,-6,-6,-8,-4,-3
1558435711678448,-3,0,2,5,0,2,-1,-1
1558435711678448,-1,1,5,3,3,0,2,-1
1558435711691491,1,5,11,9,5,0,-1,0
1558435711691491,-4,-7,-8,-7,-7,-9,-9,-2
1558435711700388,-2,-1,-3,-18,-12,-7,-6,-2
1558435711700388,-2,-2,-2,3,-1,1,3,0
1558435711714350,-4,-7,-15,-5,2,3,0,0
1558435711714350,3,7,6,2,4,3,6,-1
1558435711721405,0,-2,2,2,3,-2,-1,-1
1558435711721405,-2,-2,-3,2,-6,-3,-8,-2
1558435711729388,-4,-4,-4,-21,-11,-5,-11,-5
1558435711729388,3,6,0,11,6,4,10,4
1558435711738287,-3,-5,6,27,9,0,-3,-5
1558435711738287,0,-2,-3,-22,-6,-7,1,0
1558435711751282,-2,-2,-8,4,3,0,-1,-5
1558435711751282,-1,3,-5,-26,-6,1,3,1
1558435711760228,-2,-1,4,10,2,-5,-4,-3
1558435711760228,2,2,6,8,1,1,-2,-1
1558435711775192,-3,-2,-10,-12,-10,-5,-3,-7
1558435711775192,2,1,5,8,10,11,-4,3
1558435711781172,4,3,3,4,-1,-4,3,6
1558435711781172,-2,-6,-14,-7,1,1,0,1
1558435711789152,3,3,1,-2,0,2,2,1
1558435711789152,-2,-2,3,-5,-6,-4,-1,-2
1558435711798128,-6,-8,-8,1,-8,-8,-6,-4
1558435711798128,1,0,-2,1,1,-1,5,3
1558435711811128,3,1,3,5,2,4,3,3
1558435711811128,3,0,9,15,10,6,4,4
1558435711820122,-3,-5,-12,-12,-13,-10,-12,-6
1558435711820122,-3,1,1,-3,-4,-3,-8,-6
1558435711835027,-7,-3,4,8,-3,-5,-5,-6
1558435711835027,2,0,0,3,11,11,5,2
1558435711842010,-2,-2,-5,2,2,-1,1,3
1558435711842010,1,0,6,-4,-3,3,1,-1
1558435711848991,0,-1,-9,-11,-11,-10,-7,-1
1558435711848991,-2,-4,5,16,3,-3,-6,-1
1558435711857968,-4,1,-1,-1,-2,-3,-6,-5
1558435711857968,-2,-2,-9,-12,-1,1,-5,-2
1558435711871948,2,1,13,4,0,4,3,3
1558435711871948,-4,-3,-4,-3,-7,-4,-3,-4
1558435711879910,1,0,-6,-5,5,7,7,1
1558435711879910,-2,0,10,15,-2,-6,-6,-4
1558435711895162,-3,-4,-2,-11,-9,-3,-18,-10
1558435711895162,1,-1,-5,2,4,5,5,3
1558435711901208,1,-2,8,4,4,-5,-3,1
1558435711901208,0,2,0,0,3,1,2,0
1558435711918163,-3,-2,-5,-17,-7,-10,2,0
1558435711918163,-5,-2,0,7,4,6,1,0
1558435711919103,-5,-9,-23,-23,-12,-1,-5,-8
1558435711919103,5,7,-5,-4,5,6,-4,9
1558435711931122,-4,-5,10,29,10,-1,5,-4
1558435711931122,1,3,3,-12,-6,0,3,-1
1558435711940079,0,1,0,6,-3,-1,0,-2
1558435711940079,-1,-1,16,22,6,2,-4,2
1558435711955038,0,-2,-23,-17,3,5,4,2
1558435711955038,1,2,0,-5,-5,-5,-2,0
1558435711961987,-3,-1,1,-1,-2,1,-1,-4
1558435711961987,-3,-4,1,15,-1,-4,-6,-9
1558435711977981,7,7,6,6,9,6,8,9
1558435711977981,-5,-5,-10,-12,-9,-10,0,-5
1558435711978946,1,1,1,-2,2,-3,-3,-1
1558435711978946,-4,-4,6,-21,-14,-6,-5,-2
1558435711991940,-7,-12,-21,-18,-10,-5,-4,-4
1558435711991940,1,0,-3,-8,2,3,3,4
1558435711999918,1,7,3,-9,1,1,5,3
1558435711999918,-2,-3,0,14,-2,-3,-4,-4
1558435712014848,2,6,9,-2,0,5,-4,-2
1558435712014848,-1,-2,-2,-1,-6,-5,-10,-5
1558435712021829,0,2,12,3,0,4,3,4
1558435712021829,-2,-5,-20,-13,-3,-3,-5,-1
1558435712037814,1,4,8,8,2,2,13,5
1558435712037814,-2,-2,3,19,4,-6,-5,-2
1558435712038783,-1,-2,5,7,-2,-2,-2,-2
1558435712038783,1,3,4,2,-2,-2,12,3
1558435712051777,0,0,-1,-11,-9,-2,-4,-2
1558435712051777,-6,-7,-10,4,-5,0,0,-4
1558435712060724,-3,-2,-8,-39,-15,-8,-12,-4
1558435712060724,2,0,-10,4,6,3,-13,-2
1558435712074718,6,4,14,13,14,2,15,11
1558435712074718,-2,-2,-7,-3,2,0,0,1
1558435712081670,-1,1,-2,6,2,7,0,-4
1558435712081670,-4,-1,-9,-21,-12,-9,2,-3
1558435712097627,-5,-1,1,12,0,-2,-2,-6
1558435712097627,2,3,6,-12,1,0,7,3
1558435712099649,6,-1,-10,3,3,-3,0,7
1558435712099649,0,1,5,4,7,5,6,-1
1558435712111623,3,-1,7,12,-5,-1,-5,-1
1558435712111623,-1,-1,2,-9,-3,-1,-2,-6
1558435712120566,-3,-6,-14,-2,0,0,-5,-2
1558435712120566,2,1,-2,-12,-6,-7,0,-2
1558435712134560,-3,1,-4,0,1,-1,-3,-1
1558435712134560,-4,-2,1,3,2,2,1,-5
1558435712142544,-4,-1,7,-7,-1,0,9,-4
1558435712142544,1,-1,-6,-6,-1,-1,-2,1
1558435712157594,-4,-4,-5,3,6,4,-7,-8
1558435712157594,0,4,8,6,2,5,5,2
1558435712159722,0,1,0,-6,0,3,9,7
1558435712159722,-2,-5,1,1,-6,-5,-5,-9
1558435712171729,0,1,1,-6,1,2,7,5
1558435712171729,-10,-10,-7,16,0,-4,-11,-10
1558435712180671,4,3,2,-5,-1,2,2,0
1558435712180671,-3,-4,3,2,2,1,-3,1
1558435712194678,0,-2,8,11,-2,-7,-3,2
1558435712194678,2,2,-13,1,2,3,-2,0
1558435712201657,0,2,-4,-3,-7,-5,-12,-1
1558435712201657,1,5,12,21,14,6,12,4
1558435712217580,-1,-4,-20,-37,-3,-1,-4,-1
1558435712217580,8,2,3,-2,-7,-7,3,5
1558435712219569,-9,-5,6,15,4,0,-4,-9
1558435712219569,0,4,8,0,8,12,6,1
1558435712231536,-1,-2,4,9,6,7,1,3
1558435712231536,2,2,4,7,4,0,-5,1
1558435712240511,0,-3,-18,-15,-7,-8,-5,0
1558435712240511,-1,-5,-3,-9,-11,-8,-3,0
1558435712254800,-5,-1,-2,1,-2,-5,-1,0
1558435712254800,-7,-5,-4,-11,-5,-7,-6,-7
1558435712261816,2,1,15,23,0,-3,2,2
1558435712261816,0,1,-22,-29,-2,5,3,2
1558435712277472,-3,-8,-5,-5,-6,-8,-4,-2
1558435712277472,-5,-2,-1,-2,-8,-13,-13,-2
1558435712279469,-1,5,8,8,8,6,4,0
1558435712279469,-5,-7,-10,-11,-7,-4,-6,-6
1558435712291376,5,4,7,6,2,0,-1,2
1558435712291376,2,1,3,5,8,4,15,1
1558435712300352,0,-1,4,5,3,0,-4,3
1558435712300352,-3,0,6,4,-1,-3,1,1
1558435712315453,-1,1,-10,-2,-1,3,-6,-9
1558435712315453,-2,-5,-6,-21,-10,-5,-2,-3
1558435712321296,-1,-5,4,1,-1,-2,-5,-2
1558435712321296,3,1,1,9,-1,2,0,3
1558435712337253,-4,1,4,-6,-3,-1,-1,-1
1558435712337253,3,3,-3,-9,-6,-5,0,1
1558435712339274,1,0,-3,-7,0,-3,3,3
1558435712339274,-3,-6,-17,-3,1,-4,-8,-2
1558435712351731,-5,-3,0,5,1,3,3,-1
1558435712351731,7,5,-5,-13,3,6,1,6
1558435712360652,-7,-7,3,24,-2,-5,-1,-9
1558435712360652,-1,2,14,7,-2,-6,-2,0
1558435712383617,1,-1,-12,-3,-2,3,6,3
1558435712383617,-3,-5,-2,-15,-7,-3,-7,-1
1558435712384128,2,3,5,11,7,9,9,4
1558435712384128,0,1,0,3,-2,-6,10,2
1558435712398089,2,-5,2,4,-2,-1,-1,1
1558435712398089,-3,-1,-2,-5,2,7,-4,-6
1558435712399291,-3,-4,4,-4,-4,-5,1,-1
1558435712399291,2,5,14,11,10,9,0,-2
1558435712412396,-1,0,-12,-12,-10,-8,-6,2
1558435712412396,-1,-4,6,16,1,-10,-3,-1
1558435712420340,-1,0,6,3,6,5,1,5
1558435712420340,-2,-2,-9,-7,-1,3,1,0
1558435712435331,-2,4,5,-8,-7,-5,-10,-5
1558435712435331,-2,-5,-4,7,-1,-7,-2,1
1558435712441973,4,-2,-4,-10,2,-1,9,3
1558435712441973,-3,-3,0,-2,-3,0,1,0
1558435712457930,-1,-2,3,12,1,0,-13,-6
1558435712457930,-2,-5,-17,-23,-12,-1,2,1
1558435712458927,0,-1,-5,-7,-3,-3,-4,-3
1558435712458927,0,-1,-5,1,1,2,4,0
1558435712471891,1,0,10,-7,-4,-6,-1,-2
1558435712471891,-4,-2,-8,11,4,0,-3,-2
1558435712479871,-2,-5,-6,-22,-16,-8,-10,-1
1558435712479871,-3,-4,-5,9,2,0,-3,-3
1558435712495261,-2,1,3,-7,1,2,0,-2
1558435712495261,0,0,0,-8,0,2,-1,1
1558435712502264,0,0,-11,2,4,3,3,2
1558435712502264,-3,-5,4,-5,-6,-6,-8,-2
1558435712518198,0,2,-1,-1,4,5,6,-1
1558435712518198,-4,-5,-3,2,5,-1,5,0
1558435712518767,0,1,-2,-19,-7,0,-6,-5
1558435712518767,-1,-2,-2,2,3,-2,-1,1
1558435712531732,-3,-1,0,14,-1,-4,0,-1
1558435712531732,0,1,8,3,-7,-2,-5,-4
1558435712540664,-6,-6,-3,-6,-3,-1,-5,-10
1558435712540664,3,2,3,9,10,8,5,3
1558435712555458,-6,-9,-17,-24,-11,-6,3,-1
1558435712555458,-1,5,14,14,5,2,-5,-2
1558435712562200,-2,-4,-13,-4,-1,-5,-3,-2
1558435712562200,-2,-2,-3,-13,-12,-5,-4,-4
1558435712578355,2,3,8,11,8,4,9,6
1558435712578355,2,1,1,2,3,5,3,2
1558435712579125,0,-1,3,-4,0,6,-1,0
1558435712579125,-6,-7,-2,9,-5,-7,-12,-11
1558435712592276,-1,0,-12,-34,-12,-5,4,1
1558435712592276,-6,-3,3,5,3,-5,-1,-9
1558435712600252,-5,-5,-4,-2,-1,2,5,4
1558435712600252,9,7,3,3,11,4,9,12
1558435712615025,-3,-5,8,17,-2,-6,-1,-7
1558435712615025,-1,-3,-11,-4,-7,-3,-4,-2
1558435712622224,3,3,1,12,6,2,0,0
1558435712622224,0,0,-5,-16,-7,-3,-6,-2
1558435712636973,-2,-4,4,5,2,6,1,-1
1558435712636973,4,4,8,-5,0,4,1,3
1558435712643986,-5,-5,-3,18,-3,-8,-10,-7
1558435712643986,-3,-3,-2,-15,-10,-6,-7,-4
1558435712651927,-2,-6,9,30,12,1,0,0
1558435712651927,-2,-5,-19,-7,-8,-3,2,-3
1558435712659935,3,7,9,-7,6,5,5,1
1558435712659935,-2,-3,-1,9,5,1,0,1
1558435712674866,-1,1,-4,-10,-6,-2,-7,1
1558435712674866,-4,-3,-1,-1,-9,-3,-5,-14
1558435712681847,1,5,1,1,3,5,1,1
1558435712681847,0,-1,-1,-8,0,-2,8,4
1558435712697507,-2,-1,-2,4,-2,-6,-8,-5
1558435712697507,2,0,2,8,4,6,-1,6
1558435712712976,-3,1,1,-7,-5,-7,-8,-1
1558435712712976,-4,-5,-8,-19,-5,0,5,-8
1558435712712976,-3,-6,-2,12,2,0,0,-3
1558435712712976,2,2,8,6,0,-8,-5,2
1558435712720742,2,0,-13,-19,-1,4,-2,-2
1558435712720742,-2,-4,-1,5,6,5,0,3
1558435712735228,1,5,7,-6,-3,-3,0,-1
1558435712735228,-3,-2,-10,-6,-2,-2,5,-2
1558435712741708,0,-3,2,8,-1,-1,-2,-2
1558435712741708,0,3,3,1,-6,-9,-20,-7
1558435712757576,-2,-2,-8,-5,-1,1,3,2
1558435712757576,-1,-1,8,10,5,-2,-1,4
1558435712764153,0,-2,5,-6,1,-4,-3,4
1558435712764153,-1,0,-7,4,-5,0,9,1
1558435712772290,2,-1,-3,-24,-6,-1,-5,-1
1558435712772290,1,1,-5,-9,-4,-1,-1,3
1558435712780113,-2,1,4,27,8,4,0,-7
1558435712780113,4,4,6,10,2,0,7,6
1558435712795304,-6,-12,-14,-16,-5,-4,-10,-12
1558435712795304,-3,-4,-2,7,4,5,5,0
1558435712802120,5,5,9,-7,-7,-3,-1,2
1558435712802120,-4,-5,-2,-1,-5,-7,-8,-5
1558435712817019,2,3,-4,10,8,4,-1,4
1558435712817019,1,-1,7,-8,-5,-5,-12,0
1558435712824218,-3,-1,-2,-6,-4,3,14,1
1558435712824218,1,0,1,5,0,0,-2,-2
1558435712841000,1,2,3,2,2,-2,-3,2
1558435712841000,-5,-4,-3,2,5,0,10,0
1558435712841951,0,5,-13,-12,-8,-3,-1,0
1558435712841951,-7,-8,4,9,6,2,3,-3
1558435712854913,3,3,-1,-5,-6,-1,2,-1
1558435712854913,1,2,1,-14,-9,-4,3,0
1558435712862134,1,0,9,24,11,4,3,4
1558435712862134,-2,-5,-15,-19,-7,0,0,1
1558435712876853,-3,-4,6,16,1,-9,-11,-5
1558435712876853,1,1,-3,0,3,5,2,1
1558435712892059,-2,-6,-10,-18,-5,2,3,1
1558435712892059,0,-2,3,-1,-3,-2,-4,-4
1558435712900788,-2,0,0,0,2,-1,-4,-1
1558435712900788,1,-1,3,9,4,2,1,4
1558435712901786,-4,-4,-3,-12,-9,-7,-5,-7
1558435712901786,-2,-1,-3,-8,0,-3,-1,-1
1558435712914753,3,2,-3,-5,-1,6,-2,0
1558435712914753,0,2,1,-11,-4,-1,-7,-1
1558435712922092,-4,-10,3,2,-6,-6,-1,0
1558435712922092,0,-2,-8,4,-2,-4,-3,-2
1558435712937704,-2,-3,-3,9,4,2,6,1
1558435712937704,-2,0,-5,-26,-10,-3,-24,-5
1558435712944834,5,4,4,8,1,-2,16,6
1558435712944834,5,6,-2,-6,-1,5,1,-2
1558435712960982,-2,1,11,15,5,-4,3,2
1558435712960982,0,-1,2,1,-1,4,-6,-5
1558435712962667,-8,-11,-14,1,0,-7,-8,-5
1558435712962667,-1,2,9,0,1,-2,7,2
1558435712974933,2,4,0,0,-1,0,1,-2
1558435712974933,-3,-1,0,0,0,-5,4,0
1558435712988553,0,-1,1,-2,-4,-5,-8,-5
1558435712988553,-6,-2,-3,-5,-10,-2,-6,-5
1558435712996531,-1,-1,-9,-4,7,5,0,3
1558435712996531,5,5,18,15,6,-2,6,7
1558435713003512,-7,-12,-32,-21,-5,-2,-4,-7
1558435713003512,0,-2,1,8,5,-4,-5,1
1558435713020467,-1,-1,1,-8,-6,1,-2,-4
1558435713020467,-1,-3,-3,-1,-2,1,-1,-1
1558435713021464,-2,0,-4,0,-1,-4,-5,4
1558435713021464,1,2,12,21,8,8,8,-1
1558435713034806,-5,-4,-1,-18,-2,-7,-1,-2
1558435713034806,-1,-1,-9,-9,-1,-2,0,-4
1558435713041784,3,4,9,0,-4,-1,-4,0
1558435713041784,-1,-2,-3,-8,-7,-12,-3,-2
1558435713057370,-1,4,8,11,6,11,3,2
1558435713057370,-2,-7,-5,2,5,8,17,-1
1558435713064350,0,5,4,-6,-1,-4,-7,-2
1558435713064350,-6,-5,7,11,-4,-11,3,-4
1558435713080311,-1,-6,-13,-8,-5,-3,-3,-1
1558435713080311,-1,2,2,-1,8,6,3,-1
1558435713082303,0,-1,6,9,3,8,1,-2
1558435713082303,-1,0,-10,-17,-2,3,-1,-1
1558435713103412,-1,-2,-6,-5,-10,-11,-7,-3
1558435713103412,-3,-2,-4,-1,-13,-5,-9,-1
1558435713104244,-1,1,4,13,9,-1,0,1
1558435713104244,0,-1,-4,9,9,2,3,3
1558435713117348,-1,-3,-6,-19,-9,-5,-1,-3
1558435713117348,-2,0,-3,-1,-4,-2,-5,-4
1558435713124194,1,0,4,5,1,-1,2,0
1558435713124194,1,-1,-5,-5,4,10,-6,-3
1558435713140152,1,0,8,13,5,3,-1,3
1558435713140152,-4,-4,-13,-12,-5,-5,9,-3
1558435713142142,1,1,3,0,-2,2,5,0
1558435713142142,-2,-2,-2,2,2,6,0,0
1558435713154312,0,1,6,-1,-2,-1,0,2
1558435713154312,1,0,4,13,7,3,-3,1
1558435713161092,-2,0,1,-10,-13,-9,-11,-3
1558435713161092,1,0,-1,-2,-4,-5,-4,1
1558435713177448,2,0,-6,4,0,-3,-1,-1
1558435713177448,-5,-8,-3,-12,-4,2,-1,0
1558435713184272,-2,-2,-9,-8,1,1,1,-3
1558435713184272,-2,0,4,-4,-7,-5,-7,-3
1558435713199990,3,3,2,3,1,0,0,3
1558435713199990,-1,-1,-1,11,2,-7,-4,-2
1558435713201982,-2,-1,-1,-6,-3,0,-4,1
1558435713201982,-1,1,-5,-17,-7,0,-8,-1
1558435713213953,-2,-3,-3,10,-1,-3,6,2
1558435713213953,-1,1,3,5,-2,-4,-5,-7
1558435713222928,2,-1,0,7,6,3,3,1
1558435713222928,2,1,2,-7,-1,2,-5,3
1558435713236890,-2,-2,-6,-2,-5,-3,-4,-9
1558435713236890,-2,-1,5,3,1,-2,2,0
1558435713243930,-3,-2,-7,-7,-4,-7,-7,-6
1558435713243930,-3,-1,-2,-2,-2,1,6,-3
1558435713260828,1,-1,2,-3,1,0,0,2
1558435713260828,2,0,0,6,4,-2,-3,1
1558435713261832,-5,-7,-4,-5,-6,-1,-6,-7
1558435713261832,0,-1,4,3,0,2,4,-1
1558435713273792,-3,-2,-5,-12,-8,-8,-13,-4
1558435713273792,0,3,4,8,8,7,6,-3
1558435713282767,-1,-2,3,19,8,1,1,0
1558435713282767,-1,1,-8,-23,-5,0,2,-3
1558435713296730,-3,-1,5,3,2,-1,4,2
1558435713296730,-2,-2,2,13,8,-2,-10,-6
1558435713303709,1,0,-2,-9,1,6,1,4
1558435713303709,-3,-5,-4,9,-5,-9,-8,-1
1558435713320667,2,0,-1,-7,-1,2,6,6
1558435713320667,1,2,-5,-5,-6,-2,-5,2
1558435713321662,0,2,4,6,-1,0,6,3
1558435713321662,-3,-3,-8,-5,-1,0,-4,-10
1558435713333631,-3,-4,6,15,3,0,2,-3
1558435713333631,-1,-2,-9,-14,-5,2,4,0
1558435713342611,1,0,-3,-9,-3,-3,-3,2
1558435713342611,1,-3,5,10,-1,-8,1,2
1558435713356568,-4,-1,-6,-1,2,1,-4,-6
1558435713356568,2,3,11,6,-1,-5,2,0
1558435713363556,0,-2,-6,9,4,3,2,2
1558435713363556,0,0,-6,-11,-2,0,7,1
1558435713380507,-4,-6,7,15,2,1,4,-5
1558435713380507,-4,-4,-8,-13,-6,0,1,1
1558435713381503,3,3,9,8,2,2,-1,-3
1558435713381503,6,4,2,4,2,2,-6,8
1558435713393470,-1,4,1,-11,-2,1,8,-1
1558435713393470,-2,-3,-3,-1,-1,-4,-2,1
1558435713402448,-4,-3,-1,-2,-2,-5,-7,-7
1558435713402448,-1,-1,-2,10,0,-5,-2,0
1558435713417407,-2,-2,-10,-32,-6,3,-1,2
1558435713417407,1,3,1,-13,-5,-2,2,4
1558435713424392,2,1,8,20,0,-1,1,5
1558435713424392,-8,-9,-11,-14,-3,-5,-4,-10
1558435713440343,1,2,-2,-5,-3,1,3,-3
1558435713440343,-3,-6,-9,-3,-2,-1,-3,-2
1558435713441342,0,2,8,3,0,3,1,1
1558435713441342,-1,1,4,3,1,5,5,3
1558435713454319,0,0,3,7,2,-2,-7,-1
1558435713454319,2,-2,-7,-4,-1,-6,-6,-2
1558435713463286,-3,-2,-1,4,2,4,-4,-4
1558435713463286,0,4,0,-4,-10,1,5,1
1558435713477505,-1,-3,-4,7,6,1,2,1
1558435713477505,0,4,3,-2,3,5,-1,1
1558435713484228,-2,-3,-6,-7,-1,-3,3,0
1558435713484228,2,6,6,8,5,-5,2,4
1558435713500187,0,-3,-12,3,-10,-10,-9,-4
1558435713500187,-1,-3,6,0,-2,-1,3,0
1558435713502179,-2,-4,-18,-18,5,4,3,-2
1558435713502179,0,-3,8,8,8,3,-1,-4
1558435713514149,2,7,7,-9,-7,-3,-6,2
1558435713514149,-9,-13,-16,-29,-20,-8,-3,-3
1558435713523132,2,1,0,1,-6,-6,-19,0
1558435713523132,2,1,-4,9,6,8,3,6
1558435713537374,-1,3,7,10,3,-2,1,-3
1558435713537374,0,7,14,3,4,7,5,0
1558435713544068,-4,-13,-24,-16,-4,-8,-4,-3
1558435713544068,3,-1,4,-1,-9,-4,-2,3
1558435713560027,-8,-6,-11,-23,-10,-6,-4,-19
1558435713560027,-1,-1,-1,2,1,3,-2,-2
1558435713567039,2,7,26,-2,0,-4,1,3
1558435713567039,-4,-5,-27,-9,-1,-3,-4,-1
1558435713574024,0,-3,-2,14,10,7,3,5
1558435713574024,-5,-6,-18,-31,-17,-7,-10,-5
1558435713582963,0,1,11,20,9,7,3,1
1558435713582963,-2,-2,0,-12,-8,-3,-1,-5
1558435713596925,1,1,9,7,-1,-4,3,3
1558435713596925,-2,-2,-3,30,6,-5,-2,-4
1558435713610894,-4,-4,-3,-24,-9,-2,1,0
1558435713610894,-1,2,19,6,0,0,-3,-4
1558435713619865,3,0,-13,3,4,0,-7,2
1558435713619865,-3,0,6,2,1,5,4,-8
1558435713626939,-1,-3,6,19,2,0,6,4
1558435713626939,-2,-1,0,-7,0,1,3,0
1558435713633973,-3,-3,-11,-15,-3,2,4,3
1558435713633973,-2,-2,-1,-9,-4,-8,-8,-5
1558435713642804,-2,1,-1,9,-5,-3,-5,-4
1558435713642804,-1,-5,1,1,5,2,7,3
1558435713656775,3,1,-2,-10,2,6,-5,2
1558435713656775,-4,-2,2,-3,-8,-10,2,-3
1558435713663752,-3,1,-1,-8,3,1,1,-3
1558435713663752,2,5,15,21,10,1,-1,-4
1558435713679706,-3,-1,-15,-16,-7,0,-1,-1
1558435713679706,-5,-11,-15,-2,-5,-6,-3,-5
1558435713686686,3,4,-4,-17,-7,2,8,0
1558435713686686,-2,-2,-12,-10,-2,-7,-6,-4
1558435713693772,0,0,1,-9,-5,-1,2,5
1558435713693772,2,4,6,11,6,0,-3,2
1558435713702643,-2,-4,-12,-1,-7,-10,-13,-2
1558435713702643,1,1,8,-17,-5,1,2,-3
1558435713716606,-3,-1,4,17,7,5,3,0
1558435713716606,6,9,9,5,7,10,11,10
1558435713723589,4,1,1,3,8,0,0,1
1558435713723589,-7,-8,-9,4,-5,-8,-8,-6
1558435713739544,0,1,11,-6,-10,-11,-15,-6
1558435713739544,-3,-5,-14,-1,-3,2,5,-2
1558435713746525,-4,0,-1,-1,3,1,6,-4
1558435713746525,2,3,1,3,4,3,3,5
1558435713762511,-3,-7,4,11,6,3,0,-2
1558435713762511,1,1,5,11,0,1,-3,2
1558435713764482,-3,-1,-8,-18,-11,-3,-8,-6
1558435713764482,-5,-5,-6,6,-9,-17,-13,-1
1558435713777729,1,-4,-22,-4,-2,1,13,6
1558435713777729,5,5,7,5,15,12,-2,2
1558435713783661,3,4,1,-4,-2,-1,-2,-2
1558435713783661,-2,-4,4,-4,0,11,3,-7
1558435713799384,-1,0,5,4,-4,-7,-3,-1
1558435713799384,-4,-5,-5,-2,-1,-3,-7,-4
1558435713806367,0,2,11,13,1,2,6,0
1558435713806367,-2,1,-9,-6,0,1,-2,2
1558435713822483,-2,1,-2,-5,-3,1,2,-6
1558435713822483,-4,-4,5,6,-2,-4,0,-3
1558435713824318,-1,-4,0,-21,-16,-15,-10,-6
1558435713824318,0,2,-3,-1,-6,-3,-8,-2
1558435713837572,-4,-1,13,9,8,0,4,2
1558435713837572,1,-7,-34,-11,-4,-4,-1,5
1558435713844264,-6,-7,0,-9,-11,-9,-9,-4
1558435713844264,-1,2,-2,0,-1,8,10,-6
1558435713860270,2,2,13,8,6,2,4,4
1558435713860270,-1,2,1,3,0,-2,2,3
1558435713866366,-1,-5,-11,1,3,2,2,2
1558435713866366,1,1,-1,3,4,2,7,6
1558435713882191,1,4,3,-10,2,-3,-8,-1
1558435713882191,1,7,12,26,9,-1,1,-3
1558435713884157,-3,-9,-2,-9,0,0,-3,-2
1558435713884157,-3,-7,-9,-4,-6,-3,-2,-4
1558435713896389,-6,-9,-12,5,-5,4,-9,-11
1558435713896389,5,5,10,-5,-3,-5,-1,8
1558435713905102,-1,3,0,1,1,0,4,-2
1558435713905102,0,-5,-4,-17,1,-2,-3,1
1558435713920129,-3,-2,0,4,0,2,-2,-7
1558435713920129,-3,-5,-7,-20,-15,-9,-12,-6
1558435713926046,-2,1,-9,0,5,8,14,5
1558435713926046,2,5,15,15,7,6,5,3
1558435713943001,-3,-2,-7,2,0,-3,7,-2
1558435713943001,-2,-4,0,-9,-5,-1,-6,-5
1558435713943997,4,4,13,7,6,4,-2,1
1558435713943997,-3,-3,-1,11,0,-5,-11,-3
1558435713955968,2,0,5,3,-3,-4,-2,7
1558435713955968,1,3,-7,-6,3,4,5,1
1558435713964942,-4,0,10,13,1,1,2,-1
1558435713964942,-4,-10,-25,-20,-14,-7,-1,-5
1558435713979903,-6,-12,-23,-26,-10,-7,-17,-13
1558435713979903,5,5,7,6,13,3,11,9
1558435713986884,8,9,9,10,7,8,0,8
1558435713986884,-1,-1,-6,-11,-6,-3,-5,2
1558435714002841,-5,0,-2,11,-4,-2,-4,-9
1558435714002841,-5,-7,-6,-21,-10,-4,-3,-6
1558435714003837,-3,-5,-13,-7,-1,-3,-1,-1
1558435714003837,4,8,24,16,4,1,-1,5
1558435714016805,-1,-8,-11,11,6,0,3,2
1558435714016805,-5,-5,-3,-30,-19,-13,-13,-9
1558435714025779,2,7,13,6,4,1,1,0
1558435714025779,-1,0,1,2,11,16,17,2
1558435714039751,2,2,-1,-1,0,1,3,4
1558435714039751,0,-2,-9,6,3,2,-1,0
1558435714046725,-2,-10,-15,-1,-7,-11,-4,-2
1558435714046725,-4,-6,-9,-7,-9,-10,-9,-6
1558435714062685,2,5,15,11,4,2,4,2
1558435714062685,1,1,-3,-2,-3,0,1,-1
1558435714064677,-1,0,-2,3,12,10,2,3
1558435714064677,-1,0,6,-4,-5,-5,-4,-6
1558435714076644,2,0,-14,-10,-6,-2,0,4
1558435714076644,-5,-2,19,28,-1,-6,-4,0
1558435714085620,-2,-2,-18,-4,-5,-2,-8,-3
1558435714085620,-5,-2,3,2,3,-2,-6,-7
1558435714099580,5,5,-5,1,9,5,7,9
1558435714099580,4,8,22,14,7,7,4,5
1558435714106622,-2,-6,-10,-30,-14,-6,0,-3
1558435714106622,-2,-2,-14,1,-2,-7,-5,-1
1558435714122521,0,-1,7,-15,0,1,1,-5
1558435714122521,0,0,-6,-4,1,3,-1,-3
1558435714124516,0,-4,1,19,3,3,2,-1
1558435714124516,0,-1,2,-5,-7,-5,-4,1
1558435714136488,-2,0,-4,-6,-1,-4,-7,-4
1558435714136488,0,2,18,-2,2,0,2,-4
1558435714145458,-3,-3,-14,-15,-12,-8,-4,-3
1558435714145458,-2,-6,-4,-2,2,3,4,2
1558435714159422,0,5,10,11,3,2,0,2
1558435714159422,-2,-1,4,1,1,2,-1,-1
1558435714166403,-6,-7,-12,-5,-3,-2,-5,-2
1558435714166403,-1,0,1,-6,-10,-10,-2,-1
1558435714182360,4,1,4,-10,-5,0,-1,1
1558435714182360,-1,-1,1,9,9,8,11,2
1558435714184356,-2,-3,4,8,5,-3,-6,-1
1558435714184356,0,1,-4,3,-1,0,3,0
1558435714196325,-6,-6,-16,-12,-8,-4,-2,-5
1558435714196325,0,-1,-10,-5,-8,-8,-11,2
1558435714205298,0,2,19,22,3,0,0,-3
1558435714205298,-4,-7,-22,-23,3,4,1,-2
1558435714219269,0,1,20,17,6,5,4,3
1558435714219269,-4,-3,-12,7,5,2,7,-6
1558435714226244,-1,3,3,-5,-8,0,-3,1
1558435714226244,2,5,17,6,1,-4,-4,-1
1558435714243197,1,-2,-6,-5,-8,-7,-10,-1
1558435714243197,-1,-6,-7,-5,-1,-6,1,1
1558435714244198,1,-3,-4,-15,2,4,7,1
1558435714244198,-2,-2,6,8,-2,-4,-4,-4
1558435714256168,2,2,-1,12,1,-1,-2,1
1558435714256168,-5,-12,-24,-3,-12,-8,-9,-2
1558435714265152,3,0,6,-11,1,2,6,1
1558435714265152,2,5,0,-4,-3,2,-4,0
1558435714279101,-7,-5,-1,-1,1,5,3,-6
1558435714279101,6,5,4,10,10,3,-3,4
1558435714286084,-4,-2,-3,-21,1,1,-1,-3
1558435714286084,0,-1,-3,8,4,0,-2,3
1558435714303039,3,-1,-2,-12,-15,-10,-4,-5
1558435714303039,-11,-2,-3,1,4,4,-4,-4
1558435714304037,1,0,3,5,5,0,4,4
1558435714304037,3,6,6,10,4,-3,-2,-1
1558435714316005,-4,-5,-12,-8,-2,-5,0,-3
1558435714316005,-1,0,10,5,4,7,4,-4
1558435714324995,-3,-1,0,4,-3,-3,-8,-1
1558435714324995,-3,-6,-7,-26,-17,-9,-5,-4
1558435714339941,0,2,2,9,3,0,2,5
1558435714339941,4,4,4,1,-1,3,0,0
1558435714346920,-2,5,1,6,2,4,-1,-2
1558435714346920,-1,-6,-13,2,0,0,-1,0
1558435714362877,-2,1,9,7,4,4,5,-1
1558435714362877,0,-4,1,0,-1,1,2,2
1558435714364877,1,3,2,-6,-5,-6,-3,-1
1558435714364877,0,0,0,4,6,5,-8,1
1558435714375841,0,1,7,-11,-6,-5,-1,6
1558435714375841,-6,-3,1,-2,-7,-6,-13,-13
1558435714384819,-1,-3,0,17,4,-2,-1,-4
1558435714384819,-4,-7,-4,-9,5,6,9,1
1558435714399797,0,1,1,-8,0,3,3,-1
1558435714399797,-3,-6,-4,-23,-13,-7,-9,-3
1558435714406766,1,-3,-1,6,3,2,-1,0
1558435714406766,1,2,1,8,9,5,3,3
1558435714422717,0,4,14,-6,-3,-2,-2,-1
1558435714422717,1,-1,-24,5,3,1,6,5
1558435714423713,-3,-7,-17,1,3,2,2,-5
1558435714423713,-2,5,0,-18,-6,0,0,-6
1558435714436681,0,-4,-1,15,-1,-7,-3,-1
1558435714436681,-2,-6,-2,-25,-16,-8,-11,-6
1558435714445656,1,-1,3,2,-2,0,4,4
1558435714445656,-8,-8,6,8,4,4,-1,-5
1558435714459627,-3,2,4,10,3,5,-3,-4
1558435714459627,3,9,5,7,8,4,10,2
1558435714466615,-6,-7,-15,-28,-13,-9,-7,-6
1558435714466615,6,1,6,8,1,-4,4,8
