timestamp,emg1,emg2,emg3,emg4,emg5,emg6,emg7,emg8
1558435666095522,0,5,9,8,4,-4,0,0
1558435666095522,-1,0,3,2,-4,-5,-10,-5
1558435666096520,3,1,-7,2,8,5,2,4
1558435666096520,2,4,-4,5,8,10,8,3
1558435666097518,1,1,2,0,-3,-5,0,2
1558435666097518,0,-4,-21,-7,-4,-1,-5,0
1558435666097518,-1,0,5,3,5,13,13,-3
1558435666097518,-3,-6,-8,-8,-1,-5,2,-3
1558435666103506,0,0,0,6,0,1,-3,-2
1558435666103506,3,7,8,-4,1,4,8,7
1558435666117464,-3,-8,-2,4,0,-7,12,2
1558435666117464,-1,6,8,-1,4,5,2,-6
1558435666123448,-5,-9,-6,-16,-9,-3,-3,-6
1558435666123448,-3,-2,-10,-12,-14,-13,-3,-3
1558435666138409,0,-2,0,9,6,1,3,1
1558435666138409,2,-2,3,-5,-2,-2,-2,2
1558435666146387,0,0,1,8,13,14,11,4
1558435666146387,1,0,4,-4,-2,-8,-15,-1
1558435666153369,0,4,-3,-5,-5,-10,-12,-5
1558435666153369,-1,2,1,-1,-8,-6,-2,1
1558435666168327,-2,0,2,-9,-6,0,-1,-5
1558435666168327,-8,-9,-3,3,3,7,2,-8
1558435666176307,-1,-2,4,-3,-12,-19,-10,-3
1558435666176307,-1,1,12,8,-7,-12,-16,-2
1558435666216201,1,3,-1,6,8,2,0,1
1558435666216201,-2,-4,-4,-2,-2,-3,-7,-3
1558435666217197,-2,-2,-4,-5,-3,4,6,1
1558435666217197,0,0,0,1,0,-1,-1,-1
1558435666218195,1,5,9,-2,-7,-8,-4,0
1558435666218195,2,-1,-1,3,1,-3,1,5
1558435666221187,0,-1,9,3,5,2,0,-6
1558435666221187,1,1,4,7,3,4,16,6
1558435666228168,-3,-2,-17,-14,-9,-3,-4,-3
1558435666228168,-1,0,-3,-3,3,5,2,-1
1558435666236148,2,5,8,5,2,0,-2,1
1558435666236148,-2,-4,-2,-4,-7,-4,-9,-2
1558435666243127,2,1,-4,-6,6,-3,5,6
1558435666243127,-8,-3,-5,12,-14,-9,4,-9
1558435666259085,0,2,-3,-28,-10,-2,-3,1
1558435666259085,0,2,15,16,17,5,-12,0
1558435666265069,-2,-5,-2,-2,-11,-14,-7,-3
1558435666265069,1,3,1,-1,13,10,5,-1
1558435666273048,-3,-3,-7,0,-4,1,0,-1
1558435666273048,0,0,-4,-9,-11,-12,-5,-6
1558435666288007,-4,-5,4,2,-4,-1,-8,-5
1558435666288007,-1,-1,3,5,3,5,0,0
1558435666295990,-2,-4,5,11,-1,-3,-5,-1
1558435666295990,-6,-9,-45,-17,-7,-2,-7,-3
1558435666302968,-2,-2,6,7,8,8,9,2
1558435666302968,1,0,-4,0,4,-2,-2,-1
1558435666318927,-3,-9,-14,-5,-5,-3,2,-2
1558435666318927,1,2,4,-8,-8,-6,-14,-4
1558435666325908,-1,2,0,-4,-1,6,5,-1
1558435666325908,2,0,-5,-3,-9,-11,-9,1
1558435666332888,3,10,-3,-7,4,0,4,3
1558435666332888,-9,-12,12,22,5,-14,6,-6
1558435666357821,0,0,-5,3,4,4,0,2
1558435666357821,-1,-2,8,-3,-7,1,-1,-1
1558435666359816,-3,-7,-9,-6,-10,-9,-14,-5
1558435666359816,2,4,-1,-12,-7,4,-10,-6
1558435666362809,2,7,9,18,14,8,16,9
1558435666362809,2,3,3,-12,5,-1,2,5
1558435666379764,-1,-5,-13,-4,-5,3,2,-2
1558435666379764,-5,-2,-5,-3,-1,-3,-1,-4
1558435666385747,-3,-2,-1,-6,-4,-1,-7,-5
1558435666385747,-1,3,-2,-3,-2,3,2,-6
1558435666400708,1,-1,0,3,3,1,1,-1
1558435666400708,-1,-5,3,-15,-1,-1,6,3
1558435666407689,-2,-1,3,-6,-6,-4,-9,-7
1558435666407689,-3,-4,-7,-5,8,2,-5,-3
1558435666416666,0,3,14,23,1,-7,-1,0
1558435666416666,2,1,-4,1,4,6,3,2
1558435666422650,4,5,0,-8,-8,-7,-8,2
1558435666422650,-3,-5,5,0,0,-2,-2,0
1558435666439602,-4,-3,-4,-2,-5,-8,1,-2
1558435666439602,1,0,8,4,1,5,-4,-6
1558435666445587,-4,-9,-14,-4,-5,-2,-2,-6
1558435666445587,0,-1,-5,1,-3,4,-3,1
1558435666460546,1,2,6,5,12,10,4,4
1558435666460546,3,5,4,-7,2,-2,3,5
1558435666467530,-1,0,4,19,1,-7,-5,-4
1558435666467530,-4,-7,-3,-12,-8,-5,-3,-5
1558435666476504,-6,-5,-14,-15,-3,-2,-10,-5
1558435666476504,-1,-2,7,7,-2,-1,3,0
1558435666482487,-2,3,-12,-20,0,9,3,-1
1558435666482487,-1,-7,-33,0,0,-2,16,6
1558435666507420,1,4,18,-5,-3,-2,-1,-2
1558435666507420,3,4,2,1,-10,-8,-13,0
1558435666508419,1,-3,-7,6,11,6,13,4
1558435666508419,-3,-1,13,-1,-10,-7,-8,-5
1558435666520386,1,2,-2,3,2,-4,2,4
1558435666520386,-4,-5,-1,13,12,5,7,-3
1558435666528364,-3,-3,0,3,-1,10,-4,-5
1558435666528364,-4,-2,5,-5,-6,-7,-12,-7
1558435666536347,-2,-12,-18,-22,-9,-4,-10,-3
1558435666536347,2,3,28,1,1,-2,0,-2
1558435666543325,-1,-3,-17,5,-8,-6,0,-2
1558435666543325,-1,6,20,9,4,-1,2,-1
1558435666559282,0,1,-5,8,8,4,-1,-3
1558435666559282,1,3,-6,-14,-5,8,9,6
1558435666565266,-2,-9,3,-14,0,-6,-4,-2
1558435666565266,0,0,5,19,3,0,-4,2
1558435666580226,-1,0,-6,-6,-2,-8,-15,1
1558435666580226,-6,0,-4,-3,-1,5,9,-4
1558435666588205,-3,-4,3,0,-11,-11,-6,-4
1558435666588205,0,-1,-10,-2,4,3,0,4
1558435666597180,-1,1,2,-2,-7,-1,3,1
1558435666597180,-1,0,-3,-5,-6,-2,2,1
1558435666603165,1,3,7,3,-2,-7,-8,-3
1558435666603165,2,-3,-25,-21,0,10,9,4
1558435666619122,-2,4,23,39,10,0,-3,-5
1558435666619122,-3,-3,-16,-20,-12,-6,-2,-3
1558435666625106,-2,-9,7,2,-1,1,-12,-5
1558435666625106,1,-2,-9,-13,-4,-3,8,1
1558435666640067,2,0,9,2,0,-5,6,-1
1558435666640067,0,-6,-15,-5,-3,-3,-8,3
1558435666648046,-6,0,-4,3,1,0,-7,-6
1558435666648046,1,5,0,-7,1,3,-7,3
1558435666657021,1,-6,-11,-4,-3,4,8,-1
1558435666657021,0,3,19,13,4,-4,-3,-1
1558435666663005,-1,-1,0,-5,0,0,5,5
1558435666663005,-1,5,4,14,10,13,-5,-6
1558435666678962,0,8,6,-4,6,5,15,3
1558435666678962,-2,-1,-10,9,1,-4,-7,-3
1558435666685944,0,1,0,-9,-5,2,11,2
1558435666685944,-1,-1,3,8,-7,-7,-10,-5
1558435666701901,3,4,9,4,16,12,-3,3
1558435666701901,0,-6,-18,-2,5,4,0,-2
1558435666707885,-2,-2,10,0,2,-2,-6,-1
1558435666707885,-3,-4,19,14,-6,-5,-6,-4
1558435666716860,2,5,-1,-7,-5,6,2,-1
1558435666716860,-1,2,-11,6,6,-1,-4,3
1558435666722844,3,-3,-7,2,6,1,1,6
1558435666722844,0,-4,0,-4,-1,-4,8,-1
1558435666739800,-4,-6,-7,-3,-12,-6,-5,-2
1558435666739800,1,-2,-5,2,0,3,4,3
1558435666745788,-1,1,7,-4,5,1,6,1
1558435666745788,-2,3,4,0,0,-1,-15,-9
1558435666761740,-1,1,-15,-9,-2,0,3,-1
1558435666761740,-4,-8,-9,7,6,-1,4,-4
1558435666767724,-4,-4,-12,-2,-16,-9,-4,-6
1558435666767724,-1,-2,-3,-13,-2,-6,0,0
1558435666776701,-1,3,8,5,-4,-6,-1,-2
1558435666776701,-4,-2,-12,-19,-8,0,-10,-4
1558435666782685,0,2,23,18,8,4,-7,-2
1558435666782685,0,1,-9,-12,-4,-1,4,2
1558435666799639,-3,-9,-6,-3,-12,-9,-8,-4
1558435666799639,0,6,13,7,0,-1,-9,-6
1558435666805624,0,-1,3,9,7,7,0,1
1558435666805624,2,1,16,1,4,4,17,8
1558435666821580,-2,0,-9,-1,3,1,-6,-2
1558435666821580,-3,-3,12,0,-1,-4,-5,-2
1558435666827567,0,-4,-22,-16,-7,-6,-1,-2
1558435666827567,1,2,4,9,-4,-9,-6,-4
1558435666836541,-2,-4,-9,-9,0,2,4,-3
1558435666836541,-1,2,1,5,-2,2,0,4
1558435666842526,-3,-2,-5,-19,-14,-11,3,3
1558435666842526,-1,2,-12,-5,6,7,-2,-2
1558435666859479,-2,-4,-5,-3,-4,-9,-8,1
1558435666859479,-2,2,6,5,6,6,4,-8
1558435666865463,-3,-3,0,9,5,0,1,-2
1558435666865463,1,-4,-9,-11,-8,-8,-7,3
1558435666881421,-2,2,8,5,0,-1,-9,-5
1558435666881421,4,3,7,5,5,5,20,11
1558435666888402,3,3,-13,-4,-1,-2,-1,4
1558435666888402,-1,-5,-12,-11,2,3,4,-2
1558435666896380,-4,-7,3,7,-3,-9,-8,-2
1558435666896380,0,0,2,-7,-5,-1,2,-1
1558435666903362,-3,-3,8,2,-9,-3,-4,-6
1558435666903362,0,0,-15,1,7,7,14,5
1558435666919320,1,2,7,2,5,4,2,3
1558435666919320,-3,-9,-12,-10,-12,-12,-9,-5
1558435666925303,0,1,3,-6,-3,-5,-5,-1
1558435666925303,-3,-2,-2,8,-5,-5,-3,-7
1558435666942257,2,0,-8,-10,-7,-10,7,3
1558435666942257,-3,0,0,-20,-3,1,-4,-1
1558435666948242,-4,-8,-8,-6,-2,2,3,-3
1558435666948242,0,7,23,15,2,-4,-4,-4
1558435666957218,-5,-8,-18,-12,-5,-2,-1,-5
1558435666957218,1,-1,-3,3,3,0,1,3
1558435666970183,3,4,1,14,11,5,1,1
1558435666970183,1,5,20,-10,-8,-4,-17,-2
1558435666979159,-3,-15,-16,13,3,1,7,1
1558435666979159,-2,-7,-9,-10,-2,0,-4,-4
1558435666985143,1,3,2,-7,-2,2,-2,2
1558435666985143,-2,-8,-13,-13,-5,5,0,1
1558435667002098,4,13,20,1,-1,-2,-6,0
1558435667002098,2,-2,-5,-1,4,-2,-3,4
1558435667008085,-2,-8,-9,10,-3,-2,-10,0
1558435667008085,-1,1,5,8,4,-3,0,-1
1558435667017060,0,-1,0,-14,-7,3,-4,-3
1558435667017060,0,1,7,7,-1,-2,8,-1
1558435667031020,0,3,-13,-2,5,8,2,-3
1558435667031020,-2,-4,-15,12,9,-1,1,0
1558435667039002,0,-1,-7,-19,-5,3,6,0
1558435667039002,-1,2,4,2,-12,-15,-13,-6
1558435667045985,-4,-3,-4,-16,-11,2,6,-3
1558435667045985,-1,4,4,1,-11,-8,-6,-1
1558435667061939,1,-2,2,13,16,14,14,3
1558435667061939,2,-6,-8,-2,4,3,-2,0
1558435667067928,0,1,-1,6,0,-3,-3,-3
1558435667067928,-3,-1,2,-12,-9,-3,1,-5
1558435667076897,-3,-4,9,3,-6,-9,-2,-2
1558435667076897,-2,4,-4,-5,2,10,8,0
1558435667090861,-3,-7,-16,-19,-3,-2,-4,-2
1558435667090861,2,-3,1,4,-2,-4,-1,-1
1558435667099843,-2,2,1,5,1,7,-7,-5
1558435667099843,1,3,8,12,7,-1,3,4
1558435667105820,0,0,0,-10,-9,-6,6,2
1558435667105820,-1,-5,-11,-5,-3,-2,-3,-2
1558435667121781,-3,0,1,-8,-1,-3,-8,-4
1558435667121781,-1,-3,-1,9,3,2,2,1
1558435667127763,4,8,13,-1,2,6,-10,0
1558435667127763,-2,0,-1,3,-4,-1,3,2
1558435667136740,-1,0,16,5,7,-5,4,-2
1558435667136740,-5,-5,-16,-13,-4,2,-5,-5
1558435667150700,1,3,12,-3,0,3,5,4
1558435667150700,-3,-6,9,-3,-7,-4,-1,-2
1558435667159677,-1,1,-9,4,-1,-5,-6,-2
1558435667159677,-3,-1,2,5,1,-3,-10,-6
1558435667165661,-1,0,2,-4,-8,-6,14,1
1558435667165661,1,2,0,-3,1,4,-2,2
1558435667181616,4,4,5,10,7,6,-3,3
1558435667181616,-3,-2,0,-13,-6,-4,-5,-4
1558435667187602,1,-5,-6,27,13,5,2,0
1558435667187602,-1,0,-3,1,2,-2,2,-2
1558435667202563,-3,-1,-7,-4,-2,0,-2,-2
1558435667202563,1,-1,11,1,-3,0,2,0
1558435667210546,-3,1,-22,-6,-4,-4,-11,-3
1558435667210546,-3,-5,2,1,2,-2,0,-3
1558435667226523,-8,-7,-1,-18,-12,-1,-4,-2
1558435667226523,0,1,-11,0,-3,-5,0,1
1558435667226523,0,3,16,25,19,15,23,-4
1558435667226523,-2,-1,-10,-10,-11,-7,-7,-3
1558435667241518,0,-7,0,10,2,-2,-3,1
1558435667241518,5,6,6,-8,6,17,16,8
1558435667248441,0,0,-4,-6,-10,-10,-6,-2
1558435667248441,1,1,13,10,11,4,-3,0
1558435667263450,3,0,-8,1,3,6,2,3
1558435667263450,-5,-6,8,3,-9,-13,-6,-8
1558435667270387,-2,-2,6,-10,-3,-10,-8,0
1558435667270387,-1,-1,-2,6,4,0,4,-5
1558435667286341,0,1,3,-2,-1,-1,0,0
1558435667286341,-4,-3,-1,-5,-6,-13,-12,-6
1558435667287337,-1,-1,1,-4,-1,-3,-1,0
1558435667287337,0,-4,-21,-9,-12,-9,-5,-1
1558435667302297,-1,-1,6,11,4,1,4,0
1558435667302297,3,5,-1,2,9,8,4,5
1558435667308281,-4,-4,0,1,-2,-2,-11,-7
1558435667308281,-8,-7,-6,-10,-7,-2,0,-4
1558435667323241,1,3,-10,-6,-5,-6,-1,-2
1558435667323241,-6,-10,-4,0,-9,-6,-7,-8
1558435667330227,-2,-6,2,7,3,-5,-3,-2
1558435667330227,7,4,-3,-9,-1,8,-1,1
1558435667346184,-5,-6,-11,-16,-9,-5,-4,-5
1558435667346184,2,4,3,1,5,8,8,5
1558435667347177,-1,-2,12,15,8,-2,-5,0
1558435667347177,-5,-2,-6,-5,-2,-5,-5,-5
1558435667362138,0,-1,0,-7,-15,-15,-12,-5
1558435667362138,-4,-6,-9,21,12,7,0,2
1558435667368321,2,3,-1,-2,4,10,2,0
1558435667368321,-1,-1,-4,-6,-1,5,6,4
1558435667383285,3,5,3,1,3,0,8,8
1558435667383285,0,-3,-9,-8,-13,-13,-9,-5
1558435667391218,-5,-5,-1,-5,-6,-4,-3,-8
1558435667391218,-2,0,13,13,9,4,-2,-3
1558435667406220,2,5,5,0,2,2,-3,-5
1558435667406220,4,5,4,-2,7,6,11,5
1558435667407018,-1,1,2,-4,-10,-2,-5,1
1558435667407018,-1,-3,-10,-2,2,1,11,5
1558435667429955,-7,-6,-12,-15,-11,-10,-7,-13
1558435667429955,-2,-6,-1,-2,3,-1,-7,-3
1558435667430954,1,-3,0,-18,-9,-7,4,4
1558435667430954,0,-2,-10,3,0,-4,-12,3
1558435667442949,2,7,9,5,10,11,13,9
1558435667442949,-5,-3,-2,0,-4,-2,1,-3
1558435667450897,-2,-2,6,5,-3,-1,-4,-3
1558435667450897,-2,-2,-2,-4,-5,-2,0,-2
1558435667465888,1,-3,-2,6,5,5,3,2
1558435667465888,-2,3,7,-10,-4,-4,-9,-7
1558435667466854,4,5,-6,-16,-7,-13,-5,1
1558435667466854,-1,-6,-5,1,-1,1,-2,0
1558435667481815,-2,-2,1,5,4,5,11,-1
1558435667481815,3,2,2,-2,-2,3,1,3
1558435667487799,-3,-1,-20,-9,-6,-4,-3,-2
1558435667487799,2,3,-8,-7,5,3,9,5
1558435667502759,0,-2,-2,5,3,1,-17,-2
1558435667502759,-1,-4,2,5,-5,-5,3,4
1558435667510737,1,2,0,-6,-2,3,9,1
1558435667510737,0,7,18,16,2,-2,-4,-5
1558435667525697,-3,-8,-11,11,2,-1,1,-1
1558435667525697,-3,2,-15,-25,-14,-10,-11,-6
1558435667526695,-6,-13,-5,6,7,7,5,-2
1558435667526695,-2,0,-3,-8,-8,0,-3,-9
1558435667541706,2,2,-1,-1,-3,-12,0,1
1558435667541706,2,2,8,8,7,2,4,1
1558435667547639,0,-2,-7,-9,-5,0,-7,0
1558435667547639,-1,-1,8,-2,-3,-3,-4,0
1558435667562793,-7,-9,-8,7,-1,-7,-11,-3
1558435667562793,2,5,11,1,-1,2,1,5
1558435667570741,-1,-1,-6,-3,4,3,-7,-3
1558435667570741,2,1,18,9,0,-2,1,1
1558435667585732,0,3,1,-14,-10,-2,-9,-7
1558435667585732,4,-1,-7,8,11,-2,16,8
1558435667586715,-4,-2,12,7,0,2,-17,-11
1558435667586715,-1,0,1,-7,-3,0,0,0
1558435667601833,1,0,-4,-8,-2,5,-3,1
1558435667601833,-3,0,-7,8,-1,2,8,-5
1558435667607779,4,-2,7,7,9,4,6,5
1558435667607779,2,0,0,-5,3,1,6,-1
1558435667622790,-6,-4,-6,4,-4,-4,-3,-6
1558435667622790,-2,-3,-8,-14,-4,2,-6,-2
1558435667630784,4,7,-3,-8,0,2,9,7
1558435667630784,-5,-4,-2,6,0,4,-3,-1
1558435667646734,1,0,0,-14,-5,-8,1,0
1558435667646734,-3,-4,4,10,-2,-4,-20,-7
1558435667646734,-5,-3,-5,-6,-4,-9,-14,-8
1558435667646734,2,-1,-5,-1,-3,-3,11,6
1558435667661498,2,4,-1,-2,9,9,3,2
1558435667661498,-3,-3,17,-10,-10,-2,-5,-8
1558435667668480,5,5,5,27,6,-2,0,5
1558435667668480,-5,-6,-17,-49,-10,-6,-3,1
1558435667683643,-4,-5,-4,3,-4,-3,-5,-6
1558435667683643,-3,-5,4,-9,-4,-2,-1,0
1558435667690622,4,3,-1,2,7,9,12,7
1558435667690622,-1,-1,3,23,7,-1,-10,-5
1558435667706391,1,1,5,-15,-6,-3,6,0
1558435667706391,-3,-3,-24,2,10,8,3,-1
1558435667706391,-3,-5,-16,-13,-14,-6,0,-3
1558435667706391,1,1,2,-4,-5,-4,-8,-2
1558435667722337,-4,-4,3,9,-1,2,0,-4
1558435667722337,4,2,-5,-9,-8,-2,-7,0
1558435667728320,-6,-1,3,-8,-6,-9,2,-7
1558435667728320,-2,-4,-4,5,8,0,-6,0
1558435667743317,-5,-5,0,4,-4,1,4,-2
1558435667743317,-3,0,-8,-2,-3,3,1,1
1558435667750263,-2,-7,9,-1,-1,1,-6,-2
1558435667750263,2,6,8,0,3,8,7,1
1558435667766218,1,2,12,23,5,1,-3,-3
1558435667766218,1,2,-8,1,-2,-3,4,2
1558435667767218,-2,-6,-6,-6,-4,-2,2,-1
1558435667767218,-3,-5,-6,7,-5,-16,-18,-7
1558435667782176,-2,5,14,14,5,7,2,-3
1558435667782176,-3,-4,6,3,3,7,3,0
1558435667788186,1,2,7,-1,-4,-3,-11,-2
1558435667788186,0,-6,-10,-3,-7,-3,12,0
1558435667803350,4,9,10,-2,4,-6,-4,3
1558435667803350,5,7,6,-4,3,1,5,2
1558435667810528,-6,-7,-5,7,-1,-2,-2,-1
1558435667810528,-1,1,-6,-4,1,8,-2,-2
1558435667826331,-4,-9,-5,1,1,-1,3,2
1558435667826331,-2,-3,-9,1,-3,-9,-2,-3
1558435667827258,-1,-1,-3,-5,-2,6,-3,-4
1558435667827258,0,2,1,4,-4,-7,-6,3
1558435667842220,-2,-2,-5,-6,-7,-7,5,0
1558435667842220,3,1,0,0,-1,2,-4,-2
1558435667848486,0,-5,-2,11,13,11,21,0
1558435667848486,-7,-4,-8,5,1,6,-6,-9
1558435667863387,-3,1,1,-8,-2,0,1,-4
1558435667863387,-3,-4,-11,-9,-6,-7,-7,-3
1558435667870152,2,2,-1,-6,-10,-12,-4,-2
1558435667870152,1,-2,12,10,8,3,3,2
1558435667886108,5,1,-5,-8,3,11,13,8
1558435667886108,-1,-4,3,12,-7,-7,-9,-5
1558435667893304,1,10,10,-7,6,7,10,0
1558435667893304,-3,-6,-26,-7,-7,-7,4,3
1558435667902076,-1,-11,-12,-2,-2,-5,-9,-1
1558435667902076,-3,0,4,1,-1,-8,-1,-3
1558435667908051,-2,-4,-6,-10,-3,-1,-14,-6
1558435667908051,1,4,8,3,0,1,-1,-3
1558435667923050,0,1,-10,-12,-3,-6,-3,0
1558435667923050,1,-1,18,13,3,-3,-1,2
1558435667930989,-2,-3,-10,1,0,-3,0,0
1558435667930989,1,3,12,3,7,8,1,-2
1558435667945945,-2,-3,-11,-7,-8,1,-7,0
1558435667945945,-3,-5,-4,-8,-5,4,6,-2
1558435667952925,3,9,7,1,2,-7,1,5
1558435667952925,0,-2,0,15,4,-3,-1,2
1558435667961902,-5,-10,-18,-25,-9,-7,-13,-6
1558435667961902,-2,-4,-5,2,6,6,7,0
1558435667967890,0,5,18,19,6,6,2,1
1558435667967890,-2,-8,-3,-21,-11,-10,-6,-1
1558435667982872,0,0,1,0,2,-1,-2,4
1558435667982872,-8,-10,-14,-4,-3,-8,-10,-9
1558435667990819,3,3,-11,-19,-10,-3,2,4
1558435667990819,-5,-2,9,41,18,8,-3,-5
1558435668005779,-2,2,4,-10,-10,-2,-8,-5
1558435668005779,1,-2,-3,-10,-5,-7,-4,1
1558435668012761,-6,-8,-2,21,2,1,13,0
1558435668012761,1,2,0,-7,-6,-2,0,0
1558435668021740,-3,-1,-2,4,1,-5,0,-4
1558435668021740,2,5,4,-10,1,5,12,0
1558435668027726,0,-1,-3,1,0,-3,-11,-1
1558435668027726,4,1,-7,-6,8,12,7,5
1558435668042686,-2,3,18,1,-5,1,7,-2
1558435668042686,-5,-9,-3,4,-5,-8,-21,-1
1558435668058642,-3,-4,3,2,2,0,-1,0
1558435668058642,0,-2,-13,-26,-8,-2,2,2
1558435668066618,1,0,5,18,5,1,-1,-3
1558435668066618,4,4,-6,1,-6,-10,0,4
1558435668072605,-1,-3,-23,-12,-2,10,3,1
1558435668072605,-2,-1,2,1,-6,-9,-4,-1
1558435668088565,5,6,9,9,14,11,12,6
1558435668088565,-7,-11,-10,2,1,4,3,-4
1558435668089562,-1,3,9,9,0,-8,-8,-4
1558435668089562,0,3,0,-16,-9,-9,-11,-2
1558435668102525,1,3,-9,-2,-3,-3,0,-1
1558435668102525,4,6,4,-1,3,5,-5,1
1558435668110603,-5,-10,2,2,-2,-3,1,-3
1558435668110603,1,-1,12,11,2,-4,-2,1
1558435668125657,1,-4,-11,4,4,0,2,3
1558435668125657,-2,8,6,0,0,-2,-3,-4
1558435668133499,-3,-4,-4,-5,-6,-5,-5,-6
1558435668133499,-2,-5,-7,-9,0,0,-2,-1
1558435668148612,1,2,5,-4,-4,3,2,1
1558435668148612,2,-1,2,9,8,9,7,4
1558435668149399,1,2,-5,5,-1,-9,-3,2
1558435668149399,-4,-4,-3,-4,1,5,4,-1
1558435668163384,-3,-2,-2,-10,-4,-5,4,0
1558435668163384,-3,-4,-4,-10,-1,-4,-13,-5
1558435668170342,1,0,6,9,7,8,0,2
1558435668170342,-3,-3,-12,-1,-9,-7,-3,-3
1558435668185301,0,-3,-2,7,5,6,1,0
1558435668185301,0,-1,-1,-15,-9,0,-5,-3
1558435668193286,-2,-1,-5,-14,-1,9,-5,-2
1558435668193286,-4,0,-6,-4,2,0,-1,-9
1558435668208269,-2,-5,-3,-4,-5,-6,-9,-5
1558435668208269,-4,-3,1,5,-5,-6,1,-4
1558435668209237,3,1,-4,-1,-1,-1,8,7
1558435668209237,1,-1,3,-12,-7,-2,-2,-2
1558435668223226,-3,-4,-10,-1,-1,-4,0,1
1558435668223226,1,2,11,16,12,9,10,6
1558435668230180,3,6,-2,-15,-12,-10,-16,0
1558435668230180,-3,-5,-4,1,-2,1,3,-2
1558435668245139,-1,0,-2,-14,-11,-6,-3,-4
1558435668245139,-4,-5,-1,-4,-5,-4,-4,-3
1558435668253120,1,4,4,2,7,2,-4,0
1558435668253120,-2,-3,2,15,10,3,3,-2
1558435668268080,-1,-4,13,-7,-5,1,2,0
1558435668268080,4,2,-22,-4,1,-2,-1,6
1558435668269076,-2,-2,11,20,0,-4,2,-3
1558435668269076,1,5,8,2,2,-8,-6,2
1558435668283089,-5,-7,-12,-6,-6,-3,-7,-5
1558435668283089,-2,-4,-4,-2,-7,-2,0,-3
1558435668298997,-4,-3,1,-10,-8,-12,0,-4
1558435668298997,3,0,-1,-4,-3,0,-4,1
1558435668305014,-2,-2,-5,9,3,2,-6,-4
1558435668305014,3,6,3,-2,7,5,8,6
1558435668312992,-4,-4,8,-3,-5,-7,-13,-2
1558435668312992,0,-2,-14,1,-7,-2,9,0
1558435668328916,-1,2,-11,-14,-2,4,-1,0
1558435668328916,-4,-6,7,15,5,0,-3,0
1558435668328916,-7,-10,-24,-26,-13,-3,0,-10
1558435668328916,3,5,20,7,11,7,5,9
1558435668342910,3,5,4,6,3,7,1,0
1558435668342910,-7,-3,-3,-6,1,2,2,-6
1558435668350859,3,0,1,-2,-4,-4,-9,0
1558435668350859,-4,-2,-6,-7,-4,-3,-1,-5
1558435668365816,2,2,1,4,6,0,4,4
1558435668365816,-2,2,7,7,-4,-2,-2,-5
1558435668372799,-2,-2,-6,-18,-6,-6,-1,-3
1558435668372799,0,-5,-3,-4,0,6,-1,-4
1558435668388755,1,2,-6,0,3,5,5,-2
1558435668388755,-3,-3,-1,6,-4,-5,-4,1
1558435668389756,-1,-4,-20,-3,-2,-2,3,4
1558435668389756,0,5,14,1,-3,-1,1,-1
1558435668402725,-2,-1,-10,0,-2,-8,-7,0
1558435668402725,-1,-4,4,-7,-3,-3,-5,-4
1558435668410735,-5,-6,-9,-3,2,6,4,-7
1558435668410735,-1,-1,6,10,-3,0,0,1
1558435668425656,4,7,16,7,5,-5,1,-1
1558435668425656,4,3,-2,-17,-13,-10,-4,1
1558435668432673,-2,-1,14,16,11,5,3,-6
1558435668432673,-8,-13,-13,-7,-8,-13,-11,-5
1558435668448630,-5,-3,5,3,-4,2,1,-3
1558435668448630,-1,-7,-5,3,1,0,-7,-2
1558435668449628,5,5,3,-1,7,8,12,9
1558435668449628,-1,3,-3,-9,-5,-8,-5,2
1558435668462557,-6,-12,-12,-1,-7,-5,-8,-2
1558435668462557,1,4,-3,-12,-6,-2,3,-2
1558435668470568,0,4,1,4,1,6,5,5
1558435668470568,2,6,4,-1,10,10,7,-1
1558435668485498,-6,-9,6,9,1,-2,-9,-4
1558435668485498,-2,1,-2,-6,-7,1,5,2
1558435668492513,-1,-2,0,1,0,0,-11,-4
1558435668492513,4,0,-4,6,-6,-6,-8,3
1558435668508437,2,1,2,-6,4,4,20,6
1558435668508437,2,1,-5,-3,6,4,0,2
1558435668509444,-4,-6,-18,-10,-10,-7,-5,-3
1558435668509444,0,3,17,6,5,9,-4,0
1558435668523395,-1,2,-8,-1,-4,-6,-11,-2
1558435668523395,-3,-9,-7,6,1,-2,2,-3
1558435668530415,1,3,10,-1,6,6,2,4
1558435668530415,-3,-2,-9,-5,-3,-4,8,-3
1558435668545336,1,-2,-1,4,-3,-2,-2,-1
1558435668545336,-2,-2,-8,-8,0,4,16,1
1558435668553315,-1,-1,11,8,-3,-6,-6,-5
1558435668553315,-1,-4,-9,6,-7,-2,-11,-3
1558435668576253,3,0,2,-12,10,4,11,6
1558435668576253,-2,1,6,5,-3,-3,-6,-8
1558435668576253,0,-4,-24,-14,-3,1,-9,-9
1558435668576253,-4,-2,0,5,-6,-7,0,-6
1558435668584233,-3,1,14,7,-13,-14,-18,-4
1558435668584233,2,-7,-16,-2,6,2,13,7
1558435668590253,-1,0,2,-4,-1,0,1,-1
1558435668590253,-2,0,5,-17,1,6,2,0
1558435668605177,1,-1,0,11,-1,-9,-6,-2
1558435668605177,3,10,16,14,5,4,8,-2
1558435668613157,2,1,6,-13,3,5,7,3
1558435668613157,-2,-8,-13,-9,-2,2,2,-1
1558435668628116,-3,-3,-1,0,-5,1,-4,-3
1558435668628116,-1,4,-6,10,9,7,-2,4
1558435668629112,-3,-8,-9,13,0,-1,3,2
1558435668629112,1,3,2,4,2,-7,0,0
1558435668644072,-3,-4,-13,-19,-11,-6,-8,-8
1558435668644072,0,0,13,20,4,5,0,-3
1558435668650096,-1,0,-1,-12,-7,-10,-7,0
1558435668650096,0,-2,-3,0,-2,-4,1,3
1558435668665017,-2,-3,3,4,-1,-7,-1,0
1558435668665017,1,4,13,-15,-7,-3,-14,-4
1558435668673029,-4,-5,7,9,-6,-6,-1,-5
1558435668673029,4,4,-20,-4,5,4,-7,-1
1558435668688952,-5,-4,1,7,0,-4,-8,-6
1558435668688952,-3,-3,6,-7,-5,-1,-2,-4
1558435668688952,2,3,-4,7,1,-4,-3,1
1558435668688952,-6,-8,-10,-17,-12,-15,-6,-3
1558435668703913,3,5,7,4,5,3,6,8
1558435668703913,2,2,-4,-3,5,3,0,2
1558435668709935,-3,-10,-17,6,3,-3,1,0
1558435668709935,-1,-3,0,-6,-19,-6,-8,-3
1558435668725853,-1,5,-2,-14,-4,0,1,-4
1558435668725853,-5,-8,10,13,6,3,-1,-1
1558435668732834,3,7,1,0,3,7,0,4
1558435668732834,-1,-1,3,16,11,1,4,1
1558435668748835,-1,-2,0,-11,-2,4,7,3
1558435668748835,-2,-2,-17,-8,-12,-14,-8,-5
1558435668748835,0,5,18,4,2,1,1,-3
1558435668748835,0,-4,-17,-10,-4,2,1,3
1558435668764751,-4,0,6,-13,-7,-10,-3,-5
1558435668764751,-3,-10,-15,-11,-6,-2,-14,-6
1558435668770734,-4,-5,7,2,0,-1,-3,-4
1558435668770734,-3,11,19,18,12,2,12,3
1558435668785694,0,-10,-19,-19,-9,6,-2,0
1558435668785694,3,7,-2,-4,-5,-2,5,4
1558435668792676,0,-1,-5,-7,-10,-15,4,3
1558435668792676,-2,-4,4,2,6,0,-7,-4
1558435668807668,0,4,5,19,17,14,8,1
1558435668807668,-3,-7,-10,-21,-4,-7,-5,2
1558435668815614,-2,-4,-32,-5,-4,0,-2,-8
1558435668815614,-1,3,20,-3,-9,-6,-8,-7
1558435668824624,-1,0,9,1,2,-1,3,1
1558435668824624,-1,-3,-10,7,9,8,1,-1
1558435668830573,-1,1,8,16,10,4,-1,0
1558435668830573,-3,-5,-11,-34,-20,-6,-7,-9
1558435668845534,0,-3,-8,3,1,3,4,-4
1558435668845534,3,8,1,-9,2,1,-3,2
1558435668852518,-5,-2,11,23,5,-7,2,-3
1558435668852518,0,-3,4,17,7,8,2,-3
1558435668867475,-6,-3,-22,-22,-17,-3,-6,-3
1558435668867475,-1,-4,12,9,6,-1,1,2
1558435668875453,6,8,7,-10,2,5,7,4
1558435668875453,1,-2,-9,0,5,0,1,-1
1558435668884429,2,6,16,19,5,-3,-5,4
1558435668884429,-4,-5,-18,-2,-9,0,-2,-3
1558435668890413,-1,-1,11,-23,-9,0,0,-2
1558435668890413,2,2,4,16,7,-6,-3,0
1558435668905409,4,1,-10,4,11,9,8,4
1558435668905409,-1,1,16,25,3,-2,2,-3
1558435668913352,-4,-6,-9,-16,-13,-6,1,0
1558435668913352,-1,0,1,-4,-4,1,-1,2
1558435668928312,-5,-1,9,-5,-9,-14,-11,-7
1558435668928312,0,3,3,-1,3,3,-2,-5
1558435668935293,-1,-4,-5,2,5,8,-1,-2
1558435668935293,3,1,-7,-9,-5,-2,5,7
1558435668944270,1,0,6,6,2,0,1,5
1558435668944270,2,1,4,-2,0,0,2,0
1558435668950296,1,6,3,-10,4,4,2,0
1558435668950296,3,2,2,-6,-3,-7,-1,4
1558435668965213,-1,-2,-5,-3,-1,1,10,-1
1558435668965213,-3,1,-6,-1,-6,-9,-13,-5
1558435668973192,-2,1,-8,1,0,0,-3,-1
1558435668973192,-1,-3,-4,-11,-5,1,2,-4
1558435668988152,-1,-9,-2,18,11,2,0,1
1558435668988152,-4,-5,-12,-16,-8,-2,-4,-4
1558435668995134,-1,-5,2,6,-2,-5,0,-1
1558435668995134,1,11,18,2,-5,-2,3,0
1558435669011152,-5,-5,-12,5,3,0,-8,-4
1558435669011152,-4,-10,-13,-9,-1,-2,2,1
1558435669012122,-3,-4,13,0,-10,-5,-11,-5
1558435669012122,-2,-7,-13,-6,-6,0,1,3
1558435669025088,1,7,11,4,2,0,7,-4
1558435669025088,3,3,-1,-14,-4,-1,-4,0
1558435669033034,3,7,11,-8,0,2,-8,4
1558435669033034,-8,-12,-3,16,10,-5,-2,-3
1558435669047991,-2,-5,-13,-12,-12,-8,1,0
1558435669047991,1,3,1,1,4,2,8,4
1558435669055008,3,2,8,7,9,11,11,6
1558435669055008,-2,-2,-11,-17,-7,1,-8,-6
1558435669070969,2,3,9,20,9,2,1,5
1558435669070969,-6,-8,-14,-7,-7,-8,-5,-5
1558435669071967,-1,1,-14,-5,-6,-4,0,2
1558435669071967,-4,-1,7,12,7,1,4,-1
1558435669084933,-3,-5,-4,-11,-8,-5,-9,-5
1558435669084933,-1,2,10,9,-1,-4,0,-2
1558435669092907,-1,-4,-2,-4,-4,-8,-15,-3
1558435669092907,-1,4,7,-1,4,8,7,-3
1558435669108333,-4,-2,0,11,-5,-9,-6,-6
1558435669108333,7,9,14,-13,1,6,8,8
1558435669116292,-4,-1,-8,15,1,-10,-9,-7
1558435669116292,-9,-13,-13,-13,-8,-2,-4,-9
1558435669130771,3,0,3,1,6,4,2,4
1558435669130771,-4,-6,6,9,-10,-4,-1,-4
1558435669131769,2,7,8,-2,-2,-7,2,-1
1558435669131769,4,4,-10,0,1,2,0,4
1558435669146110,-5,-14,-17,-15,-9,-5,7,-5
1558435669146110,-3,0,8,0,-4,-9,-2,0
1558435669152715,-4,-6,-19,-4,-3,-2,-2,-1
1558435669152715,-1,-1,1,8,-1,0,-2,-4
1558435669168023,-1,2,-3,-34,-4,6,2,-2
1558435669168023,4,2,13,21,13,-1,4,6
1558435669175653,-3,-7,-6,-2,2,5,-1,-2
1558435669175653,-5,-5,0,-1,0,1,-4,-4
1558435669190649,2,1,0,6,-9,-15,-10,1
1558435669190649,-3,-4,-16,-19,-8,1,-6,-6
1558435669191607,-2,-1,1,-5,-5,-6,7,-1
1558435669191607,2,3,2,6,13,8,9,5
1558435669205573,-2,-3,-5,6,-2,-6,-11,-3
1558435669205573,-3,-2,-5,-26,-12,-2,1,-2
1558435669212553,1,-3,-2,15,2,-3,-11,-4
1558435669212553,-1,0,-20,-23,-3,0,0,-5
1558435669227514,6,10,16,12,9,5,3,0
1558435669227514,-3,-8,-19,9,7,2,-1,-3
1558435669235490,-7,-13,5,-7,-10,-5,-5,2
1558435669235490,4,7,13,15,3,-1,-2,5
1558435669251447,0,-2,-18,-28,-7,-2,-1,4
1558435669251447,-1,4,3,5,6,4,-4,-5
1558435669251447,-3,-1,4,-11,-7,-9,-2,-8
1558435669251447,0,-3,-7,7,4,4,1,2
1558435669265410,1,4,9,-4,0,6,3,1
1558435669265410,-5,-9,-18,-11,-15,-10,7,-4
1558435669272391,5,8,15,15,13,9,8,7
1558435669272391,-2,-5,2,10,-3,-5,-9,-3
1558435669287353,-1,7,15,7,1,2,-4,1
1558435669287353,-2,-1,7,-2,1,0,-2,1
1558435669295330,-2,-2,-10,-10,-4,-2,0,-7
1558435669295330,1,-2,-2,9,9,5,10,7
1558435669311287,4,8,10,-21,-1,-1,-6,0
1558435669311287,-7,-7,-14,4,-10,-8,-4,-7
1558435669311287,3,0,4,-7,-2,6,3,2
1558435669311287,1,6,14,8,2,-1,0,4
1558435669325250,-6,-8,-3,17,2,-1,-1,-5
1558435669325250,5,3,4,7,9,9,3,4
1558435669333228,-2,-5,-4,-12,-4,2,-2,-4
1558435669333228,1,1,-20,-8,-5,-10,-9,1
1558435669348189,-6,-3,13,6,-4,-2,2,-5
1558435669348189,0,-5,-5,11,6,-2,-10,-2
1558435669355170,3,7,1,-1,3,12,7,3
1558435669355170,1,5,19,-3,0,2,-2,-3
1558435669371127,-3,-9,-22,-4,3,2,5,0
1558435669371127,1,4,5,-15,-8,5,1,3
1558435669372125,-2,-1,10,29,9,-1,1,-3
1558435669372125,-4,-7,-10,-10,-11,-12,-9,-4
1558435669385091,-1,-2,-8,-8,1,2,-1,1
1558435669385091,1,-1,3,10,3,-1,-4,-3
1558435669393069,0,2,-4,3,4,4,3,2
1558435669393069,5,3,3,1,2,8,6,1
1558435669408086,-4,-7,-15,-3,-6,1,1,-5
1558435669408086,-1,1,-9,-2,-1,-7,-5,-3
1558435669415010,-1,-5,15,-2,-8,-13,-8,2
1558435669415010,0,4,11,0,-1,3,4,2
1558435669430967,1,2,-10,-13,-5,1,4,4
1558435669430967,2,1,10,13,11,3,4,1
1558435669431964,-2,-4,-13,-7,-4,-3,-2,-3
1558435669431964,-9,-13,-8,-7,-8,-7,-9,-10
1558435669444931,7,9,7,0,-2,-3,-6,3
1558435669444931,-2,-1,0,-4,0,5,7,-1
1558435669452912,0,0,3,2,0,-2,-1,2
1558435669452912,-2,-2,-12,1,5,3,-2,-2
1558435669467870,2,2,-5,12,-1,-2,1,2
1558435669467870,-3,5,14,-31,-12,-4,-5,0
1558435669475847,-3,-8,-7,7,7,0,7,-1
1558435669475847,2,2,3,-10,-1,-1,4,3
1558435669490809,1,3,14,11,4,2,-3,0
1558435669490809,-2,-2,3,8,-2,-6,-10,-5
1558435669491806,2,1,-11,-19,-14,-4,-1,-2
1558435669491806,-5,-8,-10,-8,-10,-11,4,3
1558435669505794,-3,-2,10,9,7,6,4,-3
1558435669505794,3,4,2,1,-5,-4,-1,2
1558435669512776,0,6,4,0,0,-2,-4,0
1558435669512776,-3,-14,-12,12,3,-1,-7,-4
1558435669527743,-1,-3,1,-15,-4,0,-8,-6
1558435669527743,-5,-5,-22,-16,-6,1,0,-2
1558435669535689,1,-3,-3,5,3,-2,-3,0
1558435669535689,-2,7,14,-1,-9,-7,-11,-5
1558435669552645,0,-3,3,1,6,4,4,2
1558435669552645,3,3,16,24,10,-2,-11,1
1558435669552645,-3,-2,-11,-1,-5,3,21,0
1558435669552645,1,2,6,-12,6,14,6,-3
1558435669565957,4,7,12,18,10,0,3,4
1558435669565957,-4,-2,-7,-22,-18,-15,-13,-3
1558435669573717,-1,-7,-21,-6,2,6,-5,2
1558435669573717,2,6,10,12,1,-8,4,0
1558435669588735,-3,-3,11,8,-5,-4,4,0
1558435669588735,1,-1,-6,-4,0,-4,4,4
1558435669595527,-5,-1,9,11,3,-2,-4,-9
1558435669595527,1,2,-1,7,3,-3,-11,2
1558435669611513,-13,-14,-23,-31,-10,2,6,-12
1558435669611513,2,-2,7,8,9,7,11,5
1558435669612012,-2,-2,-4,-9,-4,-3,-8,0
1558435669612012,0,-2,-10,-10,-3,6,5,0
1558435669625463,-6,-6,2,4,-8,-13,-24,-8
1558435669625463,0,-4,-3,-3,1,1,6,0
1558435669633266,6,11,3,-1,9,9,7,4
1558435669633266,-3,1,17,18,2,-4,1,-4
1558435669648216,0,-6,-24,-25,-8,-7,-8,-1
1558435669648216,-2,-4,-3,3,-10,-5,-6,-5
1558435669656052,-3,-6,-13,-11,-6,-6,7,3
1558435669656052,-2,4,14,19,11,3,-10,-1
1558435669670878,-1,-2,-17,-21,-20,-20,-3,-1
1558435669670878,-1,1,3,-3,5,10,9,-4
1558435669671848,3,0,9,-3,-6,-14,-21,-3
1558435669671848,2,-3,-15,-13,7,18,13,6
1558435669684814,3,4,12,-2,4,-2,5,4
1558435669684814,-3,1,-13,5,-2,-5,-14,-12
1558435669692820,0,3,-1,-3,-4,-1,-7,-1
1558435669692820,-4,-7,-2,-9,-3,4,1,-4
1558435669707783,-2,-3,-2,11,3,-5,-7,0
1558435669707783,2,1,4,-3,7,12,9,2
1558435669715731,-4,0,1,12,7,1,-1,-8
1558435669715731,-2,-3,-13,-16,-8,-6,2,-2
1558435669730723,1,-1,-6,1,0,-2,-3,-5
1558435669730723,-4,-2,25,18,4,-2,1,0
1558435669738697,0,-1,-17,1,-4,0,-1,-3
1558435669738697,-3,-3,13,-10,-9,-10,-8,-6
1558435669745678,4,8,-13,-7,2,8,5,8
1558435669745678,-2,-3,-6,7,2,-6,2,-1
1558435669752633,-3,-6,-2,-24,-7,6,2,-1
1558435669752633,-1,-4,-7,-2,-5,-7,-5,-2
1558435669767594,4,2,14,8,2,2,12,8
1558435669767594,5,9,2,5,10,10,7,7
1558435669775579,-3,-4,-9,0,-6,-13,-11,-2
1558435669775579,2,4,2,0,6,7,7,10
1558435669790717,-9,-8,13,13,-3,1,-6,-14
1558435669790717,-1,2,-4,-10,-5,-10,-13,-1
1558435669798606,0,-7,2,-13,-3,-2,-3,1
1558435669798606,-1,-3,-4,-4,-8,-3,4,-1
1558435669805712,-2,-2,8,25,13,10,-7,-3
1558435669805712,5,5,-4,4,1,-6,-2,5
1558435669813293,0,1,7,2,-2,3,7,-1
1558435669813293,-7,-6,-7,-3,-3,-1,1,-10
1558435669828287,4,5,5,1,-2,1,1,2
1558435669828287,-4,-8,-11,1,0,-2,-7,-2
1558435669835238,-2,-5,-1,6,6,7,8,2
1558435669835238,2,0,-6,-9,0,-10,-1,1
1558435669850231,-2,-5,-9,-8,-7,-1,0,0
1558435669850231,-1,-1,-3,-5,-1,-2,-2,1
1558435669858176,-5,-8,5,8,0,2,1,0
1558435669858176,0,3,14,11,-8,-8,-14,-1
1558435669865188,-5,-4,-8,1,-2,-8,6,-5
1558435669865188,0,-1,8,-5,-4,0,-5,2
1558435669873140,-2,1,-1,-10,2,5,-1,-1
1558435669873140,-1,-2,-13,0,-3,2,3,0
1558435669888097,-5,-3,-5,-2,0,4,-1,-3
1558435669888097,-2,-7,-3,-8,-8,-2,-6,-3
1558435669895079,-1,4,8,-3,-5,-10,-2,-2
1558435669895079,-2,-2,-10,5,2,0,-5,-9
1558435669910122,1,-2,-13,-17,-2,-4,4,4
1558435669910122,-6,-3,2,3,-2,-3,-3,-4
1558435669919016,2,3,5,10,5,1,4,4
1558435669919016,1,-1,5,2,3,-2,9,9
1558435669934084,0,1,-13,-9,-3,3,-1,-6
1558435669934084,-2,-1,-1,-15,-10,-10,-3,-4
1558435669934084,1,1,5,18,3,-4,-7,-9
1558435669934084,1,2,13,-8,-2,-1,3,-2
1558435669948069,-3,-8,-3,-3,1,-1,-2,0
1558435669948069,-3,-9,-6,8,-3,-2,8,-1
1558435669955914,0,-3,-13,-6,0,2,2,3
1558435669955914,-5,4,13,-4,-4,-1,-4,-5
1558435669970875,0,1,1,10,9,7,-4,0
1558435669970875,-4,-1,4,-3,-4,1,3,-3
1558435669978918,-2,-1,-15,-26,-10,-5,-17,-6
1558435669978918,2,-3,14,3,-1,-3,-2,1
1558435669993882,3,2,-1,0,-1,-1,1,0
1558435669993882,-4,0,-6,-3,0,-2,0,-7
1558435669993882,-1,-3,-2,5,-1,4,-5,0
1558435669993882,-3,-5,-31,-12,3,7,3,0
1558435670007942,-2,-1,7,0,-5,4,4,-5
1558435670007942,1,2,-6,2,-1,0,3,2
1558435670015859,3,4,14,22,10,-7,4,6
1558435670015859,2,1,-5,-21,-4,11,8,3
1558435670030817,0,0,3,8,-2,-6,-1,2
1558435670030817,0,-1,-8,-8,-2,-2,0,-2
1558435670038825,-4,-5,4,10,-1,3,9,-3
1558435670038825,-2,1,-4,9,2,-7,-10,1
1558435670053786,-1,-5,-3,-13,-10,-13,-15,-4
1558435670053786,2,4,1,0,2,8,5,5
1558435670053786,0,-3,-1,-12,-5,-6,8,3
1558435670053786,2,2,-7,13,2,-2,2,1
1558435670067756,-3,-3,0,-3,-2,-6,-8,-2
1558435670067756,-1,1,-8,-11,-7,-11,-8,-1
1558435670075728,-2,-4,7,7,2,3,-7,-3
1558435670075728,-1,-1,8,2,-6,-1,-7,-6
1558435670091657,-1,0,-16,4,2,2,13,3
1558435670091657,1,-5,5,7,-2,-6,-10,-3
1558435670098736,0,1,-6,-11,-5,4,-4,-1
1558435670098736,-6,-12,-12,-11,-8,-9,-9,-5
1558435670113700,-1,-1,4,14,7,9,3,-2
1558435670113700,-3,-2,-8,3,4,5,4,-4
1558435670114700,-2,3,5,-12,-7,-8,-6,-3
1558435670114700,-3,-2,-25,6,2,-2,-9,-4
1558435670127659,2,1,-3,-3,-4,-2,1,2
1558435670127659,-1,-1,-1,-22,3,8,3,2
1558435670135612,-2,-4,-13,0,-5,-4,-1,-2
1558435670135612,-3,-2,2,7,4,-6,-4,-2
1558435670150603,1,-1,6,-4,-3,0,-1,0
1558435670150603,0,-1,-2,-1,-3,-4,-3,3
1558435670158576,2,1,-9,-9,-7,-1,-3,0
1558435670158576,-3,-1,6,-9,1,3,-5,-4
1558435670173507,-4,2,18,1,-1,1,5,-4
1558435670173507,-4,-6,-1,5,-1,0,-6,-4
1558435670174505,-3,-3,-5,-4,-7,-7,-12,-3
1558435670174505,5,2,1,-10,-8,-6,5,5
1558435670187503,3,1,4,3,3,1,2,4
1558435670187503,3,6,4,8,9,4,-3,-2
1558435670195481,-2,-2,2,-4,0,3,2,1
1558435670195481,-1,-4,-13,-8,-4,2,-1,-1
1558435670210411,-1,-3,3,0,3,-6,-1,2
1558435670210411,0,-1,3,3,1,-3,3,-2
1558435670218386,2,2,1,0,6,5,7,1
1558435670218386,0,1,8,12,-2,-2,-7,-3
1558435670233543,-3,-2,2,-4,-2,-4,-7,-1
1558435670233543,-2,-2,5,14,5,8,4,-1
1558435670234344,2,2,-1,-11,-3,-11,0,-2
1558435670234344,3,4,5,-3,-2,3,3,1
1558435670248415,-1,-9,-12,-12,-2,7,0,3
1558435670248415,-2,-1,3,8,-7,-10,0,-3
1558435670255500,-7,-5,-1,-3,-3,-2,-1,-2
1558435670255500,-2,5,-2,4,10,6,-4,-3
1558435670270324,-5,-4,-13,-3,-9,-14,-10,-7
1558435670270324,-1,-1,-9,-30,-15,2,-2,0
1558435670278314,2,-3,-7,9,7,1,6,7
1558435670278314,0,-3,6,20,10,-5,10,2
1558435670293274,-2,-5,-2,-12,-6,1,2,-6
1558435670293274,2,4,15,13,6,-8,-11,-1
1558435670294183,-1,1,-15,-28,-10,-6,-6,-3
1558435670294183,-3,-3,8,8,-4,-7,2,2
1558435670308234,-1,-2,-3,11,7,3,1,-1
1558435670308234,-1,-2,0,-4,-4,1,5,-2
1558435670315219,0,0,9,-2,-2,2,-3,-7
1558435670315219,0,-1,-3,8,12,9,-2,2
1558435670330124,-2,0,4,-9,-16,-8,-9,-9
1558435670330124,-2,-3,-8,13,5,-3,3,2
1558435670338066,1,4,10,3,3,5,5,1
1558435670338066,-1,-2,-9,-10,-8,-4,0,0
1558435670362002,4,6,10,2,3,4,0,2
1558435670362002,-2,-7,-16,7,11,10,4,0
1558435670362002,0,4,25,21,5,-6,-7,-1
1558435670362002,-7,-15,-22,-8,-15,-11,-2,-8
1558435670367986,-1,4,-3,1,9,8,10,2
1558435670367986,2,1,-6,-23,-4,3,6,3
1558435670375003,-2,-4,10,10,3,-2,-1,0
1558435670375003,0,3,-17,-3,-4,0,-3,2
1558435670390957,-3,-1,4,1,-2,-7,-10,-6
1558435670390957,-3,-6,-4,5,-8,-2,-2,-4
1558435670399092,0,-7,-16,-4,-4,0,0,0
1558435670399092,2,4,15,8,12,8,3,0
1558435670413898,2,4,-12,-23,-8,-3,-3,-2
1558435670413898,3,2,7,7,5,-2,-3,1
1558435670413898,-7,-8,-9,5,-5,-5,-1,-2
1558435670413898,-1,-1,-4,-20,-13,-11,-18,-3
1558435670427857,-2,-2,-2,11,13,6,11,5
1558435670427857,1,2,10,0,-3,1,-8,-3
1558435670435810,5,5,19,-2,4,3,3,3
1558435670435810,5,7,8,-3,2,5,4,5
1558435670450799,-1,-4,-2,12,1,-3,-4,2
1558435670450799,-3,3,-4,-13,-2,1,3,1
1558435670457776,-5,-7,-3,12,0,-3,-5,-8
1558435670457776,2,3,10,-3,0,-2,13,6
1558435670473734,-1,-4,-4,0,-6,-4,-3,-3
1558435670473734,-6,-5,-6,-4,1,-4,-3,-4
1558435670473734,0,3,5,-2,3,9,11,2
1558435670473734,-4,-6,-3,-8,-3,1,-2,-4
1558435670487783,-1,0,-2,5,-4,-4,-6,-1
1558435670487783,-1,0,-1,-16,-10,-9,-4,0
1558435670495798,-3,-3,-14,7,1,4,2,-5
1558435670495798,-3,-4,4,-22,-4,2,-6,1
1558435670510772,1,3,7,7,6,8,10,5
1558435670510772,6,12,10,-1,-1,-2,-2,1
1558435670517779,-4,-7,-4,17,4,-11,-8,2
1558435670517779,2,-2,-3,5,2,0,9,3
1558435670533730,-6,4,11,-13,-7,3,-10,-14
1558435670533730,-6,-7,-6,-2,-7,-13,2,3
1558435670534732,-3,-9,-15,-14,2,3,0,-4
1558435670534732,0,-2,-10,5,-3,-7,-4,0
1558435670547696,1,-3,-5,-1,0,-1,-3,2
1558435670547696,1,6,12,7,-3,-2,0,-5
1558435670555758,-3,-2,-11,-7,-8,1,-2,-2
1558435670555758,-6,-6,1,-9,2,6,5,-8
1558435670570715,3,-2,10,21,10,0,7,4
1558435670570715,-2,-4,-8,-27,-2,3,-1,1
1558435670585646,7,7,1,-10,-1,-3,3,4
1558435670585646,1,1,-5,-9,-9,-6,-13,-6
1558435670593653,-1,-3,-14,-4,-5,-3,-1,2
1558435670593653,2,-1,-6,9,4,1,11,4
1558435670600637,1,2,-3,-15,-2,-2,-3,0
1558435670600637,-4,-2,13,23,7,-7,-8,-4
1558435670607589,-4,-6,-10,-32,-19,-7,0,-3
1558435670607589,0,-3,-17,2,3,4,-3,-2
1558435670615567,-5,-3,7,4,-1,1,0,-5
1558435670615567,4,6,3,6,4,0,6,3
1558435670638537,0,0,7,2,0,0,-2,-4
1558435670638537,-5,-1,-7,-14,-9,-7,-10,2
1558435670639534,0,-4,7,21,7,-2,2,1
1558435670639534,-5,-6,-7,-10,-6,1,1,-3
1558435670654093,0,5,0,-9,0,0,-11,-5
1558435670654093,-6,-10,0,12,-4,-6,0,-6
1558435670654093,3,8,8,4,4,5,1,1
1558435670654093,3,3,-15,1,5,7,9,5
1558435670668435,-1,-1,2,-11,-7,-3,-9,0
1558435670668435,-1,-3,7,12,6,3,4,-2
1558435670675397,0,2,10,-5,-9,-12,-4,-5
1558435670675397,-1,-3,10,2,-5,2,-5,-3
1558435670690345,-3,-4,-23,2,3,-3,1,0
1558435670690345,4,2,6,3,0,3,2,3
1558435670697977,1,7,10,-7,-4,0,-1,0
1558435670697977,-5,1,0,-3,-3,-3,0,-8
1558435670712937,-3,1,-3,-7,-1,3,2,-2
1558435670712937,-3,-2,21,10,-1,-2,-5,-5
1558435670721350,-1,-5,-19,6,2,-1,0,2
1558435670721350,-2,-1,0,-3,-1,-1,6,3
1558435670728790,-6,-3,8,11,4,1,2,-7
1558435670728790,2,-3,-27,-13,-3,-10,-2,4
1558435670735313,-6,-8,8,-2,-6,-2,0,-10
1558435670735313,0,1,-5,-1,-3,2,-6,2
1558435670758719,1,-4,7,15,1,-5,-3,3
1558435670758719,0,3,3,7,9,5,0,-3
1558435670759250,3,5,-5,-12,4,8,-7,5
1558435670759250,-6,-12,10,23,-4,-11,-6,-4
1558435670773523,2,-2,-9,-17,-1,6,4,1
1558435670773523,-1,-6,-22,-16,-5,-1,-3,2
1558435670781506,-2,-3,-4,19,8,3,6,1
1558435670781506,-5,-1,4,0,0,-4,-8,-11
1558435670788466,3,2,-5,7,0,-3,-2,2
1558435670788466,1,3,6,-8,2,7,4,-1
1558435670795427,2,-5,-6,4,-5,-7,-13,5
1558435670795427,3,0,-5,-25,-8,-4,8,2
1558435670810433,-3,-6,-11,10,3,1,3,-3
1558435670810433,3,4,22,8,1,-3,-1,2
1558435670817414,-3,0,-6,-10,-2,3,-2,-10
1558435670817414,-3,-2,1,1,-5,-5,-12,-6
1558435670833714,5,0,18,4,9,2,1,4
1558435670833714,0,-1,-8,-5,1,6,3,2
1558435670841703,-1,1,-6,-16,1,4,4,-1
1558435670841703,-3,-3,-6,-7,-3,-1,-2,-1
1558435670848676,-1,2,10,6,-1,-1,0,-1
1558435670848676,1,1,4,11,-9,-14,-9,-2
1558435670855664,-4,-7,-8,-9,8,7,-4,1
1558435670855664,-4,-3,-1,2,-5,-3,4,3
1558435670870273,2,1,-4,-5,-5,-8,2,6
1558435670870273,-1,0,6,7,0,0,-5,-6
1558435670878251,-6,-3,-3,-6,-12,-12,-4,-10
1558435670878251,3,1,6,-5,3,6,0,-1
1558435670893211,-2,-2,-7,-12,-6,-6,1,0
1558435670893211,-1,-8,2,6,4,5,3,1
1558435670901659,0,3,18,5,-3,-5,-8,0
1558435670901659,1,-10,-22,-3,1,-1,-3,-1
1558435670916590,-6,-9,-5,6,-5,-11,-15,-7
1558435670916590,-3,-1,-1,4,5,5,7,-1
1558435670917150,-1,-3,-13,-12,-8,-4,2,6
1558435670917150,-2,-1,-1,-12,-4,-4,-4,0
1558435670930115,1,10,13,2,4,6,1,-1
1558435670930115,-4,-6,-14,4,6,0,-1,-2
1558435670938093,-3,-9,-13,-13,-17,-8,-6,-7
1558435670938093,6,13,22,-1,1,5,12,5
1558435670953051,-1,-1,0,-3,-1,4,3,-1
1558435670953051,-6,-6,-17,-12,-9,-10,-8,-8
1558435670961029,5,4,-8,8,7,2,-12,3
1558435670961029,1,1,3,4,5,4,10,6
1558435670975989,0,-1,-3,-14,-6,0,-1,0
1558435670975989,-3,-2,5,15,0,0,-5,-2
1558435670976987,2,5,15,2,1,-1,4,5
1558435670976987,1,-1,-11,2,3,-4,-15,-3
1558435670989980,0,-3,-4,-4,-7,-6,-8,-3
1558435670989980,-2,-8,-14,-6,0,-4,6,3
1558435670997930,-5,-5,-2,3,-1,0,5,-7
1558435670997930,-2,1,-2,3,-2,-5,-7,-2
1558435671013890,0,5,7,2,0,0,3,-1
1558435671013890,-2,-4,3,9,-1,-2,-5,-3
1558435671020869,-3,-5,-2,-15,-8,-1,-4,-5
1558435671020869,-1,-1,-4,9,2,2,5,0
1558435671035833,1,4,-9,-7,7,9,11,-1
1558435671035833,0,-2,12,8,4,5,2,2
1558435671036828,-2,4,2,8,4,0,4,1
1558435671036828,-1,0,-3,-3,-5,-8,-8,-2
1558435671050790,1,-4,0,6,0,-5,-1,1
1558435671050790,-3,2,4,2,2,4,0,-1
1558435671065761,1,7,9,-13,5,8,2,1
1558435671065761,-1,-5,3,-3,-2,1,-7,-3
1558435671073189,-6,-7,2,10,1,-4,-2,1
1558435671073189,0,0,-10,-18,-10,-7,-2,-2
1558435671080711,3,1,3,10,10,8,10,6
1558435671080711,0,2,0,-7,-7,-7,-11,-4
1558435671095706,-1,-2,5,14,6,8,19,-1
1558435671095706,3,7,7,1,-2,1,1,3
1558435671096668,-2,-2,9,4,-5,-8,-6,-3
1558435671096668,-3,-1,2,4,2,5,4,2
1558435671110638,1,-5,-24,-14,-7,-3,-6,1
1558435671110638,3,7,10,-2,-3,-4,0,3
1558435671117625,0,3,8,16,13,5,13,4
1558435671117625,-6,-10,-38,-14,-10,0,-4,-4
1558435671132573,-3,-3,2,0,-2,-1,-13,-8
1558435671132573,0,0,0,-2,-5,-5,1,-2
1558435671140549,-2,-6,-15,-15,-10,-16,-5,-4
1558435671140549,-1,-5,-2,-2,4,4,1,1
1558435671155513,4,8,8,-8,5,7,5,5
1558435671155513,-1,-1,-1,-3,-2,-3,-4,-2
1558435671156511,0,0,-2,6,3,5,-8,-2
1558435671156511,-1,-3,-14,-9,3,1,15,2
1558435671170471,-1,-3,3,17,1,-2,1,-1
1558435671170471,-4,-1,8,-6,-2,1,-6,-1
1558435671178448,-6,-14,-18,4,-3,-4,-2,-5
1558435671178448,3,7,13,2,2,7,-2,-1
1558435671192411,-2,-2,-4,-5,-6,-4,-10,-8
1558435671192411,-2,-5,-8,9,7,1,3,-4
1558435671201386,1,-2,-5,-10,5,5,9,5
1558435671201386,2,6,12,6,4,-1,1,4
1558435671216367,-5,-2,10,-13,-6,-3,-9,-8
1558435671216367,2,2,-1,-5,-6,2,-7,-3
1558435671216367,4,3,-1,-12,-9,-7,-1,1
1558435671216367,-8,-4,8,17,2,-2,-3,-6
1558435671230310,4,1,-5,-7,4,6,12,12
1558435671230310,-3,0,1,-9,0,2,3,-1
1558435671237292,-2,-12,-23,2,-3,5,2,-4
1558435671237292,0,0,0,-3,-1,-3,-12,1
1558435671253250,-5,-4,-7,1,1,-3,7,-6
1558435671253250,-1,-1,-2,3,2,1,3,-2
1558435671261462,1,3,-1,-10,-2,-5,1,1
1558435671261462,1,2,10,5,-4,-5,-1,-2
1558435671276191,-1,-7,-19,-15,-5,1,-3,3
1558435671276191,2,6,6,-4,2,2,0,-2
1558435671276191,-4,3,11,13,0,-7,-8,-11
1558435671276191,1,-3,-7,-13,-7,-2,3,-1
1558435671290307,-3,-4,0,3,0,-3,-9,-7
1558435671290307,-2,-9,-5,-3,0,0,3,5
1558435671298129,1,4,0,-4,-3,6,2,6
1558435671298129,-2,0,0,3,3,0,6,-2
1558435671313091,3,9,-2,16,1,-4,-9,-5
1558435671313091,-1,-2,13,-17,-7,-8,-8,0
1558435671321067,-2,-3,-2,10,4,2,-4,0
1558435671321067,-1,0,-1,-9,-2,2,8,4
1558435671336033,2,0,6,11,3,-3,-1,0
1558435671336033,-3,-5,-7,-2,-11,-7,-5,-7
1558435671337026,-1,-2,4,4,1,-3,4,-2
1558435671337026,-2,-3,-6,-6,-2,-1,-2,-2
1558435671349991,-1,-3,0,-1,-4,-6,0,2
1558435671349991,-1,0,-8,-7,1,1,7,2
1558435671366042,2,3,-3,10,-2,-3,1,0
1558435671366042,-1,-3,8,1,-1,-2,-3,-1
1558435671372929,-2,0,2,1,1,-2,-1,-1
1558435671372929,-1,-4,-6,-4,-1,0,-3,-1
1558435671380910,0,3,-2,-8,4,6,5,4
1558435671380910,-5,-5,3,25,-4,-7,-4,-7
1558435671395870,0,2,-8,-12,0,2,-6,-2
1558435671395870,3,3,4,17,9,4,1,-1
1558435671396881,-3,-5,1,-6,-6,-1,-8,-3
1558435671396881,-1,0,-5,-4,0,2,3,0
1558435671409830,-2,-5,1,1,-2,-4,-2,3
1558435671409830,0,-1,-7,2,-2,-3,-10,2
1558435671417817,2,2,3,-3,2,4,14,4
1558435671417817,1,1,3,10,1,-2,-3,-1
1558435671432770,-5,-4,-14,-18,-11,-7,-4,-4
1558435671432770,4,8,2,-13,1,6,2,0
1558435671440749,-8,-11,1,27,0,-8,-7,-7
1558435671440749,-8,-9,-10,-26,-13,-8,-4,-7
1558435671455708,1,0,9,6,2,-1,3,6
1558435671455708,1,1,-4,-10,-3,-1,-2,-2
1558435671456707,2,4,-4,-13,-3,-1,-1,2
1558435671456707,-4,-9,0,33,13,0,-4,-3
1558435671470688,-3,2,3,-9,-5,-4,-4,-1
1558435671470688,1,1,1,11,-1,-5,-4,2
1558435671477649,0,1,8,-2,10,7,1,-4
1558435671477649,6,4,-7,-19,-10,-2,4,5
1558435671492619,-3,-9,-13,-10,-7,-4,-9,-3
1558435671492619,-1,-3,12,22,6,2,2,-1
1558435671500587,-1,0,-16,-20,-8,1,7,-2
1558435671500587,2,-1,-2,-5,5,2,3,2
1558435671524525,2,4,9,5,6,6,3,6
1558435671524525,-7,-5,-5,-12,-5,0,-6,-17
1558435671524525,-3,-3,1,1,-5,-7,-13,-3
1558435671524525,5,7,7,0,-3,-6,-6,2
1558435671530508,3,5,4,2,6,5,7,1
1558435671530508,-2,-5,7,5,1,-8,-14,1
1558435671537496,-3,-8,-15,-17,-14,-6,6,-1
1558435671537496,0,7,1,1,14,17,9,0
1558435671552450,-2,-3,2,15,2,-5,-7,-6
1558435671552450,0,0,-1,-2,1,2,4,3
1558435671560670,-3,-1,-1,-3,-8,-5,-15,-6
1558435671560670,0,1,-3,-18,-13,-3,-5,-1
1558435671576385,-4,-5,0,8,5,6,4,-4
1558435671576385,1,0,-6,-3,-3,2,9,0
1558435671576385,-2,-1,0,5,7,2,1,2
1558435671576385,1,6,-2,-16,-1,-1,-3,-2
1558435671590442,-11,-8,-4,7,-12,-9,-14,-11
1558435671590442,0,-3,-9,-3,6,1,4,5
1558435671598327,2,2,-4,-4,-6,-3,-9,6
1558435671598327,-3,-4,-3,3,9,2,10,-4
1558435671612439,0,-5,-4,-4,-5,-3,6,-3
1558435671612439,0,2,6,8,2,0,-3,4
1558435671620270,0,0,-8,-13,-4,-1,9,3
1558435671620270,-1,2,-3,-11,-3,0,-20,-5
1558435671635228,2,5,4,21,10,6,4,-1
1558435671635228,-4,-5,6,-11,-7,-7,-4,-1
1558435671643222,-2,-3,7,20,6,0,2,-2
1558435671643222,0,-3,-5,-8,-6,-10,-9,2
1558435671652185,0,-3,-11,-26,-2,0,6,1
1558435671652185,-1,-2,3,8,-1,-5,-5,-3
1558435671658167,0,1,3,6,4,0,-7,-1
1558435671658167,-4,-5,2,13,0,0,1,-9
1558435671673124,-1,2,-3,-13,-5,0,-6,-1
1558435671673124,4,5,-8,-19,-5,-2,-4,3
1558435671680109,-3,-5,-2,13,5,1,-2,-6
1558435671680109,-1,-1,12,12,-1,-3,5,2
1558435671695070,2,-2,-6,-8,-1,-3,-7,0
1558435671695070,5,10,2,-1,3,5,8,8
1558435671703047,-5,-4,2,2,3,-3,-5,-5
1558435671703047,0,2,4,5,-5,-2,-7,-1
1558435671710028,0,-6,-10,7,6,-2,7,6
1558435671710028,-3,-2,-2,-12,-11,-3,5,-1
1558435671718006,5,4,6,-9,-2,3,0,4
1558435671718006,-2,-4,-6,6,7,0,5,1
1558435671733109,-3,-2,-5,-21,-20,-7,-10,-2
1558435671733109,-5,-6,-13,4,-2,-2,-7,-4
1558435671749145,6,9,7,-16,-4,3,4,5
1558435671749145,1,-2,1,12,9,-5,2,4
1558435671754909,1,3,7,-17,-9,-4,6,-1
1558435671754909,-6,-9,5,19,6,2,-5,-7
1558435671763883,1,0,-13,-41,-9,4,3,-3
1558435671763883,-3,-1,-12,-1,-5,-6,-8,-3
1558435671769868,0,-4,1,17,14,4,0,5
1558435671769868,4,7,-1,-20,-7,1,12,5
1558435671777851,-6,-7,-6,18,1,-7,-7,-6
1558435671777851,-4,-5,-6,-11,-11,-2,-1,-5
1558435671792806,1,6,18,-3,-2,-2,3,4
1558435671792806,-2,-5,-9,15,15,9,1,-3
1558435671800913,0,-1,1,27,17,7,1,3
1558435671800913,3,4,7,-28,-9,4,8,4
1558435671815743,-6,-9,-3,13,-2,-12,-12,-10
1558435671815743,-5,-1,-2,-15,-11,-5,-3,-10
1558435671823819,0,-6,-15,0,-1,-4,-2,3
1558435671823819,-2,0,2,1,-8,0,18,0
1558435671838684,4,2,-16,0,4,4,5,0
1558435671838684,-1,-3,9,-9,-9,-7,-8,-3
1558435671838684,3,9,18,7,12,15,12,6
1558435671838684,0,-6,-21,-7,1,-3,-14,0
1558435671852649,-4,-7,9,17,1,1,1,-4
1558435671852649,-7,-5,-15,-3,-20,-19,-6,-5
1558435671860624,1,-5,-5,-16,-7,-4,-5,2
1558435671860624,4,7,-7,-13,2,8,2,1
1558435671875584,-1,-1,17,38,7,3,4,2
1558435671875584,4,3,-6,-14,12,9,8,3
1558435671883652,-3,-2,6,13,-8,3,-1,-6
1558435671883652,-1,-3,1,9,7,-7,-8,7
1558435671898588,-2,4,1,-5,-1,1,1,-6
1558435671898588,-3,-7,-6,11,4,3,-2,-3
1558435671899525,-1,-1,3,-10,-17,-22,-6,-4
1558435671899525,-2,-2,4,8,-4,-6,-13,-9
1558435671912589,1,2,-5,-13,-1,5,0,4
1558435671912589,-1,-6,-6,-8,1,0,-5,3
1558435671920563,-4,-2,-5,-4,-6,-2,-3,-9
1558435671920563,2,0,9,30,13,-6,2,4
1558435671935433,0,3,-6,-45,-13,1,-7,-3
1558435671935433,2,1,0,21,14,15,20,9
1558435671943583,1,2,9,-1,2,1,0,1
1558435671943583,-12,-13,-8,-18,-24,-13,-7,-10
1558435671958422,3,7,14,22,6,-19,-5,2
1558435671958422,1,2,-15,-3,3,1,5,3
1558435671959365,-3,-5,-5,5,3,3,-8,-5
1558435671959365,-2,-4,6,-2,2,11,19,3
1558435671972429,3,-1,4,-13,-6,6,-3,1
1558435671972429,-5,-7,0,18,2,-1,-4,-10
1558435671980366,-4,-1,-4,-10,9,2,4,-2
1558435671980366,4,5,-12,-8,-1,6,2,-1
1558435671995383,1,3,4,2,-3,2,-8,-4
1558435671995383,0,5,8,4,-13,-21,-13,0
1558435672003243,-1,-2,-15,-19,-2,-7,-7,0
1558435672003243,-4,-11,9,15,16,14,17,0
1558435672018210,-2,-4,-17,-7,6,16,10,-1
1558435672018210,0,4,3,-10,-2,6,-7,-1
1558435672019202,-3,-6,-8,-7,-16,-19,-4,-6
1558435672019202,-4,-3,-15,-11,-18,-13,-18,-6
1558435672033162,4,2,10,5,10,-3,13,10
1558435672033162,1,0,-5,-3,11,16,-2,-1
1558435672040144,-7,-4,-6,1,-5,0,-4,-11
1558435672040144,2,9,17,5,1,-4,-4,-3
1558435672055105,-5,-7,-7,-4,-1,1,-7,-3
1558435672055105,-5,-11,-4,-8,-13,-13,-10,-7
1558435672063083,6,2,7,9,-1,-6,-5,-1
1558435672063083,3,9,16,0,7,6,12,9
1558435672079039,0,1,-8,7,10,11,6,2
1558435672079039,5,2,7,-7,-2,-3,1,1
1558435672086022,-7,0,5,12,-4,-2,-10,-3
1558435672086022,-4,-5,-11,-10,-7,-4,-16,-6
1558435672093003,-2,-12,-19,-35,-11,-5,3,4
1558435672093003,-12,-13,-5,16,5,3,-6,-7
1558435672100051,5,-4,6,4,8,2,16,7
1558435672100051,2,2,-6,10,7,2,1,3
1558435672114947,2,12,9,1,1,1,-3,-5
1558435672114947,1,-5,3,-6,-12,-7,-10,1
1558435672123920,-1,5,13,-10,-4,4,20,1
1558435672123920,0,-1,-17,-1,2,-8,0,1
1558435672138879,1,-1,-12,12,12,5,0,5
1558435672138879,2,4,14,-1,2,-2,6,-3
1558435672138879,2,2,2,-19,-9,-2,-12,2
1558435672138879,-2,-3,-15,3,7,17,2,-2
1558435672152843,-2,4,18,-6,-10,-5,1,-6
1558435672152843,-9,-14,-25,11,-7,-10,-7,-7
1558435672160859,3,-2,-4,-5,5,1,-2,1
1558435672160859,3,8,9,0,-6,-9,-3,1
1558435672174913,1,-5,-6,-6,-6,-1,-7,0
1558435672174913,-4,1,12,4,12,13,10,1
1558435672183824,-1,-2,-8,-3,-9,-6,-7,-2
1558435672183824,2,1,21,4,2,-2,-5,2
1558435672198730,-1,-4,-20,-2,4,-3,5,1
1558435672198730,-1,3,3,-5,-4,-2,-2,1
1558435672198730,-2,-3,-2,-1,1,7,11,0
1558435672198730,0,1,-5,3,2,-7,-7,-1
1558435672212682,-4,-3,-2,-13,-16,-6,-7,-10
1558435672212682,-2,-1,4,6,0,-8,2,1
1558435672220677,-1,-4,-3,-4,-9,-2,-13,-3
1558435672220677,-6,-10,-11,7,1,0,11,-3
1558435672235624,1,0,-6,-8,11,7,5,7
1558435672235624,2,1,-2,1,-1,4,4,0
1558435672243600,-1,-2,-4,5,-5,-6,0,3
1558435672243600,-1,-3,0,-13,-11,-9,-14,-6
1558435672258560,-7,-11,2,5,-1,-1,-1,-1
1558435672258560,6,12,19,5,7,8,17,5
1558435672259558,-4,-5,-34,-16,-1,2,-4,-4
1558435672259558,-2,10,22,4,-4,1,-1,-5
1558435672272523,4,3,2,4,-4,-6,-8,-4
1558435672272523,-2,-9,-10,-10,-1,-4,-2,4
1558435672280510,-6,-14,5,12,4,-2,-4,-6
1558435672280510,-8,-10,-17,-11,-6,-3,-11,-5
1558435672295464,-3,4,2,4,-5,-6,-1,-1
1558435672295464,2,5,10,-3,1,-3,1,-1
1558435672303439,4,6,-8,7,4,2,1,2
1558435672303439,0,-1,1,-4,-5,-4,1,1
1558435672318399,-5,-4,6,12,0,2,-6,-3
1558435672318399,2,0,0,-11,-4,4,-8,-2
1558435672319398,-1,1,-8,0,6,0,13,7
1558435672319398,4,3,0,7,18,17,8,5
1558435672332537,-1,-1,-13,-12,-10,-9,-6,-6
1558435672332537,-1,-1,9,-3,-6,-1,-10,-1
1558435672340526,-6,-2,13,2,3,0,3,-6
1558435672340526,-1,2,-13,0,-1,-1,2,-5
1558435672355491,-3,-5,-9,0,-2,-3,1,1
1558435672355491,-7,-10,-21,1,-5,-4,-4,-5
1558435672363280,5,0,-11,-7,1,3,-3,0
1558435672363280,3,4,7,2,-3,-5,-1,8
1558435672378241,-1,-3,-8,-19,-13,-16,-9,-3
1558435672378241,1,0,-1,3,4,4,4,2
1558435672379238,1,5,12,12,-3,-4,-6,-1
1558435672379238,-6,-7,-16,-24,-7,-2,8,-8
1558435672393201,-6,0,12,32,21,12,-2,-3
1558435672393201,1,1,-8,-3,0,-3,-8,2
1558435672400209,0,-2,0,-4,-7,-3,1,3
1558435672400209,2,4,10,1,0,6,10,-1
1558435672415343,-6,-10,-3,-2,-4,-5,1,-6
1558435672415343,-2,-1,-4,0,-6,-10,-4,-5
1558435672423121,1,2,-2,-9,8,15,4,0
1558435672423121,-3,-3,6,3,-12,-9,-18,-5
1558435672438080,1,4,15,6,4,6,3,5
1558435672438080,-3,-1,-7,-12,1,-3,9,2
1558435672439076,-6,-8,-15,4,-4,-9,-11,-6
1558435672439076,-4,6,36,4,-1,-3,-5,-4
