timestamp,emg1,emg2,emg3,emg4,emg5,emg6,emg7,emg8
1558438701895783,9,5,-3,2,-4,-7,-24,-31
1558438701895783,-1,-1,0,-1,-2,-3,-21,7
1558438701896780,-1,-2,-1,-4,-1,3,41,6
1558438701896780,5,4,-2,3,0,-2,-2,4
1558438701897778,-3,-1,-1,-3,-1,0,-1,-9
1558438701897778,2,2,0,-5,0,0,7,2
1558438701900770,-2,-1,-1,0,-1,-3,-14,-7
1558438701900770,-2,-2,1,-1,-2,0,0,-2
1558438701907750,-3,-3,2,-3,-1,-1,0,16
1558438701907750,26,8,2,-2,1,5,14,23
1558438701916726,-35,-11,-7,3,-4,-5,0,-33
1558438701916726,-13,-8,-4,1,-3,-6,-21,-25
1558438701923707,-19,-7,-3,-4,-3,-4,-14,-23
1558438701923707,2,1,2,1,0,1,-8,-19
1558438701938667,20,8,0,-3,-3,0,21,47
1558438701938667,20,10,0,-2,0,2,3,9
1558438701946645,-16,-7,-3,0,1,1,10,8
1558438701946645,-16,-18,-8,0,-2,-2,-1,-4
1558438701952630,-5,-3,0,-2,-2,-4,-20,-10
1558438701952630,-1,2,-1,2,0,-1,-6,-11
1558438701967590,16,8,3,0,1,2,11,16
1558438701967590,-4,3,3,-2,-1,-3,0,-8
1558438701976565,6,0,0,-1,2,-1,-13,-6
1558438701976565,0,-4,1,0,-1,1,7,7
1558438702015462,-9,0,0,-4,-1,-1,1,-2
1558438702015462,8,3,0,-7,1,-2,-1,12
1558438702016460,-1,-4,0,2,0,1,-12,-30
1558438702016460,-23,-13,-9,2,-2,-2,23,24
1558438702017457,-11,-4,1,-1,-3,-3,-10,-10
1558438702017457,9,2,-1,-2,-1,1,2,9
1558438702028427,18,6,2,-4,-1,-6,-2,13
1558438702028427,15,6,1,0,-2,3,10,2
1558438702030422,2,16,8,0,1,2,-4,-16
1558438702030422,-41,-31,-22,-3,-6,-7,-5,-39
1558438702035408,-3,-13,-8,-3,-3,-6,-16,-2
1558438702035408,1,1,-2,-8,-7,-6,-19,-16
1558438702043386,3,-10,-9,-1,-2,-2,15,31
1558438702043386,23,20,12,0,2,3,-7,4
1558438702058356,-3,2,2,1,0,1,-2,-6
1558438702058356,-4,-4,-1,2,0,-1,3,5
1558438702065328,17,13,4,0,1,3,2,16
1558438702065328,-4,-5,2,-1,0,-3,-5,-17
1558438702072310,-21,-11,-9,-1,-2,-4,8,19
1558438702072310,-4,3,3,5,1,1,-5,-12
1558438702087269,-1,-5,-5,-3,0,0,-8,-9
1558438702087269,10,3,5,-2,1,2,6,21
1558438702095249,6,13,4,-3,-4,2,14,13
1558438702095249,0,-3,-20,-9,-3,-3,-5,11
1558438702104224,-5,-10,11,1,-1,-1,-9,-8
1558438702104224,0,-3,-9,4,1,-1,-1,-5
1558438702118187,-13,-6,-10,2,0,1,-6,-28
1558438702118187,-4,-4,7,-2,0,-3,0,5
1558438702125169,2,0,-8,-5,-1,1,5,4
1558438702125169,-4,4,12,1,-2,0,0,0
1558438702132150,13,10,8,-1,2,2,2,8
1558438702132150,5,2,-1,0,2,3,1,-1
1558438702147124,0,2,5,2,-1,-2,1,-1
1558438702147124,3,1,1,-1,-2,0,-5,0
1558438702155089,-3,-4,-4,-3,0,0,1,1
1558438702155089,-2,-1,2,0,0,-2,-7,-8
1558438702164065,-10,-6,-9,-1,-3,-3,-4,-10
1558438702164065,-3,-2,-5,-2,0,-1,3,3
1558438702178028,-5,-5,-5,0,0,0,-1,-2
1558438702178028,-2,-1,4,1,0,1,-5,-11
1558438702185008,3,1,-1,-2,-3,-3,2,-3
1558438702185008,-4,-2,-4,-1,-1,1,2,0
1558438702192987,2,1,5,-4,-6,-4,-1,0
1558438702192987,2,2,1,1,-5,-4,-5,-4
1558438702207947,-1,-4,-2,3,9,2,1,1
1558438702207947,-3,-1,2,3,3,-2,-2,-3
1558438702214928,-5,-1,4,1,-10,-6,-6,-6
1558438702214928,-4,-7,-9,-7,-13,-4,0,-4
1558438702223905,3,1,2,-1,24,22,8,3
1558438702223905,-3,0,-2,7,15,2,3,0
1558438702237866,2,-1,-3,-7,-3,-4,-2,3
1558438702237866,0,-2,-1,-4,-4,-4,-6,-5
1558438702244849,-2,-1,1,-5,-28,-15,-8,-5
1558438702244849,12,20,25,33,4,4,3,5
1558438702252828,11,9,-3,-13,-15,-4,7,6
1558438702252828,16,12,16,22,9,10,10,10
1558438702267789,-31,-30,-35,-41,16,17,-4,-13
1558438702267789,-18,-18,-14,-35,4,-4,-3,-7
1558438702276763,-13,-22,-4,23,25,7,-3,-4
1558438702276763,-22,-12,-26,-16,-36,-21,-14,-13
1558438702283747,8,-9,8,5,-42,-19,-10,-2
1558438702283747,6,8,9,24,18,0,3,6
1558438702297707,10,13,14,11,13,2,10,8
1558438702297707,6,2,4,3,3,20,1,-3
1558438702304688,1,8,-10,-7,1,-15,-7,-3
1558438702304688,-3,-4,-18,-26,-14,1,0,1
1558438702312667,8,10,13,17,25,12,11,9
1558438702312667,-2,-3,3,10,15,-4,-1,0
1558438702327626,-3,6,14,12,-27,-11,-10,-9
1558438702327626,-4,-1,7,27,-41,-34,-25,-15
1558438702334610,-17,-23,-41,-68,-52,-44,-18,-15
1558438702334610,2,4,-5,-14,36,31,17,7
1558438702343584,9,17,29,40,57,40,15,11
1558438702343584,-8,-21,-38,-50,-33,-3,-6,-5
1558438702358546,-1,5,8,15,-14,-1,-5,-6
1558438702358546,0,-7,10,10,4,-18,1,4
1558438702364528,9,11,13,47,52,39,19,12
1558438702364528,0,1,2,11,35,10,7,1
1558438702380485,-9,-8,-32,-46,-41,-39,-20,-9
1558438702380485,0,1,6,-11,-3,-11,-6,-6
1558438702387466,10,11,15,18,-16,21,11,9
1558438702387466,5,9,23,4,-16,-1,-11,-5
1558438702394448,-11,-15,-14,7,41,17,9,1
1558438702394448,2,4,6,16,20,11,7,5
1558438702403423,0,1,6,-1,24,-8,-3,1
1558438702403423,1,1,-12,-14,-27,2,7,5
1558438702418384,-1,-1,12,3,21,5,-1,-1
1558438702418384,0,-5,-14,-4,-27,-19,-7,2
1558438702425366,-6,-5,-8,-35,-45,-28,-15,-8
1558438702425366,-2,1,-3,10,4,-11,4,-9
1558438702440326,3,4,20,37,-4,-3,-1,2
1558438702440326,6,4,-5,-21,7,22,2,0
1558438702447313,-4,-8,-28,-17,-45,-28,-6,-5
1558438702447313,-4,-7,-9,-28,-23,-17,-21,-1
1558438702455285,-1,3,-1,16,29,30,12,1
1558438702455285,-2,-4,14,21,42,25,16,0
1558438702464273,4,6,7,1,19,-7,-10,1
1558438702464273,-4,-6,-5,6,-2,-11,-13,-3
1558438702478224,3,4,8,-1,-27,1,5,2
1558438702478224,-4,-2,-4,-13,-14,-7,-14,-9
1558438702485206,-1,-6,-12,-28,-4,-9,-1,-6
1558438702485206,-1,-1,-2,12,30,21,21,14
1558438702500165,0,2,13,15,7,6,-11,5
1558438702500165,-4,-3,-7,-3,-21,-16,-7,-17
1558438702507147,-6,-9,-26,-37,-30,-16,0,2
1558438702507147,0,4,9,2,18,11,-10,-16
1558438702516123,3,3,6,1,11,10,-8,-9
1558438702516123,3,2,6,8,-12,-20,19,22
1558438702524101,2,1,3,11,11,7,-1,7
1558438702524101,-5,-5,-14,-15,-4,-4,-19,-39
1558438702537068,-5,-1,-6,0,5,11,35,18
1558438702537068,-4,-3,-2,-18,-28,-14,-30,-15
1558438702546043,-3,-3,3,8,-4,-8,-2,-1
1558438702546043,6,-1,6,-2,18,16,14,30
1558438702561001,-4,-5,-6,-7,1,-3,-9,-31
1558438702561001,1,2,-5,-7,5,2,-6,-6
1558438702566987,-8,-6,-2,1,-7,-7,15,14
1558438702566987,-1,1,-1,16,0,1,-4,7
1558438702574967,0,3,6,-7,-17,-11,-14,-4
1558438702574967,-4,-1,0,11,12,8,8,-1
1558438702583942,1,-1,-7,-1,1,-5,-14,-19
1558438702583942,0,-2,-1,-14,-8,1,3,2
1558438702597903,1,-1,-3,-5,-1,1,5,13
1558438702597903,-2,0,7,7,8,-2,-7,-3
1558438702606881,4,2,11,26,11,8,-4,3
1558438702606881,-1,-1,4,5,5,1,17,-3
1558438702620842,-3,-5,-11,-17,-21,-16,-10,6
1558438702620842,1,4,-2,-13,-1,5,-5,-13
1558438702627824,-5,-4,-1,-2,-2,-5,4,0
1558438702627824,-4,-4,-3,3,-10,-4,10,9
1558438702642784,1,3,9,17,8,3,-11,-10
1558438702642784,-3,-4,-10,-6,-8,-6,-8,8
1558438702649765,-4,-3,-6,-19,-10,-7,-12,-20
1558438702649765,-1,-2,5,3,6,7,14,8
1558438702657744,4,0,-2,0,12,10,10,5
1558438702657744,2,0,-5,-5,-4,0,5,6
1558438702666719,2,2,3,6,8,6,-4,-3
1558438702666719,-3,-2,5,8,-8,-17,-18,-7
1558438702680682,-4,-4,-12,-23,-21,-14,1,2
1558438702680682,1,1,5,29,22,20,10,3
1558438702687663,-4,-3,-9,-31,-18,-14,-7,-7
1558438702687663,0,0,-1,0,-4,-5,-6,-2
1558438702694645,2,4,7,3,5,2,4,1
1558438702694645,0,-1,7,10,-9,-12,-8,-1
1558438702709604,-2,-5,-10,-16,-12,4,6,1
1558438702709604,-2,1,-1,-2,11,9,-1,-1
1558438702717584,2,3,14,29,14,-1,-6,-3
1558438702717584,-8,-10,-19,-55,-36,-16,-1,-2
1558438702726560,5,3,1,18,30,22,7,3
1558438702726560,-4,-4,-11,-20,-16,-8,-3,-3
1558438702740522,0,-1,4,9,6,6,-6,-7
1558438702740522,0,-1,-1,-3,-9,-4,0,-2
1558438702747509,-3,0,10,8,-10,-14,-5,5
1558438702747509,5,3,-5,-8,12,10,8,-4
1558438702755483,-1,0,-2,0,10,-1,1,1
1558438702755483,0,-2,7,20,14,13,3,1
1558438702770443,-5,-6,-10,-16,-12,-15,-8,-5
1558438702770443,2,1,1,4,-9,-2,-8,-2
1558438702777425,1,4,-2,-17,-11,-3,-4,-4
1558438702777425,-3,-5,0,-4,-2,-1,0,-4
1558438702786404,0,4,7,14,21,11,7,0
1558438702786404,-5,-4,-2,-7,-19,-17,-7,1
1558438702800362,-4,-4,-5,-2,-9,-8,-17,-13
1558438702800362,6,5,9,11,17,11,17,12
1558438702807344,0,0,1,1,-1,0,3,-1
1558438702807344,-1,0,11,22,7,-1,-3,-1
1558438702815327,-7,-6,-25,-44,-17,-7,-6,0
1558438702815327,0,2,-5,-10,-14,-6,-6,-2
1558438702830289,-2,-3,-9,-9,-7,-4,-1,-2
1558438702830289,-1,1,8,2,7,-1,-1,3
1558438702837263,5,4,5,19,17,-1,15,5
1558438702837263,2,2,7,7,15,15,1,0
1558438702846245,-4,-8,-8,-4,-2,10,2,-3
1558438702846245,0,0,-8,-10,16,15,7,2
1558438702861202,-2,-4,5,6,-5,7,4,3
1558438702861202,-6,-1,-1,0,-17,-20,-10,-7
1558438702867188,2,1,4,6,3,-6,-5,-2
1558438702867188,-2,-2,2,11,17,11,4,-2
1558438702875164,-3,-5,-9,-13,-13,1,-1,-2
1558438702875164,0,-1,0,3,10,1,-4,-4
1558438702890124,-2,1,-1,2,-8,-7,-5,-1
1558438702890124,-1,-2,-6,-13,-21,-16,-7,-6
1558438702897106,4,5,6,7,15,12,7,7
1558438702897106,-4,-7,-6,-10,-13,-14,-8,-6
1558438702906082,0,2,4,12,10,6,7,4
1558438702906082,3,3,-3,-6,8,14,6,-1
1558438702921040,-5,-3,5,8,-5,-8,-9,-4
1558438702921040,1,-1,3,8,0,-4,-3,4
1558438702927024,-4,-1,-8,-13,-5,-2,-1,-1
1558438702927024,-2,-1,7,5,-6,-5,-2,-2
1558438702935003,0,1,2,8,21,14,11,4
1558438702935003,-1,-2,-2,-4,-6,-2,-1,0
1558438702949968,1,-2,-6,-6,-8,-9,-7,-1
1558438702949968,-1,-1,-4,-3,-8,6,1,-1
1558438702960226,-4,-4,-4,-9,-5,-1,-1,-5
1558438702960226,-2,-1,0,0,0,-8,-6,-3
1558438702966919,0,1,3,4,-1,-1,1,0
1558438702966919,-2,-1,1,0,-8,-6,-6,-1
1558438702979909,-1,-1,3,10,3,0,-2,-2
1558438702979909,0,1,-12,-18,-3,-2,5,3
1558438702988866,-2,-3,2,-8,-1,0,-1,0
1558438702988866,3,1,-3,3,7,4,3,2
1558438703002848,2,2,0,-1,-10,-6,-3,-2
1558438703002848,-2,-1,-2,-3,-8,-6,-8,-4
1558438703009826,2,3,12,14,18,9,5,1
1558438703009826,-2,-3,-4,-7,-5,-7,-1,1
1558438703026761,-1,-3,-6,-5,-15,-9,-2,-2
1558438703026761,-2,-2,3,-3,3,4,-3,-7
1558438703027762,0,-1,4,10,-2,-4,-1,1
1558438703027762,-4,-1,-12,-19,4,8,4,1
1558438703039825,-1,0,0,-4,-4,-12,-8,-3
1558438703039825,-1,-3,-6,-2,-3,1,2,1
1558438703048900,-1,-1,3,-4,1,4,3,1
1558438703048900,0,-2,3,10,7,-4,0,-1
1558438703063842,-3,-4,-5,-6,-15,-11,-7,-3
1558438703063842,-1,-2,3,6,16,10,4,2
1558438703069678,-1,-3,-6,-5,-9,-7,-2,-4
1558438703069678,-1,0,1,-2,-9,-7,-3,-4
1558438703086647,-3,-2,-5,-6,12,11,1,1
1558438703086647,-1,1,0,4,8,3,1,2
1558438703087600,-3,-3,-11,-10,1,4,-3,-2
1558438703087600,0,1,3,1,-9,-15,-7,-2
1558438703100574,0,0,5,3,-5,1,-1,-2
1558438703100574,2,1,-6,4,-2,0,4,0
1558438703107754,1,-1,-4,-17,-8,-3,-3,-1
1558438703107754,-4,-4,7,10,5,-2,-2,-3
1558438703123533,-2,-3,-2,-8,-10,-15,-8,-2
1558438703123533,-1,0,-4,-11,-4,11,9,1
1558438703130691,-1,1,7,15,1,-4,-1,0
1558438703130691,-3,-3,-6,-5,-3,3,0,-2
1558438703146442,1,0,-4,14,10,3,7,3
1558438703146442,-2,-1,-3,-16,-15,-20,-12,-7
1558438703147438,-2,-3,-3,-1,-5,-3,-3,-1
1558438703147438,-2,-1,2,3,5,8,-1,-3
1558438703160401,-1,-1,-1,-5,3,0,-2,1
1558438703160401,0,-1,0,6,0,-3,6,5
1558438703167383,2,2,-2,-5,-5,-4,-4,-1
1558438703167383,-1,0,0,2,-7,-9,-4,0
1558438703183593,3,2,2,14,10,10,3,0
1558438703183593,-1,-1,8,-3,0,9,2,0
1558438703190320,-3,-3,-5,-4,-4,-10,-4,-3
1558438703190320,0,0,-2,3,6,3,2,-1
1558438703206456,-1,-3,-12,-20,-1,5,4,1
1558438703206456,-2,-2,10,1,-1,-5,-5,-2
1558438703208459,-3,-2,-3,3,-8,-5,-2,-3
1558438703208459,-4,-4,-12,-24,-14,-13,-7,-3
1558438703220244,1,-1,-3,5,3,16,8,3
1558438703220244,2,3,4,21,14,4,1,-1
1558438703229219,-1,-1,-9,-24,-2,5,7,2
1558438703229219,3,-2,1,6,-3,-6,-3,-1
1558438703243186,-2,-1,3,0,-8,-10,-6,-3
1558438703243186,-4,-2,0,9,5,5,-2,0
1558438703250451,1,-2,-3,-6,8,2,-1,-2
1558438703250451,1,1,-4,-11,-5,3,1,1
1558438703267165,0,-1,-1,-2,-5,-10,-3,-2
1558438703267165,0,-1,2,7,0,3,-2,-3
1558438703268119,-1,0,-2,11,7,0,2,-1
1558438703268119,-1,1,7,5,10,7,4,2
1558438703280289,-3,-1,-4,-16,-11,-7,-7,-3
1558438703280289,-1,-1,-1,-5,-4,-7,-5,-4
1558438703289068,-2,-4,-8,-7,-14,-2,-3,-2
1558438703289068,2,-2,-1,1,11,3,5,2
1558438703303024,2,3,12,17,8,6,7,3
1558438703303024,-2,-7,-12,-10,-8,-14,-11,-7
1558438703310068,-1,-2,6,1,-2,-2,-3,-5
1558438703310068,3,3,8,12,9,12,7,3
1558438703327052,0,-2,-17,-34,-7,-5,-4,-1
1558438703327052,-3,-2,-7,-5,-12,-7,-5,-1
1558438703327955,-3,-1,5,10,-9,-4,-6,-3
1558438703327955,-1,-1,0,2,-1,-1,2,-2
1558438703339927,-1,0,4,3,17,8,4,2
1558438703339927,0,1,-2,11,1,-3,0,1
1558438703348898,3,4,5,4,11,9,3,1
1558438703348898,-2,-4,6,6,-4,-2,-2,-2
1558438703362869,0,0,1,-7,-12,-3,-8,-5
1558438703362869,-4,-7,-19,-13,-4,-2,1,-2
1558438703369842,0,-1,5,8,9,-1,1,2
1558438703369842,-2,0,-2,-6,-6,-6,-3,-1
1558438703386798,-3,-4,-2,11,-1,-8,-5,-4
1558438703386798,1,1,2,-6,-6,2,3,2
1558438703387794,0,0,12,7,8,1,-3,-1
1558438703387794,-1,-4,-20,-14,-12,-2,-1,-1
1558438703399761,-4,-4,-8,-2,-4,-2,-1,-4
1558438703399761,-1,1,1,-9,-1,-1,-2,-2
1558438703408741,-1,-1,-1,5,2,1,0,-1
1558438703408741,3,1,9,1,-1,-1,-4,0
1558438703423727,-2,-3,-8,3,0,0,-1,0
1558438703423727,-2,0,2,8,3,-1,2,1
1558438703430676,-3,-4,6,5,0,-3,0,-3
1558438703430676,-1,-1,-12,-6,8,6,7,2
1558438703446800,2,1,7,5,-9,-5,-3,-3
1558438703446800,-1,4,11,10,5,1,1,1
1558438703447663,-1,0,-10,-10,-5,2,6,2
1558438703447663,-1,-1,-5,-1,0,-9,-5,0
1558438703460622,-2,-2,-1,-9,-4,1,-1,0
1558438703460622,0,-2,-1,1,-9,-4,-8,-3
1558438703468575,-2,-1,-5,-6,-10,-11,-11,-4
1558438703468575,-1,0,7,12,13,14,13,3
1558438703483573,-2,-1,-3,-6,1,-1,3,-1
1558438703483573,-3,-2,-2,-3,-1,-1,2,1
1558438703489561,-1,0,2,3,-1,2,-2,0
1558438703489561,-3,-5,-5,-7,-6,-9,-11,-5
1558438703506514,-1,0,5,0,-3,-13,-5,-1
1558438703506514,0,-4,-4,-4,6,8,4,-2
1558438703507471,0,-2,-9,-4,-2,1,0,-2
1558438703507471,-2,0,3,0,-13,-7,-5,-2
1558438703520436,-1,-1,2,1,3,9,3,1
1558438703520436,-1,-2,0,-1,-1,-9,-4,-4
1558438703528446,-1,-3,-12,-19,2,-1,-4,-2
1558438703528446,-1,-2,-3,-9,-13,3,-1,-4
1558438703543408,-1,0,1,-4,6,5,-1,0
1558438703543408,1,2,6,18,4,0,0,2
1558438703550356,-1,-2,2,1,-2,1,4,3
1558438703550356,-4,-2,-3,-10,-6,-8,-7,-6
1558438703566758,0,2,3,11,4,0,-2,-2
1558438703566758,-1,2,6,5,-5,-5,-2,1
1558438703567313,4,1,-2,-5,26,31,20,8
1558438703567313,-3,-3,0,-9,-9,-10,-9,-4
1558438703580276,-3,-3,-7,1,-7,-8,-2,-2
1558438703580276,0,1,-1,-5,4,-3,-3,-1
1558438703589252,-2,-4,-9,-5,-20,-14,-10,-7
1558438703589252,1,2,3,13,8,4,-2,0
1558438703603513,2,4,9,11,8,9,6,4
1558438703603513,-4,-6,-5,-21,-13,-4,-4,-4
1558438703610510,-5,-2,-8,-1,-9,-5,-4,-3
1558438703610510,0,-1,2,11,-1,-2,0,-2
1558438703626404,2,0,2,-4,3,-5,-4,1
1558438703626404,0,-1,-9,-14,-2,2,-2,0
1558438703633173,0,1,2,8,3,1,1,0
1558438703633173,0,2,1,-3,1,-1,-3,-4
1558438703640152,0,-3,-1,3,1,-1,-2,-3
1558438703640152,0,-2,-2,2,1,6,4,0
1558438703649092,-1,1,2,6,5,-8,-6,0
1558438703649092,0,-1,1,-16,-3,0,1,0
1558438703663398,-1,-3,-10,-10,-10,-7,-3,-3
1558438703663398,1,-1,-1,0,-4,3,-1,3
1558438703670397,0,1,2,0,6,-6,-2,-6
1558438703670397,0,0,1,9,10,4,7,2
1558438703686324,-3,0,-3,-1,2,10,3,0
1558438703686324,-2,-1,2,-1,-4,-4,-3,-4
1558438703700954,2,1,2,4,0,-4,-2,5
1558438703700954,-3,-2,-6,-14,-7,-11,-10,-5
1558438703700954,-1,-1,-2,-4,-2,-1,-3,-1
1558438703700954,-2,-2,-4,-3,-7,-5,-2,-2
1558438703708964,0,-1,3,-8,-7,3,4,3
1558438703708964,-2,-2,-1,8,6,6,1,2
1558438703723188,-2,1,3,1,1,-2,-2,0
1558438703723188,2,2,1,6,6,4,1,-2
1558438703730144,-3,-4,-7,-17,-7,-8,-6,-3
1558438703730144,-2,-3,-5,-4,-16,-17,-10,-2
1558438703746007,0,-1,2,-9,-4,3,1,-2
1558438703746007,0,0,3,13,8,3,2,0
1558438703752821,2,1,9,2,3,5,3,0
1558438703752821,-2,-2,-3,-3,-4,0,-1,0
1558438703759800,-3,-4,3,20,1,-6,-5,-2
1558438703759800,1,3,-4,-13,4,6,6,7
1558438703768777,-5,-7,-17,-10,-9,-6,-4,-6
1558438703768777,1,2,6,6,9,8,3,3
1558438703783830,0,1,-1,-3,-3,-2,1,-2
1558438703783830,-2,-1,0,3,0,-5,-5,-3
1558438703789724,-3,-3,2,-1,-10,-10,-4,-4
1558438703789724,0,-2,1,4,2,6,-1,0
1558438703805673,-3,-3,-6,-9,-10,-1,2,1
1558438703805673,1,1,2,1,10,6,4,0
1558438703812916,-1,0,-4,1,0,-4,-6,0
1558438703812916,-2,-4,-1,4,7,7,7,-1
1558438703829738,-2,-1,2,-5,-5,-2,-3,-1
1558438703829738,-3,-3,-9,-7,-14,-7,-7,-4
1558438703831061,3,3,7,13,13,6,6,2
1558438703831061,-2,-2,-13,-11,-7,-3,-1,-2
1558438703843979,-5,-6,-5,-9,-7,-7,-5,-4
1558438703843979,-1,-2,-3,-2,0,-3,-2,0
1558438703850660,-2,1,8,5,2,0,-2,0
1558438703850660,2,1,1,5,-2,1,-1,0
1558438703873494,-1,-2,3,5,6,2,0,0
1558438703873494,-2,-2,-6,-7,-14,-8,-4,-5
1558438703875487,-1,-2,1,9,-1,-2,1,1
1558438703875487,0,2,10,1,6,6,6,2
1558438703888826,-2,-3,-11,-6,-1,4,-1,-2
1558438703888826,-1,0,3,-8,3,-3,0,2
1558438703890446,-3,-3,2,7,2,-2,1,1
1558438703890446,-1,-3,-11,-10,-8,-3,-2,-1
1558438703903917,2,1,2,-4,2,-2,-3,-1
1558438703903917,-2,-2,-1,-2,-2,2,-1,-3
1558438703910207,-5,-3,-8,0,-10,-1,-6,-5
1558438703910207,0,-1,-2,-14,-10,-13,-9,-4
1558438703926135,0,3,1,-4,2,7,9,4
1558438703926135,-1,0,4,9,23,14,10,3
1558438703933065,1,1,8,3,-4,-4,-5,-2
1558438703933065,-3,-5,-22,-13,-7,-10,-3,-1
1558438703948972,2,1,5,9,7,5,1,-1
1558438703948972,-1,-4,-11,-8,-9,-5,-2,-1
1558438703950745,-3,-1,-2,-15,-5,0,0,-2
1558438703950745,-1,1,11,19,9,4,-2,-3
1558438703963725,-3,-6,-18,-5,-4,-6,-5,-3
1558438703963725,-2,-2,-7,-6,-2,-4,-3,-1
1558438703969692,-2,-1,1,0,-7,-2,-4,-4
1558438703969692,2,1,4,-2,6,5,4,4
1558438703985651,-1,0,3,1,1,-5,-3,1
1558438703985651,2,2,9,7,9,8,6,4
1558438703992632,0,-1,-6,-9,1,2,0,-2
1558438703992632,-5,-2,3,5,-1,0,0,-3
1558438704008588,-1,0,6,7,-3,-4,-2,-1
1558438704008588,-5,-2,0,0,-7,-2,-5,-4
1558438704010583,3,3,1,2,5,0,1,1
1558438704010583,1,0,-2,-10,4,6,2,2
1558438704023582,-1,-1,-2,-1,-6,-8,-3,0
1558438704023582,-2,-2,-1,2,-10,-6,-7,-3
1558438704029567,1,-1,2,9,9,5,2,0
1558438704029567,-1,-1,-1,-10,-4,-7,-2,-1
1558438704046115,-1,0,-7,-2,-3,5,4,3
1558438704046115,-1,-1,2,8,2,-1,-2,-3
1558438704052103,0,-1,-5,-11,-1,-1,-2,1
1558438704052103,1,1,3,6,9,8,4,1
1558438704069056,-2,-2,0,-3,-9,-9,-4,-1
1558438704069056,-1,-2,-2,-3,0,2,-3,-2
1558438704070309,-1,-1,0,-10,-9,-7,-5,-1
1558438704070309,2,2,-5,3,-2,-2,-3,-1
1558438704083431,1,2,3,5,10,6,6,3
1558438704083431,0,-2,2,-4,-2,-4,1,1
1558438704090160,-1,-2,-6,-6,-5,-4,-1,-3
1558438704090160,-3,-3,0,-2,-8,-6,-5,-2
1558438704105959,-1,2,1,3,3,5,1,-2
1558438704105959,-1,-1,0,-8,-9,-7,-1,-2
1558438704113216,2,1,-2,4,5,5,0,3
1558438704113216,0,-2,-1,8,3,5,0,1
1558438704129126,-1,-3,7,7,-8,-10,-7,-4
1558438704129126,-2,-2,-13,-8,8,7,3,1
1558438704129904,-4,-2,-7,-6,-6,-5,2,0
1558438704129904,1,2,9,6,4,5,5,1
1558438704143096,-3,-3,-12,-12,-2,-2,-2,-4
1558438704143096,1,4,8,12,-2,-3,-3,-1
1558438704150067,-1,-2,-2,-8,-8,-3,-3,-2
1558438704150067,-3,0,-1,-1,-3,-4,-4,-3
1558438704166032,-3,-1,1,3,-2,0,0,-1
1558438704166032,1,-1,-5,-11,-5,-4,-1,-2
1558438704172780,-2,-2,0,4,0,-3,-5,-2
1558438704172780,-1,-2,0,-2,-5,-8,-3,-2
1558438704188767,1,-1,-4,-6,0,1,0,2
1558438704188767,0,1,-1,4,4,6,2,0
1558438704190731,0,-2,-1,0,-4,-2,-1,-3
1558438704190731,-2,-2,-3,-2,-6,-8,-6,-5
1558438704202699,-1,0,3,2,-5,-7,-3,0
1558438704202699,-3,-4,-9,-10,6,11,3,0
1558438704209682,0,-2,3,-2,2,0,4,0
1558438704209682,0,-1,1,1,6,4,1,1
1558438704225639,-1,-4,-16,-26,-16,-6,-6,-4
1558438704225639,-4,-2,0,2,-10,-12,-7,-4
1558438704233131,1,3,-1,3,5,7,4,2
1558438704233131,-1,0,2,1,-8,-5,1,1
1558438704249830,1,1,-2,5,8,0,1,2
1558438704249830,-1,-3,1,1,-7,-4,-6,-2
1558438704250603,-2,-2,-4,-3,4,-2,-5,-2
1558438704250603,1,-1,3,1,-7,-3,1,-1
1558438704264039,0,1,7,2,15,9,3,2
1558438704264039,-2,0,0,-3,-3,-1,0,-1
1558438704270876,-3,0,3,6,3,5,0,-2
1558438704270876,-2,-2,-4,-7,-5,-4,1,-1
1558438704285785,-1,-1,0,3,0,-4,-1,-3
1558438704285785,-1,-1,3,0,1,-5,-2,-3
1558438704292775,1,1,5,3,-3,0,-2,0
1558438704292775,0,0,-3,-4,6,7,1,2
1558438704309579,-1,-5,-4,-10,-7,-2,-2,-2
1558438704309579,0,0,-2,-2,-2,-2,-2,-2
1558438704310415,-2,-1,0,10,-2,-1,-1,-2
1558438704310415,-2,1,-5,-5,-4,-7,-7,-2
1558438704322557,-1,-1,1,4,8,4,4,2
1558438704322557,0,1,1,3,5,0,3,2
1558438704331357,1,-1,2,-6,-3,1,0,-1
1558438704331357,-1,-2,-4,-2,-1,-3,0,-1
1558438704346433,-4,-3,-2,-4,-13,-7,-7,-6
1558438704346433,-1,-3,-4,2,-8,-10,-6,-3
1558438704352306,2,2,9,18,19,16,13,6
1558438704352306,-2,-3,-5,-13,-3,2,-1,-2
1558438704369259,0,-1,0,6,4,-2,-3,-2
1558438704369259,-1,-2,-6,-6,-11,-11,-7,-3
1558438704370254,-2,-5,-13,-9,-2,-12,-5,-3
1558438704370254,-2,-2,-4,3,-1,0,-1,0
1558438704382228,0,1,4,-2,-2,1,0,1
1558438704382228,2,2,12,9,3,5,1,0
1558438704391196,-4,-6,-8,-11,-10,-10,-8,-6
1558438704391196,-2,-1,-4,-2,0,-2,0,-3
1558438704405158,-1,-2,0,5,-3,-1,-2,-4
1558438704405158,2,4,4,2,4,10,6,1
1558438704413351,-2,0,4,1,-4,-6,-2,0
1558438704413351,-1,-2,7,-4,-2,0,0,-1
1558438704429447,-3,0,-1,4,-2,-3,-3,-1
1558438704429447,0,0,6,6,4,0,-1,0
1558438704431129,2,2,-3,4,6,-2,-1,2
1558438704431129,0,-3,-7,-6,-2,3,1,1
1558438704443196,-1,-3,-8,-16,-12,-8,-5,-3
1558438704443196,-1,0,2,3,6,7,4,1
1558438704451059,-2,2,10,10,8,8,4,0
1558438704451059,-4,-3,-4,1,1,-3,-5,-2
1558438704466361,-2,-3,-2,0,0,0,-1,-2
1558438704466361,-2,-2,-6,-6,-7,1,1,-2
1558438704472253,0,-1,-4,-7,-7,-9,-4,-4
1558438704472253,-1,1,5,8,1,-1,-2,-1
1558438704489190,1,2,10,3,4,1,-4,-3
1558438704489190,-1,-1,-12,-6,-3,-5,2,1
1558438704489933,-1,-3,-3,-4,-6,-2,-5,-3
1558438704489933,-2,-3,-15,-23,-8,-3,1,0
1558438704503032,2,1,2,2,8,7,6,1
1558438704503032,1,0,7,9,12,0,-1,0
1558438704511153,-4,-5,-13,-24,-25,-11,-3,-2
1558438704511153,1,1,9,9,11,13,4,2
1558438704526102,-1,1,3,0,0,-1,-4,-1
1558438704526102,0,-3,-4,3,-2,-5,-5,-3
1558438704533096,0,-1,-2,-13,2,1,-3,-1
1558438704533096,0,0,-1,7,-6,-12,-7,-2
1558438704548902,0,2,13,29,15,6,3,-1
1558438704548902,-6,-9,-25,-43,-19,-3,-1,-2
1558438704555757,-1,0,-1,3,5,7,0,-1
1558438704555757,0,0,5,1,0,0,2,-1
1558438704562939,1,2,3,16,-3,-2,-1,1
1558438704562939,0,0,-3,-1,0,2,-1,-2
1558438704571715,-6,-6,-3,1,-7,-2,-2,-2
1558438704571715,2,1,-5,-1,17,8,6,4
1558438704585675,-2,-4,0,-9,-9,-8,-7,-2
1558438704585675,-3,-2,10,10,-5,-8,-7,-3
1558438704593654,3,5,-6,-3,5,11,8,5
1558438704593654,-4,-2,5,12,-10,-12,-9,-8
1558438704608613,-5,-3,-4,-10,8,10,15,8
1558438704608613,-1,-2,-2,2,3,-2,-1,-1
1558438704614631,-2,-1,7,7,0,0,-1,-3
1558438704614631,-1,-1,-4,-12,-5,1,-2,0
1558438704622574,1,0,3,-4,-7,-6,-8,-3
1558438704622574,-3,-4,-14,-15,-6,-8,-4,-5
1558438704631552,0,-1,-1,6,0,-3,-1,-1
1558438704631552,1,-1,0,7,-4,1,0,-2
1558438704645973,0,-1,-10,-18,3,8,4,3
1558438704645973,0,0,13,20,11,3,-1,1
1558438704652927,1,-3,-9,-16,-16,-17,-9,-5
1558438704652927,-3,-3,-1,2,-5,-1,1,-2
1558438704668453,1,1,-3,7,6,8,5,3
1558438704668453,1,1,6,-2,4,5,1,0
1558438704675884,-1,0,-1,3,5,1,2,1
1558438704675884,2,0,0,2,-3,-1,0,-1
1558438704682868,-9,-6,-1,-2,-4,-17,-9,-5
1558438704682868,0,1,3,7,8,4,1,1
1558438704691392,0,-1,-14,-26,-11,5,3,1
1558438704691392,-3,0,-5,-7,-1,-1,-2,0
1558438704706487,0,-1,3,1,0,-1,0,-1
1558438704706487,-2,-1,-4,-3,-10,-7,-6,-3
1558438704712634,-4,-6,5,10,3,-9,-6,-4
1558438704712634,2,2,1,-4,7,3,1,1
1558438704728518,1,-1,-2,5,-4,-3,-3,-1
1558438704728518,-1,-1,0,-6,-4,-1,-1,0
1558438704735296,2,0,0,1,1,8,5,4
1558438704735296,-4,-5,-9,-1,-2,-2,-4,-2
1558438704751238,1,0,0,-13,1,2,1,-3
1558438704751238,-3,-1,4,9,-5,-11,-2,-2
1558438704757417,0,-2,-7,-8,-5,-2,-4,-2
1558438704757417,-5,-5,-3,-2,2,-4,-3,-3
1558438704766366,-2,-1,-3,5,4,1,2,2
1558438704766366,0,-1,-6,-13,-7,0,2,0
1558438704773217,0,3,15,14,10,4,-3,-1
1558438704773217,-1,-1,9,18,1,-5,-5,-3
1558438704797327,3,2,0,-24,-12,1,3,1
1558438704797327,1,-2,-19,-4,6,3,5,2
1558438704798117,-3,-3,1,-1,-9,-6,-4,-4
1558438704798117,1,1,1,1,3,8,3,1
1558438704811079,-1,-1,-1,4,-5,-5,-5,-4
1558438704811079,0,3,11,4,2,17,9,4
1558438704813070,-2,-3,-14,-9,5,0,2,0
1558438704813070,-1,-2,-3,-3,-8,-7,-4,-3
1558438704826350,-3,-4,2,13,-3,-9,-6,-3
1558438704826350,2,-4,-7,-19,-8,-4,-2,1
1558438704832019,3,1,2,3,14,5,0,1
1558438704832019,4,1,-1,-9,-9,-5,-3,-2
1558438704848976,-8,-5,-8,1,-3,-6,-9,-6
1558438704848976,1,3,1,2,-4,-5,0,1
1558438704855299,0,0,8,9,9,4,7,6
1558438704855299,-1,-1,3,-4,7,3,-2,0
1558438704872141,0,-3,-14,-7,-2,10,1,0
1558438704872141,-3,-4,5,4,-4,-17,-9,-3
1558438704872935,-1,-1,0,-14,-6,-4,-2,-3
1558438704872935,-1,1,3,10,-4,-4,0,1
1558438704886286,-1,-1,-7,-8,-3,-4,-4,-1
1558438704886286,-2,-1,3,-3,-1,12,4,-3
1558438704893153,-1,-3,2,14,-4,-3,-2,-2
1558438704893153,-1,-4,-5,-1,7,6,6,0
1558438704908923,0,-2,-4,-8,-7,-6,-4,-1
1558438704908923,-1,0,-6,-3,4,0,1,0
1558438704915065,0,2,7,10,2,5,1,2
1558438704915065,-1,1,-7,-6,-3,0,-3,-1
1558438704931975,-6,-2,8,7,-6,-3,-3,-1
1558438704931975,2,0,0,4,7,6,1,-2
1558438704932749,-5,-5,-8,-7,-6,-7,-7,-6
1558438704932749,0,2,3,-3,4,-2,-1,3
1558438704945942,2,0,-5,-4,-7,-7,3,1
1558438704945942,0,-3,3,2,2,2,-1,1
1558438704952726,-1,-1,-2,3,5,8,4,1
1558438704952726,-2,-1,0,4,1,2,-1,-4
1558438704968671,1,0,-1,-9,-8,-14,-9,-3
1558438704968671,-2,-3,4,3,2,5,4,-1
1558438704975669,0,-3,-25,-21,-9,-5,-3,-2
1558438704975669,-4,-5,-11,-1,-1,-3,-5,-3
1558438704991593,0,0,-1,-3,-2,3,0,-2
1558438704991593,2,1,8,13,8,-3,4,1
1558438704992589,-2,0,8,2,-5,2,0,0
1558438704992589,-2,2,0,-4,-4,-1,1,0
1558438705005780,1,-1,-8,-9,-5,4,1,0
1558438705005780,-1,-1,2,1,-4,-6,-10,-4
1558438705012761,-2,-1,5,12,8,-1,1,-1
1558438705012761,3,-2,-1,3,-4,-8,-3,-2
1558438705028525,-6,-3,1,1,3,6,2,1
1558438705028525,-2,-2,-9,-4,4,6,0,-1
1558438705035472,1,1,8,9,10,2,4,2
1558438705035472,1,1,9,-1,3,0,1,0
1558438705050431,-2,-6,-28,-13,-11,-4,-3,-1
1558438705050431,-2,-3,-3,1,-11,-8,-4,-4
1558438705051429,-2,-2,-4,-6,-3,-6,-5,-3
1558438705051429,-1,0,6,4,2,-2,3,0
1558438705066389,2,0,13,13,10,8,4,-1
1558438705066389,-1,0,-3,-7,-4,-6,-2,-1
1558438705072700,-3,-3,-11,-4,-8,-3,-3,-5
1558438705072700,-2,-3,-5,-5,-8,-3,-4,-3
1558438705089333,-1,0,11,11,7,1,-2,1
1558438705089333,-4,-3,-6,-11,-7,-5,-6,-1
1558438705095638,3,2,12,7,5,0,-1,1
1558438705095638,-2,-1,-10,-4,-2,-4,-1,0
1558438705111303,-1,0,-6,-3,-3,7,2,-1
1558438705111303,0,-1,-1,-3,10,1,0,2
1558438705111303,-2,1,0,-2,-9,-2,-1,-1
1558438705111303,0,0,3,0,4,3,-4,1
1558438705126365,0,3,6,0,8,0,1,-1
1558438705126365,-1,0,4,13,-9,-6,-1,-3
1558438705132428,-3,-3,-17,-23,-4,-3,-4,-2
1558438705132428,0,-1,1,0,-4,-1,3,1
1558438705149179,2,0,5,7,2,-2,-3,-1
1558438705149179,-3,-4,2,-1,-1,6,1,-2
1558438705155208,-1,-3,-9,-4,-12,-17,-5,-1
1558438705155208,-3,0,9,10,3,4,2,-2
1558438705171110,-3,-3,-24,-15,-6,-4,-1,-2
1558438705171110,-2,-1,-6,-10,-1,-4,-2,-1
1558438705171110,-2,-1,3,4,-5,-4,-6,-2
1558438705171110,-4,-5,-10,-6,-12,-7,-2,-4
1558438705186081,3,2,12,15,20,16,6,1
1558438705186081,0,1,1,3,-3,-4,-1,0
1558438705193142,1,-3,-1,-1,6,8,-1,-3
1558438705193142,-2,-2,-4,-5,-1,0,0,1
1558438705209010,2,1,14,9,15,4,3,1
1558438705209010,-6,-7,-23,-15,-19,-13,-7,-4
1558438705215211,-1,0,3,-21,-9,-3,-1,1
1558438705215211,-3,-1,-15,-11,-7,-3,-2,-3
1558438705230948,-2,-2,1,-4,-6,-3,-1,-2
1558438705230948,3,1,3,3,4,0,0,-1
1558438705230948,2,1,7,13,10,11,5,1
1558438705230948,0,-1,-2,-10,-6,-5,-3,-2
1558438705246303,0,-1,-1,-2,-2,-7,-4,-1
1558438705246303,0,-1,3,15,10,6,2,-2
1558438705251894,-4,-2,-2,-7,-7,2,4,0
1558438705251894,-1,1,4,3,10,5,-3,-2
1558438705268850,-3,-3,0,0,-5,-4,-3,-3
1558438705268850,1,1,-1,-1,-2,-3,-2,1
1558438705275203,0,1,3,5,-1,-6,-4,-3
1558438705275203,-1,-4,-7,-8,-12,-8,-4,-1
1558438705291083,1,1,-1,-5,13,7,6,2
1558438705291083,-2,-2,2,1,-7,-5,-5,-7
1558438705291791,0,0,-4,3,3,3,1,0
1558438705291791,0,1,6,9,8,6,3,1
1558438705306749,-3,-3,-9,-13,-12,-6,-4,-3
1558438705306749,0,-1,-6,-4,-1,-4,-2,1
1558438705312948,-1,-3,-2,2,-3,-6,-5,-4
1558438705312948,1,-2,3,-1,1,2,-1,0
1558438705328873,-1,0,1,3,-3,-3,-3,0
1558438705328873,-1,1,2,-6,0,-4,-2,1
1558438705334676,-2,-2,2,-3,-6,-5,-4,-1
1558438705334676,0,-1,4,11,14,8,3,0
1558438705350637,2,-1,-5,-4,-1,-1,1,-3
1558438705350637,-2,-1,2,-3,1,7,3,-1
1558438705351627,-3,-4,-7,-11,-9,-6,-3,-2
1558438705351627,0,1,6,0,-4,-5,-4,-2
1558438705373768,-4,-3,-6,1,-5,-5,-4,-2
1558438705373768,-1,-2,1,-11,6,10,8,4
1558438705373768,-3,1,-2,4,-1,-3,-1,0
1558438705373768,-1,-2,0,-7,-2,-5,2,0
1558438705388681,-1,-1,-2,-1,4,7,6,2
1558438705388681,1,0,-1,-1,-2,-2,-2,-1
1558438705395535,1,1,-1,10,9,6,2,1
1558438705395535,-3,-1,0,-9,-7,-5,-5,-4
1558438705410471,-1,-1,-3,-5,-6,-2,-4,-1
1558438705410471,0,1,5,2,5,10,2,-1
1558438705417452,1,-1,-6,5,14,-1,4,2
1558438705417452,-3,-2,-4,2,-7,-6,-4,-3
1558438705433406,-1,-1,-6,3,3,-2,-3,-3
1558438705433406,-1,-2,1,-4,-13,-9,-8,-2
1558438705433406,1,0,4,-2,0,1,-3,-2
1558438705433406,1,-2,1,2,3,0,2,0
1558438705448367,1,-3,0,-3,4,8,4,1
1558438705448367,0,-1,3,10,-6,-8,-3,-3
1558438705455349,-3,-2,-8,-6,0,-2,-5,-2
1558438705455349,1,0,3,6,-2,-3,0,2
1558438705470677,-2,2,9,10,3,0,-2,0
1558438705470677,-2,-2,-13,-18,-9,-5,-5,-3
1558438705477631,1,1,5,3,-2,4,-1,-1
1558438705477631,-1,-4,-2,9,-4,-8,-3,-2
1558438705493790,0,0,8,3,2,-5,-2,-2
1558438705493790,-2,1,-5,-12,7,9,3,1
1558438705493790,-4,-3,1,3,-13,-11,-5,-5
1558438705493790,1,0,0,2,3,1,0,-1
1558438705508842,-3,-3,-6,-8,-3,6,1,-1
1558438705508842,0,1,2,4,2,-7,0,1
1558438705515613,1,1,0,-2,6,9,5,3
1558438705515613,0,-1,0,-1,-1,0,-4,-2
1558438705530767,-2,-2,-2,-4,-12,-14,-6,-3
1558438705530767,-2,0,0,2,1,-4,-2,-2
1558438705537849,2,-1,-2,-9,-1,4,4,0
1558438705537849,-2,-2,-1,2,5,6,3,2
1558438705553513,0,1,2,3,2,0,-4,1
1558438705553513,-4,-4,-5,-7,-10,-4,-8,-4
1558438705553513,0,0,9,7,-5,-1,-5,-2
1558438705553513,-1,-3,-14,-15,5,4,3,-1
1558438705568516,1,1,-4,0,1,-1,2,1
1558438705568516,0,0,-5,-2,-6,-2,1,0
1558438705575459,-2,-2,-1,-1,7,3,-2,-2
1558438705575459,-3,-3,-5,-11,-18,-7,-6,-3
1558438705590416,-2,-2,5,3,-6,-10,-5,-3
1558438705590416,0,-2,1,0,7,5,7,3
1558438705597716,2,1,-4,2,2,4,5,3
1558438705597716,0,0,-1,3,2,-1,-2,-1
1558438705613354,-1,-2,3,10,2,-3,-1,-3
1558438705613354,-3,-2,-10,-18,-11,-4,-5,-6
1558438705613354,-5,-2,-2,-2,-6,-5,-5,-2
1558438705613354,2,3,3,-5,7,7,6,2
1558438705629310,-6,-6,-13,-12,-19,-9,-8,-3
1558438705629310,2,-1,5,14,4,3,1,3
1558438705635294,-2,-2,-2,-10,-4,-6,-2,-2
1558438705635294,-4,-2,3,6,-6,-10,-9,-5
1558438705650254,0,1,4,-13,0,-2,-1,-1
1558438705650254,0,2,3,6,6,0,5,3
1558438705657234,-2,-3,-11,-5,-1,0,2,-1
1558438705657234,-2,-1,-2,0,-11,-1,-1,0
1558438705673191,-2,-1,-3,1,-3,-6,-4,-2
1558438705673191,-3,-1,6,6,1,-6,-5,-3
1558438705674190,1,-3,-6,-13,-8,-2,-1,1
1558438705674190,-3,-3,-7,-1,9,6,2,1
1558438705689150,-1,0,-3,-3,3,1,0,0
1558438705689150,-3,-3,-3,-8,-5,-3,-5,0
1558438705695133,-1,1,5,6,-3,-10,-5,-4
1558438705695133,-1,-3,-6,-3,-7,-3,-4,-2
1558438705710547,1,0,0,1,0,8,4,1
1558438705710547,-2,-2,-2,-2,1,-1,-1,-3
1558438705717088,0,-3,1,3,3,-1,0,-1
1558438705717088,1,1,-2,-6,-1,-1,4,3
1558438705733785,0,-1,-3,4,2,1,1,0
1558438705733785,0,-1,-2,-1,0,0,-3,-1
1558438705733785,-3,0,2,3,1,2,-1,0
1558438705733785,-2,-2,2,0,-3,-4,-5,-2
1558438705748962,-3,-3,-6,-5,-5,1,-2,-2
1558438705748962,0,-3,1,3,1,-4,-6,-2
1558438705755793,0,0,2,5,4,9,6,0
1558438705755793,0,2,0,4,0,0,1,-1
1558438705770734,-3,1,-2,-4,-4,-4,0,-1
1558438705770734,-1,-2,-6,-5,-1,0,-1,-2
1558438705777446,-1,0,6,9,6,0,0,1
1558438705777446,-2,-2,-6,-1,0,1,0,0
1558438705793375,1,1,7,3,-3,-1,0,2
1558438705793375,2,1,10,11,5,5,-3,-3
1558438705793375,-1,-1,-16,-7,-5,-4,-3,-1
1558438705793375,0,-3,4,-5,0,-3,-2,0
1558438705809337,-2,-2,-7,-11,-9,-4,-4,-3
1558438705809337,-1,-1,6,7,6,3,1,1
1558438705815487,-4,-2,-8,-9,-8,-7,-2,-4
1558438705815487,-4,-1,-4,-10,-6,1,2,-1
1558438705830277,2,-1,-7,7,15,8,3,-1
1558438705830277,-3,-1,1,-8,-8,-1,0,0
1558438705837254,-1,0,6,1,3,2,0,1
1558438705837254,3,2,-1,4,4,-1,3,0
1558438705853212,-1,0,6,1,4,0,2,2
1558438705853212,1,-1,-3,1,-2,0,-2,-3
1558438705854208,-2,-3,-7,-17,-10,-11,-4,-2
1558438705854208,1,2,7,4,1,1,2,1
1558438705869167,0,-3,-3,-1,4,9,2,0
1558438705869167,-2,-2,-4,-1,-5,-7,-4,-3
1558438705875475,-1,0,1,3,8,8,5,-1
1558438705875475,-1,0,1,6,7,2,3,0
1558438705890111,-3,-3,2,-2,-11,-14,-5,-1
1558438705890111,-2,0,-3,-4,-1,7,4,1
1558438705898260,2,-1,4,-7,-6,0,-2,-3
1558438705898260,0,-2,-2,-1,4,6,0,-5
1558438705913414,-1,-2,-2,0,-3,-3,-2,-3
1558438705913414,-4,-1,-6,1,-7,-11,-5,-1
1558438705914048,-1,1,5,13,5,0,0,1
1558438705914048,1,-1,2,1,-5,0,0,-1
1558438705929008,3,4,1,-5,8,9,4,-1
1558438705929008,-3,-5,-1,5,-3,1,-2,-3
1558438705935017,-2,-2,1,2,-3,-2,-2,0
1558438705935017,-5,-4,-9,-2,3,0,-3,-2
1558438705950288,-1,-1,0,-7,-4,-8,-4,1
1558438705950288,-1,-2,-8,-11,-5,-6,-1,-2
1558438705968524,0,1,4,7,3,0,-3,-2
1558438705968524,0,-1,-2,-9,-7,1,0,-1
1558438705973206,-3,-1,1,0,-6,-5,-2,-1
1558438705973206,0,-1,-1,1,8,9,2,0
1558438705973888,0,-3,-9,-6,-10,-9,-5,-3
1558438705973888,1,-1,0,1,-5,-7,-4,-1
1558438705989086,2,1,7,12,10,13,7,0
1558438705989086,1,2,6,-2,-1,-4,-1,2
1558438705995095,-7,-9,-24,-19,-14,-11,-9,-3
1558438705995095,-1,0,1,5,7,5,2,1
1558438706009828,0,-2,-1,-4,-4,0,-3,-3
1558438706009828,2,1,0,9,1,-4,1,-1
1558438706017774,-2,0,4,0,0,-2,0,0
1558438706017774,-1,0,3,6,-4,-6,1,0
1558438706032960,-1,0,-3,-6,11,12,3,0
1558438706032960,0,0,6,0,-5,-4,-4,-3
1558438706033729,1,0,1,-11,7,15,2,-3
1558438706033729,-4,-3,-3,-6,-7,-14,-4,-1
1558438706048898,1,1,4,10,6,-2,0,1
1558438706048898,-1,-1,-3,-2,-4,-1,-5,-1
1558438706054672,0,0,4,-4,4,3,-2,-1
1558438706054672,-3,-4,-12,0,-8,-1,-6,-5
1558438706069634,-2,-3,-4,4,0,1,-2,-2
1558438706069634,-3,-3,-7,-12,-10,-8,-1,-2
1558438706077914,-1,2,11,10,6,3,1,-1
1558438706077914,0,3,2,-4,11,13,6,1
1558438706093814,-5,-4,-9,-10,-5,-4,-2,1
1558438706093814,1,2,2,1,4,-1,3,0
1558438706093814,-1,-2,-7,3,-9,-8,-1,1
1558438706093814,0,1,7,2,2,-2,0,0
1558438706108854,-2,-2,-9,-9,-13,-10,-6,-4
1558438706108854,-2,-2,-2,-3,-4,1,-3,-2
1558438706114846,1,1,13,14,6,3,4,0
1558438706114846,0,-1,-8,-18,6,1,1,-1
1558438706130609,-1,-3,-2,1,-12,-9,-4,-3
1558438706130609,-1,-4,-5,-3,1,2,-2,-2
1558438706137759,2,0,3,9,-8,-10,-8,-3
1558438706137759,1,-2,-1,-7,4,8,8,1
1558438706153670,-1,0,5,3,0,-5,-1,-1
1558438706153670,-2,0,-1,-9,2,4,-2,0
1558438706153670,0,-2,-5,-3,1,-3,0,0
1558438706153670,-4,-3,0,6,-5,-7,-9,-4
1558438706168370,-1,-1,0,-6,-3,-5,-3,0
1558438706168370,1,0,8,8,5,8,8,3
1558438706175587,-2,-2,-12,-1,3,2,3,2
1558438706175587,-3,0,3,-6,-13,-11,-9,-5
1558438706190534,-1,0,-1,-2,-3,1,0,-3
1558438706190534,0,-2,-9,4,5,-3,-1,-1
1558438706197530,0,-1,-4,-4,-4,1,3,-1
1558438706197530,0,-2,3,9,0,1,0,0
1558438706213482,-1,-2,-4,-4,-6,-3,-6,-3
1558438706213482,1,2,5,3,-1,-4,-2,-2
1558438706214403,-1,-2,0,-1,1,1,4,1
1558438706214403,-2,-2,-6,-5,-8,-10,-4,-2
1558438706229207,2,2,0,1,5,2,1,-2
1558438706229207,-2,-2,1,3,3,5,0,2
1558438706235195,-3,-1,-1,2,2,-5,-3,-4
1558438706235195,3,2,7,0,4,8,2,0
1558438706250149,-2,-3,-8,-1,1,-1,0,-1
1558438706250149,-1,0,-3,-8,-5,-6,-7,-5
1558438706257133,-1,-1,1,8,-4,-7,-3,0
1558438706257133,1,0,-1,-9,9,10,6,2
1558438706273086,-3,-2,2,0,-8,-7,-5,-2
1558438706273086,0,-4,-2,8,9,9,3,1
1558438706274085,0,1,2,-9,-7,-5,-3,-1
1558438706274085,-1,1,-2,9,-3,-9,-7,-1
1558438706289047,0,1,2,-2,-2,-3,-2,0
1558438706289047,1,0,-6,-23,-8,-3,0,0
1558438706295327,-4,-2,-2,1,2,8,0,1
1558438706295327,0,-2,2,-1,-1,0,-2,2
1558438706310286,-4,-4,-2,-1,-6,-7,-6,-4
1558438706310286,0,-1,5,7,-2,-6,-6,-3
1558438706316972,1,-1,-4,-3,-4,-2,2,-1
1558438706316972,-3,-2,-3,-4,-2,-1,-5,-5
1558438706333197,-1,-4,-4,-3,-7,-5,-5,-3
1558438706333197,2,1,0,3,7,3,5,2
1558438706333925,0,-1,0,3,11,10,10,5
1558438706333925,-4,-1,-5,0,-10,-9,-6,-4
1558438706348884,0,-1,2,-5,2,-2,-4,-3
1558438706348884,-2,-1,-2,1,-3,8,6,1
1558438706355096,-3,0,0,-10,-6,-12,-7,-2
1558438706355096,-3,-1,-4,-7,-7,-1,-3,-1
1558438706369830,2,1,4,4,14,16,11,6
1558438706369830,1,0,2,14,0,-12,-3,-1
1558438706378023,2,0,-1,-12,-9,-2,-3,-2
1558438706378023,-2,-2,1,5,4,2,-1,0
1558438706393009,-4,-1,-5,-4,-2,0,-1,-1
1558438706393009,-3,-4,-6,-6,-6,-1,-3,-3
1558438706399981,0,-1,1,5,0,-4,-2,-3
1558438706399981,2,-1,0,-1,0,-1,0,-1
1558438706408855,-2,0,6,2,-4,-6,0,-2
1558438706408855,0,2,-3,-3,-3,-6,-7,-1
1558438706415706,1,-2,0,-1,0,3,2,0
1558438706415706,3,3,8,8,21,15,16,7
1558438706430696,-2,-3,-1,-7,-1,-1,-2,-1
1558438706430696,-4,-3,-5,-10,-16,-11,-7,-5
1558438706437647,-1,-1,-5,-2,3,1,-1,0
1558438706437647,2,-1,-4,2,-3,-6,-1,-2
1558438706452608,1,1,2,4,-1,-1,2,0
1558438706452608,-3,0,-1,-6,-1,7,0,-1
1558438706459623,-4,-3,0,1,-6,-13,-13,-8
1558438706459623,-1,0,-1,4,4,14,4,1
1558438706468565,-1,-2,-6,2,0,-6,-1,-1
1558438706468565,-1,-1,2,5,0,-6,-2,-1
1558438706474585,-1,-2,-9,-17,-3,7,11,1
1558438706474585,1,2,2,0,1,-3,-3,-2
1558438706489797,-1,-4,-1,-5,-11,-6,-7,-4
1558438706489797,2,1,4,5,15,12,9,5
1558438706497786,-2,1,8,14,6,-5,-4,-2
1558438706497786,0,1,0,-6,-10,0,-1,-1
1558438706512731,-3,-6,-14,-22,-3,7,-1,-2
1558438706512731,-4,-4,-2,7,-10,-11,-7,-5
1558438706520715,-1,-1,0,-2,3,-3,-1,-4
1558438706520715,0,-1,-2,-13,-7,-7,0,1
1558438706528703,-1,-3,-3,3,-3,-8,0,-1
1558438706528703,-3,-3,-4,-5,0,3,-2,0
1558438706535387,-1,-1,-2,-3,-6,-1,0,-1
1558438706535387,-5,-3,2,6,6,-2,-6,-5
1558438706550351,1,0,0,6,-3,-2,-3,-2
1558438706550351,2,0,2,-2,10,17,11,3
1558438706557617,1,1,2,4,1,-5,-2,2
1558438706557617,-2,-2,-1,7,-6,-9,-3,-3
1558438706572514,0,4,2,-9,3,6,6,1
1558438706572514,-3,-5,-5,-8,-14,-7,-8,-7
1558438706580513,0,1,5,8,13,19,8,2
1558438706580513,-2,-6,-18,-10,-5,-8,-2,1
1558438706596324,-2,-2,2,1,3,-2,-5,-2
1558438706596324,-1,-1,1,4,4,-7,-1,1
1558438706596324,0,0,-1,-7,-14,-8,-6,-2
1558438706596324,-2,-4,-2,-10,-10,-4,-3,-3
1558438706610412,0,2,11,9,2,2,-1,-2
1558438706610412,-4,-5,-19,-12,-9,-18,-6,-4
1558438706617172,-1,-2,-6,-5,1,12,6,1
1558438706617172,-1,0,0,4,7,8,2,-2
1558438706633160,0,0,4,4,4,-1,2,3
1558438706633160,-2,-2,2,-3,-11,-2,-6,-2
1558438706640346,-1,-2,-9,-3,-2,-4,-2,-2
1558438706640346,-3,-2,0,-5,-3,2,-4,-3
1558438706656136,0,-2,-3,10,9,8,3,0
1558438706656136,-1,1,-3,-10,-2,0,6,4
1558438706656136,-4,-3,-2,-1,-9,-13,-8,-4
1558438706656136,0,-1,1,1,-8,-3,-1,-2
1558438706670026,1,1,1,6,17,3,6,5
1558438706670026,-1,0,1,2,-3,-4,-6,-5
1558438706677006,-2,-2,-6,-8,-5,-1,2,-1
1558438706677006,-2,-1,6,4,6,2,0,-2
1558438706693218,-4,-2,3,-7,-8,-10,-6,-3
1558438706693218,-1,-2,-7,4,-3,-2,-1,-1
1558438706699945,3,2,-5,-5,10,1,6,3
1558438706699945,-1,0,-4,-2,-8,-6,-6,-4
1558438706715937,-2,-3,-12,-23,-15,-6,-3,-4
1558438706715937,-2,1,9,8,5,7,5,2
1558438706715937,-2,-2,9,6,-4,-1,-5,-1
1558438706715937,0,1,-1,1,7,1,1,0
1558438706729864,-1,-2,-6,-5,-7,-1,0,0
1558438706729864,0,0,1,-4,-3,-1,-1,-1
1558438706736845,-2,-4,-1,4,8,5,0,0
1558438706736845,-1,-1,-3,-6,-3,-4,2,2
1558438706751805,2,2,5,8,2,2,-1,1
1558438706751805,-2,-2,-1,7,7,-2,-5,-3
1558438706759784,0,-1,-4,-15,-10,0,-3,-3
1558438706759784,-2,-2,11,14,2,1,3,0
1558438706775742,0,2,0,5,6,8,3,1
1558438706775742,1,2,0,-3,7,2,3,4
1558438706775742,0,0,-1,-1,-3,-8,-5,-2
1558438706775742,-3,-5,-10,-14,-14,-4,-5,-5
1558438706789964,-2,-1,-5,-3,-10,-12,-3,-3
1558438706789964,1,1,3,2,6,2,4,2
1558438706797683,-1,0,10,13,9,9,3,-1
1558438706797683,-1,-3,-12,-6,2,3,0,-2
1558438706821101,-1,-3,-6,-1,-1,-1,-4,-3
1558438706821101,-1,1,-2,-5,-6,-2,-4,-2
1558438706821619,-2,-4,-3,-6,-5,-3,-3,-3
1558438706821619,-2,-1,3,2,-7,-5,-5,-1
1558438706835585,1,0,1,-2,9,0,-1,2
1558438706835585,0,-2,-1,2,-6,-6,-1,-1
1558438706836579,1,-1,7,4,-1,-1,-4,0
1558438706836579,-1,-1,-6,-4,6,-1,4,1
1558438706849546,-3,-2,-11,-10,-12,-1,-1,-3
1558438706849546,-3,-2,-1,-3,2,3,1,-3
1558438706857525,-2,-2,5,8,-3,-4,-4,-1
1558438706857525,0,1,1,-1,-5,-2,-7,-1
1558438706872514,0,-4,-1,-5,-3,2,-1,0
1558438706872514,3,-1,1,2,7,8,11,2
1558438706879464,-2,1,0,10,6,-4,0,-2
1558438706879464,0,-1,-2,-9,2,-1,2,3
1558438706895421,-2,-3,2,3,-8,-6,-3,-2
1558438706895421,-2,-2,-6,-7,-13,-7,-12,-7
1558438706896419,-1,1,1,1,4,7,8,2
1558438706896419,-1,2,6,5,12,5,4,1
1558438706911383,-1,-1,-5,-3,-3,1,-1,-1
1558438706911383,0,-1,-3,0,-1,6,2,0
1558438706917364,0,1,2,1,1,-3,-5,-2
1558438706917364,-1,-3,0,-4,-8,-9,-7,-4
1558438706932384,0,1,1,0,-3,-2,3,1
1558438706932384,-2,-5,-10,-11,-10,-11,-8,-4
1558438706948282,-5,-3,-3,-3,-6,-1,-2,-2
1558438706948282,-2,-4,-7,-4,-6,-4,1,-1
1558438706956260,-1,1,10,14,12,8,3,4
1558438706956260,1,0,1,-3,9,7,3,1
1558438706962246,0,-1,-5,-10,-8,-4,-3,-3
1558438706962246,0,3,8,8,-1,1,-1,-1
1558438706971219,-3,-1,-9,-13,-4,-4,-5,-4
1558438706971219,-2,-2,-6,-8,-9,-8,-5,-3
1558438706977203,-2,0,-3,-1,-4,-6,-2,-1
1558438706977203,-1,1,3,4,8,6,3,1
1558438706992381,0,-2,1,1,5,2,3,-1
1558438706992381,-1,0,4,9,14,9,8,2
1558438706999541,-1,-4,-8,-11,-11,-8,-5,-1
1558438706999541,-2,-2,-5,-12,-15,-15,-10,-3
1558438707015496,-4,-3,-1,1,-5,-4,-7,-2
1558438707015496,-2,1,3,5,-3,3,1,0
1558438707016317,3,1,1,6,18,10,4,2
1558438707016317,-1,-2,-3,-2,1,2,0,0
1558438707031276,1,1,1,6,3,-2,-5,-2
1558438707031276,2,0,1,-7,-8,-11,-1,0
1558438707037261,-3,-3,-4,-4,-3,-1,0,0
1558438707037261,0,-1,-3,0,3,4,2,-1
1558438707052222,-1,0,-1,-2,-3,1,2,-2
1558438707052222,0,-2,-1,3,1,0,-2,-1
1558438707060200,2,0,0,-2,-2,-6,-3,-1
1558438707060200,0,-1,-3,-7,-6,-9,-2,-2
1558438707075159,-3,-1,2,4,-8,-10,-2,-4
1558438707075159,-1,3,2,5,8,17,6,2
1558438707076157,-1,0,-2,-2,7,4,3,3
1558438707076157,0,-2,-1,10,1,-7,-3,-1
1558438707091118,0,-2,-8,-21,-1,0,-1,-2
1558438707091118,-2,-2,-1,7,-7,-9,-10,-5
1558438707097101,-1,0,-3,-9,4,15,7,1
1558438707097101,1,0,3,4,5,-6,-2,-1
1558438707112063,-1,0,-1,0,-3,-4,-1,-2
1558438707112063,0,-1,-2,2,3,1,2,0
1558438707120240,-1,-2,0,0,-10,-4,-5,-1
1558438707120240,1,-1,-2,-2,-2,2,2,-2
1558438707135005,1,-3,1,2,8,8,4,0
1558438707135005,-5,-2,-1,-5,-3,-4,0,-3
1558438707135998,-1,-1,3,4,2,2,0,0
1558438707135998,-1,2,-1,-2,-4,-6,-5,-2
1558438707150960,-4,-3,-2,2,-6,-5,-2,-1
1558438707150960,1,-1,1,-2,8,3,-3,-1
1558438707156942,-1,-4,-7,-2,-3,-4,2,0
1558438707156942,-1,1,8,8,1,3,-1,-2
1558438707172965,-3,-5,-14,-18,-8,-7,-4,-3
1558438707172965,0,-1,1,-7,-13,-16,-8,1
1558438707179880,-1,-2,5,5,5,7,0,-2
1558438707179880,0,0,0,6,6,8,5,0
1558438707195837,0,0,6,7,1,-3,-1,0
1558438707195837,2,-2,-10,-9,-6,-3,0,-1
1558438707195837,-3,-2,-7,-14,-10,-9,-7,-4
1558438707195837,-2,-2,1,5,-6,3,-3,-2
1558438707211845,2,3,7,10,13,11,4,2
1558438707211845,-1,-2,-2,-1,3,0,5,2
1558438707217778,-1,-3,-2,3,3,-7,-6,-3
1558438707217778,1,-2,-3,-10,-3,3,-1,-2
1558438707232985,0,-2,2,6,-3,-1,-3,-2
1558438707232985,0,1,-3,-1,1,1,2,1
1558438707239728,-1,0,-5,-3,2,5,3,1
1558438707239728,-1,-3,-1,-5,-4,-2,-2,0
1558438707255678,-1,-1,1,3,1,-1,-1,2
1558438707255678,-3,-2,-1,-3,2,4,-1,-2
1558438707255678,0,3,8,4,-1,-1,4,0
1558438707255678,2,1,-8,-7,6,0,0,0
1558438707271636,-5,-5,-6,0,-3,-2,-1,-4
1558438707271636,-1,-1,-5,-2,-8,-3,-3,-2
1558438707277620,-1,-1,-1,3,8,6,0,-1
1558438707277620,-1,0,5,3,4,4,2,1
1558438707292580,1,0,-4,0,-3,-4,-1,-2
1558438707292580,-2,-4,3,-3,-8,-12,-7,-3
1558438707299819,2,-1,-4,0,2,3,-3,-2
1558438707299819,-2,-1,7,11,-1,-3,-1,1
1558438707315518,-1,1,-5,-10,5,2,2,3
1558438707315518,0,-1,-4,4,-2,-1,-3,-3
1558438707316520,-2,-1,2,-2,-13,-10,-9,-3
1558438707316520,-5,-6,-21,-20,-12,-7,-3,-2
1558438707331475,1,1,7,8,11,13,11,5
1558438707331475,-3,-2,-1,-3,0,3,1,-1
1558438707337627,-1,0,4,5,-2,0,0,0
1558438707337627,-2,-3,0,4,-8,-15,-12,-5
1558438707352417,-1,0,0,-3,-3,-6,-1,1
1558438707352417,0,-1,-2,1,8,4,6,4
1558438707359567,-2,-3,-6,-9,-9,-6,-5,-4
1558438707359567,-2,0,1,4,10,9,1,-2
1558438707374519,0,-2,-2,-7,-10,-6,-4,-4
1558438707374519,-1,-1,5,2,6,2,2,-1
1558438707382339,0,0,2,1,-8,-3,1,1
1558438707382339,4,3,0,-1,19,11,7,5
1558438707391314,-2,-2,1,1,-6,-7,-6,-3
1558438707391314,-4,-3,-3,-1,-8,-11,-10,-5
1558438707397460,0,-1,-3,-6,0,10,5,-1
1558438707397460,-1,0,-2,-2,-4,-4,3,1
1558438707412259,-2,0,3,4,1,3,-1,-2
1558438707412259,1,0,0,2,10,2,-2,-1
1558438707420239,-4,-1,-4,-7,-8,-13,-9,-2
1558438707420239,-2,-3,1,7,2,-2,-2,-3
1558438707435196,0,0,-2,-12,-4,6,2,1
1558438707435196,0,2,6,4,1,1,3,3
1558438707442241,0,-2,-5,-4,4,-3,0,0
1558438707442241,-2,-4,-6,-6,-7,-3,-5,-3
1558438707459132,-1,-1,1,7,-2,2,0,-2
1558438707459132,-1,-2,0,-5,-18,-4,-3,-2
1558438707460130,1,0,-2,6,29,7,5,3
1558438707460130,-2,-2,-7,-8,-8,-7,-3,-1
1558438707472156,-1,-1,-2,-6,-3,1,-1,2
1558438707472156,1,2,6,4,4,6,2,-1
1558438707480077,-5,-4,-10,-2,-11,-12,-3,0
1558438707480077,2,1,0,-3,-3,1,8,2
1558438707495037,0,-1,-2,3,7,1,-1,-1
1558438707495037,-1,-2,0,3,-1,0,-2,-2
1558438707502018,-2,-2,-1,-6,-14,-8,-9,-6
1558438707502018,-2,2,9,10,6,7,3,-1
1558438707510993,-3,-2,-9,-19,-2,-7,0,-1
1558438707510993,-3,-3,-6,-3,-8,-9,-6,-3
1558438707516978,-2,-2,0,4,-2,1,6,0
1558438707516978,-2,-1,-3,-10,9,14,3,1
1558438707531938,0,0,8,15,-2,-7,-5,-2
1558438707531938,-1,0,0,-4,-1,-2,0,0
1558438707539917,-1,-2,-1,-4,0,-3,-2,-1
1558438707539917,-2,-1,7,3,-10,-9,-5,-4
1558438707554878,1,-3,-7,-1,7,9,1,0
1558438707554878,-2,-1,-3,1,-2,3,3,1
1558438707570874,1,2,7,4,7,9,4,3
1558438707570874,-1,-1,-1,-4,-6,-5,-3,0
1558438707578041,0,-2,-2,-1,6,7,-1,-1
1558438707578041,0,-1,-7,-3,-3,-6,-2,-2
1558438707578813,-2,-3,-1,-3,-6,-2,-1,0
1558438707578813,-1,0,-2,0,0,-2,-2,-1
1558438707592004,0,1,-1,1,-5,-5,-5,-2
1558438707592004,2,1,2,0,8,-1,1,1
1558438707599755,-3,-2,-4,-4,-3,-5,-5,-5
1558438707599755,-2,-1,-1,-3,-5,0,-4,-3
1558438707614941,-3,-1,1,3,-4,-1,-1,-3
1558438707614941,3,2,5,2,12,2,5,5
1558438707622696,-3,-4,-2,-7,-5,1,4,-1
1558438707622696,-3,-3,-4,-2,-9,-8,-6,-2
1558438707637671,-2,-4,-3,0,-9,-6,-5,-1
1558438707637671,-4,-1,-2,-2,-2,-5,-7,-2
1558438707638655,2,3,-1,-5,5,8,3,0
1558438707638655,0,1,2,-2,-4,-3,1,0
1558438707652616,-2,0,-4,-6,5,8,5,-1
1558438707652616,-3,-3,-1,-1,-6,-3,-6,-5
1558438707659597,-1,0,1,3,-5,-9,-3,-3
1558438707659597,-1,-2,-4,0,0,-2,-1,-3
1558438707674559,1,1,1,-9,2,4,5,1
1558438707674559,0,-5,0,-1,-4,1,-2,-2
1558438707682536,1,1,1,7,5,4,0,0
1558438707682536,1,-1,0,10,9,-10,-2,1
1558438707698493,-1,-4,-8,-17,-12,-5,-2,-1
1558438707698493,-2,0,-3,1,5,7,-1,-3
1558438707698493,-2,1,4,1,-9,-2,-2,-1
1558438707698493,2,1,4,0,12,4,7,4
1558438707712470,-3,-3,-11,-1,-2,-3,-2,-2
1558438707712470,-2,0,-4,-3,-11,-9,-6,-1
1558438707719436,0,-2,-7,-4,3,-5,-1,1
1558438707719436,-2,0,5,2,-1,11,6,2
1558438707734405,1,2,6,8,6,-2,-2,2
1558438707734405,-2,-2,1,-1,-9,-2,0,-2
1558438707742375,0,-2,-4,-16,1,1,0,-2
1558438707742375,-4,-3,-10,-9,-7,-5,-6,-4
1558438707758331,1,-1,-1,-2,-8,-8,-2,-2
1558438707758331,0,-1,-5,-4,-2,0,1,-1
1558438707758331,0,-1,2,13,10,6,-1,0
1558438707758331,-1,-4,-3,-10,-16,-5,-6,-2
1558438707772295,0,1,2,-6,5,4,0,1
1558438707772295,-4,-4,-7,-1,5,-1,-1,-3
1558438707779276,-1,-1,0,2,-5,-6,0,-4
1558438707779276,1,2,1,3,1,-2,5,0
1558438707795233,0,-3,-2,-2,5,2,-3,-1
1558438707795233,-1,-2,4,2,-1,0,1,2
1558438707802248,-1,-2,-2,-4,-8,-5,-4,-2
1558438707802248,-3,-3,-5,-7,-6,-11,-7,-1
1558438707818172,0,2,4,11,8,9,6,1
1558438707818172,1,1,-8,-5,4,2,2,0
1558438707818172,-3,-2,-4,-6,-6,-6,-5,-3
1558438707818172,2,3,6,5,2,8,3,-1
1558438707832172,-1,-1,2,6,1,-5,1,0
1558438707832172,0,-1,1,-1,2,3,0,0
1558438707840113,-4,-4,-1,2,-7,-13,-8,-3
1558438707840113,-1,-3,-9,-16,-12,-3,-4,-4
1558438707855079,2,4,8,6,9,5,6,3
1558438707855079,-1,0,-2,1,2,5,3,1
1558438707862055,-1,0,2,3,-1,2,-3,-3
1558438707862055,-7,-6,-13,-11,-4,-8,-5,-3
1558438707878017,-3,-5,-3,0,-20,-20,-8,-3
1558438707878017,1,1,1,-5,8,6,1,0
1558438707879013,2,1,7,-2,1,5,8,4
1558438707879013,-2,-4,-8,3,7,8,0,-3
1558438707892971,-4,-2,-3,-10,-11,-11,-6,-5
1558438707892971,2,-1,0,1,-6,-4,-5,-2
1558438707899958,3,0,2,4,7,-3,-2,0
1558438707899958,0,-1,-1,2,9,5,6,1
1558438707914914,0,-2,-3,1,2,-2,1,0
1558438707914914,-3,-3,-1,2,-15,-12,-5,-5
1558438707921894,-2,2,1,-4,-3,6,0,-1
1558438707921894,-1,-1,-2,-2,-5,0,-5,-3
1558438707937853,-3,-4,1,-1,-4,-2,-5,-5
1558438707937853,-1,-1,1,-2,-1,1,6,2
1558438707938850,1,0,2,6,12,5,2,0
1558438707938850,0,-1,-2,-7,-6,-5,-1,-1
1558438707951817,2,0,4,4,5,5,6,5
1558438707951817,-2,-1,-5,-6,2,3,0,1
1558438707959799,-6,-3,-3,1,-9,-4,-2,-2
1558438707959799,3,1,7,4,20,7,4,4
1558438707975009,-1,2,4,16,4,3,-2,-1
1558438707975009,-4,-4,-17,-30,-21,-15,-10,-6
1558438707982731,-5,-2,-5,-1,-5,-4,0,-3
1558438707982731,1,3,5,2,7,6,5,2
1558438707997720,-2,-2,-5,-4,-7,-7,-5,-2
1558438707997720,1,0,2,10,14,7,4,1
1558438707998693,-3,-4,-1,-3,-8,-14,-12,-7
1558438707998693,-1,-1,-2,1,-8,-7,-5,-4
1558438708012653,1,0,-1,2,6,1,3,0
1558438708012653,-1,1,11,13,4,3,1,1
1558438708019635,-1,-3,-14,-12,-9,-1,-4,-2
1558438708019635,0,-1,-1,7,0,2,2,0
1558438708034603,-2,-2,-1,-5,1,-1,-2,-2
1558438708034603,-2,0,5,-3,-3,-2,1,1
1558438708042578,2,1,-5,-3,6,4,3,0
1558438708042578,0,0,2,3,6,4,-4,-2
1558438708057534,-4,-3,-5,-7,-9,-5,-3,-3
1558438708057534,-4,-4,-1,1,-6,-5,-2,-2
1558438708065511,3,0,0,0,4,3,3,2
1558438708065511,-3,-1,1,0,-7,-8,-4,-1
1558438708072497,-2,1,-1,0,3,5,-1,0
1558438708072497,1,1,0,-1,-5,-4,-4,-2
1558438708079473,3,1,4,12,5,5,6,2
1558438708079473,3,-1,3,-7,2,0,5,4
1558438708094439,-3,-2,-3,2,-4,-7,-5,-5
1558438708094439,-4,-1,0,5,3,3,-1,-1
1558438708102414,-5,-5,-13,-15,-19,-13,-8,-5
1558438708102414,3,3,3,7,13,4,4,1
1558438708118370,2,-1,1,0,7,2,1,1
1558438708118370,-1,-4,-6,-7,-8,-4,-5,0
1558438708118370,-2,-3,11,15,5,8,1,0
1558438708118370,0,-1,-1,6,-3,1,-3,-1
1558438708132340,-3,-6,-19,-22,-13,-9,-5,-4
1558438708132340,4,3,6,9,7,6,3,0
1558438708139313,2,2,-1,-4,7,6,4,3
1558438708139313,-4,-3,2,4,-6,-8,-4,-3
1558438708155278,1,0,5,1,0,0,0,-1
1558438708155278,1,1,-4,-5,2,-1,-2,-1
1558438708162253,-5,-4,-2,-1,-8,-14,-9,-5
1558438708162253,-3,-3,-6,-3,-12,-4,-3,-1
1558438708178215,1,3,1,5,14,17,7,4
1558438708178215,-1,-1,5,4,5,-1,1,-1
1558438708178215,0,0,0,-2,6,-3,-2,-1
1558438708178215,-3,-3,-6,-3,-7,-2,-3,-4
1558438708192173,-3,-5,-3,-5,-12,-12,-5,-3
1558438708192173,0,-2,1,2,5,0,-1,-2
1558438708200180,0,-1,-3,-3,-2,-7,-4,0
1558438708200180,-1,-1,7,8,7,5,3,1
1558438708223089,1,0,-4,-11,-8,3,3,1
1558438708223089,-1,-3,-10,-8,-11,-4,0,-1
1558438708224086,-2,-2,0,7,16,7,3,-1
1558438708224086,-2,-3,-6,-6,-6,0,-3,-4
