timestamp,emg1,emg2,emg3,emg4,emg5,emg6,emg7,emg8
1558438761524961,-3,-3,-10,-25,-13,-8,-8,-6
1558438761524961,-2,-1,-5,-13,-10,-6,-9,-4
1558438761525958,1,2,6,21,14,11,6,4
1558438761525958,2,0,0,-8,2,-9,2,3
1558438761526955,-4,-2,-8,-14,-13,-6,-4,-2
1558438761526955,-4,-6,-8,8,-1,2,-2,-4
1558438761526955,1,1,-2,-13,-2,2,1,-1
1558438761526955,-2,-1,-4,-9,-6,-10,-8,-4
1558438761538940,0,-1,2,16,9,4,1,0
1558438761538940,-2,0,7,4,-2,-2,2,5
1558438761546902,-2,-3,-5,-13,-9,-10,-6,-6
1558438761546902,0,-2,1,4,-1,4,0,-1
1558438761552886,1,0,3,2,-1,-2,-4,-3
1558438761552886,-1,0,0,1,0,1,-5,-1
1558438761567844,-4,-6,-12,-18,-7,-8,-3,-3
1558438761567844,-1,0,1,6,4,3,2,1
1558438761577818,1,-2,0,-2,-3,-7,-4,0
1558438761577818,0,0,4,0,0,4,1,0
1558438761582806,1,2,3,7,-3,-12,-7,-1
1558438761582806,-3,-1,-1,-3,2,8,4,0
1558438761598762,-4,-1,3,9,4,4,1,-2
1558438761598762,1,-2,-9,-16,-8,-3,-1,-3
1558438761606741,2,0,1,7,4,-2,1,1
1558438761606741,-1,-1,-3,-2,1,3,-1,-3
1558438761646635,0,-2,-4,-8,-4,-8,-7,-6
1558438761646635,-1,-2,4,19,-10,-10,-3,-1
1558438761646635,0,3,7,-2,4,7,3,2
1558438761646635,-1,-2,-4,-13,4,1,-2,-1
1558438761647632,0,0,-3,7,-2,-4,2,1
1558438761647632,-1,0,-4,-10,-4,1,-3,-3
1558438761650624,-1,-1,0,0,-6,-12,-2,0
1558438761650624,-2,0,1,3,-7,-3,-7,-2
1558438761658603,0,1,4,4,9,5,6,7
1558438761658603,-2,0,0,0,6,-1,0,-1
1558438761665584,-1,0,-1,-7,-8,3,-2,-3
1558438761665584,-2,-4,-1,13,2,2,4,-4
1558438761672566,-3,-3,-3,-20,-11,-4,-5,-2
1558438761672566,1,0,-4,-2,4,3,1,3
1558438761687526,1,0,2,9,6,6,4,2
1558438761687526,1,-1,-3,-1,-3,-11,-7,-1
1558438761696502,2,2,2,2,4,8,7,-1
1558438761696502,4,0,-2,1,3,-1,-2,-1
1558438761702485,-4,-5,-1,6,-6,-4,-3,-4
1558438761702485,0,-1,-7,-11,3,7,2,1
1558438761718443,-1,0,-1,0,-4,-5,-1,-1
1558438761718443,-4,-2,-1,-3,-7,-3,-4,-4
1558438761725425,0,0,-2,4,4,1,4,3
1558438761725425,-2,1,4,-9,-1,2,5,1
1558438761733402,-4,-1,1,3,-7,-7,-8,-3
1558438761733402,-3,-1,-6,-12,0,11,3,-3
1558438761748362,-3,-1,-6,-7,4,-2,-1,-1
1558438761748362,-1,1,2,4,-2,-5,1,-1
1558438761764320,1,1,0,3,4,6,-2,-1
1558438761764320,-2,-2,0,-7,-10,-11,-3,-2
1558438761765317,-4,-4,-6,-4,-3,1,-4,-4
1558438761765317,-1,1,-2,0,-4,-14,-3,3
1558438761778283,0,2,4,14,12,5,2,1
1558438761778283,0,-3,-12,-13,-6,-2,5,-1
1558438761785265,1,-2,0,3,0,-8,-4,-2
1558438761785265,-4,-5,-3,-3,-8,-1,-7,-7
1558438761793242,-2,-2,1,-2,-1,3,-4,-5
1558438761793242,-4,-1,7,10,-5,-12,-5,-1
1558438761808201,-1,-3,-15,-23,-14,-2,0,1
1558438761808201,1,-1,-2,1,13,9,7,3
1558438761816180,0,-1,-3,-4,-4,-10,-3,1
1558438761816180,-1,-1,7,5,3,3,-3,-1
1558438761823161,-3,-5,-7,3,-12,-15,-13,-8
1558438761823161,-1,1,-3,-7,-6,8,4,2
1558438761839119,-2,-1,-3,-4,5,10,10,4
1558438761839119,1,0,0,-3,-2,-8,-2,0
1558438761845104,-1,1,8,7,-4,-7,-4,0
1558438761845104,-1,-1,-2,3,0,2,-6,-4
1558438761853083,-2,-1,-1,0,-1,6,2,-1
1558438761853083,1,-1,-2,-1,-1,3,-3,0
1558438761868042,2,4,5,4,16,19,9,3
1558438761868042,-1,-3,-3,-7,-4,-4,-1,-3
1558438761875023,-1,0,1,4,-3,-11,-5,-2
1558438761875023,0,-2,-3,-3,-3,0,-2,-3
1558438761884000,3,1,-1,-12,4,0,-1,-3
1558438761884000,-1,-1,0,4,0,1,1,1
1558438761898960,-4,0,-5,-3,-5,0,-6,-2
1558438761898960,-4,-1,-1,8,5,-2,4,1
1558438761905941,-4,-4,1,-2,-1,-3,-4,-2
1558438761905941,2,0,-2,-1,4,7,0,1
1558438761912922,-2,-3,-2,-7,-9,-5,-1,-1
1558438761912922,1,-1,-1,3,5,-6,-2,-1
1558438761935862,1,2,6,5,9,5,-1,-2
1558438761935862,-1,-1,2,2,-11,-10,-6,-4
1558438761936859,0,-1,2,0,3,3,1,-1
1558438761936859,-2,-2,-10,-15,-7,4,1,-2
1558438761950821,-1,-6,-5,5,-1,-2,2,-1
1558438761950821,-1,1,-1,1,3,2,-2,-1
1558438761958800,0,-2,3,5,7,-7,-2,-2
1558438761958800,0,-1,4,-4,-9,-5,-4,0
1558438761965781,-3,-1,-3,-2,-8,-4,-2,-2
1558438761965781,1,4,8,8,9,12,8,1
1558438761972764,0,-3,-3,2,5,6,2,-1
1558438761972764,0,0,3,6,6,2,3,0
1558438761987722,-1,-1,-2,-2,-3,-7,-5,-1
1558438761987722,-2,-3,0,-8,-15,-10,-6,-2
1558438761995701,0,-1,-4,-3,-8,-11,-6,-2
1558438761995701,0,1,0,1,12,12,3,2
1558438762011659,1,1,2,1,2,9,6,1
1558438762011659,1,1,2,4,5,-1,1,1
1558438762018647,-3,-3,-1,2,-4,1,1,-2
1558438762018647,-3,-1,-6,-7,-9,-8,-9,-4
1558438762033600,-1,0,-4,-3,0,1,1,1
1558438762033600,-2,-1,2,2,6,-8,0,1
1558438762034597,0,-1,-1,-5,-7,2,-2,-1
1558438762034597,-1,0,3,10,-2,-6,-8,-6
1558438762056538,-1,3,4,-8,-2,-2,2,1
1558438762056538,0,-2,-8,-7,-1,8,4,0
1558438762056538,0,0,-2,-2,5,6,1,1
1558438762056538,-3,-2,0,-2,-5,-5,-6,-3
1558438762079477,2,-2,-2,0,-1,-1,1,2
1558438762079477,-6,-6,-3,-3,-9,-14,-11,-4
1558438762080475,-3,-3,-3,0,-1,-2,0,0
1558438762080475,3,2,8,6,13,11,6,1
1558438762085477,-1,-2,-8,-7,-1,0,1,0
1558438762085477,0,2,2,5,-3,-4,0,-3
1558438762101419,-3,-3,-7,-15,-8,-5,-5,-2
1558438762101419,-3,-3,-3,-2,-7,1,-3,0
1558438762108399,-2,-1,-3,-4,-9,-5,-5,-3
1558438762108399,5,2,9,11,11,-5,7,5
1558438762115380,1,1,3,6,7,4,-2,-3
1558438762115380,-1,-2,-8,-13,-10,-6,-2,-2
1558438762130342,-3,0,3,9,-2,1,0,-1
1558438762130342,-4,-5,-8,-11,-13,0,-8,-5
1558438762138320,0,-1,7,10,4,-2,1,0
1558438762138320,3,1,-1,3,12,3,8,3
1558438762145301,-3,-2,-5,-11,-9,-13,-10,-7
1558438762145301,-2,-1,-2,0,-4,-2,-2,0
1558438762153279,0,-3,-4,-8,-3,3,-2,-1
1558438762153279,1,1,4,6,2,8,3,0
1558438762168251,1,0,1,-2,3,2,-3,-1
1558438762168251,-2,-5,-7,-2,-9,-15,-9,-2
1558438762175221,-1,-1,-3,-4,1,-2,2,1
1558438762175221,-3,-3,2,6,0,-5,-2,0
1558438762190181,-1,-1,-5,-8,-5,0,-2,-2
1558438762190181,-2,-1,4,4,3,5,0,0
1558438762198161,-1,-2,-1,3,-5,-3,-1,-2
1558438762198161,0,-4,-6,-9,-2,-7,-2,-1
1558438762205142,0,1,1,4,4,6,3,0
1558438762205142,-2,1,-4,-7,-1,-3,2,0
1558438762213119,-2,0,-1,4,0,-1,-5,-3
1558438762213119,-3,-1,-6,-8,-2,2,0,-1
1558438762228080,2,-1,0,2,-1,1,2,-1
1558438762228080,-1,-1,2,4,-4,-3,-5,-1
1558438762235061,1,2,5,-7,3,4,5,5
1558438762235061,-3,-2,-4,-3,-7,-4,-4,-2
1558438762250021,-5,-5,-9,-14,-10,-14,-6,-3
1558438762250021,0,0,4,9,5,9,2,-2
1558438762258998,0,-1,-5,-8,6,13,0,-1
1558438762258998,0,0,4,0,1,-5,-1,1
1558438762264981,1,2,3,6,5,-7,4,5
1558438762264981,-1,-3,-2,-6,-8,-7,-3,-4
1558438762280940,-2,-3,-5,-2,-2,-1,-1,-2
1558438762280940,0,0,4,6,-1,1,1,0
1558438762287930,0,-1,0,2,3,4,0,1
1558438762287930,-3,-2,-3,-6,0,0,1,-1
1558438762295898,0,1,-1,1,-1,-13,0,0
1558438762295898,-2,-2,-2,-7,-10,-5,-3,-3
1558438762318836,-1,-2,5,10,-5,-8,-5,-2
1558438762318836,0,-1,-5,-11,14,25,12,5
1558438762319835,-1,-1,-3,0,-4,-3,-1,-3
1558438762319835,-3,-2,-3,-1,2,6,0,-2
1558438762325817,-2,0,2,-1,-1,-4,-3,-2
1558438762325817,0,-2,-7,-7,-6,-1,-5,-4
1558438762340778,-3,-2,-4,4,-1,-1,-4,-3
1558438762340778,0,0,-6,-12,-7,-4,2,0
1558438762347760,-1,-1,1,4,3,1,2,2
1558438762347760,-1,0,4,0,-2,-12,-4,-1
1558438762355738,-1,0,4,2,-1,6,3,1
1558438762355738,-4,-5,-8,-14,2,1,-4,-3
1558438762370699,-2,-3,-2,2,-1,-3,-4,-3
1558438762370699,-1,1,-1,-4,-3,-5,-6,-2
1558438762378677,1,0,2,4,2,-7,5,2
1558438762378677,-2,-2,7,11,3,-2,-7,-4
1558438762385659,-1,-2,-9,-14,-5,1,2,1
1558438762385659,1,2,3,4,3,4,-1,0
1558438762401615,-5,-5,-8,-8,-7,-5,-10,-4
1558438762401615,2,-1,2,4,0,2,1,2
1558438762407599,2,-3,0,-3,2,-3,-1,-2
1558438762407599,-1,-3,2,4,-7,-6,-5,-3
1558438762415577,0,-1,-4,-6,-7,5,6,0
1558438762415577,2,4,5,8,15,8,11,6
1558438762430537,-3,-1,2,-1,6,7,-3,-4
1558438762430537,-2,-3,-3,3,-1,-2,-3,-6
1558438762446498,0,-2,-4,1,-1,-3,-3,-2
1558438762446498,-3,-1,-2,-6,-11,-3,-4,-5
1558438762448490,2,0,1,5,8,14,8,3
1558438762448490,0,1,1,2,4,3,2,1
1558438762461456,1,-1,3,6,3,0,0,0
1558438762461456,-2,-2,-3,-6,-9,-5,-8,-2
1558438762468441,-3,-3,0,5,-5,-8,-5,-1
1558438762468441,-2,-1,-7,-10,-4,-5,1,2
1558438762475422,0,-1,-6,-2,-3,-2,1,1
1558438762475422,-1,-1,-1,0,6,6,2,-1
1558438762490380,0,-1,2,-1,-7,-6,-4,-3
1558438762490380,-2,-2,0,2,-2,-7,-1,-1
1558438762498357,1,-1,2,1,6,6,2,-1
1558438762498357,-2,-3,-8,-3,-2,-6,-3,-1
1558438762505338,0,2,1,5,1,4,1,-2
1558438762505338,2,0,0,-10,4,1,3,1
1558438762521296,2,-2,1,-2,-7,-9,-8,-2
1558438762521296,-3,-4,-7,-1,-7,-6,-4,-4
1558438762528279,-1,-1,2,1,2,3,3,3
1558438762528279,-2,-2,-6,1,-7,-4,0,-1
1558438762535263,-3,-1,0,0,5,-4,-2,0
1558438762535263,0,1,0,-2,1,0,-2,0
1558438762550224,-3,-1,-1,-6,-11,-6,-2,-5
1558438762550224,-2,-3,0,-1,-5,-4,-5,-2
1558438762559197,0,-1,-5,0,-1,-2,1,1
1558438762559197,2,2,-3,-9,1,-7,1,2
1558438762565179,-1,1,-1,-1,1,-3,-2,3
1558438762565179,-1,-2,0,2,3,7,-1,-2
1558438762581136,-4,-2,-8,-13,-7,-1,-4,-3
1558438762581136,1,0,7,11,4,7,2,1
1558438762588118,0,0,-4,-2,7,16,9,1
1558438762588118,-2,-2,0,0,-4,-5,-1,-1
1558438762595098,0,-1,-1,-1,-7,-8,-3,-3
1558438762595098,-1,-1,4,8,2,5,4,-1
1558438762610058,-2,-4,-9,-12,-7,-3,-5,-4
1558438762610058,3,1,6,9,6,6,9,4
1558438762619120,-4,-5,-6,-8,-4,0,-1,-2
1558438762619120,-1,-1,2,0,-1,4,0,-2
1558438762633192,-3,-4,2,2,-10,-9,-9,-4
1558438762633192,-2,-2,-3,-7,-4,0,-3,-2
1558438762641972,1,3,3,5,4,2,2,3
1558438762641972,-1,1,1,0,4,3,0,-1
1558438762656183,-2,-3,-8,-1,-8,-7,-4,-3
1558438762656183,0,-2,-4,-5,-2,-7,-2,-1
1558438762656983,3,1,4,6,9,6,7,1
1558438762656983,0,-2,-3,-6,-4,7,1,-2
1558438762671083,2,1,7,5,3,0,-2,-2
1558438762671083,-2,-3,-5,-1,3,6,0,-3
1558438762678925,2,0,-3,-5,-6,-9,-2,0
1558438762678925,-3,-1,-1,2,-3,-5,0,0
1558438762693229,-1,1,-1,-2,2,-6,2,3
1558438762693229,-2,-2,4,5,1,1,0,0
1558438762700872,-1,-1,2,6,6,4,0,-2
1558438762700872,-1,-2,-5,4,2,2,-4,-4
1558438762716031,-1,0,-3,-5,-10,-4,-4,-2
1558438762716031,-1,-1,-3,-5,-1,-10,-2,0
1558438762716828,-1,0,6,4,5,12,4,1
1558438762716828,1,-1,0,-2,4,0,-1,1
1558438762730831,0,-3,-4,-1,1,0,0,-2
1558438762730831,1,5,-2,-3,-4,-3,-4,2
1558438762738766,-3,-6,-1,-7,-14,-15,-12,-5
1558438762738766,-2,-1,1,1,1,5,5,-1
1558438762752742,0,-1,-3,4,8,6,3,-1
1558438762752742,-3,-1,-1,-4,-8,-7,-4,-2
1558438762760719,-2,-1,-4,-1,-11,-8,-8,-5
1558438762760719,-1,-2,1,-2,-1,-6,1,1
1558438762775667,1,-1,6,6,4,-6,2,0
1558438762775667,-3,0,-3,-9,3,9,5,0
1558438762776665,-3,-2,-2,-3,-6,-6,-5,-4
1558438762776665,-2,-2,2,-3,-6,-4,-3,-2
1558438762790915,-2,-3,-8,-3,-2,-1,-2,-1
1558438762790915,2,0,1,5,2,-2,1,0
1558438762798607,-3,-3,-5,-13,-2,0,-4,-3
1558438762798607,1,-1,-7,-7,-7,-9,0,1
1558438762812569,-1,-1,3,1,2,4,-2,0
1558438762812569,-1,0,4,13,1,0,-3,-2
1558438762821549,-2,-2,-5,-19,-9,-7,2,0
1558438762821549,-1,0,-1,0,-3,-1,-8,-4
1558438762836680,0,0,6,4,7,5,5,2
1558438762836680,1,-1,-5,-6,3,0,7,4
1558438762836680,-2,-1,0,3,-1,1,-6,-2
1558438762836680,0,-2,5,9,0,5,-2,-5
1558438762850496,-1,-4,-15,-16,-7,-26,-6,-1
1558438762850496,-2,-1,1,-4,-9,3,1,-3
1558438762859441,0,1,0,5,12,2,2,2
1558438762859441,-2,1,3,0,-1,4,0,0
1558438762873404,-1,-3,-3,2,-1,6,-5,-5
1558438762873404,0,-1,2,1,-5,-12,-9,-2
1558438762881382,-1,0,-3,-4,-1,1,2,1
1558438762881382,2,-2,-2,2,0,-3,1,2
1558438762896342,0,0,-2,1,2,0,0,0
1558438762896342,-2,-3,-2,-4,0,3,-1,-2
1558438762896342,1,-1,2,5,0,-2,-4,-4
1558438762896342,-4,-3,-1,-4,-4,-5,-3,-3
1558438762910305,0,0,2,5,-2,-1,1,0
1558438762910305,0,0,-2,-10,0,3,2,-1
1558438762918285,0,0,-1,3,-1,-1,3,-1
1558438762918285,-1,-2,-9,-8,1,-1,-3,-1
1558438762933714,-1,-1,2,-2,-5,1,-3,-2
1558438762933714,2,1,5,8,7,2,2,1
1558438762941225,0,3,6,6,3,10,4,2
1558438762941225,-4,-4,-11,-6,-5,-10,-5,-3
1558438762956377,-2,-3,-8,-20,-10,-3,-5,-4
1558438762956377,0,-2,0,5,7,7,-2,0
1558438762957181,0,-2,-3,-2,-3,-7,-3,-2
1558438762957181,-3,-2,3,3,-5,-2,-2,-2
1558438762971180,2,3,4,7,11,7,8,4
1558438762971180,-3,-5,-19,-15,-12,-9,-1,0
1558438762979399,2,-1,1,6,5,7,2,3
1558438762979399,1,1,2,4,2,4,-3,0
1558438762993329,-4,-3,-1,-14,-17,-10,-10,-6
1558438762993329,0,2,10,6,1,-4,-3,0
1558438763001309,-4,-4,-9,-5,-4,-4,-3,-2
1558438763001309,0,0,0,-5,-4,-7,-2,-1
1558438763016269,0,-1,1,7,7,12,5,3
1558438763016269,-2,-3,-4,0,-3,-12,-7,-2
1558438763016269,-2,-2,-3,-8,-11,-14,-7,-2
1558438763016269,3,0,2,-1,7,7,9,3
1558438763030266,-1,1,0,1,-7,-3,-4,-2
1558438763030266,-3,-2,-3,2,6,6,0,-1
1558438763039660,0,0,5,8,-6,-14,-3,-2
1558438763039660,1,-1,-7,-15,5,6,5,0
1558438763053520,-1,-1,-3,2,-2,0,3,-1
1558438763053520,0,1,3,-2,0,4,2,-1
1558438763061149,-3,-3,-1,0,-2,7,-1,-1
1558438763061149,-2,-1,1,4,4,-8,-2,0
1558438763076351,-1,-1,1,-6,-2,2,1,1
1558438763076351,-1,-6,-3,-1,-3,0,-4,-2
1558438763077107,0,0,-1,5,-4,-6,-1,0
1558438763077107,0,0,1,3,4,3,0,-1
1558438763090071,1,0,-4,-8,0,-6,1,2
1558438763090071,-4,-1,0,0,-3,-6,-3,-2
1558438763099046,-1,-3,4,3,-5,2,-5,-5
1558438763099046,2,1,0,-12,-7,-4,0,0
1558438763113039,-1,0,-1,2,7,5,0,0
1558438763113039,1,0,-1,-4,5,5,7,2
1558438763120990,-1,0,-9,-6,-8,-2,-4,-1
1558438763120990,-4,-1,-3,2,-1,-3,-10,-5
1558438763135948,0,0,3,-4,-12,-6,-2,-2
1558438763135948,0,-1,0,7,8,7,1,-1
1558438763136946,0,0,1,-6,7,1,5,0
1558438763136946,0,2,7,17,1,-5,0,0
1558438763149910,-1,-2,-9,-13,8,4,-3,-2
1558438763149910,-3,-1,-1,1,-12,-1,-7,-4
1558438763158887,-1,2,0,-3,0,-6,-2,1
1558438763158887,-1,-1,-8,-3,0,3,2,1
1558438763173284,-1,1,6,14,5,-3,-2,-1
1558438763173284,-2,-1,-4,-12,-8,-8,-5,-5
1558438763182100,-1,-3,-5,-3,-7,1,0,-2
1558438763182100,2,0,2,5,7,15,14,3
1558438763195816,2,0,2,2,-3,-2,-1,0
1558438763195816,1,0,-1,-1,4,5,1,1
1558438763203766,0,-4,-1,-5,0,1,1,0
1558438763203766,-3,-4,1,-4,-10,-10,-8,-2
1558438763210748,-3,-4,-5,-5,1,7,2,-3
1558438763210748,0,0,-3,0,-5,-14,-3,-2
1558438763218914,0,1,5,9,15,13,8,4
1558438763218914,-1,-1,0,-5,-10,-5,-1,-2
1558438763233159,0,-1,-2,1,0,-1,-1,-2
1558438763233159,-3,-3,3,10,1,-3,-7,-4
1558438763242134,-4,-1,-6,-14,-8,-2,-6,-5
1558438763242134,0,-2,-5,-12,0,-6,-5,-1
1558438763256071,1,1,5,8,3,3,8,5
1558438763256071,0,-1,-1,-2,-3,-2,3,-2
1558438763264074,2,-2,3,0,3,6,2,0
1558438763264074,-4,-1,-2,3,-10,-12,-12,-6
1558438763271047,0,-1,-4,-6,1,-3,4,1
1558438763271047,-1,-2,1,-1,-5,-6,0,-3
1558438763278567,-1,-2,-11,0,8,11,2,1
1558438763278567,-1,-1,8,9,-2,-4,-5,-4
1558438763292823,-6,-4,-8,-7,-10,-13,-10,-6
1558438763292823,2,1,3,4,9,10,6,3
1558438763301788,-2,1,2,0,-3,-3,-1,-2
1558438763301788,-1,-2,-1,2,-2,-2,0,-2
1558438763315763,-3,-1,1,-3,-3,-12,-10,-4
1558438763315763,2,1,-3,0,2,5,0,3
1558438763323746,2,1,1,5,3,1,2,0
1558438763323746,1,-1,-3,-2,1,0,-2,-1
1558438763330718,-2,-4,-7,-12,-3,6,0,-3
1558438763330718,-5,-2,-5,-3,-12,-14,-11,-2
1558438763338676,0,-1,-1,0,3,-5,-1,2
1558438763338676,0,1,3,-7,0,2,5,2
1558438763353621,-1,-3,0,5,1,4,-1,-2
1558438763353621,-2,-4,-5,-6,-2,4,-5,-4
1558438763369324,-1,1,2,3,7,6,4,0
1558438763369324,-1,0,-3,-5,-1,0,-1,0
1558438763375570,2,3,5,6,4,3,6,3
1558438763375570,-2,-3,-3,-5,3,0,3,-1
1558438763384364,-3,-2,0,-3,-15,-3,-5,-5
1558438763384364,0,-2,-11,-14,-5,-4,-1,-2
1558438763399478,0,1,3,9,8,4,0,2
1558438763399478,1,1,-1,-9,3,5,2,1
1558438763400243,-4,-2,0,2,-7,-11,-6,-2
1558438763400243,-1,-1,0,2,0,9,2,0
1558438763413302,1,1,1,4,-1,-5,-2,-1
1558438763413302,0,-2,3,0,-5,-5,0,-2
1558438763421188,-2,1,-2,-6,6,-1,4,2
1558438763421188,0,0,1,2,0,6,1,-1
1558438763435152,-3,-3,-3,-7,0,3,-2,-3
1558438763435152,0,2,2,8,6,0,3,1
1558438763444124,-2,-2,5,8,-2,-3,-2,-2
1558438763444124,-3,-4,-9,-7,-1,-3,1,1
1558438763459486,-1,-3,-3,-1,-9,-12,-6,-5
1558438763459486,-1,-3,6,6,-1,8,5,0
1558438763460083,1,-1,-9,-13,-1,4,2,-3
1558438763460083,-2,-1,-3,1,-1,-3,-2,0
1558438763473085,-3,0,5,8,-2,-12,-7,-2
1558438763473085,-2,-1,-7,-3,-4,1,-3,-3
1558438763481025,1,-1,4,8,3,-5,-4,-1
1558438763481025,-1,-2,1,1,-5,-6,-5,-5
1558438763496314,0,-1,-2,-8,1,4,7,2
1558438763496314,0,1,9,17,8,1,0,3
1558438763504466,-2,-3,-7,-13,-6,3,1,-1
1558438763504466,-3,-2,-3,1,-1,1,-3,-2
1558438763519537,-4,-2,-2,-6,-11,-4,-5,-5
1558438763519537,-1,-1,-4,-6,-1,-6,1,-1
1558438763519537,3,1,2,5,8,7,12,6
1558438763519537,1,-1,0,-3,-5,-9,-8,-2
1558438763533219,-2,-4,-5,-4,-7,2,-3,-2
1558438763533219,-2,-1,-1,2,-2,-2,-6,-3
1558438763541548,-2,-2,1,-6,2,0,-1,-1
1558438763541548,1,2,-1,-3,1,-3,3,1
1558438763556300,1,0,4,8,2,-5,-5,-1
1558438763556300,2,0,-7,-4,4,5,5,2
1558438763564405,2,2,6,7,-5,-13,-10,-1
1558438763564405,-3,-3,-3,-7,-2,1,-1,-4
1558438763579309,-3,-2,-1,0,3,11,3,-1
1558438763579309,-2,-3,-3,-6,-4,-9,-4,-2
1558438763580095,1,1,1,10,5,7,3,1
1558438763580095,1,1,-7,-8,-4,-3,-2,1
1558438763593173,2,2,1,-1,0,0,3,2
1558438763593173,-2,-1,-3,-3,-2,-3,-6,-2
1558438763601227,-1,-2,1,1,-7,-8,-4,-4
1558438763601227,-3,-2,3,1,5,5,1,0
1558438763616205,1,-1,-3,0,1,5,0,0
1558438763616205,1,2,3,1,-1,-5,-4,0
1558438763623980,1,-1,-5,-1,1,-6,1,0
1558438763623980,-3,-1,4,-3,-4,3,-3,-3
1558438763639145,-3,-4,-7,-4,-11,-10,-4,-3
1558438763639145,3,2,8,-2,13,13,11,5
1558438763639939,-3,-1,0,1,1,2,-6,-2
1558438763639939,0,-3,-3,6,3,1,1,1
1558438763652903,-1,-3,-4,-4,-4,-5,-4,-2
1558438763652903,-1,-1,-2,0,-11,-8,-8,-4
1558438763660878,-3,-1,-5,-7,-4,0,-1,2
1558438763660878,-1,1,-1,0,3,-5,4,1
1558438763676135,-1,0,5,6,2,-2,-2,1
1558438763676135,-3,-4,-12,-16,-16,-8,-6,-5
1558438763683864,0,-3,1,-2,4,2,0,-1
1558438763683864,0,0,-4,-1,-6,-9,-1,-1
1558438763699065,-2,-1,3,2,2,1,0,-4
1558438763699065,-2,1,3,-6,-11,-7,-4,0
1558438763699773,-5,-5,-14,-5,-14,3,1,-1
1558438763699773,-1,-2,1,3,6,-8,-2,-1
1558438763713033,2,0,-6,-4,6,6,0,-2
1558438763713033,-3,-4,-3,3,0,-3,-5,-2
1558438763721946,-2,-4,-3,-8,-13,-12,-8,-3
1558438763721946,-3,-1,5,12,9,16,8,3
1558438763735948,-4,1,-6,-13,-1,-3,3,3
1558438763735948,-3,-2,-2,0,-4,1,-1,-4
1558438763744654,-1,0,-1,0,-3,-5,-7,-2
1558438763744654,-1,0,7,4,1,0,-1,1
1558438763758733,-1,-1,-2,0,4,-3,-1,-1
1558438763758733,-2,0,1,0,-1,-7,-1,0
1558438763766624,-2,-1,1,1,4,2,-5,-2
1558438763766624,2,2,-2,-4,-5,13,4,0
1558438763773744,1,-1,-5,2,6,-2,-1,2
1558438763773744,0,1,1,2,0,10,3,1
1558438763781823,-2,0,-1,0,-2,-7,-2,-1
1558438763781823,-2,-2,-2,0,5,-2,-1,0
1558438763795806,-2,-2,-4,-13,-10,0,-4,-3
1558438763795806,-2,-1,-5,1,-1,-13,-7,-2
1558438763804501,2,2,4,2,6,9,4,-1
1558438763804501,2,-1,0,4,-2,8,3,0
1558438763818744,0,1,4,3,7,7,5,1
1558438763818744,-4,-5,-1,-3,-9,-13,-2,-2
1558438763826537,-1,-2,-5,-3,-2,-10,-6,0
1558438763826537,0,-3,-7,-8,-5,-4,-7,-4
1558438763832448,0,-1,3,7,5,9,1,0
1558438763832448,-1,1,1,3,-2,8,0,-1
1558438763841394,0,-1,1,1,2,0,3,0
1558438763841394,-3,-5,-11,-12,-2,-8,-6,-2
1558438763855649,-2,0,7,10,-3,-5,-4,-3
1558438763855649,0,-1,-10,-19,2,3,4,2
1558438763864333,0,0,-4,-1,1,-4,-2,-1
1558438763864333,-1,-1,3,5,1,-4,-5,-4
1558438763878299,1,-2,-4,-2,-2,-2,0,-1
1558438763878299,-1,-3,3,2,5,6,3,-1
1558438763887273,0,0,3,2,2,11,4,1
1558438763887273,-3,0,2,-2,4,5,-2,-1
1558438763893256,1,0,-2,-6,-7,0,0,0
1558438763893256,1,-1,-3,3,-1,-5,-2,0
1558438763902234,0,-1,-2,-4,-5,-5,-2,-4
1558438763902234,0,-1,-1,-2,-3,-11,-5,-3
1558438763915492,2,-1,1,3,8,10,11,3
1558438763915492,0,-3,-5,-5,3,2,-1,-2
1558438763924448,-3,-1,-8,-10,-1,6,0,-2
1558438763924448,-3,-3,-9,-8,-19,-11,-8,-4
1558438763938136,-3,-2,-2,1,-3,-1,-3,-3
1558438763938136,1,1,1,3,-5,-10,-5,1
1558438763947114,-1,-2,1,0,2,2,2,0
1558438763947114,1,-1,2,0,3,-1,2,0
1558438763953095,-1,-2,-3,-1,-9,-7,-2,0
1558438763953095,-2,-3,-2,-2,3,9,5,0
1558438763962129,1,-1,0,5,2,-5,-1,0
1558438763962129,2,0,1,6,0,-5,-2,-3
1558438763976022,-1,0,0,-4,1,2,1,0
1558438763976022,-3,-1,4,-4,-3,-8,-7,-6
1558438763984296,-4,-3,-12,-12,-16,-3,-6,-3
1558438763984296,1,2,-1,2,12,10,5,4
1558438763998234,-1,-1,3,3,4,0,0,1
1558438763998234,-2,-3,-7,-1,-5,-1,0,-1
1558438764006948,1,0,5,-3,-1,-2,0,0
1558438764006948,-1,-3,-3,-1,-10,3,0,-1
1558438764012952,1,1,0,-2,3,-11,-7,-2
1558438764012952,-2,1,0,-2,4,-1,0,1
1558438764021908,0,-2,5,1,6,5,4,-1
1558438764021908,0,0,-2,1,3,-2,-4,0
1558438764035867,-4,-3,-2,-1,-8,-7,-6,-2
1558438764035867,2,-1,0,-2,0,-3,-3,-1
1558438764043847,-2,-1,-5,-4,-8,-3,-3,-4
1558438764043847,0,0,1,6,6,-5,2,3
1558438764057807,-1,0,-3,-10,6,12,11,3
1558438764057807,-2,1,10,6,4,-1,-3,-3
1558438764066784,-4,-4,-11,-6,-4,0,-1,-4
1558438764066784,-2,-3,-2,-11,-17,-10,-9,-4
1558438764073100,1,0,-2,3,0,0,1,1
1558438764073100,0,2,-3,4,9,6,1,1
1558438764081832,-1,0,4,3,3,4,0,-1
1558438764081832,-1,-3,3,-2,-5,-9,-3,-2
1558438764096027,-1,-2,-4,-8,-13,-14,-7,-1
1558438764096027,-1,-1,-2,0,1,8,1,-1
1558438764104939,-2,0,1,4,0,-8,-7,-1
1558438764104939,-1,0,-3,-7,-3,2,5,0
1558438764117650,-4,0,5,4,2,5,-1,-5
1558438764117650,0,-2,-6,-7,-12,-7,-2,-3
1558438764126623,1,-2,5,6,5,-6,-5,-1
1558438764126623,-1,-1,-6,-7,2,8,2,-1
1558438764132645,-3,-3,0,-8,-9,-5,-4,-6
1558438764132645,0,0,-5,-3,-5,-1,-3,0
1558438764142581,2,0,10,6,8,8,4,2
1558438764142581,-2,-1,-4,-3,-7,-7,-6,-3
1558438764155547,1,-1,-5,4,7,10,6,1
1558438764155547,1,-1,0,-9,2,-5,1,1
1558438764164524,-3,-2,0,0,-15,-11,-5,-4
1558438764164524,1,1,8,15,9,18,9,3
1558438764177487,-3,-1,-4,-3,3,-11,-7,-3
1558438764177487,-3,-3,-4,4,-7,-1,0,-2
1558438764186463,-1,1,4,3,4,1,-2,0
1558438764186463,-5,-2,-4,-12,3,2,-1,-3
1558438764201422,-1,-2,-8,-1,-5,-7,-3,0
1558438764201422,-1,0,3,2,7,5,4,1
1558438764203416,-3,-2,-3,-1,-9,-4,-2,-1
1558438764203416,-2,3,0,6,-1,-7,2,-1
1558438764215830,0,0,0,3,1,5,1,1
1558438764215830,-2,-3,0,-1,-3,3,0,-5
1558438764224599,-1,0,-5,-6,0,-1,1,-3
1558438764224599,2,-1,1,1,0,-5,1,1
1558438764238324,0,0,0,-1,6,4,-1,1
1558438764238324,-3,-3,-4,-6,-8,-4,-8,-3
1558438764246748,-2,0,-1,-2,2,7,5,2
1558438764246748,-4,-1,0,2,-3,-10,-3,-2
1558438764253709,0,-2,-6,-2,-10,-1,-10,-5
1558438764253709,-1,-1,-2,3,0,1,4,0
1558438764262261,2,1,2,3,11,-4,3,5
1558438764262261,-2,0,-3,-5,1,-2,-5,1
1558438764275709,-4,-4,-2,1,2,2,-1,0
1558438764275709,0,-1,-4,-2,-3,-8,-2,-1
1558438764285199,-1,0,2,0,-4,3,-3,-2
1558438764285199,3,3,5,8,1,-1,6,3
1558438764298486,-2,-3,-7,-11,-11,-8,-3,-4
1558438764298486,-1,-1,0,5,0,5,1,0
1558438764307142,-2,-4,-8,-5,2,2,2,0
1558438764307142,1,0,5,-3,-7,-5,-9,-4
1558438764322178,-2,-2,4,6,-1,0,-2,-3
1558438764322178,-1,-1,-2,-2,-1,-5,2,0
1558438764323114,1,0,-1,-5,1,8,0,-1
1558438764323114,-2,-3,-4,0,-2,3,-1,-5
1558438764336391,1,1,6,3,-1,-12,-2,0
1558438764336391,-1,0,-3,-4,5,4,-3,0
1558438764344041,-2,-3,-1,-7,-2,2,-2,-1
1558438764344041,-5,-5,-5,-10,-10,-13,-7,-4
1558438764358512,0,0,-1,1,-3,-6,2,1
1558438764358512,0,0,2,-4,-3,0,-4,-2
1558438764367021,0,-1,-3,-2,0,6,2,0
1558438764367021,2,-1,3,7,1,-6,3,0
1558438764382275,-3,-2,-5,-11,-4,0,-2,-4
1558438764382275,-5,-3,1,3,-4,-5,-6,-4
1558438764382939,-1,-2,-5,-9,-4,2,2,1
1558438764382939,-2,-1,-2,-3,3,5,-2,2
1558438764396207,-1,1,0,1,7,-1,3,3
1558438764396207,0,-1,2,5,-6,3,-3,-3
1558438764405046,-2,-1,-10,-7,2,-3,4,2
1558438764405046,-1,-2,-1,-6,0,4,-1,0
1558438764418113,-2,-3,1,-1,-12,-9,-8,-4
1558438764418113,-2,0,0,5,3,-4,3,2
1558438764426822,2,2,2,7,4,-6,-3,1
1558438764426822,0,-1,-3,-10,1,9,2,0
1558438764441780,-2,-3,-5,-7,-2,-1,-5,-1
1558438764441780,0,-1,-3,-1,-7,-2,4,-1
1558438764442780,1,-3,2,1,-13,-14,-5,-2
1558438764442780,1,2,-3,4,14,9,4,2
1558438764455744,3,2,11,11,14,13,7,4
1558438764455744,-2,2,3,-3,2,0,2,1
1558438764464719,-6,-5,-11,-10,-6,1,-5,-4
1558438764464719,-3,-4,-3,6,-14,-15,-9,-5
1558438764477686,0,0,-6,-10,-4,0,0,-1
1558438764477686,1,1,3,8,10,6,2,2
1558438764486661,3,3,2,5,10,-3,2,2
1558438764486661,-2,-4,3,1,-10,-13,-2,-5
1558438764502044,2,-1,-6,-9,4,0,-1,-2
1558438764502044,0,-3,1,-3,-1,-1,-2,-2
1558438764504037,0,-2,0,-9,-2,-5,-4,-4
1558438764504037,0,-1,-13,-14,-12,1,1,1
1558438764516003,-2,1,7,5,6,3,-2,-1
1558438764516003,2,0,-6,-4,-1,-1,-1,-1
1558438764524560,0,2,2,5,-3,-4,-4,-3
1558438764524560,0,-1,4,2,3,-5,-6,-3
1558438764538882,-5,-8,-12,-14,-20,-12,-1,-2
1558438764538882,-1,0,2,7,8,6,-1,2
1558438764546572,0,1,5,5,1,-5,-2,2
1558438764546572,-2,0,-2,1,-1,3,0,-2
1558438764561468,-1,-1,-1,-1,-1,0,-5,-2
1558438764561468,-1,-2,-1,-15,-2,-6,2,0
1558438764563456,-4,-6,-10,-9,-11,-10,-8,-6
1558438764563456,1,0,-4,1,5,11,4,3
1558438764575482,2,0,4,7,4,2,2,0
1558438764575482,-1,0,0,-1,-3,-5,-1,1
1558438764584401,-1,-1,-1,1,-4,-3,-5,-2
1558438764584401,0,-1,-3,-1,2,2,2,-2
1558438764598369,-2,0,-2,0,4,8,5,3
1558438764598369,0,3,3,7,5,4,-3,-2
1558438764606398,-1,-2,0,-10,-11,-4,-3,-2
1558438764606398,-2,-5,-4,-4,-10,-11,-11,-4
1558438764622415,-1,-2,1,4,5,6,6,2
1558438764622415,0,-1,-1,9,7,-6,5,1
1558438764623296,-2,-2,-6,-11,0,3,0,0
1558438764623296,-2,-1,0,0,0,2,0,-2
1558438764635490,-2,-1,-3,-7,-10,-11,-7,-4
1558438764635490,0,-1,0,-4,-7,-3,-2,1
1558438764644243,2,0,6,10,13,5,7,-1
1558438764644243,-2,-2,-5,-3,-2,-5,-5,-1
1558438764658232,-2,-3,-1,2,-7,-3,-7,-4
1558438764658232,0,-2,-6,-14,0,9,5,1
1558438764667219,-1,0,1,6,-2,-5,0,1
1558438764667219,-1,-1,-1,-5,-4,-1,0,-2
1558438764682596,0,-1,0,5,6,2,0,2
1558438764682596,-3,-1,2,3,-7,-7,-6,-5
1558438764683135,1,1,2,4,3,7,5,0
1558438764683135,0,4,6,9,12,5,5,2
1558438764695103,1,0,-6,-21,-3,1,4,2
1558438764695103,-3,-4,-5,0,-4,0,1,-2
1558438764712057,-2,-1,-2,-2,-3,2,-2,-2
1558438764712057,-2,-1,-3,-5,-5,-11,-8,-3
1558438764718043,-1,-1,-1,6,-5,0,2,0
1558438764718043,1,0,7,7,11,-4,2,3
1558438764727016,-4,-2,-8,-8,-10,-7,-6,-3
1558438764727016,0,-1,-1,1,3,7,2,1
1558438764742345,-1,0,0,5,1,-3,-3,0
1558438764742345,-1,-2,-4,-5,-4,-5,-7,-2
1558438764742975,-1,-1,4,5,2,3,0,-3
1558438764742975,3,2,3,1,5,-2,2,2
1558438764755939,-4,-2,2,7,-1,-3,-6,-7
1558438764755939,-1,-3,-10,-11,-7,-1,-1,-1
1558438764764266,-1,0,1,1,0,-4,0,-3
1558438764764266,-1,-3,-6,-3,-10,-1,-3,2
1558438764777881,2,1,6,-3,13,1,9,4
1558438764777881,-1,2,4,7,-5,1,-2,-1
1558438764786859,-2,1,1,3,0,-1,-3,-2
1558438764786859,-1,-1,0,6,2,1,-3,-6
1558438764801875,-1,-2,-1,-4,-9,-11,-5,-2
1558438764801875,1,-1,-6,-15,-2,-1,4,4
1558438764803815,-1,-1,1,0,1,-3,-2,1
1558438764803815,0,0,-1,0,-1,2,-1,-3
1558438764816090,-2,-2,2,4,-4,-2,-9,-4
1558438764816090,-3,-3,-8,-4,-3,8,0,-5
1558438764824756,-1,-2,-1,3,2,-4,2,2
1558438764824756,-1,-1,4,5,3,-3,1,0
1558438764838024,-1,-2,-10,-16,-15,-6,-4,-3
1558438764838024,-1,-1,3,-1,3,-2,-3,-1
1558438764854678,0,-2,1,0,1,5,2,0
1558438764854678,-1,-2,-3,-5,-7,-1,0,0
1558438764861657,0,2,2,3,8,5,3,-1
1558438764861657,-3,-2,-6,-9,-20,-7,-9,-6
1558438764862654,-2,-2,0,7,3,-2,-5,-2
1558438764862654,1,2,0,1,5,0,6,4
1558438764875619,0,0,0,2,-1,0,-4,-1
1558438764875619,0,2,6,4,3,4,2,-1
1558438764884598,0,0,1,2,-4,-5,-2,0
1558438764884598,-3,-3,-8,-10,-5,-1,-5,-5
1558438764898602,1,0,0,6,-7,-9,2,-1
1558438764898602,-3,0,-3,1,0,0,-4,-4
1558438764906847,3,2,-2,-1,12,19,12,3
1558438764906847,-3,-2,0,-5,-1,-1,-3,-2
1558438764922569,-4,-3,-2,1,-3,1,-1,-2
1558438764922569,2,0,2,8,7,-3,2,3
1558438764923494,-3,-4,-2,-17,-12,-11,-5,-2
1558438764923494,-3,-1,-2,2,-3,-8,-4,-3
1558438764935742,2,1,1,2,1,9,6,2
1558438764935742,-1,-2,2,3,9,-7,0,0
1558438764944440,0,-1,-3,-2,-6,-6,-6,-3
1558438764944440,0,0,3,-2,-6,0,-4,-3
1558438764958689,-1,-5,-10,-11,-7,1,-6,-2
1558438764958689,-1,-1,-3,-9,-15,-14,-8,-3
1558438764967530,-1,-1,-5,6,18,18,14,3
1558438764967530,-2,0,2,-2,2,0,0,2
1558438764981336,1,1,5,7,3,1,-1,0
1558438764981336,-2,-3,-5,-7,-10,-7,-12,-7
1558438764983389,-1,-1,4,6,-7,-5,-4,-3
1558438764983389,0,0,-11,-20,-1,-12,3,3
1558438764995311,-2,2,1,2,4,-1,2,0
1558438764995311,-1,-3,-6,-4,2,6,1,-1
1558438765012256,-2,0,4,4,-4,-4,-3,-2
1558438765012256,-2,-4,-6,-5,-1,9,1,-3
1558438765018285,-2,0,3,5,2,1,-2,0
1558438765018285,0,-2,-7,-8,-5,-11,-1,0
1558438765027222,-2,-3,-5,-8,2,4,-2,-3
1558438765027222,-2,-3,2,8,-4,-10,-4,-1
1558438765041428,-2,-2,3,9,15,11,6,2
1558438765041428,1,0,4,-8,-3,4,-3,-1
1558438765048392,-3,-2,-7,-11,-8,-11,-8,-4
1558438765048392,-1,0,4,2,3,-2,-2,-1
1558438765064115,-2,-3,-10,-7,-5,-1,0,-2
1558438765064115,0,1,5,8,14,13,7,4
1558438765066112,0,-3,0,3,-4,-11,-8,-3
1558438765066112,-1,2,-1,-1,6,12,8,1
1558438765078078,-1,-2,1,-2,-6,-6,-8,-5
1558438765078078,0,0,-5,1,4,2,2,0
1558438765087056,-3,-1,-4,-9,-10,-2,-3,1
1558438765087056,1,-2,-2,4,2,7,-1,-1
1558438765102107,-1,-2,-1,-9,-2,-7,-3,-2
1558438765102107,1,-3,-1,4,6,9,5,0
1558438765108526,2,-1,5,7,0,-5,-5,-2
1558438765108526,-1,-3,-5,-4,-2,-1,3,-1
1558438765115498,-1,-1,-1,0,-7,-6,-8,-4
1558438765115498,1,2,2,4,2,-6,0,2
1558438765124450,-1,3,8,14,-2,-3,-2,0
1558438765124450,-2,-1,-11,-22,-6,-6,-12,-4
1558438765137919,-2,-3,-4,-1,-2,-5,-2,0
1558438765137919,-2,0,0,-2,3,15,7,0
1558438765146895,-1,-3,-2,-3,0,-4,1,0
1558438765146895,-1,2,7,16,3,5,5,1
1558438765162071,-2,2,1,-1,-3,-2,-5,-2
1558438765162071,-3,-3,-3,-3,-7,-5,-2,0
1558438765168274,0,-1,6,8,7,14,9,1
1558438765168274,0,-4,-4,-7,-7,-13,-6,-2
1558438765176263,3,2,-3,1,20,20,14,7
1558438765176263,-4,-5,6,7,-4,-14,-6,-4
1558438765185207,-1,-2,-2,-1,-7,-9,-7,-2
1558438765185207,0,-1,7,4,4,5,-1,-1
1558438765198127,0,1,-5,-3,1,3,5,3
1558438765198127,2,2,-4,4,-3,-6,-2,0
1558438765206973,-3,-3,-4,-8,-8,-3,-2,-5
1558438765206973,-1,-2,2,4,4,3,-1,0
1558438765220697,-1,-1,4,8,6,6,3,-2
1558438765220697,-3,-3,-7,-15,-8,1,-6,-6
1558438765227679,0,-2,-6,-9,2,-4,7,4
1558438765227679,1,2,11,12,7,3,5,2
1558438765244672,-2,-4,-5,-6,-6,-5,-6,-4
1558438765244672,-1,1,-4,-7,-4,0,-6,-3
1558438765245630,2,0,-7,-3,-2,4,1,-1
1558438765245630,1,2,2,2,5,5,9,5
1558438765257598,-2,0,6,1,-1,-11,-6,-1
1558438765257598,-3,-1,3,7,-5,-4,-6,-4
1558438765266573,-5,-2,-11,-20,-11,-5,-4,-3
1558438765266573,1,-1,-4,1,6,10,5,2
1558438765282032,2,0,3,1,-3,-5,-1,0
1558438765282032,0,0,-4,-2,-3,-9,-5,-3
1558438765288799,0,0,9,9,4,-4,-1,0
1558438765288799,-3,-1,-6,-1,-5,-4,-4,-3
1558438765304998,-2,-1,-7,-10,-4,2,0,-1
1558438765304998,0,-1,1,6,6,9,6,1
1558438765306778,-2,-1,0,-1,-5,1,-3,-2
1558438765306778,-2,-2,4,2,-11,-13,-4,-2
1558438765317761,2,-1,1,5,9,4,8,2
1558438765317761,-1,0,-6,-9,-9,2,5,5
1558438765326425,-2,-2,-1,2,4,-1,-4,0
1558438765326425,-3,-1,-7,-13,-7,2,-3,-2
1558438765341728,-5,-4,-5,-5,-17,-13,-15,-8
1558438765341728,1,0,10,15,9,7,7,2
1558438765348681,3,1,3,5,18,7,9,5
1558438765348681,-1,-1,-4,-3,-6,-1,-4,1
1558438765372446,-2,-1,1,-10,-1,-7,-1,-2
1558438765372446,-2,-2,-7,-15,-9,-4,-3,-4
1558438765373291,-4,-2,-1,1,-6,-4,-6,-6
1558438765373291,2,-2,-3,1,2,-6,-3,-2
1558438765378280,-1,0,0,-2,4,6,5,1
1558438765378280,-2,-2,-1,0,-1,-1,-5,-2
1558438765387252,-1,-2,-4,-3,-3,0,1,0
1558438765387252,-4,-2,-1,-6,-2,-4,0,0
1558438765401215,-3,-3,-2,9,-4,-3,-6,-5
1558438765401215,0,-2,1,-14,-4,-13,-4,-1
1558438765408520,6,2,-2,0,11,17,12,6
1558438765408520,0,0,-1,-2,3,7,0,-1
1558438765424450,-2,-1,4,7,-3,-10,-4,-3
1558438765424450,-4,-3,-4,-5,-5,1,-2,-2
1558438765426150,-1,-2,-4,-6,-8,-8,-9,-1
1558438765426150,-1,-2,0,-1,-3,0,-2,-4
1558438765438425,4,4,9,11,16,-3,6,6
1558438765438425,-3,-3,-4,-2,-5,2,0,-4
1558438765447091,-2,-3,-5,-11,-7,-9,-4,-4
1558438765447091,-3,-3,0,8,-1,2,1,-2
1558438765461054,-2,-2,-4,-10,-12,1,-2,-3
1558438765461054,1,-2,3,6,6,2,-4,-1
1558438765468347,0,3,0,0,1,4,6,3
1558438765468347,0,0,-2,-2,11,6,4,2
1558438765483992,-2,-2,-7,-9,-10,-6,-3,-4
1558438765483992,-1,-1,-1,2,-4,-5,0,-1
1558438765485988,1,0,2,7,2,8,-1,0
1558438765485988,-2,-1,1,-6,-6,-6,-4,-2
1558438765497982,-2,-3,-7,-9,-2,-3,-3,0
1558438765497982,0,-2,-1,7,3,-2,1,0
1558438765506933,-1,-1,-1,-9,-8,-7,-7,-4
1558438765506933,0,0,-7,-1,2,3,8,1
1558438765521393,-2,-1,0,-2,-5,2,0,-4
1558438765521393,0,0,4,-2,1,-2,-2,-3
1558438765527876,-3,-3,0,0,1,6,3,-2
1558438765527876,-2,-1,-3,-3,-10,-13,-5,-4
1558438765545066,-2,-2,-7,-3,2,-6,0,1
1558438765545066,3,1,5,7,9,8,6,3
1558438765545831,-2,0,-3,1,3,-4,-1,0
1558438765545831,1,2,2,-2,-3,1,-11,-1
1558438765558792,1,-2,-1,3,-5,1,-6,-3
1558438765558792,1,0,-6,-10,-6,-1,3,2
1558438765567002,-1,-1,6,13,4,-12,-4,-2
1558438765567002,-4,-3,1,-2,3,-2,0,-1
1558438765581121,-2,1,-1,2,-6,-1,-1,-1
1558438765581121,0,-2,3,2,5,4,1,0
1558438765590085,-2,-1,-2,-9,-12,-4,-7,-4
1558438765590085,3,-3,-7,-4,-1,-1,-2,0
1558438765605043,1,0,3,8,8,13,2,2
1558438765605043,-3,-2,-3,1,-1,-3,1,1
1558438765605674,-2,-1,7,6,1,3,0,-2
1558438765605674,-2,-3,-5,-10,-10,-15,-10,-5
1558438765617742,0,3,5,4,1,2,6,3
1558438765617742,-2,-3,-7,1,2,-3,-2,-3
1558438765626612,0,-4,-5,-16,-7,-2,-6,-1
1558438765626612,4,4,8,14,12,11,11,5
1558438765640911,-1,-1,-5,-4,-3,-6,-4,1
1558438765640911,-2,1,4,8,0,5,-4,-3
1558438765649551,-3,-3,-4,-7,-7,-9,-7,-6
1558438765649551,2,-1,-5,-1,-13,-7,0,0
1558438765664509,3,3,5,7,16,10,10,3
1558438765664509,-2,0,8,13,4,1,0,0
1558438765665589,-2,-2,-6,-7,-1,4,-5,-2
1558438765665589,-4,-5,-5,-8,-12,-3,-8,-6
1558438765677474,-1,-3,-5,-5,-9,-6,-1,-2
1558438765677474,2,0,-6,-11,2,-5,0,0
1558438765686881,1,0,2,8,0,8,7,-1
1558438765686881,-4,-4,-4,-10,-4,-9,-2,0
1558438765700414,0,-1,4,2,4,-1,-3,1
1558438765700414,-2,1,-3,-7,-3,-8,-4,-1
1558438765709391,-3,-1,-10,-8,-10,-1,2,2
1558438765709391,0,0,6,12,6,6,-1,0
1558438765724702,-4,-4,-4,-4,-11,-7,-7,-8
1558438765724702,1,-2,0,-1,-7,-7,-3,0
1558438765726374,3,0,8,5,14,1,3,3
1558438765726374,1,2,-1,0,5,7,5,1
1558438765738657,-3,-2,2,3,-1,-3,-3,-3
1558438765738657,-3,-2,-4,-7,-8,-7,-6,-4
1558438765746619,-1,0,1,1,-4,-10,-5,-1
1558438765746619,-3,-1,3,-4,5,3,6,1
1558438765760254,1,0,0,-2,1,1,-2,0
1558438765760254,0,0,-4,-2,-1,10,-1,0
1558438765769408,-1,-2,-3,6,7,11,8,1
1558438765769408,-2,1,-2,-6,-2,-7,-5,-2
1558438765784511,-2,0,1,2,-4,-7,-3,1
1558438765784511,-3,-4,-3,-4,-6,1,0,-4
1558438765786184,1,0,-4,6,2,-6,-2,-1
1558438765786184,-2,-4,0,-3,-8,-6,-7,-1
1558438765798481,-2,-1,-8,-11,5,11,5,0
1558438765798481,-3,-3,-2,-1,-6,-8,-9,-2
1558438765807129,3,1,4,9,6,7,6,4
1558438765807129,1,-2,1,-4,5,3,-2,-2
1558438765821119,-3,-1,-2,-2,-5,-5,-4,-4
1558438765821119,-4,-2,0,-6,-4,-2,0,-1
1558438765829420,-4,-3,-1,3,0,7,1,-2
1558438765829420,-1,2,0,-8,-1,-5,-8,-1
1558438765844030,0,0,3,7,5,13,10,4
1558438765844030,-1,-3,-6,0,3,7,2,-2
1558438765846024,1,1,1,0,8,5,11,3
1558438765846024,1,0,5,7,-7,-9,-6,-3
1558438765857994,-1,-3,-7,-13,-6,-1,-4,-5
1558438765857994,-1,-1,1,-2,-1,-6,-5,1
1558438765866968,-2,-1,3,2,0,-7,-3,-2
1558438765866968,-4,-3,-6,5,7,2,5,1
1558438765879936,-2,-2,1,3,3,2,-5,-4
1558438765879936,0,1,5,4,9,8,3,1
1558438765888910,-4,-3,-12,-11,-16,-22,-12,-2
1558438765888910,0,0,3,2,7,7,8,2
1558438765903905,0,1,5,5,-1,-2,-2,-1
1558438765903905,-2,-2,1,4,-5,-4,-3,-5
1558438765905863,0,1,2,-12,7,13,10,1
1558438765905863,-1,-2,-3,8,-4,-3,-2,0
1558438765926821,-2,-3,-7,-8,-7,-13,-8,-2
1558438765926821,1,1,0,-2,-1,-3,4,-1
1558438765927806,-3,-6,-4,-11,-5,-6,-6,-4
1558438765927806,-1,-4,-4,0,-5,-1,0,0
1558438765941184,-1,-1,-1,-6,-6,-5,-5,-3
1558438765941184,0,3,9,12,10,-2,3,3
1558438765948749,-2,0,-4,-9,-12,-2,-2,-3
1558438765948749,-2,-2,-2,-4,-3,10,0,-1
1558438765965042,0,-2,2,6,7,-7,-4,-2
1558438765965042,-3,-3,-5,-12,-7,0,-1,-1
1558438765965705,0,3,12,25,9,6,1,1
1558438765965705,-2,-5,-12,-19,-5,-4,-5,-3
1558438765978709,-1,1,-2,-3,3,6,9,3
1558438765978709,-2,-1,-4,-2,-7,-8,-7,-1
1558438765986649,-2,-2,-7,-4,-7,-4,-6,-5
1558438765986649,0,1,3,4,-2,-4,-4,-2
1558438766009740,1,-2,-5,-10,0,10,4,0
1558438766009740,-1,-2,-3,-5,-4,-9,0,0
1558438766010585,-1,-1,-2,-2,-1,-2,-7,-3
1558438766010585,0,1,4,11,3,2,-1,-2
1558438766032581,-1,-1,-1,-3,-4,-5,-3,-1
1558438766032581,1,-1,-2,-2,0,6,4,2
1558438766033721,-5,-6,-6,-7,-13,-8,-12,-9
1558438766033721,2,1,7,3,6,-7,3,5
1558438766038790,-1,1,5,8,9,-2,4,2
1558438766038790,-1,-4,-11,-17,-10,0,1,-1
1558438766054469,-3,-2,3,4,2,3,-1,-2
1558438766054469,0,-1,-1,-10,-4,-8,-3,-2
1558438766060452,-4,-4,-4,-3,-7,-4,-4,0
1558438766060452,-2,1,-1,4,0,-4,-1,0
1558438766069427,0,2,2,-3,-2,1,2,0
1558438766069427,-1,1,0,3,0,2,-1,-3
1558438766083391,-3,-3,-3,0,-13,-9,-4,-4
1558438766083391,3,2,5,10,19,16,8,2
1558438766090370,-2,-2,-8,-9,5,-4,1,3
1558438766090370,-2,-3,-3,-4,-8,-5,-4,-4
1558438766097351,-1,-2,0,-4,-8,-8,-8,-6
1558438766097351,-2,-1,5,3,2,-4,-3,1
1558438766106327,0,0,2,-3,0,-4,-6,-2
1558438766106327,-1,-3,-7,-5,6,17,14,3
1558438766120327,0,-2,-11,-11,1,6,4,1
1558438766120327,-1,-2,-1,1,-7,-20,-9,-2
1558438766129266,-3,-3,-1,0,-1,-2,2,0
1558438766129266,3,2,6,9,5,4,2,1
1558438766143229,-4,-1,0,1,2,-4,-3,-2
1558438766143229,-2,-4,-4,-8,-9,1,-2,-4
1558438766150240,3,-1,2,2,-3,-5,0,2
1558438766150240,-4,-2,-2,10,4,9,1,-3
1558438766158215,-2,1,1,1,-3,-7,-2,-1
1558438766158215,2,2,0,7,13,9,7,1
1558438766167166,-3,-3,-3,-7,-18,-10,-8,-4
1558438766167166,2,0,-4,-5,-5,3,4,2
1558438766180164,1,-1,-2,1,14,4,-1,2
1558438766180164,-2,-1,0,-5,1,-5,-7,-1
1558438766189107,-2,-1,0,-5,-4,1,-1,-4
1558438766189107,-4,-4,-7,-5,-11,-8,-6,-5
1558438766203069,1,3,2,2,-4,-3,3,2
1558438766203069,-1,-3,0,0,-6,2,1,-2
1558438766210049,4,4,3,12,19,6,12,6
1558438766210049,-1,1,0,-6,-2,-6,-4,-2
1558438766227005,-2,-4,3,2,-6,1,-3,-4
1558438766227005,-4,-4,-2,-5,-5,4,-3,-3
1558438766228004,-5,-2,-8,-10,-4,-5,-7,-5
1558438766228004,-1,0,4,0,-8,-13,-5,-2
1558438766239969,-1,0,-5,1,7,3,5,1
1558438766239969,-1,-2,-7,1,-2,2,-1,-3
1558438766248945,1,-1,0,-9,-5,-3,2,2
1558438766248945,0,-1,2,2,2,-6,-5,-3
1558438766263942,-1,-2,-2,-3,-6,0,-1,0
1558438766263942,2,0,5,3,2,-7,-2,-2
1558438766269889,-3,-4,0,6,2,2,1,-1
1558438766269889,0,-2,0,-4,-2,-2,0,0
1558438766286843,0,-1,1,-5,-7,1,-1,-2
1558438766286843,-2,1,-5,-5,0,-4,0,1
1558438766287842,-3,-4,-2,5,2,-2,-2,0
1558438766287842,-1,0,1,-1,2,1,-3,-1
1558438766299810,1,1,2,7,2,6,0,0
1558438766299810,-2,0,-4,-2,3,8,4,0
1558438766308787,-2,0,4,0,-3,-4,-2,-1
1558438766308787,0,-1,0,3,0,1,1,1
1558438766323747,2,1,4,7,3,-2,-1,-2
1558438766323747,-1,-5,-6,-6,-1,-2,1,-2
1558438766330726,0,1,-4,1,3,-3,-5,0
1558438766330726,0,-1,5,3,5,10,5,0
1558438766346686,-4,-1,-6,-12,-10,1,-6,-4
1558438766346686,-1,1,0,0,-9,-8,3,1
1558438766347681,2,1,4,1,12,9,6,1
1558438766347681,-1,0,0,11,6,-4,-2,-2
1558438766360648,-2,-2,-4,-17,-2,0,-2,-4
1558438766360648,-1,-3,-3,-6,-14,-8,-11,-5
1558438766369623,2,0,-5,-4,4,3,2,1
1558438766369623,-1,-1,3,-2,4,0,1,1
1558438766383585,-3,-5,-4,-4,-1,-5,-2,0
1558438766383585,-1,4,8,15,7,5,-1,-1
1558438766390566,-3,-1,-5,-10,-15,-7,-5,-4
1558438766390566,0,-1,-3,3,5,5,3,2
1558438766406524,1,-3,-9,-15,-6,-12,-5,-3
1558438766406524,-2,-1,1,-4,-6,9,3,-3
1558438766408518,-3,-4,4,12,1,0,3,1
1558438766408518,-3,0,-1,-10,-11,-15,-9,-3
1558438766420486,-1,-1,-1,6,5,8,3,2
1558438766420486,-1,-2,5,3,6,-4,-3,0
1558438766429463,1,0,-4,-4,-9,6,-3,-4
1558438766429463,-3,-2,-3,-2,-4,-4,-2,-2
1558438766443425,3,2,9,13,6,-3,2,2
1558438766443425,-1,-5,-17,-22,-7,-11,-8,-1
1558438766450407,0,-1,6,5,0,4,2,0
1558438766450407,-5,-3,-7,-11,-2,0,-2,-1
1558438766466364,1,2,6,9,3,3,2,-1
1558438766466364,1,2,3,5,3,-4,0,1
1558438766468359,-1,-4,-10,-3,-1,-1,-5,-1
1558438766468359,0,-1,-1,-4,-9,-8,-3,-4
1558438766480326,-2,-1,3,6,0,6,8,2
1558438766480326,-2,-3,0,-3,-7,-4,-6,-3
1558438766489305,-4,1,-4,0,6,-2,-1,1
1558438766489305,-2,-3,-1,-2,-1,9,1,0
1558438766503266,-1,0,-3,1,-3,-2,1,-1
1558438766503266,-1,-1,0,7,14,7,4,0
1558438766510247,-2,-1,2,-8,-6,-8,-5,-1
1558438766510247,-2,-2,-10,-8,-6,-7,-3,-2
1558438766527204,1,1,0,-1,-4,-4,0,-2
1558438766527204,-1,-3,-3,-6,-6,-4,1,-2
1558438766528199,1,0,3,2,4,7,4,1
1558438766528199,1,1,4,14,-1,-4,-3,0
1558438766540166,-2,-2,-2,-13,0,1,-1,0
1558438766540166,-1,0,1,0,7,2,-1,0
1558438766549142,-2,-2,-7,-7,-9,-3,-4,-2
1558438766549142,-2,-1,1,-3,0,-5,5,3
1558438766563105,-1,-4,-2,0,-7,-9,-9,-1
1558438766563105,0,1,3,8,-1,-3,-2,0
1558438766570088,-3,-6,-6,-4,-1,0,-3,-2
1558438766570088,0,0,3,5,-2,0,1,-1
1558438766587041,-1,1,-3,-6,5,1,1,-2
1558438766587041,-2,-1,-4,-2,-5,-2,-6,-2
1558438766588039,0,1,5,13,2,-5,0,-3
1558438766588039,-3,-1,-2,-5,-5,2,0,-4
1558438766600007,0,-2,-2,0,2,-1,-1,2
1558438766600007,1,-1,-3,-1,2,0,3,0
1558438766608982,-3,-3,-5,-10,-5,1,-3,-6
1558438766608982,1,-1,5,1,-4,-6,-5,-1
1558438766623943,-2,-2,-9,-8,9,5,1,1
1558438766623943,1,-1,4,11,1,3,1,0
1558438766629926,-1,0,-9,-20,-8,-3,-2,0
1558438766629926,1,-2,-1,3,-3,-10,-3,-2
1558438766646882,-2,-2,4,1,1,10,0,-2
1558438766646882,-3,-1,1,5,0,-3,-3,-3
1558438766647878,1,1,4,3,1,-1,1,1
1558438766647878,0,-3,-8,-8,0,2,-3,-1
1558438766660847,0,1,0,4,2,-5,-3,-2
1558438766660847,-1,-1,-2,-2,-6,-2,-1,-1
1558438766668823,-2,-2,0,-3,-1,-1,-7,-2
1558438766668823,-2,-3,-1,-1,-3,2,0,-2
1558438766683784,0,0,1,5,2,-3,2,0
1558438766683784,0,1,7,1,-7,2,-1,-2
1558438766690763,-3,-4,-8,0,-8,-5,-1,-2
1558438766690763,2,3,-1,-3,12,-1,4,6
1558438766706722,-2,-4,-4,2,0,2,-1,-3
1558438766706722,-1,0,-2,-3,-3,3,-5,-3
1558438766707719,1,-1,-1,-1,0,2,2,1
1558438766707719,2,2,7,11,8,2,2,0
1558438766728662,-1,-2,-12,-17,-20,-19,-7,-2
1558438766728662,1,-1,-2,-2,5,4,4,2
1558438766730658,-1,-3,-2,-5,0,4,-2,0
1558438766730658,-3,-3,0,-12,-14,1,-5,-4
1558438766743625,0,1,9,7,4,-1,4,4
1558438766743625,1,0,-5,-3,9,4,2,0
1558438766757584,1,3,7,15,1,-3,-1,-4
1558438766757584,-2,-2,-14,-24,-8,-3,-1,-4
1558438766766561,-2,-3,0,1,-4,3,-8,-7
1558438766766561,-4,-4,-7,-9,-12,-10,-3,2
1558438766768567,3,3,4,14,16,2,11,7
1558438766768567,0,0,2,3,-3,3,-3,0
1558438766780524,-2,0,7,5,-1,-1,-2,-3
1558438766780524,-2,-4,-7,0,0,-4,-1,-2
1558438766789500,-4,-3,-2,-7,-2,2,2,0
1558438766789500,-2,-1,-5,-2,-6,-2,-5,-2
1558438766803471,1,-2,-4,-8,-3,-2,1,1
1558438766803471,0,0,3,1,1,5,2,-1
1558438766810447,1,1,8,10,3,-3,-2,-1
1558438766810447,1,3,3,3,0,-2,3,-1
1558438766826402,-2,-3,-8,-9,-4,-2,-1,0
1558438766826402,-2,-1,-1,3,1,-1,-1,-1
1558438766828396,-4,-3,-5,-11,-3,2,-2,-3
1558438766828396,-1,0,0,4,4,-2,-2,1
1558438766840363,-1,0,9,7,3,1,-1,-1
1558438766840363,-1,-1,-7,-10,-5,-4,3,0
1558438766849339,0,-1,6,3,-3,-2,0,-1
1558438766849339,-6,-4,-10,1,-6,0,-5,-3
1558438766863303,-1,-3,-3,3,4,-2,2,-1
1558438766863303,-1,1,-2,-8,-1,1,-5,-3
1558438766870284,0,-1,1,4,2,0,2,-1
1558438766870284,2,1,1,-1,-11,-8,-4,-1
1558438766886241,-1,1,2,-2,8,14,11,5
1558438766886241,1,0,2,9,4,-6,-1,-1
1558438766888235,-4,-3,-9,-15,-8,-9,-7,-4
1558438766888235,-1,-1,-6,-3,2,6,0,1
1558438766900203,0,0,-2,-1,-7,-7,-5,0
1558438766900203,2,1,8,1,3,3,4,-1
1558438766909181,-3,-2,-9,-1,-2,-1,1,-2
1558438766909181,-3,-4,-2,-11,-5,-11,-3,-3
1558438766923142,1,3,4,10,1,7,2,0
1558438766923142,-4,-4,-4,-4,-2,-3,-2,-1
1558438766930124,-1,2,-1,-2,-6,-2,-3,0
1558438766930124,-1,0,-1,13,9,6,-2,-3
1558438766954060,1,0,4,-1,1,7,2,-1
1558438766954060,0,-3,-2,-5,-7,-10,0,3
1558438766956055,0,-3,-7,3,1,-1,-5,-3
1558438766956055,-5,-3,-4,-4,0,2,-1,0
1558438766960044,0,1,-1,0,4,1,-2,1
1558438766960044,-4,0,0,-4,-11,-10,-9,-5
1558438766969020,3,1,-4,-5,0,4,6,5
1558438766969020,0,-4,-2,-12,-1,-5,3,-3
1558438766982982,-5,-6,-11,-13,-10,-8,-7,-5
1558438766982982,-2,-2,4,8,-6,-1,-1,-1
1558438766989963,1,2,4,2,4,-1,-5,0
1558438766989963,-1,1,4,8,5,4,2,-2
1558438767005922,-1,1,-1,2,4,3,1,0
1558438767005922,-3,-3,-6,-10,-8,-7,-8,-5
1558438767012903,-1,-4,-2,3,-3,2,-2,0
1558438767012903,0,1,1,-3,5,4,9,6
1558438767036839,-1,-1,1,3,-2,-10,0,-1
1558438767036839,-1,4,2,-1,7,6,2,2
1558438767037836,-5,-4,-6,-6,-9,-5,-9,-6
1558438767037836,-2,-1,-1,12,-3,-3,-7,-6
1558438767043821,-2,1,-7,-12,-4,-4,2,-1
1558438767043821,2,-1,2,6,6,7,2,-1
1558438767049803,0,-1,5,-5,-2,-6,-4,-2
1558438767049803,0,-4,1,6,4,1,-5,-3
1558438767065767,0,0,-1,-2,-6,2,-3,-2
1558438767065767,-1,-1,1,3,-1,-2,1,1
1558438767072743,-2,0,2,4,5,2,6,1
1558438767072743,0,-2,-15,-20,-5,2,5,1
1558438767080720,-1,-1,-2,14,9,6,3,-2
1558438767080720,-2,-3,-5,-12,-5,-2,-2,1
1558438767088699,1,0,6,11,0,2,2,1
1558438767088699,-3,-1,1,-15,-7,-10,-11,-4
1558438767103659,-1,-2,-1,-2,-11,-7,-3,0
1558438767103659,-4,-1,1,7,7,4,3,1
1558438767110645,-2,0,5,6,8,8,8,0
1558438767110645,2,-2,-7,-2,-4,-7,-4,1
1558438767125604,-3,-3,0,-3,-7,-5,-9,-3
1558438767125604,2,0,1,-1,-2,0,3,0
1558438767132583,3,2,-2,0,-4,-7,0,3
1558438767132583,0,2,8,14,12,15,9,2
1558438767149537,-4,-6,-7,-9,-9,-19,-9,-5
1558438767149537,2,0,5,7,0,0,1,1
1558438767150534,-3,0,-3,-7,-2,0,-2,-2
1558438767150534,-2,-3,2,-2,-6,1,0,1
1558438767163500,-1,0,2,4,0,2,0,-1
1558438767163500,-3,-1,-6,-9,-4,0,-4,-1
1558438767170482,0,1,2,1,6,2,0,2
1558438767170482,0,1,4,6,-1,-4,-4,-2
1558438767186438,-3,-3,-6,-16,-10,-4,-7,-5
1558438767186438,0,-2,1,6,5,1,2,-1
1558438767192423,-2,-4,-8,-15,-15,-10,-8,-5
1558438767192423,-1,-2,2,5,-2,-9,-5,-4
1558438767209376,1,1,1,3,12,11,9,7
1558438767209376,-2,0,-5,3,0,-5,-7,-2
1558438767210377,-5,-5,1,-4,-1,2,-4,-4
1558438767210377,0,1,4,7,8,5,4,3
1558438767223338,-2,-3,-7,-13,-6,-3,-4,-4
1558438767223338,-1,0,-7,-2,-5,4,-1,-2
1558438767230320,0,-1,3,1,0,-6,-1,-1
1558438767230320,-1,-4,-8,-6,-10,-8,-5,-3
1558438767246278,1,1,7,4,10,5,0,-1
1558438767246278,1,-1,-6,-8,-3,-6,9,4
1558438767253260,3,-1,-1,6,11,3,1,2
1558438767253260,-3,2,1,-8,-6,2,1,-3
1558438767269217,-2,-4,0,6,-9,-6,-6,-5
1558438767269217,-4,-3,1,-8,-2,-5,-7,-3
1558438767270215,-3,-2,-6,1,-4,1,-1,-2
1558438767270215,0,3,1,2,2,4,3,3
1558438767283178,0,1,2,7,10,15,7,1
1558438767283178,0,0,4,3,5,7,6,3
1558438767290161,-1,1,-7,-8,-7,-12,-2,-2
1558438767290161,-1,-4,0,-2,4,3,3,-3
1558438767306118,-1,0,-6,-5,-12,-14,-7,-2
1558438767306118,-3,-3,-5,-7,-2,-2,-5,-4
1558438767313099,1,3,5,4,8,15,5,3
1558438767313099,1,2,-5,-6,-2,-7,0,2
1558438767330054,-3,-1,-4,-4,1,0,3,2
1558438767330054,-4,-5,6,5,-11,-10,-8,-6
1558438767331051,-2,-4,-3,1,-8,2,-5,-4
1558438767331051,-1,1,2,6,7,-3,3,3
1558438767343019,2,0,3,1,0,-9,1,2
1558438767343019,1,1,-5,-1,-5,5,1,2
1558438767350001,-1,-1,6,2,-3,-12,-6,-2
1558438767350001,1,-1,-3,-6,-5,5,-5,-2
1558438767365958,0,-1,-11,-11,0,4,0,-1
1558438767365958,0,1,3,5,0,-9,1,0
1558438767372940,3,1,0,-5,3,2,2,3
1558438767372940,-1,-3,2,9,6,2,-2,-1
1558438767388897,-6,-4,4,1,-8,-4,-6,-5
1558438767388897,2,2,-4,-9,-4,2,3,3
1558438767390892,-1,-3,-2,0,-4,0,2,-1
1558438767390892,2,0,1,0,5,0,-1,-2
1558438767402859,-1,-2,0,-1,-5,-8,-3,-1
1558438767402859,-4,-5,-6,-10,-5,0,-2,-3
1558438767411835,2,3,9,10,6,6,5,5
1558438767411835,-5,-4,-12,-11,-5,-3,1,-1
1558438767425798,0,-1,-3,-6,-3,1,-3,-1
1558438767425798,0,0,-2,-3,-3,-7,-1,-2
1558438767432780,-3,-2,-9,-5,-5,-7,-2,-2
1558438767432780,-3,0,2,-4,-6,-2,0,-1
1558438767448736,2,2,3,3,0,-2,-1,3
1558438767448736,-2,2,14,15,16,4,6,3
1558438767450732,-4,-2,-1,-5,-6,-7,-6,-6
1558438767450732,0,0,-2,-3,-4,-1,-3,-5
1558438767462699,-1,-3,-4,7,1,-5,-1,-1
1558438767462699,-1,-3,-7,-12,-7,4,-5,-4
1558438767471675,-3,-3,-3,0,-6,-5,-3,-1
1558438767471675,2,1,0,-2,3,-1,3,3
1558438767485641,-3,-1,3,3,-1,2,2,-3
1558438767485641,2,1,-4,1,9,11,5,1
1558438767492619,1,-1,3,2,4,4,2,0
1558438767492619,-3,0,2,2,-6,-8,-10,-4
1558438767509576,-1,-2,-9,-16,-11,-8,-4,-2
1558438767509576,-4,-4,-11,-5,-1,-3,5,1
1558438767510574,-3,-2,-3,-1,-4,0,-1,-2
1558438767510574,0,-1,2,2,-4,5,0,-1
1558438767522541,3,1,7,6,8,-10,-2,1
1558438767522541,0,0,1,-6,5,5,-2,-1
1558438767531516,-3,-3,-6,-5,-4,-5,-2,0
1558438767531516,-1,0,5,8,2,-1,0,0
1558438767546475,0,-1,-4,-12,1,9,-1,-2
1558438767546475,1,1,-5,3,-11,5,0,-3
1558438767552459,-1,-2,2,7,2,-7,-6,-2
1558438767552459,0,1,-4,-9,12,10,5,3
1558438767569416,-2,0,6,6,6,2,-1,-3
1558438767569416,-2,-1,0,2,-1,0,1,1
1558438767570411,0,-2,-4,0,1,5,1,-3
1558438767570411,0,-3,-5,-16,-6,-2,1,0
1558438767582379,3,2,1,12,5,2,3,0
1558438767582379,-4,-3,-4,-9,-8,-9,-10,-7
1558438767591354,-3,-4,1,-1,-5,-3,-3,-4
1558438767591354,2,0,4,5,1,-4,3,3
1558438767606315,-3,-4,-10,0,-2,0,-3,-2
1558438767606315,-2,-1,-3,-1,1,-4,-3,-1
1558438767612299,-3,1,1,-2,-3,-2,0,-2
1558438767612299,-2,-3,-5,-2,-7,-5,-7,-4
1558438767629255,-1,-4,-6,-15,-1,4,1,-1
1558438767629255,1,-1,4,2,-4,-5,-2,-1
1558438767630251,1,2,2,-1,0,1,2,1
1558438767630251,-3,-1,0,3,4,-4,-4,-1
1558438767643217,-2,0,-5,-7,-8,-4,-4,0
1558438767643217,0,-2,-6,-4,-4,-8,-2,0
1558438767652193,3,2,2,0,8,7,2,-1
1558438767652193,-5,-6,-6,0,-10,-4,-3,-5
1558438767666154,-1,3,13,19,25,18,14,6
1558438767666154,-1,0,-2,-11,2,0,2,0
1558438767673136,2,-1,-3,-2,-5,-8,-5,-1
1558438767673136,0,0,-5,-9,-9,-3,-3,-2
1558438767696080,-1,-2,0,1,-4,0,-3,-3
1558438767696080,-2,-2,3,7,2,2,-3,-1
1558438767698070,-3,-2,0,-1,-3,-3,2,-2
1558438767698070,0,-1,1,2,3,9,6,0
1558438767703056,-1,0,-4,-10,-9,-8,-2,-2
1558438767703056,-1,1,2,6,9,6,2,1
1558438767712033,0,1,-2,2,6,6,1,-1
1558438767712033,-2,0,4,-5,0,-3,-1,-2
1558438767725996,-1,-2,0,-2,-6,-10,-2,-1
1558438767725996,-1,-1,-4,3,-3,-6,-5,-2
1558438767732980,-1,0,-4,-8,2,2,1,2
1558438767732980,3,3,9,11,1,4,-1,1
1558438767748938,-3,-1,-3,-7,-2,2,-2,-2
1558438767748938,-2,-2,-3,-9,-3,-1,-6,-3
1558438767750929,-2,-1,-6,0,-1,-3,1,1
1558438767750929,-2,-1,-1,-4,-2,-6,-6,-4
1558438767762896,2,1,2,13,-3,5,1,0
1558438767762896,-2,1,0,-6,0,1,3,1
1558438767771872,-1,-2,0,-4,-4,-9,-4,-4
1558438767771872,-1,-3,-3,0,7,-1,-2,-2
1558438767785835,-3,-1,-1,-4,-3,-8,-1,1
1558438767785835,-1,-1,2,3,1,2,1,0
1558438767792817,-2,-1,1,4,-3,7,2,-1
1558438767792817,-1,-2,-5,-6,-8,-4,-2,-2
1558438767808772,0,-2,-8,-4,0,-2,-3,-2
1558438767808772,1,0,5,9,2,-6,-1,-1
1558438767810769,-1,-1,-4,-6,-6,-7,-4,-1
1558438767810769,-2,0,7,8,3,6,4,-1
1558438767822736,0,-1,-1,0,-7,0,-2,-1
1558438767822736,2,0,-5,-7,-2,-3,-3,-1
1558438767831711,-1,0,2,1,1,0,0,-1
1558438767831711,-2,2,3,8,2,5,2,3
1558438767845675,-1,2,3,-2,5,-2,0,-1
1558438767845675,-3,-3,-6,-5,-3,-2,-2,-2
1558438767852657,-2,-4,-4,5,-4,-5,-4,-2
1558438767852657,0,-1,-8,-14,-3,-6,-2,0
