timestamp,emg1,emg2,emg3,emg4,emg5,emg6,emg7,emg8
1558438746654799,1,-1,-1,-19,-6,1,0,0
1558438746654799,1,1,-1,11,2,0,-1,0
1558438746660782,-2,-2,-3,0,-6,-7,-7,-2
1558438746660782,-1,-2,-2,-8,3,8,2,-2
1558438746661779,2,1,3,14,11,6,6,2
1558438746661779,-3,-4,-4,-6,-7,-7,-4,-3
1558438746662781,-1,-1,2,-7,6,7,6,2
1558438746662781,-3,-2,-5,-7,-7,-2,-7,-6
1558438746673748,0,-2,-4,6,-4,-3,-2,-1
1558438746673748,2,2,11,3,6,1,2,3
1558438746684719,0,-1,-4,-9,-2,-3,-2,-4
1558438746684719,1,0,0,11,5,7,3,0
1558438746688711,-5,-3,-1,-1,-5,0,0,-2
1558438746688711,-1,-1,-4,-11,1,-5,2,1
1558438746703668,-3,-1,-2,4,-10,-6,-7,-3
1558438746703668,1,2,6,8,8,0,4,5
1558438746712644,0,-2,-3,-9,-6,-8,-6,-2
1558438746712644,-3,-3,2,3,0,6,-3,-3
1558438746719625,-3,-3,-2,1,-6,-2,-6,-3
1558438746719625,-1,-2,1,-5,-1,-7,5,2
1558438746733588,-1,-1,-7,-6,-1,-8,-4,-2
1558438746733588,-1,-1,3,6,4,4,4,1
1558438746743562,2,1,-7,-8,2,8,3,3
1558438746743562,-6,-1,-1,-2,-11,-4,-10,-6
1558438746781461,2,-1,8,18,-2,3,2,-2
1558438746781461,-1,-1,-3,-1,4,-3,6,4
1558438746781461,0,-2,2,-12,-6,-11,-5,-1
1558438746781461,0,-2,-7,-10,-2,3,1,-3
1558438746782458,-3,-2,-1,4,-8,-5,-8,-4
1558438746782458,1,3,1,-2,8,4,8,5
1558438746785449,1,1,0,-1,4,12,4,0
1558438746785449,-4,-3,-2,6,-5,-9,-9,-3
1558438746793428,-3,-4,0,-3,3,2,0,-3
1558438746793428,1,3,1,-5,-2,-1,-4,-2
1558438746802403,-3,-2,0,8,-4,-2,-2,-2
1558438746802403,1,2,8,14,4,5,3,3
1558438746808388,-2,-3,-9,-25,-3,-5,-5,-3
1558438746808388,-3,-4,4,5,-1,3,3,0
1558438746823347,-2,0,0,6,9,5,0,0
1558438746823347,-4,-2,-2,-6,-12,-7,-3,-4
1558438746831326,-1,-1,-4,1,6,0,-3,0
1558438746831326,1,-1,-2,0,-2,-2,0,1
1558438746840302,0,1,0,0,-5,-6,-4,-2
1558438746840302,1,0,1,-2,2,1,-2,-4
1558438746853268,-1,3,2,-1,-8,-10,-2,0
1558438746853268,-3,-4,-9,-6,7,5,-1,-3
1558438746862245,-1,-3,-7,-6,0,5,7,1
1558438746862245,-2,-1,-4,1,0,-2,-1,1
1558438746868227,-1,-3,-9,-14,-16,-7,-5,-4
1558438746868227,1,0,4,1,-2,2,1,0
1558438746883187,0,0,2,6,1,-10,-4,-1
1558438746883187,2,-1,2,2,7,12,11,4
1558438746891165,0,-1,5,5,3,0,1,0
1558438746891165,-3,-4,-2,0,-2,6,-3,-3
1558438746906126,-2,-1,-1,-6,-10,-9,-8,-4
1558438746906126,-1,-1,2,7,5,6,-3,-4
1558438746913108,2,3,-2,-3,5,-2,5,4
1558438746913108,-2,-2,1,8,-1,-5,-2,-1
1558438746922083,-2,-1,3,-7,-1,3,2,1
1558438746922083,-3,-3,-3,-10,-9,-10,-5,-4
1558438746928067,-1,0,-1,5,6,6,-1,-2
1558438746928067,-4,-5,-3,-4,-3,-2,-4,-6
1558438746943028,-2,-3,1,-3,-13,-12,-8,-6
1558438746943028,2,0,0,0,9,20,11,2
1558438746951006,1,3,2,6,8,-6,7,4
1558438746951006,0,-1,0,-5,-6,-7,-9,-4
1558438746965966,-3,-2,1,4,6,6,2,-1
1558438746965966,-1,-1,-1,-5,-13,-13,-8,-3
1558438746972948,-2,-1,-3,-5,-5,1,0,0
1558438746972948,-2,-1,6,13,9,4,1,1
1558438746981922,-2,-4,-8,-3,-8,-4,-4,-4
1558438746981922,-3,-3,-8,-22,-9,-15,-4,2
1558438746988905,2,0,3,3,6,5,3,3
1558438746988905,1,-2,0,-4,-11,-5,-5,-3
1558438747003866,2,2,0,4,7,3,5,4
1558438747003866,-4,-4,-6,-3,-5,-6,-6,-5
1558438747010847,-2,-2,3,0,-6,1,-6,-4
1558438747010847,-6,-6,-23,-22,-19,-19,-8,-4
1558438747025817,6,4,5,7,16,11,15,8
1558438747025817,1,1,1,4,10,9,8,0
1558438747033796,-1,-3,2,0,1,-3,-4,-4
1558438747033796,0,0,1,-11,-7,-3,-5,-4
1558438747042764,-4,-3,-11,-3,-5,-6,-10,-5
1558438747042764,-2,-1,3,-8,-6,-17,-7,-2
1558438747048746,-4,-3,-6,0,-4,5,-2,-2
1558438747048746,0,1,4,5,4,7,5,2
1558438747063707,0,0,0,-2,3,-2,2,3
1558438747063707,-1,-1,2,7,2,5,-1,3
1558438747078665,-1,-1,-2,-1,0,0,-1,-5
1558438747078665,0,-2,-1,-5,-4,-4,-3,-1
1558438747085646,-1,-4,-2,0,-3,4,-6,-5
1558438747085646,-1,-2,-4,2,-2,-7,-2,0
1558438747093625,3,0,-2,-7,8,-2,7,5
1558438747093625,-1,2,6,13,2,0,1,-3
1558438747102601,1,1,5,-1,1,5,4,2
1558438747102601,-1,-1,-1,-5,-1,-1,-4,-3
1558438747108584,-2,0,-1,1,-5,-1,-4,-1
1558438747108584,0,0,-1,4,1,4,3,0
1558438747123547,-3,-1,-7,-6,-10,-3,-5,-4
1558438747123547,-5,-6,-5,-7,-2,-5,1,-2
1558438747130527,1,2,6,6,12,0,8,3
1558438747130527,-1,1,3,-6,0,2,2,2
1558438747145486,-2,-2,-2,4,-3,-6,-8,-5
1558438747145486,1,-1,-1,-4,-5,11,1,0
1558438747153464,-3,-1,-1,3,-3,-9,-8,-3
1558438747153464,1,0,6,4,8,4,3,2
1558438747162441,-1,-2,-9,-10,-4,-4,-3,-1
1558438747162441,0,4,6,12,5,3,1,1
1558438747168426,-3,-5,-9,-11,2,4,6,3
1558438747168426,1,0,-9,-5,-8,-12,-3,-1
1558438747183384,-3,-3,9,6,2,1,0,0
1558438747183384,1,0,3,8,10,5,-3,-2
1558438747191363,-2,0,-7,-6,-14,-4,-10,-6
1558438747191363,-2,-2,2,4,2,5,-1,-1
1558438747206323,1,0,-6,-3,3,-10,1,1
1558438747206323,-4,-4,-5,-8,0,3,1,0
1558438747213305,-1,-2,8,8,6,9,0,-2
1558438747213305,2,-2,-3,-8,-4,-7,0,-2
1558438747222281,-2,-2,-10,-7,-6,1,-2,0
1558438747222281,0,0,4,4,-2,-8,-4,1
1558438747236244,-2,-4,-5,-5,-8,3,-4,-3
1558438747236244,-2,1,6,13,8,2,2,2
1558438747245220,0,0,2,-2,5,0,5,1
1558438747245220,1,-1,-5,0,0,-2,4,0
1558438747251202,-2,-4,-2,0,-5,-3,-6,-4
1558438747251202,1,2,2,4,-2,-7,-4,-1
1558438747266163,-1,0,5,4,1,1,0,-1
1558438747266163,3,2,-4,0,11,12,4,2
1558438747273144,-1,-1,4,-3,-4,-9,0,-2
1558438747273144,-3,-3,-3,4,2,2,-4,-2
1558438747282121,-2,-2,0,3,-9,-4,-7,-6
1558438747282121,-1,-1,7,3,-5,0,2,-1
1558438747296084,3,0,-7,-5,6,0,4,3
1558438747296084,-2,0,-1,-2,-3,-4,-5,-2
1558438747305060,-4,-4,-1,-7,-10,-8,-9,-2
1558438747305060,2,2,-2,-1,3,2,5,3
1558438747311044,-1,1,2,1,-3,-2,-4,-1
1558438747311044,-4,-3,-4,-5,-4,-1,-1,-1
1558438747333983,1,0,-1,-4,0,3,6,1
1558438747333983,-2,-3,-1,-1,-5,-8,-8,-5
1558438747334979,1,1,3,5,3,-2,4,2
1558438747334979,0,-2,-4,-10,-2,-1,-3,-2
1558438747341961,-2,-1,3,-7,7,8,3,1
1558438747341961,-2,0,-2,0,-9,-8,-6,-2
1558438747355922,-3,-1,-5,2,-4,-6,-6,-3
1558438747355922,1,-2,-2,-4,2,-1,4,1
1558438747364899,0,-1,-3,-3,0,5,3,1
1558438747364899,-2,-1,4,2,-3,-1,-1,-2
1558438747370883,0,-4,-9,-8,-2,0,-2,1
1558438747370883,-3,1,1,5,1,5,-4,-4
1558438747385843,0,1,-3,-8,4,2,4,3
1558438747385843,-1,-1,2,-1,0,-7,-4,-4
1558438747393821,-4,1,3,-1,-8,-4,-3,-2
1558438747393821,0,-1,2,3,6,8,7,3
1558438747402798,-3,2,3,8,-2,-6,-6,-2
1558438747402798,-3,-1,-6,-1,2,2,-2,-1
1558438747415765,-1,-1,3,-1,4,7,8,1
1558438747415765,2,2,-5,-4,-4,-6,-4,-1
1558438747424738,-1,-4,2,-4,3,6,2,-1
1558438747424738,-3,-3,-14,-14,-12,-8,-6,-3
1558438747430724,-1,-2,-3,0,3,11,4,1
1558438747430724,-2,-1,0,-1,-2,-15,-1,-2
1558438747445683,-1,-1,4,4,-4,-2,-3,-2
1558438747445683,-1,-1,-12,-19,-8,0,1,-1
1558438747453662,2,-1,3,4,2,4,-1,-3
1558438747453662,0,-2,-5,-10,-1,9,-1,-2
1558438747462638,-3,-2,2,3,-11,-8,-4,-4
1558438747462638,0,-2,7,11,8,-7,0,1
1558438747475604,1,2,-3,2,10,-3,3,2
1558438747475604,0,-3,-3,-6,-2,1,-1,1
1558438747484580,-3,0,0,11,-1,-5,-4,-2
1558438747484580,1,1,8,2,3,6,4,2
1558438747490566,-2,-3,0,-2,-8,-4,-5,-4
1558438747490566,0,-1,2,-1,2,-5,-1,-1
1558438747505523,-2,-1,-12,-12,-5,1,-5,-2
1558438747505523,-4,-4,8,9,-2,-4,-6,-5
1558438747513503,3,6,10,12,16,6,11,7
1558438747513503,-4,-2,-5,-10,-14,-3,-6,-1
1558438747522478,1,-1,-8,-11,1,2,1,-1
1558438747522478,1,1,3,3,1,-5,-4,0
1558438747536440,-3,-8,-8,-7,-11,-2,-11,-7
1558438747536440,0,1,2,1,-4,-12,2,-1
1558438747544420,2,3,6,8,6,3,5,0
1558438747544420,-1,-1,-6,-1,1,2,-2,-1
1558438747551400,0,-1,2,-3,-6,-2,-5,-4
1558438747551400,0,-3,-3,3,-4,-4,-2,3
1558438747566361,1,-1,3,-1,5,-1,0,-2
1558438747566361,-1,-2,-9,-8,-5,5,5,-2
1558438747573341,-4,-1,0,4,1,1,-7,-4
1558438747573341,-4,-6,-9,-7,-7,-2,-1,-3
1558438747582318,2,3,5,4,15,17,12,5
1558438747582318,1,4,-1,-1,-4,-14,-6,-2
1558438747596282,-2,-4,-4,-11,-6,-13,-6,-2
1558438747596282,2,0,6,11,10,8,0,3
1558438747605257,-2,-4,-4,-4,-5,-5,-8,-2
1558438747605257,-2,-2,-1,0,-5,6,-1,-2
1558438747611246,-1,-2,-2,4,-7,-17,0,0
1558438747611246,0,-1,-3,-7,6,4,0,0
1558438747626201,-2,-2,-3,0,-6,-3,0,0
1558438747626201,0,-1,3,2,8,2,2,3
1558438747633181,-2,-1,-3,-6,-3,3,-3,-3
1558438747633181,-3,-2,-2,-3,-12,-5,-1,-4
1558438747642157,2,3,-3,-2,5,-2,5,3
1558438747642157,-6,-8,-6,0,-11,-1,-7,-4
1558438747656132,1,1,0,-11,2,12,4,4
1558438747656132,0,3,2,1,7,-5,-1,2
1558438747665097,-3,-2,-4,-2,-11,-12,-10,-7
1558438747665097,1,-2,-1,1,-1,-3,1,0
1558438747671080,-3,0,-2,0,-6,-8,-2,-1
1558438747671080,0,-1,-3,-8,-4,2,-3,-3
1558438747686043,0,0,-1,2,6,4,4,4
1558438747686043,-1,2,9,4,1,-5,-6,-3
1558438747694030,-1,-5,-18,-17,-3,2,4,0
1558438747694030,-3,-1,-3,3,-6,1,-2,-3
1558438747702066,1,-2,-3,-2,-5,-7,2,-1
1558438747702066,2,3,2,1,10,10,5,4
1558438747715999,0,1,4,5,-5,-5,-4,-1
1558438747715999,-1,-5,6,4,1,-2,-5,-6
1558438747724941,-3,-4,-8,-7,-6,-3,-6,-4
1558438747724941,3,1,2,2,6,1,5,4
1558438747730920,-1,0,2,4,5,1,1,0
1558438747730920,-1,0,-2,-2,-5,-2,-1,-1
1558438747745880,1,1,11,15,0,-6,-2,-1
1558438747745880,-1,-3,-22,-23,-5,-2,-1,1
1558438747753858,0,-2,5,1,3,-2,0,3
1558438747753858,-2,1,1,4,3,1,0,1
1558438747768870,-2,-2,-1,0,-3,1,0,-1
1558438747768870,-1,2,1,2,1,4,1,-1
1558438747775799,2,0,3,3,-1,-4,-1,-1
1558438747775799,-1,-2,-3,-3,0,-1,-1,-2
1558438747791825,0,2,-1,2,3,4,2,1
1558438747791825,-4,-3,-2,-3,-7,-4,-7,-7
1558438747792766,-1,1,-3,-3,-6,-2,1,0
1558438747792766,-1,0,5,4,5,1,5,3
1558438747805804,-4,-2,-1,3,2,2,-1,1
1558438747805804,-1,1,1,-4,0,4,-1,-3
1558438747813702,0,0,-4,1,3,-2,2,0
1558438747813702,-1,-1,0,-4,-3,-3,-7,-2
1558438747828666,-1,-2,-6,-3,-4,-3,-4,-3
1558438747828666,-1,-3,2,3,-2,-13,-2,0
1558438747835650,-2,-1,-1,2,2,3,0,-2
1558438747835650,-1,1,-8,-2,-7,-12,-3,-2
1558438747851607,0,0,3,4,16,18,8,0
1558438747851607,0,-3,0,-7,-6,-2,1,1
1558438747852598,1,1,1,1,4,2,2,-1
1558438747852598,-1,-2,1,0,5,1,0,-1
1558438747866558,-4,-3,-8,-14,-22,-16,-15,-7
1558438747866558,0,-1,-6,0,0,3,5,2
1558438747873544,1,0,11,16,13,7,4,3
1558438747873544,-2,-3,-16,-15,-5,6,0,-1
1558438747888530,-2,-3,0,-4,-5,-2,-2,-4
1558438747888530,0,-1,1,-2,0,0,-2,-2
1558438747895491,0,-3,-1,-2,-11,-12,-10,-4
1558438747895491,2,1,6,11,9,3,6,1
1558438747911436,-1,1,2,-2,-3,-4,-1,0
1558438747911436,0,-1,-3,-1,3,1,0,1
1558438747912436,-3,-2,-4,0,-4,6,-3,-2
1558438747912436,2,-3,1,-4,-2,0,1,1
1558438747926397,2,-1,1,-5,5,7,2,1
1558438747926397,-2,1,5,9,0,-6,-3,-2
1558438747933728,-5,-2,-6,-4,0,2,1,1
1558438747933728,-3,-1,-1,-3,-5,-2,-5,-3
1558438747948337,0,0,3,5,-5,-3,0,-2
1558438747948337,-4,-7,-8,-4,-8,-13,-5,-4
1558438747956317,-1,0,3,4,13,9,8,5
1558438747956317,-2,1,2,-4,4,7,4,-1
1558438747971613,-1,-2,-3,-9,-1,-2,-2,-2
1558438747971613,2,3,2,0,-1,3,1,-1
1558438747972276,-2,-4,-6,-11,-13,-11,-8,-5
1558438747972276,-1,-4,1,2,-1,-6,-4,-2
1558438747986424,-1,-1,-1,2,0,-4,-4,1
1558438747986424,-4,-4,-3,2,-10,-11,-10,-5
1558438747993410,-1,-2,-8,-12,3,6,10,4
1558438747993410,0,1,4,10,0,2,4,2
1558438748008209,0,0,-6,-13,0,2,-3,-1
1558438748008209,0,1,4,4,4,5,3,2
1558438748016159,0,-2,0,2,-4,-7,-7,-5
1558438748016159,-4,-4,-4,-7,-9,-4,-5,-4
1558438748031120,-2,-2,0,6,-5,-15,1,1
1558438748031120,3,3,6,5,13,17,6,1
1558438748032117,-4,-3,-6,-5,-1,3,2,-4
1558438748032117,-1,-1,-3,-5,-1,-3,1,-2
1558438748046078,-2,-1,-1,1,-8,-4,-5,-2
1558438748046078,-4,-2,1,1,0,-1,-4,-3
1558438748053058,2,2,1,2,1,-5,1,2
1558438748053058,0,1,0,-2,-1,-1,0,0
1558438748068204,-2,-3,-2,3,3,1,0,-2
1558438748068204,-1,-3,-3,-3,-2,-2,2,0
1558438748076002,0,1,-4,-5,-4,-2,-4,-3
1558438748076002,-1,0,1,-1,1,-3,-5,0
1558438748092196,3,2,1,2,5,2,3,2
1558438748092196,-2,-1,-4,-6,-1,2,-1,2
1558438748093020,-4,-3,0,-3,-6,-3,-5,-4
1558438748093020,0,-2,0,3,-1,5,-3,-2
1558438748106162,0,0,1,-4,-2,-4,2,1
1558438748106162,-1,-2,-3,-3,-1,-6,1,0
1558438748113972,2,0,5,8,1,-4,-3,3
1558438748113972,-2,2,-6,-2,0,4,4,0
1558438748128855,-3,-5,-8,-14,1,6,-2,-3
1558438748128855,-1,-1,3,3,-8,-7,-6,-6
1558438748135866,2,0,0,-4,2,1,0,1
1558438748135866,1,-1,-4,-3,-5,-4,-1,-1
1558438748150797,2,3,11,13,21,6,6,6
1558438748150797,-3,-2,-10,-8,-6,-2,-3,-3
1558438748158776,-4,-2,-3,2,-8,-3,-3,-2
1558438748158776,1,2,2,-8,6,-2,-1,1
1558438748165756,-1,-4,-9,-10,-7,-6,-4,-2
1558438748165756,0,-2,-1,-7,-4,3,1,2
1558438748173735,1,1,3,1,4,-2,-8,-2
1558438748173735,0,-3,1,0,-2,3,-2,-1
1558438748188696,-2,-2,-1,1,-6,1,-4,-5
1558438748188696,0,0,2,0,1,-13,-2,-1
1558438748195681,2,0,-3,-2,-2,4,7,1
1558438748195681,-2,0,0,2,3,-4,3,3
1558438748211894,1,3,4,2,4,8,1,0
1558438748211894,-3,-1,-3,3,-6,-2,-5,-2
1558438748218616,-3,-1,-8,-17,-4,3,-5,-5
1558438748218616,0,-1,1,4,-1,-7,0,-1
1558438748227591,1,1,5,4,2,-2,1,0
1558438748227591,0,-1,2,2,-2,-2,1,-1
1558438748233581,-2,-2,1,1,-2,-4,-5,-3
1558438748233581,1,-1,-4,-4,0,6,2,-2
1558438748248538,-2,0,-2,0,2,-3,1,1
1558438748248538,0,1,2,2,1,4,0,-1
1558438748256741,0,-4,-9,-13,-11,-9,-4,-4
1558438748256741,-1,-2,-1,-2,-9,-5,-5,-1
1558438748271678,1,0,1,1,2,4,4,1
1558438748271678,1,1,2,7,9,7,4,0
1558438748279456,-1,-1,1,2,-3,-2,2,-1
1558438748279456,2,0,-2,-3,0,0,1,-1
1558438748286437,-2,-6,-4,-3,-8,-2,-4,-6
1558438748286437,-1,0,-1,-7,-3,-12,-6,-1
1558438748293627,0,0,0,1,1,2,0,1
1558438748293627,-1,-2,1,8,-5,-8,-5,0
1558438748316360,0,1,2,-2,5,2,-1,0
1558438748316360,0,-1,-1,4,-1,6,2,0
1558438748317351,-3,-1,3,0,4,-4,0,-2
1558438748317351,-4,-3,-7,-7,4,9,0,-1
1558438748331314,-2,0,-9,-14,-15,-12,-5,-2
1558438748331314,-3,-2,-7,-6,-3,4,-1,-2
1558438748339292,0,0,-1,2,-5,-2,-2,-2
1558438748339292,1,-1,1,1,1,-7,-2,1
1558438748354253,-1,-3,0,4,1,-4,-2,-2
1558438748354253,-3,-3,-4,-5,-3,-5,-3,-2
1558438748355249,-2,-1,7,4,-3,-2,-1,0
1558438748355249,-1,-1,-5,-3,2,7,1,0
1558438748368404,-1,2,0,11,-1,-11,0,1
1558438748368404,1,1,2,-5,9,7,4,3
1558438748376548,-1,-1,-6,-8,3,7,1,-1
1558438748376548,-1,-2,4,5,-5,-6,-3,-4
1558438748391503,-1,0,-4,-3,0,9,-1,0
1558438748391503,-1,-3,2,4,2,-2,1,-2
1558438748399336,1,0,-1,1,0,-10,-3,1
1558438748399336,-2,-2,-3,0,-4,2,0,-1
1558438748414298,1,4,13,13,9,5,4,2
1558438748414298,-2,-2,-6,-6,-5,-7,-6,-4
1558438748422296,-2,-1,-2,0,-5,3,-2,-2
1558438748422296,0,1,3,2,5,1,0,0
1558438748428370,-1,-4,-6,-5,-4,-3,-1,-1
1558438748428370,0,-3,1,6,-1,2,-2,2
1558438748436390,-1,-1,3,3,8,5,1,1
1558438748436390,-3,1,0,-4,-5,-2,-2,-5
1558438748451602,-2,-1,-2,3,-6,-3,-4,-4
1558438748451602,-2,0,-6,-3,0,-3,-3,-1
1558438748459550,2,-2,1,1,3,1,5,3
1558438748459550,-1,-2,1,-5,4,8,1,0
1558438748474500,-2,-3,-5,-5,-11,-13,-5,-4
1558438748474500,-1,3,-2,1,1,-5,1,-1
1558438748475286,-1,0,-2,0,-2,4,2,-2
1558438748475286,-1,-2,-3,-1,-4,3,0,-1
1558438748488462,2,-1,2,-4,0,3,1,0
1558438748488462,0,-3,-1,-4,6,-9,0,1
1558438748496233,0,2,-1,-3,-3,-8,-5,0
1558438748496233,-2,-3,-6,-3,0,1,1,-2
1558438748511403,-2,-1,-2,-5,-1,5,-5,-2
1558438748511403,-2,-1,6,12,-8,-7,-5,-2
1558438748519369,3,0,-8,-15,6,7,11,7
1558438748519369,0,-2,-1,0,-2,-5,-1,-1
1558438748534129,-4,0,0,2,-3,2,-2,0
1558438748534129,-2,-2,-1,-6,-1,4,1,1
1558438748535125,-2,-2,0,3,-4,-12,-8,-5
1558438748535125,0,1,0,-1,-5,-1,0,-1
1558438748548089,-1,-5,-5,-3,4,5,-1,-1
1558438748548089,0,1,4,1,0,-2,1,-1
1558438748556069,-5,-4,-8,-4,-11,-12,-9,-5
1558438748556069,2,2,13,10,14,14,10,9
1558438748571063,2,-2,-8,-11,-2,2,3,2
1558438748571063,-2,-2,-2,-3,2,7,-2,-2
1558438748579524,1,-2,1,4,2,-6,1,0
1558438748579524,-2,1,-1,2,-3,-10,-6,-4
1558438748594484,-3,-1,-4,-2,-5,-3,-3,-4
1558438748594484,3,1,-6,-7,-6,-1,-2,2
1558438748594484,-1,0,1,-1,-4,-1,-4,-2
1558438748594484,-1,2,4,4,0,-4,-2,-1
1558438748608956,0,-2,0,-3,1,-5,1,3
1558438748608956,-1,-2,0,3,-3,5,1,-2
1558438748616774,-2,-2,2,-5,4,1,-5,-3
1558438748616774,-1,-1,-4,-12,-7,-4,-3,-1
1558438748631643,0,-2,-4,1,-1,-4,0,-1
1558438748631643,-2,-2,-6,-11,-6,1,-1,-3
1558438748639703,-1,0,2,5,-5,1,-3,-3
1558438748639703,0,1,-1,-3,1,-7,-1,-1
1558438748654636,-1,0,-1,-2,-1,-10,-6,-1
1558438748654636,0,-1,2,6,1,4,0,-2
1558438748655322,0,2,1,2,4,-1,3,2
1558438748655322,-1,-1,-2,-3,3,8,1,0
1558438748668365,-1,-1,1,4,-2,-4,1,-1
1558438748668365,-1,-2,-2,-9,0,1,0,-1
1558438748676610,-3,-1,-5,-7,-4,-1,-3,-3
1558438748676610,-2,-2,-10,-9,-11,-11,-7,-3
1558438748691495,-2,-3,-4,-6,2,5,2,1
1558438748691495,0,-1,1,5,7,4,3,1
1558438748699463,-2,-1,1,4,1,5,2,0
1558438748699463,0,-2,2,3,-2,-2,-3,-3
1558438748714445,-1,0,2,-2,0,-11,-4,-5
1558438748714445,-2,0,-1,-3,-3,-7,0,0
1558438748715164,0,0,-2,2,-2,0,3,3
1558438748715164,0,-1,-4,-1,7,11,3,1
1558438748728369,-2,-2,-2,-1,-10,0,-4,-4
1558438748728369,-1,0,2,3,-2,-4,-3,0
1558438748736372,1,0,9,11,10,7,6,1
1558438748736372,-5,-6,-20,-31,-18,-14,-9,-5
1558438748751066,-2,-1,-1,-3,-3,1,3,-1
1558438748751066,-2,-1,0,0,-3,-4,2,3
1558438748759319,0,0,-3,0,-1,-3,-3,0
1558438748759319,2,-1,6,7,3,3,-4,-2
1558438748774004,-1,-2,2,1,4,7,1,-2
1558438748774004,1,-1,3,4,4,1,0,0
1558438748775003,-3,-3,-5,-13,-5,-3,0,-1
1558438748775003,-1,1,2,12,2,-8,1,0
1558438748787967,-2,-3,-11,-19,-10,-6,-8,-4
1558438748787967,-2,0,2,3,0,1,-3,-2
1558438748795945,-1,-2,-3,1,-2,-3,-5,-3
1558438748795945,-2,-1,0,2,0,1,1,1
1558438748811348,-1,1,4,6,-1,-3,1,1
1558438748811348,0,-1,-2,-4,1,12,5,0
1558438748827185,-1,-2,-1,0,-7,-4,-5,-4
1558438748827185,-1,-4,-4,-4,-2,-4,-4,-4
1558438748834137,2,4,4,7,3,0,8,3
1558438748834137,-1,0,-4,-1,2,4,-1,0
1558438748834845,-2,-2,-5,-5,-9,-9,-9,-4
1558438748834845,-2,0,3,8,7,5,1,-1
1558438748849117,-1,-1,7,-2,-2,-5,-4,2
1558438748849117,-1,-2,1,11,10,-2,5,2
1558438748856082,-3,-3,-7,-11,-10,3,0,-1
1558438748856082,0,1,-2,0,0,-2,-4,-3
1558438748871773,-1,0,0,3,2,6,-2,-3
1558438748871773,1,0,1,3,-4,-3,-6,-3
1558438748878727,-3,-1,2,-4,-1,-12,-4,-1
1558438748878727,0,1,-1,1,3,0,1,3
1558438748894843,1,1,1,6,6,5,7,3
1558438748894843,-1,-1,-2,-7,-1,1,0,-2
1558438748894843,-1,-2,-5,3,2,8,1,-2
1558438748894843,-3,-2,1,-4,-7,-6,-4,-3
1558438748908927,-2,-2,0,-2,-1,-3,-5,-4
1558438748908927,-1,-3,-1,-3,-6,-7,-5,-2
1558438748916701,-1,-1,2,3,-2,-3,0,0
1558438748916701,-2,-2,1,-3,-3,-4,-2,0
1558438748930731,-1,-2,-4,0,8,12,5,-3
1558438748930731,0,-1,-3,-3,-1,-2,4,1
1558438748938678,0,0,2,3,2,-2,2,2
1558438748938678,2,-1,0,-3,-5,-2,0,2
1558438748953640,-2,-3,0,-5,-5,-1,-5,-4
1558438748953640,-1,0,0,1,0,4,-5,-3
1558438748954637,-2,-1,-6,-11,-4,-14,-6,-3
1558438748954637,-1,-1,-1,1,0,-1,5,0
1558438748968619,1,-1,-4,3,4,1,1,2
1558438748968619,-1,-1,-3,-7,-7,0,-3,-2
1558438748975580,2,0,3,7,1,11,3,2
1558438748975580,-4,-4,-4,-3,-7,-13,-6,-3
1558438748999515,-2,-3,-5,-9,-4,-12,-8,-2
1558438748999515,-3,0,-3,-1,0,2,0,-3
1558438749000513,-2,-2,-2,0,-3,-3,-2,-2
1558438749000513,-2,-1,0,-3,3,6,2,0
1558438749014513,0,0,1,3,4,2,-1,3
1558438749014513,-1,-1,0,-2,-2,-2,-3,-1
1558438749015873,1,-1,0,4,5,6,1,1
1558438749015873,-3,-4,-9,-8,-3,2,0,-1
1558438749028581,0,-2,1,-2,-6,-2,-2,-2
1558438749028581,-1,-2,-4,-7,-13,-12,-8,-5
1558438749036499,0,0,3,1,1,8,2,0
1558438749036499,4,3,6,7,10,5,6,3
1558438749051413,-2,1,-1,1,2,-5,3,2
1558438749051413,0,-2,-1,-3,-5,-5,1,1
1558438749059277,-1,-1,-2,-3,1,4,1,-1
1558438749059277,-2,-3,-2,-1,-10,-3,-5,-4
1558438749074593,-2,-1,-1,-2,-7,-9,-8,-2
1558438749074593,-4,-2,1,1,3,0,0,-1
1558438749075231,0,-2,-7,-5,2,-5,0,0
1558438749075231,0,0,1,1,4,2,1,0
1558438749088748,-1,-2,-1,0,-6,-2,-3,-1
1558438749088748,1,0,3,3,-5,-11,0,0
1558438749096177,0,0,2,4,4,11,1,-3
1558438749096177,0,-1,-10,-9,-4,-1,-1,0
1558438749111451,-1,-2,0,1,1,-7,-6,-3
1558438749111451,-3,-2,-5,-7,-2,-1,-2,-2
1558438749119115,-1,-2,4,4,-4,-6,-1,-2
1558438749119115,0,2,4,2,3,-1,1,0
1558438749134122,-5,-5,-6,-4,-3,3,-6,-3
1558438749134122,0,-1,2,5,1,-3,0,0
1558438749142357,2,3,4,1,7,-2,10,8
1558438749142357,-4,-4,-8,-4,5,8,0,-2
1558438749149262,0,0,-3,-2,-5,4,-2,-2
1558438749149262,-1,-5,-3,-1,-1,-3,-5,-2
1558438749156016,-3,-3,-2,1,-6,-6,-6,-4
1558438749156016,-2,-2,0,-11,-6,-5,-3,-1
1558438749171972,1,1,-2,0,-8,-2,-6,-4
1558438749171972,0,0,-5,-4,-2,1,-2,-3
1558438749177983,0,1,0,1,6,-8,4,4
1558438749177983,0,1,5,6,1,1,3,0
1558438749192916,-1,-2,5,6,1,12,4,-2
1558438749192916,0,2,-6,-11,-3,-1,2,0
1558438749202203,-2,-2,-5,-8,-7,-1,-7,-3
1558438749202203,-2,1,4,5,4,0,-2,1
1558438749209180,-2,-3,-9,-11,-10,-10,-2,-2
1558438749209180,-1,-1,3,7,9,10,6,2
1558438749216154,0,-1,-1,-2,1,2,-3,-3
1558438749216154,-2,-2,-2,-4,-10,-1,-5,-6
1558438749231056,0,-2,1,-2,-11,-10,-8,-5
1558438749231056,4,4,2,3,13,6,18,10
1558438749239097,-1,0,3,8,7,1,2,3
1558438749239097,-2,-2,-1,-5,4,8,2,0
1558438749253984,-3,-2,-7,-12,-6,-3,-4,-3
1558438749253984,-4,-5,-4,-8,-11,-3,-9,-5
1558438749261733,-2,-3,-6,-3,-3,-9,-2,-2
1558438749261733,1,0,3,5,-4,-4,-5,-3
1558438749276997,-3,-2,-1,4,-1,-7,-2,-1
1558438749276997,-2,-2,-2,-5,-7,-8,-8,-2
1558438749277690,1,1,1,-2,6,11,11,3
1558438749277690,-4,-2,-2,4,3,3,2,-2
1558438749291755,3,2,0,5,2,3,3,2
1558438749291755,2,0,-2,-12,4,-2,-1,-1
1558438749298940,-4,-5,-3,-3,-5,-2,-8,-5
1558438749298940,0,-3,-7,-6,-1,0,2,-1
1558438749313592,0,3,2,4,5,6,4,2
1558438749313592,-4,-2,0,2,-8,-2,-5,-5
1558438749321877,-1,-1,-1,0,-10,-6,-3,-6
1558438749321877,3,2,4,0,12,-1,4,2
1558438749336805,-1,-2,-1,2,-1,-4,4,2
1558438749336805,-3,-3,-4,-6,-7,5,-3,-4
1558438749337528,-3,-1,2,-1,-1,3,-5,-1
1558438749337528,0,1,-4,-2,-8,-16,-1,1
1558438749350798,2,2,4,6,13,8,4,1
1558438749350798,1,0,-1,1,-2,-1,-2,-1
1558438749358776,-1,-1,-2,-2,-5,-6,-7,-3
1558438749358776,-2,-1,-1,-4,-1,4,-2,-1
1558438749373739,-1,-1,-3,-3,3,5,3,-1
1558438749373739,-3,-3,-3,-3,-6,-7,-2,-5
1558438749381413,-2,0,-2,-3,4,3,-1,-2
1558438749381413,1,-1,2,3,-5,-7,2,2
1558438749396404,0,0,6,10,18,7,6,2
1558438749396404,-1,0,-8,-7,-5,-1,-3,-1
1558438749397370,2,-1,0,5,-1,0,0,1
1558438749397370,-2,-2,0,0,0,1,-4,-1
1558438749411633,0,-2,0,-5,-10,-7,-8,-4
1558438749411633,-1,-2,1,8,9,4,0,-2
1558438749418649,2,0,1,0,0,-3,1,1
1558438749418649,-1,-2,-6,-7,-8,2,-3,-3
1558438749433610,-1,0,5,7,3,-5,1,-1
1558438749433610,-1,-2,5,6,3,-5,-2,0
1558438749442385,-3,-2,-10,-22,-13,-3,0,2
1558438749442385,-1,-2,3,4,4,3,-1,-3
1558438749457407,-1,0,-1,-1,-3,-7,-4,-2
1558438749457407,0,-1,-2,-6,0,-4,-2,-2
1558438749457407,-1,-2,-4,-4,-2,1,1,-1
1558438749457407,-1,0,1,1,-3,2,-1,-1
1558438749471528,-2,-2,-1,-2,0,-2,1,-1
1558438749471528,4,0,3,1,1,1,2,0
1558438749478279,0,-2,3,3,6,1,-2,-2
1558438749478279,-3,-4,-7,-2,-3,-4,-2,1
1558438749494176,-4,-2,-6,-5,-6,0,-3,-2
1558438749494176,0,3,4,10,8,14,7,2
1558438749501135,0,1,-6,-16,-10,-14,-7,-4
1558438749501135,-5,-2,-7,-5,-8,-11,-12,-7
1558438749517105,2,0,-2,-7,9,17,6,2
1558438749517105,1,0,4,3,4,-6,4,4
1558438749533105,-2,-2,6,8,6,9,3,-1
1558438749533105,0,3,-4,-6,-2,-4,2,0
1558438749534046,0,-1,2,-1,-6,-3,-4,-2
1558438749534046,-2,-1,-3,-5,-4,-2,-7,-3
1558438749539245,-4,-4,-4,4,-9,-10,-3,-4
1558438749539245,2,3,6,6,13,5,4,5
1558438749554272,-3,-3,-2,-4,-2,-4,0,-2
1558438749554272,-1,-1,1,0,-3,-2,-6,-4
1558438749561969,0,-4,-8,-5,-13,-7,-7,-4
1558438749561969,1,1,4,6,-1,3,3,-2
1558438749576929,-1,-2,-5,-1,3,-2,0,0
1558438749576929,-3,-2,-2,-3,-6,-5,-4,-1
1558438749576929,1,-1,-2,1,6,10,-3,-2
1558438749576929,0,-3,-4,-7,-4,3,3,0
1558438749590920,0,1,1,-3,2,-12,1,2
1558438749590920,-2,-1,-6,-6,-3,-2,2,-1
1558438749598870,-3,-1,1,6,-2,-7,-3,-2
1558438749598870,1,-3,5,-3,1,5,0,0
1558438749612836,-3,-2,-5,-7,-8,3,-2,0
1558438749612836,-3,-1,-1,6,2,0,-3,-1
1558438749622106,1,-1,-5,-14,-2,3,0,1
1558438749622106,0,1,0,1,-2,-5,-2,-1
1558438749637047,2,2,4,3,7,3,7,2
1558438749637047,-1,-3,-1,1,-10,-9,-10,-3
1558438749637978,-1,2,5,7,3,6,5,2
1558438749637978,-2,-1,3,7,6,2,-3,-3
1558438749651026,0,0,-8,-12,-12,0,-2,-2
1558438749651026,0,-1,-9,-8,-1,-1,1,-1
1558438749659012,1,-2,0,-1,-2,-4,-5,-3
1558438749659012,-2,-2,-2,1,-10,-12,-6,-2
1558438749673977,0,0,3,6,7,1,1,1
1558438749673977,-1,0,4,-1,1,-5,-1,0
1558438749681964,-2,-2,-5,-4,0,2,1,0
1558438749681964,-2,-1,1,2,-4,0,-2,-2
1558438749696609,0,-2,-4,-9,1,-2,0,0
1558438749696609,-1,-3,-2,1,-3,1,0,-3
1558438749697609,0,1,0,1,-4,-4,0,-1
1558438749697609,-1,-1,1,-4,1,2,0,0
1558438749711602,-1,-4,-1,3,-4,1,-5,-4
1558438749711602,0,0,0,0,-1,3,-2,-2
1558438749718621,1,2,1,2,8,3,11,8
1558438749718621,0,0,-4,-3,-1,-8,-4,0
1558438749735545,-2,-4,1,4,-3,0,-5,-5
1558438749735545,-2,-4,-11,-6,-10,-4,-4,-2
1558438749749775,-2,-2,3,3,2,6,-2,-3
1558438749749775,-3,-1,-4,-3,-8,-8,-2,-3
1558438749756767,1,1,-2,0,5,2,1,2
1558438749756767,0,1,2,0,0,-4,-1,-1
1558438749757448,-2,-3,-1,-1,0,6,-2,-3
1558438749757448,0,0,0,0,6,1,4,0
1558438749771706,0,-1,0,-1,1,2,-1,-2
1558438749771706,-1,-1,2,3,-1,-2,-3,-1
1558438749778391,-2,0,-4,-15,-6,-5,-3,0
1558438749778391,-1,-1,2,3,-5,-1,-1,1
1558438749793351,-3,-3,-8,-13,-16,-9,-9,-5
1558438749793351,-1,0,5,1,1,1,-4,-1
1558438749801329,2,-2,-2,3,-1,-2,2,1
1558438749801329,1,0,1,2,8,0,8,3
1558438749817287,-1,-1,-1,-3,-6,-8,-2,-4
1558438749817287,3,2,2,3,14,15,9,5
1558438749824267,-3,-1,-1,0,-7,-9,-11,-8
1558438749824267,-2,-4,-6,-6,-7,1,-7,-6
1558438749831663,-1,-3,-3,1,-5,-7,-5,-1
1558438749831663,-1,-2,-1,2,-2,3,7,0
1558438749839341,2,3,6,0,11,1,2,2
1558438749839341,-2,-1,-3,0,0,-5,-4,-2
1558438749854328,-2,0,-3,-8,-1,-1,0,-1
1558438749854328,-3,-5,-6,-7,-6,-6,-3,-3
1558438749869365,-2,-2,-4,0,-1,2,3,1
1558438749869365,0,0,2,3,2,4,-1,-1
1558438749877184,-1,-2,3,8,7,5,-4,-1
1558438749877184,0,1,-3,-7,-4,-7,1,1
1558438749877184,2,1,5,10,7,1,1,-1
1558438749877184,0,-3,-5,-5,-2,-2,-2,-4
1558438749891396,-2,-4,-5,-3,-12,-4,-8,-3
1558438749891396,-1,0,-4,-3,7,5,7,2
1558438749899095,2,-2,1,4,4,1,3,1
1558438749899095,-4,-3,0,-3,-2,0,-5,-4
1558438749914219,-1,1,5,7,0,-5,-4,-1
1558438749914219,-1,0,-5,-9,-7,4,-2,-3
1558438749922312,-4,-3,-5,-4,-13,-12,-9,-3
1558438749922312,0,-2,-8,-6,-5,4,6,0
1558438749937302,-1,-1,1,3,13,6,5,1
1558438749937302,0,1,1,4,5,-1,1,-1
1558438749937302,-3,1,4,6,5,1,-1,0
1558438749937302,2,-1,-5,-17,-8,-3,-5,-2
1558438749951243,-1,-1,-3,-1,-9,-6,-1,1
1558438749951243,-2,-2,2,1,-5,-6,-8,-3
1558438749959146,-3,-2,-4,-3,-3,7,-2,-3
1558438749959146,-2,0,5,4,8,6,5,2
1558438749972873,0,1,0,-5,1,2,4,1
1558438749972873,-2,-3,2,2,-2,-21,-4,0
1558438749981845,-2,-3,-6,-3,-13,-5,-7,-6
1558438749981845,-2,-1,1,3,-1,4,-6,-2
1558438749996806,1,2,1,-2,5,0,4,1
1558438749996806,-1,0,-1,5,0,7,0,-1
1558438749998181,1,1,3,0,9,9,4,-1
1558438749998181,0,-2,-4,-4,0,-7,0,1
1558438750010768,-4,-2,-4,0,-4,-4,1,-1
1558438750010768,-1,-5,-2,0,-12,-9,-10,-7
1558438750018799,0,1,-1,3,6,7,7,3
1558438750018799,0,0,1,0,-3,-7,-2,0
1558438750033708,-3,-3,1,1,4,5,2,0
1558438750033708,1,2,3,0,1,7,2,2
1558438750041685,-1,-3,-10,-8,-5,-3,-7,-2
1558438750041685,-2,-1,3,8,3,0,-1,-1
1558438750055648,-3,-5,-11,-15,-2,-8,-2,0
1558438750055648,-2,0,0,-2,-1,-3,-3,0
1558438750063662,-1,1,3,2,2,8,5,0
1558438750063662,-1,1,-2,0,-3,-6,-5,-2
1558438750078587,1,1,4,3,4,10,4,-2
1558438750078587,0,1,9,12,9,7,2,0
1558438750079594,-4,-4,-13,-17,-19,-14,-8,-4
1558438750079594,-1,0,-2,1,0,-5,0,0
1558438750093548,1,1,1,1,4,7,3,1
1558438750093548,-4,-3,-2,-6,-5,0,1,-3
1558438750109503,0,1,0,10,4,0,-1,-2
1558438750109503,-3,0,1,-5,-14,-16,-5,-4
1558438750115525,0,0,-1,-3,1,2,2,1
1558438750115525,-2,-4,-6,-1,0,2,1,-1
1558438750124498,2,-1,2,1,-1,-21,-1,1
1558438750124498,-1,-1,-3,-2,5,11,2,0
1558438750130476,-1,2,8,12,-7,-4,-1,-1
1558438750130476,1,2,-8,-12,2,-4,1,3
1558438750138429,-3,0,0,-5,-3,1,-5,-2
1558438750138429,-1,-2,-1,0,-2,-1,1,-3
1558438750153389,0,-2,-1,4,-7,-4,-9,-5
1558438750153389,-1,-1,-2,-5,-4,-6,-5,-4
1558438750169343,-1,0,-3,-2,-2,5,3,1
1558438750169343,1,0,5,8,9,6,4,3
1558438750175329,1,0,2,1,0,-3,-3,-3
1558438750175329,-1,-2,-7,-8,-3,-2,-4,-5
1558438750184303,-2,-2,-2,-1,-4,-6,-5,-4
1558438750184303,-2,0,1,-1,2,11,4,2
1558438750191286,-1,-2,2,1,5,-5,2,1
1558438750191286,-3,-1,-6,-9,-5,-4,-1,-1
1558438750198266,-3,-2,2,4,-3,-2,0,1
1558438750198266,-1,-1,0,3,-1,1,-4,-3
1558438750213230,-3,-5,-8,-10,-5,0,-3,-3
1558438750213230,-1,-1,1,3,8,6,4,1
1558438750221244,-1,-1,3,2,0,2,-2,-3
1558438750221244,2,3,-1,-2,3,-4,2,2
1558438750236208,-2,-3,-5,-1,-4,1,-4,-2
1558438750236208,-1,-2,-2,-1,-5,3,-3,-1
1558438750244144,-1,-3,1,1,-1,-5,2,0
1558438750244144,-2,1,3,-3,-4,-1,-1,-1
1558438750259105,1,4,1,2,12,13,9,3
1558438750259105,-1,-3,-4,6,-2,-2,1,-2
1558438750260103,0,-1,4,-2,-1,-6,-7,-1
1558438750260103,0,-4,-7,-8,-6,-4,-1,-2
1558438750273066,-2,-1,3,1,-8,-8,-4,-2
1558438750273066,-3,-3,3,4,2,-4,-2,-4
1558438750282045,2,-1,-2,-3,4,5,2,1
1558438750282045,-2,0,2,2,-4,-4,-3,-3
1558438750296006,-2,0,-6,-8,-10,-6,-3,-2
1558438750296006,-1,0,4,4,10,5,0,1
1558438750303985,-2,-1,2,6,1,5,2,-3
1558438750303985,-1,-3,-5,-6,-1,2,1,-3
1558438750318943,0,0,-1,-1,0,-3,0,2
1558438750318943,1,0,-1,0,-2,-6,-4,-2
1558438750319940,0,-3,-5,-2,5,11,3,-1
1558438750319940,-3,-5,-4,0,-5,0,-4,-4
1558438750332906,-2,-3,-4,0,-1,-5,-3,-2
1558438750332906,2,1,4,4,5,4,9,4
1558438750341884,-1,2,-1,-1,-3,-10,-4,0
1558438750341884,0,-1,-4,-9,-5,-6,-6,-3
1558438750355846,-2,-2,-4,-6,-5,0,-4,0
1558438750355846,-1,-1,-1,-3,-1,5,2,0
1558438750363823,-1,0,1,1,3,0,-4,-4
1558438750363823,-3,-5,-7,1,-4,-6,-5,0
1558438750378784,0,0,3,-2,7,4,4,2
1558438750378784,0,-1,-6,-7,-3,6,-1,-2
1558438750379781,-2,-1,2,1,-6,-8,0,0
1558438750379781,-1,-1,4,3,3,2,3,1
1558438750393744,-2,-3,-7,-15,-8,-7,-7,-5
1558438750393744,-3,-3,4,6,-4,-3,-2,-3
1558438750401761,-1,-4,-11,-22,-8,-1,-3,-2
1558438750401761,-1,-1,0,2,-2,-4,-5,-3
1558438750415686,1,0,-1,5,-4,-3,4,-1
1558438750415686,-2,-3,-3,-7,-6,-8,-8,-3
1558438750423698,0,1,1,-1,7,2,5,2
1558438750423698,-1,-3,3,8,6,4,3,2
1558438750438652,-4,-2,-4,-14,-5,2,1,-1
1558438750438652,-1,0,-1,-1,-8,-11,-2,0
1558438750439620,-2,-3,-4,-3,-7,-8,-8,-2
1558438750439620,2,0,0,0,-2,7,1,1
1558438750453583,-1,-1,3,10,9,4,0,-3
1558438750453583,1,1,3,2,6,0,4,2
1558438750461562,-1,0,-3,-1,-5,-2,-1,0
1558438750461562,-3,-1,-8,-12,-1,-5,-1,-2
1558438750475559,0,-3,2,6,3,6,1,-3
1558438750475559,-1,-1,-1,-2,-5,-3,-2,-1
1558438750484501,0,-1,1,2,4,-1,5,2
1558438750484501,-2,-2,-3,-4,-7,-6,-5,-3
1558438750499460,-2,-1,-1,0,-4,-5,-2,0
1558438750499460,-1,0,-1,2,8,7,-2,-2
1558438750499460,-1,-2,-2,-3,0,0,1,-1
1558438750499460,2,2,5,6,2,5,2,1
1558438750513424,-1,-2,-2,0,2,1,-3,-1
1558438750513424,-1,0,5,5,-4,-11,-1,0
1558438750521429,-1,2,2,-2,1,0,-4,-1
1558438750521429,-2,-2,-1,-4,2,4,5,0
1558438750535428,1,3,3,6,-2,-5,-1,4
1558438750535428,-3,-1,-6,-9,-7,-1,-8,-2
1558438750544387,-2,-4,-3,1,0,9,1,0
1558438750544387,1,-2,3,5,-5,-11,-7,-1
1558438750559343,1,1,0,6,7,3,0,2
1558438750559343,-3,-1,-2,-12,-3,-3,3,-2
1558438750559343,-2,-1,2,4,-5,-6,-4,-4
1558438750559343,-1,-1,-10,-8,-3,-1,-3,-2
1558438750573301,-2,-2,3,5,0,-1,-2,-2
1558438750573301,0,-3,-4,-2,-2,-3,-4,-2
1558438750581243,2,0,-1,4,10,7,7,3
1558438750581243,-2,-1,-1,-2,-1,1,-3,-1
1558438750596238,-2,-3,-6,-6,-8,-6,-7,-5
1558438750596238,-1,1,0,0,1,2,6,2
1558438750604182,2,0,-2,0,0,-6,-1,-2
1558438750604182,-2,-2,2,6,4,4,0,1
1558438750619176,-1,-2,-5,-10,-7,-1,-3,-2
1558438750619176,-2,-4,-5,0,-1,-5,-6,-2
1558438750620177,-4,-5,0,-1,-6,-4,-6,-4
1558438750620177,1,2,0,1,8,8,9,2
1558438750633103,-4,-2,0,2,1,3,-3,-2
1558438750633103,1,-1,1,2,-6,-1,-3,-3
1558438750641081,0,-1,-7,-5,-3,-1,0,0
1558438750641081,1,-1,-1,-2,-1,-3,-1,-3
1558438750656082,0,-2,-3,-4,-1,-4,4,0
1558438750656082,2,0,0,-3,0,-9,-5,-1
1558438750664074,-4,-5,-4,-4,-13,-5,-3,-2
1558438750664074,2,2,4,9,19,10,2,5
1558438750678981,-2,-1,-2,-8,-5,0,1,0
1558438750678981,-4,-1,-1,4,1,4,3,0
1558438750680010,-2,-1,-1,-2,4,6,-1,-2
1558438750680010,-1,-4,-4,-6,-12,-9,-8,-6
1558438750692943,1,0,3,4,3,0,2,0
1558438750692943,0,-1,-5,0,3,-7,-4,-1
1558438750701954,-2,1,0,-3,-3,0,0,-2
1558438750701954,0,0,-2,-1,-4,-8,-1,-1
1558438750715883,-3,-1,-4,-1,2,4,-2,-2
1558438750715883,0,-3,0,-1,-6,-4,-2,-1
1558438750723900,-1,0,-1,-2,0,-5,-4,1
1558438750723900,1,2,2,-2,8,14,7,2
1558438750738820,0,1,-2,4,-2,-4,-1,0
1558438750738820,-2,-1,-3,-1,0,6,2,-2
1558438750739818,1,3,0,-1,2,0,3,2
1558438750739818,-3,-2,0,-2,-7,-12,-7,-5
1558438750753780,-1,-4,-2,-3,-8,-6,-8,-2
1558438750753780,-3,-1,7,9,9,11,0,-2
1558438750761760,-1,-1,-5,-3,-5,4,5,1
1558438750761760,-2,-5,-5,-1,-7,-13,-5,-3
1558438750775722,0,3,2,2,11,9,9,1
1558438750775722,0,-1,1,-3,-3,9,0,0
1558438750783701,0,-5,5,7,-3,-7,-6,-2
1558438750783701,0,2,-2,-3,-5,-3,-3,2
1558438750798660,-3,-2,-1,-4,0,-7,-5,-1
1558438750798660,-1,-3,-5,-2,-3,0,0,-3
1558438750799658,-3,-2,-1,0,-3,-4,-3,-2
1558438750799658,-2,-1,-4,-10,-5,0,-1,-2
1558438750813621,4,1,4,0,4,-4,4,2
1558438750813621,1,2,2,2,10,8,3,2
1558438750820637,0,-4,-3,-4,-2,1,-4,-1
1558438750820637,-3,-3,-5,0,-7,-1,-2,-5
1558438750835563,-1,-2,0,0,-9,-7,-6,-3
1558438750835563,0,-1,2,0,-4,-3,-2,-4
1558438750843579,-2,-3,-8,-5,-3,-7,-3,-2
1558438750843579,-1,1,5,4,6,-1,5,4
1558438750859497,0,0,-3,0,3,7,2,0
1558438750859497,0,-1,2,-2,-1,1,-1,2
1558438750859497,0,0,4,5,-1,5,-2,-3
1558438750859497,-2,-2,-7,-2,-9,-7,-3,1
1558438750873502,-3,-2,-2,-6,-1,0,1,1
1558438750873502,-1,-3,-5,-4,-9,-14,-9,-3
1558438750880470,-1,0,9,7,0,0,1,1
1558438750880470,2,-1,2,-7,10,12,7,3
1558438750895402,-2,-3,-4,-5,-4,-7,-4,-4
1558438750895402,0,-1,-1,-2,-5,-2,1,-2
1558438750904379,-1,1,-5,-8,-3,-6,-6,-2
1558438750904379,-1,-1,-3,0,-5,-1,2,0
1558438750919339,0,-2,-4,2,0,-1,-1,0
1558438750919339,-2,-2,3,7,2,-3,-4,1
1558438750919339,-2,-3,-23,-32,-11,-3,3,-2
1558438750919339,0,-1,6,6,5,5,1,-2
1558438750933768,2,-1,1,1,-3,3,-1,-2
1558438750933768,-2,-2,-3,-1,-1,-4,0,-2
1558438750941748,0,0,2,6,5,0,-3,1
1558438750941748,-1,1,1,2,1,-2,-4,-2
1558438750956238,-3,-3,-5,-13,-10,-5,-6,-3
1558438750956238,-1,-2,-2,-1,-3,0,0,0
1558438750964228,4,3,1,5,13,2,2,4
1558438750964228,-2,-3,-1,1,-3,-3,-5,-3
1558438750978388,0,0,6,6,3,0,4,2
1558438750978388,-2,0,-3,-3,-4,-6,-2,-1
1558438750986160,-2,-2,-6,-3,-7,-3,-4,-2
1558438750986160,-1,-1,-2,0,-5,-8,-3,1
1558438750994270,1,-1,-3,-1,-3,-6,-4,-3
1558438750994270,-1,0,1,2,-1,1,3,1
1558438751001120,4,4,11,14,11,-5,3,6
1558438751001120,-2,-2,-5,-21,-12,-7,-5,-3
1558438751017077,0,0,0,3,2,11,3,-1
1558438751017077,0,-1,-5,1,4,6,1,0
1558438751024057,-4,-3,2,5,-2,0,-3,-4
1558438751024057,-2,-3,-2,-2,-9,-10,-10,-4
1558438751038022,-4,0,-5,-7,-12,-13,-12,-3
1558438751038022,4,3,6,3,17,20,23,9
1558438751046996,-3,-2,4,8,3,-1,-2,-1
1558438751046996,0,-2,-3,3,9,14,6,1
1558438751053066,-2,-1,1,3,-1,-10,-5,-2
1558438751053066,-3,-2,-9,-12,-12,-8,-9,-2
1558438751060959,0,1,1,1,-2,-9,-4,-1
1558438751060959,-2,-2,-8,-7,-8,-6,-4,-2
1558438751075920,-1,-1,-1,0,-3,-1,0,0
1558438751075920,2,1,0,1,4,9,4,-1
1558438751083897,0,-3,5,3,6,5,4,0
1558438751083897,-1,-1,-1,2,-3,1,-3,-3
1558438751097895,-3,-3,-5,-3,0,5,-1,-1
1558438751097895,-1,0,-4,-6,-10,-19,-11,-2
1558438751106836,-2,1,-3,-1,3,9,2,-2
1558438751106836,1,1,3,1,7,2,4,2
1558438751112820,2,1,3,6,9,10,6,4
1558438751112820,0,0,-1,5,1,1,-1,-3
1558438751120798,-2,-3,-7,-6,-4,-5,-4,-2
1558438751120798,-5,-3,-4,-6,-9,-7,-3,-1
1558438751135797,-3,-2,4,2,6,-3,0,0
1558438751135797,-4,-3,-2,-3,-4,-6,-7,-3
1558438751143736,0,2,0,1,-2,2,-1,-4
1558438751143736,1,0,-4,2,3,-3,-2,1
1558438751158697,-1,1,-1,-2,-3,-4,3,3
1558438751158697,-1,-1,-4,-3,3,4,-4,-3
1558438751166676,0,-4,-4,-7,-5,0,-2,-5
1558438751166676,3,1,3,3,10,7,6,4
1558438751181637,-2,-1,-1,-4,-8,-9,-7,-4
1558438751181637,0,1,-1,-3,-5,-1,-1,0
1558438751182634,-2,1,-3,-5,5,21,9,4
1558438751182634,-1,-3,0,-3,-6,-15,-6,-2
1558438751197593,3,2,5,11,10,7,3,2
1558438751197593,-2,-4,-15,-16,-10,1,-2,-3
1558438751203577,-4,-5,-1,-2,-7,-2,-3,-3
1558438751203577,1,1,3,2,7,-2,2,2
1558438751218538,-3,-6,-14,-9,-10,-3,-2,-2
1558438751218538,0,-2,1,2,-5,-7,-5,-1
1558438751226516,2,-2,1,-3,1,-1,0,0
1558438751226516,-1,0,3,3,3,7,1,-2
1558438751241476,-1,-1,6,5,1,-3,-4,-5
1558438751241476,0,0,-7,-18,0,2,1,0
1558438751242474,-2,-3,4,5,-9,-14,-9,-2
1558438751242474,0,-2,-7,-3,-8,-9,-5,-5
1558438751255439,1,1,-2,-1,10,18,12,5
1558438751255439,-1,3,10,9,6,5,3,3
1558438751264414,-1,0,-6,-2,-4,-3,-2,0
1558438751264414,-1,-1,1,4,-1,2,0,0
1558438751278391,0,0,1,-5,3,-3,-2,1
1558438751278391,-1,-1,1,7,-2,-8,-3,-1
1558438751286355,1,-4,-3,-5,-2,6,3,2
1558438751286355,-1,-4,-4,-9,-6,3,-4,-4
1558438751301357,0,0,0,3,3,-5,0,1
1558438751301357,1,-1,6,8,1,1,-2,0
1558438751302313,-2,1,1,0,-1,-2,-4,-1
1558438751302313,-2,-2,-4,1,-10,-4,-7,-4
1558438751316282,-3,-3,0,0,-6,-8,0,-2
1558438751316282,1,-1,2,-1,-3,-7,-2,-2
1558438751324293,0,-1,-1,-7,2,2,2,1
1558438751324293,0,-1,-6,-4,1,3,1,1
1558438751338216,-3,0,-4,2,2,2,-3,-2
1558438751338216,-3,-4,-9,-9,-13,-12,-9,-5
1558438751346197,-1,0,4,2,1,-2,5,2
1558438751346197,1,3,10,15,12,9,8,3
1558438751361482,0,-2,-3,-11,-4,2,-2,-1
1558438751361482,-2,-5,-6,-2,-1,-5,-3,-3
1558438751362154,-1,-1,-2,-3,-4,-3,-4,-4
1558438751362154,-2,-1,-3,-4,-3,3,0,-3
1558438751376490,0,-2,3,10,2,-7,-2,1
1558438751376490,0,1,1,-7,3,-1,4,3
1558438751384282,-2,0,-3,-2,4,3,1,-1
1558438751384282,-4,-2,-9,-6,-7,-7,-9,-5
1558438751398060,-1,-4,-2,-3,-21,-6,-10,-8
1558438751398060,3,0,-4,-2,11,-6,3,3
1558438751406073,4,-1,5,4,8,5,4,0
1558438751406073,1,-1,4,0,2,0,1,1
1558438751420996,0,-2,-2,-2,-2,2,2,-1
1558438751420996,-2,0,4,6,-6,0,-4,-1
1558438751421993,-2,-1,3,6,8,-2,1,1
1558438751421993,-3,-2,0,-2,-5,2,-1,0
1558438751436031,-5,-1,-2,-6,-10,-3,-6,-3
1558438751436031,-4,-2,-3,1,6,7,6,1
1558438751444393,-4,1,3,-1,-9,1,-3,-3
1558438751444393,-3,-2,0,3,3,-9,1,0
1558438751459330,2,-1,-6,-4,0,-9,-3,-1
1558438751459330,-2,-2,-1,-7,-7,1,-6,-4
1558438751467362,-6,-5,-3,0,-9,-9,-10,-3
1558438751467362,2,3,8,8,11,8,8,6
1558438751481834,-1,-1,-4,-4,-8,-3,-3,-3
1558438751481834,-1,0,6,6,7,6,1,1
1558438751481834,-4,-5,-11,-14,-15,-11,-8,-4
1558438751481834,-3,-1,-8,-19,-16,-15,-8,-3
1558438751495799,3,0,-2,-1,5,-4,6,5
1558438751495799,0,1,4,9,9,16,8,1
1558438751503775,1,1,2,6,7,7,4,1
1558438751503775,-3,-2,-6,-5,1,-3,-6,-2
1558438751518777,-1,-2,-1,-4,-8,-14,-9,-5
1558438751518777,0,-1,-3,-4,-8,-9,-4,-2
1558438751526747,0,1,7,3,0,2,4,1
1558438751526747,1,-2,-5,-2,2,5,5,0
1558438751541672,-2,-1,-2,-1,4,4,-2,-1
1558438751541672,-1,-2,-1,3,-1,0,-2,-2
1558438751542670,-1,-3,-10,-11,-9,-18,-12,-6
1558438751542670,3,2,6,6,-6,-1,6,2
1558438751555667,1,0,7,10,14,13,4,0
1558438751555667,-3,-1,-8,-13,-10,-5,-3,-2
1558438751563810,1,0,3,6,-1,-2,-2,0
1558438751563810,-3,-3,-1,-4,-6,-9,-5,-1
1558438751578577,-3,-2,-6,0,6,7,5,2
1558438751578577,1,0,3,3,4,4,-4,-1
1558438751586582,-3,-2,0,4,-6,-4,1,-3
1558438751586582,0,3,6,8,15,11,6,3
1558438751601549,-1,0,-2,-3,-10,-11,-6,-2
1558438751601549,0,-2,3,3,1,2,4,2
1558438751602512,0,-1,-4,-7,-5,-8,-2,-1
1558438751602512,-1,-3,0,-4,-10,2,-8,-8
1558438751615478,0,0,0,-1,5,5,-2,0
1558438751615478,-2,-1,1,3,-2,-4,-3,0
1558438751624453,1,1,-2,2,9,8,4,1
1558438751624453,0,0,-3,-2,1,-1,4,1
1558438751638425,-4,-6,-6,-13,-11,-7,-3,-4
1558438751638425,-4,-4,-7,-10,-11,-10,-8,-6
1558438751646400,1,1,0,3,11,7,5,6
1558438751646400,1,0,3,5,10,7,0,-1
1558438751661353,-2,0,0,-6,-11,-3,-3,-2
1558438751661353,-1,-4,0,4,3,0,-2,-2
1558438751662355,-2,-1,-3,-2,-6,-2,1,-2
1558438751662355,1,-3,-1,-4,-1,-4,-2,1
1558438751675319,1,1,0,1,4,4,5,1
1558438751675319,-1,1,6,1,-3,-3,-6,-3
1558438751684292,-1,-2,-11,-12,-3,0,-3,0
1558438751684292,-2,-3,-5,-5,-3,1,-1,-2
1558438751698255,0,-2,-5,-4,1,5,2,1
1558438751698255,1,0,3,10,1,-6,0,2
1558438751706235,0,-4,-7,-16,-4,-1,-4,1
1558438751706235,-1,0,6,6,1,6,7,1
1558438751721195,-2,-2,-2,-3,-2,-4,2,3
1558438751721195,1,0,0,1,1,3,1,-1
1558438751722190,-3,-3,-1,0,-5,-7,-8,-6
1558438751722190,0,-2,0,2,-6,-9,-7,-2
1558438751736154,-1,-5,-3,-10,1,4,0,0
1558438751736154,1,-1,3,13,11,9,7,6
1558438751744131,1,0,4,-4,-1,0,2,0
1558438751744131,-5,-2,-11,-7,-14,-9,-5,-4
1558438751758113,-1,0,-1,1,2,2,2,-3
1558438751758113,-1,0,-2,-4,-2,-3,2,-1
1558438751766087,1,0,5,9,7,-1,-3,-3
1558438751766087,-6,-4,0,-3,-4,-5,-9,-7
1558438751781033,1,0,3,5,2,-5,-2,-1
1558438751781033,3,0,-5,-13,5,16,13,6
1558438751782030,-1,1,-2,3,-4,-3,-4,-1
1558438751782030,0,0,0,-5,-7,-10,-6,-2
1558438751795995,-2,0,5,2,1,2,-5,-4
1558438751795995,-4,-3,-6,-4,-10,-15,-4,-7
1558438751803972,3,2,3,12,16,17,14,6
1558438751803972,0,-1,0,0,-3,-3,-2,-1
1558438751817935,-3,-4,-6,-5,-5,-6,-8,-3
1558438751817935,-2,-2,3,0,-6,-6,-4,-2
1558438751826913,0,1,5,4,7,8,-1,0
1558438751826913,-1,-4,-3,-1,-8,-10,-7,-2
1558438751841870,1,3,-2,-2,6,12,8,2
1558438751841870,-2,0,-5,-12,-13,-6,-4,-2
1558438751841870,-1,-2,-2,1,-7,-10,-5,-5
1558438751841870,1,2,6,9,12,10,2,2
1558438751856834,-3,-4,-9,-5,-7,-11,-1,-1
1558438751856834,-1,-1,-2,0,2,1,-3,-1
1558438751863812,-1,0,5,8,1,-1,-2,1
1558438751863812,-1,-3,-8,-15,-4,2,5,1
1558438751878775,-1,1,0,-2,-4,-2,-4,-1
1558438751878775,1,-1,-1,-2,2,-2,0,1
1558438751886755,-2,-4,-5,-7,-8,-10,-5,-3
1558438751886755,-2,-3,2,5,-5,-5,-2,-2
1558438751900716,3,1,8,10,18,14,7,1
1558438751900716,-3,-1,-5,-4,-9,-6,-5,-4
1558438751908691,-4,-1,-2,-5,-5,-12,0,-1
1558438751908691,0,2,2,5,9,6,0,0
1558438751915672,-1,-1,-2,-2,0,11,6,1
1558438751915672,1,0,-1,-2,-4,-5,1,0
1558438751923652,-2,-1,-3,-4,-1,-12,-7,-2
1558438751923652,-1,1,2,6,2,3,2,1
1558438751938622,-1,0,1,-3,-6,-11,-6,-1
1558438751938622,-1,-2,-15,-14,3,14,4,-3
1558438751946593,-3,-5,-5,-3,-7,2,-2,-5
1558438751946593,0,-1,-6,-5,3,-2,-1,0
1558438751960555,-1,1,2,1,-3,-7,-4,-2
1558438751960555,-2,0,9,5,0,-5,-2,-1
1558438751969530,-2,-4,-9,-5,-4,3,-4,-2
1558438751969530,0,1,2,3,-1,-5,-2,-2
1558438751975516,1,1,1,-7,-2,-2,3,4
1558438751975516,-2,-3,-8,1,10,4,-1,2
1558438751984489,0,1,2,0,2,7,2,1
1558438751984489,-4,-3,-5,-10,-10,-6,-11,-8
1558438751998453,-3,-2,0,1,-5,1,-4,-2
1558438751998453,1,2,7,10,5,-12,5,4
1558438752006431,3,1,3,-1,-4,-9,0,0
1558438752006431,-2,-2,-8,-6,2,7,4,1
1558438752020394,-4,-4,-11,-10,-12,-1,-6,-7
1558438752020394,-4,-3,-5,-6,4,7,3,0
1558438752029376,0,2,1,-1,3,4,1,3
1558438752029376,-1,-1,2,0,-4,-5,-3,-4
1558438752035354,-2,-3,0,1,-7,-8,-10,-6
1558438752035354,-2,0,4,0,-4,-9,-9,-6
1558438752051315,-1,0,-4,2,2,8,9,3
1558438752051315,3,3,5,8,21,9,7,5
1558438752058301,-2,-4,-1,2,-1,2,0,0
1558438752058301,-1,-3,2,-4,-3,7,-3,-4
1558438752066272,-3,-1,-1,-1,-6,-7,-8,-6
1558438752066272,-2,-2,-2,-3,-1,-1,-1,0
1558438752081232,0,2,1,5,8,-1,4,1
1558438752081232,0,0,2,-1,-7,2,-3,-2
1558438752089238,-6,-7,4,6,-11,-16,-7,-5
1558438752089238,2,-1,-16,-16,1,3,9,7
1558438752105168,0,0,-4,-7,5,3,1,3
1558438752105168,-1,-3,-4,0,-3,1,-3,-2
1558438752105168,0,1,1,1,-2,9,-1,-2
1558438752105168,-5,-5,3,-3,-12,-14,-17,-7
1558438752118142,2,3,1,4,5,-7,8,5
1558438752118142,1,-1,1,5,7,5,1,1
1558438752127110,-1,-2,-6,-10,-9,-7,-4,-2
1558438752127110,-1,0,0,-1,3,12,6,0
1558438752141081,0,1,5,5,1,-4,-2,-2
1558438752141081,-2,-2,4,-1,-2,0,1,-1
1558438752150054,1,0,-3,-4,-5,-11,-3,0
1558438752150054,-1,-2,-6,2,-6,-3,-4,-3
1558438752165006,-2,0,3,1,-7,-1,2,0
1558438752165006,0,-1,-2,2,13,10,7,1
1558438752166003,-5,-4,-4,-5,0,3,-4,-3
1558438752166003,3,3,3,2,-1,-1,2,1
1558438752177972,1,-2,0,-3,-5,0,-4,-5
1558438752177972,-1,-4,1,7,-1,-7,-4,0
1558438752186947,-3,0,-6,-12,-7,-5,-5,-1
1558438752186947,-1,1,0,14,23,11,11,3
1558438752200910,-4,-5,1,-8,-4,-1,-7,-4
1558438752200910,-1,-2,-16,-13,-16,-12,-5,-2
1558438752216867,-1,-1,2,7,11,14,6,0
1558438752216867,0,-2,-4,-18,-18,-16,-7,-2
1558438752223851,1,-1,1,9,10,3,3,0
1558438752223851,1,2,7,5,9,3,0,-2
1558438752230831,-2,0,-4,-11,3,1,4,2
1558438752230831,-3,-3,4,10,-12,-9,-4,-3
1558438752237811,2,3,-1,-6,5,7,2,0
1558438752237811,1,3,9,10,3,3,-1,3
1558438752246788,1,-2,-4,-1,-1,1,-3,-4
1558438752246788,-4,-4,0,-11,-17,-15,-14,-7
1558438752260754,-1,-4,-15,-4,-4,-13,-8,-3
1558438752260754,0,-2,-2,-8,-2,4,6,2
1558438752269726,2,2,7,11,4,6,2,1
1558438752269726,1,-1,2,0,10,5,9,2
1558438752283691,-3,-1,0,-4,-1,3,-4,-1
1558438752283691,-5,-5,-12,-13,-10,-10,-6,-4
1558438752290677,1,0,3,11,2,2,1,1
1558438752290677,-4,-1,0,-6,-2,1,-4,-4
1558438752298648,-4,-3,1,2,-8,-6,-5,-4
1558438752298648,0,0,-5,-4,-3,-7,2,2
1558438752307629,0,1,1,10,11,8,7,1
1558438752307629,1,0,1,-1,8,12,5,3
1558438752320591,-2,-1,-2,-1,-6,-10,-6,-2
1558438752320591,-2,-3,0,1,-5,-3,-9,-6
1558438752329574,-2,-3,-8,-10,-9,-11,-5,0
1558438752329574,1,2,2,6,4,3,2,0
1558438752343534,2,1,2,1,9,19,11,3
1558438752343534,0,1,2,3,-2,-9,-8,-1
1558438752352507,-1,0,5,0,0,-3,0,1
1558438752352507,-4,-5,-16,-17,-7,-6,-4,-2
1558438752358488,-1,-4,-10,-7,-9,-9,-1,1
1558438752358488,-1,2,-1,2,-2,3,1,-4
1558438752367464,-1,-4,-6,-12,-5,-2,-2,-1
1558438752367464,-1,2,5,3,1,1,-4,-1
1558438752380433,0,-3,-1,-1,-8,-13,-3,0
1558438752380433,-1,-3,1,8,14,6,3,2
1558438752389408,-2,-2,-9,-14,-7,-6,-6,-3
1558438752389408,0,2,1,4,-7,1,-3,1
1558438752412350,-2,-1,1,4,5,8,1,-1
1558438752412350,-1,1,7,-1,-6,-4,-1,-2
1558438752413342,0,0,1,4,-2,-7,-5,-2
1558438752413342,-1,-1,-11,-8,-1,2,2,-2
1558438752418339,0,2,4,1,-1,-10,-3,3
1558438752418339,-3,-1,-3,-4,1,5,1,3
1558438752427310,-5,-2,-2,-8,-8,-2,-1,-3
1558438752427310,1,-2,-4,7,1,-1,-1,-4
1558438752441267,-1,-1,1,-3,0,-3,-2,-1
1558438752441267,-1,-1,-1,-4,1,5,1,-1
1558438752449253,0,1,-3,-6,-3,0,-5,1
1558438752449253,-1,1,8,11,1,-2,-3,0
1558438752463210,1,0,-4,-3,-4,-6,-2,-3
1558438752463210,-1,-2,-4,-8,-6,-10,-2,-3
1558438752472184,-2,-2,-3,7,-1,1,1,-2
1558438752472184,2,-1,3,0,3,1,5,2
1558438752478171,-2,-2,0,2,0,2,-2,-2
1558438752478171,0,0,-4,-2,-4,-6,-7,-5
1558438752487146,-1,-3,-5,-12,-5,3,1,-2
1558438752487146,-5,-3,4,1,-2,-10,-3,-4
1558438752501108,-3,-3,-5,-2,-5,-2,-6,-5
1558438752501108,-1,-1,1,8,-2,0,3,3
1558438752510083,0,3,1,-9,1,6,5,0
1558438752510083,-3,-2,-2,-7,-11,-13,-10,-3
1558438752523048,3,1,0,0,6,0,3,1
1558438752523048,-1,-1,0,-6,3,3,1,-2
1558438752532024,0,-2,-1,2,-12,-10,-6,-3
1558438752532024,5,3,10,15,20,12,13,8
1558438752538009,-5,-3,-7,-8,-10,-2,-6,-4
1558438752538009,-1,-2,-9,-8,-10,-13,-10,-4
1558438752546985,-2,-1,-1,4,4,-3,-3,-1
1558438752546985,-1,-1,-2,1,-1,9,1,-1
1558438752560946,0,2,1,-7,2,7,6,2
1558438752560946,-2,-3,-3,10,6,1,2,-2
1558438752575908,0,-2,9,12,4,-6,-3,-2
1558438752575908,-3,-4,-9,-17,-15,-15,-10,-4
1558438752582888,2,1,3,2,6,5,3,1
1558438752582888,0,1,-4,-6,1,12,2,1
1558438752591864,1,-1,5,4,1,-6,-2,0
1558438752591864,-1,-1,-7,-7,-2,-9,-1,0
1558438752598868,-3,-2,1,3,-8,1,-4,-3
1558438752598868,3,3,4,-5,13,12,8,3
1558438752606825,-1,-2,-1,3,0,0,-1,-1
1558438752606825,-1,-2,4,0,-5,-5,-4,-3
1558438752620787,2,0,-2,-9,4,3,3,-2
1558438752620787,-5,-1,3,4,-3,-3,-4,-4
1558438752629767,-1,-1,-3,0,2,3,-4,-1
1558438752629767,0,-4,-12,-11,0,0,-2,-1
1558438752643726,-1,0,-1,7,1,5,4,2
1558438752643726,2,0,3,2,-5,-16,-2,2
1558438752651708,1,-2,0,-3,-2,-6,1,1
1558438752651708,-2,-2,-3,4,1,2,-1,0
1558438752658686,1,-2,1,4,13,11,6,1
1558438752658686,-1,-2,-5,-7,-2,6,2,-2
1558438752666663,-2,-1,3,4,-7,-8,-5,-4
1558438752666663,-1,0,-1,-3,2,3,-3,-3
1558438752680631,-2,0,0,1,-7,0,-4,-4
1558438752680631,-3,-1,1,7,-3,-5,-3,0
1558438752689602,0,0,-1,-14,6,0,8,5
1558438752689602,-2,-2,4,3,3,5,3,0
1558438752703566,-3,-3,-7,-7,-4,-4,-2,0
1558438752703566,0,-1,1,2,-9,1,-4,-1
1558438752712541,0,-1,-1,5,8,9,0,-3
1558438752712541,0,2,-2,2,3,4,0,0
1558438752718526,-1,1,1,2,-1,-14,-3,-1
1558438752718526,-2,0,-4,-8,-3,0,0,-1
1558438752727501,0,-1,0,5,1,1,-1,-2
1558438752727501,1,1,11,7,8,8,8,2
1558438752740474,-3,-4,-7,-2,-9,-1,-4,-4
1558438752740474,-1,0,0,1,0,-4,-2,2
1558438752749443,0,0,-7,-16,-4,2,1,0
1558438752749443,0,-1,0,0,-10,-6,-7,-5
1558438752763406,-1,0,5,2,-3,0,0,-1
1558438752763406,-1,-1,-1,-9,-12,-9,-8,-5
1558438752772381,-3,-2,-2,11,9,7,7,4
1558438752772381,0,2,-2,1,4,-6,3,1
1558438752778367,-2,-1,5,4,1,-1,0,-1
1558438752778367,-1,-4,-12,-12,-13,-8,-7,-5
1558438752787345,-2,-2,2,4,-6,2,-1,-3
1558438752787345,-1,-1,-4,-8,-4,-3,-5,-2
1558438752800312,-1,-1,4,4,0,2,-1,1
1558438752800312,-2,-1,0,5,1,-3,-1,2
1558438752809295,0,-2,4,2,2,1,-4,-2
1558438752809295,-2,-4,-8,-4,-9,0,-3,-3
1558438752823245,1,1,-10,-2,-5,-18,-2,1
1558438752823245,-2,-3,-2,-9,-2,-2,-4,-3
1558438752832222,-3,-4,-5,0,-6,2,-4,-3
1558438752832222,3,2,3,10,15,16,13,8
1558438752838206,0,-1,6,0,2,-13,-4,-1
1558438752838206,-2,-2,-4,-2,4,0,1,0
1558438752847182,-2,-1,-4,-7,-10,-6,-4,-3
1558438752847182,-4,-2,-2,-3,-8,-12,-12,-6
1558438752861145,1,-2,-2,-2,4,8,4,0
1558438752861145,1,1,0,-4,4,-4,2,1
1558438752870129,-1,-1,1,4,-7,0,-2,-2
1558438752870129,0,-3,-2,-3,-5,3,3,1
1558438752883086,-2,-1,2,-1,1,8,-2,-2
1558438752883086,-2,0,6,6,-1,-12,-9,-3
1558438752892061,-3,-3,-14,-18,-6,-6,1,-1
1558438752892061,1,3,-4,1,8,6,4,3
1558438752907020,-2,-4,-8,-15,-5,2,-1,-2
1558438752907020,0,0,2,-2,-5,4,0,-3
1558438752909023,-1,1,5,-1,3,-6,0,0
1558438752909023,1,-1,3,7,-3,-18,-3,-1
1558438752920986,-1,-1,0,3,1,5,0,-3
1558438752920986,2,0,1,7,19,26,9,2
1558438752929980,0,0,0,-8,-8,-11,-3,0
1558438752929980,-3,-2,-6,-6,-7,-5,-7,-5
1558438752942925,-2,-2,0,0,-9,-4,-1,-1
1558438752942925,-1,-4,-4,0,-2,1,5,0
1558438752951900,-1,1,1,-1,3,5,1,-1
1558438752951900,-1,-3,1,6,-2,-8,-8,-2
1558438752957891,1,-1,1,-1,1,-4,-7,-2
1558438752957891,-2,-4,-11,-13,-7,2,3,-1
1558438752966864,-1,-3,-3,6,6,2,-2,0
1558438752966864,-5,0,-4,-10,-6,-1,0,0
1558438752980825,-2,-1,3,3,-3,-11,-4,-1
1558438752980825,0,-1,3,6,-2,5,1,-1
1558438752989802,3,4,5,7,18,13,6,4
1558438752989802,-1,-1,-5,-5,-10,-4,-6,-3
