timestamp,emg1,emg2,emg3,emg4,emg5,emg6,emg7,emg8
1558438669272301,-1,-1,-1,0,-4,-1,-2,-3
1558438669272301,0,-2,0,-2,2,0,-3,-3
1558438669278285,-1,-2,-1,2,-2,0,-2,-2
1558438669278285,-2,-2,-3,-2,-3,-6,-3,-1
1558438669279282,-1,0,0,-4,1,2,1,-2
1558438669279282,-2,0,-3,1,-5,-4,-3,-2
1558438669280279,0,0,4,5,7,4,2,3
1558438669280279,1,2,7,6,12,14,7,2
1558438669291250,0,-4,-4,-8,-3,0,-3,-1
1558438669291250,-2,-1,-5,-3,-3,-6,-1,-1
1558438669302221,-1,-2,-5,-7,-6,-4,-6,-5
1558438669302221,-1,-1,4,4,-7,-20,-4,-1
1558438669306210,-3,-2,-7,-8,1,2,2,2
1558438669306210,1,-1,0,3,3,9,3,0
1558438669321170,1,2,1,-1,3,5,2,-1
1558438669321170,-1,-2,-4,-4,-5,1,-7,-5
1558438669331143,0,1,5,2,3,4,5,3
1558438669331143,-2,0,3,1,-1,-12,3,6
1558438669338125,3,0,3,4,14,4,-1,3
1558438669338125,-2,-3,-11,-6,-10,-1,-5,-4
1558438669361063,1,0,6,5,3,6,2,-1
1558438669361063,-2,-2,-8,-2,-1,3,2,-1
1558438669363058,-1,1,4,3,-3,-6,-2,-2
1558438669363058,-3,-2,2,3,-8,-1,-3,-4
1558438669398961,2,2,-6,-11,6,7,7,2
1558438669398961,-1,-1,-1,1,-1,-11,-2,0
1558438669398961,-3,-2,-2,-3,-1,1,1,-1
1558438669398961,-1,-1,1,0,-1,1,1,0
1558438669399958,-1,-1,-1,2,-3,-2,-6,-2
1558438669399958,-1,0,1,1,-5,5,-2,-2
1558438669403948,-1,-3,-5,1,0,-3,-2,-1
1558438669403948,1,2,-4,-3,1,-4,0,3
1558438669410930,-1,-1,5,5,7,-3,-3,1
1558438669410930,1,0,4,5,5,-2,1,-1
1558438669419907,0,0,5,-4,-2,-1,-3,-3
1558438669419907,0,-4,-10,-5,-7,-1,-3,-4
1558438669425890,-3,-3,-4,-5,-8,-5,-3,0
1558438669425890,-1,0,0,-3,2,3,0,-1
1558438669440850,-1,2,5,4,-2,-5,-4,-3
1558438669440850,-1,-1,2,2,6,6,6,-2
1558438669448828,0,0,-1,-2,1,3,-1,0
1558438669448828,2,2,4,2,3,1,5,5
1558438669457806,0,-1,-4,-4,-4,1,-1,0
1558438669457806,-3,-2,3,-4,-6,-3,-6,-3
1558438669470769,-3,-2,-6,0,-4,-5,0,-2
1558438669470769,-4,-5,-4,-3,-9,-6,-8,-6
1558438669479744,0,-2,-3,-5,3,-5,1,2
1558438669479744,2,1,5,5,3,-4,3,2
1558438669485729,0,-1,2,-3,-7,-7,-5,-3
1558438669485729,0,-2,-3,-4,4,15,7,4
1558438669500689,1,0,3,5,2,5,3,-1
1558438669500689,0,-2,-4,-2,2,5,-5,-2
1558438669508668,-1,-1,-3,-5,-6,-8,-3,-3
1558438669508668,-2,-1,-1,0,4,0,-1,-1
1558438669517644,-1,-1,-5,-3,-5,-2,-1,-2
1558438669517644,-1,3,6,3,2,0,3,4
1558438669530611,-1,2,6,4,-1,0,2,1
1558438669530611,-1,-4,-15,-16,-13,-8,-9,-5
1558438669539585,-3,-4,-1,0,-3,1,-3,-1
1558438669539585,1,3,5,7,21,8,10,8
1558438669546567,1,0,5,-1,6,-2,-1,0
1558438669546567,-1,0,1,-4,1,2,1,-1
1558438669561526,-1,-1,0,-1,-5,-5,-4,-3
1558438669561526,-6,-6,-7,-7,-14,-8,-9,-8
1558438669568508,-2,-2,1,2,3,8,6,0
1558438669568508,2,-1,0,1,6,-1,1,2
1558438669583468,0,1,-2,0,2,1,1,0
1558438669583468,1,0,3,1,-3,-5,-1,-1
1558438669591446,-2,-3,-2,3,7,9,2,0
1558438669591446,-3,0,2,3,-3,-7,-3,-4
1558438669600423,-3,-3,-6,-10,-6,-5,-4,-2
1558438669600423,-1,-1,-2,-2,-3,5,0,-4
1558438669606408,-2,-4,-3,0,-5,-5,-8,-3
1558438669606408,-1,-2,-1,5,-3,5,4,0
1558438669621367,0,3,5,5,17,6,3,4
1558438669621367,-1,0,0,-1,0,2,0,0
1558438669628350,-3,-3,-15,-17,-12,-3,-5,-5
1558438669628350,-1,1,0,-4,-6,-9,-5,-4
1558438669643318,2,2,5,7,0,-4,-1,1
1558438669643318,-4,-6,-11,-17,-6,-2,-5,-5
1558438669651291,0,2,7,3,2,0,3,1
1558438669651291,-1,-3,2,2,-6,-7,-3,-3
1558438669660263,-2,-2,-3,-1,-7,-1,0,-2
1558438669660263,0,0,0,2,8,4,2,1
1558438669666250,-1,0,1,3,5,-1,-1,0
1558438669666250,-2,0,-1,-2,2,2,-3,0
1558438669681208,-4,-1,-2,-2,-9,-9,-2,-2
1558438669681208,-2,-5,-3,-5,-11,-11,-5,-6
1558438669688189,2,0,0,-2,0,8,4,-2
1558438669688189,0,0,2,2,-6,-4,-2,1
1558438669703148,-1,-1,0,-1,9,3,3,-1
1558438669703148,-1,-1,-2,0,0,1,1,1
1558438669711126,-2,-2,-1,-1,2,0,-3,-3
1558438669711126,-2,0,2,4,-4,-3,-6,-2
1558438669720102,1,-3,-9,-15,0,1,1,3
1558438669720102,-3,0,3,4,-1,3,-2,-1
1558438669726087,-3,-3,-4,-3,-3,-7,-1,-3
1558438669726087,-2,-5,-7,-2,-6,-4,-1,-3
1558438669741046,2,1,5,6,12,15,1,-1
1558438669741046,1,-1,-7,-5,-12,-15,-6,-1
1558438669749025,1,1,2,3,7,7,4,2
1558438669749025,-4,-1,1,-4,-1,-3,0,-1
1558438669763985,-3,-2,-4,-6,-9,-2,-4,-5
1558438669763985,0,2,2,3,4,-3,1,1
1558438669770966,-3,-1,-3,-2,-3,-4,-4,-2
1558438669770966,0,2,5,4,4,6,4,0
1558438669779942,-2,-2,-1,1,7,0,7,6
1558438669779942,-1,0,-4,-6,-6,-6,-3,0
1558438669785926,-1,-5,-7,-3,-5,-4,-1,-2
1558438669785926,0,-2,3,2,2,-1,-1,-1
1558438669800887,-3,-3,-4,-2,-20,-13,-10,-7
1558438669800887,3,3,7,9,17,12,8,3
1558438669808866,-1,2,2,4,7,3,-2,3
1558438669808866,0,0,0,-8,-4,8,0,-2
1558438669823826,-2,-2,-2,1,-2,-4,-5,-2
1558438669823826,-2,-6,-9,-14,-15,-21,-7,-3
1558438669830807,0,0,3,0,-1,-6,-1,0
1558438669830807,-1,-1,-6,-1,7,10,3,1
1558438669839782,1,-1,3,4,1,-1,5,1
1558438669839782,-1,-1,3,4,5,5,1,-2
1558438669845767,-1,-4,-8,-6,-12,-6,-6,-1
1558438669845767,0,1,0,0,8,-4,4,2
1558438669860726,-1,0,2,1,-5,-9,-8,-4
1558438669860726,-3,-1,-6,-3,-7,3,-1,-4
1558438669876684,1,1,5,1,8,-13,3,4
1558438669876684,-4,-1,-4,-5,-10,-4,-7,-3
1558438669883665,-2,0,2,6,-1,5,-4,0
1558438669883665,-2,-1,-8,-15,2,12,0,-3
1558438669890647,-3,-2,1,2,-7,-3,1,-4
1558438669890647,0,1,-4,0,8,6,10,4
1558438669899623,-2,-2,1,1,-2,-18,-4,1
1558438669899623,2,-1,5,5,6,4,2,2
1558438669914582,-1,-1,-4,-4,-8,4,-6,-5
1558438669914582,1,0,0,-3,-5,-6,-5,-2
1558438669921564,-4,-3,-9,-8,-6,4,-1,-5
1558438669921564,-1,0,5,5,5,3,4,0
1558438669928557,1,-1,0,-4,-2,-3,-4,-3
1558438669928557,-1,-2,-1,1,3,5,-2,-1
1558438669943505,-2,1,4,1,-4,-4,-1,-1
1558438669943505,0,-2,-8,-6,-1,-2,-1,1
1558438669951484,-4,1,1,0,2,7,3,0
1558438669951484,-1,-3,-5,-9,-9,-8,-4,-3
1558438669959462,0,-1,-1,-1,1,-1,1,0
1558438669959462,-1,1,3,3,1,-3,-1,0
1558438669974421,1,0,4,12,5,4,1,-1
1558438669974421,1,0,1,-4,3,3,1,0
1558438669981404,-2,-3,-5,-8,-5,0,0,-3
1558438669981404,1,-1,1,7,1,3,-2,-3
1558438669996365,1,-2,-5,-7,-5,-8,-7,-4
1558438669996365,0,1,4,5,5,1,0,0
1558438670003346,1,-2,-4,-3,3,4,5,1
1558438670003346,-3,-3,1,1,-5,-7,-4,-3
1558438670011327,-3,-2,0,1,1,0,1,0
1558438670011327,-5,-4,-5,-3,-6,-13,-8,-3
1558438670020300,0,1,3,-2,-3,4,-1,-2
1558438670020300,-2,1,-5,-1,5,2,-2,0
1558438670034262,1,2,0,-2,0,-3,4,4
1558438670034262,0,-2,-2,-1,1,5,0,0
1558438670041244,-1,-3,1,-1,1,-2,-4,-1
1558438670041244,-2,1,3,4,-4,-5,-5,0
1558438670048225,-1,0,-3,-2,0,4,3,0
1558438670048225,0,2,2,4,3,-3,4,1
1558438670063186,0,-1,2,4,9,3,3,1
1558438670063186,-1,-4,-3,-5,-6,-4,-3,-4
1558438670071165,-2,-2,-4,-4,-4,-4,-1,-3
1558438670071165,1,1,-1,-1,0,0,0,1
1558438670080140,0,0,-2,1,6,7,1,-2
1558438670080140,-3,-2,0,0,-2,2,-1,-2
1558438670094102,0,-1,-1,-4,-4,-4,-5,-2
1558438670094102,-1,-3,-3,1,4,-3,0,0
1558438670101085,0,1,4,-1,3,-5,0,1
1558438670101085,-1,0,0,-2,0,0,3,1
1558438670109062,-3,-2,-1,-1,-2,4,-3,-4
1558438670109062,-2,-2,1,0,-5,-3,-5,-3
1558438670124022,-2,-2,-5,-5,0,-4,-2,-1
1558438670124022,2,-1,-1,1,-6,-7,1,1
1558438670131007,-1,-1,-2,-1,4,1,2,0
1558438670131007,-2,0,-2,-3,1,2,1,-1
1558438670139980,-2,-3,-7,-2,-7,2,-3,-3
1558438670139980,-1,0,0,-8,-1,2,-1,-1
1558438670153943,3,-1,3,0,1,-5,-2,0
1558438670153943,-1,0,0,0,-6,-6,-3,-1
1558438670160923,0,0,-2,-2,0,2,1,-1
1558438670160923,-2,-1,-2,1,1,-3,-3,-3
1558438670168903,-3,-4,-6,-2,-3,2,-2,-2
1558438670168903,1,-1,-2,-5,1,3,1,1
1558438670183862,-2,-2,3,3,-6,-5,-1,0
1558438670183862,-3,-4,-1,-2,-11,-11,-9,-2
1558438670190844,2,2,2,1,6,10,8,4
1558438670190844,-2,-1,-1,1,-3,-6,-6,-3
1558438670199820,1,-1,-3,-4,0,-1,-2,1
1558438670199820,0,1,3,2,-1,2,3,2
1558438670213782,-1,1,1,4,2,2,-1,0
1558438670213782,-1,-3,-8,-18,-8,-4,-4,-3
1558438670220763,-3,-2,-2,-3,-4,-2,-1,-2
1558438670220763,-4,-2,-9,-6,-5,-2,-1,-3
1558438670228742,-2,-3,3,5,-4,-1,-1,-1
1558438670228742,2,3,4,6,17,8,10,4
1558438670243702,1,-1,0,-4,2,0,0,0
1558438670243702,0,-2,2,6,-2,-1,-4,-3
1558438670250682,-2,-3,-2,-1,-3,2,-2,-5
1558438670250682,-4,-7,-7,-10,-20,-9,-10,-5
1558438670259659,0,2,-1,0,2,-4,2,1
1558438670259659,2,1,2,0,10,6,6,5
1558438670273623,-1,-1,0,1,0,-4,-2,0
1558438670273623,-1,-1,4,8,-2,-2,-3,-3
1558438670282598,0,-1,-8,-13,-1,2,3,4
1558438670282598,-2,-2,1,-2,-6,-1,2,0
1558438670288583,-2,1,-5,-6,-2,-2,0,0
1558438670288583,1,0,2,6,-6,-2,-3,-4
1558438670303542,-2,-1,2,5,0,5,-4,-4
1558438670303542,-1,-4,-9,-8,-2,-1,-2,-2
1558438670311522,1,0,3,1,-2,-7,1,-1
1558438670311522,-2,-1,-2,-6,-6,1,1,-1
1558438670319500,0,-2,-1,4,-1,-7,-6,-4
1558438670319500,-1,-1,1,-3,-4,1,1,-2
1558438670333463,3,1,1,-1,-1,-5,-2,2
1558438670333463,2,1,-1,1,6,-1,4,2
1558438670342438,0,0,0,4,3,7,3,-2
1558438670342438,-1,-1,3,1,-4,-6,-5,0
1558438670348422,-2,-4,-3,2,6,9,3,0
1558438670348422,-1,-3,-8,-12,-5,-7,-1,0
1558438670363381,0,-1,1,-2,-4,-6,-5,-2
1558438670363381,0,0,0,-3,-4,-6,-3,-4
1558438670371361,-1,0,-1,0,4,8,4,1
1558438670371361,-1,-1,4,3,1,4,-3,-4
1558438670386320,-1,-1,-2,-2,-8,-3,0,-2
1558438670386320,-1,0,-3,2,6,-2,2,2
1558438670393303,0,1,-2,-4,-4,-4,-1,-2
1558438670393303,-4,-2,-3,3,-2,-8,-4,-1
1558438670409260,-2,-3,-6,-15,-11,-3,-5,-3
1558438670409260,1,-1,6,6,2,8,0,0
1558438670410257,0,-1,-6,-3,-1,-10,-5,1
1558438670410257,-1,1,2,2,7,6,10,2
1558438670423224,0,0,1,5,1,4,0,-1
1558438670423224,-3,-3,-3,-2,-10,-5,-5,-4
1558438670431202,-2,-2,2,2,0,7,-1,-4
1558438670431202,2,1,0,-1,-4,-11,-8,-1
1558438670446160,-1,-3,-3,1,5,5,5,4
1558438670446160,0,0,1,4,7,4,3,2
1558438670453141,-3,-6,-4,-7,-10,-8,-7,-4
1558438670453141,1,-3,-2,-9,-4,-7,-7,-2
1558438670469099,0,2,2,1,4,9,5,1
1558438670469099,-1,1,-2,0,2,4,-2,0
1558438670470096,-2,-2,0,-2,-4,-12,-2,-1
1558438670470096,-1,1,0,4,10,9,4,-1
1558438670483061,-1,-1,1,-1,-2,-1,-1,-2
1558438670483061,0,-2,2,-1,-1,-4,-3,-3
1558438670491040,0,-2,-5,-9,-3,-2,0,1
1558438670491040,-1,-2,-2,-2,1,9,3,0
1558438670506002,-1,-1,-2,0,-1,-5,-3,0
1558438670506002,-1,2,0,3,-1,-3,0,0
1558438670513978,-1,0,-3,-13,-3,-2,-1,-1
1558438670513978,-2,-2,-5,0,-6,-1,-3,-2
1558438670528938,0,0,2,0,-2,-10,-7,-2
1558438670528938,-2,-2,-4,2,2,6,3,2
1558438670529935,2,1,4,4,-2,1,0,2
1558438670529935,-2,-2,-1,0,1,1,1,-1
1558438670543898,-2,-3,-2,-1,-3,-5,-2,-3
1558438670543898,-1,0,1,1,-2,-4,0,-2
1558438670550879,-1,-1,-6,-5,-2,1,-1,-1
1558438670550879,-1,-1,-3,1,-2,-2,-2,-1
1558438670565839,-1,1,4,-4,4,6,-2,0
1558438670565839,-1,-3,-2,-3,-6,-5,-1,-2
1558438670573818,2,2,4,6,9,10,7,4
1558438670573818,1,3,8,6,2,-3,1,1
1558438670597754,-1,-5,-12,-8,-2,0,0,-2
1558438670597754,0,-3,-3,-8,-8,-7,-6,-2
1558438670597754,-4,-2,0,0,-8,-7,-8,-5
1558438670597754,-1,0,-2,1,-4,-5,-2,0
1558438670603738,0,2,6,6,8,3,3,0
1558438670603738,1,1,-5,-6,-1,0,5,1
1558438670610719,-1,-1,0,1,-7,-4,-4,-2
1558438670610719,-1,-3,-3,-3,-1,2,-1,1
1558438670625679,0,1,7,6,0,-7,-1,-1
1558438670625679,-5,-6,-14,-8,-1,-5,-6,-4
1558438670633658,1,0,-6,-11,-6,-4,-2,-4
1558438670633658,-1,-2,-7,-6,-2,7,0,-1
1558438670649616,-3,-4,-5,-1,-4,-4,-2,-2
1558438670649616,1,3,11,12,10,6,8,4
1558438670649616,-2,-2,-2,3,4,0,1,-1
1558438670649616,-2,-1,1,-2,-3,1,-2,-3
1558438670663578,-1,0,-3,-2,0,2,-1,-1
1558438670663578,2,1,8,3,-3,-5,-5,1
1558438670670561,-1,0,-2,-1,0,4,0,-1
1558438670670561,0,2,5,7,3,-5,4,2
1558438670685520,-2,-2,-2,-1,5,4,0,0
1558438670685520,-5,-3,-7,-5,-16,-8,-8,-6
1558438670693499,-2,-1,3,1,12,5,-2,1
1558438670693499,-2,-4,-5,-4,-4,-1,-5,-5
1558438670709456,1,1,-4,-5,-5,-6,-2,-1
1558438670709456,-1,-1,5,3,3,2,1,1
1558438670709456,1,1,-3,2,-3,-2,2,1
1558438670709456,-5,-2,-6,-5,-3,0,0,-4
1558438670723418,-3,0,3,1,-8,-12,-4,-1
1558438670723418,1,1,-2,0,7,2,0,-1
1558438670731396,-2,-3,-4,-11,-6,4,0,-2
1558438670731396,0,0,-4,-1,7,-4,3,2
1558438670746360,-1,-2,-6,-8,-3,-7,-1,-1
1558438670746360,1,0,2,4,2,5,-3,-2
1558438670753338,-4,0,-5,-7,-9,-3,-3,-1
1558438670753338,-1,0,0,-2,-6,2,-2,-3
1558438670769296,-2,-2,-4,0,1,4,3,-1
1558438670769296,-1,-1,-3,-2,4,-3,2,-1
1558438670770293,1,1,2,4,5,4,-2,-1
1558438670770293,-1,-1,0,-7,-3,-2,0,-2
1558438670783258,-1,0,3,3,-13,0,-3,-3
1558438670783258,-1,-1,-1,-1,1,-6,-5,-2
1558438670791237,1,-4,-3,-2,3,-4,2,1
1558438670791237,-2,-2,-4,-1,-3,-4,-5,1
1558438670806197,-1,-2,1,0,-7,-7,-5,-3
1558438670806197,-3,0,-6,-6,-7,2,-3,-4
1558438670813179,1,1,2,4,4,0,4,0
1558438670813179,1,1,1,0,2,6,4,3
1558438670828139,1,0,5,11,9,8,1,1
1558438670828139,2,0,2,-12,-2,-1,1,2
1558438670837114,-3,-6,-9,1,-4,-10,-6,-6
1558438670837114,2,-1,-3,1,-4,-7,-3,-3
1558438670843098,-3,-5,-5,-13,-4,2,-4,-3
1558438670843098,-3,-1,0,0,-5,-10,-5,-3
1558438670851076,0,2,4,4,0,-6,0,-1
1558438670851076,4,3,5,3,11,20,11,4
1558438670866037,2,-2,2,5,7,3,-2,0
1558438670866037,-3,-1,-1,-1,0,5,1,0
1558438670873020,-2,-3,-3,-2,-9,-11,-3,-2
1558438670873020,-5,-2,-2,1,-2,-8,-8,-5
1558438670888976,-2,0,0,-3,-5,-1,1,-1
1558438670888976,2,-2,2,2,6,10,3,-2
1558438670896956,2,0,0,-3,-5,-10,-3,-2
1558438670896956,-1,-1,0,-2,4,4,3,1
1558438670903936,1,2,3,8,3,-2,3,2
1558438670903936,-2,0,3,0,4,5,1,1
1558438670910917,-4,-3,-16,-14,-10,-1,-4,0
1558438670910917,-2,-4,-6,-8,-7,-5,-5,-4
1558438670925878,-1,-1,-3,-6,-10,-8,-4,-2
1558438670925878,1,1,2,10,7,3,5,2
1558438670933857,2,0,8,4,4,7,-2,0
1558438670933857,0,-2,-3,-7,-4,-3,-5,-1
1558438670948816,-2,-3,0,2,-3,-1,-1,-3
1558438670948816,-4,-4,-8,-7,-15,-9,-7,-5
1558438670956795,0,1,1,-1,-11,-17,-9,-5
1558438670956795,-1,0,2,4,8,5,11,8
1558438670963775,4,4,9,9,23,12,11,7
1558438670963775,1,-3,-4,-1,0,7,0,-2
1558438670970769,-4,-5,-8,-13,-5,0,-1,-3
1558438670970769,-4,-2,0,-3,-15,-9,-9,-7
1558438670985717,-3,-3,-9,-6,-7,-7,-6,-4
1558438670985717,-2,-1,-6,-2,-5,-9,-1,2
1558438670993696,3,2,9,12,16,3,11,6
1558438670993696,2,0,1,4,-2,-3,-2,-2
1558438671008656,-2,0,-2,-5,-4,2,-3,-2
1558438671008656,-4,-1,-1,-2,-2,1,-4,-3
1558438671016665,-2,-2,-1,-1,-7,-2,-3,-1
1558438671016665,1,3,9,7,6,5,2,0
1558438671031633,0,-1,-11,-15,-7,-10,-5,4
1558438671031633,-3,-5,-6,0,-14,-16,-4,1
1558438671032592,-2,1,5,3,0,-2,-3,2
1558438671032592,-2,-3,-5,-11,5,12,5,0
1558438671045592,0,0,5,6,1,3,2,-2
1558438671045592,2,2,6,-3,1,-3,1,-3
1558438671053574,0,-1,-4,2,3,7,1,-3
1558438671053574,-1,1,1,2,-3,-10,-10,-5
1558438671068535,-4,-5,0,-2,-5,-3,-3,-6
1558438671068535,-3,-2,-4,-6,-6,-1,0,-2
1558438671076508,1,2,3,5,9,9,7,2
1558438671076508,-1,-1,-5,-5,-5,-9,0,0
1558438671091435,0,0,-5,-2,4,3,1,0
1558438671091435,0,-1,-2,1,-6,0,-7,-5
1558438671092431,-1,-2,-1,-2,-8,0,-5,-5
1558438671092431,-1,0,-1,1,4,-1,2,2
1558438671106394,-1,0,1,2,0,-10,0,0
1558438671106394,0,1,3,5,4,-3,1,1
1558438671113375,-1,1,1,-6,5,11,2,1
1558438671113375,-3,-1,-8,-3,-4,-1,-4,-4
1558438671130331,-1,-2,-3,-2,-5,4,-1,-2
1558438671130331,3,3,2,4,8,-3,2,2
1558438671136313,-2,-4,-2,-7,-12,-7,-4,-1
1558438671136313,-2,-4,-1,2,0,-3,-2,1
1558438671151315,1,1,9,5,6,8,1,1
1558438671151315,-1,-4,-13,-10,-6,-3,2,0
1558438671152272,-1,0,2,-2,0,-4,-2,0
1558438671152272,-1,-3,4,8,-4,-1,-6,-3
1558438671174212,2,0,2,-4,3,-3,1,1
1558438671174212,-1,-1,-9,-8,2,1,-2,0
1558438671175209,-2,0,-1,3,-5,-2,-3,-2
1558438671175209,-3,0,-4,-5,-5,6,-1,-3
1558438671188176,1,1,0,3,-3,-6,-2,-2
1558438671188176,1,2,7,5,6,-6,11,6
1558438671197185,-2,-3,-5,-2,7,0,-3,-2
1558438671197185,-1,-2,-1,0,-4,-5,-2,-3
1558438671212112,-1,-1,-3,-1,-5,2,1,-1
1558438671212112,-4,-3,-1,-4,0,6,-3,-3
1558438671212112,0,0,4,4,1,-1,0,0
1558438671212112,0,1,-1,-2,2,0,1,1
1558438671226073,-3,-4,-7,0,-3,-1,-4,-2
1558438671226073,-2,-3,-6,-11,-10,-2,-1,-3
1558438671234052,3,0,3,6,10,4,7,4
1558438671234052,1,-1,0,-1,0,-6,-3,-1
1558438671249012,-6,-5,-4,-5,-7,-4,-4,-4
1558438671249012,-2,0,2,6,5,3,-2,-2
1558438671256991,-2,0,1,0,-7,-5,-4,-4
1558438671256991,2,2,2,3,8,0,0,3
1558438671271995,-5,-3,-13,-15,-10,-10,-7,-1
1558438671271995,0,-2,2,4,1,8,0,-1
1558438671271995,-1,-1,-2,-1,6,7,8,0
1558438671271995,-2,0,0,-1,-4,-10,-6,-4
1558438671285914,3,1,2,1,1,0,2,2
1558438671285914,0,-1,0,2,7,10,0,1
1558438671293896,-2,-3,-3,-3,-6,-1,-5,-3
1558438671293896,1,1,0,-4,1,-1,3,2
1558438671308853,-1,-1,-1,1,0,-9,-3,-2
1558438671308853,-1,-4,-3,-9,-13,-7,-6,-5
1558438671316882,0,2,-3,-1,3,1,3,3
1558438671316882,0,-2,4,2,13,13,5,2
1558438671331792,-1,1,0,-1,3,6,4,-1
1558438671331792,-2,-1,2,5,-8,-8,-2,-1
1558438671332790,-4,-3,-3,0,-10,-10,-9,-5
1558438671332790,0,-1,-6,-7,-11,-20,-3,-2
1558438671345753,0,-1,0,-2,-2,3,-3,-1
1558438671345753,2,0,1,-1,1,3,1,0
1558438671361766,-2,-2,-1,-2,-1,1,-1,-1
1558438671361766,-3,-3,2,6,-1,-1,-1,0
1558438671368733,0,2,3,2,1,4,3,-1
1558438671368733,-1,-1,-3,3,2,-1,-1,0
1558438671384688,-1,-3,-4,-5,-3,-4,-3,-1
1558438671384688,-1,-3,-6,-3,-9,-9,-5,-1
1558438671391674,-3,-2,2,-2,2,1,-1,-2
1558438671391674,0,0,2,1,0,6,-4,-2
1558438671392630,2,1,1,2,4,-5,4,3
1558438671392630,-1,-1,0,-3,-2,1,-2,-2
1558438671407590,-1,-3,3,4,0,4,0,-2
1558438671407590,0,-2,-7,-8,-1,3,6,0
1558438671413899,1,-1,1,-1,-2,-1,-2,-1
1558438671413899,0,-3,-7,-1,-3,-3,-4,-2
1558438671428599,0,0,-2,-1,-1,-2,-1,0
1558438671428599,-4,0,1,3,-3,-15,-10,-4
1558438671437548,0,0,2,-2,-3,2,2,-2
1558438671437548,-1,0,1,1,4,-1,1,1
1558438671451747,1,0,-1,-2,7,3,1,0
1558438671451747,-2,-2,2,-1,-9,-4,-3,-2
1558438671452469,-2,0,-3,0,1,3,-1,0
1558438671452469,-1,1,-3,-4,-8,2,-4,-5
1558438671466662,-2,-2,-4,-1,-3,-14,-4,1
1558438671466662,-3,-1,-3,-3,0,-2,-4,-3
1558438671473414,1,-1,3,3,5,0,3,1
1558438671473414,0,0,5,4,5,1,-1,1
1558438671490367,-4,-1,-2,-6,-5,0,-2,-3
1558438671490367,0,0,-4,-4,6,8,4,0
1558438671496351,-2,-1,-1,2,-6,-7,-6,-4
1558438671496351,-2,0,-4,-8,-1,-2,7,2
1558438671511314,-1,-2,1,0,-1,0,-3,1
1558438671511314,-1,0,3,1,-2,-2,-3,-1
1558438671512308,0,-2,-6,-6,-1,1,-5,-3
1558438671512308,-1,-2,1,4,-5,-4,-7,-3
1558438671526328,0,0,-1,4,0,-2,2,2
1558438671526328,2,3,2,-4,10,8,12,4
1558438671533252,-1,1,-1,-2,2,-2,1,3
1558438671533252,-4,-1,-1,-2,-3,-2,-3,-3
1558438671548211,0,0,-1,0,0,3,-1,-2
1558438671548211,-1,-6,-7,-6,-8,-7,-6,-5
1558438671557190,-1,-3,-1,-2,-8,-2,-3,-1
1558438671557190,-1,-2,-2,-2,4,14,-4,-4
1558438671572149,-4,-4,-3,-2,-7,-10,-5,-3
1558438671572149,4,5,11,13,13,-8,7,7
1558438671572149,-4,-1,-1,-2,-2,-1,-4,-3
1558438671572149,-1,-2,-4,-9,-4,6,1,0
1558438671594089,-2,0,0,-4,-2,4,-1,-3
1558438671594089,-4,-4,-2,-4,-9,-10,-4,-1
1558438671595086,1,-1,-1,5,4,0,1,0
1558438671595086,0,-1,3,-2,-3,3,2,-1
1558438671625007,3,-1,1,-1,-1,-1,-2,0
1558438671625007,-2,-3,-5,-4,-6,-1,-3,-3
1558438671626031,-1,2,3,-2,-7,-12,-1,3
1558438671626031,0,3,5,10,12,11,4,1
1558438671631987,0,0,-1,2,5,5,2,1
1558438671631987,2,0,-5,-4,0,0,-4,-1
1558438671631987,-3,-4,-5,-3,-4,-1,-7,-7
1558438671631987,-1,-3,-3,-5,-7,-2,2,2
1558438671645950,2,3,6,1,1,-9,1,1
1558438671645950,-2,-3,-5,1,-1,6,-5,-4
1558438671653929,0,-2,-2,-1,-1,-11,2,1
1558438671653929,1,0,-2,-1,1,-3,3,0
1558438671668888,-3,-2,-1,0,3,0,-2,0
1558438671668888,-3,-1,2,2,-5,-2,0,-2
1558438671676895,-1,-1,0,-2,1,3,-3,-4
1558438671676895,-1,-1,-1,-1,-1,2,0,2
1558438671691828,0,-3,-4,-3,4,5,1,0
1558438671691828,0,-1,-5,-8,-4,-2,1,-1
1558438671692852,-1,2,7,2,4,13,5,1
1558438671692852,-2,-2,-6,-7,-4,-10,-3,-2
1558438671705823,0,1,-7,-2,2,2,4,3
1558438671705823,-3,-2,0,3,1,-5,-3,-2
1558438671713796,0,-3,-2,-6,-5,0,-3,-2
1558438671713796,-2,-1,6,8,-1,-7,-3,-1
1558438671728730,-1,1,2,-2,3,4,4,-1
1558438671728730,0,0,1,1,4,4,-1,0
1558438671736709,-3,-1,-3,2,-3,1,-2,-2
1558438671736709,-2,-3,-4,-5,-6,-13,-3,-2
1558438671750697,-4,-1,-3,-2,-11,-2,-2,-4
1558438671750697,0,2,1,-3,0,-4,-4,-2
1558438671759646,-2,-1,-4,-5,1,0,0,0
1558438671759646,0,0,2,0,6,1,1,0
1558438671765630,-1,-3,1,2,-1,2,-2,-2
1558438671765630,-2,-2,-5,-3,-13,-9,-7,-2
1558438671773609,-2,0,0,2,1,-4,0,1
1558438671773609,0,0,2,1,9,6,5,3
1558438671788572,-3,-2,0,-1,1,4,-2,-1
1558438671788572,0,0,4,3,5,8,2,-2
1558438671796547,-2,-4,-4,-3,-8,-9,-5,-5
1558438671796547,0,-4,-9,-7,-10,-4,-6,-5
1558438671811870,-1,0,0,-2,-1,-9,-5,-2
1558438671811870,-1,-3,-1,-4,-2,-3,0,0
1558438671819861,1,1,2,2,2,12,9,5
1558438671819861,-1,-1,2,1,0,3,-1,-1
1558438671826924,0,0,3,10,2,0,-3,-1
1558438671826924,-3,-3,-8,-15,-5,6,1,-1
1558438671833919,-1,-3,-4,-5,-6,-12,-5,-2
1558438671833919,-3,-3,-7,-6,-8,-4,-7,-4
1558438671848743,0,-2,-3,-1,-6,-6,-3,-2
1558438671848743,1,0,6,9,10,-8,2,4
1558438671857418,4,2,1,5,8,12,11,2
1558438671857418,-1,1,-2,-2,12,10,1,2
1558438671873589,-3,-2,-3,-3,-8,-9,-8,-5
1558438671873589,-2,-1,-1,1,-4,3,-2,-3
1558438671879326,-4,-1,-6,-5,-2,-1,-3,-5
1558438671879326,-1,1,3,2,-8,-8,-1,-1
1558438671894286,1,-2,-5,-4,3,-8,-1,1
1558438671894286,0,2,-1,4,1,-2,-4,0
1558438671895283,0,-1,-3,-8,4,6,4,2
1558438671895283,-2,-1,3,1,0,4,2,-2
1558438671908276,-1,1,3,-1,-1,1,-4,0
1558438671908276,-2,-3,2,2,1,1,1,1
1558438671916227,-2,-1,-3,-4,-10,-14,-12,-3
1558438671916227,-1,-2,-5,-2,-7,0,-2,-2
1558438671931187,1,-1,0,-3,5,14,4,0
1558438671931187,-3,-2,-1,-1,2,-8,0,-1
1558438671939167,-1,1,-1,1,1,-2,0,1
1558438671939167,0,1,-2,1,4,7,3,-1
1558438671954128,-3,-4,-1,-1,-4,-7,-1,-1
1558438671954128,-1,-1,1,-2,-6,0,-3,-4
1558438671955124,-3,-3,-1,-2,-8,-6,-7,-5
1558438671955124,2,3,6,8,10,0,7,4
1558438671968090,-2,-1,-7,-11,-6,1,-2,-2
1558438671968090,1,1,-1,2,3,2,4,2
1558438671977069,2,1,4,6,11,9,0,3
1558438671977069,-2,-2,-7,-11,-10,-6,-5,-3
1558438671991546,-3,-1,1,3,-2,-2,3,-1
1558438671991546,-2,-2,-3,-7,-4,-2,-1,-1
1558438672000152,-2,-2,-2,1,-1,-2,0,-3
1558438672000152,0,-1,1,1,0,-4,-3,-2
1558438672015019,-2,-3,-1,-2,-1,1,-2,-2
1558438672015019,0,0,2,4,3,3,3,2
1558438672015019,-4,-5,0,2,3,2,-4,-3
1558438672015019,0,-2,-8,-7,-9,-3,2,-2
1558438672029925,-3,0,2,1,-2,-6,-2,0
1558438672029925,-1,-2,-8,-7,-6,-3,-5,-3
1558438672037260,2,1,6,3,0,8,5,2
1558438672037260,-2,-2,-3,-1,0,-2,-2,-1
1558438672051865,-1,-1,-2,-1,-6,-4,-5,-3
1558438672051865,-3,-2,4,5,5,-5,2,2
1558438672059957,-2,-1,-3,-4,-1,1,2,2
1558438672059957,0,-1,2,0,-5,-1,-4,-3
1558438672073837,-1,-1,-4,-2,-3,1,-4,-1
1558438672073837,-1,-1,-4,-4,-13,-9,-9,-5
1558438672074803,1,-1,2,5,9,4,7,5
1558438672074803,-2,-1,-5,-10,2,0,2,2
1558438672088767,2,-1,3,6,3,2,1,-1
1558438672088767,0,-1,2,-5,-4,1,-7,-4
1558438672095746,-3,-1,-4,-1,-8,-4,-7,-4
1558438672095746,-2,-2,1,3,-2,-7,-5,-1
1558438672110736,0,0,0,-1,-3,3,3,2
1558438672110736,1,-2,-2,0,6,6,3,0
1558438672119683,-2,-4,-5,-2,-2,-6,-3,-3
1558438672119683,1,0,1,-1,3,3,2,-2
1558438672134644,-4,-1,-2,-2,-1,-4,-1,0
1558438672134644,0,-2,0,2,4,5,3,0
1558438672134644,0,0,-1,-3,-3,-2,-8,-2
1558438672134644,-3,-1,1,2,-6,-6,-4,-2
1558438672148636,2,3,5,7,13,10,4,2
1558438672148636,0,-2,-2,-1,-3,-3,1,-2
1558438672155588,-2,-2,-5,-8,-4,-1,-2,-2
1558438672155588,-2,-2,2,6,-5,-2,-2,0
1558438672170759,1,-1,-1,-1,-4,-6,-4,-1
1558438672170759,-1,-1,0,2,6,5,2,0
1558438672179552,0,0,-3,-5,-11,-9,-7,-5
1558438672179552,2,1,5,7,9,16,6,-1
1558438672194482,-1,-2,-6,-12,1,-4,1,1
1558438672194482,1,0,1,7,0,-8,1,-1
1558438672194482,-1,1,2,0,-3,-4,-1,-1
1558438672194482,-3,-3,-5,-1,-1,-1,-6,-1
1558438672216624,-3,-2,-6,-10,-7,-4,-1,-3
1558438672216624,1,-1,0,-6,-5,-1,-5,-1
1558438672217423,-1,-2,-5,-2,-5,0,0,0
1558438672217423,0,0,1,2,4,-1,1,0
1558438672231573,0,-1,0,2,1,1,5,-1
1558438672231573,-1,1,2,3,-3,-4,-1,-1
1558438672239364,2,1,-3,0,4,1,0,0
1558438672239364,-4,-5,-9,-13,-8,-5,-7,-4
1558438672254323,1,0,0,1,-2,0,2,0
1558438672254323,-1,1,-1,-1,2,4,-1,0
1558438672255324,-2,-2,5,5,3,3,4,1
1558438672255324,0,1,3,6,-1,-18,-5,2
1558438672268286,-1,-3,-4,-2,0,5,-2,-2
1558438672268286,0,-3,-2,-8,-5,3,0,-2
1558438672276275,-4,-3,-2,-5,-5,-6,0,0
1558438672276275,-1,1,1,-1,2,5,-1,1
1558438672291266,-2,3,3,6,8,6,1,0
1558438672291266,-1,-1,-6,-2,-3,-2,1,-1
1558438672299250,-1,-4,-2,-1,-4,-6,-2,-3
1558438672299250,-3,-1,-1,1,-3,1,0,-3
1558438672314162,-2,-3,-2,-8,-6,-4,-7,-3
1558438672314162,-3,0,2,1,2,9,1,2
1558438672315163,0,-2,-1,0,3,2,1,0
1558438672315163,0,0,0,3,1,-4,1,2
1558438672328177,0,-2,-5,-9,-5,-3,-6,-3
1558438672328177,-3,-2,0,5,0,3,-2,-2
1558438672336162,-3,-3,-6,-16,-12,-7,-8,-5
1558438672336162,1,-2,0,-5,5,2,5,-1
1558438672351119,0,-1,1,1,1,-6,0,-1
1558438672351119,-1,-2,-4,-1,-5,-4,-2,-2
1558438672359097,0,2,0,4,7,7,4,3
1558438672359097,0,-1,1,1,0,-1,-2,-3
1558438672374053,0,-3,2,3,-3,-4,-3,-1
1558438672374053,-2,-2,-9,-8,-4,-2,-1,-3
1558438672375001,-1,1,1,3,5,2,0,-2
1558438672375001,-4,-2,-6,-7,-11,-3,-4,-4
1558438672388964,-1,-1,4,10,8,-1,4,3
1558438672388964,2,3,11,10,7,-3,3,4
1558438672395946,-1,-3,-13,-16,-2,3,-2,-1
1558438672395946,-3,-3,0,-1,-6,-4,-7,-4
1558438672410905,-1,-4,-8,-5,-14,-8,-5,-2
1558438672410905,1,1,-3,5,7,-1,2,1
1558438672419071,-1,-1,7,8,3,-4,-4,1
1558438672419071,-3,1,-2,-5,-6,1,-4,-2
1558438672434037,0,0,-1,-4,-2,0,-2,0
1558438672434037,-1,-3,-4,-6,-5,-6,-1,-3
1558438672434842,1,-1,2,8,3,5,1,-2
1558438672434842,-2,-1,4,0,1,-3,-2,4
1558438672448888,-1,-1,2,3,3,-1,-4,-2
1558438672448888,-2,-1,-5,-5,-1,-1,-4,-2
1558438672455784,-2,-2,-2,-13,-6,-9,-4,-1
1558438672455784,0,-2,1,2,-7,-5,1,0
1558438672470781,-1,-1,-5,0,8,7,1,1
1558438672470781,-3,-3,-2,-3,-9,-6,-3,-4
1558438672478880,1,1,2,5,2,9,3,0
1558438672478880,0,0,-2,1,8,6,5,1
1558438672494646,0,-1,0,-4,-6,-7,0,1
1558438672494646,-5,-2,1,0,-3,-5,-5,-3
1558438672494646,-3,0,1,2,-4,-4,-4,-1
1558438672494646,-1,-1,-4,-4,-1,1,-1,-1
1558438672508677,-1,-1,1,1,-3,-3,0,-3
1558438672508677,4,0,0,0,-4,-8,-1,-1
1558438672515665,1,-2,0,3,5,2,4,1
1558438672515665,0,-2,-1,1,2,-4,-2,-3
1558438672539530,-1,-1,-3,-1,-2,1,1,-1
1558438672539530,-2,0,-1,-8,-1,4,-4,0
1558438672540530,0,-2,-1,3,-3,-4,0,-3
1558438672540530,-1,-1,-3,-1,3,5,0,1
1558438672554489,-2,0,1,0,-5,-2,-4,-3
1558438672554489,-4,-4,2,2,1,0,0,1
1558438672554489,-2,-2,-1,-2,-4,-6,-4,-1
1558438672554489,-1,-5,-2,-1,-2,1,-1,-2
1558438672568488,1,2,3,3,13,5,5,5
1558438672568488,1,-1,-1,-2,-1,-7,-3,0
1558438672576431,0,-2,0,-1,1,0,-2,-1
1558438672576431,-2,0,-2,2,5,6,-1,-1
1558438672591602,-4,0,-3,-3,-4,-6,0,-3
1558438672591602,-2,-1,0,-2,0,-2,1,-3
1558438672599371,-2,-2,-1,-2,-11,-11,-7,-2
1558438672599371,1,-1,-1,0,2,-3,1,0
1558438672614549,3,1,4,7,6,13,8,3
1558438672614549,0,-1,1,-2,5,4,3,0
1558438672615341,0,-1,-4,-6,-4,1,-1,-2
1558438672615341,-2,-1,0,-2,-12,-5,-4,-4
1558438672637268,0,-2,-5,-5,-6,-12,-6,-3
1558438672637268,-1,0,1,1,3,4,1,0
1558438672637268,-1,0,-1,4,0,-1,0,-2
1558438672637268,-1,0,-3,-11,-2,-1,-3,0
1558438672660272,-3,-2,-4,-2,-4,-6,-4,-2
1558438672660272,0,0,-2,1,-4,1,2,1
1558438672660272,-1,-1,-2,0,4,3,1,1
1558438672660272,0,2,0,3,-4,-2,-1,-1
1558438672682186,-4,-4,-3,-9,-4,-4,-2,-3
1558438672682186,-3,-2,-2,1,2,0,-2,-1
1558438672683147,-1,1,2,2,0,-3,0,0
1558438672683147,0,-1,2,4,1,4,3,1
1558438672690128,1,1,1,1,-2,-7,-5,-3
1558438672690128,-2,-2,-6,-4,-3,2,-2,-2
1558438672704091,-2,-1,-1,1,2,4,3,1
1558438672704091,1,-1,-5,-4,-2,-6,-1,0
1558438672711100,-1,-2,-3,-1,-2,3,-3,-3
1558438672711100,0,-1,4,0,-2,3,-1,-1
1558438672727058,1,2,1,1,0,-3,0,0
1558438672727058,-2,-1,-1,-1,-2,-8,-1,-1
1558438672733047,0,-3,-3,-2,1,2,-1,1
1558438672733047,0,-2,-3,2,-1,-1,1,-2
1558438672742020,-2,-2,-4,-3,-2,1,-2,-2
1558438672742020,0,1,1,4,0,1,0,-2
1558438672749006,-1,-2,1,-7,2,-1,4,0
1558438672749006,-2,-2,-2,-2,-2,0,-5,-3
1558438672755953,-2,1,-4,-2,-6,-3,-3,0
1558438672755953,-1,-2,-2,-3,-2,-3,-5,-2
1558438672770913,-2,-1,-2,3,-6,-1,-2,0
1558438672770913,0,2,1,1,6,5,3,3
1558438672778921,-2,1,2,1,2,0,-2,-1
1558438672778921,-2,1,-1,-3,1,0,0,-1
1558438672793850,-1,-2,-3,-3,-5,0,-2,-2
1558438672793850,1,-1,0,-3,-3,-3,0,0
1558438672801886,-1,-2,-1,0,2,2,1,0
1558438672801886,-2,-2,-1,-4,-4,-6,-4,-1
1558438672816845,-3,-1,1,1,2,1,-2,0
1558438672816845,-1,1,-1,2,3,6,1,-1
1558438672817840,0,-3,1,-1,-7,-7,-2,-3
1558438672817840,-2,-1,-1,0,3,1,2,0
1558438672830808,0,-2,0,-3,-2,2,0,0
1558438672830808,1,0,-2,3,0,-6,1,-3
1558438672838837,-2,-2,0,0,1,-1,-3,-1
1558438672838837,-2,-1,-2,-2,-3,1,0,-2
1558438672853862,0,0,-2,-10,-1,1,2,-1
1558438672853862,-4,-2,-3,-3,-2,2,-1,-2
1558438672861840,1,-2,-2,-1,-1,-7,-2,-1
1558438672861840,1,-2,1,1,-5,-5,-1,1
1558438672876793,-1,-2,0,5,-3,-5,-7,-2
1558438672876793,-2,1,-6,-9,-10,-5,-5,-2
1558438672877792,0,0,2,0,7,9,5,2
1558438672877792,-1,2,0,1,0,0,3,-2
1558438672890748,1,1,4,7,3,3,-1,-1
1558438672890748,-3,-3,-2,-3,-5,-11,-6,-5
1558438672899674,-1,0,-2,-1,-3,-3,-5,-1
1558438672899674,0,-1,-8,-4,7,10,3,0
1558438672913696,-4,-2,-3,-5,-14,-12,-8,-4
1558438672913696,1,1,5,5,8,10,2,4
1558438672921616,1,0,-1,1,3,-4,2,2
1558438672921616,-1,-2,1,0,-6,3,-2,0
1558438672936610,-2,0,-1,-1,-1,-5,-2,-2
1558438672936610,-1,0,0,0,-1,-2,0,0
1558438672937573,-1,0,-4,-5,-2,3,2,-1
1558438672937573,-1,-1,-1,-1,-1,-2,-3,0
1558438672950569,0,0,-2,-1,2,0,-1,0
1558438672950569,-3,-1,2,1,-6,-2,-3,-2
1558438672959516,0,-2,-2,1,8,-1,0,-1
1558438672959516,-1,2,-1,-1,4,5,3,1
1558438672973478,-4,-2,2,5,-4,0,-4,-2
1558438672973478,-1,-3,-2,-1,-1,-1,1,-1
1558438672981456,-1,-2,0,-1,-7,-4,-6,-4
1558438672981456,0,-1,-3,-7,-3,-5,-6,-2
1558438672996424,2,3,3,2,13,3,10,3
1558438672996424,1,0,-5,-2,-2,-3,1,2
1558438672997413,-3,-5,-4,-2,-7,-4,-5,-4
1558438672997413,-1,-2,2,0,-6,-11,-6,-4
1558438673011375,0,1,-1,2,1,5,0,0
1558438673011375,-1,-1,1,-1,1,0,-1,-2
1558438673019353,-1,-1,1,-5,3,8,5,-1
1558438673019353,1,-4,-2,0,1,-6,0,0
1558438673034111,-1,-2,-5,-3,-5,-3,0,-3
1558438673034111,-2,-3,-5,-13,-6,-8,-5,-2
1558438673042248,-2,-1,0,3,-6,-6,-7,-2
1558438673042248,0,-1,0,1,3,2,8,3
1558438673057193,0,0,-2,2,4,0,2,0
1558438673057193,-3,-2,0,2,-1,-1,-3,-4
1558438673057193,-1,0,-7,-8,-7,-7,-1,-2
1558438673057193,-4,-1,2,3,-2,2,-5,-2
1558438673071015,-1,2,3,4,11,0,4,4
1558438673071015,0,1,-5,-10,0,3,2,1
1558438673079156,0,0,5,3,-1,0,-2,-1
1558438673079156,0,0,-1,-4,2,0,-1,-2
1558438673094038,-2,-4,-3,-5,-11,-3,-3,-2
1558438673094038,1,-2,5,5,9,2,3,2
1558438673101999,0,-1,0,2,1,-4,-2,-1
1558438673101999,0,-2,0,-5,-8,2,-4,-2
1558438673116930,0,0,-1,1,10,0,7,3
1558438673116930,-4,-4,-10,-10,-5,-7,-6,-5
1558438673116930,0,2,8,7,-2,9,-1,-2
1558438673116930,-4,-5,-12,-11,-5,-6,-6,-5
1558438673130892,-2,-2,0,0,-10,-5,0,-2
1558438673130892,0,-1,-1,2,3,1,2,1
1558438673138834,-2,-2,-3,-5,-2,-8,1,2
1558438673138834,-1,0,6,2,2,4,-1,0
1558438673153823,-2,-3,2,3,-3,5,-2,-5
1558438673153823,-2,0,-3,-5,-4,-10,-1,0
1558438673161773,-1,-1,-1,1,-2,-3,0,-1
1558438673161773,0,1,1,-7,-3,-4,-6,-1
1558438673176732,-4,-3,-4,-1,-3,1,-1,-2
1558438673176732,2,0,2,-9,4,10,3,-1
1558438673177730,1,-1,-10,-3,-6,-4,-3,-2
1558438673177730,-3,-2,-4,0,2,4,3,0
1558438673190695,-3,-3,6,0,2,-3,-6,-1
1558438673190695,1,3,3,11,5,5,0,1
1558438673198674,-1,-1,-1,0,-3,-2,3,3
1558438673198674,1,0,6,1,1,-3,2,2
1558438673213869,-1,0,-9,-5,-10,-5,-7,-4
1558438673213869,-1,-1,12,10,-2,-2,-4,-1
1558438673221613,-5,-6,-10,-7,-7,-4,-1,-3
1558438673221613,-1,-3,-7,-10,4,-1,3,2
1558438673236809,2,2,4,2,2,5,2,1
1558438673236809,-2,-7,-8,-3,-7,-4,-4,-2
1558438673237569,0,3,8,5,-1,1,-3,0
1558438673237569,1,1,3,8,3,-5,1,0
1558438673250613,0,-3,-6,-10,-5,-3,-4,-3
1558438673250613,-1,1,-1,4,2,-4,1,0
1558438673259584,-2,0,4,0,0,1,0,1
1558438673259584,-1,1,3,7,-1,5,-2,0
1558438673273547,-2,-5,-10,-6,-10,-5,-2,-2
1558438673273547,1,-1,-6,0,-1,-2,-2,-1
1558438673281454,0,-1,3,-2,3,0,0,-2
1558438673281454,1,1,4,0,3,-2,6,3
1558438673296485,-1,-1,-5,0,4,4,-1,-1
1558438673296485,-3,-3,3,2,-7,1,-4,-6
1558438673297409,1,0,-2,-10,0,-5,-5,-2
1558438673297409,0,-2,-4,4,-6,-6,-7,-4
1558438673311424,-1,-2,1,-6,-1,-8,-3,-1
1558438673311424,0,0,0,5,5,8,7,4
1558438673319428,-2,-1,-3,-8,-1,0,2,0
1558438673319428,0,1,0,4,2,3,-1,2
1558438673333391,-1,-3,-1,-1,0,-7,-6,-3
1558438673333391,-2,-1,-1,-6,-8,-7,-4,-5
1558438673341365,-1,-2,-3,5,12,11,5,3
1558438673341365,-2,0,-2,-1,0,1,-3,-2
1558438673357262,1,1,4,1,1,10,7,2
1558438673357262,-1,-1,0,3,5,-3,-5,-2
1558438673357262,-4,-4,-4,-4,-9,-4,-1,-4
1558438673357262,-3,-3,-4,-5,-9,-10,-3,-2
1558438673371212,0,0,3,-7,7,2,2,4
1558438673371212,-1,-1,4,7,-1,-3,-2,-1
1558438673379223,-1,0,-7,-14,-5,-3,-4,-2
1558438673379223,0,0,3,4,-7,-13,-1,0
1558438673393183,0,2,7,10,14,10,4,1
1558438673393183,1,-4,-12,-15,-6,1,2,0
1558438673402165,-2,-2,-2,4,-2,-3,-5,-4
1558438673402165,-4,-4,3,2,-6,-4,-3,-5
1558438673417090,-5,-3,-13,-9,-7,-3,-2,-2
1558438673417090,4,2,3,5,10,-2,4,3
1558438673417090,3,1,3,4,6,2,4,1
1558438673417090,-2,-1,-1,0,-6,-2,-1,-3
1558438673431210,-1,-1,-2,-2,-7,-1,-5,-3
1558438673431210,-4,-3,-6,-5,-8,-5,-2,-3
1558438673439046,-2,-3,-2,-1,1,0,2,-1
1558438673439046,-1,0,0,2,0,-4,-2,-1
1558438673462968,-1,-2,-7,-12,-12,-4,-3,-2
1558438673462968,-3,-1,-3,-2,5,4,-1,-2
1558438673462968,-2,1,5,10,2,3,-2,-1
1558438673462968,0,0,-5,-5,4,-1,2,3
1558438673477102,0,0,1,2,-1,-7,-5,-2
1558438673477102,0,-3,3,-2,-6,-8,-1,-3
1558438673477102,-1,-2,-6,-3,-7,-1,-1,-1
1558438673477102,-2,1,6,1,9,13,-3,-2
1558438673491050,0,-1,0,1,0,-3,2,1
1558438673491050,0,0,-5,-2,0,1,-1,1
1558438673499034,-1,-4,-2,-5,0,-5,-3,-1
1558438673499034,1,0,3,5,-2,-7,-4,-1
1558438673513942,-4,-4,-20,-25,-6,-1,1,-3
1558438673513942,-2,2,9,7,-4,2,-2,-5
1558438673521810,-3,-2,-4,-3,3,4,0,-2
1558438673521810,2,3,7,12,6,-2,3,2
1558438673536806,-2,-3,9,10,4,3,-2,-1
1558438673536806,-3,-1,-8,-11,-12,-6,-4,-4
1558438673537767,1,0,-1,0,5,6,3,2
1558438673537767,-1,-4,-3,-6,-9,-12,-3,0
1558438673550765,-1,0,2,-3,8,6,1,1
1558438673550765,-1,-5,-8,-6,-6,-6,-4,-3
1558438673558743,2,1,3,2,-1,-4,-2,-1
1558438673558743,1,-1,-4,-2,10,17,6,1
1558438673573707,-1,-2,6,10,-4,-8,-4,-2
1558438673573707,-2,-2,2,5,2,2,3,2
1558438673581715,-1,0,-5,-7,-4,-5,-3,-1
1558438673581715,-2,-4,-9,-8,-13,-1,-4,-4
1558438673596641,-1,0,3,5,-1,-5,-4,5
1558438673596641,2,4,4,3,9,9,11,1
1558438673597608,-2,-3,-5,-14,-1,-8,-2,-1
1558438673597608,-2,-1,1,-4,1,8,-4,-2
1558438673610573,1,-2,-3,-2,-3,3,3,-2
1558438673610573,-2,-2,-3,0,-3,-12,-3,1
1558438673619578,-4,1,6,6,-6,-3,-5,-3
1558438673619578,-3,-4,-12,-18,-2,-4,-5,-3
1558438673633629,-4,-1,-1,-2,-3,-1,0,-1
1558438673633629,2,1,1,3,-1,4,5,3
1558438673641609,0,0,-5,-8,-1,3,0,-1
1558438673641609,-2,-2,1,-2,-8,-5,-7,-3
1558438673655462,-1,-2,3,8,6,-1,-1,-3
1558438673655462,-3,-2,-6,-16,-5,0,0,-1
1558438673664547,0,0,1,0,-1,-4,-1,1
1558438673664547,1,-2,0,5,-1,6,1,0
1558438673671410,0,-3,0,-4,-9,-9,-6,-3
1558438673671410,2,2,4,5,5,2,1,1
1558438673679507,0,-2,3,2,-3,-8,-7,-4
1558438673679507,-2,-2,-14,-12,-5,7,8,1
1558438673693439,-1,1,1,8,10,1,3,-1
1558438673693439,-4,-5,-7,-6,-2,-1,-8,-3
1558438673701393,3,3,6,11,7,5,7,1
1558438673701393,-4,-1,1,-1,-6,-14,-3,-3
1558438673716289,0,-1,-6,-6,1,1,0,0
1558438673716289,-2,-3,0,-2,-2,-3,-6,-1
1558438673724325,-3,-4,-4,1,-5,-1,-4,-2
1558438673724325,1,3,15,20,12,14,6,5
1558438673731307,-2,-2,-16,-19,-2,-6,0,-6
1558438673731307,-2,-2,-3,3,-1,-4,-4,-1
1558438673739258,-2,0,-9,-8,-6,-3,-2,-2
1558438673739258,-1,-1,-2,2,3,1,-1,0
1558438673753227,0,-1,8,6,-1,6,-1,0
1558438673753227,-2,-2,-5,-5,-6,-14,-5,-4
1558438673762166,3,1,10,13,15,11,10,3
1558438673762166,-1,-4,-12,-16,-7,-9,-3,-5
1558438673776161,1,0,1,-4,-4,5,0,1
1558438673776161,-2,-4,-13,-10,-4,-4,-3,-5
1558438673784152,-2,-2,5,3,-8,-2,-3,-3
1558438673784152,-1,0,-7,-3,3,-6,-4,-2
1558438673791123,1,-1,1,3,-1,-1,2,1
1558438673791123,2,1,6,2,2,10,2,2
1558438673799107,-1,0,-3,0,-5,-4,-2,1
1558438673799107,-1,0,2,-4,-1,0,0,0
1558438673813031,-2,-2,-2,2,-5,-9,-3,-2
1558438673813031,0,1,4,8,0,-2,-1,1
1558438673822011,0,-4,-7,-11,2,5,1,-1
1558438673822011,-3,-2,-5,-8,-7,-1,-5,-3
1558438673835969,-3,1,1,0,-5,-5,-2,-1
1558438673835969,3,3,16,16,10,6,6,1
1558438673843948,-1,-1,-2,-6,6,2,2,1
1558438673843948,-2,-8,-11,-6,-10,-9,-3,-3
1558438673859904,-3,-2,4,2,-2,3,-4,-3
1558438673859904,-3,-1,-5,-6,-10,-4,-7,-4
1558438673860901,-3,-3,6,10,1,-7,-4,-2
1558438673860901,-2,1,-6,-17,-11,-8,-8,-6
1558438673874074,3,0,-6,0,7,13,13,6
1558438673874074,2,3,10,5,13,2,5,5
1558438673882066,-2,-3,6,11,2,0,-5,-4
1558438673882066,-3,-2,-5,-4,-2,-1,-5,-3
1558438673896014,-1,-1,-2,-5,-4,-2,-5,-3
1558438673896014,0,1,-11,-12,-6,-1,1,4
1558438673903997,-2,-3,-2,4,-2,0,-1,-9
1558438673903997,1,2,3,6,1,2,3,1
1558438673919758,0,0,3,3,1,-10,-6,-3
1558438673919758,-2,-2,-1,-1,5,13,3,-2
1558438673919758,1,1,0,-4,-2,-4,3,3
1558438673919758,0,-1,-1,3,6,2,1,-1
1558438673933872,-2,-1,-7,-2,-5,1,-2,-3
1558438673933872,2,1,5,5,0,-4,-7,-1
1558438673941797,-5,-4,-12,-9,-11,-7,-6,-4
1558438673941797,-1,-2,2,-5,1,-1,2,1
1558438673955797,0,0,7,2,4,-3,0,0
1558438673955797,0,-5,-5,-5,-3,2,-2,-5
1558438673965076,1,1,5,-1,-1,2,0,5
1558438673965076,1,1,5,14,7,-1,0,0
1558438673979079,-3,1,0,-7,-4,-2,-2,-4
1558438673979079,-5,-3,-4,0,-16,-8,-6,-6
1558438673980045,1,0,0,0,5,5,0,0
1558438673980045,1,0,4,7,4,3,2,3
1558438673993040,0,-3,-4,-3,-3,-3,0,0
1558438673993040,-3,-2,0,2,-1,-7,-1,0
1558438674002021,0,0,-1,-1,-9,-4,-5,0
1558438674002021,-1,1,6,6,8,9,4,2
1558438674015951,-2,-3,-10,-11,-3,0,-3,-3
1558438674015951,-5,-1,9,10,2,-3,-5,-2
1558438674023922,-4,-5,-18,-15,-13,-12,-4,-3
1558438674023922,2,1,5,-2,16,13,11,6
1558438674038882,0,-2,4,3,-1,4,2,-1
1558438674038882,1,-3,-10,-12,-7,-5,1,0
1558438674039879,-2,2,9,11,1,-6,-2,-2
1558438674039879,-4,-4,-2,2,-10,-6,-8,-5
1558438674053842,-2,-1,-5,-13,-3,-4,-2,1
1558438674053842,1,-1,-2,-3,0,3,-2,-1
1558438674061820,5,0,-1,-6,2,2,2,0
1558438674061820,-7,-1,3,7,6,3,2,-1
1558438674075784,-2,0,-11,-12,-4,-6,-1,-1
1558438674075784,-4,-2,-5,-6,-6,0,-4,-6
1558438674083762,-1,-1,-3,-2,-4,2,1,8
1558438674083762,3,-4,1,1,1,0,2,-7
1558438674098767,-1,0,8,8,-2,0,-3,-1
1558438674098767,-5,-4,-13,-7,1,1,-1,-3
1558438674099720,0,1,7,11,2,-3,0,0
1558438674099720,0,-3,-13,-23,-15,-10,-6,-1
1558438674113712,2,2,9,16,18,6,5,5
1558438674113712,1,-2,-3,-4,-1,0,0,1
1558438674121662,-4,-4,3,1,-2,-6,-8,-7
1558438674121662,-3,-2,-6,-5,-9,-4,-4,-3
1558438674135625,1,0,0,1,-7,-9,-2,-4
1558438674135625,-1,1,4,4,0,-6,-2,7
1558438674144599,-2,1,4,-1,3,3,4,-8
1558438674144599,1,2,-2,0,4,4,0,1
1558438674159559,-2,-4,-5,-1,-3,-4,-4,-1
1558438674159559,2,1,5,7,6,6,2,1
1558438674159559,-3,-2,-7,-17,-7,-5,-1,1
1558438674159559,3,5,15,15,3,-1,-1,3
1558438674173555,-1,-5,-16,-18,-4,7,1,-1
1558438674173555,-6,-4,-5,-8,-12,-6,-6,-5
1558438674181500,2,1,1,2,1,2,3,0
1558438674181500,-1,1,-3,-3,2,-5,2,3
1558438674195715,-3,-3,1,8,2,-1,0,0
1558438674195715,0,0,4,8,4,-1,0,-3
1558438674204439,1,-3,-8,-6,2,9,2,-1
1558438674204439,-2,-3,-3,-2,-9,-6,-3,-3
1558438674219656,1,1,9,11,4,7,0,-1
1558438674219656,-2,0,-5,-18,-5,-7,2,-1
1558438674219656,-2,-3,0,5,7,2,-5,0
1558438674219656,-1,-1,-7,-5,-6,-8,-6,-2
1558438674233363,-1,-1,-1,-2,-6,6,3,0
1558438674233363,0,0,7,8,9,6,4,0
1558438674241344,-1,0,-4,-10,-5,-3,-2,-2
1558438674241344,-1,-3,-1,-5,-1,-3,3,4
1558438674256302,-2,-3,2,1,-1,5,-1,-2
1558438674256302,1,0,0,3,-5,-7,-7,-4
1558438674264279,-1,-3,-4,-4,-2,3,-1,0
1558438674264279,-2,-3,-3,-2,1,4,-1,-5
1558438674279261,-3,-3,-3,2,-9,-7,1,0
1558438674279261,0,1,6,7,-3,-10,-3,0
1558438674280239,-1,-1,-11,-7,3,-3,0,2
1558438674280239,1,0,0,4,0,2,-2,-1
1558438674293201,1,2,5,4,8,3,-1,-4
1558438674293201,-2,-4,-6,-8,-3,-5,-1,-1
1558438674301184,-1,1,6,12,3,1,0,2
1558438674301184,-2,-2,-3,-8,-3,0,2,2
1558438674316142,0,-1,-1,-5,-8,-7,-5,-6
1558438674316142,0,-2,-3,-2,3,9,1,0
1558438674324295,1,-2,4,2,6,2,4,0
1558438674324295,0,1,3,3,7,1,1,2
1558438674339084,-2,-3,-7,-2,-8,-10,-5,0
1558438674339084,-2,-1,-2,-4,-6,2,-1,-4
1558438674340077,-1,-2,-1,1,-10,-3,-5,-2
1558438674340077,0,1,7,5,3,-2,-4,-1
1558438674353224,-3,-3,-7,-5,4,-4,-3,-3
1558438674353224,-1,-2,-4,-3,0,-3,1,1
1558438674362019,1,0,-2,1,0,1,-1,-2
1558438674362019,-3,-1,-1,-10,-10,1,-4,-4
1558438674375982,-2,-2,-2,0,4,1,1,2
1558438674375982,-3,-4,-1,1,2,4,1,0
1558438674383960,-1,0,4,4,10,2,2,1
1558438674383960,-1,-1,-5,-2,-6,-6,-1,-3
1558438674398927,1,2,4,2,1,8,0,0
1558438674398927,1,0,4,3,3,-4,-3,-2
1558438674399918,-1,-1,-5,-8,-6,-1,0,4
1558438674399918,-6,-7,-6,-10,-16,-12,-6,-15
1558438674414877,2,3,0,-4,12,3,7,6
1558438674414877,0,-2,1,2,-1,-2,-6,-2
1558438674422855,-4,-3,-1,-6,-4,-4,-1,-4
1558438674422855,3,1,3,6,9,10,2,2
1558438674436082,0,0,-3,0,1,-1,-2,-1
1558438674436082,-1,-3,-5,-2,-5,2,-1,-3
1558438674444797,-2,-3,-2,-6,-8,-4,-6,-3
1558438674444797,-1,-1,2,3,-2,-15,-3,0
1558438674458795,2,-1,0,-4,-1,-1,-2,-2
1558438674458795,-1,4,4,5,8,11,6,3
1558438674467735,-2,-5,-9,-9,-1,3,-1,-3
1558438674467735,-2,-2,-6,-2,-6,-1,-1,0
1558438674473781,-1,0,8,9,0,-3,-4,1
1558438674473781,-1,-1,-2,0,0,1,1,-1
1558438674482696,-1,1,-4,-12,-4,1,1,-2
1558438674482696,-1,-2,-3,2,0,1,-3,-2
1558438674495865,-1,-2,3,0,1,-1,-1,0
1558438674495865,-1,-2,-9,-8,-6,1,-1,0
1558438674504639,1,-1,2,7,2,-3,0,-2
1558438674504639,1,3,2,3,0,1,0,0
1558438674518598,-2,-2,-2,-1,-5,-4,0,-5
1558438674518598,-3,-2,-4,-6,-10,-3,-1,-4
1558438674527575,-1,1,6,13,6,0,-4,-1
1558438674527575,1,0,-2,-6,4,3,3,2
1558438674533671,1,-2,-9,-8,2,4,4,2
1558438674533671,0,1,5,3,2,-5,-4,1
1558438674542551,-4,-2,-3,-1,-7,-4,-1,-2
1558438674542551,-4,-3,1,3,-4,-7,-5,-4
1558438674555504,-4,-3,-2,3,-5,-3,-3,-1
1558438674555504,-2,-2,-5,-10,-1,-2,-4,-3
1558438674564669,-2,-3,-5,-1,-2,-2,-1,-1
1558438674564669,3,1,5,5,11,8,10,5
1558438674578440,0,0,2,-1,-2,2,1,-1
1558438674578440,4,1,2,4,2,1,3,0
1558438674587415,0,-3,-7,-15,3,10,0,-1
1558438674587415,-3,-5,-5,-9,-10,-9,-4,-2
1558438674593399,-4,-3,-2,-5,-4,-9,-4,-1
1558438674593399,-2,-1,-2,-1,-3,-3,-3,-3
1558438674609359,1,0,2,4,1,1,2,-1
1558438674609359,-2,-2,-2,-2,-3,4,-3,-4
1558438674616377,-1,-1,1,1,2,2,-3,-2
1558438674616377,-2,-1,1,0,-2,-7,-3,-1
1558438674632297,-1,-2,1,1,-4,-6,-1,2
1558438674632297,1,0,1,1,5,-6,-4,0
1558438674638286,1,-1,2,2,0,4,6,3
1558438674638286,-3,-4,-7,-8,10,7,7,1
1558438674647254,-1,0,-1,-1,-2,3,-2,-2
1558438674647254,-3,0,-6,-5,-10,-2,-7,-3
1558438674653374,-3,-1,0,3,-7,-3,-5,-2
1558438674653374,3,1,2,1,7,5,6,4
1558438674662215,-2,-1,-1,1,1,-5,2,-1
1558438674662215,-2,0,5,6,1,5,1,-3
1558438674676179,-2,-2,0,-1,-5,-6,-8,-4
1558438674676179,-2,-4,-13,-12,-13,-3,-4,-3
1558438674685156,3,1,2,9,1,-7,1,3
1558438674685156,3,0,1,1,9,2,2,3
1558438674698122,-2,-1,-2,-6,0,1,-1,-3
1558438674698122,-3,-2,2,-2,-9,-8,-6,-5
1558438674707176,-1,1,1,1,3,-1,4,0
1558438674707176,0,-1,1,0,3,5,3,1
1558438674713082,0,-2,0,0,-4,5,-1,-1
1558438674713082,0,2,2,3,5,-4,-6,1
1558438674722223,-1,-5,-8,-5,-1,-1,-5,-2
1558438674722223,-4,-4,-6,-3,-3,-4,-3,-3
1558438674736372,-3,-3,-2,-1,-6,-3,-5,-3
1558438674736372,2,0,2,0,10,7,12,4
1558438674745160,-2,1,3,5,-1,-11,-7,-3
1558438674745160,-1,-1,-1,-2,2,3,1,0
1558438674758259,0,1,-1,2,-1,-2,0,-2
1558438674758259,-2,-1,2,2,-4,0,-3,-3
1558438674767116,2,0,-5,-5,-2,4,0,1
1558438674767116,-2,-1,-1,-3,-7,-5,-2,0
1558438674782070,-2,-3,-3,0,-5,-8,-4,0
1558438674782070,0,0,-1,-3,-3,-6,3,0
1558438674784238,-1,0,4,2,1,8,1,-3
1558438674784238,-2,-5,-13,-11,-5,3,-3,-3
1558438674796221,2,4,7,7,3,-9,1,3
1558438674796221,-3,-6,-6,-2,-6,-9,-12,-4
1558438674805198,-2,-1,1,3,-2,-1,-2,-1
1558438674805198,1,2,-1,-5,7,1,5,2
1558438674818162,-2,-1,0,-3,1,3,0,-2
1558438674818162,-2,-2,-1,4,3,2,-4,-3
1558438674827225,-3,-1,-5,-1,-5,1,-1,-3
1558438674827225,0,2,2,-9,-3,-8,-1,2
1558438674841293,0,0,-2,-3,1,-2,3,1
1558438674841293,0,1,-2,-3,-2,1,-1,-3
1558438674850077,0,-2,-2,-2,-3,-2,-4,-3
1558438674850077,-3,-2,1,8,-1,-2,-5,-4
1558438674856061,-5,-5,-9,-15,-17,-10,-5,-6
1558438674856061,2,2,6,10,10,12,15,8
1558438674865036,1,1,10,6,15,4,3,4
1558438674865036,-2,0,0,10,13,12,1,3
1558438674878018,-1,-2,-5,-7,-8,-8,-6,-4
1558438674878018,-2,-1,-1,2,0,5,3,-1
1558438674887238,0,0,-2,-3,-3,-4,-2,-3
1558438674887238,1,-1,2,-2,-5,-6,-3,-3
1558438674901939,-1,-2,3,9,8,5,0,-3
1558438674901939,-3,-3,-11,-10,-11,-9,-8,-4
1558438674903933,-3,-2,-1,-3,-6,-5,-3,-1
1558438674903933,-3,-2,-4,-2,-5,1,-7,-3
1558438674916097,-1,0,-2,-2,-3,-10,-1,0
1558438674916097,2,1,8,13,11,11,7,2
1558438674924876,3,1,-1,-6,1,-2,7,3
1558438674924876,-4,-4,-8,-8,-6,-3,0,-1
1558438674938839,-3,0,-2,-1,5,10,-1,1
1558438674938839,-2,1,4,-1,-5,-6,-8,-1
1558438674947814,-4,-3,-7,-2,-9,-5,-5,0
1558438674947814,-1,-2,-6,-4,-10,-7,-2,-3
1558438674961789,-3,-3,-3,-1,1,2,1,-2
1558438674961789,0,-1,3,3,-2,-11,-4,-5
1558438674963773,-3,-2,-7,-6,1,10,2,1
1558438674963773,4,2,6,6,16,11,7,4
1558438674975878,1,0,5,8,6,0,1,2
1558438674975878,-3,-3,-6,-11,-5,0,-2,0
1558438674984718,-1,0,-1,6,0,-3,-6,-3
1558438674984718,-2,-1,-3,-10,-9,-4,-2,-4
1558438674998678,-3,0,2,5,-4,-1,-1,-2
1558438674998678,-3,-1,-4,-3,-4,-2,-4,-2
1558438675007656,0,3,4,2,1,-2,1,1
1558438675007656,-1,0,1,6,6,8,-2,-1
1558438675022615,0,-2,-5,-1,3,2,3,1
1558438675022615,0,1,0,-7,-7,-11,-7,-1
1558438675023614,1,-1,1,3,-5,-7,-2,0
1558438675023614,-2,-2,-7,-3,2,7,2,1
1558438675035778,0,1,-6,-5,-3,-2,-3,-1
1558438675035778,-4,-3,-3,3,1,-4,-3,-2
1558438675044655,-2,-1,-2,-15,-11,-10,-6,-5
1558438675044655,1,3,8,13,8,4,5,1
1558438675058518,1,-1,-2,-11,-5,2,-1,-3
1558438675058518,-2,-2,-6,-4,3,2,3,0
1558438675067498,-3,-4,0,3,0,-2,-6,-4
1558438675067498,-2,-2,0,-2,-10,-7,-7,-3
1558438675082575,-1,-1,0,4,1,3,8,3
1558438675082575,0,0,3,-1,-1,-7,-9,-2
1558438675083452,-1,-3,-7,-4,-4,-5,-4,-3
1558438675083452,-1,1,3,0,-4,2,-1,-1
1558438675096417,0,2,7,8,11,-1,2,3
1558438675096417,-2,1,4,-3,1,6,4,1
1558438675104396,-6,-9,-21,-5,-8,-3,-3,-4
1558438675104396,-5,-5,-9,-21,-14,-7,-1,-2
1558438675118360,2,1,-1,-1,1,-4,-7,-1
1558438675118360,-1,1,2,0,-2,-5,3,-1
1558438675127335,-1,1,5,2,-1,2,-3,-3
1558438675127335,0,2,0,7,4,11,6,-2
1558438675141298,2,1,0,0,3,-10,0,2
1558438675141298,2,0,-3,0,3,7,0,1
1558438675150274,-1,-1,1,-2,3,6,1,0
1558438675150274,0,2,1,1,-4,-14,-3,1
1558438675156258,1,-3,-4,-1,0,-1,0,-1
1558438675156258,0,-3,-3,4,4,4,-1,-2
1558438675165234,-3,0,2,-1,-2,2,0,0
1558438675165234,-2,-1,3,2,-1,-6,-9,-3
1558438675178199,-3,-2,-7,-9,-6,3,-1,-2
1558438675178199,-2,-3,-2,1,-9,-9,2,1
1558438675187175,4,1,1,-1,13,11,11,4
1558438675187175,-1,-1,8,7,6,-2,-2,-1
1558438675202140,-3,-1,-3,-6,-12,2,-5,-6
1558438675202140,-2,-4,-2,-7,-5,-1,-4,-3
1558438675204151,1,-2,-1,1,-1,-5,-1,1
1558438675204151,1,-3,-1,4,3,-7,-1,0
1558438675216099,-3,-4,-2,-5,-10,-5,-4,-4
1558438675216099,-2,-1,1,-2,-3,8,0,-2
1558438675226073,-2,1,5,2,4,-2,1,-1
1558438675226073,0,0,3,7,10,3,5,1
1558438675238042,-3,-4,-10,-16,-10,-9,-7,-4
1558438675238042,-2,-1,-2,-1,-2,-3,-1,-1
1558438675247015,-1,0,-5,-3,-1,2,-2,-1
1558438675247015,-2,-3,-2,-6,-17,-6,-9,-5
1558438675261979,2,3,-2,6,9,4,10,3
1558438675261979,2,0,0,-2,12,-4,1,2
1558438675267960,-2,-3,2,1,2,2,0,2
1558438675267960,-3,-2,-4,-8,-8,-8,-3,-2
1558438675275938,-3,-1,3,0,-5,1,-11,-4
1558438675275938,-1,0,-6,-1,-4,8,-2,-1
1558438675284915,1,-1,5,4,5,1,8,3
1558438675284915,1,-1,-3,-4,-4,-9,-2,1
1558438675297879,-2,-2,0,-1,-1,-5,-4,-2
1558438675297879,-1,0,0,-2,-7,2,-5,-3
1558438675306858,-2,-1,4,6,6,7,0,-3
1558438675306858,1,-1,-4,1,0,2,3,-1
1558438675321815,-3,-1,-1,-2,2,1,-2,-2
1558438675321815,-6,-3,-10,-14,-12,-6,-3,-2
1558438675328802,-3,-3,1,1,-12,-12,-9,-3
1558438675328802,0,0,-1,0,6,-1,2,2
1558438675335782,0,-2,-3,0,-3,-3,0,0
1558438675335782,0,2,3,4,8,7,1,-1
1558438675344755,1,3,-4,-3,3,5,5,1
1558438675344755,-1,1,1,10,6,0,-1,-2
1558438675358722,-5,-6,-6,-14,-9,-5,-5,-4
1558438675358722,0,-3,-5,-4,-7,-12,-1,-2
1558438675367695,-3,-2,-11,-9,-3,-3,-2,-2
1558438675367695,3,3,5,2,5,-3,5,4
1558438675380659,-1,3,3,7,6,8,4,1
1558438675380659,-1,-2,2,5,-1,0,-2,0
1558438675397628,-1,-1,-1,-1,-2,-5,-4,-2
1558438675397628,-3,-2,-1,-4,-2,-3,-3,-1
1558438675398610,0,1,1,2,-1,-2,-2,0
1558438675398610,1,1,5,2,3,-2,-3,-1
1558438675404598,-1,1,3,7,2,-4,-4,-2
1558438675404598,-4,-5,-13,-18,-14,-3,3,-3
1558438675418556,0,0,-4,1,0,3,0,1
1558438675418556,-2,-2,-3,0,0,-2,-1,-2
1558438675427532,-3,-4,-1,-3,-5,0,-6,-3
1558438675427532,-1,3,6,8,-2,-3,-3,-1
1558438675440498,1,-2,0,-9,5,-7,5,3
1558438675440498,1,-2,-3,-2,-6,-4,-1,-1
1558438675449474,-2,-2,-2,-2,-4,6,-1,-1
1558438675449474,-4,-4,-7,-4,-5,-1,-4,-4
1558438675456457,-2,1,5,6,0,5,-1,-2
1558438675456457,-1,-1,-1,0,2,-5,-2,1
1558438675464435,1,-1,1,-3,0,0,1,0
1558438675464435,1,0,-1,-1,0,5,1,0
1558438675478396,-2,-1,1,3,1,6,4,0
1558438675478396,-1,-2,0,-3,-10,-14,-7,-5
1558438675487372,-3,0,0,5,2,2,-1,0
1558438675487372,0,0,1,-5,3,7,1,1
1558438675501334,0,1,-3,0,-7,2,0,-1
1558438675501334,2,1,1,2,10,-9,1,3
1558438675509313,0,-2,-3,-4,-9,0,-1,-3
1558438675509313,-3,1,2,1,6,0,-6,-1
1558438675516296,0,0,2,4,4,-1,1,0
1558438675516296,-3,-2,0,-2,-1,9,2,-1
1558438675525271,-1,2,2,5,-1,-4,3,-2
1558438675525271,0,-1,-3,-9,-4,-1,-4,-3
1558438675538240,-2,-1,-2,4,4,0,-2,-2
1558438675538240,1,-3,-3,4,-4,-9,-1,-1
1558438675547213,4,-1,0,-10,1,-1,3,2
1558438675547213,0,-2,-2,2,-2,4,0,-1
1558438675561175,-1,-4,-4,-3,-3,-4,-5,-1
1558438675561175,-2,0,0,3,1,8,0,0
1558438675570154,-3,-1,-6,-3,-1,2,2,-1
1558438675570154,0,-4,-5,-6,-4,-6,-1,0
1558438675576140,-3,-3,-9,-7,-11,-11,-4,-3
1558438675576140,2,2,4,7,9,11,2,1
1558438675585114,-3,-3,-2,-7,-6,-10,-5,-4
1558438675585114,-2,-2,3,5,-1,1,0,-2
1558438675598083,1,2,5,6,2,0,-2,0
1558438675598083,-2,0,-7,-7,1,7,0,0
1558438675615032,-2,-2,-1,4,-2,-5,-7,-2
1558438675615032,-2,-2,3,7,5,-3,0,-2
