timestamp,emg1,emg2,emg3,emg4,emg5,emg6,emg7,emg8
1558438791105630,-3,-2,-1,10,-11,-5,-4,-2
1558438791105630,-1,-3,-8,-6,-7,-5,-1,0
1558438791106627,0,-1,1,-12,6,10,3,0
1558438791106627,0,-1,3,16,1,-1,-2,2
1558438791106627,-2,1,2,-2,6,-1,1,0
1558438791106627,1,0,4,-5,-1,0,-2,-2
1558438791119591,-2,0,-5,5,-2,-5,-3,-5
1558438791119591,2,-1,1,5,6,6,5,0
1558438791122583,0,-2,-1,-14,-7,2,1,-2
1558438791122583,1,0,0,7,4,-1,0,1
1558438791124579,-1,-1,-2,0,-4,-6,-4,0
1558438791124579,-2,-1,1,-6,-6,-5,2,-3
1558438791133555,0,-3,-2,-11,-3,1,-3,-2
1558438791133555,-2,-2,2,14,6,-4,1,-2
1558438791148514,-4,-2,-2,-6,-14,-10,-8,-2
1558438791148514,-4,-2,-7,-9,-5,4,2,-2
1558438791155496,2,3,1,6,9,7,6,4
1558438791155496,0,2,5,8,17,12,10,4
1558438791163475,-4,-3,0,-2,-2,2,-3,-3
1558438791163475,-3,-3,-3,-2,-14,-20,-13,-6
1558438791178435,-3,-3,0,3,-1,-8,-2,-1
1558438791178435,-2,-3,-9,-14,-12,-4,0,1
1558438791184423,1,-2,-8,-3,12,12,7,2
1558438791184423,-1,-2,-7,-7,-4,6,-2,-2
1558438791231293,3,2,-1,-8,-1,-16,-1,1
1558438791231293,-1,-3,-2,19,4,0,-1,2
1558438791234543,-2,-2,-5,-7,0,4,1,0
1558438791234543,1,0,-6,-16,-13,-5,-5,-4
1558438791234543,-2,-3,-2,10,-2,6,1,-1
1558438791234543,-2,-1,1,-7,-7,-9,-3,-3
1558438791234543,1,0,-1,-6,1,4,2,2
1558438791234543,-1,-1,3,4,5,5,3,0
1558438791244258,-4,-3,1,5,-5,-3,-3,-1
1558438791244258,0,-1,-1,-6,1,-4,0,1
1558438791252238,-1,-2,1,-1,-3,0,-4,-3
1558438791252238,-1,-1,-5,0,-10,-15,-9,-3
1558438791261213,0,0,-6,-10,-5,-1,0,-2
1558438791261213,-1,-1,2,-8,0,-1,-2,-2
1558438791274181,-1,-1,-3,5,-5,-4,-4,-2
1558438791274181,-1,0,2,11,10,12,8,1
1558438791283154,2,3,5,-3,9,-2,2,1
1558438791283154,-1,0,-8,-17,-12,-2,-6,-6
1558438791289138,1,0,3,5,-1,-7,-8,-2
1558438791289138,-3,-2,1,1,7,5,2,4
1558438791304098,-2,-3,-2,1,-1,9,1,-3
1558438791304098,-1,1,5,9,7,4,5,2
1558438791312077,-6,-7,-12,-15,-15,-16,-10,-6
1558438791312077,-1,-2,3,2,1,2,1,0
1558438791321053,-1,-1,0,-10,1,9,2,0
1558438791321053,0,1,2,5,-2,-6,-1,0
1558438791334018,-1,-1,0,-1,0,-9,0,-1
1558438791334018,1,0,2,2,-2,-5,1,0
1558438791342995,-1,2,-2,-3,-4,3,-2,0
1558438791342995,-2,0,4,-2,0,7,-4,-5
1558438791348979,-3,-4,-7,-5,-2,2,-1,-2
1558438791348979,1,0,2,3,6,1,5,3
1558438791363952,-2,0,7,6,7,-2,3,1
1558438791363952,-2,-2,-8,-9,-2,4,-3,-2
1558438791371917,-2,-2,0,7,-7,-4,-2,-2
1558438791371917,-4,-3,-1,6,-1,-1,-6,-4
1558438791380893,1,-3,-12,-12,7,-2,3,1
1558438791380893,0,-2,-2,-4,-2,4,1,-1
1558438791394857,1,1,3,1,5,10,2,-2
1558438791394857,0,-4,-9,-12,-11,-11,-6,-3
1558438791403832,1,-1,3,7,-1,1,-4,-1
1558438791403832,0,-2,-3,1,-1,-3,3,0
1558438791409816,2,2,5,3,3,-3,5,3
1558438791409816,-2,0,1,-7,-7,-7,-3,-2
1558438791424776,-2,-2,3,-1,-12,-4,-8,-4
1558438791424776,-5,-4,-4,4,0,-1,-3,-2
1558438791431757,-1,0,-2,1,5,7,2,0
1558438791431757,-1,0,0,-4,1,-3,-1,-1
1558438791440734,0,-2,-7,-5,-5,3,1,-1
1558438791440734,0,-3,-1,-6,-15,-10,-5,-3
1558438791454696,2,1,3,11,20,2,6,1
1558438791454696,-1,0,2,0,3,5,2,1
1558438791463687,-3,-2,-4,-2,0,-2,-2,-3
1558438791463687,-4,-2,0,-7,-11,-4,-3,-2
1558438791469655,0,-1,-1,2,1,4,7,5
1558438791469655,1,0,-1,1,7,-2,-5,-1
1558438791484615,-1,-1,5,4,-1,0,-2,-5
1558438791484615,-3,-2,-2,-6,0,-5,0,-1
1558438791491596,-4,-2,-3,-8,-5,-1,-7,-5
1558438791491596,-1,-2,1,0,-7,-7,0,-2
1558438791500572,0,-1,0,2,3,-1,0,2
1558438791500572,-1,0,-7,-5,2,4,1,0
1558438791514537,-3,-2,-2,-6,-14,-5,-5,-2
1558438791514537,-1,-2,-6,-8,-1,3,-3,-3
1558438791523512,1,1,4,7,6,-4,4,4
1558438791523512,3,0,3,14,5,-1,0,1
1558438791529496,-2,-1,-3,-11,2,10,5,2
1558438791529496,-3,1,3,11,-2,-13,-6,1
1558438791544455,-4,-4,-3,-15,-15,-3,-6,-1
1558438791544455,0,-1,2,3,8,2,0,2
1558438791552434,2,2,5,9,2,-1,0,1
1558438791552434,-2,-2,-4,-3,-1,-2,-2,-1
1558438791560413,-1,-1,-4,-1,-2,5,3,0
1558438791560413,0,-2,4,2,-3,-3,2,-1
1558438791574377,-1,-1,-1,-5,-3,1,-5,-5
1558438791574377,-2,-5,-3,1,-2,-1,-1,-4
1558438791583351,-3,-2,-9,-14,-11,-7,-6,-4
1558438791583351,1,1,4,12,4,-1,0,1
1558438791589336,-2,-2,-4,-21,1,11,7,3
1558438791589336,-1,-1,-1,0,-3,3,-2,-1
1558438791604296,-1,-1,-2,5,-2,-6,1,-1
1558438791604296,-1,-2,-7,-5,0,0,-2,-1
1558438791612274,0,-3,-1,2,-7,-14,-9,-6
1558438791612274,-2,0,-2,0,-6,5,1,-1
1558438791621251,-1,-2,-2,8,7,-2,-4,-1
1558438791621251,2,3,1,-8,3,1,3,0
1558438791634215,-2,-4,-6,-1,-7,-1,-2,-2
1558438791634215,1,-1,-1,-6,-6,-4,-5,-3
1558438791643191,-2,-1,-2,-4,-9,-11,-3,-3
1558438791643191,2,1,4,13,11,13,3,2
1558438791649176,-2,-2,-3,-2,-1,0,2,1
1558438791649176,-1,2,7,5,3,1,4,2
1558438791664136,-2,-2,-10,-8,4,11,-2,-2
1558438791664136,-3,-3,2,1,-10,-16,-11,-5
1558438791672115,0,2,2,2,-4,-8,1,1
1558438791672115,-3,-2,-5,-4,0,11,-1,-4
1558438791681090,1,-1,3,3,-4,-8,-2,0
1558438791681090,-1,-3,-5,1,9,15,7,1
1558438791694055,0,1,0,-2,-6,-15,-8,-3
1558438791694055,-1,-1,2,-2,-1,-2,3,1
1558438791703031,1,0,0,-1,-1,-5,-4,0
1558438791703031,-4,-1,3,0,3,0,-2,-3
1558438791709017,-1,-1,0,0,-1,1,-4,-1
1558438791709017,-1,-2,-3,-1,-5,1,-1,-1
1558438791723976,0,-1,-3,-8,-7,1,3,-2
1558438791723976,1,-2,1,-3,0,-1,0,-2
1558438791731955,-1,-1,2,5,9,6,4,2
1558438791731955,-1,-1,-6,-4,-6,-14,-5,-3
1558438791740930,2,1,5,5,7,11,2,1
1558438791740930,-1,3,1,-2,-3,-1,2,0
1558438791754892,-1,0,0,-4,-10,-3,-6,-4
1558438791754892,-1,-4,-6,-4,0,2,-3,0
1558438791763869,-1,1,6,4,5,-2,3,0
1558438791763869,1,-2,-5,-3,7,4,3,3
1558438791769851,-1,-3,2,7,-1,1,2,-1
1558438791769851,-3,-1,-3,-10,-10,-3,-1,-3
1558438791784813,-2,-3,0,3,-1,-4,-8,-3
1558438791784813,-2,0,-1,-5,-7,-8,-5,-3
1558438791791794,1,0,-4,0,7,4,3,2
1558438791791794,1,-1,2,-1,5,4,1,-1
1558438791800770,-2,-1,3,13,4,2,1,-1
1558438791800770,1,-1,-8,-16,-15,-10,-6,-2
1558438791814735,-1,-1,8,6,-1,-3,-2,-2
1558438791814735,-1,0,-17,-6,2,-2,2,1
1558438791823710,-3,-2,-1,-6,-2,-5,-2,-2
1558438791823710,-3,-1,3,3,-3,-1,-2,-1
1558438791837672,-2,-1,-2,-5,-2,6,-1,-3
1558438791837672,0,1,7,6,0,-5,1,1
1558438791844652,-1,0,3,2,5,1,-1,2
1558438791844652,0,-2,-1,0,-3,-1,0,1
1558438791851634,-2,-1,-1,0,0,-2,2,1
1558438791851634,-2,-1,2,0,-8,-3,-5,-5
1558438791860610,1,-2,-9,-9,-12,-9,-5,-4
1558438791860610,0,0,1,4,18,18,15,4
1558438791874573,-1,1,1,2,1,1,0,-2
1558438791874573,-1,-2,0,0,-2,1,0,0
1558438791883548,-4,-1,1,5,-4,-3,-6,-5
1558438791883548,-1,-2,-7,-6,-8,-8,-5,-2
1558438791897512,1,-1,1,0,10,3,3,3
1558438791897512,1,1,-3,3,-2,0,0,0
1558438791904492,0,-2,-3,-5,-3,4,-2,-2
1558438791904492,-3,0,2,1,-4,2,1,-3
1558438791911474,-2,-2,-3,-9,-2,-3,-6,0
1558438791911474,-3,0,9,12,7,0,2,3
1558438791920450,1,-2,-1,2,4,5,5,1
1558438791920450,0,-1,-2,-4,-5,-15,-7,-2
1558438791934412,2,-2,-3,6,-3,2,-3,-5
1558438791934412,-3,-1,4,-1,1,5,0,-1
1558438791943389,0,0,-1,-2,-9,-13,-4,0
1558438791943389,-1,0,2,4,5,8,3,-2
1558438791957352,-4,1,-4,-1,1,0,-1,-1
1558438791957352,0,0,-8,-7,-1,0,-2,-3
1558438791964333,-3,1,-1,0,4,2,-2,-1
1558438791964333,1,0,4,-2,3,-2,-2,1
1558438791972312,-1,-4,-3,0,4,0,2,1
1558438791972312,1,0,4,3,1,-2,-2,-2
1558438791981289,-1,0,-3,-11,-6,-2,-1,-1
1558438791981289,-1,-1,-5,3,-6,-10,-10,-6
1558438791995250,-1,0,3,-3,-1,1,-3,-2
1558438791995250,0,0,1,-4,-3,-10,2,2
1558438792003231,-1,1,-1,-1,3,-1,2,0
1558438792003231,0,0,-1,5,2,5,-2,0
1558438792017190,-4,-3,-2,-5,-8,-5,-5,-5
1558438792017190,-3,0,-8,-1,2,1,0,0
1558438792024173,0,1,3,4,3,6,1,0
1558438792024173,-5,-4,-6,-12,-9,-11,-7,-5
1558438792032150,2,3,1,3,6,3,9,4
1558438792032150,0,-1,3,0,-5,-1,-3,-4
1558438792041127,-1,-2,-3,-1,-1,-1,2,2
1558438792041127,2,1,0,3,12,11,5,3
1558438792054092,-4,-5,-9,-10,-11,-13,-9,-3
1558438792054092,1,1,2,-2,2,11,7,2
1558438792063068,-1,-2,3,5,-2,-4,-4,-2
1558438792063068,-4,-4,-1,-9,-7,1,-5,-4
1558438792078028,-1,-1,-1,3,-5,-10,-6,-3
1558438792078028,1,-2,-5,-4,0,0,2,1
1558438792084012,-1,-2,-4,-2,-4,-2,-4,-5
1558438792084012,-2,-1,-2,4,-3,-2,-2,-2
1558438792091991,1,-2,0,-6,-8,-7,-2,-1
1558438792091991,-5,0,-1,0,3,0,-3,-2
1558438792106951,0,-1,-1,-1,9,5,2,4
1558438792106951,2,1,6,9,6,-2,6,3
1558438792113932,-4,-1,-4,-6,-3,5,-2,-1
1558438792113932,0,-2,-3,1,1,11,1,-3
1558438792122908,2,3,2,-2,9,-13,3,4
1558438792122908,-2,-1,-1,3,3,7,2,-3
1558438792137868,-1,0,2,4,-8,-9,-9,-6
1558438792137868,0,-2,0,-5,3,9,8,2
1558438792144848,-3,-1,-1,-4,-2,3,-3,-2
1558438792144848,-1,-6,-7,-7,-14,-11,-3,-2
1558438792151831,2,4,4,6,-2,-6,4,0
1558438792151831,-2,-3,-3,-1,-9,-2,-7,-3
1558438792166791,0,-1,-9,-6,-1,7,-1,-2
1558438792166791,3,0,6,8,10,3,2,3
1558438792174771,-1,-1,4,0,-6,-4,1,-1
1558438792174771,-3,-2,-11,-2,-1,-15,-7,-3
1558438792183745,-3,-2,5,3,4,7,9,2
1558438792183745,-5,-2,-8,-9,-11,-8,-7,-3
1558438792197707,1,-1,4,0,3,6,1,0
1558438792197707,1,1,1,-4,-2,-6,-3,1
1558438792204689,-2,-1,-2,-1,-5,-1,1,-3
1558438792204689,-2,-2,2,4,3,9,4,-1
1558438792219648,0,-3,-7,-4,1,-4,0,0
1558438792219648,1,-2,3,5,2,-1,-1,0
1558438792226631,-1,0,-1,-10,-9,-11,-9,-1
1558438792226631,-4,-4,1,10,-6,-5,-5,-5
1558438792236845,-1,0,-4,-17,10,17,4,1
1558438792236845,1,-3,-5,-12,3,-8,-2,0
1558438792243587,-1,0,2,-1,-5,-1,0,0
1558438792243587,-2,-2,-8,-10,-2,-2,-3,-4
1558438792257548,-2,-1,3,13,0,1,-2,-2
1558438792257548,-5,-1,4,5,-5,-7,-5,-4
1558438792264528,-1,-4,-3,1,3,2,0,-2
1558438792264528,-1,3,-1,-8,-4,-5,3,2
1558438792280486,-4,-3,-4,-1,1,3,2,0
1558438792280486,1,4,7,5,5,4,2,-2
1558438792286470,-3,-4,-7,-6,-8,-5,-8,-4
1558438792286470,1,0,1,-1,-3,-8,-3,-1
1558438792303425,-1,-1,2,-1,-3,-6,-1,1
1558438792303425,-2,0,-1,1,2,7,2,-1
1558438792304422,-2,-1,-2,-4,-4,3,-4,-2
1558438792304422,0,1,-1,0,6,-4,-1,0
1558438792317387,1,1,-3,-7,-2,1,2,1
1558438792317387,-3,-5,-2,6,-2,-2,-3,-3
1558438792324376,-2,-2,2,-4,-7,-6,-1,-2
1558438792324376,-3,-2,2,4,-1,2,-6,-2
1558438792340327,-3,-4,-9,-11,3,2,-1,-3
1558438792340327,1,1,2,-1,-8,-10,2,2
1558438792347309,3,-2,-4,1,5,4,1,0
1558438792347309,0,2,0,-5,0,-3,0,2
1558438792363265,-2,0,1,5,-2,5,0,-3
1558438792363265,-1,-1,-7,-14,-7,-2,-3,-2
1558438792364264,-1,-1,5,13,5,-1,0,0
1558438792364264,-1,0,-4,-2,8,9,7,0
1558438792377228,4,0,2,9,2,-5,-1,1
1558438792377228,-1,-3,-3,-1,-4,-4,-6,-2
1558438792384209,3,2,2,6,-1,0,-1,0
1558438792384209,-3,-4,-7,-18,-7,1,-5,-6
1558438792400166,0,1,5,8,1,-11,-5,0
1558438792400166,-1,0,-1,-5,3,15,12,5
1558438792407148,-1,-2,-2,0,9,0,2,1
1558438792407148,-4,-2,-5,-7,-10,0,-3,0
1558438792423105,1,-2,-1,0,-3,-1,-5,-3
1558438792423105,-2,2,0,-3,0,-1,-1,-1
1558438792425099,0,1,3,2,8,-5,7,5
1558438792425099,-4,-3,-5,-5,-7,0,-2,0
1558438792438065,-1,-1,1,11,3,-1,-2,0
1558438792438065,0,-2,4,5,0,-4,-8,-2
1558438792444049,0,-2,-3,-10,-9,-1,0,-1
1558438792444049,3,-1,-2,4,5,7,4,1
1558438792460007,-1,0,-2,0,-5,-3,-4,-1
1558438792460007,0,-1,3,4,1,1,0,0
1558438792466987,0,0,2,0,2,3,2,2
1558438792466987,1,0,-1,1,-1,-7,-1,0
1558438792482946,-4,-1,-2,-1,-1,1,2,-2
1558438792482946,-2,-2,-7,-7,-3,3,0,-4
1558438792484940,-3,-3,-5,3,-9,-7,-8,-5
1558438792484940,4,1,6,4,5,0,3,2
1558438792497941,1,0,1,-1,6,10,5,2
1558438792497941,-1,-2,-2,-4,-6,-5,-4,-2
1558438792504898,-5,-4,-5,0,-8,-3,-5,-4
1558438792504898,0,0,1,3,7,-2,-3,-2
1558438792519845,-3,-2,3,5,3,3,4,2
1558438792519845,0,-1,-5,-7,2,1,0,1
1558438792526864,0,-2,-12,0,-7,1,-4,-3
1558438792526864,-3,-2,-2,-14,-12,-7,-6,-4
1558438792544023,0,-1,3,5,6,-1,1,0
1558438792544023,-1,-1,-2,-1,-3,0,-2,-1
1558438792544780,-1,-1,0,-7,-5,-7,-4,-1
1558438792544780,-2,0,3,10,0,-4,2,1
1558438792557752,2,-1,-7,-5,0,4,0,0
1558438792557752,-3,-5,-1,0,-3,-5,-5,-3
1558438792564727,-1,-2,-1,-4,-5,-3,-3,-3
1558438792564727,0,-2,2,5,-1,5,-3,-2
1558438792580693,-2,-2,1,0,-7,-21,-7,0
1558438792580693,2,3,-2,-7,7,6,3,2
1558438792587668,-4,-2,-6,-6,-7,-6,-3,-3
1558438792587668,-1,-1,-1,-2,-2,-5,0,1
1558438792603453,0,-3,-10,-12,-16,-4,0,-2
1558438792603453,4,1,11,11,14,-1,0,2
1558438792605397,0,0,0,2,2,6,1,-2
1558438792605397,0,0,-1,-4,-1,3,-1,0
1558438792618322,0,-1,1,-2,-2,-8,-5,-2
1558438792618322,-1,-3,0,9,-4,-1,-3,-2
1558438792624201,2,0,-1,-9,8,8,2,1
1558438792624201,-1,-3,-5,-1,-3,-10,-2,-2
1558438792640160,-3,-1,-2,-2,-3,2,1,-2
1558438792640160,-3,-2,3,-3,-3,-2,-2,-4
1558438792647174,-1,-1,-2,-1,2,4,1,0
1558438792647174,4,1,0,1,8,8,4,1
1558438792663100,-2,1,0,2,0,3,-1,0
1558438792663100,-5,-3,-11,-12,-10,-10,-5,-4
1558438792665091,0,3,9,7,4,7,3,0
1558438792665091,-2,-3,2,12,2,1,0,-1
1558438792678060,-3,-4,-5,-17,-12,-6,-3,-4
1558438792678060,1,2,2,4,3,-1,-3,-1
1558438792684083,0,0,-6,-2,-3,0,1,2
1558438792684083,-1,-2,-4,-7,-5,-1,-2,-1
1558438792700035,0,-1,4,5,8,5,0,-1
1558438792700035,-4,-2,0,0,-7,-12,-10,-5
1558438792707086,-1,2,-2,-1,-2,-12,-1,0
1558438792707086,-2,0,1,-11,-5,-4,-4,-1
1558438792723046,-3,-4,-9,-2,2,5,-2,-5
1558438792723046,-1,-3,-3,-2,-2,6,5,2
1558438792725045,-3,-2,2,1,2,-2,-1,0
1558438792725045,-2,-3,-4,-6,-6,-3,-4,-2
1558438792738034,1,1,3,3,5,2,2,2
1558438792738034,0,0,-2,1,8,11,4,0
1558438792744987,-2,-1,7,3,-3,-8,-6,-3
1558438792744987,1,-1,-3,-3,-7,-13,-7,-3
1558438792759947,0,2,0,1,1,3,1,2
1558438792759947,1,-1,-1,-3,-6,1,2,0
1558438792766925,1,-3,0,3,9,8,0,0
1558438792766925,-3,0,4,6,-7,-1,-2,-2
1558438792782884,-2,-1,-5,-6,3,7,-1,-3
1558438792782884,0,-1,-1,-1,3,-1,3,1
1558438792784877,-1,3,1,0,-5,-10,-2,-1
1558438792784877,-2,-2,-5,-4,6,8,5,0
1558438792796845,-2,-2,1,-3,-5,-7,-6,-2
1558438792796845,1,0,-5,-1,-2,10,3,0
1558438792805821,0,-1,-1,-3,4,4,1,2
1558438792805821,-1,-1,3,5,-4,0,-1,-2
1558438792819783,-1,-1,-6,-6,1,-3,-1,-4
1558438792819783,-2,0,3,5,3,6,0,-4
1558438792826867,-2,-2,-5,-6,-10,-8,-3,-1
1558438792826867,0,0,0,2,13,7,3,2
1558438792843719,-2,-3,3,4,-7,-8,-7,-4
1558438792843719,-2,0,-2,-5,-3,-8,-2,-2
1558438792844716,-2,-2,-8,-5,1,8,3,-1
1558438792844716,-4,1,2,-1,-5,-6,-1,-1
1558438792856717,3,1,0,0,-5,-5,-4,2
1558438792856717,1,0,3,8,6,2,0,1
1558438792865661,-1,-1,-3,-6,-4,-8,1,-2
1558438792865661,-2,-2,-8,-9,-4,4,-2,-2
1558438792880622,1,2,2,4,1,1,4,1
1558438792880622,-2,-4,-3,-7,-10,-8,-3,-3
1558438792886640,1,-2,-1,2,9,11,10,3
1558438792886640,0,-2,-5,-4,-4,-9,-6,-2
1558438792903597,-3,1,-1,-11,-2,-2,-2,-1
1558438792903597,-2,-1,-4,-2,-8,-8,-7,-2
1558438792904559,-1,1,2,6,5,10,-1,-1
1558438792904559,0,-2,1,1,6,3,0,0
1558438792916562,0,1,-1,-3,-4,-10,-1,2
1558438792916562,-3,-1,0,0,2,0,-1,-1
1558438792925534,-2,-1,-2,-4,-1,-3,-2,-1
1558438792925534,-2,-2,3,6,1,0,0,-1
1558438792940462,-1,-3,3,15,8,9,-3,-2
1558438792940462,-1,-3,-9,-21,-10,-5,-1,-1
1558438792947446,-2,-3,-2,-13,-10,-7,-3,-1
1558438792947446,-2,-3,-15,-12,-10,-6,-4,-4
1558438792963400,0,-1,5,3,-2,-5,2,-1
1558438792963400,-1,0,0,9,10,4,3,0
1558438792964398,0,3,10,9,9,-1,1,2
1558438792964398,0,-2,-4,1,2,2,-1,-1
1558438792977362,-3,-4,-7,-9,-6,-2,-1,-3
1558438792977362,-2,0,-1,-2,-10,-6,-5,-2
1558438792985341,-2,-4,-7,-7,-7,-9,-9,-5
1558438792985341,-2,-1,8,6,-3,-5,-2,-3
1558438793000300,1,1,1,10,15,18,11,2
1558438793000300,-1,0,-9,-17,-4,-10,-2,0
1558438793007286,2,5,6,7,2,8,5,3
1558438793007286,-2,-3,-7,-9,-13,-8,-8,-4
1558438793023239,-1,-3,-4,-1,-5,1,-2,-4
1558438793023239,1,-1,4,3,-1,-1,-1,1
1558438793024236,0,-1,0,-7,-5,-6,1,1
1558438793024236,0,3,6,9,9,3,0,-1
1558438793037337,-5,-1,-3,-9,-11,-6,-8,-3
1558438793037337,-2,-2,-2,-2,0,-5,1,1
1558438793046313,0,-3,0,2,0,1,0,-1
1558438793046313,3,3,4,3,4,-8,1,2
1558438793060277,0,0,6,6,1,1,-1,-3
1558438793060277,2,-2,-1,-5,-3,3,0,-2
1558438793067257,-6,-5,-12,-9,-11,-7,-4,-4
1558438793067257,-1,0,-3,2,2,7,4,2
1558438793083167,-2,-2,-7,-5,-4,-8,-6,1
1558438793083167,1,2,6,6,1,8,0,0
1558438793089847,-1,-1,1,7,4,2,-1,0
1558438793089847,0,-1,0,-4,3,6,4,2
1558438793096860,-1,-1,-2,2,1,2,3,-1
1558438793096860,-2,-1,-5,-15,-7,-4,-3,-3
1558438793105809,0,-2,3,-2,-2,-8,-4,-1
1558438793105809,-4,-4,-6,0,-1,0,0,-3
1558438793119813,0,-1,4,0,5,10,4,-2
1558438793119813,0,2,5,17,15,-2,2,1
1558438793126789,-1,0,-5,-11,2,10,2,0
1558438793126789,0,0,3,2,-2,-8,-6,-3
1558438793142751,0,-3,-12,-5,3,11,7,1
1558438793142751,-2,-2,2,0,-3,-6,1,-1
1558438793149732,-2,-3,-1,0,-2,-6,-1,-5
1558438793149732,-3,-1,1,0,-5,2,1,-1
1558438793156676,-1,0,-7,-12,-14,-14,-9,-1
1558438793156676,0,-1,-2,6,7,5,-1,1
1558438793165676,3,-1,-2,5,-2,-1,-1,0
1558438793165676,-3,-1,-5,-12,-5,-2,-2,-2
1558438793179608,-1,-1,4,0,3,0,-1,2
1558438793179608,0,-1,-4,6,10,6,0,0
1558438793186597,-2,-1,1,6,-10,-5,-4,-2
1558438793186597,0,-1,1,-2,4,2,1,-2
1558438793202576,0,-1,-3,-4,4,-1,-1,2
1558438793202576,-1,0,1,8,7,-1,-1,1
1558438793209530,-1,1,1,-4,0,3,0,-1
1558438793209530,1,1,2,1,-1,-2,0,-1
1558438793225487,0,1,1,0,-9,-4,-2,-2
1558438793225487,0,-3,-1,-5,-2,4,-1,-3
1558438793227480,-2,-2,-4,1,-3,-5,-3,-3
1558438793227480,-2,0,-1,0,-13,-17,-8,-3
1558438793248669,3,2,3,-7,13,-1,8,5
1558438793248669,-2,0,-3,4,2,7,2,1
1558438793249570,-2,-3,-13,-13,0,0,-7,-3
1558438793249570,-2,-3,0,3,1,7,1,-1
1558438793270550,-3,-2,-5,0,2,-5,-8,-4
1558438793270550,-2,-1,3,-8,-10,-12,-3,-2
1558438793272508,2,-1,2,5,6,11,5,0
1558438793272508,2,-1,-1,0,4,0,-1,1
1558438793285513,0,0,1,3,-2,1,2,-2
1558438793285513,1,-2,1,-4,-5,-3,-5,-2
1558438793287471,-1,-1,-7,-3,-5,-10,-8,-2
1558438793287471,-2,-2,1,-2,0,3,0,0
1558438793300474,-1,-2,0,-3,-1,-1,1,-2
1558438793300474,-4,-2,-4,-4,-2,-1,-1,-4
1558438793307427,0,1,6,4,-4,1,-2,0
1558438793307427,1,0,-12,-7,4,2,3,-1
1558438793322419,-2,-3,0,4,-7,-6,-9,-4
1558438793322419,0,-1,2,13,2,2,3,1
1558438793329396,0,-2,-5,-19,2,-5,0,-1
1558438793329396,1,1,2,1,4,2,5,4
1558438793346315,-1,0,2,5,5,0,1,2
1558438793346315,2,-1,1,-3,-8,-6,-2,0
1558438793347310,-1,3,9,9,4,-1,-2,-1
1558438793347310,-3,-5,-8,-8,-10,-4,-5,-5
1558438793360278,-3,-3,-4,-6,-9,-8,-6,-4
1558438793360278,-1,-1,-3,-4,-11,-6,-4,-2
1558438793367299,1,1,1,3,9,12,4,3
1558438793367299,1,2,3,-2,3,0,3,4
1558438793383212,-1,1,0,-5,-1,2,-2,-1
1558438793383212,-4,-1,-6,-10,-7,-7,-5,-5
1558438793389236,-4,-3,-5,9,-5,-6,-2,-3
1558438793389236,-2,-2,0,-16,-2,-4,-1,0
1558438793406151,1,-2,-4,-3,0,-4,2,2
1558438793406151,-1,0,-1,0,4,8,4,1
1558438793407148,-1,-2,-4,1,-8,-4,-3,-3
1558438793407148,-1,1,2,0,-9,-5,-5,-4
1558438793420661,-1,0,-1,1,9,0,6,3
1558438793420661,-1,-4,-6,-7,-8,-4,-3,-4
1558438793426650,-1,-3,2,2,6,10,1,-1
1558438793426650,-2,-3,-3,1,-9,-8,-10,-3
1558438793442702,-2,-1,-2,-4,-10,-2,-7,-5
1558438793442702,2,2,6,13,8,4,9,7
1558438793449819,0,0,1,-8,4,-10,3,3
1558438793449819,-3,0,-5,-3,1,7,4,1
1558438793465745,0,-3,-3,0,-9,-7,-9,-4
1558438793465745,-2,-3,-3,1,0,3,-1,-2
1558438793467703,-1,0,3,4,8,10,4,1
1558438793467703,0,2,3,5,2,-1,3,3
1558438793479674,-2,-1,-8,-4,-2,6,3,-3
1558438793479674,-5,-5,-6,-6,-5,-8,-9,-5
1558438793486627,-2,0,-1,-2,-2,-7,1,-1
1558438793486627,2,-2,-2,3,5,2,-1,1
1558438793502621,-1,-1,-3,-11,-6,-4,0,0
1558438793502621,0,0,1,0,4,3,-1,0
1558438793509563,-1,-1,-3,-5,-4,1,0,1
1558438793509563,-1,-2,1,6,-3,-1,-2,-3
1558438793525564,0,-1,2,4,-6,-1,-5,-3
1558438793525564,0,0,-4,-7,13,8,3,4
1558438793527516,-2,-1,1,-3,-6,-17,-2,1
1558438793527516,-2,-4,-5,-2,-4,1,0,-2
1558438793540483,1,-1,2,5,6,3,1,1
1558438793540483,0,-1,3,1,-5,-3,-7,-7
1558438793547463,-1,-1,-12,-9,-8,-5,-4,-4
1558438793547463,-2,0,2,4,-6,-8,-6,-3
1558438793562427,-6,-7,-8,-13,-3,-3,-3,-4
1558438793562427,2,4,9,10,16,3,12,7
1558438793569406,0,0,3,9,1,-3,-2,-1
1558438793569406,-2,-1,0,-4,-8,-8,-6,-5
1558438793585388,-1,3,-1,0,5,6,0,1
1558438793585388,0,-1,-3,-4,-9,-2,-3,-2
1558438793587355,-1,-5,-1,1,0,-3,-3,-1
1558438793587355,-1,-2,-2,-3,-2,-4,-2,0
1558438793600320,1,-1,5,12,10,7,1,-1
1558438793600320,-3,-4,-4,-10,-9,-11,-5,-4
1558438793607301,-7,-7,-12,-14,-22,-6,-10,-8
1558438793607301,1,0,-1,6,4,2,6,3
1558438793622297,4,5,8,12,26,4,14,9
1558438793622297,2,1,0,-6,-2,6,3,3
1558438793629377,-2,0,-2,-1,-3,4,-2,-3
1558438793629377,-2,-3,-1,3,-2,-9,-8,-5
1558438793646313,-4,-4,-11,-20,-23,-17,-10,-3
1558438793646313,2,0,-1,3,-2,-6,-7,-1
1558438793647315,0,0,3,-1,-1,-1,2,0
1558438793647315,0,0,-1,-3,8,2,3,2
1558438793660421,1,1,3,4,-3,1,1,-2
1558438793660421,-2,-1,-3,0,-2,-2,-3,-3
1558438793667403,1,1,0,0,-3,1,-3,-1
1558438793667403,-2,0,3,3,6,6,4,2
1558438793682323,-3,-2,-2,-1,1,3,-2,0
1558438793682323,-1,0,6,0,-3,1,3,-1
1558438793689274,-2,-3,-6,1,6,4,-1,-2
1558438793689274,-2,-2,1,-8,-11,-6,-5,-2
1558438793706161,0,-2,-4,-5,-7,-6,0,-2
1558438793706161,-1,-3,-2,-1,-8,-5,-2,-2
1558438793707155,-1,0,1,3,0,-1,-1,0
1558438793707155,1,-1,-1,-5,12,18,9,3
1558438793719161,0,-1,-1,5,5,3,6,4
1558438793719161,-2,-2,-3,0,1,-1,0,0
1558438793728110,-1,1,5,0,-8,-11,-8,-3
1558438793728110,-4,-2,-8,-7,-4,5,0,-3
1558438793743098,1,0,5,5,10,-3,0,0
1558438793743098,3,-1,-4,-4,0,-4,-1,-2
1558438793749090,2,-1,3,0,2,-1,4,1
1558438793749090,-1,0,3,9,-8,-9,-7,-4
1558438793766043,-3,-3,-7,-22,-2,14,4,-1
1558438793766043,-3,-2,-7,-4,-3,-6,-5,-2
1558438793766996,0,-1,-7,-9,-1,4,1,1
1558438793766996,3,2,3,0,-2,-6,4,0
1558438793780006,-1,-2,0,7,-2,-2,-3,-3
1558438793780006,-2,0,6,-1,2,2,2,0
1558438793787944,-1,-1,2,2,3,1,3,1
1558438793787944,-3,-3,-6,-5,0,0,-1,-1
1558438793802939,0,-1,-1,1,-3,0,-5,-1
1558438793802939,-2,-1,-5,5,-1,2,-1,0
1558438793809878,1,1,4,-1,-1,1,3,1
1558438793809878,-1,0,0,-1,-6,-12,-5,-1
1558438793825954,0,-1,-3,-3,-4,-8,-6,-4
1558438793825954,-4,-5,-9,-4,-8,-3,-6,-5
1558438793826954,0,-2,-1,7,4,2,2,-2
1558438793826954,-1,-1,0,-3,9,9,5,1
1558438793839798,-1,-2,1,3,0,5,1,-1
1558438793839798,-5,-2,3,0,0,-2,-3,-2
1558438793848883,3,1,1,2,-4,-14,-4,0
1558438793848883,-2,-2,-2,-3,0,4,-3,-2
1558438793862910,0,1,4,7,4,-4,4,0
1558438793862910,1,1,-7,-8,4,4,1,-1
1558438793869892,-5,-3,-1,-6,1,7,-4,-2
1558438793869892,-2,-1,-8,-6,-15,-8,-7,-3
1558438793885802,0,-1,3,8,5,-3,0,-1
1558438793885802,2,0,-4,-11,-3,-3,-1,-1
1558438793887776,1,-1,-1,2,-3,-2,0,-2
1558438793887776,1,2,3,3,9,-2,4,1
1558438793899669,-4,-2,-4,-6,-14,-2,-6,-4
1558438793899669,-2,-1,0,9,-2,-2,-2,3
1558438793908620,0,2,4,-4,-2,-1,-1,-2
1558438793908620,-1,-2,-4,-4,3,7,-2,0
1558438793922626,0,1,-3,0,1,-5,2,1
1558438793922626,-1,-2,-1,2,-3,-3,-2,2
1558438793929601,-3,-1,-2,-1,3,6,1,0
1558438793929601,1,-1,-1,3,-2,-6,-4,-2
1558438793944568,-4,-7,-5,-10,-3,3,-2,-3
1558438793944568,0,-1,4,12,9,4,4,0
1558438793953501,-1,-1,-9,-18,-12,-13,-3,-1
1558438793953501,0,-2,-2,-3,-4,4,0,-2
1558438793959600,-2,1,-1,-3,1,5,-2,-1
1558438793959600,-1,0,-1,-2,-4,-5,-5,-3
1558438793968577,-1,0,5,11,11,13,5,1
1558438793968577,0,-1,3,2,-4,-8,-2,-2
1558438793982585,1,1,0,0,-2,2,0,-3
1558438793982585,-1,-2,3,-6,-5,2,-1,-1
1558438793989523,0,-1,-4,-3,-4,-6,-8,-5
1558438793989523,-1,0,-3,0,10,1,6,4
1558438794005479,0,0,5,11,2,5,0,0
1558438794005479,-1,0,-4,-8,-1,1,2,-1
1558438794011469,-3,0,-5,-5,-6,-5,-4,-3
1558438794011469,-2,-4,7,2,-4,-2,-2,-2
1558438794019480,0,-2,-6,-4,0,-12,-5,0
1558438794019480,-2,-3,2,0,-5,1,0,-1
1558438794028418,2,-2,0,-5,-5,-5,-7,-1
1558438794028418,-3,-2,-11,-5,-1,4,2,1
1558438794042407,0,0,4,5,3,7,8,3
1558438794042407,0,-1,-4,-8,-4,-1,-1,-5
1558438794049831,-2,-2,2,5,1,9,1,-1
1558438794049831,1,2,6,5,5,-3,1,1
1558438794064792,0,0,0,-4,-5,-1,-2,0
1558438794064792,-2,-1,2,8,2,0,0,-1
1558438794071776,-2,-1,-1,-5,1,-1,0,-2
1558438794071776,-2,-3,-4,-4,-9,-5,-5,-5
1558438794079755,-2,-1,-2,-12,-15,-9,-6,-5
1558438794079755,2,2,0,9,14,10,9,4
1558438794088655,0,-1,5,5,0,-10,-3,0
1558438794088655,0,-1,-7,-6,-5,1,-2,-1
1558438794102694,-3,-3,-1,-4,-4,-3,2,-2
1558438794102694,-2,1,-1,-7,-1,-6,-2,0
1558438794109671,-2,1,0,1,4,1,0,1
1558438794109671,-3,-2,3,6,4,2,-4,-1
1558438794125555,1,-2,-4,-4,-5,0,-3,-1
1558438794125555,-1,0,1,-5,-2,1,2,0
1558438794131578,-1,-1,-3,3,7,0,3,0
1558438794131578,-1,0,-4,-5,2,-2,-2,-1
1558438794139525,-2,-1,0,8,-6,-8,-7,-3
1558438794139525,0,-2,-4,-1,1,1,-2,-2
1558438794148500,-3,-2,-1,1,-2,5,3,-2
1558438794148500,0,-1,6,9,7,-4,4,2
1558438794162505,-2,-2,-6,-15,-8,-2,-3,-2
1558438794162505,0,-1,0,-3,-8,-8,-6,-3
1558438794169479,-1,-1,-1,6,5,4,-1,1
1558438794169479,1,0,2,-2,0,7,4,3
1558438794185401,-3,-4,-13,-16,-2,-3,-1,-2
1558438794185401,-2,-1,4,5,-1,3,-3,-4
1558438794192384,-3,-2,-3,-5,-13,-10,-6,-4
1558438794192384,2,2,-3,1,9,11,14,4
1558438794208338,0,1,7,15,17,4,4,3
1558438794208338,-4,-1,-3,-8,-10,-4,-5,-4
1558438794210330,-1,-3,1,-2,0,5,1,0
1558438794210330,-1,-1,-3,0,2,3,-6,-4
1558438794222328,-1,0,3,9,-2,-6,1,0
1558438794222328,-1,-3,4,0,5,0,3,-1
1558438794229328,-2,-1,-4,-4,-4,1,-4,-4
1558438794229328,-3,-3,-5,-10,-26,-19,-12,-7
1558438794245234,1,-1,1,1,8,10,3,2
1558438794245234,2,-2,-3,2,6,6,5,2
1558438794252217,-1,-1,-3,-5,0,0,-2,-2
1558438794252217,-2,3,5,2,2,0,2,2
1558438794268172,-3,-2,-4,0,-2,0,1,-2
1558438794268172,-1,0,-1,-2,-7,-7,-3,-2
1558438794270167,-2,-2,-2,-1,1,-2,-3,0
1558438794270167,1,-2,-2,2,1,1,0,-1
1558438794283204,-1,1,3,0,-3,-11,-6,0
1558438794283204,-2,2,5,6,3,3,1,-1
1558438794289352,1,-1,-2,-3,2,-3,-4,-1
1558438794289352,0,-1,0,3,8,2,-1,0
1558438794306156,-1,0,-3,-4,-8,-6,-2,-2
1558438794306156,2,1,-5,0,-1,-1,-4,-3
1558438794312285,0,-1,0,-7,-7,-7,-4,0
1558438794312285,-6,-4,0,2,0,3,-6,-4
1558438794328243,1,-1,5,1,4,4,3,3
1558438794328243,-3,-2,-5,-7,-10,-13,-4,0
1558438794330008,-2,-2,0,6,6,1,4,-4
1558438794330008,-1,-1,-2,-7,-4,2,0,-1
1558438794343081,-3,0,2,-4,-5,6,1,-2
1558438794343081,-5,-1,-7,0,1,-2,-2,1
1558438794349061,-2,-2,-1,1,-5,-7,-4,-3
1558438794349061,-2,-3,-4,-7,-14,-9,-6,-2
1558438794364988,0,1,5,6,10,10,5,1
1558438794364988,1,-1,2,-4,-4,-8,-2,-1
1558438794371969,0,-1,-7,1,3,6,6,-1
1558438794371969,-3,-3,-3,-4,-6,-3,-7,-5
1558438794387894,-2,-3,-6,-8,-7,-9,-8,-4
1558438794387894,0,0,6,6,0,0,0,2
1558438794389849,-3,2,3,1,0,0,1,1
1558438794389849,2,2,2,2,5,3,-1,1
1558438794402857,-4,-3,-3,0,-5,0,-1,-2
1558438794402857,1,0,0,-4,8,-1,2,0
1558438794409850,-4,-2,-14,-26,-17,-10,-2,1
1558438794409850,0,1,4,-2,4,-3,2,-1
1558438794424756,0,-3,-3,-2,-7,-3,-7,-3
1558438794424756,2,1,5,4,8,5,4,3
1558438794431772,2,1,6,7,11,7,4,2
1558438794431772,-2,-3,3,0,-4,-3,-4,-1
1558438794448719,-2,-3,-14,-10,-9,0,-7,-4
1558438794448719,-5,-4,-7,-4,-6,-5,-3,-2
1558438794449687,2,3,6,5,7,10,7,1
1558438794449687,-3,-1,-2,5,-5,-7,-3,-3
1558438794462654,-1,0,3,-4,-1,-11,-4,-1
1558438794462654,0,-1,-3,1,-2,1,-2,1
1558438794469634,1,-2,-2,2,1,6,1,0
1558438794469634,0,1,2,-2,-8,-2,-1,0
1558438794484830,-1,1,0,4,10,3,3,0
1558438794484830,1,-2,-2,0,-3,-1,-2,-3
1558438794491577,-1,-2,0,0,-6,-2,-6,-2
1558438794491577,-3,-3,-4,-2,-2,0,-4,-2
1558438794508761,0,-2,-3,-4,-1,-7,-2,-3
1558438794508761,0,1,4,1,3,-6,2,3
1558438794509562,1,-1,0,7,0,0,-1,-2
1558438794509562,-1,0,1,1,1,7,7,0
1558438794522720,1,1,-6,-3,2,-2,-2,1
1558438794522720,-3,-2,-3,-5,-9,-5,-7,-4
1558438794529474,-1,-3,2,-1,1,-3,-2,-1
1558438794529474,0,-1,-1,4,8,4,5,2
1558438794545567,-2,-2,-5,-4,-6,5,0,-2
1558438794545567,-1,-1,-1,-4,-4,-1,-3,-2
1558438794552435,-2,-2,-1,-5,-3,-6,-5,-3
1558438794552435,0,0,-2,-1,-3,-7,-2,1
1558438794568422,1,1,4,3,-2,-7,-1,-2
1558438794568422,-2,-3,-6,-6,1,9,2,0
1558438794569368,-1,1,3,2,0,3,0,1
1558438794569368,-2,-2,-2,-1,5,5,-1,0
1558438794582380,0,0,6,9,5,-4,1,2
1558438794582380,0,-2,-4,-4,3,4,1,1
1558438794589317,0,-3,-10,-16,-9,-6,-2,0
1558438794589317,0,-1,-4,-2,3,-5,-8,-3
1558438794605307,0,1,-1,-4,-12,-3,0,0
1558438794605307,-2,-1,4,7,12,9,6,0
1558438794619270,-3,-1,4,4,7,5,2,0
1558438794619270,0,-2,-2,-1,-15,-8,-6,-4
1558438794628214,-2,-2,-1,0,2,-7,-4,-1
1558438794628214,-1,-1,3,4,0,2,6,2
1558438794629208,-2,-1,-2,-1,3,-4,-3,-2
1558438794629208,-4,-2,-2,-8,-8,-4,-3,-4
1558438794642173,-1,-2,-2,-2,-1,1,-6,-2
1558438794642173,0,0,2,1,2,2,-1,-3
1558438794649157,-1,-3,-6,-1,-4,0,0,1
1558438794649157,0,-2,0,5,13,5,5,1
1558438794665111,-1,0,3,-1,-4,0,-4,-5
1558438794665111,-4,-3,-11,-8,-9,4,-3,-2
1558438794672093,4,3,6,4,4,-11,1,2
1558438794672093,-2,-1,-6,-7,-1,-9,0,-2
1558438794688050,-2,-1,-3,-3,-3,10,4,1
1558438794688050,0,0,1,9,12,3,-2,1
1558438794690047,-5,-3,-1,-3,-13,-6,-5,-4
1558438794690047,-1,0,-2,-9,1,5,3,2
1558438794702254,0,2,1,-3,0,-1,0,-2
1558438794702254,-5,1,-4,-1,-12,-5,-5,-5
1558438794710989,1,0,7,7,5,-1,2,1
1558438794710989,-1,-3,-5,-5,-14,-17,-5,-3
1558438794725187,-1,-1,0,6,6,7,0,1
1558438794725187,-1,-2,1,-6,-4,-1,-3,-5
1558438794732168,-1,1,1,3,-1,3,-1,-2
1558438794732168,-2,-2,-11,-6,6,2,5,2
1558438794748083,1,1,6,5,2,-5,-1,3
1558438794748083,-3,-4,0,2,-6,-4,-3,-2
1558438794749885,-2,0,-3,-14,-3,1,1,-1
1558438794749885,2,3,3,7,4,4,-1,0
1558438794761934,-3,-3,-6,-5,2,4,4,2
1558438794761934,1,2,3,1,0,-17,-4,2
1558438794770833,-2,0,3,4,-6,-3,-4,-5
1558438794770833,2,2,0,-4,-1,-6,-6,0
1558438794784829,-1,-3,-2,-3,-9,-1,5,0
1558438794784829,0,2,3,4,20,10,2,-2
1558438794791807,-2,-3,-3,-2,-7,-1,-3,-1
1558438794791807,-2,-5,0,2,3,8,1,-2
1558438794808728,1,-1,-4,1,-4,-5,-7,-6
1558438794808728,-2,-2,0,4,-7,-6,0,-1
1558438794809728,-1,-2,-10,-6,5,6,2,0
1558438794809728,-1,0,5,2,3,3,0,0
1558438794821731,-2,0,0,-3,-6,-5,-3,-3
1558438794821731,-1,-1,-2,-4,-10,-7,-4,-3
1558438794830670,2,5,5,7,19,11,9,4
1558438794830670,-3,-3,-12,-16,-16,-1,-3,-1
1558438794844665,-1,-4,1,-2,-4,-12,2,2
1558438794844665,2,1,-4,-6,5,-3,-5,1
1558438794851645,-2,-4,-3,0,-8,-1,-2,-3
1558438794851645,-1,-1,3,5,0,2,-2,-2
1558438794868745,0,0,2,4,4,-2,-3,-2
1558438794868745,-3,0,-5,-23,-9,-2,2,-1
1558438794869567,0,-2,-8,-2,1,-3,0,-2
1558438794869567,0,-1,1,4,4,11,6,2
1558438794882529,-1,0,0,-1,-3,-3,-6,-5
1558438794882529,0,-1,3,6,5,7,-3,2
1558438794890509,-2,-1,-2,1,-5,-5,-7,-5
1558438794890509,0,1,2,-5,1,-1,4,1
1558438794905609,1,1,0,3,-2,-9,-5,-1
1558438794905609,1,-2,-2,1,0,2,2,0
1558438794912475,1,-2,-7,-1,10,14,4,1
1558438794912475,-3,0,0,-2,-7,-10,-6,-3
1558438794927514,-2,-3,-7,-6,-6,0,-3,-1
1558438794927514,0,1,-1,5,-7,-4,2,-1
1558438794934500,-2,-3,0,-16,-8,-9,-7,-3
1558438794934500,2,1,2,6,10,4,5,2
1558438794942373,-1,-2,2,4,5,7,0,-1
1558438794942373,-3,-2,-4,-3,-7,-1,-5,-3
1558438794950467,-3,-3,-7,3,0,-15,-2,0
1558438794950467,1,0,4,2,4,0,-2,-1
1558438794965399,-3,1,-4,-6,-3,-4,0,-2
1558438794965399,-5,-6,-7,-7,-18,-10,-8,-5
1558438794973375,2,2,6,11,17,17,3,2
1558438794973375,0,-1,-4,-12,-7,1,3,2
1558438794987380,-2,-4,-1,4,2,0,-2,-3
1558438794987380,0,-1,1,2,0,-3,1,0
1558438794994359,-1,1,2,-6,-9,-5,-2,-2
1558438794994359,0,-2,1,4,0,-7,-4,-2
1558438795002302,-2,-3,2,6,3,5,-2,0
1558438795002302,0,2,-1,-7,1,-10,3,4
1558438795011273,-3,-1,-5,-3,-13,-10,-5,-2
1558438795011273,-1,0,4,5,-4,0,-1,-4
1558438795025236,1,1,-5,-10,1,2,3,0
1558438795025236,-2,-3,-1,1,-1,7,-4,-4
1558438795033218,-1,-1,3,2,0,-2,1,-1
1558438795033218,-4,-2,-3,0,0,0,2,-3
1558438795047178,0,1,5,0,10,10,4,3
1558438795047178,1,2,-3,-1,3,2,-1,-1
1558438795062360,-1,2,-4,-4,-9,-2,-2,-1
1558438795062360,-3,-1,-2,-7,-7,1,-4,-3
1558438795063135,0,-2,-2,-4,1,-2,3,-1
1558438795063135,1,-1,0,3,8,5,3,-1
1558438795071113,-1,-1,5,13,-2,-2,-2,-2
1558438795071113,-3,-2,-5,-15,-5,1,0,0
1558438795085269,-2,-3,-3,-5,-4,1,3,2
1558438795085269,-2,-3,-1,2,-2,-11,-5,-1
1558438795092254,-1,-3,-3,-7,-1,-1,-2,-2
1558438795092254,0,1,-2,4,3,-8,-5,-2
1558438795108131,-2,1,-1,-4,-5,-4,-3,-2
1558438795108131,0,-2,2,-1,-9,-3,-2,-4
1558438795114996,-1,-2,1,2,15,1,3,4
1558438795114996,0,-1,-3,-9,-7,-5,-4,-2
1558438795131174,-4,-3,-4,-4,0,0,-3,0
1558438795131174,-1,0,3,2,-2,4,2,1
1558438795132061,1,1,2,3,3,-1,-1,1
1558438795132061,0,-3,-4,3,1,1,-1,0
1558438795145520,1,1,2,2,0,-3,-2,-1
1558438795145520,-2,-2,-4,-2,1,-5,1,-2
1558438795151679,-2,1,-2,-4,-12,-7,-3,-3
1558438795151679,-1,-1,2,3,14,7,-2,0
1558438795167489,-1,-2,-2,0,-13,-5,-3,-2
1558438795167489,1,0,-5,1,2,-7,0,1
1558438795174446,0,-2,-1,-12,-8,5,6,2
1558438795174446,-1,-2,2,2,8,4,-2,-4
1558438795190404,0,0,1,1,-3,2,-1,-3
1558438795190404,-2,1,-6,-2,-1,-4,-4,-2
1558438795192403,-2,-1,-1,-8,-5,-18,-6,-2
1558438795192403,-1,-1,0,9,0,-4,0,1
1558438795205401,2,1,5,2,4,9,2,2
1558438795205401,-2,-2,-1,-5,0,4,2,-1
1558438795213346,-1,-1,-4,0,2,0,0,0
1558438795213346,1,1,5,5,-2,-5,1,-1
1558438795227339,-4,-3,-5,-8,-15,-14,-7,-3
1558438795227339,0,-1,-4,-7,-4,7,-2,0
1558438795234286,1,-1,1,6,7,4,0,2
1558438795234286,0,0,5,1,-4,-1,1,-1
1558438795250244,-4,-3,-11,-10,-6,-4,-5,-3
1558438795250244,1,-4,0,-1,3,7,1,-2
1558438795252240,-3,-2,-2,1,-4,-5,-2,-4
1558438795252240,1,1,5,8,8,-1,-1,1
1558438795265203,-2,-1,-8,-8,1,1,0,-2
1558438795265203,0,0,3,-5,0,2,1,2
1558438795272226,-2,-3,0,2,-2,-4,-5,-2
1558438795272226,-1,-4,-7,-1,-6,2,-3,-3
1558438795288199,-1,-1,5,8,6,2,-1,-1
1558438795288199,-4,-1,-2,-2,-6,-7,-6,-5
1558438795294126,0,2,1,1,8,11,8,3
1558438795294126,-1,0,-1,-2,2,-4,3,0
1558438795311365,-1,0,-1,-4,2,3,1,-2
1558438795311365,2,1,3,7,-4,-9,-6,-1
1558438795312363,-1,-1,-2,-11,-13,-5,-1,-3
1558438795312363,-3,-3,-8,-9,-1,-7,-1,0
1558438795325577,0,1,0,2,7,2,2,1
1558438795325577,-4,-1,0,6,1,2,-4,-3
1558438795332526,-1,-1,0,-4,-4,-4,-5,-3
1558438795332526,-2,-1,0,1,1,-2,3,1
1558438795347495,0,0,-2,-1,-3,-2,0,-1
1558438795347495,-1,-1,3,0,0,2,-1,-2
1558438795354450,-2,-4,-9,-5,0,3,-4,-4
1558438795354450,0,1,-1,-2,-6,-6,0,0
1558438795370385,0,-1,1,0,-1,-5,-2,2
1558438795370385,-2,-2,-4,-3,0,0,6,2
1558438795372310,-2,-1,1,3,2,0,-2,0
1558438795372310,-2,-2,-1,0,-2,3,-5,-4
1558438795385348,-1,-3,-3,-7,-9,-4,-7,-4
1558438795385348,1,0,6,12,10,1,2,1
1558438795392275,-1,0,-2,-12,0,-12,-5,0
1558438795392275,0,0,-3,-1,-6,-1,-2,-2
1558438795407217,4,0,5,3,4,0,7,2
1558438795407217,-2,-3,-3,-5,-5,2,-3,-1
1558438795414263,-4,-1,-2,3,-5,4,-1,-3
1558438795414263,-2,0,5,4,4,-11,-1,3
1558438795431184,-2,-1,-10,-8,-2,2,0,-1
1558438795431184,-1,-2,-4,-6,-5,-7,-4,-1
1558438795432154,-2,0,4,5,2,-8,-5,-3
1558438795432154,-4,-3,-5,-4,-7,7,-3,-3
1558438795445115,-2,0,5,3,-3,-8,-6,-2
1558438795445115,-1,-3,-5,-6,-2,-2,2,2
1558438795452133,3,-1,-1,3,2,4,3,0
1558438795452133,-2,-1,-6,-7,1,-2,-3,-1
1558438795467062,-2,-1,5,7,7,11,7,1
1558438795467062,0,1,1,0,-3,-2,0,-2
1558438795475034,-2,-1,-6,-6,-9,-1,-2,0
1558438795475034,-1,-1,-3,-1,-1,-9,-7,-4
1558438795490990,-4,-3,-6,-13,-7,-5,-6,-3
1558438795490990,-1,0,2,2,5,0,-1,-3
1558438795492024,2,0,0,3,3,-2,7,3
1558438795492024,0,0,1,-2,-7,-2,-4,-3
1558438795505136,-2,0,-2,4,-4,-8,-6,-4
1558438795505136,-4,-3,-4,-5,-4,2,-2,-3
1558438795512116,2,0,1,0,3,4,3,-1
1558438795512116,-1,2,-1,-3,0,7,-2,0
1558438795528086,2,1,4,7,14,8,3,4
1558438795528086,0,1,0,-1,1,2,4,1
1558438795534936,-2,-3,-2,-3,-7,0,-5,-3
1558438795534936,-1,-4,-1,-2,-9,-2,-3,-3
1558438795550947,0,3,2,3,7,4,7,2
1558438795550947,1,-3,-5,-4,0,2,0,0
1558438795551829,-4,-1,0,2,4,8,4,0
1558438795551829,-2,-2,-6,-7,-8,-4,-2,-3
1558438795564826,-4,-4,2,-3,-8,-8,-7,-5
1558438795564826,-1,0,-6,-4,-4,-13,-1,2
1558438795571817,0,1,2,10,13,9,4,3
1558438795571817,-2,-1,3,-2,-4,-2,-4,-5
1558438795587773,-2,-3,-4,-2,-4,-1,0,-1
1558438795587773,0,-1,4,5,6,-3,3,3
1558438795594755,-1,-3,-1,-8,-10,-9,-9,-7
1558438795594755,1,0,0,4,-1,10,2,3
1558438795610714,0,0,-2,2,7,-3,-3,0
1558438795610714,0,0,0,2,0,9,4,1
1558438795612667,-3,-2,-3,-9,-7,-8,-6,-3
1558438795612667,0,-1,-1,2,7,5,3,-1
1558438795624642,-3,-3,-2,-10,-9,-13,-3,-1
1558438795624642,-1,0,-4,-5,-2,-3,-4,-2
1558438795633610,-1,-1,2,5,-1,-2,-3,1
1558438795633610,-1,1,2,1,7,9,9,2
1558438795647581,3,1,-1,0,7,5,0,1
1558438795647581,-1,-1,2,-3,-8,-5,-5,-6
1558438795654555,-3,-3,-2,2,-10,-1,-2,-1
1558438795654555,1,-1,-3,0,6,4,1,2
1558438795670551,-1,0,-2,1,-1,-10,-6,-2
1558438795670551,-1,-2,-5,-1,-4,-1,-5,-1
1558438795672507,0,2,0,0,1,2,2,1
1558438795672507,0,0,-2,-3,-2,-3,2,1
1558438795684478,-1,1,7,10,4,8,2,-3
1558438795684478,-2,-1,-3,0,-8,-2,-5,-2
1558438795693452,-1,-5,-10,-16,5,-5,-3,-2
1558438795693452,0,0,2,1,1,-6,-1,2
1558438795707412,-1,-2,-4,-3,-3,-3,2,1
1558438795707412,-3,-5,0,-5,-2,-2,-3,-3
1558438795714394,2,2,4,6,-3,2,-2,-3
1558438795714394,2,-1,-5,-2,-3,-13,-3,1
1558438795730350,1,-3,-4,-4,8,13,5,0
1558438795730350,0,2,1,2,-4,1,-1,-2
1558438795732381,-4,-1,-3,-3,2,4,0,-4
1558438795732381,-1,-2,4,0,-6,-5,0,-1
1558438795744312,1,0,0,-3,-6,-7,3,-1
1558438795744312,-3,-2,-1,-3,6,2,0,-1
1558438795753290,-2,0,-2,4,0,1,1,0
1558438795753290,-3,-5,-6,-15,-6,0,-3,-3
1558438795768287,1,0,-3,1,-1,-4,-6,1
1558438795768287,0,1,0,-3,0,-1,4,2
1558438795774233,-3,-3,-3,-7,-5,-6,-5,-1
1558438795774233,-2,-3,1,2,-7,-1,-2,-4
1558438795790191,-1,1,-3,-1,4,11,4,1
1558438795790191,1,1,2,0,1,-11,-7,-1
1558438795792287,1,3,5,0,-4,-9,-3,1
1558438795792287,1,-1,1,4,-1,2,-1,-1
1558438795805191,-3,-3,0,-1,-4,3,-1,-4
1558438795805191,1,2,1,5,6,2,0,-2
1558438795813131,-1,-2,-10,-11,-8,-8,0,-1
1558438795813131,-1,0,-1,8,3,1,-5,-4
1558438795828216,-2,-4,-2,-2,-3,1,4,0
1558438795828216,-1,-1,-4,-4,3,4,-1,1
1558438795835102,-3,-5,8,10,2,1,1,0
1558438795835102,-1,2,-4,-2,0,-1,3,1
1558438795850261,-3,-1,-2,-4,-9,-9,-10,-5
1558438795850261,-1,-3,-7,-1,-1,0,-3,-3
1558438795857016,-2,0,2,2,-1,-6,-3,0
1558438795857016,-2,-3,-1,3,1,0,4,2
1558438795864003,1,-1,0,-8,-6,-6,-1,0
1558438795864003,1,-3,1,-1,4,0,4,1
1558438795872970,0,0,-8,-5,-5,-1,-3,-3
1558438795872970,-3,2,2,-1,0,-2,-3,0
1558438795888304,1,0,-1,2,1,-4,-3,-1
1558438795888304,-3,-4,4,7,-4,-3,-1,-2
1558438795893941,2,0,0,-8,8,10,2,1
1558438795893941,-3,-2,-3,-4,-5,-5,-6,-2
1558438795909871,-2,-1,-4,-5,-5,1,1,1
1558438795909871,1,2,5,6,6,-3,5,1
1558438795917287,-2,-4,-1,6,0,-4,-4,-3
1558438795917287,-5,-5,-8,-7,-15,-7,-9,-6
1558438795924830,-1,3,1,3,21,24,15,4
1558438795924830,-1,0,2,-2,-3,-4,-3,1
1558438795933153,-2,-3,-2,0,-3,1,-3,-2
1558438795933153,0,0,0,-7,-6,-11,-7,-4
1558438795947768,-2,-3,-1,5,0,-2,-3,-2
1558438795947768,0,2,-2,-5,-6,-6,1,0
1558438795954750,1,1,2,3,2,3,3,1
1558438795954750,3,-1,3,6,6,3,0,-1
1558438795969711,1,0,-2,-7,-6,-2,-2,-2
1558438795969711,-3,-2,-5,-5,-2,-1,0,-1
1558438795976692,-1,1,-5,-11,0,-6,0,1
1558438795976692,-1,1,8,-1,-2,4,2,0
1558438795984703,-2,-2,-9,-2,-3,-1,-2,-2
1558438795984703,-3,-4,-3,-5,-6,2,-3,-2
1558438795993683,0,-2,0,0,0,2,2,1
1558438795993683,0,-1,-2,-1,2,-3,0,0
1558438796007631,-2,0,1,1,1,4,-2,-1
1558438796007631,1,0,-3,-3,-4,-7,-1,1
1558438796014590,-2,-1,4,6,3,-3,-3,0
1558438796014590,-1,-3,-2,0,-1,1,2,2
1558438796030657,-2,-2,0,0,-6,-11,-10,-3
1558438796030657,-2,-4,-4,-4,3,4,2,-2
1558438796036944,-1,0,5,5,-2,-3,2,-1
1558438796036944,-1,3,3,0,6,0,5,2
1558438796053486,-3,-2,-11,-14,-10,-6,-6,-3
1558438796053486,-1,0,0,1,3,1,-1,0
1558438796055481,0,-1,-8,-9,0,0,-1,-1
1558438796055481,-1,-1,2,4,1,-4,-6,-3
1558438796068446,1,-1,11,7,-2,-9,-1,0
1558438796068446,-2,-3,0,-3,-7,0,-2,-1
1558438796074433,1,-1,0,0,13,8,6,2
1558438796074433,-2,-4,-8,-11,-12,-3,-3,-2
1558438796089390,-3,-1,-3,-2,-7,-14,-7,-2
1558438796089390,0,4,-1,2,2,3,3,-1
1558438796097843,-3,-2,-1,-1,-7,-6,-8,-4
1558438796097843,-1,-2,2,2,2,5,3,0
1558438796112558,0,-2,2,3,4,-2,-5,1
1558438796112558,-2,0,2,1,-7,-8,-6,-2
1558438796113335,-1,-4,-2,-2,-4,1,0,-3
1558438796113335,-2,-3,-12,-15,11,-1,3,1
1558438796136266,-1,-2,-1,-2,-5,2,-2,-1
1558438796136266,0,0,1,4,5,11,2,1
1558438796137263,-1,-2,5,5,-9,-13,-4,-3
1558438796137263,-2,0,5,4,6,-4,0,1
1558438796149229,1,2,1,4,-1,3,6,0
1558438796149229,-1,1,2,-1,12,6,-3,-2
1558438796157211,-1,1,-6,0,-4,2,1,-1
1558438796157211,-3,-3,-2,4,-1,-2,-5,-1
1558438796172168,-4,-1,-2,-17,-5,-3,-2,-1
1558438796172168,-1,-2,0,0,-8,-3,-1,-2
1558438796173166,-1,0,1,-7,-5,-7,-4,1
1558438796173166,1,3,6,9,6,6,8,3
1558438796188129,0,0,1,5,8,6,5,0
1558438796188129,-4,-4,-10,-14,-14,-4,-7,-5
1558438796194114,1,0,-2,3,4,5,-1,0
1558438796194114,-1,-2,-2,-2,-7,-3,-3,-4
1558438796209072,0,-1,1,1,-4,-5,-3,-2
1558438796209072,-2,-2,-5,-3,-5,-8,-7,-4
1558438796217049,-3,0,3,6,8,9,5,0
1558438796217049,-1,-1,-1,6,7,7,4,-1
1558438796233026,-1,-2,-3,-1,-2,-4,-3,-3
1558438796233026,-1,-1,6,7,7,-6,-5,1
1558438796233026,-2,-3,-6,-9,-17,-11,-7,-3
1558438796233026,0,0,-6,-11,1,0,-2,-2
1558438796248226,-2,-2,-1,10,3,3,-3,-4
1558438796248226,2,0,-6,-14,0,-3,5,6
1558438796253951,-2,1,-1,1,5,5,3,1
1558438796253951,0,0,7,7,5,-1,5,4
1558438796268910,-1,-2,-4,-4,-4,2,0,-2
1558438796268910,-1,-4,1,7,-2,5,-3,-3
1558438796276888,-1,-3,-5,-8,-7,-9,-4,-3
1558438796276888,-2,-1,2,-3,-2,1,1,0
1558438796292846,-1,2,2,2,7,3,1,0
1558438796292846,-3,-3,-2,1,-9,-7,-4,-5
1558438796292846,-2,-2,-1,-1,1,2,-2,-2
1558438796292846,-1,0,-3,-4,-4,-7,-4,-2
1558438796308078,-1,0,2,0,-1,2,2,1
1558438796308078,0,1,3,2,2,6,7,1
1558438796313790,-2,-2,-5,-8,-3,2,-3,-2
1558438796313790,-1,-2,-2,5,-9,-11,-7,-4
1558438796329747,1,0,-5,-8,3,-3,0,1
1558438796329747,0,-2,0,-1,2,4,3,-1
1558438796336727,-1,2,6,10,3,2,1,-1
1558438796336727,-4,-4,-10,-12,-11,-6,-9,-4
1558438796352685,-1,0,1,3,-1,0,0,-1
1558438796352685,0,3,5,3,1,-6,0,0
1558438796352685,-1,-1,-8,0,11,8,7,4
1558438796352685,0,2,6,1,-7,-1,-3,-1
1558438796368642,-1,-5,-2,0,-5,-3,-5,-5
1558438796368642,0,-1,-1,3,-2,-1,-1,-2
1558438796374629,-1,-2,-2,-12,-5,-5,-2,-2
1558438796374629,-1,-2,0,2,2,4,1,1
1558438796389586,1,1,-3,-7,-2,-2,-1,1
1558438796389586,-3,-2,2,7,-1,-4,-1,-2
1558438796396599,1,1,4,0,-1,-6,-5,-2
1558438796396599,-1,-2,-5,1,2,6,2,-1
1558438796412525,-3,-3,-6,-6,-6,-5,-1,-1
1558438796412525,-3,-2,-6,-9,4,2,-2,0
1558438796413523,1,2,7,6,3,-4,-1,0
1558438796413523,0,1,0,1,-3,-9,-8,-4
1558438796428487,0,2,5,4,6,6,-1,0
1558438796428487,0,-2,-4,-1,-3,-2,4,1
1558438796434468,-1,-2,-9,-20,-7,1,0,0
1558438796434468,-1,0,3,-2,-1,-4,-2,-2
1558438796449427,-3,-2,4,9,-2,5,-1,-1
1558438796449427,0,-2,-2,-9,0,-5,-2,-3
1558438796456411,-1,0,0,10,9,6,4,2
1558438796456411,3,2,3,4,3,-1,6,3
1558438796472366,0,0,-7,-10,-2,-7,0,0
1558438796472366,-3,-2,-4,3,-4,-2,-5,-3
1558438796473367,0,0,5,2,-3,8,6,1
1558438796473367,-3,-3,-12,-8,-5,1,-4,-2
1558438796488323,0,-1,6,4,0,-5,-3,-1
1558438796488323,1,1,6,6,7,7,-2,2
1558438796494310,-3,-4,-13,-16,-7,-7,-6,-6
1558438796494310,1,-2,0,1,-4,1,0,-2
1558438796509268,0,-3,3,2,-3,-4,1,0
1558438796509268,0,-4,-5,-7,-9,-4,-2,-3
1558438796517248,-2,-1,2,1,-5,-2,-2,0
1558438796517248,-1,2,2,4,2,1,-3,-1
1558438796532206,-1,-2,-5,-6,5,4,1,0
1558438796532206,2,3,1,5,2,-3,-1,2
1558438796533203,2,1,8,6,3,3,0,0
1558438796533203,0,-2,-9,-15,-3,-5,-2,-2
1558438796548163,-3,-1,1,6,-3,-4,-5,-1
1558438796548163,-3,-2,0,-1,0,3,2,1
1558438796554148,-2,0,4,9,-1,-2,-1,-2
1558438796554148,-1,1,1,6,2,1,0,-1
1558438796569106,-3,-4,-13,-20,-5,-5,-1,-3
1558438796569106,-4,-1,-4,-5,-5,2,-2,-3
1558438796577248,-1,-3,-3,-2,-8,-11,-2,-1
1558438796577248,2,0,7,2,7,3,9,5
1558438796592217,2,0,-3,-1,2,1,-4,-3
1558438796592217,0,0,1,-1,-2,10,4,0
1558438796593043,-1,-3,-4,-7,4,7,0,-1
1558438796593043,-2,-4,-1,-2,-3,-5,-4,-3
1558438796608020,-1,2,1,5,-11,-5,-6,-1
1558438796608020,0,1,-2,-6,-4,-11,-4,-3
1558438796613988,1,1,2,6,4,-4,-3,-4
1558438796613988,-2,-4,-7,-6,-9,-2,1,-1
1558438796628948,1,1,4,2,15,5,1,-1
1558438796628948,-3,-2,0,-1,-3,-2,-2,-2
1558438796637224,-3,-2,-3,-2,-5,3,0,0
1558438796637224,-2,-2,-2,-3,-4,-2,-5,-3
1558438796653038,-2,-2,3,-2,-5,-4,-1,-4
1558438796653038,4,1,4,7,14,14,11,4
1558438796653038,-2,-4,-11,-12,-1,0,-4,-2
1558438796653038,-3,-2,3,6,1,2,0,-2
1558438796667843,-2,-4,-10,-22,-16,-5,-2,-1
1558438796667843,-2,-1,1,1,-1,-6,-7,-1
1558438796673841,0,-1,4,5,2,-2,2,1
1558438796673841,1,0,0,2,-1,-2,-5,-2
1558438796689784,0,3,4,10,8,1,6,1
1558438796689784,-4,-1,-3,-9,-8,-2,0,-2
1558438796696766,-2,1,-2,-2,-8,-5,-3,-4
1558438796696766,1,-1,0,-3,0,2,0,4
1558438796712724,-5,-1,1,6,4,0,-3,-2
1558438796712724,-2,-2,-6,-6,-9,1,-3,-3
1558438796712724,-2,-1,2,13,6,-4,1,0
1558438796712724,-1,0,1,-3,4,-7,-2,0
1558438796727986,-1,-2,1,-3,-3,1,-3,-2
1558438796727986,-3,-4,-8,-12,-16,-8,-8,-6
1558438796734664,0,1,-1,5,6,2,1,-1
1558438796734664,1,1,-1,2,13,12,6,2
1558438796750622,0,-2,5,0,-3,2,0,-2
1558438796750622,-3,-5,-5,0,-6,-3,-5,-5
1558438796756607,-1,-1,3,-1,-8,-9,0,1
1558438796756607,2,2,-4,-4,6,0,3,1
1558438796772563,-1,-2,-7,-6,-6,-2,-1,-3
1558438796772563,0,0,1,3,7,-6,-4,0
1558438796773564,0,-2,1,1,-7,-1,-2,-2
1558438796773564,-4,-2,1,-2,-8,0,-5,-5
1558438796788522,2,1,-1,3,3,-1,5,2
1558438796788522,0,-1,0,-1,-3,-6,-5,-1
1558438796794504,1,0,2,4,14,10,8,2
1558438796794504,0,-1,-3,-8,-7,-1,-3,-1
1558438796810468,-3,-3,-1,-2,-9,-7,-11,-5
1558438796810468,0,1,5,2,6,10,2,0
1558438796816446,-2,-2,0,-6,0,-11,-8,-2
1558438796816446,-3,-2,-4,3,-2,4,1,-1
1558438796831442,-2,0,-2,-2,-8,-5,-1,1
1558438796831442,0,-3,-4,-11,1,-7,-1,2
1558438796839386,-1,1,-1,6,-4,-3,-8,-5
1558438796839386,-2,-1,-1,-5,-1,-12,-3,-3
1558438796848361,2,1,6,6,1,-1,-1,0
1558438796848361,-2,-4,-10,-4,0,4,2,0
1558438796854345,-1,-1,-5,-2,-5,1,-3,-1
1558438796854345,-2,-1,-2,-5,-6,-7,-6,-1
1558438796870367,-1,-3,-3,-5,-5,0,0,-2
1558438796870367,0,-1,6,9,7,9,6,0
1558438796877283,0,-3,-2,-5,6,-1,4,2
1558438796877283,0,-1,-3,2,-2,0,-3,-3
1558438796891245,0,0,4,2,4,4,5,2
1558438796891245,0,0,-3,-6,-8,-5,-4,-3
1558438796899224,0,0,5,8,4,-3,-2,1
1558438796899224,0,-2,-1,-4,0,12,5,1
1558438796915183,0,-2,-4,-1,3,-2,-4,-2
1558438796915183,0,1,0,6,7,4,4,1
1558438796915183,-1,-2,-2,-5,-1,2,-2,1
1558438796915183,-2,-2,2,-2,-8,-10,-5,-3
1558438796931138,-1,0,1,3,3,2,-2,-2
1558438796931138,-4,-3,-7,-14,-4,-4,0,0
1558438796937128,0,-1,-3,-1,-5,-16,-5,-2
1558438796937128,-1,-1,2,3,5,11,4,-2
1558438796952084,-1,-1,-3,-4,-4,-4,0,-2
1558438796952084,0,1,3,7,4,5,5,1
1558438796959064,-3,-3,-3,-6,-8,-4,-8,-4
1558438796959064,0,1,0,1,12,8,8,3
1558438796975021,0,0,4,10,3,-1,-1,0
1558438796975021,-3,-2,-1,-5,-11,-11,-5,-1
1558438796976019,1,-4,-1,0,7,19,6,1
1558438796976019,-4,-5,-13,-9,-1,-2,-1,-2
1558438796990978,2,-1,-7,-8,1,-1,1,0
1558438796990978,-3,-2,-3,-2,-12,-9,-11,-5
1558438796996963,1,2,3,3,1,3,2,2
1558438796996963,-1,-1,-2,2,2,0,0,1
1558438797011923,0,-1,-1,-4,-2,-7,-3,-1
1558438797011923,-2,-1,3,5,-1,-3,-1,-3
1558438797018906,-2,-1,-2,-11,-10,-5,-1,-4
1558438797018906,2,0,6,9,1,5,1,-1
1558438797034861,-1,-1,-2,4,5,5,2,0
1558438797034861,-2,-1,-7,-8,-5,-8,-6,-1
1558438797035858,-2,-2,1,4,-4,-1,-1,0
1558438797035858,-5,-3,-5,-12,-7,-6,-4,-2
1558438797050823,1,2,7,10,6,-4,2,0
1558438797050823,2,2,0,3,8,3,1,-2
1558438797056806,-1,-2,-4,0,-6,-1,0,0
1558438797056806,2,1,0,-5,6,6,1,0
1558438797071768,0,-2,7,4,-4,4,-3,-3
1558438797071768,0,1,-4,0,6,2,1,4
1558438797079777,-2,-5,-7,-17,-13,-8,-1,-3
1558438797079777,-2,-1,3,0,-15,-16,-7,-4
1558438797094704,-3,-2,-13,-5,8,2,-3,1
1558438797094704,1,-2,5,3,1,4,1,-1
1558438797095699,0,3,-3,9,7,-2,-1,0
1558438797095699,-2,-1,1,-4,1,8,1,0
1558438797110658,-2,-3,-2,-8,-12,-14,-8,-5
1558438797110658,0,0,2,8,6,12,7,1
1558438797116647,2,2,1,-3,15,17,9,2
1558438797116647,-4,-3,3,4,-3,-10,-5,-3
1558438797131608,-3,-2,-14,-11,-14,-7,-4,-1
1558438797131608,2,-2,5,1,1,-3,-3,-1
1558438797139583,-2,-2,1,-1,-8,-9,-5,-4
1558438797139583,1,-1,-3,0,-6,-3,-4,-5
1558438797154544,3,5,8,7,10,3,6,4
1558438797154544,-1,-2,-6,-8,-7,-1,1,-2
1558438797155540,-2,-3,-1,-7,-5,-4,-3,-2
1558438797155540,0,1,1,1,0,2,-5,-3
1558438797170498,-2,-2,5,11,-1,3,-1,-3
1558438797170498,0,1,1,-16,0,-10,-1,0
1558438797176482,-1,3,3,6,-3,-3,-5,1
1558438797176482,0,-3,-10,-14,-3,-9,-1,-1
1558438797191448,-1,-2,-4,-3,3,6,7,1
1558438797191448,-1,0,5,14,6,9,2,-2
1558438797199422,-2,-2,-17,-27,-10,-9,-4,-4
1558438797199422,-3,-2,-3,-5,-16,-10,-5,-2
1558438797215379,2,1,7,3,-2,-21,-3,1
1558438797215379,-2,-4,-18,-17,-12,-9,-6,-2
1558438797215379,3,2,8,17,16,13,3,1
1558438797215379,-1,-2,3,9,3,2,-1,-1
1558438797230338,-4,-4,-9,-16,-17,-3,-4,-5
1558438797230338,0,2,9,10,7,-3,-1,-2
1558438797236323,0,-1,-11,-5,5,-4,2,3
1558438797236323,0,-2,8,0,2,3,2,0
1558438797251282,-1,-1,-2,-5,-5,0,-3,-2
1558438797251282,-1,-3,-12,-14,-9,-7,-6,-4
1558438797259262,-1,0,6,0,-3,2,-2,-2
1558438797259262,1,2,0,7,4,2,3,1
1558438797275218,-4,-3,1,2,4,1,-4,0
1558438797275218,-1,0,-2,-5,-9,-6,-1,0
1558438797282201,-2,-4,2,4,-1,2,0,-4
1558438797282201,1,-1,-4,-11,-8,-7,-6,-2
1558438797291176,2,2,0,6,10,7,7,3
1558438797291176,-1,-2,-9,-8,3,-2,4,4
1558438797297159,0,3,9,10,12,9,4,2
1558438797297159,0,-1,0,4,-3,-6,-2,-2
1558438797312119,-2,-1,1,3,-6,7,-4,-4
1558438797312119,-4,-2,1,-9,-6,-2,-5,-4
1558438797319102,0,0,-1,0,-5,-14,-4,-2
1558438797319102,0,1,-5,4,9,7,1,3
1558438797335059,0,-3,-2,-9,-2,6,1,0
1558438797335059,-3,-2,11,23,3,-8,-3,-2
1558438797336056,-1,-3,-8,-12,-9,0,-6,-5
1558438797336056,0,-1,-10,-8,5,4,3,1
1558438797351016,-3,-1,3,-3,2,-5,-5,-3
1558438797351016,-1,-1,3,8,-4,2,0,2
1558438797364978,0,-2,1,5,5,13,3,-1
1558438797364978,-2,-2,1,10,-4,-9,-5,-3
1558438797371965,-2,1,-8,-15,-9,1,-3,-2
1558438797371965,1,1,8,5,0,-6,-3,-2
1558438797378941,0,0,-1,7,7,-2,9,4
1558438797378941,1,1,1,1,1,7,1,2
1558438797394922,-2,-1,-1,4,-3,-6,-1,-3
1558438797394922,0,-2,-7,-3,0,10,-1,-2
1558438797395900,1,-2,6,-3,-7,-9,-5,-1
1558438797395900,-4,-5,-11,-6,-7,-2,0,-4
1558438797410857,3,1,1,-3,4,2,2,1
1558438797410857,0,1,-3,-3,-4,1,-1,-2
1558438797416849,-2,-3,-6,-10,-7,-3,-4,-4
1558438797416849,1,3,11,15,12,2,7,1
1558438797431864,0,0,2,-10,-3,2,-2,0
1558438797431864,0,-1,-11,-3,-6,0,-1,-1
