timestamp,emg1,emg2,emg3,emg4,emg5,emg6,emg7,emg8
1558438717599756,5,4,7,19,21,8,15,11
1558438717599756,0,0,3,10,10,4,4,2
1558438717600754,0,-3,-5,-13,-5,0,-2,-1
1558438717600754,-1,1,5,8,0,-3,-6,-6
1558438717601752,-7,-5,-25,-18,-32,-14,-15,-6
1558438717601752,-1,-1,1,-8,7,8,6,0
1558438717601752,0,2,4,3,3,2,2,0
1558438717601752,0,0,3,19,12,4,8,4
1558438717608731,0,-1,4,-8,-2,2,-1,-3
1558438717608731,1,0,-5,-12,-5,3,0,-2
1558438717621697,-1,-1,-3,6,-4,-7,-6,-1
1558438717621697,-5,-5,-1,-1,-3,-4,-5,-4
1558438717626683,0,1,2,-4,6,1,1,0
1558438717626683,0,1,1,4,-8,-8,-6,-4
1558438717642641,0,0,-2,-3,-5,-3,-4,1
1558438717642641,-1,0,-5,-6,12,13,10,6
1558438717650620,2,0,3,-1,2,-6,-3,1
1558438717650620,-2,-3,2,9,-6,-6,-7,-2
1558438717657601,-2,-2,4,5,2,-3,0,-2
1558438717657601,0,-3,-12,-29,-18,-8,-8,-6
1558438717672560,-2,-2,2,10,3,7,1,-4
1558438717672560,-2,-3,-4,-7,-12,-8,-11,-3
1558438717680539,0,-1,-7,-3,-5,-12,-1,-2
1558438717680539,2,0,3,6,13,5,14,8
1558438717719435,-4,-1,1,6,-1,-3,-2,0
1558438717719435,-1,0,3,-5,3,5,-1,-3
1558438717720432,1,-1,-3,-5,0,2,-3,-4
1558438717720432,-3,0,-3,7,-4,-2,-2,-1
1558438717721431,-1,0,-3,-8,-4,-2,0,-1
1558438717721431,-2,-2,-6,-9,-9,-9,-7,-6
1558438717721431,2,1,9,27,10,5,7,2
1558438717721431,-2,-1,-7,-21,-9,-1,0,0
1558438717732408,0,-2,2,-5,0,-6,-2,0
1558438717732408,0,1,4,10,3,-2,-4,2
1558438717740379,-3,0,-12,-10,-8,-4,-4,-1
1558438717740379,-1,-2,3,-1,4,5,-2,-1
1558438717747360,1,0,0,2,-5,-5,0,-1
1558438717747360,0,-3,-1,0,-5,-4,-1,-2
1558438717762320,-2,-2,-1,-3,-5,-9,-11,-6
1558438717762320,-1,-2,-3,-5,-8,-4,-2,-2
1558438717769302,1,3,-2,1,8,-8,3,3
1558438717769302,-2,-1,-5,-15,0,-1,1,-1
1558438717777281,-2,-4,-3,-11,1,5,4,1
1558438717777281,-2,-2,-3,6,-6,-4,-6,-6
1558438717792239,-2,-2,2,0,-5,4,-4,-4
1558438717792239,-3,-1,-3,3,1,2,2,-1
1558438717800219,-2,-1,0,-4,-6,-9,-4,-2
1558438717800219,0,0,1,1,-1,-2,-4,-1
1558438717807201,1,-1,6,9,10,7,4,0
1558438717807201,5,4,1,0,4,-1,7,6
1558438717822161,0,-2,-3,-11,-16,-9,-5,-2
1558438717822161,-2,0,7,14,12,3,9,4
1558438717829141,0,0,-10,-11,-2,10,-1,-2
1558438717829141,-3,-2,1,6,3,7,-1,-2
1558438717837119,-2,-1,0,2,2,-3,1,0
1558438717837119,-2,-2,-2,-8,-7,-11,-8,-3
1558438717852079,-2,-3,-2,0,-9,-12,-9,-4
1558438717852079,-2,0,1,2,-7,-14,-8,-3
1558438717860059,3,2,6,4,11,14,14,5
1558438717860059,1,-1,-7,-2,5,10,0,-2
1558438717867040,-3,1,2,9,10,11,3,1
1558438717867040,-1,-1,-2,-14,-14,-1,0,-1
1558438717882998,-4,-1,3,7,-3,-5,-7,-4
1558438717882998,1,1,0,1,-1,-6,2,-1
1558438717888983,-3,-4,-2,-7,-7,-3,-6,-2
1558438717888983,-2,-1,-3,4,2,1,-1,-2
1558438717896960,-2,-3,-2,-1,-1,-1,-2,-3
1558438717896960,0,1,1,2,5,18,11,3
1558438717911925,1,-1,-1,2,10,-7,1,1
1558438717911925,-2,-3,-1,-1,1,-4,-1,1
1558438717919905,-3,-1,-2,-3,-2,-2,-3,-3
1558438717919905,-1,-1,-8,-6,-7,-3,-1,-1
1558438717926888,-2,-2,-1,2,1,5,-3,-2
1558438717926888,-2,-2,-6,-5,-5,3,0,-2
1558438717942842,-1,-2,-3,-2,-3,1,-1,0
1558438717942842,-2,-5,-1,-3,-12,-13,-12,-6
1558438717949821,-1,1,2,-1,4,5,7,2
1558438717949821,1,0,5,9,7,-3,5,3
1558438717956806,0,0,4,-1,1,2,1,1
1558438717956806,-2,-2,-4,-7,-1,1,-1,-1
1558438717971766,-2,-3,-10,-6,-16,-9,-7,-5
1558438717971766,-1,0,5,9,6,5,0,-1
1558438717979746,0,-1,-4,-9,-3,-9,-5,-1
1558438717979746,-4,-2,3,5,-2,-7,-5,-2
1558438717986845,-1,0,-4,-6,-5,4,0,-2
1558438717986845,1,4,3,2,5,-5,3,2
1558438718002678,0,-1,-6,1,6,3,2,1
1558438718002678,1,1,4,-1,-6,-4,4,1
1558438718009663,-2,-1,3,0,4,-1,-3,-1
1558438718009663,-5,-5,-7,-3,-9,5,-5,-4
1558438718016646,1,0,1,1,4,-5,-1,-1
1558438718016646,-1,2,-1,-4,-2,-8,-4,-1
1558438718031642,0,2,1,-1,0,5,6,1
1558438718031642,-3,-5,-3,-5,-4,-1,-5,-2
1558438718040577,0,-3,-1,-1,-6,-9,-6,1
1558438718040577,-1,-4,-3,-5,-2,-3,-4,-1
1558438718047818,2,1,4,7,-1,0,-2,0
1558438718047818,2,1,6,0,1,-2,1,-1
1558438718063527,-5,-4,-16,-19,-1,4,2,-1
1558438718063527,-5,-3,2,6,-4,-2,-3,-1
1558438718069504,-1,0,-3,-6,-3,-5,-3,-1
1558438718069504,0,-1,-1,-2,-6,-4,-4,0
1558438718076483,1,0,8,6,-2,9,3,-1
1558438718076483,1,2,1,7,12,4,5,2
1558438718092440,-1,-4,0,3,3,-5,-3,1
1558438718092440,0,-3,-15,-18,-3,3,2,2
1558438718100417,-1,2,2,3,-2,-5,-4,-2
1558438718100417,1,2,-1,1,4,3,2,1
1558438718107401,-1,-1,8,5,-1,-1,0,0
1558438718107401,-2,-3,-5,-5,-7,-5,-7,-4
1558438718122358,-3,-2,-1,3,-3,3,-2,-2
1558438718122358,2,3,3,2,13,7,7,3
1558438718129339,-1,-1,-1,-4,-1,1,2,0
1558438718129339,-3,1,3,4,-3,-11,-1,0
1558438718146294,0,-1,-3,-1,-1,2,-3,-3
1558438718146294,-2,-1,0,-2,-4,-1,-9,-6
1558438718152277,-2,-2,-3,-1,-11,-12,-11,-5
1558438718152277,0,2,0,1,7,15,8,2
1558438718161254,-2,-2,-4,-1,5,-5,1,2
1558438718161254,1,1,3,1,3,-2,6,4
1558438718167238,-1,-2,-7,-6,-4,1,-3,-1
1558438718167238,0,-2,0,1,-6,-3,-6,-4
1558438718183197,1,1,0,5,-5,-7,-4,-1
1558438718183197,-1,-3,-1,-3,-1,-2,-5,-3
1558438718189178,-2,-2,-5,-4,-4,-7,-8,-5
1558438718189178,-1,-4,1,-6,-15,-13,-2,-2
1558438718206133,6,4,6,13,33,19,17,9
1558438718206133,-3,-2,-4,-10,-10,-5,-4,-3
1558438718212119,0,-1,0,-1,0,1,4,-1
1558438718212119,-2,-3,-8,-1,-4,-9,-8,-5
1558438718221093,-1,-3,-1,-7,-11,-10,-9,-3
1558438718221093,-2,-2,-1,3,-2,1,2,-1
1558438718227078,-1,-1,-5,-7,1,1,0,0
1558438718227078,-2,0,1,-2,2,11,3,1
1558438718243035,-2,0,1,-2,-5,2,0,-1
1558438718243035,4,1,4,4,10,-16,6,6
1558438718256997,-2,-4,-8,-4,-8,1,-2,-1
1558438718256997,0,-1,1,4,2,4,2,0
1558438718265973,-3,0,-2,-1,-4,6,-2,-2
1558438718265973,-4,-1,-1,-2,-8,-6,-9,-3
1558438718271957,-1,1,1,-2,7,9,8,3
1558438718271957,1,2,0,1,2,-3,0,-1
1558438718280934,-2,-5,-1,-3,-13,-12,-10,-8
1558438718280934,0,0,-2,0,-11,-2,-10,-5
1558438718286919,1,-1,-2,-2,9,1,11,5
1558438718286919,4,1,6,5,16,7,9,7
1558438718302876,-4,-1,-4,-3,-2,-2,-1,0
1558438718302876,-2,-2,-2,-3,-4,1,-2,-4
1558438718309858,-2,1,1,3,-12,-7,-8,-7
1558438718309858,-2,-1,1,0,-1,-5,-9,-6
1558438718325814,1,-1,-2,6,2,-5,1,1
1558438718325814,-3,-4,-3,-10,-12,-4,1,-2
1558438718331802,-4,-4,-9,-8,-2,-1,6,1
1558438718331802,-1,-1,-4,-2,7,4,5,3
1558438718340774,-1,1,1,-1,-4,-6,-5,-1
1558438718340774,-2,-1,-2,1,4,3,-8,-3
1558438718346757,-2,-1,1,4,-2,4,0,1
1558438718346757,-2,-1,-1,-3,1,8,5,1
1558438718363713,-1,-1,1,-3,0,3,-1,-2
1558438718363713,-2,-1,3,3,-1,-1,1,0
1558438718369695,-2,-1,-2,-6,-3,-1,-4,-4
1558438718369695,-3,-2,-3,0,1,-1,-2,0
1558438718385652,-2,0,2,6,-1,2,2,-2
1558438718385652,4,1,3,1,10,4,10,6
1558438718391637,1,-2,9,2,2,-2,-4,1
1558438718391637,-1,-1,-7,-2,-6,-3,-7,-2
1558438718400613,-1,-2,-1,3,-5,-4,-1,-3
1558438718400613,-3,-2,-8,-16,-2,2,-5,-3
1558438718414575,-2,-3,1,2,-17,-13,-12,-7
1558438718414575,1,2,5,4,10,-4,3,2
1558438718423552,3,3,3,-1,6,4,6,5
1558438718423552,1,-1,-3,4,1,-7,-4,-3
1558438718429536,-3,-2,-4,-7,-4,-2,-3,-2
1558438718429536,-1,2,0,1,10,18,7,3
1558438718445494,-3,-1,-4,-7,-1,-3,1,-1
1558438718445494,-1,1,3,9,7,3,2,2
1558438718451477,-1,1,-4,-4,-8,-3,-5,-4
1558438718451477,-1,-2,0,-2,-8,-6,-3,-5
1558438718460453,0,0,0,-3,1,0,0,-1
1558438718460453,1,-1,0,1,7,4,2,1
1558438718474415,2,-2,5,5,-3,-3,2,1
1558438718474415,0,2,5,5,0,-7,-6,0
1558438718483392,-3,-5,-16,-16,-13,-6,-5,-5
1558438718483392,-4,-4,-5,-7,-9,3,1,-2
1558438718489376,2,2,6,7,18,5,7,3
1558438718489376,0,1,1,0,-7,-3,-2,-2
1558438718506330,-2,0,1,2,2,-5,0,-1
1558438718506330,-1,2,1,10,7,10,5,1
1558438718512315,1,3,6,-6,-2,-7,0,1
1558438718512315,-4,-7,-15,-11,-8,-10,-7,-3
1558438718521290,-4,-1,3,4,2,-2,2,0
1558438718521290,0,1,-7,-7,4,14,8,4
1558438718534256,-2,-1,0,5,3,3,0,1
1558438718534256,-1,-4,-2,0,-2,-2,-3,-5
1558438718543234,-1,-1,-3,-5,-8,0,-3,-3
1558438718543234,-1,-1,2,-4,-8,-12,-3,-2
1558438718557195,-3,-4,-4,4,8,10,1,0
1558438718557195,-2,0,-1,-6,-10,-8,-10,-5
1558438718566172,-2,-2,-8,-6,-10,-7,-8,-2
1558438718566172,1,0,1,4,7,-1,1,2
1558438718572154,0,1,2,-4,0,-8,-1,0
1558438718572154,-1,-1,-1,-2,-4,3,-3,-3
1558438718581131,2,1,3,5,5,-1,3,0
1558438718581131,-1,1,-3,1,-3,-4,-5,-3
1558438718594095,-2,-2,-4,-9,0,5,3,-1
1558438718594095,-2,0,4,4,4,-5,3,0
1558438718603072,1,1,7,6,8,10,6,4
1558438718603072,-2,-3,-6,-10,-3,-2,-6,-3
1558438718609056,-5,-6,-1,7,-10,-4,-3,-5
1558438718609056,2,0,-2,-15,-5,-1,2,0
1558438718626011,0,-1,-9,-11,-5,-1,-3,-3
1558438718626011,-1,-3,8,6,1,-9,-6,-3
1558438718631995,1,0,-6,-11,-6,3,-1,0
1558438718631995,1,2,3,7,4,-2,1,5
1558438718640971,-1,-2,2,-3,-3,-11,-9,-2
1558438718640971,-3,-2,-7,0,-4,4,2,-3
1558438718653936,-2,-1,-3,-3,0,-1,-5,-3
1558438718653936,-2,0,4,5,8,10,2,-2
1558438718662912,-2,0,0,2,0,2,0,1
1558438718662912,-3,0,-1,-8,-11,-8,-3,-2
1558438718669894,1,-2,-5,-10,-6,-9,0,0
1558438718669894,-1,-1,-2,0,0,0,-2,-2
1558438718685851,1,-1,2,6,10,8,2,2
1558438718685851,-3,-2,0,-3,-7,-5,1,0
1558438718691834,-1,0,2,11,4,3,-1,-1
1558438718691834,-3,-2,-7,-7,-8,-10,-5,0
1558438718706809,1,-1,9,19,10,12,6,1
1558438718706809,-1,-3,-8,-17,-4,-1,-2,-1
1558438718714774,0,1,0,6,0,-2,-1,-2
1558438718714774,-2,-2,1,5,-12,-8,-5,-1
1558438718729733,-3,1,1,-5,0,0,-4,-1
1558438718729733,1,0,-6,1,2,-1,3,0
1558438718730730,0,-3,-7,-4,-3,-5,-3,-1
1558438718730730,2,-1,-2,-6,3,1,4,1
1558438718745690,-2,-2,-5,2,-6,-7,-3,-2
1558438718745690,0,-1,8,3,1,8,1,1
1558438718751674,-2,-1,0,6,-4,-7,-6,-1
1558438718751674,-1,1,-6,-6,-4,-5,-2,-3
1558438718766634,-3,-2,2,-13,-6,0,1,0
1558438718766634,0,-2,3,7,2,-5,-7,-3
1558438718774624,-2,-2,-3,-5,-6,-6,-5,-3
1558438718774624,4,2,4,5,16,16,20,9
1558438718789573,-1,-2,-4,0,1,-6,-3,-3
1558438718789573,-3,-4,-3,-3,-10,-9,-7,-4
1558438718790569,0,2,5,3,9,6,3,1
1558438718790569,-5,-4,-6,-1,-16,0,-8,-5
1558438718805529,0,0,-3,0,7,-3,3,1
1558438718805529,0,-1,-1,-1,2,2,3,-2
1558438718811513,-1,0,-1,-1,-3,0,0,-4
1558438718811513,-5,-6,-2,-8,-4,4,-6,-4
1558438718826473,-1,-1,0,3,0,-1,-4,-2
1558438718826473,3,2,1,-4,0,1,4,3
1558438718834453,2,-1,-4,-4,2,4,-1,0
1558438718834453,-4,-2,1,3,-1,-6,-3,-1
1558438718850410,-1,-1,1,0,2,5,-3,-1
1558438718850410,-2,-3,-2,-2,-6,-7,-6,-4
1558438718850410,-2,-1,0,2,-3,-3,2,-3
1558438718850410,1,1,2,3,13,9,2,-2
1558438718865370,-2,-3,-5,-11,-13,-4,-2,-4
1558438718865370,1,3,4,11,0,-6,2,2
1558438718872350,-1,1,-1,-1,2,8,-1,2
1558438718872350,1,-1,2,3,-9,-10,-4,-3
1558438718887310,0,-1,-3,7,10,-3,0,1
1558438718887310,-2,-2,-9,-21,3,12,4,1
1558438718894292,-4,-4,-3,-2,-5,-3,-1,-2
1558438718894292,1,3,5,3,-4,-11,-6,0
1558438718910249,-2,0,0,-1,-4,5,2,-1
1558438718910249,0,-2,-6,-1,-3,1,-8,-4
1558438718911246,-3,-3,0,0,4,-2,-2,-1
1558438718911246,-3,-5,-4,-5,-11,-9,-5,-4
1558438718926207,0,-1,-3,-1,-1,0,3,2
1558438718926207,0,2,0,0,-1,7,5,2
1558438718932193,-1,-1,-5,-3,5,6,3,1
1558438718932193,0,-1,1,-2,6,-1,2,0
1558438718947150,-1,-1,-2,-6,-9,-8,-6,-5
1558438718947150,-5,-1,2,2,-3,-5,-8,-6
1558438718954133,3,-1,-11,-12,-12,2,0,-1
1558438718954133,-3,-1,-1,2,8,2,5,3
1558438718970090,0,-1,2,0,-2,0,0,-1
1558438718970090,-1,0,0,3,1,0,0,-2
1558438718971089,-1,0,2,-3,-4,-8,-7,-4
1558438718971089,1,-2,-12,-9,-7,-8,-1,-3
1558438718986047,-2,-1,0,5,3,-1,0,0
1558438718986047,-4,-1,1,7,-1,0,-3,-2
1558438718992031,-2,0,3,-11,1,2,-2,0
1558438718992031,-2,0,-2,-3,4,5,1,0
1558438719006990,-3,-3,-1,1,-9,0,-4,-4
1558438719006990,-1,-3,-9,-9,-12,-7,2,-1
1558438719013972,-2,-2,2,6,4,-7,-5,-2
1558438719013972,0,2,3,3,8,4,2,4
1558438719029928,0,-1,-1,-7,3,1,2,-1
1558438719029928,-1,-2,-5,0,0,1,-2,-3
1558438719030926,0,0,-4,-3,-2,1,6,1
1558438719030926,-4,-4,-3,0,-15,-16,-9,-4
1558438719045886,1,1,1,-7,1,0,0,0
1558438719045886,1,-1,4,4,13,8,5,1
1558438719051872,-1,-2,1,10,2,-4,-5,-2
1558438719051872,-1,-2,-4,-4,1,8,1,-1
1558438719066830,0,-1,-3,-3,-5,-5,2,1
1558438719066830,-1,-1,0,-2,-2,-7,-3,-1
1558438719074808,-1,1,-1,-2,-1,-1,-2,0
1558438719074808,-1,2,2,2,7,10,-1,-3
1558438719089770,-3,-1,3,2,-4,0,-5,0
1558438719089770,0,-3,0,2,-3,-7,-4,-1
1558438719090769,0,0,2,3,5,-1,8,2
1558438719090769,1,-3,-2,-1,-7,-8,-5,-1
1558438719105726,-2,-3,-7,-6,-3,5,2,0
1558438719105726,1,-3,-6,0,12,12,2,0
1558438719111711,0,-4,-4,-4,-8,3,-2,-3
1558438719111711,-1,1,6,6,1,-4,-3,-3
1558438719126671,-3,-1,-1,-2,-4,-8,-3,-3
1558438719126671,0,4,3,6,-1,-1,1,2
1558438719134650,-2,0,-5,-10,-5,-1,1,1
1558438719134650,1,-1,1,1,8,-3,-4,1
1558438719150606,-2,0,-1,-3,-2,2,-1,-1
1558438719150606,-2,-2,5,3,-3,-6,-3,-1
1558438719150606,-1,2,3,8,3,4,6,2
1558438719150606,-2,-1,-3,-15,-11,-2,-2,-6
1558438719165566,1,0,-3,-5,-3,-5,-1,0
1558438719165566,4,4,7,6,11,-3,7,4
1558438719171551,1,-2,-3,-1,3,0,-5,-2
1558438719171551,-3,-1,2,2,-11,-3,-6,-1
1558438719186511,-1,2,2,7,2,-2,-8,-3
1558438719186511,-2,-3,-9,-10,2,1,1,1
1558438719194489,-2,-3,3,2,-9,-8,-1,-2
1558438719194489,3,0,1,0,4,2,3,1
1558438719210447,-2,-2,-2,1,0,1,-5,-1
1558438719210447,-3,-2,0,-3,-6,-3,-3,-3
1558438719210447,-3,-4,0,-2,1,2,0,-2
1558438719210447,1,1,-1,3,-1,-4,-3,-2
1558438719225406,0,1,2,-1,-2,-8,3,0
1558438719225406,2,1,1,-2,0,-1,2,-1
1558438719232389,0,1,1,7,2,3,-2,-1
1558438719232389,-3,-5,-10,-12,-3,7,2,0
1558438719247348,-2,-1,3,2,-3,-2,-5,-2
1558438719247348,-1,-2,-13,-15,-16,-5,-2,-2
1558438719254328,0,2,6,8,9,-1,2,-2
1558438719254328,0,-1,-2,0,1,4,2,1
1558438719270285,1,0,-5,-6,-4,0,1,-2
1558438719270285,-3,-3,-1,6,1,3,-4,-1
1558438719270285,-2,-3,0,1,0,0,-4,-3
1558438719270285,-3,0,0,3,2,0,1,-1
1558438719286271,1,0,-1,1,4,-2,2,1
1558438719286271,-1,0,1,2,3,6,1,0
1558438719292254,0,0,0,-5,-9,-2,-6,-4
1558438719292254,-1,-3,0,-7,5,-2,0,0
1558438719307187,-4,-4,-5,3,-3,-8,-4,1
1558438719307187,-1,0,1,-5,-4,4,-5,-1
1558438719314170,-1,0,-1,-4,-6,-4,-2,-1
1558438719314170,1,2,-1,3,2,7,4,1
1558438719329496,-3,-4,0,-4,-1,3,-2,-1
1558438719329496,-1,0,0,-2,-6,-8,-2,-4
1558438719337390,-1,-1,-2,0,-1,-7,1,2
1558438719337390,0,1,5,9,5,3,-3,-2
1558438719346105,-2,-3,-6,-12,-9,-2,-5,-4
1558438719346105,0,0,1,2,1,-3,7,2
1558438719352419,0,0,-1,-4,7,4,4,2
1558438719352419,-2,-1,1,2,-5,-8,-5,0
1558438719367029,3,-1,-6,-12,-3,-1,-1,-1
1558438719367029,-5,-2,5,10,-2,-8,-10,-5
1558438719374009,0,-1,-1,-3,5,11,6,2
1558438719374009,1,-1,-4,2,6,-1,2,1
1558438719388970,-1,1,2,3,-5,-3,-3,-5
1558438719388970,-1,1,-5,-13,-9,4,2,0
1558438719397415,0,-1,-3,6,4,2,-1,-1
1558438719397415,-2,-5,-4,-3,-5,-3,-3,-4
1558438719405924,0,-2,-5,-13,-4,-3,3,0
1558438719405924,-1,-3,2,-1,6,-5,-3,1
1558438719412247,1,0,-1,3,-2,-4,1,0
1558438719412247,0,-1,1,3,-5,0,-3,1
1558438719426913,0,-2,0,-1,3,0,-3,1
1558438719426913,-3,-3,-3,1,-5,-5,-3,-3
1558438719433850,-3,-1,0,2,-1,-5,-4,-3
1558438719433850,-4,-2,-6,-8,-7,-1,2,-2
1558438719449808,2,4,5,8,14,4,5,1
1558438719449808,1,0,4,4,4,3,-1,2
1558438719456787,0,-3,-10,-14,-6,-3,0,-1
1558438719456787,1,3,6,1,4,-3,1,0
1558438719465763,-5,-3,-4,-1,-5,-1,-3,-3
1558438719465763,-5,-2,-6,3,-6,-8,-3,-2
1558438719471746,-1,-1,-3,1,5,5,-2,-1
1558438719471746,-1,-1,1,-3,-7,-7,-3,-1
1558438719486708,0,1,3,6,4,4,2,0
1558438719486708,0,-1,-2,-11,-6,0,3,-2
1558438719494685,-1,-2,2,14,1,0,-4,-3
1558438719494685,-1,1,-1,-11,2,3,5,4
1558438719509657,-1,-1,4,4,0,-3,0,0
1558438719509657,-1,-3,-5,-2,8,5,0,-2
1558438719516629,1,-1,-6,-5,-7,0,-3,-2
1558438719516629,-2,-2,4,8,0,-9,-1,-3
1558438719532584,-4,-2,-5,-4,-4,0,-3,-2
1558438719532584,0,2,2,0,-2,-4,0,-2
1558438719533582,-2,1,0,-7,-9,-11,-4,-1
1558438719533582,0,1,4,6,5,9,4,1
1558438719546605,-1,-1,-3,-7,3,-5,0,2
1558438719546605,-2,-1,0,4,3,7,-4,-3
1558438719554528,-1,-1,2,2,-3,-6,-3,0
1558438719554528,-3,-4,-5,-5,-3,3,2,0
1558438719569487,2,-2,-1,1,2,3,2,1
1558438719569487,1,2,6,5,0,-3,-7,0
1558438719576468,-1,0,-2,-9,1,2,0,-1
1558438719576468,-3,-3,-12,-12,-11,-7,-12,-8
1558438719592426,-4,-2,1,2,-2,6,1,-2
1558438719592426,-2,-3,-6,-3,0,-8,-2,0
1558438719593423,0,0,2,-3,-4,-9,-1,0
1558438719593423,1,1,3,7,8,8,7,3
1558438719606388,-1,0,1,5,0,-4,-6,-2
1558438719606388,1,0,-1,-15,-3,-2,-3,-2
1558438719614368,0,-1,2,2,-3,-1,0,-4
1558438719614368,-4,-5,-9,-5,-14,-14,-8,-5
1558438719629366,-1,-2,-2,-2,7,7,0,-1
1558438719629366,2,1,6,6,21,16,12,6
1558438719637304,0,-1,1,0,0,-3,-2,-1
1558438719637304,1,1,-3,-6,-4,-1,-2,-3
1558438719652300,0,2,-2,3,-5,-6,-4,-4
1558438719652300,-1,-1,-6,3,-9,-5,-5,-5
1558438719653261,-3,-2,-2,-11,-9,-3,-2,-1
1558438719653261,1,0,5,1,8,9,3,1
1558438719667251,0,0,4,4,11,6,8,3
1558438719667251,-1,-1,-2,-1,-7,-3,-3,0
1558438719674206,1,1,1,2,10,1,6,2
1558438719674206,-3,-3,-3,-2,-9,-15,-8,-3
1558438719689165,0,0,4,4,-4,1,-1,-1
1558438719689165,0,-2,-2,-5,1,5,0,-3
1558438719697143,-3,-2,-8,-16,-13,-7,-8,-6
1558438719697143,0,1,2,7,3,7,0,-2
1558438719712105,-1,-3,-8,-16,-3,-1,4,2
1558438719712105,-2,0,-1,4,2,-6,-1,0
1558438719713101,-2,-2,0,2,-2,0,1,0
1558438719713101,1,3,4,4,8,-1,5,2
1558438719728063,-1,0,2,2,-8,-10,-5,-4
1558438719728063,-2,-4,-6,-13,-8,2,0,-3
1558438719735344,-1,0,5,9,5,3,-2,0
1558438719735344,-3,-3,-7,-7,-5,-1,-3,-2
1558438719749008,0,-2,-2,-4,-3,-3,-3,1
1558438719749008,-2,1,0,1,-7,-9,-3,-1
1558438719757027,-1,-1,0,3,9,9,4,1
1558438719757027,-2,-1,-1,0,4,6,3,-1
1558438719772955,0,-1,-2,3,-4,-2,-5,-2
1558438719772955,0,1,2,-2,2,-1,1,0
1558438719772955,-3,-4,-6,-3,0,4,1,0
1558438719772955,-1,-3,-2,0,-6,-9,-6,-1
1558438719787903,-2,0,-1,-3,-3,1,-2,-1
1558438719787903,-1,-2,3,2,-4,-2,-5,-4
1558438719793913,-4,-2,-2,-4,-6,-5,-5,-6
1558438719793913,3,2,5,4,8,1,13,9
1558438719809842,1,2,5,4,6,-4,0,-1
1558438719809842,-5,-5,-13,-13,-12,-5,-5,-2
1558438719816835,-2,0,0,-1,7,12,4,1
1558438719816835,-3,-4,-7,-13,-8,-2,-9,-5
1558438719832782,1,0,0,-7,-9,-8,-3,-1
1558438719832782,3,-1,-4,4,1,-3,-2,0
1558438719833779,-1,-1,-1,-4,-4,-5,-6,-3
1558438719833779,0,0,5,1,5,12,5,0
1558438719848739,-2,-2,-6,1,-5,-5,-1,1
1558438719848739,3,1,2,-2,9,8,11,4
1558438719854724,1,-3,-2,-1,-14,-7,-1,-1
1558438719854724,-2,0,2,3,6,-3,-6,-2
1558438719869910,-5,-4,-3,-2,-11,-2,-7,-5
1558438719869910,0,-1,1,-4,4,12,7,0
1558438719876891,2,-1,-1,1,5,-11,-1,2
1558438719876891,-2,-1,-6,-5,-4,-3,-4,-4
1558438719892944,-3,-2,-8,3,1,0,-1,-3
1558438719892944,-1,-1,4,-2,-2,-3,-6,-4
1558438719893909,-1,0,0,-3,1,3,0,1
1558438719893909,-4,-2,-1,0,-12,-15,-9,-4
1558438719908581,-1,-4,-5,-4,6,-1,0,0
1558438719908581,3,2,7,13,13,7,10,6
1558438719914898,1,-1,-4,-2,-2,1,1,-1
1558438719914898,-1,-1,-1,-2,-6,-4,-3,-1
1558438719929813,1,1,-2,-2,0,2,0,-2
1558438719929813,-2,0,-5,-4,-8,-2,-5,-5
1558438719936800,-1,1,5,8,0,0,-3,-3
1558438719936800,2,4,5,8,8,5,3,2
1558438719952463,0,-2,0,-5,-9,0,3,-1
1558438719952463,0,-2,3,8,8,4,-3,-1
1558438719953464,1,0,0,3,7,-6,2,3
1558438719953464,-2,-3,-2,-5,-6,-7,-4,-3
1558438719968453,-1,0,3,-3,-4,-3,-2,-1
1558438719968453,-2,-1,-2,1,-5,-8,-8,-6
1558438719974598,-3,-5,2,5,-7,-2,-6,-6
1558438719974598,1,1,0,-10,11,15,16,7
1558438719989366,-2,1,-1,3,7,-6,2,1
1558438719989366,-3,-3,-11,-13,-13,-8,-6,-2
1558438719997696,-2,-2,-3,1,-1,-1,-5,-5
1558438719997696,-1,-2,0,6,-3,6,-1,-2
1558438720012304,-1,3,-3,-2,1,-7,0,3
1558438720012304,0,-1,4,1,6,4,2,2
1558438720013299,0,-4,-6,-6,-6,-8,-6,-3
1558438720013299,-2,-4,-4,-2,-5,2,-1,-3
1558438720028542,0,-2,1,4,3,15,2,-1
1558438720028542,-2,1,-2,-7,0,1,1,0
1558438720034548,0,1,-2,-5,2,2,6,4
1558438720034548,-2,0,0,-3,-7,-8,-3,-1
1558438720049202,-3,-5,-7,-11,-12,-13,-10,-6
1558438720049202,-4,-5,-7,-4,-18,-12,-10,-6
1558438720057257,1,0,2,-1,7,9,4,3
1558438720057257,2,2,-1,2,10,-1,4,3
1558438720072212,0,0,3,7,6,6,3,1
1558438720072212,-2,-2,5,5,3,-5,1,2
1558438720073139,-4,0,-6,-9,-10,-2,-5,-5
1558438720073139,-2,-1,-2,0,-6,-6,-8,-4
1558438720088100,0,-1,0,-2,2,2,-4,-4
1558438720088100,-2,-3,-3,-5,-22,-16,-10,-8
1558438720094085,0,-3,0,-3,8,11,9,4
1558438720094085,2,-1,4,7,12,5,9,5
1558438720109043,-1,0,-3,-1,4,5,7,-1
1558438720109043,0,-1,2,-1,1,-1,-2,-2
1558438720117056,-2,-3,-8,-3,-10,-9,-8,-6
1558438720117056,0,-2,-2,-2,-2,1,-8,-4
1558438720132986,-3,-3,-4,-7,-10,2,-3,-4
1558438720132986,0,-2,1,5,14,15,10,3
1558438720132986,4,6,7,12,14,-9,7,5
1558438720132986,-2,-3,-8,-14,-10,-11,-4,-1
1558438720148456,-2,-2,1,9,2,1,-5,-2
1558438720148456,1,-1,0,1,4,8,-2,-3
1558438720154352,-4,-3,-5,-3,-8,-3,-7,-5
1558438720154352,1,3,2,12,10,1,5,2
1558438720170417,-1,-2,-3,-20,-11,-6,-2,-1
1558438720170417,-3,-2,2,4,2,0,-2,0
1558438720177372,0,-2,-2,-5,-9,-4,-5,-1
1558438720177372,-2,-3,-10,-2,-17,-10,-7,-4
1558438720193356,-2,-1,2,3,4,6,0,0
1558438720193356,-1,-2,3,7,3,0,0,0
1558438720193356,-3,-3,-1,-5,3,8,0,-1
1558438720193356,0,0,3,-1,-5,-8,-2,1
1558438720208776,3,1,0,3,3,-8,3,3
1558438720208776,-3,-1,-1,-2,-3,-9,-3,-1
1558438720215225,-4,-2,-9,-8,-9,-2,-3,-2
1558438720215225,-1,-1,-1,-4,1,10,0,-1
1558438720230019,0,-1,-1,2,-1,6,3,-1
1558438720230019,-2,-1,-2,-2,-4,-12,-4,-3
1558438720236704,-3,-1,2,4,1,3,4,2
1558438720236704,-1,-2,-2,-5,-10,-12,-7,-5
1558438720252954,2,1,6,8,15,6,5,2
1558438720252954,2,0,-3,3,-4,2,0,-1
1558438720253658,0,-1,-1,-3,0,1,-2,-1
1558438720253658,-2,-4,-2,4,0,3,-3,-3
1558438720268619,-4,-3,-8,-12,-14,-9,-9,-5
1558438720268619,0,1,-1,-1,0,-2,0,-2
1558438720274900,2,3,8,7,14,8,12,6
1558438720274900,1,1,7,8,9,10,2,1
1558438720289589,-1,-4,-4,1,1,-11,-5,0
1558438720289589,-2,-2,-6,-6,-3,-1,-1,-2
1558438720297630,-1,0,-5,-3,-1,1,0,-2
1558438720297630,-3,-3,-7,-8,-9,-3,-4,-5
1558438720312758,-1,0,4,6,0,3,-3,-2
1558438720312758,-2,0,-1,-3,6,0,1,1
1558438720319756,-1,-3,2,6,-9,-9,-8,-4
1558438720319756,-1,-2,-2,-16,-1,-2,-1,0
1558438720328459,2,-1,-4,-7,1,2,2,1
1558438720328459,2,-2,0,1,-4,2,3,2
1558438720334752,-1,-1,3,0,3,-1,-5,-3
1558438720334752,-2,-2,-3,3,-1,-3,-1,-4
1558438720349403,-1,1,-3,-4,0,5,1,-1
1558438720349403,1,0,3,6,4,-4,0,2
1558438720357518,0,-1,-6,-2,0,2,0,-1
1558438720357518,-2,-1,0,7,-2,-3,0,-2
1558438720372340,-1,2,3,-9,-3,2,0,1
1558438720372340,-1,-2,-2,-2,-9,-1,-3,-1
1558438720379322,-1,-3,-1,-4,-6,-6,-4,-3
1558438720379322,-2,-1,1,2,10,8,2,1
1558438720388296,-2,-2,2,7,-5,-4,0,-3
1558438720388296,0,-1,-3,-7,0,6,-1,1
1558438720395300,-1,0,-1,-6,-1,5,5,3
1558438720395300,2,3,3,6,5,-6,2,4
1558438720409268,-2,-2,6,4,4,2,-2,-2
1558438720409268,-4,-5,-10,-13,-10,-10,-2,-2
1558438720417219,-2,-4,-8,-5,-10,-8,-7,-3
1558438720417219,-3,-3,-3,-3,-9,-4,-4,-3
1558438720432178,3,1,-1,-6,4,8,8,4
1558438720432178,0,0,4,9,12,1,2,-3
1558438720439194,0,2,3,5,12,12,2,1
1558438720439194,-4,-1,-4,-12,-14,-7,-5,-5
1558438720448135,-3,-3,-2,-1,-11,-7,-9,-4
1558438720448135,-2,-2,-3,2,-1,0,2,0
1558438720454306,-2,-2,-3,-10,-7,-11,-4,1
1558438720454306,2,-2,-1,0,5,3,1,2
1558438720469847,-3,-2,0,2,-2,-2,-3,-2
1558438720469847,-3,-2,0,-5,-4,2,0,-1
1558438720477756,0,0,4,8,7,4,3,-1
1558438720477756,1,1,5,5,2,-4,-2,0
1558438720492651,-3,1,0,0,2,-2,0,0
1558438720492651,-3,-2,-12,-18,-7,-3,-6,-2
1558438720499763,-1,-1,-5,-5,-7,-7,-2,-1
1558438720499763,-3,-5,1,1,-7,4,1,-3
1558438720515045,1,-2,-8,-3,3,1,1,-4
1558438720515045,1,2,2,6,-4,3,0,-1
1558438720515720,-2,0,0,3,10,5,1,1
1558438720515720,-2,2,-1,-4,1,-5,0,0
1558438720530142,-1,-2,0,1,-2,0,-4,-2
1558438720530142,0,1,3,5,-2,-9,-3,-3
1558438720537110,-1,-3,-3,-10,-8,0,-2,-3
1558438720537110,-2,-3,-7,-6,7,12,2,0
1558438720552845,-4,-3,-1,0,-5,-9,-5,-2
1558438720552845,-3,0,-2,2,-2,-2,1,1
1558438720560067,0,1,6,5,-5,-7,-2,0
1558438720560067,0,1,-2,-2,3,1,-2,-1
1558438720576013,1,2,1,3,-2,-2,-2,-1
1558438720576013,2,2,6,3,14,1,4,2
1558438720576013,0,1,-2,2,5,-2,6,1
1558438720576013,-2,-4,-4,1,-6,-5,-3,-4
1558438720589920,-1,-2,-2,-10,-8,-4,-6,-3
1558438720589920,-3,-2,2,1,4,13,4,-2
1558438720596501,1,-1,-1,-5,-6,-2,0,-1
1558438720596501,-2,2,0,1,5,3,-1,0
1558438720611464,-2,-1,-1,3,-5,-6,0,0
1558438720611464,-1,-1,-2,-5,6,4,-2,-3
1558438720619974,-2,-1,8,-1,-8,5,0,-2
1558438720619974,-2,-3,-20,-13,-6,-2,0,-2
1558438720635875,1,-1,-2,4,7,2,5,-1
1558438720635875,-2,-2,-4,-12,-12,-4,0,0
1558438720635875,-2,-2,1,9,8,-3,-5,-4
1558438720635875,1,1,5,4,2,-2,-2,0
1558438720649847,0,3,2,-2,4,2,0,3
1558438720649847,-1,-2,5,14,3,-3,-1,-3
1558438720673147,-3,-4,-16,-28,-15,-9,-8,-5
1558438720673147,0,0,2,-3,-5,2,1,2
1558438720674781,-1,0,-3,1,0,-1,0,1
1558438720674781,0,0,2,1,0,-5,-2,-1
1558438720680110,0,1,2,9,1,0,-2,-2
1558438720680110,-2,-5,0,-1,-4,0,0,-4
1558438720695814,-2,-2,-3,-1,2,0,1,0
1558438720695814,-2,2,-2,-9,-8,-2,1,0
1558438720695814,1,-2,-3,3,7,1,0,0
1558438720695814,-3,1,-3,-12,-10,-4,-3,3
1558438720710037,0,-2,0,0,1,1,-2,-2
1558438720710037,0,-2,-3,-2,-1,1,-1,0
1558438720717684,-3,-1,-4,2,-1,0,1,-1
1558438720717684,1,1,7,6,-9,-15,-3,0
1558438720731809,-1,-1,-2,-9,1,1,2,-2
1558438720731809,0,-1,0,-4,-3,0,-2,-3
1558438720739611,-2,-1,-1,-1,-4,-5,-3,-1
1558438720739611,-2,-1,1,2,6,1,3,4
1558438720755566,-1,1,1,-1,-3,-3,-1,0
1558438720755566,-1,-1,-2,2,1,-2,-3,-1
1558438720755566,-2,-1,3,0,0,2,1,0
1558438720755566,0,1,0,2,0,-1,-4,-4
1558438720769528,0,0,-3,-11,-5,-2,0,-1
1558438720769528,-1,-2,6,17,5,-2,-3,-2
1558438720777624,0,0,-6,-17,2,9,6,2
1558438720777624,-3,0,-4,0,0,-2,1,-1
1558438720792571,0,-3,-3,1,-1,-2,0,0
1558438720792571,-3,-2,-5,-4,-3,0,-4,-2
1558438720799450,-4,-1,3,6,-3,-2,-9,-4
1558438720799450,0,0,7,8,1,-1,-3,0
1558438720815405,0,2,3,2,9,11,8,2
1558438720815405,-3,-6,-19,-17,-17,-5,0,0
1558438720815405,1,-2,-1,6,3,-1,0,1
1558438720815405,-4,-2,-4,-6,-1,3,-1,-3
1558438720829650,1,-1,5,9,-1,-1,-5,-5
1558438720829650,0,0,1,0,6,-2,-2,1
1558438720836352,1,1,4,3,8,1,6,1
1558438720836352,-2,-5,-2,-5,-6,0,-1,-2
1558438720852720,-1,1,3,8,5,-1,1,0
1558438720852720,-1,-1,-3,-6,-3,-3,-1,0
1558438720859288,0,1,-1,-1,-8,-9,-4,-4
1558438720859288,3,1,2,6,7,-1,1,0
1558438720875246,-2,-1,0,-3,-11,-3,0,-1
1558438720875246,0,0,-4,-3,3,2,-5,-3
1558438720876243,0,-2,3,3,-3,4,-2,-1
1558438720876243,1,-1,-1,-3,-7,-8,-1,-1
1558438720889209,-2,-4,-3,-2,3,2,1,-1
1558438720889209,-1,0,4,1,5,-9,-3,0
1558438720897185,-1,-2,-3,0,2,5,-1,-1
1558438720897185,-3,-4,-2,-2,-7,-1,-2,-4
1558438720912145,-1,-3,-6,2,1,3,-2,-1
1558438720912145,-3,-2,1,-11,4,9,7,1
1558438720919126,-1,1,-1,5,2,-4,3,0
1558438720919126,-2,-1,-5,-6,-5,1,-5,-2
1558438720935083,-2,-2,1,-1,-8,-11,-8,-2
1558438720935083,2,0,-1,8,2,7,-1,-3
1558438720936476,-3,0,1,-15,-10,-4,4,0
1558438720936476,1,0,1,1,3,-4,2,0
1558438720949048,-3,-2,-14,-17,-7,-5,0,-4
1558438720949048,-1,-2,0,6,-6,-11,-5,0
1558438720957470,0,0,-3,-3,1,7,-4,-1
1558438720957470,0,-1,2,5,5,4,3,-2
1558438720973281,-2,-1,1,7,2,7,1,0
1558438720973281,-2,0,-1,-6,-2,6,3,0
1558438720980193,-1,-2,-1,1,-6,-18,-10,-4
1558438720980193,-3,-2,-1,-4,-3,4,0,-1
1558438720995255,-1,0,3,4,5,1,1,2
1558438720995255,-2,-2,0,1,-3,-1,2,0
1558438720995924,1,2,3,7,7,1,3,3
1558438720995924,3,1,-1,-1,4,-2,-2,-1
1558438721010444,-1,-3,0,1,-11,-6,-7,-3
1558438721010444,-3,0,11,3,4,2,0,1
1558438721016866,-2,-1,-8,-16,-6,-7,-2,1
1558438721016866,-4,-1,-4,-3,-3,-4,-4,-2
1558438721031827,-2,-2,-2,-3,-1,-5,-1,-2
1558438721031827,0,-2,-5,0,-10,-5,-3,-2
1558438721039807,3,0,2,8,7,9,6,2
1558438721039807,1,0,3,-3,-5,-8,-3,0
1558438721055847,0,1,7,5,1,-1,1,3
1558438721055847,-3,-3,-10,-4,3,3,-1,-3
1558438721055847,-4,-2,0,2,-4,-1,-2,-2
1558438721055847,0,-1,-5,-5,-4,4,-3,-3
1558438721078013,-2,-3,-1,-6,-11,-14,-6,-3
1558438721078013,3,2,3,0,3,0,4,1
1558438721078925,1,0,1,9,7,12,4,1
1558438721078925,-3,-1,-1,-14,4,0,3,1
1558438721091668,0,0,1,5,-2,-3,0,1
1558438721091668,0,-1,-4,-8,-7,-7,-6,-2
1558438721099646,-3,-2,-1,-1,-5,-5,-1,-4
1558438721099646,-2,0,-2,6,2,2,-3,-3
1558438721115061,-3,-4,-3,-7,-4,1,-4,-5
1558438721115061,0,-1,0,0,5,-1,0,1
1558438721115602,0,-2,-3,1,3,-6,1,2
1558438721115602,-1,-2,2,5,-6,-1,-2,-1
1558438721130020,1,-1,1,-10,8,2,3,1
1558438721130020,-2,-1,-5,2,-10,-5,-8,-6
1558438721137872,-2,-4,-4,-9,-14,-4,-11,-6
1558438721137872,-1,0,-2,7,4,-7,4,-1
1558438721152897,0,2,1,0,-1,2,0,0
1558438721152897,-1,2,-2,-5,5,8,3,1
1558438721159942,-1,-4,-3,4,-1,-4,1,-3
1558438721159942,-1,-1,4,6,7,4,-1,1
1558438721175865,-3,-2,-5,0,-4,-5,-2,-2
1558438721175865,0,-3,0,-9,-11,-8,-5,-3
1558438721175865,0,1,1,-2,2,8,1,-2
1558438721175865,-2,-2,-5,-3,-5,-3,-3,-2
1558438721190327,2,1,-2,2,3,-3,1,0
1558438721190327,-1,-1,8,5,9,3,-1,-1
1558438721197330,-4,-3,-17,-15,-12,-9,-5,-2
1558438721197330,0,-1,2,0,1,6,1,0
1558438721212204,1,2,-1,3,3,-2,-1,-1
1558438721212204,-4,-1,-3,-9,-2,-6,-1,0
1558438721218821,-2,-1,2,2,-3,-4,-6,-2
1558438721218821,1,2,-1,-1,8,6,7,4
1558438721235135,-3,-5,-7,-6,-4,0,-3,-4
1558438721235135,2,-2,2,8,2,-2,1,-1
1558438721243153,-2,0,-3,-7,-1,1,0,-4
1558438721243153,-4,-3,-3,-2,-8,-6,-5,-5
1558438721249738,0,-3,1,-1,0,3,-3,-3
1558438721249738,1,2,0,5,4,1,3,1
1558438721256797,0,-1,3,0,2,8,2,3
1558438721256797,1,-1,-6,-10,-8,-3,1,-3
1558438721271756,0,-1,-4,3,1,-2,-1,1
1558438721271756,-4,-3,-6,-14,-10,-7,-5,-4
1558438721279657,-1,2,6,8,5,3,1,-2
1558438721279657,-1,-1,-1,1,-6,-3,-3,0
1558438721294962,1,-1,-3,-6,-8,-10,0,-1
1558438721294962,2,1,4,10,11,8,2,-2
1558438721302916,-1,-1,-6,-3,-2,-4,3,-2
1558438721302916,-2,-1,2,-3,2,5,0,-2
1558438721309902,-3,-3,-4,-2,-5,2,-2,-3
1558438721309902,0,-1,0,5,2,2,1,2
1558438721317617,0,1,3,4,-1,-2,2,2
1558438721317617,-1,0,-4,-5,-1,-12,1,2
1558438721331706,-1,-1,1,8,1,2,-2,-3
1558438721331706,-2,-1,-4,-19,-6,1,4,0
1558438721339751,-3,-5,1,0,-3,-4,-6,-6
1558438721339751,-1,-3,-6,-17,-13,0,-5,-2
1558438721354535,-3,-3,3,5,2,2,3,0
1558438721354535,2,0,1,9,4,-2,0,2
1558438721362762,1,1,5,1,3,0,-1,0
1558438721362762,-2,-4,-2,-5,-3,-1,-4,-2
1558438721369731,0,0,2,-5,-8,4,-3,-2
1558438721369731,-5,-5,-13,-4,-5,-5,-9,-6
1558438721377725,1,0,3,2,5,-9,1,4
1558438721377725,1,2,9,14,17,12,3,5
1558438721392587,-4,1,-3,-6,-1,0,0,0
1558438721392587,-2,0,-1,-3,-3,-4,-3,1
1558438721399339,-3,-4,0,3,-9,-6,-5,-3
1558438721399339,-1,-4,-1,-9,-4,0,-2,-3
1558438721414612,0,0,-3,-5,6,0,7,3
1558438721414612,0,-3,-3,2,-1,1,0,-2
1558438721423293,-2,-2,-3,-2,-2,-2,-3,-4
1558438721423293,1,0,-4,-2,-3,-1,-1,-1
1558438721437263,-1,-2,0,-7,-5,0,-4,-1
1558438721437263,-3,-1,4,15,6,3,2,-2
1558438721438234,-2,0,-4,-17,-7,-5,0,1
1558438721438234,-4,-3,-9,-4,-4,-6,-2,-3
1558438721452196,2,3,4,4,11,10,5,2
1558438721452196,-1,-2,-1,-2,-5,-3,-2,-1
1558438721459885,-2,-2,-5,-2,0,3,-1,-3
1558438721459885,-1,0,4,9,3,-4,-1,-2
1558438721474849,-2,-1,-3,-11,-3,-7,0,-1
1558438721474849,-1,-1,-1,-4,-5,-4,-4,-1
1558438721490769,-3,-3,1,-1,-3,7,-1,-3
1558438721490769,-1,-1,1,2,-4,-6,-1,-3
1558438721498454,1,-2,-1,1,-3,-3,-5,-1
1558438721498454,1,3,5,3,5,-1,2,4
1558438721498454,1,-2,-5,-4,0,7,-3,-1
1558438721498454,-1,0,1,0,8,5,2,1
1558438721511749,-2,-1,-2,-8,-5,4,-1,-1
1558438721511749,-3,-4,-1,-2,-7,-8,-7,-3
1558438721527714,-1,-1,-2,6,-2,-7,-5,-1
1558438721527714,0,-1,-3,-3,1,5,1,-2
1558438721534681,-2,1,-3,0,-2,-11,-2,-2
1558438721534681,3,1,1,5,0,3,5,1
1558438721542673,1,1,0,-6,-1,5,5,1
1558438721542673,0,0,-2,-2,4,-1,1,-1
1558438721558296,-3,-3,-3,1,-5,-6,-5,-2
1558438721558296,-5,-1,-1,-3,1,-1,0,-1
1558438721558296,-2,-1,-4,-3,-4,-2,-1,-2
1558438721558296,2,0,-1,3,-1,4,4,2
1558438721572553,-1,-1,3,3,3,2,-1,0
1558438721572553,-1,-1,-2,-4,-4,4,1,-2
1558438721579568,0,0,2,0,3,-3,-1,1
1558438721579568,-3,-1,0,2,-3,-6,-4,-2
1558438721594533,-1,0,3,5,3,2,-3,1
1558438721594533,-1,-2,-2,-1,-3,-2,1,-3
1558438721602514,0,-1,1,6,1,-8,-5,-3
1558438721602514,-2,-1,-1,-8,-5,-1,-1,1
1558438721618377,0,-4,-4,0,1,-4,-1,-2
1558438721618377,-3,0,2,-1,-11,-5,-2,-2
1558438721618377,-1,-1,-1,1,6,8,-2,-1
1558438721618377,-2,-3,-2,3,2,2,-3,-2
1558438721632097,3,2,1,2,9,5,12,6
1558438721632097,-1,-1,-9,-4,6,-4,0,2
1558438721639226,-2,0,-3,-5,-3,-5,-2,-2
1558438721639226,-5,-2,-1,1,-10,-8,-8,-6
1558438721654076,-1,0,0,3,-2,-4,-4,-2
1558438721654076,2,1,4,2,7,-5,0,0
1558438721662376,0,-3,-7,-21,-11,-6,-4,0
1558438721662376,0,-4,-3,-6,-2,-3,1,1
1558438721678316,-2,-1,0,-1,-6,5,-1,-2
1558438721678316,0,-1,-4,-7,-3,0,-5,-1
1558438721678316,0,-1,1,6,11,8,7,3
1558438721678316,-3,-1,2,3,1,-6,0,-1
1558438721692281,-3,-1,-4,-6,-8,-6,-4,-4
1558438721692281,-2,-1,-1,-2,-3,2,-4,-3
1558438721698919,-3,-2,-2,4,-3,-2,-6,-3
1558438721698919,2,-1,-3,-8,-2,3,4,0
1558438721715040,1,1,-2,-2,5,-2,2,0
1558438721715040,-2,1,-2,2,3,4,-1,-1
1558438721721858,-1,1,4,6,5,0,3,0
1558438721721858,-3,-2,-9,-19,-11,-5,-3,-3
1558438721737815,-2,-4,3,6,3,6,-1,-2
1558438721737815,-1,-4,-7,-11,-12,-3,0,-2
1558438721737815,2,1,3,3,1,-7,3,3
1558438721737815,1,2,4,8,8,0,2,1
1558438721751779,-2,-4,-1,-2,0,4,-2,1
1558438721751779,-4,-3,-2,-2,-3,-7,-6,-4
1558438721760067,1,-1,-2,-3,-10,-3,-3,-3
1558438721760067,2,2,2,4,5,5,1,-1
1558438721775058,-1,-1,-8,-10,-9,-7,-6,-4
1558438721775058,0,-2,0,1,1,3,-6,-2
1558438721781698,-1,0,3,13,11,13,6,2
1558438721781698,1,1,2,-4,-5,-4,-3,1
1558438721797990,-3,-3,2,1,-2,-3,-1,0
1558438721797990,-1,-4,-19,-16,-17,-12,-9,-5
1558438721798652,-1,-3,-1,-2,-5,-7,-5,-5
1558438721798652,1,0,3,13,14,14,11,4
1558438721811832,-3,1,3,6,7,3,-1,-1
1558438721811832,-2,0,4,1,-1,-1,1,-2
1558438721820131,-2,0,-1,-9,-12,-10,-4,-2
1558438721820131,-2,-3,-1,5,3,1,-7,-2
1558438721842749,-1,-2,-8,-6,-5,-8,0,0
1558438721842749,-1,3,7,12,8,10,8,2
1558438721842749,-1,-2,-9,-10,-1,5,-1,0
1558438721842749,-3,-3,-2,-9,-9,-6,-9,-6
1558438721865687,-2,0,1,-3,-4,1,-2,0
1558438721865687,-1,0,3,6,6,2,4,1
1558438721866719,0,-2,-2,-6,2,-2,-1,1
1558438721866719,0,0,7,12,3,-5,-3,-3
1558438721871670,-2,-4,-11,-11,-5,-2,-4,-4
1558438721871670,1,-1,3,-5,-5,2,-1,0
1558438721888058,-4,-2,-4,-5,0,0,2,-1
1558438721888058,-2,-1,-2,6,-1,-1,-3,0
1558438721895062,-1,-1,-4,-14,-5,-1,-2,-3
1558438721895062,1,0,0,0,-5,-9,-6,0
1558438721909572,0,1,-1,-2,13,11,5,-1
1558438721909572,-1,1,-2,-1,-3,-1,0,1
1558438721917550,3,1,7,13,7,4,9,2
1558438721917550,-1,-4,-8,-14,-11,-6,-2,-2
1558438721918576,0,0,4,4,7,10,-2,2
1558438721918576,-3,-2,0,4,-5,-9,-5,-4
1558438721931510,-2,-3,-4,-8,-7,-3,-4,-1
1558438721931510,1,-2,1,7,8,7,3,3
1558438721939489,-2,0,-2,2,2,-4,0,1
1558438721939489,-1,0,-2,-1,1,1,2,0
1558438721954450,-2,-2,-9,-6,-3,-3,-3,-4
1558438721954450,-2,-1,3,11,7,8,1,-3
1558438721961430,-2,-4,-7,-15,-16,-11,-8,-4
1558438721961430,0,0,-1,-2,-3,1,1,0
1558438721977387,1,0,8,8,1,-10,0,1
1558438721977387,-1,2,3,1,6,3,0,2
1558438721978386,-1,-2,-4,-2,-2,3,1,-2
1558438721978386,-1,-1,-3,-3,-2,1,-1,-3
1558438722008578,-2,-1,-1,1,-2,-2,-4,-2
1558438722008578,-2,-1,-3,-5,-2,-10,0,-2
1558438722009305,1,-2,-1,1,-3,-9,-6,-1
1558438722009305,1,-1,-1,-6,-1,2,0,1
1558438722014536,0,-1,3,6,0,1,-1,0
1558438722014536,-2,-3,-10,-4,-3,1,0,-1
1558438722022270,-4,-1,1,3,-6,-3,-4,-3
1558438722022270,-5,-4,-3,1,-11,-13,-6,-3
1558438722037260,3,4,8,0,16,17,7,2
1558438722037260,0,-1,-3,-2,3,2,6,1
1558438722038227,0,1,5,12,7,1,1,0
1558438722038227,-3,-6,-8,-15,-13,-5,-6,-4
1558438722052224,-4,-3,-6,-5,-12,-8,-5,-3
1558438722052224,-3,0,1,3,2,5,-3,-2
1558438722060204,-1,0,-3,-9,-6,-7,-1,-1
1558438722060204,3,3,6,8,2,-11,-1,2
1558438722075181,1,0,-5,-8,7,12,7,3
1558438722075181,-1,0,-2,-1,-1,-7,-4,-3
1558438722082117,-4,-1,0,5,-3,5,2,0
1558438722082117,-4,-3,0,0,-4,-4,-2,-4
1558438722097938,-1,-1,0,1,-4,-9,-5,-1
1558438722097938,0,-4,-5,-7,-5,0,-6,-1
1558438722098546,3,0,2,2,0,1,3,0
1558438722098546,-1,-1,1,-4,2,3,1,2
1558438722112678,-2,1,-2,6,10,7,3,1
1558438722112678,-1,-1,-1,-11,-14,-6,-1,-4
1558438722119891,0,-2,12,19,9,-8,-8,-1
1558438722119891,2,0,-8,-7,0,9,6,1
1558438722134794,-1,-1,-3,-10,-10,-3,-2,-4
1558438722134794,-1,-2,1,-3,-4,-4,-4,-1
1558438722141780,-4,-2,-5,-9,-9,-4,-4,-5
1558438722141780,-1,-1,-1,3,-1,2,-1,-3
1558438722157732,-1,-1,3,8,5,5,2,0
1558438722157732,-2,-2,-4,-1,0,-3,1,-1
1558438722165365,0,1,3,0,7,7,4,3
1558438722165365,-3,-1,-2,-1,0,0,-1,-1
1558438722172601,1,-2,-2,-3,-7,-7,-2,-2
1558438722172601,0,-1,4,0,6,4,-2,-2
1558438722179667,-1,-3,-7,-5,-13,-9,-7,-3
1558438722179667,-1,1,-1,3,3,-2,1,1
1558438722194646,-1,1,1,-3,-1,-1,1,1
1558438722194646,-1,0,2,8,-1,-1,3,-2
1558438722202598,-1,-2,-1,-6,2,8,5,-1
1558438722202598,-1,-3,-8,-14,-14,-11,-10,-4
1558438722217592,2,-2,-1,3,10,9,5,2
1558438722217592,0,-1,3,3,8,-5,-1,1
1558438722225570,-3,0,-6,-2,-1,4,2,-3
1558438722225570,0,-1,1,-1,1,4,-2,-3
1558438722231585,-1,-2,-1,-4,-12,-7,-6,-3
1558438722231585,2,1,4,12,1,3,1,3
1558438722239534,-4,-3,-7,-16,0,5,-2,-3
1558438722239534,2,1,0,2,6,-3,4,2
1558438722254826,-4,-2,-1,6,-1,-7,-8,-5
1558438722254826,-2,-1,-4,-10,-11,-7,0,1
1558438722262725,-1,0,2,3,3,-6,0,1
1558438722262725,-1,0,2,6,-2,1,-1,-1
1558438722277696,0,2,6,7,5,6,1,-2
1558438722277696,-2,-4,-13,-12,-2,-3,-6,-5
1558438722285756,0,-2,-6,-3,-4,0,-1,-1
1558438722285756,3,1,-3,-7,4,-3,-2,1
1558438722292706,-1,-1,1,7,0,-7,0,3
1558438722292706,0,0,1,-7,4,14,6,2
1558438722299373,-2,-2,-1,-2,-2,-5,-4,-2
1558438722299373,-1,-1,1,1,-7,4,2,-1
1558438722314642,-3,-3,-3,-1,-5,-4,-7,-5
1558438722314642,-1,0,2,2,9,4,2,1
1558438722322319,1,2,-3,-6,-4,-6,2,1
1558438722322319,-2,-3,3,8,-2,0,-2,-2
1558438722337556,-1,-1,2,-5,1,2,2,0
1558438722337556,-2,-4,-5,-1,-4,-3,-2,-1
1558438722345545,1,0,-2,2,-6,-12,-5,0
1558438722345545,-1,-1,7,7,12,6,1,0
1558438722360505,-6,-4,-8,-4,-8,-10,-9,-6
1558438722360505,-2,-3,-11,-7,-5,-8,-4,-3
1558438722361207,0,2,3,-2,0,5,6,1
1558438722361207,1,-2,-6,-2,-8,-9,-3,0
1558438722374467,-2,-1,-1,-2,-3,-2,-2,-3
1558438722374467,0,0,4,5,5,10,-1,-2
1558438722382154,-1,0,-1,3,0,-11,-3,-1
1558438722382154,0,1,0,0,4,4,5,2
1558438722397412,0,2,0,-1,-4,-6,-5,-4
1558438722397412,1,-1,4,12,2,2,2,1
1558438722405371,-2,-1,-9,-7,1,3,0,1
1558438722405371,-2,-2,-1,-7,4,5,2,0
1558438722420079,-4,-2,-5,-4,-10,-9,-8,-3
1558438722420079,-2,0,0,-1,-6,-5,-3,-4
1558438722421077,-1,-1,8,15,3,6,-4,-1
1558438722421077,-2,-2,-9,-16,-4,-8,3,1
1558438722434014,1,-1,-9,-9,6,10,4,3
1558438722434014,1,2,6,9,2,-5,-2,-1
1558438722441990,-2,-2,1,-3,0,7,-2,-3
1558438722441990,0,-1,-3,-3,-8,-11,-7,-3
1558438722456949,1,1,4,5,5,3,8,4
1558438722456949,-1,-1,-1,-8,-1,2,-2,0
1558438722464929,3,1,8,15,8,1,0,1
1558438722464929,-4,-2,-12,-24,-4,7,0,-1
1558438722479888,-1,-3,-6,-8,-11,-6,-1,-2
1558438722479888,0,0,1,2,10,5,4,1
1558438722480887,-4,-3,-2,-2,-13,-6,-4,-6
1558438722480887,1,1,2,10,5,4,1,0
1558438722495142,1,1,0,3,10,4,5,3
1558438722495142,1,2,-2,-3,0,-2,0,1
1558438722510844,-1,-2,0,-4,-7,0,-4,-4
1558438722510844,0,-3,1,2,-3,-3,-4,-2
1558438722516802,3,-1,-3,-2,-3,-4,-4,-2
1558438722516802,-3,-1,-2,2,-1,1,-1,-2
1558438722525221,0,-1,-1,10,2,-5,-1,0
1558438722525221,-3,-2,-10,-19,-5,-2,-3,-2
1558438722539731,-4,-1,2,4,-2,3,1,0
1558438722539731,-1,3,2,2,0,-4,-1,0
1558438722540727,-1,-2,1,-3,13,8,2,2
1558438722540727,-2,-3,-5,-4,-14,-11,-12,-4
1558438722554690,-1,-2,1,5,-2,-2,-3,-3
1558438722554690,1,1,2,0,5,-2,8,5
1558438722561697,-1,-1,-1,-6,-5,-5,-2,-2
1558438722561697,1,0,6,11,5,6,-2,-2
1558438722576631,0,2,5,4,8,6,3,0
1558438722576631,-3,-3,-10,-18,-18,-12,-7,-3
1558438722584627,0,-2,-7,-8,-9,-4,-1,0
1558438722584627,-1,-2,1,2,4,0,3,0
1558438722599572,1,1,2,6,12,9,3,1
1558438722599572,0,-2,1,5,-1,2,-4,-5
1558438722600567,-1,0,-3,-2,0,0,-4,-1
1558438722600567,-4,-1,-4,-5,-9,-2,-4,-5
1558438722614557,-1,-1,-6,-12,-6,-1,2,0
1558438722614557,-2,-4,-5,1,-4,-9,-4,0
1558438722621511,1,2,-2,-11,2,7,4,2
1558438722621511,-3,-1,3,7,3,3,1,-4
1558438722637467,-4,-2,0,3,-8,-7,-5,-5
1558438722637467,0,2,-3,-7,6,-1,6,3
1558438722645446,-1,-1,1,4,-2,1,0,0
1558438722645446,-1,1,3,7,4,1,0,1
1558438722660406,-1,-3,-4,-9,-8,-6,-4,-3
1558438722660406,0,-1,8,7,4,6,-3,-3
1558438722660406,0,1,-6,-14,-4,-9,-1,-1
1558438722660406,0,-1,0,-3,0,3,3,1
1558438722674368,-2,-3,-2,-3,-10,-12,-11,-3
1558438722674368,0,0,1,13,13,13,4,0
1558438722681535,-1,-1,-5,-16,-10,-5,2,1
1558438722681535,0,1,3,9,10,2,3,0
1558438722697308,-2,1,2,-6,-8,-7,-2,-3
1558438722697308,-2,-1,-2,-3,0,-2,-3,-2
1558438722705288,-2,-2,-2,6,4,6,-2,-1
1558438722705288,-1,-3,-5,-11,-12,-10,-3,-2
1558438722720247,-2,-2,-3,-3,-3,-7,-3,-2
1558438722720247,0,-3,3,0,-6,-8,-4,-1
1558438722720247,-2,-4,-11,-5,2,7,3,0
1558438722720247,0,0,6,10,10,5,1,1
1558438722734209,1,1,5,-5,-2,0,2,0
1558438722734209,-3,-3,-8,-6,-12,-8,-6,-6
1558438722742189,-2,-3,0,-2,-3,1,-2,-3
1558438722742189,-1,1,2,1,2,1,0,-2
1558438722757337,-2,0,1,7,-2,-2,-1,-1
1558438722757337,1,1,2,5,6,-8,2,0
1558438722765129,-4,-4,-6,-1,-8,-12,-5,-5
1558438722765129,1,2,3,7,5,5,0,2
1558438722780144,1,-1,3,13,12,12,5,4
1558438722780144,-2,-1,2,-13,0,15,5,3
1558438722781089,0,1,4,9,2,-8,-1,0
1558438722781089,-3,-3,-10,-13,-9,-4,-1,0
1558438722794051,3,1,-5,-4,-2,3,-2,-1
1558438722794051,-3,-2,3,5,-5,-7,-2,-2
1558438722802028,-1,-1,-1,3,8,10,2,1
1558438722802028,1,1,5,3,1,0,0,1
1558438722816987,-2,-1,-4,-1,-1,-4,-4,-3
1558438722816987,1,0,-6,-6,-2,3,-2,-2
1558438722824967,-3,-2,-1,0,-5,-5,-7,-3
1558438722824967,1,-2,-1,10,1,-3,2,-2
1558438722839927,-2,-2,2,3,0,3,1,0
1558438722839927,-4,-5,-8,-16,-12,-16,-7,-4
1558438722840923,2,2,5,7,4,6,3,0
1558438722840923,-1,-2,-5,3,0,-8,-4,0
1558438722853892,-2,0,10,-1,1,-3,-1,-3
1558438722853892,-3,-2,-13,-6,-2,9,2,-2
1558438722861870,0,0,8,0,-4,-1,-2,-1
1558438722861870,3,3,0,2,6,-3,2,2
1558438722877008,-4,-5,-6,-12,-8,-6,-5,-4
1558438722877008,-1,-1,4,-2,-10,-6,-5,-1
1558438722884809,-5,-6,-12,-12,-15,-4,-5,-6
1558438722884809,-1,-1,12,3,-10,2,0,0
1558438722899766,2,2,-5,9,25,1,6,4
1558438722899766,-5,-7,-10,-10,-7,1,-3,-3
1558438722900763,2,-1,-11,-2,-4,-7,-3,-1
1558438722900763,-6,-6,-1,-12,-10,-15,-11,-5
1558438722914726,5,3,-9,-7,11,24,15,7
1558438722914726,-3,-4,1,6,9,6,-1,-4
1558438722921708,-2,2,13,13,4,-4,-2,-2
1558438722921708,-1,0,-2,-9,0,-5,-4,0
1558438722936669,0,1,-3,-10,-5,-6,-2,1
1558438722936669,1,1,3,4,-5,-6,0,-1
1558438722944807,1,1,7,10,13,10,6,2
1558438722944807,-3,-3,-9,1,-15,0,-1,2
1558438722959620,1,-3,-3,-8,7,5,-5,-6
1558438722959620,-2,0,-1,3,-6,-12,-7,-1
1558438722960603,-3,1,-1,-5,-4,-6,-1,-2
1558438722960603,0,0,-1,0,4,3,2,-2
1558438722975562,3,2,0,1,-2,-7,-3,-1
1558438722975562,-5,-3,4,5,-3,6,0,1
1558438722981548,0,0,0,1,0,-3,0,3
1558438722981548,2,1,5,-3,12,16,2,1
1558438722996508,-2,-2,-3,-1,-20,-13,-2,0
1558438722996508,3,2,6,9,11,13,4,-1
1558438723004487,-2,-3,-4,-14,-11,-6,-3,-4
1558438723004487,-1,0,-6,-4,2,-5,0,1
1558438723019448,-1,0,0,-4,-5,4,3,-2
1558438723019448,0,2,-1,-1,-5,-7,-1,2
1558438723020443,-4,-3,-3,-8,0,6,-1,-1
1558438723020443,1,0,1,10,-3,-4,-4,-3
1558438723034415,0,0,-1,-2,1,-1,0,1
1558438723034415,2,0,1,4,1,-6,1,2
1558438723041387,4,1,6,9,8,4,0,2
1558438723041387,-4,-4,-7,-13,-5,0,-2,-5
1558438723056349,-5,-4,-1,3,-3,-5,-3,-4
1558438723056349,-1,0,-3,-7,-1,-6,0,0
1558438723065324,-2,-3,-2,1,-3,-7,-3,3
1558438723065324,-2,0,1,7,3,8,2,-5
1558438723080283,-2,-3,5,4,-4,-2,-3,-1
1558438723080283,1,-1,-7,-2,5,-1,-4,-4
1558438723080283,0,-1,0,-7,-5,-6,0,5
1558438723080283,0,-1,-8,-4,-6,-6,0,1
1558438723094246,-1,-1,3,9,2,0,-6,-5
1558438723094246,-2,-1,2,-10,-1,2,-2,-3
1558438723102227,-1,2,0,2,-4,-3,-1,-2
1558438723102227,-2,0,-3,0,3,5,2,1
1558438723117185,-1,-3,-3,-4,-4,-6,-6,-4
1558438723117185,0,0,-2,3,-3,5,2,2
1558438723125163,-2,0,-3,-2,1,-2,-4,-5
1558438723125163,0,-1,2,1,2,5,3,0
1558438723139126,-5,-5,3,-1,-17,-12,-6,-3
1558438723139126,2,3,0,-2,21,6,-2,2
1558438723147104,-3,-4,-13,-21,-5,6,2,-1
1558438723147104,0,1,-5,-6,-5,-5,-1,0
1558438723154088,-1,-1,-5,0,0,-2,-1,-1
1558438723154088,1,-2,6,6,-5,-11,-5,-3
1558438723162077,-1,-3,-3,2,-6,-9,-5,-3
1558438723162077,-1,1,3,4,11,0,1,0
1558438723177030,-1,-1,-7,-7,-6,-8,-4,1
1558438723177030,-2,0,2,-1,-2,7,5,1
1558438723185003,0,-1,-4,4,0,-4,-3,0
1558438723185003,-2,-3,3,0,1,11,4,2
1558438723198967,2,1,2,-1,1,-2,1,1
1558438723198967,-2,-1,-2,7,-5,-4,-7,-3
1558438723206946,-2,-1,-1,-11,-1,9,4,-3
1558438723206946,-2,0,4,7,-2,-3,-5,-3
1558438723213927,-3,-1,-11,-12,-13,-9,1,0
1558438723213927,0,-1,1,3,5,3,2,-1
1558438723221905,0,-2,-3,3,3,8,3,0
1558438723221905,-2,-1,-2,-4,-5,-11,-6,0
1558438723236875,-2,1,-4,5,7,-2,1,2
1558438723236875,-1,-1,1,-2,-2,-3,1,-2
1558438723244843,-2,-1,2,2,-4,-5,-7,-5
1558438723244843,0,-1,-3,-4,-6,-3,-6,-3
1558438723258807,-1,1,-1,5,6,13,3,1
1558438723258807,1,-1,-4,-2,-4,-2,5,3
1558438723267781,1,0,6,7,8,-7,1,3
1558438723267781,-1,-1,4,0,-1,-8,-3,-3
1558438723282754,2,0,3,4,-3,3,-4,-3
1558438723282754,-3,-2,0,-9,-7,2,0,-4
1558438723282754,0,-2,-4,8,2,4,4,2
1558438723282754,-1,-3,-14,-17,2,-5,-2,-1
1558438723296705,-3,1,8,7,4,6,-2,0
1558438723296705,-3,-2,-10,-10,-13,-13,-9,-3
1558438723304682,1,2,3,8,7,-1,2,3
1558438723304682,-2,-1,2,3,-2,-4,-1,-3
1558438723319651,-2,-2,-2,-2,4,2,-1,-3
1558438723319651,-2,0,4,9,3,-4,1,-1
1558438723327634,0,1,-1,-14,-5,-5,-4,-4
1558438723327634,-4,-5,-12,-3,-10,-5,-1,-1
1558438723342591,0,-3,-2,-4,0,0,0,0
1558438723342591,2,1,2,3,1,-7,-5,-1
1558438723343583,-2,-1,-5,-2,-7,3,5,-2
1558438723343583,-2,-2,-6,-12,6,2,-1,-2
1558438723356546,-1,-1,-5,-7,-7,4,0,-1
1558438723356546,-2,1,-2,-1,2,-3,-4,-2
1558438723364526,2,2,3,3,3,-5,-5,1
1558438723364526,0,2,5,5,-5,-1,-2,1
1558438723379488,-5,-4,-4,-2,0,-5,2,0
1558438723379488,-2,-4,-1,-2,-1,2,-3,0
1558438723387465,1,1,3,-1,-4,1,0,-3
1558438723387465,-2,0,1,-2,-6,0,2,2
1558438723402422,3,1,3,4,10,5,0,-1
1558438723402422,-1,-2,-6,3,-1,2,-1,-2
1558438723403426,-6,-4,0,-9,-6,-1,-1,-2
1558438723403426,3,2,4,1,9,3,2,2
1558438723416385,0,3,7,6,2,-7,-3,0
1558438723416385,-5,-7,-13,-12,-12,-12,-5,-2
1558438723432345,-3,-4,-4,0,-4,-1,-5,-3
1558438723432345,-2,-1,0,-2,-2,3,1,-4
1558438723439338,-1,0,1,6,4,10,4,-1
1558438723439338,2,3,7,7,7,3,7,2
1558438723447302,1,0,0,4,5,-4,-1,0
1558438723447302,-3,-3,-4,2,-4,0,-4,-2
1558438723470239,-3,-2,-2,-8,-12,-7,-5,-5
1558438723470239,-4,-2,2,-12,-4,2,-3,-3
1558438723471250,-4,-4,-14,-6,-4,-7,-5,-2
1558438723471250,1,0,-1,3,5,2,4,3
1558438723477223,-3,0,-5,-7,-6,-1,-3,-3
1558438723477223,-2,0,5,5,2,10,3,-1
1558438723484203,1,2,0,-3,-5,-4,3,2
1558438723484203,-1,-2,-8,2,3,-1,-7,-3
1558438723499167,-1,-4,-6,-7,-5,0,0,0
1558438723499167,0,-2,0,1,-4,1,-1,0
1558438723507141,3,-1,6,5,19,14,7,3
1558438723507141,0,0,5,8,2,-4,2,0
1558438723522103,0,0,-2,-4,-1,-4,-2,-4
1558438723522103,-3,-2,-4,1,-2,-2,-7,-3
1558438723523101,-3,-2,-4,-7,-12,-4,-4,-3
1558438723523101,-1,0,1,-3,-7,-15,-3,-2
1558438723537064,-2,-1,2,5,5,7,4,2
1558438723537064,4,5,3,3,16,7,8,6
1558438723544044,-2,-3,0,2,-1,-3,-7,-1
1558438723544044,0,-1,-1,1,-3,4,-2,-2
1558438723559010,-4,-4,-2,-6,-15,-14,-8,-3
1558438723559010,0,-1,-4,2,0,-10,0,-1
1558438723566984,2,3,2,-6,-15,-3,-2,-2
1558438723566984,-1,-3,-2,6,12,5,1,0
1558438723582941,1,2,-2,-8,2,0,-1,-2
1558438723582941,-2,-1,4,-3,-11,1,-2,-2
1558438723582941,0,1,7,10,18,16,7,0
1558438723582941,1,0,0,-4,-2,0,2,-1
1558438723596901,2,-2,2,2,-4,-6,-4,-3
1558438723596901,-3,-4,-7,-2,-7,-5,-4,-4
1558438723603890,-4,-5,-10,-13,-14,-11,-5,-5
1558438723603890,-2,-1,4,3,5,6,1,3
1558438723619843,-1,-1,0,10,11,5,4,2
1558438723619843,1,2,-3,-13,-6,-5,-4,-1
1558438723627822,1,-1,3,5,-2,-4,-1,0
1558438723627822,0,0,-2,-8,-2,9,0,-5
1558438723642784,-4,-4,-5,-3,-10,-2,-6,-4
1558438723642784,3,2,1,1,1,-9,3,4
1558438723642784,1,0,2,7,5,6,0,3
1558438723642784,-1,-2,1,-6,-6,-3,-1,1
1558438723656742,2,0,0,0,5,2,4,0
1558438723656742,-4,-4,-6,-4,-10,-6,-8,-6
1558438723664720,1,0,2,4,7,2,5,2
1558438723664720,-3,-2,-1,3,-8,-6,-5,-2
1558438723679680,0,-2,1,-3,-7,-4,-6,-3
1558438723679680,-2,-6,-8,-11,-6,-3,-2,-2
1558438723687658,2,0,3,2,4,3,4,1
1558438723687658,1,-1,-1,7,5,4,1,-1
1558438723702620,-2,-3,-6,-15,-5,-2,-3,-1
1558438723702620,-2,-2,-5,-1,-2,-5,0,-1
1558438723703617,-2,-1,1,0,3,2,0,0
1558438723703617,-1,-3,-3,-10,-10,-3,-1,0
1558438723716591,0,-1,4,4,-6,-7,-6,-3
1558438723716591,1,2,6,9,14,11,2,2
1558438723724561,-3,-2,-8,-8,-6,-6,0,-1
1558438723724561,-2,-1,2,5,3,-4,0,-1
1558438723748498,-1,-2,-1,1,3,-3,-3,2
1558438723748498,-2,-3,-2,-2,-4,-2,-1,-2
1558438723748498,-2,0,3,2,-2,2,0,-4
1558438723748498,0,1,-4,3,8,3,2,0
1558438723762458,-2,-1,-4,-10,-9,-6,-1,2
1558438723762458,2,-1,-3,-6,-2,-7,-1,-2
1558438723763455,2,1,0,7,15,16,4,2
1558438723763455,-3,-5,-3,-6,-12,-6,-4,-3
1558438723776421,0,-1,1,5,4,-4,-1,-1
1558438723776421,-1,0,3,3,3,9,5,-1
1558438723784405,-1,-4,-5,-8,-10,-13,-9,-4
1558438723784405,0,-1,2,-5,-4,2,-3,-2
1558438723799360,1,-2,-2,8,1,2,-3,-2
1558438723799360,-1,1,0,-4,-1,-7,-1,-1
1558438723807342,-1,2,1,4,6,11,12,5
1558438723807342,-3,-4,-3,-1,2,-2,-2,0
1558438723822302,0,1,3,-1,-3,-3,3,1
1558438723822302,-5,-3,-7,2,2,4,-6,-4
1558438723823297,-2,-2,0,-4,-11,-12,-9,-5
1558438723823297,1,3,4,1,-4,-7,-3,1
1558438723837261,0,-1,-4,10,22,22,9,2
1558438723837261,0,-1,1,-7,-11,0,-3,-2
1558438723844250,1,-1,0,-2,-2,-10,-7,-2
1558438723844250,-1,-3,0,-2,3,5,6,0
1558438723859200,1,2,0,0,3,-7,0,2
1558438723859200,1,1,1,5,-2,-1,2,-1
1558438723867181,-3,-1,-3,-7,-3,2,-2,-2
1558438723867181,-2,-2,-4,-2,-7,-5,-10,-5
1558438723882147,-3,-3,-7,-13,-8,-5,-5,-4
1558438723882147,1,-1,0,3,8,4,7,3
1558438723883140,-4,0,2,6,2,5,0,-1
1558438723883140,1,-1,-3,-4,-1,-2,0,0
1558438723897101,0,0,1,1,2,3,6,1
1558438723897101,-2,-2,-2,0,1,-3,-3,-3
1558438723904081,-2,-3,-1,-6,-5,-9,-6,-4
1558438723904081,0,-1,-1,0,-2,6,2,-1
