timestamp,emg1,emg2,emg3,emg4,emg5,emg6,emg7,emg8
1558435082202633,0,-3,0,6,0,-2,-3,0
1558435082202633,2,2,2,2,4,3,1,1
1558435082202633,4,8,2,3,5,1,0,1
1558435082202633,-6,-8,-4,-1,-6,-4,-2,-6
1558435082207619,-1,-2,-6,-5,-1,-4,-1,-2
1558435082207619,-5,-9,-1,4,-4,0,0,-1
1558435082207619,0,1,3,0,11,14,6,3
1558435082207619,1,5,5,1,6,3,1,3
1558435082213603,-1,3,-1,-9,-15,-4,-1,0
1558435082213603,-2,-2,-6,-15,-6,-9,-5,-2
1558435082221582,-3,-2,-1,7,-4,-4,3,0
1558435082221582,0,1,-4,2,12,9,4,-1
1558435082229561,0,-1,0,-5,-1,-4,-2,-1
1558435082229561,-2,0,-2,-1,-7,-7,-8,-5
1558435082243523,-3,-3,-1,-4,-1,1,0,-1
1558435082243523,-1,-1,-1,3,-6,-1,1,0
1558435082254494,0,2,-1,3,15,12,3,0
1558435082254494,-1,-2,-3,-5,-2,1,-2,-1
1558435082258482,-1,-2,1,-1,-10,-10,-9,-5
1558435082258482,-1,0,3,3,-6,-3,0,1
1558435082273443,-3,-3,-9,-18,-3,0,2,1
1558435082273443,2,4,3,8,5,5,4,-1
1558435082281424,1,0,-4,-6,2,6,4,-2
1558435082281424,0,-2,3,7,3,1,-1,0
1558435082322312,-3,-1,-2,-6,-13,-13,-6,-3
1558435082322312,-2,0,2,-4,-2,-3,-2,0
1558435082323319,0,-1,-1,0,10,6,2,1
1558435082323319,-2,3,5,2,0,0,-1,-2
1558435082326311,-2,-2,-6,-4,-4,-3,-2,-3
1558435082326311,1,-1,1,-4,-2,-7,-5,-2
1558435082327298,-3,-2,-3,-4,-11,-8,-7,-3
1558435082327298,1,-1,4,6,4,3,4,1
1558435082333283,0,3,6,4,8,11,6,5
1558435082333283,-1,-3,-2,-1,-8,-2,-4,-3
1558435082340264,-1,-3,-6,-10,-8,-6,-2,-2
1558435082340264,0,-1,0,6,6,2,1,2
1558435082349244,4,2,7,11,18,8,3,3
1558435082349244,-3,-3,-10,-14,-12,0,-1,-1
1558435082363204,-2,-3,1,0,-6,-5,-6,-6
1558435082363204,-1,-3,-6,-7,-14,-13,-4,-3
1558435082372181,2,1,1,2,14,10,8,4
1558435082372181,2,1,6,18,10,0,0,3
1558435082378163,-3,-1,-2,-1,1,0,1,-2
1558435082378163,-4,-1,-7,-10,-4,-3,-2,-3
1558435082393125,-3,-3,-1,-2,-13,-12,-8,-7
1558435082393125,-2,-2,2,8,0,-2,-2,-1
1558435082400104,1,1,0,5,-3,1,2,3
1558435082400104,-3,-2,-1,-5,-2,2,-3,-3
1558435082409080,-4,-4,-9,-17,-15,-3,-1,-2
1558435082409080,0,3,-1,-4,10,6,2,0
1558435082423042,2,1,0,12,4,-4,1,1
1558435082423042,3,0,3,3,9,7,3,4
1558435082432019,-1,-1,-2,0,-4,-3,-6,-2
1558435082432019,-5,-4,-3,-10,-11,-7,-6,-7
1558435082445983,0,-2,-2,-1,-4,-2,0,-3
1558435082445983,3,4,2,0,11,7,4,5
1558435082452962,-1,-1,-2,2,7,7,3,1
1558435082452962,1,0,2,5,-1,-2,1,1
1558435082460941,-1,3,3,-1,-4,-1,-1,1
1558435082460941,-3,-6,-3,-16,-19,-13,-7,-5
1558435082476898,-2,-3,-8,-15,-6,-8,-7,-5
1558435082476898,-1,-4,-5,-1,10,5,0,-1
1558435082482884,-2,-2,1,0,1,2,1,-2
1558435082482884,-1,0,6,10,2,2,3,0
1558435082491858,-1,-1,2,7,13,5,2,2
1558435082491858,-2,-2,-2,-4,-15,-6,0,-2
1558435082497844,0,-1,1,-3,2,-1,-3,-1
1558435082497844,0,0,0,1,4,-2,1,0
1558435082512803,-1,-2,-2,6,-3,0,0,1
1558435082512803,-1,-2,-1,2,2,2,1,-2
1558435082520781,-2,-3,-6,-11,-2,-1,-3,-1
1558435082520781,-4,-5,-7,-6,-14,-12,-12,-7
1558435082529758,-2,-2,3,7,-11,-9,-4,-5
1558435082529758,2,5,4,5,16,16,8,5
1558435082542723,-2,-2,-3,-7,-3,-3,-2,1
1558435082542723,0,2,3,13,12,4,1,1
1558435082551698,-1,0,-5,-5,-1,-2,-1,-1
1558435082551698,-1,-3,-4,-10,-12,-2,-2,-4
1558435082557683,0,2,0,-1,-1,1,0,-2
1558435082557683,0,-2,-2,6,6,0,2,0
1558435082574639,-1,1,4,-1,-7,-2,-3,-2
1558435082574639,-1,-1,-2,-1,-6,-4,0,0
1558435082580622,2,0,1,7,9,-1,-3,0
1558435082580622,-3,-4,-9,-21,-25,-12,-6,-1
1558435082589597,2,2,2,9,18,15,6,3
1558435082589597,2,-3,-6,-26,-5,-4,0,-1
1558435082602562,-1,1,4,6,1,12,3,1
1558435082602562,-2,-1,2,13,6,-2,-4,-3
1558435082611539,-2,-3,-1,-11,-9,-12,-5,-3
1558435082611539,-2,-1,-1,10,8,-1,-2,-3
1558435082625502,0,-4,-2,3,-9,0,2,0
1558435082625502,4,2,0,3,13,21,10,4
1558435082634477,1,3,7,14,5,-1,-5,-3
1558435082634477,-2,-1,-2,-12,-21,-15,-7,-1
1558435082640461,-2,0,2,-1,6,-4,-4,-5
1558435082640461,-3,-1,-6,-7,-10,-6,-4,-2
1558435082649438,0,-3,-6,-4,0,1,-1,0
1558435082649438,0,1,5,12,15,10,2,0
1558435082663400,-1,-2,-2,-2,-3,4,1,-1
1558435082663400,-1,-2,2,0,2,-2,-1,-1
1558435082671379,-2,-1,0,-9,-8,-9,-3,-3
1558435082671379,-2,-2,-5,-3,-7,-12,-7,-4
1558435082685340,-3,-1,-5,-3,-7,-10,-7,-5
1558435082685340,-3,0,-1,2,5,5,0,0
1558435082702296,0,0,-7,-10,-1,6,5,2
1558435082702296,-4,-1,6,13,-3,-1,-2,1
1558435082703293,-2,-1,1,-5,3,2,5,1
1558435082703293,2,0,-2,-3,2,-5,-1,0
1558435082709277,-1,-1,0,1,-4,-4,-2,-2
1558435082709277,1,0,3,0,0,-1,1,-1
1558435082723240,-1,-3,-3,-1,-7,-1,-2,-1
1558435082723240,-5,-5,-7,-10,-7,-8,-7,-6
1558435082732216,0,-1,0,-3,-1,0,1,3
1558435082732216,0,-3,-4,-9,-1,2,1,-1
1558435082745181,2,1,4,11,15,12,4,3
1558435082745181,0,2,2,-1,3,1,4,1
1558435082754158,-2,-4,-9,-5,-6,-3,-3,-4
1558435082754158,-2,0,-1,4,-2,-6,-4,1
1558435082760142,-4,-5,-2,-17,-17,-11,-7,-3
1558435082760142,-3,-4,-2,3,-7,-8,-7,-8
1558435082769116,-3,-4,-2,-12,-8,-3,0,-5
1558435082769116,3,2,5,14,8,16,7,4
1558435082783079,1,2,-3,-16,13,10,7,5
1558435082783079,2,3,8,8,4,2,3,3
1558435082792056,-1,-4,-3,-8,-3,-6,-4,1
1558435082792056,-2,-5,-9,-9,-5,-9,-5,-5
1558435082805020,-2,-2,-1,7,-3,-7,-6,-6
1558435082805020,0,0,-4,-6,-10,-3,0,-3
1558435082814005,-5,-3,0,5,2,2,0,-3
1558435082814005,1,1,-2,-8,4,-2,1,0
1558435082819981,-2,-2,1,10,-6,-9,-3,1
1558435082819981,2,3,6,8,15,12,5,4
1558435082828957,-2,2,-3,-4,1,4,2,0
1558435082828957,-3,-4,-7,-8,-13,-6,-3,-3
1558435082842918,-2,-1,3,0,-8,-9,-3,-4
1558435082842918,-2,-4,-6,4,-5,-9,-3,-2
1558435082851896,3,2,5,0,8,8,3,3
1558435082851896,2,1,8,16,9,4,1,2
1558435082865860,-2,-2,-10,-23,-12,-6,-4,-3
1558435082865860,-3,-4,2,-1,-3,-6,-4,-1
1558435082874835,-4,-4,-7,-5,-8,-13,-9,-5
1558435082874835,-2,-4,-5,-3,-12,-9,-6,-3
1558435082880820,1,-2,5,13,11,8,5,3
1558435082880820,0,-1,-1,-17,4,8,1,2
1558435082889798,-1,-2,2,1,-1,-1,2,1
1558435082889798,-2,0,0,0,-2,-2,-1,-2
1558435082902760,-2,-1,-3,-1,0,-3,-4,-2
1558435082902760,-2,-4,-4,-3,-15,-7,-6,-6
1558435082911735,-1,-1,-2,2,2,-3,-3,-1
1558435082911735,0,-1,-2,-7,3,4,4,2
1558435082925698,-1,-2,1,2,5,5,2,1
1558435082925698,-4,-1,-6,-11,-7,-4,-2,-3
1558435082932684,2,1,4,13,-8,-7,-6,-3
1558435082932684,-1,-1,1,2,5,0,-3,-3
1558435082940660,2,1,2,7,10,7,3,0
1558435082940660,2,0,-1,0,3,7,1,1
1558435082955623,-2,-1,-4,-3,-7,-5,-1,-3
1558435082955623,-4,1,-1,-9,-5,-7,-4,-1
1558435082962599,1,0,-5,-3,-10,-8,-4,-1
1558435082962599,-1,0,3,12,10,6,2,-1
1558435082971596,0,0,2,-14,8,8,5,3
1558435082971596,-1,-2,-2,4,6,8,5,2
1558435082986545,-2,-2,-6,-7,-8,-7,-5,-4
1558435082986545,-1,0,-2,-5,-12,-9,-1,-3
1558435082992520,-3,-2,-2,-2,-2,-3,-3,-4
1558435082992520,-2,0,4,9,2,0,1,-1
1558435083000502,-1,0,-2,-9,-12,-10,-7,-1
1558435083000502,-2,-2,3,10,1,0,-1,-4
1558435083015462,4,4,8,8,18,16,15,8
1558435083015462,0,0,-7,-13,2,5,4,-1
1558435083023441,0,0,0,-1,2,2,1,-1
1558435083023441,-1,-2,-7,-9,-9,-8,-7,-3
1558435083031451,-3,-2,2,4,-6,-7,-9,-5
1558435083031451,-1,-1,-3,-5,-1,1,-3,-1
1558435083045379,-2,-2,0,7,0,-5,-1,-1
1558435083045379,-4,-2,1,2,-2,1,4,0
1558435083054359,1,1,0,3,1,-1,1,2
1558435083054359,-2,-3,-4,0,-3,-5,-5,-1
1558435083060340,-1,-1,0,4,3,7,3,-1
1558435083060340,0,-3,-5,-15,6,2,-2,0
1558435083075298,1,-1,-1,2,-6,-1,-1,-3
1558435083075298,-1,1,2,3,-8,-7,-5,-3
1558435083083277,2,0,-1,-7,4,6,3,2
1558435083083277,-2,0,1,-3,-1,2,1,-2
1558435083092254,-4,-4,-1,-1,-7,-7,-4,-3
1558435083092254,0,-1,-3,-1,3,-1,0,0
1558435083105218,-1,1,0,-4,-1,1,1,-3
1558435083105218,0,-1,5,8,-3,0,1,4
1558435083114194,-4,-2,-4,-4,-5,-8,-11,-7
1558435083114194,-3,-2,-3,-1,-8,-2,-2,-3
1558435083120188,-1,-1,-2,7,5,6,1,1
1558435083120188,0,0,-2,-5,1,2,4,2
1558435083135150,-1,-1,0,-4,-1,2,0,-2
1558435083135150,0,2,5,8,8,4,-1,-1
1558435083143123,-3,-3,1,-10,-17,-16,-7,-4
1558435083143123,-1,-1,0,1,10,2,1,-1
1558435083152102,-2,-3,-9,-2,-4,1,3,3
1558435083152102,2,1,2,-1,-3,2,3,2
1558435083166058,0,-1,-1,5,16,11,4,1
1558435083166058,-3,-1,1,9,-5,-6,-7,-5
1558435083174059,-2,-2,1,0,-5,-5,-2,-1
1558435083174059,1,0,5,0,-3,-5,2,0
1558435083181022,-5,-4,-10,-13,-5,-6,-6,-2
1558435083181022,1,-1,-5,-7,-1,0,-1,1
1558435083195983,-1,-2,-6,-4,-3,-1,-1,-2
1558435083195983,-3,-1,3,4,-5,-6,-6,-2
1558435083203021,-1,1,3,14,7,-2,1,-1
1558435083203021,0,0,-6,-21,-1,1,1,0
1558435083211942,-4,-3,-3,-4,-4,-4,-3,-1
1558435083211942,-2,-3,-2,-5,-4,-6,-1,-3
1558435083225965,1,-1,2,7,2,2,3,2
1558435083225965,-1,-1,-8,-4,-4,1,-4,-2
1558435083234881,-2,-4,-4,-1,-5,-5,-3,0
1558435083234881,2,1,3,6,12,8,2,5
1558435083240861,0,1,0,-1,-1,4,-1,-1
1558435083240861,0,2,7,5,-4,-5,-2,-1
1558435083255922,1,0,-7,-5,-2,-3,0,0
1558435083255922,-3,-6,-8,-6,1,-1,-4,-5
1558435083262799,-2,-3,0,-4,-6,-7,-4,-4
1558435083262799,-3,-2,1,1,-6,-5,-2,-4
1558435083271782,-1,1,-1,0,2,0,1,-1
1558435083271782,-1,-2,-3,-3,-3,0,1,-1
1558435083285855,4,3,5,-3,7,6,4,4
1558435083285855,-3,-2,-5,-1,-4,-9,-9,-3
1558435083294714,-3,1,3,6,5,3,-1,-2
1558435083294714,-3,-1,-4,-5,-3,-3,0,0
1558435083308676,-1,-4,-3,-12,-7,-2,-2,1
1558435083308676,2,0,0,5,9,7,5,4
1558435083315658,4,1,4,5,4,2,3,2
1558435083315658,-4,-4,-9,-10,-7,-8,-7,-3
1558435083331612,-3,0,3,4,-8,-6,-3,-2
1558435083331612,-4,-5,-10,0,-4,-5,-3,-2
1558435083333607,-2,-2,-2,0,-4,1,0,-1
1558435083333607,3,1,3,5,16,13,4,4
1558435083345606,-2,-1,2,1,1,-1,-1,-1
1558435083345606,1,0,4,-2,-6,-5,1,0
1558435083354560,-4,-5,-7,0,-5,-4,-3,-5
1558435083354560,-1,0,0,-6,-1,3,-1,-2
1558435083368581,-4,-2,-8,2,0,-2,-4,-2
1558435083368581,-2,-3,0,5,2,6,2,-2
1558435083375496,0,2,1,0,7,5,2,1
1558435083375496,1,-2,-3,-4,-6,-6,-4,-2
1558435083392455,-2,0,-1,-5,-2,0,0,-3
1558435083392455,-2,0,2,0,-4,-5,-2,-3
1558435083393449,-2,-2,1,-5,-3,-6,-5,-1
1558435083393449,-5,-4,-5,-4,-7,-7,-3,-3
1558435083405520,-2,-4,-2,-1,-7,-7,-2,-3
1558435083405520,1,-2,-2,7,9,7,5,4
1558435083414397,5,7,0,-2,20,20,10,4
1558435083414397,0,1,2,4,-1,1,-1,0
1558435083428459,-3,-8,-5,-2,-2,-4,-6,-1
1558435083428459,-5,-3,-6,-9,-17,-14,-7,-5
1558435083435442,-3,-3,1,-1,-12,-12,-11,-7
1558435083435442,1,3,2,5,6,3,5,-1
1558435083452434,0,1,2,0,-3,-2,2,0
1558435083452434,0,0,0,3,10,5,1,2
1558435083453293,1,0,-1,-1,-2,-2,-1,0
1558435083453293,0,2,-1,-2,5,4,1,2
1558435083465257,-3,-3,-4,-2,-5,-6,-5,-1
1558435083465257,-3,-1,-1,-2,-7,-3,-3,-1
1558435083474235,-1,-2,0,1,-4,-4,2,0
1558435083474235,2,0,5,13,11,6,4,1
1558435083489193,2,3,4,5,12,7,3,3
1558435083489193,-2,-2,-12,-24,-6,-4,0,0
1558435083496184,-6,-6,-2,3,-5,-2,-5,-4
1558435083496184,-3,-5,-5,-18,-16,-9,-5,-3
1558435083512176,0,1,2,7,-2,-4,-2,-1
1558435083512176,4,3,5,10,6,3,1,1
1558435083513128,1,0,-1,1,10,8,3,1
1558435083513128,0,0,-2,-1,-1,-4,0,3
1558435083525097,0,-2,-4,-3,2,0,0,1
1558435083525097,-1,0,1,0,-4,2,2,0
1558435083534072,-1,-1,0,-1,3,6,3,1
1558435083534072,-2,-3,-1,0,-9,-7,-10,-5
1558435083549204,0,-2,-6,-1,-5,-8,-3,-1
1558435083549204,0,-1,-5,-18,0,1,-2,2
1558435083556035,1,-2,-2,2,-5,-4,1,0
1558435083556035,-1,-1,0,0,2,5,1,-1
1558435083572148,0,1,1,-2,-1,2,-2,-1
1558435083572148,0,-3,2,10,4,-3,-2,-3
1558435083572971,1,1,2,4,-3,-6,-3,-1
1558435083572971,-3,-1,0,0,-9,-8,-3,-3
1558435083586053,0,0,-5,-7,3,7,3,-1
1558435083586053,-3,0,-1,4,0,0,-4,-1
1558435083594911,-2,0,-1,3,-2,-2,-1,2
1558435083594911,-3,-2,-8,-22,-7,-2,-3,-2
1558435083608871,2,3,6,2,12,12,7,1
1558435083608871,1,1,4,4,2,3,0,-1
1558435083615903,-2,-3,-5,-3,-4,-5,-3,-3
1558435083615903,-1,-1,-2,-2,-5,-6,-3,-3
1558435083631816,-1,-2,-3,-5,-13,-12,-7,-4
1558435083631816,-1,1,2,6,-2,-3,-1,1
1558435083633817,1,-1,0,0,8,10,3,1
1558435083633817,-1,-2,0,5,0,-3,-3,0
1558435083645103,-3,-3,0,0,-1,0,1,-1
1558435083645103,0,2,2,1,3,1,4,2
1558435083654127,-1,0,2,-9,-8,-4,0,-2
1558435083654127,-3,-3,-8,-3,1,-1,-5,-3
1558435083669259,-1,-1,-2,0,-6,0,-1,0
1558435083669259,-1,-1,0,9,1,4,0,-4
1558435083676019,-1,-1,-5,-5,-2,0,0,1
1558435083676019,2,0,3,2,1,0,2,0
1558435083691985,-1,-2,0,-2,0,-2,-3,0
1558435083691985,0,0,0,-4,5,2,4,1
1558435083692975,-1,-2,1,0,-5,-1,-3,-4
1558435083692975,0,-1,-2,2,7,8,4,0
1558435083706068,-2,-1,-3,-4,-4,-4,-8,-4
1558435083706068,-3,-4,-2,-2,-9,-5,-8,-6
1558435083714920,1,0,-3,2,3,-2,0,2
1558435083714920,-1,1,1,-8,-3,0,3,3
1558435083728880,-1,-2,0,5,3,3,0,0
1558435083728880,-3,-4,-6,-17,-11,-10,-4,-3
1558435083735858,-3,-3,-1,6,-4,-8,-8,-7
1558435083735858,0,-3,3,8,6,5,4,-1
1558435083750979,1,3,-4,-5,4,3,1,1
1558435083750979,1,0,1,2,-5,-5,0,0
1558435083757830,0,0,1,-2,-3,2,2,1
1558435083757830,-1,-3,-1,5,-3,-2,-6,1
1558435083765941,-4,-2,-2,-15,-3,3,5,-2
1558435083765941,-1,0,1,7,8,3,-1,-1
1558435083774763,-3,-2,-2,-7,-3,-7,0,1
1558435083774763,-3,-4,-7,2,-3,-11,-7,-4
1558435083788880,-1,-3,0,0,-4,0,1,1
1558435083788880,-1,-2,-6,-10,-2,5,1,-2
1558435083795857,-2,-2,1,-2,0,1,0,1
1558435083795857,2,3,5,2,10,9,8,4
1558435083811939,0,-1,1,4,-4,-7,-6,-2
1558435083811939,-4,-2,-1,-2,-7,-2,-3,-3
1558435083814680,0,1,0,-6,-5,-2,-2,-1
1558435083814680,-4,-4,-6,-7,-9,-10,-7,-4
1558435083825618,2,0,-1,-1,1,-3,3,3
1558435083825618,0,-1,3,4,7,6,2,2
1558435083834600,-1,-1,3,5,-1,-1,1,-2
1558435083834600,-1,0,-5,-3,0,3,3,0
1558435083848715,-1,-1,-2,4,0,-5,-3,-2
1558435083848715,-1,-2,2,9,1,3,-2,-2
1558435083855764,1,-4,-5,-13,1,3,-2,1
1558435083855764,-2,-1,-2,-13,-10,-7,-3,-2
1558435083871733,-3,-1,-1,4,3,1,-1,-1
1558435083871733,-1,0,1,7,-2,-5,-1,0
1558435083878645,-2,1,1,-3,-1,-1,-2,-1
1558435083878645,2,0,2,-4,3,-1,3,2
1558435083885688,-2,-1,-2,-1,1,-5,-4,-1
1558435083885688,-2,-3,-3,-2,1,4,1,0
1558435083894439,2,0,2,6,6,6,5,1
1558435083894439,1,-1,2,2,0,0,1,-1
1558435083908400,0,-3,1,0,-7,-2,0,-1
1558435083908400,2,2,-2,-1,8,3,2,3
1558435083915602,0,0,-2,-4,5,-5,-1,0
1558435083915602,-1,0,2,6,-3,-4,-2,0
1558435083931335,-4,-1,-1,1,0,-1,-3,-8
1558435083931335,-2,-1,-2,-13,-15,-11,-7,-4
1558435083938525,-3,-1,-2,4,0,3,-2,-3
1558435083938525,0,-1,-4,0,2,1,-3,-2
1558435083945299,0,-2,0,3,-5,-3,2,2
1558435083945299,0,-1,1,3,4,1,-6,-1
1558435083954310,1,-2,0,-3,-11,-5,1,0
1558435083954310,-1,1,7,10,14,12,2,0
1558435083969330,0,-1,-5,0,3,4,1,3
1558435083969330,-2,-2,-1,-1,-3,-5,0,-1
1558435083976245,-3,-5,-7,-13,-10,-13,-8,-4
1558435083976245,-2,-3,-4,-2,-6,-4,-4,0
1558435083991177,1,-1,-2,-4,0,2,7,2
1558435083991177,1,1,4,8,12,10,5,0
1558435083998413,-3,2,0,3,-7,-2,-2,-1
1558435083998413,-3,0,2,2,-4,-7,-7,-3
1558435084006140,-1,1,1,-5,-2,-3,-1,-2
1558435084006140,0,-4,0,3,0,-7,-5,0
1558435084014303,-4,-4,-8,-7,2,3,5,-3
1558435084014303,0,0,-2,-6,-5,3,4,-1
1558435084029262,-1,-1,2,2,1,0,-1,3
1558435084029262,-2,-1,-1,5,-1,0,-4,-4
1558435084035061,0,-2,-1,-2,-1,1,-5,-2
1558435084035061,-3,-4,-5,-12,-6,-1,-1,-2
1558435084060055,-1,-2,0,-2,-6,-3,-1,-5
1558435084060055,-2,0,-1,-1,1,-1,3,0
1558435084060992,-1,1,0,5,7,1,-1,-1
1558435084060992,1,0,-1,8,0,-5,0,-2
1558435084074953,-4,-2,-5,-15,-3,2,-4,-3
1558435084074953,-3,-1,-2,1,-4,-1,0,-1
1558435084075952,1,2,3,5,2,-2,-3,-1
1558435084075952,-4,-6,-8,-27,-9,-6,-3,-3
1558435084088915,0,0,-2,1,0,2,2,-1
1558435084088915,-1,-5,-4,-1,-6,-5,-5,-2
1558435084095904,-1,0,0,-3,1,0,-3,0
1558435084095904,0,-1,1,5,-2,-2,-5,-1
1558435084110861,-2,-3,-5,-2,-2,-3,-6,-2
1558435084110861,0,1,1,2,-1,3,6,1
1558435084117839,0,-1,4,3,7,6,2,1
1558435084117839,-1,1,-1,-3,1,0,0,-2
1558435084133795,-2,-4,-1,-3,-3,-2,-4,-1
1558435084133795,-2,0,-3,2,-4,-8,-2,-1
1558435084135787,1,0,-4,-3,-4,-3,5,3
1558435084135787,-1,-1,4,8,16,13,9,0
1558435084148752,0,1,-2,-3,-3,0,-3,0
1558435084148752,-2,-4,-5,-16,-6,-5,-3,-2
1558435084155735,-1,-1,1,8,1,0,-2,-1
1558435084155735,0,3,3,1,0,-3,2,2
1558435084170693,-1,1,3,3,2,-2,-2,0
1558435084170693,-1,0,-1,1,-5,-2,0,1
1558435084177675,-3,-3,-6,-15,-6,-1,1,-1
1558435084177675,3,1,5,13,1,2,1,-2
1558435084194988,-2,-3,-4,-3,1,-1,0,-3
1558435084194988,-1,-1,2,0,-1,-4,-1,-2
1558435084195628,-1,-1,6,8,4,2,0,1
1558435084195628,0,-3,-3,-6,0,-3,-4,-2
1558435084208942,-1,-1,-1,-5,-3,-1,0,-2
1558435084208942,-2,-3,-7,-11,-5,-1,-1,0
1558435084215924,-2,1,4,13,5,-2,-4,-2
1558435084215924,-2,-3,-5,4,-8,-5,-1,0
1558435084231742,-2,-1,4,13,3,-2,2,0
1558435084231742,1,1,4,-2,-4,0,1,0
1558435084238737,-2,-2,-10,-2,4,1,-1,0
1558435084238737,-4,-5,-1,-15,-21,-7,-3,-2
1558435084254665,0,-2,-4,-7,6,1,-1,1
1558435084254665,3,-1,-1,-4,1,3,0,1
1558435084255710,-1,-3,0,2,-1,-6,-2,-3
1558435084255710,3,7,3,8,13,11,5,0
1558435084268694,-4,-7,0,1,-9,-7,-6,-4
1558435084268694,-3,-1,9,9,-3,-1,-7,0
1558435084277411,2,-1,-4,-1,-5,-5,-3,2
1558435084277411,-5,-3,-4,-8,3,1,4,-1
1558435084299555,1,2,4,7,5,5,3,-1
1558435084299555,-2,-4,-7,-1,0,-5,-5,-2
1558435084301350,-3,-2,1,-3,-9,-4,-1,-4
1558435084301350,0,2,4,9,15,3,3,2
1558435084314507,-2,-2,-11,-11,0,-3,0,1
1558435084314507,0,-1,-2,-7,-3,2,0,0
1558435084316310,0,-1,0,-9,-5,-4,-4,-4
1558435084316310,1,-2,1,0,-6,-7,-6,0
1558435084328282,-1,0,5,2,-1,-4,-2,-4
1558435084328282,0,-3,-4,-6,3,1,1,-2
1558435084337252,-1,-3,-7,-6,-6,-5,-5,-5
1558435084337252,-1,-1,6,12,2,9,5,3
1558435084351253,0,1,-3,4,8,3,5,0
1558435084351253,-5,-1,-5,-22,-11,-8,-3,-4
1558435084358193,-2,-1,-4,-2,4,2,-1,4
1558435084358193,-1,-1,-2,-4,-4,-4,-1,3
1558435084374151,-1,0,0,2,-8,-6,-2,-1
1558435084374151,0,-2,-4,-1,-3,-6,-4,-1
1558435084376145,3,2,5,1,1,2,2,-1
1558435084376145,-3,-3,-6,2,3,-1,-4,-3
1558435084388114,0,2,2,-5,-3,4,-1,-1
1558435084388114,-2,0,-3,-6,-2,0,1,-4
1558435084397088,-2,-5,-5,-2,-5,-7,-5,-3
1558435084397088,2,3,1,-3,-2,-3,-4,-4
1558435084412085,1,0,4,1,7,8,4,0
1558435084412085,-4,-3,1,5,3,1,1,1
1558435084418384,1,1,0,0,0,3,-2,-1
1558435084418384,-5,-4,-7,-6,-5,-8,-5,-2
1558435084435247,-2,-2,-5,-7,-3,-2,0,2
1558435084435247,0,-2,2,-1,-7,-5,-8,-2
1558435084436443,-1,-3,-6,-2,-11,-5,0,0
1558435084436443,-1,-2,-2,-1,4,-2,1,-2
1558435084448414,-1,0,1,1,-3,-1,-3,-4
1558435084448414,-1,0,-4,-13,6,5,4,1
1558435084456928,-1,-1,-2,3,9,6,7,1
1558435084456928,-1,-1,-5,-6,-10,-5,-6,-2
1558435084471954,-3,-5,-7,-7,-8,-9,-5,-3
1558435084471954,-2,2,5,11,0,0,1,-2
1558435084478149,0,0,-2,-6,-5,-1,-3,-2
1558435084478149,-3,-1,-2,-3,-2,0,2,-1
1558435084494876,2,0,1,3,0,-1,-6,1
1558435084494876,2,-1,0,1,2,0,2,1
1558435084495828,0,0,6,6,7,3,1,2
1558435084495828,-3,-5,-8,-13,-7,-4,-1,-2
1558435084507794,-1,2,-3,-1,-3,-4,1,-3
1558435084507794,0,-1,4,3,1,1,-3,-1
1558435084516910,-4,-4,-9,2,1,-1,3,-2
1558435084516910,-3,-1,2,1,-8,-2,-8,-7
1558435084531858,-2,-5,-6,-14,-6,2,-1,-1
1558435084531858,2,1,-1,6,9,2,5,3
1558435084537732,2,0,3,-1,-3,0,1,0
1558435084537732,0,1,-1,1,2,0,-3,-1
1558435084554975,-1,0,1,2,-6,-5,-4,-1
1558435084554975,-2,1,5,13,5,5,4,-1
1558435084555672,-7,-7,-14,-20,-13,-4,-4,-4
1558435084555672,2,0,3,3,0,1,4,1
1558435084567632,1,1,5,1,-1,1,-1,-2
1558435084567632,-2,-2,-2,7,6,2,3,-3
1558435084576955,0,2,0,1,8,-2,2,4
1558435084576955,-4,-5,-4,-6,-8,-5,-4,-2
1558435084591878,1,-1,2,5,1,0,1,0
1558435084591878,-2,0,0,-5,-7,-7,-6,-3
1558435084597917,2,0,5,6,4,9,5,0
1558435084597917,2,0,-2,-4,-1,-1,-1,2
1558435084614880,-1,-1,2,8,3,2,0,1
1558435084614880,-1,-3,-6,-7,-6,-3,-2,0
1558435084615506,-1,-1,0,-8,-12,-7,-1,-2
1558435084615506,-1,1,4,5,0,-3,-2,0
1558435084628663,-2,-6,-7,-2,0,-2,-1,-1
1558435084628663,3,2,1,14,14,7,5,4
1558435084636712,0,2,2,0,7,5,-1,-1
1558435084636712,0,3,3,7,-5,-7,-3,-3
1558435084651651,-4,-2,-9,-12,-4,-3,0,-1
1558435084651651,-5,-8,-8,-11,-12,-11,-10,-7
1558435084658390,0,1,4,-5,-4,1,2,-1
1558435084658390,1,0,5,7,8,3,-3,2
1558435084674348,2,0,2,9,5,7,5,3
1558435084674348,1,1,0,-9,-4,5,2,1
1558435084675345,-3,-5,-3,0,-8,-9,-8,-7
1558435084675345,-2,-1,-5,1,-4,-3,-7,-5
1558435084688519,1,2,4,5,12,4,5,2
1558435084688519,2,2,2,2,3,4,4,4
1558435084697298,-2,-3,-7,-7,-6,-5,-6,-4
1558435084697298,-3,-5,-7,-11,-6,-3,0,-5
1558435084711480,-3,-1,0,0,-6,-8,-6,-7
1558435084711480,-1,-4,-3,4,-8,-2,2,-1
1558435084718459,1,2,4,2,12,10,1,2
1558435084718459,-2,-2,-1,5,7,4,3,1
1558435084734391,0,-1,1,0,2,1,-1,1
1558435084734391,-1,1,1,-6,-1,-3,-1,3
1558435084736190,-2,-2,3,5,-5,-4,2,1
1558435084736190,-1,0,-3,2,1,2,1,0
1558435084748152,-1,0,-7,-12,-10,-6,-4,-7
1558435084748152,-1,-1,-4,-1,-1,-3,-3,0
1558435084757132,1,3,5,6,3,-1,-7,0
1558435084757132,0,-2,4,-1,-4,-2,4,0
1558435084771088,-2,-2,5,2,-1,-2,-1,1
1558435084771088,-4,-5,-12,-14,-8,-5,-4,-4
1558435084778347,-1,-1,2,6,1,-1,-2,-2
1558435084778347,-1,-2,-4,-3,-4,-3,-2,-3
1558435084795141,-1,1,0,-4,2,2,3,2
1558435084795141,-2,-1,-7,-7,1,0,1,-2
1558435084796023,0,-3,-2,8,-2,-8,-3,-3
1558435084796023,-3,-1,-5,-2,0,1,2,0
1558435084807989,2,0,1,6,6,4,0,1
1558435084807989,-2,-2,2,-3,-5,-5,-2,-2
1558435084817002,-3,-1,-2,6,-1,-6,-3,1
1558435084817002,0,-5,-3,-11,-7,-4,-4,1
1558435084830926,3,1,-1,2,11,13,10,4
1558435084830926,0,-1,-1,2,-3,-5,-4,-4
1558435084845886,-2,1,1,-8,1,2,3,-3
1558435084845886,-2,0,-7,-2,1,4,-1,-3
1558435084853865,-4,0,-2,4,-9,-6,-7,-4
1558435084853865,0,1,-1,2,2,2,-1,0
1558435084860846,1,-7,-2,-12,-1,-1,-1,0
1558435084860846,-1,-1,3,3,3,-5,-2,0
1558435084867828,0,-1,-3,-12,-11,-6,-5,-1
1558435084867828,-1,0,-1,8,2,1,1,-2
1558435084876804,-1,0,0,4,-1,0,-1,-5
1558435084876804,2,-2,1,-6,-4,1,0,-1
1558435084899742,2,0,6,16,12,2,7,1
1558435084899742,0,0,2,1,-2,5,3,2
1558435084900740,0,-2,-3,7,8,5,1,2
1558435084900740,-1,5,-5,-8,-3,0,-3,-2
1558435084913705,-5,-4,-4,-4,-10,-11,-11,-6
1558435084913705,-3,-6,1,1,-3,-8,-5,-5
1558435084920686,-1,-4,-1,-3,-5,-2,-2,-2
1558435084920686,-3,-3,-3,-4,-3,-3,0,-1
1558435084927667,0,2,2,0,7,5,6,5
1558435084927667,0,3,3,-2,4,4,3,3
1558435084936644,-1,-1,-2,1,-6,-3,-6,-4
1558435084936644,-1,-1,1,3,7,1,1,-1
1558435084950607,-4,-3,-1,-13,-9,-7,-2,-1
1558435084950607,-1,-3,-6,-3,-2,-4,-6,-4
1558435084957589,-1,-1,-1,-9,-10,-4,-1,-1
1558435084957589,0,-1,1,5,1,2,1,0
1558435084973546,-5,-3,-8,3,-4,-2,-8,-3
1558435084973546,-2,2,-2,-9,0,-2,-1,-1
1558435084980689,-2,2,-3,-9,-4,-1,1,2
1558435084980689,2,1,0,10,2,5,7,5
1558435084997571,0,-7,-2,3,0,-6,-5,-3
1558435084997571,0,-1,-4,-4,-7,-4,-4,-4
1558435084998685,-3,-1,-1,-5,-5,1,-2,-5
1558435084998685,2,2,4,1,4,1,1,1
1558435085011791,-1,-3,-4,-4,-4,-3,-6,-2
1558435085011791,1,0,6,10,7,5,4,2
1558435085018686,1,-1,1,2,1,-3,0,1
1558435085018686,-2,-1,1,4,1,-2,-3,-2
1558435085034415,-3,-1,-7,-10,-3,1,-1,-3
1558435085034415,-2,-7,-7,-6,-5,-4,-5,-4
1558435085040369,-1,2,-3,-5,-5,-1,1,-1
1558435085040369,0,2,-1,-1,3,1,2,2
1558435085056325,-1,0,4,8,0,-5,-4,-2
1558435085056325,1,0,0,-12,-2,3,3,1
1558435085058350,-1,-4,-5,0,2,0,0,-1
1558435085058350,0,-2,0,-2,0,1,-3,-2
1558435085071601,2,3,-1,-2,5,5,1,1
1558435085071601,-3,2,3,5,-5,-6,-6,-4
1558435085078691,0,-3,-2,1,-7,-7,-2,-1
1558435085078691,2,-3,-1,-8,0,3,8,1
1558435085093902,-2,-1,2,-5,-6,0,-1,-3
1558435085093902,-1,-1,0,0,-2,-2,-1,1
1558435085100856,2,4,0,8,12,7,2,4
1558435085100856,-2,-2,0,-5,-7,-6,-6,-3
1558435085117538,-5,-7,-3,0,-6,-3,0,1
1558435085117538,1,0,1,3,1,2,-5,1
1558435085118538,1,-2,-6,-9,-3,-1,-4,-5
1558435085118538,-1,1,0,-5,-3,-3,1,0
1558435085131743,0,2,-1,-3,8,7,7,1
1558435085131743,-1,-1,2,4,1,-4,-1,-4
1558435085138638,-3,-4,-2,-17,-6,-5,-3,-2
1558435085138638,-3,-4,-2,7,-9,-6,-7,-5
1558435085153443,-2,-2,1,1,1,0,-1,0
1558435085153443,-1,1,-2,3,4,2,2,0
1558435085160671,1,0,1,6,8,3,3,1
1558435085160671,-1,-1,-5,-7,-5,-4,-4,-5
1558435085176380,-2,-3,-7,-15,-17,-11,-9,-6
1558435085176380,1,1,2,-2,-3,-1,2,0
1558435085178375,-2,-2,0,3,2,1,-5,-4
1558435085178375,-4,-4,-5,-1,2,-1,-3,-3
1558435085191341,4,4,7,11,13,8,10,3
1558435085191341,0,2,0,3,11,9,6,5
1558435085198324,-3,-1,-1,-14,-7,-2,-2,1
1558435085198324,-1,-1,-1,-1,-4,-5,-5,-2
1558435085213322,0,0,-3,-3,-7,-8,-10,-7
1558435085213322,-1,-2,6,3,-1,2,1,-2
1558435085220262,-4,-2,-5,6,8,3,6,3
1558435085220262,-3,-6,-9,-13,-1,2,-4,0
1558435085237218,1,1,4,1,-2,-1,-2,1
1558435085237218,0,-3,1,-2,0,0,-3,0
1558435085238215,-3,-1,0,2,-5,-5,-1,-4
1558435085238215,-3,-2,-4,-6,-6,-4,-3,-2
1558435085251627,-1,2,0,9,10,4,5,-1
1558435085251627,-2,1,-2,-4,2,0,-5,-2
1558435085258578,-2,1,5,3,2,1,5,1
1558435085258578,0,2,2,6,1,-1,0,1
1558435085273122,-3,-3,-7,-4,-2,-2,-5,-2
1558435085273122,-4,-2,-7,-8,-10,-6,-2,-2
1558435085281260,3,-1,4,5,-5,-6,-5,-1
1558435085281260,1,1,4,5,4,2,4,2
1558435085297328,-2,-3,-6,-13,-6,1,-3,-2
1558435085297328,-2,-1,-1,5,-2,0,1,-1
1558435085298329,1,0,2,0,1,5,2,3
1558435085298329,3,1,0,-3,0,-2,-3,0
1558435085311733,-3,-6,-5,-2,-7,-3,1,1
1558435085311733,0,-1,-1,-4,0,-2,-3,-2
1558435085318196,-1,1,3,9,2,2,-2,-3
1558435085318196,-3,-3,-2,1,0,-4,-5,-4
1558435085334052,1,-1,-1,2,4,3,3,1
1558435085334052,1,-1,-2,1,0,4,2,0
1558435085340710,1,1,0,1,3,1,0,-1
1558435085340710,-1,2,-8,-4,0,2,-2,-4
1558435085356668,-3,-6,-2,-7,-11,-9,-5,-6
1558435085356668,-6,-4,-2,-2,-8,-9,-6,-3
1558435085358662,-2,0,-6,-10,-5,-4,-2,0
1558435085358662,1,-1,3,6,2,1,-1,2
1558435085370931,-2,-2,-4,-2,-4,-3,-2,0
1558435085370931,1,1,2,4,12,9,5,4
1558435085377612,0,2,-1,-4,0,-1,1,0
1558435085377612,-2,-2,1,2,1,1,1,-5
1558435085393608,-2,3,3,0,-8,-4,-2,0
1558435085393608,-1,-5,-3,-6,-14,-16,-10,-8
1558435085400853,-1,-3,-6,-3,4,-2,-1,-1
1558435085400853,1,2,4,8,11,8,3,3
1558435085417506,3,2,4,1,13,15,9,4
1558435085417506,0,4,-8,-3,-2,2,3,1
1558435085418504,-3,-8,0,-3,-7,-3,-2,-4
1558435085418504,-1,-2,0,0,-5,-5,-3,-1
1558435085431740,-2,-2,-2,-2,-3,-4,-6,-3
1558435085431740,-1,-1,-4,-5,-5,-3,-2,-2
1558435085438552,-2,-1,1,4,-7,-9,-6,-1
1558435085438552,-3,0,-2,-3,1,-1,0,-4
1558435085454407,0,-1,-3,-2,6,3,0,1
1558435085454407,-1,0,2,3,6,0,2,-1
1558435085460676,1,1,-1,6,7,7,4,0
1558435085460676,-1,-2,1,0,0,-3,2,2
1558435085477495,2,1,2,0,-4,-3,-1,0
1558435085477495,-2,0,-1,-7,-8,-5,-3,-1
1558435085478347,0,-1,3,2,-4,-7,-4,-3
1558435085478347,-3,-3,3,5,-8,-6,-3,-4
1558435085490314,-4,-5,-11,-7,5,10,3,-4
1558435085490314,3,0,-1,6,15,14,5,3
1558435085499332,-1,1,1,-4,-6,-2,-1,0
1558435085499332,3,4,4,4,6,0,2,7
1558435085513299,-2,-4,-5,1,-6,-12,-7,-1
1558435085513299,-3,-3,3,-9,-6,-5,-4,1
1558435085521236,-1,0,-2,7,2,3,-2,0
1558435085521236,-6,-7,-8,-17,-3,1,4,-4
1558435085537440,0,1,2,0,-3,2,4,1
1558435085537440,1,-2,-5,-1,1,2,1,-1
1558435085538189,-1,-1,1,-1,-5,-4,-3,1
1558435085538189,3,-1,-7,-4,-6,-3,-6,-2
1558435085550407,-3,2,2,-1,-4,-6,0,-2
1558435085550407,-2,-4,5,7,2,0,-2,-3
1558435085559363,-3,-2,3,0,-5,0,-2,-3
1558435085559363,-2,-3,-9,-2,3,6,1,1
1558435085573095,0,1,4,6,-4,0,3,0
1558435085573095,1,-1,-8,-3,8,3,0,0
1558435085580075,-3,2,0,-4,2,4,-3,-1
1558435085580075,0,-2,3,6,1,4,3,2
1558435085597053,1,-3,-4,-4,0,-2,-3,-4
1558435085597053,0,-1,1,-1,-10,-10,-6,-3
1558435085598023,-1,1,-8,-4,-4,-3,-2,-2
1558435085598023,-4,-2,2,-7,-8,-5,-2,-1
1558435085610024,-3,-5,-2,1,-2,-8,-6,-1
1558435085610024,-3,-2,-4,-8,-10,-6,-5,-4
1558435085619004,-1,-3,-6,-4,4,2,-1,-2
1558435085619004,0,-1,0,1,4,3,-1,-1
1558435085633961,5,1,9,13,9,9,8,4
1558435085633961,-2,1,9,-3,-1,-2,1,-1
1558435085640908,-3,-2,-13,-8,-3,0,1,-1
1558435085640908,-3,0,-1,-3,-3,-3,-3,-2
1558435085656865,-2,-2,3,9,4,-2,-7,-2
1558435085656865,-1,-1,-4,0,2,1,1,-4
1558435085658161,0,2,6,-2,-2,-2,2,1
1558435085658161,-3,-1,1,1,-3,-3,-3,-1
1558435085671160,-2,0,-3,-14,-5,-6,-4,-1
1558435085671160,-1,-1,-2,-2,-6,-5,-1,-1
1558435085680052,-1,-4,-6,-4,-2,-1,0,-3
1558435085680052,3,4,1,13,4,-1,2,4
1558435085694080,0,1,4,6,-2,-1,3,-3
1558435085694080,-1,-3,-3,0,-3,-3,-1,-1
1558435085701068,-3,-4,-6,-2,3,1,-2,0
1558435085701068,1,-2,1,-3,-2,0,-5,-1
1558435085717033,1,7,7,7,4,3,-1,0
1558435085717033,-3,-6,-18,-43,-12,-3,-2,-1
1558435085717703,1,-2,3,7,3,0,3,0
1558435085717703,0,2,6,-3,-2,0,-1,-2
1558435085730988,-4,-5,-8,-2,-4,-3,-2,0
1558435085730988,-1,3,7,13,2,-4,-5,-3
1558435085739646,0,-3,-1,-3,-3,0,4,1
1558435085739646,-2,-4,-5,-3,0,0,-1,-1
1558435085753903,-1,-2,0,0,-2,1,-5,-3
1558435085753903,-2,1,1,8,2,1,3,1
1558435085760882,-1,-2,-7,-12,-8,-5,-3,-1
1558435085760882,2,2,3,6,4,1,3,2
1558435085776544,-1,-3,-7,-8,-3,-1,0,0
1558435085776544,-3,-1,-2,-1,-3,-7,-7,-4
1558435085782557,-4,-4,-1,0,-5,-5,-4,-4
1558435085782557,-3,0,1,-1,-8,-3,-1,-4
1558435085790507,0,-3,-3,4,7,2,-1,-3
1558435085790507,1,0,3,8,8,10,6,3
1558435085799483,1,-1,-4,-5,6,4,1,0
1558435085799483,-1,-4,-7,-4,-5,-7,-6,-2
1558435085813924,-2,-2,-4,-11,-9,-7,-4,-1
1558435085813924,1,3,7,22,10,3,2,3
1558435085820724,-2,2,5,4,4,1,0,-3
1558435085820724,0,-3,-9,-20,-3,3,-2,1
1558435085836720,-3,-2,-1,-6,-10,-6,-1,-4
1558435085836720,-2,-1,-2,0,-9,-8,-6,-4
1558435085843367,1,1,2,-3,-1,3,1,2
1558435085843367,0,1,3,7,14,6,8,0
1558435085850690,-2,-1,-3,-2,5,4,2,1
1558435085850690,-2,-1,-1,-5,-8,-5,1,-3
1558435085859323,-2,-2,2,8,-4,-5,-6,-2
1558435085859323,-3,-2,-4,-1,-5,-6,-4,-4
1558435085873287,0,0,-3,-10,-1,-2,-1,-2
1558435085873287,-1,0,-1,1,5,3,-1,-2
1558435085880583,-1,-1,-2,-5,-4,-7,-4,-1
1558435085880583,-1,-1,-3,-5,-4,1,3,1
1558435085896315,1,0,7,9,6,1,0,-1
1558435085896315,-3,-5,-3,1,-8,3,-3,-3
1558435085903513,-1,0,-7,-9,-2,2,0,-2
1558435085903513,0,0,7,10,10,4,2,2
1558435085910468,-2,0,-4,2,1,5,4,0
1558435085910468,-1,0,-1,-1,-1,-5,-2,-2
1558435085919409,-3,-3,1,-5,-8,-7,-3,-3
1558435085919409,-3,1,-5,-9,-9,-8,-7,-5
1558435085934386,-1,-2,-3,-7,-2,-3,-1,0
1558435085934386,1,0,3,-1,-6,-1,3,1
1558435085940110,-1,-4,-3,5,0,-1,-2,-1
1558435085940110,-2,-1,1,2,4,2,-2,2
1558435085956099,-1,3,0,1,1,2,3,3
1558435085956099,-3,-1,-3,-5,-3,-5,-3,1
1558435085963077,1,3,4,7,2,9,6,1
1558435085963077,-2,-3,-5,-3,-3,-2,-1,-3
1558435085980001,-2,-2,-4,0,1,-1,-1,-2
1558435085980001,0,-4,-5,-15,-11,-9,-5,-6
1558435085981186,0,0,-2,-2,-2,-3,-1,-3
1558435085981186,-1,-3,0,8,1,1,2,-1
1558435085993994,-4,-3,-1,1,-8,-6,-6,-4
1558435085993994,-2,-5,-4,-14,0,1,-2,-1
1558435086001219,-2,-2,-1,2,3,-2,-7,-2
1558435086001219,1,2,6,2,1,1,6,3
1558435086016237,4,0,-3,2,8,4,0,2
1558435086016237,-1,-1,0,4,0,2,1,1
1558435086022884,0,-1,-1,-7,-5,-2,-1,-1
1558435086022884,-3,-4,-5,-5,-7,-13,-10,-8
1558435086039177,-1,0,4,0,-6,3,0,-1
1558435086039177,3,1,0,8,10,5,4,1
1558435086040846,-3,-1,-3,-2,0,-1,0,-2
1558435086040846,-4,-4,0,0,-10,-8,-7,-6
1558435086054134,-2,-1,-5,-2,-1,0,-2,1
1558435086054134,-1,1,0,-1,0,1,-5,-1
1558435086061088,-5,0,1,2,1,-2,2,2
1558435086061088,2,-1,-2,1,4,6,4,2
1558435086076955,1,0,4,1,3,3,3,2
1558435086076955,0,-1,-2,5,-1,1,-3,-1
1558435086083061,-2,0,0,-4,0,-3,-9,-4
1558435086083061,-3,0,1,-7,-7,-5,2,2
1558435086100007,-3,-3,-1,-1,-2,-3,-2,-1
1558435086100007,-1,-4,2,11,7,4,2,0
1558435086100682,2,-1,4,4,9,8,3,-1
1558435086100682,-2,0,-6,-8,-4,-1,-2,-3
1558435086113947,-2,-2,-6,-6,-3,-9,-6,-5
1558435086113947,-2,-1,4,-3,-6,-3,0,0
1558435086120944,0,-3,-5,-8,-8,-5,1,1
1558435086120944,2,-2,5,16,7,3,1,1
1558435086136909,-1,2,-3,-23,-2,2,1,-2
1558435086136909,-1,-2,0,-2,-1,-6,-3,-1
1558435086143566,1,3,6,8,3,3,0,2
1558435086143566,-3,-4,-14,-17,-8,-3,0,-3
1558435086159862,-3,-1,3,14,-3,-10,-9,-7
1558435086159862,0,0,-3,-2,3,5,5,0
1558435086160518,1,2,2,2,5,4,5,2
1558435086160518,1,0,4,3,7,3,-2,1
1558435086173483,0,-3,0,0,-3,-2,-5,-3
1558435086173483,-2,-3,-3,-1,-5,-5,-4,-5
1558435086180792,-4,-1,2,2,-2,-4,0,-2
1558435086180792,-2,-2,-3,-1,3,0,-5,-1
1558435086196750,1,4,-1,2,5,4,3,2
1558435086196750,1,3,2,-4,-1,4,3,5
1558435086203729,-3,-3,-4,-1,-6,-9,-4,-2
1558435086203729,0,-3,-4,-7,-9,-7,0,-1
1558435086219690,-1,-2,-2,-2,1,2,1,-1
1558435086219690,1,0,2,7,8,1,3,0
1558435086220627,1,4,4,0,-6,-2,0,-1
1558435086220627,-2,-3,4,-2,-5,-1,-4,-5
1558435086234325,-2,-2,-1,1,-2,2,1,-2
1558435086234325,-1,2,1,0,-3,1,1,0
1558435086240304,-2,-4,-10,-4,12,7,4,-2
1558435086240304,0,4,2,3,-3,-3,-7,0
1558435086256263,-1,-3,-5,-3,-5,-6,-5,-1
1558435086256263,0,-1,0,1,1,3,3,0
1558435086263295,-2,0,0,-2,0,-2,-5,-1
1558435086263295,-3,-3,-7,-5,-3,-6,-2,-4
1558435086279202,-1,-1,4,3,2,1,3,0
1558435086279202,-3,-1,-5,-6,-9,-11,-8,-1
1558435086280228,0,-4,-2,-1,-7,-4,-7,-3
1558435086280228,1,2,2,2,8,9,9,3
1558435086293163,-2,-2,-2,-9,-5,-4,-1,-1
1558435086293163,-3,-2,-1,1,-4,-7,-7,-7
1558435086300638,0,2,6,3,5,6,2,2
1558435086300638,-1,-4,-7,-7,1,1,-1,-3
1558435086316595,0,-3,-2,-2,-6,-4,-2,0
1558435086316595,0,3,4,0,-1,6,5,3
1558435086323111,-1,-2,1,4,12,6,0,-1
1558435086323111,-3,-5,-2,0,-4,-4,-6,-2
1558435086339200,1,-1,1,4,1,-1,0,3
1558435086339200,-3,-7,-16,-13,-2,-5,0,-2
1558435086341077,-3,-2,-2,-2,-15,-10,-5,-2
1558435086341077,2,3,0,-2,1,0,0,3
1558435086354336,1,3,8,5,3,5,1,2
1558435086354336,1,1,1,-1,1,1,-3,2
1558435086361301,-4,-3,-12,-11,-8,-5,-3,-6
1558435086361301,-1,-3,2,5,0,-1,-1,-2
1558435086375944,-2,-2,-4,-7,-11,-7,-1,-1
1558435086375944,-1,0,3,6,6,6,1,3
1558435086383256,-2,1,2,4,6,2,4,-1
1558435086383256,-3,-3,-2,-5,-11,-6,-5,-5
1558435086400140,0,2,0,2,7,3,1,-1
1558435086400140,0,-1,-1,2,-1,0,0,-1
1558435086400876,0,-3,-6,-4,-4,-3,1,0
1558435086400876,-1,1,-4,-6,-5,-1,-1,-1
1558435086413843,0,2,0,2,6,4,-1,1
1558435086413843,-4,-11,-5,-2,-2,-2,-2,0
1558435086421153,1,-2,2,1,-2,0,1,0
1558435086421153,2,0,-3,-5,-9,-4,-3,1
1558435086436861,1,-1,0,8,0,-5,-2,0
1558435086436861,0,6,-1,-13,-3,-1,-2,-2
1558435086443077,0,-3,0,2,3,0,-4,-2
1558435086443077,-6,-3,-1,5,-2,1,0,-2
1558435086460043,-3,-4,-2,-3,3,3,0,-3
1558435086460043,2,3,6,10,5,1,1,-2
1558435086460720,-3,0,0,3,0,3,5,0
1558435086460720,-2,-4,-12,-13,-5,-7,-5,0
1558435086472681,-1,-1,-3,-2,-8,-8,-6,-3
1558435086472681,-3,-6,0,4,1,-2,-2,-4
1558435086481778,-1,-1,-3,-7,-5,2,-1,1
1558435086481778,-2,1,-2,3,10,11,10,0
1558435086496922,-1,1,11,3,-1,0,2,-1
1558435086496922,-1,0,-7,-3,-6,-5,-6,-2
1558435086503731,-4,-4,-8,-7,-4,-5,-7,-4
1558435086503731,0,2,5,6,7,6,3,3
1558435086519856,0,-2,-7,-7,-5,-3,2,1
1558435086519856,-1,0,5,-3,-2,-3,-5,-2
1558435086521552,0,-2,2,5,2,-4,-3,-2
1558435086521552,0,2,6,2,0,-1,1,1
1558435086533683,-1,-1,-1,-5,1,1,-3,-2
1558435086533683,-2,-5,-12,-11,-7,-6,-3,-2
1558435086541779,-1,0,-1,2,-1,1,0,0
1558435086541779,2,0,2,2,4,-1,1,0
1558435086556461,-5,-10,-3,-10,-6,-1,2,-4
1558435086556461,0,3,0,-1,-3,-1,-1,0
1558435086563653,0,-3,-3,-13,-2,0,0,-1
1558435086563653,2,2,1,-1,-2,-3,-3,1
1558435086579397,0,0,0,2,-3,-4,-6,0
1558435086579397,-2,-3,-8,-6,0,5,8,-3
1558435086580394,1,3,10,12,12,5,6,5
1558435086580394,-1,-1,-3,2,1,-2,-2,-3
1558435086593601,-2,3,-4,-10,-5,0,-3,-4
1558435086593601,0,-4,2,1,-5,-10,-12,-1
1558435086601338,-1,-4,0,1,-9,-7,-5,-3
1558435086601338,0,0,2,0,1,2,5,2
1558435086616634,1,1,5,11,10,7,3,4
1558435086616634,1,7,-1,-1,5,4,3,1
1558435086623282,-3,-5,-15,-7,-12,-9,-8,-2
1558435086623282,-2,3,6,-6,-6,-8,-10,-6
1558435086639238,-3,-8,-11,-13,-9,-7,0,-3
1558435086639238,-2,-1,4,10,4,6,4,3
1558435086640235,1,0,2,1,6,2,3,-1
1558435086640235,1,-1,-2,2,0,1,-3,-2
1558435086653536,1,3,4,4,0,-3,2,0
1558435086653536,-1,-1,2,1,-2,-3,-3,-1
1558435086662177,1,-3,-7,0,3,4,1,-1
1558435086662177,0,-4,-2,-8,-4,-2,-1,-1
1558435086676459,-1,-4,1,6,3,1,-2,-2
1558435086676459,-2,-5,-2,-3,-5,-4,-2,0
1558435086683404,1,5,5,4,2,-1,2,5
1558435086683404,-1,1,6,7,5,2,2,-3
1558435086699335,-2,-4,-16,-15,-7,-4,-2,-1
1558435086699335,-3,-3,-2,-8,-3,-1,-5,-5
1558435086705325,-3,-4,-7,-7,-5,1,-1,-2
1558435086705325,-1,0,5,12,8,2,0,1
1558435086713303,1,1,3,1,-2,2,3,0
1558435086713303,2,-1,1,4,2,1,3,0
1558435086722020,0,-2,-3,-5,-4,-7,-8,-1
1558435086722020,-4,-4,-8,-9,-10,-7,1,-3
1558435086736240,0,2,1,8,13,8,6,2
1558435086736240,-1,2,-1,0,-3,-2,-1,-1
1558435086743232,1,-2,2,-3,-3,-4,-4,-3
1558435086743232,0,-1,-3,1,-6,-3,-2,1
1558435086759171,-3,3,1,0,-2,0,-5,-2
1558435086759171,-1,-1,2,5,4,4,5,0
1558435086766129,-1,6,4,3,12,9,4,1
1558435086766129,-3,-9,-4,-3,-11,-10,-9,-5
1558435086772883,-4,-4,-9,-16,-6,-6,-6,-5
1558435086772883,1,-2,-1,-8,0,-1,-5,-4
1558435086781858,0,3,3,6,-6,-2,-1,-1
1558435086781858,0,-2,-7,-2,1,1,2,-3
1558435086796086,2,1,7,9,4,3,6,4
1558435086796086,-1,-2,-1,0,1,1,1,0
1558435086802832,-4,-4,-8,-7,-9,-9,-8,-5
1558435086802832,-2,-1,2,-2,-10,-8,-9,-5
1558435086819023,-5,-4,-1,0,-2,-3,-4,-2
1558435086819023,1,-1,-3,-1,9,9,4,3
1558435086825737,2,2,4,6,15,11,4,1
1558435086825737,-1,-3,-2,-4,-7,-7,-5,-2
1558435086833050,-4,-7,-7,-1,-10,-8,-4,-6
1558435086833050,0,1,-2,-3,-4,-4,-5,-2
1558435086841811,-3,-3,-3,1,-6,-1,4,-1
1558435086841811,3,4,4,2,8,2,4,3
1558435086855755,0,-1,0,-2,5,3,2,1
1558435086855755,-2,-1,0,1,-1,-3,-2,-1
1558435086862764,-2,2,-3,-7,-4,-6,-4,-1
1558435086862764,-3,-1,-1,2,4,-1,0,2
1558435086878722,-1,-3,-3,-2,-8,-2,-3,-3
1558435086878722,-3,-4,-1,3,-7,-6,-5,-4
1558435086885898,0,0,-1,-5,2,1,4,1
1558435086885898,-2,-1,-5,-2,-1,6,4,1
1558435086901846,2,1,0,4,1,0,-6,1
1558435086901846,-1,-2,-3,-3,-3,-1,3,0
1558435086903532,-2,-2,2,5,-3,1,2,-1
1558435086903532,2,3,6,7,6,2,1,-1
1558435086916777,0,-2,-13,-20,0,0,1,0
1558435086916777,-1,0,0,-3,-4,-6,2,-3
1558435086922487,-2,-5,-2,-6,-7,-7,-4,-3
1558435086922487,-3,-2,0,-3,-4,-3,-6,-3
1558435086938661,0,2,5,8,4,-5,0,-1
1558435086938661,-2,1,3,-2,-2,3,-1,0
1558435086945635,-2,0,-6,-4,0,1,-4,-2
1558435086945635,-4,-5,-5,3,-1,0,0,-4
1558435086962495,1,1,3,4,-5,-5,-3,-2
1558435086962495,-2,0,-5,-2,-3,-6,-4,-3
1558435086963372,3,-1,1,1,0,1,-3,4
1558435086963372,1,-1,-2,-6,5,8,4,5
1558435086976564,-3,-2,-2,-2,-5,-4,-4,-2
1558435086976564,-3,-3,0,0,-4,-5,-1,-3
1558435086983317,0,-3,3,-1,-5,-3,-2,-3
1558435086983317,1,-1,-2,-1,1,3,2,0
1558435086998278,-1,0,0,5,8,7,2,-1
1558435086998278,-2,-4,-11,-16,-6,-4,-6,-3
1558435087005261,-1,-1,1,-2,1,-3,0,0
1558435087005261,3,2,0,0,6,5,7,-1
1558435087021218,-1,1,3,7,-1,-3,0,0
1558435087021218,-3,-1,-2,-4,-8,-8,-9,-5
1558435087023210,-1,0,-1,2,-6,-5,3,2
1558435087023210,-1,-2,-1,-2,2,2,-1,-1
1558435087036211,2,1,4,6,8,6,2,3
1558435087036211,0,0,3,3,4,3,4,3
1558435087043157,-2,-2,-7,-7,-8,-6,-5,-7
1558435087043157,-3,-3,-2,-1,-11,-10,-7,-3
1558435087058142,-3,-5,-6,-8,-8,-1,-2,-1
1558435087058142,3,2,5,7,20,17,9,5
1558435087065124,2,0,1,1,3,3,-2,-2
1558435087065124,-1,-3,-3,-4,-3,-4,-5,-2
1558435087082051,-1,-3,-3,-5,-9,-7,-5,-3
1558435087082051,-2,-1,-1,0,-4,-4,-7,-3
1558435087083049,-1,-3,-2,3,1,2,6,0
1558435087083049,-1,0,-5,-6,-3,-3,-2,2
1558435087096020,-3,-1,3,-1,-2,-1,5,1
1558435087096020,-1,2,2,6,-1,-2,0,-3
1558435087102999,-5,-2,-4,-7,-1,-3,-10,-2
1558435087102999,1,0,0,1,-2,-3,2,2
1558435087119396,0,0,-5,-5,4,2,-1,0
1558435087119396,-1,-8,0,0,-1,1,3,-2
1558435087125353,-1,-1,6,3,-4,0,-2,-2
1558435087125353,-4,-4,-7,-4,0,-1,0,-2
1558435087142309,1,4,7,5,4,2,3,0
1558435087142309,-1,0,-12,1,-2,-5,-4,-2
1558435087142889,0,-3,-4,-12,-4,-2,-4,0
1558435087142889,-3,-1,0,-3,-4,1,-3,-5
1558435087155857,0,1,4,2,-2,-2,-3,-1
1558435087155857,0,-1,-3,3,10,5,5,4
1558435087162836,-3,-4,-11,-10,-1,-2,3,-2
1558435087162836,-1,2,3,5,-2,-3,-2,-2
1558435087178794,-1,-2,1,-1,-1,0,2,0
1558435087178794,-2,1,7,4,-8,-5,-1,1
1558435087185785,-3,-3,0,5,3,-1,-4,-1
1558435087185785,2,2,1,2,10,5,4,3
1558435087201731,-1,-1,-3,-4,-7,-5,-3,-5
1558435087201731,2,3,3,6,0,0,-1,-2
1558435087202729,-2,-7,2,1,-3,-2,-1,-2
1558435087202729,-7,-4,-9,-11,-13,-13,-11,-8
1558435087215696,-2,-3,1,12,7,5,-1,-2
1558435087215696,1,2,4,-8,3,3,5,5
1558435087222676,1,2,-4,1,4,6,0,1
1558435087222676,-1,-1,-2,-1,-3,-4,-1,0
1558435087239111,-2,-3,-8,-10,-6,-4,1,-1
1558435087239111,-2,-3,-1,0,-3,-5,-8,-6
1558435087245656,0,2,5,5,-3,-1,-1,1
1558435087245656,2,-1,0,6,13,7,4,3
1558435087261609,-1,0,-3,-5,-3,-3,-4,0
1558435087261609,-4,-3,-2,-1,-5,-1,-5,-2
1558435087263568,-2,-4,-5,-1,-8,-7,-4,-4
1558435087263568,-3,-3,-12,-16,-14,-6,-6,-5
1558435087276532,-2,-1,0,-3,0,3,4,0
1558435087276532,2,2,2,-1,8,5,3,1
1558435087283515,-1,2,2,10,3,2,-1,-1
1558435087283515,-1,-1,7,-4,-6,-5,-1,-2
1558435087298474,0,-1,0,5,5,-2,0,1
1558435087298474,-1,-2,-10,-4,-5,-4,1,-2
1558435087305457,0,-1,0,-2,1,6,2,0
1558435087305457,0,4,6,7,9,6,0,-2
1558435087321419,-4,-4,-2,-5,-10,-8,-7,-4
1558435087321419,-2,-7,2,2,0,0,1,0
1558435087323407,1,-2,-2,-2,-1,-6,2,2
1558435087323407,-2,0,3,4,4,4,3,4
1558435087336375,-2,0,-2,-3,-3,-1,-5,0
1558435087336375,-1,1,-1,4,-9,-9,-10,-5
1558435087342356,0,-3,-4,-16,2,2,3,0
1558435087342356,0,1,2,5,-4,1,1,0
1558435087358312,0,1,-1,4,4,2,0,-2
1558435087358312,-3,-2,-1,-4,-4,-4,-1,-4
1558435087365327,-2,-2,2,2,-4,-7,-1,0
1558435087365327,0,-1,-8,-2,1,-2,-3,1
1558435087381253,0,-1,-5,-5,3,7,5,3
1558435087381253,-1,1,3,0,2,7,0,-1
1558435087383247,2,2,-7,-2,0,-2,2,2
1558435087383247,-2,-1,1,3,-6,-7,-5,-3
1558435087395231,-3,-3,2,1,1,-2,-4,-2
1558435087395231,-2,-3,-3,-6,-2,1,-4,-2
1558435087404190,-3,1,0,2,-2,-5,-6,-2
1558435087404190,-3,-7,-6,2,-3,-3,-3,-1
1558435087419151,0,-1,-4,-8,0,0,4,1
1558435087419151,1,2,-1,-4,3,-3,2,1
1558435087425139,0,1,-1,-2,-2,2,-1,-2
1558435087425139,-2,-2,-1,-3,2,-1,-5,-4
1558435087442092,-2,-3,0,5,-5,-8,-8,-6
1558435087442092,-1,-2,-4,-5,-3,-3,1,1
1558435087443088,0,3,1,3,3,3,2,-2
1558435087443088,3,1,2,-7,9,8,5,3
1558435087455055,1,0,-1,-1,-3,-3,-3,0
1558435087455055,-2,-4,-8,-7,-9,-11,-6,-1
1558435087464032,-1,-2,1,5,3,1,4,-2
1558435087464032,-2,-2,-3,-2,-4,-3,0,-4
1558435087479003,0,-2,2,3,-2,-1,1,0
1558435087479003,0,-1,-8,-20,-6,-3,0,2
1558435087485974,-1,-1,0,0,-5,-2,-1,-1
1558435087485974,-1,-2,3,8,2,1,-5,-4
1558435087501205,-1,-1,-2,-10,-2,-2,-1,0
1558435087501205,0,1,8,23,6,2,-3,-3
1558435087503203,-2,-1,-1,-19,3,4,2,2
1558435087503203,1,-3,-4,1,1,1,-2,-1
1558435087515168,0,-1,0,2,-3,-6,-2,-2
1558435087515168,-3,1,4,5,5,2,-7,-3
1558435087524147,1,-1,-6,-6,0,0,3,3
1558435087524147,-1,0,0,-10,-9,-5,-2,-2
1558435087538307,-3,-1,-1,6,1,-1,-5,-7
1558435087538307,-2,-4,-7,-5,-3,-1,1,-1
1558435087545089,-2,-4,4,6,-3,-3,-4,-2
1558435087545089,0,2,-3,1,0,2,5,0
1558435087562042,-1,-3,-5,-5,-4,-4,-2,-2
1558435087562042,1,1,3,6,1,3,-1,-1
1558435087563041,1,5,4,5,6,7,4,1
1558435087563041,-2,-3,-2,-4,-2,-2,0,2
1558435087575306,-1,-2,3,6,2,3,0,-1
1558435087575306,-2,-1,3,4,-1,-2,-1,-2
1558435087583985,0,-1,-10,-13,-5,-5,-6,-2
1558435087583985,0,0,7,1,-4,-2,-1,1
1558435087598440,1,0,-4,-1,-1,-1,0,0
1558435087598440,-1,-3,-5,-9,-3,1,0,-1
1558435087605200,0,2,9,12,2,-2,-2,1
1558435087605200,1,4,3,-7,1,3,2,-3
1558435087621159,-1,-3,-9,0,-2,-3,-4,-2
1558435087621159,-1,0,-2,2,1,3,6,4
1558435087628360,-3,-6,0,8,-2,-1,-4,-4
1558435087628360,0,2,6,9,3,-1,0,0
1558435087644098,-2,-1,3,-19,-4,0,3,-1
1558435087644098,1,-1,-8,-9,-3,-1,-4,-2
1558435087646091,0,-1,0,3,1,-1,1,0
1558435087646091,0,1,3,2,-2,-2,-1,-2
1558435087658264,0,3,-5,-2,0,1,2,-2
1558435087658264,-2,-7,11,22,7,1,-1,-1
1558435087665042,-3,-1,-7,-21,-10,-3,-2,-1
1558435087665042,-6,-12,-18,-9,-5,-7,-6,-3
1558435087680999,3,3,4,0,4,2,1,1
1558435087680999,-1,-1,-1,-20,-5,1,0,-1
1558435087695959,-1,0,7,16,3,-3,-2,-3
1558435087695959,0,-1,-9,-6,-2,-1,0,2
1558435087696955,3,2,4,1,0,0,-5,1
1558435087696955,-2,3,7,15,1,-3,0,-1
1558435087703935,-1,-1,3,-3,2,-1,1,-1
1558435087703935,-4,-6,-21,-13,-7,-4,-4,-4
1558435087719117,-3,0,-4,0,-4,-2,0,2
1558435087719117,-2,-3,-4,-6,-3,-1,0,0
1558435087724915,-3,-4,-4,-5,-2,0,-3,0
1558435087724915,0,1,-1,3,-2,0,-1,-2
1558435087739843,-1,-2,-7,0,-1,-1,-1,1
1558435087739843,1,5,5,-5,-1,-2,0,0
1558435087747819,2,-1,4,7,1,-1,-3,-2
1558435087747819,3,2,15,12,4,1,2,2
1558435087763785,-2,1,-11,-26,-6,-6,-3,-5
1558435087763785,-4,-4,-5,0,0,-2,1,0
1558435087763785,-1,-9,-12,-6,-1,0,-1,1
1558435087763785,1,1,8,8,8,3,-1,0
1558435087779735,0,0,7,11,-2,-3,0,-1
1558435087779735,-2,-3,-11,-16,-9,-8,-2,-2
1558435087785917,2,7,2,-10,2,2,4,3
1558435087785917,1,3,4,5,3,2,-3,-2
1558435087800880,-2,0,4,9,0,-2,-5,-4
1558435087800880,-2,-6,9,12,9,4,2,0
1558435087807659,-2,-5,-5,1,3,6,1,2
1558435087807659,-2,-5,-6,-15,3,2,2,1
1558435087825889,1,-2,-7,0,-2,-3,2,2
1558435087825889,-2,-1,-6,3,-5,-14,-13,-9
1558435087825889,-1,4,1,-13,-23,-14,-7,-6
1558435087825889,0,-2,4,0,5,3,7,3
1558435087839575,-1,0,-10,-8,-4,1,0,1
1558435087839575,-1,-2,-4,-2,1,3,0,-1
1558435087845557,1,2,5,13,0,-8,-5,-1
1558435087845557,-1,2,3,5,-2,-4,-6,-2
1558435087861514,2,0,17,6,3,5,1,1
1558435087861514,-1,-5,-14,-6,-3,1,2,3
1558435087867500,-1,-3,-11,6,8,2,2,0
1558435087867500,0,1,6,-4,-9,-4,-4,-2
1558435087883502,-2,-2,-2,2,4,1,-2,-2
1558435087883502,2,5,3,-9,3,7,5,0
1558435087884454,0,-2,-2,-3,-1,-1,-2,-7
1558435087884454,-4,-4,-3,4,-6,-12,-6,-3
1558435087899413,-5,-4,-1,1,-6,-6,-3,-2
1558435087899413,0,-2,-3,3,-6,-1,-2,-1
1558435087905396,0,5,4,-1,6,2,3,1
1558435087905396,-3,-3,-1,0,-1,2,2,2
1558435087920358,-2,-6,-2,0,0,-2,-4,-2
1558435087920358,1,1,0,3,-3,-2,0,1
1558435087928410,-3,-4,-7,-4,2,5,-1,-3
1558435087928410,-2,3,-3,-6,-6,-5,-1,0
1558435087943298,-2,-6,-2,-2,0,3,3,-1
1558435087943298,0,0,2,1,4,-1,-1,0
1558435087944293,0,-2,2,6,1,2,3,1
1558435087944293,-2,1,-5,-4,2,2,-4,-4
1558435087959253,-2,-1,1,-3,-2,-2,20,5
1558435087959253,-3,-2,-6,-9,-9,-9,-28,-6
1558435087965240,-5,-9,-7,-4,-11,-8,-4,-2
1558435087965240,-2,-5,-4,-1,3,-4,-5,-8
1558435087980200,3,2,5,7,5,7,7,5
1558435087980200,3,4,2,-2,1,6,4,1
1558435087988175,0,2,1,-1,-8,-11,-5,-1
1558435087988175,2,0,2,1,-1,0,3,3
1558435088004132,1,2,1,11,12,11,4,3
1558435088004132,-3,-3,-9,-23,0,3,5,1
1558435088004132,-4,-9,-5,-3,-3,-2,-6,-3
1558435088004132,2,0,-1,1,-4,-6,0,-2
1558435088019094,-1,8,2,-6,-9,-7,-9,-4
1558435088019094,-4,-4,3,7,1,0,1,-1
1558435088025078,2,2,8,2,10,10,5,1
1558435088025078,-4,-3,-3,1,-9,-6,-5,-3
1558435088042035,-7,-10,-12,-16,-14,-14,-14,-11
1558435088042035,0,1,3,6,2,0,7,2
1558435088048015,0,2,4,4,8,9,7,5
1558435088048015,3,4,3,7,21,18,12,5
1558435088062978,1,0,-2,2,0,-5,-12,-3
1558435088062978,-1,-3,7,0,-9,-9,0,-1
1558435088063973,-3,-7,-5,0,-13,-7,-2,-1
1558435088063973,-5,-5,-19,-17,-12,-7,-9,-9
1558435088078933,-2,-1,-1,-2,-1,0,0,-3
1558435088078933,0,3,0,2,10,3,1,-1
1558435088084918,-1,3,4,1,2,1,-1,-2
1558435088084918,0,-1,2,0,-3,0,-2,4
1558435088101872,-1,-6,-3,-1,0,-2,-1,-2
1558435088101872,2,1,0,2,-9,-2,-1,-2
1558435088107857,1,-2,5,4,10,4,4,3
1558435088107857,-3,-1,-2,0,-2,-2,-4,0
1558435088123814,-1,-1,-1,-7,0,0,3,-2
1558435088123814,-2,-1,-4,-3,-3,-2,-2,-1
1558435088123814,1,2,-1,-4,-1,-3,-6,-2
1558435088123814,-1,-2,2,-3,-1,-4,2,1
1558435088138773,-3,-4,2,5,-1,-2,-2,0
1558435088138773,-1,-3,-1,1,-6,-7,-7,-5
1558435088145754,1,2,-4,-4,-1,1,4,-1
1558435088145754,-1,0,1,5,5,5,3,0
1558435088161715,1,1,3,0,0,0,-4,-2
1558435088161715,-2,-4,-5,-5,-2,-4,0,-1
1558435088167697,-4,-1,-6,-5,-7,-7,-6,-5
1558435088167697,1,-4,2,3,5,5,7,6
1558435088183654,0,1,0,2,7,6,0,1
1558435088183654,0,-1,-2,-6,-2,-4,-3,-4
1558435088184651,-3,-6,-2,-6,-7,-7,-4,-2
1558435088184651,-1,3,0,-5,-10,-7,-5,-5
1558435088199613,-3,1,-6,-4,-4,-4,-2,-1
1558435088199613,0,-4,1,7,11,5,5,4
1558435088205597,1,2,1,0,0,0,-1,0
1558435088205597,-3,-3,0,-3,-3,-3,-5,-6
1558435088221554,-2,-1,0,-2,-9,-7,-5,-3
1558435088221554,-2,4,-1,0,-6,-3,2,0
1558435088227537,-3,-3,-5,-2,-2,0,-6,-4
1558435088227537,1,-3,2,5,9,9,9,1
1558435088243493,0,-1,0,-5,8,9,4,1
1558435088243493,-4,0,-3,-1,-2,1,1,5
1558435088244490,-2,-4,2,2,-4,-3,-2,-11
1558435088244490,-3,-2,0,-3,-7,-12,-9,-4
1558435088266433,2,2,2,11,5,1,0,0
1558435088266433,1,-3,-7,-11,1,6,5,2
1558435088266433,-2,-4,-7,-7,-8,-6,-4,0
1558435088266433,-2,-1,0,-1,-8,-7,-7,-3
1558435088281393,0,2,-3,4,2,-1,2,-1
1558435088281393,2,2,6,-1,6,4,2,-1
1558435088287376,-1,-3,0,5,4,3,2,1
1558435088287376,-1,-1,-3,-9,-3,-2,0,-2
1558435088303334,0,-2,0,-5,-6,-2,-4,-1
1558435088303334,-3,-5,-1,1,-4,-4,-3,-4
1558435088304330,0,1,-2,0,5,3,4,7
1558435088304330,1,1,1,1,3,0,-1,-1
1558435088326281,-4,-6,-2,-5,-12,-10,-9,-4
1558435088326281,-1,2,1,6,4,-1,-2,0
1558435088326281,0,4,2,-2,-1,-3,-10,2
1558435088326281,1,-4,-3,4,5,3,10,6
1558435088341231,0,-3,-7,0,-1,1,-3,-1
1558435088341231,-2,-2,-8,-8,-9,-1,0,-3
1558435088348213,1,0,3,-1,9,8,5,4
1558435088348213,-4,0,2,2,-8,-4,-8,-5
1558435088363175,0,-2,-8,-11,-1,-1,3,-2
1558435088363175,-1,-10,-3,6,-3,-6,-6,-2
1558435088364171,-2,0,-1,-2,-1,-4,-4,-6
1558435088364171,3,1,2,3,16,13,6,2
1558435088386145,-2,1,11,10,-2,-4,-2,-2
1558435088386145,-5,-2,0,-5,-19,-12,-12,-5
1558435088387109,-6,-8,-24,-27,-22,-16,-8,-8
1558435088387109,4,5,7,3,13,13,12,8
1558435088402071,2,-2,1,8,9,9,2,3
1558435088402071,-2,0,2,6,5,3,-2,-3
1558435088408055,-3,-1,2,0,-10,-7,-2,-4
1558435088408055,-3,1,-6,-7,-9,-9,-5,-4
1558435088423015,0,-3,-1,-4,10,14,12,8
1558435088423015,1,2,7,8,10,6,1,-3
1558435088424010,0,2,2,-7,-5,-2,-4,-1
1558435088424010,-4,-4,0,-2,-6,-7,-5,-4
1558435088445951,-1,-3,1,-6,-9,-10,-6,-4
1558435088445951,0,-1,-10,-5,-3,-5,-1,0
1558435088446949,1,8,6,8,0,1,5,2
1558435088446949,-2,-12,-7,-4,1,-4,-2,0
1558435088461908,-4,-5,-7,-6,-6,-4,-9,-6
1558435088461908,2,0,8,1,9,9,7,4
1558435088467893,2,3,-1,13,5,6,2,-1
1558435088467893,-4,1,-10,-13,-13,-3,-3,-1
1558435088483849,-2,0,1,-2,-4,0,1,-2
1558435088483849,1,-1,-1,3,10,4,6,2
1558435088483849,0,-1,9,7,8,7,5,0
1558435088483849,-1,-1,6,6,-1,-5,-3,-3
1558435088505794,-3,-2,-1,-2,0,-10,-7,-3
1558435088505794,0,2,3,0,-8,-6,-4,1
1558435088506793,-5,-9,-8,-13,2,3,-4,-4
1558435088506793,-2,-1,-4,7,3,-3,-3,-2
1558435088521749,-2,-1,-3,-2,-13,-6,-2,-1
1558435088521749,0,0,-14,-23,-6,-4,0,1
1558435088527734,-1,-5,4,11,-7,-10,-7,-3
1558435088527734,2,10,5,-2,11,16,15,6
