timestamp,emg1,emg2,emg3,emg4,emg5,emg6,emg7,emg8
1558435015400177,-1,0,6,5,2,-1,-3,-2
1558435015400177,1,2,5,9,4,-1,0,1
1558435015401174,-7,-2,-5,-4,-3,-3,-1,-4
1558435015401174,-1,-2,-7,-6,-8,-5,-8,-4
1558435015402172,0,-1,2,-2,1,1,5,2
1558435015402172,1,-1,0,6,3,1,4,3
1558435015406160,0,-1,-2,-13,-2,2,0,0
1558435015406160,0,2,9,11,4,2,4,2
1558435015413143,-3,-4,-12,-9,-4,-3,-3,-4
1558435015413143,-1,0,-3,-7,-10,-7,-4,-4
1558435015424112,1,0,1,1,-7,-7,-1,-1
1558435015424112,-3,-2,-2,1,2,1,-2,-4
1558435015428102,-1,0,-7,-11,0,1,1,3
1558435015428102,0,-2,3,12,9,4,0,0
1558435015444059,2,0,2,4,6,5,-5,0
1558435015444059,-3,0,1,5,-1,0,4,-1
1558435015451041,-3,0,4,-6,-1,-2,-3,-6
1558435015451041,-2,-3,-13,-22,-15,-11,-7,-4
1558435015459021,0,-5,-1,1,2,-3,-7,1
1558435015459021,1,2,4,5,10,3,3,3
1558435015481958,-2,-4,-5,1,-2,-1,-2,-1
1558435015481958,-5,1,5,3,-6,-5,0,-2
1558435015482955,-2,0,-3,-1,2,1,1,-2
1558435015482955,-3,-8,-2,-11,-5,-4,-4,-3
1558435015528832,0,0,4,-11,-7,-6,6,-1
1558435015528832,-2,0,-11,-10,0,-4,-2,-3
1558435015528832,-3,1,-6,-2,1,0,-3,-3
1558435015528832,-2,-4,-7,-5,-4,1,-1,-2
1558435015529830,-1,2,7,8,4,4,-2,0
1558435015529830,1,3,16,16,7,5,1,4
1558435015532821,-2,-5,-18,-17,-7,-2,2,2
1558435015532821,1,5,3,0,2,-2,-4,-2
1558435015540801,-2,-9,-3,-11,-11,-6,-5,-4
1558435015540801,4,1,4,4,5,0,4,1
1558435015555760,-1,-1,2,3,0,-2,-1,-1
1558435015555760,-2,-1,6,11,8,0,-2,-2
1558435015556758,-2,0,-10,-5,-5,1,-7,-2
1558435015556758,3,-1,-5,-9,0,4,5,2
1558435015569723,-1,-1,4,5,-1,-6,-4,-4
1558435015569723,1,-2,-1,-4,-3,-1,-1,-1
1558435015578700,2,6,3,7,3,-2,1,1
1558435015578700,-5,-6,-6,-4,-2,1,-2,-1
1558435015592663,-1,5,1,-1,3,7,-1,-1
1558435015592663,-5,-10,-7,-10,-4,-2,-1,-2
1558435015600641,-1,2,6,12,1,-3,-5,-2
1558435015600641,-4,-1,-7,-11,-13,-6,-4,-1
1558435015607623,0,-1,3,1,-2,-4,-5,-3
1558435015607623,2,4,3,1,5,2,2,0
1558435015615601,0,2,-9,-6,4,5,5,2
1558435015615601,0,-2,4,2,-1,-4,-4,-4
1558435015630560,1,1,3,1,-4,-1,4,2
1558435015630560,-4,-6,-12,-8,-13,-10,-5,-3
1558435015638539,1,1,3,7,10,4,-1,1
1558435015638539,-3,-4,-6,-18,-11,-5,-3,0
1558435015652501,0,-2,7,9,3,-4,-6,-3
1558435015652501,1,2,2,-1,-3,3,5,3
1558435015660480,-1,-1,1,-2,-2,-3,-1,0
1558435015660480,-3,0,-1,6,-4,-2,-6,-4
1558435015667462,0,-2,2,-2,9,8,5,1
1558435015667462,-1,0,-4,-11,-4,-3,-1,1
1558435015683419,-1,0,-6,0,-2,-2,-3,-3
1558435015683419,2,-1,5,11,-2,-5,-9,-1
1558435015690401,1,0,1,-1,4,5,10,1
1558435015690401,-5,-7,-5,-8,3,3,-1,-4
1558435015698380,-3,-5,-3,2,-3,-4,-2,-2
1558435015698380,-3,-4,-5,-6,-1,3,3,-4
1558435015712342,-1,-1,-5,1,-8,-12,-8,-3
1558435015712342,-1,1,5,-2,-8,-6,-4,0
1558435015721319,0,-2,-6,-5,7,2,4,-1
1558435015721319,1,-1,2,9,2,-4,-4,-3
1558435015729297,-4,-4,-7,-4,-3,-2,-3,-4
1558435015729297,-2,-2,3,6,-4,-6,1,-1
1558435015735280,-1,-4,-5,-5,3,7,4,0
1558435015735280,-1,0,0,-3,2,1,2,-1
1558435015750240,1,-1,-3,-2,-4,-3,-2,3
1558435015750240,3,4,2,7,6,3,-2,0
1558435015758220,-3,-7,-2,3,-5,-4,-3,-1
1558435015758220,-1,1,3,4,-3,-1,-3,-2
1558435015773179,-2,-1,-5,-15,-3,1,0,-2
1558435015773179,2,2,5,10,7,3,4,4
1558435015781158,3,3,3,-8,1,6,1,2
1558435015781158,0,1,-1,6,5,4,2,-2
1558435015788139,-3,-5,1,1,-12,-12,-9,-5
1558435015788139,0,0,-4,2,5,0,-1,2
1558435015795124,2,1,2,-8,-2,2,11,2
1558435015795124,-2,-1,4,-4,-5,-2,1,0
1558435015810081,-1,-2,-5,4,2,0,-4,1
1558435015810081,0,-3,-3,-1,-2,-6,-1,-3
1558435015818059,-2,-3,-2,2,-7,-9,-8,-2
1558435015818059,-1,-4,-2,-4,-6,-4,0,-2
1558435015833020,2,-1,-6,-18,-2,0,1,-1
1558435015833020,-3,-1,-4,-5,1,4,-3,-3
1558435015840998,-1,-1,0,6,0,-1,-4,-2
1558435015840998,0,-1,-4,-7,1,2,3,0
1558435015847979,-2,-2,2,1,-2,-2,-2,-3
1558435015847979,0,-1,3,5,-6,-7,-3,0
1558435015854961,-3,-4,8,7,4,2,-2,-2
1558435015854961,-3,-5,-14,-11,1,6,3,1
1558435015869921,0,2,4,5,8,5,-2,2
1558435015869921,-2,1,-3,-3,-6,-6,0,-5
1558435015877900,-2,0,3,2,2,-2,-2,-3
1558435015877900,-1,0,5,6,-1,-6,-9,-2
1558435015892861,-3,-3,-3,-1,-6,-1,-1,-2
1558435015892861,0,-3,-9,-17,-6,1,0,0
1558435015900838,-1,1,1,3,0,0,-3,-1
1558435015900838,1,0,-4,-5,-2,-1,1,0
1558435015907819,0,-1,0,1,0,1,1,0
1558435015907819,-2,2,5,10,1,4,-2,0
1558435015923776,-2,-3,-8,-8,-8,-7,-6,-4
1558435015923776,1,1,2,5,0,-6,3,0
1558435015929762,-1,-1,2,13,0,-2,-2,-1
1558435015929762,2,2,0,-11,11,10,5,1
1558435015938738,-3,-8,-8,-4,-8,-1,1,-2
1558435015938738,-2,-4,3,6,-3,-5,-7,-3
1558435015952699,0,0,-5,-5,9,3,2,1
1558435015952699,-2,-3,-8,-10,-8,-4,-5,-2
1558435015960679,1,0,2,-5,-6,-9,-9,-5
1558435015960679,-1,-1,-1,-4,-3,5,6,2
1558435015967659,2,2,1,8,13,10,5,2
1558435015967659,-2,-4,-3,8,0,-2,-1,0
1558435015983619,2,4,10,-3,-2,-1,3,3
1558435015983619,-2,-1,-13,-1,-7,-7,-5,-2
1558435015990598,-4,-5,-12,-27,-11,-5,-6,-3
1558435015990598,-3,-2,5,15,1,-1,3,-4
1558435015998579,-3,-5,-10,-9,-3,-7,-2,-1
1558435015998579,2,3,10,11,9,1,0,3
1558435016012539,-3,-2,1,7,0,1,2,-3
1558435016012539,-1,-1,-4,-12,-10,-8,-6,-2
1558435016020517,-3,0,-7,-9,-12,-2,-1,0
1558435016020517,-1,0,-1,-2,12,10,3,2
1558435016027499,2,1,6,4,2,-1,-2,2
1558435016027499,1,1,2,11,-4,-3,-4,-1
1558435016043456,1,1,-3,-3,-3,-5,-2,-1
1558435016043456,-3,-5,-4,-9,-7,-3,2,0
1558435016050436,-1,-1,1,-2,-1,-2,-4,-5
1558435016050436,0,3,11,25,14,10,6,3
1558435016058416,0,0,-6,-6,-1,2,0,2
1558435016058416,-1,-1,0,6,6,4,-4,-4
1558435016072381,-2,-4,-10,-16,-16,-6,-3,-2
1558435016072381,-3,-3,-2,-11,3,1,0,-1
1558435016081354,1,3,7,8,7,2,0,0
1558435016081354,-2,0,1,3,1,2,1,-2
1558435016087338,0,-1,0,8,-1,-2,0,0
1558435016087338,1,-1,-1,-6,1,3,2,0
1558435016103296,2,4,0,4,4,1,2,1
1558435016103296,-3,-3,-4,-10,-8,-7,-3,-2
1558435016110278,-3,-4,-4,-6,1,-2,-1,-3
1558435016110278,-5,-3,-9,-12,-9,-5,-5,-2
1558435016118258,-2,0,0,3,0,-4,-4,-1
1558435016118258,1,1,2,-5,-3,-2,0,2
1558435016132218,-2,1,4,13,0,-4,-3,-1
1558435016132218,0,-2,-4,-16,-9,-3,-5,-3
1558435016141195,0,-4,1,5,9,9,2,-1
1558435016141195,-2,0,-2,-7,-7,-3,-4,-3
1558435016147180,-3,-2,5,6,-3,-5,0,-1
1558435016147180,0,-2,-8,-4,-2,-4,3,0
1558435016163136,1,2,-1,3,7,5,2,2
1558435016163136,1,1,2,7,4,1,3,2
1558435016170118,0,0,3,2,3,4,3,2
1558435016170118,-2,4,7,4,-3,-5,-7,-4
1558435016178096,-6,-4,-12,-7,-9,-10,-7,-8
1558435016178096,-3,-9,-12,-32,-19,-7,-5,-7
1558435016193057,1,0,4,8,1,3,5,1
1558435016193057,2,-1,7,1,1,0,0,1
1558435016201034,-1,0,-2,1,4,1,-3,0
1558435016201034,3,3,-1,0,5,2,-3,1
1558435016208026,-1,-2,0,6,-6,-5,1,-2
1558435016208026,1,0,3,-1,2,6,2,0
1558435016222981,1,1,8,14,2,2,1,3
1558435016222981,-4,-2,-6,6,-4,-3,-3,-5
1558435016229958,-3,-6,-26,-34,-10,-1,-1,-2
1558435016229958,-1,0,2,2,0,-5,-2,-2
1558435016237936,-2,-4,2,-2,-3,-3,-8,-4
1558435016237936,0,-1,3,5,3,1,3,2
1558435016252896,1,0,8,15,10,5,3,1
1558435016252896,-4,-1,-5,-4,-1,4,2,2
1558435016260874,-3,-2,0,-6,-1,1,3,-2
1558435016260874,0,1,0,1,0,-5,-5,-1
1558435016267855,1,1,-1,12,9,3,-2,0
1558435016267855,-1,-5,-7,-11,-8,-4,3,-3
1558435016283814,1,0,2,-3,0,5,3,2
1558435016283814,0,-1,0,13,13,4,-2,-1
1558435016289810,-2,3,-9,-24,-13,-1,0,-1
1558435016289810,-3,-5,-1,5,0,-1,-9,-1
1558435016297776,-4,-4,-7,-12,-15,-9,2,-2
1558435016297776,1,0,-1,2,-1,-2,1,0
1558435016312747,1,2,6,8,3,1,-5,-1
1558435016312747,-2,0,3,11,0,-2,-2,-2
1558435016320718,-1,2,-4,-17,-9,-4,2,-2
1558435016320718,-2,-7,-6,1,8,8,-4,-1
1558435016327698,0,-1,5,3,-2,-3,2,-3
1558435016327698,0,-1,-6,6,4,2,2,0
1558435016343655,-1,-2,-3,-7,-3,-2,2,0
1558435016343655,3,3,9,4,3,-1,-3,0
1558435016350635,-1,1,0,1,-4,-7,-5,-3
1558435016350635,0,-4,-13,-10,-2,-3,-2,-1
1558435016357618,-3,-7,-5,5,-7,-5,-6,-2
1558435016357618,0,0,1,-3,3,11,6,1
1558435016372580,-2,-4,-5,-1,0,-1,-2,-4
1558435016372580,2,3,4,-2,-7,-6,-1,2
1558435016380567,-1,0,-2,6,5,0,-2,0
1558435016380567,3,3,4,-3,-6,-2,-3,3
1558435016387542,-1,-2,3,5,-1,3,0,0
1558435016387542,0,0,-6,-13,12,4,1,-2
1558435016403493,1,0,2,0,-7,-3,-3,-1
1558435016403493,-3,2,1,13,2,-6,-3,-4
1558435016410487,-1,-1,1,-16,-16,-8,-1,-2
1558435016410487,-2,-4,-6,-1,3,1,-5,-3
1558435016417463,-4,-3,2,8,3,-2,-2,-7
1558435016417463,-1,2,0,6,-3,-5,0,-2
1558435016432423,-1,1,-4,-5,-3,1,0,1
1558435016432423,-4,-3,5,1,0,3,1,0
1558435016440394,2,2,-3,0,1,0,1,2
1558435016440394,-3,3,2,-3,-3,0,-5,-2
1558435016447379,-2,-4,-5,-21,-7,-5,-2,-1
1558435016447379,3,3,7,15,7,2,2,1
1558435016463332,-2,1,-2,-1,1,3,-1,0
1558435016463332,-4,-8,-2,-8,-4,-4,4,0
1558435016470316,-1,-2,-8,1,0,4,2,1
1558435016470316,1,2,3,3,3,3,-2,-2
1558435016477297,-1,-3,2,-8,-8,-3,-6,-1
1558435016477297,-4,-7,-14,-12,-7,-6,-1,0
1558435016492254,2,1,4,2,2,-3,-5,0
1558435016492254,-2,-1,-6,-1,-1,0,2,-1
1558435016501231,1,1,2,7,-2,-2,1,2
1558435016501231,-2,-1,0,-13,-8,0,-4,-2
1558435016515202,1,0,7,19,15,6,1,0
1558435016515202,-1,-2,1,3,-7,-10,-9,-4
1558435016523175,-1,-3,-11,-17,-2,4,2,0
1558435016523175,-2,-3,-3,3,8,7,3,5
1558435016538195,4,2,2,1,2,0,1,2
1558435016538195,-1,-1,3,4,-5,-2,6,2
1558435016539139,-2,0,0,3,2,-6,-6,-4
1558435016539139,-1,-1,-3,-5,-16,-11,-6,-6
1558435016553101,-3,4,7,8,3,4,-3,-2
1558435016553101,-3,-8,-9,-7,-2,-3,-4,-5
1558435016561177,-2,-1,3,10,6,4,5,1
1558435016561177,2,2,-7,-25,-1,4,1,2
1558435016575040,-1,-3,-2,0,-6,-4,-3,-3
1558435016575040,-2,-1,1,-2,-7,-3,-1,-3
1558435016584012,1,-1,3,4,4,2,-3,-2
1558435016584012,0,2,4,15,9,-4,-1,-3
1558435016598054,-3,-3,-7,-7,-8,-5,4,1
1558435016598054,-2,-4,-3,-4,-3,0,-2,0
1558435016606960,0,-5,-7,-2,5,10,7,3
1558435016606960,0,2,12,24,6,-4,-2,-1
1558435016613157,-2,-6,-19,-31,-9,-7,-5,-2
1558435016613157,1,-1,0,-9,-1,-3,-2,1
1558435016622406,-1,0,2,-6,-6,-2,-2,-3
1558435016622406,0,-1,2,0,-9,-3,-3,-3
1558435016635883,-3,1,-2,6,4,0,-1,-1
1558435016635883,-3,-2,4,7,-3,-4,0,-1
1558435016644059,-3,-5,-5,-7,-2,0,-4,0
1558435016644059,0,0,-1,-3,5,2,3,1
1558435016657820,2,-2,4,8,5,1,3,0
1558435016657820,-2,1,-2,-7,-1,-1,-3,-3
1558435016666789,-1,3,7,12,2,-5,-4,-6
1558435016666789,-3,-5,-5,-15,-18,-2,0,-2
1558435016681749,0,-3,-12,-21,1,2,0,-1
1558435016681749,1,1,2,0,5,2,4,3
1558435016682747,0,0,-10,-2,2,0,-2,0
1558435016682747,-1,0,-3,0,-2,-1,0,-2
1558435016694715,-2,0,8,11,-5,-6,-5,-2
1558435016694715,-3,-4,-6,-11,-8,-4,-6,-4
1558435016703693,-2,-1,2,1,-7,-5,2,-2
1558435016703693,-1,-1,1,3,7,3,2,1
1558435016717655,0,0,3,-1,5,7,0,0
1558435016717655,-2,0,-8,8,-5,-4,-3,-1
1558435016726629,2,-3,-7,-17,-5,-1,4,2
1558435016726629,0,-4,-8,-5,-6,-5,0,-2
1558435016732612,-1,3,5,6,-7,-2,-5,-3
1558435016732612,-2,0,0,-4,2,-1,-2,-2
1558435016741589,-5,-3,1,3,-5,-6,0,-3
1558435016741589,-2,-2,-1,-1,0,2,0,-1
1558435016755564,-2,-6,-5,-2,6,1,0,0
1558435016755564,2,1,2,1,2,6,-2,0
1558435016764529,-1,0,-1,10,4,2,5,3
1558435016764529,0,1,4,-9,0,-1,-1,1
1558435016777499,-1,-5,-7,3,-11,-11,-5,-2
1558435016777499,-3,-1,0,-1,-2,1,1,-2
1558435016786468,0,-1,-6,-24,-3,-8,-7,-2
1558435016786468,1,2,5,10,6,7,5,3
1558435016792452,1,3,7,7,8,8,6,3
1558435016792452,1,3,0,7,17,10,3,1
1558435016801428,-1,-3,5,11,-6,-5,-4,-3
1558435016801428,-5,-5,-6,-4,-5,-8,-7,-4
1558435016815392,-3,-5,-12,-12,-11,-11,-8,-5
1558435016815392,-2,-2,-2,0,-10,-8,-4,-1
1558435016824366,3,8,14,9,9,11,7,4
1558435016824366,-1,-2,-8,1,6,2,-4,-3
1558435016838410,-2,2,1,1,-1,3,6,-1
1558435016838410,-1,-6,-8,-7,1,1,1,2
1558435016846310,-1,-1,-2,0,-6,-4,-5,-2
1558435016846310,1,0,5,-4,-4,-7,-4,-3
1558435016853291,-1,0,3,9,-1,-2,-4,-1
1558435016853291,0,1,-4,-14,-3,-5,1,0
1558435016861464,-2,-4,-5,-5,1,4,-3,2
1558435016861464,2,1,-1,9,9,4,5,4
1558435016875433,-1,0,3,0,0,-3,-5,-3
1558435016875433,0,-1,0,0,-10,-5,0,-1
1558435016884207,-1,-4,-4,-3,4,-3,-5,-4
1558435016884207,0,1,2,0,-4,0,-2,0
1558435016897391,1,-1,-1,2,3,-2,-2,-1
1558435016897391,-3,-3,1,3,-2,5,4,1
1558435016906441,0,2,-4,-13,1,6,5,3
1558435016906441,-4,-1,-7,-7,-6,-4,-5,-6
1558435016913441,-2,-4,-1,-3,-1,1,-1,-1
1558435016913441,0,-4,-2,5,1,-5,-6,-4
1558435016921431,-3,-2,-1,9,-11,-12,-6,-4
1558435016921431,-1,-2,-4,-6,-5,-7,-3,-4
1558435016935327,1,0,6,-1,3,-3,0,0
1558435016935327,2,2,-1,1,16,24,9,3
1558435016944130,1,3,16,31,18,10,11,2
1558435016944130,-5,-10,-26,-39,-19,-8,-10,-5
1558435016958208,-3,2,-3,-4,-6,-9,-5,0
1558435016958208,-2,-3,-3,-4,-12,-10,-2,-1
1558435016966999,1,3,3,0,10,11,8,1
1558435016966999,-2,1,7,14,1,-2,-1,1
1558435016973290,1,-2,1,4,8,12,10,4
1558435016973290,-2,-1,6,19,2,-4,-6,-1
1558435016981954,-4,-3,-6,-9,-9,-7,-7,-2
1558435016981954,-1,-3,4,-1,-3,-10,-1,0
1558435016995132,-3,-5,-8,-6,-3,4,-2,-1
1558435016995132,3,6,2,-1,4,4,4,3
1558435017004006,-2,-6,-6,0,-3,-3,0,-1
1558435017004006,-1,0,0,2,-7,-7,-6,-2
1558435017017859,-3,0,-2,-2,2,4,1,-6
1558435017017859,1,-1,1,-3,-5,3,3,0
1558435017026842,1,2,0,-2,3,0,-4,-1
1558435017026842,-1,-1,1,6,5,5,4,0
1558435017041829,1,0,2,-1,-6,-8,-7,-3
1558435017041829,-4,-6,-14,-19,-18,-14,-9,-7
1558435017042789,-2,-3,-3,-14,-1,1,1,0
1558435017042789,-3,-3,-2,3,1,2,-1,0
1558435017055756,-1,-2,2,1,3,5,-1,-2
1558435017055756,0,3,6,12,5,3,-2,0
1558435017064194,-3,-1,-8,-9,-6,-5,0,-2
1558435017064194,2,2,9,8,8,1,3,0
1558435017078164,-4,-2,-5,-2,-9,-7,-3,-4
1558435017078164,0,-2,-4,2,2,-2,0,-3
1558435017086133,1,-4,-12,-18,0,4,1,-1
1558435017086133,-2,-4,-6,-4,-13,-5,-1,-1
1558435017101091,-3,-3,0,0,-1,-2,-4,0
1558435017101091,0,1,5,2,-1,-3,0,-2
1558435017103089,1,1,0,-2,1,1,-1,-1
1558435017103089,-1,1,6,16,6,4,-2,-3
1558435017115055,-4,-6,-11,-10,-11,-11,-8,-2
1558435017115055,-2,-4,-6,-6,-3,-1,3,0
1558435017124029,0,0,2,6,0,2,-2,-2
1558435017124029,3,1,-1,-6,6,3,3,1
1558435017138353,1,1,5,4,1,2,2,-1
1558435017138353,0,1,5,-2,-1,-7,-8,-4
1558435017146969,-1,-2,1,17,-2,1,-2,0
1558435017146969,-1,-3,-3,-19,-7,-3,-1,-1
1558435017161962,2,-1,-10,-10,0,0,5,0
1558435017161962,3,1,-2,-6,0,-1,0,4
1558435017162925,-1,0,2,2,-10,-8,-6,-2
1558435017162925,-1,3,7,11,6,6,5,2
1558435017175079,-2,-1,3,4,4,2,-2,0
1558435017175079,-2,0,-3,-7,0,-3,-8,-2
1558435017184312,-3,-4,-2,3,-4,-5,0,-3
1558435017184312,2,1,2,13,5,6,5,2
1558435017197835,1,-4,-9,-13,-5,-8,-3,-2
1558435017197835,-2,0,0,-4,-1,1,0,-2
1558435017206810,-3,1,0,2,3,1,-3,-2
1558435017206810,-5,-7,-9,-10,-9,-3,-7,-6
1558435017222075,-2,-1,5,8,2,1,3,1
1558435017222075,-3,-2,-2,6,3,1,0,1
1558435017222768,1,0,1,-5,1,3,0,2
1558435017222768,3,3,3,1,6,0,2,0
1558435017235990,1,3,-3,-11,-4,-2,-2,-1
1558435017235990,-4,-7,-5,1,-1,-4,-4,-6
1558435017244011,-4,-4,-6,-8,-16,-12,-9,-2
1558435017244011,-1,-1,-9,-24,3,6,2,1
1558435017257973,0,-1,5,9,0,4,3,-2
1558435017257973,1,0,-1,0,7,4,5,2
1558435017266680,1,3,9,8,6,5,3,1
1558435017266680,-2,-1,-5,-2,-7,-9,-8,-5
1558435017281609,-4,-2,4,2,-5,-6,-5,-3
1558435017281609,-1,-4,-7,-6,-5,2,2,2
1558435017282606,-3,-3,-5,-11,-6,-8,-2,-1
1558435017282606,-2,0,-2,-11,-5,-4,-7,-2
1558435017295575,3,2,2,-1,-1,2,1,0
1558435017295575,3,3,9,13,11,2,4,4
1558435017304551,1,2,-2,-1,4,4,2,-2
1558435017304551,-2,-3,-2,1,-6,-4,-5,-3
1558435017317513,-4,-3,-1,4,-5,-6,-3,-4
1558435017317513,-1,-1,0,1,-5,-4,-3,-2
1558435017326496,0,-1,-10,-16,-3,-1,3,5
1558435017326496,0,2,-1,3,11,6,3,1
1558435017341727,-3,-2,1,2,2,5,-1,-1
1558435017341727,-1,-2,-3,-4,-8,-10,-7,-4
1558435017343667,-2,-2,3,7,-1,-5,-2,-4
1558435017343667,0,-4,-4,-1,-1,1,-1,-2
1558435017354836,2,2,0,-1,2,3,3,4
1558435017354836,-1,3,-4,-4,2,7,3,2
1558435017364065,-3,-5,-6,-5,-3,-2,-5,-4
1558435017364065,-1,-2,1,7,-6,-7,-2,0
1558435017378055,0,0,2,6,3,-1,-1,-1
1558435017378055,-2,-1,1,-3,-4,-4,-3,-4
1558435017386692,1,2,-1,7,6,1,-2,0
1558435017386692,0,-2,0,7,3,2,4,3
1558435017401869,-2,-3,-9,-13,-3,0,1,0
1558435017401869,-3,-4,1,-2,-9,-6,-4,-3
1558435017402650,0,-3,-3,-1,3,6,1,0
1558435017402650,2,4,4,3,0,0,-2,0
1558435017415620,-5,-8,-13,-8,-10,-9,-9,-5
1558435017415620,1,3,8,8,8,3,4,2
1558435017423620,-2,-2,-6,-9,-4,-1,-3,-1
1558435017423620,3,1,4,-2,6,7,3,3
1558435017437849,0,2,9,23,5,2,0,2
1558435017437849,-4,-4,-9,-10,-6,-8,-3,-5
1558435017446533,-1,2,2,-4,-7,-7,-7,-1
1558435017446533,-4,-3,-4,-1,-1,-3,0,-2
1558435017461819,1,1,0,-10,0,4,4,2
1558435017461819,-2,-3,3,11,2,-1,-3,-4
1558435017463492,-3,-2,-4,-1,-2,-1,-1,-2
1558435017463492,-5,-5,-5,-9,-8,-3,-3,-4
1558435017475768,3,2,2,9,11,6,7,4
1558435017475768,0,-2,-3,-2,-4,-2,-3,-1
1558435017484436,1,-1,1,-1,-7,-3,5,0
1558435017484436,-3,-5,-14,-4,-1,-6,-5,-2
1558435017497410,-5,-3,-6,-14,-10,-6,-4,-3
1558435017497410,-2,1,-2,-8,-4,-1,-2,0
1558435017506372,-1,-2,3,4,1,-2,-6,-1
1558435017506372,2,2,8,15,2,3,11,1
1558435017520331,-1,1,0,2,3,0,-1,0
1558435017520331,3,1,0,-4,6,5,6,4
1558435017544267,-3,-3,-6,1,0,0,1,-1
1558435017544267,-2,-2,-2,3,-5,-9,-7,-4
1558435017545263,-3,-3,-11,-26,-9,-3,-8,-4
1558435017545263,-1,-5,0,0,0,3,3,2
1558435017546262,-1,3,1,-8,-3,-2,2,-1
1558435017546262,0,-1,4,7,3,5,-1,1
1558435017566208,2,-1,1,8,5,4,3,0
1558435017566208,-1,-3,-14,-20,-14,-8,-6,-4
1558435017568203,1,1,4,4,2,0,-1,1
1558435017568203,-5,0,-10,-9,-6,1,4,-1
1558435017581172,-3,0,3,6,1,-1,0,-2
1558435017581172,-1,-2,-2,3,2,2,1,0
1558435017583166,-1,-3,3,6,-3,-7,-2,-1
1558435017583166,-2,2,-1,-21,-10,-4,-4,-3
1558435017595571,0,-1,0,8,1,0,-2,-2
1558435017595571,-1,2,1,2,5,5,3,4
1558435017604112,0,0,-6,-5,1,-1,-3,2
1558435017604112,-2,0,5,4,-6,-7,-6,-3
1558435017618457,2,1,1,8,6,3,4,2
1558435017618457,1,-1,-1,-6,-1,0,-7,-2
1558435017627329,2,0,2,6,6,7,10,3
1558435017627329,2,0,3,7,2,0,-5,-1
1558435017641314,-4,-5,-11,-13,-11,-7,-3,-3
1558435017641314,-4,-3,-5,8,-6,-10,-7,-5
1558435017647991,0,0,-2,-16,-15,-7,-4,-3
1558435017647991,-2,-2,-10,-4,4,3,4,1
1558435017655001,3,5,5,4,10,5,2,3
1558435017655001,2,2,5,-3,-6,1,3,1
1558435017664052,-5,-4,-5,-2,-1,-3,-5,-5
1558435017664052,-2,0,3,11,2,-1,-1,0
1558435017678203,0,-5,-10,-16,-8,-2,0,1
1558435017678203,0,-1,-1,-7,6,6,0,-1
1558435017694061,0,1,2,10,4,2,-3,-2
1558435017694061,0,0,-2,-22,-6,-8,1,1
1558435017700856,-1,-1,2,11,-2,-4,-1,-1
1558435017700856,-3,-2,-5,-7,-4,-4,-2,-3
1558435017715809,-2,0,3,10,8,7,6,1
1558435017715809,1,1,5,15,10,13,2,-1
1558435017723794,-1,-1,-5,-17,-11,-1,0,-2
1558435017723794,-3,-3,1,2,-4,-7,-1,-3
1558435017725783,1,-1,3,2,-8,-6,-5,-3
1558435017725783,0,-5,-14,-13,-4,-5,0,2
1558435017737750,0,0,1,-4,6,7,2,3
1558435017737750,-1,0,0,3,0,0,0,-2
1558435017753949,-1,0,0,6,2,0,-1,0
1558435017753949,-2,-2,2,-4,-4,1,-1,-1
1558435017761045,-1,1,3,3,-2,-6,-3,-1
1558435017761045,-3,-4,-6,-4,-5,-3,0,-1
1558435017769312,0,-1,-4,-6,2,5,0,-1
1558435017769312,0,0,-5,0,-5,-6,-6,-5
1558435017775994,-3,-3,-1,-5,-8,-12,-9,-8
1558435017775994,-2,-1,2,4,-2,1,-1,-1
1558435017784262,0,-1,2,5,8,2,6,1
1558435017784262,-2,-1,-1,5,5,6,2,0
1558435017797835,-3,-2,1,-3,7,1,-4,-3
1558435017797835,-3,-2,1,-2,-9,-8,-7,-4
1558435017806812,-1,-1,-6,-9,-3,1,0,1
1558435017806812,0,-3,-4,-6,-6,-4,-1,-1
1558435017829117,-3,-4,-4,6,-8,-11,-7,-3
1558435017829117,-1,1,-1,1,9,4,-1,0
1558435017830750,-2,1,-2,0,-3,1,3,-1
1558435017830750,5,4,10,0,4,4,3,4
1558435017835985,1,1,7,30,11,5,6,2
1558435017835985,0,-3,-8,-36,-8,-6,-4,-1
1558435017844013,-3,-4,-7,-4,-11,-11,-8,-2
1558435017844013,-2,-2,-1,2,-6,-6,-6,-3
1558435017857921,1,2,4,1,1,5,1,0
1558435017857921,-1,-1,2,7,4,4,-1,-2
1558435017866660,-2,-4,-3,-14,1,-3,-1,-3
1558435017866660,-1,-2,6,12,11,9,7,4
1558435017880667,3,3,-1,-8,4,9,6,4
1558435017880667,-2,-2,-2,17,5,-2,-1,-3
1558435017887827,0,0,0,-8,-6,-6,-9,-2
1558435017887827,-1,0,-6,5,-5,-6,-1,-1
1558435017895798,-3,-1,2,-6,-11,-6,-5,-2
1558435017895798,1,1,-2,-1,3,2,2,2
1558435017904555,-2,-3,-1,6,5,5,2,0
1558435017904555,0,-1,4,-1,-5,-3,-4,-2
1558435017917808,-3,-3,-1,11,1,2,-1,-3
1558435017917808,0,-3,-5,-10,-6,-2,1,-2
1558435017926496,-1,1,9,12,2,-2,-1,0
1558435017926496,-2,-2,-6,-12,1,2,-3,-2
1558435017941453,-4,-4,-9,-9,-8,-6,-6,-4
1558435017941453,-2,1,3,3,-9,-5,0,0
1558435017947438,1,0,-2,8,9,-3,-1,1
1558435017947438,-1,-1,-2,-13,4,5,-1,-1
1558435017964390,0,-4,-7,-9,2,7,9,3
1558435017964390,-1,0,0,2,2,-2,1,1
1558435017965390,-3,-2,-1,0,-6,-5,-2,-1
1558435017965390,-1,-2,2,-6,-17,-10,-7,-4
1558435017977698,-1,-1,-7,-7,-2,-3,-6,-5
1558435017977698,-1,-3,-6,-6,-3,-2,-6,-4
1558435017986640,-1,-3,-4,-3,-4,-2,2,-2
1558435017986640,-1,-2,-3,4,3,4,9,1
1558435018001550,1,0,6,-4,7,7,3,2
1558435018001550,-2,0,1,5,2,0,-1,1
1558435018007276,-3,-1,-6,-8,-5,2,-4,-5
1558435018007276,-2,-2,2,5,1,-4,-5,-5
1558435018024623,0,0,3,4,-6,-6,-4,-1
1558435018024623,0,-2,-4,-7,-6,-4,3,2
1558435018026253,-2,-2,-7,-15,-9,-8,-6,-4
1558435018026253,-1,-2,2,17,11,6,1,1
1558435018037548,4,5,9,8,21,12,9,6
1558435018037548,0,-3,-6,-16,-4,0,-2,-1
1558435018046474,1,0,6,5,0,3,3,0
1558435018046474,-1,-5,-15,-12,-11,-6,-4,-4
1558435018061381,-4,-3,-3,2,-5,-13,-9,-7
1558435018061381,-2,-2,1,4,-4,-2,-1,-1
1558435018068320,1,0,-1,-5,2,5,2,2
1558435018068320,0,0,4,6,-3,-2,-3,-2
1558435018084102,-2,1,5,0,2,5,3,0
1558435018084102,-1,-2,-3,8,12,10,7,2
1558435018085110,-3,-3,-3,2,-6,-6,-3,-2
1558435018085110,-1,-1,-1,-4,3,-1,-1,-2
1558435018098039,-3,-5,-9,-21,-17,-14,-10,-5
1558435018098039,0,3,9,6,-2,-2,-1,-1
1558435018107012,0,-2,0,0,-2,0,-3,2
1558435018107012,0,1,5,3,6,2,8,2
1558435018121220,-1,-1,-5,-6,-7,-1,2,2
1558435018121220,1,2,2,7,14,11,4,-1
1558435018127994,0,-2,-1,-3,1,-2,-3,0
1558435018127994,-1,-1,-3,-2,-4,-6,-6,-2
1558435018144142,-2,-3,-4,-1,-4,-3,-2,-4
1558435018144142,3,2,7,8,-1,-3,1,2
1558435018145910,-2,-3,-5,-5,-2,1,-1,-3
1558435018145910,-5,-4,-4,-10,-12,-7,-4,-2
1558435018157877,0,-3,1,8,-2,-2,0,0
1558435018157877,-2,2,0,2,5,2,0,1
1558435018172832,0,0,-4,6,10,9,4,0
1558435018172832,-1,0,-1,-7,-6,-7,-6,-1
1558435018179843,-1,-1,-10,-11,-17,-8,-1,-2
1558435018179843,-4,-4,3,-1,-5,-2,0,-1
1558435018189086,1,-1,0,-2,5,1,1,0
1558435018189086,5,3,6,12,11,11,4,3
1558435018212191,-1,3,-2,-2,1,3,0,-1
1558435018212191,-2,-4,-8,-12,-10,-7,-7,-4
1558435018213852,-2,-2,-1,-2,-3,-6,-4,-2
1558435018213852,-2,-3,-4,-9,-5,-1,-1,-2
1558435018217711,2,1,4,10,5,-1,-2,-2
1558435018217711,1,1,-4,-4,-1,-1,1,2
1558435018226690,1,3,2,7,12,9,5,3
1558435018226690,-4,-5,2,7,-7,-1,-1,-2
1558435018241017,0,-1,0,2,8,1,-1,1
1558435018241017,-3,-4,-8,-7,-10,-6,-7,-2
1558435018248630,2,1,5,-1,-5,-5,2,0
1558435018248630,3,3,-1,-4,1,1,2,2
1558435018263966,-2,-3,8,15,6,1,0,-1
1558435018263966,-1,-2,-4,0,-1,-4,-8,-5
1558435018265586,-1,-1,-7,-17,-6,0,3,0
1558435018265586,0,1,1,-2,8,7,4,2
1558435018286769,-3,-3,0,5,-4,-2,0,1
1558435018286769,0,3,4,6,4,0,0,0
1558435018287529,1,2,3,11,7,0,1,-1
1558435018287529,-6,-6,-15,-30,-18,-11,-4,-5
1558435018300491,-2,-2,-2,1,5,-1,-6,-2
1558435018300491,-2,-2,1,-4,-12,-9,-4,-3
1558435018309477,0,-1,7,8,1,1,1,-1
1558435018309477,1,-1,-4,10,16,10,9,6
1558435018324602,1,1,-5,-13,3,4,3,4
1558435018324602,-5,-6,-6,-19,-12,-6,-5,-6
1558435018325429,-2,-2,1,-2,-10,-12,-10,-6
1558435018325429,0,-2,-1,7,-1,-7,-8,-2
1558435018337571,3,2,4,-1,1,6,8,2
1558435018337571,-2,-1,-1,10,15,8,2,3
1558435018346461,-2,-2,-7,-17,-12,0,1,0
1558435018346461,-1,0,2,0,-3,-3,-2,-1
1558435018360351,-5,-3,-6,-3,-5,-9,-6,-6
1558435018360351,-1,-1,-1,-17,-2,-2,-3,1
1558435018376290,-2,-1,2,3,0,-5,0,0
1558435018376290,1,3,7,11,-2,-1,2,1
1558435018384274,0,-2,-14,-16,-5,-4,0,1
1558435018384274,-1,0,5,16,9,3,-1,-1
1558435018385268,-2,-6,-8,-8,-8,-3,-9,-1
1558435018385268,2,4,7,-1,8,9,10,3
1558435018397406,1,-2,4,1,-5,0,-1,0
1558435018397406,1,1,-4,-3,-1,-1,3,-1
1558435018406209,-1,-1,0,1,3,3,3,1
1558435018406209,-1,0,4,6,6,2,-3,-1
1558435018420526,-1,-2,-1,2,0,-3,-4,-1
1558435018420526,-1,-1,-1,-14,-8,-3,1,1
1558435018436494,-3,-3,-3,3,-3,-5,-2,-2
1558435018436494,0,-3,-4,-11,-13,-11,-6,-3
1558435018444457,-2,0,1,6,4,3,3,-2
1558435018444457,0,1,5,14,8,8,0,0
1558435018446173,2,1,-3,-2,10,9,4,1
1558435018446173,-3,-1,-2,-2,7,0,-2,-1
1558435018458374,-2,-2,-2,-13,-10,-7,-1,-2
1558435018458374,-1,0,-2,0,-6,-3,3,1
1558435018466311,-3,-4,0,4,-7,-3,-8,-5
1558435018466311,-1,-1,-2,0,-8,-3,-4,-4
1558435018480242,0,-2,2,6,-2,-5,-4,-1
1558435018480242,1,-2,-8,-14,-5,-1,2,0
1558435018488994,2,0,-2,-6,7,0,2,0
1558435018488994,-4,-5,-7,-4,-10,-9,-8,-6
1558435018504142,-1,1,1,-5,-1,0,0,-1
1558435018504142,-3,1,2,7,1,-3,-5,-4
1558435018504947,-2,0,-1,4,-2,-2,0,1
1558435018504947,0,0,-1,-3,-5,1,1,-1
1558435018518124,-1,1,4,5,10,6,4,1
1558435018518124,0,0,-4,-3,2,-1,-3,-2
1558435018526893,-1,-1,-3,1,-1,2,2,-1
1558435018526893,-3,-3,-6,-7,-6,-3,-5,-5
1558435018540887,0,0,1,9,-3,0,-2,-2
1558435018540887,0,0,4,2,-1,-5,0,2
1558435018548827,-2,0,0,1,6,8,-4,0
1558435018548827,-1,1,-2,-12,3,1,3,2
1558435018563812,-3,-4,-4,-3,-6,-6,-6,-4
1558435018563812,-4,-4,-9,6,4,1,-4,-9
1558435018565783,1,5,-1,-17,-12,-3,2,0
1558435018565783,-2,-1,7,11,10,2,-1,1
1558435018577748,-3,-2,-8,-13,-5,-1,-2,-1
1558435018577748,0,-2,3,2,-4,-4,0,0
1558435018586726,-1,-2,-4,2,-4,-1,-4,-3
1558435018586726,-3,2,1,6,-2,-7,-7,-7
1558435018599690,-3,-6,-7,1,-11,-9,-1,-3
1558435018599690,2,0,-7,-8,8,8,3,3
1558435018608667,-1,-4,1,-9,6,9,1,0
1558435018608667,0,1,1,3,5,2,-1,2
1558435018623628,0,0,3,8,-2,-6,-6,-1
1558435018623628,-1,-1,4,10,-10,-10,-2,-3
1558435018627650,-1,-1,-1,0,-6,-6,1,-2
1558435018627650,-2,-3,-3,-9,7,14,2,2
1558435018637588,0,-2,-3,-4,8,0,0,-2
1558435018637588,1,0,5,0,1,4,0,0
1558435018646601,-3,0,-3,-2,-3,-5,0,0
1558435018646601,-3,-3,-7,-6,-8,-8,0,-5
1558435018660867,1,1,2,2,1,6,0,-1
1558435018660867,-1,1,-2,-3,-3,0,-2,0
1558435018669504,-1,1,4,17,-3,-10,-6,0
1558435018669504,-3,-3,-1,-6,0,3,0,-1
1558435018684867,0,-1,-3,-11,6,10,-1,0
1558435018684867,1,-3,1,4,-2,5,6,1
1558435018685462,-1,-3,-1,5,2,-6,-2,-4
1558435018685462,-2,-1,-5,0,-1,-4,-3,2
1558435018697431,-4,-1,-3,-7,-14,-12,-10,-3
1558435018697431,-3,0,0,1,-2,1,5,1
1558435018706650,3,1,3,1,12,10,2,-1
1558435018706650,0,0,8,7,-4,-3,3,-2
1558435018720369,0,1,3,8,4,4,3,1
1558435018720369,-2,-4,-13,-26,-10,-3,-7,-4
1558435018729347,-4,-2,-1,4,-2,-2,-2,-2
1558435018729347,0,-1,-4,-6,0,0,-1,1
1558435018743535,1,2,6,12,7,5,5,4
1558435018743535,-3,0,1,9,-3,-7,0,-7
1558435018750341,-3,-4,-12,-24,-7,5,1,-1
1558435018750341,-1,-2,0,4,4,3,-6,-4
1558435018757488,-1,0,-1,-3,2,1,0,0
1558435018757488,2,-1,1,4,-3,-2,-1,3
1558435018766277,1,1,0,0,2,-6,-2,1
1558435018766277,0,-4,-5,-1,-10,-8,1,-4
1558435018780211,-1,-2,2,-4,1,-1,-3,-2
1558435018780211,-3,2,-1,-6,2,-4,-5,-1
1558435018789194,-3,-1,5,15,-2,-1,-2,-5
1558435018789194,1,2,-3,-4,7,8,7,4
1558435018803176,1,1,-5,-15,0,0,1,0
1558435018803176,-2,-1,1,5,4,2,-3,0
1558435018810512,-2,0,-3,3,-1,-6,-8,-2
1558435018810512,-2,-4,-1,-19,-16,-7,-1,0
1558435018817108,-2,-3,1,5,9,2,0,-1
1558435018817108,1,-2,4,0,-4,3,5,2
1558435018826084,-3,-4,-3,-6,-3,-5,-3,-1
1558435018826084,-1,1,-5,-2,-6,-2,-3,0
1558435018840518,-4,-3,1,15,-2,-10,-8,-4
1558435018840518,-1,0,-1,-13,-1,6,0,0
1558435018849023,3,1,7,14,9,0,-1,0
1558435018849023,-1,-4,-10,-26,-8,-1,4,0
1558435018864218,1,0,-1,-4,-6,-3,3,3
1558435018864218,-4,-2,2,3,-3,-4,-5,-3
1558435018879206,-2,-1,-4,-3,-9,-6,-7,-3
1558435018879206,-5,-2,-3,6,5,-3,-4,-5
1558435018879206,-1,1,2,4,6,6,8,2
1558435018879206,1,-2,-3,3,2,4,2,-1
1558435018886923,-3,-1,-3,-4,-6,-1,0,-3
1558435018886923,1,-1,0,0,-2,-3,-5,-1
1558435018900339,0,-1,-6,-10,-10,-4,-4,-4
1558435018900339,0,0,10,22,10,2,-1,1
1558435018909224,-1,-3,-10,-34,-1,8,7,1
1558435018909224,0,0,3,16,5,2,0,0
1558435018924113,-3,-5,-9,-22,-11,-9,-3,-3
1558435018924113,-2,-4,-6,-1,-7,-9,-5,-3
1558435018930092,-1,-1,-3,-1,-5,-6,-4,-2
1558435018930092,0,0,5,3,2,-3,-5,1
1558435018946978,0,-2,-2,10,13,12,5,1
1558435018946978,-2,-4,-6,-15,-11,-9,-5,-5
1558435018947764,-2,-3,-2,-9,-2,0,4,3
1558435018947764,1,0,0,4,7,3,-1,0
1558435018960773,0,-1,-5,-18,-16,-8,-7,-3
1558435018960773,-2,-3,1,11,8,-2,-3,-2
1558435018968890,-1,0,0,-7,-9,-5,1,-1
1558435018968890,-3,-1,5,15,2,1,-1,-1
1558435018983665,-1,0,-4,-4,2,4,0,0
1558435018983665,-2,0,-3,-2,0,-4,-3,0
1558435018990700,-1,0,2,4,2,3,-1,-1
1558435018990700,2,3,4,-1,2,4,7,3
1558435019006610,2,1,2,11,9,2,0,2
1558435019006610,1,4,4,5,1,3,1,-3
1558435019007609,-3,-3,5,12,-8,-13,-7,-3
1558435019007609,-2,-1,-12,-12,-7,-2,0,-1
1558435019020571,-3,0,1,3,-3,-5,-4,-2
1558435019020571,-1,-4,-3,-9,2,2,3,0
1558435019028823,-1,-3,0,9,5,4,1,-1
1558435019028823,-1,-1,2,5,-3,1,2,-2
1558435019043842,1,-2,2,-6,0,-4,-3,-1
1558435019043842,0,-1,2,3,0,-2,-3,3
1558435019050861,0,0,-4,-1,3,-3,0,-1
1558435019050861,-1,-5,-8,-9,-2,5,2,-1
1558435019066802,-4,0,-2,3,-4,1,1,1
1558435019066802,0,3,1,-4,7,6,0,2
1558435019067440,-1,-2,-3,6,2,2,-4,1
1558435019067440,1,-2,0,1,3,-9,-4,-1
1558435019080658,-3,-2,2,12,-2,-2,0,-5
1558435019080658,1,-5,-14,-33,-19,-9,-8,-4
1558435019089381,2,0,2,6,3,0,-1,-1
1558435019089381,0,-4,-3,0,-6,-3,-5,-1
1558435019103371,-2,-1,-1,1,1,6,2,-1
1558435019103371,0,0,-1,7,2,0,4,2
1558435019110326,-2,-2,-4,-4,2,-1,0,1
1558435019110326,-1,1,6,13,-4,-10,-4,-4
1558435019126314,0,-1,-3,-20,-11,-1,0,-1
1558435019126314,-2,-1,-2,5,5,5,4,0
1558435019128308,1,0,2,-1,2,6,2,2
1558435019128308,1,0,3,12,18,4,5,1
1558435019140699,-2,-3,-5,-20,-8,-6,-5,0
1558435019140699,-2,0,-5,-5,-2,-1,-2,-2
1558435019149220,1,2,4,6,-5,-4,-2,-2
1558435019149220,-6,-4,-11,-15,-14,-7,-6,-5
1558435019163642,-1,-2,0,3,-1,-5,-4,-3
1558435019163642,-1,-2,-3,-2,-2,-2,1,1
1558435019170638,-3,-3,-1,-5,1,1,3,0
1558435019170638,1,4,4,5,13,10,4,2
1558435019187363,-1,1,6,15,4,2,0,0
1558435019187363,-3,-5,-8,-14,-6,-3,-3,-1
1558435019188117,-3,-6,-19,-25,-12,-3,-3,-2
1558435019188117,-3,-3,-8,-10,-14,-14,-8,-5
1558435019200513,-2,-2,-2,6,-1,-5,-7,-3
1558435019200513,2,2,8,11,4,0,1,0
1558435019209090,2,1,4,14,19,7,2,1
1558435019209090,-1,-3,-8,-15,-14,2,1,0
1558435019223163,1,2,2,11,7,2,2,0
1558435019223163,-3,-3,-5,-12,-12,-4,-6,-4
1558435019230004,-1,1,2,-3,-4,-3,2,-3
1558435019230004,-2,-1,0,0,-3,-10,-6,-3
1558435019247309,-3,-2,0,6,5,5,3,-1
1558435019247309,1,3,3,15,12,6,6,5
1558435019247956,0,-1,0,-2,-3,2,0,1
1558435019247956,-4,-1,-3,-7,-3,1,1,-4
1558435019260276,-2,-2,1,1,0,-3,-4,-4
1558435019260276,-2,-3,-2,2,-2,-4,-4,-3
1558435019269261,1,2,3,3,10,2,1,-1
1558435019269261,0,3,0,-6,-12,-5,-5,-1
1558435019284203,-1,0,-1,0,-4,-5,0,0
1558435019284203,1,0,-4,2,-1,2,0,3
1558435019290200,-1,-2,-1,-10,-5,-3,4,0
1558435019290200,1,0,1,6,7,5,2,3
1558435019307132,3,0,-3,-10,-3,1,0,3
1558435019307132,0,-1,3,4,-2,1,1,-1
1558435019307797,-2,0,3,4,-10,-8,-5,-4
1558435019307797,3,0,2,3,9,-2,2,2
1558435019320055,1,0,-6,-6,1,6,2,1
1558435019320055,-1,0,1,8,6,0,1,0
1558435019328968,-2,-1,-2,-4,-8,0,-2,0
1558435019328968,-1,-2,4,2,-5,-3,-3,-2
1558435019343935,0,-2,-10,-17,-4,-4,-3,-3
1558435019343935,-1,-1,-2,-7,-9,-5,-3,-1
1558435019350732,-4,-4,-5,-2,-5,-12,-13,-9
1558435019350732,-1,-1,2,12,3,3,4,1
1558435019366859,2,3,7,-1,10,10,6,6
1558435019366859,0,2,0,6,7,6,6,2
1558435019367638,-1,-2,-6,-4,1,1,-1,0
1558435019367638,-2,-3,-7,-1,-5,-5,-9,-3
1558435019380604,-5,-4,-3,-1,-9,-9,-3,-5
1558435019380604,-1,0,2,-21,-6,-7,-6,-5
1558435019388773,1,2,4,5,1,-4,-2,1
1558435019388773,-2,-5,-1,4,3,6,1,-2
1558435019403761,-1,3,5,11,6,3,3,4
1558435019403761,-1,-2,-5,0,4,-1,5,1
1558435019410751,1,-1,-1,-7,-4,2,-1,4
1558435019410751,-3,-2,-7,-8,-10,-7,-4,-4
1558435019426703,-2,-2,2,4,-5,-7,-5,-3
1558435019426703,-4,-1,-4,-7,-7,-10,-4,-5
1558435019427482,-4,-1,-3,-3,2,0,2,-2
1558435019427482,-1,0,7,10,7,9,5,1
1558435019440670,0,0,0,6,7,6,0,0
1558435019440670,-2,-2,-1,-1,-6,-4,-3,1
1558435019449419,-2,-3,-4,-3,-6,-7,-3,-2
1558435019449419,0,1,3,-2,1,-4,-5,-1
1558435019463380,-3,-3,-1,0,-7,-7,-7,-4
1558435019463380,-3,-4,-10,-16,-9,-5,-4,-3
1558435019470695,1,0,4,10,0,6,4,0
1558435019470695,-2,-2,-3,-2,5,6,-2,1
1558435019486675,1,0,-3,-12,-3,-3,7,1
1558435019486675,-2,1,7,13,8,6,-2,-3
1558435019488313,-2,-6,-5,-4,-7,-9,-5,-3
1558435019488313,0,0,-6,-12,-12,-13,-5,-5
1558435019500675,-2,-4,-2,0,-6,0,-1,-2
1558435019500675,2,3,1,6,14,14,3,4
1558435019509259,1,2,6,14,12,7,4,3
1558435019509259,0,0,1,3,4,-1,-2,0
1558435019523220,-2,-5,-12,-17,-12,-11,-6,-4
1558435019523220,-4,-3,-8,-10,-14,-9,-3,-3
1558435019530203,0,1,4,3,-1,2,3,0
1558435019530203,0,-1,-4,-8,2,2,-2,1
1558435019546199,-4,-2,0,-7,-7,-4,-4,-4
1558435019546199,1,-1,2,2,-1,2,4,0
1558435019548156,-1,-1,-1,-2,6,-1,-4,-2
1558435019548156,-1,-2,0,3,-7,-6,-5,-5
1558435019560121,0,-2,-3,4,7,5,2,1
1558435019560121,-1,-3,-3,2,1,2,1,0
1558435019569096,1,2,-4,-6,-3,-5,-2,0
1558435019569096,2,0,1,2,5,0,1,0
1558435019583095,0,-2,0,6,-5,-3,-5,-2
1558435019583095,0,0,-1,-7,-8,-4,1,2
1558435019590070,0,2,5,7,9,10,4,-2
1558435019590070,-5,-6,-19,-29,-10,-4,-2,-3
1558435019605997,0,0,-1,4,7,1,0,1
1558435019605997,0,-1,1,-3,0,-4,-5,-2
1558435019607994,-3,-3,-5,-2,-9,-5,-1,-1
1558435019607994,-4,-4,1,3,-4,-3,1,-2
1558435019619961,-1,1,5,3,2,2,-5,-5
1558435019619961,3,3,5,18,9,1,2,-1
1558435019627978,-1,0,-6,-11,-4,3,6,2
1558435019627978,0,3,8,11,10,10,4,4
1558435019642937,-2,-4,-11,-18,-10,-6,-4,-2
1558435019642937,0,1,3,-8,-4,-2,-6,-3
1558435019649880,-2,-4,-8,-6,-5,-5,-2,-2
1558435019649880,0,1,0,1,-4,-4,-2,-2
1558435019665839,1,1,6,7,3,2,1,0
1558435019665839,-3,-2,-2,7,5,3,-1,-1
1558435019672820,-1,-1,-5,-10,1,-1,-2,2
1558435019672820,1,0,-4,0,1,2,0,1
1558435019679803,-2,-1,-1,-1,-2,-4,-5,-3
1558435019679803,-4,-4,-1,1,-13,-13,-10,-4
1558435019688779,1,1,4,2,8,9,7,2
1558435019688779,0,-2,3,5,4,1,1,1
1558435019702773,0,1,1,6,-4,-3,-3,1
1558435019702773,-2,-3,-7,-12,-1,-4,-1,2
1558435019709721,-2,-1,-4,-6,-6,-2,-2,-1
1558435019709721,-3,1,3,-3,0,-1,-5,-1
1558435019725679,0,3,7,9,3,4,1,-2
1558435019725679,-2,-4,-12,-9,5,1,1,0
1558435019732660,0,-1,0,-2,-8,-6,-7,-2
1558435019732660,-3,-4,2,17,4,-2,1,-1
1558435019739641,0,3,-3,-20,-4,2,-2,1
1558435019739641,0,0,6,7,8,10,9,2
1558435019748654,-1,-2,-2,-4,-1,0,-4,-3
1558435019748654,-1,-2,-1,7,3,-1,-1,0
1558435019763927,-2,-4,-3,-9,-13,-8,-1,-2
1558435019763927,2,4,5,9,2,4,5,3
1558435019769912,-3,-5,-3,-15,-4,-1,-1,-1
1558435019769912,0,1,3,2,-7,-2,-3,0
1558435019786661,-1,-1,-1,10,11,2,2,2
1558435019786661,1,-1,1,-1,-7,-8,-2,-2
1558435019792935,1,2,8,18,7,3,2,1
1558435019792935,0,-2,-11,-29,-13,-7,-6,-4
1558435019800477,-3,-5,-9,-6,2,4,-2,-2
1558435019800477,-2,-3,-2,1,-5,-6,-2,-4
1558435019808922,0,0,3,10,14,3,2,2
1558435019808922,-1,-3,-2,-3,-4,-2,0,1
1558435019823872,1,-1,2,3,2,-2,-1,0
1558435019823872,-2,-6,-7,-16,-11,-1,-3,-1
1558435019830397,1,3,5,0,1,-2,-1,-1
1558435019830397,-3,-5,-14,-3,-2,-1,3,-2
1558435019845357,-4,-2,3,11,-3,-3,0,-1
1558435019845357,0,2,3,6,9,1,0,-1
1558435019852339,-4,-3,-6,-16,-10,-8,-6,-2
1558435019852339,-1,1,7,5,3,4,1,-1
1558435019868297,-2,-3,-4,-5,-4,-5,-2,-1
1558435019868297,-1,-2,2,11,0,-3,-2,0
1558435019875277,-1,-3,-8,-11,-3,-1,-6,-1
1558435019875277,0,0,4,4,-1,-1,4,-2
1558435019883257,1,1,0,5,11,6,4,-1
1558435019883257,-3,1,-6,-19,-3,-4,-4,-5
1558435019890238,1,-2,0,19,5,7,6,1
1558435019890238,-2,-1,0,-15,-8,-2,-2,-1
1558435019906197,0,2,2,7,0,-1,-3,0
1558435019906197,-2,-5,-8,-9,-6,-5,-2,-2
1558435019912178,-5,-1,-3,-3,-9,-6,-6,-6
1558435019912178,-1,1,2,6,8,5,2,-2
1558435019929133,-4,-2,-2,3,4,4,4,0
1558435019929133,-3,-3,-2,-1,0,1,-1,-2
1558435019930131,2,2,5,2,4,4,2,1
1558435019930131,-1,0,-4,2,2,-6,-4,-2
1558435019943095,2,0,-4,-14,-14,-7,0,-2
1558435019943095,-3,-4,-2,-1,-2,-1,-5,-3
1558435019957058,0,-1,1,-15,-6,-2,-1,-2
1558435019957058,1,-1,0,-4,4,7,4,2
1558435019966035,0,-1,-1,-2,0,-3,1,2
1558435019966035,2,2,4,8,5,1,4,3
1558435019973015,1,1,2,11,-6,-3,-1,0
1558435019973015,-3,0,-4,-8,-1,-1,-7,-3
1558435019988973,-3,-5,-5,-7,-7,-3,-4,-2
1558435019988973,-1,0,-2,0,0,0,0,0
1558435019989971,-4,-4,2,15,-1,-7,-9,-6
1558435019989971,2,-1,0,-11,-3,-2,6,2
1558435020002936,1,0,-9,-15,1,5,6,2
1558435020002936,0,0,0,7,11,10,0,-4
1558435020011913,-1,-1,-9,-10,-11,-8,-4,-3
1558435020011913,-1,2,6,19,7,-7,-5,1
1558435020025874,-1,0,7,-6,-8,2,2,-2
1558435020025874,-1,-2,-7,-14,-13,-8,-6,-3
1558435020032856,-2,0,-1,-3,-3,-3,0,2
1558435020032856,-2,-5,-4,4,-4,-2,2,-3
1558435020048813,0,-3,-7,-15,4,1,-1,2
1558435020048813,-1,0,5,4,-4,-4,-2,-3
1558435020049811,-3,-4,-3,3,3,0,-1,-1
1558435020049811,-2,-1,0,-7,-5,-4,-2,-1
1558435020062775,-3,3,1,3,1,-4,-4,-6
1558435020062775,-5,-4,2,6,-1,2,1,-2
1558435020071753,7,4,4,3,10,9,6,4
1558435020071753,-2,-3,-6,-6,7,8,2,-1
1558435020085714,-2,-3,3,11,1,-4,-5,-4
1558435020085714,1,0,-4,-10,-12,-7,-4,3
1558435020092696,-2,0,2,5,1,-7,2,0
1558435020092696,-3,0,-3,5,-3,-4,-6,-3
1558435020108653,-2,-6,-9,-18,-7,0,-1,-3
1558435020108653,-3,-4,-2,7,8,-3,-4,-2
1558435020110648,-1,-3,-1,-5,1,-3,-2,1
1558435020110648,2,1,-1,-5,-2,2,2,1
1558435020122616,-1,-1,4,6,-6,-5,-6,-3
1558435020122616,1,1,4,13,7,4,1,1
1558435020131593,0,-2,-3,-9,-8,-1,-1,-1
1558435020131593,-3,-5,-10,-18,-6,-4,-3,-4
1558435020145554,-3,-3,-7,-12,-11,-3,-2,-1
1558435020145554,0,-2,1,3,1,3,-3,-1
1558435020159516,-1,0,2,6,2,-5,-2,-1
1558435020159516,-2,-1,4,4,-7,-7,-7,1
1558435020168493,3,2,2,3,9,7,7,5
1558435020168493,1,-2,-3,-5,3,-2,0,1
1558435020170489,-5,-5,-8,-7,-7,-5,-4,-4
1558435020170489,1,3,5,2,-1,2,3,1
1558435020182456,3,1,2,16,13,4,5,3
1558435020182456,-4,-1,-1,-6,-7,-1,-1,-5
1558435020191432,-3,-6,-10,-12,-9,-7,-2,-3
1558435020191432,0,0,-2,-3,-1,-3,-2,-2
1558435020205396,-2,1,0,14,9,2,-3,-1
1558435020205396,0,1,4,-4,-4,-4,-4,0
1558435020212375,-3,-6,-8,-2,2,4,5,-1
1558435020212375,-1,1,2,5,-5,1,2,2
1558435020229330,-1,-3,-1,-1,4,-2,-4,-3
1558435020229330,0,1,-3,-8,-7,-1,3,1
1558435020230328,-1,1,0,6,7,-1,-5,-3
1558435020230328,-1,-2,3,3,1,-1,1,-1
1558435020242295,-1,-1,-2,-1,-1,-1,-2,0
1558435020242295,2,4,2,1,5,5,6,4
1558435020251271,0,-1,2,2,-7,-6,-3,-2
1558435020251271,-1,-3,-5,-1,-3,-1,-1,-3
1558435020265234,-2,-1,3,1,-9,-8,-2,-1
1558435020265234,-1,-1,-1,-1,12,9,5,2
1558435020272215,-1,0,0,-2,0,4,0,2
1558435020272215,2,-2,1,7,3,-1,-3,-2
1558435020289172,-3,-4,-7,-5,-11,-8,-2,-6
1558435020289172,0,-2,-8,-17,1,-2,0,-3
1558435020290168,-3,-1,-2,-3,0,2,-2,-1
1558435020290168,-1,-1,-2,-11,-5,-3,-9,-1
1558435020302136,0,1,8,17,0,4,6,4
1558435020302136,-2,-3,-4,-3,-8,-9,-4,-1
1558435020311112,-1,-1,-1,-4,2,0,2,-3
1558435020311112,2,1,2,6,12,3,0,1
1558435020326071,-4,-2,-7,-6,-8,0,-2,-3
1558435020326071,2,3,3,6,-6,-7,-1,0
1558435020332055,-1,-2,-2,11,2,-2,-5,-2
1558435020332055,-5,-6,-5,-23,-14,-10,-7,-2
1558435020349012,2,2,2,-2,9,0,2,2
1558435020349012,-2,-1,2,6,3,3,0,-3
1558435020350008,-3,-1,-1,2,-12,-9,-4,-4
1558435020350008,-2,-1,-2,6,0,2,2,-2
1558435020361975,1,-1,0,-4,4,5,-1,1
1558435020361975,0,-3,1,2,-2,-3,1,-1
1558435020370951,0,-1,-3,-8,-1,-2,-1,-1
1558435020370951,-3,-2,-5,-4,-4,-5,-3,-3
1558435020385911,0,-2,-3,-3,-4,-4,-1,0
1558435020385911,2,0,2,14,11,9,2,3
1558435020392894,-1,1,1,-10,-1,4,8,0
1558435020392894,0,2,2,0,-3,-1,3,2
1558435020408851,-1,-3,-5,-9,-5,-4,-4,-1
1558435020408851,-4,-5,0,5,-2,-9,-7,-5
1558435020409847,1,0,-2,-2,1,1,1,1
1558435020409847,0,-1,-6,-6,-1,0,-1,-2
1558435020422815,0,0,5,8,-4,-8,-5,-2
1558435020422815,0,0,2,-3,-6,-4,-2,-2
1558435020431791,0,0,-7,-6,10,11,7,3
1558435020431791,0,1,7,16,7,4,4,0
1558435020445752,-3,-2,-4,-17,-11,-5,-8,-3
1558435020445752,-5,-5,-9,-16,-13,-10,-6,-5
1558435020452732,-3,-1,2,0,-1,-3,3,1
1558435020452732,3,3,2,14,12,12,3,4
1558435020468690,0,1,0,2,10,6,4,1
1558435020468690,-2,-2,-3,-7,-8,-4,-5,-3
1558435020470686,2,0,1,-4,-5,-1,-3,1
1558435020470686,-3,-3,-3,1,6,1,0,-2
1558435020482653,-1,-2,3,5,-3,-2,-1,-3
1558435020482653,-1,0,0,2,2,0,-3,-3
1558435020491634,1,-1,5,7,-9,-6,-2,-1
1558435020491634,1,0,-2,-21,-4,0,0,-3
1558435020505592,-2,-3,-7,-2,0,0,-1,-2
1558435020505592,0,-1,-1,1,1,-2,-2,0
1558435020512572,1,3,8,14,9,6,-1,2
1558435020512572,-3,-4,-6,-1,-9,-5,-2,-1
1558435020528540,0,0,-7,-13,1,1,1,0
1558435020528540,-1,-1,-5,-3,-8,-2,2,-4
1558435020530526,-1,-1,1,-1,-4,-3,-4,-4
1558435020530526,0,1,4,3,-2,-4,-3,-1
1558435020542493,-1,-1,1,5,2,5,3,-1
1558435020542493,-1,1,4,9,3,0,-3,-2
1558435020551484,-4,-6,-7,-13,-6,-5,-7,-7
1558435020551484,0,-2,1,1,1,-3,1,2
1558435020565438,0,0,0,-2,-3,-2,1,-2
1558435020565438,-2,-2,-4,-10,-8,-4,-3,-3
1558435020572413,-1,0,7,14,2,-2,-5,-3
1558435020572413,0,-1,-8,-2,4,3,-2,0
1558435020588371,0,1,-1,-6,-4,-5,-3,2
1558435020588371,2,1,3,3,5,3,0,4
1558435020595351,-3,0,1,-10,-7,-6,-2,-1
1558435020595351,-2,-3,-2,10,-1,3,6,-3
1558435020602333,-3,-2,-2,-5,2,-2,1,-3
1558435020602333,2,-1,-5,-7,-3,-3,2,2
1558435020611309,0,-2,-6,1,2,0,2,3
1558435020611309,-3,2,4,0,-6,-8,-7,-3
1558435020625272,-2,-4,4,11,3,0,-1,-3
1558435020625272,-5,-4,-4,-4,0,-3,-4,-4
1558435020632572,-2,-3,-4,-7,-1,-1,-1,-1
1558435020632572,1,0,-1,-6,-9,-7,-5,-1
1558435020648212,0,0,5,7,0,0,-4,-1
1558435020648212,0,-1,-2,-7,-1,0,1,-3
1558435020655193,1,-1,-1,5,3,5,5,2
1558435020655193,-1,-4,-3,-3,1,0,-2,1
1558435020662174,-1,-1,-2,-6,-6,-7,-1,0
1558435020662174,-2,1,3,6,-1,0,2,-3
1558435020671158,-2,-2,-5,-5,-5,-2,-2,-4
1558435020671158,-2,0,-1,2,5,1,0,-1
1558435020686108,-1,-2,0,0,-3,-4,-1,1
1558435020686108,1,-1,0,-1,1,0,0,1
1558435020692092,2,1,0,0,2,-1,-1,-1
1558435020692092,-4,-1,2,10,2,-2,-2,-1
1558435020708051,-2,0,-5,-11,-7,-1,-4,-2
1558435020708051,-2,-1,-2,-2,0,4,-2,-1
1558435020715036,-2,0,0,-2,-2,-4,-2,-1
1558435020715036,1,-3,-2,1,4,0,0,0
1558435020723010,-1,-1,-3,0,-1,0,-1,-1
1558435020723010,0,-1,-2,2,-1,-1,1,5
1558435020731994,-2,-3,-3,-2,1,-1,-2,-2
1558435020731994,-1,-2,1,-9,-3,-1,-1,-1
1558435020745949,-1,1,2,5,3,1,-1,0
1558435020745949,-2,-1,1,1,-1,-1,0,-1
1558435020752931,-1,-1,0,2,0,1,-1,-2
1558435020752931,-4,-1,-6,-8,-3,0,0,-2
1558435020767890,1,-2,-3,-2,-1,-2,-4,0
1558435020767890,1,0,2,4,1,1,1,-1
1558435020774871,-2,-1,-2,-1,0,-2,-1,-2
1558435020774871,-1,-1,0,1,-3,-4,-3,0
1558435020791832,1,0,-3,-8,-2,-2,0,-1
1558435020791832,-1,-2,0,4,2,1,-1,1
1558435020792825,-3,2,2,6,-2,-1,0,-1
1558435020792825,-2,0,-5,-15,-3,-1,-2,0
1558435020805789,-1,-3,-3,3,-4,-3,-2,-1
1558435020805789,-2,-1,-4,-6,-3,-1,-1,-1
1558435020812771,2,2,6,9,7,0,-1,-1
1558435020812771,-2,-1,-1,-8,-12,-5,-4,-3
1558435020827730,-6,-5,-10,-8,-3,-3,-2,-6
1558435020827730,0,-3,-2,-4,-7,-2,1,1
1558435020834712,2,-1,-3,-4,9,11,5,2
1558435020834712,3,2,3,6,5,1,4,2
1558435020851675,-2,2,10,11,0,0,-5,-2
1558435020851675,-2,-2,-5,0,0,-2,-2,-1
1558435020852664,-1,-3,-3,-10,-12,-9,-5,-1
1558435020852664,0,0,-3,0,0,2,5,2
1558435020865630,-1,0,1,1,1,2,-1,-1
1558435020865630,-1,0,3,4,4,1,-2,-2
1558435020872610,-3,-2,-1,1,-4,-5,-3,-2
1558435020872610,-1,-2,-2,-4,1,-2,-3,-2
1558435020888567,0,2,5,12,-2,-6,-2,0
1558435020888567,-3,-2,-8,-20,-8,-1,0,1
1558435020894552,-2,-5,-2,-4,5,3,1,-4
1558435020894552,1,4,-1,7,3,3,2,-1
1558435020911506,-1,-2,-5,2,-1,1,-3,1
1558435020911506,-3,-8,-2,-18,-4,-4,-1,-3
1558435020912504,-2,-2,-8,-3,-11,-1,0,0
1558435020912504,2,0,12,12,8,1,-4,1
1558435020925469,-2,-5,-10,-2,2,2,4,1
1558435020925469,2,2,-3,2,5,3,3,0
1558435020933447,-3,-3,-7,-11,-6,-4,-4,-4
1558435020933447,-2,-3,3,0,-3,-4,-2,-1
1558435020948408,-1,5,3,0,-4,-3,-3,-1
1558435020948408,0,0,-3,0,2,-1,-1,-2
1558435020955393,0,0,2,2,1,0,1,-1
1558435020955393,-1,-1,0,7,1,-2,0,-2
1558435020971345,1,-1,0,-12,-3,-5,-9,0
1558435020971345,-3,0,-6,-6,-12,-8,0,-2
1558435020972344,1,2,4,4,8,3,0,1
1558435020972344,-2,-5,-5,-10,2,5,2,-2
1558435020985310,2,-4,3,9,-1,1,3,1
1558435020985310,-1,-1,0,9,5,0,-4,-2
1558435020994286,-2,-4,-5,-12,-15,-13,-6,-2
1558435020994286,-2,0,0,-3,-4,-1,-1,-1
1558435021008247,0,3,0,3,8,7,7,3
1558435021008247,2,2,4,7,6,1,-1,-1
1558435021015234,0,0,4,6,-2,0,-1,0
1558435021015234,-1,-1,-3,1,-2,-2,0,-2
1558435021031194,-3,-2,1,-6,-4,-3,-3,-3
1558435021031194,-2,0,-4,-8,-8,-8,-7,-4
1558435021033181,0,-1,-3,-5,4,3,6,1
1558435021033181,-2,-2,1,-2,-3,-3,-5,-1
1558435021045149,-2,1,0,8,1,3,3,-2
1558435021045149,1,0,8,-1,6,8,2,2
1558435021054125,0,-2,-2,-2,-1,-1,0,-1
1558435021054125,-3,-3,-8,-13,-10,-4,-2,-2
1558435021068087,-2,-7,-7,-4,1,-2,-3,-7
1558435021068087,0,-1,-2,5,-1,0,3,0
1558435021075072,0,0,-1,-5,-2,-4,-2,-1
1558435021075072,0,1,6,9,-2,-4,-5,-1
1558435021091026,-4,-6,-8,-17,-3,-1,1,-3
1558435021091026,-2,1,0,5,-2,2,0,-1
1558435021093021,2,3,4,12,13,5,-1,2
1558435021093021,0,-3,-5,-6,-5,-4,-3,-3
1558435021104990,-3,-2,-7,-9,-10,-6,-7,-4
1558435021104990,-3,-2,-2,0,-4,-4,-3,-2
1558435021113969,0,-3,-8,-13,-17,-7,-3,-1
1558435021113969,1,2,5,11,15,13,7,2
1558435021127928,-3,-1,-5,0,3,-1,0,-1
1558435021127928,-3,-3,1,-1,4,0,1,-4
1558435021134909,0,-1,-5,0,2,-1,-1,1
1558435021134909,-1,1,-3,-8,-3,-6,-2,-1
1558435021150866,-1,0,3,0,1,2,-2,2
1558435021150866,-4,-3,0,4,-9,-9,-3,-4
1558435021152860,-2,-3,-3,6,-4,-2,-1,-2
1558435021152860,2,-1,3,0,2,0,-2,0
1558435021164829,-1,-4,-7,-17,-2,-2,1,2
1558435021164829,-1,-2,-7,-3,-4,-3,-10,-1
1558435021173808,-1,-1,3,7,1,2,4,-2
1558435021173808,-2,-2,-5,-8,-3,-2,-2,1
1558435021187768,2,1,9,9,5,3,5,1
1558435021187768,2,0,4,11,5,5,5,4
1558435021194748,-5,-2,-8,-13,-3,-3,-5,0
1558435021194748,-2,0,-3,-2,-4,-3,-3,-3
1558435021211703,-2,-2,1,4,-6,-10,-7,-1
1558435021211703,-2,-5,-6,-19,-8,-2,-1,-4
1558435021212701,2,3,3,8,17,10,6,2
1558435021212701,-3,-5,-4,-13,-9,-6,-4,-2
1558435021224674,2,0,0,1,-4,-6,-5,-1
1558435021224674,-1,0,-1,-3,-3,-4,-3,-2
1558435021233643,-4,-4,0,-2,-2,-1,-2,-2
1558435021233643,2,2,3,6,6,6,5,4
1558435021248605,1,-1,-2,3,8,10,5,1
1558435021248605,0,4,4,7,4,4,3,0
1558435021254594,-1,-3,-2,-2,1,-3,-4,0
1558435021254594,-4,-3,-2,-1,-2,-4,5,-2
1558435021271544,-1,1,2,0,-2,-1,-1,-2
1558435021271544,-1,-2,-2,-3,-7,-5,-3,-3
1558435021272541,-2,-2,-1,-3,-10,-4,-7,-4
1558435021272541,-2,-4,-5,0,-1,1,-3,-3
1558435021284508,0,3,3,6,2,0,2,0
1558435021284508,-3,-3,0,-9,-3,-6,-1,1
1558435021293485,1,0,1,7,12,14,3,1
1558435021293485,-2,-4,-6,-5,-2,-4,-6,-3
1558435021308458,0,-3,-1,-1,-8,-2,-1,-3
1558435021308458,0,0,0,12,2,-1,-2,0
1558435021315426,-2,-1,-3,-15,-9,-6,-1,-2
1558435021315426,-1,-2,-2,-1,-5,0,0,-1
1558435021331391,-3,-4,-1,0,6,5,-3,0
1558435021331391,1,1,1,0,0,-3,2,3
1558435021332381,1,5,4,1,-1,-5,-3,-3
1558435021332381,-1,-2,-2,1,-2,0,2,0
1558435021345346,-3,-4,0,-1,-6,-7,-7,-4
1558435021345346,-4,-5,-11,-14,-12,-6,-4,-5
1558435021354323,-2,-3,-4,-1,3,2,2,1
1558435021354323,3,4,3,3,9,7,1,1
1558435021368285,-1,5,0,3,1,1,0,0
1558435021368285,1,1,1,8,6,6,0,1
1558435021375265,-3,-8,-3,-8,-4,-7,-2,0
1558435021375265,-3,-5,-2,-5,-14,-10,-9,-9
1558435021391224,3,-1,1,1,8,6,4,3
1558435021391224,0,1,3,3,11,7,1,2
1558435021393218,0,1,0,1,-8,-8,-3,-1
1558435021393218,0,1,0,-5,-1,0,1,1
1558435021405187,-1,-1,-1,5,-4,-5,-6,-3
1558435021405187,0,-1,-5,-6,-4,-1,1,-2
1558435021414171,-4,-5,-3,-4,-4,-4,-4,-5
1558435021414171,-1,-1,0,2,1,0,-3,-3
1558435021428125,0,1,1,-4,3,2,6,1
1558435021428125,-1,0,1,3,5,1,3,2
1558435021435106,0,0,0,-1,-2,-1,0,-1
1558435021435106,-2,-2,-2,-2,-3,-1,-2,-1
1558435021451064,0,-2,-1,-1,5,2,1,0
1558435021451064,-2,-3,0,-1,-8,-8,-12,-5
1558435021453057,-5,5,1,1,-8,-7,-5,-3
1558435021453057,1,0,1,-1,1,0,5,4
1558435021465026,-2,-3,-4,-4,1,-1,-1,2
1558435021465026,0,-4,-2,-1,0,0,2,1
1558435021474002,2,2,3,3,0,0,-1,-1
1558435021474002,-3,-4,-2,8,-2,-4,1,-2
1558435021487964,-2,-3,-7,-22,-8,-4,1,-1
1558435021487964,-3,-2,-3,-8,0,0,-2,-4
1558435021494945,2,0,6,10,8,4,1,0
1558435021494945,1,1,-2,-6,-1,3,2,-1
1558435021510904,-3,-2,-8,4,-3,-5,-4,-2
1558435021510904,0,1,0,0,-6,-5,-2,-3
1558435021512897,-3,-4,-6,-6,-2,-1,-1,-2
1558435021512897,1,2,6,5,-2,-5,-5,0
1558435021524866,-1,-2,1,0,3,-1,1,3
1558435021524866,-2,-5,3,6,0,3,2,0
1558435021533842,1,0,2,-3,3,1,-1,-2
1558435021533842,-3,0,-9,-7,-6,-5,-4,-2
1558435021547805,0,-4,-3,-2,-4,-2,0,-2
1558435021547805,0,1,2,6,2,4,0,-1
1558435021562764,1,1,-2,0,4,4,6,1
1558435021562764,-1,1,2,6,0,-2,-4,-1
1558435021570744,-3,-1,3,0,-6,-1,-2,-3
1558435021570744,-5,-9,-9,-15,-12,-9,-7,-5
1558435021577724,0,-6,-1,-1,-10,-9,-1,-2
1558435021577724,1,3,3,6,4,7,3,1
1558435021584705,2,1,-1,6,24,16,9,5
1558435021584705,-1,0,1,-3,4,7,0,0
1558435021593682,-3,-4,-7,-2,-5,-5,-2,-3
1558435021593682,-3,-5,-6,-17,-9,-11,-6,-3
1558435021607644,-2,0,7,12,-4,-7,-1,0
1558435021607644,-2,2,1,-1,3,-1,-1,0
1558435021614629,-3,0,0,5,-1,-1,-5,-2
1558435021614629,-1,-3,2,1,-1,3,3,-1
1558435021630584,-4,-4,-5,-7,-5,-8,-11,-7
1558435021630584,2,3,-2,10,4,3,6,4
1558435021637564,-3,-2,-8,-26,-16,-4,-3,0
1558435021637564,-4,-7,-3,4,-14,-15,-9,-4
1558435021644544,3,4,-1,-7,8,7,7,5
1558435021644544,1,5,5,18,19,12,3,2
1558435021653522,-2,0,4,10,12,7,5,0
1558435021653522,-2,-4,-7,-16,-1,0,0,2
1558435021668481,-5,-6,-6,-17,-23,-20,-15,-10
1558435021668481,0,-1,2,-3,-9,-7,-4,-2
1558435021674465,1,0,-7,-3,6,4,2,2
1558435021674465,0,3,2,6,7,6,3,3
1558435021698401,1,6,9,10,7,4,3,-1
1558435021698401,-4,-6,-10,-8,-12,-3,-1,-2
1558435021700396,0,-1,-3,-4,-5,-4,-4,-3
1558435021700396,1,-4,-3,3,-3,-8,-5,-3
1558435021714359,2,4,4,5,1,6,6,7
1558435021714359,0,-1,5,3,7,2,3,2
1558435021715356,-4,-3,2,0,-9,-12,-9,-6
1558435021715356,-3,-2,-6,2,3,-2,0,-2
1558435021728322,1,0,-6,-7,3,5,2,2
1558435021728322,-2,-4,-4,-9,1,-2,-3,-1
1558435021735304,0,-3,2,5,-2,1,4,4
1558435021735304,-1,-1,1,7,1,-3,-6,-5
