timestamp,emg1,emg2,emg3,emg4,emg5,emg6,emg7,emg8
1558435127566682,0,-1,-2,0,-3,-3,3,1
1558435127566682,-1,-4,-1,1,-4,-2,-3,-3
1558435127566682,0,1,-1,-2,2,0,-2,-2
1558435127566682,-3,-2,-2,-2,1,-1,-3,-1
1558435127567679,-1,1,7,0,-1,-2,1,1
1558435127567679,-3,-3,-5,4,-6,-6,-5,-4
1558435127568676,0,-1,-4,-11,0,0,3,1
1558435127568676,1,1,5,10,1,-1,2,-2
1558435127574660,0,-3,-4,-14,-2,1,-1,-1
1558435127574660,-3,-3,-5,-8,-4,-5,-2,-1
1558435127588623,-3,-1,2,7,-3,-2,-1,0
1558435127588623,1,0,-3,-1,2,-1,-1,0
1558435127594605,0,0,4,8,-2,0,-5,-1
1558435127594605,2,2,3,-5,11,10,4,3
1558435127609567,-1,-2,-9,-5,1,5,4,-2
1558435127609567,-2,-1,-1,0,-4,-4,-2,0
1558435127617552,-4,-3,-2,-1,-8,-12,-8,-9
1558435127617552,-3,-3,2,6,-4,-8,-4,-2
1558435127624527,1,1,7,5,10,7,2,5
1558435127624527,0,0,-1,0,0,5,2,-1
1558435127639487,0,-2,-10,-11,-4,-7,-4,-1
1558435127639487,-3,0,-4,-2,-1,-3,-1,-5
1558435127647465,-5,-4,3,4,-4,-7,-1,-4
1558435127647465,-1,-1,0,-9,-6,1,0,-3
1558435127687358,-3,-4,-9,1,1,-1,-5,-5
1558435127687358,1,2,5,-1,-2,-1,3,2
1558435127688355,-2,-3,-2,4,4,0,-1,-2
1558435127688355,-2,-2,-5,-6,-3,-1,-5,0
1558435127688355,0,-2,-4,2,7,7,5,5
1558435127688355,-1,2,3,-1,-7,-4,-4,-1
1558435127692346,0,3,-2,-5,-7,-6,-1,-2
1558435127692346,1,-2,6,14,-5,-1,-1,-3
1558435127699325,1,0,-11,-17,-4,-4,-5,0
1558435127699325,3,-2,0,5,5,3,3,0
1558435127707305,-2,-2,11,2,-2,0,2,1
1558435127707305,-5,-5,-23,-4,3,-3,-4,-1
1558435127714286,-4,-4,4,1,-5,-3,-5,-3
1558435127714286,0,3,5,4,3,2,2,0
1558435127729245,0,1,-6,-5,4,2,0,-2
1558435127729245,0,3,-4,-13,-8,-5,-2,-1
1558435127736229,-1,-4,3,7,4,3,4,0
1558435127736229,0,-4,0,4,6,3,0,0
1558435127744206,1,6,2,2,-7,-5,-5,-1
1558435127744206,1,14,7,7,2,3,2,1
1558435127759166,-1,-10,-8,-22,-8,-2,-2,-3
1558435127759166,-1,4,-1,-5,-3,3,2,-1
1558435127767144,-5,-15,6,14,13,1,-5,-2
1558435127767144,2,0,-2,-8,-6,-2,4,0
1558435127774127,1,6,15,3,-3,-13,-8,-5
1558435127774127,-6,-7,-18,-9,-10,-3,-7,-5
1558435127790084,-2,-3,-14,-7,5,9,4,2
1558435127790084,0,2,12,4,1,-6,-6,-1
1558435127796067,-2,-4,-6,3,-8,-10,1,-3
1558435127796067,-2,-9,-4,-4,1,1,1,0
1558435127804046,0,0,3,9,7,5,0,2
1558435127804046,-2,-5,2,0,4,6,2,0
1558435127819006,2,9,6,3,4,4,4,3
1558435127819006,-3,1,-4,-2,-7,-9,-7,-6
1558435127826984,-1,-3,-8,-3,-4,-4,-4,-1
1558435127826984,1,-4,1,5,5,6,3,2
1558435127833967,2,3,3,6,-1,2,-1,2
1558435127833967,-4,-6,-12,-19,-5,-7,-2,-4
1558435127849981,-3,3,10,8,0,-1,0,-2
1558435127849981,-3,-4,-6,-7,-1,-3,-3,-1
1558435127856906,0,3,3,9,-1,-2,-3,-1
1558435127856906,-1,-2,7,0,3,5,0,3
1558435127863886,0,-2,-13,-13,-11,-3,2,-3
1558435127863886,-1,-1,-2,1,-4,-8,-5,-4
1558435127879055,-3,-5,-4,-3,-1,4,5,0
1558435127879055,2,1,-4,-1,5,8,5,3
1558435127887127,2,3,1,3,9,3,1,1
1558435127887127,-1,-2,-7,-5,-5,-1,-1,-2
1558435127894186,-2,-3,-1,-2,-6,-6,-2,-1
1558435127894186,-1,-2,-3,-8,-8,-10,-10,-5
1558435127910105,-2,-1,11,8,4,0,5,-2
1558435127910105,1,0,-1,-4,9,13,10,4
1558435127916780,-1,-2,-1,-4,7,2,-1,-3
1558435127916780,0,3,13,10,-4,-2,3,0
1558435127924761,-2,-2,-16,-9,-5,-7,-5,-3
1558435127924761,-1,-3,2,-5,-5,-5,-3,-3
1558435127940716,1,4,5,5,3,0,0,2
1558435127940716,-5,-3,-6,-2,-4,-7,-11,-3
1558435127955644,0,-1,9,0,-4,-1,0,2
1558435127955644,-3,0,1,5,4,3,5,0
1558435127956638,-2,-2,-11,-10,-3,3,1,0
1558435127956638,2,1,0,-3,4,4,2,0
1558435127977582,6,7,21,13,6,6,4,3
1558435127977582,-4,-6,-20,-12,-2,-3,-9,-4
1558435127979577,-5,-9,-4,-3,-4,-4,0,-1
1558435127979577,-2,1,-4,4,3,1,3,0
1558435127983566,-1,3,-1,-11,-14,-10,-8,-6
1558435127983566,0,-3,4,-2,-7,-11,-5,-3
1558435128007502,-4,0,2,11,6,-1,-7,-4
1558435128007502,-2,-6,-4,-1,3,7,10,5
1558435128008499,0,-2,-8,-24,-2,5,1,2
1558435128008499,2,3,9,13,4,2,1,1
1558435128014484,1,-1,-2,-4,-4,-8,-3,-2
1558435128014484,0,-3,-2,-2,-5,-3,-1,-1
1558435128029444,-3,-4,-16,-11,-7,-5,-7,-1
1558435128029444,-6,-5,-3,-6,-12,-6,-4,-7
1558435128036458,-4,-3,-1,2,-4,-2,3,1
1558435128036458,3,7,11,11,11,5,4,3
1558435128044403,2,5,3,5,6,8,5,3
1558435128044403,-3,-2,-3,0,1,-3,-4,-2
1558435128060360,-4,-7,0,7,-4,2,-3,-4
1558435128060360,-1,-2,0,4,-5,-8,-6,-6
1558435128067344,-3,-7,-17,-9,-8,-5,-2,-3
1558435128067344,1,4,8,2,2,5,5,0
1558435128074325,1,5,7,4,3,0,1,1
1558435128074325,-4,-1,-6,-8,-2,-5,-7,-5
1558435128089285,-3,-7,-14,-10,-3,-1,1,0
1558435128089285,4,2,9,7,3,8,4,4
1558435128096264,0,-1,-4,4,3,-3,-3,-2
1558435128096264,0,0,5,1,-7,-10,-11,-6
1558435128112221,-4,-1,1,3,5,3,3,-3
1558435128112221,0,2,5,-1,2,-2,-1,1
1558435128119203,-1,1,-11,-10,4,9,3,2
1558435128119203,-2,-4,-5,-2,-4,-4,0,0
1558435128127183,-2,-2,-1,1,-2,-4,-6,-4
1558435128127183,-2,-3,-2,-1,-6,-4,-4,-5
1558435128134163,0,5,2,-1,-7,-6,-5,-3
1558435128134163,0,8,3,6,10,1,-4,-2
1558435128150120,-3,-11,-6,-1,-2,3,9,-1
1558435128150120,-3,-7,-7,1,0,3,0,-5
1558435128156104,3,3,12,6,8,2,4,1
1558435128156104,3,3,-2,-10,-6,0,1,3
1558435128172061,-1,3,11,9,-6,-9,-4,1
1558435128172061,-2,-8,-17,-16,1,0,-2,-2
1558435128179045,0,2,-4,-6,4,4,4,2
1558435128179045,-5,-8,-2,4,-3,-1,-1,-1
1558435128187021,0,0,2,3,-3,-5,-5,-2
1558435128187021,-1,0,-1,3,-7,-14,-5,-3
1558435128194003,-3,-8,-11,-23,-3,4,-2,-2
1558435128194003,3,2,2,4,2,3,5,2
1558435128217945,-3,2,2,3,4,4,-3,-3
1558435128217945,0,2,3,3,4,4,2,1
1558435128218936,-3,-7,-2,-1,-8,-7,-2,-7
1558435128218936,-4,-4,-6,-1,-6,-4,-1,-3
1558435128231903,2,-6,-4,-8,-1,-1,-3,0
1558435128231903,0,3,1,-1,0,-2,0,1
1558435128238883,0,5,6,4,0,1,-1,2
1558435128238883,-3,-3,-5,-7,1,4,-1,-3
1558435128246863,1,0,-3,5,-2,-2,-4,-2
1558435128246863,-2,0,0,-9,1,1,0,2
1558435128270798,0,-3,-2,1,-7,-5,0,-3
1558435128270798,-1,-1,0,4,-1,-2,-4,-3
1558435128270798,1,4,2,0,1,4,3,2
1558435128270798,-3,-4,-3,-5,-5,-2,-1,-4
1558435128276783,-1,-1,-3,-2,-5,-3,-1,0
1558435128276783,2,0,-1,-5,1,3,1,4
1558435128291742,-1,0,1,5,4,0,-1,-1
1558435128291742,1,1,4,4,3,0,0,0
1558435128298723,2,2,3,8,5,3,3,2
1558435128298723,-3,-2,-4,-12,-11,-4,-5,-5
1558435128306703,-2,-5,-8,-2,-9,-8,-6,-5
1558435128306703,-1,1,3,3,5,4,2,3
1558435128313684,0,-2,-9,-3,4,1,-3,0
1558435128313684,0,0,6,0,0,0,4,1
1558435128329640,-2,-2,-3,1,-3,-4,0,1
1558435128329640,-2,-3,-6,-1,-7,-5,-4,-4
1558435128336622,-6,-3,-3,-2,-3,-3,-3,-5
1558435128336622,2,1,2,-1,5,5,5,4
1558435128352591,0,3,8,4,5,0,-4,-3
1558435128352591,-1,-2,-1,1,-10,-7,-6,0
1558435128358563,-1,-3,-7,-13,-3,2,2,1
1558435128358563,-2,0,4,10,2,-3,-4,-5
1558435128367539,-1,-1,-5,-11,-2,2,3,2
1558435128367539,2,-2,-1,-4,3,2,2,2
1558435128381502,0,2,-2,-5,-2,1,-4,-1
1558435128381502,-2,-5,-2,-2,-6,-9,-1,-3
1558435128389480,0,3,6,6,3,1,1,2
1558435128389480,-2,-2,-4,-4,-3,-5,-4,-2
1558435128396461,0,-2,1,-3,-6,-6,-7,-5
1558435128396461,2,0,-2,4,7,9,2,-1
1558435128412418,-1,-1,-1,-5,2,2,0,0
1558435128412418,-2,-4,0,0,-3,-3,0,-3
1558435128419400,1,-1,0,-2,-1,0,0,0
1558435128419400,0,-2,-4,-4,1,-2,-1,2
1558435128427378,-3,-1,-3,-4,-7,-7,-8,-4
1558435128427378,-1,-4,-5,-7,-4,-2,-6,-1
1558435128441341,-1,-2,4,3,0,-1,3,-1
1558435128441341,0,-1,0,-4,-2,1,2,2
1558435128449320,3,2,1,4,1,3,1,2
1558435128449320,-3,3,7,21,8,-3,0,1
1558435128456301,0,1,-6,-19,3,9,3,1
1558435128456301,-5,-6,-15,-15,-11,-7,-10,-4
1558435128473257,-2,-2,0,-4,-10,-5,0,0
1558435128473257,-2,-3,-2,0,4,-1,2,-1
1558435128479240,-1,2,2,10,2,-1,-1,-1
1558435128479240,-1,3,2,3,3,-2,-3,-2
1558435128488217,-1,-1,-2,-6,-5,-2,-6,-2
1558435128488217,2,1,4,12,0,1,5,4
1558435128501183,-3,-4,-2,-15,-9,-5,0,-1
1558435128501183,3,1,3,6,5,1,3,3
1558435128510158,-2,-3,-2,-6,0,-4,-1,-2
1558435128510158,-2,0,2,-7,1,7,2,-1
1558435128516144,-3,-6,-14,-5,-6,-4,-7,-4
1558435128516144,-2,-3,1,-2,-8,-9,-1,-2
1558435128533098,0,0,4,7,3,-5,-1,-3
1558435128533098,0,-1,0,8,6,3,2,0
1558435128539080,0,1,4,-8,4,3,1,1
1558435128539080,-5,-5,-5,-4,4,4,-2,-5
1558435128548057,-2,1,-3,-3,0,2,8,1
1558435128548057,-2,-1,3,-6,-3,0,-2,-4
1558435128561025,1,1,-4,12,-5,-3,-1,1
1558435128561025,0,-1,-1,-2,-1,-1,0,-3
1558435128569997,-2,-2,-4,-3,1,2,1,0
1558435128569997,-3,-1,-5,1,-8,-7,-7,-3
1558435128575985,4,5,10,-10,1,-1,1,1
1558435128575985,1,-4,-9,10,10,3,-1,0
1558435128592938,-4,-4,-14,-28,-16,-5,0,-2
1558435128592938,-1,-2,-1,-3,-2,-2,-6,-3
1558435128598924,-4,-5,12,35,5,-4,-7,-4
1558435128598924,1,4,4,-13,-5,0,5,3
1558435128607900,0,2,9,12,8,3,4,0
1558435128607900,-2,-3,-11,-14,-3,-1,2,-1
1558435128621859,0,2,3,19,7,1,-2,1
1558435128621859,1,-1,8,0,4,1,1,-1
1558435128630836,-2,-4,-4,-1,-19,-8,-5,-5
1558435128630836,-2,-5,-14,-11,-3,-2,-4,-1
1558435128636819,1,2,2,2,8,6,0,0
1558435128636819,0,5,5,11,2,2,3,0
1558435128652782,-4,-12,-7,-12,0,2,0,-5
1558435128652782,0,-1,-3,2,-4,-6,-5,-3
1558435128658762,0,3,6,-2,-4,0,3,-1
1558435128658762,-2,-3,-20,-12,1,4,-1,1
1558435128673722,-2,1,0,2,-3,-4,-4,-3
1558435128673722,-1,-1,-7,-6,-4,-3,2,0
1558435128681760,-1,-5,-4,9,6,1,1,-3
1558435128681760,1,7,8,-8,-4,0,3,1
1558435128697658,-3,-4,-5,-7,-2,-2,-4,-4
1558435128697658,1,-1,7,7,1,1,-2,0
1558435128697658,-4,-4,-7,-12,-14,-13,-3,-3
1558435128697658,-1,0,3,1,-5,0,-5,-4
1558435128712680,0,2,-1,9,14,6,4,4
1558435128712680,-2,-3,21,14,1,2,3,2
1558435128719600,0,-5,-14,-11,-1,2,-1,-3
1558435128719600,-1,-2,-10,-19,-9,-1,2,0
1558435128733563,-1,-3,4,9,-1,-8,-5,-2
1558435128733563,-1,-1,-4,-3,-3,0,-2,-3
1558435128741540,1,2,10,6,4,4,-1,1
1558435128741540,-3,-2,-7,4,-1,-4,-4,-1
1558435128757498,1,2,-9,-9,1,2,0,0
1558435128757498,0,-1,0,7,-2,-2,0,0
1558435128757498,0,1,10,2,3,3,-1,-1
1558435128757498,-1,-3,-2,3,-1,-3,-5,-3
1558435128773454,1,1,4,6,-1,0,3,2
1558435128773454,-6,-4,-8,-13,-13,-6,-6,-5
1558435128779438,-2,7,1,4,3,-4,3,1
1558435128779438,-2,-7,-4,-16,2,3,4,1
1558435128794402,0,1,3,0,5,5,0,-1
1558435128794402,2,-1,-3,-11,2,-1,-4,-5
1558435128801378,-3,-4,-13,-5,-7,1,-1,-3
1558435128801378,-1,4,20,18,5,0,-2,-1
1558435128817339,0,-3,-13,-10,-5,-1,-6,-1
1558435128817339,0,1,-2,-7,-4,-1,2,-1
1558435128824318,-4,0,-1,4,-1,-4,-1,-4
1558435128824318,-3,-11,2,15,-1,0,1,-1
1558435128833293,-2,-2,3,2,1,2,0,0
1558435128833293,-3,-4,-16,-14,-5,-1,-4,0
1558435128839282,3,1,6,-4,-2,-2,-3,-2
1558435128839282,-1,2,-10,8,3,2,1,-5
1558435128854239,1,0,7,8,-1,-4,1,1
1558435128854239,-2,1,0,-5,4,1,-2,0
1558435128861226,-3,-3,1,-3,-8,-3,1,2
1558435128861226,-3,-2,0,1,-4,-7,-8,-3
1558435128877181,-2,2,2,-3,-2,1,2,-3
1558435128877181,0,0,1,2,6,6,6,1
1558435128878174,0,-4,-2,-4,5,2,1,-1
1558435128878174,1,2,1,2,0,-2,-1,-2
1558435128893135,0,1,0,-5,-6,-7,-6,-4
1558435128893135,1,4,11,13,2,2,4,3
1558435128899219,-3,-1,-14,-18,-6,-5,-2,0
1558435128899219,-2,-9,-5,-9,-5,-7,-4,-2
1558435128914084,0,2,3,9,4,-2,-1,0
1558435128914084,2,5,7,7,8,4,3,0
1558435128921060,-3,-8,-7,-3,-5,-3,-8,-3
1558435128921060,-2,-6,-3,3,-2,-2,1,0
1558435128937016,-2,-1,-4,-10,-12,-6,-7,-4
1558435128937016,-1,1,7,17,2,-2,-3,-1
1558435128938014,-2,-4,-17,-32,-12,-9,-5,-1
1558435128938014,0,-1,-1,-6,1,-2,1,3
1558435128952996,-1,-3,-7,-8,-1,0,2,1
1558435128952996,-1,-1,0,-4,-1,-2,-1,-4
1558435128958985,-1,-3,2,6,2,4,2,-1
1558435128958985,2,5,14,15,8,5,2,0
1558435128973917,-2,2,3,8,4,-1,-2,1
1558435128973917,-3,-3,-2,-17,-10,-1,-1,-1
1558435128981895,-4,-8,-10,-4,-7,-7,-4,-3
1558435128981895,-3,6,2,-8,-7,-5,1,-1
1558435128996866,0,-3,-3,11,13,10,5,3
1558435128996866,4,2,3,1,9,8,5,4
1558435128997854,3,8,5,7,1,1,-2,-2
1558435128997854,-4,-4,-8,-2,-10,-9,-8,-3
1558435129012813,-3,-3,0,-12,-15,-10,-4,-5
1558435129012813,0,-4,-7,1,-3,-4,-2,-2
1558435129018797,3,9,12,9,13,9,2,2
1558435129018797,-2,-6,-7,-2,4,4,4,0
1558435129033763,-2,1,3,1,-2,-3,-1,2
1558435129033763,-3,0,-8,-4,-7,-5,-4,-1
1558435129041743,-2,-4,-5,0,-5,-2,0,0
1558435129041743,0,0,0,-11,-3,2,-2,-2
1558435129057695,1,-5,-1,-2,2,3,-1,0
1558435129057695,-3,-3,-3,-7,-4,-7,2,-2
1558435129057695,1,3,3,8,0,-1,1,-1
1558435129057695,-2,-2,-4,-1,1,1,-1,0
1558435129072657,-1,4,5,3,4,4,0,-1
1558435129072657,0,0,-10,-10,-4,0,-1,0
1558435129078644,-1,-2,3,3,0,-2,-2,0
1558435129078644,-1,-3,0,-3,-5,-2,-2,-1
1558435129093605,0,2,-3,-5,-4,-6,-7,-4
1558435129093605,-2,-1,2,7,7,2,-2,-2
1558435129101576,-2,0,-1,0,1,2,3,0
1558435129101576,0,-4,-2,4,-1,-2,-1,-2
1558435129117536,0,3,1,-1,0,-2,1,0
1558435129117536,-2,0,1,-1,3,-1,1,2
1558435129117536,0,-7,-4,-3,-2,-6,-5,0
1558435129117536,0,4,1,-2,-4,-2,-5,-3
1558435129132600,1,0,0,8,-1,-1,-2,-4
1558435129132600,-1,-6,-1,-4,-5,0,-3,-3
1558435129139484,-2,0,-6,-2,1,2,2,-2
1558435129139484,-3,-3,-13,-16,-7,-1,0,1
1558435129154480,-2,-4,-1,0,5,4,4,0
1558435129154480,-1,4,6,11,1,0,0,0
1558435129161644,-1,-1,-1,-16,-2,0,0,-1
1558435129161644,0,1,9,11,0,-5,-7,-5
1558435129177375,-4,-5,-7,-12,-14,-8,-5,-5
1558435129177375,0,0,-1,0,1,2,2,1
1558435129177375,1,-2,7,10,7,10,7,2
1558435129177375,2,2,-2,-3,4,4,3,1
1558435129199314,-2,-4,-2,-2,1,0,1,1
1558435129199314,-1,-2,8,3,-9,-12,-11,-7
1558435129200312,-2,-1,0,4,-5,-8,-7,-4
1558435129200312,0,-3,-9,-13,-5,1,0,0
1558435129214275,2,0,3,2,12,8,15,9
1558435129214275,-1,-3,-15,-10,1,3,3,1
1558435129221256,-2,1,2,0,-2,-4,0,-5
1558435129221256,-1,4,6,10,1,1,-3,-2
1558435129237249,-2,-2,0,-1,-7,-2,-4,-3
1558435129237249,-2,-4,-4,-7,-5,-8,-5,-6
1558435129238246,0,-1,0,1,-1,1,1,1
1558435129238246,-2,-2,-1,-3,-2,-9,-3,-4
1558435129253172,-2,-3,-5,0,-2,0,2,-3
1558435129253172,4,4,7,18,13,14,9,5
1558435129258774,-2,-5,-7,-10,-1,-1,-3,-2
1558435129258774,0,-4,-5,-12,-5,0,3,3
1558435129273742,2,3,8,5,-2,-7,-6,-2
1558435129273742,-5,-8,-15,-25,-23,-16,-15,-6
1558435129281716,0,1,3,11,0,-1,-1,1
1558435129281716,1,0,-3,-4,3,3,7,3
1558435129297674,1,0,-1,3,10,8,4,4
1558435129297674,0,2,12,16,1,-3,-3,-2
1558435129297674,-1,0,-2,-12,-12,-10,-4,-2
1558435129297674,-5,-5,-7,-5,-1,0,-2,-4
1558435129313462,1,-2,-3,-6,2,2,0,0
1558435129313462,-2,-3,-10,-10,-1,-4,0,1
1558435129319426,-1,-1,2,5,0,-2,-3,2
1558435129319426,-1,-2,2,5,0,-1,-1,-2
1558435129334390,-3,2,2,-12,-10,-2,-6,-4
1558435129334390,-1,0,4,5,3,6,2,1
1558435129341588,1,-2,-5,-9,1,1,2,1
1558435129341588,2,3,4,8,4,0,-3,0
1558435129356560,-5,-7,-12,-4,-2,-4,-9,-5
1558435129356560,-1,-3,-4,3,-2,-2,1,-1
1558435129364358,0,1,2,4,6,7,-3,0
1558435129364358,-2,0,2,-8,-4,-2,-1,-4
1558435129373292,0,3,5,13,4,0,0,1
1558435129373292,-2,1,-11,-26,-3,2,4,-2
1558435129379510,-2,-5,-4,4,0,-3,1,-2
1558435129379510,1,-1,-1,1,-3,-1,-3,-1
1558435129395226,-5,-4,3,9,-7,-4,-5,-2
1558435129395226,0,2,7,10,3,-4,-3,-1
1558435129401210,2,2,4,6,1,0,5,3
1558435129401210,0,-2,-8,-7,4,3,-2,2
1558435129416168,-1,-4,-14,-34,-16,-10,-6,-3
1558435129416168,-1,-3,4,4,2,3,-1,-2
1558435129424150,-3,-5,-15,-15,-3,0,-2,-5
1558435129424150,0,6,12,13,6,1,1,-1
1558435129433125,1,5,4,6,0,0,4,1
1558435129433125,0,-3,6,1,-6,-8,-7,-2
1558435129439108,-1,3,-2,-9,-7,-7,-5,0
1558435129439108,-3,-8,-1,3,1,3,-1,0
1558435129455062,1,-4,-4,10,11,4,4,4
1558435129455062,1,0,-3,-14,-8,2,1,-1
1558435129461047,-1,-2,0,-4,-6,-6,-3,-3
1558435129461047,0,2,-7,2,2,-1,-3,-1
1558435129476007,1,2,-1,-12,-1,0,4,2
1558435129476007,-3,-3,1,8,7,0,-2,-2
1558435129483986,-1,1,-6,-5,-6,-2,-4,-3
1558435129483986,-5,-3,-2,0,-9,-5,0,-5
1558435129499954,2,2,5,6,3,2,1,0
1558435129499954,1,-4,1,10,9,4,0,3
1558435129499954,-2,0,-1,-9,-3,4,3,-3
1558435129499954,-1,0,-1,0,-8,-8,-6,-1
1558435129514916,0,-4,-5,-9,-4,1,-3,-3
1558435129514916,-1,1,0,3,8,9,4,2
1558435129521899,-3,1,10,12,14,5,-2,-2
1558435129521899,0,-3,-5,-5,-6,-3,3,-1
1558435129544825,-3,-2,-3,2,-4,-7,-5,-4
1558435129544825,1,4,-6,-9,-4,1,2,-1
1558435129545966,0,-5,2,15,8,4,1,1
1558435129545966,0,-3,-6,-26,-9,-6,-3,-1
1558435129559956,1,3,-2,-1,0,0,-2,-2
1558435129559956,-1,-1,4,3,-3,-3,-1,0
1558435129560913,0,0,-3,7,2,0,0,-1
1558435129560913,-1,1,7,5,3,1,0,0
1558435129575750,-5,-6,-8,-5,-6,-7,-10,-4
1558435129575750,-3,0,-4,-3,-3,-2,0,-2
1558435129581948,0,-3,0,-3,-2,0,1,0
1558435129581948,3,1,2,7,4,4,3,2
1558435129596702,-1,-1,0,4,2,-3,1,0
1558435129596702,0,0,1,-15,-8,-5,-1,-1
1558435129603705,-3,-3,-6,1,1,0,-1,-1
1558435129603705,1,-2,0,1,6,5,0,-2
1558435129619625,-1,-2,2,3,-2,-4,-2,-3
1558435129619625,2,0,-2,1,1,-1,2,3
1558435129620623,-1,2,1,2,-4,-2,-2,-2
1558435129620623,-4,-6,-1,5,0,-3,-3,-1
1558435129635583,-2,-3,0,4,0,3,0,-2
1558435129635583,-5,-3,-6,-7,-5,-5,-2,-3
1558435129641567,2,0,0,-7,-3,-1,4,2
1558435129641567,0,6,1,4,2,3,-1,-1
1558435129656536,-3,-7,-3,-8,-9,-7,-4,-3
1558435129656536,1,-2,-2,9,9,5,5,-2
1558435129664504,-1,-1,-3,-7,-4,-2,0,-1
1558435129664504,-3,-3,-4,-5,-8,-8,-2,-3
1558435129679620,-1,4,3,6,0,2,1,1
1558435129679620,-1,0,-6,-11,-10,-7,-6,-3
1558435129680460,0,-2,1,7,3,2,-4,-2
1558435129680460,-1,1,7,-5,3,7,7,0
1558435129695423,2,0,0,-5,0,5,1,0
1558435129695423,-3,-3,-1,-1,-5,-6,-5,-3
1558435129701406,1,3,-3,0,-5,-9,-2,-1
1558435129701406,3,2,4,9,9,2,-3,1
1558435129716522,1,1,2,-2,-3,3,3,1
1558435129716522,0,1,-1,0,-5,0,-1,0
1558435129741491,-2,-5,-2,-6,0,-3,1,-3
1558435129741491,-2,-3,-1,-3,-2,-4,0,2
1558435129742296,0,0,-3,-1,8,4,4,3
1558435129742296,-4,-4,-10,-11,0,-3,-5,-4
1558435129743299,-3,-4,-3,-5,-11,-8,-12,-5
1558435129743299,-1,-2,0,6,1,1,4,-1
1558435129755259,1,3,3,2,-1,2,1,0
1558435129755259,0,1,4,7,9,2,2,0
1558435129761276,-1,3,0,-5,-2,1,-2,-2
1558435129761276,-1,-3,-8,-3,-4,-6,-3,-3
1558435129777235,-5,-5,-5,-6,-7,-2,0,-2
1558435129777235,1,0,2,-8,-1,0,1,1
1558435129784190,-1,-1,3,2,-3,-2,0,-1
1558435129784190,-1,-2,-8,-10,-6,-3,-6,-2
1558435129800461,0,-1,-2,2,1,-2,2,1
1558435129800461,-1,2,2,4,2,3,1,0
1558435129800461,1,-1,3,4,2,1,0,3
1558435129800461,-2,-3,-3,-6,-2,-1,1,-2
1558435129815110,0,0,2,8,6,4,-3,-1
1558435129815110,-2,-2,-1,-1,-4,-6,-6,-2
1558435129821085,0,0,-2,-9,-8,-6,-3,-1
1558435129821085,2,2,5,19,12,8,5,3
1558435129837043,-2,0,-1,-9,-3,-4,1,-5
1558435129837043,-1,0,3,3,-6,-5,-3,-4
1558435129844208,-1,-2,-6,1,3,2,-1,-2
1558435129844208,-2,-4,-6,-15,-9,-3,-1,-1
1558435129859987,1,1,-1,2,5,2,0,-1
1558435129859987,-2,-2,-1,-3,-3,-1,-5,-2
1558435129859987,-3,-2,3,5,-3,-1,2,-1
1558435129859987,-4,-4,-7,-5,-1,-4,-8,-5
1558435129875942,0,1,1,0,-1,-3,1,4
1558435129875942,1,4,3,7,4,5,-2,0
1558435129881923,0,-1,0,-1,-3,-2,2,2
1558435129881923,-3,1,0,-7,0,4,-2,-3
1558435129897103,-2,-7,-4,-7,-2,-3,-3,-4
1558435129897103,2,2,-2,2,-5,-7,-2,1
1558435129904058,-1,1,7,17,15,9,2,2
1558435129904058,-3,-5,-4,-10,-14,-8,-5,-2
1558435129919826,2,-2,0,4,1,3,-2,-2
1558435129919826,-3,-5,-5,-8,-4,3,0,-3
1558435129920819,2,3,3,1,-1,-3,-1,-2
1558435129920819,2,0,-2,9,2,-2,-2,0
1558435129935788,1,2,-1,-2,2,-2,1,2
1558435129935788,-2,-4,0,4,0,3,-2,-2
1558435129941963,-5,-5,-13,-19,-8,-4,-3,-2
1558435129941963,0,1,6,9,3,3,2,3
1558435129956950,-2,0,-4,-6,-5,-8,-4,-3
1558435129956950,-1,-1,2,1,-1,-2,-1,-1
1558435129964709,1,-1,2,2,9,8,1,-1
1558435129964709,1,2,5,5,3,2,-1,-1
1558435129979878,-1,-2,-5,-8,-4,-7,-3,-1
1558435129979878,-2,-1,-2,-4,-6,-4,-1,0
1558435129980668,-3,-7,-4,-3,-8,-7,-5,-5
1558435129980668,2,2,3,-5,-8,-4,0,-2
1558435129995627,-1,2,6,6,11,9,1,0
1558435129995627,-3,-5,-6,-3,-1,0,4,-1
1558435130001604,-3,-1,-3,-7,-6,-4,-1,-1
1558435130001604,-1,2,-2,-1,-1,-2,-1,0
1558435130016780,-3,-9,-2,-2,-2,0,-5,-2
1558435130016780,1,2,-1,0,2,1,2,0
1558435130023550,-3,-1,1,1,-8,-5,-3,-2
1558435130023550,1,0,-2,-2,7,2,3,1
1558435130039717,1,1,0,-2,-2,0,-1,1
1558435130039717,0,-1,4,7,9,5,-1,2
1558435130040508,1,-3,-5,-1,0,-1,0,-2
1558435130040508,-5,-4,-7,-22,-14,-8,-3,-2
1558435130055459,-3,-2,0,-2,-6,-7,-5,-3
1558435130055459,-3,-4,-4,-2,-3,-4,-4,-2
1558435130061650,1,2,1,-3,-2,1,1,0
1558435130061650,0,-1,-1,-2,1,0,-1,-3
1558435130076406,0,-1,-6,-6,-1,0,0,0
1558435130076406,-1,-1,-1,0,-2,0,-1,1
1558435130084383,1,2,2,1,2,0,-1,0
1558435130084383,-3,-3,-3,2,0,-1,-1,-1
1558435130099439,-3,-3,-10,-4,-5,-1,-2,0
1558435130099439,1,0,-1,2,2,-1,-1,-1
1558435130100340,-1,-1,-7,-7,0,-2,-2,-4
1558435130100340,-2,2,4,4,1,1,1,1
1558435130115300,-1,-3,0,2,-2,-3,-1,-2
1558435130115300,1,5,-2,-3,0,0,-1,-1
1558435130121280,-5,-9,4,0,0,0,-1,0
1558435130121280,1,2,0,3,0,0,-1,1
1558435130136282,-4,-2,-3,2,-1,-1,0,-3
1558435130136282,1,-1,-3,-4,0,-3,0,1
1558435130144422,2,2,1,-1,2,-2,-4,0
1558435130144422,-2,-3,-2,0,-3,-2,0,-1
1558435130160303,-1,0,3,4,4,7,4,-2
1558435130160303,-1,-1,-4,-3,0,2,-1,-1
1558435130160303,-2,-2,1,4,-2,-1,1,1
1558435130160303,-2,-4,-6,-1,-2,-6,-4,1
1558435130175140,0,0,-3,-9,-8,-4,-5,-2
1558435130175140,1,1,5,6,4,2,8,3
1558435130182196,-1,1,-4,-2,0,2,3,1
1558435130182196,-1,-1,1,-2,1,-1,-1,-1
1558435130197179,-1,-1,-2,-1,-4,-5,-3,-3
1558435130197179,-3,-4,-1,-6,-7,-2,-8,-7
1558435130204263,-3,-2,-4,-3,-8,-10,-5,0
1558435130204263,2,4,7,19,19,8,8,6
1558435130220017,1,1,3,-2,7,11,11,7
1558435130220017,0,0,4,1,6,3,0,1
1558435130220017,-2,-1,-2,0,-7,-4,-3,-2
1558435130220017,-2,-2,1,-4,-8,-3,-2,-5
1558435130234977,-1,-3,-5,0,-2,-6,0,-2
1558435130234977,-2,-3,1,1,-1,-2,0,-2
1558435130241959,1,-1,-2,-10,3,4,1,-1
1558435130241959,-2,-1,-3,-3,0,-1,-3,-5
1558435130256919,-3,-3,-6,-8,-8,-3,-3,-2
1558435130256919,-1,2,-1,-5,-3,-9,-3,-2
1558435130263908,-3,-1,-1,1,-1,-4,-5,-2
1558435130263908,2,1,1,-1,-6,-3,-5,-3
1558435130278899,1,0,8,5,-2,-2,-2,-3
1558435130278899,-1,-5,-3,-3,-1,1,0,-1
1558435130286838,0,2,4,6,8,6,6,3
1558435130286838,-1,-1,-2,-20,-4,-2,-2,0
1558435130296137,-5,-4,-12,-3,-3,-5,-4,-3
1558435130296137,-2,-1,-1,-1,-6,-6,-4,-3
1558435130301797,-1,0,-2,-1,-1,-3,-5,-3
1558435130301797,0,0,2,9,3,1,1,0
1558435130317101,2,5,7,4,4,4,5,2
1558435130317101,-2,0,0,-3,-2,-1,-3,1
1558435130324737,1,-2,-3,3,0,-2,-1,1
1558435130324737,-1,-2,0,14,-1,-5,-3,-1
1558435130339697,0,0,-4,-2,5,8,-1,-1
1558435130339697,-2,-3,-1,-5,2,3,2,-2
1558435130346682,-4,-4,-5,-12,-13,-14,-10,-5
1558435130346682,1,-1,0,2,-3,-4,2,0
1558435130355660,2,2,15,21,15,8,6,1
1558435130355660,0,-3,-17,-10,-5,0,1,1
1558435130361866,0,-3,0,4,2,5,-1,-1
1558435130361866,-4,-2,-1,3,-10,-7,-8,-4
1558435130376614,-3,-4,-8,-21,-9,-9,-7,-2
1558435130376614,1,3,0,-3,-1,0,2,0
1558435130384584,-1,-1,1,-2,5,2,3,-1
1558435130384584,-2,0,-7,-2,5,7,3,1
1558435130399735,-3,-3,2,-1,-6,-8,-6,-3
1558435130399735,-4,-2,-1,2,-1,-5,-3,-1
1558435130406521,-1,0,-3,6,-1,2,3,-2
1558435130406521,-3,-1,1,-4,-6,-2,-4,-3
1558435130415498,2,2,-2,-4,-3,-8,0,2
1558435130415498,1,2,8,14,13,9,3,1
1558435130421527,-1,2,1,3,3,1,1,0
1558435130421527,-2,-5,-11,-11,-9,-5,-5,-1
1558435130436447,-2,-5,-3,4,-8,-9,-3,-2
1558435130436447,-3,-3,-3,-4,-9,-11,-7,-5
1558435130444426,3,1,5,11,8,8,4,-1
1558435130444426,-1,2,0,-11,0,3,-2,-2
1558435130459380,-3,0,-6,-14,-6,0,3,1
1558435130459380,-1,-1,-1,7,1,0,-2,0
1558435130466626,-2,-2,-6,-17,-13,-6,-6,-2
1558435130466626,1,0,4,8,6,1,1,2
1558435130482665,-3,-3,-6,0,-4,-3,-3,-2
1558435130482665,0,-1,-1,-4,-8,-6,-4,-3
1558435130482665,1,0,-3,-6,-1,5,5,4
1558435130482665,-1,-1,-3,7,12,10,7,0
1558435130496277,0,2,2,-6,4,2,1,0
1558435130496277,-2,-3,-5,-2,-9,-9,-3,-3
1558435130504257,-1,0,4,6,0,2,0,-1
1558435130504257,0,1,3,-3,-2,0,3,-3
1558435130519217,3,5,9,8,3,1,0,0
1558435130519217,-3,-2,-1,1,-2,-3,-6,0
1558435130526198,-3,-2,-3,-2,-2,-6,-4,-1
1558435130526198,-1,-3,-5,-3,-9,-5,2,0
1558435130550572,0,-3,-5,-4,3,3,-4,-3
1558435130550572,4,3,6,4,2,2,5,5
1558435130551131,-1,1,3,4,0,-4,1,-1
1558435130551131,-1,-2,-6,-3,-5,-6,-4,-4
1558435130556569,-3,-1,-1,0,0,2,0,-1
1558435130556569,-4,-2,-1,-10,-3,0,-1,-1
1558435130564539,0,0,3,4,7,5,1,2
1558435130564539,0,-1,1,-8,-4,-7,-7,-4
1558435130579514,1,0,1,4,-4,-3,3,0
1558435130579514,-1,1,-4,1,4,7,1,1
1558435130587458,0,-2,-13,-13,-1,-4,-1,-2
1558435130587458,-2,-6,-4,-7,-6,-3,1,-2
1558435130601995,1,-2,4,13,5,-5,-4,-1
1558435130601995,-1,-3,-2,-4,-12,-4,-1,-1
1558435130602996,-2,-3,-9,-17,-1,0,-1,-2
1558435130602996,0,0,3,10,5,3,3,3
1558435130617108,1,0,3,-10,-4,-3,-2,0
1558435130617108,4,5,5,16,12,6,2,3
1558435130623992,-7,-8,-8,-15,-17,-12,-8,-6
1558435130623992,-4,-3,-6,-6,-2,-4,-10,-4
1558435130638896,-2,1,-2,4,5,8,9,3
1558435130638896,1,2,9,10,8,2,3,2
1558435130646875,2,0,-1,1,0,0,-1,2
1558435130646875,-1,1,-1,-1,-3,4,-2,-2
1558435130661835,-4,-4,2,-2,-5,-8,-7,-5
1558435130661835,-3,-3,-12,-12,-7,-8,-8,-7
1558435130662833,-1,2,4,5,3,-1,3,-1
1558435130662833,-1,-3,1,12,1,-1,0,-3
1558435130676794,-2,0,-5,-9,-3,6,0,0
1558435130676794,0,-2,4,-6,4,7,1,0
1558435130683775,0,2,4,6,0,-2,-3,0
1558435130683775,-2,-1,-9,-10,-5,-6,-4,0
1558435130698737,-1,-2,0,17,14,5,1,-3
1558435130698737,0,0,2,1,-5,-4,0,2
1558435130707067,-2,-3,-2,-6,-10,-7,-4,-2
1558435130707067,1,2,5,5,3,1,-2,-2
1558435130722833,-3,-4,-5,-9,-12,-14,-9,-8
1558435130722833,0,-2,-6,-5,-3,0,4,3
1558435130722833,2,3,7,28,17,12,7,1
1558435130722833,0,0,4,-4,2,5,1,2
1558435130736986,-3,-1,-4,-3,-9,-2,-3,-2
1558435130736986,-3,-4,-3,0,3,1,0,-2
1558435130753040,0,-1,-2,-6,-6,-9,-5,-1
1558435130753040,0,-1,1,-1,-5,-3,1,-1
1558435130759044,-1,-1,-5,-1,7,5,2,0
1558435130759044,-3,-2,4,7,-5,-6,-5,-4
1558435130766589,2,4,2,-4,0,1,3,1
1558435130766589,-4,-4,-7,-1,0,-4,-2,-2
1558435130782972,1,1,4,4,-2,-5,-2,2
1558435130782972,1,0,-2,0,0,1,0,-1
1558435130782972,-1,-4,-5,-4,-3,0,-4,-2
1558435130782972,-2,0,-1,-13,-3,-1,-3,-2
1558435130796928,0,0,2,9,-4,-2,3,2
1558435130796928,-1,-2,-2,-11,2,-3,1,-2
1558435130804862,-2,-3,-6,-7,-5,-7,-9,-4
1558435130804862,0,0,-1,-4,-7,-5,-2,2
1558435130819820,0,2,1,11,11,7,1,1
1558435130819820,0,-2,-3,-7,0,3,0,1
1558435130826420,0,-3,-1,0,1,3,4,-1
1558435130826420,-1,-2,1,0,-2,-4,-1,0
1558435130842661,0,-1,4,-7,-6,-7,-4,-4
1558435130842661,-2,-3,-5,5,-4,-3,-5,-2
1558435130843350,-2,-2,-3,-3,1,3,3,1
1558435130843350,0,0,-1,0,4,3,-1,-2
1558435130856313,-1,-1,2,1,-3,-1,-2,-2
1558435130856313,-3,-2,-4,-4,-2,-1,-3,-3
1558435130864295,-3,-2,3,2,-7,-6,-5,-2
1558435130864295,-1,-2,-3,3,-1,-5,-6,-3
1558435130879252,0,-3,-7,-17,-8,1,6,3
1558435130879252,0,1,0,-1,1,2,3,1
1558435130886687,0,-2,2,10,1,2,0,-1
1558435130886687,-1,0,1,-3,-4,-2,3,0
1558435130902195,-1,-3,-5,-5,-11,-10,-6,-2
1558435130902195,-1,-2,-3,2,5,2,0,-1
1558435130903191,-1,0,0,-4,2,1,0,1
1558435130903191,-1,-1,0,-1,2,5,4,0
1558435130917222,0,-2,-3,2,-2,1,-1,-1
1558435130917222,-1,2,3,5,6,2,3,-1
1558435130924541,-2,0,1,-1,3,0,-5,-1
1558435130924541,-1,-2,-6,-11,2,2,4,-1
1558435130939487,-2,1,2,-1,1,1,-3,-2
1558435130939487,-3,-1,-9,-10,-10,-11,-8,-2
1558435130947290,-3,-6,-5,4,-6,-4,1,-1
1558435130947290,-4,-4,5,6,0,0,-2,-1
1558435130962408,-1,-2,-8,-5,-1,-2,-3,1
1558435130962408,-1,-2,1,-3,-2,1,-3,-2
1558435130963030,0,1,0,-3,-1,2,1,-2
1558435130963030,-1,0,-4,-1,1,-2,1,2
1558435130977239,-1,0,2,-2,1,-2,-1,-1
1558435130977239,2,1,6,12,3,1,-4,-3
1558435130983974,-4,-3,-4,-14,-9,-8,-2,-5
1558435130983974,0,0,3,1,1,2,-1,0
1558435130999275,-2,-2,-3,-3,2,-1,-2,-2
1558435130999275,-2,-1,-4,-4,-3,-4,-3,-2
1558435131006912,-1,1,3,6,7,5,1,2
1558435131006912,-1,-1,2,7,0,-1,-1,-1
1558435131022164,-1,1,0,-2,0,1,4,0
1558435131022164,0,-2,-6,-10,-9,-4,-1,0
1558435131022873,1,-2,-2,2,-1,-1,-3,-1
1558435131022873,0,0,-1,-3,-4,-5,-4,-2
1558435131037131,0,1,0,2,-1,-5,-3,-2
1558435131037131,-2,-5,-1,2,-5,-3,2,0
1558435131043816,-1,-1,-6,-14,2,5,-4,-3
1558435131043816,1,1,-2,4,3,-3,2,2
1558435131059773,-3,0,4,-1,0,2,-1,-2
1558435131059773,-1,3,1,-2,3,3,4,2
1558435131066754,-1,2,1,2,3,-1,1,-1
1558435131066754,-2,-2,-5,-3,-6,-2,-5,-3
1558435131082827,1,0,-1,4,-4,-5,-5,-1
1558435131082827,-3,0,-4,-7,-10,-8,-8,-4
1558435131082827,-1,-2,-1,-3,-5,-4,1,1
1558435131082827,-1,-2,4,12,8,3,-3,-3
1558435131096673,-1,-3,-4,-12,0,3,5,1
1558435131096673,-1,-3,-5,-7,-3,3,-1,-1
1558435131104651,2,3,-2,4,-2,-5,-4,1
1558435131104651,-1,2,5,1,4,5,7,5
1558435131119766,0,-3,-9,-4,-2,-2,-3,0
1558435131119766,-1,-3,4,4,-3,-9,-5,-3
1558435131126678,-1,-3,1,-9,-6,-1,0,-2
1558435131126678,0,1,1,5,0,3,4,0
1558435131142791,-3,-3,-3,0,1,2,-3,1
1558435131142791,0,2,0,-4,5,2,0,2
1558435131142791,-2,0,-2,10,3,-2,0,-3
1558435131142791,0,-1,-4,-8,-4,-6,-5,-5
1558435131156515,-2,1,4,-2,-5,0,0,-1
1558435131156515,-1,-2,3,9,3,1,2,-3
1558435131164777,-3,-4,-2,0,-2,0,-3,-1
1558435131164777,-1,1,2,2,7,4,1,0
1558435131179767,-1,-1,-3,6,3,-1,-1,-3
1558435131179767,-3,-6,-3,-14,-10,-8,-4,-2
1558435131186766,0,2,1,1,0,3,3,1
1558435131186766,-1,-1,-8,-13,-3,-1,-4,-1
1558435131201391,2,1,1,3,0,0,2,-3
1558435131201391,-2,-4,-4,-6,0,-2,0,-2
1558435131209697,0,-1,-1,-1,1,-1,-1,0
1558435131209697,-2,-2,0,-3,-8,-3,-6,-4
1558435131217349,-1,3,1,0,2,-2,-4,-1
1558435131217349,-1,2,1,4,-1,-1,-2,-3
1558435131224596,-6,-9,-6,-3,0,-1,1,0
1558435131224596,0,0,1,0,-1,-5,-2,1
1558435131239582,0,-4,-6,-2,-4,4,1,-1
1558435131239582,1,2,1,3,7,6,2,2
1558435131246567,-1,1,0,-5,-5,-2,-4,0
1558435131246567,-1,-4,-4,0,-9,-9,-5,-3
1558435131261518,-3,-2,6,15,-1,-5,-3,-2
1558435131261518,0,-2,0,1,3,1,2,0
1558435131269210,-3,-4,-16,-33,-8,-2,-6,-3
1558435131269210,1,1,-1,4,-2,2,1,0
1558435131278192,1,3,1,1,5,3,2,3
1558435131278192,0,1,9,16,1,-2,0,0
1558435131284172,0,0,4,2,-4,-7,-4,-3
1558435131284172,-4,-4,-5,-12,-7,-3,-1,-6
1558435131299498,-2,-4,-1,-3,-3,-4,-2,-3
1558435131299498,1,-1,1,-2,4,5,3,1
1558435131306471,2,-2,-8,3,2,3,-1,1
1558435131306471,2,-2,-6,-13,-3,-3,-4,-2
1558435131322296,-1,-1,-1,2,-5,-2,3,0
1558435131322296,-3,2,1,-7,0,-3,-4,-3
1558435131329082,-1,1,4,5,-5,1,1,-3
1558435131329082,-2,-4,4,10,2,2,2,1
1558435131345303,-1,-3,-5,-11,-2,-3,-1,2
1558435131345303,3,0,-5,0,3,0,0,1
1558435131345303,0,-2,0,1,-2,-1,0,-2
1558435131345303,-2,2,0,1,-3,-3,-3,-3
1558435131359364,-2,0,0,-2,1,1,1,0
1558435131359364,-4,-1,-1,-6,-3,2,0,-1
1558435131367039,-1,1,0,9,3,3,3,0
1558435131367039,-1,2,-5,-10,-3,2,0,-1
1558435131382264,0,-5,-1,-2,-3,-6,-2,-1
1558435131382264,0,-1,-6,1,-3,-3,-4,-3
1558435131389216,-1,1,1,-8,4,-3,-1,3
1558435131389216,0,-2,-1,4,2,-3,2,2
1558435131405120,-1,2,4,4,3,3,-1,-2
1558435131405120,-1,-4,-9,-8,-6,-3,0,-1
1558435131406059,0,-3,3,6,-6,-3,-5,-3
1558435131406059,-2,-3,-5,-1,0,-2,0,-1
1558435131418839,-3,1,-3,-4,0,-2,-1,0
1558435131418839,0,-1,6,11,3,4,1,-2
1558435131427000,0,4,1,-3,0,3,0,0
1558435131427000,-3,-2,-2,5,-1,-3,-1,-2
1558435131442013,-5,-10,-7,1,-8,-7,-9,-5
1558435131442013,1,-1,2,-4,-9,-1,5,5
1558435131449015,-2,-5,-9,-5,-5,-7,-4,-6
1558435131449015,0,2,3,-3,0,-1,-4,2
1558435131464982,2,5,5,-3,0,-2,-1,4
1558435131464982,-4,-2,0,13,7,7,4,1
1558435131465688,-4,-1,-5,-12,4,4,3,-1
1558435131465688,-2,-3,1,-1,-1,0,2,-2
1558435131479692,0,1,-1,-7,-7,-4,-6,-5
1558435131479692,2,-1,3,2,-6,-6,-4,-3
1558435131486628,-1,-3,-4,3,-1,2,1,-2
1558435131486628,0,0,1,-2,-1,-3,-3,-1
1558435131501591,1,4,1,0,5,4,0,-2
1558435131501591,1,0,-1,3,-1,1,2,-1
1558435131509690,1,0,2,-3,4,1,-3,-1
1558435131509690,-2,-6,-1,1,-8,-7,-5,-1
1558435131525815,2,0,6,9,5,8,11,7
1558435131525815,-2,0,-5,-11,-5,-2,-2,-1
1558435131526524,1,-3,8,9,-3,0,-1,0
1558435131526524,2,1,-6,-5,5,3,3,0
1558435131539702,-1,-1,-5,-1,2,-2,-3,-2
1558435131539702,-4,-2,-3,0,3,-1,-4,-3
1558435131546470,0,-4,1,2,-2,-4,1,0
1558435131546470,-4,-5,2,6,-6,0,-3,-3
1558435131561429,1,-2,2,3,6,5,3,-1
1558435131561429,-1,-2,-6,-20,-4,-2,-5,-1
1558435131568445,0,5,4,8,5,4,4,0
1558435131568445,-2,1,0,-5,-4,-2,-2,-3
1558435131584366,-6,-7,-13,-15,-13,-9,-10,-4
1558435131584366,1,-1,-2,9,10,2,2,3
1558435131585364,2,0,-5,-8,-5,-6,-2,0
1558435131585364,-1,0,-1,-6,0,-2,0,0
1558435131600328,-3,-4,1,-2,-10,-8,-7,-2
1558435131600328,-1,1,1,-3,-2,-1,-1,-3
1558435131606750,-4,0,-3,-2,6,5,0,-2
1558435131606750,4,3,5,18,10,10,10,4
1558435131621749,1,0,-1,-13,-3,0,0,0
1558435131621749,-1,-3,0,-8,-7,-8,-6,0
1558435131629689,-2,-3,2,1,-7,-7,-5,-4
1558435131629689,0,-3,-9,-6,3,0,-2,-3
1558435131645491,1,-2,1,10,6,0,-1,-1
1558435131645491,0,0,-2,-5,-9,-3,4,-2
1558435131645491,-1,3,-1,0,-4,-4,-5,-3
1558435131645491,-7,-10,-5,-6,-6,-3,-3,-4
1558435131659626,0,2,1,1,1,-1,2,-3
1558435131659626,-3,-3,-3,8,6,2,-6,-3
1558435131666191,4,2,5,0,3,7,7,5
1558435131666191,1,2,1,-2,4,3,1,2
1558435131681143,-1,-2,0,8,0,-4,-5,-3
1558435131681143,-2,1,-6,-12,-7,-2,0,-4
1558435131689453,-1,4,4,5,0,-1,-5,-2
1558435131689453,-2,-1,-3,-3,-13,-8,-6,-3
1558435131705263,1,0,0,1,4,3,8,3
1558435131705263,-2,-1,-3,9,3,1,-2,-3
1558435131705263,-2,-2,0,2,2,3,7,4
1558435131705263,-1,2,4,4,2,-2,-4,-4
1558435131719327,-2,-3,-5,-4,-7,-4,-4,-2
1558435131719327,-1,-5,-3,3,-1,-7,-7,-3
1558435131727135,-2,-4,-5,-7,-12,-6,-4,-3
1558435131727135,0,1,-3,4,15,7,3,3
1558435131742287,0,0,6,-3,2,0,0,3
1558435131742287,-1,1,2,5,-2,1,3,3
1558435131749282,-3,-4,-5,-9,1,-4,-1,-4
1558435131749282,-1,-1,0,-3,-11,-2,2,-2
1558435131765247,-1,1,-1,-1,6,6,0,0
1558435131765247,3,0,3,-1,-1,-1,0,2
1558435131765247,1,-1,1,4,-1,-1,-7,-4
1558435131765247,-3,-3,-9,-11,-7,-4,-3,-3
1558435131787956,-3,-1,-1,3,-4,-2,-3,-3
1558435131787956,-4,-3,-3,-6,-12,-5,-4,-4
1558435131787956,2,-4,-4,-4,4,3,4,3
1558435131787956,4,4,3,6,9,5,-2,-1
1558435131801784,-3,-2,-7,-19,-4,3,4,0
1558435131801784,-4,-3,2,3,0,-1,1,-1
1558435131809105,-1,1,-2,-8,-6,-4,-6,0
1558435131809105,-3,-2,0,0,-1,-1,-1,-2
1558435131825050,0,1,3,15,0,2,1,-2
1558435131825050,0,0,-1,0,-2,-3,-2,-3
1558435131825721,-2,0,-6,-10,-1,-6,-2,2
1558435131825721,1,1,3,1,0,-1,0,1
1558435131839687,-2,-2,-3,-8,-3,2,-1,-3
1558435131839687,-1,0,1,1,6,4,3,1
1558435131847007,-2,-5,-8,-4,0,1,0,0
1558435131847007,-3,-4,0,-1,-8,-7,-6,-7
1558435131861977,-2,-1,0,-5,-3,-4,-4,-6
1558435131861977,1,0,3,3,-1,-5,-5,0
1558435131869671,-2,0,-7,-5,-4,0,4,6
1558435131869671,-2,-3,-2,-1,-3,-3,-1,2
1558435131884566,1,0,-1,3,1,5,1,2
1558435131884566,0,-3,-2,-11,4,5,3,-3
1558435131885561,-1,1,6,3,-3,-4,-6,-5
1558435131885561,-1,-1,-6,-2,4,3,0,0
1558435131898562,-2,-3,-4,-4,-8,-5,-3,-2
1558435131898562,-1,0,3,-5,-4,-7,-5,-1
1558435131906868,-2,-9,-16,0,-6,-4,-3,-2
1558435131906868,1,2,4,6,6,6,4,0
1558435131921467,-3,-4,-7,-6,-5,-4,-4,-3
1558435131921467,1,0,0,8,1,0,1,5
1558435131929795,-1,4,5,0,3,3,-3,-10
1558435131929795,-1,-2,-5,-24,-8,-5,-7,-3
1558435131945401,-3,-3,-1,5,1,-2,1,-4
1558435131945401,-2,-4,-3,4,1,3,2,-3
1558435131945401,2,8,7,15,8,1,2,4
1558435131945401,-1,-5,-2,6,2,0,0,0
1558435131959364,-2,-5,-5,-8,-2,-4,-3,-1
1558435131959364,-1,-1,-2,-4,-6,-6,-1,1
1558435131966344,-1,-2,-2,1,2,1,-2,0
1558435131966344,1,4,2,3,-4,-4,0,-1
1558435131981343,0,-2,-1,9,-1,-3,-5,-3
1558435131981343,-1,3,-2,-15,-4,0,-3,-2
1558435131989295,-1,-1,-1,2,5,6,6,0
1558435131989295,-1,-1,6,10,2,0,3,1
1558435132004278,1,-1,-4,-5,-1,-2,-1,0
1558435132004278,-1,-2,-10,-11,-2,-2,-5,-1
1558435132005241,-3,-3,3,2,-2,-5,-4,-4
1558435132005241,-4,-7,-6,-14,-15,-7,-2,-2
1558435132019238,3,0,7,12,7,5,5,2
1558435132019238,0,4,0,1,5,1,0,-2
1558435132026184,-2,-3,-2,3,4,7,2,-1
1558435132026184,2,2,1,-6,1,2,1,3
1558435132041203,0,0,-3,-7,-5,-5,-3,2
1558435132041203,-2,1,1,1,1,1,-1,2
1558435132049124,-2,0,2,0,-12,-9,-3,-2
1558435132049124,0,-2,-4,1,2,0,0,1
1558435132064085,-2,-2,-1,-4,7,11,5,0
1558435132064085,-1,-2,-6,-5,-2,-2,3,-1
1558435132065080,-3,0,1,1,-4,-9,-6,-6
1558435132065080,-1,1,-3,-3,-4,2,-4,-2
1558435132079105,-1,2,-2,-1,-2,-4,-4,-2
1558435132079105,-4,-6,3,11,-2,-2,-2,-3
1558435132086026,1,0,-3,-11,-5,-2,-2,0
1558435132086026,0,-6,-1,-3,-4,-3,-1,-2
1558435132100985,0,1,6,11,10,6,-3,-2
1558435132100985,2,3,0,8,5,3,1,2
1558435132108963,1,-3,-5,-13,-2,4,10,2
1558435132108963,-2,-1,-5,-8,-2,1,-2,-1
1558435132123935,-1,-1,4,11,1,-2,2,1
1558435132123935,-1,0,4,4,0,-5,-5,-3
1558435132131903,-1,-2,-2,-8,-3,-4,-1,1
1558435132131903,-1,0,2,12,7,5,1,-2
1558435132138885,-2,0,-1,-4,-2,1,-4,-1
1558435132138885,-4,-3,-4,-3,-7,-6,-4,-5
1558435132145898,-1,-1,4,6,-4,-9,-4,-4
1558435132145898,-2,0,-5,2,2,-4,-6,0
1558435132160824,-2,-3,-1,-7,-3,4,1,3
1558435132160824,2,-1,-3,1,4,7,4,2
1558435132168805,0,-4,-4,4,7,5,0,1
1558435132168805,-3,0,3,-6,-12,-12,-7,-4
1558435132183764,-1,0,-2,5,0,-3,2,-2
1558435132183764,-1,0,-11,-17,2,3,0,-2
1558435132191776,-3,-1,-4,-1,-5,-2,-4,-2
1558435132191776,-1,2,0,5,-2,-6,-1,-1
1558435132198757,-3,-4,-2,-1,0,-3,1,3
1558435132198757,-2,-3,-1,-6,-1,4,5,-2
1558435132206701,-2,-1,2,-1,-4,-4,-5,-3
1558435132206701,-2,-2,-4,-9,-2,2,0,-3
1558435132221661,-1,3,-1,1,-2,-7,-5,1
1558435132221661,0,-5,2,8,9,4,3,2
1558435132228686,1,-3,-3,3,-4,0,2,1
1558435132228686,1,1,3,10,1,-4,-4,-1
1558435132243638,-2,-5,-5,-17,-14,-6,1,-2
1558435132243638,3,2,6,12,11,8,5,1
1558435132252578,0,-2,-1,-5,1,3,-2,0
1558435132252578,0,0,-4,0,3,1,0,3
1558435132258598,1,-1,-1,-1,-6,-5,-4,-1
1558435132258598,-3,-5,-11,-14,-11,-11,-6,-5
1558435132266576,-1,2,2,8,10,8,6,1
1558435132266576,0,0,3,5,9,2,2,1
1558435132281501,1,2,1,-3,6,1,-3,-2
1558435132281501,-2,2,8,10,-11,-5,-6,-6
1558435132288482,-3,-7,-10,-9,-4,-5,-5,-4
1558435132288482,-4,-7,-5,-4,-7,-5,-7,-3
1558435132303442,1,0,1,-5,-2,1,6,2
1558435132303442,-1,5,9,15,4,1,1,2
1558435132312460,-1,-2,-4,-17,-7,-4,-3,1
1558435132312460,1,2,-5,-8,4,5,1,-1
1558435132327437,-3,-3,-3,-2,-3,-3,-5,-2
1558435132327437,-6,-12,-5,-5,3,1,4,-3
1558435132327437,1,0,4,9,-4,-7,-1,-2
1558435132327437,1,-2,3,-1,5,-1,1,-1
1558435132341341,2,10,0,-4,-6,-2,-6,-4
1558435132341341,0,0,0,0,-4,-1,1,-1
1558435132348323,-4,-13,-1,5,8,4,-8,-1
1558435132348323,-1,-4,-6,-11,-3,3,10,2
1558435132364281,-1,-4,-7,4,1,-3,-2,-2
1558435132364281,-1,5,1,-6,-4,-4,-1,2
1558435132372293,-3,2,5,1,-5,-2,0,-2
1558435132372293,-2,-2,-1,5,0,0,-3,-3
1558435132387219,-1,1,0,-3,3,6,4,1
1558435132387219,0,-2,-3,-7,-6,-4,-4,-3
1558435132387219,-2,1,-1,-2,-2,-7,-4,-5
1558435132387219,-3,0,7,0,-9,-3,-2,-5
1558435132401183,-1,-2,-5,-6,3,-1,1,0
1558435132401183,1,-2,-5,-3,-2,1,-3,1
1558435132409159,2,1,-1,3,9,5,1,2
1558435132409159,-1,1,-2,-2,-5,-3,-3,0
1558435132424121,-3,-5,4,13,-3,-7,-4,-3
1558435132424121,1,0,3,1,-3,-2,2,-1
1558435132432100,0,1,-12,-15,-9,2,4,1
1558435132432100,2,4,5,7,16,12,7,5
1558435132447058,1,3,5,9,-1,0,0,-1
1558435132447058,-9,-13,-14,-9,-4,-7,-4,-3
1558435132448057,-1,2,4,9,0,-4,-2,-1
1558435132448057,-3,-1,-4,-10,-7,-3,-3,-4
1558435132461022,-1,-2,-4,-7,-2,-1,-2,-2
1558435132461022,2,4,12,15,4,2,1,-2
1558435132469000,-1,-4,-10,-15,-4,-4,-4,-2
1558435132469000,1,-2,-3,-5,-8,-7,-2,1
1558435132483961,-3,-4,2,5,-2,0,0,-1
1558435132483961,0,-2,-4,-14,-4,0,0,0
1558435132491938,-1,1,1,9,7,0,-1,1
1558435132491938,-2,2,2,-8,-15,-7,-2,-1
1558435132506898,1,-1,-4,-1,4,4,4,0
1558435132506898,1,2,-2,-3,7,5,2,2
1558435132507896,-2,-1,12,19,4,4,0,-3
1558435132507896,-1,0,-3,-7,-3,-2,2,2
1558435132520862,-2,-7,-9,-8,-2,-3,-6,-4
1558435132520862,-2,-2,-5,1,-6,-10,-11,-6
1558435132528841,-2,3,-2,-6,-5,-4,1,-2
1558435132528841,1,-5,6,14,11,11,7,1
1558435132543803,-4,-5,-2,0,-6,0,-4,1
1558435132543803,1,-2,-7,-17,-1,0,3,3
1558435132551783,-1,-3,0,-7,-7,-4,-4,-2
1558435132551783,0,2,-2,2,-1,-5,-8,-5
1558435132566744,-3,0,-4,-6,-1,-4,-3,-3
1558435132566744,-1,1,6,13,1,1,-2,-1
1558435132567737,-2,0,4,4,4,5,2,2
1558435132567737,0,-1,2,10,8,6,0,0
1558435132581702,-2,-2,-7,-11,-1,-2,-3,-3
1558435132581702,-3,-4,-5,-13,-14,-9,-5,-1
1558435132596659,-2,1,-1,-2,-4,-3,-2,-5
1558435132596659,0,-1,-2,5,2,2,2,2
1558435132603641,0,0,3,7,5,0,-3,0
1558435132603641,-4,0,-4,-12,-6,-3,5,-2
1558435132611621,2,1,6,13,0,4,2,2
1558435132611621,-4,-5,-13,-19,5,1,-1,-3
1558435132626579,0,0,1,-1,-5,-4,3,0
1558435132626579,1,0,-2,3,-1,3,-3,0
1558435132627576,1,0,2,-2,-3,-5,-4,-1
1558435132627576,-2,-5,-2,2,-9,-7,-5,-3
1558435132649517,-1,0,0,1,1,3,2,0
1558435132649517,-1,0,4,7,4,1,4,0
1558435132650518,1,-2,0,-2,-2,-3,-5,2
1558435132650518,1,0,1,-2,3,3,3,2
1558435132663480,1,5,1,1,5,3,1,0
1558435132663480,0,-3,5,13,0,1,-2,1
1558435132672458,-5,-7,-13,-26,-7,-3,-2,-7
1558435132672458,-2,-2,-4,-4,-5,-4,-1,-1
1558435132687416,-2,-1,2,-1,-6,-4,-3,-2
1558435132687416,-2,1,0,2,2,-1,-1,-1
1558435132687416,-1,-3,2,7,5,4,0,-1
1558435132687416,-3,-4,-10,-10,-7,-3,-1,-4
1558435132701380,-1,1,-4,-11,-2,0,-1,0
1558435132701380,0,4,13,14,6,1,-1,0
1558435132708360,-1,-4,-5,0,4,1,0,3
1558435132708360,0,-3,-3,-1,-6,-4,-2,-3
1558435132724317,0,-1,-4,3,0,0,3,10
1558435132724317,-1,-3,-4,-13,-4,-2,-7,-13
1558435132732298,1,3,8,13,7,4,3,-1
1558435132732298,-1,2,3,5,1,1,0,0
1558435132747256,1,1,0,1,-2,-2,-1,-4
1558435132747256,-2,-3,-7,0,1,-2,-2,-1
1558435132747256,0,3,2,0,-3,-1,1,-1
1558435132747256,1,1,1,0,-2,-3,-6,-4
1558435132761220,-1,-1,1,5,3,2,1,0
1558435132761220,0,-3,3,-8,-7,-3,-1,2
1558435132777176,0,5,-9,-3,-3,-4,-4,-3
1558435132777176,-2,-5,4,-3,0,0,-2,0
1558435132784163,1,1,1,-5,-5,-2,-1,-1
1558435132784163,-1,-4,2,2,2,2,1,2
1558435132792137,-2,-4,-22,-16,-8,-4,0,-1
1558435132792137,2,4,7,6,2,0,-2,-1
1558435132807095,-1,2,-2,-2,-2,-1,-3,-2
1558435132807095,0,2,3,-1,0,-2,0,1
1558435132808093,-2,-2,7,7,1,0,0,0
1558435132808093,-2,-1,-8,1,-1,-3,0,-2
1558435132821059,-4,-8,-5,-7,-3,-2,0,-3
1558435132821059,-2,-2,-6,-2,-1,-2,-3,-1
1558435132829037,-1,2,3,0,1,1,2,6
1558435132829037,-1,-1,-2,-2,0,1,0,-5
1558435132843997,0,-5,7,10,2,2,1,-2
1558435132843997,-1,-3,-9,-9,-6,0,-2,-2
1558435132859955,-2,-2,-1,5,0,-1,-1,0
1558435132859955,-3,-1,-2,-5,-2,-4,-3,0
1558435132866936,0,3,1,3,-2,-4,-1,0
1558435132866936,-1,-2,0,2,4,1,1,0
1558435132867934,-1,-2,4,1,2,5,1,0
1558435132867934,0,-5,-8,-12,-8,-2,-3,-1
1558435132880898,1,4,0,2,2,3,2,0
1558435132880898,0,-3,-1,-1,-5,-9,-7,1
1558435132888882,-1,1,3,-3,2,-1,6,-2
1558435132888882,-3,-2,-3,2,-1,2,3,-1
1558435132903845,-2,-1,0,-5,-5,-1,-1,-1
1558435132903845,0,7,0,9,6,3,1,-2
1558435132911817,-2,-2,-5,-7,-9,-4,-4,-2
1558435132911817,-3,-3,7,14,9,0,-1,-4
1558435132926775,-2,-6,-18,-30,-14,-6,-4,-2
1558435132926775,-1,0,5,6,3,3,-3,0
1558435132927774,-1,-4,-7,-11,-8,-9,-8,-2
1558435132927774,1,10,4,4,-3,-4,1,1
1558435132941735,-2,-2,-2,-5,-5,-2,-3,-2
1558435132941735,-2,-1,-5,-5,7,7,4,-2
1558435132948716,1,-1,-1,7,2,-1,-1,1
1558435132948716,2,4,6,11,0,1,0,3
1558435132963680,-2,0,-1,-6,-2,-6,-1,-3
1558435132963680,-5,-10,-11,-9,-9,-10,-5,-3
1558435132971656,3,0,2,6,-1,2,7,1
1558435132971656,2,1,6,-2,15,8,0,1
1558435132986616,0,-1,0,9,-5,-4,-3,0
1558435132986616,3,5,3,-3,3,4,-1,1
1558435132987612,-2,-1,2,7,6,3,1,-1
1558435132987612,1,-2,10,-3,-7,-4,0,1
1558435133001577,-3,-5,-8,-4,2,0,-3,-2
1558435133001577,-4,-6,-15,-11,-8,-8,-3,-6
1558435133008557,-3,-4,2,-2,-2,-2,-4,-2
1558435133008557,0,1,0,0,3,4,2,1
1558435133023518,0,1,5,5,3,2,-2,1
1558435133023518,-1,1,4,-2,0,0,2,1
1558435133031495,-2,-4,-11,-1,-8,-6,-2,1
1558435133031495,-3,-3,-4,-8,-5,-4,1,-1
1558435133047452,0,0,1,6,4,0,-1,-2
1558435133047452,-2,1,1,0,-2,-1,1,-1
1558435133047452,0,-1,2,-3,0,1,-2,-2
1558435133047452,-2,-1,-3,-4,-10,-8,-1,-4
1558435133061416,-2,-4,0,4,-6,-9,-5,0
1558435133061416,2,2,5,8,1,6,6,3
1558435133068397,1,2,2,-9,12,7,3,-1
1558435133068397,-3,-5,-5,-2,-3,2,-6,-5
1558435133084355,-3,-4,-8,-4,-4,-4,-4,-3
1558435133084355,-1,-3,-1,-7,-9,-6,-3,-3
1558435133091341,2,3,6,5,1,-2,-5,-4
1558435133091341,0,0,-8,-10,-7,-3,-3,1
1558435133106296,-2,0,1,0,-2,2,5,-2
1558435133106296,-2,-6,-1,8,8,4,-1,-1
1558435133114275,0,-2,3,5,1,3,5,2
1558435133114275,0,0,0,3,10,1,1,-1
1558435133137216,1,0,-6,-5,-1,2,3,-2
1558435133137216,-1,2,0,-2,-7,-5,-10,-2
1558435133138211,-3,-3,-2,-4,-1,-2,2,-3
1558435133138211,-2,-4,-1,3,0,1,1,-1
1558435133144197,0,3,11,10,4,-3,-2,-1
1558435133144197,0,-1,-7,-14,-3,0,0,0
1558435133151183,-3,-3,-7,-10,-7,-4,-4,5
1558435133151183,-2,-4,-2,0,-6,-4,-4,-13
1558435133166139,1,0,5,10,6,6,3,1
1558435133166139,-1,2,4,7,3,1,-1,-1
1558435133174114,-1,0,-5,-9,-8,-4,-3,-2
1558435133174114,-2,0,-9,-9,-3,-5,-3,4
1558435133181095,-5,-7,2,-1,1,1,-5,-5
1558435133181095,0,-3,-5,-1,-2,2,8,0
1558435133189074,-3,-2,2,4,3,-1,-4,-2
1558435133189074,3,-1,-2,-3,1,3,-1,0
1558435133204034,1,3,0,0,1,0,-4,0
1558435133204034,-2,7,2,2,-8,-9,-2,1
1558435133211015,-5,-14,-11,-11,-6,-5,-3,-5
1558435133211015,-4,-3,0,0,-3,-3,-8,-1
1558435133225976,1,4,-2,-7,4,6,6,5
1558435133225976,0,-2,1,7,3,3,0,2
1558435133234953,1,6,6,9,1,0,3,-2
1558435133234953,0,-1,2,2,1,2,-1,2
1558435133249911,-3,-4,-10,-11,-8,-3,-6,-4
1558435133249911,-1,-1,2,3,3,-2,2,0
1558435133249911,-2,-2,-6,-4,-3,-6,-5,-2
1558435133249911,-1,-2,-5,-4,0,-1,3,1
1558435133263874,-1,1,5,7,2,2,3,0
1558435133263874,-1,-5,-2,-1,-2,-2,-5,0
1558435133279831,-5,-4,-11,-19,-13,-5,-3,-7
1558435133279831,-4,-3,0,6,-3,-6,-3,-10
1558435133294791,1,6,-3,-15,0,6,3,1
1558435133294791,-3,0,-5,-1,4,2,2,0
1558435133295793,0,-4,5,11,6,1,0,3
1558435133295793,-1,-1,-2,-5,-4,-2,-3,2
1558435133309753,-3,-7,-3,-1,-7,-7,-7,-3
1558435133309753,0,2,0,-1,1,2,2,1
1558435133309753,2,2,0,1,3,3,0,2
1558435133309753,-1,0,2,6,0,-3,-2,-2
1558435133323720,0,-5,-7,-10,-11,-10,-4,-2
1558435133323720,-4,-3,-7,-8,-7,-2,-1,-4
1558435133339674,0,6,1,1,-1,1,0,2
1558435133339674,-2,-4,0,0,8,3,-1,0
1558435133346652,-3,-1,7,9,3,1,3,1
1558435133346652,1,-2,-2,-5,-3,-1,-5,-3
1558435133354630,0,1,1,0,-1,1,2,-1
1558435133354630,-2,-1,-7,-11,-6,-2,0,5
1558435133369592,-3,-2,1,3,-2,-3,-3,-1
1558435133369592,1,-2,-3,-5,2,1,0,4
1558435133370588,2,5,5,8,5,4,3,-4
1558435133370588,-2,-6,-4,-3,-2,0,-2,-4
1558435133383554,-2,-2,-2,-1,-3,-6,-4,-4
1558435133383554,-5,-13,-5,-4,-8,-7,-4,-5
1558435133391533,0,1,1,2,3,2,2,3
1558435133391533,-1,5,4,1,6,1,0,0
1558435133406493,3,7,2,1,3,4,4,-1
1558435133406493,-1,-4,-3,4,-3,1,-1,-1
1558435133414472,-2,0,-2,0,-5,-2,-6,-1
1558435133414472,-2,-3,0,-6,-4,-2,2,1
1558435133429433,2,1,-2,-2,5,5,5,6
1558435133429433,-1,1,0,-1,1,1,0,-4
1558435133430430,-1,-5,-1,1,0,-3,-2,0
1558435133430430,1,1,1,6,-5,-1,-2,-1
1558435133443394,-6,-8,-9,-14,-10,-9,-6,-4
1558435133443394,-1,-2,-8,-8,-1,-3,-4,0
1558435133451378,-1,0,0,-4,4,4,2,1
1558435133451378,3,9,8,10,2,0,1,-2
1558435133466333,-6,-15,-10,-7,0,1,-3,-3
1558435133466333,-1,0,1,3,1,-1,-4,-5
1558435133474311,-3,-4,-2,-1,-6,-5,-7,-5
1558435133474311,2,4,0,-2,1,1,3,5
1558435133489271,-1,-3,2,7,4,1,3,0
1558435133489271,0,3,2,-1,0,2,2,1
1558435133490268,-2,1,-4,-2,-1,-3,-4,-3
1558435133490268,-1,-4,-5,-4,-3,1,2,-2
1558435133504230,0,2,-1,-1,-7,-5,-4,-1
1558435133504230,-1,-2,0,1,-7,-9,-7,-2
1558435133511213,0,1,0,-1,5,4,4,0
1558435133511213,1,2,4,2,3,3,3,1
1558435133526172,-1,-4,-4,0,0,-1,-1,-4
1558435133526172,0,3,-3,-3,-1,-3,-3,-2
1558435133534156,-5,-10,-6,2,-8,-5,-3,-5
1558435133534156,-2,-3,-8,-20,-1,-1,0,0
1558435133549113,4,7,14,14,10,8,3,6
1558435133549113,-3,-3,-3,-3,-1,0,0,3
1558435133550109,-1,-3,-2,-7,-9,-6,-5,-3
1558435133550109,-3,-3,-5,1,-6,-6,-2,-3
1558435133564072,1,1,7,4,6,8,7,5
1558435133564072,-1,-7,-11,-2,1,0,-1,-3
1558435133571054,-1,3,3,3,6,4,1,0
1558435133571054,-4,-5,-7,-2,-7,-8,-9,-6
1558435133586012,-1,-5,-4,-16,-8,-5,-3,-3
1558435133586012,-1,2,-1,1,2,1,3,-1
1558435133594989,-1,-1,3,1,0,-4,-3,0
1558435133594989,0,-2,1,1,1,2,0,0
1558435133609948,-2,4,0,11,0,0,-3,-2
1558435133609948,3,1,2,-4,14,18,14,6
1558435133609948,-3,-6,-4,-4,-6,-4,-2,-3
1558435133609948,0,4,2,7,1,-4,-4,-1
1558435133623912,3,6,6,4,1,-7,-2,2
1558435133623912,-2,-3,-9,-16,-9,-7,-5,-5
1558435133630892,-1,2,3,0,0,4,2,0
1558435133630892,-4,-5,-8,-6,-1,3,0,-3
1558435133645853,-2,-1,-4,3,-5,-10,-7,-5
1558435133645853,2,2,3,3,2,-6,0,2
1558435133654829,-1,2,1,-2,1,2,-1,0
1558435133654829,-1,-1,-1,4,-1,2,-1,-1
1558435133669789,-3,-7,-2,2,-3,4,3,-1
1558435133669789,-3,1,3,0,3,2,4,1
1558435133669789,-1,-6,-4,-6,-1,-2,-3,-2
1558435133669789,-1,3,4,6,2,0,1,2
1558435133683753,-1,1,0,-1,8,2,-2,-1
1558435133683753,0,4,8,7,-7,-5,-5,-4
1558435133691729,-2,0,-5,0,-12,-11,-9,-4
1558435133691729,0,-7,-4,-17,-1,0,5,1
1558435133706689,-1,-4,-10,-7,-7,-10,-3,-3
1558435133706689,-2,-3,2,9,4,7,-1,-4
1558435133714669,5,9,8,3,13,11,12,6
1558435133714669,-5,-2,-9,-5,-9,-5,-9,-6
1558435133729628,0,-2,2,1,2,8,1,-3
1558435133729628,-3,-5,-10,-11,-5,-10,-4,-2
1558435133730626,1,-1,-1,-6,-1,0,-1,2
1558435133730626,-1,-2,5,7,-1,-3,-2,1
1558435133743592,0,3,-6,-6,0,-2,-3,-2
1558435133743592,-2,-4,-3,5,-10,-5,-7,-4
1558435133751569,0,0,-2,-6,-1,-5,-1,0
1558435133751569,-2,-6,-2,1,-3,0,2,0
1558435133766533,2,3,9,7,-2,3,2,3
1558435133766533,2,3,-3,1,9,4,3,-1
1558435133774508,-2,-1,-3,-1,-4,-1,-3,-1
1558435133774508,2,-2,3,0,-1,-3,-4,-2
1558435133789468,-4,-8,-15,-14,-10,-10,-7,-5
1558435133789468,4,3,12,6,6,7,4,6
1558435133790466,-3,1,-3,3,1,-4,-2,-1
1558435133790466,-4,-9,-9,-9,-1,-2,1,-2
1558435133803431,-3,-5,-5,5,9,14,9,2
1558435133803431,-2,-2,5,4,-8,-14,-7,-1
1558435133811410,1,0,-1,-9,1,4,1,2
1558435133811410,3,6,4,6,-1,-1,-1,-1
1558435133826379,-5,-5,-2,-13,-8,-6,-7,-5
1558435133826379,-1,1,0,-2,-4,-1,-1,-1
1558435133834348,-2,2,3,8,3,-5,1,1
1558435133834348,-1,-7,-7,-2,4,5,6,4
1558435133849309,3,3,3,-3,-4,-6,0,0
1558435133849309,0,2,1,6,4,2,-10,-5
1558435133850305,-3,-4,0,6,-8,-14,-5,-4
1558435133850305,2,0,-5,-16,18,15,11,7
1558435133864267,0,0,1,-2,-6,0,1,1
1558435133864267,-2,-3,1,0,-4,2,-4,-5
1558435133871249,-2,-5,-1,0,7,2,-4,-5
1558435133871249,2,6,0,0,-9,0,0,0
1558435133886209,-5,-8,2,9,0,-7,-6,-4
1558435133886209,0,2,-6,-9,-2,4,3,1
1558435133894203,-1,-5,1,1,2,0,-2,-1
1558435133894203,0,2,2,11,10,6,2,0
1558435133909148,-1,1,7,6,0,2,-1,-3
1558435133909148,-3,-5,-7,-12,-12,-13,-2,-2
1558435133910146,2,1,-2,-6,3,11,4,3
1558435133910146,1,0,8,5,-3,-9,-3,0
