timestamp,emg1,emg2,emg3,emg4,emg5,emg6,emg7,emg8
1558435096153739,-4,-6,-5,9,-13,-13,-8,-5
1558435096153739,-1,-2,-14,-29,-3,2,-1,2
1558435096154737,-2,-2,0,1,-5,-4,-2,-3
1558435096154737,0,-2,-1,7,2,-1,-4,-3
1558435096155734,0,-1,6,1,0,2,1,1
1558435096155734,1,1,2,8,11,4,5,3
1558435096156730,-2,-1,-1,4,6,3,0,2
1558435096156730,0,1,2,-7,0,-5,-1,1
1558435096171690,1,0,3,11,4,-1,-5,-2
1558435096171690,0,-4,1,-3,-10,0,0,-1
1558435096172688,0,-1,-6,-9,2,4,4,1
1558435096172688,-5,-2,-5,-9,-7,-6,-7,-5
1558435096185652,-2,-1,-5,-12,-6,-6,-4,-4
1558435096185652,0,1,2,5,4,3,2,1
1558435096193631,2,2,2,2,3,2,-2,-1
1558435096193631,-2,-5,-1,10,-9,-5,-5,-3
1558435096200612,-1,-1,-6,-17,-6,-4,1,0
1558435096200612,-3,1,0,0,2,2,-1,-2
1558435096215586,-1,1,4,8,-2,-2,-1,2
1558435096215586,-2,-4,-4,-4,-3,-1,1,1
1558435096223553,2,2,0,-5,1,1,4,0
1558435096223553,-1,-3,0,-1,1,-4,-4,-3
1558435096231530,-2,-3,-2,3,-13,-10,-6,-5
1558435096231530,2,0,3,6,10,8,7,-1
1558435096278405,-3,-11,-3,-4,-4,-4,-6,-1
1558435096278405,-1,-5,-3,0,0,-7,-6,-3
1558435096279403,-1,-1,-4,-16,-6,0,-1,-2
1558435096279403,0,5,3,1,3,0,4,1
1558435096279403,-1,6,-2,4,-10,-7,-5,-1
1558435096279403,-3,-6,-4,-11,-11,-6,-3,-3
1558435096282394,-3,-2,4,14,3,-3,-2,-1
1558435096282394,-4,-5,-6,-4,-6,-1,-5,-4
1558435096291370,1,0,3,7,11,7,5,2
1558435096291370,2,5,1,-3,0,-3,3,3
1558435096297354,-3,-3,-3,-1,-4,-8,-9,-4
1558435096297354,0,-2,3,7,5,4,3,2
1558435096306330,0,1,-8,-25,-7,-6,-1,-3
1558435096306330,-2,0,0,2,3,5,4,-1
1558435096320292,2,1,3,7,7,5,6,3
1558435096320292,-4,-8,-10,-17,-10,-10,-9,-5
1558435096329270,-1,-2,-1,5,10,8,3,2
1558435096329270,0,-2,-4,-7,-6,-3,-3,-1
1558435096335252,-1,1,3,3,-2,-1,-1,-3
1558435096335252,0,1,0,0,-1,-2,-1,1
1558435096352208,1,0,1,3,4,2,-1,0
1558435096352208,0,-1,-6,2,-7,3,4,-1
1558435096357194,-1,1,-2,-11,7,7,3,3
1558435096357194,-3,0,1,2,-1,-7,-3,-3
1558435096366170,-2,0,0,1,-5,-4,-2,-2
1558435096366170,-3,-1,4,8,-6,-5,-4,-2
1558435096381131,-1,-1,-5,-8,-3,-2,-3,0
1558435096381131,1,1,4,-5,1,8,2,0
1558435096389110,-1,-3,-7,0,-3,-9,-3,-2
1558435096389110,-3,-3,3,7,9,1,0,1
1558435096395093,-3,-6,-17,-8,-12,-11,-7,-4
1558435096395093,1,2,5,3,8,1,2,1
1558435096411050,-1,-1,3,5,-9,-2,-1,-2
1558435096411050,-2,-1,-3,-7,0,-3,-2,-2
1558435096417033,2,5,12,9,5,3,2,2
1558435096417033,-1,0,-6,-2,-4,4,-1,-3
1558435096426009,-5,-5,0,-2,-2,-4,-6,-3
1558435096426009,2,2,2,6,7,-1,0,3
1558435096439973,-1,2,1,-5,-4,-8,-3,-2
1558435096439973,1,0,1,1,-1,4,3,1
1558435096448949,-1,3,9,5,6,6,2,-2
1558435096448949,-4,-5,-16,-22,-6,-2,-3,-4
1558435096454934,-2,-5,0,17,4,2,-1,-3
1558435096454934,-2,-2,1,3,0,-3,-3,-1
1558435096471887,-1,6,1,-17,-9,-6,-4,0
1558435096471887,-2,6,-9,-4,-3,0,3,1
1558435096477872,-4,-16,-8,-4,5,3,4,0
1558435096477872,2,-1,-7,-6,-3,1,-3,2
1558435096486848,-4,-13,4,8,-4,-5,-5,-5
1558435096486848,0,2,8,3,-5,-2,-2,-2
1558435096499811,-3,2,-11,-19,-14,-8,-9,-6
1558435096499811,0,-3,1,10,5,2,7,2
1558435096508788,4,5,-3,-7,13,14,9,4
1558435096508788,1,1,4,13,9,4,2,4
1558435096514772,-1,0,-1,-9,-2,4,0,1
1558435096514772,-4,-4,-3,-7,-10,-12,-9,-4
1558435096531728,1,3,-1,-1,-9,-11,-5,-3
1558435096531728,0,-3,-5,0,-4,-3,-2,-3
1558435096537712,-1,-1,-1,-1,10,9,4,0
1558435096537712,-2,0,4,2,-11,-10,-9,-5
1558435096546688,0,2,-6,-2,7,6,6,3
1558435096546688,-3,-7,2,2,5,7,4,3
1558435096559653,-1,1,6,6,-6,-7,-4,-3
1558435096559653,0,1,-3,-17,-7,-6,-6,-2
1558435096568630,-3,-3,-6,3,2,-3,-5,-5
1558435096568630,1,-3,5,12,-7,-2,-4,-4
1558435096582592,-3,-3,-5,-16,-10,-2,-2,-6
1558435096582592,-2,-3,-1,5,13,8,6,2
1558435096591567,5,4,0,0,10,5,6,5
1558435096591567,2,7,1,-1,1,-2,-2,0
1558435096606528,2,0,7,15,1,3,2,3
1558435096606528,-4,-6,-12,-11,-7,-6,-3,-5
1558435096607524,-4,-9,0,-5,-2,4,1,-3
1558435096607524,-3,-1,-12,-20,-14,-10,-10,-5
1558435096620490,-1,3,8,11,-1,-6,-7,-1
1558435096620490,2,1,-1,10,11,12,8,5
1558435096628468,-1,2,2,1,-1,-2,1,1
1558435096628468,-1,-1,4,-3,0,3,0,-3
1558435096651409,2,1,-10,-7,-10,-8,-2,-1
1558435096651409,-5,-6,-2,-3,-2,-4,-7,-4
1558435096652404,-2,-6,0,14,-4,-8,-7,-4
1558435096652404,-1,2,3,-11,3,2,3,1
1558435096657392,-2,-5,-4,8,0,-5,-1,-2
1558435096657392,2,4,-1,2,-2,-5,-2,-1
1558435096666373,-1,-1,2,-6,-3,2,1,-3
1558435096666373,-3,1,-5,-7,3,0,-1,1
1558435096680332,-1,-5,0,1,2,2,3,3
1558435096680332,-2,-1,5,9,-2,1,1,2
1558435096689308,1,-1,0,1,-2,0,-3,-3
1558435096689308,1,-1,-2,-1,5,4,4,-2
1558435096702273,3,11,1,-8,5,5,1,5
1558435096702273,-4,-6,2,1,-7,-6,-3,-3
1558435096711247,-1,-2,-1,3,4,0,0,4
1558435096711247,-4,-4,-7,7,2,0,-4,-2
1558435096717231,1,0,-1,-2,-5,-5,-5,-1
1558435096717231,-3,0,-10,-17,-12,-9,-6,-4
1558435096726208,-2,1,-2,-4,-6,-6,-7,-1
1558435096726208,0,-7,4,8,-1,-2,2,-1
1558435096740172,3,3,6,6,15,19,12,3
1558435096740172,3,3,3,-7,2,1,1,0
1558435096749148,-3,-2,-2,12,-1,-3,-2,-4
1558435096749148,-4,-5,-8,-14,-12,-10,-8,-2
1558435096762114,-4,-3,0,-2,-12,-10,-5,-3
1558435096762114,-2,0,-5,2,5,7,3,2
1558435096771087,4,3,8,5,12,10,4,3
1558435096771087,-5,-6,-16,-19,-11,-5,-3,-1
1558435096777074,-3,-5,-7,2,0,-3,-1,-2
1558435096777074,0,2,-4,-18,-1,-4,0,0
1558435096786047,-4,-1,-3,-10,-12,-7,-7,-6
1558435096786047,-2,-2,4,14,-1,0,-2,0
1558435096800010,1,2,6,4,8,3,3,4
1558435096800010,-2,-2,-3,2,7,1,-1,1
1558435096808986,0,-1,-5,2,0,0,1,0
1558435096808986,2,3,7,-2,-1,-1,1,-1
1558435096822948,-3,-5,-9,-11,-10,-10,-9,-6
1558435096822948,1,3,3,10,1,4,2,0
1558435096830927,3,1,4,6,13,10,6,6
1558435096830927,1,3,2,-1,-4,-2,-3,1
1558435096837909,-1,0,-1,-4,0,2,2,-1
1558435096837909,-4,-3,1,1,-7,-4,-7,-4
1558435096846885,-4,-4,-6,-8,-11,-5,-2,-3
1558435096846885,2,-2,4,5,6,3,1,0
1558435096859849,0,-1,-1,0,0,3,-3,2
1558435096859849,0,-1,-2,-2,3,1,-1,1
1558435096868826,-3,-4,-8,-12,-12,-6,-4,-4
1558435096868826,0,-1,3,6,4,1,-1,1
1558435096882787,-1,2,0,-2,-4,-8,-1,-1
1558435096882787,-1,1,0,7,9,7,6,4
1558435096891765,-2,-5,-2,-3,2,0,1,-2
1558435096891765,-1,2,1,0,1,1,-2,-3
1558435096897749,-4,-1,-3,-3,-5,-2,-3,-3
1558435096897749,0,-1,-1,-3,-8,-6,-4,-3
1558435096912710,-1,0,-4,-3,-10,-7,-4,-2
1558435096912710,-1,-2,0,-1,0,0,1,-1
1558435096919691,1,-2,-1,2,3,3,4,1
1558435096919691,4,0,3,4,5,5,3,1
1558435096928667,1,-1,-3,-4,0,0,-2,-2
1558435096928667,-1,1,-1,-4,-9,-4,-6,-3
1558435096942628,0,0,-2,2,0,1,-1,-1
1558435096942628,-4,-7,-3,-2,-9,-9,-4,-4
1558435096951604,-3,-2,-3,-2,6,3,-1,-1
1558435096951604,6,4,7,7,14,7,12,10
1558435096957589,0,0,0,0,-1,-3,0,-2
1558435096957589,-2,-2,-5,-8,-2,-3,-1,-2
1558435096972548,-3,0,0,1,-10,-5,-5,-4
1558435096972548,-2,-3,-4,0,-3,-5,-7,-4
1558435096979531,-1,2,2,-6,-2,-1,-2,0
1558435096979531,-2,0,-1,5,3,-5,2,-1
1558435096988507,-1,0,4,12,-6,0,2,1
1558435096988507,0,-1,-4,-15,7,3,1,-1
1558435097002468,1,-3,-3,-9,-5,-4,1,-2
1558435097002468,1,2,4,8,5,5,-4,-3
1558435097011445,-2,-2,-2,-7,-2,-8,-5,-3
1558435097011445,-3,-4,-4,1,-9,-5,1,-1
1558435097017428,-3,-2,0,4,0,0,-2,0
1558435097017428,-1,1,-2,-8,1,0,0,-1
1558435097032388,1,4,7,5,4,-1,3,0
1558435097032388,-2,-2,-4,1,-1,2,-2,-4
1558435097040367,0,-1,7,3,2,-1,-1,0
1558435097040367,-1,-2,-6,-3,-3,6,1,1
1558435097049343,-1,-3,-7,-10,-6,-6,-8,-1
1558435097049343,-3,-4,-8,-11,-4,-3,-1,-1
1558435097062310,0,3,-1,4,0,-1,4,2
1558435097062310,1,0,6,14,6,2,0,2
1558435097071284,0,2,4,-14,-8,-4,-1,-2
1558435097071284,-6,-6,-9,2,-2,-3,-7,-5
1558435097077268,-1,-3,-3,-7,1,10,5,3
1558435097077268,-1,-1,9,3,-3,-3,-2,-1
1558435097092228,0,1,-7,-5,3,4,3,1
1558435097092228,-3,-4,9,17,-3,-5,-6,-3
1558435097100207,-1,-1,-6,-4,0,-2,-8,-4
1558435097100207,-1,-3,-10,-14,-8,-10,-6,-3
1558435097109184,3,4,4,7,7,9,5,4
1558435097109184,2,3,7,3,4,2,1,1
1558435097122148,-3,-2,4,12,7,4,-1,-2
1558435097122148,-5,-5,-4,-9,-3,-4,-1,-4
1558435097131124,-2,0,4,9,-2,-1,0,-1
1558435097131124,1,6,2,-4,-1,-3,-2,-2
1558435097137115,-4,-9,-8,-2,-4,-12,-4,-2
1558435097137115,2,1,0,1,10,10,9,4
1558435097152069,-1,-4,-4,-10,-8,-5,-5,0
1558435097152069,1,0,1,2,-1,0,2,4
1558435097160047,4,3,0,-1,3,2,0,0
1558435097160047,-1,-2,-3,5,-4,-7,-6,-2
1558435097169023,-4,-5,-3,-6,-7,-5,-4,-4
1558435097169023,-2,-2,-2,-8,-8,-2,0,-3
1558435097182993,-1,-2,-3,-2,2,6,0,1
1558435097182993,0,2,1,3,1,5,1,0
1558435097190964,1,1,-1,3,6,-1,7,3
1558435097190964,-1,-1,-1,-5,0,-5,-6,-4
1558435097197951,-5,-4,-5,-7,-10,-7,-5,-5
1558435097197951,-1,-1,4,5,-1,6,3,-1
1558435097212905,1,5,3,1,16,10,5,2
1558435097212905,-3,1,-3,-2,-3,-3,1,-3
1558435097219887,-3,-6,-2,-4,-5,-5,-5,-2
1558435097219887,-3,-1,-2,-7,-10,-9,-7,-3
1558435097228865,-1,-1,-1,0,-8,-3,-4,-2
1558435097228865,1,-3,5,6,12,6,5,2
1558435097243132,0,-1,1,-1,-6,-7,-6,-3
1558435097243132,-1,-7,-7,-3,4,9,1,-2
1558435097251806,3,7,-2,1,11,7,9,8
1558435097251806,0,0,-2,0,2,-2,-2,0
1558435097265793,1,4,3,-4,-6,-1,4,1
1558435097265793,-3,2,2,-1,-1,-6,-6,-7
1558435097272745,-5,-6,-7,-3,-8,-9,-9,-9
1558435097272745,0,-5,-2,-2,0,-2,-1,3
1558435097288705,-3,-4,-1,0,-6,-4,3,-1
1558435097288705,2,4,2,9,9,5,4,3
1558435097290698,0,-4,-3,-13,-3,1,-2,-2
1558435097290698,-3,-2,1,0,-8,-9,-7,-2
1558435097302860,1,6,5,-4,0,-2,-3,-2
1558435097302860,-1,0,-3,-3,-1,-2,2,3
1558435097311645,-2,-6,-1,2,4,1,1,0
1558435097311645,0,0,-2,0,3,5,-1,-2
1558435097325725,0,2,4,9,1,2,-1,-2
1558435097325725,1,-3,-4,-10,-10,-9,-8,-3
1558435097332620,-1,-2,3,10,4,4,7,3
1558435097332620,-2,-2,-15,-23,-11,-5,-3,0
1558435097348543,-1,-3,0,3,5,6,0,0
1558435097348543,0,-1,3,0,-2,-9,-2,1
1558435097350538,-2,-6,-15,-5,-13,-11,-10,-6
1558435097350538,-1,0,4,9,2,4,6,3
1558435097362505,-2,-1,0,3,10,7,-2,-2
1558435097362505,-2,-1,-5,-5,-2,-1,-1,-4
1558435097371483,-2,-1,7,-2,-4,1,2,-2
1558435097371483,1,3,-1,2,2,3,3,0
1558435097385450,-3,-6,-16,-5,-11,-17,-10,-6
1558435097385450,-1,-2,-4,-21,-6,2,0,3
1558435097392426,0,2,3,11,10,7,1,0
1558435097392426,0,1,10,7,6,4,1,1
1558435097409379,0,2,-1,-5,-1,-2,3,0
1558435097409379,-1,-6,-6,-4,-7,-3,-2,-3
1558435097410380,-3,-2,0,-1,-10,-8,-11,-5
1558435097410380,-4,-6,-11,-11,-6,-3,-5,-4
1558435097422346,2,1,3,8,5,3,0,1
1558435097422346,-1,-1,-3,-6,-4,-1,1,2
1558435097431324,1,0,3,5,12,7,-2,-1
1558435097431324,1,2,7,7,-2,-3,-2,-1
1558435097445315,1,0,-8,-8,3,5,1,-1
1558435097445315,-3,-1,-2,-2,-6,-9,-4,-2
1558435097452267,-3,0,5,5,-5,-6,-2,1
1558435097452267,-2,-2,-3,-4,-1,-1,-3,-2
1558435097469263,-3,-6,-9,-5,-6,0,-5,-4
1558435097469263,3,3,7,15,4,0,1,-1
1558435097470221,3,-1,-5,-19,2,2,7,4
1558435097470221,1,0,4,9,5,-3,0,-1
1558435097482222,-3,-3,-6,-14,-9,-7,-2,0
1558435097482222,-2,-2,-7,-1,-4,-2,-3,-2
1558435097491163,-1,-1,-5,2,-7,-2,-6,-4
1558435097491163,1,-7,2,3,10,6,6,3
1558435097506121,2,3,8,7,7,6,5,4
1558435097506121,-1,0,4,3,2,-1,-1,-3
1558435097512142,-2,2,-6,3,-3,-4,-4,-5
1558435097512142,-3,-3,-6,-9,-12,-8,-8,-5
1558435097529063,1,-1,2,2,0,0,0,1
1558435097529063,-2,-2,1,2,2,5,2,1
1558435097530057,-1,-1,1,-4,3,3,2,0
1558435097530057,-2,-1,-4,-5,-1,0,-1,-2
1558435097543022,-1,0,-1,1,-3,-4,0,0
1558435097543022,-2,0,0,-3,-2,-1,-1,0
1558435097551006,1,-4,-1,-5,-5,-5,0,0
1558435097551006,-2,1,-2,2,-3,-2,0,-2
1558435097565961,-6,-9,0,-3,0,0,-1,-2
1558435097565961,0,0,3,1,-1,0,-2,-2
1558435097572942,-1,1,-4,-2,-4,-4,-1,-2
1558435097572942,0,-5,-6,-5,3,2,1,-5
1558435097588899,0,-1,0,0,-2,1,0,1
1558435097588899,-1,-2,0,0,4,1,2,-1
1558435097589898,-3,-6,-4,-7,-4,-4,-3,-2
1558435097589898,-1,3,4,4,-9,-6,-2,-2
1558435097602863,-1,5,0,0,-5,-1,-3,-3
1558435097602863,-1,0,-2,-3,1,0,2,3
1558435097611839,1,-1,0,-1,10,8,5,4
1558435097611839,-3,-4,-4,-4,-5,-4,-5,-3
1558435097625865,-2,-2,-2,-4,-12,-8,-7,-4
1558435097625865,4,6,7,15,15,11,9,7
1558435097632861,-2,0,1,-4,-2,1,2,-2
1558435097632861,-4,-4,-11,-11,-9,-7,-7,-6
1558435097648820,-2,-4,-5,8,2,1,1,-2
1558435097648820,-2,-4,-10,-26,-17,-11,-3,-5
1558435097650739,0,1,-2,1,2,5,0,0
1558435097650739,-1,-4,2,1,2,-1,1,0
1558435097662707,-1,1,-2,-7,-10,-11,-7,-5
1558435097662707,-3,-1,0,8,1,-1,-1,-2
1558435097671679,-1,-1,4,7,7,3,-2,-1
1558435097671679,2,3,0,-3,0,7,5,3
1558435097685672,-1,1,1,-3,-2,-3,-1,-1
1558435097685672,-2,-5,-6,-1,-1,-1,-3,-2
1558435097692651,-3,-8,-2,2,-5,-7,-5,-2
1558435097692651,1,3,-2,-7,-4,-4,-3,1
1558435097708653,1,1,3,1,10,8,5,4
1558435097708653,-2,-2,-1,-3,-3,-6,-8,-3
1558435097710575,-2,-1,-2,-6,-10,-7,-1,0
1558435097710575,1,-1,5,5,4,0,-1,-1
1558435097722542,-1,-1,1,7,10,6,2,1
1558435097722542,-1,-1,-3,7,4,8,7,3
1558435097731525,-2,-4,-9,-15,-9,-6,-3,-4
1558435097731525,2,2,1,-4,0,4,4,1
1558435097745554,-1,-2,1,-5,-2,-2,-1,-1
1558435097745554,-2,-2,4,6,1,-4,-5,-1
1558435097752541,0,0,2,11,-4,-3,-3,0
1558435097752541,-2,-1,3,-2,-5,1,2,-1
1558435097768460,1,1,-2,-1,13,11,6,3
1558435097768460,2,1,2,4,11,9,5,2
1558435097770420,-1,0,1,-1,-4,-6,-6,-3
1558435097770420,-3,-3,-8,-9,-13,-11,-6,-6
1558435097782417,-1,0,-4,1,-3,-7,-4,-2
1558435097782417,-3,-3,-4,-9,-4,3,0,-1
1558435097791359,-3,-3,-2,0,-6,-2,0,-2
1558435097791359,0,1,5,12,4,-2,-8,-3
1558435097805376,-1,-3,-1,-2,-2,-1,3,-2
1558435097805376,2,2,3,2,1,-1,4,3
1558435097812305,-1,0,-4,-2,5,4,3,2
1558435097812305,-4,-6,-13,-13,-7,-5,-4,-2
1558435097828318,-2,-3,-4,-3,-9,-9,-10,-6
1558435097828318,-1,1,2,10,-5,-1,-4,-7
1558435097835298,1,2,0,-6,12,9,5,1
1558435097835298,1,-3,1,9,13,10,8,3
1558435097842295,-1,1,3,-3,-1,-2,-2,0
1558435097842295,-4,-6,-2,-2,-14,-12,-12,-8
1558435097851213,-2,1,-2,4,-4,-8,-4,-6
1558435097851213,0,3,-1,-3,3,5,3,2
1558435097865201,-1,0,-1,9,3,5,5,2
1558435097865201,-2,-3,-1,-5,3,2,0,-2
1558435097874142,1,0,6,1,-2,-4,-3,0
1558435097874142,-1,-2,-2,-4,-5,-9,-4,-2
1558435097888099,1,-2,0,1,0,1,-3,0
1558435097888099,1,1,-2,0,4,4,0,-1
1558435097895119,0,-1,-6,-2,0,-1,2,2
1558435097895119,-1,2,4,3,3,5,3,1
1558435097902106,-2,2,8,8,0,1,0,-1
1558435097902106,0,0,-6,-12,-10,-9,-7,-6
1558435097911078,-4,-3,-7,-2,0,-2,-4,-4
1558435097911078,-1,-2,0,5,6,3,0,1
1558435097925004,2,-1,-2,6,1,-1,-2,1
1558435097925004,-1,-1,-2,-31,-13,-7,-2,-2
1558435097933983,-1,-2,-1,-4,-8,-4,-4,-1
1558435097933983,0,6,4,12,4,5,3,1
1558435097947978,-2,-6,-8,-13,-4,-3,-2,-2
1558435097947978,-5,-8,-8,5,7,0,-1,1
1558435097954921,2,3,1,4,5,6,7,3
1558435097954921,-1,0,-5,-17,-4,1,-3,-2
1558435097962944,-1,1,4,8,-3,-5,-3,0
1558435097962944,1,0,-3,-2,-8,-6,-1,2
1558435097971875,-2,-4,0,2,2,-2,-3,-2
1558435097971875,-1,2,-1,6,0,-5,1,-1
1558435097984884,-4,0,-5,-12,-2,0,4,-1
1558435097984884,-2,-2,0,2,0,-3,-2,-1
1558435097993818,-1,0,0,-1,4,4,-1,0
1558435097993818,1,-2,-3,-1,-4,-1,-4,-5
1558435098007781,-2,-3,-3,-8,-10,-5,-4,-4
1558435098007781,-1,-2,2,8,0,0,-2,-5
1558435098014759,-2,-2,-11,-10,-9,-5,-5,-2
1558435098014759,-1,0,4,7,5,0,-3,0
1558435098031745,-3,-5,-10,-8,0,-2,0,0
1558435098031745,3,3,6,9,9,8,8,7
1558435098032714,-1,0,-1,-4,-4,-3,0,1
1558435098032714,-1,-4,-5,-9,-8,-4,-8,-5
1558435098044709,0,3,5,-3,-7,-5,-5,-5
1558435098044709,-5,0,-1,5,-2,-6,-2,-1
1558435098053656,-2,-2,-5,-7,-1,2,1,-3
1558435098053656,2,1,5,7,0,3,9,6
1558435098068652,5,2,3,12,18,14,5,3
1558435098068652,2,1,-1,-3,-6,-3,-4,-2
1558435098074631,-2,-3,1,0,-3,-5,-4,-4
1558435098074631,-3,-6,-5,-17,-9,-8,-3,-1
1558435098091595,-3,0,-8,-9,-9,-6,-6,-6
1558435098091595,-5,-5,0,-2,-7,-4,-4,-1
1558435098092553,2,2,6,10,11,7,8,5
1558435098092553,0,-2,7,10,6,4,1,0
1558435098105524,-1,-3,-3,-4,1,-2,-4,-4
1558435098105524,-2,1,-5,-7,-6,-4,-1,-4
1558435098120480,-1,-2,-7,1,3,1,0,0
1558435098120480,-1,-3,0,0,-3,-1,0,-3
1558435098128458,2,1,7,-1,5,10,7,4
1558435098128458,-1,-4,6,12,1,-4,-2,-3
1558435098135445,-3,-4,-11,-23,-12,-6,-2,-5
1558435098135445,-3,1,-7,2,2,-3,-4,-2
1558435098151399,-3,-4,-6,-5,-11,-9,-6,-2
1558435098151399,1,-1,-3,2,10,6,1,0
1558435098152397,-2,-1,-1,5,-1,-3,-1,-3
1558435098152397,-2,1,-3,-5,1,4,-1,1
1558435098165356,-3,-4,0,-1,-5,-6,-2,-2
1558435098165356,1,1,-1,4,-1,3,3,3
1558435098173335,3,4,8,6,4,1,-1,1
1558435098173335,-1,-4,-9,1,-2,-4,-4,-5
1558435098188296,0,0,2,-11,-8,-4,-2,2
1558435098188296,0,-2,-2,-5,4,-2,-2,-1
1558435098195277,2,3,8,6,3,5,5,6
1558435098195277,0,3,6,5,2,3,0,0
1558435098211686,-2,-4,-9,-5,-5,-4,-4,-5
1558435098211686,-3,-7,-6,-1,-3,-5,-6,-3
1558435098213230,-2,0,1,-1,-7,-6,-3,-3
1558435098213230,-1,0,4,3,2,2,2,1
1558435098225197,1,0,0,5,10,7,7,1
1558435098225197,0,1,1,-6,-5,1,4,0
1558435098234174,0,-2,0,0,-4,-3,-6,-4
1558435098234174,-3,-2,4,4,-7,-7,-8,-3
1558435098249137,-4,-3,0,4,0,-2,0,-1
1558435098249137,1,0,-10,-13,2,-3,2,1
1558435098255119,1,1,5,0,0,0,-3,-1
1558435098255119,2,0,-5,-10,-8,-2,3,0
1558435098271077,-1,1,1,0,0,0,-2,0
1558435098271077,-3,0,1,3,-5,-4,-1,-3
1558435098273098,0,-1,-3,-1,-5,-3,1,2
1558435098273098,-1,2,2,10,13,3,-1,1
1558435098285314,0,-2,0,-2,2,5,3,2
1558435098285314,0,0,-3,-2,1,0,-5,1
1558435098294017,-2,-5,-4,-10,-14,-11,-2,-5
1558435098294017,0,-2,0,-1,-3,-2,0,0
1558435098308221,-4,-4,-11,-11,-3,-5,-2,0
1558435098308221,0,-1,0,1,4,2,4,-1
1558435098315219,-2,-2,0,3,-3,-1,-6,-3
1558435098315219,0,-1,3,6,11,5,5,3
1558435098332149,1,0,-1,1,-1,0,-3,-3
1558435098332149,-3,-4,-6,-6,-9,-4,-8,-4
1558435098332913,-3,-2,-3,0,-5,-1,-1,-2
1558435098332913,-4,-1,-5,-3,-6,-1,-3,-3
1558435098345125,-1,3,7,9,4,0,2,2
1558435098345125,-4,-3,-6,-12,-4,-6,0,0
1558435098354080,0,1,2,10,11,8,4,2
1558435098354080,-2,-3,-10,-21,-9,-5,-3,-4
1558435098368944,1,-3,3,4,-7,-9,-5,-4
1558435098368944,3,4,6,15,11,10,4,2
1558435098375053,-1,-3,2,0,0,2,2,1
1558435098375053,-1,-2,0,0,6,2,-2,1
1558435098391753,-4,-5,-6,-4,-3,-7,-8,-2
1558435098391753,-1,0,-2,-1,-8,1,2,-1
1558435098392750,-1,-1,0,0,2,-2,-1,-1
1558435098392750,0,0,-1,-3,-5,-4,-1,-2
1558435098404718,-3,-3,-4,-3,-7,-6,-3,-3
1558435098404718,-2,0,0,4,9,7,0,-1
1558435098413933,-1,-5,-9,-5,0,-1,-5,-3
1558435098413933,2,2,-2,-6,-4,-3,2,-1
1558435098428654,0,0,0,-7,1,2,1,-1
1558435098428654,0,0,0,5,-2,-3,-4,-3
1558435098434886,-2,-1,0,-3,-2,0,-1,-1
1558435098434886,0,-4,2,2,-5,-10,-2,0
1558435098451882,1,1,5,9,15,14,9,0
1558435098451882,-2,-1,0,-7,0,6,-1,1
1558435098452589,-3,-1,-2,-3,-7,-11,-7,-2
1558435098452589,0,3,2,4,5,0,2,1
1558435098464831,-1,0,2,6,-2,1,2,3
1558435098464831,-2,-3,-7,-11,-4,0,0,-3
1558435098473824,-2,-2,-3,-5,-3,-3,-5,-2
1558435098473824,-3,-2,-2,-5,-7,-8,-6,-3
1558435098488494,-1,2,4,7,2,-2,-2,-3
1558435098488494,-2,2,5,5,0,0,-1,-1
1558435098502739,-2,-6,-9,-6,-3,-4,-2,-2
1558435098502739,1,2,0,0,3,4,0,0
1558435098511463,0,1,0,-2,1,3,2,0
1558435098511463,-2,-4,-7,-10,-8,-7,-2,-4
1558435098512740,-1,-1,-4,-3,0,0,0,-3
1558435098512740,-2,-3,2,9,1,1,-1,-1
1558435098525683,1,-1,-1,-5,-1,0,-2,0
1558435098525683,2,5,8,13,11,8,4,4
1558435098534581,0,0,1,-2,-3,-4,-1,-1
1558435098534581,-1,-3,-3,-2,-5,-4,-4,-5
1558435098548627,-1,-2,-5,-7,1,1,1,-1
1558435098548627,-1,-1,2,3,-4,-4,-1,1
1558435098555316,0,1,2,8,9,8,3,1
1558435098555316,-2,-4,-7,-13,-4,4,2,1
1558435098571274,0,0,2,3,0,-7,-1,-1
1558435098571274,-1,0,-3,-2,-2,-4,-3,-2
1558435098573266,-3,-1,0,1,-6,-5,-4,-3
1558435098573266,-2,-1,0,1,-4,0,2,0
1558435098585489,1,-1,-3,-7,11,9,1,4
1558435098585489,-4,-5,-4,1,-7,-8,-3,0
1558435098594212,2,1,-2,-7,-1,0,-3,0
1558435098594212,-2,-3,2,-2,-2,0,-3,-4
1558435098608427,0,-2,-9,4,-5,-6,0,3
1558435098608427,0,2,2,-3,9,7,2,1
1558435098615155,-2,0,6,3,0,-1,-3,-2
1558435098615155,-3,1,-5,1,-2,-9,-5,0
1558435098632128,-3,0,-1,-8,-12,-2,1,-3
1558435098632128,-1,-10,-2,-3,1,1,-4,0
1558435098633304,0,-1,3,4,0,2,5,-1
1558435098633304,2,4,9,10,16,4,1,0
1558435098645334,-3,-1,-9,-12,-16,-13,-11,-7
1558435098645334,0,-2,2,-6,-18,-14,-8,-4
1558435098654070,4,4,5,16,9,7,4,4
1558435098654070,0,-1,-10,-25,-5,4,3,1
1558435098668279,-2,-1,0,5,0,-4,-4,-3
1558435098668279,-1,1,-2,-4,-3,-3,-3,-4
1558435098674994,-3,-4,2,8,3,2,-1,-3
1558435098674994,1,1,1,10,4,0,3,2
1558435098690954,-4,-3,-6,-12,-7,-4,-2,0
1558435098690954,-4,-5,-2,-6,-4,-7,-5,-5
1558435098692951,0,0,-7,-6,-3,-4,-2,1
1558435098692951,-2,0,0,6,0,7,1,-1
1558435098704917,3,1,6,6,4,4,4,4
1558435098704917,-2,3,-1,6,-2,-2,-1,-1
1558435098713935,0,-1,-4,-5,-2,-2,-9,-4
1558435098713935,0,-1,-2,-18,-10,-5,2,3
1558435098728117,-4,-5,-4,2,-1,0,-1,-3
1558435098728117,0,0,-6,-3,2,0,2,2
1558435098735832,1,-1,2,0,5,1,0,0
1558435098735832,-3,-6,-6,-8,-13,-8,-13,-8
1558435098752063,1,-1,4,6,3,0,2,2
1558435098752063,-1,1,-1,0,8,6,4,2
1558435098752793,-3,-2,2,3,-3,-3,-2,-3
1558435098752793,2,0,-1,6,-1,-3,3,2
1558435098765768,1,-3,-3,-18,-1,-1,-2,-2
1558435098765768,-2,0,2,2,-4,-4,-4,-3
1558435098773831,-1,-4,-10,-9,-4,-2,-4,-2
1558435098773831,-2,1,5,12,5,1,2,2
1558435098787695,1,0,4,8,-4,-3,-5,-2
1558435098787695,2,2,3,-9,-4,-2,3,1
1558435098794676,1,0,1,4,13,11,6,5
1558435098794676,-1,-4,-4,-2,-4,-3,-4,-2
1558435098810634,-4,-2,-2,1,2,1,0,-1
1558435098810634,-3,1,1,11,4,-2,-6,-2
1558435098817614,-4,-2,-3,-5,-13,-10,0,-1
1558435098817614,-1,-2,-5,-11,9,11,5,0
1558435098824596,-2,0,2,1,-1,2,-1,-3
1558435098824596,3,-1,5,1,1,-1,-4,-2
1558435098833852,0,-1,-1,-8,-6,-4,0,0
1558435098833852,1,-2,-5,-1,-7,-8,-6,-2
1558435098848865,-2,-2,-4,-4,0,2,-2,-2
1558435098848865,-1,0,1,5,6,7,0,-1
1558435098854517,1,0,0,2,4,2,1,2
1558435098854517,-1,-1,2,1,0,-5,-4,-4
1558435098870778,-1,-3,-1,-3,-8,-4,-3,-2
1558435098870778,-1,-2,2,-4,-5,-5,-1,-2
1558435098877759,-4,-2,-7,-6,-2,3,1,-2
1558435098877759,-2,-3,-6,-2,5,3,0,0
1558435098885736,1,1,4,9,7,2,1,2
1558435098885736,0,-3,2,1,0,1,0,0
1558435098893700,-2,-1,-6,-7,-10,-7,-6,-4
1558435098893700,-2,0,4,9,3,1,0,-1
1558435098908666,-2,-4,-5,-7,-7,-3,0,-3
1558435098908666,2,0,2,6,5,3,5,1
1558435098915663,-1,-2,-9,-18,1,-2,2,2
1558435098915663,-5,-2,-2,1,-6,-4,-3,-5
1558435098931427,-1,-1,2,1,1,2,-1,1
1558435098931427,-2,-5,-8,-6,-8,-5,-4,1
1558435098937609,0,-1,-1,3,3,2,1,0
1558435098937609,0,1,0,3,0,0,-1,1
1558435098954256,-2,3,4,-1,-5,-6,-7,-4
1558435098954256,0,2,1,0,-5,-2,-3,-2
1558435098955244,3,1,2,5,11,3,9,7
1558435098955244,-1,-5,-1,1,2,-1,0,-2
1558435098968470,1,0,-6,5,-4,2,1,-3
1558435098968470,-2,-6,-6,-12,-1,1,-1,-3
1558435098975419,-2,-1,-6,-11,-6,-6,-3,-5
1558435098975419,1,4,6,0,-8,-5,-4,-2
1558435098991366,-2,-2,-10,-2,2,1,2,2
1558435098991366,-2,3,-3,-6,2,-1,1,-2
1558435098998132,-1,-5,10,10,-5,-4,-5,0
1558435098998132,0,-2,0,1,0,2,-1,1
1558435099014097,-3,-2,-6,2,3,0,1,-2
1558435099014097,1,0,1,3,-3,0,1,0
1558435099015086,3,2,1,4,3,3,-4,0
1558435099015086,-1,-4,1,-4,-6,-4,-6,-4
1558435099028050,2,10,19,10,7,2,-1,0
1558435099028050,-8,-10,-31,-34,-15,-10,-2,-5
1558435099035060,0,-2,1,4,3,6,4,1
1558435099035060,0,-2,-7,1,3,2,-4,-1
1558435099050989,1,-2,0,-1,5,-3,-2,0
1558435099050989,3,5,9,10,3,1,4,3
1558435099056974,-3,4,0,-4,-9,-4,-4,-1
1558435099056974,-2,-1,-2,-7,-2,-1,2,1
1558435099074276,-4,-4,-5,-4,-11,-8,-7,-5
1558435099074276,-1,-4,1,4,1,3,-1,-1
1558435099075257,-2,1,0,-6,4,3,4,2
1558435099075257,-2,1,1,1,1,0,1,-3
1558435099087891,-2,-4,-3,-2,-1,2,2,1
1558435099087891,0,1,1,3,-3,-5,-5,-2
1558435099095222,-1,-2,-3,-4,-3,-2,1,-3
1558435099095222,-1,-4,1,4,-1,-3,-4,-2
1558435099111046,-1,-2,-4,-9,-4,-1,1,0
1558435099111046,-5,0,-2,0,0,0,1,-1
1558435099118161,-2,-2,-5,4,1,-1,-5,-1
1558435099118161,0,-4,-2,4,-7,-5,1,-2
1558435099134220,-2,-1,-1,-5,6,3,-3,-3
1558435099134220,2,1,3,4,0,-3,-5,0
1558435099136080,-3,-2,2,0,-5,-4,-9,-6
1558435099136080,-3,-3,-13,-15,-4,-2,5,4
1558435099149066,-1,1,-1,1,2,3,3,1
1558435099149066,2,1,2,5,5,3,3,1
1558435099154712,-3,-5,0,4,-1,-5,-5,-5
1558435099154712,1,0,1,3,0,-3,-6,-1
1558435099170672,0,-4,0,-6,-5,-4,-1,2
1558435099170672,-2,-2,-3,-2,-5,-5,-4,-2
1558435099177652,-1,-1,1,4,-1,1,3,0
1558435099177652,1,1,-3,-4,10,7,3,3
1558435099193653,-1,-2,-2,1,-1,0,1,-1
1558435099193653,1,-1,-1,-2,-2,-4,-4,-3
1558435099195605,-2,0,2,10,4,-1,0,-1
1558435099195605,-3,1,1,-3,-6,-2,-1,0
1558435099208569,-3,-2,-2,0,0,-3,-4,-1
1558435099208569,-2,-3,-4,-4,-1,-1,0,-2
1558435099214553,0,-3,-3,-6,-1,0,-1,0
1558435099214553,1,2,2,6,4,5,4,2
1558435099230508,2,0,0,7,7,5,5,5
1558435099230508,0,1,5,7,8,6,2,0
1558435099237489,-1,-2,-7,-10,0,-5,-4,-2
1558435099237489,-3,-4,0,-3,-14,-9,-5,-7
1558435099253447,-1,-3,-4,-7,-2,0,1,-1
1558435099253447,2,0,2,1,3,4,-1,-1
1558435099255441,0,0,-2,-5,-10,-5,-1,-1
1558435099255441,-1,-3,-1,5,4,2,-3,-3
1558435099268407,0,3,0,0,1,0,-1,-2
1558435099268407,-2,-2,-1,-2,-1,-1,3,2
1558435099274391,-1,1,1,-2,3,5,0,-2
1558435099274391,-1,-2,0,0,-2,-5,-4,-4
1558435099290348,-1,-2,-8,-4,-9,-8,-1,-3
1558435099290348,-3,-3,-2,-13,-6,-4,-1,2
1558435099298330,0,2,3,7,9,2,0,1
1558435099298330,2,3,2,6,10,9,7,6
1558435099314633,-1,-2,-2,-4,-10,-7,-10,-5
1558435099314633,-1,-2,-5,1,-3,-5,0,-3
1558435099315283,-1,1,-2,-15,-5,-2,0,2
1558435099315283,0,0,1,-1,3,1,2,4
1558435099328247,-1,-1,1,10,7,9,5,0
1558435099328247,-1,-3,-2,-4,-9,-2,-1,-1
1558435099335446,-1,0,6,6,5,-1,-1,-3
1558435099335446,-1,-3,-5,-6,-4,-7,-4,-4
1558435099351385,-2,-2,-2,-3,-2,-1,0,-1
1558435099351385,0,3,2,-4,8,6,-1,0
1558435099358171,-2,-2,0,-2,-12,-11,-5,-3
1558435099358171,-2,-2,-5,1,3,1,1,-1
1558435099374132,0,-2,-3,-17,-1,0,1,0
1558435099374132,-1,2,-1,3,0,-1,-2,0
1558435099375128,-1,0,-3,-5,1,0,0,-2
1558435099375128,-3,-4,7,3,-14,-11,-11,-6
1558435099388096,0,-4,-1,4,-8,-9,-5,-3
1558435099388096,3,2,5,15,18,16,17,6
1558435099395078,-2,-4,-6,-6,-4,2,0,1
1558435099395078,1,2,-3,-1,-1,-2,-3,0
1558435099411205,-1,0,1,-9,-7,-5,-4,-2
1558435099411205,0,-2,-1,6,0,-3,-3,-3
1558435099418061,-2,-2,-4,-10,-6,-11,-5,-4
1558435099418061,0,1,-4,-3,-6,3,3,0
1558435099434168,-1,0,9,8,13,9,0,0
1558435099434168,-2,-3,-10,-10,-8,-5,-6,-2
1558435099434973,-1,0,-4,2,1,-2,3,3
1558435099434973,-3,-5,-7,-5,1,-2,-4,-3
1558435099447927,-2,-2,1,-2,-7,-5,-2,-2
1558435099447927,-2,2,2,7,9,4,3,1
1558435099455906,-2,0,1,2,-5,-1,-4,0
1558435099455906,-2,0,0,-6,-4,-9,1,-1
1558435099470874,-3,-1,-3,7,0,1,0,-1
1558435099470874,-2,-4,3,1,-1,-5,-5,-5
1558435099478175,1,-1,-6,-13,2,3,4,2
1558435099478175,-1,-1,-3,-6,-6,0,-2,-2
1558435099494117,-1,-1,0,-4,-3,-1,-2,-3
1558435099494117,-4,-1,0,0,-13,-13,-7,-4
1558435099496047,2,-1,-4,7,6,7,3,1
1558435099496047,-1,1,-6,-4,6,2,2,2
1558435099508083,-3,-1,-4,4,3,-4,2,-1
1558435099508083,-2,-4,-3,-12,-13,-7,-4,-2
1558435099516746,-3,-1,6,9,1,3,-1,-4
1558435099516746,0,-1,3,-1,1,-1,-5,0
1558435099530918,-1,1,3,2,5,-1,3,1
1558435099530918,0,-1,-2,3,2,3,1,1
1558435099537735,-1,-3,0,-5,-5,-5,-2,-3
1558435099537735,-2,-2,-5,-2,-2,0,0,-2
1558435099553863,1,-1,-6,-10,-4,-4,-2,0
1558435099553863,-3,-3,2,0,-3,1,-2,-1
1558435099555640,-2,0,1,5,3,-2,-5,-3
1558435099555640,-1,0,5,0,-1,0,1,1
1558435099567782,-1,-1,-8,-6,-3,0,2,-1
1558435099567782,2,0,-3,-6,1,-3,-1,0
1558435099576587,-2,-2,-4,-1,-5,-3,-5,0
1558435099576587,-1,-1,0,1,-2,0,1,-3
1558435099590552,1,1,1,11,10,3,-1,-1
1558435099590552,0,-2,-3,-12,-7,-4,-1,0
1558435099597532,0,-3,1,3,3,2,2,1
1558435099597532,-2,-2,-2,-2,-1,3,-1,-2
1558435099614483,-1,-2,2,2,-7,-4,-5,-2
1558435099614483,-1,-1,-6,-13,0,-2,-1,-2
1558435099615492,0,0,-9,-1,0,-3,2,1
1558435099615492,0,2,7,2,1,2,4,1
1558435099627491,1,4,3,6,7,3,-3,0
1558435099627491,-8,-7,-4,0,-9,-8,-6,-7
1558435099636426,-1,-1,2,-1,-4,1,-2,-1
1558435099636426,-1,2,-3,-2,7,3,5,2
1558435099651393,-1,-2,0,-1,-1,0,1,-3
1558435099651393,-1,-3,-3,-6,-4,-2,-4,-1
1558435099657367,0,-2,2,3,-4,-5,-5,-4
1558435099657367,-1,-3,0,-2,-9,-7,-3,-1
1558435099673324,0,0,-4,-3,4,1,4,-1
1558435099673324,-1,2,-2,-6,-3,3,1,0
1558435099675400,1,0,-1,0,4,5,5,-1
1558435099675400,-1,-1,-1,2,-1,-5,-3,0
1558435099687559,-1,-2,4,2,-3,-6,-6,0
1558435099687559,-1,-2,-4,0,1,-3,-3,-2
1558435099696445,0,-1,3,5,1,6,7,3
1558435099696445,1,1,3,2,13,12,4,0
1558435099710558,-1,-1,-3,-2,-3,-5,-3,-2
1558435099710558,-3,-1,2,11,0,-2,-3,-2
1558435099725483,-3,-4,-10,-31,-13,-8,-5,-4
1558435099725483,-1,-1,0,5,1,3,4,0
1558435099733403,-2,-2,-5,-4,4,7,1,0
1558435099733403,0,1,2,10,1,-3,0,2
1558435099740183,0,1,1,9,2,-2,-2,-2
1558435099740183,0,-2,-6,-11,-7,-5,-2,-2
1558435099748133,-2,-1,-4,-3,-4,-5,-5,-2
1558435099748133,1,2,9,8,3,3,4,2
1558435099756110,-2,-5,-16,-10,-5,-4,-3,-2
1558435099756110,-1,-2,-2,-1,-7,-6,-3,0
1558435099771075,-3,-2,0,-7,-9,-4,-1,-3
1558435099771075,1,2,1,2,7,6,2,4
1558435099778232,0,2,11,11,3,1,-2,2
1558435099778232,-3,-1,-14,-21,-2,4,-3,-2
1558435099793191,-1,-4,-1,-3,1,-1,1,-1
1558435099793191,2,-1,-6,-9,-1,-1,-2,-3
1558435099799986,0,0,-2,2,0,-3,0,-1
1558435099799986,-6,-3,4,10,-7,-7,-8,-5
1558435099807966,0,-2,-1,-5,-4,1,4,2
1558435099807966,0,2,-1,4,5,-4,0,0
1558435099815964,-1,1,0,-7,1,3,1,1
1558435099815964,-4,-5,-3,0,-6,-6,-6,-4
1558435099830939,-1,-4,-2,-7,-2,1,-2,-2
1558435099830939,0,-1,1,6,-2,-2,-1,-1
1558435099837885,-1,-2,3,1,1,1,-3,-2
1558435099837885,-1,-2,-1,-9,-2,-3,2,1
1558435099853847,0,0,-2,1,-1,1,-1,-1
1558435099853847,-1,-2,-1,-4,0,4,4,-1
1558435099859825,-3,-1,2,3,4,1,0,0
1558435099859825,1,0,-2,3,-2,-1,-1,0
1558435099867803,-1,0,2,6,-3,-5,-4,-3
1558435099867803,-3,-1,-1,-4,-2,0,-2,-5
1558435099876780,-3,-2,-2,-7,-2,3,0,0
1558435099876780,2,1,-2,7,11,3,5,2
1558435099891103,1,1,-1,0,4,1,3,5
1558435099891103,-3,-2,-4,-6,-7,-8,-4,-2
1558435099898067,-3,-4,-1,0,-15,-9,-7,-5
1558435099898067,-1,-1,2,-1,3,2,1,-2
1558435099913033,0,-2,0,2,-2,1,1,-1
1558435099913033,-2,0,-6,-5,-2,1,2,0
1558435099920665,1,0,2,3,1,-2,1,-1
1558435099920665,0,0,2,2,-2,-6,-6,-3
1558435099936946,-1,0,-7,-5,-4,-2,-3,0
1558435099936946,-2,-2,2,2,0,2,-1,0
1558435099937617,0,1,-4,8,0,-7,-2,0
1558435099937617,1,1,5,-2,1,1,-1,-1
1558435099950581,-3,-3,2,0,-5,-5,-2,-3
1558435099950581,-2,-3,-4,-2,-2,3,0,0
1558435099957562,3,5,4,2,10,5,3,2
1558435099957562,-1,0,1,0,-3,-1,-1,-2
1558435099973520,-2,-2,-1,1,-2,-5,-6,-4
1558435099973520,-1,-1,-7,-12,-9,-8,-5,-3
1558435099979506,-2,-7,0,7,-2,-3,-3,-2
1558435099979506,1,3,1,-10,2,4,4,2
1558435099996460,-3,2,-2,0,5,5,-1,0
1558435099996460,-4,-4,-7,0,-3,-2,-1,-3
1558435099997458,-2,0,-1,-3,0,1,2,-3
1558435099997458,-2,-1,-1,9,7,-1,1,2
1558435100010423,2,3,8,4,3,-1,-1,0
1558435100010423,2,2,5,-2,-2,-3,-3,-2
1558435100017403,-3,-7,-14,-8,-7,-7,-5,-5
1558435100017403,-1,-5,-4,-1,-7,-8,-3,-1
1558435100033359,-2,-2,-2,-2,-4,-1,-2,-2
1558435100033359,1,0,1,-1,6,4,7,3
1558435100040356,3,3,4,-1,0,3,3,1
1558435100040356,-2,-2,-3,-5,-6,-7,-6,-2
1558435100056361,-3,-4,-2,0,-2,-3,2,0
1558435100056361,1,-2,5,13,11,11,4,1
1558435100057296,-2,3,2,-5,1,-1,-7,-1
1558435100057296,-2,2,-2,1,-4,-3,-1,-3
1558435100070320,0,-1,-4,1,9,9,9,4
1558435100070320,-1,-3,-1,-2,-4,-8,-5,0
1558435100077244,-2,-3,-6,-1,0,-3,-1,0
1558435100077244,-2,-1,1,1,-5,-2,-4,-4
1558435100093259,-2,0,-3,-8,-5,-3,-5,-5
1558435100093259,-3,-1,-1,-1,0,-1,-2,-3
1558435100100183,-1,-2,-2,1,0,-3,-3,0
1558435100100183,-2,-1,-4,-3,-7,-2,3,0
1558435100116140,1,2,2,-15,-8,-1,1,0
1558435100116140,-2,-1,-6,-2,3,1,-1,2
1558435100118136,-1,1,5,5,-3,-2,-2,-4
1558435100118136,-4,-1,-5,2,2,-1,-5,-5
1558435100131098,-1,-3,2,4,2,2,0,-1
1558435100131098,0,1,5,3,2,-1,-1,-2
1558435100137084,-1,-3,-1,-6,-4,-2,3,0
1558435100137084,-1,-3,0,5,5,3,-1,-1
1558435100153039,-1,-4,-9,-17,-8,-7,-3,0
1558435100153039,-1,1,2,0,2,0,-3,-2
1558435100160023,-1,-2,-5,2,-3,2,0,-1
1558435100160023,-1,-3,0,3,4,1,3,1
1558435100176014,-1,0,2,3,4,4,1,1
1558435100176014,0,-2,-4,-6,-8,-5,-2,0
1558435100177973,-1,1,2,-5,4,7,2,-1
1558435100177973,-3,-4,-7,-6,-9,-7,-3,-2
1558435100190938,-1,-1,2,10,-8,-11,-7,-1
1558435100190938,-2,-3,-10,-4,8,4,0,-1
1558435100196923,2,0,0,1,0,1,-1,1
1558435100196923,-2,0,-4,-15,-2,-3,-4,-5
1558435100212881,-4,-4,-6,-2,-7,-5,-2,-3
1558435100212881,0,0,5,3,-4,0,0,-1
1558435100219862,1,1,4,3,0,-1,2,2
1558435100219862,4,2,3,9,9,6,0,0
1558435100236815,-2,-1,-3,-8,-2,-4,-2,-3
1558435100236815,-1,-2,-1,1,2,-4,-1,-2
1558435100238843,-3,-3,-5,-6,-3,1,-1,0
1558435100238843,0,-1,6,11,3,1,-1,0
1558435100250781,3,1,0,-7,5,3,1,2
1558435100250781,-3,-5,-6,-7,-13,-10,-5,-4
1558435100257763,-4,-2,2,8,1,2,0,0
1558435100257763,-1,-1,-1,-7,2,4,5,3
1558435100272721,-1,-1,0,3,-1,-6,-4,-1
1558435100272721,-2,0,2,0,-5,-4,-6,-3
1558435100279727,1,-1,-1,0,1,0,6,1
1558435100279727,-2,-2,-2,-6,-5,-2,-5,-7
1558435100296656,0,-4,-4,3,-3,0,1,1
1558435100296656,0,1,-1,-3,0,3,0,1
1558435100297654,0,-1,-4,-4,-5,-6,-4,-3
1558435100297654,0,-3,5,14,4,0,1,1
1558435100310619,2,3,4,1,6,4,1,1
1558435100310619,-1,-1,0,4,6,6,5,0
1558435100317599,-4,-3,-4,0,-2,-3,-2,-3
1558435100317599,-3,0,-4,-3,-5,-7,-5,-1
1558435100333557,-3,-4,-11,-8,-5,-3,0,-2
1558435100333557,2,1,2,-3,5,8,2,1
1558435100339576,-2,1,-2,-5,-7,-6,-6,-3
1558435100339576,1,-1,-2,-3,4,2,-1,-1
1558435100356496,1,2,5,12,7,5,2,1
1558435100356496,0,0,5,11,1,-3,-3,-3
1558435100357492,-3,-4,-9,-13,-13,-10,-3,0
1558435100357492,-3,1,-7,-11,-3,2,2,3
1558435100370498,-1,0,0,-1,4,3,1,2
1558435100370498,-2,-1,1,-5,-2,-3,-1,-2
1558435100377438,-4,-3,-1,5,-3,-2,-4,-4
1558435100377438,-1,1,3,-2,4,1,-1,3
1558435100393398,-2,-1,0,5,4,0,7,1
1558435100393398,-1,0,0,-5,-4,-2,0,0
1558435100399427,-2,-1,-2,-5,0,1,0,-1
1558435100399427,-2,-6,-3,-3,-8,-8,-5,-2
1558435100416336,-2,1,2,5,0,-2,-5,-4
1558435100416336,-3,-3,-7,-11,0,-5,2,1
1558435100417334,3,2,0,2,6,4,3,2
1558435100417334,1,4,2,-1,7,11,4,2
1558435100430310,-3,-6,-4,1,-8,-7,-7,-6
1558435100430310,-2,-1,1,-1,-2,-1,-1,-1
1558435100439281,1,1,0,12,11,4,2,0
1558435100439281,0,-2,3,1,1,5,5,1
1558435100453236,1,1,-4,-7,0,-2,-2,-2
1558435100453236,-5,-2,-7,-7,-9,-3,-4,-3
1558435100460217,0,-1,4,0,3,-3,-1,1
1558435100460217,-2,-1,0,4,-4,-7,-5,-4
1558435100476178,-2,-1,-2,0,-9,-7,-5,-4
1558435100476178,-1,0,-1,3,1,0,-1,-1
1558435100478174,0,0,3,-3,0,0,-1,0
1558435100478174,-1,-1,-2,4,-1,1,2,0
1558435100490140,-3,-4,-4,-14,-1,0,-4,-2
1558435100490140,-1,0,2,5,-5,-2,2,0
1558435100499154,1,-2,4,9,2,-1,-2,-1
1558435100499154,0,-2,-9,-14,5,4,0,-2
1558435100513112,1,1,2,3,2,7,5,4
1558435100513112,-2,-7,-6,4,-1,-2,-4,-3
1558435100520099,-4,0,2,-16,-12,-8,-5,-3
1558435100520099,-1,-1,-1,2,-10,-9,-5,-4
1558435100536056,0,-2,-2,-4,5,7,3,3
1558435100536056,1,1,2,2,-2,-4,3,3
1558435100538011,-1,-2,-4,0,8,7,6,-1
1558435100538011,-1,-1,-5,1,-3,-4,-5,-3
1558435100549978,-4,-2,-1,1,-5,-5,-6,-3
1558435100549978,1,1,-3,-4,-2,-1,1,2
1558435100558955,0,0,-2,6,3,1,-1,1
1558435100558955,2,0,2,-13,-2,-1,-2,0
1558435100572954,-3,-2,-7,0,-1,-4,-1,-3
1558435100572954,-4,-4,-1,-4,-9,-4,-6,-7
1558435100579897,0,-2,0,3,10,8,2,3
1558435100579897,-1,-2,-5,4,1,-1,0,0
1558435100595854,0,3,5,6,-2,-3,-4,1
1558435100595854,1,1,3,1,1,0,3,1
1558435100597850,-1,0,-10,-13,-4,0,-5,-3
1558435100597850,-3,-2,-1,0,-3,-6,-3,-1
1558435100609852,-4,-5,-3,-13,-8,-2,-9,-9
1558435100609852,-3,-3,-1,10,1,-7,-3,-1
1558435100618794,2,1,2,4,-2,3,7,4
1558435100618794,-1,0,6,10,5,3,3,1
1558435100632756,-3,-4,-10,-11,-5,-5,-4,-3
1558435100632756,-1,-2,-2,-5,0,2,-3,1
1558435100639772,-1,-3,-1,2,0,-3,-3,-3
1558435100639772,-4,-3,-6,-7,-5,-8,-5,-3
1558435100655726,1,1,1,0,-5,-4,-1,2
1558435100655726,-2,-1,4,8,6,6,1,2
1558435100663674,0,-1,-4,-4,-2,-4,-2,1
1558435100663674,1,-1,3,2,-7,-5,-2,-1
1558435100669658,1,1,6,-2,-2,-1,-2,-1
1558435100669658,0,0,-3,-7,-2,4,1,-4
1558435100678635,0,1,-1,-6,4,5,1,1
1558435100678635,-2,-2,-5,2,-2,0,1,-1
1558435100692596,0,-1,3,12,6,-1,-2,-1
1558435100692596,0,2,4,0,0,-6,1,2
1558435100699578,-3,-2,-1,-11,-20,-11,-9,-6
1558435100699578,-3,-6,-10,-7,-3,-4,-2,0
1558435100715570,4,2,3,11,16,9,14,10
1558435100715570,-1,-3,-6,-14,-3,-5,-5,-3
1558435100722552,0,-2,-3,-1,0,-2,-3,-2
1558435100722552,0,1,4,2,-3,-1,-3,0
1558435100729497,-4,-4,-1,0,-3,-4,-1,-4
1558435100729497,0,0,-4,-1,6,3,-1,-2
1558435100738475,-2,-2,-6,-6,-7,-5,0,0
1558435100738475,1,3,3,3,-1,3,3,1
1558435100753474,0,0,-1,2,10,9,1,2
1558435100753474,-2,-2,-1,2,3,2,2,3
1558435100759419,-1,-3,-3,-5,-8,-6,-5,-3
1558435100759419,-2,2,0,-1,-10,-4,-2,-2
1558435100775374,-2,-1,-4,0,-5,-4,-1,0
1558435100775374,-1,2,0,-6,1,0,-3,0
1558435100782358,-2,-1,0,-2,-2,-2,2,2
1558435100782358,-3,-2,2,3,4,1,1,0
1558435100790335,-1,1,5,5,-6,-4,-3,-3
1558435100790335,0,1,-6,-3,6,3,0,1
1558435100798315,-2,-1,2,3,7,3,3,0
1558435100798315,-1,-2,0,-5,1,-1,-4,-2
1558435100813648,0,-1,0,3,-3,2,0,-1
1558435100813648,0,-1,2,2,-7,-2,-4,-3
1558435100820629,0,-2,-2,8,1,-2,-3,-2
1558435100820629,-3,-6,-18,-29,-6,-1,-2,-2
1558435100836526,-2,0,-2,-3,2,3,1,2
1558435100836526,0,4,1,0,-7,-4,0,-1
1558435100843197,1,1,5,11,5,4,3,-2
1558435100843197,1,0,3,3,2,-1,-5,-1
1558435100866366,-1,-4,-4,-5,-5,0,1,1
1558435100866366,-2,-2,0,7,1,0,-2,-1
1558435100868172,-2,-6,-1,-4,-3,-5,-5,-4
1558435100868172,2,2,-2,-2,-2,-1,-1,1
1558435100873163,-2,-1,-1,2,5,3,-1,-2
1558435100873163,0,0,0,-8,-2,-8,-5,0
1558435100880142,-3,0,-1,8,5,0,1,0
1558435100880142,-1,-1,4,8,3,5,7,2
1558435100904078,0,0,4,1,-2,0,1,1
1558435100904078,-5,-3,-13,-9,-11,-8,-12,-6
1558435100905077,-3,-1,-3,-7,-8,-5,-3,-2
1558435100905077,3,0,-3,2,5,4,5,1
1558435100919039,-1,0,0,1,1,-4,1,-1
1558435100919039,-1,-2,4,8,5,3,3,-1
1558435100920035,-1,0,1,-2,-5,-4,-6,-4
1558435100920035,-3,-4,-4,-5,-6,-5,-5,-5
1558435100933000,-1,-2,-4,-1,1,6,0,-3
1558435100933000,1,-3,-3,-18,-1,-2,4,2
1558435100939982,-2,2,-1,-3,-1,-2,-3,0
1558435100939982,-3,2,3,2,0,2,-2,-3
1558435100955942,-3,-5,-7,-5,-10,-9,-7,-3
1558435100955942,-1,3,8,13,7,2,2,2
1558435100961924,-2,-1,-4,1,2,3,0,0
1558435100961924,-2,-4,-6,-10,-4,-5,-6,-3
1558435100978878,0,0,-2,-5,-8,-7,-6,-3
1558435100978878,-1,2,5,10,8,8,7,-1
1558435100979875,-1,-2,0,3,8,-1,-2,-2
1558435100979875,2,0,5,8,3,2,6,4
1558435100992840,-1,-4,-2,1,-4,-6,0,2
1558435100992840,-3,-7,-16,-12,-9,-5,-6,-3
1558435100999823,-2,-2,-5,-11,-7,0,2,-2
1558435100999823,0,0,2,7,9,1,-1,0
1558435101015798,-2,0,0,-4,-8,-6,-6,-4
1558435101015798,0,0,2,0,-1,0,-1,2
1558435101022762,0,0,2,11,11,7,3,1
1558435101022762,-3,-3,-5,-13,-10,-4,-2,-5
1558435101038718,0,-1,-6,-4,-1,-4,-1,-3
1558435101038718,-1,0,-1,-16,-7,-3,-2,-2
1558435101039716,2,2,5,2,0,1,2,3
1558435101039716,-4,-2,1,6,4,-1,-5,-3
1558435101052682,-1,-1,-3,-8,-1,0,2,0
1558435101052682,-2,-4,-3,-1,-4,-6,-4,-5
1558435101059689,0,-2,-1,-2,-5,0,-3,0
1558435101059689,0,2,2,2,0,1,3,3
1558435101075619,-1,1,-2,-5,1,0,-3,-1
1558435101075619,-1,0,-3,-2,1,1,2,0
1558435101082601,0,1,4,3,-6,-7,-1,-2
1558435101082601,-1,-3,-6,-9,-3,0,-4,-1
1558435101098559,1,-1,-1,2,7,6,2,1
1558435101098559,0,-4,-4,-3,1,0,0,0
1558435101100553,1,0,-1,5,6,-2,-1,1
1558435101100553,-1,0,1,2,-6,-3,3,1
1558435101113519,-2,0,-1,5,-1,-3,-4,-5
1558435101113519,-1,0,1,-1,-1,1,-3,1
1558435101119504,-2,0,-3,1,1,5,5,-1
1558435101119504,-7,-5,-5,-9,-15,-13,-11,-6
1558435101135459,-3,-2,-1,0,-2,-1,-2,-2
1558435101135459,3,4,8,14,17,13,15,7
1558435101142442,1,-1,-1,-10,-5,-1,-1,0
1558435101142442,2,0,4,3,1,1,0,-1
1558435101158400,-3,-3,-7,-5,-4,-2,-9,-5
1558435101158400,-4,-5,-5,3,-11,-10,-9,-6
1558435101160393,-1,-1,-2,-7,-2,-2,-1,-1
1558435101160393,0,1,5,12,2,0,0,-1
1558435101173361,3,0,3,1,2,2,3,3
1558435101173361,-2,-1,-5,-11,-2,4,1,1
1558435101180340,-3,-1,-9,-10,-5,-1,-3,-1
1558435101180340,-2,-2,-4,-4,-5,-9,-10,-3
1558435101195301,-2,-1,6,4,-3,-5,-1,-2
1558435101195301,1,1,3,9,9,11,7,2
1558435101202281,-3,-6,-6,-6,2,-2,-3,-3
1558435101202281,-2,1,-4,-4,-2,1,3,1
1558435101218243,1,2,4,3,10,4,4,3
1558435101218243,0,-2,6,8,-7,-9,-7,-3
1558435101225219,-2,-2,0,2,-9,-8,-8,-3
1558435101225219,-1,0,-3,-5,10,9,8,2
1558435101233198,2,5,4,2,8,7,5,3
1558435101233198,-2,-1,-2,-3,-9,-8,-4,-3
1558435101240181,-1,-2,-2,1,0,-1,0,0
1558435101240181,-2,-4,-2,0,-11,-14,-8,-2
1558435101264116,0,-1,2,4,2,6,3,0
1558435101264116,0,-2,-7,-5,2,1,-2,-2
1558435101265113,-2,-3,-3,-8,-5,-3,-1,-1
1558435101265113,0,-1,1,-1,0,3,1,1
1558435101279076,-2,-4,-4,-4,-7,-7,-6,-2
1558435101279076,-2,1,5,11,0,-3,0,-1
1558435101280075,-1,1,-2,-13,-2,-2,-1,-3
1558435101280075,-2,-1,-4,1,3,1,0,-1
1558435101293039,0,-1,1,3,0,-1,1,-1
1558435101293039,0,-1,-2,-4,-5,-2,-3,-3
1558435101300021,0,2,5,3,-2,2,-1,3
1558435101300021,0,0,0,1,1,1,2,1
1558435101315976,-2,-2,-3,-3,-4,-4,-3,-1
1558435101315976,-2,0,-1,-9,0,0,-1,0
1558435101322963,1,-2,-9,-8,-8,-3,-1,-1
1558435101322963,1,2,3,7,3,2,1,-2
1558435101338916,0,-2,1,-4,-2,-1,-1,-1
1558435101338916,-2,-1,-6,-3,-4,-4,-3,-4
1558435101339914,-1,-5,5,2,3,0,2,1
1558435101339914,-2,-2,-2,-1,4,2,1,1
1558435101352879,-1,2,0,-6,-6,-4,-2,-1
1558435101352879,-2,-1,3,3,2,0,-2,-1
1558435101368835,-2,1,-5,1,3,0,-2,1
1558435101368835,0,1,2,5,2,1,0,0
1558435101375816,-2,-5,-4,-10,-4,-4,-1,-1
1558435101375816,0,-2,-3,-5,-2,-3,-1,-1
1558435101382799,-2,-2,-4,4,-2,0,-1,-2
1558435101382799,-1,2,4,2,1,1,-1,-2
1558435101398756,-4,-2,-8,-6,-4,0,-1,-2
1558435101398756,-2,2,1,6,0,-2,0,-1
1558435101399753,0,-1,-2,-2,-3,-2,-2,-2
1558435101399753,0,0,-1,-4,-1,-2,-2,-2
1558435101412719,-1,-3,0,7,-4,-4,-3,0
1558435101412719,0,-2,-2,-14,-5,-4,-2,-1
1558435101421697,1,4,8,7,5,0,-1,0
1558435101421697,1,4,-1,-1,1,6,4,-1
1558435101435659,-1,0,1,7,12,5,0,-2
1558435101435659,-5,-11,-11,0,-7,-5,-4,-2
1558435101442639,-2,-4,-2,-7,-7,-9,-5,-3
1558435101442639,2,2,6,1,-1,0,1,2
1558435101457598,-4,3,-13,-12,3,2,-1,-6
1558435101457598,2,2,6,19,7,4,1,2
1558435101466574,-3,-3,-4,-13,-3,-1,-2,-4
1558435101466574,-1,-5,7,2,-5,-6,-2,-2
1558435101472559,1,1,-3,4,2,-1,-3,-3
1558435101472559,0,-2,0,1,-1,1,2,0
1558435101481534,0,1,8,22,5,4,2,-1
1558435101481534,-1,-2,-13,-30,-10,-4,-3,1
1558435101495522,-2,-3,0,0,0,-4,-4,3
1558435101495522,-5,-4,-11,-12,-18,-8,-6,-8
1558435101502483,0,-1,1,14,5,3,4,0
1558435101502483,0,0,0,-9,5,4,1,-1
1558435101519434,1,-1,2,1,-5,-3,-4,-2
1558435101519434,2,4,8,1,2,-1,4,2
1558435101520432,1,3,1,6,1,1,0,2
1558435101520432,-1,-2,-3,8,11,2,0,-2
1558435101541376,-3,-6,-4,-10,-7,-3,-1,-5
1558435101541376,-1,0,-9,-8,-3,0,-4,0
1558435101542375,0,8,8,2,-1,1,1,1
1558435101542375,-4,-7,-1,4,1,-2,-4,-1
1558435101555350,-7,-9,-8,-6,-6,-1,-1,-2
1558435101555350,2,3,15,13,7,4,2,1
1558435101562326,0,-6,-11,3,5,3,0,0
1558435101562326,-3,-3,-9,-21,-11,-7,-5,-3
1558435101578275,0,2,7,12,0,-4,-2,-1
1558435101578275,-3,-2,0,-6,-7,-4,-3,-5
1558435101585275,-1,0,3,-11,-2,0,-1,-2
1558435101585275,-1,1,-6,12,5,2,2,0
1558435101592241,-1,-1,1,-6,-1,5,3,2
1558435101592241,1,-1,-3,3,4,1,0,1
1558435101601214,1,0,10,8,-3,-4,-2,2
1558435101601214,2,3,3,0,-2,0,2,1
1558435101624153,-3,-5,-21,-5,-5,-4,-5,-4
1558435101624153,-3,-4,-4,-8,-8,-8,-4,-4
1558435101625151,-3,-2,-5,-3,4,3,2,1
1558435101625151,1,0,3,-9,-5,-3,-2,0
1558435101638120,1,2,9,7,-2,-2,-1,-1
1558435101638120,2,3,2,8,2,1,-1,1
1558435101645115,-5,-13,-26,-24,-7,-3,-5,-5
1558435101645115,-2,-3,-3,0,3,3,0,-5
1558435101652081,-2,1,1,-3,-1,0,7,2
1558435101652081,-1,-1,2,14,9,2,1,0
1558435101661054,-1,-1,-3,-12,-8,-4,-2,-2
1558435101661054,-1,-3,-5,-3,-8,-6,-7,-2
1558435101676014,1,-2,4,-5,-7,-4,-2,-2
1558435101676014,0,0,5,7,-1,0,-2,0
1558435101681999,1,4,6,10,6,5,1,1
1558435101681999,-4,-6,-10,-2,3,0,1,0
1558435101697956,-1,0,2,0,-3,-1,0,0
1558435101697956,-2,-3,-8,-15,-3,-3,-3,-2
1558435101704938,0,-1,-2,-4,-9,-10,-5,-4
1558435101704938,0,0,2,5,-6,-2,1,-2
1558435101711919,3,7,8,12,12,7,-1,2
1558435101711919,-2,-1,-3,-5,1,4,6,2
1558435101720894,-3,-4,-3,-4,2,0,-4,-2
1558435101720894,-1,1,4,12,7,2,0,-2
1558435101735855,0,-3,-1,2,-2,0,1,-1
1558435101735855,-1,-3,-5,-15,-5,-4,-5,-5
1558435101742835,-1,-3,-7,-4,-8,-5,0,-1
1558435101742835,0,1,5,7,-1,0,2,4
1558435101757796,-1,-3,-3,-5,2,0,-2,-1
1558435101757796,-1,-2,-8,-11,-16,-9,-9,-4
1558435101764777,0,0,10,8,7,3,1,-1
1558435101764777,-1,-4,-11,-12,-3,-1,-4,-4
1558435101781732,-3,0,-8,-3,-7,-4,0,1
1558435101781732,0,-1,2,9,5,6,2,1
1558435101782728,0,1,4,6,3,4,2,0
1558435101782728,1,0,-3,-6,-2,-3,0,0
1558435101795717,-3,-1,-3,-7,-3,-3,-4,-4
1558435101795717,-4,-3,-4,-4,-5,-3,-7,-4
1558435101802677,-1,-2,0,10,-1,-5,-3,1
1558435101802677,0,2,6,2,5,8,11,1
1558435101817634,1,-1,2,3,5,3,-3,-1
1558435101817634,-4,-1,1,-2,-7,-9,-4,-1
1558435101824617,1,-1,-3,0,-3,-1,0,-2
1558435101824617,0,0,-1,-2,-5,-3,-2,0
1558435101840574,-1,-2,-3,-5,0,-2,-4,0
1558435101840574,-2,-6,0,5,5,1,-2,0
1558435101847555,0,-1,0,-7,-4,0,-2,-3
1558435101847555,0,0,-4,8,7,-1,0,0
1558435101855537,-1,-3,-8,-18,-7,-2,-1,-3
1558435101855537,3,2,7,3,5,6,5,1
1558435101862517,-2,0,-1,-2,-4,-4,-2,-3
1558435101862517,-4,-5,-1,10,-4,-2,-5,-2
1558435101878478,0,-1,1,-8,-1,-3,0,-2
1558435101878478,-1,-2,-2,2,-4,-4,-4,-1
1558435101884457,-2,-1,-5,-9,-8,-6,-6,-3
1558435101884457,-2,1,0,-4,-2,1,1,1
1558435101901427,0,3,6,13,7,6,5,4
1558435101901427,-2,1,-3,-8,-3,1,5,2
1558435101907396,0,-1,-2,-2,3,2,-1,2
1558435101907396,-3,-3,-1,-1,-9,-8,-9,-4
1558435101915377,0,-1,6,9,7,3,2,1
1558435101915377,0,3,0,-1,-1,1,0,-4
1558435101922358,-2,-2,-5,-1,-5,-2,-1,-4
1558435101922358,2,0,-1,-2,8,4,3,0
1558435101939318,1,0,0,3,-1,-3,0,-2
1558435101939318,-3,1,-1,-1,-7,-5,-2,-3
1558435101945297,0,-2,-1,-1,-3,0,-1,-2
1558435101945297,-3,-6,-3,-4,-5,-5,-7,-3
1558435101961251,-2,1,-1,-6,-5,-5,0,-1
1558435101961251,2,2,3,4,11,6,2,6
1558435101962249,-1,2,4,13,4,3,3,2
1558435101962249,4,0,-2,-12,-1,-1,1,1
1558435101975220,-1,-4,-2,3,-7,-8,-8,-5
1558435101975220,-1,-6,-9,-19,-14,-9,-3,-3
1558435101984193,2,4,2,0,4,5,7,1
1558435101984193,-2,3,3,5,8,4,-1,-2
1558435101998153,-3,-2,2,11,1,-4,-6,0
1558435101998153,0,-2,-1,-5,-1,3,4,1
1558435102005134,-3,-3,-4,1,-7,-8,-5,-2
1558435102005134,-5,-3,0,-2,-10,-9,-5,-4
1558435102021092,0,1,-5,-8,-3,1,-1,0
1558435102021092,1,3,4,12,8,5,3,5
1558435102023086,0,-1,1,-11,6,5,4,5
1558435102023086,-1,-3,-5,1,-6,-1,-3,-1
1558435102035065,-4,-4,-2,-2,-4,-3,-4,-1
1558435102035065,1,-2,5,12,6,0,-1,-3
1558435102044029,-2,-3,-14,-16,-3,-2,-1,-2
1558435102044029,1,-1,2,0,-5,0,1,0
1558435102057992,-1,-1,-3,-12,-8,-3,-2,-1
1558435102057992,-3,-3,-6,-3,4,1,-3,-2
1558435102064973,0,1,13,10,1,-3,-3,-1
1558435102064973,-2,0,-7,4,4,3,2,3
1558435102080936,1,-3,-8,-11,2,3,1,2
1558435102080936,0,1,2,-4,-6,-6,-3,-2
1558435102082926,0,0,-2,-4,-4,-5,-6,-1
1558435102082926,-3,-4,-3,-8,-3,-1,2,-3
1558435102094898,1,2,3,10,4,3,8,1
1558435102094898,-1,0,-1,-1,2,2,0,-1
1558435102103871,-2,-3,-1,-1,-7,-7,-7,-4
1558435102103871,-3,-1,1,3,-3,-7,-3,-2
1558435102117834,0,0,-2,-2,7,8,7,1
1558435102117834,1,3,-1,-7,-6,-3,-1,0
1558435102124814,-4,1,4,7,2,2,1,-2
1558435102124814,-2,-4,3,7,-2,-4,-4,0
1558435102141768,-3,-6,-9,-17,-4,-5,0,0
1558435102141768,0,-3,-3,-4,-1,1,-3,-1
1558435102142766,0,1,0,3,0,2,2,0
1558435102142766,1,-2,0,-2,-4,-4,-6,-4
1558435102154741,2,2,2,0,0,1,-3,0
1558435102154741,0,0,-4,3,3,2,5,2
1558435102163709,-3,-5,-5,-3,1,0,-1,-2
1558435102163709,-1,0,2,3,-1,0,1,-1
1558435102177672,2,2,10,11,2,-2,-1,-1
1558435102177672,1,2,0,4,6,5,5,2
1558435102184653,-1,-4,-8,-13,4,4,2,1
1558435102184653,-2,-2,-5,-9,-11,-8,-10,-5
1558435102201607,-6,-4,-6,-5,-8,-3,-4,-6
1558435102201607,-4,-9,0,5,-3,-13,-7,-3
1558435102202606,-1,-1,1,11,1,0,0,0
1558435102202606,1,4,6,3,5,4,2,2
1558435102214574,-5,-6,-5,2,10,12,5,3
1558435102214574,-2,-1,0,-10,-13,-2,-4,-3
1558435102223549,-2,-7,-7,-3,-4,-7,-2,-1
1558435102223549,3,6,5,-2,12,7,6,5
1558435102238510,0,2,-4,3,-7,-10,-12,-7
1558435102238510,-1,2,9,11,7,9,6,1
1558435102244499,0,1,1,-5,-6,-7,-5,-2
1558435102244499,1,1,-5,6,2,-1,5,3
1558435102261449,1,-4,0,2,-1,-1,0,-1
1558435102261449,0,-3,-10,-14,0,-1,-1,-1
1558435102262455,-4,-2,2,-8,-9,-4,-10,-4
1558435102262455,-4,-4,-3,-8,-8,-7,-5,-4
1558435102274413,0,8,-1,0,-2,0,0,-4
1558435102274413,-3,-7,-2,4,-1,-4,3,-1
1558435102283391,1,1,3,6,9,11,8,2
1558435102283391,2,-1,10,7,1,0,3,1
1558435102298351,2,3,2,1,-5,-5,-10,-4
1558435102298351,-3,-3,-21,-21,-6,-1,-3,-3
1558435102305332,-3,-7,0,2,4,-3,-1,0
1558435102305332,-3,-3,-8,-9,-16,-10,-9,-5
1558435102321296,2,-1,8,9,18,0,6,2
1558435102321296,-2,2,1,1,-2,6,3,1
1558435102327272,-2,-2,-7,-7,-6,-5,0,0
1558435102327272,-1,-4,-7,-9,2,3,0,-1
1558435102335256,-2,-4,-2,2,-9,-11,-6,-2
1558435102335256,1,0,4,-2,10,-1,0,-1
1558435102344227,-5,-5,-7,-4,-2,0,-1,-4
1558435102344227,-1,4,4,1,-2,-1,-1,1
1558435102358195,-1,0,-4,-7,0,2,3,3
1558435102358195,-3,-1,3,-2,-13,-7,-8,-5
1558435102365173,2,2,11,18,9,2,1,1
1558435102365173,1,-4,-7,-2,5,3,3,1
1558435102381132,-4,-4,-12,-27,-14,-5,-2,-4
1558435102381132,-2,-4,-14,0,-9,-7,-10,-3
1558435102383123,-1,-6,-4,-4,0,-4,4,1
1558435102383123,0,4,5,12,10,9,5,2
1558435102395093,-1,-6,-1,7,-5,-6,-1,0
1558435102395093,3,4,8,0,5,1,0,-2
1558435102404070,1,5,4,1,8,7,-1,2
1558435102404070,-2,-5,-5,-5,-7,-2,-1,-1
1558435102418028,-2,-1,1,2,-4,-8,-4,-5
1558435102418028,-2,-2,-2,-8,4,5,2,-1
1558435102425014,2,4,1,1,-6,-7,1,2
1558435102425014,-4,-4,-10,-8,1,-7,-5,-3
1558435102440969,-3,-2,-1,-2,-8,-2,-5,-2
1558435102440969,-1,-1,7,11,3,2,-1,0
1558435102442965,1,6,1,-4,-4,5,4,1
1558435102442965,-2,-5,-7,-3,-5,-6,-5,-5
1558435102454937,-2,0,-1,-4,-10,-6,0,1
1558435102454937,1,0,3,11,9,2,4,5
1558435102463918,-2,-1,-5,-20,-2,5,0,-2
1558435102463918,-2,-1,-2,1,-4,-2,-6,-3
1558435102477870,0,-3,0,0,6,5,1,0
1558435102477870,0,0,0,5,1,-1,-3,-2
1558435102484859,0,-2,2,4,0,-2,4,1
1558435102484859,-5,-5,-2,-1,3,5,-4,-3
