timestamp,emg1,emg2,emg3,emg4,emg5,emg6,emg7,emg8
1558435113061370,0,2,1,-2,4,0,-2,1
1558435113061370,-3,-3,-8,-4,-7,-4,-3,-3
1558435113062369,-4,-2,-3,0,-5,-5,-3,-3
1558435113062369,-3,2,-1,-6,-3,-3,-6,-4
1558435113063367,-3,-6,-1,3,-12,-9,-5,-6
1558435113063367,2,1,4,4,3,3,5,2
1558435113063367,0,1,-7,-1,6,6,4,4
1558435113063367,-1,-1,1,12,4,3,0,0
1558435113074336,0,-6,-4,-8,-6,-2,-1,1
1558435113074336,-1,0,3,6,-3,-4,-5,-3
1558435113084308,0,-2,1,-2,-4,-2,-2,-1
1558435113084308,-3,-3,-6,-7,0,0,-1,2
1558435113091291,-2,1,-3,1,1,-2,-5,-3
1558435113091291,-2,-2,-4,-6,-9,-6,-2,-3
1558435113104256,0,4,15,13,8,8,-1,0
1558435113104256,0,-1,-11,-3,0,3,7,-1
1558435113116224,-1,-3,-15,-18,-7,-2,-1,1
1558435113116224,0,-1,2,0,-5,-3,-7,-2
1558435113119216,-1,-1,-7,-9,-6,-9,-1,-5
1558435113119216,-2,1,6,1,0,-3,2,0
1558435113135173,1,2,0,4,7,11,10,5
1558435113135173,-2,-2,2,4,9,3,0,1
1558435113181050,-4,-3,-7,3,-6,-6,-3,-4
1558435113181050,0,-2,-10,-12,-4,-4,-2,0
1558435113182048,-1,-3,-1,-1,2,0,-1,-1
1558435113182048,-2,-1,1,-3,-5,-5,2,-1
1558435113183045,2,2,3,1,0,-2,-1,-2
1558435113183045,1,-2,2,5,-1,0,1,0
1558435113184043,1,3,2,-1,4,3,3,3
1558435113184043,-2,2,3,12,7,3,0,1
1558435113194017,-4,-4,4,-3,-1,4,1,0
1558435113194017,-4,0,0,-8,-5,-2,-5,-3
1558435113201995,1,-2,-8,-15,-9,-4,1,-1
1558435113201995,1,-1,-1,-1,-1,-1,-5,2
1558435113210971,2,-2,-5,4,4,1,-3,0
1558435113210971,-3,-5,-5,4,4,-5,-6,-6
1558435113224932,-2,-1,-5,-2,-11,-5,-2,-3
1558435113224932,2,6,4,-10,2,4,3,-2
1558435113232912,-1,-5,-4,-6,-6,-1,0,0
1558435113232912,2,4,7,12,11,9,3,3
1558435113239893,-2,-3,0,0,2,-4,-3,-3
1558435113239893,-2,-4,-6,-1,-12,-7,-4,-5
1558435113254857,-1,0,0,-2,0,-3,2,0
1558435113254857,-2,-1,-4,-3,-4,-6,-4,-2
1558435113261835,0,-1,1,6,-1,-4,-3,-2
1558435113261835,-1,-3,0,2,5,2,-2,-1
1558435113270810,1,3,-2,-6,3,2,0,2
1558435113270810,1,0,1,5,-2,1,4,0
1558435113284773,0,-1,3,5,2,2,1,-3
1558435113284773,-1,-3,-5,-13,-8,-7,-3,-2
1558435113293750,-3,-4,4,-2,2,-3,1,-1
1558435113293750,-2,2,1,-3,6,3,4,4
1558435113299733,0,-4,-9,-5,-3,-2,-1,2
1558435113299733,2,-1,0,-1,1,0,-1,0
1558435113314693,2,-1,-3,-4,-5,-4,-3,-1
1558435113314693,-4,-4,-3,3,-8,-4,-4,-3
1558435113321674,-4,-3,1,9,2,1,-7,-4
1558435113321674,-4,0,-4,-15,-3,0,1,0
1558435113330650,0,0,1,1,-1,1,-2,-4
1558435113330650,3,1,3,3,5,5,3,2
1558435113344612,-1,5,0,-6,-2,-1,2,1
1558435113344612,0,-3,0,6,0,-2,-1,0
1558435113353589,-5,-1,-6,-4,-3,-4,-6,-2
1558435113353589,0,-5,-4,-6,-8,-5,-5,-1
1558435113359574,0,-2,0,4,2,1,1,-1
1558435113359574,0,1,6,9,4,3,-1,-1
1558435113374568,-1,-2,-10,-11,-5,-2,4,0
1558435113374568,4,7,8,6,2,1,0,-1
1558435113381548,-3,-3,-7,-22,-7,-6,-5,-2
1558435113381548,-2,-8,-12,2,-1,-3,-2,-3
1558435113390526,0,-1,7,6,-4,-2,0,-2
1558435113390526,-1,-2,-2,0,2,0,0,-1
1558435113404452,-1,-4,-1,-4,-5,2,0,1
1558435113404452,-2,0,-3,0,5,6,3,-1
1558435113413429,0,2,2,1,-1,-5,-4,-1
1558435113413429,-2,-2,0,-6,-5,-5,-3,-3
1558435113419412,0,0,1,5,-1,-2,-4,-3
1558435113419412,2,1,2,8,4,4,2,3
1558435113434438,1,4,0,-2,3,3,0,-3
1558435113434438,-2,-6,1,0,-4,-2,3,-2
1558435113442354,-1,0,-1,0,2,0,-1,-4
1558435113442354,-2,2,2,-4,-3,-5,-2,-1
1558435113451329,-2,-1,1,2,-1,-1,-1,-1
1558435113451329,-2,-2,-5,3,-1,-2,-2,0
1558435113464328,-1,-2,-4,-13,-8,0,2,1
1558435113464328,0,-2,0,-2,-3,-3,-5,-1
1558435113473270,1,0,-1,4,3,3,0,1
1558435113473270,2,1,0,-1,-4,-4,-1,1
1558435113479253,-2,-2,0,4,5,-1,3,-1
1558435113479253,-1,-1,0,-7,-9,-6,-4,-3
1558435113494212,-2,-3,-2,-3,-2,-3,-4,-1
1558435113494212,-4,-6,-6,-5,1,3,-2,-1
1558435113502191,1,3,5,9,10,7,4,4
1558435113502191,1,-3,-4,-6,-2,-3,-3,1
1558435113511168,-3,-5,-1,4,-8,-3,-2,-6
1558435113511168,-1,4,-1,-8,-2,-2,0,-5
1558435113524133,-1,1,1,2,2,3,3,3
1558435113524133,2,0,5,9,17,7,2,0
1558435113533110,0,-3,-3,-3,1,-1,-3,0
1558435113533110,-2,-4,-7,-9,-11,-7,-6,0
1558435113539094,-1,-2,1,5,1,-2,-1,-3
1558435113539094,-2,1,1,2,-3,2,-2,1
1558435113554052,2,-2,-4,-1,-2,-3,0,-1
1558435113554052,-2,-3,-2,-8,2,-1,2,-1
1558435113562039,-2,-2,1,-2,-5,-6,-1,-3
1558435113562039,0,-2,-6,-4,-7,-7,-3,-4
1558435113571007,-2,-5,-2,-1,-3,2,-3,0
1558435113571007,-4,-6,-3,-3,-1,-1,0,-4
1558435113583974,-1,2,3,6,6,4,-1,0
1558435113583974,-1,-2,-3,3,4,7,6,-1
1558435113592949,-1,3,1,2,-3,-2,-4,0
1558435113592949,3,3,-1,-7,2,4,6,2
1558435113599930,-2,0,2,3,-3,-8,-5,-2
1558435113599930,-2,0,4,1,-7,-7,0,-3
1558435113614890,-3,-4,-8,-3,-2,-2,-3,-1
1558435113614890,-1,-1,8,13,1,1,-3,-1
1558435113621872,-2,-3,-14,-28,-11,-4,-3,-3
1558435113621872,-3,-2,-1,0,-3,-1,-4,0
1558435113636832,-1,0,-1,-7,4,1,8,-1
1558435113636832,0,1,1,4,-6,-5,-3,0
1558435113644813,0,1,6,14,9,4,-1,1
1558435113644813,-2,-1,-7,-5,-3,-3,-2,-2
1558435113653786,-1,-4,-2,1,-5,-2,-1,-1
1558435113653786,1,1,0,3,6,1,1,-1
1558435113659770,-1,-4,-6,-1,-5,-4,0,0
1558435113659770,-1,-1,3,-4,-8,-8,-5,0
1558435113674742,-2,3,4,5,2,0,-2,0
1558435113674742,0,0,1,4,5,4,2,1
1558435113681713,-5,-4,-5,1,-6,-1,-3,-3
1558435113681713,-1,1,-3,-6,0,-2,0,0
1558435113690687,0,3,3,-1,5,5,-1,0
1558435113690687,-4,-7,-5,-5,-5,-3,-8,-5
1558435113704652,1,-1,0,-3,-1,3,4,0
1558435113704652,2,0,2,13,1,1,2,2
1558435113713627,-2,-2,-2,-9,-5,-5,0,2
1558435113713627,-1,-2,-3,-4,-3,-2,-1,1
1558435113719620,0,0,1,7,3,1,-1,1
1558435113719620,-1,-4,-5,-21,-7,-4,-2,-3
1558435113734570,3,1,-1,2,0,-1,3,0
1558435113734570,-1,1,-1,0,3,-2,0,-3
1558435113741551,-2,0,-2,0,-5,-2,-3,-2
1558435113741551,-2,-1,0,4,3,2,-1,-1
1558435113750527,-1,0,0,0,-2,-1,-2,-3
1558435113750527,-1,-1,-3,-7,-3,-1,-1,-1
1558435113764491,0,-1,1,5,3,2,-2,-2
1558435113764491,-3,-3,-3,-5,-4,-4,-1,-3
1558435113773466,-4,-7,-7,-4,-5,-12,-5,-4
1558435113773466,-1,-1,-4,0,-5,-4,2,1
1558435113787429,0,1,5,1,2,0,1,-2
1558435113787429,1,1,-1,4,8,11,6,1
1558435113794410,1,3,5,1,7,7,1,3
1558435113794410,2,5,2,9,0,-3,-1,2
1558435113802388,-5,-9,-6,-12,-4,-1,-1,1
1558435113802388,2,0,2,1,3,-2,-4,-1
1558435113811364,-3,-6,-8,-11,-10,-9,-1,-1
1558435113811364,-1,-1,-3,-8,-4,0,-3,-4
1558435113824329,0,2,0,-1,-2,-3,-2,-3
1558435113824329,-1,-1,2,4,2,1,2,-1
1558435113833305,-1,0,5,13,6,2,-2,-5
1558435113833305,0,0,5,7,-3,-1,-5,0
1558435113847284,3,3,-8,-26,-9,-8,-3,3
1558435113847284,-3,-3,-6,2,-3,0,3,2
1558435113854250,4,4,0,3,8,10,5,5
1558435113854250,-5,-3,-8,-5,-6,-4,2,-3
1558435113862229,-3,-1,2,9,11,8,-1,-3
1558435113862229,-1,-1,4,-4,-6,-3,-6,-1
1558435113871205,-2,1,4,10,9,7,1,-2
1558435113871205,-5,-3,0,5,1,1,-1,-4
1558435113884169,-4,-5,-7,-13,-6,-4,3,-6
1558435113884169,0,0,-4,5,-1,-2,2,0
1558435113893146,0,0,-2,-22,-8,-1,1,-1
1558435113893146,1,-2,1,7,10,2,-11,0
1558435113908106,-2,0,0,3,-6,-7,-8,-1
1558435113908106,-4,-2,0,3,-4,0,-5,-2
1558435113914089,-2,0,6,13,6,-1,7,2
1558435113914089,1,-1,0,2,0,3,7,2
1558435113922069,1,-1,-6,-9,-4,-5,-5,1
1558435113922069,2,-2,-3,-6,-5,-7,-3,1
1558435113931044,1,4,-1,-2,-1,3,-4,-1
1558435113931044,3,3,2,4,3,-1,0,2
1558435113944009,-4,-9,-3,5,0,-1,-4,-3
1558435113944009,-4,-5,-2,0,-2,-2,2,-7
1558435113953987,-1,-4,2,3,4,3,0,-3
1558435113953987,1,4,-7,-5,5,0,-2,-1
1558435113967945,5,2,0,-2,-5,-5,-2,2
1558435113967945,-4,-2,-3,-11,-5,-3,-1,-1
1558435113974927,-2,0,-6,1,-9,-7,4,0
1558435113974927,1,0,8,10,16,14,1,0
1558435113981913,-1,2,3,-3,-4,0,-4,1
1558435113981913,-1,-4,-7,-3,-3,-3,1,-3
1558435113990884,3,0,0,-3,-3,-9,-17,2
1558435113990884,0,-2,-4,-6,-4,6,15,9
1558435114004853,0,-1,6,11,5,-3,4,2
1558435114004853,1,3,5,3,2,-2,-5,-3
1558435114013825,-4,-2,-7,-24,-8,0,-2,-3
1558435114013825,-2,-2,1,-4,-10,-10,-16,-8
1558435114027786,-4,-2,-9,-6,-3,-3,-1,-2
1558435114027786,-1,0,1,4,3,-3,0,2
1558435114034767,0,-2,-1,8,3,4,5,-1
1558435114034767,-5,-6,-5,-15,-12,-9,-6,-5
1558435114041748,-1,3,-1,1,4,8,5,2
1558435114041748,-1,-2,-6,-4,-10,-6,-5,0
1558435114056709,-2,-2,1,6,-2,-7,-12,-3
1558435114056709,-1,-3,-8,-20,-7,1,5,1
1558435114064694,1,2,8,7,-3,4,-5,-4
1558435114064694,3,3,3,5,17,10,8,5
1558435114073663,1,-1,-1,0,-3,-5,-5,-2
1558435114073663,-1,-1,3,6,-1,-3,0,-2
1558435114087626,-2,-4,-9,-11,-10,-6,-3,-4
1558435114087626,1,5,5,2,5,9,7,2
1558435114094608,-5,-3,-4,-9,5,3,5,-3
1558435114094608,-2,-3,0,-3,-14,-9,-9,-5
1558435114101589,1,0,1,10,2,-4,-2,7
1558435114101589,2,3,5,0,0,-1,5,6
1558435114116548,1,0,2,1,9,11,11,0
1558435114116548,-1,1,-1,4,5,3,4,-1
1558435114124534,-1,0,2,1,0,-1,-7,-4
1558435114124534,-1,-3,-4,-4,-11,-12,-6,-3
1558435114133507,-2,-2,0,-1,-4,-7,-3,-1
1558435114133507,0,-2,-4,-3,-1,-3,-2,-7
1558435114147467,-1,2,6,9,1,1,2,-3
1558435114147467,-2,-1,-5,-9,1,5,-2,-1
1558435114154452,-2,-3,-2,0,-1,1,3,-1
1558435114154452,1,-1,4,7,-4,-9,-16,1
1558435114170409,0,0,1,3,2,-1,12,5
1558435114170409,0,-3,0,-12,-5,-1,-3,-4
1558435114177390,-3,-7,-20,-9,-9,-3,-6,-2
1558435114177390,0,-1,0,-3,1,-1,3,2
1558435114193349,-2,0,-3,-2,4,4,1,-4
1558435114193349,-4,-1,6,9,7,8,-1,0
1558435114194343,0,-1,-2,5,-4,-8,-8,-4
1558435114194343,-3,-3,-5,-27,-10,-2,6,-2
1558435114207310,-2,-4,-4,-3,-5,-9,-1,-4
1558435114207310,-4,-2,-1,-3,8,6,4,-1
1558435114214290,0,3,1,8,3,0,1,1
1558435114214290,-3,-2,-3,5,-2,-7,-6,-4
1558435114230284,1,1,-1,-4,-2,-3,-3,0
1558435114230284,-1,-4,-6,-12,-10,-9,-6,-4
1558435114237226,1,2,11,13,1,4,2,2
1558435114237226,1,2,-4,-3,10,13,8,2
1558435114253196,0,-2,0,-3,-6,-2,1,0
1558435114253196,-1,-2,-6,4,0,-3,-3,-4
1558435114255186,-2,-4,-4,-9,-9,-8,-1,-2
1558435114255186,-4,-4,0,2,-7,-2,0,-1
1558435114268167,0,1,-1,-12,9,11,-1,2
1558435114268167,0,-2,-7,-1,-4,-7,0,-3
1558435114274131,1,0,3,2,4,5,1,-2
1558435114274131,-3,-3,-4,5,-5,-6,-4,0
1558435114290085,0,-4,-3,-7,-2,-5,-2,-3
1558435114290085,-1,-1,2,9,4,3,-1,-3
1558435114297071,-2,-1,-3,-17,-9,-4,-3,-3
1558435114297071,-5,-2,2,9,4,3,3,-5
1558435114313030,1,2,7,14,9,5,0,-3
1558435114313030,-1,2,-4,4,2,2,0,1
1558435114315021,-1,-5,-10,-14,-8,-8,-5,-2
1558435114315021,-1,0,2,2,0,-1,-11,-6
1558435114327983,-2,-4,-3,-9,-5,-1,-2,-1
1558435114327983,-1,2,6,9,1,0,2,1
1558435114333967,-3,-2,-1,2,3,2,0,-4
1558435114333967,1,-3,-3,-14,-3,-8,-4,-3
1558435114349924,-1,-2,-2,7,0,5,-2,-1
1558435114349924,2,-1,-4,-6,-4,-4,-3,-2
1558435114356908,-1,0,4,4,2,2,-1,3
1558435114356908,-1,-1,-6,-6,-6,-3,0,-1
1558435114373870,-3,-3,-7,-13,-11,-8,3,-3
1558435114373870,-2,-3,-1,-3,-4,-1,-4,-2
1558435114374857,-2,-1,-4,-5,-3,-1,-2,-3
1558435114374857,2,2,8,9,9,4,4,2
1558435114387823,0,2,5,14,-1,-3,-4,-3
1558435114387823,-4,-6,-8,-16,0,1,-2,-2
1558435114394884,-1,-1,2,3,-3,-4,-2,-1
1558435114394884,-3,0,0,1,-5,0,-2,2
1558435114410792,-3,-6,-7,5,-2,-11,-11,0
1558435114410792,3,3,4,0,2,1,3,8
1558435114416811,0,-1,-3,-1,5,5,6,-1
1558435114416811,-2,-1,-1,0,2,6,0,-4
1558435114433733,1,2,3,-1,-1,2,6,2
1558435114433733,-5,-3,-1,-1,-10,-9,-8,-7
1558435114434699,-1,-1,2,7,4,-3,1,-1
1558435114434699,1,-1,-3,1,-4,-1,5,3
1558435114447672,-1,0,-3,1,10,8,2,0
1558435114447672,0,1,3,1,-6,-3,-1,-3
1558435114454645,2,-1,-1,-6,-6,-3,-2,2
1558435114454645,-1,-1,2,6,7,3,-4,-1
1558435114470601,-3,-3,-1,-9,-5,-6,0,-4
1558435114470601,-2,0,1,12,2,-1,3,-1
1558435114476612,3,2,-5,-18,-3,3,-4,3
1558435114476612,1,-2,0,3,6,1,4,4
1558435114493540,1,2,-1,-3,3,1,-2,0
1558435114493540,1,-5,-7,-2,-4,0,-2,-4
1558435114494536,-2,-2,5,3,-9,-10,-5,-5
1558435114494536,2,1,2,0,2,3,0,4
1558435114507571,0,1,0,6,7,8,7,2
1558435114507571,-3,-4,-3,-5,-5,-4,-6,-1
1558435114514551,0,1,1,3,3,0,4,4
1558435114514551,-2,-1,-3,3,-6,-8,-8,-3
1558435114530442,-2,0,-3,-6,-5,-4,-2,-3
1558435114530442,-3,-7,2,7,5,2,0,0
1558435114537422,0,0,-4,-5,0,2,0,0
1558435114537422,-1,2,-4,-7,-3,-3,-5,-5
1558435114561364,1,-3,-1,-4,-12,-6,-7,-1
1558435114561364,-2,-2,-3,-7,-8,-9,-5,-4
1558435114562360,-2,-3,3,3,3,0,5,-1
1558435114562360,0,1,0,2,3,6,8,2
1558435114567343,0,0,-2,-3,0,2,-1,4
1558435114567343,2,1,2,1,0,2,3,-2
1558435114576319,1,0,-3,5,8,1,-3,1
1558435114576319,-1,1,2,-7,-6,-4,-1,1
1558435114590342,-2,-1,-5,-5,-5,-6,-2,-1
1558435114590342,-4,-9,-3,-1,2,3,1,0
1558435114597319,-1,-1,-3,0,-2,2,0,-4
1558435114597319,-2,-4,-3,-9,-3,-4,-1,-6
1558435114613229,1,2,4,4,1,-5,1,3
1558435114613229,1,4,4,10,3,-2,-3,2
1558435114621202,-1,-2,-9,-14,-2,1,0,1
1558435114621202,-2,-1,1,4,1,2,3,0
1558435114627305,-4,0,1,-3,-5,-4,-2,-4
1558435114627305,-2,0,-1,-7,-3,-2,1,0
1558435114636162,-3,-5,4,-2,1,-4,-5,-2
1558435114636162,-2,-4,2,1,-6,-7,-6,1
1558435114650170,0,-1,-1,2,3,1,1,-3
1558435114650170,-1,-1,-8,-5,1,4,5,1
1558435114657103,-1,2,2,7,4,3,-6,-4
1558435114657103,-1,-1,-1,-1,2,4,3,0
1558435114673169,-4,0,5,10,10,3,2,-2
1558435114673169,-1,-2,-5,-20,-18,-8,-11,-6
1558435114675063,1,-1,-3,-4,-15,-11,-4,-1
1558435114675063,3,1,7,7,7,5,9,7
1558435114687028,-2,-5,-8,4,11,8,1,3
1558435114687028,3,2,3,1,1,1,0,0
1558435114696006,-4,-5,-4,5,-1,0,-3,-3
1558435114696006,-1,-3,-7,-12,-13,-14,-11,-3
1558435114709963,0,2,3,3,-6,-7,-4,-2
1558435114709963,1,2,1,3,7,6,5,4
1558435114716945,0,2,3,-8,2,4,6,1
1558435114716945,0,1,-5,-6,10,6,2,-1
1558435114732900,-4,-7,-5,-8,-9,-5,1,-2
1558435114732900,-2,-4,-2,0,1,-5,-10,-5
1558435114734895,1,-1,6,8,-8,-8,2,-1
1558435114734895,-3,-3,-7,-7,-5,-5,-5,-7
1558435114746863,-2,-3,-5,-5,1,1,1,-1
1558435114746863,0,4,4,8,7,5,4,1
1558435114755840,0,0,-3,0,2,2,-2,1
1558435114755840,-4,-2,0,3,-3,-6,-6,-3
1558435114769800,-1,-1,2,2,-9,-9,-7,-3
1558435114769800,-2,0,-5,-7,-3,-1,-4,3
1558435114776843,-2,1,3,4,14,10,9,3
1558435114776843,-2,-3,-12,-17,-8,-2,6,-1
1558435114793744,-2,-3,0,2,-4,-1,-6,-6
1558435114793744,1,-1,0,10,9,5,7,4
1558435114794737,-2,-2,-8,-11,-8,-5,-3,-2
1558435114794737,-1,0,3,6,0,2,0,0
1558435114815800,-3,-4,-4,-6,-8,-5,-5,-2
1558435114815800,-3,-2,0,-8,-13,-9,-7,-5
1558435114817681,-1,-1,0,16,10,7,2,-3
1558435114817681,1,1,-1,-16,-6,-4,-1,0
1558435114830645,2,1,1,2,11,12,1,-2
1558435114830645,-3,-2,3,2,-2,-8,-2,-4
1558435114836627,-4,-5,-6,-8,-13,-9,-9,-4
1558435114836627,1,-2,0,-2,8,8,8,4
1558435114853588,-2,1,1,0,1,0,-1,-2
1558435114853588,-4,-3,-6,-3,-5,-5,-5,-7
1558435114854580,-4,-3,0,0,-10,-8,-4,-4
1558435114854580,-2,-1,0,9,14,11,2,-2
1558435114867552,1,-1,2,4,2,4,3,-1
1558435114867552,-1,0,-9,-24,0,0,-2,1
1558435114875836,-2,-3,-4,-1,-5,-8,-4,2
1558435114875836,0,-1,4,4,-4,-5,-6,-2
1558435114890478,-2,-1,-5,-3,1,-3,1,0
1558435114890478,-1,0,3,8,-2,0,1,-2
1558435114897692,0,-1,-2,-6,-8,-6,-9,-6
1558435114897692,-1,-4,0,3,5,1,3,-2
1558435114913465,4,6,6,7,4,7,6,3
1558435114913465,-1,-2,1,9,8,3,2,2
1558435114914423,-1,-1,-3,-7,-3,-2,-2,3
1558435114914423,-5,-3,-5,7,-6,-6,-7,-5
1558435114927381,-1,-1,-4,-21,-11,-5,-5,-1
1558435114927381,-2,-1,2,3,-2,-2,-3,-3
1558435114935361,-2,-1,4,6,-2,-4,-3,-3
1558435114935361,0,-1,-6,-9,-1,-4,-1,0
1558435114950319,2,-1,2,6,7,6,6,4
1558435114950319,3,2,1,8,11,9,0,2
1558435114957338,2,0,3,-4,-1,3,5,5
1558435114957338,-5,0,4,8,-14,-11,-12,-9
1558435114973256,-3,-4,-5,-6,-2,-4,1,1
1558435114973256,0,-2,-5,-18,-2,0,6,1
1558435114974254,-3,0,1,7,9,4,2,-1
1558435114974254,-1,1,-1,-1,-6,-7,-8,-2
1558435114987220,-1,-3,-4,8,-3,-5,-1,-4
1558435114987220,-1,-2,-2,-4,2,8,-2,1
1558435114996196,0,2,3,10,12,2,1,-2
1558435114996196,-2,-4,-12,-16,-4,0,2,4
1558435115010510,-2,-3,-4,-1,-7,-4,-4,-1
1558435115010510,-2,-3,-8,-27,-12,-7,-1,-3
1558435115017519,-4,-5,-6,-1,2,3,-1,-1
1558435115017519,3,2,6,6,4,-1,-4,-1
1558435115033373,-3,-1,0,3,-1,-5,1,1
1558435115033373,-6,-5,-1,11,-4,-6,-7,-7
1558435115040215,0,0,-1,-5,2,0,4,1
1558435115040215,1,0,3,8,8,6,4,1
1558435115047254,2,4,0,-1,15,12,6,2
1558435115047254,-1,-2,2,0,-9,-3,-3,-2
1558435115056038,-2,-4,-4,-7,-8,-10,-6,-4
1558435115056038,-6,-9,-10,-3,-10,-9,2,-3
1558435115069998,-1,-2,2,-6,-2,-5,-8,-3
1558435115069998,1,-2,-3,3,-1,-4,1,1
1558435115077033,4,2,1,3,7,10,3,7
1558435115077033,2,3,2,0,8,12,12,6
1558435115093158,-3,0,0,2,-5,-8,-8,-4
1558435115093158,-1,0,-1,4,-1,-6,-1,-1
1558435115100049,0,2,1,-2,-7,-3,-2,-2
1558435115100049,1,0,4,7,5,3,-2,-2
1558435115106901,-2,-5,-7,-9,-4,-3,-4,-3
1558435115106901,-3,-2,-1,-7,-9,-10,-4,-1
1558435115115887,-1,-1,-1,2,-3,0,-1,0
1558435115115887,1,3,8,10,11,8,4,3
1558435115129864,2,2,2,-3,7,7,7,4
1558435115129864,1,4,2,10,12,7,0,0
1558435115136829,-2,-2,-5,-9,-12,-5,1,-2
1558435115136829,-6,-3,-8,-20,-14,-6,-10,-7
1558435115152784,0,-2,5,12,-6,-13,-3,-1
1558435115152784,-2,-2,-2,0,-5,-2,0,1
1558435115159763,-2,-2,-2,0,9,6,0,-1
1558435115159763,5,4,1,3,9,4,7,5
1558435115175715,0,-4,-5,-20,-5,-2,-3,0
1558435115175715,-5,-5,-1,0,-2,-3,-4,-3
1558435115177711,-4,-2,-3,-5,-8,-9,-3,-4
1558435115177711,-6,-6,-5,3,-13,-10,-5,-7
1558435115191000,0,3,1,-2,2,6,-1,0
1558435115191000,-1,2,-1,-3,3,-3,-5,-4
1558435115197758,4,3,3,5,14,16,11,5
1558435115197758,0,-1,-8,-7,0,0,0,1
1558435115212891,-1,0,3,12,3,-1,1,-2
1558435115212891,-2,-2,-4,-11,-5,-1,2,-2
1558435115219598,-2,-1,3,4,-1,-7,-6,-7
1558435115219598,-2,-2,-4,-2,-3,-4,-6,1
1558435115235644,-6,-5,-5,-2,-9,-2,-5,-4
1558435115235644,4,2,3,6,7,9,9,4
1558435115237551,0,-2,0,-1,2,0,2,1
1558435115237551,2,1,7,7,1,1,0,-1
1558435115250540,-1,-3,-5,-4,-5,-5,-4,-2
1558435115250540,-4,-1,4,4,-5,-5,-1,-3
1558435115257777,-1,-4,-13,-12,-5,-2,-3,-1
1558435115257777,-1,3,-2,-8,-5,-6,-10,-4
1558435115272745,-2,-2,-3,3,-1,5,7,1
1558435115272745,2,2,2,-15,0,3,3,2
1558435115279720,1,1,1,4,5,5,3,0
1558435115279720,3,2,5,6,0,-3,-3,-3
1558435115296559,0,0,-3,-2,-4,-8,-7,-3
1558435115296559,-1,-1,-1,4,-3,-3,-5,-2
1558435115297393,-5,-6,-5,-5,-12,-13,-9,-4
1558435115297393,-3,-2,-1,-6,-5,4,2,-1
1558435115310621,1,3,6,11,17,11,9,1
1558435115310621,1,2,3,0,1,2,2,-1
1558435115317576,1,-1,-1,4,0,2,-1,-1
1558435115317576,-5,-6,-11,-27,-12,-8,-5,-3
1558435115333405,-2,-2,-1,-6,-13,-12,-6,-2
1558435115333405,-1,-5,-11,4,3,-1,-3,1
1558435115339427,0,1,4,4,0,0,-2,-5
1558435115339427,0,3,-1,-1,-6,-8,-2,1
1558435115356233,2,0,2,-3,10,14,9,6
1558435115356233,-1,-1,9,28,15,6,1,0
1558435115357231,-3,-2,-8,-13,-11,-6,-1,-4
1558435115357231,0,-2,3,3,1,-2,-3,-3
1558435115370196,-2,2,-1,-4,-2,-8,-4,-2
1558435115370196,-1,-2,-4,-6,-4,-3,-2,0
1558435115377213,-2,-2,1,1,1,-2,-1,-2
1558435115377213,-3,-2,1,-1,-9,-4,2,-3
1558435115392136,-1,-3,-3,-1,-7,-5,-5,-3
1558435115392136,4,0,-3,6,15,16,8,2
1558435115399155,-1,0,1,0,6,6,2,3
1558435115399155,-5,-3,-7,-7,-1,1,2,-1
1558435115416073,-2,1,0,1,-3,-7,-10,-3
1558435115416073,1,-2,-6,-10,-10,-8,-1,0
1558435115417069,1,0,-2,-4,-2,0,-3,2
1558435115417069,-2,-1,1,4,-1,-1,-6,-4
1558435115430034,-5,-5,-3,1,0,-2,0,-3
1558435115430034,-4,0,2,1,-1,-2,-2,-3
1558435115437026,0,0,1,-3,-4,-1,-4,-4
1558435115437026,1,-2,-6,-13,-2,3,3,4
1558435115452981,-1,-1,-4,-5,-5,-2,-5,-1
1558435115452981,-3,2,-1,-6,-6,-6,-1,-2
1558435115460067,-3,-5,0,5,-1,-6,-3,-3
1558435115460067,-1,0,4,7,3,0,-3,-2
1558435115476137,1,0,2,1,5,5,7,3
1558435115476137,0,-1,-5,2,2,3,4,1
1558435115476926,-1,0,-3,-11,-2,-3,2,1
1558435115476926,-1,-3,-1,-2,0,0,-3,-1
1558435115490081,-3,-2,-4,-3,-3,-3,-4,-4
1558435115490081,-3,-1,1,0,-6,-5,-4,-2
1558435115496863,0,0,5,4,2,-1,-2,-1
1558435115496863,-2,-2,-1,5,1,-2,-2,-2
1558435115512819,0,-1,-3,-3,-4,-5,0,-1
1558435115512819,1,0,6,6,1,3,2,1
1558435115519800,3,0,-3,-12,-2,1,0,1
1558435115519800,-2,-4,-4,2,-2,-1,-1,-3
1558435115543742,0,2,0,-4,1,4,1,-2
1558435115543742,-2,-1,-6,-5,-6,-7,-3,-2
1558435115544731,-1,3,7,8,1,-5,-6,0
1558435115544731,2,1,-1,5,4,2,6,6
1558435115550843,-1,-1,-1,-4,2,2,4,0
1558435115550843,0,-4,-1,-5,0,3,-3,-3
1558435115556698,-1,-2,0,2,1,2,3,-1
1558435115556698,2,-1,-2,2,3,-2,-1,2
1558435115572658,-1,-3,-2,1,0,-3,-7,-4
1558435115572658,-1,2,3,2,-8,-7,-2,-2
1558435115579634,-2,-1,-6,-8,-3,-1,-2,-2
1558435115579634,-1,0,1,-2,3,3,0,-1
1558435115595935,-2,-1,3,4,7,2,-3,0
1558435115595935,-1,-4,-1,-1,-1,1,5,0
1558435115597589,-1,-1,-2,6,3,2,4,0
1558435115597589,-3,-3,5,9,-7,-8,-6,-7
1558435115610551,-1,-1,-4,-12,-4,-2,-2,-1
1558435115610551,0,-2,-4,0,0,-1,-5,2
1558435115617833,-1,-2,1,4,-2,-2,2,1
1558435115617833,-2,3,1,-4,-3,-3,0,-2
1558435115632806,0,-1,3,3,-1,1,0,0
1558435115632806,2,4,2,1,5,2,3,2
1558435115639510,2,0,4,6,6,3,1,3
1558435115639510,-2,-3,-1,-5,-6,-3,-6,-4
1558435115656516,-2,-2,-10,-16,-9,-7,-2,-2
1558435115656516,0,0,5,0,-5,2,2,0
1558435115657427,0,0,-6,1,5,1,-2,0
1558435115657427,-5,-7,-12,-10,-6,-5,-4,-6
1558435115669397,-2,-1,1,6,0,0,-1,1
1558435115669397,-5,-3,0,-3,4,2,-2,-3
1558435115678438,3,6,16,9,1,4,5,-2
1558435115678438,0,-7,-15,-7,-4,-3,-2,-2
1558435115692604,-1,-3,-9,-13,-5,1,2,-1
1558435115692604,-2,-3,-10,-4,-3,-4,-7,-3
1558435115699592,-1,0,16,11,0,-2,-6,2
1558435115699592,3,5,7,0,3,1,4,6
1558435115716465,-3,-8,-30,-12,-8,-5,-2,-2
1558435115716465,0,0,-4,-13,3,5,3,-1
1558435115717271,-6,-8,-19,-12,-5,-1,-4,-5
1558435115717271,0,5,13,4,4,3,-1,-1
1558435115730451,2,3,18,13,-3,-5,-5,-1
1558435115730451,0,-1,-6,-1,-4,-5,-4,-5
1558435115738395,-2,-1,-3,-1,-1,-2,-6,-2
1558435115738395,0,0,1,6,4,5,6,1
1558435115753175,-1,0,3,-6,-3,-1,0,1
1558435115753175,-1,-4,0,0,-7,-7,-6,-2
1558435115759158,-3,-4,-8,-4,1,1,3,-1
1558435115759158,-1,1,2,6,5,4,7,5
1558435115776346,1,3,9,17,10,1,1,0
1558435115776346,0,8,2,-4,-4,-2,-3,-3
1558435115777110,-5,-7,-9,-14,-8,-6,-8,-5
1558435115777110,0,0,-5,-9,-6,-3,4,-1
1558435115790079,-1,-3,1,4,1,2,1,0
1558435115790079,-1,1,2,0,1,-6,-6,-2
1558435115798270,-1,-5,-8,-6,-4,0,-3,0
1558435115798270,0,-1,-3,1,1,5,2,2
1558435115813244,-1,-2,5,9,5,3,-5,-2
1558435115813244,-2,-3,-2,0,-9,-4,-2,-3
1558435115819992,1,3,7,11,1,-3,4,0
1558435115819992,0,-2,-3,-3,3,0,0,3
1558435115835952,-4,-3,-5,-12,-11,-7,-4,-4
1558435115835952,-3,-4,1,12,5,7,3,-1
1558435115836947,2,1,-3,-9,-1,-1,0,1
1558435115836947,-1,-1,-1,6,-2,-3,-5,-5
1558435115850157,-4,1,6,6,-1,1,0,-2
1558435115850157,-2,-4,-3,-8,-6,-7,0,-3
1558435115858144,0,-2,-2,-5,-5,-8,-3,-2
1558435115858144,1,7,8,6,4,6,0,-1
1558435115873093,2,-2,-13,0,3,2,-3,-3
1558435115873093,-2,-10,-11,-26,-8,-1,2,3
1558435115880056,-1,0,-3,-2,-3,1,4,3
1558435115880056,-4,-4,1,5,3,-6,-8,-4
1558435115895821,-4,-1,-4,-11,-3,1,1,1
1558435115895821,1,1,0,6,0,1,2,0
1558435115897910,0,3,0,2,0,2,4,-2
1558435115897910,-4,-4,-2,-1,-2,-4,-9,-4
1558435115910098,-1,1,4,3,-1,-3,2,1
1558435115910098,-3,-2,-4,-5,-2,-4,-1,-2
1558435115918732,-2,1,-1,-3,5,2,-4,-1
1558435115918732,1,-1,5,12,3,5,3,0
1558435115932944,-1,-3,-5,-16,-3,-1,-1,1
1558435115932944,-1,0,-2,-8,-1,-1,0,-4
1558435115939706,-4,-6,-8,-5,-9,-8,-9,-4
1558435115939706,-1,-1,0,-3,-5,-4,3,-1
1558435115954631,2,2,2,10,11,9,3,1
1558435115954631,-2,-2,3,7,4,1,0,0
1558435115961612,0,2,8,3,-4,-3,-3,-1
1558435115961612,-4,0,-7,-9,-2,-3,-2,-1
1558435115969590,-2,-5,-9,-17,-9,-2,-1,-2
1558435115969590,-1,0,0,5,3,2,0,1
1558435115978567,0,-1,-2,1,4,-3,3,-2
1558435115978567,0,-3,0,-3,-7,-1,-5,0
1558435115992530,0,0,0,-5,0,-3,-2,-1
1558435115992530,-1,-1,-3,3,-7,-10,-8,-4
1558435115999512,-3,-5,-1,3,-3,-3,-2,0
1558435115999512,1,6,8,5,13,13,9,3
1558435116015467,0,-1,0,0,2,2,2,-1
1558435116015467,-1,-1,-5,3,6,2,3,3
1558435116021481,-1,-1,-6,-6,-8,-9,-5,-2
1558435116021481,-3,-4,-5,-7,-10,-7,-5,-2
1558435116029430,2,3,9,11,7,4,4,1
1558435116029430,-1,-1,-3,-5,-3,-7,-2,-4
1558435116038406,1,0,0,6,4,3,-3,0
1558435116038406,-1,-1,0,-3,-4,0,1,0
1558435116052369,-6,-2,-1,2,-7,-9,-5,-4
1558435116052369,1,0,-4,-15,-3,3,0,1
1558435116059352,-2,1,4,-2,-2,-2,-1,-5
1558435116059352,-2,-7,-5,-5,0,-5,-4,-1
1558435116075309,0,0,2,3,1,-2,-6,0
1558435116075309,0,1,2,8,-4,2,0,1
1558435116082310,-2,0,-5,-8,-10,-5,0,0
1558435116082310,-2,-4,-9,-18,-2,1,-2,-3
1558435116089272,1,1,4,14,12,8,6,0
1558435116089272,1,-1,0,6,1,-1,-3,0
1558435116098247,-3,-5,-7,-10,-7,0,-4,-3
1558435116098247,3,1,2,1,3,1,1,2
1558435116112268,0,2,-1,-7,-6,-5,-4,0
1558435116112268,-7,-6,-3,-8,-7,-5,-6,-7
1558435116119190,0,-1,4,19,6,7,4,1
1558435116119190,-3,-5,-5,-4,-8,-7,-3,-4
1558435116135149,-3,-1,-8,-10,-7,-3,-1,-3
1558435116135149,2,0,0,2,12,3,2,6
1558435116142131,-4,-7,-2,-16,-16,-6,-1,-1
1558435116142131,-3,-4,-2,4,-5,-5,-6,-6
1558435116158085,1,-3,4,10,-1,2,0,0
1558435116158085,-2,1,0,9,4,-1,-4,-3
1558435116160081,1,6,0,-3,3,3,2,1
1558435116160081,0,-2,-5,-11,-5,-4,-1,3
1558435116173048,0,0,3,9,2,-3,0,0
1558435116173048,-1,-2,-1,-8,-1,6,1,-3
1558435116179031,0,-2,-5,-17,5,3,0,0
1558435116179031,2,2,4,5,-2,-4,1,0
1558435116194990,0,2,-6,-7,-6,-3,-4,-2
1558435116194990,-1,1,-5,-8,-5,2,2,1
1558435116201969,0,-1,6,23,9,-1,-1,0
1558435116201969,-3,0,2,3,2,1,0,-1
1558435116217926,-3,-4,-3,-11,-8,-1,-1,-1
1558435116217926,1,2,7,11,3,4,3,2
1558435116219921,-3,-1,-2,-2,2,1,1,0
1558435116219921,-2,0,0,11,8,1,0,-1
1558435116232944,-5,-6,-3,-10,-4,-4,-4,-4
1558435116232944,0,-3,2,0,-4,-9,-10,-3
1558435116239869,2,0,-4,-3,0,7,5,3
1558435116239869,2,1,0,5,5,1,3,3
1558435116262842,1,-2,0,-2,-2,1,1,0
1558435116262842,0,3,6,15,5,-3,-3,-2
1558435116264803,-3,-7,-4,-7,-10,-7,-4,-3
1558435116264803,0,1,-4,-5,2,2,-2,-3
1558435116277767,0,1,3,11,1,-1,-2,1
1558435116277767,-1,-1,-2,4,1,2,4,-3
1558435116279764,0,3,3,-6,0,-3,-1,1
1558435116279764,0,-1,-2,-10,-7,-3,-3,-1
1558435116292732,-1,-2,-7,-2,0,-3,-5,-5
1558435116292732,-2,-1,-1,2,3,-3,-1,1
1558435116299707,-3,0,-3,4,0,2,-2,-3
1558435116299707,0,0,2,-2,-2,-1,2,1
1558435116314706,-2,0,0,2,1,-1,0,0
1558435116314706,0,-3,-1,2,1,5,1,0
1558435116321675,-1,0,-2,-2,-3,-7,-5,-4
1558435116321675,-6,-3,-8,-6,-7,-9,-2,-5
1558435116338638,1,1,1,6,7,6,3,0
1558435116338638,-2,-3,-4,-9,-8,-8,-2,-4
1558435116339600,-2,-3,-1,-2,-8,-2,-3,-3
1558435116339600,0,-2,3,5,4,1,-6,-1
1558435116352566,-1,-2,-3,0,-5,-4,-1,0
1558435116352566,-3,0,-4,-12,-5,-4,-6,-1
1558435116359548,1,-1,0,3,6,6,6,1
1558435116359548,0,1,1,3,5,4,3,0
1558435116375504,1,1,4,3,-3,1,4,3
1558435116375504,-2,-3,-10,-16,-6,-5,-6,-5
1558435116381489,-3,-5,-4,8,-7,-9,-7,-3
1558435116381489,-1,-1,-2,-2,0,4,-1,-2
1558435116398479,1,-3,3,4,7,1,1,2
1558435116398479,0,1,-2,-5,1,2,-2,-1
1558435116399446,0,0,3,3,7,-2,-4,0
1558435116399446,0,-2,3,1,-5,4,5,0
1558435116412437,-1,-1,-4,-4,-8,-6,-4,-3
1558435116412437,-4,-3,-4,-6,-4,-2,2,-2
1558435116419388,-1,2,2,2,1,-2,-3,-3
1558435116419388,-2,-3,-4,-4,-2,-1,-1,-2
1558435116435344,-1,1,-3,5,4,0,1,-2
1558435116435344,0,-1,2,10,9,8,4,2
1558435116442325,-1,-1,-10,-15,-9,-3,-1,-2
1558435116442325,-1,1,6,3,1,-7,-6,-6
1558435116458285,-2,-1,-9,-17,-10,-7,-4,-2
1558435116458285,-3,-3,-4,2,-1,0,2,-1
1558435116459316,1,-1,4,3,6,3,-3,-1
1558435116459316,1,0,11,4,1,5,6,3
1558435116480224,-3,-4,-7,-6,-3,-3,-6,-3
1558435116480224,-4,-4,-9,-4,-5,-7,3,0
1558435116482220,-3,-1,5,9,3,1,1,1
1558435116482220,2,-1,-7,-7,-1,2,-2,-3
1558435116495183,-1,0,5,8,2,6,4,3
1558435116495183,0,-3,-2,1,-7,-4,-3,0
1558435116502170,1,-1,-3,0,-1,-4,0,-2
1558435116502170,-2,1,-1,-1,5,0,0,1
1558435116518166,-3,-1,9,3,0,2,-2,-4
1558435116518166,-2,1,-4,-2,-5,-2,-4,-2
1558435116520148,-1,-6,-6,-18,-2,-2,1,-1
1558435116520148,-1,-1,-11,-5,-3,-3,0,0
1558435116532087,-2,-1,-3,-10,-3,-2,1,-3
1558435116532087,0,3,16,19,6,5,1,0
1558435116539067,1,4,0,5,1,-2,1,-2
1558435116539067,-4,-5,-6,-7,-2,-3,-1,-4
1558435116555026,-3,-3,-3,4,0,0,-2,-1
1558435116555026,0,-2,-2,-10,-5,-1,-5,1
1558435116562007,-1,1,2,-2,-5,2,-3,-1
1558435116562007,-2,-1,-5,2,-2,-6,-6,0
1558435116577963,0,-1,1,0,0,-7,-5,-3
1558435116577963,1,1,3,4,10,4,6,3
1558435116579958,-1,4,0,6,6,6,-1,0
1558435116579958,-2,-3,-3,-13,-6,-2,0,-2
1558435116592927,-1,-2,-2,0,-1,-3,-4,1
1558435116592927,0,0,-1,-6,-1,1,8,1
1558435116598908,-3,-4,-2,2,-5,-7,0,-3
1558435116598908,1,3,8,9,2,4,2,-2
1558435116615861,-1,-4,-10,-9,0,-4,-1,1
1558435116615861,-1,-1,-1,1,-3,-4,0,-4
1558435116622844,-1,0,1,0,4,-1,-2,2
1558435116622844,-2,-5,-7,-21,-16,-11,-5,-2
1558435116637804,-1,-4,-2,-4,-8,-2,0,-2
1558435116637804,0,2,7,12,6,8,-3,0
1558435116639799,-2,-5,-3,7,4,1,1,0
1558435116639799,-2,-3,-7,2,-1,-2,-2,0
1558435116651767,4,4,4,-6,6,4,-3,2
1558435116651767,-2,-2,-6,-1,-9,-6,0,-2
1558435116660742,-2,0,2,-4,-3,-3,-2,1
1558435116660742,-5,-8,-13,-9,-5,-7,-5,-3
1558435116674706,0,-2,-3,2,-4,-3,-2,-3
1558435116674706,1,1,4,-7,5,5,3,1
1558435116681686,3,3,5,6,3,1,3,1
1558435116681686,-1,-6,-6,1,-2,-4,-5,-2
1558435116698641,-1,-2,-2,-2,-6,-5,1,-1
1558435116698641,0,0,6,7,7,1,-4,-4
1558435116700636,-4,-4,-10,-10,-7,-2,2,0
1558435116700636,0,4,9,4,6,10,0,1
1558435116711607,-2,-3,-9,-2,-2,-3,-2,-1
1558435116711607,1,1,-3,-2,-1,-3,-2,2
1558435116720582,-1,-2,-2,-15,-7,-2,-3,-2
1558435116720582,1,1,12,19,4,3,-1,-2
1558435116734545,-4,2,0,-13,-7,-6,-3,-6
1558435116734545,-1,-2,-1,0,-1,-3,0,-2
1558435116741526,2,1,0,4,4,0,0,2
1558435116741526,-1,0,-4,-2,2,-1,2,2
1558435116758480,1,0,5,15,8,4,0,3
1558435116758480,-4,-4,-4,-10,-15,-11,-8,-2
1558435116759479,-2,-2,-5,-7,-8,-5,-10,-2
1558435116759479,-1,2,5,7,-1,-2,4,-1
1558435116771445,-1,2,-1,-17,1,6,2,1
1558435116771445,-5,0,-2,0,6,7,-4,-5
1558435116780423,-3,-9,-3,4,3,4,4,1
1558435116780423,-1,2,4,8,6,0,1,1
1558435116795383,-1,-1,1,3,-7,-5,3,1
1558435116795383,0,-4,-10,-14,-8,-5,-3,-3
1558435116802364,-1,-1,2,6,2,0,-7,-4
1558435116802364,2,4,0,-10,-2,-5,-1,1
1558435116818321,-2,-6,-8,-1,-2,1,-1,-2
1558435116818321,-2,1,1,1,4,2,2,1
1558435116819318,-1,-4,-3,0,0,1,0,-1
1558435116819318,-2,-6,-2,-3,-5,0,-9,0
1558435116832283,-2,1,3,7,-3,-4,-2,-1
1558435116832283,0,-1,-2,-16,1,1,2,2
1558435116840262,2,1,2,9,7,4,3,1
1558435116840262,0,0,-2,-2,0,1,0,0
1558435116855221,-1,0,3,3,0,-2,-5,-5
1558435116855221,-2,-1,-3,4,-6,-7,-1,1
1558435116862204,-1,-1,3,-7,-8,0,5,0
1558435116862204,-1,-1,-6,1,9,6,1,0
1558435116877163,0,-2,1,-5,0,4,-2,-1
1558435116877163,0,-2,0,5,-2,-4,0,-2
1558435116884144,-1,0,-5,-5,-9,-5,-4,-3
1558435116884144,-3,-1,0,7,-1,-3,-3,-4
1558435116892122,-1,-2,-2,0,6,3,3,3
1558435116892122,1,-4,-2,-2,-9,-2,-6,-3
1558435116901099,-3,-1,-7,-9,-7,-9,-2,-4
1558435116901099,0,2,-1,2,4,2,-1,-2
1558435116915063,-1,1,2,8,11,8,2,0
1558435116915063,-1,-4,-1,4,-1,1,-1,-5
1558435116929025,2,1,-1,-11,-6,-3,-4,1
1558435116929025,0,-4,-2,-1,-9,-8,-1,-3
1558435116937005,-3,-3,-11,-12,-6,-10,-5,-3
1558435116937005,2,-2,2,10,4,3,2,4
1558435116943985,-1,-1,-1,1,8,5,-2,-2
1558435116943985,-2,3,3,-8,-5,-1,0,-1
1558435116951963,0,3,7,7,-6,-7,-3,-3
1558435116951963,-1,0,2,14,2,3,-2,1
1558435116960941,3,2,-2,-2,6,8,4,4
1558435116960941,-1,-2,-4,-10,-4,-3,1,-1
1558435116974913,-2,0,-5,-5,-8,-3,-2,-2
1558435116974913,-2,2,3,-2,1,-2,-3,-2
1558435116981893,-2,0,0,7,3,0,2,-1
1558435116981893,-1,-2,2,5,0,-6,-1,-1
1558435116997844,0,-3,-2,0,-4,-2,0,-1
1558435116997844,0,-3,-1,-6,1,-2,-1,1
1558435117004841,-2,-2,-2,-1,-4,2,0,-4
1558435117004841,-1,0,0,-1,10,4,1,0
1558435117011804,0,-2,1,6,-2,-2,-1,-1
1558435117011804,-2,-2,-4,-2,-1,-1,-1,-2
1558435117020780,-1,-4,-6,-6,-8,-7,-5,-1
1558435117020780,0,-1,-4,-3,-1,5,-2,2
1558435117034743,2,4,2,0,4,4,-2,-1
1558435117034743,0,-3,-3,-2,2,-1,3,-1
1558435117041735,-2,-1,2,8,5,1,-1,0
1558435117041735,-5,-2,-4,-5,-6,-5,0,-4
1558435117057691,-1,-1,1,-2,2,-3,2,2
1558435117057691,-2,-1,-3,-4,3,-3,-3,-2
1558435117064670,0,0,-1,-3,-9,-4,-3,0
1558435117064670,-2,-2,1,1,-7,-1,-6,-1
1558435117080619,-2,2,0,0,-1,-3,1,-1
1558435117080619,-4,-5,-5,12,2,0,1,0
1558435117082614,1,0,-4,-11,0,-1,3,5
1558435117082614,0,-2,-1,-2,-2,-1,3,0
1558435117094581,-2,-4,3,10,-2,1,-3,-3
1558435117094581,-1,3,-2,-8,1,3,2,1
1558435117101563,-2,-2,4,-3,0,-4,-4,-3
1558435117101563,2,1,-5,9,4,-1,2,2
1558435117117520,0,-3,0,0,-4,-2,1,-2
1558435117117520,1,0,-1,-17,-4,1,1,-1
1558435117124502,-2,1,2,5,6,2,0,0
1558435117124502,-3,-4,-4,-2,-9,-3,-3,-3
1558435117140459,0,-3,-5,-11,8,3,-1,1
1558435117140459,-1,-1,-5,-9,-11,-9,-6,-1
1558435117142453,-1,0,-1,-4,-5,-1,3,0
1558435117142453,-1,-1,-3,-17,-6,0,-2,0
1558435117155418,1,0,2,6,1,3,2,1
1558435117155418,-1,-1,0,1,4,-4,-4,-3
1558435117161404,0,-1,1,-3,-8,-7,-6,-6
1558435117161404,1,-2,2,15,5,6,5,1
1558435117177387,-2,-2,-8,-2,1,1,0,-2
1558435117177387,-1,-2,-2,-2,-5,-2,-2,0
1558435117184342,-2,-5,-8,-4,-3,-4,-2,-2
1558435117184342,-1,2,4,2,2,-1,-1,-1
1558435117200298,-1,-4,-4,-9,-3,2,-1,-1
1558435117200298,-1,2,4,13,1,-2,-4,-2
1558435117202294,-2,-2,0,-11,3,2,-3,0
1558435117202294,2,-2,-3,4,0,-1,0,0
1558435117215286,-2,0,-2,-7,-2,-3,-1,-2
1558435117215286,-3,-1,-1,-2,-4,-6,-3,-1
1558435117222243,0,2,4,11,2,-2,1,0
1558435117222243,0,-2,-2,-6,7,3,-2,-4
1558435117237200,-1,0,-5,-2,-4,-6,-3,-1
1558435117237200,0,0,5,11,12,12,8,2
1558435117244182,0,2,5,-4,-4,-1,2,1
1558435117244182,-2,-4,-16,-6,-6,-4,-3,-3
1558435117261136,-2,-2,-1,-15,-7,-2,-1,2
1558435117261136,-3,-1,-3,-8,-4,2,-1,-2
1558435117262133,-2,-3,1,5,-3,-4,-4,-3
1558435117262133,1,-1,8,7,0,-2,-3,-3
1558435117275098,0,-3,-7,2,-10,-7,-1,0
1558435117275098,1,0,-2,-5,9,5,5,2
1558435117282080,-2,-1,-1,5,6,7,3,0
1558435117282080,-2,0,2,-3,-4,-6,-7,-2
1558435117297072,-3,-2,5,4,-2,1,-4,-4
1558435117297072,-1,0,-1,2,-3,-6,2,0
1558435117304072,2,-1,-6,4,4,5,4,0
1558435117304072,-3,-6,-10,-24,-8,-5,-5,-2
1558435117320977,-2,-3,-1,-2,-4,-6,-7,-3
1558435117320977,1,-3,-3,-4,-4,-5,-8,-3
1558435117321973,0,1,2,4,6,3,2,2
1558435117321973,0,-2,0,7,-2,-1,3,1
1558435117334938,0,2,0,2,10,11,5,3
1558435117334938,-6,-4,-1,4,-4,-6,-8,-6
1558435117341952,-2,0,-6,-16,-8,-8,-4,-3
1558435117341952,2,5,13,8,5,2,2,0
1558435117357878,-2,0,-6,-5,3,1,-1,1
1558435117357878,-3,-6,-16,-21,-15,-6,-5,-3
1558435117371866,-1,-2,-1,-1,-6,1,-4,-5
1558435117371866,-3,-2,0,6,2,-1,3,0
1558435117380850,3,1,6,9,8,1,4,1
1558435117380850,3,3,4,2,3,5,4,3
1558435117381847,-3,-1,1,6,-4,-7,-7,-4
1558435117381847,-2,-1,-7,-9,-5,-1,-1,-2
1558435117394777,-1,1,1,2,1,-2,-5,-2
1558435117394777,-2,-4,-3,-9,-13,-6,-2,-2
1558435117401771,2,0,-1,5,2,2,4,5
1558435117401771,2,0,2,-2,8,8,3,4
1558435117417998,0,1,-2,8,1,2,3,-2
1558435117417998,-1,-2,-6,-7,-6,-5,-7,-2
1558435117424698,-6,-6,-4,-7,-1,-1,-1,-2
1558435117424698,-3,-3,-2,-3,1,0,-3,2
1558435117442121,1,0,1,-3,1,-1,0,0
1558435117442121,3,10,6,4,-1,2,2,1
1558435117442651,-2,-4,-4,2,-2,-2,-3,-2
1558435117442651,-2,-4,-4,-1,-6,-4,-4,-3
1558435117455847,-4,-4,-5,-8,-11,-10,-10,-3
1558435117455847,-1,0,0,7,7,1,8,2
1558435117462037,0,1,-3,-3,5,3,3,0
1558435117462037,3,0,-3,-7,-10,-6,0,0
1558435117477970,-3,-3,0,0,-2,-4,-7,-3
1558435117477970,-2,-3,-5,-5,-6,-4,-2,-1
1558435117484983,-4,-2,0,2,2,-1,-1,-3
1558435117484983,-2,0,-2,-10,-4,1,-1,-1
1558435117501494,2,-1,0,1,4,3,2,6
1558435117501494,-1,0,5,3,4,-2,1,-1
1558435117502493,0,1,1,5,1,3,0,1
1558435117502493,-1,0,-1,1,0,-1,-3,-3
1558435117515467,0,1,-2,1,1,1,1,1
1558435117515467,0,-1,-2,8,-2,-2,-5,-3
1558435117521440,-3,-8,-1,-11,-12,-4,-6,-2
1558435117521440,1,-1,0,11,6,0,-3,-2
1558435117537397,-1,-2,-2,-6,-4,3,6,2
1558435117537397,1,-1,-2,1,10,6,-3,-1
1558435117544379,-3,0,-6,-5,-6,-4,-1,-4
1558435117544379,-2,-3,-1,-2,-12,-13,-7,-3
1558435117560334,-2,2,-3,-1,-3,-5,-1,-5
1558435117560334,-1,-5,3,13,7,5,1,0
1558435117562329,1,-2,-2,-11,-1,2,1,-1
1558435117562329,0,-3,0,5,3,3,0,-1
1558435117574334,1,-1,-5,-5,0,1,4,-1
1558435117574334,-1,2,8,1,-2,0,1,1
1558435117583534,1,0,0,0,2,-2,-2,1
1558435117583534,-1,-1,-2,-4,-3,0,-1,-3
1558435117597281,-1,-1,-5,-4,-5,-4,-7,-3
1558435117597281,-3,-5,-4,-6,-6,-5,2,1
1558435117604223,2,1,7,7,4,-1,6,-1
1558435117604223,0,1,-7,-4,3,-1,0,-3
1558435117620175,1,0,3,6,3,2,0,0
1558435117620175,-2,-4,-8,-21,-16,-7,-5,-4
1558435117622177,0,-1,-1,5,0,-3,-3,0
1558435117622177,-2,0,-1,0,-1,-1,-3,1
1558435117634138,-1,-2,0,3,1,-1,-1,1
1558435117634138,2,0,6,19,17,15,5,2
1558435117643114,0,2,0,-8,-2,0,0,0
1558435117643114,-3,-5,-4,-1,-2,-1,3,-2
1558435117657112,-2,-1,0,-5,-5,-7,-6,-5
1558435117657112,-1,-3,0,-3,-10,-14,-14,-4
1558435117664085,1,4,-3,5,8,7,6,2
1558435117664085,0,3,5,8,6,9,6,3
1558435117681375,-3,-3,-6,-10,-2,0,-1,-2
1558435117681375,-2,-1,-7,-10,-11,-7,-4,-1
1558435117682012,0,-2,-2,2,-1,-6,-8,-4
1558435117682012,1,1,2,-1,4,1,5,4
1558435117695239,0,0,4,4,-4,-1,1,-1
1558435117695239,1,-1,-5,-6,0,2,-2,-1
1558435117702955,-3,-2,-3,4,-2,-3,-5,-1
1558435117702955,-2,-1,0,0,-6,-8,-4,-4
1558435117718269,-2,-3,-3,-7,1,2,2,0
1558435117718269,1,0,0,2,5,1,1,-2
1558435117724278,0,-2,-4,-5,-2,1,3,-1
1558435117724278,-1,0,-2,-6,-6,-7,-9,-1
1558435117740917,3,1,2,2,3,6,4,4
1558435117740917,-3,0,1,8,7,6,2,1
1558435117741892,-4,-1,-8,-14,-4,0,-1,-1
1558435117741892,-3,-1,1,-11,-9,-2,-4,-4
1558435117754819,-1,0,-4,-6,-3,-4,-4,0
1558435117754819,-5,-3,5,12,-1,-6,0,-3
1558435117762824,0,-2,-1,2,5,2,1,0
1558435117762824,0,-1,0,0,6,4,0,-1
1558435117777783,-2,-3,0,0,0,4,2,0
1558435117777783,-1,1,0,-1,-6,-3,0,0
1558435117784772,-1,-2,-4,-13,-6,-4,-1,-2
1558435117784772,-1,2,-1,0,-2,-4,-5,-5
1558435117799729,0,-2,-4,-3,1,-3,-2,-3
1558435117799729,-1,-9,-5,-6,-5,-1,1,-1
1558435117806707,-2,-1,0,5,1,2,-2,1
1558435117806707,0,-1,-2,-6,-3,1,-1,-1
1558435117814689,-3,2,7,14,10,7,0,0
1558435117814689,-2,3,-3,-5,-1,1,1,-1
1558435117823631,-5,-6,-9,-16,-12,-9,-5,-2
1558435117823631,1,-2,5,9,4,2,2,-1
1558435117837596,-3,-4,-6,-8,-6,-9,-4,-5
1558435117837596,-1,-1,-4,-7,-8,-9,-8,-6
1558435117844575,2,2,9,16,2,3,1,2
1558435117844575,-2,-3,-7,-10,-2,-4,-1,-1
1558435117860549,-1,-2,7,10,2,1,-1,-3
1558435117860549,2,0,1,2,13,11,6,3
1558435117866516,0,-3,-4,-15,-6,-2,-3,-5
1558435117866516,-3,-4,-8,1,-6,-6,4,-1
1558435117874495,0,0,-3,-7,-2,0,-1,-1
1558435117874495,-1,2,1,2,0,-3,-2,0
1558435117883473,1,1,2,7,-2,-8,-6,0
1558435117883473,-1,-2,-2,-1,4,6,4,3
1558435117897626,-1,0,1,-6,-3,-4,-4,-2
1558435117897626,1,0,-4,-5,-3,-1,0,0
1558435117904573,-2,-1,4,8,3,5,2,-1
1558435117904573,3,-1,2,2,-1,-1,-6,1
1558435117920371,-3,-4,-4,1,-4,-4,3,-1
1558435117920371,0,1,-3,-4,-4,-3,-2,0
1558435117926514,2,3,-1,1,8,5,3,4
1558435117926514,-4,0,-1,1,0,2,2,1
1558435117934371,2,-2,0,3,5,3,-1,0
1558435117934371,-1,-2,-1,-2,-3,-2,0,-3
1558435117943313,-1,2,3,7,-1,-2,0,-2
1558435117943313,-2,-1,-2,3,4,4,1,0
1558435117957313,1,2,-1,-7,3,2,4,3
1558435117957313,-1,1,3,2,1,-2,-3,-1
1558435117964254,-2,0,-3,-2,-5,-5,-4,1
1558435117964254,-1,0,0,-5,-6,-7,-4,-1
1558435117980429,-2,-3,-1,9,0,3,2,0
1558435117980429,0,-2,-5,-5,0,5,2,-1
1558435117987197,-2,-4,-3,4,0,-1,0,-3
1558435117987197,0,-1,-2,2,-3,-7,-1,-2
1558435118003153,1,0,-1,-2,1,-1,-5,-1
1558435118003153,-1,-3,-5,1,2,-2,-3,-2
1558435118004149,0,0,7,2,0,1,2,-2
1558435118004149,-4,-5,-12,-16,-5,0,-4,-3
1558435118017113,-1,-1,-2,-4,-4,-7,-4,-2
1558435118017113,0,0,-2,-9,-5,-7,-4,0
1558435118024095,-2,-1,1,6,1,0,-1,-1
1558435118024095,2,3,5,13,11,10,2,3
1558435118040053,-2,-2,-1,1,-4,0,-2,-5
1558435118040053,-3,-3,-4,-4,-10,-12,-4,-4
1558435118047035,-2,-3,-1,-2,-7,-5,0,-1
1558435118047035,0,2,2,2,13,10,3,0
1558435118062991,-2,-2,1,0,-1,-1,-3,-1
1558435118062991,-3,-1,2,4,3,0,-3,1
1558435118064988,-3,-1,-8,-13,-2,-1,-3,-5
1558435118064988,1,-1,1,3,-6,-4,-2,2
1558435118077953,0,-1,-2,4,1,-1,-3,1
1558435118077953,-2,-2,-3,-8,-7,-1,-2,-2
1558435118083935,0,-2,-2,1,1,-6,-5,-5
1558435118083935,-1,-2,2,0,-4,-3,-1,-1
1558435118100003,0,1,1,0,5,6,7,-1
1558435118100003,0,0,2,1,1,2,-2,-1
1558435118106950,-4,-6,-5,-1,-6,-5,-2,-1
1558435118106950,0,1,1,3,5,0,-2,-1
1558435118122834,-1,-3,-8,-7,-10,-6,-5,0
1558435118122834,-3,-2,-5,-19,-2,3,0,1
1558435118124832,-1,1,-2,-1,4,3,-2,-1
1558435118124832,-2,-1,-1,-10,-13,-8,-4,-3
1558435118137790,1,-1,2,3,3,-1,1,1
1558435118137790,-2,-3,-5,-4,1,-1,-1,-1
1558435118144774,1,0,-1,6,-4,-2,-1,1
1558435118144774,-2,-1,0,4,2,3,0,-2
1558435118159734,-3,-2,-2,-2,-3,0,-2,-4
1558435118159734,1,1,6,14,5,6,0,0
1558435118166714,0,0,2,-3,0,-1,6,-2
1558435118166714,-1,-2,-5,-3,3,-1,2,-1
1558435118183670,-3,0,-1,-3,-7,-5,-3,0
1558435118183670,-2,-1,4,6,2,-3,-2,-1
1558435118184665,-2,-1,1,7,5,1,-2,1
1558435118184665,-1,-1,-5,-15,-5,-1,-1,-1
1558435118197630,0,-1,-5,-5,-4,-4,-1,0
1558435118197630,0,1,-2,0,-3,-1,3,0
1558435118204615,-1,0,0,0,0,3,0,-2
1558435118204615,-1,-2,3,2,3,-1,-2,-4
1558435118219581,-1,-2,2,-4,-7,-7,-2,-1
1558435118219581,0,-1,-3,2,3,4,2,2
1558435118226554,3,2,2,3,12,11,2,1
1558435118226554,-2,-3,0,4,-2,0,-3,-2
1558435118243511,-4,-3,0,3,0,-2,-2,-3
1558435118243511,-2,-3,-9,-16,-9,-8,-7,-5
1558435118244506,-2,-2,-5,2,-4,-6,-5,-1
1558435118244506,0,3,3,1,2,2,3,-1
1558435118257471,-1,-1,2,-2,1,-2,-4,-2
1558435118257471,-2,-1,1,9,-4,-4,-1,-2
1558435118264454,-1,-4,-2,1,0,-1,-2,-2
1558435118264454,-1,-2,-7,-20,-4,-7,-3,-4
1558435118280409,-2,0,0,8,-3,-2,0,0
1558435118280409,-1,1,0,-2,4,5,6,-1
1558435118287395,-4,-3,-4,-5,-4,-6,-3,-1
1558435118287395,-1,-1,3,11,-5,-3,-2,2
1558435118303352,-2,-2,-6,-13,-4,1,0,-2
1558435118303352,-4,-6,-5,-7,-1,-5,-8,-1
1558435118304351,2,1,2,1,12,9,5,3
1558435118304351,1,-2,2,8,6,3,2,0
1558435118317318,2,2,4,8,0,1,0,0
1558435118317318,3,3,0,5,7,2,-1,1
1558435118324296,-2,-2,-5,-16,-11,-5,0,-3
1558435118324296,-5,-4,-7,-5,-10,-9,-9,-5
1558435118340252,-1,-3,-4,-2,-1,-3,3,2
1558435118340252,2,0,8,10,1,4,2,1
1558435118347231,1,0,-2,-4,10,3,-3,0
1558435118347231,-1,0,-1,10,3,1,3,1
1558435118363187,-2,-2,-2,-9,2,3,0,1
1558435118363187,-3,-5,-9,-20,-11,-7,4,-4
1558435118364186,-2,2,6,1,-7,-4,-5,0
1558435118364186,-3,-2,-12,-11,-6,-5,-3,-3
1558435118377152,-1,-2,2,4,4,1,0,0
1558435118377152,2,2,4,4,1,1,-3,1
1558435118384135,1,-4,0,10,0,0,-2,0
1558435118384135,0,0,5,-4,-1,-2,-2,1
1558435118400090,-2,-2,-6,-9,0,-2,0,0
1558435118400090,-1,-1,2,5,-2,-1,-2,-3
1558435118407073,0,-2,-5,-4,-2,-2,-2,-1
1558435118407073,-1,-1,4,11,6,3,5,1
1558435118423029,-2,1,1,-7,-3,0,-2,-5
1558435118423029,-2,1,-2,-5,0,0,0,1
1558435118429051,-1,-3,-3,-3,-4,-3,-1,-2
1558435118429051,-1,-2,-1,0,0,-2,-1,-1
1558435118436990,0,-2,-2,2,-1,4,-1,0
1558435118436990,-1,4,6,7,2,-1,0,-1
1558435118445981,-2,-4,-9,-10,-9,-6,-9,-2
1558435118445981,2,0,1,-1,0,0,7,3
1558435118460928,-2,-1,-7,-4,3,1,-3,-1
1558435118460928,-2,0,0,4,0,0,-1,-3
1558435118466913,-2,-2,2,0,-4,-2,1,-1
1558435118466913,-3,-8,-4,0,-4,-2,-4,-3
1558435118482868,0,2,6,8,1,0,-2,-2
1558435118482868,-3,-2,-2,-6,-2,-2,-2,0
1558435118482868,3,3,0,1,0,-2,1,2
1558435118482868,-1,-1,-1,-2,-1,2,-4,0
1558435118504813,0,2,3,4,-2,-1,0,-1
1558435118504813,-2,-2,-3,-2,1,1,0,-1
1558435118505807,-2,-2,1,-1,-2,-1,-1,1
1558435118505807,0,2,-7,-5,-1,0,-2,0
1558435118520774,-4,-2,-5,-8,-4,-3,-2,-1
1558435118520774,1,3,1,-2,-2,-3,-2,1
1558435118526751,-2,-5,-1,-1,-1,1,2,-2
1558435118526751,1,3,-1,4,-1,0,-1,-1
1558435118542709,-1,-4,-2,-1,1,0,0,-4
1558435118542709,-1,0,0,-3,-4,-5,-5,-3
1558435118543711,-3,-2,-2,-3,0,-2,-1,-1
1558435118543711,1,2,3,5,3,4,0,0
1558435118564653,1,5,1,4,5,5,2,0
1558435118564653,-3,-4,-1,4,-1,-4,-2,-1
1558435118565655,-1,-8,4,-1,-4,-3,0,-3
1558435118565655,-4,-5,-8,-11,-7,-7,-5,-3
1558435118580606,-1,-1,-9,-8,-1,-1,-1,-1
1558435118580606,1,-5,-4,-3,5,0,-1,-2
1558435118586597,-4,-1,0,5,-6,-3,-2,-1
1558435118586597,1,1,7,7,3,3,-1,1
1558435118602548,0,1,2,6,7,5,2,1
1558435118602548,-4,-2,-6,-20,-7,-3,-2,-2
1558435118603549,2,4,5,11,-1,-3,-1,0
1558435118603549,-2,-6,-9,-17,-5,2,0,-2
1558435118624491,0,0,5,10,10,5,4,4
1558435118624491,0,0,4,9,0,-2,-2,2
1558435118631474,-3,1,-5,-12,-1,-1,-2,-3
1558435118631474,-2,-2,4,8,-8,-6,-2,-2
1558435118640450,-3,-4,-9,-13,-4,2,0,-2
1558435118640450,1,-1,-2,4,5,3,2,0
1558435118646431,-2,9,3,1,-2,-4,-8,-3
1558435118646431,-3,-1,-2,-4,-5,-11,0,-3
1558435118670371,-2,-9,0,1,-4,0,2,-4
1558435118670371,2,-2,5,7,7,10,5,2
1558435118670371,1,3,6,13,13,11,5,3
1558435118670371,-1,-2,-14,-11,-6,0,-4,-3
1558435118685327,-1,0,2,-18,-16,-15,-8,0
1558435118685327,-2,-3,-20,-15,-9,-5,-4,0
1558435118685327,-2,-2,2,4,-1,5,6,1
1558435118685327,-1,1,6,4,5,6,2,1
1558435118700298,-2,-4,-6,-4,-1,-3,-3,-1
1558435118700298,0,0,5,3,-8,-5,-3,-2
1558435118707271,-2,-3,-9,-5,1,-4,-7,-2
1558435118707271,-2,-1,2,-5,-5,-9,-5,-3
1558435118722229,-1,-1,0,-6,0,1,-2,-2
1558435118722229,3,4,7,2,8,7,7,3
1558435118723225,-2,-4,-3,6,3,-1,-4,-1
1558435118723225,-1,-3,-3,-6,-5,-1,0,-1
1558435118745191,-1,1,6,16,6,-1,-8,-3
1558435118745191,-1,-3,-10,-14,-8,-2,4,-1
1558435118746168,1,3,-4,-8,-4,-5,3,-2
1558435118746168,-5,-11,2,10,4,1,1,1
1558435118761123,0,-2,-7,-15,-1,0,-1,0
1558435118761123,-2,-3,2,6,1,0,-2,-5
1558435118767108,1,0,0,-5,4,0,-1,-1
1558435118767108,2,2,2,0,-3,-4,-5,-3
1558435118782071,-3,2,-7,-10,-5,-2,1,-2
1558435118782071,-3,-5,1,4,-5,-2,0,-4
1558435118789049,-3,-4,-2,-1,-8,-6,-9,-3
1558435118789049,-1,1,3,7,4,2,2,-2
1558435118805006,1,-2,-2,-1,0,-2,3,1
1558435118805006,0,0,-1,-1,9,5,4,3
1558435118806004,-1,-2,-4,-3,-5,-1,-4,-1
1558435118806004,-1,1,2,9,8,3,-2,0
1558435118828946,2,-1,2,8,-2,1,2,-2
1558435118828946,-1,-2,-3,2,5,5,-1,-2
1558435118829940,0,-4,1,-11,-9,-2,1,-2
1558435118829940,-1,-2,-7,-12,-10,-8,-2,-4
1558435118841909,0,3,0,9,5,0,1,1
1558435118841909,-1,0,1,2,3,3,-2,0
1558435118848891,0,-4,-4,-1,0,-3,-3,0
1558435118848891,-2,5,3,2,-4,-2,-1,-1
1558435118864846,-3,-1,-4,-16,-2,0,1,1
1558435118864846,5,3,2,5,2,-1,-1,2
1558435118865844,-3,-7,-2,-2,-5,-3,-3,-1
1558435118865844,-1,-1,-2,-2,-10,-4,-2,-2
1558435118880806,-2,-5,-4,1,1,-1,-11,-4
1558435118880806,-2,0,0,4,-2,-5,1,-2
1558435118886788,4,3,2,-3,9,6,7,3
1558435118886788,2,1,-1,-2,7,5,3,4
1558435118901747,-2,0,-2,2,-10,-4,-2,-3
1558435118901747,-4,-3,-3,-2,-7,-8,-6,-4
1558435118909726,-3,0,-3,-4,-6,-5,1,0
1558435118909726,-2,2,1,3,1,0,-1,-2
1558435118924688,-1,-2,4,4,6,0,-4,-2
1558435118924688,-3,-3,-5,-9,-9,-6,-3,-2
1558435118925684,-3,-2,-3,-2,-3,-1,0,-5
1558435118925684,-1,-1,-3,-8,8,5,7,1
1558435118940643,-1,-1,0,2,-9,-8,-2,-3
1558435118940643,-3,-4,0,2,-2,0,-2,-3
1558435118946627,4,5,5,2,9,7,-2,0
1558435118946627,-1,-5,-2,11,1,-2,-2,1
1558435118961593,-1,-2,-2,-3,-4,-5,-1,0
1558435118961593,1,5,0,2,6,5,2,0
1558435118977571,-4,-4,-4,-7,-11,-6,-6,-3
1558435118977571,0,-1,4,0,-5,-8,-6,-3
1558435118984525,1,5,6,4,2,3,9,8
1558435118984525,-1,-1,-12,-10,6,6,4,3
1558435118985528,0,3,-1,-1,3,3,3,-1
1558435118985528,-3,-6,-6,-4,-3,-2,-1,-4
1558435119000487,1,-2,2,5,-5,-7,-8,-4
1558435119000487,1,-3,2,-1,-6,-2,-4,-2
1558435119006468,-1,-1,-2,1,9,6,2,3
1558435119006468,-1,-1,-1,-2,-4,-4,-1,-6
1558435119021432,-2,-2,-1,-1,-4,-6,0,0
1558435119021432,-2,0,2,6,-3,-4,-4,1
1558435119029422,-2,-4,-6,-14,-2,0,1,0
1558435119029422,0,2,-1,1,4,5,0,1
1558435119045369,-2,2,-1,1,4,4,-2,-3
1558435119045369,-2,-7,-2,-3,-8,-9,-7,-5
1558435119045369,0,-3,0,2,-8,-5,-4,-2
1558435119045369,2,-1,-1,1,9,11,1,3
1558435119060329,3,5,4,8,11,4,4,2
1558435119060329,-1,2,3,-4,-2,-4,-1,0
1558435119066307,-4,-7,-9,-13,-12,-8,0,-3
1558435119066307,-2,-4,-5,-9,-5,-5,-5,-3
1558435119081268,-1,-3,0,5,1,2,1,-3
1558435119081268,0,0,1,5,5,3,-2,0
1558435119089247,-2,6,-1,3,1,-3,-6,-3
1558435119089247,-2,-3,-2,1,0,0,4,2
1558435119105203,0,-4,0,2,-4,1,3,0
1558435119105203,-3,-3,-7,-14,-9,-7,-2,-3
1558435119105203,0,2,3,1,-4,-6,-2,1
1558435119105203,-3,-5,-7,0,-3,-2,-6,-2
1558435119127145,0,-1,-2,0,14,9,7,4
1558435119127145,3,2,5,5,5,6,6,1
1558435119128142,1,2,5,7,1,1,0,0
1558435119128142,-4,5,-3,-9,-8,-5,1,-1
1558435119142105,-6,-12,-4,0,-6,-6,-7,-7
1558435119142105,0,-4,-2,3,-1,-4,-4,-3
1558435119149086,0,-1,-2,-7,3,4,1,0
1558435119149086,1,3,2,6,0,5,0,2
1558435119165043,-2,-3,-8,-15,-12,-7,-9,-4
1558435119165043,-1,-1,0,-2,-1,-3,3,3
1558435119166040,1,-3,2,9,0,-1,4,-2
1558435119166040,0,1,1,-3,1,0,-1,1
1558435119186984,-4,0,-2,-6,-8,-6,-6,-2
1558435119186984,-1,-4,-5,0,-1,-2,-3,-3
1558435119187984,2,1,4,7,6,6,5,1
1558435119187984,0,1,1,-6,2,4,3,0
1558435119201947,2,0,-1,-3,-8,-8,-4,0
1558435119201947,0,-1,2,-2,1,0,0,0
1558435119208926,-7,-4,-4,3,0,-3,-1,-4
1558435119208926,3,-4,-1,1,1,-2,-4,1
1558435119224894,0,1,-3,-2,2,6,3,1
1558435119224894,-3,0,-2,-4,-5,-2,-2,-3
1558435119225880,1,1,0,1,3,2,1,0
1558435119225880,1,-2,5,8,-3,-2,-1,-2
1558435119240841,-2,-4,-8,-15,-4,-5,-1,-2
1558435119240841,2,2,3,6,-1,1,-2,-2
1558435119246882,-1,-4,-9,-9,-1,0,1,-2
1558435119246882,-2,-2,0,-3,-3,-2,-1,-2
1558435119261786,1,1,7,6,0,2,0,-1
1558435119261786,-4,2,-3,-2,-1,-3,-4,-3
1558435119269763,-4,-1,-1,2,-9,-7,-5,-2
1558435119269763,-2,-9,-3,8,0,-5,-2,-2
1558435119284723,1,-1,1,-7,0,3,3,0
1558435119284723,3,-1,3,4,14,4,6,7
1558435119285720,-1,1,-1,-4,-6,4,-1,-1
1558435119285720,0,3,-4,-5,0,-2,2,-1
1558435119300680,-3,-2,3,8,-1,-5,-2,-3
1558435119300680,-3,-2,0,-9,-12,-11,-8,-3
1558435119306664,0,0,4,9,9,3,0,1
1558435119306664,-2,-1,-6,-6,-6,-2,-4,-5
1558435119329603,-2,-4,1,3,9,6,7,2
1558435119329603,-1,0,3,-6,-16,-13,-5,-3
1558435119330600,-4,-1,-11,-10,1,5,-4,-6
1558435119330600,-1,-1,4,3,3,7,4,0
1558435119344627,-1,-6,-6,10,9,10,6,0
1558435119344627,0,1,2,-1,1,5,4,0
1558435119345561,0,1,3,-3,-5,-8,-4,-1
1558435119345561,0,-2,-7,-3,-2,-17,-10,-3
1558435119360529,3,6,0,-3,5,12,8,5
1558435119360529,0,0,4,16,4,6,3,2
1558435119366506,-5,-8,-8,-10,-13,-7,-8,-5
1558435119366506,-3,1,1,-7,-2,4,0,-2
1558435119381471,-1,1,0,3,-2,-6,-8,-3
1558435119381471,-4,-7,-4,-7,-13,-14,-7,-7
1558435119389443,5,4,2,11,14,15,11,8
1558435119389443,2,8,8,-5,7,6,1,4
1558435119404461,-6,-12,-9,-15,-18,-12,-12,-8
1558435119404461,-3,-2,-14,-6,-4,2,5,-1
1558435119405400,-2,-6,-10,1,1,-3,3,-1
1558435119405400,-1,2,11,6,0,3,3,1
