timestamp,emg1,emg2,emg3,emg4,emg5,emg6,emg7,emg8
1558435363734279,-2,-2,-3,-1,-2,-2,-4,-5
1558435363734279,3,2,2,3,4,6,6,3
1558435363735277,-3,0,-1,-1,-1,-5,-5,-3
1558435363735277,-4,-2,-3,-3,-2,0,-4,-2
1558435363738270,0,-2,1,-2,-3,-6,-6,-4
1558435363738270,2,-2,-2,-2,-3,-4,2,3
1558435363740265,2,-1,3,1,3,1,3,1
1558435363740265,-1,-2,-1,-3,-2,-2,-3,-1
1558435363752232,-2,0,-2,-3,-2,-1,-2,-3
1558435363752232,-3,-4,-3,-3,-8,-6,-9,-5
1558435363763202,0,-1,-1,0,1,1,0,3
1558435363763202,-2,-1,-2,0,-1,-1,-1,0
1558435363767191,-3,-2,-2,-3,-5,-2,-3,0
1558435363767191,-2,-2,0,-1,1,2,1,0
1558435363784148,0,-1,-1,1,2,1,1,1
1558435363784148,0,-1,2,1,2,1,2,0
1558435363791128,0,0,-2,2,1,-1,3,1
1558435363791128,-2,0,-1,0,0,-2,-4,-3
1558435363799107,-2,0,-3,-4,-6,-5,-4,-5
1558435363799107,1,0,-5,-2,-2,-2,-1,-1
1558435363812072,1,-2,0,-1,0,0,1,3
1558435363812072,-3,0,0,-2,0,-1,0,-2
1558435363822045,-1,-1,-1,-2,-4,0,-4,-1
1558435363822045,3,0,-1,0,-1,0,-3,-2
1558435363850968,-4,-8,-4,-5,-3,-4,-4,-5
1558435363850968,-1,-2,1,2,2,0,3,4
1558435363858946,-1,-1,-1,3,8,-1,4,3
1558435363858946,2,7,2,2,4,5,1,1
1558435363859944,2,1,-1,1,-3,1,0,1
1558435363859944,0,-7,-2,-3,-3,-2,-7,-8
1558435363860941,-2,-2,-2,-4,-7,-5,-6,-2
1558435363860941,-2,-4,-2,0,-1,-4,0,-1
1558435363871912,1,2,-2,-1,-1,0,0,-1
1558435363871912,-10,-7,-4,-1,-3,-2,0,0
1558435363880888,1,0,-3,-3,-4,0,-1,-1
1558435363880888,-1,1,2,2,5,1,-1,-2
1558435363886872,1,0,-1,-1,1,1,2,1
1558435363886872,-1,-2,1,0,-1,-2,-2,-2
1558435363903827,-3,-3,-2,-4,-2,-3,-4,-3
1558435363903827,-3,-1,-2,-2,-4,2,1,0
1558435363918787,-2,-1,3,3,5,-2,-1,1
1558435363918787,1,4,0,-2,2,1,1,1
1558435363919785,-1,0,-1,2,2,2,3,0
1558435363919785,0,-3,-4,-4,-6,-6,-2,-3
1558435363931753,-5,-3,-5,-2,-4,-2,-3,-1
1558435363931753,1,2,-1,0,0,-4,-1,1
1558435363940729,2,-1,2,-1,1,-4,-3,-1
1558435363940729,-1,2,-1,-2,0,-2,-2,0
1558435363946712,-2,0,2,1,0,-2,-2,-5
1558435363946712,-3,-3,-5,-4,-7,1,0,0
1558435363963666,0,3,1,2,4,3,5,3
1558435363963666,2,0,1,2,4,1,1,2
1558435363969651,-1,-2,1,2,0,2,1,-2
1558435363969651,0,-6,-3,-3,1,0,-2,-3
1558435363978627,-3,-1,-2,-5,-10,-3,-2,-3
1558435363978627,0,-2,-4,-1,-1,-2,-4,-1
1558435363992589,-1,0,0,0,0,-2,0,1
1558435363992589,3,4,-1,1,1,1,-1,-2
1558435364001565,3,-3,-3,-6,-2,-2,-3,-4
1558435364001565,-3,-4,-4,-3,-4,-4,2,-2
1558435364007548,1,-1,-1,0,-3,-5,-7,2
1558435364007548,-2,4,1,3,3,2,-1,-6
1558435364023507,-2,1,2,3,4,4,3,1
1558435364023507,-1,-3,-2,-1,-1,1,-2,-3
1558435364029490,0,-2,-1,-2,-2,0,-2,-4
1558435364029490,-3,-7,1,-2,0,-1,1,5
1558435364046446,-1,-2,0,1,1,-3,-4,-3
1558435364046446,-2,-3,-2,-4,-4,-3,0,-1
1558435364052429,1,1,-2,-3,-3,-4,3,0
1558435364052429,3,2,1,-3,-3,-1,-6,-1
1558435364061406,0,0,-1,2,-4,-2,-2,-5
1558435364061406,5,2,-2,-1,4,2,3,3
1558435364067389,-1,2,0,-2,0,3,3,-1
1558435364067389,-5,-2,-1,2,5,5,2,-1
1558435364083347,-2,-2,1,2,4,-5,-2,4
1558435364083347,0,-2,0,0,-4,0,-2,-2
1558435364089332,4,2,2,6,5,0,6,3
1558435364089332,-2,2,-2,-8,-7,-7,-2,-1
1558435364098306,2,1,2,7,14,11,9,3
1558435364098306,-4,-1,-4,-6,-5,-3,-6,-7
1558435364112270,-1,-3,-3,-6,-7,-3,-5,-2
1558435364112270,2,4,0,2,3,-1,2,-3
1558435364121245,0,-3,-6,-2,-3,-2,-2,-4
1558435364121245,-2,-4,1,0,1,-4,-2,0
1558435364127228,1,0,0,3,1,0,2,-1
1558435364127228,-3,-5,-5,-9,-10,-5,-3,-2
1558435364144189,-3,-3,-3,-3,-2,0,-1,0
1558435364144189,-2,1,0,0,2,2,0,-1
1558435364150168,-4,-4,-4,-3,-3,-5,-5,-4
1558435364150168,0,1,-1,2,-1,0,1,2
1558435364165127,4,4,7,-1,2,1,0,0
1558435364165127,-6,-7,-2,-1,-2,-1,-5,-2
1558435364172108,-4,-2,0,0,0,-1,-1,-2
1558435364172108,2,2,1,3,-2,-3,-3,-2
1558435364181085,-1,1,-3,-4,-5,0,-3,-3
1558435364181085,2,0,0,-1,-3,-3,-1,-2
1558435364187070,-1,-1,0,-1,-1,-5,-1,-2
1558435364187070,2,1,1,0,5,3,3,3
1558435364204047,1,-2,-5,-4,-5,-6,-3,-2
1558435364204047,-8,-11,-3,0,-1,3,-1,-1
1558435364210046,-2,0,-1,0,3,3,1,2
1558435364210046,-4,-4,-4,-2,-5,-5,-4,-8
1558435364224971,0,0,-4,-3,-6,-3,-3,-3
1558435364224971,1,6,6,0,1,2,2,2
1558435364231949,0,-4,-1,-3,1,-3,3,5
1558435364231949,1,0,2,3,3,2,-2,-5
1558435364240925,-4,-6,-2,-1,-4,-1,-4,-5
1558435364240925,1,2,-3,-1,-5,-3,-5,-3
1558435364246909,4,3,-1,-1,5,4,3,1
1558435364246909,-4,-8,1,1,0,1,0,2
1558435364263864,-3,-3,-4,-6,-5,-2,-3,-2
1558435364263864,1,-3,-3,-5,-6,-8,-5,-1
1558435364269848,-4,-3,-3,-3,-4,0,-3,-2
1558435364269848,4,6,0,-2,-1,-6,-1,1
1558435364284807,-7,-4,2,5,7,11,9,2
1558435364284807,-5,-3,0,2,5,1,4,2
1558435364300771,2,1,-1,-4,-4,-1,-6,-3
1558435364300771,-3,-2,-1,-3,-4,-4,-8,-2
1558435364302760,-2,-5,-4,-3,-10,-8,-7,-4
1558435364302760,5,7,0,1,0,-3,0,-1
1558435364306749,0,-1,0,0,2,6,6,1
1558435364306749,5,8,0,2,-1,-4,-3,-1
1558435364323704,-7,-4,0,-1,0,-2,-4,1
1558435364323704,1,-1,-3,-3,-5,-1,-4,-2
1558435364329688,-10,-9,-2,1,-5,-4,-10,-6
1558435364329688,-1,0,-2,-2,1,2,3,1
1558435364344650,7,9,-1,2,3,1,2,2
1558435364344650,1,-2,-2,-1,1,0,2,0
1558435364352627,-5,-9,-6,-2,-2,-3,1,-4
1558435364352627,-3,-3,-3,-1,-2,0,-5,-2
1558435364360605,-3,0,0,-4,-8,-7,-5,-3
1558435364360605,1,-1,-4,-1,1,4,1,0
1558435364367602,4,6,2,1,4,5,2,4
1558435364367602,-3,-4,-3,-2,-4,1,1,-2
1558435364383543,5,3,1,1,-1,-4,-3,-1
1558435364383543,-3,0,1,-1,-2,-1,-1,-2
1558435364389528,1,2,2,-1,-5,-7,-9,-4
1558435364389528,-2,-4,-2,-2,2,2,6,0
1558435364404545,-1,-2,-1,-2,-5,-1,-7,-4
1558435364404545,-2,-1,0,1,4,4,2,-1
1558435364412466,2,-2,2,1,3,2,6,4
1558435364412466,1,1,1,1,2,2,0,2
1558435364429420,2,-1,-2,-1,-1,-4,1,-1
1558435364429420,-8,-8,-5,-1,-3,-4,-5,-5
1558435364430424,-2,-1,-2,-3,-6,-4,-4,-5
1558435364430424,0,-1,0,2,4,-2,-2,0
1558435364443383,2,1,0,-2,5,4,3,3
1558435364443383,6,7,2,1,0,0,-1,-1
1558435364449367,-2,-3,-2,-3,-4,-4,-3,-2
1558435364449367,-9,-6,-1,-2,-5,-2,-1,1
1558435364464328,-3,-3,-2,-1,1,0,2,-1
1558435364464328,0,-2,1,0,-2,-2,-3,0
1558435364472307,1,2,-1,0,1,2,0,0
1558435364472307,4,4,2,-1,-1,-2,-2,-1
1558435364481281,1,0,-1,-2,-4,-4,-3,-2
1558435364481281,3,6,2,2,3,3,3,2
1558435364494246,1,-2,-3,-2,-3,0,0,0
1558435364494246,0,-5,0,-2,-3,-1,-2,-3
1558435364503228,-5,-1,-2,-3,-4,-1,-2,-4
1558435364503228,0,1,-3,-2,-2,-4,-4,-5
1558435364509207,-5,-6,-2,1,-1,-6,-3,-1
1558435364509207,-2,1,-1,2,-1,2,0,1
1558435364525164,0,0,-2,-4,0,3,1,0
1558435364525164,-4,-4,1,-1,-3,-1,-1,-3
1558435364532151,1,1,-2,-1,-1,-1,-2,0
1558435364532151,-1,0,-2,-1,0,-4,-1,-1
1558435364541123,-3,1,1,-1,3,3,2,1
1558435364541123,-1,-2,-1,0,-5,-6,-5,-3
1558435364555086,0,1,-4,-4,-5,-5,-5,-5
1558435364555086,-3,-2,0,0,3,2,6,1
1558435364564063,0,-1,-1,1,3,1,0,-1
1558435364564063,3,1,0,-2,0,4,1,1
1558435364570045,-12,-8,-2,1,3,4,2,0
1558435364570045,3,3,-2,-2,-3,-6,-5,-2
1558435364585004,-2,0,-1,0,-5,-9,-3,0
1558435364585004,-2,-2,-2,-2,-6,-5,-4,-4
1558435364591986,-3,3,3,4,3,-5,2,2
1558435364591986,-1,-7,-3,-5,3,4,-5,-3
1558435364600961,-3,-4,-1,1,-6,-3,-2,-5
1558435364600961,-1,-1,-1,-1,1,1,-4,-2
1558435364614929,4,2,0,-3,-3,1,0,-1
1558435364614929,2,3,3,2,3,0,3,1
1558435364623905,1,-2,0,0,2,2,-1,1
1558435364623905,-3,-4,-6,-3,-4,-3,-1,-3
1558435364629888,3,5,1,-2,-4,-6,-7,-4
1558435364629888,-10,-4,-4,-2,1,1,1,-4
1558435364644852,0,-1,-3,0,-1,0,0,-2
1558435364644852,-3,-3,-2,-2,-6,-5,-4,-1
1558435364651834,2,-2,-1,-2,3,0,1,2
1558435364651834,5,4,2,0,-2,-4,1,2
1558435364661862,0,-1,0,-1,1,0,1,-2
1558435364661862,-6,-5,0,-2,0,0,-1,-1
1558435364674827,2,5,-2,-6,-9,-3,-7,-4
1558435364674827,11,7,1,3,1,-1,-1,3
1558435364683803,-3,-2,-1,0,4,4,3,3
1558435364683803,-2,-3,-1,-2,0,-1,0,-2
1558435364689787,-4,-2,-1,1,-2,-4,-1,-2
1558435364689787,2,0,-3,-4,-6,-5,-6,-4
1558435364704749,4,6,2,2,1,0,-4,-3
1558435364704749,-10,-12,-3,1,4,1,6,3
1558435364711732,3,-2,1,0,1,1,0,1
1558435364711732,-8,-6,-3,-4,-8,-1,-3,-3
1558435364721702,0,-3,-4,-4,-9,-10,-7,-3
1558435364721702,2,4,2,1,-1,1,3,1
1558435364734666,9,6,3,1,2,-1,-2,2
1558435364734666,2,2,-1,-3,-3,-7,2,-1
1558435364743641,-10,-8,-1,3,3,3,1,1
1558435364743641,3,2,-1,-5,1,-1,-3,-1
1558435364749634,-2,-3,-1,-1,-3,-3,-2,-2
1558435364749634,7,5,0,-4,0,9,-1,1
1558435364764591,-3,2,0,0,-3,0,2,1
1558435364764591,3,-3,-5,1,-2,-4,-3,-2
1558435364772569,2,1,-1,-3,2,1,0,-1
1558435364772569,-11,-16,-2,-2,-2,-4,-4,-6
1558435364781544,-6,-7,-5,-5,-5,-7,-4,-4
1558435364781544,8,7,2,-2,0,2,3,1
1558435364794509,-3,3,1,-2,0,4,2,0
1558435364794509,-6,-4,-1,-1,-1,0,0,-2
1558435364803481,6,2,1,0,2,0,-1,1
1558435364803481,15,15,1,3,3,0,-3,0
1558435364809467,-3,-12,-3,1,-1,2,-1,-3
1558435364809467,-3,1,-1,-2,-2,1,2,-1
1558435364824430,-1,-2,-1,-2,-3,-5,-3,-1
1558435364824430,-6,-3,0,0,-2,-2,-1,1
1558435364832409,-6,-1,-3,1,-2,2,-2,-4
1558435364832409,-5,-7,-4,1,4,3,1,0
1558435364848461,0,4,0,-5,-2,-1,2,5
1558435364848461,3,-5,-2,-4,-3,-4,-5,-2
1558435364855346,2,-1,0,0,1,1,-1,-1
1558435364855346,-3,-4,-1,2,-1,-1,-2,-1
1558435364870407,0,2,-1,1,-6,-6,-7,-5
1558435364870407,-3,0,1,-2,3,4,7,3
1558435364871312,3,1,-1,0,2,4,10,8
1558435364871312,1,4,1,-2,-2,-3,-6,1
1558435364885305,0,-1,1,2,1,1,2,-7
1558435364885305,-5,-5,-2,0,-6,-4,-9,-8
1558435364892448,-1,-3,-2,0,-2,-7,-2,-4
1558435364892448,-1,3,1,0,-4,-5,-1,0
1558435364907205,-9,-13,-8,-3,-5,-3,-1,-3
1558435364907205,2,3,3,6,10,3,7,5
1558435364915185,-1,-4,-5,-5,-3,-1,0,-3
1558435364915185,1,1,-2,-3,-2,-3,-1,2
1558435364930145,-2,3,2,-3,-2,-2,-3,-2
1558435364930145,-7,-7,-3,-2,-4,-1,-2,-4
1558435364931144,-1,3,1,4,-3,-5,-3,-2
1558435364931144,1,-4,-1,-3,-1,0,-1,-2
1558435364945103,3,3,1,-1,1,2,1,0
1558435364945103,-1,1,-2,1,-1,2,2,2
1558435364952084,-4,3,1,-4,0,-1,-2,1
1558435364952084,1,0,-3,-1,2,4,0,-3
1558435364969062,3,-1,1,1,-2,-3,-2,1
1558435364969062,0,2,2,-1,0,-2,-1,1
1558435364975021,-4,-5,-3,0,1,5,-1,-7
1558435364975021,-3,-6,-5,-5,-9,-8,-4,-4
1558435364989983,3,0,2,3,8,2,10,6
1558435364989983,-1,-2,-2,1,3,1,-3,-3
1558435364990979,-1,0,-2,-6,-4,4,0,1
1558435364990979,2,3,1,2,1,-1,-2,-3
1558435365004956,-5,-6,0,0,3,4,3,3
1558435365004956,-5,-1,-3,-3,-7,-8,-4,-3
1558435365011951,0,-4,0,2,-1,-4,-5,-2
1558435365011951,-5,-4,-3,-3,-5,2,-1,-3
1558435365026883,-2,2,-3,-2,-5,-4,-8,-5
1558435365026883,2,-2,-3,-4,0,-1,0,-1
1558435365034862,-1,3,3,0,4,-2,2,1
1558435365034862,-1,-3,-1,1,2,1,0,-1
1558435365049821,-4,-7,-2,-1,0,1,-3,-3
1558435365049821,-5,-2,-2,-2,-3,1,1,-1
1558435365050818,0,0,-1,0,-5,-6,-3,1
1558435365050818,6,6,1,0,3,-1,1,2
1558435365064788,-7,-3,-1,0,5,4,0,-2
1558435365064788,0,-2,-1,0,1,1,-3,-3
1558435365072762,2,0,-2,-2,-4,1,0,-2
1558435365072762,0,0,2,-1,1,-2,1,3
1558435365087722,2,0,-2,-2,-7,-5,-4,-1
1558435365087722,-6,-4,-1,-1,-4,-3,-3,-1
1558435365094710,1,0,1,0,3,1,2,2
1558435365094710,0,3,-1,1,0,-2,1,1
1558435365110663,-1,-1,-1,0,-1,-1,-4,-4
1558435365110663,-1,1,0,-3,-2,2,1,0
1558435365110663,-2,-2,0,1,0,-1,0,1
1558435365110663,3,0,-2,-3,-3,-2,-3,-3
1558435365124625,-4,-4,-3,-2,-6,-4,-3,-3
1558435365124625,1,3,2,2,3,2,2,2
1558435365132602,-3,-2,-2,1,1,0,1,-3
1558435365132602,7,10,6,4,3,0,2,3
1558435365147567,1,-5,-5,-2,0,1,0,-1
1558435365147567,-5,-2,0,-1,-5,0,-2,-2
1558435365154546,-4,-3,-2,-6,-4,-3,-2,1
1558435365154546,-1,1,0,1,2,-1,1,-1
1558435365170501,7,5,2,-1,-2,-1,-2,1
1558435365170501,-2,-7,-5,-2,-5,-7,-3,-3
1558435365171499,-4,-3,-3,-3,-1,-2,-4,-4
1558435365171499,-7,-10,-6,-3,-2,0,-1,-1
1558435365184462,4,3,-1,0,2,1,1,-1
1558435365184462,-10,-7,0,-3,-1,1,-2,-2
1558435365192449,2,-2,-1,4,0,-1,1,0
1558435365192449,-1,-1,-4,-2,1,2,1,-2
1558435365207400,2,2,0,-2,-1,0,1,-1
1558435365207400,-4,-6,-1,-1,0,-4,-3,-2
1558435365214386,2,1,1,-1,1,0,-1,0
1558435365214386,-8,-2,-3,0,0,2,-1,0
1558435365230343,0,0,0,-5,-3,-7,-6,-3
1558435365230343,7,-2,-5,-3,-4,-4,-2,-4
1558435365231338,-5,-2,0,1,0,-1,-1,1
1558435365231338,2,-4,-2,2,4,-1,0,1
1558435365245307,-4,0,0,0,2,3,2,-1
1558435365245307,2,1,-1,-3,-3,-4,-3,-1
1558435365252393,-2,-3,-3,-3,-5,-4,-3,-5
1558435365252393,-4,-1,1,-2,-4,-1,-1,-4
1558435365267353,2,-2,-1,3,4,5,4,1
1558435365267353,-7,-3,-1,-2,0,-4,-2,1
1558435365275267,-12,-8,-6,-2,-5,-4,-4,-2
1558435365275267,-4,0,-1,-1,-2,-1,-4,-2
1558435365290196,-4,-2,-1,-3,-2,1,1,-1
1558435365290196,4,4,2,1,3,4,2,3
1558435365291205,3,1,0,2,5,1,5,3
1558435365291205,-2,-1,0,-2,-6,-5,-9,-3
1558435365305207,-1,2,-2,1,-1,0,-1,0
1558435365305207,0,3,-1,-2,-4,-8,0,0
1558435365312303,2,-1,-1,1,7,9,2,-2
1558435365312303,-2,-3,1,-2,-4,0,-3,-4
1558435365327082,-3,-4,-2,-1,-4,-4,-1,0
1558435365327082,2,2,-1,2,-1,2,0,-2
1558435365335070,2,2,-1,-5,-7,-6,-3,-1
1558435365335070,3,-1,-1,-1,4,3,4,0
1558435365351026,-6,-5,-1,-1,2,-1,-2,0
1558435365351026,-2,-2,0,2,-1,-3,-4,-1
1558435365351026,0,2,0,1,4,4,1,0
1558435365351026,2,0,-2,-2,-2,-2,-2,-2
1558435365364981,-1,0,-2,-2,-6,-7,-4,-3
1558435365364981,4,0,0,2,2,1,2,1
1558435365371961,1,0,-2,-4,-6,-5,-4,-1
1558435365371961,-4,1,-5,-4,-4,-1,-3,-3
1558435365387920,-3,-4,-1,0,3,4,1,-3
1558435365387920,-2,-2,1,-1,4,5,3,2
1558435365395102,-2,-6,-2,0,-7,-10,-7,-1
1558435365395102,-1,-1,-3,-2,-6,-2,-2,-2
1558435365410053,0,1,1,2,1,3,2,3
1558435365410053,2,2,2,1,3,3,5,-1
1558435365417837,2,-1,2,1,2,4,3,-1
1558435365417837,-2,0,-1,0,0,-6,-1,1
1558435365426001,-4,-3,-3,-2,-3,-6,-4,-1
1558435365426001,0,0,0,-1,-2,-3,-3,-2
1558435365432906,-4,1,-1,-5,-3,-1,-6,-2
1558435365432906,1,1,1,1,-4,-3,-3,-1
1558435365447902,-2,-8,-9,-2,2,1,2,1
1558435365447902,-1,-4,-3,-3,-2,-1,-5,-2
1558435365455029,-5,-2,-2,-1,-2,-1,2,-2
1558435365455029,-3,-3,0,1,2,2,-1,-1
1558435365469918,2,4,2,-2,-3,-1,-1,0
1558435365469918,-2,-1,-2,-3,-6,-7,-1,1
1558435365477681,4,2,3,1,3,4,6,3
1558435365477681,4,4,0,1,3,-1,-1,1
1558435365486656,-10,-12,-2,0,-3,0,0,-1
1558435365486656,-2,-4,-5,-1,-3,-4,-6,-6
1558435365492684,-3,0,0,-1,-1,3,-1,0
1558435365492684,0,0,0,2,4,-4,4,4
1558435365515794,1,0,-2,-3,-3,-1,-3,-2
1558435365515794,-1,0,-1,-2,-2,3,-4,-2
1558435365516578,2,-3,-4,-1,-3,-5,-4,-2
1558435365516578,-2,-2,3,2,4,3,9,2
1558435365538519,6,6,1,3,2,-3,-1,-2
1558435365538519,-1,-4,-2,1,-1,0,0,-3
1558435365538519,1,-1,-4,-1,-3,-2,-4,-3
1558435365538519,-5,-4,-2,-2,1,3,-1,-3
1558435365546497,0,1,2,0,1,0,0,2
1558435365546497,2,1,3,-2,1,1,1,-4
1558435365560465,-5,0,-2,-1,-4,-3,-4,-1
1558435365560465,0,-1,-2,-5,-4,-5,-5,-4
1558435365567446,-3,1,-1,-1,-5,-5,-1,-1
1558435365567446,2,3,3,2,6,4,2,4
1558435365574425,-2,-4,-3,-3,-4,-3,-2,-3
1558435365574425,-3,-2,-1,-1,-3,-1,0,-1
1558435365589381,2,2,-2,-6,-3,-3,-4,-2
1558435365589381,-1,0,-1,0,5,1,4,5
1558435365597605,-2,-2,-1,0,2,2,0,1
1558435365597605,-1,-2,-1,0,-2,5,-2,-1
1558435365613550,-2,-1,-1,0,-1,-2,-2,-2
1558435365613550,-3,0,-2,-1,-5,-6,-3,-2
1558435365613550,5,2,-1,-3,-2,-5,-2,-1
1558435365613550,-7,-6,-3,-1,-4,-2,-4,-4
1558435365627529,1,-5,-4,-5,-2,1,0,-2
1558435365627529,-10,-9,-3,1,4,2,2,0
1558435365635304,1,2,2,1,0,-3,1,0
1558435365635304,2,1,0,-2,-2,-3,-3,-1
1558435365650544,-2,-2,0,-1,-3,-1,-4,-1
1558435365650544,2,3,0,-1,-6,-7,-5,-1
1558435365657305,-5,-3,-3,0,0,5,3,0
1558435365657305,-1,-2,-1,-1,0,-1,-1,-3
1558435365681314,0,2,1,0,3,1,1,1
1558435365681314,2,-3,-3,-4,-3,-2,-3,-3
1558435365682132,-1,-1,3,3,-1,-5,-4,0
1558435365682132,0,-1,1,0,3,1,2,2
1558435365687346,1,-2,1,1,0,1,0,0
1558435365687346,-3,-1,-3,-1,-5,0,-1,-3
1558435365695319,-4,-1,-3,-5,-9,-6,-7,-7
1558435365695319,-3,-5,-3,-1,-5,-3,0,1
1558435365710285,4,5,3,3,8,4,7,8
1558435365710285,3,1,1,2,-1,-3,1,3
1558435365717240,7,4,0,1,3,5,-1,0
1558435365717240,-14,-14,-6,-4,-9,-5,-7,-7
1558435365733197,-1,-1,0,-3,-7,-6,-4,-3
1558435365733197,0,0,0,0,5,4,1,0
1558435365733996,-1,0,-1,-3,-3,-3,-4,-3
1558435365733996,3,2,-1,-1,1,1,1,1
1558435365747994,2,2,1,5,8,2,6,3
1558435365747994,-1,-3,0,0,-3,-2,-2,-2
1558435365754937,-5,-6,-1,-1,1,-1,-4,-1
1558435365754937,0,-1,1,-3,-2,2,-3,-3
1558435365769904,-5,-1,-2,-3,-4,-4,-3,-3
1558435365769904,-1,-2,-3,-2,1,1,0,-2
1558435365776882,-4,-5,-1,0,-1,-2,-1,-2
1558435365776882,2,1,-4,-6,-9,-11,-7,-1
1558435365792836,5,6,1,1,4,5,6,4
1558435365792836,-5,-5,-3,2,8,8,4,-1
1558435365793832,2,-2,-2,0,0,0,-1,0
1558435365793832,-7,-2,2,1,4,3,2,-1
1558435365806797,0,-3,-2,-2,-5,-3,-6,-6
1558435365806797,-2,-1,-2,-5,-9,-10,-5,-3
1558435365814774,2,1,1,-1,2,1,2,0
1558435365814774,2,1,-1,-2,-3,-8,1,1
1558435365830404,-3,-2,-2,-1,2,2,0,-1
1558435365830404,-1,-2,2,1,0,-1,-1,1
1558435365837461,1,0,0,-2,1,4,2,0
1558435365837461,1,2,0,1,-1,-1,-2,-1
1558435365853396,-5,-5,-2,-1,-4,0,-2,-2
1558435365853396,2,2,-2,0,-4,-5,-3,0
1558435365861071,-8,-3,0,0,-4,-2,1,-1
1558435365861071,5,0,-6,-2,-6,-3,-5,-4
1558435365867421,-3,-4,-3,-5,-7,-7,-7,-5
1558435365867421,2,1,0,3,5,3,3,3
1558435365875372,1,-1,-1,2,7,4,6,2
1558435365875372,0,3,4,1,4,1,4,4
1558435365890006,-2,-3,-2,-2,-2,0,-3,-3
1558435365890006,-2,-1,-4,-5,-8,-6,-6,-4
1558435365897190,-1,-2,-1,-3,-7,-7,-8,-3
1558435365897190,-5,-3,-1,0,-2,1,-1,-2
1558435365912930,2,-1,0,1,-1,-8,-4,-1
1558435365912930,-1,0,-2,-3,3,3,2,1
1558435365913914,1,1,-1,-1,-2,-1,5,3
1558435365913914,7,7,1,0,6,5,1,-2
1558435365927918,-10,-8,0,-1,-1,2,-1,-3
1558435365927918,1,-7,-2,-1,-1,-1,-1,-2
1558435365934860,-6,-7,-4,-3,-4,-4,-4,-3
1558435365934860,2,-1,-3,-2,-3,-2,-1,-2
1558435365950031,4,4,0,1,-2,-2,0,-3
1558435365950031,-2,2,-2,-3,-6,-5,-4,-6
1558435365956959,-3,-3,-1,-3,-5,-1,-4,-2
1558435365956959,-2,0,1,4,9,5,10,6
1558435365972912,5,6,6,2,4,-6,-1,3
1558435365972912,-4,-4,-1,1,4,4,2,1
1558435365973910,-2,-2,-4,-5,-2,-4,-4,-1
1558435365973910,2,0,-3,-1,0,-2,-2,-2
1558435365986896,-3,-3,-2,-4,-4,-1,-2,-1
1558435365986896,-1,-1,-2,-4,-8,-6,-7,-7
1558435365994882,-1,-1,-1,0,-2,-1,-2,-4
1558435365994882,-2,-2,-1,1,3,5,4,1
1558435366009806,1,5,1,3,5,0,6,5
1558435366009806,-3,0,0,-1,-2,-2,-1,-1
1558435366018104,0,0,-1,0,0,2,-2,-3
1558435366018104,-2,-4,1,-3,-3,-4,-4,-2
1558435366033180,-1,-5,-4,-2,-2,0,0,-3
1558435366033180,3,2,0,0,2,3,1,2
1558435366033743,-4,1,2,4,2,1,2,-1
1558435366033743,-2,-6,-1,-2,-6,-8,-6,-5
1558435366048168,-6,-6,-6,-7,-13,-9,-9,-7
1558435366048168,-1,-2,-1,-1,1,-2,1,3
1558435366055127,4,1,3,4,12,10,13,5
1558435366055127,-1,-2,-3,0,5,6,2,-1
1558435366069680,3,3,2,0,0,4,2,3
1558435366069680,-3,-2,-2,-3,-6,-6,-7,-7
1558435366076662,2,-2,-1,-1,-7,-8,-7,-4
1558435366076662,-4,-3,-3,-2,-6,-3,-5,-4
1558435366094581,-2,1,1,-3,0,0,-2,1
1558435366094581,4,5,-1,-2,0,3,2,4
1558435366094581,2,1,2,1,2,-3,1,1
1558435366094581,0,-2,-1,0,-1,-3,2,0
1558435366107544,1,-1,-3,-1,4,3,2,-2
1558435366107544,-4,-4,-1,-2,-1,1,0,-1
1558435366114882,-3,-2,0,-1,-2,3,-1,-3
1558435366114882,-1,2,1,-3,-9,-5,-5,0
1558435366130521,-2,-2,0,2,4,3,2,1
1558435366130521,3,2,1,2,4,0,1,1
1558435366137820,-1,-3,-2,-1,4,4,1,0
1558435366137820,-2,1,-1,-4,-4,-3,-5,-5
1558435366153598,-1,0,-3,-2,-8,-6,-5,-3
1558435366153598,4,3,0,-1,0,-3,-3,0
1558435366153598,-11,-14,-2,0,-1,-8,-5,-4
1558435366153598,1,0,-2,0,3,1,6,3
1558435366167855,-8,-7,-4,-1,-2,1,-1,-5
1558435366167855,0,1,-1,0,-1,-2,-1,-2
1558435366174366,2,4,-1,-3,-3,-3,-3,-2
1558435366174366,0,-3,-4,1,-1,1,-4,-2
1558435366189330,2,0,-1,-2,-2,-1,-2,0
1558435366189330,-3,-1,1,1,3,6,6,2
1558435366197738,-2,1,-2,-4,2,-1,0,4
1558435366197738,-2,-1,0,-1,0,0,0,-1
1558435366221563,1,2,-2,1,-2,-4,-2,-3
1558435366221563,-4,-4,-2,-1,-3,-4,-3,-2
1558435366221563,3,1,-3,-1,-2,0,-1,0
1558435366221563,0,2,2,-1,1,1,1,2
1558435366227529,-3,-4,1,-2,-1,0,0,-2
1558435366227529,-1,-2,-4,-2,-4,-4,-3,-5
1558435366235389,-1,-4,-2,-1,-3,-5,-2,-3
1558435366235389,0,1,-1,1,1,-3,0,2
1558435366250499,1,2,0,-1,0,-1,-2,-2
1558435366250499,-3,-2,-2,-3,-4,-1,-3,-3
1558435366257358,0,1,-1,-4,-5,0,0,-1
1558435366257358,-5,-6,0,0,-1,-1,-2,0
1558435366273103,1,-1,0,3,5,4,9,5
1558435366273103,-3,-2,0,-3,-1,-1,-3,-1
1558435366273103,0,2,-2,-5,-7,-6,-5,-4
1558435366273103,-2,-2,0,-1,-1,0,-4,-4
1558435366287299,-3,-4,-2,-4,-7,-5,-5,-4
1558435366287299,-2,-1,0,0,4,1,1,1
1558435366295089,3,3,1,-2,4,-1,3,1
1558435366295089,-3,-2,-1,-1,0,1,0,-1
1558435366310266,-1,-5,-1,-2,-1,2,-3,-4
1558435366310266,-3,-2,-4,-1,-5,-6,-5,-4
1558435366317983,-2,1,1,2,-2,3,1,-1
1558435366317983,2,-2,-2,-3,-5,-5,-2,2
1558435366332977,-1,3,-1,1,1,1,0,2
1558435366332977,-2,-3,1,0,5,4,4,0
1558435366341125,3,4,1,4,6,4,4,1
1558435366341125,0,-1,1,-1,-2,2,0,0
1558435366347937,-4,-4,-2,-4,-5,-4,-4,-1
1558435366347937,-2,-1,-1,-2,-4,-5,-4,-4
1558435366355126,-1,-2,-2,0,-1,0,1,-1
1558435366355126,2,3,0,1,1,2,1,0
1558435366369844,4,-3,-2,-1,-1,-5,1,0
1558435366369844,-2,-2,-3,0,1,4,0,1
1558435366377857,0,0,-2,-1,-5,-5,-8,-2
1558435366377857,-2,-2,-7,-3,-3,-3,-5,-4
1558435366391814,1,1,1,4,4,6,4,-1
1558435366391814,1,-1,-4,-2,-3,-3,0,0
1558435366401114,-7,-7,-3,0,-3,-5,-3,-2
1558435366401114,2,2,1,1,5,1,3,0
1558435366416071,-1,0,-1,-2,-2,-2,-3,-1
1558435366416071,-2,-3,-2,-1,-1,2,1,-1
1558435366416071,-3,0,0,1,1,0,1,-1
1558435366416071,-3,-3,-5,-3,-5,-7,-3,-5
1558435366429684,-4,-2,-1,-3,-1,-2,-5,-2
1558435366429684,6,4,1,-2,-5,-2,0,1
1558435366437898,-2,-2,1,2,8,11,7,2
1558435366437898,-11,-6,1,3,0,1,-1,-3
1558435366452972,0,0,0,-1,-1,-4,-3,0
1558435366452972,0,-2,1,-1,-1,-5,-2,0
1558435366460943,-1,0,-2,-3,-4,-3,-1,0
1558435366460943,2,0,-1,-2,-2,3,-1,0
1558435366467873,-3,-2,-1,-1,-4,-4,-2,-2
1558435366467873,-3,-2,-3,-3,-3,-1,0,0
1558435366474941,1,1,0,-2,0,-3,0,0
1558435366474941,-1,0,1,1,5,2,3,1
1558435366489525,1,-1,-3,-1,-1,3,-4,-5
1558435366489525,0,-2,1,1,-1,-5,1,0
1558435366497844,2,0,-1,-1,2,1,0,-2
1558435366497844,-1,-1,0,-1,-2,0,-1,1
1558435366512727,-5,-4,-2,0,-1,-3,-2,2
1558435366512727,1,-1,-1,-2,-6,-4,-6,-6
1558435366520661,0,-1,-2,0,-3,-1,1,-1
1558435366520661,4,2,0,-4,-3,-8,-4,-1
1558435366535627,1,3,4,-2,4,10,6,3
1558435366535627,-3,-1,-1,1,2,4,3,0
1558435366536400,-2,-2,-3,-5,-5,-5,-5,-3
1558435366536400,-2,-3,-1,0,-10,-14,-6,-5
1558435366550398,4,4,1,5,4,3,5,2
1558435366550398,-2,0,1,1,5,4,-1,1
1558435366557344,0,0,0,-2,-2,4,-4,-2
1558435366557344,-7,-7,-5,-3,-1,0,-3,-3
1558435366572305,-3,-4,-5,-3,-6,-4,-2,-3
1558435366572305,0,2,-2,-1,-5,-5,-3,-3
1558435366580280,-6,-4,-2,1,0,-7,-3,0
1558435366580280,-1,1,-1,1,4,7,5,1
1558435366595241,0,6,1,-1,0,-1,1,0
1558435366595241,-8,-6,-3,-2,-3,-2,-2,0
1558435366596239,2,-3,1,0,4,4,3,-2
1558435366596239,0,-3,-1,-1,3,5,-1,0
1558435366609204,-1,-3,-4,-6,-6,-6,-6,-4
1558435366609204,-1,1,0,0,-4,-4,-2,0
1558435366617538,-1,0,-1,-3,-4,0,-2,-1
1558435366617538,-3,-3,-2,-3,0,0,-2,-2
1558435366632621,1,2,3,3,11,4,8,5
1558435366632621,-3,-5,-3,-2,-2,1,-3,-1
1558435366641218,3,1,-3,-1,-2,-3,-1,0
1558435366641218,-4,-2,0,1,-5,-5,-3,-2
1558435366655379,-2,-2,-3,-2,-4,-5,-3,-2
1558435366655379,0,0,0,0,3,1,1,-2
1558435366656079,-1,1,1,0,-3,-3,-2,-1
1558435366656079,7,5,-2,-5,-3,-1,0,-2
1558435366670527,-7,-6,-4,-3,-2,0,-1,-2
1558435366670527,0,0,1,1,4,6,1,-1
1558435366677334,-2,0,-2,-1,-4,0,-3,-1
1558435366677334,3,2,1,3,-2,-5,0,2
1558435366692270,-2,0,-1,-1,-4,-6,-3,0
1558435366692270,1,-1,0,3,8,3,8,2
1558435366701170,-4,-7,-4,-4,-8,-4,-9,-5
1558435366701170,-3,-2,-2,-2,-1,3,-1,-3
1558435366716099,4,0,-1,-2,-1,-2,-1,-2
1558435366716099,-2,2,-1,1,-2,1,4,2
1558435366716099,-2,-2,1,2,5,1,3,3
1558435366716099,-2,-1,0,-1,-1,-3,-1,-4
1558435366729886,-2,-6,-1,-2,-2,2,-4,-3
1558435366729886,2,-1,-1,-6,-4,-11,-6,-3
1558435366737897,4,3,2,4,5,-4,6,7
1558435366737897,-11,-8,-4,-3,-4,-1,-5,-3
1558435366752856,-2,-2,-1,0,3,-3,-3,-2
1558435366752856,-3,-2,-4,-2,-4,-1,-9,-5
1558435366761017,-1,1,0,2,6,4,7,4
1558435366761017,4,-1,3,0,0,-4,6,6
1558435366775993,-5,-3,-2,-1,-7,-4,-2,-2
1558435366775993,-7,-11,-4,-2,-2,-6,-5,-4
1558435366775993,7,7,1,1,3,6,0,-2
1558435366775993,-5,-6,-3,1,-5,-4,-4,0
1558435366789723,1,-3,-2,-1,1,0,1,0
1558435366789723,2,0,1,-1,0,4,3,0
1558435366797707,-6,-4,-3,-5,-6,-6,-7,-7
1558435366797707,0,2,0,-2,0,2,1,0
1558435366812909,-2,0,1,1,5,4,1,-1
1558435366812909,4,3,0,-3,-2,1,0,0
1558435366820640,-10,-7,-5,-6,-10,-10,-8,-5
1558435366820640,3,0,0,2,5,-3,5,2
1558435366835869,-3,-2,1,2,2,1,-1,-1
1558435366835869,3,2,-2,-2,1,0,-1,-4
1558435366835869,-1,-2,-3,-1,-3,-2,-1,0
1558435366835869,-1,-2,-3,-2,-2,-2,-6,-3
1558435366849804,-2,-4,-6,-6,-9,-6,-4,0
1558435366849804,0,-1,2,2,2,2,5,1
1558435366857802,2,1,1,2,4,3,-1,1
1558435366857802,-1,1,-1,-3,1,-1,1,-2
1558435366872502,-1,-3,0,-3,-4,-7,-1,-3
1558435366872502,-6,-2,-1,-2,-7,-4,-5,-3
1558435366880715,-4,-3,0,3,8,9,5,2
1558435366880715,6,3,0,1,7,10,1,-1
1558435366895709,-3,-1,-1,-1,-3,1,-2,-2
1558435366895709,-2,-1,-2,-2,-3,-11,-5,0
1558435366896437,0,-3,-2,-4,-10,-12,-7,-6
1558435366896437,0,-2,-1,1,4,2,5,-1
1558435366909641,1,0,-3,1,-5,-1,-2,-1
1558435366909641,-3,-3,-5,-3,-2,4,-2,-4
1558435366917625,2,2,1,0,5,-1,-3,0
1558435366917625,-1,-2,-3,0,-4,-7,-8,-1
1558435366932599,0,1,1,-1,3,3,3,2
1558435366932599,0,-2,1,1,7,6,2,2
1558435366940510,-3,-5,0,-1,-1,3,4,0
1558435366940510,-2,-2,-3,-3,-8,-6,-4,-3
1558435366955279,5,3,1,-2,0,-2,-2,2
1558435366955279,-2,-3,-3,-1,-7,-8,-7,-1
1558435366956277,0,0,-1,-2,-3,-8,-4,1
1558435366956277,-9,-4,-1,-2,1,1,-1,-2
1558435366970333,-2,-2,0,0,-2,-2,1,-1
1558435366970333,-1,1,1,0,3,2,2,-1
1558435366977458,-3,-2,0,-1,3,2,0,-2
1558435366977458,1,1,0,1,0,4,5,3
1558435366992433,-4,0,-2,0,-2,-5,-5,-4
1558435366992433,-3,-3,0,-3,-4,-2,-4,-2
1558435367000157,7,4,-2,0,-6,-1,2,1
1558435367000157,0,2,1,0,0,4,1,0
1558435367015121,-3,-3,-3,-3,-1,3,-1,-2
1558435367015121,4,0,2,3,4,-2,3,4
1558435367016114,-3,0,-2,-3,-2,4,2,2
1558435367016114,1,-2,-2,-2,-4,-7,-3,-2
1558435367030077,0,1,2,3,4,0,0,3
1558435367030077,3,-1,-2,-5,-5,-2,-3,-5
1558435367037511,-5,-4,-1,-2,-2,-7,-5,-3
1558435367037511,-4,-5,-3,1,2,-1,2,-1
1558435367052352,0,2,0,0,2,-2,3,0
1558435367052352,1,0,-3,0,5,7,5,1
1558435367061028,1,1,-1,0,-4,-1,1,-3
1558435367061028,-1,-6,0,-2,-4,1,-3,0
1558435367076018,0,-2,-2,-1,-5,-3,0,-2
1558435367076018,1,1,1,-1,-2,-1,-2,-3
1558435367076018,-9,-11,-5,-6,-6,-5,-8,-9
1558435367076018,1,1,-5,2,0,0,3,1
1558435367089916,6,4,3,4,15,4,4,8
1558435367089916,-2,1,-2,-1,0,0,-2,0
1558435367097997,0,-1,-2,-2,-1,0,0,0
1558435367097997,-2,-4,-1,-4,-6,-6,-6,-3
1558435367111895,-1,-2,0,-2,-2,5,3,-1
1558435367111895,1,0,0,0,-1,-7,1,1
1558435367119872,1,-2,0,-4,-1,-6,-5,-1
1558435367119872,-3,-1,1,-3,-5,-5,-6,-7
1558435367134849,3,-1,-3,-1,-4,0,0,-1
1558435367134849,-2,-3,0,1,3,-2,5,3
1558435367135793,-4,-3,1,0,7,8,6,2
1558435367135793,4,3,-3,-2,3,3,2,3
1558435367149817,-2,-3,0,-1,-2,2,-2,-3
1558435367149817,-3,-5,-3,-3,-4,-1,-3,-4
1558435367156748,1,0,-3,2,-3,-7,-1,1
1558435367156748,-1,0,-2,-1,-2,-1,-2,-1
1558435367171955,-5,-3,-4,-5,-13,-10,-11,-8
1558435367171955,0,3,3,2,0,1,4,5
1558435367181147,2,1,7,4,11,5,7,4
1558435367181147,2,-1,1,-1,6,4,-2,0
1558435367196074,-10,-6,-3,-1,-1,0,-1,-4
1558435367196074,-4,-3,-5,-4,-8,-4,-5,-5
1558435367196074,-1,-2,-3,-3,-8,-1,-3,-2
1558435367196074,2,1,-1,-1,-2,-4,-2,1
1558435367209596,-3,-3,-2,-4,-2,1,-4,-3
1558435367209596,-2,-2,-2,0,-1,-4,-4,-1
1558435367216578,0,1,3,2,6,2,8,4
1558435367216578,1,4,-3,1,-4,-5,0,0
1558435367232534,-7,-6,-1,1,0,-2,-2,-1
1558435367232534,-4,-7,-2,0,-1,0,-6,-6
1558435367239518,1,-1,-2,-2,-4,2,-1,-7
1558435367239518,-4,-3,1,-4,-5,-3,-2,-2
1558435367254934,4,4,-1,-1,-2,-3,-3,-1
1558435367254934,-1,0,-3,-3,-3,0,-3,-3
1558435367262456,0,-2,-3,1,4,5,2,1
1558435367262456,0,1,3,3,4,0,4,5
1558435367269919,-2,-3,1,-1,-2,-5,-3,-2
1558435367269919,4,1,0,-1,1,-1,-3,0
1558435367277746,0,-3,-5,-3,-5,0,-1,-2
1558435367277746,-5,-4,-4,-1,-2,0,-1,-7
1558435367300677,3,2,2,-1,-1,-2,4,2
1558435367300677,-1,-2,-2,-1,-3,1,-3,-3
1558435367301615,-5,-5,-3,-2,-6,-3,-7,-2
1558435367301615,6,6,2,3,1,-6,0,7
1558435367315346,-7,-6,-1,1,4,1,1,1
1558435367315346,-3,-1,-2,-2,-1,1,1,2
1558435367322297,-2,-2,-2,-2,-2,1,0,-1
1558435367322297,-6,-4,-1,-5,-5,-3,-3,-5
1558435367330358,6,4,1,-1,2,1,0,2
1558435367330358,-2,0,2,2,6,1,4,0
1558435367337570,0,0,-3,-3,-4,1,-2,-1
1558435367337570,1,0,3,-1,-3,-6,-2,1
1558435367352547,2,1,-2,-5,-2,-2,-2,-3
1558435367352547,-4,-5,-2,0,2,-3,0,-1
1558435367360449,1,2,1,0,-3,-6,-1,1
1558435367360449,0,1,0,-3,-5,1,-1,-5
1558435367375155,-1,-2,-1,1,0,-4,-4,-1
1558435367375155,7,5,3,1,-1,0,1,5
1558435367383410,-10,-10,-6,-1,1,4,0,-3
1558435367383410,-1,-3,-3,-1,-2,-2,1,2
1558435367390113,3,0,-3,-2,-2,-3,-3,-2
1558435367390113,-1,1,-2,-5,-5,-2,-4,-3
1558435367397098,0,-1,1,1,4,3,0,-1
1558435367397098,-3,-1,-2,-1,-1,1,1,-4
1558435367412056,1,1,0,4,3,2,3,4
1558435367412056,0,0,-2,-1,-4,-3,-1,2
1558435367420500,-4,-4,-3,-4,-5,-6,-5,-2
1558435367420500,-2,-5,0,0,2,5,-4,1
1558435367434995,-3,-1,-3,-5,-6,-7,-3,-5
1558435367434995,-2,-1,0,-1,1,-1,3,-1
1558435367442972,4,6,2,1,1,-2,-2,-2
1558435367442972,1,-1,1,0,5,1,2,0
1558435367458623,3,1,-2,-3,-3,1,3,1
1558435367458623,-8,-8,-2,-2,-3,0,-5,-2
1558435367458623,-1,-1,-4,-4,-5,-8,-4,-1
1558435367458623,-1,-1,-3,0,3,3,0,1
1558435367472143,-1,-1,3,0,-1,1,-1,0
1558435367472143,0,-1,3,-3,-2,0,-2,-4
1558435367480362,0,2,3,1,-2,-10,-2,2
1558435367480362,-3,-2,-2,2,-5,-6,-1,-1
1558435367495115,-1,0,-3,0,1,0,0,0
1558435367495115,0,0,-1,-1,1,1,1,0
1558435367503419,-1,-2,-2,-5,-2,-1,-4,-2
1558435367503419,2,3,2,1,2,5,3,0
1558435367518390,-3,-2,-1,3,2,-3,1,1
1558435367518390,0,-2,-2,-1,-3,-3,-4,-1
1558435367518390,-5,-3,-2,0,-8,-5,-4,-5
1558435367518390,2,1,-1,-2,-4,-3,-2,0
1558435367532571,-4,-2,2,3,7,11,4,1
1558435367532571,0,-1,-1,-1,1,0,1,-2
1558435367539555,-2,0,-1,-3,-1,-3,-3,-3
1558435367539555,0,-3,-4,-1,-5,0,-3,-1
1558435367554955,0,-2,0,-1,-4,-11,-4,2
1558435367554955,3,2,0,1,2,-3,-1,2
1558435367562927,-1,0,0,0,0,7,2,0
1558435367562927,-1,1,0,-1,-1,-5,-4,-3
1558435367578481,-5,-2,-2,-4,-2,5,-2,-2
1558435367578481,-1,-1,-3,-4,-5,-5,-1,-1
1558435367578481,3,-3,-1,-3,1,1,-3,2
1558435367578481,-12,-8,-2,-1,2,-1,-1,-2
1558435367600700,5,2,-3,0,2,4,5,3
1558435367600700,2,4,2,4,3,4,3,1
1558435367601624,-12,-6,-3,0,1,1,2,0
1558435367601624,1,2,-2,-3,-2,2,-4,-3
1558435367614357,-3,-6,-4,-4,-11,-12,-9,-7
1558435367614357,-1,-2,-2,0,-2,-4,0,0
1558435367622336,6,2,4,3,6,7,4,1
1558435367622336,-2,-3,-2,-3,-4,2,-4,-2
1558435367638412,-3,0,-1,-1,0,-4,2,2
1558435367638412,2,0,2,-1,2,-7,-3,2
1558435367638412,2,-1,-1,-1,3,2,1,2
1558435367638412,0,-1,0,-1,-2,-4,-1,-2
1558435367652602,-1,-2,-3,-4,-6,1,-3,-4
1558435367652602,-3,-3,-2,-2,1,5,0,-4
1558435367660506,2,4,2,1,-2,-9,0,-1
1558435367660506,-1,-2,-2,0,3,4,0,2
1558435367675347,-3,-3,-2,-3,-3,3,-4,-1
1558435367675347,-1,1,-3,-2,-10,-6,-8,-5
1558435367683538,-2,2,2,1,3,-7,3,2
1558435367683538,-3,-2,3,3,12,10,5,3
1558435367698494,3,2,-2,1,1,1,-2,1
1558435367698494,-4,-7,-4,-3,-7,-3,-3,-3
1558435367698494,2,-4,-3,-2,-7,-3,-3,-4
1558435367698494,2,-1,0,-1,-2,-6,-1,4
1558435367712227,-1,2,3,-3,0,-2,0,-1
1558435367712227,-4,-2,-2,-2,-5,-3,-4,-4
1558435367720366,-3,-1,-3,-5,-9,-5,-7,-2
1558435367720366,-2,2,2,-2,-3,-2,2,1
1558435367735308,-2,-5,0,-1,0,-2,0,2
1558435367735308,3,2,-1,4,6,7,6,0
1558435367743015,6,5,0,0,7,9,5,1
1558435367743015,-17,-14,-5,-1,2,1,-2,-4
1558435367758276,-3,0,-1,-3,-9,-4,-6,-5
1558435367758276,-1,-2,1,0,1,-2,3,1
1558435367758276,-3,-2,-2,0,-3,-2,-3,-1
1558435367758276,4,3,-2,-3,-6,0,-4,-2
1558435367771937,0,-1,-2,1,3,3,3,0
1558435367771937,-1,-3,-1,-1,-3,-6,0,4
1558435367779946,-1,0,0,-4,-6,-7,-6,-6
1558435367779946,6,6,1,2,6,0,7,6
1558435367794876,1,-2,1,4,4,2,2,3
1558435367794876,0,0,-2,-2,2,1,-4,-3
1558435367802851,-2,-5,-3,-4,-7,-3,-3,-3
1558435367802851,-2,-2,-4,-4,-9,-9,-7,-7
1558435367817812,-2,-1,-1,1,1,0,1,-3
1558435367817812,0,1,1,-2,-1,2,1,1
1558435367818813,-2,0,3,4,6,-1,3,5
1558435367818813,7,5,2,-1,1,3,1,-3
1558435367832110,-16,-11,-4,-3,-5,-5,-2,-5
1558435367832110,-2,-2,-3,-2,-2,-2,-1,-4
1558435367839753,-2,0,-2,-1,-4,1,-3,-4
1558435367839753,0,-2,-2,-1,0,1,-1,0
1558435367855131,3,4,1,-1,-1,0,-1,1
1558435367855131,-2,-3,-3,-2,-5,-1,-3,-1
1558435367862693,-1,-4,0,-3,-2,-2,-1,-1
1558435367862693,0,-1,-3,0,-2,-3,1,-1
1558435367878563,4,3,2,2,8,0,3,4
1558435367878563,-3,0,0,-1,0,-1,-4,-3
1558435367878563,1,-1,-3,-2,2,2,0,0
1558435367878563,0,-1,-4,-3,-2,2,0,-1
1558435367892406,4,2,1,-3,-1,2,-2,-2
1558435367892406,0,-1,-1,-1,-2,-5,-1,-2
1558435367900342,1,-1,-1,0,5,2,0,0
1558435367900342,2,4,4,2,0,-1,5,2
1558435367915349,1,2,1,-1,0,-3,-2,1
1558435367915349,-6,-3,-1,-2,-4,5,1,-2
1558435367922993,-2,-3,-1,-1,-3,-3,-5,-1
1558435367922993,-4,-4,-3,-3,-6,-9,-4,-3
1558435367937954,6,3,-3,-3,1,3,1,0
1558435367937954,-2,-1,1,1,0,-3,-3,-3
1558435367937954,-4,-4,-3,-1,-2,-3,0,-3
1558435367937954,0,-1,-2,-4,0,3,0,-3
1558435367952922,-1,-4,-2,-2,-5,-7,-1,-3
1558435367952922,1,-3,-2,0,-1,0,-1,1
1558435367960222,-1,0,0,1,3,3,2,2
1558435367960222,-2,-2,0,-1,-1,-3,-3,0
1558435367975176,-3,-2,-4,-1,-2,-1,-4,-3
1558435367975176,-2,-1,2,0,7,6,4,2
1558435367983129,-1,2,-2,1,0,-1,-4,1
1558435367983129,5,2,-3,-2,-5,-11,-5,-2
1558435367998075,-16,-11,-1,-1,1,4,1,-3
1558435367998075,2,-3,-1,0,0,0,0,0
1558435367998805,-3,-2,-2,-3,3,3,3,-3
1558435367998805,-3,-2,-2,-2,-4,-1,-4,-5
1558435368013764,5,2,1,2,0,-3,1,4
1558435368013764,-1,1,0,-1,2,-5,0,-2
1558435368019747,-2,-1,0,-1,-3,0,-1,-1
1558435368019747,-2,-5,-1,-3,-5,-5,-8,-7
1558435368034709,3,0,-2,-3,-4,2,1,-4
1558435368034709,0,-1,0,3,1,2,5,4
1558435368043006,-1,-2,-1,-2,-4,-6,-3,2
1558435368043006,-5,-2,-3,0,4,5,4,1
1558435368057981,2,2,0,-1,-3,-5,-4,0
1558435368057981,0,-1,1,-3,-1,2,-1,-2
1558435368058645,-2,-2,1,-2,-4,0,-1,-5
1558435368058645,0,-2,-2,-1,-2,-1,-1,1
1558435368071657,2,3,-2,0,1,-2,-2,-1
1558435368071657,-4,-9,-4,-3,-2,2,-3,-3
1558435368079704,-1,1,0,-3,-5,-3,0,-2
1558435368079704,-6,-2,0,-1,-2,-1,-1,0
1558435368094664,3,2,1,1,2,3,8,5
1558435368094664,1,0,-3,-1,4,-4,-2,0
1558435368103564,-2,-3,-4,1,-3,0,0,0
1558435368103564,-4,-2,0,-3,1,-1,-3,-4
1558435368118621,-2,-3,-1,-1,-7,-2,-8,-3
1558435368118621,-2,1,-2,-3,-2,3,-3,-1
1558435368118621,-1,-5,-1,1,2,-2,-4,-3
1558435368118621,5,5,4,5,7,1,4,6
1558435368132793,-1,0,1,2,3,-2,-1,-3
1558435368132793,-2,-1,1,-4,-6,-1,-1,-3
1558435368140466,4,2,-1,-3,-4,-3,-3,-3
1558435368140466,-9,-7,-3,-2,-4,-1,-3,-5
1558435368154717,-4,-5,-2,-5,-6,-3,-7,-7
1558435368154717,4,1,-2,5,2,-2,0,3
1558435368162364,2,1,3,3,9,5,7,4
1558435368162364,-1,-5,-2,0,5,5,1,0
1558435368177360,-5,-5,-6,-4,0,-3,-2,-1
1558435368177360,-2,2,-1,-3,-6,-1,-1,-2
1558435368178324,-2,2,-2,-1,-7,-4,-6,-3
1558435368178324,1,4,0,-3,-4,-3,-3,0
1558435368192319,2,-1,-2,-3,-4,-9,-4,1
1558435368192319,3,-1,1,2,6,1,0,2
1558435368199265,0,-1,-1,1,2,1,3,1
1558435368199265,-2,-2,-1,-2,3,2,-1,-4
1558435368215572,0,1,0,-1,2,5,2,0
1558435368215572,2,4,1,-4,-4,-4,-7,-5
1558435368230596,-10,-10,-3,0,-2,5,4,-1
1558435368230596,0,-2,-3,-3,-9,-6,-5,-4
1558435368237636,0,-1,1,2,6,3,5,0
1558435368237636,4,5,2,2,5,-1,4,6
1558435368245145,0,-1,-1,-3,1,-1,-3,-1
1558435368245145,-3,-3,-1,-1,-4,-3,0,-1
1558435368252568,-4,-3,-2,-2,-6,-6,-4,-2
1558435368252568,-6,-4,-2,-2,-4,-9,-5,-4
1558435368260549,0,0,1,-1,-1,-3,-3,-3
1558435368260549,-1,-3,-3,-4,-2,0,-1,-4
1558435368275540,1,-2,-3,1,0,0,0,0
1558435368275540,0,-1,1,4,6,3,7,3
1558435368283043,2,2,0,-1,-1,-1,-2,0
1558435368283043,2,2,2,4,6,2,-1,0
1558435368297360,-5,-2,-2,-7,-9,-6,-5,-3
1558435368297360,-2,-4,-6,-6,-14,-12,-8,-6
1558435368305014,2,1,-1,1,2,6,5,0
1558435368305014,-7,-7,-3,-1,-9,-10,-6,-4
1558435368313961,1,4,3,3,7,3,7,3
1558435368313961,-5,-10,-2,-2,4,3,4,4
1558435368320270,1,1,-2,-2,1,-3,-4,-2
1558435368320270,7,4,0,3,7,5,2,2
1558435368335196,-12,-6,-4,-1,-4,1,-2,-5
1558435368335196,-4,-1,-2,0,-3,0,-2,-3
1558435368343145,0,-2,0,0,-3,-3,0,2
1558435368343145,0,0,2,-3,-3,-3,-1,-1
1558435368357070,0,-1,-2,-3,-7,-5,-8,-5
1558435368357070,-4,-2,-4,-3,-6,1,2,-1
1558435368366075,0,0,2,4,10,4,9,6
1558435368366075,0,2,-1,2,6,6,2,2
1558435368371807,3,-1,1,-2,2,0,0,0
1558435368371807,-1,1,1,-2,-2,-1,-4,-4
1558435368380049,-3,-4,-4,-5,-11,-9,-8,-6
1558435368380049,-1,0,0,1,-2,0,3,-2
1558435368395000,-3,-1,-2,-4,-6,-3,-5,-5
1558435368395000,-1,-2,-2,4,1,1,-3,-2
1558435368402986,1,2,0,-1,5,2,6,5
1558435368402986,0,1,0,3,6,8,4,3
1558435368417882,5,4,-1,-3,-4,-3,-6,-1
1558435368417882,-11,-7,-2,-1,-3,-2,0,-2
1558435368425695,-4,-3,-1,1,-4,-5,-5,-1
1558435368425695,-3,-1,-5,-4,-3,-3,-2,-5
1558435368440622,-1,-2,-1,2,-2,-1,-1,-1
1558435368440622,3,1,-1,-1,2,-4,1,2
1558435368440622,-2,-2,-1,1,1,-1,0,-1
1558435368440622,1,1,0,1,0,-2,-1,1
1558435368454849,3,4,2,2,1,1,2,1
1558435368454849,-10,-7,-2,-1,0,-1,-1,-3
1558435368462825,-2,-2,-2,-4,-6,2,-3,-4
1558435368462825,-4,-6,-3,-5,-9,-11,-8,-2
1558435368477523,-1,-1,1,-1,2,-1,5,4
1558435368477523,9,8,0,1,-1,3,1,3
1558435368485750,-11,-4,-4,-3,-5,-5,-4,-5
1558435368485750,-2,-1,-1,0,7,6,2,-3
1558435368500746,-2,-4,-2,1,0,3,2,-1
1558435368500746,1,2,1,0,1,-1,3,1
1558435368500746,0,0,0,-1,-5,-4,-4,-1
1558435368500746,-2,1,0,-2,-8,-7,-5,-1
1558435368514676,-4,-1,-4,-8,-6,0,-5,-4
1558435368514676,2,-4,-2,0,2,-3,0,3
1558435368522405,2,-2,1,-1,0,-4,-1,-3
1558435368522405,1,1,1,-1,2,4,1,4
1558435368537627,-7,-5,0,-2,-1,0,-3,-1
1558435368537627,-1,1,-3,-3,-3,2,-2,-4
1558435368553582,0,-1,-3,-3,-6,-5,-5,-1
1558435368553582,0,-3,-1,-3,-6,-6,-4,-1
1558435368560563,4,1,1,4,9,7,9,5
1558435368560563,-1,0,1,-1,-1,2,1,1
1558435368561301,1,0,-1,0,2,3,-1,-2
1558435368561301,-10,-4,-5,-2,-1,-1,0,-5
1558435368575367,-1,-1,-2,-3,-4,-11,-4,-3
1558435368575367,-5,-3,0,-1,-1,-5,-4,0
1558435368583240,3,2,0,2,0,-3,0,1
1558435368583240,-1,-4,-3,-4,-5,3,-2,-1
1558435368597236,1,-3,-2,0,1,1,-2,-3
1558435368597236,-1,-1,0,-2,-2,-2,-1,-1
1558435368605179,-1,0,2,-1,1,4,1,0
1558435368605179,3,2,2,2,2,-6,1,2
1558435368620167,1,-1,-1,-1,1,0,1,-1
1558435368620167,0,2,-4,-5,-7,-5,-9,-8
1558435368621165,-3,-3,-1,0,-3,0,1,2
1558435368621165,2,-2,1,3,6,3,5,0
1558435368634103,0,-2,1,0,5,5,8,5
1558435368634103,4,1,0,1,6,7,5,0
1558435368643079,-4,0,-2,-3,-2,1,-8,-11
1558435368643079,-1,-1,-2,-1,-7,-6,-3,-2
1558435368657042,0,2,-3,-1,-5,-9,-7,0
1558435368657042,-4,-4,-1,1,3,2,-2,0
1558435368666212,-1,-1,-2,-3,-1,4,3,2
1558435368666212,2,-2,-1,-4,-7,-4,-2,-2
1558435368681162,1,1,0,0,2,2,1,0
1558435368681162,-2,-3,1,-1,-1,-1,-3,0
1558435368681162,0,-1,-3,-1,-3,-6,-4,-1
1558435368681162,-2,-2,-2,-3,1,5,2,0
1558435368695313,2,0,1,0,-4,0,-3,-1
1558435368695313,-7,-7,-4,-1,0,-6,-1,-3
1558435368702920,2,2,-2,-1,3,5,3,1
1558435368702920,1,-2,2,3,2,-3,1,3
1558435368716897,-3,-4,0,-2,0,4,1,1
1558435368716897,0,2,0,0,-4,-1,-6,-5
1558435368724860,-1,1,-2,-1,-1,-8,-4,-2
1558435368724860,-3,-1,-2,-2,-1,-1,0,1
1558435368739823,-2,-1,0,-2,-3,-3,-2,-3
1558435368739823,2,2,-1,-4,-4,-3,-3,0
1558435368740818,0,-4,0,-1,3,2,4,0
1558435368740818,-3,-3,-3,-1,2,2,-2,-1
1558435368754783,-3,-5,-7,-5,-3,-2,-6,-2
1558435368754783,1,3,0,0,0,2,2,0
1558435368762937,-2,2,0,0,2,-4,0,0
1558435368762937,3,-1,0,-3,-2,1,-1,-1
1558435368776980,-5,-4,0,0,1,0,3,0
1558435368776980,-2,-4,-3,1,-3,-1,-2,-3
1558435368785697,-3,-1,-1,-6,-6,-7,-3,-3
1558435368785697,-1,2,0,-1,-2,-5,-3,-2
1558435368800657,1,3,-3,-1,0,-2,-1,1
1558435368800657,0,-2,-1,-3,-4,0,-5,-5
1558435368800657,-3,-2,1,2,-4,1,-3,-2
1558435368800657,1,3,1,2,9,8,7,3
1558435368814650,-1,-2,-1,-1,1,-5,0,-2
1558435368814650,0,0,1,-2,-5,-8,-1,-1
1558435368822602,3,-1,0,-2,0,0,-1,2
1558435368822602,-2,-6,-1,0,-1,2,-1,-2
1558435368837576,-1,-1,-1,0,-1,-1,-4,-2
1558435368837576,-1,-3,1,-2,1,1,2,-1
1558435368845538,-2,-3,-5,-4,-5,-6,-4,-4
1558435368845538,3,3,0,0,-1,-5,-4,0
1558435368860498,0,4,0,-1,2,0,-1,1
1558435368860498,-4,-3,-1,-2,-4,-1,0,1
1558435368861524,-1,-1,0,1,-3,2,-1,-3
1558435368861524,-4,-3,-2,0,4,1,1,1
1558435368874467,-1,-2,-2,0,-3,-2,-5,-4
1558435368874467,0,3,-3,-1,0,-1,-2,-2
1558435368882668,0,1,-1,1,0,-1,2,0
1558435368882668,-3,-3,-1,-2,-5,-6,-2,-2
1558435368897398,-2,-3,-1,-1,-2,-1,0,-3
1558435368897398,1,0,0,1,1,5,4,1
1558435368905377,0,-2,2,2,8,7,2,2
1558435368905377,-2,1,-2,-4,-9,-8,-6,-5
1558435368920348,-3,-3,-1,-3,-2,-2,-1,-3
1558435368920348,2,-2,-3,-3,-5,0,-1,-3
1558435368921338,-6,-3,1,1,0,-1,1,0
1558435368921338,2,2,-4,-1,0,0,-2,-1
1558435368934730,-7,-7,-1,-2,-4,0,0,-1
1558435368934730,1,0,0,1,8,3,0,3
1558435368942280,-2,-1,-4,-3,-4,-2,-2,-2
1558435368942280,0,-3,-3,-4,-4,-3,0,-1
1558435368957240,-2,1,-4,0,-4,-5,-3,-5
1558435368957240,1,0,-2,1,-1,-4,-2,-1
1558435368965276,-1,-2,1,-1,2,4,3,1
1558435368965276,-6,-4,-5,-4,-6,-2,-2,-4
1558435368980453,3,3,-1,-1,-3,-5,-4,-2
1558435368980453,-1,1,1,1,6,1,2,2
1558435368981175,2,2,0,1,4,8,-1,-1
1558435368981175,2,0,0,1,-2,-5,1,2
1558435368996134,5,7,3,5,11,7,10,6
1558435368996134,-9,-9,-6,-3,-9,-3,-4,-5
1558435369003115,-2,-3,-3,-4,-8,-9,-3,-3
1558435369003115,-4,-1,1,-2,-4,-1,-1,-3
1558435369017287,0,0,-1,-2,1,0,-2,1
1558435369017287,2,4,4,2,8,3,-2,0
1558435369025059,-3,-2,-5,-5,-8,-1,-7,-9
1558435369025059,-1,-1,3,1,-2,-6,-2,2
1558435369040019,-1,-1,-2,1,4,2,2,-1
1558435369040019,1,1,0,1,2,3,4,2
1558435369041017,-3,-1,-5,-4,-5,-6,-5,-3
1558435369041017,-2,-3,-3,-2,0,1,2,0
1558435369063248,-1,1,0,0,1,0,-1,0
1558435369063248,4,3,-3,-4,-2,-5,-5,-1
1558435369063954,-6,-5,-4,3,7,-2,1,2
1558435369063954,2,-1,-2,-3,-6,-4,-3,0
1558435369076935,0,-3,-1,0,-1,3,0,-1
1558435369076935,-1,0,-3,-5,-6,-9,-2,-3
1558435369084912,1,-3,-1,0,3,3,1,-1
1558435369084912,-1,2,3,1,8,6,-1,0
1558435369099857,-7,-6,-1,-4,-9,0,-3,-4
1558435369099857,-1,3,0,0,-7,-9,-3,-1
1558435369100855,3,1,5,7,8,7,13,6
1558435369100855,-2,-6,-7,-6,2,1,-1,-5
1558435369114818,4,4,1,-1,-2,1,-4,-5
1558435369114818,-4,-4,-3,0,0,1,-3,-2
1558435369121798,-2,-1,0,-1,-5,-8,-5,-1
1558435369121798,1,-2,-8,-1,3,1,0,1
1558435369137760,0,4,7,0,1,-2,1,3
1558435369137760,-5,-6,-4,-6,-9,-9,-9,-5
1558435369144739,-2,-1,-2,-1,-4,-2,-1,-2
1558435369144739,6,11,11,8,15,13,13,7
1558435369159698,-4,-6,-9,-6,-7,-4,-3,-3
1558435369159698,0,0,7,2,3,-5,-3,2
1558435369167899,0,2,1,-4,-9,-4,-4,-4
1558435369167899,-1,3,3,4,6,2,5,4
1558435369174658,-3,-4,-4,-1,0,1,3,-2
1558435369174658,-2,-1,2,1,1,5,1,-2
1558435369181859,-1,-3,-10,-5,-7,-9,-9,-5
1558435369181859,-1,-6,-3,1,-7,-5,-5,-5
1558435369196600,-4,-1,1,-2,-2,-1,1,0
1558435369196600,0,2,2,1,0,5,0,-3
1558435369205580,2,0,1,0,4,-3,0,3
1558435369205580,-4,2,-1,0,-4,-2,-5,-3
1558435369219537,3,-5,-10,-1,-1,-7,-3,2
1558435369219537,-10,-5,-3,-3,-6,3,1,-3
1558435369227518,-6,-5,-5,-6,-4,-1,-1,-2
1558435369227518,2,7,13,5,-6,-14,-6,-1
1558435369234498,1,-1,-3,-2,0,-1,-4,0
1558435369234498,0,-3,-7,-2,2,2,2,0
1558435369242477,3,5,5,4,7,9,5,3
1558435369242477,-4,-4,2,-6,-9,-6,-8,-7
1558435369257440,-5,-4,-7,-1,-2,-3,-1,-1
1558435369257440,0,0,2,0,-2,-3,-1,-1
1558435369265415,-7,-9,-14,-2,0,3,3,-1
1558435369265415,8,6,8,1,8,10,7,3
1558435369279380,2,3,7,2,1,1,2,1
1558435369279380,5,0,-7,-2,-3,-4,-5,-4
1558435369287372,-13,-9,4,-2,-6,-2,1,-2
1558435369287372,-1,2,-4,2,3,0,1,1
1558435369294340,-2,-1,-6,3,6,4,2,4
1558435369294340,-1,-7,-6,-3,-4,-4,-2,-1
1558435369302317,3,4,1,0,-4,-5,-3,0
1558435369302317,-7,-9,-5,-5,-4,0,-1,-3
1558435369317276,-2,-3,4,-3,-3,0,-1,-2
1558435369317276,1,0,3,2,3,-3,-2,0
1558435369325257,3,5,3,3,1,0,1,1
1558435369325257,-2,-4,-7,-3,-2,-1,-4,-4
1558435369339219,2,1,5,-5,-6,-7,-4,-4
1558435369339219,-1,0,-3,0,2,0,3,1
1558435369348193,0,-2,-2,-4,0,-1,-3,-3
1558435369348193,-2,-4,-7,-4,-8,-3,-5,-2
1558435369363152,-1,0,1,3,1,0,-1,-4
1558435369363152,-3,-2,1,0,3,3,4,1
1558435369363152,4,2,-2,2,-1,0,-2,0
1558435369363152,-2,0,1,0,-6,-3,1,-2
1558435369377116,-4,-7,-5,-2,5,-1,-2,-1
1558435369377116,4,1,2,-4,-6,-6,0,-1
1558435369385100,6,7,4,4,1,-1,-1,0
1558435369385100,-17,-14,-10,-3,-1,1,-1,-5
1558435369400091,-2,0,-3,-3,-6,-5,-2,-4
1558435369400091,-1,0,2,0,3,6,4,1
1558435369408033,4,6,3,-1,-3,-2,0,1
1558435369408033,0,-1,-2,2,-1,0,-2,0
1558435369422994,-2,3,7,3,3,-1,-1,1
1558435369422994,-5,-8,-10,-3,-2,-1,-1,2
1558435369422994,1,4,-2,-1,0,0,0,0
1558435369422994,1,-4,-4,-6,-6,-7,-7,-2
1558435369445934,0,-2,-1,2,-4,1,-2,-2
1558435369445934,3,5,4,1,1,3,3,1
1558435369446935,-5,-3,3,-1,0,-1,-1,-2
1558435369446935,-1,-1,0,0,0,-3,-1,-1
1558435369459894,0,1,-1,-2,-3,-4,-3,-1
1558435369459894,0,3,4,4,2,1,3,2
1558435369468073,-1,-5,-4,-2,-2,1,-1,-2
1558435369468073,4,3,-1,-1,-1,2,0,2
1558435369482833,3,0,3,1,-1,0,0,-2
1558435369482833,-10,-8,-8,-3,-2,-3,-3,-6
1558435369483831,-3,-3,-1,-2,0,-5,-1,-1
1558435369483831,0,-1,0,-3,-2,-2,0,-3
1558435369497028,2,2,-1,-1,-3,0,-4,-2
1558435369497028,-3,-7,-3,-1,-1,-1,-3,-2
1558435369504790,1,4,4,3,2,1,1,3
1558435369504790,1,-2,-2,-4,-1,0,-1,2
1558435369519739,-5,-5,-5,-3,0,1,0,-1
1558435369519739,-1,0,1,-1,-1,-1,-2,0
1558435369527715,-4,-2,1,2,-4,-3,-2,-3
1558435369527715,-1,-2,-2,-9,-3,-1,-1,-1
1558435369542675,3,10,8,5,2,1,2,0
1558435369542675,-4,-10,-9,-4,-2,-1,-3,-4
1558435369543671,0,-4,-4,1,-1,2,-1,1
1558435369543671,-1,-1,0,0,-1,2,-4,-3
1558435369556635,-4,0,2,1,-2,-1,2,0
1558435369556635,5,7,3,0,3,1,0,4
1558435369565613,-13,-10,-6,0,-3,0,-1,-3
1558435369565613,-2,-3,-5,-3,3,-1,1,2
1558435369579607,-1,-6,-6,-1,-2,-1,-3,0
1558435369579607,3,0,3,-1,-5,-2,-3,-3
1558435369587554,-10,-10,-14,-4,-2,-4,-4,-4
1558435369587554,1,1,0,0,1,2,0,1
1558435369602738,-1,-4,-3,-2,0,1,0,0
1558435369602738,4,11,9,5,-3,-5,-2,-1
1558435369603516,8,7,8,-1,9,5,3,4
1558435369603516,-2,-4,-6,-2,-2,-3,-1,-3
1558435369617473,-1,-6,-9,-3,0,0,1,1
1558435369617473,-2,-1,-4,-6,-3,-2,-2,-3
1558435369625487,-3,-8,-5,-4,-5,-2,-1,0
1558435369625487,-3,5,8,4,-1,0,0,-1
1558435369639416,-1,-2,0,-1,-2,-3,-2,-1
1558435369639416,0,-2,-4,-4,-1,0,-1,-3
1558435369647623,3,3,3,-1,1,0,1,-1
1558435369647623,1,-1,-5,0,2,1,1,0
1558435369662353,1,3,4,1,-1,-1,-1,-1
1558435369662353,-9,-9,-7,-3,-1,-2,-2,-2
1558435369663351,5,2,-1,-3,0,0,-2,2
1558435369663351,-3,1,-2,1,-4,-1,-1,-2
1558435369677314,-4,-3,-1,0,0,0,-2,-1
1558435369677314,0,-5,-4,-1,-1,-1,0,3
1558435369685291,-1,2,2,-3,-3,-2,-1,-1
1558435369685291,0,1,-1,-2,-2,-3,-3,-1
1558435369699254,0,-5,-5,-2,2,2,0,-2
1558435369699254,0,-1,2,-2,0,4,2,0
1558435369707417,3,0,-4,1,-3,-2,-2,-1
1558435369707417,-5,-8,-10,-5,-4,-3,-1,0
1558435369723190,-2,0,-1,-3,-2,-1,-1,0
1558435369723190,-4,-2,-2,0,0,0,0,-1
1558435369723190,-1,1,1,-1,-2,-4,-3,-1
1558435369723190,-2,0,2,0,-1,-2,-1,-2
1558435369737154,-2,-5,-1,-1,-1,0,0,-1
1558435369737154,0,1,1,1,0,-2,-1,-2
1558435369745130,1,-1,0,-2,-1,-2,-2,-1
1558435369745130,2,0,1,0,2,2,2,2
1558435369759100,-9,-3,-4,-1,-5,-4,-4,-4
1558435369759100,0,-4,-8,-3,-1,-2,0,-2
1558435369768070,-13,-7,1,0,1,0,-1,-3
1558435369768070,2,3,4,2,2,-1,0,1
1558435369783030,1,-2,-3,-3,0,0,0,2
1558435369783030,-2,1,-1,0,0,-2,-2,0
1558435369783030,-1,1,-2,-1,-1,1,0,-3
1558435369783030,0,-1,-1,0,0,0,-1,-1
1558435369796993,3,4,3,1,1,-2,0,-2
1558435369796993,0,5,7,2,0,-1,-1,1
1558435369804973,-1,-2,-3,0,-3,-1,0,1
1558435369804973,-3,-8,-7,-5,-4,-3,-3,-5
1558435369820087,1,0,3,-1,1,0,2,-1
1558435369820087,1,4,4,2,-1,-2,-2,0
1558435369827910,1,2,2,-2,1,-1,-2,-1
1558435369827910,-2,-5,-6,-1,0,-1,-4,-4
1558435369842870,0,0,-1,-1,-4,-1,-3,1
1558435369842870,-3,-3,-4,-1,-1,-1,2,1
1558435369843916,3,1,0,2,-3,-2,-2,-1
1558435369843916,3,6,6,2,0,3,0,1
1558435369856844,3,-3,-8,-7,-4,-4,0,1
1558435369856844,-13,-5,1,-2,-2,-2,-2,-3
1558435369864815,1,-2,-3,0,3,-1,1,0
1558435369864815,0,-1,-4,-3,-2,-1,-2,-2
1558435369879772,-2,3,3,2,0,1,0,-1
1558435369879772,1,-3,3,0,-4,-1,0,1
1558435369887886,-3,-4,-3,-2,-2,-2,-3,-4
1558435369887886,-6,-7,-4,-2,1,0,0,-2
1558435369902711,3,8,13,7,2,3,2,1
1558435369902711,1,-2,-6,-3,0,-2,-2,-1
1558435369903707,0,-1,0,-7,-6,-2,-1,1
1558435369903707,-1,-5,-3,-1,-3,-4,-2,-2
1558435369917672,-3,-2,-4,-1,1,-1,-2,-2
1558435369917672,1,0,1,-3,-4,2,-1,-1
1558435369925800,-2,-4,-4,0,0,-2,-1,-2
1558435369925800,-5,1,1,-1,-2,-2,1,1
1558435369939625,-2,-5,-7,-5,0,-2,-2,-3
1558435369939625,4,2,1,0,1,0,1,0
1558435369947820,2,2,-1,-2,-3,-2,-2,0
1558435369947820,0,-2,6,0,1,-1,-2,-2
1558435369962550,-13,-11,-9,-4,1,-3,-3,-6
1558435369962550,-3,-3,-7,-3,0,0,-2,-1
1558435369963547,-2,1,-1,1,-1,0,-1,0
1558435369963547,0,-2,4,4,-1,1,0,1
1558435369977671,0,1,-3,3,-2,-2,-1,0
1558435369977671,-5,-10,-12,-7,-2,0,-3,-3
1558435369985726,2,3,-2,-2,-1,0,2,-1
1558435369985726,1,6,7,3,0,-2,0,3
1558435369999452,1,-1,0,-3,-3,-2,-1,-2
1558435369999452,1,2,4,1,-1,-1,-2,-2
1558435370007633,3,4,8,6,4,1,2,1
1558435370007633,-1,-4,-14,-8,-3,-1,-4,-1
1558435370022394,-1,-4,-4,-3,-2,-1,-1,-3
1558435370022394,-1,0,-1,-1,-1,-3,0,0
1558435370023387,0,-2,-2,-3,-2,0,0,0
1558435370023387,-3,2,0,2,-1,-2,-3,-2
1558435370037350,0,-2,-2,-1,-3,-1,-2,1
1558435370037350,4,2,2,2,0,0,-2,-2
1558435370045329,0,-4,1,4,1,-1,-2,1
1558435370045329,3,-2,-6,-9,-2,0,0,-2
1558435370059291,-1,1,1,0,1,0,0,0
1558435370059291,-2,-3,10,4,1,1,0,2
1558435370068311,-6,-2,-2,-3,-4,-2,0,-2
1558435370068311,1,-1,1,2,-1,0,2,0
