timestamp,emg1,emg2,emg3,emg4,emg5,emg6,emg7,emg8
1558435378333542,-1,-5,-1,-1,-7,-9,-8,-3
1558435378333542,-13,-13,-5,-5,-7,-7,-4,-2
1558435378334539,-4,-2,-5,-5,-6,-4,-4,-4
1558435378334539,1,1,2,3,3,0,-1,1
1558435378335538,2,1,0,0,4,1,3,0
1558435378335538,4,2,2,3,7,7,1,0
1558435378336535,-1,-1,-2,-2,-2,0,-2,1
1558435378336535,-4,-7,-6,-4,-5,-2,-4,-3
1558435378346510,-3,-1,-2,-4,-7,-1,-4,-4
1558435378346510,0,-2,0,0,-4,-6,-2,0
1558435378355485,-1,3,2,2,5,-2,2,4
1558435378355485,0,2,-1,-2,1,2,3,-1
1558435378363463,2,0,-2,-3,-2,0,-2,1
1558435378363463,-9,-5,-3,-3,-2,1,0,-5
1558435378377426,1,-1,1,0,1,-2,-1,0
1558435378377426,-1,2,2,0,-3,-5,-3,-1
1558435378385404,-1,-3,-3,-3,-3,-3,-3,-1
1558435378385404,-5,-5,-1,2,5,5,1,2
1558435378392385,1,0,0,0,2,2,1,-3
1558435378392385,-3,-4,-3,0,-4,-3,-4,-3
1558435378407345,-1,-1,0,0,-2,0,1,-1
1558435378407345,4,4,0,0,1,-3,-3,-2
1558435378415324,-3,-2,-2,-2,-1,-2,1,1
1558435378415324,-2,-2,-2,1,1,-1,2,-1
1558435378455217,1,1,0,-3,-1,-2,-3,-3
1558435378455217,1,-2,-1,-3,-4,-1,-2,-1
1558435378456214,-3,0,0,-1,-5,-2,-3,-3
1558435378456214,0,0,1,0,1,-2,-2,0
1558435378456214,-1,0,-3,1,3,4,0,1
1558435378456214,2,2,-3,-4,-1,-4,1,4
1558435378460204,-2,-4,-3,-2,0,0,1,-1
1558435378460204,1,0,-1,-3,0,1,-1,0
1558435378467185,-2,0,1,0,-3,-5,-3,-2
1558435378467185,-5,-2,-4,-2,-6,-2,-2,-3
1558435378474166,1,4,0,0,3,2,0,-2
1558435378474166,-1,-3,-1,2,-2,1,0,-5
1558435378483143,-2,-3,0,-2,-3,-1,-2,0
1558435378483143,2,0,1,2,2,-2,0,0
1558435378497106,-1,-1,2,-3,-5,-3,-2,-1
1558435378497106,-1,1,-3,-1,-4,-1,-1,-4
1558435378504087,1,0,-3,-1,0,0,1,1
1558435378504087,-1,0,-1,-2,-3,-2,-2,-1
1558435378512065,-2,-6,-4,-5,-2,-3,-2,-2
1558435378512065,2,0,-1,0,1,2,1,1
1558435378527028,1,1,1,0,-1,-4,-2,-3
1558435378527028,-2,-1,3,0,2,2,1,0
1558435378534005,-3,-1,-3,1,2,1,-3,-3
1558435378534005,-2,-1,-1,-1,-8,-8,-7,-3
1558435378542982,2,-1,-2,-2,-1,2,4,3
1558435378542982,4,6,2,5,4,8,3,-2
1558435378556945,-5,-8,-2,0,-1,2,3,1
1558435378556945,0,-2,-1,-3,-7,-8,-4,-1
1558435378563926,-2,-2,0,-1,-1,-2,0,1
1558435378563926,-5,-3,-2,-3,-3,-4,-6,-2
1558435378571905,1,2,1,-2,-3,0,1,-2
1558435378571905,-2,0,-1,0,1,-3,0,-1
1558435378586866,-4,-4,-5,-7,-8,-6,-4,-1
1558435378586866,-3,-2,-2,-3,-5,-6,-3,-2
1558435378593848,4,1,1,2,2,5,1,1
1558435378593848,-9,-7,-1,2,9,7,2,-1
1558435378602823,0,2,1,-1,-3,-5,-4,-3
1558435378602823,2,0,-1,-2,-1,-3,-3,-2
1558435378617784,-5,-6,0,0,-1,-2,1,-1
1558435378617784,5,1,0,-2,2,3,5,3
1558435378623819,-2,-1,-1,1,2,2,-5,-6
1558435378623819,-3,-8,-1,-1,-5,1,1,0
1558435378631772,3,6,1,-1,1,-4,-4,-1
1558435378631772,-1,-1,-2,-2,-3,-3,-1,1
1558435378646705,-2,-5,-4,-2,-2,-3,-1,-3
1558435378646705,1,-3,1,-1,-1,-3,-4,7
1558435378653686,3,-1,-2,-1,2,2,2,-1
1558435378653686,-10,-6,-4,-1,1,2,0,-3
1558435378662665,0,6,1,3,1,0,0,0
1558435378662665,-4,-4,-2,0,-2,-1,-1,-5
1558435378677624,5,6,0,-2,-5,-10,-4,-2
1558435378677624,-8,-6,0,-1,-1,0,-2,-3
1558435378684606,-2,-3,-1,-2,1,0,2,-2
1558435378684606,0,-1,-1,-2,0,0,1,-5
1558435378691588,-1,0,0,0,1,3,-1,1
1558435378691588,5,4,-3,-4,-4,-6,-3,-2
1558435378706545,-1,0,1,1,-1,-2,-2,0
1558435378706545,-2,2,1,0,-1,-1,1,1
1558435378714526,0,3,-2,-1,1,0,-2,0
1558435378714526,1,-1,2,1,-1,3,1,-1
1558435378723500,2,-2,-1,1,3,5,2,2
1558435378723500,-7,-6,-2,-1,0,0,-4,-5
1558435378737462,-4,-5,-5,-4,-9,-5,-6,-4
1558435378737462,0,0,-1,1,-1,-1,3,0
1558435378744444,3,2,1,0,0,4,4,2
1558435378744444,3,1,-1,0,-3,-3,-4,-4
1558435378751425,-2,0,-1,-1,-1,-2,0,2
1558435378751425,-2,-1,0,-4,-1,-6,-5,-3
1558435378766386,-2,-3,1,0,1,0,-1,-2
1558435378766386,-1,0,-2,-2,5,3,3,1
1558435378774363,-3,-2,1,0,-2,-1,2,-2
1558435378774363,7,4,1,-1,-1,3,2,1
1558435378783341,-4,-2,-3,-2,-5,-5,-3,-2
1558435378783341,-1,0,-1,-1,-3,-5,-3,-1
1558435378797303,-2,0,-2,-4,-1,-5,-3,0
1558435378797303,-1,-2,-2,1,-3,1,-2,-2
1558435378804284,3,1,-1,1,5,4,4,-1
1558435378804284,-4,-10,-5,-2,-2,6,2,-2
1558435378811267,-1,0,0,1,3,-2,-3,-2
1558435378811267,-2,-1,-2,-2,0,-2,-3,-1
1558435378835201,6,6,0,-2,-4,-6,-3,-1
1558435378835201,-5,-2,-1,-2,-3,-5,-4,-2
1558435378835201,-1,-2,1,0,4,5,2,1
1558435378835201,2,1,0,-1,-1,-1,-2,0
1558435378843180,-4,-4,-4,-1,-8,-7,-3,-3
1558435378843180,1,3,1,2,4,2,3,1
1558435378857141,-1,-2,-3,0,-4,-1,-1,-3
1558435378857141,1,0,0,1,8,5,4,3
1558435378864125,-2,-2,-1,1,2,-3,-2,-2
1558435378864125,0,1,-5,-2,-4,0,-2,-2
1558435378880081,3,0,-1,-3,-6,-6,-5,-4
1558435378880081,-12,-7,-2,-1,-4,-1,-1,0
1558435378887062,-1,0,1,2,7,3,3,3
1558435378887062,2,0,1,-1,4,-1,1,-1
1558435378894042,2,2,0,2,-4,2,-3,0
1558435378894042,4,5,1,-2,-5,-4,-3,-2
1558435378903019,-9,-11,-4,-5,-8,-2,-7,-5
1558435378903019,2,2,3,-1,4,0,1,5
1558435378916982,-2,-3,0,0,1,1,1,1
1558435378916982,0,0,-2,-3,-5,-2,-2,-3
1558435378923963,-1,0,-2,-3,-2,1,-3,-4
1558435378923963,2,4,4,4,7,7,3,1
1558435378939922,-3,-3,-3,0,-1,-3,2,0
1558435378939922,-2,-2,-2,-4,-5,-5,-4,-3
1558435378946903,1,-1,-1,-3,-4,-1,-2,0
1558435378946903,-2,-3,-2,-2,-3,-3,-4,-2
1558435378953884,1,3,2,1,1,1,0,0
1558435378953884,-9,-7,-3,-3,-2,-6,-2,-5
1558435378962859,-2,0,-2,-5,-4,-3,-1,-1
1558435378962859,2,2,4,1,2,2,0,3
1558435378977820,-2,0,-2,0,-1,1,-1,-1
1558435378977820,6,8,-1,0,4,1,-4,2
1558435378983803,-11,-14,-5,-1,-4,-1,-2,-5
1558435378983803,-2,-3,-6,-1,-5,-3,-2,-4
1558435378999761,0,-2,0,-2,0,-2,1,0
1558435378999761,1,-3,-3,0,-3,1,0,-1
1558435379006743,2,4,1,1,2,3,0,2
1558435379006743,-1,0,-2,0,0,-1,-5,-2
1558435379013723,-2,-5,-2,-2,4,5,7,1
1558435379013723,-2,-3,-3,-2,-5,-6,-2,0
1558435379022699,0,1,0,-2,-5,-4,-4,-1
1558435379022699,-1,-2,-3,-3,-1,2,2,0
1558435379045638,-2,1,-1,2,1,0,-3,-1
1558435379045638,3,1,3,2,3,0,3,1
1558435379046636,-3,-2,-2,-1,3,-1,-1,-1
1558435379046636,0,-1,0,-1,-6,-6,-6,-4
1558435379059601,-1,-2,-3,-3,-6,-2,-2,-2
1558435379059601,-3,-2,1,0,-2,0,-1,-2
1558435379066584,3,0,-1,0,-1,-6,-2,0
1558435379066584,0,1,-1,1,1,-1,-3,0
1558435379074563,-3,-3,-3,-1,5,5,5,1
1558435379074563,2,-2,0,-1,-1,0,1,1
1558435379090518,1,4,0,2,-3,-1,-5,-2
1558435379090518,-4,-3,-3,-2,-6,-5,-4,-4
1558435379097501,0,-1,-1,-2,-1,0,-4,0
1558435379097501,0,0,1,1,5,4,6,3
1558435379111462,-1,1,2,-1,2,2,1,-1
1558435379111462,-2,-5,-3,-4,-5,-4,-1,-3
1558435379119442,-2,0,-4,-2,-1,-4,-3,-4
1558435379119442,-3,-3,-3,-4,-4,-2,-3,0
1558435379134400,0,2,0,0,0,-1,-2,-4
1558435379134400,-7,-3,1,3,3,4,5,1
1558435379135398,-2,-3,0,-4,-6,-8,-9,-5
1558435379135398,3,2,-1,-2,-2,-3,-3,0
1558435379158338,-7,-7,-2,0,4,6,3,3
1558435379158338,1,-1,-3,-5,-4,-2,-3,-6
1558435379159335,-4,-4,2,3,1,2,2,0
1558435379159335,0,0,-3,-1,-4,-2,-3,-1
1558435379164320,0,2,-1,-3,-3,-2,-4,-4
1558435379164320,3,3,3,3,9,9,9,7
1558435379180277,0,0,1,0,-1,-1,-2,-2
1558435379180277,-1,1,-4,-3,-2,0,-3,-3
1558435379186262,2,-3,1,-2,-5,-6,-1,0
1558435379186262,-3,-3,-4,-3,-3,-3,-3,-3
1558435379194242,1,2,0,-1,-4,-5,-1,0
1558435379194242,-2,0,0,-1,-1,-1,-1,-4
1558435379209200,-1,-1,-2,-3,-2,0,-1,-4
1558435379209200,1,1,2,0,-9,-10,-5,-1
1558435379217179,4,2,0,0,7,3,3,3
1558435379217179,7,3,0,1,8,6,3,-1
1558435379224161,-10,-11,-1,1,2,2,3,0
1558435379224161,-1,0,-1,0,-2,-1,-2,-4
1558435379240120,-5,-3,-3,-6,-8,-4,-6,-4
1558435379240120,0,0,2,-2,-4,-4,-4,-1
1558435379247099,6,5,1,1,3,3,3,2
1558435379247099,-3,-2,-3,-1,-3,-5,-4,-3
1558435379254083,0,-4,-1,2,3,1,1,2
1558435379254083,-4,-5,1,2,6,4,3,3
1558435379269041,3,2,-1,-5,-4,2,3,-1
1558435379269041,2,2,-1,0,0,2,2,0
1558435379278019,-2,-1,-5,-6,-6,-5,-3,-5
1558435379278019,-6,-4,0,-1,-5,-8,-5,-4
1558435379284005,-1,-3,-2,2,-3,-6,-5,0
1558435379284005,2,0,0,0,6,2,2,0
1558435379299962,-1,-1,1,3,3,1,0,-1
1558435379299962,-2,-1,-1,0,0,6,2,-1
1558435379306939,5,4,1,-1,1,1,-1,0
1558435379306939,0,-4,-1,-4,-2,-1,-4,-2
1558435379313925,-4,-4,-3,-1,-5,-5,-4,-4
1558435379313925,-4,-3,-3,-4,-1,-2,-3,-2
1558435379328889,-1,0,1,1,2,0,4,1
1558435379328889,1,2,1,-2,0,-3,2,1
1558435379337861,2,1,2,-2,-1,-1,-2,-2
1558435379337861,-1,-1,-3,-2,-6,-2,-4,-3
1558435379343842,-2,1,-3,-3,-5,-7,-5,-3
1558435379343842,0,-2,0,-2,3,2,0,-1
1558435379359798,-2,-2,-1,-3,3,4,3,3
1558435379359798,-1,-1,-1,-1,-5,-4,-3,-6
1558435379366782,0,-3,-4,-5,-6,-2,-3,-2
1558435379366782,-3,-2,-1,1,1,0,-1,-2
1558435379373762,0,-2,-2,-1,-1,-3,0,1
1558435379373762,-2,0,1,2,6,3,-1,3
1558435379390717,0,0,0,1,-1,0,-2,2
1558435379390717,-4,-1,1,-4,-9,-3,-6,-4
1558435379397704,3,0,-2,-5,-10,-6,-2,-4
1558435379397704,-5,-7,-1,0,1,-2,4,1
1558435379411665,-9,-2,1,3,11,3,2,-2
1558435379411665,-2,-2,-4,-2,-4,-1,-3,0
1558435379419645,-2,1,2,0,-2,-3,-3,-2
1558435379419645,-1,0,-3,-2,-2,-3,-5,-3
1558435379434602,1,0,-1,0,-6,-4,-2,0
1558435379434602,0,-5,1,1,3,2,1,0
1558435379442577,-5,-1,-2,-3,0,1,0,-4
1558435379442577,1,3,-1,0,-3,-7,0,1
1558435379449564,2,-1,0,-2,4,3,2,1
1558435379449564,-1,2,-5,-1,-4,-4,-6,-2
1558435379465522,0,-2,-2,-1,-9,-5,-3,-2
1558435379465522,1,0,2,0,4,4,1,1
1558435379467518,0,0,0,2,2,5,5,3
1558435379467518,-1,-1,-3,-4,-8,-7,-1,-4
1558435379480591,-2,-1,3,3,7,4,3,1
1558435379480591,4,2,0,-2,-2,-3,-3,-2
1558435379486579,-5,-6,-2,-5,-8,-6,-6,-4
1558435379486579,-3,-2,-1,-3,-2,2,-2,-1
1558435379502543,2,1,-2,-1,1,-2,-2,1
1558435379502543,1,0,0,-1,-6,-5,-2,-1
1558435379509447,5,2,-1,2,4,6,2,2
1558435379509447,-1,1,0,0,-3,-3,-2,0
1558435379533558,-1,-3,0,-3,1,9,5,-2
1558435379533558,2,1,1,0,8,4,3,3
1558435379534335,-2,2,-1,0,-4,-7,-7,-4
1558435379534335,-2,-3,-3,-2,-2,0,1,-3
1558435379540324,-5,-1,-3,-1,-4,-1,-5,-4
1558435379540324,-1,-2,0,2,-1,0,5,2
1558435379554279,-2,-1,-1,-1,-2,-2,1,0
1558435379554279,1,0,0,1,8,2,1,0
1558435379562258,1,1,-2,-3,-5,-6,-5,0
1558435379562258,-5,-2,-2,-4,-2,-2,-6,-4
1558435379577411,1,0,-1,0,-4,-1,-3,-2
1558435379577411,-4,-3,-2,-5,-7,-4,-1,-2
1558435379586195,-2,-2,0,2,3,0,0,0
1558435379586195,-1,-1,-2,-2,-3,2,2,1
1558435379587192,3,1,1,1,3,3,2,-1
1558435379587192,3,0,-4,-2,0,1,-1,1
1558435379600158,-12,-7,-3,1,3,-1,-2,-1
1558435379600158,-1,0,-2,-2,0,1,3,3
1558435379607139,-2,-2,-1,-3,-5,-5,-5,-3
1558435379607139,1,2,2,3,1,4,-1,-2
1558435379622099,1,1,1,2,4,-3,-2,-1
1558435379622099,-2,-3,1,-1,-3,-4,-6,-6
1558435379629275,-4,-3,-4,-3,-5,-3,-3,-2
1558435379629275,-2,-2,0,2,-1,1,4,1
1558435379646214,2,-1,-3,-3,-1,3,2,-1
1558435379646214,0,-1,-2,-2,-5,-4,-5,-4
1558435379647031,1,1,3,1,6,5,4,1
1558435379647031,-3,-1,0,-1,-1,-3,-3,0
1558435379659996,-1,0,-1,-4,-3,-2,1,-1
1558435379659996,-4,-3,-4,-1,-1,4,1,-3
1558435379667173,-1,0,-1,-1,-5,-6,-3,-2
1558435379667173,4,2,2,5,11,3,4,4
1558435379691131,4,5,2,-2,-2,0,-1,2
1558435379691131,-10,-16,-4,-4,-10,-11,-9,-7
1558435379691911,0,-2,-1,0,-1,-2,0,0
1558435379691911,-2,2,2,-2,4,4,1,-1
1558435379705874,1,1,-1,-1,-7,-8,-2,-2
1558435379705874,0,2,-1,-2,2,5,3,2
1558435379706872,-4,-2,-3,-2,-2,-1,-4,-2
1558435379706872,-1,-4,-2,-3,-6,-3,-1,-2
1558435379719843,1,0,0,4,1,-3,-1,2
1558435379719843,2,2,1,1,4,3,-1,-2
1558435379726852,-2,-4,-2,-2,2,4,1,0
1558435379726852,-2,0,-4,-3,-4,-2,-3,-4
1558435379742810,0,-1,-1,-1,-2,2,0,1
1558435379742810,1,1,-2,-1,-4,-5,-2,-1
1558435379749763,1,-2,-3,-5,-4,-4,-1,-3
1558435379749763,0,2,2,-1,-5,-4,-3,-2
1558435379765715,-3,-4,-3,-2,2,2,1,0
1558435379765715,2,3,2,3,5,-2,-1,3
1558435379766713,-5,-5,-1,-2,-2,1,0,-2
1558435379766713,-2,-2,0,-3,-4,0,1,-4
1558435379779676,0,-2,-1,0,1,1,2,3
1558435379779676,3,3,-1,1,5,3,0,0
1558435379786656,1,-2,-2,-1,-5,-3,-5,-3
1558435379786656,-3,-4,-3,-4,-5,-9,-7,-2
1558435379802612,-1,-1,-2,-3,-3,1,0,-2
1558435379802612,6,2,0,1,6,5,3,1
1558435379809828,-12,-11,-2,2,1,-2,-1,-1
1558435379809828,0,-2,-1,-1,4,3,2,-2
1558435379825562,-2,-1,0,-1,-1,-4,-3,-2
1558435379825562,-3,-4,-5,-4,-8,-7,-2,-4
1558435379827550,4,3,-1,0,4,4,6,3
1558435379827550,0,1,-1,1,2,2,0,3
1558435379839524,-5,-4,-1,-1,-3,-5,-5,-4
1558435379839524,0,-1,2,-2,-5,-4,-4,-1
1558435379848506,1,2,-1,-1,-2,2,-1,-2
1558435379848506,-3,-5,-2,0,0,-3,1,1
1558435379862464,0,2,-2,-2,1,2,4,0
1558435379862464,-2,-5,0,-4,-1,3,3,0
1558435379869447,0,0,-2,-1,1,-1,-2,-1
1558435379869447,-1,1,0,1,-2,-3,-2,-2
1558435379885398,-2,-3,-2,-2,-2,-4,-6,-3
1558435379885398,-3,-4,-4,-3,-6,-2,0,0
1558435379887427,1,1,-2,-2,-3,-5,-2,1
1558435379887427,2,0,-1,-1,0,2,-1,-1
1558435379899355,2,4,3,3,4,1,3,1
1558435379899355,-9,-7,-5,-2,-1,0,-2,-3
1558435379908333,2,1,1,0,-4,-2,-3,-2
1558435379908333,-4,-1,-2,-2,-9,-10,-7,-4
1558435379922301,1,0,-1,-1,-5,-2,-2,-1
1558435379922301,1,1,-1,1,1,-1,1,0
1558435379929279,0,1,0,-1,0,2,1,0
1558435379929279,-3,-2,1,-2,0,-1,-2,2
1558435379945232,-2,0,3,-1,0,2,1,0
1558435379945232,0,0,-2,-2,-2,-4,-2,-1
1558435379947227,-2,-2,-1,0,-2,0,1,-4
1558435379947227,-1,-1,-2,-1,1,1,-2,-1
1558435379959206,2,0,-1,0,-3,-4,-4,-4
1558435379959206,-3,0,-3,-1,-3,0,-3,-2
1558435379968170,-1,1,-1,-1,-2,-3,0,2
1558435379968170,1,-1,-1,-1,2,3,3,1
1558435379982133,-3,-3,0,2,3,3,1,-3
1558435379982133,-3,-5,-2,-3,0,-2,-4,0
1558435379989114,-2,-3,-5,-5,-7,-5,-6,-4
1558435379989114,-2,-1,-2,-4,-5,-3,0,-2
1558435380005071,4,1,0,1,-1,-1,1,4
1558435380005071,-2,7,3,2,3,8,2,0
1558435380007065,-2,-2,0,1,1,-4,-1,0
1558435380007065,-1,-2,-2,-1,1,-1,-1,1
1558435380019034,-3,-2,-3,-3,-6,-7,-2,-2
1558435380019034,1,-1,-2,0,-2,-2,-2,-4
1558435380028010,0,-2,1,1,-1,1,0,0
1558435380028010,-2,-3,-3,-2,-2,-1,-3,-1
1558435380042973,-1,-1,-2,1,8,9,9,1
1558435380042973,2,2,1,0,-2,-7,-6,-2
1558435380048967,1,2,-2,-3,-2,-1,-2,0
1558435380048967,-11,-8,-4,-3,-2,-3,-2,-6
1558435380064922,-3,-3,-5,-3,-4,-5,-6,-1
1558435380064922,-2,-1,1,2,-2,-2,0,0
1558435380071913,1,1,3,3,2,-2,3,0
1558435380071913,2,1,-1,-2,-4,1,0,0
1558435380078886,-1,-2,-2,-1,3,4,1,-1
1558435380078886,-2,1,-1,-3,-3,-1,-3,-3
1558435380087852,-1,-4,-2,-1,-1,-2,-4,-2
1558435380087852,1,-2,-1,-1,-2,-7,1,-1
1558435380102922,0,-2,0,-1,-4,-2,-2,-2
1558435380102922,2,3,4,1,-1,3,3,2
1558435380109795,-2,0,-4,-3,1,1,-1,-2
1558435380109795,-1,-2,-1,-3,1,0,-2,-2
1558435380125754,-1,-2,0,-1,-1,-3,-3,-2
1558435380125754,2,2,0,1,3,-2,-2,2
1558435380131847,-4,-1,-1,-1,-4,0,-1,0
1558435380131847,-1,-1,-2,0,-2,0,0,-1
1558435380139715,-1,-2,-4,-4,-8,-7,-7,-4
1558435380139715,-2,-5,-2,1,1,-3,-1,-1
1558435380147733,-3,-1,-1,-1,2,0,4,4
1558435380147733,4,4,2,2,7,4,3,0
1558435380162652,-3,-4,1,-2,-3,0,1,-1
1558435380162652,-5,-5,-4,-2,1,2,1,-1
1558435380169633,-1,-3,-1,-2,-8,-6,-7,-3
1558435380169633,3,3,1,0,-4,-4,-6,1
1558435380184591,1,1,1,0,0,1,-2,-2
1558435380184591,-8,-9,-3,-3,-3,0,1,-4
1558435380199554,6,3,0,0,5,4,2,0
1558435380199554,1,2,-3,-1,1,1,4,3
1558435380200549,-2,-1,-1,0,-4,-6,-5,-5
1558435380200549,-1,0,-2,-2,-7,-5,-3,-2
1558435380208527,-4,-5,-1,0,-2,-2,0,0
1558435380208527,-1,-3,-2,1,-1,1,-2,-2
1558435380222543,-1,-2,-2,-2,4,4,2,-1
1558435380222543,-2,-1,0,-1,-3,-3,1,2
1558435380229471,2,3,1,0,0,-4,-3,-4
1558435380229471,1,0,1,0,4,4,2,2
1558435380244468,-5,-4,-1,-2,0,0,-2,1
1558435380244468,-2,-2,-3,-4,-6,-4,-3,-2
1558435380251447,-2,-1,-1,1,-1,-4,-2,-1
1558435380251447,-3,-2,1,1,2,0,1,1
1558435380268367,-1,0,0,1,5,4,4,2
1558435380268367,3,-1,-1,-4,-6,-5,-4,-3
1558435380269364,3,0,-2,-2,-4,-3,1,1
1558435380269364,-2,-1,0,0,1,3,0,-3
1558435380282329,-1,0,-2,0,-1,1,-1,-1
1558435380282329,1,2,-2,-1,-1,0,-1,-1
1558435380289346,-4,-4,-2,-2,-3,-3,-2,-4
1558435380289346,-1,-2,-1,1,-1,-1,1,0
1558435380305269,1,-1,-1,-5,-5,-3,2,2
1558435380305269,1,1,0,1,2,-1,1,1
1558435380311253,0,1,1,-3,4,8,1,-1
1558435380311253,-3,-3,-3,-3,-4,-3,-3,-3
1558435380328206,-2,-2,-2,0,-4,-5,-7,-5
1558435380328206,0,-1,-1,-2,-2,2,0,0
1558435380329203,-3,-3,-2,0,1,0,0,0
1558435380329203,-3,-2,0,-1,-2,-3,-3,-1
1558435380342169,2,-1,0,-1,0,0,3,3
1558435380342169,-3,1,-2,0,0,-1,1,0
1558435380349152,1,-1,1,3,3,1,0,0
1558435380349152,-1,-1,0,-1,-3,0,-3,-3
1558435380365107,-2,0,-1,-2,-3,-3,-4,-3
1558435380365107,-1,-3,-3,-2,-2,-6,-4,-5
1558435380372090,0,0,-2,-1,-3,1,1,0
1558435380372090,0,0,-2,-1,-4,-1,-1,1
1558435380388049,2,4,1,4,5,4,4,5
1558435380388049,-9,-10,-1,1,3,8,-1,-3
1558435380389044,-1,1,0,-2,-4,-1,-3,-5
1558435380389044,3,0,-2,-1,-3,-7,-3,1
1558435380402011,-1,-2,-2,-3,-5,-4,-3,-4
1558435380402011,2,1,-1,-3,-4,-6,-2,-2
1558435380408993,-1,2,1,0,-1,-1,-2,1
1558435380408993,-2,-2,-1,-2,0,-1,1,0
1558435380425006,-2,-3,-1,-1,-2,-4,-6,0
1558435380425006,1,-1,0,1,1,6,6,3
1558435380431929,-1,-3,-1,-1,0,-2,-2,-1
1558435380431929,0,1,0,0,0,1,0,0
1558435380447887,-4,-1,-4,-4,-6,-7,-5,-5
1558435380447887,-3,-3,-3,0,-1,-2,-5,-4
1558435380449880,2,0,0,-1,6,5,6,5
1558435380449880,1,-1,0,2,6,-1,1,-1
1558435380462855,-1,-3,1,0,2,3,2,0
1558435380462855,0,0,-1,-2,-7,-4,-2,-2
1558435380468830,-4,0,-2,-3,-4,-5,-4,-5
1558435380468830,-2,-1,-3,-3,-5,-5,-4,-2
1558435380484787,-4,-3,-2,-3,-2,-4,-5,-3
1558435380484787,6,5,2,0,0,-1,4,5
1558435380491805,-12,-11,-1,1,5,2,-2,-4
1558435380491805,3,-1,-1,-3,-2,-4,-3,-2
1558435380507727,-10,-6,0,0,3,4,3,-2
1558435380507727,1,1,1,2,3,2,-1,1
1558435380509721,1,0,-2,-4,-7,-4,-2,-1
1558435380509721,-2,0,2,1,-2,-2,-1,1
1558435380522687,0,0,-3,-2,-2,0,-1,-2
1558435380522687,-1,0,-1,-2,-2,-2,-3,-2
1558435380528670,0,-1,-1,2,5,4,2,2
1558435380528670,-1,0,1,2,1,3,3,0
1558435380544627,4,1,-2,0,-1,-1,1,0
1558435380544627,-4,-3,-3,0,-2,0,-2,-4
1558435380551608,2,1,0,-2,-4,-7,-5,0
1558435380551608,-4,-3,-4,-3,-4,-1,-3,-3
1558435380567605,-2,-1,-1,0,2,3,1,-1
1558435380567605,1,-2,1,2,7,-4,1,2
1558435380569604,-2,-1,-2,-1,-5,-6,-2,-3
1558435380569604,-2,-2,-1,-1,0,1,-1,1
1558435380582527,0,-1,-1,-2,-4,1,2,-2
1558435380582527,2,1,0,-2,-4,-4,-4,-3
1558435380589542,-4,-4,-4,-2,-2,-2,-3,-1
1558435380589542,-1,-1,-2,-5,-4,-3,0,-1
1558435380604469,1,0,0,-2,0,0,1,1
1558435380604469,0,0,0,0,4,3,-1,1
1558435380611450,3,3,2,2,6,6,5,1
1558435380611450,-1,-1,-2,-1,-4,-7,-1,0
1558435380628403,0,0,-1,2,2,0,2,2
1558435380628403,-2,-2,-1,-3,-3,-3,-3,-2
1558435380629400,0,-1,-2,-5,-9,-5,-3,-4
1558435380629400,-5,-2,0,-3,1,2,-3,-3
1558435380650383,4,2,1,1,2,0,2,-1
1558435380650383,-7,-4,-2,4,4,3,1,-2
1558435380652378,0,0,1,0,2,2,0,4
1558435380652378,-2,-3,-3,-1,-1,-1,-1,-3
1558435380665304,-2,-3,-2,-4,-8,-5,-4,-5
1558435380665304,-2,0,-1,-6,-3,-2,-3,-4
1558435380671323,2,0,-1,-1,-1,0,0,-1
1558435380671323,1,1,-4,-2,-2,-4,-3,-2
1558435380688283,1,3,2,2,5,5,0,4
1558435380688283,0,2,-1,0,1,1,1,0
1558435380689240,-10,-13,-2,-1,-4,-3,-3,-3
1558435380689240,1,-1,-3,-2,-4,-1,1,-3
1558435380702207,-4,-5,-2,0,-3,-6,-5,-1
1558435380702207,2,0,-3,-3,-2,0,0,2
1558435380709187,2,3,0,-2,-3,-1,-2,0
1558435380709187,-1,-4,-2,2,2,1,2,-1
1558435380725144,0,-1,0,-1,2,1,2,0
1558435380725144,-1,-2,0,3,3,2,1,-1
1558435380732125,0,-1,-4,-4,-5,-2,0,-2
1558435380732125,1,0,-1,0,6,5,-1,1
1558435380748085,-1,-1,-3,-2,-8,-6,-4,-3
1558435380748085,-2,-2,0,-1,-4,-4,-3,0
1558435380749082,-1,1,-1,1,3,3,0,-2
1558435380749082,-1,-1,-2,-2,-4,-4,1,2
1558435380762080,0,1,2,-1,0,-3,-2,-3
1558435380762080,1,-1,2,0,2,7,4,1
1558435380771060,-1,-3,-4,-3,-5,-6,-8,-4
1558435380771060,0,1,0,1,-3,-4,-1,-2
1558435380784984,-2,-2,0,1,4,6,-2,-1
1558435380784984,-1,-2,-5,-6,-6,-1,-3,-4
1558435380792000,4,5,5,4,6,-1,5,3
1558435380792000,5,4,0,-1,3,2,3,2
1558435380807923,-8,-9,-4,-1,-5,-5,-5,-4
1558435380807923,-3,-4,1,0,-3,0,-4,-4
1558435380809917,-5,-5,-3,-4,-6,-2,-2,-2
1558435380809917,1,1,0,0,-6,-6,-4,-2
1558435380821886,1,2,-2,-2,-5,-4,-2,1
1558435380821886,0,-1,0,-1,4,5,1,1
1558435380830861,0,1,-1,0,4,5,2,1
1558435380830861,-4,-4,-1,-3,-3,-4,-6,-3
1558435380844824,-4,-3,-3,-3,-2,0,1,-1
1558435380844824,-3,-1,-4,-3,-8,-8,-3,-5
1558435380851806,2,2,-1,1,-2,-3,0,0
1558435380851806,-2,-2,2,3,5,7,3,3
1558435380867762,-1,-3,-1,-4,0,-2,0,-3
1558435380867762,-1,1,-2,0,1,1,1,1
1558435380869757,-2,-2,-2,-1,-3,2,-1,-4
1558435380869757,-3,-1,0,0,-5,-6,-5,-4
1558435380881725,-2,-2,-3,-2,-2,-2,-2,0
1558435380881725,-2,-4,1,-2,-7,-9,-5,0
1558435380890702,-3,0,-2,0,1,-3,1,-2
1558435380890702,-2,0,0,-3,5,4,3,-1
1558435380904666,5,4,0,2,1,1,-2,3
1558435380904666,-11,-11,-4,-2,2,2,0,-3
1558435380911645,0,-3,-2,-2,-3,-5,-5,-2
1558435380911645,-3,-4,-3,0,-4,-4,-3,-2
1558435380927604,-2,-1,-2,0,-1,-1,2,-1
1558435380927604,3,4,1,0,2,1,1,1
1558435380929598,0,-1,0,0,3,5,1,1
1558435380929598,-4,-3,-3,-1,-2,2,-1,-1
1558435380950542,2,2,-1,-3,-4,-9,-3,-4
1558435380950542,-1,-1,-1,-3,-3,1,-1,-1
1558435380951540,0,-1,2,2,1,2,0,0
1558435380951540,-1,-2,-3,0,-5,-2,-2,-2
1558435380964505,-3,-2,-1,-2,-2,-1,0,-1
1558435380964505,1,1,1,0,6,1,3,1
1558435380971486,-2,1,-1,0,-1,1,-2,0
1558435380971486,0,-1,-4,-1,-3,1,1,0
1558435380988441,4,1,-1,1,1,7,4,3
1558435380988441,-7,-4,0,0,-4,-7,-3,-3
1558435380989438,-1,-2,-2,-4,1,0,0,-1
1558435380989438,-5,-2,-6,-5,-7,-5,-6,-6
1558435381001407,-2,0,0,0,-4,-5,0,-1
1558435381001407,5,-1,1,2,6,3,0,3
1558435381010382,-1,-2,-2,-3,-4,-6,-2,-1
1558435381010382,1,2,1,0,-1,-1,1,3
1558435381024344,-10,-7,-3,-3,-3,-2,-5,-4
1558435381024344,1,2,-3,-1,-1,1,-1,0
1558435381031334,-4,0,-2,-1,-2,-4,-2,-1
1558435381031334,4,0,2,-1,2,-1,-3,-4
1558435381046290,0,3,1,0,2,2,0,1
1558435381046290,1,2,-1,1,-2,0,3,0
1558435381054266,-1,-2,1,0,0,3,-2,0
1558435381054266,-2,-3,-1,-2,2,1,1,-1
1558435381070227,-1,0,-2,0,-3,-3,-4,-1
1558435381070227,0,-1,-2,-3,-6,-5,-3,-2
1558435381070227,-1,0,-3,-1,-2,-1,0,-2
1558435381070227,-1,-1,1,0,3,2,1,0
1558435381085187,0,0,1,1,0,-6,0,2
1558435381085187,0,0,1,-2,-3,-2,-4,0
1558435381092165,1,-1,-1,-2,-2,2,-1,-2
1558435381092165,-1,-2,1,0,-2,-3,-2,-1
1558435381107124,0,-2,-1,-3,0,2,-1,-2
1558435381107124,-1,0,-1,-3,-6,-2,2,1
1558435381114211,-3,0,1,3,4,2,-1,2
1558435381114211,0,1,-1,-1,3,2,-1,-1
1558435381130065,3,-1,-1,0,2,2,4,0
1558435381130065,-2,-1,-2,-2,-5,-1,-3,0
1558435381130065,-1,-3,-2,-4,-5,-5,-3,-4
1558435381130065,2,3,-2,-2,-3,-3,1,0
1558435381145021,-6,-5,-1,1,4,1,2,-2
1558435381145021,0,0,-1,0,-1,-1,-3,-2
1558435381152037,-3,-1,-1,-2,-1,-2,-3,-2
1558435381152037,1,-1,1,0,-1,-1,0,1
1558435381166963,1,0,-4,-3,-5,-4,-4,0
1558435381166963,0,0,0,1,2,3,3,1
1558435381174004,-1,-3,-4,-2,0,-2,-2,-2
1558435381174004,-5,-4,-2,-1,-3,-5,-6,-4
1558435381189903,-2,0,2,1,2,3,-1,0
1558435381189903,0,1,-3,0,1,-3,0,2
1558435381190900,-7,-3,-2,-1,-2,-2,-1,-2
1558435381190900,-1,-2,-2,-1,-3,-1,1,0
1558435381205860,-1,-1,-2,-1,0,3,-2,-2
1558435381205860,-1,-2,-1,1,3,1,-3,-3
1558435381211886,0,-2,1,-1,-1,-4,1,-2
1558435381211886,-1,-2,0,-1,-1,-2,2,2
1558435381226804,-2,2,-1,0,-2,-1,-3,-2
1558435381226804,0,-1,-2,-3,0,-2,0,-3
1558435381233842,1,1,-1,-1,-5,-4,-3,1
1558435381233842,-4,-4,-3,-1,1,-1,0,-3
1558435381249742,3,3,-1,1,1,1,0,3
1558435381249742,5,1,1,-1,-1,2,0,-3
1558435381250740,-9,-9,-2,1,3,3,-1,-4
1558435381250740,1,0,-3,-2,-1,-2,0,0
1558435381265698,-1,-2,0,-2,-2,-5,-1,-1
1558435381265698,-3,-3,-5,-3,-6,-7,-4,0
1558435381271684,3,4,2,2,5,6,6,2
1558435381271684,1,-1,4,1,2,5,-1,-1
1558435381286642,-1,-5,-3,-4,-2,-4,-4,-4
1558435381286642,-1,0,-2,-2,-4,-7,-4,-2
1558435381294621,2,1,-2,0,-3,-2,0,-1
1558435381294621,-4,-2,-2,2,-1,-1,-2,-3
1558435381309581,0,0,-1,0,-3,-3,-2,0
1558435381309581,-2,-4,0,-1,-2,-2,-3,2
1558435381310578,-2,-1,-2,-2,-5,-1,1,-2
1558435381310578,0,1,3,2,4,4,0,0
1558435381325540,-1,-2,-2,-3,-3,-2,-4,-2
1558435381325540,-3,-5,-2,-2,2,1,0,-1
1558435381331533,-1,-4,-4,-3,-1,-1,-1,0
1558435381331533,-1,-4,-2,-4,-6,-5,-4,-2
1558435381346484,0,2,-1,-2,-3,-2,0,-1
1558435381346484,1,4,3,2,4,1,5,3
1558435381354463,4,0,2,0,0,-4,-1,0
1558435381354463,4,0,-3,0,1,5,4,-1
1558435381369455,-9,-7,-3,-1,1,-1,-3,-2
1558435381369455,-2,-2,-1,-1,1,2,0,-1
1558435381370418,1,0,0,-4,-3,-4,-4,-3
1558435381370418,0,1,-1,2,-1,-5,-2,-2
1558435381385378,2,1,1,1,2,1,0,0
1558435381385378,-5,-2,-2,-2,-5,-1,-5,-6
1558435381391420,-2,0,-3,-4,-2,-5,-2,3
1558435381391420,0,2,2,0,3,0,4,6
1558435381406323,0,0,-3,1,-2,-4,0,-2
1558435381406323,-1,0,-2,0,-2,-4,-5,-2
1558435381414302,3,0,1,0,2,3,-1,-2
1558435381414302,-3,-4,-4,-4,-6,-2,-5,-4
1558435381429261,0,0,-1,-1,-1,-1,-1,0
1558435381429261,-2,-3,-1,1,-1,0,4,1
1558435381430259,0,1,1,0,4,5,3,0
1558435381430259,0,-1,0,1,-1,-1,-2,-1
1558435381445219,-2,-3,0,-3,-5,-5,-2,-2
1558435381445219,2,1,-2,0,2,2,-2,-1
1558435381451237,0,2,-1,-3,-5,-5,-3,1
1558435381451237,-4,-6,-2,-2,-5,0,0,-1
1558435381467459,2,3,1,0,6,8,3,2
1558435381467459,-7,-6,-2,-3,-3,-6,-3,-2
1558435381474492,-1,-1,0,1,0,0,1,0
1558435381474492,-1,2,0,-2,-3,-4,-6,-4
1558435381490448,1,-2,-1,-1,-2,2,0,1
1558435381490448,1,2,0,-1,-1,0,1,-1
1558435381490448,-2,-1,1,2,3,-2,0,1
1558435381490448,0,-3,-5,-1,-4,-4,-5,-4
1558435381505072,-4,-2,0,1,-3,0,0,-1
1558435381505072,-1,-2,-1,-2,-1,1,0,-1
1558435381512270,0,-1,0,1,3,2,0,1
1558435381512270,0,1,-1,0,0,-3,1,2
1558435381527078,-1,-1,-2,-1,-3,-4,-2,-2
1558435381527078,-2,-4,-4,-1,-5,-2,-3,-3
1558435381534979,0,0,-2,-1,0,3,1,0
1558435381534979,-1,0,0,-1,4,7,4,0
1558435381551221,-2,-2,0,-1,-2,1,1,-2
1558435381551221,1,-3,-1,0,-2,-7,-3,-2
1558435381551221,-1,-5,-3,-3,-2,-4,-4,-4
1558435381551221,1,-2,-2,-3,-1,-3,-2,0
1558435381565901,-1,-1,2,-2,-3,-3,-2,-2
1558435381565901,2,2,0,-2,0,1,1,-1
1558435381571881,2,5,0,-1,-5,-2,-1,-2
1558435381571881,-10,-10,-3,-1,-3,-3,-1,-2
1558435381586843,0,-1,-1,-2,0,0,0,1
1558435381586843,-3,1,-1,1,0,1,-1,-2
1558435381593824,1,-1,0,2,-1,2,3,-1
1558435381593824,4,4,0,-4,-3,-3,0,0
1558435381609780,-1,-1,-1,0,0,-3,-3,-3
1558435381609780,-3,-5,0,-1,-3,-2,-3,-4
1558435381610776,-3,-3,0,1,3,0,1,2
1558435381610776,1,2,-2,1,4,-1,-2,-1
1558435381633716,0,-2,-2,0,-1,-3,-1,-1
1558435381633716,1,3,0,-3,-1,-1,0,0
1558435381634714,-2,-3,-1,-4,-6,-6,-6,-5
1558435381634714,-1,2,3,1,-3,0,-3,-3
1558435381646687,1,-1,-6,-3,-1,1,2,0
1558435381646687,-3,-2,-1,-1,0,-5,-3,0
1558435381653662,-3,-2,-5,-4,-4,-4,-3,0
1558435381653662,-1,-1,-1,0,3,2,3,2
1558435381670002,1,-1,0,0,-2,1,-1,-4
1558435381670002,0,1,1,1,6,7,7,3
1558435381670654,-3,-1,-1,-2,-3,-1,-3,-1
1558435381670654,0,-4,-3,-3,-9,-10,-7,-3
1558435381685577,-2,0,0,0,0,0,0,1
1558435381685577,2,-1,0,0,1,0,1,0
1558435381691904,-1,0,-2,1,2,1,-1,-1
1558435381691904,-2,-4,-4,-1,0,1,0,-4
1558435381706826,0,-1,1,-1,-3,1,-1,1
1558435381706826,0,2,-1,-1,0,-2,-3,-1
1558435381714799,-4,-7,-1,-1,0,-2,1,0
1558435381714799,1,1,3,0,2,4,3,4
1558435381730496,-1,-1,1,-2,0,0,-1,2
1558435381730496,1,1,-3,-1,-4,-2,-4,-5
1558435381730496,0,-1,-2,-2,-5,-3,-2,-1
1558435381730496,-1,-1,-2,1,1,0,-1,-1
1558435381745752,-1,-3,0,-1,2,-2,-2,-2
1558435381745752,-3,-4,-2,-2,-5,0,-3,0
1558435381752430,0,2,-1,0,-2,0,-2,-2
1558435381752430,-2,-3,-1,-1,0,1,2,-1
1558435381767358,-1,-1,-3,-2,2,1,0,0
1558435381767358,-2,-3,-3,-1,-2,-3,-2,-2
1558435381774601,3,2,3,1,2,0,1,0
1558435381774601,2,2,-1,-1,0,0,-1,-1
1558435381789336,-8,-5,-3,-3,-2,-2,-2,0
1558435381789336,-1,-2,0,0,-3,-8,-3,-1
1558435381790297,1,-2,-1,0,3,6,3,1
1558435381790297,2,1,1,2,6,5,3,-1
1558435381805258,2,-2,-1,-2,-2,-1,-1,-2
1558435381805258,-2,-3,-3,-2,-3,-4,-2,-4
1558435381811244,-1,-2,-2,-2,-6,-5,-4,-1
1558435381811244,2,0,0,0,0,0,2,2
1558435381826204,1,2,0,0,-1,-1,-1,1
1558435381826204,-12,-10,-1,0,-3,3,-3,-1
1558435381834178,0,1,-2,-2,-5,-6,-4,-7
1558435381834178,-5,-3,-1,-4,-2,-4,-5,-4
1558435381850492,0,0,0,2,4,0,0,1
1558435381850492,4,1,-1,0,0,0,2,2
1558435381850492,-1,-3,-2,-1,0,2,2,-1
1558435381850492,-3,0,-1,-3,-6,-5,-2,2
1558435381865429,-2,-1,-4,-2,-4,-3,-3,-6
1558435381865429,-2,-2,0,0,-2,-1,-2,-2
1558435381872076,-2,-3,-2,-1,-1,-4,-2,-1
1558435381872076,1,-1,-1,0,0,-3,-1,-1
1558435381887044,0,-1,1,2,3,3,-1,2
1558435381887044,1,2,-2,-3,0,5,5,1
1558435381894018,-2,-2,0,-2,-3,-2,-4,-1
1558435381894018,-3,-3,-2,1,0,1,-1,-3
1558435381909978,-2,-3,-4,-5,-3,-8,-3,-2
1558435381909978,1,-1,-1,-2,-3,-2,-2,-2
1558435381916957,-1,-1,0,1,1,1,-2,-1
1558435381916957,-1,-2,1,2,-1,0,-3,2
1558435381925932,-1,0,-2,-2,-3,0,0,-1
1558435381925932,6,2,2,-3,0,-2,-2,-1
1558435381932373,-2,-2,2,-2,-1,2,1,0
1558435381932373,-1,-3,-3,2,1,-1,0,-1
1558435381947326,1,-1,1,2,2,-1,2,3
1558435381947326,-1,0,-2,-1,-4,-5,-3,-2
1558435381953861,0,2,-2,-3,-2,-4,0,-1
1558435381953861,-1,-1,3,0,1,2,0,2
1558435381969953,-3,0,0,-2,-3,-2,-5,-5
1558435381969953,1,1,-2,0,0,0,1,-3
1558435381976838,-3,-3,-1,0,-1,-2,-2,-3
1558435381976838,-1,0,-3,-3,-3,-2,1,-4
1558435381985777,-2,-4,-5,-4,-2,-2,-1,-1
1558435381985777,-1,-2,0,-2,3,2,0,2
1558435381992053,-1,2,2,3,4,5,1,1
1558435381992053,0,-2,0,0,0,0,1,-1
1558435382007005,0,1,1,1,-3,0,1,-1
1558435382007005,-1,-2,-3,-4,-5,-6,-8,-6
1558435382013731,0,-1,0,-2,0,-1,3,2
1558435382013731,1,1,-1,-1,1,3,3,2
1558435382028658,-2,-2,-2,0,0,2,0,-1
1558435382028658,-3,0,1,0,1,0,1,2
1558435382036638,-1,-2,-4,-2,-4,-2,-6,-3
1558435382036638,1,3,-2,-2,-7,-4,-4,-5
1558435382053592,-5,-7,1,0,1,2,1,2
1558435382053592,-9,-6,-1,-1,1,-1,2,1
1558435382054589,-3,-2,-2,0,1,1,-3,-4
1558435382054589,-2,0,-1,-3,-2,-5,-3,-3
1558435382067555,0,2,0,-1,-5,-6,-5,-4
1558435382067555,-1,-1,-2,-2,-5,-1,-2,-2
1558435382074548,2,1,3,3,7,-1,8,7
1558435382074548,-1,-2,0,-1,1,2,0,-2
1558435382089683,3,4,-2,-3,2,2,-1,-4
1558435382089683,-1,-3,-1,-1,-1,-1,-1,1
1558435382096667,0,-2,-4,-2,-6,-4,-3,-3
1558435382096667,-1,0,1,1,1,2,1,3
1558435382112478,0,-2,0,2,0,-5,0,0
1558435382112478,1,0,-3,-3,-3,-1,-2,-1
1558435382113460,-1,-1,1,-3,-2,-1,-2,-2
1558435382113460,-3,-3,-2,-2,0,0,1,0
1558435382128515,0,1,1,-1,-3,-7,-4,-1
1558435382128515,1,-2,0,1,5,5,2,2
1558435382142474,-3,-4,-2,-2,-2,-3,-4,-3
1558435382142474,-2,-1,-2,-3,-6,-4,-5,-3
1558435382157436,0,4,-1,0,2,5,5,3
1558435382157436,0,-2,-1,0,0,-1,-2,-2
1558435382164415,-1,1,-2,-3,-3,-3,-3,-4
1558435382164415,-2,-4,-5,-2,-2,-1,-3,-4
1558435382172393,-1,1,-1,1,2,3,4,1
1558435382172393,3,6,6,4,2,0,4,2
1558435382173393,-1,-3,0,2,8,5,3,-1
1558435382173393,0,-1,-1,-3,-7,-11,-8,-5
1558435382188324,0,-1,0,1,3,4,1,2
1558435382188324,-2,-3,-3,-3,3,1,1,2
1558435382194337,0,-1,-3,-1,-3,-1,0,-1
1558435382194337,-2,-2,0,-1,-4,-9,-4,-1
1558435382209294,-3,-3,-6,-5,-8,-9,-6,-5
1558435382209294,-3,1,1,0,5,5,3,1
1558435382216275,3,2,-2,-1,-2,-2,-3,-2
1558435382216275,-10,-10,-2,-1,0,1,2,-4
1558435382232239,0,-2,1,-1,4,6,2,-1
1558435382232239,0,0,-1,0,-4,0,-2,-4
1558435382233204,-2,2,0,-3,-4,-2,0,1
1558435382233204,4,5,0,0,1,3,1,2
1558435382248161,-8,-9,-2,-1,0,0,-5,-4
1558435382248161,-3,-4,-3,-4,-7,-8,-4,-4
1558435382254156,1,3,2,2,1,-1,3,1
1558435382254156,2,1,0,1,0,1,1,0
1558435382269321,-2,-2,-4,-2,-2,0,-2,-1
1558435382269321,0,-1,-3,-4,-7,-8,-9,-6
1558435382285210,-2,-5,-1,-3,-6,-6,-4,-2
1558435382285210,2,0,0,2,6,6,5,3
1558435382292045,2,1,1,3,1,-3,2,1
1558435382292045,1,0,2,1,4,3,0,0
1558435382293042,0,-1,-2,-4,-2,-4,-3,-3
1558435382293042,-2,-2,-5,-1,-6,-4,-3,-3
1558435382308002,-1,0,-1,-2,-4,-5,-5,-3
1558435382308002,0,-2,-1,0,-4,-2,0,-1
1558435382314126,-3,-3,-2,-4,1,2,-1,0
1558435382314126,-1,0,0,-1,2,-2,1,1
1558435382329087,-2,-3,0,0,-2,-4,-1,-2
1558435382329087,1,0,-2,-2,-4,-6,-3,2
1558435382336923,0,1,0,4,5,8,3,0
1558435382336923,3,2,1,-2,-3,0,0,-2
1558435382352694,-10,-8,3,0,4,6,3,-2
1558435382352694,-3,-4,-2,-3,-3,-4,-5,-5
1558435382352694,0,-1,-3,0,-4,-4,-3,-3
1558435382352694,1,-1,0,1,0,-5,0,4
1558435382367657,5,3,-2,0,2,3,2,2
1558435382367657,-2,0,0,-3,0,4,2,1
1558435382374600,0,-1,-3,-5,-6,-5,-6,-3
1558435382374600,-10,-5,0,1,0,5,3,-2
1558435382389562,1,2,-1,-3,-6,-6,-1,0
1558435382389562,-3,0,-3,1,1,-4,-2,-1
1558435382396572,0,-2,-4,-2,-2,-2,0,2
1558435382396572,1,2,0,4,7,8,0,1
1558435382412615,0,-1,-1,1,-3,-4,-1,-2
1558435382412615,-1,1,-1,-1,-1,1,1,0
1558435382413437,-1,-2,-1,-2,-1,0,-3,-1
1558435382413437,-1,-1,-1,-2,0,-1,-1,-1
1558435382428434,-1,0,2,-1,0,-3,-1,-2
1558435382428434,1,1,-1,-2,-1,1,0,0
1558435382434423,-3,-2,1,1,-2,0,-1,-1
1558435382434423,-2,-5,-5,-3,-3,-5,-4,-6
1558435382449349,1,0,-2,-1,0,3,-2,0
1558435382449349,-2,-1,0,-1,-1,-4,-1,1
1558435382456358,-1,1,1,0,4,2,5,0
1558435382456358,3,3,-1,-2,-6,-2,-6,-3
1558435382472287,-5,-8,-2,1,0,-3,1,1
1558435382472287,0,-1,-1,2,2,1,-1,0
1558435382473425,-1,-1,-2,-1,3,2,1,-2
1558435382473425,1,2,0,-2,-5,-5,0,0
1558435382488251,1,1,0,-1,-1,-1,-1,-1
1558435382488251,-3,-4,0,-3,-3,0,-1,-2
1558435382494369,0,1,-1,-1,0,2,0,-2
1558435382494369,-4,-1,-1,0,1,3,0,-1
1558435382509327,2,0,-1,-1,-3,-6,-3,0
1558435382509327,-1,-3,-1,1,-3,-8,-3,-1
1558435382516200,0,-3,1,0,1,1,2,2
1558435382516200,1,1,0,-2,2,1,-1,-1
1558435382532154,-3,-2,-5,-5,-9,-1,-6,-7
1558435382532154,0,0,-3,-2,-3,-1,-2,-3
1558435382533121,0,0,-2,1,0,-3,-2,1
1558435382533121,1,0,2,3,4,4,3,2
1558435382548087,0,-1,-3,-3,-4,-2,-2,-3
1558435382548087,2,2,-1,-1,0,2,2,1
1558435382554067,-8,-8,0,-1,-2,-3,-2,-1
1558435382554067,0,-2,-3,-4,0,-2,-3,-1
1558435382569062,1,1,3,1,3,2,0,0
1558435382569062,-2,1,-2,0,1,2,1,-3
1558435382577042,2,1,3,2,1,-2,4,4
1558435382577042,-2,-3,-4,-4,-6,-4,-3,-4
1558435382592000,-2,-3,-1,-2,-4,-2,-4,-3
1558435382592000,-1,-1,-3,1,-2,-2,0,-1
1558435382592964,-1,0,0,-2,-2,-3,-2,-1
1558435382592964,-2,-2,-3,-1,-6,-4,-3,-1
1558435382607924,0,2,-1,-3,0,5,2,0
1558435382607924,-2,-3,-1,-1,3,-2,-3,-1
1558435382613947,-2,-2,-5,-5,-7,-5,-3,-2
1558435382613947,0,0,0,-2,-6,-2,-2,-3
1558435382628869,2,5,5,7,15,12,7,3
1558435382628869,3,1,2,2,3,4,2,0
1558435382636844,1,-1,-2,-3,-3,-1,-2,-4
1558435382636844,-6,0,-3,-4,-8,-10,-6,-4
1558435382651833,-3,-6,-1,-1,-4,-5,-1,0
1558435382651833,0,-1,0,3,6,3,5,4
1558435382652803,1,2,-3,-1,-3,-1,1,-2
1558435382652803,4,3,0,0,0,1,0,0
1558435382667937,-11,-7,-5,-4,-6,-8,-4,-4
1558435382667937,-1,-2,-3,-4,-4,-3,-7,-4
1558435382673924,0,0,1,0,2,3,0,-1
1558435382673924,-1,-2,2,0,-1,0,2,0
1558435382689730,3,1,-1,-1,-3,-6,-4,0
1558435382689730,-4,-3,0,-2,0,-1,2,-2
1558435382696833,-4,-3,-3,1,1,0,-3,-2
1558435382696833,1,-2,-3,-4,4,1,-1,-1
1558435382713676,0,-1,-2,-2,-2,2,-4,-1
1558435382713676,-3,0,-2,-2,-4,-2,-2,-2
1558435382713676,0,0,1,1,-2,-3,-3,-2
1558435382713676,0,-2,-1,3,5,4,3,2
1558435382728633,0,-1,0,2,1,3,0,1
1558435382728633,-1,-2,-1,0,-4,-3,0,0
1558435382734615,-2,0,-2,-3,-4,-5,-3,-2
1558435382734615,1,0,-1,-1,-1,-7,-2,0
1558435382749577,-2,0,-1,-4,-3,1,-1,-2
1558435382749577,0,-2,-2,-3,0,2,0,-1
1558435382756556,0,-3,-3,-2,-3,-7,-4,-1
1558435382756556,-2,-5,-1,-1,-1,-6,-3,-1
1558435382772483,2,0,-2,0,2,-1,0,0
1558435382772483,3,2,1,-3,-3,0,-4,-3
1558435382773480,-6,-3,-1,1,2,1,1,1
1558435382773480,-3,-2,-3,-2,1,3,1,0
1558435382788439,1,0,-3,-2,-4,-6,-3,-2
1558435382788439,0,0,2,0,4,4,3,0
1558435382794468,1,-2,1,-1,-1,2,-1,1
1558435382794468,1,0,1,-2,-6,-6,-6,1
1558435382809438,2,1,-1,1,-3,1,3,-1
1558435382809438,0,0,0,2,7,0,-3,-3
1558435382816410,0,1,-1,1,1,5,1,-2
1558435382816410,-3,-1,0,0,2,2,0,-1
1558435382832326,0,0,-2,-4,-6,-2,-3,-2
1558435382832326,1,1,0,-2,-8,-14,-6,1
1558435382833321,-4,-4,0,1,5,4,1,2
1558435382833321,1,2,-2,-2,-3,3,0,-2
1558435382848278,-2,-1,1,3,4,0,1,0
1558435382848278,-4,-1,1,0,0,1,1,-1
1558435382854263,0,1,0,-2,-5,-4,-2,1
1558435382854263,-2,-2,-1,-2,-4,-3,-2,-3
1558435382869221,-2,-4,-3,0,2,-1,2,-1
1558435382869221,2,-1,0,1,1,0,2,0
1558435382876203,3,-1,-2,-2,-3,-4,-4,-4
1558435382876203,0,-5,-1,-1,-1,0,-2,-3
1558435382891162,0,4,1,-3,-2,-2,-3,0
1558435382891162,1,4,1,0,1,2,1,-1
1558435382899141,-4,-7,-3,1,1,3,1,0
1558435382899141,-2,-2,-1,0,-1,1,1,-3
1558435382908117,-3,-6,-2,1,0,0,-1,-1
1558435382908117,0,1,-1,-1,-6,-8,-1,0
1558435382914282,-1,0,-2,-2,1,1,-1,-5
1558435382914282,-1,-2,-3,-2,1,0,0,1
1558435382929242,2,-1,-2,-1,-1,-3,-4,-4
1558435382929242,-4,-4,-2,-2,-7,0,-2,-1
1558435382936225,-1,-2,-2,-4,-4,-7,-3,0
1558435382936225,-2,-5,-2,1,2,2,1,-2
1558435382952151,1,4,4,3,7,7,6,3
1558435382952151,-3,-4,-4,-5,-5,-4,-5,-3
1558435382959072,-1,2,1,1,0,4,7,1
1558435382959072,1,1,-1,-2,-6,-6,-5,-3
1558435382967960,-2,0,-2,-3,-1,-4,-4,-1
1558435382967960,-2,-1,2,-1,0,-2,2,-1
1558435382973971,-2,0,-2,-2,-5,-2,-4,-3
1558435382973971,0,0,0,0,2,2,1,0
1558435382988944,0,-2,0,-2,-1,-4,-1,-2
1558435382988944,5,3,2,6,11,7,6,2
1558435382996930,-7,-6,-2,-4,-2,-3,-2,-2
1558435382996930,-2,-4,-2,1,-4,-3,-3,-2
1558435383011894,0,-2,-2,-5,-3,-3,-2,-1
1558435383011894,-4,-3,-3,-3,-4,-2,-3,-4
1558435383018871,2,0,0,0,-2,-4,-4,-1
1558435383018871,-1,0,1,3,5,4,2,-1
1558435383027800,-4,-4,-4,-2,-2,-4,-1,-2
1558435383027800,1,4,-1,-1,0,1,1,2
1558435383033789,1,0,0,2,1,-1,1,1
1558435383033789,-5,-2,-2,-4,-7,-5,-4,-1
1558435383048743,2,2,0,-1,-1,0,-1,-4
1558435383048743,-4,-7,-4,-1,-4,-3,-5,-4
1558435383064729,-1,0,-2,-4,-3,-4,-1,-3
1558435383064729,0,-3,1,2,3,0,2,3
1558435383071680,-2,0,2,1,5,8,3,-1
1558435383071680,-2,-1,2,2,-3,-7,-3,1
1558435383078663,0,-1,-4,-2,-3,-1,-4,0
1558435383078663,1,1,-1,0,3,0,0,0
1558435383094618,-3,-1,1,0,-4,-3,-1,-2
1558435383094618,-5,-2,-1,-2,-2,-1,-4,-2
1558435383095615,-2,-2,-2,-4,-5,-1,0,0
1558435383095615,1,3,2,2,3,-1,0,-1
1558435383108583,-1,-2,-4,-2,-3,-5,-3,-1
1558435383108583,2,-1,1,-1,1,7,2,-2
1558435383116561,1,2,0,2,-3,-1,-1,0
1558435383116561,-6,-6,-4,-3,-3,-3,-3,-3
1558435383131732,0,-1,1,-4,0,1,1,2
1558435383131732,0,-4,-4,-3,-3,-7,-2,0
1558435383139723,2,1,1,-2,6,-2,-2,-1
1558435383139723,5,4,1,0,-3,3,1,0
1558435383154458,-2,-2,-1,3,1,-5,-2,-3
1558435383154458,-4,-3,-2,-2,-2,1,0,0
1558435383155456,-3,-5,-1,-1,-4,-1,-2,-3
1558435383155456,1,-1,-2,-1,0,-1,-1,0
1558435383169568,-1,-3,-5,-1,-7,-8,-2,-1
1558435383169568,0,1,-1,-2,-2,-1,-3,-3
1558435383176399,0,-1,-1,-1,1,3,3,-1
1558435383176399,-2,-2,1,1,2,0,0,1
1558435383191392,-2,-2,0,0,0,3,-2,2
1558435383191392,-5,-5,0,-1,-4,-1,-2,-4
1558435383199383,1,2,0,1,-1,-1,-1,-2
1558435383199383,-1,0,0,-2,1,4,3,1
1558435383214299,0,2,0,1,1,-2,0,0
1558435383214299,0,-1,-6,-2,0,-1,-4,-2
1558435383215295,0,-3,-2,-2,-1,-4,-1,-1
1558435383215295,0,0,-2,-1,0,-1,0,1
1558435383229277,1,1,-1,-1,-5,-5,-1,-1
1558435383229277,-4,-1,1,0,1,2,0,-1
1558435383236239,-1,-2,1,-1,-3,-5,-2,-2
1558435383236239,-2,-4,-2,-2,-4,-5,-5,-4
1558435383251360,-2,-3,-2,0,2,2,-3,-2
1558435383251360,1,-2,-1,-3,-4,-4,-1,0
1558435383259333,0,1,1,-1,1,5,1,2
1558435383259333,-3,0,0,-2,-1,-3,0,-1
1558435383275166,1,1,0,-1,-2,-1,-2,-2
1558435383275166,3,2,2,1,0,-1,1,1
1558435383275166,-1,-3,-3,0,-2,-2,-2,-1
1558435383275166,-2,-2,-2,-4,-8,-6,-2,-2
1558435383289101,0,-2,0,0,-1,2,1,1
1558435383289101,-1,-1,-3,1,4,2,3,0
1558435383296083,-1,-1,1,-2,-2,-1,0,-1
1558435383296083,0,-3,-2,-1,-1,-1,-4,-4
1558435383312037,1,-3,-2,-2,-5,-7,-2,1
1558435383312037,1,-1,-3,-4,-2,0,0,1
1558435383319216,0,1,0,4,11,7,3,1
1558435383319216,-1,2,3,3,3,5,3,1
1558435383334977,-3,-3,-2,-4,0,2,-3,-1
1558435383334977,-2,1,0,-1,-7,-5,-5,-2
1558435383335973,-1,-3,-1,-3,-5,-5,-1,-1
1558435383335973,-1,-2,-3,-3,-4,-4,-4,-6
1558435383348937,1,4,1,0,3,5,2,0
1558435383348937,-7,-10,-3,0,2,-5,-1,0
1558435383356917,0,0,-1,-1,1,1,1,1
1558435383356917,-1,-1,-1,-1,-2,0,0,0
1558435383371880,-1,-1,-3,-3,-6,-3,-5,-4
1558435383371880,1,1,0,0,4,4,3,0
1558435383378892,0,2,1,0,1,-4,-1,-1
1558435383378892,-3,-3,-4,-2,-5,-4,-3,-2
1558435383394816,-2,-2,0,-1,1,4,5,1
1558435383394816,0,0,-1,0,1,1,1,-1
1558435383395815,-3,-2,-1,-2,-2,-2,-1,0
1558435383395815,1,2,0,-3,-3,-4,-4,-2
1558435383408891,-4,-2,-2,-2,-3,-6,-4,-3
1558435383408891,-1,-3,-4,-3,-2,-4,-5,-3
1558435383416761,4,3,1,1,1,1,1,1
1558435383416761,3,1,0,0,3,3,5,2
1558435383431718,-2,-3,-1,0,1,0,-3,-1
1558435383431718,-1,0,1,-1,-1,2,1,1
1558435383438700,-4,-1,-3,-3,-7,2,-3,-5
1558435383438700,1,-1,-2,-1,-4,-4,-1,-2
1558435383454657,1,0,1,0,-2,-4,-1,-4
1558435383454657,0,0,1,-3,-3,-4,-1,-1
1558435383455664,4,2,2,5,6,1,4,3
1558435383455664,1,0,-6,-4,3,7,1,1
1558435383468729,-9,-7,-2,-3,-5,-3,-1,-4
1558435383468729,-2,-2,-4,-2,-8,-3,-5,-2
1558435383476811,-2,-4,-2,2,-1,-6,-3,3
1558435383476811,0,0,0,4,8,4,-2,-4
1558435383491558,0,-1,-3,-3,-2,-2,-5,0
1558435383491558,1,2,3,0,6,6,7,3
1558435383499538,-3,-5,-2,-5,-12,-6,-6,-8
1558435383499538,0,-2,-2,-1,-1,0,-3,2
1558435383514498,2,2,3,2,-2,-4,-2,0
1558435383514498,-4,-7,-5,-1,-4,-9,-4,-5
1558435383515496,-2,1,-2,-2,4,1,1,-1
1558435383515496,0,0,3,1,2,-1,3,0
1558435383529455,5,3,0,0,-2,-1,0,1
1558435383529455,-7,-2,1,1,4,1,1,2
1558435383536439,-3,-4,1,-3,-3,-1,-4,-2
1558435383536439,-4,-6,-3,-5,-8,-6,-4,-3
1558435383551455,-1,-3,0,-1,1,-1,0,-1
1558435383551455,5,3,1,3,-2,0,-1,-3
1558435383559375,-2,-2,-6,-4,-8,-8,-5,-3
1558435383559375,-9,-5,-1,1,-2,-5,-5,-2
1558435383574345,0,-1,0,0,5,7,6,-1
1558435383574345,2,1,0,-2,6,-1,1,2
1558435383575334,3,1,0,1,7,7,4,1
1558435383575334,3,5,4,-2,-3,4,-1,0
1558435383589387,-5,-4,-4,-3,-7,-6,-3,-1
1558435383589387,3,3,4,7,15,14,9,2
1558435383596278,-2,-1,-3,-2,-3,-2,-2,-1
1558435383596278,-4,-4,-3,-3,-11,-14,-4,-2
1558435383611236,-1,-1,3,2,1,-8,-3,2
1558435383611236,0,-1,-1,0,3,7,-3,-1
1558435383619217,3,3,5,3,-2,-2,2,1
1558435383619217,-1,0,3,-1,2,3,-3,-2
1558435383635175,-2,-4,-2,-2,-4,-2,-1,-3
1558435383635175,2,2,-2,-7,-13,-12,-4,0
1558435383635175,0,1,3,3,6,5,-2,-1
1558435383635175,2,2,0,1,3,6,5,0
1558435383650221,4,7,11,5,7,6,6,4
1558435383650221,-5,-7,-11,-6,-6,-3,-7,-6
1558435383657114,0,-4,-3,-6,-11,-15,-9,-4
1558435383657114,2,-1,-3,4,8,3,4,4
1558435383671079,1,-1,0,1,4,6,2,1
1558435383671079,-4,-4,-4,-3,-6,-3,1,-1
1558435383679083,-2,-2,-4,-2,-1,1,0,0
1558435383679083,-1,2,4,0,-3,-7,-5,-2
1558435383695014,-3,-6,-10,-4,-1,-2,-4,-4
1558435383695014,1,3,10,2,-5,-9,-7,-2
1558435383695014,-2,-5,-7,-2,3,2,3,2
1558435383695014,0,-3,-5,0,2,3,3,3
1558435383710202,-3,-1,-8,-6,-3,1,-2,-1
1558435383710202,-6,-5,4,-1,-4,-3,-4,-4
1558435383717456,-1,-2,1,1,-5,-5,-2,-1
1558435383717456,0,0,0,1,8,5,4,1
1558435383732006,-1,-2,-7,-3,-2,-1,-2,-3
1558435383732006,-2,-4,-4,-2,-3,-5,-2,-2
1558435383738900,-2,-1,-4,-4,0,-3,0,-1
1558435383738900,-2,-3,-5,-1,-2,-4,-2,-1
1558435383754863,-1,2,6,2,-1,-2,-2,2
1558435383754863,-1,3,-3,3,6,4,5,1
1558435383755851,-2,-5,0,2,-1,-1,-1,-2
1558435383755851,-2,0,1,-3,-4,-1,-1,-1
1558435383770812,-6,-11,-12,-5,-3,-2,-3,-4
1558435383770812,-1,-1,-3,-2,-5,-10,-6,-2
1558435383776812,0,-1,0,0,-1,5,3,0
1558435383776812,-1,-4,-6,-1,-2,-12,-7,-3
1558435383791754,1,-3,-3,2,4,5,2,-2
1558435383791754,3,5,2,-3,-2,3,-2,-2
1558435383798817,-13,-7,-4,-2,-4,-1,-2,-4
1558435383798817,-3,-5,-4,-3,-7,-4,-2,-2
1558435383813694,-2,1,4,3,1,0,4,3
1558435383813694,2,-1,-10,-1,0,1,1,0
1558435383821675,4,6,11,2,5,4,2,0
1558435383821675,2,3,2,-2,-2,0,0,0
1558435383830650,-8,-4,-7,-2,-5,-5,-4,-4
1558435383830650,0,0,-1,0,-3,-4,1,-1
1558435383836637,0,1,0,-1,-1,-2,-2,3
1558435383836637,1,1,1,-1,6,5,6,4
1558435383851596,2,-1,0,-2,-3,-1,-1,1
1558435383851596,-2,-5,-1,-2,-4,-3,-1,-2
1558435383858577,2,1,-4,0,2,0,-1,-2
1558435383858577,0,4,11,2,-2,-1,-2,-3
1558435383874533,-2,0,-2,-4,-2,-5,-1,-3
1558435383874533,-3,-5,0,-1,2,4,0,-1
1558435383881513,1,0,-4,-3,-2,-4,-3,-2
1558435383881513,1,-1,0,2,1,1,-1,-1
1558435383890491,-2,-2,0,1,0,-4,-2,0
1558435383890491,-3,-4,-6,-7,-1,-1,-2,-2
1558435383896475,1,-1,0,-1,0,4,1,0
1558435383896475,-1,0,2,-2,-5,-2,0,-1
1558435383911435,-1,-2,-6,-3,1,1,0,-2
1558435383911435,-1,3,5,0,-3,-2,-3,0
1558435383919442,0,-3,-7,-2,-1,-3,-4,-2
1558435383919442,-3,-2,-2,-2,-2,-1,-3,-3
1558435383934373,0,2,3,0,1,1,2,0
1558435383934373,0,1,2,2,3,4,3,1
1558435383941356,8,7,-4,0,-2,0,2,1
1558435383941356,-8,-5,-6,-2,1,-2,1,0
1558435383950331,1,-4,-3,-2,-4,-3,-3,0
1558435383950331,-3,0,2,1,1,0,-1,0
1558435383956318,-1,3,6,4,0,-3,-5,-2
1558435383956318,-1,-4,-5,-5,-3,-8,-5,-4
1558435383971274,-3,-3,-9,0,1,1,0,-3
1558435383971274,-1,-1,2,-2,3,3,2,1
1558435383979253,-3,0,-1,-3,-5,-3,0,-1
1558435383979253,0,-3,-4,-2,1,3,-3,-1
1558435383994218,1,5,8,3,-2,-4,-2,0
1558435383994218,2,2,-2,3,-4,-7,-5,-3
1558435384001205,-5,-13,-4,-5,-1,-1,0,0
1558435384001205,-3,-2,-4,-2,-3,1,0,0
1558435384017161,1,-2,-8,-5,-2,-1,-1,1
1558435384017161,-1,-2,-4,0,3,2,-1,-2
1558435384018150,-5,-8,-1,-3,-5,-2,0,-2
1558435384018150,-2,-2,0,1,-4,-9,-5,-2
1558435384031117,0,3,5,1,-1,1,-1,-1
1558435384031117,0,2,3,0,1,2,2,3
1558435384039095,-1,-2,-5,0,3,1,-1,-2
1558435384039095,3,0,2,2,-3,0,0,-1
1558435384054054,-1,-2,-3,-5,-1,-1,-1,-1
1558435384054054,-6,-6,-7,-4,-1,0,-1,-4
1558435384062031,0,3,0,0,1,-3,0,-2
1558435384062031,4,4,0,4,-5,-3,3,0
1558435384077014,-2,1,2,-6,0,0,0,-1
1558435384077014,-6,-9,-7,-5,-4,-2,-3,-3
1558435384077990,1,-1,3,-2,-1,-1,-2,2
1558435384077990,0,1,-4,1,4,3,0,-1
1558435384091953,6,3,5,-1,-3,-2,0,0
1558435384091953,0,1,-2,-2,-3,-2,-3,-2
1558435384098935,-5,-2,2,0,-1,-1,-3,-6
1558435384098935,1,1,2,1,1,-1,1,1
1558435384113892,-1,-2,-5,-2,-4,0,-1,-1
1558435384113892,3,4,5,1,-1,-2,-2,0
1558435384121879,-2,2,-3,0,-1,4,3,0
1558435384121879,0,0,1,0,1,-2,-2,0
1558435384136830,-3,-3,0,3,5,4,1,1
1558435384136830,0,-1,3,0,0,-3,0,1
1558435384137829,-2,-2,-2,-1,-4,-6,-5,-2
1558435384137829,-1,0,-2,-4,-1,0,-1,-2
1558435384151804,-2,1,4,3,2,-1,-2,-3
1558435384151804,2,1,2,-1,-3,2,0,1
1558435384158774,-1,-1,2,-4,-1,-2,1,0
1558435384158774,-3,-2,-5,-4,-1,0,-2,-2
1558435384173732,-4,-7,-7,0,-5,-2,-2,-2
1558435384173732,-2,-1,0,1,0,1,0,-1
1558435384181711,0,5,2,3,3,0,-1,1
1558435384181711,-5,-10,-12,-7,-2,-1,-3,-1
1558435384197676,0,1,5,0,-2,-3,0,-1
1558435384197676,-2,-6,-5,-4,-4,-2,0,-2
1558435384197676,3,-1,-1,-1,0,-1,-2,-3
1558435384197676,-9,0,-4,0,-2,2,0,-1
1558435384211635,2,0,3,-2,-1,-1,-1,1
1558435384211635,3,3,6,1,-1,-1,1,1
1558435384218612,-3,-6,-7,-4,-3,-1,1,-1
1558435384218612,1,-1,1,1,-2,-2,-2,0
1558435384233572,-3,0,2,1,1,2,3,2
1558435384233572,-1,5,0,-1,2,0,-3,-2
1558435384241615,0,0,-3,0,-1,0,-2,0
1558435384241615,-2,1,1,-1,-3,-3,-5,-3
1558435384257573,-5,-10,-6,-5,-1,0,-1,-2
1558435384257573,-2,-6,-13,-2,0,-2,-1,0
1558435384257573,2,3,4,1,-1,1,-1,-1
1558435384257573,3,3,2,-1,-2,-2,1,-1
1558435384271470,-2,-3,-7,-2,-1,-3,-3,-2
1558435384271470,1,2,2,-1,-3,-2,0,0
1558435384279524,2,-2,-5,-2,1,1,-2,0
1558435384279524,-8,-1,1,0,2,0,2,-3
1558435384294410,3,3,0,2,-1,0,-3,-3
1558435384294410,0,-1,0,-1,-1,-1,-1,-1
1558435384301479,-1,0,4,-1,-1,-3,-2,-1
1558435384301479,1,-4,-6,2,-2,0,0,0
1558435384317349,0,-2,-3,-8,-4,1,2,0
1558435384317349,-1,-3,-3,1,0,0,-2,-1
1558435384318346,-7,-6,-3,0,0,2,1,2
1558435384318346,1,-3,-1,-4,-1,-3,-4,-4
1558435384331313,-3,1,1,4,0,-1,-2,1
1558435384331313,5,5,5,1,0,0,-2,-1
1558435384339289,-5,-9,-10,-7,-1,0,-1,-1
1558435384339289,1,-1,-1,0,-2,-2,0,0
1558435384354254,0,-3,-4,0,-1,-2,-1,-1
1558435384354254,-2,1,1,-3,-1,0,-1,-2
1558435384361232,-2,-2,0,-1,1,0,0,-3
1558435384361232,-2,-2,-2,-5,-3,0,-2,-2
1558435384377188,0,1,1,-2,-2,-4,-2,0
1558435384377188,2,3,-1,1,1,-1,0,1
1558435384378185,-1,-1,-3,0,-1,-2,-2,-2
1558435384378185,3,4,3,-1,-2,-1,1,0
1558435384391150,0,3,5,5,6,0,-2,-1
1558435384391150,-3,-1,0,-3,-2,-3,-3,-2
1558435384399134,3,11,7,-1,-1,1,3,2
1558435384399134,-3,-7,-6,-2,-2,0,-3,0
1558435384414091,-3,-1,-8,-3,-4,-3,-2,-4
1558435384414091,-1,-4,-1,-2,-4,-2,1,-1
1558435384422069,1,-2,-3,-1,2,0,1,-1
1558435384422069,-2,4,10,1,2,0,2,1
1558435384437033,-3,-4,-5,-6,-4,-3,1,0
1558435384437033,-1,1,0,0,1,-1,-4,-2
1558435384438026,-1,-6,-6,0,-3,0,-2,-2
1558435384438026,7,6,2,4,5,3,3,4
1558435384451988,-9,-6,-5,-3,-1,-2,-2,-3
1558435384451988,-2,-7,-7,-2,-1,-3,-2,-1
1558435384458969,2,5,6,3,-1,-2,-1,-1
1558435384458969,-5,-8,-8,-1,-2,-2,-2,-1
1558435384473938,6,5,7,-1,1,1,1,-2
1558435384473938,-2,0,-6,-1,-3,-2,0,1
1558435384481908,-1,5,2,0,0,-3,-4,1
1558435384481908,3,-2,1,-1,-2,1,-1,1
1558435384496872,0,0,0,2,-1,0,-2,-1
1558435384496872,-4,-4,-5,-5,1,0,0,-1
1558435384497869,0,-8,-8,-1,-1,-1,0,-1
1558435384497869,-2,3,3,-2,-2,-2,-2,-2
1558435384511829,2,4,6,1,-2,-1,0,1
1558435384511829,-1,-2,-3,5,5,1,-1,-3
1558435384518812,-1,-1,-1,-7,-3,1,1,0
1558435384518812,-3,-8,-11,-4,-4,0,-2,-2
1558435384533770,0,0,3,3,-2,-1,-1,1
1558435384533770,0,-1,-1,1,-3,-3,-1,0
1558435384541748,-3,-3,0,-2,-1,-3,-2,-1
1558435384541748,-1,2,4,0,-1,2,1,-1
1558435384556709,-2,-3,-9,-5,-2,-2,-1,-2
1558435384556709,-2,-6,0,-4,-3,-1,1,1
1558435384557705,0,2,-2,0,-2,-3,-4,-4
1558435384557705,-2,-3,-2,-1,-1,-1,0,-1
1558435384571669,1,2,-2,-2,0,-2,-3,-1
1558435384571669,-3,0,-3,-1,-3,-1,-1,-1
1558435384578649,-1,-1,1,1,-1,-2,0,-1
1558435384578649,4,-1,0,3,1,-3,-1,-1
1558435384593613,-7,-4,3,-5,-3,1,1,1
1558435384593613,-2,-5,-7,-1,0,0,-1,-3
1558435384601588,-1,3,1,1,1,0,1,-1
1558435384601588,-2,1,0,-1,-3,-5,-2,0
1558435384617551,-1,-9,-9,-2,0,-2,0,-2
1558435384617551,-1,2,4,-1,-2,1,1,0
1558435384617551,-3,-6,-5,0,-1,1,-2,0
1558435384617551,1,9,4,0,-1,-1,-1,0
1558435384631508,0,-2,3,-5,-3,0,-1,0
1558435384631508,0,1,1,-1,-2,-1,-1,-1
1558435384639564,6,-1,-11,2,2,-1,-2,-1
1558435384639564,-8,0,9,-7,-4,-1,0,-2
1558435384654447,-1,-2,-5,-2,0,0,-1,-1
1558435384654447,2,6,4,5,-2,-2,-1,0
1558435384661430,-5,-3,-6,-8,-3,-5,-1,-3
1558435384661430,-2,-8,-4,-1,1,0,0,-2
