timestamp,emg1,emg2,emg3,emg4,emg5,emg6,emg7,emg8
1558435506622133,0,1,0,-5,-5,-3,-3,-3
1558435506622133,1,-1,-3,-5,-5,-4,-3,2
1558435506628107,-2,1,0,1,-1,-4,-1,-1
1558435506628107,-1,-1,3,0,-6,-7,-8,-3
1558435506629103,-4,-3,-3,-5,-7,-3,-2,-3
1558435506629103,1,-1,-1,-3,2,9,4,1
1558435506630101,1,-2,1,-1,1,-4,-2,-2
1558435506630101,-1,-2,-4,-1,-2,-2,-1,0
1558435506641071,1,1,1,3,2,-3,-1,0
1558435506641071,-2,-1,-3,0,0,0,-1,-5
1558435506652041,-1,-1,-3,-2,-2,4,1,1
1558435506652041,1,2,0,-1,1,2,2,0
1558435506656030,1,2,2,1,-2,-1,1,1
1558435506656030,-5,-11,1,4,1,-5,-6,-4
1558435506670991,-5,-8,-14,-15,-14,-10,-15,-9
1558435506670991,-1,-1,-5,-2,2,-2,5,1
1558435506679967,2,3,2,4,9,10,6,6
1558435506679967,1,1,5,5,4,3,4,2
1558435506694928,-1,-1,6,1,0,3,3,-1
1558435506694928,-2,-3,-6,-2,-7,-4,-5,-3
1558435506701908,-4,0,-4,-4,-3,-4,-2,-4
1558435506701908,-3,-3,-3,-2,-5,-4,-2,-1
1558435506716868,1,-3,-2,-1,-2,-5,-3,2
1558435506716868,-2,-1,-2,0,-3,-1,-5,-6
1558435506762753,-5,-3,4,4,5,1,6,5
1558435506762753,1,0,2,1,4,6,3,3
1558435506763742,-4,-2,-3,0,-2,-3,-5,-3
1558435506763742,-1,-1,-2,-2,-2,-5,-1,0
1558435506763742,2,-1,-2,-2,0,0,1,-1
1558435506763742,1,1,0,-2,-3,-3,-4,-3
1558435506764739,-9,-8,0,-3,-5,0,-3,-3
1558435506764739,-2,-3,-3,2,-3,-4,-1,-1
1558435506768729,3,3,2,3,8,6,9,6
1558435506768729,-2,-3,-5,-4,-3,-2,-1,-1
1558435506775710,6,4,-1,-2,-3,-1,-3,-3
1558435506775710,0,-3,0,-3,-5,-2,-6,-3
1558435506791667,-3,-1,-6,-3,-7,-6,-3,-3
1558435506791667,-3,-2,-3,2,-3,-4,-3,-3
1558435506799646,3,4,2,3,11,11,7,6
1558435506799646,-2,-1,0,0,-1,-1,-3,-5
1558435506806628,1,0,0,-1,-1,-2,-4,-1
1558435506806628,1,0,2,-1,-2,1,2,-3
1558435506813609,-2,-2,-2,-4,-5,-11,-4,-1
1558435506813609,3,-1,2,0,5,3,-1,1
1558435506828569,-1,-1,-3,-1,-5,-1,0,-1
1558435506828569,-8,-6,-3,-2,-5,-8,-5,-4
1558435506835551,0,-3,2,0,-2,3,2,-1
1558435506835551,3,4,0,1,7,5,3,4
1558435506843529,-11,-9,-2,-3,-5,-7,-9,-7
1558435506843529,4,2,0,-1,2,4,4,2
1558435506858489,0,-1,-1,-1,3,-1,-3,-1
1558435506858489,-5,-5,-1,-2,-8,-5,0,-3
1558435506866470,1,-1,-1,-1,-1,-3,-4,-3
1558435506866470,4,2,-1,0,4,5,7,4
1558435506873450,-1,0,0,2,4,2,1,-1
1558435506873450,-3,-3,-1,1,5,3,1,0
1558435506889410,0,2,-1,-1,-1,1,-5,-4
1558435506889410,-4,-5,-3,-2,-7,-8,-6,-4
1558435506904366,-2,0,-4,-3,-5,-5,-1,1
1558435506904366,0,4,3,1,1,2,1,0
1558435506904366,1,-1,-1,1,3,3,3,2
1558435506904366,2,0,-2,0,8,5,-1,1
1558435506918328,1,-2,1,-3,-5,-1,0,-2
1558435506918328,-4,-4,-3,-3,-8,-10,-5,-4
1558435506926308,4,3,1,0,-3,-4,-4,-1
1558435506926308,-1,3,0,-3,0,2,2,1
1558435506933290,1,-1,1,3,9,6,0,-1
1558435506933290,-1,-1,-3,-3,-3,-4,-2,-1
1558435506949247,2,-2,-4,-4,-1,-3,-3,-6
1558435506949247,1,1,1,0,2,4,2,1
1558435506956229,2,-1,-1,0,0,1,3,2
1558435506956229,-2,0,0,-1,2,1,5,3
1558435506971195,0,5,0,-2,-2,-3,-5,-1
1558435506971195,-2,-2,-2,-4,-9,-10,-5,-7
1558435506978168,-6,-6,-6,-5,-5,-4,-3,-1
1558435506978168,5,1,3,7,9,6,4,2
1558435506995123,0,-2,1,0,1,0,2,2
1558435506995123,-1,-3,-2,1,2,2,-3,-2
1558435506996121,1,2,3,0,-6,-7,-2,-2
1558435506996121,-1,-2,-8,-4,-6,-5,-3,-5
1558435507009088,-1,-1,-1,-1,-4,-3,0,-4
1558435507009088,-11,-10,-2,-5,-5,-3,-3,0
1558435507016069,4,2,1,3,7,6,3,1
1558435507016069,-1,-2,0,-3,-2,-1,-4,-1
1558435507023057,-2,-1,2,-1,-3,-2,-5,-2
1558435507023057,2,2,0,-1,1,-2,0,1
1558435507038009,-1,1,-1,0,0,-2,0,1
1558435507038009,0,-1,-2,-1,5,7,2,1
1558435507045987,2,1,-1,-3,-1,1,-1,0
1558435507045987,-9,-4,0,1,0,-2,-1,-1
1558435507052969,-3,-1,-4,-1,-6,-7,-3,-5
1558435507052969,-1,0,-3,-5,-5,-2,-3,0
1558435507068926,-1,-3,-2,-2,-1,2,2,1
1558435507068926,2,2,1,2,-1,1,1,2
1558435507075908,1,2,1,-2,0,1,-1,-4
1558435507075908,0,-1,2,1,5,3,2,-1
1558435507091869,-2,-5,-2,-1,-3,-2,1,0
1558435507091869,6,1,0,2,3,2,-1,-1
1558435507097849,2,0,-2,-2,-3,-5,-3,1
1558435507097849,-11,-9,-4,0,-6,0,-1,-2
1558435507106825,-2,1,0,0,3,1,3,2
1558435507106825,-1,0,-1,-1,-1,-2,-1,-4
1558435507120787,-1,-1,-1,-3,-3,-5,-2,1
1558435507120787,0,0,-1,-4,-8,-4,-3,-5
1558435507129763,-3,-2,-1,1,4,2,-3,-2
1558435507129763,-2,-2,-1,1,1,0,-1,-1
1558435507135747,-5,-5,-4,-3,-1,0,0,-1
1558435507135747,0,1,0,2,-1,-4,3,3
1558435507151705,-2,-3,-1,-3,-6,-1,0,-1
1558435507151705,1,6,2,1,5,2,-2,-2
1558435507158686,0,-2,0,0,-5,-4,-6,-2
1558435507158686,-1,-1,-3,-2,0,-3,-5,-4
1558435507167663,2,2,-1,-1,-2,-3,1,-2
1558435507167663,2,-1,0,-1,-1,2,2,0
1558435507180628,-1,-2,2,0,4,2,3,2
1558435507180628,0,1,0,-1,0,-1,-1,0
1558435507189625,0,-1,-1,-1,0,1,-2,-1
1558435507189625,7,6,-2,-5,-9,-9,-9,-7
1558435507195587,-15,-12,-5,0,0,-1,2,-5
1558435507195587,1,-2,-1,-1,3,4,4,5
1558435507212541,-2,-2,0,0,-2,-7,-4,-3
1558435507212541,1,1,2,1,1,1,2,1
1558435507218525,4,5,2,0,-2,0,-5,-1
1558435507218525,-1,1,-2,-4,-1,2,0,-2
1558435507227503,-5,-4,-4,-1,-3,-2,-2,-2
1558435507227503,-3,-3,-3,-4,-7,-9,-5,-2
1558435507249442,0,0,-3,-2,-1,-4,-2,1
1558435507249442,2,1,1,0,5,6,7,1
1558435507251438,2,3,0,1,8,7,1,1
1558435507251438,-1,-1,-3,-2,-2,-6,-5,-3
1558435507255428,0,-3,-2,0,-1,3,-1,-3
1558435507255428,0,-2,0,-2,-6,-7,-4,-2
1558435507272384,-2,-2,-2,-1,-3,-5,-3,-3
1558435507272384,-6,-5,-1,-4,-6,-6,-4,-3
1558435507278367,-3,-3,-6,-5,-7,-5,-5,-6
1558435507278367,7,10,4,6,2,-5,2,8
1558435507294325,-4,-3,3,3,9,9,7,4
1558435507294325,-1,-2,0,-1,5,9,3,0
1558435507300308,1,-1,-1,0,2,0,0,-1
1558435507300308,-3,-1,-1,-4,-8,-7,-11,-7
1558435507309283,2,3,-3,-3,-1,-1,0,-2
1558435507309283,-3,-5,-1,0,0,2,2,-1
1558435507316264,-1,-4,-3,-5,-9,-3,-5,-3
1558435507316264,-2,0,0,-2,-5,-5,-6,-8
1558435507332222,1,-2,-1,-3,-6,-2,0,1
1558435507332222,0,2,2,5,13,9,7,5
1558435507338206,0,0,1,2,5,2,3,3
1558435507338206,-2,-1,4,2,6,0,2,2
1558435507353165,-2,-2,-2,-6,-5,-3,-8,-5
1558435507353165,-2,-2,-1,-2,-6,-6,-3,-3
1558435507361146,0,2,1,2,-2,-2,-1,0
1558435507361146,0,-3,-4,-2,-3,0,0,-1
1558435507370122,-2,0,-2,-4,-6,-5,-3,-2
1558435507370122,4,1,-1,-4,-9,-7,-5,-4
1558435507376105,-4,-2,-6,-6,-5,-2,-4,-4
1558435507376105,-4,-1,4,7,12,4,6,6
1558435507392061,1,1,1,6,15,15,9,4
1558435507392061,0,0,0,2,4,4,3,1
1558435507398045,2,0,0,-3,-4,-5,-2,-3
1558435507398045,-2,-4,-6,-6,-14,-14,-10,-8
1558435507407022,-4,-1,0,-2,-3,-3,0,-2
1558435507407022,-1,1,-1,3,3,2,5,5
1558435507420984,-2,-3,-3,-6,-10,-9,-6,-4
1558435507420984,-3,-4,-6,-7,-5,-3,-7,-4
1558435507429961,2,1,3,4,4,-3,2,3
1558435507429961,0,-2,0,2,6,9,2,0
1558435507435945,3,2,4,3,9,9,7,4
1558435507435945,-2,-2,-3,0,-1,0,-2,-2
1558435507451903,0,2,-3,-3,-7,-9,-9,-4
1558435507451903,-5,-6,-1,-4,-5,-6,-1,-1
1558435507457885,-1,-2,-1,2,-1,2,2,1
1558435507457885,-1,-4,-1,-4,-4,-1,-5,-4
1558435507466863,-4,-5,-3,-2,-10,-7,-7,-7
1558435507466863,1,5,-2,-6,-7,-8,-9,-3
1558435507480824,-4,-3,6,5,18,12,17,8
1558435507480824,0,0,-1,1,8,8,3,0
1558435507489800,-2,-2,-1,-1,1,1,0,1
1558435507489800,-2,-2,-3,-2,-9,-10,-9,-7
1558435507495784,0,0,-2,-2,-11,-10,-10,-4
1558435507495784,0,3,1,1,0,5,6,3
1558435507511742,-1,0,0,2,7,6,3,-2
1558435507511742,1,4,0,0,3,4,2,0
1558435507518722,-8,-5,-1,1,4,5,0,-3
1558435507518722,-1,-4,-2,-2,-6,-6,-2,-2
1558435507526701,0,-2,-1,-4,-9,-6,-5,-3
1558435507526701,-1,-1,-1,0,-3,-1,-1,0
1558435507549640,1,1,-2,1,1,-2,-1,-2
1558435507549640,-2,-1,-2,-1,-1,1,-3,-2
1558435507550637,-3,-3,-2,-1,-3,-4,-3,-3
1558435507550637,0,-1,2,4,6,2,0,5
1558435507555625,0,3,2,2,0,0,1,1
1558435507555625,-3,0,-3,-4,-4,-2,-4,-1
1558435507572580,-1,-1,-1,-4,-7,1,-1,-5
1558435507572580,-6,-4,-1,0,2,2,1,-2
1558435507578565,1,-1,0,-2,2,0,-1,2
1558435507578565,1,-1,1,2,1,-3,3,3
1558435507593523,1,0,1,-1,-5,-5,-3,1
1558435507593523,-2,-4,-4,-5,-7,-7,-7,-5
1558435507610477,1,4,4,-1,-3,-15,-4,-4
1558435507610477,0,-1,-1,0,6,-10,5,2
1558435507611482,-2,-1,-3,-3,1,-14,-4,0
1558435507611482,1,3,0,2,3,-2,6,2
1558435507615470,-2,-1,-3,-5,-1,5,-6,-2
1558435507615470,-2,-2,-4,-4,-12,13,-3,-5
1558435507632422,0,1,2,3,4,18,3,2
1558435507632422,-1,-1,0,0,5,12,-3,2
1558435507638404,0,-1,-5,1,1,8,-1,-3
1558435507638404,-1,-1,0,1,2,5,-2,-3
1558435507647379,-1,-1,-3,-3,-6,-4,-2,0
1558435507647379,0,-3,-3,-3,-6,-7,-5,-4
1558435507660347,-3,2,1,-1,-5,-7,0,-1
1558435507660347,3,-1,1,1,0,-1,1,0
1558435507669321,-8,-3,0,2,5,1,-1,-1
1558435507669321,-3,-4,-6,-3,-5,-9,-5,-2
1558435507675309,1,0,-4,-4,0,-1,0,-2
1558435507675309,0,2,-2,-2,-2,-6,-2,0
1558435507692261,-1,-2,0,-1,0,0,3,-1
1558435507692261,1,-1,-1,2,4,3,1,-1
1558435507698245,-1,-3,0,-2,-3,-3,-3,-1
1558435507698245,-2,-3,-2,3,3,3,2,-1
1558435507707221,0,1,-3,-2,2,0,0,-1
1558435507707221,-3,-2,-2,-2,-7,-4,-1,-3
1558435507721183,3,1,0,-1,-1,0,0,0
1558435507721183,-2,-4,-2,-3,-1,-4,-4,-2
1558435507730159,-1,0,-2,-1,-4,-5,-5,-5
1558435507730159,-2,-1,1,-1,-1,0,2,-1
1558435507743123,0,1,-1,2,-2,-2,5,1
1558435507743123,0,1,0,-1,1,-3,-7,-1
1558435507752099,1,-3,-1,-2,0,-3,-1,4
1558435507752099,0,3,-1,-4,1,6,0,-2
1558435507767062,-3,-2,-2,0,-1,3,3,1
1558435507767062,-2,0,2,4,3,4,1,0
1558435507769055,-1,-2,-2,-1,-2,-2,-6,-5
1558435507769055,0,-1,-2,-2,-5,-4,-1,0
1558435507781024,1,-2,1,0,-4,-4,1,0
1558435507781024,-2,0,-2,-2,1,4,1,-3
1558435507790000,1,0,-2,-2,-1,-2,-2,-2
1558435507790000,-2,-3,-1,-2,-4,-6,-4,-1
1558435507802967,-4,-3,-2,-2,-2,-3,-6,-4
1558435507802967,-1,-3,-2,0,-3,-4,-1,-1
1558435507811945,-3,-3,-1,1,2,3,3,2
1558435507811945,1,1,0,0,-1,-3,2,3
1558435507827901,2,-1,-2,-1,0,-3,-7,-3
1558435507827901,0,2,0,-3,-6,-2,-5,-4
1558435507828895,3,-1,1,3,7,9,5,1
1558435507828895,-9,-9,0,1,1,3,-1,-1
1558435507840864,1,-2,-1,-1,-1,-5,2,-1
1558435507840864,0,2,-3,-5,-9,-6,-7,-2
1558435507849842,-7,-6,-3,-2,-2,1,3,1
1558435507849842,0,1,1,2,4,1,2,2
1558435507863837,0,-2,-2,-3,-2,-3,-3,0
1558435507863837,-3,-3,-1,-4,-6,-6,-4,-3
1558435507871782,3,2,-1,0,-3,-3,-3,-1
1558435507871782,0,-1,-1,-1,1,3,-5,-2
1558435507887820,-5,-3,-3,0,0,2,0,-2
1558435507887820,1,-1,0,2,4,3,6,3
1558435507888736,0,2,0,2,1,-2,0,0
1558435507888736,-3,-2,-2,-4,-4,-3,-4,-2
1558435507901008,0,-1,-1,0,-3,-4,-2,1
1558435507901008,-3,-2,-2,-1,-1,-1,-2,-4
1558435507909686,-2,-5,-4,-5,2,2,-1,-4
1558435507909686,3,3,0,-2,-3,0,4,2
1558435507923641,1,1,0,0,5,5,-1,-1
1558435507923641,-1,-4,0,-2,-1,-3,-1,0
1558435507932619,-4,-3,-3,-4,-9,-9,-3,-2
1558435507932619,2,-1,-2,-1,-2,-2,-2,-2
1558435507947578,-3,0,-1,1,5,7,2,2
1558435507947578,1,-2,-1,2,2,3,2,0
1558435507948575,3,-1,2,-2,-2,0,-2,0
1558435507948575,-3,-1,-1,0,-2,-4,-2,-5
1558435507960541,-1,-2,-3,-3,-6,-2,-2,-3
1558435507960541,-2,3,2,0,2,0,3,2
1558435507969678,0,3,3,1,4,3,1,2
1558435507969678,-1,-2,-2,-4,-4,-4,-4,-3
1558435507992458,-1,-4,2,-3,-2,-2,-2,-3
1558435507992458,-2,-1,-2,-1,3,-1,-2,-1
1558435507993453,0,0,-1,0,-2,-1,4,2
1558435507993453,-1,0,0,0,5,5,-1,-1
1558435508006419,-2,-2,-2,-2,1,-1,-4,-5
1558435508006419,-1,-2,-3,-1,-5,-3,-3,-5
1558435508014397,2,1,-2,-2,-5,-3,-2,-3
1558435508014397,-4,-3,-1,0,-2,-1,1,-1
1558435508020380,-4,-1,0,-1,-5,-5,-1,0
1558435508020380,5,2,0,0,4,1,3,3
1558435508029356,-2,-2,-1,3,2,-1,-3,0
1558435508029356,1,0,0,-3,-5,-5,-3,-3
1558435508043319,2,0,-1,-3,-3,-4,-5,-1
1558435508043319,-4,-4,-2,-4,-2,-1,0,-1
1558435508052295,1,3,2,1,5,3,5,2
1558435508052295,-2,-2,-2,0,1,1,-1,-2
1558435508067256,-3,-1,-1,1,-1,-2,-1,-2
1558435508067256,-2,0,-2,0,0,-1,-2,0
1558435508068254,-4,-4,0,-2,0,1,1,2
1558435508068254,1,-1,0,1,4,6,3,0
1558435508081254,-1,0,0,-1,-1,4,0,0
1558435508081254,-2,-2,-1,-2,-2,0,-3,-4
1558435508089493,-4,-6,-4,-3,-6,-5,-4,-5
1558435508089493,-1,-4,-2,-2,-3,-4,-3,0
1558435508103193,2,3,-1,0,-3,-7,0,3
1558435508103193,2,0,2,1,2,0,1,1
1558435508112135,1,5,1,0,-1,1,1,-3
1558435508112135,-8,-13,-4,-4,-3,-1,-2,-1
1558435508127095,0,1,-1,-1,1,6,1,-2
1558435508127095,-1,0,-2,-1,-1,-3,-5,-1
1558435508128093,0,1,0,1,-1,-4,-4,-2
1558435508128093,-1,3,0,0,0,-4,-2,-2
1558435508141058,3,1,1,-2,2,3,4,5
1558435508141058,-10,-8,0,1,-2,1,-1,-3
1558435508150035,-3,-6,-4,-4,-2,-5,-6,-5
1558435508150035,3,2,-2,-1,0,0,-3,-2
1558435508162998,-2,-1,1,0,1,2,1,2
1558435508162998,-1,1,-2,-3,0,1,2,0
1558435508171979,-2,-1,-1,-2,-4,-3,-3,-1
1558435508171979,-3,0,-1,-2,-3,-4,-2,-2
1558435508186936,-3,-2,-3,-2,-8,-6,-4,-7
1558435508186936,4,0,-1,2,5,3,4,4
1558435508188931,0,2,-1,-1,5,4,1,3
1558435508188931,4,3,1,1,6,-1,3,3
1558435508200898,1,2,0,-1,0,2,0,-3
1558435508200898,-3,0,-2,-2,-8,-7,-4,-5
1558435508209874,-1,-4,-1,0,1,-1,5,2
1558435508209874,0,-4,-3,-2,-1,3,-1,0
1558435508222840,2,1,-2,-1,-1,-1,-2,-4
1558435508222840,-1,-1,-1,-1,-2,-3,0,0
1558435508231815,1,1,1,1,1,-1,-2,-2
1558435508231815,-2,-1,-3,0,-1,-4,-2,-1
1558435508246775,-4,-4,-3,-3,-4,-4,-4,-2
1558435508246775,3,1,2,-1,0,2,1,0
1558435508252817,0,-1,-3,-5,-5,-1,-3,-1
1558435508252817,4,3,2,0,0,3,2,4
1558435508260796,-9,-6,-7,-3,-3,-5,-6,-4
1558435508260796,0,-1,-2,-2,-1,-6,-3,1
1558435508269714,-2,-2,-4,-3,-1,1,1,-1
1558435508269714,3,1,1,0,-4,0,-1,-3
1558435508283677,2,1,3,-1,0,1,-1,0
1558435508283677,3,-1,0,-2,-5,-4,-5,0
1558435508292653,-4,-3,-4,-1,-3,-8,-3,-2
1558435508292653,0,1,0,2,5,5,5,2
1558435508306654,1,-4,-1,0,2,2,3,1
1558435508306654,-4,-3,-2,-3,-3,-1,-4,-5
1558435508313595,2,1,0,1,4,7,1,1
1558435508313595,-5,-4,-5,-2,-5,-3,-6,-3
1558435508320577,-1,-1,-1,-2,-1,-1,0,-1
1558435508320577,3,4,-3,-2,-2,-2,-1,0
1558435508337532,-1,-4,-2,-1,-3,-2,-3,-1
1558435508337532,-3,-3,-2,-2,-2,0,-1,-2
1558435508343517,0,-1,1,2,3,1,2,2
1558435508343517,-4,-1,-3,-2,0,-1,-2,0
1558435508358479,-2,-1,-1,0,-4,-7,-2,-2
1558435508358479,-5,-1,-2,-1,-5,-3,-2,-1
1558435508366489,1,-1,-1,-3,0,-3,3,0
1558435508366489,2,1,-1,-2,-1,3,0,-1
1558435508373439,-6,-1,-1,1,-3,-6,-6,-3
1558435508373439,-4,-7,1,3,5,5,3,-1
1558435508380419,-1,0,-3,-1,-3,2,1,-1
1558435508380419,-5,-5,-1,-3,-5,-6,-7,-8
1558435508389396,3,1,-2,-3,-7,-5,-1,1
1558435508389396,9,6,5,5,13,7,5,5
1558435508403358,-2,-2,-1,4,10,8,1,1
1558435508403358,-3,-5,-3,1,-1,1,-1,-2
1558435508412332,-3,-5,-5,-6,-9,-5,-7,-4
1558435508412332,-1,0,-4,-7,-10,-9,-8,-4
1558435508426296,0,0,0,1,0,-1,4,3
1558435508426296,2,3,3,3,8,3,6,4
1558435508433276,0,-2,3,2,1,-1,2,3
1558435508433276,-3,-4,-4,-6,-4,1,2,-1
1558435508440259,1,1,-1,-1,0,4,-2,-2
1558435508440259,-4,-2,-3,-2,-7,-5,-6,-7
1558435508449235,-3,-3,2,1,1,-1,2,0
1558435508449235,5,3,2,-1,1,-4,2,1
1558435508463197,-7,-7,-1,-4,-5,-5,-8,-4
1558435508463197,0,-1,1,1,0,2,3,3
1558435508472172,1,2,1,2,7,6,1,-1
1558435508472172,-1,0,-1,-1,-4,-4,-2,-1
1558435508486136,1,0,-1,-3,-2,-5,0,1
1558435508486136,-4,-5,-2,-4,-4,-6,-6,-4
1558435508493117,1,-1,-3,-2,0,-1,-2,1
1558435508493117,0,2,-2,-1,-4,-5,-7,-4
1558435508509108,-2,-1,-1,-2,-3,-3,-1,-5
1558435508509108,-2,-2,-2,-2,-2,-1,1,2
1558435508511067,1,0,0,1,5,6,4,1
1558435508511067,-1,-1,1,0,2,-1,-1,-1
1558435508523035,0,1,-1,1,-4,-3,-4,-3
1558435508523035,-1,0,1,1,1,3,0,1
1558435508532012,0,-1,-1,-3,0,1,2,-3
1558435508532012,1,0,-2,-5,-4,-3,2,1
1558435508545974,-5,-6,0,-2,-2,-4,-2,-3
1558435508545974,2,1,0,-3,1,1,1,1
1558435508552955,-2,0,0,0,-1,-1,-4,-4
1558435508552955,-1,-1,0,1,-2,-1,-3,-3
1558435508570970,3,3,-6,-5,-7,-4,-2,1
1558435508570970,-9,-10,-4,1,5,0,2,-1
1558435508571906,-1,-3,1,-1,2,3,3,3
1558435508571906,-1,1,0,1,0,2,2,0
1558435508582934,1,1,-1,0,-2,-4,-5,0
1558435508582934,2,1,0,1,2,-1,0,0
1558435508591904,-1,2,0,-2,-4,-2,-1,-2
1558435508591904,-4,-5,-2,-4,-3,0,1,-2
1558435508606813,-2,-3,-1,-1,-1,-2,-3,-1
1558435508606813,0,-1,-5,-3,-5,-5,-6,-3
1558435508612831,0,0,-1,0,-1,-1,-1,-1
1558435508612831,-1,0,0,0,0,0,1,-1
1558435508629750,-2,-2,1,-2,4,7,2,1
1558435508629750,4,1,0,-2,-2,-2,2,3
1558435508630748,-2,0,-1,-1,-3,-5,-5,-3
1558435508630748,-1,-3,-2,-3,-2,-2,0,0
1558435508643714,-2,-2,2,1,4,2,5,-3
1558435508643714,-1,0,0,1,1,6,-1,0
1558435508668647,2,4,-2,-2,0,-1,0,0
1558435508668647,-7,-10,-3,-2,-2,-2,-3,0
1558435508669644,0,-1,-2,0,-2,-2,2,1
1558435508669644,-2,-2,-3,-3,-6,-7,-6,-6
1558435508673672,1,-2,-3,0,-4,1,-1,-2
1558435508673672,3,2,2,3,7,3,3,4
1558435508689591,-1,-1,-1,-2,-2,-1,1,-1
1558435508689591,-3,-1,1,-1,-2,-3,0,-2
1558435508690587,-3,-2,0,0,2,0,-5,-5
1558435508690587,-2,-1,-4,-3,-6,-4,-3,-1
1558435508703592,-2,0,0,-1,2,1,-1,-1
1558435508703592,1,0,0,-1,-2,3,-2,2
1558435508712563,-2,-4,-1,-3,-1,-4,2,2
1558435508712563,0,0,0,1,1,0,-2,-1
1558435508725495,1,2,0,-2,-4,-4,-5,0
1558435508725495,4,1,0,2,4,4,8,1
1558435508734471,-9,-6,-2,0,2,4,0,0
1558435508734471,-1,0,-3,-4,-3,-2,-2,-3
1558435508749432,-1,-4,-3,-1,-4,-4,-3,-3
1558435508749432,1,3,-3,-3,-1,-3,-3,-2
1558435508751425,-7,-9,-1,1,2,0,1,-1
1558435508751425,-2,-3,-2,-3,-5,-5,-2,-3
1558435508763394,-3,-2,0,0,1,-1,1,2
1558435508763394,-1,-2,-2,0,1,3,0,0
1558435508772370,1,1,-1,-2,-3,-4,-4,2
1558435508772370,-3,-1,-2,-3,0,3,-4,-2
1558435508785373,1,-1,-3,-2,-1,1,-2,-1
1558435508785373,-3,-3,-2,0,2,1,-1,-3
1558435508794311,1,2,2,0,3,3,3,0
1558435508794311,0,-2,-4,-3,-7,-3,0,-1
1558435508809309,-1,1,-2,-2,-3,1,0,-4
1558435508809309,-4,0,1,-2,-2,-3,-2,-4
1558435508811300,1,1,-2,0,1,-2,-3,1
1558435508811300,-1,-1,0,-1,-1,-3,-6,-2
1558435508823232,-3,-2,-2,-1,-4,-1,1,2
1558435508823232,-3,-2,-1,-1,-4,-3,2,0
1558435508832208,1,2,-1,-1,-1,-3,0,0
1558435508832208,1,1,-2,-1,2,0,-1,0
1558435508846195,-3,0,2,4,4,6,3,3
1558435508846195,1,0,1,-1,-4,-4,-3,0
1558435508855147,-2,-1,0,-3,-7,-4,-4,-6
1558435508855147,-2,-2,1,0,-2,-1,2,1
1558435508869149,2,0,1,0,2,-1,0,0
1558435508869149,-1,-5,-3,1,6,5,2,2
1558435508871104,3,3,0,0,-2,-2,-2,-4
1558435508871104,0,1,-1,-1,-7,-7,-4,-3
1558435508883074,-2,-1,-4,-2,-6,-4,-4,-5
1558435508883074,2,2,2,3,7,4,3,2
1558435508892048,1,-2,-1,-1,-1,-4,-1,0
1558435508892048,-2,-2,-2,-1,2,1,1,0
1558435508914989,1,-1,0,0,-1,-5,-7,-3
1558435508914989,-3,-2,-5,-3,-6,-3,-2,-2
1558435508915987,-2,-2,-3,-1,-3,-3,-1,-1
1558435508915987,1,0,1,2,5,6,3,0
1558435508928950,0,0,0,-1,2,1,3,4
1558435508928950,-3,-2,0,-1,-2,-2,-2,-2
1558435508936931,-2,-4,-5,-4,-6,-2,-4,-4
1558435508936931,-2,-3,-2,-1,-2,-6,-3,-1
1558435508942912,1,-1,1,2,6,4,4,3
1558435508942912,1,2,3,1,3,0,-1,-1
1558435508951888,-1,-1,-1,0,2,6,3,2
1558435508951888,2,4,1,-2,-3,-4,-2,-2
1558435508965853,-11,-16,-8,-4,-7,-7,-4,-3
1558435508965853,-3,-3,-4,-3,-6,-5,-5,-6
1558435508980869,2,1,1,2,6,3,-4,1
1558435508980869,1,1,0,0,4,7,4,-3
1558435508989789,2,1,0,-2,-4,-3,0,-1
1558435508989789,-3,-1,-3,-3,-11,-12,-7,-1
1558435508990784,-1,0,1,1,5,5,1,2
1558435508990784,-1,0,1,0,4,4,2,2
1558435509002791,1,2,0,1,-1,-1,-2,-2
1558435509002791,-2,-1,1,0,1,3,-1,1
1558435509011760,-1,1,-1,1,0,-1,0,-1
1558435509011760,-2,0,-1,2,-1,-2,-1,0
1558435509025726,0,-1,-2,-5,-6,-6,-4,-5
1558435509025726,-2,-5,-3,-3,-2,2,-1,-1
1558435509042647,-1,-1,-1,-1,0,-1,3,1
1558435509042647,-3,-3,-1,0,2,0,2,1
1558435509050021,2,2,0,1,4,4,4,0
1558435509050021,3,6,1,-2,-3,-4,-8,-1
1558435509050626,-11,-13,-3,-4,-6,-3,-7,-6
1558435509050626,0,-3,-5,-1,-4,-6,-6,0
1558435509063657,2,0,-1,-1,-1,-2,2,2
1558435509063657,0,-1,0,4,7,5,2,4
1558435509072567,2,2,-1,-4,-5,-3,-3,-2
1558435509072567,-5,-7,-2,-4,-5,-5,-2,-2
1558435509086686,-1,2,-2,0,-4,-4,-3,-5
1558435509086686,6,6,4,3,15,17,10,3
1558435509102488,-5,-3,-1,-2,-4,-6,-4,-3
1558435509102488,-3,-2,1,-1,-3,-1,-3,-3
1558435509109496,-1,-3,-1,1,0,1,-2,1
1558435509109496,-1,-4,-3,-6,-6,-4,0,-1
1558435509111484,4,3,-3,-2,1,1,0,-2
1558435509111484,0,-2,-2,-1,-1,1,2,2
1558435509123503,-3,-3,-2,0,-2,-3,-4,-5
1558435509123503,-1,-1,0,-1,-2,-1,0,1
1558435509132478,2,2,0,-1,0,0,-6,-2
1558435509132478,-3,-3,-3,-3,-4,-5,0,0
1558435509145472,-2,-3,-4,-4,-2,-1,-2,-2
1558435509145472,-2,-2,1,1,-6,-4,0,-1
1558435509154416,2,3,0,0,-2,-1,4,1
1558435509154416,3,7,0,0,1,1,-2,-2
1558435509169406,-4,-5,-1,-3,-1,0,-3,0
1558435509169406,-5,-5,-2,-1,-1,-3,-3,-2
1558435509171371,0,-1,-2,0,-2,-5,-2,-1
1558435509171371,2,1,0,-3,-4,-1,-3,-4
1558435509192352,4,2,1,0,4,1,4,2
1558435509192352,-1,-1,-2,0,-1,-2,-3,0
1558435509193313,0,-1,2,0,-3,-2,-1,-1
1558435509193313,-2,-2,0,-2,4,2,6,3
1558435509214257,-1,0,1,2,0,3,-3,0
1558435509214257,-2,-5,-2,-5,-3,-1,0,-2
1558435509216280,-2,-4,-1,-1,-2,-4,-3,-2
1558435509216280,-4,-3,-2,0,-4,-5,-6,-4
1558435509237195,1,2,1,0,4,2,3,2
1558435509237195,3,2,0,0,1,-1,-2,-2
1558435509238193,2,-1,-2,-2,-3,-1,1,-2
1558435509238193,-11,-8,-5,-5,-5,-5,-7,-5
1558435509243180,-1,-1,-3,-2,-2,0,2,1
1558435509243180,-3,-1,2,2,7,6,3,-2
1558435509252157,2,3,1,-1,1,2,0,2
1558435509252157,1,-1,0,2,0,0,0,-2
1558435509266117,-2,-2,-1,0,-3,-4,-5,-3
1558435509266117,0,-1,-5,-4,-6,-9,1,0
1558435509275105,-10,-7,-1,0,3,2,1,2
1558435509275105,2,1,1,3,3,3,0,-1
1558435509289059,-3,-1,-2,-8,-8,-8,-7,-3
1558435509289059,-2,0,-2,-3,-6,-1,-3,-1
1558435509296038,-2,-5,0,-3,-3,-3,0,-3
1558435509296038,1,1,0,5,8,8,4,4
1558435509303019,2,1,-1,-1,-2,1,-1,-3
1558435509303019,-1,-1,-2,0,-2,-2,-7,-5
1558435509311995,-1,1,-2,0,-1,0,0,0
1558435509311995,1,0,2,-2,-2,0,1,0
1558435509325959,-1,-5,-1,-2,-2,-4,0,-2
1558435509325959,-3,0,1,-2,-4,-4,-2,1
1558435509334935,-2,1,1,5,4,6,5,0
1558435509334935,1,-2,1,-3,4,0,-4,-1
1558435509348896,-2,2,0,0,0,-1,1,0
1558435509348896,-3,-4,-1,0,-1,-1,2,3
1558435509355880,2,1,-4,-4,-3,-2,-2,-4
1558435509355880,-7,-8,-3,-3,-6,-4,-3,-2
1558435509362859,3,1,-1,0,-1,1,-2,0
1558435509362859,-7,-4,-3,-2,-3,-4,-5,-4
1558435509371835,-2,-2,-1,0,-4,-3,-2,1
1558435509371835,2,1,0,-1,0,0,-1,-2
1558435509385832,0,-1,2,2,1,0,1,3
1558435509385832,2,1,-1,1,4,3,2,-3
1558435509394773,1,2,0,1,1,-1,1,3
1558435509394773,-1,0,-1,-1,-3,-2,-4,-4
1558435509408738,-3,1,-1,0,-1,-3,-3,-4
1558435509408738,2,0,-1,-2,-2,1,-1,0
1558435509415718,-3,-3,-2,-4,-5,-6,-2,-2
1558435509415718,-2,2,-2,-1,-2,-2,2,4
1558435509422732,-1,-1,0,0,1,4,4,0
1558435509422732,0,1,0,1,6,2,0,-4
1558435509431674,0,-2,0,1,2,0,-2,-1
1558435509431674,0,-2,-1,-3,-3,-4,0,-1
1558435509445639,0,-2,-1,-1,0,1,0,1
1558435509445639,-2,-3,-2,-3,-5,-1,-3,-2
1558435509454614,0,0,-1,-2,-2,-5,-3,-1
1558435509454614,-1,2,0,-2,-5,-3,-1,-2
1558435509469573,-4,-2,-1,-2,-3,-4,-4,-2
1558435509469573,-1,-5,1,2,2,1,2,0
1558435509475769,2,5,2,2,3,2,-1,0
1558435509475769,-12,-13,-5,-4,-4,-1,-1,-3
1558435509499558,-1,0,-1,0,2,1,-4,-4
1558435509499558,-1,-1,-2,-3,-3,-4,0,2
1558435509501502,0,-2,0,1,-4,-4,-2,-2
1558435509501502,3,4,2,2,3,6,3,3
1558435509514511,0,-1,0,0,1,3,-1,0
1558435509514511,-2,-3,-3,0,0,3,4,1
1558435509520499,-3,-1,-5,-4,-2,-3,-2,-1
1558435509520499,-1,1,-1,0,-3,-6,-3,-3
1558435509537426,-4,-3,-2,0,-3,-2,0,-1
1558435509537426,0,0,0,-4,-3,-3,-2,-3
1558435509538390,0,-1,-1,0,4,3,1,0
1558435509538390,0,0,-2,1,2,2,0,-2
1558435509559364,0,-1,-2,-3,2,3,4,3
1558435509559364,1,0,0,1,-4,-3,-1,-1
1558435509561332,-1,-3,0,1,2,2,3,0
1558435509561332,-1,0,0,-1,4,1,-1,-1
1558435509565321,-1,1,0,-2,-3,-6,-2,-1
1558435509565321,-3,0,-2,-1,-3,1,-3,-2
1558435509574382,-2,-1,-1,-2,-6,-6,-5,-2
1558435509574382,5,0,-1,3,2,-1,-3,2
1558435509597261,1,3,1,-3,-1,1,-1,-1
1558435509597261,-4,-8,-2,0,-2,-6,-2,0
1558435509598252,-9,-6,-4,-1,-1,1,-1,-5
1558435509598252,0,-1,-2,-1,-2,1,-3,-1
1558435509612222,-1,-4,-2,-2,-4,-7,-3,-1
1558435509612222,1,2,1,2,3,-2,1,2
1558435509613218,0,1,1,0,5,6,2,0
1558435509613218,0,-1,-3,-2,-5,-3,-3,-4
1558435509626170,-4,-4,-2,0,2,3,-2,-1
1558435509626170,1,0,1,-2,-5,-5,-1,-3
1558435509635132,0,-2,-1,-1,7,5,1,3
1558435509635132,0,4,2,-3,-3,-4,-2,0
1558435509649123,0,-5,-1,0,-5,-3,-3,-1
1558435509649123,-2,0,-3,-1,2,2,0,-2
1558435509656075,-1,-1,-2,-3,-5,-1,-1,-1
1558435509656075,0,-2,1,1,3,2,3,2
1558435509672032,-2,2,-1,-1,-2,-1,-1,-1
1558435509672032,-2,-1,-4,-4,-6,-3,-6,-4
1558435509673030,-2,-3,-1,-5,-6,-5,-2,-2
1558435509673030,1,-1,0,-1,0,-4,0,2
1558435509686232,4,3,2,3,8,7,5,2
1558435509686232,-9,-7,0,-1,1,7,1,1
1558435509694245,-2,0,-4,-2,-3,-5,-8,-6
1558435509694245,-2,-3,-3,-2,-6,-2,-3,-5
1558435509709210,-2,-3,-2,1,0,-2,-1,1
1558435509709210,3,3,0,-1,-2,-3,1,0
1558435509716201,-2,-2,-4,-5,-5,-3,1,1
1558435509716201,-1,-3,-1,0,4,4,0,1
1558435509732156,-2,1,0,0,0,2,0,-5
1558435509732156,-1,1,-1,-1,-3,-2,0,-1
1558435509733112,1,1,2,2,0,-5,0,0
1558435509733112,0,0,-1,-1,-3,-2,0,-1
1558435509746111,-3,-3,-3,-2,-4,-1,-3,-4
1558435509746111,0,-3,-3,-1,-2,-2,-2,2
1558435509755053,0,0,-1,-1,-2,-5,-1,-3
1558435509755053,-1,0,1,1,6,5,2,2
1558435509769015,-1,1,-1,0,5,1,2,2
1558435509769015,-1,0,-2,-5,-6,-4,-5,-5
1558435509775995,5,2,-3,-3,-5,-3,-3,0
1558435509775995,-2,-1,-2,0,-1,-4,-4,-5
1558435509799931,-10,-11,-4,-5,-5,-3,-1,-3
1558435509799931,3,4,1,1,7,2,5,4
1558435509800929,2,2,3,5,8,10,6,1
1558435509800929,0,0,-1,-4,-7,-7,-5,-1
1558435509805916,0,-1,-2,-4,-3,-5,-4,-3
1558435509805916,2,-2,-2,0,-2,-2,-3,-1
1558435509814891,-3,-1,-2,-1,-2,-2,-2,-3
1558435509814891,-3,-3,-1,0,1,-2,1,-1
1558435509836833,-2,-4,-2,-2,-6,-5,-7,-1
1558435509836833,-3,-2,-2,-2,-2,-5,3,2
1558435509838830,1,0,0,2,9,8,4,4
1558435509838830,2,2,-3,1,5,6,-2,0
1558435509851971,0,-1,-2,-1,-2,-2,3,-3
1558435509851971,0,-3,-1,-1,-2,0,-5,-4
1558435509853787,-3,-4,-2,-1,-7,-7,-7,-5
1558435509853787,-4,-1,-2,-7,-11,-10,-5,-5
1558435509865870,3,1,1,2,2,5,5,4
1558435509865870,2,4,3,4,8,3,2,2
1558435509874731,0,2,-2,-5,-2,0,-4,-2
1558435509874731,-7,-9,-4,1,2,2,2,-1
1558435509888697,2,0,-1,-1,-3,-3,-4,0
1558435509888697,-3,-3,-4,-4,-3,-8,-7,-4
1558435509895748,1,2,2,0,1,-1,4,3
1558435509895748,1,1,-2,0,-2,-2,-1,-2
1558435509911633,-4,-2,-1,-1,0,-1,0,-2
1558435509911633,0,-1,-3,0,-2,0,-2,-3
1558435509913627,-2,-3,-1,0,-4,-3,-1,-2
1558435509913627,3,2,4,0,4,1,5,5
1558435509925626,0,1,0,0,3,2,5,0
1558435509925626,0,-3,-3,-1,2,1,-2,-2
1558435509934574,-3,-6,-1,-2,-4,-1,-6,-3
1558435509934574,-3,-2,-3,-3,-11,-8,-7,-3
1558435509948535,1,3,1,-1,-1,-4,4,-1
1558435509948535,-3,-2,-2,0,0,-2,1,1
1558435509955515,0,-1,-1,0,4,5,1,3
1558435509955515,1,2,-1,-1,4,6,-1,-4
1558435509972471,-9,-9,-3,-2,-4,-3,-6,0
1558435509972471,0,0,-2,-2,-5,-4,-2,-2
1558435509973467,0,-2,1,1,3,-1,5,3
1558435509973467,3,-2,-1,-1,0,1,0,-1
1558435509985592,-6,-2,-3,-3,-3,-6,-8,-8
1558435509985592,-1,-3,0,1,-4,0,3,1
1558435510002390,-4,-5,-3,-3,-6,-10,-6,-1
1558435510002390,-1,0,0,3,3,1,2,2
1558435510009535,1,2,-2,-3,-1,1,2,1
1558435510009535,-2,-1,-2,-2,0,0,-4,-4
1558435510023365,0,0,0,0,-1,-1,-6,-1
1558435510023365,-2,-4,-2,-2,-5,-3,2,-1
1558435510032338,1,1,0,1,-1,-3,-5,-1
1558435510032338,-1,-1,0,-3,-2,1,-1,-2
1558435510033312,-1,-1,-2,0,-2,-2,-2,-5
1558435510033312,1,3,2,0,7,5,4,4
1558435510045304,3,1,1,1,2,6,6,2
1558435510045304,-2,0,-2,0,2,-2,-5,1
1558435510054251,-1,-2,-1,-2,-3,-2,-2,-3
1558435510054251,1,1,-3,0,-4,-4,-4,-4
1558435510069246,-4,-9,-1,1,2,5,2,1
1558435510069246,0,-1,0,-1,-2,0,-1,-2
1558435510076218,-3,0,-1,-1,-2,-1,-2,-2
1558435510076218,-2,-1,-4,-4,-5,-6,-4,-3
1558435510094442,1,2,-1,0,1,-6,-3,-1
1558435510094442,-4,-6,-5,-6,-1,1,3,0
1558435510098243,1,1,1,-1,-1,0,0,0
1558435510098243,-4,-5,-2,0,1,4,-1,0
1558435510105188,1,0,-3,-1,0,-2,-4,-2
1558435510105188,-3,-3,0,-2,-6,-7,-5,-3
1558435510114163,0,-1,0,1,-2,0,1,-2
1558435510114163,-1,-3,-2,2,1,3,5,2
1558435510129156,-1,0,0,0,4,-1,-2,0
1558435510129156,2,4,3,4,5,5,2,3
1558435510136140,0,0,0,-3,-4,0,1,-1
1558435510136140,-2,-3,-2,-3,-6,-6,-3,0
1558435510152099,0,-4,-1,-1,-2,-4,-3,-2
1558435510152099,1,0,-1,-4,-6,-3,0,-2
1558435510153062,-2,-1,-3,0,1,1,-3,-3
1558435510153062,-1,-2,-1,0,1,2,1,0
1558435510166056,1,4,2,0,-3,-1,-1,-1
1558435510166056,-2,-1,2,2,1,1,-1,-1
1558435510175002,0,-2,0,1,-1,-3,-2,-1
1558435510175002,0,-3,-3,-8,-6,-5,-4,-2
1558435510188967,-1,-2,1,-2,-1,1,0,0
1558435510188967,5,5,1,1,1,2,2,1
1558435510195997,-11,-9,-1,1,0,-1,-1,-2
1558435510195997,1,-1,1,3,4,2,0,0
1558435510211906,-1,-4,-1,-1,-4,-3,-6,-5
1558435510211906,-1,-1,-3,-4,-5,-4,-2,-3
1558435510217952,2,-2,-3,-2,2,-3,0,3
1558435510217952,0,2,2,0,3,2,1,1
1558435510234904,0,2,-4,-4,-6,-1,0,0
1558435510234904,-2,-2,2,1,4,0,1,-1
1558435510236838,-2,-3,-4,-5,-6,-3,-6,-6
1558435510236838,-2,0,0,2,1,2,-1,-2
1558435510248861,1,2,-1,0,1,0,-3,-1
1558435510248861,-1,-1,-2,-1,-3,-2,0,-2
1558435510255785,-1,2,-1,-2,-3,-2,-2,0
1558435510255785,-2,-6,-1,-1,-3,-4,0,0
1558435510271743,-1,-2,0,1,2,4,4,2
1558435510271743,-1,-4,-2,1,-1,-1,0,-1
1558435510277728,3,2,-3,1,5,3,4,0
1558435510277728,0,2,-1,-1,-3,-1,-5,-1
1558435510285706,-6,-5,-4,-3,-3,-2,-2,-3
1558435510285706,0,-3,-1,-4,-7,-4,-6,-2
1558435510294682,0,0,-2,1,-2,-1,2,2
1558435510294682,3,2,0,1,5,2,2,1
1558435510308643,-5,-5,-3,-1,4,2,0,-1
1558435510308643,-1,1,-3,0,1,0,-2,1
1558435510323603,-5,-5,-3,-6,-8,-6,-9,-6
1558435510323603,-1,1,-1,0,-1,-2,3,-2
1558435510331784,7,5,2,2,1,-3,0,2
1558435510331784,-6,0,-1,1,5,6,1,-2
1558435510346739,-3,-4,-3,-2,-5,-7,-1,-2
1558435510346739,-3,-3,-3,-3,-6,-6,-6,-1
1558435510347660,1,0,-1,0,3,0,0,0
1558435510347660,0,1,1,0,5,7,4,1
1558435510354521,-1,2,2,0,4,4,4,3
1558435510354521,-4,-3,-2,-6,-7,-6,-4,-4
1558435510369677,-1,0,0,-2,-6,-7,-3,0
1558435510369677,-2,-3,-3,-1,-3,-4,-6,-4
1558435510375661,-2,-3,-1,0,1,1,0,-3
1558435510375661,1,2,1,0,1,-1,1,2
1558435510391424,-1,0,-2,1,1,4,0,1
1558435510391424,0,3,2,2,1,0,1,1
1558435510398537,-2,-2,-1,-1,-3,-1,-3,-1
1558435510398537,-2,-4,-3,-2,-2,3,-4,-4
1558435510414495,1,-4,-2,-2,-1,-2,3,3
1558435510414495,-1,-5,-2,-3,-10,-11,-6,-6
1558435510416356,3,1,1,1,4,0,3,0
1558435510416356,-4,0,3,0,3,5,4,0
1558435510429401,0,-2,-1,-2,0,0,-3,-1
1558435510429401,-1,-1,-2,1,2,1,1,0
1558435510436304,1,-2,-1,-1,-2,-1,-2,-1
1558435510436304,4,2,-2,-2,-4,-6,-3,-2
1558435510451352,0,2,0,-2,0,6,4,1
1558435510451352,-4,-3,-3,0,-1,-2,-4,-2
1558435510458308,0,1,-1,2,2,1,0,2
1558435510458308,-3,-1,1,1,3,1,-1,-2
1558435510474231,-3,-2,-2,-1,-6,-4,-4,-4
1558435510474231,0,-4,-3,-3,-3,-6,-3,1
1558435510476195,-1,1,2,0,0,3,2,-2
1558435510476195,-4,-1,-3,-1,-5,1,-2,-3
1558435510489191,-3,-2,-1,0,-4,-4,-1,-2
1558435510489191,-1,0,-1,0,0,2,-1,-1
1558435510496168,3,1,0,1,3,0,3,4
1558435510496168,-1,-3,-1,-2,-1,-2,-1,0
1558435510511133,0,1,-1,-3,-4,-1,-4,-7
1558435510511133,-2,-1,0,-2,-6,-5,1,1
1558435510518191,3,1,1,-1,2,2,-1,1
1558435510518191,-9,-8,-3,0,3,1,3,-1
1558435510534242,2,0,1,0,1,2,1,3
1558435510534242,-1,-1,0,-2,0,0,0,-2
1558435510536198,-4,-4,-3,-4,-10,-9,-7,-5
1558435510536198,0,0,-1,-2,-2,-4,-1,-2
1558435510549202,0,1,-1,1,2,-2,-2,-3
1558435510549202,-1,-2,0,1,1,3,2,-1
1558435510556142,-2,-2,-3,-5,-5,-3,-4,-2
1558435510556142,-2,-3,-2,-3,-2,-2,-4,0
1558435510571104,-2,-2,0,-1,3,3,0,0
1558435510571104,3,5,1,1,-2,0,1,-1
1558435510578163,-4,1,-2,-1,-1,-3,-1,0
1558435510578163,0,-1,-1,0,-4,-2,0,-1
1558435510594090,-4,-2,-1,-3,-6,-5,-4,-2
1558435510594090,-1,-3,-1,0,4,2,1,2
1558435510602068,0,1,0,0,5,2,3,2
1558435510602068,1,2,1,-1,3,4,0,-4
1558435510608221,1,-2,-3,-1,-6,-4,-8,-4
1558435510608221,-3,0,-3,-4,-6,-6,-6,-5
1558435510617028,-7,-9,-3,-2,-4,0,4,-2
1558435510617028,2,1,-1,0,-6,-7,-4,1
1558435510631987,-1,-3,-2,1,2,0,0,-1
1558435510631987,3,3,0,2,7,8,5,3
1558435510637972,0,0,-5,-2,0,1,-1,-2
1558435510637972,-2,-1,-3,-1,1,-1,-2,0
1558435510654928,-3,-2,-1,-3,-10,-9,-4,-4
1558435510654928,-3,-3,-1,1,-1,-3,-2,0
1558435510655926,2,1,2,3,3,1,-1,0
1558435510655926,0,-3,-2,-2,-3,1,0,0
1558435510667925,0,-1,-1,-1,2,3,4,0
1558435510667925,-1,0,-3,-4,-2,-2,-3,-3
1558435510677865,2,-1,-3,1,1,-1,0,2
1558435510677865,-1,1,-1,-1,1,3,2,-3
1558435510691854,-2,-2,-1,0,-4,-2,-3,0
1558435510691854,-2,-2,-2,-1,-6,-6,-4,-1
1558435510697842,1,3,3,1,3,4,0,0
1558435510697842,2,0,-2,-3,1,0,0,-2
1558435510713889,-8,-7,-1,1,1,2,3,-1
1558435510713889,-3,-2,-2,-3,-4,-2,-4,-1
1558435510720842,0,0,0,-1,-4,-2,3,-1
1558435510720842,3,2,-1,2,1,-2,-2,-2
1558435510727854,3,0,-2,-1,1,1,0,2
1558435510727854,0,1,1,0,-3,-5,-2,1
1558435510736800,0,2,1,0,3,2,0,-1
1558435510736800,-1,-3,1,0,1,1,1,1
1558435510751796,0,1,0,-1,2,-1,-1,1
1558435510751796,-3,-4,-3,-1,1,2,-1,-4
1558435510757773,-2,-2,-3,-3,-8,-6,-3,-2
1558435510757773,0,-2,1,1,2,-2,0,0
1558435510774697,0,1,0,1,3,5,4,2
1558435510774697,1,-2,1,1,3,3,3,-2
1558435510775695,-1,-1,-1,-1,-3,-1,-5,-3
1558435510775695,-4,-1,-4,-3,-10,-8,-6,-6
1558435510788660,3,1,0,1,1,-2,0,2
1558435510788660,1,1,-1,-1,0,2,1,0
1558435510796638,-5,-1,-1,-2,-3,-1,-2,-2
1558435510796638,0,-1,1,1,3,2,2,3
1558435510811598,-1,3,1,-1,1,-1,1,-3
1558435510811598,-2,-2,-2,-3,-7,-5,-4,-4
1558435510818578,-2,-3,-1,0,1,0,-2,0
1558435510818578,-2,-1,-2,-2,-3,-2,-3,-2
1558435510834536,0,-4,-2,-1,-2,2,0,-4
1558435510834536,2,2,-1,-2,1,1,1,2
1558435510835758,1,0,2,1,2,3,1,2
1558435510835758,-4,-4,-1,-1,-5,-3,-6,-3
1558435510848760,1,0,-4,-2,-3,-3,-4,-3
1558435510848760,-10,-9,-1,1,0,2,-4,-5
1558435510856869,2,0,-2,-2,1,4,4,1
1558435510856869,1,2,3,1,6,7,6,3
1558435510871665,-1,0,-2,-2,-3,-6,-5,-1
1558435510871665,-3,1,-2,-2,-5,-6,-6,-3
1558435510878751,-3,-4,-4,-3,-7,-7,-5,-5
1558435510878751,-3,-2,-2,-2,-2,1,-1,0
1558435510894635,0,-1,-2,-2,-4,-4,-2,-1
1558435510894635,5,4,-1,1,3,3,5,3
1558435510895631,-11,-12,-2,1,4,4,-1,-1
1558435510895631,1,1,0,0,-3,-1,-2,1
1558435510908599,-2,-2,-1,2,5,7,2,1
1558435510908599,0,1,1,0,0,-3,-1,0
1558435510917544,-1,0,-2,-3,-5,-8,-2,-2
1558435510917544,-4,-4,-2,-1,0,-7,-3,-2
1558435510931541,-1,0,-1,-3,0,2,0,-2
1558435510931541,0,0,-1,0,-2,-2,-1,-2
1558435510938489,4,1,-1,-1,-3,-3,0,1
1558435510938489,1,2,0,-1,1,1,-1,1
1558435510953490,-4,-4,0,0,-2,-3,-4,-1
1558435510953490,0,-1,-1,-1,-1,0,1,1
1558435510962423,-6,-5,-5,-1,-2,0,-4,-3
1558435510962423,0,-1,0,-2,-1,2,3,1
1558435510968441,-1,2,1,2,4,4,1,0
1558435510968441,0,-1,0,-1,-2,0,1,2
1558435510977386,0,-1,-1,-3,-11,-8,-7,-3
1558435510977386,0,1,-2,1,-2,-4,-4,-1
1558435510991345,-2,1,-1,-3,-3,-1,2,-1
1558435510991345,-2,-5,-2,0,-2,-2,-1,0
1558435510998355,3,4,2,3,6,3,-2,-2
1558435510998355,-2,-2,0,3,1,4,-1,-1
1558435511014445,2,1,-1,-1,-2,-2,1,1
1558435511014445,-1,-4,-5,-3,-6,-5,-5,-2
1558435511016278,-2,-3,-2,-2,-4,-5,-3,-1
1558435511016278,0,-1,-1,-2,-4,-3,-2,-1
1558435511028411,0,-1,-2,-2,1,-2,-1,-2
1558435511028411,-1,0,0,-1,1,1,2,-2
1558435511037221,0,-1,-1,-2,2,1,2,2
1558435511037221,0,-2,2,0,2,0,1,-2
1558435511051358,-2,1,-2,-2,-3,-3,-2,-1
1558435511051358,0,1,1,-2,-3,-4,-6,-1
1558435511066301,1,-1,-1,-2,-2,0,2,-2
1558435511066301,-2,-2,0,0,0,3,3,1
1558435511074203,4,1,1,0,0,-5,-2,-2
1558435511074203,-8,-3,0,-1,2,6,2,3
1558435511076118,0,0,-2,-1,4,2,2,1
1558435511076118,-1,-2,-2,-2,-2,0,-1,0
1558435511088088,-1,-3,0,1,-4,-3,-5,-1
1558435511088088,4,4,0,-1,-3,-3,-2,0
1558435511097093,0,1,-1,0,-1,-2,1,-1
1558435511097093,1,0,-2,0,3,-1,1,0
1558435511111056,-2,-2,-1,0,-1,3,0,-3
1558435511111056,0,-2,0,0,3,1,0,2
1558435511118037,-3,-1,0,-4,-1,1,-5,-6
1558435511118037,0,1,-2,-1,0,-4,1,-1
1558435511134084,-1,-6,-1,-2,-5,-4,-7,-2
1558435511134084,-2,-2,-2,1,0,0,1,-2
1558435511141065,1,0,-2,-2,-1,-3,-3,0
1558435511141065,-2,-1,-1,-4,0,2,2,1
1558435511148045,-4,-3,-2,0,-4,-1,-3,-2
1558435511148045,0,-2,1,0,-1,0,-3,-1
1558435511156991,1,3,4,6,0,0,1,-2
1558435511156991,0,-5,-1,-4,-4,-5,-3,-1
1558435511170957,-1,-1,-3,-2,-3,-2,1,1
1558435511170957,-5,-6,-3,-1,2,2,2,1
1558435511177967,2,5,2,3,1,-5,-4,0
1558435511177967,-3,-2,-3,-1,-4,-5,-3,-2
1558435511193925,-2,-4,0,0,1,3,0,-1
1558435511193925,0,2,0,-1,1,-1,-1,0
1558435511200873,-2,-3,-2,-5,-4,-5,6,5
1558435511200873,1,4,0,0,-4,-3,-8,-5
1558435511207887,1,4,-1,-3,-1,-1,-2,1
1558435511207887,-1,-2,-2,-1,0,-2,-2,-3
1558435511216871,-1,-3,-2,-1,1,6,0,-1
1558435511216871,1,-3,-1,-1,-1,0,4,0
1558435511231790,-3,-1,-1,-2,-2,-4,-2,-1
1558435511231790,1,0,0,0,1,2,2,0
1558435511237774,-1,-4,-2,1,2,3,0,1
1558435511237774,-1,0,0,-1,1,-2,-4,-2
1558435511253732,-1,-3,-1,-1,3,1,3,1
1558435511253732,2,-2,-4,-1,-1,-3,0,-1
1558435511260711,-1,2,-2,-3,-2,-2,-1,-2
1558435511260711,-4,-3,-1,1,-4,-4,-5,-1
1558435511269088,1,-2,1,1,5,4,3,2
1558435511269088,-3,-3,-4,-3,-3,-2,-2,-2
1558435511277140,-8,-5,-3,-1,-2,1,-4,-3
1558435511277140,0,0,-1,-3,-3,-9,-3,-3
1558435511292071,-1,2,0,0,-2,-5,0,0
1558435511292071,3,3,3,1,4,3,1,1
1558435511298611,0,-1,-1,0,0,1,0,0
1558435511298611,-3,-2,-3,-3,-4,-1,-2,-3
1558435511314000,0,1,-2,-1,0,4,2,-1
1558435511314000,-2,-1,1,-2,1,2,3,-1
1558435511320589,1,0,-1,0,-1,-5,-3,-2
1558435511320589,0,-4,-2,-1,-5,-3,-2,1
1558435511336546,1,-1,-1,-3,-5,-3,-4,-2
1558435511336546,-1,1,-1,0,1,2,1,-2
1558435511338507,-2,-4,-1,1,1,3,2,-1
1558435511338507,1,6,0,-3,-1,0,0,-1
1558435511351504,-9,-9,-2,-2,-1,-2,-3,-2
1558435511351504,-2,-2,-2,-1,-3,-5,-2,-1
1558435511358450,0,-2,-3,-3,-4,-2,-3,-3
1558435511358450,-2,-3,0,0,4,5,1,-1
1558435511374711,0,-1,0,0,-3,-6,-6,-1
1558435511374711,0,1,-1,0,-3,0,0,1
1558435511381761,0,-1,-1,0,3,1,-1,-1
1558435511381761,-4,-5,-2,-1,-3,0,-1,-2
1558435511397800,2,2,-2,-1,-3,-2,-1,-3
1558435511397800,-12,-10,-3,-1,-4,-6,-7,-4
1558435511399500,3,3,-1,-1,-3,-2,-1,1
1558435511399500,-2,0,0,0,2,4,4,2
1558435511411310,0,1,1,1,2,3,0,-1
1558435511411310,0,-1,-3,-2,-1,-4,1,0
1558435511418291,1,-1,1,1,1,1,1,1
1558435511418291,0,-1,-2,-1,1,0,-4,-2
1558435511434249,3,2,-2,-4,-5,-5,-1,1
1558435511434249,-5,-7,0,2,0,-3,-2,-2
1558435511441591,-2,-2,-1,-2,-4,-5,-1,-1
1558435511441591,-1,-3,-2,-1,1,5,1,-2
1558435511457592,2,1,0,2,-1,1,2,1
1558435511457592,3,2,-3,-1,-2,-1,-4,-2
1558435511458567,-1,-1,0,-2,0,-4,-2,1
1558435511458567,1,0,3,0,1,1,5,1
1558435511479127,-4,-4,-2,-2,-5,-2,-2,-1
1558435511479127,1,1,-3,-3,-3,-3,-2,-2
1558435511481122,-1,-1,0,2,3,1,3,3
1558435511481122,1,2,1,1,3,-1,-1,0
1558435511494086,-2,0,-1,-1,3,3,4,-3
1558435511494086,7,0,1,1,2,2,0,0
1558435511501068,-5,-4,-5,-5,-6,-4,-3,-5
1558435511501068,-3,-1,-4,-3,-6,-3,-1,-2
1558435511517025,-3,-1,0,1,0,-3,-1,2
1558435511517025,1,3,-1,-3,-5,-5,-4,1
1558435511518022,-2,-1,-1,-3,-2,-3,-7,-6
1558435511518022,0,0,-1,-1,-1,-4,-3,-1
1558435511532251,0,0,-3,-1,-2,0,-1,-3
1558435511532251,-4,-6,0,-1,3,6,4,-1
1558435511537984,-1,-2,-2,0,2,0,1,0
1558435511537984,-3,-2,-2,-1,-2,-2,-1,0
1558435511554366,-2,-2,-2,-1,1,-1,-4,-2
1558435511554366,0,1,0,-3,-2,-1,-1,-1
1558435511560910,-2,-1,-2,0,-3,0,1,-1
1558435511560910,0,0,-2,-1,-2,-3,-4,-3
1558435511576866,-3,-2,-3,-4,-2,0,0,-2
1558435511576866,-4,0,0,0,0,1,4,0
1558435511578869,0,0,-1,2,4,4,-2,0
1558435511578869,1,-1,0,2,2,4,2,1
1558435511590830,1,-1,0,-1,-2,-2,1,0
1558435511590830,3,0,-1,-1,-5,-4,-2,-1
1558435511598021,-3,-1,-2,-4,-5,-5,-2,-3
1558435511598021,-3,-1,-2,1,0,-1,-1,1
1558435511613774,-4,-3,-1,-2,-3,-4,-5,-5
1558435511613774,5,5,-3,-4,-1,-1,-3,-1
1558435511620750,-3,-1,2,5,4,3,2,-2
1558435511620750,-2,-3,-3,-1,-2,0,-2,0
1558435511636707,0,-1,-2,0,1,4,4,3
1558435511636707,-1,-1,-2,-4,-6,-5,-2,-2
1558435511638703,1,-2,-4,-4,-7,-4,-6,-3
1558435511638703,-3,-3,1,0,3,1,0,-1
1558435511651667,2,4,3,0,3,1,5,5
1558435511651667,-2,-2,-2,1,2,1,0,0
1558435511658952,1,-1,-1,-2,1,0,1,1
1558435511658952,-2,1,0,-3,-3,-2,-4,-1
1558435511673696,-3,-4,-3,-2,-4,-5,-6,-4
1558435511673696,-2,-1,1,1,2,-1,1,-1
1558435511680590,-2,-4,-1,-3,-1,-1,-3,-1
1558435511680590,2,1,1,1,-1,-5,-1,-1
1558435511696547,5,1,-1,1,5,2,2,4
1558435511696547,-3,-4,-1,-2,0,-3,-2,-2
1558435511698540,1,2,-2,1,0,2,2,0
1558435511698540,-3,-4,-1,-2,-6,-3,-5,-5
1558435511711662,3,-1,2,1,3,1,2,1
1558435511711662,-10,-9,-3,-1,0,0,0,-1
1558435511718517,1,0,-2,-1,0,0,1,2
1558435511718517,0,1,-1,-1,0,0,2,4
1558435511734465,-2,1,1,0,-3,-3,-7,-5
1558435511734465,1,0,-2,-2,-2,-2,-2,3
1558435511740430,-1,2,3,-1,-1,0,-3,-2
1558435511740430,0,-1,0,-1,-1,-5,0,1
1558435511757631,-3,1,-2,0,2,2,0,-3
1558435511757631,-1,0,0,1,3,4,3,0
1558435511758380,-2,-1,0,1,1,-1,0,0
1558435511758380,-1,-4,-2,-2,-3,-2,-4,-2
1558435511771350,-3,-3,-2,-3,-6,-7,-1,0
1558435511771350,-2,0,-2,-2,-1,-1,-6,-3
1558435511778328,0,1,-1,-2,-2,-3,-2,-2
1558435511778328,0,1,2,0,1,1,-1,-1
1558435511794284,-3,-2,-1,1,-3,-2,0,-2
1558435511794284,-1,-2,-3,-1,-1,-1,-1,-1
1558435511808259,0,-4,0,-1,0,0,2,-1
1558435511808259,-4,-1,-3,-2,-2,0,1,-1
1558435511817399,0,0,-1,-1,0,-1,1,1
1558435511817399,4,6,1,1,-7,-4,-4,-3
1558435511818220,-10,-8,-4,1,-1,-5,-4,-1
1558435511818220,4,-1,1,2,1,2,5,2
1558435511831239,-3,-5,-4,-2,1,1,-1,-2
1558435511831239,-2,-3,-2,-1,3,0,-2,-2
1558435511839172,2,1,0,-3,-6,-4,-4,-5
1558435511839172,-4,-3,-5,-4,-5,-3,-4,0
1558435511854140,1,2,1,3,11,10,7,2
1558435511854140,1,1,1,1,2,3,2,2
1558435511861108,-3,-2,-4,-3,-7,-5,-5,-5
1558435511861108,-5,-5,-5,-6,-8,-8,-7,-6
1558435511877064,4,3,0,2,0,-5,1,2
1558435511877064,-6,-2,2,-1,0,1,-3,-4
1558435511878061,0,1,-1,-2,-4,1,1,0
1558435511878061,3,4,-2,0,1,2,4,2
1558435511891027,-10,-13,-4,-4,-5,-6,-9,-8
1558435511891027,1,3,1,1,2,3,2,3
1558435511905986,1,-1,-2,0,1,1,2,2
1558435511905986,0,3,-2,0,0,1,-2,-4
1558435511921943,-1,-3,-2,-1,-2,1,1,1
1558435511921943,-3,-5,-4,-3,-5,-6,-8,-5
1558435511922944,1,-3,-2,-2,-2,0,0,-4
1558435511922944,-1,0,-2,-3,-3,-7,-1,2
1558435511936937,0,1,0,-2,3,5,2,2
1558435511936937,0,-3,0,4,7,8,5,4
1558435511938920,1,0,-3,-3,-7,-5,-7,-4
1558435511938920,0,3,3,0,4,0,-1,-2
1558435511950866,-1,0,-1,-3,3,1,0,2
1558435511950866,2,1,-2,-5,-8,-4,-3,-4
1558435511959842,-10,-4,-3,-4,-3,0,1,-2
1558435511959842,-8,-10,-3,-2,-6,-9,-8,-2
1558435511973807,-1,-2,-1,0,2,-4,0,-1
1558435511973807,-1,-1,0,0,-1,1,0,-2
1558435511988766,4,4,0,2,7,12,3,2
1558435511988766,3,2,3,2,1,-4,2,2
1558435511996743,-4,-1,-1,-2,-4,-3,-4,-4
1558435511996743,-2,-3,-7,-5,-9,-11,-4,-4
1558435511998737,-1,-5,-2,-4,-5,-8,-6,-5
1558435511998737,1,1,3,7,11,12,8,5
1558435512010708,4,2,1,0,4,3,2,0
1558435512010708,-1,0,-1,-4,-9,-8,-5,-3
1558435512019683,0,-2,-1,-4,-5,-7,-2,-1
1558435512019683,0,0,6,3,5,11,6,2
1558435512033648,2,2,-3,0,2,2,-3,0
1558435512033648,-3,-3,0,2,0,-2,-4,-3
1558435512040627,0,0,0,-2,1,-2,3,4
1558435512040627,-1,-1,-1,-4,-3,1,2,-4
1558435512056583,-3,-4,-2,0,-3,-1,0,-3
1558435512056583,-1,0,-1,0,-1,-5,-4,-1
1558435512063565,0,-2,1,-1,-2,-6,-3,-2
1558435512063565,3,2,1,1,1,0,3,3
1558435512070600,1,7,6,1,0,0,1,2
1558435512070600,-3,-5,-1,-1,-1,2,0,-1
1558435512079521,-1,-4,-3,-1,-2,-6,-5,-2
1558435512079521,-5,-5,-5,-6,-3,3,-9,-7
1558435512094481,0,0,-2,-1,-2,2,6,3
1558435512094481,3,3,0,2,2,-7,-1,3
1558435512108444,-1,-1,1,3,3,5,2,0
1558435512108444,-2,-2,-2,-6,-4,-3,0,0
1558435512116423,1,-1,-4,-2,-3,-3,-6,-3
1558435512116423,-4,-7,-5,-1,-6,-2,1,-2
1558435512123407,-1,0,-1,-2,2,-2,0,0
1558435512123407,-1,-2,-3,-2,-3,-1,-3,-6
1558435512130386,-3,0,2,-2,-12,-9,-4,-2
1558435512130386,1,0,0,3,9,5,6,4
1558435512139362,2,1,1,2,7,11,3,1
1558435512139362,-3,-4,-5,-1,-1,-3,-4,-1
1558435512154324,-2,-1,1,-1,-1,-7,-4,-4
1558435512154324,-1,1,2,-4,-6,0,0,-2
1558435512160306,-1,-1,0,2,-2,0,-1,-1
1558435512160306,-1,-2,-4,-3,-4,-6,-5,0
1558435512176470,-2,-5,-11,-6,-8,-1,-4,-3
1558435512176470,-6,-7,-1,2,3,1,2,-1
1558435512183246,6,8,10,6,13,7,10,7
1558435512183246,-1,-2,-6,-1,-4,-2,-6,-4
1558435512190227,-2,-5,-3,-3,-6,-6,-7,-3
1558435512190227,0,1,-2,-6,-1,0,1,1
1558435512199455,-2,-3,-5,-3,-3,-3,-4,-1
1558435512199455,1,3,2,1,0,1,4,1
1558435512214282,-5,-7,-10,-6,-4,-2,-2,-5
1558435512214282,1,3,5,4,3,0,2,1
1558435512220146,-3,-4,-1,-4,-8,-6,-8,-2
1558435512220146,2,4,0,4,11,4,4,4
1558435512236112,-1,0,5,2,1,7,2,-1
1558435512236112,4,3,3,-4,-3,-4,0,-1
1558435512243084,-2,-2,-10,-1,-4,-9,-6,-3
1558435512243084,-3,-4,2,-7,-6,-5,-5,-5
1558435512259042,-3,-3,-6,-4,-3,-5,-5,-2
1558435512259042,3,6,10,3,4,5,2,1
1558435512261036,-3,-4,-2,-2,0,2,0,-1
1558435512261036,-1,-2,-12,-4,-6,-10,-8,-4
1558435512274001,-1,0,6,2,2,-2,2,2
1558435512274001,-2,-5,-5,-2,-5,-1,-3,-2
1558435512280983,0,4,4,0,-2,-1,0,0
1558435512280983,-2,-4,2,-2,-4,-2,-1,-2
1558435512295942,0,0,-2,0,3,1,2,4
1558435512295942,0,1,-5,-2,4,0,0,0
1558435512302988,2,2,4,0,-2,1,2,0
1558435512302988,0,0,0,1,-2,0,-1,-3
1558435512319879,-8,-7,-3,-1,-1,-4,-4,-5
1558435512319879,-1,-2,-2,1,0,2,2,1
1558435512320887,-3,-5,-8,-6,-4,-1,-2,-3
1558435512320887,1,1,4,-1,3,3,3,2
1558435512333841,4,5,8,4,-4,-5,-4,-1
1558435512333841,-5,-8,-6,-2,-1,-2,-1,-2
1558435512340823,-2,-3,-8,-5,1,2,-1,-1
1558435512340823,-4,-4,0,0,-10,-5,-5,-7
1558435512356783,1,1,4,-3,3,4,4,2
1558435512356783,1,1,2,5,8,6,4,3
1558435512362778,-3,-5,-7,-3,-3,-5,-3,-4
1558435512362778,-3,2,2,4,1,-1,1,-1
1558435512379720,0,-1,-7,-1,-5,-2,-3,-3
1558435512379720,1,-3,-3,-1,-5,-3,-1,-3
1558435512380717,-3,-2,-1,2,2,2,3,1
1558435512380717,1,1,2,2,9,11,1,2
1558435512393713,-3,-7,-6,-7,-8,-10,-6,-4
1558435512393713,0,3,7,-3,2,4,3,0
1558435512407643,-4,-1,-7,-1,-2,-5,-1,-1
1558435512407643,-4,-6,-7,-7,-6,-5,-2,-1
1558435512416622,2,3,-1,0,3,6,1,0
1558435512416622,-2,2,1,2,-1,-7,-3,0
1558435512422606,-1,-1,5,2,1,3,4,-1
1558435512422606,-1,-2,-6,-3,-3,-4,-1,-2
1558435512439563,-3,-4,-5,-5,-6,-5,-6,-3
1558435512439563,1,3,2,-1,-1,0,0,0
1558435512440556,2,7,11,4,3,5,0,3
1558435512440556,-2,-4,-4,-3,-1,0,-3,-1
1558435512453521,3,-2,-4,3,0,0,1,0
1558435512453521,-10,-8,-4,-5,-5,-6,-4,-2
1558435512460503,-2,2,1,0,-1,0,1,2
1558435512460503,-2,-5,-4,-1,-1,2,2,2
1558435512476460,0,3,2,3,2,1,-3,-1
1558435512476460,0,-1,-5,-5,-5,-3,-6,-5
1558435512483443,0,-3,-1,-5,-6,-5,0,-1
1558435512483443,4,4,2,2,1,-3,-2,0
1558435512499398,-11,-4,-1,-2,1,1,4,-1
1558435512499398,1,1,0,3,6,11,4,0
1558435512500396,0,4,6,2,-1,-8,-4,-1
1558435512500396,0,-1,5,2,-2,-4,-5,-3
1558435512513363,4,0,2,-1,2,2,1,3
1558435512513363,-4,-7,-10,-5,-8,-6,-6,-4
1558435512522337,-3,-4,0,-1,-4,-1,-2,-3
1558435512522337,0,1,-2,-1,1,1,2,3
1558435512536300,-1,1,0,-1,0,0,1,0
1558435512536300,0,-1,-1,1,-3,-4,-1,-2
1558435512543281,-3,-4,-6,-5,-4,-4,-4,-4
1558435512543281,-2,-1,-1,0,3,6,6,0
1558435512559239,1,4,2,4,-1,1,-2,1
1558435512559239,-2,-4,-5,-5,-4,-4,-4,0
1558435512561234,0,-1,-2,3,-1,0,-2,-1
1558435512561234,-1,-2,-1,1,0,-1,0,-1
1558435512573201,1,0,-3,-2,-2,-6,-4,-1
1558435512573201,1,3,8,-2,-3,-1,1,0
1558435512582178,-6,-12,-12,-5,-2,-2,-1,-3
1558435512582178,-3,-2,-1,-2,-1,-2,-1,-1
1558435512596145,-2,-3,-1,2,3,2,-2,-4
1558435512596145,0,2,-2,0,0,-1,-4,-2
1558435512603124,2,1,1,-2,-1,-1,-2,-2
1558435512603124,-1,0,1,-4,-2,-3,-1,-2
1558435512627063,-1,-1,-2,-1,-3,-1,-2,-1
1558435512627063,0,-1,1,6,0,0,-1,-1
1558435512628055,1,0,2,1,5,0,0,0
1558435512628055,0,3,-2,-1,-2,1,-2,-1
1558435512633042,2,-3,-2,-4,-5,-2,-2,-2
1558435512633042,-6,-5,-6,-3,1,1,-2,-4
1558435512642021,1,0,0,-2,-1,-2,-2,-2
1558435512642021,0,-2,-1,-2,-4,-5,-3,-2
1558435512655981,-1,2,0,0,1,0,0,3
1558435512655981,-2,-6,-6,0,-1,0,-1,-1
1558435512662961,1,2,2,-1,2,5,1,1
1558435512662961,-3,-6,-2,-4,-5,-4,-1,0
1558435512679915,-7,-5,-8,-6,-2,-5,-3,-5
1558435512679915,4,5,2,1,1,-1,0,0
1558435512680913,-10,-6,1,1,1,0,0,-1
1558435512680913,0,-1,0,1,-2,-2,-4,-1
1558435512692880,2,5,1,-6,-2,2,0,-1
1558435512692880,0,-5,-3,-7,-2,-1,-2,-3
1558435512707844,0,-4,-5,-3,-3,-1,1,0
1558435512707844,0,3,2,0,-1,-1,2,1
1558435512715825,-1,6,7,3,1,-1,2,1
1558435512715825,-1,1,-2,-1,3,0,-2,-1
1558435512722801,-3,-5,-3,-4,-4,0,-2,-2
1558435512722801,0,2,5,1,0,0,-1,0
1558435512739758,-2,-4,-4,0,-1,-2,-1,-3
1558435512739758,1,4,0,-2,-2,-3,-3,0
1558435512740754,3,0,-6,-1,1,1,0,1
1558435512740754,-11,-4,-5,-1,1,-2,-3,-3
1558435512752727,-2,-1,1,-4,-3,-1,1,1
1558435512752727,-2,1,2,2,-4,-2,-1,0
1558435512761701,-1,-4,-1,1,-1,0,-1,-1
1558435512761701,1,-3,-8,-1,-1,1,1,0
1558435512776657,1,-3,1,5,1,1,0,-2
1558435512776657,-3,-5,-11,-16,-4,-1,-1,-2
1558435512782644,2,6,4,2,0,-4,0,1
1558435512782644,3,0,0,0,-1,-1,-1,-2
1558435512799596,-3,-5,-5,-2,0,0,-1,1
1558435512799596,-2,0,3,4,-1,0,1,-1
1558435512800593,1,3,-5,-4,-2,-3,-4,-2
1558435512800593,0,1,4,-1,0,-2,-2,-3
1558435512813559,0,0,1,-1,1,0,0,-1
1558435512813559,2,-4,-1,-2,-2,-2,-2,-1
1558435512821540,-2,1,-1,0,-2,-3,-2,-1
1558435512821540,-1,-3,-2,-1,-2,-2,-1,-2
1558435512836503,0,1,1,0,-1,0,1,2
1558435512836503,-2,-2,-4,0,-1,1,0,-1
1558435512843479,0,0,-3,-2,-1,-1,0,-1
1558435512843479,-1,-2,0,-6,-4,-3,-3,-1
1558435512859436,-1,-8,-10,-4,0,-2,-1,0
1558435512859436,-5,-5,-7,-4,-2,-2,-3,-5
1558435512860434,1,1,4,3,-3,-2,-1,-3
1558435512860434,0,1,3,2,1,3,2,0
1558435512873398,-3,-4,-2,-4,-2,-3,-3,0
1558435512873398,5,5,2,4,1,-1,2,1
1558435512882374,-10,-8,-3,-3,1,0,0,-4
1558435512882374,0,1,1,0,-1,-3,-1,-1
1558435512896337,2,1,3,2,2,0,-1,-4
1558435512896337,-1,-3,-1,-2,-1,0,1,0
1558435512903330,0,-2,0,-1,-2,-2,-2,-2
1558435512903330,-2,-2,-1,-4,-2,-2,-2,-1
1558435512919284,5,8,6,4,1,-3,1,1
1558435512919284,-4,3,1,1,-1,-2,-3,0
1558435512921271,3,8,5,1,2,1,3,6
1558435512921271,-2,-4,-1,0,-2,-4,-3,-2
1558435512933242,-3,-2,-2,-2,-2,0,-1,-4
1558435512933242,-1,-1,-4,-3,-2,-1,-2,-3
1558435512942214,-2,1,0,-5,-3,-1,-1,-2
1558435512942214,0,1,0,0,2,2,1,0
1558435512956186,-1,3,4,1,0,1,-1,0
1558435512956186,-1,-5,2,3,0,-2,-1,1
1558435512963162,-4,-7,-7,-5,-2,-4,-2,-2
1558435512963162,1,-1,-5,-2,-3,-2,0,-1
