timestamp,emg1,emg2,emg3,emg4,emg5,emg6,emg7,emg8
1558435491719250,2,-1,-2,-2,-2,-3,1,0
1558435491719250,0,2,0,-1,2,0,-1,1
1558435491719250,-2,-2,-2,-2,-4,-4,-2,0
1558435491719250,-2,-1,-1,0,-4,-6,-4,-3
1558435491720247,-1,-3,0,-1,-1,-1,0,0
1558435491720247,-1,-5,-2,-1,0,0,-1,-3
1558435491721245,1,0,-2,-2,-1,1,1,-1
1558435491721245,1,-1,1,-1,-1,0,-4,-1
1558435491727228,0,-1,-1,-1,-3,-1,-1,-1
1558435491727228,8,9,1,0,3,4,5,0
1558435491727228,-17,-15,-1,-1,1,-1,1,-2
1558435491727228,-3,-2,-3,-2,-2,-1,-1,-1
1558435491732216,-1,0,-1,-2,0,-2,-1,1
1558435491732216,0,-1,-1,-1,-3,-1,-4,-2
1558435491747176,4,6,1,2,-1,-2,-5,0
1558435491747176,-3,-3,-1,-2,1,1,4,0
1558435491762134,-2,0,-1,-2,3,1,-2,-2
1558435491762134,-4,-4,-4,-3,-3,-5,-3,-1
1558435491765127,0,-3,-1,-1,-5,-5,-3,-1
1558435491765127,-2,-3,-4,-3,-4,-5,-5,-1
1558435491777096,0,1,-2,-2,-3,-3,-2,-3
1558435491777096,-2,-1,0,2,3,2,0,0
1558435491785074,2,1,0,-3,-2,-1,-4,-4
1558435491785074,3,0,-1,1,4,3,3,2
1558435491822974,0,-1,-1,-6,-7,-6,-4,-1
1558435491822974,0,-2,-2,-2,-6,-5,-1,-2
1558435491828958,-1,-1,0,1,0,0,0,-1
1558435491828958,0,-1,0,-1,1,0,1,1
1558435491837935,-1,0,-1,-1,-1,-2,-3,-1
1558435491837935,-2,-1,-2,-4,-6,-4,-4,-6
1558435491838930,3,2,0,-2,0,-1,-1,1
1558435491838930,-3,-3,-2,-2,3,4,0,-2
1558435491844913,2,4,0,2,4,7,3,-3
1558435491844913,-2,-1,-2,2,5,6,4,2
1558435491850899,-3,-2,-2,-4,-7,-6,-1,-1
1558435491850899,0,0,-3,-2,-4,-6,-6,-3
1558435491858877,-2,-3,0,0,-3,-2,-2,-3
1558435491858877,2,2,1,-3,-2,-2,-2,0
1558435491873837,-9,-11,-3,-2,0,0,0,-3
1558435491873837,1,1,0,-1,-3,-5,-2,0
1558435491880818,-2,-1,-3,-2,-2,-4,-5,0
1558435491880818,1,-2,0,3,4,6,6,1
1558435491889794,0,0,2,2,-2,-3,-1,-1
1558435491889794,-1,-2,-1,0,0,3,1,0
1558435491904754,1,-2,-1,1,-4,-5,-4,-4
1558435491904754,1,-2,-2,0,0,1,-1,-1
1558435491911734,-1,0,-2,-4,-2,1,-1,-1
1558435491911734,1,3,0,1,6,5,3,2
1558435491918717,-3,-3,2,0,3,3,1,-1
1558435491918717,0,-3,-1,-2,0,-1,-2,0
1558435491933677,0,2,-1,-2,-8,-6,-6,-4
1558435491933677,-2,-2,-3,-3,-6,-2,-2,-1
1558435491941655,-1,-4,-3,-2,-4,-6,-3,1
1558435491941655,-1,1,1,-1,2,-6,-3,0
1558435491950632,1,2,0,2,4,2,4,1
1558435491950632,-1,-1,0,-2,-3,-1,-3,-4
1558435491964597,1,0,-2,1,-1,0,0,1
1558435491964597,-5,-3,-3,-1,-4,-7,-5,-5
1558435491971576,2,0,-1,-2,-2,-2,-3,-1
1558435491971576,-2,-2,-2,1,1,-1,3,1
1558435491978560,-1,-1,-1,1,6,9,5,2
1558435491978560,1,3,0,-1,-3,1,0,-1
1558435491993516,-2,-3,-5,-1,-3,-7,-6,-3
1558435491993516,-2,-3,-3,-3,-3,-2,-2,-2
1558435492001495,-1,0,0,-1,-2,-3,-1,-3
1558435492001495,-3,-3,-4,-2,-5,-4,-5,-4
1558435492010473,2,2,-1,-2,-2,0,0,-2
1558435492010473,-8,-5,0,1,2,4,3,-2
1558435492023437,4,-1,1,2,5,1,2,3
1558435492023437,-5,-5,-1,-3,1,6,1,1
1558435492032414,-3,-3,-1,-1,-3,-6,-4,1
1558435492032414,2,2,-1,1,-3,-8,-5,-3
1558435492038425,-1,0,-1,-1,3,5,6,2
1558435492038425,-2,0,1,-1,-4,-2,-2,-2
1558435492053357,-1,-2,-1,0,1,3,-2,-2
1558435492053357,2,0,-1,0,-1,2,1,1
1558435492061335,-3,0,0,-1,0,-1,0,-1
1558435492061335,4,0,1,0,-3,-4,-1,1
1558435492070311,-1,0,-2,1,2,5,1,0
1558435492070311,-2,-2,-2,-2,-2,-1,-5,-3
1558435492083276,-3,-2,-5,-4,-4,-6,-4,-3
1558435492083276,-1,0,-1,-3,-2,-3,1,2
1558435492092253,0,0,2,1,2,-1,0,0
1558435492092253,-2,-6,-1,-2,-3,-4,-4,-2
1558435492099234,-1,-2,-2,-1,-4,0,-2,-4
1558435492099234,1,5,0,1,2,-2,1,0
1558435492114195,2,5,2,2,9,4,6,6
1558435492114195,0,-1,-2,0,-4,-2,-2,-1
1558435492121175,-4,-4,-2,-4,-11,-11,-9,-8
1558435492121175,-3,-4,-2,-3,-4,-3,-3,-3
1558435492130150,1,1,1,-2,1,5,1,0
1558435492130150,-1,0,1,-1,4,5,4,2
1558435492144114,-1,0,-1,0,-2,-3,-2,1
1558435492144114,3,1,-1,1,3,-2,-3,-3
1558435492153090,-5,-4,-2,-1,-2,1,-2,0
1558435492153090,-1,-1,-1,-4,-2,-2,-4,0
1558435492159075,2,0,1,0,1,-3,1,1
1558435492159075,1,0,-1,0,0,-2,2,0
1558435492175030,-3,-3,-2,-2,0,0,0,-2
1558435492175030,-1,0,-4,-2,-7,-5,-4,-4
1558435492181015,-2,-2,-1,-4,-1,-2,-5,-3
1558435492181015,-2,-2,-2,0,2,5,0,0
1558435492195975,4,0,1,-1,0,-2,1,-1
1558435492195975,-5,-5,0,-2,-4,-6,-4,-6
1558435492203954,-1,-1,-1,-2,0,4,-1,-1
1558435492203954,-1,-3,-3,-2,2,3,0,-2
1558435492220908,-2,-3,1,-2,-5,-4,-3,-3
1558435492220908,2,7,0,1,1,0,0,1
1558435492221906,-4,-3,-2,0,-1,2,-1,-3
1558435492221906,-3,-3,-1,-2,0,-1,0,1
1558435492241852,0,-2,-4,-3,-3,-3,-5,-4
1558435492241852,5,2,0,1,-3,-8,-3,-1
1558435492242851,-7,-4,-2,0,6,5,1,-2
1558435492242851,0,-2,-5,-3,-6,-2,-4,-1
1558435492255816,-3,-2,-3,0,-1,-5,-4,-3
1558435492255816,-1,-1,-1,0,2,6,1,-1
1558435492263793,2,-1,0,2,4,3,2,0
1558435492263793,0,-4,0,1,4,4,2,2
1558435492272769,1,-1,-2,-3,-2,0,1,-2
1558435492272769,-2,2,-1,-3,-5,-7,-7,-2
1558435492278753,-1,-4,-3,-1,-4,-1,0,-1
1558435492278753,-2,0,0,-4,-3,-4,0,-3
1558435492293713,-2,-2,-1,0,0,0,-3,1
1558435492293713,1,-1,-2,-2,-1,1,1,-3
1558435492301692,2,3,-1,0,-3,-6,-3,-1
1558435492301692,-5,-3,-4,-1,-4,-3,-5,-2
1558435492316653,-3,-3,-1,0,-3,-1,0,-2
1558435492316653,-1,-1,1,1,5,4,3,4
1558435492323634,0,1,1,1,6,5,3,0
1558435492323634,-2,0,-2,-2,-2,-2,-6,-4
1558435492340589,5,6,2,0,2,-1,-1,0
1558435492340589,-6,-5,-1,-3,-3,-2,-3,-5
1558435492341585,1,-2,-3,-3,-7,-2,-1,0
1558435492341585,2,3,2,2,5,9,1,1
1558435492353554,1,1,-2,0,-1,-3,-2,-1
1558435492353554,-7,-6,-1,0,-2,-4,-1,-1
1558435492361533,3,2,-1,-2,-1,-1,-1,0
1558435492361533,-1,-1,1,-2,-2,-5,-1,0
1558435492376492,-5,-6,-4,0,0,2,-2,-1
1558435492376492,0,2,-3,-3,3,5,-2,-2
1558435492383473,-1,0,-1,0,-3,-4,-4,-1
1558435492383473,-1,0,-1,0,-4,-4,-2,-2
1558435492392450,-2,-2,-2,-3,-5,-5,-3,-2
1558435492392450,1,-3,0,1,3,1,1,0
1558435492398434,0,-1,0,0,1,1,2,4
1558435492398434,1,2,1,0,0,2,1,2
1558435492413394,-1,-1,-4,-4,-7,-4,-4,-5
1558435492413394,1,0,-1,-1,1,-4,-1,-1
1558435492421372,0,-2,1,1,2,4,4,-1
1558435492421372,0,-3,-2,0,2,-1,-3,-3
1558435492436332,-4,0,-2,0,-2,0,-4,-3
1558435492436332,1,-1,-1,-3,-5,-2,1,0
1558435492443313,1,1,1,-1,2,-3,0,3
1558435492443313,-2,-1,1,1,-1,-1,0,0
1558435492452289,1,3,-2,-1,-1,-1,-1,-1
1558435492452289,-2,-3,-3,-2,-1,-4,-6,-3
1558435492467248,-1,-1,-3,0,-4,-4,-4,-3
1558435492467248,2,2,0,-2,0,1,2,2
1558435492474231,-4,-7,-3,-1,0,3,-1,-1
1558435492474231,-2,1,0,1,3,2,2,3
1558435492481212,-2,-1,-5,-4,-6,-8,-7,-5
1558435492481212,-4,-2,-3,-2,-4,-8,-7,-6
1558435492496172,2,3,3,1,4,5,7,5
1558435492496172,2,2,2,-1,-1,-2,1,0
1558435492504150,-8,-8,-1,-1,-2,1,-1,-4
1558435492504150,2,-2,-3,-2,-3,-3,-3,-3
1558435492513127,-5,-3,-1,-2,-6,-4,-5,-2
1558435492513127,3,1,0,-2,-5,-2,-3,-1
1558435492527091,0,3,1,4,9,6,5,3
1558435492527091,1,0,1,0,1,0,2,0
1558435492534071,0,-3,-1,0,-1,-2,-1,0
1558435492534071,-1,-1,-2,-1,0,2,-1,-1
1558435492541053,1,0,-1,-2,0,4,1,1
1558435492541053,-2,-3,-2,1,0,-2,-2,1
1558435492556012,0,0,-2,-1,-2,-2,-1,-2
1558435492556012,0,0,1,-3,-4,-2,0,-1
1558435492563990,0,2,2,-2,-4,-4,-4,-3
1558435492563990,-3,-6,-2,-1,5,6,4,1
1558435492572966,0,0,-3,0,2,1,0,3
1558435492572966,-1,-2,1,0,-3,-5,-3,-1
1558435492586929,0,-2,-2,-2,-5,-4,-1,-2
1558435492586929,3,5,1,-2,-1,1,0,1
1558435492593910,-10,-11,0,-1,2,1,1,-1
1558435492593910,-4,-3,-4,-2,-3,0,-2,-3
1558435492600892,1,1,1,-1,-1,-2,-1,1
1558435492600892,-1,-3,-3,-3,-2,-4,-2,-1
1558435492615852,0,0,0,-3,1,1,0,-3
1558435492615852,1,2,-1,-1,-2,-4,-2,-2
1558435492648763,-4,-4,-1,0,2,0,-4,-1
1558435492648763,-2,2,0,-1,-1,0,-1,-4
1558435492650758,2,1,1,0,2,1,1,-2
1558435492650758,-3,-5,-2,0,1,2,-1,-2
1558435492650758,0,1,-1,-4,-4,-3,-4,0
1558435492650758,-1,-2,-2,-1,-3,-3,0,1
1558435492654747,2,1,0,0,0,1,2,0
1558435492654747,2,-2,0,-4,-1,-1,0,-1
1558435492661729,3,2,0,-1,0,-1,0,-1
1558435492661729,-1,-1,-1,0,1,-3,-2,-1
1558435492676689,-3,-2,0,-1,-4,-3,0,-2
1558435492676689,-2,-4,-2,0,3,3,2,0
1558435492683672,-1,-2,-5,-4,-5,-5,-3,-4
1558435492683672,-4,-3,0,-1,-2,-3,-6,0
1558435492692646,4,2,-1,0,1,-1,2,2
1558435492692646,-1,0,2,2,0,0,0,0
1558435492706609,-4,-2,-1,-2,3,4,3,0
1558435492706609,3,2,0,1,-2,4,1,-3
1558435492713590,0,0,0,0,0,-4,-5,-3
1558435492713590,-1,-3,-2,-2,-4,-3,-1,2
1558435492721569,-1,-4,-1,-3,-5,-6,-2,-1
1558435492721569,-1,1,1,0,1,1,-2,-2
1558435492736529,-1,-1,-2,-2,1,0,-1,-1
1558435492736529,-1,-1,0,0,2,-2,-2,-1
1558435492743511,2,2,0,-2,-1,-1,-1,-1
1558435492743511,-4,-5,-3,-4,-6,-3,-1,-3
1558435492752487,2,0,-1,-1,-3,1,-2,-2
1558435492752487,1,5,2,1,6,5,7,3
1558435492766448,0,-1,0,0,1,-3,1,0
1558435492766448,-3,-4,-3,-2,-5,-3,-4,-5
1558435492773430,-4,-1,-2,-3,-6,-7,-4,-4
1558435492773430,2,3,1,1,1,2,2,0
1558435492781408,3,2,0,1,7,9,1,2
1558435492781408,-1,-1,-1,1,1,0,0,1
1558435492796368,3,-1,-1,-1,-2,-1,-2,0
1558435492796368,-3,-6,-4,-3,-6,-4,-4,-5
1558435492803350,-1,-1,-4,-4,-10,-11,-6,-6
1558435492803350,0,-1,0,-2,2,3,4,3
1558435492818311,-2,0,-1,1,2,1,-2,2
1558435492818311,-1,-1,2,-3,1,-1,-2,-1
1558435492827287,-1,2,-2,-1,-1,-2,0,1
1558435492827287,2,-3,-3,-4,-6,-10,-6,-4
1558435492842246,-2,0,0,-2,1,2,2,-1
1558435492842246,-1,0,-2,2,4,5,1,2
1558435492842246,-2,-3,-2,-2,-4,-1,-4,-1
1558435492842246,-2,-1,0,0,-2,1,-1,-1
1558435492856210,0,0,3,1,1,-6,2,1
1558435492856210,1,2,0,1,-3,-1,-3,0
1558435492864189,-1,0,1,1,2,3,1,-2
1558435492864189,-1,1,-1,0,3,2,3,0
1558435492879147,-2,-3,-1,-2,-5,0,-2,-2
1558435492879147,-3,-2,-2,-2,-3,-2,-3,-2
1558435492887124,1,0,-1,0,-1,-2,-2,-1
1558435492887124,0,0,0,0,2,0,-2,0
1558435492902087,-4,-1,-1,-1,0,0,-3,1
1558435492902087,4,1,0,2,2,3,4,2
1558435492903084,-1,-3,-2,-2,-3,-1,2,1
1558435492903084,-4,0,0,-3,-5,-4,-4,-1
1558435492916048,0,-7,-2,-1,-1,0,-1,-2
1558435492916048,-2,-4,0,0,2,-3,-2,-4
1558435492924029,-5,-2,-2,-1,-1,1,-5,-2
1558435492924029,0,1,-2,-1,-1,1,1,1
1558435492938987,-2,2,-4,-1,-4,-9,-2,-2
1558435492938987,-1,-1,-1,0,2,5,4,1
1558435492946964,-2,-2,0,0,0,-1,-2,-1
1558435492946964,1,1,-2,-2,-2,4,-2,-5
1558435492961927,-2,1,0,-1,-5,1,-2,1
1558435492961927,-1,-1,0,-2,0,-4,-3,-1
1558435492962924,2,1,-1,0,3,-2,1,-1
1558435492962924,-7,-5,-3,-3,-2,-3,0,-1
1558435492984865,2,2,-2,-1,0,1,-1,0
1558435492984865,-3,-2,-2,-1,-2,2,-1,0
1558435492984865,1,1,0,0,-4,-4,-2,-1
1558435492984865,0,0,-2,0,-2,-3,-3,-2
1558435492998828,0,-2,-2,-1,2,4,3,0
1558435492998828,-2,0,-1,0,2,1,-1,-1
1558435493006808,-4,-3,-2,-4,-6,-6,-6,-5
1558435493006808,1,-3,-2,0,-1,-6,1,1
1558435493021765,0,-1,2,0,7,8,5,4
1558435493021765,0,-2,0,0,-3,-2,-2,-2
1558435493022762,1,1,2,-2,2,0,3,-2
1558435493022762,1,0,0,-2,-3,-2,-4,0
1558435493036726,2,0,-1,-2,-3,0,-3,-4
1558435493036726,-8,-8,-4,-3,-9,-8,-5,-4
1558435493043708,-4,-2,-1,0,3,4,1,0
1558435493043708,0,2,0,0,1,0,0,0
1558435493058668,0,0,-1,0,1,3,2,1
1558435493058668,0,2,-1,-2,-3,-1,-1,-3
1558435493066647,-3,-3,-1,-2,-3,-4,-4,-3
1558435493066647,0,-2,-2,-2,0,-3,-1,0
1558435493081605,1,0,0,2,2,1,3,1
1558435493081605,0,-1,-2,-1,1,2,-1,-2
1558435493082602,0,-2,-2,-1,-2,0,0,1
1558435493082602,-1,0,1,1,0,2,1,2
1558435493096568,1,-1,-1,-2,-8,-11,-7,-3
1558435493096568,1,1,0,-1,1,-2,-2,1
1558435493103547,0,-1,-1,-1,1,0,0,-1
1558435493103547,-2,-1,-2,-3,-7,-2,-2,-3
1558435493118507,-4,0,-3,-4,-8,-3,-2,-4
1558435493118507,-5,-7,2,4,9,6,6,2
1558435493126486,0,-1,-2,2,6,6,0,3
1558435493126486,-3,0,0,1,0,1,0,-2
1558435493141445,-1,-3,-1,-3,-7,-7,-3,0
1558435493141445,1,1,-1,-3,-5,-6,-4,-1
1558435493142443,-1,-3,0,-1,-1,-5,-4,-4
1558435493142443,-3,0,1,0,1,-1,-1,0
1558435493156406,-1,0,1,0,5,4,0,-1
1558435493156406,1,1,-2,-4,-9,-4,-5,-3
1558435493163387,2,2,-2,-2,-6,-6,-4,-1
1558435493163387,0,1,1,0,5,5,3,2
1558435493178348,-3,-2,-2,0,4,4,5,0
1558435493178348,-3,-3,-1,-2,-4,-5,-4,-3
1558435493187322,0,-1,-1,0,3,3,2,3
1558435493187322,3,2,0,-1,0,-1,0,1
1558435493202282,-1,1,-1,-2,-2,-4,-7,-1
1558435493202282,-7,-8,-4,-2,-3,2,-1,-3
1558435493202282,0,1,3,-1,-1,1,1,0
1558435493202282,-2,-3,-3,-1,-2,-3,-4,-5
1558435493216246,-1,-3,-1,2,1,-3,-1,1
1558435493216246,3,6,0,-4,-5,-5,-6,-2
1558435493224228,-3,-5,-3,-2,-5,0,0,-3
1558435493224228,-1,0,0,2,2,2,2,1
1558435493239186,-1,-4,2,-1,-2,-2,-2,-2
1558435493239186,3,1,-1,2,4,1,3,2
1558435493247163,0,-1,-3,0,2,3,2,-1
1558435493247163,0,-1,-2,-3,-5,-5,-4,-1
1558435493262123,-1,-1,-2,0,-2,-3,-2,-2
1558435493262123,1,0,-2,1,2,1,2,2
1558435493262123,-4,-3,1,0,1,3,4,-1
1558435493262123,1,-1,-3,-2,3,4,-1,-2
1558435493276084,-4,-5,-1,-1,-4,-4,-4,-2
1558435493276084,1,1,0,-3,-7,-9,-8,-4
1558435493284063,-2,0,-3,-1,-2,-3,1,2
1558435493284063,-1,-1,-2,-1,0,0,-3,-3
1558435493308072,3,1,0,-1,2,1,4,2
1558435493308072,1,-1,-3,-2,-3,-1,0,-2
1558435493308072,0,-1,-2,-1,-4,-3,-1,-3
1558435493308072,-1,-1,-1,-1,-3,-1,-1,-1
1558435493321963,-2,-1,-5,-1,1,0,0,-2
1558435493321963,2,2,1,1,1,1,3,2
1558435493322961,-1,0,0,-1,2,3,0,0
1558435493322961,-2,-3,0,0,0,2,6,2
1558435493335963,-2,-1,-1,-2,-4,-1,-3,-4
1558435493335963,-3,-2,-3,1,0,0,-4,-4
1558435493351920,0,1,-1,0,1,-2,-1,2
1558435493351920,0,-2,1,-1,2,-2,2,2
1558435493358865,-2,-2,-1,0,-3,2,-3,-1
1558435493358865,-1,-2,-2,-1,-2,0,-4,-1
1558435493366843,-2,-2,-1,-4,-6,-9,-5,-4
1558435493366843,2,1,-2,1,2,2,2,1
1558435493380806,2,5,3,1,4,1,2,1
1558435493380806,-5,-4,0,0,0,-2,0,-1
1558435493389782,0,1,-2,-3,-5,-2,-2,-1
1558435493389782,3,0,-1,-2,-2,-1,-3,-4
1558435493395822,-6,-5,-2,0,-1,-2,-3,0
1558435493395822,1,1,-3,-3,-3,0,-4,-2
1558435493403743,-3,-1,-1,1,1,-1,-1,-2
1558435493403743,-1,0,-1,1,3,2,4,2
1558435493418702,1,-2,2,0,2,4,1,0
1558435493418702,-2,-2,-2,-1,0,-3,-2,-2
1558435493426681,-6,-6,-2,-2,-5,-3,-2,-3
1558435493426681,0,-3,-2,-1,0,-1,-2,-1
1558435493441643,0,1,-2,0,-3,-4,-4,-3
1558435493441643,-1,-3,-2,-1,-5,-3,1,-3
1558435493449620,0,-1,-2,-1,-1,1,0,0
1558435493449620,-3,-1,-1,-2,-3,-1,-3,0
1558435493456603,1,0,1,-1,2,1,3,1
1558435493456603,2,5,3,-1,-3,-3,-1,0
1558435493463609,0,-1,0,1,1,-1,-1,-1
1558435493463609,-4,-7,-3,-2,-3,-1,-2,-2
1558435493480570,-2,-3,-7,-5,-5,-4,-6,-4
1558435493480570,-1,-1,-2,-2,-5,-1,-2,-4
1558435493486560,3,3,2,1,6,6,3,3
1558435493486560,-1,1,-2,-2,-1,0,-2,0
1558435493501481,-1,0,0,0,-3,-2,0,1
1558435493501481,0,-3,-3,-3,-3,-4,-1,-1
1558435493509460,1,-2,-1,1,3,3,4,-1
1558435493509460,0,-1,-2,-1,-4,-7,-3,-3
1558435493516441,-1,0,0,-2,-3,-3,0,-1
1558435493516441,-1,-1,-2,-2,-2,-2,-4,-2
1558435493523423,-2,-2,0,-1,2,7,3,1
1558435493523423,4,3,2,1,3,1,1,1
1558435493538384,-11,-6,-3,-2,1,1,-1,-3
1558435493538384,0,0,2,0,1,0,-2,2
1558435493547369,-3,-3,-2,-2,-7,-9,-5,-4
1558435493547369,-2,-1,-3,-2,-6,-4,-4,-4
1558435493561356,2,1,1,2,-1,-3,-3,-1
1558435493561356,2,1,1,-3,3,2,4,6
1558435493569301,-9,-8,-4,-3,0,3,-1,-2
1558435493569301,-1,-2,1,1,0,1,3,0
1558435493584261,0,-1,0,-3,-4,-1,-3,-7
1558435493584261,-1,-4,0,2,1,-1,1,3
1558435493585259,4,4,0,-1,-5,-9,-7,-1
1558435493585259,-1,0,3,3,6,4,2,2
1558435493599222,1,1,0,-2,1,-1,2,2
1558435493599222,-1,1,-3,-4,-1,1,0,-2
1558435493607201,-1,-3,-3,-3,-4,-5,-3,-1
1558435493607201,-2,-1,-1,0,0,0,-1,1
1558435493621163,0,0,-1,0,-2,-1,-2,-1
1558435493621163,1,-1,1,0,-3,-1,0,-1
1558435493629140,-1,-2,-3,-1,1,0,-1,-2
1558435493629140,-1,-1,0,1,-2,-4,-5,-2
1558435493644136,-1,0,-2,-3,-1,0,-3,-1
1558435493644136,-5,-1,0,-1,0,-1,0,1
1558435493645097,0,0,2,2,4,3,4,1
1558435493645097,-1,-2,-2,-1,-2,-1,0,-2
1558435493659088,1,3,-5,-1,-2,-7,-4,-1
1558435493659088,-8,-9,-4,0,0,3,-4,-3
1558435493667069,-3,-4,-1,-1,-3,-7,1,0
1558435493667069,-2,-2,-2,-2,-2,-3,-3,-2
1558435493681001,2,-2,-1,-2,6,8,3,3
1558435493681001,1,-1,0,1,0,2,-2,-3
1558435493689021,2,2,-2,-1,-2,-3,-1,0
1558435493689021,-2,-3,-1,-2,-1,-2,-1,-1
1558435493703940,-2,0,1,0,1,1,2,1
1558435493703940,3,5,3,0,3,1,4,1
1558435493704937,-3,2,1,0,-1,2,-3,-1
1558435493704937,-3,-5,-2,-4,-8,-7,-2,-2
1558435493718901,-2,-3,-1,1,1,3,2,-1
1558435493718901,1,1,-1,0,-2,0,0,0
1558435493726878,1,2,-1,-1,-1,-2,-2,-2
1558435493726878,-2,2,-1,-2,-2,-2,-2,-3
1558435493740841,-3,-4,-2,-1,-5,-6,-4,-2
1558435493740841,3,0,2,1,1,-6,2,3
1558435493749819,2,4,-2,1,4,4,3,2
1558435493749819,-3,-1,-2,-1,3,6,2,1
1558435493764778,0,-2,-1,-4,-5,-1,-1,-2
1558435493764778,-3,-3,-2,-3,-4,-5,-6,-4
1558435493764778,3,2,0,-1,0,-1,1,1
1558435493764778,-2,-1,-3,-1,-1,1,-4,-2
1558435493779749,0,0,2,2,-2,-4,0,2
1558435493779749,-1,-2,-1,0,-1,0,0,-2
1558435493786722,-2,-3,0,0,2,1,-1,-2
1558435493786722,1,2,0,1,0,-2,-1,-1
1558435493801681,2,-2,-3,-2,-4,-3,-6,-4
1558435493801681,-5,-7,-3,-2,-5,-5,-3,-2
1558435493809660,-4,-5,-2,-1,0,0,0,1
1558435493809660,1,-1,1,2,1,1,3,1
1558435493824619,1,1,-1,-2,2,3,1,-1
1558435493824619,-2,-1,-2,-1,-1,3,1,-2
1558435493825572,-2,-2,2,-2,-4,-6,-6,-3
1558435493825572,2,3,-1,-1,-5,-4,-5,-1
1558435493839017,-5,-2,-1,-1,-1,1,2,-2
1558435493839017,-1,-4,-3,-2,2,0,0,0
1558435493846964,-1,-2,1,-1,3,3,1,-2
1558435493846964,-1,-1,-1,-1,-1,-5,-4,-2
1558435493861772,-2,0,1,-1,-2,0,0,-2
1558435493861772,-2,0,-2,-3,0,-1,2,2
1558435493869755,0,-2,-2,-3,-5,-7,-5,-3
1558435493869755,1,-2,-1,-2,0,-1,0,0
1558435493884719,-1,-1,-1,0,1,1,2,0
1558435493884719,0,0,-2,-1,-5,-5,-3,-1
1558435493885419,-1,0,-1,-1,2,0,-1,-1
1558435493885419,-1,-1,-1,-2,0,5,-1,-2
1558435493898380,3,0,-2,0,-2,-2,-1,2
1558435493898380,-6,-4,-1,-1,0,-1,0,-1
1558435493906358,0,-2,-2,0,-2,-6,-4,-2
1558435493906358,-3,-3,-3,-4,-2,-2,-2,-2
1558435493921319,-1,-1,1,2,0,4,0,0
1558435493921319,4,4,0,-1,-3,-2,-3,0
1558435493929299,1,0,-1,0,-4,-3,-3,-3
1558435493929299,-10,-11,-4,-1,3,2,2,1
1558435493944257,-2,-1,-3,-1,1,-1,-2,-3
1558435493944257,-1,-2,0,0,0,-1,0,0
1558435493945255,-1,0,-2,-2,-4,-4,-2,-3
1558435493945255,0,-2,-1,-1,-8,-5,-4,-1
1558435493959219,-3,-2,0,1,0,1,1,2
1558435493959219,-1,-1,0,1,2,1,0,1
1558435493966200,-3,0,-2,0,2,2,2,1
1558435493966200,4,4,3,2,1,0,0,1
1558435493981194,-1,-1,-1,-1,-2,-4,-4,-3
1558435493981194,1,1,-3,-1,-7,-6,-4,-4
1558435493989140,-2,-5,-4,-3,-3,0,1,1
1558435493989140,0,-1,-2,0,5,1,-1,-1
1558435494004127,-1,-2,0,1,1,-1,2,2
1558435494004127,-1,1,-2,-2,-1,1,-4,-3
1558435494005095,-1,-2,-3,-3,-7,-3,-5,-4
1558435494005095,-1,-4,-4,-4,-5,-4,-1,-2
1558435494019057,5,5,0,2,6,0,0,6
1558435494019057,2,2,-1,0,1,0,2,2
1558435494026040,-5,-3,-1,1,1,1,0,-2
1558435494026040,-2,-3,-1,-2,-3,-3,-4,-5
1558435494041002,-2,-3,0,-1,-3,-3,-7,-5
1558435494041002,2,0,-2,-2,-1,-2,1,0
1558435494050260,2,0,0,1,3,3,4,1
1558435494050260,-1,0,1,1,3,4,3,1
1558435494063938,0,1,-1,-1,-2,-4,-2,-1
1558435494063938,-2,1,-1,1,-1,-1,0,-1
1558435494064934,-1,1,-4,-3,-2,-1,-2,-1
1558435494064934,-1,-5,-2,0,1,0,2,-3
1558435494078928,-4,-3,-2,-4,-2,-2,0,-2
1558435494078928,-2,-3,-1,1,3,2,0,-1
1558435494085911,-1,1,0,-2,0,3,0,-2
1558435494085911,2,5,1,-2,-3,-3,-1,0
1558435494100840,-3,-2,-3,-1,-2,2,0,-1
1558435494100840,-2,-1,0,0,2,-3,0,-2
1558435494109814,3,3,-1,1,1,0,-1,-1
1558435494109814,3,3,-1,-2,-3,1,-1,0
1558435494124776,-7,-10,-4,-2,-3,-4,0,0
1558435494124776,-1,-1,1,-1,-1,1,0,-3
1558435494124776,0,-1,0,1,-1,-1,0,-1
1558435494124776,1,0,0,-3,-6,-9,-6,-3
1558435494138781,1,1,1,0,-2,-1,2,1
1558435494138781,0,0,-1,1,4,7,3,0
1558435494145718,-4,-1,0,-3,-2,-1,-1,-1
1558435494145718,-2,-1,-1,0,1,-1,0,0
1558435494161675,2,1,0,-2,0,-2,-4,-2
1558435494161675,3,-2,-1,-3,-3,-3,-2,-1
1558435494169684,0,-3,-2,-2,2,1,1,0
1558435494169684,-3,-2,-2,-1,-2,2,0,-4
1558435494184653,-3,-1,-1,-3,-2,-2,-2,-2
1558435494184653,1,1,0,0,0,4,-2,0
1558435494184653,-2,-6,-5,-3,-10,-8,-6,-3
1558435494184653,1,1,0,2,5,2,4,4
1558435494198576,4,5,0,0,1,2,1,-1
1558435494198576,-6,-8,-2,-1,-1,1,-1,-3
1558435494206558,-4,-3,-1,0,0,-2,-1,-1
1558435494206558,-2,-4,-1,0,1,2,-3,0
1558435494221516,2,1,-3,-1,0,-2,-2,-4
1558435494221516,0,0,-1,-2,-7,-8,-5,-4
1558435494229494,-2,-1,0,2,2,2,1,0
1558435494229494,-1,0,-2,-2,-4,-4,-2,0
1558435494244454,0,-1,0,-1,-3,-1,0,0
1558435494244454,-1,-2,-1,1,6,4,2,1
1558435494245452,1,-1,1,0,0,0,-1,1
1558435494245452,-4,-3,-3,-1,-3,0,-2,-3
1558435494258418,-2,-1,-3,-3,-5,-3,-4,-2
1558435494258418,-10,-7,-1,-3,-7,-7,-3,-2
1558435494266409,3,1,2,-1,1,2,2,1
1558435494266409,0,3,1,1,2,1,3,1
1558435494281358,-3,-3,-4,-1,2,3,-1,-1
1558435494281358,8,8,-1,-2,-1,4,0,-2
1558435494289524,-1,-2,-2,-1,-4,-8,-5,-2
1558435494289524,-2,-4,-2,0,-1,-6,-3,-1
1558435494304366,1,-2,1,1,3,2,1,3
1558435494304366,-2,0,0,-1,1,1,0,-1
1558435494305292,-1,1,-2,-4,-2,0,-1,-1
1558435494305292,-2,-3,-4,-4,-4,-5,-2,-3
1558435494327305,-2,-2,0,0,1,-2,-1,-1
1558435494327305,1,0,0,1,0,0,-2,-1
1558435494327305,-3,0,-3,-2,-5,-3,-3,-4
1558435494327305,-2,-2,-2,-2,-3,-3,-1,-3
1558435494341228,-1,0,1,-1,-3,-6,-1,-1
1558435494341228,0,0,1,1,3,4,0,3
1558435494349232,1,0,1,3,7,9,4,2
1558435494349232,-1,-2,-1,0,2,5,1,2
1558435494364191,-2,-1,-2,-1,-5,-4,-3,-4
1558435494364191,0,0,-1,1,0,-6,0,3
1558435494372151,-1,0,0,-1,-4,-3,-4,-2
1558435494372151,2,-2,-3,-4,-4,-3,-2,-2
1558435494379098,1,3,-2,0,-2,-2,-3,0
1558435494379098,-8,-11,-3,-3,-4,-3,-4,-6
1558435494386105,-12,-6,-3,1,4,5,3,-3
1558435494386105,1,3,4,1,0,-1,-2,-1
1558435494401065,-3,-1,-1,-1,-2,1,4,0
1558435494401065,0,1,-2,-3,-2,-5,-3,-2
1558435494409015,3,-1,0,0,0,-5,-3,0
1558435494409015,0,1,0,-1,-6,-3,-4,-4
1558435494423979,-3,0,-1,2,6,9,4,1
1558435494423979,-1,-1,-4,-3,-4,-1,2,0
1558435494432078,0,-2,-2,-2,-3,-6,-3,-3
1558435494432078,-2,1,0,0,1,-1,-1,-3
1558435494439067,1,-1,-1,1,1,4,-1,-2
1558435494439067,1,1,1,0,0,0,2,0
1558435494446032,2,-2,-1,-2,0,-2,1,0
1558435494446032,-2,-4,-2,0,-2,-2,-3,-1
1558435494460994,-2,-2,-1,-3,-2,-4,1,-2
1558435494460994,-2,-2,-1,-1,-3,-3,-2,0
1558435494468977,5,4,1,-1,1,1,0,2
1558435494468977,-9,-9,-3,-1,2,1,-1,-2
1558435494483934,-1,-5,-2,-2,0,3,2,1
1558435494483934,-2,0,0,-2,-4,-6,-4,-2
1558435494491909,1,-2,0,0,1,0,-1,-1
1558435494491909,2,4,-1,0,1,4,1,2
1558435494498961,0,-1,3,1,5,-3,0,-1
1558435494498961,3,-1,-4,-1,0,3,-1,-1
1558435494505948,-8,-4,-5,-4,-5,-4,-3,-2
1558435494505948,0,0,-3,-1,-3,-4,-2,0
1558435494520911,-5,0,-2,-1,-2,-2,-2,0
1558435494520911,3,2,0,0,6,7,2,0
1558435494529880,-2,-1,-1,-1,-2,-1,-1,0
1558435494529880,1,-3,-1,-2,-3,-8,-2,-2
1558435494543845,-1,1,1,0,1,0,0,0
1558435494543845,-1,-1,-1,-1,-3,-4,-3,-2
1558435494551828,1,3,-1,-2,-3,-2,1,-2
1558435494551828,-8,-10,-3,-2,-1,-4,-2,0
1558435494567747,1,-2,-1,-2,2,0,0,0
1558435494567747,-6,-4,-1,1,0,-3,-7,-2
1558435494568745,1,2,2,1,-4,-2,2,0
1558435494568745,2,1,0,0,0,2,1,0
1558435494580713,0,-1,-3,0,1,2,2,0
1558435494580713,5,3,-1,1,2,3,1,-1
1558435494589690,-11,-11,-2,-4,-3,1,-2,0
1558435494589690,-3,-2,-2,-2,-5,-7,-4,-4
1558435494603652,-1,-2,-1,-1,-4,-5,0,-2
1558435494603652,-2,0,0,1,0,-1,2,2
1558435494611631,2,1,-1,2,-1,-1,-4,-3
1558435494611631,-1,0,0,0,-1,1,-3,-4
1558435494626590,-2,-3,-1,-3,-1,-4,-2,0
1558435494626590,1,2,0,0,-3,-4,1,3
1558435494627587,0,-1,-1,-2,0,-1,0,1
1558435494627587,0,0,-2,-1,-2,-1,-3,-2
1558435494641892,4,4,-2,-1,-4,-3,-5,-4
1558435494641892,-14,-14,-1,-1,2,-4,-2,-2
1558435494649881,0,0,0,1,6,4,2,0
1558435494649881,2,0,1,-1,0,2,3,2
1558435494663685,-4,-1,0,-2,-4,-2,-1,-1
1558435494663685,1,0,-2,-1,-4,-2,-2,-2
1558435494672710,0,0,-2,1,3,-1,0,1
1558435494672710,2,2,-1,-2,0,1,0,2
1558435494687605,-2,-1,1,0,-3,-2,-4,1
1558435494687605,-1,0,1,-1,-3,-2,-3,-3
1558435494687605,0,-3,-2,-1,1,1,2,-1
1558435494687605,2,1,1,2,6,2,4,4
1558435494710690,-3,-2,-3,-1,-3,-3,-3,-2
1558435494710690,0,2,0,-1,-1,0,1,-1
1558435494710690,1,-2,-3,-4,-6,-6,-3,-1
1558435494710690,0,-3,-1,0,-1,-3,-2,-1
1558435494723333,-4,-1,0,-2,-2,1,-1,-1
1558435494723333,1,-2,-2,-2,0,-1,0,0
1558435494732637,0,6,-2,-1,0,1,0,-1
1558435494732637,-3,-3,0,1,2,4,4,1
1558435494747513,-1,-3,-3,0,1,-1,-1,-1
1558435494747513,-2,-1,-1,-1,-2,-2,-3,-3
1558435494747513,2,3,1,-1,-4,-5,-5,-1
1558435494747513,-1,1,-3,-1,-5,0,0,-3
1558435494761446,-2,-3,-1,1,2,-1,-1,-1
1558435494761446,2,1,1,-3,-2,-3,-1,-4
1558435494769213,-2,-2,1,-1,1,-2,-1,0
1558435494769213,-1,-1,0,1,3,2,2,2
1558435494792184,-2,-3,-1,-1,-3,0,-1,-2
1558435494792184,-2,-4,-5,-3,-3,-1,-2,-2
1558435494793146,-4,-2,-2,-1,-4,-4,-3,-3
1558435494793146,-2,0,-1,-2,-5,-4,-1,-3
1558435494815529,1,1,2,0,4,3,4,3
1558435494815529,1,1,3,4,4,4,3,2
1558435494816084,-1,-1,-1,-1,-3,-3,0,-2
1558435494816084,-1,0,0,-1,1,1,-1,-4
1558435494821071,0,-6,-5,-4,-6,-5,-4,-5
1558435494821071,-8,-4,-2,0,0,-4,0,1
1558435494829048,-1,1,1,2,2,1,1,3
1558435494829048,-1,0,1,-2,-2,-1,-2,-1
1558435494844447,1,2,0,1,-1,1,-1,1
1558435494844447,-2,-2,-4,-2,-1,-2,-1,-3
1558435494852399,1,1,-2,-1,-1,-1,-2,0
1558435494852399,-1,-2,1,1,2,1,2,-1
1558435494866948,0,-1,-3,-2,-3,0,-3,-3
1558435494866948,0,1,-1,-2,-5,-2,-2,-1
1558435494867947,-1,-4,-1,-2,-3,-2,0,-3
1558435494867947,-3,-1,-3,0,0,0,-2,-1
1558435494881379,-2,-1,-2,-2,0,-4,-1,-3
1558435494881379,2,0,-1,0,0,1,-1,-1
1558435494889338,-2,-1,0,0,6,7,5,0
1558435494889338,0,1,0,-1,-3,-3,-1,2
1558435494904199,-1,-1,-3,-2,2,-1,-3,-2
1558435494904199,1,1,1,1,-2,-3,-3,-2
1558435494912178,-2,-2,-1,-2,-2,1,-5,-3
1558435494912178,3,1,-3,-3,-6,-6,-5,-5
1558435494927107,-11,-10,-1,0,1,0,6,4
1558435494927107,0,0,-2,-1,-2,0,-3,-1
1558435494927787,-3,-1,-2,-1,-2,-4,1,0
1558435494927787,1,3,-1,-2,3,5,2,2
1558435494940752,5,3,3,-2,-1,-1,1,1
1558435494940752,-7,-8,-1,0,2,5,2,-2
1558435494950040,-1,-2,-2,-4,-5,-7,-6,-4
1558435494950040,-2,-1,-2,-4,-5,-4,-4,-5
1558435494963739,1,1,-2,-2,-4,-3,-1,0
1558435494963739,3,1,0,0,5,5,3,4
1558435494972697,2,3,-1,1,2,4,3,2
1558435494972697,-4,-3,-2,-1,-1,-6,-1,-1
1558435494986628,-2,-1,0,0,-4,0,-3,-5
1558435494986628,-2,-1,0,-3,-5,-5,-5,-3
1558435494987625,-1,-2,-2,0,-1,-7,-1,-2
1558435494987625,1,-2,2,2,7,9,3,0
1558435495001588,1,1,1,-1,1,0,1,2
1558435495001588,-2,-1,-2,-3,-6,-2,-4,-7
1558435495009568,1,-1,-2,-3,-3,-4,-3,-2
1558435495009568,2,3,-2,0,0,2,1,1
1558435495023534,-12,-10,-4,-1,-4,-5,-4,-2
1558435495023534,-2,0,-3,-1,-5,-6,-3,0
1558435495032786,-2,-6,0,0,1,4,0,1
1558435495032786,-2,-1,-3,-1,-2,-1,0,1
1558435495047616,2,1,-1,-4,-2,1,-1,-3
1558435495047616,-1,-1,-3,-3,0,2,-2,0
1558435495047616,-2,0,-1,-1,-2,-5,-1,-2
1558435495047616,-1,1,1,1,0,-4,-2,1
1558435495061767,2,2,-1,1,3,4,2,1
1558435495061767,2,1,-1,-3,-4,-4,-1,-1
1558435495069750,-5,-4,1,0,1,-1,-2,-1
1558435495069750,-3,-2,-2,-2,2,2,0,-2
1558435495084514,0,1,0,0,-1,-1,-1,-1
1558435495084514,1,-1,1,2,4,3,5,1
1558435495092714,-3,-3,-3,-2,-1,0,-2,-2
1558435495092714,-2,-1,-1,-1,-2,-3,-1,-1
1558435495107305,1,0,3,0,-1,-6,-3,-2
1558435495107305,0,-1,-1,-1,-4,-4,-3,-1
1558435495108302,5,6,0,-1,-2,0,-1,-1
1558435495108302,-11,-13,-2,-2,-5,-1,0,-3
1558435495121559,1,1,-4,-4,-3,0,-2,-4
1558435495121559,-1,-1,0,0,0,-4,0,1
1558435495129501,0,1,0,0,-3,-3,-4,-3
1558435495129501,3,1,-1,-1,-2,-2,-2,-1
1558435495144452,-2,1,0,3,6,7,8,6
1558435495144452,-1,-6,-1,0,5,3,0,-2
1558435495152449,0,2,-1,-2,2,0,-1,1
1558435495152449,0,-2,-3,-3,-8,-7,-8,-4
1558435495167414,-4,-6,-2,-3,-7,-5,-5,-5
1558435495167414,-1,1,1,1,1,2,4,2
1558435495167414,1,-1,0,3,3,4,2,0
1558435495167414,1,1,3,-2,3,0,-1,1
1558435495181341,1,-1,-2,-3,-3,-1,-2,-1
1558435495181341,4,2,-1,-1,-2,-4,-2,-1
1558435495189087,-9,-5,-2,1,4,7,6,1
1558435495189087,3,4,-1,-2,-2,-1,0,-2
1558435495204049,-12,-13,-3,0,-2,-1,-4,-4
1558435495204049,0,0,-1,-2,0,-4,-2,-1
1558435495212057,1,0,-1,0,-3,-1,-1,-1
1558435495212057,1,1,-1,-1,4,-1,-1,0
1558435495226986,1,2,1,2,8,7,4,2
1558435495226986,-3,-2,-4,-3,-6,-5,-4,-2
1558435495228014,0,-1,1,-1,-3,-5,-2,-1
1558435495228014,-1,-2,-2,-4,-6,-1,0,-3
1558435495240958,2,1,-3,-3,-4,-8,-5,-1
1558435495240958,0,-1,-2,1,5,7,7,1
1558435495250180,1,1,-2,-1,-2,-1,-1,-1
1558435495250180,-2,-5,-1,1,-4,-7,-4,-2
1558435495264124,0,1,1,0,2,3,0,-1
1558435495264124,-2,-2,-3,-4,1,1,-1,0
1558435495272119,-1,-2,0,-2,0,-1,1,1
1558435495272119,1,0,2,0,4,2,3,0
1558435495294833,1,-2,0,-1,-8,-9,-6,-1
1558435495294833,-2,-2,-2,-2,-3,-4,-2,-5
1558435495295802,1,0,1,1,1,3,2,2
1558435495295802,-3,-2,-1,-2,-4,-3,-1,0
1558435495300823,2,1,-2,-1,1,-1,-3,0
1558435495300823,-4,0,1,2,3,6,2,2
1558435495309815,-1,-4,-3,-4,-3,-4,-3,-5
1558435495309815,0,1,0,1,-1,0,0,-2
1558435495323745,-1,-1,-2,-2,-4,-3,-2,-2
1558435495323745,3,0,1,0,-1,2,0,1
1558435495331763,-2,0,-1,-3,0,-3,-2,-1
1558435495331763,-3,-3,1,0,0,-1,-2,-1
1558435495346665,-2,0,-3,-2,-2,-1,-2,-1
1558435495346665,0,0,0,1,2,-1,1,0
1558435495355143,1,-1,-2,-1,-4,-1,0,0
1558435495355143,-2,-3,-4,-4,-3,0,-3,-4
1558435495362136,-4,-3,-2,0,-3,-6,-2,-1
1558435495362136,-2,-2,-1,-2,-1,0,-2,1
1558435495370116,1,-1,0,2,2,0,0,0
1558435495370116,1,1,3,2,5,3,2,4
1558435495384063,0,1,-2,0,0,0,-1,-4
1558435495384063,-2,-3,-3,-1,-3,3,0,-3
1558435495392885,-3,-1,-1,-4,-7,-10,-7,-3
1558435495392885,2,1,1,3,7,6,6,3
1558435495406506,1,6,1,-2,-2,-1,3,1
1558435495406506,-4,-7,2,-1,-3,-7,-3,-3
1558435495422836,-4,-4,-5,-4,-5,0,-1,-1
1558435495422836,-2,-2,-1,-3,-5,-2,-3,-3
1558435495430809,1,1,1,1,2,-1,-2,3
1558435495430809,2,3,0,0,3,1,3,0
1558435495430809,-2,-1,-1,0,-2,-5,-5,-5
1558435495430809,-3,0,-4,-4,-4,0,-3,-1
1558435495444719,-2,0,-3,-1,-3,0,-2,-3
1558435495444719,-2,-1,-1,1,3,0,0,-1
1558435495452746,-1,-5,-2,-1,3,1,1,1
1558435495452746,-2,-4,-4,-3,-3,-1,-1,-1
1558435495466655,-2,0,1,0,3,3,1,-1
1558435495466655,0,0,1,-1,1,1,0,-1
1558435495474604,1,0,0,-1,1,2,2,1
1558435495474604,-1,1,0,-1,-4,-7,-5,-4
1558435495490282,-1,-3,0,-4,-5,-2,-2,-4
1558435495490282,0,-1,-1,0,-2,-4,-2,-1
1558435495490282,1,0,0,0,-1,-2,1,0
1558435495490282,-2,-5,-2,-1,0,1,-2,-1
1558435495504548,-2,-2,-2,1,0,0,0,1
1558435495504548,2,4,-3,0,-3,-1,-2,-3
1558435495512484,-11,-11,-2,-2,1,2,0,1
1558435495512484,-2,1,0,0,0,-1,-1,-2
1558435495526465,1,-1,-1,0,0,-2,-1,0
1558435495526465,-1,-2,-1,-6,-12,-13,-7,-4
1558435495535192,0,-1,-3,-1,3,3,4,1
1558435495535192,-1,0,-1,-1,3,2,2,0
1558435495550393,2,0,1,2,5,7,5,1
1558435495550393,-10,-5,-2,0,-1,2,0,0
1558435495551119,0,2,-2,-3,-5,-4,-4,-5
1558435495551119,-3,-2,0,-3,-6,-8,-5,-2
1558435495564086,0,0,-1,1,2,5,3,0
1558435495564086,0,0,-2,-1,0,0,-2,-1
1558435495572064,-4,-2,-3,-2,-7,-7,-5,-2
1558435495572064,-1,-3,-3,-1,-5,-4,-3,-3
1558435495586023,-2,-2,-2,-1,0,-3,-1,0
1558435495586023,0,0,0,0,2,0,0,-1
1558435495594002,-1,-2,-1,0,0,3,-1,0
1558435495594002,4,4,1,-1,0,1,1,2
1558435495609959,-1,-4,-2,-5,-7,-6,-5,-4
1558435495609959,2,5,1,-3,-4,-1,-2,-1
1558435495610957,-1,-6,-1,0,0,-3,-5,-1
1558435495610957,-3,-2,0,4,9,9,10,3
1558435495623923,-3,-2,-2,-2,-2,2,0,-2
1558435495623923,0,-1,-5,-4,-5,-3,-3,-4
1558435495632250,0,4,1,1,-5,-4,-3,-3
1558435495632250,-3,-2,-2,-3,-4,-4,-2,-1
1558435495646940,-2,-3,-1,0,2,-1,-1,0
1558435495646940,-2,-1,0,-2,2,5,5,3
1558435495655338,1,1,-1,0,1,0,2,-1
1558435495655338,-3,-4,-2,-2,-3,-3,-3,-3
1558435495671000,0,1,0,0,-4,-3,-1,-1
1558435495671000,-3,-6,-2,0,-1,-3,-4,-2
1558435495671000,2,0,1,2,4,8,5,2
1558435495671000,0,0,0,-1,3,2,1,0
1558435495684099,0,-2,-2,-3,-6,-7,-6,-1
1558435495684099,-10,-8,0,0,-6,-8,-6,-3
1558435495693073,-1,-2,-1,1,4,6,2,1
1558435495693073,1,2,2,4,4,2,3,1
1558435495706064,2,4,0,-1,-1,-5,-2,-1
1558435495706064,-3,-8,-4,-3,-5,-2,-3,-3
1558435495715007,1,2,-5,-4,-9,-8,-4,-5
1558435495715007,-1,2,0,0,5,4,3,3
1558435495729961,0,-4,1,1,2,-3,-4,0
1558435495729961,1,1,-3,-1,0,-1,2,1
1558435495729961,-1,-2,-3,-1,-4,-3,-3,-4
1558435495729961,1,0,-3,-2,-3,-1,-5,-2
1558435495743883,-2,-2,0,-3,0,2,5,0
1558435495743883,1,-1,1,-1,-4,-5,-3,0
1558435495752685,1,1,3,1,3,6,3,4
1558435495752685,-2,-1,-3,0,1,-1,-2,-1
1558435495766782,-3,-2,0,-1,-1,-4,0,-1
1558435495766782,1,0,-1,0,0,1,0,-1
1558435495774524,1,0,-1,-1,-3,-1,-1,1
1558435495774524,0,-1,-1,1,-2,-3,-3,-4
1558435495789485,-4,-3,-3,-6,-5,-4,-5,-3
1558435495789485,2,0,-2,0,-1,0,1,3
1558435495790477,2,0,0,0,0,0,0,2
1558435495790477,1,-1,1,0,4,3,1,-2
1558435495803442,1,1,-3,0,-1,1,-1,-2
1558435495803442,-8,-6,-4,-3,-4,-4,-2,-4
1558435495812696,-1,-1,-2,-1,-3,-4,-3,-4
1558435495812696,-2,-4,-1,-1,-1,-3,-2,-2
1558435495826931,0,0,-2,-1,0,-1,1,1
1558435495826931,3,3,3,2,3,2,2,3
1558435495834718,-3,0,-1,-1,1,0,-2,-2
1558435495834718,-2,-3,-4,-3,-3,-5,-3,-2
1558435495850122,-2,-2,-1,0,-3,-5,-4,-2
1558435495850122,5,3,-1,1,-2,-2,-1,3
1558435495850122,-7,-5,0,1,2,2,-2,-3
1558435495850122,-1,2,0,-3,-5,-1,-4,-4
1558435495864077,0,-1,-1,0,3,4,2,0
1558435495864077,2,4,1,-1,2,3,2,-2
1558435495872796,-1,-6,0,-3,-2,-4,-2,-1
1558435495872796,-2,-3,0,-2,-5,-5,-3,1
1558435495886989,-2,-3,1,-1,-2,-3,-2,-3
1558435495886989,0,0,0,0,2,1,2,1
1558435495895559,0,1,-1,-3,-2,-3,-4,-4
1558435495895559,-2,-4,-2,-1,-6,-3,-2,-1
1558435495908909,2,2,-1,1,3,3,5,1
1558435495908909,-5,-3,0,0,2,4,-1,-3
1558435495917789,-2,0,-1,0,3,5,1,2
1558435495917789,-3,-1,-4,-2,-5,-5,-5,-2
1558435495923489,-1,-3,-3,-2,-4,-3,-3,0
1558435495923489,2,3,1,-2,0,-6,-2,-1
1558435495932746,1,-2,-2,-4,0,-3,-1,-1
1558435495932746,-2,-2,-3,0,0,0,-1,-3
1558435495946460,2,2,1,1,4,6,2,3
1558435495946460,-1,-3,-1,-1,1,2,-2,-1
1558435495955409,-1,-1,-2,-2,-2,-3,-1,-3
1558435495955409,0,0,0,-2,-4,-5,-1,-1
1558435495977567,-4,-2,-2,0,-2,1,-3,-2
1558435495977567,0,1,1,1,1,-1,2,-1
1558435495979340,0,-2,-3,-1,0,1,4,0
1558435495979340,-1,-3,0,-2,-2,-2,-2,-3
1558435495984427,-4,-4,0,-2,-4,-6,-2,-2
1558435495984427,-1,-2,0,-3,-1,1,0,0
1558435496000286,-1,2,1,0,1,1,0,0
1558435496000286,1,-1,-1,-1,-1,-1,1,0
1558435496006277,-1,-2,2,0,5,2,1,0
1558435496006277,2,-1,-1,0,0,-3,-5,-5
1558435496015242,0,4,1,0,-2,0,1,0
1558435496015242,-1,-4,-2,-3,-1,2,0,1
1558435496028210,-3,2,-2,-2,-5,-6,-4,-1
1558435496028210,-2,-6,-4,-2,-3,-2,-3,-1
1558435496037183,0,-2,-1,-1,-2,-1,-3,-2
1558435496037183,0,1,-2,0,-1,-2,1,1
1558435496043168,0,-1,-1,0,1,1,2,0
1558435496043168,1,1,1,0,0,-1,-1,0
1558435496060123,-4,-5,-1,0,-2,-2,-4,-2
1558435496060123,-2,1,3,0,2,2,3,-1
1558435496066331,-2,-4,-5,-3,-6,-2,-4,-1
1558435496066331,-3,0,0,-3,-4,-4,-3,-3
1558435496083371,-1,-1,-3,-2,-3,-4,-1,-1
1558435496083371,-1,-3,-2,-1,1,2,-3,-3
1558435496089374,-1,-3,-2,1,2,-1,-1,-1
1558435496089374,1,0,-1,0,4,1,-2,-2
1558435496105999,3,3,0,-1,-2,-1,2,1
1558435496105999,-5,-4,0,-1,0,0,1,1
1558435496105999,-1,1,2,-1,-2,-4,-3,-2
1558435496105999,-4,-4,-2,-4,-7,-4,-3,-1
1558435496112982,-2,-3,-2,-4,-1,-2,0,1
1558435496112982,1,1,-3,-2,-1,-1,-4,-4
1558435496126995,1,1,0,-3,-2,0,-1,1
1558435496126995,-4,-4,-1,2,5,5,3,1
1558435496135258,0,1,0,0,1,-3,0,-1
1558435496135258,1,2,2,0,1,1,3,2
1558435496149293,-3,-2,-3,-3,-1,1,-4,-2
1558435496149293,1,4,-2,-3,-2,-3,-1,-1
1558435496157892,2,-1,2,2,4,5,2,3
1558435496157892,1,-1,-1,0,0,-4,-2,-2
1558435496164126,-1,0,-2,-2,-6,-4,-2,-3
1558435496164126,-2,-1,-1,-2,-4,-2,-1,-3
1558435496172827,2,0,0,-2,-2,-3,-2,0
1558435496172827,-2,1,1,1,4,4,0,0
1558435496186019,1,0,-1,0,2,3,0,-1
1558435496186019,-2,-4,-1,-1,-2,-1,-2,0
1558435496195016,-4,-3,-2,-4,-3,-2,-2,-3
1558435496195016,1,-1,1,1,0,-1,2,2
1558435496225714,-3,-1,-3,-1,-2,-1,-1,-3
1558435496225714,-1,-1,-3,-4,-3,-4,-2,-3
1558435496226679,0,-1,-2,0,-3,-3,-4,-3
1558435496226679,0,-4,-3,-1,0,-2,-1,0
1558435496227674,0,-1,1,3,7,5,3,3
1558435496227674,-1,2,2,1,0,0,-2,0
1558435496239645,3,2,-1,-2,-2,-1,0,-1
1558435496239645,-8,-8,-3,-2,-3,-1,0,-2
1558435496247052,-1,-2,1,1,-2,-1,1,0
1558435496247052,-1,0,-2,-1,-3,-2,-2,-1
1558435496254602,-2,-1,-2,-1,-5,-9,-3,-1
1558435496254602,2,1,-1,-3,0,1,0,-1
1558435496268565,-1,0,-1,-1,1,-1,2,-1
1558435496268565,0,0,0,2,6,7,1,3
1558435496277662,-3,-1,-2,-1,-4,-2,-3,-3
1558435496277662,0,1,0,-3,-5,-6,-4,-4
1558435496284554,-3,-4,-1,-2,-2,-1,-3,-2
1558435496284554,0,-3,-4,-5,-3,-2,-1,0
1558435496292632,0,-3,0,0,5,2,-1,0
1558435496292632,-2,-3,0,0,2,-1,-1,1
1558435496306469,3,1,-1,0,1,-1,3,-1
1558435496306469,-1,-1,0,1,-1,-2,-1,0
1558435496315440,-4,-2,-2,-2,-5,-6,-5,-4
1558435496315440,-2,-2,-4,-2,-6,-4,-5,-2
1558435496328743,3,2,-1,0,2,2,3,3
1558435496328743,0,-1,1,1,-1,-6,1,2
1558435496337380,1,2,0,2,5,7,3,0
1558435496337380,-6,-7,-4,-1,-2,-1,-2,-1
1558435496343407,-3,-1,-3,-3,-5,-6,-6,-4
1558435496343407,-1,-2,-1,-3,-5,-1,-3,-3
1558435496352345,1,-2,-2,-3,-1,2,2,1
1558435496352345,7,5,2,1,7,2,2,3
1558435496366302,-2,-3,-2,-1,-2,-2,-2,-1
1558435496366302,-2,-4,-2,-1,0,0,-1,-4
1558435496375279,-1,1,0,1,0,0,1,-1
1558435496375279,0,1,-3,0,-1,0,-2,-3
1558435496389598,-2,-5,1,-2,0,1,1,-1
1558435496389598,-3,-2,-2,-2,-5,-5,-4,-4
1558435496397411,-3,-2,-2,-1,0,-2,-2,-1
1558435496397411,2,4,0,1,1,2,3,2
1558435496413127,-3,-2,-3,1,-1,-2,-1,-2
1558435496413127,-1,-1,-1,-1,1,4,4,-1
1558435496413681,-4,-2,0,1,-1,-4,-3,-1
1558435496413681,-2,-2,-1,-1,-6,-5,-2,-3
1558435496426645,2,0,1,-2,-2,3,0,2
1558435496426645,-3,-3,-2,-2,0,0,-2,-4
1558435496434844,-2,1,1,-1,0,-1,0,0
1558435496434844,1,3,1,-3,-5,-6,-4,-1
1558435496449053,-2,1,-2,0,-5,-3,-1,0
1558435496449053,-2,-3,-1,1,4,3,3,3
1558435496457562,1,-2,-3,-1,-1,-2,-2,-4
1558435496457562,-3,-4,-1,-3,-4,-2,-3,-3
1558435496472902,2,4,0,-2,-1,-3,-3,0
1558435496472902,2,1,1,-1,-1,-1,1,2
1558435496473521,-4,-4,-1,-2,-1,1,-1,-2
1558435496473521,0,-1,0,2,2,-4,1,1
1558435496486850,1,-1,2,3,4,2,1,0
1558435496486850,0,-1,-2,-2,-2,-1,1,-1
1558435496494875,-2,-2,-1,-2,-1,1,-2,1
1558435496494875,-1,-2,-1,-2,0,-1,-1,-2
1558435496509199,-2,-2,0,0,-1,-5,-3,-3
1558435496509199,0,1,-1,-1,2,1,1,0
1558435496517823,3,0,0,0,1,5,4,1
1558435496517823,-1,-1,-1,-3,-5,-4,-3,-1
1558435496533038,-8,-5,-4,-5,-5,-4,-3,-2
1558435496533038,1,1,0,1,-1,-3,-4,0
1558435496534773,-2,0,-4,-3,-2,-2,0,-3
1558435496534773,-2,-5,-2,-2,2,4,1,-2
1558435496545742,6,2,3,1,1,1,1,1
1558435496545742,-11,-10,-3,1,0,0,1,0
1558435496554718,-1,-1,-2,-4,-4,-7,-4,0
1558435496554718,1,1,-1,0,-1,-2,-1,1
1558435496568726,-1,0,-2,-2,-5,-4,-3,-3
1558435496568726,2,3,-1,1,0,0,2,0
1558435496577656,1,0,1,2,4,2,1,0
1558435496577656,-3,-4,-2,-2,-2,1,-3,-3
1558435496592617,-1,0,-1,-4,-3,-3,-5,-3
1558435496592617,1,0,-2,-1,0,-3,-2,0
1558435496593641,-1,-1,-1,0,0,1,3,0
1558435496593641,-1,-1,-1,-1,-1,1,5,1
1558435496606581,-3,-2,-1,-1,-1,-1,1,-1
1558435496606581,0,1,-1,-2,-3,-3,-3,0
1558435496615044,-1,-1,0,-1,-3,-8,-6,-3
1558435496615044,0,-1,-4,-1,-1,0,-2,-3
1558435496628520,-2,-1,-2,-2,-1,0,0,-2
1558435496628520,-1,-2,-1,0,1,-2,-1,1
1558435496637831,3,-1,0,-1,-2,-1,-1,2
1558435496637831,0,0,0,-1,-3,-4,-2,-1
1558435496652456,1,-1,-2,0,3,1,-1,-1
1558435496652456,3,2,-1,-3,-5,0,-6,-4
1558435496653456,-11,-8,-2,0,0,5,3,-2
1558435496653456,-3,1,1,1,3,-1,0,-1
1558435496666420,0,-1,-1,0,-2,-2,-3,-1
1558435496666420,0,2,0,0,-2,-3,2,-1
1558435496675396,2,0,-2,-1,1,-1,1,0
1558435496675396,-4,-7,-5,-5,-5,2,-3,-2
1558435496689357,1,-1,-1,1,4,0,2,1
1558435496689357,-5,-3,-1,-2,-3,-5,-3,-2
1558435496697370,2,1,-3,-3,-4,-4,-3,-4
1558435496697370,0,2,2,1,6,4,7,4
1558435496712298,-1,-3,-2,-1,-1,2,1,0
1558435496712298,0,0,-2,-4,-5,-2,-4,-3
1558435496714291,0,0,0,-1,-1,-1,0,2
1558435496714291,0,0,-1,0,-4,-6,-8,-1
1558435496726280,-1,-1,-2,-3,-8,-4,-3,-3
1558435496726280,-1,-3,-1,0,3,5,2,-3
1558435496735237,-1,-2,1,1,6,3,2,3
1558435496735237,2,2,-1,1,3,2,2,1
1558435496749376,-1,0,1,0,1,2,2,0
1558435496749376,0,0,-5,-3,-6,-4,-4,-2
1558435496757178,-1,-1,0,-2,-4,-4,-3,-2
1558435496757178,-2,-2,-3,0,0,-1,-3,-2
1558435496772391,1,0,-1,-1,3,3,4,2
1558435496772391,-2,-2,0,1,1,-2,-2,-2
1558435496774141,2,3,-2,0,-1,-3,-2,-1
1558435496774141,-2,-1,-2,-3,-5,-5,-3,-2
1558435496786099,-3,-3,0,-1,0,-2,-3,-3
1558435496786099,2,1,4,3,4,3,5,3
1558435496795075,-3,0,-1,0,-4,-4,-2,-1
1558435496795075,-1,-2,-1,-3,-6,-5,-5,-5
1558435496809077,0,-2,-4,-2,0,-2,-3,0
1558435496809077,-3,-5,0,-1,2,4,0,1
1558435496817017,-2,-3,-2,0,-1,-2,-5,-1
1558435496817017,-1,1,-1,-1,-3,-5,0,-1
1558435496832976,-1,0,-2,-1,0,0,1,-2
1558435496832976,0,-1,-1,0,2,3,2,2
1558435496833972,0,-2,1,0,4,3,2,3
1558435496833972,0,2,-1,-5,-4,-3,-3,0
1558435496845981,2,0,-1,0,-4,-6,-2,-1
1558435496845981,-8,-10,-3,-1,-3,-3,-5,-1
1558435496854916,-2,-4,0,0,3,5,3,0
1558435496854916,0,-1,-1,0,-1,4,0,0
1558435496869332,0,2,3,3,4,6,5,3
1558435496869332,2,1,-2,0,2,-2,0,-2
1558435496877856,-1,0,-2,-3,-3,-2,-7,-3
1558435496877856,0,0,1,0,3,1,1,0
1558435496892814,-3,-3,-3,-2,-8,-10,-8,-4
1558435496892814,0,-2,0,-3,-1,-2,4,1
1558435496893814,3,3,-1,-3,-7,-6,2,0
1558435496893814,-1,0,-1,2,2,3,0,-2
1558435496905779,1,2,6,7,9,4,3,4
1558435496905779,4,8,-2,-1,-2,-1,-6,-4
1558435496914754,-9,-13,-4,-4,-5,-3,-4,-5
1558435496914754,0,-5,-1,-2,-5,0,-1,-2
1558435496928858,-4,-4,-4,-5,-11,-12,-4,-5
1558435496928858,1,0,1,3,8,7,6,4
1558435496937694,3,4,-1,-2,-1,-2,0,-3
1558435496937694,-2,-1,-2,1,0,2,-2,-1
1558435496952824,-3,-5,-2,-2,4,5,2,2
1558435496952824,1,5,2,0,-5,-5,-1,1
1558435496953651,0,-2,0,3,3,3,4,2
1558435496953651,-1,-3,-1,0,-4,-9,-8,-5
1558435496966615,-1,0,-1,-2,0,4,5,2
1558435496966615,0,1,1,-2,-2,-4,-5,-1
1558435496974595,-3,0,1,0,-1,1,-3,-2
1558435496974595,-3,-4,-6,-5,-5,-8,-4,-3
1558435496988605,-2,-1,-1,-2,-3,-1,-3,0
1558435496988605,1,2,4,4,9,8,6,0
1558435496997533,-2,-5,-2,-1,1,0,1,0
1558435496997533,3,4,3,3,5,4,9,4
1558435497011499,-3,0,0,-5,-6,-5,-5,-5
1558435497011499,-4,-6,-4,-5,-5,-6,-4,-4
1558435497020472,1,2,-3,-3,-4,-3,-5,-4
1558435497020472,-1,-2,0,2,1,-3,0,1
1558435497026458,-1,-4,-5,-4,0,-5,-2,-1
1558435497026458,1,-2,-2,-2,-3,-1,-5,-2
1558435497035435,-6,-6,1,1,5,2,-2,-1
1558435497035435,1,2,-1,0,3,3,1,0
1558435497048397,-2,-2,-1,0,-4,-2,0,-2
1558435497048397,-2,-4,-6,-4,-10,-10,-6,-2
1558435497058993,3,2,-1,-1,1,2,4,3
1558435497058993,-3,0,-3,2,-1,-1,-3,-1
1558435497071339,-2,0,1,1,0,2,1,-2
1558435497071339,-1,-1,1,0,2,6,5,1
1558435497088291,1,0,-1,0,-7,-8,-4,-1
1558435497088291,-2,2,3,-1,2,0,1,2
1558435497089291,1,2,-1,0,-2,1,0,-2
1558435497089291,3,2,-1,1,2,3,0,0
1558435497095273,-9,-3,3,-2,-2,-4,-3,-3
1558435497095273,-2,-4,-2,-3,-6,-7,-5,-3
1558435497108237,-1,-1,-2,-1,-1,-1,0,0
1558435497108237,1,-4,-3,-1,1,-3,3,3
1558435497117213,3,3,2,2,5,6,3,2
1558435497117213,-3,-3,-6,-2,-1,2,-2,-4
1558435497131178,-1,1,1,2,0,-2,-1,-2
1558435497131178,-4,-1,-2,-1,-2,-1,0,-1
1558435497140158,6,4,-1,-4,-5,-7,-4,-1
1558435497140158,-7,-8,-1,-2,1,4,2,-2
1558435497146136,4,2,3,1,6,6,2,4
1558435497146136,-2,-2,-1,-1,-2,-1,-2,-2
1558435497155114,-1,-1,-2,-2,-4,-2,-3,-2
1558435497155114,2,2,5,-3,-2,-3,-1,1
1558435497169304,-2,-1,-3,-1,-5,-6,-4,-3
1558435497169304,-5,-5,-4,-2,0,-1,1,-1
1558435497177053,-1,2,4,0,1,2,-1,-4
1558435497177053,3,0,2,3,7,8,4,3
1558435497191018,-1,-4,-2,-2,-1,0,-2,-3
1558435497191018,0,0,1,2,-3,-5,-4,-3
1558435497199991,0,-2,-2,-4,-2,0,-2,-5
1558435497199991,-1,-2,-7,-4,-6,-5,-2,-3
1558435497205975,-2,-3,1,0,-1,1,-1,-2
1558435497205975,2,2,4,2,3,4,3,0
1558435497214954,-4,-3,-4,-3,0,0,0,-1
1558435497214954,2,3,3,1,2,3,-1,1
1558435497229051,3,-1,-8,-5,-4,-6,-3,2
1558435497229051,-9,-5,-1,-3,-4,-3,-5,-6
1558435497237891,-2,-3,-4,-2,-3,-5,-3,-1
1558435497237891,0,0,3,3,3,3,5,1
1558435497250856,0,-3,-1,-2,-1,1,-1,0
1558435497250856,1,1,0,-2,-7,-5,-3,-1
1558435497259832,3,1,1,2,-1,-1,-4,1
1558435497259832,1,-3,-5,-3,-1,-2,-1,0
1558435497265928,-11,-9,-2,0,2,-1,2,0
1558435497265928,2,2,-1,-1,1,-1,1,1
1558435497274792,-2,0,-1,-3,-6,-3,1,-2
1558435497274792,1,-2,0,-2,-1,1,-3,-3
1558435497288883,-2,-1,-2,-1,-1,2,-1,-4
1558435497288883,-1,-2,-5,-1,0,-5,-2,0
1558435497297733,-4,-9,-9,-1,6,4,1,0
1558435497297733,-2,-3,-3,0,3,-1,1,-1
1558435497310695,-1,-1,-2,-5,-4,-5,-5,-2
1558435497310695,-1,-1,0,-1,0,-4,-3,0
1558435497319681,-1,0,-2,-1,-5,-3,-2,-1
1558435497319681,-1,0,5,-1,-1,2,2,0
1558435497334634,-2,0,-1,1,-2,-2,-3,-3
1558435497334634,-1,0,2,-1,-1,1,0,1
1558435497336628,2,1,-1,2,0,-1,-1,-1
1558435497336628,-3,-3,-3,-3,-6,-3,-5,-6
1558435497357571,4,3,4,-1,0,1,-2,-1
1558435497357571,-1,0,0,1,2,2,1,1
1558435497358568,-4,-4,-1,0,3,2,0,-3
1558435497358568,0,2,0,0,-2,-1,1,2
1558435497371718,3,5,2,0,-1,-2,-1,0
1558435497371718,-4,-3,-2,-2,-5,-1,-2,-2
1558435497380511,1,4,-2,-1,-1,-2,-1,-1
1558435497380511,-1,-5,-6,-3,1,1,1,1
1558435497394507,1,-3,1,0,1,-1,-2,0
1558435497394507,-1,-3,-1,0,1,-2,-1,-3
1558435497396467,-1,-2,3,-2,-5,1,-2,-2
1558435497396467,-3,4,0,-1,2,2,0,-2
1558435497408450,0,3,4,3,1,1,2,0
1558435497408450,1,-3,0,0,2,1,-1,-2
1558435497417411,-1,-3,-1,3,1,-2,0,1
1558435497417411,0,1,3,-3,-5,-2,-2,1
1558435497431373,-1,-4,-5,-4,-2,-1,-1,1
1558435497431373,-2,-3,-5,-2,-4,0,0,-1
1558435497440349,-2,-2,-1,-1,-1,1,-1,0
1558435497440349,-3,-4,-6,-4,-3,-9,-7,-4
1558435497455310,-1,0,1,1,2,0,2,1
1558435497455310,-1,-2,-2,-2,-3,-4,0,-1
1558435497456307,-1,-2,-4,-2,-1,2,-1,-2
1558435497456307,-2,-1,-1,0,1,0,-4,-3
1558435497468273,-1,2,2,0,0,-4,0,-2
1558435497468273,-1,2,2,2,5,6,3,-1
1558435497477250,-1,-4,-4,-4,-4,-5,-2,0
1558435497477250,-1,-2,-4,-1,-7,-6,-1,0
1558435497491214,-2,-2,-2,1,0,1,-2,-2
1558435497491214,2,1,0,-1,3,1,-2,0
1558435497500189,-3,-3,-1,0,0,4,3,0
1558435497500189,0,-4,-3,-3,-5,-1,2,0
1558435497515149,0,-1,-6,-10,-9,-7,-5,-4
1558435497515149,-9,-11,-5,-4,-5,-4,-5,-4
1558435497516148,2,2,2,1,6,4,4,0
1558435497516148,-4,-1,2,2,1,-3,-2,0
1558435497528114,0,0,-2,1,0,-1,1,0
1558435497528114,0,-1,-6,-4,-2,0,-2,-1
1558435497537100,2,6,8,0,0,-3,0,-1
1558435497537100,0,-5,-4,2,-1,-1,0,1
1558435497551054,0,-7,-9,-8,-1,2,0,0
1558435497551054,-8,-6,-5,-2,-2,-4,-2,-4
1558435497560030,1,-2,-3,-1,-4,-4,1,-1
1558435497560030,1,2,0,-1,1,0,0,-1
1558435497574989,-2,0,3,2,-1,-1,0,3
1558435497574989,0,-2,-5,-2,3,3,-4,-2
1558435497575988,0,1,0,0,0,-4,-3,0
1558435497575988,-1,-1,0,1,-3,-3,-3,2
1558435497588951,-4,-1,1,1,1,0,1,-2
1558435497588951,5,7,7,0,-1,-2,2,2
1558435497597928,-2,-4,-3,-2,-2,-3,-1,-5
1558435497597928,-2,-1,-1,-6,-4,-3,-3,-5
1558435497610894,-3,0,-1,1,-2,1,-1,-1
1558435497610894,0,0,1,-2,0,0,1,1
1558435497619868,0,1,0,-1,-1,-2,-4,0
1558435497619868,0,-1,-2,0,1,-1,0,-2
1558435497634828,-1,-2,-3,-6,-5,-5,-3,-3
1558435497634828,-1,-3,4,1,-2,1,2,-2
1558435497636825,-1,2,4,4,1,2,-1,2
1558435497636825,-1,-2,-3,-5,-2,2,2,1
1558435497657768,1,3,2,4,1,0,-2,0
1558435497657768,2,1,-6,-2,-5,-5,-5,-3
1558435497658765,-7,-9,1,-2,-2,0,0,-1
1558435497658765,-2,-2,-3,-1,0,-2,1,-1
1558435497670734,0,0,0,0,-1,-1,-2,-1
1558435497670734,3,-1,-3,-2,-3,-1,2,2
1558435497679708,0,3,0,-1,4,3,3,2
1558435497679708,-2,1,3,0,1,-2,-4,-4
1558435497694673,-5,-6,-6,-3,-3,-2,0,-4
1558435497694673,-3,-4,-5,0,-3,-3,-5,-2
1558435497696663,1,3,2,2,1,3,0,-1
1558435497696663,-5,-7,-5,-2,0,2,0,0
1558435497708633,-1,-6,-7,-2,0,-1,0,-2
1558435497708633,2,6,4,1,-1,-1,-3,1
1558435497717608,-2,-4,-2,-3,-5,-5,-4,-2
1558435497717608,2,2,2,1,-4,0,-2,-1
1558435497731576,-2,-3,2,0,1,0,-1,-1
1558435497731576,-4,-3,0,-3,-2,-1,0,-2
1558435497739555,-2,2,-3,2,-1,-4,-2,-1
1558435497739555,0,5,8,3,1,1,4,0
1558435497754508,-1,-2,-2,0,1,-1,0,0
1558435497754508,-3,-4,-4,-4,1,-1,0,-2
1558435497756504,1,-1,-3,-6,-3,0,1,0
1558435497756504,3,-1,-1,0,-2,-2,-4,-1
1558435497768472,-2,-2,-2,0,3,1,0,1
1558435497768472,0,-1,1,1,-1,-1,1,-4
1558435497777447,-1,-2,-3,-1,-2,-1,-1,-2
1558435497777447,-2,0,-1,1,1,-3,1,-1
1558435497791415,2,4,1,0,0,2,-1,0
1558435497791415,1,-1,-3,-5,-3,0,0,2
1558435497800388,2,5,3,0,0,-1,-1,0
1558435497800388,-1,0,6,1,2,3,2,3
1558435497815353,-3,-3,-6,-5,-1,-3,-2,-1
1558435497815353,-1,2,1,-2,-2,-1,-4,-4
1558435497816356,2,0,-4,-3,-2,-1,0,0
1558435497816356,1,0,-3,-2,1,-1,-1,-2
1558435497828314,-1,-2,1,0,-2,-1,-2,1
1558435497828314,0,-1,3,3,0,-1,2,1
1558435497837287,-4,-7,-7,-3,-2,-3,-4,-5
1558435497837287,-2,-3,-3,-1,0,0,-1,-3
1558435497851256,-1,0,1,0,-2,-3,-1,-2
1558435497851256,-1,0,1,2,1,0,-2,1
1558435497860227,-3,-5,-5,-6,-3,-1,-1,0
1558435497860227,0,1,-1,-3,-3,-3,-1,0
1558435497875186,-1,1,-1,-5,0,-1,0,-1
1558435497875186,2,-5,-6,0,3,0,1,-1
1558435497876183,-10,-7,0,0,-1,1,-1,-1
1558435497876183,2,3,1,-1,-1,-1,-2,1
1558435497888152,-4,-7,-10,-7,-4,0,-1,-3
1558435497888152,-3,0,1,1,-2,-1,1,-3
1558435497897127,0,-2,0,-1,-2,-3,-2,-2
1558435497897127,-1,2,0,-1,0,-1,0,0
1558435497911091,2,6,7,3,-1,-2,0,0
1558435497911091,-2,-5,-6,-2,0,-2,-2,1
1558435497920081,3,1,-1,-1,1,1,1,1
1558435497920081,-4,-1,0,3,-2,-1,-3,-4
1558435497935027,-1,-3,0,-1,-3,0,-2,-3
1558435497935027,-4,-2,-1,-6,-2,-3,-1,-2
1558435497936023,2,1,3,2,1,2,3,2
1558435497936023,0,0,-4,-4,-2,-3,-4,-2
1558435497948994,-6,-4,0,1,-1,-1,0,-1
1558435497948994,2,-1,1,1,-1,-1,-2,-1
1558435497957967,0,1,-1,0,-3,-2,-4,-1
1558435497957967,0,-2,-4,-4,-3,1,0,2
1558435497970935,2,4,4,5,4,2,-1,0
1558435497970935,-3,0,-2,-4,-2,1,-2,-1
1558435497979905,0,1,3,0,0,-1,-1,-1
1558435497979905,-2,-3,-2,-2,-2,-3,-4,-1
1558435497994868,1,-1,-4,-1,-2,-2,-4,-2
1558435497994868,-1,1,-1,4,-2,2,3,-1
1558435497995863,-2,0,-1,-4,2,1,0,-3
1558435497995863,0,0,4,4,5,1,1,2
1558435498008829,-1,-1,1,-3,-1,0,0,0
1558435498008829,5,9,9,-2,-1,-2,0,2
1558435498017807,-3,-6,-6,2,-4,-2,-3,-1
1558435498017807,-1,-5,-3,-3,0,-1,2,-2
1558435498030771,1,-2,-4,-2,0,0,-1,-1
1558435498030771,1,2,5,1,3,3,-1,1
