timestamp,emg1,emg2,emg3,emg4,emg5,emg6,emg7,emg8
1558435248064815,-4,-1,-4,-3,-6,-2,-3,-3
1558435248064815,-3,-2,-2,0,-4,-5,1,-1
1558435248065812,-1,-6,-3,-3,-2,0,-3,-1
1558435248065812,1,1,-1,0,7,6,2,2
1558435248065812,0,0,-2,0,2,2,-1,0
1558435248065812,-3,-2,0,0,0,-2,1,2
1558435248066810,-9,-12,-2,-3,-3,-2,0,-3
1558435248066810,0,1,-2,1,-3,-4,-3,-3
1558435248073791,0,-4,-2,0,2,1,0,-3
1558435248073791,1,3,0,-5,-3,2,-5,-3
1558435248086756,0,1,-1,0,-3,-5,-3,-2
1558435248086756,-3,-3,-1,-5,-5,-5,-3,-2
1558435248092740,0,0,2,3,8,3,1,5
1558435248092740,2,2,-1,1,3,2,0,1
1558435248108698,-1,2,-2,-5,-9,-7,-2,-2
1558435248108698,1,-5,-3,-3,-7,-3,-5,-2
1558435248116677,-10,-4,1,1,3,3,4,0
1558435248116677,3,0,2,3,11,6,3,1
1558435248122661,1,3,0,2,3,4,0,2
1558435248122661,-2,-1,-4,-2,-6,-4,-2,-3
1558435248137621,3,-1,-2,-3,-7,-5,-4,-2
1558435248137621,-2,-1,-1,-2,-7,-5,-4,-2
1558435248146596,-2,-1,-3,-1,-3,-2,-2,-2
1558435248146596,-2,-5,-2,-2,0,-3,-2,-1
1558435248184494,4,2,1,2,5,5,4,2
1558435248184494,7,9,1,0,1,0,0,0
1558435248185491,-10,-10,-2,-4,-3,-1,2,-2
1558435248185491,2,0,2,2,1,1,1,0
1558435248186489,-4,-7,-4,-1,0,-2,-3,-2
1558435248186489,2,0,-2,-2,0,-1,-1,0
1558435248186489,6,7,2,2,3,-2,2,4
1558435248186489,-3,-1,0,-2,-5,-1,-4,-2
1558435248197460,-3,-2,-1,-1,-2,-1,1,-3
1558435248197460,-5,-7,-5,-5,-8,-12,-4,-2
1558435248205439,2,1,-1,-1,-3,0,-5,-4
1558435248205439,-2,-2,1,2,5,6,4,2
1558435248212419,4,4,0,0,8,6,0,5
1558435248212419,0,1,3,0,8,5,4,3
1558435248228377,-4,-3,-2,-1,-4,-4,-6,-6
1558435248228377,3,3,-1,-2,-5,-9,2,1
1558435248235359,3,1,-1,-1,-3,-3,-3,-2
1558435248235359,-13,-12,-3,-1,-7,-3,-4,-2
1558435248242340,2,2,-1,-2,2,0,-3,0
1558435248242340,-6,-7,-3,-2,-3,-1,-4,-3
1558435248257299,-3,-3,-2,-2,0,-1,1,-1
1558435248257299,-1,-2,-2,0,-1,-2,-2,2
1558435248265280,1,1,0,1,1,3,3,-2
1558435248265280,-1,1,0,-1,-5,-6,-4,0
1558435248272259,-1,0,-1,-3,-6,-3,-2,-3
1558435248272259,4,3,3,2,3,4,1,-1
1558435248288216,-1,-3,0,0,0,2,3,2
1558435248288216,-1,-3,-4,-2,3,0,-4,-5
1558435248295200,-5,-2,-4,-3,-5,-3,-3,-1
1558435248295200,-4,-1,-6,-1,-2,0,-2,-2
1558435248302182,1,3,0,0,-1,-2,4,4
1558435248302182,-1,1,-1,0,-1,-4,-3,-3
1558435248317140,-2,-7,-1,-1,-5,-2,-1,-3
1558435248317140,1,4,0,1,12,10,8,2
1558435248326115,-1,-1,1,3,8,6,-1,1
1558435248326115,1,1,0,-5,-4,-3,-4,-3
1558435248332100,-2,-1,0,-4,-9,-7,-7,-2
1558435248332100,4,1,-4,-4,-10,-9,-1,-1
1558435248348059,-2,0,-3,0,2,3,3,2
1558435248348059,-1,0,3,6,11,12,8,3
1558435248355039,3,3,-2,-1,0,-4,-1,0
1558435248355039,2,0,1,0,-3,-3,-5,-7
1558435248363018,-14,-10,-8,-6,-9,-8,-7,-6
1558435248363018,1,-1,-1,-2,1,2,0,1
1558435248377977,0,3,3,-1,-3,-1,0,3
1558435248377977,-4,-5,-2,-4,-1,-2,-2,-3
1558435248385957,-1,-9,-2,0,-2,-1,-1,-3
1558435248385957,-3,-4,-3,-4,-4,-4,-1,-2
1558435248392940,0,2,-1,-2,1,0,1,0
1558435248392940,2,8,2,2,4,6,2,3
1558435248407899,-2,-5,0,-1,0,-3,-8,-3
1558435248407899,-3,1,-1,-1,-1,1,0,-2
1558435248414878,2,3,2,4,6,4,1,-1
1558435248414878,-2,-7,-3,-5,-5,-4,-4,-2
1558435248422858,2,1,0,-1,-3,-4,-2,0
1558435248422858,0,-4,0,-1,-3,-1,-2,2
1558435248437819,-2,1,-1,-1,-2,-5,-2,-2
1558435248437819,-4,-2,-2,-2,-1,-1,-3,-1
1558435248445807,-2,1,1,-2,-5,-5,-1,-2
1558435248445807,0,0,-4,1,2,1,0,2
1558435248452793,4,-1,-2,-2,5,5,6,3
1558435248452793,-4,-1,1,-1,0,0,-4,-3
1558435248468737,-3,-4,-1,-2,-1,-4,-3,1
1558435248468737,-5,-4,-3,-3,-9,-10,-6,-7
1558435248474719,-2,-1,-3,0,-4,-2,-3,-5
1558435248474719,5,1,0,-1,6,1,3,3
1558435248482697,-4,0,-2,2,-2,4,3,0
1558435248482697,2,2,0,1,5,3,0,0
1558435248497657,-4,-6,-1,-1,-3,0,-1,-1
1558435248497657,-4,-4,-2,0,-5,-3,-2,-2
1558435248505635,3,4,-1,-2,-4,-4,-3,-1
1558435248505635,-1,3,0,-3,2,1,5,2
1558435248512617,-2,-3,-1,3,5,4,-3,-5
1558435248512617,-3,-2,-1,0,-8,-7,-1,-1
1558435248528574,-1,-1,-4,-4,-4,-6,-3,-4
1558435248528574,0,-1,-1,-2,-4,-3,0,1
1558435248535556,-1,4,-1,1,1,-1,2,1
1558435248535556,3,3,3,1,5,6,4,2
1558435248542537,3,-3,0,-2,7,1,-1,1
1558435248542537,-3,-2,-2,-1,-5,-1,-4,-4
1558435248557497,0,-2,0,-3,-4,-5,-5,-1
1558435248557497,-1,-3,0,2,2,1,5,2
1558435248565475,3,3,0,0,-2,0,-2,-1
1558435248565475,-5,-6,0,3,-4,-5,-5,-1
1558435248572457,-6,-4,-2,-6,-1,0,0,-1
1558435248572457,0,1,-3,-1,-6,-3,-1,-1
1558435248588415,1,2,1,-1,0,2,2,-1
1558435248588415,0,-2,-3,-4,-4,-5,-6,-5
1558435248595397,-2,-2,-2,0,0,-3,-1,-1
1558435248595397,-2,-1,2,1,7,7,-3,0
1558435248610357,2,1,-1,1,4,8,7,3
1558435248610357,1,-2,-2,-1,-2,-1,-5,-2
1558435248617336,-3,-2,-3,-6,-10,-9,-3,-4
1558435248617336,-1,-3,-2,-5,-5,-9,-4,-3
1558435248625316,-1,1,1,2,3,1,2,2
1558435248625316,1,4,2,0,2,0,1,0
1558435248632298,-1,-5,0,-1,4,4,0,1
1558435248632298,-7,-6,-2,-3,-7,-6,-10,-8
1558435248648253,1,1,-3,-5,-9,-10,-2,-1
1558435248648253,5,2,2,3,5,6,6,3
1558435248655238,-3,-4,1,2,7,9,1,1
1558435248655238,3,3,0,0,-2,-2,-2,0
1558435248671193,-2,-6,-1,2,0,0,0,-1
1558435248671193,0,3,-1,-2,-1,-5,-3,-3
1558435248677177,4,1,-1,2,0,-1,1,3
1558435248677177,-1,-3,-1,-2,-2,-2,2,-1
1558435248686155,-3,1,-4,-2,-7,-5,-8,-5
1558435248686155,0,-2,0,1,6,5,1,0
1558435248692137,-6,-2,-1,1,-1,-1,0,-1
1558435248692137,-4,-1,-3,0,-2,-2,-1,0
1558435248708095,-2,-3,-1,-2,-2,-4,-4,-3
1558435248708095,-5,-6,-5,-3,-6,-3,2,0
1558435248715078,0,0,-2,-2,1,0,-7,-5
1558435248715078,1,1,1,-2,2,2,3,2
1558435248731033,2,1,-1,2,2,2,0,0
1558435248731033,4,1,1,-1,4,4,4,3
1558435248738017,-1,2,-3,-1,-1,-1,4,-1
1558435248738017,-5,-3,-1,-3,-6,-5,-5,-4
1558435248745995,-1,0,-2,-1,-1,-1,0,0
1558435248745995,-3,-7,-4,-4,-8,-4,-4,-3
1558435248752974,0,-1,-1,-3,-8,-6,-2,-1
1558435248752974,4,4,2,0,1,2,-3,3
1558435248767933,-9,-5,-4,-3,0,-2,-4,-3
1558435248767933,4,8,1,0,7,7,5,3
1558435248774916,-3,-12,-2,-2,1,2,2,2
1558435248774916,-6,-6,-6,-3,-4,-2,-2,-5
1558435248790873,0,-2,0,-3,-7,-5,-4,-4
1558435248790873,-2,-2,0,0,-2,-2,-2,-2
1558435248797855,-2,0,0,2,3,-6,-3,0
1558435248797855,3,1,-1,0,4,7,9,1
1558435248804836,0,1,0,-1,5,5,-1,-3
1558435248804836,-3,-4,0,-1,-4,-3,0,-3
1558435248813811,3,3,-1,-3,-6,-5,-6,-2
1558435248813811,-5,-3,-3,2,1,-3,-3,-1
1558435248827774,-10,-12,-2,-1,-1,2,1,1
1558435248827774,-2,-3,-1,-2,0,-2,-2,-3
1558435248834757,-1,-2,0,-2,-3,3,2,4
1558435248834757,3,3,1,0,5,1,-2,-1
1558435248850715,1,2,-1,0,0,-3,-1,-1
1558435248850715,-4,-7,-4,-3,-4,-7,-5,-2
1558435248857694,0,0,-3,-1,-4,-5,-5,0
1558435248857694,0,1,-3,-2,-7,-6,-4,-4
1558435248865675,-1,0,0,2,0,2,3,1
1558435248865675,-1,1,0,0,4,2,0,-1
1558435248879638,-1,4,-1,-2,-3,-2,2,0
1558435248879638,-3,-7,0,2,1,6,-1,-1
1558435248888613,2,0,0,0,2,2,-2,0
1558435248888613,0,-1,-1,-3,-4,-5,-4,1
1558435248894598,-1,1,0,-1,0,-3,2,-1
1558435248894598,-3,-2,0,-3,-7,-5,-3,-4
1558435248910554,3,2,-1,1,-2,-2,2,1
1558435248910554,8,8,2,3,7,7,4,3
1558435248917535,-13,-15,-3,-1,4,6,-1,-3
1558435248917535,-2,-3,-4,-6,-11,-11,-3,-1
1558435248925513,-3,-2,-1,-3,-3,-2,-4,-3
1558435248925513,2,2,2,0,7,9,6,4
1558435248940473,3,4,1,2,2,-1,-1,-2
1558435248940473,-2,-4,1,3,3,2,-2,-3
1558435248948452,2,0,-3,-3,-2,-2,1,2
1558435248948452,-7,-4,-2,-4,-6,-7,-5,-2
1558435248955432,0,0,-1,-1,-4,-2,-3,-3
1558435248955432,-5,0,-2,-4,-2,0,0,-3
1558435248970393,4,5,2,-1,-5,-4,-4,-2
1558435248970393,-3,-1,0,0,1,0,0,-2
1558435248979368,0,0,2,1,7,1,0,2
1558435248979368,4,5,0,2,3,6,3,1
1558435248986350,-5,-8,-3,-2,2,1,-1,-2
1558435248986350,-2,-6,-5,-6,-5,-2,-4,-3
1558435249000316,3,6,0,1,-1,-6,-4,-2
1558435249000316,-3,1,-2,0,1,-1,0,3
1558435249009288,-1,-3,-2,0,-2,-1,2,-2
1558435249009288,-1,-1,-3,-5,-10,-8,-6,-7
1558435249015276,-12,-9,-4,-3,-4,-2,-3,-4
1558435249015276,3,4,2,1,2,0,1,2
1558435249031231,0,1,1,0,3,3,5,2
1558435249031231,-2,-1,-2,-3,-5,-5,-2,1
1558435249037217,3,3,1,0,0,4,2,-4
1558435249037217,-1,-4,-2,-2,-3,-3,-4,1
1558435249046191,-3,-4,1,0,-3,-3,-1,-2
1558435249046191,0,-1,-1,2,5,3,-2,-2
1558435249060153,3,2,-3,1,7,5,4,3
1558435249060153,0,-1,1,2,4,4,1,-1
1558435249069132,-1,0,-2,-2,-1,-1,-6,-4
1558435249069132,0,0,-2,-2,-7,-2,1,2
1558435249075112,-3,-5,-2,-4,-7,-4,-4,0
1558435249075112,-2,-2,0,-2,-2,-7,-2,-1
1558435249091074,1,2,1,-1,-1,0,1,6
1558435249091074,1,1,-2,-2,-4,-5,-7,-7
1558435249097055,-9,-7,-1,0,4,1,0,-5
1558435249097055,4,1,0,1,1,0,-2,-4
1558435249113010,-1,-1,2,2,4,3,0,2
1558435249113010,-11,-14,-4,-2,-2,0,1,0
1558435249119992,1,0,-2,0,-8,-5,-4,-1
1558435249119992,-3,-4,-2,-2,-3,-6,-2,-1
1558435249128969,0,5,1,-2,6,0,1,0
1558435249128969,1,3,0,1,1,2,0,0
1558435249134953,3,2,3,1,5,3,1,-1
1558435249134953,-3,-1,0,0,-2,-1,-1,0
1558435249151914,1,1,-3,-3,-6,-2,4,3
1558435249151914,0,-2,-1,0,-2,-6,-5,-2
1558435249157895,3,2,-2,-5,-6,-1,-2,-2
1558435249157895,-3,-7,-4,-4,-1,-3,-3,-4
1558435249172851,0,-2,-2,1,-3,-2,-1,-2
1558435249172851,3,1,3,5,6,-1,2,2
1558435249179837,5,4,1,-1,1,1,3,1
1558435249179837,-8,-8,-3,-4,-2,0,-3,-3
1558435249195811,-3,-2,-1,-2,-4,0,-1,-5
1558435249195811,-3,-2,-1,-2,-4,-3,-3,1
1558435249196791,8,5,0,1,-5,-5,3,3
1558435249196791,4,6,0,4,9,5,4,4
1558435249211755,-9,-13,-4,-2,-1,0,-2,-3
1558435249211755,2,0,1,2,3,3,6,2
1558435249217799,-2,-3,1,-1,-2,-2,-3,0
1558435249217799,1,1,-2,-3,-4,-1,-1,-2
1558435249232693,1,1,1,0,0,-1,-3,-2
1558435249232693,0,1,0,-1,-1,-2,-2,0
1558435249239718,-2,-3,-1,0,-3,-2,-2,-2
1558435249239718,0,-3,-1,-3,-4,-1,0,3
1558435249255641,-1,1,-2,-1,2,2,-3,-2
1558435249255641,-4,-4,-4,-3,-4,-4,-1,-3
1558435249256628,-2,0,-2,-1,1,-1,-1,-2
1558435249256628,0,0,0,0,0,0,-2,-2
1558435249271592,0,-1,-1,-2,-4,-2,-1,-1
1558435249271592,2,3,-2,-5,-5,0,-2,-3
1558435249277682,-12,-13,-3,-4,-6,-9,-6,-7
1558435249277682,2,-1,-4,-1,5,2,4,3
1558435249292643,8,6,4,5,6,7,5,3
1558435249292643,-8,-6,-3,1,5,8,-3,-2
1558435249300584,1,1,0,-1,-3,0,1,2
1558435249300584,-2,-2,1,-4,-6,-4,0,-2
1558435249315522,0,-1,-2,-4,-10,-10,-6,-4
1558435249315522,4,2,-1,-1,-4,-2,-1,-1
1558435249316470,-1,0,-1,4,10,4,2,2
1558435249316470,-1,-3,5,6,4,4,4,2
1558435249331443,-2,0,-7,-3,3,2,-1,0
1558435249331443,-1,-4,-1,0,1,0,-1,0
1558435249337415,1,1,-2,-3,-6,-3,-4,-1
1558435249337415,-1,0,-1,-3,-3,-3,-1,1
1558435249352375,-3,0,1,-2,-4,-4,-4,-2
1558435249352375,-3,-2,-2,-5,-6,-6,-2,-2
1558435249360352,4,3,-2,-2,-5,-2,-1,0
1558435249360352,-10,-12,-3,0,-2,1,2,-4
1558435249375310,4,3,2,0,4,-1,-3,-2
1558435249375310,-5,-2,1,1,8,5,6,5
1558435249376308,1,-2,1,1,1,4,3,0
1558435249376308,-1,2,-3,-2,-9,-5,-3,-3
1558435249391267,-2,-3,-4,-4,-7,-8,-6,-3
1558435249391267,-1,-1,-2,-4,-9,-9,-1,-3
1558435249397286,0,1,0,2,6,6,0,0
1558435249397286,3,5,1,4,16,13,5,4
1558435249414207,1,-3,-1,0,2,4,0,-1
1558435249414207,-5,-3,-2,-1,-7,-7,-2,-4
1558435249420194,-1,1,-2,-4,-7,-5,0,0
1558435249420194,-5,-5,-3,-4,-7,-7,-8,-5
1558435249436148,0,-5,1,2,5,1,2,3
1558435249436148,2,0,-1,0,1,5,3,0
1558435249436148,-1,-1,-4,-4,-10,-11,-7,-1
1558435249436148,-2,0,-5,-3,-4,-5,0,-2
1558435249451112,3,7,5,5,8,6,0,-1
1558435249451112,-5,-4,-3,0,2,2,0,0
1558435249457095,-4,-4,-3,0,4,4,0,-4
1558435249457095,2,1,1,-3,-6,-5,-5,-2
1558435249472083,-2,-3,-3,-4,-10,-9,-4,-6
1558435249472083,0,-1,-3,-2,-2,-4,-2,-1
1558435249480029,1,1,0,0,-1,-4,0,0
1558435249480029,-1,0,-1,2,6,6,2,1
1558435249495988,-1,3,1,2,3,1,1,2
1558435249495988,4,3,3,-1,3,-2,1,-1
1558435249495988,-5,-5,-3,-1,-5,0,-2,-5
1558435249495988,-2,0,-4,-2,-5,-5,-5,-1
1558435249511943,-4,-2,-2,-1,-1,-3,0,-2
1558435249511943,1,1,-1,0,4,0,1,-1
1558435249518256,0,2,0,-3,0,0,0,0
1558435249518256,-4,-3,2,1,2,2,-4,-3
1558435249532889,-6,-9,-5,-1,-4,1,3,1
1558435249532889,-5,-3,-4,-2,-4,-6,-4,-2
1558435249540205,3,2,1,1,3,0,2,2
1558435249540205,5,4,-1,-2,0,3,0,0
1558435249556069,-14,-11,-2,-3,-8,-7,-2,-5
1558435249556069,2,0,-2,-4,-4,-1,-2,-1
1558435249557071,-9,-8,-4,-1,3,0,1,0
1558435249557071,1,6,0,3,1,-4,0,1
1558435249571786,2,-1,-1,0,8,8,3,2
1558435249571786,0,-5,0,0,-3,1,-1,-2
1558435249578000,1,1,0,-3,-1,-3,-6,0
1558435249578000,-4,-3,-1,-4,-10,-7,-2,-3
1558435249592759,-1,-2,-3,-3,-6,-4,3,0
1558435249592759,2,2,1,3,9,9,-1,-2
1558435249599736,0,0,-2,1,4,1,-3,-4
1558435249599736,0,-2,-4,-3,-6,-4,-1,1
1558435249615665,1,5,-1,-1,-7,-7,-5,-2
1558435249615665,-4,-4,-3,-2,-2,-2,-1,0
1558435249616664,0,-1,0,0,0,0,2,-2
1558435249616664,2,3,2,-1,4,3,0,1
1558435249631624,2,3,-3,-4,-9,-6,-1,-4
1558435249631624,-7,-7,0,1,4,1,0,2
1558435249637608,0,-2,1,-1,-1,2,-1,-1
1558435249637608,-4,-3,-2,0,1,-1,0,0
1558435249652840,6,3,0,-2,-1,-6,-5,2
1558435249652840,3,3,1,-2,-8,-9,-3,-2
1558435249660581,-4,-3,-3,0,-6,-2,1,-1
1558435249660581,1,-1,1,0,4,3,-1,-1
1558435249675957,0,3,4,1,4,3,6,2
1558435249675957,-2,2,-1,-1,-7,-7,-7,-6
1558435249676505,-3,-3,-1,-1,2,-1,1,1
1558435249676505,2,3,3,2,7,9,5,2
1558435249691593,-1,-2,-1,0,1,2,-1,2
1558435249691593,-3,-2,-1,-1,-4,-1,-3,-3
1558435249697757,3,3,-3,-3,-4,-5,-5,-4
1558435249697757,-4,-8,-2,-4,-9,-10,-4,-2
1558435249714403,1,-3,-2,2,9,7,1,-1
1558435249714403,-2,-3,-1,-1,-2,-1,0,1
1558435249720392,2,1,-1,-1,-4,-1,-1,-1
1558435249720392,-5,1,-6,-5,-8,-8,-2,-4
1558435249735559,-1,1,0,-4,-1,1,0,0
1558435249735559,2,6,1,4,8,7,7,1
1558435249736349,-3,-7,-3,-1,2,1,-2,1
1558435249736349,2,0,-1,-3,-4,-1,-1,-2
1558435249751310,-5,-6,-4,-7,-7,-6,-6,-4
1558435249751310,0,1,3,-1,-5,-4,-7,-2
1558435249757288,3,5,5,3,6,3,6,3
1558435249757288,-1,-2,0,0,3,2,-2,-3
1558435249772248,0,0,-4,-2,-3,-4,-3,1
1558435249772248,0,2,-5,-5,-5,-2,1,-3
1558435249780254,-1,-3,2,0,6,5,1,2
1558435249780254,-3,-3,0,1,-1,-3,-4,-1
1558435249795186,-1,1,1,2,0,3,1,0
1558435249795186,-1,-4,-3,-2,-7,-7,-2,1
1558435249796184,-1,-1,-4,-3,-3,-2,-6,-4
1558435249796184,-1,-1,-2,0,-1,-1,-1,-1
1558435249811477,1,1,1,2,2,5,3,-1
1558435249811477,0,4,-1,-2,2,0,-2,3
1558435249818311,-6,-6,-2,-2,-3,-3,1,-4
1558435249818311,1,1,0,-1,0,-2,0,2
1558435249834086,-1,-2,-2,-1,-2,-1,-1,-5
1558435249834086,2,-2,0,0,2,4,-1,1
1558435249840520,0,2,-1,-3,-11,-7,-6,-1
1558435249840520,4,3,-2,1,4,5,6,1
1558435249855470,-3,-1,1,2,4,1,0,-2
1558435249855470,1,-1,-1,0,3,0,2,0
1558435249863344,-1,-1,0,-3,-4,-3,-5,0
1558435249863344,0,-7,0,-3,-8,-7,-5,-2
1558435249871010,-1,-2,-4,0,-6,-6,-2,1
1558435249871010,-2,-3,-2,-1,-1,-4,-2,-3
1558435249878301,-1,-2,-1,0,-1,-4,1,-2
1558435249878301,-2,3,-1,4,12,14,4,2
1558435249893923,3,0,-1,0,1,2,4,2
1558435249893923,-1,0,0,-2,-2,-3,-3,-2
1558435249900232,1,-2,-1,0,-1,1,-2,-2
1558435249900232,-5,-9,-5,-4,-9,-9,-10,-6
1558435249915144,-2,0,-2,-2,-8,-8,-3,-2
1558435249915144,-11,-14,-3,5,8,4,6,3
1558435249923070,3,4,-1,-3,3,7,5,2
1558435249923070,-1,-1,-3,-2,-2,1,-2,-4
1558435249931839,2,1,-1,-2,0,2,-5,-1
1558435249931839,-5,0,-4,-2,-8,-7,-5,-6
1558435249937806,-3,1,0,1,5,0,0,2
1558435249937806,-6,-6,-1,0,-2,-4,2,2
1558435249953766,-2,-3,0,-4,-10,-9,-7,-6
1558435249953766,4,2,3,1,8,10,3,-1
1558435249959749,2,3,1,2,8,7,1,1
1558435249959749,-2,1,-2,-3,-8,-6,-3,-1
1558435249974710,-7,-7,-2,-1,-3,-8,-3,0
1558435249974710,-1,0,-3,-3,-7,-7,-6,-3
1558435249982687,-3,-4,-4,-1,-2,2,0,-3
1558435249982687,1,2,-2,0,-2,1,0,-1
1558435249998940,-2,-2,-2,-1,9,9,1,-1
1558435249998940,-9,-11,-3,-3,-4,-3,-3,-1
1558435249998940,1,1,-2,-2,-6,-8,-5,-1
1558435249998940,-2,0,1,0,-1,-4,-1,-2
1558435250013603,0,0,1,1,7,4,1,-1
1558435250013603,4,4,0,-2,-2,2,1,1
1558435250019597,-1,-3,-3,-1,-4,0,-2,-2
1558435250019597,-9,-8,0,-3,-4,-2,-1,-3
1558435250035898,0,5,-1,-1,1,-1,-2,-3
1558435250035898,4,2,1,1,3,3,3,0
1558435250042528,-7,-12,-2,-2,-9,-11,-5,-2
1558435250042528,5,3,0,1,11,7,5,0
1558435250058832,-4,0,-2,-1,-6,-7,-2,-2
1558435250058832,4,5,1,0,4,3,-1,0
1558435250058832,0,0,-2,-1,-3,0,-2,-2
1558435250058832,2,3,0,-6,-4,-4,-1,0
1558435250074439,0,-5,1,4,1,5,5,3
1558435250074439,-2,-3,-2,-2,3,2,-1,-2
1558435250080774,4,6,-1,-2,-5,-7,-1,1
1558435250080774,-6,-10,-4,0,-5,-4,-3,-2
1558435250095707,-1,3,1,0,3,1,-1,-2
1558435250095707,0,-2,-3,-3,-7,-8,-6,-5
1558435250102604,1,0,2,-1,0,4,3,-2
1558435250102604,3,2,-1,3,5,5,2,2
1558435250118538,3,0,-1,-2,2,-1,0,1
1558435250118538,-12,-10,-5,-1,-5,-2,-6,-3
1558435250119336,-1,-1,-2,-3,-2,-6,-5,-3
1558435250119336,0,1,-2,-3,-8,-6,-4,-5
1558435250134290,1,0,-3,2,1,3,1,1
1558435250134290,5,3,1,-2,-2,-3,0,-1
1558435250140264,-7,-8,-3,-2,-4,-4,-4,-5
1558435250140264,1,-3,-1,1,6,6,5,3
1558435250155232,-1,-1,-4,-5,-3,-2,1,1
1558435250155232,-1,0,-1,-2,-9,-8,-5,-5
1558435250162373,-1,1,1,1,3,2,3,4
1558435250162373,6,7,3,3,9,4,-2,0
1558435250178164,-12,-15,-4,-5,-6,-4,-5,-4
1558435250178164,0,-4,-4,-2,1,1,1,-3
1558435250179160,2,2,0,-2,2,0,-1,1
1558435250179160,-1,-3,0,0,-5,-4,-1,-1
1558435250194119,2,4,2,0,-2,1,0,0
1558435250194119,-1,-1,-1,-3,-8,-5,-4,-1
1558435250200434,2,1,-1,-3,2,2,-1,-3
1558435250200434,-4,2,0,0,1,3,2,1
1558435250215391,0,-1,-1,-1,0,-2,0,2
1558435250215391,-3,-7,-1,1,4,4,1,-1
1558435250223096,3,4,-2,-4,-10,-7,-6,-7
1558435250223096,1,-2,-3,1,4,1,0,-2
1558435250238000,-2,-2,-2,1,2,5,-2,-4
1558435250238000,1,2,0,0,3,2,-1,1
1558435250239001,-5,-3,-2,-1,-5,-7,-4,-2
1558435250239001,-1,-2,0,-6,-7,-2,1,1
1558435250269915,2,2,1,3,2,3,1,-1
1558435250269915,8,13,3,4,9,-1,1,2
1558435250277113,-14,-18,-4,-2,-5,-2,-4,-5
1558435250277113,-4,-6,-4,-2,-8,-10,-7,-5
1558435250277899,2,2,1,-1,-1,0,-1,0
1558435250277899,2,0,0,-1,-2,3,4,3
1558435250283216,2,1,-1,1,5,2,2,1
1558435250283216,-3,0,-2,-2,-6,-5,-5,-5
1558435250298545,0,-2,-2,-3,-7,-8,-5,1
1558435250298545,3,4,1,0,0,-3,2,4
1558435250299491,-6,-4,-1,0,6,7,4,-2
1558435250299491,-1,-4,1,1,2,-2,-2,1
1558435250314228,-5,-4,-5,-2,-7,-5,-7,-8
1558435250314228,1,0,0,-2,-2,-2,-5,0
1558435250320206,3,2,-1,1,-1,-2,3,2
1558435250320206,2,1,-1,-2,-3,-2,4,3
1558435250335372,0,0,1,-1,0,1,1,-2
1558435250335372,2,4,1,-2,4,6,-2,-3
1558435250351122,-10,-11,-4,-2,-3,-3,-1,-3
1558435250351122,2,1,1,0,2,1,0,0
1558435250358140,-3,-5,-6,-2,1,-1,0,-1
1558435250358140,-4,-5,0,-1,-3,-2,-2,-3
1558435250359100,5,8,-1,-1,0,4,-2,2
1558435250359100,-4,-5,-5,-5,-11,-11,-6,-4
1558435250374061,3,2,2,0,2,3,2,0
1558435250374061,-12,-10,-4,-2,-2,0,-1,-4
1558435250380045,3,2,-3,0,5,2,-2,0
1558435250380045,4,6,2,4,6,7,5,5
1558435250395003,-1,0,2,0,1,-1,-4,-3
1558435250395003,-1,-5,-4,-4,-11,-12,-4,-2
1558435250401984,-2,0,-1,-4,-4,0,3,3
1558435250401984,-3,-2,-3,1,9,10,-1,-1
1558435250418286,2,4,1,0,2,0,2,1
1558435250418286,0,-4,0,-1,2,0,2,3
1558435250418978,-1,-3,0,0,-2,-1,-1,-2
1558435250418978,5,7,-1,0,-3,-4,-7,-4
1558435250433934,-10,-11,-3,-5,-8,-7,-3,-4
1558435250433934,-3,-3,-2,1,-3,-3,-4,-5
1558435250440226,3,-1,-1,3,8,7,5,6
1558435250440226,-1,-1,2,0,2,5,3,2
1558435250455181,2,2,-1,-2,-4,-4,-1,0
1558435250455181,4,4,0,-5,-2,-2,2,2
1558435250463183,-5,-2,-1,-1,0,0,-5,-5
1558435250463183,-4,-4,-2,0,2,2,0,-2
1558435250478943,1,-1,0,-2,-4,-4,-2,1
1558435250478943,1,1,0,-3,-7,-4,0,-2
1558435250478943,3,5,4,2,3,2,-4,-1
1558435250478943,-4,-5,-3,-2,0,-2,-2,-3
1558435250493824,0,0,1,0,3,2,4,3
1558435250493824,-4,1,0,0,1,0,1,-1
1558435250500848,-2,-4,-2,-5,-11,-7,-3,-2
1558435250500848,-2,-2,-3,-2,-5,-2,-1,-4
1558435250515724,0,0,0,0,2,5,-3,-2
1558435250515724,4,5,0,4,5,5,4,3
1558435250522890,-7,-7,-3,-3,-2,-4,-1,0
1558435250522890,-5,-5,-3,-6,-9,-13,-10,-5
1558435250538661,-2,0,-2,-5,-12,-9,-5,-3
1558435250538661,1,-5,-2,3,6,7,1,-1
1558435250538661,-5,-3,-2,1,1,0,0,0
1558435250538661,0,1,0,-1,-3,0,3,1
1558435250553588,0,0,-2,3,3,-1,-3,-2
1558435250553588,-4,-1,1,-3,1,1,-4,-4
1558435250560572,7,3,0,0,-5,-4,-2,-3
1558435250560572,-3,-4,0,-4,-1,-1,-1,-4
1558435250575735,-2,-1,-1,-1,-2,-5,0,0
1558435250575735,-2,1,-1,-1,2,4,1,0
1558435250582503,0,3,-1,-2,1,-1,-4,-3
1558435250582503,0,1,2,2,2,3,5,3
1558435250598663,2,2,-1,3,3,7,2,2
1558435250598663,-3,-4,-4,-2,-6,-7,-3,-2
1558435250598663,2,0,-6,-5,-9,-10,-2,-3
1558435250598663,-6,-10,0,-1,-1,-1,-1,-3
1558435250614418,1,-3,0,1,9,8,6,3
1558435250614418,-2,-1,0,1,2,2,3,-1
1558435250620401,1,3,1,2,3,5,0,0
1558435250620401,4,4,-3,-2,-4,-4,-3,1
1558435250635360,-8,-5,-1,-3,-5,0,-4,-2
1558435250635360,0,-2,-2,-1,-3,-2,-2,-1
1558435250642341,3,4,1,0,2,1,0,-1
1558435250642341,-1,-1,-2,1,-5,-1,2,2
1558435250658333,-4,-6,-6,-1,-2,-2,-4,-3
1558435250658333,3,7,2,1,-3,-6,0,0
1558435250659330,-3,-5,-1,-1,-6,-4,-6,-1
1558435250659330,2,1,0,-1,5,0,-1,-2
1558435250674255,3,2,-1,-3,-3,-1,3,2
1558435250674255,-6,-4,-2,-1,-1,0,0,-3
1558435250680239,5,5,-2,0,3,-2,0,1
1558435250680239,-11,-11,-3,-4,-7,-7,-6,-4
1558435250695199,0,3,3,-3,0,-2,-2,-2
1558435250695199,-2,-1,-2,-2,-2,-2,-1,-1
1558435250702640,2,-4,1,4,5,6,5,3
1558435250702640,2,5,-1,1,-2,-2,-3,1
1558435250718598,-3,-6,-2,0,-1,-4,1,0
1558435250718598,3,1,-1,-2,1,0,2,-1
1558435250719139,-12,-6,-3,0,3,6,1,-3
1558435250719139,0,1,-3,-2,-5,-3,-3,-2
1558435250734097,1,2,1,4,7,-2,-2,-1
1558435250734097,0,-2,-2,1,-2,-4,-1,0
1558435250740539,0,-1,-3,-3,-3,-4,-3,0
1558435250740539,2,0,1,-2,-2,2,0,-2
1558435250755404,1,-1,0,-2,-7,-6,-3,-2
1558435250755404,1,5,-1,0,-1,-1,-1,0
1558435250763359,-5,-8,-2,-1,-5,-5,2,0
1558435250763359,-3,-6,-3,0,-2,-1,-2,-3
1558435250778278,1,0,-1,-2,-1,-1,-1,0
1558435250778278,1,-3,0,0,3,-6,-2,4
1558435250793941,1,6,-2,-4,-3,-2,-2,-4
1558435250793941,-1,1,3,3,6,12,3,2
1558435250794935,0,-2,-4,2,3,2,-2,-2
1558435250794935,1,-1,-2,-3,-1,2,-2,0
1558435250800183,9,9,2,2,-2,-11,-2,0
1558435250800183,-6,-8,-3,0,-3,-1,3,-1
1558435250814883,-2,-1,0,-3,-6,-2,-4,-2
1558435250814883,-6,-4,-4,-3,-5,-4,-4,-6
1558435250822858,2,-1,-1,-4,-5,-2,-2,-1
1558435250822858,4,4,-1,-1,-2,-5,1,2
1558435250837819,-2,-2,1,2,0,6,3,1
1558435250837819,4,2,3,0,1,3,0,-3
1558435250844800,-7,-3,-4,-3,-6,-7,-5,-3
1558435250844800,0,3,-3,-1,-5,-10,-3,-2
1558435250862089,-1,2,0,2,6,8,1,1
1558435250862089,-1,-3,3,4,12,14,5,4
1558435250862756,2,-1,0,2,2,4,4,2
1558435250862756,-2,-1,-4,-6,-4,-6,-6,-1
1558435250875042,-3,-3,-4,-6,-11,-12,-6,-7
1558435250875042,4,9,-1,-3,-8,-7,-5,0
1558435250890994,-11,-15,-4,-3,0,2,4,0
1558435250890994,2,2,0,2,7,4,2,1
1558435250897980,-6,-7,-2,-1,1,-5,-2,-3
1558435250897980,-5,-2,-2,-4,3,-1,0,-3
1558435250905961,-1,-1,0,-5,-5,-3,-7,-4
1558435250905961,1,-1,-1,-3,-4,-2,-3,-2
1558435250921957,-1,3,1,1,3,6,8,5
1558435250921957,-2,-6,-3,3,3,4,0,0
1558435250922592,1,1,-1,-1,-4,-3,-2,-4
1558435250922592,0,1,0,3,9,5,-2,0
1558435250943537,4,-1,-4,-5,-5,-6,1,1
1558435250943537,-5,-6,-3,-4,-5,-5,-3,-2
1558435250943537,-2,1,1,2,-1,-1,0,-2
1558435250943537,-1,1,0,1,-1,3,0,0
1558435250958221,-2,-5,-4,1,0,-2,-3,-3
1558435250958221,-1,-3,-2,-5,-5,-7,-4,-1
1558435250965882,4,3,0,0,7,6,7,2
1558435250965882,2,5,0,-6,-5,-4,-1,-1
1558435250981081,-1,-3,-1,-1,-1,-2,-6,-6
1558435250981081,-3,-4,-1,2,3,2,-1,-1
1558435250981820,0,-2,-2,0,-1,-2,0,0
1558435250981820,0,0,2,0,-2,-4,-2,2
1558435250996780,1,1,-1,-2,-2,0,2,0
1558435250996780,2,4,-4,-3,-5,-7,-4,-6
1558435251002799,-5,-8,-2,3,3,0,-1,1
1558435251002799,-3,-5,-2,-1,-1,-1,-2,-1
1558435251017723,-2,1,-2,-1,-5,-7,-5,-3
1558435251017723,0,0,0,2,0,2,-1,1
1558435251024707,-1,0,-2,-3,0,1,2,-2
1558435251024707,-3,-3,-1,-1,0,0,1,-2
1558435251040693,-1,0,-1,1,3,1,3,2
1558435251040693,-4,-5,-5,-2,1,1,-5,-4
1558435251041662,2,4,0,-2,-6,-4,-5,1
1558435251041662,1,1,0,-1,2,5,4,-1
1558435251054625,-4,-4,-2,-5,-7,-5,-6,-4
1558435251054625,0,-3,-2,0,-5,-5,1,1
1558435251062605,-7,-2,2,4,5,4,-2,-5
1558435251062605,1,-1,-1,1,2,3,-3,0
1558435251077809,-1,0,-1,-2,-4,-2,-4,-3
1558435251077809,2,1,2,0,3,1,3,6
1558435251085676,-5,-4,-2,0,3,3,3,1
1558435251085676,-3,-3,0,-2,-4,-7,-4,-4
1558435251100741,-4,-1,1,-2,-1,0,-3,-2
1558435251100741,-1,0,-2,-4,-9,-5,-6,-2
1558435251101502,2,5,1,-2,-6,-5,-2,-1
1558435251101502,0,0,-2,-1,3,-3,2,4
1558435251115730,0,-1,1,3,11,8,1,-1
1558435251115730,0,1,0,2,1,7,1,0
1558435251122704,0,0,-2,-3,-4,-4,-4,-1
1558435251122704,-6,-7,-3,-3,-9,-6,-5,-4
1558435251137402,3,1,-2,-1,-5,-4,0,0
1558435251137402,-2,0,3,-1,3,-1,2,-1
1558435251145615,2,2,-1,-1,0,4,1,0
1558435251145615,-8,-5,-1,0,2,2,2,1
1558435251161414,2,1,0,2,6,2,2,3
1558435251161414,-4,-3,-4,-1,-1,0,0,-3
1558435251161414,3,-1,-1,-2,-2,-4,-4,-1
1558435251161414,6,10,0,-1,-5,-4,-6,-2
1558435251175559,-9,-17,-5,-2,-5,-1,-3,-6
1558435251175559,-3,-2,-2,-5,-4,-6,-3,0
1558435251183286,0,-1,-2,-3,-9,-6,-3,-1
1558435251183286,4,3,4,4,13,11,3,2
1558435251197247,3,8,2,0,3,1,-1,2
1558435251197247,-3,-3,-2,-3,-6,-1,-1,-2
1558435251205224,-2,-2,-1,-2,-3,-3,-3,-1
1558435251205224,-2,-2,1,-2,-2,-2,0,-3
1558435251220182,2,4,1,-3,-10,-7,-1,-1
1558435251220182,0,-4,-1,-2,-4,-5,-1,1
1558435251221179,-2,0,1,2,3,3,0,-2
1558435251221179,0,-3,-5,-2,-2,-2,-3,-4
1558435251235140,2,2,0,-2,-4,-2,-4,-2
1558435251235140,-6,-3,-2,-2,-5,-2,2,0
1558435251242123,0,3,0,2,2,-2,1,-4
1558435251242123,0,-1,-3,-4,-7,-6,-4,-3
1558435251258316,-1,-4,-2,-2,2,3,1,1
1558435251258316,1,0,4,3,8,5,5,4
1558435251265500,-1,-3,-5,0,5,6,2,-1
1558435251265500,0,-3,-1,2,1,-4,-1,-1
1558435251281473,-1,4,0,-4,-8,-8,-3,-1
1558435251281473,-3,-8,-4,-3,0,0,-3,-4
1558435251281473,-4,-3,-1,-6,-7,-5,-1,0
1558435251281473,0,1,1,-1,-1,-1,1,-2
1558435251295906,1,-1,-2,2,1,2,1,1
1558435251295906,1,4,3,7,10,8,3,2
1558435251302671,-2,-3,-2,-2,-6,-3,-3,-2
1558435251302671,-5,-4,-3,-2,-8,-8,-4,-1
1558435251318349,-2,-1,2,-3,3,-5,-2,-4
1558435251318349,1,-1,-1,-1,-8,-3,0,-3
1558435251325322,-1,-2,-2,1,5,7,2,3
1558435251325322,2,1,-2,-1,2,3,-4,1
1558435251340844,-7,-3,0,2,9,8,2,1
1558435251340844,-2,-5,-2,-2,-3,-4,0,-3
1558435251342159,-2,-1,-2,-3,-5,-6,-5,-2
1558435251342159,1,-1,-3,-2,-7,-7,0,0
1558435251355806,-6,-4,-3,-2,-3,-2,-6,-4
1558435251355806,1,-2,-2,-2,0,1,-2,-5
1558435251363147,-2,-4,0,2,7,7,-1,0
1558435251363147,-2,-2,-1,-1,2,2,0,0
1558435251378085,3,3,-1,-2,-3,-4,0,0
1558435251378085,-1,0,-2,-5,-4,-5,-2,0
1558435251385723,1,2,-1,-2,-6,-6,-1,-1
1558435251385723,-1,-1,2,4,4,2,1,1
1558435251400690,0,3,-1,-1,-2,-3,-1,-2
1558435251400690,-3,-2,-1,-2,1,7,0,0
1558435251401683,1,2,1,4,11,8,2,1
1558435251401683,-3,-6,-3,-4,-5,-2,1,-1
1558435251414647,-1,-3,-3,-2,-5,-8,-2,-2
1558435251414647,8,6,1,1,2,0,5,1
1558435251422652,-10,-10,0,-3,-4,-2,-7,-7
1558435251422652,0,1,-2,-2,2,4,2,2
1558435251437619,-2,-4,0,2,-1,-4,-4,-2
1558435251437619,1,2,-1,0,1,0,-1,-1
1558435251445981,1,5,-1,-1,-3,-1,-2,1
1558435251445981,-10,-9,-1,0,-2,-6,-3,-4
1558435251460909,3,0,-1,-4,-2,4,2,0
1558435251460909,-5,-7,-1,-1,-5,-5,-4,0
1558435251461521,1,3,0,0,-3,-3,0,1
1558435251461521,-3,1,-1,-1,1,0,-5,-3
1558435251475744,-1,2,-2,-1,4,3,1,0
1558435251475744,-2,0,0,0,0,2,-2,-4
1558435251482831,-1,-3,0,0,1,4,4,1
1558435251482831,-1,1,0,-3,-5,-4,-2,-1
1558435251497797,1,-1,-1,-1,-5,-7,1,2
1558435251497797,-2,2,-2,-1,-7,-7,-5,-4
1558435251505760,-5,-4,-3,-1,-1,-3,-2,3
1558435251505760,3,4,2,3,8,7,5,0
1558435251521363,-1,1,0,1,2,5,2,1
1558435251521363,-3,-8,-5,-3,-8,-6,-6,-7
1558435251521363,3,4,-2,-4,-6,-7,-5,-4
1558435251521363,-1,-4,-3,0,-5,-1,-6,0
1558435251535693,2,2,0,-1,3,2,2,3
1558435251535693,3,7,4,1,9,8,3,1
1558435251542647,-2,-8,-2,0,1,-1,-1,-2
1558435251542647,1,3,-4,-1,-1,-2,-1,-1
1558435251558262,-7,-9,-2,-3,-7,-6,-6,-3
1558435251558262,-1,-1,-3,-1,-6,-6,-1,0
1558435251565543,2,3,0,-2,4,1,0,-1
1558435251565543,0,-2,2,-2,-2,-3,-1,-1
1558435251581466,-3,-5,-3,-3,-7,-3,-3,-2
1558435251581466,0,2,-1,-1,0,-1,-3,-2
1558435251581466,-2,-1,3,1,5,2,5,3
1558435251581466,2,0,-2,1,6,4,1,2
1558435251595456,-3,-3,-3,-3,-3,0,-2,-5
1558435251595456,-5,-9,-4,-3,-5,-7,-10,-3
1558435251602395,5,5,-4,-2,0,3,5,-1
1558435251602395,-1,3,2,3,4,1,5,1
1558435251617108,-3,-1,0,-1,-2,-2,-1,-1
1558435251617108,-1,-4,0,-2,-4,-4,1,2
1558435251625088,-2,-2,-5,0,1,0,-4,-5
1558435251625088,0,-1,0,0,-2,0,1,0
1558435251641047,-2,0,0,0,4,3,1,-3
1558435251641047,-1,1,-3,-3,-6,-3,-2,-3
1558435251641047,-1,0,0,0,-6,-7,-4,1
1558435251641047,1,2,1,3,11,6,0,2
1558435251655004,2,-2,0,1,2,3,5,2
1558435251655004,0,-3,-4,-3,1,0,-4,-3
1558435251663303,0,2,1,-1,-4,-7,-5,-5
1558435251663303,-5,-6,-3,-6,-7,-5,-2,0
1558435251678183,-3,-4,-1,3,-5,0,0,-1
1558435251678183,-2,0,3,3,6,5,5,5
1558435251692942,0,-5,-3,-3,-6,-2,-7,-2
1558435251692942,-3,1,-1,-1,0,0,1,-7
1558435251699919,1,2,-1,-1,2,-1,-4,0
1558435251699919,-3,-2,0,-1,-3,-1,3,-1
1558435251707875,-2,-2,1,-2,-6,-3,0,1
1558435251707875,0,0,-3,-5,-8,-11,-8,-4
1558435251715899,-2,-6,-2,-1,2,-2,2,3
1558435251715899,5,12,5,2,7,7,2,-3
1558435251722820,2,0,0,0,0,-1,2,1
1558435251722820,-10,-12,-5,-2,-9,-2,-5,-6
1558435251737781,-1,0,-3,-4,-6,-5,-5,-4
1558435251737781,-2,-2,-1,-1,-3,-2,0,5
1558435251745256,0,1,-1,1,-2,-5,-3,-5
1558435251745256,0,-2,-2,0,-4,-1,-4,-1
1558435251760913,6,7,3,3,3,1,1,0
1558435251760913,-4,-6,-3,-1,3,5,2,2
1558435251768402,-1,-4,0,1,3,1,0,2
1558435251768402,0,-1,-5,-3,-3,-2,-2,-2
1558435251776171,-1,0,1,0,-4,-3,0,-1
1558435251776171,3,4,0,-2,0,-1,-3,-1
1558435251791563,-11,-7,-3,-1,-2,2,0,-2
1558435251791563,-2,1,-1,0,-1,-3,2,0
1558435251798331,1,1,-2,-2,1,-3,-5,-2
1558435251798331,-2,-5,0,-1,1,3,2,1
1558435251805530,-2,-1,-1,-2,-1,0,-4,-2
1558435251805530,3,2,0,-1,1,1,0,-2
1558435251820053,-4,-1,-2,-1,-6,-2,-3,-1
1558435251820053,-4,-6,-2,-2,-8,-11,-8,-7
1558435251827035,4,4,1,2,1,0,0,1
1558435251827035,-3,-3,2,1,7,6,6,1
1558435251836012,1,-1,-3,-1,1,0,-5,-2
1558435251836012,3,4,0,0,-2,-4,-5,2
1558435251842338,-9,-8,-2,-4,-1,-1,4,1
1558435251842338,-1,0,-1,-4,-5,-2,-4,0
1558435251857955,-3,-6,-5,0,3,2,3,-1
1558435251857955,0,-1,-3,-2,1,-1,2,1
1558435251865381,3,1,-2,-2,0,-1,3,2
1558435251865381,1,1,-1,-2,-2,-2,-1,-1
1558435251880572,-6,-4,0,-3,-4,-6,-5,-4
1558435251880572,-2,-5,-4,0,-4,-5,-4,-2
1558435251895258,3,4,2,1,-1,1,2,1
1558435251895258,5,3,0,1,-1,-1,-3,3
1558435251903234,-4,1,2,-2,0,4,2,0
1558435251903234,-3,-1,0,-2,2,-1,-2,-2
1558435251904230,-1,-1,-1,-3,-4,-6,-3,-2
1558435251904230,2,0,0,-1,-1,0,0,-1
1558435251918193,2,3,-2,1,0,0,-2,-2
1558435251918193,-4,-5,-5,-2,-5,-5,-5,-1
1558435251925520,0,-5,0,0,2,3,-1,1
1558435251925520,-2,1,1,2,1,1,-2,0
1558435251940476,5,5,1,-2,0,3,2,1
1558435251940476,-12,-12,-3,-2,-4,-3,-1,-3
1558435251948324,1,2,-3,-4,-3,-6,-7,-4
1558435251948324,-2,-4,-1,-3,-5,-5,0,-2
1558435251963419,1,3,1,3,3,3,0,2
1558435251963419,2,2,1,0,5,7,4,3
1558435251964072,-2,0,-1,2,-2,0,-2,1
1558435251964072,-2,-5,-3,-5,2,5,2,-2
1558435251978360,-1,-3,-4,-2,-2,-8,-5,-5
1558435251978360,1,-2,-1,-2,-3,-2,3,1
1558435251993258,-3,0,0,0,-2,-3,-4,-6
1558435251993258,2,3,-1,0,-1,2,0,0
1558435252000264,0,-3,-4,-1,-4,-3,-2,0
1558435252000264,-4,0,-4,-2,-2,-3,-1,-4
1558435252008212,1,-1,-2,-4,-4,-2,0,-2
1558435252008212,-3,-2,-2,-1,-7,-5,-3,-3
1558435252023186,-1,3,4,5,6,6,3,-2
1558435252023186,2,0,1,0,1,2,0,1
1558435252023916,-1,-5,-2,-4,0,-2,1,-1
1558435252023916,-6,-2,-3,-4,-7,-9,-1,0
1558435252037873,0,-1,1,0,1,2,3,3
1558435252037873,2,4,-1,0,-8,-4,-3,-3
1558435252044862,-2,-1,1,2,6,7,1,0
1558435252044862,1,-1,0,1,8,4,-1,0
1558435252059817,-2,-5,-3,-3,-6,-2,-4,-1
1558435252059817,-2,0,-2,-2,0,-3,-1,-1
1558435252067794,2,2,-2,-2,-2,-2,-3,1
1558435252067794,2,1,3,4,1,2,0,3
1558435252082788,-10,-9,-3,-2,-5,-8,-2,-5
1558435252082788,-2,-1,-4,-5,-9,-6,-11,-9
1558435252083751,-1,-1,-1,-1,0,-3,-2,-2
1558435252083751,2,0,-2,0,6,4,4,2
1558435252097748,-2,-5,-4,-3,-6,-1,-1,-1
1558435252097748,3,3,3,4,3,8,0,2
1558435252104693,3,4,0,0,-1,-3,2,0
1558435252104693,-13,-8,-4,-4,-2,-3,-7,-5
1558435252119656,-6,-4,-4,-3,-1,-4,-1,0
1558435252119656,0,-1,-1,-1,-4,-5,-1,-2
1558435252127632,-1,0,-2,-1,0,-2,0,0
1558435252127632,0,-1,1,-2,-2,-2,1,0
1558435252143591,1,2,3,-2,-3,-5,-5,-2
1558435252143591,-1,-3,-1,0,1,0,0,-2
1558435252144587,-1,-3,-3,0,-3,-1,-2,-1
1558435252144587,1,1,-2,0,-1,1,3,0
1558435252157554,0,0,-1,-2,0,0,-4,-6
1558435252157554,1,-1,1,-2,-1,-6,-1,2
1558435252164535,-2,-6,-2,-2,-5,-1,1,-2
1558435252164535,0,1,1,1,6,8,1,-1
1558435252179495,4,5,0,0,-2,-2,-2,2
1558435252179495,1,1,1,2,5,0,4,1
1558435252187614,-2,-6,-2,0,3,3,2,-1
1558435252187614,-7,-11,-2,-5,-6,-7,-6,-5
1558435252203431,3,2,-1,-3,-2,-1,-2,-1
1558435252203431,3,9,0,0,4,2,1,2
1558435252203431,-4,-5,-1,-3,-4,-4,-2,-2
1558435252203431,2,2,-2,2,3,3,5,6
1558435252217392,1,3,-1,-3,2,1,-1,-1
1558435252217392,-3,-3,-3,-6,-9,-5,-3,-4
1558435252225372,-1,1,0,3,-2,-1,1,0
1558435252225372,-1,-2,-1,2,-7,-11,-5,-4
1558435252240333,4,0,1,3,5,5,6,4
1558435252240333,-2,-3,-1,-1,-3,2,-2,2
1558435252247314,-4,-1,0,-2,2,4,-2,-6
1558435252247314,-2,0,-1,0,2,4,-1,-2
1558435252263269,-2,-5,-2,-2,-6,-7,-5,0
1558435252263269,-3,-3,0,-2,0,-1,1,0
1558435252264266,-1,1,1,-2,-1,0,-1,2
1558435252264266,2,2,1,1,-4,-5,-3,-1
1558435252277233,-4,-4,-3,-1,-2,-3,-3,-3
1558435252277233,-5,-2,-3,-1,3,4,1,-2
1558435252285211,1,1,-1,-3,-10,-10,-2,1
1558435252285211,-6,-4,-3,-4,-1,-5,0,2
1558435252300172,0,0,1,0,-1,-2,-5,-3
1558435252300172,-5,-9,-2,-1,-3,-3,-5,-4
1558435252307153,3,6,3,4,9,11,10,4
1558435252307153,4,-1,-1,-1,5,9,3,-5
1558435252323109,-3,-1,0,1,-2,-4,2,-1
1558435252323109,3,1,1,3,6,5,3,2
1558435252324107,-3,0,-2,-3,-1,2,-1,-3
1558435252324107,1,4,0,-2,-7,-9,-11,-3
1558435252338385,-2,-1,-1,2,1,1,0,3
1558435252338385,-3,-3,1,0,-3,-2,0,-1
1558435252345077,-2,0,0,0,-4,-5,-2,0
1558435252345077,-2,-5,-3,-4,-3,-6,-1,-1
1558435252360012,-1,-2,0,0,-1,0,-1,-1
1558435252360012,-1,-1,-3,-2,-1,1,0,-3
1558435252366993,0,-2,-6,-3,0,-2,-6,-2
1558435252366993,2,1,0,-1,-5,-8,-2,0
1558435252382951,0,5,0,-1,2,1,1,-1
1558435252382951,-4,-5,0,-1,1,2,4,5
1558435252383948,-1,1,3,2,4,2,-2,-4
1558435252383948,-1,-1,-2,-4,-4,-3,-3,0
1558435252396913,-1,-3,-3,-4,-12,-9,-1,-3
1558435252396913,-2,3,-2,-4,-4,-2,-5,-2
1558435252404890,-1,-3,-3,0,4,1,0,-1
1558435252404890,-1,0,2,3,5,6,3,1
1558435252419853,1,-3,-2,-2,-2,-5,-2,0
1558435252419853,-1,0,-3,-7,-13,-12,-11,-7
1558435252427831,0,-3,1,2,9,10,5,1
1558435252427831,4,4,4,4,7,5,2,0
1558435252442790,-3,0,2,1,1,1,-3,0
1558435252442790,-1,-8,-3,-3,-2,-5,-3,-1
1558435252443788,-3,-2,-5,-7,-11,-8,-7,-4
1558435252443788,-2,-2,-1,0,-5,-2,2,0
1558435252457750,2,1,0,1,6,4,3,0
1558435252457750,-2,2,-2,0,1,-2,-2,-1
1558435252464731,-3,-5,-2,-2,-6,-8,-5,-2
1558435252464731,-2,-1,0,-5,-10,-8,0,-3
1558435252479691,-1,-2,0,2,8,8,3,0
1558435252479691,3,2,-2,2,4,7,4,2
1558435252487671,-7,-3,-2,1,2,3,-3,-1
1558435252487671,0,0,0,0,-1,1,-1,-1
1558435252502629,-1,-1,-1,-3,-5,-5,-2,-2
1558435252502629,-1,0,0,-1,-1,0,-2,-1
1558435252503627,-1,0,-2,0,-4,-3,-1,-3
1558435252503627,1,3,-5,-2,-1,-2,-5,-2
1558435252517589,-7,-11,-1,-2,4,5,2,-1
1558435252517589,0,-3,1,3,3,-1,1,1
1558435252533546,2,0,1,2,-2,-4,0,0
1558435252533546,-3,-2,-2,-5,-5,-5,-4,-6
1558435252548508,6,8,4,-1,0,3,4,4
1558435252548508,0,1,1,1,2,2,3,0
1558435252548508,-3,-7,-2,-2,-1,-1,1,0
1558435252548508,0,-2,-5,-1,4,1,-6,-3
1558435252563539,-4,-2,-4,-1,-6,-6,-6,-4
1558435252563539,5,7,4,3,8,7,6,4
1558435252563539,2,-2,-2,-1,-1,-3,-1,0
1558435252563539,-1,-1,0,-4,-3,-4,-1,-1
1558435252577430,-2,-2,-1,-4,-6,-4,-2,-1
1558435252577430,-1,-4,-3,-1,-4,-3,-2,-2
1558435252585407,1,-1,-2,-4,-2,-2,-1,-3
1558435252585407,-1,-3,0,3,5,2,2,1
1558435252600367,-2,-5,-6,-2,0,-2,-4,-3
1558435252600367,1,-1,-2,-3,-7,-2,-3,-2
1558435252607383,0,2,0,2,4,5,4,0
1558435252607383,-2,3,-1,0,-9,-4,0,2
1558435252622310,-2,-4,-1,-1,1,1,3,0
1558435252622310,-3,-1,-1,-1,1,-1,-1,-3
1558435252630327,-5,-4,-5,-4,-8,-3,-7,-3
1558435252630327,3,3,1,-1,5,4,4,1
1558435252637303,-8,-7,-2,3,8,2,5,4
1558435252637303,-1,-3,-2,0,2,2,-3,-5
1558435252645282,-3,1,0,-1,-3,-6,-5,-1
1558435252645282,0,-3,-1,-4,-10,-7,2,-3
1558435252660208,1,3,0,1,2,4,-3,-2
1558435252660208,3,3,-2,-3,-6,-6,0,-2
1558435252667192,-7,-9,0,-2,5,7,1,-3
1558435252667192,-2,-3,1,2,-3,-4,-8,0
1558435252682150,-2,-1,-5,-8,-11,-12,-2,-3
1558435252682150,1,2,1,1,2,-1,3,4
1558435252690129,4,10,0,0,5,6,-3,-1
1558435252690129,-1,-5,-1,4,8,10,8,2
1558435252697110,1,1,-3,-5,-8,-4,-11,-4
1558435252697110,-8,-8,-1,0,-6,-4,-4,-3
1558435252705087,2,1,3,3,4,-2,6,4
1558435252705087,0,-1,0,1,6,9,3,2
1558435252720048,-2,-2,1,1,3,2,-1,-1
1558435252720048,-3,-3,-3,-4,-9,-8,-4,-4
1558435252727030,-1,0,-5,-3,0,-2,0,-1
1558435252727030,2,6,1,2,-3,-7,-4,-2
1558435252741989,4,4,-2,-1,-5,-2,-4,-3
1558435252741989,-4,0,-3,-2,-2,0,1,3
1558435252750964,-2,-4,-1,1,-1,-4,-2,0
1558435252750964,-7,-10,-2,-4,0,3,-3,-3
1558435252756949,0,1,-2,-1,-8,-7,-3,-3
1558435252756949,1,1,5,5,7,6,4,1
1558435252764962,1,2,0,0,-2,2,-2,1
1558435252764962,-2,-1,-2,-3,1,-2,1,-1
1558435252779889,-3,-5,-2,1,-5,-7,-1,2
1558435252779889,2,1,-1,-2,4,8,9,5
1558435252787867,5,8,1,4,2,1,-3,-2
1558435252787867,-16,-17,-4,-3,-2,-5,-2,-1
1558435252802826,-5,-4,-1,0,-1,3,-5,-8
1558435252802826,-1,-8,-5,-5,-7,-7,-3,-1
1558435252810839,1,-2,1,-2,-5,-6,-4,-3
1558435252810839,2,4,-3,-3,-4,-3,-2,1
1558435252825766,2,4,1,0,5,4,5,3
1558435252825766,-3,-2,0,3,3,4,-3,-3
1558435252826762,0,-2,-3,-4,0,2,6,1
1558435252826762,0,0,-2,-1,-6,-6,-6,-3
1558435252839762,-2,-2,-1,0,2,1,3,1
1558435252839762,2,4,1,1,4,5,-1,-2
1558435252847705,-3,-1,-3,-5,-10,-10,-4,0
1558435252847705,0,-3,-2,-2,-2,0,-5,-3
1558435252862667,2,0,5,5,7,5,-1,3
1558435252862667,-4,-3,-2,1,3,-1,-3,-2
1558435252870645,-1,-1,-2,-4,-2,-5,8,3
1558435252870645,5,6,0,0,-4,-1,-10,-7
1558435252885605,1,5,2,-3,-6,-5,-1,0
1558435252885605,-14,-18,-6,-1,-1,-3,-5,-5
1558435252886605,0,-2,-1,0,-2,0,2,0
1558435252886605,1,1,-2,4,7,8,4,3
1558435252899567,5,-1,1,0,7,5,6,0
1558435252899567,-7,0,-3,-4,-8,-8,-2,-2
1558435252907547,-5,-3,-2,-4,-8,-9,-10,-6
1558435252907547,0,-2,2,-2,-6,-3,3,2
1558435252922507,-4,-2,-3,-2,4,5,-1,-2
1558435252922507,4,0,-1,-5,-2,-4,0,1
1558435252930484,-2,-2,-1,0,0,-1,-2,-3
1558435252930484,0,0,1,-2,-1,2,1,2
1558435252945446,-2,1,-4,1,1,1,3,-3
1558435252945446,2,-1,0,-4,-4,-3,4,0
1558435252946443,-2,-3,0,0,-8,-7,-12,-7
1558435252946443,1,0,-2,-4,-4,-2,-4,-3
1558435252960404,-2,5,-3,-1,-2,-6,2,-2
1558435252960404,-4,-8,-2,3,-2,0,-7,-2
1558435252967385,1,3,1,5,8,7,4,3
1558435252967385,-1,-3,0,3,8,6,4,-1
1558435252982358,-1,-6,-1,-4,-5,-10,-7,1
1558435252982358,2,6,-2,-4,-8,-5,-6,-2
1558435252990327,0,0,0,-1,-4,0,4,1
1558435252990327,-4,-2,2,3,3,-1,2,1
1558435253005297,-2,-5,-4,-4,-2,2,-3,-3
1558435253005297,5,1,2,5,2,2,6,5
1558435253006282,-1,-4,-1,-4,-1,-2,2,-1
1558435253006282,0,1,-6,-4,-5,-5,-3,-2
1558435253020247,-4,-5,1,2,0,-1,-4,-4
1558435253020247,0,1,2,-3,-3,1,-1,-1
1558435253027227,2,3,2,2,10,7,0,1
1558435253027227,2,0,0,0,-1,1,4,-1
1558435253042186,-2,0,-1,0,-5,-1,-4,-3
1558435253042186,-1,-1,-1,-1,1,-2,-3,-2
1558435253050169,-5,-5,-3,-2,-5,-8,-7,-2
1558435253050169,-2,-4,-5,-4,-6,-10,-7,0
1558435253065125,2,2,2,1,6,10,5,2
1558435253065125,1,-1,-1,2,2,5,2,-1
1558435253066123,1,3,0,1,-2,2,5,3
1558435253066123,-4,-1,-1,-1,-2,-4,-5,-4
1558435253080095,2,-1,-4,-6,-9,-5,-1,0
1558435253080095,-9,-3,-3,-3,-6,-6,-1,-3
1558435253087066,-2,-3,-2,-2,1,5,-4,-1
1558435253087066,1,-1,1,4,9,9,1,3
1558435253102026,1,-1,-1,-1,-1,0,2,1
1558435253102026,-1,-4,-4,-2,-1,-5,-4,-5
1558435253111003,0,-2,-3,-6,-7,-4,0,0
1558435253111003,-3,-2,0,-2,-3,-2,1,0
1558435253125965,-2,-1,-2,1,1,-5,1,3
1558435253125965,0,4,3,4,6,0,-4,1
1558435253125965,-2,-2,-1,2,2,0,-1,0
1558435253125965,4,4,-2,-3,-7,-7,-6,-1
1558435253139927,-10,-3,-2,-3,-8,-3,-2,-6
1558435253139927,-2,-4,-1,0,-2,-1,2,-2
1558435253146906,-1,-5,-2,-3,-1,-3,-4,-5
1558435253146906,-5,-7,0,0,0,2,3,0
1558435253162863,3,1,1,-5,-2,1,2,1
1558435253162863,2,1,-1,-2,-4,-2,0,1
1558435253170842,-3,-1,-2,-1,4,5,-4,-7
1558435253170842,0,1,-4,-6,-7,-3,3,-1
1558435253185802,3,2,2,1,-1,-2,-4,0
1558435253185802,-7,-5,-2,4,11,6,2,-1
1558435253185802,2,-1,2,2,-3,-3,3,3
1558435253185802,-3,-3,-1,-4,-4,-6,-4,-5
1558435253199778,0,-4,-4,2,3,1,1,1
1558435253199778,2,1,-1,-2,-3,-4,-3,-1
1558435253207744,2,1,-2,0,4,4,0,2
1558435253207744,-5,-3,1,4,-1,-3,-2,-6
1558435253222703,2,4,-2,-1,-3,-1,-4,-3
1558435253222703,-4,-5,-3,-4,-7,-6,-5,-4
1558435253230683,-5,-8,-1,-2,-1,0,3,1
1558435253230683,0,3,1,-2,-1,-4,-3,3
1558435253245642,-1,-6,2,2,-1,-1,10,1
1558435253245642,3,3,-2,-2,2,5,-9,-4
1558435253246639,-1,-3,-4,-7,-12,-9,-2,-1
1558435253246639,-4,-4,-4,-2,-1,1,2,-1
1558435253259620,0,0,1,3,6,7,-1,-1
1558435253259620,1,3,2,2,-4,-2,2,0
1558435253267585,0,0,-2,-1,1,-1,-3,1
1558435253267585,-1,0,-3,-2,-7,-6,-3,-1
1558435253282549,-3,-1,2,0,0,-3,-2,-3
1558435253282549,2,-1,-1,-1,3,4,8,6
1558435253290523,-4,-4,-1,2,2,0,-6,-7
1558435253290523,0,-4,-6,-5,-5,-5,-2,-1
1558435253305483,0,-2,-2,-4,-6,-4,-7,-2
1558435253305483,6,9,-1,-2,-2,-6,0,3
1558435253306480,-1,2,2,0,1,0,3,2
1558435253306480,-4,-8,-2,1,2,4,2,3
1558435253319446,-4,-4,-2,-2,-4,0,-3,-2
1558435253319446,-1,3,-2,-4,-2,-1,-5,-5
1558435253327441,2,4,0,-3,-5,-4,-1,-1
1558435253327441,1,0,3,3,6,1,-1,1
1558435253342385,1,-2,-3,-5,-3,-4,0,-2
1558435253342385,0,-2,0,-1,1,3,3,4
1558435253350363,0,2,0,2,9,6,3,0
1558435253350363,1,1,-2,-5,-4,-3,-3,2
1558435253365322,-3,-7,-4,-2,-3,-7,-3,-3
1558435253365322,-13,-10,-3,-1,-4,-4,-5,-5
1558435253366318,-2,-3,0,-2,-4,-1,4,0
1558435253366318,3,5,3,2,8,8,0,-2
1558435253380282,0,2,0,0,1,-2,-3,0
1558435253380282,6,2,2,3,-4,-5,-2,-2
1558435253387264,0,0,-3,-2,-4,-6,-4,0
1558435253387264,0,2,-1,-1,-4,-1,5,-3
1558435253402224,-3,0,-2,-1,-1,-3,-5,1
1558435253402224,-3,-7,-1,1,1,2,5,-1
1558435253410201,0,0,-2,2,-4,2,2,1
1558435253410201,3,2,0,0,0,3,1,-1
1558435253425164,1,2,1,2,0,3,1,2
1558435253425164,1,2,1,-6,-1,-3,-4,-4
1558435253433141,3,4,0,-2,-4,-6,1,2
1558435253433141,-4,-6,-3,-2,-1,-2,-2,-5
1558435253440121,-6,-9,2,2,2,-1,-5,-5
1558435253440121,-1,-5,-5,-4,-8,-5,-6,-2
1558435253447102,-1,-3,-3,0,-9,-4,-3,-1
1558435253447102,4,4,4,5,8,9,2,3
1558435253462064,2,4,0,3,15,13,12,6
1558435253462064,5,4,1,0,3,3,7,3
1558435253470043,-4,4,0,-4,-9,-7,-10,-8
1558435253470043,-7,-8,-1,-1,-11,-12,-11,-4
1558435253486001,-1,1,2,7,14,11,12,9
1558435253486001,0,2,7,4,10,10,4,2
1558435253486001,0,-5,-6,-10,-10,-11,-7,-4
1558435253486001,-3,2,-2,-4,-7,1,2,-3
1558435253499961,-3,-5,-5,-4,-4,-1,-7,-5
1558435253499961,8,10,4,3,6,4,3,5
1558435253506945,-13,-10,1,3,5,0,-3,-4
1558435253506945,-2,0,-5,-4,-9,-10,-5,-8
1558435253530880,-3,-4,-1,-4,-16,-14,-7,-7
1558435253530880,-6,-5,-5,-7,-12,-5,-6,-7
1558435253530880,2,3,1,0,13,7,4,2
1558435253530880,-2,-3,-1,1,1,2,4,2
1558435253545840,1,4,0,1,0,6,-2,4
1558435253545840,-3,-6,-4,-1,-6,-12,-7,-3
1558435253545840,-2,-2,-3,2,-10,-4,-6,-3
1558435253545840,-1,-1,-1,-2,0,-5,-3,-2
1558435253559802,2,3,1,-1,0,-5,6,5
1558435253559802,2,0,0,1,6,8,0,-1
1558435253567780,-10,-8,0,0,3,0,2,-1
1558435253567780,1,5,3,4,16,11,5,3
1558435253582756,-5,-6,-9,-10,-12,-11,-12,-8
1558435253582756,-2,-5,-3,0,-1,2,4,2
1558435253589721,4,6,0,0,-2,-10,-4,-2
1558435253589721,-1,-5,-2,-6,-4,0,-2,-3
1558435253604682,-2,-1,3,4,4,7,8,3
1558435253604682,1,4,-1,-3,-2,-3,0,-3
1558435253612660,-1,-1,-1,-3,-4,0,0,0
1558435253612660,-2,-7,-7,-6,-8,-6,-8,-2
1558435253619643,7,3,1,-3,-4,-4,-6,-6
1558435253619643,-9,-6,-4,-4,-3,-2,1,0
1558435253635601,-2,-2,-6,-3,2,2,-1,-2
1558435253635601,-1,-1,0,1,3,-1,-1,0
1558435253642582,-2,-2,2,-1,-2,-3,-2,-4
1558435253642582,2,2,-1,2,-4,-3,-4,-1
1558435253649568,1,1,4,5,6,5,6,1
1558435253649568,1,5,2,0,8,13,12,6
1558435253664525,-6,-3,-5,-4,-3,0,-5,-5
1558435253664525,-1,-3,-3,-2,-8,-11,-5,0
1558435253673498,1,0,-1,1,-2,-2,-5,1
1558435253673498,3,1,3,4,2,-6,-3,1
1558435253679482,-4,-3,-2,0,2,-1,0,-4
1558435253679482,-4,-2,-3,-2,1,0,-4,-2
1558435253687463,1,-4,-3,-7,-5,-3,-1,-3
1558435253687463,-2,-4,-4,-4,-13,-12,-6,-4
1558435253710403,4,5,3,1,-2,1,2,1
1558435253710403,-6,4,4,4,14,8,1,0
1558435253711400,-1,-5,-6,-2,-1,3,0,-3
1558435253711400,3,6,3,1,-4,-7,-3,2
1558435253725360,-1,-7,-7,-3,2,-1,2,2
1558435253725360,2,-3,-3,1,-1,0,-1,-6
1558435253733342,1,2,0,0,0,1,2,3
1558435253733342,-2,-6,-6,-5,-7,-4,-4,-6
1558435253748298,-1,3,1,0,-4,1,-2,0
1558435253748298,-2,-3,-6,-2,-5,-6,-3,-1
1558435253748298,0,-2,-6,1,8,5,4,3
1558435253748298,2,-1,-1,0,1,-2,0,0
1558435253762266,-2,0,-1,-5,-5,-6,-5,-2
1558435253762266,-2,0,0,1,-2,2,3,-1
1558435253770246,1,1,1,-1,-2,0,0,-2
1558435253770246,-2,1,-1,-2,-4,-1,-2,2
1558435253785200,-5,-8,-8,-4,-1,0,0,-5
1558435253785200,-1,-6,-4,-1,1,2,-6,-1
1558435253793178,2,0,-2,0,-4,-3,-3,-1
1558435253793178,-5,-7,3,-2,2,0,-2,-2
1558435253808137,-2,-2,1,0,-4,-3,-1,0
1558435253808137,1,1,0,-2,-3,-4,-2,-2
1558435253809135,-2,1,-1,-2,1,-2,-1,-4
1558435253809135,3,-1,2,0,4,5,3,1
1558435253822101,0,3,-2,1,-3,-5,-2,0
1558435253822101,0,-6,-3,-3,2,1,5,1
1558435253830079,1,1,5,1,2,2,-3,1
1558435253830079,-6,-1,-3,1,-5,-4,-8,-4
1558435253845039,-1,-4,-4,-2,-1,-4,-4,-2
1558435253845039,4,7,7,3,3,0,1,1
1558435253853027,-4,-8,-4,-3,-2,0,0,-3
1558435253853027,2,-4,-8,-3,-3,0,1,1
1558435253867978,1,4,1,-1,1,-4,-3,0
1558435253867978,-14,-9,-3,0,-3,-3,-4,-3
1558435253868975,0,-3,-1,1,2,-1,1,-1
1558435253868975,2,5,11,1,1,3,2,1
1558435253881940,-3,-7,-11,-4,-4,-3,-2,-3
1558435253881940,2,0,3,-4,-6,-7,-6,-1
1558435253889924,1,8,0,0,-1,-2,-2,-1
1558435253889924,-2,-4,-3,0,4,4,3,2
1558435253913855,0,2,7,8,13,11,8,6
1558435253913855,0,-5,-5,-3,1,-1,-1,-3
1558435253914854,-2,-2,2,1,-7,-8,-6,0
1558435253914854,-2,3,5,-1,-3,-6,-2,-7
1558435253927818,3,0,-3,-4,-6,-3,-2,-1
1558435253927818,2,4,-3,-4,-2,0,-1,-2
1558435253928815,-9,-7,4,2,2,3,-1,-2
1558435253928815,-2,1,0,1,3,2,0,0
1558435253942793,1,-3,1,-1,-3,-1,2,0
1558435253942793,3,3,1,0,-1,-1,1,1
1558435253949759,-1,-4,-7,-2,0,-1,0,-2
1558435253949759,1,-2,-7,-3,2,0,-3,0
1558435253964718,-5,0,1,3,2,1,-2,-1
1558435253964718,2,1,2,0,0,0,-3,0
1558435253972698,1,-1,-6,-5,-2,-1,0,-2
1558435253972698,-15,-12,-9,-2,-3,-2,-2,-6
1558435253987662,4,4,8,0,-2,-2,-4,-2
1558435253987662,-2,-2,-3,-1,-6,-1,0,-1
1558435253988657,-3,-8,-2,-3,0,3,2,1
1558435253988657,-1,1,-5,-3,-1,0,1,-3
1558435254002618,-3,-2,2,0,-3,0,0,1
1558435254002618,2,5,4,0,1,0,-1,2
1558435254009606,-3,-1,-1,2,-1,2,2,2
1558435254009606,-1,-3,-4,-5,-3,-2,-2,-1
1558435254024582,-2,2,2,-2,-2,-4,-4,-1
1558435254024582,1,-1,-9,1,-3,-3,-2,-2
1558435254033539,2,5,-2,-2,-1,-1,-1,1
1558435254033539,1,-3,-1,-2,-1,-3,-2,-1
1558435254048494,-3,0,-2,-2,0,-1,1,-1
1558435254048494,-4,-4,5,-1,-1,-2,-1,-4
1558435254048494,2,-1,-1,-1,1,0,-2,-5
1558435254048494,1,-6,0,0,-2,-3,-3,-1
1558435254062462,3,-3,-9,-6,-4,-3,1,-1
1558435254062462,-1,-3,-8,-3,0,-2,-2,0
1558435254070438,2,7,6,0,0,-1,-1,-1
1558435254070438,3,3,5,4,3,-1,3,0
1558435254084400,-4,-2,-3,-1,-1,-2,-3,0
1558435254084400,-2,-6,-1,0,-6,-5,0,1
1558435254093374,2,-1,-3,-2,-7,-4,2,-1
1558435254093374,-1,5,5,3,-2,5,1,1
1558435254108361,-3,-2,0,1,1,3,-2,-2
1558435254108361,-3,-1,-3,-1,-2,0,-5,-1
1558435254108361,0,1,-2,-3,2,-1,-4,1
1558435254108361,1,-2,-5,-4,-1,-3,1,2
1558435254122297,0,0,1,-1,-1,-3,-2,-3
1558435254122297,-7,-8,2,-4,1,1,0,-2
1558435254130276,-1,-3,-3,-2,-3,-4,-1,-1
1558435254130276,-4,-3,-5,-3,-1,1,-2,-4
1558435254145236,-1,1,2,3,4,0,-3,1
1558435254145236,1,5,7,5,2,-1,2,1
1558435254153215,-2,3,6,3,-2,2,-1,-1
1558435254153215,-1,-1,-5,-6,-3,-3,-6,-1
1558435254168179,3,-5,-8,-7,-4,-3,-1,-1
1558435254168179,-9,-6,0,-2,-4,-2,-1,-2
1558435254169177,1,5,8,4,1,-1,-1,3
1558435254169177,-4,-9,-2,3,-3,-5,-1,2
1558435254182139,-4,-5,0,1,0,3,-2,-1
1558435254182139,6,2,-2,-2,1,-2,2,-3
1558435254190122,-2,-2,-4,-4,-3,1,0,-3
1558435254190122,0,6,3,2,1,-1,0,1
1558435254205076,1,5,10,7,4,4,5,3
1558435254205076,-1,-5,-9,-3,0,-3,-2,-1
1558435254213055,3,7,6,2,3,1,-1,-1
1558435254213055,2,0,6,-2,-1,-3,0,-2
1558435254228014,-2,-7,-6,-6,-7,-3,0,-1
1558435254228014,3,4,0,1,0,0,-3,-3
1558435254229012,-3,-7,-4,-1,0,-3,1,0
1558435254229012,-3,1,4,0,0,1,-5,-1
1558435254241982,-3,0,-5,-1,-4,-3,-1,-2
1558435254241982,1,3,1,-4,-2,0,-2,-1
1558435254249956,-4,-5,-7,-3,-3,-2,-4,-3
1558435254249956,1,3,-1,0,-1,-2,-1,1
1558435254264917,-2,3,-2,-1,0,1,-1,-2
1558435254264917,-1,-11,4,-2,1,1,0,2
1558435254272905,1,0,0,1,-1,-1,1,0
1558435254272905,-5,-5,-8,-1,-2,-1,0,-3
1558435254287856,0,-3,2,-1,-4,-4,0,-1
1558435254287856,3,3,-3,1,-1,0,-2,0
1558435254288851,1,-3,-1,-5,-4,2,-4,-4
1558435254288851,2,-4,-8,-6,-1,-1,-2,-2
1558435254302820,-2,1,-3,-3,-1,-1,-2,-3
1558435254302820,-4,2,0,-1,-3,-3,-2,2
1558435254309797,-5,-7,-5,-1,0,-5,-4,0
1558435254309797,2,3,0,5,2,2,-3,0
1558435254324756,-7,-2,3,-2,-3,-4,-3,-4
1558435254324756,0,-1,-5,-7,-2,-1,2,-2
1558435254332759,0,3,9,2,1,-2,1,-3
1558435254332759,2,2,3,-2,2,-2,4,3
1558435254347694,2,1,-6,-2,-3,-3,-5,-2
1558435254347694,-2,-1,-1,1,-1,0,0,-2
1558435254348692,0,-1,-2,-3,0,-1,0,0
1558435254348692,0,-2,2,1,-1,3,-1,-2
1558435254362656,-3,-6,2,4,2,2,1,0
1558435254362656,0,5,-3,3,1,-2,-6,-2
1558435254369643,-3,-8,-7,-6,-1,-2,-1,-1
1558435254369643,1,6,-5,-4,0,-4,1,-4
1558435254384601,-4,1,-2,-7,0,0,3,-2
1558435254384601,-1,-1,-1,-1,-2,-2,0,-2
1558435254392583,5,2,2,4,1,1,-1,1
1558435254392583,-5,0,2,1,-2,0,-2,0
1558435254408532,0,-10,-12,-2,-2,-2,-2,-2
1558435254408532,-3,-3,-2,-2,-2,0,-1,1
1558435254408532,-6,-6,-12,-8,-5,-3,-3,-3
1558435254408532,-1,-1,4,-1,-3,-4,0,-1
