timestamp,emg1,emg2,emg3,emg4,emg5,emg6,emg7,emg8
1558435174366489,-2,1,0,-4,-4,-3,-1,-2
1558435174366489,-1,-3,-3,-5,-7,-6,3,-1
1558435174372473,1,-3,0,0,2,4,-3,-4
1558435174372473,3,1,-4,-6,-6,-4,-4,-3
1558435174372473,-4,-5,0,4,5,6,7,3
1558435174372473,-1,0,-1,-1,-2,-4,1,-1
1558435174374468,-1,2,-1,-3,-2,-1,-6,-3
1558435174374468,1,-1,-2,-3,-6,-5,-3,-1
1558435174385438,3,4,1,4,9,9,5,4
1558435174385438,0,-4,-2,-2,5,7,3,-1
1558435174396416,0,-2,-3,-1,-5,-3,-3,-2
1558435174396416,0,-1,-3,-2,3,1,0,1
1558435174400398,-12,-7,-3,-4,-10,-9,-8,-7
1558435174400398,-3,-3,-2,4,6,5,2,2
1558435174415358,2,4,3,2,0,1,3,1
1558435174415358,-3,-5,-1,0,-1,-1,-6,-2
1558435174423337,3,-2,-2,-1,-1,-2,2,1
1558435174423337,-8,-3,-1,-3,-4,-4,-7,-10
1558435174431315,-11,-8,-4,-4,-7,-9,-5,-3
1558435174431315,-1,1,2,3,2,4,5,3
1558435174445278,3,3,-3,-6,-2,-1,1,-3
1558435174445278,3,3,1,-1,2,-1,-1,1
1558435174455252,3,-2,0,2,6,6,6,6
1558435174455252,-3,2,0,2,2,1,-1,-5
1558435174492153,-2,-3,-1,0,-3,-6,-4,-1
1558435174492153,-3,-5,-6,-5,-6,-4,-4,-2
1558435174493151,-2,-2,-2,-2,-4,-3,-8,0
1558435174493151,2,1,3,3,2,3,4,2
1558435174495146,2,4,1,0,4,0,1,1
1558435174495146,5,4,1,0,2,2,8,1
1558435174497139,-4,-3,-3,-3,-3,0,-7,-5
1558435174497139,-9,-10,-2,-1,-4,-4,1,3
1558435174505118,-3,-4,-1,0,-2,-1,-3,-7
1558435174505118,1,1,0,1,-2,-5,-2,-1
1558435174514095,1,-1,-3,-3,-1,-1,2,-2
1558435174514095,-4,-6,-6,-6,-6,-4,-10,-8
1558435174520078,-4,-3,-6,-5,-11,-6,-3,-7
1558435174520078,-1,4,3,6,14,6,9,13
1558435174535038,2,5,1,1,7,9,11,0
1558435174535038,-3,-4,-1,2,2,-1,-6,-5
1558435174542019,1,-1,-2,-3,-2,0,3,2
1558435174542019,-4,-1,-3,-3,-10,-4,-12,-15
1558435174550995,1,2,-2,0,-2,-5,-2,5
1558435174550995,6,8,0,-5,-4,-5,-7,-6
1558435174564958,-12,-13,-2,0,-2,-2,-6,-4
1558435174564958,1,5,3,-1,7,6,16,8
1558435174573934,-2,-1,1,3,4,3,2,1
1558435174573934,1,-3,-2,-1,-2,-2,1,4
1558435174579918,4,5,-1,-4,-6,-6,-1,5
1558435174579918,-1,-5,-2,1,-2,-2,-13,-11
1558435174594878,-2,0,2,0,-1,-3,-3,-5
1558435174594878,-3,-1,-6,-5,-7,-5,-4,-1
1558435174602856,4,7,0,1,2,0,3,4
1558435174602856,-1,-6,-2,-2,2,1,1,3
1558435174617816,-1,-2,-2,-2,-4,-5,-2,-1
1558435174617816,-1,1,1,1,0,1,1,-5
1558435174624801,1,0,0,-1,1,-3,-2,0
1558435174624801,0,-2,-2,-3,-7,-3,1,-4
1558435174633774,-2,-3,-2,-3,-3,-6,-8,-3
1558435174633774,3,3,1,-1,1,5,2,1
1558435174639762,-12,-9,-3,-4,-7,-2,-3,1
1558435174639762,1,1,1,4,4,1,1,4
1558435174654719,3,-1,1,-2,-1,-2,1,2
1558435174654719,2,5,0,-1,2,-3,0,3
1558435174662699,3,1,0,-1,1,4,1,-2
1558435174662699,-6,-7,-2,-3,-8,-6,-13,-7
1558435174677657,-1,0,0,-2,-6,-7,3,1
1558435174677657,-1,0,-3,0,0,1,-7,0
1558435174684639,-3,-4,-1,-1,4,5,-4,-9
1558435174684639,0,0,-1,0,3,3,2,1
1558435174693614,3,1,-2,-4,-1,-1,9,2
1558435174693614,-3,-2,-1,2,-1,-3,0,2
1558435174699599,4,2,-2,1,1,1,2,1
1558435174699599,1,-1,-2,-2,-2,-4,-2,1
1558435174715561,-5,-3,-2,0,-2,-2,-10,-8
1558435174715561,1,2,-1,-3,-1,-1,-2,2
1558435174722537,-9,-9,0,-1,-2,0,4,-2
1558435174722537,-2,-2,-3,-3,-6,-8,-3,0
1558435174738494,1,0,1,2,9,10,2,2
1558435174738494,3,6,1,-1,0,-6,1,2
1558435174744480,1,-9,-3,-1,0,2,-6,-2
1558435174744480,-7,-1,0,0,0,2,0,-3
1558435174753455,-5,-5,-5,-1,-4,-4,-5,-2
1558435174753455,-1,-3,0,0,1,2,2,-1
1558435174760435,3,7,1,-2,-1,-4,-1,4
1558435174760435,1,-1,-3,-4,-5,-2,-3,-9
1558435174776393,-18,-14,-4,-4,-4,-1,-4,-1
1558435174776393,-3,-2,-2,-1,2,2,2,-6
1558435174782378,4,5,0,-2,-1,-7,-3,2
1558435174782378,1,1,0,-1,1,4,1,4
1558435174797338,7,6,1,0,0,-2,-1,0
1558435174797338,-13,-17,-5,-5,-6,-5,-2,-3
1558435174805316,-1,1,2,3,1,1,2,-3
1558435174805316,2,-4,-3,-1,-5,-4,-4,2
1558435174814291,3,2,2,1,-1,1,2,0
1558435174814291,1,-3,-3,0,3,5,4,1
1558435174820278,1,1,-1,-2,-4,-2,-4,-1
1558435174820278,-1,0,-3,-2,-2,0,1,2
1558435174835238,-3,-6,-5,-1,-1,1,3,-3
1558435174835238,0,0,0,-1,-2,-4,-5,-5
1558435174842218,-4,0,-2,0,5,5,-2,0
1558435174842218,0,-3,1,1,1,-3,0,-1
1558435174857180,1,-2,-3,-4,-3,-2,-1,-3
1558435174857180,1,1,1,-3,-6,-2,-3,-1
1558435174865154,7,4,1,0,-2,-4,3,2
1558435174865154,-6,1,-1,4,6,6,2,-1
1558435174874131,-8,-10,0,1,-4,-8,-3,-1
1558435174874131,-2,-3,0,-2,-3,-1,-1,-1
1558435174880115,0,0,-2,-2,-3,-6,-5,-5
1558435174880115,2,-1,-2,-1,1,4,3,2
1558435174895078,1,1,3,2,4,7,-2,-2
1558435174895078,-1,0,0,3,-2,-5,1,-1
1558435174902060,-2,-4,-1,0,-1,-5,0,1
1558435174902060,0,4,0,-2,-5,-5,-2,-5
1558435174917018,2,1,0,-2,-3,1,-4,-1
1558435174917018,-2,-5,-4,-3,-5,-5,-6,-2
1558435174924998,-2,-3,-1,1,4,5,2,-1
1558435174924998,-1,1,0,-3,-2,-3,-1,1
1558435174933972,4,4,0,2,1,1,4,0
1558435174933972,5,4,-2,-1,2,5,-1,0
1558435174947935,-1,1,-3,-4,-3,5,2,-3
1558435174947935,-6,-8,0,-2,0,-3,-5,1
1558435174954917,2,4,0,-2,-3,-4,-2,-1
1558435174954917,2,-2,-1,-4,-3,-1,1,1
1558435174962905,1,1,-2,-2,-5,-6,0,3
1558435174962905,-3,-1,-2,-3,-6,-9,-10,-9
1558435174977854,1,0,-1,1,6,6,0,3
1558435174977854,-3,1,0,1,5,5,-1,-3
1558435174984836,-6,-5,0,0,-2,-4,-5,0
1558435174984836,-2,0,2,-2,-2,1,-3,-1
1558435174993812,-1,-1,-2,-3,-2,-4,4,1
1558435174993812,-5,-6,-1,-1,-1,-2,-4,1
1558435175007775,-2,-3,1,-4,-5,3,1,-5
1558435175007775,0,-1,1,2,4,0,2,0
1558435175014756,5,6,2,5,5,3,5,4
1558435175014756,0,6,-1,0,2,3,2,-1
1558435175022734,0,2,-1,-1,-1,-3,-3,-3
1558435175022734,-2,-6,-4,-4,-9,-7,-3,-3
1558435175037693,-1,-1,1,-1,-4,-6,-1,-2
1558435175037693,-1,-5,-3,-1,1,1,1,2
1558435175044676,1,-2,2,1,2,-3,-1,2
1558435175044676,-1,-2,-2,0,4,6,10,1
1558435175053664,0,-2,-4,-2,-4,-3,-11,-4
1558435175053664,-1,0,2,1,-1,-1,1,-2
1558435175068611,-1,0,-2,-1,1,4,1,4
1558435175068611,-1,-4,0,1,0,0,0,4
1558435175074595,-4,-2,-2,-4,-4,-3,-1,-2
1558435175074595,-1,-2,-1,0,-4,-3,-5,-6
1558435175082577,-1,1,0,-1,-4,-2,0,-5
1558435175082577,5,4,1,2,4,1,-3,2
1558435175097533,-7,-6,-3,1,2,1,3,0
1558435175097533,-1,-1,-1,-2,-4,-3,2,0
1558435175104517,-4,-5,-2,0,1,-1,1,2
1558435175104517,3,5,-2,-3,-4,-7,-7,-4
1558435175113502,1,-2,1,0,2,2,5,6
1558435175113502,-4,-3,-1,0,-2,-4,-4,-3
1558435175128451,1,2,-1,2,-2,-1,-3,-3
1558435175128451,-1,-1,-3,-5,-4,1,0,0
1558435175135432,-5,-5,-2,-2,-4,-4,-6,-6
1558435175135432,-3,-5,0,0,0,-1,3,3
1558435175142414,1,1,0,-1,0,0,-3,-4
1558435175142414,-3,-1,0,-2,1,0,3,1
1558435175157376,8,11,-1,0,1,3,3,3
1558435175157376,-4,-6,2,0,1,2,0,-6
1558435175165351,1,-2,-2,-2,-3,-1,-7,0
1558435175165351,-5,-5,-4,-2,-5,-5,2,2
1558435175181310,-1,0,-2,0,-3,-4,-8,-6
1558435175181310,2,6,0,1,7,8,7,6
1558435175188291,0,-1,-3,-4,-1,-4,-1,-1
1558435175188291,2,-4,1,0,1,-3,1,3
1558435175195272,-3,-3,-3,-3,-2,2,2,1
1558435175195272,-4,-2,-1,-1,-3,-3,-1,-4
1558435175202253,1,0,3,2,2,0,1,-1
1558435175202253,2,3,-2,-2,-2,-1,-3,-3
1558435175217213,-4,-3,-2,-3,-3,-5,-8,-8
1558435175217213,2,1,-1,-1,-1,-3,-3,2
1558435175234169,0,2,0,-3,-1,-1,4,5
1558435175234169,-6,-5,1,1,7,8,2,-5
1558435175235166,0,-1,1,0,0,3,6,4
1558435175235166,3,5,-1,0,-3,-5,-2,2
1558435175248132,-6,-5,-4,-1,-3,-5,-5,1
1558435175248132,-2,2,-1,-2,-6,-5,-7,-13
1558435175255113,-1,-11,0,-1,-3,-4,-4,-1
1558435175255113,-6,-3,-4,-4,-4,-5,-4,-5
1558435175262094,-1,0,-1,1,1,3,3,-4
1558435175262094,-1,2,2,2,5,6,1,3
1558435175277058,3,5,1,-2,1,-2,-2,-3
1558435175277058,2,-6,-4,-3,-2,-5,-2,1
1558435175285033,-2,-3,-3,-5,-2,-3,-3,-3
1558435175285033,-6,-4,-5,-2,-5,-2,-3,-5
1558435175294009,-1,2,1,2,1,-3,-4,0
1558435175294009,4,3,3,5,1,2,1,1
1558435175307971,-1,2,-2,0,3,5,7,5
1558435175307971,-1,-2,0,-1,-3,0,-7,-6
1558435175314952,-4,-2,-3,-3,-1,-3,-1,0
1558435175314952,-4,-3,-1,-1,-6,-4,-8,-5
1558435175322937,3,4,2,3,1,3,3,1
1558435175322937,1,-1,-1,1,1,-2,3,4
1558435175337897,-4,0,0,2,2,3,2,-1
1558435175337897,4,4,0,-4,-2,3,4,2
1558435175344872,-4,-7,-2,-3,-5,-7,-8,-5
1558435175344872,0,-6,0,-4,-3,-5,-1,2
1558435175353848,-1,0,0,-1,-4,-3,-3,-6
1558435175353848,1,6,3,2,4,0,5,3
1558435175367813,-2,-4,-3,-1,4,4,0,-4
1558435175367813,3,2,0,0,0,0,-3,2
1558435175374792,-3,-3,-2,-2,-7,-3,-4,-3
1558435175374792,-1,0,-1,0,-5,-5,-3,-3
1558435175382781,0,0,2,1,1,0,2,1
1558435175382781,-1,-1,-1,-2,1,-2,-1,-2
1558435175397732,1,-1,-2,-1,0,0,-1,0
1558435175397732,-1,-2,0,0,1,0,1,1
1558435175404732,3,0,1,2,2,0,0,2
1558435175404732,-4,-4,-4,-7,-6,-5,-5,-2
1558435175413694,-2,-1,-1,-2,-4,-5,-6,-7
1558435175413694,2,2,-2,-2,2,6,6,5
1558435175428651,1,0,0,3,4,3,2,6
1558435175428651,-2,-4,-1,3,2,3,3,0
1558435175434634,-3,-3,-1,-2,-3,-4,-4,-1
1558435175434634,-3,-3,-1,1,-2,-5,-6,-4
1558435175442646,-1,1,-2,-3,-2,0,0,1
1558435175442646,0,2,-4,-5,-10,-10,-11,-11
1558435175457571,-11,-11,-3,-6,-6,-6,-6,-3
1558435175457571,2,0,2,3,12,11,14,8
1558435175464556,-1,0,-1,-3,-2,1,-1,0
1558435175464556,-2,-1,0,-1,0,-1,4,2
1558435175480510,1,-2,-2,-2,-5,-2,-3,-3
1558435175480510,-3,-2,-1,-3,-6,-7,-9,-6
1558435175488491,-3,-4,-3,0,-3,-3,-2,-5
1558435175488491,3,4,3,4,4,3,0,1
1558435175503449,5,2,-4,-11,-8,-4,5,6
1558435175503449,-3,-2,-3,2,3,3,-4,-4
1558435175503449,-7,-7,1,2,5,6,4,-1
1558435175503449,0,0,-3,-1,-3,-2,-5,0
1558435175517411,0,3,0,3,1,1,0,-4
1558435175517411,-5,-8,-1,-4,-3,-1,-3,-3
1558435175525390,0,1,-1,-1,-4,-5,-3,-1
1558435175525390,-3,-2,-2,-1,0,2,2,-1
1558435175540363,2,3,2,1,3,-1,0,2
1558435175540363,-3,-2,-1,-1,-2,-4,-2,0
1558435175548337,-1,0,-3,-2,-1,0,2,0
1558435175548337,-1,-4,-2,-2,-2,2,0,-2
1558435175563290,-1,1,0,0,-2,-2,-4,-4
1558435175563290,0,-2,-2,-1,-2,1,-1,1
1558435175564287,0,-2,0,1,-2,-1,-6,-6
1558435175564287,-3,-1,-2,-2,-6,-7,-5,-2
1558435175578248,2,1,-2,2,10,14,10,5
1558435175578248,1,0,1,1,2,2,-1,-5
1558435175585235,3,2,-1,0,-2,-5,3,2
1558435175585235,-4,0,0,-2,-2,-4,1,4
1558435175600192,-2,-2,-2,3,-3,-4,-6,-4
1558435175600192,-7,-6,-5,-5,-3,0,-1,4
1558435175608178,-1,-1,-1,-3,-5,2,-5,-8
1558435175608178,3,-1,-2,-1,-2,-3,-3,-1
1558435175623133,-1,-6,0,-2,0,-3,2,1
1558435175623133,-1,2,1,-1,0,2,0,0
1558435175624133,-3,0,-3,-3,-3,-1,-3,-3
1558435175624133,0,0,2,0,0,2,-1,-2
1558435175637093,-3,0,0,0,0,-1,1,3
1558435175637093,1,-1,-2,-2,-5,-3,-6,-8
1558435175645070,-6,-7,-2,-1,-1,3,-4,-2
1558435175645070,1,5,2,3,6,4,7,4
1558435175660034,-2,-1,-2,-3,-1,-3,-1,0
1558435175660034,-1,1,0,0,-5,-8,-2,1
1558435175667021,1,1,-3,0,1,-4,-4,0
1558435175667021,0,-2,-5,-2,1,5,2,2
1558435175682981,-11,-11,-2,-2,-2,-4,-2,-8
1558435175682981,0,2,0,0,2,1,1,-2
1558435175683966,0,0,2,2,-1,1,-1,-1
1558435175683966,2,0,-1,-1,-2,-3,0,-3
1558435175705907,-1,-1,-2,-1,0,3,1,-1
1558435175705907,1,3,-2,-4,-7,-4,-3,-1
1558435175705907,-1,-1,-3,-2,-4,-6,1,3
1558435175705907,-3,-7,-3,1,1,2,1,-4
1558435175719869,4,1,-2,-1,1,5,-1,-1
1558435175719869,0,-2,0,-1,-1,-3,-3,-2
1558435175727848,0,7,2,2,0,-8,3,2
1558435175727848,1,-3,-3,-4,-3,-4,-5,0
1558435175742811,-3,-3,1,1,-2,1,-2,-1
1558435175742811,-1,0,2,3,2,4,1,-3
1558435175743805,0,1,-2,-2,-1,-2,-3,-1
1558435175743805,-6,-5,-2,-2,-3,-2,-2,-1
1558435175757768,3,3,-3,-4,0,2,3,4
1558435175757768,-1,-3,-4,-5,-4,-5,-4,-3
1558435175764749,0,-1,1,-1,-3,1,-1,-1
1558435175764749,2,6,0,0,-1,-2,-4,-4
1558435175779709,-1,-5,-2,1,1,-1,-6,-1
1558435175779709,1,0,0,1,8,11,9,5
1558435175787687,-1,-1,-1,-1,-3,-4,-3,-5
1558435175787687,0,-4,-2,-3,-2,0,0,1
1558435175811627,-4,-1,1,-3,-8,-12,-9,-4
1558435175811627,-3,-4,-4,-3,-4,-4,0,-3
1558435175811627,1,-2,2,4,8,2,5,7
1558435175811627,-1,4,-1,1,-3,0,-3,1
1558435175817676,7,7,-2,-2,-2,2,0,1
1558435175817676,-2,-4,1,-1,2,5,3,-4
1558435175824654,0,-1,-3,-2,-1,-2,-4,-1
1558435175824654,2,0,1,-4,1,-3,1,-1
1558435175839613,-5,-6,0,-1,2,0,0,0
1558435175839613,0,1,-2,-2,-2,-6,-7,-3
1558435175847536,-3,-2,-2,-1,-2,4,0,-3
1558435175847536,2,7,4,1,2,4,4,2
1558435175862499,-1,-4,-2,-3,-7,-5,-1,1
1558435175862499,-3,-3,-2,-2,-4,-5,-3,-1
1558435175870573,-2,-4,2,2,1,3,2,-3
1558435175870573,-3,-5,-3,-2,-4,-6,-2,1
1558435175877553,1,5,1,-1,3,3,2,-8
1558435175877553,3,1,-3,1,0,1,4,9
1558435175885438,-11,-17,-6,-4,-2,-2,-2,-1
1558435175885438,0,-2,0,1,4,0,0,-3
1558435175900470,3,0,-1,0,0,-1,3,2
1558435175900470,-5,0,-4,-3,-3,-5,-4,-4
1558435175907474,0,3,0,0,-7,-7,-9,-6
1558435175907474,-3,-5,-1,1,6,6,8,6
1558435175922380,1,2,2,0,2,2,5,-1
1558435175922380,0,-2,-1,0,0,4,-1,-3
1558435175930311,0,0,0,-4,-7,-8,-1,0
1558435175930311,-6,-4,-2,0,-7,-5,-9,-3
1558435175938293,-2,0,0,0,-1,-1,0,-2
1558435175938293,1,5,2,-1,-1,-5,-1,1
1558435175945310,2,3,-2,-1,3,2,0,1
1558435175945310,-7,-8,-5,-1,-4,-5,-4,-4
1558435175960475,-2,-4,-3,-1,-1,-3,0,-2
1558435175960475,-4,-6,-1,-3,-2,0,-1,-1
1558435175968205,1,2,-1,-6,-1,-3,-4,-2
1558435175968205,5,9,2,-1,-1,-1,-1,0
1558435175982207,2,-2,-2,-4,-4,-1,2,0
1558435175982207,-7,-6,-2,2,2,-3,-1,-4
1558435175991147,4,2,1,-1,0,2,1,0
1558435175991147,-4,-3,-2,1,3,6,3,0
1558435175997135,-5,-1,-2,-1,-5,-3,-6,-2
1558435175997135,1,-2,-2,-5,-6,-2,-2,-3
1558435176005108,-1,-2,-1,-1,1,-4,3,4
1558435176005108,2,2,1,0,1,-4,-4,0
1558435176020066,-1,1,1,2,3,1,-1,-2
1558435176020066,-2,-2,-3,-2,-5,-2,-3,0
1558435176027074,-6,-11,-2,-3,-4,-1,-1,-1
1558435176027074,4,0,-1,1,2,4,3,0
1558435176042041,-12,-12,-1,-1,-2,-2,-2,-3
1558435176042041,-2,3,-1,-2,-3,-1,-3,-3
1558435176051330,0,1,-3,-1,-4,-4,-1,0
1558435176051330,-1,-1,-1,-2,-3,-3,-1,2
1558435176066291,2,0,-2,-1,-1,3,-2,2
1558435176066291,1,0,0,1,2,2,-1,-3
1558435176066291,-8,-8,-2,1,1,4,1,-4
1558435176066291,0,-1,-3,-4,1,-5,-4,-5
1558435176079941,1,1,-2,-2,-2,-1,-1,2
1558435176079941,2,3,3,3,2,-1,1,0
1558435176088017,1,1,-4,-2,0,2,-2,0
1558435176088017,-5,-5,-2,-4,-5,-1,-2,-4
1558435176103142,2,4,0,-1,0,-2,0,-1
1558435176103142,-1,-3,-1,-2,-2,-3,-1,1
1558435176111173,2,5,1,-1,-1,-2,-3,-1
1558435176111173,-10,-12,-1,1,-1,-1,1,-4
1558435176126094,-3,-2,-2,-2,-3,-3,-5,-1
1558435176126094,-1,-2,-1,3,5,3,2,1
1558435176127010,-2,1,-4,-6,-6,-5,-4,-3
1558435176127010,3,4,-3,-2,-5,-7,-4,2
1558435176139778,1,-1,-1,1,2,2,3,0
1558435176139778,3,1,-1,-3,-1,-2,-1,4
1558435176147755,-3,-5,3,2,3,2,-2,-2
1558435176147755,-2,1,0,-3,-3,-2,0,-1
1558435176162686,-1,-2,-1,-1,-4,-7,-3,-4
1558435176162686,1,2,1,1,-1,1,-1,-1
1558435176170889,0,-1,-2,-1,-4,-3,-3,-2
1558435176170889,0,-1,-2,-2,-1,2,4,-2
1558435176185655,-2,1,-2,0,2,2,0,-1
1558435176185655,2,-1,0,0,0,-4,-1,-1
1558435176186622,5,5,1,2,1,5,2,1
1558435176186622,-5,-8,-3,1,-1,-2,-1,-1
1558435176199585,2,2,-1,0,-2,-5,-2,1
1558435176199585,-3,-5,-3,-4,-8,-3,-2,-2
1558435176207567,0,1,-3,-1,-2,-3,-3,0
1558435176207567,6,9,4,1,5,-1,0,-2
1558435176222526,-4,-8,0,-2,0,4,1,-2
1558435176222526,-9,-8,-1,-1,2,2,-1,0
1558435176230506,-2,-3,-1,-1,-3,-3,-2,-6
1558435176230506,-2,-2,0,0,-3,-2,2,7
1558435176245463,-1,4,-3,-1,0,0,-6,-5
1558435176245463,2,1,-1,-1,0,0,-2,-3
1558435176246460,-11,-10,-2,-2,3,3,0,-2
1558435176246460,1,-2,2,0,0,0,-4,-3
1558435176260775,-1,3,3,2,-4,-4,-1,3
1558435176260775,4,5,-1,-3,-1,0,6,5
1558435176267601,-1,-2,-3,-3,-4,-1,-5,-4
1558435176267601,0,-1,-2,-1,-2,-1,1,0
1558435176282561,2,1,2,1,7,1,4,4
1558435176282561,-3,0,-1,-2,-2,0,-4,-6
1558435176291352,1,3,1,-1,-3,-3,0,1
1558435176291352,-2,-2,-2,-3,-7,-5,-6,-6
1558435176305500,1,2,4,4,4,3,8,3
1558435176305500,0,2,-3,-2,2,2,-1,-4
1558435176306300,0,-5,0,0,4,2,1,1
1558435176306300,-1,-3,-1,1,2,6,3,4
1558435176320560,-3,-3,-6,-4,-5,-1,-4,-4
1558435176320560,-2,-4,-1,-1,-4,-6,-3,2
1558435176327541,-1,1,0,-1,-2,-4,-2,-4
1558435176327541,1,0,-3,-4,-6,-3,-6,-6
1558435176342206,2,1,-2,-5,-7,-2,-6,-3
1558435176342206,-2,-3,2,3,0,-5,3,0
1558435176350399,3,4,2,2,9,11,8,6
1558435176350399,4,7,2,0,2,0,4,1
1558435176365364,-5,-6,-2,-2,-3,-4,-4,2
1558435176365364,-2,-6,-5,-1,-2,4,-5,-6
1558435176366143,1,1,-3,0,-6,-9,-2,1
1558435176366143,1,1,-1,-3,-4,-2,-5,-5
1558435176380106,-4,-6,-3,-3,0,5,2,-3
1558435176380106,0,3,3,2,2,-4,2,2
1558435176388191,-1,-4,0,0,0,-1,4,3
1558435176388191,1,-1,-1,-2,3,6,5,1
1558435176403159,0,4,-1,-3,-9,-9,-8,-4
1558435176403159,-3,0,-4,-6,-8,-12,-9,-6
1558435176411022,-7,-11,-2,-2,3,0,-1,-2
1558435176411022,2,2,-2,-1,-1,5,0,1
1558435176425982,-5,-3,-1,0,-1,-1,2,-2
1558435176425982,4,3,0,2,2,1,3,4
1558435176425982,1,2,-1,-2,-6,-1,-7,-4
1558435176425982,-7,-7,-6,-3,-1,-1,1,-3
1558435176439947,5,1,-2,1,4,2,1,1
1558435176439947,-1,4,0,-2,-1,1,1,4
1558435176448078,-3,-3,-2,-5,-6,-5,-5,-5
1558435176448078,0,-1,0,-1,-1,-4,-1,-1
1558435176462881,2,1,-1,3,4,3,0,2
1558435176462881,-2,-2,-1,-2,-3,-6,-2,-2
1558435176470901,2,0,1,0,3,0,0,2
1558435176470901,-3,0,2,0,0,-2,-5,1
1558435176486152,-4,-4,-4,-4,-5,-5,-4,-13
1558435176486152,-5,-7,-3,-1,-2,5,0,1
1558435176486152,3,5,-1,-2,3,3,2,0
1558435176486152,-2,-2,-1,1,-1,-1,-1,-3
1558435176500046,2,3,-1,1,0,-4,1,4
1558435176500046,-10,-12,-3,-1,1,4,-3,-1
1558435176508090,-1,1,0,-1,-6,-5,-2,0
1558435176508090,-1,-1,1,0,1,-4,-3,-3
1558435176523043,0,1,-1,1,2,6,3,1
1558435176523043,3,-3,-2,-4,-6,-2,-2,-4
1558435176530702,1,5,-2,-4,-6,-11,-4,0
1558435176530702,-4,-2,0,1,2,3,-1,-4
1558435176545660,0,-1,2,1,0,0,0,2
1558435176545660,1,2,-1,-1,4,4,0,-4
1558435176546659,-3,-7,-2,0,-1,1,-1,-2
1558435176546659,-1,4,-3,0,-8,-5,-3,-1
1558435176559623,2,0,-4,-5,-5,-4,-5,-4
1558435176559623,-2,0,3,1,5,0,5,4
1558435176567602,-2,1,-2,1,0,-1,-1,4
1558435176567602,-2,-1,0,0,5,2,1,1
1558435176582596,-2,-3,-3,-1,-3,-4,-3,-1
1558435176582596,2,2,-1,-1,-4,-3,-4,-3
1558435176590991,-9,-10,-3,-3,-3,-1,1,-5
1558435176590991,-1,-3,-4,-1,1,0,1,2
1558435176605953,-2,0,1,1,2,-4,1,3
1558435176605953,0,2,-2,-1,0,0,-3,-4
1558435176606497,1,2,-1,1,-1,5,-1,-2
1558435176606497,1,-2,-2,-3,-6,-8,-2,-3
1558435176620871,-4,-3,-1,-2,2,3,-1,1
1558435176620871,1,-1,0,-1,0,-1,0,-1
1558435176627894,3,2,0,1,0,0,-1,-3
1558435176627894,-2,-4,-1,-2,-4,0,-2,-1
1558435176642401,-3,-2,-6,-7,-4,-2,-4,-3
1558435176642401,0,-2,-1,0,-1,-4,1,0
1558435176651516,-2,-1,-2,-2,1,0,0,-2
1558435176651516,1,1,1,2,-1,0,-2,4
1558435176666432,-3,1,1,0,1,1,0,-1
1558435176666432,-2,-4,-3,-4,-4,-3,-6,-3
1558435176666432,3,-1,-4,-2,1,3,6,0
1558435176666432,-6,-4,-2,-2,-1,-8,-2,-5
1558435176680579,-3,-2,-1,0,-1,0,0,-2
1558435176680579,4,4,2,2,3,3,0,-1
1558435176687283,2,1,3,2,6,5,3,4
1558435176687283,1,-1,-4,-4,-5,-2,-1,0
1558435176702523,-3,-2,1,-3,-4,-4,-5,-7
1558435176702523,-1,-1,-5,0,-3,-3,1,5
1558435176711465,0,0,1,0,-3,-4,-4,-2
1558435176711465,0,0,-3,-1,1,2,0,-2
1558435176726326,-1,-2,0,-2,-4,-5,-2,-2
1558435176726326,-1,2,0,1,1,-1,0,-3
1558435176726326,-1,-1,0,2,4,4,4,2
1558435176726326,-2,2,4,4,6,1,-1,1
1558435176740455,-1,-6,-3,-4,0,3,3,3
1558435176740455,-3,0,-2,-3,-5,-5,-7,-5
1558435176747455,-5,-3,-7,-4,-6,-5,-5,-3
1558435176747455,0,-2,0,1,-1,-5,1,-1
1558435176762469,0,-1,0,2,1,2,2,-1
1558435176762469,1,2,3,1,4,4,4,1
1558435176770766,3,3,-1,-1,0,-3,-4,0
1558435176770766,-1,-3,-1,-1,0,2,-2,-6
1558435176786447,1,1,-3,-4,-5,-4,-3,-3
1558435176786447,-6,-4,-5,-4,-6,-8,-6,0
1558435176786447,3,-1,3,3,0,-6,-1,4
1558435176786447,2,5,4,8,10,4,6,4
1558435176800660,-3,-4,-5,-8,-7,-4,-5,-2
1558435176800660,-1,-1,-1,-4,-4,-2,-3,-5
1558435176807643,-3,-1,-2,0,2,5,2,-1
1558435176807643,-2,-3,-3,-4,-7,-5,-6,-2
1558435176822309,-1,0,0,0,0,-2,-2,-2
1558435176822309,-3,-2,0,0,-1,1,3,1
1558435176830286,-1,-1,0,0,1,-3,-5,-3
1558435176830286,0,-1,1,1,2,4,3,5
1558435176845246,7,8,1,4,3,4,1,0
1558435176845246,-3,-5,-6,-9,-8,-2,-4,-4
1558435176853223,-3,-4,0,-3,-5,-1,-1,-2
1558435176853223,2,0,-2,-4,-6,0,-2,-3
1558435176860207,-3,-4,-2,-2,-3,-10,-4,-2
1558435176860207,3,4,3,5,4,1,3,3
1558435176867553,0,0,0,1,-1,-3,0,-3
1558435176867553,-4,-2,0,-1,4,4,-2,-1
1558435176883174,2,0,1,1,6,5,6,3
1558435176883174,-4,-2,-1,-3,-6,-5,-3,-5
1558435176891437,2,0,-1,0,1,3,2,5
1558435176891437,-4,-3,-3,-5,-5,-5,-7,-11
1558435176905512,-2,-2,-3,-3,-7,-6,-6,-2
1558435176905512,0,-1,-3,-1,-1,-2,-1,-2
1558435176913173,0,-1,0,1,4,4,8,3
1558435176913173,-1,-5,-3,-2,-4,2,0,-2
1558435176920470,-2,-2,0,3,3,-3,1,1
1558435176920470,1,0,-1,1,3,3,1,0
1558435176928141,-6,1,-3,-3,-8,-7,-7,-8
1558435176928141,1,-2,-2,-5,-3,-1,-2,-1
1558435176943260,0,1,1,0,-5,-5,-1,1
1558435176943260,1,-4,0,2,4,4,3,4
1558435176951382,1,0,-2,-1,1,-2,-5,-2
1558435176951382,-1,0,1,-2,1,3,3,3
1558435176965340,-3,-3,-3,-3,-3,-1,-4,-4
1558435176965340,1,1,-1,2,2,-1,2,0
1558435176973326,0,-1,2,0,3,3,3,0
1558435176973326,-2,1,-3,-4,-5,-8,-6,-1
1558435176988301,-1,-1,-1,1,6,7,5,1
1558435176988301,-1,1,2,0,-1,-4,0,3
1558435176988973,-2,-3,-4,-2,-6,-4,-7,-7
1558435176988973,-2,-1,-1,-3,-4,-6,-3,1
1558435177003055,3,2,3,5,3,3,2,0
1558435177003055,-1,-1,-1,-1,4,4,3,0
1558435177011228,1,-1,0,-2,-2,-1,-2,-3
1558435177011228,-2,3,-2,-3,-2,-4,-2,0
1558435177025162,-3,-2,2,1,0,-2,-1,-4
1558435177025162,-1,-1,-1,0,-1,2,-2,-3
1558435177032853,-3,-2,-3,-6,-15,-15,-13,-9
1558435177032853,3,1,-2,2,4,1,6,4
1558435177047815,1,0,2,4,16,16,11,9
1558435177047815,-4,-7,-2,-1,3,4,-1,0
1558435177048809,3,2,0,1,2,-2,2,1
1558435177048809,-1,-4,-3,-7,-11,-8,-6,-7
1558435177062776,-1,3,0,-4,-8,-7,-7,-7
1558435177062776,2,3,-1,-2,-2,-2,-2,-5
1558435177071032,-3,-9,-4,-1,-2,4,1,5
1558435177071032,-1,-3,-1,0,-2,-1,-1,-3
1558435177085017,-1,-3,-3,-1,-5,-4,-3,-1
1558435177085017,-2,0,-4,-4,-13,-6,-9,-8
1558435177093923,-2,-4,1,1,-3,-12,-1,1
1558435177093923,7,5,6,7,20,17,16,10
1558435177108993,-1,0,-2,-3,4,3,1,2
1558435177108993,-2,-2,-2,-1,-3,-4,-4,-4
1558435177108993,-4,1,-2,-4,-7,-6,-7,-6
1558435177108993,-3,-3,0,1,-2,0,-1,-2
1558435177122919,0,-2,-4,-2,-5,-4,0,2
1558435177122919,0,-1,-1,2,-2,-5,-5,-5
1558435177130909,-2,-3,-3,-1,4,8,3,-1
1558435177130909,-3,-1,-4,-5,-11,-12,-13,-9
1558435177144788,-1,1,0,1,6,4,7,4
1558435177144788,-2,-3,-1,0,4,4,4,2
1558435177153562,3,4,0,-1,1,3,2,1
1558435177153562,-3,-6,-3,-2,-2,1,-5,-4
1558435177168737,-1,-2,-3,-1,-8,-4,-5,-4
1558435177168737,-2,-1,-1,3,1,1,0,2
1558435177168737,-2,1,1,1,0,-3,-1,-4
1558435177168737,-4,-1,-1,0,-4,-6,-2,0
1558435177182764,-1,-2,-3,-3,0,-2,-5,-2
1558435177182764,5,5,2,-2,2,-2,2,3
1558435177190751,1,-3,-1,-2,1,7,2,-1
1558435177190751,-6,-6,0,0,-3,-2,-2,-3
1558435177205701,0,-3,-1,-1,-7,-5,-6,-3
1558435177205701,-1,0,0,0,1,0,-2,1
1558435177213651,0,-1,-3,-3,-3,-5,-5,-5
1558435177213651,2,0,0,-2,0,0,1,0
1558435177228332,-3,-2,0,-2,-7,-2,-5,-6
1558435177228332,-3,-5,-4,-4,-10,-10,-6,-1
1558435177228332,0,2,1,5,9,5,8,7
1558435177228332,3,5,2,7,11,12,7,2
1558435177244288,-2,1,0,0,1,1,0,-2
1558435177244288,0,-2,-1,-2,-6,-3,-6,-5
1558435177250271,-5,-7,-5,-4,-7,-2,-5,-4
1558435177250271,-1,-1,-3,-2,-4,-6,-5,-3
1558435177265536,-1,0,1,-1,-2,-5,-1,0
1558435177265536,-3,-4,-1,-3,-5,-6,0,-3
1558435177273519,1,2,-3,-1,-1,1,0,1
1558435177273519,-10,-10,-5,-4,-4,-6,-6,-5
1558435177288490,1,3,1,1,1,-3,5,5
1558435177288490,3,2,5,7,20,17,13,7
1558435177289414,-2,-4,-2,-1,0,2,-3,1
1558435177289414,0,2,-2,-4,-6,-4,-4,-4
1558435177302203,-3,-5,-5,-4,-6,-5,-6,-4
1558435177302203,-1,-1,-2,2,-1,0,1,-3
1558435177311443,-2,-1,-2,-3,-6,-4,-1,-5
1558435177311443,-1,-2,1,-2,-3,-2,-5,-3
1558435177325389,0,0,0,-3,0,-2,1,-2
1558435177325389,2,6,1,0,6,7,5,3
1558435177333368,-2,-7,-2,-2,1,-1,0,-1
1558435177333368,-1,-1,-1,0,-1,-3,-1,-2
1558435177348315,-2,-2,0,-1,-4,-7,-4,-3
1558435177348315,-4,-2,-1,-2,-6,-4,-3,-1
1558435177349011,-1,0,-1,-3,-5,-3,0,-1
1558435177349011,1,0,-1,-4,-4,-2,-1,0
1558435177361973,2,-1,-3,0,3,9,4,2
1558435177361973,-9,-13,0,2,4,-2,1,4
1558435177371251,1,2,2,2,3,1,3,1
1558435177371251,3,2,-1,0,5,5,3,1
1558435177385223,1,-1,-4,-2,-4,-3,-4,-2
1558435177385223,-1,-1,-3,-6,-11,-7,-7,-5
1558435177393195,-1,1,1,0,0,-4,-2,0
1558435177393195,3,2,0,0,2,0,3,4
1558435177408846,-3,-2,0,0,-1,2,-1,-4
1558435177408846,0,-4,-2,-2,-6,-3,-5,-4
1558435177408846,-4,0,-2,-4,-10,-8,-10,-8
1558435177408846,3,3,-2,3,10,9,12,14
1558435177423096,0,2,4,3,8,3,4,2
1558435177423096,2,4,1,0,4,5,2,-1
1558435177431110,-2,-2,0,-1,-2,-2,-4,-2
1558435177431110,-5,-7,-3,-5,-11,-11,-10,-10
1558435177454046,-2,-4,-2,-2,0,2,3,0
1558435177454046,3,2,-2,-3,-1,0,0,0
1558435177454725,-3,-2,-4,-3,-3,-2,-5,-6
1558435177454725,3,2,2,1,-2,0,0,4
1558435177467688,2,0,2,3,6,2,5,6
1558435177467688,-1,0,-1,-2,-3,-2,-5,-2
1558435177468686,0,1,-2,-3,-2,0,0,-2
1558435177468686,-3,-3,-3,-3,-1,-3,-3,-3
1558435177482682,0,0,-1,0,-1,-1,1,3
1558435177482682,0,0,-2,-2,0,-1,2,-1
1558435177489664,0,-2,0,2,-2,0,1,0
1558435177489664,0,3,0,0,6,6,-2,-5
1558435177505767,-2,-7,-4,-6,-9,-9,-10,-2
1558435177505767,-3,-3,-1,4,2,-4,3,2
1558435177514006,3,0,2,1,6,5,3,4
1558435177514006,-3,-4,-1,0,-3,-3,-3,-6
1558435177528541,-1,2,-4,-4,-6,-4,-6,-3
1558435177528541,-2,-1,-2,1,-1,0,-2,-1
1558435177528541,0,-1,-1,-3,-4,-5,-2,0
1558435177528541,-1,0,0,-2,-5,-5,-1,0
1558435177550939,1,1,2,0,0,-4,-3,-7
1558435177550939,-6,-3,-4,-5,-4,-2,-4,0
1558435177551466,1,2,-2,1,5,4,5,3
1558435177551466,0,-4,-2,-2,-2,-2,3,0
1558435177565477,-1,-4,-2,1,8,6,2,2
1558435177565477,-1,1,0,-1,1,-2,-2,-3
1558435177574069,0,-1,-1,-1,-1,0,-1,0
1558435177574069,-4,-3,-3,-4,-5,-6,-3,-2
1558435177587938,1,1,1,0,-4,0,-3,0
1558435177587938,1,0,2,0,2,2,-3,-1
1558435177588902,-3,-2,-2,-1,-2,-3,-2,-2
1558435177588902,0,-3,-3,-2,-5,-2,-2,-2
1558435177602865,-3,-3,-3,-2,-7,-4,-1,-5
1558435177602865,0,0,-1,-2,-4,-9,-6,-4
1558435177609845,0,-2,-3,0,3,1,7,3
1558435177609845,4,7,4,4,12,11,9,8
1558435177624805,-3,-6,-3,0,2,6,4,1
1558435177624805,-2,-1,-1,-2,-3,-2,-2,-1
1558435177632817,-3,-3,-3,-4,-6,-7,-9,-3
1558435177632817,1,2,-3,-2,-4,-7,-5,-4
1558435177647743,-2,1,-1,-1,-2,0,1,-3
1558435177647743,-1,-5,-2,-1,-2,-1,0,-1
1558435177648740,0,0,-1,-4,-5,-3,-7,-7
1558435177648740,-4,-3,-2,-2,-3,2,1,4
1558435177662704,1,1,5,5,7,-1,5,5
1558435177662704,2,2,1,2,5,5,7,4
1558435177670102,-1,0,-1,2,3,1,-1,-2
1558435177670102,0,-2,-2,-1,-3,0,-4,-5
1558435177685124,-2,0,-1,-4,-6,-6,-3,-3
1558435177685124,-3,-3,-4,-2,-4,-5,-1,0
1558435177693622,-2,2,0,1,2,0,-2,-6
1558435177693622,-5,-11,-4,-2,-5,-4,-4,-4
1558435177709081,-2,-2,-3,-3,-3,0,-5,-4
1558435177709081,-3,-3,-1,-2,-4,-4,-6,-4
1558435177709081,1,1,2,0,-1,-3,5,4
1558435177709081,3,4,6,4,9,1,5,5
1558435177722866,-1,-2,-3,0,2,4,1,3
1558435177722866,1,2,-5,-1,-1,0,-5,-3
1558435177730778,-7,-8,-4,-5,-3,0,-1,-1
1558435177730778,-2,1,-1,0,-2,-4,-1,-1
1558435177744748,0,1,0,-2,0,-4,0,-6
1558435177744748,2,1,-2,-2,-4,0,0,3
1558435177753758,1,1,-1,-1,-3,-3,0,1
1558435177753758,-2,-3,-5,-5,-8,-6,-11,-8
1558435177768156,-3,-2,-4,1,2,3,4,1
1558435177768156,-4,-2,2,1,6,0,2,1
1558435177776102,2,-1,2,4,7,8,5,3
1558435177776102,-1,1,2,2,4,8,4,2
1558435177782816,-2,0,-2,-4,-9,-10,-11,-6
1558435177782816,-2,-3,0,1,-3,0,2,-2
1558435177790045,1,0,0,1,-2,0,2,2
1558435177790045,-1,-1,-2,-3,-1,3,0,0
1558435177805720,-1,-2,-3,-2,-3,-6,-1,0
1558435177805720,-2,0,-1,1,2,2,0,1
1558435177813983,3,-1,1,1,2,0,-1,2
1558435177813983,-3,-2,-2,-3,-7,-10,-4,-2
1558435177827661,-1,4,3,-2,-1,-1,-1,2
1558435177827661,0,2,0,-3,1,3,-1,-6
1558435177835893,-6,-6,-2,0,1,2,-3,-2
1558435177835893,1,-6,-1,-1,4,2,2,0
1558435177842623,1,-4,-3,-1,-4,-2,-3,-2
1558435177842623,1,3,-1,-4,-9,-7,-6,-4
1558435177850600,0,2,1,-1,-2,-9,0,-2
1558435177850600,-2,0,1,3,5,4,6,3
1558435177864591,1,0,2,3,5,7,0,1
1558435177864591,-1,-3,-3,-1,-2,-1,1,-2
1558435177873813,-1,-1,-2,-4,-2,0,-1,0
1558435177873813,-2,-1,0,-1,-4,-7,-3,-1
1558435177887785,-1,0,-2,0,-2,-1,-3,-7
1558435177887785,-2,-3,-3,-1,-1,-2,-4,-1
1558435177895514,-4,-4,-4,-3,-10,-9,-8,-4
1558435177895514,0,1,-1,-5,-7,-7,-6,-5
1558435177902462,-3,-2,-1,-1,3,-2,1,1
1558435177902462,3,1,1,1,7,6,6,5
1558435177910714,2,4,0,1,4,6,1,1
1558435177910714,0,-1,0,1,2,3,-2,0
1558435177924683,-3,-1,-3,-1,-4,-5,-5,-4
1558435177924683,-3,-3,-3,-4,-7,-6,-6,-2
1558435177933652,2,1,-2,-2,-4,-3,0,2
1558435177933652,-2,-3,-3,0,-3,3,-2,-1
1558435177947624,0,2,1,-2,-1,-2,0,1
1558435177947624,2,5,-1,1,4,0,3,0
1558435177955323,2,3,3,3,1,1,5,6
1558435177955323,-3,-5,0,1,3,5,1,-1
1558435177971331,-2,-3,-2,-2,-5,-2,-2,2
1558435177971331,-1,0,0,0,-1,2,1,0
1558435177971331,-4,-2,-2,-2,-4,-9,-8,-5
1558435177971331,-2,-3,-3,-1,1,-1,0,0
1558435177985288,4,1,2,5,3,3,1,0
1558435177985288,-2,-4,-2,-4,-2,-5,-2,-2
1558435177993490,-2,-2,0,-2,1,-4,-1,0
1558435177993490,0,3,0,-1,0,-2,-2,-1
1558435178007237,-2,-3,-1,0,-1,-3,-3,-3
1558435178007237,1,0,-4,-1,-2,3,-1,0
1558435178016358,1,-1,-1,0,1,4,-1,-1
1558435178016358,-4,-5,-4,-3,-4,-8,-5,-4
1558435178030371,-1,-2,-5,-3,-4,0,-3,-5
1558435178030371,-3,-3,0,-1,-2,0,2,7
1558435178031122,2,1,-1,1,3,1,1,-1
1558435178031122,2,5,4,3,2,3,4,5
1558435178045080,-1,-1,-1,-1,1,3,2,-1
1558435178045080,-1,-2,-1,-1,-4,-6,-4,-5
1558435178053333,-3,-2,-4,-2,-7,-1,-2,-2
1558435178053333,0,-1,-1,-3,-3,-7,-4,-2
1558435178067050,-4,-3,-3,-4,1,-3,0,1
1558435178067050,0,0,1,1,2,1,1,-1
1558435178076282,-1,0,0,0,2,-3,0,2
1558435178076282,-3,-10,-1,0,1,-1,0,-2
1558435178090958,1,5,0,-1,-4,-2,-1,-1
1558435178090958,-4,-3,1,-1,1,4,-1,-1
1558435178090958,-1,-2,-1,-1,0,-2,-3,-4
1558435178090958,2,5,-1,-2,-6,-3,-6,-2
1558435178105266,-1,-2,-2,-1,1,0,1,0
1558435178105266,0,-4,1,-1,-1,-1,2,1
1558435178112897,-2,-1,2,0,-2,2,2,1
1558435178112897,0,2,0,0,3,6,4,1
1558435178127990,2,2,1,-1,-5,-5,-6,-3
1558435178127990,-1,-3,-3,0,-1,-3,-1,-2
1558435178136155,-6,-5,-5,-5,-6,-2,-8,-12
1558435178136155,-1,1,-2,-1,4,7,9,5
1558435178151116,-2,-1,1,0,2,-1,-1,1
1558435178151116,-2,0,-1,-3,-2,-3,-4,-4
1558435178151116,0,0,0,-3,-2,-3,-1,2
1558435178151116,-1,0,-1,0,-5,-6,-7,-4
1558435178165086,-2,-2,-4,0,2,1,2,0
1558435178165086,-1,0,1,-2,0,2,0,-1
1558435178172764,-2,-3,-1,-2,0,3,2,-2
1558435178172764,2,4,1,1,1,-3,-2,4
1558435178188055,-3,-5,-4,-1,-3,-1,-2,1
1558435178188055,1,-4,-3,2,1,-4,-3,-3
1558435178195676,0,3,-1,-2,-1,-1,-1,-4
1558435178195676,-10,-12,-3,-2,0,3,3,-1
1558435178210982,-1,-1,-1,-4,-4,0,-2,0
1558435178210982,-1,1,2,-1,0,-3,3,4
1558435178211637,1,1,0,4,3,-3,-2,-3
1558435178211637,-3,1,-3,-5,-5,-4,-2,-3
1558435178225709,-2,-3,0,0,3,3,-1,-3
1558435178225709,-1,-1,1,0,-2,2,0,-6
1558435178233932,-2,0,0,1,4,-3,2,8
1558435178233932,2,3,0,1,3,0,-4,-2
1558435178247883,-2,0,1,-2,-7,-6,-5,-4
1558435178247883,-3,-4,-4,-4,-6,-8,-5,-1
1558435178255861,-1,-3,-1,2,7,11,8,0
1558435178255861,-2,-2,0,-2,-1,-3,0,-1
1558435178270813,4,9,1,-1,3,2,2,2
1558435178270813,-9,-10,-4,-3,-6,-5,-6,-6
1558435178271476,-3,-6,-5,-5,-8,-10,-8,-2
1558435178271476,3,3,2,4,8,5,6,3
1558435178284807,1,-1,-1,-1,3,3,6,5
1558435178284807,3,6,-2,0,-1,-2,-7,2
1558435178293454,-4,-1,-2,0,-2,-1,-7,-7
1558435178293454,-1,-2,-2,-2,-9,-6,-8,-4
1558435178307724,2,-1,-1,0,-1,-4,2,-1
1558435178307724,0,2,1,1,8,7,5,3
1558435178316354,1,1,3,-1,2,6,6,5
1558435178316354,1,-3,-3,-3,-1,-2,-2,-4
1558435178331313,-2,-2,-1,-1,-5,-1,-6,-2
1558435178331313,1,1,-2,-1,-1,-1,-4,-4
1558435178331313,5,5,0,0,2,2,4,0
1558435178331313,-6,-7,-2,0,0,4,0,0
1558435178345277,-3,-3,-2,-3,-5,-4,-1,-1
1558435178345277,0,-1,-2,-2,-2,0,2,2
1558435178353569,1,1,-2,-1,-3,-3,-1,5
1558435178353569,3,3,1,-1,-1,-2,-3,-9
1558435178367569,-5,-7,-5,-2,-2,0,-3,-3
1558435178367569,-1,2,1,1,-6,-6,1,-1
1558435178376443,-3,-3,0,-2,2,-1,-2,-1
1558435178376443,3,1,0,-1,10,13,12,8
1558435178391315,-1,-1,3,1,-1,-7,-6,-1
1558435178391315,-5,-2,-4,-7,-7,-3,-9,-7
1558435178391315,1,-1,-2,1,-5,0,1,-3
1558435178391315,-6,-5,-6,-4,-6,-9,-13,-9
1558435178405121,0,-1,0,-1,4,5,6,4
1558435178405121,1,1,1,2,3,1,4,4
1558435178413419,2,4,0,-2,0,2,1,0
1558435178413419,3,0,1,0,-5,-1,-2,1
1558435178428055,-9,-6,-1,-2,-1,0,-4,-6
1558435178428055,-1,-6,-2,-1,0,1,1,1
1558435178436374,-2,-5,-1,-2,-3,-7,-3,-2
1558435178436374,1,6,0,1,-1,-3,-5,-4
1558435178450341,-1,-1,-1,-3,-4,-5,1,0
1558435178450341,0,-4,-1,-2,-1,-4,-3,0
1558435178450994,0,3,-1,0,3,2,2,1
1558435178450994,-5,-2,1,0,-2,-3,-4,-5
1558435178465296,-1,-1,-1,1,4,2,-2,-3
1558435178465296,-2,3,-2,-3,-3,1,1,-4
1558435178472933,0,-7,0,-1,-3,-1,-1,2
1558435178472933,1,-2,1,-3,1,-2,4,4
1558435178487284,2,4,-1,-2,-5,-4,-2,-3
1558435178487284,-1,-5,-2,1,-2,-5,-3,0
1558435178495874,-6,-10,-5,-2,0,4,-3,-5
1558435178495874,-1,1,1,-1,-1,-1,-3,-5
1558435178511216,1,-1,1,2,0,-3,1,7
1558435178511216,4,2,-1,0,4,1,6,0
1558435178511216,-10,-5,1,-1,0,-1,-2,1
1558435178511216,-4,-3,-3,-4,-6,1,-2,0
1558435178525196,1,0,-4,-3,-7,-3,-6,-5
1558435178525196,-2,1,3,-2,2,-5,6,5
1558435178533931,2,1,3,2,4,6,4,0
1558435178533931,1,0,-2,0,1,3,3,-2
1558435178548139,-5,-5,-4,-3,-8,-5,-6,-1
1558435178548139,-1,-7,-3,-2,-8,-4,-12,-7
1558435178556111,1,1,-1,-1,-1,2,0,-4
1558435178556111,-5,-5,-3,-5,-7,-8,-7,1
1558435178571067,6,8,1,1,5,3,9,-4
1558435178571067,-4,-3,0,0,3,2,3,3
1558435178571671,4,0,-2,-1,-7,-5,-2,3
1558435178571671,2,5,-1,1,2,2,-2,-3
1558435178585440,-1,-1,0,-1,4,4,1,-2
1558435178585440,-7,-9,-2,-2,-3,-2,-6,-2
1558435178593380,1,0,-1,-1,-4,-2,3,-2
1558435178593380,2,-1,-1,0,4,0,9,6
1558435178607344,-1,-1,-2,-1,-1,0,-4,-3
1558435178607344,1,4,-1,-2,-2,1,-2,-5
1558435178616331,-3,-2,-5,-6,-7,-2,-6,0
1558435178616331,-2,-5,3,3,1,-2,-3,-1
1558435178638991,-2,-2,-2,0,3,0,4,1
1558435178638991,-3,-3,-1,-3,-1,-3,-1,-3
1558435178638991,1,2,0,0,5,2,-5,-1
1558435178638991,-1,-4,-1,-2,-2,3,8,3
1558435178644946,-2,-5,-3,-2,0,-1,-2,-1
1558435178644946,-2,0,-2,-1,-2,-1,-4,-4
1558435178652924,4,7,3,-1,-5,-10,-3,-1
1558435178652924,-3,1,-1,1,0,1,-2,-2
1558435178666887,-1,-3,2,2,2,4,1,1
1558435178666887,4,0,0,-1,0,3,6,1
1558435178675863,-5,-6,-4,-2,-2,-4,-5,-3
1558435178675863,4,4,-1,1,-3,-6,-1,5
1558435178689827,-5,-8,-1,1,-1,1,-6,-4
1558435178689827,1,4,-2,-2,0,0,-3,-3
1558435178698981,2,4,-2,1,3,0,3,-2
1558435178698981,-1,-4,0,-3,3,4,3,5
1558435178705294,-4,0,-2,-3,2,-4,-2,-3
1558435178705294,-2,-4,-1,-1,-6,-3,-3,1
1558435178712767,-2,-1,-1,-1,0,0,-1,-3
1558435178712767,1,2,1,0,0,0,1,-3
1558435178728134,-9,-14,-6,-5,-8,-2,-5,-9
1558435178728134,-2,3,-4,-6,-6,-5,-5,-3
1558435178736168,1,0,4,6,9,-2,2,6
1558435178736168,-1,1,0,-4,0,3,5,1
1558435178750107,2,1,1,-1,0,2,0,0
1558435178750107,-1,2,-1,2,3,4,0,-2
1558435178758976,-2,-3,-2,-3,-3,-3,-9,-4
1558435178758976,-2,-3,-2,0,-5,-6,-4,-5
1558435178765087,7,6,3,0,-2,-3,4,7
1558435178765087,0,-3,0,3,10,8,4,0
1558435178773955,-3,1,1,4,-1,1,1,0
1558435178773955,-1,-1,0,1,4,1,-2,-1
1558435178787900,-2,0,-4,-2,-9,-6,-1,0
1558435178787900,-2,-5,2,0,-2,-1,-1,2
1558435178795545,-1,0,-4,-4,-2,0,0,-1
1558435178795545,-1,-4,-2,-2,-4,0,0,-1
1558435178810718,-8,-6,-3,3,6,2,0,0
1558435178810718,5,6,-1,-1,2,-1,1,2
1558435178818486,1,-3,-2,-1,-4,-2,-2,-1
1558435178818486,-5,-1,-2,-2,-6,-8,-4,-7
1558435178833730,3,3,1,2,5,5,-1,3
1558435178833730,-3,-2,-3,0,-4,-2,2,0
1558435178834472,-4,-4,-1,-3,-2,0,-3,-5
1558435178834472,-1,-1,0,0,-1,0,-3,1
1558435178847719,3,0,0,1,4,2,-2,1
1558435178847719,-1,-5,-2,2,0,-2,2,0
1558435178856418,4,4,-1,-6,-7,-4,-2,-3
1558435178856418,-3,-3,-2,0,1,2,-4,1
1558435178870648,-2,-1,0,-1,-3,-4,-4,-2
1558435178870648,1,4,3,3,4,0,2,2
1558435178878322,-1,-2,0,0,1,0,2,1
1558435178878322,-1,-2,-3,-3,-1,-4,-4,-3
1558435178893283,1,2,1,-4,-4,-1,-3,-3
1558435178893283,-2,-4,-1,1,-1,-1,-3,-4
1558435178894293,-4,-2,1,-3,-3,-4,-6,0
1558435178894293,0,-1,0,1,0,-1,2,0
1558435178907245,-3,-2,-1,-5,-2,-2,-1,-2
1558435178907245,0,-2,-2,-2,-3,-1,0,-3
1558435178916274,-1,-3,-2,1,0,4,-1,2
1558435178916274,-2,-3,-4,-2,-3,-2,0,3
1558435178930534,5,5,2,2,1,-3,3,2
1558435178930534,-6,-6,-2,-5,-6,-4,-8,-5
1558435178938163,-1,-3,-2,-2,-3,-1,1,0
1558435178938163,-1,-2,-2,-1,-1,0,3,3
1558435178954473,-2,-2,0,3,3,0,-1,-2
1558435178954473,4,7,2,1,5,1,0,1
1558435178954473,-5,-4,-3,-2,-3,-2,-7,-7
1558435178954473,1,4,-2,-2,-2,4,3,1
1558435178967529,0,-4,-2,-3,-5,-4,-1,-4
1558435178967529,0,1,0,-3,-4,0,-1,-1
1558435178976490,-1,-1,1,4,4,3,0,3
1558435178976490,1,0,0,3,2,-3,0,2
1558435178990483,-2,-3,-3,-4,-4,-1,0,-2
1558435178990483,-1,-1,0,-2,6,8,7,3
1558435178998470,0,0,0,-1,-4,-3,0,-2
1558435178998470,2,7,-1,-4,-4,-5,-10,-6
1558435179014413,-11,-15,-3,0,-3,-4,-2,-1
1558435179014413,-2,-5,-6,-2,-6,-7,-6,-3
1558435179014413,2,0,-1,0,6,6,7,0
1558435179014413,0,-3,-1,-2,0,-2,1,0
1558435179027337,4,6,-1,-2,-2,0,3,5
1558435179027337,-8,-7,-3,-2,-4,-2,-7,-8
1558435179036356,-4,-4,-4,-2,-5,-3,-5,-8
1558435179036356,-2,-2,-2,-1,0,0,-1,1
1558435179050201,3,5,0,0,0,-2,-6,0
1558435179050201,1,-1,2,-1,0,-4,-2,3
1558435179058173,-1,-2,0,0,-2,4,8,0
1558435179058173,-3,-4,0,-1,-2,-2,-2,-6
1558435179073802,-1,1,0,0,3,8,4,-1
1558435179073802,4,4,-1,0,-3,-3,-6,1
1558435179074796,-9,-7,-2,0,1,-2,-3,-1
1558435179074796,-1,-1,1,-2,1,5,5,-2
1558435179088173,0,-1,-4,0,-4,-3,0,1
1558435179088173,1,0,0,1,2,4,9,7
1558435179095741,5,2,2,-2,0,-1,-1,-3
1558435179095741,-14,-10,-4,0,-2,-1,-1,1
1558435179110078,2,1,0,1,-3,-1,-6,-4
1558435179110078,-2,0,-2,-1,-3,1,-2,-2
1558435179118680,-1,-5,-3,-2,-5,-4,-3,1
1558435179118680,4,2,2,-2,-2,-7,-2,1
1558435179133013,-2,0,-4,-1,2,3,-3,-6
1558435179133013,1,2,0,2,3,4,1,1
1558435179141619,1,1,1,0,4,-2,0,-3
1558435179141619,-12,-10,-4,0,-2,-5,-7,-6
1558435179147989,-4,-2,0,-3,-2,-3,-2,-3
1558435179147989,-1,1,0,-3,-5,-1,-2,-1
1558435179156579,-1,0,-2,2,2,1,8,3
1558435179156579,6,4,-2,0,3,2,2,2
1558435179169959,-4,-1,-2,-1,-4,-4,-1,-4
1558435179169959,-2,-4,-2,-2,-4,-1,-4,-2
1558435179178937,0,-1,1,-3,-10,-7,-7,2
1558435179178937,-1,-2,0,1,1,2,-4,-4
1558435179193240,2,2,1,2,4,-1,0,0
1558435179193240,-2,-1,1,1,0,-7,-2,-2
1558435179201872,1,0,-1,-2,0,0,0,0
1558435179201872,-2,0,-2,-5,-9,0,-5,-6
1558435179207226,-1,0,-2,-3,-1,-2,0,0
1558435179207226,4,1,0,1,1,-1,1,3
1558435179215835,-11,-14,-5,-5,-3,-3,-1,-4
1558435179215835,2,-1,0,0,2,3,-3,-6
1558435179229796,-1,-4,1,0,-1,-3,-3,3
1558435179229796,-2,-1,-2,-3,0,1,5,-2
1558435179238782,1,6,2,2,5,3,1,-2
1558435179238782,-1,-3,-2,-3,-6,-5,0,5
1558435179252763,-2,-2,-1,0,-2,-4,0,-1
1558435179252763,-3,-2,0,1,2,2,-1,-2
1558435179261712,-2,5,-1,-2,-7,-9,-9,-3
1558435179261712,2,0,0,1,5,2,6,1
1558435179268067,-5,-7,-3,3,3,-2,3,-1
1558435179268067,-2,-1,-2,-3,-3,-2,-4,-1
1558435179276675,-1,1,2,3,3,8,1,-1
1558435179276675,-3,-2,-2,-2,-6,-6,-9,-2
1558435179290635,2,2,-2,-2,-8,-3,-4,-2
1558435179290635,-1,3,0,0,-3,-2,-2,-5
1558435179298618,-8,-7,-4,-2,-2,-8,-7,-5
1558435179298618,3,-2,0,1,2,4,8,2
1558435179312580,-1,-2,-1,-2,5,5,3,0
1558435179312580,-2,2,1,-2,-2,-3,-7,-5
1558435179321555,3,2,-5,-4,-5,-2,-2,4
1558435179321555,0,3,1,0,1,1,2,1
1558435179327806,-2,-4,-2,-4,-5,-4,-6,-11
1558435179327806,-3,-4,-3,-2,1,0,-6,1
1558435179336512,2,2,0,-2,3,4,9,0
1558435179336512,-3,-4,-1,-3,1,2,-3,-10
1558435179349828,3,2,1,-3,-3,-2,-1,5
1558435179349828,-11,-8,-3,-2,-3,-4,-2,-1
1558435179358740,-2,0,0,1,-4,-3,-4,-1
1558435179358740,2,1,-2,-3,-4,-2,-1,-1
1558435179372416,-8,-6,-2,-4,-2,-2,-5,-5
1558435179372416,3,1,1,2,4,-3,1,-1
1558435179381392,4,0,-1,2,5,3,7,7
1558435179381392,-3,-3,-1,-2,-6,-4,-4,-5
1558435179387379,4,2,-3,0,-3,1,3,1
1558435179387379,3,-5,-1,-1,0,3,4,7
1558435179396353,-4,-4,-2,-2,-1,2,-2,0
1558435179396353,2,3,2,4,0,-4,-11,-1
1558435179409371,1,1,-2,-3,-3,-5,4,-2
1558435179409371,0,3,0,-1,-3,-2,-2,-3
1558435179418628,1,-3,-1,-3,-1,0,4,-2
1558435179418628,-3,0,-1,3,3,4,-1,-3
1558435179432256,1,0,-2,0,1,-1,1,5
1558435179432256,-10,-5,-2,-2,-1,-1,2,-1
1558435179441232,-2,-4,0,-2,-5,-4,-9,-1
1558435179441232,-2,-1,-5,-5,-4,-3,-3,-2
1558435179447215,-12,-9,-2,1,-2,-1,-2,-5
1558435179447215,8,0,1,2,5,2,5,3
1558435179456193,0,0,-1,-1,0,3,-1,-4
1558435179456193,-4,-3,0,-2,-3,-3,-1,0
1558435179470154,3,3,0,-1,-3,-3,-2,0
1558435179470154,-2,0,-3,-2,-4,-1,-3,-3
1558435179479139,2,2,-1,0,6,2,1,2
1558435179479139,1,4,-2,1,1,3,5,3
1558435179492096,-2,-3,-2,-3,-3,-6,-3,2
1558435179492096,-4,-2,-1,-1,-1,-1,-4,-5
1558435179501074,0,-1,0,0,-4,-4,3,-1
1558435179501074,1,2,0,-1,-1,2,-2,-3
1558435179507056,-1,0,-1,-2,-4,0,-4,1
1558435179507056,1,1,0,1,2,4,-1,-2
1558435179516032,7,5,-2,-1,-2,-7,-2,2
1558435179516032,-17,-17,-3,-1,-1,-4,-5,-5
1558435179529994,-2,0,-1,1,0,1,-4,-4
1558435179529994,-1,0,-3,-4,-5,-3,-1,-2
1558435179538971,-1,0,0,-3,2,1,2,-1
1558435179538971,4,2,3,2,1,0,3,4
1558435179551951,1,-1,-3,0,5,3,3,0
1558435179551951,-1,-2,0,-1,-2,0,-2,-1
1558435179560913,-3,-1,1,2,-3,0,-11,-3
1558435179560913,1,2,-1,-1,-2,-10,4,-1
1558435179566897,-2,-1,-2,-3,-3,-1,-4,-4
1558435179566897,1,-1,-4,-1,-3,-2,1,1
1558435179575872,-2,-2,-2,-1,-3,0,-2,-1
1558435179575872,-2,-1,0,-1,0,2,-1,2
1558435179589845,2,4,3,1,4,4,2,-1
1558435179589845,-3,-8,-2,-1,-3,-4,0,-1
1558435179598809,0,2,-2,-3,0,1,-7,-8
1558435179598809,-3,-5,-4,-2,-4,-3,4,-1
1558435179612906,-10,-9,-4,-3,-7,-5,0,2
1558435179612906,-1,1,1,0,0,-1,0,-2
1558435179620752,-1,-4,0,2,6,5,3,5
1558435179620752,3,6,2,2,7,10,4,2
1558435179627733,0,1,0,-2,-5,-3,-6,-7
1558435179627733,-3,-1,-2,-3,-4,1,0,-3
1558435179635898,-2,1,2,3,1,-7,0,0
1558435179635898,2,2,-2,-2,-4,-8,-8,2
1558435179649677,-2,-3,1,0,-2,-2,0,0
1558435179649677,7,10,4,5,3,5,2,2
1558435179658649,-8,-13,-6,-4,-4,-2,-1,-3
1558435179658649,1,-4,-1,0,-5,-5,-4,-8
1558435179672617,-1,-2,-7,0,4,5,3,2
1558435179672617,-2,-2,-2,-1,1,-4,-3,-2
1558435179681592,0,5,-1,-2,-2,-1,0,2
1558435179681592,2,2,1,-1,1,-1,1,5
1558435179687575,0,-4,1,3,4,-1,-2,-2
1558435179687575,-1,-1,-6,-8,-8,-6,-5,-5
1558435179696553,-3,-4,-4,-2,-6,-6,-4,-3
1558435179696553,0,2,0,0,5,3,1,0
1558435179709514,3,3,0,-1,-3,0,-1,-1
1558435179709514,-2,-1,0,1,3,5,2,3
1558435179718491,1,0,1,-2,-2,0,-2,-2
1558435179718491,-2,-3,-5,-1,1,4,4,0
1558435179732454,3,4,-1,-4,-5,1,-3,-2
1558435179732454,-8,-7,-2,1,-9,-17,-5,-3
1558435179741429,2,-1,-2,-3,-1,-5,-2,-3
1558435179741429,0,0,1,1,3,5,-4,-3
1558435179747413,1,4,0,1,4,2,4,6
1558435179747413,-1,-4,-5,-6,-7,0,0,-3
1558435179756389,1,-2,0,2,7,2,9,1
1558435179756389,0,0,0,1,9,5,1,8
1558435179769355,-1,-4,-2,-1,-3,0,-5,-6
1558435179769355,-1,0,-4,-8,-9,-6,-5,-2
1558435179778331,-3,0,0,0,-11,-8,-4,0
1558435179778331,-1,1,-2,-3,-3,0,-1,-5
1558435179792296,-4,-6,-2,-1,0,-4,0,3
1558435179792296,1,-1,0,4,8,5,3,1
1558435179801284,-6,-6,-6,-4,-8,-4,-10,-9
1558435179801284,-1,2,-3,-2,-10,-15,-6,-1
1558435179816237,2,2,1,2,7,6,7,4
1558435179816237,-1,-2,2,2,6,8,3,0
1558435179817227,-2,-3,-5,-1,8,1,2,1
1558435179817227,-3,-4,-5,-5,-8,-4,-7,-6
1558435179830193,1,2,4,4,-1,-9,2,3
1558435179830193,1,2,1,2,7,7,2,0
1558435179839167,-1,1,2,0,-5,1,-2,-6
1558435179839167,0,0,-2,-2,-1,-5,-1,-1
1558435179852133,0,-2,0,1,9,9,6,1
1558435179852133,0,-1,-2,-3,-6,-9,-5,-2
1558435179861114,-6,-3,0,-2,-4,-9,-7,0
1558435179861114,1,-2,1,2,1,3,6,3
1558435179876069,0,-1,-1,0,3,1,5,-1
1558435179876069,1,2,0,2,3,5,2,-1
1558435179878064,1,0,-5,-3,-4,-3,0,-1
1558435179878064,-5,-3,-2,-5,-7,-7,-8,-7
1558435179890034,-2,-1,-2,-3,-6,-4,-7,-4
1558435179890034,0,-4,-3,-3,-3,-3,-2,-1
1558435179899008,-1,-1,0,-1,0,3,-4,-2
1558435179899008,-2,-2,-2,0,-3,-2,-1,0
1558435179911975,0,1,0,3,4,1,3,0
1558435179911975,-1,0,3,2,-4,-6,-5,0
1558435179920949,0,0,0,-1,2,5,5,0
1558435179920949,0,-1,-2,0,4,8,4,0
1558435179935908,0,2,2,-3,-6,-5,-5,-4
1558435179935908,1,5,5,5,-1,-4,1,1
1558435179937904,-1,-4,-2,-2,5,3,4,3
1558435179937904,-2,-5,-1,-1,-3,-4,-4,-1
1558435179949872,-1,-5,-4,-4,-5,0,-3,0
1558435179949872,-2,1,-4,-4,-3,-3,-3,-3
1558435179958849,-2,-3,-3,1,-5,-2,-1,0
1558435179958849,0,2,-1,0,0,-2,0,1
1558435179972810,-4,-2,-2,-2,-4,-5,-5,-6
1558435179972810,1,-1,1,-1,0,-1,0,-4
1558435179980789,0,-1,0,0,1,-1,-1,0
1558435179980789,0,3,3,4,2,4,4,3
1558435179995756,-2,-6,-6,-5,-3,-3,-2,0
1558435179995756,-1,-3,-3,-3,0,0,-1,0
1558435179997744,2,2,-1,1,-3,1,-1,-2
1558435179997744,-9,-8,0,-4,-5,-1,-5,-5
1558435180009715,-1,2,0,2,0,1,1,3
1558435180009715,-2,0,2,1,3,0,1,1
1558435180018688,-2,-3,-2,-1,3,3,3,0
1558435180018688,5,1,0,-3,-3,-4,-2,-2
1558435180032655,0,-1,0,-2,0,-1,0,-1
1558435180032655,-5,-3,-2,-3,-5,-2,0,-5
1558435180041625,0,1,-2,-1,0,-2,-1,3
1558435180041625,3,3,-4,-1,0,3,1,-1
1558435180056586,-3,2,3,-1,-2,-3,-5,-6
1558435180056586,2,1,0,2,0,0,-1,1
1558435180057586,1,6,8,3,1,1,1,2
1558435180057586,-2,-6,-9,-4,-2,-3,0,-3
1558435180069552,2,-2,0,1,0,0,0,2
1558435180069552,-1,0,-4,0,2,2,3,3
1558435180079533,-2,-1,0,-1,-1,-2,-3,-5
1558435180079533,-2,-1,3,0,-1,-2,-1,-1
1558435180092497,-1,2,-2,-2,-2,-1,-1,-1
1558435180092497,-3,-3,0,-1,1,-1,-2,0
1558435180101466,2,0,0,-2,-3,-2,-1,0
1558435180101466,-2,1,1,2,-4,-4,-2,-1
1558435180123408,-1,-2,1,-1,2,2,1,2
1558435180123408,-2,-5,-6,-3,-3,-2,-1,-1
1558435180125401,2,3,3,2,1,1,1,-1
1558435180125401,1,-5,-5,-2,-1,-2,-2,-4
1558435180129392,-3,-4,-5,-3,-2,-4,-2,-4
1558435180129392,-1,0,-2,1,0,-1,0,0
1558435180146347,-6,-8,-10,-4,-5,-5,-3,-1
1558435180146347,0,-1,-3,-2,-1,0,-2,0
1558435180152330,-1,2,2,1,0,2,-1,1
1558435180152330,0,-3,-4,-4,-2,-3,-4,-1
1558435180161309,0,1,1,-1,2,1,2,-1
1558435180161309,-1,1,1,2,3,0,0,1
1558435180175269,-1,-3,-2,-1,-2,-2,-2,-3
1558435180175269,-4,-4,-1,-1,0,1,1,-5
1558435180182253,3,2,1,2,0,2,1,1
1558435180182253,1,4,0,-4,-2,0,-1,-1
1558435180190228,0,0,2,1,0,0,0,0
1558435180190228,-1,-5,-1,4,2,-2,2,1
1558435180198210,-4,-4,-8,-3,-5,-1,0,-3
1558435180198210,-1,1,3,0,-1,-3,1,-2
1558435180212178,-2,-5,-8,4,6,0,-4,-4
1558435180212178,-1,-1,-1,-5,-1,0,-1,1
1558435180221146,-3,0,-1,-5,0,-2,-3,-1
1558435180221146,-3,-6,-3,-1,-3,0,0,-2
1558435180235111,0,1,2,-2,-5,-2,0,4
1558435180235111,-3,-3,-2,1,0,-3,-4,-5
1558435180244086,0,-1,1,1,-4,-4,-3,-3
1558435180244086,2,0,1,-1,-1,-1,-2,1
1558435180250069,1,3,6,3,2,0,0,0
1558435180250069,2,-1,-3,-3,-2,0,0,0
1558435180259046,-8,-6,-2,-2,-4,-4,-3,-3
1558435180259046,1,5,3,1,0,0,-1,1
1558435180272011,2,3,1,0,4,4,3,0
1558435180272011,-8,-4,-1,0,-1,-2,-5,-3
1558435180280989,2,3,1,0,-3,-1,-2,-2
1558435180280989,-3,-8,-7,-2,0,-1,-3,0
1558435180294951,-1,-5,-10,-5,-6,-3,-3,-3
1558435180294951,4,6,2,0,-5,-2,2,-1
1558435180303930,-2,-6,-5,-5,2,-2,-2,-1
1558435180303930,-6,-9,-3,-1,2,-1,1,-1
1558435180309909,-4,-4,-2,-3,-2,-3,-3,-2
1558435180309909,1,4,1,-3,-1,0,0,-1
1558435180318884,1,1,0,1,2,2,-2,1
1558435180318884,-2,-5,-2,-2,0,0,-1,0
1558435180331850,-2,3,1,0,-2,-1,0,-4
1558435180331850,1,6,9,4,-1,0,0,-1
1558435180340828,2,7,5,3,3,2,2,0
1558435180340828,1,3,0,1,1,-1,1,0
1558435180354790,-1,-3,-1,-4,-4,0,-3,-1
1558435180354790,-10,-10,-10,-4,-4,-6,-2,-3
1558435180363764,0,2,-3,-1,-3,0,-2,1
1558435180363764,-5,-1,2,1,0,-2,1,-1
1558435180369750,2,-2,0,2,1,-2,-3,-2
1558435180369750,7,3,3,2,2,1,2,3
1558435180378729,-1,0,5,1,-1,-2,0,0
1558435180378729,1,1,-2,1,-2,0,0,-4
1558435180392688,-4,-3,-2,-4,-5,-3,-1,-2
1558435180392688,-3,-7,-4,-9,-1,-1,-4,-2
1558435180401663,0,0,1,6,-3,-4,-1,-1
1558435180401663,2,5,2,-4,-4,-2,-1,2
1558435180414630,-4,-6,-6,-5,6,3,-1,0
1558435180414630,-1,-4,-4,-1,-3,-1,-2,-2
1558435180423608,0,2,-1,1,5,2,0,-2
1558435180423608,1,-3,3,-1,-3,0,-1,-1
1558435180429594,-3,-7,-7,0,-5,-4,-1,-2
1558435180429594,-2,1,0,-1,0,-1,1,-2
1558435180438569,0,-1,0,-2,-1,1,-3,-2
1558435180438569,1,3,-1,-1,1,-1,-1,-1
1558435180452528,1,3,-2,0,0,-1,0,-1
1558435180452528,0,2,-1,0,1,2,0,-1
1558435180461504,3,-3,-6,-4,-4,-3,-3,-1
1558435180461504,-1,-2,-2,-3,-2,-2,1,-3
1558435180474473,-7,-9,-4,-1,-3,-1,0,-1
1558435180474473,1,6,-1,1,0,-1,-2,0
1558435180483444,-4,-11,-13,-8,-1,-2,-2,-3
1558435180483444,4,3,-2,0,2,0,-2,2
1558435180489432,3,8,6,-1,-4,1,1,1
1558435180489432,-3,-2,0,-1,-4,-2,0,1
1558435180498406,-2,2,7,5,0,-3,-5,-3
1558435180498406,-2,-1,1,-2,-1,0,1,-2
1558435180512368,2,10,8,5,3,0,-2,2
1558435180512368,-2,-7,-4,-2,-2,-1,-3,-1
1558435180521343,-4,-3,-2,-2,-3,-1,-2,-1
1558435180521343,0,0,-3,-1,-2,-1,-1,-3
1558435180534309,1,-1,5,-1,-3,-1,-2,-2
1558435180534309,1,4,3,5,3,-1,-1,-3
1558435180544282,-3,-9,-8,-4,-3,-1,2,2
1558435180544282,-1,-3,-2,-1,-2,-1,-3,-4
1558435180550270,3,-3,-10,-3,-1,0,0,-1
1558435180550270,-10,-11,3,-1,-1,-1,1,-1
1558435180558245,-1,3,6,5,4,0,1,-2
1558435180558245,-5,-8,-5,1,0,1,-1,2
1558435180572210,2,0,-1,-6,-2,-2,-1,-1
1558435180572210,-4,-1,2,-1,-3,-1,-1,1
1558435180581183,-2,-3,-8,-5,-3,-1,0,0
1558435180581183,-1,-2,-1,-1,0,0,0,-1
1558435180595150,1,4,6,4,2,0,0,0
1558435180595150,2,1,-4,0,-2,-2,-3,-1
1558435180604122,-1,-3,0,-4,-1,0,0,-1
1558435180604122,0,-2,-9,-6,-5,-5,-3,-3
1558435180610134,0,0,3,1,-3,-3,0,1
1558435180610134,1,1,-2,-4,0,-1,0,-1
1558435180619088,-3,-3,-9,-1,-2,-3,-3,-5
1558435180619088,-1,1,4,4,3,-2,-4,-3
1558435180632058,-6,-10,-5,-4,-5,0,-2,-1
1558435180632058,0,1,5,2,5,2,-1,1
1558435180641029,2,0,-3,8,2,0,0,1
1558435180641029,-1,-1,2,-3,-4,-2,-1,1
1558435180654985,-2,-7,-14,-6,2,0,0,-1
1558435180654985,-1,-1,-9,-2,-2,1,1,-3
1558435180663962,-2,-6,-3,-6,-3,-2,-3,0
1558435180663962,-1,0,2,4,-1,2,3,1
1558435180669946,-4,-4,0,0,-2,-3,-2,-4
1558435180669946,7,1,0,-2,-3,-4,-3,0
1558435180678923,-4,-4,-6,-4,-3,-1,0,-2
1558435180678923,0,0,-1,0,0,-1,-1,-1
1558435180691905,1,-1,3,-1,-2,-3,-1,1
1558435180691905,3,2,-4,-1,-2,-1,-2,-2
1558435180700891,0,1,4,0,1,2,1,-1
1558435180700891,-3,0,-5,-1,0,-1,-1,0
