timestamp,emg1,emg2,emg3,emg4,emg5,emg6,emg7,emg8
1558435216454525,4,6,2,4,7,2,2,3
1558435216454525,-10,-11,0,7,11,12,11,2
1558435216455522,-2,-3,-1,-2,1,-1,-3,-2
1558435216455522,-3,-1,3,1,-3,0,1,-1
1558435216456519,0,0,-4,-3,-7,-11,-6,-2
1558435216456519,3,6,0,0,-1,-4,-5,0
1558435216459512,5,6,2,2,4,3,7,4
1558435216459512,-16,-13,-7,-4,-2,0,-7,-8
1558435216466494,-2,-2,-3,-4,-3,-1,-2,-2
1558435216466494,-4,-6,-3,-3,-6,-4,-6,-7
1558435216474472,-1,0,-2,0,-3,2,4,0
1558435216474472,8,8,3,3,4,-3,-4,1
1558435216481452,-2,-2,2,0,1,4,2,0
1558435216481452,2,4,6,0,3,3,-2,1
1558435216496413,-3,-5,-15,-6,-6,-5,-7,-2
1558435216496413,-1,-4,-3,1,-3,-4,5,4
1558435216505389,1,0,-1,-1,-2,0,-4,-5
1558435216505389,2,4,6,1,-1,-2,-3,-2
1558435216511374,0,-1,1,0,2,2,-4,-3
1558435216511374,1,1,-2,-6,0,1,8,-2
1558435216527331,-4,-4,-4,-2,-2,-6,-5,-2
1558435216527331,6,10,3,-2,-4,-3,-1,0
1558435216534311,-1,-5,-9,-4,-5,-8,-10,-4
1558435216534311,-13,-12,-2,1,-1,2,-2,-4
1558435216574205,0,-2,1,2,1,2,0,0
1558435216574205,0,4,4,0,3,-3,-2,-1
1558435216575202,2,6,3,0,-1,4,3,-3
1558435216575202,-3,-7,-2,0,-6,-4,-6,-2
1558435216576199,2,-1,3,-3,-4,-8,6,0
1558435216576199,-1,-3,-5,2,5,4,-1,3
1558435216578195,2,6,1,0,3,0,0,0
1558435216578195,-3,2,1,0,0,3,0,-1
1558435216587170,-7,-8,-14,-9,-11,-9,-6,-6
1558435216587170,2,-3,1,-2,-6,-1,3,-2
1558435216593154,-3,-1,0,1,-3,1,-7,-4
1558435216593154,7,8,19,11,7,4,1,4
1558435216601134,0,4,11,6,12,9,0,1
1558435216601134,-1,-5,-24,-12,-7,-8,-4,-2
1558435216616092,1,-3,-5,0,-4,0,4,-1
1558435216616092,4,8,18,8,0,-7,-11,2
1558435216624073,-7,-13,-26,-14,-2,2,-2,-7
1558435216624073,-2,-2,-8,-3,1,4,1,-2
1558435216631054,-10,-11,-11,-6,-2,-9,-3,-1
1558435216631054,-1,1,7,-1,0,2,9,0
1558435216647010,2,6,21,11,-2,-2,0,5
1558435216647010,-2,-4,-13,-6,-4,-5,-9,-6
1558435216653991,-1,0,-2,-4,0,-2,-4,-3
1558435216653991,-2,-2,-8,-3,2,3,3,-1
1558435216660973,-3,-3,-2,1,-1,6,4,-1
1558435216660973,0,1,7,4,-4,-2,1,-1
1558435216675933,4,3,10,7,7,1,-3,2
1558435216675933,-1,-5,-15,-10,-11,-13,-7,-5
1558435216683912,0,-1,-2,-1,1,0,-3,3
1558435216683912,2,6,13,8,11,10,6,4
1558435216690893,-2,-1,0,0,0,-1,1,0
1558435216690893,-2,-5,-13,-4,-3,3,0,-3
1558435216706851,-4,-3,-5,-2,-3,-1,-2,-4
1558435216706851,-5,-5,8,-2,-13,-9,-2,0
1558435216713832,8,5,3,0,-1,-3,5,5
1558435216713832,-15,-12,-12,-2,1,-1,-6,-8
1558435216720812,-1,5,3,5,6,3,-1,0
1558435216720812,3,4,-3,1,5,1,6,1
1558435216735772,-3,-5,-4,-8,-14,-6,-7,-2
1558435216735772,4,-1,-5,-5,-4,-10,-5,-2
1558435216743752,-10,-11,0,-2,-4,-3,0,-1
1558435216743752,-2,-1,8,10,3,4,-2,0
1558435216750733,-5,-6,-13,-9,2,1,-2,-2
1558435216750733,5,6,0,-1,-3,0,2,2
1558435216766690,3,4,-5,-7,-2,0,-5,-2
1558435216766690,-5,-11,-5,-6,-8,-3,-5,-4
1558435216773671,1,2,5,5,4,7,8,4
1558435216773671,1,0,2,3,5,-1,-3,1
1558435216780654,3,0,-1,-3,-5,-8,-3,0
1558435216780654,0,2,-1,1,-3,-5,-5,-5
1558435216795614,-12,-8,-8,-2,-3,-4,-2,-2
1558435216795614,-1,-6,-9,-4,2,1,6,0
1558435216804588,1,-3,-7,-3,-6,-7,-2,1
1558435216804588,2,0,3,-4,1,2,-2,-2
1558435216811571,5,5,7,4,0,3,-2,-2
1558435216811571,-2,1,3,-1,3,4,3,1
1558435216826529,-2,-5,-2,5,4,-2,1,2
1558435216826529,-3,-2,0,1,3,3,1,-2
1558435216833511,-1,-3,-2,-5,-5,-4,-3,-2
1558435216833511,1,6,1,1,-4,-2,-3,-3
1558435216841491,4,3,0,0,3,5,4,1
1558435216841491,-2,-1,0,-2,-3,-5,-5,-3
1558435216856449,3,3,6,2,3,3,0,2
1558435216856449,2,-8,-2,-5,-4,-1,1,0
1558435216864429,-2,-3,-9,-1,2,0,-5,-1
1558435216864429,6,4,-1,0,1,-1,1,1
1558435216878392,-6,-4,-6,-2,-5,-7,-5,-2
1558435216878392,-3,-1,0,-1,-4,-1,-5,-3
1558435216886370,1,2,2,0,-5,-2,0,0
1558435216886370,-1,2,3,3,9,5,6,5
1558435216893351,1,-2,-1,-1,1,2,2,-1
1558435216893351,2,3,-3,-2,-2,-3,0,-3
1558435216901330,-3,-5,-2,-3,-5,-5,-8,-2
1558435216901330,1,1,0,-3,-7,-4,1,1
1558435216916298,-7,-9,-5,-3,0,0,1,-3
1558435216916298,-5,-3,-3,-3,0,0,-3,-3
1558435216924273,1,3,11,4,3,1,1,3
1558435216924273,-3,-3,-8,-4,-3,-3,-8,-6
1558435216938232,0,0,1,0,-3,-1,4,3
1558435216938232,2,0,1,1,2,2,6,5
1558435216947206,0,4,-16,-4,-1,-3,-7,-8
1558435216947206,3,-1,9,7,-2,0,-1,-4
1558435216953191,-10,-5,-4,-3,-2,1,-5,-3
1558435216953191,-2,-6,1,-2,-1,2,-1,0
1558435216961171,1,5,7,3,0,0,0,1
1558435216961171,-6,-6,-3,-4,0,2,2,-1
1558435216976130,4,4,-1,0,-3,-7,-5,-2
1558435216976130,0,1,4,3,3,1,1,1
1558435216984108,-3,-3,-1,-6,-5,-5,2,-1
1558435216984108,-5,-3,-5,-3,-1,2,-8,-3
1558435216998071,1,1,6,0,1,2,-3,-6
1558435216998071,-1,-2,-4,-1,-1,-2,-3,1
1558435217007047,1,0,6,5,-1,4,5,-3
1558435217007047,-3,-2,-6,-4,-5,-7,0,2
1558435217014028,-1,1,1,-1,2,2,-1,-1
1558435217014028,-2,-3,-14,-6,-7,-5,-3,-1
1558435217021009,0,1,6,0,1,1,2,-2
1558435217021009,0,3,-2,1,-2,-3,-3,-2
1558435217035969,-1,-6,-1,2,2,-2,-3,-1
1558435217035969,4,0,-2,0,-1,-1,4,-1
1558435217043948,-1,-3,-3,-1,-1,1,0,1
1558435217043948,-10,-9,-2,-3,-1,-2,-2,2
1558435217058909,4,6,0,-1,-4,-3,-1,-2
1558435217058909,-2,1,4,3,0,-1,0,-1
1558435217066888,-2,-9,-8,-4,0,-2,-4,-1
1558435217066888,2,2,7,1,3,2,5,1
1558435217073869,0,3,-10,-5,-4,-3,-3,-2
1558435217073869,-6,-9,-1,-1,-2,0,-6,-3
1558435217080850,-4,-3,-4,-3,-5,-2,3,0
1558435217080850,-2,1,-1,-1,1,0,2,-1
1558435217095809,0,0,4,2,2,-1,-7,1
1558435217095809,2,4,3,0,3,2,4,1
1558435217103789,1,1,-7,-3,-2,-4,-3,0
1558435217103789,-3,-7,1,1,-2,-3,-4,1
1558435217118749,0,-2,-4,1,0,2,3,-2
1558435217118749,-1,-3,-8,-5,-2,0,0,-1
1558435217134706,3,2,2,0,1,-5,6,6
1558435217134706,1,2,3,3,0,4,-7,0
1558435217136701,0,0,-1,-1,1,-1,-3,-2
1558435217136701,-2,-2,1,-3,-2,-2,-6,-4
1558435217149667,1,3,0,-3,-2,0,0,-1
1558435217149667,-5,-5,-10,-6,-2,-2,4,2
1558435217155650,-1,-4,-1,1,-2,1,-2,3
1558435217155650,-4,-6,1,0,0,-3,-4,-3
1558435217164626,-3,-1,-2,-1,1,0,-5,-5
1558435217164626,3,6,19,6,1,0,1,1
1558435217178588,-2,-3,-20,-9,-2,1,1,0
1558435217178588,-2,-1,3,-1,-3,-2,-1,0
1558435217187564,-3,-5,-4,-3,1,2,-3,0
1558435217187564,1,1,-2,3,-1,-2,-2,-3
1558435217193548,6,3,6,2,2,0,4,4
1558435217193548,-8,-2,-1,1,2,1,3,-2
1558435217209506,1,2,10,6,-1,-3,-6,-2
1558435217209506,-7,-11,-18,-11,-10,-6,-2,-2
1558435217216487,3,2,10,3,-3,0,0,-1
1558435217216487,1,1,10,5,10,7,11,3
1558435217231446,1,4,8,4,-4,-4,-10,-8
1558435217231446,1,-3,-20,-9,-4,-4,-7,-5
1558435217238428,-1,2,0,-2,-1,-5,-1,1
1558435217238428,-4,-8,-2,-3,-3,1,2,-1
1558435217247404,1,2,17,8,8,10,-2,1
1558435217247404,4,7,3,1,1,-3,6,1
1558435217253393,-5,-10,-13,-10,-4,-5,-8,-5
1558435217253393,3,8,7,2,4,2,11,5
1558435217270347,-8,-9,-9,-9,-13,-11,-16,-7
1558435217270347,-5,-8,-2,-5,-12,-11,-3,-4
1558435217276329,1,4,7,6,7,2,2,2
1558435217276329,5,5,-1,1,-1,-1,-1,-3
1558435217291289,-5,2,-2,0,3,4,6,2
1558435217291289,-2,-1,-2,-4,6,5,-5,-3
1558435217298270,-4,-3,10,6,-3,1,-3,-1
1558435217298270,0,-4,-18,-10,-11,-7,-5,1
1558435217307244,2,4,4,2,-5,-5,2,-1
1558435217307244,5,2,4,5,4,5,0,-1
1558435217313229,0,1,-9,-5,4,0,5,3
1558435217313229,-6,-4,-2,-2,-3,-2,-9,-5
1558435217330183,0,-1,-3,-2,-2,0,2,0
1558435217330183,-3,-2,0,-2,-3,-4,-3,-1
1558435217336166,2,4,7,3,-4,-1,2,-2
1558435217336166,1,3,-2,-2,1,-3,-3,-2
1558435217352125,-3,-11,-6,-4,-1,-3,-2,2
1558435217352125,-1,0,3,0,5,6,0,-1
1558435217358109,-3,-5,-8,-6,-6,-4,-2,-3
1558435217358109,-3,0,1,2,-2,-5,-8,-6
1558435217383042,1,-1,-2,-3,3,4,2,1
1558435217383042,1,3,0,2,1,-2,3,5
1558435217384039,-10,-6,-1,0,-2,0,-3,-6
1558435217384039,-4,-7,-4,-6,-7,-6,-5,0
1558435217398001,2,1,2,3,9,5,4,1
1558435217398001,3,3,1,0,-4,1,1,2
1558435217399000,5,3,-4,-2,-2,-2,-2,-2
1558435217399000,-2,0,3,1,1,1,-4,-2
1558435217411964,-2,-5,-4,-3,1,-2,-3,-3
1558435217411964,1,2,-5,-4,-1,-2,-1,2
1558435217418951,0,2,6,1,0,1,-4,-2
1558435217418951,0,-8,-6,-3,-4,-2,-1,0
1558435217427922,-1,3,4,2,-2,3,4,1
1558435217427922,-1,-1,-9,-3,3,-1,0,2
1558435217433910,-1,-1,-7,-4,-5,-7,-7,-6
1558435217433910,1,4,3,0,1,1,8,2
1558435217449870,-4,-11,-5,3,5,0,0,-3
1558435217449870,4,4,3,0,-3,-3,4,1
1558435217455852,-9,-6,3,4,5,7,2,0
1558435217455852,2,3,3,0,-1,-2,-5,1
1558435217464823,-1,2,-2,-7,-6,-4,0,-3
1558435217464823,-1,-6,-6,-4,-4,-3,-4,0
1558435217478791,6,2,-4,-3,-4,-7,7,4
1558435217478791,-12,-6,5,1,-1,0,-14,-10
1558435217487767,1,2,3,2,-2,-2,2,-2
1558435217487767,-4,-3,0,1,4,3,-1,-2
1558435217493780,0,1,4,2,-1,1,2,0
1558435217493780,-1,2,1,1,2,2,1,2
1558435217509721,-2,-3,-15,-7,-4,-5,-5,1
1558435217509721,-2,-4,-5,0,-2,0,3,-4
1558435217515771,1,-2,2,-4,-1,-1,8,3
1558435217515771,6,4,0,2,4,2,-1,-3
1558435217524664,2,5,11,7,4,1,-3,1
1558435217524664,-7,-9,-15,-12,-8,-7,-2,-7
1558435217538690,-1,-2,-4,-1,-3,-3,-4,2
1558435217538690,2,-6,-4,-2,1,2,13,4
1558435217547603,-2,-1,2,0,-3,0,-6,-4
1558435217547603,1,4,3,1,-4,-1,-4,-2
1558435217561565,-1,-4,1,1,1,-1,-2,-4
1558435217561565,-3,-1,-5,-4,2,1,0,-1
1558435217569544,1,0,-3,-3,-4,-4,-2,1
1558435217569544,2,2,8,4,-1,-5,0,0
1558435217583508,3,4,-6,-4,0,3,2,4
1558435217583508,-1,1,3,7,13,10,-3,2
1558435217592483,-2,-2,-8,-3,-4,-6,-1,-4
1558435217592483,-6,-4,1,-4,-5,-1,-3,-1
1558435217598466,-1,-1,1,-3,-11,-15,1,-1
1558435217598466,4,2,2,1,1,6,0,0
1558435217607441,-5,-4,-2,-5,-5,-10,6,1
1558435217607441,2,-1,-2,-1,2,3,-7,-3
1558435217621622,0,-2,4,3,11,11,9,7
1558435217621622,-1,-1,-2,-7,-13,-16,-6,-2
1558435217630383,3,11,4,3,5,11,3,4
1558435217630383,4,2,12,12,17,9,10,3
1558435217643562,-3,-3,-7,-2,3,7,-2,-2
1558435217643562,2,-6,-7,-6,-8,-14,-10,-6
1558435217652518,1,-5,-4,-5,-12,-8,-4,-6
1558435217652518,-8,-7,-8,-5,-8,-7,-4,-3
1558435217658305,-2,-2,-2,-1,1,3,-3,-3
1558435217658305,2,5,4,5,2,2,4,2
1558435217667428,3,2,-5,-4,0,1,0,0
1558435217667428,-1,-2,-1,-5,0,1,2,-2
1558435217681305,-5,-2,4,2,-3,-7,-8,-3
1558435217681305,0,-1,-9,-7,-8,0,1,2
1558435217690227,-3,-3,4,3,4,3,-4,-2
1558435217690227,2,4,2,3,9,6,2,3
1558435217703239,-8,-15,-9,-5,-5,-2,-4,-4
1558435217703239,-2,0,4,1,-1,-1,3,-2
1558435217712382,-4,-6,-7,-5,-6,-3,3,1
1558435217712382,-1,-3,1,0,-3,-2,-13,-6
1558435217719145,4,1,-1,0,-4,-7,-2,-1
1558435217719145,-2,-1,3,6,7,10,6,2
1558435217727335,-3,-6,-1,-1,4,1,-2,1
1558435217727335,1,6,2,2,-2,-1,6,2
1558435217741087,-4,-3,-7,-5,-3,1,-3,-4
1558435217741087,3,3,-3,-1,1,-1,0,0
1558435217750066,-5,-3,3,4,6,3,11,4
1558435217750066,-2,-2,2,-2,-4,-4,-3,-1
1558435217765199,-6,-4,-5,-3,-5,-4,-3,-4
1558435217765199,-4,-5,-8,-9,-14,-11,-12,-9
1558435217766021,3,2,-2,2,-2,-1,-5,0
1558435217766021,2,2,0,2,11,11,13,4
1558435217778990,1,1,3,1,0,-2,-10,-6
1558435217778990,0,3,0,-2,1,-1,-2,3
1558435217787960,-8,-12,-8,-6,-5,3,-4,-6
1558435217787960,-3,-3,-2,-2,-6,-9,-7,-5
1558435217801921,0,3,2,0,2,0,7,4
1558435217801921,-2,-3,-1,3,2,-3,-4,1
1558435217809902,3,4,-4,-3,-7,-5,-4,-3
1558435217809902,2,3,4,3,-1,-3,-1,4
1558435217823865,1,3,2,1,1,-1,-4,-4
1558435217823865,-4,-8,-5,-4,-3,-3,-4,-2
1558435217830843,-2,-1,-2,-3,-2,-3,5,2
1558435217830843,-3,-7,-6,-3,0,2,-3,-3
1558435217838838,4,9,7,4,2,-3,-1,2
1558435217838838,3,4,5,5,4,4,9,4
1558435217847799,3,4,1,3,5,4,-3,0
1558435217847799,1,-3,-1,-2,-5,-1,-1,-1
1558435217861865,-12,-10,-8,-4,-3,-3,-3,-1
1558435217861865,0,1,-2,-5,-3,-2,3,-2
1558435217869920,0,-1,0,-4,-3,-6,-11,-2
1558435217869920,0,3,-1,-1,-1,1,4,-6
1558435217883913,-6,-10,-3,0,1,2,-1,-1
1558435217883913,-1,-1,-5,-2,-2,-3,-4,-6
1558435217892680,-2,-1,-1,0,1,0,-2,0
1558435217892680,-2,-4,-2,-3,-4,-2,2,4
1558435217898925,3,2,-2,-1,-2,-1,0,-2
1558435217898925,-7,-4,-5,-4,-2,-1,1,-4
1558435217907640,0,-3,-5,1,0,-4,-3,2
1558435217907640,1,2,-2,-3,0,-3,3,0
1558435217921803,3,-3,0,0,0,6,1,-1
1558435217921803,0,0,3,2,-1,-1,-3,-1
1558435217930583,-9,-10,-4,-2,-1,-2,-5,-8
1558435217930583,-2,-1,-2,1,-3,-2,-3,-2
1558435217943549,1,2,0,-2,-3,-3,-1,-2
1558435217943549,3,0,-1,0,1,2,-3,0
1558435217952543,3,6,3,-2,-2,1,2,-1
1558435217952543,-3,-6,-2,0,-3,-5,-7,-4
1558435217958508,3,5,2,2,4,2,0,-2
1558435217958508,3,2,2,2,3,5,6,5
1558435217967545,1,3,2,0,1,2,0,-1
1558435217967545,-5,-11,-13,-9,-2,0,-1,3
1558435217981673,-3,-5,-4,-4,-8,-10,-3,-3
1558435217981673,0,-1,-1,0,1,-3,-6,0
1558435217990419,2,4,6,0,-3,-2,1,0
1558435217990419,-2,0,3,1,0,-2,-7,-5
1558435218003392,0,-1,-2,2,3,0,0,1
1558435218003392,-11,-10,-5,-6,-7,-3,-2,-5
1558435218012361,-2,-2,-1,-1,3,3,4,2
1558435218012361,2,4,2,1,-4,-5,-3,1
1558435218018343,0,-1,-4,-5,-2,-4,-5,-2
1558435218018343,-1,-3,-2,-3,-9,-6,-7,-3
1558435218027318,1,1,-2,3,14,9,9,1
1558435218027318,-3,-3,-2,-2,-1,-1,-4,-2
1558435218041281,0,2,3,4,3,2,1,1
1558435218041281,-2,0,-2,-5,-11,-9,-7,-3
1558435218050257,-1,-3,-5,-5,-9,-9,-5,-1
1558435218050257,-9,-4,-1,0,5,6,3,3
1558435218063344,2,3,3,4,11,13,12,2
1558435218063344,-1,-2,1,2,2,3,2,-1
1558435218072298,1,0,0,0,-3,-3,-7,-3
1558435218072298,5,3,1,-1,-4,-6,-3,-1
1558435218079180,-1,-4,-2,-5,-9,-6,0,-1
1558435218079180,-5,-5,-2,-2,-2,-3,-4,-4
1558435218087279,-1,1,-1,-1,-2,-5,-5,-5
1558435218087279,2,1,1,-2,2,0,2,4
1558435218101365,0,-1,-4,-2,-4,1,0,1
1558435218101365,6,4,-2,1,5,-7,1,2
1558435218110099,-12,-11,1,3,6,8,4,0
1558435218110099,0,-1,1,0,-6,-1,-2,-6
1558435218123062,-2,0,1,-2,-6,-9,-7,-3
1558435218123062,1,3,1,4,6,8,6,5
1558435218133041,2,-2,-3,-3,0,6,3,2
1558435218133041,-3,1,2,0,0,-1,0,-2
1558435218139220,-1,-2,-2,-3,-2,-2,-4,-4
1558435218139220,-2,-1,-2,-4,-5,-6,-7,-4
1558435218147997,0,-2,-1,-2,-3,-5,-1,-1
1558435218147997,0,2,-1,-1,-1,0,-1,-3
1558435218161959,-2,-2,-2,-1,-2,-3,-1,-1
1558435218161959,-2,-3,-3,-1,2,2,1,4
1558435218170011,-1,-1,2,-1,-4,-3,-4,-4
1558435218170011,2,0,-3,0,0,-2,-2,-2
1558435218183903,6,3,0,1,1,0,-3,1
1558435218183903,-1,-1,-2,0,1,-1,0,0
1558435218192883,1,3,1,-1,-2,1,4,-1
1558435218192883,-7,-8,-6,-2,0,-1,0,-2
1558435218199047,0,0,1,0,1,-1,-6,-2
1558435218199047,0,0,1,2,1,-2,-2,-3
1558435218207837,4,1,-2,-3,-2,0,-6,0
1558435218207837,-10,-8,1,-1,-1,-1,0,0
1558435218221799,-4,-4,-1,-1,-5,-1,1,0
1558435218221799,-3,-2,-1,-2,-1,-4,-3,-3
1558435218229984,-1,4,-1,3,0,-3,-3,2
1558435218229984,5,3,0,0,1,0,3,2
1558435218243740,-4,-8,-3,-3,0,-1,-6,-4
1558435218243740,-1,-1,0,-1,-1,4,5,2
1558435218252723,2,2,1,1,1,-1,6,3
1558435218252723,-2,1,-1,1,0,5,7,0
1558435218258706,0,-1,1,2,9,6,11,5
1558435218258706,-2,-4,-3,-3,-2,0,-13,-7
1558435218267678,-1,-4,-3,-4,-6,-4,-10,-7
1558435218267678,2,2,0,2,-3,-7,-3,-1
1558435218280839,0,0,-4,-8,-4,-1,-6,-3
1558435218280839,-10,-6,-3,-1,-6,-4,2,-2
1558435218289721,0,4,1,0,-3,-8,5,3
1558435218289721,1,-2,0,0,0,5,1,-2
1558435218303800,-3,3,-1,0,-4,-5,-1,2
1558435218303800,0,-1,1,1,11,12,8,3
1558435218312557,-3,-4,-5,-6,-8,0,-7,-3
1558435218312557,-1,-1,-4,-4,-5,-9,-9,-6
1558435218327730,0,2,0,0,4,1,8,5
1558435218327730,5,4,2,2,-1,-4,1,1
1558435218328517,-4,-3,-2,-2,-1,0,-1,0
1558435218328517,2,-3,-2,-4,-8,-7,-10,-4
1558435218341481,1,2,4,2,-1,0,-3,-2
1558435218341481,-2,-2,-4,0,-1,1,7,3
1558435218350454,-4,-7,-1,-1,0,-3,-1,-5
1558435218350454,-1,-2,-1,-1,2,1,-4,-3
1558435218363448,0,-1,2,2,1,3,-1,-2
1558435218363448,2,2,-1,-6,-1,1,-2,-1
1558435218372396,1,0,0,1,1,2,2,2
1558435218372396,-6,-1,-5,-4,-1,0,-3,-2
1558435218387355,-3,-2,-2,0,-1,-1,0,-1
1558435218387355,0,-1,-1,-2,-3,-6,-5,0
1558435218389349,-2,-3,0,2,-2,-5,-6,-2
1558435218389349,1,0,-2,3,3,2,3,-2
1558435218401353,0,-3,-3,-7,-5,-2,-3,2
1558435218401353,0,4,-5,-5,-7,-5,-7,-5
1558435218410293,-14,-13,-5,-4,-5,-8,1,-1
1558435218410293,1,1,3,5,3,6,1,1
1558435218423258,-1,-2,-3,0,-2,-1,-4,-3
1558435218423258,2,0,0,-1,-2,0,-2,-3
1558435218432234,-1,4,2,5,5,5,4,-1
1558435218432234,-1,-3,-2,-9,3,4,4,1
1558435218447254,0,0,-3,1,-3,-5,-7,-3
1558435218447254,0,-1,-1,0,-2,-5,-2,-3
1558435218449251,1,3,1,0,-1,-3,-1,-2
1558435218449251,-3,1,2,0,-1,-2,1,0
1558435218461216,-3,-4,-3,-2,2,5,3,1
1558435218461216,-2,-2,1,0,0,2,3,1
1558435218470133,-2,-3,-2,-3,-5,-3,-5,-4
1558435218470133,4,5,4,3,-3,-3,3,1
1558435218484098,-4,1,-3,-3,-5,-7,-6,-5
1558435218484098,0,-4,-1,0,1,1,0,1
1558435218492085,-1,-5,-4,-2,0,1,1,-1
1558435218492085,0,1,0,0,-2,-1,-3,1
1558435218507037,3,1,1,2,0,0,1,1
1558435218507037,-2,3,1,-1,-2,-1,2,-3
1558435218509034,0,0,-2,-3,-6,-5,-7,-2
1558435218509034,-3,-6,-5,-4,-7,-7,-6,-1
1558435218521062,-3,-1,-1,3,5,5,3,-3
1558435218521062,3,1,-1,1,4,1,2,3
1558435218529975,9,5,0,-3,0,2,2,1
1558435218529975,-14,-7,-3,-1,-4,-6,-7,-5
1558435218544022,-2,0,-3,-3,-9,-9,-6,-6
1558435218544022,-3,-6,-1,0,1,0,0,-1
1558435218552913,-1,-2,-3,1,5,6,5,3
1558435218552913,3,0,-1,0,-1,-1,1,3
1558435218567882,3,1,2,3,6,7,10,7
1558435218567882,-2,0,0,3,3,2,0,1
1558435218568870,-3,-1,-1,-2,-3,-4,-5,-2
1558435218568870,-1,0,-2,-3,-4,-3,-4,-4
1558435218580950,-6,-5,-2,-5,-8,-4,-6,-6
1558435218580950,-2,-2,-5,-7,-13,-10,-11,-6
1558435218589815,-1,-2,-2,3,4,3,11,2
1558435218589815,6,4,3,4,13,9,8,4
1558435218604000,-3,-1,1,0,6,1,1,1
1558435218604000,-2,-1,-1,-1,-3,-1,-6,-2
1558435218612760,-2,0,-1,-2,0,-2,-6,-3
1558435218612760,1,1,-3,-1,-4,-3,-3,-1
1558435218627717,2,1,3,1,1,-1,3,2
1558435218627717,-2,-1,-2,-3,-2,-4,-2,-2
1558435218628711,-3,1,1,-3,-4,0,-3,1
1558435218628711,6,-1,-1,-2,0,0,-2,-2
1558435218640681,-11,-9,-7,-3,-5,-3,-1,-4
1558435218640681,0,-2,-1,-3,-7,-7,-9,-3
1558435218649657,0,2,-1,1,2,4,6,-1
1558435218649657,-1,3,2,0,4,5,3,2
1558435218663642,1,-1,-2,-1,-3,-2,0,-2
1558435218663642,-1,0,-1,2,1,1,-1,0
1558435218672592,0,-1,1,-1,-4,-3,-5,-6
1558435218672592,2,1,-1,-2,-8,-7,-2,2
1558435218688003,-14,-12,-8,-1,2,-1,-2,-6
1558435218688003,0,0,0,0,4,3,6,4
1558435218689711,3,3,-1,1,5,4,1,-1
1558435218689711,-3,-3,-2,-1,-2,0,-1,-1
1558435218701982,2,3,1,-1,-7,-3,-6,-3
1558435218701982,3,-1,0,0,-1,0,4,0
1558435218709509,1,0,-2,-2,-3,-2,-5,-1
1558435218709509,-4,-6,-1,-3,-4,-5,-3,-4
1558435218723458,1,-1,-2,-3,-6,-7,-8,-1
1558435218723458,0,1,-1,1,2,3,6,0
1558435218732479,6,4,1,1,5,3,8,5
1558435218732479,-2,0,0,3,2,4,6,3
1558435218747394,1,4,1,1,4,3,-2,0
1558435218747394,-1,-5,-4,-2,-3,-2,-4,-4
1558435218749721,-5,-4,-2,-2,-3,-6,-5,-5
1558435218749721,-2,-3,-6,-2,-1,0,-1,-4
1558435218761687,0,-1,0,-3,-6,-3,-5,-4
1558435218761687,3,4,0,-3,-6,-9,-1,2
1558435218770332,-9,-5,-2,-2,-1,4,1,-4
1558435218770332,-2,-3,2,2,2,1,-2,-1
1558435218784461,1,-2,0,-2,-3,1,-2,-2
1558435218784461,-6,-3,-2,0,-8,-7,-10,-4
1558435218792497,2,1,-2,-4,-3,-7,-3,1
1558435218792497,1,4,4,5,2,7,10,4
1558435218807404,1,1,-3,1,5,-1,-2,0
1558435218807404,1,2,1,2,4,4,9,4
1558435218808402,10,4,4,3,5,3,3,0
1558435218808402,-19,-13,-6,-6,-8,-12,-14,-9
1558435218821707,5,1,-4,-3,-4,-6,3,7
1558435218821707,-5,-3,-1,0,0,0,-2,-4
1558435218830343,-2,-2,-3,-3,-9,-4,-8,-4
1558435218830343,2,-3,-3,-1,1,2,-2,-3
1558435218843310,1,-1,1,-2,-3,-3,-2,-2
1558435218843310,-3,-4,-1,-2,-3,-2,-4,-2
1558435218852612,-3,-2,-2,-1,-1,-3,-1,2
1558435218852612,1,4,1,-2,0,-1,1,-2
1558435218867560,-3,-1,0,1,1,-2,1,0
1558435218867560,-1,-1,0,-3,2,2,-2,-2
1558435218869538,-1,-1,0,1,1,1,3,4
1558435218869538,2,1,-2,-4,-3,1,-2,2
1558435218881498,6,7,4,3,8,6,8,4
1558435218881498,1,-4,-2,0,1,2,-1,-3
1558435218890185,-8,-10,-5,-1,-4,-1,-3,-1
1558435218890185,2,1,-4,-3,-4,-5,-3,-2
1558435218904399,1,-2,-1,-2,-7,-6,-5,-3
1558435218904399,-1,4,1,1,3,4,0,-2
1558435218920107,-2,-4,-1,0,1,0,2,1
1558435218920107,0,2,-1,3,6,1,2,3
1558435218928113,-3,-1,-4,-1,0,-2,0,-1
1558435218928113,0,0,-3,-2,-2,1,0,0
1558435218929080,0,-3,-6,-4,-7,-4,-6,-2
1558435218929080,-2,-3,1,1,-3,-3,-5,-2
1558435218941046,3,3,-2,-2,-2,-2,2,2
1558435218941046,-4,-3,-4,1,0,-3,-1,-1
1558435218950025,-3,-4,-1,0,0,2,-1,-6
1558435218950025,-1,0,0,0,1,1,2,0
1558435218964247,-1,-2,0,0,0,1,-1,1
1558435218964247,0,1,1,-4,0,0,0,-1
1558435218972966,-4,1,0,-3,-4,-6,-2,-3
1558435218972966,0,-1,-2,-4,-6,-8,-4,-3
1558435218988198,-3,-3,0,1,3,-1,3,0
1558435218988198,-2,-2,0,1,7,14,8,5
1558435218988923,1,6,1,-2,-1,-3,-2,0
1558435218988923,3,-5,0,0,1,-2,-3,-1
1558435219000900,-7,-7,-3,-2,-2,0,-1,-3
1558435219000900,-7,-4,-1,-4,-8,-8,-5,-3
1558435219010067,-1,1,-2,-1,-2,3,-2,-2
1558435219010067,2,7,3,4,4,2,3,3
1558435219023825,-1,-1,1,-1,-3,-2,0,-1
1558435219023825,0,-5,-7,-4,-6,-8,-9,-2
1558435219032807,-3,-2,-3,-3,-4,-4,1,1
1558435219032807,1,2,2,0,0,-2,-4,-3
1558435219046763,3,0,0,0,7,8,1,0
1558435219046763,-3,-3,1,2,1,0,-1,1
1558435219054017,1,0,0,-3,-3,-9,-1,-3
1558435219054017,-3,-4,-4,-2,-5,-1,1,0
1558435219060731,0,0,-2,-3,1,1,-1,-1
1558435219060731,1,0,-1,-3,-5,-4,-5,-4
1558435219069702,-1,-2,0,-2,-1,0,0,0
1558435219069702,-1,-1,-1,-1,0,-2,0,0
1558435219084008,-2,-1,-1,2,1,-1,-2,-3
1558435219084008,3,0,-2,-2,-1,2,3,2
1558435219092495,4,3,0,-2,-3,-5,-5,-1
1558435219092495,-10,-10,-4,-3,-7,1,-1,-4
1558435219107054,1,3,2,2,2,-1,-5,-2
1558435219107054,-5,-7,-1,3,2,-4,0,1
1558435219114118,4,0,0,3,5,7,1,-1
1558435219114118,-2,1,-2,-3,-4,-5,-2,2
1558435219121380,-4,-2,-4,-6,-11,-4,-6,-5
1558435219121380,0,2,2,2,7,5,4,1
1558435219129993,-5,-8,-2,0,0,-5,-1,0
1558435219129993,1,-2,-4,-2,0,1,-2,-1
1558435219144284,-1,-4,0,-1,-4,-2,-1,-2
1558435219144284,0,4,0,-1,-2,-1,-3,-3
1558435219152233,-2,0,-2,-2,-2,1,1,-3
1558435219152233,1,1,-1,0,1,-1,0,0
1558435219167145,-1,-4,-2,-3,-6,-8,-3,1
1558435219167145,-1,-3,-3,-2,-1,-1,0,-2
1558435219173876,-1,-3,3,4,7,6,1,2
1558435219173876,3,3,3,0,5,4,5,0
1558435219180860,-2,2,0,-1,-1,0,-1,-3
1558435219180860,-2,3,-2,-3,-7,-6,-1,-2
1558435219189834,-1,1,-4,-3,-8,-7,-10,-8
1558435219189834,-3,-5,0,2,1,-2,-2,1
1558435219204048,2,-2,-2,2,5,6,5,3
1558435219204048,1,0,0,0,4,5,-1,-2
1558435219212775,1,0,-2,-1,0,0,0,1
1558435219212775,-1,-1,-4,-5,-8,-5,-7,-6
1558435219226992,-2,-2,0,-3,-6,-12,-6,0
1558435219226992,4,2,1,0,3,0,3,2
1558435219233956,-9,-7,0,0,2,2,1,-1
1558435219233956,0,3,-1,0,1,4,2,-1
1558435219249676,-5,-7,-2,0,-3,1,0,-5
1558435219249676,-1,-3,-4,-2,-6,-8,-5,0
1558435219251668,-1,-4,-1,1,2,2,2,1
1558435219251668,1,-1,0,-1,0,0,0,-1
1558435219263842,1,6,-1,-1,-4,-1,-3,-2
1558435219263842,-1,-1,1,-2,-6,-6,-1,1
1558435219287575,2,-1,0,-2,-4,-5,-3,-3
1558435219287575,2,6,0,4,8,2,5,3
1558435219288571,-3,-1,-2,-1,1,7,0,0
1558435219288571,-3,-7,-4,-2,-4,-2,-5,-3
1558435219293891,-2,-2,0,-2,-5,-4,-2,2
1558435219293891,0,0,0,-3,-3,-2,-3,-1
1558435219310622,0,0,2,-1,-2,-4,-6,-2
1558435219310622,-2,0,0,-1,-2,2,4,2
1558435219311510,2,0,-4,-1,2,1,-1,1
1558435219311510,4,0,-2,0,3,-3,1,-1
1558435219323476,-8,-6,-2,2,3,4,2,-1
1558435219323476,0,1,-2,-1,-1,0,-4,-2
1558435219332600,0,-1,-1,0,-2,-1,-3,-1
1558435219332600,-3,-3,0,-3,-5,-1,-3,-1
1558435219347415,0,-3,-4,-6,-10,-7,-2,-4
1558435219347415,0,0,-3,-2,-9,-9,-7,-6
1558435219353739,0,5,5,3,9,5,11,6
1558435219353739,-1,-8,-2,1,6,7,6,4
1558435219370597,-1,-1,-1,0,1,0,-1,-5
1558435219370597,-2,-5,-4,-4,-2,-3,-3,-2
1558435219371351,0,0,-4,-4,-11,-8,-10,-5
1558435219371351,-3,-2,-2,-3,-4,-3,-5,-4
1558435219383370,0,1,1,0,1,2,0,0
1558435219383370,1,2,2,3,6,4,5,3
1558435219392571,-2,-1,-1,-1,3,1,3,1
1558435219392571,1,4,0,-1,-5,-3,1,0
1558435219406337,0,-4,-2,3,7,5,2,-1
1558435219406337,-4,-3,-1,-2,0,3,-3,-3
1558435219413519,0,1,-1,0,-1,-1,-2,-3
1558435219413519,-2,-4,-2,-4,-7,-5,-5,-4
1558435219430246,-4,2,-2,-2,-5,-2,-1,-1
1558435219430246,0,1,4,1,9,1,2,2
1558435219431237,-2,-4,-2,-5,-6,-3,-3,-2
1558435219431237,-2,-1,-2,0,-1,0,0,0
1558435219443154,6,3,-1,1,-2,-3,0,5
1558435219443154,-6,-7,-4,2,-1,2,2,-2
1558435219452130,-2,-3,1,0,4,3,-2,-3
1558435219452130,-4,1,-3,-1,-5,-7,-7,-5
1558435219467092,2,2,3,-2,-7,-7,-4,0
1558435219467092,-1,0,-2,-3,-3,-2,-2,1
1558435219473075,2,4,0,1,2,2,3,0
1558435219473075,0,-2,0,1,4,5,5,-1
1558435219490045,-3,-10,-4,-2,4,1,0,1
1558435219490045,-1,4,0,-1,-3,-6,-4,-2
1558435219491028,-4,-8,-4,-6,-7,-6,-5,-5
1558435219491028,2,3,-2,-1,-3,-4,-3,0
1558435219504506,0,1,-1,2,6,7,6,3
1558435219504506,-1,1,-1,0,1,2,0,-3
1558435219512467,-2,1,0,2,-3,-2,-2,-1
1558435219512467,-3,-4,-2,-4,-5,-5,-5,-1
1558435219527260,4,2,-1,-3,-1,-4,0,-2
1558435219527260,-14,-12,-3,-1,-2,1,-2,-4
1558435219534247,0,1,-2,-1,0,4,3,-2
1558435219534247,-3,-3,-2,-3,-4,-6,-6,0
1558435219550181,-1,-1,-3,-2,-3,-12,-5,-3
1558435219550181,5,3,3,1,3,5,5,4
1558435219550869,-3,-1,0,0,5,4,2,0
1558435219550869,-2,-2,-2,-1,-2,-1,-2,-2
1558435219564139,0,1,-3,-2,-6,-3,-7,-1
1558435219564139,1,0,1,1,1,3,4,-1
1558435219572812,-3,-5,-4,-1,-4,-6,-4,0
1558435219572812,-2,-1,-3,-2,-2,1,2,-1
1558435219587105,-4,-2,-1,-3,-2,-2,-3,-1
1558435219587105,2,1,0,-2,-3,-3,-4,-2
1558435219594069,3,3,1,2,4,2,3,3
1558435219594069,-1,1,0,-1,4,2,-1,-2
1558435219610029,-2,1,-1,0,-1,0,0,1
1558435219610029,-3,-7,0,-2,-1,-2,-1,-1
1558435219611706,-3,3,-1,-1,-4,-3,-4,0
1558435219611706,-1,0,-2,0,-7,-1,-2,-5
1558435219623674,-2,-4,-1,0,2,1,1,0
1558435219623674,3,5,2,0,5,0,2,4
1558435219632650,1,0,2,1,1,-2,1,1
1558435219632650,-1,-2,-3,0,3,3,-2,1
1558435219646916,1,3,-1,-2,1,-1,4,-4
1558435219646916,1,-1,-3,-3,-7,-4,-5,-1
1558435219653899,-6,-7,-2,-3,-6,-3,-1,-1
1558435219653899,1,3,1,1,1,0,0,-3
1558435219670675,0,-1,-1,-2,3,6,2,2
1558435219670675,-1,-5,-3,-1,-2,-4,-3,-4
1558435219671547,-2,-2,-1,-2,-5,-1,1,-1
1558435219671547,-1,-3,1,-2,-1,-1,-1,-3
1558435219683512,0,0,-1,0,0,-5,-3,2
1558435219683512,2,3,-1,0,2,0,1,-1
1558435219692489,-2,-5,-3,0,-1,0,-4,-2
1558435219692489,-1,0,1,2,0,5,2,0
1558435219706455,0,1,2,-1,-3,-2,-3,-1
1558435219706455,-3,-6,-2,-2,-6,-5,-3,-1
1558435219713433,1,0,-3,-2,1,-3,-2,-1
1558435219713433,1,3,1,2,6,2,2,1
1558435219730644,-2,-2,0,0,1,2,-1,1
1558435219730644,-2,-1,-2,-2,-8,-2,-4,-4
1558435219731385,2,4,1,-3,-6,-3,-5,-3
1558435219731385,1,-1,-3,-2,-4,-12,-2,0
1558435219743750,-6,-8,-1,1,7,9,7,1
1558435219743750,1,3,-2,1,2,4,1,0
1558435219752775,-9,-11,-2,-3,-3,-3,-3,-5
1558435219752775,0,-2,-4,-5,-5,-1,-4,-2
1558435219766738,0,2,-1,0,-3,-4,-1,-1
1558435219766738,2,2,0,3,1,0,-1,0
1558435219781875,0,-1,-6,-1,2,3,1,1
1558435219781875,-2,-4,0,-1,-1,2,0,0
1558435219789677,0,-1,-2,-1,-3,-4,-6,-1
1558435219789677,-4,-2,-1,3,6,6,3,0
1558435219791670,1,1,-2,-2,-3,-5,-2,-1
1558435219791670,-4,-7,-2,-2,-2,-3,1,-1
1558435219803898,-2,-2,-1,-4,-3,0,-2,-4
1558435219803898,-1,4,0,-5,-8,-8,-5,-3
1558435219812618,-1,-3,0,0,0,-7,-3,-1
1558435219812618,-2,-4,0,1,6,7,2,2
1558435219826696,-1,2,1,1,4,6,3,-1
1558435219826696,0,1,-1,-3,-4,-5,-1,-3
1558435219833880,-1,2,-2,-2,1,3,2,1
1558435219833880,-2,-1,0,-2,-4,-5,-5,-2
1558435219850653,-1,-4,-2,-1,-1,-2,-2,0
1558435219850653,-3,-2,0,0,1,1,-1,-1
1558435219851598,-1,-1,-2,1,-6,-4,-3,-1
1558435219851598,1,0,-2,1,0,-2,0,3
1558435219863566,-4,-2,-2,-1,2,3,0,-2
1558435219863566,-2,-2,-2,-1,0,-1,-1,-1
1558435219872541,-1,0,1,-1,1,0,2,-3
1558435219872541,-3,-2,-2,-4,-5,-3,-5,-4
1558435219886505,2,1,-3,-1,-6,-3,-2,-3
1558435219886505,2,2,1,-1,-1,-1,0,1
1558435219893511,-5,-9,-1,1,9,8,4,3
1558435219893511,1,3,2,2,4,3,4,2
1558435219909440,0,-1,-4,-5,-9,-11,-7,-4
1558435219909440,-2,-3,-1,-3,-5,-5,-7,-4
1558435219911434,1,1,-1,1,-1,2,0,-3
1558435219911434,-4,-2,0,0,3,5,4,2
1558435219923404,-3,1,-3,-2,-5,-14,-6,-1
1558435219923404,-1,-5,1,1,1,1,3,2
1558435219932553,-2,-2,-3,2,-3,0,-3,-3
1558435219932553,-2,-1,-3,-1,-1,-1,-3,-3
1558435219946794,0,-1,1,1,4,0,-3,-1
1558435219946794,-1,0,-1,-2,-2,0,-2,-1
1558435219954477,0,1,1,-5,-1,-2,1,0
1558435219954477,-2,-1,-1,-2,-3,-1,-5,-3
1558435219970635,0,-1,-2,-3,-6,-3,-4,-1
1558435219970635,2,0,1,-1,-4,-7,-4,-2
1558435219971277,-1,1,0,-1,0,-4,3,2
1558435219971277,4,3,1,0,7,7,8,1
1558435219984284,-6,-7,0,1,3,4,3,0
1558435219984284,-3,-6,-3,-1,0,1,-2,0
1558435219992651,3,1,-2,-1,-2,3,-2,-3
1558435219992651,1,2,-2,-1,-6,-9,-4,-4
1558435220006614,0,0,0,-1,-1,-1,0,-4
1558435220006614,-1,0,-4,-3,-6,-6,-3,-1
1558435220013932,1,-3,1,-1,-4,-5,-8,-1
1558435220013932,-2,-4,-2,-1,3,3,-1,-1
1558435220029640,-2,-3,0,2,4,4,4,1
1558435220029640,-3,-3,-3,-1,5,2,3,1
1558435220036741,-2,1,0,-3,-1,-2,-6,-4
1558435220036741,-3,0,0,0,-3,-4,-2,0
1558435220043700,1,-1,-1,-1,-2,2,0,-2
1558435220043700,1,-3,-3,2,-1,1,0,-2
1558435220052524,-4,-3,-2,-2,-6,-5,-2,-4
1558435220052524,-1,-1,-1,-2,-8,-10,-6,-3
1558435220067040,-2,-3,-7,-4,1,2,6,3
1558435220067040,0,0,0,3,11,9,3,2
1558435220073760,1,1,1,2,4,4,3,-2
1558435220073760,2,1,-2,-3,-7,-8,-6,-2
1558435220088753,-8,-9,-3,-1,-7,-7,-7,-3
1558435220088753,0,-2,0,-1,-1,1,-1,-1
1558435220095699,1,0,-3,-4,-3,-2,-1,-4
1558435220095699,-1,0,-1,-2,-1,0,1,-2
1558435220103678,3,4,0,0,-2,0,-2,0
1558435220103678,-8,-5,-3,-4,-9,-7,-4,-3
1558435220112655,1,0,2,6,6,3,6,5
1558435220112655,-2,-2,2,4,6,5,1,2
1558435220127011,3,2,1,-1,2,0,-1,-1
1558435220127011,1,-2,0,1,2,4,1,0
1558435220135051,0,-1,-5,-4,-6,-6,-5,-3
1558435220135051,-4,-5,-3,-2,-5,-5,0,-1
1558435220149990,0,3,2,1,-1,-1,-4,-3
1558435220149990,-1,1,-3,-2,-3,-1,-1,1
1558435220155986,-2,-1,1,1,3,1,4,4
1558435220155986,0,-2,0,0,-2,-5,-4,1
1558435220172862,0,-1,-2,-2,-3,-4,-1,-2
1558435220172862,0,1,-1,-3,0,3,3,-1
1558435220173491,-2,-5,-2,-3,-6,-2,-4,-1
1558435220173491,-1,0,-1,2,9,7,3,2
1558435220186667,-1,-1,-1,-2,-5,-9,-2,0
1558435220186667,4,5,3,1,1,-3,-3,-1
1558435220194728,2,4,0,1,4,9,2,-2
1558435220194728,-4,-9,-3,-3,-5,-5,-4,-2
1558435220209615,-1,2,-3,0,1,0,2,3
1558435220209615,-3,-5,-2,-2,-4,-3,-2,-2
1558435220216614,1,5,2,-2,-2,-5,-2,-2
1558435220216614,-3,0,-2,-1,-4,-6,-2,-4
1558435220232336,0,-1,0,-1,2,5,-1,-1
1558435220232336,1,1,1,-2,-2,-1,0,0
1558435220234329,-1,-4,-3,0,3,6,6,5
1558435220234329,2,2,0,0,4,3,2,2
1558435220246539,-1,-4,0,0,-1,2,0,0
1558435220246539,-4,-1,-1,0,1,-5,-1,-1
1558435220255274,-4,-7,-3,-3,-6,-3,-4,-4
1558435220255274,-1,0,-2,-3,-2,0,1,-3
1558435220269460,0,-1,-1,-1,-2,-1,-1,-2
1558435220269460,-5,-6,-2,-6,-6,-5,-6,-4
1558435220276431,0,2,1,2,4,-6,0,0
1558435220276431,0,0,0,1,3,4,-1,3
1558435220292173,-1,1,0,-1,-1,-1,1,-1
1558435220292173,2,-1,-3,-1,3,5,2,4
1558435220294170,-3,-4,-1,-1,-2,-2,-2,-2
1558435220294170,-3,-2,0,-3,-4,-2,-3,-3
1558435220306137,-1,-2,-1,-3,-8,-4,-5,-4
1558435220306137,-2,-1,-2,-2,-4,-9,-5,-3
1558435220315112,3,0,-1,1,3,-4,0,5
1558435220315112,3,5,0,2,4,2,2,-1
1558435220329417,-6,-12,-3,-1,0,0,-4,-4
1558435220329417,-1,-2,-2,0,-4,1,2,-2
1558435220336415,-2,-1,-1,0,0,1,-1,0
1558435220336415,1,0,-2,-1,-2,-1,1,0
1558435220353108,4,4,2,0,1,-1,-2,0
1558435220353108,-4,-2,-1,-3,-6,-4,-3,-2
1558435220354008,-3,-4,-3,-3,-7,-3,-3,-5
1558435220354008,-3,-4,0,-1,0,-3,-2,-1
1558435220366343,4,2,-1,3,7,-1,5,5
1558435220366343,3,-1,0,2,6,3,1,1
1558435220374955,1,1,0,0,0,4,-2,0
1558435220374955,-3,-2,-1,-3,-4,-2,0,-2
1558435220389242,-3,-2,-2,-3,-5,-8,-4,-6
1558435220389242,0,2,0,-1,-5,-8,-4,-1
1558435220395896,-2,-4,-4,-2,0,2,1,-1
1558435220395896,-1,1,1,1,2,3,4,5
1558435220413087,-1,-1,2,1,3,6,5,2
1558435220413087,-1,2,-2,1,3,4,5,1
1558435220413852,-1,-2,-2,-3,-2,1,-5,-7
1558435220413852,-1,-1,-2,0,0,-1,-1,1
1558435220426141,-1,1,0,0,-2,-1,-5,-2
1558435220426141,-3,-3,-1,-1,-3,-6,-2,-1
1558435220434931,3,1,0,-3,-4,-10,-4,0
1558435220434931,-6,-4,-2,-2,-2,0,-1,-5
1558435220457731,-4,1,1,-2,-5,-2,-1,0
1558435220457731,1,-2,-4,-1,2,3,-1,-2
1558435220458728,-1,1,1,0,-2,-3,-1,0
1558435220458728,-1,1,-1,-3,-4,-4,-5,-3
1558435220472810,-3,-10,-5,-3,0,3,1,-1
1558435220472810,-2,0,1,1,1,0,0,0
1558435220473687,0,1,1,0,1,2,1,2
1558435220473687,1,0,0,1,0,2,3,2
1558435220485663,0,1,-1,-1,2,3,-1,-1
1558435220485663,-2,-1,0,-2,-1,0,-2,-2
1558435220494632,0,1,0,1,-5,-8,1,3
1558435220494632,3,1,-2,-1,-3,2,-2,-1
1558435220509591,-6,-4,-6,-1,-1,-1,-1,-3
1558435220509591,0,-3,-1,-2,0,4,2,-2
1558435220515574,-5,-5,-2,-4,-5,-6,-7,-6
1558435220515574,-2,0,-2,0,3,1,1,1
1558435220532531,3,2,1,3,3,-4,-3,1
1558435220532531,2,-1,-1,-1,1,0,-1,0
1558435220533535,-3,-3,1,3,2,6,5,0
1558435220533535,0,-3,0,-1,-5,-6,-2,0
1558435220545497,0,2,0,-2,-2,1,1,1
1558435220545497,-1,0,-1,-1,-4,-4,0,-1
1558435220554518,0,-4,-4,-3,2,2,1,-1
1558435220554518,0,-2,-3,0,0,3,0,-1
1558435220569783,-2,-1,-2,-1,-1,-3,-3,-4
1558435220569783,-5,-3,-3,-1,-3,-1,-5,-3
1558435220576779,-2,0,0,-2,1,-1,4,2
1558435220576779,2,1,-1,-2,0,-2,-3,-4
1558435220592814,-1,2,1,-2,-3,-1,1,2
1558435220592814,1,1,0,-1,-2,-1,-1,-1
1558435220593369,-1,-4,-3,-2,-2,-1,-6,-3
1558435220593369,-5,-6,-5,-3,-4,-6,-6,-2
1558435220606334,3,3,2,0,1,3,2,0
1558435220606334,0,2,0,-1,0,-6,-2,0
1558435220615310,-2,-4,-1,-2,1,1,-1,2
1558435220615310,-2,-1,-1,-1,3,2,2,-4
1558435220629654,-1,-3,-3,0,0,1,0,-1
1558435220629654,-2,-1,-3,0,-3,-5,-3,-2
1558435220636633,-5,0,-4,-4,-3,0,-4,-2
1558435220636633,0,-5,-1,-2,-4,-3,-3,-1
1558435220660189,-3,0,1,0,0,2,6,0
1558435220660189,-3,0,-1,0,-2,-1,-3,-3
1558435220661186,-1,4,1,1,0,0,1,-2
1558435220661186,1,-1,0,0,4,0,2,2
1558435220666533,-2,-2,-1,-1,1,2,-5,-1
1558435220666533,2,-1,1,2,2,3,5,4
1558435220675148,-1,-2,-1,0,-7,-4,-2,-2
1558435220675148,-1,0,-2,-3,-4,-1,-3,-2
1558435220689465,-2,-3,-1,-2,-5,-7,-5,-6
1558435220689465,4,2,-1,-1,3,-1,-1,0
1558435220696095,-6,-7,-1,2,1,-1,2,2
1558435220696095,-2,0,-2,0,-5,-2,-1,-2
1558435220712390,4,1,2,-1,2,2,0,1
1558435220712390,-1,-2,0,0,0,4,2,0
1558435220714047,0,-1,0,-3,-5,-5,-5,-4
1558435220714047,0,1,1,-2,-1,-3,-2,2
1558435220726369,-2,-2,-3,-2,-2,-3,-4,0
1558435220726369,-2,-1,-1,0,0,0,0,-2
1558435220734989,3,0,-3,-2,3,3,-1,-5
1558435220734989,-4,-3,0,1,-5,-1,3,2
1558435220750151,1,3,-2,1,3,-3,-1,-2
1558435220750151,-3,-2,0,-1,-2,-3,-5,-1
1558435220756366,-2,1,0,-2,-4,-2,-3,-1
1558435220756366,-1,-2,-2,-1,0,3,-3,-3
1558435220773062,-2,-1,-1,2,-2,-7,1,2
1558435220773062,1,-2,0,0,3,2,8,4
1558435220773885,-5,-4,-1,-2,-3,-3,-4,-7
1558435220773885,2,2,-3,-4,-5,-3,-1,-3
1558435220786972,1,-4,-1,0,-2,0,-4,-2
1558435220786972,-6,-9,-2,-2,-3,-2,-1,-3
1558435220795088,0,0,-2,2,3,2,2,2
1558435220795088,-3,-1,1,1,1,0,-2,-2
1558435220810187,2,3,1,-2,-1,0,0,-2
1558435220810187,3,0,-2,-1,0,0,-1,-1
1558435220816203,-1,-1,-3,-2,-1,-2,-1,0
1558435220816203,0,0,0,-1,-3,-1,0,1
1558435220833089,-5,-2,-1,-3,-2,0,2,-3
1558435220833089,-2,-2,-1,-1,-2,-3,-7,0
1558435220834722,1,1,0,-2,-2,-4,5,1
1558435220834722,0,-1,-1,0,1,4,4,-1
1558435220845872,-2,-5,-4,-3,-5,0,-2,-4
1558435220845872,-2,0,0,0,-1,-3,-3,-3
1558435220855020,0,1,-1,2,6,5,2,1
1558435220855020,-2,-5,-3,-4,-4,-5,-5,-2
1558435220869972,-2,0,0,-1,-6,-8,-2,1
1558435220869972,-1,1,0,0,1,5,3,1
1558435220876841,3,1,0,0,5,4,-2,-1
1558435220876841,2,-2,0,0,2,2,3,1
1558435220892949,-14,-9,-4,-3,-2,1,-3,-2
1558435220892949,0,2,-1,-2,-5,-6,-3,-2
1558435220893567,-3,-2,1,0,-3,-2,-1,-2
1558435220893567,-3,-2,-1,0,0,-2,-2,-1
1558435220905810,1,2,-2,-2,-4,-7,-3,0
1558435220905810,1,-1,-1,-2,-3,-1,-1,-2
1558435220914538,0,1,1,1,0,1,1,0
1558435220914538,-1,0,1,-2,2,-1,-1,-5
1558435220929664,1,0,-1,-1,-1,-2,-1,-1
1558435220929664,-2,-1,-1,-1,1,-3,-2,-1
1558435220936918,-1,-2,-2,-2,-5,-3,-2,2
1558435220936918,-2,-2,-1,-2,-2,-2,-1,1
1558435220951412,2,3,1,0,3,4,2,0
1558435220951412,0,-1,-1,1,-1,4,-1,-1
1558435220959018,1,1,3,2,2,3,3,0
1558435220959018,-3,-1,1,1,3,-1,1,0
1558435220965879,1,-1,-1,1,3,0,0,0
1558435220965879,-1,-1,-5,-4,-4,-4,-7,-3
1558435220974908,0,-1,-1,-4,-4,-2,0,0
1558435220974908,-1,-1,-2,-1,-2,-3,1,-1
1558435220989153,3,2,2,1,2,3,2,-2
1558435220989153,-1,-2,0,-3,-1,0,-1,-2
1558435220995799,-14,-11,-3,-3,-6,-1,-6,-3
1558435220995799,1,1,-2,-1,-2,-1,1,-2
1558435221011792,2,-2,1,1,5,0,-2,2
1558435221011792,0,-2,0,0,-1,-2,-1,0
1558435221019080,5,7,-2,0,-1,-1,0,0
1558435221019080,-11,-7,-4,-4,-4,-2,-4,-2
1558435221026045,1,-2,-2,1,-1,3,3,2
1558435221026045,-1,-2,-1,0,0,-1,-3,-5
1558435221034975,2,-2,-1,-3,-2,-2,-4,-4
1558435221034975,1,2,2,0,-3,-2,-5,1
1558435221049928,-2,0,-2,-3,-6,-9,-3,0
1558435221049928,0,0,4,3,7,2,6,3
1558435221055969,2,0,-2,0,2,4,3,1
1558435221055969,2,2,-1,-1,0,-3,-2,0
1558435221071924,-6,-4,-4,-4,-5,-2,-5,-5
1558435221071924,-2,-2,-4,0,-5,-3,-2,-5
1558435221078820,-1,-3,-1,0,2,1,1,1
1558435221078820,2,1,1,1,0,3,4,-1
1558435221086774,4,4,4,0,-1,-4,-1,1
1558435221086774,-14,-7,-3,0,-3,-5,-4,0
1558435221094750,3,1,0,1,1,0,-1,-1
1558435221094750,-1,-2,-2,0,3,4,3,-1
1558435221109499,1,1,1,0,-1,-1,-1,-1
1558435221109499,1,3,-2,-1,-2,0,0,-1
1558435221115478,-3,-4,-1,-3,-4,-4,-3,-2
1558435221115478,3,1,0,0,-1,-6,-2,1
1558435221131765,-2,-3,-3,-2,-1,-5,-5,-5
1558435221131765,1,-1,-2,-4,-2,1,-1,-3
1558435221138735,0,-1,-3,-3,-3,-5,-3,0
1558435221138735,-5,-7,-2,-1,2,-3,-2,-1
1558435221155694,-3,-2,-2,-2,0,2,5,-1
1558435221155694,0,2,1,-1,0,0,-2,-1
1558435221156368,1,-3,1,2,0,-1,-3,0
1558435221156368,2,5,-2,-2,-4,-3,-2,-2
1558435221169658,-10,-10,-3,-2,-1,-1,-3,-1
1558435221169658,1,1,-2,0,4,0,0,-2
1558435221176667,-1,1,-2,-2,-2,0,1,0
1558435221176667,1,0,2,-1,0,1,0,1
1558435221192448,1,0,0,-1,-2,0,-4,-4
1558435221192448,3,3,-2,-1,-3,-2,0,0
1558435221198579,-4,-5,-3,0,-2,-3,-1,0
1558435221198579,1,-1,0,-1,2,-4,0,0
1558435221215531,0,1,-1,1,2,4,-1,-2
1558435221215531,-2,-5,-1,-2,-6,-4,-6,-3
1558435221216210,-2,-2,0,-4,-7,-9,-1,0
1558435221216210,0,-3,-3,0,2,1,-5,-2
1558435221229489,3,2,1,2,2,3,3,2
1558435221229489,0,1,-2,-1,1,1,2,0
1558435221236482,-2,-2,-3,-3,-4,0,0,-3
1558435221236482,-3,-1,-2,0,-2,-2,-2,0
1558435221252442,1,1,2,1,1,0,1,2
1558435221252442,-1,-4,-1,-1,2,3,2,0
1558435221259322,0,3,0,-1,-2,0,0,1
1558435221259322,-3,-3,-4,-3,-5,-4,-3,-2
1558435221275320,1,2,2,1,5,6,4,0
1558435221275320,1,-1,0,0,2,0,-2,2
1558435221276054,0,4,-2,-1,-1,0,-1,-3
1558435221276054,1,-1,0,-2,-3,-5,-4,-3
1558435221289262,-4,-7,-3,-3,0,-3,0,1
1558435221289262,-2,0,-1,0,-2,-1,4,1
1558435221295998,3,3,1,1,5,2,-2,-1
1558435221295998,0,0,0,0,0,4,1,0
1558435221311952,0,-2,-2,-4,-8,-6,-3,-5
1558435221311952,0,1,-2,-2,-2,-3,-5,-3
1558435221318933,0,1,1,2,3,2,4,2
1558435221318933,-3,-7,-3,-3,-4,-1,2,-2
1558435221334890,-2,0,-3,-1,0,0,-6,-2
1558435221334890,0,1,1,3,5,5,2,2
1558435221335889,-1,2,-3,-3,-2,-1,-1,-1
1558435221335889,-2,-4,-3,-2,-1,0,-2,-3
1558435221348854,0,-2,-3,-2,-4,-5,0,0
1558435221348854,0,-3,0,1,2,-2,1,2
1558435221355835,1,2,3,0,-2,0,-5,-3
1558435221355835,0,1,-2,0,-3,0,-3,-4
1558435221372196,0,0,-4,-2,-2,2,0,-2
1558435221372196,-2,-1,0,-1,-2,-6,-5,-6
1558435221378773,0,-2,-1,1,2,-1,-3,-1
1558435221378773,1,1,2,0,2,6,8,0
1558435221394731,1,0,0,0,-5,-3,-4,-1
1558435221394731,-1,-5,-4,-1,-2,1,3,2
1558435221396727,-3,-4,-5,-3,-2,-6,-6,-5
1558435221396727,-1,2,3,1,0,-3,-2,0
1558435221410165,3,0,-2,-4,2,3,0,-1
1558435221410165,0,-2,-1,-2,0,6,2,2
1558435221416145,-4,-3,0,-2,-8,-10,-7,-3
1558435221416145,-2,1,-3,0,-4,-3,-4,-1
1558435221431664,-4,-8,2,0,2,-1,3,-1
1558435221431664,-1,-3,-1,-1,0,-2,1,1
1558435221438724,0,-3,-2,0,3,7,3,-1
1558435221438724,0,0,0,0,0,-1,-1,-1
1558435221454572,-1,5,-1,-2,-1,-2,-3,-1
1558435221454572,-3,-1,-1,-1,-4,-2,-3,-2
1558435221456565,4,-2,0,2,1,-1,2,2
1558435221456565,-6,-3,1,-3,-3,0,-5,-4
1558435221469786,-3,-2,-2,-1,-6,-4,-2,1
1558435221469786,1,1,-3,-4,0,-6,-4,-2
1558435221475628,-1,-2,-1,0,0,2,-1,-2
1558435221475628,-2,-2,0,-1,2,4,-1,2
1558435221491472,2,0,-1,0,2,5,3,1
1558435221491472,1,3,1,-2,-4,-5,-3,-4
1558435221505616,-5,-5,-3,-2,-2,-4,-1,-2
1558435221505616,-2,-3,-5,-4,-2,-5,-2,-3
1558435221514413,-1,-1,1,1,-1,-7,-3,0
1558435221514413,2,1,-1,-1,-3,3,-1,-2
1558435221516407,-1,-2,-1,0,3,1,0,-1
1558435221516407,-1,0,-2,-2,0,2,0,-2
1558435221529370,-2,-1,-2,-1,-6,-7,-3,-4
1558435221529370,-2,3,2,-1,-3,-3,-4,-2
1558435221536352,-1,0,-1,-2,-3,-2,-2,-2
1558435221536352,-1,-8,-5,-1,-2,-3,0,3
1558435221551317,-1,-2,-2,-1,-2,2,-1,-2
1558435221551317,-2,-5,-2,-2,1,0,-3,0
1558435221558293,1,3,1,1,0,-1,2,3
1558435221558293,4,3,1,0,3,2,1,-1
1558435221575254,-4,-4,-4,-3,-2,-1,-3,-3
1558435221575254,-3,-1,-4,-1,-5,-5,-1,-1
1558435221576249,-2,-1,-2,-3,-2,-1,-1,0
1558435221576249,-3,-5,-3,-1,0,-2,-5,-1
1558435221589210,0,2,1,-3,1,-1,5,-1
1558435221589210,0,-1,0,1,2,1,-2,-2
1558435221596194,-3,0,-2,-1,3,2,1,0
1558435221596194,2,1,-1,-2,-6,-7,-6,-3
1558435221611152,-13,-9,-6,-2,-4,-3,-3,-4
1558435221611152,0,-3,1,-1,3,2,1,0
1558435221618131,0,-2,-3,-2,-4,0,1,3
1558435221618131,-1,2,-1,-3,-4,-7,-4,-3
1558435221635326,3,3,-1,0,5,1,0,3
1558435221635326,-3,-2,-3,-3,-5,-1,0,-4
1558435221636084,1,-1,-3,-2,-5,-5,-1,-1
1558435221636084,0,-1,2,0,1,0,-1,1
1558435221648053,-1,-3,-1,0,1,-5,-2,0
1558435221648053,-2,-2,-1,2,7,5,0,0
1558435221657032,0,-4,0,-4,-1,1,-3,-3
1558435221657032,-2,1,0,0,-2,-3,4,-1
1558435221671988,-3,-2,-4,-4,-9,-6,-5,-5
1558435221671988,0,2,2,0,-6,-6,-1,2
1558435221678131,2,0,0,3,10,9,3,4
1558435221678131,0,1,0,3,5,6,2,-1
1558435221694988,-4,-2,-2,-2,-1,-2,-8,-4
1558435221694988,-1,-1,-3,-5,-8,-10,-1,-1
1558435221695925,-1,1,3,0,-2,2,4,-2
1558435221695925,3,1,1,2,7,1,1,3
1558435221708891,-4,-3,-4,0,-5,-4,-3,-3
1558435221708891,-3,-2,-3,-6,-7,1,0,1
1558435221717027,0,-1,-1,4,-1,-5,-8,-1
1558435221717027,-3,-1,-1,-4,-1,0,3,0
1558435221731828,3,2,0,-1,3,8,5,1
1558435221731828,0,-2,-1,-3,-4,-4,-5,-2
1558435221738838,-3,0,-5,-5,0,-1,0,2
1558435221738838,0,-3,-2,5,4,2,4,1
1558435221754768,5,4,0,-2,0,3,-1,0
1558435221754768,-2,-2,2,3,2,-1,-3,-2
1558435221756765,0,-5,-3,-6,-9,-7,-6,-5
1558435221756765,-3,-4,-5,-6,-8,-5,-3,-3
1558435221768906,1,6,2,3,-3,-3,3,2
1558435221768906,-1,-3,-5,2,9,9,4,1
1558435221777706,-2,-1,4,2,-2,-1,-3,-4
1558435221777706,-3,-1,0,-4,-4,-3,-2,-3
1558435221791668,-1,-2,-2,1,-5,-5,-2,-2
1558435221791668,1,0,-4,-1,-3,-4,-4,1
1558435221798863,-2,-4,-2,-3,0,0,1,-3
1558435221798863,-1,-3,0,-3,-3,-1,-2,-2
1558435221814668,-1,1,2,-2,-1,-3,-2,0
1558435221814668,0,-2,-2,0,2,2,-2,0
1558435221816602,-2,-1,-3,-3,-3,-2,-1,0
1558435221816602,-1,2,1,0,-3,-5,-4,-3
1558435221828872,0,1,4,3,3,-2,0,1
1558435221828872,-2,-2,-3,1,-1,-3,1,-2
1558435221837545,-4,-5,-7,-6,-2,-1,-3,-3
1558435221837545,0,2,-1,-4,0,-2,-1,0
1558435221851572,0,-2,-2,-2,-2,-4,-4,1
1558435221851572,-1,-1,-1,-3,-5,-1,-2,0
1558435221858490,1,2,2,4,6,5,4,4
1558435221858490,1,0,2,1,1,-1,-1,-2
1558435221874653,0,-6,-5,-2,0,-2,1,-1
1558435221874653,-1,-1,1,1,-2,-1,0,-2
1558435221881429,0,0,0,0,-3,-5,-4,-2
1558435221881429,-2,2,-1,1,-3,-2,-3,-1
1558435221897385,-1,-4,-4,-3,0,1,-1,-2
1558435221897385,-2,0,1,-1,0,4,0,-3
1558435221898384,1,1,1,4,3,-2,2,3
1558435221898384,-3,0,-4,-2,0,1,1,3
1558435221911554,-1,3,4,-1,-2,3,0,-1
1558435221911554,-2,-5,-4,-1,-6,-6,-6,-5
1558435221918372,-2,2,4,-3,-3,-1,0,-1
1558435221918372,-3,-8,-5,0,-2,-4,-5,-1
1558435221934487,-3,-4,-3,-2,0,-1,-2,1
1558435221934487,-1,1,1,0,-2,-5,-1,-2
1558435221941269,-2,-2,-5,-4,-4,-1,-3,1
1558435221941269,-1,-2,0,-2,-3,-3,-2,0
1558435221948250,1,0,3,2,3,7,2,0
1558435221948250,1,2,1,-1,2,1,1,0
1558435221957227,0,1,0,2,-3,-5,-3,-2
1558435221957227,-2,-3,-5,-3,-1,-2,-1,-4
1558435221971189,0,2,3,3,2,-1,0,0
1558435221971189,1,2,3,0,1,1,0,1
1558435221978186,1,-1,-3,-1,0,-2,0,-3
1558435221978186,-7,-11,-8,-2,-4,-1,0,0
1558435221994126,-3,0,-3,4,3,0,0,0
1558435221994126,-3,1,1,-5,2,2,2,0
1558435222001141,0,0,2,-1,1,-3,-4,-2
1558435222001141,0,-5,1,0,2,2,-1,-1
1558435222008092,-3,-8,-8,-4,-2,-2,-2,-4
1558435222008092,1,0,-1,0,0,-1,-1,1
1558435222017067,-2,-1,2,3,-3,-1,-3,-2
1558435222017067,-2,5,5,-2,0,0,-1,0
1558435222032025,0,-2,1,-4,-3,-3,-3,-2
1558435222032025,0,0,-4,-1,-1,2,0,-5
1558435222039011,-2,-1,1,0,-3,-2,0,-2
1558435222039011,1,3,4,5,2,-1,0,0
1558435222053966,-2,-3,-4,-7,-2,0,-1,-1
1558435222053966,-1,0,-2,-2,-3,-2,-2,0
1558435222060948,-1,-1,1,2,-1,-2,-2,-2
1558435222060948,1,3,-1,-2,2,0,1,1
1558435222077933,0,1,4,-1,-2,0,-2,1
1558435222077933,-4,-1,-6,-2,-2,-2,-2,1
1558435222078908,1,0,-3,-1,1,0,1,1
1558435222078908,0,-2,-5,-3,-3,-1,-1,-3
1558435222092065,-2,-4,-6,-1,-1,0,0,-2
1558435222092065,-3,-2,0,2,1,0,-2,-2
1558435222098895,-4,-7,-12,-5,-1,-2,-1,-4
1558435222098895,1,2,0,-3,0,-1,-1,-1
1558435222113807,-1,-1,-3,-2,-4,-4,-1,-2
1558435222113807,-2,-1,-2,1,-3,-1,0,1
1558435222120788,-4,-1,5,0,-2,0,-1,-3
1558435222120788,0,-2,1,-3,-1,0,-1,-1
1558435222137750,-2,-6,-12,-3,1,0,2,0
1558435222137750,2,-2,-2,-4,-4,-4,-4,-3
1558435222138741,1,1,0,0,0,1,1,0
1558435222138741,-1,7,4,5,5,2,1,0
1558435222151705,-1,2,2,1,-2,-1,-2,0
1558435222151705,-4,-5,-4,0,0,-1,-2,-5
1558435222158689,0,3,-1,3,-2,-1,-1,0
1558435222158689,-4,-7,-9,-10,-5,1,0,2
1558435222174656,2,2,3,5,1,-2,-1,1
1558435222174656,0,-1,-1,-7,-3,-1,-1,2
1558435222180849,0,1,3,-3,-5,-3,-2,-4
1558435222180849,1,-1,2,0,-2,0,3,-1
1558435222197612,0,1,2,-2,-2,-2,-1,-3
1558435222197612,1,0,3,3,3,-2,-1,-1
1558435222198580,0,-1,-3,-2,0,1,0,-1
1558435222198580,2,7,6,2,0,-1,-1,1
1558435222211844,-1,-1,-2,-8,-3,0,0,-1
1558435222211844,1,3,6,6,1,-1,0,2
1558435222218527,-2,-6,-2,-4,6,1,0,2
1558435222218527,-2,-5,-6,2,-1,-2,-2,-2
1558435222234484,0,6,5,0,-2,0,-1,1
1558435222234484,0,-2,-4,-4,-5,-2,0,-1
1558435222240468,1,0,0,-2,-2,-1,-2,-1
1558435222240468,-9,-8,-3,1,-1,0,-1,-1
1558435222264626,3,1,-2,-2,-2,-1,-1,-4
1558435222264626,3,4,2,-2,2,-1,-2,-2
1558435222266399,-5,-7,-4,-6,-2,-1,-1,0
1558435222266399,-1,1,-5,-4,-1,-2,-3,-3
1558435222270387,-2,-1,-1,1,1,1,1,-1
1558435222270387,0,2,7,1,1,0,-1,-1
1558435222279571,-1,-2,-4,3,0,1,-1,-1
1558435222279571,1,2,-2,-4,-2,-2,-2,-1
1558435222294324,0,2,-2,3,1,-3,-1,-1
1558435222294324,-2,-4,-9,-4,-1,-1,0,-2
1558435222301307,-2,-4,-15,-3,-1,-1,-3,-3
1558435222301307,-1,2,4,1,-3,0,1,1
1558435222317532,0,2,1,0,-2,-1,-1,0
1558435222317532,-2,6,6,-3,-1,-1,-2,-2
1558435222318264,-5,-2,-2,-1,1,-2,-2,-1
1558435222318264,4,9,3,7,0,-2,-1,-2
1558435222331226,-6,-12,-5,-7,0,-1,-1,0
1558435222331226,-2,-3,-1,0,-3,-1,0,3
1558435222340210,1,4,-1,-6,-5,-3,-3,0
1558435222340210,0,-6,1,0,-2,-1,-2,-2
1558435222354196,1,1,-1,-1,0,1,1,2
1558435222354196,-3,-9,-8,-1,-2,-2,-3,-4
1558435222361415,-7,-1,1,0,-4,-4,-2,-1
1558435222361415,-4,-6,-10,2,-1,-3,-2,-5
1558435222377103,4,8,7,8,7,2,0,-1
1558435222377103,-5,-7,-1,-4,-3,-2,0,-1
1558435222379096,3,-1,-1,-1,1,0,0,-1
1558435222379096,6,17,17,-1,-3,0,0,5
1558435222391067,0,-7,-6,-4,0,0,-3,-1
1558435222391067,-12,-11,-7,-2,-3,-2,-3,-1
1558435222400041,-2,-5,-3,-1,-3,-2,-2,-2
1558435222400041,-4,-7,-5,-4,-2,-1,0,-3
1558435222414088,1,-4,-2,1,1,-1,-2,1
1558435222414088,3,5,0,0,0,0,-1,-1
1558435222421044,1,-3,-8,-2,0,-1,0,0
1558435222421044,0,0,-3,-2,-1,-4,-1,-1
1558435222436943,-4,1,5,-2,-5,-3,-1,-1
1558435222436943,1,0,1,1,-3,-3,-2,-2
1558435222438938,1,5,4,3,3,2,1,0
1558435222438938,-2,-2,-7,-5,-2,-3,-5,-2
1558435222450905,0,-2,1,7,1,1,-1,-1
1558435222450905,3,7,7,-1,5,2,4,2
1558435222459881,2,1,-2,-4,-2,-4,-2,-2
1558435222459881,-3,-8,-1,0,-3,0,-3,-1
1558435222473844,-4,-1,-4,-6,-6,-4,-3,-2
1558435222473844,-1,-10,-5,6,2,2,0,-2
1558435222480825,5,7,7,3,0,1,0,0
1558435222480825,-6,-11,-7,-6,-3,-3,-1,0
1558435222504789,-1,-2,-4,-1,2,-1,-1,1
1558435222504789,-4,-2,-9,-1,-3,-1,0,-4
1558435222506758,3,6,5,1,1,1,0,-2
1558435222506758,-2,-10,2,3,0,2,1,-1
1558435222510775,0,5,-4,-3,-2,1,-1,-1
1558435222510775,-1,-3,-5,-1,-1,-2,-1,0
1558435222527700,-1,2,11,0,-3,-1,-1,0
1558435222527700,2,1,-3,-3,-1,-2,-1,-1
1558435222534709,-2,-4,-6,2,1,1,0,-1
1558435222534709,5,7,3,-1,-3,-2,-2,2
1558435222540666,-10,-6,0,3,2,1,-2,-1
1558435222540666,2,5,0,-2,0,1,1,0
1558435222557623,-1,-4,-6,-8,-6,-2,2,1
1558435222557623,-1,-3,-8,-4,-2,-3,-6,-2
1558435222558617,0,-3,-2,-5,-4,-2,-2,-4
1558435222558617,0,7,1,1,0,-2,-1,-2
1558435222570584,-2,-2,-3,1,-1,-4,-4,-2
1558435222570584,-2,-9,5,-10,-3,2,0,2
1558435222579817,-1,-2,2,1,0,-2,-2,1
1558435222579817,-4,-8,-13,-2,-1,-1,-1,0
1558435222594796,-3,-1,-3,0,-2,1,0,-3
1558435222594796,1,4,2,1,-1,-2,0,1
1558435222601531,-1,-6,-6,-3,-3,-2,-3,-1
1558435222601531,-2,0,2,0,-2,0,-1,1
1558435222617682,-4,-12,-16,-3,-3,-2,-2,-3
1558435222617682,1,1,-3,2,2,1,1,-1
1558435222618456,-7,-5,5,0,-1,1,0,-1
1558435222618456,-2,-4,3,2,-3,-1,-3,-1
1558435222630424,0,4,8,5,1,-2,-1,-3
1558435222630424,-3,-2,-9,-6,-5,-1,-2,-3
1558435222639401,2,0,-11,-1,0,-4,-1,0
1558435222639401,1,1,-10,-2,0,-3,-2,-3
1558435222662341,-4,-8,0,-4,-1,-2,0,-1
1558435222662341,-2,-10,1,4,0,-1,-1,0
1558435222663337,-1,2,-3,-3,-1,-1,-1,1
1558435222663337,-4,-6,2,1,0,-2,-2,-3
1558435222676304,3,9,5,-3,0,2,0,2
1558435222676304,-2,3,-1,2,0,-2,-2,-3
1558435222685279,3,-3,-8,-1,1,3,1,0
1558435222685279,8,14,11,4,3,1,3,2
1558435222691262,-6,-11,13,-1,0,0,0,2
1558435222691262,-3,3,-1,-1,-2,-2,0,-2
1558435222707220,-3,-3,1,-2,-4,-3,-2,-1
1558435222707220,1,-3,-4,0,1,-2,-2,-5
1558435222714201,4,4,-7,0,-2,-4,-4,-2
1558435222714201,0,5,-3,-3,1,-2,-3,-2
1558435222721182,-3,-8,6,2,1,0,-1,-2
1558435222721182,-4,-6,-12,-9,-3,-1,-2,-1
1558435222737369,1,2,7,4,0,0,-3,0
1558435222737369,0,3,-2,4,2,-3,0,1
1558435222739164,0,3,-3,-9,-3,2,2,0
1558435222739164,-3,-6,-4,1,-2,-2,0,1
1558435222751103,1,-4,-7,-4,-3,-1,-1,-2
1558435222751103,5,2,7,3,-1,1,1,2
1558435222760083,-1,-2,3,6,1,2,-1,1
1558435222760083,-4,-7,-4,-5,-4,0,-1,-4
1558435222774046,0,7,2,-1,-2,-1,-2,2
1558435222774046,4,8,10,3,2,1,0,1
1558435222781023,-3,-9,-7,-1,-6,-4,-2,-2
1558435222781023,-2,-13,-6,-8,-3,-3,-1,0
1558435222796980,2,2,-7,0,1,-1,-1,-5
1558435222796980,-4,-8,0,0,0,3,3,1
