timestamp,emg1,emg2,emg3,emg4,emg5,emg6,emg7,emg8
1558435231858763,-7,-11,-3,-1,1,3,1,-1
1558435231858763,1,2,-4,-2,-8,-6,-2,-2
1558435231860758,-3,-5,-8,-8,-14,-13,-14,-13
1558435231860758,3,4,4,4,7,4,10,10
1558435231861756,0,0,3,4,15,17,5,2
1558435231861756,0,-2,-1,2,10,8,2,0
1558435231862754,-2,-2,-2,-1,-4,-2,-3,1
1558435231862754,-1,0,-4,-3,-9,-7,-8,-7
1558435231870731,2,1,-1,-5,-9,-9,-3,-2
1558435231870731,2,3,2,2,2,2,2,0
1558435231878711,-7,-5,-2,-3,0,0,2,-1
1558435231878711,-6,-8,-3,-3,-4,-5,-5,-5
1558435231889682,1,4,-3,-5,-10,-11,-11,-6
1558435231889682,-4,-4,-5,-4,-10,-7,-1,-5
1558435231900651,8,7,8,12,21,17,13,10
1558435231900651,-2,0,1,4,12,11,6,3
1558435231909628,-1,-1,1,3,4,4,0,1
1558435231909628,2,-3,-6,-8,-10,-9,-8,-4
1558435231916609,-5,-1,-4,-4,-11,-10,-7,-6
1558435231916609,-3,-4,-2,-2,-6,-5,-6,-4
1558435231931568,1,0,-3,-2,-7,-9,-4,-6
1558435231931568,1,-2,1,-2,-3,-3,1,1
1558435231938550,0,0,1,1,10,8,7,4
1558435231938550,1,4,3,1,14,14,2,-1
1558435231977446,3,1,-1,-2,-6,-3,-2,-2
1558435231977446,-8,-5,-3,-3,-6,-5,-4,-6
1558435231985425,4,0,-2,-1,-3,-4,-2,-2
1558435231985425,-6,-3,-6,-8,-6,-5,-4,-2
1558435231985425,-2,-5,-4,2,-2,-4,-2,1
1558435231985425,7,8,8,11,25,24,13,4
1558435231987420,-1,-2,-2,0,2,4,7,4
1558435231987420,0,1,1,0,-6,-4,-2,-4
1558435231998393,1,1,-4,-5,-6,-9,-5,-2
1558435231998393,-11,-11,-4,-7,-16,-14,-9,-4
1558435232007366,-3,-2,0,1,0,4,-1,-2
1558435232007366,2,4,-1,0,4,6,0,-3
1558435232013350,-3,-2,-3,-4,-7,-4,-6,-5
1558435232013350,1,-2,0,-1,-4,-7,-4,1
1558435232029308,1,3,0,1,4,2,3,3
1558435232029308,4,2,0,0,-1,1,2,4
1558435232035293,-9,-13,1,3,8,14,3,-2
1558435232035293,-1,0,-3,-2,1,0,-5,-2
1558435232044267,-3,-2,-4,-4,-9,-5,-5,-6
1558435232044267,-1,-1,0,-2,-4,-6,-2,0
1558435232058230,3,5,0,-2,-3,-7,1,2
1558435232058230,0,-6,-6,-3,-5,-3,-5,-1
1558435232067207,0,1,1,-1,1,0,0,0
1558435232067207,-8,-10,-3,0,1,2,-2,-3
1558435232073192,1,2,2,0,4,2,2,-2
1558435232073192,1,0,-1,1,2,1,2,2
1558435232089149,1,1,1,-3,-3,-5,-2,0
1558435232089149,1,-1,-2,-1,-4,-3,-2,-1
1558435232095131,-3,-3,-2,-2,-5,-3,0,-2
1558435232095131,2,1,-3,-2,0,2,-1,-2
1558435232104108,5,3,0,0,0,-9,-4,1
1558435232104108,-6,-5,-5,0,-3,2,3,-4
1558435232118069,4,5,3,2,20,19,11,6
1558435232118069,-3,4,0,-4,-3,-1,-4,-3
1558435232127046,-8,-11,-5,-3,-8,-5,-7,-6
1558435232127046,0,0,0,0,0,-4,0,1
1558435232133029,0,0,0,0,-3,-6,0,-1
1558435232133029,1,0,-2,-2,-5,-3,-1,-5
1558435232148987,-2,1,-1,-2,-7,-6,-6,-4
1558435232148987,0,-1,3,0,2,1,6,4
1558435232155969,0,6,1,1,2,3,3,-2
1558435232155969,0,2,-1,0,-2,-4,0,2
1558435232164945,-10,-10,-3,0,5,6,2,3
1558435232164945,1,3,0,2,6,5,-5,-6
1558435232177910,-4,-1,-4,-4,-7,-4,-2,-1
1558435232177910,-2,-3,-1,-2,-5,-7,1,-1
1558435232186885,3,0,-1,-3,-3,-6,-7,-6
1558435232186885,-2,-3,-1,-2,0,-5,-3,2
1558435232192870,7,10,3,2,4,2,1,3
1558435232192870,-7,-10,1,1,3,5,-1,0
1558435232209826,-1,0,-1,0,3,3,2,1
1558435232209826,-1,-1,-1,-1,-3,-1,-2,-4
1558435232215810,-3,-4,-3,-3,-11,-12,-9,-5
1558435232215810,2,-1,-4,-3,-8,-8,0,1
1558435232224786,-1,-1,0,1,4,5,4,1
1558435232224786,3,4,2,3,7,5,-2,0
1558435232237750,-4,-4,-1,-2,-2,-3,2,0
1558435232237750,1,1,-2,-2,-4,-2,-2,-3
1558435232246726,-12,-9,-6,-6,-7,-4,-5,-4
1558435232246726,-2,-2,-4,-3,-3,-1,2,-1
1558435232252710,-3,0,-2,-2,-5,-4,-8,-6
1558435232252710,0,-1,2,0,4,1,8,6
1558435232269665,9,4,3,4,4,0,-2,-1
1558435232269665,-6,-4,-3,-2,1,3,3,2
1558435232275649,0,1,1,-3,-1,0,-3,0
1558435232275649,-5,-9,-3,-2,-3,-5,-4,-1
1558435232284625,-1,1,-3,-1,-2,1,2,-1
1558435232284625,1,2,-1,-1,-6,-5,-2,-1
1558435232297589,0,0,-2,-3,-3,-3,-3,-1
1558435232297589,2,5,-2,-2,-1,0,-4,-5
1558435232306566,0,1,0,-1,0,-1,0,1
1558435232306566,-2,-2,1,-3,-3,-4,-4,-2
1558435232313549,-3,-3,-1,-2,-2,-4,-1,-2
1558435232313549,4,1,1,4,11,9,5,3
1558435232329507,-5,-3,3,2,4,5,1,-3
1558435232329507,4,5,-3,-2,-7,-5,-8,0
1558435232335488,-1,-7,-1,-1,-5,-5,0,-3
1558435232335488,-2,1,-3,-1,-3,-2,10,3
1558435232350449,1,2,1,1,1,3,-9,-3
1558435232350449,-3,-3,-2,-2,8,3,-1,-4
1558435232358430,2,-2,-1,-1,2,1,1,2
1558435232358430,1,2,-1,-2,-4,-3,-3,-1
1558435232367403,-10,-13,-6,-7,-15,-13,-6,-7
1558435232367403,0,-3,-1,-5,-8,-8,0,1
1558435232373387,4,9,3,4,13,12,7,7
1558435232373387,-1,-3,2,2,6,6,-1,-2
1558435232389345,0,-5,-5,-1,4,2,1,1
1558435232389345,-3,-5,-1,-1,-10,-8,-6,-1
1558435232395328,-2,-2,-4,0,-2,-1,-3,-4
1558435232395328,1,7,-1,1,5,5,-2,-2
1558435232410289,4,4,0,-1,-3,1,1,0
1558435232410289,4,6,-1,-4,-7,-9,-5,1
1558435232418266,-11,-14,-1,3,1,-2,0,0
1558435232418266,-2,-7,-4,-6,-7,-3,-5,-3
1558435232427243,-3,0,-2,-1,-4,-2,-1,-3
1558435232427243,2,2,2,0,3,0,6,4
1558435232433228,-2,1,-4,-4,-11,-9,-12,-6
1558435232433228,0,-1,0,1,3,0,3,3
1558435232449185,5,3,1,1,11,13,8,2
1558435232449185,-11,-12,-3,3,1,3,-5,-7
1558435232455169,2,-2,-2,-2,0,-3,-1,0
1558435232455169,-6,-5,-3,-6,-8,-9,-6,-8
1558435232470130,1,3,0,-2,-2,-6,1,2
1558435232470130,4,4,1,2,3,2,4,4
1558435232478107,-5,-3,-4,-3,-2,1,0,-2
1558435232478107,-1,-2,3,2,5,5,2,2
1558435232487084,-1,1,0,-1,-2,-3,-4,-2
1558435232487084,-1,-1,-3,-2,-4,-2,0,-4
1558435232493069,2,3,2,2,-2,-3,0,3
1558435232493069,-8,-6,-2,0,2,7,-3,-5
1558435232509025,2,4,0,-3,0,0,7,4
1558435232509025,-5,-14,-1,3,3,4,-1,-4
1558435232516007,-2,-3,-5,-5,-10,-8,-7,-6
1558435232516007,2,4,0,0,-1,-2,-2,-2
1558435232530965,0,-1,0,0,-1,-1,-2,-1
1558435232530965,5,9,3,-1,3,4,8,1
1558435232537947,-9,-10,-1,-2,-2,0,-5,0
1558435232537947,0,-2,-2,-3,-9,-9,-4,0
1558435232546923,-2,0,-3,1,1,3,0,0
1558435232546923,3,4,2,1,2,2,-1,1
1558435232552908,-2,0,0,1,4,2,2,-1
1558435232552908,2,1,1,-1,-2,0,-1,-2
1558435232569862,1,-2,-3,-4,-8,-13,-7,-2
1558435232569862,-2,-3,-2,0,-3,0,-4,-3
1558435232575845,1,3,3,4,9,11,5,2
1558435232575845,1,0,-1,-4,-3,-3,4,2
1558435232590806,-3,-3,-3,-1,-2,-3,-3,-3
1558435232590806,0,1,-3,0,4,4,-5,-2
1558435232597789,-5,-9,-6,-2,-6,-5,-2,-2
1558435232597789,2,4,1,-1,-2,-3,-3,-1
1558435232606764,0,-2,0,-2,0,-2,-2,1
1558435232606764,-1,-2,-2,0,-2,-1,6,2
1558435232612748,0,3,-2,-1,-1,0,-6,-7
1558435232612748,1,-1,-1,0,0,-1,-3,-2
1558435232629702,-10,-11,-3,-1,-1,-3,-3,-2
1558435232629702,-1,-2,-1,-1,-2,0,-3,-2
1558435232635685,4,1,0,-2,-4,-4,0,-1
1558435232635685,1,1,0,2,-2,-3,1,-1
1558435232650645,2,2,2,3,6,4,1,1
1558435232650645,-1,-1,-5,-3,-4,0,2,2
1558435232657627,-1,-1,1,0,-1,2,-2,-1
1558435232657627,0,-2,-3,-3,-1,-1,2,5
1558435232666603,4,9,1,0,1,2,-1,-1
1558435232666603,-8,-10,-3,-1,-3,-2,-1,-2
1558435232672587,-1,-1,-2,-3,-5,-5,-4,-4
1558435232672587,-2,-1,0,1,1,1,-6,-2
1558435232689542,-3,-5,-2,0,-2,-2,0,1
1558435232689542,1,3,-3,-5,-5,-8,0,0
1558435232695525,5,4,1,0,5,5,4,1
1558435232695525,-1,5,1,1,-1,0,0,1
1558435232710486,-2,-2,-3,-1,0,3,-4,-4
1558435232710486,-2,-2,-2,-1,-3,-6,-5,-5
1558435232718464,-3,-8,-3,-5,-4,-3,4,2
1558435232718464,0,2,0,-1,-2,-3,-3,-2
1558435232727440,1,1,0,0,3,1,3,-1
1558435232727440,-5,-2,-3,-4,-5,-5,-5,-6
1558435232740406,-1,0,-1,-1,-6,-5,2,2
1558435232740406,1,-1,-1,0,-1,0,-1,0
1558435232749381,-5,-2,-2,1,0,1,-1,-3
1558435232749381,3,0,1,0,3,-1,0,-1
1558435232755366,0,0,0,-2,-1,-1,2,-2
1558435232755366,-1,-3,-2,1,2,2,-4,-3
1558435232770326,-1,2,0,-2,-4,-2,-2,-1
1558435232770326,1,1,-2,-3,-2,1,0,1
1558435232778312,-1,4,0,0,-1,-2,-6,-1
1558435232778312,0,-4,-3,-1,1,-3,1,0
1558435232787287,-2,-3,-2,-3,-3,0,2,0
1558435232787287,-3,-5,-1,-3,0,-1,-7,-2
1558435232801244,-2,0,-2,-2,-3,-3,-5,-5
1558435232801244,-3,-1,2,1,3,6,-1,0
1558435232809225,7,10,2,2,-1,-3,1,2
1558435232809225,-5,-2,-1,2,1,2,2,-1
1558435232815209,-3,-6,-1,1,7,6,3,2
1558435232815209,-1,-3,-1,-3,-2,-6,0,-5
1558435232847122,-2,-5,-4,-3,-7,-4,-8,-4
1558435232847122,0,-1,-2,-2,-9,-5,-4,-1
1558435232848119,2,0,-1,-1,-2,-6,-4,0
1558435232848119,-3,-2,-2,-2,-3,-3,5,2
1558435232850115,3,5,1,0,5,4,-2,-1
1558435232850115,-15,-13,-3,1,2,1,-1,-3
1558435232860085,2,6,-1,0,1,3,-1,2
1558435232860085,-3,-6,-4,-5,-5,-3,-3,-4
1558435232869086,-6,-5,-4,-5,-6,-5,-4,-5
1558435232869086,7,9,1,0,2,-2,-3,0
1558435232876046,-11,-15,-4,-1,-3,-4,-4,-3
1558435232876046,-2,-1,-1,-2,-2,-2,-1,1
1558435232891003,-1,-2,-2,-1,-4,0,1,0
1558435232891003,4,4,2,2,6,9,4,3
1558435232897985,1,4,1,0,0,-1,-2,-2
1558435232897985,-3,1,-2,0,1,-5,-1,-1
1558435232906961,-1,-1,1,1,0,0,-3,0
1558435232906961,0,2,-4,-5,-7,-6,-6,-3
1558435232920927,2,-2,1,1,3,6,7,3
1558435232920927,-2,-3,1,3,6,9,-2,-1
1558435232929905,-1,-2,-1,2,3,0,5,1
1558435232929905,2,7,3,-1,0,-2,1,0
1558435232935887,-1,3,-2,-2,-4,-2,0,0
1558435232935887,-2,-9,-3,-3,-7,-6,-6,-2
1558435232958833,-1,-1,-3,-2,-3,-3,-4,-2
1558435232958833,4,3,0,0,-4,-5,-6,-2
1558435232959831,-9,-3,-2,-4,-7,-6,-7,-9
1558435232959831,-1,-1,-2,0,3,4,-1,0
1558435232972783,-10,-13,0,5,4,3,4,2
1558435232972783,3,0,-1,1,7,6,2,1
1558435232980774,1,-4,-5,-4,-4,-4,-2,-1
1558435232980774,1,3,1,0,-2,-2,-2,-2
1558435232996725,1,1,-2,-3,-3,-2,-4,-1
1558435232996725,-2,-3,-2,0,-3,-3,0,-1
1558435232996725,0,-3,1,2,8,7,1,0
1558435232996725,-3,0,-2,-1,-3,-3,0,-3
1558435233010783,0,-2,-1,-2,-4,-3,-1,0
1558435233010783,0,2,-1,-3,-4,-1,2,0
1558435233017670,3,2,-1,-1,-5,-4,-5,-3
1558435233017670,3,1,0,-1,-2,-2,-2,0
1558435233033623,0,-2,-1,-3,1,-1,1,2
1558435233033623,-4,-2,0,0,1,-2,-7,-4
1558435233040604,0,-3,-1,0,0,-1,-1,-3
1558435233040604,2,0,0,0,-1,0,2,-2
1558435233056637,0,0,0,-1,1,0,-3,-3
1558435233056637,1,-2,-3,-2,1,-1,-1,-2
1558435233056637,-8,-2,-4,-5,-3,-2,3,-1
1558435233056637,-15,-13,-7,-4,-6,-3,-1,-3
1558435233070709,3,3,1,3,7,1,0,0
1558435233070709,-3,-3,0,3,2,3,2,0
1558435233078692,2,1,-2,0,0,1,-1,2
1558435233078692,2,2,1,-1,-1,1,-3,-2
1558435233093463,-2,-1,-2,-2,-2,-1,1,0
1558435233093463,-4,-7,-3,1,1,1,-1,0
1558435233100443,0,0,-1,-6,-7,-4,-3,0
1558435233100443,-2,-1,-5,-2,-7,-12,-10,-4
1558435233116573,2,1,-2,-1,-5,2,5,1
1558435233116573,1,1,2,1,7,3,1,3
1558435233117399,0,-1,2,3,7,7,3,0
1558435233117399,1,0,0,0,0,-1,-1,0
1558435233132359,-2,-1,1,-4,-2,-3,-7,-5
1558435233132359,2,2,0,0,-1,0,3,3
1558435233138346,-3,-1,-2,-2,-3,-4,0,0
1558435233138346,3,2,2,-1,-3,-5,-2,0
1558435233153461,-8,-8,-7,-5,-9,-8,-4,-5
1558435233153461,-4,-1,-3,-2,3,5,0,-2
1558435233161315,0,-3,-3,-1,-3,-6,-6,-2
1558435233161315,-2,-2,-2,-2,-5,-1,1,1
1558435233176508,-3,-6,0,2,8,7,5,4
1558435233176508,2,3,1,1,2,-2,-4,-2
1558435233177245,-1,2,-2,0,-1,-2,0,-3
1558435233177245,1,5,-1,-2,2,4,-3,-1
1558435233192199,0,-1,-2,-2,-7,-4,-3,-6
1558435233192199,-3,-7,-3,-3,-8,-7,-1,0
1558435233198391,1,0,-1,0,2,1,-2,-2
1558435233198391,-4,-4,-1,-2,-1,-2,3,0
1558435233213141,3,3,1,0,1,0,-5,1
1558435233213141,-4,-1,2,-1,-2,1,0,-2
1558435233229098,-2,-5,-5,-4,-6,-4,-2,-2
1558435233229098,1,3,-1,0,-1,-2,-4,-1
1558435233236108,1,3,-5,0,5,6,1,0
1558435233236108,-2,-5,-3,-1,0,0,0,0
1558435233237077,4,4,2,3,-2,1,3,3
1558435233237077,-7,-11,-3,0,0,0,4,2
1558435233252040,-11,-11,-2,-2,-2,-2,-6,-8
1558435233252040,0,0,1,-3,-8,-6,-3,-1
1558435233258040,2,-1,1,1,4,-1,1,1
1558435233258040,3,2,4,5,7,10,5,-1
1558435233272983,3,2,-2,-3,-4,-4,4,3
1558435233272983,-2,1,-3,-3,-6,-1,-3,-4
1558435233280959,-9,-7,-5,-4,-8,-10,-6,-3
1558435233280959,0,-4,-1,-3,-5,-4,0,1
1558435233295956,5,1,5,2,12,11,3,7
1558435233295956,2,3,1,-3,-1,-1,2,-3
1558435233296918,-1,-1,0,2,8,5,2,0
1558435233296918,1,5,-1,-1,-3,-4,-6,0
1558435233311879,0,-2,0,0,-1,-2,3,-3
1558435233311879,-3,-4,-5,-1,-6,-5,-9,-4
1558435233317861,-4,-4,1,-3,-5,-3,-2,-6
1558435233317861,6,6,-1,1,3,3,3,3
1558435233333935,-2,2,1,0,-2,1,2,-1
1558435233333935,-2,-5,-5,-3,-3,-1,4,-1
1558435233340799,3,5,-2,-3,-6,-4,-6,1
1558435233340799,-10,-6,-3,0,6,0,0,-1
1558435233355760,5,1,2,3,2,-1,4,6
1558435233355760,-3,-4,-1,0,0,3,1,-1
1558435233356757,-2,-4,-2,2,0,0,-1,-1
1558435233356757,2,0,-4,-4,-6,-4,-3,-4
1558435233371716,-1,3,0,0,3,-1,-3,-2
1558435233371716,-4,-5,0,-1,-4,-6,-3,1
1558435233386942,1,1,0,1,1,2,-3,-4
1558435233386942,0,2,0,-1,-7,-6,-4,-3
1558435233392664,-4,-7,-5,-5,-9,-8,-4,-1
1558435233392664,2,-2,0,3,4,5,-4,0
1558435233400642,0,-1,2,-1,7,4,2,4
1558435233400642,0,-3,-1,1,1,-1,-3,-1
1558435233416771,3,6,-2,-4,-8,-5,-6,-3
1558435233416771,-3,0,-1,-2,-2,-4,1,-1
1558435233416771,-7,-11,-5,-1,-3,-1,0,-1
1558435233416771,-1,-5,-2,-2,-5,-2,-2,-2
1558435233431591,0,0,-3,-2,-4,-3,0,1
1558435233431591,6,8,1,3,8,10,1,2
1558435233438541,1,4,2,2,10,6,12,5
1558435233438541,-1,-2,1,2,1,6,-6,-4
1558435233453530,-4,-2,-3,-4,-1,-1,-5,-3
1558435233453530,-2,-2,0,-2,-3,0,6,-1
1558435233460481,-2,-3,-3,-3,-6,-4,-4,-3
1558435233460481,2,2,-2,-3,0,-8,0,3
1558435233476436,-2,-1,-2,2,-1,0,-2,-3
1558435233476436,-3,-5,-2,-1,1,-2,-5,-2
1558435233476436,3,3,-2,-2,1,-1,1,1
1558435233476436,-1,-1,-2,-3,0,6,3,-1
1558435233492394,-3,-5,-2,-1,-8,-7,-2,-3
1558435233492394,-4,-3,-2,-2,-7,-5,1,-1
1558435233498802,0,2,2,-1,1,3,1,2
1558435233498802,-2,-2,0,-1,0,1,1,-3
1558435233513337,2,2,-1,-4,-4,-7,-9,-2
1558435233513337,-9,-6,0,2,4,3,-3,-3
1558435233520319,2,3,-1,2,1,5,-3,-3
1558435233520319,2,-1,0,1,3,3,2,3
1558435233536312,-5,-11,-5,-4,-4,-4,-3,-1
1558435233536312,1,-1,-2,-4,-11,-12,-4,-2
1558435233537308,-3,0,-2,-1,-1,0,-5,-3
1558435233537308,-5,-1,-1,-2,-2,-7,0,-3
1558435233552234,4,4,1,3,7,6,4,3
1558435233552234,0,0,-3,-1,2,4,9,3
1558435233558560,1,-1,-1,-3,-4,-2,-3,-3
1558435233558560,1,0,-1,1,-3,-4,-6,-2
1558435233573178,1,2,0,-2,-4,-4,-3,-1
1558435233573178,2,3,0,-1,3,2,-4,0
1558435233589136,-5,-9,-5,-3,-9,-5,-3,-4
1558435233589136,0,0,1,0,3,2,5,3
1558435233597150,-6,-2,-2,1,1,2,-2,-5
1558435233597150,3,1,0,1,5,5,1,0
1558435233597150,5,3,-1,1,0,-2,-1,0
1558435233597150,-6,-3,-3,-5,-10,-8,-6,-5
1558435233612076,-1,-5,-2,-1,-3,-5,-2,-1
1558435233612076,1,-1,-3,-1,-3,-5,0,1
1558435233618348,0,0,3,3,7,2,-1,-1
1558435233618348,2,3,-2,1,4,3,1,0
1558435233633314,-1,3,0,-3,1,2,-3,1
1558435233633314,-5,-5,-1,-2,-10,-7,1,-4
1558435233641319,1,-2,-2,-3,-4,-8,2,6
1558435233641319,-1,2,2,2,7,4,4,-2
1558435233655957,0,-3,-2,1,3,6,-3,-1
1558435233655957,1,2,1,2,3,2,-3,0
1558435233663235,-2,-2,-1,-1,-1,-1,0,-1
1558435233663235,-1,-3,-2,-2,2,3,3,1
1558435233671915,1,1,2,0,-6,-10,-1,2
1558435233671915,-4,-6,-5,-6,-10,-12,-6,-4
1558435233677900,0,1,0,2,3,7,1,-4
1558435233677900,-1,-2,-3,0,1,2,-1,0
1558435233693133,-1,0,0,1,1,-1,-1,1
1558435233693133,0,1,1,-2,0,-2,-3,2
1558435233701114,-2,-3,-2,-3,-6,-6,-5,0
1558435233701114,-1,-2,-4,-3,-8,-6,-6,-7
1558435233716073,-11,-15,-4,-5,-8,-4,4,-4
1558435233716073,0,0,0,1,2,4,5,2
1558435233731756,0,4,2,5,11,8,1,0
1558435233731756,2,1,1,2,2,2,2,2
1558435233733751,2,2,-1,-2,0,1,-3,-2
1558435233733751,2,2,-2,-4,-9,-9,-7,-4
1558435233737738,-8,1,-3,-4,-12,-9,-8,-5
1558435233737738,-4,-11,-1,-2,2,2,2,1
1558435233753980,-5,0,-3,-3,-8,-6,-1,-3
1558435233753980,-3,-5,-1,-2,3,2,-1,-3
1558435233760988,4,6,2,5,9,7,7,4
1558435233760988,2,2,2,4,9,4,1,4
1558435233775970,0,0,3,-1,2,0,-1,-4
1558435233775970,-1,-2,-1,0,-5,-6,-6,-2
1558435233782622,-4,-4,-3,-6,-8,-6,-7,-6
1558435233782622,-4,0,-5,-4,-5,-4,2,-1
1558435233792964,-1,-4,-2,-1,-1,0,-3,2
1558435233792964,3,7,0,1,3,2,2,2
1558435233797976,-9,-14,1,1,6,2,2,1
1558435233797976,-1,-1,-3,0,-1,-1,-3,-3
1558435233813228,-1,4,-2,0,-4,-3,0,-2
1558435233813228,-1,-1,1,0,5,3,-4,-1
1558435233821210,2,0,-1,-5,-10,-6,-3,-2
1558435233821210,-3,-2,0,-2,-8,-5,-4,0
1558435233836168,2,4,2,1,3,0,-1,0
1558435233836168,-2,-2,0,0,6,2,4,0
1558435233843150,0,-3,-3,0,-1,2,3,2
1558435233843150,-2,-1,-1,-2,2,1,-1,-1
1558435233859090,0,1,0,-2,-3,-3,-4,0
1558435233859090,-2,0,0,-1,-7,-6,-2,-5
1558435233859785,-2,-1,-4,-4,-4,-2,-5,-4
1558435233859785,-1,0,2,-2,-5,0,-1,-1
1558435233873945,-1,1,-1,2,11,9,9,4
1558435233873945,1,-1,0,-2,0,0,-1,2
1558435233881053,-1,-1,-2,0,-5,-5,-4,-7
1558435233881053,-1,1,-1,-3,-8,-6,-1,0
1558435233895718,4,1,0,0,0,2,1,0
1558435233895718,-10,-11,-3,2,7,4,-2,-3
1558435233903924,0,-4,-3,0,1,-3,-1,1
1558435233903924,-2,-1,-3,-6,-11,-7,-7,-3
1558435233918923,0,0,-3,-2,-4,-3,-6,-6
1558435233918923,0,2,1,2,6,2,9,4
1558435233919624,-1,5,0,2,2,2,-2,0
1558435233919624,0,-7,-1,0,-1,-2,0,-2
1558435233934586,-3,-5,-5,-2,-6,-4,-1,-1
1558435233934586,-1,-1,-5,-3,-5,-3,-5,-4
1558435233940596,2,2,0,-3,0,-3,-3,-1
1558435233940596,0,3,1,0,3,3,6,3
1558435233955530,0,0,2,1,7,10,5,1
1558435233955530,3,3,1,2,2,1,1,0
1558435233963506,-10,-8,-3,-2,-3,-2,-2,-2
1558435233963506,-2,-2,-3,-1,-6,-7,-9,-6
1558435233978605,-3,-6,-4,-4,-8,-9,0,-1
1558435233978605,1,0,-1,2,6,6,-1,1
1558435233979464,3,1,-2,0,-1,0,4,0
1558435233979464,-4,0,0,1,3,-5,-4,-4
1558435233993760,-2,-1,0,-1,1,1,5,1
1558435233993760,1,-2,-2,-2,-8,-6,-6,-4
1558435234000752,6,7,-1,-2,-2,-1,1,1
1558435234000752,-4,-10,-2,2,2,4,1,-1
1558435234016364,1,-2,0,-1,-1,0,-2,-1
1558435234016364,-2,0,-3,-3,-1,-4,-4,-5
1558435234023678,-3,-4,-1,-4,-6,-1,1,1
1558435234023678,6,4,0,1,9,7,8,7
1558435234038307,-1,1,-3,1,5,6,-1,-1
1558435234038307,-2,-3,0,-4,-4,-2,-2,-1
1558435234039302,-1,-3,-1,-1,-1,-7,-4,-4
1558435234039302,-2,0,-2,-5,-11,-12,-8,-7
1558435234053633,-2,-3,1,-3,-7,-6,-1,2
1558435234053633,-2,-1,-2,-1,-3,0,-1,-1
1558435234060496,5,4,3,5,13,10,5,4
1558435234060496,3,5,0,0,4,6,1,0
1558435234076345,0,-3,0,2,5,3,-3,1
1558435234076345,-3,-3,-2,-2,2,1,2,-3
1558435234083474,-6,-8,-2,-5,-10,-7,-4,-2
1558435234083474,0,1,-2,0,1,2,2,1
1558435234099453,2,1,-1,-3,-3,-6,-6,-4
1558435234099453,-3,4,-2,-3,-10,-8,-6,-4
1558435234099453,-1,-3,-2,-2,-9,-11,-7,-5
1558435234099453,1,0,-1,1,6,5,13,8
1558435234113383,0,1,1,4,9,11,0,0
1558435234113383,3,-1,2,1,3,6,2,0
1558435234121187,-1,2,-2,-3,-5,-1,0,-1
1558435234121187,-2,-7,-2,-2,-7,-7,-10,-3
1558435234136339,-3,-2,-1,-3,-5,-6,1,-1
1558435234136339,0,1,-2,2,0,-2,0,0
1558435234143025,-4,-2,-1,-1,-1,4,-2,-3
1558435234143025,-3,-2,-2,-2,-4,-4,3,1
1558435234159258,-1,-3,-1,-3,-7,-6,-1,-3
1558435234159258,-2,-5,-1,-2,-3,1,0,3
1558435234159258,1,-2,-4,4,14,7,-2,0
1558435234159258,-2,0,-1,1,2,4,-4,-3
1558435234172947,1,3,0,0,7,7,3,2
1558435234172947,-12,-5,-3,-5,-10,-12,-3,-3
1558435234181219,0,1,1,-1,0,-3,3,0
1558435234181219,-2,-5,-2,-2,-4,-3,-6,-4
1558435234196168,-2,-5,-4,-5,-16,-15,-10,-6
1558435234196168,3,4,-1,2,1,-2,0,1
1558435234203192,3,-2,2,5,11,13,13,7
1558435234203192,-2,1,0,3,10,7,-4,-5
1558435234219111,0,3,2,2,0,-1,1,-2
1558435234219111,0,-2,-3,-5,-5,-4,-6,-4
1558435234219822,-2,-5,-4,-4,-12,-7,-6,-5
1558435234219822,1,2,0,-1,3,4,4,1
1558435234233916,-3,-4,-3,-2,2,-1,-5,-3
1558435234233916,-2,-3,0,1,2,-1,-4,-2
1558435234241063,0,1,-8,-3,-7,-10,-2,0
1558435234241063,-1,-1,-12,-6,-4,-3,1,-4
1558435234255724,1,2,-4,1,7,8,4,1
1558435234255724,-2,-1,-1,2,5,7,2,-2
1558435234263779,-3,2,3,-3,-2,-7,-6,-1
1558435234263779,-3,-6,4,1,-7,-3,-4,-2
1558435234278929,-1,0,2,-1,-8,-8,-2,1
1558435234278929,2,-1,1,-3,-3,-3,-2,-1
1558435234279665,-6,-3,4,-2,6,2,1,-2
1558435234279665,2,2,1,1,-2,-4,-4,1
1558435234292902,1,2,3,0,1,1,11,1
1558435234292902,-1,-7,3,3,8,8,-4,2
1558435234300881,3,-1,-2,-1,3,6,0,2
1558435234300881,-2,0,3,0,0,0,-2,-3
1558435234315848,0,-1,-2,-4,-7,-4,-6,-2
1558435234315848,0,1,-4,-3,-6,-4,-1,-3
1558435234323783,-2,-1,0,-1,-4,-6,1,-1
1558435234323783,-2,-4,-2,-1,-3,0,-1,1
1558435234338507,0,-1,-1,1,0,1,-2,-2
1558435234338507,1,2,1,0,-1,-1,1,5
1558435234339500,-2,-5,-2,-3,-1,2,-5,-2
1558435234339500,4,4,0,-1,-6,-6,2,-2
1558435234353495,-2,-2,0,2,3,0,1,0
1558435234353495,-3,-3,-4,-3,-3,-4,-4,-4
1558435234360472,-2,-1,-2,-2,-5,-2,-1,-1
1558435234360472,-1,-4,-2,-4,-3,-5,-4,-1
1558435234375728,1,0,2,3,6,4,0,1
1558435234375728,4,7,2,0,6,6,9,5
1558435234383730,-2,-3,-1,1,-3,0,-4,-3
1558435234383730,-14,-11,-5,-3,-1,4,-6,-9
1558435234399536,-5,-5,-3,-4,-9,-12,-8,-2
1558435234399536,1,-1,-2,-4,-6,-6,0,-1
1558435234399536,2,6,2,1,6,4,3,1
1558435234399536,3,3,2,1,2,2,3,4
1558435234413664,-3,-3,-1,0,3,1,-1,-1
1558435234413664,-3,-1,-2,-2,-3,-1,-4,-5
1558435234421284,-1,-1,-4,-3,-8,-8,-2,-2
1558435234421284,2,-1,0,-1,-1,-2,1,0
1558435234436428,-2,-1,-1,-1,-1,3,9,0
1558435234436428,1,-2,-4,-3,-3,-1,2,1
1558435234443558,-2,-2,1,1,5,4,-1,-4
1558435234443558,-1,-2,-3,-2,-2,-1,-5,-1
1558435234459546,2,3,-3,-1,-3,0,-3,-1
1558435234459546,-2,2,1,2,-2,-2,1,-1
1558435234459546,0,-1,0,-3,-4,-1,-1,0
1558435234459546,2,2,-1,3,1,-1,-1,2
1558435234473177,3,7,1,-2,5,5,8,2
1558435234473177,0,-5,-2,0,0,4,-5,-1
1558435234481409,-5,-5,-3,-4,-2,-4,-4,-3
1558435234481409,-2,-1,0,-4,-8,-8,-5,-1
1558435234495107,0,-1,-3,-2,-5,-5,-4,-1
1558435234495107,1,2,-2,2,6,2,4,1
1558435234503113,-1,0,2,2,1,3,3,2
1558435234503113,0,0,-1,-2,0,0,0,-2
1558435234519020,-1,-2,-1,-3,-3,-4,-3,-3
1558435234519020,-6,-4,-4,-6,-9,-12,-7,-5
1558435234519020,-2,-2,-1,-3,-12,-9,-4,0
1558435234519020,2,0,2,3,12,10,7,6
1558435234532982,-2,0,3,5,13,13,2,-1
1558435234532982,-4,-3,-1,1,-1,0,2,0
1558435234541338,1,1,-3,-1,-1,-2,0,-1
1558435234541338,-2,-1,-2,-3,-9,-6,-2,-1
1558435234555921,-1,-2,-2,-2,-3,-6,-2,1
1558435234555921,2,1,-1,-3,-5,-3,-5,-4
1558435234563274,5,2,0,-2,0,2,-1,-4
1558435234563274,-1,2,2,1,7,9,4,2
1558435234587057,-3,-5,-2,-1,-1,0,-2,-1
1558435234587057,-4,-6,-1,0,-6,-5,-3,-7
1558435234587838,0,-2,-3,-2,-1,-2,-1,0
1558435234587838,3,-1,-3,-2,-8,-9,-6,-4
1558435234593820,3,2,-4,-4,-1,-3,-4,2
1558435234593820,-13,-13,-5,-4,-1,-3,-1,-3
1558435234601123,-1,0,-3,-4,-12,-8,-1,-1
1558435234601123,3,3,6,8,22,16,11,6
1558435234616062,-3,-7,0,2,6,4,-3,-3
1558435234616062,4,3,-1,-2,0,1,3,1
1558435234622746,-3,-4,-1,0,-2,-5,-3,-2
1558435234622746,-3,-4,-3,-6,-14,-8,-6,-4
1558435234637831,2,1,-3,-4,-11,-11,0,0
1558435234637831,-2,3,0,3,6,6,0,-3
1558435234646936,-2,-3,-2,-3,1,1,-3,-2
1558435234646936,-1,3,-2,0,-2,-3,-1,-4
1558435234653688,1,-1,-3,0,-2,-1,-2,-1
1558435234653688,-1,-2,0,-1,0,1,-2,-1
1558435234660956,0,3,1,1,1,1,3,2
1558435234660956,-2,-3,-1,-1,-1,1,-1,1
1558435234675920,-4,-1,-1,-2,1,3,-1,-4
1558435234675920,-1,0,-2,-2,-3,-5,-2,2
1558435234683863,-1,-1,-2,-2,-2,-1,-3,-1
1558435234683863,1,0,-2,-6,-8,-7,-3,-8
1558435234698258,-11,-9,-1,-3,-2,-4,-4,-3
1558435234698258,5,1,2,5,10,6,8,4
1558435234707060,1,0,2,4,11,8,4,1
1558435234707060,0,-1,-2,1,-6,-6,-3,0
1558435234721173,-5,-4,-4,-5,-7,0,0,-2
1558435234721173,1,0,-2,-6,-8,-4,-3,-3
1558435234721876,-2,-4,-2,0,0,-3,-2,1
1558435234721876,-6,-4,-2,-2,-7,-7,-9,-3
1558435234735838,-1,-4,-4,-5,-6,-4,-1,-2
1558435234735838,-2,-1,2,2,3,3,5,2
1558435234743117,3,5,3,3,10,8,4,-2
1558435234743117,-8,-8,2,2,10,5,1,0
1558435234757778,0,-1,0,-1,-5,-3,-3,0
1558435234757778,3,0,-3,-3,-2,-6,-5,-3
1558435234765760,-1,-2,-2,-2,-3,-3,-3,-2
1558435234765760,0,1,-1,0,-2,0,1,0
1558435234781992,1,-1,-2,2,-1,0,2,1
1558435234781992,-2,-3,-2,-4,-7,-2,-4,-1
1558435234781992,-1,4,2,0,-4,-3,3,-2
1558435234781992,0,-6,1,2,7,-2,1,-1
1558435234795678,0,-1,0,0,2,2,-3,-2
1558435234795678,5,7,0,1,0,0,-1,1
1558435234802940,-10,-10,-3,-5,-6,-8,-6,-2
1558435234802940,1,0,-3,-5,-10,0,-1,-3
1558435234818787,-1,-2,-2,-1,4,4,2,0
1558435234818787,1,3,0,-1,-1,-1,2,0
1558435234826626,1,2,-1,-1,2,-2,-4,-1
1558435234826626,5,5,1,-1,-2,-4,2,2
1558435234841861,-13,-15,-1,1,3,4,-1,-2
1558435234841861,-2,-3,1,0,-2,0,-2,1
1558435234841861,-2,-3,-3,0,-2,0,-3,-2
1558435234841861,2,0,0,-1,-2,-4,-1,-2
1558435234855518,5,6,0,-3,-3,-6,-2,-4
1558435234855518,-5,-2,0,-2,-1,0,-3,-2
1558435234862526,0,-6,-4,-2,-3,-1,1,0
1558435234862526,-4,2,-2,-3,-2,-5,-2,-2
1558435234878457,1,4,-1,1,0,-8,-2,3
1558435234878457,-2,-4,-1,2,6,3,1,-1
1558435234886742,0,3,-1,-2,0,2,-1,-1
1558435234886742,-2,-1,-1,3,3,6,2,1
1558435234901703,1,4,-1,-2,-3,-2,3,2
1558435234901703,-3,-2,-2,0,-2,-2,-7,-6
1558435234901703,-2,-7,-4,-1,-5,-6,-7,-4
1558435234901703,2,-2,-2,-3,-1,-2,-1,0
1558435234915654,-3,-3,0,3,3,5,12,5
1558435234915654,4,1,2,1,11,8,2,1
1558435234923638,-3,3,3,0,2,1,-4,-2
1558435234923638,0,3,-3,-3,-8,-5,-8,-2
1558435234939292,-5,-11,-5,-7,-10,-10,-9,-6
1558435234939292,-2,-5,-2,-1,-5,-2,4,3
1558435234946276,1,3,3,0,6,6,3,0
1558435234946276,1,0,-3,0,1,2,0,1
1558435234961234,2,2,-1,-3,-7,-6,-7,-2
1558435234961234,-1,-1,-1,-4,-17,-14,-6,-2
1558435234962231,3,2,2,3,12,11,9,2
1558435234962231,0,3,3,4,15,11,1,0
1558435234984229,4,7,0,1,3,-1,-1,-2
1558435234984229,-9,-12,-4,-3,-5,-6,-5,-2
1558435234985296,1,3,-1,-4,-11,-8,0,0
1558435234985296,-1,-5,-3,-4,-5,-5,1,0
1558435234998136,-1,-2,0,-1,0,-2,-9,-5
1558435234998136,2,1,0,-3,0,0,9,2
1558435235005116,3,0,1,3,7,4,-6,-1
1558435235005116,1,1,-3,-2,-2,-1,0,-2
1558435235021188,-2,-2,-3,-3,-6,-5,-2,0
1558435235021188,-2,-1,-3,-2,-5,-2,1,-1
1558435235022150,-2,-2,-1,3,5,6,3,1
1558435235022150,1,0,1,-1,5,3,4,3
1558435235036492,6,5,-2,-1,-4,2,-12,-4
1558435235036492,-4,1,-1,0,1,-3,-5,-5
1558435235043612,-2,-6,-3,-1,-1,-8,1,2
1558435235043612,-3,-4,-1,0,-1,-2,1,0
1558435235058903,-2,0,-3,-1,-4,-5,0,0
1558435235058903,1,3,-1,-2,3,4,0,2
1558435235065855,-2,-1,-3,-2,-4,-4,-5,-2
1558435235065855,-5,-7,-5,-4,-9,-6,-2,-2
1558435235081792,1,0,0,1,2,3,9,1
1558435235081792,2,3,2,1,4,6,-9,-6
1558435235081792,-1,-4,-2,-2,-5,-6,-3,0
1558435235081792,1,0,0,1,1,2,-1,-1
1558435235095716,1,3,0,0,6,4,2,1
1558435235095716,-1,-4,-2,-1,-8,-7,0,0
1558435235103728,-3,-3,0,-1,-1,2,4,1
1558435235103728,-1,-2,0,0,6,7,3,2
1558435235118694,-1,3,-3,-4,-9,-5,-8,-6
1558435235118694,-3,-5,0,0,4,-2,-1,-3
1558435235125631,2,0,-2,-2,-2,-6,-3,3
1558435235125631,-1,1,-1,1,-8,-5,-3,-8
1558435235141299,-11,-10,-1,3,7,4,5,2
1558435235141299,3,4,-2,-3,-3,-3,-2,-1
1558435235142297,-11,-10,-4,-4,-9,-7,-9,-6
1558435235142297,-1,-3,-3,-5,-5,-4,0,0
1558435235155261,5,2,2,3,9,9,7,6
1558435235155261,2,4,4,5,14,16,7,4
1558435235163241,0,2,0,-4,-1,-1,-5,-4
1558435235163241,-4,-3,-4,-5,-8,-11,-4,-3
1558435235178201,-2,-3,-3,-4,-8,-7,-6,-4
1558435235178201,-2,-1,-1,-1,-2,0,0,3
1558435235186488,3,4,-1,-2,-6,-7,-2,-1
1558435235186488,-4,-3,-1,2,0,-2,-4,-1
1558435235201659,0,-1,-1,0,-5,-2,-1,-2
1558435235201659,3,-3,-1,1,9,7,2,3
1558435235202139,-1,2,1,1,2,3,1,-1
1558435235202139,-1,-1,2,-2,-4,-3,-8,-3
1558435235215454,-1,-1,-2,-5,-3,-6,-5,-4
1558435235215454,-4,-5,-6,-4,-9,-4,-4,-5
1558435235223413,2,3,1,2,9,13,6,3
1558435235223413,1,0,0,0,-1,-2,4,5
1558435235238040,-2,-2,-2,-3,-4,-4,-4,-4
1558435235238040,-4,-2,1,0,-6,-6,-2,-4
1558435235246338,1,-1,-1,1,4,1,2,-1
1558435235246338,-2,1,1,3,7,8,-3,-1
1558435235260981,0,0,1,0,3,-1,2,2
1558435235260981,3,4,-1,-2,-1,-8,4,5
1558435235261978,-13,-14,-5,-4,-12,-9,-6,-6
1558435235261978,-1,-3,1,-2,-5,0,-3,-3
1558435235276244,-2,-4,-4,-1,-2,-2,-4,-5
1558435235276244,1,1,1,-1,-7,-6,-3,0
1558435235283213,9,10,2,4,16,12,3,3
1558435235283213,-8,-6,1,2,6,5,4,0
1558435235298187,-2,-5,-1,1,1,-1,1,1
1558435235298187,-3,0,-3,-3,-7,-6,-3,-2
1558435235306157,0,-3,-1,-1,-5,-3,0,0
1558435235306157,3,1,0,0,5,3,2,0
1558435235321078,2,1,1,-1,3,-1,0,-1
1558435235321078,-1,-3,-3,-2,-2,-2,-5,0
1558435235328800,0,0,-4,-5,-12,-9,-7,-5
1558435235328800,0,-2,-5,-4,-11,-7,-3,-1
1558435235336080,1,2,1,3,6,5,7,2
1558435235336080,-1,-3,-3,0,10,8,-3,-1
1558435235343058,0,-4,-3,-1,-5,-3,0,-4
1558435235343058,0,3,1,-1,1,-2,-1,0
1558435235358037,-1,-2,-1,-1,0,2,0,0
1558435235358037,-5,-3,-2,-3,-4,-6,-8,-4
1558435235365701,-1,-1,-2,1,-4,-1,2,2
1558435235365701,3,2,2,1,4,0,-3,-5
1558435235381964,-4,0,0,-4,-4,-3,-5,-3
1558435235381964,1,0,1,-1,4,-1,5,2
1558435235381964,-2,-1,-1,0,-2,2,0,-1
1558435235381964,0,-3,-2,0,-4,-4,-3,-5
1558435235395922,2,0,-2,1,0,-2,-5,2
1558435235395922,-1,-1,-3,-1,-6,-2,2,-1
1558435235403834,-2,-1,-2,-2,0,3,-2,-3
1558435235403834,-1,0,-3,-4,3,4,2,0
1558435235418858,0,2,1,0,1,1,-1,-2
1558435235418858,-3,-4,-5,-3,-5,-3,-4,-4
1558435235425571,1,-1,-1,-1,-5,-6,-2,-1
1558435235425571,-3,-1,-3,-1,2,3,3,1
1558435235441788,-1,0,0,0,0,2,-1,1
1558435235441788,-1,-5,-1,-4,-5,-2,2,-4
1558435235441788,0,3,2,1,0,-4,3,1
1558435235441788,1,1,1,-1,8,4,6,1
1558435235455460,0,-1,1,0,-5,-1,-6,-1
1558435235455460,-2,1,1,3,1,0,-5,-2
1558435235463704,-2,-2,-1,-6,-4,-5,-6,-3
1558435235463704,-1,-3,-3,-2,-11,-8,-4,0
1558435235478463,-1,-2,1,1,8,7,9,0
1558435235478463,0,-1,-1,-2,0,-2,-3,-2
1558435235485672,-2,-1,0,0,2,4,-3,-2
1558435235485672,0,0,-2,-2,-1,-3,-3,-5
1558435235500636,-1,-2,-2,-4,-5,-3,-1,0
1558435235500636,2,0,0,0,2,5,1,-2
1558435235509497,-9,-8,-4,0,0,-5,-2,-3
1558435235509497,-2,-1,-3,-3,-4,-7,1,1
1558435235515300,0,-2,-1,-1,-4,-8,-11,-6
1558435235515300,-2,2,0,1,2,-1,5,0
1558435235523547,6,7,2,1,8,5,3,3
1558435235523547,-5,-7,-3,-1,1,0,-8,-5
1558435235538238,-4,-6,-4,-4,-10,-9,-1,-1
1558435235538238,-1,-1,-2,-4,-9,-6,-2,-2
1558435235545248,2,3,0,-1,2,3,1,3
1558435235545248,4,3,1,3,7,5,-1,-1
1558435235560205,-7,-6,-2,2,7,6,2,-1
1558435235560205,-2,-1,-1,-2,2,3,3,2
1558435235568157,-2,-2,-2,-1,1,-1,-4,-5
1558435235568157,-2,-2,-3,-4,-7,-8,-2,-3
1558435235575138,2,-1,-4,-3,-6,-5,1,-1
1558435235575138,0,0,-1,-1,-2,-3,-3,-4
1558435235583118,-7,-6,-3,-4,-5,-2,-1,0
1558435235583118,0,1,-1,2,1,-3,-1,1
1558435235598077,3,3,1,2,7,9,3,2
1558435235598077,-4,-5,-1,0,-4,-5,-2,0
1558435235605059,1,2,-2,-4,-4,-9,-3,-2
1558435235605059,-3,-3,-2,-2,-5,1,-3,-2
1558435235621167,-1,1,-1,-3,-3,-5,2,1
1558435235621167,3,3,0,0,-4,-3,-5,-2
1558435235629206,0,-3,2,4,8,7,6,2
1558435235629206,-1,-1,-1,0,5,6,2,2
1558435235636326,0,2,1,-1,0,1,4,-2
1558435235636326,-2,-2,-3,-2,0,3,-1,1
1558435235643412,-3,-2,-4,-4,-7,-5,-6,-5
1558435235643412,-1,-4,-3,-5,-10,-8,-5,-3
1558435235658426,0,-1,-1,-1,-2,0,2,1
1558435235658426,1,1,3,4,9,4,8,1
1558435235666412,0,1,0,2,2,3,-4,-1
1558435235666412,-2,-1,-1,-1,2,2,-3,-3
1558435235681206,0,-3,-4,-4,-7,-6,-3,-4
1558435235681206,-1,-2,-1,-5,-5,-3,0,1
1558435235688837,3,3,0,0,-1,-2,2,-2
1558435235688837,-8,-7,-4,-5,-9,-7,-5,-2
1558435235704125,-6,-4,-5,-5,-11,-12,-7,-3
1558435235704125,-1,-2,3,8,20,17,6,6
1558435235704792,2,3,1,3,14,14,5,2
1558435235704792,0,4,0,-2,-5,-3,-1,-2
1558435235718791,-3,-4,-2,-2,-4,-1,-1,-1
1558435235718791,-2,-2,-1,-4,-14,-13,-7,-6
1558435235726082,0,-1,-2,-3,-5,-4,-3,-2
1558435235726082,0,0,1,-1,3,2,-2,-1
1558435235741170,-2,0,-1,-1,-2,-1,1,-2
1558435235741170,-1,-1,1,-1,-2,-7,-3,1
1558435235749421,0,-2,0,0,3,5,6,2
1558435235749421,3,-1,-1,3,5,3,3,1
1558435235764343,1,-1,-1,4,8,5,-2,1
1558435235764343,-3,-3,-4,-5,-3,-3,-6,-6
1558435235764343,-1,-4,-3,-3,-9,-9,-1,-1
1558435235764343,-3,-3,-2,-2,-4,-4,-3,-2
1558435235778001,1,-1,-1,-2,-3,-4,-7,-4
1558435235778001,2,-1,-2,0,-3,2,6,3
1558435235784980,0,0,2,7,13,8,3,3
1558435235784980,1,2,1,3,12,7,5,3
1558435235801277,4,2,1,1,2,2,-3,-2
1558435235801277,-8,-7,-7,-3,-8,-6,-7,-3
1558435235808916,-2,-4,-4,-8,-15,-15,-5,-4
1558435235808916,-1,-2,0,-1,-5,-3,1,0
1558435235824207,-3,-3,-1,-2,0,1,-1,-1
1558435235824207,3,1,-1,-1,-1,-3,3,3
1558435235824207,-2,-2,-2,0,2,2,-1,-3
1558435235824207,-2,-3,-2,3,2,3,4,2
1558435235837836,0,4,1,1,4,5,1,-1
1558435235837836,0,-2,-3,-1,0,4,0,-2
1558435235845816,-2,-2,-2,-3,-9,-8,-7,-4
1558435235845816,0,-2,-2,-4,-4,-4,-3,-2
1558435235861109,-4,-2,-2,-5,-4,-2,-4,-2
1558435235861109,0,0,2,4,6,1,1,-3
1558435235869097,1,-2,-4,-2,-2,-5,0,3
1558435235869097,-1,-1,0,2,3,5,0,0
1558435235884068,1,0,-1,-2,-3,-5,-1,1
1558435235884068,-4,-1,-1,-4,-1,-2,-9,-6
1558435235884711,-2,-2,-2,0,-6,-4,-7,-4
1558435235884711,-1,1,1,-6,-6,-7,-4,-3
1558435235898862,-1,-2,-2,-1,1,1,-2,-2
1558435235898862,0,-3,-2,0,-4,-5,2,-1
1558435235905654,1,2,4,2,9,9,10,3
1558435235905654,0,1,-1,1,2,5,-1,-1
1558435235920919,-2,-3,0,-1,-1,0,1,2
1558435235920919,0,-1,-1,-3,-4,-3,-2,-3
1558435235928867,-4,-2,-1,-2,-4,-6,-7,-3
1558435235928867,0,-2,-2,-2,-8,-7,-5,-3
1558435235944550,-1,0,3,3,4,0,2,0
1558435235944550,0,0,-2,1,6,7,3,0
1558435235944550,-4,-1,-3,-3,-4,1,-2,0
1558435235944550,-2,-3,-1,0,-1,-3,1,-1
1558435235957515,-1,-2,-1,2,2,0,0,-2
1558435235957515,2,2,1,-1,-2,1,-5,-1
1558435235965530,0,-1,-2,-2,0,-2,2,-1
1558435235965530,2,1,-2,-1,-3,-2,1,1
1558435235980485,-4,-1,-2,-1,-5,2,0,-4
1558435235980485,-2,-2,1,0,3,-1,-2,-1
1558435235988432,1,1,-3,2,3,3,-2,1
1558435235988432,0,0,-1,-1,5,6,2,2
1558435236003890,2,2,1,-2,-2,-3,0,1
1558435236003890,-2,-6,-3,-2,-7,-3,0,1
1558435236004389,-2,-2,-3,0,1,-3,0,-3
1558435236004389,-2,0,-2,-1,-3,-3,-5,-4
1558435236018843,1,0,1,2,2,1,1,0
1558435236018843,-3,-1,-3,-2,-5,-6,-3,-3
1558435236025841,-2,-1,3,0,2,1,1,1
1558435236025841,-1,-3,-2,-2,1,-2,1,-1
1558435236041312,-1,-2,-3,-5,-7,-4,-3,-2
1558435236041312,0,1,0,-1,1,4,-1,-1
1558435236048271,-1,-2,-1,-1,-5,-6,-1,-2
1558435236048271,0,-1,0,1,-4,-4,-4,-5
1558435236063234,1,0,1,0,8,6,3,1
1558435236063234,-2,0,0,-1,0,-4,2,2
1558435236064228,-1,0,1,2,2,6,0,-4
1558435236064228,-2,0,-2,-3,-4,-4,0,4
1558435236078191,-2,-2,-2,1,-2,-3,-2,-1
1558435236078191,0,2,0,2,3,4,3,5
1558435236085172,-2,-1,-2,-4,-7,-5,-2,-3
1558435236085172,-2,-2,-1,-2,-3,0,2,-1
1558435236100167,2,-4,-3,0,-5,-2,-1,1
1558435236100167,2,3,-2,-2,0,-3,-6,-4
1558435236109108,-10,-12,-4,-4,-10,-11,-8,-7
1558435236109108,-2,0,-3,2,1,1,-4,-1
1558435236124070,1,1,1,1,8,8,6,1
1558435236124070,-1,-3,-1,1,2,-1,-2,-1
1558435236124070,-1,-2,-2,-4,-3,-3,-2,2
1558435236124070,-5,-3,-2,-6,-9,-7,-2,0
1558435236138032,-3,0,0,0,-1,-1,-2,-1
1558435236138032,2,2,1,2,10,7,8,3
1558435236145014,2,-1,-1,-1,-1,-3,-4,1
1558435236145014,0,-2,-1,-2,-1,2,-1,0
1558435236160034,-5,-3,-7,-5,-10,-10,-5,-3
1558435236160034,-1,1,2,2,5,3,-1,1
1558435236169007,1,1,0,-1,0,-2,0,0
1558435236169007,0,1,0,-1,-2,-2,7,-1
1558435236183908,-2,-1,0,-1,0,0,-7,-3
1558435236183908,-5,-7,-4,-3,-8,-2,-3,-6
1558435236183908,1,0,0,-1,1,2,-1,-1
1558435236183908,0,-1,-1,2,2,-1,2,0
1558435236197871,0,0,0,-1,-1,-1,4,1
1558435236197871,-2,0,0,1,-1,-5,-3,-2
1558435236205864,-1,2,-1,0,2,5,1,1
1558435236205864,-2,-1,-1,-1,2,-1,-5,-3
1558435236220809,-2,-3,-2,-2,0,0,0,2
1558435236220809,-3,-2,-1,-3,-4,-3,-1,-2
1558435236228817,-1,-1,-5,-3,-9,-8,-3,-2
1558435236228817,-1,-2,-1,0,2,4,-2,-2
1558435236251761,0,-1,-1,0,-3,-3,1,-3
1558435236251761,2,0,0,0,2,2,-1,0
1558435236252760,0,1,-1,0,0,-3,0,0
1558435236252760,1,-1,0,0,1,0,-3,0
1558435236257750,2,-1,0,-2,1,-2,-1,0
1558435236257750,-1,-2,-3,-5,-9,-7,-8,-4
1558435236273935,0,1,-2,-2,2,2,8,1
1558435236273935,2,1,1,1,-3,-1,0,-5
1558435236280650,-4,3,-2,2,0,0,-4,-2
1558435236280650,-2,-3,-3,-1,1,1,-1,-1
1558435236288631,1,1,3,1,1,3,-2,1
1558435236288631,-1,-1,-2,0,-1,-4,2,1
1558435236303627,3,2,-1,0,1,0,-3,-1
1558435236303627,-3,-2,-4,-6,-10,-9,-4,-1
1558435236304586,-2,-4,-3,-2,-5,-3,3,1
1558435236304586,0,1,2,2,7,7,-2,-4
1558435236326527,0,-2,-2,-1,1,2,3,-1
1558435236326527,1,-1,0,-3,-2,-3,-2,2
1558435236326527,-4,-4,-3,-2,-8,-6,-5,-3
1558435236326527,1,0,-3,-3,-5,-3,2,1
1558435236340491,-1,0,1,2,5,5,-3,-1
1558435236340491,-3,0,-3,-2,-6,-8,1,-1
1558435236348470,0,4,3,3,9,8,1,2
1558435236348470,-2,-2,-4,-1,-2,-2,5,2
1558435236363430,-3,-3,-1,0,1,2,0,-4
1558435236363430,-1,0,-2,-6,-2,2,-5,-3
1558435236364427,-3,-1,-1,-3,-7,-7,-2,-1
1558435236364427,-2,-3,0,-1,-6,-5,-4,-4
1558435236378390,4,1,1,1,8,7,7,2
1558435236378390,3,3,1,0,-2,-3,0,2
1558435236385408,-5,-5,-1,-1,0,0,-7,-5
1558435236385408,-3,-4,1,-3,0,1,-3,0
1558435236400335,-4,-5,-4,-4,-12,-8,-2,-2
1558435236400335,4,2,1,2,8,4,1,-1
1558435236408310,2,1,-3,-3,-6,-4,-1,-3
1558435236408310,0,3,2,4,4,-2,-2,0
1558435236423268,-1,-2,-1,0,6,3,1,1
1558435236423268,-2,-2,0,1,4,2,6,0
1558435236424265,1,0,-3,-2,-3,-2,-5,-2
1558435236424265,-2,-3,-1,-4,-7,-1,-4,-2
1558435236438230,-3,1,-2,-3,-4,-4,2,1
1558435236438230,-2,-3,-3,0,-6,-4,-3,-3
1558435236445210,-1,0,1,4,7,9,-2,-2
1558435236445210,-1,-2,-3,-2,-3,-6,-1,0
1558435236460169,-1,1,-1,0,-2,-1,-3,-5
1558435236460169,-1,-2,0,1,4,5,2,0
1558435236468147,-1,-2,0,-1,-5,-7,0,0
1558435236468147,1,-1,-1,1,8,9,0,1
1558435236483109,-2,-3,0,-4,-7,-10,-2,2
1558435236483109,-4,-2,-2,-2,-11,-7,-6,-5
1558435236491088,-1,1,2,2,8,5,3,2
1558435236491088,0,1,0,2,8,4,1,-1
1558435236498068,2,4,1,1,-1,0,4,1
1558435236498068,-9,-9,-3,0,-1,-1,-2,-6
1558435236505049,-2,-3,-3,-4,-7,-6,-2,-3
1558435236505049,-3,-4,-2,-1,-6,-9,-6,-2
1558435236520010,1,1,1,-2,3,-3,-4,-1
1558435236520010,3,1,1,-1,-2,-1,-1,1
1558435236528987,-1,-4,-2,-1,0,2,4,3
1558435236528987,-1,-1,-2,-2,-3,-5,4,-3
1558435236542947,-2,-1,0,0,2,3,-5,-4
1558435236542947,0,-1,-1,1,0,-1,-2,0
1558435236550926,-2,-2,0,-1,-4,-6,-5,-4
1558435236550926,-1,-4,-4,-5,-6,-3,-2,-2
1558435236565887,2,1,3,4,10,9,9,5
1558435236565887,0,3,2,2,5,3,-5,-2
1558435236566884,-1,-2,-1,1,1,0,-2,-1
1558435236566884,-1,0,-1,-2,-2,0,0,-1
1558435236580847,-2,-4,-3,-4,-9,-3,-3,-3
1558435236580847,-1,-2,-2,-3,-2,-3,-1,1
1558435236588827,0,1,-3,-1,-5,-9,-2,-4
1558435236588827,-1,-1,-1,-2,-4,-2,-4,-3
1558435236602788,-3,-3,-1,1,4,5,2,2
1558435236602788,-2,-1,-2,0,0,-1,-1,-1
1558435236610766,2,5,2,2,7,5,2,1
1558435236610766,-1,2,1,2,2,1,-1,1
1558435236625727,-3,-3,-2,-2,-10,-9,-4,-6
1558435236625727,-1,-1,-1,-2,-7,-8,-1,0
1558435236626724,-3,-2,-4,-4,-11,-12,-6,-3
1558435236626724,5,2,3,5,16,8,2,2
1558435236640687,1,-1,0,1,5,6,7,2
1558435236640687,-1,-1,0,-1,0,1,-7,-3
1558435236648665,0,0,-1,-3,-3,-4,0,1
1558435236648665,-1,-2,-4,-4,-12,-9,-2,-1
1558435236662627,-3,-1,-1,0,0,0,-6,-5
1558435236662627,-1,-6,-1,0,4,4,3,-2
1558435236671605,-1,-2,-1,-1,2,6,1,-2
1558435236671605,-2,-2,-3,-2,-7,-7,-2,-2
1558435236686563,0,-1,-3,-3,-2,-5,-3,0
1558435236686563,0,-1,0,0,1,5,2,0
1558435236686563,2,0,-1,0,4,2,0,-1
1558435236686563,-3,-3,-1,0,-4,-5,-2,-5
1558435236700526,0,-1,-3,-4,-12,-7,-6,-5
1558435236700526,1,2,-2,1,-1,-4,1,0
1558435236708504,1,0,2,2,11,12,7,6
1558435236708504,-3,-2,0,0,1,-1,-3,-2
1558435236722467,-2,-3,-1,1,7,6,1,1
1558435236722467,2,-1,-1,-3,-2,-2,5,-1
1558435236731444,0,-1,0,-2,-7,-4,-5,-2
1558435236731444,2,2,-2,-1,-4,-5,-8,-3
1558435236746405,-11,-13,-3,1,0,0,1,-2
1558435236746405,-3,-1,-2,-3,-4,-3,-4,-2
1558435236746405,-2,-1,-1,-3,-2,-1,-1,-3
1558435236746405,0,0,1,-1,0,2,3,5
1558435236760366,0,2,-1,-2,-2,-7,-5,-2
1558435236760366,0,0,-3,2,4,5,-2,-1
1558435236768345,0,0,-3,-1,-1,-4,1,2
1558435236768345,-4,-2,-2,-3,-5,1,-5,-4
1558435236783305,2,2,-2,-2,-2,-5,-2,-2
1558435236783305,-2,-1,-2,-3,-2,-4,-1,-1
1558435236791283,-1,-2,-1,-3,-7,-3,-4,-2
1558435236791283,1,1,1,5,15,15,9,6
1558435236806246,1,1,-2,1,2,1,-3,-2
1558435236806246,0,-1,-2,0,-2,0,2,2
1558435236807241,-2,1,0,-4,-5,-7,-6,-3
1558435236807241,-1,-6,0,-1,-3,-4,4,-3
1558435236820207,0,-2,2,-1,-5,-5,0,1
1558435236820207,-2,1,-1,0,0,2,1,-2
1558435236828187,-3,-5,-5,-1,0,4,0,-5
1558435236828187,0,2,-2,-1,-3,-6,-1,0
1558435236843145,-1,1,-1,-2,-1,-2,-5,-4
1558435236843145,0,-2,0,1,-1,-6,-3,0
1558435236851126,0,5,2,3,3,5,1,0
1558435236851126,-2,-3,-3,0,-4,-4,-4,-1
1558435236866084,1,4,-1,0,-4,0,3,2
1558435236866084,-2,-5,-1,-3,-3,-5,-4,-3
1558435236867084,-1,-2,0,2,7,7,5,3
1558435236867084,3,-1,1,-3,2,3,2,3
1558435236880047,-1,0,-2,-5,-5,-10,0,0
1558435236880047,-1,0,-1,-2,-6,1,-4,-4
1558435236888030,-2,-2,-1,1,-4,-7,-5,-2
1558435236888030,0,1,-1,0,2,3,3,1
1558435236902985,-3,-2,-2,1,-1,1,-3,-2
1558435236902985,0,-1,0,-1,4,4,3,1
1558435236910965,-2,-2,0,-2,-3,-2,-2,-2
1558435236910965,-4,0,-1,-2,-6,-10,-7,-2
1558435236925923,-1,-1,0,-1,1,2,3,1
1558435236925923,0,-2,-1,-1,0,0,0,0
1558435236926922,0,0,-2,0,-1,-1,0,-1
1558435236926922,-5,-5,-3,-3,-2,-1,2,-5
1558435236940893,0,-2,-3,-2,-5,-3,-4,-2
1558435236940893,-1,1,0,-4,-4,-4,0,0
1558435236955844,0,-3,-2,-2,-4,-5,-3,0
1558435236955844,-2,3,1,-1,2,3,-5,-2
1558435236962824,-1,-5,-3,0,3,6,4,1
1558435236962824,1,-1,-2,2,3,5,0,2
1558435236970803,-1,-3,-1,-2,3,0,3,-1
1558435236970803,-1,-3,-5,-3,-10,-11,-6,-4
1558435236985764,0,3,-1,-2,-2,-4,-3,-3
1558435236985764,-2,0,-2,-3,-3,-3,-4,-2
1558435236986762,3,1,-1,2,5,3,0,0
1558435236986762,1,1,1,1,9,6,1,2
1558435237000724,-3,-5,-2,-2,-10,-9,-2,-1
1558435237000724,0,1,-3,-1,-3,-4,2,0
1558435237007705,-1,-1,0,-2,0,-1,-5,0
1558435237007705,-2,-3,-2,-1,-5,-2,0,-2
1558435237022683,3,0,2,-2,4,3,2,2
1558435237022683,-3,-3,-1,0,0,0,1,-1
1558435237038623,-3,-2,-3,0,0,2,0,-4
1558435237038623,0,-2,-2,-3,-5,-2,-1,-2
1558435237045604,-1,-3,-2,1,-2,-5,-5,-1
1558435237045604,0,4,-1,-3,1,-1,-2,0
1558435237046601,-3,-4,-1,-2,-1,0,2,-1
1558435237046601,-1,-6,-3,-1,-1,0,-3,-1
1558435237060565,-3,-2,0,-1,-3,1,-2,-2
1558435237060565,3,2,-1,0,-3,-4,-4,0
1558435237067548,-2,-2,-3,1,2,4,1,1
1558435237067548,-1,-1,-1,-1,1,4,2,0
1558435237082507,1,0,-2,-3,-4,-4,-2,-2
1558435237082507,-3,-3,0,-2,-1,-1,0,-2
1558435237091483,-1,0,-1,-2,-6,-9,-3,-3
1558435237091483,-1,0,3,2,2,0,-3,-2
1558435237106441,3,1,3,3,11,9,8,6
1558435237106441,-2,-5,-3,-3,-3,-5,-1,-2
1558435237106441,-1,-1,-3,-3,-4,-1,-2,-5
1558435237106441,-2,0,0,-1,-3,-9,-8,-3
1558435237120403,-1,-1,0,1,1,6,3,0
1558435237120403,-2,0,0,0,1,2,-1,1
1558435237128382,1,-1,-1,-2,-5,-4,-3,-1
1558435237128382,-5,-4,-5,-2,-2,-1,-1,-2
1558435237143346,-2,3,2,1,1,-3,-3,-1
1558435237143346,-3,-3,1,-2,0,0,0,-4
1558435237151322,-1,1,2,-1,-1,-6,-3,0
1558435237151322,2,1,3,0,2,2,2,0
1558435237166281,-3,-5,-9,-3,4,4,3,2
1558435237166281,0,2,1,6,5,7,4,1
1558435237167280,-2,-5,-5,-2,-4,-4,-4,-1
1558435237167280,-8,-5,-2,-6,-5,-6,-4,0
1558435237180252,-4,0,0,-4,-9,-10,-10,-7
1558435237180252,0,0,-2,-3,-4,-8,-3,-2
1558435237188223,2,2,3,2,4,1,4,3
1558435237188223,-1,-3,-9,-5,-4,-6,-4,-2
1558435237203183,-1,-1,0,-1,-3,1,-1,0
1558435237203183,-1,-1,0,0,-1,-3,-4,-4
1558435237211162,-2,0,-1,-1,1,1,1,0
1558435237211162,1,2,-1,0,1,0,1,-1
1558435237226122,1,-2,-4,-3,-1,0,-1,-2
1558435237226122,-3,-4,-3,-3,-8,-7,0,-3
1558435237227119,2,1,4,3,7,6,3,4
1558435237227119,2,2,2,3,8,5,0,0
1558435237240084,-5,-4,-1,-1,-4,-6,-5,-2
1558435237240084,0,0,1,0,0,-3,-1,2
1558435237248062,-2,0,-1,-1,-1,-1,-2,-2
1558435237248062,-2,-1,-1,-1,-8,-3,-4,-3
1558435237263023,-1,0,-1,-4,-8,-4,-6,-8
1558435237263023,0,-3,-2,0,0,-8,-4,1
1558435237271002,5,6,8,7,15,8,13,12
1558435237271002,0,-3,-4,-2,2,2,3,2
1558435237285960,-4,1,2,-1,-5,-3,-1,-2
1558435237285960,-1,-3,2,-2,-7,-6,-7,-4
1558435237286959,-3,-2,-4,-2,-6,-4,-10,-10
1558435237286959,4,7,5,-2,-2,-4,-1,1
1558435237299924,-8,-11,-1,3,5,3,3,2
1558435237299924,-4,-8,-3,-5,-1,7,0,-1
1558435237307904,-3,-4,-6,-4,-5,-3,-4,-3
1558435237307904,-1,1,1,3,2,2,6,1
1558435237322866,3,5,1,-1,-2,-5,-1,1
1558435237322866,0,0,0,0,2,1,1,1
1558435237330840,-1,-5,-7,-5,-3,2,0,-1
1558435237330840,-2,0,0,-1,-2,-2,-4,-2
1558435237345802,3,3,0,0,-1,-3,-2,-1
1558435237345802,1,4,5,5,9,12,6,2
1558435237346799,-3,-8,-7,-6,-9,-7,-4,-5
1558435237346799,-3,-1,-2,-2,-12,-10,-6,-4
1558435237360760,2,-2,-5,0,5,-1,5,4
1558435237360760,3,4,7,3,11,9,5,2
1558435237367741,-2,-3,-6,-1,-1,3,-1,-5
1558435237367741,-2,-3,0,-1,-6,-7,-5,-2
1558435237382703,-4,-5,0,-7,-11,-12,-10,-5
1558435237382703,-1,-2,-9,-4,-1,3,1,0
1558435237390681,3,6,9,5,9,6,6,4
1558435237390681,1,-1,0,1,6,4,4,1
1558435237405647,2,1,-4,-2,-3,-3,-8,-5
1558435237405647,0,3,-8,-6,-8,-6,-1,-1
1558435237413621,-8,-11,-3,1,-2,-4,1,-2
1558435237413621,1,-3,2,5,8,7,2,3
1558435237420601,2,4,2,1,7,8,7,6
1558435237420601,-3,-4,-6,-6,-7,-1,-7,-5
1558435237427582,-1,1,2,-4,-12,-13,-8,-6
1558435237427582,3,2,-7,2,6,7,7,4
1558435237442542,-1,-4,-3,1,10,4,-1,-1
1558435237442542,-1,1,3,1,-2,1,1,1
1558435237451519,1,6,3,-4,-5,-5,-1,-2
1558435237451519,-3,-4,0,-4,-7,-7,-10,-6
1558435237465481,-1,-5,-5,1,-5,-4,0,0
1558435237465481,-3,-7,-4,-5,1,-1,2,0
1558435237473465,-4,-3,-2,-2,-1,1,-3,0
1558435237473465,2,2,1,0,-3,-1,-1,0
1558435237480441,0,-1,2,-1,3,5,2,0
1558435237480441,-1,-1,0,0,-2,-3,-3,-3
1558435237488425,-1,0,0,1,2,-1,0,1
1558435237488425,0,1,0,-2,-3,-6,-2,-1
1558435237503380,-3,-3,-3,-3,-7,-4,-2,-4
1558435237503380,2,0,3,5,9,5,4,2
1558435237511358,1,1,-3,-4,-1,-1,-3,-2
1558435237511358,-2,-4,-5,-4,-5,-2,-1,-3
1558435237525322,-2,-2,-4,-2,-7,-6,-4,-3
1558435237525322,1,1,2,1,0,-3,-2,1
1558435237533299,0,0,-2,-6,-2,-2,-3,-3
1558435237533299,-6,-1,6,-1,-3,0,0,-1
1558435237540283,-1,-3,-5,-2,1,7,5,0
1558435237540283,1,0,-2,1,-1,2,3,1
1558435237548260,-3,-4,-4,2,7,3,-3,1
1558435237548260,0,1,-1,2,0,-3,-3,-1
1558435237563221,1,6,6,2,1,2,-1,0
1558435237563221,-4,-5,-3,-5,-9,-9,-8,-6
1558435237571198,3,2,2,0,-4,-2,1,1
1558435237571198,2,-1,-3,1,5,10,4,4
1558435237585160,1,3,9,-1,3,0,0,2
1558435237585160,-1,-2,-2,2,4,2,1,-2
1558435237593139,-1,-1,-2,-1,-2,-2,-2,0
1558435237593139,-2,-3,-1,-3,1,-3,-3,-5
1558435237608099,-2,-5,-7,0,-3,-5,-5,-2
1558435237608099,0,-2,3,0,-2,-8,-3,1
1558435237609097,-1,2,5,2,4,6,3,0
1558435237609097,0,0,2,-1,-1,2,1,0
1558435237623059,-3,-3,-8,-1,-3,-1,-1,-3
1558435237623059,-2,-1,2,-2,-3,2,0,-2
1558435237631038,0,-3,-2,-1,5,3,-1,-1
1558435237631038,-4,-4,-7,-4,-4,-4,-4,-2
1558435237645001,-1,1,2,0,2,-4,-1,-3
1558435237645001,-2,0,-3,1,2,2,-1,-2
1558435237653977,-2,-3,2,0,-2,4,5,0
1558435237653977,-4,-6,-8,-4,-5,-5,-4,-3
1558435237668938,3,0,-1,-1,-3,-5,-2,0
1558435237668938,-2,3,-4,-5,-6,-8,-5,-1
1558435237668938,-2,-1,3,4,10,10,4,1
1558435237668938,-1,-1,-1,2,6,7,5,1
1558435237682899,-3,-3,-2,-5,-5,-2,-3,-3
1558435237682899,3,3,-1,-2,-4,-5,-6,-4
1558435237690877,0,-2,-1,-3,-9,-4,-2,-3
1558435237690877,0,-2,-4,-2,1,-2,2,1
1558435237705842,1,3,7,2,3,1,3,1
1558435237705842,-5,-5,-6,-4,-2,0,-1,-4
1558435237713817,-6,-3,-9,-2,-3,-6,-6,-4
1558435237713817,2,3,9,2,2,4,4,2
1558435237728778,-4,-5,-10,-2,1,-1,-1,-1
1558435237728778,-2,-1,0,0,-2,-1,-3,-2
1558435237729774,0,1,-2,1,0,-2,-1,3
1558435237729774,-1,-5,-6,-8,-7,-2,-5,-2
1558435237742740,0,1,7,1,0,0,-3,-2
1558435237742740,-1,-2,-3,-2,0,3,4,1
1558435237750719,2,3,-1,1,0,-2,-2,-2
1558435237750719,-2,-5,-2,0,0,1,2,-1
1558435237765678,-2,-3,-1,-3,-4,-2,0,-1
1558435237765678,-2,-4,-5,-1,3,2,-1,1
1558435237773657,1,-1,3,2,0,-4,-3,-2
1558435237773657,-1,2,1,2,0,-2,-3,-1
1558435237788617,0,-1,-2,-5,-4,-1,-3,-1
1558435237788617,-11,-8,-3,-2,1,-1,0,0
1558435237789614,2,2,1,-3,-5,-4,-2,-3
1558435237789614,-3,-3,-3,-2,-6,-7,-6,-5
1558435237802579,-1,1,1,2,5,3,3,1
1558435237802579,4,3,7,-1,1,1,3,2
1558435237810560,-3,-5,-7,-4,-3,-2,-3,-2
1558435237810560,1,6,6,0,1,-1,-1,1
1558435237825518,0,-2,0,-1,-1,-2,-2,2
1558435237825518,0,-1,-5,-1,-1,-3,0,-2
1558435237833496,-3,-1,2,0,-2,-1,-1,-4
1558435237833496,3,2,3,3,2,-1,3,3
1558435237848458,-1,1,-1,0,-2,5,0,0
1558435237848458,2,2,2,1,0,-2,-2,-1
1558435237849456,-1,-3,-2,-2,-5,-8,-4,-1
1558435237849456,-2,-3,-4,-2,0,-2,-2,-2
1558435237864413,2,1,2,3,5,3,2,0
1558435237864413,-1,-2,1,-5,-4,-2,1,2
1558435237871400,-4,-5,-10,-7,-6,-5,-6,-4
1558435237871400,-5,-5,-7,-2,-3,1,-3,-3
1558435237885357,-2,5,0,1,-1,-3,-2,-2
1558435237885357,1,1,2,4,3,4,3,-1
1558435237893336,-1,-4,-1,-2,-2,-1,-1,0
1558435237893336,0,3,6,2,0,0,1,0
1558435237908298,-2,-4,-4,-3,-2,-4,-3,-2
1558435237908298,1,2,2,1,-2,-2,-2,-2
1558435237909296,-3,-3,-1,-4,1,0,-1,0
1558435237909296,-1,-2,-10,-1,-3,0,0,1
1558435237923258,2,3,3,-2,-6,-1,0,-4
1558435237923258,-5,-10,-11,-7,-1,-3,-4,-2
1558435237931245,3,5,2,3,6,3,4,3
1558435237931245,-9,-8,1,-2,1,0,-1,-3
1558435237945197,-1,-3,-1,4,-2,-4,-2,-1
1558435237945197,-3,-5,-8,-7,-7,-5,-5,-3
1558435237954174,1,0,0,-2,1,3,2,0
1558435237954174,2,2,-1,-3,-1,-3,-1,0
1558435237968142,0,-3,-5,-4,2,3,1,2
1558435237968142,1,4,6,5,1,-2,-2,0
1558435237969135,-2,-5,-5,-2,-6,-3,-3,-4
1558435237969135,0,-3,0,-2,-2,-2,1,1
1558435237984094,-2,-2,0,0,3,1,1,0
1558435237984094,0,2,-1,3,-1,-1,-1,-1
1558435237999053,1,4,3,-1,0,1,-1,2
1558435237999053,2,3,-3,1,1,-2,-3,-1
1558435238005045,-4,-7,-1,-2,-4,-4,-2,-2
1558435238005045,-3,-5,-6,-6,0,2,0,-2
1558435238014023,-2,0,1,-1,1,-1,-1,-2
1558435238014023,1,-3,3,0,-1,0,-3,0
1558435238028974,0,-1,-1,-5,1,2,1,2
1558435238028974,3,4,7,3,3,2,1,1
1558435238028974,-4,-6,-7,-2,-3,-3,-2,-2
1558435238028974,-1,-3,-5,-1,-4,-5,-3,-3
1558435238042936,-2,-4,-7,-1,0,-2,-1,-3
1558435238042936,0,5,10,4,6,4,5,2
1558435238049918,-1,-4,-2,-4,-1,-1,0,-3
1558435238049918,-2,-3,0,0,-1,0,0,-1
1558435238065874,2,3,3,0,-1,-3,-2,-2
1558435238065874,-2,-2,-4,-2,-6,-7,-7,-2
1558435238073854,0,3,4,4,4,3,2,-2
1558435238073854,-1,2,1,-1,3,0,0,0
1558435238088815,-3,-1,2,-2,-5,-3,-2,0
1558435238088815,0,-3,-5,-5,-1,1,-1,1
1558435238088815,-1,0,-2,3,0,-2,-5,-2
1558435238088815,-4,-5,-4,-5,-4,-2,-1,-4
1558435238102781,-1,-3,-8,-5,-2,2,-2,-4
1558435238102781,0,3,5,1,-1,-3,0,-1
1558435238110755,-1,-5,-4,-2,-5,-3,-2,1
1558435238110755,1,0,-3,-2,-3,-1,0,-2
1558435238125716,-1,1,-2,3,-2,-4,-1,0
1558435238125716,-2,-3,2,-3,0,-1,0,-3
1558435238133693,3,4,4,1,-1,-1,-1,1
1558435238133693,-4,-3,-5,-4,-1,2,-1,-2
1558435238148684,-1,4,7,0,0,3,2,0
1558435238148684,-2,-5,-11,-5,-2,-2,-3,-4
1558435238149651,-1,-1,2,0,2,-3,1,-1
1558435238149651,4,4,6,1,-4,-4,-1,0
1558435238171594,-3,-2,-2,1,5,1,1,1
1558435238171594,-3,-5,-5,-3,-3,0,-2,-1
1558435238171594,1,0,-2,-1,-2,-2,-2,-1
1558435238171594,2,2,4,2,2,-1,1,1
1558435238185557,-2,-7,-2,-1,-2,-1,-1,-1
1558435238185557,0,0,-2,2,2,1,1,0
1558435238193541,-4,-3,-4,-6,-3,0,0,-3
1558435238193541,0,5,2,0,0,-2,-3,0
