timestamp,emg1,emg2,emg3,emg4,emg5,emg6,emg7,emg8
1558439281146623,-3,0,-10,-9,-7,-7,-4,-3
1558439281146623,-1,0,0,-1,0,-1,3,1
1558439281152604,-3,-3,-2,-10,-1,-2,-3,-3
1558439281152604,-1,0,8,17,0,-6,-5,-2
1558439281153602,-3,-3,-4,1,-4,3,-3,-1
1558439281153602,-2,0,-4,-7,-2,-7,-1,0
1558439281154599,1,-1,-9,-4,-6,-6,-6,-2
1558439281154599,-1,-2,6,-2,7,9,8,1
1558439281174545,-1,-1,1,1,-5,-6,-1,-3
1558439281174545,1,-1,-4,-2,1,-3,-7,-5
1558439281175543,0,-1,1,11,-1,5,0,1
1558439281175543,-3,-1,-11,-22,-16,-15,-10,-4
1558439281181544,3,0,5,0,15,20,11,3
1558439281181544,-4,-5,-10,1,-12,-6,-6,-7
1558439281197493,-1,-1,-3,-1,5,-1,2,1
1558439281197493,1,1,5,1,4,5,2,-1
1558439281204467,-1,1,-2,-3,-8,-15,-6,0
1558439281204467,3,-3,-3,-7,-3,7,2,-1
1558439281219426,1,-1,-3,-11,-6,-5,-3,-3
1558439281219426,-1,-2,6,2,7,6,2,3
1558439281226407,-4,-3,-9,-3,-4,-9,-4,-2
1558439281226407,-4,0,3,1,3,4,-5,1
1558439281242364,-1,0,-6,-8,-3,-1,-2,0
1558439281242364,1,-1,-3,4,-6,-2,-1,-2
1558439281243361,-1,0,3,-1,-4,-1,0,-3
1558439281243361,0,-1,5,2,6,-7,6,3
1558439281264306,-1,0,12,11,7,10,4,-2
1558439281264306,-2,-2,-11,-8,-5,0,-2,-4
1558439281264306,0,0,7,7,6,-3,-4,2
1558439281264306,-4,-1,-4,-4,-10,-4,0,-3
1558439281311180,1,0,4,-2,-1,-3,0,-2
1558439281311180,-1,-4,-8,-10,-3,-2,-6,-5
1558439281312178,-2,-3,-6,4,-7,-4,2,-1
1558439281312178,2,1,10,18,8,-6,-6,1
1558439281313174,1,-2,-18,-37,-9,1,10,1
1558439281313174,-1,1,6,18,3,-2,-3,-1
1558439281317165,-1,-1,5,5,5,3,-1,-3
1558439281317165,-1,-2,-6,-16,-9,4,-1,-4
1558439281332124,-2,1,2,14,2,-8,1,1
1558439281332124,1,1,4,2,8,-1,3,3
1558439281333122,-3,-2,-5,-13,-3,7,-4,-1
1558439281333122,1,-2,-3,-8,-4,0,-6,-4
1558439281338109,-1,1,6,10,-2,-10,-5,0
1558439281338109,-4,0,-1,0,-1,1,5,-2
1558439281354065,0,3,-1,-8,11,8,1,0
1558439281354065,-1,-2,-6,-2,-8,-13,-5,0
1558439281360049,1,-3,1,-7,-2,3,-1,0
1558439281360049,-1,-4,-13,-14,-18,-6,-4,-4
1558439281369026,4,2,9,10,9,5,5,5
1558439281369026,-4,-2,1,11,5,5,1,-1
1558439281382987,-3,-3,-2,-4,2,4,-2,-6
1558439281382987,-1,0,-1,9,5,4,1,0
1558439281391964,2,1,-9,-14,-9,-8,0,0
1558439281391964,-5,-5,0,1,1,-3,-1,-3
1558439281397948,0,2,2,5,2,2,2,0
1558439281397948,-3,-2,3,-2,3,3,-3,-2
1558439281413905,-2,-2,0,-4,-11,-6,-4,-2
1558439281413905,-2,0,-3,-5,4,-5,2,-1
1558439281428864,-4,-4,-2,5,-8,-2,-6,-3
1558439281428864,0,-1,-2,-2,-1,1,-5,-2
1558439281430860,-1,-1,-2,-6,2,-1,1,2
1558439281430860,1,1,6,6,6,3,3,5
1558439281451804,0,0,-2,1,3,3,-4,-1
1558439281451804,-2,-3,4,4,-9,-6,-3,-2
1558439281452801,-1,-1,8,9,1,-2,1,0
1558439281452801,-2,-5,-23,-28,-11,-9,-6,-4
1558439281457787,-1,-1,-2,6,6,-3,-1,1
1558439281457787,2,3,12,13,5,3,6,1
1558439281474752,-4,-7,-21,-34,-13,-10,-12,-8
1558439281474752,-1,-2,3,5,-5,0,-2,-4
1558439281480726,1,2,2,1,-2,-2,2,4
1558439281480726,-1,-2,-4,-8,-3,0,-5,-2
1558439281504661,1,1,19,22,13,11,7,3
1558439281504661,0,0,-8,-14,-5,-10,2,2
1558439281505660,-1,-4,-3,-2,-6,-2,-6,-3
1558439281505660,0,-1,-8,-18,-7,-2,-5,-1
1558439281519623,0,2,6,12,-2,-4,-4,-2
1558439281519623,-1,0,-1,-3,2,8,1,-4
1558439281520619,-1,2,-3,-9,2,-4,1,-1
1558439281520619,-3,-4,4,13,0,-5,-2,0
1558439281542566,-3,-3,-9,-11,-9,-4,-1,-3
1558439281542566,-1,1,5,-2,5,8,2,2
1558439281543561,1,-1,7,7,1,-7,-7,-2
1558439281543561,-1,-2,-5,-2,-5,-16,-4,-2
1558439281563510,2,0,-4,-5,3,10,7,-1
1558439281563510,-2,-1,2,5,4,5,4,0
1558439281564504,-2,0,7,7,2,6,2,-1
1558439281564504,2,-1,-12,-18,-4,-2,-2,1
1558439281571484,-4,-2,-9,-3,-7,-10,-8,-2
1558439281571484,2,1,5,-1,-1,4,1,-1
1558439281577468,-1,-4,-4,1,-3,-4,-1,-1
1558439281577468,1,2,2,-1,-2,-5,-3,-1
1558439281594423,-4,-2,3,9,0,-5,-3,-2
1558439281594423,-2,-1,-2,-4,0,1,-2,-2
1558439281600407,0,-3,-7,-3,-5,-2,-2,-1
1558439281600407,-1,0,3,-5,-1,3,0,1
1558439281615367,-2,-3,-9,-6,-4,3,-3,-2
1558439281615367,2,2,6,10,7,-11,-1,3
1558439281623344,0,0,4,12,2,-6,-4,-3
1558439281623344,-1,1,-6,-22,-1,6,8,1
1558439281631323,-3,-8,-20,-13,-8,-3,-6,-5
1558439281631323,-1,-2,0,-2,-7,-6,-2,-2
1558439281638317,-1,-2,-6,-6,0,6,4,-1
1558439281638317,-4,-1,4,7,1,1,4,-1
1558439281654263,2,6,10,3,10,-5,4,4
1558439281654263,1,1,8,9,-8,-7,-5,-2
1558439281660249,-2,-3,-10,-11,-1,4,-4,-1
1558439281660249,-2,-1,2,4,11,18,6,-1
1558439281675208,-1,2,8,13,-2,-5,-2,0
1558439281675208,0,-2,-10,-16,-6,-1,-3,-3
1558439281683185,1,4,5,-1,-2,-1,-2,0
1558439281683185,-1,-3,-3,-3,-4,0,-3,-3
1558439281692161,3,2,8,9,9,-9,3,4
1558439281692161,0,0,3,-1,-1,0,2,3
1558439281698145,-4,-7,-8,3,-11,-7,-12,-10
1558439281698145,0,-1,-7,-11,1,6,2,0
1558439281714102,-1,-2,1,1,-4,-5,-6,-1
1558439281714102,-2,-1,-3,-2,1,0,-3,-1
1558439281720086,-2,0,5,3,3,-1,1,0
1558439281720086,-1,1,-1,9,2,2,0,2
1558439281735047,-3,-5,-11,-18,-7,2,-1,-4
1558439281735047,-1,0,1,5,3,4,1,-2
1558439281743025,-1,-1,2,1,0,4,2,0
1558439281743025,0,1,3,6,5,-1,1,-4
1558439281752001,0,-2,-1,4,-13,-8,-8,-7
1558439281752001,1,-1,-3,-5,14,17,10,3
1558439281757984,-1,1,5,-7,-3,-7,1,-1
1558439281757984,-2,-1,6,5,0,-4,-3,-1
1558439281773942,-3,-4,-8,-1,-12,-6,-2,-2
1558439281773942,0,0,1,3,-2,-9,-2,-1
1558439281779926,-1,3,-3,-6,3,9,4,3
1558439281779926,0,1,3,3,5,2,0,0
1558439281794887,0,1,7,14,10,9,4,-1
1558439281794887,-2,-3,-2,3,1,6,1,1
1558439281802865,-2,-2,-5,-11,-7,-4,-5,-5
1558439281802865,-1,-1,-3,15,-10,-16,-10,-4
1558439281811841,-2,2,-1,-26,0,5,0,-3
1558439281811841,-3,-5,-10,-3,-5,3,2,0
1558439281825805,-1,-3,5,3,2,-1,-1,2
1558439281825805,-2,-3,-16,-24,-7,-10,-6,-1
1558439281834780,2,2,1,3,6,-3,5,2
1558439281834780,-2,2,-2,-2,-11,-7,-7,-3
1558439281840768,1,-1,-2,1,-2,3,-3,-1
1558439281840768,1,-1,4,2,6,5,9,5
1558439281855725,1,0,5,5,3,2,-4,2
1558439281855725,1,0,6,3,-5,-3,-6,-6
1558439281862705,1,2,-8,-7,6,7,6,3
1558439281862705,1,0,3,-1,1,-4,-1,-2
1558439281871680,-1,-1,1,1,3,1,-2,-1
1558439281871680,-2,-3,-6,1,-5,0,2,1
1558439281885644,-1,0,-8,-10,-6,-6,-8,-3
1558439281885644,-5,-5,-2,6,-6,7,0,-3
1558439281894620,0,1,2,2,12,11,10,4
1558439281894620,-2,-2,-1,-5,-2,-8,0,1
1558439281900603,0,1,6,12,3,-4,-1,-1
1558439281900603,0,-3,-8,-9,-11,-9,-6,-2
1558439281915564,-4,-4,-2,0,-8,0,-10,-6
1558439281915564,-2,-2,-6,-3,-4,-4,-7,-3
1558439281922546,-1,3,3,-3,-3,-2,4,-1
1558439281922546,1,-1,2,5,13,9,4,2
1558439281931523,-5,0,-2,1,-3,-12,2,-4
1558439281931523,1,2,6,4,3,-3,4,2
1558439281945484,0,-1,-4,-1,-6,-3,0,2
1558439281945484,3,1,-4,-10,-7,-2,-4,-3
1558439281954460,1,0,9,12,10,7,7,3
1558439281954460,-4,-1,-4,-5,-2,1,-5,-3
1558439281960442,-4,-3,6,5,5,4,-2,-1
1558439281960442,-4,-1,0,-1,-9,-4,-4,-2
1558439281975405,-1,-3,-11,-11,-8,-4,-5,-1
1558439281975405,1,0,8,11,9,3,3,-1
1558439281983382,-2,-4,-4,-7,-6,-9,-2,-2
1558439281983382,0,-2,-2,-1,2,-4,-3,-1
1558439281991362,2,1,2,-3,-6,-3,-4,-2
1558439281991362,-4,-3,-7,-6,-7,-1,-3,-2
1558439282005329,-1,-3,-1,6,3,3,3,1
1558439282005329,-2,-2,1,0,4,6,2,2
1558439282015297,-3,-1,-1,1,-4,-3,-3,-1
1558439282015297,-1,1,6,-5,-1,-7,-1,-1
1558439282020283,-3,0,-2,1,0,-6,-5,-3
1558439282020283,-3,-3,-5,-10,-9,-3,-3,-2
1558439282035242,0,-4,10,16,9,19,5,2
1558439282035242,1,1,-12,-8,1,-12,1,2
1558439282043227,0,0,-2,-4,2,-5,2,1
1558439282043227,1,2,9,11,2,3,-3,-2
1558439282052198,0,-3,-8,-12,-15,-8,-7,-4
1558439282052198,-3,-4,1,-1,14,9,0,-2
1558439282065164,1,0,3,0,2,1,1,3
1558439282065164,-1,-5,-23,-16,-6,-5,-3,-6
1558439282074147,-1,1,5,3,-2,-4,-2,-2
1558439282074147,-1,-2,-3,-1,-3,5,1,-3
1558439282080124,-3,-4,-4,-7,-14,-8,-7,-4
1558439282080124,0,2,11,15,19,19,10,5
1558439282096083,-3,0,-4,-8,2,-6,-2,1
1558439282096083,1,-3,-3,-4,-7,-2,-1,-2
1558439282103066,-1,-4,-9,-4,-6,5,-4,-2
1558439282103066,-3,0,4,1,0,3,2,0
1558439282112040,0,0,5,4,-1,-37,-1,6
1558439282112040,0,0,-1,7,7,5,4,1
1558439282125005,-3,-3,-5,-4,-2,-3,0,-3
1558439282125005,-1,-2,-7,-12,-11,0,-6,-5
1558439282133979,0,0,7,17,8,14,-2,-2
1558439282133979,0,0,0,-14,-4,-1,-2,-1
1558439282140962,0,-3,7,1,2,-12,-5,-2
1558439282140962,-2,0,-5,-1,-5,-11,1,0
1558439282155930,1,0,-5,-1,5,9,11,3
1558439282155930,1,-1,3,7,0,6,1,-2
1558439282162904,-1,2,-2,-4,2,12,3,0
1558439282162904,1,3,10,10,2,-6,-6,1
1558439282171879,-4,-4,-16,-16,-10,2,-8,-4
1558439282171879,-2,-2,-6,-13,-7,2,1,-1
1558439282185841,2,1,9,14,12,4,6,4
1558439282185841,-5,-3,-4,-10,-14,-16,-3,-1
1558439282193819,-1,-2,-14,-14,-5,0,0,-3
1558439282193819,-1,-1,6,6,-2,-8,-3,0
1558439282200801,-3,-2,-3,7,4,2,-3,-3
1558439282200801,1,1,-7,-11,-1,-3,0,2
1558439282215762,-2,-2,-1,0,1,7,1,-2
1558439282215762,1,2,2,4,-1,-3,-3,-1
1558439282222747,1,-2,6,3,2,-3,2,0
1558439282222747,0,-1,-9,-14,-4,-5,-1,0
1558439282231718,-3,-2,2,-1,-7,2,-5,-4
1558439282231718,-2,-4,-6,2,-4,-4,-8,-4
1558439282245685,1,3,5,8,13,9,7,5
1558439282245685,-3,-5,-1,2,-2,-4,-1,-3
1558439282254659,0,2,9,-1,-7,-18,-3,-2
1558439282254659,-3,-6,-19,-23,-9,-2,0,-3
1558439282260645,-1,-2,1,11,-4,9,-2,-1
1558439282260645,-1,-2,-7,-2,3,-3,-2,2
1558439282275601,-2,-2,-8,-12,-8,-4,-4,-2
1558439282275601,0,1,8,5,4,-4,-4,-2
1558439282282582,-2,1,0,-5,-2,-7,3,-1
1558439282282582,2,-2,-1,-1,2,11,0,0
1558439282298539,-2,-3,-5,-3,-4,-6,-4,-6
1558439282298539,-2,2,1,2,6,15,4,3
1558439282305519,1,0,2,-1,-7,-7,-5,-2
1558439282305519,-2,-1,-1,2,3,6,2,-2
1558439282321477,-1,-3,-7,-10,-1,-5,-2,0
1558439282321477,0,-1,6,3,-1,3,0,0
1558439282321477,-2,-2,-2,-3,-3,2,2,-1
1558439282321477,0,1,10,13,4,-2,-2,0
1558439282335445,1,1,1,-4,3,-5,-3,1
1558439282335445,0,-1,0,6,-4,-1,-5,-2
1558439282343420,-3,-3,-10,-15,-1,3,1,0
1558439282343420,-1,-1,-2,-3,-7,-8,-4,-3
1558439282358381,-3,-3,2,12,1,2,1,1
1558439282358381,0,2,5,3,5,5,5,3
1558439282365364,2,2,6,3,4,1,-2,-1
1558439282365364,-2,-3,-7,-15,-15,-13,-5,-4
1558439282381319,2,1,7,8,10,-1,4,2
1558439282381319,0,1,-1,-4,6,6,6,0
1558439282382316,0,-2,-9,-9,-3,-5,-3,-3
1558439282382316,-3,-2,6,10,0,-1,-2,-3
1558439282395291,2,3,7,6,2,7,-3,-2
1558439282395291,0,-1,-12,-14,-13,-12,-7,-3
1558439282403269,-3,-6,-3,-1,-5,-1,-3,-3
1558439282403269,1,0,0,-3,2,5,1,4
1558439282418221,0,1,-2,-2,-2,-13,-1,2
1558439282418221,0,0,13,15,2,0,-1,-1
1558439282425202,0,1,-9,-8,2,3,2,-1
1558439282425202,0,0,7,10,4,2,-3,-3
1558439282441158,-4,-3,-4,-1,-3,9,1,-2
1558439282441158,-1,1,2,2,4,-11,-1,0
1558439282442155,-2,-1,-6,-9,-5,-4,-2,-1
1558439282442155,-2,-1,2,-1,-2,-3,1,1
1558439282455120,1,-1,-5,1,1,10,3,2
1558439282455120,1,-2,3,7,4,-8,1,-1
1558439282463098,-2,-1,-4,-7,-5,-2,-3,-3
1558439282463098,1,2,2,1,-4,-3,1,0
1558439282478058,-3,-5,-5,-1,-4,-5,-5,-4
1558439282478058,-2,-2,-7,-8,4,9,0,1
1558439282485039,-3,-4,3,8,-1,-4,1,0
1558439282485039,-1,0,3,-1,0,0,-2,-3
1558439282501000,0,0,-3,-7,-4,1,-1,-1
1558439282501000,-1,-2,0,0,-4,-6,-2,-3
1558439282501996,-2,0,4,5,6,-3,0,2
1558439282501996,-2,-3,-4,-4,1,4,0,-4
1558439282514964,1,3,7,1,-1,7,3,2
1558439282514964,-3,0,-8,1,-4,0,-1,-2
1558439282523000,1,0,4,4,1,-5,-5,-2
1558439282523000,0,-2,0,1,-1,-9,-1,3
1558439282537900,-3,-4,-11,-17,-5,-1,-4,-3
1558439282537900,-2,-1,3,1,-5,6,2,2
1558439282545958,-1,0,-6,-6,-6,-6,-3,-3
1558439282545958,-1,-1,-5,-9,-1,1,-2,-4
1558439282560879,0,-1,1,8,9,8,7,2
1558439282560879,-2,-1,6,11,1,-12,-3,0
1558439282561842,-1,-2,-5,-8,-5,2,-1,-1
1558439282561842,-1,-2,-4,4,3,-6,-1,0
1558439282575885,0,-1,0,-1,-3,-3,2,1
1558439282575885,1,-3,0,-7,0,5,1,-3
1558439282582789,-1,-1,3,14,-5,0,-3,-4
1558439282582789,0,-1,-1,-6,3,6,2,0
1558439282597742,-2,-2,13,1,4,-6,-8,-2
1558439282597742,-3,-5,-13,-2,-11,-5,-4,-3
1558439282605720,-1,-1,-2,-4,0,3,3,1
1558439282605720,0,2,9,12,2,-1,-4,-2
1558439282620695,0,1,-6,-4,-5,-4,3,1
1558439282620695,-1,-1,2,-5,-2,3,0,-1
1558439282621689,0,-2,-2,-5,-1,-7,-6,-3
1558439282621689,-1,-2,-1,1,-2,2,-2,-4
1558439282635640,0,1,0,0,2,-2,-4,-1
1558439282635640,-2,-1,-3,-3,-5,-4,-1,0
1558439282642620,0,0,-1,1,2,7,1,0
1558439282642620,-1,0,0,-3,6,2,5,2
1558439282657606,-2,-1,-5,-1,-1,3,2,0
1558439282657606,-3,-3,-11,-14,-10,-9,-9,-4
1558439282665583,-2,-1,8,5,-4,-8,-6,-4
1558439282665583,-2,-3,-10,-9,-6,0,1,1
1558439282681517,0,1,12,13,5,3,1,-1
1558439282681517,0,-1,-7,-5,6,4,0,1
1558439282681517,1,0,0,-5,-2,-3,1,0
1558439282681517,0,0,2,10,3,0,-1,2
1558439282696688,-1,-4,-6,-9,-7,0,-1,-2
1558439282696688,3,2,3,4,6,3,1,1
1558439282703648,0,0,-6,-9,0,2,4,2
1558439282703648,-2,0,4,3,3,4,-2,-2
1558439282718572,-2,-4,-9,-5,-12,-12,-5,-2
1558439282718572,0,-2,6,11,2,-1,0,-2
1558439282725683,-3,-2,-7,-19,-8,-2,-6,-3
1558439282725683,-1,-2,6,14,0,3,4,-1
1558439282740581,-1,-1,-17,-22,-2,-6,-3,-1
1558439282740581,-2,1,-2,-11,-2,-3,-3,-1
1558439282748339,-3,-3,2,5,-2,-3,-3,-2
1558439282748339,-2,-4,1,-2,-8,-13,-11,-5
1558439282757315,0,0,-5,7,5,10,3,1
1558439282757315,-2,0,3,5,-5,-18,-5,-4
1558439282763611,0,1,0,3,8,9,8,1
1558439282763611,0,2,8,1,3,-1,-4,0
1558439282778483,-2,-3,-11,-11,-14,1,-4,-5
1558439282778483,1,-2,-2,-2,-4,-7,-2,-1
1558439282785444,0,-1,-10,-2,0,-3,-3,-1
1558439282785444,0,0,4,3,8,2,9,5
1558439282800199,0,2,7,-1,1,1,-2,0
1558439282800199,-2,-1,0,-4,-1,8,-1,0
1558439282808178,1,-1,-2,5,-6,0,-5,-1
1558439282808178,3,0,-9,-4,-1,5,7,-1
1558439282817155,0,-1,2,-7,10,3,4,2
1558439282817155,1,0,6,7,-3,1,-3,-1
1558439282823136,1,-1,6,1,2,2,2,-1
1558439282823136,0,0,-5,-9,-3,0,-4,-1
1558439282838105,0,-1,9,22,5,-2,3,-1
1558439282838105,-3,-3,-13,-24,-9,-7,-3,0
1558439282846124,0,2,7,3,4,5,1,0
1558439282846124,-3,-4,-7,-1,-10,-4,-7,-4
1558439282860047,0,0,-3,-6,2,2,-1,0
1558439282860047,-2,-1,12,15,9,-3,0,0
1558439282868043,-1,-2,-11,-19,-5,5,1,-1
1558439282868043,-3,1,-10,-13,-3,-5,0,-2
1558439282877019,-3,-3,1,2,-2,-13,-4,-4
1558439282877019,-2,0,2,0,2,5,-5,0
1558439282882977,-3,-4,-1,12,-3,-5,-1,1
1558439282882977,-1,1,5,-4,5,-1,5,0
1558439282897936,0,0,4,6,-3,1,-4,-2
1558439282897936,-3,-3,-16,-19,-5,0,-4,-7
1558439282904919,-1,-4,-1,-2,-6,-2,-6,-6
1558439282904919,1,-1,-5,-4,-1,1,0,0
1558439282920905,-1,1,6,3,2,1,7,4
1558439282920905,0,-1,-2,0,1,2,1,-1
1558439282928161,0,3,2,-1,6,-1,0,2
1558439282928161,-3,-7,-8,-5,-10,-3,-7,-5
1558439282944114,2,1,0,0,-6,-8,-6,0
1558439282944114,1,1,7,4,-2,-4,0,0
1558439282944820,-4,-1,-10,-6,1,-8,-1,1
1558439282944820,-1,3,6,5,5,2,1,-1
1558439282958078,1,2,10,19,8,7,2,1
1558439282958078,0,-4,-13,-22,-8,-4,0,-2
1558439282965970,-3,-4,-8,-3,-6,-8,-6,-6
1558439282965970,-1,-1,-6,3,-1,-1,2,2
1558439282980720,-1,-2,-2,-2,-2,1,-7,-3
1558439282980720,2,1,1,-4,-1,11,7,0
1558439282987710,-2,0,8,9,0,-5,-3,-1
1558439282987710,-2,-2,-4,-3,-4,-3,-5,-3
1558439283003846,-4,-5,-3,1,-4,-3,0,-3
1558439283003846,-1,-3,1,8,4,0,-3,0
1558439283004654,2,3,1,5,5,3,7,2
1558439283004654,-2,-2,2,-4,0,-7,-3,3
1558439283017620,-1,1,-2,-11,1,1,-5,-2
1558439283017620,-1,-1,-1,8,0,2,0,-2
1558439283025598,-1,0,-7,-8,-1,-1,0,0
1558439283025598,0,-2,2,3,-2,2,-1,-2
1558439283040763,-4,-5,-6,-2,-10,-7,-4,-1
1558439283040763,-1,0,-2,-8,-6,-3,-5,-2
1558439283047538,2,0,4,-1,5,10,2,0
1558439283047538,3,1,3,8,8,4,7,2
1558439283063493,-1,-2,-15,-22,-12,-13,-6,-4
1558439283063493,-1,-1,8,19,11,1,1,0
1558439283064490,-1,-2,-3,-12,-16,-6,-4,-1
1558439283064490,-2,0,1,3,-2,1,-4,-1
1558439283078745,0,-2,1,0,7,13,2,1
1558439283078745,-1,-2,-9,-9,-7,-11,-1,1
1558439283093724,0,-2,3,6,8,4,7,2
1558439283093724,-1,-2,1,3,-1,-3,-2,-2
1558439283100679,-1,1,-1,-5,-3,-1,-1,-2
1558439283100679,-2,0,-8,-4,-5,0,1,-2
1558439283116631,0,-2,0,-3,-2,0,-1,0
1558439283116631,-3,1,2,-10,-2,-1,0,-2
1558439283123616,-2,-3,-2,-5,-2,-3,1,-2
1558439283123616,0,-2,3,9,2,2,1,-2
1558439283124331,1,-1,-8,-4,-1,-4,-5,-1
1558439283124331,1,0,-5,-3,0,3,3,1
1558439283139297,-2,-2,2,1,-2,-3,-4,-1
1558439283139297,-1,-1,4,-1,0,0,-4,1
1558439283145464,-1,1,8,-1,0,-2,-5,-1
1558439283145464,0,-1,-3,3,-1,-3,-1,0
1558439283170220,0,-1,0,5,0,0,0,-1
1558439283170220,-2,-3,-3,-14,-1,-5,-3,-2
1558439283171207,-3,-1,1,5,1,7,2,0
1558439283171207,-2,0,5,8,4,-2,0,-1
1558439283185182,3,3,0,-7,-4,-4,5,3
1558439283185182,-1,-3,-1,9,8,9,5,0
1558439283186169,-2,-3,-5,-12,-6,-8,-2,-2
1558439283186169,0,-2,-5,-9,-6,-1,-4,-2
1558439283206337,0,1,1,2,-2,-7,-2,-1
1558439283206337,1,1,2,2,-4,2,-3,-1
1558439283207120,0,0,-2,0,1,2,3,-1
1558439283207120,-2,-1,-1,3,3,3,1,1
1558439283229055,0,-1,6,5,6,-1,1,3
1558439283229055,-1,-1,-4,4,-5,-9,-6,-1
1558439283229055,-3,-4,-6,-15,-3,-1,-3,-3
1558439283229055,2,1,1,-11,-12,-12,-9,-3
1558439283251988,-4,-6,-12,1,0,1,-2,-3
1558439283251988,0,-1,5,4,3,-3,4,3
1558439283251988,1,-2,5,12,-1,-5,-2,0
1558439283251988,-3,-2,-4,-7,-5,-5,-3,-1
1558439283257973,-1,0,1,6,-1,4,-1,-1
1558439283257973,0,-1,-1,-2,-5,0,-4,-4
1558439283273930,-3,-3,-12,-4,-4,-11,-1,-1
1558439283273930,-1,-2,3,1,2,-1,-2,-3
1558439283280414,1,0,4,7,4,3,1,0
1558439283280414,-2,0,8,-1,-3,0,-2,-1
1558439283288056,-2,-1,7,8,4,2,-5,-4
1558439283288056,-2,-5,-21,-12,-7,0,-2,-2
1558439283304006,-2,-1,-5,-4,3,5,0,0
1558439283304006,1,0,0,0,2,7,4,1
1558439283304006,1,-2,0,6,6,10,6,3
1558439283304006,1,0,1,5,-3,-9,-1,2
1558439283318156,-2,-2,-7,-20,-14,-11,-7,-3
1558439283318156,-2,0,4,9,8,1,1,2
1558439283326117,-1,0,2,5,0,3,0,-2
1558439283326117,-1,0,2,-2,2,6,1,1
1558439283340754,-1,-4,-4,-5,-8,-1,-5,-6
1558439283340754,-3,-1,3,-2,1,-6,-1,-1
1558439283347738,-1,-1,-5,-3,3,1,3,4
1558439283347738,-2,-2,-3,-8,-2,2,-2,-2
1558439283372669,1,2,3,4,3,-8,-1,4
1558439283372669,-3,-6,-13,-21,-15,-13,-8,-5
1558439283372669,-1,1,4,3,-2,2,-5,0
1558439283372669,3,0,7,6,9,14,11,4
1558439283378693,-3,-1,0,1,1,-3,-5,-2
1558439283378693,-2,-2,-10,-8,-10,3,-1,0
1558439283385826,0,0,5,2,11,4,10,5
1558439283385826,-1,-2,-7,-7,-7,-5,-5,-4
1558439283400632,0,1,14,23,9,8,2,1
1558439283400632,0,-3,-16,-21,0,0,-3,0
1558439283416772,-4,-7,-9,-17,-16,-14,-17,-8
1558439283416772,-2,-2,4,4,-5,-3,-2,-4
1558439283423724,-2,-4,-18,-13,0,7,7,-2
1558439283423724,1,2,14,15,4,-5,1,0
1558439283424537,0,1,-6,-5,1,-4,5,3
1558439283424537,-2,-1,-2,-7,-3,-2,1,0
1558439283439489,-1,1,9,12,-7,-13,-11,-6
1558439283439489,0,-3,-5,-12,-3,7,6,3
1558439283445473,-2,0,3,10,1,-6,6,2
1558439283445473,0,2,2,-1,-3,-6,-1,-1
1558439283460659,0,0,-4,-16,-5,3,0,-1
1558439283460659,-1,-1,-2,5,5,1,-2,-3
1558439283468613,-1,0,5,11,8,5,1,-1
1558439283468613,-1,0,-7,-1,-1,-1,0,0
1558439283485366,-2,-4,-1,-8,-5,-5,-1,-2
1558439283485366,-3,0,-2,1,-7,-4,-6,-4
1558439283485366,2,-1,-1,1,-5,1,-4,-3
1558439283485366,0,0,2,4,5,2,-2,-2
1558439283506310,-2,-5,-4,-14,-3,-4,2,0
1558439283506310,-1,0,1,17,10,6,3,0
1558439283506310,-2,-1,-3,-20,-6,-5,-2,1
1558439283506310,0,1,0,-1,4,6,6,2
1558439283528249,-2,0,0,7,0,0,0,0
1558439283528249,-3,-4,-7,-7,-6,-3,0,-1
1558439283529246,-1,-2,-9,-3,-13,-10,-9,-5
1558439283529246,-1,-3,-2,2,0,7,0,-1
1558439283552603,1,3,2,-3,5,-1,2,3
1558439283552603,-1,0,7,5,7,2,2,-2
1558439283552603,-1,-1,6,4,-4,-1,-4,-3
1558439283552603,-1,0,-7,-18,-8,-13,-8,-1
1558439283558608,1,1,3,10,7,9,6,5
1558439283558608,-1,-1,-4,-3,-3,-3,-6,-2
1558439283566221,-1,-2,-8,-17,-14,-1,-10,-6
1558439283566221,2,2,1,5,13,0,3,6
1558439283580400,2,1,2,4,7,5,10,6
1558439283580400,0,-1,6,0,-7,-4,-2,-2
1558439283588527,-4,-5,-4,3,-5,-3,-8,-3
1558439283588527,-1,-4,0,3,-2,-5,-2,-2
1558439283604282,-3,-3,-5,-13,-1,4,-5,-6
1558439283604282,1,2,7,15,3,0,6,3
1558439283604282,0,1,2,4,0,-3,5,-1
1558439283604282,-3,-3,-4,1,-5,0,-5,-2
1558439283618310,1,1,3,7,-2,-3,1,0
1558439283618310,-3,-1,5,5,2,0,-4,1
1558439283626208,-2,-2,-6,-10,-2,-6,-2,0
1558439283626208,-3,0,-3,-3,-3,-1,-1,-5
1558439283641167,-1,-2,2,9,-3,0,-5,-2
1558439283641167,-1,-4,-18,-18,-2,0,-4,-4
1558439283647930,1,1,2,1,3,-5,2,3
1558439283647930,0,-4,3,11,-2,2,-2,-2
1558439283671897,-2,-1,-5,-7,-6,-6,-4,-2
1558439283671897,0,0,-2,-6,1,-5,0,-1
1558439283672888,0,1,4,5,8,10,3,1
1558439283672888,0,0,1,8,3,-3,2,1
1558439283678126,-1,0,-2,-12,-2,4,-2,-3
1558439283678126,-1,-4,-6,-5,-16,-11,-8,-4
1558439283694178,-2,-1,-1,2,2,6,5,0
1558439283694178,0,-1,2,-4,1,-12,-4,2
1558439283701060,0,-1,-3,5,4,7,0,2
1558439283701060,-1,-1,6,6,1,-3,-4,0
1558439283715777,0,0,-5,-11,-6,3,-6,-3
1558439283715777,-4,-2,4,3,-3,2,1,0
1558439283722760,0,1,7,7,2,-16,1,3
1558439283722760,1,-2,-6,-13,2,6,5,0
1558439283730710,2,-1,-1,-4,-3,-6,-6,-2
1558439283730710,-1,-4,-8,-1,-7,-5,-2,-4
1558439283737721,-4,-3,-11,-14,-2,6,-2,-3
1558439283737721,-1,1,7,7,3,2,2,1
1558439283745937,-1,0,-1,2,-1,-2,-1,-1
1558439283745937,-1,-2,0,-4,-5,-2,-8,-4
1558439283761906,-2,-3,6,11,2,2,-1,-3
1558439283761906,0,1,0,4,4,4,6,1
1558439283768682,-3,-5,-3,-11,-3,-1,-2,-1
1558439283768682,1,2,-2,0,7,3,2,2
1558439283784566,0,-1,0,-2,-4,-2,-3,-4
1558439283784566,1,1,7,7,2,3,-4,-3
1558439283791839,0,-3,-5,13,9,5,3,2
1558439283791839,-1,-4,-12,-18,-10,-4,-2,-1
1558439283806788,0,0,-3,-11,-2,-3,2,0
1558439283806788,-1,2,2,7,-2,0,3,0
1558439283806788,0,1,7,5,1,-2,-2,-1
1558439283806788,2,2,2,-2,8,13,5,3
1558439283828727,-4,-2,-5,-5,-8,-3,-4,-2
1558439283828727,-1,-2,2,5,-5,-14,-7,-3
1558439283829449,3,-4,-5,-4,6,4,5,2
1558439283829449,-4,0,2,2,4,4,2,0
1558439283843445,1,1,-3,-1,-3,1,1,1
1558439283843445,-4,-1,8,6,3,-1,-5,-5
1558439283851387,-5,-6,-12,-8,-6,2,-3,-2
1558439283851387,-3,-3,-3,-12,-13,-14,-5,-5
1558439283858622,-1,0,3,8,12,11,8,0
1558439283858622,1,1,4,8,6,3,2,1
1558439283865348,-1,-3,-3,-5,-9,-3,0,-3
1558439283865348,-1,-1,3,-1,-2,-1,-7,-2
1558439283880308,-1,-1,1,4,-12,-7,-11,-6
1558439283880308,0,-3,-19,-17,-1,-2,1,3
1558439283888582,-3,0,3,3,7,8,2,-2
1558439283888582,0,-2,3,4,0,-2,1,2
1558439283903593,1,0,3,-3,-1,-2,-3,-1
1558439283903593,-4,-5,-6,-1,-3,4,-6,-2
1558439283911577,0,4,8,12,3,-5,4,0
1558439283911577,1,0,-8,-15,-1,-2,5,2
1558439283934516,1,0,3,9,7,1,0,0
1558439283934516,1,-1,-3,-13,-7,2,-3,-1
1558439283935163,-1,-2,-5,-6,-10,-2,-11,-6
1558439283935163,-2,-1,-5,1,-3,-7,0,0
1558439283949200,0,0,-3,-6,-1,-2,2,0
1558439283949200,-3,-2,-3,0,-8,-1,-4,-3
1558439283949200,-2,2,4,2,-1,-4,2,-2
1558439283949200,1,4,3,11,23,18,14,7
1558439283963094,-2,-3,-6,1,-3,-10,-7,1
1558439283963094,-1,-3,-7,-17,-8,-2,2,1
1558439283971510,-4,-4,-3,-1,-8,-7,-7,-4
1558439283971510,-2,-4,-6,-4,-10,-3,-8,-8
1558439283995031,3,1,8,14,14,11,6,1
1558439283995031,1,1,7,0,2,0,4,3
1558439283995031,-2,0,4,5,-2,-5,-3,1
1558439283995031,-5,-4,-18,-12,-11,-4,-9,-7
1558439284001095,-3,-1,1,-4,-2,1,-6,-3
1558439284001095,1,-2,-4,1,-1,-11,-1,2
1558439284016957,-1,-1,-1,1,0,-1,2,-2
1558439284016957,-1,0,8,10,-4,-9,-5,-2
1558439284023218,-2,0,-8,-17,-2,5,0,-1
1558439284023218,1,2,3,0,7,-9,3,4
1558439284030923,1,-3,7,11,8,5,-1,0
1558439284030923,0,-2,-2,0,1,9,1,-2
1558439284046870,-6,-6,-7,-11,-12,-18,-5,-3
1558439284046870,2,1,13,11,-1,5,-2,-3
1558439284046870,0,-2,-10,-12,-8,-4,2,4
1558439284046870,2,1,9,14,16,11,6,6
1558439284061827,1,2,-2,-5,-5,-2,1,0
1558439284061827,-2,2,5,3,5,1,-3,-2
1558439284067811,-2,-2,-9,-7,0,3,1,-2
1558439284067811,-2,-5,-5,-6,-11,-5,-7,-4
1558439284082766,-1,0,1,5,1,1,4,2
1558439284082766,-1,1,-1,-4,3,4,2,-1
1558439284090745,1,-1,-3,-10,-5,-3,-1,-2
1558439284090745,-1,-1,-2,-4,-2,-6,-3,1
1558439284107091,0,-1,0,6,-6,-7,-4,-2
1558439284107091,-5,-5,-1,-6,-2,0,0,-4
1558439284107091,1,1,4,0,1,-6,2,3
1558439284107091,2,0,7,1,2,1,-1,-3
1558439284120158,-1,-3,-13,-11,-2,1,0,1
1558439284120158,0,-2,-8,-1,-13,-5,-5,-3
1558439284128587,0,0,4,3,1,-2,1,2
1558439284128587,4,3,13,13,11,-3,7,3
1558439284143556,-3,-2,0,-1,-2,1,-1,-2
1558439284143556,-5,-4,-9,-10,-2,3,-2,-2
1558439284151514,-1,0,1,5,1,3,-1,-1
1558439284151514,1,-1,1,1,-11,-14,-8,-4
1558439284174749,-2,-1,2,4,6,1,-3,-1
1558439284174749,-2,0,-3,-3,4,9,8,-3
1558439284175774,-2,-1,-2,1,-9,-8,-8,-4
1558439284175774,-4,-1,-6,-11,3,6,6,0
1558439284180738,-2,-3,3,-4,-1,-2,-2,-3
1558439284180738,1,2,13,22,2,-8,0,1
1558439284188046,0,-4,-22,-33,-5,0,1,1
1558439284188046,-1,0,8,6,-5,-6,-11,-4
1558439284202958,0,-2,-10,-6,-3,0,3,1
1558439284202958,-1,-1,3,8,4,-6,0,-1
1558439284211778,-1,2,-3,-1,3,6,4,-1
1558439284211778,-5,-2,-4,-5,-6,-1,-2,-1
1558439284226862,-1,-3,-1,-2,-1,2,-4,-5
1558439284226862,-4,-5,-12,-13,-14,-8,-14,-6
1558439284226862,1,2,5,3,7,0,9,5
1558439284226862,0,0,10,13,5,-2,2,0
1558439284248557,-3,1,-10,-4,0,-4,0,0
1558439284248557,0,-3,-9,-21,-10,1,-1,-1
1558439284249553,-2,-3,7,14,0,-2,-8,-4
1558439284249553,-2,-2,-10,-12,-1,-2,0,0
1558439284271493,-2,-3,4,-3,-8,-7,-8,-4
1558439284271493,-1,-3,-4,3,3,2,0,2
1558439284272491,-1,-2,1,0,-1,0,-1,0
1558439284272491,-1,-1,6,1,2,6,7,2
1558439284286452,0,0,-8,-1,3,0,-2,1
1558439284286452,-2,0,-1,3,5,0,2,2
1558439284286452,-1,0,8,5,-2,0,-2,-2
1558439284286452,-2,0,-17,-14,-3,0,3,-2
1558439284300815,-2,-2,8,1,-7,-9,-8,-2
1558439284300815,-1,0,-3,0,7,17,11,2
1558439284308729,1,1,5,6,4,-18,-1,3
1558439284308729,0,-1,-2,-6,-5,-3,-5,-3
1558439284323562,-1,1,3,2,-4,6,0,0
1558439284323562,-2,-6,-11,-10,-11,-10,-6,-4
1558439284339409,1,4,8,10,12,4,7,4
1558439284339409,-2,-2,-4,-3,-7,-7,-4,-2
1558439284346626,-3,-2,3,6,0,3,-1,-4
1558439284346626,-1,1,0,-3,-14,-16,-10,-3
1558439284346626,-1,-2,1,0,7,20,5,-1
1558439284346626,1,1,10,14,3,-4,1,4
1558439284360584,-1,-2,-17,-21,-1,0,0,-1
1558439284360584,-3,-2,9,10,4,1,0,0
1558439284368526,-1,-5,-12,-14,-12,-6,-6,-6
1558439284368526,1,-2,1,9,1,4,3,1
1558439284384225,2,3,4,0,0,-3,-2,3
1558439284384225,-1,-2,-2,8,4,0,-4,0
1558439284390446,-3,-4,-6,-13,-8,-6,-5,-5
1558439284390446,0,1,9,8,7,9,0,-1
1558439284406136,4,2,-1,9,2,-4,5,1
1558439284406136,0,0,-8,-9,3,7,1,0
1558439284407136,-2,-4,-2,-6,-8,-7,-8,-3
1558439284407136,-3,-4,-9,-16,-8,-7,-2,-1
1558439284420128,0,-3,0,6,11,11,6,2
1558439284420128,1,2,5,10,3,4,-2,1
1558439284428078,1,0,-3,-10,-3,-1,1,-1
1558439284428078,-1,0,-2,-5,-7,-6,-3,-4
1558439284443037,-1,1,10,10,9,15,9,3
1558439284443037,2,-1,-11,-9,0,-3,1,0
1558439284450287,-2,-1,1,8,1,0,-4,-3
1558439284450287,1,-4,-4,-1,-8,-7,-9,-2
1558439284465973,-5,-6,-9,-25,-16,-5,-6,-5
1558439284465973,2,2,-1,0,4,1,4,1
1558439284466971,-2,-2,-6,0,1,7,2,0
1558439284466971,-1,-2,-5,-1,1,-6,-4,-3
1558439284480041,-2,-3,-4,0,-4,-5,-3,-1
1558439284480041,-2,-2,4,-6,-6,-4,-5,-5
1558439284487918,0,1,-3,-6,0,-3,-3,-1
1558439284487918,-1,-3,5,-2,0,0,-1,-2
1558439284502992,0,-1,2,-4,-4,-6,0,0
1558439284502992,-1,-3,-3,7,-9,-12,-1,0
1558439284511196,-1,2,8,6,7,4,6,2
1558439284511196,-2,0,-6,-7,-2,-3,-3,-1
1558439284526811,1,1,3,6,-4,-5,-3,-2
1558439284526811,-4,-6,-9,-18,-3,2,-8,-5
1558439284526811,-1,-4,-8,-7,-6,-2,-1,-3
1558439284526811,-1,0,4,9,14,14,10,5
1558439284541043,-2,2,0,2,1,-5,-1,-1
1558439284541043,1,1,8,6,7,5,7,3
1558439284547755,-3,-1,-3,-2,-9,-7,-10,-6
1558439284547755,-1,-1,-2,0,-5,-3,-2,-2
1558439284562757,1,1,6,8,11,4,3,1
1558439284562757,1,-1,3,-13,-5,-6,0,0
1558439284570705,1,1,2,6,-4,-2,3,1
1558439284570705,-5,-8,-11,-5,-4,4,-2,-4
1558439284585652,-1,-1,-4,-16,-3,-3,-6,-2
1558439284585652,-2,-1,5,10,-2,-5,-7,-4
1558439284586649,-3,-4,-15,-9,-8,-9,-2,-3
1558439284586649,-3,-3,-4,-8,-3,0,3,-4
1558439284600612,-1,-2,5,7,5,6,3,-2
1558439284600612,0,-1,-4,4,3,4,3,1
1558439284608742,-1,0,6,3,0,4,-4,-3
1558439284608742,-1,-2,3,0,-7,-7,-6,-2
1558439284622553,-2,-3,-3,6,-4,-1,-2,-1
1558439284622553,1,3,7,-9,6,3,5,2
1558439284630534,-2,-3,-7,6,3,0,-2,-1
1558439284630534,1,2,-5,-11,3,4,2,1
1558439284646342,-1,-1,6,7,-1,-2,-4,0
1558439284646342,-4,-3,-11,-5,-12,-1,-5,-3
1558439284653942,2,-2,2,4,0,-1,0,-1
1558439284653942,0,-4,4,9,6,2,0,0
1558439284661230,-1,0,0,0,4,7,3,0
1558439284661230,-3,-1,-7,-9,-7,-6,-5,-4
1558439284667943,1,-2,4,3,4,1,2,-1
1558439284667943,2,1,3,4,-5,-12,-7,-2
1558439284684422,0,0,-6,-7,-4,-8,-3,-3
1558439284684422,1,-1,-3,1,3,6,2,2
1558439284690410,-5,-3,-5,-4,-8,-4,-7,-2
1558439284690410,-1,1,0,0,-1,1,-1,0
1558439284705370,-3,-3,5,2,-6,-8,-1,-4
1558439284705370,-4,-2,-5,-3,6,-1,-3,0
1558439284713614,2,0,1,8,-1,2,4,3
1558439284713614,-1,1,-1,-6,-2,1,-2,-1
1558439284720851,-3,-1,-10,-15,-9,-7,0,-2
1558439284720851,1,0,3,8,-5,-1,-5,-5
1558439284728812,0,-1,1,0,4,6,-1,-1
1558439284728812,-4,-1,-3,-1,-3,-1,-3,-1
1558439284743785,-1,0,-3,-8,-13,-16,-10,-1
1558439284743785,2,1,5,9,17,21,12,4
1558439284750748,0,-1,-3,-1,2,-6,6,3
1558439284750748,0,1,7,-1,-1,0,1,1
1558439284766219,0,-1,0,7,-1,-3,-9,-3
1558439284766219,-2,0,-7,-17,-10,-1,-5,-2
1558439284774388,-2,1,4,8,9,5,5,1
1558439284774388,1,0,1,0,1,0,-1,-2
1558439284780175,-2,-5,-7,-5,-4,3,-3,-4
1558439284780175,-2,-3,5,16,-3,-9,-9,-5
1558439284788367,5,3,5,0,11,-6,9,5
1558439284788367,0,1,2,0,-1,-6,1,-2
1558439284803329,-2,-4,-23,-28,-9,1,-2,-2
1558439284803329,-2,-1,1,2,-10,-7,-1,-2
1558439284810318,-2,1,13,12,5,9,3,2
1558439284810318,-6,-3,-23,-26,-5,0,0,-2
1558439284835024,3,2,2,1,8,-3,1,4
1558439284835024,0,-1,-1,4,-3,0,3,-1
1558439284835024,-3,-4,-1,-15,-7,-7,-9,-3
1558439284835024,3,3,24,28,9,6,1,1
1558439284849022,-4,-7,-19,-11,-11,1,-2,-1
1558439284849022,-2,-6,-15,-15,-4,-9,0,-1
1558439284849022,1,2,1,-1,2,5,-5,-2
1558439284849022,2,2,4,10,7,5,4,3
1558439284863190,-1,0,7,5,5,2,2,0
1558439284863190,2,5,12,13,0,1,8,2
1558439284869933,-6,-6,-18,-8,-15,-9,-11,-6
1558439284869933,-1,-1,-7,-9,3,11,2,1
1558439284885988,0,2,3,8,5,-1,7,3
1558439284885988,0,-1,1,-2,5,-1,1,4
1558439284893867,0,-1,6,-3,-6,-4,-3,-1
1558439284893867,-2,-2,-7,-3,-7,-2,0,-3
1558439284908827,4,2,9,13,4,4,-1,-1
1558439284908827,-1,-1,1,1,0,-7,-6,-2
1558439284908827,0,2,5,0,0,4,-1,-1
1558439284908827,-4,-3,-2,-4,-8,-11,-6,-4
1558439284923866,-2,2,4,6,9,7,4,1
1558439284923866,-1,-3,-3,8,-3,-1,-3,-1
1558439284930765,-3,-5,-16,-17,-12,-14,-2,-3
1558439284930765,2,3,9,8,2,-4,-1,3
1558439284946207,-1,-4,-4,-3,-3,-1,-2,-4
1558439284946207,-1,-1,-2,-1,1,10,4,2
1558439284953704,-4,-2,2,3,-6,-6,-7,-4
1558439284953704,-1,1,-4,-1,7,5,3,-1
1558439284969093,-1,2,12,6,-2,-6,-3,0
1558439284969093,-4,-1,3,1,-1,-4,-8,-5
1558439284969663,-2,-1,-13,-12,1,7,8,3
1558439284969663,-1,-1,3,8,-2,-8,-5,-1
1558439284983046,-1,-3,-8,-1,-3,-1,-2,-2
1558439284983046,1,1,7,-5,3,-12,4,0
1558439284991060,-3,-3,-14,-7,0,4,-1,-3
1558439284991060,-3,-4,-1,3,-3,3,-2,-3
1558439285006117,0,-5,-15,-24,-12,-1,-1,-2
1558439285006117,1,1,-3,-4,-5,-2,1,-1
1558439285013383,-2,-2,10,16,7,2,-1,-2
1558439285013383,-1,2,0,4,11,4,1,0
1558439285029219,-8,-6,-23,-19,-25,-12,-7,-7
1558439285029219,2,0,-1,1,0,0,0,1
1558439285029969,-11,-4,-7,-14,-7,-7,-9,-5
1558439285029969,-2,-2,-3,1,-1,4,3,-1
1558439285051088,2,4,27,23,13,1,4,1
1558439285051088,3,-1,-13,-8,-5,3,1,-1
1558439285051913,0,0,3,6,7,10,0,1
1558439285051913,-3,-5,-9,-10,-3,2,1,0
1558439285065167,4,3,1,1,0,-11,-2,2
1558439285065167,0,-1,-1,-3,3,3,6,4
1558439285074179,-1,2,12,13,6,4,6,0
1558439285074179,-3,-3,-2,-7,-10,-9,-10,-4
1558439285088107,-3,-1,4,-1,0,1,-4,-1
1558439285088107,-4,-3,-3,0,-3,0,-8,-7
1558439285089100,6,3,2,-1,4,7,3,2
1558439285089100,1,0,5,6,1,-6,6,3
1558439285103298,0,-2,-12,-6,3,1,6,3
1558439285103298,-7,-1,2,3,-2,3,-7,-3
1558439285110042,-1,-3,-6,-6,-5,-10,-4,-1
1558439285110042,1,-1,0,4,-3,-4,-7,-1
1558439285126166,0,1,11,3,2,-3,5,1
1558439285126166,-2,-2,-13,-12,5,5,2,0
1558439285134294,1,1,1,-5,-7,-10,-1,0
1558439285134294,2,0,-6,-9,-11,-7,-5,-1
1558439285149134,-2,-3,8,7,8,8,1,0
1558439285149134,0,0,-3,-9,-6,1,-1,-1
1558439285149134,-3,-2,-1,2,0,-6,-5,-4
1558439285149134,-1,0,-5,-7,2,4,2,2
1558439285163252,-1,0,3,3,2,-2,-4,-3
1558439285163252,-2,-2,-6,-6,-2,7,3,-1
1558439285170881,3,2,3,-2,-2,-9,-6,0
1558439285170881,-4,-1,-3,-5,0,6,7,1
1558439285186160,-1,0,-1,5,6,10,3,-2
1558439285186160,-3,0,7,8,5,0,-2,-2
1558439285194152,-3,-1,2,-4,-14,-4,-7,-4
1558439285194152,0,-5,-8,1,-7,-7,-7,-5
1558439285209094,-2,-2,-13,-6,-5,2,-2,-2
1558439285209094,5,-2,5,6,0,-8,-1,-1
1558439285209094,-8,0,-8,-8,0,6,3,0
1558439285209094,-1,-2,0,-5,-1,-7,-3,1
1558439285223062,0,1,9,9,2,0,0,3
1558439285223062,-2,-3,-4,-8,4,-1,-1,0
1558439285230721,7,1,0,0,-6,-4,-4,2
1558439285230721,1,0,3,2,2,3,4,-5
1558439285245929,-4,0,-3,-6,0,0,-7,-5
1558439285245929,-1,-1,6,14,5,-5,0,2
1558439285253864,-2,-4,-9,-12,2,11,7,0
1558439285253864,-3,-5,-6,-17,-5,-10,-8,-5
1558439285268822,3,-2,5,4,2,3,7,5
1558439285268822,0,-1,-4,-4,-10,-9,-10,-3
1558439285269621,-2,-2,-4,-1,1,-3,-4,-2
1558439285269621,-3,-2,-6,-6,-11,-4,-4,0
1558439285282586,-4,-2,-5,-3,0,2,-1,-5
1558439285282586,1,0,-2,-1,6,1,9,4
1558439285290560,2,1,3,5,1,-5,2,1
1558439285290560,-1,-1,6,9,-4,-6,-6,-2
1558439285305555,-3,-3,-9,-15,-9,-2,1,-1
1558439285305555,-2,-2,0,-2,-1,1,-1,-1
1558439285313498,-2,-2,0,4,8,8,5,1
1558439285313498,-2,4,1,-12,5,-1,6,3
1558439285328959,-2,-2,1,4,-6,-4,-11,-7
1558439285328959,5,-1,-5,-2,-10,1,-5,-1
1558439285329460,-9,2,6,-4,3,0,8,-1
1558439285329460,0,-6,-8,1,4,0,-1,0
1558439285343749,-1,-2,6,4,0,-6,-1,2
1558439285343749,-1,-2,4,4,-3,-1,-3,-3
1558439285350871,4,-3,-1,3,-1,2,-6,0
1558439285350871,-2,4,7,12,6,13,0,-4
1558439285365362,-4,-6,-19,-13,-5,-5,-1,-4
1558439285365362,-4,-1,1,-12,-6,-18,-6,-3
1558439285374463,2,1,4,2,-5,-5,-2,-2
1558439285374463,-2,0,5,5,9,11,3,2
1558439285389433,4,2,6,22,9,-2,3,1
1558439285389433,-4,-4,-14,-16,-8,5,2,-3
1558439285389433,0,-4,-3,-1,-6,-8,-7,-5
1558439285389433,2,-2,1,0,-2,2,-8,-4
1558439285402761,0,1,8,1,5,4,5,3
1558439285402761,-1,3,-1,9,5,7,-4,-1
1558439285410685,-2,-2,-3,-19,-7,-16,0,0
1558439285410685,-3,-1,-5,-2,-5,5,-2,-6
1558439285425199,2,7,7,-4,1,-3,1,2
1558439285425199,-3,-6,-5,-5,-1,-4,-9,-5
1558439285434333,2,0,6,8,8,15,5,1
1558439285434333,-1,-2,-6,-9,-10,-18,-8,-4
1558439285449337,0,-4,-6,-6,-4,-6,-3,2
1558439285449337,-2,0,-7,-3,0,-2,2,-1
1558439285449337,-3,-3,-4,7,4,7,-3,-1
1558439285449337,0,1,2,0,-1,-8,-1,2
1558439285463375,0,1,2,5,-1,0,0,-5
1558439285463375,-3,0,2,-9,-7,1,-2,-4
1558439285470424,-1,-3,1,4,-1,2,1,-1
1558439285470424,1,2,3,0,7,5,5,3
1558439285486178,4,2,4,4,4,6,6,4
1558439285486178,1,6,3,6,4,-1,0,1
1558439285494335,0,1,-2,-7,-7,-10,-6,-3
1558439285494335,-4,-3,0,-2,-6,-3,-7,-2
1558439285508253,0,-2,-6,-7,-5,-3,-6,-4
1558439285508253,1,2,9,9,19,9,13,4
1558439285508977,3,1,-5,-7,-4,0,2,0
1558439285508977,-2,-3,-5,2,-8,-11,-2,-2
1558439285522941,-3,-2,3,-7,-6,3,-7,-5
1558439285522941,-3,-5,-12,-3,-5,5,1,-1
1558439285529919,1,3,5,9,11,8,3,3
1558439285529919,0,-1,0,-1,-1,-4,5,4
1558439285544878,-3,-5,-4,-2,-5,-2,-7,0
1558439285544878,1,4,0,-4,3,6,3,-1
1558439285553884,-4,-12,-6,3,-13,-7,-9,-8
1558439285553884,-1,-2,0,-5,1,9,4,-2
1558439285568224,-2,0,6,11,8,-9,0,4
1558439285568224,-1,3,10,3,-10,-7,-6,-4
1558439285576209,-6,-7,-15,-13,-6,11,1,-2
1558439285576209,-1,0,1,-4,2,-11,-2,0
1558439285583219,0,-2,-8,-5,0,0,-2,1
1558439285583219,-2,-1,9,10,-1,-5,2,3
1558439285591184,-2,-1,0,-3,-2,-2,-2,-2
1558439285591184,0,-3,-8,4,-2,4,1,-2
1558439285605756,-4,-1,-6,-8,-9,0,-9,-7
1558439285605756,-4,-2,5,0,-3,-13,-4,-2
1558439285613697,1,1,-5,-1,6,3,4,0
1558439285613697,-3,-5,-6,-9,-7,-5,-4,-4
1558439285627697,-2,0,0,3,5,7,3,-1
1558439285627697,3,0,-2,-8,0,-1,-5,2
1558439285635641,-3,-1,-2,8,-7,-18,-12,-2
1558439285635641,1,1,-2,-3,13,18,15,5
1558439285642617,0,-1,-7,-13,-4,1,0,-2
1558439285642617,-3,-7,8,10,-3,-2,-3,-5
1558439285650599,0,0,6,6,2,-7,1,0
1558439285650599,-1,3,1,4,0,-1,-3,0
1558439285666954,1,0,1,2,4,0,2,0
1558439285666954,-6,-4,3,-1,1,-4,-2,-1
1558439285680519,1,-1,-8,1,-1,-3,-1,1
1558439285680519,-1,-1,3,-3,-3,0,-4,-1
1558439285688839,-2,-2,-9,-7,0,1,-1,0
1558439285688839,-2,-3,2,13,-4,-2,1,1
1558439285704878,-2,-2,-9,-13,-5,3,-1,-1
1558439285704878,-2,-1,4,6,-2,-7,-6,-4
1558439285706628,2,2,1,3,6,1,4,2
1558439285706628,1,0,-7,-7,4,4,-2,0
1558439285711256,-1,2,12,5,1,-6,0,-3
1558439285711256,2,-1,0,-5,-1,5,0,1
1558439285724938,-1,3,-1,-1,-5,-5,2,1
1558439285724938,-2,-1,0,0,-1,-6,-4,1
1558439285734342,2,3,6,10,5,-10,1,3
1558439285734342,-2,-3,-11,-7,-10,-3,-3,-3
1558439285747838,-4,-5,2,-2,1,6,0,-5
1558439285747838,0,1,-2,-5,-4,-1,1,-1
1558439285756276,-3,0,-4,-7,-4,2,-3,-2
1558439285756276,2,1,1,3,6,-3,2,2
1558439285770778,-1,-3,-6,-4,-11,-5,-9,-6
1558439285770778,0,0,6,6,1,-3,-1,1
1558439285771774,1,-4,-8,-2,4,5,1,0
1558439285771774,-3,-3,-13,-38,-5,4,1,-5
1558439285786111,-2,-1,6,12,-2,-5,-5,-3
1558439285786111,-2,-4,-4,3,8,6,-3,-3
1558439285794078,-1,2,9,1,3,-1,-3,2
1558439285794078,-1,-1,-6,4,-9,-6,-2,-1
1558439285808021,-3,-4,-8,-2,2,-6,4,0
1558439285808021,2,2,-5,-9,-7,-7,-6,-3
1558439285816654,1,-1,15,18,5,-1,-4,-2
1558439285816654,-1,-4,-13,-5,4,6,4,2
1558439285830618,0,-2,-7,-21,-2,2,-5,0
1558439285830618,-2,-4,-9,-5,-6,-6,3,-1
1558439285831617,0,1,-4,-1,2,6,1,0
1558439285831617,1,0,7,7,-11,-17,-11,-4
1558439285846085,-2,-1,-1,0,1,2,-4,-2
1558439285846085,1,1,8,-1,-1,4,3,0
1558439285854081,-3,-4,-7,-4,-7,-11,-6,-4
1558439285854081,1,-1,1,3,5,5,4,3
1558439285868063,-2,-1,-1,-7,-5,-4,-4,0
1558439285868063,-3,-1,7,13,4,8,-1,-4
1558439285876821,-1,1,2,-6,-9,-2,1,1
1558439285876821,-2,-2,-11,-12,1,-11,-3,0
1558439285890952,0,0,6,19,0,-4,2,1
1558439285890952,3,2,-7,-21,5,5,1,2
1558439285891745,-1,2,1,-7,-4,-1,0,1
1558439285891745,-4,-3,3,13,-4,-5,-14,-3
1558439285905954,4,1,7,10,5,11,11,6
1558439285905954,-2,-1,-10,-12,-9,-3,0,-3
1558439285913688,1,-1,2,10,11,3,4,-1
1558439285913688,-3,-1,-4,-11,-9,1,4,1
1558439285927906,-2,0,3,4,-3,-7,-6,-2
1558439285927906,0,-2,-6,-9,2,0,0,1
1558439285935872,-2,-4,-10,-8,-4,3,2,0
1558439285935872,-1,3,6,5,-1,-3,-2,-2
1558439285959908,-2,-3,-7,-6,0,-2,-1,-3
1558439285959908,0,-1,3,4,-7,-14,-5,-2
1558439285959908,-5,-3,-11,-17,-4,2,-4,-5
1558439285959908,2,2,7,5,13,4,2,-1
1558439285965886,-1,1,-3,-6,-3,-2,5,2
1558439285965886,-4,-6,4,12,-6,-4,-7,-2
1558439285973880,2,1,-5,-5,0,-3,0,0
1558439285973880,-2,-1,-4,-3,-3,4,3,-1
1558439285987488,-1,0,4,-8,-5,-2,-3,-2
1558439285987488,1,-3,-19,-17,-6,-6,0,-2
1558439286003479,-2,0,3,6,0,8,7,1
1558439286003479,1,2,9,10,2,1,-5,-1
1558439286010465,-3,-5,-7,-8,-3,1,-5,-2
1558439286010465,-1,1,2,2,6,-6,6,4
1558439286011423,-1,0,-3,-1,-6,-5,-5,-1
1558439286011423,-4,-2,-2,-2,1,0,0,1
1558439286026418,-1,-3,0,2,-6,2,-2,0
1558439286026418,1,2,9,5,2,7,2,0
1558439286034393,-1,0,0,-8,-8,-16,-7,-5
1558439286034393,-2,-5,-5,3,5,8,5,2
1558439286047328,3,1,2,0,10,7,6,0
1558439286047328,-5,-8,-2,4,-1,-2,-2,-2
1558439286056309,1,-1,1,-4,-2,1,-2,0
1558439286056309,2,-2,2,2,-4,0,-2,-2
1558439286071267,-1,-3,2,0,1,0,-3,-2
1558439286071267,4,3,1,5,2,-9,-3,2
1558439286071267,2,-1,2,6,7,13,11,3
1558439286071267,-4,-6,-6,-6,-12,-20,-7,-8
1558439286085228,-2,-4,-1,0,-2,3,-3,-3
1558439286085228,0,0,0,-3,0,-3,-2,-2
1558439286093205,-1,4,11,2,3,1,-1,0
1558439286093205,-2,0,2,10,5,4,-1,-2
1558439286116152,-3,2,-11,-15,-9,-14,-4,-3
1558439286116152,-5,-4,-5,1,2,8,-2,-3
1558439286117144,1,0,-3,-5,-4,-1,-3,-1
1558439286117144,0,-3,1,3,0,6,-1,-2
1558439286131105,-4,-5,3,3,-4,-3,-5,-4
1558439286131105,3,2,5,5,11,-5,6,4
1558439286132103,-3,-3,-8,-3,-5,-5,-5,-3
1558439286132103,0,3,2,0,1,4,9,3
1558439286145068,-1,1,-6,2,0,-4,0,-2
1558439286145068,-2,-3,-3,-6,-9,-3,-5,-4
1558439286153047,0,3,12,1,-1,6,2,1
1558439286153047,-7,-10,-21,-4,-7,-1,-1,-5
1558439286168006,2,-2,-1,-2,1,-2,2,3
1558439286168006,-1,-1,-1,0,5,10,-2,-1
1558439286176276,1,-2,3,6,7,-1,2,0
1558439286176276,-2,-2,-4,-10,-8,-5,-7,-6
1558439286199023,1,5,5,3,0,-1,2,-1
1558439286199023,-6,-13,-14,-3,-8,-7,-3,-3
1558439286199920,-2,-1,1,-9,-3,-1,-3,-2
1558439286199920,-3,-1,5,8,5,-1,1,0
1558439286213884,-1,-6,-18,-12,-6,-5,-3,-1
1558439286213884,-3,-1,-1,-11,-10,-1,-8,-5
1558439286214880,-1,0,-5,1,5,2,4,1
1558439286214880,5,9,8,-1,6,0,5,4
1558439286236822,-1,-3,5,4,3,2,0,-1
1558439286236822,-1,0,-10,-3,-3,-5,1,2
1558439286237838,-2,-3,-3,0,-7,-8,-5,-4
1558439286237838,3,6,2,2,-3,-5,-4,1
1558439286251097,-2,-5,-7,-18,-2,5,-3,-3
1558439286251097,-1,1,8,3,1,6,2,-3
1558439286251831,-1,-4,-3,9,3,-7,3,2
1558439286251831,-1,-2,-2,-11,-5,-4,-5,-2
1558439286264759,-1,-2,-1,0,-2,-2,-2,-3
1558439286264759,0,2,7,7,7,9,2,0
1558439286273884,0,2,-6,-14,-7,0,-3,-4
1558439286273884,0,1,7,7,3,-7,1,-2
1558439286288006,0,-2,2,4,-1,2,4,1
1558439286288006,-1,1,1,-2,1,3,-1,-1
1558439286295665,-1,-3,1,11,-3,-3,-3,-1
1558439286295665,-2,-2,-4,-11,-5,-4,-4,-2
1558439286310625,0,-1,1,6,12,7,9,5
1558439286310625,4,6,9,7,2,-1,1,4
1558439286311620,1,-1,-2,-9,2,3,6,3
1558439286311620,-3,-9,-10,1,-2,1,-2,-3
1558439286325592,-1,4,7,-3,-9,-15,-6,-2
1558439286325592,-2,2,-6,2,-6,5,2,-4
1558439286332566,-1,-2,-5,-1,5,1,-2,0
1558439286332566,-1,-1,3,-8,-5,1,1,1
1558439286347528,-1,-3,-1,4,4,7,0,0
1558439286347528,1,2,1,0,-3,-12,-2,3
1558439286355742,-2,-4,-4,6,4,9,5,-2
1558439286355742,-3,1,-5,-13,-3,-8,-3,-3
1558439286370468,1,2,1,5,-4,-2,-2,1
1558439286370468,-1,-4,-2,-1,-5,-7,-1,-3
1558439286371462,-3,-2,-3,-4,-1,-2,0,1
1558439286371462,0,2,3,10,-6,-2,-5,-1
1558439286385425,-7,-9,-4,-6,-4,-3,-3,-7
1558439286385425,-2,-1,-3,-3,-6,0,-4,-3
1558439286392408,1,1,0,-4,6,-6,8,3
1558439286392408,0,-6,-7,-6,3,0,1,0
1558439286407524,-1,6,4,-3,-4,-4,-1,-1
1558439286407524,-2,-6,1,5,-1,-5,-2,-5
1558439286416512,-4,-1,-3,-4,-12,-4,-12,-8
1558439286416512,-1,-3,4,9,1,-2,-1,-1
1558439286431301,4,4,2,5,14,11,12,4
1558439286431301,3,1,4,-7,2,5,-1,-1
1558439286431301,-1,-4,-5,-2,-6,-5,-4,1
1558439286431301,0,0,1,3,-3,-4,-3,-2
1558439286445265,-4,-3,-7,-11,-10,-4,-8,-5
1558439286445265,-1,-1,-1,0,4,6,3,1
1558439286452455,-1,2,8,7,0,-5,-5,0
1558439286452455,-2,-2,-9,-13,1,0,0,0
1558439286468221,2,2,6,8,-1,-5,2,0
1558439286468221,-1,-1,-8,1,5,7,4,4
1558439286476181,-1,1,-6,-13,0,0,-5,-2
1558439286476181,1,3,6,4,1,2,2,2
1558439286490144,-2,-4,-1,3,-2,-4,1,-3
1558439286490144,-3,-2,-10,-14,-6,-3,-1,-5
1558439286498123,-2,-2,9,6,-11,-9,-6,-3
1558439286498123,0,1,4,6,14,15,10,2
1558439286505288,0,2,5,6,-2,-5,-5,2
1558439286505288,-2,-1,-8,-8,0,-4,-1,0
1558439286513082,-2,-2,-8,-1,-3,0,-2,-4
1558439286513082,-2,-1,4,0,-8,-3,-6,-6
1558439286528070,-3,-3,-7,-6,5,14,5,2
1558439286528070,-1,-2,1,3,4,-10,7,1
1558439286536196,1,-1,-11,-3,-2,-2,-1,0
1558439286536196,-1,-1,5,2,-2,-7,-5,-4
1558439286549984,-1,-1,2,4,-1,-4,-12,-5
1558439286549984,2,3,-1,7,-4,-5,-2,2
1558439286559098,-4,-4,-1,-8,-1,-2,2,-1
1558439286559098,1,4,0,-1,-5,-6,1,1
1558439286564948,-2,3,3,0,-2,4,0,-1
1558439286564948,-4,-6,-1,3,2,1,-2,-1
1558439286572923,2,0,3,7,1,-5,-3,0
1558439286572923,-3,-4,-5,-8,-6,1,-5,-2
1558439286587884,1,0,-3,3,2,-4,5,1
1558439286587884,-1,-2,-3,-3,-8,0,-4,-3
1558439286595860,-3,-2,-2,-7,-1,0,-2,-2
1558439286595860,-3,-3,-1,6,1,-9,-3,1
1558439286609840,0,4,1,-2,5,6,3,3
1558439286609840,-2,-4,-2,-2,-5,-2,-3,-4
1558439286618801,1,-1,-1,3,-1,-1,0,0
1558439286618801,0,-2,-7,-10,-2,7,0,-2
1558439286633761,-2,-4,2,-6,-2,-5,-5,-3
1558439286633761,-1,-1,-4,-4,0,6,2,-1
1558439286633761,1,2,6,6,8,-2,2,3
1558439286633761,-1,-1,-3,-1,-3,-3,-3,-2
1558439286647726,0,-1,-1,0,1,4,2,2
1558439286647726,-1,0,12,5,0,-9,-3,-2
1558439286655702,-3,-2,-12,-17,-8,1,-2,-4
1558439286655702,0,2,-3,-5,2,0,-4,0
1558439286670662,0,-4,-11,-3,-9,-10,-1,-2
1558439286670662,-1,-3,-4,-1,1,5,-2,-1
1558439286678639,-3,-2,3,1,-6,-5,-3,-3
1558439286678639,1,1,-3,-4,3,1,1,0
1558439286693601,-4,-4,3,8,0,-5,-3,-3
1558439286693601,1,1,-2,-13,-1,-9,1,3
1558439286694601,0,-3,4,7,13,8,4,0
1558439286694601,0,-4,-7,-6,-6,2,0,-2
1558439286707563,-1,-1,-2,-3,-9,-11,-10,-2
1558439286707563,-2,-2,-3,-5,1,0,-4,-2
1558439286716538,1,2,3,6,6,4,6,5
1558439286716538,-1,1,8,5,2,-1,-2,0
1558439286730501,0,-1,-10,-10,-3,3,-1,-3
1558439286730501,-1,2,-1,3,-5,-4,-5,-2
1558439286738496,1,0,-4,1,-7,1,1,-3
1558439286738496,-3,-1,0,-4,-2,5,1,-3
1558439286753702,0,-2,-4,-2,3,-1,0,-1
1558439286753702,-2,-3,-2,-6,4,-2,-5,-4
1558439286754438,-1,-3,0,6,5,2,0,1
1558439286754438,2,0,2,0,-4,1,-1,0
1558439286767402,-2,0,2,4,-9,-4,-1,-3
1558439286767402,0,2,-1,-10,-4,4,6,-1
1558439286776378,0,-3,-7,-6,0,0,0,1
1558439286776378,-1,-1,6,13,4,-3,-2,2
1558439286790350,2,4,-2,-10,1,0,-5,-1
1558439286790350,0,-2,-5,12,3,5,7,1
1558439286798320,-3,-5,-5,-18,-10,0,-5,-4
1558439286798320,0,0,-2,2,6,0,2,2
1558439286813282,-2,-1,9,5,2,1,4,1
1558439286813282,0,-2,-11,-9,-3,0,-1,0
1558439286814282,-2,4,6,0,1,-1,-2,-3
1558439286814282,-3,-2,-4,-2,-4,-4,1,-2
1558439286828239,0,-1,-1,3,-3,-5,-3,-3
1558439286828239,0,0,5,-7,1,8,-1,-2
1558439286836219,1,0,-2,5,6,4,6,4
1558439286836219,-1,-3,-4,1,2,-3,2,0
1558439286850180,0,-1,2,-2,-4,-8,-3,-2
1558439286850180,-5,-4,-5,-2,-5,3,-5,-3
1558439286858159,0,-1,5,15,-2,0,-3,-4
1558439286858159,2,1,-5,-16,-1,-8,1,1
1558439286873122,-3,-6,-7,2,1,2,1,0
1558439286873122,0,4,12,6,-1,-2,0,0
1558439286874118,-1,0,-5,-3,0,3,0,-2
1558439286874118,-2,-3,4,9,2,1,-2,0
1558439286888080,-2,2,-1,-3,1,-5,5,-1
1558439286888080,-3,-1,-2,-4,2,-9,1,0
1558439286896060,-2,-1,-3,-4,-4,2,-2,-1
1558439286896060,-1,1,7,9,-2,2,-2,-3
1558439286910021,-2,1,-11,-15,-1,7,-3,-1
1558439286910021,-4,-4,2,6,-2,-3,-5,-4
1558439286918005,0,-2,-3,0,-5,-7,-1,-1
1558439286918005,-1,-5,-6,-2,-4,-7,-6,-2
1558439286932959,0,-2,4,4,10,16,4,1
1558439286932959,3,1,-4,-8,-3,-6,-1,0
1558439286933956,-2,2,2,-6,-6,-3,-4,-2
1558439286933956,0,0,-6,-5,2,0,1,0
1558439286947921,0,-2,1,-2,0,-5,-5,-1
1558439286947921,-1,0,0,9,4,2,1,0
1558439286955901,0,0,3,-2,-3,3,-3,-1
1558439286955901,-2,-1,3,2,0,-2,2,-3
1558439286969862,-2,-3,-6,-1,-2,-3,-3,0
1558439286969862,-1,-3,-2,0,-1,3,-2,-2
1558439286978837,-2,-2,-4,-4,0,-3,-1,-2
1558439286978837,-4,-2,-2,-1,-4,4,0,-1
1558439286993798,1,1,0,-3,-2,-6,1,4
1558439286993798,-1,0,9,5,-4,-7,-2,-1
1558439286993798,-3,-3,-5,-2,0,-3,-5,-2
1558439286993798,2,1,1,0,-2,0,-5,-4
1558439287007759,2,-1,-5,-4,3,14,8,-1
1558439287007759,1,2,2,0,10,13,10,2
1558439287015738,0,0,0,6,7,4,6,1
1558439287015738,-5,-2,-9,-20,-9,-13,-9,-4
1558439287030698,-1,-2,0,2,-5,-3,-6,-5
1558439287030698,1,-1,-2,0,-12,-20,-9,-2
1558439287038678,-6,-6,-3,3,4,7,-5,-7
1558439287038678,1,1,5,0,-3,-1,-3,1
1558439287053637,-2,-1,-2,-4,-4,-7,-1,-1
1558439287053637,-5,-4,3,-1,-1,-2,-2,-3
1558439287054633,0,0,2,-8,-8,-23,-6,0
1558439287054633,-2,-3,-14,-5,-3,-2,0,0
1558439287067603,-1,2,7,5,1,-2,-3,0
1558439287067603,2,2,-8,-3,1,10,7,2
1558439287075577,-1,-1,5,6,3,4,2,-1
1558439287075577,-1,-1,9,2,2,-2,0,-2
1558439287090537,0,0,-4,-2,-5,-8,-2,0
1558439287090537,-3,-2,0,-1,-4,-7,-8,-6
1558439287098517,-1,-4,-4,-5,-5,-2,-6,-2
1558439287098517,-2,0,0,4,-5,6,2,0
1558439287113478,-1,-1,1,-2,-6,1,-2,-2
1558439287113478,3,2,-1,-8,7,3,4,3
1558439287114477,1,0,2,7,0,-7,2,2
1558439287114477,-1,-2,-4,-9,-7,2,2,0
1558439287127446,0,-2,-3,3,5,7,0,-2
1558439287127446,-1,-2,2,-3,-7,-19,-11,-1
1558439287136416,-1,-2,1,1,6,14,10,1
1558439287136416,-1,-2,4,8,14,10,5,-2
1558439287150380,-2,-4,-5,-8,-12,-5,-9,-4
1558439287150380,-1,-2,-4,2,-1,8,8,1
1558439287158359,-1,-1,-2,-10,-4,-5,-4,0
1558439287158359,2,0,0,-4,-7,-9,-7,-4
1558439287173317,-1,1,5,11,6,-1,4,-1
1558439287173317,-2,-1,-2,-4,1,-7,-3,0
1558439287174314,-1,-2,-10,-11,-8,0,-5,-2
1558439287174314,-5,-2,-11,-5,2,10,3,2
1558439287187281,-2,1,7,8,-2,-13,-1,2
1558439287187281,-2,-1,-8,-13,-3,11,-3,-2
1558439287196274,1,6,10,7,-2,-17,-3,0
1558439287196274,-1,-4,-10,-5,-8,-14,-1,4
1558439287210217,-1,-4,-4,0,12,13,8,1
1558439287210217,1,-2,-1,-4,-2,-4,-6,-1
1558439287218202,1,1,1,7,11,15,12,8
1558439287218202,-5,-1,-4,-3,-9,-11,-12,-6
1558439287233168,-3,-3,-1,-9,-9,-2,-3,-2
1558439287233168,0,-1,0,6,3,4,6,1
1558439287234153,0,-2,-7,1,-1,-5,-7,-3
1558439287234153,-2,0,3,-3,5,10,6,1
1558439287248119,-1,0,-4,-12,-7,-9,-7,-3
1558439287248119,-2,-4,-9,-8,-5,-4,2,2
1558439287256107,-3,-8,-7,-3,-8,-11,-12,-5
1558439287256107,1,1,4,11,9,9,9,2
1558439287270059,-2,-2,-4,-2,-6,-1,-4,1
1558439287270059,-1,-2,-4,-11,-5,-5,0,-3
1558439287278041,1,1,1,1,4,10,9,4
1558439287278041,0,1,6,14,9,-4,2,1
1558439287293001,0,-2,-3,-14,-1,7,4,1
1558439287293001,-1,-1,10,17,1,0,-4,-2
1558439287293993,-3,-5,-17,-18,-20,-10,-15,-9
1558439287293993,1,0,4,4,5,8,0,0
1558439287307957,3,3,-2,-2,4,3,11,5
1558439287307957,-5,-1,-5,6,0,-3,-5,-5
1558439287315938,-1,2,5,7,6,10,8,4
1558439287315938,-1,-3,-6,-5,-9,-18,-10,-4
1558439287329898,0,0,-4,-8,0,-5,-4,1
1558439287329898,-1,0,7,8,2,6,3,1
1558439287338874,-3,-2,-6,-7,-2,2,2,-1
1558439287338874,2,-2,5,13,1,-7,-4,-2
1558439287353839,-1,-2,2,2,3,2,-1,0
1558439287353839,-1,-1,-13,-18,-1,-4,-2,-1
1558439287353839,-1,0,3,0,-4,1,-3,-3
1558439287353839,1,1,-1,-2,-4,4,0,0
1558439287367804,-3,-1,6,14,0,-14,-3,-3
1558439287367804,-3,-3,-15,-15,-6,-3,-4,-4
1558439287375777,0,2,7,6,11,10,13,5
1558439287375777,0,1,3,4,8,11,5,-1
1558439287390736,1,-3,-4,-13,-8,-3,-4,-1
1558439287390736,-1,-2,5,0,-5,-4,-5,-2
1558439287398716,-1,-3,-7,-7,-4,-5,-2,1
1558439287398716,-2,0,9,9,3,-2,4,2
1558439287413674,-3,-4,-10,-1,1,0,-6,-5
1558439287413674,1,1,5,0,-6,-4,3,2
1558439287414672,-1,-1,-3,0,-2,-3,-6,-6
1558439287414672,-5,-3,-1,-2,1,-1,-3,-3
1558439287427642,0,2,4,-2,-10,-4,-2,-4
1558439287427642,0,-1,-2,5,7,9,10,1
1558439287435614,1,1,2,-2,2,7,0,3
1558439287435614,-1,-3,-7,-4,-4,-4,-6,0
1558439287450575,1,1,6,6,11,8,15,5
1558439287450575,0,0,2,-1,-8,-13,-8,-4
1558439287458561,2,1,9,10,5,6,2,-1
1558439287458561,-1,-1,-9,-10,-9,0,-1,-3
1558439287472521,-6,-7,-9,-13,-4,1,-7,-3
1558439287472521,1,0,9,7,4,2,-1,1
