timestamp,emg1,emg2,emg3,emg4,emg5,emg6,emg7,emg8
1558439181993879,-1,-1,-3,-21,-7,-4,-5,-2
1558439181993879,0,-1,-6,-3,-7,-9,-7,-1
1558439181994875,-1,-2,3,4,2,2,3,-2
1558439181994875,0,-3,-7,-12,0,-1,3,-2
1558439181995873,0,0,1,12,1,-5,2,0
1558439181995873,-2,0,4,7,4,6,5,2
1558439181997868,-1,-1,-1,-6,-2,-1,-1,-3
1558439181997868,0,2,4,2,0,-1,-6,-2
1558439181998865,-2,-2,-7,-3,-4,-3,3,1
1558439181998865,-4,-4,-8,-8,-7,-8,-9,-2
1558439182005847,2,1,-3,-17,2,7,3,1
1558439182005847,-1,-4,-3,9,-4,0,-5,-2
1558439182011830,1,2,8,1,4,-3,1,1
1558439182011830,-3,-3,-2,-6,-8,-5,-6,-5
1558439182026790,-1,1,-1,12,8,7,4,2
1558439182026790,-4,-2,-4,-4,0,-10,-6,0
1558439182034776,-2,-2,-5,-5,-4,-2,-4,-5
1558439182034776,1,0,9,7,-1,1,-2,0
1558439182042747,-2,-2,0,14,-2,-7,-4,-1
1558439182042747,1,-1,-7,-30,-8,1,3,2
1558439182056710,-1,-3,0,0,6,7,3,-1
1558439182056710,0,2,4,4,3,6,3,-2
1558439182064689,-1,-3,-2,9,-4,-14,-10,-4
1558439182064689,-1,0,-2,-7,-4,-4,3,0
1558439182079649,-3,-3,-6,-12,-2,6,-3,0
1558439182079649,-2,0,4,-5,2,3,-1,-1
1558439182087627,0,-1,-5,-12,-11,-8,-2,0
1558439182087627,1,0,3,8,3,2,2,-1
1558439182126524,-1,0,3,3,2,1,-2,0
1558439182126524,-3,-2,0,-7,-2,1,-3,-4
1558439182132507,1,1,7,13,2,-3,0,-1
1558439182132507,-4,-2,-8,-14,-8,-12,-2,-2
1558439182133505,-1,-1,-2,-6,-1,2,1,-1
1558439182133505,0,2,13,13,5,0,-4,-4
1558439182134502,-5,-6,-28,-15,-10,-11,-5,-4
1558439182134502,-2,-1,4,4,-3,0,-3,0
1558439182139491,-2,-2,-10,-10,6,5,7,0
1558439182139491,0,-2,2,12,-2,-3,-2,-1
1558439182154448,1,2,13,13,12,8,1,1
1558439182154448,-2,-3,-17,-32,-11,-3,0,1
1558439182155446,-1,-1,-2,2,-8,2,-7,-2
1558439182155446,-4,-2,-7,-1,1,6,4,1
1558439182168412,0,1,5,-4,-1,-4,-2,2
1558439182168412,2,1,10,14,4,3,2,-1
1558439182177387,-1,-1,-5,6,-4,-7,-2,-2
1558439182177387,0,-3,-19,-34,-10,-8,2,0
1558439182191351,-2,1,0,-2,-3,1,-2,-4
1558439182191351,-2,1,10,15,7,3,0,0
1558439182199329,-2,-3,-7,-9,-5,-1,1,-2
1558439182199329,2,2,3,13,7,2,1,3
1558439182206311,-3,-4,-5,-11,-8,-3,-4,-3
1558439182206311,1,1,1,0,-3,-5,-2,-1
1558439182213292,-3,-1,7,9,6,-1,-1,-3
1558439182213292,-2,-2,-8,-13,-7,-3,-3,-2
1558439182229248,2,0,2,2,3,2,6,2
1558439182229248,-2,-3,0,-3,4,5,0,-2
1558439182244209,2,3,2,-2,3,-5,2,3
1558439182244209,-4,-1,-2,4,-5,0,-6,-2
1558439182251190,-1,-1,2,-2,-6,-2,-3,-1
1558439182251190,1,1,3,5,12,11,2,3
1558439182267147,1,-2,5,8,6,0,1,-1
1558439182267147,0,0,3,0,-7,-7,-8,-5
1558439182269142,-1,-3,-13,-11,-5,-6,-3,0
1558439182269142,0,4,3,10,6,0,3,1
1558439182274129,-3,-1,3,-4,-2,-3,-7,-2
1558439182274129,-1,-2,-2,-1,-2,-1,0,-1
1558439182289091,0,0,10,4,-3,-1,-6,-4
1558439182289091,1,0,-5,1,14,17,11,2
1558439182297068,-3,-4,-2,2,-3,-6,-4,-3
1558439182297068,-2,-2,-2,-3,-2,5,1,-2
1558439182311030,-1,0,-4,-14,2,8,-3,-2
1558439182311030,0,-2,1,10,-3,-10,-5,0
1558439182319009,1,1,-5,-10,-5,-3,-1,0
1558439182319009,1,0,1,4,6,4,4,2
1558439182325990,1,0,6,12,7,5,2,0
1558439182325990,-2,-3,-4,-13,-5,-8,-10,-3
1558439182333969,-1,-2,-7,-3,-7,-1,4,2
1558439182333969,0,0,8,5,-3,-7,-7,-2
1558439182348928,-4,0,-2,-1,-4,-10,1,-1
1558439182348928,2,-2,0,-4,-3,2,2,-3
1558439182356907,-1,-1,-3,-18,-2,1,-3,-1
1558439182356907,-2,-2,-6,-7,7,7,3,1
1558439182370873,-1,0,-2,2,-2,1,-1,-1
1558439182370873,-5,-1,-7,-15,-10,-7,-7,-3
1558439182379848,1,1,10,16,3,-4,-5,-3
1558439182379848,0,0,4,3,-1,0,-3,-3
1558439182385830,1,-1,0,-3,7,1,2,3
1558439182385830,3,4,1,5,-5,-9,-3,0
1558439182402785,-2,-1,3,9,4,11,-2,-1
1558439182402785,-2,0,-4,-4,-4,1,3,2
1558439182408768,-2,-2,-8,-4,-9,-13,-4,-2
1558439182408768,-3,-4,-1,-6,-5,-3,-7,-3
1558439182417745,0,-1,0,-2,-1,0,4,-2
1558439182417745,1,1,10,13,8,-3,-1,0
1558439182431707,-1,-1,2,-1,0,2,0,-2
1558439182431707,-3,-4,-8,-8,-6,-5,1,0
1558439182439686,1,1,3,-3,2,-3,0,-1
1558439182439686,0,-1,-3,0,-4,-4,-2,-1
1558439182446667,-1,0,-4,-7,1,6,1,-2
1558439182446667,-2,0,2,2,-1,-3,-5,-2
1558439182462624,-2,-2,3,4,-1,1,-3,-1
1558439182462624,1,-4,-15,-7,-5,-3,-3,-3
1558439182468610,-1,-2,-1,2,-2,1,-4,-3
1558439182468610,0,3,3,1,4,10,2,-1
1558439182477585,-1,4,-2,-6,1,-2,4,2
1558439182477585,-4,-5,-6,-6,-9,-12,-4,-3
1558439182491547,2,-1,2,7,2,3,0,-2
1558439182491547,-1,-2,-5,-9,-3,5,4,-1
1558439182500523,1,1,5,6,2,-3,-3,-1
1558439182500523,-3,-2,1,-9,1,2,1,-3
1558439182506507,-4,-3,-5,-2,-1,5,0,-1
1558439182506507,-1,1,7,7,-3,-17,-5,-2
1558439182522464,-1,-1,-2,0,-2,1,-4,-2
1558439182522464,-1,-1,-1,1,0,0,-2,-1
1558439182528449,0,-2,4,3,0,4,3,-1
1558439182528449,-1,-3,-2,1,-1,-2,-1,-2
1558439182537424,0,-1,-2,1,-3,-7,-3,-2
1558439182537424,-2,-1,-5,-17,-7,-4,-2,-2
1558439182551388,0,1,2,5,0,3,3,0
1558439182551388,0,-1,3,4,-2,0,-1,0
1558439182560363,-3,-6,-15,-10,-3,0,2,-1
1558439182560363,-2,0,2,-9,5,4,1,2
1558439182566350,-1,-1,0,-3,0,-2,0,0
1558439182566350,-1,-1,8,12,2,6,6,-1
1558439182589286,-2,0,-6,-6,-5,-4,-11,-4
1558439182589286,3,0,-3,-4,-4,-4,-2,1
1558439182590283,-3,-2,2,2,0,-15,-6,-2
1558439182590283,-2,-3,-6,-2,2,2,-2,-3
1558439182597265,-2,-2,6,4,1,6,1,-2
1558439182597265,0,1,-2,-4,-4,5,3,-2
1558439182611227,1,0,1,5,3,-5,-1,2
1558439182611227,-3,-2,-4,-6,-1,0,-1,0
1558439182620203,0,-1,2,7,-5,-6,-5,-2
1558439182620203,-2,-3,-5,-5,3,-3,1,1
1558439182626188,3,1,-2,-9,1,13,6,0
1558439182626188,-3,-2,2,2,0,-7,0,-4
1558439182643163,-3,-4,-12,-11,-6,-12,-6,-1
1558439182643163,0,4,15,21,9,7,-1,0
1558439182649127,-1,-5,-4,-6,-3,4,3,-2
1558439182649127,-3,-2,-13,-17,-9,-7,-2,-1
1558439182658101,-2,-1,0,0,1,4,-5,-1
1558439182658101,-2,0,6,5,-6,-10,-4,-1
1558439182671066,-3,0,-5,4,0,1,1,-2
1558439182671066,2,1,3,-5,-4,0,-6,-1
1558439182688022,0,-1,0,-2,5,5,7,1
1558439182688022,-2,-1,-4,-6,-4,-6,-1,-2
1558439182689019,-2,0,2,-1,0,-1,-2,-2
1558439182689019,-1,-3,3,5,-2,1,-2,-4
1558439182702981,-2,-1,-2,8,5,9,3,0
1558439182702981,-1,-2,-5,-12,-5,-7,-7,-3
1558439182708966,1,0,-10,-27,-13,-9,1,5
1558439182708966,0,1,2,13,1,0,-2,2
1558439182717942,4,1,-1,-5,3,3,2,1
1558439182717942,-2,-1,1,8,2,3,2,-1
1558439182730907,-3,-1,7,13,0,-9,-12,-5
1558439182730907,-2,-1,-4,-6,5,6,2,-1
1558439182739883,0,0,-10,-21,-12,-6,-3,0
1558439182739883,-3,-1,-1,3,-1,1,-3,-1
1558439182745867,-2,0,-2,-11,-2,-5,0,-1
1558439182745867,-1,-1,7,13,3,3,-1,-1
1558439182762823,-2,-2,1,-3,0,5,3,0
1558439182762823,2,1,-3,-11,-2,-8,-2,1
1558439182768806,-3,-3,-7,2,-6,-10,-9,-4
1558439182768806,0,-2,-4,-7,-1,-3,-2,-1
1558439182777782,-2,0,4,9,3,4,1,-1
1558439182777782,0,2,2,6,8,8,8,2
1558439182790748,-2,-3,-15,-9,-5,-3,-3,-1
1558439182790748,-3,-2,-5,-2,-6,-1,-3,-2
1558439182799725,1,0,6,-2,-2,-5,-1,-2
1558439182799725,0,-1,1,2,-2,-4,-2,0
1558439182806704,2,1,4,-1,-2,-10,-3,1
1558439182806704,0,1,5,5,7,-1,2,3
1558439182822661,-1,-1,1,3,-1,0,4,1
1558439182822661,-3,-1,-6,0,-3,0,-5,-4
1558439182828646,-2,-2,4,2,6,11,-1,0
1558439182828646,1,0,-1,5,-5,-5,-2,0
1558439182837621,-1,1,4,2,-4,-10,-8,-4
1558439182837621,0,-2,1,9,3,1,1,-2
1558439182851585,-1,-1,-2,3,7,6,4,0
1558439182851585,-1,-3,-4,-2,2,1,1,-2
1558439182860561,-3,0,-4,-4,-7,1,-4,-1
1558439182860561,-2,-4,-6,-11,-5,-5,-1,-2
1558439182866543,0,1,5,7,3,4,3,-1
1558439182866543,0,3,1,7,6,-1,4,3
1558439182882501,2,-1,-4,-23,-4,-7,4,1
1558439182882501,-2,0,6,9,4,1,-3,0
1558439182888486,-4,-3,-7,0,-7,2,-6,-5
1558439182888486,0,1,2,6,1,4,3,0
1558439182897462,1,-2,-5,-10,0,-2,-2,-2
1558439182897462,-1,-2,-8,-4,-7,0,0,0
1558439182911424,0,-1,-1,0,2,1,2,-2
1558439182911424,-2,-2,-3,-12,-1,2,-1,0
1558439182920400,-1,-1,-2,2,-4,-7,-3,-3
1558439182920400,-1,-3,2,3,2,3,3,-1
1558439182926385,2,2,3,0,-4,-9,-7,-1
1558439182926385,-2,-2,-2,-5,-5,-6,-2,-1
1558439182942341,-2,-2,-2,6,4,14,4,-1
1558439182942341,0,0,5,-3,6,-1,0,2
1558439182948324,-4,-2,2,12,1,1,-3,-5
1558439182948324,-2,-1,-4,-10,-8,-8,-3,-2
1558439182957302,-1,-1,-1,7,3,3,2,-1
1558439182957302,-1,0,-5,-5,-6,-3,-1,-3
1558439182971264,-3,-4,-4,0,1,3,1,-1
1558439182971264,-2,-3,-10,-13,-9,-2,-7,-4
1558439182980240,-3,-3,13,17,2,-8,-8,-4
1558439182980240,0,2,0,3,-1,11,3,2
1558439182986223,-1,0,-7,-17,2,1,5,3
1558439182986223,-1,0,1,-4,-3,0,0,-1
1558439183002180,0,-2,-2,1,-4,-5,-2,0
1558439183002180,1,3,6,14,6,0,-1,-3
1558439183009162,2,2,1,-15,0,3,2,1
1558439183009162,-1,-4,-7,-7,-5,-9,-1,-3
1558439183025120,2,3,2,2,0,2,-6,-3
1558439183025120,-5,-7,-3,-1,-9,-2,-8,-5
1558439183031104,2,2,4,7,4,-1,1,3
1558439183031104,1,0,0,6,7,0,2,2
1558439183040079,0,2,9,9,2,-4,1,-1
1558439183040079,-3,-6,-16,-25,-9,-6,-2,-1
1558439183046064,-1,-1,3,15,-3,2,-5,-3
1558439183046064,-1,-2,-4,-10,-7,-5,-2,0
1558439183063018,-3,-2,-3,1,1,0,-4,-3
1558439183063018,1,3,9,8,6,2,4,1
1558439183069002,-3,-3,-14,-9,-8,-8,-3,-2
1558439183069002,2,2,11,8,5,5,-8,0
1558439183084959,0,-2,-11,-11,-6,-3,5,2
1558439183084959,0,0,3,6,6,1,-4,0
1558439183090943,-1,0,2,6,-3,-6,9,4
1558439183090943,0,1,-11,-5,-4,-6,-2,-1
1558439183099919,-2,-1,2,4,1,-9,-4,-2
1558439183099919,0,-1,-9,-25,-6,4,2,-2
1558439183113882,-2,-3,-2,0,-2,-1,-3,0
1558439183113882,-4,-3,0,4,-3,4,-3,-2
1558439183122858,0,-3,-7,-13,-7,0,-2,1
1558439183122858,-1,1,3,16,3,-2,-1,0
1558439183136820,1,1,4,-5,2,7,-1,-1
1558439183136820,0,-3,-1,-4,0,2,-1,-3
1558439183143802,0,0,-2,4,-2,-2,-6,-2
1558439183143802,0,1,0,4,2,-3,4,3
1558439183150782,-3,0,-1,-7,-3,-5,-7,-2
1558439183150782,-2,0,5,3,-4,-2,0,-2
1558439183159760,-1,-2,-2,2,9,12,7,2
1558439183159760,2,0,3,-3,3,-6,3,-1
1558439183173722,1,-3,-1,3,-3,-1,-5,-2
1558439183173722,-1,-1,-6,-19,-5,0,1,-3
1558439183188682,1,-1,0,5,-5,-5,-1,-2
1558439183188682,-6,-6,-8,-6,-10,-5,-4,-7
1558439183196660,-1,1,3,7,8,1,2,1
1558439183196660,0,0,5,0,5,-4,-2,1
1558439183205637,0,0,-3,4,-5,-5,-6,0
1558439183205637,-1,-1,5,2,3,4,1,1
1558439183211620,-4,-3,-4,1,-4,-2,-3,-4
1558439183211620,-5,-3,0,9,0,9,-1,-4
1558439183220596,-1,0,4,-5,0,-6,-2,-2
1558439183220596,0,3,3,7,-1,-6,1,-2
1558439183233562,-2,-4,-4,-14,-3,-5,-5,0
1558439183233562,0,1,-6,-5,0,2,-1,0
1558439183242538,0,-1,3,-1,-2,-5,0,0
1558439183242538,0,-2,-4,1,2,5,-2,0
1558439183256501,3,-1,-2,1,-6,-2,0,-2
1558439183256501,0,0,0,2,0,-10,1,-1
1558439183273455,-2,0,4,6,-4,-1,-6,-3
1558439183273455,-2,-1,-7,-13,0,7,-3,0
1558439183274454,-2,-1,0,6,-1,-1,-2,-2
1558439183274454,0,-2,1,7,0,-1,-7,0
1558439183280436,0,2,3,-1,3,4,5,0
1558439183280436,0,0,-1,1,-1,-7,-1,-3
1558439183293403,0,1,2,-3,1,1,4,-1
1558439183293403,-1,-2,2,1,-4,-1,-4,0
1558439183302377,1,0,2,7,5,4,2,-1
1558439183302377,-4,-6,-12,-5,-13,-11,-5,-1
1558439183316343,-1,2,3,-6,2,4,-2,-4
1558439183316343,0,1,2,7,2,-3,1,-2
1558439183325318,-2,-4,-12,-14,0,7,2,1
1558439183325318,-3,-2,0,-2,-5,-8,-6,-3
1558439183331300,1,3,3,10,1,-3,1,5
1558439183331300,-3,-3,-6,-6,0,5,1,0
1558439183340277,-1,-2,1,-1,-3,-2,-1,-2
1558439183340277,1,3,6,6,3,5,-2,-2
1558439183353241,0,-2,-8,-5,1,-3,1,-2
1558439183353241,-2,0,-7,-14,-5,-1,1,-1
1558439183362218,0,-1,-2,-11,-2,-3,1,0
1558439183362218,0,-1,4,2,6,8,4,1
1558439183376182,-2,-3,-13,-15,-8,-5,-2,0
1558439183376182,0,1,5,2,-2,-10,-9,-2
1558439183385157,-4,-4,-2,3,-6,-4,-4,-3
1558439183385157,1,0,2,-1,2,0,2,2
1558439183391143,-1,-2,-3,-10,-9,-4,-4,-3
1558439183391143,0,-1,4,17,12,7,4,3
1558439183400117,-1,-2,-10,-18,-2,-4,-6,-2
1558439183400117,2,1,8,8,-2,-2,3,3
1558439183414078,-3,-7,-8,-8,-2,7,1,1
1558439183414078,-1,-1,4,-2,-4,-1,1,1
1558439183423055,0,-2,2,6,1,2,-6,-5
1558439183423055,-1,1,5,1,0,-1,1,0
1558439183436020,-2,-1,-9,-9,-9,-12,-4,-3
1558439183436020,-3,0,5,9,2,5,0,-3
1558439183444996,-4,-3,1,2,-6,-8,-10,-3
1558439183444996,-2,-2,-16,-9,-2,-2,-2,-5
1558439183450980,1,1,0,-7,1,3,5,3
1558439183450980,3,2,-2,-2,-2,-12,-6,0
1558439183459972,0,-1,-3,-3,-1,8,2,1
1558439183459972,-1,-1,8,8,1,2,-1,-2
1558439183473919,0,0,8,9,3,0,1,-2
1558439183473919,-4,-5,-15,-17,-1,12,5,-4
1558439183482896,2,2,3,10,-4,-6,3,5
1558439183482896,0,0,-1,-17,-3,-7,-5,-1
1558439183495862,1,0,3,3,3,4,-1,0
1558439183495862,-2,-2,1,3,-4,-4,-3,-3
1558439183513812,-2,-3,-19,-24,-5,-4,0,2
1558439183513812,0,0,6,9,7,2,10,4
1558439183513812,-5,-4,-5,4,-10,-8,-9,-4
1558439183513812,1,2,4,-2,-1,-9,-3,-1
1558439183519858,-2,1,3,1,3,0,4,0
1558439183519858,0,-1,3,10,0,10,-5,-2
1558439183534757,-1,-1,-2,-11,1,-7,4,-1
1558439183534757,2,-1,-2,-4,-1,0,1,-1
1558439183542738,-3,2,8,10,-2,-1,-4,0
1558439183542738,-3,-7,-33,-25,-17,-6,-3,-3
1558439183556836,-1,-1,6,7,7,2,4,0
1558439183556836,-2,-2,1,-4,-6,-8,-8,-2
1558439183565675,-1,-4,-2,-2,3,2,-3,-2
1558439183565675,0,0,6,1,-1,-3,-6,-1
1558439183571662,-2,0,1,6,0,4,-1,1
1558439183571662,-2,-1,2,9,1,2,0,-2
1558439183580657,1,-3,-16,-23,-1,1,-2,-1
1558439183580657,1,-1,4,1,-2,-1,2,-1
1558439183602610,-3,-2,-1,-3,-5,-9,-6,-1
1558439183602610,-1,-2,5,3,1,-2,-1,0
1558439183603607,3,1,-2,-3,0,1,5,1
1558439183603607,-4,-3,3,-1,5,-2,-1,-1
1558439183616537,1,-2,-9,-4,-3,2,-4,-1
1558439183616537,0,1,-3,2,6,7,2,-1
1558439183625513,-4,-3,-1,1,-11,-10,-3,0
1558439183625513,-2,1,1,1,-1,-5,-1,2
1558439183640475,0,0,11,14,6,12,0,-2
1558439183640475,-2,-5,-11,-9,-6,-6,-4,-1
1558439183641471,2,1,10,14,4,-6,0,-2
1558439183641471,-1,-2,-2,3,-3,-4,-6,-4
1558439183653439,1,2,4,-20,0,-2,-1,-1
1558439183653439,-2,-2,-11,-4,-6,5,4,0
1558439183662414,2,0,6,5,5,2,4,1
1558439183662414,1,-1,-4,-7,-2,-11,-2,-1
1558439183676377,-1,-2,4,5,2,3,0,2
1558439183676377,0,-1,-1,-1,-2,-2,2,-1
1558439183685353,-3,-3,-10,-14,-6,-11,-2,-3
1558439183685353,0,0,6,10,4,5,1,0
1558439183700347,-3,-1,0,7,3,5,-1,-3
1558439183700347,0,1,3,2,1,1,1,0
1558439183701310,-4,-2,-2,-7,-3,2,-6,-1
1558439183701310,0,1,-3,-8,-2,4,5,0
1558439183713305,0,0,0,6,2,-7,-2,2
1558439183713305,1,-2,2,0,3,0,-4,-2
1558439183722255,-1,-1,-3,2,-3,3,2,-3
1558439183722255,0,2,3,4,-2,-2,0,1
1558439183736218,-2,-2,-10,-6,-5,0,3,0
1558439183736218,-2,-3,-6,-5,-5,-6,-2,-1
1558439183745193,1,-2,-1,2,11,7,4,2
1558439183745193,0,0,3,4,2,-4,-1,2
1558439183760153,0,-1,4,13,-1,-4,-6,-2
1558439183760153,-1,-2,-10,-12,-6,1,-2,-1
1558439183761150,-1,1,5,7,-1,1,1,-1
1558439183761150,-4,-1,-8,-10,-2,4,-1,-2
1558439183774115,2,0,-3,-15,-2,-2,1,0
1558439183774115,1,3,11,9,6,-6,-5,1
1558439183783106,0,0,-2,0,2,7,3,-2
1558439183783106,-2,-2,-3,5,-7,-4,-5,-4
1558439183796059,-2,-2,-6,-24,-9,-2,-2,-2
1558439183796059,-1,-6,-8,-12,-4,-2,-1,1
1558439183805033,1,0,6,5,4,-2,-2,3
1558439183805033,0,2,5,10,1,-1,5,0
1558439183819992,0,-2,-2,8,1,-4,-1,-2
1558439183819992,-2,-2,-8,-2,2,0,1,0
1558439183821987,-3,0,-3,1,-5,-8,-6,-3
1558439183821987,1,-1,-6,-18,-2,6,-1,1
1558439183833955,-2,0,9,9,-2,-5,-8,-2
1558439183833955,1,1,5,11,6,1,4,1
1558439183842934,-2,2,4,-8,0,-6,2,-1
1558439183842934,-5,-6,-10,-13,-1,7,-2,-4
1558439183855898,-1,0,6,13,3,1,2,0
1558439183855898,-2,-4,-14,-18,-15,-7,-4,-2
1558439183864872,-1,-2,-1,2,-1,0,2,-1
1558439183864872,0,-2,1,1,-1,-7,-7,-1
1558439183879834,-2,-2,-6,-4,-5,-3,-4,-1
1558439183879834,0,2,0,2,1,-1,4,3
1558439183881829,0,3,8,6,5,-2,0,-1
1558439183881829,-3,-3,-10,-7,-1,-6,-4,-3
1558439183893798,0,-2,-1,-7,1,2,3,3
1558439183893798,-2,-4,3,7,-4,2,-2,-2
1558439183902798,2,-4,-6,-8,-10,-2,-8,-1
1558439183902798,3,1,9,13,3,4,2,3
1558439183915738,-2,-1,-6,-1,2,-4,-2,-1
1558439183915738,-2,2,4,-1,1,1,-3,-1
1558439183924716,-1,0,-7,-2,4,3,2,2
1558439183924716,-1,1,10,5,-5,-4,-4,-1
1558439183940915,-3,-1,-11,-6,-6,4,-3,-5
1558439183940915,-5,-2,0,-4,-2,-2,-4,-2
1558439183941670,-1,-2,-2,9,-1,-1,0,-2
1558439183941670,-1,0,3,-1,-3,-4,0,-1
1558439183953637,-2,-1,-11,-12,-5,-6,-4,-6
1558439183953637,-1,1,5,10,7,2,2,-1
1558439183962613,2,2,2,1,-1,-3,1,1
1558439183962613,-1,-3,-8,4,7,4,3,0
1558439183976577,0,-1,2,5,-6,0,2,2
1558439183976577,-4,-4,-2,-4,-8,-3,-5,-5
1558439183985551,-1,0,0,0,-1,9,3,1
1558439183985551,1,0,-1,-2,2,-3,-2,2
1558439184000509,-2,-1,5,0,4,-2,0,1
1558439184000509,-1,-4,-20,-19,-6,-6,-1,-1
1558439184001509,-2,-1,-2,-1,-4,4,0,-2
1558439184001509,0,2,-1,-6,-6,-2,0,-2
1558439184014854,2,-1,-2,6,1,6,4,2
1558439184014854,-1,0,4,3,1,2,2,-3
1558439184022452,-2,-1,-3,-1,-2,-10,-3,0
1558439184022452,-3,-3,-3,-3,-1,-10,-7,-1
1558439184036698,2,5,11,6,2,-3,-5,0
1558439184036698,0,0,-1,-4,8,12,8,2
1558439184045393,-3,-4,-7,-8,-7,-3,-2,-3
1558439184045393,-1,0,3,6,1,3,2,-2
1558439184060352,-3,-1,-4,-8,-5,-3,-4,-2
1558439184060352,2,0,5,8,1,2,-4,-1
1558439184061347,-2,-5,-11,-15,-6,-5,-7,-2
1558439184061347,1,1,3,5,5,6,6,4
1558439184074714,-2,0,2,1,3,-7,1,1
1558439184074714,-2,-3,-3,-4,-6,-4,-6,-4
1558439184082310,-2,-4,5,9,-2,-4,-9,-6
1558439184082310,-3,-6,-13,-16,-6,1,0,-1
1558439184096666,-2,-5,-2,3,-2,-2,-3,-2
1558439184096666,-1,2,0,-5,4,12,10,3
1558439184105230,4,3,12,13,11,-7,-1,2
1558439184105230,-3,-3,-7,-22,-10,-11,-6,-4
1558439184120505,-2,-2,-12,-3,2,10,3,-2
1558439184120505,0,1,5,5,-4,-10,-5,-2
1558439184122260,-2,2,5,7,-1,8,4,1
1558439184122260,-1,-2,-7,-5,1,-4,-5,-3
1558439184134213,0,0,1,-4,-3,-10,-3,-1
1558439184134213,1,-3,0,0,-2,-3,-7,-3
1558439184142136,-1,-1,2,5,3,6,5,1
1558439184142136,-1,-3,5,15,3,3,1,0
1558439184157100,0,-2,-4,-4,-1,0,3,1
1558439184157100,-2,-3,-8,-3,-2,-1,-3,-2
1558439184165264,0,2,-1,-8,0,-2,-1,0
1558439184165264,-2,-1,0,-2,4,0,-4,-2
1558439184180307,0,-1,7,7,1,4,-6,-1
1558439184180307,1,2,5,6,6,2,2,4
1558439184181028,-4,-2,-16,-28,-11,-9,-1,-3
1558439184181028,-1,0,5,3,2,2,2,-2
1558439184193994,0,-3,-14,-19,-7,-8,-3,-2
1558439184193994,-2,-3,-2,-5,-7,-5,-4,-4
1558439184202969,2,-1,1,3,3,7,-2,-1
1558439184202969,-1,1,4,6,-7,-7,-3,-1
1558439184215964,-1,2,5,1,-3,-9,-6,-3
1558439184215964,1,1,2,-6,6,6,3,3
1558439184224910,-3,-7,-18,-16,-7,-6,4,2
1558439184224910,0,2,3,1,2,1,1,-1
1558439184239870,-1,-2,-1,0,0,4,-2,-1
1558439184239870,-1,0,0,3,-3,0,-2,-2
1558439184241865,-1,0,4,5,4,-1,-7,-1
1558439184241865,1,-1,-1,-1,5,9,8,-1
1558439184253832,1,1,8,11,7,3,3,0
1558439184253832,-1,0,-1,4,-5,-14,-4,-3
1558439184262809,-3,-5,-9,-7,-9,-1,-4,-3
1558439184262809,-5,-3,-1,15,1,-9,-5,0
1558439184275776,0,-1,-1,-6,0,2,3,0
1558439184275776,0,-1,-4,-6,-3,2,-2,-2
1558439184284752,-1,1,5,5,8,7,6,1
1558439184284752,0,-3,-1,1,0,1,5,2
1558439184299789,0,1,4,9,-1,-3,2,1
1558439184299789,0,-2,-8,-12,-6,-2,0,1
1558439184301705,-1,-1,-5,-1,-6,-5,-5,-3
1558439184301705,1,2,-9,-10,-11,-4,-5,-1
1558439184313700,-1,0,9,10,5,1,9,1
1558439184313700,-3,-1,1,-1,2,3,3,-1
1558439184322649,-1,-1,6,7,3,5,-3,-2
1558439184322649,0,-1,5,1,4,-3,-4,2
1558439184336813,0,-3,-4,-7,-2,0,-3,-3
1558439184336813,1,1,4,11,2,-5,0,1
1558439184344780,-2,-3,-7,2,-1,-10,3,0
1558439184344780,-2,-3,-2,-7,-5,-1,-5,-3
1558439184359549,-3,-1,0,-2,-2,5,5,0
1558439184359549,-2,-1,6,8,7,7,-4,-1
1558439184366634,0,1,1,0,2,-2,0,1
1558439184366634,0,2,2,1,6,5,7,1
1558439184373620,-2,-2,-12,-17,-13,-13,-8,-2
1558439184373620,2,1,3,-1,6,9,2,-1
1558439184382490,-1,-3,-4,3,-4,-2,-5,-4
1558439184382490,-2,-1,-2,-3,-1,-2,-4,-4
1558439184396483,-1,1,12,22,2,-1,-6,-1
1558439184396483,-2,-1,-13,-15,-4,-2,1,1
1558439184405439,-5,-2,8,6,2,0,-3,-2
1558439184405439,-2,-1,-7,-5,-5,-2,1,-2
1558439184420738,2,-2,-1,1,3,4,0,2
1558439184420738,-1,-4,-1,1,-1,-2,0,0
1558439184426373,0,-2,2,-1,-2,5,6,1
1558439184426373,-3,-5,-8,2,-5,-1,-9,-4
1558439184433354,-1,1,-1,-9,-2,-7,3,2
1558439184433354,2,3,1,0,4,-7,1,4
1558439184442345,2,3,6,8,2,-3,1,0
1558439184442345,-1,-2,-5,-23,-9,-3,-3,-1
1558439184456440,-1,-1,1,14,0,4,-4,-2
1558439184456440,-3,-3,1,-5,-2,1,0,-3
1558439184465268,1,3,2,-2,5,3,6,2
1558439184465268,0,4,7,14,3,1,2,1
1558439184479442,-2,-3,-10,-14,5,3,0,-4
1558439184479442,-3,-5,-2,-1,-7,-9,-8,-3
1558439184486423,-2,-2,3,-3,-9,-2,-1,-3
1558439184486423,0,-3,-3,2,2,-5,2,0
1558439184494189,-1,0,-3,-6,1,5,2,-1
1558439184494189,0,0,0,4,-6,0,-4,-4
1558439184502197,-1,-2,-1,-5,-8,-7,-5,-2
1558439184502197,0,0,5,2,2,-2,1,-1
1558439184516160,-1,-2,-5,-5,-5,-6,-1,1
1558439184516160,2,0,2,-1,0,-4,1,2
1558439184525112,-1,0,-6,-5,-3,0,-3,-2
1558439184525112,-2,-1,6,13,-1,4,-6,-4
1558439184539104,-5,-1,-8,-20,-8,3,-2,-1
1558439184539104,-1,0,-1,-3,-2,-2,2,0
1558439184546084,1,1,3,2,8,-2,1,2
1558439184546084,0,1,-3,-3,2,-6,3,1
1558439184563037,-2,-2,2,5,-1,-1,-7,-2
1558439184563037,-1,-2,0,0,-5,-1,0,-1
1558439184564004,-2,-1,-1,-1,-1,-2,-6,-2
1558439184564004,-2,-3,-7,-11,-6,-1,-6,-3
1558439184575971,0,1,4,9,5,1,10,3
1558439184575971,-1,1,1,-1,1,5,1,0
1558439184584948,0,-1,-5,1,1,0,0,-1
1558439184584948,1,-1,5,-5,-2,-4,-5,-3
1558439184599907,1,-2,2,15,1,-5,-8,-3
1558439184599907,-2,-1,-12,-19,-3,-3,5,-1
1558439184605930,1,-2,-1,-5,7,9,6,1
1558439184605930,-1,-1,-2,3,-6,-7,-3,-2
1558439184622847,-3,0,2,0,-4,-2,-6,-6
1558439184622847,1,1,4,7,-2,-1,-9,-3
1558439184623844,2,0,3,8,13,10,9,4
1558439184623844,0,-1,-3,-8,7,13,6,4
1558439184635839,0,-1,3,-2,2,-3,1,0
1558439184635839,-1,-3,-2,2,-2,-5,-5,-3
1558439184644817,-6,-1,-5,-4,-12,-10,-9,-3
1558439184644817,0,-1,-2,-3,-3,3,0,-1
1558439184659747,-3,-5,1,7,0,0,0,-1
1558439184659747,0,2,13,23,8,-5,2,-1
1558439184666734,-2,-7,-30,-32,-15,-10,-2,-3
1558439184666734,1,-1,-3,-2,-3,-1,-3,-1
1558439184682758,0,-2,-5,-9,-3,-2,-1,-1
1558439184682758,-2,-1,0,4,0,0,1,0
1558439184683778,-1,0,5,-2,1,0,-4,-3
1558439184683778,-2,-1,-2,2,-2,-1,2,5
1558439184696699,-1,-1,-5,-8,-4,-3,-8,-2
1558439184696699,-1,-2,-1,5,0,5,5,0
1558439184704801,0,0,6,2,1,2,2,1
1558439184704801,-2,-1,-9,-20,-6,-4,0,-3
1558439184719868,-2,0,3,1,4,2,-2,-2
1558439184719868,-1,-1,-4,-2,-5,-3,-6,-2
1558439184725856,-2,-2,-2,4,-3,3,-1,1
1558439184725856,3,1,4,8,9,0,4,4
1558439184742812,-1,-1,9,6,5,-3,0,-3
1558439184742812,-3,-2,-13,-10,-12,-4,-2,-2
1558439184743813,-4,0,-2,-5,-8,-5,-7,-6
1558439184743813,0,0,3,2,-2,-3,-4,-2
1558439184755810,0,1,-3,-2,0,9,5,3
1558439184755810,2,3,6,1,4,-1,-2,0
1558439184764785,4,1,12,12,7,1,5,6
1558439184764785,0,-2,-8,-7,-6,-7,-3,-3
1558439184779744,-3,-3,-1,-1,-10,-7,-7,-6
1558439184779744,-3,-4,-2,-3,-1,5,-2,-5
1558439184786692,1,-2,1,-2,2,6,-1,1
1558439184786692,-1,1,3,11,2,-6,5,2
1558439184802773,-1,1,-8,-8,0,-2,0,2
1558439184802773,-4,-2,-3,-9,-6,-3,-4,-3
1558439184803754,-1,0,4,10,1,-2,-4,-3
1558439184803754,-3,-1,0,2,2,4,-3,-2
1558439184816725,-1,0,-3,-10,1,-1,-1,2
1558439184816725,-1,-2,-7,1,4,2,2,3
1558439184824735,-3,-1,9,12,0,4,-5,-5
1558439184824735,-2,-3,-15,-12,-6,-8,-2,-2
1558439184839662,0,-1,1,1,-5,-7,-1,-2
1558439184839662,0,1,5,9,4,4,0,-2
1558439184846643,-1,-2,-7,-13,-6,-12,1,0
1558439184846643,-4,-1,-3,-18,-2,13,-3,-5
1558439184862636,1,-3,-4,-1,4,-4,-3,-2
1558439184862636,0,-2,0,4,0,-2,0,0
1558439184863632,-1,1,-6,-6,-1,3,-6,-4
1558439184863632,-1,0,12,12,0,-5,2,2
1558439184876564,-3,-3,-5,-10,-7,-2,-2,-5
1558439184876564,-1,0,-5,-12,1,3,2,1
1558439184885743,1,-1,1,3,-2,-8,-7,0
1558439184885743,-1,-1,-6,-2,0,2,-1,0
1558439184899623,-1,0,5,11,0,-7,0,2
1558439184899623,2,1,7,6,4,8,5,1
1558439184906607,-4,-6,-10,-16,-8,-1,2,-5
1558439184906607,0,-2,1,-1,-3,-6,-5,-1
1558439184922574,0,2,3,9,6,7,3,1
1558439184922574,-2,-1,2,-4,-4,-7,-8,-4
1558439184924534,-2,-1,-18,-12,-4,1,3,-1
1558439184924534,-3,-2,8,9,0,-3,-9,-4
1558439184936526,0,0,-4,-6,-4,3,3,0
1558439184936526,0,-2,-2,-2,10,2,3,0
1558439184945379,-2,-4,-6,1,-8,-6,-2,-2
1558439184945379,1,1,-5,-2,0,5,3,1
1558439184959348,1,2,5,10,4,2,-6,-1
1558439184959348,-6,-6,-12,-23,-13,-4,-6,-3
1558439184966357,-1,3,9,11,4,-1,2,3
1558439184966357,1,-1,-4,-2,-4,-4,4,2
1558439184982284,-1,-2,6,5,1,-1,-5,-1
1558439184982284,-1,0,-9,-16,-7,-11,-4,0
1558439184984277,0,1,9,8,9,6,2,0
1558439184984277,-3,-6,-4,-5,2,3,1,-3
1558439184996287,1,1,-5,-7,-4,0,0,-1
1558439184996287,-2,-1,1,5,-7,-2,-2,0
1558439185005225,4,-1,-1,0,-2,-8,1,2
1558439185005225,-1,-3,6,12,6,7,0,1
1558439185019184,-2,-2,-3,-7,-3,0,1,-2
1558439185019184,-3,0,1,0,3,3,0,0
1558439185026165,0,1,-4,1,-7,-3,1,1
1558439185026165,1,-1,-4,-6,1,-3,1,-2
1558439185042120,-1,-5,-6,-9,1,-4,1,-1
1558439185042120,0,-1,4,13,-3,-4,-4,-2
1558439185044115,-1,-2,0,-10,-1,3,-1,-3
1558439185044115,-3,0,6,6,-2,2,-3,-4
1558439185056082,-3,-2,-10,-18,-9,-8,-6,-2
1558439185056082,1,-1,-5,-7,5,-6,5,3
1558439185065058,1,1,3,7,4,4,4,1
1558439185065058,-4,-5,-8,-12,-7,-2,-5,-2
1558439185079023,0,1,9,13,2,-4,-3,0
1558439185079023,1,-1,7,8,3,1,-5,-2
1558439185086003,-3,-2,-6,-6,-8,-6,-6,-1
1558439185086003,3,2,-2,-2,1,0,5,3
1558439185103158,0,-4,-7,-4,5,5,7,0
1558439185103158,-2,-4,-9,-6,-11,-7,-6,-6
1558439185103954,0,0,3,-1,7,4,-1,0
1558439185103954,-4,-1,5,8,-5,-10,-6,0
1558439185116114,-1,3,10,9,0,-3,-3,1
1558439185116114,0,0,-6,-4,1,-2,5,-1
1558439185124990,0,0,2,-2,-3,3,-1,-3
1558439185124990,-3,-4,-12,-15,-5,1,-1,-3
1558439185139978,-5,-3,-5,-1,-2,-7,-3,-2
1558439185139978,0,-1,2,2,2,-7,-6,1
1558439185146861,-2,-2,4,3,1,1,0,-1
1558439185146861,4,3,3,5,5,11,5,3
1558439185162835,-1,-2,3,3,-6,-8,-2,-2
1558439185162835,-2,0,-5,-9,-3,0,-2,0
1558439185163830,-3,-6,-5,2,-4,1,1,-2
1558439185163830,-1,0,3,2,5,1,-1,-2
1558439185176760,-1,-3,-3,3,-2,6,0,-3
1558439185176760,-1,2,7,8,3,-2,-1,-1
1558439185192733,0,-2,-1,-10,2,-3,-2,-2
1558439185192733,1,0,8,13,-3,-7,-3,-2
1558439185199771,2,-1,-17,-26,-8,5,-2,1
1558439185199771,-5,-5,-8,-7,-5,-6,2,-3
1558439185206697,-3,0,0,3,2,2,-3,-3
1558439185206697,-3,-2,-12,-8,-9,-7,-4,-3
1558439185222677,1,2,8,10,9,7,1,-1
1558439185222677,2,-1,4,1,-1,7,5,-2
1558439185223638,1,3,2,0,3,-6,-2,2
1558439185223638,-3,-4,-15,-17,-7,-10,0,-3
1558439185236639,-1,0,2,1,-3,-1,1,1
1558439185236639,-1,-1,0,4,-2,1,-3,0
1558439185245578,2,2,12,5,3,-1,-1,-1
1558439185245578,0,0,4,2,-2,1,-1,-1
1558439185259540,1,-1,-3,2,11,8,3,-4
1558439185259540,0,2,1,-1,-2,-3,-3,1
1558439185266522,0,1,8,9,1,-1,3,0
1558439185266522,-2,-3,-10,-9,-1,-8,-5,-1
1558439185282511,-2,-3,-1,-12,-7,-7,2,1
1558439185282511,0,-2,-2,4,-3,-1,-7,-3
1558439185288673,-1,-3,-7,-3,-2,1,1,-2
1558439185288673,0,0,7,8,9,7,2,2
1558439185296651,0,2,4,4,4,-6,2,4
1558439185296651,0,-1,3,0,1,-2,-3,-2
1558439185304896,-4,-4,-7,-11,-17,-6,-6,-4
1558439185304896,0,0,2,-2,-5,-9,-2,-1
1558439185319958,-3,0,1,5,6,9,1,-3
1558439185319958,1,0,3,5,0,-4,3,0
1558439185325844,-1,-3,-6,7,1,-5,-3,-2
1558439185325844,-4,-3,-11,-19,-3,4,-2,-2
1558439185341854,-3,1,3,0,-3,-5,-4,-1
1558439185341854,-2,-4,-5,-3,-3,-5,1,1
1558439185348813,1,1,-2,-9,5,5,0,0
1558439185348813,0,0,0,1,-3,-2,0,0
1558439185355800,1,-2,-5,1,-4,-1,-1,2
1558439185355800,0,0,2,-1,-3,1,1,-1
1558439185364776,1,0,1,-2,2,-6,-1,2
1558439185364776,1,-1,6,9,3,-1,4,-3
1558439185379746,-3,-3,-7,-8,-1,4,0,0
1558439185379746,-2,-1,-1,-5,-2,0,-6,-2
1558439185387685,-3,-2,-4,-4,-4,-2,1,0
1558439185387685,3,3,8,6,3,-3,1,2
1558439185401681,-2,-3,7,20,5,-6,-4,-3
1558439185401681,-1,0,-6,-14,0,1,2,-1
1558439185408628,-1,-3,-4,-3,-1,-6,-5,-5
1558439185408628,-1,-1,-7,-9,-8,2,-3,0
1558439185416626,2,4,7,6,-1,-2,3,1
1558439185416626,-3,-5,-8,5,1,2,1,2
1558439185425577,-1,0,-5,-20,-4,-5,-1,1
1558439185425577,-2,1,8,6,7,6,-4,-3
1558439185438541,1,-1,-7,-4,1,2,3,0
1558439185438541,-1,-1,-2,0,0,-2,-1,0
1558439185447518,0,-3,-1,-6,-3,2,-3,-1
1558439185447518,-3,-4,-2,3,-4,-4,-5,-5
1558439185462507,-2,-3,-1,0,-3,0,-3,-1
1558439185462507,0,1,0,-11,0,5,5,1
1558439185485522,-2,1,-3,3,-5,-7,-2,0
1558439185485522,-2,0,1,0,0,1,-3,1
1558439185486519,0,0,3,3,8,9,9,1
1558439185486519,-2,-2,-2,-2,-7,-5,-5,-2
1558439185488515,-4,-1,6,17,7,3,0,-1
1558439185488515,-2,-4,-19,-18,-9,-3,2,0
1558439185498488,0,-1,-3,-12,-5,-10,-3,-1
1558439185498488,0,-2,1,11,0,-1,-2,-2
1558439185507463,-1,-1,-5,2,-2,4,-5,-5
1558439185507463,-1,0,8,5,-6,-1,-2,-5
1558439185521505,-1,0,-6,1,-3,-8,0,1
1558439185521505,0,1,0,-8,8,5,4,1
1558439185528451,-2,-2,-2,-3,0,-6,-7,-1
1558439185528451,0,-1,6,3,-3,-4,1,1
1558439185545394,-5,-4,-3,-2,-7,2,-5,-7
1558439185545394,-4,-3,-4,2,-7,-10,-8,-4
1558439185546359,0,2,2,4,9,17,11,5
1558439185546359,0,-3,-3,-6,-1,-9,-1,0
1558439185558366,-1,0,-5,-17,-13,-3,-7,-3
1558439185558366,1,0,8,14,5,0,1,2
1558439185567303,-1,-2,-11,-9,-3,3,3,-1
1558439185567303,-3,0,2,1,7,3,-2,-2
1558439185582264,-2,-4,-3,2,-4,-3,-2,-4
1558439185582264,-3,-1,5,7,4,6,3,-2
1558439185588288,1,-1,-7,-5,-8,-5,-2,-1
1558439185588288,-1,-4,1,8,1,1,3,1
1558439185605244,1,0,0,-5,-2,-10,-6,-1
1558439185605244,-5,-3,-16,-20,-8,-1,-8,-4
1558439185606199,-2,-1,4,7,-4,-5,-1,-3
1558439185606199,0,-2,-1,1,7,7,3,1
1558439185619166,-4,-2,-1,3,4,8,1,-3
1558439185619166,-1,-2,-5,5,-7,-11,-2,0
1558439185627144,-1,2,4,-9,0,-2,2,2
1558439185627144,2,3,7,12,9,-1,2,4
1558439185642138,-4,-5,-6,-17,-10,5,-3,-1
1558439185642138,1,-1,0,4,4,2,7,1
1558439185649084,0,-2,0,1,-1,-5,-5,0
1558439185649084,-3,-3,3,6,-4,-7,-4,-3
1558439185665076,2,1,-2,0,3,3,1,2
1558439185665076,4,4,15,4,6,1,3,3
1558439185666042,-3,-5,-12,-5,-7,-7,-10,-4
1558439185666042,-1,-1,-6,-5,-2,7,1,-2
1558439185679009,-1,-1,1,0,-4,-1,-1,-1
1558439185679009,1,3,12,13,6,-7,-5,-1
1558439185687980,2,-2,-17,-25,-10,-11,0,0
1558439185687980,-4,-4,-7,-10,-6,-10,-7,0
1558439185701978,-2,-2,-4,-4,1,1,3,-3
1558439185701978,-5,-2,-1,2,0,6,-1,-4
1558439185708928,-1,-1,9,10,0,0,-8,-3
1558439185708928,1,2,3,3,2,5,0,1
1558439185724923,0,-5,-15,-7,-2,-7,1,2
1558439185724923,2,1,-2,-6,-5,0,0,-1
1558439185726878,-2,-1,3,8,7,0,4,1
1558439185726878,2,1,-1,1,-3,2,-4,-2
1558439185738883,0,1,12,0,3,0,1,1
1558439185738883,-2,-2,-4,-3,-3,2,-6,-2
1558439185747821,-4,-3,-5,-1,-4,2,2,0
1558439185747821,0,2,1,-5,-2,3,1,1
1558439185761817,-2,-2,1,10,2,-3,-2,0
1558439185761817,-1,0,-2,-8,-2,-7,-2,0
1558439185769108,-1,-2,4,0,-1,1,-5,-6
1558439185769108,1,0,5,8,0,-9,-2,-1
1558439185785074,0,0,-11,-13,6,8,6,0
1558439185785074,-1,-4,-11,-16,-8,8,0,-2
1558439185786070,-1,-1,1,0,-3,-3,-3,-2
1558439185786070,-2,-3,-3,3,-9,-9,-4,-3
1558439185799005,1,1,2,-10,3,2,-1,0
1558439185799005,-2,-2,1,5,4,-2,-1,-1
1558439185807978,0,1,2,-2,-3,1,0,-1
1558439185807978,-2,-4,-15,-22,-10,-7,-5,-4
1558439185821979,-1,-2,0,9,4,1,3,1
1558439185821979,-1,-4,-1,1,2,-4,-2,-1
1558439185829115,0,0,4,-6,-5,0,3,1
1558439185829115,-6,-4,-3,6,3,4,1,-2
1558439185844885,-2,-1,-1,0,5,0,-1,-1
1558439185844885,1,0,-2,-1,-7,-1,-9,0
1558439185846876,-3,-2,4,3,2,-1,0,-1
1558439185846876,-1,0,1,1,2,-3,1,-1
1558439185858845,0,0,-3,-4,-4,2,-2,-1
1558439185858845,-4,-4,-1,5,-3,-1,0,-3
1558439185867819,0,1,1,13,5,2,2,0
1558439185867819,1,0,-7,-26,-5,-11,-2,3
1558439185881785,-4,-4,6,15,-3,-6,-8,-5
1558439185881785,-2,1,-2,-10,-1,3,1,1
1558439185889083,-2,-1,0,7,0,1,-2,0
1558439185889083,2,2,1,-2,3,4,4,1
1558439185905873,-1,2,13,17,2,-4,0,0
1558439185905873,-2,-3,-16,-18,-4,1,0,-3
1558439185907170,-1,0,-1,1,0,-7,-1,0
1558439185907170,-2,-1,0,4,0,2,-2,-4
1558439185919091,0,-1,-4,-2,0,1,-1,0
1558439185919091,1,-1,7,4,3,5,8,-1
1558439185927658,-1,-3,5,5,-6,-6,-5,-2
1558439185927658,-2,-3,-8,-3,3,6,4,-1
1558439185942047,-2,-2,-9,-17,-12,-9,-8,-5
1558439185942047,-1,0,5,5,-4,-8,-2,1
1558439185949053,-3,-2,-4,-5,2,3,-6,-3
1558439185949053,-1,-2,5,10,-4,-6,-10,-2
1558439185964904,-2,3,-4,-8,0,9,8,1
1558439185964904,-1,0,13,20,7,-8,-5,-3
1558439185966555,-2,0,-10,-17,-6,0,0,-3
1558439185966555,-1,-3,3,19,-4,-2,-1,0
1558439185978851,-1,-1,-4,-14,1,2,1,0
1558439185978851,-3,-3,-11,-12,-11,-3,-1,-5
1558439185987525,1,2,0,-9,7,9,6,0
1558439185987525,0,-3,-6,-6,-5,-6,-3,-3
1558439186001493,1,0,11,15,2,-6,3,-1
1558439186001493,0,-2,-5,-5,2,8,2,1
1558439186008645,-1,-6,-9,0,1,-3,-4,-2
1558439186008645,-2,-1,2,-13,-5,-2,0,-1
1558439186025400,-3,-4,-5,-2,-11,-13,-12,-3
1558439186025400,0,4,1,3,3,-1,4,3
1558439186026398,1,2,1,0,-1,-5,0,0
1558439186026398,-2,2,4,6,13,13,3,2
1558439186039466,-3,-2,0,8,-7,-5,-3,1
1558439186039466,-4,-4,-4,-10,-5,-5,-5,-4
1558439186047340,0,-4,5,12,0,-2,-2,-2
1558439186047340,1,1,-6,-12,-4,-9,-4,-1
1558439186062302,1,0,-3,0,2,4,-1,-1
1558439186062302,1,1,2,0,8,14,7,0
1558439186068286,2,1,0,-2,6,2,5,3
1558439186068286,-3,-1,6,17,3,0,-5,-2
1558439186085585,0,-2,-3,-13,-6,-2,-6,-3
1558439186085585,-2,-3,-8,-9,-8,-10,-9,-5
1558439186086431,-4,-2,7,16,-1,5,-3,-4
1558439186086431,-1,-1,-13,-26,-1,-2,2,2
1558439186099515,0,1,-3,0,-2,-8,-2,-1
1558439186099515,-1,-1,7,10,4,5,-1,-2
1558439186107179,-2,-2,-15,-24,-13,-6,-4,-2
1558439186107179,1,2,3,11,-1,-1,1,-1
1558439186122139,-2,-1,-2,-5,-6,2,-9,-2
1558439186122139,1,-2,2,1,6,-1,10,6
1558439186129119,1,3,10,10,7,-4,4,2
1558439186129119,-2,-1,-3,-7,1,9,3,-1
1558439186145077,-3,-1,10,10,-3,-5,-3,-4
1558439186145077,-3,-3,-9,7,-3,-5,-5,-2
1558439186146073,-2,1,-2,-14,2,6,3,0
1558439186146073,1,-1,-1,-5,2,4,3,2
1558439186159040,0,1,6,9,6,3,3,3
1558439186159040,0,1,-1,-8,-4,1,-1,0
1558439186175329,1,1,2,3,-2,-7,-2,-1
1558439186175329,-1,-2,4,15,4,3,-1,-2
1558439186181978,2,-2,-5,-2,-4,-1,0,-4
1558439186181978,1,-2,-8,-19,-10,-22,-5,0
1558439186189429,-3,-5,-14,-9,-7,1,-7,-2
1558439186189429,-1,2,13,10,2,4,7,0
1558439186205376,-3,-4,-11,-4,5,-1,6,0
1558439186205376,0,2,4,-5,-3,0,-3,0
1558439186206912,0,0,5,5,5,3,3,0
1558439186206912,-4,-5,-10,-10,-8,-6,-4,0
1558439186219333,0,-1,3,1,-1,1,-2,-1
1558439186219333,-1,0,7,5,5,1,0,0
1558439186227856,-3,-2,-9,-12,-1,4,1,0
1558439186227856,-1,-1,6,8,-3,-6,-3,-3
1558439186242065,0,-1,0,-4,-1,-1,0,-1
1558439186242065,-3,-2,-5,5,-6,0,-5,-1
1558439186249125,-1,-2,8,6,3,6,2,-2
1558439186249125,-2,-3,-6,-14,1,-10,-2,-1
1558439186265075,0,0,1,-3,0,-1,-2,2
1558439186265075,0,-3,-2,-4,-1,-10,-7,-3
1558439186270741,1,1,2,4,-2,-1,3,1
1558439186270741,-1,-3,-4,-4,-4,0,-4,-3
1558439186278720,-2,-1,3,1,-2,-2,0,-4
1558439186278720,-3,-4,-8,-5,-2,7,-2,-5
1558439186287695,-1,1,4,13,-2,-14,-3,1
1558439186287695,0,1,2,-5,4,12,2,0
1558439186301657,-1,-1,5,6,8,3,0,1
1558439186301657,0,-1,-15,-24,-10,2,1,-2
1558439186308837,-2,1,0,-1,2,0,-4,0
1558439186308837,0,-1,-5,-3,5,8,2,3
1558439186325064,-2,-2,-4,-7,-8,-7,-3,-1
1558439186325064,-1,0,3,8,2,4,1,-1
1558439186331583,2,-1,0,-1,-2,-4,-5,-1
1558439186331583,-1,0,-3,-15,-6,1,-3,-2
1558439186339020,-4,-1,5,7,4,2,0,2
1558439186339020,3,1,11,10,7,4,5,2
1558439186347773,-4,-3,1,5,-8,-12,-6,-6
1558439186347773,0,-2,-9,-11,-6,-6,-7,-2
1558439186361958,-1,-2,-9,-4,-3,2,1,0
1558439186361958,1,4,2,-7,-4,-14,3,-1
1558439186368942,-1,-1,-1,-2,9,9,0,-2
1558439186368942,0,0,0,15,1,-3,2,1
1558439186384874,-1,0,-7,-3,-6,-6,-4,-2
1558439186384874,-6,-2,0,-3,0,-1,-5,-4
1558439186391871,-1,-2,-2,0,2,6,-2,-3
1558439186391871,-2,-2,3,3,1,1,2,-2
1558439186398400,1,0,0,0,0,-9,1,-1
1558439186398400,2,2,4,7,2,2,-1,1
1558439186407729,-1,-4,-8,0,3,5,7,2
1558439186407729,-6,-2,-6,-12,-8,-5,-5,-7
1558439186422629,-1,-2,2,10,5,6,-3,-3
1558439186422629,1,-3,-3,-8,2,3,4,2
1558439186429420,-3,-1,-5,-21,-10,-8,-6,-1
1558439186429420,2,0,1,7,-5,-9,-1,0
1558439186444622,1,2,3,1,6,11,9,3
1558439186444622,-3,-3,-7,-5,-2,-1,-2,0
1558439186451582,1,1,2,0,1,1,2,3
1558439186451582,-3,-1,-1,9,-3,-4,-1,-2
1558439186467242,-2,-1,-5,-13,-10,-4,-4,-3
1558439186467242,-2,-2,0,2,-1,0,-2,-2
1558439186469213,0,-1,-1,-3,0,6,-2,-1
1558439186469213,1,3,1,8,-2,-5,-3,-1
1558439186482324,0,0,1,-2,-1,-6,-2,1
1558439186482324,-5,-4,-4,2,3,2,-2,-1
1558439186489493,-2,-1,-1,-5,-7,-4,1,-6
1558439186489493,0,-1,-1,3,5,1,-1,-2
1558439186504119,-5,-5,-6,-5,-3,3,2,-4
1558439186504119,-1,2,5,10,2,-8,0,0
1558439186511098,-1,0,-5,-9,-2,-4,-2,-1
1558439186511098,-1,1,10,14,5,-1,-1,0
1558439186528185,-2,-5,-21,-27,-10,-6,-2,-2
1558439186528185,-3,-3,5,8,-6,-2,-4,-3
1558439186529053,1,1,7,5,7,0,3,1
1558439186529053,0,-3,-5,-8,2,1,-1,0
1558439186542015,3,3,6,14,-6,-6,0,-1
1558439186542015,-4,-6,-12,-21,-5,-1,-2,-3
1558439186549094,-3,-1,-2,1,-5,-1,-4,-2
1558439186549094,0,-2,1,2,1,1,-2,0
1558439186564265,-3,1,4,1,-1,-5,-3,1
1558439186564265,2,2,2,4,2,-1,1,1
1558439186571952,0,1,5,9,-3,-6,1,-2
1558439186571952,-1,-1,-8,-19,0,4,0,-3
1558439186588189,2,-2,-7,-3,5,1,2,4
1558439186588189,-1,-1,3,6,6,7,5,2
1558439186589888,-3,-3,-5,-6,-1,-5,-4,1
1558439186589888,-1,-2,2,-2,-7,-1,-4,-2
1558439186602168,1,1,1,-4,-3,-4,-6,-3
1558439186602168,-1,-1,-2,-3,-2,1,-1,-1
1558439186608836,0,-2,-2,1,-1,2,-3,-1
1558439186608836,1,3,5,2,3,-1,0,1
1558439186625065,-1,-1,-2,-4,-3,4,-2,-1
1558439186625065,-3,-4,-11,-1,-5,-3,-1,0
1558439186631927,1,1,4,9,-1,-10,-2,0
1558439186631927,-1,-2,-4,-8,-6,0,-1,1
1558439186648018,-2,-2,-1,-1,2,4,1,1
1558439186648018,-1,0,-8,-6,-2,-13,-6,-1
1558439186648734,-3,-2,-4,-4,-2,6,0,-3
1558439186648734,-3,-2,-8,-12,-3,-1,0,-1
1558439186661699,-2,-1,2,2,6,4,3,0
1558439186661699,0,0,2,7,0,9,3,0
1558439186668947,-2,0,-3,0,3,-4,0,1
1558439186668947,-3,-4,-3,-1,-9,-11,-8,-3
1558439186684919,-1,0,7,-2,-3,-5,-4,-2
1558439186684919,0,-2,2,-1,-3,0,-10,-4
1558439186691618,0,-3,-4,7,0,0,3,0
1558439186691618,-2,-2,-8,-15,-3,1,4,0
1558439186707881,-1,-3,-13,-12,-3,0,-3,-3
1558439186707881,-2,-2,5,5,1,1,-1,-1
1558439186708575,-2,0,-2,-7,3,1,0,1
1558439186708575,-1,0,6,16,3,4,0,2
1558439186722664,-3,-1,3,-2,-11,-14,-7,-6
1558439186722664,2,2,0,1,5,-3,-1,0
1558439186728800,1,2,-1,1,0,7,5,3
1558439186728800,-1,-1,-1,5,3,-2,-1,0
1558439186744772,-1,1,7,8,3,-7,0,0
1558439186744772,1,0,-5,-4,-5,2,-1,-4
1558439186751774,-2,0,-1,-2,-3,-3,1,-3
1558439186751774,3,0,1,7,-1,1,2,0
1558439186767715,2,-2,2,-5,5,12,-5,0
1558439186767715,0,0,-5,-10,-3,-13,6,3
1558439186769408,1,-3,-6,-5,-2,4,-4,-3
1558439186769408,-4,-2,-4,-11,-7,-9,-3,-2
1558439186782672,-2,0,6,13,0,3,1,1
1558439186782672,-1,0,6,4,11,12,7,2
1558439186789384,-3,-2,-7,-10,-11,-7,-8,-1
1558439186789384,-1,0,2,-4,1,-4,-1,-2
1558439186804615,-3,-2,-3,0,1,1,-1,-4
1558439186804615,-2,1,-8,-7,-1,-6,-2,0
1558439186811584,-1,-2,2,2,0,-2,2,1
1558439186811584,-2,-2,0,4,4,6,0,-3
1558439186828251,0,-2,-7,-6,-6,1,-1,-2
1558439186828251,0,-1,7,12,-3,-3,1,-1
1558439186829251,-3,-4,-5,-13,-7,-2,-5,-4
1558439186829251,0,-1,-2,-5,0,-4,0,2
1558439186842213,0,0,-1,6,1,-1,3,3
1558439186842213,0,0,2,4,-6,-6,1,1
1558439186848224,0,-1,1,6,7,4,1,-2
1558439186848224,1,2,-5,-2,-4,5,-1,-2
1558439186864154,-1,0,10,9,4,-6,-3,0
1558439186864154,-1,-6,-19,-25,-11,-7,-8,-3
1558439186871161,-2,-2,6,6,2,7,5,3
1558439186871161,-2,-2,3,7,-2,-3,4,0
1558439186887091,0,-2,-3,-5,1,-1,3,1
1558439186887091,-1,0,6,7,4,1,0,-1
1558439186895070,-1,0,-6,-18,-8,-5,-4,-2
1558439186895070,-2,-2,1,4,-3,-2,-2,-3
1558439186901494,2,0,5,-2,3,3,2,-1
1558439186901494,-2,-3,-7,4,2,7,-3,-3
1558439186917013,-2,-1,-8,-7,-8,-13,-3,0
1558439186917013,2,1,4,3,-4,-2,2,1
1558439186925294,-1,0,-3,0,2,9,4,-3
1558439186925294,-1,1,3,-5,-2,0,-2,1
1558439186939297,0,0,13,20,12,10,3,2
1558439186939297,-2,-1,-20,-20,-7,-3,-2,1
1558439186947929,-3,-2,-2,-7,-3,-7,-5,-2
1558439186947929,-2,0,-5,-5,-2,-2,4,1
1558439186948928,-1,0,-4,1,-2,-7,-5,-4
1558439186948928,-2,0,6,2,-1,1,-4,0
1558439186960894,-2,-1,-1,-3,-5,-8,1,0
1558439186960894,0,-6,-3,2,4,2,-3,-2
1558439186969872,-1,0,4,2,0,4,-3,-3
1558439186969872,-3,-3,-3,1,3,-1,-1,-3
1558439186984084,-3,-1,-5,-4,-1,1,-1,-3
1558439186984084,-1,1,6,0,-5,-5,-6,-3
1558439186991816,-3,-4,-4,-6,-6,-9,-6,-6
1558439186991816,2,1,5,10,14,10,3,3
1558439187006978,-1,-2,-3,-5,-1,0,0,1
1558439187006978,1,1,1,-1,-2,1,0,0
1558439187013754,0,-2,4,2,-5,-4,-6,-2
1558439187013754,-4,-4,-11,-12,-10,-15,-7,-4
1558439187020734,1,1,6,-2,5,5,3,2
1558439187020734,-3,-3,-13,-8,-5,3,-4,-4
1558439187029712,2,2,-4,-3,5,-4,5,3
1558439187029712,0,-1,6,6,-1,-4,1,-1
1558439187044686,1,-3,-8,-4,-5,1,-6,-4
1558439187044686,-1,-1,5,8,1,9,1,-1
1558439187051714,1,0,0,1,0,-8,0,0
1558439187051714,-2,-5,-7,-2,-4,-8,-3,-5
1558439187067609,-4,0,-3,-1,-5,-4,-5,-2
1558439187067609,-2,0,3,2,0,-1,1,0
1558439187068608,-2,-1,3,4,3,7,3,-3
1558439187068608,-2,0,-2,-7,4,6,4,-1
1558439187081573,1,1,4,13,-2,-11,-7,-3
1558439187081573,-3,0,-5,-11,-4,-1,3,-2
1558439187097529,-2,-2,0,-1,-2,-1,1,1
1558439187097529,1,1,6,9,4,1,-1,3
1558439187104808,-3,-4,-14,-20,-6,2,-5,-2
1558439187104808,-1,1,4,7,4,2,-3,-2
1558439187111516,0,0,0,4,1,5,5,1
1558439187111516,-2,-1,-6,-9,-7,-8,-5,-2
1558439187127450,-2,-2,-3,2,1,2,5,-3
1558439187127450,0,2,2,2,-1,-2,0,2
1558439187128447,-1,-1,-6,-11,-5,-2,-5,-3
1558439187128447,1,1,3,3,0,6,-1,0
1558439187150499,1,2,2,5,7,5,0,2
1558439187150499,-3,-3,3,5,-1,1,-1,-1
1558439187151386,-1,-3,-7,-18,-7,-7,-3,-1
1558439187151386,-2,-2,-4,-3,3,-4,-2,-1
1558439187164352,-1,0,4,4,-4,0,1,-1
1558439187164352,-2,-1,-7,-11,-6,-7,-4,-3
1558439187172329,-2,-1,-2,5,-3,3,0,-2
1558439187172329,0,0,1,1,5,6,1,1
1558439187186294,0,-2,2,5,-3,-9,-1,0
1558439187186294,-2,-3,-3,-2,3,3,-1,0
1558439187193282,1,-1,6,4,-2,-7,-3,-1
1558439187193282,-1,1,-5,-10,-3,2,-1,-2
1558439187201252,-1,1,-3,-2,-4,-4,-1,1
1558439187201252,2,0,2,2,-6,-14,-7,-3
1558439187210232,-1,-2,-6,-3,3,10,3,-3
1558439187210232,0,-1,10,8,1,1,-3,1
1558439187224191,-2,-1,-5,-3,1,2,3,3
1558439187224191,0,-3,-2,-1,2,-1,3,1
1558439187231208,-1,-1,-2,4,1,3,-2,0
1558439187231208,-1,-1,2,3,0,0,-1,-2
1558439187247130,-3,-1,0,-1,-3,-4,-1,-1
1558439187247130,-2,-1,-2,1,2,1,-1,-1
1558439187253385,0,0,-4,-4,-7,-7,-6,-2
1558439187253385,-2,-3,-2,-3,1,3,3,0
1558439187261220,0,-2,1,8,1,1,-11,-3
1558439187261220,0,-2,-8,-14,-7,-1,0,1
1558439187270071,2,0,5,7,6,-3,4,4
1558439187270071,-3,-6,-17,-15,-6,-6,-4,-2
1558439187284031,-1,-2,1,-2,3,-3,0,-1
1558439187284031,1,3,15,13,1,4,0,1
1558439187291018,-3,1,0,-1,-1,-1,0,-3
1558439187291018,-2,0,4,4,4,8,0,0
1558439187307239,-2,-5,-13,-14,-12,-2,-3,0
1558439187307239,0,-2,1,8,3,-4,0,0
1558439187313949,-1,-4,2,6,-4,-11,-3,-2
1558439187313949,3,3,13,5,2,-5,0,-1
1558439187320949,-5,-4,-17,-26,-9,0,-4,-4
1558439187320949,0,-1,2,4,3,5,3,2
1558439187329952,-2,-3,-15,-21,-3,4,-3,-2
1558439187329952,-3,0,6,11,4,0,5,3
1558439187343870,2,-1,5,9,0,-4,-4,-4
1558439187343870,-1,-1,-8,-15,-6,-7,-3,0
1558439187350859,0,1,2,6,6,9,4,1
1558439187350859,1,-1,-1,-5,2,4,-2,-1
1558439187366810,2,2,10,8,4,8,1,2
1558439187366810,-1,0,5,13,-5,-4,-2,-3
1558439187373997,-3,-3,-14,-21,-6,-4,-2,-2
1558439187373997,-2,-1,-9,-9,-6,-9,-6,0
1558439187389753,-1,-2,-1,2,4,3,7,3
1558439187389753,-1,-1,0,-4,-1,-4,-6,-4
1558439187391742,-1,0,6,13,1,0,-3,-3
1558439187391742,-3,-4,-2,-7,-4,-1,-4,-4
1558439187404706,2,3,7,6,0,-6,-1,-1
1558439187404706,-3,-6,-6,-6,-3,-5,0,1
1558439187410692,-1,-1,-3,-8,-3,9,-3,2
1558439187410692,-1,0,-5,0,-2,-3,2,0
1558439187426659,-1,-1,4,1,2,-1,-2,-1
1558439187426659,0,1,-1,-5,-3,-2,0,0
1558439187434628,-2,-1,5,10,-2,-17,-2,-2
1558439187434628,-4,-3,-7,-12,-11,-1,-5,-5
1558439187449588,-3,-1,0,-3,10,11,5,2
1558439187449588,0,-1,-5,-5,-6,-2,1,-2
1558439187451582,1,-2,6,10,6,2,2,0
1558439187451582,1,0,0,6,-5,-4,-4,-3
1558439187464548,-1,0,-1,5,-4,-5,-4,-2
1558439187464548,-6,-4,-4,-6,1,8,2,-1
1558439187471529,-1,-1,-8,-15,-5,1,-3,-1
1558439187471529,0,-2,-4,-5,-5,-9,-1,2
1558439187486488,1,-1,0,2,-2,-2,-2,-2
1558439187486488,1,-1,-3,3,2,0,-3,1
1558439187493470,-2,2,2,2,-1,-4,-2,-2
1558439187493470,-3,-2,-8,-6,-2,3,3,-1
1558439187510428,-2,-2,-10,-9,-5,0,-2,-3
1558439187510428,2,3,7,3,4,-4,-1,-1
1558439187511443,-2,-2,-1,2,1,-2,3,2
1558439187511443,-1,3,7,6,5,0,2,2
1558439187524388,-3,-5,-2,-6,-10,-12,-6,-1
1558439187524388,-2,-3,-1,13,4,0,-4,-4
1558439187531369,0,-2,0,-19,9,17,6,0
1558439187531369,2,2,4,0,2,1,3,2
1558439187546329,-2,-1,-2,-8,-3,-7,-1,-3
1558439187546329,-1,-2,-3,-7,-4,5,0,-1
1558439187553310,-3,-2,-3,3,-3,-11,-8,-1
1558439187553310,2,-2,-2,2,-5,0,2,-2
1558439187570274,-2,0,0,1,-2,-4,-4,-2
1558439187570274,1,-2,-3,-14,-3,-7,0,-2
1558439187571263,1,-1,0,4,-4,-5,4,0
1558439187571263,-2,-1,3,10,9,3,1,0
1558439187584228,2,0,0,-2,0,2,2,2
1558439187584228,-4,-3,8,12,0,2,-5,-2
1558439187591211,-3,-4,-6,0,-1,5,-2,-1
1558439187591211,1,-3,-9,-17,1,2,-3,-3
1558439187607167,-2,0,-2,4,3,7,-2,1
1558439187607167,1,2,2,2,-3,-7,3,3
1558439187613150,-1,1,2,3,-6,-5,-3,-2
1558439187613150,-2,1,6,6,2,0,2,1
1558439187630104,-1,-2,0,6,-2,5,-2,-2
1558439187630104,2,0,2,-8,3,6,5,0
1558439187631101,-2,-1,0,7,-4,-7,-4,-3
1558439187631101,1,0,-2,5,-1,-10,-4,0
1558439187644075,-2,-4,-7,-20,-6,-5,3,0
1558439187644075,0,-1,-7,-11,-8,-2,-1,0
1558439187651050,-1,-3,6,10,7,1,-2,-4
1558439187651050,-1,-2,-6,-5,-11,0,-4,0
1558439187667011,0,-1,2,8,7,-2,1,1
1558439187667011,-3,1,-2,-4,-2,-7,0,-2
1558439187673994,0,1,2,2,5,13,5,4
1558439187673994,-3,-4,-10,-8,-4,-4,-1,-4
1558439187689946,1,1,5,20,0,-4,3,1
1558439187689946,-1,0,2,-4,6,9,2,3
1558439187690942,-2,0,5,7,-2,-2,-5,-3
1558439187690942,-1,-4,-5,-20,-4,-3,-6,-3
1558439187712884,-3,-1,2,1,-4,1,-1,-3
1558439187712884,-3,1,-2,3,7,4,1,0
1558439187713885,2,3,6,15,5,-2,6,1
1558439187713885,-3,-1,-7,-15,-5,-1,-3,-4
1558439187726847,-2,-1,-5,-11,-6,-4,-3,-2
1558439187726847,0,-2,1,3,-1,-3,-4,-2
1558439187733853,-1,-2,-2,-5,-4,5,-1,-2
1558439187733853,1,2,9,16,3,-1,2,1
1558439187749786,0,0,4,3,10,5,1,1
1558439187749786,-3,0,1,-9,-3,-1,1,-2
1558439187751779,-4,-4,-8,-7,-6,-11,-10,-4
1558439187751779,-2,-2,4,-2,0,8,5,1
1558439187764744,-2,-4,-7,-5,-6,-8,-6,-1
1558439187764744,-2,-2,-3,6,2,-1,-6,-3
1558439187770728,-3,-2,-10,-15,-8,-10,-7,-3
1558439187770728,-2,1,5,7,5,0,3,-1
1558439187786686,0,0,9,7,0,-3,1,-3
1558439187786686,1,0,-7,1,-2,-3,-2,3
1558439187793668,-2,-3,-4,-19,-11,-5,0,-1
1558439187793668,-1,0,1,17,6,-9,-6,-2
1558439187817602,-1,-3,-13,-27,0,10,2,1
1558439187817602,0,-1,6,8,-1,0,1,-1
1558439187818603,-1,1,-6,-15,-6,-11,-3,-4
1558439187818603,1,1,6,13,-1,5,-5,-3
1558439187824588,-2,-3,-12,-16,-6,-1,-5,-2
1558439187824588,-3,-4,-2,2,-1,2,-1,-2
1558439187831567,1,1,3,1,3,4,-2,1
1558439187831567,-1,-1,0,5,-2,-6,-3,-2
1558439187846525,1,0,3,2,3,0,0,0
1558439187846525,-2,-3,-7,-8,-6,-3,2,-1
1558439187861487,-1,-1,0,4,-2,-2,-2,-3
1558439187861487,-3,0,-2,-7,-3,-3,-4,-2
1558439187870462,2,-1,0,21,7,3,3,1
1558439187870462,-2,-3,-10,-18,1,10,3,2
1558439187871464,0,1,1,-2,1,2,2,0
1558439187871464,-1,-4,2,0,-6,-3,-5,-4
1558439187883427,0,-1,-3,-8,-6,-10,-1,-1
1558439187883427,0,0,-1,10,6,-1,-3,-1
1558439187892404,-1,2,4,9,7,6,4,3
1558439187892404,-1,-3,-4,-11,2,6,2,1
1558439187906366,0,-1,-1,-1,-6,-5,-4,-3
1558439187906366,-3,-1,-3,-6,-5,-4,-6,-4
1558439187913353,1,-1,-4,-5,-5,-3,-2,0
1558439187913353,3,-1,1,3,1,-3,-2,1
1558439187930310,0,2,0,4,3,3,6,1
1558439187930310,-3,-4,-4,-15,-1,0,1,-3
1558439187931309,1,-1,9,10,6,1,-1,1
1558439187931309,-3,-3,-8,-2,-5,-9,-9,-4
1558439187943269,-1,1,4,-4,-3,3,-1,-2
1558439187943269,1,0,-3,-3,-4,-5,-1,0
1558439187958230,-3,-3,-9,-8,-5,3,1,-2
1558439187958230,-2,-2,3,1,3,3,5,3
1558439187967205,-1,-1,-4,2,1,1,1,1
1558439187967205,-1,-1,8,12,-4,-7,-5,-2
1558439187973187,0,-1,-1,-5,3,-2,2,1
1558439187973187,-1,-1,-10,-8,-6,-3,-3,-4
1558439187990166,-2,0,3,2,1,0,-2,-1
1558439187990166,2,0,0,-2,-2,0,-1,0
1558439187991140,-1,-2,1,8,-2,-12,-4,-1
1558439187991140,0,-1,-9,-14,0,1,2,0
1558439188003107,-1,-2,-1,-10,-3,-4,1,0
1558439188003107,-4,-2,3,13,4,-8,-9,-4
1558439188012083,1,2,0,-3,-1,3,1,-1
1558439188012083,0,2,1,-2,6,10,9,3
1558439188027044,-2,-3,1,5,0,-1,1,0
1558439188027044,-3,-2,2,5,2,3,-7,-3
1558439188034026,-2,0,-6,-17,-9,-4,-6,-3
1558439188034026,1,2,8,10,-1,-5,-2,-1
1558439188049986,-2,-2,2,0,5,8,-2,-2
1558439188049986,1,3,5,12,6,3,7,3
1558439188050983,0,-4,-21,-19,0,-9,-1,-1
1558439188050983,-3,-2,3,3,-5,-6,-5,-1
1558439188063945,-1,-2,-9,-7,-6,-2,-6,-3
1558439188063945,-1,1,-2,-7,-12,-11,-9,-4
1558439188072923,1,2,7,11,9,10,5,2
1558439188072923,-2,0,5,4,-2,2,2,-1
1558439188086891,-3,0,3,6,0,-13,-8,-5
1558439188086891,0,-1,-10,-6,-1,8,11,4
1558439188100846,-3,-3,3,8,0,6,-3,-4
1558439188100846,-1,-4,-8,-4,-2,0,-2,-2
1558439188109822,-2,0,9,7,3,1,-3,1
1558439188109822,-2,-1,-8,-16,-13,-14,-7,-3
1558439188115806,1,2,9,7,3,3,3,0
1558439188115806,-2,-2,-5,6,3,-1,4,2
1558439188123786,-2,-1,-13,-14,-3,-5,2,0
1558439188123786,-1,-1,4,4,-4,-8,-7,-5
1558439188132760,-1,-4,-14,-13,-3,2,-6,-3
1558439188132760,0,0,-1,-9,0,6,-3,0
1558439188146728,1,0,0,-3,-9,-11,-5,-3
1558439188146728,2,2,11,12,16,7,12,3
1558439188153728,-5,-6,-15,-9,-7,0,1,-3
1558439188153728,-3,-2,-4,-12,-8,-5,-6,-5
1558439188169684,-3,-3,-5,-5,-2,3,1,-2
1558439188169684,1,1,1,-2,0,3,-7,-1
1558439188175646,0,-2,10,15,1,-7,-1,0
1558439188175646,-2,0,-5,-11,0,0,5,0
1558439188192607,0,0,9,8,7,-4,-1,1
1558439188192607,-3,-7,-14,-9,-12,-4,-3,0
1558439188193598,0,1,5,3,-1,-4,-2,0
1558439188193598,2,1,2,-2,3,-3,-6,-1
1558439188206563,-3,-1,-8,3,-4,3,-2,-3
1558439188206563,1,-1,2,-2,1,-1,2,-2
1558439188213544,-1,1,4,4,-1,-4,0,1
1558439188213544,0,0,1,-6,-2,2,2,0
1558439188229502,-1,-3,-13,-3,4,5,4,3
1558439188229502,-2,-1,4,-2,5,3,1,1
1558439188236484,-1,0,0,6,-4,-2,-2,0
1558439188236484,3,-3,2,-5,-1,2,-3,-2
1558439188243467,3,-1,-1,-3,-1,3,4,2
1558439188243467,1,-1,1,4,-2,-7,-2,-2
1558439188252440,-4,-1,-5,-12,-5,-2,-6,-2
1558439188252440,-2,0,7,13,4,-4,0,2
1558439188266402,-2,-2,-3,-17,-12,-2,-3,-4
1558439188266402,-2,-6,-11,-3,-6,0,-3,-5
1558439188273383,2,2,7,6,5,1,4,3
1558439188273383,-1,0,-4,1,0,7,2,0
1558439188289342,2,3,11,2,0,-4,-4,0
1558439188289342,0,-2,5,12,2,-4,0,0
1558439188296333,-3,-3,-9,-21,1,10,0,-2
1558439188296333,-2,-2,-11,-3,-5,-8,-7,-3
1558439188312279,-2,0,7,13,-2,-3,-1,-1
1558439188312279,0,1,2,-2,2,8,1,1
1558439188313281,1,-2,-3,-10,-2,-5,5,1
1558439188313281,-2,-2,3,5,1,-6,-2,-2
1558439188327246,0,0,0,6,-1,-7,-2,-3
1558439188327246,-4,-1,-4,-3,2,2,-1,0
