timestamp,emg1,emg2,emg3,emg4,emg5,emg6,emg7,emg8
1558439235306443,2,0,3,-7,3,5,2,1
1558439235306443,-2,-4,-5,6,-7,-5,-4,-4
1558439235307438,0,0,3,14,4,4,4,1
1558439235307438,-1,0,-7,-21,3,2,5,3
1558439235308436,0,0,1,6,1,-8,0,0
1558439235308436,0,2,4,4,7,2,1,3
1558439235308436,-4,-2,3,-3,-1,-1,-4,-3
1558439235308436,-3,-3,-2,-2,0,2,-1,-4
1558439235319407,-2,-2,-5,2,-12,-5,-4,-1
1558439235319407,2,-1,5,0,4,3,7,1
1558439235328382,1,0,-10,-13,0,5,2,-1
1558439235328382,1,1,16,30,7,-4,-5,-1
1558439235334368,-1,-2,-7,-11,3,0,0,1
1558439235334368,-1,0,-2,-8,-5,-7,-7,-2
1558439235350323,0,-1,2,5,-8,-3,-5,-3
1558439235350323,1,-3,-13,-5,-4,4,2,1
1558439235358303,1,1,11,11,4,2,-1,-2
1558439235358303,0,2,-2,-4,2,3,5,1
1558439235364285,0,-1,1,8,5,-8,-1,2
1558439235364285,-3,0,-1,-6,-5,0,-1,-3
1558439235380243,-3,-3,-3,-5,-4,-4,-5,-2
1558439235380243,-2,-2,-3,5,2,-1,0,-1
1558439235388221,0,-1,6,-4,-5,-4,-1,0
1558439235388221,1,-2,-12,-11,-4,-4,-1,-1
1558439235428114,-3,-4,1,13,2,5,0,-2
1558439235428114,2,1,1,4,-1,-3,-2,0
1558439235428114,-1,-1,-3,-14,-2,4,0,1
1558439235428114,-2,0,0,-2,-2,-8,-4,0
1558439235429112,1,-2,-2,9,2,-1,1,0
1558439235429112,1,0,5,0,1,-6,2,2
1558439235433102,-2,-2,-4,-4,-1,1,1,-3
1558439235433102,-1,-1,9,20,-3,3,-1,-3
1558439235439086,0,-3,-3,-16,-4,-2,-4,-1
1558439235439086,-3,-3,-2,-3,2,4,0,-2
1558439235448062,-1,2,-9,-6,-10,-6,-8,-4
1558439235448062,-3,-2,-4,2,3,7,4,-1
1558439235454047,-1,0,7,4,1,-1,3,0
1558439235454047,0,-5,-7,-2,-8,-8,-10,-6
1558439235470005,0,-2,5,13,11,8,4,1
1558439235470005,0,1,0,-3,0,-3,-1,3
1558439235476985,0,2,-5,-5,-6,-5,-6,-4
1558439235476985,-2,-1,-2,-9,1,3,-2,-3
1558439235483965,0,-1,5,20,0,-9,-2,-2
1558439235483965,-1,-2,-10,-23,0,5,0,-1
1558439235499923,0,-1,0,-3,0,2,5,2
1558439235499923,-2,1,2,5,0,-3,1,2
1558439235507902,-2,-2,0,-2,-4,6,-6,-4
1558439235507902,0,-1,-4,-5,-8,-6,-3,-2
1558439235514882,0,2,5,2,8,-8,3,4
1558439235514882,-1,-2,-10,-4,-5,-1,-4,-3
1558439235529843,0,-1,0,0,3,-3,-1,1
1558439235529843,1,-2,3,5,5,7,6,1
1558439235536825,-1,-1,-2,-3,-2,4,-2,-2
1558439235536825,0,1,5,2,0,0,1,0
1558439235544803,-1,-2,-4,0,-7,-14,-5,-3
1558439235544803,-1,-4,-7,-12,-9,-9,-12,-4
1558439235559778,-3,-3,-1,4,-5,8,1,-2
1558439235559778,-1,-3,-1,0,-1,-6,-3,0
1558439235567744,0,-1,-1,1,2,3,1,-1
1558439235567744,1,-1,13,14,4,3,3,0
1558439235574722,2,-1,-8,-13,-7,-11,-3,-2
1558439235574722,-3,-1,-1,-8,4,14,7,0
1558439235589683,-1,-1,1,1,-8,-18,-8,-1
1558439235589683,0,-1,0,0,-2,-13,-6,-1
1558439235596665,1,1,8,7,5,6,0,0
1558439235596665,-1,0,-7,1,-3,5,0,-2
1558439235604643,-3,-3,3,-2,4,5,0,-2
1558439235604643,-2,1,-4,2,-2,0,-9,-3
1558439235619604,2,3,2,-1,4,-4,4,1
1558439235619604,0,-1,-4,2,-4,-3,-1,-1
1558439235643543,1,3,5,3,1,8,4,4
1558439235643543,-2,0,-1,0,-4,-12,-6,0
1558439235644537,-5,-5,-1,-2,-2,1,-3,-3
1558439235644537,-2,-5,-5,-7,-9,-5,-3,-3
1558439235650533,-1,0,-4,-7,3,-2,4,2
1558439235650533,-1,-1,1,0,1,-1,1,-1
1558439235657502,-2,0,9,19,5,1,-5,-1
1558439235657502,-4,-2,-7,-19,-6,1,0,-3
1558439235664495,-2,-2,-9,-6,-7,-5,-3,-1
1558439235664495,2,-2,3,2,8,10,8,3
1558439235679445,0,1,-7,-2,-3,-12,-3,1
1558439235679445,0,-2,2,3,0,-1,-5,-3
1558439235687424,-3,0,1,-4,-5,3,-4,-4
1558439235687424,-2,-5,-8,-6,0,17,2,-2
1558439235694406,1,1,3,-1,-3,-21,3,2
1558439235694406,-1,0,4,11,6,6,-2,0
1558439235710360,0,0,-3,-7,-6,0,-1,0
1558439235710360,0,-2,-5,-4,-3,-9,0,-1
1558439235717341,-1,-3,-4,-21,-3,5,-5,-2
1558439235717341,0,3,10,12,3,-5,1,3
1558439235724323,1,-2,2,4,1,-10,2,-1
1558439235724323,-4,-4,-8,-5,-1,10,0,-5
1558439235739282,-2,-2,-4,-5,-3,8,-2,-3
1558439235739282,-1,0,7,1,1,-4,-2,-3
1558439235747263,-1,0,8,10,-1,5,-2,0
1558439235747263,3,2,-7,-5,10,-4,9,3
1558439235754244,-2,-4,-6,-8,-9,-2,-5,-5
1558439235754244,-1,-5,-8,-3,-3,-1,-2,1
1558439235778181,-4,1,0,-4,-2,3,-2,1
1558439235778181,-3,1,6,8,-5,-3,-2,-6
1558439235780175,-1,0,3,9,3,-9,-4,-1
1558439235780175,1,-1,-2,-2,0,-5,-1,-1
1558439235784163,1,-2,-1,-1,0,-9,-2,0
1558439235784163,1,-1,-5,-16,-7,4,0,0
1558439235799122,-1,0,9,13,10,10,3,0
1558439235799122,0,1,-3,-17,-5,-4,-1,0
1558439235808100,-2,-4,-5,-7,2,-1,-2,-4
1558439235808100,1,2,6,-1,2,6,1,3
1558439235814085,1,-1,-7,-8,0,4,4,2
1558439235814085,-3,-2,-7,0,-7,-4,-4,-4
1558439235830040,0,0,5,5,5,2,-1,1
1558439235830040,-2,-1,-2,-1,-5,-18,-7,-2
1558439235837022,-3,-5,-8,0,-6,0,-3,-3
1558439235837022,2,1,-1,-6,2,4,5,0
1558439235852979,-2,-2,5,5,-5,2,-6,-4
1558439235852979,-2,-1,-1,-3,-3,2,-3,-3
1558439235858963,2,3,-5,-6,2,-1,5,1
1558439235858963,-4,-1,1,8,-4,-8,-7,-2
1558439235867938,-3,-2,-5,-7,-4,1,3,-1
1558439235867938,2,1,3,-8,12,4,3,2
1558439235873923,-4,-5,-5,-6,-8,-7,-7,-3
1558439235873923,-2,-1,-1,3,-1,-2,-6,-4
1558439235889881,3,0,-2,-6,4,7,0,-3
1558439235889881,-2,-1,4,12,-6,-3,-1,-2
1558439235896862,-1,0,-1,-6,-4,-2,-1,-1
1558439235896862,2,-2,0,1,0,0,1,1
1558439235912819,-3,-1,1,0,0,2,1,0
1558439235912819,-3,-2,-11,-12,-10,-4,-5,-1
1558439235919801,0,0,0,-6,0,1,5,-2
1558439235919801,1,1,9,15,5,1,3,0
1558439235927780,0,-1,-7,-17,-2,1,-3,-1
1558439235927780,-2,-3,-1,0,3,-4,-3,-1
1558439235934761,0,0,-2,1,-9,-3,-8,-4
1558439235934761,-2,-1,-10,-11,0,5,-1,-3
1558439235949720,0,-1,1,3,12,8,9,4
1558439235949720,0,3,5,-2,-4,-11,-4,-2
1558439235956701,1,-4,0,8,0,3,-3,-3
1558439235956701,-2,0,1,0,-8,-8,-5,-4
1558439235972658,1,-2,-1,4,7,0,5,2
1558439235972658,-1,-2,-10,-9,1,4,2,0
1558439235988616,-1,2,9,7,1,-3,-4,1
1558439235988616,1,-1,-6,-15,-4,-3,1,1
1558439235988616,-2,-4,-9,-4,-10,-10,-6,-5
1558439235988616,1,1,11,12,2,6,1,-1
1558439235994600,-1,-3,-8,-7,-5,-7,-1,-1
1558439235994600,-1,-2,6,-4,2,-1,-3,-2
1558439236010558,0,4,6,5,1,-2,-4,-3
1558439236010558,-1,-3,-5,2,1,-4,1,1
1558439236016541,-4,-1,4,5,-1,5,-1,-1
1558439236016541,-3,1,2,4,6,5,0,2
1558439236032499,1,0,4,4,-1,0,2,1
1558439236032499,0,-2,-6,-4,-2,1,-2,-2
1558439236039480,0,-3,-5,0,-6,-8,-4,-1
1558439236039480,-1,-1,-5,-9,-5,-7,-2,-1
1558439236055437,-1,-1,-3,-3,0,2,0,-1
1558439236055437,2,2,7,7,5,6,1,0
1558439236057432,-1,-1,-7,-7,2,-1,-3,1
1558439236057432,1,-2,1,3,1,5,1,1
1558439236078375,0,0,4,5,-1,-3,-2,0
1558439236078375,-4,-1,1,1,-3,-2,-3,-4
1558439236079373,2,2,0,-8,0,5,2,2
1558439236079373,-2,-3,1,-1,1,0,-1,-3
1558439236092338,0,-1,-10,-8,-3,-4,-2,0
1558439236092338,-2,-1,-1,11,3,-1,0,2
1558439236099320,-2,0,-2,-9,-3,0,-2,0
1558439236099320,1,0,7,7,4,4,0,-1
1558439236107299,-1,-3,4,3,-8,1,0,-2
1558439236107299,-1,-1,4,12,-1,-6,-5,-3
1558439236122259,-1,-1,-3,6,3,2,2,0
1558439236122259,-4,-2,-7,-20,-8,-3,3,1
1558439236130240,-1,-2,-1,4,-1,-6,-4,-1
1558439236130240,1,2,2,-2,-1,-7,-6,0
1558439236144200,-1,-3,3,7,3,6,3,-3
1558439236144200,0,1,-6,-5,0,1,1,-1
1558439236152178,-2,-1,-3,-3,-5,-2,-3,-2
1558439236152178,-1,-1,-1,-6,-3,-2,0,-2
1558439236159161,-1,-1,-4,-4,0,-8,-2,-1
1558439236159161,1,-2,-3,-3,2,8,4,1
1558439236167139,-4,-1,0,-2,0,9,-2,-4
1558439236167139,-2,-4,-5,-3,-4,-7,-7,-1
1558439236182099,0,0,-2,-8,-7,-17,4,1
1558439236182099,-2,0,3,10,0,-4,1,0
1558439236198056,-1,1,3,-2,6,4,0,1
1558439236198056,-2,-4,-9,-9,-8,-2,-6,-4
1558439236200051,-2,0,7,4,1,5,-2,-2
1558439236200051,2,1,-6,-8,-4,-11,-4,-1
1558439236220994,0,-2,-7,5,-3,-4,0,-1
1558439236220994,-2,-1,4,2,1,10,0,1
1558439236221991,-1,-3,-1,-6,-3,-1,-7,-3
1558439236221991,-2,-1,-3,-6,-9,-4,-6,-4
1558439236227982,1,0,5,7,8,2,8,-1
1558439236227982,2,0,-3,-12,-3,-1,1,-1
1558439236241939,-4,-5,-15,-7,0,-3,-4,-2
1558439236241939,-4,-4,-17,-15,-7,-6,-4,-2
1558439236249918,1,0,-1,-5,-2,-3,-1,1
1558439236249918,0,2,2,3,0,-1,2,0
1558439236264878,-2,-1,4,0,-2,2,-1,-2
1558439236264878,2,1,9,16,7,3,2,0
1558439236272856,-4,-4,-8,-19,-8,-4,-5,-4
1558439236272856,1,-3,5,6,8,-8,6,2
1558439236279837,2,1,2,2,-1,5,-2,-2
1558439236279837,-1,1,10,9,4,0,-2,-2
1558439236287815,1,1,-5,-7,-3,3,0,1
1558439236287815,-3,-4,-6,-10,-5,3,-2,-4
1558439236310755,-1,0,1,1,-3,-5,-2,-3
1558439236310755,-2,-2,4,-1,-2,-4,-5,-1
1558439236311752,2,0,0,0,1,-3,-1,-2
1558439236311752,-4,-4,-16,-19,-10,-5,-1,-1
1558439236316738,-1,1,-7,-4,5,4,5,2
1558439236316738,2,1,6,10,2,-4,0,0
1558439236332703,-1,-1,2,5,-5,-5,-3,-1
1558439236332703,0,-1,3,6,-4,-4,-6,-4
1558439236339677,0,-1,-2,-8,-2,1,1,-3
1558439236339677,-1,1,1,8,1,-4,-3,-1
1558439236355654,-2,-4,-2,3,0,4,0,-2
1558439236355654,-2,-2,-12,-19,4,-7,3,1
1558439236361623,-3,1,2,8,-7,-2,-5,-3
1558439236361623,0,0,4,6,4,3,2,0
1558439236378578,-4,-3,-6,-5,-6,-2,-1,-2
1558439236378578,-1,2,-1,-4,-4,5,-2,-2
1558439236379570,0,-1,-1,-6,4,-3,-2,0
1558439236379570,0,-6,-10,-13,-8,-5,0,-2
1558439236392539,1,1,13,18,10,9,5,2
1558439236392539,-1,-2,4,-1,-4,-3,-2,0
1558439236401522,2,1,-5,-1,-1,-5,-1,0
1558439236401522,-2,-3,-6,-8,-6,-5,-4,-1
1558439236415475,-2,1,-7,-7,1,-2,1,-1
1558439236415475,-1,0,0,7,-1,-1,-2,-1
1558439236421459,-2,-2,6,2,-1,4,-2,1
1558439236421459,-2,-3,1,3,2,0,-1,-2
1558439236438414,-1,-1,0,10,1,-5,-1,3
1558439236438414,0,-2,-8,-5,-7,0,-4,-2
1558439236439410,-1,-2,-12,-15,1,6,3,0
1558439236439410,-1,-1,4,5,2,0,0,0
1558439236452380,0,-1,-7,-9,-4,-8,-3,0
1558439236452380,-1,0,5,7,-1,0,-2,-3
1558439236459361,-2,-1,10,14,1,4,0,-2
1558439236459361,-1,0,-3,-2,2,5,1,0
1558439236475317,0,1,2,0,-4,-10,-5,-2
1558439236475317,1,3,7,9,4,3,2,0
1558439236482299,0,0,-8,-7,-1,-1,-2,0
1558439236482299,-1,-2,-2,-2,3,6,4,1
1558439236498257,-2,-3,0,-3,-6,-7,-1,-1
1558439236498257,1,1,5,8,1,-5,-3,-2
1558439236500251,-4,-1,3,0,-1,-4,-2,-1
1558439236500251,-2,-5,-8,-13,-5,11,2,0
1558439236513212,0,-1,0,-6,-2,4,0,0
1558439236513212,0,-1,-3,2,0,-20,-8,1
1558439236519196,1,2,-1,7,6,13,5,-1
1558439236519196,-1,2,4,6,0,-6,-4,-2
1558439236543137,-3,-4,-4,-7,-5,5,1,-3
1558439236543137,1,-1,-4,-6,1,-2,1,1
1558439236543137,-1,-3,1,2,-3,-7,-5,-3
1558439236543137,1,2,4,5,5,4,1,1
1558439236565079,-3,-2,-11,-18,-13,-11,-10,-4
1558439236565079,-1,2,9,16,6,14,8,1
1558439236566078,0,-4,-15,-19,-6,0,-6,-5
1558439236566078,-2,-1,0,4,-4,-7,-1,-1
1558439236573055,1,1,5,1,5,0,0,0
1558439236573055,-4,-1,-7,-8,-1,2,-2,-1
1558439236588016,-1,-2,-4,-1,-7,-8,-5,-1
1558439236588016,1,1,7,9,4,4,3,-2
1558439236594002,0,-2,-1,-8,-3,-10,-6,-3
1558439236594002,-2,-7,-13,-9,-6,0,-5,-5
1558439236602104,0,2,7,4,6,1,7,7
1558439236602104,0,-1,-6,-9,-6,-10,-5,-2
1558439236618044,-1,1,9,12,7,8,6,0
1558439236618044,0,1,4,2,2,7,5,2
1558439236618937,-2,0,1,4,2,-3,-4,-2
1558439236618937,-3,0,-8,-13,-8,-5,-5,-1
1558439236633893,0,1,-2,2,4,8,3,0
1558439236633893,-2,-4,-7,-7,-13,-14,-9,-3
1558439236639875,1,1,2,2,9,9,5,1
1558439236639875,1,0,2,-1,-3,-6,0,0
1558439236654843,-3,-1,0,4,-3,-5,-7,-6
1558439236654843,-1,-2,3,3,2,10,4,2
1558439236661865,1,-1,5,-7,-1,-7,0,2
1558439236661865,-3,-2,-3,-1,3,3,3,-3
1558439236677773,0,0,0,-3,-2,-3,1,0
1558439236677773,0,3,11,8,2,-2,0,-3
1558439236678772,0,-2,-9,-7,-2,-1,-2,-4
1558439236678772,-2,0,5,6,2,6,-2,0
1558439236693731,0,-2,-6,7,2,-1,-3,0
1558439236693731,0,-1,6,-10,-4,-7,-4,-2
1558439236699713,-3,-1,-4,-1,-6,-2,1,-1
1558439236699713,1,1,4,-2,2,-2,-2,0
1558439236714673,0,1,4,15,3,6,-2,-1
1558439236714673,-6,-5,-14,-12,-8,-5,-3,-4
1558439236721655,-1,-5,-4,-5,-1,0,3,-1
1558439236721655,-2,0,-4,-4,-2,-3,0,-2
1558439236737612,-1,-1,0,4,-6,-4,-4,1
1558439236737612,0,-1,-6,-7,4,6,-1,1
1558439236738609,-2,-2,5,4,-8,-9,-8,-3
1558439236738609,-3,-5,-14,-3,-2,1,2,1
1558439236753570,1,2,-1,-9,4,8,5,3
1558439236753570,-1,-2,-2,2,0,-2,0,-1
1558439236759560,1,-2,6,8,1,-1,-6,-3
1558439236759560,-2,1,0,-2,-6,-3,-5,-2
1558439236775510,0,-2,-6,-9,4,1,4,0
1558439236775510,-1,0,6,9,3,-10,-1,0
1558439236781495,-1,-1,-2,-6,-5,0,-3,-1
1558439236781495,2,-1,2,4,3,0,2,2
1558439236797457,-2,-3,-12,-15,-12,-7,-8,-3
1558439236797457,-3,1,1,3,-2,2,-1,-3
1558439236798451,-1,-1,-1,-3,-6,-4,0,-2
1558439236798451,-1,0,4,-1,6,6,-1,0
1558439236813418,0,-1,2,5,2,-4,-1,1
1558439236813418,0,-3,-11,-17,-5,2,-1,-1
1558439236819408,-2,-2,1,2,1,5,4,1
1558439236819408,-1,-2,-8,-14,-10,-8,-4,-4
1558439236844330,-1,-2,5,10,12,9,8,1
1558439236844330,0,-2,-6,-5,-10,-9,-5,-3
1558439236845351,-3,-3,-11,-5,-4,-5,-5,-3
1558439236845351,2,3,7,13,11,9,3,2
1558439236857341,-3,-1,-6,-9,-8,-7,-3,-2
1558439236857341,-1,-2,3,2,2,4,-5,-3
1558439236865330,1,2,5,6,2,1,9,5
1558439236865330,0,-4,-4,0,1,-5,-2,-1
1558439236873386,-1,0,-1,-6,-1,0,-2,-2
1558439236873386,-1,-1,-3,-1,-1,-4,-1,-1
1558439236879238,-3,0,4,-10,-5,1,-3,-2
1558439236879238,-1,-2,-5,-6,-3,-2,-4,-3
1558439236896204,-2,-1,0,-3,0,4,2,0
1558439236896204,-1,1,5,10,4,4,0,-1
1558439236910155,-1,0,3,10,6,1,-1,-2
1558439236910155,-1,1,3,-1,0,-7,-1,-1
1558439236918131,-3,-4,-14,-12,-11,-10,-6,-3
1558439236918131,1,-1,-6,-2,-4,-1,-2,-2
1558439236918131,1,0,-1,-2,-2,1,1,1
1558439236918131,0,0,5,10,7,2,0,1
1558439236933090,-4,0,6,-3,-2,2,-1,-1
1558439236933090,0,-2,3,-2,-1,-2,0,0
1558439236939074,-2,-1,-9,-6,2,2,-4,-4
1558439236939074,-3,-4,-3,-4,-5,3,0,-2
1558439236956031,1,2,8,7,5,0,5,3
1558439236956031,0,1,-1,0,1,-3,1,0
1558439236962015,-2,-3,-8,-7,-3,-4,3,-1
1558439236962015,0,0,6,10,5,-1,-1,2
1558439236977968,-3,-3,-12,-20,-14,-6,-9,-7
1558439236977968,-2,0,10,11,0,0,0,1
1558439236977968,1,1,-1,2,5,-5,-2,2
1558439236977968,-1,-1,-6,-4,-8,0,-2,-2
1558439236992928,-1,0,1,0,5,2,-1,-3
1558439236992928,-2,-2,-3,0,-7,2,-1,-3
1558439236999909,-1,-1,-3,-7,-8,-3,-3,-3
1558439236999909,-3,-3,0,2,-1,1,1,-2
1558439237015876,2,-1,2,3,1,-11,-4,2
1558439237015876,-3,0,-4,-5,1,3,0,1
1558439237030830,-1,0,1,5,10,8,4,-1
1558439237030830,-2,0,-2,-7,-13,-12,-4,-2
1558439237037813,2,-1,1,8,0,-2,5,0
1558439237037813,-1,0,1,5,11,12,7,2
1558439237038809,1,0,1,-4,0,-9,-1,3
1558439237038809,0,-3,-5,5,-6,-2,1,1
1558439237053769,-5,-4,-12,-18,-8,3,-4,-3
1558439237053769,1,-1,-3,0,-4,-3,-3,0
1558439237075835,1,2,11,9,3,-4,-5,-1
1558439237075835,-1,-2,-5,-13,3,7,0,-1
1558439237077709,0,-2,-7,-8,-6,-8,-2,1
1558439237077709,0,-1,1,-2,-2,0,1,0
1558439237081700,0,-1,-1,7,7,13,7,5
1558439237081700,2,-1,-3,-2,-3,-6,-2,-2
1558439237098660,-1,0,4,4,2,-2,1,-4
1558439237098660,-1,2,-4,-5,-2,-3,2,-1
1558439237104640,0,-1,-1,3,-3,2,-1,-1
1558439237104640,-2,-1,-2,-4,-2,3,3,0
1558439237120591,-1,-1,5,7,5,6,0,-2
1558439237120591,-2,-2,-1,1,1,-2,-3,-2
1558439237120591,-4,-3,-3,-5,-6,-5,0,1
1558439237120591,-1,0,3,0,1,1,-2,1
1558439237135547,2,-1,2,3,-2,1,-3,0
1558439237135547,-3,-4,-4,-6,-3,-6,-7,-6
1558439237141532,-1,-2,-4,-6,-8,-1,-4,-8
1558439237141532,1,0,0,0,2,-4,-1,5
1558439237156492,-1,0,6,10,7,6,5,0
1558439237156492,0,-1,-5,-11,-4,0,-2,-3
1558439237164470,-2,-2,0,-1,-1,-14,-7,-3
1558439237164470,0,0,1,1,7,3,3,-1
1558439237180427,-2,-1,-3,-1,0,4,-2,-2
1558439237180427,2,0,-1,-1,-1,-7,-4,0
1558439237181426,-1,-1,-4,-2,-6,-2,0,-1
1558439237181426,-1,0,4,1,2,-1,-2,-2
1558439237195781,0,-1,-2,-4,3,7,6,4
1558439237195781,-1,1,2,8,2,-9,0,-1
1558439237202581,1,1,-1,-3,-9,0,-2,-2
1558439237202581,-2,-2,-3,-2,-3,3,-4,-5
1558439237217532,-2,-2,0,-4,-4,-3,0,-2
1558439237217532,-4,0,1,-2,0,4,-1,0
1558439237224618,0,0,0,7,3,-1,-1,-1
1558439237224618,0,0,1,-10,2,1,4,1
1558439237240549,-3,-5,-10,-6,-9,-5,-5,-1
1558439237240549,0,1,2,-5,5,8,4,1
1558439237240549,0,0,3,4,3,-6,1,-1
1558439237240549,1,0,-1,3,2,-1,1,-2
1558439237256231,-4,-3,-4,-7,-11,-13,-9,-5
1558439237256231,0,-2,0,-1,-1,-1,-4,-3
1558439237262432,1,-1,-1,-1,8,15,8,3
1558439237262432,0,2,15,12,1,0,-1,-2
1558439237277172,-2,-3,-16,-14,-3,-7,-2,-3
1558439237277172,-5,-4,-3,2,-3,-6,-3,-1
1558439237284443,-3,-3,-3,-4,-9,-5,-3,-4
1558439237284443,-1,-5,-12,-13,-13,-5,0,-1
1558439237301350,2,0,8,10,6,-4,-4,3
1558439237301350,0,3,3,1,5,11,9,2
1558439237301350,-1,-4,-1,3,3,-4,-2,-1
1558439237301350,-2,-1,7,15,10,9,2,0
1558439237316075,-2,-1,2,-6,-6,-6,-4,-2
1558439237316075,2,1,3,-1,-5,-6,-4,1
1558439237322052,-3,-3,-5,-5,-2,3,1,-2
1558439237322052,-1,-2,-3,0,2,3,2,-2
1558439237337012,2,0,8,12,8,5,5,2
1558439237337012,0,-2,-8,-6,-9,-7,-4,-1
1558439237345201,1,2,5,2,5,3,1,-2
1558439237345201,-3,0,-2,-1,-9,-3,-3,-2
1558439237359950,0,2,9,15,10,5,3,-1
1558439237359950,-3,-3,-13,-29,-6,0,1,-2
1558439237360948,-5,-3,-7,-5,-10,-7,-5,-2
1558439237360948,0,-1,-7,-9,-5,-9,-8,-1
1558439237375908,3,3,6,3,6,0,5,2
1558439237375908,0,-2,8,19,3,3,1,-1
1558439237381890,-2,-1,1,-7,0,-5,-5,0
1558439237381890,-7,-6,-14,-13,-14,-9,-8,-5
1558439237397019,0,0,-4,5,4,9,7,2
1558439237397019,2,3,7,9,5,-1,0,2
1558439237405004,0,0,-7,-16,3,2,2,1
1558439237405004,1,-3,-1,0,-6,-3,-2,-2
1558439237419795,-2,-4,-8,-2,-10,-1,-6,-6
1558439237419795,-2,-2,0,-4,-2,-10,-1,-2
1558439237420789,5,3,12,5,5,-2,1,1
1558439237420789,-1,-3,-12,-14,0,3,-1,-2
1558439237444722,-1,0,0,-6,4,11,2,1
1558439237444722,-1,-2,-1,-1,5,12,0,-2
1558439237444722,-1,0,2,8,-6,-10,-5,-1
1558439237444722,0,0,2,0,-2,2,1,0
1558439237456720,-3,-3,3,10,7,-2,5,-2
1558439237456720,0,-4,-6,-11,-9,-15,-8,-3
1558439237464813,-2,-1,-1,-1,7,8,2,0
1558439237464813,1,1,6,6,-2,-9,-1,-1
1558439237487606,-3,-4,-12,-16,-11,-4,-4,-3
1558439237487606,2,0,-1,8,13,23,10,2
1558439237488605,-1,-3,-5,-4,-6,-3,-7,-1
1558439237488605,2,1,9,12,5,-8,-3,1
1558439237495799,0,1,5,2,-4,-1,0,0
1558439237495799,-4,-4,-14,-8,-8,-13,-10,-6
1558439237501774,-3,-4,-5,-9,-4,6,0,-4
1558439237501774,-1,0,2,7,11,11,3,-1
1558439237517646,-2,0,2,0,-7,-8,-3,0
1558439237517646,0,1,8,7,3,0,5,2
1558439237524726,-3,-2,-5,-6,-5,-6,-4,-4
1558439237524726,-3,-2,-6,-5,-9,-12,-5,-1
1558439237540465,4,1,4,5,11,12,5,1
1558439237540465,-1,-3,-1,-13,-4,-8,-3,-1
1558439237540465,0,0,3,5,-2,3,-3,-2
1558439237540465,-1,0,-1,-7,-6,-8,-5,-1
1558439237555425,-2,-1,-5,-1,3,-3,2,1
1558439237555425,-1,1,-1,5,3,1,1,-1
1558439237562413,0,0,-2,-2,-6,-2,2,0
1558439237562413,-2,-2,-2,-2,-1,0,-5,-2
1558439237577366,0,0,8,1,-8,-4,-8,-5
1558439237577366,0,-1,-3,-2,-1,-10,-8,0
1558439237584444,-3,-5,-14,-5,0,-7,5,0
1558439237584444,-1,0,-1,3,1,13,5,-1
1558439237600419,1,-1,-3,-12,-4,-12,-7,-3
1558439237600419,-4,-3,0,0,-4,5,1,0
1558439237601307,0,-1,2,-5,-3,7,0,-2
1558439237601307,0,-1,1,4,4,1,-1,0
1558439237616270,0,0,-3,-1,0,-7,-5,-2
1558439237616270,-1,3,4,6,-1,-4,-1,1
1558439237622247,-2,-1,-3,0,3,-4,-1,-3
1558439237622247,-2,-3,-12,-21,-8,-2,-1,-1
1558439237637211,-2,-1,0,-1,-4,-5,-7,-2
1558439237637211,-2,-4,-3,2,-6,1,0,-3
1558439237644332,2,1,7,13,5,6,4,2
1558439237644332,0,-3,-9,-17,3,1,-5,-1
1558439237660184,-3,-1,-5,0,-3,-5,-2,-1
1558439237660184,0,1,4,3,-1,-1,-2,-2
1558439237661144,-1,0,-2,-6,-7,-7,-6,-3
1558439237661144,-1,0,8,9,6,-2,3,1
1558439237676109,0,-3,0,1,-9,-3,-3,-3
1558439237676109,3,1,2,-2,5,-2,1,3
1558439237682258,-1,0,-8,-6,-5,1,-2,-3
1558439237682258,-1,0,4,-3,0,0,3,-2
1558439237697249,-1,-1,-2,-5,-7,-9,-4,-1
1558439237697249,-1,0,3,6,-1,2,3,-1
1558439237705069,1,0,-2,-6,2,0,-1,1
1558439237705069,-3,-3,-8,6,1,4,-1,-3
1558439237721980,-1,0,-4,-12,-7,-10,-5,0
1558439237721980,-1,-1,-8,-15,-2,6,0,0
1558439237721980,0,1,7,6,0,-7,0,0
1558439237721980,2,2,8,7,-1,-3,-3,1
1558439237742929,0,-1,-1,12,9,6,4,1
1558439237742929,0,0,1,-7,-3,-1,0,-1
1558439237742929,-3,-2,-3,-8,-1,-3,-2,-3
1558439237742929,0,2,13,16,7,11,4,2
1558439237764871,-1,-2,-7,-15,-14,-12,-9,-6
1558439237764871,-2,-1,-5,6,7,5,6,1
1558439237765864,0,1,3,-1,3,15,6,-1
1558439237765864,-4,-3,3,4,-8,1,-7,-7
1558439237787808,-1,0,-4,1,8,14,7,4
1558439237787808,2,2,2,-6,1,-21,-1,2
1558439237787808,-3,-1,1,11,-3,1,1,-1
1558439237787808,-1,-1,-14,-19,-4,4,-3,-3
1558439237795786,-2,-4,-3,-2,-8,2,-4,-4
1558439237795786,-4,-1,-3,4,-8,-6,-4,-6
1558439237801770,-1,-3,-3,-3,-9,-16,-10,-2
1558439237801770,-2,0,-6,-10,2,2,3,1
1558439237817008,0,1,10,13,8,2,6,1
1558439237817008,-1,-4,-5,-6,0,4,-4,-3
1558439237824994,0,1,6,5,2,1,-1,1
1558439237824994,0,-2,4,12,-1,0,1,-1
1558439237840830,-2,-3,-5,-12,2,3,0,-1
1558439237840830,2,1,6,9,-3,-5,0,-2
1558439237840830,-4,-7,-22,-19,-12,-12,-8,-5
1558439237840830,0,1,5,4,3,-1,0,1
1558439237855899,0,-1,3,10,4,2,6,1
1558439237855899,-3,-1,-1,-1,1,4,1,0
1558439237862687,-1,-1,1,4,1,1,-4,-1
1558439237862687,-4,-2,-11,-11,-11,-12,-8,-2
1558439237876566,0,3,3,-2,0,-3,0,0
1558439237876566,-1,-1,6,12,3,-1,-1,3
1558439237884784,-1,-1,4,-3,-1,-8,-3,0
1558439237884784,0,-3,-17,-13,1,6,1,2
1558439237907743,-1,-3,-4,-6,-2,0,-1,-2
1558439237907743,-2,-2,-2,-3,-5,2,-4,-3
1558439237908481,-1,-2,-2,2,8,8,3,-2
1558439237908481,-1,0,-1,4,-5,-12,-5,-3
1558439237915717,0,-4,-8,-9,-6,-6,-7,-2
1558439237915717,-1,1,-7,-3,0,-1,3,0
1558439237922690,3,2,5,0,11,19,8,3
1558439237922690,-2,0,6,-2,-2,-2,-1,-2
1558439237938418,-4,-3,-14,-11,-4,1,0,-1
1558439237938418,-2,-3,3,-2,-3,-1,-2,-2
1558439237952410,0,-2,-7,2,-8,-9,-9,-5
1558439237952410,0,0,3,-5,4,-4,2,0
1558439237960343,0,2,4,4,7,8,6,2
1558439237960343,0,-3,1,-5,-5,-10,-2,0
1558439237960343,-2,0,6,12,3,3,-1,-2
1558439237960343,1,-2,-2,0,2,-4,5,2
1558439237976300,2,2,7,7,3,-4,-1,-2
1558439237976300,-2,-2,-4,-7,-3,2,-8,-2
1558439237982283,0,-1,11,11,0,-1,-1,-1
1558439237982283,-3,-3,-2,-8,-5,0,-6,-2
1558439237997244,-1,-1,-4,-6,2,2,1,0
1558439237997244,1,1,-4,-3,-5,2,2,0
1558439238004227,0,2,1,-5,-5,-12,-1,0
1558439238004227,3,3,5,5,14,19,11,4
1558439238021179,-2,0,5,7,-2,-2,-3,-3
1558439238021179,-2,-3,-4,-8,-2,4,-2,-2
1558439238027162,-3,-1,2,-5,-3,-2,1,-1
1558439238027162,-1,-4,-5,7,1,-8,0,0
1558439238036139,1,0,-2,-10,-8,-13,-6,-1
1558439238036139,-1,2,10,7,10,15,5,0
1558439238042122,0,-2,0,-4,0,-2,0,0
1558439238042122,-4,-5,-3,6,-10,-4,-8,-4
1558439238057082,-2,0,-7,-14,-7,-2,-2,0
1558439238057082,-1,-1,-3,-4,1,-2,-2,1
1558439238065064,-1,-3,-4,-3,-1,-3,1,1
1558439238065064,0,1,2,-13,2,-2,0,0
1558439238079247,0,-1,-4,6,3,7,2,-2
1558439238079247,-4,-2,-3,2,-10,-6,-6,-4
1558439238087009,-3,-1,-3,-2,2,2,1,1
1558439238087009,1,-2,1,1,0,-4,-1,-2
1558439238095988,0,0,5,7,3,3,4,0
1558439238095988,3,1,12,7,3,0,1,2
1558439238102284,-3,-3,-15,1,-6,-4,-7,-6
1558439238102284,-4,-2,-20,-20,-16,-9,-5,-4
1558439238116979,-2,0,11,16,5,1,-2,0
1558439238116979,-3,-4,-18,-27,-4,-2,2,-1
1558439238125097,-3,-5,0,3,6,3,2,0
1558439238125097,0,0,1,3,-7,-8,-3,-1
1558439238140861,-1,-2,2,1,-1,3,0,1
1558439238140861,0,-2,4,4,1,0,-1,0
1558439238146847,2,3,7,1,-5,1,-5,-2
1558439238146847,-2,-3,-12,-8,-3,-1,0,0
1558439238163799,-4,0,2,-9,-4,-3,-8,-4
1558439238163799,0,1,6,13,10,5,10,1
1558439238164795,0,-1,-4,-1,-7,-9,-2,1
1558439238164795,-1,0,-6,0,-3,-5,-3,-2
1558439238193721,0,0,2,-5,3,8,-2,0
1558439238193721,-1,-2,-9,-6,-14,-9,-5,-6
1558439238193721,1,-1,4,4,4,-5,1,0
1558439238193721,-4,-2,2,4,-6,-5,-4,-3
1558439238207956,0,-4,-3,7,2,0,4,0
1558439238207956,-4,-2,-11,-7,1,2,1,-2
1558439238208680,1,1,1,-2,3,1,7,4
1558439238208680,-2,0,11,9,-2,-5,-4,-1
1558439238222916,1,-3,-15,-14,-7,-2,-4,-3
1558439238222916,2,-1,6,10,9,11,-3,-3
1558439238223639,0,-4,-14,-14,-7,-5,-1,-3
1558439238223639,-3,1,4,-9,5,3,3,3
1558439238236607,-2,-1,1,8,-6,-6,-2,-3
1558439238236607,-1,-2,-5,-13,-8,-5,-3,-2
1558439238252561,0,0,2,6,5,-2,-2,-2
1558439238252561,1,-5,-13,-13,-7,-5,-3,-3
1558439238259795,-2,-1,4,0,-2,-4,1,0
1558439238259795,-2,-2,-4,2,-3,-4,-6,-3
1558439238267585,1,3,-4,-11,6,10,10,6
1558439238267585,0,1,10,14,2,-1,0,0
1558439238282723,-2,-4,-2,-1,0,0,-1,-2
1558439238282723,-1,-3,-7,-7,-7,-6,-4,-2
1558439238283482,-2,-2,-7,-10,-3,8,-2,-2
1558439238283482,0,0,4,4,5,3,0,1
1558439238298442,-2,0,1,-4,0,-2,2,2
1558439238298442,2,2,6,5,5,-8,0,1
1558439238304422,-3,-4,3,2,-6,-6,-4,-2
1558439238304422,-1,1,-4,-3,2,0,1,-2
1558439238319382,1,1,-1,5,0,-5,-5,1
1558439238319382,0,-1,-1,-1,-1,5,-1,0
1558439238327360,-3,-2,5,1,-1,-5,-5,-2
1558439238327360,2,0,11,12,2,-2,-2,-1
1558439238342323,-2,-4,-15,-7,-2,1,0,-3
1558439238342323,3,4,15,12,7,-2,1,3
1558439238343316,-5,-6,-12,-10,-5,0,-3,-3
1558439238343316,-2,0,-3,4,3,2,-2,2
1558439238357306,7,2,0,-17,-4,-1,5,2
1558439238357306,-9,0,-11,-3,-1,2,2,-3
1558439238364300,-1,0,6,5,2,0,-1,0
1558439238364300,2,-1,1,-1,7,3,2,2
1558439238379220,-2,-2,8,13,4,-2,-2,-3
1558439238379220,1,-3,-3,3,-9,-4,-8,-5
1558439238387200,1,1,-6,-12,6,11,6,4
1558439238387200,-3,0,6,15,0,-1,0,-5
1558439238402159,-3,-3,-15,-21,-11,-1,-7,-4
1558439238402159,4,0,5,2,0,-1,4,4
1558439238403158,-6,1,9,10,8,-9,1,-5
1558439238403158,-3,-8,-23,-21,-15,-1,-2,-1
1558439238417121,1,3,17,21,13,13,4,0
1558439238417121,0,-4,-11,-20,-8,-3,-5,-4
1558439238424103,2,2,6,10,5,-1,1,3
1558439238424103,1,3,14,16,5,5,4,1
1558439238439062,-6,-7,-23,-34,-15,-12,-7,-5
1558439238439062,-2,0,2,8,1,5,3,3
1558439238447038,4,-3,5,-4,-1,-6,-4,0
1558439238447038,-4,-3,-1,-4,-2,-3,-1,0
1558439238463995,1,1,0,0,-2,3,1,2
1558439238463995,-2,-2,-2,-2,-2,-3,-4,-4
1558439238464991,-1,0,1,4,-4,-8,-5,-2
1558439238464991,-1,0,7,2,2,5,2,-3
1558439238484937,-2,-1,-2,7,9,4,3,2
1558439238484937,-4,-6,-8,-4,-14,-11,-8,-4
1558439238485935,0,-1,-2,7,0,3,2,-1
1558439238485935,2,-1,-11,-18,-3,-3,-1,-2
1558439238507876,1,-1,3,14,-5,-5,-5,-2
1558439238507876,-3,1,6,-1,9,-9,1,2
1558439238507876,1,-3,-12,-14,-10,-6,-3,-4
1558439238507876,1,1,10,17,3,4,-3,-1
1558439238530815,-6,-5,-8,-7,-4,2,0,-2
1558439238530815,0,1,-1,-7,-3,-5,-4,-2
1558439238531813,-2,-3,-5,1,4,11,7,2
1558439238531813,-7,-3,1,-5,-3,-8,-5,-3
1558439238536801,3,-1,-5,-2,-5,-10,-11,-4
1558439238536801,-9,-3,-1,3,6,8,4,0
1558439238552756,-1,-1,-1,1,-3,0,3,2
1558439238552756,1,0,4,6,3,-1,0,2
1558439238559737,-1,-2,1,-6,-1,5,-2,-1
1558439238559737,1,-1,0,12,5,1,1,-1
1558439238566758,-2,0,-3,-17,-3,-4,-2,-1
1558439238566758,0,-1,-12,-8,-9,-13,-7,-2
1558439238582678,-1,3,9,-5,-3,-5,-3,-3
1558439238582678,-1,-4,-5,0,0,11,2,-1
1558439238583685,1,0,10,16,3,-2,-7,-2
1558439238583685,5,0,-1,-9,1,5,5,2
1558439238596639,-2,2,11,18,5,-3,2,-1
1558439238596639,-1,-2,-8,-14,-6,-4,0,-1
1558439238604617,0,1,0,-7,-2,3,-1,-1
1558439238604617,-2,-4,-2,-1,-4,-7,-2,-4
1558439238619579,2,2,6,19,9,1,2,2
1558439238619579,1,0,-13,-13,-5,-4,2,1
1558439238626560,-5,-6,-6,-4,-11,-11,-8,-4
1558439238626560,-1,-3,-10,-8,-11,4,1,-4
1558439238642552,-4,-3,4,3,2,5,1,1
1558439238642552,1,2,11,8,7,4,1,0
1558439238643555,1,-1,-9,-7,-8,-10,0,-1
1558439238643555,-1,1,3,4,10,0,-1,1
1558439238658475,2,2,-5,-11,0,1,0,1
1558439238658475,-4,-7,-12,-4,-8,0,-1,-2
1558439238664491,0,-1,0,2,0,4,2,1
1558439238664491,-4,-1,7,8,2,5,0,0
1558439238679451,3,-2,-2,-4,-10,-4,1,0
1558439238679451,-6,-1,-4,-3,3,-2,-2,0
1558439238686399,2,-2,-1,-7,2,2,-1,0
1558439238686399,-2,-3,-5,-8,-6,-6,-8,-3
1558439238702356,1,-2,6,8,7,5,6,4
1558439238702356,2,0,7,4,-11,-13,-7,-1
1558439238718352,0,0,6,7,-4,-3,1,2
1558439238718352,-4,0,-6,-14,16,22,7,-1
1558439238719311,-4,-3,-6,-13,-10,-8,-7,-2
1558439238719311,1,-1,-5,0,-4,4,3,2
1558439238724298,-1,-1,-6,-4,4,-6,-3,-1
1558439238724298,0,1,5,8,-8,-9,-8,-2
1558439238740282,-3,-2,-4,-2,-1,9,1,-4
1558439238740282,2,2,1,-3,8,1,4,0
1558439238747278,-2,-2,9,19,5,3,1,-1
1558439238747278,3,-3,-12,-23,-11,-9,-5,-1
1558439238762231,-5,-5,-5,-5,-2,-1,0,0
1558439238762231,2,3,11,8,2,-3,-4,1
1558439238763194,0,-2,-5,1,7,14,3,0
1558439238763194,-3,-3,-8,-18,-16,-5,-3,-4
1558439238786133,-5,-2,-1,2,-3,-5,-3,-3
1558439238786133,6,2,1,1,0,-9,6,3
1558439238787132,-7,0,5,0,-2,-1,-6,-3
1558439238787132,0,0,9,19,8,5,1,1
1558439238799137,-1,-2,-5,0,-10,-14,-7,-3
1558439238799137,0,2,6,-1,3,4,1,0
1558439238807075,0,-4,-15,-10,-2,1,-3,-3
1558439238807075,-2,0,1,-12,-3,-3,2,1
1558439238822037,-1,1,-10,-9,-2,-1,1,0
1558439238822037,-3,-3,1,2,0,3,-5,-2
1558439238823033,-3,-3,-1,-7,-9,-7,-6,-2
1558439238823033,0,2,9,15,14,11,3,0
1558439238837994,1,3,6,-4,6,-5,9,3
1558439238837994,0,1,7,3,6,4,3,-1
1558439238844014,-1,-2,-15,-11,-11,-2,-5,-2
1558439238844014,-2,-2,-5,5,-11,-13,-7,-3
1558439238858936,-2,-3,-11,-15,-6,-2,-4,-4
1558439238858936,-1,0,1,6,8,8,0,0
1558439238874896,-3,-2,11,-10,3,-7,-2,2
1558439238874896,-1,-2,-8,1,-3,-3,1,0
1558439238882874,0,-1,-3,0,-3,-6,-1,0
1558439238882874,-3,-1,-2,1,-7,-3,-6,-5
1558439238882874,1,2,1,2,-2,5,-1,-3
1558439238882874,-1,-3,-10,-12,4,0,6,2
1558439238897864,2,0,0,4,4,-7,1,2
1558439238897864,-3,-5,-3,2,-3,-2,0,-1
1558439238904825,-1,-1,-6,-11,-8,-4,-4,-4
1558439238904825,-2,0,0,5,-1,3,1,-2
1558439238919775,0,1,10,7,7,7,2,0
1558439238919775,-1,-1,-7,-2,-1,-5,-2,-1
1558439238926756,0,1,1,1,-5,1,-1,0
1558439238926756,2,-2,-5,-5,1,8,0,0
1558439238941746,-1,0,2,4,0,-2,-1,-1
1558439238941746,-1,-1,4,4,-2,-7,-5,1
1558439238957672,-1,-2,-7,-16,-5,-6,-4,-2
1558439238957672,-2,2,2,2,1,-2,-1,-2
1558439238959667,0,-1,6,1,7,13,5,3
1558439238959667,-3,-5,-22,-22,-11,-8,-3,-3
1558439238972634,2,2,5,8,8,10,1,0
1558439238972634,-3,-4,-7,2,-2,-1,-2,1
1558439238979613,0,1,2,-2,1,0,-1,-1
1558439238979613,-3,-1,1,-4,-4,-2,-1,-1
1558439238986597,2,0,4,6,2,-6,1,1
1558439238986597,1,1,7,1,-3,-7,2,0
1558439239001556,-4,-4,-2,2,-4,-4,-5,-6
1558439239001556,0,-1,1,-6,-9,-2,-5,-1
1558439239009537,-1,-2,-5,1,1,7,5,-2
1558439239009537,0,1,2,4,-1,-5,-3,0
1558439239026498,1,3,7,9,1,7,1,2
1558439239026498,-5,-5,-10,-11,-7,-7,-8,-2
1558439239027488,-3,-3,-4,5,4,1,2,0
1558439239027488,-1,0,8,9,5,-1,2,1
1558439239040455,-1,-2,-10,-13,-11,-8,-5,-3
1558439239040455,-1,1,-4,3,7,7,4,1
1558439239046435,-2,-1,2,1,0,-1,-1,1
1558439239046435,-2,-3,2,-4,-6,-5,-3,-2
1558439239061430,-1,-1,-5,-4,4,0,-3,-2
1558439239061430,2,2,12,19,3,-3,5,2
1558439239069374,-2,-1,-6,-5,-2,-3,1,2
1558439239069374,-1,1,5,5,-3,-1,-2,-1
1558439239086329,-1,-3,-7,-9,-6,1,-9,-4
1558439239086329,0,-2,-2,1,2,4,2,1
1558439239087327,-1,0,6,7,2,-6,1,0
1558439239087327,0,-2,-5,-16,-4,-2,0,-1
1558439239099295,-1,2,10,10,4,-4,-5,0
1558439239099295,-2,-1,-5,2,6,11,6,-1
1558439239107274,-2,-2,-7,-6,-9,-9,-7,-3
1558439239107274,-2,-2,-13,-7,-2,9,1,-1
1558439239130213,2,-1,2,-1,0,5,5,-1
1558439239130213,1,-2,2,-6,-7,-18,-6,-1
1558439239131208,-2,-3,-2,-8,-1,2,-1,-2
1558439239131208,-1,1,5,13,3,-3,-2,0
1558439239153152,-4,-2,-11,-18,-3,0,-2,-1
1558439239153152,0,-1,-4,-5,-10,-4,-4,-3
1558439239154148,-2,-2,1,5,2,1,1,0
1558439239154148,1,1,-4,-3,4,-2,0,0
1558439239159136,-3,-3,4,2,2,2,1,-1
1558439239159136,-1,1,3,-1,-4,0,-3,-1
1558439239167114,0,0,-3,-9,0,-5,1,0
1558439239167114,0,1,2,0,0,1,2,1
1558439239182073,1,1,0,-1,2,-5,-2,-1
1558439239182073,-1,1,8,12,5,9,2,-2
1558439239189085,0,1,4,4,-2,4,-1,-1
1558439239189085,0,1,4,2,3,3,-2,0
1558439239205012,3,1,3,-3,1,-15,-2,1
1558439239205012,-4,-4,-12,-13,-11,-5,-7,-4
1558439239206010,-2,-3,3,5,0,1,0,0
1558439239206010,0,-2,0,-3,-3,-8,-4,-3
1558439239219106,-1,-1,0,8,3,13,3,0
1558439239219106,-2,0,-9,-19,-1,1,3,0
1558439239226954,-1,-2,6,7,-4,-8,-1,-2
1558439239226954,-3,-3,-10,-10,-8,-9,-6,-4
1558439239242102,0,-1,-6,-4,-5,-5,0,3
1558439239242102,2,1,0,-8,7,8,0,-2
1558439239250188,2,2,5,3,2,4,-4,-2
1558439239250188,-5,-2,-6,-3,-11,-8,-6,-4
1558439239273892,-1,-1,-2,3,2,4,4,0
1558439239273892,-2,-3,2,4,-1,-3,0,-1
1558439239273892,-1,0,3,1,-2,2,2,0
1558439239273892,0,-1,2,6,6,-5,0,1
1558439239280075,-2,-3,-1,0,-6,2,-3,-2
1558439239280075,0,0,9,9,5,-2,0,1
1558439239286796,-1,-3,-18,-28,-6,-1,-4,-3
1558439239286796,3,3,20,14,12,9,6,1
1558439239302051,-8,-9,-24,-16,-15,-12,-9,-4
1558439239302051,-1,0,4,5,-4,-1,-4,-3
1558439239317746,-1,-1,-2,-3,-2,-4,-4,-2
1558439239317746,1,1,1,3,1,8,5,0
1558439239324726,1,2,8,10,8,-8,5,3
1558439239324726,-2,0,-2,4,5,-2,0,2
1558439239325690,-2,-2,-1,5,-5,-2,-1,-1
1558439239325690,-2,-6,-15,-16,-7,6,-2,-2
1558439239340651,1,1,9,6,3,-1,3,-1
1558439239340651,-1,0,-5,-23,-7,-1,2,1
1558439239346665,-1,0,1,12,3,-3,-2,-1
1558439239346665,0,-1,-2,-5,-2,6,-3,-1
1558439239361594,0,-1,-3,-1,-2,2,-2,-2
1558439239361594,-2,-1,10,10,-2,-8,-1,-1
1558439239369573,0,2,-4,-11,3,4,2,2
1558439239369573,-1,0,0,4,4,4,8,4
1558439239386526,0,1,-2,7,0,2,-2,0
1558439239386526,-1,-3,-10,-17,-8,2,-1,-3
1558439239387525,-2,-4,1,3,-4,-5,-5,-3
1558439239387525,-3,-4,-8,-5,-11,-12,-7,-4
1558439239407470,2,0,4,8,9,4,4,2
1558439239407470,0,-1,3,1,-2,2,0,-2
1558439239408467,-2,-3,-5,-12,-3,1,-4,-3
1558439239408467,0,-1,-6,-5,-6,-18,-3,0
1558439239430414,-3,-3,-5,-5,-6,-6,-3,-4
1558439239430414,0,3,3,8,4,-1,-1,0
1558439239430414,0,-1,-3,1,5,12,6,0
1558439239430414,-1,-1,4,1,-9,-2,-5,-1
1558439239445368,0,1,-2,-6,8,11,4,1
1558439239445368,1,-1,-1,4,0,-3,2,1
1558439239445368,-3,1,4,13,-2,-3,-1,0
1558439239445368,-3,-2,-3,-7,-6,-5,-7,-3
1558439239459332,-2,-3,-6,-6,-6,-1,-4,-3
1558439239459332,2,-1,2,12,12,9,9,3
1558439239467311,1,-1,2,0,-2,-13,-1,-2
1558439239467311,-2,-2,-2,-3,-4,3,-6,-4
1558439239482269,-1,-2,1,3,0,0,-3,-1
1558439239482269,1,0,3,10,8,2,4,2
1558439239489280,-2,-1,-10,-24,-9,-9,-4,-1
1558439239489280,-1,0,7,3,2,-1,-2,-1
1558439239505242,-1,-2,-3,0,2,8,0,-1
1558439239505242,-1,0,-5,-4,-5,-4,-9,-2
1558439239506206,4,2,10,15,7,7,7,2
1558439239506206,-1,-3,-15,-23,-7,-5,-1,0
1558439239519171,-1,0,5,-1,-7,-2,0,0
1558439239519171,-3,-5,-7,-10,-5,-4,-8,-5
1558439239527150,0,0,0,4,-1,3,1,-4
1558439239527150,-1,1,2,-7,7,1,4,0
1558439239550088,0,1,10,20,5,-1,-1,0
1558439239550088,-5,-4,-20,-38,-14,-9,-2,-3
1558439239551085,1,2,1,3,-3,3,-3,0
1558439239551085,-6,-3,-6,2,3,0,0,-3
1558439239573028,-1,-2,-8,-3,-1,-6,-2,-4
1558439239573028,2,3,9,14,8,12,6,2
1558439239574024,-1,-4,-5,-12,-6,-7,-3,-1
1558439239574024,3,1,0,4,3,6,5,2
1558439239579011,-2,-3,-5,-10,-10,-13,-11,-5
1558439239579011,0,-1,-3,-4,-1,9,1,0
1558439239587056,-1,0,4,8,2,-2,-1,-1
1558439239587056,-1,-1,7,5,-4,-2,1,0
1558439239601949,-1,-3,-6,3,-8,-10,-4,-3
1558439239601949,-1,-3,-9,-8,2,-4,1,-1
1558439239617906,-1,-1,-2,-4,1,2,2,1
1558439239617906,-1,-2,4,12,0,4,-2,-3
1558439239624890,-2,0,-1,-8,-5,-3,-1,1
1558439239624890,-1,0,6,2,2,-12,-5,-1
1558439239625887,-2,-1,-8,-3,-5,1,-1,-2
1558439239625887,1,1,6,10,5,8,3,0
1558439239640847,-1,-3,-15,-19,-10,-1,0,-1
1558439239640847,-1,-1,6,8,3,-1,-4,0
1558439239646829,-1,1,4,5,6,-8,1,3
1558439239646829,-1,1,4,4,1,3,1,-1
1558439239661978,0,-1,2,-8,5,9,4,1
1558439239661978,-3,-1,1,3,-9,-3,-5,-2
1558439239669769,-3,-4,-4,2,-2,-1,0,-2
1558439239669769,0,-3,-4,-4,5,4,2,-1
1558439239684923,-1,-1,5,5,-3,-5,-5,-4
1558439239684923,0,-3,-3,-1,-5,2,-2,-3
1558439239685726,1,1,1,2,6,-1,4,1
1558439239685726,2,0,3,1,4,-9,0,0
1558439239699731,-1,1,-5,-2,-5,6,3,1
1558439239699731,-2,-1,-5,-18,-6,-3,-3,-2
1558439239706699,0,0,-4,-6,-2,-3,-3,-1
1558439239706699,-2,-4,-7,-1,-4,-10,-9,-4
1558439239729638,0,2,11,8,9,4,1,1
1558439239729638,0,0,-11,0,2,9,5,1
1558439239730607,-2,-3,2,-5,1,2,-2,-1
1558439239730607,0,-2,-4,-3,-5,-7,-1,0
1558439239744598,-2,0,5,8,-4,-1,-3,0
1558439239744598,-2,-3,-3,2,0,2,-1,-2
1558439239745568,1,0,-1,-4,6,5,3,-1
1558439239745568,-2,-1,-1,1,-4,-1,-5,0
1558439239759557,-2,-2,-15,-21,-8,-2,5,2
1558439239759557,0,2,1,1,-1,0,0,-2
1558439239766544,-1,-1,8,16,1,-2,-4,-1
1558439239766544,0,-1,-3,-7,-2,-8,-4,1
1558439239781504,-1,-4,-3,-2,1,3,-1,-3
1558439239781504,0,0,7,6,0,-9,-5,-3
1558439239789479,-3,-3,-9,0,-5,0,0,-2
1558439239789479,-1,0,1,-2,-3,1,3,-1
1558439239805405,-1,2,5,9,9,7,5,2
1558439239805405,-2,-5,-6,6,-1,5,0,-2
1558439239805405,-3,-2,-6,-14,-12,-9,-7,-4
1558439239805405,1,0,-2,5,5,6,4,0
1558439239827347,-3,-3,2,-2,-6,-11,-9,-2
1558439239827347,-2,-2,0,-8,0,-2,2,1
1558439239828346,1,0,3,5,6,10,5,2
1558439239828346,-4,-2,-7,-9,-8,-3,-2,-2
1558439239850287,0,0,1,10,1,-7,-4,-4
1558439239850287,-3,-5,-13,-19,-4,-3,-5,-2
1558439239850287,-4,-1,-2,-1,-6,1,-2,-4
1558439239850287,2,1,18,16,13,-1,6,3
1558439239864247,-2,-5,-24,-33,-11,-6,-5,-2
1558439239864247,0,-2,-5,-1,-5,-10,-3,1
1558439239872415,-1,-1,-3,0,3,4,-3,0
1558439239872415,0,2,0,1,-3,3,-3,-5
1558439239879397,0,2,8,7,6,7,6,2
1558439239879397,-2,-1,0,-7,1,-7,-1,-2
1558439239887187,0,-4,-8,-14,-8,-12,-5,-2
1558439239887187,-2,-3,-4,-2,-8,-9,-6,-4
1558439239902146,1,-1,2,5,1,-1,-1,-3
1558439239902146,-2,-1,2,10,-1,7,2,0
1558439239909203,2,4,9,8,8,6,8,6
1558439239909203,-2,-3,-1,3,5,-5,-2,-1
1558439239924088,-5,-6,-16,-22,-10,-5,-3,0
1558439239924088,0,3,12,16,5,-3,-3,-3
1558439239933108,-3,-6,-20,-16,-9,-3,-4,-3
1558439239933108,-1,0,-2,-7,-3,1,-2,0
1558439239939089,0,-2,7,5,2,-1,-4,-4
1558439239939089,-1,1,7,12,1,3,1,1
1558439239947072,2,2,7,-2,1,-3,4,4
1558439239947072,0,-2,-15,-24,1,-3,0,-2
1558439239962029,-2,-1,1,10,0,7,3,1
1558439239962029,-1,-1,3,3,-3,0,-5,-3
1558439239968970,0,0,2,4,-3,-10,-4,-4
1558439239968970,-1,-3,-3,-4,-1,6,1,0
1558439239985925,1,3,10,12,5,-2,2,0
1558439239985925,1,-2,0,2,3,1,-2,-2
1558439239992914,-3,-6,-9,-11,-7,-4,-4,-4
1558439239992914,-4,-3,-1,-4,-8,-4,-1,0
1558439239998889,-1,0,-4,10,3,2,-1,1
1558439239998889,-2,-1,0,0,-3,-2,2,-2
1558439240006867,-3,-2,1,1,-7,-8,-6,-2
1558439240006867,1,0,2,5,4,3,1,0
1558439240022824,0,2,-1,-4,4,4,0,2
1558439240022824,-2,-2,-1,2,-10,-7,-6,-2
1558439240029805,2,3,10,7,7,4,1,0
1558439240029805,-1,-2,-1,11,3,-2,0,0
1558439240044952,-1,-3,-11,-23,-1,-6,-2,-1
1558439240044952,-1,-3,-4,-4,-3,2,-2,0
1558439240052745,-3,-4,-6,-1,5,-5,-2,-1
1558439240052745,0,-2,-1,10,-11,-2,-4,-4
1558439240067900,2,0,4,-4,3,-2,2,-2
1558439240067900,0,2,9,13,7,2,-2,0
1558439240068701,-2,-4,-14,-18,-10,-4,-3,-3
1558439240068701,3,5,10,7,4,-3,2,1
1558439240081793,-3,-6,-17,-27,-19,-11,-4,-3
1558439240081793,-2,-2,5,0,-2,-5,-1,0
1558439240089717,0,0,1,8,2,3,-3,-3
1558439240089717,-2,-3,-4,-5,2,7,0,0
1558439240104607,3,5,17,20,13,5,8,6
1558439240104607,-1,2,9,10,8,3,2,0
1558439240112612,-1,0,3,6,-4,-4,-1,-2
1558439240112612,-2,-6,-16,-23,-6,3,-2,0
1558439240127616,-2,-1,-9,-5,-4,-5,-7,-2
1558439240127616,0,-1,-10,-15,-5,-4,0,0
1558439240128544,0,1,5,3,2,-5,2,0
1558439240128544,0,1,-3,-7,-2,2,-3,-1
1558439240141538,-2,0,11,15,10,10,3,-1
1558439240141538,-3,-3,-16,-13,-3,2,-2,-3
1558439240149525,-2,0,1,0,-6,2,-4,-1
1558439240149525,-2,0,-8,-5,-9,-13,-2,0
1558439240164445,-2,-1,-2,-10,2,4,2,0
1558439240164445,0,-2,2,1,2,3,1,0
1558439240172423,-2,-2,0,10,8,14,4,0
1558439240172423,-1,0,-5,-14,1,-5,1,1
1558439240187385,-2,-2,-6,-12,-5,-6,-7,-3
1558439240187385,0,-1,-2,-2,-3,-4,-3,-1
1558439240188381,-2,-1,1,-3,-1,5,0,-4
1558439240188381,-2,0,0,3,3,2,-3,-1
1558439240201347,0,0,3,11,-2,-1,2,2
1558439240201347,0,-1,-2,-3,-2,-5,2,1
1558439240217304,-2,-4,-1,0,-3,-3,-5,-3
1558439240217304,0,0,6,4,2,2,1,1
1558439240224300,-1,-1,-1,-4,-4,-1,-2,-2
1558439240224300,-2,0,1,4,-3,-4,-3,-2
1558439240232264,2,0,-8,0,-2,-9,-1,3
1558439240232264,-3,-1,1,-3,-5,1,-3,-4
1558439240247352,-1,-3,10,14,8,7,1,1
1558439240247352,-5,-5,-18,-28,-10,-3,0,-3
1558439240248222,-1,2,3,1,3,-10,-2,1
1558439240248222,0,0,3,0,-2,2,0,0
1558439240262310,1,-1,4,10,-3,-6,-3,-1
1558439240262310,3,2,2,8,11,7,4,2
1558439240269171,0,1,4,1,-1,2,-1,0
1558439240269171,-4,-6,-12,-14,-8,-3,-2,-4
1558439240284128,1,2,6,8,4,-6,-1,1
1558439240284128,-2,-2,-8,-4,-6,-5,-4,-2
1558439240292126,1,-1,-6,-7,-3,-1,-2,0
1558439240292126,1,1,5,4,0,2,-3,-1
1558439240307066,-2,0,1,5,-3,1,1,-1
1558439240307066,1,1,4,-5,-2,-10,1,2
1558439240308082,-1,-2,0,9,10,12,1,-1
1558439240308082,-3,-2,-4,-8,-10,-6,-3,0
1558439240322026,-1,-3,-2,-1,-1,-1,-3,-2
1558439240322026,1,0,4,5,2,-5,4,3
1558439240329004,1,1,-2,-6,-3,-1,0,-2
1558439240329004,1,-2,2,10,1,-1,-1,-5
1558439240343966,-2,-1,-8,-24,-4,7,-3,-3
1558439240343966,-1,-3,5,13,-3,-6,-5,-2
1558439240352944,1,1,3,-5,2,4,2,1
1558439240352944,0,-1,2,2,3,-6,3,2
1558439240367903,-1,-1,-4,-1,-8,-11,-8,-4
1558439240367903,0,-1,-3,2,10,22,11,2
1558439240367903,-2,-2,1,-1,-5,-7,-8,-2
1558439240367903,1,2,3,7,5,8,5,1
1558439240382861,-2,-2,-3,1,-7,-8,-2,-3
1558439240382861,-1,-2,-4,-9,-4,0,-7,-5
1558439240388847,-1,0,-2,-5,4,1,6,4
1558439240388847,-2,-2,-6,-4,5,7,4,3
1558439240405799,2,0,5,9,-5,-4,-4,-2
1558439240405799,0,-2,-5,-8,-6,1,-6,-3
1558439240412783,0,-3,3,4,-11,-17,-9,-4
1558439240412783,-1,-3,-5,-2,2,-2,1,3
1558439240427750,-1,2,0,2,7,10,7,1
1558439240427750,-2,-2,-4,2,0,-1,-1,-1
1558439240427750,-1,-1,4,4,1,5,0,-2
1558439240427750,-4,-5,-10,4,-9,-4,-4,-4
1558439240441704,-1,-3,-6,-17,-9,-10,-6,-1
1558439240441704,-1,-1,-3,-1,0,5,2,0
1558439240449683,0,0,5,2,0,-5,1,-1
1558439240449683,-1,-1,-4,4,-2,-7,-2,1
1558439240472622,1,-2,-5,-2,-2,5,0,-1
1558439240472622,1,1,5,1,8,6,4,4
1558439240473619,-2,-3,-4,-1,4,3,-2,1
1558439240473619,0,-1,4,-7,1,0,-5,-2
1558439240495560,-1,-1,-6,6,-9,-11,-2,-3
1558439240495560,0,0,2,-4,-1,-7,-4,-3
1558439240496559,1,1,3,11,11,14,9,2
1558439240496559,-3,2,-8,-19,0,-4,0,2
1558439240501544,-3,-2,3,8,2,2,0,-2
1558439240501544,2,0,9,5,-1,-1,-1,-3
1558439240509523,-1,-4,-15,-16,-5,1,-2,-2
1558439240509523,-2,-2,3,9,-2,-7,-5,-2
1558439240524483,3,2,-3,-13,-1,-8,1,3
1558439240524483,0,1,-3,5,3,-6,2,3
1558439240531464,-1,-1,1,-3,-5,1,-3,-4
1558439240531464,-2,-4,-1,-7,-6,2,-8,-4
1558439240547422,-2,0,13,13,3,0,-3,-2
1558439240547422,-1,0,-3,-8,5,2,6,4
1558439240548418,-1,-1,-6,-2,-6,-6,-3,-2
1558439240548418,0,2,12,15,2,-5,3,1
1558439240561384,-2,-3,-9,-13,-5,-1,-5,-3
1558439240561384,-1,-1,10,14,1,2,-5,-2
1558439240569367,-2,-4,-13,-11,-7,0,1,2
1558439240569367,-3,-4,-5,-2,-9,-12,-4,-4
1558439240586585,-3,-1,0,-1,2,7,4,2
1558439240586585,1,1,1,-1,-1,-8,-1,-1
1558439240591304,0,-2,-3,-2,-3,2,0,-1
1558439240591304,1,1,14,11,6,-5,-3,-2
1558439240607262,-3,-2,-13,-9,-7,-4,2,0
1558439240607262,1,2,2,-3,3,0,3,0
1558439240608258,-3,-3,-2,-5,-8,-8,-9,-5
1558439240608258,-1,-3,-17,-19,0,9,1,0
1558439240622221,0,-1,6,5,7,-1,4,3
1558439240622221,-1,-4,-5,-8,-7,-7,-8,-4
1558439240629202,-1,1,11,14,3,0,-2,-1
1558439240629202,-1,0,-1,0,1,8,4,0
1558439240653144,-2,-2,-3,-8,0,-5,-4,-3
1558439240653144,-3,-3,-14,-13,-11,-4,-8,-1
1558439240653144,-3,-2,1,-2,-9,-16,-7,-1
1558439240653144,-2,-1,-2,1,-4,6,-4,-2
1558439240668099,0,2,4,11,14,11,8,3
1558439240668099,-2,-2,3,2,-1,-12,1,0
1558439240668099,0,0,-3,-6,-1,5,3,-2
1558439240668099,-1,-1,-4,-2,-8,-1,-3,-4
1558439240683067,-4,-4,6,7,-8,-5,-8,-4
1558439240683067,1,-2,-10,-8,5,4,3,2
1558439240689043,-1,-1,-14,-14,-2,-2,2,1
1558439240689043,0,-1,2,4,2,-6,1,2
1558439240712001,-1,-2,3,15,-7,-3,-7,-4
1558439240712001,-3,-2,-9,-21,-8,8,-3,-3
1558439240712978,2,-1,3,3,2,-3,1,0
1558439240712978,0,0,-3,-5,5,10,5,1
1558439240728935,-1,2,8,6,0,1,-1,0
1558439240728935,-1,-1,-2,-2,-3,-3,-1,-4
1558439240729934,-3,-3,1,11,-2,-4,-7,-3
1558439240729934,-1,1,15,9,7,0,1,0
1558439240749881,1,-3,-13,-8,10,12,6,3
1558439240749881,0,-1,4,7,-1,-4,-2,-1
1558439240750876,-1,0,-9,-24,-11,-1,-4,-3
1558439240750876,0,-2,8,6,1,0,1,-1
1558439240772819,0,1,4,7,5,2,0,0
1558439240772819,-1,0,2,5,3,3,1,1
1558439240772819,0,-1,-1,7,6,3,1,2
1558439240772819,-1,-3,-12,-7,-7,-5,-5,-4
1558439240787782,-2,-1,-7,-14,-5,-2,-2,-2
1558439240787782,-3,-2,1,3,-7,-7,-2,-2
1558439240787782,-1,0,5,6,2,-2,1,1
1558439240787782,-1,0,-6,-8,-6,-6,0,0
1558439240801741,-1,0,4,-14,4,5,0,0
1558439240801741,0,-1,0,15,4,4,0,-1
1558439240809719,-2,-3,-5,-11,-9,-7,-4,-3
1558439240809719,0,1,-14,-13,-1,-6,-1,0
1558439240824687,2,1,10,9,3,4,-2,-3
1558439240824687,-1,1,7,5,0,-3,-2,-2
1558439240831660,0,1,3,4,3,-5,1,1
1558439240831660,0,1,7,8,0,-1,-3,-2
1558439240846623,-4,-2,-7,-16,-8,-6,1,-3
1558439240846623,-1,-1,1,10,0,-6,-7,-2
1558439240854605,-2,-3,-5,-9,-1,10,1,-3
1558439240854605,-1,-3,-8,-13,-8,-8,-3,-3
1558439240861581,0,-1,-1,2,-1,-9,-3,2
1558439240861581,-2,-4,-13,-12,-6,1,-1,-3
1558439240869560,2,1,15,22,8,0,-2,-2
1558439240869560,0,-3,2,0,-5,3,-1,-2
1558439240884519,-1,-1,-8,-2,-9,2,-2,-1
1558439240884519,0,-1,-5,-17,3,-6,0,1
1558439240891500,-1,2,1,3,-2,-2,0,1
1558439240891500,-2,0,1,7,9,2,1,0
1558439240906460,0,-3,-8,-3,-5,-4,-3,-4
1558439240906460,-5,-4,0,-2,-12,2,-8,-5
1558439240915436,2,0,-1,-1,2,-3,1,1
1558439240915436,0,1,3,1,3,6,2,3
1558439240930397,-1,0,3,9,-4,0,-4,-2
1558439240930397,-1,-2,-6,-5,-2,2,0,-3
1558439240931394,0,0,5,4,7,-4,0,4
1558439240931394,-2,-4,-12,-8,-3,-1,-2,-1
1558439240944359,-1,1,12,14,5,-4,0,-2
1558439240944359,-2,-3,-13,-18,-10,1,-3,-2
1558439240951341,-6,-6,-8,-3,-4,4,3,-2
1558439240951341,2,0,4,-1,3,-11,-3,2
1558439240966301,-2,0,2,8,5,0,2,1
1558439240966301,1,2,-1,1,2,-4,2,0
1558439240975277,-4,-4,-12,-18,-8,1,-6,-6
1558439240975277,-2,-3,0,-3,-6,-7,-7,-4
1558439240982260,0,-4,-7,-6,2,3,5,2
1558439240982260,0,3,18,25,7,3,3,1
1558439240989240,-1,-1,-18,-29,-5,2,4,2
1558439240989240,1,1,6,12,7,2,3,1
1558439241004199,0,0,-1,-8,-4,-6,-6,0
1558439241004199,1,-1,-5,-1,2,2,2,0
1558439241012177,-3,-3,0,3,-8,-6,-8,-8
1558439241012177,0,1,3,3,-3,0,3,-2
1558439241027140,1,-2,-2,-6,-4,2,-1,-2
1558439241027140,-2,-4,-9,-8,-7,-10,-5,0
1558439241035116,1,2,4,12,6,-1,3,4
1558439241035116,-1,2,7,7,3,2,-1,-1
1558439241050077,-3,-3,-10,-12,-8,-4,-4,-2
1558439241050077,-3,-2,-1,1,-1,9,-2,-2
1558439241051074,-1,-4,-2,-8,-7,-11,-6,-2
1558439241051074,0,-2,8,11,7,8,3,0
1558439241064040,0,1,-1,-4,-8,-11,-3,-1
1558439241064040,1,-2,3,4,4,9,3,-1
1558439241072017,0,-1,-3,-9,2,10,-3,0
1558439241072017,-2,-1,-1,1,-6,-7,-1,1
1558439241086984,1,-3,-6,0,2,-3,2,2
1558439241086984,1,2,4,-8,0,-8,-3,-2
1558439241094957,-1,1,5,6,8,12,7,2
1558439241094957,-4,-3,-1,-3,-8,2,-4,-3
1558439241109918,1,1,1,-8,4,10,3,1
1558439241109918,-3,1,7,11,-1,-13,-3,0
1558439241110913,0,1,3,7,4,5,0,-1
1558439241110913,-3,-4,-15,-18,-8,-5,-6,-4
1558439241123885,0,0,4,11,3,1,1,0
1558439241123885,1,1,5,1,4,-4,-2,-1
1558439241131859,-2,-4,3,11,-2,0,-2,-3
1558439241131859,-1,-1,-13,-20,-10,-5,-4,-2
1558439241146818,-4,-2,3,9,7,2,0,-2
1558439241146818,-1,-4,-11,2,-8,-3,0,0
1558439241162775,-1,1,1,1,2,6,2,2
1558439241162775,-3,-4,3,0,2,0,-3,-4
1558439241169758,-1,-1,-1,5,-5,-12,-4,0
1558439241169758,1,0,2,-1,2,4,3,0
1558439241177736,-1,-2,-3,-1,-5,-8,-1,-2
1558439241177736,1,1,-3,-5,6,2,1,1
1558439241184722,-2,-2,-1,-6,1,-2,-4,-3
1558439241184722,-1,2,7,7,6,4,3,2
1558439241191698,-3,-2,-13,-14,-10,-7,-5,-3
1558439241191698,1,1,7,15,5,0,0,-2
1558439241206657,-2,-6,-12,-23,-5,-3,0,-4
1558439241206657,0,-3,-2,0,-2,3,-1,-1
1558439241214636,1,-1,-4,-9,0,-5,-2,1
1558439241214636,-1,-1,0,6,-2,-4,-1,-2
1558439241229598,-3,-1,5,3,-2,0,-3,-1
1558439241229598,-1,-2,-1,2,-6,-3,-3,-1
1558439241230600,1,1,8,-2,2,-3,4,-1
1558439241230600,-4,-3,-21,-15,-9,-8,-5,-3
1558439241244557,0,-2,-3,-2,-1,-2,3,1
1558439241244557,-2,0,1,-1,0,-2,-1,0
1558439241251539,0,-1,-4,-7,-5,-2,-7,-3
1558439241251539,0,2,7,4,8,12,6,3
1558439241266497,-2,-3,-5,-6,-4,-2,-4,-2
1558439241266497,-3,-1,1,3,0,4,0,-1
1558439241274476,-1,-1,2,7,4,-12,-5,-3
1558439241274476,-4,-4,-6,-18,-4,3,0,-2
1558439241290436,0,1,-2,3,-1,-1,-4,-3
1558439241290436,-2,0,1,1,-1,0,1,-1
1558439241290436,1,1,0,-3,1,5,4,0
1558439241290436,1,-1,8,16,0,-9,-4,-3
1558439241305393,-1,-2,-8,-15,-6,-4,-3,-1
1558439241305393,2,-1,-1,-2,4,5,0,0
1558439241311379,-1,2,10,17,3,-9,1,3
1558439241311379,-3,-1,-1,-11,-2,3,-3,2
1558439241326338,-2,-3,0,5,0,4,-1,-4
1558439241326338,0,-2,-11,-7,-5,-2,-2,-4
1558439241335313,-2,-4,-7,-14,-4,5,1,-1
1558439241335313,-3,0,12,11,0,-2,-1,-1
1558439241350276,1,2,7,2,0,-15,-3,1
1558439241350276,-1,-3,-14,-12,3,5,3,-1
1558439241350276,0,-1,4,8,2,1,0,0
1558439241350276,-1,-1,-5,-1,-2,-2,-3,-2
1558439241364237,0,2,2,12,2,10,3,0
1558439241364237,-4,-1,-2,-1,-6,-13,-6,-3
1558439241372215,0,-1,-2,-4,7,12,6,2
1558439241372215,-1,0,-1,0,-2,-2,-1,0
1558439241387174,0,0,3,1,5,-6,-3,-1
1558439241387174,-2,-3,-9,-6,-12,-6,-3,-2
1558439241395157,1,0,1,3,-4,-1,-2,-1
1558439241395157,2,1,10,8,7,2,2,1
1558439241410120,-2,-5,-16,-16,-2,4,2,-3
1558439241410120,1,1,3,-13,-5,-4,-3,-3
1558439241411115,-6,-4,-9,3,-9,-6,-8,-6
1558439241411115,1,1,-5,-4,6,10,3,2
1558439241424076,-2,-2,1,8,-4,-19,-7,-1
1558439241424076,-1,-2,2,-3,3,1,4,0
1558439241432060,-1,0,1,4,1,7,2,2
1558439241432060,-1,-2,-7,-7,-3,3,0,-2
1558439241447016,0,2,7,8,6,14,7,1
1558439241447016,0,-3,-5,-3,-5,-13,-3,-2
1558439241454994,1,0,0,-1,-6,-7,-4,-4
1558439241454994,0,-3,-1,-4,-8,-6,-3,-2
1558439241469954,1,2,7,7,3,0,1,-2
1558439241469954,-1,3,2,-3,6,8,2,1
1558439241470953,-1,2,9,7,12,6,4,2
1558439241470953,-2,-4,-17,-21,-12,-2,-2,0
1558439241492893,1,1,1,-2,-2,-4,-3,0
1558439241492893,0,-3,3,0,2,-1,-2,-2
1558439241492893,-3,-2,2,0,-3,-1,-3,-2
1558439241492893,-2,-4,-6,0,-5,-5,-3,-3
1558439241506857,1,1,2,1,3,2,3,3
1558439241506857,-1,1,-4,2,4,4,1,0
1558439241514833,0,-1,-3,1,-1,-1,-4,-2
1558439241514833,-3,-1,9,4,-1,-9,-3,-3
1558439241529793,-1,0,-10,-18,-7,2,4,0
1558439241529793,-3,-3,5,20,3,-2,-6,-1
1558439241530790,2,-1,-10,-24,-11,-9,-2,0
1558439241530790,0,1,8,0,11,7,1,-2
1558439241544753,-2,-3,-7,-7,-13,-3,-3,-4
1558439241544753,1,-3,-1,-4,-5,-6,-5,0
1558439241559713,0,3,6,10,10,4,1,3
1558439241559713,-1,2,2,4,4,3,3,1
1558439241566698,-2,-2,-3,-4,1,10,1,-3
1558439241566698,-3,-2,-2,3,-2,-4,-2,-2
1558439241582655,-2,-2,-6,-3,-7,-12,0,1
1558439241582655,2,1,4,7,2,-1,3,1
1558439241589633,-1,-1,-8,-4,-5,-7,-7,-3
1558439241589633,-1,1,8,11,1,2,-1,0
1558439241590631,-1,-1,-6,-13,-2,-6,-5,-3
1558439241590631,-2,-2,-3,-6,2,1,-1,0
1558439241604594,0,1,9,14,2,-5,2,1
1558439241604594,1,-1,-6,-12,-6,2,0,0
1558439241611574,0,0,6,11,2,-1,-2,-3
1558439241611574,0,-1,6,13,-3,-6,-2,0
1558439241626536,-1,-2,-9,-19,-5,-4,-4,-1
1558439241626536,0,3,6,3,4,5,4,1
1558439241634514,-2,-3,-6,-4,-5,-10,-5,-3
1558439241634514,2,1,7,13,8,10,4,-1
