timestamp,emg1,emg2,emg3,emg4,emg5,emg6,emg7,emg8
1558439266902791,-4,-4,9,19,4,-3,2,0
1558439266902791,-1,4,8,4,8,-1,5,1
1558439266911767,1,1,-5,-11,3,4,4,-1
1558439266911767,-2,1,2,13,-3,2,-2,-1
1558439266913762,-1,-2,-4,-17,-5,-4,-3,-4
1558439266913762,-1,-6,1,7,4,6,-7,-5
1558439266915756,-3,-2,-11,6,-5,-18,-8,1
1558439266915756,0,1,3,-1,8,0,-1,2
1558439266924732,0,3,3,-5,2,9,8,3
1558439266924732,0,0,2,10,4,3,0,2
1558439266932712,2,0,4,0,-5,1,1,-3
1558439266932712,-1,-2,0,-6,3,-1,2,-2
1558439266939692,-2,-6,-13,-18,-13,-5,-6,-3
1558439266939692,-1,1,9,15,1,-5,-6,-1
1558439266957644,-2,-3,-1,-6,-5,1,6,2
1558439266957644,0,-1,-2,-4,-6,-8,-6,-4
1558439266969612,4,5,12,14,11,12,2,1
1558439266969612,0,1,-7,-9,-3,-9,2,0
1558439266971608,-2,-2,-5,-20,-12,-11,-10,-5
1558439266971608,-1,-1,-4,5,1,2,-4,-1
1558439266983575,0,1,0,4,2,0,-8,-3
1558439266983575,-1,-2,-5,1,-8,-3,0,0
1558439267003521,0,-1,-4,-8,1,9,0,-1
1558439267003521,-1,3,5,4,8,14,7,5
1558439267003521,-2,-3,-9,8,-5,-22,-2,-1
1558439267003521,-1,-1,0,-19,11,22,8,3
1558439267023468,-1,0,8,12,1,-13,-9,-4
1558439267023468,-1,-5,-5,-3,-9,11,3,-3
1558439267053388,-2,-3,-3,-8,-14,-9,-21,-8
1558439267053388,0,1,4,14,3,-1,5,2
1558439267054384,2,2,13,6,5,-5,5,2
1558439267054384,0,3,-11,-10,11,12,9,1
1558439267055382,-7,-6,-19,-27,-21,-9,-8,-2
1558439267055382,-5,-6,-16,1,7,18,11,-1
1558439267066353,-1,0,3,-4,-12,-18,-9,-1
1558439267066353,0,0,9,16,-6,-12,-10,-5
1558439267074332,2,3,7,9,13,7,3,2
1558439267074332,0,0,-3,-13,-15,-13,-14,-6
1558439267076326,2,3,1,5,19,17,13,3
1558439267076326,-4,-5,-4,-1,-8,-10,-4,-4
1558439267089292,0,-1,2,2,4,-3,2,-1
1558439267089292,0,0,8,1,10,9,1,-2
1558439267096272,1,3,2,16,17,20,6,3
1558439267096272,4,1,-4,-14,-18,-8,-6,0
1558439267112229,-7,-13,-35,-45,-13,-2,-4,-8
1558439267112229,-2,0,6,0,-15,-18,-11,-4
1558439267113228,-5,-7,-6,-10,-13,-13,-9,-6
1558439267113228,-1,0,2,4,10,11,2,4
1558439267135169,1,4,11,19,9,5,8,2
1558439267135169,1,-1,-3,-2,7,0,0,1
1558439267136166,-3,-3,-7,-9,-2,6,2,-1
1558439267136166,-2,-3,2,-4,-1,-3,-7,-3
1558439267141153,0,2,4,10,-7,-8,-4,-1
1558439267141153,0,3,2,-3,6,13,3,2
1558439267156113,0,-2,-11,-17,-17,-12,-12,-5
1558439267156113,-3,-1,-4,4,3,8,6,0
1558439267163094,1,4,15,10,8,-13,1,5
1558439267163094,-4,-1,-10,0,-7,1,5,-1
1558439267178054,-1,-2,-3,-3,-1,-4,-5,-2
1558439267178054,-3,-4,-5,-4,-5,0,-3,-2
1558439267186033,0,-2,2,9,0,2,-2,-2
1558439267186033,2,0,2,-9,-3,-6,-4,0
1558439267195009,-2,-2,6,2,-1,0,-4,-5
1558439267195009,3,3,12,6,10,7,6,2
1558439267200993,-2,-1,-2,7,3,7,7,1
1558439267200993,0,0,11,14,-5,-5,-6,-3
1558439267216951,-8,-6,-31,-41,-15,-4,-2,-5
1558439267216951,-2,-3,-13,-9,-12,-13,-11,-5
1558439267222934,2,5,8,7,13,15,17,6
1558439267222934,-1,-1,2,4,8,-4,2,1
1558439267238892,4,4,13,14,0,-6,-1,2
1558439267238892,-6,-4,-2,2,16,15,8,-1
1558439267245877,0,-1,0,2,-6,-4,6,0
1558439267245877,-1,-1,-1,-3,3,-4,-6,-1
1558439267254851,-2,-4,13,27,13,12,4,2
1558439267254851,-4,-5,-20,-12,-13,-25,-7,-3
1558439267260834,-2,-3,9,22,1,7,-16,-7
1558439267260834,-5,-7,-22,-26,-3,5,9,4
1558439267275798,0,1,5,9,-6,-12,-4,-5
1558439267275798,-1,2,14,8,-9,-3,-4,-1
1558439267283774,-2,-2,-3,-6,0,-8,-4,-5
1558439267283774,1,0,-3,-10,-23,-3,-10,-5
1558439267299729,2,3,4,10,13,3,2,2
1558439267299729,1,-1,3,4,4,15,6,3
1558439267305713,0,1,-4,-13,-4,-5,6,1
1558439267305713,-1,-2,11,12,-6,-15,-10,-4
1558439267322675,-3,-5,-18,-15,-4,-3,-3,-3
1558439267322675,1,2,2,-2,-2,-2,-5,-2
1558439267323666,-7,-10,-16,-12,-4,5,7,-4
1558439267323666,-1,2,10,13,13,7,7,3
1558439267335636,-1,-2,-1,-4,-12,0,2,-2
1558439267335636,2,1,8,8,-4,-16,-11,-3
1558439267343613,3,5,1,-3,-2,-4,-8,0
1558439267343613,-3,-6,-9,-5,-3,5,2,-6
1558439267366551,-2,0,4,3,1,-3,3,2
1558439267366551,1,1,-1,-5,-8,-6,1,-1
1558439267367549,4,6,3,2,3,8,3,1
1558439267367549,2,1,8,-5,0,-7,-4,2
1558439267374529,0,-2,0,2,0,-4,-6,0
1558439267374529,-4,-3,8,-1,5,7,3,0
1558439267389488,1,-2,-10,-7,0,-8,2,7
1558439267389488,0,0,8,10,0,-2,-2,-3
1558439267395472,-3,2,-1,0,0,4,-8,-5
1558439267395472,-4,-2,-13,-16,-3,4,2,0
1558439267403451,0,1,9,3,-4,-4,-9,-4
1558439267403451,-2,-3,-8,-3,10,5,3,1
1558439267418418,1,-1,1,1,5,4,0,3
1558439267418418,-2,-4,-3,-12,2,-6,-1,-1
1558439267425392,-3,-6,-14,-12,-21,-15,-11,-4
1558439267425392,-2,-2,-12,-14,4,12,2,-1
1558439267434369,-1,0,-2,-2,-1,2,5,0
1558439267434369,1,3,9,13,9,1,4,3
1558439267441352,0,-2,4,0,4,5,1,-4
1558439267441352,-1,-1,-7,-3,-10,-14,-7,-2
1558439267456310,0,-1,6,1,-4,6,5,2
1558439267456310,-3,-6,-11,-9,-6,-12,-6,-4
1558439267463294,-3,-2,-7,-20,3,6,-8,-6
1558439267463294,2,3,5,11,4,6,3,3
1558439267480245,-3,-5,-19,-14,-11,-7,-3,-1
1558439267480245,-1,-3,11,12,-2,4,1,-2
1558439267486230,0,4,6,5,-2,-1,1,2
1558439267486230,-3,0,-4,2,4,0,-3,1
1558439267495206,-1,1,3,-5,-6,-2,-2,-2
1558439267495206,3,5,5,3,11,12,10,3
1558439267508172,-3,-7,-5,8,1,-2,3,0
1558439267508172,-2,-2,6,12,-1,-9,0,-3
1558439267517148,-1,-1,0,-12,-2,4,0,1
1558439267517148,-3,-3,-9,-4,-12,-11,-10,-5
1558439267523133,-3,1,-1,-2,8,6,2,0
1558439267523133,-1,-4,-5,0,-6,-3,-1,1
1558439267538091,1,-1,4,9,5,0,0,0
1558439267538091,0,-1,-14,-7,1,4,2,-1
1558439267546070,0,0,9,9,3,1,4,0
1558439267546070,-2,-1,-7,-12,-8,-1,-5,-3
1558439267555046,-4,1,10,18,10,5,8,0
1558439267555046,-4,-5,-13,-17,-7,-5,-4,-2
1558439267568011,0,-1,-5,-1,-3,-1,2,2
1558439267568011,1,0,-1,-6,6,2,-3,-1
1558439267576988,-1,0,1,5,2,-2,4,2
1558439267576988,1,0,5,11,1,-3,2,-3
1558439267582973,-4,-6,-1,-2,-6,-6,-6,-3
1558439267582973,0,-1,2,0,-4,5,-6,-7
1558439267599925,1,3,-2,-3,7,9,8,2
1558439267599925,1,-1,8,5,-4,-9,-7,-3
1558439267605912,-2,0,-9,-5,2,8,1,0
1558439267605912,-2,-3,-5,-7,1,-2,2,1
1558439267621867,0,-2,-8,-11,-17,-17,-16,-3
1558439267621867,0,2,11,14,10,11,12,4
1558439267628848,1,1,-9,-22,-11,-10,-8,-2
1558439267628848,-2,-2,3,3,5,3,1,3
1558439267643807,2,0,1,-5,-5,-4,1,0
1558439267643807,-2,-3,-3,-1,-8,-1,-9,-1
1558439267644805,-2,2,8,8,0,-3,0,0
1558439267644805,1,1,-2,-5,13,11,4,1
1558439267658769,-4,-2,8,7,4,-11,-4,-4
1558439267658769,-1,-7,-9,-4,-15,-4,-6,-5
1558439267667067,0,0,6,4,5,-6,-5,-2
1558439267667067,-1,1,-1,-3,-10,-2,5,0
1558439267674726,-4,-5,-14,-10,0,13,2,-4
1558439267674726,-1,1,4,1,17,2,6,-1
1558439267688689,-2,-2,-2,-3,-10,-8,-8,-6
1558439267688689,1,4,19,18,-7,-5,-1,-3
1558439267697664,-1,-4,-4,-9,0,2,1,-1
1558439267697664,-5,-3,-8,-15,-7,-4,-8,-3
1558439267711630,4,0,-2,2,6,10,7,6
1558439267711630,-2,-3,-3,-4,-9,-19,-10,-5
1558439267718608,3,2,5,8,4,15,0,1
1558439267718608,0,3,0,-2,2,-4,2,1
1558439267725590,1,0,2,1,0,-7,2,4
1558439267725590,0,-1,3,2,4,5,5,0
1558439267734566,1,0,-1,3,-3,-8,-5,-3
1558439267734566,-4,-2,-2,-15,-6,9,-2,-4
1558439267748528,-3,-2,10,18,0,4,0,-3
1558439267748528,-2,-1,-13,-11,-7,-9,2,3
1558439267757511,-4,-6,-8,-12,-5,-7,-8,-5
1558439267757511,-1,1,4,2,3,5,7,3
1558439267763489,-1,-2,6,5,8,0,-5,-4
1558439267763489,-2,-3,-5,-2,0,6,11,3
1558439267778449,-1,1,3,2,-8,-2,-1,-2
1558439267778449,4,3,10,16,14,5,4,5
1558439267785430,-2,-1,-8,-11,-13,-5,-3,-2
1558439267785430,-7,-8,-25,-23,-8,-6,-13,-6
1558439267794419,-1,-2,-10,-14,12,13,2,4
1558439267794419,0,0,3,3,-1,-8,5,2
1558439267808368,-1,-2,-2,-1,-5,1,-3,-1
1558439267808368,-2,0,6,0,-5,-3,-7,-4
1558439267817345,-1,0,0,1,-3,-2,0,-1
1558439267817345,-3,0,-2,-2,1,-1,-5,-1
1558439267823328,0,0,1,-1,0,-3,0,-2
1558439267823328,1,1,2,0,4,9,2,-3
1558439267838289,0,-1,4,6,-5,-14,-8,-2
1558439267838289,0,0,5,1,8,5,3,0
1558439267854245,-1,-1,1,-8,-2,2,2,2
1558439267854245,-2,-3,-3,7,-3,-6,-1,-2
1558439267856241,-3,-1,-4,-1,0,4,-1,1
1558439267856241,-2,-1,0,-1,-16,-10,-6,-5
1558439267877185,-2,0,-12,-9,17,15,9,3
1558439267877185,2,2,16,14,5,2,-6,0
1558439267878182,0,1,0,3,4,-2,3,0
1558439267878182,2,-2,10,7,-1,-10,-2,0
1558439267883169,-6,-6,-16,-14,-7,-12,-4,-7
1558439267883169,2,-1,1,1,-4,-1,1,-1
1558439267906108,-2,-2,-3,-1,2,1,1,-2
1558439267906108,-1,-2,-8,-16,-3,8,-2,-1
1558439267907105,-1,1,2,5,-4,-2,-3,2
1558439267907105,1,2,-3,-6,2,-3,-1,1
1558439267915083,-3,-1,0,6,-9,-4,0,-2
1558439267915083,1,0,-9,-32,1,0,-3,-2
1558439267929050,1,-2,-5,-6,-7,-5,-1,0
1558439267929050,-4,-4,-18,-15,-8,-8,-5,-4
1558439267944010,2,1,2,-2,-6,-8,-8,-1
1558439267944010,0,2,-3,11,-1,1,7,1
1558439267945125,-2,-1,16,11,8,0,0,-4
1558439267945125,0,-1,-1,-5,-7,4,3,1
1558439267967071,1,0,-2,-9,-3,-7,-1,2
1558439267967071,-2,-2,-6,6,-4,-4,-5,-2
1558439267967071,0,-1,8,4,-4,-1,-1,-2
1558439267967071,-2,0,-18,-33,-4,-1,5,1
1558439267975056,-2,-3,1,3,-2,1,-7,-2
1558439267975056,-3,-3,4,5,1,-1,-4,1
1558439267988022,0,2,-3,-3,1,3,1,4
1558439267988022,1,0,18,23,4,-2,-1,1
1558439267996995,-2,-1,-12,-9,-1,2,0,0
1558439267996995,-2,-4,-7,-30,-2,8,0,-5
1558439268002975,-3,-2,-6,8,-3,0,2,0
1558439268002975,1,1,4,6,4,-2,-1,0
1558439268017934,0,-2,-6,-11,-11,-6,-6,-3
1558439268017934,4,7,30,28,8,5,3,0
1558439268025913,-4,-6,-27,-6,1,-2,-5,-5
1558439268025913,-3,-2,-6,-19,-10,-7,-6,-2
1558439268040874,2,-1,9,9,0,-3,3,0
1558439268040874,-1,-3,-2,7,-3,0,-2,-2
1558439268048853,2,2,10,1,3,4,-1,0
1558439268048853,0,2,0,8,-5,-8,-3,0
1558439268063819,-3,-3,-7,-25,-1,-1,6,2
1558439268063819,-4,-6,-15,-14,-7,-7,0,-1
1558439268064812,1,1,4,-3,1,3,3,1
1558439268064812,1,5,29,34,13,8,2,0
1558439268078772,-6,-11,-37,-32,-15,-9,-4,-3
1558439268078772,0,-1,-17,-11,-7,-6,3,4
1558439268085790,1,3,13,15,3,2,-3,-5
1558439268085790,1,-1,-9,-20,-2,9,0,0
1558439268100713,-2,2,7,6,12,8,1,-2
1558439268100713,-5,-5,2,6,5,1,-1,-2
1558439268108752,1,0,-7,-8,-6,-5,-1,4
1558439268108752,-1,-1,1,3,-5,-7,-3,1
1558439268123657,-1,3,15,15,5,3,3,0
1558439268123657,-2,-5,-23,-26,-16,0,-8,-7
1558439268124649,0,2,15,12,6,7,-2,-4
1558439268124649,2,2,0,2,15,2,14,4
1558439268138672,1,1,8,6,-4,-8,-7,-1
1558439268138672,-2,-2,-4,0,-5,-5,-5,-4
1558439268154670,-2,-4,-2,-6,-9,-5,-2,-2
1558439268154670,1,-1,-1,14,2,2,-2,-1
1558439268160613,-2,-4,-3,-15,-1,2,-4,-1
1558439268160613,1,3,6,7,5,1,0,2
1558439268176575,-4,-5,-8,-8,-5,-3,-1,-3
1558439268176575,-4,-2,-4,-7,-3,-3,0,-4
1558439268184656,-1,2,13,21,6,2,-2,-1
1558439268184656,0,-1,-3,-1,3,4,-5,0
1558439268184656,1,0,-1,-4,-3,-9,-1,0
1558439268184656,2,2,18,21,3,2,-4,0
1558439268199451,-5,-5,-37,-35,-8,8,-1,-2
1558439268199451,-1,0,0,2,4,0,6,2
1558439268206541,-3,-1,-2,5,1,-3,3,1
1558439268206541,-4,-4,-4,-3,-3,-1,-2,-1
1558439268221470,2,2,7,0,4,-1,2,1
1558439268221470,2,2,9,2,1,-1,-2,1
1558439268228406,1,0,3,5,5,5,-1,-2
1558439268228406,-2,-1,-5,-2,-11,-5,0,-2
1558439268245327,0,1,-4,1,-1,-4,0,-2
1558439268245327,1,0,2,4,1,3,3,-1
1558439268246324,-1,0,9,2,-5,-8,-3,-1
1558439268246324,-4,-4,-20,-18,-4,-8,-3,-3
1558439268258291,-1,-2,9,22,-2,-1,-7,-1
1558439268258291,-1,-2,-1,5,-2,-6,-2,-2
1558439268266270,-2,-2,-12,-10,-4,-2,-5,-1
1558439268266270,1,3,10,7,5,7,0,0
1558439268281229,-1,-3,-9,-3,-4,-6,3,-1
1558439268281229,-3,-2,-6,-16,-5,-4,-2,-3
1558439268288211,-1,0,-8,-7,-9,-4,-3,0
1558439268288211,-5,-5,0,4,-9,-5,-13,-11
1558439268304167,2,4,10,3,22,23,20,4
1558439268304167,2,2,1,8,7,-4,2,4
1558439268304167,-2,-1,7,16,14,6,6,2
1558439268304167,1,-4,-12,-28,-5,-3,3,5
1558439268318130,0,1,9,12,-2,-6,-10,-4
1558439268318130,-1,-2,-6,-7,-13,-3,-5,-1
1558439268326110,-3,-4,-21,-30,-12,-5,-6,-3
1558439268326110,-3,-3,3,8,-6,-1,-8,-6
1558439268341081,-2,-2,1,4,-4,-1,-5,-1
1558439268341081,-1,1,2,7,13,6,8,3
1558439268348056,-1,2,4,7,5,6,1,0
1558439268348056,-2,0,-1,-10,2,5,2,0
1558439268364020,1,3,0,4,-1,-2,-2,-2
1558439268364020,-2,-3,0,5,-8,-7,-7,-2
1558439268365014,-1,-4,-9,-12,-4,0,3,0
1558439268365014,-1,-3,-3,-1,0,-6,-3,-3
1558439268378970,2,2,11,13,5,5,2,2
1558439268378970,-2,1,2,6,-3,4,2,-2
1558439268386052,-2,-2,-5,-14,-2,-2,-1,-2
1558439268386052,0,0,5,7,2,1,2,2
1558439268402940,-1,-2,-8,-6,-7,-8,-6,-2
1558439268402940,0,1,2,-5,1,-2,5,0
1558439268409009,-1,-3,-3,-4,-10,-7,-6,-3
1558439268409009,-1,1,3,2,14,11,6,1
1558439268423891,1,-1,7,13,1,-1,7,3
1558439268423891,-5,-5,-12,-8,-3,-2,-2,-2
1558439268431845,2,3,11,19,8,-1,-4,-1
1558439268431845,2,3,-4,-5,-8,-1,-1,-2
1558439268438996,-3,-2,0,-2,-5,-4,-1,-3
1558439268438996,1,1,1,2,-3,-4,-14,-3
1558439268446009,1,2,12,10,-5,-3,-6,-2
1558439268446009,-3,-7,-24,-21,-15,-8,5,3
1558439268461749,1,3,8,3,22,15,14,6
1558439268461749,-2,-2,2,9,2,-3,1,1
1558439268476925,-1,0,4,-7,0,6,0,2
1558439268476925,-3,-2,-5,-4,0,3,-4,-2
1558439268483693,-3,0,-6,-8,-13,-14,-8,-3
1558439268483693,1,-2,-3,-21,-10,-6,-6,-3
1558439268491904,-3,-3,0,3,1,0,4,-6
1558439268491904,0,-3,8,14,5,-3,-5,-1
1558439268506630,-1,-1,-5,0,0,2,3,0
1558439268506630,-3,-1,-1,0,0,5,6,1
1558439268507627,0,-1,4,8,4,-1,-3,-2
1558439268507627,-1,0,-7,-14,3,-2,2,3
1558439268522586,-1,-1,6,7,-4,-2,-4,-3
1558439268522586,0,0,-3,-14,-3,-5,-10,-3
1558439268528569,-4,-6,-26,-12,-16,-3,0,-5
1558439268528569,-3,1,3,7,-4,-3,-3,-3
1558439268543528,-2,-1,2,-8,0,-19,-11,0
1558439268543528,1,3,0,6,13,17,24,6
1558439268551507,1,2,5,-3,10,3,3,0
1558439268551507,-1,-4,-5,0,-10,-5,-5,-4
1558439268558515,-1,-2,-8,-2,-5,7,-1,-2
1558439268558515,1,1,7,5,-6,-4,-8,-2
1558439268565471,1,-1,6,4,2,-1,1,3
1558439268565471,-2,-2,-1,-4,7,8,9,-3
1558439268581804,0,-4,-8,-9,-14,-9,-4,-1
1558439268581804,-4,-5,-10,-2,-2,-4,-1,0
1558439268588787,-1,1,1,-4,1,4,3,2
1558439268588787,-1,2,16,20,6,-2,-3,0
1558439268603405,-4,-5,-15,-24,-7,-3,-4,-2
1558439268603405,-1,-1,5,15,-7,-5,-16,-10
1558439268611574,-1,-5,-12,-11,-5,-1,-2,2
1558439268611574,-1,1,2,0,1,0,7,6
1558439268626307,-1,-2,5,7,2,-7,-1,-3
1558439268626307,0,-1,-10,5,5,7,11,3
1558439268627305,1,-1,0,-13,0,-4,-3,-1
1558439268627305,-1,-4,-3,-4,-5,-7,-8,-3
1558439268641493,1,1,1,2,-2,4,0,-1
1558439268641493,2,3,12,7,7,2,-1,1
1558439268648443,-2,-3,2,12,3,-4,-2,-2
1558439268648443,-4,-4,-25,-25,-17,-7,-2,-3
1558439268663210,-6,-1,-5,6,-4,2,-12,-6
1558439268663210,-1,0,4,-1,5,7,3,1
1558439268672215,1,2,6,7,-1,-6,-3,1
1558439268672215,2,-1,5,12,8,6,0,0
1558439268687302,1,1,-4,-14,-3,-2,-4,0
1558439268687302,-2,-4,-7,-13,-11,-8,-6,-4
1558439268687302,-3,0,2,0,4,8,9,-1
1558439268687302,0,1,-1,-1,-2,-3,-7,-2
1558439268709093,-3,-3,-2,2,1,1,4,-2
1558439268709093,-1,-2,1,1,-4,-9,-8,-3
1558439268710086,2,-2,-3,-9,2,0,-5,2
1558439268710086,3,3,16,25,3,3,5,2
1558439268732035,-3,-4,-27,-41,-6,1,12,-1
1558439268732035,1,-1,10,10,-2,-6,-1,0
1558439268733023,-2,-4,-7,0,2,-3,-8,-1
1558439268733023,-2,0,-5,-5,-1,3,3,1
1558439268746987,1,1,6,8,-2,-4,-8,-1
1558439268746987,-1,-2,-3,-7,-6,-7,0,-2
1558439268746987,-3,-1,0,-2,-2,1,2,-2
1558439268746987,4,4,15,4,8,5,-1,-2
1558439268760945,-3,-5,2,6,1,2,5,0
1558439268760945,-4,-4,-26,-37,-14,-5,-3,-2
1558439268776903,-2,0,9,3,4,1,3,0
1558439268776903,-3,-3,-5,-10,0,1,-7,-3
1558439268782887,-1,-2,-3,4,-4,-4,-10,-1
1558439268782887,-3,-1,-1,5,1,2,-1,-1
1558439268798845,-1,-1,2,-5,1,1,8,0
1558439268798845,-3,-4,-1,-10,-8,-7,-6,-1
1558439268807179,2,0,8,8,6,3,5,4
1558439268807179,0,0,9,7,9,2,-9,0
1558439268807179,-2,0,-14,-20,-12,-5,-3,-2
1558439268807179,-3,1,0,4,4,-1,2,-1
1558439268821075,0,2,6,13,-1,1,4,1
1558439268821075,-2,0,2,6,2,0,-3,-3
1558439268829059,0,0,8,11,-1,-4,-5,-1
1558439268829059,2,-1,-10,-13,-3,0,9,6
1558439268843725,2,1,-4,3,-1,0,-10,-7
1558439268843725,-2,-2,-6,-14,-5,-1,2,0
1558439268851991,-1,-1,-6,2,-5,-4,-6,-2
1558439268851991,2,1,12,9,1,0,-1,0
1558439268866896,-3,0,8,9,4,0,-5,-4
1558439268866896,-2,-5,-15,-4,-5,-1,-1,-2
1558439268867664,0,0,10,14,7,0,2,1
1558439268867664,-4,-2,-11,0,1,5,4,3
1558439268881625,-1,-4,0,-10,0,1,-2,-1
1558439268881625,-2,0,1,-3,5,-3,3,0
1558439268888823,0,-2,3,3,-6,-4,-2,2
1558439268888823,-1,1,-4,4,0,1,2,-3
1558439268903599,0,-3,-1,3,-6,-4,4,2
1558439268903599,-1,0,10,10,3,-4,-10,-3
1558439268911737,-2,0,-9,-4,1,6,5,3
1558439268911737,-3,-4,-3,1,1,-3,-10,-6
1558439268926504,-3,-2,-3,-10,0,-2,-3,-6
1558439268926504,2,0,5,-7,-7,-6,-2,-4
1558439268927503,0,2,10,19,2,5,1,0
1558439268927503,-1,-4,-12,-22,-4,-3,0,-2
1558439268940480,1,0,0,0,3,4,8,7
1558439268940480,-4,-4,2,9,-3,-4,1,-4
1558439268948445,-3,-2,-10,-9,-3,-2,-7,-3
1558439268948445,-2,-2,3,6,-1,-2,-1,-3
1558439268963405,-1,-2,-3,-11,-4,-4,-6,-3
1558439268963405,-1,-1,1,7,6,5,-2,2
1558439268971386,1,-4,-13,-28,-7,-1,2,-1
1558439268971386,-1,1,3,5,3,8,-5,1
1558439268986372,3,4,4,9,1,-7,16,2
1558439268986372,0,-4,-4,-5,1,7,4,0
1558439268987341,-3,-1,4,9,3,0,-6,-7
1558439268987341,1,0,2,-14,-8,-7,-11,-2
1558439269001471,-1,-1,-6,-5,-8,-6,-5,-2
1558439269001471,-2,-1,-5,8,1,-1,0,-3
1558439269016266,-1,-2,0,-3,-8,-7,-2,-2
1558439269016266,1,-3,1,1,7,4,-3,-2
1558439269023447,-2,-1,1,-2,-3,4,5,0
1558439269023447,3,0,-9,-10,-6,-3,2,2
1558439269031433,3,3,5,0,5,9,1,3
1558439269031433,-1,-1,-4,3,-7,-11,-2,1
1558439269055376,-2,-4,-4,-7,-1,0,-3,-2
1558439269055376,1,2,7,6,3,8,6,4
1558439269055376,-1,-2,-7,-8,3,1,-5,-3
1558439269055376,-2,-1,-1,3,-1,2,2,2
1558439269061365,0,3,3,15,1,-4,-2,1
1558439269061365,-3,-4,-8,-26,-10,-10,-6,-1
1558439269077307,1,2,3,-19,-2,-1,-5,-1
1558439269077307,-3,-5,-4,7,0,9,8,-4
1558439269083098,-3,-4,-7,-6,-4,-3,-12,-2
1558439269083098,-2,0,1,3,-6,-4,-5,-3
1558439269091266,0,2,0,2,2,-3,7,0
1558439269091266,-1,1,1,-6,0,1,-4,-2
1558439269107161,-1,-4,2,-3,7,12,0,-2
1558439269107161,5,3,14,16,11,3,9,6
1558439269107161,-5,-7,-21,3,-15,-13,-9,-4
1558439269107161,-1,-2,-5,-23,-2,-10,-3,-1
1558439269121171,1,0,1,2,-2,3,1,2
1558439269121171,-3,-3,-2,0,-5,-2,-5,-4
1558439269129113,-2,-2,-2,-5,-7,-7,-4,-1
1558439269129113,-1,0,0,0,-7,-5,-2,-5
1558439269143924,-3,-2,4,5,3,1,-4,-5
1558439269143924,0,-1,-5,-8,0,0,6,-2
1558439269151938,2,1,11,19,8,2,3,6
1558439269151938,2,1,-9,-1,-5,-9,-7,1
1558439269166861,-1,-1,8,-2,7,7,0,0
1558439269166861,-2,-1,0,21,-9,-11,-2,0
1558439269166861,-2,-1,-10,-18,0,6,0,-6
1558439269166861,-5,-2,3,2,0,-2,-2,-1
1558439269180823,2,2,12,11,3,3,0,1
1558439269180823,-5,-2,-6,-3,0,0,-5,-3
1558439269189079,0,1,4,-5,-1,-4,11,1
1558439269189079,1,-1,2,3,3,2,0,-4
1558439269204051,-4,-4,-6,4,-3,-5,-1,-4
1558439269204051,0,1,2,-14,3,5,2,-1
1558439269219766,-2,-1,-2,8,0,-4,-4,-2
1558439269219766,-1,-2,1,0,-4,0,1,-1
1558439269226975,-3,-2,-4,-4,-4,-6,2,0
1558439269226975,1,-1,1,5,8,11,3,-2
1558439269227893,0,2,2,3,3,-3,-2,-1
1558439269227893,-2,-2,-1,-6,0,4,0,1
1558439269241692,-1,0,-5,-8,-3,-9,-6,-2
1558439269241692,-2,-3,0,-3,3,-2,-1,-1
1558439269248642,-3,-2,1,12,-11,-4,-2,-4
1558439269248642,-2,-5,-12,-7,-8,-3,-6,-2
1558439269263641,-1,-1,-1,6,-4,-7,-2,-2
1558439269263641,-3,1,0,-6,6,5,-3,1
1558439269271622,-1,0,7,15,10,7,4,-1
1558439269271622,1,2,6,6,15,3,7,4
1558439269296528,-2,-3,-9,-14,-9,-11,-12,-5
1558439269296528,-4,-6,-6,-6,-10,-5,0,-3
1558439269296528,-2,-1,-3,-8,0,9,-3,0
1558439269296528,-1,1,2,-3,-10,-2,0,1
1558439269309485,0,-2,-9,0,7,5,1,2
1558439269309485,0,0,0,-5,-3,-14,-2,0
1558439269309485,1,-4,-1,-4,-2,-5,-12,-1
1558439269309485,-2,0,7,7,0,2,9,4
1558439269331424,2,3,-3,-2,0,8,3,1
1558439269331424,-2,-2,-5,0,-17,-7,-20,-4
1558439269332428,1,0,1,3,-4,-10,4,2
1558439269332428,-4,-4,5,12,8,4,1,-4
1558439269354358,-2,0,-5,-17,-6,-9,-1,-1
1558439269354358,-2,-3,-4,-5,3,5,2,3
1558439269355356,0,1,9,5,7,3,-1,-2
1558439269355356,-1,0,-10,-6,-16,-7,-7,-4
1558439269360342,-2,-5,-8,-3,-5,-4,7,-1
1558439269360342,1,-1,-1,4,-1,-15,-2,-1
1558439269368322,-3,-4,2,-2,-2,2,-5,-5
1558439269368322,-1,0,-2,0,12,12,9,1
1558439269383283,-2,-1,3,0,-4,2,-6,-3
1558439269383283,1,2,1,5,1,2,4,1
1558439269399239,-4,-6,-15,-13,-11,-2,3,-3
1558439269399239,0,-3,0,6,2,-13,-6,-3
1558439269406602,1,0,2,-3,-6,-6,5,3
1558439269406602,0,1,10,16,3,-2,-1,-3
1558439269414572,-4,-3,-13,-21,0,6,-2,-2
1558439269414572,2,1,5,8,-1,0,7,4
1558439269421563,0,-3,-9,-2,6,-1,-5,0
1558439269421563,-2,0,4,2,-1,3,3,0
1558439269428535,-3,0,-1,-3,3,3,-4,-3
1558439269428535,-1,-1,4,6,-3,1,-7,-5
1558439269444160,0,2,2,-6,2,-1,-11,0
1558439269444160,2,-1,-5,-12,1,9,11,2
1558439269451403,-3,-4,-12,-3,-13,-9,-7,-5
1558439269451403,0,-2,-3,-9,-7,-5,-4,-5
1558439269466063,2,1,2,-2,5,12,6,3
1558439269466063,-3,1,5,9,4,-5,-2,-1
1558439269474072,2,4,7,-3,8,5,10,3
1558439269474072,1,-2,-11,-15,-7,-8,-2,1
1558439269481248,-1,-4,6,8,-4,2,-2,-2
1558439269481248,-2,-5,-18,-12,-7,0,-1,0
1558439269488003,1,2,12,12,-2,-6,-4,-1
1558439269488003,-2,-3,-21,-12,-3,-1,-4,-1
1558439269503165,-1,-1,4,4,3,-4,-8,-5
1558439269503165,-1,0,-4,-5,2,8,0,-1
1558439269511079,-1,-3,0,7,-2,-2,3,2
1558439269511079,0,-1,2,-8,0,2,0,0
1558439269526078,-3,0,0,1,0,-2,2,1
1558439269526078,-4,-1,1,-3,-4,-8,-12,-5
1558439269542060,-2,1,2,5,1,-4,10,1
1558439269542060,0,1,4,4,10,9,-1,0
1558439269548850,-2,-5,-1,-11,-10,-3,-4,-4
1558439269548850,2,-2,-6,-13,-8,-4,1,-2
1558439269549837,2,-2,-2,-3,6,5,5,2
1558439269549837,-1,-1,-1,1,6,-2,-3,-2
1558439269564847,0,3,2,8,-4,-6,1,0
1558439269564847,0,-2,0,-2,-2,2,-4,-5
1558439269571999,-2,-4,-1,11,-1,-2,-3,-5
1558439269571999,-3,0,-1,-8,-10,-8,-2,0
1558439269585741,-1,2,2,0,7,12,1,0
1558439269585741,0,0,-5,-7,-3,-1,6,2
1558439269593719,-1,-1,-7,-1,1,-6,-8,-1
1558439269593719,0,1,12,16,5,-2,0,0
1558439269609853,-3,-3,1,0,-1,-6,3,-1
1558439269609853,-1,-4,-7,-13,-1,4,-5,-1
1558439269609853,-1,-1,1,-5,0,3,-1,0
1558439269609853,-2,-3,-2,4,-7,-7,0,2
1558439269623640,0,0,0,2,1,-9,-3,-1
1558439269623640,-3,-1,-4,4,2,1,-5,-1
1558439269631924,-1,-2,-3,-3,-3,1,-6,-1
1558439269631924,1,0,1,-9,0,-4,-3,-4
1558439269646738,-2,-3,-3,12,-7,-6,-2,-2
1558439269646738,2,-1,5,11,0,-7,-1,-1
1558439269654801,1,0,5,3,1,-2,-2,0
1558439269654801,1,1,-5,-18,-1,4,3,0
1558439269669839,-1,-3,-3,1,-5,-5,-5,0
1558439269669839,0,-1,-6,-10,-2,2,4,0
1558439269669839,-2,-2,1,8,2,4,2,0
1558439269669839,-2,0,8,6,1,-2,0,-1
1558439269683479,1,1,-1,-6,4,4,6,1
1558439269683479,-4,-2,-1,1,1,2,-1,3
1558439269691785,1,1,5,10,-1,-2,-1,0
1558439269691785,-4,-5,-7,-4,-5,-6,0,0
1558439269705421,-4,-3,0,3,2,1,3,-5
1558439269705421,-1,0,6,2,-1,-4,-1,-4
1558439269714635,-2,-4,-16,-13,-10,-8,-8,-2
1558439269714635,-1,-2,-4,3,-4,2,-4,0
1558439269729572,-2,1,-5,-7,5,9,9,2
1558439269729572,1,1,17,18,8,4,-1,-1
1558439269729572,-1,-2,-12,-9,-8,-5,-2,-1
1558439269729572,-1,0,-9,-17,-3,0,-4,-2
1558439269743363,0,-1,-2,-2,-3,-1,-2,-3
1558439269743363,0,0,0,-1,0,-3,-5,-2
1558439269752296,-1,2,3,-6,-2,-2,8,1
1558439269752296,-1,-2,1,10,-2,-6,-5,-5
1558439269766263,0,0,-4,-9,4,3,0,3
1558439269766263,-3,0,-4,-4,-3,-3,-3,0
1558439269774418,-1,-3,-6,-5,3,-3,9,-1
1558439269774418,2,1,6,4,2,1,6,1
1558439269797178,1,-1,5,3,-4,-3,-8,-4
1558439269797178,1,-4,-3,-4,-5,-6,-3,-2
1558439269798172,-1,0,5,3,5,4,-4,-3
1558439269798172,0,1,6,2,4,3,3,2
1558439269803188,-3,-5,-19,-8,-8,-4,0,1
1558439269803188,-2,-2,-5,3,-3,-3,-3,-3
1558439269811468,1,1,-3,-13,-7,-1,-7,-3
1558439269811468,-2,-3,11,12,3,2,2,0
1558439269826160,0,-2,-5,-16,-5,-5,-7,-1
1558439269826160,2,3,8,9,13,12,7,3
1558439269841351,-1,0,5,2,-6,-3,-7,0
1558439269841351,1,-1,-7,6,-2,-2,-2,-3
1558439269849037,-3,-1,1,-12,-7,-7,-7,0
1558439269849037,-2,-3,0,5,-6,-11,-5,-4
1558439269850033,1,3,6,9,15,18,16,5
1558439269850033,-3,-3,-11,-15,-1,1,-2,-1
1558439269864151,4,0,8,14,5,1,3,2
1558439269864151,-1,0,-4,-7,-6,-5,-4,0
1558439269871230,0,-2,-2,1,3,8,-7,-3
1558439269871230,-4,-4,-2,2,-3,-5,-3,-3
1558439269887163,-2,-3,-6,-3,-2,-2,0,-3
1558439269887163,3,1,16,15,10,3,4,3
1558439269894915,-2,-4,-22,-27,-12,-4,-6,-3
1558439269894915,0,1,-3,-6,-5,-8,-7,1
1558439269909102,2,2,14,7,5,7,4,-4
1558439269909102,-3,0,-6,-1,2,5,4,-1
1558439269909875,-1,-1,-2,-8,-5,-10,-1,0
1558439269909875,1,1,2,2,4,13,10,1
1558439269924042,0,2,14,21,6,-3,-4,1
1558439269924042,-3,-6,-22,-35,-16,-7,-1,-1
1558439269931042,-3,-3,5,8,-1,-5,-8,-9
1558439269931042,-2,-1,-9,-16,-10,-7,-5,-1
1558439269946009,1,1,1,6,9,1,4,3
1558439269946009,-3,-1,1,5,6,5,5,0
1558439269954792,-2,-2,-2,-5,-8,-10,-7,-3
1558439269954792,0,0,9,18,-4,-7,-8,-4
1558439269968716,-1,-1,-10,-25,-2,6,-4,-1
1558439269968716,-4,-2,-1,-5,-5,-3,1,0
1558439269969713,-3,0,3,5,-4,-7,-2,-1
1558439269969713,-5,-5,-7,-7,-4,0,-4,-5
1558439269983677,2,3,2,3,4,7,10,2
1558439269983677,3,1,0,0,0,-5,-4,-2
1558439269990658,1,-1,10,16,1,1,1,2
1558439269990658,1,-2,-10,-16,-2,-2,0,0
1558439270005618,-2,-3,-1,0,-3,4,-1,1
1558439270005618,-5,-7,-25,-23,-6,-3,-10,-4
1558439270021603,0,1,4,8,6,-2,8,5
1558439270021603,0,-1,3,6,2,2,-4,-1
1558439270028589,-2,-2,-10,-8,-6,-6,-3,-4
1558439270028589,1,2,9,7,1,2,-3,-1
1558439270029551,-2,0,-1,1,-1,-2,-8,-1
1558439270029551,-1,-2,-1,-5,-1,-4,2,0
1558439270044872,2,1,0,-1,6,8,8,2
1558439270044872,0,1,1,4,0,-2,3,0
1558439270051717,-2,-4,-9,-12,-4,-2,-4,-3
1558439270051717,-3,0,2,-1,-6,-2,-2,-2
1558439270065458,-3,-4,1,7,-12,-14,-14,-2
1558439270065458,1,-2,0,0,4,0,5,0
1558439270074825,3,0,-3,-6,1,8,9,1
1558439270074825,2,0,1,10,11,5,11,4
1558439270089393,-1,0,-2,1,-5,-2,-2,-1
1558439270089393,0,-1,-2,-2,-6,-4,-5,-1
1558439270089393,-3,0,-2,-4,-3,-2,3,2
1558439270089393,-2,0,1,-4,1,1,-3,-3
1558439270103383,-4,-3,3,13,-2,-10,-6,-5
1558439270103383,-1,-4,-13,-19,-3,0,2,0
1558439270111669,-2,-1,-9,-18,-2,6,4,0
1558439270111669,1,1,6,10,4,4,0,0
1558439270126572,-1,0,-5,-5,-2,-8,1,1
1558439270126572,-1,0,8,5,-3,-3,3,0
1558439270134276,-1,-2,-3,1,-1,-3,-5,-4
1558439270134276,-3,-2,-3,-2,-4,0,-2,-1
1558439270149237,0,1,5,7,4,1,0,-2
1558439270149237,-1,-3,-1,-2,-2,-5,-4,-2
1558439270149237,-3,-3,-1,3,2,1,-1,-4
1558439270149237,-1,-1,1,5,-4,2,1,0
1558439270163428,-7,-4,-8,-5,-3,2,-12,-8
1558439270163428,2,3,-2,-1,1,5,3,1
1558439270171409,-1,0,3,5,-1,-2,-4,-2
1558439270171409,0,-1,-3,-5,-1,-8,-10,-3
1558439270186134,1,-1,2,-1,-3,-5,9,2
1558439270186134,-2,-1,2,11,-1,0,-3,-3
1558439270194112,-1,-1,-6,-16,-6,-6,-1,-3
1558439270194112,-1,-1,4,10,6,5,-7,-4
1558439270209073,-3,-1,-10,-25,-2,4,2,-2
1558439270209073,-4,-1,2,5,0,-7,-4,0
1558439270210071,-1,-2,2,2,-3,-4,-4,1
1558439270210071,0,0,-5,-4,0,3,12,4
1558439270223035,1,-3,2,2,-8,-9,-6,1
1558439270223035,-1,-2,-5,-3,-2,-3,-6,-4
1558439270231522,0,2,5,5,8,6,1,1
1558439270231522,1,0,-6,-5,0,-10,-1,2
1558439270246349,-2,-3,1,3,-6,-1,0,3
1558439270246349,-1,-1,5,-3,10,14,1,1
1558439270254326,4,-2,-4,1,2,-8,-1,5
1558439270254326,-3,-2,0,-1,-3,1,-6,-5
1558439270269297,-1,-1,-7,-2,-2,-2,-2,0
1558439270269297,-2,-1,1,8,-11,-6,-5,-2
1558439270269911,0,1,5,5,-2,-5,-2,-3
1558439270269911,0,-2,-7,-10,-4,0,0,-2
1558439270282876,-1,-2,0,0,1,4,-9,-4
1558439270282876,-2,-2,-4,4,3,6,8,3
1558439270291216,-3,-2,-2,-6,4,1,4,0
1558439270291216,-1,0,5,2,-4,-1,5,-1
1558439270305992,-1,-1,-6,2,1,-4,-11,-4
1558439270305992,-1,2,0,-16,-6,2,0,-2
1558439270313792,-2,-2,-1,5,3,9,6,2
1558439270313792,3,1,4,0,3,-8,6,1
1558439270328752,2,1,3,-6,-1,1,6,2
1558439270328752,-3,-4,-6,6,7,1,-1,0
1558439270336765,-6,-5,-14,-17,-19,-6,-15,-7
1558439270336765,-5,-4,-3,-3,-3,-2,-3,-1
1558439270343713,0,1,4,10,8,6,6,2
1558439270343713,2,-2,-4,-10,-4,1,3,-1
1558439270350728,1,2,9,14,-5,-6,-9,-3
1558439270350728,-1,0,-2,-11,1,6,0,-2
1558439270365655,1,2,1,5,5,1,5,0
1558439270365655,-2,-2,-1,-6,-5,-2,-9,-4
1558439270373667,-4,-4,-7,-1,1,8,3,2
1558439270373667,0,-1,3,3,-6,-8,-5,-2
1558439270388593,-1,-1,4,4,6,5,8,-1
1558439270388593,4,5,2,-8,6,0,8,4
1558439270396571,-3,-1,4,15,1,3,-9,-7
1558439270396571,-3,-2,-11,-18,-6,4,-4,1
1558439270403555,0,0,2,0,-8,-18,-1,-1
1558439270403555,-1,-1,-3,2,0,-4,-6,-1
1558439270410534,0,-2,1,-2,-2,0,7,0
1558439270410534,1,-2,1,1,4,2,2,1
1558439270425493,-3,-4,-6,-6,-8,-5,-7,-5
1558439270425493,-2,-2,3,7,-5,-3,-1,-2
1558439270434469,1,2,5,5,9,4,6,2
1558439270434469,-3,-4,-10,-11,-9,0,-8,-3
1558439270448432,-2,0,-1,-6,-5,-8,-3,-1
1558439270448432,-2,-3,-10,2,-4,-8,-7,-3
1558439270456411,1,0,-4,-14,-9,-1,-5,-6
1558439270456411,-2,-1,4,6,4,-8,-2,-2
1558439270463392,2,1,3,7,9,-4,2,4
1558439270463392,-3,0,3,-7,2,8,7,-2
1558439270470374,-3,-3,-11,-3,2,-4,3,0
1558439270470374,-1,0,-1,-2,-10,-6,-8,-3
1558439270485332,-3,-4,-6,-10,-3,9,0,-1
1558439270485332,2,3,6,9,5,-10,0,1
1558439270494344,0,1,0,5,3,4,2,-1
1558439270494344,0,-3,1,4,-3,-9,-3,-2
1558439270508273,-6,-3,3,3,-6,-1,-12,-7
1558439270508273,-1,-1,-5,-1,-2,3,0,-1
1558439270516250,2,1,1,-10,2,-3,-4,2
1558439270516250,1,1,0,12,3,4,4,0
1558439270531210,2,-1,3,-3,1,-2,2,0
1558439270531210,-2,-3,-6,-10,-9,-4,-6,-3
1558439270532208,0,-2,5,4,1,-11,-5,-1
1558439270532208,0,-1,-2,2,9,15,13,3
1558439270546171,-3,-1,-2,-2,-2,1,4,-1
1558439270546171,-2,-4,-3,7,-7,-13,-10,-2
1558439270554149,0,-2,-7,-13,-13,-8,-1,-2
1558439270554149,1,2,12,8,9,0,4,2
1558439270568111,-1,-3,-15,-13,1,8,4,0
1558439270568111,0,0,6,8,5,3,4,2
1558439270576089,-4,-1,2,-1,-2,3,-4,0
1558439270576089,-3,-5,-6,-5,-6,-12,-6,-1
1558439270591051,2,3,10,14,3,3,3,1
1558439270591051,0,-1,-6,-12,-2,-5,-4,-1
1558439270592047,-2,-2,-6,0,-3,1,0,-2
1558439270592047,0,-3,-2,-16,-5,0,-4,-4
1558439270606012,-1,-5,-6,2,-2,-4,-6,-1
1558439270606012,0,0,5,7,8,16,5,-1
1558439270613989,-1,2,0,-3,0,-13,5,4
1558439270613989,-4,-1,-2,0,1,1,0,-1
1558439270627953,-3,-1,-2,-2,-2,5,-2,-3
1558439270627953,-1,0,3,-1,3,5,-1,-3
1558439270636929,-1,-2,-6,-2,-9,-1,-11,-8
1558439270636929,2,1,3,8,7,10,9,4
1558439270651887,2,1,0,-5,7,4,1,2
1558439270651887,-1,-1,-6,-4,-10,-10,-5,-2
1558439270651887,-3,-1,3,3,7,9,3,-1
1558439270651887,0,0,0,2,-2,-10,-8,-1
1558439270665851,-3,-1,-3,-4,1,5,2,-3
1558439270665851,-2,0,6,8,2,5,4,2
1558439270673829,1,-3,-10,-14,-10,-9,-2,-1
1558439270673829,0,0,-1,-1,-2,1,0,-1
1558439270696767,-2,-2,-5,-2,-1,6,-1,0
1558439270696767,-3,0,4,7,-4,-9,-7,-4
1558439270697764,0,-2,-1,3,0,-3,4,0
1558439270697764,-1,2,10,5,15,11,7,2
1558439270710731,-1,-3,-15,-16,-10,-6,-4,-2
1558439270710731,-1,1,9,13,-6,-7,-10,-4
1558439270718743,-2,-3,1,-11,-5,-1,-2,-1
1558439270718743,-4,-4,-20,-17,-10,-1,-11,-10
1558439270725725,3,1,8,16,-2,-12,0,3
1558439270725725,0,-2,-10,-18,-2,-2,8,4
1558439270741646,-3,-1,2,5,2,-3,-7,-4
1558439270741646,-2,-2,8,10,5,9,2,-3
1558439270748628,-2,-1,-6,-14,-10,-12,-7,-4
1558439270748628,0,-1,1,2,6,6,6,1
1558439270756607,1,3,12,9,3,-3,-1,1
1558439270756607,-3,-4,-17,-18,-11,-4,-3,-1
1558439270771568,-1,-1,4,8,-3,-2,-3,2
1558439270771568,3,-2,-4,-12,0,-7,4,2
1558439270772595,-2,-2,1,-2,2,13,1,0
1558439270772595,-4,-1,0,4,-5,-6,-7,-3
1558439270785529,-2,3,14,2,7,-1,3,-2
1558439270785529,-4,-5,-13,-8,-5,-3,-3,-3
1558439270793508,-2,0,-3,2,-5,-7,-6,-4
1558439270793508,2,-1,7,8,3,7,5,-1
1558439270808468,0,-2,1,-8,-1,5,0,1
1558439270808468,0,-1,2,6,1,-6,-8,-3
1558439270816448,-1,-2,-5,-7,-6,-4,3,0
1558439270816448,-2,0,-6,-4,-4,-13,-3,-1
1558439270831407,-1,-2,-7,-3,3,4,3,-1
1558439270831407,1,0,2,-7,-4,-12,-1,2
1558439270832407,-1,0,-1,2,8,16,5,3
1558439270832407,-3,-2,-1,5,-6,-6,-5,-1
1558439270845405,-2,2,-1,-5,4,-6,1,0
1558439270845405,0,-1,-2,2,-1,-4,1,-2
1558439270854345,2,0,5,6,-4,-6,-5,1
1558439270854345,-3,-4,1,-3,-2,3,-4,-5
1558439270868308,-4,-3,-2,0,-4,7,-4,-3
1558439270868308,-2,2,-1,6,0,0,-3,-2
1558439270877283,-1,1,2,-6,5,1,4,-1
1558439270877283,1,1,-3,4,1,-9,2,2
1558439270891246,-2,-7,-11,-14,-9,-4,-2,-2
1558439270891246,-1,-4,-1,-2,5,15,3,1
1558439270892244,0,-1,-1,7,4,8,-1,0
1558439270892244,-1,0,-2,-10,-6,4,-4,-6
1558439270907204,-1,0,3,5,-9,-24,-3,0
1558439270907204,2,0,4,5,11,5,4,5
1558439270914185,1,0,-3,-3,-6,-7,-4,1
1558439270914185,1,1,4,-2,7,9,5,3
1558439270928148,-2,-2,-4,1,2,4,0,-1
1558439270928148,-4,-2,-2,-3,-3,-2,0,-2
1558439270936127,0,-4,3,4,-14,-29,-17,-8
1558439270936127,0,0,-3,-10,8,11,13,5
1558439270951087,-1,-2,-5,0,3,9,-1,-3
1558439270951087,-2,-2,-1,5,-9,-6,-3,-4
1558439270952085,-5,-5,-7,-6,2,9,-2,-2
1558439270952085,-3,-4,-12,-10,-10,-4,-3,-3
1558439270966048,1,0,8,10,5,-8,-6,-1
1558439270966048,1,0,-5,-8,3,1,4,0
1558439270974025,0,2,2,9,-9,-2,1,-2
1558439270974025,2,2,6,1,9,-2,4,-1
1558439270997006,-2,-1,-7,-8,-8,8,0,-4
1558439270997006,0,-1,0,1,-9,-10,-9,-5
1558439270997962,2,0,3,3,11,4,11,5
1558439270997962,-4,-1,-4,-5,-8,-3,-6,-3
1558439271019905,-1,2,5,7,9,5,2,1
1558439271019905,-2,-1,4,1,-1,4,3,1
1558439271019905,-2,-3,-11,-12,-10,-12,-6,-4
1558439271019905,1,-2,1,8,-5,-3,-2,-4
1558439271025948,1,0,3,-1,10,15,6,-2
1558439271025948,-1,0,0,3,0,1,-1,1
1558439271041903,2,-2,2,-7,4,3,-2,1
1558439271041903,-2,-4,0,0,-6,-3,-4,0
1558439271047827,2,2,3,4,4,-8,4,6
1558439271047827,2,3,7,3,8,7,1,3
1558439271063824,-2,0,-7,-7,-11,-10,-1,0
1558439271063824,-2,-2,-4,5,-1,-2,-5,-2
1558439271071764,0,-3,-15,-17,-12,-2,-1,-3
1558439271071764,-5,-7,0,-4,-2,7,-2,-6
1558439271071764,0,2,6,9,11,5,6,1
1558439271071764,1,2,5,2,6,-1,6,2
1558439271085726,-2,-2,1,2,-9,-16,-9,-4
1558439271085726,-3,-2,-5,-3,-1,6,-6,-4
1558439271093704,-4,-2,-6,-4,-3,4,1,-3
1558439271093704,1,0,-2,-5,0,-3,4,2
1558439271108692,2,0,8,2,-5,-17,-4,-1
1558439271108692,0,0,1,4,0,4,1,-2
1558439271116645,-5,-4,-12,-21,-5,13,-5,-5
1558439271116645,2,3,6,5,4,-8,-2,1
1558439271131605,0,-1,-1,-1,-1,-6,-7,-1
1558439271131605,-3,-3,-5,-9,-13,-5,0,-2
1558439271132602,0,-1,-3,9,9,3,4,3
1558439271132602,-4,-2,-8,-8,-12,-7,-10,-5
1558439271145568,-1,-3,-2,-7,1,13,3,-2
1558439271145568,-1,-2,-3,4,8,-3,3,1
1558439271153572,0,0,5,2,-5,-7,-2,-2
1558439271153572,0,-2,-5,-1,3,8,3,0
1558439271168506,-1,-1,2,7,-2,-4,-6,-1
1558439271168506,2,3,-1,-5,3,4,3,2
1558439271184658,0,1,20,21,5,-3,-1,1
1558439271184658,-6,-6,-16,-13,-16,-7,-12,-8
1558439271191809,-4,-3,-11,-21,-9,2,-3,-4
1558439271191809,-1,0,5,5,5,6,4,1
1558439271192443,1,1,6,11,1,-12,-4,0
1558439271192443,0,-3,-6,-6,-2,-10,-2,1
1558439271216379,-3,-4,-5,1,2,7,-2,-2
1558439271216379,-1,-2,-1,-4,-11,-12,-8,-4
1558439271216379,1,0,-1,-4,12,2,8,5
1558439271216379,2,2,7,8,5,-1,1,1
1558439271228659,-4,-3,-2,3,-8,-6,-4,-2
1558439271228659,-3,-4,-7,-8,-8,-3,-5,-6
1558439271237406,-2,0,0,3,1,9,1,-2
1558439271237406,-1,0,1,-8,-3,-4,0,0
1558439271250558,0,0,-3,-2,3,-5,1,2
1558439271250558,1,1,1,-1,-3,-8,-2,1
1558439271259792,-3,-2,-3,1,-3,3,-2,-1
1558439271259792,-3,-2,0,-1,5,5,3,1
1558439271265518,-1,0,3,3,3,0,-4,-2
1558439271265518,-2,-2,-7,-3,-5,-4,-7,-1
1558439271273509,-3,1,2,0,0,3,5,1
1558439271273509,0,-1,-5,3,-1,1,0,-2
1558439271297703,0,2,6,5,4,4,4,-1
1558439271297703,-2,-4,-6,-4,1,-8,-4,0
1558439271298411,-3,-3,-4,-6,-11,0,-9,-6
1558439271298411,-1,2,12,16,7,-3,-4,-2
1558439271319383,-2,-2,-10,-16,-3,9,6,-1
1558439271319383,0,-1,-8,-4,-1,5,4,1
1558439271320350,0,-3,-10,-11,-5,-14,-7,-4
1558439271320350,-1,-2,5,1,-3,-8,-2,-2
1558439271325366,1,0,5,6,3,1,-2,0
1558439271325366,1,0,1,-2,-4,-5,-4,-2
1558439271334313,-1,-2,2,-2,2,6,-3,-2
1558439271334313,-3,-1,-12,-4,-3,-4,-7,-1
1558439271348275,1,-1,6,2,-4,-7,2,1
1558439271348275,1,2,8,7,12,7,6,3
1558439271356255,-1,-1,-17,-8,-1,1,3,0
1558439271356255,-3,-1,3,-3,-4,2,-5,-4
1558439271371213,1,-2,-4,3,0,5,-4,-2
1558439271371213,-2,-2,-5,-6,-7,-12,-7,-3
1558439271379225,-1,1,4,8,0,2,7,-1
1558439271379225,-2,0,-2,-14,-1,3,3,1
1558439271386173,-2,0,2,3,0,-6,-2,-1
1558439271386173,-2,-2,3,-3,-1,6,1,-1
1558439271394154,0,-3,-4,-6,-2,-10,-4,0
1558439271394154,0,-2,2,3,-5,4,1,0
1558439271408116,-3,0,4,9,1,3,6,2
1558439271408116,-1,-2,-6,-11,-6,-7,-4,-5
1558439271416107,-1,-4,-3,-2,-6,3,-6,-7
1558439271416107,0,1,8,4,3,-8,2,1
1558439271440030,-1,-1,-3,-4,0,0,-1,1
1558439271440030,-1,-1,2,6,0,2,1,-1
1558439271440030,-3,-2,-3,-7,-12,-8,-6,-1
1558439271440030,1,-1,0,4,-4,-8,0,-3
1558439271461971,0,1,2,2,8,-7,-2,3
1558439271461971,-3,-5,-4,-1,-9,-2,-3,-1
1558439271462969,1,0,-8,-4,8,13,2,0
1558439271462969,2,1,13,17,5,-6,8,4
1558439271467955,-2,-4,-12,-15,-5,5,-1,-4
1558439271467955,3,0,1,0,-5,-13,-5,3
1558439271483915,-1,-2,-1,1,4,1,1,2
1558439271483915,-2,0,-1,3,10,20,9,0
1558439271490921,-2,-4,-4,-4,-6,-5,-7,-6
1558439271490921,-1,1,4,3,5,0,-3,-2
1558439271506852,0,0,1,0,-10,-12,-2,0
1558439271506852,-1,-1,-2,-7,2,3,-4,-1
1558439271514830,-1,-2,-1,9,-8,-10,-4,0
1558439271514830,-2,0,-5,-15,-4,10,7,-1
1558439271515828,-1,-3,-3,-4,-1,2,1,1
1558439271515828,2,3,0,1,5,-8,3,4
1558439271527796,1,-1,4,5,-2,-4,-9,-3
1558439271527796,-3,-3,-2,-6,0,0,-7,-4
1558439271536771,-1,-1,-4,-3,0,2,-1,-1
1558439271536771,-2,-2,-2,-1,-3,12,3,-2
1558439271550734,-2,0,-1,-4,1,-2,3,-1
1558439271550734,-3,-2,7,9,-1,-8,-5,-2
1558439271558713,1,2,2,1,2,2,-1,0
1558439271558713,-2,-4,-7,-6,-8,-4,-8,-4
1558439271574669,0,0,5,5,8,13,5,2
1558439271574669,-1,-4,-6,-5,-3,-4,1,-1
1558439271575667,0,1,5,2,-4,-8,4,1
1558439271575667,-1,-2,-4,0,-11,-11,-12,-4
1558439271588637,-1,1,-5,-3,17,18,7,4
1558439271588637,3,0,-2,3,7,-3,3,3
1558439271596612,-2,-1,0,0,0,0,0,-2
1558439271596612,-2,-2,2,1,-9,-2,-2,-2
1558439271610574,-2,-1,1,-6,-14,-10,-6,-4
1558439271610574,0,0,-3,0,7,9,4,2
1558439271618552,1,-1,2,4,2,-10,-4,-1
1558439271618552,1,0,-2,-4,1,11,3,-1
1558439271633513,-1,-1,6,6,5,2,1,0
1558439271633513,1,0,2,11,2,0,0,0
1558439271634510,-3,-2,-11,-9,-4,-1,0,-4
1558439271634510,-3,-2,-5,-5,-8,-10,-5,-3
1558439271648473,0,0,4,0,5,4,3,1
1558439271648473,1,0,-6,-5,0,-3,-3,0
1558439271656451,-5,-4,4,8,-3,1,1,-3
1558439271656451,1,2,-1,-16,7,8,4,3
1558439271670413,-1,-3,-10,-6,-2,-1,5,-1
1558439271670413,-2,-1,-2,2,-2,-4,-4,-1
1558439271680629,-3,0,2,-3,-8,-4,-4,-3
1558439271680629,-2,-2,-2,-1,-6,-12,-5,-3
1558439271694350,-2,-4,-3,2,-9,-11,-5,-1
1558439271694350,-1,-2,0,1,-4,6,7,0
1558439271694350,-2,0,-1,-6,-2,-1,2,-1
1558439271694350,-1,-1,9,5,5,5,-5,-1
1558439271717290,0,-2,-6,-2,-7,-17,0,0
1558439271717290,-2,-1,3,1,0,0,-5,-1
1558439271718288,0,-1,1,5,-1,-3,-6,0
1558439271718288,-4,-4,-19,-11,-11,-5,-6,-4
1558439271739235,-2,-1,-4,-5,1,17,2,-4
1558439271739235,-1,2,9,4,-1,-1,3,0
1558439271740229,0,-1,-1,3,6,-8,6,5
1558439271740229,0,-2,-3,2,-2,-4,-6,-1
1558439271762258,1,3,3,1,4,4,5,2
1558439271762258,-2,-2,-2,0,-4,-2,-3,-4
1558439271763166,0,-1,0,7,-2,1,-1,-1
1558439271763166,-3,-6,-13,-20,-12,-4,1,-1
1558439271768152,3,0,-2,-1,0,-8,-2,1
1558439271768152,-2,-1,7,4,6,9,0,0
1558439271776167,-4,-3,-13,-14,-12,-8,-10,-3
1558439271776167,-1,1,4,6,12,17,10,2
1558439271807261,-3,-2,4,0,-2,2,-5,-4
1558439271807261,-1,0,-9,-8,-6,-16,0,-1
1558439271808046,0,0,5,-1,-1,0,-3,-4
1558439271808046,2,0,-1,-1,-7,-14,-8,-2
1558439271814030,1,-1,1,3,6,13,11,4
1558439271814030,1,1,3,0,5,-6,-1,0
1558439271815027,1,-1,-3,0,9,16,9,2
1558439271815027,-2,-2,2,-2,-2,-4,-2,-1
1558439271827996,-5,-4,-16,-10,-8,-10,-6,-3
1558439271827996,-2,-4,-5,-6,-9,-10,-6,-3
1558439271836968,-1,2,6,8,17,14,5,2
1558439271836968,3,4,10,12,1,0,3,2
1558439271850936,-1,-2,-2,-6,-8,-5,-2,-3
1558439271850936,-3,-3,-4,-1,-6,1,-1,-3
1558439271858912,0,0,5,0,-1,1,-2,-2
1558439271858912,2,3,4,5,13,5,1,2
1558439271873880,-1,-3,-3,-12,-8,-7,-8,-1
1558439271873880,-1,-5,-10,-5,-8,3,-3,-3
1558439271874869,2,0,2,-5,-3,-13,1,1
1558439271874869,-2,-1,3,1,1,-4,-1,-1
1558439271887862,0,1,3,3,0,2,1,0
1558439271887862,0,3,0,0,6,1,2,0
1558439271896883,-2,-3,-6,-5,-4,2,-4,0
1558439271896883,-4,-3,0,12,1,5,3,0
1558439271910850,-1,1,-5,-4,1,-13,-15,-3
1558439271910850,0,-1,-2,3,0,10,3,2
1558439271919758,0,1,-2,-13,-2,-4,1,-2
1558439271919758,-2,-4,-4,-1,-9,-9,-7,-2
1558439271933712,-1,1,6,5,8,17,6,0
1558439271933712,0,-1,6,3,0,-2,2,-2
1558439271941723,-1,-1,-10,-10,0,-10,-5,-1
1558439271941723,-1,-2,-5,-2,-5,0,0,-3
1558439271948679,-1,0,5,-1,-3,-6,-3,-3
1558439271948679,0,-2,0,3,-1,8,-4,-3
1558439271957645,-3,-4,-8,-2,-2,0,0,-1
1558439271957645,1,0,0,-8,-3,-18,-1,-1
1558439271970613,-2,-1,-1,8,1,-2,0,-2
1558439271970613,-1,1,-5,-1,1,-4,6,1
1558439271987566,-1,-1,4,6,-9,0,-7,-2
1558439271987566,-1,-3,-6,-8,2,5,0,3
1558439271993627,-1,-2,-1,5,-3,-6,-5,0
1558439271993627,-3,-4,-8,-13,-8,-5,-4,-3
1558439272002528,1,1,6,11,4,-4,1,0
1558439272002528,-1,2,2,-7,5,4,4,0
1558439272017487,-1,-3,-5,-1,-6,-11,0,-2
1558439272017487,1,0,-1,-2,3,0,-2,1
1558439272018483,-2,-1,-1,-2,-1,4,-3,-2
1558439272018483,-2,0,1,3,-13,-15,-7,-1
1558439272039427,0,-2,-2,0,2,7,-1,2
1558439272039427,1,3,4,-2,10,7,7,3
1558439272041422,-2,-3,-6,-2,-11,-8,-10,-5
1558439272041422,1,0,3,8,12,9,7,2
1558439272053418,0,-2,-2,-3,-5,-4,-1,0
1558439272053418,-1,-3,-8,-7,-5,-1,2,-4
1558439272062366,-2,0,2,4,0,1,-1,-3
1558439272062366,0,-1,3,1,-1,1,-1,0
1558439272068351,0,-2,-1,-8,3,7,4,0
1558439272068351,-3,-4,-3,3,-5,-5,-8,0
1558439272084308,1,-4,-1,-2,2,0,0,-1
1558439272084308,-2,2,7,6,-1,-3,-3,-3
1558439272090294,-2,-3,-14,-12,-1,-4,3,-1
1558439272090294,-2,-3,-1,-3,-8,-8,-7,-3
1558439272107247,-2,0,-3,-2,3,10,5,1
1558439272107247,-2,-3,2,5,3,5,1,-1
1558439272113230,1,2,-3,-8,-8,-17,-5,-1
1558439272113230,-2,-2,0,-1,-3,-2,-4,-3
1558439272122206,1,-2,0,-4,-7,-7,-1,-2
1558439272122206,-2,0,-4,-3,12,20,4,1
1558439272128198,-2,1,5,5,-6,-8,-5,-3
1558439272128198,0,1,0,1,6,-3,3,3
1558439272137166,-3,-2,-4,-1,-5,-9,-3,-3
1558439272137166,6,4,7,6,-1,2,-4,-5
1558439272151127,-17,-8,-4,0,-4,2,-7,-6
1558439272151127,0,0,1,-4,-2,-2,0,-2
1558439272159113,0,2,6,4,0,3,2,1
1558439272159113,-1,-5,-4,5,-2,-9,0,-1
1558439272173072,8,8,7,6,14,14,12,6
1558439272173072,-1,-2,-3,-5,-1,1,-2,2
1558439272182049,1,-1,-9,-3,1,-2,-1,1
1558439272182049,-7,-8,-13,-14,-14,-10,-5,-3
1558439272188030,-4,0,3,10,-1,-6,-12,-5
1558439272188030,-3,-1,10,2,8,5,8,-3
1558439272197006,7,2,-13,0,-1,2,2,2
1558439272197006,-4,-4,-3,-3,-7,-6,-7,-3
1558439272219944,2,-1,6,9,4,0,5,2
1558439272219944,9,6,4,4,-5,-5,-8,-5
1558439272220942,-15,-3,-10,-22,3,0,3,1
1558439272220942,11,6,10,2,-2,-5,5,13
1558439272232912,2,-5,-5,-8,2,1,-7,-8
1558439272232912,-1,-1,-5,-5,-11,-1,-9,0
1558439272241884,-1,4,25,24,10,11,7,4
1558439272241884,-12,-4,-17,-1,-7,-4,0,-6
1558439272256871,9,-2,-5,0,2,-1,3,4
1558439272256871,-11,-8,3,-9,-1,-4,-1,-3
1558439272258840,3,0,11,12,9,2,2,-5
1558439272258840,7,0,-9,-12,-8,-8,-9,2
1558439272270808,-14,2,-1,-6,-6,0,9,3
1558439272270808,-2,-1,-1,8,-2,3,-1,-7
1558439272279784,-1,-2,-6,-10,-4,1,5,6
1558439272279784,-1,2,-3,-4,10,5,-8,2
1558439272292753,4,3,2,9,-7,-6,5,0
1558439272292753,-3,0,2,15,6,-4,1,2
1558439272301793,-6,-8,-39,-48,-18,-5,-2,-8
1558439272301793,5,5,7,6,7,7,5,2
1558439272316755,-3,-3,5,2,-5,-5,-13,-4
1558439272316755,1,3,1,-7,4,10,8,5
1558439272323735,5,-2,29,51,22,-1,-5,0
1558439272323735,-7,-2,-13,-11,-9,0,-3,-6
1558439272330714,1,-7,-27,-28,-11,-2,-2,0
1558439272330714,-8,-2,2,-1,0,-1,2,-2
1558439272339691,4,3,2,5,-6,-3,-3,0
1558439272339691,-5,-4,3,-4,3,-9,0,0
1558439272353655,7,2,11,7,7,8,-1,0
1558439272353655,4,3,3,3,-1,2,4,4
1558439272361633,-9,-7,-17,-21,-7,-3,-4,-6
1558439272361633,2,3,5,4,-2,3,7,-3
1558439272376592,0,0,-6,-15,-6,-4,-10,-1
1558439272376592,-3,-3,7,10,-3,-7,-6,-1
1558439272383573,7,1,-2,-8,-13,-9,-12,-3
1558439272383573,-19,-9,6,8,15,5,5,-8
1558439272390566,0,2,9,12,4,8,9,2
1558439272390566,-3,-2,-2,0,-6,-2,-7,-5
1558439272399530,2,-1,-3,-11,-9,-12,-6,2
1558439272399530,6,4,5,3,4,0,9,3
1558439272413493,3,-1,5,4,4,-2,-1,3
1558439272413493,-4,-1,1,10,10,4,-5,-3
1558439272422469,-2,-3,-15,-19,-14,1,-2,-1
1558439272422469,2,-1,-10,-5,-6,2,1,-1
1558439272437433,-3,-1,10,6,4,1,-3,0
1558439272437433,-2,-5,-4,4,-7,-8,-5,-3
1558439272438426,-5,0,-11,-4,10,13,8,1
1558439272438426,-5,-1,0,-1,6,2,10,5
1558439272450399,-2,-2,0,4,-5,-8,-5,-8
1558439272450399,10,1,-12,-12,2,3,0,7
1558439272459374,-6,1,16,12,1,-6,2,-6
1558439272459374,2,1,-4,-6,-5,-4,-12,-2
1558439272473336,2,1,2,13,10,14,6,3
1558439272473336,-2,-6,-8,-10,-5,1,3,-2
1558439272482311,-2,0,5,8,7,-3,-7,0
1558439272482311,7,0,0,-3,0,9,-1,1
1558439272497269,-11,-3,-8,-19,-4,1,1,-4
1558439272497269,1,1,-9,-6,-6,-13,-1,1
1558439272499266,3,2,1,-22,-4,-5,-2,2
1558439272499266,-2,-4,4,9,0,-5,-6,-3
1558439272511235,-1,-2,-13,-13,-11,-2,-5,-1
1558439272511235,-2,1,-2,-3,2,15,6,2
1558439272519221,3,-2,4,11,3,-9,4,0
1558439272519221,-5,0,-4,-3,-9,-8,-20,-3
1558439272533173,-2,-2,1,-9,-2,-1,-2,-1
1558439272533173,-7,-7,-8,-8,-8,-6,-5,-6
1558439272542151,6,3,4,13,4,-1,0,2
1558439272542151,2,2,-3,-10,7,9,3,2
1558439272557120,-2,-3,-2,4,-3,2,4,0
1558439272557120,-3,0,-1,3,-6,-13,-6,-2
1558439272558107,3,1,-3,-6,-6,-5,0,1
1558439272558107,-5,-6,-14,-20,-11,-7,2,-5
1558439272571074,-4,0,0,9,-6,-18,-16,-5
1558439272571074,1,3,4,0,15,18,-1,1
1558439272580049,-4,-4,2,-4,-5,-11,2,-2
1558439272580049,-1,0,4,7,-3,-3,-4,-4
1558439272593012,0,0,-4,-5,1,6,9,6
1558439272593012,0,-1,3,1,-2,-14,-4,-2
1558439272601989,0,0,-1,4,13,15,0,4
1558439272601989,-2,-2,3,5,-6,-1,0,1
1558439272616973,-3,-4,-12,-11,-13,-18,-15,-7
1558439272616973,0,2,6,9,17,25,21,5
1558439272618943,-2,0,-8,-1,3,-2,4,-1
1558439272618943,-6,-3,-6,-11,-6,1,0,-6
1558439272630911,-5,-1,1,-2,-1,-5,-6,-5
1558439272630911,4,5,14,7,2,2,1,1
1558439272639889,-7,-10,-20,-20,-10,-1,-9,-6
1558439272639889,-2,-1,0,4,-3,-2,6,3
1558439272652854,5,-1,0,0,0,-7,-4,0
1558439272652854,0,1,6,1,3,-1,0,2
1558439272661837,-5,-5,-9,-3,-7,5,-6,-6
1558439272661837,-1,-2,-3,-4,-7,-10,5,0
1558439272675795,-3,-2,1,6,1,-6,-8,-3
1558439272675795,-4,-3,-5,1,-1,-4,7,-4
1558439272684767,-1,1,12,2,-3,1,-6,-3
1558439272684767,-4,-6,-11,3,-2,-5,-10,-6
1558439272690753,-4,-2,4,3,2,4,10,3
1558439272690753,3,1,-8,-14,-5,-4,2,3
1558439272699728,-2,-1,8,5,-2,2,2,-1
1558439272699728,-3,-1,0,-1,-1,-7,-13,-5
1558439272713710,2,2,5,9,17,21,13,2
1558439272713710,-5,-7,-4,-8,-11,-9,-22,-9
1558439272721674,1,2,6,12,-10,3,-4,2
1558439272721674,5,5,6,-4,5,0,6,2
1558439272735631,-2,-2,-13,-5,5,3,1,1
1558439272735631,0,-1,-8,1,3,1,-4,0
1558439272744608,-1,0,7,8,7,9,2,-4
1558439272744608,-2,-2,-1,-3,-18,-10,-15,-5
1558439272750599,1,-1,4,-9,-3,-3,4,3
1558439272750599,-1,1,-3,3,8,1,10,7
1558439272759568,-1,0,-1,-1,6,5,-3,-4
1558439272759568,0,-3,3,7,2,6,7,2
1558439272773530,1,2,-3,-9,-4,-1,-6,-6
1558439272773530,-1,0,3,1,0,4,1,1
1558439272782509,-1,-1,-3,-3,0,-3,1,0
1558439272782509,-2,-3,-7,-9,-2,-6,-6,-4
1558439272797467,2,-1,-1,3,-1,3,-4,-2
1558439272797467,-5,-5,-2,-5,-3,0,4,1
1558439272798463,-3,0,-3,2,0,-11,3,4
1558439272798463,5,4,8,8,3,5,7,4
1558439272810433,-3,-3,0,-6,-4,-1,-8,-4
1558439272810433,-1,1,-11,-13,-5,-6,-3,-1
1558439272819410,0,0,-1,-5,-1,9,4,-1
1558439272819410,-3,-3,2,3,1,1,-6,-2
1558439272833372,-2,-1,0,4,1,0,2,-4
1558439272833372,5,2,10,13,-2,0,-13,-4
1558439272842348,-2,-5,-16,-3,-4,4,5,0
1558439272842348,-1,-3,-18,-21,0,-1,2,2
1558439272857308,-2,0,5,8,-1,-9,5,0
1558439272857308,-2,-3,5,-2,-6,-5,-6,-3
1558439272858303,0,0,4,-3,-1,-2,-4,1
1558439272858303,0,-1,-2,1,-6,-7,-12,-2
1558439272870279,0,2,8,-2,0,-6,15,8
1558439272870279,-2,-6,-12,2,6,6,13,3
1558439272879248,1,1,14,3,-3,-8,-3,-1
1558439272879248,0,-5,-10,-3,0,7,1,-1
1558439272893214,-2,-1,6,10,-1,-13,-2,1
1558439272893214,-3,-2,-15,-17,-16,-8,-9,-7
1558439272902186,0,-1,1,-3,6,4,6,3
1558439272902186,-1,-1,5,6,-1,-2,-1,-1
1558439272917146,0,1,-4,1,-5,2,-11,-4
1558439272917146,-1,1,4,-1,4,6,4,-3
1558439272918143,-2,-1,-5,3,-5,-6,-3,1
1558439272918143,-1,0,6,3,5,5,-1,-2
1558439272931108,-2,-2,1,2,3,4,-1,-3
1558439272931108,1,-3,-11,-13,-6,-11,-11,1
1558439272940085,0,6,5,0,-2,1,10,2
1558439272940085,-4,-7,1,-4,-2,2,3,-3
1558439272953049,-1,-2,-7,-6,-2,-10,-3,-4
1558439272953049,5,1,6,7,4,3,2,0
1558439272962026,-12,-4,-9,0,-1,0,-2,-4
1558439272962026,4,5,6,0,3,2,9,5
1558439272975989,-1,-2,-6,-3,0,3,-3,2
1558439272975989,2,1,3,-2,-8,-5,3,0
1558439272982974,3,-5,-4,6,4,-3,-7,-1
1558439272982974,-2,0,-7,-4,-4,-2,3,-1
1558439272990956,-4,-4,-10,-15,2,15,9,-2
1558439272990956,-2,-1,2,0,-6,-14,-4,2
1558439272999928,-3,-2,3,2,0,3,1,-4
1558439272999928,-4,-3,0,6,-4,-6,1,-1
1558439273012892,3,1,7,8,0,-4,-6,-3
1558439273012892,-2,-1,-5,-8,6,13,-3,-3
1558439273021874,4,-1,2,1,-4,-6,-3,2
1558439273021874,-2,-4,-1,8,7,3,3,-2
1558439273036828,-1,-1,-7,-13,-8,-3,1,4
1558439273036828,-5,-5,-9,-3,-6,-3,3,-1
1558439273042816,-2,-3,0,7,2,-5,-8,-4
1558439273042816,-1,1,5,-10,-3,-2,-4,0
1558439273050789,-3,-3,-4,-4,1,4,1,-3
1558439273050789,-3,-1,9,10,-5,-13,-7,-9
1558439273059765,-1,-6,-23,-26,-10,-6,0,-3
1558439273059765,4,1,4,10,-3,-8,-11,-3
1558439273073727,3,0,-1,4,8,9,2,0
1558439273073727,-6,0,-5,-3,-1,0,10,4
1558439273081707,1,0,5,-5,-3,-2,-8,-4
1558439273081707,-2,-2,0,2,7,7,4,-3
1558439273095669,4,3,3,0,-1,1,2,2
1558439273095669,-1,-2,-2,-1,1,-1,-5,-5
1558439273104645,-1,0,5,5,0,1,4,-1
1558439273104645,-2,-2,-7,-1,-3,1,0,-1
1558439273110628,-5,-2,-3,-6,-1,1,-18,-4
1558439273110628,-1,-1,8,3,2,1,8,4
1558439273127583,0,0,0,-6,-6,-9,-12,0
1558439273127583,-2,-3,0,6,1,4,0,-3
1558439273133572,-1,1,4,4,-3,-5,2,0
1558439273133572,1,0,-5,-12,2,7,-3,-4
1558439273149524,-3,-2,0,0,-4,-6,-2,-1
1558439273149524,2,-1,-3,-9,-4,-13,5,3
1558439273156505,0,-3,-10,-3,-2,4,-4,-1
1558439273156505,-1,-3,6,7,3,2,-8,-2
1558439273171464,-2,-1,-5,-4,-5,2,8,-2
1558439273171464,-1,1,-6,-4,1,6,0,0
1558439273172464,6,1,9,13,-3,-12,-4,4
1558439273172464,-9,-2,-4,-5,-3,1,5,2
1558439273179444,1,3,2,0,7,11,-2,-1
1558439273179444,-1,1,8,5,3,3,-4,2
1558439273193410,-1,-5,-2,1,-3,-8,2,2
1558439273193410,3,-1,0,12,-3,-3,-9,-3
1558439273202385,2,2,3,8,9,-5,11,5
1558439273202385,-2,-1,-14,-11,-7,0,2,1
1558439273216362,-4,-2,-6,-7,-14,-15,-6,-6
1558439273216362,4,1,-4,-13,7,17,4,2
1558439273223330,-1,-5,8,18,0,0,10,0
1558439273223330,0,0,-1,-7,1,-3,1,0
