timestamp,emg1,emg2,emg3,emg4,emg5,emg6,emg7,emg8
1558439249596155,-1,0,1,9,3,6,5,2
1558439249596155,1,0,-1,-7,4,2,1,-2
1558439249596155,1,-1,-1,-9,-2,-7,0,0
1558439249596155,-2,-4,-3,10,-3,-4,-3,-5
1558439249600145,-1,-1,-1,-4,0,0,-1,-1
1558439249600145,-2,-2,-3,-8,-6,0,-3,-4
1558439249602139,-1,1,-2,8,-1,0,-4,-2
1558439249602139,-1,-1,-3,-7,-4,-5,-4,0
1558439249608123,2,1,4,0,7,-5,2,-1
1558439249608123,-1,-2,1,2,-1,4,3,-1
1558439249617373,-4,-3,-7,-15,-6,-1,-4,-3
1558439249617373,0,0,7,1,2,3,5,3
1558439249631061,-2,-3,-9,-10,-7,-7,-6,-2
1558439249631061,1,4,10,13,10,6,5,6
1558439249638042,-3,-3,-3,-1,-5,1,-3,-4
1558439249638042,1,1,4,0,-2,3,-2,-4
1558439249653002,0,-3,-12,-9,-3,-2,0,1
1558439249653002,1,-2,-3,-5,-3,-9,-2,-1
1558439249659983,-1,-2,2,0,0,4,1,0
1558439249659983,-3,-2,-2,-1,-3,-14,-5,-1
1558439249675951,-3,2,7,13,-1,3,-1,0
1558439249675951,-2,-3,-10,-12,-3,-4,-4,-2
1558439249682922,0,0,4,0,2,-1,0,1
1558439249682922,-3,-4,-11,-4,-5,5,2,0
1558439249690902,2,1,1,-1,3,-1,0,1
1558439249690902,-1,-2,0,7,-4,-3,-3,-5
1558439249697882,0,1,1,3,1,1,-1,2
1558439249697882,-2,0,-3,-2,0,-2,-2,-4
1558439249713839,-1,-1,1,-9,-3,2,-1,-3
1558439249713839,0,-4,-4,4,-4,-4,-2,-2
1558439249742763,-3,-1,6,0,8,14,5,1
1558439249742763,1,-1,-8,-12,0,-2,5,1
1558439249750740,0,-2,-1,9,-1,-7,-3,-1
1558439249750740,-4,-3,4,4,0,2,-2,-3
1558439249751738,0,-2,-5,-19,-8,-12,-6,-2
1558439249751738,-2,-1,-4,4,2,0,0,-1
1558439249752736,-3,0,-2,2,1,0,0,0
1558439249752736,0,-1,0,3,0,1,-4,-2
1558439249763706,-1,-1,-5,-11,-2,5,6,1
1558439249763706,-1,0,5,9,-3,-3,-1,0
1558439249772682,3,-2,-2,-12,1,-6,1,-1
1558439249772682,-1,-1,-4,-3,-2,-5,-1,-3
1558439249778671,-1,0,1,11,2,5,1,3
1558439249778671,-1,-2,1,-2,0,2,-2,-1
1558439249793628,-3,-2,1,-8,-4,-1,-4,-4
1558439249793628,0,1,5,4,1,-4,-2,-1
1558439249801617,2,2,15,26,9,-1,0,2
1558439249801617,-4,-5,-40,-41,-13,-4,2,-2
1558439249817563,-3,-2,-1,0,-3,2,-1,-2
1558439249817563,-2,-2,-5,-7,-2,0,-2,-1
1558439249823546,-1,-2,0,3,-7,-7,-3,-3
1558439249823546,1,0,14,16,9,-1,-2,0
1558439249841498,-1,-1,3,12,3,2,-2,0
1558439249841498,-3,-2,-12,-14,-12,-6,-5,1
1558439249841498,-1,-2,1,-1,0,-1,-1,-2
1558439249841498,-2,-1,5,5,0,-2,-5,-3
1558439249861445,2,2,0,2,5,4,6,1
1558439249861445,-1,-2,2,-4,6,3,3,1
1558439249870421,-1,0,2,6,-3,-1,-3,-4
1558439249870421,-4,-2,-7,-11,-9,0,-5,-5
1558439249871419,-1,0,-1,-5,-3,-2,-3,0
1558439249871419,-1,0,10,11,8,5,3,3
1558439249884384,-3,-5,-13,-16,-6,-12,-3,0
1558439249884384,0,2,5,-2,2,5,3,1
1558439249893359,-3,-2,4,2,-10,-4,-6,-3
1558439249893359,0,-2,-11,-2,-1,-5,0,0
1558439249899342,-1,0,-4,-3,4,3,-2,-2
1558439249899342,1,0,10,7,7,2,-2,2
1558439249914303,2,0,-3,-6,-3,6,-1,-1
1558439249914303,0,0,2,4,2,0,2,1
1558439249930261,-1,-2,-4,-8,-7,-6,0,-3
1558439249930261,0,-1,6,5,-4,-5,-4,-3
1558439249931263,-3,-4,-17,-8,1,2,2,-1
1558439249931263,-1,-3,-9,-19,-8,2,-2,0
1558439249944226,1,2,0,-2,0,0,-3,1
1558439249944226,-1,0,9,18,5,1,2,2
1558439249953199,2,1,1,-11,2,-1,3,2
1558439249953199,-1,2,0,3,-1,2,0,-2
1558439249959184,-2,-1,5,16,0,2,-4,-5
1558439249959184,2,0,-10,-21,-6,-5,-3,-4
1558439249974144,-2,-3,-1,0,1,-2,-7,-2
1558439249974144,3,1,3,3,-2,-15,-4,1
1558439249981125,-3,-2,3,2,-1,5,-1,-2
1558439249981125,-3,-4,-8,12,3,7,5,-2
1558439249990100,-1,1,3,-6,6,-9,1,-2
1558439249990100,-3,0,-2,-7,-7,1,-1,-3
1558439250004063,0,-1,0,-4,-4,-2,-6,-3
1558439250004063,0,1,6,4,1,-1,2,2
1558439250013039,-3,-2,-3,-1,-4,-11,-3,0
1558439250013039,-3,-4,-3,4,0,-1,3,-1
1558439250019023,-1,2,2,-1,5,4,3,2
1558439250019023,-1,-2,-5,-5,-2,5,-4,-4
1558439250033983,0,0,4,2,-5,-1,-4,-2
1558439250033983,0,0,3,4,1,1,-1,-3
1558439250040971,2,-2,-6,-7,-5,-3,-1,-1
1558439250040971,-1,1,-4,1,-1,-5,-2,0
1558439250049941,-2,0,0,-12,4,7,4,-1
1558439250049941,0,1,-6,-5,-3,-14,0,-2
1558439250063904,-3,-2,-1,8,-3,-5,-5,-2
1558439250063904,0,-1,1,-14,-1,6,1,-1
1558439250072879,2,1,-3,2,0,5,2,0
1558439250072879,-4,-4,3,2,1,3,-3,-3
1558439250078863,-1,-2,-4,-8,1,-6,2,4
1558439250078863,-2,-1,9,9,-3,-10,-5,-4
1558439250093825,-1,-1,-9,-4,-5,-4,-3,-1
1558439250093825,-1,-2,0,-1,3,8,-2,-1
1558439250101837,-3,-3,-3,-5,-3,0,-1,-1
1558439250101837,-1,1,3,4,-3,-5,-1,-1
1558439250117759,-3,-2,7,7,-3,0,0,-4
1558439250117759,0,1,1,0,-1,-3,-5,-3
1558439250123778,-1,0,4,-3,3,5,3,0
1558439250123778,0,-1,-2,2,0,-6,-2,-2
1558439250140730,0,1,2,0,-1,-4,-3,0
1558439250140730,0,-1,-12,-21,-4,1,2,1
1558439250141696,-1,0,3,4,6,6,0,-1
1558439250141696,-1,-2,5,8,-1,1,-2,-1
1558439250153663,-1,-2,-7,-9,1,5,3,1
1558439250153663,-2,-2,1,8,-4,-3,-1,-2
1558439250161641,-2,-2,-16,-12,-6,-9,-2,-1
1558439250161641,0,1,4,2,0,-9,-2,0
1558439250176601,-2,-2,-5,-5,4,7,5,1
1558439250176601,0,0,5,5,1,6,0,0
1558439250183634,-2,-1,-2,4,0,2,-1,-3
1558439250183634,-2,-3,-4,-18,-11,-12,-5,-3
1558439250192559,-1,2,-1,4,1,-6,-1,-2
1558439250192559,1,0,1,4,0,5,2,-2
1558439250198543,-1,-1,-1,-7,0,1,-2,-1
1558439250198543,1,1,2,8,10,2,0,3
1558439250213503,-2,0,-1,-5,-7,-5,-2,-3
1558439250213503,1,0,-1,-2,3,-3,-1,1
1558439250221509,-1,0,-4,-2,-7,-5,-5,-2
1558439250221509,-2,1,1,0,4,9,2,-1
1558439250236442,-3,-3,-6,1,-6,-3,-1,1
1558439250236442,1,1,2,5,0,1,-2,-2
1558439250244421,-1,0,-1,-5,-3,5,3,1
1558439250244421,0,-1,-1,-5,-2,-4,0,-1
1558439250252398,2,0,11,17,5,-2,-2,-2
1558439250252398,-2,-4,-16,-23,-2,2,1,0
1558439250259381,-1,1,3,5,-2,-6,-4,-1
1558439250259381,-2,-2,-7,-9,-1,1,-1,0
1558439250274341,-2,-1,0,9,-1,3,-2,-3
1558439250274341,-1,-2,-3,-1,-2,0,2,2
1558439250281323,-3,-3,1,-10,1,0,2,0
1558439250281323,1,2,-1,0,-1,-5,0,-1
1558439250296283,-1,-1,5,7,-1,-4,-2,0
1558439250296283,-1,0,4,-2,-1,5,-2,-1
1558439250304260,4,2,4,11,5,3,0,-1
1558439250304260,-1,-2,-13,-20,-5,-8,-1,0
1558439250313236,1,3,4,-3,-2,-3,-4,-3
1558439250313236,-5,-4,-2,8,-4,-1,-1,-4
1558439250319220,0,-1,-4,-6,-2,-3,0,0
1558439250319220,-3,0,5,7,2,6,4,-2
1558439250334180,-1,-1,-6,-9,1,2,-1,1
1558439250334180,-2,0,2,0,-4,-6,-3,-1
1558439250341162,-2,0,4,7,0,2,-1,-3
1558439250341162,-1,-2,-2,-3,4,2,-4,-1
1558439250356122,0,0,4,7,-4,0,-3,-2
1558439250356122,-3,-2,-8,-2,-3,-4,-4,-4
1558439250373076,-2,-1,-3,-4,-1,-12,0,1
1558439250373076,-2,-1,2,1,-2,3,0,0
1558439250374073,0,-3,-2,-3,-3,-3,-6,-3
1558439250374073,4,2,7,7,9,5,2,3
1558439250395017,0,1,0,5,3,3,4,2
1558439250395017,-2,-4,-6,-6,-9,-8,-5,-4
1558439250397012,-1,-1,-1,-7,4,3,1,-1
1558439250397012,-1,0,-3,-5,-2,-2,3,-2
1558439250401999,-1,0,-2,-5,2,-3,-1,1
1558439250401999,0,-1,9,10,1,4,-1,0
1558439250424938,0,-2,-2,4,0,-7,-2,-1
1558439250424938,1,-2,-4,-7,-3,-5,-4,-1
1558439250424938,0,-2,-10,-22,-11,2,-4,-2
1558439250424938,-1,-1,0,6,1,-6,-7,-2
1558439250439898,-3,-1,-1,5,-6,-3,-2,1
1558439250439898,1,0,1,-4,3,3,4,0
1558439250446879,0,0,2,10,2,5,2,-2
1558439250446879,-2,-4,-5,-13,-1,2,0,1
1558439250453860,1,0,1,-7,-3,-8,-1,0
1558439250453860,-4,0,3,10,-5,-8,-7,-4
1558439250461839,0,-2,-1,-3,5,6,2,0
1558439250461839,0,-1,-8,-4,-5,-7,-1,-3
1558439250476800,-2,-1,-6,0,1,5,5,1
1558439250476800,0,1,5,5,3,0,2,-1
1558439250483781,-2,-2,1,-1,-4,-4,-5,-3
1558439250483781,-1,3,6,2,5,3,4,0
1558439250492763,-4,-4,-11,-8,-8,-4,-4,-5
1558439250492763,0,-1,-3,-1,-5,-1,1,0
1558439250506724,-1,-2,0,9,1,0,-2,-2
1558439250506724,-2,-3,-1,2,2,1,-4,0
1558439250513705,1,-1,-2,-9,-3,2,1,1
1558439250513705,-3,-1,-1,2,0,0,-2,0
1558439250529662,0,-1,4,3,-3,-2,-3,-2
1558439250529662,-2,-2,2,5,0,8,5,0
1558439250536639,-2,0,2,6,11,-5,2,1
1558439250536639,1,0,-4,-5,2,10,5,0
1558439250543621,1,1,10,12,4,-3,0,0
1558439250543621,-2,0,-9,-10,-5,-3,-5,-3
1558439250552605,0,0,-3,-2,-3,0,-5,-3
1558439250552605,-2,-5,-13,-6,-10,-7,-4,-1
1558439250567556,-1,-3,-3,-2,-7,-10,-3,-1
1558439250567556,3,2,6,4,5,1,0,2
1558439250573541,1,0,3,5,3,8,0,-3
1558439250573541,-2,-3,-1,0,-4,-9,-4,-4
1558439250581523,-2,0,-3,-8,2,-5,0,0
1558439250581523,-4,-2,-2,6,-7,-7,-6,-5
1558439250596482,0,-1,-2,-13,-1,4,0,0
1558439250596482,2,0,4,-1,1,1,-1,0
1558439250604458,-1,0,-1,-1,-1,2,1,-2
1558439250604458,-2,-3,-1,1,-1,2,0,-1
1558439250612440,-1,-3,0,2,0,-11,-1,-2
1558439250612440,0,0,3,-4,-2,2,-1,-1
1558439250627398,-2,-3,-8,-8,-14,-11,-12,-4
1558439250627398,0,1,4,9,8,13,5,2
1558439250634377,0,0,-12,-19,-6,3,2,-1
1558439250634377,-1,0,3,-4,4,-6,-1,0
1558439250641361,2,0,0,-2,-4,-2,2,0
1558439250641361,-1,1,4,10,-4,-4,-5,-1
1558439250656321,-3,-3,-2,-14,-7,-5,-5,-2
1558439250656321,-1,0,-2,6,7,4,4,2
1558439250664298,-2,-1,-10,-11,-2,-6,-3,-5
1558439250664298,0,-3,-4,-1,-5,-7,-3,-3
1558439250673276,4,2,1,0,8,9,9,4
1558439250673276,-2,-1,7,4,-1,-5,-5,-3
1558439250695219,-2,-2,2,13,13,12,4,1
1558439250695219,0,-3,-12,-18,-12,-5,-1,-4
1558439250696212,-4,-1,2,13,-1,-3,-5,-2
1558439250696212,-1,0,-5,-17,-1,1,-2,0
1558439250701199,2,-1,3,9,1,1,-4,-1
1558439250701199,0,0,3,-9,-1,0,3,2
1558439250718155,0,0,2,14,0,-3,-4,-1
1558439250718155,-1,1,8,5,-1,-2,-1,0
1558439250724140,0,-2,-20,-13,-6,-2,-2,0
1558439250724140,-1,1,1,-10,-1,3,1,-1
1558439250739100,-2,-5,-7,-3,-2,-2,-3,-3
1558439250739100,3,3,9,12,8,0,1,3
1558439250747082,-1,-3,-3,-7,-9,-20,-6,-4
1558439250747082,-1,-2,-3,2,6,3,3,0
1558439250762071,-1,-2,3,4,-5,0,0,-2
1558439250762071,0,-1,-2,1,-2,3,-3,-3
1558439250763069,-3,1,2,-3,7,10,2,2
1558439250763069,-1,-1,-6,-7,-8,-9,-3,1
1558439250776005,-3,1,4,7,1,-7,-7,0
1558439250776005,-2,-1,-5,-11,6,10,6,2
1558439250783978,0,-4,4,0,2,8,3,1
1558439250783978,-2,0,-1,9,5,2,2,-1
1558439250798998,1,0,2,-2,-3,5,0,-1
1558439250798998,-2,-7,-19,-21,-14,-19,-11,-5
1558439250806976,0,0,3,3,-2,0,-1,-2
1558439250806976,1,1,5,4,0,3,0,-2
1558439250822875,0,-3,-9,-2,2,5,5,-1
1558439250822875,0,-1,-6,1,0,5,0,-2
1558439250822875,-2,1,7,4,5,-7,-3,2
1558439250822875,2,0,-5,2,-6,-9,-2,1
1558439250836837,-3,0,0,-17,-2,3,0,-2
1558439250836837,-1,-2,10,18,6,0,-2,-1
1558439250843850,-2,-3,-5,-6,-10,4,0,-4
1558439250843850,-3,-4,-6,-9,-4,0,-7,-4
1558439250858784,5,4,11,13,13,-3,5,6
1558439250858784,-3,-2,-7,-4,-3,0,2,0
1558439250867755,-1,-1,-1,0,-2,-2,-4,-2
1558439250867755,-1,0,8,13,2,2,0,-4
1558439250881718,0,0,-6,-20,-9,-2,-4,-1
1558439250881718,0,-3,-6,-6,-1,-5,0,1
1558439250882715,1,1,-5,-16,-12,-12,-5,-3
1558439250882715,-3,-2,0,3,8,14,3,-1
1558439250896676,-2,-2,0,5,5,7,3,0
1558439250896676,1,1,10,6,-4,-5,-1,-1
1558439250903664,0,-2,1,5,3,-4,0,2
1558439250903664,0,-1,-1,-10,-2,-5,0,1
1558439250918617,-2,0,0,2,-3,-4,-4,-1
1558439250918617,1,1,2,0,7,8,5,-1
1558439250927592,-1,-1,-4,3,-5,3,-1,-5
1558439250927592,0,-1,-12,-19,-3,1,-1,-1
1558439250942552,-2,-2,-5,-3,-2,-10,-4,-2
1558439250942552,-1,1,6,-2,-3,0,1,0
1558439250942552,1,2,10,5,6,2,3,3
1558439250942552,1,0,-4,5,3,0,0,-1
1558439250956516,-7,-4,-2,0,-12,-6,-6,-5
1558439250956516,-1,-2,-3,-7,3,5,0,0
1558439250964494,0,0,0,1,4,5,2,-1
1558439250964494,-3,-1,5,2,-6,-9,-6,-3
1558439250978457,-4,-4,-5,-7,-9,-5,-5,-4
1558439250978457,-1,2,3,5,-2,-6,-1,-2
1558439250987432,-1,-1,8,11,10,-2,4,-1
1558439250987432,0,-4,-14,-11,-6,3,-2,-2
1558439251002399,-1,-1,-4,-7,2,5,2,0
1558439251002399,-1,-2,-1,8,-2,-4,-2,-3
1558439251002399,3,1,-7,-10,-1,10,6,3
1558439251002399,2,2,6,6,2,-9,0,1
1558439251016355,-1,-1,8,8,-1,5,1,1
1558439251016355,-2,-4,-13,-6,-6,-3,-3,-1
1558439251024378,-2,-1,5,8,4,-7,-2,1
1558439251024378,0,-1,5,-2,-2,-1,-1,-1
1558439251039294,-2,-3,-2,2,1,2,-6,-5
1558439251039294,2,-3,-10,-8,-5,-8,-2,-1
1558439251047271,-3,-2,-3,-2,-1,3,1,-2
1558439251047271,-3,-1,3,2,1,2,3,0
1558439251062234,2,-2,-3,-7,2,-4,-2,-2
1558439251062234,-1,-2,-5,-2,-10,-6,-5,-1
1558439251063231,1,1,6,16,11,13,1,1
1558439251063231,-2,0,-14,-19,-1,-7,-1,1
1558439251076262,0,2,8,7,10,14,8,1
1558439251076262,-4,-1,5,-2,-6,-6,-8,-4
1558439251084176,-1,-1,-9,-12,-9,-10,-4,0
1558439251084176,-3,-4,5,7,-4,-3,-2,-2
1558439251099136,0,-4,-7,-5,2,3,-2,-2
1558439251099136,0,0,2,9,5,2,0,2
1558439251107114,3,3,7,4,2,-6,4,0
1558439251107114,-1,-2,3,3,-4,-2,-2,-2
1558439251122099,1,0,-10,-1,-1,-4,0,0
1558439251122099,1,0,7,5,2,6,0,0
1558439251123070,-1,-4,-5,-4,-3,-5,-3,-3
1558439251123070,-3,-2,-10,-6,-7,-7,-4,-1
1558439251137033,-1,-1,4,4,-4,-6,-5,-2
1558439251137033,0,0,-6,-3,10,18,7,0
1558439251144075,1,-3,-4,-7,-5,-6,-1,1
1558439251144075,-1,-3,-1,2,0,-7,-3,0
1558439251159034,-1,1,6,10,2,0,3,-1
1558439251159034,-3,-2,-9,-13,-9,-9,-5,-5
1558439251167019,-2,-1,8,5,-4,-2,-6,-5
1558439251167019,1,-2,-8,-7,3,8,3,0
1558439251182929,-1,-2,-4,0,1,4,4,0
1558439251182929,2,-1,4,3,5,-13,1,1
1558439251182929,-4,-2,-3,-4,-3,4,-2,-3
1558439251182929,0,1,4,4,-5,-5,-3,1
1558439251196874,2,3,-2,1,-4,-6,-3,1
1558439251196874,-1,-2,-5,-13,-2,0,1,-1
1558439251203955,-4,-3,-7,-8,-2,0,-5,-2
1558439251203955,0,0,3,7,1,5,-2,-2
1558439251227793,-2,-2,-2,-9,-5,-8,0,1
1558439251227793,0,-2,1,2,2,3,1,0
1558439251228790,3,0,1,5,5,-1,2,-1
1558439251228790,0,0,6,4,-4,-8,-3,0
1558439251242755,-5,-3,-2,-11,-3,0,-2,-4
1558439251242755,-3,-3,3,4,-8,-9,-9,-2
1558439251242755,-3,-1,-13,-9,-2,6,3,0
1558439251242755,-2,-2,9,11,8,4,8,0
1558439251257716,0,-1,0,7,-1,-6,-1,1
1558439251257716,-2,-1,5,0,-1,6,-3,-2
1558439251264713,-3,-4,-7,-3,-6,-5,0,-3
1558439251264713,1,0,-9,-9,-7,-9,-6,-4
1558439251279668,3,3,7,3,12,6,2,2
1558439251279668,-1,0,-8,3,1,6,2,-1
1558439251287630,-2,-2,-2,-4,-8,2,-3,-2
1558439251287630,-1,0,2,-2,0,1,-1,-3
1558439251302590,-1,-1,6,12,2,-1,-2,-2
1558439251302590,1,1,-4,-5,-5,-3,-1,-1
1558439251302590,0,-2,1,3,2,-5,1,2
1558439251302590,0,-1,-7,-13,-3,-8,-2,-1
1558439251316583,1,-1,1,8,-6,-2,-3,-2
1558439251316583,1,-1,2,1,-5,-7,-4,-3
1558439251323534,-1,0,-3,-10,4,4,2,1
1558439251323534,-2,0,2,18,7,6,1,1
1558439251340488,-3,-2,-4,-21,-2,-4,1,0
1558439251340488,-2,0,-11,-12,-1,6,2,-1
1558439251347469,0,1,4,3,-4,-5,-5,-1
1558439251347469,-1,-1,5,3,-1,3,-1,-1
1558439251361784,-2,-2,-6,-3,-6,-4,-5,-2
1558439251361784,0,-2,9,7,-4,0,-3,-3
1558439251370423,-1,-4,-17,-8,-3,-1,-1,-1
1558439251370423,-3,0,1,-4,1,2,0,0
1558439251376768,0,2,-2,-1,-1,-6,-1,2
1558439251376768,-1,0,6,5,5,-6,-2,-4
1558439251384371,1,-1,-6,-2,0,1,0,1
1558439251384371,-3,0,1,4,0,1,4,0
1558439251399516,-2,-1,-7,-16,-9,-1,-1,-2
1558439251399516,-2,-5,0,3,-2,0,-5,-1
1558439251407499,1,-1,3,-9,-13,-19,-10,-1
1558439251407499,-3,-5,-7,-5,4,7,1,0
1558439251421549,-1,1,3,8,9,7,3,2
1558439251421549,-1,1,-2,-2,-3,-5,2,1
1558439251430380,0,-2,3,2,11,20,7,2
1558439251430380,0,-1,-1,-2,-8,-7,-5,-4
1558439251436232,-3,-4,-6,-3,-4,1,-5,-5
1558439251436232,-2,-2,-2,-3,-3,2,1,-1
1558439251444472,-1,0,5,7,1,-10,-2,-1
1558439251444472,2,-1,-1,-2,5,4,1,3
1558439251459333,-1,-2,-4,1,1,0,5,2
1558439251459333,0,-2,-4,-6,0,-15,-2,0
1558439251466387,-1,-1,0,-2,-6,1,-4,-6
1558439251466387,-1,-1,-2,-2,1,2,-2,-3
1558439251482209,-1,-2,-1,-1,-7,-3,-3,-4
1558439251482209,-1,0,0,1,-2,8,2,-1
1558439251490289,-3,-2,4,4,5,6,2,0
1558439251490289,1,-1,-5,-5,-1,-7,3,4
1558439251505048,2,-2,3,3,-2,-4,-3,0
1558439251505048,-2,-2,-4,-2,1,0,1,-2
1558439251505048,-2,-2,3,-5,-4,-1,-4,-4
1558439251505048,-2,-3,-2,8,-4,-2,-2,-4
1558439251519011,0,-2,-4,-3,1,-2,2,4
1558439251519011,-1,-1,-4,-11,1,-5,-2,0
1558439251525994,0,3,11,21,4,-4,-1,0
1558439251525994,-1,-1,-1,-12,-1,7,-2,-3
1558439251550204,-2,-7,-5,-3,-3,1,-1,-2
1558439251550204,-1,1,3,4,8,11,5,2
1558439251550929,0,0,3,7,0,-8,-1,-1
1558439251550929,0,0,-4,-8,-5,-5,-5,-3
1558439251564889,0,0,1,3,-4,-3,-3,-2
1558439251564889,4,0,5,3,-2,1,-2,-1
1558439251566015,-4,-4,-9,-16,-9,-8,-2,-1
1558439251566015,3,3,9,16,13,4,8,5
1558439251579176,1,-1,-3,-20,-3,-5,-3,-1
1558439251579176,-3,-4,-7,-3,-4,-4,-1,-2
1558439251587144,-2,2,-1,1,5,12,4,-1
1558439251587144,-2,-3,-7,-11,-5,0,-2,-4
1558439251601868,-2,-3,-5,1,-2,-2,-1,-2
1558439251601868,-1,-1,-1,-1,-8,-13,-6,-3
1558439251610017,1,-1,-6,-10,1,2,-3,0
1558439251610017,0,0,3,10,2,5,3,1
1558439251624804,-1,2,8,11,7,10,3,-1
1558439251624804,-1,-2,-13,-12,-4,-1,2,-1
1558439251625801,-3,-4,-6,-5,-7,-10,-3,-4
1558439251625801,-1,0,2,2,0,9,0,0
1558439251640765,-2,0,3,3,2,-5,-1,3
1558439251640765,-1,-1,-1,2,-6,-9,-3,1
1558439251647010,-1,-4,-8,-1,-2,3,2,-1
1558439251647010,-2,0,3,1,-2,-8,-4,-3
1558439251661973,-2,-4,-10,-10,-1,3,3,0
1558439251661973,-3,1,10,14,1,-3,-5,-1
1558439251669919,0,-1,4,-2,2,3,1,0
1558439251669919,-2,-1,-1,-1,1,4,5,0
1558439251684648,-3,-1,2,12,-2,-4,-5,-4
1558439251684648,2,3,4,0,7,5,4,3
1558439251685645,0,-2,-6,0,-5,-5,-4,-3
1558439251685645,0,-2,-6,-15,-9,-12,-3,0
1558439251699721,0,1,6,6,3,2,2,1
1558439251699721,-1,-2,-4,-6,0,5,2,-2
1558439251706588,-2,-2,-4,-3,-1,-5,-3,-1
1558439251706588,0,1,-2,1,-2,-3,4,2
1558439251721546,-1,1,1,5,0,0,-3,-2
1558439251721546,-2,-1,-2,2,-4,2,-3,-4
1558439251729525,-1,-2,-5,-10,-3,2,-1,-1
1558439251729525,0,-5,-7,-9,-16,-17,-13,-5
1558439251744485,-1,-4,-4,-10,-2,7,5,-2
1558439251744485,2,1,4,4,10,9,8,5
1558439251745483,-1,1,8,9,2,3,1,0
1558439251745483,1,0,4,6,3,2,-1,-1
1558439251759660,-1,-2,-6,-5,-9,-6,-11,-5
1558439251759660,-2,-3,0,5,-5,-11,-5,-1
1558439251766660,-2,-2,-14,-13,-7,3,0,-2
1558439251766660,1,3,3,5,9,10,10,2
1558439251781612,-1,1,3,3,3,-12,-1,0
1558439251781612,-1,-2,0,-2,-6,-4,-7,-1
1558439251790375,-2,-2,4,1,4,2,2,0
1558439251790375,-3,-2,-1,8,1,9,-2,-1
1558439251804358,2,-1,1,1,-2,-2,1,0
1558439251804358,0,0,-1,-5,-6,-12,-8,-3
1558439251805324,2,1,-2,-6,-6,-5,0,2
1558439251805324,1,1,7,5,11,9,5,1
1558439251819316,-2,-2,-3,-5,3,1,-1,0
1558439251819316,-1,-2,-4,-3,-5,0,-2,-4
1558439251826501,-1,0,2,4,0,4,-5,-2
1558439251826501,-1,0,-5,-8,-10,-15,-9,-2
1558439251841257,-2,0,1,0,-1,-2,2,0
1558439251841257,-2,-3,0,-1,0,6,0,-2
1558439251850242,-1,-1,-2,0,-5,2,-1,-2
1558439251850242,-3,-6,-12,-8,-8,-4,-6,-1
1558439251865412,0,0,0,0,5,6,3,3
1558439251865412,0,0,0,6,9,2,6,2
1558439251865412,-1,0,1,-4,-2,-5,-1,1
1558439251865412,0,-1,2,-2,-5,-4,-1,-1
1558439251879388,-3,-3,-12,-10,-10,2,-7,-5
1558439251879388,-2,-2,-3,-4,1,3,2,0
1558439251887266,2,2,1,8,2,-6,-1,0
1558439251887266,0,1,-3,-11,2,-6,-2,1
1558439251901069,2,0,12,19,4,-2,-2,1
1558439251901069,-3,-1,-14,-33,-4,5,0,-1
1558439251910042,-3,-5,-4,3,-1,3,-3,-3
1558439251910042,-1,-1,-1,-1,-8,-4,-5,-2
1558439251925229,0,-1,0,-4,-1,-6,-1,-2
1558439251925229,0,1,4,11,3,0,-1,0
1558439251925229,-1,1,6,1,4,5,4,1
1558439251925229,-2,-1,-8,-11,-4,-13,2,0
1558439251938974,-4,-4,-1,2,1,3,-1,-2
1558439251938974,0,0,-3,-10,-5,2,-1,-1
1558439251946943,-1,0,-5,-4,2,5,1,-1
1558439251946943,-1,-2,8,15,4,-3,-1,1
1558439251962275,-2,-1,-5,-17,-8,-4,-5,-1
1558439251962275,0,-2,5,9,2,-2,-2,-2
1558439251970302,-2,-4,-8,-8,-10,-10,-3,-2
1558439251970302,-1,-1,-4,-11,-4,-1,-1,0
1558439251984844,-1,-3,-4,1,-4,-3,-1,-1
1558439251984844,0,1,10,4,4,0,0,-1
1558439251984844,-2,1,-2,-3,4,2,6,-1
1558439251984844,-2,-2,-10,3,-5,-3,-1,-3
1558439251999170,-1,-1,-5,-15,1,6,2,1
1558439251999170,-1,-3,-2,3,-3,-1,-3,-1
1558439252007104,-1,-2,6,4,-7,-10,-10,-3
1558439252007104,-4,-1,2,1,1,-2,-5,-3
1558439252022022,2,1,4,9,8,9,9,1
1558439252022022,-3,-1,-3,-1,-1,-3,0,-1
1558439252030013,1,3,6,13,9,4,2,2
1558439252030013,1,-2,-1,-16,-6,-2,-3,-2
1558439252044924,-2,-3,-4,0,-10,-5,-8,-5
1558439252044924,0,-1,-1,4,-2,-3,2,0
1558439252045682,-3,-4,-8,-11,-5,-3,0,-4
1558439252045682,-2,1,5,6,11,13,10,3
1558439252059742,-2,2,4,3,0,-11,-5,-4
1558439252059742,0,-1,-2,4,-1,10,0,-1
1558439252066658,0,0,2,0,-2,-1,-3,-3
1558439252066658,-3,-2,-10,-5,-6,-3,-5,-3
1558439252081582,0,3,-4,-4,-4,-7,-2,0
1558439252081582,-2,-3,0,1,4,-2,0,0
1558439252089593,-1,1,0,-1,4,1,5,2
1558439252089593,1,-1,6,3,0,0,1,-1
1558439252104520,0,-2,-1,5,1,7,-2,-1
1558439252104520,-2,-1,-3,-5,-7,-4,-2,-2
1558439252105518,2,-1,-3,-8,2,-5,-1,2
1558439252105518,2,-1,7,15,4,10,0,-1
1558439252118485,0,-1,3,-8,-3,-2,2,3
1558439252118485,-2,-4,-15,-15,-1,-4,0,-2
1558439252126462,0,-4,-5,-3,-2,-3,-2,-2
1558439252126462,0,-1,-3,-4,-4,-7,-5,-2
1558439252142456,-5,-3,-1,3,-5,-5,-7,-4
1558439252142456,-1,1,2,1,6,8,3,1
1558439252149892,0,0,6,4,-3,-5,1,2
1558439252149892,1,1,1,2,8,4,4,2
1558439252165503,3,4,6,2,0,-2,-6,-3
1558439252165503,-6,-9,-11,-1,-13,-3,-8,-6
1558439252165503,-3,-3,-3,-5,-2,2,-3,-4
1558439252165503,-1,-1,-3,-6,-8,-11,-2,-1
1558439252179647,1,0,5,5,3,1,1,2
1558439252179647,1,0,-4,-7,-1,-8,1,-1
1558439252186648,-1,2,5,9,9,4,6,2
1558439252186648,-4,-1,0,0,0,0,-4,-4
1558439252201656,-4,-1,-5,-7,-3,-2,-1,-1
1558439252201656,-1,-3,-2,-2,-9,-12,-9,-2
1558439252209969,-5,-5,-9,-10,-9,0,-6,-5
1558439252209969,-1,-1,-4,-4,-4,-5,-2,0
1558439252224944,-3,-1,-1,3,10,3,4,0
1558439252224944,2,4,6,-3,6,8,5,4
1558439252225595,1,0,1,2,-3,-10,-3,0
1558439252225595,-1,0,6,10,2,1,-2,-1
1558439252239767,-1,-4,-7,0,-3,1,2,-1
1558439252239767,-2,-2,2,-1,-2,3,-1,0
1558439252246874,0,0,-8,-2,-1,1,-3,0
1558439252246874,-2,1,-1,-7,-4,-10,-3,-3
1558439252261800,-3,-3,-4,1,-5,-3,2,-2
1558439252261800,1,0,3,8,13,-1,5,4
1558439252269716,1,0,11,8,6,6,1,2
1558439252269716,1,-1,-5,-8,-3,-1,-1,-1
1558439252283704,-1,-4,-8,-12,-1,1,1,-1
1558439252283704,-4,-2,-8,-10,-16,-8,-5,-4
1558439252292692,-4,-4,0,0,-7,-5,-8,-5
1558439252292692,1,-1,-3,1,10,15,6,3
1558439252299658,1,3,6,6,6,3,3,3
1558439252299658,-2,0,9,5,-2,-17,-5,0
1558439252314356,-2,1,5,2,1,0,2,-2
1558439252314356,-3,-4,-4,1,-4,-1,-5,-5
1558439252321338,-1,-5,-11,-11,-2,-2,-4,-4
1558439252321338,-1,-1,0,1,-6,3,-3,-5
1558439252337295,0,0,4,4,2,1,0,-2
1558439252337295,0,-2,-2,-8,-2,-11,-1,2
1558439252344276,0,2,4,3,5,3,1,0
1558439252344276,-2,0,0,1,-1,-6,-3,-3
1558439252368213,-3,-2,1,5,-1,2,1,-1
1558439252368213,-2,-2,-7,-10,-4,-1,-1,-1
1558439252370206,0,1,-1,-3,0,8,4,1
1558439252370206,-1,-3,-6,1,-6,-6,-5,-1
1558439252370206,0,-4,-6,-8,4,6,0,-1
1558439252370206,1,1,4,4,3,-3,3,2
1558439252382283,-1,-2,-2,-1,-4,-6,-5,-4
1558439252382283,2,4,5,0,5,3,1,1
1558439252390456,-2,0,4,9,-6,-5,-5,0
1558439252390456,-2,-6,-16,-23,-11,-1,-7,-5
1558439252404115,0,1,8,8,-2,-7,3,1
1558439252404115,-1,-1,-7,-11,5,5,7,2
1558439252412093,0,-2,-3,-7,-2,3,1,-1
1558439252412093,0,-1,6,8,-1,-1,1,0
1558439252419073,0,0,1,-1,0,-8,-6,0
1558439252419073,0,-2,-1,-4,-2,1,-6,-4
1558439252427176,-1,0,-3,0,0,0,0,-2
1558439252427176,-3,0,-2,-6,-4,4,3,1
1558439252450295,-4,-1,-1,0,2,3,0,-1
1558439252450295,-4,0,3,7,0,-4,1,2
1558439252450991,1,4,-2,-6,1,-6,-2,1
1558439252450991,-3,-2,2,8,3,3,-1,-3
1558439252464258,-2,-4,-1,-3,-4,1,-2,-4
1558439252464258,-1,-3,-12,-8,-5,0,-1,-2
1558439252472972,-2,-2,-5,-7,-3,-8,0,0
1558439252472972,1,1,1,5,1,-3,-1,0
1558439252487892,-2,-2,-3,-2,-6,-4,-5,-1
1558439252487892,0,1,7,12,4,5,1,1
1558439252487892,2,-5,-14,-26,-10,-9,-2,-1
1558439252487892,0,0,2,1,1,-8,-2,-2
1558439252501193,-1,0,0,4,-1,8,2,-2
1558439252501193,-1,-2,-1,-8,-2,-13,-4,-1
1558439252510390,1,3,12,17,7,14,6,3
1558439252510390,-3,-1,-4,-4,-2,-6,-4,-3
1558439252524178,-2,-3,-4,-4,-3,3,-3,-2
1558439252524178,1,0,-2,-2,-2,-1,-2,0
1558439252532109,2,0,7,10,7,5,4,1
1558439252532109,0,2,4,0,0,1,-1,-2
1558439252547359,-2,-1,-3,0,-3,-1,-2,-3
1558439252547359,-2,1,7,3,11,14,5,0
1558439252548069,-2,-1,-12,-16,-17,-19,-12,-5
1558439252548069,-2,-3,-7,0,-2,3,0,-1
1558439252562205,2,1,1,-2,0,-9,-1,2
1558439252562205,0,-4,-9,-5,-2,-3,-3,-1
1558439252570006,-2,-1,11,14,2,0,-2,-3
1558439252570006,-3,-6,-21,-23,-10,-7,-3,0
1558439252592944,0,2,4,6,8,5,5,2
1558439252592944,-2,-1,3,7,0,-4,1,-1
1558439252593944,0,-3,-7,-18,0,9,0,-1
1558439252593944,-1,0,6,14,-6,-3,-7,-3
1558439252607905,1,1,-2,-7,-2,0,4,2
1558439252607905,-3,-2,-2,5,2,4,-3,-3
1558439252607905,-3,-3,-7,-5,-7,-3,-6,-2
1558439252607905,0,1,9,12,12,14,10,4
1558439252621871,2,-1,-7,-20,-4,-15,-7,-1
1558439252621871,0,0,-1,-3,-1,4,3,0
1558439252646021,-2,-1,1,5,-8,-10,-5,-2
1558439252646021,-3,-1,6,4,9,11,0,0
1558439252646805,-2,-3,6,18,-11,-7,-5,-1
1558439252646805,0,1,-12,-31,-5,-9,-2,1
1558439252660048,1,-2,1,11,2,5,2,-4
1558439252660048,2,1,7,3,5,4,4,1
1558439252667019,-2,-4,-7,-6,-6,-7,-6,-3
1558439252667019,-1,-1,13,11,2,5,2,0
1558439252667748,-2,0,-4,-6,6,7,2,3
1558439252667748,-1,-2,-9,-10,-2,2,-3,-3
1558439252682965,1,1,11,13,14,7,8,3
1558439252682965,0,-2,-3,-3,-8,-4,-3,-1
1558439252689966,-1,-4,-7,-11,-7,-12,-5,-2
1558439252689966,0,0,2,4,-2,-4,-2,0
1558439252704762,-1,-2,-6,-11,-2,3,-4,-2
1558439252704762,-2,1,1,4,-5,0,-3,-4
1558439252712918,1,1,11,16,13,-3,3,1
1558439252712918,-2,-2,-9,-11,-3,-4,2,-1
1558439252727883,-1,1,0,-3,0,1,3,1
1558439252727883,-2,-3,-3,-9,-6,0,-5,-3
1558439252727883,-4,-1,-2,1,-7,0,-4,-3
1558439252727883,2,0,2,8,0,-4,0,-1
1558439252750523,-5,-1,1,3,9,9,5,2
1558439252750523,0,0,-6,1,5,10,3,0
1558439252750523,1,0,2,-1,-1,-3,-3,-2
1558439252750523,0,-2,-2,-6,-7,-8,-2,0
1558439252763547,-3,-4,-1,3,-5,-3,-4,-5
1558439252763547,-2,0,17,20,-1,-1,-5,-1
1558439252772522,-1,-6,-16,-23,3,11,5,1
1558439252772522,0,1,-3,1,-2,-7,0,-1
1558439252787865,2,3,2,4,-4,-14,-3,-1
1558439252787865,-3,-3,3,3,-1,-4,-1,-1
1558439252787865,2,1,-11,-19,-2,-9,1,1
1558439252787865,-3,-1,-3,-2,-5,3,-4,-4
1558439252801388,-2,-5,-9,-18,-6,-6,-2,-2
1558439252801388,1,0,6,13,13,12,5,2
1558439252810523,-1,2,16,18,4,2,3,2
1558439252810523,-3,-2,-17,-17,-7,-7,-7,-1
1558439252824728,-2,-2,1,10,-2,1,-4,0
1558439252824728,1,0,-1,-4,5,6,5,-1
1558439252832748,-1,-2,-3,-9,-3,2,-2,0
1558439252832748,0,-2,5,4,-5,-8,-4,-2
1558439252847744,-1,0,4,5,-2,-7,-4,-3
1558439252847744,0,-2,-7,-5,-4,-7,-1,0
1558439252847744,1,2,6,7,3,-1,-3,-2
1558439252847744,0,0,-2,-1,12,13,4,0
1558439252870672,-4,-3,-11,-8,-17,-19,-8,-5
1558439252870672,-4,-2,-1,-1,1,-1,1,2
1558439252871202,0,3,0,-4,-3,-5,-3,-2
1558439252871202,-4,-4,-3,1,-3,-3,-2,-1
1558439252884169,0,-1,-8,-6,-6,0,-4,-4
1558439252884169,0,0,-2,-2,7,10,5,2
1558439252892482,-2,-4,1,13,-2,0,-2,-1
1558439252892482,4,3,3,-4,3,-8,6,1
1558439252916125,-2,-1,5,3,1,-4,-4,0
1558439252916125,-1,-1,-11,-4,-5,0,-7,-4
1558439252916125,-4,-1,-6,-12,-7,-5,-5,-3
1558439252916125,-1,-2,1,4,-2,-12,-5,0
1558439252922172,2,2,5,1,10,15,10,2
1558439252922172,2,0,7,1,3,2,1,1
1558439252937030,-2,-3,-11,-4,-6,-6,-4,-3
1558439252937030,-4,-2,-2,-4,-2,5,-2,-3
1558439252944040,-1,-1,-4,-4,0,3,2,1
1558439252944040,-1,-4,1,-2,1,3,-2,-3
1558439252951993,0,-3,-8,-5,-7,-10,-3,-2
1558439252951993,0,3,11,14,11,12,11,4
1558439252966945,-1,-2,-12,-15,0,-7,0,-1
1558439252966945,2,1,-9,-4,-9,-6,-5,-2
1558439252967942,-4,-5,1,-4,-4,-4,-7,-4
1558439252967942,0,2,4,2,-1,7,-1,-1
1558439252983157,1,1,0,5,10,9,2,2
1558439252983157,-2,0,2,4,-4,-13,0,-1
1558439252989886,-1,-1,-7,-17,-5,-11,-4,-1
1558439252989886,-2,-2,2,9,-8,-9,-9,-3
1558439253003903,-2,-4,5,0,-1,9,0,-2
1558439253003903,0,-1,-5,-9,3,-2,1,2
1558439253013102,0,1,11,21,7,8,2,-1
1558439253013102,-2,-3,-9,-8,-4,6,1,-3
1558439253028273,-4,-2,3,0,-4,-3,-7,-1
1558439253028273,-3,-3,-4,-2,-15,-11,-8,-2
1558439253028273,2,3,6,16,19,10,16,6
1558439253028273,1,1,1,-8,2,-7,2,2
1558439253041249,-1,-3,-4,-4,-5,0,-3,-4
1558439253041249,-1,1,2,2,0,3,-4,-3
1558439253050501,0,0,-4,-7,-3,-6,-1,2
1558439253050501,-1,-1,0,2,-4,-1,-5,-3
1558439253064546,0,-2,-2,-6,4,8,3,-1
1558439253064546,1,-1,4,4,-7,-25,-5,0
1558439253072511,-2,-4,-10,-6,2,2,1,-1
1558439253072511,1,-1,5,4,-1,-1,-2,-2
1558439253087476,-3,-1,-13,-14,-2,6,3,2
1558439253087476,-2,1,2,0,-3,-7,-3,-2
1558439253088161,-4,-3,-5,-3,-4,3,-1,-2
1558439253088161,-1,-1,10,7,-4,-3,-2,0
1558439253101125,-1,-2,-5,0,-4,-3,-5,-3
1558439253101125,-3,-1,-6,-10,2,3,4,-1
1558439253110134,1,3,8,5,2,3,3,1
1558439253110134,-3,-2,-4,1,2,5,0,-1
1558439253125098,0,-3,-1,-2,-8,-12,-4,-3
1558439253125098,1,0,2,-5,-1,2,-3,-1
1558439253132272,-1,-3,-4,-11,-3,-4,-4,-3
1558439253132272,-1,-2,-6,0,-3,-3,-3,-2
1558439253147001,0,0,3,-3,-2,-11,0,2
1558439253147001,-2,-2,-8,-6,-1,1,1,-2
1558439253147998,-1,0,6,11,-6,-3,-3,-3
1558439253147998,-2,-5,-12,-9,-12,-13,-5,-2
1558439253169942,-1,0,3,5,8,12,4,2
1558439253169942,-3,-2,2,4,-1,-11,-4,0
1558439253176922,-1,1,0,-3,-3,6,-1,0
1558439253176922,-1,1,1,1,4,-2,0,-1
1558439253183901,1,1,1,4,1,2,1,0
1558439253183901,1,0,-1,-5,-2,0,-2,-1
1558439253191882,-1,-3,3,5,2,3,-1,-1
1558439253191882,0,0,-5,-20,-6,0,-2,-3
1558439253215962,1,2,-1,-4,8,6,4,1
1558439253215962,-3,-3,1,8,-1,7,2,1
1558439253215962,0,-2,-8,-16,-8,-16,-8,-1
1558439253215962,-2,-2,11,15,3,5,0,-2
1558439253222149,1,0,-2,-6,-3,-11,-3,0
1558439253222149,-1,-2,-3,1,1,7,2,1
1558439253237605,0,2,-6,4,5,8,4,2
1558439253237605,-2,-1,6,6,-2,-2,-2,-2
1558439253244564,-1,-1,-1,-3,-6,-7,-1,-2
1558439253244564,-2,0,0,-2,-4,-4,-4,-2
1558439253260474,-2,-2,1,1,7,10,5,-1
1558439253260474,0,-1,-7,-8,2,4,0,1
1558439253267304,-2,-2,4,12,-9,-10,-10,-5
1558439253267304,1,0,-6,-14,9,0,9,4
1558439253275087,-2,1,1,0,0,4,1,-1
1558439253275087,-1,-1,1,3,-1,-1,-1,0
1558439253282216,-2,-3,-5,-2,-4,0,-1,-3
1558439253282216,-1,-2,6,4,-5,-3,-6,-3
1558439253289355,0,2,8,11,8,2,2,0
1558439253289355,-1,-3,-13,-10,1,-1,2,3
1558439253304221,3,0,-2,-1,1,-6,-2,-2
1558439253304221,0,-1,-7,-13,-12,-3,-2,-2
1558439253312216,-1,-1,5,6,-2,-1,-3,-1
1558439253312216,-2,-2,-3,-14,4,14,5,0
1558439253327182,1,-1,6,4,5,-7,1,4
1558439253327182,-2,-3,-2,9,2,-1,-3,-2
1558439253334878,-2,-1,-3,-10,-10,-3,-4,-1
1558439253334878,-1,-3,-3,0,-4,-1,-5,-5
1558439253349840,-1,1,-7,-7,3,9,5,2
1558439253349840,-2,-2,5,7,4,-3,0,-2
1558439253349840,3,-1,-2,-1,-2,-9,1,1
1558439253349840,-3,-3,-10,-6,-7,-3,-3,-1
1558439253363832,-5,-5,-8,-13,-6,-1,-6,-5
1558439253363832,-1,-2,1,13,-3,-3,-2,-2
1558439253372976,-1,0,3,-11,6,9,4,2
1558439253372976,0,2,-1,-6,1,-10,3,2
1558439253387054,0,2,3,-2,-6,-9,-1,0
1558439253387054,-1,-4,1,9,-1,2,-6,-5
1558439253395008,-1,-1,-8,-5,4,13,5,-2
1558439253395008,1,0,8,7,4,-5,0,3
1558439253409978,-3,-1,-2,-6,-3,-2,-5,-1
1558439253409978,0,-1,0,-3,4,4,1,1
1558439253410677,0,-2,-2,6,-5,-4,-4,0
1558439253410677,-5,-2,5,0,-7,3,-1,-2
1558439253424728,-2,-2,2,10,0,-1,-3,-2
1558439253424728,-2,0,-7,-8,-5,-4,1,-2
1558439253432927,0,-2,-2,-2,1,-4,-2,1
1558439253432927,1,-1,-4,-4,-4,0,-2,-2
1558439253455838,0,-2,0,7,-2,-1,-2,-2
1558439253455838,2,0,-1,-6,1,-2,3,2
1558439253455838,1,-1,-1,-7,1,-4,2,2
1558439253455838,-1,-2,2,10,2,0,-2,-3
1558439253469809,-1,-2,1,2,1,10,0,-3
1558439253469809,0,-1,-4,-7,-4,-7,-3,0
1558439253470516,-3,-3,3,10,-5,-2,-2,-4
1558439253470516,-3,-7,-11,-7,-10,-9,-5,-4
1558439253483784,-3,-5,-13,-9,1,1,1,-1
1558439253483784,3,5,8,6,16,8,9,7
1558439253492718,-3,-3,-8,-4,2,-5,-1,0
1558439253492718,3,1,-3,1,-2,3,-2,-2
1558439253506678,0,-1,2,1,-8,-3,-5,-2
1558439253506678,-2,-4,-5,-10,-13,-3,-5,-3
1558439253515412,-1,-1,-2,-3,-10,-9,-8,-3
1558439253515412,-1,1,6,4,4,2,-1,-1
1558439253529621,1,2,7,7,4,1,8,3
1558439253529621,-2,-1,-11,-13,4,-1,3,2
1558439253530359,-2,-1,-3,3,1,5,-1,-1
1558439253530359,-4,-1,0,-1,0,-5,-2,0
1558439253544582,0,0,3,0,-1,0,0,-1
1558439253544582,-1,0,6,7,-2,3,-1,-3
1558439253552296,-1,1,-6,-6,-6,-5,-3,-3
1558439253552296,-2,-4,-1,-2,0,-2,-3,-2
1558439253566258,1,1,1,3,1,8,1,1
1558439253566258,0,-1,2,0,0,-7,-1,2
1558439253574271,-2,-5,-12,-1,-2,6,1,-3
1558439253574271,2,-1,-1,-1,0,-4,1,0
1558439253590332,-1,-2,-1,-5,1,0,-1,0
1558439253590332,-2,-1,-1,-3,-8,-8,-8,-2
1558439253590332,-1,-1,12,11,-3,3,-3,-3
1558439253590332,-4,-3,-11,-11,-10,-12,-9,-4
1558439253604519,0,2,2,-4,6,2,6,2
1558439253604519,2,1,0,6,5,5,3,-1
1558439253612486,0,1,-1,3,-1,-3,-3,0
1558439253612486,-1,0,8,2,0,7,3,-2
1558439253626479,-1,-2,-6,-7,-6,-5,-4,-2
1558439253626479,-3,-7,-4,1,-1,-4,-7,-5
1558439253634076,2,4,11,5,3,-3,0,0
1558439253634076,1,3,3,-2,0,2,2,2
1558439253650278,-7,-8,-23,-25,-11,-5,-9,-6
1558439253650278,-5,0,3,0,0,8,5,2
1558439253650278,-1,-1,-2,-4,-1,-11,0,1
1558439253650278,1,0,8,11,10,2,0,0
1558439253664348,0,0,2,10,-1,-1,1,-1
1558439253664348,0,-1,-3,-13,-7,-7,-8,-2
1558439253672241,-3,-3,-5,-6,-7,-1,-3,-3
1558439253672241,1,-1,8,6,0,0,1,2
1558439253687201,0,-1,-6,-12,-1,0,-1,0
1558439253687201,-4,-3,-2,2,4,7,1,-1
1558439253695259,-1,-4,-4,-4,0,-5,-3,1
1558439253695259,1,2,-3,0,1,-2,6,3
1558439253709877,0,1,4,6,0,2,0,0
1558439253709877,0,-1,0,0,-5,1,-2,-1
1558439253710953,-2,-2,8,13,4,4,-2,-2
1558439253710953,-3,-3,-16,-24,-14,-9,-3,-4
1558439253723930,-2,0,2,4,6,-7,-2,-3
1558439253723930,2,0,-1,3,0,5,3,0
1558439253732942,-1,-2,0,2,-5,-10,-3,-1
1558439253732942,0,1,2,0,8,10,3,0
1558439253747035,-3,-1,0,0,0,0,-1,-2
1558439253747035,1,-2,-1,6,-6,-7,-8,-1
1558439253754754,-1,-1,-2,-19,-11,-10,-7,-4
1558439253754754,-2,-3,1,2,5,2,1,1
1558439253769715,2,2,-1,-3,7,3,8,4
1558439253769715,-4,-1,0,-1,-3,5,-2,-4
1558439253770712,-1,-2,-9,-2,-2,-4,1,0
1558439253770712,0,-1,-2,0,-1,5,0,0
1558439253783677,-1,-1,11,11,0,0,-2,-2
1558439253783677,0,-1,-1,-4,-3,-4,-2,-2
1558439253793003,1,0,4,4,-3,-3,-4,-2
1558439253793003,-4,-2,-10,-10,-7,0,1,-2
1558439253806975,-1,-1,0,11,3,2,4,-1
1558439253806975,0,1,4,0,6,-3,4,2
1558439253814954,-1,-1,1,1,5,3,4,1
1558439253814954,1,-1,0,-1,-4,-11,-7,-2
1558439253829554,-3,-4,-5,-4,-7,-1,-5,-1
1558439253829554,-3,0,-3,2,-6,-1,-1,-2
1558439253830554,-2,-2,7,-1,1,-3,-7,-3
1558439253830554,-2,-3,-9,0,2,10,5,0
1558439253844633,1,1,1,0,1,-6,0,2
1558439253844633,-1,-1,-4,-9,3,-1,4,0
1558439253851496,-1,-1,-1,-3,-3,1,1,2
1558439253851496,-1,-1,2,4,-2,-2,-3,-2
1558439253866808,-2,-2,0,2,-1,6,-2,-3
1558439253866808,-2,-3,2,6,-2,-4,-5,-3
1558439253874574,0,1,6,2,1,1,0,-2
1558439253874574,-1,-2,-8,-4,2,-2,-1,1
1558439253889707,-2,-4,-11,-17,-8,-11,-1,2
1558439253889707,0,-2,-5,-5,0,5,0,1
1558439253890391,-1,0,-2,3,6,8,6,2
1558439253890391,-1,-2,7,4,-1,-6,-5,-2
1558439253904745,0,1,4,1,-3,-5,-1,-2
1558439253904745,-1,-2,-6,-13,-7,-4,-2,-3
1558439253912784,0,-2,3,0,2,5,3,1
1558439253912784,-3,-3,-6,11,3,0,-5,-3
1558439253926761,0,-2,-10,-14,-6,-11,-4,-1
1558439253926761,-2,-3,-1,1,-3,-4,-4,0
1558439253934430,0,-1,-8,-8,-1,4,0,0
1558439253934430,4,3,7,2,0,-6,2,0
1558439253949696,0,0,10,13,-1,4,-2,-3
1558439253949696,0,-2,-13,-15,-6,-5,-2,-2
1558439253950378,-1,-2,13,23,6,1,-3,-2
1558439253950378,-3,-5,-7,-10,-7,2,-4,-3
1558439253964686,-3,-3,-13,-9,6,10,2,-2
1558439253964686,2,4,8,-1,2,-13,4,2
1558439253971673,-2,0,-12,-11,-8,-4,-1,-1
1558439253971673,-3,-1,5,9,0,4,0,-3
1558439253986631,-1,1,8,8,0,1,-3,0
1558439253986631,-1,-3,-7,-2,-2,-3,-5,-2
1558439253994923,-3,-2,-4,-5,-4,1,1,1
1558439253994923,2,0,2,-1,1,2,-2,2
1558439254009894,0,-3,-1,3,-5,-9,-2,-1
1558439254009894,-1,0,1,-1,8,15,6,3
1558439254010568,-1,-1,-4,-4,-3,-5,1,-1
1558439254010568,-1,2,5,1,2,1,-2,0
1558439254023641,0,0,7,-2,-2,0,-5,-2
1558439254023641,-1,-1,-5,4,-7,-5,-5,-4
1558439254032822,-3,-2,2,9,2,3,2,-2
1558439254032822,1,2,-10,-24,1,5,4,3
1558439254046806,-1,-1,8,11,1,-5,-4,-3
1558439254046806,1,-3,-4,-11,0,7,3,2
1558439254054764,1,0,-7,-2,-5,-11,-4,-1
1558439254054764,2,-1,1,4,1,4,3,-1
1558439254069718,0,-3,-3,-2,-2,-6,0,0
1558439254069718,-1,1,7,9,2,5,0,-1
1558439254070408,-2,-1,-5,-17,-3,4,0,-1
1558439254070408,-1,-1,0,3,-3,-13,-5,-1
1558439254083667,-1,1,-4,-5,-1,-3,-2,-2
1558439254083667,-2,0,4,7,3,4,2,0
1558439254092646,-1,1,2,2,0,-2,1,1
1558439254092646,-1,-1,-8,-11,-3,-5,1,-1
1558439254106579,-3,-4,-1,0,-7,2,-4,-1
1558439254106579,-3,-3,-11,-13,-6,-10,-5,-3
1558439254115385,-2,-2,4,9,4,8,-1,-3
1558439254115385,-2,-5,-2,-7,-8,-7,-4,0
1558439254129524,1,0,-6,-5,0,0,2,1
1558439254129524,0,-1,8,12,6,1,0,-2
1558439254137493,2,1,-9,-19,-5,-3,-1,2
1558439254137493,-3,-3,-3,0,-4,-3,-2,-2
1558439254144487,1,-2,2,0,-1,2,1,-1
1558439254144487,-1,1,6,7,-8,-4,-5,-4
1558439254152445,-3,-3,-9,-9,5,2,-3,-2
1558439254152445,1,2,4,1,4,-3,3,3
1558439254167150,1,1,5,4,5,2,4,3
1558439254167150,-2,-3,-5,-7,-5,0,-4,-3
1558439254174142,-3,-4,3,7,-12,-5,-7,-5
1558439254174142,-2,-2,-4,-2,1,0,-2,-4
1558439254189089,1,-1,-8,-5,-3,-6,-3,-2
1558439254189089,0,-1,0,8,6,-1,1,1
1558439254198064,0,0,-1,-6,-2,0,0,0
1558439254198064,0,2,8,6,4,-1,3,2
1558439254204048,-1,1,3,3,5,2,-1,0
1558439254204048,-1,-2,-2,1,-2,0,-2,-2
1558439254213026,-2,-2,-5,-3,-9,-9,-7,-3
1558439254213026,0,0,3,5,6,6,0,-1
1558439254226025,-4,-2,-1,-5,-5,-5,-4,-4
1558439254226025,0,0,0,2,-2,1,2,2
1558439254234966,0,2,3,-2,12,11,9,4
1558439254234966,-1,-1,-3,1,-8,-9,-2,-2
1558439254248963,-1,0,6,11,2,-1,-3,-2
1558439254248963,0,-2,-5,-15,-2,-1,-3,-1
1558439254257906,-2,-2,-4,-5,-1,2,3,1
1558439254257906,-1,-1,2,8,2,2,-3,-1
1558439254264376,-1,-3,-2,-2,-4,-4,-3,-1
1558439254264376,-1,0,0,0,5,2,4,3
1558439254273090,0,-2,0,1,-3,-9,-5,-4
1558439254273090,-2,-1,-5,-2,-4,-4,-2,-2
1558439254287334,-1,-2,-7,-9,-1,-3,-3,0
1558439254287334,1,0,7,9,8,8,6,4
1558439254295300,-2,-3,-4,-6,0,-1,-2,0
1558439254295300,-4,-1,9,12,-4,0,-2,-1
1558439254317745,1,-2,-11,-15,-13,-9,-5,-3
1558439254317745,-3,1,7,4,8,14,4,2
1558439254318743,-1,-3,-14,-1,-10,-13,-3,0
1558439254318743,2,0,2,-7,2,-3,0,1
1558439254332708,-4,-1,0,-4,1,1,2,0
1558439254332708,1,-3,-8,0,-12,-13,-8,-4
1558439254333705,-2,0,10,13,10,18,4,-1
1558439254333705,-1,-3,-2,-3,-6,-3,-4,-4
1558439254346722,-1,-2,-6,2,3,8,2,0
1558439254346722,-1,-1,3,-4,5,-1,2,0
1558439254355644,-4,-3,-6,-3,-6,-11,-6,-2
1558439254355644,-2,-2,2,2,1,3,1,-2
1558439254368610,0,0,-1,-10,-2,-4,2,4
1558439254368610,-3,-2,3,8,-2,-2,-3,-2
1558439254377584,0,-2,-8,-14,-12,-11,-5,-3
1558439254377584,-2,1,-7,-4,0,7,1,-4
1558439254392544,-4,0,10,11,6,5,5,1
1558439254392544,-3,-1,-7,-10,-7,-8,-3,-2
1558439254394566,1,0,5,4,-4,-1,0,2
1558439254394566,-2,-5,-5,-4,2,-8,-4,0
1558439254406506,3,2,3,-3,4,11,2,0
1558439254406506,0,-2,-6,-3,-5,-11,-5,-3
1558439254415483,-2,-2,0,-4,-5,0,-4,-3
1558439254415483,-2,-1,2,3,0,4,1,0
1558439254428450,2,1,-1,12,4,-8,1,1
1558439254428450,-4,-2,-4,-16,-4,-5,-1,0
1558439254437425,-2,-2,-1,1,1,-1,-2,-1
1558439254437425,-2,-1,1,-15,-2,-2,-7,-3
1558439254452384,-2,-3,2,17,-9,-4,-4,-4
1558439254452384,2,0,-9,-17,0,2,1,-1
1558439254454379,2,0,7,9,14,13,8,2
1558439254454379,1,-1,-11,-11,-1,-6,-2,2
1558439254466346,-5,-3,-3,-1,-5,0,-6,-4
1558439254466346,-1,0,-3,0,-6,-6,-1,-1
1558439254475323,-2,0,5,10,-2,-7,-5,-3
1558439254475323,0,-1,0,4,2,10,3,1
1558439254489285,0,-3,-7,-8,5,13,7,1
1558439254489285,-1,0,2,9,1,-4,-4,2
1558439254497266,1,2,-1,3,4,-6,2,2
1558439254497266,-2,-2,3,-10,-9,-3,-4,-2
1558439254512225,-5,-3,-17,-27,-9,-2,-1,-3
1558439254512225,0,0,2,-2,2,5,-3,-1
1558439254514221,1,-1,2,0,-2,-3,-1,-2
1558439254514221,1,2,1,4,-1,-1,-1,-2
1558439254526231,-1,0,7,6,5,0,1,-3
1558439254526231,-2,-3,1,11,-3,-1,-2,-2
1558439254535164,-2,-3,-10,-15,-5,-1,-6,-3
1558439254535164,-1,-1,0,1,0,7,-1,-1
1558439254549127,0,-1,2,1,3,-5,-2,2
1558439254549127,0,1,3,0,5,-1,1,-1
1558439254558103,-1,-1,0,1,0,9,4,1
1558439254558103,1,-2,-4,0,-3,-5,-2,0
1558439254573064,0,-1,-5,-2,-3,-2,-2,-2
1558439254573064,-2,-4,-5,-5,-13,-8,-6,-5
1558439254574060,1,3,1,0,9,7,8,3
1558439254574060,-3,-2,7,12,7,-8,3,2
1558439254586028,-2,0,-1,-13,2,4,-1,0
1558439254586028,-4,-6,-9,-13,-11,-2,-4,-5
1558439254595004,-1,-4,-6,-4,-4,1,-1,-1
1558439254595004,-1,0,-6,-3,-3,0,0,0
1558439254608968,-2,1,6,6,-6,-8,-6,-1
1558439254608968,-2,-1,2,6,5,1,-5,-1
1558439254617949,-4,-2,-5,-4,0,1,-3,-3
1558439254617949,2,1,-1,-4,-2,-7,2,1
1558439254631905,0,-1,1,5,3,-1,1,-1
1558439254631905,1,2,1,2,4,4,2,2
1558439254638888,-1,2,2,1,-2,-7,-3,-1
1558439254638888,-2,-3,-4,-12,-7,0,-4,-3
1558439254645866,-1,-3,4,2,-7,-8,-4,-2
1558439254645866,-3,-2,-4,0,-6,1,-1,-3
1558439254654844,3,3,5,9,10,0,2,1
1558439254654844,-2,-2,-1,-4,-1,-3,-3,-2
1558439254668808,2,0,1,8,2,4,-1,1
1558439254668808,0,-1,-3,-18,0,-4,1,1
1558439254677783,-2,-4,-2,0,-8,-6,-5,-3
1558439254677783,-3,0,1,7,4,10,4,-1
1558439254691744,0,0,2,4,5,2,0,-1
1558439254691744,1,-3,-9,-3,-7,-9,-1,-1
1558439254698729,2,4,0,2,1,4,3,1
1558439254698729,-1,-2,-1,-1,1,-1,0,2
1558439254706705,-1,-1,2,3,-4,-1,-5,-4
1558439254706705,3,-1,-4,-2,0,-4,2,-1
1558439254715685,-3,-3,-5,-1,-3,2,-1,-3
1558439254715685,-2,-2,-7,-11,-6,-4,-5,0
1558439254728648,-2,0,-4,-5,-4,2,-2,-1
1558439254728648,-2,2,4,5,5,2,2,1
1558439254737622,-1,-3,3,-4,-6,-4,-2,0
1558439254737622,1,1,4,4,4,-1,3,-1
1558439254751589,-1,-3,-5,12,2,-9,-6,-2
1558439254751589,-2,-4,-8,-17,-14,0,-4,-3
1558439254760563,0,-2,0,2,2,10,-3,-3
1558439254760563,1,0,-9,-10,-1,0,7,1
1558439254766545,3,3,12,8,6,-1,6,3
1558439254766545,-3,-6,-12,-2,3,5,-2,-2
1558439254789483,-3,-3,-1,9,-4,-6,-2,-3
1558439254789483,-3,-4,-10,-20,-10,-1,-8,-4
1558439254790482,-2,0,0,-2,-4,0,-1,-2
1558439254790482,1,5,5,2,1,1,2,1
1558439254797462,0,0,3,3,5,-2,0,0
1558439254797462,1,-2,-1,2,-4,2,-1,-3
1558439254811425,-5,-5,-9,-12,-8,-12,-3,-3
1558439254811425,0,-1,5,16,2,2,-1,0
1558439254820401,-1,-1,-5,-15,4,9,7,0
1558439254820401,-2,1,8,14,-5,-13,-8,-3
1558439254826384,-2,-1,-1,-1,10,27,9,0
1558439254826384,1,-1,1,-1,-3,-5,-3,-2
1558439254835363,-1,-1,1,3,-3,-15,-2,1
1558439254835363,2,0,-1,0,6,4,4,0
1558439254848326,-1,-1,-5,-6,-6,-4,-3,0
1558439254848326,-4,-1,1,0,2,4,-3,-3
1558439254857302,-2,-4,0,0,-7,-8,-8,-5
1558439254857302,-1,-5,-6,-5,-2,8,2,-1
1558439254871266,-1,-2,2,4,3,-5,-1,0
1558439254871266,0,-3,3,2,-5,-4,1,0
1558439254888219,-2,-1,-3,-5,-5,-7,-3,0
1558439254888219,-5,-4,-8,-8,-6,6,-4,-6
1558439254889216,4,0,-3,0,3,-1,4,1
1558439254889216,1,4,15,18,10,7,2,1
1558439254895200,-2,-5,-18,-20,-15,-5,-5,-4
1558439254895200,0,0,5,11,12,5,3,2
1558439254909163,3,3,1,-10,-9,-6,-5,-1
1558439254909163,0,-3,4,-2,2,-1,-2,-3
1558439254918140,0,-3,-13,3,1,3,1,2
1558439254918140,1,0,6,0,1,-3,3,1
1558439254931111,-1,-1,6,8,7,3,0,0
1558439254931111,0,0,-5,-13,-6,-9,-1,-2
1558439254940081,2,0,0,-9,4,11,4,-1
1558439254940081,-2,-3,1,9,-3,-2,-5,-4
1558439254946065,1,1,2,3,-1,-6,-1,-1
1558439254946065,-1,0,0,-6,10,-2,4,4
1558439254955040,-3,-2,0,0,-11,-11,-7,-4
1558439254955040,-2,-1,3,13,-1,1,-3,0
1558439254969003,-2,-1,-3,-12,-3,0,-2,-1
1558439254969003,-1,0,-12,-6,-6,0,-3,0
1558439254977979,-2,-1,2,1,0,-19,-10,-5
1558439254977979,-2,0,-4,2,-3,2,0,0
1558439254990945,0,0,-8,-12,0,6,3,-1
1558439254990945,-3,-5,-11,2,-4,-2,-1,-2
1558439254999921,-1,0,3,2,-4,-2,-4,-2
1558439254999921,-3,-2,1,-1,-2,-1,1,-2
1558439255005905,-1,-1,4,3,6,8,2,1
1558439255005905,0,-3,-6,-4,2,-1,0,-1
1558439255014880,-1,-2,-5,-11,-5,-9,-4,-2
1558439255014880,3,3,4,3,-3,-1,0,-3
1558439255028843,-4,-3,-6,1,-7,-14,-9,-3
1558439255028843,-1,1,1,-5,1,4,-1,1
1558439255037818,-2,0,7,10,9,0,-2,-1
1558439255037818,-2,-4,-8,-19,-11,-14,-6,-3
1558439255051794,2,-1,-18,-14,2,6,9,2
1558439255051794,0,1,9,8,-1,-2,-4,-1
1558439255059760,0,-3,1,-7,0,-4,0,0
1558439255059760,-1,-1,4,4,7,6,1,0
1558439255066741,-2,-3,2,4,-5,-3,-6,-5
1558439255066741,-2,-3,-4,5,-4,-4,-4,-1
1558439255075720,0,1,-9,-7,10,19,9,4
1558439255075720,0,-1,8,9,1,-8,-2,-3
1558439255088683,-5,-4,-4,-3,-4,0,-4,-4
1558439255088683,-2,1,4,1,-3,-3,-5,-3
1558439255097659,1,1,12,15,-2,-4,0,0
1558439255097659,3,0,-13,-8,4,-1,4,4
1558439255111621,-3,-4,-6,4,4,5,0,0
1558439255111621,-3,-4,-4,-8,-3,0,-3,-1
1558439255120599,1,-1,-1,2,-3,1,1,-1
1558439255120599,-1,0,-3,1,1,1,-3,-3
1558439255126582,0,1,7,3,3,-2,0,1
1558439255126582,1,0,5,5,4,-3,3,1
1558439255135558,-2,-2,-9,-10,-5,7,1,-1
1558439255135558,-1,-2,2,4,2,-5,-4,0
1558439255148523,-1,2,4,6,-2,-3,0,-1
1558439255148523,-3,-3,-10,-17,-3,6,1,-3
1558439255157499,-2,0,0,13,-2,-6,-4,-2
1558439255157499,-2,-2,-3,-12,-3,-3,-1,0
1558439255180436,2,0,-2,-19,-5,-3,-5,3
1558439255180436,0,-1,4,7,2,2,-2,0
1558439255181436,-1,-2,1,2,1,2,3,0
1558439255181436,-3,-3,-2,-2,-1,0,-4,-3
1558439255186422,-1,-2,1,3,-6,-2,-1,-4
1558439255186422,1,0,-1,-1,2,-1,0,0
1558439255195398,1,0,-2,-6,-3,-3,-4,-2
1558439255195398,-2,-1,2,8,-10,-11,-2,-2
1558439255208363,-1,0,1,-4,3,-3,0,0
1558439255208363,-2,1,6,10,7,9,7,2
1558439255217341,0,-2,-5,1,-2,2,0,0
1558439255217341,-2,0,1,1,3,2,-2,-3
1558439255231301,-1,-2,1,10,-8,-2,-3,-1
1558439255231301,-2,-4,-4,0,-9,-19,-8,-2
1558439255240277,-2,2,1,-9,6,4,3,4
1558439255240277,0,1,3,1,-4,-2,-1,0
1558439255246261,-3,-3,-4,-2,0,0,-3,0
1558439255246261,1,-2,4,7,0,-1,-6,-4
1558439255255238,-2,-1,0,-1,2,12,2,-1
1558439255255238,-1,-2,4,-2,3,1,5,3
1558439255269201,0,3,14,17,14,-2,9,3
1558439255269201,-4,-3,-18,-15,-12,-5,-6,-4
1558439255278181,0,-1,-4,-16,-3,-7,-4,-3
1558439255278181,0,0,-8,-7,-8,-6,0,-1
1558439255291141,0,-1,8,6,7,-4,0,-1
1558439255291141,-1,-2,-9,-6,-4,-1,2,0
1558439255300118,-4,-2,0,6,0,2,-2,-5
1558439255300118,-1,-2,-1,1,-2,4,-4,-1
1558439255315077,0,-2,-8,-12,-10,-2,-4,-2
1558439255315077,1,0,4,5,6,3,0,2
1558439255317074,-1,0,8,5,6,2,5,1
1558439255317074,0,2,1,6,1,-2,2,0
1558439255329041,-2,-2,-15,-14,-6,-5,-4,0
1558439255329041,-3,0,-4,-16,-4,0,-1,0
1558439255338016,1,-2,-5,-1,-5,-1,-3,-3
1558439255338016,0,-1,1,0,1,3,1,0
1558439255350982,0,-1,7,8,3,4,1,-1
1558439255350982,-5,-3,-9,-8,-10,-5,-5,-4
1558439255359959,0,3,0,-6,0,-4,1,4
1558439255359959,1,1,10,15,12,5,0,-2
1558439255374917,-4,-7,-22,-16,-13,-4,-2,-5
1558439255374917,-1,1,6,1,-1,1,0,-1
1558439255376912,-1,-2,-1,8,-2,-7,-4,-4
1558439255376912,-2,-3,-5,-8,-4,-2,-3,-3
1558439255397857,1,-1,1,-2,1,3,1,0
1558439255397857,-1,-3,5,5,4,-1,-1,0
1558439255398854,-1,-1,5,4,2,-1,1,1
1558439255398854,-1,-1,0,-1,-1,2,0,1
1558439255410823,0,1,-3,-13,3,2,0,0
1558439255410823,3,2,4,17,-1,-3,1,-2
1558439255419797,-2,-2,-1,-10,-4,-3,-6,-4
1558439255419797,-1,1,-1,0,-7,-5,-5,-2
1558439255442742,-2,-1,-5,-7,-3,0,1,0
1558439255442742,0,2,1,1,4,-6,2,2
1558439255443734,-1,-1,2,6,2,3,-1,0
1558439255443734,-2,-1,-6,-12,-1,-1,-2,-3
1558439255448723,-1,-2,-1,2,-7,-3,-7,-2
1558439255448723,-2,-2,-2,-1,4,9,1,-3
1558439255457697,-1,1,-2,-2,-3,-4,-1,0
1558439255457697,-1,-1,-1,-2,1,-6,-3,-3
1558439255471666,-1,0,5,5,3,-3,-2,-1
1558439255471666,-2,-3,3,0,-2,2,0,0
1558439255480635,-1,-1,-6,-14,-3,1,0,0
1558439255480635,-3,-3,1,-3,-2,2,0,2
1558439255495594,-2,0,9,13,1,-4,-1,-2
1558439255495594,-1,-3,-4,-5,-3,-3,0,-1
1558439255496591,-1,0,1,-2,0,2,0,0
1558439255496591,1,1,-1,-2,-2,0,1,1
1558439255508559,-1,-3,-2,-1,-4,-4,-4,-2
1558439255508559,-1,-2,1,1,2,3,-1,-2
1558439255517537,-1,-1,1,0,0,1,1,0
1558439255517537,0,-1,-5,-4,0,-6,-2,-1
1558439255531501,0,-1,-1,-1,-2,-2,-2,0
1558439255531501,1,2,1,-2,0,-3,-1,1
1558439255540474,0,-3,-1,5,2,3,2,0
1558439255540474,-4,-2,2,4,2,5,2,-3
1558439255555435,-2,0,-4,-3,-2,2,-2,-1
1558439255555435,-1,0,-1,-2,-4,-17,-5,0
1558439255556432,1,-1,-2,-3,-1,-2,2,0
1558439255556432,3,0,3,6,4,5,4,1
1558439255568400,-2,-1,-2,-5,0,5,2,-3
1558439255568400,-1,-3,8,6,5,7,-3,-4
1558439255577375,0,-1,-7,-1,-7,-6,-4,-1
1558439255577375,-3,-5,-10,-15,-13,-7,-7,-4
1558439255591339,1,0,4,3,7,16,10,2
1558439255591339,-1,1,-8,-4,1,-6,-3,0
1558439255600315,0,-2,1,0,-2,2,2,1
1558439255600315,1,3,3,2,4,-8,-1,0
1558439255615274,0,-1,0,-2,-6,-2,-4,-2
1558439255615274,0,0,2,13,-1,4,-1,-2
1558439255616272,-1,-3,-4,-17,-11,-7,-7,-4
1558439255616272,-2,-4,-14,-8,-9,-6,-9,-4
1558439255629237,1,0,8,8,11,11,10,2
1558439255629237,-1,0,2,-4,1,1,2,0
1558439255637216,-2,1,5,8,1,-6,-3,0
1558439255637216,2,0,7,4,0,-6,2,3
1558439255651186,-1,-2,-9,-9,-8,-12,-7,-2
1558439255651186,1,-1,4,2,2,7,1,-3
1558439255660154,-1,-3,-6,-4,-5,-2,-3,-3
1558439255660154,-2,-1,5,5,3,-1,2,0
1558439255675115,-2,-2,-4,2,-4,0,-6,-4
1558439255675115,-1,0,-1,-1,5,6,8,3
1558439255677109,1,1,0,-6,-3,-8,-1,-2
1558439255677109,-3,0,5,12,3,3,2,0
1558439255689079,2,2,-5,-13,-8,-9,-4,0
1558439255689079,-5,-4,-5,2,-2,-1,-5,-4
1558439255698055,-3,-2,-7,-5,-5,-6,-5,-2
1558439255698055,-1,-4,-7,-8,-9,-7,-4,-1
1558439255711019,-1,0,6,5,9,9,5,3
1558439255711019,1,2,5,7,10,9,8,5
1558439255719993,-1,0,5,6,3,3,0,0
1558439255719993,-2,-3,-8,-12,2,2,0,-1
1558439255734954,0,-3,-1,3,-9,-10,-7,-3
1558439255734954,0,-1,-7,-12,-11,-4,-6,-2
1558439255736949,-1,-3,-4,7,4,3,1,-3
1558439255736949,0,2,2,8,3,6,5,0
1558439255748917,-2,3,5,4,4,-5,0,-1
1558439255748917,3,5,6,11,2,-6,1,-1
1558439255757893,-3,-5,-7,-4,-4,5,-1,0
1558439255757893,-2,-3,3,3,3,8,2,0
1558439255770858,-3,-3,-12,-9,-11,-15,-6,-4
1558439255770858,-3,-3,0,4,-4,-8,-6,-2
1558439255779834,4,5,7,15,19,18,9,6
1558439255779834,-1,0,-8,-19,-10,-12,-8,-1
1558439255794794,0,-1,3,0,-6,-10,-5,-1
1558439255794794,-1,0,8,19,5,2,2,0
1558439255796789,1,0,-15,-21,-7,-3,-2,-2
1558439255796789,-2,0,-2,-16,4,4,-1,0
1558439255808757,-2,-1,-5,1,-9,-2,-5,-1
1558439255808757,-3,-4,-8,-9,-2,0,-3,-1
1558439255817735,0,3,14,9,5,-4,1,1
1558439255817735,-1,-5,-4,6,-4,0,0,-2
1558439255831695,1,-1,0,1,1,-3,0,0
1558439255831695,-4,-3,-17,-34,-9,-8,-5,-2
1558439255840672,0,1,7,15,12,14,10,2
1558439255840672,0,0,4,6,1,-2,-2,-1
1558439255855631,0,-3,-1,4,5,-3,-1,-1
1558439255855631,-1,-1,-3,-9,-3,6,1,-2
1558439255856629,-1,-3,0,-3,-7,-9,-11,-3
1558439255856629,-2,-2,-2,-2,-6,-5,-6,-4
1558439255868597,1,1,2,0,11,10,9,2
1558439255868597,0,0,-1,0,-2,0,2,-2
1558439255877573,-2,0,-3,-8,-9,-12,-7,-4
1558439255877573,-1,-2,-3,6,-1,-4,1,2
1558439255891536,0,1,8,5,9,7,6,3
1558439255891536,1,-4,-17,-13,-8,-5,-4,-3
1558439255900513,-2,-4,1,2,-4,0,-3,-3
1558439255900513,0,1,2,10,4,8,5,-1
1558439255915472,2,2,-6,-15,-5,-10,-4,-1
1558439255915472,0,-1,-4,-14,-3,-1,-1,-1
1558439255916468,-1,-1,5,3,5,6,2,-1
1558439255916468,0,-4,-12,-14,-7,2,-4,-3
1558439255928437,-1,-1,-4,0,1,-7,-3,1
1558439255928437,-3,0,6,4,-4,-5,-2,-2
