timestamp,emg1,emg2,emg3,emg4,emg5,emg6,emg7,emg8
1558439312743065,1,-2,-3,-4,-6,-8,-4,-3
1558439312743065,1,4,1,9,5,10,-1,1
1558439312744051,-2,-1,1,-7,-4,-4,-1,-3
1558439312744051,-2,-2,-5,-9,-5,-1,-3,-4
1558439312744051,0,0,0,13,2,-6,2,1
1558439312744051,1,1,0,-2,-4,-7,-1,-2
1558439312747041,-1,-4,-3,-10,-2,5,0,0
1558439312747041,0,-4,-1,11,3,1,-1,-2
1558439312756018,-4,-3,0,-3,0,3,-1,-2
1558439312756018,-3,-1,-1,-13,-6,-3,-4,-4
1558439312762999,1,1,8,12,14,6,0,0
1558439312762999,0,1,-4,-3,-14,-3,1,-2
1558439312770979,2,3,14,9,13,16,6,3
1558439312770979,-8,-11,-20,-22,-10,-10,-4,-2
1558439312784940,-3,-1,0,6,-7,5,-2,-4
1558439312784940,-1,-1,3,5,2,-6,-7,-2
1558439312795912,1,1,-7,-13,-4,5,2,0
1558439312795912,4,4,11,12,6,-8,-1,2
1558439312799900,0,-5,-9,-2,-3,-7,0,0
1558439312799900,2,1,6,-2,-2,1,-5,-3
1558439312815858,-9,-4,-6,-5,-6,-1,-2,-2
1558439312815858,-3,0,3,9,-2,-3,-1,-3
1558439312862732,2,0,2,16,7,-2,-1,0
1558439312862732,1,-1,1,-4,-6,-7,-2,-1
1558439312863733,0,-3,-12,-9,2,9,4,-2
1558439312863733,-1,-1,-2,0,-6,-1,-1,-3
1558439312863733,-2,-3,3,12,-3,-4,-3,0
1558439312863733,-3,-3,-5,-23,-3,-1,-4,0
1558439312866722,1,1,-8,-3,-5,-6,-1,-1
1558439312866722,-3,-3,-2,1,-7,-9,-7,-3
1558439312875698,-1,-1,-1,-4,5,6,3,1
1558439312875698,2,3,10,7,2,-2,0,-1
1558439312881681,-3,-3,-3,13,3,-2,-2,-3
1558439312881681,-2,-2,-3,-13,-8,-4,0,1
1558439312890657,-1,-2,3,-14,1,5,-4,-5
1558439312890657,1,3,5,12,2,-8,1,-1
1558439312904621,-1,-2,-12,-7,-1,2,1,2
1558439312904621,2,0,2,10,2,6,0,0
1558439312913597,-2,0,-9,-15,-1,3,4,1
1558439312913597,-3,-7,-8,1,-3,2,-3,-3
1558439312919582,-1,-2,7,-1,-7,-7,-10,-4
1558439312919582,1,2,3,3,4,4,2,0
1558439312935537,0,-3,-9,0,-6,3,3,-1
1558439312935537,-2,0,-4,-3,1,3,1,1
1558439312941522,-3,-1,5,3,-3,-8,-2,-1
1558439312941522,0,-4,-1,-8,0,5,-2,-3
1558439312950497,3,2,3,-1,-2,-15,-5,0
1558439312950497,0,0,8,7,3,4,0,-3
1558439312964460,0,2,10,2,-1,4,-1,-1
1558439312964460,-4,-5,-22,-13,-3,-8,0,0
1558439312973436,0,0,3,3,-6,-7,-3,-3
1558439312973436,0,-1,-3,-1,2,2,5,2
1558439312979420,-1,-1,4,10,0,6,1,-1
1558439312979420,-1,-2,-2,-10,-4,-2,-1,-1
1558439312995378,-2,-3,2,4,4,-1,6,2
1558439312995378,1,-1,-5,0,-2,-2,-5,-2
1558439313001361,0,1,5,-4,6,-3,3,1
1558439313001361,0,0,2,2,-3,2,-1,-3
1558439313010338,-2,-4,-5,-3,-4,-1,-10,-4
1558439313010338,-2,-3,-3,-3,-7,3,2,0
1558439313024299,2,2,5,4,2,-5,2,2
1558439313024299,-2,-4,-8,-6,0,-3,-5,-2
1558439313033278,2,2,9,1,2,-2,-2,0
1558439313033278,-3,-2,-15,-1,-5,0,-4,-4
1558439313039260,0,-2,-12,-18,-5,-8,-5,-3
1558439313039260,1,2,9,13,3,-5,3,3
1558439313056216,-1,0,-2,-6,-1,8,3,-1
1558439313056216,-1,-2,7,6,4,-6,-1,0
1558439313062199,-1,-1,-3,-7,-8,-4,-2,-2
1558439313062199,-1,-1,3,8,0,-1,-7,-4
1558439313078159,1,-1,-4,-4,3,12,8,1
1558439313078159,0,-3,-14,-15,-6,-7,-1,-1
1558439313084140,-3,1,4,2,10,2,1,2
1558439313084140,0,1,8,2,-6,-8,-4,-1
1558439313093119,-3,-4,-8,-6,-3,6,-1,-2
1558439313093119,0,0,3,-2,2,3,-1,-2
1558439313099112,0,-2,-5,3,-3,-4,-3,-3
1558439313099112,0,-2,-5,-10,5,5,1,1
1558439313116073,-3,0,9,5,-4,-3,-4,-4
1558439313116073,-3,-3,-14,-7,4,-5,0,1
1558439313122045,0,-2,-1,2,-3,0,-2,-1
1558439313122045,0,-1,3,1,-4,-6,-1,-1
1558439313131017,0,-1,0,3,2,3,-2,0
1558439313131017,2,2,8,8,7,10,3,0
1558439313143983,-5,-2,-4,-3,-3,-5,0,-3
1558439313143983,1,1,0,-10,3,10,4,-2
1558439313152966,-2,-1,-4,-5,-8,-8,-5,-1
1558439313152966,0,-1,0,-3,-3,-1,-1,-1
1558439313166929,-1,-2,-4,5,1,4,-3,-2
1558439313166929,-3,-2,-2,1,5,5,2,0
1558439313175896,-4,-1,5,3,2,-4,-3,-1
1558439313175896,-1,-1,-2,3,-3,0,2,-3
1558439313181884,-1,-2,2,-2,0,-1,-1,-1
1558439313181884,0,2,-2,-3,-3,-4,-5,-2
1558439313197838,0,1,3,-1,2,-4,1,-1
1558439313197838,-3,-2,0,1,-5,-2,-5,-1
1558439313203821,0,-3,-3,-3,-3,0,0,-1
1558439313203821,1,1,2,2,-1,4,0,-2
1558439313220775,1,0,-2,7,0,-7,0,-1
1558439313220775,-2,1,6,-13,-8,-11,-4,-3
1558439313226759,-1,0,-4,-7,5,14,9,3
1558439313226759,-4,-2,0,4,1,-2,-2,1
1558439313243714,-3,-5,-11,-8,-8,0,-1,-1
1558439313243714,-2,-3,2,3,-3,-4,-1,-1
1558439313244712,4,-1,2,0,-4,1,-2,-1
1558439313244712,-2,-2,0,1,-3,-2,2,0
1558439313250694,1,1,1,-2,2,-9,-2,0
1558439313250694,-3,-3,-7,-3,0,1,-3,-3
1558439313264657,-3,0,-1,-1,-4,-2,-6,-3
1558439313264657,0,0,1,0,-1,3,0,-1
1558439313273634,-1,-1,-7,0,8,16,7,3
1558439313273634,3,1,8,6,3,-7,1,-1
1558439313286599,-2,-1,-3,-8,-8,-4,-4,-5
1558439313286599,0,-2,-7,-5,-8,-14,-6,-3
1558439313295574,-4,0,1,-3,-3,2,-4,-3
1558439313295574,1,2,1,5,3,3,3,2
1558439313301561,0,-1,2,5,12,9,7,3
1558439313301561,-3,-1,-1,-1,-5,-5,-4,-3
1558439313316521,-2,0,-1,-6,-3,-4,-3,-1
1558439313316521,-4,-3,-1,1,-5,-4,-8,-2
1558439313324497,-2,-3,0,-1,2,0,1,-2
1558439313324497,3,4,5,5,9,-4,8,3
1558439313340456,-1,-1,1,1,1,2,-3,-1
1558439313340456,-1,-1,-5,-8,-9,-3,-5,-3
1558439313355414,-3,0,0,-1,-5,4,2,-2
1558439313355414,-2,-3,-3,4,2,4,-2,-1
1558439313357409,0,-3,-4,-3,-9,-9,-2,-3
1558439313357409,0,-1,-5,-9,4,8,2,0
1558439313361400,2,3,8,2,-2,-9,0,2
1558439313361400,3,1,-2,1,2,-2,-1,-1
1558439313385334,-2,-1,1,-2,-7,-4,-2,-2
1558439313385334,-6,-1,-5,10,-5,-8,-9,-5
1558439313385334,-2,-5,-15,-40,-9,-3,0,0
1558439313385334,-6,-2,-4,-1,-3,-3,-1,-5
1558439313407275,5,0,-3,0,2,5,1,2
1558439313407275,3,3,9,-3,2,3,2,1
1558439313408273,-4,-2,7,16,4,-4,-9,-4
1558439313408273,-2,0,0,-1,-8,-5,-3,-2
1558439313415254,-1,-1,-10,-3,-1,-6,1,-1
1558439313415254,-2,-1,6,5,1,0,-1,-1
1558439313429218,2,-2,-7,0,4,15,5,1
1558439313429218,1,1,4,-3,-5,0,-2,-1
1558439313438193,-4,-4,1,-3,-2,-7,-5,-4
1558439313438193,-1,-3,-2,0,0,-1,3,2
1558439313453153,4,3,6,8,2,-3,-1,0
1558439313453153,-3,-8,-1,-7,-1,-1,-2,-1
1558439313454151,-3,-1,0,2,-5,-7,0,-1
1558439313454151,3,0,-3,-10,-3,0,-1,-1
1558439313467116,1,1,3,16,3,-2,-1,0
1558439313467116,-1,-1,-4,-3,1,1,-2,2
1558439313476092,0,0,2,5,8,14,4,-3
1558439313476092,-1,0,8,-3,0,0,-1,0
1558439313482075,2,5,2,10,-3,-6,-1,0
1558439313482075,0,0,-8,-16,4,-3,-1,-5
1558439313498033,-16,-11,-12,-14,-14,-11,-11,-7
1558439313498033,0,-1,-5,-8,3,7,8,1
1558439313504018,0,-2,1,1,0,-1,0,-1
1558439313504018,1,1,8,11,-5,-9,-1,1
1558439313512994,4,1,-8,2,1,5,0,-2
1558439313512994,2,2,-3,-7,-3,-5,-1,-3
1558439313526960,-1,-4,-1,-5,-7,-3,-3,-2
1558439313526960,-6,-2,-7,-5,1,6,1,-1
1558439313535931,3,-1,5,5,2,-10,-4,3
1558439313535931,5,3,11,1,0,3,1,3
1558439313541921,-9,-6,-10,-2,-6,-5,-5,-7
1558439313541921,-4,-1,-1,-4,9,16,7,1
1558439313556886,2,3,1,4,2,-14,-3,2
1558439313556886,-2,-2,-7,4,4,1,-2,0
1558439313563859,2,1,8,13,-4,-4,-9,-3
1558439313563859,-3,-5,-11,-28,-15,-12,-8,-4
1558439313572836,3,5,11,6,10,13,10,4
1558439313572836,-1,-1,-11,-12,-3,-6,-3,-5
1558439313586795,-6,-5,-9,-5,-6,-7,-3,-4
1558439313586795,-2,1,6,17,1,3,-3,-2
1558439313595772,13,2,-15,-38,-4,-2,1,5
1558439313595772,-14,-1,4,14,1,-4,3,-2
1558439313601756,-2,-5,-4,-15,-1,2,-2,-4
1558439313601756,3,-3,-5,3,-5,1,-2,-1
1558439313618710,0,3,16,10,8,-1,1,0
1558439313618710,-5,-8,-15,-9,-10,-2,-5,-6
1558439313624707,1,2,6,3,7,-2,6,5
1558439313624707,-7,-4,-4,-4,-7,-9,-4,-2
1558439313633670,0,0,2,-3,-4,12,1,-1
1558439313633670,-1,1,19,17,5,3,0,-3
1558439313646636,-2,-3,-9,-3,1,-2,-4,0
1558439313646636,9,3,6,9,8,6,1,2
1558439313655613,6,-4,-7,-1,3,8,-2,-6
1558439313655613,-15,-4,-6,-11,-9,-9,-7,-6
1558439313661596,-4,-2,-3,0,-1,-4,-5,0
1558439313661596,0,1,-1,5,-3,-5,2,2
1558439313684535,-1,3,4,6,-10,-3,-1,0
1558439313684535,-1,-13,-20,-26,-4,-4,-2,1
1558439313685531,5,5,13,10,7,6,-2,0
1558439313685531,-13,-3,-2,-12,-7,-6,-1,-3
1558439313693511,-5,-3,-16,-15,-9,-5,-3,-1
1558439313693511,11,7,-2,3,1,8,1,5
1558439313706476,-7,-7,-4,-1,1,3,2,-3
1558439313706476,6,3,3,-5,6,-11,0,1
1558439313715452,-5,-3,4,-1,-4,-4,1,3
1558439313715452,5,3,5,14,6,5,7,3
1558439313730412,3,4,7,4,-7,-2,-2,1
1558439313730412,8,0,12,31,20,6,-1,1
1558439313736395,-13,-6,-15,-8,-3,1,2,-1
1558439313736395,-5,-4,-4,-6,-3,-6,-10,-5
1558439313753350,9,6,12,-18,-7,1,4,3
1558439313753350,-12,-9,-2,0,-13,-9,-11,-7
1558439313754349,-1,-3,1,9,-5,-4,-1,-1
1558439313754349,8,2,9,17,9,5,-1,1
1558439313766320,-5,3,12,0,5,-1,5,0
1558439313766320,-4,-4,-13,-7,-2,4,-2,1
1558439313775293,1,0,11,3,-3,-5,-8,-6
1558439313775293,2,2,-6,2,-2,-2,2,0
1558439313782273,3,2,9,14,4,5,2,-1
1558439313782273,-1,-1,-15,-12,1,-3,7,4
1558439313798231,6,-1,4,6,4,2,-4,-3
1558439313798231,2,2,20,19,3,-11,-7,-4
1558439313804220,-6,-7,-16,-7,-4,4,-4,-4
1558439313804220,-2,-1,-1,-12,-3,8,1,-2
1558439313813191,-6,-5,-12,1,-2,-5,-8,-2
1558439313813191,5,2,1,-1,-1,-3,4,4
1558439313827155,-2,-4,-15,-10,0,4,8,3
1558439313827155,0,-2,2,-5,-5,-1,-4,-7
1558439313836130,1,3,13,13,5,-7,1,2
1558439313836130,-6,-4,-9,-4,0,8,-3,-2
1558439313849097,-2,-2,-8,-2,-10,-12,-7,0
1558439313849097,5,5,8,2,3,-2,1,3
1558439313864056,-2,3,0,-1,2,4,7,2
1558439313864056,-4,-2,-2,-10,-4,-7,-6,-5
1558439313873034,-5,-5,-10,-7,-12,-8,-4,-7
1558439313873034,0,2,4,2,0,11,-1,-5
1558439313875031,-1,0,-6,-4,0,0,3,2
1558439313875031,1,-2,0,1,2,1,1,-1
1558439313895971,-7,-3,-5,1,5,1,2,1
1558439313895971,-2,-4,-8,-7,-9,-8,-9,-7
1558439313896968,6,0,-1,-3,5,6,3,0
1558439313896968,-10,-3,0,-8,0,2,-1,-1
1558439313908954,3,1,12,20,8,9,1,-3
1558439313908954,-2,-3,-12,-20,0,-1,3,3
1558439313917915,-1,-1,0,-8,1,5,4,-2
1558439313917915,3,-1,-14,-18,-11,-8,-1,0
1558439313940853,2,0,5,3,2,4,-2,0
1558439313940853,-1,0,-8,4,5,4,3,3
1558439313941850,-3,-4,9,11,-8,-12,-13,-4
1558439313941850,-5,-4,-5,-19,-5,-1,3,-1
1558439313946835,-1,-1,-10,-13,-2,-13,4,3
1558439313946835,-2,-1,4,2,-2,4,-1,-3
1558439313955809,-3,-1,1,4,-5,-3,-5,-5
1558439313955809,-2,-1,8,18,5,6,5,0
1558439313969773,-3,-3,-10,-11,-6,-7,-3,0
1558439313969773,1,-1,4,7,2,-4,3,-1
1558439313977751,-3,-3,-5,-6,-1,-1,0,-3
1558439313977751,2,0,5,11,0,7,-4,-1
1558439313993710,0,-1,2,-5,0,5,-1,-1
1558439313993710,4,3,8,15,6,6,5,3
1558439313994706,1,2,1,-4,-3,-9,-4,0
1558439313994706,-4,-5,-26,-22,-8,-2,-2,-1
1558439314006675,-3,-5,-16,-12,-1,-4,-3,-3
1558439314006675,-3,-3,-2,-5,-2,3,2,1
1558439314015649,-1,2,10,27,8,6,-1,-1
1558439314015649,0,-1,-5,-6,0,-5,-1,-3
1558439314029611,0,1,0,-9,-8,-7,-3,-3
1558439314029611,-1,-2,-5,-3,-3,4,5,-2
1558439314038588,-1,0,-4,-9,6,1,5,2
1558439314038588,-1,-1,10,10,-3,-3,-5,-6
1558439314053547,0,0,0,3,7,7,2,0
1558439314053547,4,0,6,2,3,-10,-4,2
1558439314054544,-6,-5,-2,5,-6,1,0,-1
1558439314054544,1,2,-14,-27,-4,2,5,3
1558439314066512,0,3,7,3,-4,-8,-7,-1
1558439314066512,-1,0,1,8,1,-1,-2,-2
1558439314075493,-3,-4,-10,-12,-7,-4,-5,-4
1558439314075493,-1,0,6,11,7,8,3,0
1558439314089456,2,1,13,13,3,3,-2,0
1558439314089456,-2,-4,-5,4,-5,0,0,-3
1558439314098428,-2,-3,-10,-22,-9,-11,-4,-2
1558439314098428,1,2,7,5,9,5,6,1
1558439314113416,-2,-3,5,4,-7,-11,-4,-2
1558439314113416,3,-1,-5,8,-4,-7,-6,-2
1558439314114387,-4,-3,-2,2,2,10,0,-3
1558439314114387,0,0,3,9,0,0,-3,-1
1558439314126352,1,2,4,-2,6,-1,0,-1
1558439314126352,-3,1,-7,-16,-3,2,1,1
1558439314135328,2,-3,-10,-8,-3,-6,0,1
1558439314135328,-1,0,1,3,-1,-8,-2,0
1558439314149291,-2,-2,-4,-2,-5,-5,-4,-1
1558439314149291,2,3,10,5,-1,6,-3,0
1558439314158267,-3,-1,-4,-7,2,-3,-1,-2
1558439314158267,2,0,4,0,-6,-7,-6,-1
1558439314173227,1,-2,-2,5,-1,-2,0,-1
1558439314173227,-6,-7,-4,-17,-10,-3,-4,-4
1558439314174227,-1,-1,-2,1,5,9,3,3
1558439314174227,-1,-3,0,3,2,-3,-2,0
1558439314187190,9,4,4,0,1,3,1,0
1558439314187190,-19,-5,-15,-17,-5,-5,-4,-5
1558439314196165,2,2,6,13,-8,-2,-1,-5
1558439314196165,1,-2,-5,2,-2,-1,-3,-3
1558439314209131,1,0,-12,-21,-1,6,3,3
1558439314209131,2,3,15,17,2,0,3,1
1558439314218110,-2,-2,-12,-11,-9,-9,-4,-1
1558439314218110,-2,-1,5,-5,-3,-8,-4,-2
1558439314233073,-6,-4,1,5,5,3,-3,-3
1558439314233073,0,2,-2,-5,-4,2,0,1
1558439314235065,-5,-2,13,12,-2,-12,-11,-4
1558439314235065,5,-1,-5,4,3,13,11,4
1558439314247136,-2,-1,-12,-18,-2,-16,2,2
1558439314247136,0,-2,10,12,-1,-2,-5,-2
1558439314256025,4,3,-2,-6,7,10,10,4
1558439314256025,-8,-2,0,0,-1,-3,-5,-5
1558439314269078,-5,-5,1,3,-10,2,-6,-6
1558439314269078,4,0,-11,-5,-6,-12,-3,0
1558439314277952,2,-1,5,4,9,13,7,0
1558439314277952,-8,-6,-3,0,-4,1,0,-2
1558439314292970,1,0,1,2,-1,-7,-3,-1
1558439314292970,2,0,2,5,1,-5,-1,1
1558439314294916,-3,-3,9,8,-8,-17,-11,-5
1558439314294916,3,-1,-16,-19,-8,3,0,0
1558439314306918,-5,1,13,21,7,15,-1,-6
1558439314306918,-1,-2,-8,-14,-4,-26,1,3
1558439314315891,-4,0,-7,-13,6,9,6,0
1558439314315891,0,-3,-2,-3,-11,-11,-12,-3
1558439314329818,1,2,8,17,2,8,-4,-1
1558439314329818,3,1,-2,5,5,10,6,2
1558439314338786,-1,-1,-12,-8,-5,1,0,-1
1558439314338786,-3,0,7,2,2,2,2,-2
1558439314352751,-1,-3,-7,-1,-3,-8,-3,-1
1558439314352751,-1,-2,7,13,10,12,3,0
1558439314354742,3,0,-8,-17,-8,-10,-3,0
1558439314354742,-9,-4,5,7,-3,-6,-6,-5
1558439314366745,-2,-2,-4,-8,-7,1,-1,-1
1558439314366745,-3,0,3,8,8,14,4,-1
1558439314375685,2,1,-4,-3,-1,-10,-4,1
1558439314375685,5,-1,-2,1,-3,-6,-3,2
1558439314390033,-8,-4,-2,-4,-2,-3,-4,-2
1558439314390033,-1,1,-2,-7,-5,4,-2,-2
1558439314398625,-2,-1,4,10,-5,-8,-1,1
1558439314398625,2,1,-1,-1,5,3,1,0
1558439314412617,0,0,-3,-13,-8,-4,-3,-1
1558439314412617,-3,-4,-3,-1,-4,-3,-6,-5
1558439314419772,0,-2,7,10,8,0,5,0
1558439314419772,2,2,1,-6,1,-3,1,1
1558439314426550,0,-3,-9,-6,-4,-1,-1,-2
1558439314426550,-2,0,0,-3,-2,1,3,-2
1558439314435805,1,2,5,4,9,6,4,2
1558439314435805,-2,-2,-1,3,-1,-6,-1,-1
1558439314449788,0,-2,-1,4,2,3,5,0
1558439314449788,1,-2,-2,-19,-1,-2,-4,0
1558439314458464,-6,-4,2,22,-5,-1,-6,-6
1558439314458464,-1,1,-6,-26,-7,3,-1,-1
1558439314472458,1,2,0,-4,-2,-3,-2,0
1558439314472458,-1,-2,-5,-1,-1,-8,4,1
1558439314479659,3,2,6,-2,13,7,3,2
1558439314479659,0,-1,-1,9,2,-4,-2,0
1558439314486658,-1,-3,0,8,4,-5,-5,-2
1558439314486658,0,-4,4,10,-7,-3,-3,-3
1558439314495632,-2,-1,-13,-28,-8,-3,-3,-1
1558439314495632,7,1,5,1,3,5,5,2
1558439314509573,-10,-1,-8,-11,-6,-3,0,-3
1558439314509573,4,1,11,15,8,6,-3,0
1558439314518305,-5,-5,-6,-5,-1,1,0,-2
1558439314518305,-3,-3,-4,5,-4,-5,-4,-1
1558439314533318,2,1,-5,-9,3,-2,4,2
1558439314533318,-3,1,4,-1,1,-6,-7,-2
1558439314539255,-1,-1,2,9,-5,-8,-5,-3
1558439314539255,-1,0,-2,-6,-3,-4,-4,-3
1558439314547235,-2,-1,8,5,0,-4,-4,-2
1558439314547235,1,-3,-8,-13,-6,-6,2,-1
1558439314556207,2,2,6,14,3,12,4,1
1558439314556207,0,-1,-4,-21,-5,-2,-2,0
1558439314569176,0,-4,-14,-5,1,7,4,0
1558439314569176,-1,1,0,1,6,-7,-3,2
1558439314578146,-2,-3,5,6,-3,-6,2,-1
1558439314578146,-5,-4,-12,-5,-10,-1,-4,-2
1558439314593106,3,3,5,-1,4,1,2,3
1558439314593106,1,-1,1,-2,-2,7,0,-1
1558439314599090,-1,-3,-1,0,0,-6,-9,-3
1558439314599090,-1,-4,-1,7,-4,-6,-1,-3
1558439314616295,-1,-2,-3,-8,-1,4,0,-1
1558439314616295,-2,-2,-8,-11,-2,0,-1,1
1558439314617041,2,5,5,-4,4,9,0,1
1558439314617041,1,0,11,23,-1,-13,-4,0
1558439314629039,4,1,-13,-7,-4,-9,-1,2
1558439314629039,-14,-4,11,4,-1,-3,-7,-9
1558439314638987,-4,-1,-11,-2,-7,0,1,-4
1558439314638987,2,1,8,10,4,-1,1,0
1558439314653214,0,-4,-12,-18,-6,0,-1,-2
1558439314653214,-1,0,2,4,0,-3,3,1
1558439314659194,0,0,1,-1,0,1,-6,-3
1558439314659194,0,0,-3,7,-3,-4,-2,-1
1558439314676110,-3,-1,15,12,5,-1,0,-2
1558439314676110,0,-2,-8,-7,-11,-13,-3,-1
1558439314676883,-1,-1,4,-3,-1,4,4,1
1558439314676883,2,4,-2,0,10,6,6,5
1558439314689946,-2,-4,-1,-5,-4,-5,-3,-2
1558439314689946,1,-2,-6,4,3,15,4,0
1558439314698053,-2,-4,-2,5,-8,-8,-6,-3
1558439314698053,0,2,3,-9,3,-4,2,2
1558439314712791,5,0,5,6,-6,-8,-2,4
1558439314712791,-8,-1,-10,-10,-2,3,2,-5
1558439314719811,0,-3,12,11,5,-4,-2,-4
1558439314719811,-8,-6,-15,-21,-5,6,-3,-5
1558439314735972,1,-1,-2,5,-3,-6,-4,-3
1558439314735972,4,2,-4,-4,-2,-6,-2,1
1558439314736729,-2,-3,-20,-29,-13,-2,-2,-2
1558439314736729,-1,0,7,7,-7,-1,-6,-5
1558439314749941,-3,-1,-2,-1,2,-2,-1,0
1558439314749941,2,0,-15,-21,-2,2,1,2
1558439314758664,0,1,0,-1,-4,0,-4,-4
1558439314758664,-3,-2,-1,2,5,3,2,1
1558439314772888,0,3,-3,-2,0,-9,-4,0
1558439314772888,3,-1,11,13,4,3,3,4
1558439314786586,5,3,-10,-16,-4,3,2,2
1558439314786586,-2,-4,5,8,-2,-11,2,-3
1558439314795563,-3,0,6,10,3,13,2,-4
1558439314795563,-1,-2,-1,-1,-3,-9,-7,-3
1558439314796560,0,-2,-6,-4,-5,-3,-3,-1
1558439314796560,-1,-1,3,7,9,10,4,1
1558439314809525,0,5,1,-7,5,-4,5,5
1558439314809525,-3,-5,4,15,1,4,2,-6
1558439314818503,1,1,-3,-7,-7,-5,-1,-1
1558439314818503,-1,-3,-2,4,-3,0,-1,-1
1558439314832814,1,2,1,-4,-5,-1,-6,-5
1558439314832814,-1,0,-9,-2,1,2,-3,0
1558439314839800,-5,-2,3,8,7,1,0,-1
1558439314839800,0,-1,-7,-16,-2,5,6,2
1558439314856461,5,-1,-6,-2,-6,2,-1,0
1558439314856461,-8,-4,12,11,0,-7,-3,-5
1558439314857398,0,2,-2,-7,0,-7,-1,1
1558439314857398,-3,-2,-5,-6,-7,-3,-7,-3
1558439314869764,-1,-4,2,4,-5,7,-1,-3
1558439314869764,4,2,-2,3,4,-6,1,3
1558439314878343,-2,-4,7,11,8,2,2,0
1558439314878343,-3,0,-6,-14,-2,-1,0,-3
1558439314892583,-10,-8,-1,1,-7,1,-2,-6
1558439314892583,2,0,-6,-16,-13,-6,-9,-1
1558439314899317,-3,-1,2,13,3,8,-1,-2
1558439314899317,3,1,8,4,7,0,-2,0
1558439314916443,0,-1,-2,1,1,-7,0,2
1558439314916443,-1,0,2,-3,-2,-2,1,1
1558439314917240,0,0,-7,-8,-8,-7,-2,-1
1558439314917240,-1,0,-5,2,0,4,2,-2
1558439314929208,-1,-1,-1,-1,-2,3,-1,-3
1558439314929208,2,0,1,0,1,2,-2,-2
1558439314938188,2,2,8,8,4,-9,-1,4
1558439314938188,-2,0,-6,-2,2,-3,-2,-3
1558439314952159,0,1,0,5,5,3,3,2
1558439314952159,-2,2,2,1,-6,-5,-6,-5
1558439314959128,10,-2,-9,-11,-1,8,3,0
1558439314959128,-27,-13,-8,-3,3,1,-4,-4
1558439314976268,2,0,-8,-11,0,-1,4,3
1558439314976268,0,0,7,9,-3,-5,-3,0
1558439314977099,-2,-4,-5,-5,-5,-4,-4,-2
1558439314977099,6,1,-3,-3,-4,-5,2,-1
1558439314989048,-5,-4,4,3,2,2,-5,-3
1558439314989048,0,2,10,15,5,-5,-5,0
1558439314998024,-6,-6,-19,-32,-11,1,-1,-1
1558439314998024,5,-1,-4,-14,-9,-3,3,2
1558439315012984,1,1,1,7,10,1,1,0
1558439315012984,3,0,1,-5,-6,0,-1,-1
1558439315018964,-4,0,8,12,0,-7,-4,-4
1558439315018964,3,1,-4,2,-5,2,-4,-3
1558439315036116,-5,-1,-8,-8,-6,-3,-4,-3
1558439315036116,-3,-1,4,3,14,8,7,3
1558439315036973,0,3,5,14,8,0,3,4
1558439315036973,7,-2,-6,-8,-4,-1,-5,0
1558439315049950,-7,-2,1,0,-3,3,-6,-4
1558439315049950,-3,-4,-8,-9,-10,-5,-2,-5
1558439315065854,0,2,0,1,16,17,17,6
1558439315065854,2,4,8,8,-4,-11,0,-1
1558439315072856,4,1,-5,-12,-6,2,-1,1
1558439315072856,-3,-9,-1,-1,-3,-3,-10,-5
1558439315078834,1,1,0,-1,-11,-12,-11,-2
1558439315078834,-2,-4,-2,2,11,11,4,1
1558439315095789,2,3,1,0,6,-2,5,1
1558439315095789,-6,-4,-2,-1,-4,4,2,-3
1558439315096797,-3,-3,5,0,-5,0,-6,-4
1558439315096797,-2,-1,4,4,-2,-3,-4,-2
1558439315109721,-1,-4,3,2,-3,-9,-4,-1
1558439315109721,5,2,-10,-7,-2,4,3,1
1558439315117700,-3,-2,-1,4,3,4,-1,-7
1558439315117700,0,2,3,-1,1,-8,-3,3
1558439315132661,-1,-3,-10,-2,3,13,8,2
1558439315132661,1,3,0,-4,3,3,6,2
1558439315140101,-1,-2,-8,-5,-6,-2,-2,-2
1558439315140101,-1,-2,9,14,6,7,-1,-5
1558439315156067,3,-2,3,3,-7,-12,-8,-3
1558439315156067,-5,-5,-8,-6,-5,-7,-4,-3
1558439315157597,-1,0,4,0,9,10,9,3
1558439315157597,0,1,-2,-1,-3,-1,0,2
1558439315170042,2,2,-5,-7,-3,-2,-1,0
1558439315170042,-6,-6,19,27,6,-5,-8,-8
1558439315178572,-3,-2,-1,-12,-3,2,-2,-3
1558439315178572,-1,0,-5,-5,-3,-3,4,2
1558439315192033,1,1,2,2,0,-4,0,1
1558439315192033,5,1,-10,-16,-11,-1,1,1
1558439315199355,-8,-6,-1,10,6,-5,-3,1
1558439315199355,0,3,7,5,9,-2,-3,-1
1558439315216320,-1,-2,0,-5,-8,-2,-5,-2
1558439315216320,1,3,-3,8,8,3,0,2
1558439315216965,-1,-3,-5,-12,-13,-9,-2,-3
1558439315216965,-3,-2,-3,-3,-4,1,-2,-1
1558439315230024,3,0,-3,2,7,12,-1,1
1558439315230024,-2,1,-7,-7,-1,-2,3,2
1558439315238257,-2,-1,1,3,-4,-1,-4,-3
1558439315238257,-3,-3,1,-7,-11,-13,-8,-5
1558439315253160,5,6,2,2,6,2,6,2
1558439315253160,-8,-9,14,8,-5,0,-9,-10
1558439315259203,3,0,-14,-7,4,-6,3,3
1558439315259203,0,2,-2,2,-6,0,-4,-2
1558439315276094,-8,-5,5,-4,-13,-8,-5,-5
1558439315276094,13,7,0,-2,8,7,9,6
1558439315276805,-10,-1,5,7,-2,-2,4,0
1558439315276805,-4,-5,-12,-10,-5,-1,-3,-5
1558439315290039,-6,-5,-7,-8,-4,-3,-7,-3
1558439315290039,-1,1,-2,2,-3,-4,-4,2
1558439315298024,7,0,14,2,0,0,-2,0
1558439315298024,-2,-5,-10,-15,0,2,-2,-1
1558439315313070,-6,-2,3,10,-1,-5,-2,-5
1558439315313070,1,0,1,1,-2,-6,2,1
1558439315319956,1,0,2,0,1,0,-4,-2
1558439315319956,-1,1,14,20,1,-1,0,-2
1558439315335917,2,-7,-21,-24,-9,-10,-4,0
1558439315335917,-15,-3,-4,-1,1,-6,-3,-2
1558439315336647,-1,-2,-7,-4,-2,-1,-4,-2
1558439315336647,-3,-3,-5,5,-4,-2,0,-3
1558439315349857,1,0,-1,-4,0,3,3,2
1558439315349857,3,0,-1,-5,-1,5,4,1
1558439315358588,-3,-2,-3,-4,-6,-2,-3,-3
1558439315358588,0,2,6,6,-4,-7,0,2
1558439315372816,0,-2,12,19,9,-8,-7,-2
1558439315372816,-2,-2,-27,-31,-3,5,2,0
1558439315379532,0,-1,19,22,6,-2,-5,-4
1558439315379532,4,-2,-23,-22,7,7,7,4
1558439315394494,-1,2,4,-15,-6,9,2,-2
1558439315394494,5,-1,-4,4,-3,-4,-5,-1
1558439315402473,-6,-2,-8,-18,4,10,4,0
1558439315402473,1,-1,-3,12,-10,-11,-8,-4
1558439315409449,-1,0,4,-4,5,-1,7,4
1558439315409449,4,0,7,15,5,0,-3,1
1558439315418428,-1,-5,-5,0,-10,-10,-9,-2
1558439315418428,0,-2,10,-2,3,5,0,0
1558439315432672,5,3,4,7,-3,-13,-4,1
1558439315432672,-8,-3,-7,-12,-12,-5,-7,-4
1558439315439644,1,1,-1,5,4,7,7,5
1558439315439644,-1,0,1,3,0,-1,2,2
1558439315455609,-3,-4,6,17,5,2,0,-5
1558439315455609,2,0,-4,-15,-10,-8,-1,1
1558439315462430,-4,-5,-11,-10,-7,-8,-9,-6
1558439315462430,1,2,5,2,8,9,2,1
1558439315469290,5,1,3,10,8,16,9,3
1558439315469290,-5,-1,1,1,1,-1,-2,-1
1558439315478268,-1,-1,6,6,-1,1,-1,-1
1558439315478268,1,-2,-3,-2,-5,-10,2,3
1558439315492510,1,3,3,6,2,-5,0,0
1558439315492510,0,-1,-6,-4,2,3,0,-2
1558439315499482,-1,0,5,6,-6,1,-3,-2
1558439315499482,-2,-2,4,5,1,1,0,-2
1558439315515723,-7,-6,-4,-10,-5,-5,-5,-4
1558439315515723,-1,1,14,15,3,-2,1,0
1558439315522642,2,-1,-16,-12,4,5,0,0
1558439315522642,-1,-1,4,-2,-4,2,-1,-1
1558439315538418,-2,-3,-13,-7,-7,-12,-5,-4
1558439315538418,6,1,-1,-3,5,-1,3,2
1558439315539567,-6,-2,-3,-5,-2,1,2,-1
1558439315539567,0,1,-6,-4,1,4,0,-1
1558439315552380,-1,-3,0,-6,-2,9,1,-2
1558439315552380,6,1,3,-4,0,-1,-3,-1
1558439315559611,-4,-5,-6,-4,0,-3,-4,-1
1558439315559611,0,2,2,4,5,18,5,-1
1558439315575568,-4,3,0,4,-2,1,-1,1
1558439315575568,2,-4,-2,-7,-1,-2,-1,-2
1558439315582534,6,3,12,8,1,-7,-1,-1
1558439315582534,-5,-3,-8,-14,-3,7,2,2
1558439315605190,-3,-4,-5,-9,-2,-10,-3,-3
1558439315605190,-6,-2,3,6,0,4,3,0
1558439315607184,0,0,-1,5,-3,-5,-7,-3
1558439315607184,-1,-2,-1,-2,-6,-5,-3,-3
1558439315612172,1,-1,-12,-11,-3,4,-4,-1
1558439315612172,-4,-2,-4,-2,2,9,0,-1
1558439315627133,4,4,11,5,13,10,7,3
1558439315627133,-1,-6,-15,-27,-26,-23,-10,-3
1558439315635145,-1,-1,-3,3,7,-4,2,4
1558439315635145,-3,-3,-2,-2,1,-1,3,-1
1558439315642126,-1,-2,-6,2,-8,1,-4,-4
1558439315642126,1,0,-3,-13,2,6,1,-3
1558439315658498,1,2,9,6,8,0,4,4
1558439315658498,-5,-2,-5,-9,-4,-6,-3,0
1558439315660044,1,0,-1,8,-10,-6,-3,2
1558439315660044,2,1,3,-3,-5,-16,-5,-2
1558439315672352,-9,-3,-15,-3,-13,3,-6,-5
1558439315672352,-1,0,2,0,11,16,6,0
1558439315680990,-3,3,-5,-4,-8,-10,0,2
1558439315680990,-3,-4,4,11,-2,0,-2,-6
1558439315695287,0,1,-1,-6,6,9,5,0
1558439315695287,-1,-2,-10,-4,-10,-6,-11,-7
1558439315702284,0,-6,-9,-15,0,5,2,0
1558439315702284,-1,3,7,10,6,-3,4,2
1558439315718997,-1,-3,4,11,3,-7,-2,-4
1558439315718997,-4,0,-1,-1,-4,-6,0,2
1558439315720158,2,-2,-5,-7,-5,-8,-5,-3
1558439315720158,0,1,-1,10,8,9,1,1
1558439315740832,-1,-2,12,10,2,-4,-2,-1
1558439315740832,-4,-7,-20,-37,-22,-7,-5,-5
1558439315742211,-4,0,7,12,3,0,-3,-3
1558439315742211,-3,0,-7,0,-3,-7,-2,1
1558439315755908,2,3,0,0,3,-6,4,3
1558439315755908,1,1,14,19,8,10,-2,-3
1558439315761931,-1,-6,-15,-23,-7,2,2,-1
1558439315761931,-3,-1,3,1,4,-1,-1,-2
1558439315778891,2,-2,-3,-6,-8,-2,-6,-3
1558439315778891,3,2,11,4,6,-9,-5,0
1558439315779727,1,-1,-6,4,5,2,3,4
1558439315779727,-2,-2,0,0,-1,-7,2,0
1558439315791997,-2,-1,-3,-5,-5,6,1,1
1558439315791997,0,1,2,6,-4,-3,-6,-4
1558439315800667,0,1,7,-1,-2,1,-2,0
1558439315800667,-3,-2,1,0,5,-10,-6,0
1558439315814660,0,-1,-2,5,2,6,2,-1
1558439315814660,0,-1,-4,-2,-6,0,0,-1
1558439315821904,-2,2,7,-1,5,3,2,-3
1558439315821904,1,-2,-2,-3,-2,4,0,-3
1558439315839602,1,1,1,3,3,-3,-1,0
1558439315839602,-2,-1,-8,7,6,5,1,2
1558439315841071,-2,-1,4,-9,-6,-6,-1,-3
1558439315841071,-2,-1,4,9,-4,-6,-8,-4
1558439315852845,-4,-4,-5,-1,1,0,1,-3
1558439315852845,-3,-1,1,6,-1,-3,-3,0
1558439315860507,0,0,-4,-9,-1,4,0,-1
1558439315860507,3,1,-5,-8,2,8,11,5
1558439315883448,-3,-5,1,2,-14,-12,-10,-7
1558439315883448,0,-1,2,6,6,9,1,0
1558439315885447,0,-2,-5,0,2,-2,-3,0
1558439315885447,-2,0,1,1,-4,4,-4,-3
1558439315905758,2,2,-1,-2,-4,-3,1,2
1558439315905758,1,3,-5,-16,4,-8,4,2
1558439315907385,-3,-3,2,13,-3,-4,-5,-5
1558439315907385,-3,-5,-7,-5,-1,-1,-6,-3
1558439315912666,0,1,4,0,0,-4,0,-1
1558439315912666,1,0,-1,6,-6,-1,-1,-1
1558439315920754,3,2,-4,-10,0,1,3,2
1558439315920754,-2,-4,3,1,2,5,1,-2
1558439315935663,-3,-2,0,3,2,6,-3,-6
1558439315935663,-1,1,7,5,1,-1,0,-1
1558439315949603,0,0,-9,-12,-5,-15,0,1
1558439315949603,0,2,-1,4,1,10,1,-1
1558439315958600,1,3,5,-8,-2,-3,-2,-1
1558439315958600,1,0,-5,-16,-4,-2,0,0
1558439315959530,-4,-6,4,21,4,0,-3,-4
1558439315959530,0,-1,-3,-11,8,8,4,3
1558439315972244,-3,-4,-19,-23,-12,-1,-3,-4
1558439315972244,-1,-3,-12,1,-5,-1,-1,-1
1558439315981188,-3,0,10,7,0,-19,-5,-2
1558439315981188,-1,0,4,6,-4,-5,-4,-5
1558439315995523,-1,1,2,0,-4,-1,-5,-2
1558439315995523,-1,-3,1,3,5,5,5,0
1558439316002260,1,2,1,-2,-3,3,2,4
1558439316002260,1,1,-4,-5,1,-6,-3,1
1558439316018085,-1,-2,-3,-3,3,10,1,0
1558439316018085,-1,-1,0,4,3,2,3,0
1558439316019085,1,0,-5,-12,-2,-4,2,3
1558439316019085,2,0,1,3,-8,-12,-6,-2
1558439316032370,-8,-11,-10,-16,-5,-2,-10,-6
1558439316032370,-2,0,5,7,4,4,3,-1
1558439316041026,0,-1,0,2,2,-4,0,0
1558439316041026,0,1,-2,3,-3,-4,0,0
1558439316055376,3,5,5,11,2,-5,0,1
1558439316055376,-3,-4,-5,-11,-7,4,-4,-4
1558439316062332,-1,-3,-7,-5,-8,2,0,-3
1558439316062332,-2,0,0,2,1,-4,-2,2
1558439316078932,1,2,8,17,7,10,6,2
1558439316078932,-1,-1,1,-15,0,-4,-3,2
1558439316079962,-2,1,-2,10,9,9,5,4
1558439316079962,-1,1,4,2,3,1,0,-1
1558439316091923,0,-4,-11,-15,-3,-2,-2,0
1558439316091923,-1,1,3,5,-10,-8,-6,-4
1558439316100938,-1,-3,-5,-9,-5,-3,-7,-5
1558439316100938,-1,-4,-4,-4,-2,5,4,3
1558439316114829,1,3,4,11,4,-4,2,2
1558439316114829,-2,-2,-2,0,-2,-2,-4,-4
1558439316122151,4,1,1,1,11,14,4,3
1558439316122151,-2,-1,-13,-11,-15,-12,-6,-3
1558439316137767,1,-1,14,5,1,-11,2,2
1558439316137767,-2,-4,-5,-3,-6,-8,-5,-1
1558439316139762,-1,0,-2,-3,4,11,6,0
1558439316139762,-1,1,3,2,2,3,-1,-2
1558439316160706,-3,1,3,6,-5,-2,-5,-1
1558439316160706,0,-4,-6,-4,-2,-5,2,1
1558439316161736,0,0,9,8,2,-4,3,0
1558439316161736,-2,-4,-12,-17,-4,-8,-8,-4
1558439316190686,-3,-2,-2,-5,0,3,1,-4
1558439316190686,-2,-1,-4,-2,-5,-2,-1,-2
1558439316192942,-1,-2,-5,-6,-13,-3,-7,-4
1558439316192942,0,-1,3,4,15,12,5,4
1558439316205934,1,0,-1,-5,-4,-4,-2,1
1558439316205934,0,1,2,-8,-2,-2,-2,1
1558439316206583,-4,-5,-10,-9,-4,-2,2,-4
1558439316206583,1,-1,-4,-3,4,10,3,-2
1558439316211569,0,-1,-4,3,0,-3,-1,1
1558439316211569,1,2,5,6,5,0,4,2
1558439316228523,-3,-4,2,0,-8,-12,-9,-4
1558439316228523,1,1,2,5,-1,-6,-1,1
1558439316234888,-3,-2,-9,-10,3,15,7,1
1558439316234888,1,-2,7,12,3,-5,-2,-2
1558439316249468,0,1,2,-2,2,-1,-3,0
1558439316249468,0,1,7,8,2,-1,0,-2
1558439316258850,-3,-5,-15,-13,-12,-4,-7,-4
1558439316258850,-3,-1,0,3,-2,-1,0,-2
1558439316259441,-2,-2,-1,0,3,-4,-4,-2
1558439316259441,-3,-1,1,-9,-5,-2,0,0
1558439316272723,1,3,5,5,3,-2,0,1
1558439316272723,-3,-2,-2,1,-3,1,-2,-1
1558439316280799,0,0,-2,-4,-7,-8,-4,1
1558439316280799,0,-2,0,1,-1,5,6,1
1558439316295742,4,2,13,11,17,6,8,3
1558439316295742,-5,-8,-11,-11,-6,2,-4,-7
1558439316302613,0,-1,-1,2,-5,0,-5,-2
1558439316302613,0,-1,1,-9,-8,-14,-2,0
1558439316318338,-2,1,-2,1,-2,-1,-3,1
1558439316318338,1,1,0,-5,0,0,0,-2
1558439316324611,-2,-2,-9,-9,-1,9,0,-1
1558439316324611,-1,0,0,0,-5,-2,-5,-5
1558439316332570,0,2,11,11,4,1,2,0
1558439316332570,-2,-3,-14,-13,-4,-5,-1,0
1558439316340534,-1,-2,0,3,-4,2,-3,-4
1558439316340534,-2,0,4,10,-2,-2,-5,-3
1558439316363440,-1,-1,-16,-14,-1,-6,1,1
1558439316363440,0,1,4,2,5,-1,5,1
1558439316364163,-2,-3,-9,-3,-3,-10,-1,-1
1558439316364163,-2,-1,4,1,5,6,3,0
1558439316377128,-3,-4,-6,-4,-6,-5,-7,-6
1558439316377128,1,-1,-1,-4,-4,0,1,1
1558439316392424,-1,0,4,6,5,-2,2,1
1558439316392424,-1,-2,-3,0,-8,-6,-7,-3
1558439316393086,-1,-1,-7,-2,-6,-5,-7,-4
1558439316393086,-2,1,-2,-12,-1,6,3,1
1558439316401063,3,4,7,-4,1,2,4,2
1558439316401063,-5,-6,-8,0,-3,-4,-6,-3
1558439316415025,-3,-6,2,-1,-2,-1,-3,0
1558439316415025,-1,0,-2,5,-8,-3,-3,-2
1558439316422008,1,2,9,5,11,15,9,1
1558439316422008,1,0,1,0,3,-5,2,1
1558439316438345,-1,-1,-5,-6,-4,-4,3,0
1558439316438345,-3,-5,3,15,8,-4,-7,-2
1558439316443949,-1,-2,-4,-8,-9,-4,-2,-1
1558439316443949,0,-1,-4,-3,-1,8,-2,-3
1558439316468987,-1,-1,7,5,-7,-7,-5,-3
1558439316468987,1,0,-6,-6,7,3,5,2
1558439316470152,-1,-1,11,11,5,0,-2,0
1558439316470152,1,-3,-23,-19,-1,2,4,2
1558439316483189,-1,-3,2,4,-8,-9,-4,0
1558439316483189,-1,2,7,0,1,-1,-4,0
1558439316484838,-4,-2,7,15,3,-5,-2,-2
1558439316484838,-2,-2,-5,-1,3,0,-1,-1
1558439316506132,0,-1,-3,4,2,7,2,1
1558439316506132,2,2,-2,-19,-7,-3,0,1
1558439316507817,-2,-4,-13,-17,-8,-6,-4,-4
1558439316507817,-2,1,6,1,0,-7,-6,-1
1558439316528894,-1,-5,-9,-11,-9,1,1,-3
1558439316528894,-1,1,0,4,5,1,-1,-1
1558439316529722,2,3,8,6,3,1,2,1
1558439316529722,-2,-4,-3,-5,-13,-2,-5,-3
1558439316535807,0,-1,0,1,5,9,3,1
1558439316535807,2,4,10,1,10,15,9,4
1558439316549971,-4,-6,-11,2,-6,-8,-5,-1
1558439316549971,-3,-1,-9,-3,-6,0,-2,-2
1558439316557961,0,0,4,2,-2,-7,-5,-2
1558439316557961,-1,1,5,11,3,-4,1,0
1558439316564955,-1,0,-1,-5,7,9,1,-1
1558439316564955,-1,-4,-12,-18,-13,-5,-7,-1
1558439316580858,0,2,1,5,3,-10,1,0
1558439316580858,-3,-6,-8,-9,-8,-9,-1,-3
1558439316582577,-1,-1,3,6,4,2,4,1
1558439316582577,-3,-6,-7,-1,-5,1,-5,-7
1558439316594546,-2,-1,-11,-18,-6,2,-1,-1
1558439316594546,2,1,3,8,0,-4,-7,-1
1558439316602560,-3,-1,-6,-4,-2,3,1,0
1558439316602560,0,2,14,16,5,2,5,-1
1558439316617485,0,0,-9,-6,3,-3,-4,0
1558439316617485,1,0,-3,5,-1,0,-2,-1
1558439316624465,1,-2,-13,-27,-14,-9,-8,-4
1558439316624465,-2,0,7,8,9,13,7,3
1558439316641460,-1,3,4,0,0,0,0,-1
1558439316641460,6,-4,0,24,-5,-8,-7,-3
1558439316642660,-10,-2,0,-2,1,2,4,0
1558439316642660,-1,0,1,-7,4,1,-1,-1
1558439316655680,-4,0,7,5,2,0,3,-1
1558439316655680,0,1,1,4,7,1,2,1
1558439316669757,0,-3,1,4,-8,2,-3,-2
1558439316669757,1,2,1,3,1,-1,1,3
1558439316678361,1,-1,14,21,3,7,0,-1
1558439316678361,-3,-4,-22,-35,-12,-8,-2,-1
1558439316692649,2,0,0,1,3,1,-1,-2
1558439316692649,-1,-1,-8,-13,0,-5,2,1
1558439316700262,3,-4,-10,-10,-10,-2,-6,-4
1558439316700262,-4,-1,5,4,-8,0,-4,-2
1558439316702258,0,3,10,7,12,-3,4,4
1558439316702258,1,-1,1,-2,2,-7,-1,0
1558439316715669,-3,-3,-10,-15,-9,-2,-4,-4
1558439316715669,1,1,-1,-3,2,6,5,-1
1558439316722203,2,2,-4,7,1,-5,-2,-1
1558439316722203,-3,-5,-2,-5,-1,3,-2,-3
1558439316737558,2,2,14,7,7,1,6,2
1558439316737558,-5,-1,-1,-11,-7,0,-5,-2
1558439316744144,0,1,-5,6,-6,-3,-4,-1
1558439316744144,-1,-1,7,2,-1,-12,0,-3
1558439316760103,-2,-5,-14,2,0,-7,-7,-3
1558439316760103,-2,-2,0,5,-2,-2,-2,-1
1558439316762257,4,1,-2,-9,3,6,4,3
1558439316762257,-6,1,4,7,6,8,4,0
1558439316783392,-2,0,1,-9,-5,-6,-4,-2
1558439316783392,0,0,0,5,3,4,2,-1
1558439316784037,2,-3,-1,-2,-3,-5,-5,-2
1558439316784037,-1,-1,4,10,-3,-12,-7,-5
1558439316806379,-3,-3,-3,-5,-2,3,4,0
1558439316806379,-4,0,-4,-3,0,-4,1,-1
1558439316807999,-1,-3,-1,-4,-3,-1,-3,-3
1558439316807999,5,0,-3,2,-7,-2,-4,0
1558439316828917,-3,-1,5,4,0,1,-3,-4
1558439316828917,-2,-2,-1,-1,5,5,2,1
1558439316829919,-5,-5,-12,-9,-6,-4,4,-3
1558439316829919,0,3,7,6,3,1,1,0
1558439316835216,2,-1,-5,-17,-6,-4,-7,-3
1558439316835216,-4,-2,6,13,12,8,5,1
1558439316842218,-1,0,-6,-10,-4,-5,-1,1
1558439316842218,-1,-2,-7,-11,-7,0,-3,-1
1558439316858167,-3,-2,1,5,-1,1,-1,-2
1558439316858167,0,0,4,-1,-2,1,0,-3
1558439316864144,-2,1,5,2,-3,-2,-2,-3
1558439316864144,1,-2,-6,-11,-1,2,-1,0
1558439316881093,2,3,-3,-1,9,9,10,3
1558439316881093,-6,-4,1,4,-3,-8,-6,-4
1558439316881778,0,-4,0,-3,-8,-5,-7,-4
1558439316881778,0,2,0,1,-4,-3,-2,-1
1558439316895803,1,0,1,3,5,1,2,-1
1558439316895803,-8,-4,-15,-18,-8,-5,3,-1
1558439316902061,0,-1,1,1,-2,0,0,1
1558439316902061,0,-3,6,0,8,7,1,1
1558439316918000,-3,0,-1,-1,-7,-1,-2,-2
1558439316918000,1,-3,3,2,-4,-2,0,-3
1558439316924937,-2,-1,0,-2,-8,-9,-7,-5
1558439316924937,-1,-1,-8,-6,-3,3,0,-1
1558439316948916,0,-1,-4,2,-1,-8,-4,0
1558439316948916,0,3,6,4,10,12,2,2
1558439316949595,-3,-2,1,6,0,-7,-2,0
1558439316949595,0,-1,-2,0,-2,2,3,0
1558439316954940,-1,-2,-1,0,3,8,0,-1
1558439316954940,-1,-1,-1,-1,-9,-16,-8,-4
1558439316969903,1,1,6,12,3,6,1,2
1558439316969903,1,3,-4,-9,5,-13,-2,0
1558439316977520,-4,-3,9,7,-1,-6,-4,-3
1558439316977520,1,-3,-10,-2,1,1,2,-1
1558439316984841,-2,-2,3,-7,2,4,-1,-1
1558439316984841,-4,-4,-2,2,-9,6,0,-4
1558439317001483,-1,0,4,7,1,0,-2,1
1558439317001483,1,-3,-19,-8,-9,-3,-8,-1
1558439317002733,-2,-2,-7,-1,1,-5,-4,-2
1558439317002733,4,6,10,9,4,-3,1,2
1558439317014728,-6,-1,-1,-5,-1,-3,-3,-4
1558439317014728,0,-1,4,10,-1,2,0,1
1558439317023398,-1,-2,-8,-16,1,11,5,-1
1558439317023398,-2,0,0,8,1,0,-2,-1
1558439317037362,4,-2,-5,-8,0,-1,4,1
1558439317037362,-7,-1,7,-6,-2,-15,-7,-4
1558439317044342,-1,1,0,10,3,1,4,1
1558439317044342,-1,-2,-2,-7,-5,-1,-4,-4
1558439317060298,2,0,-3,-7,4,7,5,3
1558439317060298,1,0,7,8,-3,2,0,-3
1558439317062294,-3,-4,-5,-6,-5,-12,-7,-3
1558439317062294,-1,-3,-3,-2,2,3,0,-1
1558439317083273,-1,0,1,3,0,-5,-6,-3
1558439317083273,2,-1,-2,-2,-7,4,-1,-2
1558439317084239,0,3,1,-7,-6,-4,-2,-2
1558439317084239,0,-2,-3,-1,1,1,1,2
1558439317106525,0,1,3,4,-3,-6,-1,0
1558439317106525,3,-1,-8,-15,1,4,1,1
1558439317107176,0,1,8,6,1,-2,-1,1
1558439317107176,-6,-7,-12,-15,-6,-2,-8,-4
1558439317128496,-2,-2,-1,4,1,-3,-2,-1
1558439317128496,-1,1,2,4,0,0,-3,0
1558439317129116,-1,-1,-7,-5,-1,2,-2,-2
1558439317129116,0,0,3,5,3,6,7,1
1558439317134561,1,0,9,9,1,-5,-1,-1
1558439317134561,-1,-2,-8,-15,-5,-9,-2,-3
1558439317143082,-2,-1,1,1,1,2,-4,-3
1558439317143082,-3,0,0,2,4,13,6,1
1558439317158450,1,1,-3,-5,2,-4,0,0
1558439317158450,1,-2,-3,0,1,1,1,1
1558439317165176,-2,-3,5,13,0,-2,-4,-4
1558439317165176,-1,-1,-12,-15,-11,-6,-2,-3
1558439317181327,-2,0,4,6,0,5,-1,-1
1558439317181327,-1,-1,-3,-3,1,2,2,-1
1558439317181973,0,-1,-1,0,2,0,4,0
1558439317181973,-1,-4,-4,-9,-6,-8,-6,-4
1558439317193942,-1,-4,-4,-5,-4,-2,-3,-1
1558439317193942,-1,0,2,2,4,12,8,2
1558439317202918,-3,-1,-7,-11,-8,-2,-3,-4
1558439317202918,-1,1,19,25,9,-9,-5,-2
1558439317225855,-2,-6,-19,-24,-9,-1,-4,-4
1558439317225855,-2,-2,2,3,8,2,6,2
1558439317226853,1,-1,-4,-4,-1,-2,-3,1
1558439317226853,-1,2,4,6,0,-2,3,1
1558439317239817,-2,-1,4,9,-1,4,-2,-3
1558439317239817,-1,-2,-6,-22,-7,-4,-6,-4
1558439317246798,-1,-4,-6,-2,-4,-5,1,-2
1558439317246798,-3,-5,-4,-2,-6,-7,-5,-3
1558439317253781,0,0,-2,0,5,10,7,3
1558439317253781,4,3,7,12,4,-2,1,3
1558439317263217,-2,0,-2,4,5,6,0,0
1558439317263217,-1,-3,5,-2,0,-2,0,-1
1558439317277718,1,0,-5,-7,-3,2,-3,-2
1558439317277718,-1,-1,5,7,-2,-2,-4,-1
1558439317285151,3,-3,-4,-10,-5,-6,-1,-1
1558439317285151,-2,1,3,5,6,12,7,1
1558439317300804,-4,-2,-7,-2,0,-8,-1,-3
1558439317300804,0,0,0,1,-3,-4,-1,-1
1558439317306986,-3,-3,6,-2,-2,3,-4,-1
1558439317306986,-1,-1,-3,-3,-8,-8,-6,-4
1558439317314976,0,-1,3,0,1,3,6,2
1558439317314976,-2,1,0,-2,-3,-6,-5,-3
1558439317323595,-2,-4,-3,-2,-5,2,1,-2
1558439317323595,0,0,-4,-3,0,-3,1,1
1558439317337900,0,2,2,4,4,-2,-2,1
1558439317337900,-1,-3,1,-2,3,-2,0,-2
1558439317344539,-2,0,-1,1,0,3,1,0
1558439317344539,0,0,-2,-5,0,6,-1,-3
1558439317359500,-1,-1,-2,3,-7,-8,-2,-3
1558439317359500,-4,-5,-3,-5,-3,3,-2,-4
1558439317366620,-1,-1,2,4,3,-7,-3,2
1558439317366620,0,2,-2,-9,3,3,5,3
1558439317374818,-1,0,-4,-5,-6,-5,-3,-2
1558439317374818,-2,-1,0,9,-4,1,-2,0
1558439317383433,-2,-2,-3,-11,-5,-5,-2,-2
1558439317383433,1,0,3,4,-8,-4,-7,-3
1558439317397706,-4,-4,-14,-20,-6,-11,-5,1
1558439317397706,1,0,1,1,8,12,7,1
1558439317404679,-1,0,6,5,3,5,-4,-1
1558439317404679,-2,1,2,3,-1,-7,1,-2
1558439317420603,0,-3,-2,-4,-3,3,-2,-2
1558439317420603,0,-1,-4,-4,0,-6,-6,-3
1558439317426327,0,-1,0,6,4,-4,3,1
1558439317426327,-1,-1,-4,-3,-6,0,-6,-3
1558439317450256,-3,-2,4,6,0,8,0,-1
1558439317450256,0,2,1,3,1,-12,-1,1
1558439317452253,-1,1,1,-5,-5,0,1,0
1558439317452253,-3,-4,-10,-10,-8,-7,-5,-2
1558439317458241,0,1,1,-2,-3,6,-1,-3
1558439317458241,0,-1,-1,-4,-5,-4,-4,-1
1558439317464465,0,-1,2,6,12,11,7,2
1558439317464465,1,-1,0,4,1,1,3,1
1558439317480175,-2,0,3,2,2,-4,-1,1
1558439317480175,-4,-1,-7,0,-5,-4,-5,-2
1558439317487155,-2,-4,-11,-21,-13,-10,-11,-7
1558439317487155,-1,-2,-2,-5,5,9,8,2
1558439317503633,2,0,9,9,3,-7,-2,-2
1558439317503633,1,4,3,7,7,4,7,1
1558439317504113,-2,-2,-10,-17,-9,-5,-5,-2
1558439317504113,-1,-1,7,14,3,-5,-7,-3
1558439317518313,-4,-2,-3,-6,-9,-1,-1,-3
1558439317518313,-1,-3,4,0,0,2,-3,0
1558439317525154,0,0,-7,2,-1,-4,2,-1
1558439317525154,1,-3,3,3,6,7,4,2
1558439317540438,2,3,-2,1,-3,-6,-3,0
1558439317540438,1,-1,-3,-10,-8,-6,-5,-1
1558439317547449,0,4,7,6,5,6,4,0
1558439317547449,-3,-1,-3,-6,-9,-10,-6,-4
1558439317564116,2,0,4,4,7,11,3,1
1558439317564116,-1,1,1,-7,-8,-16,-4,-1
1558439317565001,-2,-5,2,7,3,8,0,-2
1558439317565001,-1,-2,-8,2,2,-7,0,0
1558439317576916,1,-7,-8,-12,-2,1,-1,-2
1558439317576916,1,0,5,15,4,0,0,0
1558439317583898,0,1,1,-7,-6,-4,-4,-3
1558439317583898,0,0,-5,0,-3,-11,-2,0
1558439317599853,-5,-3,1,3,-2,3,-3,-3
1558439317599853,-2,-2,5,2,-5,8,0,-4
1558439317606837,0,0,-7,1,3,-1,2,0
1558439317606837,0,-4,-3,-4,6,6,0,2
1558439317622792,1,1,-3,-2,-4,-7,-1,0
1558439317622792,-3,-2,2,-7,-4,11,-3,-5
1558439317624787,-2,0,-5,-3,-3,-1,-3,1
1558439317624787,1,-1,-2,-4,0,-8,-1,-1
1558439317637755,-3,-2,-3,1,-4,-8,0,-2
1558439317637755,-1,-2,-4,-2,8,9,3,1
1558439317643738,2,2,-3,-8,0,-3,2,2
1558439317643738,-3,-2,4,1,-2,-2,-8,-2
1558439317659695,0,-1,-1,-1,-2,0,-2,-1
1558439317659695,-3,-2,-5,0,-6,-6,-9,-6
1558439317666677,-1,1,-2,7,0,-3,1,0
1558439317666677,-4,-5,6,8,5,10,2,-3
1558439317683101,1,0,1,-6,2,3,3,1
1558439317683101,2,-1,5,5,0,-13,-4,-1
1558439317684628,-1,-2,-8,-10,-11,-6,-3,-1
1558439317684628,4,3,-4,-13,-3,5,0,1
1558439317698099,-5,-1,-3,0,3,1,-6,-3
1558439317698099,-3,-2,-3,3,4,0,6,0
1558439317704580,-1,1,5,5,5,7,3,-3
1558439317704580,-1,-1,1,-2,-4,2,6,1
1558439317719535,3,1,3,8,8,-6,4,6
1558439317719535,-1,0,-7,-5,-2,-6,-4,0
1558439317726515,-2,-4,-2,5,2,1,-2,-1
1558439317726515,0,0,-2,2,-6,4,-3,-4
1558439317743477,0,0,2,-1,-1,-1,-2,-2
1558439317743477,-1,-2,-5,-4,-5,-3,-3,-1
1558439317744470,-1,-4,1,-3,-4,0,-5,-3
1558439317744470,-1,2,-1,-2,0,5,-3,-1
1558439317757433,0,1,-4,-13,-3,-3,6,2
1558439317757433,1,-2,-3,1,1,-16,4,1
1558439317764414,2,1,6,5,-1,0,-5,-1
1558439317764414,0,-1,-2,-5,0,5,2,2
1558439317780507,-3,-2,3,12,0,-2,-6,-3
1558439317780507,-1,1,-7,-7,-5,3,0,-1
1558439317786359,-2,-1,3,4,6,0,2,2
1558439317786359,-2,-1,-3,-4,-2,-4,-6,-3
1558439317803619,-1,-2,2,6,-3,0,-2,-1
1558439317803619,0,-3,-3,-14,4,9,2,0
1558439317804308,0,-2,-5,-3,-9,-13,-7,-2
1558439317804308,-3,-1,-4,0,1,2,0,-2
1558439317817273,0,1,4,-1,0,6,4,0
1558439317817273,-2,-3,-1,3,0,-12,-4,0
1558439317824512,-1,-2,4,0,-2,-4,1,-2
1558439317824512,-1,-5,-9,-7,-9,-9,-4,0
1558439317840271,-1,-1,-1,-3,6,11,1,-1
1558439317840271,-2,-2,-1,-1,-3,3,0,-2
1558439317847447,-1,1,3,2,0,-1,4,0
1558439317847447,1,3,8,13,4,-9,-4,-1
1558439317863150,1,0,-2,1,-4,1,-4,-5
1558439317863150,-3,-4,-8,-18,-14,-5,-6,-2
1558439317864149,0,1,1,3,11,5,1,2
1558439317864149,-2,-3,-3,-1,2,4,6,0
1558439317877116,-3,-1,-4,-1,0,4,3,0
1558439317877116,-2,1,1,3,-5,-12,-12,-4
1558439317884094,1,0,-1,-3,-1,5,-4,-2
1558439317884094,3,3,10,2,-5,-6,-1,-1
1558439317900053,-2,-4,-10,0,1,-5,0,0
1558439317900053,-4,-5,-5,-3,-4,6,-1,-4
1558439317907326,-1,-3,0,-2,-2,-3,-2,-2
1558439317907326,0,0,2,-2,3,2,6,3
1558439317922995,-2,0,6,3,2,-7,0,1
1558439317922995,-2,-1,3,4,0,9,5,0
1558439317924985,-1,-2,-4,-1,-5,-3,-2,-3
1558439317924985,-2,-3,-4,-3,-5,-3,-6,-2
1558439317936998,-3,-3,-5,-10,-10,-2,-4,-6
1558439317936998,1,4,7,4,18,3,4,4
1558439317945936,0,0,-7,-3,1,-1,4,1
1558439317945936,-3,-5,6,9,-7,-10,-3,-2
1558439317959892,-4,-5,-5,-4,-3,-1,-5,-4
1558439317959892,-3,-3,-11,-15,-6,0,-2,-2
1558439317966874,-1,2,4,2,1,2,0,1
1558439317966874,-1,-5,-2,-5,1,-3,-3,-1
1558439317983027,2,2,1,9,-2,-13,-4,0
1558439317983027,1,2,2,-7,-1,8,-1,0
1558439317984828,-1,1,4,4,6,-1,3,1
1558439317984828,-5,-7,-13,0,-7,-6,-5,-4
1558439317996794,0,-1,-2,-11,-5,-2,-3,-1
1558439317996794,-1,-1,-2,3,4,12,4,1
1558439318005770,-2,-2,3,-2,-5,-7,-3,-3
1558439318005770,1,1,3,2,8,10,2,1
1558439318019732,0,0,-3,-7,-4,-5,-2,0
1558439318019732,-2,-2,-2,-1,-5,-15,-7,-6
1558439318026718,0,-2,-1,3,4,8,4,1
1558439318026718,1,1,1,5,5,5,4,0
1558439318042679,1,-2,-8,-22,-7,5,0,0
1558439318042679,-4,-4,-1,6,-4,-7,-4,-1
1558439318044670,-1,-2,5,8,8,4,6,3
1558439318044670,-1,-1,-7,-10,-5,-7,-3,-2
1558439318056633,1,-2,0,2,3,8,2,-4
1558439318056633,1,0,3,7,-4,-4,0,-1
1558439318065609,-2,-1,-6,-12,1,6,-3,0
1558439318065609,-1,3,1,-2,-2,-8,-4,-2
1558439318079572,-2,0,3,11,0,-5,-6,-2
1558439318079572,1,0,-10,-4,2,4,6,1
1558439318086553,-5,-3,2,-1,-11,-4,-7,-5
1558439318086553,3,3,1,0,5,0,4,0
1558439318103605,-4,-4,-3,0,0,2,3,1
1558439318103605,2,-1,7,6,2,-3,-3,-2
1558439318104505,-2,-1,-6,-5,-2,-3,-1,-1
1558439318104505,-3,-4,-5,-5,-4,-2,-2,-3
1558439318125599,1,-1,5,2,-3,-3,-6,-4
1558439318125599,-1,-1,-6,-5,-3,0,3,1
1558439318127446,2,-3,-13,-27,-2,1,3,-2
1558439318127446,-2,-2,0,1,-2,-1,-2,0
1558439318139587,-1,-2,-6,0,-2,-7,-4,1
1558439318139587,-3,-1,1,-4,-5,1,-10,-3
1558439318146395,-1,1,7,14,4,1,4,1
1558439318146395,-1,-1,-4,-6,2,-2,4,1
1558439318162351,0,-2,0,-3,1,2,0,-2
1558439318162351,2,0,3,5,0,-1,0,-1
1558439318169330,-1,-1,0,-1,-2,0,-1,-3
1558439318169330,0,-1,3,-4,-5,-2,1,1
1558439318176314,-1,2,-7,-1,1,-5,-1,-1
1558439318176314,0,0,2,-4,0,-2,2,-2
1558439318185290,-4,-6,-5,9,1,-2,-5,-4
1558439318185290,-1,-1,-2,-2,-1,0,-1,-1
1558439318200249,1,1,3,9,3,2,0,2
1558439318200249,0,0,-2,-6,-4,-6,-1,-1
1558439318214217,-1,-1,-1,-1,-5,-7,-7,-2
1558439318214217,0,-1,1,1,3,5,-3,-1
1558439318222220,-1,-1,-1,-7,-4,-17,-2,1
1558439318222220,-2,-3,2,8,-2,-2,1,0
1558439318229171,0,1,2,0,4,11,4,0
1558439318229171,-4,-3,-4,-2,-9,-3,-5,-2
1558439318237149,-4,0,-2,1,4,8,1,1
1558439318237149,-1,1,-2,-2,-1,-2,1,1
1558439318245163,-2,-1,-4,1,-4,1,1,-2
1558439318245163,0,-1,0,-17,-3,-1,-3,-1
1558439318260089,-4,-5,1,10,4,-7,0,-2
1558439318260089,-1,-1,-4,-1,-4,-12,-4,-1
1558439318267070,1,-1,-1,0,3,12,6,2
1558439318267070,3,0,0,2,-5,-3,-4,-3
1558439318282030,1,1,1,0,-2,-3,2,-1
1558439318282030,-1,0,1,6,11,8,-1,0
1558439318289011,0,-1,-2,-12,-13,-23,-8,-1
1558439318289011,-1,-2,-2,-3,-1,5,-4,-3
1558439318297003,2,1,0,0,0,3,6,2
1558439318297003,-2,-1,-1,-1,-2,-4,-6,0
1558439318305966,0,2,3,2,4,4,1,-1
1558439318305966,-2,-2,0,10,2,2,1,0
1558439318319929,-3,-3,-7,-10,-8,-2,-4,-2
1558439318319929,1,3,6,5,5,7,5,-2
1558439318333893,-3,-1,-7,-4,-3,-5,-3,-1
1558439318333893,0,2,12,15,12,4,9,3
1558439318341871,-1,-3,-10,-13,-9,2,-2,-3
1558439318341871,-4,-4,-6,4,-5,-7,-2,-3
1558439318348850,-1,-2,7,3,2,-3,-5,-2
1558439318348850,0,1,-6,-7,-5,-4,-2,-1
1558439318372792,-2,-1,3,-7,-3,0,-2,-2
1558439318372792,-3,0,-4,-3,6,8,2,0
1558439318374785,-2,-2,3,1,-11,-6,-6,-1
1558439318374785,-3,-1,-5,-4,-1,5,1,-1
1558439318379774,2,-1,3,9,8,6,6,3
1558439318379774,0,-1,-1,-2,0,-5,-1,0
1558439318386751,2,0,-3,-4,0,0,-5,-4
1558439318386751,1,2,6,10,4,-2,3,1
1558439318402711,-2,-1,-7,-8,-5,6,-3,-2
1558439318402711,-1,-3,3,3,7,-1,3,-1
1558439318409691,0,-1,-2,1,-5,-6,-1,-3
1558439318409691,-3,-4,2,3,-2,0,-6,-4
1558439318425650,-1,-2,-1,-5,0,-3,1,0
1558439318425650,1,-2,-5,-9,-1,-3,2,2
1558439318426644,1,-1,0,-1,-3,-1,-2,-3
1558439318426644,-1,-1,-8,-7,-5,-6,-8,-5
1558439318439609,-1,0,4,4,5,3,2,2
1558439318439609,0,0,1,-6,-8,-7,-5,1
1558439318446596,-3,-2,-3,5,2,5,4,1
1558439318446596,0,-1,-7,-10,-4,-7,0,1
1558439318462548,-2,-2,2,1,-4,-3,-7,-5
1558439318462548,-3,-3,-4,-1,2,9,4,-3
1558439318469529,0,3,5,5,1,-5,5,2
1558439318469529,-1,-3,-1,-5,0,-3,-4,-2
1558439318485490,-1,0,-4,-13,-8,-1,-6,-1
1558439318485490,-2,-5,-5,-6,-7,1,-7,-3
1558439318487481,-2,0,-1,-4,2,0,2,1
1558439318487481,0,-1,3,5,-2,-1,1,-1
1558439318499454,1,2,6,6,1,-14,-2,1
1558439318499454,1,-1,-4,-6,-4,2,-3,-4
1558439318514409,0,-3,0,-1,0,4,0,-1
1558439318514409,-1,-1,-4,-3,2,4,2,-2
1558439318522388,0,-2,4,7,-9,-11,-6,-3
1558439318522388,1,0,-1,-3,8,-3,2,4
1558439318529370,1,-1,1,6,3,-4,2,2
1558439318529370,-3,-2,-3,-5,-9,1,-1,-3
1558439318545328,0,0,-3,0,8,11,2,-1
1558439318545328,0,0,3,6,-6,1,-2,-2
1558439318547321,1,-2,-3,-5,-4,-3,-7,-1
1558439318547321,0,0,-4,-10,-1,-6,6,1
1558439318560289,-1,-1,-2,3,4,6,1,-1
1558439318560289,-2,0,3,3,2,0,1,-2
1558439318567273,-2,-2,-6,-4,-6,-7,-5,-2
1558439318567273,-3,0,-2,1,-3,1,-2,-1
1558439318582227,-2,-1,9,5,1,-1,5,0
1558439318582227,-1,-2,-12,3,5,-12,-2,1
1558439318589209,-3,-1,0,-6,-2,-3,1,-1
1558439318589209,-2,-4,-10,-5,-8,0,-1,0
1558439318605166,-1,-1,1,-3,-2,-2,0,0
1558439318605166,1,2,6,-1,-4,1,-3,-1
1558439318607160,-4,-3,-4,0,-2,-4,-5,-5
1558439318607160,2,-1,-3,2,4,1,-1,0
1558439318620125,-1,-2,0,-3,2,-2,3,1
1558439318620125,-2,-1,0,0,-5,3,0,-4
1558439318627107,-2,-2,-3,-2,-7,-3,-3,-3
1558439318627107,3,0,3,5,9,3,2,2
1558439318642067,1,1,-6,2,1,6,0,-2
1558439318642067,-1,0,-1,-11,-6,0,0,1
1558439318657026,-1,4,12,15,13,4,3,2
1558439318657026,-2,-2,-11,-17,-9,-4,-4,-4
1558439318665006,-2,0,7,6,-1,-2,-7,-2
1558439318665006,-1,-3,-4,-9,-3,-7,0,0
1558439318667000,1,-2,-2,-4,1,7,0,0
1558439318667000,-1,-1,6,4,1,-4,-3,-4
1558439318679965,0,-2,-7,-7,-3,-2,-2,-2
1558439318679965,-3,-1,3,3,-1,2,-2,-1
1558439318686946,1,1,1,-1,7,14,11,0
1558439318686946,-3,0,5,9,4,-13,-2,-1
1558439318701907,-3,-4,-8,-7,-9,-6,-5,-3
1558439318701907,0,-3,-4,-3,0,1,-2,-2
1558439318709886,-1,-2,-6,-8,-8,-6,-3,-1
1558439318709886,-1,0,-5,-7,-5,-1,-2,-3
1558439318725844,-1,-3,0,5,3,1,-1,-3
1558439318725844,-1,-1,-1,-6,2,3,3,2
1558439318726843,-2,-4,-2,9,-2,-11,-7,-4
1558439318726843,-3,-1,-2,-16,2,11,7,3
1558439318739806,-1,1,-9,-8,-3,-1,0,0
1558439318739806,-2,-2,-1,5,1,3,0,-2
1558439318746792,-1,0,1,-1,0,2,1,3
1558439318746792,-2,-2,2,7,-6,-11,-9,-3
1558439318762745,2,1,2,5,11,5,9,4
1558439318762745,1,3,6,5,5,3,5,1
1558439318768729,0,0,-4,-13,-3,1,1,-1
1558439318768729,0,-1,5,7,-3,-10,-7,-3
1558439318785687,-2,-2,-4,-8,-7,-5,-4,-2
1558439318785687,-1,-2,3,1,0,3,1,-4
1558439318786681,-3,-6,-20,-8,-6,2,-3,-2
1558439318786681,-2,0,4,9,3,5,3,-1
1558439318799648,-5,-5,-8,-16,-6,-3,1,-2
1558439318799648,0,1,4,5,-2,-7,-4,-1
1558439318806626,2,1,0,-4,-1,3,-2,-2
1558439318806626,0,-2,0,6,-4,-1,-2,-1
1558439318822590,-2,-1,-2,-2,-1,-1,-3,-3
1558439318822590,-2,-2,-3,0,7,10,1,1
1558439318829564,-3,1,-2,-11,-7,-5,-2,0
1558439318829564,-1,0,6,8,4,-3,-3,-1
1558439318845535,-1,3,5,2,6,1,4,1
1558439318845535,-2,-2,-1,-1,-11,-6,-7,-5
1558439318846520,-1,-2,-3,0,6,4,0,-1
1558439318846520,1,1,-1,0,5,1,3,4
1558439318859542,0,0,4,9,1,-6,-8,-2
1558439318859542,-3,-1,-3,-2,-7,-2,-5,0
1558439318868463,1,-2,5,2,-1,1,4,0
1558439318868463,-1,0,-4,-5,-7,-5,-3,-2
1558439318882426,0,0,4,7,7,1,2,-1
1558439318882426,1,0,-2,0,-2,-3,0,1
1558439318889410,-3,-2,-6,-16,-10,-9,-9,-6
1558439318889410,1,-2,-3,-3,3,0,0,1
1558439318913343,0,2,2,0,-2,2,2,0
1558439318913343,-4,-3,-1,1,-3,1,-1,-3
1558439318914340,-1,1,3,2,2,-4,5,1
1558439318914340,0,0,6,9,5,-3,3,3
1558439318919333,-1,-1,-9,-14,-11,-9,-8,-4
1558439318919333,0,1,-4,4,5,5,5,1
1558439318935283,2,2,2,5,5,2,2,2
1558439318935283,-4,-5,-8,-24,-4,-4,-8,-6
1558439318942268,-2,-4,-6,3,-12,-12,-9,-2
1558439318942268,3,-1,1,2,3,-6,1,2
1558439318956238,-1,1,2,2,1,0,-3,-2
1558439318956238,0,1,0,0,-2,7,3,-1
1558439318965208,-2,-1,3,0,3,7,4,1
1558439318965208,-2,-1,-2,-3,-5,-13,-9,-2
1558439318967200,0,0,1,-2,4,4,1,2
1558439318967200,-1,0,-6,-8,-5,1,4,0
1558439318979165,-2,-4,-8,-5,-11,-4,-4,-5
1558439318979165,-1,-1,-1,-2,2,-3,-1,-2
1558439318988141,-2,-1,5,12,6,13,6,3
1558439318988141,-2,-4,-3,-2,-5,-7,-4,-1
1558439319002105,-1,-2,-7,-6,1,1,-1,1
1558439319002105,1,3,4,3,9,2,3,0
1558439319009086,-3,-4,-8,1,-8,-9,-8,-4
1558439319009086,0,-1,-2,-7,-2,3,1,-1
1558439319026041,0,2,1,0,-1,-2,0,1
1558439319026041,0,-2,0,-5,2,-9,2,1
1558439319027043,0,0,-5,2,-1,-4,-2,-3
1558439319027043,-2,-2,1,5,1,0,-5,-4
1558439319039006,1,-2,1,1,-1,8,-1,-2
1558439319039006,0,-1,1,-3,-7,-7,-4,1
1558439319047982,-1,-3,1,-1,0,-3,0,-1
1558439319047982,0,2,-2,7,2,5,2,0
1558439319070921,0,0,-3,-10,11,-2,4,3
1558439319070921,-1,-2,-4,-2,-4,11,1,-2
1558439319071927,-6,-4,0,-4,-13,-9,-11,-5
1558439319071927,0,2,4,5,5,4,2,-1
