timestamp,emg1,emg2,emg3,emg4,emg5,emg6,emg7,emg8
1558439167014905,-1,1,2,-7,0,-2,-1,1
1558439167014905,1,0,-1,1,-1,2,-1,-2
1558439167015903,-4,-2,0,5,-1,-2,-4,-2
1558439167015903,-2,-3,0,-7,-5,-3,-3,-4
1558439167016900,-1,-3,-2,3,-1,-3,-3,-2
1558439167016900,-1,0,-5,-8,-1,-4,3,1
1558439167028868,-2,-2,-4,-6,-2,-3,-3,-3
1558439167028868,0,0,2,-12,0,4,-2,1
1558439167031860,0,0,3,15,-2,-3,2,0
1558439167031860,-3,-2,-1,-1,-6,-4,-3,-1
1558439167034852,-3,0,1,-5,-6,-4,-5,-4
1558439167034852,-2,-1,-3,6,1,1,4,-1
1558439167042831,0,3,-3,2,9,5,4,1
1558439167042831,-1,0,4,0,1,-3,0,0
1558439167058788,-2,-3,-3,3,0,0,-4,-1
1558439167058788,1,-1,-2,-3,-6,-6,-4,-1
1558439167064772,1,-1,10,7,6,2,-2,-3
1558439167064772,-1,0,-11,-15,-4,-5,0,2
1558439167072750,-1,2,4,-1,-1,4,3,-1
1558439167072750,-2,-1,-7,4,-3,-2,-2,-3
1558439167087710,1,0,0,-11,-6,2,-3,2
1558439167087710,-2,-2,6,16,4,-1,-1,-7
1558439167094692,-3,-3,-13,-11,-3,-3,1,3
1558439167094692,1,0,4,2,9,6,6,3
1558439167133587,-1,-3,4,20,-4,-4,-2,-3
1558439167133587,-3,-4,-1,-13,-8,-3,-6,-4
1558439167148548,2,1,2,-1,5,5,2,1
1558439167148548,1,2,0,-3,5,-2,1,1
1558439167149545,0,0,-4,-4,-2,-4,0,3
1558439167149545,-3,-4,-5,-2,-2,-5,-3,-4
1558439167150543,0,-4,-7,1,-1,6,1,1
1558439167150543,-3,-2,0,3,-6,-4,-3,-2
1558439167154532,-1,-1,2,-11,1,-1,0,-6
1558439167154532,2,3,1,8,-2,-1,0,0
1558439167169491,-3,-1,1,4,-3,-7,-7,-2
1558439167169491,0,0,-3,0,3,3,5,2
1558439167177470,-1,0,-4,-4,1,3,-1,2
1558439167177470,0,0,5,8,6,5,7,1
1558439167184452,0,-2,2,-2,-1,-3,0,0
1558439167184452,1,-1,-2,-6,-4,2,-4,-2
1558439167191433,-4,-3,0,1,-5,-2,-6,-3
1558439167191433,-1,-2,-3,-2,-3,-7,-4,-1
1558439167200409,1,2,5,-2,4,-2,1,-3
1558439167200409,-3,-3,-9,-1,-3,-2,-3,-1
1558439167214371,0,-3,-9,-1,0,2,1,0
1558439167214371,-3,-3,-4,-13,-5,-3,-1,-2
1558439167223347,-3,0,2,0,-3,-2,-5,-4
1558439167223347,-1,2,5,2,1,-4,2,0
1558439167229331,0,0,0,1,2,-3,0,-1
1558439167229331,2,2,5,4,1,7,0,1
1558439167244291,1,-1,-7,3,1,0,3,-2
1558439167244291,-3,-2,-6,-12,1,2,-2,-1
1558439167251272,-3,-1,-1,-7,-6,1,-6,-2
1558439167251272,0,-1,-5,3,-1,0,-3,-1
1558439167260248,1,1,3,8,3,-2,5,4
1558439167260248,-1,-2,0,-11,-6,-2,0,-3
1558439167274210,-1,-2,4,7,1,1,0,-2
1558439167274210,0,-1,-1,0,2,1,-3,-2
1558439167283187,0,-2,-7,-13,-3,-3,-5,-2
1558439167283187,-1,1,12,17,4,1,3,1
1558439167289171,-2,-3,-10,-19,-6,-3,-1,-2
1558439167289171,-4,-5,1,9,1,-5,-2,0
1558439167304130,0,-1,-8,-10,-3,3,-7,-3
1558439167304130,0,-4,5,6,-1,-3,-5,-1
1558439167312111,0,0,3,6,-3,-2,-2,-1
1558439167312111,2,1,-2,-10,1,8,6,1
1558439167321085,-1,0,1,1,-2,-2,-4,-1
1558439167321085,-2,0,-2,2,-1,-1,1,-4
1558439167334052,-1,-4,-5,-4,-1,-3,-5,-3
1558439167334052,-2,-3,-2,-2,-1,0,0,-2
1558439167343027,-3,1,4,8,1,-4,-4,-1
1558439167343027,0,2,1,-3,-2,2,-4,-2
1558439167349011,-2,-2,-4,-4,4,0,4,-1
1558439167349011,1,-2,-4,-3,-3,-3,-3,1
1558439167363972,2,1,0,-2,3,3,12,2
1558439167363972,-3,-3,4,7,0,0,-3,-1
1558439167371950,-1,0,-2,1,-5,-6,-2,-5
1558439167371950,-2,-1,5,6,-2,-8,-3,-1
1558439167380926,-2,-3,-7,2,3,7,1,-2
1558439167380926,2,1,9,10,-2,-3,1,0
1558439167393891,-2,-2,-10,0,2,3,0,-2
1558439167393891,-1,-2,-6,-17,0,-2,2,0
1558439167402867,-1,-2,0,1,-6,-3,-1,0
1558439167402867,0,1,0,7,7,6,3,-1
1558439167408852,1,0,5,3,-3,0,-6,-2
1558439167408852,3,4,6,8,3,-1,0,1
1558439167423811,-1,-7,0,4,3,-2,1,-2
1558439167423811,-4,-4,-18,-23,-8,-3,-8,-2
1558439167431790,2,0,7,6,2,1,3,2
1558439167431790,-1,1,-9,-17,-8,6,-2,-2
1558439167440766,-2,-2,2,9,2,2,-1,-1
1558439167440766,1,1,-3,1,2,-4,-2,2
1558439167454728,0,4,7,7,4,-3,0,0
1558439167454728,-5,-1,-5,-3,-3,-3,-8,-3
1558439167462707,-1,-1,7,1,-5,-5,-2,-2
1558439167462707,0,-5,-14,-11,-7,-1,1,-2
1558439167469691,0,-2,-4,-6,-3,-1,-1,-2
1558439167469691,1,2,3,3,5,-1,0,0
1558439167484651,-4,2,1,2,-4,-5,-7,-4
1558439167484651,-3,-4,-12,-2,-1,-1,-2,-3
1558439167491629,-1,0,10,4,1,3,4,1
1558439167491629,1,-2,0,14,-2,-4,0,-3
1558439167500605,-1,-2,-8,-23,-5,-3,-6,-1
1558439167500605,1,0,-2,-1,-2,0,3,1
1558439167514568,-1,-1,-4,1,0,-4,-4,1
1558439167514568,-2,-2,0,-7,-5,-5,-4,-2
1558439167523544,0,-1,4,7,5,6,3,1
1558439167523544,-1,0,-1,-6,-1,0,0,-1
1558439167537506,2,5,5,3,3,-5,0,1
1558439167537506,-5,-4,-5,4,1,5,5,-2
1558439167544488,-1,-1,-3,-8,-10,-9,-3,0
1558439167544488,-3,-4,7,7,-4,-2,-7,-2
1558439167560446,-3,-1,3,3,0,-2,0,-4
1558439167560446,-2,2,8,2,7,2,0,-3
1558439167562442,-3,-7,-36,-30,-14,-2,0,-1
1558439167562442,0,-1,10,17,8,-2,-2,1
1558439167574408,2,-1,-5,-27,-10,-5,-4,1
1558439167574408,-2,-2,0,5,-3,-4,0,0
1558439167583384,0,-4,0,4,0,-4,-2,-3
1558439167583384,-1,0,3,-3,-5,-4,-1,1
1558439167589370,-3,1,-1,6,5,8,6,1
1558439167589370,-2,-2,-7,-18,-4,2,-3,-2
1558439167604329,-2,-2,0,-1,2,0,1,0
1558439167604329,-1,0,3,1,0,2,3,-2
1558439167611310,2,0,9,18,9,4,3,1
1558439167611310,0,-1,-13,-29,-4,0,-1,0
1558439167626269,0,2,-4,-3,-5,-4,1,1
1558439167626269,-1,2,1,-7,-2,-4,-4,-3
1558439167634249,0,2,0,-1,-1,8,0,1
1558439167634249,0,-3,4,13,0,-5,-6,-1
1558439167643224,-2,0,2,-1,-1,-1,1,1
1558439167643224,0,-1,-1,9,1,-3,-1,-3
1558439167657187,-1,-2,-2,-18,-2,2,-1,-2
1558439167657187,-2,-3,-5,1,3,-6,0,-3
1558439167664168,4,4,13,10,-1,3,-1,0
1558439167664168,-10,-5,-16,-18,-8,-3,-4,-5
1558439167672146,-1,-3,-3,5,-6,-7,-4,-4
1558439167672146,3,3,8,12,5,11,2,0
1558439167687114,0,2,7,5,9,2,0,1
1558439167687114,0,1,0,-8,-3,0,0,-1
1558439167694093,-1,-4,-11,-7,-9,-4,-5,-1
1558439167694093,-1,0,2,5,0,-1,0,2
1558439167703064,-2,-3,0,3,2,-1,1,0
1558439167703064,1,1,10,14,6,3,4,2
1558439167709048,-4,-3,-11,-21,-5,-5,-7,-3
1558439167709048,0,2,-5,-1,-5,-5,-1,1
1558439167724008,-2,-1,-14,-5,-7,-4,-6,-4
1558439167724008,2,0,3,2,2,-3,-1,2
1558439167731987,0,-2,6,10,6,3,0,-1
1558439167731987,-1,-1,-2,-7,-2,0,-1,-1
1558439167747944,-2,-2,0,1,-1,0,-4,-3
1558439167747944,-1,-2,-7,-7,-6,-4,-3,-2
1558439167753929,1,2,1,1,0,2,4,2
1558439167753929,2,-2,4,6,-2,-2,-6,-2
1558439167769886,-6,-3,5,-1,2,1,-4,-2
1558439167769886,3,1,1,2,1,2,2,0
1558439167770883,0,-3,-7,-6,0,-3,0,0
1558439167770883,2,0,4,-1,0,5,-1,-4
1558439167792824,-3,-2,5,-2,-6,0,-1,-4
1558439167792824,-1,-4,-14,-3,1,0,0,-1
1558439167792824,-1,1,2,9,1,-5,1,-1
1558439167792824,-1,-1,-5,-16,-7,-5,-1,0
1558439167814766,1,-1,-3,-3,2,2,2,0
1558439167814766,-1,-2,5,-2,-6,-4,-9,-2
1558439167815765,2,-1,-5,-11,4,6,2,0
1558439167815765,1,2,-3,-2,1,1,-1,2
1558439167822744,-2,0,10,15,2,-7,1,-3
1558439167822744,-2,1,3,3,2,2,1,-4
1558439167837706,-3,-3,-3,-4,-6,-5,-5,-2
1558439167837706,-3,-3,-1,2,3,2,-4,-3
1558439167844686,2,1,0,-1,-2,2,3,-1
1558439167844686,-4,-6,-12,-14,-3,3,-1,1
1558439167851667,-3,-3,-5,-3,-4,-5,-3,-3
1558439167851667,-3,-3,-1,11,-2,-9,-1,-2
1558439167866629,0,3,-5,-13,2,4,-1,2
1558439167866629,1,-1,5,5,2,0,-2,-1
1558439167874605,0,0,5,0,-5,-8,-4,0
1558439167874605,-1,-3,2,11,1,1,1,-2
1558439167883582,0,-1,0,-4,2,1,2,-2
1558439167883582,2,1,-1,0,-4,-3,-3,0
1558439167889565,-2,-2,2,-2,-5,-4,-1,0
1558439167889565,3,-2,-7,-9,-1,-1,0,-1
1558439167904527,0,2,9,21,3,1,-7,-2
1558439167904527,-2,-2,-9,-10,-1,-1,-1,-1
1558439167911507,1,0,-1,-6,0,0,2,-2
1558439167911507,-2,1,-3,-3,-5,-2,1,-2
1558439167926467,4,-1,0,-2,0,-1,2,2
1558439167926467,0,0,8,4,1,-1,-3,0
1558439167934445,-3,-2,-3,3,-5,2,1,0
1558439167934445,1,-3,-5,4,-2,-4,-3,2
1558439167943422,-2,-2,4,-1,2,2,2,2
1558439167943422,-2,1,-6,10,3,0,1,-2
1558439167949405,-4,-5,-6,-19,-7,-3,-6,-4
1558439167949405,0,1,1,-7,0,5,3,-3
1558439167964364,0,-1,-5,-3,-8,-8,-4,-4
1558439167964364,0,1,5,3,0,2,0,-3
1558439167971347,1,3,2,4,8,4,1,-1
1558439167971347,-5,0,5,4,0,-7,-5,-3
1558439167986307,-2,-3,-3,-17,-7,-1,0,-2
1558439167986307,0,-2,-6,-5,-5,-1,1,-3
1558439167994286,-1,-2,-3,7,2,-3,-6,-2
1558439167994286,-1,-3,2,0,0,-1,-2,0
1558439168003261,0,1,1,4,2,0,7,3
1558439168003261,1,2,-1,-3,-1,-3,0,0
1558439168017224,5,2,-2,-1,1,5,2,-2
1558439168017224,-10,-3,5,7,3,4,1,-3
1558439168024206,-4,-4,-13,-11,-4,-4,-11,-4
1558439168024206,-4,-3,-2,-4,-3,2,0,0
1558439168032191,-1,1,5,6,2,-2,-2,1
1558439168032191,2,-1,-2,-12,-3,-1,3,4
1558439168047149,2,-1,0,4,-3,-7,-5,-4
1558439168047149,3,2,6,0,5,6,8,0
1558439168054128,-3,0,-2,4,0,-7,-2,0
1558439168054128,-1,0,-3,-2,-7,-2,-1,-2
1558439168063103,-2,-2,-1,-2,2,6,4,1
1558439168063103,4,0,1,2,3,-2,-1,0
1558439168078064,0,0,3,4,-1,4,-4,-4
1558439168078064,-3,0,-5,-4,-8,-7,-2,-2
1558439168084048,0,1,1,7,1,-6,-5,1
1558439168084048,3,-1,-13,-30,-3,4,2,1
1558439168092028,-2,-5,1,10,3,1,5,-1
1558439168092028,1,2,6,4,1,-1,-2,-2
1558439168106984,-1,-4,-8,2,-1,-3,-6,-3
1558439168106984,-2,1,4,4,0,-5,-1,0
1558439168113966,-2,-2,-2,-5,-1,1,0,0
1558439168113966,1,1,-3,-1,-2,-2,-2,0
1558439168128926,1,-1,5,7,-1,-1,0,0
1558439168128926,-4,-4,-2,-7,1,6,0,-1
1558439168136903,0,-3,2,10,0,-5,-3,-1
1558439168136903,-2,-5,-6,0,0,0,2,0
1558439168143884,1,4,6,0,2,2,3,0
1558439168143884,-1,-2,-13,-15,-12,-7,-5,-3
1558439168159842,-2,0,-2,-9,-9,-7,-9,-3
1558439168159842,1,4,3,4,11,10,4,2
1558439168166823,-3,-3,5,6,3,2,0,-3
1558439168166823,-1,0,2,6,-4,-6,-2,-2
1558439168173805,0,0,-1,-1,-2,1,-1,-1
1558439168173805,-2,-3,-3,-4,-1,-3,-3,-2
1558439168188765,-1,0,-7,-11,-1,-1,2,-3
1558439168188765,-3,-1,6,14,2,-6,-3,-3
1558439168197740,1,0,-3,-8,0,1,2,-3
1558439168197740,-2,-3,-3,-5,-3,3,-1,-2
1558439168212701,4,0,0,3,-2,-4,-7,0
1558439168212701,-9,-1,0,-5,-1,1,2,0
1558439168212701,-4,-2,-2,3,4,1,0,1
1558439168212701,-3,-3,-8,-3,-6,-5,-2,-1
1558439168226663,-4,-2,1,-9,-3,2,-1,-4
1558439168226663,1,0,10,8,-3,-6,-4,-5
1558439168234642,0,-1,-10,5,-1,-6,-3,0
1558439168234642,-1,1,-2,-7,5,3,0,-1
1558439168249601,0,0,1,1,-3,0,0,-1
1558439168249601,0,1,13,17,4,2,-4,0
1558439168257580,-3,-3,-6,-14,-3,4,4,0
1558439168257580,0,-6,-12,-13,-5,-7,-3,-3
1558439168272540,-1,-2,-5,-6,2,0,-1,1
1558439168272540,0,1,0,-2,-3,-3,-6,-2
1558439168273537,2,0,0,5,-4,-3,-2,-1
1558439168273537,-1,1,9,9,6,4,3,1
1558439168286502,-3,-4,1,-4,-4,-5,0,1
1558439168286502,0,-4,-8,0,-1,-1,-4,0
1558439168294483,5,3,7,-5,1,8,7,3
1558439168294483,-8,-3,1,7,0,-4,2,-3
1558439168309442,-3,-4,-10,-6,-5,-10,-7,-2
1558439168309442,1,-2,4,3,2,0,2,2
1558439168317421,-3,-2,-5,4,-6,-7,-4,-3
1558439168317421,5,2,-2,-9,-4,1,-4,-1
1558439168332380,-2,1,10,9,2,-2,0,0
1558439168332380,1,-1,-13,-11,0,0,-1,-2
1558439168333378,-1,-1,8,19,0,-1,-2,0
1558439168333378,-3,-1,-2,6,0,-1,-2,1
1558439168346343,-3,-1,-9,-7,-4,0,3,-2
1558439168346343,0,1,1,4,0,-2,1,-1
1558439168354335,-1,-1,0,-16,0,-1,0,2
1558439168354335,1,1,4,-7,-2,-4,-2,1
1558439168370532,-2,-5,-14,-11,-7,-8,-5,-2
1558439168370532,-3,-1,0,1,1,-2,4,-2
1558439168377260,-2,-1,0,5,3,4,-3,-4
1558439168377260,-2,-1,-6,-14,-1,0,-1,1
1558439168392220,1,-1,3,9,-4,1,0,0
1558439168392220,3,-2,-3,-2,-5,0,1,2
1558439168393218,-2,-3,-3,-7,1,-1,-1,-1
1558439168393218,-1,-2,6,13,1,-4,-3,-3
1558439168407180,-1,1,-2,-9,-3,-2,-2,-3
1558439168407180,-2,-2,-4,-2,-1,1,0,0
1558439168414162,1,2,9,7,10,6,3,-1
1558439168414162,0,-2,-5,3,-7,-3,3,0
1558439168429122,2,1,3,2,5,5,2,2
1558439168429122,-13,-5,-12,-25,-12,-7,-8,-2
1558439168437100,-2,1,6,3,0,-4,-1,0
1558439168437100,2,1,-2,1,-1,1,1,2
1558439168461036,-3,-6,-12,-4,-1,-2,-1,-2
1558439168461036,3,3,11,10,8,3,2,1
1558439168461036,-3,-5,-19,-24,-14,-6,-4,-3
1558439168461036,-2,1,14,19,3,-1,-6,-2
1558439168467019,-1,-2,-1,0,-7,-4,-6,-2
1558439168467019,1,0,-9,-15,1,1,0,0
1558439168474008,-1,0,-1,-3,-1,2,3,0
1558439168474008,1,-2,2,3,-1,1,2,-1
1558439168488964,-2,-3,-1,8,7,0,2,0
1558439168488964,-2,-2,-1,-8,-5,-8,-5,-1
1558439168497939,0,1,2,3,4,5,6,1
1558439168497939,-1,1,-10,-10,4,4,4,2
1558439168512899,-2,0,6,4,0,-1,-4,-3
1558439168512899,-2,-5,-11,-9,-14,-8,-3,-3
1558439168512899,0,1,4,2,-6,-6,-4,-3
1558439168512899,0,-2,-7,-1,3,-1,-1,-1
1558439168526932,0,0,4,-4,8,6,9,2
1558439168526932,3,0,-1,1,2,-4,-3,0
1558439168533904,-3,-2,-3,11,-1,-3,-3,-2
1558439168533904,2,-3,-3,-21,-14,-10,1,0
1558439168548806,-6,2,3,3,-1,3,1,-3
1558439168548806,0,-1,1,-1,3,-1,3,0
1558439168564789,-1,-2,1,10,2,4,-3,-1
1558439168564789,-4,-4,-8,-18,-5,-2,-8,-4
1558439168580722,2,-3,-14,-24,-16,-10,-9,-2
1558439168580722,2,3,5,6,7,8,5,1
1558439168581717,0,2,3,2,7,3,1,-1
1558439168581717,1,2,13,22,1,1,0,0
1558439168586702,-2,-4,-17,-43,-10,-4,-2,0
1558439168586702,-4,-3,-3,7,-3,-4,-4,-2
1558439168594680,0,1,0,-9,2,2,-1,-1
1558439168594680,0,-2,-3,-2,-2,2,2,1
1558439168609639,2,0,8,18,3,4,2,0
1558439168609639,-2,0,6,9,3,1,-2,1
1558439168617617,-2,-3,-2,-8,-3,-5,-3,0
1558439168617617,-1,-2,4,9,1,-4,-8,-6
1558439168632626,-2,-3,-5,-8,0,3,2,1
1558439168632626,-1,0,-2,4,3,4,1,0
1558439168633590,-3,2,-4,-5,-4,2,4,2
1558439168633590,-2,-3,11,14,4,-2,-5,-2
1558439168646540,2,0,-5,-4,-4,-8,-5,1
1558439168646540,2,1,2,1,4,5,-1,0
1558439168654958,-1,-3,3,6,1,-2,-1,-2
1558439168654958,-3,-3,-7,-24,-11,-6,0,-1
1558439168669480,1,2,10,20,9,-6,-2,-2
1558439168669480,1,-6,-13,-7,-7,2,1,3
1558439168677457,-5,0,1,11,-2,-2,-4,0
1558439168677457,-4,-4,-10,-8,-1,4,4,-3
1558439168692873,-3,0,6,5,2,5,-1,0
1558439168692873,1,0,0,0,-5,3,0,-1
1558439168693416,4,1,4,4,0,-17,-1,2
1558439168693416,1,1,7,13,1,-3,-5,-3
1558439168706381,0,-2,-5,6,3,-2,-2,-1
1558439168706381,-5,-4,-5,-9,-7,-5,-6,-5
1558439168714361,-4,-5,-9,-15,-9,1,-3,-3
1558439168714361,-1,1,1,-1,-1,-1,-4,-1
1558439168729319,1,3,7,6,5,2,6,2
1558439168729319,-3,-2,-1,-2,-4,-1,-5,-7
1558439168737298,0,0,-1,-2,-1,-9,-3,2
1558439168737298,2,1,1,0,7,1,4,3
1558439168752695,-2,-5,0,6,-3,1,0,-1
1558439168752695,0,1,3,-2,1,0,2,-1
1558439168753256,-1,0,-8,-6,-1,2,-3,-3
1558439168753256,-5,-3,-10,-13,-11,-5,-5,-4
1558439168767594,-3,-5,-7,-17,-12,-9,-5,-3
1558439168767594,-2,-2,-4,3,-1,-1,1,1
1558439168774564,-1,-1,6,10,4,3,1,2
1558439168774564,2,1,-3,-3,2,-4,-4,0
1558439168789440,-1,2,2,2,-1,3,3,-1
1558439168789440,-1,-1,2,0,-2,2,0,-1
1558439168798236,2,0,11,6,4,3,0,1
1558439168798236,-2,-3,-13,-11,0,2,-10,2
1558439168812099,-2,1,1,1,-6,-3,4,2
1558439168812099,0,-2,2,1,-1,-4,3,1
1558439168813096,-2,-3,-6,-7,-3,-3,1,-3
1558439168813096,2,0,5,1,-1,-3,2,0
1558439168828055,1,1,4,5,15,19,4,2
1558439168828055,-1,0,-1,0,3,-6,0,2
1558439168834040,3,2,0,1,0,11,3,-1
1558439168834040,-1,0,4,-2,0,2,5,-1
1558439168848999,-2,-3,-8,2,-3,-6,-2,-1
1558439168848999,-2,1,4,-3,-2,-2,-1,-1
1558439168856977,-4,-6,-6,1,-4,-7,-7,-4
1558439168856977,1,1,4,11,-2,2,1,-1
1558439168871937,-1,-2,-6,-2,-1,6,2,0
1558439168871937,0,-3,2,-2,-3,-6,-1,2
1558439168872935,-2,-4,-11,-20,-4,1,-2,-2
1558439168872935,-2,1,1,5,0,5,2,0
1558439168886897,-2,1,2,1,-2,-6,-2,-2
1558439168886897,-1,-1,4,11,2,-6,-7,-2
1558439168893878,0,1,-2,-4,1,2,4,3
1558439168893878,-1,0,-1,1,6,8,3,1
1558439168908838,-2,0,-1,3,1,3,-4,-4
1558439168908838,1,0,-4,-6,-4,-9,-1,-1
1558439168916821,0,-1,2,-1,0,-4,-7,-5
1558439168916821,-1,-1,1,-2,0,-2,-2,0
1558439168932156,-1,0,6,3,-2,1,1,1
1558439168932156,-5,-5,-8,-11,-2,2,-7,-6
1558439168940825,-1,-1,-3,-8,2,5,5,3
1558439168940825,-2,-3,-2,10,6,-2,3,3
1558439168947112,1,0,4,-2,-8,-8,-6,-4
1558439168947112,-5,-4,-12,-13,-11,2,-8,-7
1558439168954091,2,3,11,13,6,2,3,3
1558439168954091,-5,-2,-5,-8,-7,-16,-8,-3
1558439168969724,0,0,-1,5,5,-10,2,4
1558439168969724,1,-1,-5,-12,7,10,6,0
1558439168977179,-3,-3,-3,-4,-12,1,-6,-9
1558439168977179,-1,-2,1,2,2,7,0,-4
1558439168991653,0,-2,-3,-4,-4,-11,-5,-1
1558439168991653,0,4,9,18,8,2,1,3
1558439168999926,0,-2,-3,-13,-1,-6,2,-1
1558439168999926,-1,0,0,-2,-2,5,-1,-2
1558439169006930,-2,-1,2,-1,-6,0,-4,-2
1558439169006930,-1,-2,-4,-12,-6,-7,-5,0
1558439169014556,-3,-2,-3,-4,-4,-4,-2,0
1558439169014556,-1,0,0,0,-8,-3,-1,-3
1558439169029516,-1,-2,-3,-4,3,2,1,-3
1558439169029516,0,4,11,17,14,1,13,6
1558439169036498,-3,-1,-5,-13,0,-5,-1,0
1558439169036498,0,-1,-1,-4,-2,-7,-2,0
1558439169052485,-1,-2,7,3,1,4,-2,-1
1558439169052485,1,-2,-12,-8,-5,-1,-2,-2
1558439169060745,-1,-3,-2,9,2,-4,0,2
1558439169060745,0,-3,2,-2,-1,-2,-3,-3
1558439169067600,0,1,-5,-9,-5,-1,-2,-2
1558439169067600,-2,-1,1,5,-4,-1,-2,-2
1558439169074692,1,1,1,-3,-5,-2,-2,-1
1558439169074692,-1,0,-3,5,1,0,-1,-3
1558439169089403,0,-3,-6,-11,-3,0,1,-1
1558439169089403,-1,-1,-2,0,-2,-2,-1,-1
1558439169105555,-3,-1,-2,-1,-2,1,0,-1
1558439169105555,-2,-1,-2,-6,-4,-1,0,0
1558439169111299,-1,1,0,7,3,0,1,1
1558439169111299,-2,0,-1,-2,-1,1,0,-1
1558439169120500,-1,-1,2,3,-2,-1,-4,0
1558439169120500,1,0,0,1,3,0,6,0
1558439169135482,-1,-4,0,1,5,-1,-3,-1
1558439169135482,-3,0,1,-3,-5,-1,-2,-1
1558439169135482,-1,-3,-10,-16,-4,0,-1,-1
1558439169135482,0,-1,-3,7,-5,2,-5,0
1558439169149423,-1,0,3,-4,-3,2,0,-1
1558439169149423,-2,-2,9,12,-3,-3,1,-2
1558439169157174,-5,-4,-15,-12,-4,-2,-4,-3
1558439169157174,1,2,2,2,0,-4,2,1
1558439169172374,-3,-4,-8,-16,2,-2,-5,-1
1558439169172374,-2,-2,0,8,-4,-6,-8,-3
1558439169180341,3,4,5,6,2,1,-1,2
1558439169180341,-2,-4,2,-1,1,7,7,2
1558439169195074,0,2,3,11,5,4,2,1
1558439169195074,-2,-3,-2,-9,-2,-9,-2,-3
1558439169195074,-2,-1,6,13,-5,-7,-7,-4
1558439169195074,-4,-2,-10,-16,-11,-10,-4,-3
1558439169210069,-1,1,0,6,10,19,10,4
1558439169210069,-1,-2,-2,-6,-2,-11,-5,-2
1558439169217015,1,-2,2,5,0,8,1,-1
1558439169217015,0,-1,5,11,5,1,1,0
1558439169231975,2,2,-3,-19,-9,-12,-8,-3
1558439169231975,-3,-5,-9,-5,-1,7,3,-2
1558439169239986,-1,1,11,15,11,3,3,0
1558439169239986,-2,-2,-10,-16,-5,-10,-3,-2
1558439169255256,-3,-4,-1,2,-7,-5,-6,-6
1558439169255256,2,3,3,0,3,4,-6,-3
1558439169255912,3,1,-1,4,-2,-3,2,2
1558439169255912,1,-1,2,-14,2,9,3,-1
1558439169270049,-1,-3,-6,2,0,-10,-3,1
1558439169270049,0,-2,1,0,-3,-1,-3,-2
1558439169277212,-4,-2,-1,0,5,3,0,-2
1558439169277212,1,-1,-1,4,-5,-5,-6,-4
1558439169292167,-2,-3,-8,-10,-2,5,3,1
1558439169292167,2,1,2,2,1,-1,5,3
1558439169300151,-2,-2,-7,-8,-5,-6,-3,0
1558439169300151,-3,1,7,14,6,5,1,3
1558439169315045,-1,-3,-12,-15,-9,-10,-4,-4
1558439169315045,-3,-2,3,10,-2,-3,-4,-1
1558439169322956,-1,-4,-2,-18,-3,1,-2,-3
1558439169322956,-2,1,-1,-4,-3,-4,1,-2
1558439169329712,-4,-2,0,8,2,5,2,-3
1558439169329712,0,0,-1,-4,6,11,8,2
1558439169344674,0,0,-5,1,-5,-12,-8,-3
1558439169344674,-4,-6,-2,-1,-3,-4,-3,-3
1558439169351690,0,2,11,5,2,0,-1,-2
1558439169351690,3,0,-4,-1,-2,-6,-2,0
1558439169359676,1,-1,-2,0,1,3,3,2
1558439169359676,3,-1,-3,-3,0,-1,-1,-1
1558439169382570,-5,-2,-1,-4,-7,-2,-5,-3
1558439169382570,-4,-3,0,-1,-8,-3,-5,-4
1558439169383568,6,4,7,4,10,-1,8,5
1558439169383568,-1,-1,-4,-3,-1,-5,-4,0
1558439169397985,2,-1,3,4,1,0,3,4
1558439169397985,0,3,-3,-6,4,9,2,0
1558439169398529,-2,-3,-2,3,-6,5,-3,-3
1558439169398529,0,1,-2,-5,0,-10,0,-2
1558439169411495,-3,-1,-4,3,-9,-3,-5,-4
1558439169411495,-2,-4,-2,-4,-7,-9,-2,0
1558439169419903,-2,-3,-1,1,6,1,3,-1
1558439169419903,-1,-1,2,1,0,4,2,0
1558439169435356,2,2,5,8,6,-1,0,-1
1558439169435356,0,-1,-7,-11,0,6,0,-1
1558439169436432,-2,-2,-3,-13,-7,-5,-5,-1
1558439169436432,-4,0,-3,1,-1,3,-4,-3
1558439169449704,0,-1,-2,-2,-1,-5,0,0
1558439169449704,3,2,6,6,2,-2,-3,1
1558439169457628,-3,-4,-8,-11,-5,-7,-1,-2
1558439169457628,-1,-2,-4,0,4,7,-1,-3
1558439169472572,-3,-3,2,0,-2,-2,-1,-1
1558439169472572,-3,-2,-7,-5,0,0,2,-1
1558439169480562,-2,0,4,7,2,5,1,-2
1558439169480562,-1,-1,-3,-3,-4,-3,-3,-1
1558439169495201,0,-1,-3,-9,-3,-4,-2,0
1558439169495201,0,-2,-5,-4,1,-4,-3,-1
1558439169496340,2,0,3,4,-1,4,-1,-1
1558439169496340,-3,0,0,9,4,5,9,3
1558439169509475,-2,-1,-3,-14,-6,-5,-2,0
1558439169509475,-1,0,-3,-10,-6,-8,-2,1
1558439169517452,-1,-1,-2,8,-2,-1,-1,-1
1558439169517452,-4,-7,-4,-9,-5,-1,-6,-4
1558439169532617,-1,-1,-7,-4,6,8,10,4
1558439169532617,-3,-1,6,6,4,-5,-3,-4
1558439169540557,-3,-1,-4,-2,-9,-4,-3,-3
1558439169540557,0,0,7,5,1,-2,-1,0
1558439169555384,2,-2,-3,2,2,0,-3,-1
1558439169555384,-2,-2,-8,-5,-4,1,-3,-3
1558439169556038,-3,0,0,4,0,-5,-3,0
1558439169556038,1,1,6,3,-5,-9,-5,-3
1558439169569290,-1,-2,3,5,0,7,1,-3
1558439169569290,1,-2,1,2,4,7,2,1
1558439169577281,-2,1,-2,0,5,1,1,-1
1558439169577281,0,1,0,4,7,3,1,2
1558439169592411,1,-1,-2,3,-1,-9,-5,-2
1558439169592411,1,2,3,0,-3,1,0,-2
1558439169600303,-5,-3,2,2,1,-5,-6,-5
1558439169600303,-4,-4,-19,-20,-18,-13,-5,-3
1558439169615241,-1,2,10,23,5,8,3,-2
1558439169615241,-1,-2,-6,-8,2,5,4,0
1558439169615877,2,1,-4,-11,0,-7,-4,-1
1558439169615877,0,0,-4,-6,-2,-2,3,-1
1558439169628841,-3,-5,-4,-9,-12,-9,-8,-4
1558439169628841,1,1,9,12,7,4,0,0
1558439169637176,-2,-2,0,4,-1,-2,0,-1
1558439169637176,-1,-3,-8,-8,-1,3,-2,0
1558439169660756,-2,-2,-4,-13,-2,-1,1,2
1558439169660756,-1,-3,2,3,-1,-5,-2,-1
1558439169660756,-1,-1,3,-1,-2,4,3,-1
1558439169660756,1,0,-4,0,2,4,-2,-1
1558439169675069,1,2,3,-1,6,-8,5,2
1558439169675069,-4,-2,-3,5,-3,0,-3,-1
1558439169675718,-2,-4,-11,-7,-5,-6,-2,-2
1558439169675718,0,1,2,-3,0,3,0,0
1558439169690031,1,0,2,-1,0,0,-4,-2
1558439169690031,-1,0,-3,-2,-1,-3,-1,0
1558439169696961,1,2,1,0,-5,-1,-2,0
1558439169696961,-2,0,4,1,-4,-8,-3,-3
1558439169711620,-3,-2,-1,12,10,11,5,1
1558439169711620,1,2,-4,-18,-2,-7,-1,1
1558439169720653,-5,-5,-5,-4,-8,-11,-8,-2
1558439169720653,-1,0,4,3,3,0,1,0
1558439169735639,-1,2,-4,-5,-6,-5,-1,0
1558439169735639,-1,-3,3,9,2,4,0,-2
1558439169735639,0,-2,-6,-16,-5,3,-2,1
1558439169735639,0,-3,1,3,-2,-4,-7,-2
1558439169749848,-1,0,-2,-5,-6,-2,-5,-3
1558439169749848,0,-2,1,6,3,7,5,1
1558439169757593,1,2,-3,3,3,-11,2,3
1558439169757593,2,3,8,5,12,8,8,5
1558439169771952,-2,-1,-9,-7,0,3,-1,-1
1558439169771952,-1,2,5,3,1,-5,-4,-4
1558439169779492,-1,-2,2,0,-1,3,0,-4
1558439169779492,-4,-7,-14,-19,-10,-5,-5,-5
1558439169794401,-2,-4,4,-2,-6,-11,-7,-3
1558439169794401,-1,-4,-7,3,-7,0,-2,-2
1558439169795397,8,4,7,5,11,13,8,6
1558439169795397,-8,0,5,9,8,1,3,1
1558439169809639,-1,-2,1,1,-3,1,-1,3
1558439169809639,-4,-1,1,-1,-5,-7,-9,-3
1558439169816668,-2,-1,-3,-5,-4,4,-1,-3
1558439169816668,1,1,-4,-3,1,5,2,-2
1558439169832467,-1,1,-1,-3,-1,-9,-4,-1
1558439169832467,-3,-2,5,5,-4,-3,-3,0
1558439169840278,-1,-4,-6,-4,-6,-2,-2,-2
1558439169840278,2,1,1,0,-1,2,1,1
1558439169854577,-3,-2,-4,-10,-2,-6,-4,-2
1558439169854577,3,0,-5,-10,0,4,4,1
1558439169862246,-7,-6,-2,11,-3,-9,-6,-6
1558439169862246,1,-3,1,-1,-12,-5,-8,0
1558439169869543,0,1,2,-1,3,3,0,-1
1558439169869543,1,3,-2,1,14,6,12,6
1558439169877329,-2,-1,-1,-6,-2,-3,-1,-1
1558439169877329,-2,-2,4,9,4,3,4,-3
1558439169892470,0,-3,-3,-4,-6,-4,-5,-3
1558439169892470,-1,0,2,-5,-5,-5,-9,-3
1558439169900434,-2,-2,-3,7,1,5,2,-1
1558439169900434,-4,-4,-8,-8,-4,-4,-5,-4
1558439169914079,0,1,7,11,3,0,3,-1
1558439169914079,3,-2,-2,-2,-4,-2,1,1
1558439169922092,0,3,11,-6,5,2,-4,-2
1558439169922092,-4,-6,-10,0,-5,3,-3,-1
1558439169929066,3,3,1,7,6,-5,4,5
1558439169929066,-2,-3,-4,-11,-7,-5,-3,0
1558439169937016,2,0,4,3,-3,1,-2,-2
1558439169937016,2,2,6,3,-1,2,-3,-5
1558439169951976,-2,-3,-5,-9,-11,-8,-9,-2
1558439169951976,1,2,1,13,17,19,14,4
1558439169959956,-1,-2,-2,-12,-4,-12,0,2
1558439169959956,-4,-1,-3,0,2,-2,-1,-1
1558439169975254,-3,-3,-8,-7,-7,3,-2,-4
1558439169975254,-1,-2,0,0,-8,-6,-7,-6
1558439169983360,0,-3,-1,4,-3,2,-6,-5
1558439169983360,0,-2,4,2,4,5,9,1
1558439169998331,-1,0,1,3,1,-13,1,4
1558439169998331,-3,-2,-7,-4,-1,-1,0,-2
1558439169998331,-1,0,1,3,1,-1,0,2
1558439169998331,-1,-4,-12,-18,-9,-8,-5,-3
1558439170011818,-1,-2,3,15,-2,0,-5,-4
1558439170011818,-3,-1,-6,-19,0,12,3,1
1558439170020252,-2,-1,3,-1,-5,-11,-2,-4
1558439170020252,0,0,-6,-3,-3,-6,-3,3
1558439170033759,-3,-5,3,5,3,6,4,-3
1558439170033759,-3,-5,-9,-4,-13,-13,-11,-8
1558439170042772,-2,0,0,-1,2,1,0,2
1558439170042772,4,4,3,3,7,7,5,6
1558439170057693,-8,-4,2,4,-1,5,-2,-2
1558439170057693,0,-2,5,3,-4,-8,-5,0
1558439170057693,-2,1,-3,-5,-4,-1,-4,-2
1558439170057693,-4,-1,1,-15,-6,-7,-5,-4
1558439170072081,4,1,-8,-8,12,13,5,2
1558439170072081,0,0,6,8,1,-6,0,1
1558439170080018,0,-5,-11,-2,-1,-1,1,-2
1558439170080018,0,1,0,3,-2,1,0,-1
1558439170094620,0,1,1,-1,-1,1,-6,-2
1558439170094620,-3,-4,-6,-10,-8,-9,-1,0
1558439170102939,0,0,1,2,3,5,4,1
1558439170102939,0,0,3,11,-1,-4,-6,-1
1558439170117705,1,-1,-2,-12,-6,1,6,-1
1558439170117705,2,2,-2,3,9,0,1,3
1558439170118926,-1,0,6,6,2,0,-1,1
1558439170118926,0,0,-1,-6,-3,3,-2,2
1558439170131899,-2,-2,-3,-3,-5,-3,1,0
1558439170131899,-1,-2,-5,-1,-4,-2,-6,-2
1558439170140796,-1,-3,-7,-5,-7,-4,3,-1
1558439170140796,-1,0,3,2,12,11,9,2
1558439170154806,2,0,-2,5,6,3,2,2
1558439170154806,-2,-1,4,3,-5,-8,-4,-3
1558439170163411,4,0,-2,-8,-3,13,2,2
1558439170163411,-4,-4,5,23,-1,-5,-4,-7
1558439170177412,-1,0,-10,-26,-6,-13,1,2
1558439170177412,0,0,7,3,-2,-4,-3,0
1558439170178374,-1,-3,-4,1,2,0,1,-5
1558439170178374,-1,-1,1,6,6,2,0,-1
1558439170191667,-2,-4,-8,-13,-11,-1,-6,-2
1558439170191667,-2,0,1,2,1,-2,4,1
1558439170207619,0,0,-4,-6,0,5,-2,0
1558439170207619,0,-1,-8,-5,-2,-8,-3,-1
1558439170214573,-2,-1,8,13,1,-1,0,-1
1558439170214573,-5,-7,-16,-24,-9,-2,-7,-5
1558439170222530,-2,0,8,4,1,-1,1,1
1558439170222530,0,-3,-9,-7,-1,-3,1,1
1558439170237215,-1,1,0,-2,-2,1,0,-3
1558439170237215,-2,0,5,10,7,10,3,-2
1558439170238212,-1,-2,-5,1,-1,-10,-5,-2
1558439170238212,-2,-1,4,1,-6,-7,-4,-2
1558439170251177,-1,-1,-2,-3,-2,-3,-6,-4
1558439170251177,-2,-2,-1,3,-7,-4,-3,-5
1558439170260597,-3,-2,-7,-9,0,2,-5,-1
1558439170260597,5,2,0,-7,-4,-6,0,0
1558439170274114,-10,-4,6,9,-1,-2,1,-3
1558439170274114,-1,0,0,2,4,2,0,-1
1558439170282573,0,0,3,-2,-4,-3,-5,0
1558439170282573,0,-2,-8,-17,-6,5,2,0
1558439170298374,2,0,-8,2,6,11,3,2
1558439170298374,-1,-2,-3,-11,-5,2,1,1
1558439170298374,-2,-1,2,1,-5,-3,-3,-1
1558439170298374,1,1,6,5,3,1,8,2
1558439170312020,2,2,5,5,-1,-1,-2,1
1558439170312020,-3,-6,-14,-10,-4,-3,-7,-1
1558439170320530,1,0,2,7,2,-3,1,0
1558439170320530,-4,-3,-4,-8,-11,-4,-1,-2
1558439170334341,0,-3,-3,3,3,2,2,-1
1558439170334341,2,2,5,1,2,-8,-3,-1
1558439170343150,-1,-1,-4,7,2,-5,-2,0
1558439170343150,1,-2,-1,-5,2,2,-9,-3
1558439170357271,-3,0,0,0,0,-1,0,1
1558439170357271,-1,3,2,-4,-4,3,0,-1
1558439170357893,-2,-2,1,-3,-3,-2,0,0
1558439170357893,-4,-4,5,9,1,4,-4,-3
1558439170372219,0,-4,-2,-4,-12,-8,-7,-2
1558439170372219,3,-2,-4,7,3,-4,3,2
1558439170380222,0,0,-2,0,10,5,6,3
1558439170380222,0,2,-3,-9,-1,0,7,3
1558439170394011,2,0,5,12,6,7,0,-3
1558439170394011,-3,-2,-3,-12,-7,-6,-7,-4
1558439170403144,-1,0,3,7,-2,0,-3,-1
1558439170403144,-2,-5,-12,-8,-4,-4,-2,-1
1558439170417732,-1,0,0,-3,-1,-1,-6,-4
1558439170417732,2,2,8,17,8,0,6,3
1558439170417732,-2,-3,-3,-11,-3,-1,-3,-3
1558439170417732,-1,2,8,9,3,3,1,0
1558439170432055,1,0,-11,-15,2,2,-1,1
1558439170432055,-3,-2,5,11,-6,-2,-4,-4
1558439170439673,-5,-4,-10,-12,-9,-9,-6,-5
1558439170439673,-1,1,-4,-12,7,4,-1,1
1558439170454632,1,-2,4,7,-1,2,4,1
1558439170454632,0,0,3,-3,-1,0,0,-3
1558439170462614,1,-2,2,4,-2,-6,0,0
1558439170462614,1,-1,-4,-2,-1,4,1,-3
1558439170477571,1,1,2,-1,4,-3,2,0
1558439170477571,-2,-1,-5,-5,-1,-2,-1,0
1558439170477571,-1,-1,2,0,-5,-3,-3,-1
1558439170477571,-3,-3,3,8,-1,-4,0,-2
1558439170492063,-3,1,4,3,-1,5,-1,1
1558439170492063,-1,-1,-4,-3,-5,1,-3,-1
1558439170500051,4,2,-3,-5,7,8,6,0
1558439170500051,-12,-3,-8,-17,-2,-7,-3,-5
1558439170514816,-1,-1,-1,9,-3,-6,-1,-1
1558439170514816,-2,-3,-3,-1,-5,-2,-3,-3
1558439170522794,2,0,3,0,-1,-1,0,0
1558439170522794,0,-1,3,0,-10,-9,-9,-3
1558439170546457,-4,-3,-6,-8,-3,-1,2,0
1558439170546457,-2,0,5,4,8,15,4,3
1558439170546457,-4,-2,-11,0,-8,-6,-5,-3
1558439170546457,2,-1,1,-4,-2,-6,-2,1
1558439170552430,-1,-1,-3,-7,-4,-4,-2,-2
1558439170552430,2,0,6,10,6,2,3,0
1558439170560639,-4,-1,8,4,4,4,-2,-2
1558439170560639,-5,-5,-14,-2,-9,-10,-11,-5
1558439170574639,-1,-2,-2,1,6,9,6,2
1558439170574639,-1,-2,-6,-11,-6,-6,-5,-4
1558439170582598,-3,-2,-2,1,1,7,6,-3
1558439170582598,2,0,7,6,1,-3,1,1
1558439170597556,0,-2,1,5,4,3,2,0
1558439170597556,1,-1,1,-3,1,-5,-1,1
1558439170598252,0,2,1,1,6,-1,0,1
1558439170598252,-2,0,-1,0,-5,2,-3,-2
1558439170611216,1,-2,-6,-15,-7,-3,-2,-3
1558439170611216,-7,-3,0,8,-6,-5,-2,-2
1558439170620501,-2,-2,-6,-12,-2,-2,-1,0
1558439170620501,0,0,-3,6,3,0,1,-1
1558439170634223,0,2,2,4,4,-4,0,1
1558439170634223,0,0,-1,-3,-2,-5,-4,-2
1558439170642132,-2,0,3,4,-6,1,-3,-3
1558439170642132,-1,0,4,-2,2,1,0,-1
1558439170657091,-6,-4,-8,-14,-11,-5,-7,-5
1558439170657091,1,2,7,16,5,-4,7,3
1558439170658088,-2,-3,-6,-12,1,-2,-4,1
1558439170658088,2,0,-3,-1,-3,-5,0,-2
1558439170672393,0,-1,-4,0,-3,-1,-2,0
1558439170672393,-2,1,1,-8,0,7,-2,0
1558439170680357,0,1,4,12,7,-2,5,1
1558439170680357,0,-1,1,7,2,1,0,2
1558439170693993,-4,1,5,0,4,1,-4,-3
1558439170693993,-2,-4,-10,-10,-7,-1,-4,-5
1558439170703218,0,2,4,-1,3,5,4,0
1558439170703218,3,-1,7,11,2,-3,-3,0
1558439170718014,1,2,-6,-15,-7,-12,-1,1
1558439170718014,-2,-2,-1,-4,2,3,-2,0
1558439170718014,-3,-3,3,2,-3,0,-4,-1
1558439170718014,-3,-1,-1,-1,-2,0,-4,0
1558439170731964,1,1,3,0,-4,1,-2,1
1558439170731964,0,1,-4,5,2,3,1,-1
1558439170739917,-3,-6,-15,-24,-9,-16,-1,-3
1558439170739917,3,2,10,13,2,9,3,0
1558439170754901,1,-2,-13,-13,5,-1,1,2
1558439170754901,-3,-3,-3,-5,-6,1,-3,0
1558439170762866,-2,-2,2,7,-3,0,-5,-2
1558439170762866,-3,-1,3,3,2,1,3,-2
1558439170777506,1,-3,0,-4,-6,-4,-2,-3
1558439170777506,1,-1,-10,-8,-1,3,5,2
1558439170778505,0,2,0,5,2,2,0,1
1558439170778505,-1,0,2,-6,-3,-4,-2,-1
1558439170800581,-1,-1,-2,7,-2,-7,-2,-1
1558439170800581,1,0,6,6,7,-1,1,0
1558439170800581,2,0,-4,-14,-4,0,-2,-1
1558439170800581,-3,-1,-6,-7,-6,5,0,0
1558439170814729,-5,0,5,7,1,1,-5,-4
1558439170814729,1,-1,-2,-6,-4,-8,-1,1
1558439170822718,0,-1,3,14,-1,-6,-4,-2
1558439170822718,-1,-3,-8,-10,2,6,2,-3
1558439170845327,-3,-2,-3,-4,0,3,0,-3
1558439170845327,2,0,1,-2,0,-9,3,2
1558439170846323,1,-2,6,22,6,8,4,1
1558439170846323,-2,-6,-7,-24,-8,-14,-6,-2
1558439170852512,-2,-3,0,-4,-2,4,-2,0
1558439170852512,-4,-3,-6,-6,-5,0,-6,-4
1558439170867588,-2,0,1,-1,-2,-1,-3,-1
1558439170867588,1,-1,2,10,4,0,1,-2
1558439170874593,0,0,-2,5,8,6,4,0
1558439170874593,3,0,4,3,-5,-7,0,0
1558439170890543,-3,-2,-3,-8,-7,-6,-6,-2
1558439170890543,0,-1,0,4,1,-5,-4,-2
1558439170897546,1,-1,3,2,-5,0,-1,-2
1558439170897546,-4,-2,-1,-2,4,3,-2,-3
1558439170905515,0,0,-8,-8,-7,-7,-5,0
1558439170905515,0,-1,6,10,-3,-2,-2,1
1558439170911150,1,3,-5,-6,9,7,5,2
1558439170911150,-2,0,0,-3,-2,0,-2,-2
1558439170919465,-1,-1,-1,1,3,6,5,1
1558439170919465,-4,1,3,0,3,-5,0,1
1558439170934419,-1,-2,1,5,-8,-6,-7,-4
1558439170934419,-3,-1,1,7,1,-3,-4,-1
1558439170943215,-1,-2,1,4,2,5,2,-2
1558439170943215,0,-1,-8,-16,-4,7,-2,0
1558439170957027,1,0,7,8,0,-5,-2,-1
1558439170957027,1,-1,-1,0,-6,-6,-1,-1
1558439170965350,-3,0,0,-5,2,6,-2,-3
1558439170965350,-1,1,1,3,0,-5,0,-1
1558439170971988,0,-1,5,7,-1,-5,-3,0
1558439170971988,-3,-4,-4,-14,-6,-3,-2,-1
1558439170978967,0,-1,-2,-1,-1,1,0,0
1558439170978967,1,-1,-4,5,1,4,1,3
1558439170993928,-1,1,-1,-6,-6,-7,-5,-1
1558439170993928,-1,-3,-2,-4,0,-3,-6,-1
1558439171009885,4,-1,-3,-6,-2,-5,1,2
1558439171009885,-5,0,5,3,-1,-5,-3,-6
1558439171016866,-6,-3,-6,-1,-4,0,0,-4
1558439171016866,2,0,9,16,10,11,7,1
1558439171024843,-1,-2,-7,-12,-6,-7,1,-1
1558439171024843,0,-1,-2,-3,-7,-1,-3,-1
1558439171040156,-2,-3,-1,-8,-5,-4,-7,0
1558439171040156,-2,0,2,14,6,-1,-2,1
1558439171040803,4,1,2,-6,-1,3,8,4
1558439171040803,0,-1,-7,3,2,-1,2,1
1558439171055101,-2,-1,-1,-10,-1,-3,-1,0
1558439171055101,-2,-1,-7,-9,-4,-1,-4,-2
1558439171062743,-2,0,-2,-4,-4,-1,-3,-1
1558439171062743,-2,-4,1,-2,6,10,4,-2
1558439171077189,-1,-1,4,12,-5,-3,-2,-4
1558439171077189,-1,0,-8,-18,-1,1,-1,-2
1558439171084998,-1,0,5,6,3,-5,0,1
1558439171084998,1,0,-2,-10,-2,-5,2,0
1558439171099971,0,-1,-1,-4,2,-1,2,0
1558439171099971,-2,-2,-3,-4,-6,0,0,-1
1558439171100644,0,-2,0,2,-5,2,-4,-4
1558439171100644,-2,-1,-6,-3,-2,-5,-2,1
1558439171114951,1,-2,-9,-5,-3,-8,-4,1
1558439171114951,-5,-1,0,2,0,2,6,-1
1558439171122902,0,1,1,7,5,8,0,-1
1558439171122902,0,-1,6,15,0,-14,-2,-1
1558439171136872,1,2,2,-4,5,8,4,1
1558439171136872,1,-2,-8,-8,0,4,-2,-2
1558439171144526,-5,-3,5,13,-1,-4,-8,-4
1558439171144526,-3,-3,-7,-23,-12,-5,0,0
1558439171160521,2,-3,6,9,-2,-5,-3,-3
1558439171160521,0,-2,-7,-1,3,5,4,1
1558439171160521,-2,0,-11,-17,-4,-3,-1,0
1558439171160521,-3,0,1,7,-2,-5,-2,0
1558439171174759,-3,-2,2,-1,1,-2,1,2
1558439171174759,-1,0,-7,-12,-8,-4,-3,-1
1558439171182737,-1,-1,2,4,1,3,-6,-2
1558439171182737,-1,-1,-2,4,-1,7,2,-1
1558439171197490,-1,-3,-13,-19,-4,1,1,-2
1558439171197490,0,1,2,0,5,-6,-2,2
1558439171205689,-1,0,2,-3,1,-7,6,3
1558439171205689,0,-2,0,13,-3,-4,-5,-4
1558439171220610,-3,-2,1,5,-2,1,-1,0
1558439171220610,2,1,3,1,5,6,5,2
1558439171220610,-3,-1,-2,-1,-2,-2,-5,-4
1558439171220610,1,-1,-4,-7,-1,7,-2,-2
1558439171234352,0,0,1,-4,-8,-8,-3,-3
1558439171234352,-9,-3,8,19,8,1,3,0
1558439171242557,-1,-3,-3,-9,-1,-5,-1,2
1558439171242557,-2,-1,-3,1,-2,-3,-3,-4
1558439171257497,1,-1,-3,-2,4,6,0,2
1558439171257497,2,-1,0,10,-2,-6,-7,-3
1558439171265502,-2,-1,-5,-24,-1,3,-1,-3
1558439171265502,-2,1,2,1,4,1,1,0
1558439171280163,-2,-3,2,10,-3,-1,-2,-1
1558439171280163,1,-2,-1,-1,-8,-1,-1,-4
1558439171280163,1,-1,-3,6,1,-2,1,0
1558439171280163,3,1,3,-5,4,1,1,2
1558439171294124,-2,1,2,4,0,-1,-1,-1
1558439171294124,0,-1,-2,-3,-2,-1,-3,-4
1558439171302261,0,-1,1,6,0,1,1,-1
1558439171302261,-2,-1,-5,-7,-6,-2,-3,-2
1558439171317423,0,-1,-7,-1,2,-1,-4,0
1558439171317423,1,2,2,-7,1,-2,3,1
1558439171325407,-2,-1,4,9,1,-8,-3,-1
1558439171325407,-1,-1,-1,-10,0,0,1,1
1558439171340353,0,0,-4,-1,1,4,3,1
1558439171340353,0,-1,5,6,-1,0,-3,-3
1558439171341250,1,-2,-7,-9,-5,-5,-3,-4
1558439171341250,-1,-1,-5,-7,-4,-4,-4,-1
1558439171354317,-4,-3,-1,-4,0,4,-3,-5
1558439171354317,-1,-1,-4,-3,0,6,3,0
1558439171363265,1,1,5,14,8,-2,2,2
1558439171363265,1,0,6,4,0,-10,1,0
1558439171378924,0,-2,3,1,0,1,-1,1
1558439171378924,-1,1,3,-1,-2,-3,-1,-1
1558439171385240,0,-5,-11,-12,-12,1,-3,-4
1558439171385240,-9,-3,-8,-2,2,9,-1,-2
1558439171400165,-2,-1,0,-3,0,-5,-1,-2
1558439171400165,1,1,5,6,2,0,0,2
1558439171400841,1,0,4,0,3,3,3,2
1558439171400841,2,0,-2,1,1,1,-2,-1
1558439171415104,-1,1,2,3,1,4,0,-2
1558439171415104,-1,1,1,-2,-5,-10,-3,-1
1558439171423126,-1,-1,2,-7,-3,-3,-3,-2
1558439171423126,0,-4,-1,10,4,2,-3,-1
1558439171437067,-1,-3,-5,-20,-7,-7,2,0
1558439171437067,-2,-2,-11,-7,2,-1,-1,1
1558439171444722,-3,-1,6,11,2,-5,-2,2
1558439171444722,-3,-3,1,-7,-5,1,0,-1
1558439171460009,3,2,-1,-2,-2,-6,0,2
1558439171460009,-2,-2,1,-2,-4,-1,-3,-4
1558439171460681,-3,-1,-7,-1,-9,-5,-5,-4
1558439171460681,3,0,7,3,2,4,5,-2
1558439171474640,-2,-3,-1,18,6,1,1,1
1558439171474640,-1,-2,-8,-15,-4,-1,-2,-1
1558439171482621,-2,-2,-6,-5,-3,-4,-6,-2
1558439171482621,1,4,5,5,4,-1,1,0
1558439171496584,-2,0,2,4,0,1,-1,-4
1558439171496584,-1,-2,5,3,1,-1,-8,-4
1558439171504562,-3,-3,-8,-15,-8,-1,-3,-3
1558439171504562,1,0,1,3,-2,2,1,1
1558439171519972,-2,-1,-2,-3,1,-2,-2,1
1558439171519972,1,-1,0,1,-3,-7,0,0
1558439171521518,0,-1,-1,2,2,2,1,1
1558439171521518,-1,0,-1,0,5,4,2,1
1558439171534927,-1,-1,-3,-7,-9,-7,-5,-3
1558439171534927,0,-3,-2,1,-3,0,-2,-6
1558439171542890,-3,-1,4,6,9,-2,-2,0
1558439171542890,-1,-1,-2,-8,-1,4,-1,0
1558439171557520,0,2,7,13,5,-1,1,2
1558439171557520,-3,-2,-1,-6,-7,2,1,-2
1558439171565542,0,0,-8,-22,-2,-4,4,3
1558439171565542,-2,-1,-6,-4,-3,1,-5,-1
1558439171580675,0,1,2,4,-4,-4,-3,-1
1558439171580675,-4,-3,1,-3,-3,-5,-6,-1
1558439171580675,3,2,4,10,6,10,9,2
1558439171580675,0,1,1,0,-5,-14,-1,0
1558439171594322,-1,-2,0,1,3,-3,2,-2
1558439171594322,-1,1,5,5,8,10,0,1
1558439171602660,0,0,-4,4,-4,-3,-3,-3
1558439171602660,-2,-2,-5,-16,-5,-2,-3,-2
1558439171616620,-3,-3,-6,-9,-7,1,-5,-1
1558439171616620,-1,0,0,-2,-3,-5,-3,-2
1558439171625626,-2,-1,1,7,5,6,5,3
1558439171625626,1,0,1,6,8,5,3,1
1558439171640200,0,-1,2,-2,6,-3,-3,-1
1558439171640200,-2,-2,-5,-3,-7,-1,-2,0
1558439171641298,-3,-2,-3,-5,-8,-7,-6,-3
1558439171641298,3,0,0,4,-3,-2,0,-2
1558439171654519,0,-2,0,-6,-3,-1,-2,-3
1558439171654519,2,-2,-2,3,4,3,7,3
1558439171662176,-1,0,-2,0,5,7,5,0
1558439171662176,-1,-5,-7,-7,-10,-12,-4,-1
1558439171677201,-2,-2,-1,3,1,1,-5,-2
1558439171677201,-1,0,4,2,3,3,4,-2
1558439171685419,-3,-4,-5,-7,-2,-1,-5,-5
1558439171685419,-2,-1,0,3,0,-1,0,0
1558439171700416,0,-1,0,-1,0,5,6,0
1558439171700416,1,-3,-3,2,1,-3,-6,0
1558439171700416,0,1,5,7,0,1,0,-1
1558439171700416,-3,-2,-6,-6,-9,-3,-6,-4
1558439171715039,1,3,6,13,3,1,-1,-1
1558439171715039,-5,-4,-21,-20,-4,-5,0,2
1558439171723246,0,-1,-1,6,-5,-10,-3,1
1558439171723246,-3,-1,-1,-8,6,4,-3,-2
1558439171737296,1,-1,5,7,0,1,2,0
1558439171737296,2,1,-3,0,-5,-1,-1,-3
1558439171744920,-2,0,0,1,-1,0,-4,-5
1558439171744920,-2,-1,0,8,-3,-3,-3,-4
1558439171759982,-2,-3,-4,1,3,1,0,0
1558439171759982,-1,0,-8,-17,-3,-1,0,-2
1558439171768113,-2,-3,2,0,-6,-2,-4,-3
1558439171768113,-3,-3,-4,-10,-1,-2,-2,-1
1558439171774878,0,0,-4,-4,1,2,1,0
1558439171774878,-5,-3,5,6,5,-4,0,0
1558439171781822,-3,0,0,-1,-9,-7,-8,-5
1558439171781822,0,1,7,11,4,7,1,1
1558439171797099,-2,-2,-7,-7,2,12,4,2
1558439171797099,-2,-1,-9,-6,-3,-8,0,1
1558439171805095,1,0,4,5,1,-6,2,2
1558439171805095,-1,-2,-2,-16,-6,-12,0,-1
1558439171820066,-4,-2,-3,-9,-8,-4,1,-3
1558439171820066,-1,0,6,6,2,0,-3,-2
1558439171827697,0,-2,-1,4,3,9,2,1
1558439171827697,3,2,4,6,-2,-3,-2,3
1558439171833683,-4,-3,-5,3,-1,3,-2,-2
1558439171833683,-2,-1,-4,-7,-7,-6,-3,-3
1558439171842657,-1,-2,-1,-1,2,3,-1,0
1558439171842657,2,1,5,7,4,-4,-1,0
1558439171856653,-1,-2,-10,-18,-8,-8,-5,-3
1558439171856653,1,0,1,8,-3,-1,-3,-1
1558439171864599,0,-1,0,-6,3,-1,3,0
1558439171864599,-1,0,0,9,-1,1,2,-2
1558439171879559,1,0,5,16,1,-3,-2,-1
1558439171879559,0,-2,-10,-18,-1,8,0,1
1558439171887536,-2,0,0,-6,-5,-5,-4,-4
1558439171887536,-1,-4,-5,2,0,-2,2,-1
1558439171895516,-1,0,6,4,-1,-6,0,-1
1558439171895516,-2,1,5,11,-1,1,-1,-1
1558439171902499,-1,-4,-10,-17,-14,-7,-9,-4
1558439171902499,-4,-1,-2,2,1,5,2,0
1558439171916899,2,2,-1,-11,5,13,8,4
1558439171916899,-1,-3,4,11,1,-3,-5,-3
1558439171932421,3,2,8,3,10,-4,4,5
1558439171932421,-4,-5,-21,-15,-12,-11,-6,-2
1558439171939399,-1,-5,0,-2,-7,-8,-8,-4
1558439171939399,-1,-1,-4,-8,2,10,4,0
1558439171955361,0,1,8,15,3,-5,-2,0
1558439171955361,-1,0,1,-2,-2,4,-4,-5
1558439171963335,-2,0,-1,2,0,-10,0,0
1558439171963335,-3,-3,-6,-8,-7,-5,-5,-3
1558439171964331,-2,-4,-2,-11,-6,-1,-1,-2
1558439171964331,1,-1,-1,-3,-1,-1,-3,2
1558439171976458,0,0,-2,1,-6,-10,-7,-1
1558439171976458,2,2,12,11,5,5,4,1
1558439171985370,0,0,-9,1,8,10,7,4
1558439171985370,-1,-1,-1,-5,-1,1,2,2
1558439171999237,-1,-1,-5,-8,-2,1,4,-2
1558439171999237,0,-2,1,2,-7,-17,-4,-4
1558439172008214,-2,-2,-7,-4,-3,3,-5,-4
1558439172008214,-2,0,3,5,3,7,-1,-3
1558439172023173,-3,-2,-1,0,3,3,5,2
1558439172023173,1,2,-1,-7,0,-3,-1,0
1558439172024203,-2,-2,-4,10,-3,3,-4,-3
1558439172024203,0,-2,5,-16,-4,2,-1,-1
1558439172045118,1,0,-5,-2,-1,-2,-1,-1
1558439172045118,-2,-1,4,7,-2,1,-2,-3
1558439172047112,2,-1,-2,-1,3,3,-1,0
1558439172047112,1,2,-2,-8,-4,-4,1,-2
1558439172059080,-3,-2,2,3,3,1,1,-2
1558439172059080,0,-2,-3,-4,3,3,3,2
1558439172068055,0,0,-4,-10,-5,-12,0,2
1558439172068055,-2,-1,8,9,4,6,-2,2
1558439172082018,-3,-3,-7,-4,-7,-3,-1,-6
1558439172082018,-1,1,-1,2,3,3,-1,1
1558439172096977,-1,-1,4,-5,-4,0,0,1
1558439172096977,-1,-3,0,19,11,1,5,0
1558439172097974,-4,-4,-13,-21,-12,-5,-8,-3
1558439172097974,0,0,-1,-7,-3,-5,-2,-2
1558439172105953,-1,0,-2,-1,-2,-5,5,-1
1558439172105953,-2,0,5,8,3,-6,-5,-1
1558439172119162,1,-1,1,4,-5,4,0,1
1558439172119162,-2,-1,1,3,0,2,-5,1
1558439172127896,-2,-2,2,-4,-1,2,4,0
1558439172127896,-2,-2,-6,-5,-4,-1,2,-1
1558439172142856,1,0,2,-7,4,-8,-1,0
1558439172142856,1,0,3,6,3,3,3,3
1558439172148846,-5,-1,-1,0,-1,-4,-4,-1
1558439172148846,-1,-1,1,9,-3,3,-3,-4
1558439172156819,-3,-1,-2,-8,-6,-1,0,-1
1558439172156819,0,0,-2,-3,0,-8,-3,-4
1558439172165795,-4,-5,0,0,-6,-5,-7,-6
1558439172165795,-2,-1,-7,-2,9,17,10,3
1558439172178761,0,0,1,4,5,1,-1,0
1558439172178761,0,-1,2,1,-6,-13,-4,-2
1558439172187751,1,0,0,7,2,-2,-2,-2
1558439172187751,-4,-7,-15,-26,-12,-4,-4,-4
1558439172210674,1,1,3,8,-1,-4,-2,0
1558439172210674,-2,0,-5,-5,-3,1,-1,-2
1558439172211670,2,-1,0,1,1,7,1,1
1558439172211670,1,2,7,8,2,-11,-2,2
1558439172216657,0,-1,-6,-11,5,9,7,-1
1558439172216657,-4,-2,-4,-5,-5,-1,-3,-3
1558439172232615,-2,1,-6,-5,-4,-2,-2,0
1558439172232615,0,-1,3,7,2,-5,2,-1
1558439172239609,-1,0,4,3,-1,-5,-9,-3
1558439172239609,-2,-3,3,4,1,1,2,-1
1558439172247573,2,1,-1,-4,5,2,3,1
1558439172247573,1,1,0,9,-2,0,0,-1
1558439172261538,-2,-4,-1,-2,-2,-1,-3,-2
1558439172261538,-1,-1,1,-1,3,6,4,-1
1558439172270512,0,2,1,-1,-4,-3,-2,1
1558439172270512,-2,0,0,0,-4,-12,-9,-2
1558439172276498,1,2,4,6,7,5,7,2
1558439172276498,-2,-2,-5,-11,-5,-2,-1,-2
1558439172285473,-3,-4,-6,4,0,3,3,0
1558439172285473,1,0,-4,-16,-4,-11,-1,0
1558439172299689,-2,-4,0,6,-1,0,-3,-2
1558439172299689,0,0,0,1,1,-10,1,1
1558439172308412,-1,-2,-1,-2,1,6,-2,-6
1558439172308412,-1,-2,-1,0,-6,1,-1,-2
1558439172321510,-2,-1,0,10,-4,-4,-9,-5
1558439172321510,0,0,3,-8,-4,-3,1,-1
1558439172330354,0,0,1,-5,6,4,3,0
1558439172330354,0,1,-1,2,4,2,0,0
1558439172336337,1,3,2,-2,0,-2,1,3
1558439172336337,1,0,1,11,-2,-3,-5,-2
1558439172345313,-2,-1,2,0,-5,-1,-5,-3
1558439172345313,-1,-2,-1,2,4,14,0,-1
1558439172359275,2,0,-5,-8,-8,-11,1,0
1558439172359275,-1,-1,2,5,2,-2,2,0
1558439172375232,1,-3,2,-2,3,-7,4,3
1558439172375232,-1,-1,-1,0,-1,2,0,0
1558439172382817,-5,-1,-1,2,-2,4,-3,-5
1558439172382817,-1,-1,-4,-4,1,0,-5,2
1558439172390194,-1,-1,0,3,-1,-3,2,2
1558439172390194,-1,0,-3,-6,-7,-5,-5,-2
1558439172397319,3,-1,5,6,6,7,5,2
1558439172397319,-1,-3,4,4,-1,-1,-1,-1
1558439172405152,1,-2,-13,-13,0,1,3,3
1558439172405152,-3,-3,-9,-12,-8,-3,-4,-3
1558439172419117,-2,4,3,2,2,5,0,-1
1558439172419117,1,1,-2,-2,-2,0,-4,0
1558439172428091,-2,-1,5,10,-6,-9,-3,-1
1558439172428091,-1,0,5,10,5,4,7,1
1558439172442053,-2,-4,-16,-16,-7,1,-3,-5
1558439172442053,-1,-1,2,3,0,-1,1,0
1558439172450033,0,-2,0,-10,2,4,0,-3
1558439172450033,1,-2,-1,-2,1,-4,0,-2
1558439172457016,0,-2,2,2,-1,-11,-8,-3
1558439172457016,0,0,-2,-2,-1,2,2,-1
1558439172465991,1,0,4,21,1,6,0,-1
1558439172465991,-3,-2,-5,-8,2,-7,-3,0
1558439172478955,-6,-5,-11,-16,-9,0,-4,-1
1558439172478955,0,0,-2,-1,4,5,4,1
1558439172487932,-4,1,-5,-1,-4,-8,-11,-7
1558439172487932,0,3,6,4,-4,-1,-7,-3
1558439172502134,-1,-1,0,-4,-3,-1,-1,-1
1558439172502134,-3,-5,-4,4,7,5,-1,0
1558439172510870,-1,-1,3,-3,-1,-6,1,0
1558439172510870,0,-1,-2,3,0,4,2,3
1558439172516857,2,1,2,-1,2,-6,-2,2
1558439172516857,-1,0,-3,0,-5,0,-1,-4
1558439172525831,-3,0,0,2,1,2,-5,-3
1558439172525831,-3,0,-1,-3,-9,-10,-2,-3
1558439172538795,-3,0,5,9,8,3,3,1
1558439172538795,-3,-3,-15,-16,2,7,2,-3
1558439172555750,-1,-1,-1,-3,-4,-6,-4,0
1558439172555750,-2,-2,-2,-4,-3,0,-3,-2
1558439172561733,-2,-1,0,2,-2,1,0,-1
1558439172561733,0,-1,4,5,-2,-9,-2,-1
1558439172570709,2,1,0,-8,1,-4,0,1
1558439172570709,-1,-3,-3,2,-2,1,-2,-1
1558439172576978,0,-5,-9,-12,-5,-1,-5,-1
1558439172576978,-2,-2,-1,-2,0,3,-2,-1
1558439172585669,0,-1,3,2,-1,-6,2,1
1558439172585669,-2,0,-3,-5,-5,-4,-1,-1
1558439172599752,-1,-1,4,2,0,0,-2,-2
1558439172599752,0,2,5,7,6,4,1,0
1558439172607610,-2,-3,-12,-6,-10,2,2,0
1558439172607610,0,0,-1,-5,5,-1,0,0
1558439172621575,-3,-1,0,-1,-5,-9,-5,-3
1558439172621575,-1,-1,-3,-2,-8,-2,-4,-2
1558439172630549,-1,-1,3,3,-1,-4,-5,-1
1558439172630549,1,0,2,8,1,-3,4,0
1558439172636534,-1,-3,-9,-12,-3,0,0,-3
1558439172636534,-1,-3,1,2,2,-2,-4,-1
1558439172645510,-3,0,-4,-6,1,-3,2,-1
1558439172645510,-1,0,2,3,0,3,0,-2
1558439172659474,1,2,4,8,5,1,3,0
1558439172659474,1,-1,-2,-3,-5,1,1,0
1558439172668449,-3,-1,-1,-1,-2,2,-7,-3
1558439172668449,0,-2,-2,-9,-3,-3,-4,0
1558439172681413,0,-1,7,13,5,5,5,1
1558439172681413,-1,-5,-17,-15,-8,-7,-3,-3
1558439172690389,-1,-1,-3,0,2,-2,-1,-2
1558439172690389,-3,-1,1,8,-3,0,0,-1
1558439172696384,1,2,-2,-11,-2,-3,2,3
1558439172696384,1,2,14,27,12,4,6,2
1558439172705520,0,-1,-7,-8,-3,2,0,0
1558439172705520,-4,-2,-3,-2,-1,-1,1,-1
1558439172719548,-2,-1,2,1,-1,0,-5,-3
1558439172719548,-2,1,-2,-4,-9,-5,-4,-1
1558439172728288,3,1,4,1,-2,-6,-1,0
1558439172728288,-1,-1,5,6,-1,-3,-1,-2
1558439172741473,0,1,0,-4,3,-2,-1,1
1558439172741473,-4,-3,-15,-23,-4,-2,-4,0
1558439172750229,-2,-3,-3,-7,-5,4,-4,-3
1558439172750229,-1,-2,-1,-7,-1,1,-2,-1
1558439172756421,-2,-1,-2,4,-3,-2,-7,-1
1558439172756421,1,0,4,6,-3,-9,6,1
1558439172765268,-2,-2,-5,-15,-9,-7,-3,-2
1558439172765268,1,-3,3,6,9,12,6,1
1558439172779153,-1,-3,-6,0,-3,-1,2,0
1558439172779153,-2,-2,4,2,0,0,0,0
1558439172788129,-1,-1,1,4,4,2,2,0
1558439172788129,4,1,-3,-5,-6,-8,0,-3
1558439172801093,-1,0,1,-11,-2,-1,-3,-1
1558439172801093,0,-3,-7,-5,-4,-6,-4,-4
1558439172810322,1,1,1,-1,0,0,0,1
1558439172810322,-1,1,2,-3,4,5,1,0
1558439172816054,-2,2,2,5,3,6,3,0
1558439172816054,-2,-3,-6,-11,-5,-8,-7,-2
1558439172825031,-1,-1,4,11,3,-3,3,-1
1558439172825031,-3,-3,-2,-4,1,2,-1,-5
1558439172838993,0,-1,6,8,-4,-2,-2,-3
1558439172838993,2,1,2,-5,0,4,5,2
1558439172847968,0,1,7,12,6,9,5,0
1558439172847968,-2,-2,-9,-16,-5,-5,-5,-3
1558439172861931,-2,0,-3,2,-5,-17,-7,-5
1558439172861931,-5,-1,-2,-1,-2,1,-2,-3
1558439172870907,-3,-1,0,5,3,7,3,0
1558439172870907,0,-2,-7,-5,-1,-1,-2,0
1558439172885866,-1,-1,-3,-2,-5,-7,-5,-1
1558439172885866,1,0,3,6,0,-2,-3,-2
1558439172886864,-2,-4,-6,-11,-8,-9,-7,-6
1558439172886864,-1,1,8,17,4,7,0,-1
1558439172898831,0,-1,-10,-21,-4,-2,3,-1
1558439172898831,4,0,4,6,12,6,1,1
1558439172907808,1,-2,-4,-1,-4,0,3,1
1558439172907808,-3,-3,-2,-7,-1,-2,0,-1
1558439172921770,-4,-4,-3,-2,3,5,4,1
1558439172921770,-6,-1,-1,3,-7,-3,-5,-5
1558439172930747,1,1,1,1,2,3,-4,-3
1558439172930747,0,0,5,4,-8,-9,-6,-2
1558439172945715,-3,-4,-14,-9,0,8,7,0
1558439172945715,-2,0,2,-1,5,-9,0,-1
1558439172947701,0,1,4,-5,-2,1,4,-1
1558439172947701,-1,-1,-12,-7,-5,-4,-4,-1
1558439172958696,-3,-3,0,-5,-4,-3,-7,-2
1558439172958696,0,2,-5,-3,-1,8,3,1
1558439172967649,-4,-4,-7,-8,-5,-5,-3,-5
1558439172967649,1,1,3,3,2,-1,0,2
1558439172981614,0,-2,7,19,7,-6,-3,-4
1558439172981614,-4,-1,-1,-11,4,0,-2,-2
1558439172990591,-1,-2,-3,-3,-2,-3,-1,0
1558439172990591,-2,0,4,7,1,-6,-1,2
1558439173005546,1,-3,-6,-9,-6,-1,-3,-2
1558439173005546,0,-1,-1,-8,-11,3,-1,-4
1558439173006545,0,0,0,2,2,-3,2,2
1558439173006545,1,0,3,4,1,0,-5,0
1558439173019513,1,2,4,5,4,9,8,4
1558439173019513,-4,-3,2,15,0,1,0,-3
1558439173028491,-4,-4,-16,-23,-11,-6,-10,-3
1558439173028491,-1,-2,-5,-2,-2,-6,2,1
1558439173041452,1,1,4,5,7,2,3,0
1558439173041452,-1,-2,1,3,-5,-2,-6,-1
1558439173050426,1,-2,2,5,0,4,-2,-2
1558439173050426,0,2,2,-4,3,-2,1,1
1558439173065385,0,0,0,-4,5,2,0,1
1558439173065385,0,-1,-5,-9,-7,0,-1,-2
1558439173066383,-3,0,6,15,7,4,-1,-1
1558439173066383,-5,-4,-9,-5,-4,-4,-5,-3
1558439173079349,0,1,-3,-1,-6,-6,1,0
1558439173079349,2,0,1,-7,-1,-3,-1,1
1558439173088325,-2,-2,3,10,-1,0,2,0
1558439173088325,0,-2,-1,-10,3,2,3,1
1558439173101295,-3,0,-4,2,-1,-1,-6,-5
1558439173101295,-1,-2,-2,-2,-3,-3,-3,-2
1558439173110271,0,-1,-3,-4,-4,-1,-1,-1
1558439173110271,0,-2,0,2,5,7,3,0
1558439173125226,1,0,3,-4,2,-1,-3,-1
1558439173125226,-4,-1,-4,-8,-7,-8,1,1
1558439173127221,1,2,-6,-11,3,2,1,2
1558439173127221,-1,-1,-2,-1,-2,-3,-5,-1
1558439173139189,0,-1,0,3,-2,1,3,1
1558439173139189,2,0,14,25,7,2,-3,-1
1558439173148170,-5,-6,-13,-19,-10,-5,-4,-4
1558439173148170,0,1,2,0,-2,0,-2,-2
1558439173162129,0,0,-2,0,5,3,5,3
1558439173162129,-1,1,6,12,5,2,2,-1
1558439173170107,2,1,1,-2,-2,-12,-4,-2
1558439173170107,-1,-2,0,2,-2,2,-1,-2
1558439173185066,-4,-5,-6,-13,-12,-6,-6,-4
1558439173185066,-1,-2,-11,-9,-2,-3,-2,-2
1558439173187062,1,0,10,13,1,-4,-5,-1
1558439173187062,0,1,-4,-7,-2,7,0,-2
1558439173199029,1,2,8,6,5,1,8,3
1558439173199029,-2,-2,-9,-11,-2,-14,-2,1
1558439173208005,-2,-1,2,5,1,0,-4,-3
1558439173208005,-3,-4,-6,1,-5,-5,-6,-4
1558439173221970,-2,-1,2,4,-6,-3,-5,-4
1558439173221970,0,-2,-1,-2,-2,5,2,2
1558439173230946,0,-2,3,7,9,1,3,2
1558439173230946,0,-4,-10,-19,-9,-8,-5,-2
1558439173245904,-1,-1,-4,3,0,1,-1,-1
1558439173245904,0,1,4,3,-2,-12,-5,-2
1558439173252884,-2,-2,-7,-13,-1,7,2,0
1558439173252884,0,1,7,14,7,4,4,0
1558439173258876,1,2,1,5,-1,-3,-2,2
1558439173258876,-3,-3,-5,-2,3,5,4,0
1558439173267846,1,0,1,-6,-8,-8,0,0
1558439173267846,0,-1,-3,0,1,1,2,-1
1558439173281807,2,1,0,4,-3,5,4,2
1558439173281807,-1,1,7,12,6,0,0,1
1558439173290784,-2,0,-4,-18,-3,4,-1,1
1558439173290784,-5,-1,-4,-4,-6,-10,-2,-2
1558439173305744,-6,-7,-2,-1,-2,-4,-8,-6
1558439173305744,1,2,6,-2,2,8,5,0
1558439173306749,-2,-2,-6,16,-9,-7,-4,-4
1558439173306749,1,0,11,14,6,2,-1,2
1558439173318737,-2,-2,-12,-19,-5,1,-3,-3
1558439173318737,-1,-4,0,0,0,5,-1,-3
