timestamp,emg1,emg2,emg3,emg4,emg5,emg6,emg7,emg8
1558439201452420,-2,-3,-2,12,2,5,2,2
1558439201452420,-2,0,3,3,3,2,-1,1
1558439201453417,-2,-1,-7,-14,-4,2,1,-1
1558439201453417,0,1,5,11,-4,-4,0,-3
1558439201454414,-2,0,-4,-8,-4,-10,-3,0
1558439201454414,-1,-2,-6,-10,-1,-3,-5,-5
1558439201455410,-1,0,6,8,4,3,0,-2
1558439201455410,-3,0,0,6,1,0,-2,-1
1558439201466381,-2,-1,-3,-14,-1,6,1,-1
1558439201466381,-1,1,-4,-12,-7,-4,-4,1
1558439201475640,1,-1,1,14,5,8,0,1
1558439201475640,0,-2,-4,-3,-2,-6,1,-1
1558439201481342,1,0,-1,-7,1,-7,1,-1
1558439201481342,-1,-2,-2,7,-4,-5,-2,-2
1558439201495305,-1,0,1,1,2,2,0,-1
1558439201495305,1,-2,-3,-8,-2,-2,-2,-1
1558439201505278,-1,-1,-2,3,1,-1,1,1
1558439201505278,-1,-1,4,10,3,6,3,-1
1558439201511262,-2,-3,-10,-7,-9,-5,-4,-4
1558439201511262,0,1,13,13,2,0,-1,-1
1558439201526222,-3,-5,-23,-17,-7,-6,0,-1
1558439201526222,-2,-1,2,-3,8,-5,-1,2
1558439201534200,-1,1,1,-15,-11,-5,-2,2
1558439201534200,-5,-6,-7,5,3,1,-5,-3
1558439201574094,-2,1,4,1,-7,-8,-1,-2
1558439201574094,-3,-1,6,8,7,7,5,1
1558439201575092,1,-1,-9,-18,-7,-3,1,-1
1558439201575092,-2,-1,-2,4,5,-3,-1,1
1558439201575092,0,0,-1,-8,0,3,0,-2
1558439201575092,1,0,-2,-1,-3,-5,-6,-2
1558439201578083,-2,0,-2,9,2,-8,-6,0
1558439201578083,-2,-1,8,5,1,9,2,-1
1558439201587059,-3,-5,-14,-27,-8,-5,-1,-3
1558439201587059,-1,-3,2,12,0,2,-4,-1
1558439201593044,0,-1,-1,-9,1,2,0,0
1558439201593044,2,2,1,-8,-3,-12,-5,0
1558439201609000,0,-1,0,10,2,5,2,0
1558439201609000,-2,-3,-1,-4,-5,-5,-2,0
1558439201615981,0,-2,1,4,2,4,-1,2
1558439201615981,1,2,-1,-7,1,-1,0,0
1558439201624957,-3,-1,-5,3,2,3,6,-2
1558439201624957,-2,-4,0,-6,-8,-8,-2,-3
1558439201630942,0,-1,4,6,-3,-2,-6,-5
1558439201630942,-2,-2,-10,-8,-7,-5,0,-2
1558439201646900,4,4,9,11,6,-2,0,2
1558439201646900,0,-3,-14,-16,0,-2,4,1
1558439201652885,-3,-3,3,8,-7,-1,-3,-3
1558439201652885,-3,-4,-3,-1,-5,5,-1,-3
1558439201669838,-1,-2,4,8,-4,-8,-5,0
1558439201669838,-1,1,1,3,3,0,-6,-3
1558439201675823,1,2,-3,-12,2,6,7,4
1558439201675823,-1,-2,2,3,3,-3,-2,-3
1558439201684798,-2,-2,1,1,-8,-5,-2,-2
1558439201684798,1,1,2,0,1,1,1,0
1558439201690783,-2,-3,-5,-1,-4,1,2,0
1558439201690783,0,1,5,4,0,4,2,-1
1558439201706739,-1,-2,-10,-7,-3,-3,-3,-1
1558439201706739,1,0,5,-2,3,-5,1,1
1558439201712723,0,0,0,-2,-1,3,0,-2
1558439201712723,0,-3,-4,2,2,1,1,1
1558439201729677,1,0,3,1,0,-3,0,1
1558439201729677,-2,-1,-6,-2,-1,1,1,-2
1558439201735663,-4,2,1,3,5,-1,-2,-1
1558439201735663,-2,2,7,21,3,2,-2,-4
1558439201744638,-3,-4,-12,-36,-8,-1,-5,-3
1558439201744638,1,1,3,5,3,2,-3,-1
1558439201757604,-1,-1,-4,-6,-6,-4,-3,-1
1558439201757604,3,1,4,5,4,4,4,3
1558439201766579,-1,-2,0,1,-1,2,0,-2
1558439201766579,-3,-1,-4,2,-1,5,1,-1
1558439201772564,-1,-1,-1,-8,-6,-17,-3,-2
1558439201772564,-2,-1,3,-2,2,4,-3,-1
1558439201789518,3,2,7,7,13,11,5,2
1558439201789518,-4,-5,-6,-13,-11,-8,-4,-6
1558439201795512,2,2,9,12,6,9,1,-2
1558439201795512,-1,-3,-2,-5,-4,-18,-2,2
1558439201804478,-1,2,-3,-14,2,-2,0,3
1558439201804478,-1,-3,-4,2,-2,-1,-5,-3
1558439201818441,2,1,6,6,3,1,1,2
1558439201818441,1,-1,-3,-4,-6,2,-6,-3
1558439201827418,-3,-3,3,4,0,2,-2,-5
1558439201827418,3,4,3,-6,-1,2,1,2
1558439201833400,-2,-1,6,9,5,-5,1,0
1558439201833400,-1,-3,-9,-3,-7,-3,-4,-1
1558439201849358,-2,-1,7,18,6,-4,-5,-6
1558439201849358,-5,-5,-10,-18,-9,-5,2,-1
1558439201855342,-1,-1,-5,0,1,2,0,1
1558439201855342,0,1,-1,-5,2,5,3,3
1558439201864318,-2,-5,-8,4,-5,3,-2,-1
1558439201864318,1,-1,3,5,-2,-13,-5,-1
1558439201878281,1,1,3,-1,10,9,2,-1
1558439201878281,-4,-3,-12,-11,-7,-6,-2,-5
1558439201887256,-3,0,-2,3,-1,-1,-1,-1
1558439201887256,0,0,0,7,5,9,-1,1
1558439201893240,1,-1,-7,-8,-5,-5,2,0
1558439201893240,1,0,6,-7,2,0,-3,0
1558439201909198,-1,-1,-1,-1,-4,0,-2,-2
1558439201909198,-1,0,0,-1,-1,-3,-4,-1
1558439201924159,-3,-3,1,3,-6,-13,-10,-5
1558439201924159,-4,-1,0,-2,-3,1,-3,-1
1558439201926153,3,3,5,6,3,2,2,2
1558439201926153,-1,2,5,0,-2,-2,-6,-3
1558439201947098,-2,-4,-13,-12,0,7,1,-3
1558439201947098,1,0,-1,-5,3,-3,1,-2
1558439201948095,-2,-2,4,-2,-7,-4,-4,0
1558439201948095,1,1,9,10,7,1,-3,-1
1558439201953083,-2,-3,-12,-3,-5,1,-2,-1
1558439201953083,-3,-1,3,-4,-7,-1,1,-1
1558439201969040,-3,-1,-3,3,3,1,-1,-1
1558439201969040,-2,-1,-2,-4,0,2,2,-2
1558439201976019,-1,-1,5,-1,-6,-9,-5,-2
1558439201976019,-1,-3,-3,9,0,2,0,-1
1558439201984995,4,3,-2,-6,6,9,6,1
1558439201984995,-2,-2,-3,1,-1,-1,3,3
1558439201997959,-2,-1,7,3,1,2,-1,-3
1558439201997959,-4,-4,-13,-7,-10,-10,-5,-2
1558439202006937,1,0,-1,5,-4,-11,-5,-3
1558439202006937,1,3,12,18,8,6,5,-1
1558439202012923,-4,-7,-24,-42,-23,-10,-7,-4
1558439202012923,-1,-2,-1,4,5,7,4,0
1558439202029875,1,-3,-4,-5,9,6,1,2
1558439202029875,-3,-4,0,1,-5,-4,-2,-1
1558439202035860,1,5,12,18,7,5,2,2
1558439202035860,0,0,-2,-9,-5,-5,-5,-2
1558439202044835,-2,-3,0,0,-8,-2,-5,-4
1558439202044835,-1,0,-3,-1,4,1,3,-1
1558439202057800,-3,-1,3,9,5,-1,-2,0
1558439202057800,0,2,4,-2,6,7,6,0
1558439202066775,-2,0,-2,-3,-3,-5,-5,-3
1558439202066775,-1,-2,-2,-8,-6,-6,3,1
1558439202072760,0,1,4,3,6,-1,-7,1
1558439202072760,2,-1,0,-4,-4,5,3,3
1558439202089715,-2,-2,-1,3,-3,-3,0,1
1558439202089715,-1,0,-11,-12,-1,5,-1,0
1558439202095700,-2,-1,0,5,-6,-4,-1,-2
1558439202095700,0,-1,-2,4,1,-5,0,-2
1558439202110659,-3,-2,0,2,0,3,-5,-3
1558439202110659,1,0,-1,-3,6,0,2,0
1558439202117641,1,-1,-3,-10,-6,-9,-1,-1
1558439202117641,-2,-2,2,-1,-4,-7,-6,-4
1558439202135591,0,-1,0,-1,-2,2,5,1
1558439202135591,0,2,2,4,3,0,-3,-4
1558439202135591,-3,-3,0,0,1,10,1,-1
1558439202135591,0,-1,0,0,-1,-4,-5,-1
1558439202157534,-1,-1,-2,-2,-2,-3,-1,-2
1558439202157534,1,-1,3,-5,-3,-8,-1,3
1558439202158531,0,-2,-1,1,-1,4,2,0
1558439202158531,-1,-1,0,9,6,5,4,2
1558439202164515,-2,-3,-13,-28,-9,-15,-4,-2
1558439202164515,0,1,1,14,0,8,5,2
1558439202178481,-1,-2,-6,-7,-1,-3,0,-1
1558439202178481,-2,0,-1,-3,-7,-4,-5,-2
1558439202187454,0,-1,3,7,-4,-5,-4,-3
1558439202187454,1,-2,0,4,-1,-2,-1,-2
1558439202200418,2,2,0,-3,6,-3,1,0
1558439202200418,1,1,5,5,7,5,1,0
1558439202209394,-2,-2,-8,-12,-7,-2,-2,-3
1558439202209394,-2,-2,-1,-1,-6,2,-4,-1
1558439202224356,0,0,0,0,-2,-3,0,-1
1558439202224356,-1,-3,-3,-4,5,0,0,1
1558439202226349,-1,0,2,6,-2,-3,5,2
1558439202226349,-4,-3,0,-3,-3,-2,-5,-5
1558439202247294,0,1,4,-2,0,-2,-1,1
1558439202247294,-1,0,0,7,4,0,-1,-2
1558439202248292,0,-2,2,8,5,12,-4,0
1558439202248292,-1,-3,-11,-17,-3,-2,3,0
1558439202253287,-2,0,9,10,-1,-10,-5,-3
1558439202253287,-3,-4,-16,-17,-12,-3,-7,-5
1558439202269237,3,0,8,6,12,13,11,2
1558439202269237,-1,0,-4,3,1,-5,-3,0
1558439202275222,1,-1,1,0,5,6,1,2
1558439202275222,0,0,3,-2,-1,-3,-3,0
1558439202284194,0,3,-1,5,1,0,-2,-1
1558439202284194,-3,-2,0,-6,-5,2,-4,-2
1558439202298158,-3,-1,0,2,-5,0,3,-2
1558439202298158,0,0,-3,-1,2,2,6,2
1558439202307134,0,1,-4,-7,-4,-14,-6,-2
1558439202307134,2,-1,5,3,8,4,1,0
1558439202313117,-3,-2,-6,-3,-6,-4,-4,-2
1558439202313117,0,1,5,1,-3,6,1,-1
1558439202329075,-3,-3,4,4,-1,-7,-3,-1
1558439202329075,1,-2,-6,-3,1,4,4,3
1558439202336056,0,-1,-3,-2,-2,-7,-6,-1
1558439202336056,-3,-2,2,5,-2,-1,1,-2
1558439202344034,-2,-1,-2,-4,-5,-8,-1,-2
1558439202344034,-2,-1,-3,-1,-9,-4,-9,-5
1558439202357997,-2,-5,-5,-6,2,10,7,-1
1558439202357997,2,2,2,1,4,-4,0,1
1558439202366973,-2,-1,-3,1,-1,1,-2,-4
1558439202366973,-2,0,1,-7,-1,3,-2,-3
1558439202372957,0,1,1,4,-2,2,-3,2
1558439202372957,-1,-1,-4,-11,-6,-13,2,4
1558439202389912,-1,0,-6,5,4,8,6,1
1558439202389912,1,2,7,6,6,-1,-5,-2
1558439202395896,1,-1,-2,-5,0,0,-1,-2
1558439202395896,-1,0,3,0,-1,2,-4,-1
1558439202404874,1,0,5,0,0,3,3,1
1558439202404874,-3,-3,-4,5,0,-5,0,1
1558439202417838,0,-2,-15,-22,-6,0,-3,-2
1558439202417838,-2,-2,-7,-9,-11,-7,-7,-4
1558439202426814,-1,-1,6,4,6,15,4,-2
1558439202426814,1,1,1,6,0,-3,-3,-1
1558439202432799,-1,0,-4,-12,-5,-18,-1,-2
1558439202432799,0,1,13,13,7,3,-4,-3
1558439202449752,-5,-7,-26,-21,-10,-8,-10,-2
1558439202449752,2,0,-2,-5,5,8,2,3
1558439202455740,1,0,4,12,-1,4,4,0
1558439202455740,1,2,3,5,6,4,2,0
1558439202464711,5,3,13,17,4,-4,-2,1
1558439202464711,-7,-6,-18,-31,-16,-12,-10,-8
1558439202478677,-1,-4,-6,-2,-3,2,1,-2
1558439202478677,-3,-1,-9,-22,-5,-4,-3,-2
1558439202486658,-3,-1,-2,4,-5,2,-1,1
1558439202486658,4,2,8,1,7,4,6,2
1558439202492637,-3,1,13,23,5,0,-1,-3
1558439202492637,-4,-7,-22,-19,-14,-14,-4,-4
1558439202509591,1,0,0,-5,4,1,-1,-1
1558439202509591,-2,0,11,15,1,-7,-9,-2
1558439202515636,-1,0,-8,-6,-3,6,3,3
1558439202515636,-1,0,-2,6,6,0,-2,1
1558439202524560,0,-1,2,-1,-2,-1,-2,-3
1558439202524560,-3,-5,-8,-8,-9,0,-2,-2
1558439202538594,-4,-3,2,0,-2,4,-5,-2
1558439202538594,-1,-1,-1,5,1,2,0,0
1558439202547491,0,2,0,-4,0,-2,4,3
1558439202547491,1,2,7,13,1,-4,-3,-2
1558439202560461,-3,-2,-8,-7,-9,-4,-5,-2
1558439202560461,0,1,3,2,6,7,3,0
1558439202569436,3,5,16,18,14,3,0,2
1558439202569436,-2,-4,-23,-29,-15,-5,3,-1
1558439202592371,1,0,1,7,2,-2,-3,-2
1558439202592371,-2,-1,-3,-5,-16,-4,0,-5
1558439202593371,0,0,4,14,2,-13,-7,-1
1558439202593371,0,-2,-2,-13,0,2,-5,-4
1558439202598356,0,-2,6,11,8,5,2,2
1558439202598356,3,2,8,10,1,5,5,1
1558439202614312,-2,-3,-10,-16,-5,4,-4,-2
1558439202614312,-2,1,-1,11,-8,-18,-7,-4
1558439202620299,-2,-2,-8,-18,-8,-7,-8,-5
1558439202620299,0,3,8,9,15,18,8,4
1558439202629271,-1,-4,-9,-16,-4,-11,-2,2
1558439202629271,0,1,6,8,4,6,4,1
1558439202644236,-2,0,0,3,-10,-4,-2,-2
1558439202644236,-1,-4,-6,-17,1,-5,-6,-2
1558439202646229,-2,-1,5,9,1,0,-1,-4
1558439202646229,1,-1,-3,-1,2,6,8,3
1558439202658243,1,2,10,15,4,-10,-7,1
1558439202658243,-2,-4,-12,-21,-9,-4,-1,1
1558439202667173,-4,-3,-15,-17,-9,1,2,-1
1558439202667173,0,-1,7,1,6,10,2,2
1558439202680346,-1,-2,-2,-1,4,2,2,-2
1558439202680346,1,0,14,23,6,0,-4,-1
1558439202689319,2,-2,-13,-18,-9,-1,-4,-1
1558439202689319,0,-1,2,3,-7,-4,-7,-1
1558439202705162,0,1,-1,-1,10,6,10,2
1558439202705162,1,0,8,10,0,-4,-2,-1
1558439202706067,-4,-1,8,10,1,-4,-4,-1
1558439202706067,-3,-1,-14,-18,-6,7,1,-2
1558439202718265,-1,-4,-7,-10,-4,-2,-2,0
1558439202718265,-2,0,1,1,-1,-9,1,0
1558439202727104,0,1,9,21,5,-2,-5,-1
1558439202727104,-3,-2,-2,-6,0,-4,-1,-2
1558439202740975,-2,-2,-6,-3,-3,4,0,-3
1558439202740975,6,1,-1,-5,0,2,-3,1
1558439202756138,-5,-3,-8,-1,4,4,4,-3
1558439202756138,-3,-4,4,2,-3,-4,-1,-1
1558439202764912,0,0,0,-2,1,-3,-4,0
1558439202764912,-4,-4,-6,-2,-6,3,-2,-5
1558439202765908,5,2,3,-2,-4,-5,1,1
1558439202765908,-2,1,2,3,3,-2,-3,-2
1558439202777875,-1,1,5,3,2,-7,0,-1
1558439202777875,-2,-5,-7,1,-6,-7,-4,-1
1558439202786851,-2,-2,0,-8,-2,9,-1,-2
1558439202786851,-1,-1,-8,-3,0,-3,3,1
1558439202800823,3,1,10,14,0,-3,-2,1
1558439202800823,-5,-5,-17,-23,-2,2,-7,-2
1558439202809792,-4,-5,-8,-13,-2,-4,0,-2
1558439202809792,-1,0,6,12,-4,-2,-7,-3
1558439202824750,1,0,0,-3,-1,6,4,-1
1558439202824750,1,3,5,6,4,3,3,2
1558439202825746,3,-1,3,-3,-7,-14,-6,-2
1558439202825746,-7,0,2,5,12,18,6,-2
1558439202837717,-1,3,4,2,8,3,6,4
1558439202837717,-5,-3,-3,-1,-8,-10,-1,-4
1558439202846689,0,-3,-6,-3,-5,0,-5,-2
1558439202846689,2,0,7,0,-6,-7,-1,2
1558439202869631,-1,-4,-6,3,-1,-3,3,0
1558439202869631,2,2,8,-3,3,8,4,0
1558439202870625,-1,2,-3,4,3,-3,1,0
1558439202870625,0,-4,0,-7,-6,-5,-5,-5
1558439202884589,-5,-4,-4,-4,-5,-1,-4,-1
1558439202884589,2,-1,3,2,0,-2,-2,-1
1558439202885586,-2,-2,-1,12,-6,4,7,-2
1558439202885586,0,-1,-5,-9,-2,-11,-5,-1
1558439202898565,-3,0,-3,-10,-4,2,-5,-3
1558439202898565,-2,-3,-1,-1,-6,-6,-4,-3
1558439202907529,-4,-3,-5,-6,1,2,-1,-3
1558439202907529,-1,1,0,1,4,6,2,-1
1558439202920502,-2,-1,3,2,-5,-9,-3,-2
1558439202920502,0,0,-4,-11,-5,-8,-2,1
1558439202929471,-2,-1,1,4,1,0,-1,0
1558439202929471,1,-1,-5,0,4,3,4,0
1558439202944489,0,-2,-1,-2,8,7,1,-1
1558439202944489,-1,1,3,6,-1,-1,2,-1
1558439202945428,-2,-2,-3,-10,-9,-10,-2,-1
1558439202945428,-1,0,0,1,0,0,5,2
1558439202958409,0,1,4,-1,-3,2,-1,-1
1558439202958409,-4,-3,-7,4,2,-2,-6,-1
1558439202967370,-1,0,-3,-4,-3,2,-3,0
1558439202967370,0,-2,0,-3,-3,-12,-3,2
1558439202980437,0,-1,-1,-2,6,3,3,3
1558439202980437,-3,-2,-6,-6,-6,-3,-7,-3
1558439202989390,0,0,4,4,-3,-9,-1,2
1558439202989390,-3,-1,0,7,4,3,-1,-2
1558439203004388,-1,-1,2,0,1,5,3,-2
1558439203004388,-1,-2,-5,-6,-4,-2,5,0
1558439203010254,3,1,0,1,3,1,-1,-1
1558439203010254,-1,0,-1,1,-6,-5,-1,-1
1558439203018236,-1,0,3,3,-4,-2,-3,-3
1558439203018236,-2,0,-1,4,5,8,-2,-1
1558439203027211,-1,1,5,4,-1,-1,1,1
1558439203027211,-2,-2,-6,-15,-8,-4,2,-1
1558439203040175,-3,-3,-11,-8,2,3,-5,-3
1558439203040175,-2,-2,-2,7,3,-1,1,-1
1558439203049153,0,-4,-4,-14,-4,0,-3,-4
1558439203049153,-1,-1,0,6,-7,-7,-5,-3
1558439203064110,2,2,1,-8,-1,-3,-1,1
1558439203064110,1,-1,-7,-15,-4,1,2,0
1558439203070092,-3,0,4,7,6,3,-1,-2
1558439203070092,0,0,4,10,1,0,-1,-2
1558439203078071,-2,-4,-10,-2,-6,-8,-1,-1
1558439203078071,-1,-2,6,9,3,1,0,-3
1558439203087046,-1,-1,1,8,1,3,0,-2
1558439203087046,-2,-1,1,-13,-1,4,-7,-2
1558439203101009,-2,-3,-10,1,-5,-10,-2,-6
1558439203101009,2,1,0,-12,-4,-15,-3,2
1558439203109986,-3,-4,-10,-4,-1,4,1,0
1558439203109986,2,0,7,10,9,13,9,3
1558439203123948,0,1,0,1,-1,1,-5,1
1558439203123948,-3,3,10,16,6,11,5,1
1558439203131123,-2,0,-3,-6,-7,-12,-6,-2
1558439203131123,2,-1,-9,-12,-11,-9,-3,-1
1558439203138106,-1,-1,-2,-3,-1,0,1,3
1558439203138106,-1,1,6,12,2,-4,-2,-2
1558439203146888,1,-3,-5,-11,-2,9,2,1
1558439203146888,-3,-1,3,11,1,-4,-3,-4
1558439203170027,0,0,2,7,5,5,1,1
1558439203170027,0,-4,-9,-13,-9,-10,-4,0
1558439203170826,-2,0,-1,-1,5,9,0,0
1558439203170826,-1,-3,2,1,0,-1,0,2
1558439203183984,-1,1,2,0,-2,-8,-1,-2
1558439203183984,1,-1,-4,2,1,6,-1,1
1558439203198814,1,0,1,3,-2,-1,-8,-4
1558439203198814,1,1,-4,-9,9,13,8,2
1558439203206770,0,-3,0,-4,-11,-10,-4,-4
1558439203206770,-2,-2,10,9,10,2,1,1
1558439203208723,0,-3,2,0,-7,-12,-5,-1
1558439203208723,-3,-3,-11,-9,-10,-13,-11,-9
1558439203220990,-2,-3,-8,-6,-5,-5,-4,-4
1558439203220990,-1,-1,-1,3,3,8,-1,0
1558439203229671,-1,1,1,-1,3,5,12,1
1558439203229671,0,4,11,19,3,-4,-2,-2
1558439203243840,-1,-4,-19,-15,3,9,5,-1
1558439203243840,-4,-4,-4,-12,-10,-16,-7,-7
1558439203250611,2,0,-6,-7,-4,-6,-2,1
1558439203250611,-2,-6,4,12,2,-3,-3,-2
1558439203267658,0,0,2,-4,-1,4,3,2
1558439203267658,-1,-1,6,2,1,5,-5,-5
1558439203268565,-3,-2,-3,8,-3,-6,-1,-1
1558439203268565,-2,-4,-22,-35,-7,-9,0,1
1558439203280531,-2,-3,3,3,-9,-9,-7,-4
1558439203280531,3,2,1,5,6,6,1,1
1558439203289527,-1,1,9,-3,2,7,-6,-4
1558439203289527,0,-3,-13,-4,-2,6,8,5
1558439203304473,0,2,8,8,0,6,6,3
1558439203304473,-6,-10,-10,2,-8,-9,-5,-6
1558439203310449,0,0,-2,-5,-1,-12,-2,-1
1558439203310449,-1,-1,-3,2,-1,7,-6,-4
1558439203327548,2,1,1,-12,-1,4,-3,2
1558439203327548,1,3,5,6,3,2,5,2
1558439203333567,-2,-2,1,6,4,-2,-5,-4
1558439203333567,-2,1,2,-10,0,-2,3,2
1558439203340370,-3,-1,2,3,-7,-9,-6,-3
1558439203340370,-1,-1,-6,-11,-3,2,-1,-4
1558439203357325,2,-1,5,11,19,23,10,3
1558439203357325,-2,-3,-12,-11,-12,-9,-7,-3
1558439203364309,-2,0,6,9,2,3,3,0
1558439203364309,0,2,-8,-19,-1,-1,2,3
1558439203378278,-3,-3,0,8,1,-7,-6,-4
1558439203378278,1,1,6,15,2,1,-1,-2
1558439203387553,-1,-1,-4,-11,0,1,-8,-4
1558439203387553,1,1,-3,3,-4,-5,0,2
1558439203388245,1,1,-4,-4,3,-6,7,4
1558439203388245,-3,-1,5,2,-2,0,-2,-4
1558439203400248,0,-3,5,5,-4,0,-5,-2
1558439203400248,1,-2,0,5,2,-3,2,-1
1558439203409185,-2,-4,-6,-11,-9,1,1,0
1558439203409185,-1,2,8,4,1,-5,-5,-3
1558439203424145,-3,-3,-8,1,-5,-5,-3,0
1558439203424145,0,-1,-5,-6,-1,-3,-3,-2
1558439203430167,1,1,3,-6,6,6,7,3
1558439203430167,2,2,7,12,7,3,4,2
1558439203447110,-2,0,4,12,0,0,-2,0
1558439203447110,-1,-3,-14,-27,-10,-9,-4,0
1558439203448083,-3,1,-1,-4,0,2,1,-1
1558439203448083,-1,0,3,2,-2,-5,3,-3
1558439203460049,-1,0,3,2,5,0,0,-1
1558439203460049,-2,-2,9,14,1,1,1,-1
1558439203469026,-1,-3,-13,-17,-10,-5,-5,0
1558439203469026,0,-1,-6,-9,-2,-3,-5,-2
1558439203491977,1,1,0,-5,0,-2,-1,-3
1558439203491977,-2,-3,3,8,3,-2,-3,-4
1558439203493271,-2,-2,-4,-16,-14,-5,-2,-1
1558439203493271,-1,-2,4,14,5,5,4,2
1558439203506941,0,-1,0,-9,1,-2,-3,-3
1558439203506941,-2,-4,-7,-5,-3,3,0,-1
1558439203507921,-3,-3,2,9,-3,-9,-7,-4
1558439203507921,-1,-1,2,9,5,3,1,0
1558439203521293,-1,0,-13,-10,-8,-4,2,2
1558439203521293,-2,-1,-2,0,-7,-9,-2,0
1558439203529276,0,-1,1,2,5,13,6,1
1558439203529276,-3,-2,-2,-5,-5,-7,-1,-1
1558439203544592,0,0,7,11,12,5,3,1
1558439203544592,-3,-3,0,2,-12,-5,-5,-5
1558439203551336,0,-4,-9,-15,-7,-8,-10,-2
1558439203551336,-1,1,8,4,4,7,0,1
1558439203567518,-4,-3,-8,-2,1,6,5,-2
1558439203567518,2,4,4,2,0,-4,1,4
1558439203569169,-2,0,9,17,2,-5,-3,-2
1558439203569169,-2,-3,-9,-10,-6,-3,-6,-3
1558439203581154,-1,0,-3,-9,2,6,0,0
1558439203581154,0,-1,6,11,-5,0,-3,1
1558439203589410,0,-2,-4,-1,1,-4,-2,-4
1558439203589410,1,-2,-1,-6,-9,-11,-9,-1
1558439203612263,-2,-2,-1,3,6,9,7,0
1558439203612263,-1,2,3,-1,5,10,0,0
1558439203613056,1,0,-1,1,0,4,1,1
1558439203613056,-2,-2,-6,-12,-2,-1,-2,-4
1558439203627239,-2,-1,-2,-2,-6,-11,-6,-4
1558439203627239,-1,1,5,-2,2,5,1,-1
1558439203628017,-2,2,0,0,-4,-11,-6,3
1558439203628017,1,3,4,3,2,3,3,0
1558439203640983,-2,-1,5,10,2,-6,-4,0
1558439203640983,-2,-3,-18,-25,-6,4,3,-1
1558439203649953,-1,1,5,0,-4,-3,-1,-3
1558439203649953,-1,-2,-1,-2,0,6,0,-2
1558439203663920,3,2,3,2,-7,-12,-3,1
1558439203663920,-3,-3,-2,3,2,-1,-3,-2
1558439203670898,-4,-4,-8,5,3,7,3,1
1558439203670898,1,-1,0,3,0,-1,-1,1
1558439203687155,-1,0,-3,-4,-6,-7,5,1
1558439203687155,0,-1,-3,1,-4,-8,-7,-2
1558439203687856,1,3,5,8,7,6,5,2
1558439203687856,1,-2,2,3,2,1,-4,-3
1558439203701109,-1,1,-7,-6,0,1,-3,-3
1558439203701109,1,1,5,1,3,-4,4,2
1558439203709795,-1,-3,-7,-22,-7,-2,-3,-3
1558439203709795,-3,-2,1,9,3,3,6,1
1558439203723792,0,-1,4,-13,2,-6,-4,2
1558439203723792,1,1,-1,10,2,-6,-4,-2
1558439203731007,-1,0,-2,-7,-8,-1,-5,-2
1558439203731007,-1,-1,-13,-12,-8,-2,-4,-1
1558439203746694,-1,-2,3,5,-3,2,5,1
1558439203746694,1,0,1,4,9,4,5,1
1558439203748690,0,-2,0,-3,-1,-1,0,1
1558439203748690,-1,-3,0,0,2,-2,-2,-1
1558439203769885,-1,-1,-3,-2,-3,9,2,0
1558439203769885,-1,-2,3,-3,-1,0,-6,-3
1558439203770633,-2,-1,2,7,-3,-3,1,-4
1558439203770633,-1,1,4,7,1,-3,-2,-2
1558439203783631,-3,-4,-16,-26,1,-4,-2,0
1558439203783631,-2,-3,-5,1,-9,-5,-4,0
1558439203791585,0,-1,1,3,3,-5,0,-1
1558439203791585,-3,-2,-1,-3,-3,2,-5,0
1558439203806541,1,2,3,2,1,-2,2,0
1558439203806541,-2,1,-2,1,1,4,-1,0
1558439203808529,-2,-3,-2,-4,-4,1,-6,-5
1558439203808529,-1,-1,-1,-2,-3,-5,-5,0
1558439203820728,1,2,1,5,5,4,5,1
1558439203820728,-2,-2,-11,-20,-6,-4,0,0
1558439203829477,-2,0,6,7,4,3,2,-1
1558439203829477,0,-1,-5,-2,-1,-5,5,1
1558439203843437,-2,-5,1,2,-5,-2,-4,-2
1558439203843437,-1,-1,8,6,1,2,-4,-3
1558439203852412,-2,-2,-9,-2,-6,-6,-3,-4
1558439203852412,0,-1,-2,-11,1,7,6,3
1558439203867371,-2,-1,-2,-2,-1,-9,2,0
1558439203867371,-2,-1,5,7,7,3,3,-1
1558439203868375,2,2,-4,-4,-2,-7,-7,1
1558439203868375,-4,-5,-4,-2,-9,-4,-3,-3
1558439203880366,-2,1,1,3,0,3,-2,-2
1558439203880366,-1,0,-1,-3,-5,3,-4,-4
1558439203889537,3,0,2,2,3,-4,1,3
1558439203889537,0,1,6,6,10,1,3,1
1558439203903588,-4,-5,-14,-14,-15,-5,-8,-3
1558439203903588,-3,-2,1,15,4,0,-1,-2
1558439203912255,-1,-2,-1,-11,-5,3,1,0
1558439203912255,1,2,-1,-8,5,3,-2,-2
1558439203926547,-2,-1,-1,-3,1,-3,1,1
1558439203926547,-1,-1,-2,0,0,4,1,0
1558439203933515,0,0,5,8,-5,-4,0,-2
1558439203933515,-3,-6,-18,-15,-12,-10,-6,-6
1558439203940177,1,-1,2,5,10,3,-2,-1
1558439203940177,-2,1,7,13,6,5,4,0
1558439203949444,-4,-2,-3,-6,-4,-2,-3,0
1558439203949444,3,3,7,3,1,0,4,4
1558439203963151,1,3,2,3,4,4,4,-1
1558439203963151,-1,-4,-7,-6,-3,-8,-7,-2
1558439203972102,0,1,3,6,0,0,1,-1
1558439203972102,-1,-2,-6,-5,-3,-2,1,-1
1558439203986273,-2,-2,3,10,3,7,-1,-3
1558439203986273,1,0,1,-12,-3,-1,3,2
1558439203993077,-2,-3,1,2,5,4,-3,-1
1558439203993077,-2,-2,4,2,-2,-4,0,-2
1558439204001092,0,0,-2,-2,-8,-11,-6,0
1558439204001092,0,-2,-1,3,-1,3,2,-2
1558439204009992,-5,-2,-6,0,-5,-2,-4,-5
1558439204009992,-3,1,3,-6,2,7,1,1
1558439204023095,0,-1,7,7,7,1,-2,2
1558439204023095,0,-2,-4,-12,-2,-9,-5,-2
1558439204031933,1,-1,3,11,2,-1,5,2
1558439204031933,-2,-3,-12,-13,-8,-4,-3,-1
1558439204046893,-2,1,3,4,-5,1,-6,-3
1558439204046893,-2,-2,-5,-7,-2,1,-4,0
1558439204052877,-2,-1,0,8,3,-3,-1,-1
1558439204052877,-1,-3,-1,1,-3,-8,-3,-1
1558439204060864,-1,-1,1,3,-3,2,0,0
1558439204060864,0,-1,-10,-14,-7,-8,0,-2
1558439204069837,-1,-1,2,8,3,6,-2,-1
1558439204069837,0,0,-2,-10,-4,2,3,-1
1558439204082795,-5,-4,-8,-11,0,-4,-5,-4
1558439204082795,-2,-2,4,12,-3,8,0,-4
1558439204092769,1,1,-4,-14,3,4,5,2
1558439204092769,-1,-2,7,22,4,-4,-5,-2
1558439204106145,1,-2,5,0,-6,-4,0,0
1558439204106145,-3,-4,-6,4,4,4,4,2
1558439204113129,-2,-1,-10,-20,-3,0,-1,-4
1558439204113129,-4,-1,-2,6,-2,3,-4,-3
1558439204130116,-1,-1,6,13,2,5,1,0
1558439204130116,-1,1,8,3,-6,-11,-2,0
1558439204130666,-1,-2,-1,-3,0,-5,0,-2
1558439204130666,-2,-3,-13,-8,-1,-2,-3,0
1558439204142989,-1,1,-2,0,3,5,5,-4
1558439204142989,1,2,4,3,1,5,-2,0
1558439204151915,0,-1,4,7,-1,-2,0,1
1558439204151915,4,1,9,8,0,-1,-5,-3
1558439204166804,-2,-6,-16,-23,-5,-3,-1,-2
1558439204166804,1,0,4,-7,-3,-11,-1,1
1558439204173554,-2,0,1,3,-1,-5,-3,-1
1558439204173554,-3,-1,8,11,1,2,-4,-2
1558439204189725,-3,-1,-10,-19,-11,-2,-3,-1
1558439204189725,-1,-2,2,9,7,7,4,2
1558439204190509,1,0,-6,-12,0,-5,5,4
1558439204190509,-3,-3,-2,-15,-3,-7,0,0
1558439204203690,2,-2,8,10,4,3,4,3
1558439204203690,-3,-2,-8,-9,-6,-4,-5,-3
1558439204212452,-1,-2,-3,-3,-6,-1,-3,-2
1558439204212452,0,2,6,9,7,3,1,-1
1558439204226633,-1,1,-8,1,-4,-1,-2,1
1558439204226633,-3,1,6,7,7,-1,4,-2
1558439204233624,-1,-2,-9,-2,-6,3,1,0
1558439204233624,-1,-1,-4,-1,-4,-7,-2,-3
1558439204249352,-2,0,3,0,1,-7,1,1
1558439204249352,-1,-1,2,3,3,2,-2,-2
1558439204250353,-2,-2,-3,6,-8,0,-5,-6
1558439204250353,-1,-3,-3,-8,-6,1,1,-3
1558439204263312,3,2,-1,7,8,1,1,4
1558439204263312,-2,-3,1,1,-1,-3,-6,0
1558439204278273,-1,0,-1,-1,2,1,5,1
1558439204278273,3,1,-6,-7,-2,1,0,1
1558439204286250,0,0,4,3,-4,-2,-4,-4
1558439204286250,-1,-1,-2,-5,0,3,-4,-1
1558439204293528,-2,0,9,11,5,-4,-3,1
1558439204293528,-2,-4,-4,4,-6,-7,-1,-3
1558439204310218,-2,-1,-8,-15,-4,-4,-4,-1
1558439204310218,1,0,-1,-2,0,0,4,0
1558439204311215,-2,0,2,-1,3,6,1,0
1558439204311215,-2,3,12,17,8,-4,3,2
1558439204323185,1,-3,2,-7,-5,-4,-4,-2
1558439204323185,-3,-5,-18,-16,-12,-4,-7,-4
1558439204332131,-2,-3,-5,-2,-3,3,-3,-3
1558439204332131,0,0,-3,-5,1,7,5,0
1558439204346383,-3,-3,6,14,7,0,-1,-2
1558439204346383,2,1,8,4,6,2,1,4
1558439204353361,-1,-2,-4,-5,-3,-4,-3,-3
1558439204353361,-3,-2,2,7,-3,1,-2,-3
1558439204370082,-2,1,-4,-1,0,-2,5,-2
1558439204370082,-3,-2,-5,3,-7,-4,-3,-1
1558439204371028,1,1,0,5,6,4,2,2
1558439204371028,-2,-2,-5,-17,-6,-1,-5,-1
1558439204383253,-2,0,3,16,3,1,-2,0
1558439204383253,-1,0,-8,-18,-7,-6,2,-2
1558439204391968,-1,0,7,1,-2,-7,-7,-1
1558439204391968,-2,1,1,7,3,4,5,1
1558439204406189,0,-1,-5,-6,-3,-5,1,-1
1558439204406189,0,-1,-1,-3,-2,-1,0,-3
1558439204421118,-1,0,3,7,5,6,-1,0
1558439204421118,1,0,-8,-13,2,3,6,3
1558439204430072,-1,1,7,7,0,1,-2,-2
1558439204430072,-1,-2,-3,-3,-2,-1,0,-1
1558439204430868,-1,1,-3,-5,-5,-7,-1,-1
1558439204430868,-1,-3,-5,-1,-5,-4,0,2
1558439204443068,0,-2,-4,-5,-5,-4,-2,-3
1558439204443068,-3,-1,-2,-2,0,0,-3,-2
1558439204451808,-4,-2,-6,-9,-5,-8,-5,-1
1558439204451808,3,2,2,1,7,6,0,-1
1558439204465774,-1,0,3,5,-3,-9,-1,1
1558439204465774,-3,-3,-6,-14,-11,-8,-4,-4
1558439204473054,-4,-4,-4,0,-7,-6,-10,-5
1558439204473054,1,0,-2,-7,-8,-8,-4,-1
1558439204489705,2,0,1,2,15,15,9,4
1558439204489705,2,3,8,14,9,2,4,2
1558439204490703,-3,-2,-7,-2,-3,3,5,0
1558439204490703,-1,0,1,-10,-1,0,-7,-2
1558439204502672,-2,-3,-5,1,-5,-4,-5,-3
1558439204502672,3,3,10,11,6,-2,2,2
1558439204511646,1,-2,-7,-19,-2,-1,1,0
1558439204511646,-3,-2,-5,1,-1,3,-3,-5
1558439204526608,-3,-1,-2,-5,-5,-7,-7,-2
1558439204526608,0,0,3,2,1,4,2,1
1558439204532590,1,-2,5,9,1,4,0,1
1558439204532590,-4,-3,-7,-4,-4,-6,-5,-4
1558439204549580,-3,-2,2,-6,-1,2,-4,-3
1558439204549580,-3,-3,-11,-7,-4,2,-2,-3
1558439204550581,-1,3,14,18,6,4,7,0
1558439204550581,-2,-2,-8,-13,-5,-6,-2,1
1558439204563639,-1,-1,2,1,3,3,1,-1
1558439204563639,-3,-2,0,4,-6,-10,-5,-3
1558439204571841,-1,-3,-6,-6,0,-11,-4,-2
1558439204571841,-3,-2,-3,-8,-3,1,-4,-2
1558439204586800,0,-5,-5,-4,-6,-5,-7,-4
1558439204586800,-1,1,7,11,10,14,14,2
1558439204593434,1,-1,-3,-4,-2,-11,-4,1
1558439204593434,0,-2,-2,-4,-5,-4,0,-2
1558439204609809,0,-1,0,-3,-2,-3,-6,-1
1558439204609809,-2,-2,-5,7,1,4,-1,0
1558439204616403,-3,-1,-6,-9,-5,-2,-2,1
1558439204616403,-2,-1,2,10,9,7,8,4
1558439204623349,-2,-2,-5,0,-5,-3,-1,3
1558439204623349,0,-1,0,-1,-2,-4,-2,-2
1558439204639477,0,-2,-1,-5,-1,0,-3,-3
1558439204639477,-3,-1,2,2,-3,-4,-6,-2
1558439204646320,-1,-2,-5,-4,-3,-1,3,0
1558439204646320,3,1,-1,-1,7,2,3,3
1558439204653487,-1,-3,-4,-9,-5,0,-5,-5
1558439204653487,-1,-3,1,10,-2,-3,-2,-1
1558439204669417,2,5,7,6,6,2,3,1
1558439204669417,-1,-2,-3,0,-3,-8,-1,-3
1558439204671229,-1,-1,-8,-7,1,9,6,1
1558439204671229,-2,-2,2,4,5,2,-2,-2
1558439204683190,-1,0,-1,-6,-4,-1,1,-1
1558439204683190,0,-2,-6,-12,-11,-9,-9,-1
1558439204693165,-3,-1,0,0,0,1,0,-4
1558439204693165,3,0,-1,0,-2,-6,3,0
1558439204706131,-3,-2,0,-2,1,5,1,0
1558439204706131,-3,-2,3,-3,-1,-1,-4,-4
1558439204713143,0,-3,-2,0,-7,-3,-5,-2
1558439204713143,1,2,5,4,6,-3,2,3
1558439204730111,2,0,1,6,3,0,4,2
1558439204730111,-1,1,3,1,3,0,-2,3
1558439204731064,1,0,4,3,5,7,6,-1
1558439204731064,-2,0,-3,4,0,-2,-2,-4
1558439204743219,-1,-2,-3,-4,-5,-3,-7,-2
1558439204743219,1,0,-4,-6,-4,-2,-1,1
1558439204752013,1,0,8,16,5,1,-1,0
1558439204752013,-1,-2,-5,-17,-6,1,1,2
1558439204766156,-2,-3,-7,-9,-9,-11,-5,-2
1558439204766156,-2,0,1,7,9,12,6,2
1558439204772980,2,2,1,0,3,-7,7,2
1558439204772980,0,-2,5,7,-3,-5,-8,-4
1558439204789906,-2,-3,-4,-8,-2,-1,0,0
1558439204789906,1,-1,1,10,1,0,-2,-2
1558439204790905,-3,-1,-8,-14,-6,0,-4,-2
1558439204790905,-2,-3,-2,-14,-2,-1,1,-1
1558439204812076,-4,-2,0,13,0,-4,-1,-1
1558439204812076,1,-1,-8,-24,-4,4,1,2
1558439204813840,0,-1,3,-4,1,-4,-1,2
1558439204813840,1,0,3,6,-4,-4,-1,-2
1558439204826986,-1,-1,-3,-5,-1,0,1,-4
1558439204826986,-2,-1,2,8,2,-2,-4,-5
1558439204832977,-1,-1,2,-1,-5,-2,-1,0
1558439204832977,-2,-1,-8,-5,-4,-6,-6,-3
1558439204848933,-2,-3,7,9,8,13,10,0
1558439204848933,-5,-5,-12,-9,-6,-3,-2,-2
1558439204855921,-1,0,3,4,2,-3,-4,-3
1558439204855921,0,-1,8,13,9,-1,0,4
1558439204863707,1,-2,-12,-12,-5,-3,-2,-4
1558439204863707,-1,0,-6,-18,-11,-2,-3,-5
1558439204871901,-3,0,-1,4,6,7,3,1
1558439204871901,-4,-4,-8,-10,-3,-3,1,-2
1558439204886651,-2,-2,1,12,2,-5,-6,-3
1558439204886651,2,0,3,6,0,1,5,1
1558439204892636,1,-2,-8,3,2,-6,2,-4
1558439204892636,-2,-2,-3,-6,3,7,3,-3
1558439204908586,1,-1,5,9,-4,-3,-3,-2
1558439204908586,0,-2,-3,-5,-7,-17,-7,-1
1558439204915572,-2,-1,6,7,-2,-2,-5,-2
1558439204915572,2,0,-1,3,-2,-1,1,0
1558439204922550,1,1,4,2,3,0,4,6
1558439204922550,-3,-1,-1,1,7,8,1,0
1558439204931825,-2,-3,-6,-10,-8,-3,-7,-3
1558439204931825,0,2,4,3,2,3,2,1
1558439204946785,-2,-1,-6,-12,-4,-1,-3,-3
1558439204946785,3,-1,0,4,-4,-5,0,1
1558439204953763,-1,-1,-1,-3,2,2,1,-2
1558439204953763,0,1,4,0,0,0,-4,-4
1558439204969449,-5,-3,4,4,-3,-8,-3,-1
1558439204969449,-2,-2,-5,0,-1,4,2,0
1558439204976418,-2,-3,-1,1,-7,-7,-9,-3
1558439204976418,1,0,-4,-4,4,4,4,2
1558439204992562,2,1,2,0,-1,2,3,0
1558439204992562,-1,0,2,-1,3,0,-2,-1
1558439204993360,0,0,-3,-5,-3,2,-1,0
1558439204993360,-1,-1,-5,5,-1,1,-2,0
1558439205006358,1,1,-4,-6,2,4,1,1
1558439205006358,-1,0,8,10,3,-4,1,3
1558439205013338,1,0,-2,-19,-1,7,7,3
1558439205013338,-5,-5,-8,-2,-9,-3,-2,-3
1558439205029317,-3,-4,-11,-11,-4,-1,-3,-2
1558439205029317,-3,-1,-3,-5,-5,0,-4,-4
1558439205036247,-1,2,7,13,6,3,3,-1
1558439205036247,1,0,6,1,6,-7,-2,0
1558439205043277,-1,-1,-9,-15,-10,2,-4,-2
1558439205043277,-3,-3,6,4,-5,-4,-7,-5
1558439205052211,-3,-4,2,5,2,-3,2,0
1558439205052211,-1,1,-7,-7,-10,-6,0,-1
1558439205066175,0,2,4,5,6,-2,-3,-1
1558439205066175,-2,-2,-14,-13,-6,-4,-3,-2
1558439205073157,0,-3,-1,-2,0,6,0,1
1558439205073157,-1,0,4,4,4,6,2,0
1558439205089322,-2,1,5,8,4,1,2,0
1558439205089322,0,-1,-4,-9,-3,-1,-2,0
1558439205096087,-3,-5,-15,-12,-9,-5,-5,-1
1558439205096087,1,-2,6,9,0,-7,-2,0
1558439205112043,2,-1,-3,-4,1,-1,1,0
1558439205112043,-1,-1,-1,-4,4,-2,-1,-3
1558439205113039,-2,0,5,14,-5,-1,-1,-4
1558439205113039,-3,-3,-8,-18,-6,3,-4,-4
1558439205126005,1,2,5,1,8,-1,0,3
1558439205126005,1,0,-2,-3,-3,0,0,0
1558439205133291,2,-1,0,-1,0,-12,-3,0
1558439205133291,-1,-1,-7,-1,-6,3,1,-2
1558439205149247,-3,-2,1,1,-6,-5,-8,-4
1558439205149247,0,0,1,6,9,7,5,2
1558439205156240,-1,-1,5,5,2,6,0,0
1558439205156240,-3,-2,-12,-11,-1,-4,-2,1
1558439205172148,-2,-1,-3,0,1,2,0,1
1558439205172148,-5,-7,-7,-9,-8,-5,-3,-3
1558439205172882,-1,1,-5,-3,-1,-7,-1,1
1558439205172882,4,3,14,8,2,1,5,5
1558439205187034,-2,-6,-7,-1,-4,-1,-1,-4
1558439205187034,1,3,6,4,1,-2,3,2
1558439205193111,-2,-2,-7,-12,0,-2,-5,-5
1558439205193111,-2,-1,2,7,-6,4,-5,-4
1558439205209782,-2,0,-5,-3,0,2,-1,-2
1558439205209782,0,0,10,11,1,-5,3,1
1558439205216799,-1,-2,-8,-4,-1,-5,-4,-1
1558439205216799,-3,-1,-6,-3,-2,-5,-1,-1
1558439205232721,0,0,15,5,8,2,5,0
1558439205232721,-4,-3,-15,-9,-6,0,-6,-6
1558439205233721,1,0,2,2,-3,-1,0,0
1558439205233721,-1,-1,-2,0,4,6,0,-1
1558439205246819,0,0,-2,-2,-10,-7,-7,0
1558439205246819,0,1,6,11,7,-2,9,6
1558439205252908,-1,0,5,1,1,5,5,3
1558439205252908,0,-4,-11,-11,-4,-2,-2,-1
1558439205268841,-3,-1,3,-2,0,1,-6,-4
1558439205268841,-2,-3,1,14,3,6,2,-5
1558439205275638,-1,3,2,-10,2,0,-5,-3
1558439205275638,-1,1,7,5,2,-7,2,1
1558439205292596,0,-2,-11,-8,-3,2,5,-1
1558439205292596,0,0,4,1,-3,-5,-4,0
1558439205293559,-4,-4,3,12,-2,0,-1,-3
1558439205293559,-4,-4,-5,-13,-3,-1,-4,-5
1558439205306523,1,0,-1,1,-1,-6,0,1
1558439205306523,-1,-1,-6,-11,-5,-10,1,1
1558439205313722,1,1,2,2,2,6,2,0
1558439205313722,0,0,-4,3,4,3,-2,-2
1558439205328497,-2,-3,4,2,-5,-3,-4,-1
1558439205328497,-2,-2,-6,-18,-7,2,-3,-2
1558439205335445,-1,-2,0,3,-3,-3,-1,-1
1558439205335445,0,1,5,9,2,-2,-1,-1
1558439205352727,0,-1,3,-3,2,1,-1,0
1558439205352727,-3,-5,-7,5,6,5,-4,-3
1558439205353397,-2,1,1,3,1,4,3,0
1558439205353397,-2,-1,-5,-19,-10,-9,1,2
1558439205366690,1,0,-2,-3,-5,-6,-3,-2
1558439205366690,1,0,4,7,-1,-3,-7,-3
1558439205373342,0,-1,-7,-16,-2,-3,2,-1
1558439205373342,1,1,10,13,7,8,2,-1
1558439205388987,-3,-4,-5,0,-5,-5,-5,-2
1558439205388987,-1,0,-11,-6,-5,-6,0,2
1558439205395984,-1,1,-2,-14,1,-3,-4,-1
1558439205395984,0,-1,3,2,-1,9,3,1
1558439205411942,-1,0,5,7,3,2,-1,0
1558439205411942,0,-1,-2,4,-2,3,0,-2
1558439205413147,-1,-2,0,1,-1,-6,0,1
1558439205413147,-2,0,0,7,-4,-8,-5,-4
1558439205426209,-3,-1,-4,-8,4,9,2,1
1558439205426209,2,2,4,-1,1,0,1,2
1558439205433318,-3,-2,-2,4,-3,-5,-4,-3
1558439205433318,-3,-3,-3,-2,-3,0,3,0
1558439205449101,1,1,1,-5,-1,-2,2,1
1558439205449101,1,-1,6,-2,0,-2,-5,-3
1558439205457036,-1,-6,-18,-4,-2,-7,-4,0
1558439205457036,-1,3,3,-4,-2,-4,-2,-2
1558439205472258,-3,-2,-7,-6,-7,5,0,-2
1558439205472258,2,0,4,8,0,-1,-6,-3
1558439205473000,0,0,5,4,1,-5,-1,-1
1558439205473000,0,-1,-1,2,8,-2,0,-1
1558439205486987,0,-1,-8,-6,-8,-5,-4,-2
1558439205486987,-5,-2,-8,0,2,5,-7,-1
1558439205493212,0,1,2,1,0,5,0,5
1558439205493212,-1,-2,-2,2,-6,-6,1,1
1558439205508902,2,1,-2,-9,9,9,6,4
1558439205508902,0,-1,2,4,3,-5,1,1
1558439205516125,0,0,4,2,1,0,-1,-2
1558439205516125,-1,-3,-12,-12,-4,8,0,-3
1558439205531837,-3,-2,-1,1,-5,-9,-4,-2
1558439205531837,-1,-2,-6,-16,-9,-4,0,-1
1558439205533830,0,-1,4,8,3,-4,2,-1
1558439205533830,0,-1,6,0,1,1,-4,-2
1558439205545831,-4,-4,-12,-1,-2,2,-4,-4
1558439205545831,-3,-2,1,-2,-3,-2,-1,-5
1558439205554810,0,1,8,18,2,1,-3,-4
1558439205554810,-4,-4,-22,-41,-5,-3,-1,-2
1558439205568738,-1,0,9,10,4,-1,0,-2
1558439205568738,0,2,1,-7,0,-2,0,1
1558439205575717,-2,-2,-2,-8,-5,1,-2,-3
1558439205575717,-2,-3,-5,6,2,-4,1,3
1558439205591676,-1,-3,1,3,-1,0,2,-1
1558439205591676,-2,-2,2,-1,-4,-1,-3,-2
1558439205593671,-3,-1,-4,-8,0,2,2,0
1558439205593671,-1,1,6,12,1,-1,1,-1
1558439205605860,-3,-1,0,-6,-4,-11,-10,-6
1558439205605860,-2,-3,-4,-4,0,5,2,0
1558439205614617,1,2,4,10,5,-1,0,0
1558439205614617,1,0,-1,-3,-1,-1,-1,0
1558439205628915,-2,-2,-5,-3,-3,1,0,-1
1558439205628915,-3,0,1,1,-1,4,0,0
1558439205635909,-2,-3,-7,-4,-7,-2,-2,-2
1558439205635909,2,2,8,9,3,-1,-3,0
1558439205652730,0,-1,-8,-4,-4,0,0,0
1558439205652730,-1,-1,-3,-12,0,-2,-2,-3
1558439205653511,-3,-3,-8,-4,-2,5,2,-2
1558439205653511,0,2,12,5,0,-6,-1,1
1558439205665827,-1,-2,-8,-5,-4,-4,1,0
1558439205665827,-1,-2,-3,-7,-9,-11,-4,-1
1558439205674454,0,-1,6,5,-2,1,-8,-2
1558439205674454,-3,-3,-9,-13,1,6,7,2
1558439205689543,3,4,15,19,10,5,9,4
1558439205689543,-1,-3,-2,-4,4,3,3,-1
1558439205695719,-3,-2,2,0,-5,-5,-5,-1
1558439205695719,-4,-6,-4,7,-3,0,-9,-7
1558439205711622,-3,-2,-5,-15,-10,-13,-5,-1
1558439205711622,1,0,3,-5,6,1,5,-2
1558439205713350,1,-4,-14,-3,-11,-10,-1,-3
1558439205713350,1,-1,5,10,2,4,0,-3
1558439205726349,1,0,-4,-3,5,7,3,-1
1558439205726349,-1,0,8,12,1,-3,-4,-2
1558439205734510,-2,-2,-10,-9,0,-4,-1,1
1558439205734510,-4,-3,-6,-4,-6,-3,1,-3
1558439205748259,-4,-3,1,3,-5,-4,-8,-4
1558439205748259,1,1,-5,1,0,3,-2,1
1558439205755241,1,3,6,4,0,2,-1,0
1558439205755241,2,-2,-4,-8,-3,-6,1,2
1558439205772489,2,3,2,2,6,-3,3,2
1558439205772489,-1,0,-1,4,2,3,3,1
1558439205773189,-1,-3,-5,-16,1,1,-1,0
1558439205773189,-3,-4,-5,-3,-14,-7,-8,-5
1558439205786185,1,1,7,1,4,5,1,1
1558439205786185,-1,-4,-9,-9,-7,-9,-4,-1
1558439205794135,-2,-2,-5,-7,-6,-3,-4,-4
1558439205794135,0,2,-1,0,3,9,4,0
1558439205809361,-3,-3,1,4,-3,-8,0,-2
1558439205809361,-1,1,6,11,3,5,2,-3
1558439205816219,-1,-1,-2,-8,5,8,2,1
1558439205816219,-1,-1,3,4,4,-7,-5,-1
1558439205832032,-1,-1,1,8,0,5,1,0
1558439205832032,0,0,-3,-3,0,1,6,4
1558439205838326,-1,0,-4,-6,-6,-8,-8,1
1558439205838326,-2,-1,3,8,-8,-1,0,-1
1558439205846308,-2,-2,-6,-10,-4,-5,-6,-1
1558439205846308,0,-4,-4,-3,-3,-8,-4,-1
1558439205854292,0,2,16,21,8,0,3,1
1558439205854292,0,-2,-23,-33,-10,-5,4,-1
1558439205869248,-3,-2,6,6,-2,3,-2,-4
1558439205869248,-1,-3,3,7,3,6,-1,-1
1558439205876246,-1,-1,1,-9,-4,-5,1,1
1558439205876246,-1,1,6,12,9,7,-1,-1
1558439205892042,-5,-4,-6,8,-10,-6,-4,-4
1558439205892042,-3,1,-7,-20,-7,-7,-2,-2
1558439205898176,0,-1,-1,18,7,10,6,-1
1558439205898176,1,2,8,-7,7,1,-5,2
1558439205906151,2,2,0,-10,1,4,1,0
1558439205906151,-3,-5,-8,7,-6,-4,-5,0
1558439205914813,0,1,-9,-13,-5,-3,-1,-2
1558439205914813,-4,-3,6,17,4,4,-4,-5
1558439205928776,-1,-1,-1,-9,-5,-9,-5,-1
1558439205928776,2,3,9,4,3,5,2,0
1558439205935757,-1,-3,3,-2,-4,-7,0,1
1558439205935757,-2,-2,-8,-5,-5,-8,-4,-2
1558439205950715,-1,0,3,3,4,4,-2,-3
1558439205950715,-1,-2,-11,-22,-7,2,-1,-2
1558439205957696,0,1,1,1,-1,4,6,-2
1558439205957696,-2,-2,8,6,4,-11,1,-2
1558439205966137,-1,-1,0,-6,-1,2,-2,-2
1558439205966137,-3,-1,-1,13,1,-1,-1,-1
1558439205974685,1,-2,-1,1,2,-1,-1,0
1558439205974685,2,0,1,0,-3,-1,1,1
1558439205989027,-2,-1,-1,5,0,3,0,-1
1558439205989027,-4,-4,-4,-19,-9,0,0,-3
1558439205995597,-3,-3,11,22,5,-4,-3,-2
1558439205995597,1,2,-7,-8,1,3,1,1
1558439206012009,2,2,9,19,9,0,0,3
1558439206012009,-1,-4,-5,0,3,-3,-2,0
1558439206018424,-5,-3,-8,-16,-7,-6,-1,-1
1558439206018424,2,1,-4,2,2,3,2,4
1558439206035257,-2,-2,-9,-1,-3,1,2,-2
1558439206035257,-3,0,6,1,-4,-5,-5,-1
1558439206035924,-4,-5,-20,-17,-11,-4,-1,-2
1558439206035924,1,-3,-2,6,4,8,4,0
1558439206048899,3,9,6,0,4,4,5,0
1558439206048899,0,-5,-1,6,4,-2,1,1
1558439206056317,0,-1,-3,-8,-7,-9,-3,0
1558439206056317,-3,-5,-1,3,-5,-2,-8,-5
1558439206072090,-2,-8,-9,-10,-1,4,2,0
1558439206072090,3,4,3,2,3,1,-5,0
1558439206078912,0,-2,4,8,6,6,5,0
1558439206078912,-1,-2,-8,-11,-6,-5,-5,-3
1558439206095129,1,1,-10,-16,-6,-3,1,1
1558439206095129,-3,-1,4,7,-2,-1,-10,-4
1558439206095766,2,5,-2,-3,5,5,-2,0
1558439206095766,-2,3,4,8,-4,-6,-2,-1
1558439206109094,0,-2,-3,-15,-6,-13,-3,1
1558439206109094,-3,-1,-5,-3,-1,4,3,-1
1558439206116055,-4,-5,5,8,-4,-5,-3,-1
1558439206116055,-5,-2,-4,-17,-2,2,1,0
1558439206131993,-3,-4,-8,0,4,7,1,-3
1558439206131993,2,4,13,15,1,-2,2,-1
1558439206137653,4,6,-17,-23,-6,-2,-1,1
1558439206137653,-1,-3,8,7,-2,-6,-7,-3
1558439206154939,-3,-3,-1,-4,-8,-9,-1,-3
1558439206154939,-3,-4,-6,-2,-2,-1,-5,-4
1558439206155606,-1,-1,0,0,-3,4,-6,-5
1558439206155606,-2,1,-5,-1,-4,-3,2,2
1558439206168881,-2,-2,-6,0,2,0,1,1
1558439206168881,-1,1,-1,7,2,-2,3,0
1558439206175580,-4,-1,2,-1,6,3,6,2
1558439206175580,4,2,2,4,1,3,4,-1
1558439206191797,-3,-4,6,4,-7,-7,-4,-4
1558439206191797,-2,-3,-8,-7,-4,-6,-6,-5
1558439206198728,0,-1,8,8,0,1,-1,0
1558439206198728,-2,0,-6,-2,9,2,3,1
1558439206214735,3,2,-7,-6,-4,3,2,1
1558439206214735,-2,-4,6,2,-3,-4,-1,-2
1558439206216511,-2,-1,3,2,5,11,3,1
1558439206216511,1,1,2,0,1,-2,0,2
1558439206228715,0,-2,0,-1,-1,-10,-6,1
1558439206228715,1,1,4,3,0,-2,2,1
1558439206235971,-1,-2,-3,-9,-3,1,-4,-3
1558439206235971,-1,0,-7,0,1,4,1,0
1558439206251256,-5,-4,1,0,-1,-1,0,1
1558439206251256,2,0,1,-1,-2,-7,1,3
1558439206257952,-4,-5,-7,-11,-8,-6,-5,-7
1558439206257952,0,2,2,-3,-4,1,-5,-2
1558439206274872,-2,-3,-3,-5,0,5,-4,-3
1558439206274872,1,3,-1,-2,3,7,3,2
1558439206275873,0,-1,0,18,-1,-11,-3,-4
1558439206275873,-2,-3,-6,-21,-5,3,-1,-3
1558439206288834,-3,-1,-6,-4,-2,-4,-3,-3
1558439206288834,-2,0,0,2,-1,-2,1,1
1558439206295816,5,4,-5,-8,5,2,4,8
1558439206295816,-4,-7,7,14,-2,-9,-8,-1
1558439206319750,0,-1,11,5,5,6,3,0
1558439206319750,0,-1,-6,-1,2,-2,0,0
1558439206320747,-1,-1,-3,-8,-10,-12,-4,-3
1558439206320747,-3,-1,4,12,7,4,5,0
1558439206334712,-1,1,-6,-13,-9,-1,-5,-3
1558439206334712,0,2,-1,0,1,7,-2,-2
1558439206335708,-7,-5,-2,2,-2,4,-1,-3
1558439206335708,1,1,-4,-7,-3,-7,-5,-1
1558439206348672,-1,-4,3,10,10,7,6,1
1558439206348672,2,2,-8,-10,-4,3,1,2
1558439206355653,-4,-4,7,3,5,0,-4,-4
1558439206355653,-1,-4,-4,-3,-7,-5,-6,-2
1558439206371611,1,0,5,11,-4,-6,-6,-3
1558439206371611,1,5,-10,-22,-1,-2,4,0
1558439206377597,-1,-3,-2,-1,3,1,5,0
1558439206377597,-2,-1,1,5,-1,-2,-2,-3
1558439206394549,2,-2,-11,-10,-3,1,-3,0
1558439206394549,-3,-3,9,1,-2,-4,-4,-2
1558439206395550,1,3,-3,-8,-2,-2,-1,-2
1558439206395550,-4,-3,4,4,-2,-3,2,-1
1558439206408553,2,4,-3,-6,-9,-12,-4,0
1558439206408553,-1,-3,2,4,7,8,3,1
1558439206415495,-1,2,-2,3,5,6,-1,1
1558439206415495,1,0,-7,-9,-6,0,-4,-3
1558439206431453,-3,-2,5,9,8,6,1,-3
1558439206431453,0,-4,-5,-5,-6,2,-3,1
1558439206438434,2,0,2,3,-5,-7,0,0
1558439206438434,-3,0,-4,-4,-2,-1,-4,-1
1558439206454393,-2,3,3,1,-4,-3,0,-1
1558439206454393,-2,-8,-1,3,2,-5,0,-1
1558439206455389,-3,-3,-3,3,-4,-7,-5,-1
1558439206455389,-1,-4,2,-14,-5,2,-1,-1
1558439206468353,-3,-3,-3,-1,1,-3,0,-2
1558439206468353,1,4,-9,-17,-2,4,2,2
1558439206475335,-1,0,5,4,1,-2,-3,-2
1558439206475335,1,1,-4,-4,-2,-1,-4,-1
1558439206491294,-1,-2,6,10,-1,-10,-1,-1
1558439206491294,0,0,2,7,1,7,-3,-5
1558439206498274,-3,-2,-3,-7,-6,1,-1,-1
1558439206498274,-4,-1,3,7,0,-3,-2,-3
1558439206514231,-3,-2,-4,-3,0,9,7,0
1558439206514231,0,1,-2,-2,-1,-5,-3,0
1558439206516226,0,-1,-5,-2,1,3,0,0
1558439206516226,-1,0,3,5,3,-1,3,0
1558439206528194,2,2,-2,-3,1,3,3,2
1558439206528194,-2,-3,10,11,3,-5,-2,-3
1558439206537170,-4,-6,-9,-5,-6,0,-2,-2
1558439206537170,0,1,-5,-1,0,-2,-1,-1
1558439206551133,-2,-2,-1,-5,0,-2,-5,-2
1558439206551133,-2,-2,6,10,-1,-3,-1,-4
1558439206558114,-1,0,2,-3,2,1,-2,0
1558439206558114,1,0,-5,-6,-3,5,4,0
1558439206574071,0,-3,-3,2,2,-1,1,-1
1558439206574071,-2,-2,5,3,-4,1,-3,-3
1558439206576065,2,2,-4,-7,-4,-8,1,0
1558439206576065,-2,1,6,5,1,4,2,1
1558439206588033,-1,-4,-7,-14,-3,-5,-9,-1
1558439206588033,-2,-8,-11,-7,-11,-8,-4,0
1558439206597009,2,2,4,2,-1,-3,5,3
1558439206597009,1,1,4,14,7,0,5,1
1558439206610971,1,2,-8,-17,2,5,-1,1
1558439206610971,-2,-3,-6,-16,-13,-6,-7,-4
1558439206617954,-1,-1,1,3,3,2,0,0
1558439206617954,1,1,4,6,5,1,2,4
1558439206633914,-3,5,7,7,-3,-8,-4,-2
1558439206633914,-2,-2,-5,1,4,4,2,-2
1558439206635906,-1,-4,-4,-11,4,3,1,-3
1558439206635906,-1,-2,-6,-6,-7,-6,-5,-3
1558439206647873,0,1,4,3,0,3,-1,1
1558439206647873,-2,3,-3,-8,-4,-6,3,0
1558439206656851,-3,-1,5,10,1,0,0,-1
1558439206656851,-1,-3,-4,-6,0,5,-1,-1
1558439206670812,-3,-4,-3,-2,-10,-5,-2,-5
1558439206670812,-2,1,-3,0,-4,-13,-5,-1
1558439206677792,1,-2,3,1,6,12,7,3
1558439206677792,-1,-2,-2,-4,-2,-11,-2,3
1558439206694748,-2,-2,-1,5,-2,4,3,-1
1558439206694748,-2,0,3,3,5,5,1,-1
1558439206695759,-4,-2,-8,-8,-8,2,-9,-5
1558439206695759,-7,-5,-2,3,-10,-6,-6,-4
1558439206707717,0,3,1,-10,6,-1,6,4
1558439206707717,0,1,3,4,7,0,0,2
1558439206716695,-1,0,-1,-1,-3,-2,-4,-3
1558439206716695,1,-1,4,7,-1,1,-1,-2
1558439206731650,0,-1,-2,-7,-7,2,-3,-3
1558439206731650,0,-5,-12,-4,-9,-9,-3,-1
1558439206737633,-1,1,1,-9,0,-10,0,2
1558439206737633,0,-1,-3,0,2,-1,3,1
1558439206753592,1,1,6,7,3,2,-3,1
1558439206753592,-2,-2,-6,-4,-5,1,-1,0
1558439206760571,-1,-1,3,2,-3,1,-3,-2
1558439206760571,-1,1,-2,0,7,4,2,1
1558439206776528,0,-1,6,-2,4,5,4,-3
1558439206776528,-3,-2,-1,1,0,10,4,-1
1558439206778525,0,1,3,6,-5,-15,-7,-1
1558439206778525,-2,-6,-4,-7,6,-3,4,1
1558439206791489,1,-3,-5,6,-1,-1,-4,-2
1558439206791489,1,-2,0,2,-2,0,-4,0
1558439206797482,-1,-3,-3,-1,-1,3,-3,-3
1558439206797482,0,2,-1,-1,-3,1,-4,-2
1558439206813429,-5,-5,-5,-5,-5,-13,-7,-1
1558439206813429,1,1,2,2,5,0,8,3
1558439206820411,0,0,1,-1,0,-5,-2,-2
1558439206820411,-3,-1,2,2,-3,6,-6,-4
1558439206828391,1,-1,-3,-8,-4,0,-5,-2
1558439206828391,-2,0,6,5,-3,-4,3,-1
1558439206837370,3,1,-5,-10,4,4,5,1
1558439206837370,-2,-4,0,8,0,0,0,-3
1558439206851330,-1,3,9,14,12,8,-1,-1
1558439206851330,-3,-7,-12,-12,-12,-5,-7,-5
1558439206859308,0,0,3,8,4,0,-5,0
1558439206859308,-1,-2,-10,-30,-12,-11,-2,1
1558439206873270,-2,-3,5,9,4,0,-3,0
1558439206873270,-2,-1,6,9,9,2,-2,-3
1558439206880251,-4,-4,-1,-3,-8,-1,-3,-6
1558439206880251,0,1,-6,0,-1,3,-1,-2
1558439206897219,0,-1,-8,-1,1,-14,3,1
1558439206897219,-1,0,-1,-9,-4,-1,-4,-1
1558439206898214,-1,-2,1,6,3,10,8,0
1558439206898214,2,0,3,8,3,-5,-2,-1
1558439206919148,0,1,-4,-4,-7,2,3,-2
1558439206919148,-1,0,-3,-10,-5,1,-6,1
1558439206921143,-6,-6,-6,12,0,-4,1,-2
1558439206921143,-1,-2,-9,-21,-10,-5,-3,-2
1558439206933109,-1,-5,-8,2,-5,1,1,0
1558439206933109,1,5,11,6,8,-4,2,-1
1558439206940092,0,0,6,10,-1,-3,-4,0
1558439206940092,-1,-4,-7,-6,-3,-6,-3,-4
1558439206957054,-1,-1,3,2,-4,-2,0,2
1558439206957054,-2,-5,-10,-12,-8,-2,-7,-5
1558439206963030,0,0,2,-2,11,5,2,0
1558439206963030,0,3,6,1,1,2,-1,-1
1558439206971009,-1,-1,-5,0,-3,-2,0,-3
1558439206971009,3,1,8,-4,12,6,4,0
1558439206977989,-2,0,-5,-6,-6,-8,-4,0
1558439206977989,-3,-2,0,-2,-6,-4,-4,-4
1558439206993949,-4,-4,-5,0,-4,4,-4,-5
1558439206993949,2,3,3,3,8,0,4,3
1558439206999933,0,-2,2,3,1,0,5,2
1558439206999933,-1,1,2,7,6,4,-2,-2
1558439207016887,-3,-3,-10,-13,-8,-10,-8,-3
1558439207016887,-2,-2,2,11,-2,3,-2,-3
1558439207017884,-1,1,-11,-22,-9,-4,-5,-1
1558439207017884,-1,-1,2,9,1,2,2,1
1558439207030851,-3,-1,-2,-5,0,1,4,-1
1558439207030851,-4,-4,4,6,-1,-3,-4,-2
1558439207037830,-3,-4,-9,-17,-7,-4,-4,-3
1558439207037830,2,1,9,9,1,0,-3,-1
1558439207061766,0,1,-4,-9,0,4,-1,1
1558439207061766,3,0,1,-1,6,6,7,7
1558439207062763,-1,-4,1,15,-5,-9,-1,0
1558439207062763,1,-1,-4,-14,-5,-1,-4,1
1558439207084705,2,0,0,1,-8,-7,-2,-1
1558439207084705,-2,1,-2,-2,1,5,3,0
1558439207085701,0,0,-4,4,5,5,4,-3
1558439207085701,-1,-1,-3,-1,3,-4,2,1
1558439207090695,-2,0,-4,-2,1,-1,0,1
1558439207090695,-2,0,6,13,-1,-1,-4,-3
1558439207105649,-2,-5,-20,-33,-10,-1,-4,-5
1558439207105649,-1,-2,9,25,3,-5,-1,-2
1558439207113627,-1,1,2,-9,-1,4,-3,1
1558439207113627,-2,-3,-3,8,0,-6,0,-2
1558439207120620,0,1,2,-8,-2,0,1,2
1558439207120620,-3,-2,-5,-6,-11,-8,-4,-1
1558439207136565,1,-2,9,11,2,2,1,0
1558439207136565,-1,0,-7,-11,6,1,-2,-2
1558439207138560,-6,-2,2,9,0,-2,-7,-6
1558439207138560,-1,0,-7,-15,-6,-2,3,0
1558439207151526,0,1,-3,-4,3,-3,0,-2
1558439207151526,-1,-1,-5,2,-1,1,-2,-4
1558439207157510,0,1,10,14,5,-1,-2,0
1558439207157510,0,-3,-9,-11,-3,6,-5,-1
1558439207173468,0,-3,-2,6,2,-1,2,-3
1558439207173468,-1,0,-8,-23,-9,-15,-2,-1
1558439207180451,0,2,8,11,-1,1,1,0
1558439207180451,-6,-5,-5,4,3,3,2,0
1558439207196406,-1,-1,-7,-5,-5,1,0,1
1558439207196406,0,0,4,3,-7,-7,-7,0
1558439207198400,-1,-4,0,-1,-2,0,-3,-1
1558439207198400,-1,1,1,2,0,3,-2,-2
1558439207211367,0,-3,1,3,1,-7,0,-1
1558439207211367,0,0,-2,-1,3,3,7,1
1558439207218347,1,2,-3,4,1,-3,2,0
1558439207218347,-3,-3,-7,-19,-6,1,-5,-4
1558439207233307,-3,-3,2,-3,-5,-1,-5,-1
1558439207233307,-1,-1,0,2,-7,-4,3,0
1558439207240290,1,1,-3,-3,-2,-5,-3,-2
1558439207240290,-1,-1,2,8,6,4,3,0
1558439207257247,-1,1,1,-2,0,-8,-7,-4
1558439207257247,-1,-2,0,2,-3,1,-9,-1
1558439207258241,-2,1,2,-7,-2,4,3,1
1558439207258241,-4,-2,-7,-7,-7,-6,-1,-5
1558439207271207,-1,-2,-4,-11,-5,5,-2,-3
1558439207271207,-1,-3,-7,1,1,2,4,0
1558439207278188,1,1,3,1,3,-11,-1,2
1558439207278188,2,2,4,7,-2,-11,-3,-2
1558439207293148,0,2,1,-2,3,5,5,3
1558439207293148,-7,-8,-9,-3,-10,-9,-11,-9
1558439207300129,-2,-5,-1,1,-1,10,0,-1
1558439207300129,1,3,9,4,3,4,8,3
1558439207317083,-3,-3,-7,8,6,-4,0,0
1558439207317083,-2,1,-7,-16,-8,-12,-6,-2
1558439207318080,-1,0,-2,-2,-4,-1,-2,-3
1558439207318080,0,-1,5,6,6,-1,-2,0
1558439207331046,2,0,3,4,2,9,6,2
1558439207331046,2,0,3,9,6,8,8,2
1558439207338028,1,-3,-9,-16,-9,-9,-7,-3
1558439207338028,-1,-4,-11,-9,-3,-5,-3,-2
1558439207353993,-2,-1,2,2,-3,-7,-1,0
1558439207353993,-2,-2,0,3,0,2,1,-2
1558439207359968,-3,-3,6,12,-1,-4,-3,-3
1558439207359968,1,2,-2,-1,3,11,6,2
1558439207376923,-2,1,5,9,3,1,2,1
1558439207376923,-1,-1,0,-4,-3,0,0,0
1558439207377920,0,-3,-6,-7,-2,-1,-5,0
1558439207377920,-2,-2,1,8,-4,-11,-1,1
1558439207390885,-2,0,-11,-25,-7,-4,-7,-3
1558439207390885,-2,1,2,-2,-2,7,1,0
1558439207397867,2,2,1,3,9,17,5,1
1558439207397867,-1,0,0,0,2,-6,-1,1
1558439207413825,1,-1,2,9,0,-3,6,2
1558439207413825,-3,-1,-1,-7,-2,-6,-3,-2
1558439207420806,-2,-2,-1,5,2,-6,-8,-2
1558439207420806,-2,0,3,-4,-1,6,3,1
1558439207436762,2,0,-3,-3,-5,-9,-1,-3
1558439207436762,-1,-2,4,9,0,-1,-6,-3
1558439207438757,1,-3,1,3,10,15,13,5
1558439207438757,-1,-3,-9,-17,-11,-7,-6,-2
1558439207450725,-3,-2,0,-3,-3,-3,-4,-2
1558439207450725,-3,-1,-2,-2,-6,-2,-4,-1
1558439207459701,0,3,2,4,3,-2,2,0
1558439207459701,2,1,1,0,5,-1,-2,-1
1558439207473665,-2,-2,-1,5,-2,-2,-1,0
1558439207473665,-2,0,-1,3,-3,-4,-3,-2
1558439207480645,-4,-1,-3,-4,-3,0,1,0
1558439207480645,-1,-1,8,7,3,4,-3,-3
1558439207496605,-4,-6,-11,-14,-4,-8,-2,-1
1558439207496605,-3,0,-2,0,-5,2,2,-2
1558439207498598,1,1,-3,-7,-5,-6,-2,-2
1558439207498598,-1,4,12,18,7,-1,-4,0
1558439207510565,-1,-1,4,-2,-2,-5,-4,0
1558439207510565,-1,0,2,3,0,-2,-2,-4
1558439207519540,-7,-8,-21,-26,-13,-5,-5,-6
1558439207519540,-3,-2,-4,-2,-3,5,1,-5
1558439207533504,1,4,6,7,5,-2,0,0
1558439207533504,2,0,0,3,2,-5,6,3
1558439207540488,1,2,5,12,2,4,1,1
1558439207540488,-4,-4,-12,-28,-11,-3,-6,-4
1558439207556444,-3,-4,-7,-2,-5,-2,-5,-2
1558439207556444,2,0,0,-2,7,4,4,3
1558439207558438,-2,0,0,6,-1,-3,-3,-3
1558439207558438,-1,0,-2,3,1,5,3,0
1558439207570405,-1,0,3,6,0,1,-1,-5
1558439207570405,-3,-2,-5,-8,-2,-8,-8,-5
1558439207579381,0,3,11,5,-2,-2,-5,-1
1558439207579381,-1,-3,-9,-8,-7,-4,-1,1
1558439207593344,-2,0,1,0,-1,4,0,1
1558439207593344,0,0,-1,0,0,3,-1,-1
1558439207600326,-2,0,1,-2,-2,-7,2,-1
1558439207600326,-1,2,6,10,4,1,-2,-3
1558439207616283,1,1,-1,-2,1,-2,2,1
1558439207616283,0,-3,-4,-7,-1,3,-2,1
1558439207618279,-3,-3,2,3,2,5,0,-3
1558439207618279,0,0,2,-2,-3,-5,-4,1
1558439207630245,-2,-3,1,4,4,2,2,-1
1558439207630245,-1,-2,-1,6,2,-1,-2,-3
1558439207639221,-2,-3,-14,-26,-11,-6,1,0
1558439207639221,0,0,6,1,10,7,6,3
1558439207653183,-2,-3,-10,1,-2,-6,-5,-2
1558439207653183,-1,-2,-2,-1,-1,5,0,0
1558439207660166,-2,-2,4,4,0,5,-3,-2
1558439207660166,-3,-3,-5,-3,-4,-2,1,-3
1558439207676122,3,4,5,3,2,-5,2,4
1558439207676122,0,-3,2,-5,0,-7,-5,-3
1558439207683104,0,0,-6,-4,-2,-3,-3,1
1558439207683104,0,-4,1,5,1,3,6,3
1558439207690087,-1,-1,3,-2,-7,0,-5,-3
1558439207690087,-1,0,1,6,0,3,-1,0
1558439207699062,3,3,12,13,7,-9,-1,1
1558439207699062,-2,-3,-13,-5,-1,-12,-7,-3
1558439207714021,-3,-2,-2,-16,-2,9,3,-1
1558439207714021,-3,-3,-20,-17,0,6,6,0
1558439207720005,-2,-1,0,7,-3,-2,-7,-4
1558439207720005,-2,2,2,1,-2,0,1,-3
1558439207735962,1,0,2,10,4,-2,1,0
1558439207735962,2,2,4,0,-1,-4,-2,2
1558439207742944,-1,-3,1,-8,-1,-3,-1,0
1558439207742944,-2,-2,-9,-5,-3,-7,-5,-2
1558439207749925,0,-1,7,6,-3,4,-5,-4
1558439207749925,0,-2,-13,-20,-8,-4,-4,-2
1558439207758902,0,0,-2,1,4,0,-1,1
1558439207758902,0,1,9,7,4,0,3,1
1558439207773864,-3,-3,-2,1,3,5,-6,-2
1558439207773864,-1,0,2,3,-10,-18,-7,-3
1558439207780843,-1,-3,0,1,0,4,7,3
1558439207780843,-1,-1,-5,-4,-1,1,-2,-1
