timestamp,emg1,emg2,emg3,emg4,emg5,emg6,emg7,emg8
1558434753125827,-2,-1,-1,8,0,-5,-3,-1
1558434753125827,1,1,-1,-7,6,7,6,0
1558434753126825,-1,-1,-4,-6,-7,0,-3,-2
1558434753126825,-2,-2,-1,-2,1,-7,-1,-3
1558434753127823,0,0,2,9,7,7,5,1
1558434753127823,0,3,4,5,-1,-4,-1,0
1558434753127823,-1,-1,-5,-10,2,1,1,-1
1558434753127823,-2,-3,-1,1,-1,3,-4,-2
1558434753140788,0,-3,0,-7,-5,-6,-4,0
1558434753140788,-2,-1,-1,4,-1,-10,-3,-3
1558434753147769,0,1,4,11,5,0,1,-1
1558434753147769,1,1,-4,-11,0,4,2,3
1558434753155748,-2,-4,0,7,0,-4,-1,-2
1558434753155748,-2,-1,-2,-7,-4,0,0,-1
1558434753168713,-1,-3,1,1,2,0,-3,-2
1558434753168713,-4,-3,-3,2,-4,0,-2,-3
1558434753180681,4,2,0,0,2,0,2,2
1558434753180681,0,0,0,4,-1,-6,-2,3
1558434753183672,-2,-1,-1,0,1,-1,0,0
1558434753183672,0,-5,-4,-7,-9,-3,-2,-2
1558434753200627,-1,0,-2,-4,-7,-1,-4,-4
1558434753200627,-1,0,0,6,7,1,0,-2
1558434753207610,-2,-3,-1,-4,-5,-3,-2,0
1558434753207610,0,1,3,5,3,0,1,1
1558434753247505,-1,-4,-4,3,-1,-5,-2,0
1558434753247505,-1,-1,1,7,1,2,1,-1
1558434753248501,-4,-1,0,-17,-1,2,-1,0
1558434753248501,1,1,5,4,1,2,2,1
1558434753251492,-1,-1,-2,1,-2,-9,-3,-1
1558434753251492,-3,-3,-9,-7,-5,-5,-4,-2
1558434753252489,2,1,-1,3,0,-1,2,-2
1558434753252489,-3,-2,1,7,4,4,0,0
1558434753260468,-2,0,-1,-6,-3,4,-2,-1
1558434753260468,-1,-1,4,0,-4,-7,0,2
1558434753266452,-2,-2,-1,-2,-4,-8,-5,-2
1558434753266452,-1,-2,0,-5,-6,-5,-2,-2
1558434753275427,0,0,4,15,11,7,4,2
1558434753275427,1,1,0,3,6,9,3,0
1558434753288392,-3,-3,-6,-4,-8,-3,-4,-4
1558434753288392,-1,-3,-14,-31,-2,3,0,-1
1558434753297369,-1,0,2,1,-3,1,-2,-2
1558434753297369,-2,-2,-6,-15,-6,-9,-2,-2
1558434753303367,2,-1,7,16,1,-1,-2,0
1558434753303367,2,-2,-1,7,-4,-5,-3,0
1558434753320307,1,-1,-1,-8,-4,0,0,-1
1558434753320307,0,2,4,9,3,4,0,-1
1558434753326292,-4,-2,-9,-11,-4,-5,-1,-2
1558434753326292,-3,-2,0,3,-4,-5,0,-2
1558434753335267,-2,-1,-3,-11,1,4,3,1
1558434753335267,-2,0,3,8,0,-7,-3,-2
1558434753348234,-2,-3,-10,-12,-10,-1,-2,-4
1558434753348234,2,3,0,6,6,4,2,0
1558434753357207,-4,-5,-1,0,-6,-13,-7,-5
1558434753357207,-1,-2,-1,-5,2,3,1,0
1558434753364192,0,-2,5,14,10,13,5,3
1558434753364192,0,0,1,0,2,0,-2,-1
1558434753380162,0,-1,-6,-6,-4,5,-1,-3
1558434753380162,-2,1,2,1,-1,-6,-3,-3
1558434753386131,1,0,2,6,3,-7,-2,1
1558434753386131,-1,-3,-5,-5,-6,-1,0,-1
1558434753395107,-2,1,4,-2,-7,-7,-3,0
1558434753395107,-2,-2,-8,-13,-2,3,0,-1
1558434753409072,-1,0,1,-5,1,1,-3,-2
1558434753409072,-2,-2,0,2,-5,-6,-5,-1
1558434753418047,1,4,8,11,12,7,5,1
1558434753418047,1,-1,3,9,6,4,5,2
1558434753424030,-2,0,-5,-7,1,-1,1,-1
1558434753424030,-4,-5,1,6,-2,-4,-7,-5
1558434753447967,0,-2,-11,-18,-6,0,0,-2
1558434753447967,0,-2,1,-2,-4,-1,-1,-2
1558434753448963,2,3,7,6,5,2,0,3
1558434753448963,-3,-1,0,2,0,2,-1,-2
1558434753454947,-1,-4,-5,-1,-8,-3,-2,-2
1558434753454947,3,2,2,-2,9,1,2,1
1558434753468910,-4,-1,1,5,2,1,0,-1
1558434753468910,-1,-2,-1,-13,-9,-7,-1,-1
1558434753477885,0,-1,-4,-9,5,4,0,3
1558434753477885,0,-1,-2,1,-13,-7,-6,-1
1558434753483869,-3,-3,-5,-7,-12,-8,-5,-4
1558434753483869,-3,-3,0,-2,0,0,0,-2
1558434753499827,-2,0,1,3,6,3,1,0
1558434753499827,-2,-2,-2,-1,0,-1,-1,0
1558434753505811,-1,-4,0,7,1,3,-1,-1
1558434753505811,-2,2,-2,-9,1,3,1,1
1558434753514787,0,0,3,6,0,-2,-1,-3
1558434753514787,-2,-4,-8,-10,-3,6,3,1
1558434753528752,1,-1,-7,-9,-6,-14,-5,-2
1558434753528752,-4,-3,-6,0,-5,-6,-4,-3
1558434753537726,-1,-1,-3,-11,-1,0,-1,0
1558434753537726,-3,-1,2,2,-1,0,-5,-3
1558434753551689,-1,-2,2,0,-8,-6,-3,-2
1558434753551689,1,1,2,7,5,2,2,2
1558434753560664,-1,0,2,5,8,6,2,0
1558434753560664,2,3,5,9,3,4,3,1
1558434753566651,-4,-5,-4,3,-4,-1,-3,-2
1558434753566651,-3,-2,-6,-2,0,0,0,2
1558434753575624,-2,-1,-2,-5,-7,-10,-4,-2
1558434753575624,-4,-2,-4,-13,-8,-1,-2,-1
1558434753588592,2,0,2,0,3,11,1,-2
1558434753588592,0,-1,1,5,-8,-6,-4,-3
1558434753597565,0,0,1,9,3,-9,-1,-1
1558434753597565,-2,0,-2,-5,2,0,1,-1
1558434753611530,0,2,2,0,4,1,3,2
1558434753611530,0,-2,2,5,10,10,5,0
1558434753620504,-1,1,-1,-4,-5,-1,-4,-2
1558434753620504,-1,1,3,6,2,-1,-4,0
1558434753626489,0,-3,-10,-15,-12,-6,-1,0
1558434753626489,-1,1,0,3,4,2,-2,-1
1558434753635464,-3,-5,-2,-10,-5,-2,1,-3
1558434753635464,-3,-2,-2,-1,-6,-11,-7,-6
1558434753648430,0,3,6,9,14,12,5,3
1558434753648430,2,0,-1,-2,4,-2,0,1
1558434753657408,-2,-2,2,4,-10,-4,-2,-3
1558434753657408,-1,-1,1,0,2,2,-2,-1
1558434753671370,-1,-1,-5,-3,-6,-4,-2,-1
1558434753671370,0,0,-1,-2,-9,-7,0,0
1558434753680356,-4,-3,-1,5,0,3,-4,-2
1558434753680356,-3,-4,-3,-2,-5,-4,-3,-5
1558434753686328,1,0,0,1,3,-1,1,-2
1558434753686328,1,2,3,6,5,-1,-3,0
1558434753695304,1,5,7,27,3,0,0,1
1558434753695304,1,-3,-12,-22,1,0,1,2
1558434753708269,-2,-4,-9,-9,-7,2,0,-2
1558434753708269,-2,-2,-2,0,-7,-7,-5,-4
1558434753717244,1,-1,-3,-9,2,5,4,-1
1558434753717244,0,-3,5,13,4,-2,0,-2
1558434753731209,-1,0,1,1,1,-1,-3,-1
1558434753731209,0,-2,0,-5,-2,1,0,-1
1558434753740184,-3,0,-2,-5,-5,2,-5,-5
1558434753740184,3,2,5,7,0,1,6,5
1558434753746169,3,2,1,-1,17,6,1,3
1558434753746169,-4,-3,6,10,-7,-4,-1,-3
1558434753755145,-1,-5,-5,-2,-3,-5,-4,-2
1558434753755145,-3,-3,-8,-14,-8,-2,1,-5
1558434753769108,-4,-4,-10,-8,-18,-14,-7,-6
1558434753769108,0,-1,0,-7,2,4,-2,-2
1558434753778085,4,2,1,4,6,-1,4,5
1558434753778085,-1,0,1,-8,-1,3,2,1
1558434753791049,-3,0,6,19,2,-6,-5,-3
1558434753791049,-3,-2,-9,-17,-9,-4,-2,-2
1558434753800024,-2,-2,-1,-1,-1,0,-2,-2
1558434753800024,-1,-2,-4,-2,-4,1,-4,-3
1558434753806010,-1,1,6,-1,1,2,2,-3
1558434753806010,1,1,3,1,1,2,5,3
1558434753822964,0,-1,0,-3,3,2,2,0
1558434753822964,0,0,1,5,-3,-3,-6,0
1558434753828947,-1,1,4,8,6,6,2,1
1558434753828947,-3,1,4,-3,-3,-1,0,-3
1558434753837923,-1,-3,-13,-24,-9,-5,2,0
1558434753837923,-2,-1,-6,1,-1,-5,-5,-2
1558434753850890,-2,-4,-4,-1,-6,-1,-3,-1
1558434753850890,1,0,1,4,3,-2,0,0
1558434753859867,0,0,0,5,3,1,0,-1
1558434753859867,0,-1,3,7,0,-1,-4,-2
1558434753865847,-1,-3,-7,-8,-4,-2,-1,-2
1558434753865847,-2,-1,1,4,4,-2,-2,-1
1558434753882804,-2,-2,3,0,-9,-5,-2,-3
1558434753882804,1,-1,0,-11,-4,-3,-2,-2
1558434753888788,-1,-1,-5,-7,-7,-2,0,1
1558434753888788,-1,-3,-6,0,9,9,2,-3
1558434753897763,-1,2,3,8,1,-3,-1,0
1558434753897763,-2,-1,-7,-7,1,2,-1,-1
1558434753911728,0,2,2,-3,2,1,-1,1
1558434753911728,-2,-2,-2,3,2,5,3,1
1558434753919707,-2,1,3,0,0,-6,-5,0
1558434753919707,-2,0,6,12,-6,-9,-3,-1
1558434753926688,-3,-5,-10,-10,-8,-3,-5,-3
1558434753926688,-4,-4,-13,-23,-4,3,-4,-5
1558434753941648,1,0,2,-3,2,0,0,1
1558434753941648,-4,-5,-1,1,-1,-1,-1,-2
1558434753948627,2,1,6,6,8,3,8,3
1558434753948627,3,6,8,3,5,0,-2,3
1558434753957604,-4,-2,-9,-5,-5,-4,-4,-2
1558434753957604,-1,-3,-1,9,-4,-2,2,0
1558434753971566,0,1,-1,-7,5,0,0,0
1558434753971566,-1,-4,-2,-9,-8,-2,-2,0
1558434753980542,0,-1,-1,-6,-2,4,-2,-1
1558434753980542,-4,-3,-7,-3,-13,-9,-9,-4
1558434753986526,-1,-1,-1,-3,-9,-8,-5,-1
1558434753986526,3,4,7,3,12,6,9,5
1558434754001498,2,1,1,10,15,4,2,2
1558434754001498,-5,-3,-6,-11,-7,0,-2,-3
1558434754008467,-1,1,13,20,6,1,-1,-1
1558434754008467,-1,-2,-12,-26,-12,-8,-5,-2
1558434754023426,-7,-10,-8,-7,-10,-4,-4,-5
1558434754023426,-2,-1,-7,-15,-7,-6,-5,-2
1558434754031406,0,0,1,6,3,2,-2,-1
1558434754031406,-1,0,8,18,8,2,4,3
1558434754040381,3,-1,1,6,2,6,1,-1
1558434754040381,5,2,2,1,10,7,5,3
1558434754046366,-2,0,-3,-4,-9,-5,-5,-2
1558434754046366,-2,-1,-1,9,1,2,-3,-1
1558434754061336,0,0,1,-9,-5,-7,-3,-1
1558434754061336,-3,-6,-1,8,0,3,1,-1
1558434754069309,-4,-3,-5,-18,-6,-7,0,-2
1558434754069309,-1,-1,-6,-6,0,-8,-4,-2
1558434754078300,1,3,5,8,13,13,5,7
1558434754078300,1,2,2,11,6,5,0,-1
1558434754091311,1,2,6,3,1,9,2,1
1558434754091311,-2,-2,-8,-4,-8,-11,-4,-5
1558434754100221,-4,-3,-3,-9,-12,-10,-2,-3
1558434754100221,0,-1,-1,0,4,-1,1,0
1558434754106408,-1,-1,-3,-3,-6,2,-1,-3
1558434754106408,-3,-4,-1,4,-2,-3,-3,-1
1558434754121369,2,3,4,7,8,2,1,4
1558434754121369,-1,1,1,-1,1,1,5,2
1558434754129153,-1,-2,-1,-2,2,0,-3,-3
1558434754129153,-2,-2,0,2,-12,-8,-8,-3
1558434754138128,0,-1,0,-4,-6,-5,-2,-3
1558434754138128,7,8,9,-5,14,11,6,5
1558434754160067,-3,-4,-14,0,-4,-8,-3,-2
1558434754160067,-1,0,4,0,-3,1,-2,-3
1558434754161061,-5,-6,-12,-11,-6,-4,-4,-3
1558434754161061,-3,0,8,5,-5,-3,-3,0
1558434754166045,0,1,0,4,8,-2,1,2
1558434754166045,1,0,-3,1,4,6,-2,0
1558434754183003,-2,-2,5,4,-7,-9,-5,-1
1558434754183003,-3,-2,-2,4,-2,-7,-1,-3
1558434754188988,1,-2,-3,-11,4,10,5,1
1558434754188988,-2,-1,3,7,-4,-8,-2,0
1558434754197961,-1,-1,-8,-13,-3,2,-1,-2
1558434754197961,0,1,-1,4,7,-1,1,3
1558434754212250,-4,-3,-6,-6,-11,-11,-9,-2
1558434754212250,-1,0,-4,-2,-5,-2,-1,-2
1558434754219921,3,3,3,14,17,13,6,1
1558434754219921,-2,-3,-1,1,-5,-8,-3,-4
1558434754234863,-2,0,1,-10,-8,-4,1,-2
1558434754234863,0,3,6,13,14,12,4,1
1558434754242071,-1,-1,0,1,-1,1,-2,-1
1558434754242071,-1,-2,0,-3,-5,-3,-3,-4
1558434754258106,-2,-3,-7,-12,-5,-4,2,-1
1558434754258106,-1,-3,-3,-1,0,-3,-1,1
1558434754258798,-1,-2,-4,3,2,6,2,-2
1558434754258798,-1,-2,-2,2,1,0,-3,0
1558434754272060,0,0,4,3,2,1,-2,-1
1558434754272060,0,-2,0,-4,-4,-3,-2,-2
1558434754279742,0,0,1,-1,-3,-3,-1,-1
1558434754279742,-1,1,-1,-1,-6,-3,-3,-1
1558434754294912,1,1,3,-4,5,2,3,0
1558434754294912,-2,-1,-3,-15,-4,-1,0,2
1558434754301683,-6,-7,-12,-16,-14,-10,-6,-6
1558434754301683,-2,-4,-3,5,-3,-1,-3,-2
1558434754317856,1,4,6,5,11,10,3,0
1558434754317856,-1,0,5,6,-2,-4,-4,-5
1558434754318653,-3,-3,-6,-6,-12,-11,-1,-3
1558434754318653,-1,2,0,-7,5,2,2,2
1558434754331604,-3,-4,-2,8,-2,0,-2,-1
1558434754331604,-1,-3,-6,-8,0,4,2,1
1558434754340589,0,1,6,4,-1,-4,0,-2
1558434754340589,-2,-1,-4,-6,-5,-5,-5,-3
1558434754354543,-3,-5,-5,-3,-5,-3,-4,0
1558434754354543,0,2,-1,1,6,4,4,1
1558434754361563,1,-1,2,13,4,1,0,0
1558434754361563,0,-2,-3,-16,2,-1,0,-1
1558434754377520,-2,-4,-7,-5,-12,-7,-5,-2
1558434754377520,-3,-3,-4,-13,-5,4,-2,-2
1558434754379475,-2,-2,-3,-7,-2,-9,-4,1
1558434754379475,-1,0,0,1,1,5,4,-1
1558434754391489,3,4,4,12,17,12,8,3
1558434754391489,-1,-3,3,7,-10,-10,-4,-2
1558434754400421,-3,-3,-6,-6,-11,-9,-6,-4
1558434754400421,-3,-4,-6,-7,-5,3,-2,-2
1558434754414382,-1,0,0,9,1,-4,-1,-2
1558434754414382,-3,-2,-6,-6,-5,-8,-3,-2
1558434754421557,-1,1,5,4,6,5,0,2
1558434754421557,0,0,-1,-7,2,7,2,4
1558434754438416,-1,-1,-1,-12,-9,-7,-3,-2
1558434754438416,0,1,0,8,4,3,2,2
1558434754439316,-1,-2,1,-2,0,-2,-3,-1
1558434754439316,0,-1,-2,6,3,2,2,0
1558434754451558,-1,1,13,6,1,6,0,-2
1558434754451558,-2,-3,-15,-20,-8,-6,-3,-1
1558434754460264,-1,-4,-3,3,2,0,-2,-2
1558434754460264,0,-2,0,-4,1,0,-2,-1
1558434754474475,-1,1,-1,10,-1,-5,2,-1
1558434754474475,1,1,8,11,0,-5,-2,-1
1558434754482200,1,1,-2,-1,-1,4,0,1
1558434754482200,-1,-1,-4,-10,-2,-6,-5,-1
1558434754498158,-4,-3,0,-2,-4,-4,-6,-4
1558434754498158,-3,-1,1,2,-5,0,-3,-3
1558434754499154,-2,-1,3,4,8,9,5,1
1558434754499154,1,0,-5,-5,-6,-11,-5,0
1558434754511152,1,-1,-1,5,1,-1,1,1
1558434754511152,-1,-1,1,2,-2,-4,1,-2
1558434754520098,1,-1,1,-3,-2,-1,-1,-2
1558434754520098,-1,-3,-1,4,-5,-2,-4,-5
1558434754534061,2,1,2,10,10,2,0,2
1558434754534061,-1,-3,-1,-13,-3,0,1,0
1558434754543036,-2,-2,-11,-21,-13,-10,-5,-3
1558434754543036,-1,-1,1,1,-5,-1,2,-3
1558434754557996,-3,-2,-2,2,1,-2,-2,-2
1558434754557996,-2,-1,3,10,3,4,-1,-2
1558434754558994,1,4,4,4,3,0,1,2
1558434754558994,-1,1,4,13,2,0,-2,-1
1558434754570961,-2,-2,-5,-8,-3,2,4,1
1558434754570961,-1,-1,-6,-4,6,3,-4,-2
1558434754579938,-2,-1,2,0,-2,3,1,-3
1558434754579938,0,0,-1,3,3,-3,-3,2
1558434754593900,0,-1,-3,-5,-4,-5,-5,-2
1558434754593900,0,-2,-6,-10,-15,-7,-5,-3
1558434754602948,-1,1,-1,2,8,2,0,1
1558434754602948,1,1,7,14,5,7,5,-3
1558434754617875,-3,-4,-5,-11,-2,-3,-2,-3
1558434754617875,-2,-4,-8,-19,-4,-1,-2,0
1558434754618843,-4,-5,-7,-11,-10,-8,-6,-4
1558434754618843,-1,0,3,0,-5,-5,-4,0
1558434754630810,-1,1,7,11,4,4,1,2
1558434754630810,1,-1,1,-2,10,8,2,1
1558434754639873,-1,-3,-4,-10,-9,-3,-1,-2
1558434754639873,-1,-1,-6,-6,4,4,8,2
1558434754653744,-3,-3,0,4,-4,-2,-2,-6
1558434754653744,-2,0,-5,-6,-9,-8,-3,1
1558434754662722,1,-1,4,0,4,-2,-3,1
1558434754662722,-2,-2,2,5,-1,-4,-3,-1
1558434754677784,3,2,-2,-11,3,4,-1,2
1558434754677784,-3,0,5,1,3,0,3,2
1558434754678686,-2,-1,-10,-15,-1,2,2,-2
1558434754678686,-2,-3,-5,-8,-3,0,-1,-4
1558434754691759,-1,2,0,-1,2,3,2,2
1558434754691759,-1,0,6,14,3,-5,-6,-1
1558434754700627,1,0,1,7,-3,-2,1,0
1558434754700627,-3,-2,-2,0,-6,-9,-4,-3
1558434754713582,-1,-3,-7,-15,-4,-4,-6,0
1558434754713582,1,2,-1,11,9,8,1,1
1558434754722558,-3,-1,4,5,-3,-1,-2,-2
1558434754722558,-3,-2,-5,-7,-2,0,0,-1
1558434754737556,0,1,-3,2,1,-2,1,-1
1558434754737556,0,-1,-2,6,-1,-2,-2,-2
1558434754739510,-1,-1,3,2,3,-1,0,1
1558434754739510,1,2,4,5,4,2,-1,-2
1558434754751690,0,-2,0,-9,-7,-4,-4,-2
1558434754751690,-2,-3,1,7,-3,2,0,-3
1558434754760457,-2,-1,-5,4,4,4,1,1
1558434754760457,-4,-2,-3,-4,-4,-5,-7,-3
1558434754773421,-1,-3,-4,3,-3,-4,2,0
1558434754773421,1,1,4,3,3,0,-1,-2
1558434754783685,2,3,6,6,4,3,3,1
1558434754783685,0,0,-3,-6,-3,-1,2,1
1558434754797356,-2,1,3,3,-2,-3,-2,-4
1558434754797356,-2,-1,0,6,0,0,-1,-4
1558434754804539,-1,-3,0,-4,-8,-5,-6,-4
1558434754804539,1,1,-6,-19,5,9,9,6
1558434754811682,-1,-5,-11,-8,-13,-9,-8,-5
1558434754811682,-1,-3,1,-4,-2,-4,-2,-1
1558434754820298,-1,1,0,5,1,2,-2,0
1558434754820298,0,-1,2,6,0,-5,-2,-1
1558434754834554,1,0,3,5,5,7,2,1
1558434754834554,-3,-2,-4,2,-1,-4,-1,-2
1558434754842610,-2,0,3,-7,-2,0,3,1
1558434754842610,-1,-2,-1,2,-5,-4,-7,-2
1558434754857685,-1,0,-2,-4,-3,0,0,1
1558434754857685,-2,0,-4,-4,0,5,0,-1
1558434754864179,0,-3,-4,-6,3,1,0,-1
1558434754864179,0,0,-1,1,1,0,0,-1
1558434754871514,-4,-1,1,0,-2,-1,-4,-2
1558434754871514,-3,-3,-5,-6,-8,-6,-2,-3
1558434754888115,1,-1,0,2,-1,-6,-1,1
1558434754888115,2,3,11,18,6,0,5,3
1558434754894362,-2,-4,-14,-21,-1,3,0,-2
1558434754894362,1,0,-1,-4,0,5,3,3
1558434754903083,-3,-3,-4,3,-2,-7,-5,-3
1558434754903083,-1,-5,-1,-6,-12,-8,-6,-5
1558434754917259,0,0,4,2,0,-1,1,0
1558434754917259,1,-2,0,1,1,0,-3,0
1558434754924221,-2,-2,-5,-5,-6,-5,-3,-6
1558434754924221,-3,-2,-3,4,-6,-5,-4,-1
1558434754931018,5,5,11,21,23,10,14,9
1558434754931018,0,-1,-6,-13,0,2,0,2
1558434754940197,-1,1,4,-4,0,1,-1,-1
1558434754940197,-3,-3,-9,-8,-7,-1,-2,-3
1558434754954132,-5,-4,-7,-7,-11,-7,-6,-6
1558434754954132,1,-1,2,6,0,-9,-2,-1
1558434754962926,-1,-5,-4,1,-1,-1,-3,-4
1558434754962926,-2,-3,-1,-6,-10,-7,-8,-5
1558434754976879,1,-3,6,2,2,-3,2,1
1558434754976879,3,3,-2,-9,8,8,7,4
1558434754983861,1,2,-1,2,5,11,4,2
1558434754983861,-1,-2,-8,-14,-1,4,0,-2
1558434755000191,-4,-3,2,16,-6,-10,-12,-8
1558434755000191,-5,-4,-3,-12,-14,-14,-6,-4
1558434755001810,-1,0,-4,-5,1,1,-4,-1
1558434755001810,0,-1,1,3,-4,1,-4,0
1558434755013814,-3,-2,-5,-5,-9,-7,-5,-3
1558434755013814,2,3,6,18,21,15,12,6
1558434755022756,1,1,-4,1,-1,-3,4,3
1558434755022756,0,0,-3,-7,15,9,1,1
1558434755046022,-6,-6,-20,-24,-16,-2,-6,-5
1558434755046022,-3,-3,-1,-6,-8,-7,-5,-3
1558434755046691,-2,-3,4,10,0,-4,-2,-2
1558434755046691,-1,0,4,6,-2,-2,-3,-2
1558434755060942,-2,1,0,-2,-7,-12,-6,-3
1558434755060942,0,1,2,5,10,12,3,2
1558434755061651,0,0,0,2,4,2,0,1
1558434755061651,-2,-4,-7,-16,-8,-1,2,-2
1558434755073893,-2,-1,6,10,7,10,7,3
1558434755073893,-4,-2,-4,-4,-10,-6,-5,-7
1558434755082683,-4,-3,-3,-7,-3,-3,-5,-4
1558434755082683,-1,-3,-2,-4,-7,-10,-4,-3
1558434755096602,2,2,-1,-4,-3,-4,-4,2
1558434755096602,1,2,9,19,8,-2,3,3
1558434755103774,-2,1,4,-12,1,7,1,-1
1558434755103774,-1,-3,-14,0,3,0,-1,-2
1558434755120543,3,-1,-6,-23,-11,-10,-1,-1
1558434755120543,-3,-3,-2,-3,-4,-1,-6,-6
1558434755121537,-4,0,1,10,-2,-2,-2,-1
1558434755121537,-2,0,7,10,2,-2,1,0
1558434755134534,1,0,5,12,14,10,5,2
1558434755134534,-2,-1,-4,-11,-3,-2,-2,-2
1558434755142691,2,-1,-3,-2,-3,-2,-2,-1
1558434755142691,2,0,0,-8,-2,1,-1,1
1558434755157713,-1,-1,2,9,-2,-6,0,1
1558434755157713,0,0,1,-3,6,4,2,-2
1558434755163693,-1,-2,-8,-6,-1,-1,1,-2
1558434755163693,-2,-1,-2,-4,-1,-1,-1,1
1558434755179689,-1,-1,1,-1,-5,-5,-4,-1
1558434755179689,1,3,3,4,2,1,2,-1
1558434755181642,1,-1,5,15,4,-1,-1,-4
1558434755181642,0,-1,-4,-10,-7,0,0,1
1558434755193612,-1,0,1,4,9,8,3,-1
1558434755193612,-2,-2,-2,-5,-13,-8,-7,-3
1558434755202685,-1,-1,1,-6,-5,-9,-1,1
1558434755202685,-1,-3,0,-2,1,-3,-4,-3
1558434755217689,-1,-3,-3,-3,-5,0,-3,-2
1558434755217689,-2,-3,-5,5,2,-1,0,-1
1558434755223530,0,2,2,-3,3,6,2,2
1558434755223530,-3,-5,-8,-1,-3,2,-1,-2
1558434755240482,1,0,1,2,-1,-5,-2,1
1558434755240482,0,-1,-6,-3,-3,-7,-7,-1
1558434755241479,1,0,2,8,3,4,4,-1
1558434755241479,1,3,5,13,7,0,-2,-2
1558434755253965,-3,-4,-16,-33,-14,-5,-1,-3
1558434755253965,-2,-2,2,0,-4,-2,-2,-2
1558434755262842,-3,-2,-3,0,-4,-1,-4,-2
1558434755262842,1,2,4,7,5,1,4,1
1558434755277872,3,2,5,13,8,7,3,0
1558434755277872,-2,1,5,2,-3,-4,-6,-3
1558434755284599,-3,-4,-10,-18,-5,-6,0,-1
1558434755284599,-3,-3,3,15,-6,-5,-2,-1
1558434755300746,1,0,-1,-16,-4,-1,-2,0
1558434755300746,-1,-2,-3,-1,-2,0,-2,0
1558434755301322,0,-3,1,1,-3,-2,-1,0
1558434755301322,-3,1,1,-5,0,0,-2,-2
1558434755313289,-1,-2,-4,10,3,0,-1,0
1558434755313289,1,2,-3,-8,9,9,7,3
1558434755322550,-1,-1,-7,-10,-3,-2,0,-1
1558434755322550,-1,-4,-3,-7,-9,-4,0,-1
1558434755337232,-5,-1,3,0,-7,-11,-9,-5
1558434755337232,-3,-3,-4,-3,6,8,4,-1
1558434755344422,0,-2,5,11,-5,-5,-6,-2
1558434755344422,-1,-1,-6,-19,0,0,2,3
1558434755360371,1,2,0,6,3,2,-1,-2
1558434755360371,-1,-5,-21,-22,-14,-6,-1,-1
1558434755361173,1,1,2,7,11,2,-2,0
1558434755361173,-2,1,0,4,0,0,-2,-2
1558434755374325,0,1,4,5,-1,-1,0,0
1558434755374325,-1,-1,-2,-5,-6,-4,-3,-1
1558434755383110,-2,-1,-8,-7,-4,-1,0,1
1558434755383110,1,0,1,5,7,-2,-2,1
1558434755397066,-1,0,4,3,7,5,1,-1
1558434755397066,-2,1,8,17,-6,-6,-2,-3
1558434755404049,1,-2,-12,-33,-11,0,0,-2
1558434755404049,-1,-2,4,8,3,4,4,0
1558434755420006,-3,-4,-7,-6,1,1,0,-2
1558434755420006,-2,-2,0,4,-6,-3,-3,-1
1558434755422001,0,-2,3,8,2,-2,0,-1
1558434755422001,0,-1,-3,-2,-2,-3,0,0
1558434755433969,1,0,0,0,4,3,-1,1
1558434755433969,0,0,3,3,1,1,0,0
1558434755442943,0,2,9,16,2,-7,-3,0
1558434755442943,-4,-6,-15,-25,-10,-1,-1,0
1558434755457217,-2,-2,1,1,2,2,-1,-1
1558434755457217,-2,-5,0,0,-2,-4,-4,-3
1558434755463885,-1,0,1,6,-4,-8,-1,-4
1558434755463885,2,-2,-1,5,-1,1,-1,-2
1558434755479845,0,-1,-4,-6,3,7,5,2
1558434755479845,0,0,6,10,1,0,-3,0
1558434755481840,-3,-4,-10,-9,-8,-9,-2,-1
1558434755481840,0,1,2,0,-1,-4,-6,-4
1558434755494149,-1,1,-5,-7,-2,-2,0,1
1558434755494149,1,-2,2,11,-1,0,-1,-1
1558434755502782,0,1,4,8,9,12,5,-1
1558434755502782,-5,-4,-13,-11,-7,-5,-3,-3
1558434755517745,0,-2,-5,-9,-9,-6,-2,0
1558434755517745,-2,4,0,-4,7,0,4,2
1558434755523999,1,2,11,20,5,-1,-1,0
1558434755523999,-4,-6,-13,-23,-9,-2,-5,-4
1558434755540883,-1,-2,-1,0,-6,0,-1,-1
1558434755540883,0,1,2,3,11,3,2,1
1558434755541681,-1,-2,-6,-9,-5,-2,-2,-2
1558434755541681,2,3,13,24,12,8,3,0
1558434755562623,-2,-2,2,0,-4,-4,0,-1
1558434755562623,-3,-5,-6,-9,-13,-10,-6,-5
1558434755563619,1,1,-1,-4,3,9,2,0
1558434755563619,0,3,8,17,3,-5,0,-1
1558434755576586,-2,0,1,8,1,0,2,1
1558434755576586,1,-3,-4,-13,-3,1,0,1
1558434755583564,-1,-2,-2,-4,2,0,-4,-1
1558434755583564,-2,-2,1,-5,-3,-2,-2,0
1558434755600519,-2,-1,-1,-2,-6,-7,-1,-3
1558434755600519,2,4,3,7,8,0,0,1
1558434755601516,-2,-4,-7,-1,-3,3,-3,-4
1558434755601516,-2,-2,1,-11,1,2,1,0
1558434755613487,2,-2,3,5,0,-2,-2,-1
1558434755613487,-1,1,-2,-6,4,2,-2,0
1558434755622460,0,-1,-5,-1,-4,3,0,0
1558434755622460,-1,-1,-1,1,-2,-1,-4,-1
1558434755637878,-3,-3,-1,1,-9,-12,-4,-3
1558434755637878,-3,-3,-4,-6,-8,-5,-4,-4
1558434755643908,-2,-3,-1,-2,-1,1,-1,-1
1558434755643908,0,3,10,19,16,14,8,3
1558434755660710,3,2,-2,1,9,5,8,4
1558434755660710,-2,-2,-14,-25,-17,-6,0,-2
1558434755662426,-3,-2,-3,-5,-7,-6,-5,-5
1558434755662426,-1,-4,-4,-11,-17,-14,-9,-5
1558434755674572,-1,-1,-1,1,2,2,-3,0
1558434755674572,1,1,4,12,15,6,5,2
1558434755682640,1,0,1,3,5,5,1,1
1558434755682640,0,0,-4,-16,-6,0,-1,1
1558434755697261,-3,-3,-1,13,13,6,1,-3
1558434755697261,-2,-3,-1,-5,-11,-9,-1,-2
1558434755704585,0,-2,-1,3,-4,-6,-5,-1
1558434755704585,3,1,-1,-7,5,5,5,2
1558434755719204,1,1,2,0,1,1,-1,-2
1558434755719204,-2,-3,-7,-9,-7,-4,-4,-3
1558434755726476,-3,-2,-3,-1,-3,-8,-2,-2
1558434755726476,1,4,5,10,11,3,4,2
1558434755734166,-2,-2,-8,-12,-8,-1,-1,0
1558434755734166,0,-2,2,4,-5,-4,-4,-1
1558434755743143,-3,-2,2,0,-7,-7,-4,-3
1558434755743143,-3,-2,-1,3,-2,-3,-5,-4
1558434755757104,-4,-1,-5,-16,-18,-10,-7,-4
1558434755757104,0,1,4,11,12,11,7,3
1558434755764114,2,0,2,-4,17,12,12,7
1558434755764114,3,1,2,6,5,7,3,0
1558434755779043,-1,1,6,6,0,-6,-3,-2
1558434755779043,-3,-5,-7,-6,-9,-8,-10,-5
1558434755786302,-1,1,0,3,-1,-3,1,0
1558434755786302,-1,-4,-8,-17,-7,-4,-2,0
1558434755794003,0,1,-2,-3,-3,-7,-7,-1
1558434755794003,-3,-3,1,-4,-8,1,-5,-6
1558434755802979,-2,-3,-3,5,4,4,1,-2
1558434755802979,0,0,-3,3,3,-1,9,6
1558434755816940,0,0,-1,-2,4,5,0,-1
1558434755816940,1,0,2,9,7,0,1,4
1558434755823923,-3,-3,-2,-11,-15,-8,-6,-4
1558434755823923,-4,-1,0,-2,-7,-4,-4,-2
1558434755838881,0,-2,-2,-16,-3,0,3,0
1558434755838881,-3,-2,-5,-7,-11,-8,-5,-4
1558434755845863,-1,-4,0,4,-2,0,-2,-1
1558434755845863,0,-3,-3,2,3,-3,-3,-2
1558434755853840,0,1,5,11,9,12,7,1
1558434755853840,2,3,7,7,12,6,4,3
1558434755862853,-1,1,-15,-28,-13,-11,-5,0
1558434755862853,-1,-2,2,12,8,6,1,-3
1558434755876819,-2,-5,-12,-14,-18,-13,-6,-2
1558434755876819,-3,-3,3,9,-2,-4,-4,-2
1558434755883796,0,-2,0,-5,-5,-5,-4,-2
1558434755883796,1,2,-3,-5,9,0,2,4
1558434755899720,0,1,2,8,8,3,1,1
1558434755899720,-1,-3,-6,-3,-3,2,2,0
1558434755905702,-2,-1,3,8,-6,-4,-5,-3
1558434755905702,-2,-1,1,1,-3,0,-1,-1
1558434755922687,-1,-1,1,1,-3,-1,0,0
1558434755922687,2,0,-3,-2,-4,-5,-2,0
1558434755923683,1,1,1,-4,5,-2,-4,-3
1558434755923683,-3,-5,-7,-9,-12,-5,-5,-5
1558434755936678,2,0,0,6,6,8,6,4
1558434755936678,-3,0,-4,-1,2,3,1,-2
1558434755943659,0,-3,-1,-12,2,3,4,0
1558434755943659,0,0,0,-3,-4,-3,-1,-2
1558434755959560,-4,-2,0,3,-2,-4,-5,-3
1558434755959560,0,0,2,-6,-9,-8,-8,-3
1558434755966542,-4,-4,-6,5,-10,-13,-3,-2
1558434755966542,4,5,10,9,21,19,14,7
1558434755982532,-1,0,-2,-1,0,2,2,1
1558434755982532,1,-1,1,-1,4,3,0,-1
1558434755983530,-1,0,3,11,2,0,-1,-3
1558434755983530,-3,-4,1,7,-13,-10,-8,-4
1558434755996459,0,-3,-11,-23,-8,-7,-6,-4
1558434755996459,-2,-1,2,-2,-1,-1,2,0
1558434756003443,-2,-2,-8,-17,0,3,-1,0
1558434756003443,-2,-4,-5,-3,-7,-7,-5,-3
1558434756019398,0,0,3,3,-1,5,0,-2
1558434756019398,3,2,-1,-7,15,7,4,1
1558434756026409,-1,-1,8,18,3,-2,-1,-2
1558434756026409,4,4,-2,2,4,5,5,2
1558434756042337,-1,-3,3,7,4,-5,-5,-1
1558434756042337,-2,-3,-5,-14,-8,1,1,-1
1558434756044332,3,1,1,3,4,5,3,3
1558434756044332,-3,-4,1,-4,-9,-9,-8,-3
1558434756057297,0,-2,1,3,-9,-4,-4,-4
1558434756057297,-2,-2,0,12,3,-8,-3,-1
1558434756063282,0,2,5,10,3,0,-3,-2
1558434756063282,0,0,-10,-22,-6,1,2,-1
1558434756079240,-1,0,1,-3,9,6,2,1
1558434756079240,1,2,5,9,4,2,3,1
1558434756086221,-2,-4,-8,-9,-9,-4,1,-2
1558434756086221,-2,-4,3,17,1,-6,-8,-1
1558434756102208,1,-2,1,-8,-4,-2,-1,0
1558434756102208,2,-2,-6,-11,-7,1,1,0
1558434756104206,1,2,2,1,6,3,1,1
1558434756104206,-3,0,1,7,-5,-5,-4,-5
1558434756117164,-3,-4,-7,-5,-2,-4,-1,-3
1558434756117164,-1,0,4,5,1,1,-1,0
1558434756124119,0,3,4,15,5,2,-1,1
1558434756124119,-1,-4,-8,-20,-11,-3,-1,-1
1558434756139078,-3,-3,-1,-6,-8,-3,-3,-2
1558434756139078,-2,-5,-4,-1,-6,-10,-6,-4
1558434756146061,4,4,4,1,17,10,9,7
1558434756146061,0,2,-5,0,5,1,0,1
1558434756163014,-3,-2,-3,17,2,1,1,-2
1558434756163014,-2,-1,-4,-12,-12,-4,-1,-2
1558434756164014,-4,-4,-4,1,-9,-3,-4,-5
1558434756164014,-3,-4,-7,-20,1,-2,-4,-1
1558434756177021,2,3,-2,-4,2,-2,1,2
1558434756177021,-3,-1,-4,-3,-3,-4,-3,-3
1558434756183992,-2,-2,-2,-8,2,10,1,2
1558434756183992,2,2,5,8,5,-3,1,1
1558434756198952,-3,-4,-3,3,-1,-1,-2,-3
1558434756198952,0,3,9,7,1,2,3,2
1558434756205934,0,-3,-15,-23,-9,-6,-1,-1
1558434756205934,-3,-3,1,9,-9,-4,-6,-6
1558434756222855,-2,0,-1,-3,-2,-7,-5,-2
1558434756222855,0,0,4,15,6,8,2,1
1558434756223852,-2,-3,0,-3,-3,-2,-2,-2
1558434756223852,0,-1,-8,-9,1,1,2,2
1558434756236866,1,2,6,11,1,-4,-1,2
1558434756236866,-3,-3,-11,-13,-7,-3,-1,-1
1558434756243798,1,0,3,5,13,5,-1,0
1558434756243798,-2,-2,-2,-8,-11,-5,-3,-3
1558434756259756,0,-1,6,10,3,0,1,2
1558434756259756,-2,-4,-10,1,4,7,0,0
1558434756265769,-1,1,-3,-14,-3,-2,-1,1
1558434756265769,-2,-2,4,5,-3,-4,-2,-1
1558434756282693,-1,0,-2,-9,0,-2,-2,-1
1558434756282693,-1,0,4,8,4,1,-4,-4
1558434756283691,-1,0,4,10,-4,-6,1,0
1558434756283691,-2,0,-1,-3,7,10,1,1
1558434756296657,-1,-1,0,3,-3,-1,-2,-2
1558434756296657,-4,-4,-3,-12,-9,-6,-2,-1
1558434756304635,-3,-3,-3,1,0,-4,-2,-3
1558434756304635,0,0,-3,5,2,-1,2,2
1558434756319595,1,1,1,-2,2,2,0,1
1558434756319595,1,1,3,12,5,-4,-2,0
1558434756326576,0,0,-3,-17,-8,-1,-3,-3
1558434756326576,-1,-1,8,14,6,3,0,-3
1558434756342533,-2,-4,-19,-16,-14,-1,-5,-5
1558434756342533,-2,-1,-5,-12,-3,-1,-3,-2
1558434756343531,0,1,0,-1,-3,-6,1,1
1558434756343531,2,0,5,10,8,2,4,2
1558434756356531,-1,-1,-1,-12,0,1,-1,1
1558434756356531,0,1,1,2,-5,-3,-2,-3
1558434756365473,-2,-3,-8,-8,-15,-10,-9,-7
1558434756365473,-4,-4,-12,-15,-10,-5,-6,-4
1558434756379435,1,3,5,4,13,11,10,6
1558434756379435,0,-1,1,-1,7,3,6,5
1558434756386416,0,1,7,11,7,9,4,-1
1558434756386416,-3,-1,-3,-1,-10,-8,-6,-6
1558434756402373,-2,-3,0,-3,-7,-3,-4,-3
1558434756402373,-3,-2,-3,-10,-9,-5,-2,-2
1558434756404368,-2,0,3,11,2,-3,0,0
1558434756404368,-2,-3,-7,-9,3,2,0,-1
1558434756416363,-1,-2,-1,2,1,5,1,-2
1558434756416363,-1,-3,-1,4,11,6,2,0
1558434756425313,-1,-2,-3,-17,-9,-5,-5,-2
1558434756425313,-1,-1,-6,-11,-4,-9,0,2
1558434756439277,-2,1,4,3,-3,-8,-4,-2
1558434756439277,1,0,-5,0,-1,3,1,-2
1558434756446257,-2,-5,0,9,-2,-4,-4,-4
1558434756446257,0,0,6,11,8,9,1,0
1558434756462213,-2,-3,-9,-10,1,1,0,-1
1558434756462213,-1,-2,-5,-4,-11,-10,-5,-1
1558434756464209,0,1,-2,2,7,7,2,4
1558434756464209,2,5,5,11,7,9,6,4
1558434756476177,-1,-3,-6,-10,-2,0,-3,-2
1558434756476177,-1,-1,3,9,-4,-2,-6,-5
1558434756485152,-3,-2,-4,-20,-15,-19,-4,-3
1558434756485152,1,-1,1,8,12,5,2,2
1558434756499154,1,0,1,4,7,5,5,2
1558434756499154,-3,-2,-4,-10,-4,-1,0,-2
1558434756506123,0,-2,1,6,3,-6,-3,-1
1558434756506123,1,0,2,0,-5,-5,-2,0
1558434756522055,0,1,2,5,-3,-2,-1,-1
1558434756522055,-2,-1,-1,-5,-5,-9,-5,-3
1558434756529037,-2,-3,-7,1,0,7,1,-1
1558434756529037,-1,0,2,8,11,8,1,0
1558434756536018,-1,-2,-6,-14,-4,-2,-3,0
1558434756536018,2,-1,3,4,3,-1,2,3
1558434756544993,-3,-3,-8,-9,-7,-2,-2,-5
1558434756544993,-1,-2,2,-1,-5,-3,-2,-1
1558434756558954,1,-1,8,20,5,4,-2,-2
1558434756558954,-3,-5,-11,-25,-16,-8,-5,-3
1558434756565966,2,1,4,4,0,-6,0,3
1558434756565966,-3,-5,-3,0,1,7,3,-2
1558434756582891,0,3,7,8,6,-1,-3,0
1558434756582891,-3,0,-5,-6,2,6,2,0
1558434756583889,-1,-2,-1,13,0,4,1,0
1558434756583889,-2,-1,-5,-13,-17,-16,-7,-4
1558434756595866,-3,-3,-3,-16,-17,-9,-4,-4
1558434756595866,1,-1,3,4,4,1,2,-2
1558434756605186,-4,-2,-12,-8,-1,-1,-2,-1
1558434756605186,-2,-2,2,0,0,-4,-3,-2
1558434756619964,1,1,0,7,10,7,5,1
1558434756619964,-1,-1,-1,8,5,5,1,0
1558434756625779,3,3,4,-2,2,-1,3,2
1558434756625779,-2,-1,-3,-6,-10,-2,-4,-5
1558434756642774,-3,-1,-1,-4,-10,-8,-5,-4
1558434756642774,0,-1,-3,-14,-13,-10,-6,-2
1558434756643729,-2,-1,3,19,12,-3,-2,2
1558434756643729,0,-2,-8,-11,2,8,3,3
1558434756655755,0,-2,-1,4,0,0,1,-1
1558434756655755,1,4,9,10,9,6,0,-1
1558434756664673,-1,-3,-11,-14,-13,-2,-4,-4
1558434756664673,-3,-2,-2,-2,-9,-9,-3,0
1558434756678638,0,-2,-1,7,2,-2,-2,-3
1558434756678638,-1,-2,3,-6,-6,-5,-4,-2
1558434756687611,-2,0,-3,3,-2,0,-3,-2
1558434756687611,-2,-1,-3,-11,4,1,-2,0
1558434756701600,3,2,3,14,11,10,7,3
1558434756701600,2,1,-2,-5,6,-7,3,1
1558434756708582,-2,-2,2,0,1,6,0,-4
1558434756708582,-5,-6,-6,-8,-19,-13,-10,-8
1558434756716534,-4,-3,-6,-10,-11,-12,-10,-4
1558434756716534,0,-2,1,11,13,8,7,3
1558434756725509,1,-1,4,-6,6,10,5,1
1558434756725509,-1,-3,-8,2,-1,-4,-1,0
1558434756739531,-1,1,3,-4,-2,-6,-3,-1
1558434756739531,-3,-2,-2,10,-3,2,0,-1
1558434756746456,1,2,4,-2,-5,-3,-1,0
1558434756746456,0,-1,3,5,6,4,1,-1
1558434756761471,-1,-3,3,3,-5,-1,-1,-3
1558434756761471,-2,-3,-10,-7,-2,-3,-5,-4
1558434756768397,1,1,6,10,4,4,5,2
1558434756768397,0,2,0,0,1,-2,1,2
1558434756776375,-2,-2,-2,0,1,-2,-4,-1
1558434756776375,-4,-2,0,1,-8,-2,-5,-3
1558434756785351,-2,-1,2,0,-7,-1,-2,-4
1558434756785351,-2,0,2,4,-1,-8,-3,-3
1558434756799313,-1,-4,-12,-7,4,3,5,3
1558434756799313,2,2,3,4,3,1,0,1
1558434756806328,0,-1,0,1,-1,-1,-3,-1
1558434756806328,0,-2,-1,-2,-10,-6,-4,-1
1558434756822250,-3,-2,-2,-2,-4,1,-4,-4
1558434756822250,-1,1,2,4,2,1,-2,-3
1558434756828235,1,-2,-8,-18,2,2,3,0
1558434756828235,1,2,6,14,6,7,2,-1
1558434756845189,-1,-3,-8,-5,-2,-4,-2,1
1558434756845189,-4,0,2,-1,-4,-1,-3,0
1558434756846187,-4,-4,-13,-6,0,-2,-2,-2
1558434756846187,2,1,1,-5,3,2,0,1
1558434756859152,-1,-1,-2,4,-1,-6,0,-2
1558434756859152,-1,-3,7,11,-4,2,-2,0
1558434756866135,-3,-4,-12,-21,-9,-4,-3,-3
1558434756866135,-2,-1,-2,0,-1,0,-3,-1
1558434756882148,-1,-1,1,-1,-2,3,2,-1
1558434756882148,3,2,5,13,9,5,5,2
1558434756889127,2,2,8,5,4,-2,0,-1
1558434756889127,-2,-2,-4,-8,-5,-3,0,-2
1558434756905029,0,-1,-6,-11,-11,-9,-7,-2
1558434756905029,1,-1,0,-5,2,0,-1,-2
1558434756906026,-2,-4,-2,2,-6,-6,-1,0
1558434756906026,0,-1,3,11,7,2,1,2
1558434756919018,0,2,7,12,8,7,3,0
1558434756919018,-4,-6,-11,-4,-2,-6,-1,1
1558434756925975,-1,0,-3,-21,-6,0,-5,1
1558434756925975,0,-1,1,0,-1,-3,-2,-5
1558434756941957,0,-2,-1,-5,-11,-7,1,-1
1558434756941957,0,-1,-5,1,-3,0,-1,0
1558434756948938,1,0,8,15,7,4,0,-1
1558434756948938,-2,-3,-9,-11,0,0,0,2
1558434756964904,2,1,1,1,6,6,1,-1
1558434756964904,-3,0,1,-6,-1,-8,-4,-3
1558434756966864,-4,-3,-7,-2,-12,-9,-5,-2
1558434756966864,-2,-2,0,1,-3,-3,-3,-4
1558434756978831,-3,-2,-1,-2,-4,-4,-1,-3
1558434756978831,1,3,2,-4,1,1,0,-2
1558434756985813,3,3,4,3,19,14,7,5
1558434756985813,-1,-2,2,2,-10,-1,0,0
1558434757002280,-3,-4,-6,5,0,-6,-5,-5
1558434757002280,-3,-4,-8,-21,-16,-6,-3,-5
1558434757009082,-3,-2,2,5,-4,-10,-2,-4
1558434757009082,-1,-1,-1,-3,3,-1,-1,0
1558434757025862,-1,-1,1,3,-4,-4,-2,-1
1558434757025862,0,1,1,7,13,13,1,0
1558434757026706,2,-2,-8,-5,-3,1,0,-1
1558434757026706,-1,1,0,2,0,2,-2,-1
1558434757039974,-4,-3,1,-2,-3,-2,-4,-3
1558434757039974,1,0,3,-6,-4,-4,3,1
1558434757046652,-2,-2,-9,-4,-2,-3,-3,-1
1558434757046652,-2,-3,-2,-7,-7,-9,-6,-1
1558434757061917,0,1,2,5,4,3,3,1
1558434757061917,-1,1,-1,6,6,-1,1,2
1558434757068596,-1,-1,2,-6,-2,-2,-5,-1
1558434757068596,-2,-1,-1,9,-5,0,0,-2
1558434757084581,-1,2,3,3,3,2,1,2
1558434757084581,1,0,-6,-16,1,-1,-1,1
1558434757086546,0,3,5,7,4,3,4,1
1558434757086546,-2,-1,0,4,7,6,3,0
1558434757099809,-4,-3,-3,-10,-11,-9,-5,-1
1558434757099809,-3,-3,0,11,-1,2,-1,-3
1558434757106782,-2,-2,0,4,3,2,-1,-1
1558434757106782,-3,-3,2,0,-3,-4,-3,-5
1558434757122602,1,-2,-13,-21,-2,-2,1,2
1558434757122602,2,1,3,4,4,3,2,3
1558434757128723,-3,-1,-2,-6,-7,-6,-8,-6
1558434757128723,-1,-3,-1,2,0,-2,0,-2
1558434757145661,0,2,4,11,4,5,1,1
1558434757145661,0,-4,-9,-19,-21,-12,-7,-3
1558434757146385,-1,-1,3,10,-2,-5,-2,-1
1558434757146385,0,1,1,-2,5,5,1,0
1558434757159629,0,-1,-6,-8,-5,0,-3,-2
1558434757159629,-4,0,0,-1,1,4,-1,-3
1558434757166615,-2,-1,-1,0,-6,-9,-2,1
1558434757166615,-3,-1,-1,0,0,2,-1,-2
1558434757182564,1,0,2,4,5,6,2,0
1558434757182564,-1,-2,-3,3,-5,-11,-7,-2
1558434757189486,-4,-4,-10,-15,-6,1,3,2
1558434757189486,0,1,-5,-6,-2,-1,-2,-1
1558434757205378,-2,-3,-5,-12,-5,-5,-1,-1
1558434757205378,-2,0,2,0,2,3,0,-1
1558434757206407,-2,-2,0,5,-5,-7,-8,-5
1558434757206407,-3,-2,-1,-2,-6,-3,1,0
1558434757219461,2,0,5,18,13,5,3,3
1558434757219461,0,-2,-4,-5,-1,1,0,-2
1558434757226448,0,0,2,-2,-1,0,-1,-2
1558434757226448,2,0,-4,-5,-2,0,1,1
1558434757242399,2,2,2,-2,-4,-8,-2,-1
1558434757242399,-3,-2,-1,5,3,3,0,-1
1558434757249384,-1,0,1,5,2,4,1,-3
1558434757249384,0,-1,-5,-14,-2,3,2,2
1558434757265070,-1,1,0,0,6,4,3,0
1558434757265070,2,-3,-2,1,2,-3,-3,-2
1558434757266067,0,3,0,3,-5,-2,-3,0
1558434757266067,-2,1,0,2,1,-6,-2,-1
1558434757279253,-4,-3,-3,-9,-5,5,-1,-1
1558434757279253,-1,1,8,11,4,2,0,2
1558434757286348,-1,-3,-7,-19,-9,-6,-4,-1
1558434757286348,0,-3,-6,-4,-5,-7,-5,-1
1558434757302006,-2,-1,-8,-6,-3,-2,-2,0
1558434757302006,-1,-2,-3,-6,-1,-1,-1,-1
1558434757308989,0,2,5,10,12,10,6,2
1558434757308989,0,-1,2,0,-2,-3,-6,-6
1558434757324907,-4,-4,1,7,-10,-5,-5,-6
1558434757324907,1,-1,-2,0,6,-3,2,2
1558434757326902,1,-2,-6,-18,1,7,4,3
1558434757326902,1,2,1,9,13,9,3,2
1558434757338869,1,1,3,-2,0,-4,-2,-2
1558434757338869,-4,-4,-5,0,-7,-7,-6,-5
1558434757347847,-1,-2,-1,1,-6,-9,-2,-2
1558434757347847,-1,-1,0,-2,-3,-6,-2,-1
1558434757362246,-3,-1,-2,-11,-5,1,-4,-3
1558434757362246,-2,1,4,10,-7,-10,-1,0
1558434757368975,-2,-3,-9,-10,3,3,3,1
1558434757368975,0,-2,-1,4,4,1,2,1
1558434757385037,2,-3,-2,-4,1,-3,-2,0
1558434757385037,-2,0,4,6,-6,0,-1,-4
1558434757386742,-5,-6,-7,-1,-11,-6,-2,-4
1558434757386742,-1,2,0,-14,-6,-1,-1,2
1558434757399043,-2,-2,-5,0,3,3,1,-1
1558434757399043,-3,-2,-1,7,4,5,3,0
1558434757407689,2,2,1,2,1,-2,-1,-1
1558434757407689,-3,-2,0,1,-2,1,-1,-3
1558434757421696,0,2,4,7,-1,-2,-1,-1
1558434757421696,-1,-2,-5,-20,-6,0,-3,-2
1558434757428678,-4,-1,2,15,1,0,-1,-4
1558434757428678,-1,0,-2,-5,-2,-3,-2,-1
1558434757444635,-2,-3,-4,4,2,-3,-4,-2
1558434757444635,1,2,0,-2,3,0,1,2
1558434757446586,2,1,6,7,6,2,-1,3
1558434757446586,-5,-4,-6,-5,-7,-4,-3,-3
1558434757458604,0,-3,-1,-4,-2,-5,-4,-3
1558434757458604,2,1,2,-2,1,0,1,0
1558434757467525,-1,-1,3,9,-2,1,-3,-3
1558434757467525,0,-1,0,7,5,2,2,0
1558434757481506,0,0,-4,-16,-1,2,2,2
1558434757481506,0,-1,-2,3,7,8,5,1
1558434757488508,-2,-1,0,-5,-5,-4,-2,-1
1558434757488508,-2,1,1,5,-4,-6,-3,-2
1558434757505520,-4,-2,-1,-2,-5,-4,-4,-2
1558434757505520,0,-2,-2,-1,3,3,1,-1
1558434757506422,-2,-3,-5,-3,-9,-11,-4,-1
1558434757506422,-2,-3,-4,-6,-1,6,2,0
1558434757518579,2,2,5,11,6,6,6,2
1558434757518579,-2,1,-4,-3,-2,1,-1,-2
1558434757527424,-2,1,0,-1,1,-4,-2,-2
1558434757527424,-1,-2,7,15,-1,-8,-6,-2
1558434757542326,-5,-6,-17,-34,-13,-4,-1,-4
1558434757542326,-2,-4,-2,-4,-5,-1,0,1
1558434757548396,2,-1,2,8,11,7,4,2
1558434757548396,1,-1,-4,-9,0,-1,1,1
1558434757565354,-2,0,2,9,5,3,-2,0
1558434757565354,-4,-3,-5,-5,-10,-6,-3,-3
1558434757566260,1,0,3,-3,4,-3,0,-1
1558434757566260,0,2,5,9,-7,-3,-1,-1
1558434757578325,0,-2,-4,7,2,3,-1,0
1558434757578325,0,-2,-11,-15,-10,-5,-6,-4
1558434757587265,-1,1,-2,6,2,2,1,1
1558434757587265,-2,1,2,2,5,5,3,1
1558434757602197,-2,-2,1,-6,2,-2,2,3
1558434757602197,0,0,3,0,-5,-4,-8,-3
1558434757609147,-1,-2,2,12,3,3,-1,-1
1558434757609147,0,-1,-10,-17,-6,-1,-1,-1
1558434757624147,0,-2,4,9,-6,-5,-2,-1
1558434757624147,-2,-2,0,3,-3,-4,-2,-3
1558434757631088,0,0,1,-5,6,9,-1,-2
1558434757631088,1,0,-2,1,9,4,4,3
1558434757639102,2,2,2,5,6,1,2,1
1558434757639102,-4,-2,1,2,-2,-6,-2,-1
1558434757648043,-4,-2,-3,-3,-15,-9,-8,-6
1558434757648043,-5,-4,-8,-20,-13,-5,-3,-5
1558434757662007,0,0,-3,-11,1,6,1,-4
1558434757662007,3,3,2,4,15,6,4,5
1558434757669013,1,-1,1,6,4,1,0,1
1558434757669013,-1,-2,-2,-6,-10,-10,-6,-2
1558434757684961,-3,-1,0,3,-7,-2,-2,-3
1558434757684961,-2,-3,-2,1,-4,-2,-3,-3
1558434757691147,-1,0,-2,-10,0,-1,0,1
1558434757691147,-1,-4,0,7,0,-2,0,-1
1558434757698908,-3,-2,-2,-10,-5,0,-2,-3
1558434757698908,-4,-1,-10,-9,-4,1,-1,1
1558434757707883,-1,-1,0,0,1,1,-2,-2
1558434757707883,0,-1,4,6,3,3,1,-1
1558434757721848,-2,-3,-4,4,-5,-6,-3,0
1558434757721848,2,-1,3,6,-1,-3,1,-3
1558434757728825,-2,-1,-11,-24,-11,-8,0,1
1558434757728825,0,-2,-1,-2,1,-1,-3,-1
1558434757743787,0,2,4,14,14,11,4,3
1558434757743787,-1,2,2,0,5,4,0,0
1558434757750776,-2,-4,-4,-7,-10,-8,-2,-4
1558434757750776,0,-1,5,18,0,-4,-7,-1
1558434757758959,-1,-1,-11,-29,-7,-9,-2,3
1558434757758959,-2,-3,-1,0,1,8,0,0
1558434757767723,1,0,0,3,4,3,0,2
1558434757767723,-4,-3,-2,-3,3,6,6,3
1558434757781716,-1,1,8,15,3,-8,0,-1
1558434757781716,0,0,1,-5,-4,-4,-3,0
1558434757790967,-1,-2,-1,3,-2,2,-4,-4
1558434757790967,-4,-3,-9,-23,-12,-9,-9,-7
1558434757804652,3,1,5,6,1,3,7,4
1558434757804652,-4,-5,-10,-11,2,0,1,-2
1558434757811604,-3,-2,4,17,0,-3,0,0
1558434757811604,0,1,2,6,-1,5,1,0
1558434757827595,-3,0,-1,-8,-6,0,-6,-4
1558434757827595,-3,-2,-2,-1,-8,-11,-3,1
1558434757829558,0,0,8,13,8,5,0,0
1558434757829558,-1,1,-10,-10,8,7,6,1
1558434757841558,-1,-4,-2,3,1,1,0,-4
1558434757841558,-1,-2,2,2,1,6,2,-1
1558434757848508,-2,-3,-8,-8,-10,-8,-3,-4
1558434757848508,0,3,7,8,2,0,-3,2
1558434757864493,-3,-3,-3,2,-6,-5,-4,-4
1558434757864493,-3,-3,-5,-7,-5,-9,-3,-1
1558434757872444,0,2,-1,-8,5,5,4,0
1558434757872444,-1,-1,5,5,2,6,2,-2
1558434757887430,-2,-1,-2,2,-1,-5,-3,-2
1558434757887430,2,3,2,-4,-2,0,-2,0
1558434757889396,0,1,3,7,-4,1,-1,1
1558434757889396,-2,-4,-14,-20,-4,-7,1,1
1558434757901395,0,0,1,4,0,1,-1,2
1558434757901395,-1,-2,1,3,2,-3,-2,0
1558434757908378,-1,-1,-5,-9,2,4,-1,-1
1558434757908378,0,1,6,11,1,-5,-2,-1
1558434757924436,-1,-4,-5,-10,-7,-4,-1,-3
1558434757924436,-1,1,1,2,-3,-1,-1,-1
1558434757931415,2,0,0,-5,6,4,2,3
1558434757931415,-1,-1,2,-1,-5,-6,-1,-2
1558434757947341,-2,-4,-9,-10,-7,-5,-4,-3
1558434757947341,-1,1,4,6,-1,-6,-4,-3
1558434757949367,-2,-2,-1,1,-4,-3,-3,-4
1558434757949367,0,0,5,10,7,5,2,2
1558434757962299,-1,0,0,-4,2,-3,-3,-1
1558434757962299,0,-3,-5,-1,1,4,1,-3
1558434757968317,0,-1,2,8,0,1,3,0
1558434757968317,-3,0,-8,-11,-10,-9,-5,-1
1558434757984274,-4,-2,3,6,3,5,-2,0
1558434757984274,-2,-2,1,-4,-5,-6,-6,-1
1558434757991222,-3,-2,2,5,-7,-6,-3,-3
1558434757991222,5,3,4,3,10,16,10,2
1558434758007180,1,1,-2,5,6,3,3,1
1558434758007180,-1,-2,-6,-8,-3,-2,0,-1
1558434758009175,-4,-4,2,1,-5,-9,-8,-6
1558434758009175,-2,-3,-6,-1,-3,-5,-4,-3
1558434758022172,2,1,3,-7,-1,-1,2,2
1558434758022172,1,1,-1,-4,4,10,8,2
1558434758028122,-1,0,2,16,5,4,2,2
1558434758028122,-3,-3,-5,-18,-3,-7,-6,-4
1558434758044079,0,0,0,4,1,-1,-2,-1
1558434758044079,0,0,4,8,-1,-2,-4,-3
1558434758051062,-1,-1,-6,-13,-5,-2,-2,-2
1558434758051062,-1,-1,-2,3,-6,-7,-4,-3
1558434758067019,0,-1,-2,3,1,-2,-4,-2
1558434758067019,0,1,3,12,12,6,2,1
1558434758069014,2,2,-3,-6,0,2,3,0
1558434758069014,-1,-1,-1,5,-2,-3,-3,-4
1558434758081979,-3,-3,-7,-7,-10,-6,-4,-2
1558434758081979,0,1,1,4,5,8,5,2
1558434758089110,-3,-3,-5,-6,1,-6,-4,-2
1558434758089110,-2,-2,4,6,-3,-2,-2,-1
1558434758103923,0,2,4,-5,-4,-2,2,1
1558434758103923,0,-2,-3,-12,-2,-6,-5,-2
1558434758110914,-2,-3,0,4,2,5,4,3
1558434758110914,-1,-2,-9,-17,-8,-4,-1,1
1558434758127855,-1,-2,4,7,-4,-1,-3,-3
1558434758127855,-1,-3,-5,-5,-7,-7,-4,-3
1558434758128854,3,4,6,1,10,7,4,1
1558434758128854,0,-2,-3,-3,-1,4,1,2
1558434758141829,-2,0,-1,16,-1,-2,-3,-1
1558434758141829,-1,-1,-11,-38,-10,-5,-2,-1
1558434758148950,-1,1,0,-5,2,-1,-3,-1
1558434758148950,-3,1,2,11,7,6,3,0
1558434758164757,1,-1,3,-8,0,6,2,1
1558434758164757,-3,-4,1,8,-8,-6,-5,-3
1558434758170743,-1,-2,-1,-3,-3,-6,-1,1
1558434758170743,0,-1,-1,8,2,1,0,0
1558434758187695,-1,1,2,-4,5,3,1,-1
1558434758187695,-1,-1,1,4,1,-4,1,0
1558434758188693,-1,-1,-1,-5,-7,3,-1,-1
1558434758188693,0,0,-1,4,3,1,-2,-4
1558434758201658,-2,-1,-3,0,-3,-7,0,-2
1558434758201658,-1,-1,4,7,-2,-4,-1,1
1558434758208640,-2,-4,-14,-19,-5,1,1,-2
1558434758208640,0,2,3,4,9,5,3,2
1558434758224598,0,-1,-3,6,0,0,-3,-1
1558434758224598,-1,-2,-2,-4,-6,-2,-3,1
1558434758231578,0,-2,-1,3,-3,-8,-4,-2
1558434758231578,-2,-5,1,2,-10,-4,-3,-4
1558434758247537,0,-3,-6,-15,-1,-1,-1,0
1558434758247537,1,-1,-4,2,3,-3,0,0
1558434758248534,-2,0,1,2,-3,-2,-1,0
1558434758248534,0,0,-2,-7,3,1,1,0
1558434758261500,-1,-2,2,3,-8,-9,-4,-3
1558434758261500,-1,-1,0,-1,-4,2,-3,-4
1558434758268487,0,-1,2,3,3,3,1,0
1558434758268487,-1,0,-3,-4,-2,-9,-2,2
1558434758284475,0,0,4,8,10,5,3,2
1558434758284475,-5,-5,-7,-3,-3,1,-3,-4
1558434758291420,-2,-1,-1,-7,-9,-7,-3,-4
1558434758291420,-3,-2,5,15,-5,-2,-6,-3
1558434758307377,1,-1,-2,-9,1,-2,-1,-2
1558434758307377,3,3,-6,-22,7,7,10,6
1558434758309372,0,0,6,6,5,0,-1,-1
1558434758309372,2,-2,-7,-16,-11,-5,0,0
1558434758321340,-1,0,-2,6,4,-3,-4,0
1558434758321340,0,1,6,12,4,4,1,0
1558434758330315,-2,-4,-12,-28,-7,-5,-3,0
1558434758330315,-2,-1,3,3,-1,0,0,-3
1558434758344283,1,0,3,4,-3,-1,1,1
1558434758344283,-2,-3,-7,-3,-1,-5,-5,-2
1558434758351258,0,3,4,16,-1,-2,1,0
1558434758351258,-2,-5,-10,-11,4,2,0,-2
1558434758367248,-5,-4,-6,-20,-13,-2,-4,-5
1558434758367248,1,-1,5,14,1,2,-1,1
1558434758369243,2,2,6,3,3,-10,-2,3
1558434758369243,0,0,5,-1,0,0,-1,0
1558434758381182,-2,-6,-11,-14,-3,-7,-3,-3
1558434758381182,-3,-1,2,1,-17,-13,-7,-4
1558434758390159,2,1,-3,-4,16,20,5,3
1558434758390159,-3,0,6,14,9,9,3,1
1558434758404119,0,0,-1,3,6,-1,1,2
1558434758404119,-2,-1,1,0,-4,-3,-4,-3
1558434758411098,-3,-2,-1,6,-5,-3,-4,-3
1558434758411098,2,2,0,-7,-5,0,-1,3
1558434758427059,-1,0,0,6,5,7,2,0
1558434758427059,0,-1,-1,2,4,-2,0,-2
1558434758434037,-2,-2,-3,-1,-5,-5,-5,-3
1558434758434037,-1,-1,-2,-13,-6,-6,-1,1
1558434758441020,-4,-2,-1,4,-1,-4,-2,-2
1558434758441020,-3,1,0,-2,4,-3,2,0
1558434758450010,-1,-3,0,0,5,12,4,-2
1558434758450010,-1,0,1,4,2,2,0,-2
1558434758463958,-2,-1,3,4,-8,-4,-4,-3
1558434758463958,-1,-2,-1,-1,2,3,3,-1
1558434758470938,-1,-3,-3,-2,-11,-11,-6,-5
1558434758470938,-3,-4,-2,-1,-9,-10,-5,-5
1558434758487893,2,1,1,0,4,-4,-1,0
1558434758487893,-1,-1,-2,-3,4,11,2,0
1558434758488896,-2,-3,-6,-3,-3,-2,-4,-2
1558434758488896,2,1,0,4,2,-2,0,1
1558434758500858,2,5,4,7,10,4,7,3
1558434758500858,-2,-3,-6,-4,-7,-9,-6,-3
1558434758509835,-2,-1,0,0,-1,3,3,1
1558434758509835,-4,-1,-5,-4,-5,-8,-7,-4
1558434758524795,-3,-2,1,-2,-1,1,-1,-1
1558434758524795,2,0,3,6,1,2,1,0
1558434758530779,2,1,4,3,1,0,2,2
1558434758530779,0,1,-4,-13,1,-1,1,1
1558434758546738,-2,-3,-3,-4,-7,-6,-4,-3
1558434758546738,-1,-2,1,3,1,1,-3,-4
1558434758553718,-1,-1,0,4,0,1,2,-2
1558434758553718,1,1,0,7,4,0,1,2
1558434758560698,0,0,-2,-2,2,5,1,-1
1558434758560698,0,2,2,1,-1,1,1,0
1558434758569674,-3,-1,0,2,0,-1,-2,-1
1558434758569674,-2,-4,-10,-16,-10,-4,-4,-3
1558434758584635,-1,0,-4,-6,2,5,-1,1
1558434758584635,-3,-3,-1,-3,-3,-3,-3,-2
1558434758591615,0,1,3,4,-2,-2,3,-1
1558434758591615,-1,-1,1,5,2,-2,-2,1
1558434758606578,0,-2,-3,-2,-2,0,-2,-2
1558434758606578,1,2,1,2,5,2,2,3
1558434758613558,-3,-2,-6,-9,-2,-5,-5,-2
1558434758613558,0,0,0,2,-1,1,0,-1
1558434758621536,0,-3,-1,-4,-7,-1,-1,-1
1558434758621536,-2,-1,-5,-11,-3,-1,-1,1
1558434758630511,0,-2,-2,-7,-4,-4,-2,-2
1558434758630511,0,-1,-3,3,-1,1,2,1
1558434758644477,1,2,2,7,6,2,3,-2
1558434758644477,-3,-3,-3,0,-2,0,-1,-3
1558434758651465,-4,-3,-4,0,-2,-3,1,0
1558434758651465,-2,-1,-1,-4,-3,-1,0,0
1558434758666416,0,0,-1,0,-4,-5,-1,1
1558434758666416,-1,-2,-1,-5,-5,-4,-4,0
1558434758673427,-1,-1,1,-4,0,-1,-4,-4
1558434758673427,-2,-3,-5,9,3,2,-3,-1
1558434758681378,-1,-1,0,3,-5,-3,1,-1
1558434758681378,0,2,1,-2,3,0,3,1
1558434758690352,-1,-3,-10,-14,-7,-6,-4,0
1558434758690352,-1,-2,1,3,-4,-2,-2,-5
1558434758704325,-4,-5,-6,-16,-8,-4,-5,-3
1558434758704325,2,1,2,7,5,10,7,2
1558434758711305,0,2,2,-3,11,6,1,1
1558434758711305,1,2,3,7,11,4,1,3
1558434758727254,-3,-5,-9,-14,-14,-4,-5,-3
1558434758727254,-2,-3,2,4,-10,-10,-8,-6
1558434758733246,1,-3,-2,3,0,2,2,0
1558434758733246,1,4,4,2,8,1,4,2
1558434758750201,0,2,6,4,4,1,0,0
1558434758750201,-2,-2,-6,-4,-4,-3,-4,0
1558434758751190,-1,-2,0,15,-9,-2,-4,-4
1558434758751190,-3,-5,-13,-17,-9,-7,-4,-7
1558434758764155,1,-2,-4,-16,-2,4,6,3
1558434758764155,2,3,6,13,16,5,5,3
1558434758771137,-2,-4,-10,-14,-7,-6,-6,-2
1558434758771137,-2,-3,6,10,-6,-4,-4,-4
1558434758787101,-1,-2,-4,-3,-5,-1,-2,0
1558434758787101,1,3,7,-9,15,10,3,0
1558434758794075,-1,2,0,10,1,-1,1,1
1558434758794075,1,3,4,-5,0,-3,-3,1
1558434758810031,-6,-7,-14,-16,-13,-9,-7,-6
1558434758810031,0,-4,-8,-9,-5,-3,-2,-1
1558434758811028,1,-2,2,-3,1,-1,0,0
1558434758811028,1,0,-2,-1,-4,-2,0,1
1558434758823995,1,4,9,17,9,3,-3,-3
1558434758823995,-3,-3,-5,-7,-4,0,-2,-2
1558434758838962,-2,-4,3,0,-5,-5,-5,-1
1558434758838962,5,4,8,25,19,7,12,7
1558434758846940,0,-4,-10,-10,4,6,-3,-3
1558434758846940,-3,-5,0,-2,-17,-10,-10,-7
1558434758853916,-1,0,-6,-18,-12,-16,-6,0
1558434758853916,1,1,5,16,23,20,12,7
1558434758869875,1,4,5,10,9,-2,4,4
1558434758869875,-3,-5,-10,-9,-9,-7,-2,-3
1558434758871867,-3,-3,-8,-7,1,-3,-5,-6
1558434758871867,-5,-3,5,-3,-23,-10,-9,-8
1558434758883860,3,4,2,16,15,12,8,5
1558434758883860,-2,0,-8,-5,-4,-1,0,2
1558434758892816,-2,-2,12,22,2,-6,-4,-4
1558434758892816,-6,-12,-22,-43,-23,-8,-8,-6
1558434758906772,-3,-3,1,-1,-8,-6,-5,-3
1558434758906772,2,4,9,3,7,5,5,3
1558434758913754,0,-1,-6,-4,5,5,3,2
1558434758913754,0,-1,5,12,3,-3,-1,-1
1558434758929715,2,1,1,-1,-2,-4,-4,-3
1558434758929715,1,1,4,3,2,2,3,1
1558434758931709,-4,-3,-6,-11,-3,-3,-1,-1
1558434758931709,-2,-2,-1,2,-10,-2,-2,-3
1558434758943675,-2,2,10,9,9,4,3,2
1558434758943675,-4,-3,-4,4,1,-3,-4,-1
1558434758952649,3,5,13,14,1,6,0,2
1558434758952649,-2,-3,-24,-27,6,5,3,1
1558434758966616,-3,-2,2,5,-5,-8,-4,-3
1558434758966616,1,-1,-1,7,-3,1,-1,-2
1558434758973600,-1,0,0,-3,-5,-1,-2,-2
1558434758973600,1,3,11,21,6,1,2,1
1558434758989558,-5,-5,-6,-9,-2,2,-4,-4
1558434758989558,1,-1,-4,-5,3,1,-1,-2
1558434758991545,0,1,2,1,-4,-2,4,2
1558434758991545,-4,-4,-10,-16,-11,-8,-10,-6
1558434759003526,1,0,1,11,6,1,6,3
1558434759003526,0,0,-1,-11,1,-5,-4,-1
1558434759012489,1,-1,0,1,7,7,-1,-4
1558434759012489,1,2,-2,-5,2,6,2,2
1558434759026453,-5,-7,-6,-3,-6,-9,-7,-5
1558434759026453,0,1,1,0,-9,-13,-4,1
1558434759033433,1,0,1,5,5,16,9,1
1558434759033433,-3,0,0,-13,-2,-7,-4,-2
1558434759050390,0,1,5,2,-5,0,-1,-3
1558434759050390,1,1,0,5,7,7,3,3
1558434759051388,-1,-2,-7,-12,-1,-5,-4,-3
1558434759051388,-4,-1,-1,1,-18,-16,-10,-6
1558434759064350,2,4,7,12,8,8,8,3
1558434759064350,-2,-3,-9,-10,6,2,0,0
1558434759072330,2,1,9,17,8,5,3,-1
1558434759072330,-1,-4,-9,-33,-10,4,2,-1
1558434759086294,-2,-3,-4,2,-10,-19,-7,-5
1558434759086294,-2,-2,5,18,-2,-1,-2,-3
1558434759093310,-1,-1,-8,-12,6,4,1,2
1558434759093310,-1,-3,-6,6,3,1,-5,-3
1558434759110233,1,-1,-4,-16,-4,-6,-1,-2
1558434759110233,-2,-1,-3,4,-8,-8,-5,-1
1558434759111226,-1,-1,1,12,6,5,0,2
1558434759111226,0,-1,1,-9,-2,-4,0,2
1558434759123222,-5,-4,-10,-10,-10,-4,-7,-4
1558434759123222,-3,-5,-6,-7,-7,-3,-2,-5
1558434759132170,0,1,-3,-6,-3,-7,-1,0
1558434759132170,-1,0,4,11,3,-2,0,0
1558434759147132,2,1,1,4,3,5,-1,2
1558434759147132,-3,1,4,2,2,1,1,0
1558434759154113,-3,-2,-5,-11,-6,-1,-2,-1
1558434759154113,1,1,7,17,12,3,0,-1
1558434759170069,-2,-3,-6,6,1,-1,2,-1
1558434759170069,-5,-4,-5,-24,-10,-7,-5,-3
1558434759171068,-2,-3,-2,2,1,0,-1,0
1558434759171068,0,-1,3,2,3,1,-3,0
1558434759184030,2,1,2,-1,-1,0,1,0
1558434759184030,1,-2,-2,-2,-1,0,1,-1
1558434759192185,0,2,4,3,-1,-2,-1,-2
1558434759192185,-4,-3,-11,-8,-5,-1,-1,-4
1558434759206969,-2,2,5,-1,4,4,0,0
1558434759206969,1,-2,-6,-5,-2,0,1,-1
1558434759213951,-3,-5,-3,-3,-8,-7,-5,0
1558434759213951,2,1,4,-2,5,4,0,-1
1558434759229910,-1,-3,-6,-8,-2,0,-1,-1
1558434759229910,-2,-1,3,5,0,0,-3,-2
1558434759230925,-2,0,0,4,-3,-5,-2,-2
1558434759230925,0,1,-2,5,0,1,4,2
1558434759243872,0,-1,5,1,-2,1,2,-1
1558434759243872,-1,-1,-4,-11,-4,-1,-3,-2
1558434759252848,0,-2,-5,-2,-3,-2,-1,-2
1558434759252848,-2,-1,2,4,-1,-4,-1,0
1558434759266812,-1,0,-7,-5,1,0,-3,0
1558434759266812,-1,-1,6,12,4,1,1,-3
1558434759273790,-2,-2,-3,-11,-2,-4,-1,-1
1558434759273790,1,0,2,3,-4,-3,-1,-2
1558434759289749,1,-3,-1,2,3,2,0,-1
1558434759289749,0,-1,-2,1,1,1,-1,2
1558434759291743,1,0,-6,-5,-4,0,-3,-2
1558434759291743,0,2,3,8,1,0,-2,0
1558434759303721,-4,-3,0,0,-5,-1,-3,0
1558434759303721,0,0,8,13,2,-2,0,0
1558434759312689,-3,-3,-14,-17,-2,-3,-2,-4
1558434759312689,-1,-2,-1,3,2,1,0,-1
1558434759326650,0,0,1,6,-1,-2,-1,-1
1558434759326650,-2,-1,-4,-16,-4,-1,-1,-2
1558434759333632,-2,0,5,4,-1,1,1,1
1558434759333632,0,0,-2,-3,-4,-1,-2,-2
1558434759350585,1,2,3,6,2,-1,-1,-3
1558434759350585,-2,-3,-9,-5,-6,-4,0,-2
1558434759351587,0,0,7,9,2,-2,0,0
1558434759351587,-2,-2,-7,0,2,1,-2,0
1558434759363550,-1,-3,-1,-9,-4,-2,-1,-1
1558434759363550,0,2,3,12,5,3,0,-2
1558434759372526,-1,-2,-3,-9,-2,0,0,0
1558434759372526,-4,-5,-4,-2,-4,-4,-2,-2
1558434759386489,0,0,0,-4,3,1,-1,2
1558434759386489,-3,-2,-6,-10,-6,-3,-1,0
1558434759393505,-2,-3,-1,5,2,-2,-2,-1
1558434759393505,-1,0,5,3,0,-1,2,-1
1558434759410426,0,0,0,-3,-2,-1,-1,-4
1558434759410426,0,0,5,11,0,-1,0,-1
1558434759411424,1,1,4,9,5,5,1,-1
1558434759411424,1,-2,-3,-9,-3,-3,-2,-2
1558434759423389,-7,-3,-6,-5,-4,0,-2,-4
1558434759423389,-1,1,3,12,3,0,0,0
1558434759432367,-1,0,3,1,-3,-2,0,0
1558434759432367,-1,-3,-4,-11,-1,-2,-1,0
1558434759446342,-1,-4,-8,8,0,-2,-2,-2
1558434759446342,-2,-2,0,-8,1,5,0,-1
1558434759453349,1,2,1,0,-3,0,1,1
1558434759453349,2,2,8,11,3,1,-1,-2
1558434759469372,-1,0,-5,-9,-2,-1,-2,-1
1558434759469372,-1,-1,1,1,0,-4,-4,0
