timestamp,emg1,emg2,emg3,emg4,emg5,emg6,emg7,emg8
1558434739333519,3,0,3,-1,0,-2,1,1
1558434739333519,-1,-1,-5,-10,-1,1,4,1
1558434739334515,1,1,5,5,2,0,-3,-1
1558434739334515,0,1,7,17,1,-1,0,0
1558434739335513,-3,-3,-13,-22,-7,-4,-2,-2
1558434739335513,1,0,2,-6,-3,-3,-2,0
1558434739336511,1,-1,-2,-4,-4,-5,-4,-2
1558434739336511,0,0,4,1,6,5,3,0
1558434739346483,0,2,-1,-2,-3,0,-1,0
1558434739346483,-1,0,0,9,8,3,3,-2
1558434739356457,-3,-3,-2,-6,-5,-3,-3,-3
1558434739356457,-1,-1,-3,-1,-5,-5,-4,0
1558434739361443,2,1,0,-4,-1,6,2,1
1558434739361443,-2,0,1,0,7,-3,-1,0
1558434739377400,0,2,-3,-6,-3,0,1,1
1558434739377400,-3,-2,3,17,-2,-5,-3,-2
1558434739385378,-3,-4,-18,-21,-10,-6,-4,-4
1558434739385378,0,-1,7,15,2,6,3,1
1558434739392360,2,2,4,6,12,10,6,3
1558434739392360,-3,-3,-5,1,-9,-11,-6,-3
1558434739407320,-2,-1,2,-2,-1,-3,-5,-2
1558434739407320,1,-3,-10,-33,-9,0,-1,-1
1558434739415300,0,-3,-2,7,6,3,2,-1
1558434739415300,0,-1,-4,-10,0,1,0,-1
1558434739455193,-2,1,-3,0,-1,-3,-2,0
1558434739455193,0,0,3,8,1,-2,-1,-4
1558434739456189,-2,-1,-4,-16,-9,-3,-1,0
1558434739456189,-1,-1,-1,1,0,-1,-2,0
1558434739456189,-2,0,5,3,4,1,1,1
1558434739456189,-2,-4,-9,-5,-7,-7,-1,1
1558434739460179,2,-1,0,0,0,-4,-2,-2
1558434739460179,1,1,-1,11,2,-2,-1,-1
1558434739467161,-1,-4,-4,-10,-10,0,-2,-3
1558434739467161,1,1,3,5,3,-7,-4,-3
1558434739475139,-1,-2,-3,3,3,5,3,0
1558434739475139,0,1,2,-1,1,4,2,1
1558434739482121,0,-1,2,9,4,6,2,-2
1558434739482121,-1,1,-2,-13,0,5,0,0
1558434739497081,-3,1,2,11,-1,-7,-4,-3
1558434739497081,-3,-3,0,-5,-6,-6,-1,-2
1558434739504062,-1,-1,-2,-7,2,2,-1,0
1558434739504062,0,-2,3,8,-1,1,1,2
1558434739512040,-2,-2,-5,-13,-1,0,1,-1
1558434739512040,-2,-2,-1,3,0,-4,-1,0
1558434739527000,-1,-2,-1,-7,-13,-10,-5,-3
1558434739527000,-3,-2,-6,-4,-1,-2,-2,-1
1558434739534980,1,-1,2,10,1,5,1,2
1558434739534980,-3,0,-5,-11,-5,-3,-1,-2
1558434739541960,0,0,3,8,1,-8,-3,-1
1558434739541960,-2,2,5,4,3,5,0,-2
1558434739556920,-3,-1,-3,-9,-2,1,-2,-2
1558434739556920,0,0,-1,-4,0,2,0,0
1558434739563901,0,-1,2,14,7,3,3,2
1558434739563901,0,-1,-2,-3,-2,-5,-1,1
1558434739571879,-1,-1,0,-8,-1,3,3,-1
1558434739571879,-1,-3,-2,-1,-6,-5,-5,-2
1558434739586841,-1,-2,-5,-7,-6,-6,-2,-3
1558434739586841,-1,1,7,14,1,0,0,-1
1558434739593822,1,2,1,3,8,7,4,2
1558434739593822,-2,-3,-2,-1,-10,-5,-1,0
1558434739602796,-3,-4,-8,-9,-3,1,1,-3
1558434739602796,-1,0,-3,-12,-6,-6,-5,-2
1558434739617757,0,-1,6,10,2,-1,-1,1
1558434739617757,-3,0,1,3,2,5,-1,-3
1558434739623745,-2,1,0,4,5,2,1,0
1558434739623745,-1,-2,-3,2,0,-2,-1,-3
1558434739631720,-2,-2,-3,-6,-7,-8,-4,-3
1558434739631720,-2,-5,-9,-7,-7,-7,-3,-3
1558434739646681,-2,1,-1,-8,-7,-1,-4,-3
1558434739646681,0,1,1,10,9,14,6,3
1558434739654659,0,3,1,0,11,3,2,2
1558434739654659,0,-3,0,-1,2,3,0,1
1558434739662637,-3,-1,-7,-11,-4,-5,-4,-1
1558434739662637,-1,-3,-1,-8,-11,-5,-1,-1
1558434739677597,1,0,0,-3,-3,1,0,-2
1558434739677597,-2,-2,-5,-8,-6,-6,-4,-4
1558434739684578,1,1,4,3,1,2,1,-3
1558434739684578,-1,1,1,12,10,2,1,1
1558434739691560,-2,-2,-5,-11,-4,-4,-2,-2
1558434739691560,2,1,4,1,9,5,2,0
1558434739706520,-3,-4,-5,-8,-11,-8,-5,-2
1558434739706520,-4,-4,-5,-9,-10,-5,-5,-4
1558434739714499,-2,-3,-1,4,-5,-5,-2,-2
1558434739714499,2,1,6,16,12,1,1,1
1558434739723474,0,-1,0,1,-3,6,1,1
1558434739723474,0,-1,-2,-8,-3,-3,0,-1
1558434739737439,-2,0,7,10,0,-7,-2,-2
1558434739737439,1,2,-2,1,-3,0,2,0
1558434739744419,0,0,-2,6,5,5,4,1
1558434739744419,-8,-6,-10,-21,-8,-6,-5,-3
1558434739751402,-3,-2,-2,4,-13,-8,-9,-4
1558434739751402,-3,0,-4,-7,-11,-7,-3,-2
1558434739766360,-1,1,5,6,10,6,5,1
1558434739766360,5,3,3,12,15,7,3,2
1558434739774340,0,0,0,5,4,2,1,3
1558434739774340,-4,-5,-4,-2,-4,-3,-1,-2
1558434739783315,1,-2,-5,-16,-12,-9,-5,-1
1558434739783315,0,-4,-2,-8,-3,-3,-3,-4
1558434739797277,0,-2,-3,-1,-8,-7,-1,-1
1558434739797277,0,1,3,3,4,4,-1,-1
1558434739804258,-2,-3,-3,-1,3,2,-2,-2
1558434739804258,-2,1,4,15,11,8,2,1
1558434739820219,0,0,-9,-32,-4,4,4,2
1558434739820219,-3,1,6,9,-1,1,-3,-2
1558434739827198,-2,-2,-7,-8,-2,-8,-3,-4
1558434739827198,1,0,-2,5,-7,-3,-1,-1
1558434739834181,-2,-2,-2,-1,1,0,-4,0
1558434739834181,-4,-4,-5,-8,-3,0,1,0
1558434739843158,-2,-2,2,-6,-10,-9,-9,-4
1558434739843158,-3,-2,0,-3,-9,-7,-5,-2
1558434739857118,5,4,5,11,17,14,14,8
1558434739857118,3,2,5,6,12,8,6,1
1558434739864098,0,2,12,25,11,8,5,2
1558434739864098,-6,-6,-14,-31,-21,-13,-7,-5
1558434739880055,-5,-6,-3,-4,-15,-14,-12,-8
1558434739880055,1,-1,-1,-3,-3,-1,-1,-2
1558434739895014,2,2,3,9,10,6,2,3
1558434739895014,-1,0,0,0,2,2,1,0
1558434739896013,1,-1,-1,0,0,2,1,0
1558434739896013,0,0,1,2,-8,-6,-3,-1
1558434739902993,0,-2,-8,-12,-2,0,2,-1
1558434739902993,-1,2,8,13,9,6,0,1
1558434739916960,-1,0,-5,1,-8,-10,-5,-1
1558434739916960,-3,-7,-5,-4,-2,-5,-6,-5
1558434739923938,-4,-4,-3,-6,-17,-8,-3,-2
1558434739923938,2,0,0,0,9,7,3,1
1558434739939895,2,1,3,9,13,7,2,0
1558434739939895,2,0,0,-1,3,5,4,4
1558434739946877,-2,1,-2,-3,-2,-6,-2,-1
1558434739946877,-1,-4,5,6,-1,-5,-1,-1
1558434739953857,-3,-4,-1,4,-7,-8,-3,-5
1558434739953857,0,0,-5,-16,-11,-5,-4,1
1558434739962834,-1,0,-3,3,7,7,1,-2
1558434739962834,2,1,1,10,7,8,5,2
1558434739977793,-1,2,-1,-11,-1,-1,-1,-1
1558434739977793,-1,-2,-2,4,3,-3,1,0
1558434739983779,-2,-3,-1,-1,-11,-8,-4,-1
1558434739983779,-4,-3,-6,-4,-7,-9,-5,-3
1558434739999736,-4,-1,-3,-5,-6,1,-4,-3
1558434739999736,-2,-3,-4,3,-3,-4,-3,-1
1558434740006718,1,0,6,4,7,2,0,1
1558434740006718,2,0,0,-4,7,6,4,1
1558434740014696,-3,-4,-7,-4,1,1,-1,-3
1558434740014696,-2,0,-2,-8,-7,2,-1,-3
1558434740022676,2,0,-1,1,0,-3,-1,-2
1558434740022676,-1,0,0,-2,-12,-6,-2,-3
1558434740037635,-2,-1,4,12,1,-1,-3,1
1558434740037635,-2,-4,-14,-38,-8,-1,-2,-2
1558434740044618,0,0,6,9,14,10,7,4
1558434740044618,1,0,-2,-8,0,-1,-1,1
1558434740059575,1,-2,3,10,-3,-3,-1,0
1558434740059575,-1,1,1,7,-2,-7,-3,1
1558434740066557,-2,0,-3,-7,3,2,0,0
1558434740066557,-1,-1,-2,-2,-4,1,-1,-1
1558434740074535,-1,-1,-2,-5,-1,-2,-5,-4
1558434740074535,-2,-2,3,2,-4,-2,-3,-4
1558434740083512,1,0,-2,-3,-5,-9,-2,0
1558434740083512,0,2,4,11,4,-1,3,-1
1558434740097474,-2,-3,-4,1,-3,-3,-2,0
1558434740097474,0,1,1,-8,-2,2,2,-1
1558434740104456,1,-3,-2,2,7,9,2,1
1558434740104456,-1,-3,2,-2,-6,-6,-3,-2
1558434740119416,-1,-2,-9,-11,2,2,-2,-1
1558434740119416,-1,-1,1,8,-2,-8,-4,-2
1558434740135373,-3,-2,-2,-1,-9,-11,-5,-3
1558434740135373,0,0,-7,-7,5,3,6,2
1558434740135373,-1,0,3,-3,4,5,3,1
1558434740135373,1,1,2,5,5,3,2,1
1558434740149336,-3,-2,-3,-4,-11,-7,-6,-2
1558434740149336,-1,-2,-2,-5,-3,-4,-2,-1
1558434740157320,-1,-1,-1,0,-4,0,1,0
1558434740157320,1,-1,0,7,1,1,0,-1
1558434740164296,-1,-2,-1,-8,-9,-6,-4,-4
1558434740164296,-1,0,1,7,-8,-3,-5,-4
1558434740180253,1,-1,-2,-13,-1,3,4,0
1558434740180253,3,3,10,18,23,9,7,6
1558434740186237,-3,-3,-3,4,-1,-1,1,0
1558434740186237,-1,-2,-2,-10,-11,-3,-4,-2
1558434740194215,-5,-2,5,12,-10,-8,-9,-5
1558434740194215,-1,-2,-6,-23,-2,-3,-1,1
1558434740209175,1,-1,5,15,11,13,7,4
1558434740209175,0,-3,-8,-14,4,4,3,3
1558434740217155,1,0,0,3,1,1,2,-1
1558434740217155,-1,0,0,-2,-1,-6,-4,-5
1558434740224136,0,1,2,11,-6,-4,-4,-3
1558434740224136,-3,-4,-6,-12,-6,-7,-3,-3
1558434740240093,-1,2,-1,-4,0,1,0,1
1558434740240093,-3,0,0,8,2,4,-2,-1
1558434740247074,-1,-3,-5,-6,1,1,0,-2
1558434740247074,-2,-4,0,5,-2,-6,-5,-4
1558434740262034,2,-1,-4,-13,2,0,1,0
1558434740262034,-1,-1,-2,2,1,1,-1,-2
1558434740269015,-1,0,-1,-4,-4,4,-1,-1
1558434740269015,-3,0,3,1,-3,-3,0,0
1558434740276993,-2,-2,5,7,-2,-4,-4,-3
1558434740276993,1,-2,-2,10,-5,-1,-5,-3
1558434740283975,-2,-2,-9,-15,3,4,4,3
1558434740283975,1,1,2,11,7,7,2,1
1558434740299933,-3,-2,-10,-12,-2,-6,-1,-2
1558434740299933,0,-1,0,-1,-2,1,-2,-2
1558434740306914,-2,-3,0,-7,-10,-9,-9,-6
1558434740306914,1,0,0,1,-4,-2,2,-1
1558434740313896,2,2,3,7,6,4,3,2
1558434740313896,-1,-2,-2,0,3,2,-1,-2
1558434740328855,1,0,0,1,-4,-7,-3,0
1558434740328855,-5,-4,-9,-12,-9,-4,-6,-4
1558434740337831,1,0,1,-1,5,10,6,2
1558434740337831,-4,-1,-1,0,-1,-5,0,-1
1558434740343816,-1,3,0,-5,0,-5,-1,-1
1558434740343816,-2,-2,3,1,-2,-1,-6,-3
1558434740359773,0,-2,-2,-1,0,-3,-2,0
1558434740359773,-1,-4,-2,4,-6,-3,2,1
1558434740366754,-1,-4,-6,-12,1,3,2,-1
1558434740366754,0,1,6,11,2,5,2,2
1558434740373735,-4,-4,-5,-8,-6,-3,-7,-3
1558434740373735,-1,0,-2,-6,-3,-3,-2,-2
1558434740389693,0,-2,-3,4,-3,-10,-5,-3
1558434740389693,0,-1,0,-3,-4,-2,-1,-2
1558434740397671,-1,-2,0,8,1,0,-1,0
1558434740397671,-2,-1,-2,-6,-7,-5,-5,-2
1558434740404651,-1,0,-7,-18,-5,2,2,2
1558434740404651,0,1,-9,-11,6,0,4,1
1558434740427591,0,-2,2,1,1,-7,-2,-2
1558434740427591,-1,-1,0,-3,-5,-8,-7,-2
1558434740429586,-2,-2,4,9,-3,1,2,-1
1558434740429586,0,-1,3,2,6,10,1,-1
1558434740442550,1,3,1,-7,-1,-1,-3,-3
1558434740442550,-3,-5,-5,-2,-3,-3,-1,-4
1558434740449532,1,-3,0,6,1,-3,-3,-4
1558434740449532,2,0,-1,0,6,-5,4,4
1558434740465490,-2,-3,-2,-1,1,0,-1,-1
1558434740465490,0,0,2,6,4,7,1,3
1558434740466487,0,-2,-2,-8,-1,-3,-4,-1
1558434740466487,-2,-1,2,7,-7,-10,-7,-4
1558434740479451,0,-1,3,4,-4,0,-1,-4
1558434740479451,-1,-2,-6,-4,0,-1,4,0
1558434740486433,0,1,1,-6,0,1,1,0
1558434740486433,-2,0,-9,-5,-3,-2,-1,0
1558434740502390,-2,-2,-1,5,-1,-2,-3,0
1558434740502390,0,0,0,1,-1,0,-2,-3
1558434740509371,-2,2,3,2,-4,3,0,0
1558434740509371,-2,-5,-4,-9,0,-2,-4,-5
1558434740525329,1,-2,-5,-4,-6,1,1,-1
1558434740525329,0,2,4,6,14,10,6,4
1558434740527324,-2,-2,-2,2,3,-4,0,-1
1558434740527324,1,-1,-2,-5,-4,1,-1,0
1558434740540304,-1,-2,-3,0,-6,-8,-4,-1
1558434740540304,-1,2,1,-2,-1,1,0,-1
1558434740546274,-2,-2,-5,-4,-7,-4,-6,-4
1558434740546274,-2,-2,4,-2,-4,-4,-3,-3
1558434740562230,-3,1,0,-1,3,3,6,0
1558434740562230,1,2,3,3,1,-2,2,2
1558434740569212,0,0,1,3,5,2,0,0
1558434740569212,-3,-1,-3,4,-7,-3,-7,-3
1558434740585168,-2,-1,-2,-15,-6,0,0,1
1558434740585168,0,-1,-2,-3,3,5,2,2
1558434740587163,0,-1,5,4,-1,2,-1,0
1558434740587163,-2,-5,-5,5,2,-1,-3,-5
1558434740600130,-2,-3,-8,0,-6,-4,-5,-3
1558434740600130,-2,-2,-3,-2,-6,-2,-1,1
1558434740607112,1,0,1,5,9,4,4,2
1558434740607112,0,1,-3,-3,-5,-4,-1,1
1558434740623102,1,1,2,1,3,-5,-3,-2
1558434740623102,-1,-1,2,3,-3,-1,-4,-3
1558434740631047,-3,-3,-6,-7,-9,-9,-5,-1
1558434740631047,-2,-2,5,-5,-6,-3,-2,-2
1558434740645009,-3,-2,3,2,6,4,2,1
1558434740645009,-1,-2,-2,-5,-6,-6,-4,-3
1558434740647004,1,-1,-2,2,4,8,3,1
1558434740647004,-1,2,-2,-3,3,5,1,0
1558434740659969,0,1,5,3,-1,-8,-2,0
1558434740659969,0,-3,-5,-10,-3,1,2,-1
1558434740666950,1,2,3,3,-3,-5,-4,-3
1558434740666950,-2,-4,3,9,5,4,0,0
1558434740681913,0,-2,-4,4,2,6,2,1
1558434740681913,-2,-4,-6,-8,-5,-7,-3,-4
1558434740688893,-1,-2,-3,-16,-7,-5,-2,-3
1558434740688893,1,0,-3,-3,1,0,1,-1
1558434740705846,-1,1,2,-2,-6,-6,-3,-3
1558434740705846,-3,-2,2,4,-2,-1,-5,-2
1558434740706844,-2,-3,0,6,7,2,2,1
1558434740706844,0,-1,-4,-6,-7,-4,-1,1
1558434740719812,0,-1,-1,1,3,2,1,1
1558434740719812,0,-1,-1,-4,-2,-1,-2,1
1558434740726790,-1,-1,1,6,6,8,4,0
1558434740726790,0,0,0,-2,-4,-4,-4,0
1558434740744742,-4,-3,-3,0,-8,-7,-4,-4
1558434740744742,0,1,0,-3,3,-2,1,-1
1558434740748732,0,2,2,9,1,3,1,1
1558434740748732,2,1,-2,-4,7,4,2,1
1558434740765687,-3,-2,-2,-8,1,3,-1,-1
1558434740765687,-2,-3,-8,-8,-6,0,-2,-2
1558434740766684,-1,-1,-1,1,-2,-4,-3,-3
1558434740766684,1,0,3,3,-3,-5,0,-3
1558434740779648,-2,-3,-5,-7,-5,-7,-6,-2
1558434740779648,1,-1,1,3,7,7,4,2
1558434740786630,3,1,-1,1,1,-1,0,2
1558434740786630,-2,-3,2,1,-4,-5,-1,-2
1558434740802587,-2,-3,-6,0,2,3,0,-3
1558434740802587,2,0,0,6,3,-2,3,2
1558434740809569,-1,0,0,-5,-3,1,-2,0
1558434740809569,-5,-4,-11,-7,-3,2,-3,-4
1558434740825525,3,3,1,-13,-2,-4,1,1
1558434740825525,0,1,2,2,3,-2,1,1
1558434740826524,-1,-1,-1,-2,2,4,-1,0
1558434740826524,0,1,4,2,1,4,0,0
1558434740839501,-3,-2,4,12,-2,-7,-3,-2
1558434740839501,-3,-2,-10,-16,-11,-9,-6,-3
1558434740848467,-2,-5,-3,-3,-5,-9,-1,-2
1558434740848467,0,0,0,2,5,8,2,0
1558434740862427,-1,-2,-4,7,11,14,6,4
1558434740862427,1,0,8,9,-1,0,0,-2
1558434740869408,-4,-1,-4,-7,-5,-15,-5,-2
1558434740869408,-1,-1,1,1,-4,-3,1,2
1558434740885366,-1,-2,-6,-12,-4,-1,0,-1
1558434740885366,-1,-1,1,-3,9,5,-1,0
1558434740887370,-2,-1,-1,5,-3,4,-1,0
1558434740887370,0,0,4,1,-6,-7,-4,-5
1558434740899329,-1,0,-3,-9,-5,-4,-4,-2
1558434740899329,-2,-2,-1,3,0,1,-1,-2
1558434740908304,1,0,0,2,8,4,5,2
1558434740908304,-1,0,0,3,2,-3,2,1
1558434740923270,0,0,4,0,2,-5,-5,-1
1558434740923270,-1,-2,-2,2,-11,-8,-6,-5
1558434740929256,-2,-2,-2,3,-10,-3,-4,-4
1558434740929256,0,-3,3,9,-1,-6,-4,-3
1558434740945268,2,-2,-6,-25,-1,5,3,1
1558434740945268,-1,4,4,7,12,6,4,4
1558434740947207,-1,-1,-1,2,1,2,-1,-1
1558434740947207,-2,-1,0,2,-3,0,0,2
1558434740959234,0,-1,0,-1,-12,-5,-5,-3
1558434740959234,-3,-4,-13,-8,-2,-1,-2,-2
1558434740968149,0,0,0,-3,1,-1,-4,-3
1558434740968149,-1,0,-3,-11,2,3,0,-2
1558434740982110,0,0,6,14,6,1,4,3
1558434740982110,-1,1,7,18,1,-3,-2,-2
1558434740997170,-2,-3,-10,-26,-12,-4,1,-2
1558434740997170,-1,-1,-4,-4,-7,-5,-6,-4
1558434741006047,-1,0,-4,0,-5,-6,-4,-3
1558434741006047,-1,0,3,3,4,4,0,1
1558434741007045,1,0,1,3,6,7,3,3
1558434741007045,-2,-2,-1,-1,1,-3,0,1
1558434741019011,-2,-2,1,6,-4,-5,-4,-3
1558434741019011,-2,-2,1,-2,-4,-6,-1,1
1558434741028203,-1,-1,-4,-8,5,1,5,1
1558434741028203,0,0,1,-3,2,7,0,0
1558434741042981,1,-1,-1,5,6,3,3,0
1558434741042981,-1,-2,0,1,-8,-4,-2,-3
1558434741048931,-3,-3,-7,-17,-7,-7,-6,-3
1558434741048931,1,-1,-3,-5,-1,-2,-2,-2
1558434741064887,2,3,5,11,11,12,4,3
1558434741064887,-3,-4,-15,-23,-7,-1,1,0
1558434741071869,0,-2,2,7,-7,-7,-3,1
1558434741071869,-2,-3,-7,-7,-6,-4,-3,-3
1558434741078850,-2,-1,3,3,0,-1,-3,-2
1558434741078850,1,1,0,-4,1,1,2,-1
1558434741087852,-2,-1,1,6,-5,-6,-4,-3
1558434741087852,-2,-3,-5,3,-5,1,-2,-1
1558434741102786,-1,1,3,-5,4,-3,1,0
1558434741102786,1,2,2,0,8,0,-1,-1
1558434741108805,0,0,-6,-2,1,6,0,0
1558434741108805,-3,-2,1,-4,-5,-7,-1,-3
1558434741124725,-3,-2,-1,-2,-9,-7,-6,-3
1558434741124725,-1,-1,4,12,-1,-2,-3,-2
1558434741131707,-4,-1,-3,-8,-1,0,-1,-1
1558434741131707,0,-2,0,8,13,14,4,1
1558434741138721,-1,-2,-2,-3,-6,-3,1,-1
1558434741138721,2,0,4,6,8,7,4,0
1558434741147664,0,-2,0,-3,-2,-4,-1,-1
1558434741147664,-4,0,3,1,-5,-6,-3,-2
1558434741162626,-1,0,-6,-10,-3,-5,-4,0
1558434741162626,-2,-1,-1,-3,-3,1,1,-1
1558434741169605,-1,-3,4,17,4,2,-2,-3
1558434741169605,0,1,-1,-8,-4,-4,-3,0
1558434741184567,-2,-1,-1,-3,3,4,3,1
1558434741184567,-2,1,-6,-2,-2,-8,-1,0
1558434741191590,-3,-1,-9,-13,-7,-4,-4,-4
1558434741191590,2,2,2,8,8,3,3,2
1558434741199525,-2,-1,-2,0,-4,1,-3,-3
1558434741199525,-2,-2,-1,-3,-4,-4,-4,-3
1558434741208503,-1,-1,4,1,-2,-4,-3,-2
1558434741208503,-4,-5,-3,2,-5,1,-3,-2
1558434741222466,0,0,-5,-6,-7,-1,2,1
1558434741222466,0,0,0,4,11,1,1,1
1558434741229508,2,1,2,-3,8,4,2,1
1558434741229508,-1,-2,-1,-5,-3,0,-2,-1
1558434741244465,-2,-2,-1,2,-4,-5,-3,-1
1558434741244465,-4,-4,-4,-8,-15,-10,-8,-5
1558434741251389,-2,-2,3,11,-2,-1,1,-2
1558434741251389,1,2,0,2,9,0,2,3
1558434741268342,-1,-2,-7,-4,-1,6,3,1
1558434741268342,-1,-1,-3,-5,-2,5,0,-1
1558434741269340,1,0,5,9,6,1,-3,0
1558434741269340,-2,0,-5,-10,-9,-10,-6,-3
1558434741282341,-2,-2,2,3,-6,-14,-5,-2
1558434741282341,1,0,5,9,8,9,5,3
1558434741289312,-3,-2,-6,-16,-6,3,0,-2
1558434741289312,-1,0,2,4,0,0,0,-2
1558434741305242,-1,-2,-2,2,3,1,-3,-2
1558434741305242,-3,-4,-2,-6,-8,-8,-5,-4
1558434741311228,-1,-1,5,10,5,3,0,1
1558434741311228,-1,-2,-4,-12,-7,-1,1,-1
1558434741328217,-1,0,-2,1,0,-3,-1,-2
1558434741328217,1,0,-2,-1,-7,-4,-1,2
1558434741329180,-2,0,-4,1,-3,-2,0,0
1558434741329180,-1,-1,-1,-1,4,2,-3,-4
1558434741342146,-1,-1,2,9,3,4,1,-2
1558434741342146,0,-1,-2,-11,-3,-1,-1,1
1558434741349152,2,3,2,10,6,-1,-1,1
1558434741349152,-2,-2,-6,-5,-9,-7,-7,-2
1558434741365082,-2,-2,-5,-7,-5,-2,-3,-2
1558434741365082,-1,1,0,-9,1,3,4,2
1558434741372091,-2,-1,0,3,1,-7,-5,-3
1558434741372091,0,-1,4,9,7,3,4,2
1558434741388201,3,2,4,9,14,10,7,4
1558434741388201,-2,-2,-2,-1,-6,-2,-5,-3
1558434741390035,-2,-1,0,-8,-7,-3,0,-4
1558434741390035,0,0,0,5,-7,-5,-4,-4
1558434741403247,-4,-5,-4,0,-7,-10,-7,-3
1558434741403247,0,2,4,10,2,3,2,2
1558434741409268,-3,-1,-12,-11,-2,-3,2,1
1558434741409268,-1,-2,1,6,8,7,1,0
1558434741432932,0,0,2,-8,1,1,-1,1
1558434741432932,-1,-2,0,3,-5,-6,-6,-2
1558434741434896,-1,-2,2,1,-4,-9,-3,-1
1558434741434896,0,0,-5,-10,-2,1,2,-1
1558434741447864,-1,-1,4,10,5,3,1,0
1558434741447864,-2,-1,-10,-1,-3,1,-3,-4
1558434741449856,3,2,5,6,1,0,-1,-1
1558434741449856,0,-1,2,-4,-1,2,4,1
1558434741463100,-1,-2,-5,-8,0,0,0,1
1558434741463100,0,-1,-2,-6,0,-4,-2,-3
1558434741468806,-2,-2,-3,-3,-2,0,0,0
1558434741468806,-2,0,-1,6,-2,-1,-2,-1
1558434741485801,-1,0,-1,-8,-12,-9,-6,-2
1558434741485801,-2,-3,-2,-4,3,4,-2,-2
1558434741492250,0,-5,-1,2,0,0,-1,0
1558434741492250,-2,-3,-8,-8,1,-2,-1,-1
1558434741508890,-2,-1,0,-1,0,3,2,0
1558434741508890,-1,-2,-4,-7,-5,-10,-4,0
1558434741509700,-1,0,4,1,-6,-4,-3,0
1558434741509700,-3,0,-1,-8,-3,2,0,0
1558434741522964,1,1,2,8,1,2,0,-3
1558434741522964,-1,1,6,7,7,2,0,-1
1558434741529951,0,-1,-5,-5,-5,-4,-1,-1
1558434741529951,1,-1,-1,-4,-1,-4,0,0
1558434741545631,-1,1,0,7,10,3,1,0
1558434741545631,-2,-2,2,-16,-1,5,1,-2
1558434741551902,-1,-1,-4,-6,-3,0,-1,-2
1558434741551902,-1,-1,2,12,-5,-3,-1,1
1558434741568831,-2,-2,-7,-12,4,0,-1,0
1558434741568831,0,1,2,5,-2,-2,0,-2
1558434741569541,-2,-3,-5,-11,-4,2,-2,-3
1558434741569541,0,-1,4,6,2,0,-3,-1
1558434741582503,0,-2,-1,-3,-7,-8,-6,-2
1558434741582503,-1,0,3,10,1,-4,-2,2
1558434741589800,1,1,2,8,6,5,1,3
1558434741589800,-3,-2,-2,-1,-4,-2,-2,-2
1558434741605734,1,1,2,-8,1,-1,0,2
1558434741605734,-4,-4,-6,-5,-8,-1,-1,-3
1558434741611454,-3,-1,3,1,2,1,3,-1
1558434741611454,2,3,0,-2,5,1,2,1
1558434741627383,-1,-2,-4,-3,-4,-4,-5,-1
1558434741627383,-2,-2,0,1,-8,-3,1,0
1558434741635577,1,-2,-7,-4,8,4,1,2
1558434741635577,-1,-1,-3,-1,4,3,1,1
1558434741642657,-3,-3,-2,-3,-7,-5,-4,-3
1558434741642657,-2,-1,-1,-2,-4,-5,-2,-2
1558434741649322,-2,-1,2,2,-3,1,-1,-2
1558434741649322,-3,-3,-4,-10,-7,-11,-4,-4
1558434741665298,3,1,-2,0,0,6,6,2
1558434741665298,0,1,6,16,12,6,0,0
1558434741671292,-1,-4,1,2,0,-6,0,1
1558434741671292,0,-3,-3,-7,1,1,-2,0
1558434741688219,-1,0,0,0,-2,2,-1,-2
1558434741688219,0,-1,-2,-3,-8,-6,-3,-3
1558434741689216,0,2,6,16,10,-1,-5,-5
1558434741689216,-5,-6,-18,-40,-22,-5,-5,-4
1558434741702181,0,0,-3,-2,4,2,8,3
1558434741702181,2,1,-2,-6,2,-1,1,1
1558434741709164,0,-1,-2,-3,2,3,2,0
1558434741709164,2,2,2,7,1,-1,-1,1
1558434741725191,-2,0,3,9,-1,-1,-5,-4
1558434741725191,-2,-2,-1,-1,2,2,-1,0
1558434741732104,-2,-2,-3,-8,-9,-9,-5,-4
1558434741732104,-1,-2,2,6,-8,-5,-3,-5
1558434741748060,2,0,7,14,8,1,3,2
1558434741748060,0,1,-9,-13,4,1,-1,2
1558434741749058,1,0,0,-3,2,2,-3,0
1558434741749058,-1,0,-1,2,1,0,0,0
1558434741762209,-3,-2,-2,5,-7,-5,-3,-3
1558434741762209,-4,-3,-3,-12,-10,-5,-5,-2
1558434741771056,-3,-3,-9,-14,-4,4,0,0
1558434741771056,-1,-2,-2,2,-1,-6,-2,-3
1558434741785956,-4,-1,-5,-11,-9,-8,-5,-1
1558434741785956,1,-1,4,8,13,10,5,1
1558434741791989,0,1,2,10,5,3,3,4
1558434741791989,0,0,4,-3,3,-2,-2,2
1558434741807033,-1,-2,0,-7,-6,-6,-3,-3
1558434741807033,-1,-3,0,6,-6,-3,-4,-3
1558434741807989,-3,-3,-6,-8,-2,-3,0,-1
1558434741807989,1,-2,-1,7,1,1,-1,0
1558434741829977,-1,-1,-1,-1,3,2,1,-1
1558434741829977,0,0,1,-4,-6,-3,-1,-2
1558434741830942,-3,-3,-6,0,-12,-5,-2,-3
1558434741830942,-2,0,2,3,8,8,2,0
1558434741845886,-2,-1,-1,3,-2,-3,-2,0
1558434741845886,-2,-2,-11,-23,-7,-4,-1,-2
1558434741851924,-2,-2,-3,-6,-4,-6,-4,-3
1558434741851924,2,1,4,2,6,4,4,2
1558434741866859,-2,0,2,4,0,0,0,0
1558434741866859,1,0,1,12,1,0,-2,1
1558434741867827,-2,-1,-1,-4,-1,-4,-5,-2
1558434741867827,-2,0,1,-1,-3,-4,-4,-2
1558434741889769,0,-1,1,9,11,15,7,1
1558434741889769,-3,-3,-2,-2,-9,-10,-4,-1
1558434741890768,0,-1,1,2,-3,4,1,0
1558434741890768,1,3,4,4,0,0,0,1
1558434741905727,-2,-1,-5,-5,2,2,-3,-2
1558434741905727,-1,0,1,8,0,-3,-2,-3
1558434741911761,0,1,-1,-15,-3,0,2,0
1558434741911761,-1,-4,-1,4,3,-1,-3,-2
1558434741927718,-2,-2,2,-5,-7,-4,-6,-2
1558434741927718,-2,-2,-3,0,-1,0,1,-3
1558434741927718,-2,1,7,14,4,-6,-2,0
1558434741927718,1,-2,-11,-20,-3,-2,-1,1
1558434741949712,-1,-2,-3,-8,-3,6,1,0
1558434741949712,0,1,-2,4,-1,1,-1,0
1558434741950712,-2,-1,3,9,-6,-8,-4,-2
1558434741950712,-2,1,-1,-9,2,2,3,2
1558434741965669,0,-1,0,1,-5,-8,-5,-2
1558434741965669,1,0,3,-10,-5,-1,-3,-2
1558434741971703,0,-1,-6,-8,4,2,2,-1
1558434741971703,-2,-3,-1,1,-2,-2,-1,-3
1558434741986665,1,0,0,0,1,1,1,1
1558434741986665,-2,-1,2,5,2,0,-2,-1
1558434741994626,-2,-2,-4,2,0,4,1,0
1558434741994626,1,0,0,8,8,-1,4,0
1558434742009608,-4,-4,-4,-8,-9,-10,-5,-4
1558434742009608,-4,-2,-2,-4,-4,-2,-4,-3
1558434742010551,-2,0,-6,-8,0,5,-2,-1
1558434742010551,-2,-2,8,15,1,-1,-3,-4
1558434742025510,-2,-3,-10,-9,-4,-3,0,0
1558434742025510,1,0,-2,4,4,1,3,2
1558434742031495,-1,-1,-1,1,0,3,-2,-2
1558434742031495,-4,-2,-10,-14,-13,-4,-2,-1
1558434742046566,0,-1,1,2,1,-4,-2,-2
1558434742046566,0,2,8,7,7,0,-2,0
1558434742054535,0,0,-2,3,-4,-6,-2,0
1558434742054535,0,-1,-4,-16,5,6,0,-3
1558434742069464,-3,-2,0,-1,-7,-3,-2,-4
1558434742069464,-4,-3,-3,1,-6,-4,-2,-1
1558434742070461,-1,-1,4,1,2,4,1,-2
1558434742070461,-1,1,1,-3,4,4,4,1
1558434742085421,0,-1,-3,-1,6,-4,-1,2
1558434742085421,2,0,-2,-6,-2,2,1,1
1558434742091406,-2,-1,-1,6,-5,-5,-4,-2
1558434742091406,-2,-3,-3,-11,-8,-3,-4,-4
1558434742106391,0,-2,-2,-1,-1,2,3,-1
1558434742106391,-1,0,-2,-1,3,-2,1,-3
1558434742114345,-1,-1,2,6,3,-2,-1,-2
1558434742114345,-2,-2,-7,-5,-2,-5,-2,-2
1558434742130380,-2,-2,-8,-6,-9,-6,-4,-3
1558434742130380,0,-1,-3,-9,1,0,0,2
1558434742130380,-1,-3,-1,-8,1,4,2,0
1558434742130380,0,0,3,15,5,-3,-2,-1
1558434742145349,1,0,5,-2,-4,-4,-2,-1
1558434742145349,-1,-2,-7,-4,-2,0,-5,-1
1558434742151332,0,0,0,3,0,1,1,-2
1558434742151332,-1,-1,2,3,-2,-1,-1,0
1558434742167201,-1,-3,-3,2,5,6,1,-1
1558434742167201,-3,-1,-7,-10,-3,-2,-2,-2
1558434742174270,0,0,2,1,-2,-4,-1,-1
1558434742174270,-2,1,2,12,-3,-1,-1,-1
1558434742190228,1,1,-1,-7,-1,-2,-2,-1
1558434742190228,-2,-3,-2,-2,-2,0,2,0
1558434742190228,-1,-4,-8,-20,-3,-1,-4,-2
1558434742190228,0,-2,0,3,-6,-2,-2,-1
1558434742206171,0,2,7,9,8,0,-1,0
1558434742206171,1,1,4,6,1,1,1,0
1558434742212289,1,0,-2,-3,-2,0,1,0
1558434742212289,-3,-2,0,3,2,-3,-4,-1
1558434742227191,0,-2,-6,-6,-9,-8,-4,-4
1558434742227191,0,-1,2,17,1,0,0,-2
1558434742234125,0,2,4,-14,2,5,3,3
1558434742234125,-2,-2,2,6,-3,-1,-3,0
1558434742250135,-1,-1,5,16,7,5,3,1
1558434742250135,-3,-4,-12,-26,-12,-5,-5,-2
1558434742250135,0,0,3,3,-1,1,1,0
1558434742250135,1,-1,-3,2,0,0,-1,-1
1558434742266055,-3,-4,-10,-11,-5,-7,-4,-2
1558434742266055,3,3,6,18,9,2,3,1
1558434742272037,-4,-2,-4,-5,0,-2,-1,-3
1558434742272037,-2,-2,2,1,-9,-6,-6,-1
1558434742286994,-3,-1,-4,-9,-10,1,0,-1
1558434742286994,2,1,0,1,19,13,7,4
1558434742294078,-1,1,5,25,5,-3,-1,0
1558434742294078,-3,-1,-9,-36,-1,0,0,0
1558434742309935,-2,-2,-1,-11,-6,0,-1,-2
1558434742309935,-3,-3,2,1,-13,-10,-4,-2
1558434742310930,-1,-2,-1,0,-7,-5,-6,-3
1558434742310930,2,-1,-3,11,2,2,1,0
1558434742325891,2,1,0,-8,8,2,2,3
1558434742325891,-2,-4,-3,-10,-1,2,0,-4
1558434742331875,-1,-3,3,-4,-8,-3,1,0
1558434742331875,0,-1,1,7,3,-1,-1,0
1558434742347005,1,0,6,15,7,6,1,0
1558434742347005,0,0,-2,-6,-2,-2,1,0
1558434742353982,-3,-5,-6,-3,-7,-10,-6,-4
1558434742353982,-3,-4,-6,-8,-5,-1,-2,-4
1558434742369939,0,0,1,3,-2,-1,-1,-1
1558434742369939,2,0,5,18,13,4,2,-1
1558434742370937,-1,0,-2,-5,1,6,1,-1
1558434742370937,0,-1,1,-1,0,1,1,1
1558434742385833,-3,-2,4,5,-5,-4,-6,-4
1558434742385833,-2,-3,-10,-14,-11,-6,-6,-2
1558434742391922,1,1,0,-5,-2,-8,-1,3
1558434742391922,-1,-3,0,19,9,4,1,-2
1558434742406840,1,0,-6,-21,-1,4,4,0
1558434742406840,1,0,4,0,-9,-5,-2,-2
1558434742413823,-2,-4,-2,-2,-6,-4,-5,-3
1558434742413823,-1,-3,-9,-8,-7,-3,-2,-3
1558434742429750,0,1,0,5,12,8,1,1
1558434742429750,-3,-4,-5,-6,-3,-3,-1,-1
1558434742430714,0,1,1,6,4,4,3,-1
1558434742430714,-4,0,1,1,-12,-8,-5,-2
1558434742445675,-2,-1,1,7,1,-3,-5,-5
1558434742445675,0,0,4,9,9,2,1,-1
1558434742451692,0,-1,-8,-10,5,3,3,1
1558434742451692,0,2,2,0,0,4,4,0
1558434742466621,-3,-3,-2,-10,-7,-2,-1,-3
1558434742466621,-2,-4,5,17,-3,-4,-4,-3
1558434742474596,0,2,3,9,1,3,-1,-1
1558434742474596,2,1,-6,-9,4,3,0,-1
1558434742489586,0,2,2,6,-5,-8,-2,0
1558434742489586,-3,-3,-1,-7,-8,-3,-1,-3
1558434742490553,-2,-5,-11,-16,-7,-4,-3,-1
1558434742490553,1,-2,4,0,-5,-2,0,-1
1558434742505512,1,-3,-5,-1,7,7,6,1
1558434742505512,-1,-3,1,13,2,0,-1,0
1558434742511689,-1,-2,-4,-19,0,-1,-1,0
1558434742511689,-1,-1,3,0,-5,-4,-5,-2
1558434742526652,-2,-2,-2,-2,-9,-7,-5,-3
1558434742526652,-2,-2,-2,-5,12,11,8,1
1558434742534553,-1,3,7,13,1,0,-2,-3
1558434742534553,0,0,-2,-7,-3,-4,-1,-3
1558434742549395,0,2,3,6,1,1,-3,-1
1558434742549395,-2,-4,-11,-20,-7,-4,-3,-1
1558434742550393,0,-1,3,15,-3,-3,-2,-2
1558434742550393,0,-2,-3,-8,2,5,4,-1
1558434742565355,-1,-2,-2,8,-2,-6,-2,1
1558434742565355,-3,-2,-1,-15,-7,-5,-6,-4
1558434742571456,-3,-1,-2,-6,-2,0,-2,-2
1558434742571456,-2,0,-4,-6,2,2,-1,0
1558434742586415,0,-2,0,7,-3,3,2,1
1558434742586415,-1,-2,-1,1,7,3,1,2
1558434742594398,-1,-1,1,4,1,-4,2,1
1558434742594398,0,2,6,9,5,2,-2,1
1558434742610301,-2,0,4,-1,-2,3,0,0
1558434742610301,1,2,10,24,3,3,0,-1
1558434742610301,-5,-10,-29,-39,-7,0,-1,-4
1558434742610301,0,0,0,2,6,-5,-1,1
1558434742632173,-1,-2,-5,-9,-2,0,-1,-1
1558434742632173,0,-2,-2,0,-11,-7,-4,-1
1558434742633172,1,-1,5,4,7,5,2,1
1558434742633172,-1,1,3,1,-1,-2,2,0
1558434742647133,-2,0,-4,-9,0,-1,-2,-2
1558434742647133,-2,2,5,3,-5,-3,-2,-4
1558434742654115,-1,-2,-4,7,-4,-4,-3,0
1558434742654115,-3,-4,-8,-13,-6,-3,0,-2
1558434742670160,2,0,10,20,11,4,0,-1
1558434742670160,-2,1,-3,-10,-5,-4,-3,1
1558434742670160,1,1,-1,1,0,-2,1,-1
1558434742670160,3,3,3,4,7,13,3,3
1558434742685120,-2,-3,-6,0,2,-1,-1,0
1558434742685120,-2,-4,-4,-4,-5,-4,-3,-3
1558434742692014,-1,1,2,2,-5,-2,-3,-2
1558434742692014,-4,-2,0,-5,-4,-8,-4,-2
1558434742707211,-3,-2,-2,1,-5,0,0,-2
1558434742707211,1,1,-2,-1,16,15,5,3
1558434742713954,0,1,9,12,5,-6,0,1
1558434742713954,-1,-1,-5,-2,-7,-5,-3,-3
1558434742729912,-1,-2,-2,-2,0,-5,-5,-1
1558434742729912,-1,-2,0,1,-9,-3,-5,-3
1558434742730909,-2,-2,-1,2,4,5,1,-2
1558434742730909,1,0,1,2,7,2,3,1
1558434742745913,-2,-1,0,-2,0,2,1,1
1558434742745913,-1,-3,-9,-16,-12,-7,-6,-4
1558434742751882,2,1,1,6,2,-2,-2,1
1558434742751882,-4,-3,1,4,-3,-1,-1,-2
1558434742766849,-2,-3,-5,-8,1,2,3,-1
1558434742766849,-1,0,0,0,4,-2,1,0
1558434742773795,-1,0,4,-3,-8,-2,-4,-4
1558434742773795,-1,-1,-2,6,0,-1,-3,-1
1558434742789964,-4,-4,-11,-7,-9,-7,-3,-3
1558434742789964,-3,0,0,-5,-8,-6,-4,-1
1558434742790943,0,-2,-4,-2,0,2,0,-2
1558434742790943,-1,1,2,2,7,4,1,1
1558434742805709,1,2,10,14,4,-1,0,0
1558434742805709,-1,-3,-13,-18,-5,-4,-2,-1
1558434742811844,-2,-4,2,17,-2,-7,-3,0
1558434742811844,1,-2,-5,-11,1,9,1,0
1558434742826812,1,4,2,13,10,8,3,1
1558434742826812,0,-2,-3,-12,-6,-8,-2,0
1558434742834666,0,1,6,4,-2,1,3,-1
1558434742834666,-5,-6,-8,-1,-9,0,-3,-6
1558434742849742,1,0,1,-6,2,-4,-2,1
1558434742849742,0,0,0,-8,-4,-3,0,0
1558434742850590,-1,-4,-4,1,-1,-1,0,-3
1558434742850590,1,-2,-2,0,-8,-10,-4,-3
1558434742865550,-2,0,-2,-10,-6,-5,-3,-2
1558434742865550,0,3,7,22,8,9,4,-2
1558434742871607,1,1,2,-3,-4,1,0,2
1558434742871607,-1,0,3,1,-3,1,0,2
1558434742886659,2,0,-1,-9,3,5,2,1
1558434742886659,-5,-5,-5,12,-1,-11,-1,-2
1558434742894591,-1,-1,-4,-9,-2,0,-4,-2
1558434742894591,0,2,2,7,3,0,0,1
1558434742909591,-2,-1,-4,-13,-12,-7,-4,-2
1558434742909591,1,-2,-4,-7,-5,-2,-3,-2
1558434742910547,-1,-2,2,7,3,3,2,1
1558434742910547,-2,-3,0,7,8,3,4,0
1558434742925506,-2,-3,-5,-5,0,0,0,0
1558434742925506,0,0,3,8,5,3,0,-1
1558434742931492,0,-1,2,5,-3,-1,-1,-3
1558434742931492,0,-2,-13,-36,-14,-8,-6,0
1558434742946580,-3,-3,-1,4,-5,-8,-5,-3
1558434742946580,0,-2,-1,-2,-1,2,-1,0
1558434742954560,-3,-2,-1,-2,-5,-3,-3,-2
1558434742954560,1,2,4,4,4,-2,0,-1
1558434742969523,0,-1,2,4,-4,-2,3,-1
1558434742969523,-1,-1,-7,-3,10,10,4,3
1558434742976515,1,2,4,4,17,11,3,3
1558434742976515,-1,-2,-2,-9,-5,-2,-3,-3
1558434742985431,-2,-2,-6,-13,-15,-14,-9,-5
1558434742985431,-1,2,-4,-5,-12,-9,-4,-4
1558434742991465,-1,-2,-3,2,1,5,5,0
1558434742991465,-1,-4,-5,-2,1,0,1,0
1558434743006528,0,-2,4,13,10,6,2,0
1558434743006528,0,0,0,-14,-4,-3,-3,-4
1558434743014457,-2,-2,-2,-5,-8,-10,-6,-3
1558434743014457,-2,2,1,7,1,2,-2,1
1558434743030415,-4,-3,-5,-8,-3,2,-1,0
1558434743030415,2,2,3,13,8,3,3,3
1558434743036449,-2,0,-11,-26,-7,-1,0,-1
1558434743036449,0,-2,3,-5,-3,-5,-6,-3
1558434743045374,2,2,4,5,-2,0,0,1
1558434743045374,-2,-2,1,2,0,-2,-2,-1
1558434743051411,-1,-1,4,3,-8,-8,-2,-1
1558434743051411,-1,0,-5,7,9,2,3,0
1558434743066367,-1,-1,-4,-12,-4,1,-2,-2
1558434743066367,-2,-4,-2,4,-1,2,0,-1
1558434743082346,-4,-6,-4,-15,-8,-4,0,-1
1558434743082346,1,1,10,13,2,-1,1,-3
1558434743089308,1,-1,-8,-9,7,6,1,2
1558434743089308,1,1,6,10,3,2,1,1
1558434743097234,-1,3,5,5,0,-1,-3,0
1558434743097234,-8,-5,-13,-20,-14,-7,-6,-6
1558434743105243,1,0,0,-8,-2,-2,1,-1
1558434743105243,-2,1,4,14,5,3,2,3
1558434743111235,-1,-2,-9,-11,1,4,-1,-1
1558434743111235,1,-1,3,9,-1,-7,-4,0
1558434743126304,2,1,-3,-1,1,5,1,-1
1558434743126304,0,-3,-6,-21,-12,-9,-5,-4
1558434743134285,-1,-1,-6,5,3,1,0,-2
1558434743134285,-4,-2,4,6,-4,-4,0,-1
1558434743149101,-2,-1,4,-6,-1,2,1,0
1558434743149101,0,2,1,5,4,3,1,-4
1558434743157224,-1,-1,-1,-5,0,1,-2,2
1558434743157224,0,-1,-2,4,1,0,-2,-1
1558434743172186,-1,-1,2,9,-9,-8,-5,-1
1558434743172186,-1,-2,-6,1,0,-2,0,0
1558434743173033,1,2,1,-4,9,4,1,-1
1558434743173033,-1,-3,-3,-2,-4,1,1,-3
1558434743187098,0,1,4,12,0,-5,-2,-1
1558434743187098,-2,-2,-7,-11,-4,-1,-5,-1
1558434743194082,0,0,0,5,4,0,3,0
1558434743194082,-1,0,2,1,-3,1,0,0
1558434743209053,-1,-1,-3,-6,0,-1,-1,-2
1558434743209053,-2,-3,-2,1,-7,-6,-2,-2
1558434743217064,0,-1,2,0,-5,-4,-2,-4
1558434743217064,0,0,6,4,0,1,1,-2
1558434743231991,-1,-2,-5,5,8,0,4,-1
1558434743231991,1,1,6,8,7,7,1,1
1558434743232988,-2,-3,-15,-23,-11,-4,-5,0
1558434743232988,-1,-1,3,8,-3,-9,-2,-1
1558434743247024,-2,-2,-3,-12,-10,-7,-4,-1
1558434743247024,-1,2,-5,-4,6,5,2,-1
1558434743254005,-1,1,4,13,6,3,1,1
1558434743254005,0,-2,-11,-12,-1,3,-2,-1
1558434743268968,-1,-2,4,6,9,2,1,0
1558434743268968,-1,-2,-2,-4,-7,-6,-5,-2
1558434743276950,1,0,0,-2,-6,-3,-1,-1
1558434743276950,0,0,-2,-1,0,-1,0,0
1558434743291904,0,1,2,4,5,5,4,0
1558434743291904,-5,-6,-8,-6,-8,-6,-2,-5
1558434743292828,-2,-2,4,0,-9,-8,-2,-3
1558434743292828,1,-1,-4,-1,5,6,1,1
1558434743307789,-1,-4,-3,-7,-12,-12,-8,-5
1558434743307789,-2,0,2,1,5,1,0,-1
1558434743313876,0,0,0,10,1,-3,0,-1
1558434743313876,-1,1,-3,-5,-6,-2,1,0
1558434743329014,-3,-3,1,3,5,5,-2,-2
1558434743329014,-1,1,4,5,-3,-4,-1,-2
1558434743336986,-1,0,-10,-4,-7,-7,-6,-1
1558434743336986,2,1,8,18,12,3,1,1
1558434743351948,-2,-2,-8,-24,-5,3,2,0
1558434743351948,-3,-4,2,5,0,-4,-1,-3
1558434743352861,2,-2,4,0,0,1,2,2
1558434743352861,1,1,2,0,-5,-2,-1,1
1558434743367866,-2,-3,-7,2,1,0,1,-1
1558434743367866,2,-1,-3,-9,-3,1,-2,1
1558434743373888,-3,-3,1,2,1,-1,-1,-3
1558434743373888,-2,-3,-5,-4,-3,-3,-6,-4
1558434743388818,1,2,6,11,1,-7,-1,-3
1558434743388818,-1,3,4,-6,-3,3,3,-1
1558434743396747,-3,-2,-5,-2,2,-2,0,-2
1558434743396747,-4,-1,0,7,5,2,1,2
1558434743412745,-1,-1,-5,-15,-4,1,-1,-1
1558434743412745,-1,-4,-5,-1,4,4,0,2
1558434743412745,-1,-2,-2,-7,-5,-3,-2,-1
1558434743412745,-1,-2,2,6,-3,-1,-1,-1
1558434743427740,2,3,2,4,-1,-2,2,3
1558434743427740,0,0,4,0,0,-1,0,-1
1558434743433724,-3,-1,-1,1,6,5,1,-1
1558434743433724,-4,-2,-5,-6,-7,-6,-4,-4
1558434743448738,-4,-4,-4,0,-7,-1,-1,-3
1558434743448738,1,0,0,-4,-2,-7,-1,2
1558434743456749,-2,-1,-3,-9,-1,1,-1,0
1558434743456749,0,-1,3,-2,0,4,1,0
1558434743472714,-2,-5,-8,-1,-7,-8,-6,-2
1558434743472714,-2,-1,3,4,0,-3,2,-2
1558434743472714,0,0,-2,-4,-3,-7,-5,-3
1558434743472714,1,2,3,1,-4,-3,1,-1
1558434743487666,-3,-3,-10,-2,2,3,-2,-3
1558434743487666,-1,-4,-3,-5,0,1,-2,-1
1558434743493619,1,2,7,14,3,-2,-2,2
1558434743493619,0,-2,1,-3,-3,-8,-3,-1
1558434743509576,-1,0,-1,-7,-5,-2,-4,0
1558434743509576,0,-2,-2,2,10,8,5,-1
1558434743516594,1,0,1,8,4,0,5,-1
1558434743516594,-2,-1,-2,-2,1,2,3,-1
1558434743532516,-3,-2,-8,-6,-3,-5,-4,-3
1558434743532516,-2,-2,2,-3,-11,-5,-4,-1
1558434743532516,0,-1,-3,-4,3,6,0,-1
1558434743532516,0,1,-1,1,3,-4,0,-1
1558434743548472,-2,0,3,3,0,-1,-3,-1
1558434743548472,-3,-2,-7,-11,-5,1,-3,-4
1558434743554677,0,-1,2,6,0,-4,1,0
1558434743554677,-1,-3,-1,3,3,0,-1,0
1558434743569637,0,-1,4,1,3,-1,0,2
1558434743569637,3,3,1,4,-1,-3,0,0
1558434743576621,-3,-2,-1,-9,-4,2,-2,-2
1558434743576621,-1,-3,-5,-11,-5,-4,-2,-3
1558434743592579,0,-1,2,5,-6,-6,-3,1
1558434743592579,0,0,1,6,1,5,0,2
1558434743593576,0,-1,-6,-4,1,1,1,-1
1558434743593576,0,2,3,-11,0,1,-1,-1
1558434743608312,0,-2,-4,0,2,3,-1,-2
1558434743608312,-3,-1,-3,1,-9,-9,-7,-5
1558434743614295,-1,0,8,17,0,-2,-1,-2
1558434743614295,1,-1,-11,-24,-2,-4,0,0
1558434743629332,0,1,5,2,2,3,4,1
1558434743629332,-1,-1,-7,-9,1,1,-1,0
1558434743636239,-2,-5,2,6,-1,1,-4,-2
1558434743636239,0,-1,5,6,1,2,1,0
1558434743652243,0,-2,-7,-9,-5,-2,-1,-2
1558434743652243,1,1,-1,-2,-4,-2,2,1
1558434743653193,0,0,-3,-7,3,-1,0,-1
1558434743653193,0,-2,1,10,0,-3,-2,1
1558434743668151,1,1,4,0,-1,4,1,0
1558434743668151,-2,-2,-2,0,-1,0,1,2
1558434743674180,-2,-2,-2,-4,-5,-6,-2,-1
1558434743674180,-2,0,0,7,-2,4,-2,-3
1558434743689141,-2,-4,1,-12,-2,1,0,-2
1558434743689141,-6,-7,-11,1,-3,-2,0,-2
1558434743696077,0,1,3,-5,1,0,1,1
1558434743696077,-3,-6,-18,-10,-6,-4,-5,-3
1558434743712035,0,3,5,10,4,0,2,0
1558434743712035,0,0,3,3,10,7,4,1
1558434743713032,-4,-4,-7,-15,-12,-14,-5,-2
1558434743713032,-1,-1,7,9,-3,-2,-3,-1
1558434743728022,0,0,-2,-1,2,1,1,-2
1558434743728022,0,-3,-2,-4,0,4,-1,-1
1558434743734203,0,1,3,5,-7,0,0,-1
1558434743734203,-2,-2,-4,-15,-3,-7,-2,0
1558434743748964,-1,1,-1,7,6,2,1,1
1558434743748964,-2,-1,2,3,-2,-3,-1,-3
1558434743757142,-3,-2,-3,-2,-1,5,0,-2
1558434743757142,-1,-2,-4,-9,-9,-7,-5,-3
1558434743772907,1,0,4,3,3,-3,-1,0
1558434743772907,0,1,4,3,3,3,3,0
1558434743772907,0,-1,-2,6,7,3,3,1
1558434743772907,-2,-1,-2,-4,-2,-2,-3,-5
1558434743787831,-2,-4,-4,1,-4,-3,-2,-1
1558434743787831,1,1,-2,-5,-6,-4,-4,-1
1558434743793814,-3,-5,0,0,-2,-2,-4,-2
1558434743793814,2,0,2,3,10,7,4,1
1558434743816753,-1,-1,-4,-8,-4,-5,-4,-2
1558434743816753,3,0,-6,-6,2,3,4,2
1558434743817750,2,0,-1,1,-5,-5,-2,1
1558434743817750,0,-2,-4,-5,-5,-2,0,-1
1558434743832905,-2,-2,0,3,-5,-4,-6,-3
1558434743832905,-2,-2,0,-9,-4,-4,-4,-2
1558434743832905,1,1,4,14,7,9,1,0
1558434743832905,-2,1,2,-7,5,1,1,-1
1558434743847684,-1,-2,-2,-1,-1,2,3,-2
1558434743847684,-1,0,-4,-6,-9,-12,-4,-4
1558434743854708,-1,0,-1,-5,-7,-2,-1,-1
1558434743854708,-1,1,5,11,1,2,-2,2
1558434743869756,-2,-3,-1,7,6,4,2,1
1558434743869756,-2,-5,-7,-13,-4,-6,-5,-3
1558434743876826,-2,-1,-2,-3,-7,-2,2,-1
1558434743876826,-1,-1,-3,0,4,4,0,0
1558434743891734,-1,1,3,6,-1,-4,-3,-2
1558434743891734,2,-1,0,-1,1,-1,-2,0
1558434743898773,-3,-2,-7,-9,-2,-1,-3,-1
1558434743898773,0,2,4,12,6,5,4,2
1558434743907828,-2,-3,-8,-17,-5,-2,-1,0
1558434743907828,-1,1,1,-3,-1,-4,-3,-3
1558434743913730,-2,-1,-3,-7,-4,-3,-5,-4
1558434743913730,0,0,-1,-2,-1,1,1,2
1558434743928835,1,0,0,1,-2,-5,0,-2
1558434743928835,0,-2,2,11,0,-3,-1,0
1558434743936812,-1,-4,-2,9,-4,-3,-5,-5
1558434743936812,-2,-2,-5,-23,0,2,2,0
1558434743951772,-1,-2,-2,-6,-3,-2,1,-2
1558434743951772,-4,-2,2,2,-4,0,-3,-3
1558434743959657,0,3,7,9,5,0,0,0
1558434743959657,-2,-3,-2,-9,1,4,2,-1
1558434743967728,-1,-1,-2,-9,-7,-5,-4,0
1558434743967728,1,1,5,15,5,-1,0,1
1558434743974592,1,3,0,4,6,1,1,2
1558434743974592,-4,-5,-7,2,-5,-6,-4,-6
1558434743989632,-3,-2,0,-4,-4,-2,0,-3
1558434743989632,2,0,2,2,6,0,1,3
1558434743996587,-2,-3,-1,-1,-1,-4,-2,-1
1558434743996587,2,1,0,-10,-7,-1,-1,-1
1558434744021444,0,-2,-7,0,-5,3,0,-1
1558434744021444,-2,-2,-6,-3,-4,-6,-4,-4
1558434744021444,-3,-3,-3,-6,5,7,5,0
1558434744021444,-3,-4,4,14,-4,-12,-5,-3
1558434744028424,0,1,6,6,3,3,-1,2
1558434744028424,0,0,-1,-6,-2,6,2,1
1558434744034450,1,0,-8,-11,-2,-3,-1,-1
1558434744034450,-1,0,-3,8,1,-1,1,0
1558434744049404,-1,0,5,2,4,0,-1,-1
1558434744049404,-1,-1,-1,-1,-4,-3,-1,-2
1558434744056386,-3,-5,-10,-8,0,3,2,-1
1558434744056386,1,1,-1,5,6,6,-1,1
1558434744071345,-1,0,-1,8,-3,-6,-6,-3
1558434744071345,-2,0,2,9,7,8,3,1
1558434744079329,0,-1,-2,-12,-6,-12,-3,-2
1558434744079329,-2,-2,-3,-5,-12,-10,-6,-4
1558434744095247,0,-1,4,6,8,3,4,4
1558434744095247,0,-1,-2,-5,1,2,2,0
1558434744095247,0,1,4,9,-5,2,-3,-2
1558434744095247,-1,0,-7,-19,-4,-5,-2,-2
1558434744109208,-1,-1,1,6,6,3,1,1
1558434744109208,-1,-1,9,10,0,-4,-2,-2
1558434744117193,-1,-4,-14,-19,-10,-3,-2,0
1558434744117193,-1,-2,-2,2,-4,-1,-3,-3
1558434744131151,-4,-4,-4,-3,-6,1,-2,-4
1558434744131151,0,0,0,0,3,3,0,1
1558434744139165,0,0,2,-2,1,2,0,-1
1558434744139165,-1,-1,-2,-2,-5,2,0,-2
1558434744155167,1,0,-3,-8,-2,1,1,0
1558434744155167,-3,-4,-4,1,-2,-2,-4,0
1558434744155167,-2,0,0,0,-5,-10,-5,-2
1558434744155167,-1,-2,1,11,-2,-3,3,-1
1558434744169175,-1,-2,-1,7,2,0,-1,-2
1558434744169175,0,-2,-4,-15,-7,1,0,-2
1558434744177087,-1,-1,2,3,4,0,-2,-1
1558434744177087,0,2,7,6,5,1,-3,1
1558434744191987,1,2,4,5,-1,-3,0,2
1558434744191987,-1,2,-3,-11,0,-3,-1,0
1558434744199002,-4,-5,-8,-12,-6,-1,1,-2
1558434744199002,-3,-1,4,9,-1,-8,-4,-2
1558434744214925,-2,-4,-6,-16,-5,2,0,-2
1558434744214925,1,0,1,1,3,-1,-1,0
1558434744215923,0,-3,-2,4,-4,-3,0,-1
1558434744215923,2,-1,1,-2,-3,1,1,-1
1558434744228932,0,-1,3,5,7,-1,-4,-3
1558434744228932,-2,-4,-2,4,-2,-7,-4,-4
1558434744236866,0,2,0,-2,10,6,1,2
1558434744236866,1,-1,1,1,3,5,2,1
1558434744251827,-2,1,0,-3,-5,-8,-3,1
1558434744251827,-5,-2,-3,-6,-12,-6,-5,-4
1558434744259099,-3,-2,10,22,6,6,1,0
1558434744259099,-1,1,-4,-18,7,4,4,2
1558434744274871,-2,-3,-12,-20,-5,-3,-3,0
1558434744274871,-3,-6,-10,-10,-3,2,-4,-2
1558434744275763,0,-2,-2,4,-11,-15,-8,-3
1558434744275763,-1,-1,5,11,9,5,4,2
1558434744288727,-1,-1,1,4,-2,5,2,-1
1558434744288727,-2,-1,-6,1,1,-6,0,-3
1558434744296812,-1,-2,1,-12,-11,-2,2,-1
1558434744296812,0,1,4,12,4,-1,-3,-2
1558434744312769,-3,-1,-7,-11,-5,0,-2,-2
1558434744312769,-2,-2,-2,9,7,6,4,2
1558434744318649,0,0,-2,-6,-1,0,-2,-1
1558434744318649,-3,-6,-9,-20,-15,-12,-6,-1
1558434744334810,2,2,2,10,6,0,-1,0
1558434744334810,0,1,3,-1,-6,-3,-1,-3
1558434744335602,-1,0,-2,-2,5,2,0,-1
1558434744335602,-2,-2,1,4,-4,-3,-2,-1
1558434744348572,0,-4,-7,-3,-4,-5,-3,-2
1558434744348572,-2,-1,-1,-4,1,3,-1,-2
1558434744356548,0,3,4,5,-3,-4,1,-1
1558434744356548,-1,1,2,6,3,6,0,0
1558434744371510,-1,0,7,14,7,4,2,3
1558434744371510,2,1,-4,-12,4,0,2,1
1558434744379486,1,-1,-2,-3,0,2,0,0
1558434744379486,-1,-3,-4,-14,-9,-8,-4,-4
1558434744394597,-2,-1,5,4,-1,1,-2,-1
1558434744394597,-3,-3,-1,1,-5,-5,-3,-6
1558434744395443,0,1,6,8,7,5,1,2
1558434744395443,-4,-2,-10,-9,-2,-4,-1,0
1558434744409439,0,0,1,1,1,-4,-1,-2
1558434744409439,0,2,-3,3,3,1,-1,2
1558434744416577,-2,-3,-2,0,0,3,-1,-3
1558434744416577,-1,0,0,4,-5,-1,-2,-1
1558434744431347,-1,-2,-3,2,-5,-3,0,-2
1558434744431347,2,2,3,1,9,6,3,4
1558434744439324,-2,-2,0,-2,-5,-9,-5,-2
1558434744439324,-1,-2,3,6,3,6,1,-3
1558434744455281,0,0,2,-3,0,-2,-3,-1
1558434744455281,-1,-3,-7,-5,-11,-5,-2,-1
1558434744455281,-1,2,0,0,11,8,4,1
1558434744455281,0,1,0,5,6,4,2,2
1558434744469245,-4,-3,-10,-12,-6,-2,-1,-2
1558434744469245,-1,-3,2,-3,-8,-6,-4,-2
1558434744476361,0,0,1,5,5,2,1,1
1558434744476361,-2,-3,-3,-5,-5,-5,-3,-1
1558434744491191,0,-2,-3,-4,-2,0,0,-3
1558434744491191,0,1,4,19,-4,-5,1,0
1558434744499165,-5,-4,-18,-30,-19,-10,-5,-2
1558434744499165,-3,0,3,6,3,-2,-1,-2
1558434744516119,0,-1,1,4,13,14,7,6
1558434744516119,-2,0,-1,-3,-6,0,-2,-1
1558434744517117,-1,-2,3,7,6,-3,-5,-3
1558434744517117,2,2,0,-5,-5,-2,-1,-2
1558434744529085,-1,-1,-1,2,-5,-10,-2,-4
1558434744529085,0,-3,-1,-4,5,7,0,-3
1558434744537248,0,2,0,-5,-2,5,0,2
1558434744537248,0,-4,-4,-11,-11,-7,-6,-2
1558434744552024,-1,-5,-7,1,-4,2,-3,-2
1558434744552024,-1,0,4,-3,-3,-10,-4,0
1558434744559004,1,-1,4,17,6,-1,2,1
1558434744559004,0,1,-7,-15,0,3,4,1
1558434744574961,-1,0,1,-4,-4,1,-1,-2
1558434744574961,-2,-4,-2,-3,4,1,-1,0
1558434744574961,-3,-2,-1,9,-3,-4,-5,-2
1558434744574961,-3,-3,-2,-4,-6,-6,-3,-2
1558434744590932,1,-2,6,3,-1,2,1,1
1558434744590932,-1,0,-11,-19,-1,-1,0,-2
1558434744597045,0,3,6,1,3,0,2,2
1558434744597045,0,-3,-3,6,1,3,-1,0
1558434744611863,-1,0,-2,-4,-3,-6,-4,-1
1558434744611863,-1,0,7,13,1,-2,0,-1
1558434744618845,1,-1,1,-1,-1,-1,1,0
1558434744618845,-3,-2,-1,-8,-2,-7,-2,1
1558434744641784,-4,-1,3,8,-1,-5,0,-2
1558434744641784,-2,-3,-6,-6,-1,2,2,-1
1558434744642781,-2,-2,-6,-7,0,4,0,1
1558434744642781,2,0,1,8,4,3,-1,0
1558434744650760,-2,0,-1,-6,2,-1,-3,0
1558434744650760,-5,-1,-1,3,-1,0,-2,0
1558434744656758,-1,0,-2,-5,-5,-4,-1,-2
1558434744656758,-2,-4,-4,-1,-4,-1,-2,-2
1558434744671705,0,-1,-1,-3,-6,-5,-1,-2
1558434744671705,2,1,0,3,6,3,0,-2
1558434744687851,-2,-2,-7,-9,-4,-2,-3,-4
1558434744687851,-1,-2,-2,-2,-3,1,-1,-2
1558434744694841,0,-1,-5,-8,1,0,-1,3
1558434744694841,-1,-1,5,7,-4,-3,-2,-2
1558434744695639,0,-1,0,-3,0,-4,-1,-1
1558434744695639,-2,0,4,5,5,0,0,-1
1558434744718578,-1,1,-1,-1,-2,1,-3,-2
1558434744718578,-2,-4,-2,-2,-2,-1,-2,-1
1558434744719575,-4,-3,-1,1,0,0,0,-2
1558434744719575,-1,1,2,9,2,1,1,-1
1558434744731549,-2,-3,-5,-18,-4,-5,-2,-1
1558434744731549,-2,-2,-8,-8,-8,-4,-3,-3
1558434744738526,-2,-2,0,3,-3,-1,-3,-3
1558434744738526,1,-1,2,0,4,6,0,1
1558434744756476,0,1,-5,1,2,-1,0,-1
1558434744756476,1,-2,5,11,2,5,2,1
1558434744756476,-4,-6,-21,-32,-15,-10,-4,-6
1558434744756476,-2,-2,0,1,-5,-2,-2,-1
1558434744771436,-1,-1,-5,5,1,0,1,-2
1558434744771436,0,-1,3,-7,3,-5,0,0
1558434744776482,-1,-1,6,13,7,0,2,1
1558434744776482,-2,-1,-1,-5,-6,-3,-4,0
1558434744791581,-1,1,1,7,2,-2,-3,1
1558434744791581,1,2,-3,-4,1,4,-2,0
1558434744799362,0,1,4,7,-4,-2,-1,0
1558434744799362,-1,1,-10,-9,8,7,4,-1
1558434744814322,-3,-6,-1,-7,-8,-1,-5,-5
1558434744814322,-1,1,-4,-2,1,-3,-1,0
1558434744821499,3,1,8,10,7,5,2,1
1558434744821499,-1,1,5,10,-7,-8,-2,-1
1558434744830280,-3,-2,-10,-17,-10,-4,0,0
1558434744830280,-1,0,-2,-3,-1,-3,-5,-2
1558434744836263,-1,-1,-1,-3,-4,4,1,2
1558434744836263,0,3,3,2,8,2,1,1
1558434744851224,1,0,4,11,7,-2,-1,-2
1558434744851224,-4,-4,-5,-10,-9,-6,-3,-5
1558434744859214,-2,-1,-5,1,0,-1,-1,0
1558434744859214,-1,1,3,1,1,5,0,-2
1558434744874162,-3,-2,2,13,2,-2,-2,-1
1558434744874162,0,-1,-6,-15,-3,5,3,2
1558434744881143,0,-6,-7,-3,-2,-7,-6,-2
1558434744881143,-1,-1,0,12,4,0,4,3
1558434744897102,-3,-3,-1,-15,-10,-1,-2,-3
1558434744897102,-1,2,-5,4,5,6,-1,-1
1558434744898102,-6,-4,-7,-13,-13,-3,-7,-5
1558434744898102,0,-1,4,5,3,-9,1,1
1558434744920038,3,3,2,10,11,6,5,2
1558434744920038,0,1,6,6,-3,-3,-3,-1
1558434744920038,-1,0,1,1,-2,2,0,1
1558434744920038,-6,-4,-15,-21,-20,-18,-10,-8
1558434744934002,1,0,6,3,-1,0,0,-1
1558434744934002,2,1,2,1,20,13,6,3
1558434744941982,-1,0,4,10,2,1,1,-1
1558434744941982,-2,-1,-5,1,-7,-2,-2,-1
1558434744950956,2,-1,-4,-14,4,1,2,5
1558434744950956,-2,-3,0,0,-11,-9,-5,-1
1558434744956940,-3,-1,-1,-8,-4,-3,-1,-3
1558434744956940,-2,-3,-3,2,-2,1,-2,-3
1558434744971914,0,3,2,10,3,-4,1,1
1558434744971914,-2,1,1,5,1,-2,1,0
1558434744978881,-2,-3,-2,-11,-6,-6,-3,-4
1558434744978881,-1,-1,12,25,17,11,5,1
1558434744993842,-4,-6,-24,-42,-17,-9,-6,-3
1558434744993842,-1,0,2,0,1,4,4,0
1558434745001846,1,-1,-4,6,3,1,-1,-3
1558434745001846,-1,-3,-3,-7,-2,3,-1,-2
1558434745016785,3,2,8,12,12,11,3,2
1558434745016785,-6,-5,-4,8,-11,-9,-8,-5
1558434745017779,-1,0,-9,-19,-7,-12,-7,-1
1558434745017779,-3,-5,-4,8,-9,-11,-7,-5
1558434745031743,0,0,-3,-2,3,4,5,0
1558434745031743,-1,1,2,0,-3,4,1,1
1558434745038727,2,2,3,4,12,10,10,5
1558434745038727,-1,-3,-4,-8,-10,-9,-9,-3
1558434745053681,-3,-3,-2,-3,-16,-9,-9,-7
1558434745053681,-2,-4,-2,6,1,-7,-3,-4
1558434745061667,5,3,8,-5,21,25,13,7
1558434745061667,-2,0,2,-3,1,3,1,0
1558434745077618,-3,-5,-16,-10,-10,-4,-4,-3
1558434745077618,0,-1,4,2,-2,-9,-3,2
1558434745077618,-3,-5,-7,4,-9,-10,-6,-4
1558434745077618,2,1,1,-10,0,5,2,2
1558434745091581,5,6,10,25,20,7,4,5
1558434745091581,-1,0,2,3,-6,-4,-2,-2
1558434745098562,-3,-2,1,2,-4,-1,1,-2
1558434745098562,1,0,-3,-7,1,4,2,-2
1558434745114519,-3,-4,3,12,-9,-8,-3,-2
1558434745114519,0,0,1,2,7,1,1,-1
1558434745121500,0,-1,-3,-7,3,-3,-5,2
1558434745121500,-1,1,2,-8,2,8,4,3
1558434745137458,-5,-3,0,9,-5,5,2,-3
1558434745137458,-2,-3,-11,-26,-7,-4,-2,0
1558434745137458,-1,0,1,7,-3,-6,-9,-5
1558434745137458,-3,-4,-6,1,-6,-3,-5,-8
1558434745151421,4,1,0,-14,2,0,3,7
1558434745151421,1,-1,1,11,0,3,3,1
1558434745159401,0,-1,6,5,-10,0,1,-2
1558434745159401,-1,-1,-4,3,17,4,2,0
1558434745174361,-5,-2,-5,-12,-12,-8,-4,-5
1558434745174361,-1,0,-5,-4,5,2,-1,0
1558434745181344,-1,0,4,-4,2,-2,0,0
1558434745181344,0,2,3,-8,-7,4,3,2
1558434745197298,1,-1,2,-4,-3,-5,-5,-5
1558434745197298,-1,-1,-2,-4,6,4,0,1
1558434745198298,0,0,1,6,4,0,0,1
1558434745198298,-1,-3,-8,-5,-6,-2,-2,-3
1558434745228216,-1,0,3,9,6,1,-1,-1
1558434745228216,1,3,1,7,-5,-7,-3,-1
1558434745228216,-2,-3,-4,1,-4,-3,-2,-2
1558434745228216,-3,-4,-1,-14,-9,-7,-4,0
1558434745234200,-2,-3,1,3,-4,-4,-2,-1
1558434745234200,-1,-4,-7,-3,-6,-5,-4,-1
1558434745241181,-1,-2,-4,0,-4,-5,-3,-2
1558434745241181,1,1,2,9,9,9,3,1
1558434745257143,3,4,3,3,12,12,8,2
1558434745257143,-1,1,-1,-2,-2,2,1,-3
1558434745258135,-1,0,-2,-1,-3,-6,-1,0
1558434745258135,-1,0,-2,-6,-7,-12,-4,-2
1558434745273098,-2,-1,1,1,-3,-5,-7,-2
1558434745273098,-2,-3,-3,-6,-5,-2,0,-1
1558434745279079,-2,0,-2,3,2,4,-1,0
1558434745279079,0,0,0,5,3,-2,-1,-2
1558434745294047,-3,-2,-3,-3,-3,-2,1,-2
1558434745294047,-4,-4,-4,-3,-6,0,-2,-1
1558434745302017,-2,-2,-1,-2,0,1,0,0
1558434745302017,-1,-1,-2,0,0,-1,-3,-1
1558434745316978,-2,-2,2,3,0,0,-1,-1
1558434745316978,-1,0,4,1,3,-1,1,-1
1558434745317976,-1,0,-1,-6,-2,-1,-3,-2
1558434745317976,0,0,1,3,-1,-4,-1,-1
1558434745331938,1,2,0,-2,-3,-1,1,-1
1558434745331938,-1,-2,-1,-1,-2,0,-1,-1
1558434745338918,0,2,3,6,4,0,1,-2
1558434745338918,-2,-6,-6,-13,-5,-2,-1,-2
1558434745353884,-1,1,-7,-2,-2,-3,-1,-2
1558434745353884,8,12,-5,0,2,2,-3,1
1558434745361860,0,0,2,-3,-4,0,-2,0
1558434745361860,4,10,16,4,2,1,0,3
1558434745376819,-2,0,3,-4,-3,-4,-2,-1
1558434745376819,-3,-1,4,1,0,-1,-3,-2
1558434745377818,7,9,-6,-12,-4,-1,-1,0
1558434745377818,-10,-20,11,17,4,1,0,2
1558434745391777,-2,-5,-11,-23,-6,-2,-4,-2
1558434745391777,-2,-6,3,0,1,1,-1,1
1558434745398758,-2,2,-13,-2,-1,-3,0,-3
1558434745398758,-5,-8,-4,-6,-2,-2,1,-3
1558434745413718,0,-1,10,21,6,3,-1,-1
1558434745413718,-5,-11,-8,-19,-8,-5,-2,-1
1558434745421697,-3,-5,0,0,-1,-1,-2,-1
1558434745421697,3,1,-4,-2,0,0,-1,-3
1558434745437654,-1,0,4,8,3,2,-1,-1
1558434745437654,1,-1,0,2,0,-1,1,-1
1558434745437654,-1,-4,-4,-10,-6,-3,-2,-1
1558434745437654,1,4,0,2,0,-2,-2,0
1558434745451623,-4,-7,-6,-8,1,2,-1,2
1558434745451623,-2,-2,2,16,-2,-2,-2,-3
1558434745459599,-4,-2,1,3,1,-1,2,-2
1558434745459599,0,1,-7,-2,-5,-4,-2,-1
1558434745473560,-1,-1,-5,-5,-1,-1,1,-1
1558434745473560,1,-1,-5,-2,0,-1,0,-2
1558434745481539,-3,-3,6,7,-1,-2,-2,0
1558434745481539,0,1,-9,-12,-4,-1,-3,-1
1558434745497496,-2,-1,8,12,4,0,1,-1
1558434745497496,-2,2,0,-2,1,1,0,0
1558434745497496,2,-4,-3,-14,-6,-5,-3,-2
1558434745497496,-2,-2,-9,-8,-7,-5,-4,-2
1558434745511464,-1,1,1,2,-4,-2,-1,0
1558434745511464,1,1,6,7,8,7,2,-1
1558434745519435,-2,1,5,10,5,4,1,1
1558434745519435,0,4,-6,3,3,-1,-2,0
1558434745534401,0,-1,-2,-10,-10,-6,-4,-1
1558434745534401,1,0,5,-6,4,5,3,1
1558434745541384,-1,-5,-13,-11,-1,-3,-3,-4
1558434745541384,0,-2,3,6,-4,-3,-2,-1
1558434745559332,-3,-2,-8,0,8,4,1,0
1558434745559332,-5,-6,-13,-12,-6,-7,-4,-2
1558434745559332,-1,-2,3,9,2,2,0,0
1558434745559332,-4,0,0,1,-5,-6,-2,-3
1558434745571300,-2,-4,5,15,-4,-3,1,-4
1558434745571300,0,2,4,-5,-3,1,0,0
1558434745579277,-2,1,4,12,10,3,2,1
1558434745579277,-1,2,-3,-21,0,2,1,-1
1558434745594242,2,1,-3,4,-3,-2,-1,1
1558434745594242,-1,-3,4,5,-9,-7,-6,-5
1558434745601218,-4,-5,-17,-29,-16,-7,-5,0
1558434745601218,1,0,-6,1,7,3,0,-1
1558434745617175,-2,-1,-3,-1,0,2,1,0
1558434745617175,-3,-3,-7,-7,-3,-2,-3,-3
1558434745618172,1,2,9,23,10,3,-2,0
1558434745618172,-1,-2,-3,-6,-10,-7,-1,-2
1558434745631138,0,-2,-1,-20,-13,-7,-5,-3
1558434745631138,-1,-1,-4,9,9,7,-2,2
1558434745639121,-1,0,7,2,1,2,1,0
1558434745639121,4,3,11,17,16,10,7,4
1558434745654079,0,-3,-2,-4,3,5,-2,-2
1558434745654079,-2,-3,-6,-1,-6,-7,-2,-5
1558434745661058,-2,-1,-10,-20,-7,-1,0,-1
1558434745661058,-3,-3,-2,-3,-11,-14,-7,-3
1558434745677014,1,3,8,10,6,5,2,0
1558434745677014,1,1,-5,-12,6,5,2,1
