timestamp,emg1,emg2,emg3,emg4,emg5,emg6,emg7,emg8
1558434649278882,0,0,-1,2,0,-4,-3,-3
1558434649278882,-2,-2,-4,3,-11,-7,-3,-2
1558434649279881,-1,-2,1,-11,7,12,6,3
1558434649279881,0,1,-7,-3,5,3,-2,1
1558434649283869,-2,-1,1,3,1,-4,-2,-2
1558434649283869,1,2,2,5,4,-3,1,1
1558434649287859,0,0,-4,2,-8,-9,-4,0
1558434649287859,-1,1,5,-4,-4,-7,-3,0
1558434649289854,-2,1,5,11,2,0,-3,-4
1558434649289854,-4,-4,-7,-10,-7,-2,-5,-6
1558434649300824,-2,-2,-2,1,1,5,5,-2
1558434649300824,1,-2,0,-7,4,-4,0,2
1558434649313789,-1,-1,-2,8,7,2,6,1
1558434649313789,1,-1,0,-9,0,0,-1,2
1558434649320770,-1,0,5,7,1,-4,-6,-3
1558434649320770,-4,-4,-7,-5,-6,-1,-2,-3
1558434649328751,1,-1,1,3,-6,-4,-3,-3
1558434649328751,-1,-2,-4,-3,-5,-6,-4,-4
1558434649345703,0,1,-2,-12,-6,4,2,0
1558434649345703,-4,-4,0,8,-11,-11,-7,-6
1558434649349693,-2,-1,1,-5,3,9,5,3
1558434649349693,3,1,2,7,14,3,5,7
1558434649396567,-1,-3,3,7,-3,-5,-4,-3
1558434649396567,-3,-1,1,5,-5,-5,-1,-5
1558434649397565,-2,-3,-2,3,-7,1,-1,-3
1558434649397565,1,1,5,3,0,-4,1,-1
1558434649398563,0,-2,-9,-13,-4,-4,-1,0
1558434649398563,0,0,1,0,3,-4,-2,0
1558434649398563,-4,-2,3,11,4,0,-2,-1
1558434649398563,-2,-3,-6,-9,-5,0,-2,-2
1558434649409534,0,0,2,6,-4,-2,-2,-1
1558434649409534,-4,-5,1,-3,-3,-1,-5,-5
1558434649417511,-1,0,-1,2,0,-2,0,1
1558434649417511,2,2,0,-9,-3,0,-1,-1
1558434649424494,0,1,1,0,8,2,3,2
1558434649424494,0,-1,-4,-6,0,3,1,2
1558434649440451,0,-4,-4,2,5,5,0,-1
1558434649440451,-2,-3,-3,3,-3,-4,-5,-3
1558434649447431,-1,1,3,5,-8,-7,-5,-3
1558434649447431,-2,-2,2,-1,-2,-1,-1,-4
1558434649454413,-2,-1,-9,-10,-11,-5,-4,-3
1558434649454413,0,2,3,-3,7,9,6,3
1558434649469373,1,-2,-5,-4,8,10,4,2
1558434649469373,-1,-2,-8,-1,-2,-2,-2,0
1558434649478350,0,1,-1,-10,-2,-9,-1,0
1558434649478350,-3,-5,-1,11,-7,-9,-4,-2
1558434649484333,-2,-1,5,-1,-6,-4,-1,-2
1558434649484333,0,0,3,2,10,3,0,-2
1558434649500290,-1,-4,-7,-1,-10,-2,-2,-3
1558434649500290,-3,-4,-5,-19,-2,4,6,-1
1558434649507272,2,2,4,8,10,5,4,3
1558434649507272,0,1,2,3,-1,-4,-4,-1
1558434649514252,-2,-1,3,7,6,0,1,-1
1558434649514252,0,-1,-2,6,0,-1,-4,0
1558434649529215,-3,-6,-15,-13,-8,-1,-3,-3
1558434649529215,-1,0,1,5,-5,-4,2,1
1558434649538190,1,1,-2,-12,-2,-2,-2,-2
1558434649538190,-1,-4,1,8,5,3,2,2
1558434649545170,-1,-2,6,3,-4,0,-2,-5
1558434649545170,-3,-3,-11,-15,-5,-4,0,0
1558434649560133,1,0,8,7,7,4,6,4
1558434649560133,0,0,-1,3,2,-4,-4,-1
1558434649567147,-1,0,-3,-3,0,0,-4,-2
1558434649567147,-1,0,4,4,2,6,-1,-3
1558434649575119,-2,1,2,-1,-8,-6,-7,-6
1558434649575119,-3,-1,-3,-6,-8,-6,-2,-1
1558434649590084,2,1,-1,4,10,7,8,5
1558434649590084,0,0,3,7,8,3,3,0
1558434649598028,-1,-3,-7,-16,-4,-2,-1,-3
1558434649598028,-1,-1,1,3,-8,-9,-6,-4
1558434649605044,-3,-4,-1,-4,-8,-1,0,-5
1558434649605044,0,0,-2,-13,-9,-4,-5,2
1558434649620004,0,-1,-2,14,2,0,-2,3
1558434649620004,1,4,3,6,12,5,4,2
1558434649626951,-2,-4,-5,-7,-4,0,-2,-3
1558434649626951,1,-1,1,8,3,6,2,-1
1558434649634929,-1,-1,4,-2,-8,-8,-6,-3
1558434649634929,-2,-3,-1,-8,-6,-6,-6,-3
1558434649649944,-3,-3,-11,-7,-3,-6,-4,-2
1558434649649944,-2,-3,-1,8,-3,-6,-4,-3
1558434649657869,-3,-3,-4,-24,-9,-3,-3,-5
1558434649657869,-1,-1,3,8,4,9,6,-1
1558434649664852,5,5,11,12,15,5,7,7
1558434649664852,-1,-1,-6,-8,-6,-4,0,0
1558434649680808,-3,-1,-2,1,1,1,3,2
1558434649680808,0,2,4,6,1,-2,-6,-4
1558434649686791,-2,0,0,7,-8,-2,-4,-2
1558434649686791,-1,-4,-8,-20,-4,-6,-3,0
1558434649694771,-1,-1,-8,-6,-7,-4,-2,-1
1558434649694771,-3,-4,-5,-13,-8,-2,-2,-4
1558434649709731,0,0,6,6,1,1,0,-4
1558434649709731,1,-1,2,4,4,0,1,2
1558434649717710,1,-1,2,9,7,3,0,2
1558434649717710,3,1,1,-4,1,0,-3,1
1558434649724692,-4,-4,-6,-9,-12,-9,-4,-4
1558434649724692,-3,-2,-5,-13,-1,2,-1,-2
1558434649740650,-1,0,2,4,3,-2,-1,0
1558434649740650,-2,-3,2,6,-5,-4,-4,-3
1558434649747628,-6,-6,-15,-17,-7,-12,-9,-5
1558434649747628,2,2,8,7,9,16,8,6
1558434649754620,0,0,1,5,2,5,5,1
1558434649754620,-2,-1,-5,2,4,2,2,2
1558434649769571,-1,-1,2,-6,-9,-11,-8,-4
1558434649769571,-2,1,1,3,2,0,-4,-3
1558434649785527,3,1,1,5,6,3,3,0
1558434649785527,-1,-2,2,10,-3,-11,-4,-3
1558434649787522,-3,-2,-2,-7,-9,-2,-5,-1
1558434649787522,0,1,0,0,6,7,3,1
1558434649800489,2,1,6,13,13,7,6,4
1558434649800489,-2,-3,-6,-16,-8,-3,-1,0
1558434649807469,1,1,3,10,6,1,3,-1
1558434649807469,-2,0,3,-2,-11,-10,-4,-6
1558434649814451,-2,-2,-5,-12,-10,-6,-5,-2
1558434649814451,-4,-2,-5,-10,6,3,0,-1
1558434649829409,0,-1,-2,0,-2,-1,-2,1
1558434649829409,-2,-3,-2,2,-7,-8,-7,-4
1558434649837388,-2,0,-1,-14,-8,-9,0,-2
1558434649837388,4,4,5,17,16,15,11,7
1558434649844385,-1,-2,-4,-9,14,14,5,1
1558434649844385,0,0,-1,2,0,0,-1,-1
1558434649860359,-2,-3,2,4,-7,-9,-7,-3
1558434649860359,-1,-4,-7,-15,-15,-10,-8,-5
1558434649867344,-1,1,4,-3,1,2,1,-1
1558434649867344,-1,-1,2,13,-2,-1,1,-3
1558434649875287,-5,-7,-13,-12,-4,-5,-7,-6
1558434649875287,-3,1,5,3,3,0,2,-1
1558434649889249,-2,-2,1,1,4,6,3,0
1558434649889249,1,1,-1,-2,3,1,-2,-1
1558434649897228,0,0,6,10,-1,2,2,2
1558434649897228,1,-1,-5,-10,-3,-7,-5,-2
1558434649906205,-1,-2,-1,-3,4,-5,-1,0
1558434649906205,-3,-2,-3,1,-6,-5,-4,-3
1558434649920168,3,2,3,-2,-3,4,3,1
1558434649920168,1,0,1,9,12,2,1,1
1558434649927148,0,1,4,3,0,2,1,1
1558434649927148,1,1,6,4,2,0,2,2
1558434649943106,-3,-7,-16,-13,-4,-5,-4,-4
1558434649943106,-6,-5,-6,-8,-13,-4,-5,-6
1558434649950087,-2,-4,-1,5,-2,-2,-3,-1
1558434649950087,-4,-5,-6,-7,-6,-5,-3,-5
1558434649958066,0,2,7,4,3,2,-1,-2
1558434649958066,1,1,1,5,-2,-2,-1,0
1558434649965048,-2,-1,-5,-17,-8,-5,-4,-1
1558434649965048,-1,-1,0,8,4,6,2,2
1558434649995965,-2,-1,1,-3,6,6,4,1
1558434649995965,0,-1,-2,-10,-6,-4,-2,-4
1558434649996963,1,-1,-1,5,0,1,2,0
1558434649996963,-1,-1,-1,-6,-2,-7,-3,-2
1558434650002946,-1,0,3,8,0,-1,-3,-2
1558434650002946,0,-2,-1,-3,-4,1,-3,-2
1558434650009929,-1,1,-3,-3,-2,-5,-2,0
1558434650009929,-3,-4,-11,-15,-5,-1,1,0
1558434650017907,2,-1,1,3,3,1,0,0
1558434650017907,-3,-3,0,0,-10,-5,-11,-5
1558434650024888,3,2,3,14,3,4,5,1
1558434650024888,2,-1,-6,-21,4,4,0,0
1558434650039847,-3,-3,-3,-9,-8,-3,-3,-2
1558434650039847,1,-1,2,4,5,3,3,1
1558434650046829,0,0,1,-2,-6,-4,-1,-5
1558434650046829,-1,1,7,16,-5,-6,-4,-2
1558434650062788,-2,-2,-1,2,1,-3,-2,-1
1558434650062788,-1,1,1,0,7,3,4,2
1558434650069769,0,-1,-2,2,3,3,4,1
1558434650069769,-3,-3,-3,-2,-4,-7,-2,-3
1558434650077747,-4,-3,-5,1,-2,-5,-3,-3
1558434650077747,1,3,4,2,3,8,2,0
1558434650084729,0,-3,-1,-6,-3,1,-2,0
1558434650084729,3,-2,-1,5,-1,-3,-1,1
1558434650100687,-4,-3,-10,-11,-7,-5,-5,0
1558434650100687,-2,-2,-4,-5,-3,-4,0,0
1558434650106668,0,0,4,8,3,1,-2,-1
1558434650106668,-1,1,1,-2,4,4,1,0
1558434650122684,2,3,6,3,7,7,4,1
1558434650122684,-2,1,2,5,-1,-5,0,-1
1558434650129607,-5,-5,-9,-14,-4,-2,-7,-3
1558434650129607,-1,0,3,3,-6,-3,0,-2
1558434650137586,0,0,-7,2,3,4,1,2
1558434650137586,-2,-5,-5,-9,-3,0,1,-1
1558434650144572,-2,0,4,5,-4,-5,-4,-3
1558434650144572,1,-2,-3,-6,-3,2,-1,-2
1558434650160525,-2,-2,-4,-8,-2,2,-1,-1
1558434650160525,0,-2,0,9,2,1,1,-1
1558434650167510,3,2,4,1,-2,-5,-1,0
1558434650167510,-3,0,-4,-2,0,-4,-4,-5
1558434650182465,2,3,4,1,1,3,1,1
1558434650182465,-1,0,-2,-2,10,13,2,1
1558434650189457,-4,-3,-1,3,-1,-1,-1,0
1558434650189457,-1,-4,-5,-10,-6,-10,-4,-3
1558434650197431,-2,-1,2,8,-3,-6,-1,-2
1558434650197431,-1,-1,-4,-16,-1,5,4,-1
1558434650204408,0,2,1,6,8,4,0,1
1558434650204408,-4,-3,-7,-7,-11,-6,-8,-5
1558434650220377,0,0,2,-8,3,7,2,-1
1558434650220377,0,1,6,18,-4,-13,-4,1
1558434650227346,-2,-5,-9,-28,-6,-1,1,-1
1558434650227346,0,-1,4,4,3,0,1,2
1558434650243307,-1,-3,-4,1,-1,-3,-1,0
1558434650243307,0,1,-2,-6,-4,-3,-1,1
1558434650249288,0,-1,-2,4,-1,3,0,-2
1558434650249288,-2,-1,1,5,5,3,2,2
1558434650257268,0,1,3,12,3,-4,-2,-1
1558434650257268,-1,-4,-5,-6,-8,-6,-6,-4
1558434650272227,-1,-1,-3,-6,-6,-5,-2,0
1558434650272227,-1,-1,3,11,7,7,2,2
1558434650280234,-3,-3,-5,-17,-5,-6,-1,-1
1558434650280234,-2,-3,-3,0,-2,-3,-4,-4
1558434650287187,-1,1,0,-2,-7,-4,-9,-5
1558434650287187,0,3,3,13,8,8,4,-1
1558434650303185,1,0,-3,-4,0,-3,-2,1
1558434650303185,-1,0,-1,3,5,5,2,1
1558434650318170,-4,-4,-5,-7,-8,-4,-4,-2
1558434650318170,0,0,-2,-3,-8,-4,0,0
1558434650318170,1,0,5,1,12,9,1,0
1558434650318170,0,1,-2,0,4,1,-2,2
1558434650332074,1,0,5,11,4,1,0,-1
1558434650332074,-2,-5,-3,2,-8,-9,-6,-4
1558434650340105,-1,1,-1,-14,-11,-7,0,1
1558434650340105,-1,-3,-5,-3,-1,1,-1,-3
1558434650347060,1,0,6,7,4,8,2,1
1558434650347060,-2,-1,2,-4,1,0,-1,-1
1558434650362991,-6,-6,-8,1,-2,-2,-2,-4
1558434650362991,-1,-2,-1,0,-9,-5,0,-2
1558434650370063,-2,0,-7,-6,-1,1,-1,-1
1558434650370063,1,0,0,-4,-1,2,3,1
1558434650385935,2,3,5,11,6,-5,-1,3
1558434650385935,-1,1,1,0,-2,0,1,-2
1558434650391908,-4,-6,-3,12,0,-6,-4,-6
1558434650391908,-2,0,-6,-24,-6,2,-3,0
1558434650408865,-1,-1,3,6,-3,0,-1,0
1558434650408865,0,-1,-4,-10,1,-2,2,1
1558434650409860,1,1,2,-1,-1,-2,-3,-1
1558434650409860,-3,-2,-10,-2,-2,-4,-4,-2
1558434650423032,-3,-2,-3,-6,-6,0,-1,-4
1558434650423032,-1,-2,0,2,5,2,-2,-3
1558434650429811,1,-2,-1,-3,2,0,4,3
1558434650429811,-3,-1,3,4,2,1,0,0
1558434650445950,0,-2,-1,1,-1,0,0,-3
1558434650445950,-3,-3,-2,-9,-8,-6,-6,0
1558434650452786,-2,2,1,1,-1,-1,-1,-1
1558434650452786,0,0,0,-2,5,2,2,-1
1558434650469188,1,-1,-2,-4,-9,1,2,2
1558434650469188,1,1,3,4,9,4,0,-1
1558434650469697,-1,0,-3,-3,-7,-8,-2,2
1558434650469697,2,3,0,4,8,1,-1,-1
1558434650482664,-2,-1,6,7,-5,-2,-4,-2
1558434650482664,-2,-3,-8,-13,-2,-1,-2,-2
1558434650489684,-4,-2,-3,6,0,2,0,-1
1558434650489684,-2,-1,-1,-6,-12,-11,-4,-1
1558434650505608,-1,1,3,2,11,8,2,0
1558434650505608,-3,-3,-5,-8,-10,-8,-2,-1
1558434650512583,1,0,4,15,5,3,6,2
1558434650512583,-1,-4,-5,-14,-1,-4,-4,-3
1558434650528540,0,-2,-1,0,-4,-1,1,-1
1558434650528540,0,1,2,4,7,5,2,2
1558434650529540,-2,-2,-3,-9,-6,-9,-5,-3
1558434650529540,0,-2,5,7,-2,-1,0,0
1558434650542502,0,-1,-5,5,6,4,-1,-1
1558434650542502,-3,-2,-1,-11,-5,-1,-3,-3
1558434650549548,-3,-3,-5,-4,0,-7,-1,0
1558434650549548,-1,2,7,8,2,4,3,0
1558434650565668,0,0,-3,-3,1,0,-1,-3
1558434650565668,0,0,-3,6,-1,-4,-4,-1
1558434650572647,-2,-3,-1,3,-3,-4,-6,-1
1558434650572647,-3,-3,-7,-18,-16,-8,-2,0
1558434650588709,-3,-1,0,-5,1,-1,-1,-3
1558434650588709,-1,2,0,1,2,6,0,-1
1558434650590647,-1,-1,-3,-4,7,8,5,1
1558434650590647,-2,-1,0,7,2,-5,-3,-1
1558434650602342,-3,-1,-4,-6,-10,-15,-8,-3
1558434650602342,-1,1,-1,0,-7,-5,-3,-2
1558434650609323,0,-2,-3,3,6,5,1,-3
1558434650609323,1,1,1,-4,-3,4,3,2
1558434650633294,1,1,0,-2,1,-1,1,1
1558434650633294,0,-3,1,7,-2,-6,0,2
1558434650635289,-2,0,-4,-2,-1,-1,-1,2
1558434650635289,-3,-4,-7,4,1,6,0,-3
1558434650648220,1,-2,0,-4,-2,-3,-3,-3
1558434650648220,-3,-2,5,10,-1,-7,-5,-1
1558434650650259,-1,1,4,-2,3,8,3,1
1558434650650259,0,-1,-7,-14,0,-2,-3,-3
1558434650663181,1,0,-1,6,-1,-1,0,2
1558434650663181,1,-1,-2,-1,-1,1,3,0
1558434650670598,-3,-2,0,-5,-9,-9,-8,-4
1558434650670598,1,-3,-2,0,-3,-1,-2,-4
1558434650686239,-1,0,-1,-1,5,5,3,2
1558434650686239,1,-2,-1,1,1,2,0,-1
1558434650692139,-3,-4,-6,-10,-6,-2,-2,-4
1558434650692139,-1,1,3,7,3,2,-1,1
1558434650708062,1,1,3,3,1,-7,0,3
1558434650708062,-2,0,2,-2,2,1,-4,0
1558434650710054,1,1,5,7,2,-3,-1,2
1558434650710054,-1,-5,-11,-19,-11,-9,-5,-2
1558434650723335,-2,-1,1,8,0,1,0,-2
1558434650723335,-3,-3,-10,-21,-12,-7,-1,-4
1558434650730305,-1,2,5,7,-1,-3,-1,-3
1558434650730305,0,4,6,4,12,9,7,2
1558434650746217,-2,-3,-5,-3,-4,-3,-4,-3
1558434650746217,1,0,4,13,2,1,0,1
1558434650752263,1,-1,-6,-14,-4,-1,0,-1
1558434650752263,-1,-5,-2,2,7,1,-2,-1
1558434650769164,-2,-2,-1,-8,-8,-3,-6,-2
1558434650769164,-3,-2,0,-1,-2,-5,-2,0
1558434650769900,2,0,-3,3,4,5,4,3
1558434650769900,0,1,4,6,3,0,0,1
1558434650782871,-1,0,-3,3,-4,-3,-2,-2
1558434650782871,1,0,-5,-11,0,1,-1,1
1558434650790065,0,0,5,15,2,2,0,-2
1558434650790065,0,-2,-9,-1,1,-4,0,-1
1558434650806003,-2,-1,4,7,-4,-4,-4,-2
1558434650806003,-2,-5,-7,-17,-12,-4,-4,-4
1558434650811784,-2,-1,2,-1,6,4,2,2
1558434650811784,-2,1,4,15,8,3,0,1
1558434650828950,0,1,-1,-1,3,2,2,0
1558434650828950,0,2,3,1,0,0,-1,-1
1558434650829737,-1,-1,-6,-3,-2,-1,0,-1
1558434650829737,0,0,6,3,-2,1,-1,0
1558434650842703,-4,-2,-9,-15,-8,-8,-4,-5
1558434650842703,-3,-2,0,1,4,7,2,-1
1558434650849883,-1,-3,-9,-5,-5,-1,2,1
1558434650849883,0,-1,1,6,-3,-4,-5,-1
1558434650865858,-1,-2,-2,-3,-3,4,-1,-1
1558434650865858,2,2,3,6,8,7,4,2
1558434650872848,-3,-4,-3,-7,-6,-6,-4,-3
1558434650872848,-2,-1,-7,-5,-10,-8,-2,-1
1558434650888782,0,-1,2,-10,8,3,0,0
1558434650888782,-2,0,3,-5,-4,-5,-6,-5
1558434650894566,-2,-2,-5,-3,1,0,0,-2
1558434650894566,-4,-5,-7,-6,-8,-4,-4,-4
1558434650902542,1,0,-1,1,7,9,6,2
1558434650902542,2,2,-2,9,6,-2,3,6
1558434650911529,-2,-3,3,0,-8,-6,-4,0
1558434650911529,-2,1,5,3,5,9,1,-3
1558434650925478,-3,-4,-3,5,-5,-8,-7,-2
1558434650925478,-3,-3,-7,-5,-8,2,4,-4
1558434650932459,1,-2,-8,-5,5,5,3,-1
1558434650932459,0,0,5,-1,-3,-2,-3,-2
1558434650948418,2,1,-1,5,-2,-1,0,1
1558434650948418,-1,0,2,-5,-5,-11,-6,0
1558434650950412,-2,2,3,-2,-8,-8,-9,-5
1558434650950412,1,-2,-1,12,1,4,0,2
1558434650962379,-3,-3,-5,-18,3,6,7,2
1558434650962379,-1,-2,-2,0,2,2,0,-2
1558434650977341,0,-1,0,-3,-2,-2,1,0
1558434650977341,-1,-2,-2,-10,-7,-5,-5,-1
1558434650985355,-2,-1,-2,9,-7,-11,-6,-4
1558434650985355,0,0,0,4,9,9,8,3
1558434650999305,0,3,7,4,5,2,2,0
1558434650999305,-2,-2,-8,-10,-7,-5,0,-1
1558434651008612,-3,-3,0,-8,-9,-3,-3,-4
1558434651008612,-1,-4,-8,5,-2,-9,-5,-3
1558434651010252,0,2,2,-9,6,9,2,2
1558434651010252,-2,-3,-3,-5,0,5,0,1
1558434651022571,-3,-3,-8,-15,-13,-8,-6,-1
1558434651022571,-1,2,3,11,3,1,0,-1
1558434651031195,0,0,3,8,5,2,-1,-1
1558434651031195,-3,0,-8,-10,-5,-9,1,-1
1558434651046156,1,1,0,7,7,-1,-2,2
1558434651046156,-1,-2,-4,-2,0,5,1,0
1558434651052398,0,-3,-2,-6,1,-1,-2,-3
1558434651052398,1,-1,5,3,3,1,4,-1
1558434651069280,0,-3,-1,3,-4,2,1,0
1558434651069280,-3,-2,-2,-10,-10,-11,-9,-6
1558434651070094,-3,-4,-4,-7,-12,-14,-6,-3
1558434651070094,-1,1,5,7,4,8,-3,-2
1558434651082295,1,0,3,6,12,6,5,1
1558434651082295,0,-2,1,-3,2,1,2,2
1558434651091141,-2,-2,-1,2,-3,-3,-3,-1
1558434651091141,-2,-2,0,-4,-13,-12,-7,-3
1558434651106057,0,-2,-7,-2,6,8,5,1
1558434651106057,0,0,5,-3,-3,-8,-3,-1
1558434651112980,-1,0,-10,-3,1,5,0,-3
1558434651112980,0,-2,-5,-2,-1,-2,-1,-1
1558434651128936,-1,-1,2,-3,-6,-3,-3,-6
1558434651128936,0,-1,1,3,2,6,0,-1
1558434651130929,-1,-1,2,-5,-1,-4,-2,-2
1558434651130929,1,-2,2,1,1,-1,-1,-1
1558434651141904,-3,0,4,3,0,-3,-2,-2
1558434651141904,-3,-4,-4,3,-16,-6,-7,-8
1558434651150880,0,2,7,3,5,9,8,3
1558434651150880,1,2,-3,-5,7,2,1,3
1558434651165837,-4,-4,-9,-6,-13,-12,-8,-6
1558434651165837,-1,2,3,4,0,-5,-4,0
1558434651171823,-2,-2,-7,-3,1,2,1,-1
1558434651171823,-5,-5,1,1,-7,-5,0,-1
1558434651188112,7,9,15,12,13,8,8,9
1558434651188112,-5,-4,-13,-22,-9,-8,-6,-3
1558434651195089,-1,-2,-5,-1,-11,-13,-8,-3
1558434651195089,2,1,2,5,4,4,4,2
1558434651202085,-3,-3,1,-2,-4,6,2,-2
1558434651202085,0,1,1,4,-3,0,-1,-1
1558434651211022,0,-1,2,0,1,-2,-1,-1
1558434651211022,-2,-2,-5,-10,2,1,0,-2
1558434651225676,-1,0,0,4,-1,1,0,-1
1558434651225676,0,0,2,9,5,-6,4,0
1558434651231953,-2,0,-3,-3,-2,-7,-6,-3
1558434651231953,-1,-1,-1,-1,1,3,0,-2
1558434651247860,1,-1,-1,2,-1,-2,-4,-1
1558434651247860,-1,-2,-4,-6,-4,0,1,-1
1558434651254600,0,0,2,4,1,-1,-1,3
1558434651254600,-3,0,2,6,1,-2,-5,0
1558434651262795,-5,-2,-6,-17,-4,8,2,0
1558434651262795,3,0,3,4,9,5,3,5
1558434651271555,-1,-1,-3,-3,-9,-12,-6,0
1558434651271555,-3,-1,-1,4,-1,-2,-2,0
1558434651285715,-4,-5,-12,-18,-13,-10,-9,-8
1558434651285715,-5,-1,-2,-1,-4,-3,-4,-4
1558434651292500,2,0,4,0,10,13,9,0
1558434651292500,3,3,3,3,8,7,1,1
1558434651307673,-1,0,2,4,1,-6,-3,0
1558434651307673,-3,-4,-9,-17,-5,-1,-1,-2
1558434651314628,-4,-3,-4,3,-8,-12,-7,-4
1558434651314628,0,-1,-5,-21,-5,-6,4,2
1558434651330395,1,4,4,8,9,13,5,2
1558434651330395,-1,0,-4,-6,1,1,2,1
1558434651331399,-3,-2,-1,-5,-3,2,-2,-5
1558434651331399,-3,-3,-4,-5,-10,-10,-5,-7
1558434651346353,-1,1,5,8,2,-4,0,1
1558434651346353,1,1,3,6,13,12,6,3
1558434651352339,0,0,-2,-3,-4,-7,-3,-1
1558434651352339,0,1,4,5,-7,-6,-4,-2
1558434651367332,0,0,-5,5,7,5,3,1
1558434651367332,-2,-1,1,2,-2,-5,-2,0
1558434651375276,-2,-2,-3,-9,-6,0,-2,-1
1558434651375276,1,-2,1,6,4,5,2,0
1558434651390597,-2,-6,-6,-8,-4,-7,-5,-1
1558434651390597,-1,-2,1,3,-5,-5,-6,-4
1558434651391233,2,2,1,3,3,-4,-2,2
1558434651391233,-1,-1,-6,-4,-6,-5,-4,-3
1558434651406195,-2,-3,-2,4,7,5,-2,-4
1558434651406195,-1,1,-1,-6,-4,2,1,-2
1558434651412518,-3,1,3,5,13,13,8,1
1558434651412518,-6,-4,0,3,-1,-2,1,-2
1558434651427137,0,-1,-2,-5,-6,-9,-2,0
1558434651427137,0,-2,0,2,3,-7,-6,-2
1558434651435392,-1,-1,2,-5,-12,-2,-7,-2
1558434651435392,-1,-1,-2,3,5,9,3,2
1558434651450370,-3,-2,-7,-11,-9,-9,-5,-4
1558434651450370,-2,-1,2,5,-5,0,-1,-2
1558434651451075,-1,-2,-8,-15,3,-4,-2,-1
1558434651451075,0,3,4,1,0,-1,-2,1
1558434651466035,-1,-2,-5,-11,-9,-7,-3,-4
1558434651466035,1,0,-1,2,3,5,5,2
1558434651472530,0,-1,0,3,-2,2,-1,-2
1558434651472530,-2,-1,-1,-6,4,0,-5,-2
1558434651487974,-3,-2,2,12,-5,-2,2,0
1558434651487974,0,2,0,1,6,9,3,1
1558434651495226,-2,2,1,23,8,-1,-3,-1
1558434651495226,-1,-2,-9,-37,-16,-7,1,-1
1558434651509914,-1,-1,-1,-9,-3,-5,-7,-1
1558434651509914,-3,-4,-2,2,0,1,-3,-4
1558434651510915,-1,-1,3,4,5,6,7,2
1558434651510915,0,0,2,6,0,-12,-6,1
1558434651525875,0,1,-4,-2,1,1,3,1
1558434651525875,0,0,-2,-6,0,5,-3,-1
1558434651531859,-2,-1,2,2,0,3,-1,-3
1558434651531859,-1,-2,-2,1,0,-5,-1,-1
1558434651547888,0,0,4,13,6,5,1,1
1558434651547888,-3,-5,-11,-18,-7,-4,-2,-2
1558434651555088,1,-2,-1,9,-1,2,0,-1
1558434651555088,-2,-2,-2,-5,-4,1,-3,-2
1558434651569757,-1,0,4,0,-3,-3,-2,-4
1558434651569757,-2,0,-1,3,-8,-9,-7,-3
1558434651570754,-1,-2,-4,-6,-2,-2,4,1
1558434651570754,0,1,0,4,3,4,2,0
1558434651585994,0,1,0,-2,8,12,4,2
1558434651585994,0,3,4,11,6,-4,1,1
1558434651591825,-2,-3,-2,-9,-6,-4,-4,-4
1558434651591825,-1,-1,3,7,-1,1,0,-2
1558434651607946,-2,-1,2,8,-2,-9,-2,1
1558434651607946,-1,-2,-1,-7,-3,1,1,2
1558434651614910,-3,-4,-6,-6,-4,-8,-6,-3
1558434651614910,-2,-3,-8,-12,-5,7,1,-3
1558434651630866,0,0,2,1,2,6,2,-1
1558434651630866,1,1,5,8,4,-3,5,2
1558434651631590,-2,0,1,-2,-6,-7,-5,-2
1558434651631590,-5,-5,-5,0,-11,-7,-7,-7
1558434651646551,-1,-1,1,1,7,7,1,0
1558434651646551,-1,-1,-2,5,-1,0,1,-4
1558434651652792,1,0,1,-3,-6,-5,-1,0
1558434651652792,0,-3,-3,5,5,-3,-2,0
1558434651667792,-1,-3,-1,-5,-3,-1,0,-1
1558434651667792,-1,0,0,-5,-2,0,-1,0
1558434651674480,-1,-1,0,0,-4,-4,-3,-2
1558434651674480,-3,-1,-1,2,-3,-5,-5,-2
1558434651690434,1,2,1,6,14,10,7,3
1558434651690434,-1,0,-1,-1,-2,-5,-5,-1
1558434651691428,-1,-1,-3,-4,-3,1,-1,-2
1558434651691428,-1,-1,2,0,-3,-5,-2,-2
1558434651706428,-4,-2,-2,-3,-4,-3,-2,-1
1558434651706428,-1,-4,0,-2,-9,-5,-3,0
1558434651712400,1,1,0,-2,3,0,-1,0
1558434651712400,1,2,1,6,10,3,-2,-1
1558434651727334,-1,-2,-5,-3,-8,-8,-6,-6
1558434651727334,-1,-2,-2,-4,3,0,-2,1
1558434651734315,-2,-3,-1,-5,-3,-2,0,3
1558434651734315,1,0,3,3,4,3,4,5
1558434651750273,-2,-3,-3,-2,-5,-5,-6,-4
1558434651750273,-3,-2,0,5,-3,1,2,-2
1558434651751272,0,2,-1,-6,7,8,4,1
1558434651751272,-4,-4,-6,-4,-7,-11,-5,-5
1558434651766231,0,1,1,-4,-2,-2,-2,-3
1558434651766231,-1,0,-1,5,1,0,-1,-1
1558434651772213,2,-1,1,-8,-1,3,3,-1
1558434651772213,-1,-1,2,5,4,4,1,0
1558434651787174,0,0,-3,-8,-11,-15,-8,-3
1558434651787174,-1,-2,-3,-15,-1,3,1,0
1558434651794154,1,2,3,7,1,-2,2,2
1558434651794154,0,1,-2,1,4,-2,1,2
1558434651812106,-2,-3,1,-5,-8,-8,-6,-3
1558434651812106,-1,-2,-3,2,-3,-2,-3,-2
1558434651812106,-1,-2,2,4,-4,1,1,-1
1558434651812106,1,1,8,12,9,7,6,3
1558434651826069,0,-1,0,2,2,4,1,1
1558434651826069,-2,-4,-7,-4,-1,-5,-3,0
1558434651832056,-2,-3,-7,-16,-5,-2,-4,-3
1558434651832056,0,0,-2,1,-4,0,-1,-1
1558434651847012,1,2,6,9,3,-1,0,1
1558434651847012,0,2,-3,0,3,-3,-3,-1
1558434651854993,-1,0,-1,-3,-3,-1,-3,-2
1558434651854993,-3,-2,-1,-1,-6,-4,-3,-3
1558434651870009,-1,-2,-4,-5,-5,-2,3,2
1558434651870009,2,1,2,7,10,2,2,1
1558434651870950,-2,1,-1,6,10,4,-4,-1
1558434651870950,-2,-4,-12,-24,-11,0,-2,0
1558434651885908,0,2,5,13,4,1,2,3
1558434651885908,-4,-3,2,-3,-6,-1,1,-4
1558434651891892,0,-1,-10,-13,-2,-3,0,-2
1558434651891892,1,0,8,18,5,1,-1,-3
1558434651906851,-3,-5,-10,-15,-8,0,-4,-2
1558434651906851,-2,1,0,-2,3,-5,-3,-1
1558434651914860,0,0,1,8,2,-1,2,3
1558434651914860,1,1,-2,-11,-5,-8,-1,0
1558434651929826,-2,1,5,12,2,1,1,0
1558434651929826,0,-2,-1,-2,-2,3,-4,-2
1558434651930788,0,-1,-1,-2,-4,-1,-3,-4
1558434651930788,-1,-2,-1,3,2,-1,-2,-1
1558434651945750,-1,-3,0,2,1,-1,0,2
1558434651945750,-2,-4,-7,-16,-3,2,0,-1
1558434651951732,-4,-4,4,10,-5,-8,-5,-5
1558434651951732,1,-2,-10,-7,1,0,1,1
1558434651966711,1,1,2,7,4,5,2,0
1558434651966711,-1,-1,-4,-5,2,3,0,0
1558434651974672,-2,-2,-1,-10,-4,-1,1,2
1558434651974672,-3,-3,-2,-2,-4,-5,-5,-4
1558434651990630,-3,-3,-10,-6,-14,-10,-7,-4
1558434651990630,-1,1,6,7,9,10,9,3
1558434651990630,0,2,2,8,8,1,2,2
1558434651990630,1,2,2,1,-1,3,2,-1
1558434652005589,0,0,-2,-17,-5,-5,-1,-3
1558434652005589,-4,-5,-5,-7,-12,-7,-7,-6
1558434652011572,1,2,4,13,0,0,2,1
1558434652011572,-1,2,0,6,3,5,4,2
1558434652027531,-3,-4,-2,-7,5,0,-2,-5
1558434652027531,0,0,0,-7,-10,-10,-5,-1
1558434652034510,-2,-5,-10,-7,3,2,-1,-1
1558434652034510,1,-2,1,7,6,3,2,-1
1558434652050470,-2,-1,-1,5,1,4,0,-1
1558434652050470,-4,-2,2,-2,-8,-6,-3,-2
1558434652050470,-2,-2,-2,-6,-9,-6,-4,-2
1558434652050470,-1,0,6,8,0,0,-4,-2
1558434652066425,0,-3,-8,-12,4,3,3,2
1558434652066425,1,-1,-1,-5,-2,-1,-2,-3
1558434652072410,1,1,0,7,8,2,1,1
1558434652072410,-2,-1,5,0,-5,-4,1,-1
1558434652088366,-3,-1,-2,3,-5,-7,-4,-3
1558434652088366,-1,1,-4,-3,-1,1,-4,0
1558434652094351,0,-1,-4,-8,-1,9,2,-2
1558434652094351,1,-1,-2,-10,1,2,-1,2
1558434652109310,-1,0,8,11,1,-6,-5,0
1558434652109310,-2,-3,-10,-15,-2,-5,-1,-3
1558434652117289,-2,-2,0,-9,-9,-5,-5,-5
1558434652117289,-4,-2,6,18,2,2,1,-2
1558434652126266,-3,0,-10,-16,-1,3,1,-1
1558434652126266,1,0,10,13,1,-2,-7,-1
1558434652132249,-1,0,2,11,7,-1,3,3
1558434652132249,2,4,3,-2,-3,-6,-2,0
1558434652148207,0,-3,-7,-14,-7,-2,-3,-1
1558434652148207,0,2,7,16,10,7,4,1
1558434652154191,-7,-10,-24,-21,-20,-9,-7,-6
1558434652154191,0,-1,5,5,3,1,-3,-1
1558434652171146,3,5,19,15,13,7,6,3
1558434652171146,0,-1,-6,0,-3,-3,2,1
1558434652177130,-2,-3,-4,1,1,-3,-5,-2
1558434652177130,-4,-4,6,-10,-4,2,-1,-2
1558434652186107,-3,-2,-9,-2,-12,-6,-6,-5
1558434652186107,2,2,6,6,16,14,14,5
1558434652192090,5,5,7,9,13,5,3,2
1558434652192090,-3,-5,-15,-12,-8,-9,-6,-5
1558434652209045,0,-1,9,-1,-2,-1,-4,-5
1558434652209045,0,-1,6,-2,-10,-6,-4,-1
1558434652214031,-1,-1,-3,-6,-1,-3,-3,0
1558434652214031,5,7,12,12,17,6,4,4
1558434652229989,-6,-11,-36,-22,-12,-5,1,-1
1558434652229989,-3,-3,-6,-10,-6,-6,-6,-5
1558434652236973,-3,-2,2,7,0,3,0,-2
1558434652236973,-2,0,2,-5,1,0,-1,-1
1558434652245944,4,3,15,12,0,-6,-1,3
1558434652245944,-3,-3,-7,-1,3,-3,-5,-2
1558434652251929,3,0,3,-14,-3,0,0,0
1558434652251929,-2,-5,-19,-26,-8,-2,-4,-4
1558434652268938,-4,-3,-4,-6,-3,-2,0,-1
1558434652268938,-1,1,8,19,8,6,5,3
1558434652274869,-3,-2,2,-9,-11,-10,-5,-1
1558434652274869,-1,-1,-2,2,-1,0,1,0
1558434652289827,-1,1,-3,-10,-3,0,-4,-3
1558434652289827,-1,-2,1,10,4,3,1,-3
1558434652296843,-1,-3,2,13,-2,1,2,-1
1558434652296843,-3,-4,-12,-19,-11,-1,-1,-1
1558434652312794,-1,-1,2,7,5,-1,-2,0
1558434652312794,0,2,-1,-3,-5,-6,-3,1
1558434652313764,-1,1,4,7,2,-4,-3,-1
1558434652313764,-4,-9,-5,1,-8,-6,-3,-4
1558434652328723,3,3,5,-13,5,6,3,1
1558434652328723,1,-2,-7,-1,0,2,0,-4
1558434652334707,-2,0,-6,-13,-6,-6,-3,-2
1558434652334707,0,0,6,12,-3,-1,0,-1
1558434652349667,-3,-2,4,-4,-6,-6,-4,-4
1558434652349667,1,3,-6,-3,-7,-8,-5,-1
1558434652356648,-4,-7,-13,-5,10,11,5,2
1558434652356648,1,2,4,9,4,5,0,0
1558434652372608,-1,-1,2,16,1,3,2,-1
1558434652372608,-2,0,-4,-32,-6,-6,-2,0
1558434652373605,1,5,8,5,-4,-8,-5,-4
1558434652373605,-4,-5,-12,1,0,-1,-3,-4
1558434652388565,0,0,-1,-5,1,-1,-2,-1
1558434652388565,2,-2,-2,4,0,11,5,1
1558434652394548,0,2,4,-3,1,6,6,4
1558434652394548,-3,1,1,0,0,-6,-3,-3
1558434652409511,0,-1,1,19,2,4,2,1
1558434652409511,1,-1,-5,-12,7,2,2,2
1558434652417507,-2,-2,0,6,-7,-10,-8,-1
1558434652417507,2,3,1,-11,0,4,1,1
1558434652432447,-3,-1,4,5,4,3,1,-1
1558434652432447,-3,-3,-2,8,-4,-3,-3,-4
1558434652433445,2,0,-1,3,0,2,0,-3
1558434652433445,-1,1,-1,-7,-1,-5,-1,1
1558434652448404,1,-4,0,10,4,4,1,-1
1558434652448404,-2,-3,-5,-10,-5,-3,-3,-3
1558434652454446,-1,-1,4,11,-7,-9,-5,-3
1558434652454446,1,-3,-3,-1,-4,-5,-2,0
1558434652469414,3,2,9,1,4,2,2,4
1558434652469414,-1,-2,-11,5,2,3,2,1
1558434652477326,-3,-1,-5,-24,-5,0,0,-1
1558434652477326,-2,-3,-9,-7,-5,-8,-4,-2
1558434652493286,-2,-1,-2,-4,-4,-1,0,-4
1558434652493286,1,-2,5,3,3,-4,-3,-1
1558434652493286,-1,-2,-1,-4,-7,-5,-3,-2
1558434652493286,1,3,4,3,0,4,2,-2
1558434652508243,-1,-3,-7,-3,0,-1,-5,-1
1558434652508243,0,1,11,9,4,8,1,0
1558434652514255,-1,-2,-3,4,0,-1,3,3
1558434652514255,-3,-6,-8,0,-5,-5,-4,-3
1558434652529223,-1,0,-3,9,-6,-8,-2,-4
1558434652529223,0,-1,-2,-12,-4,0,0,-1
1558434652537166,3,1,4,-3,3,3,6,1
1558434652537166,1,0,5,12,11,7,4,0
1558434652553615,-1,-1,-10,-10,5,6,4,0
1558434652553615,-2,-2,0,-4,-12,-12,-8,2
1558434652553615,-2,0,7,3,-2,-2,-1,-9
1558434652553615,-3,-3,-6,-3,-4,-4,-4,-2
1558434652568084,0,-2,2,5,6,6,2,1
1558434652568084,-2,-2,1,3,1,-5,-2,-4
1558434652575065,0,0,4,15,-1,2,-3,1
1558434652575065,-2,-1,-5,-19,-3,-1,1,1
1558434652590469,-2,-1,-2,-18,-11,-8,-5,-3
1558434652590469,-1,0,-1,5,-2,1,-6,-4
1558434652597006,0,-3,-6,-2,0,-4,-2,0
1558434652597006,0,-1,0,3,2,2,2,-1
1558434652613261,-1,-2,-4,-6,-1,-4,-1,1
1558434652613261,0,0,2,6,4,1,-1,-1
1558434652613261,2,-3,-7,-6,-5,-3,-4,-3
1558434652613261,1,1,2,11,4,1,-3,-1
1558434652628922,-1,-3,-1,-13,-10,-12,-7,-2
1558434652628922,-3,1,1,8,1,2,4,-1
1558434652634905,-4,-3,-4,5,8,12,8,1
1558434652634905,0,-2,-5,-19,-12,-7,-5,-1
1558434652649899,0,0,1,9,-2,-7,-4,1
1558434652649899,-3,-4,-4,-15,-12,-14,-9,-6
1558434652656904,-2,-1,1,-3,0,3,1,0
1558434652656904,4,5,10,8,11,4,4,5
1558434652672805,-2,0,-5,4,2,2,-2,-3
1558434652672805,1,0,0,-8,-6,5,3,1
1558434652673802,-1,-1,-7,4,-2,-8,-8,-3
1558434652673802,-2,-4,-2,-11,-6,-2,1,-3
1558434652688762,-2,-1,0,0,0,-2,-2,-2
1558434652688762,-1,-1,4,12,0,-6,-2,2
1558434652694744,-1,-1,0,-12,-4,-3,-3,-1
1558434652694744,1,3,7,11,7,7,3,0
1558434652709725,-2,-1,-9,-11,-3,-3,0,-2
1558434652709725,-4,-2,-6,-4,-2,1,-1,-4
1558434652716685,-1,-3,-2,-4,-6,-4,-3,-1
1558434652716685,-2,0,5,4,2,-5,-1,0
1558434652732645,2,2,3,10,7,7,3,2
1558434652732645,-1,0,0,-12,-7,-4,-3,-2
1558434652733643,1,2,-6,-5,-1,-3,-3,-2
1558434652733643,-1,-4,1,9,-4,1,-3,-3
1558434652748603,-2,-4,-5,-17,-1,4,1,1
1558434652748603,-3,-2,-6,-3,0,-1,-1,0
1558434652754643,-1,2,7,9,2,5,0,-2
1558434652754643,-4,-5,-10,-15,-10,-7,-6,-5
1558434652769546,0,2,9,13,-1,-6,0,0
1558434652769546,1,0,-5,-2,7,7,3,0
1558434652777524,-1,0,5,6,-1,-5,-2,-1
1558434652777524,-1,-1,-10,-16,-3,7,2,0
1558434652794480,-1,-6,-1,1,-3,-3,-4,-5
1558434652794480,-3,-3,-3,-1,-4,-4,-2,0
1558434652794480,2,0,4,7,11,4,2,3
1558434652794480,1,0,3,7,-6,-4,-2,-1
1558434652808442,0,2,-1,-6,2,5,0,-3
1558434652808442,-2,-3,-3,-3,-7,-5,-2,-3
1558434652814455,1,0,-3,-8,1,3,4,3
1558434652814455,-1,0,0,5,3,-4,-4,0
1558434652829385,-2,-2,3,-6,-6,-4,-1,-1
1558434652829385,-3,-6,-11,-4,-5,1,-5,-3
1558434652837368,-1,-2,1,-2,-2,-1,-2,1
1558434652837368,0,2,4,10,3,1,2,3
1558434652852323,-1,-2,0,0,3,4,1,0
1558434652852323,1,-1,-2,-5,-3,-5,1,2
1558434652859305,0,-2,2,7,-1,1,1,-3
1558434652859305,0,-3,-4,-9,-3,-5,-4,0
1558434652868280,-1,-2,0,9,3,0,-5,0
1558434652868280,-4,-1,1,2,3,2,-1,-1
1558434652874291,0,-1,0,5,-1,-2,0,1
1558434652874291,0,0,-1,-7,-2,-1,1,-1
1558434652889224,0,-3,-3,-10,-8,-3,-7,-3
1558434652889224,2,1,6,21,-2,-2,-2,-1
1558434652897231,-1,-2,-8,-16,-9,-8,-2,-2
1558434652897231,-2,1,1,2,13,12,3,0
1558434652913202,-1,-3,-4,-3,-8,-8,-1,-2
1558434652913202,0,1,-1,-3,-5,-8,-2,-3
1558434652913202,1,3,11,19,13,13,4,2
1558434652913202,-4,-3,-8,0,-6,-1,-1,-3
1558434652928178,-2,2,-4,-9,1,3,1,3
1558434652928178,-3,-3,-5,0,2,-7,-2,0
1558434652934315,-2,-3,-6,-20,-11,-5,-5,-5
1558434652934315,0,1,4,10,6,0,1,0
1558434652950018,-2,-1,-1,4,-5,-2,-1,-3
1558434652950018,-2,-3,-1,-4,-3,-1,1,-1
1558434652958058,-3,1,1,5,-2,-7,-5,0
1558434652958058,2,1,2,6,5,2,5,2
1558434652972869,0,0,1,-2,-1,1,3,1
1558434652972869,0,0,-2,-3,0,-4,-3,-1
1558434652973517,-3,-5,-9,-10,-9,-5,-3,-2
1558434652973517,-1,-2,2,-7,-11,-6,-6,-5
1558434652996874,0,0,-1,9,11,5,3,1
1558434652996874,1,1,2,0,-1,2,0,0
1558434652997454,-4,-3,-1,11,3,3,1,-2
1558434652997454,-1,0,-7,-12,-11,-8,-4,0
1558434653009422,-2,-2,-2,-2,-3,-4,-3,0
1558434653009422,1,3,6,3,10,14,6,1
1558434653017458,-3,-2,-6,-5,1,-3,0,-3
1558434653017458,-4,-3,-2,-4,-11,-7,-5,-5
1558434653032429,-1,-1,-2,1,-3,-4,-4,-3
1558434653032429,0,-1,-2,-7,-2,-2,-1,1
1558434653039370,3,2,2,-6,-1,-4,0,5
1558434653039370,4,3,6,20,16,4,3,2
1558434653048318,0,3,8,4,0,5,1,0
1558434653048318,-2,-2,-9,0,-3,-3,0,-1
1558434653055338,-3,-4,-5,-14,-9,-5,-7,-1
1558434653055338,-4,-4,-9,-7,-2,-3,-4,-3
1558434653069588,0,-2,0,0,4,1,1,0
1558434653069588,4,3,10,15,14,14,9,6
1558434653077275,1,-1,-1,8,5,4,-4,-3
1558434653077275,-1,-1,-2,-16,-6,-2,-2,-3
1558434653092198,-4,1,-1,-1,-1,-5,-5,-1
1558434653092198,-4,-3,3,6,-4,-5,-3,-6
1558434653099238,-3,-2,-10,-23,-13,-4,-4,-2
1558434653099238,-1,-3,-1,8,0,2,1,0
1558434653117132,0,0,-4,-2,-6,-6,-2,-2
1558434653117132,0,1,-4,-11,4,4,2,-1
1558434653117132,-2,0,3,8,3,-3,-2,-3
1558434653117132,-2,-2,0,2,-4,-7,-3,-2
1558434653129122,1,-1,-1,1,-2,-2,2,2
1558434653129122,1,-2,1,9,-3,-2,-3,-2
1558434653137411,3,1,-2,-12,0,-4,2,-2
1558434653137411,-1,0,4,1,6,11,2,3
1558434653152374,-2,-4,-7,-5,-6,-4,-5,-1
1558434653152374,-5,-4,-6,-17,-9,-9,-6,-2
1558434653160031,-1,-1,-2,-1,-2,6,7,-1
1558434653160031,1,1,-2,-3,-2,-6,1,0
1558434653168996,0,2,0,-1,3,3,0,2
1558434653168996,1,1,4,14,12,6,0,0
1558434653174978,1,-2,-3,-2,0,-3,-3,-2
1558434653174978,1,0,5,8,-5,-6,-1,-1
1558434653189938,-3,-6,-11,-17,-13,-2,-1,-2
1558434653189938,-2,1,-1,-2,4,1,0,0
1558434653197247,-1,0,2,7,6,-1,-2,0
1558434653197247,-1,-1,1,11,5,1,-2,-2
1558434653211951,-1,-2,4,4,1,-4,-1,-3
1558434653211951,0,-2,1,-2,-12,-3,-1,0
1558434653219932,-1,-1,0,9,2,3,-2,-1
1558434653219932,-2,-2,-10,-23,-8,-1,-4,-2
1558434653234846,-2,0,-1,3,3,3,4,0
1558434653234846,1,0,2,-9,-3,-7,-3,-1
1558434653235816,-1,0,3,12,9,7,2,0
1558434653235816,-2,-5,-3,-10,-8,-1,-1,0
1558434653249806,-3,-3,-3,-4,-5,-6,-4,-3
1558434653249806,-2,-2,-1,-5,-1,0,3,1
1558434653264769,-1,-3,-4,-1,-5,-6,-2,-2
1558434653264769,-1,-3,-5,1,4,1,-1,-3
1558434653271817,-1,0,4,0,1,-4,-3,-2
1558434653271817,-3,-1,0,-1,-1,-1,-2,1
1558434653279793,-2,1,0,3,5,4,2,1
1558434653279793,0,-1,-1,-7,-5,-7,-3,-3
1558434653295722,1,1,2,-2,-2,-2,0,0
1558434653295722,-4,-4,-8,-5,-9,-4,-4,-1
1558434653295722,-2,-4,-7,-16,-6,-3,-5,-2
1558434653295722,-5,-3,-3,0,0,3,-2,-1
1558434653309687,1,-1,2,8,-1,-3,-4,0
1558434653309687,-3,-2,-4,-2,3,0,-2,-1
1558434653316665,1,1,3,8,2,5,3,-1
1558434653316665,-1,-3,0,1,-1,2,0,-1
1558434653331626,-2,-4,-10,0,-3,0,-2,-2
1558434653331626,-2,-1,-3,-14,-8,-3,-1,-1
1558434653339603,0,0,1,-2,0,-2,-2,1
1558434653339603,1,2,4,4,5,1,0,1
1558434653355750,-1,0,2,6,4,8,5,0
1558434653355750,-1,-1,-4,3,-3,-8,-7,-4
1558434653355750,-4,-3,-5,-11,-15,-6,-4,-5
1558434653355750,3,2,3,4,7,6,7,3
1558434653369608,2,0,1,-4,5,4,5,3
1558434653369608,-1,0,1,5,2,-1,0,-1
1558434653377537,-1,0,2,-1,-5,-4,-5,-4
1558434653377537,-2,0,-1,0,-3,-5,-6,-3
1558434653392476,-5,-2,-5,-16,-15,-8,-7,-5
1558434653392476,1,2,5,14,15,8,5,2
1558434653399510,-1,0,-2,-11,-1,1,1,2
1558434653399510,-2,-2,-4,-1,-2,0,-1,-1
1558434653415467,0,0,2,3,8,7,6,0
1558434653415467,0,-2,1,2,-10,-6,-3,-1
1558434653416400,0,-3,0,3,3,-1,-2,-1
1558434653416400,-1,0,1,1,1,-3,-3,0
1558434653429450,-1,0,-2,-10,-6,-4,-4,-2
1558434653429450,-2,-1,0,2,0,-1,0,0
1558434653437435,0,1,-1,8,2,-1,-2,0
1558434653437435,-1,-1,-4,-18,-6,2,1,-2
1558434653452393,-2,-4,-4,6,6,-1,-2,-2
1558434653452393,1,-1,1,-6,-2,1,1,-1
1558434653459294,-3,-2,3,9,-1,-2,1,-2
1558434653459294,-1,1,-4,0,-2,-5,-2,-1
1558434653475240,0,-1,-1,10,-6,-7,-6,-1
1558434653475240,1,-2,-8,-23,5,10,5,0
1558434653478548,0,-1,1,-2,-3,-3,-1,2
1558434653478548,1,-1,0,2,4,5,2,3
1558434653489240,0,1,0,1,7,2,0,2
1558434653489240,-3,-1,0,3,-1,-1,-4,-4
1558434653497212,-4,-2,-5,-5,-7,-1,-6,-5
1558434653497212,0,-2,-3,2,-1,-7,-3,-2
1558434653512171,3,2,2,-3,-2,-5,-2,-1
1558434653512171,0,-4,0,7,-4,1,0,-2
1558434653519158,2,2,-1,-14,5,3,5,4
1558434653519158,0,-1,8,13,4,2,0,-1
1558434653543060,-1,-2,-3,-1,2,4,2,0
1558434653543060,-4,-3,-3,3,-6,-10,-4,-3
1558434653544061,-1,-4,-3,-9,-2,-2,-3,-3
1558434653544061,-2,1,0,0,-1,2,3,1
1558434653550045,-1,1,5,6,5,2,3,1
1558434653550045,1,3,2,5,-3,-2,-3,-1
1558434653557057,-3,-5,-9,-11,-5,-5,-3,-2
1558434653557057,3,1,2,5,2,5,1,1
1558434653573010,-3,-2,0,5,-1,-1,-3,-4
1558434653573010,-4,-3,-10,-21,-13,-6,-1,-1
1558434653579979,-3,-1,-2,8,2,0,1,0
1558434653579979,-1,-3,-7,-6,-5,-7,-4,1
1558434653596916,-1,-1,3,1,4,3,1,1
1558434653596916,-2,-1,-5,-1,-2,-2,-5,-2
1558434653596916,0,1,3,1,3,5,6,-2
1558434653596916,0,1,-1,1,0,0,1,0
1558434653617969,-2,-1,3,5,4,4,-1,0
1558434653617969,-1,-1,2,0,-4,-3,0,-1
1558434653618944,-2,-5,-1,6,-4,-6,-6,-6
1558434653618944,-4,-6,-7,-10,-12,-5,-6,-4
1558434653631868,1,1,-2,2,2,2,4,3
1558434653631868,3,3,2,1,10,1,0,4
1558434653639842,-2,1,1,5,-1,3,3,0
1558434653639842,-3,-1,1,7,1,-2,-1,-1
1558434653654807,-2,-2,-6,-16,-7,-3,-5,-2
1558434653654807,0,-2,5,10,5,5,-1,-1
1558434653655758,-2,0,-13,-9,-9,1,-3,-4
1558434653655758,-1,-1,-1,-21,2,3,1,0
1558434653669765,-1,-3,-3,-3,-8,-8,-3,-2
1558434653669765,0,-4,-1,-5,-2,-4,1,-2
1558434653676744,0,-1,4,7,3,1,0,1
1558434653676744,-2,-3,-1,6,-1,3,-1,-2
1558434653691696,0,0,-6,-13,-11,-2,-3,-3
1558434653691696,-3,-1,2,6,-6,-7,-5,-4
1558434653707655,2,3,10,15,9,4,1,1
1558434653707655,-1,-3,-9,-12,3,0,3,1
1558434653715630,-3,-4,-5,-3,-5,-6,-6,-5
1558434653715630,-2,1,0,-5,-3,1,1,-2
1558434653715630,-1,1,1,-5,-4,2,1,-1
1558434653715630,-1,-1,1,4,-7,-8,-3,-2
1558434653729597,0,0,4,10,3,-3,1,-1
1558434653729597,0,-2,-4,-7,-5,-2,-1,-3
1558434653736580,1,-3,0,0,0,-8,-5,2
1558434653736580,1,1,0,6,0,7,3,0
1558434653752502,0,-1,-1,-7,5,3,1,0
1558434653752502,-3,-4,-6,-2,-3,-3,-7,-2
1558434653759480,-3,-2,2,2,-2,-2,3,-1
1558434653759480,-3,-2,-1,3,-6,-6,-7,-3
1558434653775441,0,1,1,-8,2,7,5,2
1558434653775441,1,2,6,13,5,4,6,3
1558434653775441,-1,-4,-21,-19,0,0,-5,-2
1558434653775441,-2,0,0,0,-4,-10,0,-3
1558434653789402,-2,-1,2,2,-7,-4,-1,-1
1558434653789402,0,0,4,3,3,-3,-6,-2
1558434653797378,1,0,0,-3,-5,-7,-1,0
1558434653797378,0,-1,-1,3,-3,-3,-5,-5
1558434653812341,-1,-1,2,17,0,-5,-2,0
1558434653812341,2,0,-5,-16,9,11,7,6
1558434653819319,-1,-2,4,5,1,3,1,-1
1558434653819319,-2,0,0,-8,-2,-7,-4,1
1558434653835276,0,2,-4,6,5,4,2,-1
1558434653835276,-3,0,-1,-3,-4,0,0,-1
1558434653836273,1,1,0,-3,0,0,0,-2
1558434653836273,-1,-2,0,-7,-2,4,-3,-2
1558434653849645,-1,-2,2,-1,1,-3,-3,2
1558434653849645,-1,-3,-6,-7,-7,-6,-1,-2
1558434653865475,-2,-1,1,6,2,0,-1,-5
1558434653865475,-2,-2,0,4,3,7,4,-1
1558434653872458,-1,-1,1,1,-1,-5,-2,-1
1558434653872458,-2,-1,-5,-7,-9,-1,-3,0
1558434653879435,-2,-4,-1,-6,-2,1,-2,-1
1558434653879435,4,1,2,1,0,-2,1,0
1558434653895392,-2,-3,-7,0,0,2,-1,1
1558434653895392,-1,-2,-2,10,0,-5,-3,-1
1558434653896388,-2,-3,-7,-15,-7,-13,-8,-2
1558434653896388,-2,0,-2,-4,-5,-3,-2,-2
1558434653911306,1,0,1,1,6,6,4,-2
1558434653911306,-4,-3,2,-2,-3,1,0,-2
1558434653917320,-1,0,-6,6,-1,3,2,-1
1558434653917320,-3,-3,-12,-22,-7,-7,-5,-3
1558434653932283,1,-1,-2,-1,-7,-6,-2,-1
1558434653932283,-2,-2,0,4,2,-3,-1,-2
1558434653939269,0,-1,3,3,-1,-1,-2,0
1558434653939269,0,1,5,11,9,6,4,2
1558434653955228,-3,-1,-1,-2,-9,-5,-4,-3
1558434653955228,1,0,-3,-9,-4,-3,-2,-3
1558434653956193,1,1,7,11,6,-2,-1,-1
1558434653956193,-1,-4,-15,-14,3,6,2,1
1558434653971151,-1,-4,-4,-17,2,7,0,-2
1558434653971151,-2,-1,2,5,-4,-1,1,1
1558434653977168,-4,-3,-2,-10,-11,-8,-4,-3
1558434653977168,1,3,6,12,12,5,2,1
1558434653992093,1,0,-3,-5,2,3,1,-1
1558434653992093,-1,-2,3,3,-4,-3,1,-2
1558434653999072,-1,2,2,7,6,1,0,0
1558434653999072,-2,-2,-2,2,-7,-7,-4,-2
1558434654014061,-3,-3,-7,-6,-4,1,-1,-1
1558434654014061,0,0,0,-5,3,2,-2,-2
1558434654022038,-1,-1,-2,2,-5,-6,-2,0
1558434654022038,1,2,5,10,12,14,7,2
1558434654030987,-1,0,1,-5,-2,-4,-3,-1
1558434654030987,0,-2,-2,-11,-5,-2,-3,-1
1558434654036971,-1,-3,-6,-6,-8,-1,-1,-3
1558434654036971,-3,-3,-6,-1,-13,-12,-5,-3
1558434654052150,3,3,10,11,9,3,1,2
1558434654052150,-1,-1,-1,9,9,6,3,0
1558434654059910,1,0,1,-9,-5,-3,-1,1
1558434654059910,1,-2,2,4,2,-1,0,1
1558434654074868,-2,-2,0,5,-1,-3,-2,-1
1558434654074868,-2,-2,-4,-7,-13,-8,-5,-4
1558434654081915,0,-2,1,-4,-2,-2,-4,-3
1558434654081915,-1,-4,-6,-19,-3,-3,-1,1
1558434654090827,-2,-3,-5,-9,0,1,2,-2
1558434654090827,0,1,5,5,6,1,2,0
1558434654096875,0,1,0,8,0,-2,-1,-1
1558434654096875,-3,-1,-1,-5,-7,-1,-3,-2
1558434654111771,-2,-1,1,5,0,-3,-4,-3
1558434654111771,-3,-5,-11,-4,-8,0,-1,-2
1558434654119777,0,0,7,7,5,5,3,1
1558434654119777,-2,-4,-12,-14,-13,-10,-4,-4
1558434654134711,-1,0,3,2,-7,-4,-4,1
1558434654134711,-1,2,1,1,5,-1,-2,0
1558434654141691,0,-2,-3,-4,5,4,3,1
1558434654141691,0,0,7,13,1,1,0,-1
1558434654157648,-3,-3,-5,-16,-13,-11,-6,-6
1558434654157648,3,1,1,7,1,-2,-2,1
1558434654158645,-1,-1,-7,-18,6,7,-1,-1
1558434654158645,-2,2,8,20,4,5,2,0
1558434654171610,-2,-1,-3,-2,-3,0,1,-2
1558434654171610,-2,-3,2,2,-5,-14,-7,-3
1558434654179590,1,1,-1,5,3,2,5,2
1558434654179590,1,-2,-2,5,3,6,1,-2
1558434654194549,-2,-1,-2,-4,0,3,-1,-1
1558434654194549,-1,-2,-3,-1,-1,1,-1,-1
1558434654201750,-5,-6,-8,-7,-7,-3,0,-2
1558434654201750,-2,-2,1,-4,-7,-8,-3,-2
1558434654217641,0,0,-1,-1,-2,-1,0,1
1558434654217641,1,1,4,7,8,4,1,-1
1558434654218484,-3,-4,-8,-11,-5,-2,-1,-4
1558434654218484,-1,1,4,6,6,2,-4,-3
1558434654232448,-1,-1,-2,0,-11,-6,-2,-2
1558434654232448,1,3,1,3,8,4,2,2
1558434654239430,0,-1,0,3,7,2,0,2
1558434654239430,-1,-3,-2,-14,-5,-1,-2,-1
1558434654254448,0,-2,-5,-6,-4,-4,3,1
1558434654254448,-2,-2,-5,0,-6,-6,-3,0
1558434654262425,0,-1,2,2,-6,-3,-2,-1
1558434654262425,0,-1,0,1,6,0,-1,-2
1558434654277334,-2,-2,-1,-3,-5,0,-2,-2
1558434654277334,2,1,1,2,-1,4,1,-2
1558434654278325,0,2,0,6,0,-7,-5,1
1558434654278325,-2,-3,-1,-2,0,1,1,2
1558434654292290,-1,1,2,8,3,1,-2,0
1558434654292290,-1,-2,-3,-15,-5,-1,0,-2
1558434654299318,2,1,1,4,6,5,0,1
1558434654299318,-3,-2,-10,-13,-11,-7,-5,-1
1558434654314229,-2,-3,-2,0,-2,0,-2,-1
1558434654314229,-1,-2,-1,-2,-1,3,-1,-5
1558434654322212,-2,3,1,-2,-3,-4,-1,1
1558434654322212,-1,1,3,11,4,4,3,0
1558434654338164,0,0,-5,-13,0,-5,1,2
1558434654338164,-2,-2,1,-1,4,3,-1,2
1558434654338164,-4,-6,-6,-5,-11,-4,-3,-4
1558434654338164,0,0,2,3,-5,-5,-4,-3
1558434654352126,-1,1,2,8,3,4,1,-2
1558434654352126,0,-4,-4,-9,2,1,3,1
1558434654359113,1,-2,2,6,1,1,0,-1
1558434654359113,-2,-1,-1,-8,-6,-1,-2,1
1558434654374075,0,3,-1,-1,9,-4,-4,-1
1558434654374075,-3,-2,-6,-9,-8,-3,-4,-1
1558434654382046,-1,0,1,5,0,3,1,-2
1558434654382046,2,0,8,17,3,3,3,-1
1558434654398005,-2,-6,-20,-42,-19,-10,-6,-3
1558434654398005,-1,1,3,8,2,-3,0,-1
1558434654398005,1,0,2,0,-2,-1,-2,-2
1558434654398005,0,1,0,-6,1,4,1,0
1558434654411970,-1,0,9,16,12,3,0,1
1558434654411970,-4,-3,-6,-1,-13,-9,-4,-3
1558434654419946,-2,-4,-12,-17,-10,-5,-3,-3
1558434654419946,3,2,0,5,7,4,7,4
1558434654434908,1,0,5,11,9,-2,2,4
1558434654434908,-1,1,-2,6,3,0,-1,-2
1558434654441888,-6,-2,1,-15,-13,-7,-8,-4
1558434654441888,-2,-4,-3,2,-4,-3,-3,-2
1558434654457844,3,2,5,8,1,7,4,2
1558434654457844,-1,0,4,-4,5,3,0,2
1558434654458844,-1,-2,-8,-4,-2,-2,1,-2
1558434654458844,-3,-4,-10,-11,-7,-9,-8,-6
1558434654482782,1,1,1,1,2,6,1,-1
1558434654482782,-2,-2,2,10,3,2,-3,1
1558434654482782,-1,1,6,5,4,-1,2,1
1558434654482782,0,1,4,-1,-3,-3,0,0
1558434654494748,-3,-3,-5,11,-1,-3,-1,-2
1558434654494748,-1,-1,1,-5,-6,1,-2,-2
1558434654501727,0,0,7,6,-7,-7,-5,-1
1558434654501727,0,-2,-9,-12,-3,-3,1,0
1558434654517689,2,2,5,11,15,11,6,1
1558434654517689,-2,-4,-8,-13,-1,0,1,-1
1558434654518682,1,-1,-1,1,0,-1,-1,-1
1558434654518682,0,-1,0,-4,-5,-5,-4,-4
1558434654531651,-4,-3,-2,-7,-12,-7,-7,-5
1558434654531651,-1,-1,1,7,7,4,5,2
1558434654539626,-1,-2,-3,-2,2,1,4,0
1558434654539626,0,3,0,-1,3,2,-2,-1
1558434654554585,-4,-2,-4,-9,-11,-7,-6,-3
1558434654554585,0,1,-2,3,0,4,-1,-3
1558434654561573,-1,0,8,15,4,7,2,-2
1558434654561573,-3,-6,-18,-26,-8,-3,0,1
1558434654579521,-3,-3,-1,2,-1,-6,-1,0
1558434654579521,-1,-4,-2,-3,-3,-6,-3,-3
1558434654579521,-2,-1,-6,-4,-5,-1,-3,-3
1558434654579521,0,-1,0,5,3,1,0,-1
1558434654592487,0,2,6,5,7,7,3,3
1558434654592487,-3,-1,-6,-9,-4,-8,-3,-2
1558434654599471,-3,-3,-11,-10,-5,-2,-1,-2
1558434654599471,-1,-1,3,4,-3,-5,-2,-3
1558434654614428,1,-2,1,5,2,4,-1,-1
1558434654614428,0,1,6,6,2,1,1,0
1558434654622408,-1,-1,-3,-12,1,3,0,2
1558434654622408,-2,1,1,0,3,3,1,-1
1558434654637370,0,-1,1,3,-1,-5,-2,-3
1558434654637370,-2,0,-1,1,-8,-14,-10,-4
1558434654638361,-1,0,-1,-6,-5,6,4,3
1558434654638361,0,1,1,7,11,5,4,4
1558434654652326,-3,-5,-5,-5,-3,-1,-2,-4
1558434654652326,-1,-1,-1,-6,-6,-3,-2,-2
1558434654659312,-2,-2,3,14,2,-4,-5,-3
1558434654659312,0,-2,-5,-20,-5,-3,-2,0
1558434654674268,-3,-2,-6,-16,-14,-10,-4,-2
1558434654674268,2,0,-2,-1,0,3,0,1
1558434654682244,0,-3,-4,1,4,-1,0,5
1558434654682244,-3,-2,8,19,0,0,-1,-9
1558434654698203,2,1,1,-3,2,-4,-1,-1
1558434654698203,-4,-3,-8,-17,-9,-1,-1,-3
1558434654698203,-1,1,4,6,1,1,0,0
1558434654698203,-2,-2,-3,-2,-2,-7,-7,-4
1558434654712165,1,1,4,15,2,4,2,0
1558434654712165,1,-2,-9,-17,-4,0,1,-1
1558434654719149,-3,-6,-11,-20,-6,-7,-1,-1
1558434654719149,-4,-2,5,10,-5,-6,-2,1
1558434654734109,-1,1,-2,-6,0,3,-1,-1
1558434654734109,2,-1,7,22,9,2,3,3
1558434654742088,2,2,1,-7,7,2,3,-1
1558434654742088,-1,1,0,8,0,-2,2,1
1558434654758044,0,-1,5,9,1,6,2,-2
1558434654758044,-2,-1,-8,-4,4,0,-2,-2
1558434654758044,-1,-1,-2,-5,-12,-10,-7,-3
1558434654758044,2,1,4,4,15,14,4,4
1558434654772004,-2,-1,-5,-7,-8,-6,-1,1
1558434654772004,-1,1,10,2,-2,-3,-5,-2
1558434654779983,1,1,1,3,-6,-6,-2,-3
1558434654779983,0,-3,-16,-25,2,5,-2,2
1558434654794943,-4,-3,0,-3,1,1,1,-5
1558434654794943,0,0,5,-2,-3,-2,-1,0
1558434654801931,-3,-2,-5,5,2,-6,-1,-1
1558434654801931,0,0,5,21,-7,-6,-4,-2
1558434654817884,-1,-2,-12,-31,-2,-1,-1,1
1558434654817884,-4,-2,0,8,0,-2,-1,-1
1558434654818880,0,0,6,14,7,6,0,-1
1558434654818880,-1,-1,2,3,-1,-4,-3,-1
1558434654831846,-1,-5,-7,0,-7,-7,-8,-4
1558434654831846,0,0,3,9,-4,0,1,2
1558434654839829,0,0,-8,-20,5,9,7,2
1558434654839829,-2,0,0,8,0,1,-1,-3
1558434654854783,-3,-1,0,-3,-4,-2,-1,-4
1558434654854783,1,0,-2,-2,-4,-3,-5,-1
1558434654861766,0,3,14,10,6,6,-2,-1
1558434654861766,-1,-4,-14,-29,-8,-6,-1,0
1558434654877724,-1,0,8,15,1,2,3,1
1558434654877724,-1,1,-3,-12,4,5,7,4
1558434654878720,-3,-4,0,7,-6,-5,-4,-9
1558434654878720,3,1,3,12,1,3,0,0
1558434654891686,-3,0,-5,1,-1,-5,-5,-1
1558434654891686,0,-1,-3,-6,1,6,6,3
1558434654899666,0,1,5,-11,3,-2,-1,1
1558434654899666,-1,1,-1,-12,0,1,5,-2
1558434654914623,-4,-6,-9,3,3,3,-1,1
1558434654914623,-4,-10,-13,-10,-14,-9,-6,-5
1558434654921604,-2,-2,-6,-3,-5,-9,-7,-2
1558434654921604,0,2,5,6,-3,-4,-5,-3
1558434654936564,0,2,3,6,7,7,4,0
1558434654936564,0,2,2,4,-7,-4,-3,-5
1558434654945543,1,-1,-2,11,7,-3,-2,2
1558434654945543,1,-1,3,-7,-15,-3,0,2
1558434654952523,-1,-2,3,16,15,6,1,-4
1558434654952523,0,2,10,12,10,7,6,0
1558434654959506,-3,-4,-14,-10,-4,-7,-3,0
1558434654959506,-4,-2,-1,-21,-8,-7,0,-5
1558434654974464,2,2,-2,-3,-14,-13,-5,1
1558434654974464,0,1,-2,3,10,3,-2,-1
1558434654982443,1,3,12,17,11,12,8,3
1558434654982443,0,2,5,15,5,3,1,1
1558434655005386,-5,-6,-6,-13,-14,-6,-7,-5
1558434655005386,-1,-1,2,-13,-5,-2,1,2
1558434655006379,0,0,1,13,1,-6,-6,-3
1558434655006379,-1,-2,-5,-6,-3,2,-2,3
1558434655013360,8,6,-1,-8,13,9,11,8
1558434655013360,-2,1,14,21,-1,-1,1,-3
1558434655019342,-3,-2,-10,-17,-7,-1,0,-2
1558434655019342,-4,-6,-10,-11,-8,-14,-12,-5
1558434655034305,-1,0,2,-3,0,-4,-5,-1
1558434655034305,-2,-4,-2,23,2,2,1,-1
1558434655042283,1,-3,4,-9,0,-3,0,-4
1558434655042283,-2,-1,-7,-11,4,1,0,0
1558434655057241,-6,-3,-4,-25,-22,-14,-9,-4
1558434655057241,-1,1,-4,-11,7,4,0,-1
1558434655065219,1,0,3,5,-9,1,0,0
1558434655065219,-2,-3,0,20,10,2,2,-4
1558434655072211,1,1,2,-1,5,5,-1,-2
1558434655072211,-2,-4,-13,-12,0,-10,-8,-3
1558434655079186,2,0,1,-12,-7,5,5,2
1558434655079186,2,0,6,13,5,2,-2,0
1558434655094143,-1,-2,2,25,0,-3,4,-2
1558434655094143,-5,-4,-8,-33,-6,-7,-7,-6
1558434655102121,-1,0,-8,-5,-5,-16,-8,-3
1558434655102121,2,3,-1,18,-2,15,11,6
1558434655117091,-3,-5,-3,-17,-8,-4,-4,-2
1558434655117091,4,2,1,9,-1,1,3,5
1558434655125066,-6,-7,-14,-5,-3,-7,-9,-5
1558434655125066,-4,-5,-2,-12,-13,0,0,-2
1558434655140023,3,6,11,27,16,10,5,1
1558434655140023,0,0,-2,-5,10,2,0,-3
1558434655141018,-2,2,6,22,6,1,-1,0
1558434655141018,-5,-2,-6,-29,-22,-17,-15,-5
1558434655154981,-2,-2,-7,-2,0,3,5,5
1558434655154981,5,5,15,14,17,10,13,11
1558434655161962,-2,-2,-11,2,-1,-4,-5,-3
1558434655161962,-1,1,0,18,2,4,8,2
1558434655176926,1,3,0,-21,21,17,2,1
1558434655176926,-4,-8,-15,-19,-22,-2,-3,-2
1558434655184901,-1,-4,2,0,-3,-6,-2,3
1558434655184901,-4,-4,-3,-7,-7,-12,-10,-9
1558434655199860,-3,-2,-4,2,-2,-9,-5,-5
1558434655199860,0,0,0,7,7,13,4,-1
1558434655200858,0,1,0,-6,0,5,1,1
1558434655200858,-3,-3,1,-5,-6,-12,-1,-2
1558434655214819,1,2,-4,1,-6,-1,-1,-2
1558434655214819,-4,0,0,8,-13,-15,-9,-5
1558434655221803,0,1,-4,-34,-13,-10,-3,6
1558434655221803,1,-3,4,10,14,11,3,-4
1558434655236766,0,-2,2,4,9,8,4,4
1558434655236766,-1,-1,1,8,9,3,-2,-2
1558434655244740,-2,1,1,5,-9,1,1,-1
1558434655244740,2,1,-3,-4,3,-4,-1,1
1558434655259704,0,-2,-2,-5,-11,-8,-6,-4
1558434655259704,-3,-2,3,12,-2,-6,-4,-1
1558434655260698,0,-2,-2,-2,-2,-2,1,-2
1558434655260698,-2,2,-2,-20,-3,0,-3,1
1558434655274660,-5,-6,-4,1,-5,-7,-5,-5
1558434655274660,1,-1,-1,-9,-3,0,0,1
1558434655281641,1,1,8,21,16,12,3,-1
1558434655281641,0,-2,-2,-8,-4,-2,2,-2
1558434655296604,0,0,1,3,-4,-5,-1,-3
1558434655296604,-3,-3,-7,-14,-8,-6,-2,-4
1558434655312558,-3,-4,-1,12,1,0,0,-2
1558434655312558,2,3,1,-2,6,2,1,3
1558434655320542,-1,-7,-16,-15,-10,-7,-2,-1
1558434655320542,1,-2,-1,7,-3,-2,-4,-2
1558434655320542,-2,-3,-1,-19,-8,0,-1,-3
1558434655320542,-1,-1,3,23,11,2,1,0
1558434655334501,-1,-2,0,-7,-9,-6,-3,-1
1558434655334501,1,-1,-7,-13,-2,-2,-2,0
1558434655342481,0,0,6,16,7,8,1,-3
1558434655342481,0,3,0,3,-3,-3,-6,0
1558434655357455,-2,0,-1,0,-5,-4,4,1
1558434655357455,-1,-1,-4,-4,3,5,4,-2
1558434655364421,-1,2,2,-10,-7,-5,-2,-1
1558434655364421,-2,-4,-5,-3,-3,2,1,3
1558434655380377,0,-1,-4,1,5,5,1,2
1558434655380377,0,1,4,12,1,-3,-2,0
1558434655380377,0,-2,-7,-10,-4,-4,-2,-1
1558434655380377,-3,-4,-3,-14,-8,-8,-4,-6
1558434655394340,-1,1,1,2,-1,-4,-7,-1
1558434655394340,-2,-4,-3,-7,-9,-1,4,1
1558434655402319,1,-1,3,11,18,15,6,7
1558434655402319,-1,-2,-3,2,-2,-5,-3,-8
1558434655417279,0,-2,-3,1,-3,-2,-1,-5
1558434655417279,-4,-2,-2,-17,-10,-7,-3,0
1558434655424260,-1,0,-7,2,7,-1,-1,0
1558434655424260,-1,-1,3,4,1,4,2,0
1558434655440216,1,-1,-3,1,6,2,1,-2
1558434655440216,-2,-2,-5,6,-4,-8,-8,-7
1558434655441215,-5,-5,-7,-12,-10,-8,-4,-5
1558434655441215,0,1,3,9,6,5,6,6
1558434655454181,-2,0,-3,-11,-6,-3,-4,-1
1558434655454181,1,2,7,18,11,8,4,4
1558434655462158,-3,0,1,-3,-7,-3,1,-2
1558434655462158,-3,-1,-8,-14,7,-2,-8,-4
1558434655477125,-2,2,5,-3,-19,-5,-2,-1
1558434655477125,-1,-3,-6,-8,-2,-3,-4,-1
1558434655485823,2,1,7,14,3,7,4,1
1558434655485823,5,3,3,11,6,0,0,3
1558434655500062,1,0,3,-16,3,-2,1,2
1558434655500062,-3,-1,9,20,-4,0,-4,-4
1558434655501055,-3,-2,-8,-8,-12,-12,-5,-4
1558434655501055,2,-3,0,5,2,3,2,0
1558434655514020,0,1,8,20,17,4,2,2
1558434655514020,0,1,4,4,-8,1,1,-3
1558434655521997,-2,-5,-10,1,6,3,-2,-2
1558434655521997,-5,-1,4,-10,-11,-10,-3,1
1558434655536962,-3,-3,0,11,4,-1,-1,0
1558434655536962,0,-1,3,-21,10,4,2,1
1558434655544942,-2,0,-9,-13,-4,-1,-2,-4
1558434655544942,-4,-6,-5,-7,-21,-11,-6,-6
1558434655559897,-1,-1,2,7,9,6,0,0
1558434655559897,1,2,1,4,6,0,2,4
1558434655560895,0,1,2,4,8,7,9,12
1558434655560895,-3,-3,-6,-5,5,2,-3,-8
1558434655574858,-1,-1,-5,-2,-16,-8,-4,-3
1558434655574858,-1,0,3,18,17,8,1,2
1558434655581840,3,2,-2,-32,-14,-8,-8,-3
1558434655581840,1,1,2,8,6,4,1,1
1558434655596802,-2,-2,-4,-14,-3,0,0,-2
1558434655596802,-3,-5,-13,-20,-5,-5,-3,-3
