timestamp,emg1,emg2,emg3,emg4,emg5,emg6,emg7,emg8
1558434670998295,-6,-7,-25,-32,-14,-6,-3,-2
1558434670998295,0,2,3,0,1,-7,-3,-1
1558434670999294,-1,-4,-1,-1,1,-1,-3,-3
1558434670999294,-3,-6,-2,2,-2,-3,-2,0
1558434671002287,-2,0,2,10,0,-1,-3,-3
1558434671002287,1,-1,-3,-1,2,5,3,-1
1558434671005278,0,2,0,-2,5,4,1,4
1558434671005278,2,2,5,5,7,3,3,1
1558434671010264,1,2,4,6,0,-5,-2,-1
1558434671010264,-5,-5,-5,2,-15,-5,-5,-5
1558434671018243,1,-1,-6,-2,-4,-12,-1,0
1558434671018243,1,1,-4,-2,4,6,1,1
1558434671043175,-1,0,-2,-13,-5,-4,-1,0
1558434671043175,-1,-1,1,5,6,8,1,1
1558434671044173,-2,-4,-6,-9,-9,-3,-6,-8
1558434671044173,-3,-4,-1,1,-6,-8,-3,-4
1558434671048163,2,3,11,21,12,3,3,4
1558434671048163,-1,0,-4,-15,3,3,3,3
1558434671062124,-2,-4,-5,-2,-4,-3,-2,-1
1558434671062124,-3,-4,-5,-2,-6,-7,-3,-3
1558434671073095,0,-2,-4,0,-1,2,0,-2
1558434671073095,-3,-1,-2,-6,-5,0,-1,-1
1558434671085064,-2,0,3,6,2,1,4,-1
1558434671085064,-2,2,2,4,4,3,-2,-4
1558434671123961,2,0,1,0,-1,-1,-1,1
1558434671123961,0,2,7,15,3,2,0,-1
1558434671123961,-4,-1,-4,-14,-3,2,-2,-1
1558434671123961,-3,-6,-12,-16,-10,-8,-3,-3
1558434671124957,0,-1,-3,-5,1,-2,-2,-1
1558434671124957,-2,-2,-3,3,-3,1,-1,0
1558434671125955,-1,1,2,-6,1,1,0,-1
1558434671125955,-1,-2,-2,1,-5,-1,-5,-2
1558434671136925,-1,-1,-1,4,0,-2,0,-1
1558434671136925,1,-1,1,-4,3,2,3,0
1558434671143907,1,0,4,12,7,-1,4,-2
1558434671143907,-1,-1,-2,1,1,-5,-2,-1
1558434671152882,0,-1,-5,-15,-8,1,0,-1
1558434671152882,1,1,1,1,-2,-2,-2,-2
1558434671166845,-1,-5,-6,-4,-5,-2,0,-2
1558434671166845,1,-1,4,5,6,6,5,0
1558434671173826,-2,-1,1,6,-2,-3,-4,-1
1558434671173826,-1,-3,-2,-2,-1,-3,-2,-2
1558434671181806,3,1,-1,-2,0,-5,-2,-2
1558434671181806,-1,-1,2,6,-1,-1,-1,-1
1558434671196766,-3,-2,-1,-5,-5,-1,-2,-1
1558434671196766,-2,-1,-1,-1,2,4,-2,-2
1558434671203746,-2,-3,-1,7,2,-1,-2,-1
1558434671203746,-3,0,-1,-8,-6,2,0,0
1558434671212722,1,0,-6,0,2,-5,-1,-1
1558434671212722,-5,-5,-4,-8,-6,-12,-1,-3
1558434671226684,0,-1,-1,-9,-4,-1,0,-2
1558434671226684,1,-1,-1,-4,6,11,1,-2
1558434671233667,-3,-2,0,3,-5,2,1,-4
1558434671233667,0,0,-4,-5,3,2,1,2
1558434671241645,1,3,4,9,1,-7,-5,1
1558434671241645,-1,-1,-2,0,2,-4,2,1
1558434671257602,-2,0,6,3,-1,-2,-3,0
1558434671257602,-4,-5,-6,-3,-8,-5,-3,-6
1558434671263589,-2,0,2,0,-2,-2,-2,0
1558434671263589,1,3,1,11,9,5,2,1
1558434671272563,-1,-2,-3,-6,3,3,1,-2
1558434671272563,-3,0,0,-2,-8,-1,-2,0
1558434671295503,-1,-2,-2,-3,-8,-8,-4,-1
1558434671295503,-2,-1,0,-3,-3,-8,-4,-1
1558434671296501,-3,-1,0,6,6,3,4,1
1558434671296501,1,2,4,0,3,5,3,3
1558434671301487,0,-1,-3,-6,-6,-2,-1,-1
1558434671301487,-1,1,3,9,2,0,1,0
1558434671317441,-1,-2,0,-3,-1,-2,-3,1
1558434671317441,-2,-3,-2,-2,-3,-1,-2,-2
1558434671324424,0,1,1,5,9,3,1,1
1558434671324424,0,-2,-6,-9,-7,-5,-5,-3
1558434671333399,0,1,2,7,-5,-2,-5,-3
1558434671333399,1,0,-7,-27,-2,-1,-1,0
1558434671347362,-2,-2,-3,9,6,5,0,1
1558434671347362,0,-1,-1,-8,0,-2,0,-2
1558434671354343,-2,-2,-5,-3,-3,0,-1,0
1558434671354343,0,2,3,6,-4,-6,-3,-3
1558434671361326,-1,-1,-4,-3,-2,-2,1,-3
1558434671361326,-1,-1,2,5,5,1,0,0
1558434671376284,-1,-5,-2,-5,0,-1,-1,0
1558434671376284,0,0,-1,-5,-4,-2,-2,2
1558434671384266,-2,-1,0,3,-4,1,1,-2
1558434671384266,-3,-2,-6,-4,-5,-2,-3,-3
1558434671393240,2,1,3,4,4,-3,2,1
1558434671393240,-3,-3,-6,2,-5,-5,2,-3
1558434671407202,1,1,-3,-4,2,-1,0,0
1558434671407202,-2,-2,1,4,-3,-4,-2,0
1558434671414183,-1,-3,-1,-4,-7,-4,-6,-2
1558434671414183,0,-1,1,4,2,5,0,0
1558434671421165,-1,2,3,6,5,5,4,2
1558434671421165,-3,-2,0,-3,-2,-2,-2,-1
1558434671436124,0,2,-1,-2,-1,-1,0,1
1558434671436124,0,-1,0,1,-3,-6,-5,-3
1558434671444103,-1,-4,-3,-9,-10,-7,-9,-2
1558434671444103,-2,-2,-4,-1,2,2,-2,-1
1558434671453081,4,6,10,15,13,8,9,4
1558434671453081,-1,0,0,-5,-1,1,0,1
1558434671467043,-4,-3,-10,-10,-4,1,0,-4
1558434671467043,-2,-2,1,-2,-12,-10,-5,-4
1558434671474024,-4,-3,-6,-1,-2,-6,-3,-3
1558434671474024,2,0,6,4,2,-1,1,-1
1558434671481004,0,-1,3,1,-1,0,-4,-3
1558434671481004,1,2,6,10,10,7,5,2
1558434671505002,-3,-6,-15,-17,-7,-2,-1,-4
1558434671505002,-1,-2,0,5,4,-2,0,-1
1558434671505002,-1,-2,-3,-12,-9,-5,-2,-2
1558434671505002,0,-1,0,-1,0,4,0,-2
1558434671512919,-3,-1,4,2,-2,-3,-1,0
1558434671512919,-3,-3,-6,-4,2,3,-3,-2
1558434671526884,-2,-2,3,5,-6,-7,-3,0
1558434671526884,3,4,6,10,6,5,8,4
1558434671533892,0,1,-5,-10,0,-7,-2,0
1558434671533892,-3,-3,-2,-8,-6,-4,-2,-1
1558434671541880,1,-2,3,4,0,2,1,-1
1558434671541880,-1,-2,-4,-8,-4,-2,-4,-4
1558434671556802,1,1,0,2,-2,2,0,-2
1558434671556802,-1,-1,0,8,2,-4,-3,-2
1558434671563834,-1,-5,2,8,10,7,7,4
1558434671563834,-3,-2,-6,-23,-8,-3,-4,-5
1558434671572759,-4,-3,-2,4,-1,-4,-3,-1
1558434671572759,0,1,-3,-7,1,3,2,0
1558434671586725,2,3,9,24,11,8,0,0
1558434671586725,-2,-7,-17,-23,-14,-10,-4,-1
1558434671593703,-1,-4,-9,-14,-6,0,-4,-4
1558434671593703,-1,1,-1,-3,-3,-2,-2,-2
1558434671609660,-1,0,0,-5,1,-3,-1,0
1558434671609660,1,1,4,7,0,-5,-1,2
1558434671616643,0,0,3,2,4,2,3,1
1558434671616643,-3,-5,-8,-1,0,2,-1,-1
1558434671623623,-4,-2,-2,-3,-7,-1,-4,-4
1558434671623623,-4,-3,-4,-4,-6,-6,-3,-2
1558434671632599,1,0,5,7,0,-3,0,1
1558434671632599,2,2,4,1,2,1,2,1
1558434671647560,0,-3,-9,-9,-2,-1,-2,-4
1558434671647560,-1,-2,4,14,2,-1,-3,-3
1558434671653543,0,0,-3,-10,-3,-2,-1,-1
1558434671653543,0,1,7,5,7,3,0,-2
1558434671669500,-3,-2,-14,-17,-9,-8,-4,-3
1558434671669500,-2,-4,-6,0,-4,-1,-4,-2
1558434671676483,1,0,2,5,10,14,7,0
1558434671676483,2,-1,-5,4,5,0,3,2
1558434671683463,-2,-2,2,1,-4,-11,-1,1
1558434671683463,0,2,7,9,1,-1,-2,-1
1558434671692439,-4,-3,-5,-11,-7,-3,-4,-1
1558434671692439,-2,-3,-5,-2,-3,3,-2,-3
1558434671707401,2,-1,-1,-1,-5,-3,0,-4
1558434671707401,0,0,1,6,0,1,2,1
1558434671714380,-3,-3,3,-4,-2,0,-1,-3
1558434671714380,1,1,3,7,6,4,4,-1
1558434671729341,-2,-4,-8,-11,1,-3,-4,-4
1558434671729341,0,3,7,13,5,2,2,1
1558434671736324,-1,-3,-12,-17,-10,-4,-4,-1
1558434671736324,0,-1,3,0,-3,-2,-3,2
1558434671744303,1,1,4,4,10,12,5,1
1558434671744303,-1,-3,-6,-6,0,-1,-2,-3
1558434671753278,0,1,6,10,2,-3,1,-3
1558434671753278,-3,-2,-6,-6,-10,-11,-6,-4
1558434671767244,-1,-2,0,-1,-7,-3,-4,-2
1558434671767244,3,5,4,-2,12,10,6,4
1558434671774220,-2,-1,-2,9,2,4,2,-1
1558434671774220,-3,-5,-2,-9,-6,-7,-4,-1
1558434671789181,0,-1,-1,-5,-2,-3,-2,1
1558434671789181,-3,-6,-7,-10,-5,-3,-2,-4
1558434671796163,-2,-2,-4,-11,-12,-10,-5,-1
1558434671796163,0,2,1,6,8,7,5,2
1558434671804153,1,1,2,3,2,2,1,1
1558434671804153,1,3,4,4,1,1,1,-2
1558434671813121,-4,-2,-1,3,0,-1,-2,-3
1558434671813121,-3,-3,-2,-3,-11,-5,-3,-2
1558434671827080,-3,-2,0,-3,0,-1,0,1
1558434671827080,0,-1,1,6,-3,0,-3,-1
1558434671834063,0,1,1,1,10,4,0,1
1558434671834063,0,0,-1,-3,2,0,4,3
1558434671850018,-1,-1,-1,5,2,-7,-3,-3
1558434671850018,-2,-3,-8,-12,-11,-6,-1,-2
1558434671856999,-2,-3,-1,0,0,3,0,-3
1558434671856999,2,1,7,12,4,5,1,0
1558434671863981,-1,-1,-7,-2,1,1,2,0
1558434671863981,-1,0,-3,-8,-6,-10,-4,0
1558434671872956,-1,-2,-3,-6,-4,0,-2,-3
1558434671872956,-3,1,3,7,7,8,1,-1
1558434671886925,-2,-4,2,6,1,-1,0,0
1558434671886925,-2,-3,-5,-6,-6,-2,-2,-2
1558434671893903,2,0,-2,4,0,-7,-4,-3
1558434671893903,-1,-3,-3,-4,-10,-11,-6,-3
1558434671909860,-1,0,3,-2,-1,4,-2,-3
1558434671909860,1,2,-1,6,6,7,4,0
1558434671916842,0,2,5,7,10,5,4,4
1558434671916842,-2,-2,-5,-9,-7,-5,-3,-1
1558434671923821,-2,1,3,3,-3,-3,-2,-1
1558434671923821,-5,-8,-10,-15,-9,-4,-4,-3
1558434671940776,-2,-2,2,4,-2,-3,-3,-3
1558434671940776,1,0,0,0,2,-6,0,2
1558434671946765,0,-1,0,1,-6,-2,0,-1
1558434671946765,-1,0,2,-9,0,1,-3,-2
1558434671953746,-1,-2,-4,-12,-5,0,-2,0
1558434671953746,-3,-2,-5,3,-2,-3,-3,-3
1558434671969700,1,0,-4,-2,2,3,1,1
1558434671969700,-2,0,1,-1,2,-4,-1,1
1558434671976679,-2,1,5,5,-1,-2,0,-2
1558434671976679,-1,-2,1,-4,-3,0,-4,-1
1558434671983663,-3,-1,-6,-8,-10,-5,-6,-3
1558434671983663,-1,0,6,13,12,12,3,3
1558434671998621,2,2,3,-10,0,-2,0,1
1558434671998621,-4,-6,-14,-8,-4,-3,0,-1
1558434672007601,0,4,10,-2,-4,-8,-4,-1
1558434672007601,-5,-10,-17,-6,-10,-6,-6,-4
1558434672013581,-4,-4,4,15,6,8,4,1
1558434672013581,4,5,5,2,9,6,5,3
1558434672029537,-2,-5,-22,-24,-8,-5,-4,-2
1558434672029537,1,2,8,5,0,-5,0,-1
1558434672036519,-2,-3,0,0,-10,-3,-5,-4
1558434672036519,-3,-4,-6,-3,-6,-4,-3,-3
1558434672044501,0,0,4,7,6,1,1,0
1558434672044501,1,1,2,-12,-5,-2,1,1
1558434672059459,-3,-3,-7,3,-4,-5,-1,-1
1558434672059459,3,1,3,6,9,5,3,2
1558434672067441,-2,-1,2,4,2,2,-2,-1
1558434672067441,-1,1,-5,-7,-2,-2,0,-1
1558434672074422,0,3,1,7,0,-1,-4,-1
1558434672074422,-3,-7,0,-13,-10,-6,-4,-3
1558434672089378,-2,-2,-1,8,-2,-2,-2,-3
1558434672089378,-1,-3,2,3,-2,-6,-2,1
1558434672096361,2,0,-3,0,7,8,5,0
1558434672096361,0,4,1,11,8,4,2,-2
1558434672112321,-1,-4,-2,-9,-7,-5,-4,-2
1558434672112321,-1,-1,-2,-3,-5,-4,-4,-1
1558434672119302,0,0,-1,-4,0,-4,-4,0
1558434672119302,-1,-2,0,-1,-5,-4,-3,0
1558434672135256,-2,-2,-3,-11,-3,2,3,0
1558434672135256,-1,-1,1,2,2,3,0,-1
1558434672137251,1,-1,1,1,-5,-6,-3,-2
1558434672137251,-2,0,-1,-2,-4,-3,-3,-4
1558434672149236,0,-1,-2,-3,0,1,2,-3
1558434672149236,-1,-2,-5,6,-3,-4,0,1
1558434672156201,-1,-1,-2,-5,3,2,0,0
1558434672156201,2,0,-2,-3,1,2,-1,-1
1558434672172263,-3,-1,-5,-10,-2,1,2,0
1558434672172263,-2,0,2,1,5,4,2,0
1558434672196200,1,1,5,15,-6,-4,-1,1
1558434672196200,-4,-5,-12,-24,-10,-8,-6,-4
1558434672197096,-1,-2,0,-5,-7,-1,-5,-2
1558434672197096,-4,-1,-5,-3,1,-2,-2,-3
1558434672198090,-1,-1,4,6,7,-4,2,2
1558434672198090,-1,0,3,7,-2,0,-2,-2
1558434672210056,1,1,4,7,7,3,4,2
1558434672210056,0,2,-1,2,-5,-5,-4,-2
1558434672217044,-5,-9,-10,-18,-16,-8,-5,-5
1558434672217044,1,2,-4,-2,7,5,5,2
1558434672232015,0,-1,1,1,9,4,1,-1
1558434672232015,-2,0,6,7,-7,-13,-2,-2
1558434672238978,1,0,-3,4,2,6,-1,-2
1558434672238978,-4,-1,-2,-2,-2,3,-1,-3
1558434672254939,1,2,2,5,4,0,2,1
1558434672254939,2,1,4,-1,7,5,-1,1
1558434672256931,-5,-6,-4,0,-13,-18,-5,-2
1558434672256931,1,-1,1,7,-6,-2,-1,-1
1558434672269896,-4,-2,-9,-18,-6,3,1,-1
1558434672269896,3,-1,-1,-3,6,-3,4,2
1558434672276876,1,0,-5,-10,1,4,-1,0
1558434672276876,0,2,7,13,5,4,-1,2
1558434672291918,-1,0,1,6,1,2,-2,-3
1558434672291918,-3,-4,0,-1,-6,-3,-5,-5
1558434672299177,2,2,3,1,-4,-2,2,0
1558434672299177,-1,-1,-3,-5,9,4,3,2
1558434672315771,-2,-1,1,4,-1,-2,-4,-2
1558434672315771,0,-1,-4,4,4,5,2,0
1558434672316773,0,0,-1,-6,2,-2,2,1
1558434672316773,-2,-2,-3,-12,-11,-11,-7,-2
1558434672330051,-4,-4,0,-2,-12,-11,-6,-3
1558434672330051,-2,-3,0,9,-1,0,-4,-4
1558434672336715,2,3,-1,0,11,5,1,0
1558434672336715,1,0,-2,-3,4,6,7,1
1558434672351709,-1,-1,1,12,4,-2,-3,0
1558434672351709,-3,-4,-6,-21,-19,-7,-7,-3
1558434672358657,-2,-2,-3,-3,1,3,-2,-3
1558434672358657,0,2,0,13,9,2,2,2
1558434672375612,3,0,0,-11,0,3,2,1
1558434672375612,-1,1,0,0,1,3,-1,0
1558434672376609,-4,-5,-9,-12,-9,-6,-6,-4
1558434672376609,0,-1,3,0,5,-4,-2,-2
1558434672389578,0,1,-1,7,-5,-5,0,1
1558434672389578,-1,-3,-2,5,0,3,1,-1
1558434672403698,0,-1,0,-2,-1,-1,-1,-1
1558434672403698,-3,-2,-1,1,0,-5,-2,-3
1558434672412514,0,0,0,2,0,-1,0,-1
1558434672412514,-2,-2,-5,-10,-4,-2,-1,0
1558434672418548,-4,1,5,15,0,2,-4,-2
1558434672418548,-2,-4,-2,-1,-6,2,1,-1
1558434672435488,-1,0,-1,-6,7,2,5,2
1558434672435488,1,2,2,4,2,-1,1,1
1558434672437447,-1,-2,-13,-11,1,2,1,0
1558434672437447,-2,-1,0,4,-8,-2,-5,-1
1558434672457406,-2,0,0,0,2,2,-1,-3
1558434672457406,-4,-8,-1,-1,-5,-2,-5,-2
1558434672459387,1,0,5,-5,-1,-4,-2,-1
1558434672459387,-1,1,3,3,1,0,-2,1
1558434672472401,1,-1,-7,1,-3,-6,2,1
1558434672472401,0,0,-1,5,-3,-1,-2,-3
1558434672479335,0,-3,-5,-17,-3,0,-2,-4
1558434672479335,-1,-2,-7,-14,-8,-5,-2,-1
1558434672495291,0,0,3,4,3,-2,-3,0
1558434672495291,0,1,-1,3,6,3,2,2
1558434672496288,-1,0,1,10,3,4,4,-1
1558434672496288,-1,-2,-1,-12,-7,-2,-3,-4
1558434672518242,-3,-1,0,4,-1,-5,0,2
1558434672518242,1,2,-1,-6,0,-1,0,-3
1558434672519227,-3,-4,-12,-4,-6,2,-2,-2
1558434672519227,0,0,3,3,11,2,2,0
1558434672532260,-1,0,-3,-6,-4,-2,-4,-1
1558434672532260,1,1,5,3,4,6,3,2
1558434672539175,0,-1,3,7,-1,-7,-3,-1
1558434672539175,-3,-3,-8,-1,-14,-14,-7,-4
1558434672555168,2,1,8,6,9,6,-1,1
1558434672555168,-1,-2,-10,-7,7,9,2,2
1558434672557129,0,2,0,-12,-10,-5,-3,-2
1558434672557129,-4,-7,-10,-6,-13,-8,-6,-6
1558434672569138,0,-2,1,10,7,4,4,1
1558434672569138,0,-4,-4,-18,-2,-1,2,1
1558434672578076,-3,-1,3,3,-1,-2,-2,0
1558434672578076,-1,-1,-2,-4,-3,-2,-1,-1
1558434672600050,0,0,0,3,-1,-2,0,-2
1558434672600050,-3,-4,-5,-4,-3,0,-2,-3
1558434672602007,0,0,-1,-4,-2,-3,-5,-2
1558434672602007,0,2,8,16,9,4,3,-1
1558434672614978,0,-1,-5,1,-1,3,0,-2
1558434672614978,-1,0,-2,-6,-3,-5,1,-2
1558434672616967,-1,-2,-3,-9,-9,-3,-1,0
1558434672616967,-1,-3,-4,-1,-2,4,-4,-4
1558434672628979,-2,-3,0,0,3,0,-2,-2
1558434672628979,-1,0,2,2,-1,-7,-4,-3
1558434672637910,-2,0,4,9,2,-1,0,-2
1558434672637910,0,1,0,-2,4,4,4,2
1558434672651941,-2,-6,0,2,-12,-8,-4,-1
1558434672651941,1,1,-5,-5,-2,-1,-1,-1
1558434672666869,0,-2,-1,12,9,4,0,-1
1558434672666869,0,0,-1,-10,-3,0,-1,-3
1558434672674878,-2,-2,-7,-11,-10,-6,-6,-5
1558434672674878,-4,-4,6,14,-2,-3,-1,0
1558434672676805,2,3,2,8,20,11,9,4
1558434672676805,-1,-2,-2,-7,-2,-2,-1,4
1558434672688809,0,0,0,1,-1,-1,1,-2
1558434672688809,1,1,6,8,8,6,2,-3
1558434672705728,0,-3,-4,-1,-5,-5,-3,0
1558434672705728,-1,-2,-1,3,-3,-5,-4,-3
1558434672712747,-1,-2,-6,-11,-9,-6,-6,-6
1558434672712747,-1,-1,-4,6,-2,-4,-4,-1
1558434672720690,3,4,20,17,13,9,5,4
1558434672720690,-1,3,-11,-30,-8,2,2,4
1558434672735697,-7,-11,-18,-15,-4,-4,-2,-2
1558434672735697,-4,-4,-2,0,-4,1,-3,-2
1558434672736653,-1,-2,-5,-3,-3,-5,0,-2
1558434672736653,-1,-1,1,12,2,1,-2,-2
1558434672748619,2,5,5,-1,3,5,1,0
1558434672748619,0,0,-1,6,-5,-14,-5,0
1558434672757591,0,-3,-5,-17,-1,1,0,4
1558434672757591,0,0,9,17,4,7,2,-1
1558434672780544,1,-4,-9,-10,-6,-3,0,-1
1558434672780544,-2,1,0,5,4,0,-1,0
1558434672781529,-4,-1,-2,-3,-13,-12,-6,-5
1558434672781529,-1,-2,-3,-8,-6,-11,-4,-2
1558434672795531,1,2,7,6,7,3,1,2
1558434672795531,2,3,8,14,5,9,3,1
1558434672796487,-3,-4,-13,-7,-9,-5,0,-1
1558434672796487,0,0,8,-5,9,5,5,2
1558434672809455,-3,-4,-8,0,-1,2,0,1
1558434672809455,-2,-1,-2,-11,-4,1,0,-2
1558434672817467,-1,-1,-2,2,-4,6,-2,-1
1558434672817467,-2,-3,0,-1,-6,-7,-4,-4
1558434672832390,-2,-1,8,10,-4,-2,-4,-2
1558434672832390,1,-2,-13,-17,-2,-4,1,1
1558434672838547,-1,-4,-1,-3,0,2,0,-1
1558434672838547,3,3,7,10,5,-2,2,2
1558434672855439,1,2,0,4,6,3,1,0
1558434672855439,-3,-3,-6,-7,-6,-1,-4,-3
1558434672861686,0,2,2,0,-7,-9,-1,-3
1558434672861686,-3,-2,-2,5,1,-6,-4,-1
1558434672869663,0,3,2,-8,-8,-2,-3,-3
1558434672869663,0,0,0,3,5,2,1,-1
1558434672878268,-3,-8,-8,-4,6,3,1,-3
1558434672878268,-1,-1,-3,2,1,3,2,-1
1558434672892641,-2,0,2,6,3,-2,-2,0
1558434672892641,0,0,0,-7,-8,-3,-7,-3
1558434672915415,-1,3,4,6,-6,-5,-6,-2
1558434672915415,-3,-3,-7,-15,-2,1,1,2
1558434672916171,-1,-3,-1,-4,1,2,1,-1
1558434672916171,-1,-2,2,1,-2,-1,2,2
1558434672922161,0,1,-1,7,8,2,3,2
1558434672922161,-3,-3,-4,-9,-3,-6,-5,-3
1558434672929357,-2,-1,-2,-6,-5,1,2,0
1558434672929357,-2,0,3,0,-2,-6,-4,0
1558434672938112,-2,-4,-4,-3,-7,-5,-5,-4
1558434672938112,0,1,2,11,4,9,4,2
1558434672952103,1,2,-4,-1,7,-2,0,0
1558434672952103,0,-1,0,1,0,4,2,0
1558434672959084,0,-1,-4,-20,-7,-4,-5,-3
1558434672959084,-2,-3,4,10,-1,-3,-3,-3
1558434672975247,-3,-4,-3,0,-7,-6,-4,-4
1558434672975247,-2,-2,-10,-4,4,1,0,0
1558434672982177,1,3,10,10,7,5,5,2
1558434672982177,-3,-1,-2,-2,-2,-1,-4,-1
1558434672989188,1,0,5,7,2,-2,-2,0
1558434672989188,-1,0,-9,-13,-4,2,1,-3
1558434672997949,-2,-3,2,17,5,-2,-1,1
1558434672997949,1,0,-2,-7,-1,-3,0,2
1558434673012145,-2,-2,-5,-9,-5,-6,-3,0
1558434673012145,-1,2,2,3,3,0,-3,-5
1558434673019124,-3,-1,-5,-7,-2,0,-2,-4
1558434673019124,0,-1,0,5,-5,-5,-2,-5
1558434673035082,1,-1,-1,2,-2,2,0,0
1558434673035082,0,0,4,-9,3,1,0,2
1558434673041829,2,0,-3,-2,1,2,0,-1
1558434673041829,0,0,-1,6,3,-4,-1,0
1558434673057789,0,-2,-1,-5,-3,2,2,0
1558434673057789,-1,-3,-1,2,-6,-7,0,0
1558434673058785,-1,0,4,1,-2,-1,-4,0
1558434673058785,-2,-2,-6,-4,-4,5,-1,-4
1558434673071783,4,3,6,17,17,6,4,3
1558434673071783,0,-3,-6,-21,-5,-7,-3,1
1558434673078734,-3,-2,-1,-2,-7,-3,-3,-2
1558434673078734,-2,-3,0,-2,-7,-4,-4,-1
1558434673094992,-4,-3,0,1,-3,-1,-3,-4
1558434673094992,-2,-2,-3,0,3,1,0,-2
1558434673101997,-1,-2,-4,-1,1,-2,-3,0
1558434673101997,-4,-4,-4,-5,1,7,0,-3
1558434673117963,-1,-2,-3,-4,-1,1,3,0
1558434673117963,3,4,13,21,6,-6,6,4
1558434673119888,0,0,-6,-2,0,0,1,-1
1558434673119888,-1,1,1,-6,-4,-1,-3,0
1558434673132918,-4,-2,-2,-7,-4,-1,-7,-2
1558434673132918,-4,-8,-2,-1,-7,-1,-2,-3
1558434673138900,1,-3,-1,-6,0,-6,0,1
1558434673138900,0,-2,2,8,2,-2,0,1
1558434673154836,-1,-1,-4,2,1,-2,-2,-2
1558434673154836,-3,-1,-3,-3,-7,-3,-6,-3
1558434673161840,-1,2,3,1,-2,0,-1,0
1558434673161840,-3,-4,-11,-16,-9,-2,0,-1
1558434673178466,1,4,6,-1,2,5,3,1
1558434673178466,-1,1,2,22,4,2,-2,-2
1558434673179463,-4,-5,-7,-20,-7,-4,-2,-4
1558434673179463,3,5,4,5,4,0,2,2
1558434673192704,-3,-4,-3,-2,-5,-8,-2,1
1558434673192704,-1,-1,-3,-3,-5,-3,-3,-2
1558434673199679,1,0,6,4,3,7,2,-1
1558434673199679,0,-2,-5,5,1,3,-2,-4
1558434673215367,-3,-2,-4,-5,0,-2,1,-3
1558434673215367,-1,-1,0,-9,-6,-6,-3,-2
1558434673221609,-3,-3,-5,2,-4,-4,-3,-2
1558434673221609,0,-2,2,3,2,0,0,0
1558434673238557,0,-1,-5,-9,1,2,1,0
1558434673238557,-2,1,-1,-7,-1,2,0,1
1558434673239308,-2,2,-1,3,-2,-2,-1,-2
1558434673239308,-2,-1,2,6,-5,-5,-2,-1
1558434673252267,-6,-10,-11,-14,-6,-5,-3,-4
1558434673252267,1,0,1,3,4,4,1,-1
1558434673259490,1,-1,0,3,1,1,2,2
1558434673259490,-1,2,-2,-7,-2,-3,0,-2
1558434673275205,-2,3,7,9,-1,0,1,-1
1558434673275205,-2,-2,-6,0,4,4,5,0
1558434673282220,0,1,0,6,4,-4,0,0
1558434673282220,-3,-6,-13,-35,-13,-4,-3,-3
1558434673298177,-1,-3,-4,-4,-5,1,-2,1
1558434673298177,2,-2,2,3,5,1,1,1
1558434673299144,-4,-5,-6,-3,-5,-9,-7,-4
1558434673299144,-2,1,5,8,-1,-3,-1,0
1558434673312114,-4,-5,-3,-9,-3,0,-2,-2
1558434673312114,-1,0,-1,-2,3,2,-3,-3
1558434673319123,-1,0,2,-1,3,7,3,0
1558434673319123,2,0,1,10,4,-1,-2,0
1558434673335046,3,4,3,-4,-3,-5,-1,0
1558434673335046,-1,-2,-4,4,-5,-5,-2,0
1558434673341063,-1,-1,-3,-7,1,4,6,2
1558434673341063,-2,-2,-2,5,-1,-5,-4,-3
1558434673357983,0,0,1,6,-1,-3,-3,-1
1558434673357983,-2,-3,3,0,-4,3,0,-2
1558434673359300,0,3,5,4,3,0,0,1
1558434673359300,-2,-3,-4,-9,-1,2,0,-1
1558434673372382,2,2,4,9,2,3,1,2
1558434673372382,0,-2,-5,-10,-2,-6,-1,-1
1558434673379292,-5,-5,-7,-1,-9,-5,-6,-5
1558434673379292,-2,-2,-1,2,-5,-7,-4,-1
1558434673395233,-1,-1,-2,-2,-1,-1,-2,-4
1558434673395233,-2,-2,-1,-6,-5,2,1,0
1558434673402179,4,3,8,18,22,13,5,7
1558434673402179,-1,-3,-9,-17,-8,-4,0,-2
1558434673418160,0,-1,-2,-1,-7,-5,-5,-2
1558434673418160,-2,-3,-3,-3,-8,-6,-5,-2
1558434673419899,-1,-2,1,2,0,-1,-1,1
1558434673419899,1,3,4,11,8,4,4,1
1558434673432939,-2,0,-2,-7,0,-3,0,1
1558434673432939,2,-1,-3,-5,-2,2,-1,-2
1558434673439087,-1,0,4,1,-3,3,-2,-4
1558434673439087,-2,-4,-2,-4,0,-3,1,-3
1558434673454728,2,1,-1,-1,-3,-6,-1,-1
1558434673454728,-4,-2,-6,-5,3,2,0,-1
1558434673461997,-2,-4,-4,-8,-11,-5,-4,-2
1558434673461997,1,1,7,12,6,9,1,1
1558434673477974,-1,-2,-6,-10,0,-2,2,1
1558434673477974,2,3,4,3,5,2,3,3
1558434673479915,-4,-5,-15,-17,-14,-7,-5,-4
1558434673479915,-2,-1,0,-8,-7,-3,-5,-3
1558434673491663,-1,-3,-3,2,-3,-4,-1,-2
1558434673491663,-1,-1,1,2,-7,-7,-2,1
1558434673499788,-1,-2,-1,4,5,4,-1,-3
1558434673499788,1,0,0,5,4,-2,2,2
1558434673514896,-1,0,-2,6,4,4,-1,0
1558434673514896,-2,0,4,6,-4,-7,-4,-5
1558434673521875,-2,-3,-5,-11,-9,0,-1,-2
1558434673521875,-2,-2,3,8,7,3,2,-1
1558434673537826,0,-2,-2,0,-1,-3,1,0
1558434673537826,1,-1,0,0,3,-1,-1,0
1558434673539501,1,3,4,8,1,-1,-1,0
1558434673539501,-4,-5,-8,-24,-13,-1,-3,-3
1558434673554039,-1,-2,-2,5,4,8,1,-2
1558434673554039,0,0,1,-8,-2,-3,-2,-1
1558434673560444,-1,-1,-1,-2,-3,-5,-2,-1
1558434673560444,0,2,1,3,1,-1,1,0
1558434673575446,-2,-1,0,0,-7,-4,-5,-3
1558434673575446,-5,-2,-5,0,-5,0,-2,-1
1558434673581712,0,1,5,4,5,-1,-3,1
1558434673581712,-1,-1,1,0,2,0,-2,0
1558434673598643,-2,-1,-3,-7,-3,3,-1,-1
1558434673598643,2,2,9,15,3,4,2,-1
1558434673599340,-2,-2,-12,-9,-2,-7,-1,0
1558434673599340,0,1,0,-5,-2,-3,-5,-1
1558434673611626,0,-2,4,3,1,1,0,-1
1558434673611626,-1,0,-2,-2,4,5,1,1
1558434673620463,-1,-8,0,-2,-2,-3,-3,-1
1558434673620463,1,0,3,10,-1,-5,0,-2
1558434673635373,-3,-1,5,0,2,3,-1,-2
1558434673635373,0,-2,-8,-7,2,1,0,-1
1558434673642246,1,2,2,4,-2,0,2,-2
1558434673642246,1,-2,-6,-4,3,0,1,-1
1558434673658183,-2,-2,-5,-7,-8,-8,-3,-1
1558434673658183,0,-1,4,3,-3,-2,-3,0
1558434673659178,0,1,0,-1,4,10,6,1
1558434673659178,-2,-3,-6,-4,-4,0,-3,-3
1558434673672145,-3,-1,6,4,0,-5,-1,-3
1558434673672145,-3,-7,-11,-6,-10,-8,-8,-4
1558434673680124,2,1,3,0,2,2,4,1
1558434673680124,1,1,0,6,8,9,5,5
1558434673695388,3,-1,-1,5,4,-2,-3,1
1558434673695388,-4,-1,-3,-8,-8,-7,-4,-2
1558434673701716,-1,-1,-2,-6,-7,-3,-6,-4
1558434673701716,-2,-1,-2,-8,-9,-6,-6,-6
1558434673718643,-1,-2,-2,-3,5,1,4,0
1558434673718643,-1,-2,-3,3,6,6,4,2
1558434673719340,-2,2,1,-1,3,6,1,0
1558434673719340,0,1,6,8,3,2,2,1
1558434673731642,-1,-2,-8,-6,-7,-1,-2,1
1558434673731642,-2,-2,1,5,2,-1,-1,-2
1558434673740283,-4,-3,-7,-20,-20,-13,-8,-3
1558434673740283,0,1,0,2,3,0,-2,1
1558434673755323,0,1,5,1,4,4,3,-1
1558434673755323,3,2,-2,6,7,8,8,2
1558434673762299,-1,-1,1,6,-3,-3,-4,-3
1558434673762299,-2,-4,-5,-4,-3,0,-2,-2
1558434673777494,0,-2,1,-9,-3,-1,-1,-1
1558434673777494,-2,0,-1,1,-7,-9,-7,-1
1558434673784462,-2,-2,-6,-7,-2,-1,-3,-1
1558434673784462,0,2,8,21,4,1,1,3
1558434673792257,0,-1,-3,-13,-1,2,3,-1
1558434673792257,-2,-6,-8,-12,-5,-4,-3,-4
1558434673800441,1,-2,2,5,0,-4,-1,-1
1558434673800441,-3,-3,-9,-15,-3,-2,-3,-2
1558434673815259,0,0,2,7,-2,1,1,1
1558434673815259,-2,0,1,-7,-7,-7,-5,-4
1558434673829364,1,3,9,16,10,9,6,3
1558434673829364,0,1,-3,-2,2,2,0,0
1558434673837349,-2,-2,-5,3,-3,-1,-4,-3
1558434673837349,-1,-2,0,-4,3,3,1,0
1558434673844178,-2,-4,-10,-9,-6,-2,-3,-5
1558434673844178,-1,1,4,-3,-3,-2,0,0
1558434673852222,0,1,-2,11,0,-9,-1,0
1558434673852222,-1,-2,-4,-8,1,1,0,2
1558434673866562,-2,-1,-5,-17,0,0,0,-1
1558434673866562,-1,-2,-3,-3,-1,0,0,-1
1558434673874249,0,-1,3,-1,-4,0,-6,-3
1558434673874249,0,-1,2,7,-5,-3,-4,-2
1558434673881233,-1,-1,1,0,-1,-7,-2,-1
1558434673881233,1,1,7,8,1,0,4,2
1558434673897230,-2,-1,-1,8,3,4,1,1
1558434673897230,-4,-6,-10,-18,-14,-8,-3,-3
1558434673904226,-1,1,3,2,-2,4,3,0
1558434673904226,0,-2,-5,3,0,-3,-5,-3
1558434673911191,-2,-1,-2,-15,-3,2,-1,0
1558434673911191,1,2,-2,-1,5,1,0,1
1558434673921126,-2,-2,-3,0,-2,-8,-3,-1
1558434673921126,-4,0,4,10,-2,-2,-1,-1
1558434673935336,-1,-1,-3,5,3,-3,-2,-2
1558434673935336,-1,-3,0,1,-4,-2,0,1
1558434673942297,-2,-1,-5,-5,2,1,-2,-1
1558434673942297,-1,-2,-2,0,-3,0,0,0
1558434673957058,-1,-1,-2,-6,-2,6,-1,0
1558434673957058,-1,0,6,14,5,1,0,-1
1558434673964035,1,-1,1,8,7,-2,0,1
1558434673964035,-1,-3,-8,-29,-15,-4,-4,-3
1558434673981135,-4,-3,-6,-7,-12,-9,-5,-3
1558434673981135,2,3,2,1,3,4,1,1
1558434673981962,-2,-3,-3,-1,4,3,0,0
1558434673981962,-1,-2,-1,2,5,2,0,0
1558434673995271,-1,-1,-3,-2,-2,-4,-2,-1
1558434673995271,1,3,6,3,1,-3,2,2
1558434674002250,0,3,0,5,-1,2,-1,1
1558434674002250,0,-4,-6,-6,-5,-5,-3,-1
1558434674017865,-2,-2,2,6,-5,-4,-3,-2
1558434674017865,-2,-1,1,2,5,6,-1,-2
1558434674023876,-2,-4,0,-3,-3,-4,-3,0
1558434674023876,-2,-3,-5,-12,2,0,1,-1
1558434674039809,-1,0,-2,0,-3,-7,-3,-3
1558434674039809,0,1,-2,-6,2,2,2,1
1558434674041805,1,0,10,21,0,1,0,0
1558434674041805,-5,-7,-20,-37,-20,-9,-9,-6
1558434674055040,0,-2,5,4,-1,-3,0,1
1558434674055040,-1,-1,2,6,5,6,4,0
1558434674062025,1,2,0,2,4,4,2,0
1558434674062025,1,2,8,18,7,-2,0,1
1558434674076736,0,-2,-4,1,1,-1,-2,-2
1558434674076736,-2,-1,-3,-1,-5,-6,-4,0
1558434674085683,-3,-2,-4,-14,-7,0,-1,-1
1558434674085683,1,1,8,17,8,5,2,2
1558434674100644,-1,-3,-9,-17,-3,-2,-1,-2
1558434674100644,-1,-3,-1,12,7,2,-2,-2
1558434674102691,-1,0,-7,-16,-13,-5,-2,-2
1558434674102691,-1,0,2,3,2,-4,-2,-1
1558434674115054,0,4,7,13,2,-1,0,0
1558434674115054,-3,-2,0,-1,-3,-2,1,2
1558434674122058,-3,-4,-1,8,6,-2,-2,0
1558434674122058,-3,-2,-13,-34,-7,1,0,-4
1558434674138010,-3,-3,-3,6,-2,-2,-3,-1
1558434674138010,0,-4,-7,-6,-8,-7,-5,-3
1558434674144026,-1,0,1,-3,2,3,2,1
1558434674144026,2,4,14,26,14,9,5,5
1558434674160840,-2,-1,-8,-10,2,0,-2,-2
1558434674160840,-1,-1,-3,-11,-6,-3,-3,-1
1558434674161823,0,-3,0,-2,-1,-1,1,-3
1558434674161823,1,-1,2,9,1,-2,-2,-1
1558434674174827,-1,2,3,3,5,5,2,0
1558434674174827,-2,-4,-5,-10,-8,-2,-2,-4
1558434674181785,-4,-2,-6,-19,-10,-7,-5,-3
1558434674181785,-1,0,-2,0,-6,-3,1,0
1558434674196714,-1,-1,0,7,6,6,1,1
1558434674196714,-1,0,4,7,5,2,2,-1
1558434674212627,-2,0,2,6,-5,-6,-6,-3
1558434674212627,-1,-3,-2,-7,-7,-3,-1,-1
1558434674219604,-1,-2,0,-4,-2,-2,-3,-1
1558434674219604,-2,-1,-4,-3,-1,-1,-2,-1
1558434674220327,0,-2,-3,-3,1,4,-2,0
1558434674220327,0,2,5,14,9,5,4,-1
1558434674242541,-2,1,-7,-15,-10,-6,0,-3
1558434674242541,0,0,-1,-2,-2,-4,-3,0
1558434674243262,-1,-6,2,14,4,-3,-1,0
1558434674243262,0,-3,-5,-20,-8,-6,-5,-4
1558434674258252,-1,-2,0,-2,1,1,0,-1
1558434674258252,-1,2,2,3,-5,-3,-1,-3
1558434674264452,0,2,-7,-8,2,7,4,0
1558434674264452,0,-2,0,15,4,2,1,1
1558434674279428,0,-1,-1,-6,-3,-3,-1,-2
1558434674279428,-2,-4,3,7,-6,-5,-4,-1
1558434674280165,0,-4,-7,-4,-3,-5,-6,-4
1558434674280165,-1,1,-3,-3,-2,0,2,0
1558434674303104,0,-1,0,-4,6,5,2,0
1558434674303104,1,-1,2,9,6,7,3,0
1558434674303104,1,1,1,1,2,4,0,-1
1558434674303104,-2,-1,-1,0,-3,-9,-4,0
1558434674317231,-2,-2,-7,-5,0,-7,0,3
1558434674317231,-2,-1,-7,-12,-1,2,-2,-3
1558434674324046,-2,-1,2,4,-4,-5,-1,-1
1558434674324046,-1,-3,-2,3,5,8,-1,-3
1558434674340005,2,0,9,11,-3,-4,-4,-1
1558434674340005,-2,-5,-8,-3,2,-1,0,-1
1558434674340005,1,0,1,-1,-2,-2,0,-2
1558434674340005,0,0,5,9,-2,-6,-4,-2
1558434674369956,0,0,-6,-6,2,5,2,-1
1558434674369956,-1,2,0,-8,-3,-2,-3,-3
1558434674370919,-3,-8,-4,1,-3,-3,-1,-1
1558434674370919,-1,-2,-4,-22,-12,-5,-1,0
1558434674375905,-1,0,5,13,7,6,4,-1
1558434674375905,0,2,4,3,7,2,0,-1
1558434674383913,1,2,2,6,2,0,1,-1
1558434674383913,0,-1,-6,2,1,1,-2,-2
1558434674400286,-1,-1,0,3,-6,-9,-3,-1
1558434674400286,-1,-2,-8,-14,-7,-3,-4,-2
1558434674400286,-2,0,-2,-5,-5,-6,-6,-3
1558434674400286,-3,-2,-2,-1,-2,1,-1,-2
1558434674415802,0,0,0,1,7,3,0,1
1558434674415802,1,-2,6,4,6,3,4,3
1558434674422257,0,1,1,2,-2,-1,1,1
1558434674422257,-3,-2,-9,-4,-10,-5,-5,-2
1558434674438089,-1,-5,-5,-12,-3,-5,-2,-2
1558434674438089,1,-1,0,7,0,-5,-2,0
1558434674444875,-2,-3,-2,-8,-2,1,-1,-3
1558434674444875,0,0,2,9,4,4,2,0
1558434674460052,-1,0,7,10,-2,0,-2,-2
1558434674460052,0,0,3,-1,-3,2,-1,1
1558434674460681,-4,-5,-16,-19,-7,-9,-3,0
1558434674460681,1,3,3,4,7,4,3,1
1558434674475642,-3,-3,-3,2,5,2,-2,-3
1558434674475642,-3,-6,-2,-5,-5,-6,-1,-2
1558434674482007,2,0,1,1,2,6,1,0
1558434674482007,0,-1,1,1,-2,-3,-3,0
1558434674497922,4,3,2,4,5,-1,1,4
1558434674497922,0,3,2,5,0,1,-5,-3
1558434674503566,-2,-4,-7,-25,-21,-6,-2,-4
1558434674503566,-6,-8,-10,-7,1,-4,-1,-5
1558434674519869,0,1,1,-2,0,2,-1,-1
1558434674519869,-3,-2,-2,8,0,0,2,-3
1558434674520810,0,5,7,3,1,-1,-2,2
1558434674520810,1,-4,-8,-7,-4,-2,1,-1
1558434674535483,-3,-3,-4,-7,-4,-2,-4,-1
1558434674535483,0,-1,-2,-5,8,1,0,1
1558434674541833,-3,-1,0,9,-1,0,-2,-3
1558434674541833,0,-1,6,-1,-10,-6,-5,-2
1558434674557422,0,2,5,7,8,9,5,2
1558434674557422,0,0,-4,-3,0,-1,-1,2
1558434674564628,0,0,-1,-4,-2,-4,-1,-3
1558434674564628,-1,-1,-4,-2,0,-2,-1,0
1558434674579701,-2,0,-1,-3,-3,-1,0,-3
1558434674579701,-2,-3,3,6,1,2,-1,-3
1558434674580362,2,2,-2,-4,4,6,7,2
1558434674580362,-1,0,6,7,4,-9,-6,0
1558434674595475,-4,-4,-1,0,-7,-4,-4,-3
1558434674595475,-3,-2,-8,-9,-5,-3,-4,-2
1558434674601663,1,2,4,7,3,2,-3,0
1558434674601663,-3,-2,-3,3,-3,0,0,-1
1558434674618517,1,-1,1,-9,2,2,0,-1
1558434674618517,-1,-3,-3,11,-7,-4,-2,-1
1558434674624244,-2,-2,-4,-12,-1,-4,-4,-2
1558434674624244,-1,0,0,-9,-3,-7,-1,0
1558434674639204,1,-1,1,1,-8,-6,-6,0
1558434674639204,-2,-2,-2,-4,-1,4,3,0
1558434674640200,-3,-1,-3,4,7,5,0,1
1558434674640200,0,4,4,4,0,3,2,-1
1558434674655350,-2,-6,-3,-4,-1,0,0,-3
1558434674655350,2,0,2,-5,1,-4,0,-2
1558434674661402,-2,-1,2,2,-3,-3,-3,-2
1558434674661402,0,1,2,2,2,4,0,2
1558434674678102,2,2,-2,0,-1,-2,-1,1
1558434674678102,-1,-1,-5,-21,-1,-4,-2,1
1558434674684117,-1,-3,-11,-13,-7,-3,-1,-3
1558434674684117,-1,-1,1,11,-2,3,0,0
1558434674699273,0,-2,-4,-2,-5,-4,3,0
1558434674699273,0,-1,1,9,2,-1,-3,-1
1558434674706025,-2,-1,2,2,8,4,1,-2
1558434674706025,0,-3,0,-5,-1,-2,2,-1
1558434674721983,-2,-2,-4,-6,-5,-1,-1,-1
1558434674721983,-1,-1,-4,-8,-6,-5,-4,-2
1558434674722981,-2,-2,3,10,-2,-7,-4,-1
1558434674722981,0,-1,-1,-13,1,7,2,0
1558434674737939,-2,0,5,7,-1,-4,1,0
1558434674737939,0,1,-2,6,4,7,5,1
1558434674744257,0,-2,-8,-11,-5,-4,-4,-4
1558434674744257,-3,-2,-4,-3,-4,-6,-5,-5
1558434674759282,-1,1,-4,-7,-1,0,-1,-1
1558434674759282,1,3,2,-1,4,2,4,3
1558434674767217,0,-1,4,10,2,3,2,1
1558434674767217,-3,-3,2,12,1,-6,-4,-2
1558434674783181,-2,-1,1,-9,-10,-5,-6,-3
1558434674783181,-2,0,3,11,4,8,1,-3
1558434674783817,-1,-2,-12,-20,-4,1,2,-2
1558434674783817,3,2,-2,-8,1,-5,1,1
1558434674797838,-2,-6,0,7,1,-1,-3,-4
1558434674797838,-2,-2,-4,-1,1,-2,-4,-1
1558434674804128,0,1,4,8,4,2,0,-1
1558434674804128,-3,-1,-2,-4,-9,-5,-3,-1
1558434674819064,-1,1,-7,-15,-1,1,2,0
1558434674819064,3,1,5,2,4,-5,1,3
1558434674827048,0,2,6,14,7,4,-1,0
1558434674827048,-2,-5,-12,-13,-6,-1,-3,-1
1558434674841927,-3,-2,-5,-6,-5,0,-4,-4
1558434674841927,-5,-1,4,6,-4,-5,0,-1
1558434674842660,-1,0,3,2,-5,-11,-2,0
1558434674842660,0,-1,2,6,2,1,-2,-4
1558434674858617,1,-2,-2,12,1,3,2,-2
1558434674858617,-1,-4,-10,-19,2,3,-1,-1
1558434674864653,-1,-3,7,10,0,1,-1,-1
1558434674864653,0,1,-1,-6,-6,-1,-2,-1
1558434674878626,-1,2,2,6,5,1,4,0
1558434674878626,1,1,1,0,1,2,1,0
1558434674886542,1,2,-5,2,-2,-5,-2,0
1558434674886542,-2,-3,-4,-18,-4,5,1,-1
1558434674902778,-4,-9,-4,-3,-3,-9,-7,-3
1558434674902778,-2,-1,1,3,-3,0,1,-2
1558434674902778,0,1,9,1,5,4,0,0
1558434674902778,-1,4,1,10,4,2,-1,-1
1558434674917461,-4,-2,-12,-13,-9,-3,-1,0
1558434674917461,0,-1,-2,-6,-3,-9,-1,2
1558434674923442,-2,-4,-9,-6,-5,-6,-4,-1
1558434674923442,-1,0,4,5,6,6,2,0
1558434674939399,2,3,8,8,11,8,0,-1
1558434674939399,-2,-2,-2,1,-10,-7,-5,-5
1558434674946708,-4,-4,-7,-35,-12,-4,-1,0
1558434674946708,0,-5,-1,0,2,-3,-4,-2
1558434674962673,1,3,1,0,-2,-7,0,2
1558434674962673,-4,-3,-1,2,-6,-2,-3,-4
1558434674962673,1,3,2,4,10,15,5,2
1558434674962673,-3,-3,1,6,-4,-3,-2,-1
1558434674977297,2,1,0,-1,7,2,1,0
1558434674977297,1,2,5,0,0,5,1,0
1558434674984604,-3,-5,-9,-3,-8,-5,-4,-2
1558434674984604,1,3,0,-4,-2,-2,-1,0
1558434674999581,-1,3,0,13,-2,-4,-5,-2
1558434674999581,-4,-8,-6,-12,-4,-7,0,-2
1558434675006223,1,-1,-1,-8,0,2,3,0
1558434675006223,0,-2,1,9,-3,0,-5,0
1558434675022356,0,-1,4,-1,2,0,0,2
1558434675022356,0,3,3,-4,0,-2,-3,-3
1558434675023177,-4,-3,-2,10,1,-2,-1,1
1558434675023177,1,1,4,4,5,3,5,1
1558434675038390,-2,-3,-3,4,-5,-6,-3,-2
1558434675038390,-2,-4,-11,-23,-12,-4,-7,-3
1558434675044444,0,-2,4,9,-3,-5,-6,-4
1558434675044444,1,1,-6,-13,5,11,4,0
1558434675059393,-1,-2,1,17,12,5,2,0
1558434675059393,1,3,6,17,2,-1,4,1
1558434675067142,-1,-3,-4,-20,-8,-8,-4,-2
1558434675067142,0,-2,-3,-2,-4,-7,-4,-1
1558434675082344,-2,-3,-7,-12,-5,-2,-3,-2
1558434675082344,-1,-2,2,9,3,4,1,-1
1558434675083016,1,1,2,7,2,-2,0,-2
1558434675083016,-2,-3,2,13,2,-3,-1,-3
1558434675097978,-1,-2,-6,-10,0,3,2,-1
1558434675097978,1,1,-8,-3,-3,0,0,0
1558434675104284,0,2,-4,4,5,6,1,0
1558434675104284,-2,-3,-4,-6,-6,-4,-2,-2
1558434675118921,-4,-5,3,-10,-10,-8,-6,-3
1558434675118921,-5,-7,-8,-9,-6,-4,-6,-7
1558434675127216,2,2,9,10,6,4,5,1
1558434675127216,0,3,-1,-3,7,3,2,1
1558434675143015,0,1,1,6,0,-2,1,-1
1558434675143015,0,-1,5,8,4,4,1,0
1558434675143015,-2,1,-3,-2,5,5,-1,-3
1558434675143015,-3,-5,-11,-19,-11,-8,-3,-2
1558434675157816,2,-1,2,4,3,3,1,3
1558434675157816,0,-1,1,1,-1,-2,-2,-1
1558434675164853,1,-1,4,12,-8,-5,1,-2
1558434675164853,-1,2,7,11,7,0,-2,-3
1558434675179677,-3,-4,-14,-42,-13,0,-1,-2
1558434675179677,-1,1,0,2,3,2,0,1
1558434675187302,-3,-3,1,9,-1,-2,-3,1
1558434675187302,-1,-4,0,-2,-7,-12,-5,-2
1558434675202549,-1,1,7,8,5,1,-3,-2
1558434675202549,2,4,-1,-2,11,7,3,3
1558434675203243,-1,-3,-5,-9,-3,-1,2,2
1558434675203243,-5,-7,0,4,-1,-3,-3,0
1558434675218201,-2,0,-2,-2,-11,-5,-2,-4
1558434675218201,1,-3,-6,-5,-1,-2,2,0
1558434675224187,1,4,6,1,5,3,0,-2
1558434675224187,-2,-1,-7,-8,-4,-4,-1,-1
1558434675239183,-1,-2,4,4,-1,-1,-1,0
1558434675239183,-1,0,-6,-6,-6,-5,-1,1
1558434675246160,0,-3,-3,-4,-6,-11,-4,-2
1558434675246160,4,1,3,5,12,15,4,2
1558434675262118,-1,1,-1,8,2,4,-1,0
1558434675262118,0,0,2,2,-5,-8,-6,-2
1558434675263083,-4,-3,-5,-13,-7,-1,-4,-1
1558434675263083,-3,-1,-1,3,-2,0,3,0
1558434675278048,1,1,-4,-1,2,-5,2,3
1558434675278048,-2,-3,1,-5,-1,0,0,-1
1558434675284243,-1,-4,-8,-1,-12,-13,-6,-4
1558434675284243,3,4,4,10,3,2,0,0
1558434675299018,-3,-6,-8,-10,-2,1,0,-3
1558434675299018,-1,-1,3,-3,-2,1,0,1
1558434675305976,0,1,2,3,10,8,5,3
1558434675305976,-4,-2,-3,-3,-5,1,-1,-1
1558434675321956,0,4,1,-3,-2,-6,-4,-1
1558434675321956,-4,-5,-3,6,-8,-9,-6,-5
1558434675322922,-1,-2,1,3,4,-2,0,0
1558434675322922,2,-1,1,1,-1,-3,0,1
1558434675337882,2,1,6,12,9,9,1,1
1558434675337882,1,4,-4,-9,-5,-1,-3,-4
1558434675343924,-3,-2,-2,-4,-10,-4,-4,-5
1558434675343924,-2,-2,-3,-4,1,1,0,-3
1558434675359174,-2,-1,-7,-10,-6,-3,1,0
1558434675359174,-2,-1,0,6,3,4,1,1
1558434675367105,1,0,-1,-3,-1,0,0,1
1558434675367105,-2,-4,0,-1,0,-2,-3,-2
1558434675382845,0,-1,2,6,-4,-4,-4,-3
1558434675382845,-1,-2,2,6,6,7,4,1
1558434675382845,-1,1,-1,10,15,12,4,0
1558434675382845,-3,-1,-9,-22,-10,-7,-1,-1
1558434675397720,-5,-6,-5,-7,-15,-10,-5,-5
1558434675397720,-1,-4,-6,-5,-5,-7,-5,-4
1558434675403706,-1,1,1,3,4,-2,-1,-3
1558434675403706,1,1,5,7,0,4,0,0
1558434675418665,-1,4,8,15,10,6,0,-2
1558434675418665,-3,-1,-5,-16,-10,-8,-5,-1
1558434675426643,-4,-6,-5,-8,-10,-6,-3,-2
1558434675426643,0,1,2,2,7,5,4,1
1558434675443046,2,-3,-6,-2,-4,3,3,1
1558434675443046,0,1,5,10,7,5,-1,-3
1558434675443046,-1,-2,-6,-19,-6,-3,-5,-1
1558434675443046,-4,-2,-5,-1,-7,-6,-2,-2
1558434675457560,-2,-3,0,1,-2,-4,-4,-2
1558434675457560,0,2,0,1,-4,-5,-1,0
1558434675464867,3,0,1,9,6,3,3,1
1558434675464867,-3,-4,-2,-4,-7,-6,-6,-5
1558434675478870,-2,-1,-1,-10,6,7,1,1
1558434675478870,-3,-4,-2,10,5,6,3,0
1558434675486483,-1,-1,0,-8,-14,-11,-3,-2
1558434675486483,0,-1,1,1,-1,-7,-2,1
1558434675502440,-1,0,-6,9,2,0,-3,-2
1558434675502440,0,-2,-3,-34,-3,-6,-5,-2
1558434675503700,-2,-6,-8,-3,-2,8,4,0
1558434675503700,-1,0,3,2,0,1,-1,0
1558434675517400,-3,-3,-3,-2,-3,-5,-2,-3
1558434675517400,1,-1,1,3,0,-2,-2,-1
1558434675523385,1,5,10,16,8,5,2,-2
1558434675523385,2,-1,-7,-14,-1,-4,-1,0
1558434675538835,-1,1,2,-2,-4,0,-1,-3
1558434675538835,-3,-3,0,5,-6,-4,-4,-2
1558434675546325,-2,-4,-13,-23,-1,0,-1,0
1558434675546325,1,0,1,16,3,3,0,0
1558434675562281,0,-1,3,-11,7,4,2,2
1558434675562281,-3,-5,-5,-7,-3,0,1,1
1558434675562281,-2,-3,2,6,-11,-13,-8,-3
1558434675562281,2,4,0,6,8,5,3,2
1558434675578241,1,3,2,-2,-4,-3,-1,1
1558434675578241,1,2,5,11,5,6,2,1
1558434675584657,-4,0,-5,-10,1,-3,-2,-2
1558434675584657,-3,-5,-7,-3,-11,-9,-5,-6
1558434675599642,-3,-2,-1,5,0,-4,0,-2
1558434675599642,1,2,3,1,5,1,2,1
1558434675606167,1,5,5,12,4,1,-2,-1
1558434675606167,-1,-4,-4,-12,1,7,1,-2
1558434675622292,-2,-4,-1,1,-4,0,1,0
1558434675622292,-1,-3,-6,2,-4,-14,-4,-3
1558434675623118,-3,-3,-3,-7,-3,-1,-3,-2
1558434675623118,-2,3,-1,-4,-5,-4,-5,-3
1558434675638080,0,-1,2,14,0,-2,-3,-1
1558434675638080,2,0,-1,-11,3,6,6,3
1558434675644355,0,-1,0,-7,-2,3,1,0
1558434675644355,-1,0,2,0,-2,-3,-5,-3
1558434675659283,2,-1,-3,4,7,-3,-2,-2
1558434675659283,2,2,2,-7,-3,1,1,0
1558434675667142,-1,-2,-5,-3,-3,-2,0,-2
1558434675667142,-1,-2,2,2,6,-2,-2,-2
1558434675682116,-3,-5,-8,-16,-13,-8,-6,-3
1558434675682116,-1,1,0,10,4,0,-3,-1
1558434675688942,0,2,-2,-1,5,5,3,4
1558434675688942,-3,-1,3,5,-4,0,0,-2
1558434675697918,-1,1,-2,-6,-2,-3,-2,-3
1558434675697918,0,1,0,3,-4,-5,-2,-2
1558434675703905,-1,2,0,3,6,3,2,0
1558434675703905,-1,-7,1,12,4,2,2,1
1558434675718862,-2,-4,-7,-26,-12,-5,-2,-3
1558434675718862,-2,-1,1,0,0,2,-4,-3
1558434675726840,1,0,6,4,-1,-2,-1,0
1558434675726840,2,5,7,19,4,2,3,1
1558434675749813,-2,-3,-7,-17,-9,-4,-1,-1
1558434675749813,-3,-5,-4,-6,-9,-4,-2,-4
1558434675749813,2,0,5,16,15,5,2,2
1558434675749813,-1,-2,-6,-10,0,2,0,0
1558434675757757,-1,-1,4,10,3,4,-3,-4
1558434675757757,-3,0,-2,-7,-10,-7,-7,-2
1558434675763776,2,0,-1,-1,7,3,4,2
1558434675763776,-1,-3,-2,-9,-4,-2,-2,-1
1558434675778760,0,-1,2,5,-3,-2,-3,0
1558434675778760,1,-1,1,8,7,3,0,0
1558434675802675,-2,-4,-8,-16,-6,0,-1,-5
1558434675802675,1,0,0,-4,2,-3,2,-1
1558434675803670,1,1,2,5,1,-2,1,2
1558434675803670,-1,2,4,10,2,2,0,0
1558434675808621,0,-2,-1,-1,-11,-6,-6,-3
1558434675808621,-5,-7,-3,-2,0,1,-3,-6
1558434675824605,0,0,-3,-6,-2,-1,1,0
1558434675824605,1,-1,0,0,8,2,5,3
1558434675825603,-2,0,0,-8,-3,-5,-3,-2
1558434675825603,-3,-1,-2,-3,-11,-7,-5,-2
1558434675838541,-2,-4,-6,5,8,5,2,-3
1558434675838541,-1,1,-2,-15,-3,-5,0,1
1558434675846520,-1,-3,-4,2,2,-1,-1,-2
1558434675846520,0,1,-3,0,-6,-2,-1,1
1558434675861479,1,1,2,5,-2,-3,0,1
1558434675861479,-1,-3,-9,-9,-1,-1,-5,-2
1558434675868462,-3,-6,1,16,-3,-11,-5,-3
1558434675868462,-1,0,2,-9,-3,-2,-2,-1
1558434675884419,-1,3,3,7,10,6,4,3
1558434675884419,0,-1,1,3,-3,4,4,-1
1558434675885415,-1,-4,-6,4,-4,1,-2,-2
1558434675885415,-2,-3,-7,1,0,-1,1,1
1558434675898380,1,3,4,0,9,6,4,1
1558434675898380,-2,-8,-1,0,-9,-8,-7,-4
1558434675906361,-1,0,1,-5,-5,-8,-5,-1
1558434675906361,0,1,-1,-9,-5,3,0,-2
1558434675921377,1,2,4,13,8,2,0,2
1558434675921377,-1,-1,-8,-2,6,10,4,0
1558434675929299,0,0,-2,-2,1,3,2,0
1558434675929299,-3,-6,-12,-9,-9,-16,-10,-4
1558434675944259,0,-1,3,-4,-3,-5,-4,-1
1558434675944259,-2,-1,4,12,-2,-1,-4,-2
1558434675945258,-2,-3,-3,-1,-1,-2,-1,-1
1558434675945258,2,3,4,6,2,6,4,1
1558434675959246,-3,-4,-9,-7,-6,4,2,0
1558434675959246,-1,0,1,0,1,-1,-4,-2
1558434675974204,-1,-4,-3,-9,-3,-2,-6,-3
1558434675974204,1,0,-2,-14,-2,6,3,2
1558434675981163,1,0,0,1,-3,-6,-5,-5
1558434675981163,0,0,1,5,3,-2,1,0
1558434675997118,-1,-3,0,-1,0,1,1,1
1558434675997118,-1,0,0,2,3,-1,-2,-2
1558434676004109,-4,-4,-10,-10,1,-3,0,1
1558434676004109,-1,2,-1,-4,-2,2,-1,-1
1558434676005106,0,2,2,3,2,4,0,-2
1558434676005106,-1,-1,2,6,-2,-3,-2,2
1558434676019059,-2,-5,-2,-5,-9,-3,-3,-5
1558434676019059,3,2,4,14,2,-1,0,0
1558434676026040,0,1,-1,-18,0,1,1,2
1558434676026040,-1,-4,-9,-7,2,2,-2,-3
1558434676041000,0,2,2,1,5,7,4,1
1558434676041000,-5,-7,-9,-9,-7,-5,-4,-3
1558434676048980,-1,0,3,7,-9,-6,-5,-3
1558434676048980,-1,0,2,1,-1,-5,-2,0
1558434676064936,-1,-4,0,0,4,0,0,-2
1558434676064936,-1,-1,4,8,0,-5,-2,-4
1558434676064936,0,0,3,-3,2,5,4,-1
1558434676064936,-2,-8,-10,-7,-2,-7,-2,0
1558434676078899,-1,0,1,0,-4,-1,-4,-2
1558434676078899,-1,-1,-4,-9,-4,3,-1,0
1558434676085880,-2,0,1,7,-1,1,-1,-3
1558434676085880,2,5,7,6,2,-2,-1,0
1558434676100839,-1,-1,-2,-14,-5,-7,-4,1
1558434676100839,-3,-1,4,3,3,0,1,-1
1558434676108820,-1,-2,-8,-3,6,4,0,0
1558434676108820,-3,-3,-1,0,-3,-4,-2,-1
1558434676124779,-1,-1,-2,2,-4,-2,0,0
1558434676124779,0,-2,-6,-9,-4,-2,-3,-3
1558434676124779,-1,0,1,5,-3,-3,1,3
1558434676124779,0,0,4,8,3,2,-3,-3
1558434676138739,0,-1,1,-7,-4,-3,-3,-2
1558434676138739,5,5,2,10,11,4,9,7
1558434676154698,-2,-2,-4,-21,0,4,-1,-2
1558434676154698,-3,-3,-11,-9,-8,-2,1,-2
1558434676161677,-3,-4,-6,-10,-5,-9,-8,-3
1558434676161677,-2,-5,0,-3,-8,-5,-6,-4
1558434676176637,1,-1,2,1,-6,-5,-2,0
1558434676176637,2,3,10,17,12,8,2,2
1558434676184622,2,4,7,11,11,14,5,2
1558434676184622,-5,-5,-11,-16,-4,3,2,0
1558434676185613,1,2,-3,8,-5,-15,-6,-3
1558434676185613,-1,-2,-10,-25,-17,-7,0,-3
1558434676206561,-5,-7,-1,6,-1,0,1,-4
1558434676206561,2,3,9,16,8,6,0,-1
1558434676207555,-5,-6,-11,-14,-12,-9,-7,-5
1558434676207555,-1,2,-1,-4,4,0,0,0
1558434676221517,5,3,6,9,9,7,5,0
1558434676221517,-4,-6,-13,-9,-5,-2,-2,-2
1558434676228499,-2,-1,2,6,-7,-4,-2,1
1558434676228499,-2,-2,-1,5,4,6,-1,-3
1558434676244458,0,0,1,1,-3,-6,1,2
1558434676244458,3,6,3,5,12,2,1,5
1558434676245454,-1,-4,1,6,-6,1,-2,-4
1558434676245454,-2,-2,1,5,-3,-2,-2,1
1558434676258419,-2,0,-14,-33,-5,-5,-2,-1
1558434676258419,-1,-3,0,-6,-5,2,1,-6
1558434676266397,0,0,-3,-6,-7,-8,-5,0
1558434676266397,1,2,3,6,4,3,5,1
1558434676281357,-2,-7,3,8,-5,-4,-5,-3
1558434676281357,0,-2,-1,4,0,-3,-1,-1
1558434676288339,2,2,3,4,18,19,6,5
1558434676288339,-1,-4,-2,10,4,4,1,-3
1558434676304298,3,4,-1,6,-12,-13,-3,1
1558434676304298,-1,-3,-13,-22,-15,-16,-3,0
1558434676311277,-2,-2,7,18,7,5,1,-4
1558434676311277,1,2,-2,-14,-3,3,-1,1
1558434676320254,0,2,2,-4,3,5,-1,0
1558434676320254,-3,-4,-1,-5,-6,-4,-5,-3
1558434676326237,0,0,-1,-3,-3,-3,1,2
1558434676326237,0,-4,-2,-6,-7,-13,-8,-1
1558434676343192,3,2,4,7,15,11,7,2
1558434676343192,-3,1,3,1,-7,0,-2,-1
1558434676349177,-1,0,-3,9,5,4,0,-1
1558434676349177,-5,-8,4,0,2,6,3,0
1558434676364137,-2,-1,-4,6,-7,-7,-3,-4
1558434676364137,0,1,-3,2,-2,-2,-4,-1
1558434676365134,-1,0,-3,-20,-7,-3,0,0
1558434676365134,0,-1,-3,2,4,-2,-1,-2
1558434676380093,-4,-5,-6,-8,-11,-7,-5,-1
1558434676380093,1,3,2,4,8,5,2,0
1558434676386079,-1,-1,2,2,-3,-1,-3,-2
1558434676386079,0,4,4,-6,2,1,-3,-1
1558434676401037,-1,-1,1,10,7,9,4,2
1558434676401037,0,0,-1,1,-3,-9,-4,-2
1558434676409016,0,-2,-3,-7,-1,-3,-1,-1
1558434676409016,1,-1,-3,-1,-3,-7,-4,0
1558434676423976,-2,0,1,1,-5,-3,-5,-4
1558434676423976,-2,-1,-4,-5,-7,-1,-3,-4
1558434676424973,1,0,1,1,7,4,4,1
1558434676424973,0,0,-2,-4,-1,2,3,-2
1558434676439934,0,1,1,6,-5,-8,-5,-1
1558434676439934,-1,-2,2,4,7,5,4,3
1558434676445920,-1,-1,-5,-10,-2,-1,2,0
1558434676445920,-3,-2,0,-4,-5,-5,-7,-5
1558434676460878,-6,-4,-6,-2,-11,-9,-9,-5
1558434676460878,0,3,2,0,6,11,6,3
1558434676468856,-1,1,0,5,9,8,3,3
1558434676468856,-1,-3,1,7,-4,-4,-3,-2
1558434676484813,-2,-3,-11,-29,-8,-4,1,-3
1558434676484813,-2,-3,-4,-7,-4,-7,-2,-4
1558434676484813,0,-3,2,2,-10,-7,-7,-4
1558434676484813,0,0,-1,0,0,1,1,1
1558434676499773,2,2,-1,6,10,8,2,1
1558434676499773,-2,-2,-4,-6,-5,-4,-3,-2
1558434676514733,0,-1,2,6,8,1,2,1
1558434676514733,-5,-1,-1,-4,-2,-2,-1,-4
1558434676521714,0,-1,2,1,0,2,2,1
1558434676521714,-1,0,1,0,0,-1,-2,0
1558434676528697,-3,-2,-3,0,-6,-6,-6,-4
1558434676528697,0,1,0,5,-5,-5,-2,-1
1558434676544653,-1,3,-5,-7,1,-1,-2,-3
1558434676544653,-7,-11,-2,3,-4,2,3,-1
1558434676544653,1,1,0,1,14,6,6,4
1558434676544653,1,0,1,3,5,5,1,-1
1558434676561863,-2,-2,1,2,-4,-5,-4,-3
1558434676561863,-2,1,-1,-2,-11,-7,-7,-3
1558434676566594,-2,1,-2,-1,-6,-5,-3,-1
1558434676566594,0,-1,-4,-6,0,1,1,0
1558434676581553,0,0,0,5,1,-6,0,0
1558434676581553,1,0,2,-3,-2,-4,-2,1
1558434676588537,-1,1,5,11,13,15,6,0
1558434676588537,-2,-2,-13,-5,-4,-4,-1,-4
1558434676603496,-3,-3,2,-3,-9,-3,-2,3
1558434676603496,-2,-4,-10,-9,-8,-6,-2,-8
1558434676611474,0,-2,-4,-9,-2,-5,-4,-4
1558434676611474,3,0,1,-1,-3,1,2,5
1558434676620450,-2,-2,5,10,8,0,-3,-2
1558434676620450,-3,0,-2,-6,0,1,0,0
1558434676626435,-3,-1,-1,4,-5,-2,-1,-1
1558434676626435,-1,0,0,1,1,-2,1,-2
1558434676641395,1,2,-5,-6,0,-1,1,-1
1558434676641395,2,4,4,4,6,1,0,-1
1558434676648375,-5,-9,0,-3,-8,-7,-4,-4
1558434676648375,-4,-3,-11,-17,-1,-1,-3,0
1558434676663335,-2,-3,-1,3,0,4,0,3
1558434676663335,-4,-1,-2,4,0,-1,-3,-8
1558434676671314,-1,-3,-5,-10,-7,-2,-1,-1
1558434676671314,2,0,8,-1,-3,-4,1,7
1558434676680290,-1,0,-1,7,4,4,-4,-11
1558434676680290,-1,-1,2,11,6,0,-2,-1
1558434676686273,4,6,1,-10,-1,1,1,6
1558434676686273,-3,-3,4,9,6,5,2,-2
1558434676701234,0,-2,-3,-7,-5,-6,-1,-2
1558434676701234,0,-2,-1,-1,-5,0,-1,-2
1558434676709219,-1,-2,-8,-4,-5,-6,-1,-5
1558434676709219,-1,0,1,-7,-6,-8,-5,1
1558434676724173,-2,-1,-3,-5,-4,-1,-1,1
1558434676724173,2,3,8,24,14,6,-1,2
1558434676731154,0,4,9,22,-2,-8,-3,0
1558434676731154,-3,-4,-14,-27,-3,6,3,-1
1558434676740134,0,-4,-2,2,11,5,3,1
1558434676740134,1,1,-2,-7,-1,1,2,0
1558434676746114,0,0,-8,1,-11,-7,-3,-3
1558434676746114,-5,-8,9,22,0,-3,-7,-8
1558434676761074,-2,-5,-14,-28,-20,-10,-4,-3
1558434676761074,-1,0,-2,-12,-5,-3,0,2
1558434676769056,1,1,1,17,16,9,0,-1
1558434676769056,3,5,9,22,5,6,7,2
1558434676784014,-1,-2,1,5,9,2,2,0
1558434676784014,-1,-3,-11,-36,-11,1,4,2
1558434676790997,-1,-5,-8,-17,-3,-7,-5,0
1558434676790997,-5,-3,-3,-1,-7,-5,-5,-12
1558434676806952,3,5,5,10,7,3,3,3
1558434676806952,3,0,0,8,2,-2,1,3
1558434676807949,-3,0,13,10,0,-3,-3,0
1558434676807949,-1,0,1,5,-5,-4,-3,-1
1558434676820916,-6,-7,-29,-47,-16,-9,-7,-7
1558434676820916,-1,-2,-1,14,1,4,2,-2
1558434676828893,0,-3,-15,-38,-9,-3,1,1
1558434676828893,1,1,15,27,15,3,-1,2
1558434676843853,-2,-1,-2,4,-6,-4,-2,-2
1558434676843853,-2,0,-1,-9,0,-5,-3,-1
1558434676850835,0,-1,3,5,2,3,-1,-3
1558434676850835,2,2,-6,-19,-3,-2,1,1
1558434676866791,0,3,8,25,12,8,5,3
1558434676866791,-8,-13,-22,-37,-15,-7,-7,-11
1558434676867789,0,4,11,12,-3,0,1,1
1558434676867789,-3,-5,-12,-14,-10,-9,-6,-6
1558434676881751,3,2,10,14,10,6,0,1
1558434676881751,3,4,4,14,11,-1,0,5
1558434676888734,-1,-1,-13,-17,6,12,7,-5
1558434676888734,-4,-6,-4,2,1,-6,-3,-4
1558434676903692,-3,-4,-5,-5,-7,-4,-7,-5
1558434676903692,0,-1,12,11,-1,0,3,2
1558434676911683,-2,-1,4,10,-1,-11,-5,1
1558434676911683,2,2,-1,-15,-4,5,6,3
1558434676926632,-2,-2,-15,-19,-4,-7,-3,-1
1558434676926632,-5,-6,7,18,7,-8,-11,-6
1558434676927628,-6,-7,-8,-15,-19,8,4,-1
1558434676927628,3,4,5,9,20,14,3,2
1558434676941591,2,4,22,31,2,-4,3,1
1558434676941591,-1,1,-12,-17,-3,4,-4,-2
1558434676948572,-5,-8,-16,-15,-18,-14,-6,-6
1558434676948572,0,0,1,6,10,4,3,3
1558434676963533,0,0,7,3,-9,-5,-4,-2
1558434676963533,-2,-5,-12,-43,-19,-21,-3,-3
1558434676971511,1,6,8,17,18,20,2,2
1558434676971511,0,0,0,-3,11,19,9,2
1558434676986471,-5,-5,-2,8,7,12,0,-2
1558434676986471,1,4,8,15,1,-5,0,1
1558434676987469,0,0,-5,-1,-2,-16,-5,0
1558434676987469,-4,-6,-10,-8,-10,-15,-8,-3
1558434677001431,0,-1,3,-1,-12,-12,-1,1
1558434677001431,0,2,1,2,-2,13,-2,2
1558434677008413,-2,-5,-1,13,-6,4,1,-8
1558434677008413,1,-1,-5,-20,2,-10,-1,1
1558434677023382,1,3,6,18,-2,-8,0,4
1558434677023382,-2,-4,-12,-36,-14,-8,-4,-4
1558434677031352,3,4,8,19,31,21,8,5
1558434677031352,-6,-7,-4,0,-10,-12,-13,-8
1558434677047307,-2,-4,-2,-10,-2,6,6,3
1558434677047307,2,0,1,12,-3,-2,3,3
1558434677047307,-3,0,6,5,6,-4,-6,3
1558434677047307,-4,-4,-5,-13,-20,-12,-9,-9
1558434677061271,-4,-3,-17,-21,-9,-9,-8,-5
1558434677061271,0,-1,7,17,6,4,2,-2
1558434677069250,-1,0,-2,-9,-3,1,5,3
1558434677069250,0,2,2,3,-1,2,3,4
1558434677084209,1,0,1,-1,6,8,0,-1
1558434677084209,0,-2,3,7,0,-5,-3,-2
1558434677091191,-4,-5,-5,-13,-11,-13,-7,-8
1558434677091191,4,4,3,10,4,10,5,10
1558434677107149,-3,-2,-2,-13,-3,5,1,-8
1558434677107149,-2,-1,0,10,5,4,-1,-4
1558434677107149,-2,-1,-5,-3,-8,-7,-2,-1
1558434677107149,-2,1,2,3,-3,-4,-4,-2
1558434677123107,2,-1,2,4,2,0,1,3
1558434677123107,4,2,4,1,6,2,1,1
1558434677129091,-2,-3,-2,-5,-5,-5,-6,-4
1558434677129091,0,0,0,0,-4,-3,-2,0
1558434677144051,1,1,-3,-4,1,-1,1,1
1558434677144051,-1,0,-1,5,3,6,0,1
1558434677151032,0,-1,-2,-4,-7,-6,-3,-1
1558434677151032,-2,-1,-3,-6,0,-1,0,0
1558434677166989,1,1,1,-3,2,-1,0,2
1558434677166989,0,-2,-1,2,4,2,-1,-5
1558434677167986,0,-1,8,17,4,-3,-1,-3
1558434677167986,0,-2,-12,-31,-6,-1,0,-2
1558434677180951,-2,-1,-1,-3,-7,-3,-4,0
1558434677180951,-2,-2,0,10,1,0,-2,4
1558434677188930,-2,-2,-11,-18,-2,-2,-1,-2
1558434677188930,0,1,5,11,-1,-1,0,-4
1558434677203891,0,1,0,4,1,1,0,0
1558434677203891,-4,-1,-5,-4,-3,0,0,-2
1558434677210873,0,-1,1,4,0,-1,-3,2
1558434677210873,-2,-3,-1,0,-5,-3,-2,-2
1558434677226827,-4,-4,-7,-8,-5,-5,-2,-2
1558434677226827,-2,1,4,3,0,4,2,0
1558434677227826,-1,-2,-1,-2,5,3,0,-1
1558434677227826,-1,-2,-4,4,1,0,-1,-2
1558434677240792,-2,-1,2,2,0,-3,-2,-4
1558434677240792,0,0,2,13,-1,-2,0,-1
1558434677248769,-1,0,-2,-15,-6,-2,0,0
1558434677248769,2,2,4,16,0,-4,1,2
1558434677271709,1,1,1,3,14,12,7,7
1558434677271709,-3,-3,-2,5,0,-5,-2,-4
1558434677272706,-3,-2,-4,1,-2,0,0,0
1558434677272706,-4,-2,0,-14,-1,-4,-4,-4
1558434677286667,-4,-2,-2,-3,-5,-2,0,-5
1558434677286667,1,0,-7,-6,2,3,0,1
1558434677287666,1,-2,-5,-2,0,-5,-3,-2
1558434677287666,-2,-1,4,6,-6,-4,-1,2
1558434677301627,1,-2,4,5,0,-5,-4,-1
1558434677301627,-1,0,0,-4,7,8,7,6
1558434677308610,0,0,-1,-11,-6,-1,1,-3
1558434677308610,-4,-3,-2,1,-7,-3,-2,-1
1558434677323569,-1,-1,5,10,3,-1,-3,-1
1558434677323569,0,1,-3,-3,-9,-7,-4,-5
