timestamp,emg1,emg2,emg3,emg4,emg5,emg6,emg7,emg8
1558434709597627,-4,-4,-2,-2,-3,-2,-4,-5
1558434709597627,-2,-2,1,1,0,-6,-2,-1
1558434709597627,-2,-3,-2,-3,-7,-4,-1,-4
1558434709597627,0,-2,-1,0,-1,2,1,0
1558434709598625,2,0,1,4,5,1,4,2
1558434709598625,0,1,1,6,5,8,1,1
1558434709603612,0,-2,-5,-7,-7,-4,-5,0
1558434709603612,-3,-3,-7,-16,-4,1,-1,-1
1558434709610592,0,0,0,7,2,1,-2,-2
1558434709610592,-1,-2,-2,-1,5,3,-1,-3
1558434709619569,-1,-2,-1,1,-2,-1,1,-1
1558434709619569,-1,0,-1,3,-7,-7,-5,-4
1558434709625552,-2,-2,-3,0,0,-1,-1,-2
1558434709625552,0,0,4,0,-2,-3,-1,1
1558434709641510,-1,0,-1,2,2,2,1,-1
1558434709641510,0,-1,2,1,0,-2,-3,-2
1558434709650485,-2,-3,-7,-6,-1,2,-3,2
1558434709650485,-2,-2,-5,-9,-9,-3,0,-3
1558434709655472,0,1,2,5,-4,-3,-3,-3
1558434709655472,-2,0,-1,-1,9,7,1,1
1558434709670432,0,-1,3,7,-1,0,-2,-2
1558434709670432,-1,-3,-1,2,-2,-2,0,0
1558434709678411,1,1,0,-8,2,3,4,2
1558434709678411,0,1,4,13,4,-5,-2,-2
1558434709718303,-1,-1,-5,-3,-2,-3,-3,-1
1558434709718303,-1,0,-3,-3,-5,-4,-2,0
1558434709719302,-2,-1,1,5,3,2,-1,-2
1558434709719302,-2,-1,2,7,-4,-3,1,0
1558434709720299,-2,0,-2,-4,-2,3,3,-3
1558434709720299,0,-1,-3,-12,-1,-5,-1,3
1558434709723290,-2,0,-1,-7,-6,-6,-4,-3
1558434709723290,-2,-6,-9,-7,0,-1,-4,-3
1558434709730273,-1,0,7,0,-5,-1,2,2
1558434709730273,-1,1,1,7,4,1,1,0
1558434709738251,-2,-1,1,0,1,-1,1,-1
1558434709738251,-1,0,1,-1,1,-2,-2,-1
1558434709745232,0,-1,-5,0,6,1,-4,-2
1558434709745232,-1,-4,-2,-14,-16,-4,-5,-5
1558434709761190,-1,1,-4,1,8,8,4,2
1558434709761190,-4,-2,-2,-3,-1,5,1,-3
1558434709768170,0,0,1,6,4,-1,-2,0
1558434709768170,0,-3,0,6,0,-6,-3,-5
1558434709775153,1,-1,-3,-7,-9,-6,-5,-3
1558434709775153,0,4,4,4,-1,2,0,1
1558434709790112,0,-3,-7,11,2,1,2,2
1558434709790112,-1,-1,0,-2,2,-2,0,2
1558434709798090,-1,-6,-13,-17,-6,-7,-5,-1
1558434709798090,1,0,-3,-8,-3,-1,-1,1
1558434709807067,-2,-1,-1,1,-4,0,-3,-4
1558434709807067,-1,-1,2,5,0,1,-1,-4
1558434709821029,1,-1,2,7,0,-1,1,2
1558434709821029,0,1,5,4,12,8,3,1
1558434709828011,-1,1,4,7,2,3,-2,-1
1558434709828011,1,1,1,-2,1,4,4,1
1558434709842970,-1,0,-3,-6,-3,-3,-2,1
1558434709842970,-3,-6,-6,-10,-9,-7,-3,-5
1558434709849952,-2,-3,0,-3,-3,-2,-1,-3
1558434709849952,-2,-3,-1,3,4,6,-2,-1
1558434709857930,-2,0,3,3,-4,-7,-3,-3
1558434709857930,0,1,-3,1,-1,0,1,3
1558434709864912,1,1,4,0,9,3,1,2
1558434709864912,0,1,-2,15,1,-1,0,0
1558434709880869,0,-1,-7,-7,-1,0,-1,-1
1558434709880869,-2,-2,0,-9,0,0,-2,-2
1558434709887850,-3,-4,-6,-22,-15,-12,-5,-5
1558434709887850,-3,-2,1,5,-6,-4,-7,-5
1558434709894831,-2,-1,1,4,-4,-2,-3,-3
1558434709894831,1,1,-1,6,8,1,1,1
1558434709909790,3,4,10,20,14,6,8,4
1558434709909790,-4,-5,-15,-32,-14,-8,-1,-3
1558434709918768,-6,-4,-10,-15,-12,-6,-6,-5
1558434709918768,-4,-2,-2,-5,-12,-12,-6,-5
1558434709924752,0,2,1,-2,4,8,1,0
1558434709924752,2,2,6,19,13,4,5,3
1558434709941706,3,3,3,1,6,7,4,4
1558434709941706,-1,-1,-4,-12,-10,-11,-3,-3
1558434709947690,2,-1,1,1,2,-3,2,2
1558434709947690,-2,-2,-7,-12,-8,0,-3,-3
1558434709963648,0,-1,2,3,2,-1,-1,-2
1558434709963648,-1,-3,3,16,3,0,-2,-2
1558434709970630,-3,-3,-6,-9,-11,-6,-6,-4
1558434709970630,3,0,-1,12,7,2,1,2
1558434709978608,2,3,7,4,13,9,7,4
1558434709978608,-1,-2,-5,-8,-9,-1,-1,0
1558434709985590,-5,-4,-8,-12,-13,-11,-6,-4
1558434709985590,0,2,6,6,5,1,2,0
1558434710001546,-1,-2,-1,-5,1,3,1,-1
1558434710001546,-4,-4,-8,-6,-5,-7,-3,-4
1558434710007530,1,2,0,2,3,1,3,3
1558434710007530,-1,1,0,-7,-3,-5,-3,-1
1558434710024485,0,-2,-2,9,-2,-1,-1,-4
1558434710024485,0,1,5,-1,4,3,2,1
1558434710030469,-2,-4,-8,-7,-10,-14,-3,-1
1558434710030469,0,-2,-4,-3,0,3,-1,-2
1558434710039446,0,-1,4,-5,-4,-3,-5,-1
1558434710039446,0,-1,2,8,-1,0,-3,-1
1558434710045429,-2,-2,2,7,4,6,2,-2
1558434710045429,-1,2,1,0,0,-1,2,3
1558434710061385,0,-1,2,8,5,7,0,0
1558434710061385,3,2,3,1,11,6,4,1
1558434710068368,-4,-6,-12,-17,-9,-6,1,-1
1558434710068368,-2,-4,-6,-10,-7,-2,-2,-2
1558434710084324,-4,-3,-2,0,-7,-8,-3,-3
1558434710084324,1,1,4,3,-1,-3,-3,1
1558434710090309,0,0,0,2,-1,-6,-4,0
1558434710090309,-1,-1,-3,-10,-4,-1,-3,-3
1558434710099286,0,1,4,13,7,2,3,2
1558434710099286,-1,-1,-1,5,2,4,2,1
1558434710112251,1,0,7,7,11,3,0,0
1558434710112251,-4,-3,-7,-25,-18,-9,-5,-5
1558434710121228,-2,-4,-3,-3,-1,-3,-5,-5
1558434710121228,2,3,3,10,7,4,6,1
1558434710127211,0,0,5,-3,0,3,0,0
1558434710127211,-1,-1,0,19,-3,-7,-2,-2
1558434710144165,-4,-3,-9,-15,-9,-3,-3,-3
1558434710144165,-1,-2,-4,-2,-1,-6,-1,2
1558434710150149,-2,-3,-5,-13,-4,4,-1,-1
1558434710150149,2,1,3,0,8,2,4,4
1558434710159125,-2,-1,-1,3,-6,-5,-3,0
1558434710159125,-2,-1,-3,3,-3,2,-1,-2
1558434710165109,1,2,2,-2,2,2,-1,-2
1558434710165109,-3,-1,-6,-5,0,1,-4,-2
1558434710182064,-3,-3,-1,1,-2,-1,1,-4
1558434710182064,-2,-3,-2,-7,0,0,-1,-2
1558434710188047,0,0,-3,-6,-9,-14,-6,-2
1558434710188047,0,-1,0,0,2,4,0,-1
1558434710204006,4,2,6,9,9,4,7,3
1558434710204006,-1,1,1,-1,-6,-3,-1,0
1558434710209992,0,-1,-9,3,1,4,-2,-2
1558434710209992,-1,-2,5,7,3,-3,-2,-1
1558434710218965,-2,-3,-11,-32,-18,-8,-6,-3
1558434710218965,0,-3,1,5,-1,0,1,-1
1558434710224967,-2,-1,0,-2,-3,-4,-3,-3
1558434710224967,1,1,1,5,6,7,2,1
1558434710241906,1,4,6,12,10,12,3,3
1558434710241906,-2,-3,-10,-17,-4,-2,-6,-4
1558434710247888,-5,-4,-2,5,-7,-7,-3,0
1558434710247888,-4,-4,-1,-3,-5,-5,-1,-6
1558434710263847,-3,-2,-2,0,2,-2,-1,-2
1558434710263847,-1,0,3,10,0,4,1,-1
1558434710269830,2,2,4,9,11,4,3,2
1558434710269830,-3,-5,-7,-18,-4,-2,-2,-2
1558434710278808,0,-2,0,3,-6,-6,0,-2
1558434710278808,-1,2,1,4,0,-3,-2,1
1558434710292768,-3,-4,-2,-7,-6,2,-2,-2
1558434710292768,-1,-3,-2,12,3,-1,2,-2
1558434710301743,1,0,0,9,4,0,-1,0
1558434710301743,-1,-2,-2,-8,2,2,1,2
1558434710307730,1,0,1,-2,-6,-3,1,-2
1558434710307730,1,0,0,3,0,0,-1,-2
1558434710323685,-1,-4,-4,-4,-2,-3,-3,0
1558434710323685,-1,-4,-3,-8,-4,-3,-3,0
1558434710330666,-1,2,6,10,2,2,0,-1
1558434710330666,-2,1,1,-2,-3,-4,-4,-1
1558434710338645,-3,-2,-4,3,-4,-7,-3,-3
1558434710338645,-2,0,-8,-14,-4,-3,2,-2
1558434710352607,0,1,1,9,6,7,-1,0
1558434710352607,1,1,-5,-9,5,5,1,2
1558434710361584,-4,-2,1,-1,-8,-9,-3,-1
1558434710361584,-2,-1,-3,-1,-2,2,0,-2
1558434710367567,-2,0,-1,-2,5,-1,-1,-2
1558434710367567,1,1,4,9,-2,1,0,1
1558434710384522,2,-2,-6,-12,0,4,-2,-1
1558434710384522,0,-4,-1,4,-1,-3,-1,-2
1558434710390507,-3,-1,-1,-5,-6,-8,-3,-2
1558434710390507,-1,-4,-3,-1,-8,-7,-4,-1
1558434710399482,-2,2,2,-5,-3,-1,-3,-1
1558434710399482,-2,-2,-3,14,7,3,-3,-5
1558434710412450,0,0,4,12,7,8,2,0
1558434710412450,-3,-4,-13,-35,-8,-5,0,-1
1558434710421423,0,0,3,2,-1,0,0,-3
1558434710421423,-1,0,3,3,-5,0,-4,-1
1558434710427408,-3,-5,-7,-11,-9,-8,-3,-2
1558434710427408,-3,-3,1,10,-2,-2,-3,-5
1558434710444362,3,3,4,1,6,5,7,3
1558434710444362,3,2,5,1,2,-3,-1,-1
1558434710450348,-1,-3,-7,-8,-8,-1,-2,-3
1558434710450348,-1,2,5,2,-2,-3,-1,0
1558434710465306,0,1,-1,-2,-3,-5,-1,0
1558434710465306,-2,-2,0,5,0,-5,-3,-2
1558434710472291,0,-1,-1,-8,-4,3,4,0
1558434710472291,1,0,2,8,8,6,2,0
1558434710481263,-3,-2,5,3,1,-1,-2,-2
1558434710481263,-1,-3,-7,1,1,2,0,-2
1558434710487247,0,-3,-10,-34,-14,-6,-2,-1
1558434710487247,5,4,7,12,7,4,7,5
1558434710504217,-4,-4,-12,-1,3,0,-1,-3
1558434710504217,0,-2,6,-1,-3,-2,-4,-1
1558434710510186,-3,-1,1,9,-3,-1,-2,-2
1558434710510186,-1,1,3,4,6,2,-1,0
1558434710519162,1,0,-1,-3,-2,1,-1,-1
1558434710519162,1,-1,-4,-12,-10,-9,-4,-1
1558434710533125,-1,-2,1,17,4,-3,0,3
1558434710533125,-2,-3,3,-3,-1,-4,-2,-1
1558434710541104,-1,-2,2,5,4,3,0,-1
1558434710541104,-2,-2,-8,-14,-7,-2,1,1
1558434710548084,1,3,2,-5,8,2,0,0
1558434710548084,0,0,5,26,9,1,-2,0
1558434710564041,1,1,4,-1,0,-1,0,1
1558434710564041,-1,-1,-6,-6,-4,2,0,-2
1558434710570027,-1,-3,-6,-9,-12,-12,-9,-6
1558434710570027,-3,-4,-4,-5,-9,-4,-3,-2
1558434710579002,2,1,3,-3,15,16,7,3
1558434710579002,0,1,6,7,2,4,4,1
1558434710592969,1,-1,-5,4,0,0,0,1
1558434710592969,-3,-4,-5,-9,-7,-8,-4,-4
1558434710609923,-3,-3,-2,6,-8,-9,-7,-3
1558434710609923,-2,-2,-3,-9,1,1,-1,-1
1558434710610921,-1,0,-6,-9,-2,0,0,-1
1558434710610921,-1,0,0,0,1,2,0,-2
1558434710623881,0,-3,-3,-5,-9,-7,-5,-3
1558434710623881,-1,-3,2,2,1,1,3,1
1558434710629866,0,1,5,6,8,-4,-1,1
1558434710629866,-1,-2,3,6,3,6,1,1
1558434710638843,-3,-1,-3,-18,-1,1,0,-1
1558434710638843,-3,-2,-5,0,-3,-2,-5,-3
1558434710652807,-2,0,6,-3,-12,-3,-2,-2
1558434710652807,1,-3,-8,-17,-1,1,-1,-1
1558434710661785,0,-2,4,15,5,1,4,4
1558434710661785,1,0,2,0,4,-2,1,0
1558434710667767,-3,-2,-10,-2,4,2,-2,-3
1558434710667767,-2,-1,-4,-8,-11,-6,-6,-5
1558434710683735,-1,1,1,11,-2,-8,-3,-2
1558434710683735,-4,-2,-9,-23,-9,-5,-7,-5
1558434710689707,2,3,7,10,8,7,5,3
1558434710689707,2,3,0,8,20,12,8,6
1558434710705664,-2,-4,-6,-25,-11,-4,-3,-1
1558434710705664,-3,-1,0,5,-4,-9,-6,-2
1558434710712648,-1,-4,-4,-6,-4,-1,-4,-4
1558434710712648,-2,-1,4,8,-3,-1,-1,-2
1558434710728602,-1,0,-4,-4,-1,-3,-1,-2
1558434710728602,-2,0,0,-4,-5,-2,0,-1
1558434710728602,-3,-2,-4,-4,-4,-4,-4,-2
1558434710728602,2,2,2,2,3,3,3,4
1558434710743578,0,0,0,12,5,5,2,1
1558434710743578,-1,0,-5,-17,-2,-1,1,1
1558434710750542,-1,-3,-4,2,0,-2,-1,-1
1558434710750542,-2,-2,-3,-11,-8,-7,-5,-3
1558434710765502,-1,0,-1,8,-4,-4,-4,-3
1558434710765502,1,2,3,8,1,5,2,0
1558434710772486,-2,-1,3,8,6,-1,1,2
1558434710772486,-5,-3,-4,-9,-4,-4,-3,-2
1558434710788447,-3,-4,-7,-13,-1,-4,-3,-1
1558434710788447,1,2,5,20,9,6,4,2
1558434710789440,-3,-2,-4,-16,-3,1,-1,-2
1558434710789440,1,0,-2,-2,-8,-4,-4,-3
1558434710804400,-1,0,1,4,-4,-1,-4,-4
1558434710804400,-2,-4,1,1,-3,-5,-1,0
1558434710810385,-1,1,2,4,-2,-3,0,2
1558434710810385,-3,-3,3,11,5,6,0,1
1558434710825351,-3,-3,-4,-7,3,5,2,-2
1558434710825351,-1,-3,-5,-2,-1,-7,-5,-3
1558434710832329,2,3,6,13,0,4,5,2
1558434710832329,1,0,-5,-14,1,0,1,-3
1558434710848293,-2,-3,-4,-3,-4,-4,-5,-3
1558434710848293,-4,-5,-4,1,-10,-7,-6,-4
1558434710849286,1,2,5,3,9,4,5,2
1558434710849286,1,-1,2,10,-2,-5,-1,-1
1558434710864245,0,0,3,1,3,6,2,3
1558434710864245,1,2,-1,-4,3,-2,-2,1
1558434710870224,-1,-1,1,13,4,0,-4,-3
1558434710870224,-3,-2,-2,-13,-11,-4,-1,-2
1558434710885185,-2,-6,-9,-9,-9,-3,-1,-3
1558434710885185,-1,-2,-3,5,-6,-9,-6,-3
1558434710893245,1,2,-1,-1,0,3,3,1
1558434710893245,-1,2,0,2,18,11,7,3
1558434710908226,0,-1,1,-3,-6,-8,0,1
1558434710908226,1,3,6,7,12,10,4,4
1558434710909128,-1,-3,-4,-5,-9,-3,-5,-3
1558434710909128,-1,-1,-8,-7,-8,-5,-8,-4
1558434710924081,-1,2,4,6,-8,-5,0,-1
1558434710924081,-1,-1,1,3,11,8,3,-2
1558434710930066,-2,-2,2,5,-2,-1,-2,-2
1558434710930066,-4,-3,-5,-6,-9,-9,-5,-2
1558434710945027,-2,-3,-1,-10,-6,-5,-3,-2
1558434710945027,0,0,-3,-7,-5,-2,2,1
1558434710953004,0,2,0,6,8,3,0,-2
1558434710953004,-2,-3,2,2,-7,-2,-2,0
1558434710967962,2,3,3,4,17,11,5,3
1558434710967962,-2,-1,0,1,0,0,0,-1
1558434710968959,-3,-2,-1,-12,-8,-11,-6,-2
1558434710968959,-1,2,-2,4,1,0,1,0
1558434710983918,-2,-1,-3,-5,-6,-3,-4,-2
1558434710983918,-1,-4,-6,-9,-5,1,-1,-3
1558434710997883,-2,0,0,6,4,0,1,0
1558434710997883,-1,-4,-3,-21,-2,-8,-3,-2
1558434711012843,-2,-3,-3,-2,-2,-3,-2,-1
1558434711012843,-4,-2,1,4,0,-3,-6,-2
1558434711013839,1,-2,-3,-9,-5,0,1,0
1558434711013839,1,1,1,3,0,-1,1,0
1558434711027800,-1,1,0,1,0,0,-2,-2
1558434711027800,0,0,-2,-4,-4,1,-1,-2
1558434711028799,0,-2,-3,-3,3,1,1,-1
1558434711028799,0,-2,0,4,0,-3,-1,1
1558434711043786,1,-2,2,8,4,4,-2,3
1558434711043786,-2,-2,3,-9,-7,0,-1,-3
1558434711050828,-2,-3,-1,-5,1,2,0,0
1558434711050828,-3,1,-1,2,4,-4,0,1
1558434711064774,-1,-1,0,3,-3,-4,-4,-2
1558434711064774,4,4,11,25,9,4,4,4
1558434711072911,-3,-6,-15,-34,-9,2,-2,-4
1558434711072911,-4,-6,-7,-7,-12,-8,-6,-5
1558434711088944,1,2,2,4,-2,-3,-2,2
1558434711088944,0,2,-2,-3,6,5,4,1
1558434711088944,-1,-1,3,7,-8,-9,-4,-3
1558434711088944,-1,1,3,16,11,9,2,0
1558434711104599,1,1,1,-12,2,4,5,0
1558434711104599,-2,-3,-12,-7,-5,-3,-3,-1
1558434711110611,-2,-2,3,0,-6,-4,-5,-2
1558434711110611,-4,-4,-9,-12,-14,-8,-9,-4
1558434711125539,-1,-2,-2,3,0,1,4,1
1558434711125539,1,-1,5,10,11,-1,1,-1
1558434711132523,-1,0,0,0,3,-1,0,1
1558434711132523,3,3,11,24,8,4,0,1
1558434711148799,-4,-5,-11,-21,-15,-11,-2,-4
1558434711148799,-2,-3,-7,-10,-10,-8,-4,-2
1558434711149725,0,-2,-5,-4,1,-1,0,1
1558434711149725,-1,-2,1,-4,2,3,-2,-1
1558434711164438,-1,0,0,6,7,2,-2,0
1558434711164438,0,-2,4,7,2,-7,-1,0
1558434711170420,-1,-1,1,1,-5,-1,-2,0
1558434711170420,1,0,-5,-9,-4,2,0,-2
1558434711185379,-2,-3,-6,-7,-5,-6,-4,-2
1558434711185379,-4,-3,-1,0,-4,-5,-3,-4
1558434711192364,2,3,3,7,14,6,4,2
1558434711192364,0,1,1,0,-2,1,-3,0
1558434711208323,0,-1,0,8,0,-1,0,-3
1558434711208323,-1,-3,-6,-4,-4,5,-1,0
1558434711215314,1,-1,3,-4,-9,-3,0,-1
1558434711215314,-3,-6,-14,-12,-7,-12,-1,-1
1558434711224280,1,1,7,5,8,5,0,1
1558434711224280,-2,-2,-8,-3,-1,0,-3,-2
1558434711230490,-3,-2,-4,6,0,-1,-4,-5
1558434711230490,-1,1,7,6,5,5,-2,-1
1558434711245448,-4,-3,-2,3,-4,-2,0,-1
1558434711245448,3,3,5,-2,2,0,5,1
1558434711253201,-3,-4,-12,-7,-6,-6,-3,-4
1558434711253201,-1,0,5,7,0,0,0,-2
1558434711268167,0,-1,1,2,0,3,3,0
1558434711268167,2,5,9,11,19,14,7,3
1558434711275355,-2,-1,0,6,0,-5,-4,-1
1558434711275355,-1,-3,-9,-18,-10,-3,-2,-1
1558434711284130,-2,-3,-4,-5,-3,-3,-4,-2
1558434711284130,-2,-5,-6,-15,-10,-6,-3,-2
1558434711290143,-2,-1,2,3,-3,0,-2,-1
1558434711290143,2,1,6,18,7,-1,1,-1
1558434711305062,-2,2,-4,-18,-3,0,0,1
1558434711305062,1,-2,-5,-10,-4,-6,-2,-1
1558434711313040,0,-1,0,2,1,4,1,-2
1558434711313040,-3,-3,-2,-3,-5,-2,-5,-4
1558434711327998,0,-3,0,7,0,-1,1,-1
1558434711327998,0,1,2,7,8,2,1,4
1558434711334982,-2,-3,-4,-8,-5,1,-2,-1
1558434711334982,0,0,0,-4,0,0,1,-2
1558434711343956,-3,-4,2,7,-9,-10,-10,-7
1558434711343956,-3,-3,-8,-24,-12,1,0,-4
1558434711349940,0,-2,-6,-4,11,0,-1,0
1558434711349940,1,2,4,6,7,4,2,-1
1558434711364938,1,1,-2,-11,-1,-1,0,1
1558434711364938,-2,-2,-3,8,-3,2,1,-1
1558434711373232,-1,1,-2,-5,-6,-8,-3,1
1558434711373232,-2,-2,-7,-12,-9,-4,-2,-2
1558434711389120,0,-2,1,12,6,2,-2,-2
1558434711389120,-2,0,3,5,-1,-3,-5,-2
1558434711395876,1,0,0,-1,8,13,8,3
1558434711395876,0,-1,0,-3,2,0,1,1
1558434711411130,2,0,3,8,1,0,2,0
1558434711411130,1,0,-4,-6,-5,-6,-4,-2
1558434711411775,-2,-1,3,12,-2,-6,-5,-1
1558434711411775,-3,-3,-5,-17,-13,-6,-3,2
1558434711425916,-1,1,1,4,13,9,2,3
1558434711425916,-2,-2,-6,2,5,2,2,0
1558434711433015,0,-1,2,0,-5,-7,-3,-2
1558434711433015,-1,-1,-2,-1,-6,-4,0,-2
1558434711447912,-1,1,2,5,-1,1,-2,-2
1558434711447912,-2,-1,3,-6,-8,-5,-3,-3
1558434711455889,0,2,3,4,5,4,4,1
1558434711455889,-2,-1,-5,-4,2,1,-2,-1
1558434711470630,1,-2,-3,-3,-9,-4,-3,-1
1558434711470630,1,1,4,10,9,6,1,-1
1558434711471626,-2,-1,-3,-3,-2,-2,-2,1
1558434711471626,0,1,7,3,-3,-4,-2,0
1558434711485582,-1,-1,-2,2,2,-1,-1,-2
1558434711485582,0,-2,-6,-13,-10,-2,1,-1
1558434711492787,-2,-1,0,1,-2,-1,-2,-3
1558434711492787,-3,-2,0,3,8,3,-2,-4
1558434711507732,0,1,-2,3,-3,0,2,2
1558434711507732,-3,2,6,13,1,-2,0,1
1558434711515504,-1,-3,-9,-28,-8,-5,-4,-6
1558434711515504,-1,-2,-4,8,-5,-1,-2,-3
1558434711530498,0,0,-5,-12,1,-5,2,2
1558434711530498,2,-1,5,10,7,-3,0,2
1558434711531455,-1,-3,-6,-2,-10,-2,0,0
1558434711531455,-2,-4,-2,-1,6,4,0,1
1558434711546414,-1,-3,0,-3,-7,0,-3,-3
1558434711546414,-4,-6,-4,-4,-9,-6,-6,-2
1558434711552402,-2,-2,-8,-15,-5,-4,-2,-2
1558434711552402,0,0,0,-5,-1,-1,2,1
1558434711567362,-2,-1,2,2,1,2,1,0
1558434711567362,-2,0,0,0,3,6,-1,-2
1558434711575368,0,-1,-1,-7,1,-3,-1,-2
1558434711575368,1,-1,1,10,0,-4,0,-2
1558434711591293,-3,-2,1,1,-4,-3,-3,-2
1558434711591293,-2,-1,-2,10,-3,-6,-9,-4
1558434711591293,-2,-3,-6,-19,-11,1,1,0
1558434711591293,4,4,4,9,15,10,9,5
1558434711605293,-1,-2,0,-5,9,4,0,3
1558434711605293,-1,-3,-2,2,-3,-4,-2,-2
1558434711612245,-2,0,7,18,1,-5,-4,0
1558434711612245,-3,-5,-6,-19,-14,-13,-7,-5
1558434711628522,0,-3,-7,-17,-7,0,-3,-3
1558434711628522,-1,0,1,-6,6,4,1,1
1558434711635177,1,3,3,6,-1,-1,4,4
1558434711635177,-3,-1,-1,7,7,4,2,0
1558434711651271,0,-3,-3,6,-2,-1,-1,-1
1558434711651271,-3,-3,-6,-12,-11,-7,-3,-2
1558434711651271,-1,-1,1,4,2,-3,-4,-3
1558434711651271,-2,2,5,8,6,5,3,0
1558434711666396,1,2,5,3,0,-5,-1,-1
1558434711666396,1,1,1,6,0,0,3,3
1558434711673343,-6,-9,-17,-28,-14,-1,-3,-2
1558434711673343,-1,-1,-2,-10,1,2,1,0
1558434711688232,1,1,-3,5,5,2,1,1
1558434711688232,0,0,5,6,-1,-3,-1,2
1558434711695293,-1,0,3,8,0,1,-4,-5
1558434711695293,-3,-7,-6,-6,-9,-7,-4,-3
1558434711711186,-3,-1,1,-2,2,-3,1,0
1558434711711186,1,1,1,0,5,5,2,0
1558434711711978,0,3,9,23,22,9,6,2
1558434711711978,-3,-4,-14,-25,-15,-6,-3,-4
1558434711726941,-3,-6,-1,-1,-8,-9,-5,-6
1558434711726941,0,-2,-11,-16,-10,-3,2,-2
1558434711733141,1,2,9,15,10,4,0,2
1558434711733141,-2,-1,3,0,-5,-6,-5,0
1558434711747878,-1,0,-4,-5,-8,-6,-1,-2
1558434711747878,-5,-5,-5,-8,0,5,-3,-3
1558434711754895,0,0,-4,0,-8,0,0,-2
1558434711754895,1,2,3,8,9,2,0,1
1558434711770815,0,0,4,1,3,0,0,1
1558434711770815,0,0,1,-5,5,1,1,-1
1558434711771814,-2,-2,1,14,2,-2,0,0
1558434711771814,-2,-3,-1,-10,-12,-4,-6,-2
1558434711786771,1,0,1,6,9,3,3,2
1558434711786771,2,-1,0,3,1,4,0,-1
1558434711792754,-1,-1,-2,-2,-4,-4,-3,-2
1558434711792754,-2,-2,-5,0,-9,-7,0,1
1558434711807715,-2,-1,-5,1,3,1,-1,-2
1558434711807715,-4,-2,-6,-14,-6,-6,-3,-3
1558434711814696,-1,-1,-2,-11,-1,3,1,0
1558434711814696,2,2,12,22,9,4,2,0
1558434711830664,-2,-3,-4,-3,-5,0,-4,-2
1558434711830664,0,-2,-6,-16,-7,-3,-2,-2
1558434711831653,0,-1,-3,2,-3,-7,-2,-1
1558434711831653,0,2,-1,2,5,7,4,1
1558434711846635,1,1,5,8,3,8,2,0
1558434711846635,-1,2,9,13,3,-4,-2,0
1558434711852594,-3,-5,-12,-19,-7,-7,-5,-4
1558434711852594,-2,-5,-2,1,3,2,0,-4
1558434711868032,-2,0,0,3,4,4,2,0
1558434711868032,-1,-1,0,-2,-8,-6,-4,-2
1558434711875306,1,2,4,7,3,-2,-4,1
1558434711875306,-1,-2,-6,-12,-10,-4,-2,-3
1558434711891180,1,-1,-3,-11,-9,-6,-2,-2
1558434711891180,2,2,1,-3,1,2,1,0
1558434711891921,0,1,2,7,5,2,1,0
1558434711891921,-1,-1,-1,-4,0,-2,-3,-2
1558434711906881,0,-3,-3,-2,-6,-1,1,1
1558434711906881,2,0,3,12,-1,-5,-2,2
1558434711912927,-2,-1,-5,-9,-4,1,1,-2
1558434711912927,1,3,5,1,8,7,2,1
1558434711928484,-1,-3,-13,-15,-3,-1,0,-3
1558434711928484,-2,-2,-8,-10,-4,-4,-3,-3
1558434711935323,-2,-1,-1,-10,0,2,2,-1
1558434711935323,1,-1,1,3,-8,-9,-4,-1
1558434711951279,-1,0,2,-5,-5,-13,-8,-3
1558434711951279,2,-1,2,7,12,12,5,2
1558434711951279,0,3,6,10,6,1,2,1
1558434711951279,-3,-2,-4,-7,-3,2,4,0
1558434711966501,-3,-3,-2,-5,-8,-5,-5,-3
1558434711966501,-5,-5,-10,-5,-10,-9,-7,-4
1558434711973243,1,1,4,-5,-1,-3,1,0
1558434711973243,1,1,-1,9,0,-5,-3,-1
1558434711988179,0,1,4,-4,-2,7,3,3
1558434711988179,0,1,2,3,6,1,1,-2
1558434711995366,-1,-2,-2,7,3,4,4,2
1558434711995366,2,1,3,1,4,1,-1,2
1558434712011598,-2,-2,-5,-7,-3,0,0,-4
1558434712011598,-3,-3,2,1,-5,-4,-4,-4
1558434712011598,-1,-1,-1,6,-5,-1,-3,-3
1558434712011598,-2,-2,-4,-4,-2,-2,0,0
1558434712026519,2,3,5,4,13,10,6,4
1558434712026519,2,2,3,12,9,7,4,1
1558434712033347,-2,-4,-5,-13,-11,-6,-4,-3
1558434712033347,-4,-6,-7,-3,-1,-2,-1,-3
1558434712048602,-1,-1,1,2,-6,-10,-7,-4
1558434712048602,-2,1,6,5,-3,-8,2,1
1558434712055570,1,1,1,1,10,7,1,2
1558434712055570,3,2,0,-8,-2,7,1,1
1558434712071246,-2,-1,-3,4,3,-4,-1,-2
1558434712071246,-2,-2,-3,-6,-12,-3,-3,-1
1558434712071246,-2,-3,-2,3,-5,-3,-1,-4
1558434712071246,0,0,-1,-10,5,2,3,1
1558434712086206,-2,-2,1,4,0,-3,-4,-3
1558434712086206,-3,-3,-5,-5,-4,-2,-3,-4
1558434712093190,-5,-5,-7,2,-5,-3,-3,-2
1558434712093190,-2,-2,-5,-10,-11,-8,-4,-2
1558434712108229,1,2,6,5,6,7,1,2
1558434712108229,-2,-2,-7,-16,-4,-2,1,-1
1558434712115351,-1,2,1,3,3,1,-1,0
1558434712115351,-2,-3,-15,-11,-8,-3,-1,-2
1558434712130300,-3,0,1,-1,0,-2,0,0
1558434712130300,-3,-4,-2,-3,3,5,3,-1
1558434712147318,0,-2,2,9,1,-1,-2,-2
1558434712147318,0,1,4,3,-5,-7,-5,-3
1558434712148044,0,-1,-4,-4,-5,-5,-4,0
1558434712148044,-1,-1,-4,-2,-2,0,-2,-3
1558434712153028,1,2,4,7,4,-1,2,2
1558434712153028,3,1,3,9,13,10,5,3
1558434712167989,1,-1,0,-6,-1,-3,0,0
1558434712167989,0,-1,2,2,-3,-1,-3,-2
1558434712174977,-2,-1,0,-1,-7,-6,-6,-1
1558434712174977,-3,-1,1,3,-4,-2,-2,-3
1558434712189938,-3,0,-4,5,5,4,-1,-2
1558434712189938,-1,-1,-2,-11,-5,-8,-5,-1
1558434712197912,-1,-1,-1,-2,-1,6,2,-1
1558434712197912,-1,-1,2,4,3,1,0,1
1558434712206884,0,0,0,-2,0,3,-1,-2
1558434712206884,1,1,0,7,1,-2,-1,-1
1558434712213076,-3,-2,3,-8,-5,-8,-5,-3
1558434712213076,-4,-5,-10,-8,-7,-2,-4,-2
1558434712228176,0,0,-3,4,-1,-1,3,1
1558434712228176,0,3,6,11,7,7,2,2
1558434712234808,-1,-5,-12,-12,-2,-5,-2,-2
1558434712234808,0,0,7,5,5,2,5,0
1558434712250903,-4,0,-6,-3,-3,1,-3,-2
1558434712250903,-3,-3,-2,5,-3,-5,-3,-5
1558434712257987,1,0,0,-1,-5,2,1,-1
1558434712257987,-3,-2,-1,-3,-1,-2,-2,-3
1558434712266725,0,-1,-1,4,-6,-4,-3,0
1558434712266725,-1,-1,-1,-7,-5,-4,0,2
1558434712273035,0,-1,-3,-5,5,6,0,0
1558434712273035,-1,1,0,1,-5,-9,-2,-1
1558434712287974,-3,-2,0,-1,-2,-1,-4,0
1558434712287974,-1,-3,-2,3,5,7,0,0
1558434712295827,-2,0,-2,-5,3,-1,0,-3
1558434712295827,-1,1,0,8,-1,-2,-2,0
1558434712310607,-2,-3,-4,-14,-7,-4,-4,-2
1558434712310607,-1,-4,-9,-1,-1,-4,-2,-1
1558434712317768,-2,-2,1,9,-5,-1,0,-2
1558434712317768,0,2,-1,-7,12,6,1,2
1558434712333768,-2,-1,-3,-1,1,-1,3,0
1558434712333768,-1,-1,-8,-16,-6,-3,1,-2
1558434712333768,0,0,2,2,-7,-6,-6,-2
1558434712333768,-2,-4,0,11,-8,-11,-4,-4
1558434712347734,2,1,1,-6,3,5,2,0
1558434712347734,-1,0,5,-2,3,5,1,0
1558434712355717,-3,-3,-4,1,-4,-4,-3,0
1558434712355717,-1,-1,4,2,-3,-3,-1,-2
1558434712370446,-1,-3,-11,-9,-5,-3,-2,-3
1558434712370446,0,-1,-2,-1,1,5,2,-2
1558434712377653,-1,-1,1,4,4,-1,1,3
1558434712377653,0,-2,-2,-3,-2,1,-2,0
1558434712393389,0,1,9,13,8,2,1,2
1558434712393389,-1,0,0,-4,-5,-8,-5,-3
1558434712394385,-5,-6,-10,-18,-14,-6,-7,-3
1558434712394385,1,-1,3,5,6,4,2,0
1558434712407564,-3,-2,-5,2,-1,-3,0,0
1558434712407564,1,3,2,0,6,2,3,1
1558434712415328,1,1,1,-3,4,2,0,0
1558434712415328,-2,1,0,4,2,2,-1,0
1558434712430508,-4,-4,-3,-7,-10,-3,-5,-4
1558434712430508,-3,-5,0,2,-9,-7,-5,-1
1558434712438428,-1,-2,3,6,3,1,-1,-1
1558434712438428,3,1,-3,3,9,7,7,5
1558434712453223,0,-1,-4,-21,-2,1,3,0
1558434712453223,0,-2,-1,12,8,3,1,4
1558434712454222,-1,0,-1,-8,-8,-9,-4,-4
1558434712454222,-3,-3,-1,2,-12,-3,-7,-6
1558434712467434,-2,-3,0,-2,-14,-8,-3,-3
1558434712467434,1,1,2,2,4,1,1,0
1558434712475167,3,1,2,-1,9,11,8,4
1558434712475167,-2,0,-1,-3,3,-2,0,2
1558434712490360,-2,-2,0,6,-2,-3,-3,-2
1558434712490360,-2,-5,-4,-8,-17,-12,-10,-6
1558434712498107,-2,-2,-4,-1,1,-2,-3,-1
1558434712498107,1,0,0,-1,6,4,3,2
1558434712514066,-2,-2,-2,-4,-2,-4,-2,-1
1558434712514066,0,2,3,5,2,1,1,2
1558434712514066,0,-2,-3,2,2,1,0,-1
1558434712514066,-1,-3,-8,-12,-5,-1,-6,-4
1558434712528272,0,-1,4,11,6,2,-3,-2
1558434712528272,-1,-2,-2,-7,-8,-10,0,0
1558434712535007,0,0,-3,-3,3,8,5,1
1558434712535007,-4,-5,-10,-11,-3,-5,-3,-4
1558434712550219,1,0,8,17,4,1,-2,1
1558434712550219,-5,-5,-14,-22,-16,-6,-2,-3
1558434712558199,1,0,6,4,3,1,1,-1
1558434712558199,-1,0,-3,1,0,-4,-2,-2
1558434712574086,-1,-1,2,4,-1,2,0,-1
1558434712574086,-1,0,0,4,7,6,0,-1
1558434712574086,-4,-4,-10,-19,-11,-10,-4,-3
1558434712574086,-3,-5,-10,-15,-11,-4,-6,-3
1558434712588137,4,2,6,19,5,0,0,1
1558434712588137,1,2,3,8,14,6,2,3
1558434712602855,2,2,0,-8,0,1,2,-2
1558434712602855,0,-1,0,7,-9,-8,-4,0
1558434712609809,-2,-3,-4,-13,-9,-6,-2,-1
1558434712609809,-1,-1,-6,-1,5,3,0,0
1558434712617789,-1,0,6,15,1,2,-2,-3
1558434712617789,-2,-2,-1,-8,-4,-1,1,-1
1558434712633743,-1,-2,-3,-4,4,1,3,2
1558434712633743,1,2,6,8,0,1,-1,0
1558434712633743,0,0,-4,-1,-1,-3,-1,-1
1558434712633743,0,1,8,9,-4,-2,-1,1
1558434712648064,-2,-4,-12,-19,1,3,2,-1
1558434712648064,0,-1,5,14,4,2,3,1
1558434712655984,-3,-3,1,-10,-4,-5,0,0
1558434712655984,2,0,6,17,12,6,3,2
1558434712670891,-2,-3,-4,-8,-9,-13,-7,0
1558434712670891,-1,-4,-7,-12,-9,-4,-2,-2
1558434712677983,3,3,9,16,12,11,4,3
1558434712677983,-3,1,-1,1,5,1,-1,-3
1558434712693906,0,1,0,7,3,8,0,-1
1558434712693906,-3,-4,-3,-11,-6,-7,-4,-2
1558434712693906,-2,-2,-2,-6,-3,-2,-2,0
1558434712693906,1,0,0,-8,1,1,3,2
1558434712707891,-1,2,2,6,-4,-9,-3,-1
1558434712707891,-2,-2,2,1,-8,-4,-7,-6
1558434712723791,-1,-3,-4,3,-5,-3,-4,-3
1558434712723791,-1,-1,-4,-18,-2,5,2,0
1558434712730790,0,-1,-2,1,2,2,-1,-3
1558434712730790,3,0,-3,3,6,5,0,-2
1558434712737724,1,1,3,2,1,3,4,1
1558434712737724,-1,-3,-1,6,4,4,-2,1
1558434712753659,-3,-3,-2,-6,-3,-5,-3,-3
1558434712753659,-3,-3,-6,1,-8,-7,-3,-4
1558434712754420,-1,-1,-1,-9,-5,-8,-1,0
1558434712754420,-3,-3,-6,-8,-6,-5,-1,-2
1558434712767666,1,1,-1,-4,1,4,2,0
1558434712767666,0,1,4,13,6,-1,-3,1
1558434712775364,-1,-2,-6,-12,-7,-4,-5,-3
1558434712775364,0,1,7,8,3,-5,0,-1
1558434712790583,-1,-1,0,1,-3,2,-1,0
1558434712790583,-1,-3,-6,-9,-1,0,0,-1
1558434712798302,4,1,-3,3,3,2,5,2
1558434712798302,-2,0,1,-1,-2,1,-1,-1
1558434712813545,0,0,2,6,3,-2,-2,-1
1558434712813545,-4,-2,-8,-36,-10,-4,-3,-4
1558434712814260,-4,-2,2,2,-6,-10,-9,-3
1558434712814260,-2,-4,-8,-1,-5,-2,-2,-5
1558434712827254,2,1,-2,-3,15,12,7,4
1558434712827254,-1,1,4,16,6,4,4,4
1558434712835202,-3,-3,-8,-18,-3,-3,0,-1
1558434712835202,-2,-3,-4,-1,-8,-9,-4,-1
1558434712850162,0,-2,-1,-2,-4,-5,0,0
1558434712850162,-2,-1,-2,-1,-2,2,-4,-2
1558434712857145,-4,-2,0,10,-3,-5,-5,-3
1558434712857145,3,4,3,-4,6,4,2,2
1558434712873101,0,0,2,1,-1,-4,0,-2
1558434712873101,3,1,2,2,7,2,2,1
1558434712874096,-2,-2,0,7,-3,1,-3,-3
1558434712874096,-3,-1,2,2,-5,-2,-5,-1
1558434712888061,-3,-3,-7,-14,-7,-10,-3,-2
1558434712888061,-1,1,2,5,3,1,0,-1
1558434712895078,0,0,-4,1,0,6,1,0
1558434712895078,0,-1,-2,-3,7,3,1,1
1558434712910062,0,0,3,0,5,6,0,1
1558434712910062,1,-1,5,11,-4,-3,3,1
1558434712918049,1,-2,0,1,-3,-9,-3,0
1558434712918049,-2,-4,-4,-1,-6,-4,-4,-2
1558434712933006,1,1,8,8,7,9,0,0
1558434712933006,-5,-6,-10,-17,-13,-9,-5,-4
1558434712933941,-3,-1,-4,4,-1,2,-1,-2
1558434712933941,-3,-2,-3,-8,-6,-5,-1,-2
1558434712947966,-1,0,1,2,-1,-2,-2,1
1558434712947966,0,3,2,8,12,11,4,2
1558434712954949,-1,-3,-1,-5,-5,-3,-1,1
1558434712954949,0,-1,1,5,-3,-7,-5,-2
1558434712969843,-3,-3,-7,-5,-9,-2,-5,-5
1558434712969843,2,1,6,-1,3,3,0,0
1558434712977827,-1,-1,-4,-21,-4,-2,1,1
1558434712977827,1,-2,-4,-5,0,-2,-1,-2
1558434712993781,0,-3,-4,0,-2,3,2,0
1558434712993781,0,1,0,-2,7,-1,1,2
1558434712993781,0,0,4,10,2,-1,-2,1
1558434712993781,-3,0,1,6,-3,-1,-2,-3
1558434713007851,-2,-1,2,-4,-5,-7,-5,-4
1558434713007851,-1,-2,-5,-2,-10,-3,-1,-1
1558434713015858,-3,-7,-8,-4,-3,-5,-3,-4
1558434713015858,2,1,2,-1,8,3,5,4
1558434713030682,-1,-3,-2,-2,-4,-1,-1,0
1558434713030682,-2,2,6,1,-1,1,-2,-1
1558434713037663,-1,1,-1,11,2,-6,-4,-2
1558434713037663,-3,-2,-6,-7,-10,-7,-2,-2
1558434713053617,-2,-2,-4,-5,1,0,1,0
1558434713053617,1,-1,3,11,3,3,2,-1
1558434713053617,-1,-1,-11,-19,0,1,0,-2
1558434713053617,0,-2,3,-2,-4,-3,-1,-2
1558434713067757,0,0,-5,-2,3,-1,3,-1
1558434713067757,-2,-3,1,2,-6,-4,-3,-4
1558434713075923,-1,-4,-4,-19,-8,-4,-5,-2
1558434713075923,-1,1,-1,0,6,5,1,2
1558434713090890,0,0,2,-5,-1,3,4,1
1558434713090890,-1,-1,-3,1,1,-5,0,-2
1558434713097865,3,2,6,12,8,7,1,0
1558434713097865,-1,-4,-2,5,-3,-8,-2,-2
1558434713112644,0,-1,-5,-15,-9,-9,-6,-3
1558434713112644,-2,-2,-3,1,-4,-2,0,-1
1558434713120854,-6,-2,-5,0,-6,-2,-3,-4
1558434713120854,-1,0,1,-2,1,5,-2,0
1558434713127604,-2,-2,2,10,7,3,1,1
1558434713127604,-1,-4,-8,-26,-3,3,3,2
1558434713135400,1,0,5,8,-2,-1,1,-3
1558434713135400,-3,-3,0,-3,-3,-3,-4,-5
1558434713150633,0,2,10,30,1,-6,-2,1
1558434713150633,-1,-1,-13,-26,2,7,4,2
1558434713157550,0,-2,1,3,8,4,1,2
1558434713157550,-2,-1,-1,1,-8,-7,-3,-3
1558434713173301,-4,-5,-9,-12,-12,-5,-5,-4
1558434713173301,-2,2,5,6,0,-8,-6,-1
1558434713181493,-1,-1,0,8,3,1,0,0
1558434713181493,2,0,1,-9,-6,3,2,1
1558434713187261,-1,-2,-4,-6,3,4,1,1
1558434713187261,-2,-3,-10,-17,-7,-2,-3,-2
1558434713195455,-2,-1,0,2,-1,-5,-4,-2
1558434713195455,-2,-3,1,4,-5,-4,-6,-3
1558434713210200,-1,-1,-2,-15,-6,-6,-4,-1
1558434713210200,1,2,2,6,3,3,3,-1
1558434713218181,1,2,6,2,6,11,4,1
1558434713218181,2,-1,-3,4,7,7,2,2
1558434713233323,0,1,4,6,4,1,0,2
1558434713233323,-2,-4,-7,3,-10,-10,-5,-1
1558434713241149,1,-4,-1,-22,-14,-8,-3,0
1558434713241149,1,-1,-4,5,2,6,1,0
1558434713256079,1,-2,0,-2,1,-1,2,0
1558434713256079,1,2,3,10,1,-2,1,1
1558434713256079,-1,3,5,11,1,-3,-1,0
1558434713256079,-3,-1,-2,1,1,1,-1,-1
1558434713270039,-3,-4,-6,-8,-3,-1,-6,-5
1558434713270039,0,0,6,9,3,3,2,-3
1558434713278286,-1,0,0,0,1,4,2,-1
1558434713278286,-1,-2,-4,-7,-4,-7,0,2
1558434713293314,0,2,1,7,-1,0,0,1
1558434713293314,-1,-3,0,2,-1,-3,-4,-1
1558434713301039,-3,-2,-2,0,-2,-6,-3,-4
1558434713301039,-1,-1,3,5,5,0,1,1
1558434713316239,-1,0,3,-3,-2,0,0,-1
1558434713316239,-2,0,-3,3,-2,-1,-4,-1
1558434713317163,0,0,-2,-4,-3,-3,-1,-2
1558434713317163,3,3,3,7,14,7,6,4
1558434713330876,-1,-2,-1,-4,-3,-6,-3,0
1558434713330876,-1,0,5,-1,-4,-6,-4,-3
1558434713338176,-1,-1,-4,2,-4,-5,-6,-3
1558434713338176,-1,-1,1,2,-9,-3,-2,-1
1558434713352818,3,4,3,10,17,14,6,4
1558434713352818,0,-1,2,-5,1,-1,-1,0
1558434713361119,0,-1,-3,3,8,6,3,1
1558434713361119,-4,-2,-2,-6,-8,-4,-1,-1
1558434713376427,-4,-4,-5,-1,-13,-6,-4,-4
1558434713376427,-3,-3,0,-4,-5,-7,-7,-2
1558434713376427,-1,-1,-4,-7,-8,-5,0,0
1558434713376427,1,1,2,8,6,7,1,-2
1558434713390310,-2,-2,-3,-9,0,-1,-3,-4
1558434713390310,0,1,4,-4,0,1,-2,-2
1558434713398261,-2,-3,-3,0,-5,-3,0,-2
1558434713398261,0,2,1,4,6,2,1,2
1558434713413240,-2,-2,-5,-13,-6,-2,1,-1
1558434713413240,0,-1,-1,3,2,5,2,1
1558434713421336,-2,0,3,5,-3,-3,-5,-5
1558434713421336,-1,-3,-5,0,-9,-7,-5,-4
1558434713435988,0,-1,0,-5,4,5,3,1
1558434713435988,-2,-3,-2,0,-2,-6,-1,-3
1558434713435988,1,0,0,5,9,5,3,3
1558434713435988,2,0,0,-3,-1,-1,1,0
1558434713449959,-2,-2,4,11,-1,-8,-7,-3
1558434713449959,-3,-4,-6,-10,-11,-5,-3,1
1558434713457927,-2,-2,-5,-1,-1,1,0,-2
1558434713457927,0,1,0,-10,5,-2,0,2
1558434713472887,-1,0,-3,3,-5,-3,-1,-1
1558434713472887,0,-3,-6,-3,0,-2,-1,-2
1558434713480868,0,-1,3,2,-3,0,-1,-1
1558434713480868,-2,-3,-4,-8,-1,0,-2,-4
1558434713496228,-1,-2,-4,-5,-4,-7,-4,-2
1558434713496228,-2,-2,2,16,2,3,0,-1
1558434713496822,1,1,-7,-16,-6,-4,-1,0
1558434713496822,1,2,2,-9,-2,-3,1,2
1558434713509785,-2,-2,-2,-3,7,5,4,0
1558434713509785,0,0,4,3,1,-2,1,0
1558434713517765,-1,-4,-4,3,1,2,0,-3
1558434713517765,-3,-4,-2,-2,-6,-5,-6,-5
1558434713533070,-3,-1,0,0,-8,-8,-5,-4
1558434713533070,1,2,3,5,9,10,6,2
1558434713540853,-2,0,-3,-8,2,5,7,5
1558434713540853,-1,-2,-4,4,3,0,-2,1
1558434713556000,-4,-3,-4,-7,-9,-4,-5,-3
1558434713556000,-2,-2,-5,-6,-13,-8,-8,-5
1558434713556663,-1,-3,-2,-4,-7,-4,-3,-2
1558434713556663,-1,0,-3,-1,5,2,2,-1
1558434713570319,1,0,1,8,9,9,2,3
1558434713570319,-3,-5,-3,5,-2,-4,-2,-4
1558434713579082,0,0,1,-9,-4,-5,-5,0
1558434713579082,-2,-4,0,5,-9,-11,-8,-3
1558434713593216,2,1,2,1,-3,0,1,-1
1558434713593216,1,2,-3,-3,9,11,4,3
1558434713600195,-2,-1,0,6,-3,0,0,-3
1558434713600195,-2,-4,-5,-9,-6,-1,-1,-4
1558434713615959,0,0,7,16,3,-6,0,-2
1558434713615959,-3,0,-3,-13,-2,-3,0,2
1558434713616922,-1,0,-4,-4,1,0,2,1
1558434713616922,-2,-1,0,-6,-8,-2,-5,-2
1558434713629888,-4,-6,-4,-6,-11,-5,-5,-5
1558434713629888,-2,-2,-2,4,-2,-5,0,-1
1558434713637867,1,0,6,17,13,12,3,1
1558434713637867,2,1,-1,-6,0,4,4,3
1558434713652822,2,-1,0,7,3,0,0,-2
1558434713652822,0,-3,-3,-13,-6,-4,-2,-2
1558434713659807,-3,-3,-2,-1,-7,-11,-5,-2
1558434713659807,0,-1,1,6,-4,-5,-3,-2
1558434713675763,0,2,7,13,12,12,4,3
1558434713675763,1,0,-5,-18,-1,-2,-1,1
1558434713676761,1,0,2,-6,4,2,1,1
1558434713676761,-1,-1,1,1,2,3,1,-4
1558434713690167,-1,2,-6,-10,-10,-8,-3,-1
1558434713690167,0,0,3,9,7,8,5,1
1558434713698137,-2,-1,-3,2,-1,-7,-6,-1
1558434713698137,-3,-1,1,4,-3,-1,-1,-3
1558434713713005,-1,-3,-3,3,7,4,-1,-1
1558434713713005,0,-1,2,4,1,-3,-3,-1
1558434713720943,0,-2,-8,-5,-3,-1,0,0
1558434713720943,0,1,1,-3,4,7,4,3
1558434713736600,-3,-1,-4,-9,-7,-9,-5,-3
1558434713736600,-3,-3,1,3,-10,-5,-4,-4
1558434713736600,-4,0,-1,-4,7,0,-2,-2
1558434713736600,-1,-2,-2,3,-3,1,0,-1
1558434713750840,1,-2,-2,-6,1,4,4,0
1558434713750840,-4,-1,-4,2,-7,-5,-5,-3
1558434713757650,1,0,8,8,3,1,0,-1
1558434713757650,0,1,6,-1,7,2,2,1
1558434713772776,-2,-3,-7,-5,-5,-4,-3,1
1558434713772776,0,-1,-1,4,-1,-3,-2,0
1558434713780759,-1,2,4,3,1,1,1,0
1558434713780759,0,-1,-1,9,0,-7,-2,-1
1558434713796535,2,0,4,-3,3,4,2,-2
1558434713796535,-6,-4,-10,-13,-7,-3,-3,-2
1558434713796535,-1,-2,0,2,-2,-3,-3,-1
1558434713796535,-2,-1,-6,-3,-1,-5,-4,-2
1558434713810430,-1,-2,-4,-2,-8,-6,-4,-2
1558434713810430,2,2,2,2,4,0,3,-1
1558434713817601,-1,-2,-3,-10,-4,3,2,0
1558434713817601,-3,-5,-4,-2,-1,-1,-2,-2
1558434713833426,-4,-1,-3,-4,-6,-6,-2,-1
1558434713833426,1,0,4,4,5,1,-3,1
1558434713840593,1,2,4,7,2,1,0,0
1558434713840593,-2,-1,-5,1,-3,-2,-3,-2
1558434713856562,-1,-3,-6,-21,-3,-1,0,0
1558434713856562,0,-2,0,-2,6,4,2,-2
1558434713856562,-1,-3,-6,-6,-6,1,1,-2
1558434713856562,0,-2,2,2,-1,-1,0,-1
1558434713870241,-4,-2,-2,3,-2,0,0,-1
1558434713870241,0,-3,-1,-4,-6,-7,-3,-2
1558434713886198,0,0,-1,-4,-5,0,-3,1
1558434713886198,-1,-2,0,3,5,0,-2,-1
1558434713892183,3,3,6,2,0,-2,0,2
1558434713892183,-1,-2,-6,-5,-2,0,-1,0
1558434713900159,1,0,-1,1,-2,-3,0,1
1558434713900159,-3,-3,-3,1,-2,-5,-3,-1
1558434713916117,1,0,-3,0,0,4,2,0
1558434713916117,-2,-1,4,10,-1,-4,0,0
1558434713916117,-2,-3,-4,-9,-4,3,1,-1
1558434713916117,2,0,-3,1,15,9,2,0
1558434713930080,-3,-2,-1,6,-1,-3,-5,-3
1558434713930080,-2,-2,-2,-4,-6,-7,-1,-3
1558434713938457,-2,-3,-2,-1,-6,-6,-2,-2
1558434713938457,3,1,5,5,-2,-1,2,1
1558434713953446,0,0,-3,-16,2,4,2,0
1558434713953446,-2,0,-1,0,0,1,-3,0
1558434713960461,1,2,10,17,5,1,2,-1
1558434713960461,-2,-1,-12,-10,-6,2,1,2
1558434713976375,0,-1,5,2,-1,-8,-6,-3
1558434713976375,-3,-2,-2,-6,-9,-2,-3,-3
1558434713976375,-1,0,-3,-1,5,-2,2,2
1558434713976375,2,0,7,12,2,1,1,-2
1558434713990388,-5,-2,-1,-5,-1,0,-1,-2
1558434713990388,-2,-1,0,10,7,6,1,1
1558434713998264,-1,-3,-3,-2,-1,-2,-5,-4
1558434713998264,-2,-1,0,-9,-7,-3,1,-3
1558434714013209,0,0,-10,-10,-1,-5,-2,1
1558434714013209,-2,-4,-6,-9,-10,-3,-7,-6
1558434714020841,-3,-2,-1,-2,0,-1,-1,-2
1558434714020841,-1,0,2,-6,2,0,2,0
1558434714034800,-1,0,-2,1,-5,3,1,-1
1558434714034800,1,1,-2,-4,2,-3,-2,-1
1558434714044044,1,-1,-2,3,0,-3,0,-1
1558434714044044,0,0,2,-6,3,4,2,1
1558434714050877,-1,0,8,24,1,-6,-3,-2
1558434714050877,-1,-3,-6,-18,-3,-2,0,1
1558434714057741,-1,-1,-6,-9,-7,-8,-5,-1
1558434714057741,-4,-3,0,1,-2,2,-1,-5
1558434714072977,-2,-2,-5,-1,6,8,2,1
1558434714072977,-1,-2,2,6,-1,-6,1,-2
1558434714079961,-3,-2,-4,-9,-7,-4,-2,-2
1558434714079961,-2,1,-2,-7,-7,-3,-1,-2
1558434714094642,-3,-1,1,1,-3,1,-2,-2
1558434714094642,1,1,1,5,2,1,-2,1
1558434714103617,-1,-2,0,0,-1,-2,-1,0
1558434714103617,-2,-1,-2,8,-4,-9,-5,-2
1558434714110870,-2,0,-8,-24,-3,4,3,0
1558434714110870,2,2,3,-1,15,8,4,1
1558434714117583,-2,-3,-3,5,-1,-3,-3,-4
1558434714117583,-3,0,0,2,-11,-5,-6,-5
1558434714132801,-2,-7,-7,3,-2,-3,-3,-2
1558434714132801,0,-2,-4,-4,-6,-4,-1,1
1558434714140776,1,1,5,5,10,5,1,0
1558434714140776,-2,-5,-8,-16,-7,-3,-3,-1
1558434714155717,1,0,1,-4,-2,1,1,0
1558434714155717,-1,3,-3,2,-2,0,0,0
1558434714163729,-2,1,5,10,4,2,0,1
1558434714163729,1,-3,-9,-21,-10,-8,-4,0
1558434714170701,-2,-1,1,5,-1,0,0,-2
1558434714170701,-2,-5,-4,-9,-5,-7,-3,-2
1558434714177694,-2,-3,-3,-3,-3,-1,-2,-4
1558434714177694,0,-2,2,2,-1,3,3,1
1558434714192622,1,0,3,7,3,1,1,-1
1558434714192622,-1,1,0,2,-4,-9,-4,-4
1558434714200627,1,3,2,3,8,10,7,3
1558434714200627,-3,-4,-13,-23,-9,-5,-3,-2
1558434714215599,-1,-4,0,-6,-5,-2,-5,-3
1558434714215599,1,-3,0,4,3,3,1,0
1558434714223558,0,-1,1,-4,-3,-7,0,-1
1558434714223558,-1,4,5,13,8,1,2,2
1558434714238517,-1,4,3,8,3,-2,0,0
1558434714238517,-3,-3,-3,-5,-6,5,2,-2
1558434714239259,0,-2,-5,-4,-2,-1,-4,-2
1558434714239259,0,-2,1,6,-6,-7,-3,-1
1558434714252219,0,-1,-1,-3,5,3,0,2
1558434714252219,-1,4,5,7,-2,3,1,-1
1558434714260199,-1,0,-9,-17,-1,0,0,0
1558434714260199,0,0,3,6,0,8,0,-2
1558434714275186,-2,1,4,11,10,2,0,1
1558434714275186,1,-1,3,-2,4,-1,1,0
1558434714283165,-4,-4,-3,-9,-14,-7,-1,-1
1558434714283165,-2,-1,1,3,2,-2,-2,-2
1558434714298147,-1,-2,-2,3,2,-1,-2,-3
1558434714298147,-1,0,1,-2,-5,-1,-1,1
1558434714299093,-3,-1,-3,1,-3,1,1,-2
1558434714299093,0,0,-1,5,6,0,-1,-1
1558434714313497,-1,-3,-3,-17,-13,-10,-5,-3
1558434714313497,-1,-3,-6,-4,-1,-2,-2,-1
1558434714320482,1,1,1,2,4,2,3,3
1558434714320482,-2,-2,-4,-7,-1,0,0,-2
1558434714335000,-2,-1,-2,-6,-10,-6,-5,-2
1558434714335000,-4,-1,2,-2,-3,-7,-5,-2
1558434714342976,0,-3,-3,-2,2,3,-3,-1
1558434714342976,1,-2,-4,-2,0,2,2,3
1558434714359034,0,-1,4,6,3,1,1,1
1558434714359034,0,-3,-2,0,6,6,0,-1
1558434714359034,-3,-2,-9,-4,-14,-10,-9,-5
1558434714359034,-1,-2,0,-7,-3,-4,-3,-1
1558434714373363,1,0,1,7,5,5,3,0
1558434714373363,-3,0,-2,1,5,8,5,1
1558434714380328,1,2,4,2,1,-1,-2,1
1558434714380328,-3,-4,-4,-2,-4,-5,-6,-4
1558434714395945,-2,-3,-4,2,-6,-5,-2,-5
1558434714395945,0,0,2,7,6,5,0,-1
1558434714404072,0,-3,5,8,-4,-5,-2,-2
1558434714404072,-3,-4,-10,-24,-10,-3,0,-1
1558434714417779,0,-1,0,5,3,1,1,0
1558434714417779,2,0,1,3,-1,-2,-3,2
1558434714418775,-2,-2,-10,-16,2,5,0,3
1558434714418775,1,2,3,12,6,1,-3,1
1558434714432983,-2,-1,-2,-6,-3,-1,0,-1
1558434714432983,-3,-5,0,2,-6,-2,-1,-2
1558434714439717,3,3,7,4,3,-1,-1,-1
1558434714439717,0,3,4,11,12,1,2,3
1558434714454708,-3,-2,-10,-22,-2,-2,-2,1
1558434714454708,0,-2,-1,3,-10,-3,-1,0
1558434714463655,-4,-3,-1,3,1,0,-2,-5
1558434714463655,0,0,0,-2,-3,-2,-2,-1
1558434714478618,1,1,3,11,-1,-3,0,-3
1558434714478618,-4,-2,-5,-16,-4,-2,-3,-2
1558434714478618,0,0,0,-6,2,5,2,1
1558434714478618,-2,0,-1,2,-2,0,-1,-3
1558434714492577,-1,-1,1,-4,-4,-5,-5,-2
1558434714492577,1,-3,0,4,3,-2,0,-1
1558434714499583,1,-2,-5,-6,-9,-10,-2,-2
1558434714499583,0,0,2,-2,3,6,2,0
1558434714515868,-1,-3,0,6,-2,-1,-1,0
1558434714515868,-2,-2,-10,-14,-6,-3,-2,-2
1558434714530847,1,1,-1,-7,1,5,3,3
1558434714530847,-2,-3,0,8,-1,-7,-2,0
1558434714538453,-2,-2,-2,0,0,1,-1,-1
1558434714538453,-2,-1,2,2,-3,-2,-4,-2
1558434714538453,-1,-2,2,3,-3,-4,-4,-2
1558434714538453,2,1,2,8,8,6,3,1
1558434714552414,2,0,-4,-9,1,-1,1,2
1558434714552414,0,0,-3,0,0,-4,0,0
1558434714560394,-3,0,1,3,-4,-5,-3,-4
1558434714560394,0,-1,1,9,5,5,2,-3
1558434714575354,-1,1,-5,-11,-6,-7,-3,0
1558434714575354,-1,-2,2,7,0,-1,-3,-3
1558434714583333,-1,-2,-1,0,6,5,3,0
1558434714583333,-1,-1,-4,-12,-7,-9,-4,-2
1558434714598295,1,-2,1,-2,-8,1,1,0
1558434714598295,-1,0,-3,-5,4,4,1,0
1558434714599291,-4,-2,0,8,0,-7,-1,0
1558434714599291,1,-2,0,-6,-8,-4,-3,-1
1558434714612272,0,2,1,2,4,5,2,-1
1558434714612272,0,2,4,16,7,5,1,2
1558434714620421,-2,-3,-9,-24,-11,-6,-4,-1
1558434714620421,-2,-1,1,1,2,3,-1,-1
1558434714635195,-3,-1,-1,2,2,-1,0,-1
1558434714635195,-1,-2,-3,-1,-7,-8,-3,-5
1558434714643173,-2,-1,-7,-7,-7,-5,-5,0
1558434714643173,0,1,5,7,5,3,3,-1
1558434714658133,-1,1,6,9,10,5,6,0
1558434714658133,-1,-2,-3,-3,1,-5,-1,-2
1558434714659129,-1,-1,5,11,8,9,1,0
1558434714659129,-4,-4,-5,3,-1,-3,-6,-2
1558434714673335,1,-1,1,1,-3,-5,-4,-2
1558434714673335,0,0,0,-4,-3,-3,-1,-1
1558434714680339,1,-1,-4,-5,-6,-7,-3,-2
1558434714680339,-2,3,0,-1,3,1,1,2
1558434714695036,-1,2,5,14,5,4,2,0
1558434714695036,-6,-3,-15,-29,-12,-3,-1,-2
1558434714703014,-2,-2,2,3,1,-1,-4,-4
1558434714703014,-1,-1,3,-7,-6,-1,1,-2
1558434714717974,-1,-3,-4,0,1,-6,-2,-1
1558434714717974,2,-1,3,2,4,2,1,2
1558434714718971,1,0,2,8,2,-1,2,-2
1558434714718971,-1,-2,-6,-8,-7,-7,-1,-1
1558434714732933,1,1,-2,-10,-4,0,-2,1
1558434714732933,0,-3,-4,0,3,2,-3,-1
1558434714740118,-1,-2,2,14,2,-3,-2,-1
1558434714740118,-3,-3,-4,-17,-12,-9,-7,-4
1558434714754875,-3,-3,-7,-4,-6,-5,-4,-2
1558434714754875,-2,0,6,13,9,4,1,2
1558434714763036,0,1,0,-12,2,2,4,2
1558434714763036,1,0,2,4,6,4,4,1
1558434714777815,-1,-4,-6,3,-6,-7,-3,-4
1558434714777815,0,-1,-5,-13,-11,-4,-3,-3
1558434714778811,-1,-4,1,12,-6,-6,-5,-4
1558434714778811,-3,-3,-1,-3,0,1,-4,0
1558434714792774,1,2,5,1,8,3,4,1
1558434714792774,-1,-1,-3,-5,-9,0,-1,0
1558434714808743,0,-1,-6,-11,0,3,-3,-4
1558434714808743,-1,1,1,5,1,1,-1,-2
1558434714814714,-2,-3,-7,-10,-7,-2,-4,-3
1558434714814714,1,4,9,7,2,0,3,2
1558434714823689,-3,-1,1,16,9,2,3,1
1558434714823689,-4,-8,-9,-12,-9,-5,-4,-5
1558434714838650,-2,-4,-13,-31,-10,-5,-1,-4
1558434714838650,0,-1,8,23,7,-3,1,0
1558434714838650,-1,2,0,-17,-1,6,4,1
1558434714838650,0,1,4,10,3,3,3,1
1558434714852615,0,-2,3,5,0,1,0,1
1558434714852615,-1,0,1,-3,-3,-4,-4,-1
1558434714860591,-3,-2,-4,-2,5,6,2,-1
1558434714860591,-2,-3,-5,-3,-5,-6,-2,-3
1558434714875551,-1,-1,-2,-1,-4,-3,-3,-1
1558434714875551,-2,-2,-5,-4,-7,-10,-6,-4
1558434714883691,-1,-2,3,7,-1,0,-3,-1
1558434714883691,0,1,0,-2,2,2,0,-1
1558434714898667,-3,-2,-2,-3,-8,-5,-4,-1
1558434714898667,1,0,1,-3,4,4,5,1
1558434714898667,5,2,7,7,17,6,2,3
1558434714898667,0,-4,-9,-12,-7,-2,0,5
1558434714912459,-4,-4,-1,0,-1,-3,-5,-10
1558434714912459,-2,-1,0,2,0,0,-3,-1
1558434714920434,0,0,-6,-12,-12,-5,0,-2
1558434714920434,0,1,2,3,-1,-3,-3,0
1558434714935395,0,-2,-1,10,4,9,1,3
1558434714935395,-1,3,0,-1,0,-4,1,2
1558434714942372,-4,-4,-9,-10,-5,-4,-4,-4
1558434714942372,-1,0,5,6,3,3,1,2
1558434714957367,0,1,1,0,-3,-1,-1,-2
1558434714957367,0,-1,5,12,10,6,-2,-3
1558434714965316,-4,-4,-10,-15,-17,-10,-3,-2
1558434714965316,2,1,4,13,10,3,4,1
1558434714972293,-1,-1,-1,-4,3,2,1,2
1558434714972293,0,-4,-2,-6,-6,-5,-3,-1
1558434714980271,-1,-1,1,4,-2,-3,-4,-3
1558434714980271,1,2,-1,-4,1,4,4,0
1558434714995231,-1,1,5,14,6,1,3,1
1558434714995231,1,0,-6,-4,3,2,1,-1
1558434715002212,0,-3,-1,-5,-8,-6,-7,-3
1558434715002212,-2,-2,2,0,-8,-2,-5,-1
1558434715017173,-1,0,-4,-1,1,-2,-1,0
1558434715017173,-2,0,2,12,-4,-2,0,-2
1558434715026147,0,2,-4,-17,3,4,3,-1
1558434715026147,0,-4,-2,-4,-4,-7,-2,-3
1558434715032372,1,0,5,4,2,0,2,1
1558434715032372,0,1,-2,-4,2,0,-1,-2
1558434715040218,2,3,6,11,10,2,2,5
1558434715040218,-2,0,-2,-3,-3,-4,-6,-8
1558434715055071,-1,-3,-3,-2,-4,-4,-3,-1
1558434715055071,-2,-1,-1,-6,-3,4,0,1
1558434715063050,0,-2,4,8,-6,-4,-1,-2
1558434715063050,-2,-1,-9,-7,0,-3,-2,1
1558434715078088,-2,-1,1,5,-2,1,1,-1
1558434715078088,0,1,-8,-15,-2,4,2,2
1558434715085996,0,-2,2,22,9,2,-1,1
1558434715085996,2,0,1,-4,3,6,5,-1
1558434715093220,-3,-4,-5,-9,-5,-3,-5,-4
1558434715093220,-3,-6,-3,-4,-4,-4,-2,-1
1558434715100165,-2,-1,1,-3,-8,-6,-1,0
1558434715100165,-1,-2,-6,-4,-6,-2,-4,-2
1558434715115093,-1,-1,-2,-2,3,3,1,0
1558434715115093,-1,-1,-5,-8,0,-2,-2,-1
1558434715123071,-1,0,2,2,0,-5,-5,-5
1558434715123071,2,2,11,22,4,0,3,9
1558434715138032,-2,-3,-14,-31,-10,-2,-3,-7
1558434715138032,-2,-2,-7,-2,-1,0,0,-1
1558434715145830,-2,-3,0,3,-2,-1,-2,0
1558434715145830,-3,-1,-6,-24,-7,-5,-6,-2
1558434715160789,-2,0,5,14,-1,-2,2,3
1558434715160789,-3,-2,2,1,-2,-3,0,0
1558434715161785,0,0,-1,-1,-2,2,0,0
1558434715161785,-2,-2,0,5,4,1,2,0
1558434715174963,-2,-3,-1,1,-2,-5,-7,0
1558434715174963,-1,-1,-3,-8,-7,-5,-1,-4
1558434715182730,-2,0,-2,4,3,2,3,2
1558434715182730,-2,-1,-2,0,-1,1,-3,-4
1558434715197689,2,2,7,11,1,4,0,-1
1558434715197689,-2,0,-4,6,5,-2,-1,0
1558434715205671,-2,-3,-4,-18,-8,-4,-2,-3
1558434715205671,-4,-5,-9,-17,-9,-4,-3,-5
1558434715220629,0,0,2,4,5,4,2,-1
1558434715220629,-1,-3,1,-5,-7,-1,-1,-1
1558434715221625,0,1,6,13,7,5,2,-2
1558434715221625,2,1,-1,1,4,0,-2,1
1558434715234590,0,0,4,9,2,-4,1,2
1558434715234590,-1,-1,-1,-4,-3,-10,-4,3
1558434715250549,-3,-2,-7,-10,-7,-5,-2,-9
1558434715250549,-1,-3,1,-8,-5,2,1,1
1558434715257563,1,-1,0,1,7,2,0,1
1558434715257563,-2,-1,4,10,3,4,-1,0
1558434715265507,-3,-2,-3,-7,-3,1,0,1
1558434715265507,0,0,-2,-3,-4,-6,-3,-2
1558434715280467,-1,0,1,7,-9,1,-4,-4
1558434715280467,-3,-5,-5,-13,-2,-2,-5,-6
1558434715281466,-3,-3,-7,-1,-2,-3,-1,1
1558434715281466,-1,1,-1,7,3,2,3,1
1558434715303406,0,0,-8,-16,-3,-2,0,2
1558434715303406,0,0,1,5,0,1,4,2
1558434715303406,-2,-1,3,0,-3,4,-2,-4
1558434715303406,-4,-4,-4,12,-6,-9,-1,-2
1558434715317376,1,0,-11,-23,-2,-5,-3,-1
1558434715317376,0,0,4,-4,-6,-1,-1,-3
1558434715325348,-3,-6,-10,-16,-9,-4,-4,-3
1558434715325348,4,4,12,14,19,9,5,5
1558434715340308,-3,-3,2,24,16,8,3,-4
1558434715340308,2,3,0,-1,3,3,0,-1
1558434715341304,1,-2,0,9,2,-2,-3,0
1558434715341304,-3,-4,-2,-4,-15,-9,-10,-7
1558434715356266,-5,-3,2,6,-4,0,0,1
1558434715356266,3,4,0,-20,7,1,0,2
1558434715362454,-1,-1,-11,-10,-8,-4,1,2
1558434715362454,-1,-1,9,15,10,9,3,3
1558434715377412,1,3,1,10,19,9,3,1
1558434715377412,-5,-8,-15,-13,-22,-12,-9,-7
1558434715386185,4,3,7,5,2,-3,-1,-1
1558434715386185,-4,-4,2,-4,-3,0,2,-1
1558434715401145,-3,-2,0,1,0,4,5,4
1558434715401145,-2,0,2,-1,7,-3,-4,-2
1558434715401145,-3,-1,-5,-6,-5,-4,-2,-1
1558434715401145,2,1,-3,-2,7,5,4,-3
1558434715423087,1,-2,0,-4,-6,-1,-2,-2
1558434715423087,-1,1,2,16,7,6,2,1
1558434715424084,-3,-6,-5,-13,-2,-3,-5,-2
1558434715424084,0,0,5,21,1,-6,-2,-1
1558434715438046,-2,-3,-17,-30,-19,-8,-4,-1
1558434715438046,-2,-6,1,-13,-8,-4,1,-4
1558434715446024,2,1,8,10,8,3,-2,-3
1558434715446024,-2,1,-12,-17,1,3,4,3
1558434715461022,0,-1,-3,-9,-3,-1,-3,-3
1558434715461022,1,-1,1,19,10,4,1,5
1558434715461022,-1,0,-3,-8,-6,0,0,0
1558434715461022,-3,-5,-3,6,-10,-14,-12,-5
1558434715474948,1,1,10,17,1,-1,4,3
1558434715474948,0,2,-1,-6,5,9,5,0
1558434715483191,-2,-4,-3,1,3,0,1,0
1558434715483191,0,0,-2,-10,-12,-5,-6,-4
1558434715497889,1,2,6,4,4,5,3,1
1558434715497889,-2,-2,-3,15,4,-3,1,0
1558434715505866,3,0,-2,-11,-10,5,4,2
1558434715505866,-2,-5,-10,-8,3,1,-1,-2
1558434715520826,-5,-6,-1,-12,-18,-19,-15,-9
1558434715520826,1,0,1,-4,4,-2,2,0
1558434715521822,2,8,7,9,13,6,6,7
1558434715521822,-8,-5,-5,-2,-12,-9,-2,-4
1558434715534790,-1,-4,1,-10,-4,6,-1,-4
1558434715534790,0,-2,-5,3,-2,-4,-5,-1
1558434715542767,1,2,-5,1,4,-2,-1,2
1558434715542767,3,2,5,-2,6,4,1,2
1558434715557727,-3,-2,-2,7,1,-6,-3,-4
1558434715557727,-5,-6,-10,-33,-25,-11,-7,-6
1558434715565879,-1,-1,4,17,11,2,-1,0
1558434715565879,-5,-7,-15,-20,-10,0,-3,-2
1558434715580672,1,3,0,-1,16,4,4,4
1558434715580672,-3,-3,3,17,-9,-7,-2,-3
1558434715581668,-2,-4,-5,-16,-12,-7,-4,-4
1558434715581668,-1,1,0,0,0,-1,0,-3
1558434715594662,-1,-2,-5,-4,-8,-4,0,1
1558434715594662,3,4,8,14,13,11,5,3
1558434715602606,-3,1,-1,-4,5,4,0,-2
1558434715602606,-1,-1,-1,7,-2,4,-1,-3
1558434715626575,-2,-1,1,-1,-5,-13,-8,-4
1558434715626575,1,1,-4,-15,0,1,1,1
1558434715627539,-1,-4,-4,-6,-6,-4,-2,-2
1558434715627539,-1,-1,0,1,4,5,0,1
1558434715640506,0,-1,1,11,1,2,1,-1
1558434715640506,0,1,-2,-8,-4,-2,-2,-2
1558434715641502,-3,-3,2,8,9,5,-1,-1
1558434715641502,0,-2,5,1,-7,-11,-3,-3
1558434715655465,1,-1,-5,-6,-7,-1,0,-2
1558434715655465,-2,-3,1,13,6,2,0,-2
1558434715662446,-1,-2,-5,-14,-8,-4,1,0
1558434715662446,1,5,3,4,8,-3,0,3
1558434715677580,-3,-2,-6,-6,-7,-5,-4,0
1558434715677580,-3,-4,-1,2,-2,-1,0,0
1558434715685385,-1,-1,2,9,3,2,1,-3
1558434715685385,1,3,5,-2,4,2,0,0
1558434715700343,-1,-2,-3,-2,-3,-1,-2,1
1558434715700343,0,1,-3,-10,-1,0,2,0
1558434715701342,-1,-3,-1,4,-1,-3,-2,-2
1558434715701342,-2,-2,3,2,-3,-1,0,0
1558434715715305,-2,-1,-5,-5,2,3,-1,0
1558434715715305,0,-1,0,-5,3,0,-3,1
1558434715722286,-2,-3,1,-2,-11,-8,-3,-3
1558434715722286,0,-4,-9,-13,-6,-1,-2,-3
1558434715737247,-1,1,5,10,7,3,2,-1
1558434715737247,-1,-2,-1,6,0,-2,-2,-3
1558434715745225,0,2,-3,3,-2,-3,-2,-1
1558434715745225,-3,-5,-11,-19,-2,2,0,-3
1558434715761182,-1,0,2,-7,-2,-1,-1,-1
1558434715761182,-3,-1,3,10,-2,0,-1,-2
1558434715761182,-2,-4,-3,-2,-4,-2,-2,1
1558434715761182,-1,1,2,6,1,0,-2,1
1558434715775179,2,0,0,-3,-1,-2,1,-2
1558434715775179,-1,-1,1,3,1,1,1,-1
1558434715782127,1,1,-1,5,3,-1,-1,-1
1558434715782127,-1,-3,2,-7,-6,-1,-1,0
1558434715797116,0,-2,-2,-9,-3,0,0,0
1558434715797116,-2,-3,-3,9,2,-2,-2,-3
1558434715806065,-1,0,-2,-5,-5,-4,0,0
1558434715806065,1,-1,1,13,11,5,0,0
1558434715821021,-2,-2,-5,-12,-1,0,-1,-3
1558434715821021,2,1,4,-8,-5,-3,-2,0
1558434715821021,-1,2,7,18,1,-1,1,0
1558434715821021,0,-3,-5,-6,-6,-6,-3,-3
1558434715834986,-2,-4,-1,3,3,0,0,2
1558434715834986,2,1,-4,2,2,2,1,1
1558434715842963,0,0,6,2,6,4,0,-3
1558434715842963,-2,0,5,7,3,-1,0,0
1558434715857924,0,1,-1,-2,-3,-1,-1,-1
1558434715857924,1,-1,-7,-10,1,0,-1,-1
1558434715865904,-3,-5,0,12,-1,-2,0,-2
1558434715865904,-2,0,4,5,4,2,0,-1
1558434715879865,-2,-1,-1,1,-4,-2,-2,-1
1558434715879865,-1,0,1,-6,1,-2,-2,-1
1558434715887844,0,-2,-5,-9,-1,-1,-3,-1
1558434715887844,0,1,-2,-2,-3,-6,1,3
1558434715894827,-2,-3,-11,-15,-6,-3,-3,-5
1558434715894827,-1,0,5,7,0,3,3,2
1558434715902813,-3,-3,-7,-4,-2,-1,-1,-5
1558434715902813,0,0,0,-3,-7,-4,-1,-1
1558434715917764,1,1,1,11,11,6,2,1
1558434715917764,-1,0,5,7,-1,-4,-2,-1
1558434715933846,-3,-5,-16,-28,-12,-7,-4,-1
1558434715933846,-3,-2,-5,-6,-7,-2,-3,-2
