timestamp,emg1,emg2,emg3,emg4,emg5,emg6,emg7,emg8
1558434634774076,-1,-1,8,8,2,-1,-3,0
1558434634774076,-1,4,-2,-3,0,-1,-2,-2
1558434634774076,-4,-5,-8,-6,-2,-1,-6,-1
1558434634774076,-2,-1,-5,-3,-8,-6,-4,-3
1558434634775074,-2,-2,2,1,3,3,0,0
1558434634775074,-4,-1,3,-1,-5,-4,-2,-2
1558434634779063,2,5,9,8,5,5,3,4
1558434634779063,1,-2,-5,5,7,5,0,-2
1558434634785048,-3,-2,-9,-22,-19,-9,-3,-3
1558434634785048,-2,-2,4,12,11,6,4,0
1558434634794023,2,0,3,-1,1,-5,0,0
1558434634794023,-3,-5,-10,-9,-4,-3,-4,-3
1558434634802001,2,2,-2,-4,4,2,2,-1
1558434634802001,-1,0,-3,2,-3,-4,-3,0
1558434634814967,-1,-1,-4,-9,-6,-1,-1,-2
1558434634814967,0,3,13,15,5,1,1,2
1558434634834914,2,2,-7,-3,3,0,1,2
1558434634834914,-1,-2,-6,-17,-7,-4,-5,-3
1558434634835912,-1,1,1,4,-4,1,0,-2
1558434634835912,-3,-3,-4,-17,-10,-4,-3,-2
1558434634846881,-3,-6,5,19,9,8,2,0
1558434634846881,3,3,1,-12,-1,2,6,2
1558434634852865,-1,-3,-1,0,-4,-4,-4,-2
1558434634852865,0,-1,-4,-7,-3,0,-2,0
1558434634905724,-3,-4,-11,2,2,-3,0,-2
1558434634905724,-2,-4,-6,-12,-12,-8,-5,-5
1558434634915697,-1,0,2,5,4,-2,-1,0
1558434634915697,0,0,4,5,-1,-1,-4,-3
1558434634915697,0,2,0,-3,-7,3,2,-1
1558434634915697,-4,-3,-6,0,0,-1,2,-3
1558434634916695,1,-1,-2,0,1,-2,-2,-1
1558434634916695,-1,-1,0,6,1,-2,1,-1
1558434634921681,-3,-1,0,-15,-2,1,-6,-5
1558434634921681,2,1,3,5,7,5,1,3
1558434634922679,1,1,4,0,-1,-1,-2,2
1558434634922679,-3,-4,-9,-1,-5,-2,-4,-5
1558434634927665,-2,-6,-4,-8,-16,-12,-6,-3
1558434634927665,0,0,-2,1,5,6,2,1
1558434634943623,0,0,-3,-14,3,-1,1,4
1558434634943623,-2,-2,3,0,-3,-2,-1,1
1558434634950604,1,2,3,6,2,-4,1,3
1558434634950604,-2,-3,1,-2,0,0,-3,-5
1558434634965564,-4,-5,2,8,-12,-8,-7,-6
1558434634965564,3,0,-5,-4,3,5,0,3
1558434634972544,0,1,0,-3,-1,3,0,0
1558434634972544,-1,1,3,15,2,2,3,2
1558434634980525,-1,1,-9,-13,1,0,0,1
1558434634980525,-2,-1,-3,-7,-9,-16,-5,-3
1558434634987505,0,0,0,7,4,8,5,3
1558434634987505,-1,-1,-5,-2,-1,-4,-4,-3
1558434635003464,-3,-6,-4,-2,-5,4,-2,-6
1558434635003464,-1,0,1,1,0,-5,-1,3
1558434635010444,-4,-2,-1,-1,-2,-2,-5,-1
1558434635010444,0,-1,1,-9,-16,-11,-6,-3
1558434635017425,0,1,-1,3,15,3,2,3
1558434635017425,-1,1,1,-3,9,10,5,3
1558434635034380,-1,-2,3,1,-2,-2,0,-4
1558434635034380,-3,-2,-4,-7,-14,-8,-10,-2
1558434635040365,0,-3,-3,5,2,3,1,-2
1558434635040365,-2,0,-1,-3,2,4,1,1
1558434635047346,1,2,2,1,2,-3,0,-1
1558434635047346,-4,-2,-1,0,-4,-2,1,0
1558434635063302,-1,1,5,6,3,2,1,-1
1558434635063302,-2,-2,0,-3,-4,5,0,-4
1558434635070283,2,3,0,-3,4,1,0,-1
1558434635070283,-4,-1,0,6,2,-9,-3,-1
1558434635077265,-2,0,1,7,4,1,2,-1
1558434635077265,-1,-2,-11,-17,-18,-15,-5,-3
1558434635092226,-2,-3,0,2,-3,1,-1,-2
1558434635092226,2,0,-3,-6,-4,0,-1,0
1558434635100203,-2,-2,2,-4,-2,1,-2,-2
1558434635100203,2,4,9,12,19,10,6,2
1558434635109181,-3,-5,-9,-3,-2,2,-3,2
1558434635109181,1,1,1,-1,9,5,2,-2
1558434635123143,-4,-6,-6,-7,-19,-12,-7,-7
1558434635123143,-2,-3,-2,-6,-8,-5,-5,-7
1558434635130126,1,2,3,2,7,4,3,0
1558434635130126,0,1,-2,0,6,0,2,0
1558434635138102,-1,-2,-4,3,-4,-6,0,-1
1558434635138102,-2,-2,-6,-17,2,-2,1,0
1558434635153062,1,-2,-1,7,7,9,7,-1
1558434635153062,0,-1,3,0,-5,-4,-4,-2
1558434635161041,1,2,1,4,3,-3,-6,-2
1558434635161041,-2,-1,-3,4,0,-2,-3,-2
1558434635168022,-2,-4,0,-10,-5,-6,-5,-1
1558434635168022,-2,-1,3,1,3,8,5,2
1558434635182983,0,0,0,-5,-1,-1,2,1
1558434635182983,-2,-3,3,13,3,1,0,-1
1558434635189964,-1,-2,-1,-2,-1,-10,-7,-4
1558434635189964,-4,-2,-5,-3,-4,-2,-1,-3
1558434635197942,0,-1,1,3,0,0,5,1
1558434635197942,3,0,-6,3,7,7,7,4
1558434635212903,-3,-1,-2,0,-9,-5,0,-4
1558434635212903,-2,-2,3,0,4,1,-6,-1
1558434635220881,-4,-1,-3,-18,-13,-3,-5,-3
1558434635220881,-1,1,0,-1,-3,-11,-5,0
1558434635227863,-2,0,-2,-2,6,3,4,4
1558434635227863,-1,-2,-7,3,5,1,1,2
1558434635243820,-2,-2,0,-4,-3,-5,-1,1
1558434635243820,-4,-5,1,3,-5,-2,-4,-5
1558434635249805,-4,-3,-3,4,-8,-12,-6,-5
1558434635249805,4,3,3,2,12,12,10,6
1558434635257782,2,-1,-6,-1,10,11,3,1
1558434635257782,-2,-1,0,-1,-2,0,-3,-1
1558434635272742,1,0,2,-3,-4,-3,-4,-5
1558434635272742,1,-4,-2,-1,-11,-13,-8,-5
1558434635280722,2,-2,0,0,-2,0,2,0
1558434635280722,-1,-2,1,-7,-9,-1,-6,0
1558434635287702,-2,0,-3,-2,5,4,1,2
1558434635287702,-1,1,2,0,6,5,5,1
1558434635303670,-1,0,-7,-3,0,-6,-1,3
1558434635303670,1,-2,-3,2,-2,-6,-4,-6
1558434635309644,-4,-2,0,2,-8,-8,-4,-2
1558434635309644,-2,-2,9,3,4,5,2,1
1558434635317622,0,-2,-10,-6,-4,-1,2,-1
1558434635317622,-1,-2,6,7,3,3,4,1
1558434635332583,3,3,1,-7,7,3,-2,0
1558434635332583,-3,-2,0,2,2,-5,-5,-3
1558434635340562,-2,0,1,-6,-7,-1,-8,-4
1558434635340562,-1,-3,-7,-4,-9,-9,-7,-1
1558434635347541,2,0,-3,-3,6,2,-3,1
1558434635347541,-4,-2,1,1,-2,-4,3,-2
1558434635363500,-1,1,3,0,-1,5,7,1
1558434635363500,-2,2,3,11,10,6,7,-2
1558434635370480,-1,2,8,11,3,-8,0,1
1558434635370480,-2,-3,-14,-20,-16,-8,-8,-2
1558434635377463,0,-4,-5,5,-3,-4,-3,-2
1558434635377463,1,-1,2,-7,-6,2,-1,-5
1558434635392423,-3,-2,-2,2,-10,0,-2,-3
1558434635392423,1,0,2,-13,2,2,1,-1
1558434635401398,-1,0,0,-4,3,-2,-3,-3
1558434635401398,1,2,9,16,7,0,3,4
1558434635407382,-3,-4,-11,-13,-6,-3,-3,-4
1558434635407382,-2,-4,-8,1,-15,-14,-5,-2
1558434635426596,-2,-1,1,3,10,6,2,0
1558434635426596,-1,-1,-1,1,0,0,-2,-3
1558434635430321,-1,-4,0,-13,-12,3,-1,-1
1558434635430321,-1,3,1,11,3,7,2,2
1558434635446278,-2,-3,-1,-5,-1,-4,-3,1
1558434635446278,0,-5,-8,-5,-2,0,-2,-2
1558434635452270,5,-1,-3,0,-5,-4,-4,-2
1558434635452270,2,-3,-6,-7,5,11,0,1
1558434635461239,-1,0,2,6,-8,-8,-4,-3
1558434635461239,-3,-1,-3,-13,-5,-2,-2,3
1558434635467223,-3,-2,2,4,4,-1,0,-1
1558434635467223,-3,-1,-6,-2,-11,-14,-3,-3
1558434635484186,1,2,4,13,12,11,7,4
1558434635484186,0,-1,0,-3,3,4,0,-2
1558434635490160,-3,1,6,6,11,5,0,-2
1558434635490160,0,1,3,2,2,-1,1,1
1558434635513101,-5,-3,-2,-5,-13,-9,-8,-4
1558434635513101,-1,0,-7,-3,-3,-2,-8,-2
1558434635514096,-3,-3,-8,-6,-8,-1,1,1
1558434635514096,-2,-1,1,-2,-6,-7,-7,-6
1558434635521078,5,4,0,4,10,5,5,7
1558434635521078,3,2,7,8,2,0,4,2
1558434635528060,-2,-5,-8,-17,-5,-2,-1,-4
1558434635528060,-3,-5,5,8,9,11,6,1
1558434635544017,-4,0,-1,-11,-7,-7,-5,-4
1558434635544017,-2,-2,-7,-7,-12,-11,-8,-5
1558434635550001,-1,3,1,1,4,8,4,0
1558434635550001,0,-2,-4,-5,-3,0,0,-1
1558434635566955,-2,-3,-6,-9,-11,-11,-7,-4
1558434635566955,-4,-1,5,17,11,10,7,1
1558434635572940,3,1,-4,-3,0,3,0,2
1558434635572940,2,0,1,4,7,0,0,1
1558434635587899,0,-2,-1,0,-1,0,-1,1
1558434635587899,-4,-5,-4,-8,-8,-6,-7,-5
1558434635588896,2,-1,-2,10,1,-4,-6,1
1558434635588896,-2,0,-3,-5,5,10,5,1
1558434635603862,-3,-6,-5,-14,-20,-9,-7,-7
1558434635603862,0,-1,3,-2,3,-8,-1,-1
1558434635609841,3,5,7,11,15,3,6,7
1558434635609841,2,4,5,-1,0,2,-4,0
1558434635626796,-1,3,12,17,10,12,1,-3
1558434635626796,-6,-9,-25,-34,-14,-2,-3,-4
1558434635632779,-5,-4,-3,-4,-11,-9,-5,-6
1558434635632779,2,0,2,0,3,-6,-1,-4
1558434635641755,-2,-3,-4,1,-6,-6,-3,-1
1558434635641755,-2,2,2,4,5,4,3,3
1558434635647740,4,2,3,9,14,6,3,5
1558434635647740,0,-5,-4,-7,-18,-9,-1,1
1558434635663698,3,1,8,7,8,6,4,-2
1558434635663698,2,-2,3,7,2,2,2,-2
1558434635669681,-3,-2,-2,-15,-12,-4,-2,-1
1558434635669681,-3,-2,-4,-2,-3,-2,-7,-5
1558434635686641,-1,-1,-5,-2,0,1,0,3
1558434635686641,-4,-2,-4,-5,-9,-6,-6,-4
1558434635692620,-4,0,1,1,-8,-4,1,-1
1558434635692620,0,5,4,8,23,15,9,5
1558434635701596,-6,-3,-2,-2,2,0,-1,1
1558434635701596,-1,-3,-1,2,-8,-4,-5,-4
1558434635707581,-5,-4,-5,-18,-12,-3,-5,-5
1558434635707581,-1,-4,-2,-1,-4,-10,-4,-1
1558434635723536,-2,-1,-3,-4,-2,-2,0,-2
1558434635723536,2,1,3,10,10,12,3,2
1558434635730518,-3,-3,-2,3,-7,-9,-1,-4
1558434635730518,0,-4,-4,-3,-1,1,-2,1
1558434635746475,2,-2,-1,-4,-9,-5,-4,-2
1558434635746475,6,3,2,0,4,5,3,4
1558434635752480,-2,0,3,11,15,7,-2,-2
1558434635752480,-4,-2,-3,-10,-12,-8,-5,-3
1558434635761435,-4,-4,-4,-5,0,-3,-2,-1
1558434635761435,-3,-2,-1,-8,-12,-8,-5,-4
1558434635775398,0,-3,-6,-7,-5,0,-1,0
1558434635775398,-1,-1,-4,7,3,-1,1,-5
1558434635784374,0,3,1,1,3,6,4,1
1558434635784374,1,1,3,-1,5,11,5,1
1558434635790358,1,1,7,17,6,-5,-3,3
1558434635790358,-1,-4,1,-11,-11,-12,-6,-3
1558434635806314,-1,0,2,17,6,-7,0,-1
1558434635806314,-3,2,-6,-22,-1,-3,4,-1
1558434635812300,2,-1,-4,-5,-2,1,-1,-7
1558434635812300,-5,-6,-8,-3,-16,-8,-2,-3
1558434635821273,2,0,-5,-10,4,6,3,3
1558434635821273,1,2,8,7,5,-3,4,5
1558434635835248,0,-2,11,21,14,9,2,2
1558434635835248,-2,-1,-5,-13,-5,-2,-2,1
1558434635844215,-2,-4,0,-13,-12,-12,-7,-4
1558434635844215,-1,-3,-1,6,-6,-7,-5,-1
1558434635850196,2,-1,-7,-7,0,1,0,-3
1558434635850196,6,6,10,15,12,10,5,1
1558434635866155,-1,-4,-4,6,-2,2,3,0
1558434635866155,-3,-1,-12,-11,-8,0,2,1
1558434635872138,-4,-1,3,2,-3,-4,1,-2
1558434635872138,-4,-4,0,5,-2,1,-3,-4
1558434635887098,5,5,6,-1,6,4,1,0
1558434635887098,-4,-4,-2,7,-5,-9,-9,-9
1558434635895078,-2,-2,-5,-13,-5,1,-4,-6
1558434635895078,-1,1,2,-5,-7,-2,-3,-2
1558434635911035,2,4,6,11,13,-2,5,7
1558434635911035,0,-5,2,7,5,2,-1,0
1558434635911035,0,-1,-5,-9,5,0,0,0
1558434635911035,-2,-6,-16,-13,-4,2,1,0
1558434635926992,-1,-2,-2,-4,-14,-4,-7,-5
1558434635926992,-1,-2,2,-2,4,1,-1,-2
1558434635932975,-1,2,6,5,0,-3,1,1
1558434635932975,-1,1,4,17,12,6,1,0
1558434635947935,-4,-6,-13,-36,-16,-8,-8,-3
1558434635947935,-2,5,1,11,3,-1,-1,2
1558434635954919,1,-2,0,1,-3,7,3,0
1558434635954919,-3,-8,-3,0,6,-3,0,-2
1558434635970877,-2,-4,-5,5,6,0,3,1
1558434635970877,0,-4,2,-9,-6,-7,-3,-3
1558434635971872,-1,-1,-3,-11,-6,-6,-4,-2
1558434635971872,2,1,3,15,1,-2,-5,1
1558434635986833,-2,-3,-9,-9,3,-1,-1,-2
1558434635986833,-1,-3,-4,2,1,-3,-1,1
1558434635992816,-1,-2,-3,-2,-2,2,-1,3
1558434635992816,1,2,6,3,2,7,2,-1
1558434636007776,-1,0,0,7,4,4,1,-3
1558434636007776,-3,-2,-1,-14,-8,-7,0,-1
1558434636014757,-3,-2,-4,0,-4,-4,0,-1
1558434636014757,-1,1,0,-3,4,0,1,-1
1558434636030715,-2,3,3,6,-2,-1,-1,-3
1558434636030715,-3,2,2,1,2,5,4,-2
1558434636031712,-3,-1,0,-5,-5,-3,-5,-3
1558434636031712,-2,-2,-2,-9,-2,-4,-4,-2
1558434636046672,-3,-2,-8,-14,-5,-7,-3,1
1558434636046672,0,-4,-2,6,-4,-3,-4,1
1558434636052656,0,1,-2,-8,-2,-3,0,0
1558434636052656,0,3,11,15,3,4,2,0
1558434636067616,1,0,-1,7,2,2,-3,-3
1558434636067616,-5,-4,-11,-18,-6,-2,-1,-4
1558434636075594,-1,-4,-7,4,7,5,6,3
1558434636075594,0,1,-3,-8,-8,-11,-4,1
1558434636090593,1,1,7,11,6,7,0,1
1558434636090593,5,1,5,1,6,4,-7,-1
1558434636091555,-2,-4,-1,7,-5,-9,-5,-4
1558434636091555,1,1,0,-9,8,7,6,4
1558434636106511,1,2,2,-5,-4,3,2,1
1558434636106511,2,5,6,16,8,4,3,-2
1558434636120475,-3,0,-5,-8,-7,-6,-6,0
1558434636120475,-8,-10,-11,-8,-16,-12,-7,-6
1558434636127456,-3,-3,3,5,-8,-4,-1,-2
1558434636127456,0,3,-7,-3,10,3,3,3
1558434636135434,0,0,-4,-7,-5,0,3,-3
1558434636135434,0,-1,-2,-3,-4,-2,-7,-4
1558434636150393,-5,-6,-3,-1,-6,-3,-8,-6
1558434636150393,-3,-2,-2,-14,-12,-2,-1,0
1558434636151391,2,6,9,17,17,1,8,7
1558434636151391,2,1,-4,-8,4,3,-1,-2
1558434636167352,0,-3,-2,4,-1,0,0,-3
1558434636167352,0,-6,-4,-3,-6,-2,-7,-6
1558434636172336,0,-2,1,-4,1,3,-4,-2
1558434636172336,-3,-1,0,4,-2,-7,-1,5
1558434636187297,1,3,2,1,1,-1,0,2
1558434636187297,-3,-1,2,4,-6,-5,1,-3
1558434636195275,-1,-8,-9,-8,-6,2,-3,-3
1558434636195275,1,0,-1,-2,6,3,3,2
1558434636211234,-4,-5,-6,-8,-4,-5,-2,-4
1558434636211234,-3,-1,1,3,-1,0,0,-2
1558434636211234,4,6,7,4,9,6,2,1
1558434636211234,-1,-1,1,6,-5,-2,-3,-1
1558434636226192,1,4,-1,-11,3,-2,-1,5
1558434636226192,-1,-3,-8,-6,-7,-5,-3,-1
1558434636232209,-1,-3,-3,6,-2,1,1,-2
1558434636232209,0,0,-4,7,-1,-1,-2,-4
1558434636247169,-4,-5,-4,-12,-13,-6,-2,-4
1558434636247169,1,5,13,1,1,1,-2,0
1558434636255140,-2,-7,-15,-4,6,0,5,7
1558434636255140,-2,-5,-2,2,0,-4,-2,-2
1558434636271072,1,1,-3,-3,-1,-2,2,-2
1558434636271072,-4,-3,-4,-7,-4,2,-6,-6
1558434636271072,-3,0,5,1,-4,-6,-6,-4
1558434636271072,-4,2,-1,-8,1,-2,0,-2
1558434636286030,-3,0,-1,3,-3,0,-1,0
1558434636286030,-1,-1,-1,1,4,3,2,-1
1558434636300992,2,2,0,3,-3,-2,-3,-2
1558434636300992,0,1,-1,-1,0,6,6,4
1558434636307973,-2,-4,0,0,-4,-3,-3,-3
1558434636307973,0,-1,-1,5,3,-6,-2,1
1558434636314955,-2,-1,-4,-13,-10,0,-3,-6
1558434636314955,-3,-1,6,4,-1,-6,-4,1
1558434636330911,0,2,-4,5,6,2,8,5
1558434636330911,-1,-2,-2,13,21,15,8,5
1558434636331908,-1,-1,-1,-8,-10,-11,-5,-3
1558434636331908,1,-2,-7,-12,-8,-8,-4,-5
1558434636346868,-1,-3,4,3,-5,-4,-5,-3
1558434636346868,0,-3,-2,-4,-5,-2,1,-5
1558434636352853,-3,1,-4,8,9,0,-2,1
1558434636352853,1,3,3,-4,3,-3,2,0
1558434636367814,0,-3,8,8,8,2,-3,-1
1558434636367814,-5,-2,-10,-6,-6,-5,-3,-1
1558434636374828,1,-1,-1,-9,-4,-1,-1,-3
1558434636374828,-1,-1,-9,-20,-7,-1,-5,-6
1558434636390752,0,0,-3,-7,-5,-1,-7,-5
1558434636390752,-1,-1,3,5,-4,-4,-3,-2
1558434636391750,3,6,7,8,17,8,8,7
1558434636391750,-3,-3,-6,0,-5,-1,-1,0
1558434636406709,-1,-1,0,-6,0,-4,1,-1
1558434636406709,-2,-2,0,-5,-6,-5,-7,-2
1558434636412694,-2,-2,1,-1,-12,-1,-2,-1
1558434636412694,2,0,3,7,22,15,9,4
1558434636429919,0,0,1,11,1,2,-1,-1
1558434636429919,-2,-1,-5,-4,1,-3,2,-1
1558434636434633,-3,-3,3,-5,-7,-12,-5,-3
1558434636434633,2,0,2,3,-8,3,2,-1
1558434636450592,-2,0,-6,2,12,4,-5,-5
1558434636450592,2,1,-3,-7,-10,-3,-3,1
1558434636451589,-6,0,3,6,-2,0,-2,-3
1558434636451589,-5,-5,-7,-15,-12,-12,-6,-3
1558434636466548,2,3,5,7,7,6,8,1
1558434636466548,0,-3,-1,-9,-1,-3,3,1
1558434636472532,-1,-2,1,3,-10,-5,-2,-6
1558434636472532,-2,-1,-4,7,-3,4,-2,-3
1558434636487493,-3,-5,-12,-18,-1,2,1,3
1558434636487493,0,6,6,6,12,2,3,2
1558434636503484,-4,-4,-6,-3,0,-4,-5,-5
1558434636503484,-2,-5,-3,2,-12,-11,-9,-8
1558434636510432,3,0,1,8,3,3,8,0
1558434636510432,2,0,1,-6,3,-1,0,1
1558434636511429,-3,-2,0,4,0,-8,-4,0
1558434636511429,-3,-1,-4,-10,-6,-1,-4,-6
1558434636526388,-1,1,4,-1,-4,0,-4,-3
1558434636526388,-1,-1,0,-3,-8,1,0,-1
1558434636532372,1,2,4,4,10,7,6,5
1558434636532372,3,1,4,3,3,4,2,5
1558434636547332,0,0,1,0,-2,0,-5,-2
1558434636547332,-1,1,-1,5,-2,2,0,-1
1558434636555310,-4,-3,-8,-5,-2,-6,-8,-5
1558434636555310,1,-1,2,3,5,8,7,1
1558434636571269,-5,-4,-11,-17,-9,-3,-3,-3
1558434636571269,-1,-3,3,2,-7,-9,-6,-7
1558434636571269,5,0,1,5,7,2,7,6
1558434636571269,1,0,-2,-6,0,-8,-2,2
1558434636586228,-2,2,3,6,-6,-5,-6,-4
1558434636586228,0,1,1,12,-2,7,2,3
1558434636592212,-2,2,1,-13,-1,9,8,1
1558434636592212,-4,0,-1,4,-3,-3,-1,-2
1558434636607172,-3,-2,-7,-10,-7,-6,-5,0
1558434636607172,0,-1,3,8,11,10,0,-1
1558434636615152,2,-1,-4,-7,5,3,0,0
1558434636615152,1,0,5,7,1,0,0,-1
1558434636631488,0,-3,-2,-8,-5,-4,-4,-4
1558434636631488,-4,-4,-4,-3,-2,-3,0,-3
1558434636631488,2,-1,2,9,1,3,4,-1
1558434636631488,3,4,5,10,8,-2,-1,3
1558434636646280,-4,-8,-15,-30,-20,-8,-4,-2
1558434636646280,0,-3,-10,-12,-7,-5,-4,1
1558434636653391,-3,-4,-4,-11,-13,-11,-9,-2
1558434636653391,-3,0,0,8,5,7,2,0
1558434636668323,4,6,10,19,21,11,9,3
1558434636668323,2,6,1,2,5,2,2,0
1558434636675989,-5,-1,-7,2,-6,-8,-9,-8
1558434636675989,-2,0,5,3,-6,-6,-6,-9
1558434636691267,-3,-4,1,5,-3,-3,-2,-2
1558434636691267,-3,-6,-10,-12,1,4,4,2
1558434636691946,-1,-2,-4,1,0,-3,-1,-1
1558434636691946,-2,-5,-4,-4,4,9,6,3
1558434636712891,2,-2,2,-2,-4,5,-2,-4
1558434636712891,-3,-4,1,11,-5,-12,-12,-6
1558434636713887,-2,-3,-3,-6,-13,-15,-6,0
1558434636713887,0,0,-2,-4,1,-3,-1,1
1558434636727849,2,3,8,7,8,7,0,2
1558434636727849,2,3,-8,1,9,11,6,2
1558434636734830,0,0,2,1,-5,2,-2,-1
1558434636734830,-2,-3,2,0,-3,-12,-5,-4
1558434636751785,-2,-4,-9,-7,-8,-7,0,0
1558434636751785,2,0,2,-4,-5,-2,-1,-4
1558434636757769,-2,0,4,5,0,0,-2,-5
1558434636757769,2,0,-6,-4,0,3,5,0
1558434636766745,6,5,18,27,25,13,7,5
1558434636766745,-2,-3,-4,-15,-10,-13,-5,-2
1558434636772729,-2,-4,-9,-11,-9,-3,-4,-1
1558434636772729,-4,-5,-6,-13,-12,-8,-5,-4
1558434636787717,-3,-4,-2,4,-1,-7,-4,-5
1558434636787717,-3,-5,-2,-9,-14,-8,-1,-1
1558434636794671,1,4,3,-2,17,16,14,7
1558434636794671,1,2,0,3,4,3,-5,1
1558434636809668,-4,0,-6,-9,-8,-2,-3,1
1558434636809668,-1,-4,1,0,-1,1,-2,-1
1558434636817609,-1,-1,1,3,-9,-14,-7,-1
1558434636817609,0,-2,-5,-1,2,1,3,1
1558434636826585,1,-1,-6,-4,-3,-1,-3,-3
1558434636826585,-3,-2,1,-1,-3,2,-1,-3
1558434636832569,-3,-1,-5,-5,0,1,-2,-4
1558434636832569,0,2,2,7,6,6,4,4
1558434636848526,-2,-2,9,20,8,0,3,1
1558434636848526,-2,-2,-3,-12,-8,-3,-4,1
1558434636855508,-2,-3,-4,-10,-5,-4,-5,-1
1558434636855508,-1,0,4,8,-2,2,-2,-6
1558434636870507,0,-1,-10,-5,-7,-5,1,0
1558434636870507,1,1,-1,12,10,4,2,1
1558434636877451,-2,-2,-2,1,7,6,2,-3
1558434636877451,-1,-4,-6,-13,-13,-8,-5,-2
1558434636893408,-3,2,6,1,-6,-7,-3,-2
1558434636893408,-3,-2,4,10,0,-5,3,0
1558434636894408,0,-2,-12,-14,2,-2,-1,2
1558434636894408,-1,-3,1,-7,2,4,3,-1
1558434636907370,0,-1,-3,-9,2,-1,-3,-3
1558434636907370,-2,0,-5,-1,-6,-5,-8,-4
1558434636915349,2,1,6,8,0,2,-1,-2
1558434636915349,0,0,4,7,4,-2,2,6
1558434636930335,0,0,-2,-1,-3,-1,-5,-4
1558434636930335,0,3,2,0,-4,-3,-1,-3
1558434636937289,1,-4,-1,-1,-4,-2,-3,1
1558434636937289,0,-2,-2,-2,0,4,2,0
1558434636953246,-2,-1,-12,-4,2,1,7,2
1558434636953246,1,2,3,6,12,4,2,2
1558434636954243,-3,-6,-6,-1,-5,0,-2,-2
1558434636954243,-3,0,6,3,-7,-7,-10,-8
1558434636967249,1,-1,3,-7,4,5,2,0
1558434636967249,1,0,-3,-3,-4,-1,0,0
1558434636975187,-3,-1,7,3,-4,1,-3,-3
1558434636975187,-2,-3,-10,-10,-6,-6,-4,1
1558434636990178,-2,-1,3,9,-5,-12,-5,-3
1558434636990178,4,0,1,-1,12,11,8,5
1558434636997132,0,1,3,4,-3,-2,-3,0
1558434636997132,-2,-3,-6,-5,-4,-2,-4,-4
1558434637013085,-1,2,4,7,6,5,1,3
1558434637013085,-3,-4,-7,-21,-4,-5,-6,-3
1558434637014083,1,1,0,2,1,-1,1,0
1558434637014083,-2,0,-7,-4,1,-2,-4,-6
1558434637028051,-3,-7,-10,-9,-10,-9,-5,-2
1558434637028051,1,-2,0,-7,-1,6,3,2
1558434637035215,1,2,7,7,3,4,3,2
1558434637035215,-2,-3,-10,-6,-8,-3,-3,-5
1558434637049989,-1,0,1,-6,-9,-11,-6,-4
1558434637049989,-5,-1,-2,5,4,2,4,-1
1558434637057967,-3,1,-2,-1,-1,-2,-2,-5
1558434637057967,2,2,2,-5,9,4,5,5
1558434637072927,-1,-3,0,4,-3,3,-2,-2
1558434637072927,-2,0,2,-5,-7,-6,-2,0
1558434637073925,0,0,2,10,8,1,2,1
1558434637073925,-3,-1,0,0,-2,-2,3,1
1558434637088329,-1,-2,-9,-17,-8,0,1,-2
1558434637088329,-2,-2,-2,-4,-4,-3,-3,0
1558434637095444,-2,-3,-5,3,-2,-5,-2,-1
1558434637095444,0,3,4,5,-1,2,0,1
1558434637110322,0,-1,0,0,-1,-2,0,-1
1558434637110322,-5,-4,0,9,-4,-3,-6,-5
1558434637126584,-3,-2,-5,-6,-10,-4,-6,-3
1558434637126584,-1,-7,-3,1,4,7,0,-1
1558434637133307,3,3,1,7,7,4,2,1
1558434637133307,0,2,3,7,-1,-1,1,2
1558434637134261,-3,-2,-3,1,-3,-2,1,1
1558434637134261,-2,1,-12,-17,-11,-7,-1,1
1558434637148420,-1,-1,-4,2,2,4,0,-2
1558434637148420,1,0,-3,-4,-6,-6,-5,-4
1558434637155508,2,4,12,-1,4,4,3,3
1558434637155508,-2,-2,1,3,-2,-2,-4,-2
1558434637170470,-7,-5,-3,-7,4,5,2,2
1558434637170470,-1,-1,1,1,1,-2,-4,1
1558434637177144,0,-1,-3,-5,-2,4,0,0
1558434637177144,1,0,2,4,6,5,2,-1
1558434637193302,0,0,2,0,0,1,1,-3
1558434637193302,-3,-4,3,11,-7,-9,1,-10
1558434637194301,3,4,1,-8,5,0,4,2
1558434637194301,0,0,-5,7,15,12,2,1
1558434637216508,-3,-3,-4,-15,-17,-8,-6,-2
1558434637216508,-1,-2,-4,-11,1,-1,-2,0
1558434637216508,-5,-8,-11,-5,-9,-5,-1,-6
1558434637216508,0,2,3,2,-9,-11,-2,-3
1558434637230205,2,3,2,3,13,11,5,8
1558434637230205,0,0,-1,10,-1,3,-4,1
1558434637237573,-6,-5,-6,-14,-10,-4,-6,-5
1558434637237573,-4,-2,1,-10,-12,-8,-6,-6
1558434637253457,3,2,5,12,6,-4,-2,0
1558434637253457,5,1,0,6,11,6,4,1
1558434637254142,0,-1,-6,-4,-1,-3,1,-6
1558434637254142,-1,-3,2,2,-6,-2,-1,-2
1558434637269142,-3,2,2,3,-8,-8,-5,-1
1558434637269142,-1,-2,-1,0,12,11,11,8
1558434637275424,-1,-2,-4,6,3,-1,-2,-4
1558434637275424,-1,-2,3,7,0,-2,-1,-2
1558434637290371,1,-3,-8,-11,-9,-9,-9,0
1558434637290371,-3,-2,-5,-19,-13,-10,-9,-2
1558434637298335,0,-1,4,1,-1,5,0,-1
1558434637298335,-3,-2,-1,-9,-2,2,2,-2
1558434637313261,-1,-1,5,10,4,1,4,-4
1558434637313261,0,4,2,7,8,6,4,1
1558434637313983,-1,2,1,2,-4,-12,-3,2
1558434637313983,-3,-2,0,2,-1,3,2,4
1558434637328940,-4,-6,-5,-4,-4,-1,-4,-10
1558434637328940,-3,-2,-1,3,-4,1,-1,-2
1558434637334958,-2,-2,-2,0,6,0,-2,0
1558434637334958,2,0,5,11,-3,-5,-3,5
1558434637350130,0,-3,-2,-5,-2,-3,-2,2
1558434637350130,0,-1,-4,-6,-6,-9,-2,-3
1558434637358114,4,3,2,-4,10,12,4,4
1558434637358114,-1,-1,-7,0,-3,-6,-2,0
1558434637372860,-2,-5,5,6,-3,-1,-2,-4
1558434637372860,1,1,-2,-2,3,3,2,-5
1558434637373821,-1,-1,-5,-7,-10,-3,1,-2
1558434637373821,-1,0,3,4,5,3,-1,-2
1558434637388788,-6,-9,-11,-15,-10,-1,-1,-2
1558434637388788,-5,-4,-2,-9,-13,-15,-8,-4
1558434637394765,-1,-1,3,6,-6,-2,-1,-1
1558434637394765,5,6,-3,6,18,16,4,1
1558434637410724,-1,1,0,5,5,-4,-3,0
1558434637410724,-2,-2,-2,-2,-2,-3,0,-3
1558434637417703,-1,-2,-6,-5,-5,-6,-4,-6
1558434637417703,-1,-4,0,-8,-10,-9,-3,-6
1558434637433661,2,2,4,4,9,4,2,4
1558434637433661,3,2,7,8,16,13,3,7
1558434637433661,-1,0,1,-5,-1,2,-4,2
1558434637433661,0,-6,-16,-2,-10,-5,-4,-3
1558434637448649,-3,-1,-9,-7,-5,-3,-1,-4
1558434637448649,-4,-5,-2,-9,-13,-9,-3,-4
1558434637455685,-2,0,-5,-5,1,-2,4,4
1558434637455685,0,2,5,1,1,-6,-2,0
1558434637470564,0,1,-6,-10,10,5,1,4
1558434637470564,-1,1,3,15,-3,-2,-4,-2
1558434637477546,0,-3,0,-1,-3,3,-1,-4
1558434637477546,-2,-3,7,3,-5,-5,1,0
1558434637493501,2,4,5,10,4,-4,3,-1
1558434637493501,-1,-2,-10,-2,7,2,0,-1
1558434637493501,-1,-3,0,7,3,0,-2,-4
1558434637493501,-4,-1,-5,-16,-6,0,-7,-4
1558434637509459,-2,0,3,-1,-11,-4,-4,-3
1558434637509459,2,3,3,2,6,-2,-3,3
1558434637515444,3,0,-4,-7,-3,6,6,3
1558434637515444,-3,-5,-7,5,9,1,2,3
1558434637538413,-3,-2,1,-13,-7,-3,-2,-1
1558434637538413,-1,-4,-9,-10,-12,-3,-2,-3
1558434637539378,-2,1,5,8,-3,-12,-4,-1
1558434637539378,-3,-3,-6,-12,-6,-5,-6,-3
1558434637553369,-3,-8,-4,2,2,5,0,-1
1558434637553369,1,3,5,2,10,6,7,5
1558434637554370,-2,-1,1,-3,2,-1,-1,-1
1558434637554370,0,1,6,7,-3,-1,1,0
1558434637569298,0,0,-12,-15,-9,-3,-3,-2
1558434637569298,-3,-6,-3,-1,-8,-8,-9,-5
1558434637575316,0,-3,-5,1,-2,-7,-2,-1
1558434637575316,0,2,5,-2,8,5,2,2
1558434637590347,-2,1,0,4,10,8,7,-1
1558434637590347,-2,-2,3,4,3,3,3,-4
1558434637597326,-2,0,3,8,1,-1,-6,-3
1558434637597326,-1,-3,-8,-10,-8,-11,-9,-5
1558434637613284,-3,-7,-11,-23,-19,-12,-3,-2
1558434637613284,0,-1,0,2,5,11,6,0
1558434637614248,-1,1,-5,-11,-6,-7,-2,-3
1558434637614248,2,1,7,10,4,-2,0,0
1558434637629207,4,5,5,15,15,15,3,1
1558434637629207,-3,-2,-3,-2,-6,-6,-7,0
1558434637635279,-2,-4,-3,-5,-4,0,0,-1
1558434637635279,-2,-1,-4,-3,-2,-2,2,3
1558434637650239,0,3,4,2,0,-9,-3,4
1558434637650239,-2,-2,-7,-5,-11,-6,1,0
1558434637657225,0,0,5,12,12,9,3,4
1558434637657225,0,0,2,0,0,1,-4,-4
1558434637672153,-2,-3,-2,3,-7,-9,-5,-3
1558434637672153,4,4,7,7,3,-1,3,0
1558434637680132,-2,-2,-8,-13,-6,-2,-1,-3
1558434637680132,0,0,0,1,5,1,0,-1
1558434637689048,-3,0,8,26,7,3,2,0
1558434637689048,-3,-4,-10,-30,-8,-1,-1,-5
1558434637695031,-1,-1,0,-4,-4,-6,0,-1
1558434637695031,-1,1,1,5,-1,1,-1,-3
1558434637710003,1,0,-4,-8,0,7,3,-2
1558434637710003,-1,0,1,6,2,0,-2,-1
1558434637717999,-2,-3,-6,8,-1,-6,-7,-2
1558434637717999,-2,-3,0,0,-11,-4,-3,-2
1558434637733002,-1,-1,-6,-12,-2,-4,-8,-2
1558434637733002,-2,-2,-8,-10,-7,-6,-3,0
1558434637739984,3,4,7,12,17,19,6,3
1558434637739984,-1,-4,2,1,-1,-4,1,0
1558434637748961,0,-4,2,2,-8,-9,2,-2
1558434637748961,-1,-1,2,-6,-3,-4,-6,-2
1558434637755020,-4,-2,-4,-5,-2,3,2,-3
1558434637755020,-2,2,-4,-6,2,-2,5,1
1558434637769968,3,4,8,12,1,-9,1,2
1558434637769968,0,0,11,12,7,4,-4,-3
1558434637777883,-3,-7,-13,-12,-12,-8,-7,-5
1558434637777883,4,1,-1,0,3,5,-1,1
1558434637792874,-4,-4,-7,-10,-6,0,-5,-4
1558434637792874,-1,0,0,6,10,6,4,1
1558434637799852,1,3,6,6,5,-3,6,7
1558434637799852,-3,-2,-3,4,1,3,5,-3
1558434637808799,-3,-3,-7,-16,-1,-2,-1,-2
1558434637808799,-3,-5,-4,-5,-8,-5,-8,-3
1558434637814783,0,-2,6,10,2,0,-3,-2
1558434637814783,0,0,-4,-12,7,2,0,-1
1558434637829774,0,0,6,16,-4,0,1,1
1558434637829774,-2,-4,-9,-6,-4,-9,-3,-1
1558434637837758,-2,-4,-8,-5,-11,-11,-6,-3
1558434637837758,4,3,2,-13,-6,2,-1,0
1558434637852716,-1,0,0,3,5,7,0,-3
1558434637852716,-4,-1,3,0,-5,-3,-2,-3
1558434637859853,-3,-4,-3,-11,-10,-11,-2,-3
1558434637859853,-1,0,4,-2,6,5,2,2
1558434637875810,-2,-1,-5,4,0,1,0,-1
1558434637875810,2,2,3,5,10,12,7,1
1558434637876620,-2,0,-4,2,1,2,-1,-2
1558434637876620,-4,-2,-3,-3,-11,-12,-12,-5
1558434637890685,0,2,0,-10,-1,8,5,2
1558434637890685,3,1,3,15,9,-5,5,3
1558434637905734,0,-3,-1,-6,0,4,-1,-4
1558434637905734,-2,-1,0,-4,-7,-3,-4,-4
1558434637912531,-5,-3,-6,-8,-10,-13,-7,-1
1558434637912531,0,-2,-3,-3,-2,2,1,1
1558434637920574,1,1,6,11,11,5,3,2
1558434637920574,0,-3,-4,-3,-5,-16,-6,-4
1558434637935587,0,-5,-6,-12,-13,-12,-7,-4
1558434637935587,-1,-1,-3,-7,0,6,0,0
1558434637936459,-2,1,1,-2,5,6,-3,0
1558434637936459,0,0,-1,18,7,15,8,3
1558434637949885,1,0,5,0,3,-3,-2,0
1558434637949885,-1,-2,-4,-8,-17,-12,-8,-5
1558434637957822,1,1,-5,-4,1,6,9,3
1558434637957822,-2,-1,3,5,7,1,-2,-1
1558434637972725,2,2,5,8,4,0,1,0
1558434637972725,-4,-3,-16,-7,-6,-2,-3,-2
1558434637979713,0,2,3,-4,-4,-7,-6,-2
1558434637979713,-2,-4,-12,-11,-7,-2,0,0
1558434637995634,0,1,3,7,1,4,1,0
1558434637995634,-1,-3,2,-6,-4,-2,-4,-1
1558434637996635,1,-1,-5,-8,3,4,0,0
1558434637996635,-3,-3,0,0,-2,-6,0,-4
1558434638009636,1,3,-2,0,4,0,2,5
1558434638009636,-2,-1,3,4,2,-4,-2,1
1558434638017610,-1,-2,-3,-3,-13,-8,-4,-3
1558434638017610,2,1,2,0,1,7,3,1
1558434638032535,-4,-4,2,1,-2,-1,-1,-3
1558434638032535,0,2,-1,7,12,7,4,1
1558434638040522,0,0,1,-3,-5,-1,-1,2
1558434638040522,-2,0,1,8,-4,-12,-5,-2
1558434638055508,-3,-1,-6,-9,-5,-6,1,-3
1558434638055508,0,1,-2,-22,0,-1,0,1
1558434638056473,-2,-2,-5,5,0,6,2,0
1558434638056473,-1,-2,-1,11,-3,-6,-1,-4
1558434638070632,0,0,1,-7,7,7,2,0
1558434638070632,-1,-3,-2,-2,-11,-9,-4,-5
1558434638077417,-1,0,0,-2,0,1,-2,-3
1558434638077417,0,-1,-1,-4,-5,2,2,-2
1558434638092412,-4,1,4,-4,-1,-4,-5,0
1558434638092412,1,-1,-5,0,2,-1,3,3
1558434638100355,-1,-2,-2,-4,0,-2,1,1
1558434638100355,-3,-2,-3,-8,-8,2,-3,-3
1558434638115352,-1,-3,-10,3,-4,-4,-4,-3
1558434638115352,0,0,-2,-5,-9,-3,-1,0
1558434638116310,-1,1,8,9,9,-1,-5,1
1558434638116310,-2,-1,-9,-10,1,4,0,3
1558434638130275,2,0,2,5,-2,-3,-1,1
1558434638130275,-2,0,1,-1,-7,-10,-5,-3
1558434638137284,-1,-1,-2,14,6,4,4,1
1558434638137284,0,1,7,-5,4,3,1,1
1558434638153213,-3,-5,-18,-21,-12,-1,-3,-4
1558434638153213,-3,-9,-6,-7,-10,-6,-2,-4
1558434638160195,0,-2,-5,-8,-5,1,0,3
1558434638160195,2,3,10,13,10,2,2,1
1558434638176270,-1,-2,0,9,7,5,3,-2
1558434638176270,0,1,0,7,1,0,-2,-4
1558434638176270,-2,0,-2,-5,-6,-5,-6,-6
1558434638176270,-2,0,-3,-6,-10,-6,-1,0
1558434638190214,-2,-1,2,9,3,-1,1,2
1558434638190214,0,3,5,5,10,8,2,1
1558434638197124,-1,-4,5,0,3,2,-4,-2
1558434638197124,-1,-4,-8,3,-3,-8,-7,-2
1558434638212055,0,-2,3,-6,-3,-1,0,-1
1558434638212055,-1,-1,1,6,0,-2,-1,1
1558434638220067,0,1,4,1,1,-1,-1,4
1558434638220067,0,0,-4,0,-3,-6,-2,0
1558434638243971,-4,-11,-18,-17,-8,-2,0,-6
1558434638243971,-4,-1,7,7,2,3,2,1
1558434638244968,0,0,3,0,2,-5,2,-2
1558434638244968,2,-1,0,10,4,8,4,0
1558434638250011,-2,-1,3,-1,-2,-3,-5,-1
1558434638250011,0,-2,-1,-3,-6,-1,-5,-6
1558434638258028,-4,-3,-5,2,-4,2,4,-3
1558434638258028,2,3,4,5,13,1,3,4
1558434638272996,1,1,1,-1,1,-6,-2,-2
1558434638272996,-3,-4,-8,-10,-8,-1,-3,-1
1558434638279970,-1,2,1,-4,0,-1,-9,-4
1558434638279970,-3,-7,-7,-6,-5,-1,-2,-3
1558434638295831,0,1,2,10,-3,2,-1,0
1558434638295831,1,2,-8,-6,7,3,2,5
1558434638296829,1,2,6,17,2,-2,2,0
1558434638296829,-7,-8,-10,-35,-15,-3,-3,-5
1558434638309895,1,2,5,10,6,2,-2,0
1558434638309895,3,5,1,1,-5,-6,1,-1
1558434638317868,-3,-4,-4,-6,0,-2,4,4
1558434638317868,-2,1,1,8,7,5,-1,0
1558434638332731,2,-1,5,2,1,1,1,-1
1558434638332731,1,0,5,11,9,3,-3,-1
1558434638339784,-2,-3,-2,-11,-4,3,-1,-3
1558434638339784,0,-2,-2,7,0,-7,-1,-2
1558434638355740,-2,-4,-11,-16,-10,-2,-3,-1
1558434638355740,1,2,9,9,6,5,0,-11
1558434638356669,-4,-7,-13,-6,-23,-13,-10,-6
1558434638356669,0,1,4,2,7,-5,1,1
1558434638371629,-1,3,4,7,10,7,3,4
1558434638371629,-4,-4,-10,-9,-5,-7,-4,3
1558434638377613,0,0,1,-2,-6,-6,-6,-6
1558434638377613,2,1,-4,-3,5,12,6,2
1558434638392572,-3,-1,0,3,0,-4,-2,1
1558434638392572,1,-1,3,3,5,7,4,4
1558434638400551,3,-2,-1,-6,0,-1,1,2
1558434638400551,0,-1,2,-1,-16,-12,-11,-5
1558434638415708,0,1,1,1,10,12,12,4
1558434638415708,-2,-5,-10,4,-3,4,1,-3
1558434638416507,-1,4,-2,-3,0,-4,-1,2
1558434638416507,-3,-8,-3,-10,-3,-2,-2,-2
1558434638430568,-5,-5,2,-3,-13,-13,-15,-10
1558434638430568,0,3,1,-2,-1,-2,4,3
1558434638437454,2,3,-2,7,11,7,4,2
1558434638437454,-4,-2,-4,-19,-10,-4,-9,-6
1558434638452608,0,0,-2,4,4,5,0,-1
1558434638452608,-2,-2,4,-1,0,-4,2,2
1558434638460393,-1,3,-3,5,-1,-8,-2,1
1558434638460393,-2,-2,5,11,1,2,0,-4
1558434638475469,1,-2,-7,-16,-8,-4,-2,-1
1558434638475469,-4,-4,-7,-3,-5,-6,-8,-4
1558434638476349,-1,0,6,0,5,5,2,-2
1558434638476349,-2,1,-6,-2,-13,-3,-1,0
1558434638490433,1,1,6,16,14,10,4,2
1558434638490433,-1,-2,0,-10,-4,-4,-5,-2
1558434638497410,-3,-5,-5,-12,-6,-4,-3,-2
1558434638497410,1,1,0,4,2,-2,-5,0
1558434638512332,1,2,4,7,-4,-2,3,1
1558434638512332,0,-2,-9,-8,7,9,5,2
1558434638520280,1,1,6,13,10,5,1,1
1558434638520280,2,2,-5,-7,-2,-6,1,1
1558434638535223,-4,-1,7,-1,1,-4,-1,-3
1558434638535223,-2,-1,2,9,-9,-7,-6,-5
1558434638536188,-6,-12,-12,-12,-9,-3,-1,-2
1558434638536188,2,2,1,-6,0,-1,2,2
1558434638550183,-3,-1,-6,-1,1,0,-4,0
1558434638550183,2,5,7,-6,6,13,5,2
1558434638557169,-3,-4,-6,0,1,-2,-4,-3
1558434638557169,-1,-1,-6,-6,2,1,3,4
1558434638572131,-2,-1,4,13,-6,-6,-7,-9
1558434638572131,-2,-5,-9,-13,-14,-7,-7,-3
1558434638580104,-1,-2,-5,-15,-8,-6,1,-4
1558434638580104,2,2,6,4,12,6,7,2
1558434638595033,-3,-2,-1,3,-2,0,0,4
1558434638595033,-3,0,1,11,0,-5,-5,-2
1558434638603041,1,-2,2,-4,-5,2,2,-1
1558434638603041,-4,-2,0,7,-5,-6,-5,-4
1558434638609996,2,1,0,-3,-1,-7,-2,-1
1558434638609996,-4,-4,-4,-14,-13,-5,-1,-3
1558434638617973,2,3,5,12,17,11,4,3
1558434638617973,-2,0,0,11,1,4,-3,-3
1558434638632949,1,-1,-7,-11,1,6,-1,2
1558434638632949,0,3,3,-9,6,-1,4,0
1558434638647892,-3,-6,2,-4,-13,-12,-5,-3
1558434638647892,-3,-2,-3,0,-1,4,-2,-3
1558434638654925,1,1,-3,-4,2,-7,-1,3
1558434638654925,-2,-1,-5,9,0,-11,-2,1
1558434638662882,1,0,5,7,8,9,3,2
1558434638662882,0,1,2,3,1,1,1,0
1558434638669881,-2,-5,-11,-17,-9,-5,-5,-4
1558434638669881,0,1,2,-9,-5,-10,-7,-3
1558434638677825,3,2,0,5,-7,-6,4,3
1558434638677825,-4,-5,-6,-11,-1,1,-3,0
1558434638692823,-2,-3,-1,4,2,5,-1,-4
1558434638692823,0,-1,1,-3,-5,-5,-6,-4
1558434638699801,-1,-3,-5,-3,5,1,-1,-1
1558434638699801,0,-2,-1,8,1,1,-1,1
1558434638714760,1,3,-1,-2,0,2,2,2
1558434638714760,-3,-2,-4,4,-1,-7,-4,-3
1558434638723709,-3,0,3,5,-6,-4,-4,-8
1558434638723709,-4,-5,-6,-15,-5,1,3,-4
1558434638729723,-1,1,13,22,12,2,4,2
1558434638729723,-3,-4,-10,-15,-8,3,2,-1
1558434638737681,1,0,-4,-8,-9,-8,-3,3
1558434638737681,3,2,6,10,11,0,4,6
1558434638752660,-4,-1,-5,2,-12,-8,-4,-4
1558434638752660,0,2,0,10,9,1,3,4
1558434638759647,-2,5,2,0,3,5,0,-1
1558434638759647,-5,-6,-1,-5,-10,-5,-5,-5
1558434638774605,-2,-6,-9,-10,1,1,-1,-2
1558434638774605,1,-1,3,1,1,4,-1,-2
1558434638783559,-2,-1,-3,-4,-9,-9,-6,-2
1558434638783559,1,0,-1,0,0,-5,-2,-2
1558434638798520,1,3,10,9,9,7,7,2
1558434638798520,1,0,-3,2,0,3,2,1
1558434638798520,-4,-6,-10,-9,-4,-4,-4,-3
1558434638798520,-2,1,7,6,0,1,1,-2
1558434638812451,-2,-5,-12,-12,-14,-15,-9,-2
1558434638812451,0,2,11,16,7,4,2,2
1558434638820459,1,0,3,-1,5,3,2,-2
1558434638820459,-2,-1,-14,-5,-7,-12,-7,-5
1558434638843367,-2,-4,-2,-12,-4,0,-1,-4
1558434638843367,1,-1,3,19,0,4,-1,0
1558434638844364,0,-5,-11,-31,-10,-1,-1,-1
1558434638844364,2,-3,2,1,4,7,6,3
1558434638858356,-1,1,-3,-5,1,-3,3,4
1558434638858356,-5,-5,-2,-4,-7,-5,-5,-5
1558434638859354,-1,1,-3,13,5,3,-2,-4
1558434638859354,-2,-2,1,-7,-4,0,-1,0
1558434638872465,-1,-3,-6,-8,-2,6,2,0
1558434638872465,1,0,5,0,6,3,3,1
1558434638880302,-3,-1,-1,4,-3,-9,-3,-2
1558434638880302,-2,0,-1,-3,-4,-4,-2,-1
1558434638895227,1,2,6,5,4,6,4,-2
1558434638895227,-1,-3,-17,-7,1,2,2,2
1558434638903410,0,-1,6,3,5,-3,0,1
1558434638903410,-2,1,-8,-8,-1,5,3,-1
1558434638918374,-5,-3,0,-4,-13,-9,-6,-4
1558434638918374,-2,1,4,4,1,0,0,1
1558434638919164,-1,0,1,0,-5,-2,-4,-2
1558434638919164,1,-2,-4,7,0,0,-1,1
1558434638932242,3,3,5,0,13,8,4,3
1558434638932242,-1,-5,-7,-15,-3,-7,-1,-4
1558434638940193,-1,1,0,7,-2,4,1,2
1558434638940193,-5,-3,-4,-4,-9,-12,-9,-7
1558434638955104,0,4,8,17,8,1,-1,1
1558434638955104,0,-1,-4,-9,7,7,6,2
1558434638963078,3,-2,3,-1,0,-5,-1,2
1558434638963078,-1,-4,-3,-3,-10,-5,-4,-5
1558434638978006,-1,-4,-4,-4,-1,2,-2,-3
1558434638978006,-6,0,2,4,0,2,0,-1
1558434638979008,1,4,5,10,6,1,1,3
1558434638979008,0,0,-5,-8,-7,-6,-5,-1
1558434638993004,-1,-2,-3,-5,0,2,-2,0
1558434638993004,-1,-3,-1,0,-2,-8,-5,-4
1558434638999980,-1,-7,-11,-24,-7,4,0,-1
1558434638999980,-1,1,1,-1,6,5,6,3
1558434639014940,2,0,3,12,7,1,3,3
1558434639014940,-4,-5,-6,-9,-14,-4,-5,-3
1558434639022923,0,1,4,11,6,5,3,-1
1558434639022923,2,3,4,7,12,4,-1,3
1558434639037882,-4,0,-3,-17,-16,-10,-10,-11
1558434639037882,-1,0,-3,-3,0,2,2,2
1558434639038847,1,2,6,22,7,-3,1,-2
1558434639038847,2,2,6,-2,7,8,4,3
1558434639052806,2,-1,5,7,1,-3,-1,2
1558434639052806,-1,-4,-3,-5,-10,-12,-9,-2
1558434639059794,-5,-3,-9,-10,-6,1,-2,-2
1558434639059794,0,2,3,8,6,6,3,0
1558434639074746,-3,0,-3,-3,-4,-4,-6,-3
1558434639074746,0,3,10,11,9,9,7,1
1558434639082814,2,1,-6,-6,6,3,4,4
1558434639082814,0,-4,-6,-9,-3,-1,0,0
1558434639098685,0,-1,-4,-8,-17,-13,-4,-3
1558434639098685,-1,2,4,7,2,-3,-4,-3
1558434639098685,-6,-2,-7,-10,-10,-8,-2,-2
1558434639098685,-1,-6,1,-3,6,7,4,0
1558434639112647,1,2,0,6,-1,-9,-1,2
1558434639112647,1,3,5,8,2,-1,0,-1
1558434639119714,-1,-4,-11,-10,-4,-2,-3,-3
1558434639119714,-2,-1,-3,3,-1,-2,-5,-2
1558434639134675,-1,-3,2,-1,2,5,3,2
1558434639134675,-1,-1,5,14,6,7,-1,-1
1558434639142593,-1,-2,-1,-8,-2,-2,-3,-1
1558434639142593,3,2,-4,-1,-6,-11,1,2
1558434639158522,-2,-2,1,2,5,9,1,-4
1558434639158522,-4,-3,-12,-12,-15,-7,2,-2
1558434639158522,-1,-2,6,9,12,10,-1,-2
1558434639158522,-1,-2,2,-6,-6,-11,-6,-5
1558434639172487,1,-1,-2,-4,-1,-4,-4,-1
1558434639172487,-2,-1,4,7,-3,-5,-7,-4
1558434639180465,1,5,-3,0,4,10,4,5
1558434639180465,-1,-2,-10,-18,-9,-7,-1,0
1558434639195643,1,0,1,2,6,0,4,2
1558434639195643,0,-2,-8,-17,0,0,-2,-2
1558434639202626,-3,2,-3,6,-6,-4,-4,-4
1558434639202626,-2,-1,11,11,-3,-1,-3,-3
1558434639218583,-2,-7,-10,-9,-4,-4,-4,-2
1558434639218583,0,-3,-5,-11,-5,-5,-4,1
1558434639219556,0,-1,4,8,2,1,3,1
1558434639219556,0,1,-2,-2,0,8,2,-3
1558434639232635,-3,-2,-4,-2,-3,-3,-4,-3
1558434639232635,-1,-4,-1,5,0,-2,-3,2
1558434639240531,0,-1,1,-10,-13,-10,-8,-5
1558434639240531,0,0,1,3,3,1,-5,-1
1558434639255500,1,2,2,6,3,3,5,3
1558434639255500,-2,1,-1,6,6,3,4,0
1558434639262525,-3,-5,3,0,-1,-5,-2,-4
1558434639262525,-4,-1,2,-6,-3,-1,1,4
1558434639278402,0,-2,-10,-7,6,5,3,3
1558434639278402,-1,-1,-3,-23,-4,-1,-1,0
1558434639278402,0,-1,2,11,0,0,-4,-5
1558434639278402,0,-4,4,16,6,-4,0,0
1558434639292449,1,6,3,-2,-9,-6,-1,-1
1558434639292449,2,-2,0,10,4,6,-1,0
1558434639300423,-4,-9,-11,-16,-11,-6,-3,-3
1558434639300423,-1,-3,-7,-8,0,-2,2,-2
1558434639315384,-5,-2,-1,6,1,5,2,-2
1558434639315384,-1,0,3,3,0,-3,-2,1
1558434639322370,-1,0,1,-3,-1,3,-2,-3
1558434639322370,0,0,-2,9,0,-6,-4,0
1558434639346351,2,2,6,5,4,1,1,5
1558434639346351,0,-1,-4,-5,-3,0,2,0
1558434639347319,-3,-2,-1,-5,-5,-6,-7,1
1558434639347319,-3,-3,-5,-9,-10,-3,-3,-4
1558434639352335,-3,-8,-2,6,1,-3,-5,-7
1558434639352335,2,4,6,7,10,8,8,6
1558434639360283,1,0,2,1,1,-4,0,4
1558434639360283,1,-2,-1,3,2,6,3,0
1558434639375280,-3,-3,-4,-7,-11,-7,-6,-7
1558434639375280,-2,0,-3,-8,0,-1,-3,-3
1558434639382257,0,1,3,5,-2,-3,1,1
1558434639382257,-3,-3,-6,-17,-3,-6,-6,-4
1558434639398215,-3,-3,-5,-2,-5,2,-3,-2
1558434639398215,2,-1,-2,-1,6,2,2,0
1558434639399182,2,4,9,9,15,12,7,3
1558434639399182,-3,-4,-7,-8,-11,-3,-3,0
1558434639412182,-4,-3,-4,-2,-10,-14,-5,-4
1558434639412182,-1,-2,-3,-3,-11,-10,-5,-7
1558434639420162,1,0,-1,1,5,4,4,1
1558434639420162,1,-1,3,15,9,5,-1,0
1558434639435116,0,1,-5,-22,4,4,2,2
1558434639435116,-3,-3,2,6,-2,-4,-8,-1
1558434639443062,-3,-3,-6,-5,-8,-2,-4,-6
1558434639443062,1,8,7,-1,-3,-5,-5,-2
1558434639458022,1,-3,1,7,-1,-2,0,3
1558434639458022,-3,-6,-11,-11,-10,-4,-6,-5
1558434639459019,4,-1,-7,-6,7,8,6,4
1558434639459019,0,0,0,4,5,5,2,-1
1558434639472981,-2,-1,3,1,1,-2,-5,-1
1558434639472981,-1,-1,0,0,-8,-1,-1,-2
1558434639479995,-1,-2,2,6,-4,-8,-5,-3
1558434639479995,-3,-3,-12,-10,-1,1,2,-2
1558434639494923,0,0,5,8,12,8,3,3
1558434639494923,-4,-1,-5,-13,-4,-1,1,-3
1558434639503121,-2,-1,1,3,-2,-4,-1,0
1558434639503121,1,2,6,4,-2,-1,0,0
1558434639518106,-1,-6,-5,-4,-7,-1,2,-1
1558434639518106,-2,-2,4,8,6,3,1,0
1558434639526310,-1,1,-4,-14,0,-3,-1,0
1558434639526310,-2,-3,4,4,-2,-5,-2,-1
1558434639533009,-3,-4,-11,-3,-7,-7,-5,-5
1558434639533009,2,4,-4,-12,3,6,3,1
1558434639549108,0,1,2,4,4,3,1,1
1558434639549108,-1,1,2,5,2,2,-1,1
1558434639555760,-4,-5,-2,-4,0,0,5,1
1558434639555760,-1,-4,-1,4,-10,-10,-3,-1
1558434639570993,-2,-3,-6,-2,-2,-4,-6,-4
1558434639570993,-2,-2,-4,-3,-1,3,1,0
1558434639577700,5,4,4,0,3,1,-1,3
1558434639577700,2,-2,-4,-3,2,4,2,0
1558434639585956,-1,-2,-1,7,-6,-5,-3,0
1558434639585956,-2,-3,-2,2,3,2,-2,-1
1558434639592930,0,-1,-7,-21,0,5,0,-4
1558434639592930,1,2,-1,-3,1,-4,2,1
1558434639600646,-3,-3,-4,-2,-6,-6,-4,-5
1558434639600646,1,-2,-3,-12,-8,-5,0,-4
1558434639614604,-1,2,3,3,1,2,-2,-1
1558434639614604,-3,1,3,6,8,4,1,2
1558434639622580,-2,0,1,0,-2,-3,0,-1
1558434639622580,-4,-7,-4,-3,-7,-7,-5,-2
1558434639646542,-2,-2,1,-2,-4,-6,-5,-1
1558434639646542,-1,-2,0,5,6,9,3,0
1558434639647513,1,1,-2,4,5,2,1,3
1558434639647513,3,3,-2,-10,-1,-4,-2,-1
1558434639653497,-2,-6,-1,-2,-1,4,0,-3
1558434639653497,-3,-1,-1,3,-8,-10,-6,-4
1558434639660480,-3,-4,-13,-8,-7,-4,-2,-2
1558434639660480,-3,-1,-10,-17,0,-1,-2,-2
1558434639675440,-1,2,1,14,-4,-2,-1,-2
1558434639675440,0,-3,2,1,3,7,1,-3
1558434639683418,-2,-2,2,2,0,0,-1,-2
1558434639683418,1,1,5,17,-2,-4,-4,4
1558434639706730,0,3,-1,-7,1,-2,2,4
1558434639706730,0,-1,8,15,3,-3,-3,0
1558434639707357,-1,-2,-5,-29,-10,0,-3,-3
1558434639707357,-3,-5,-10,-12,1,7,0,-6
1558434639721449,-1,0,-1,0,-2,-2,-3,-3
1558434639721449,-1,-2,-5,-9,-4,-5,-3,-2
1558434639721449,1,0,6,7,1,-4,-1,-1
1558434639721449,-4,-2,0,3,-2,4,0,-2
1558434639735581,0,0,-1,8,5,1,6,-1
1558434639735581,-1,2,0,-5,-3,-5,-1,4
1558434639742261,-1,-4,-7,1,0,3,2,1
1558434639742261,0,-1,9,-3,0,-2,-2,0
1558434639757221,1,1,-2,3,-2,-1,-2,-1
1558434639757221,-3,-3,-10,-22,-7,3,-1,-4
1558434639766197,0,1,1,2,2,-8,-4,-3
1558434639766197,-1,-9,-6,1,1,-1,2,1
1558434639780158,0,3,6,7,-1,-2,-1,2
1558434639780158,1,-3,-1,5,-1,-6,0,0
1558434639781157,-3,1,0,-12,-7,1,-1,-1
1558434639781157,-2,2,5,9,3,-1,-6,-4
1558434639795122,-5,-6,-9,-11,-4,-5,-2,-4
1558434639795122,-4,-4,-6,3,3,1,-1,-1
1558434639802100,0,3,1,-3,1,6,3,1
1558434639802100,2,2,2,-4,-1,0,0,0
1558434639817243,-3,-4,2,0,-8,-2,-4,-2
1558434639817243,1,1,-1,1,-3,-8,-1,-2
1558434639826264,-3,-2,2,15,7,-1,-4,-2
1558434639826264,1,-1,-5,-1,1,5,0,2
1558434639841113,-3,-2,-9,-20,-5,0,-1,-2
1558434639841113,-1,0,0,-1,-9,-11,-4,-3
1558434639841113,-1,2,7,7,10,7,2,0
1558434639841113,0,2,0,9,2,-2,1,-2
1558434639854959,-2,-7,1,2,4,1,0,-2
1558434639854959,2,-1,5,12,-4,-3,-3,1
1558434639862941,0,-4,-13,-29,-16,-11,0,-1
1558434639862941,0,3,2,7,7,1,2,0
1558434639877897,0,1,-1,4,-4,-2,-3,-4
1558434639877897,-3,-1,0,-1,2,2,-1,-2
1558434639885891,-1,-2,0,-1,-1,2,0,-1
1558434639885891,2,4,1,-2,2,1,7,3
1558434639900838,2,1,0,2,6,0,-2,-1
1558434639900838,1,-2,-1,2,0,1,-3,-1
1558434639901851,0,-1,2,5,-7,-10,-1,-1
1558434639901851,-4,-6,-7,-24,-4,3,4,-1
1558434639914799,3,4,8,10,8,5,3,3
1558434639914799,0,-2,-9,-17,-4,0,2,1
1558434639922784,0,-4,-2,1,4,2,-5,1
1558434639922784,0,1,4,10,-5,-6,-2,0
1558434639937913,-1,2,3,0,-7,-3,-4,0
1558434639937913,-2,0,3,4,4,1,-6,-6
1558434639945715,3,2,4,10,2,-8,-5,-3
1558434639945715,-1,-8,-12,-17,-10,1,3,2
1558434639960677,-4,-4,-2,6,3,5,0,-2
1558434639960677,0,-2,-3,-1,0,1,2,2
1558434639961679,-4,-3,1,-9,-2,0,-4,-3
1558434639961679,2,4,8,15,7,2,1,0
1558434639974772,-1,1,-5,-6,5,0,2,-1
1558434639974772,-6,-4,-9,-15,-11,-4,-5,-3
1558434639982751,3,5,10,19,10,7,5,3
1558434639982751,-1,-4,-7,-9,-5,-8,-7,-5
1558434639997706,0,-1,-2,-3,-7,-3,-5,-2
1558434639997706,2,6,14,30,9,2,2,1
1558434640005556,-4,-3,-16,-31,-12,0,0,-2
1558434640005556,-5,-4,-11,-8,-10,-7,-7,-3
1558434640020724,-1,-3,6,6,0,-4,-2,-1
1558434640020724,1,1,-9,-16,-1,3,3,0
1558434640021517,0,-6,8,12,6,-5,0,3
1558434640021517,-1,2,6,11,7,6,2,1
1558434640035475,-2,0,-8,-12,-18,-13,-9,-7
1558434640035475,0,-1,-7,-8,-6,-1,-1,-1
1558434640042459,2,5,10,18,10,4,2,-1
1558434640042459,-2,-4,-10,-18,-7,-4,0,-1
1558434640057416,-2,-7,-3,0,6,1,-1,-1
1558434640057416,3,2,3,5,7,3,0,2
1558434640065396,0,2,3,4,-3,2,1,2
1558434640065396,-3,4,9,18,5,-2,-5,-1
1558434640080546,-4,5,-2,-7,0,5,1,-1
1558434640080546,-1,-5,1,6,1,1,-2,-2
1558434640081355,-2,-2,-4,-6,-6,-9,-4,-5
1558434640081355,4,3,-1,5,2,-2,-1,-1
1558434640095323,-1,-5,-7,-5,-2,3,3,0
1558434640095323,-3,-6,-1,-7,0,-1,3,4
1558434640102299,-3,1,0,-2,-3,1,-3,-8
1558434640102299,2,-1,4,4,-3,-4,-5,-7
1558434640117370,-2,0,-1,-5,-2,-4,2,2
1558434640117370,-4,-5,-8,-6,4,1,-1,-3
1558434640126348,-2,-4,-5,2,-7,0,2,0
1558434640126348,-2,0,-2,-6,-1,-1,-4,2
1558434640140308,6,4,7,13,4,-1,2,4
1558434640140308,-3,-3,-8,-11,-7,-5,-5,1
1558434640141195,-3,1,-2,-1,-2,0,-2,-1
1558434640141195,-5,-2,-3,-7,-4,-2,-5,-6
1558434640155155,0,1,9,5,3,3,3,0
1558434640155155,0,0,1,-1,-1,1,0,-4
1558434640162138,-3,-6,-5,-6,-4,-5,-6,-5
1558434640162138,0,1,2,6,4,0,1,-1
1558434640177101,3,1,-1,4,8,4,-1,7
1558434640177101,-1,2,6,-7,-9,-1,1,-3
1558434640186074,-1,-3,-6,-4,4,6,1,-2
1558434640186074,1,-2,4,4,4,4,8,4
1558434640201039,-1,-1,0,1,0,-5,-2,-5
1558434640201039,-3,-4,-8,-5,-12,-11,-9,3
1558434640201039,-2,-4,-5,-3,-8,-5,-4,-5
1558434640201039,0,2,-3,-4,4,1,0,1
1558434640214995,-1,0,2,5,0,3,-1,0
1558434640214995,-1,-3,7,13,7,2,2,-3
1558434640222975,-2,-3,-8,-10,-13,-10,-6,-2
1558434640222975,-1,-2,-3,-7,-2,-3,0,-1
1558434640237934,-3,-5,-6,-6,-1,-2,-5,-4
1558434640237934,-1,1,3,3,7,1,-2,0
1558434640244916,1,-1,1,2,-1,2,8,7
1558434640244916,-1,0,-7,-5,-3,-3,-2,-6
1558434640260879,1,1,1,2,-3,-2,-2,-1
1558434640260879,-1,1,-1,-1,4,3,1,-3
1558434640261879,0,1,4,4,6,2,-2,3
1558434640261879,-2,-3,0,-3,-8,-6,-7,-1
1558434640274835,-2,-3,-6,-16,-8,-7,-2,-2
1558434640274835,-1,-2,-5,-11,-7,-5,0,-1
1558434640282889,2,4,3,7,6,4,4,2
1558434640282889,0,-3,-1,2,-1,2,-1,-2
1558434640297776,-3,-2,0,0,-4,1,-5,-2
1558434640297776,2,3,0,8,9,3,6,9
1558434640304756,-1,0,-1,-3,3,-9,-6,-10
1558434640304756,-1,0,5,-1,-7,3,5,2
1558434640320712,-2,-1,-4,-4,1,1,-2,0
1558434640320712,1,-2,-3,-1,-12,-9,0,-1
1558434640321713,-2,-3,-11,-5,0,2,1,2
1558434640321713,-2,-2,-3,-3,-6,-6,-2,1
1558434640334880,-1,0,-2,0,-3,-6,-11,-7
1558434640334880,-2,-1,1,-8,-5,-1,-5,-5
1558434640342655,-1,0,6,20,9,2,2,7
1558434640342655,1,2,5,0,3,4,-2,3
1558434640357614,1,6,4,7,4,3,0,0
1558434640357614,-1,-2,-8,1,7,0,3,-4
1558434640364595,-8,-13,-14,-21,-10,-2,-2,-5
1558434640364595,0,-2,7,24,6,4,-1,-2
1558434640380732,1,-6,-6,-13,-9,-1,4,1
1558434640380732,0,1,8,4,-8,-10,-9,-3
1558434640381550,2,1,-1,2,3,2,5,2
1558434640381550,1,0,-3,-2,2,-4,2,4
1558434640394515,0,1,0,7,-2,-3,0,-2
1558434640394515,-2,-1,5,21,0,-1,-2,-3
1558434640402664,-3,-4,-15,-46,-23,-7,-8,-8
1558434640402664,-2,2,4,5,2,7,2,-2
1558434640417622,-2,-2,-7,-9,12,3,2,0
1558434640417622,-3,-4,0,1,-7,-8,-10,-5
1558434640425575,-1,1,4,3,4,6,3,2
1558434640425575,-1,0,-6,-16,-5,-1,2,1
1558434640440643,-4,-7,-3,-1,2,1,-1,-1
1558434640440643,-2,-3,-1,1,-3,2,3,4
1558434640441390,-1,-2,0,-1,-5,-12,-8,-9
1558434640441390,-4,-3,-4,-9,-5,-4,0,-5
1558434640463332,2,1,1,1,3,7,11,5
1558434640463332,-3,0,-1,-8,-4,-3,-12,-5
1558434640464331,-2,2,9,19,4,3,4,7
1558434640464331,-2,-5,-17,-12,-8,-3,-7,-7
1558434640477299,-1,2,5,9,-7,-14,-9,-3
1558434640477299,4,1,2,-6,17,12,10,5
1558434640485275,4,4,-1,-1,4,7,-1,-1
1558434640485275,-2,-4,-4,1,2,2,1,-3
1558434640500232,2,-3,7,10,2,-1,2,3
1558434640500232,0,0,-4,-14,-2,-2,-6,-5
1558434640508347,0,1,6,8,-4,-5,-4,1
1558434640508347,-2,0,6,9,-2,0,-2,-2
1558434640515193,0,1,-2,-3,-7,-4,-6,-5
1558434640515193,-2,0,-5,1,2,4,4,-1
1558434640522175,0,-4,-4,-5,6,3,-1,0
1558434640522175,-2,-1,5,2,-1,-11,-7,-7
1558434640537270,-4,-3,-7,-15,-5,9,8,1
1558434640537270,-2,2,4,5,1,-3,-1,-4
1558434640545116,-3,-6,-14,-2,-2,1,-1,-3
1558434640545116,2,1,-1,-12,-4,-1,0,6
1558434640560072,-1,-1,-3,-2,-1,-10,-5,4
1558434640560072,-1,0,5,3,-8,3,2,-1
1558434640568264,1,4,6,4,13,7,3,2
1558434640568264,-3,-1,-7,1,-3,-4,-1,0
1558434640575034,-2,-7,-1,0,-4,-2,3,-1
1558434640575034,2,0,-4,-11,-6,-6,-3,-1
1558434640583107,0,1,16,20,-8,-5,0,0
1558434640583107,-2,-1,-5,-7,9,5,-4,-4
1558434640598012,-1,-1,-1,6,5,3,-3,2
1558434640598012,0,-2,0,9,1,-1,2,-1
1558434640605095,-1,-2,-6,-16,-16,-7,-4,-4
1558434640605095,-3,-3,4,-1,-4,-3,-4,-6
1558434640619912,-1,0,-2,9,7,4,-1,-1
1558434640619912,1,0,-4,-4,-2,-12,-4,6
1558434640627891,-1,2,20,29,8,3,3,0
1558434640627891,-3,-8,-26,-35,-11,1,0,0
1558434640642851,-4,-5,-4,-5,-10,-9,-6,-7
1558434640642851,-1,-1,2,6,8,13,8,1
1558434640643848,-3,-2,-8,-17,-6,-11,-11,-7
1558434640643848,-1,0,-1,21,3,1,-1,2
1558434640657810,-3,-5,-21,-36,-14,-5,-4,-4
1558434640657810,-4,-3,-6,-9,-13,-10,-6,-5
1558434640664798,-4,-3,-6,-3,-11,-15,-1,1
1558434640664798,3,1,11,14,19,7,5,4
1558434640679752,0,2,10,11,-2,-6,-5,-3
1558434640679752,-4,-4,-3,-11,-14,-5,-5,-5
1558434640687732,1,-3,-10,-19,5,13,5,-1
1558434640687732,1,4,9,25,3,-9,-7,1
1558434640702705,-1,-7,12,27,16,13,3,0
1558434640702705,-4,-4,-10,-26,-12,-3,-5,-8
1558434640703688,-2,-1,-1,3,-10,-7,-1,0
1558434640703688,2,4,8,13,5,2,4,3
1558434640717650,0,4,0,-10,-4,-1,-4,-4
1558434640717650,1,2,14,34,18,13,6,4
1558434640724633,-1,-5,-15,-28,-1,8,1,4
1558434640724633,-2,-3,-1,-3,-2,-4,-2,-4
1558434640739592,1,4,-4,-8,-6,-5,-1,0
1558434640739592,-3,-1,5,8,0,-1,0,-4
1558434640748570,2,0,-2,12,6,0,-5,-5
1558434640748570,-3,-6,-5,-20,-21,-5,-1,-2
1558434640763535,-1,-2,5,-4,7,-1,-1,-1
1558434640763535,-1,-1,-29,-33,-10,-2,3,4
1558434640763535,2,2,4,3,8,3,2,4
1558434640763535,-3,-5,4,5,-2,-13,-5,-1
1558434640778492,3,3,8,17,3,3,7,4
1558434640778492,1,-1,-2,12,18,14,5,6
1558434640785471,-6,-5,0,6,-8,-8,-7,-12
1558434640785471,0,0,-5,-8,-1,2,2,-2
1558434640800430,-2,2,-4,-18,-14,-3,0,2
1558434640800430,2,6,10,18,17,10,2,2
1558434640808408,-5,-6,-5,-6,-9,-9,-6,-2
1558434640808408,-3,-8,8,12,6,5,0,-5
1558434640823377,-3,-5,-16,-15,-11,-9,0,-4
1558434640823377,-5,-7,-7,-9,-14,-12,-10,-7
1558434640824367,3,6,5,5,3,-1,2,3
1558434640824367,3,6,6,11,15,11,5,6
1558434640837337,0,-1,4,8,-2,1,-1,1
1558434640837337,-2,-4,-2,-4,-8,-7,0,-1
1558434640845312,-3,-5,-10,-9,3,4,-1,-3
1558434640845312,-3,1,-2,-7,-6,-3,-2,2
1558434640860271,0,0,4,16,4,2,-2,-6
1558434640860271,1,0,3,-9,-1,-4,0,2
1558434640868258,1,0,5,10,3,2,-1,-4
1558434640868258,0,-4,-12,-31,-14,-7,-5,-6
1558434640883215,1,-1,2,9,6,0,-1,2
1558434640883215,0,0,7,0,4,2,2,1
1558434640884207,-5,-5,-22,-16,-9,-3,0,0
1558434640884207,-1,3,0,4,0,1,-3,-6
1558434640897171,-4,-7,-2,0,3,-3,0,5
1558434640897171,-1,-1,4,-5,-1,0,-2,-3
1558434640905156,-1,-2,9,0,3,4,0,3
1558434640905156,-2,-1,-3,10,2,-2,0,0
1558434640920113,-2,-1,-8,-17,-5,-4,-2,-5
1558434640920113,-1,-1,0,-3,-13,-4,-1,-3
1558434640928089,0,1,3,11,7,6,5,5
1558434640928089,0,1,-1,-3,3,4,2,-1
1558434640943063,-2,-3,4,3,2,1,-4,-1
1558434640943063,-2,-4,-3,1,7,-1,-2,1
1558434640944049,3,3,1,4,-9,-8,-3,-2
1558434640944049,2,2,2,3,8,8,3,0
1558434640957018,-2,-5,-6,-14,-3,-2,-1,3
1558434640957018,1,9,-10,-3,-7,-7,-6,-12
1558434640964989,0,-2,13,-2,-1,-2,7,4
1558434640964989,-5,-3,-7,-4,-11,-7,-7,-2
1558434640979949,-1,3,8,17,5,1,-1,-5
1558434640979949,0,0,-2,-12,-1,-1,-3,1
1558434640987935,-1,-2,-1,-11,0,0,2,2
1558434640987935,0,-1,0,-4,-9,-4,1,2
1558434641002894,1,1,-2,-5,3,7,1,0
1558434641002894,0,1,4,16,3,-5,-5,-1
1558434641003890,0,2,0,-6,2,-1,-2,-2
1558434641003890,-2,-5,5,6,-6,-4,0,1
1558434641017848,-1,-3,-16,-17,-12,-5,0,-2
1558434641017848,1,-1,5,4,1,-1,3,2
1558434641024835,1,1,-4,-1,1,2,-3,-1
1558434641024835,0,-2,1,0,1,-5,-4,-3
1558434641039789,1,1,0,3,-3,-2,-2,-3
1558434641039789,-1,-4,0,-7,2,4,4,1
1558434641047769,-6,-6,-8,-22,-15,-8,-3,-2
1558434641047769,-1,-2,-4,-4,-3,-2,0,1
1558434641062733,-3,-3,-2,3,0,-1,-1,-6
1558434641062733,2,-1,1,4,2,3,2,2
1558434641070707,0,-2,2,18,8,2,-6,-2
1558434641070707,-7,-5,-8,-24,-9,-4,-1,-8
1558434641077689,-1,-1,1,7,6,-1,0,-3
1558434641077689,0,-3,-5,-2,2,4,-1,0
1558434641084669,0,2,5,13,2,1,2,1
1558434641084669,1,3,0,8,5,0,-2,8
1558434641099633,-1,2,-1,5,-4,-7,1,-5
1558434641099633,-4,-2,-2,-16,-5,1,-7,-9
1558434641108605,1,-2,-2,-2,-8,-1,6,5
1558434641108605,1,-2,1,8,18,12,-3,-6
