timestamp,emg1,emg2,emg3,emg4,emg5,emg6,emg7,emg8
1558434724169765,-1,0,-5,-14,-5,-3,2,-1
1558434724169765,-1,-3,-7,-8,-5,-3,-3,-1
1558434724169765,0,-1,7,10,0,-5,-2,-1
1558434724169765,1,0,-11,-17,-1,1,2,0
1558434724170763,-1,-1,0,7,4,4,-1,0
1558434724170763,0,-1,2,1,-1,1,1,-1
1558434724171760,-1,-1,-4,-3,-4,-6,-3,-3
1558434724171760,-1,-1,3,7,3,1,1,0
1558434724190710,-1,-2,-1,-1,-9,-7,-4,-2
1558434724190710,-1,-1,-4,-3,-2,2,-1,0
1558434724191708,2,0,0,-3,1,-5,-1,3
1558434724191708,-2,-3,5,11,-7,-5,-4,-4
1558434724200683,1,2,1,-5,16,8,1,1
1558434724200683,-3,-2,-4,0,-4,0,2,-3
1558434724212650,-1,0,1,-1,2,4,1,1
1558434724212650,0,1,-3,7,-1,-5,-3,1
1558434724229605,-1,-2,-1,1,-4,-4,-3,0
1558434724229605,0,2,6,4,3,1,1,-1
1558434724230602,-1,0,-3,-5,-6,1,-2,-2
1558434724230602,-1,-2,3,6,2,-1,-3,-1
1558434724243568,0,0,0,-5,0,2,2,-1
1558434724243568,-1,-2,-8,-5,2,-1,-2,1
1558434724250550,-5,-5,-3,-4,-7,-3,-4,-6
1558434724250550,-1,0,3,8,1,-7,-4,-1
1558434724258528,-3,-1,-3,-6,-1,1,1,-2
1558434724258528,-1,0,-3,-6,5,4,1,1
1558434724296428,-1,-1,-2,-3,-2,-2,0,-2
1558434724296428,1,0,0,-6,-2,0,-2,0
1558434724303409,-2,-1,2,11,7,0,1,2
1558434724303409,-1,0,-4,-4,-6,-1,0,-1
1558434724304405,0,-2,-1,-5,-1,2,0,-1
1558434724304405,-2,1,1,5,-5,-9,-3,-3
1558434724305403,-4,-2,-1,-4,-4,-1,-4,-6
1558434724305403,-3,-6,-6,-8,-1,2,-3,-2
1558434724318369,2,1,3,12,13,8,7,5
1558434724318369,-1,-2,-6,-9,4,4,4,0
1558434724324352,-2,0,-1,-7,-6,-4,-4,-1
1558434724324352,-2,1,0,2,-3,-7,-3,-2
1558434724332331,-2,-4,-6,-4,-9,-5,-6,-5
1558434724332331,-3,-1,-3,-5,-2,-2,-4,-1
1558434724347290,0,0,4,14,2,6,4,1
1558434724347290,3,0,-4,-21,11,6,6,3
1558434724355269,-2,1,4,9,-2,-6,-3,-1
1558434724355269,0,-2,0,6,1,-1,-2,-1
1558434724362251,-2,-2,-4,-5,-5,-4,-1,-3
1558434724362251,-1,0,4,8,-3,-4,-7,-3
1558434724377211,-3,1,1,0,-4,0,0,-1
1558434724377211,-2,-4,-5,-8,-1,2,3,-1
1558434724386187,3,0,-1,-2,7,8,7,2
1558434724386187,-2,-3,-3,3,-2,-2,0,-3
1558434724392171,-2,-3,-7,-13,-3,-4,-6,-2
1558434724392171,-3,-3,1,10,-9,-11,-5,-3
1558434724407140,-1,-1,-2,-15,-5,-8,-3,0
1558434724407140,-2,1,2,3,3,2,0,0
1558434724415109,-1,-2,-1,-8,-6,-8,-8,-2
1558434724415109,3,3,0,5,11,15,7,4
1558434724422091,-2,-1,-2,4,3,1,0,0
1558434724422091,-3,-1,3,2,-4,-2,0,-2
1558434724438048,-4,-2,-6,4,-4,1,-1,-3
1558434724438048,-2,-1,-4,-13,-7,-10,-4,-3
1558434724445029,-1,-3,-1,-2,-3,-6,-4,-1
1558434724445029,0,-3,-2,2,-7,-5,-5,-2
1558434724452011,0,-1,5,10,3,4,2,-1
1558434724452011,1,-1,-6,-10,3,8,2,2
1558434724466971,-2,-1,-6,-7,-2,-2,1,-2
1558434724466971,0,0,1,0,-5,-5,-2,-1
1558434724474950,-1,-1,2,6,1,-4,-4,-3
1558434724474950,-1,-2,-1,-10,-7,-4,-4,-1
1558434724481931,0,-1,-1,5,2,0,-1,-1
1558434724481931,0,0,1,9,7,7,4,1
1558434724497889,2,1,-2,-12,-2,-3,2,0
1558434724497889,-3,-3,4,14,-4,0,-4,-1
1558434724504868,-1,-1,-6,-8,-3,-1,-3,-2
1558434724504868,1,2,-1,-3,7,7,4,3
1558434724511850,-4,-6,-11,-10,-8,-8,-4,-4
1558434724511850,0,0,5,12,8,2,-2,-1
1558434724526810,-3,-1,1,-3,0,-2,2,0
1558434724526810,-1,1,-2,5,-5,-1,-2,-2
1558434724535786,1,0,3,-9,-1,-3,-4,-3
1558434724535786,0,-1,-4,-6,1,-1,4,0
1558434724541771,0,-2,-1,6,-5,0,-2,-1
1558434724541771,-3,-2,-1,-1,-8,-6,-2,-4
1558434724557728,0,1,-2,2,2,7,3,3
1558434724557728,-4,-3,-10,-4,-4,-5,-4,-4
1558434724564709,1,1,0,-4,2,4,3,3
1558434724564709,-1,-2,-5,-1,2,-5,-1,-1
1558434724571690,-1,-1,5,0,-6,-4,-4,-1
1558434724571690,-1,1,5,11,-2,-3,-2,-4
1558434724587648,-3,-2,-2,7,-2,-3,-4,-5
1558434724587648,-2,-2,-2,-13,-10,-2,-4,-1
1558434724595627,2,2,2,-7,13,16,10,5
1558434724595627,-1,-2,-10,-19,-3,-7,-1,-1
1558434724609589,2,0,-4,-2,-5,-6,-3,-2
1558434724609589,-2,0,2,4,2,-1,-4,-3
1558434724617569,-2,0,1,7,-1,0,0,-1
1558434724617569,2,-1,1,4,-2,4,-2,-1
1558434724624550,0,-1,-3,-8,-1,-7,-3,-2
1558434724624550,1,1,0,-5,4,1,1,2
1558434724632527,-2,-1,1,4,-5,-5,-1,-2
1558434724632527,-3,0,3,4,-7,-4,-4,0
1558434724647487,-2,-2,0,2,-1,-1,-1,0
1558434724647487,0,-2,3,0,-1,3,2,-1
1558434724655466,-1,0,-2,2,3,0,1,-1
1558434724655466,1,3,0,0,9,8,4,0
1558434724669429,0,-1,-2,3,-3,-1,-1,-1
1558434724669429,0,-2,-4,-2,0,-1,0,-1
1558434724678405,-2,-3,-2,0,-8,-11,-6,-2
1558434724678405,0,1,3,1,2,0,0,0
1558434724684389,0,1,1,-11,2,1,1,2
1558434724684389,-5,-1,3,8,0,-2,-2,-2
1558434724692368,-1,1,6,10,3,4,-1,1
1558434724692368,-3,-4,-11,-18,-9,-4,-2,-2
1558434724707329,-2,-3,3,4,-4,-3,1,-3
1558434724707329,2,-1,-6,-3,0,-4,-4,-2
1558434724714311,1,0,-1,4,6,3,0,1
1558434724714311,1,1,5,8,3,0,0,-1
1558434724729268,0,-2,-7,-8,-5,2,0,-2
1558434724729268,-1,-1,2,5,9,6,3,2
1558434724738244,0,0,-2,-4,-1,-7,-2,-3
1558434724738244,-1,-3,-3,-6,-8,-10,-4,-3
1558434724744228,-1,0,-2,5,4,1,-1,-1
1558434724744228,-1,2,5,5,2,5,2,1
1558434724752208,-4,-6,-17,-23,-8,1,-1,0
1558434724752208,1,3,6,-1,3,-2,1,0
1558434724767167,-2,-3,-6,-5,-8,-3,-4,-4
1558434724767167,-1,1,0,0,3,2,0,2
1558434724775148,0,0,1,-5,-6,-5,-2,0
1558434724775148,-2,-3,0,8,-2,0,-2,-1
1558434724791111,0,-1,1,0,-1,-4,-5,-3
1558434724791111,-2,0,3,-5,-7,-8,-3,-1
1558434724798085,2,3,2,8,8,7,6,4
1558434724798085,-3,-6,-16,-13,0,1,1,1
1558434724805066,0,0,5,4,5,-1,-2,1
1558434724805066,-4,-3,-3,1,-7,-5,-5,-5
1558434724812047,-2,-1,-1,-14,-8,-3,-1,-5
1558434724812047,0,2,5,10,6,5,-1,0
1558434724827008,-2,1,-2,0,-3,3,2,-1
1558434724827008,0,-4,-2,1,1,-2,1,2
1558434724834986,-6,-4,-1,5,-4,-6,-3,-5
1558434724834986,-3,-2,-1,-8,-8,-3,-1,-1
1558434724849947,0,1,4,4,7,7,2,0
1558434724849947,0,-3,-2,-5,-2,-1,-2,-4
1558434724857925,-1,-4,-5,-8,-4,3,0,0
1558434724857925,-2,-2,0,1,-1,-4,-4,-1
1558434724872885,-2,2,2,2,-1,-3,0,3
1558434724872885,1,2,-3,9,5,0,-3,0
1558434724873881,7,2,-3,-15,-5,1,0,-1
1558434724873881,-2,-6,-5,-7,-8,-4,-2,-4
1558434724886846,0,0,-1,-4,-2,-1,-2,0
1558434724886846,-1,0,-2,2,11,4,2,0
1558434724894826,-3,-2,1,12,-3,-6,-5,-2
1558434724894826,-2,-1,-2,-8,-8,-3,-3,-3
1558434724909786,-2,-3,-6,-8,2,4,0,-1
1558434724909786,1,2,-3,-4,0,3,6,2
1558434724917765,0,4,9,17,8,-2,-4,0
1558434724917765,-1,1,6,15,-2,-1,-1,-1
1558434724924746,-2,-5,-8,-16,-8,-3,-1,1
1558434724924746,-2,-4,0,-1,-5,-5,-2,-8
1558434724940703,-3,-2,-3,2,1,-1,0,-2
1558434724940703,-1,1,1,-7,2,-2,-1,0
1558434724946687,-1,-4,-5,-3,2,3,-1,-1
1558434724946687,0,1,-2,-12,-9,-6,-5,-4
1558434724954667,-3,-3,-5,2,2,-4,1,2
1558434724954667,5,1,-1,1,-8,-6,0,2
1558434724969626,-2,-1,5,3,-2,-1,3,0
1558434724969626,-2,-2,-4,-5,2,2,-1,2
1558434724977604,-2,-1,-6,-10,-7,-6,-5,-2
1558434724977604,2,4,1,0,10,14,7,3
1558434724984586,0,1,9,20,7,-2,-3,-4
1558434724984586,-3,-4,-1,4,-5,-3,-1,-2
1558434725000543,-1,-3,-19,-26,-2,0,-2,-2
1558434725000543,-3,-4,-1,-4,-10,-12,-7,-4
1558434725007525,0,1,2,0,-2,4,1,1
1558434725007525,0,1,6,1,5,7,3,3
1558434725014506,-2,-1,1,0,-2,-1,-2,-1
1558434725014506,-1,-3,-3,-9,0,5,-1,2
1558434725029467,-2,-2,-2,-1,-4,-8,-2,-3
1558434725029467,-1,0,0,4,-7,-13,-6,0
1558434725038442,0,0,3,10,5,2,2,0
1558434725038442,-2,-5,-2,7,5,5,3,-2
1558434725044426,-2,-4,-6,-4,-1,-2,-2,-2
1558434725044426,-4,-2,-6,-21,-8,-5,-3,-2
1558434725068368,1,0,2,3,1,3,1,-1
1558434725068368,-2,-1,4,5,1,-6,-2,-3
1558434725075343,3,1,-3,-5,-2,5,3,3
1558434725075343,-2,-3,-8,-7,-4,-6,-3,-1
1558434725076341,-3,-1,3,-3,-5,-7,-8,-3
1558434725076341,-4,-4,-3,2,-3,1,2,0
1558434725091301,0,1,5,3,4,5,4,1
1558434725091301,0,0,-8,-4,1,4,2,0
1558434725098282,1,-2,5,12,3,3,-1,-2
1558434725098282,-3,0,-2,-13,-3,-2,-4,-4
1558434725104265,-2,-1,1,4,-3,-3,-3,-2
1558434725104265,-1,-3,-10,-12,-3,-2,-3,1
1558434725120223,0,0,1,13,9,7,4,3
1558434725120223,-1,1,4,3,1,-2,-2,-3
1558434725127206,-1,-2,1,2,2,-4,-2,-3
1558434725127206,-2,0,2,2,-2,-1,-1,-1
1558434725135183,-2,-2,-6,-7,-4,0,0,-1
1558434725135183,2,0,-1,4,0,-3,-4,1
1558434725150144,-5,-1,2,6,-5,-3,-1,0
1558434725150144,0,-1,-3,-2,1,-3,-1,-1
1558434725158121,1,0,0,-4,1,3,-1,-1
1558434725158121,-1,-1,-8,-12,2,2,0,0
1558434725165103,-3,-3,0,3,-9,-6,-3,-3
1558434725165103,-2,0,5,9,0,3,-2,-2
1558434725180062,0,-3,0,-7,2,2,-2,-2
1558434725180062,-3,-3,-3,9,-2,0,-1,-2
1558434725187044,3,1,0,0,8,0,5,2
1558434725187044,0,-1,4,2,4,1,1,-2
1558434725195022,-3,-2,-3,-11,-10,-8,-5,-4
1558434725195022,-2,-3,-7,-9,-18,-10,-7,-3
1558434725209982,0,-1,-4,-7,-2,1,-2,-3
1558434725209982,2,2,3,10,11,13,7,1
1558434725217962,-1,1,3,10,4,0,1,4
1558434725217962,-4,-2,-2,-7,-1,-6,-3,-3
1558434725224943,-2,-2,-3,-10,-9,-6,-4,-4
1558434725224943,1,-1,-7,-13,-8,1,-1,2
1558434725240901,-1,-1,3,13,5,-3,0,0
1558434725240901,0,1,3,3,7,5,5,4
1558434725246883,0,-1,0,8,8,6,-2,-4
1558434725246883,-1,-4,1,-16,-13,-12,-4,-3
1558434725254863,-1,-1,0,1,2,-2,-1,-3
1558434725254863,0,1,5,1,1,0,-1,0
1558434725278798,1,0,-6,-1,1,-6,0,2
1558434725278798,-2,-2,3,10,1,5,-1,-2
1558434725278798,-1,-1,-5,-9,-5,-1,-1,-4
1558434725278798,1,-1,2,-8,0,0,5,2
1558434725291764,-1,0,-3,-3,3,6,-3,2
1558434725291764,-4,-1,0,-2,-10,-9,-5,-4
1558434725300741,-1,1,1,6,1,-6,1,3
1558434725300741,1,0,-3,-8,-2,5,0,0
1558434725315701,0,0,2,4,1,2,-1,0
1558434725315701,-3,-2,-4,3,5,7,2,1
1558434725315701,-2,0,2,-5,-4,0,0,-4
1558434725315701,1,1,-1,8,-6,-5,-2,-3
1558434725329662,-3,-2,7,2,-7,-11,-2,-3
1558434725329662,-3,-4,-9,3,-4,-4,-5,-3
1558434725337642,-1,-3,-2,-8,-3,2,-1,-1
1558434725337642,-3,-3,-8,-3,0,-4,-6,-2
1558434725352602,-2,-3,-4,-8,-13,1,-1,-2
1558434725352602,3,3,3,-4,11,4,7,4
1558434725360579,-3,0,1,8,8,5,2,2
1558434725360579,-1,-1,2,9,5,4,1,1
1558434725375542,-3,-4,-7,-15,-14,-11,-7,-3
1558434725375542,-4,-3,-1,3,-5,-6,-6,-2
1558434725375542,0,-2,-2,-12,-4,0,-2,-1
1558434725375542,2,4,7,7,9,7,1,0
1558434725389501,-3,-4,-8,-1,2,0,2,-2
1558434725389501,0,-3,-2,-1,-5,-2,-1,-2
1558434725397480,0,-2,-1,-1,-6,-4,-1,0
1558434725397480,-2,0,4,7,2,-2,-4,2
1558434725412476,1,1,-3,-11,-1,1,0,3
1558434725412476,-1,-1,1,7,-2,-4,-2,-4
1558434725420422,-2,-3,-5,-18,-10,-2,-4,-4
1558434725420422,0,-1,4,4,8,9,3,-1
1558434725435381,-1,0,0,2,7,-1,3,0
1558434725435381,1,1,0,1,0,-2,-1,1
1558434725443358,0,0,-3,1,-5,-6,0,0
1558434725443358,-4,-4,-2,-2,-14,-8,-5,-3
1558434725449342,-1,-2,0,0,1,-1,-6,-2
1558434725449342,0,1,0,7,7,11,3,1
1558434725458320,-1,2,6,4,8,6,4,2
1558434725458320,-3,-2,-7,4,-3,0,2,-1
1558434725472342,-1,-1,-3,-13,0,-3,-1,-1
1558434725472342,-2,-2,-8,-10,-13,-11,-5,-3
1558434725480326,-1,-2,-2,-2,-4,3,-1,1
1558434725480326,0,-2,0,1,-2,-8,-5,-2
1558434725495222,0,-2,5,5,-6,-5,-6,-4
1558434725495222,-2,-1,-8,-12,6,5,3,1
1558434725496217,1,2,6,13,15,5,5,4
1558434725496217,-1,-3,-11,-7,-3,-2,-2,-2
1558434725510253,1,0,1,7,-5,0,-1,-1
1558434725510253,-2,1,2,-8,-3,-6,-5,0
1558434725518159,-2,-2,-4,-3,-2,-1,-3,-3
1558434725518159,1,2,8,7,6,7,5,1
1558434725532125,-1,2,-2,1,-3,0,-2,-2
1558434725532125,0,-4,3,2,-8,-4,-3,-2
1558434725540099,1,-1,-2,3,8,6,3,1
1558434725540099,2,2,0,-3,1,-8,0,2
1558434725563038,1,0,6,3,6,2,4,2
1558434725563038,-3,-2,-6,0,-4,-2,1,2
1558434725564035,-1,-3,-6,-22,-11,-2,-5,-4
1558434725564035,0,0,1,0,1,1,-2,0
1558434725570020,2,-1,-3,1,6,4,-1,0
1558434725570020,-2,-5,-6,-3,-19,-13,-10,-5
1558434725577999,-1,1,0,7,0,-3,-2,-1
1558434725577999,1,3,12,17,16,13,7,3
1558434725591977,-2,-3,-8,-14,5,-2,2,-1
1558434725591977,-1,0,-2,-7,5,4,2,1
1558434725600941,-1,-3,0,1,-9,-7,-3,-2
1558434725600941,-4,-4,-11,-16,-18,-12,-8,-4
1558434725614900,-1,-1,3,8,-1,0,-3,-1
1558434725614900,3,3,11,12,10,7,2,2
1558434725615896,-2,-3,-6,1,-3,-13,-5,-4
1558434725615896,-2,-5,-1,-4,-4,4,-2,-3
1558434725629862,-1,1,2,13,4,3,6,4
1558434725629862,-1,-1,-10,-26,-5,-3,2,-1
1558434725637838,-1,-1,3,5,-6,-4,-1,-3
1558434725637838,1,0,2,12,7,2,0,-1
1558434725651801,-3,-3,-6,-10,-6,-1,-2,-4
1558434725651801,-1,-1,2,2,-6,-5,-4,-2
1558434725660778,1,2,0,5,10,6,-1,3
1558434725660778,-3,-3,-4,-19,1,1,-1,-2
1558434725675736,0,0,-2,-5,-8,-2,0,0
1558434725675736,0,0,6,15,7,1,1,0
1558434725675736,-4,-5,-5,-8,-11,-8,-4,-2
1558434725675736,0,0,0,3,1,-3,3,1
1558434725689699,-2,-1,4,6,0,4,-3,-1
1558434725689699,-1,0,3,8,5,-3,-4,-5
1558434725697678,-5,-5,-14,-28,-20,-8,-4,-4
1558434725697678,0,1,-3,-3,3,2,2,0
1558434725712638,1,0,1,3,3,0,3,2
1558434725712638,-1,-3,-7,-14,-2,3,-4,-3
1558434725720616,0,-2,6,10,4,0,0,1
1558434725720616,-1,-1,-3,-4,2,-2,-5,0
1558434725735576,-1,0,0,-4,-6,-6,-3,-1
1558434725735576,-3,-3,0,3,-5,1,0,-4
1558434725735576,-2,0,-4,-3,-1,0,2,0
1558434725735576,2,-3,-5,-6,-6,-6,0,0
1558434725749538,-1,1,3,1,6,8,2,0
1558434725749538,-2,0,2,5,1,-5,0,-1
1558434725757519,0,1,1,-4,-3,-2,-1,-2
1558434725757519,-3,-1,-2,6,-1,2,0,-2
1558434725772477,-4,-5,-5,2,-7,-6,-4,-3
1558434725772477,0,-2,-5,-9,0,0,1,2
1558434725780456,3,0,4,2,3,6,5,0
1558434725780456,0,0,0,0,-1,-3,0,-1
1558434725795416,-1,0,1,2,4,0,-3,-3
1558434725795416,-3,-3,-1,0,-5,-1,-3,-3
1558434725796414,0,0,0,8,6,-1,-2,-1
1558434725796414,-1,1,3,3,3,4,2,-2
1558434725809380,-3,-4,-4,-10,-7,-8,-6,-4
1558434725809380,0,-3,-5,2,0,-4,-1,-1
1558434725818355,0,-2,-2,9,2,1,0,1
1558434725818355,-2,-4,-11,-25,-15,-10,-8,-6
1558434725832344,2,0,0,-2,-3,-3,-2,1
1558434725832344,0,2,5,2,6,3,3,4
1558434725840333,-2,-2,1,8,2,-1,-5,-2
1558434725840333,-3,-4,-6,-5,-9,-7,-7,-4
1558434725854260,1,1,5,6,10,9,5,3
1558434725854260,0,0,-6,-1,1,-1,1,1
1558434725863281,-3,0,1,-2,4,10,3,1
1558434725863281,0,2,1,5,5,1,1,2
1558434725869256,-3,-4,-4,-11,-4,-7,-5,-3
1558434725869256,0,-1,4,10,-4,0,-1,-2
1558434725878194,0,0,-3,-3,-3,-3,2,1
1558434725878194,0,-4,-5,-8,3,5,3,2
1558434725892184,0,1,-3,1,-3,-3,-3,-4
1558434725892184,-2,-3,0,0,-3,0,0,-2
1558434725900138,-2,-3,-8,-6,-8,-10,-4,-2
1558434725900138,-4,-5,3,8,0,-1,-2,-2
1558434725915095,-1,1,0,-1,4,1,1,1
1558434725915095,1,2,0,-6,1,5,0,-3
1558434725923076,-4,-6,-1,1,-10,-7,-6,-7
1558434725923076,1,2,2,4,3,-4,-2,2
1558434725939385,0,0,1,2,0,1,-1,-1
1558434725939385,0,-2,-2,-9,-1,-3,-2,-1
1558434725939385,-2,-1,-7,-17,-3,5,2,-1
1558434725939385,-3,-3,-9,-18,-15,-8,-5,-6
1558434725953140,-1,-3,1,6,2,-3,-1,1
1558434725953140,0,0,1,4,2,1,2,2
1558434725967956,1,1,6,3,10,3,0,0
1558434725967956,-1,-2,-1,1,-7,-2,-3,-1
1558434725975007,0,1,1,-1,3,0,1,1
1558434725975007,-2,-4,-9,-10,-3,0,-2,-4
1558434725982917,0,1,7,13,3,4,-1,1
1558434725982917,-1,1,2,9,3,-1,-2,1
1558434725990232,-2,-3,-8,-14,-6,1,0,-1
1558434725990232,0,-1,2,2,-6,-7,-4,-1
1558434725998217,-1,-3,-4,-2,0,2,1,-2
1558434725998217,4,3,7,9,5,-1,-2,-1
1558434726013062,-1,1,6,9,4,3,-1,0
1558434726013062,-2,-2,-5,-9,-5,-4,0,0
1558434726020815,-2,-1,-4,-8,-9,-5,-5,-2
1558434726020815,-2,-2,0,1,-1,7,2,-1
1558434726034776,0,0,0,4,7,0,1,1
1558434726034776,-1,0,-2,-6,0,2,-1,1
1558434726050735,-1,1,2,1,2,2,1,1
1558434726050735,0,-3,-6,-11,-7,-5,-3,-1
1558434726059044,-1,-3,-3,-5,1,4,-1,-4
1558434726059044,0,-2,1,4,-2,-4,-4,-2
1558434726059710,0,-1,1,5,-6,-14,-5,-1
1558434726059710,1,2,2,1,7,4,4,0
1558434726072675,-1,-3,-4,-3,-4,-1,-1,0
1558434726072675,-1,2,0,-1,6,11,4,0
1558434726081004,1,0,-4,-8,0,-4,0,0
1558434726081004,-1,-1,7,9,-1,-6,-6,-3
1558434726094969,-4,-7,-12,-11,-17,-9,-5,-5
1558434726094969,-3,-5,-9,-1,-8,-8,-3,-1
1558434726103605,1,2,3,6,10,2,0,0
1558434726103605,0,0,1,7,6,7,7,2
1558434726118906,-1,-1,-2,-12,-6,-5,2,2
1558434726118906,-2,-1,4,4,5,0,-1,-2
1558434726120548,-2,-4,-8,-9,-6,2,-1,-3
1558434726120548,-3,-3,-5,-4,-4,-8,-4,-4
1558434726132845,-1,0,2,6,-4,0,-4,-1
1558434726132845,0,0,1,3,-3,-4,0,0
1558434726140772,1,1,-1,5,6,2,2,0
1558434726140772,0,-1,-5,-8,0,0,0,1
1558434726155596,-4,-2,-5,-3,-5,-4,-5,-2
1558434726155596,-4,-3,-6,-12,-6,-3,0,2
1558434726163706,-3,-4,1,-3,3,9,1,-1
1558434726163706,-1,-2,-1,3,-5,-2,-1,2
1558434726179391,3,0,0,0,1,-8,2,-1
1558434726179391,1,1,3,8,9,2,-2,-1
1558434726179391,-1,1,-1,-2,3,3,1,-1
1558434726179391,0,0,2,7,2,5,2,2
1558434726192595,2,-1,4,3,-1,-4,-2,2
1558434726192595,-3,-3,-1,-2,-7,-8,-5,-3
1558434726200336,-3,-4,-8,-9,-5,0,0,-3
1558434726200336,0,2,3,5,2,0,-1,-1
1558434726215502,1,3,6,11,4,4,3,0
1558434726215502,-2,-1,-6,6,6,2,-1,0
1558434726223275,-3,-1,0,-14,-5,-3,-2,-2
1558434726223275,-2,-3,-4,-5,-7,-2,-2,-1
1558434726239315,-2,-2,-3,-3,0,1,-2,0
1558434726239315,2,2,3,-3,-1,-2,0,-1
1558434726239315,-2,-2,-1,6,-2,-8,-4,-2
1558434726239315,-3,-5,1,-2,0,-1,-2,1
1558434726261425,0,-2,-9,-11,-6,2,3,1
1558434726261425,1,-1,3,9,9,8,3,1
1558434726262171,0,-2,2,8,2,-1,-2,-1
1558434726262171,-4,-2,-6,-9,-8,-7,-2,-4
1558434726275331,-2,2,7,5,3,3,-3,-2
1558434726275331,1,0,-7,-14,-4,0,0,-1
1558434726284111,0,-1,4,10,-2,-2,-1,1
1558434726284111,-1,2,6,8,4,-8,-1,1
1558434726297075,-4,-4,-6,2,-2,-7,-5,-4
1558434726297075,1,-1,-3,-25,-7,2,-1,-1
1558434726306050,-1,0,-1,-3,-1,-2,-4,-4
1558434726306050,1,-1,-2,-2,-7,-3,0,0
1558434726312034,3,1,-2,-17,2,7,2,0
1558434726312034,0,-1,8,19,9,1,3,0
1558434726321010,1,1,3,2,3,3,2,1
1558434726321010,-2,-4,-14,-27,-8,-2,-4,-4
1558434726334975,-2,-1,6,11,-4,-8,-7,-3
1558434726334975,-2,-2,-2,1,-4,1,0,0
1558434726343949,0,-1,1,-1,2,5,3,1
1558434726343949,0,2,5,8,13,8,1,-1
1558434726357345,-3,-1,-5,-4,-5,-2,-3,-2
1558434726357345,-1,-2,-6,-4,-8,-9,-5,-1
1558434726366253,-1,-1,-6,-20,-14,-10,-4,-1
1558434726366253,1,-1,5,6,2,3,-1,-1
1558434726373096,0,0,1,1,5,2,1,1
1558434726373096,-3,-4,-2,3,-3,-1,-2,-2
1558434726381321,-1,-1,-3,-5,-4,-4,-1,-4
1558434726381321,-1,-1,1,2,5,1,3,1
1558434726395136,2,-2,-4,-13,-2,0,1,0
1558434726395136,-2,-1,-1,-4,-6,-8,-4,-1
1558434726403792,-3,-3,1,5,-2,-2,-5,-2
1558434726403792,-2,-1,2,4,1,3,-2,-1
1558434726416769,-6,-1,-2,-7,-7,-6,-4,-2
1558434726416769,0,-1,1,2,4,1,2,0
1558434726426051,1,1,1,3,1,-1,3,3
1558434726426051,1,-2,-4,-1,-1,2,1,-1
1558434726432770,1,-1,4,4,3,3,1,0
1558434726432770,-1,0,-2,-1,-1,0,-2,-2
1558434726441692,-3,-2,-2,5,-2,-8,-3,-1
1558434726441692,-1,-1,1,-1,1,3,2,-2
1558434726463956,0,-2,-3,-2,1,-4,-2,-1
1558434726463956,-1,1,-1,-8,-6,-4,-3,-3
1558434726464628,-1,0,1,2,-2,-3,-1,-2
1558434726464628,-1,0,2,4,2,4,-2,0
1558434726477931,-2,-3,-10,-30,-5,1,3,1
1558434726477931,-2,-2,4,11,2,-1,-2,1
1558434726486568,1,1,2,-2,0,4,1,0
1558434726486568,-2,-3,-5,3,-7,-7,-5,-4
1558434726492892,-2,0,3,1,-1,0,1,-2
1558434726492892,-2,-1,-7,-11,-16,-8,-5,-3
1558434726501531,-3,-4,-1,-7,5,3,2,1
1558434726501531,-1,-1,1,-2,-2,1,3,1
1558434726515512,2,0,1,18,14,5,1,1
1558434726515512,1,1,5,3,0,-1,1,1
1558434726523593,-1,-2,-5,-2,-1,1,-2,-3
1558434726523593,0,-2,-5,-12,-9,-4,-5,-3
1558434726537773,-3,-1,-1,-2,-8,-6,-3,-4
1558434726537773,-1,-2,4,9,6,3,1,0
1558434726546409,-1,0,-4,-14,0,3,2,3
1558434726546409,-1,1,-4,-9,3,2,3,3
1558434726552734,0,0,0,9,0,-1,-4,-1
1558434726552734,-4,-3,0,0,-7,-7,-6,-5
1558434726561370,0,-1,-2,4,-9,-6,-2,0
1558434726561370,-1,-1,-3,-4,7,2,-1,0
1558434726575411,-1,-2,1,5,-1,0,-1,0
1558434726575411,0,1,7,3,10,13,5,-1
1558434726583309,0,-2,-3,6,-1,-4,-2,-2
1558434726583309,-1,-3,0,-6,-11,-8,-4,-3
1558434726597570,-2,-1,-1,5,3,-1,1,-1
1558434726597570,-2,1,-7,-7,-1,-1,-2,1
1558434726614380,-4,-5,-6,-14,-7,0,-5,-5
1558434726614380,0,0,2,-1,1,1,-2,-2
1558434726615225,1,-1,-2,2,-2,-6,0,0
1558434726615225,0,1,0,2,3,0,-1,0
1558434726621211,-5,-5,0,0,-2,0,0,-1
1558434726621211,-1,-1,-1,2,-1,2,0,-2
1558434726635482,1,-2,2,5,3,4,2,2
1558434726635482,-1,-3,-5,-9,-5,-8,-4,-3
1558434726644323,3,2,4,9,0,1,0,1
1558434726644323,-1,-2,-1,3,1,1,1,-1
1558434726657112,-2,-1,-5,-13,-1,3,-3,-1
1558434726657112,0,0,-1,3,8,4,4,0
1558434726666092,1,2,8,18,6,-1,-1,1
1558434726666092,-4,-1,-7,-27,-14,-5,-5,-3
1558434726672073,-2,-2,1,2,-6,-4,-3,-4
1558434726672073,-1,-4,-3,-3,-3,-4,-2,0
1558434726681047,1,2,3,3,8,5,4,1
1558434726681047,-1,0,-2,-3,-3,-9,-2,0
1558434726695481,-3,-3,-5,-9,-8,-2,-1,0
1558434726695481,0,-1,-1,3,6,6,2,0
1558434726703462,-1,-1,-1,-2,-2,-3,-5,-4
1558434726703462,0,-1,-1,1,-4,-3,0,1
1558434726717426,0,-2,-3,-5,-2,-6,-3,-3
1558434726717426,-2,-2,1,8,-4,-3,-1,-1
1558434726726437,0,2,4,2,9,11,4,2
1558434726726437,-4,-2,-3,4,2,-4,-1,-1
1558434726732385,0,-1,-3,3,-4,-3,-2,0
1558434726732385,0,-3,-6,-15,-7,-4,-2,-3
1558434726741361,3,1,-3,-7,-2,-1,2,0
1558434726741361,-2,-2,4,9,3,-2,-4,-2
1558434726755631,-1,0,3,4,8,6,1,-2
1558434726755631,1,-1,3,4,0,1,-2,1
1558434726763774,-3,-5,-2,-5,-10,-9,-2,-1
1558434726763774,-1,-2,-9,-5,-6,-1,-2,-3
1558434726777725,0,0,0,2,3,5,3,0
1558434726777725,-2,1,1,2,7,1,0,-1
1558434726786184,0,-2,-6,-7,-6,1,-2,-2
1558434726786184,0,-2,1,5,0,-2,-1,-1
1558434726793110,-3,-2,-1,-1,-10,-11,-8,-3
1558434726793110,-1,1,5,8,-2,-2,2,0
1558434726800680,-1,1,-2,-7,0,1,0,-1
1558434726800680,1,0,-2,4,16,20,6,1
1558434726815092,-1,-2,-5,-11,-1,4,0,0
1558434726815092,-1,-1,3,8,-6,-10,-4,-3
1558434726823618,-2,-2,-1,0,-5,-9,-5,-3
1558434726823618,-2,-1,2,-1,1,0,0,-2
1558434726837901,0,-2,-1,-4,-3,-3,-2,-2
1558434726837901,-1,1,3,10,1,-5,0,-1
1558434726846789,-2,-2,-6,-5,-10,-4,-7,-5
1558434726846789,-1,-2,-6,-13,-3,2,0,0
1558434726852858,-1,2,4,3,8,10,8,2
1558434726852858,0,-3,-5,-8,-1,-3,-3,-1
1558434726860523,-3,-2,-3,0,-11,-8,-5,-3
1558434726860523,-2,-1,3,1,-4,-6,-3,-2
1558434726875557,1,1,-1,0,3,3,1,0
1558434726875557,-2,0,-2,4,-2,-1,0,1
1558434726883459,0,-4,-6,-16,-3,1,-1,0
1558434726883459,-2,0,0,-1,-4,-4,-1,-1
1558434726897771,-3,-1,1,5,0,-3,-2,-1
1558434726897771,-1,-2,0,-4,1,3,1,0
1558434726906398,1,1,0,2,5,2,-1,-1
1558434726906398,0,-3,-4,-1,-5,-6,-3,-1
1558434726912723,1,1,9,12,3,1,-1,0
1558434726912723,0,-2,-5,-16,-6,4,-1,-1
1558434726921360,-1,0,-10,-16,7,3,3,1
1558434726921360,-1,-1,-1,-1,-7,-7,-5,-2
1558434726935584,-3,-4,-10,-5,-8,-14,-6,-1
1558434726935584,0,0,2,9,7,10,3,2
1558434726943633,-1,1,2,7,10,5,2,1
1558434726943633,1,1,3,6,0,-5,0,2
1558434726957566,-1,-1,-2,-6,-6,-6,-4,-1
1558434726957566,0,-2,-4,-8,-8,-8,-4,-3
1558434726966239,-1,-1,11,26,5,3,-1,0
1558434726966239,-1,-1,-8,-7,-1,1,1,-1
1558434726981557,-3,0,-1,-10,-6,-1,-3,-3
1558434726981557,-2,-3,-6,-8,-1,0,1,-2
1558434726982194,-1,-2,4,9,5,0,2,0
1558434726982194,-2,-1,3,3,0,-3,-3,-1
1558434726995473,0,-1,1,-5,-5,5,1,-3
1558434726995473,-2,0,2,2,9,5,-1,-1
1558434727003141,-1,-2,-4,-9,-6,-5,-1,-2
1558434727003141,0,-1,-2,-3,-1,-2,-2,0
1558434727017104,-1,-1,3,10,-7,-7,-2,-1
1558434727017104,0,-2,-4,-3,10,-1,-1,-1
1558434727026082,-1,-1,2,-6,-2,-1,0,0
1558434727026082,-3,-1,-2,11,3,3,-3,-3
1558434727041326,-2,-3,-2,-9,-3,0,0,-1
1558434727041326,-1,-2,-3,-2,-7,-1,-2,1
1558434727042037,-3,-3,-7,-7,-7,-8,-1,-2
1558434727042037,0,1,0,-2,1,4,3,-1
1558434727055290,-2,-1,0,7,4,1,1,-2
1558434727055290,0,1,2,1,1,2,0,1
1558434727063976,-1,0,2,4,2,-2,-5,-1
1558434727063976,3,-1,-2,-6,0,5,2,2
1558434727076941,0,-2,-1,6,-1,-6,-1,-1
1558434727076941,-1,-1,0,-8,-5,2,2,-1
1558434727085916,0,0,3,8,3,-2,-1,-1
1558434727085916,-3,-4,-1,-8,-6,-2,-1,0
1558434727100876,1,-1,-5,-7,4,-1,0,-1
1558434727100876,0,2,1,9,7,3,-1,-1
1558434727102871,-5,-3,-10,-9,-10,-1,-1,-4
1558434727102871,-2,1,-2,-3,-1,-3,-2,-2
1558434727115215,-1,-3,-2,-1,-3,-3,-3,-1
1558434727115215,0,0,3,11,1,-2,-3,0
1558434727123818,-2,-5,-8,-18,-10,-2,-5,-6
1558434727123818,2,1,4,3,7,5,5,1
1558434727137843,-1,0,-5,-3,-1,1,-1,-2
1558434727137843,0,-2,-1,-3,-4,0,-2,0
1558434727146108,2,0,6,9,0,1,-1,2
1558434727146108,-2,-4,-5,-5,-11,-15,-7,-3
1558434727161726,1,1,-4,-9,0,2,0,1
1558434727161726,-2,-1,-6,-6,-4,-6,-3,-5
1558434727162713,-1,-1,-5,-6,2,1,1,0
1558434727162713,0,1,4,8,4,1,0,1
1558434727175011,1,0,7,12,10,6,3,1
1558434727175011,-4,-3,-1,-7,-10,-6,-1,-4
1558434727183655,-2,-1,-5,-20,-9,-3,-2,-3
1558434727183655,-3,-2,2,2,-4,-5,-3,-4
1558434727197935,-5,-6,-7,-5,-10,-10,-7,-4
1558434727197935,-2,-4,-9,-11,-5,0,1,1
1558434727205917,0,1,12,33,15,6,4,5
1558434727205917,1,1,-3,-16,-1,5,2,0
1558434727221723,0,-1,2,3,-2,-1,-3,-2
1558434727221723,2,-3,-5,3,-3,-3,-4,-3
1558434727222556,0,-2,0,-1,-3,-6,0,1
1558434727222556,-3,-4,-7,-2,-7,-2,-5,-1
1558434727234775,-1,0,6,11,12,9,3,2
1558434727234775,-2,0,3,-1,-2,-5,0,2
1558434727243502,-1,0,2,5,-1,1,-2,2
1558434727243502,1,0,-2,0,-2,-1,-2,-1
1558434727257460,-2,-1,-2,-1,-4,-5,-3,-2
1558434727257460,1,0,-1,-2,-9,-5,0,-3
1558434727266436,-3,-4,-3,-7,-3,0,-2,-5
1558434727266436,-4,-2,0,0,-5,-5,0,-1
1558434727281396,-1,-1,0,3,2,0,0,0
1558434727281396,1,1,1,-7,11,8,1,2
1558434727282397,1,3,1,-1,5,3,4,3
1558434727282397,-3,-3,-6,2,-4,-9,-4,-2
1558434727294359,0,0,0,-8,-6,-2,-1,1
1558434727294359,-3,-4,-5,4,-2,-6,-5,-4
1558434727303336,1,0,1,6,-2,-8,-2,-2
1558434727303336,1,0,3,-1,-7,-1,-2,-1
1558434727317298,-2,0,-2,-1,2,5,2,1
1558434727317298,-1,1,3,-5,-3,-2,-4,1
1558434727326275,-3,-4,-11,-6,1,6,0,0
1558434727326275,-1,-1,3,3,0,3,0,0
1558434727341480,-1,-2,1,3,-5,-9,-4,0
1558434727341480,-2,-4,-7,-8,1,0,-1,-2
1558434727342577,-1,0,1,1,0,2,-1,-2
1558434727342577,1,-2,4,10,6,6,3,0
1558434727355639,-1,-1,-5,-4,0,5,4,1
1558434727355639,0,-2,6,9,1,-7,-2,0
1558434727363654,0,1,-3,-16,-4,-6,-3,1
1558434727363654,-1,0,-3,-5,-5,-6,-3,-1
1558434727378051,1,2,-3,-12,-3,-3,-2,-4
1558434727378051,-4,-3,-2,12,-6,2,-1,-3
1558434727386244,-1,-3,-1,5,7,5,0,-2
1558434727386244,1,0,2,0,2,5,2,-1
1558434727402025,-1,-2,-3,-5,-5,-6,-5,0
1558434727402025,1,-1,0,-3,-4,-2,-1,-2
1558434727402025,-1,-2,-4,-5,-7,-4,-1,-1
1558434727402025,-2,0,-2,-7,5,3,1,-1
1558434727415394,-4,-4,-2,2,-9,-3,-1,0
1558434727415394,-2,0,-5,-14,4,5,0,1
1558434727423967,-2,-1,0,2,-6,0,0,0
1558434727423967,2,0,2,7,10,-2,0,3
1558434727437285,1,-2,-1,-9,0,-3,-2,-2
1558434727437285,-2,0,-4,-6,-9,-5,-2,-1
1558434727446222,-3,-4,-2,7,-1,-4,-4,-5
1558434727446222,-2,-1,-4,-10,-10,-1,-4,-4
1558434727461161,-3,-2,-3,10,-1,-2,-1,-1
1558434727461161,0,-2,-2,4,7,-1,2,2
1558434727462863,1,2,2,5,1,2,4,2
1558434727462863,2,3,3,2,9,8,4,2
1558434727474859,0,-2,-4,-6,2,6,1,-1
1558434727474859,-1,-3,-3,-3,-9,-8,-2,-3
1558434727483809,0,-2,-3,-7,-7,-10,-4,0
1558434727483809,-3,-1,9,13,2,-1,-1,0
1558434727497881,-2,-1,1,3,0,-1,-3,1
1558434727497881,-3,-2,-3,-11,2,3,-1,-3
1558434727505748,1,1,-1,4,5,7,4,3
1558434727505748,0,-2,3,6,2,-4,0,1
1558434727521978,-1,-5,-11,-18,-7,-8,-3,-2
1558434727521978,0,0,6,10,-5,-2,-2,-2
1558434727522703,0,1,-2,-3,2,-2,-5,-2
1558434727522703,-2,-2,-4,-1,-3,-1,-1,-3
1558434727534732,-2,-1,2,0,-8,-4,-3,-3
1558434727534732,1,3,3,9,3,4,2,3
1558434727543646,-3,-3,3,17,9,0,1,-1
1558434727543646,-2,-4,-15,-17,-4,1,-2,1
1558434727557988,2,-2,-3,-1,-2,-7,0,0
1558434727557988,-4,-4,-1,-4,-5,-2,0,-4
1558434727565990,-1,0,3,2,-2,-2,-1,-1
1558434727565990,0,0,-3,0,-4,-4,-4,-4
1558434727580910,-1,2,3,9,5,7,0,-3
1558434727580910,2,4,4,0,10,10,8,4
1558434727582543,-4,-5,-7,-2,-2,-3,-4,-2
1558434727582543,0,1,5,-1,0,-4,0,1
1558434727594861,0,-1,-8,-14,-2,2,3,1
1558434727594861,-2,0,5,13,4,0,-1,-2
1558434727603605,-2,-4,-7,-6,-5,-7,-3,-5
1558434727603605,-2,-3,-6,-12,-4,-2,-5,-4
1558434727617449,-2,-2,5,13,1,0,-3,-4
1558434727617449,2,0,3,2,7,-1,2,1
1558434727626671,2,0,3,-7,4,13,2,1
1558434727626671,-3,-5,-7,8,-5,-8,-5,-3
1558434727641620,-1,1,-5,-5,-4,-1,1,-1
1558434727641620,0,-3,-6,-9,-4,-2,-4,-2
1558434727642386,-2,1,3,-1,-3,-9,-1,1
1558434727642386,0,1,1,-1,-1,-3,-1,-1
1558434727655451,0,0,2,-1,6,4,0,1
1558434727655451,0,1,2,11,6,4,3,1
1558434727663615,2,1,0,-6,-8,1,1,2
1558434727663615,-1,-1,-6,-15,-11,-3,-3,-4
1558434727677290,-1,1,1,2,6,2,-1,-1
1558434727677290,-1,-3,-7,-4,-2,-2,-3,-1
1558434727686271,-1,-2,-4,-5,0,0,-1,-2
1558434727686271,-2,-2,-6,-20,-11,-9,-2,-1
1558434727699303,0,-1,-1,-2,-1,-1,0,-2
1558434727699303,-2,-3,4,16,7,3,0,-2
1558434727710792,1,3,5,-5,4,1,0,2
1558434727710792,-3,-4,-8,2,-8,-4,-4,-3
1558434727715348,-4,-3,-3,-6,-4,1,-2,-1
1558434727715348,-1,-2,-8,-13,-7,-4,-2,-2
1558434727723516,3,0,4,7,5,1,2,1
1558434727723516,3,2,4,7,6,4,1,1
1558434727737128,2,3,11,14,6,7,3,3
1558434727737128,-1,-5,-14,-26,-9,-2,-2,-1
1558434727746104,-2,-3,-5,-4,-14,-8,-6,-5
1558434727746104,-3,1,0,1,-1,-1,-2,-4
1558434727760067,-3,-3,-2,1,0,-2,-1,0
1558434727760067,2,0,5,9,-1,0,0,1
1558434727767049,1,-1,-6,-13,2,3,4,1
1558434727767049,-3,-4,1,4,-2,-4,-4,-2
1558434727775027,-1,-2,4,11,-7,-12,-4,-4
1558434727775027,-1,3,-3,-2,1,-3,3,2
1558434727783005,-2,-2,-6,-10,-5,-1,-1,0
1558434727783005,0,-1,1,8,4,3,0,0
1558434727798084,-1,-1,-8,-20,1,8,3,-1
1558434727798084,-1,-4,-3,-3,-7,-11,-8,-3
1558434727813923,-2,-2,-1,5,-7,-7,-3,-6
1558434727813923,0,0,6,6,10,9,7,5
1558434727821302,2,2,7,11,12,4,0,3
1558434727821302,-2,-2,1,-4,-7,-8,-3,-3
1558434727827341,-3,-3,-3,-5,-3,-5,-5,-3
1558434727827341,-2,-3,-5,-3,-5,-3,-2,-1
1558434727835217,1,0,0,-1,4,6,4,2
1558434727835217,-1,1,1,-2,0,-1,-1,-1
1558434727843843,-3,-5,3,10,-3,-4,-4,-4
1558434727843843,2,-1,-3,-17,0,-3,0,-1
1558434727858114,0,1,-2,-3,-6,-1,-2,-1
1558434727858114,-1,-3,-6,-1,-5,-1,-2,0
1558434727866007,2,4,5,0,9,5,3,2
1558434727866007,-1,-1,-2,-2,-4,-3,-3,-4
1558434727881171,-4,-2,-3,-4,-4,-4,-4,-3
1558434727881171,-5,-1,0,4,-2,-3,-4,-5
1558434727888021,1,1,2,7,3,1,1,1
1558434727888021,3,1,5,8,9,9,3,4
1558434727894707,-1,-1,-3,-1,-1,-4,-1,-2
1558434727894707,-1,0,0,-1,1,2,-1,-2
1558434727903684,1,0,0,1,1,2,1,-2
1558434727903684,-3,-3,-7,-6,-1,1,0,-4
1558434727916652,-1,-1,-1,-2,-9,-11,-5,-1
1558434727916652,-3,-2,-2,-6,-5,-5,-2,-3
1558434727925969,-1,-2,2,3,-4,-2,-1,-1
1558434727925969,0,1,4,17,7,3,4,3
1558434727940903,1,1,0,-10,8,8,4,3
1558434727940903,0,-1,-4,-9,-7,-6,-5,-3
1558434727947907,-5,-4,-13,-24,-16,-8,-7,-6
1558434727947907,-1,-3,0,-2,-1,0,-3,-2
1558434727963871,-1,0,1,6,3,-2,-1,-1
1558434727963871,0,-3,3,4,0,0,0,-1
1558434727964802,-1,0,-1,-4,0,4,1,-1
1558434727964802,-3,-3,-7,-8,-1,-3,1,-2
1558434727977834,0,0,1,-3,0,-4,0,0
1558434727977834,0,1,5,11,1,0,-1,0
1558434727986461,-1,-2,-5,0,-5,-3,-4,-1
1558434727986461,-2,-1,3,-1,-7,-6,-7,-3
1558434728000425,2,-4,-6,-5,1,3,1,-1
1558434728000425,0,-1,-3,3,10,8,9,5
1558434728007719,-1,0,4,4,1,-2,-2,0
1558434728007719,-1,2,7,9,6,6,1,1
1558434728023666,-2,-2,-4,-2,-5,-6,-4,-3
1558434728023666,-4,-4,-6,-5,-10,-3,-6,-4
1558434728025360,-2,-3,-4,-12,-7,-2,1,1
1558434728025360,1,-3,-1,-3,-1,-4,-2,0
1558434728037671,-2,0,5,11,6,2,-4,-1
1558434728037671,-2,-3,-2,-4,-1,0,1,1
1558434728046303,-3,-4,-4,-8,-8,-12,-6,-3
1558434728046303,-1,0,1,7,2,2,1,-2
1558434728060265,1,2,4,-5,7,8,4,2
1558434728060265,-2,-4,-9,-14,-5,-7,-5,-3
1558434728068242,-3,-1,-2,5,-2,-3,-1,-1
1558434728068242,0,0,1,4,-7,-6,-2,-1
1558434728083202,-1,-2,-6,-10,-7,-5,-2,-2
1558434728083202,1,5,11,8,9,8,2,3
1558434728085196,1,-2,-5,-8,4,9,2,-1
1558434728085196,-2,-2,-16,-15,-11,-7,-5,-2
1558434728097166,-3,-3,-5,0,-7,-8,-2,0
1558434728097166,2,1,1,-4,0,-4,-1,-1
1558434728106141,-1,0,6,13,0,2,3,1
1558434728106141,-4,-3,-2,-2,0,-1,-3,-4
1558434728120104,0,-2,-3,2,-7,-6,-5,-2
1558434728120104,0,3,4,15,16,9,5,1
1558434728128526,-1,-2,-4,-5,7,6,2,0
1558434728128526,-1,-4,-5,-10,4,4,2,-2
1558434728144391,-1,0,-1,-3,-9,-6,-2,-3
1558434728144391,-2,-1,0,-2,-10,-7,-6,-4
1558434728145038,-4,-1,-1,4,-4,-7,-5,-3
1558434728145038,-2,1,4,6,0,2,0,1
1558434728157484,0,1,5,4,6,3,1,3
1558434728157484,-1,-3,-5,-2,3,3,4,0
1558434728165981,0,-1,-1,-1,4,-1,0,0
1558434728165981,-1,-5,-6,-7,-8,-4,-1,0
1558434728181137,-3,-3,1,2,-4,-4,-4,-3
1558434728181137,-2,-2,-1,-1,-2,8,-1,-1
1558434728187310,-3,-1,-1,-12,-5,-10,-6,-2
1558434728187310,-2,-1,-3,-1,1,-7,-3,1
1558434728204206,-2,-1,4,7,5,4,2,0
1558434728204206,2,2,-4,-8,3,1,3,1
1558434728204877,0,-3,0,8,5,4,3,2
1558434728204877,1,-1,2,0,-3,-2,-3,-3
1558434728216848,-2,-4,-4,-8,-8,-7,-5,-3
1558434728216848,0,0,5,-3,-8,-5,-4,-3
1558434728225820,-1,-1,-2,11,-6,-2,-4,-6
1558434728225820,0,-2,-3,-8,-2,-1,2,2
1558434728241065,2,0,1,7,18,14,8,3
1558434728241065,-3,-3,-11,-11,-4,0,1,-2
1558434728247904,0,1,-1,-9,-3,-3,-6,1
1558434728247904,-4,-1,-2,5,-8,-7,-2,-3
1558434728263995,-3,-4,-3,-2,-10,-7,-2,-3
1558434728263995,-1,-1,7,5,2,-6,-1,0
1558434728264904,-3,-2,-6,-8,5,6,3,1
1558434728264904,-2,1,4,5,5,-4,-6,0
1558434728277912,0,1,-6,-10,-2,-4,-5,0
1558434728277912,-2,-2,-1,6,-9,-4,-4,-2
1558434728285662,-2,-1,0,1,-4,-3,-2,-2
1558434728285662,1,-1,1,-6,1,8,2,-1
1558434728300622,-1,2,2,1,1,2,0,-1
1558434728300622,-2,0,-2,4,5,-2,-3,-1
1558434728307606,1,-1,4,-4,-1,-7,-4,0
1558434728307606,1,3,3,3,11,8,6,3
1558434728323987,0,-4,-4,-5,-4,-1,0,-4
1558434728323987,-2,-2,0,11,-2,-2,-1,-3
1558434728324999,1,-1,-5,-4,-2,-1,1,0
1558434728324999,-1,2,0,0,-2,-1,-3,-1
1558434728337948,-2,-2,0,-3,-11,-11,-8,-3
1558434728337948,-2,-1,0,7,-3,2,0,-2
1558434728352928,0,0,-3,3,8,3,0,0
1558434728352928,1,-1,1,-2,6,2,0,0
1558434728360912,1,2,1,8,9,12,5,1
1558434728360912,1,-1,-4,-26,-8,-5,-3,-1
1558434728367442,-4,-3,3,11,-5,-5,-4,-5
1558434728367442,-1,-2,-3,-11,-10,-3,-1,0
1558434728383400,-2,-2,-2,0,-3,-9,-3,-1
1558434728383400,0,-2,0,4,6,3,5,5
1558434728384397,-1,1,1,-5,5,9,4,0
1558434728384397,-3,-1,0,-2,0,0,-2,-5
1558434728397725,-4,-3,3,3,-8,-10,-4,-7
1558434728397725,-4,-4,-5,-10,-2,-1,-5,-2
1558434728406341,0,0,-5,-8,-2,1,0,1
1558434728406341,-2,-1,7,13,-4,-5,-6,-1
1558434728419647,-2,-5,-10,-6,-6,-5,-1,-1
1558434728419647,0,2,0,-9,-3,3,3,1
1558434728428625,0,0,3,11,8,3,-1,-2
1558434728428625,1,1,2,-1,6,2,2,0
1558434728444240,-1,-2,-1,8,-3,1,-1,-2
1558434728444240,0,-2,-3,3,-7,-11,-5,-4
1558434728445235,-1,0,-3,-12,-5,2,2,1
1558434728445235,0,1,3,5,-2,0,-1,2
1558434728457515,-1,-1,0,-5,6,7,3,1
1558434728457515,1,-1,0,-2,-2,-6,-2,-2
1558434728466181,0,0,3,3,-1,-4,-2,-3
1558434728466181,-3,-6,-6,-6,-11,-3,-4,-4
1558434728480404,0,1,2,-5,8,6,-2,-3
1558434728480404,0,2,4,9,4,7,3,1
1558434728488368,-1,0,0,-2,6,1,1,1
1558434728488368,-4,-3,-5,3,-1,-4,1,-3
1558434728503079,-3,-5,-13,-27,-18,-8,-3,0
1558434728503079,-3,-3,-5,-10,-4,-9,-4,-4
1558434728505074,1,-2,1,7,1,-3,-2,-1
1558434728505074,2,2,6,9,13,10,1,2
1558434728517042,0,-1,-6,8,-1,-1,3,-1
1558434728517042,0,-2,-2,-5,-3,-1,-2,-2
1558434728526017,-3,-1,2,1,-4,0,1,-2
1558434728526017,-1,1,-3,-4,-11,-10,-2,-2
1558434728539979,0,1,2,-6,3,1,-2,-2
1558434728539979,-2,-2,-1,5,6,2,-2,-1
1558434728548956,1,-1,1,1,-2,9,4,1
1558434728548956,1,2,-1,-3,11,8,2,2
1558434728564327,-3,-3,-10,-3,-8,-11,-4,-3
1558434728564327,-1,1,1,-1,1,-1,-2,-2
1558434728564915,-1,-2,0,2,-2,-2,-3,-1
1558434728564915,-2,-2,-2,3,-4,-5,-4,-2
1558434728578037,0,2,2,0,2,6,0,0
1558434728578037,-2,2,1,-4,2,1,-1,0
1558434728586226,-2,-2,-8,-3,-11,-9,-1,-2
1558434728586226,0,-1,-3,-7,-2,-1,3,0
1558434728599280,-1,0,3,6,1,-4,-2,0
1558434728599280,-2,-5,-5,-16,-1,2,1,-1
1558434728608526,0,-1,2,1,8,1,1,4
1558434728608526,-1,-1,-6,-2,-1,-2,-1,-2
1558434728624310,-1,0,3,1,-6,0,1,1
1558434728624310,-2,-2,-6,-9,1,0,-4,-3
1558434728625127,-1,1,3,1,-2,-1,0,-4
1558434728625127,-3,-3,-7,-1,-1,-1,-4,-1
1558434728637378,-2,-2,1,16,-1,1,-1,-2
1558434728637378,-3,-2,-8,-10,-8,-5,-4,-2
1558434728646135,-3,-2,-5,-10,-5,-1,-1,0
1558434728646135,0,-2,0,-5,2,0,1,-2
1558434728660309,0,1,5,4,3,-4,-3,-1
1558434728660309,0,-4,-10,-7,-6,-1,-1,1
1558434728669009,0,-1,-2,8,-6,-8,-4,-1
1558434728669009,-2,1,1,-9,0,1,1,0
1558434728682981,-4,-3,-1,-6,3,5,0,-1
1558434728682981,-1,3,10,20,8,-1,2,2
1558434728690178,-3,-1,-1,-15,-7,-4,-4,-4
1558434728690178,-2,-1,-1,17,-2,-2,-1,-2
1558434728696934,-4,-4,-6,-30,-10,-2,-1,1
1558434728696934,2,0,6,7,10,7,3,1
1558434728705912,-2,-2,-5,5,1,-2,-2,-1
1558434728705912,-2,-3,-1,0,-7,-3,-3,-5
1558434728719872,-2,-2,-4,0,-5,-7,-3,-1
1558434728719872,3,4,7,15,9,7,4,3
1558434728728876,0,-2,-6,-8,2,2,0,1
1558434728728876,3,0,-4,-16,-1,-1,3,1
1558434728742868,0,0,2,9,0,-2,-3,-3
1558434728742868,-3,-2,0,-6,-12,-12,-5,-3
1558434728749821,-1,0,5,9,-2,-5,-8,-4
1558434728749821,-1,-2,-2,-5,-2,1,-4,1
1558434728757266,3,0,3,3,8,4,6,3
1558434728757266,-2,-3,0,10,-2,0,-2,-3
1558434728766083,-2,-3,-6,-17,-3,-1,-1,-1
1558434728766083,-5,-5,-5,-5,-2,-1,-3,-2
1558434728780144,-2,1,3,-1,-3,1,1,-1
1558434728780144,0,-1,-7,-3,2,3,1,0
1558434728788689,-2,1,1,8,5,2,2,-1
1558434728788689,1,0,3,3,5,2,2,2
1558434728802650,5,1,0,0,5,1,2,2
1558434728802650,-1,-2,6,8,-2,-3,-2,0
1558434728809631,-2,0,2,-5,-5,-3,-3,-2
1558434728809631,-3,-4,-8,-9,-10,-8,-9,-4
1558434728816613,-4,-1,-1,6,-4,-3,-3,-3
1558434728816613,-1,0,-4,-11,1,0,-1,1
1558434728825588,1,-1,-2,7,6,5,4,0
1558434728825588,-2,-4,0,-13,-6,-2,-1,-1
1558434728839551,-2,-3,-3,-3,-8,-7,-4,-4
1558434728839551,2,1,-3,-1,2,5,3,2
1558434728848588,-1,1,9,17,10,1,-1,0
1558434728848588,0,1,-1,-2,-1,-1,1,2
1558434728863586,1,-3,-3,-4,-1,-3,-3,0
1558434728863586,-3,-2,-4,-8,-6,-1,-1,-3
1558434728869846,1,1,-2,4,7,5,2,-1
1558434728869846,0,1,-4,-14,-5,-2,0,1
1558434728886945,0,-2,1,2,-1,-3,-2,0
1558434728886945,-2,-2,-6,-7,-7,-4,-1,-2
1558434728887430,0,-1,4,0,-7,-6,-4,-2
1558434728887430,1,1,3,18,9,7,7,-1
1558434728899391,-1,-2,-6,-3,-1,2,1,-1
1558434728899391,-2,-4,-6,-9,-10,-7,-7,-2
1558434728908881,2,-1,-2,-6,4,-1,-2,1
1558434728908881,0,1,3,0,1,-3,-3,0
1558434728923772,-4,-1,-1,-4,1,3,-2,-1
1558434728923772,-2,-1,1,4,-2,-2,2,1
1558434728929817,0,0,-1,4,-9,-5,-2,-1
1558434728929817,-1,-4,-4,-18,-3,-2,-2,-3
1558434728946769,2,2,2,10,8,6,5,2
1558434728946769,-1,-3,-1,-10,-2,1,-1,-4
1558434728948357,1,-1,-2,-5,-8,-5,-5,-2
1558434728948357,-1,1,-2,5,-1,3,-3,0
1558434728960557,-4,-2,-11,-12,-8,-7,-6,-2
1558434728960557,-1,-1,8,8,-1,-6,-1,-3
1558434728968414,-3,-5,-10,0,-4,-2,2,-1
1558434728968414,0,-2,3,7,3,1,0,2
1558434728983166,-1,-1,3,0,-1,1,-3,-4
1558434728983166,-1,1,0,6,2,3,1,0
1558434728990326,-2,-2,-3,-17,0,0,-1,-3
1558434728990326,-1,0,2,5,4,1,2,0
1558434729006107,1,0,-2,1,0,-2,0,1
1558434729006107,1,0,3,-2,2,2,0,1
1558434729008135,-1,-1,4,2,9,5,1,0
1558434729008135,-1,-2,-1,2,-1,-5,-2,-2
1558434729020072,-2,-2,-5,-8,-3,-5,-4,-2
1558434729020072,1,0,-4,-2,-6,-5,-3,-5
1558434729028047,-2,-3,-4,-3,-7,0,-1,0
1558434729028047,2,0,8,9,3,3,1,1
1558434729043007,-1,0,0,-3,2,-2,5,4
1558434729043007,-3,-5,-4,-10,-11,-4,-4,-2
1558434729050986,-2,-1,-1,2,-2,-3,-5,-4
1558434729050986,-1,-1,0,17,3,-1,0,-4
1558434729065945,1,-1,-5,-18,-3,-1,-2,-1
1558434729065945,-4,-3,-5,7,-1,-3,-2,0
1558434729066943,-2,-1,3,-4,-4,1,-1,2
1558434729066943,-2,-1,0,-5,-5,0,-5,-1
1558434729079912,-4,-2,-4,8,3,1,1,0
1558434729079912,3,3,5,-1,11,7,3,2
1558434729088900,-2,0,-3,1,-1,-3,0,0
1558434729088900,-1,0,1,-5,-4,-5,0,-2
1558434729102847,1,-2,-1,3,4,0,-1,-2
1558434729102847,2,0,0,-1,0,0,-1,0
1558434729109830,-1,-1,-4,7,3,0,-1,-3
1558434729109830,-2,-4,-7,-15,-14,-9,-7,-4
1558434729125788,-1,-1,2,-4,-8,2,-1,-1
1558434729125788,-1,1,-1,1,3,1,4,2
1558434729127782,-2,3,6,5,4,-4,-1,0
1558434729127782,-3,-2,-8,4,-3,-4,-2,1
1558434729139786,-1,-1,5,0,3,6,-1,-2
1558434729139786,-1,-6,-2,6,-8,-6,-5,-2
1558434729148725,-1,-2,1,-1,-6,-8,-1,-1
1558434729148725,-1,0,-5,-11,2,5,3,0
1558434729162929,-2,-2,1,5,7,0,3,-1
1558434729162929,0,-1,-1,-4,-1,1,-4,-2
1558434729169712,-1,-2,0,6,1,0,-2,-3
1558434729169712,-3,-4,-4,-5,-9,-5,-2,-3
1558434729186811,2,2,3,-1,5,3,0,4
1558434729186811,-1,0,-1,-1,4,2,0,1
1558434729187622,0,1,2,-5,-7,-5,-3,0
1558434729187622,-1,-1,2,5,2,-2,-3,-2
1558434729199591,-2,-2,-2,-8,-7,-3,-5,-3
1558434729199591,0,0,2,3,0,-6,-3,1
1558434729208568,-1,-1,1,-3,2,6,2,2
1558434729208568,-2,-1,-7,-9,-6,-3,-2,-2
1558434729222528,1,2,4,14,5,5,5,-1
1558434729222528,-3,-1,-3,-3,-3,-5,-1,-4
1558434729229509,-2,-1,-2,-14,1,6,0,-2
1558434729229509,-2,1,5,7,1,1,-5,-1
1558434729253445,-6,-5,-5,1,-10,-10,-9,-4
1558434729253445,-1,0,2,7,5,4,4,0
1558434729255439,1,-1,-1,1,13,8,7,2
1558434729255439,1,0,6,8,4,3,4,-1
1558434729259432,-3,-3,-6,-16,-8,-8,-7,-3
1558434729259432,-3,-4,-5,-1,-5,0,-2,-2
1558434729268405,-2,-1,-3,-6,-10,-12,-6,-1
1558434729268405,-1,-1,-3,4,1,-1,0,-1
1558434729282367,4,3,4,5,9,8,6,1
1558434729282367,-2,0,1,-5,-5,-4,-5,-3
1558434729289349,-1,-4,-5,-3,-5,-3,-3,-4
1558434729289349,1,-2,-8,-16,-8,-2,-2,0
1558434729306304,-1,-1,1,13,4,-2,1,-1
1558434729306304,-2,-2,1,4,1,0,1,-1
1558434729307301,-1,-3,-8,-17,-3,3,-1,-2
1558434729307301,-3,-1,5,0,-7,-5,-2,-2
1558434729319270,0,-2,-10,-13,-1,-3,-3,1
1558434729319270,-1,-3,-7,-5,2,1,2,-1
1558434729328277,1,2,0,6,5,6,3,-1
1558434729328277,3,5,6,18,12,1,1,0
1558434729351192,-4,-5,0,-19,-18,-6,-5,-3
1558434729351192,-5,-6,-3,2,-2,-3,-6,-3
1558434729352181,0,-1,-1,-8,-9,-13,-4,1
1558434729352181,0,2,-1,-9,-4,-5,-1,-1
1558434729366143,1,2,2,12,2,0,2,-1
1558434729366143,2,3,7,12,6,5,3,1
1558434729367144,-3,-4,-7,-17,-2,5,1,-1
1558434729367144,3,-2,-10,-3,8,7,2,0
1558434729379111,-4,-3,0,0,-8,-13,-7,-8
1558434729379111,-1,-2,-2,-4,-5,2,-3,-4
1558434729388085,2,1,11,27,18,12,4,4
1558434729388085,-2,-5,-10,-5,-3,1,3,0
1558434729403050,0,2,-3,1,-4,-4,1,3
1558434729403050,0,3,2,2,1,-3,0,1
1558434729410027,-4,-3,-3,-8,-21,-14,-10,-5
1558434729410027,-4,-5,-3,-9,-9,-5,-5,-2
1558434729425984,1,-1,-1,-3,6,5,2,4
1558434729425984,0,1,-3,-3,3,4,3,0
1558434729426987,3,2,3,14,15,11,6,2
1558434729426987,-3,-1,1,-6,-4,-1,-4,-1
1558434729439956,-3,-2,-1,3,1,-1,-3,-1
1558434729439956,0,-4,-7,-4,-5,-7,-4,-2
1558434729448925,-2,1,5,3,-3,2,1,0
1558434729448925,-2,-1,-2,-1,-2,-1,0,0
1558434729462891,-1,0,-7,-18,-4,-6,0,-2
1558434729462891,-2,-1,1,3,2,-8,-2,-1
1558434729469866,-3,-4,-8,-8,-8,-7,-6,-4
1558434729469866,0,3,10,16,4,2,0,4
1558434729485824,0,-2,-3,-24,-8,-2,-4,0
1558434729485824,-1,-2,-9,-7,-1,1,2,3
1558434729487818,-3,-1,-1,4,2,-4,-2,-6
1558434729487818,-1,-1,6,8,4,-2,0,-1
1558434729499788,-1,-2,-4,5,-1,2,-3,-5
1558434729499788,1,2,3,-4,-1,-1,2,-2
1558434729515744,-2,-3,4,9,-4,-6,-5,-1
1558434729515744,1,-2,-16,-27,-5,-2,0,8
1558434729522726,1,0,8,21,12,13,6,-4
1558434729522726,-2,-5,-3,-6,-3,-2,-3,-2
1558434729529706,0,1,2,-2,0,-1,-3,-3
1558434729529706,0,-1,6,13,-4,-4,-1,-3
1558434729553643,0,-2,-16,-24,-8,-2,-2,1
1558434729553643,1,0,3,3,0,-1,-4,0
1558434729554640,0,-1,3,-3,-4,0,1,4
1558434729554640,2,3,4,4,1,5,4,1
1558434729559632,-2,-2,2,1,-1,-2,-4,-1
1558434729559632,-2,-2,-1,-6,-4,-2,-6,-5
1558434729568603,-1,-4,-10,-12,-10,-5,0,-2
1558434729568603,0,0,10,14,6,-5,0,-3
1558434729581571,0,0,2,5,3,2,4,2
1558434729581571,0,0,-8,-16,1,7,5,3
1558434729590548,-2,-1,0,7,-1,-5,-1,0
1558434729590548,-2,-2,-3,4,-3,-5,1,-3
1558434729605505,0,-4,-2,-5,-4,-4,2,-1
1558434729605505,0,-2,0,-3,-4,2,-1,-2
1558434729612543,5,1,-5,-9,2,4,5,4
1558434729612543,-4,-6,-4,-14,-2,1,-3,-5
1558434729619468,-4,1,4,13,7,1,0,-4
1558434729619468,-3,2,5,-1,-8,-8,0,0
1558434729628445,-2,3,3,3,8,4,0,1
1558434729628445,-3,-2,-10,-6,-6,-7,-6,-3
1558434729642420,1,-2,1,22,2,0,-1,0
1558434729642420,-2,-4,-13,-23,-3,-4,-3,0
1558434729651385,2,3,5,7,10,10,6,3
1558434729651385,-2,-2,0,2,0,-2,-1,1
1558434729665346,-5,-7,-15,-9,-8,-12,-5,-3
1558434729665346,-1,0,4,0,-8,-7,-1,-1
1558434729672329,-5,-10,-12,-17,-12,-5,-8,-6
1558434729672329,0,-2,-2,-14,9,5,1,-1
1558434729679380,0,4,6,8,-1,3,0,1
1558434729679380,-1,-1,11,19,5,-1,0,-1
1558434729688282,-2,-3,-9,-9,-13,-12,-4,-1
1558434729688282,-1,-2,3,8,3,6,6,-1
1558434729702245,-2,-1,-5,-13,10,10,4,-3
1558434729702245,-2,0,-1,12,14,14,7,4
1558434729711221,-3,-1,-1,-10,-17,-12,0,-1
1558434729711221,1,1,-1,-5,4,7,-1,-1
1558434729725184,2,4,20,32,11,-5,-3,0
1558434729725184,1,0,-11,-14,-7,-1,0,0
1558434729732165,0,-3,-6,9,2,-1,-2,-1
1558434729732165,-2,-4,-13,-16,-8,0,0,0
1558434729749122,-1,1,0,4,1,3,0,0
1558434729749122,-2,-4,3,-12,-15,-13,-8,-4
1558434729754105,2,3,7,12,18,5,-1,-2
1558434729754105,-1,-1,0,0,-8,-12,-7,-3
1558434729762091,1,1,8,8,-6,2,2,-1
1558434729762091,0,0,6,4,-4,-5,-8,-4
1558434729771060,-3,-6,-12,-14,0,-1,1,-1
1558434729771060,-3,3,4,7,3,-5,-1,2
1558434729793004,0,2,11,21,11,8,2,4
1558434729793004,1,0,-9,-22,-8,1,3,4
1558434729795000,-3,-2,10,5,-10,-3,-3,-3
1558434729795000,-1,0,0,-1,8,0,-1,-4
1558434729808972,-1,-4,-18,-54,-27,-9,-4,-2
1558434729808972,-2,-2,-3,18,7,-3,-6,-5
1558434729809959,1,0,4,-2,-7,-8,-4,-2
1558434729809959,-3,-4,-5,14,6,7,0,-2
1558434729821957,-1,1,1,-11,13,5,2,0
1558434729821957,-4,-4,-7,-1,2,-3,0,-4
1558434729830924,-3,-5,1,-6,-9,-8,-5,-7
1558434729830924,2,5,15,19,5,6,0,1
1558434729844865,-3,-4,-14,-5,-4,2,-4,-2
1558434729844865,0,-2,-7,-20,-5,1,2,-1
1558434729851845,-1,0,1,15,-3,-4,-7,-5
1558434729851845,-2,-3,-7,-1,-2,-2,6,-2
1558434729868798,-2,-5,-9,-8,-10,-5,4,2
1558434729868798,5,5,2,9,11,3,1,4
1558434729870798,-4,-6,-2,-9,-9,-8,-7,-4
1558434729870798,1,-3,-5,-9,-6,-1,-3,-3
1558434729881766,0,1,3,3,4,2,-2,0
1558434729881766,-3,-1,9,23,6,2,1,-2
1558434729890742,-1,2,-1,0,1,10,5,2
1558434729890742,2,-2,-11,-35,-10,-6,-8,-1
1558434729905700,-2,-2,-8,-6,-1,-8,1,4
1558434729905700,1,1,13,33,7,4,3,-1
1558434729911688,-3,-5,-15,-23,-8,1,1,3
1558434729911688,-2,0,3,5,-1,-2,-1,-1
1558434729928640,-4,-4,-9,-7,-20,-11,-13,-8
1558434729928640,-3,-3,-7,-6,3,2,-1,-2
1558434729929639,3,3,14,17,18,12,13,3
1558434729929639,-2,-1,0,13,10,8,4,4
1558434729941605,1,1,4,-17,-6,-6,-1,-1
1558434729941605,-3,-3,-6,-5,-2,-5,-6,-4
1558434729950581,-1,1,-5,9,2,4,0,0
1558434729950581,-1,0,-3,-8,1,-1,-6,-2
1558434729965540,-2,-3,6,7,-3,-5,-2,-4
1558434729965540,-1,-2,2,-10,-10,1,4,1
1558434729972527,4,5,11,15,20,-1,7,6
1558434729972527,-2,-1,-1,4,-6,-2,-5,-5
1558434729988479,0,-1,0,-6,1,7,2,0
1558434729988479,-1,-1,-5,7,-9,-8,-3,-2
1558434729989475,2,2,2,-7,11,8,0,2
1558434729989475,1,-3,-8,-2,0,-3,2,-2
1558434730002442,-1,-2,2,12,2,-2,-6,-4
1558434730002442,-2,0,0,-9,1,1,-5,-4
1558434730011417,-4,-3,0,6,-10,-8,-4,-4
1558434730011417,-2,-1,-6,-6,4,4,0,3
1558434730025380,-3,-2,-4,7,1,1,4,-2
1558434730025380,-1,0,-4,-8,1,0,3,6
1558434730032361,0,-1,-3,-1,-13,-15,-8,-4
1558434730032361,-1,-3,1,-10,-10,-4,-3,-3
1558434730048318,1,-1,7,16,12,13,7,6
1558434730048318,1,-1,1,2,5,8,2,1
1558434730050314,0,-1,-5,-2,8,8,4,3
1558434730050314,-2,0,8,1,-9,-15,-6,-5
1558434730062282,-2,-2,-2,-6,-4,-10,-3,-2
1558434730062282,-4,-6,-5,1,1,-2,-6,-3
1558434730071260,-2,-2,-8,-9,-1,-1,-2,-4
1558434730071260,-2,0,0,-3,-11,-2,-2,-1
1558434730085226,-1,0,3,-6,2,-2,1,-1
1558434730085226,1,1,9,6,0,-3,0,0
1558434730092201,-3,-4,-8,-4,-2,7,4,2
1558434730092201,-1,-3,-5,0,2,4,-1,2
1558434730108160,0,1,0,-5,-4,-8,-8,-3
1558434730108160,-3,1,-4,-6,-13,-8,-5,-5
1558434730110154,-2,-2,-3,-6,-3,-6,0,1
1558434730110154,1,3,1,2,1,6,4,0
1558434730122124,1,1,-2,9,6,6,-1,2
1558434730122124,-3,-7,4,-6,-6,-3,1,-4
1558434730131097,-3,-3,-3,-10,-10,-5,-6,-4
1558434730131097,-3,-6,-5,-2,0,-3,1,-1
1558434730145060,0,-1,-3,3,1,0,0,-1
1558434730145060,4,3,-3,-2,-3,-4,-1,2
1558434730152041,2,1,4,4,-1,-3,-7,-4
1558434730152041,1,3,1,-8,-7,-5,1,2
1558434730168001,-1,1,3,17,12,9,-1,0
1558434730168001,-5,-2,-7,-30,-7,-4,-1,-6
1558434730169994,-3,-2,-6,-7,-3,-2,0,0
1558434730169994,-1,-3,-5,-3,-1,-4,-4,-1
1558434730181961,-2,0,-3,-2,-3,2,-2,0
1558434730181961,2,0,14,23,-1,-2,-3,3
1558434730190937,1,0,2,-1,9,5,3,0
1558434730190937,0,-2,2,-3,-2,-1,2,-2
1558434730204899,-1,-2,-2,-2,-3,-4,0,-2
1558434730204899,-2,0,0,3,6,2,-2,-2
1558434730211881,1,-2,-6,-10,-7,-3,0,-3
1558434730211881,-2,-2,6,12,4,-3,2,0
1558434730228836,-4,-1,5,-1,-7,-8,-2,-2
1558434730228836,-2,-4,-13,-15,-5,0,4,2
1558434730229834,0,-1,-3,0,3,-1,0,3
1558434730229834,-2,-3,2,4,4,-3,-3,1
1558434730241805,4,2,17,16,2,0,-2,1
1558434730241805,1,-5,-13,-13,-5,-2,-3,1
1558434730250778,-1,-2,-1,-4,0,1,-5,-4
1558434730250778,-1,-2,-8,-10,-9,-3,-4,-2
1558434730265739,-1,-1,-5,-5,2,-3,-2,-3
1558434730265739,-3,-1,1,11,6,5,2,-2
1558434730271720,-2,1,-2,9,1,1,-1,-1
1558434730271720,-1,0,-3,-3,-5,0,-1,-2
1558434730288675,-3,-6,-5,-20,-7,-3,0,-2
1558434730288675,-3,1,-6,-4,1,-1,0,1
1558434730289683,0,-1,-2,5,0,-4,-1,3
1558434730289683,1,-1,-1,6,1,0,1,-3
1558434730301643,-1,-1,-9,-15,-6,-4,0,-6
1558434730301643,1,-1,-1,2,4,2,2,1
1558434730310628,-2,-3,-3,-13,-5,-3,-1,-3
1558434730310628,0,-1,1,3,3,-3,0,-2
1558434730325582,2,0,-5,-9,-2,-1,0,3
1558434730325582,-1,1,7,6,-2,-6,-4,-2
1558434730332562,2,2,9,20,4,5,3,4
1558434730332562,3,3,4,-10,7,7,-2,3
1558434730348515,-3,-6,-5,-2,0,-2,-4,-3
1558434730348515,1,1,6,19,4,4,-1,-2
1558434730349513,-1,-2,-8,-16,-7,1,-2,-1
1558434730349513,-3,-2,3,10,0,-1,-1,-2
1558434730362478,-3,0,-10,-7,-8,-1,3,2
1558434730362478,-2,-3,-6,-1,2,-2,0,1
1558434730371454,-4,-3,1,-2,-3,-8,-2,-2
1558434730371454,-7,-5,-4,-16,-13,-12,-4,-2
1558434730385417,0,0,10,25,6,6,0,-1
1558434730385417,5,3,3,-3,7,11,3,2
1558434730392403,-1,0,-1,7,7,4,1,-3
1558434730392403,-1,-3,-9,-10,0,1,-2,0
1558434730408356,2,-1,-4,-6,-5,-7,-4,-2
1558434730408356,-3,1,5,6,-2,-3,-1,1
1558434730410350,-5,-4,-2,-17,-7,2,-1,1
1558434730410350,2,4,7,10,8,1,1,1
1558434730422319,-2,-4,-7,-3,-10,-3,2,-3
1558434730422319,2,0,-6,-8,-6,-12,-8,-2
1558434730431303,-1,2,7,8,1,0,1,-1
1558434730431303,2,5,10,29,10,9,2,-1
1558434730445258,-4,-4,-2,-15,-5,-7,-6,-2
1558434730445258,1,4,0,-9,4,4,-1,0
1558434730452238,-3,-6,-9,-6,-16,-10,-8,-4
1558434730452238,0,-3,-1,-4,-8,-5,-3,-4
1558434730468210,0,-1,-12,-11,3,-2,-1,-1
1558434730468210,-1,-5,-2,-4,-2,-1,2,-3
1558434730470191,-1,-1,-3,12,3,2,1,0
1558434730470191,-4,-2,1,-14,-7,4,5,0
1558434730482159,-2,-2,2,11,4,1,-5,0
1558434730482159,3,-1,-1,-8,-3,-4,-4,-1
1558434730491134,5,3,6,0,1,-2,3,-2
1558434730491134,-2,-1,1,12,9,4,2,0
