timestamp,emg1,emg2,emg3,emg4,emg5,emg6,emg7,emg8
1558442309664196,-1,-1,-3,0,0,-5,3,5
1558442309664196,-2,-1,-1,-3,-3,-3,-2,-6
1558442309665194,-1,0,1,0,0,3,-1,-3
1558442309665194,-1,-1,0,1,3,2,1,0
1558442309666199,0,0,2,0,4,7,3,-1
1558442309666199,-1,0,-2,-2,-3,-4,0,4
1558442309669182,1,-3,-1,-2,-3,-5,-2,-1
1558442309669182,-6,-5,-5,-4,-10,-11,-8,-7
1558442309676164,-4,-3,-1,-1,-2,-1,-2,-3
1558442309676164,-2,-2,0,0,4,6,2,2
1558442309684144,0,2,4,1,3,5,-1,-4
1558442309684144,0,-1,-4,-2,-2,-10,-2,5
1558442309692121,-2,-2,-1,-3,-7,-9,-5,-4
1558442309692121,-1,1,-1,0,2,1,1,-2
1558442309706084,-1,-3,-1,-1,-1,-2,-2,-1
1558442309706084,2,1,0,0,0,0,3,1
1558442309714078,-1,2,-1,-2,-7,-2,-1,-1
1558442309714078,-2,-3,-3,0,0,3,-3,-4
1558442309721043,0,1,-1,2,5,-1,1,8
1558442309721043,-4,-3,-2,-1,1,5,-2,-12
1558442309736003,0,0,-3,0,3,-1,-4,1
1558442309736003,0,1,1,-1,1,-7,0,0
1558442309782878,0,0,3,0,3,1,-1,-3
1558442309782878,-1,0,-1,-4,-4,-3,-3,-2
1558442309782878,0,0,-1,0,1,0,1,-1
1558442309782878,2,1,1,1,6,3,-1,0
1558442309783876,0,-2,-3,-2,-9,-8,1,0
1558442309783876,0,-2,0,1,-3,-3,1,0
1558442309784873,1,1,3,0,7,2,3,2
1558442309784873,-1,-3,-2,0,-2,1,-2,-5
1558442309795843,1,-3,-1,-1,2,3,1,4
1558442309795843,-1,-1,2,-1,-3,-2,-5,-6
1558442309802840,-1,-1,-2,-3,-9,-10,-6,-1
1558442309802840,0,-2,0,1,0,3,-1,-3
1558442309811803,-1,-1,-3,-2,1,-1,-5,-3
1558442309811803,-1,-2,-1,-1,-2,1,3,1
1558442309826761,0,-1,-1,-3,-1,1,3,7
1558442309826761,-4,-1,-2,0,-1,-1,-3,-6
1558442309832745,-1,-1,1,-1,0,-2,-2,0
1558442309832745,-1,-1,-1,-1,-2,-6,-4,-2
1558442309840724,0,-2,1,0,3,5,0,-3
1558442309840724,-1,-2,-2,-6,-7,-10,-5,0
1558442309855685,-1,2,0,2,2,4,2,-1
1558442309855685,-3,-1,0,0,-1,0,-2,-4
1558442309863662,-2,-1,-4,-1,-1,-9,-3,-2
1558442309863662,-3,-3,-2,-3,-5,-1,4,2
1558442309871643,-2,0,3,-2,1,-3,0,-1
1558442309871643,0,-4,-10,-1,7,7,3,3
1558442309886601,-2,-4,0,-1,-5,0,-4,-5
1558442309886601,2,0,-1,0,1,1,1,9
1558442309893581,-2,-2,-4,-3,-2,-1,-8,-11
1558442309893581,-1,2,2,-1,-2,2,1,-5
1558442309900563,-3,-3,-3,-2,-5,-5,-8,-7
1558442309900563,-3,0,-1,0,-2,-8,-1,-3
1558442309923501,0,0,1,-1,-2,3,4,3
1558442309923501,1,1,0,2,4,-2,3,5
1558442309924500,0,1,-1,-3,-3,-3,-5,-2
1558442309924500,-1,-1,-1,-1,-4,-2,0,-1
1558442309932478,1,-1,-1,0,-7,-9,0,2
1558442309932478,-1,-3,-1,-2,-2,4,-2,-5
1558442309946440,0,0,1,1,11,4,3,0
1558442309946440,0,-1,-1,1,0,-1,-4,0
1558442309953434,-2,1,-1,-1,5,8,4,-2
1558442309953434,-3,0,-3,-3,-5,-3,-3,-1
1558442309969380,-2,0,0,-1,-2,-5,3,1
1558442309969380,1,0,1,-2,6,5,0,1
1558442309975363,-3,-4,2,0,-7,-7,-7,-9
1558442309975363,1,-1,-5,-2,-8,-5,-5,0
1558442309983341,-5,-2,-1,-1,1,4,2,-2
1558442309983341,3,5,3,4,7,8,7,1
1558442309992318,-1,-1,-4,-3,-2,-5,-2,3
1558442309992318,0,1,3,-1,0,2,5,5
1558442310006279,-2,-2,-3,0,-3,-3,-5,-10
1558442310006279,2,0,0,-1,-1,0,5,1
1558442310013262,0,-2,0,1,-3,0,-3,-1
1558442310013262,0,-1,-3,0,4,2,0,4
1558442310020244,0,-1,0,0,-6,0,-1,0
1558442310020244,2,-2,0,0,7,-1,-1,-1
1558442310035204,0,0,0,1,1,4,1,-1
1558442310035204,-2,0,0,-2,-6,-9,-2,-2
1558442310043182,-1,-2,-2,-1,1,-1,-6,3
1558442310043182,-4,-2,-2,-2,-8,-7,-8,-9
1558442310052158,-1,0,-5,-3,-1,4,-2,1
1558442310052158,0,-3,-3,0,-3,-6,-3,-5
1558442310066121,0,0,0,-3,-3,-1,1,-1
1558442310066121,-3,0,-1,0,2,5,-3,-3
1558442310073102,-1,-3,-2,-3,-4,-4,-1,5
1558442310073102,-3,1,2,0,4,5,-2,-7
1558442310081081,3,0,2,1,2,1,2,-2
1558442310081081,-1,-3,-3,-4,-9,-12,-4,0
1558442310096040,1,0,-1,-1,4,9,2,-1
1558442310096040,-1,0,-1,0,0,-6,-3,7
1558442310103023,-2,-1,0,-1,-1,-1,-2,-2
1558442310103023,0,0,-2,0,-4,0,-5,-1
1558442310111998,0,0,-2,-1,-4,-6,-2,-2
1558442310111998,-1,0,2,2,7,6,2,1
1558442310125962,1,-1,-2,-1,1,-2,-1,1
1558442310125962,-1,0,-2,-1,-3,-3,2,1
1558442310132942,-3,-4,-3,-5,-6,-10,-6,-3
1558442310132942,-2,-2,2,-2,-1,5,0,-4
1558442310140920,-2,0,0,0,1,8,5,1
1558442310140920,-3,0,0,0,3,-2,-2,-2
1558442310156879,4,3,1,1,9,11,6,6
1558442310156879,1,1,-1,-3,-7,-11,-4,-4
1558442310162861,-3,-3,-3,-1,-6,-7,-6,-6
1558442310162861,-2,-2,-2,-3,-2,1,3,0
1558442310171843,-4,-1,-3,-1,-1,0,-1,-2
1558442310171843,1,-2,1,-2,0,2,-2,2
1558442310186797,-1,1,-3,-1,-4,-7,-6,-5
1558442310186797,0,-1,-2,0,2,4,-1,0
1558442310192783,1,-2,0,1,5,6,2,0
1558442310192783,-3,-4,-3,-1,0,0,1,-5
1558442310200760,2,-3,-2,-3,-8,-6,-3,0
1558442310200760,-2,0,1,-2,-7,-6,-5,-4
1558442310215722,0,1,1,1,5,4,4,2
1558442310215722,0,0,-2,-1,3,3,1,4
1558442310222704,-4,-1,0,-1,3,11,6,0
1558442310222704,-3,-4,-3,-4,-6,-10,-2,-2
1558442310231678,-1,0,-1,-3,-10,-14,-9,-5
1558442310231678,-1,-2,-3,-1,-8,-2,-3,-4
1558442310246638,-1,-1,0,-4,1,-2,-3,0
1558442310246638,0,0,0,1,10,10,5,1
1558442310253621,1,-3,1,-1,-2,-7,2,4
1558442310253621,0,0,1,-1,-1,-5,-3,-4
1558442310260600,-1,-2,-3,0,-5,-2,-1,-4
1558442310260600,-2,0,-2,-2,-7,-4,-6,-4
1558442310275560,-1,0,-3,-1,2,-1,2,1
1558442310275560,-2,1,0,1,1,3,-2,-4
1558442310283541,0,1,1,1,4,5,-1,2
1558442310283541,-2,-2,-1,-2,-6,-4,-5,-4
1558442310292515,-4,-1,-4,-3,-9,-6,-4,-2
1558442310292515,-1,-1,0,-2,-4,-9,-2,1
1558442310306480,-2,1,-4,-3,-1,2,1,-4
1558442310306480,0,0,-2,0,5,3,3,4
1558442310313459,0,1,1,2,6,10,6,-2
1558442310313459,2,-3,-4,-1,1,4,0,2
1558442310320439,-1,-1,1,1,-2,-10,-3,-2
1558442310320439,0,-2,-2,-3,-10,-14,-6,-2
1558442310335400,-1,-1,1,0,1,3,-4,-2
1558442310335400,2,0,-1,1,8,11,5,0
1558442310343378,-1,-2,-4,-2,-6,-5,0,-2
1558442310343378,-1,-1,0,-3,-3,0,1,6
1558442310352356,-2,-2,-1,0,-3,1,-4,-6
1558442310352356,-2,1,1,2,4,-2,-1,-4
1558442310366318,0,-1,1,-2,2,-1,0,3
1558442310366318,0,-2,0,-3,-7,-2,2,-4
1558442310373299,3,0,1,-1,1,5,3,4
1558442310373299,-1,-1,-1,-1,1,1,-4,0
1558442310389256,1,-2,-3,-1,-2,1,-2,-1
1558442310389256,-2,1,0,2,8,15,11,4
1558442310395240,0,1,4,0,6,1,-2,-2
1558442310395240,-3,-3,-4,-4,-11,-8,-3,0
1558442310403220,-4,-2,-1,-1,-6,-14,-6,-4
1558442310403220,0,-1,2,0,0,-2,-3,-1
1558442310412194,-2,0,-3,0,1,2,-7,-3
1558442310412194,0,1,-1,-2,1,2,-2,-3
1558442310426157,1,0,-1,-1,-5,0,-2,5
1558442310426157,1,-2,-1,-2,-3,-3,-1,3
1558442310433138,-1,0,-1,-1,-2,-6,-1,-7
1558442310433138,-2,-1,0,-1,-1,-6,0,0
1558442310449097,-3,-1,0,-4,-4,2,-4,-4
1558442310449097,0,0,0,-1,2,4,0,-2
1558442310456078,-1,0,-4,-1,0,-7,0,4
1558442310456078,1,1,-1,2,8,8,4,2
1558442310463059,-1,-1,1,1,2,0,5,4
1558442310463059,-2,-3,-2,-1,-1,1,-5,-4
1558442310472036,0,-3,-1,-4,-8,-2,-1,-1
1558442310472036,-2,0,0,-1,-6,-9,-6,-1
1558442310485997,-1,-1,-1,-1,1,1,-2,-7
1558442310485997,0,0,0,2,5,-1,-2,-2
1558442310492979,1,0,1,-2,-2,-4,-3,-2
1558442310492979,1,-2,-1,-2,-3,1,3,2
1558442310508937,0,2,0,1,2,5,4,1
1558442310508937,0,-1,-3,-4,-8,-6,-2,0
1558442310515918,-3,-1,1,1,3,1,1,0
1558442310515918,1,-1,0,-2,1,-4,-3,-2
1558442310522914,-2,-1,-2,-4,-8,-5,-7,-2
1558442310522914,-4,-2,-2,-1,3,3,-2,-7
1558442310531875,3,0,2,3,7,8,5,4
1558442310531875,-2,-2,-3,-3,-8,-5,-6,-4
1558442310546835,0,0,1,0,1,0,4,4
1558442310546835,1,0,0,1,5,-1,0,6
1558442310552818,-1,-3,0,-3,-6,-7,-6,-8
1558442310552818,-3,-2,-3,-1,-2,2,-2,-2
1558442310568776,0,-3,-3,-3,-4,2,-2,-2
1558442310568776,-3,0,1,0,0,-3,0,-1
1558442310583738,0,0,-2,-1,1,1,0,1
1558442310583738,-2,-2,-1,-3,-6,-1,-2,-4
1558442310584734,-1,1,-3,1,6,2,4,6
1558442310584734,-1,-1,-1,-4,-11,-14,-9,-6
1558442310591715,-3,-5,-6,-2,-1,-3,-4,-5
1558442310591715,2,1,1,1,8,10,6,1
1558442310606674,1,-1,-1,0,0,2,3,2
1558442310606674,-3,-3,-1,-2,4,5,-3,-5
1558442310612659,-4,0,-1,-3,-11,-14,-6,-4
1558442310612659,-2,-1,0,0,-3,0,-1,0
1558442310628616,-2,0,0,0,4,3,1,-3
1558442310628616,3,3,0,2,7,9,9,6
1558442310635598,0,-1,-1,-5,-12,-8,-5,-1
1558442310635598,-4,-3,0,-1,-4,-7,-6,-9
1558442310643576,0,-5,-3,-1,-1,-5,-4,1
1558442310643576,-1,0,0,2,2,6,4,-3
1558442310667514,2,-1,-1,0,7,8,5,8
1558442310667514,2,1,0,0,4,-1,3,2
1558442310667514,0,-2,0,-5,-12,-13,-9,-3
1558442310667514,-1,1,-1,-2,-3,-8,-3,-2
1558442310673501,-1,1,1,1,3,5,4,1
1558442310673501,-3,-1,-2,-2,-1,-2,1,3
1558442310688457,-3,0,0,0,5,1,-4,-10
1558442310688457,0,-1,-3,-2,-3,2,-3,-1
1558442310695437,0,0,0,0,0,2,-1,-6
1558442310695437,-3,-2,-3,-3,-4,-4,-6,-4
1558442310703415,2,1,2,0,-3,1,1,4
1558442310703415,-1,-2,2,-2,-1,-3,-1,-2
1558442310718382,-1,-2,-1,-2,-5,-5,-4,-4
1558442310718382,1,-3,-4,-2,-7,-4,-3,1
1558442310726359,-1,-1,-1,1,5,-1,0,0
1558442310726359,0,-2,0,0,1,2,1,0
1558442310733339,-3,-4,-2,1,-2,-3,-3,-4
1558442310733339,0,2,2,-1,1,0,0,0
1558442310749296,-3,0,-1,-2,-3,6,-2,-4
1558442310749296,-2,-2,-3,-3,-9,-10,-3,-2
1558442310755281,2,1,1,3,14,4,8,8
1558442310755281,0,0,0,0,1,1,-1,1
1558442310771239,-1,-2,-1,-1,2,2,0,2
1558442310771239,-3,-3,-5,-3,-6,-3,-9,-12
1558442310778226,-2,0,-3,-5,-10,-5,-5,-4
1558442310778226,0,-2,-3,0,3,1,1,-1
1558442310786195,-1,-1,0,-1,1,1,5,3
1558442310786195,0,-1,0,1,7,4,9,10
1558442310795172,-4,0,0,-2,0,-1,-6,-8
1558442310795172,-1,1,-3,-2,1,-1,-1,3
1558442310809504,-2,-1,-2,-2,-6,-11,-5,-4
1558442310809504,-1,0,-4,-3,-8,-7,-8,-4
1558442310816115,0,-1,-2,-1,-4,0,0,1
1558442310816115,-2,-3,-1,1,5,11,6,2
1558442310831088,2,0,1,1,6,0,2,0
1558442310831088,-1,-1,0,-1,-5,-6,-3,0
1558442310838257,0,-1,1,0,-2,3,1,0
1558442310838257,-3,-3,-2,-5,-6,-2,-8,-7
1558442310855142,2,0,-1,1,2,2,0,4
1558442310855142,0,0,1,2,13,15,8,2
1558442310856015,-1,-2,-2,-2,-8,-10,-5,-2
1558442310856015,0,0,3,-1,-3,-8,2,-1
1558442310869170,-4,-2,-4,-3,-3,-3,-3,1
1558442310869170,-2,-2,-1,-4,-4,-2,-2,-4
1558442310875958,-3,-1,-1,0,-1,-5,-4,-1
1558442310875958,0,0,0,-1,2,3,1,-3
1558442310891913,-2,-1,-1,1,-4,-1,1,-1
1558442310891913,1,1,1,-1,2,-1,-2,2
1558442310897896,-2,-5,-3,-1,3,9,2,1
1558442310897896,-2,-2,-4,-2,-10,-14,-5,-3
1558442310914853,1,0,1,0,-1,-8,-4,0
1558442310914853,0,0,-1,2,-2,2,6,3
1558442310915851,-2,-1,-3,-1,0,-3,-4,-4
1558442310915851,-1,0,2,0,-1,0,-1,-1
1558442310928814,1,0,-3,-2,2,3,1,-2
1558442310928814,-2,-1,1,0,-1,-5,-1,-2
1558442310935796,0,-1,-2,0,2,0,1,0
1558442310935796,-1,-1,1,3,3,6,2,1
1558442310951920,-2,0,0,-1,-1,-1,1,1
1558442310951920,-3,-3,-3,-2,-5,-2,-8,-2
1558442310958966,1,1,0,3,7,-4,3,1
1558442310958966,-1,-1,-3,-1,-1,-1,-1,3
1558442310974962,-2,-2,1,-1,-2,4,-1,-4
1558442310974962,2,2,2,-3,-6,-4,-2,5
1558442310975906,-4,-4,-4,-3,-5,1,-1,-2
1558442310975906,-2,-3,-2,0,-4,-10,-6,-2
1558442310989678,-1,0,-2,-1,-4,-2,-2,-4
1558442310989678,2,-3,-4,0,3,5,6,0
1558442310995884,1,1,-1,-2,-2,1,0,2
1558442310995884,2,-1,-2,-1,2,2,6,5
1558442311011618,-5,-1,0,-3,-8,-6,-6,-10
1558442311011618,-4,-1,-1,1,3,-3,-3,-4
1558442311018601,1,1,3,2,6,4,7,4
1558442311018601,1,-1,-5,-1,2,1,-3,0
1558442311034531,2,1,3,-3,-2,0,-2,2
1558442311034531,-1,-2,-7,-1,-5,-4,-4,-5
1558442311035528,-2,-3,-3,-3,-2,0,-2,-2
1558442311035528,-4,1,1,0,0,-5,-2,-3
1558442311048492,1,0,0,2,4,4,4,6
1558442311048492,-3,-3,1,-3,-4,-4,-5,-6
1558442311055475,-2,-3,0,-2,-4,3,-1,-5
1558442311055475,0,0,-2,0,-3,-9,-6,-4
1558442311071782,-1,-1,0,0,5,6,3,-2
1558442311071782,0,0,-4,-1,1,-4,0,5
1558442311078415,-2,0,-3,-4,-10,-8,-8,-6
1558442311078415,-2,-2,-1,-2,-5,-3,-4,-5
1558442311095410,-1,-2,-3,-2,-3,-4,0,0
1558442311095410,1,-2,4,1,3,4,-2,3
1558442311096547,1,-2,-1,-1,3,2,3,2
1558442311096547,0,0,4,0,4,5,3,-1
1558442311109333,-2,-5,-3,-3,-6,-6,-3,-1
1558442311109333,-2,-1,-9,-5,-7,-8,-3,-1
1558442311116610,1,-3,-7,-2,-8,-6,-7,-4
1558442311116610,1,1,0,-1,-1,3,0,-1
1558442311132294,0,2,4,2,4,15,9,5
1558442311132294,-2,0,5,2,4,1,-4,-1
1558442311138598,2,2,2,0,0,-8,2,3
1558442311138598,0,1,0,1,2,5,3,3
1558442311155450,-1,-2,-4,0,1,-8,-3,3
1558442311155450,1,-1,2,-2,-2,-2,-1,-6
1558442311156596,-5,-3,-2,-1,-4,0,-2,-3
1558442311156596,-2,-3,0,-1,3,7,3,-1
1558442311169483,1,0,-1,0,1,-3,1,1
1558442311169483,-3,1,2,-1,-7,-10,-9,-5
1558442311176414,1,-1,-2,0,-2,0,-2,-1
1558442311176414,-1,-2,-5,-3,-4,-3,-4,-1
1558442311192116,-1,-4,-1,-1,-2,-4,-4,-5
1558442311192116,0,-2,-1,-1,3,4,6,2
1558442311198107,3,1,7,0,1,-1,2,3
1558442311198107,-3,-3,-1,-1,1,3,-4,-4
1558442311215049,0,-1,-2,-3,-2,-1,-4,2
1558442311215049,-2,-2,-1,0,0,6,0,-8
1558442311216047,-3,-2,-1,-1,3,0,-2,-3
1558442311216047,0,0,0,-2,-6,-10,-2,0
1558442311229309,-2,-1,-6,-2,-1,2,1,0
1558442311229309,0,1,2,1,5,5,4,3
1558442311236201,-1,-1,-2,-4,-8,-8,-2,3
1558442311236201,-2,0,-2,0,-6,-7,-3,-3
1558442311252128,0,-1,-2,-1,1,3,-1,-5
1558442311252128,-1,-3,-1,0,-5,-2,-2,-2
1558442311258138,-3,-5,-11,-4,-1,2,-1,-1
1558442311258138,-1,-2,1,1,2,2,-2,-2
1558442311274903,-3,-2,-2,-1,-4,-11,-4,-5
1558442311274903,2,1,1,1,3,7,3,5
1558442311275888,-1,1,5,-2,-3,-3,-2,1
1558442311275888,-4,-5,-5,-5,-7,-5,-3,-2
1558442311289037,1,-1,-3,0,0,4,-2,-1
1558442311289037,-3,-3,-4,-3,2,0,3,3
1558442311295847,1,0,-4,1,7,8,7,-1
1558442311295847,0,-2,4,0,-3,-3,-4,-4
1558442311311802,-2,-3,2,-3,-10,-8,-7,-4
1558442311311802,-6,-4,-16,-4,-2,-6,-3,-4
1558442311318774,1,0,-1,0,-3,-6,-5,-1
1558442311318774,1,3,8,3,13,11,10,4
1558442311334728,0,2,-1,2,7,5,2,0
1558442311334728,-1,-2,0,-3,-4,-3,-3,-1
1558442311335726,-3,-2,-2,-4,-7,-8,-4,0
1558442311335726,-3,-4,-3,-3,-3,-3,-6,-7
1558442311347693,4,0,6,-1,-5,2,0,9
1558442311347693,-4,-1,2,0,0,0,-3,-7
1558442311356668,0,1,-3,0,2,-5,-1,-1
1558442311356668,1,0,-1,-3,-4,-4,1,1
1558442311371837,-1,1,1,2,11,4,5,1
1558442311371837,1,-2,-5,-2,-1,2,1,3
1558442311378609,-2,-2,0,-2,-7,-1,-5,-6
1558442311378609,-3,-3,-6,-3,-6,-8,-3,2
1558442311394566,0,-1,-2,-1,-1,2,4,-3
1558442311394566,-1,-1,2,-1,6,-2,1,1
1558442311395564,-1,2,8,2,2,-1,-2,0
1558442311395564,1,2,-7,0,4,3,2,3
1558442311408876,-4,-5,-2,-3,-8,-4,-5,-5
1558442311408876,-3,-4,-3,-5,-9,-7,-9,-5
1558442311417509,-1,0,-9,-2,2,9,6,4
1558442311417509,0,1,-1,0,1,-3,1,-3
1558442311431469,-3,0,2,1,5,3,2,-3
1558442311431469,-1,1,4,1,-3,-4,-2,-2
1558442311438812,-2,-3,0,-3,-4,-4,-6,1
1558442311438812,-3,-4,-3,-3,-6,-10,-6,2
1558442311455408,-1,1,-4,-2,1,3,5,4
1558442311455408,-1,0,3,1,3,5,-1,-5
1558442311456630,1,1,0,-1,-3,-5,-4,-5
1558442311456630,0,-3,-5,-2,-2,2,4,3
1558442311468627,-1,-2,-1,-2,-3,-4,2,-1
1558442311468627,-2,-1,-6,-2,1,2,-1,0
1558442311477349,-1,-2,1,1,4,1,1,-5
1558442311477349,-1,0,-3,-1,-3,5,-1,-2
1558442311491557,-2,-1,3,1,1,-2,-6,-4
1558442311491557,2,2,3,2,0,1,6,6
1558442311498290,-3,-3,-4,-3,-2,0,-7,-4
1558442311498290,-4,-1,1,-1,-3,-5,-2,-6
1558442311514248,-2,0,3,1,-4,-8,-4,0
1558442311514248,3,3,3,0,1,0,1,3
1558442311516252,-4,-5,-16,-4,3,3,0,-1
1558442311516252,-3,-1,2,-1,-1,1,-1,0
1558442311528242,-5,-7,-15,-4,-8,-6,-7,-4
1558442311528242,-1,-1,3,-1,-6,-5,-3,-2
1558442311537186,1,1,5,0,-3,3,4,5
1558442311537186,5,3,6,4,5,3,-3,-3
1558442311551148,-1,-3,-4,-3,3,1,1,-3
1558442311551148,-1,-1,3,-1,1,-2,-1,1
1558442311558146,-4,-2,-2,-1,-2,3,0,0
1558442311558146,-1,2,3,0,-2,-7,-1,1
1558442311574087,-2,0,-1,0,1,-5,0,1
1558442311574087,-3,-4,-2,-3,-4,-5,-4,0
1558442311576081,0,-3,-8,1,5,3,0,-3
1558442311576081,-2,-6,-10,-4,3,9,2,3
1558442311588049,-4,2,1,0,-4,-4,-2,-3
1558442311588049,-1,-1,-1,-3,-7,-6,1,1
1558442311597029,1,-1,2,-1,-8,-7,2,5
1558442311597029,-1,0,4,1,7,7,-2,-8
1558442311610992,0,-1,-2,-1,1,2,-3,-3
1558442311610992,-2,-3,-6,-1,-4,2,3,0
1558442311618228,0,1,3,-2,-1,-6,-5,-2
1558442311618228,0,-2,-3,-2,-5,-5,-1,1
1558442311634205,4,2,8,2,5,8,5,3
1558442311634205,0,-2,-13,-1,7,4,2,-2
1558442311640908,-4,-2,4,-1,-7,-9,-3,-7
1558442311640908,-3,-3,-8,-2,-5,-7,-3,-1
1558442311647893,2,3,5,0,10,11,2,0
1558442311647893,-2,-2,1,0,-3,-1,-3,-2
1558442311657163,0,-1,2,1,2,1,6,8
1558442311657163,1,-1,0,-2,-4,-6,1,2
1558442311672098,-2,-1,-2,-2,-7,-3,-6,-9
1558442311672098,-1,0,-5,-3,-2,-6,-2,-1
1558442311679006,0,-3,-1,-1,0,3,0,0
1558442311679006,2,2,5,2,10,7,2,1
1558442311694084,0,-3,-2,-1,-5,-2,4,5
1558442311694084,2,-1,-1,-3,-7,-3,-2,-1
1558442311701021,-1,-1,-2,-1,-7,-1,-4,-6
1558442311701021,-2,-2,-2,-4,1,-5,-3,-3
1558442311708435,-3,-3,-1,0,-2,-3,-3,0
1558442311708435,-3,0,2,0,-1,2,-1,-3
1558442311717131,1,-1,-4,-1,0,3,0,-1
1558442311717131,2,1,2,2,3,0,6,8
1558442311732191,-1,-3,-5,-4,-6,-12,0,-1
1558442311732191,-4,-4,-1,-1,-4,2,-9,-7
1558442311738041,-1,-1,-2,-1,3,4,-4,-2
1558442311738041,-1,0,-1,0,2,1,-1,-1
1558442311753999,-1,-2,-1,-2,-5,-4,-1,-3
1558442311753999,2,0,3,0,4,1,3,9
1558442311760981,1,2,4,-1,-4,-5,-4,-4
1558442311760981,-2,-5,-6,-4,-9,0,-2,-4
1558442311768271,-3,-3,-2,-1,6,8,3,-1
1558442311768271,2,3,1,1,3,-3,4,-2
1558442311777231,-1,0,-1,-1,5,7,4,3
1558442311777231,-4,-3,-1,-3,-9,-15,-9,-5
1558442311792223,0,-2,-4,-3,-3,-2,-7,1
1558442311792223,-3,-1,1,1,-3,-2,-6,-8
1558442311797882,-4,-5,-4,-4,-7,-10,-2,-3
1558442311797882,0,-1,0,0,-2,3,5,3
1558442311813839,0,0,-2,0,4,-3,-1,2
1558442311813839,-2,-1,-3,-1,0,5,2,0
1558442311821091,-2,1,1,-2,-2,-7,-1,-4
1558442311821091,-2,1,2,0,-2,-2,-7,-6
1558442311836838,-1,1,0,-3,-11,-7,-7,-2
1558442311836838,3,-1,3,3,9,17,10,5
1558442311838773,-1,0,-1,0,7,-6,-2,-2
1558442311838773,-2,-1,-3,-5,-8,-8,-5,-2
1558442311852049,2,-3,1,1,3,3,5,3
1558442311852049,-1,-1,4,1,0,-3,-1,-1
1558442311858877,-1,0,-6,-2,2,9,5,9
1558442311858877,-4,0,-1,3,9,8,2,-7
1558442311874704,-3,0,-3,-3,-10,-10,-9,-4
1558442311874704,-2,-2,-4,-6,-7,-5,-3,-2
1558442311888952,1,2,3,3,5,4,4,3
1558442311888952,0,-1,0,0,-2,-3,0,3
1558442311896616,-1,-2,-3,-3,-2,-4,-1,1
1558442311896616,2,0,0,0,1,2,-2,-2
1558442311898613,-2,-4,-2,-2,-7,-2,-4,-5
1558442311898613,-2,-1,-3,-3,-2,7,2,-3
1558442311911895,2,2,5,3,4,-1,1,0
1558442311911895,-3,-3,-8,-2,0,-10,-8,-7
1558442311918558,-2,-1,3,-1,-4,-1,-4,0
1558442311918558,-1,-4,-6,1,3,2,2,-2
1558442311934714,-4,-1,-6,-4,-7,-1,-2,-5
1558442311934714,-2,0,-2,-3,-10,-14,-6,1
1558442311940499,3,2,3,3,12,7,6,4
1558442311940499,0,-1,3,2,7,3,4,4
1558442311957452,2,-1,0,-3,-5,-6,-2,2
1558442311957452,-4,-2,0,0,5,4,2,-6
1558442311958452,-5,-1,-1,0,-9,-7,-9,-8
1558442311958452,1,0,0,-2,-2,-5,1,2
1558442311971744,0,1,-1,1,4,9,4,1
1558442311971744,1,-2,-1,-2,-1,3,3,-1
1558442311978738,-2,-3,-3,-4,-8,-9,-7,-5
1558442311978738,1,2,1,-1,-3,1,0,1
1558442311994692,-1,-2,2,1,6,4,3,1
1558442311994692,-3,-2,-9,-4,-5,-4,0,0
1558442312001497,-1,0,0,-4,1,-1,2,4
1558442312001497,-3,-4,-2,-4,-8,-12,-6,3
1558442312017608,-3,-3,-3,0,-3,0,-4,-8
1558442312017608,0,-3,2,0,-3,2,-2,-1
1558442312018292,1,3,0,0,0,-4,-3,1
1558442312018292,-2,-2,-4,-3,0,-1,0,0
1558442312032273,1,1,2,1,6,5,3,4
1558442312032273,-3,-2,-2,-2,-1,4,-4,-5
1558442312038565,-2,-1,2,-2,-7,-12,-4,-4
1558442312038565,1,-2,-1,2,2,6,6,0
1558442312054196,-2,-2,1,-1,-3,-6,-4,-4
1558442312054196,-2,2,4,0,-4,-8,1,2
1558442312061451,-2,-2,-5,0,4,12,6,1
1558442312061451,0,3,4,1,3,5,3,-2
1558442312077378,-4,-5,-6,-3,-6,-13,-10,-4
1558442312077378,1,0,1,1,7,4,2,2
1558442312078133,-1,-5,-1,-1,1,3,0,-3
1558442312078133,1,2,2,-1,-7,-5,-3,-2
1558442312091096,-2,1,-3,0,0,3,3,-2
1558442312091096,-4,0,-3,-1,-6,-8,-6,-11
1558442312098079,-2,-2,-1,-1,-2,2,-3,-2
1558442312098079,1,0,-1,1,6,10,6,5
1558442312114037,0,0,1,1,-2,-3,-2,2
1558442312114037,-4,-1,-2,-2,-5,-11,-12,-3
1558442312121246,1,1,0,3,13,14,8,2
1558442312121246,-3,-3,-1,-2,-6,-3,-3,-4
1558442312137196,0,-1,-1,-3,-2,-1,1,-3
1558442312137196,1,-3,0,-1,-9,-12,-1,2
1558442312138994,0,1,-4,-2,-5,-3,-4,1
1558442312138994,0,-1,-4,-2,3,-3,-2,0
1558442312152124,2,-1,1,-1,7,10,7,5
1558442312152124,-3,-1,-3,-2,-2,5,2,-3
1558442312157917,-2,-3,2,-2,-3,-8,-4,-2
1558442312157917,-4,-3,-4,0,-3,-2,-6,-6
1558442312174225,-2,-3,-1,-2,-6,-6,-2,0
1558442312174225,-2,-1,0,-2,-1,6,4,4
1558442312180861,-2,0,0,-1,1,-2,6,0
1558442312180861,-2,-3,-1,-1,-3,-6,-7,-6
1558442312196811,1,1,1,-2,0,-1,-4,-2
1558442312196811,1,-1,-1,0,2,4,3,2
1558442312198807,-1,-1,0,0,-2,-10,-4,-2
1558442312198807,-2,-2,-5,-1,-4,1,-3,1
1558442312212104,0,0,-1,0,-4,-9,0,-3
1558442312212104,1,3,0,1,6,7,3,4
1558442312219022,-3,-1,-1,-1,-2,0,-3,-4
1558442312219022,-1,-1,1,-1,-1,-7,-2,-1
1558442312234059,-2,-2,-1,2,4,6,2,2
1558442312234059,-1,-2,-3,-2,-3,-3,-3,-2
1558442312241031,1,1,0,-1,-8,-6,-4,-6
1558442312241031,-1,-1,1,-2,-2,-8,-2,1
1558442312257708,-5,-3,-7,-2,1,6,-3,-5
1558442312257708,-1,-2,-5,-1,2,0,1,5
1558442312258649,0,-1,1,-1,2,6,5,4
1558442312258649,-2,-1,2,-1,-7,-2,-2,-3
1558442312271901,1,2,6,1,4,-3,3,4
1558442312271901,2,-1,-3,-1,2,-1,2,-1
1558442312278874,-5,-5,-5,-2,0,2,-1,-3
1558442312278874,2,-1,2,0,7,4,4,0
1558442312294577,-2,-2,1,1,-5,-1,-4,-4
1558442312294577,-3,-2,1,-2,-9,-11,-6,-2
1558442312300828,-1,-1,-4,-1,-3,1,0,0
1558442312300828,2,3,1,1,6,7,4,9
1558442312317690,-3,0,-1,-1,-1,-4,-2,-4
1558442312317690,-2,-1,4,-1,2,2,1,-5
1558442312318490,-3,-3,-8,-4,-6,-10,-3,-1
1558442312318490,-5,-4,-3,-5,-11,-3,-7,-4
1558442312330460,-2,-4,-2,-1,1,3,4,1
1558442312330460,-1,-1,-1,-1,1,-4,-6,-3
1558442312339626,-2,0,2,0,1,0,-4,-1
1558442312339626,-2,-2,-5,0,0,-5,-1,-3
1558442312353393,-2,-2,-2,-2,-5,-5,-2,-4
1558442312353393,1,-1,-3,-2,-9,-6,-2,-2
1558442312360380,0,-2,-1,-2,2,4,8,9
1558442312360380,-2,-1,-2,2,6,7,-2,-11
1558442312377335,0,-2,0,-1,2,0,-4,0
1558442312377335,0,1,2,1,3,4,0,0
1558442312378328,1,0,2,-2,-3,-8,-3,-1
1558442312378328,-3,-2,0,-2,-9,-3,0,1
1558442312391355,1,4,-1,-3,3,5,3,3
1558442312391355,-1,-2,3,2,1,0,-3,-5
1558442312399274,-5,-5,-10,-3,-5,-5,-6,-4
1558442312399274,-2,-1,-3,-2,-2,-1,-1,1
1558442312414231,-1,0,1,-1,-7,-5,-4,-6
1558442312414231,2,2,1,1,11,18,16,7
1558442312421367,4,1,4,1,1,-6,0,4
1558442312421367,2,1,-2,-1,-4,-9,-5,-4
1558442312437500,-3,-4,-8,-5,-5,0,-5,-2
1558442312437500,-2,-3,-3,-2,-5,-4,-3,-2
1558442312443499,-5,-2,3,-1,-1,-4,-5,-5
1558442312443499,0,1,0,1,4,1,3,-1
1558442312451132,2,-1,2,-1,3,6,2,4
1558442312451132,0,-1,-2,-3,-3,-5,-3,-2
1558442312459458,0,0,-3,-1,-4,-2,-5,-2
1558442312459458,-1,0,-2,-3,-2,-4,3,8
1558442312474414,-3,-2,1,0,2,5,-1,-12
1558442312474414,0,0,3,1,-1,-1,0,0
1558442312481052,-2,-2,-5,-1,2,8,0,-3
1558442312481052,-2,-5,-3,-3,-8,-4,-5,-4
1558442312497011,3,-1,-1,-1,1,0,5,2
1558442312497011,-2,-1,3,2,3,-7,-3,-1
1558442312498007,1,0,-1,0,-1,5,1,0
1558442312498007,0,-2,-4,-3,-9,-7,-6,-3
1558442312511283,-2,-1,-3,-2,-6,-6,-4,1
1558442312511283,-1,0,1,1,3,1,-2,-2
1558442312535158,0,1,3,0,3,1,2,3
1558442312535158,0,0,2,-1,2,5,0,-1
1558442312535158,-2,-1,-1,-3,-5,-4,-1,-1
1558442312535158,-3,0,1,-1,-6,-3,-3,-3
1558442312541133,0,-3,-9,-3,-5,-2,0,0
1558442312541133,0,0,-1,-2,0,-3,1,0
1558442312557111,3,3,3,2,12,14,9,10
1558442312557111,-3,-1,-1,-2,-4,-4,-4,-6
1558442312562868,0,-1,0,-1,-1,0,6,12
1558442312562868,-5,-5,-1,-1,0,-4,-9,-15
1558442312570813,-2,-3,-2,-1,-3,-1,-3,-1
1558442312570813,2,0,-6,-4,-2,-4,2,1
1558442312579789,0,-1,0,-2,-5,-12,-8,-5
1558442312579789,0,0,2,-2,2,2,3,4
1558442312593778,-1,-1,-3,3,3,2,0,0
1558442312593778,-2,-5,-2,-3,-2,5,2,0
1558442312600731,-4,-4,-1,-4,-7,-6,-6,-7
1558442312600731,1,0,-1,1,-2,-1,3,1
1558442312616688,-2,0,3,-2,-5,-12,-9,-4
1558442312616688,0,-1,-6,-2,-1,1,-1,1
1558442312631649,-1,-1,2,0,1,3,-1,0
1558442312631649,-2,-1,-1,0,0,1,-3,-5
1558442312631649,1,0,2,1,-2,-1,2,3
1558442312631649,-2,0,-4,0,-1,-1,-1,-2
1558442312639628,-1,-2,-1,-2,-1,-3,-6,-4
1558442312639628,0,-2,-2,-2,-3,-4,-3,0
1558442312653589,-2,-3,-3,-3,-5,-10,-8,-6
1558442312653589,-1,-2,-1,0,1,5,5,5
1558442312660922,-3,0,4,2,3,4,5,-2
1558442312660922,1,2,0,2,3,3,1,2
1558442312676982,0,-2,-1,-1,-2,-2,2,2
1558442312676982,-6,-5,-10,-7,-10,-14,-12,-8
1558442312683986,0,-1,1,-2,-3,3,-2,-2
1558442312683986,-1,-2,-1,0,3,1,-4,-1
1558442312690906,-1,0,4,2,5,-4,1,-1
1558442312690906,0,0,2,1,6,5,7,4
1558442312699781,-2,-1,-2,-2,-5,-2,1,0
1558442312699781,-1,-1,0,-2,3,3,2,0
1558442312713433,-2,-2,-5,-3,-6,-2,-2,-3
1558442312713433,-1,0,-5,-2,-4,2,-7,-2
1558442312721579,0,0,1,-1,-4,-10,-3,-2
1558442312721579,1,2,2,0,3,6,5,4
1558442312737126,-3,-1,-2,-1,-2,-4,-2,-9
1558442312737126,2,0,-1,-1,-5,-7,-3,0
1558442312743961,2,0,2,2,9,8,4,0
1558442312743961,2,-1,-9,-3,-5,0,2,2
1558442312759827,-1,-1,-2,-1,-4,-4,-2,-2
1558442312759827,-3,-2,-1,-1,2,1,-3,-3
1558442312760872,-3,1,1,0,3,6,2,2
1558442312760872,-2,1,1,0,-1,-9,-2,-1
1558442312773817,0,-2,-5,-4,-6,-11,-6,-1
1558442312773817,0,0,-1,-1,1,8,8,6
1558442312780769,2,-1,1,-2,1,-1,-2,-6
1558442312780769,-2,-2,0,0,-3,5,-2,0
1558442312796726,-2,-1,-2,0,1,5,-2,-4
1558442312796726,-1,-2,1,-2,0,-10,-4,-2
1558442312802711,-2,-3,-6,-2,-1,0,2,2
1558442312802711,-1,0,-3,-2,-4,-1,-1,-4
1558442312820032,-3,-2,-3,-2,-4,-7,-4,0
1558442312820032,-1,1,4,0,4,7,3,-1
1558442312820663,-1,0,-1,-3,-7,-2,1,2
1558442312820663,0,0,3,3,2,3,-3,-11
1558442312834627,-3,-5,-8,-1,4,9,3,1
1558442312834627,-2,-2,1,0,-3,-4,0,-1
1558442312840927,-4,-4,-8,-3,-4,-15,-6,-5
1558442312840927,-3,0,2,-2,-2,-4,-2,0
1558442312857107,-1,1,-1,0,-2,1,-2,-3
1558442312857107,-1,-2,-3,-1,-1,3,-1,0
1558442312862931,0,-2,-1,0,-4,2,-1,-2
1558442312862931,-1,0,0,0,3,-2,2,2
1558442312879848,-2,-2,-3,-2,-2,-3,-2,-1
1558442312879848,-4,-4,-4,-4,-7,-9,-4,-1
1558442312880842,0,0,0,3,3,7,4,0
1558442312880842,-2,-2,-4,-3,-3,-3,-3,-2
1558442312894293,0,-2,2,1,4,7,3,0
1558442312894293,2,1,1,0,-1,-2,0,3
1558442312901135,-2,0,1,-1,3,3,-3,-3
1558442312901135,-3,-3,-5,-2,-4,-3,0,-1
1558442312925033,-1,-2,1,-3,3,1,-1,1
1558442312925033,-2,-2,-3,-2,-7,-12,-11,-8
1558442312926720,1,0,3,1,3,4,-2,-4
1558442312926720,2,0,-2,-2,-2,3,5,3
1558442312939940,0,0,2,-2,-7,-5,-2,-3
1558442312939940,-1,-2,-1,1,7,6,4,4
1558442312940870,-1,0,-4,0,0,-11,-6,-2
1558442312940870,0,-1,-3,-4,-3,-1,-2,2
1558442312953680,-2,0,-4,-1,-3,0,2,-1
1558442312953680,0,0,3,2,1,3,1,-2
1558442312960633,-1,-4,1,-1,-5,2,-3,-3
1558442312960633,-1,-3,-3,-3,-1,-4,-2,-2
1558442312976590,-1,-1,1,-3,-9,-11,-4,3
1558442312976590,-3,0,-3,-1,8,8,3,-5
1558442312983575,-4,-3,-2,-1,-1,-2,-1,2
1558442312983575,2,3,6,2,4,4,-1,-2
1558442312999903,-3,0,-3,-2,-3,-3,-1,-2
1558442312999903,-1,-1,-2,-1,-4,-4,-1,-1
1558442313000524,0,1,-2,-1,-3,-1,1,4
1558442313000524,-2,-1,0,1,6,6,3,-3
1558442313013488,1,-1,3,0,3,6,-1,-1
1558442313013488,-1,-4,-3,-2,-7,-9,-4,-3
1558442313020470,2,0,0,-1,-3,-7,-6,-2
1558442313020470,-3,-2,-3,-2,-8,-7,-9,0
1558442313035877,0,-3,-4,0,2,3,2,-3
1558442313035877,0,1,2,0,2,5,4,2
1558442313043866,0,1,-1,-1,0,1,4,5
1558442313043866,0,-1,0,-2,0,-1,-2,-2
1558442313059555,-1,-3,-3,0,-1,0,-3,0
1558442313059555,-1,-2,0,-3,-8,-6,-9,-4
1558442313059555,-3,-2,-3,-2,-3,3,-1,-4
1558442313059555,-3,-4,0,2,-1,-3,-1,2
1558442313074638,2,3,6,1,4,1,2,4
1558442313074638,1,-1,-6,-2,7,4,6,5
1558442313080312,-1,0,1,-1,-1,-6,-5,-7
1558442313080312,-4,0,-3,-4,-6,-5,-4,-7
1558442313096269,-4,-3,-1,-1,-3,-4,-3,-3
1558442313096269,-2,-1,1,0,-3,3,4,-2
1558442313103248,3,2,0,1,11,13,9,6
1558442313103248,1,-1,-1,-3,-4,-7,-1,1
1558442313119237,2,3,1,1,2,-3,0,3
1558442313119237,-3,1,-2,-2,-4,-5,-7,-3
1558442313119237,-3,-4,-9,-2,-1,-2,-1,-3
1558442313119237,-1,-2,-1,1,-1,-1,-2,-3
1558442313143141,-1,-2,-4,-2,-6,-3,-1,1
1558442313143141,-2,-1,0,0,1,-4,-3,-4
1558442313143141,-1,0,3,1,-1,6,1,-1
1558442313143141,-1,0,-3,-1,-1,-6,-1,1
1558442313157104,1,-2,-4,-2,-1,-2,2,-2
1558442313157104,0,0,1,1,5,2,5,3
1558442313163087,-1,-2,-2,-1,4,-2,-2,-3
1558442313163087,0,-1,-1,-1,-7,-4,-3,-2
1558442313179046,2,0,-1,1,7,9,6,8
1558442313179046,-3,-2,-1,-2,-5,-1,-5,-9
1558442313179046,-5,-5,-3,-3,-6,-6,-4,-4
1558442313179046,0,1,-2,0,0,-3,4,5
1558442313194005,-2,-1,0,0,1,-2,-4,-9
1558442313194005,-1,1,0,1,-1,-1,-1,2
1558442313200986,-3,-3,-1,-3,-4,-2,-4,-3
1558442313200986,-1,-1,2,-3,-9,-6,-5,-4
1558442313216943,-2,-1,-1,-3,-1,4,5,0
1558442313216943,1,1,3,1,8,5,4,5
1558442313222929,1,1,-3,1,-3,2,1,-1
1558442313222929,-4,-3,-5,-4,-2,1,-1,-5
1558442313238927,-5,-3,-1,-3,-6,-12,-10,-3
1558442313238927,-2,-3,1,-3,-4,-5,-4,-3
1558442313239882,3,2,1,-1,-2,0,3,3
1558442313239882,-1,-4,-4,-3,-3,-3,-2,-3
1558442313254843,4,3,7,4,13,12,10,8
1558442313254843,-1,-2,-5,-1,1,0,0,-5
1558442313260827,-2,-3,-1,-4,-7,-4,-3,-1
1558442313260827,1,1,2,0,0,1,0,1
1558442313276787,-4,-2,-4,0,-2,0,-3,-4
1558442313276787,3,1,0,-1,1,-4,2,4
1558442313282768,-2,0,-3,0,0,-1,0,-5
1558442313282768,-3,-2,-1,-1,-2,0,-3,1
1558442313306706,1,0,0,-2,-1,-4,-1,2
1558442313306706,-4,-3,-4,-3,-6,1,-5,-9
1558442313306706,0,-1,1,-2,-1,-10,-2,1
1558442313306706,-3,-1,1,1,3,2,-2,-3
1558442313314707,1,-1,1,3,5,8,-3,-2
1558442313314707,-2,-2,-4,-4,-8,-5,-6,2
1558442313320700,-5,-1,1,-1,-3,-3,0,-1
1558442313320700,3,1,0,3,13,13,12,3
1558442313336658,0,-2,-2,0,-2,2,3,0
1558442313336658,-2,-2,-2,-1,-1,2,1,-3
1558442313342607,-1,-1,-1,-4,-2,-3,0,5
1558442313342607,-1,0,-3,-1,-7,-9,-4,-1
1558442313358564,-3,-2,-5,-4,-5,-5,-6,-8
1558442313358564,-2,-1,-5,0,-1,1,1,-2
1558442313359561,-3,-2,-2,-1,-5,-3,-5,-1
1558442313359561,-2,-3,-1,-1,1,2,-3,-3
1558442313374523,-2,-1,0,-1,0,-2,-1,2
1558442313374523,1,0,1,0,3,5,0,3
1558442313380507,-3,-2,2,2,4,3,-2,-3
1558442313380507,-3,-1,-3,-4,-9,-10,-9,-3
1558442313397478,0,-5,0,-3,-8,-13,-5,-4
1558442313397478,0,-1,1,0,4,9,7,2
1558442313403490,1,2,1,2,10,2,3,1
1558442313403490,2,-1,1,2,4,7,4,1
1558442313418466,-4,-1,-3,-3,-8,-6,-5,-5
1558442313418466,-1,-1,0,-3,-9,-9,-7,-6
1558442313419401,1,-2,-2,-2,-4,-6,-1,-1
1558442313419401,-4,-5,-6,-2,3,4,4,-2
1558442313441381,-2,2,0,0,4,0,1,-2
1558442313441381,2,0,0,3,5,-2,4,8
1558442313442342,-1,-1,0,-2,-5,2,-2,-3
1558442313442342,-2,-1,2,-1,-3,-4,-6,-5
1558442313457300,1,0,-2,0,2,-4,-1,1
1558442313457300,-4,-1,0,-2,-5,-8,-8,-6
1558442313463284,-3,-1,-1,-3,-6,-4,-2,1
1558442313463284,1,0,0,0,-1,3,7,0
1558442313478245,-1,-1,0,-2,-2,7,1,-3
1558442313478245,1,0,0,0,2,-1,-3,2
1558442313485259,-2,-3,-1,-1,-1,2,-1,-3
1558442313485259,0,-2,1,-3,-2,-6,-5,2
1558442313501184,-4,-3,-1,-2,-7,-5,-2,-3
1558442313501184,0,0,0,2,10,10,7,0
1558442313502209,0,-2,0,1,-2,-6,-2,-2
1558442313502209,-2,-1,0,0,0,-8,-1,4
1558442313517141,0,-4,-5,-3,-6,-3,-7,-2
1558442313517141,-1,-2,-2,-4,-11,-4,-4,-2
1558442313523158,0,2,2,5,10,12,7,-1
1558442313523158,1,2,0,0,-2,-3,-1,1
1558442313538084,0,0,-1,0,0,0,-1,1
1558442313538084,-1,-1,2,-1,-2,-1,-2,-1
1558442313545065,0,-4,-6,-6,-9,-13,-5,1
1558442313545065,-5,-3,-3,-1,-1,-4,-3,-8
1558442313561022,-4,-2,-3,0,6,11,5,-2
1558442313561022,1,1,5,2,-1,-1,-2,1
1558442313562019,0,-2,-5,-3,-1,-4,-1,2
1558442313562019,1,0,-3,-2,-1,-2,2,1
1558442313576982,0,-1,-1,-3,-6,-4,-3,-5
1558442313576982,-2,-1,-2,0,1,1,0,-2
1558442313582999,-1,1,1,0,1,3,-1,0
1558442313582999,0,0,1,0,3,-4,-3,0
1558442313597924,3,0,-1,1,1,1,3,3
1558442313597924,-2,-2,-4,-1,-5,-1,2,2
1558442313605905,-5,-5,-3,-2,-5,-7,-7,-5
1558442313605905,-2,-1,0,-3,-1,4,0,-4
1558442313620862,1,0,2,-1,-3,4,5,3
1558442313620862,-2,-1,3,-3,-5,-9,-5,-6
1558442313621859,-4,-3,-10,-3,3,2,1,-2
1558442313621859,3,1,2,5,14,16,7,7
1558442313636819,-3,-1,-4,-2,-6,-6,-1,-1
1558442313636819,0,-2,-3,-2,-4,-3,-2,-1
1558442313642845,0,2,4,2,1,3,-1,1
1558442313642845,-1,-2,-3,-3,-12,-10,-9,-3
1558442313657764,-4,-2,-2,-2,-1,-1,-3,-7
1558442313657764,-5,-4,-4,-1,1,-3,2,-1
1558442313665742,-1,1,0,0,2,-1,0,-4
1558442313665742,0,-2,-2,-1,-1,1,-2,3
1558442313681700,0,-1,0,1,-2,7,1,0
1558442313681700,-4,-3,-2,1,7,5,-2,0
1558442313681700,1,0,2,0,-2,-7,-3,-2
1558442313681700,-1,-2,-2,-3,-4,-3,-3,-2
1558442313696660,-2,-1,-1,-1,0,3,2,0
1558442313696660,1,-1,-3,-2,2,0,1,2
1558442313702643,2,1,6,0,4,6,5,2
1558442313702643,-1,-4,-6,-2,-2,1,-1,-4
1558442313717603,0,1,2,0,2,-2,-2,-3
1558442313717603,0,-1,-1,-1,-6,-6,-5,-1
1558442313725625,1,1,-2,-1,-3,-2,3,6
1558442313725625,-2,-1,0,-3,0,1,-1,-13
1558442313741582,-1,-1,-1,0,0,-2,-4,-1
1558442313741582,-1,-1,-1,0,-3,-6,-2,2
1558442313741582,-2,-2,-4,-4,-9,-8,-5,-5
1558442313741582,-3,-1,0,0,-3,-6,-3,-3
1558442313757497,0,0,0,1,5,3,0,0
1558442313757497,-1,-2,-3,-3,1,3,1,-1
1558442313763481,0,-3,-2,-2,-3,-1,1,1
1558442313763481,0,2,3,2,6,12,11,8
1558442313778440,-1,0,6,1,1,-7,-3,-3
1558442313778440,-1,0,-4,-1,-3,-6,-3,-3
1558442313785422,-1,-1,-3,-1,2,4,-1,-2
1558442313785422,0,-2,1,-2,-3,-3,1,1
1558442313801381,-3,-1,-6,-3,-8,-10,-6,-3
1558442313801381,-1,-2,0,-3,-2,-1,0,-1
1558442313802378,-3,-3,-2,-1,2,5,4,-2
1558442313802378,-2,-2,2,2,2,1,0,3
1558442313817338,0,-1,-1,1,2,0,1,1
1558442313817338,-5,-4,-2,-1,0,2,-4,-4
1558442313823355,1,0,-1,-2,-1,-1,-2,-2
1558442313823355,-2,0,-1,-2,-7,-4,-4,-1
1558442313838316,-1,-1,-2,-2,-4,-6,-4,2
1558442313838316,0,2,1,-1,1,-5,4,2
1558442313845263,0,-1,1,1,3,1,-5,-1
1558442313845263,-1,-2,0,1,5,2,-1,-5
1558442313862216,-3,-1,-3,0,1,2,4,2
1558442313862216,-2,-1,-1,-3,-12,-5,-8,-7
1558442313863214,-2,0,8,1,2,6,3,0
1558442313863214,1,0,-7,-1,4,-3,2,3
1558442313877178,-3,-3,-3,-1,-5,-11,-8,-7
1558442313877178,1,-1,-3,0,0,5,4,3
1558442313883161,-5,-2,-4,-4,-10,-7,-7,-5
1558442313883161,-3,-3,0,-1,-5,-2,-4,-4
1558442313898148,0,-2,-2,-2,4,3,1,2
1558442313898148,0,1,1,1,0,-1,0,-1
1558442313905129,0,-1,-1,1,3,2,-2,-1
1558442313905129,2,0,-1,-1,7,4,4,2
1558442313921094,-4,-4,-5,-4,-4,-6,-4,-2
1558442313921094,2,0,2,-2,-1,2,2,-1
1558442313922057,-3,0,-1,0,-4,-5,-5,-4
1558442313922057,-2,0,0,-3,-8,-8,-5,-2
1558442313937017,0,2,0,-2,-2,-2,2,6
1558442313937017,0,0,-2,1,4,4,-2,-1
1558442313943059,0,1,0,3,10,10,7,7
1558442313943059,2,0,1,-2,2,0,0,2
1558442313957962,-1,-1,0,0,-2,2,-2,-4
1558442313957962,-5,-4,-4,-3,-11,-10,-8,-5
1558442313965939,1,0,1,1,4,6,7,4
1558442313965939,-3,-2,-5,-2,-2,-1,-1,-1
1558442313980899,-2,-3,-2,-2,-10,-12,-6,-1
1558442313980899,2,2,5,2,4,1,2,2
1558442313981897,2,-1,-5,-2,2,3,5,0
1558442313981897,-6,-1,0,2,4,1,-3,-4
1558442313996858,1,0,0,0,-1,1,1,0
1558442313996858,-3,-1,-4,-3,-3,-8,-2,-3
1558442314002885,-1,0,-1,-2,-4,-3,-2,1
1558442314002885,2,-2,0,0,-1,1,2,-1
1558442314017801,-1,0,1,3,4,7,3,1
1558442314017801,-1,-2,0,-2,-4,-4,-4,-2
1558442314026084,0,-3,-4,-3,-4,-1,-4,-3
1558442314026084,-2,-1,-3,-3,-2,-3,-2,0
1558442314041533,0,1,-1,2,6,2,1,0
1558442314041533,0,-2,-6,-4,-3,0,-1,3
1558442314042172,1,-1,-1,-1,-6,-12,-5,2
1558442314042172,0,1,1,2,6,13,7,0
1558442314056740,-2,-4,-5,-3,-4,-7,-7,-5
1558442314056740,-3,-1,-1,-2,-1,-1,-2,-4
1558442314063522,-3,-4,-5,-3,-2,-4,-6,-5
1558442314063522,2,2,6,2,6,7,5,8
1558442314078786,2,2,5,2,7,4,5,5
1558442314078786,-1,-2,0,0,1,1,-1,-1
1558442314085493,-2,-2,-3,-4,-8,-7,-6,-3
1558442314085493,-4,-4,-5,-4,-10,-7,-7,-4
1558442314101710,-2,-1,-4,-5,-3,-9,-3,-2
1558442314101710,-1,-2,-3,1,-1,0,3,1
1558442314102420,-1,2,3,3,10,11,4,-2
1558442314102420,1,1,-2,-2,-3,-7,-3,0
1558442314117378,-2,-1,-2,-3,-2,2,-3,-5
1558442314117378,1,-1,2,0,1,-1,4,1
1558442314123362,-3,-1,-1,-4,-6,-8,-6,-2
1558442314123362,-1,-3,-2,-1,-5,1,-2,-1
1558442314138323,-2,-1,3,0,2,1,1,0
1558442314138323,0,1,-1,1,7,8,5,1
1558442314145304,-4,-2,-3,-1,-6,-7,-4,-5
1558442314145304,1,0,2,0,-1,-7,-2,-3
1558442314161261,0,0,-1,0,0,-2,-4,1
1558442314161261,0,-3,-3,-2,-1,-4,-5,-2
1558442314162259,-4,-2,-1,-1,-2,0,0,-5
1558442314162259,-2,-1,-3,-1,-7,-2,-2,-3
1558442314177218,-1,-1,-1,-2,0,2,5,2
1558442314177218,1,0,1,1,11,10,3,1
1558442314183201,2,-2,-1,-2,-4,-6,-1,2
1558442314183201,-4,-1,-1,-6,-9,-6,-4,-2
1558442314198162,-1,0,-2,-3,-4,-3,-6,-5
1558442314198162,0,-1,-3,-2,0,1,1,-2
1558442314205143,1,1,2,0,-3,-7,-4,-2
1558442314205143,1,-1,-1,0,3,0,5,4
1558442314221099,1,-1,1,0,4,0,0,1
1558442314221099,0,-2,2,-2,-1,8,5,2
1558442314222097,1,0,-4,1,2,2,-1,0
1558442314222097,-3,-1,-3,-1,-3,-2,-3,-4
1558442314237061,-4,-2,-3,-1,-2,-5,-4,-4
1558442314237061,-2,-2,-1,-1,4,1,3,0
1558442314243041,1,0,1,0,3,9,8,3
1558442314243041,-1,0,-2,-3,0,-1,-2,1
1558442314258000,-3,-3,-1,-2,-6,-5,-4,-7
1558442314258000,0,0,0,-2,-10,-6,-3,-2
1558442314265981,-1,0,-1,0,5,3,2,0
1558442314265981,-1,-3,-2,-1,0,-1,-1,2
1558442314280941,1,0,0,0,0,7,-1,-4
1558442314280941,-2,-2,-5,-4,-7,-16,-10,-5
1558442314281938,-2,0,0,-2,-7,-5,-7,-2
1558442314281938,-4,-4,-4,-1,-1,-1,-1,-6
1558442314296898,-1,-1,0,-2,0,1,1,3
1558442314296898,-2,1,0,2,4,4,2,1
1558442314302917,-1,-2,-5,-1,1,4,1,0
1558442314302917,2,-1,1,-1,3,3,2,1
1558442314317841,-2,-1,-1,0,0,-5,-2,-3
1558442314317841,-2,0,-2,-1,-8,-9,-7,-3
1558442314325878,0,-2,1,-1,3,2,1,4
1558442314325878,-1,-1,1,0,-3,-3,0,-2
1558442314340779,1,1,0,-1,-5,-1,0,-2
1558442314340779,0,-3,-3,-3,-3,5,-1,-1
1558442314341777,-1,0,0,-1,-3,-1,0,5
1558442314341777,1,1,0,1,3,-6,-4,-6
1558442314356738,-3,-2,-1,-2,3,6,1,-2
1558442314356738,-1,1,1,-2,4,1,3,4
1558442314362721,-1,-4,-1,-4,-5,-3,-2,-3
1558442314362721,-2,-1,-2,-2,3,8,4,2
1558442314377715,-1,0,-5,-2,-6,-5,-2,2
1558442314377715,-2,1,-1,-1,-8,-6,-4,-1
1558442314385695,-5,-1,1,-1,0,-7,-3,-8
1558442314385695,-2,-2,-11,-4,-6,-8,-6,-2
1558442314400622,1,1,5,0,1,-3,2,3
1558442314400622,0,-2,-4,-1,5,6,3,-1
1558442314407603,0,-1,-1,-2,0,-1,0,1
1558442314407603,0,1,2,0,-2,-6,-5,-3
1558442314416578,-3,-2,-4,-2,-2,4,-2,-2
1558442314416578,-2,-5,-3,-3,-8,-13,-5,-2
1558442314422562,0,-1,0,2,7,9,6,2
1558442314422562,-1,-1,-2,-2,1,6,1,2
1558442314438518,1,0,-1,1,-2,-3,0,3
1558442314438518,-3,0,3,2,7,6,0,-3
1558442314445935,-1,-2,-4,-1,-5,-9,-6,-8
1558442314445935,-1,-2,1,-3,-6,-2,-1,-1
1558442314462456,0,0,0,-1,6,3,5,2
1558442314462456,1,0,-1,0,2,1,1,-1
1558442314468842,1,0,0,-4,-6,-1,1,5
1558442314468842,-2,-2,1,1,-2,-3,-4,-3
1558442314477415,-2,-2,-3,-4,-6,-3,-7,-4
1558442314477415,1,-2,-2,-1,-5,-8,-2,-3
1558442314483734,0,-2,0,-1,5,7,-1,-2
1558442314483734,0,1,4,1,3,6,7,3
1558442314498722,-2,-3,-6,1,-1,2,2,3
1558442314498722,-5,-1,0,0,-2,-1,-6,-6
1558442314505557,-3,-1,-2,-2,-3,-5,0,5
1558442314505557,0,-2,-1,-2,-1,-1,-4,-3
1558442314520518,-2,-1,-1,0,5,-2,-1,-6
1558442314520518,1,0,2,-3,-7,-6,-1,2
1558442314528496,-2,-2,-4,0,2,4,-1,-3
1558442314528496,-1,-2,0,-1,-5,-7,-3,-1
1558442314536513,0,0,1,0,2,2,3,5
1558442314536513,-1,0,0,-2,-3,2,-3,-7
1558442314551461,-4,-2,-3,-4,-4,-9,-2,-4
1558442314551461,0,-1,0,-1,-6,-7,-5,0
1558442314558927,-1,-2,-4,-2,-3,0,-2,0
1558442314558927,0,1,1,1,3,11,6,5
1558442314565398,0,-1,-1,0,1,3,-1,-1
1558442314565398,-1,-3,-3,-4,-3,0,3,1
1558442314580357,1,-1,-2,-1,-2,-1,-2,-4
1558442314580357,-3,0,2,0,1,2,1,-1
1558442314588337,1,2,-2,1,4,2,-1,-2
1558442314588337,-2,-1,-3,0,1,-3,1,-1
1558442314603643,-4,0,2,-3,-8,-12,-8,-3
1558442314603643,-2,-1,0,0,1,2,2,-1
1558442314604294,-2,-2,1,0,0,7,4,0
1558442314604294,0,-1,-6,-2,3,1,1,-1
1558442314618255,0,-1,-2,-1,-3,-4,4,3
1558442314618255,-1,-3,-4,1,-3,-10,-10,-4
1558442314625237,-4,-3,-1,0,1,-2,-4,-5
1558442314625237,0,2,2,-1,1,3,-1,0
1558442314642191,-3,-1,-2,1,-1,5,-1,-4
1558442314642191,1,-2,-1,-1,3,5,4,3
1558442314648178,2,0,0,-2,-10,-13,-3,-1
1558442314648178,-1,-1,-2,-2,-2,3,2,-3
1558442314665132,3,-1,1,-1,3,-2,0,5
1558442314665132,0,2,8,0,5,-3,1,1
1558442314666130,0,-2,-9,-2,-2,1,-1,-3
1558442314666130,-5,-3,-4,-5,-11,-8,-8,0
1558442314678095,-1,-3,-3,-1,-7,-4,-6,-5
1558442314678095,-2,0,0,1,3,2,2,-3
1558442314685079,2,0,5,2,5,10,5,4
1558442314685079,0,3,1,0,3,1,2,1
1558442314700110,2,-1,-2,-2,-3,3,4,2
1558442314700110,-3,-4,-2,-1,-8,-14,-8,-6
1558442314708088,-3,-1,-1,-3,-1,-5,-2,-1
1558442314708088,-1,-2,-2,1,2,5,-1,-2
1558442314724051,-1,-2,3,-1,1,4,1,1
1558442314724051,0,-1,-3,-4,-8,-2,2,3
1558442314724051,-2,0,0,1,-4,-1,-1,-6
1558442314724051,2,0,2,1,8,5,4,0
1558442314737938,0,0,-1,0,-2,-13,-2,-3
1558442314737938,-1,0,-2,-2,-2,2,-1,0
1558442314745916,-3,-2,2,-2,-1,-2,-3,-1
1558442314745916,-3,-4,-6,-3,-4,-5,-2,-2
1558442314760877,-2,-2,-3,-2,2,7,6,0
1558442314760877,1,0,-3,-3,1,0,-1,2
1558442314767856,0,-1,-1,-1,0,-3,-6,0
1558442314767856,-1,-1,4,1,2,3,0,1
1558442314783814,-1,-3,-2,-1,-1,0,-5,-2
1558442314783814,-1,-4,-4,-3,-4,0,0,-3
1558442314784811,0,-1,-1,-3,-5,-5,-4,-4
1558442314784811,0,0,1,2,1,-1,3,4
1558442314797780,-2,0,-1,-2,0,-1,-1,0
1558442314797780,2,0,1,1,8,12,4,2
1558442314805758,-1,-2,-2,-2,-4,-11,-2,0
1558442314805758,1,-1,-3,-4,-8,-3,-6,-1
1558442314820715,-1,-1,2,2,5,8,2,-6
1558442314820715,1,1,1,1,4,-2,0,1
1558442314827696,-1,-1,0,-1,-3,-8,-2,-1
1558442314827696,-2,-1,-1,-3,-2,-4,0,3
1558442314843670,0,2,2,1,4,7,0,-2
1558442314843670,-2,-6,-6,-3,-5,1,-3,-4
1558442314844650,0,-2,-2,2,-2,1,-1,3
1558442314844650,2,-1,2,0,3,2,1,-4
1558442314859615,0,-1,2,-1,-2,-6,-2,-1
1558442314859615,-2,0,-5,1,8,3,4,1
1558442314865597,-3,0,1,-2,-3,-3,-2,-2
1558442314865597,-3,-4,-2,-4,-9,-9,-5,0
1558442314880555,-4,-3,-3,-2,-4,2,-5,-7
1558442314880555,1,1,4,-1,-6,-8,-4,-2
1558442314888536,1,1,1,-1,3,10,5,1
1558442314888536,-2,-1,-4,1,5,2,2,-2
1558442314903498,3,1,1,2,2,-4,7,4
1558442314903498,-1,-4,1,-3,-7,-9,-6,-3
1558442314904490,2,1,1,0,-4,1,3,4
1558442314904490,-7,-4,-4,-4,-5,-4,-9,-15
1558442314918453,-1,-5,-4,-5,-8,-8,-5,1
1558442314918453,-2,-1,3,3,7,8,7,3
1558442314925434,-1,-2,-1,1,5,2,1,2
1558442314925434,0,-1,-1,0,3,2,1,-1
1558442314940396,1,-1,-2,-2,-4,-5,-5,-2
1558442314940396,-3,0,-5,-3,-12,-10,-9,-4
1558442314948374,-2,-1,-3,-3,-4,-5,-3,-4
1558442314948374,0,-1,4,0,1,6,2,2
1558442314963335,-4,-4,-7,-2,3,2,-3,-4
1558442314963335,1,1,4,0,4,0,3,3
1558442314964334,0,0,0,2,4,4,0,0
1558442314964334,-1,-1,-2,0,-1,-2,-3,1
1558442314979291,1,-1,1,-2,-5,-1,1,2
1558442314979291,-3,-2,-3,-5,-9,-7,-8,-10
1558442314985280,0,-1,-1,-1,-7,-10,-2,-2
1558442314985280,1,-1,1,-1,5,-7,2,5
1558442315000250,0,0,3,0,3,4,1,3
1558442315000250,0,-2,-1,-1,3,4,-4,0
1558442315008213,0,0,-2,0,1,4,1,-6
1558442315008213,-1,-3,-7,-2,-6,-2,-1,-3
1558442315024170,-2,-1,2,-1,-5,-8,-3,-2
1558442315024170,-1,-5,-5,-1,0,-1,3,5
1558442315024170,-2,0,2,0,2,7,-4,-1
1558442315024170,0,0,-1,1,1,-3,-1,-1
1558442315039130,-1,1,-1,1,5,-1,-3,1
1558442315039130,-3,-1,-1,-4,-6,-2,0,1
1558442315045115,-4,-5,-4,-3,-3,-4,-5,-5
1558442315045115,-2,0,-1,-1,-4,-2,-4,-3
1558442315060074,-3,-2,-1,-5,-3,-3,-1,-3
1558442315060074,-1,-1,-3,1,0,-1,2,3
1558442315068053,1,-1,-2,-3,1,-10,1,5
1558442315068053,-4,-3,1,-1,-4,-2,-9,-9
1558442315085007,2,0,1,2,6,1,0,0
1558442315085007,-3,-1,0,0,1,3,0,-2
1558442315086004,-3,-5,-9,-5,-4,1,0,-2
1558442315086004,-2,0,0,-1,-2,-3,1,1
1558442315105951,2,1,0,0,2,-3,1,5
1558442315105951,2,1,2,2,4,5,2,-5
1558442315106949,2,-2,-1,-3,-4,-5,-2,0
1558442315106949,-4,-2,-1,-2,-5,-4,0,-4
1558442315120940,-1,0,2,-3,2,6,4,0
1558442315120940,-1,-1,-5,-1,5,6,1,-1
1558442315127906,-2,1,2,-3,-7,-7,-6,-2
1558442315127906,-1,-1,-4,-1,-5,0,-3,0
1558442315144847,-1,-1,1,2,3,2,7,3
1558442315144847,-1,-2,-1,-3,-1,-10,-7,-2
1558442315145852,1,1,3,2,4,2,-1,0
1558442315145852,-2,-3,-2,-2,-3,4,2,1
1558442315159808,-2,-2,-4,-4,-8,-6,-8,-6
1558442315159808,-1,-1,-1,-2,-3,-4,1,-1
1558442315165793,-1,-4,0,0,-2,-1,0,-1
1558442315165793,3,2,1,-3,2,-1,4,5
1558442315180758,-2,-1,0,2,3,9,2,-3
1558442315180758,1,-2,-2,-1,-3,-5,-7,-7
1558442315187733,-1,-1,-1,-2,-3,-3,-3,-5
1558442315187733,1,0,3,0,-4,-2,-1,6
1558442315203691,-1,0,-2,1,9,9,3,1
1558442315203691,-4,-1,0,-2,-2,-3,-6,-3
1558442315204688,-2,2,2,-2,-7,-4,1,0
1558442315204688,2,0,-5,-1,2,3,1,-4
1558442315219655,0,-2,-3,-1,1,0,4,2
1558442315219655,-2,-1,-2,0,-3,-3,-4,-5
1558442315225645,-1,1,1,0,1,4,-2,-3
1558442315225645,1,1,0,1,8,8,5,0
1558442315241591,-3,-3,-2,-3,-8,-13,-5,-1
1558442315241591,-2,-5,-2,-2,-4,-5,0,1
1558442315248570,-1,-3,-4,-3,-5,-10,-3,0
1558442315248570,-1,1,4,1,5,7,3,-2
1558442315263531,-2,-2,-5,-1,0,7,-4,-4
1558442315263531,-1,-2,-2,-2,-8,-12,-1,4
1558442315264527,0,-1,-2,-2,3,7,2,-4
1558442315264527,-1,-1,-2,-1,2,6,-2,-3
1558442315279488,-4,-3,-2,-2,-7,-6,-1,-5
1558442315279488,-1,-1,0,-1,0,-2,-2,0
1558442315293450,0,0,-1,1,2,-2,2,5
1558442315293450,2,2,2,1,1,-3,-1,1
1558442315300432,-1,1,5,2,2,1,1,-2
1558442315300432,0,1,-7,0,2,7,8,6
1558442315308409,-2,-2,-1,-1,-1,-2,0,-5
1558442315308409,-3,-3,-2,-2,-5,-5,-3,-4
1558442315323376,-1,-1,-3,-3,-7,-4,-7,-7
1558442315323376,-1,0,0,-1,-2,-3,-2,-2
1558442315324367,0,-2,-1,0,1,2,4,4
1558442315324367,-1,-3,-3,-1,-3,-5,-3,-3
1558442315339330,2,0,-1,1,2,0,-1,1
1558442315339330,1,-1,2,-1,1,4,4,-1
1558442315345315,-2,-2,-1,-1,-5,-5,-10,-5
1558442315345315,-2,-1,-2,-2,-5,-5,-1,1
1558442315360273,-2,-1,-4,-3,-3,1,2,3
1558442315360273,1,1,1,0,5,2,2,-2
1558442315368249,0,2,0,2,11,9,5,-1
1558442315368249,-4,-5,-1,-3,-7,-7,-3,-2
1558442315383209,-1,-1,-2,1,-2,-8,-8,-2
1558442315383209,-3,-2,-4,-4,-7,0,-3,-1
1558442315390191,-2,-2,-3,-3,-4,-6,-1,1
1558442315390191,2,1,2,-2,3,6,3,3
1558442315399166,-2,-2,-3,-3,0,0,-1,-3
1558442315399166,-1,-1,2,-1,1,-4,-4,0
1558442315405151,0,-1,-2,0,5,6,3,2
1558442315405151,-2,-1,0,-1,-6,-2,-2,-5
1558442315420111,-1,-3,1,-3,-11,-8,-7,-3
1558442315420111,-1,0,-2,0,-7,-9,-2,-2
1558442315428091,1,-1,2,-1,11,10,6,4
1558442315428091,0,-1,-4,2,6,1,3,7
1558442315443056,-2,1,0,-1,2,2,2,-4
1558442315443056,-4,-3,-6,-5,-6,-4,-6,-8
1558442315450031,-1,0,5,0,-12,-6,-5,-2
1558442315450031,-2,-4,-7,-2,3,3,-6,-2
1558442315459007,3,-1,-3,0,5,1,5,2
1558442315459007,2,0,-1,1,2,-7,-2,3
1558442315464991,-3,-2,-3,-2,-3,-1,-4,-4
1558442315464991,-1,-3,1,0,0,0,2,4
1558442315480948,-3,-2,-2,-1,-5,-2,-4,-6
1558442315480948,-2,1,0,1,2,7,6,2
1558442315487935,-1,0,0,-1,-1,-5,-4,-3
1558442315487935,0,0,0,-2,0,3,-1,0
1558442315502890,-1,-2,-1,-3,-6,-7,-3,0
1558442315502890,1,-1,2,0,3,-4,2,1
1558442315510872,0,-4,-1,0,5,13,6,0
1558442315510872,0,1,2,0,-1,-1,-4,-4
1558442315519844,-2,1,1,-1,-3,-7,-3,0
1558442315519844,2,-1,1,2,-1,2,0,0
1558442315525829,-3,-3,-8,-2,-2,-2,0,2
1558442315525829,-2,-3,-2,0,-2,-5,-2,-5
1558442315540793,0,-3,-1,-2,-1,2,2,4
1558442315540793,-4,-1,2,0,1,6,-2,-7
1558442315547770,0,-4,-1,-2,-4,-5,-2,-2
1558442315547770,0,1,-1,0,-5,-6,-4,-4
1558442315562729,-1,-1,-1,-2,-1,-4,0,4
1558442315562729,-1,-2,-3,-1,3,6,1,1
1558442315570708,0,1,0,0,3,1,1,0
1558442315570708,-1,1,0,-1,0,-3,0,-3
1558442315586665,2,0,0,0,1,4,6,5
1558442315586665,-5,-5,-3,-3,-12,-13,-10,-13
1558442315586665,1,-1,-1,0,4,2,-1,-1
1558442315586665,-3,-1,-3,-3,-3,-3,-2,-4
1558442315600629,1,1,0,-1,6,7,2,1
1558442315600629,-2,1,3,1,2,-1,2,2
1558442315607611,0,1,0,1,-1,0,-1,-1
1558442315607611,-5,-2,0,-3,-8,-6,-6,-3
1558442315622570,-1,-1,-5,-2,0,5,-1,-4
1558442315622570,-1,-1,-4,-2,-3,0,-1,3
1558442315630548,1,-1,-1,-1,-4,-6,-2,-2
1558442315630548,0,0,-1,0,3,-4,1,5
1558442315647503,-1,-2,0,-1,-6,0,-3,-7
1558442315647503,1,2,2,0,2,2,0,0
1558442315648500,-2,1,1,1,3,-1,1,4
1558442315648500,-1,-1,-3,-3,-6,-7,-3,-3
1558442315660468,-2,-4,0,0,-2,-5,-3,1
1558442315660468,-1,-2,-2,-2,-1,2,-3,-2
1558442315668446,-2,-2,-2,0,-4,0,-1,-2
1558442315668446,0,-1,-1,-2,-3,2,3,0
1558442315683406,1,-1,1,-2,1,-9,-3,-1
1558442315683406,-1,0,-1,1,-1,0,6,1
1558442315690390,-2,-1,-3,1,0,0,1,-1
1558442315690390,2,1,1,0,4,1,5,7
1558442315706354,-3,-1,-3,-1,-6,-3,-8,-8
1558442315706354,-2,-3,-2,-3,-2,4,-1,3
1558442315707343,-2,-2,0,0,-2,-1,-1,-4
1558442315707343,2,-1,-1,-2,1,-5,-2,0
1558442315720309,-5,-4,-4,-2,-5,-4,-3,0
1558442315720309,-1,-2,-2,-4,-4,-10,-5,4
1558442315728293,-3,-1,-1,0,5,2,1,-7
1558442315728293,-3,0,-2,-1,1,3,-1,-3
1558442315743254,0,-1,0,-3,-7,1,1,1
1558442315743254,1,-1,2,0,0,2,-1,1
1558442315750236,1,-2,-3,-2,4,-4,0,3
1558442315750236,0,1,2,2,1,3,2,1
1558442315774171,1,0,0,1,1,0,-4,-2
1558442315774171,-2,-2,-3,-2,-5,-7,-2,-3
1558442315775161,1,1,0,-2,-2,-3,-3,4
1558442315775161,2,-3,1,1,-1,1,0,1
1558442315780151,-2,-2,-1,-2,0,2,4,0
1558442315780151,-3,-2,-3,-1,1,-1,-5,-2
1558442315788127,-3,-2,-4,-4,-11,-7,-3,-6
1558442315788127,-2,0,2,-3,-3,-5,-1,-1
1558442315804083,0,0,-5,0,0,-4,-2,1
1558442315804083,2,2,3,0,3,4,-1,-2
1558442315810076,-3,-1,0,-1,-1,0,-2,-3
1558442315810076,-3,-2,-3,-1,-1,1,-1,-1
1558442315826026,-1,-1,1,-1,-7,-7,-2,1
1558442315826026,-2,-1,-2,-1,-2,2,3,-1
1558442315827023,-1,-2,0,3,14,7,3,-3
1558442315827023,-1,-2,-3,-1,0,-2,-6,-4
1558442315839988,-1,-2,-2,-2,0,-2,-1,-2
1558442315839988,-2,-3,-3,-2,-3,0,-1,1
1558442315847967,-1,0,1,-1,-8,-2,0,1
1558442315847967,-2,0,-1,1,-2,-1,2,-3
1558442315862928,-2,0,1,-2,-1,-2,-3,4
1558442315862928,-1,-1,-5,-1,-2,2,2,-3
1558442315870906,1,-1,-2,-3,-3,0,-3,-1
1558442315870906,-1,0,3,-1,4,3,3,-1
1558442315885864,0,-1,-5,-2,-2,-3,0,3
1558442315885864,1,2,1,-1,-1,-3,-3,-6
1558442315886862,-1,0,0,0,1,3,2,3
1558442315886862,-4,-4,-3,-3,-9,-10,-9,-6
1558442315900828,-1,-1,1,-2,1,2,2,-1
1558442315900828,1,0,1,2,10,4,6,2
1558442315907806,1,0,0,-1,0,3,0,-1
1558442315907806,-1,-3,-2,-4,-9,-9,-6,-2
1558442315922766,-2,-2,-2,-1,2,6,2,0
1558442315922766,-1,-1,-1,-2,-5,-8,-7,0
1558442315930752,0,0,2,0,1,-2,-5,-3
1558442315930752,-2,0,-5,1,4,3,0,-2
1558442315946703,-1,1,3,0,-3,2,3,-2
1558442315946703,-3,-3,-2,-4,-7,-3,-1,-2
1558442315946703,1,-3,-3,0,-3,-8,-6,2
1558442315946703,1,-3,-3,-1,0,7,0,1
1558442315960665,0,-1,-3,-2,-2,-11,-6,-2
1558442315960665,-1,1,1,0,1,2,-1,-1
1558442315967653,-3,-2,-4,-1,-5,1,2,0
1558442315967653,-1,-1,-3,-2,0,0,3,-2
1558442315982611,0,0,-1,2,6,0,-1,-2
1558442315982611,-2,0,0,-2,-1,2,4,0
1558442315990592,2,-1,0,1,2,4,0,1
1558442315990592,-1,-3,-2,-2,-5,-9,-1,1
