timestamp,emg1,emg2,emg3,emg4,emg5,emg6,emg7,emg8
1558442181133192,0,1,6,4,1,4,1,-2
1558442181133192,1,-3,-10,-4,0,0,6,3
1558442181134189,-3,-3,0,-3,-1,-1,-2,2
1558442181134189,0,-1,1,0,-1,-2,-5,-7
1558442181135187,-2,-2,-2,0,1,0,3,9
1558442181135187,-1,1,4,2,-4,-4,-3,-4
1558442181139176,2,0,-1,1,4,3,2,-1
1558442181139176,-1,-4,-3,1,-3,-4,-1,-2
1558442181145161,0,0,0,-3,0,1,-2,-1
1558442181145161,-3,-1,-1,1,-2,-2,0,3
1558442181154136,-7,-2,-1,-1,-5,-4,-5,-9
1558442181154136,-1,3,3,-2,0,-1,-2,2
1558442181162117,-3,-3,1,-3,0,-2,-2,-10
1558442181162117,-3,-5,-8,-4,-4,-1,0,4
1558442181176077,1,0,1,0,-2,-3,-5,-1
1558442181176077,-1,-2,-1,-5,-5,-2,2,2
1558442181185053,-2,-1,1,-1,-6,-7,-1,4
1558442181185053,-2,-3,-1,1,3,2,-1,-7
1558442181199016,-1,1,0,-1,5,4,-4,-3
1558442181199016,-3,-3,-2,-1,-1,1,-1,-1
1558442181205001,1,0,-4,-3,-7,-5,-2,-4
1558442181205001,-1,-3,1,-1,-5,0,2,2
1558442181251877,-2,-2,-1,0,-3,-2,-2,2
1558442181251877,3,4,8,-3,-4,-1,-3,-3
1558442181252873,-1,-2,-3,-2,-3,0,-2,-3
1558442181252873,-2,-2,-1,3,6,2,0,-4
1558442181253870,-1,-1,-2,-3,2,1,0,-3
1558442181253870,1,-3,-3,-1,-1,-1,1,1
1558442181253870,1,2,4,0,-3,-2,1,0
1558442181253870,-2,-4,-6,-3,-5,-4,-4,3
1558442181264840,-4,1,0,1,0,-2,-6,-7
1558442181264840,-2,-5,-6,-2,-6,-5,-5,0
1558442181272821,-2,1,1,0,0,1,-2,0
1558442181272821,-2,-3,-3,1,8,7,2,0
1558442181281795,-2,-3,-1,0,1,-1,-3,-2
1558442181281795,-2,0,0,0,-7,-4,-3,-3
1558442181295757,-2,-3,-1,-2,-4,-2,0,2
1558442181295757,0,0,0,-2,-7,-4,-3,-5
1558442181302740,-1,-2,1,1,2,0,-1,-1
1558442181302740,0,2,1,1,6,3,2,-1
1558442181309722,-1,-6,-9,-3,-3,-4,-1,-2
1558442181309722,-1,-3,0,-2,-5,-2,0,0
1558442181324681,0,-2,0,-2,-3,-3,-2,-3
1558442181324681,-1,0,-1,0,1,2,0,3
1558442181332659,-1,-2,-1,-1,-2,-2,3,-4
1558442181332659,-1,1,1,0,-3,-3,-6,0
1558442181341636,-1,1,4,-2,-1,2,4,0
1558442181341636,-1,-4,-7,-4,4,1,4,2
1558442181355599,0,0,0,0,-1,-3,0,6
1558442181355599,-3,0,0,-2,-5,-2,-2,-5
1558442181362579,1,0,1,-3,-4,0,3,8
1558442181362579,-5,-3,-1,0,-3,-5,-5,-11
1558442181369560,0,-1,1,-1,3,1,-1,-4
1558442181369560,1,-1,0,-4,0,0,1,2
1558442181385518,0,0,-6,-2,-3,-3,-4,-2
1558442181385518,-1,-2,-1,-2,-4,2,4,0
1558442181392500,-2,1,-1,0,-1,0,-3,-6
1558442181392500,1,0,0,-1,-2,-3,-5,8
1558442181401475,1,1,2,2,1,0,1,-1
1558442181401475,-2,-4,-3,-4,-7,-6,-4,-2
1558442181415439,-3,-3,-9,-2,-1,-1,-1,1
1558442181415439,1,0,0,0,3,4,2,-6
1558442181422419,-3,-3,-4,-1,-2,-5,-3,0
1558442181422419,-1,1,4,-1,-7,-3,-2,2
1558442181430398,2,0,4,0,12,9,3,3
1558442181430398,1,1,-3,-3,-2,-7,-8,-5
1558442181445358,0,-2,-3,-3,-5,-4,-2,-1
1558442181445358,-2,-3,0,-1,-3,2,-2,-4
1558442181452338,3,2,4,4,5,4,1,1
1558442181452338,0,-2,-7,-1,-2,0,6,3
1558442181461314,0,-1,1,-2,-2,-1,0,0
1558442181461314,-3,-1,-8,-3,-2,-9,-10,-2
1558442181475278,1,-1,5,1,-4,0,-1,5
1558442181475278,-4,-4,-10,-2,-4,-4,-2,-9
1558442181482259,-2,-4,-5,-3,-3,0,-1,0
1558442181482259,-2,1,2,0,1,1,1,-1
1558442181490239,-3,1,-3,-3,-5,-4,-3,-3
1558442181490239,0,1,7,-1,-2,-1,1,1
1558442181505198,-3,-2,-3,-1,-5,0,1,-4
1558442181505198,0,-2,-7,-2,8,0,0,2
1558442181512179,-1,1,0,-1,-2,-2,-5,-4
1558442181512179,2,-1,0,-1,2,0,0,2
1558442181521156,-1,1,2,1,0,-2,-3,-4
1558442181521156,-3,-4,-6,-3,-5,-1,0,-3
1558442181536114,1,-2,-1,-3,-7,-4,-1,-2
1558442181536114,-1,2,3,0,2,3,9,11
1558442181542098,0,2,3,2,5,3,-4,-3
1558442181542098,0,-1,0,-2,-6,-5,-2,1
1558442181550078,-4,-5,-7,-4,-8,-4,-3,-5
1558442181550078,3,2,5,2,7,5,2,0
1558442181565039,1,1,1,0,1,-1,1,0
1558442181565039,1,0,6,3,2,3,2,2
1558442181572018,1,-2,-9,-3,0,-1,0,-1
1558442181572018,-3,-2,-3,-4,-6,-4,-5,-3
1558442181580995,0,-1,-2,0,3,2,2,0
1558442181580995,0,1,3,-2,-3,-4,-4,-1
1558442181595955,-2,-2,-3,-3,-4,-6,0,3
1558442181595955,-3,-3,-3,0,-3,1,-2,-3
1558442181602936,-3,-2,-5,-2,7,6,-1,-2
1558442181602936,1,1,1,3,9,1,-3,2
1558442181609918,-2,1,2,-1,-2,-6,-5,-1
1558442181609918,-3,-2,-1,-3,-5,-4,-3,-4
1558442181624877,-1,-3,-4,-3,-3,0,3,1
1558442181624877,-4,-2,-10,-4,-3,2,2,0
1558442181632856,0,0,1,2,6,4,-2,-4
1558442181632856,-1,-2,-7,-2,-1,-4,-2,1
1558442181641834,-3,-5,-2,-3,-7,-6,-5,-1
1558442181641834,1,3,6,2,1,2,-1,0
1558442181655794,0,1,3,-1,-5,-4,-1,-2
1558442181655794,-1,-2,-2,-4,-5,-2,-3,-3
1558442181662776,0,0,-2,2,7,5,1,2
1558442181662776,-1,0,0,-2,7,2,-2,-7
1558442181669758,-3,-2,-1,-2,-9,-7,-3,-1
1558442181669758,-1,0,3,0,-5,-5,-3,-4
1558442181684717,3,1,4,-3,6,3,1,7
1558442181684717,1,-2,-14,-1,1,1,1,-1
1558442181692697,-5,-3,-6,-5,-1,-6,-4,-4
1558442181692697,-3,-1,0,0,-1,1,2,0
1558442181701676,1,3,6,1,-5,-2,1,1
1558442181701676,-2,-1,3,-3,-3,-4,-2,-1
1558442181715634,0,-2,-2,0,3,5,0,-1
1558442181715634,3,1,-3,-1,1,0,2,4
1558442181722627,0,-1,0,-2,-1,-1,-2,-5
1558442181722627,3,2,3,2,2,2,5,2
1558442181729598,-1,-1,0,-2,-1,-1,0,-1
1558442181729598,-1,0,2,0,-3,1,-1,0
1558442181746552,0,0,-2,-2,-4,-1,-1,-3
1558442181746552,1,0,4,1,2,1,2,5
1558442181752535,-1,0,-4,-2,2,2,7,5
1558442181752535,-2,1,2,3,4,3,-6,-13
1558442181761512,-1,-4,0,1,-4,-7,-4,-1
1558442181761512,-2,-2,-1,-3,-8,-4,-4,-2
1558442181775474,-1,0,-2,-1,0,0,-2,-1
1558442181775474,-1,-2,-1,-3,0,-1,2,4
1558442181783453,-1,-1,-1,-3,-1,-3,-3,-1
1558442181783453,-3,-3,-3,-1,-6,-3,-2,-3
1558442181790434,2,1,8,2,4,5,3,0
1558442181790434,-2,-3,-10,0,1,-5,-4,-3
1558442181805394,-4,-3,9,-1,-10,-6,-4,-3
1558442181805394,0,-4,-19,-3,-1,1,0,-2
1558442181812376,-1,-2,2,3,5,3,-1,-1
1558442181812376,0,-1,6,0,-2,-1,-1,1
1558442181821352,-1,-3,-13,-5,-1,-4,2,3
1558442181821352,-4,-2,4,0,-5,-6,-6,-10
1558442181835316,1,0,-2,-2,-2,1,-3,-2
1558442181835316,-5,-3,0,-3,1,-3,-6,-4
1558442181842297,3,0,2,1,-3,-2,-3,-1
1558442181842297,-3,-4,2,-2,-3,-3,0,-4
1558442181858253,-1,-3,-9,-3,-2,-2,-2,-2
1558442181858253,2,1,1,1,1,3,4,2
1558442181865234,-1,0,-6,-2,3,2,-8,2
1558442181865234,-3,0,5,2,1,-1,-3,0
1558442181872215,1,1,7,-1,-8,-7,-2,-5
1558442181872215,-2,-6,-13,-6,-11,-4,-2,-7
1558442181881193,-1,0,0,-1,2,4,4,3
1558442181881193,2,2,1,3,12,8,3,2
1558442181896152,-1,1,3,1,2,0,-3,0
1558442181896152,-2,2,4,-3,-7,-6,-1,-4
1558442181902150,-2,-3,-10,-4,-7,-3,-3,2
1558442181902150,0,0,-2,-2,-3,1,0,-9
1558442181918096,2,1,3,-1,-1,0,2,6
1558442181918096,-2,-1,0,1,7,5,0,-2
1558442181925075,-3,-1,-4,-3,-5,-5,-1,-8
1558442181925075,2,2,5,-1,-2,-1,1,5
1558442181932056,2,1,-5,2,4,3,2,5
1558442181932056,0,3,3,-1,0,-1,-5,-4
1558442181941031,-2,-1,-2,2,6,4,-3,-7
1558442181941031,1,0,3,0,-4,-6,-3,1
1558442181955993,-2,-2,0,-1,-4,-5,-2,-3
1558442181955993,-2,-2,-3,1,1,2,1,3
1558442181962973,0,0,-5,-2,-2,1,4,1
1558442181962973,-2,-5,-3,-4,-5,-4,-2,-6
1558442181977932,-2,-1,3,-3,-3,0,0,0
1558442181977932,-3,-2,-2,0,-3,0,-1,-5
1558442181984914,-2,2,4,2,2,-3,2,-4
1558442181984914,1,0,-4,-4,1,-1,-3,4
1558442181992892,-2,1,-2,-1,0,-1,-4,-3
1558442181992892,-1,-1,0,-1,-7,-6,-3,5
1558442182001870,2,-1,0,0,-3,0,0,-4
1558442182001870,0,0,2,0,8,6,3,2
1558442182015839,-1,-3,0,1,6,3,0,-1
1558442182015839,4,0,1,-2,-4,-1,-1,1
1558442182022812,0,-2,-2,0,-1,-3,1,0
1558442182022812,-4,-2,-2,-2,-5,-3,-5,1
1558442182037772,-1,-2,-3,-1,0,-2,-2,-2
1558442182037772,0,-2,0,-1,-6,-2,1,1
1558442182044755,0,-5,-2,-3,2,-1,0,1
1558442182044755,4,0,0,2,2,2,-1,-5
1558442182052739,-5,-4,-5,-4,-7,-4,-1,-4
1558442182052739,0,1,1,0,5,2,-1,0
1558442182061714,-3,2,1,3,2,1,1,-1
1558442182061714,-4,-4,-4,-2,-6,-7,-2,-6
1558442182074680,2,-2,-6,-1,-5,-2,-4,4
1558442182074680,0,0,-2,-1,-2,1,0,-7
1558442182083650,-1,-2,-1,-3,-5,-1,-3,1
1558442182083650,-3,0,1,-1,3,0,0,-6
1558442182098613,0,0,5,0,1,0,4,0
1558442182098613,2,-1,-8,-3,2,3,4,3
1558442182104600,1,0,2,1,0,-2,-3,2
1558442182104600,-3,-2,-2,-2,-5,-3,-1,-2
1558442182112573,-2,-1,-3,-5,-1,-1,-3,-1
1558442182112573,-6,-5,-3,-2,-3,-3,-6,-1
1558442182136510,-1,0,2,1,6,4,1,-2
1558442182136510,3,2,1,-2,-5,-4,-2,2
1558442182137518,-2,-2,0,-1,-1,-1,0,-2
1558442182137518,0,1,3,4,2,-1,-7,-5
1558442182142493,-2,-2,-2,-5,-6,-3,0,4
1558442182142493,-1,1,-1,0,4,3,-1,-6
1558442182158450,-2,-2,0,-1,-5,-2,-1,-5
1558442182158450,3,2,-5,-1,8,4,4,3
1558442182165431,-5,-5,-4,1,-6,-9,-5,-3
1558442182165431,-2,-3,0,-2,-8,-5,-5,0
1558442182172413,-1,-1,-1,-1,-4,-4,-2,0
1558442182172413,-3,-4,0,-1,1,2,3,0
1558442182187372,5,1,2,4,11,8,5,-1
1558442182187372,-3,-3,-2,-2,-4,-2,1,2
1558442182195351,1,0,3,-1,-2,-4,-4,-5
1558442182195351,0,-2,-6,-2,-6,-8,-3,0
1558442182202339,1,2,6,-2,0,3,4,-2
1558442182202339,-2,-3,-12,-4,-3,-4,-3,1
1558442182218296,-1,-3,-2,-2,-6,-3,-3,-5
1558442182218296,3,3,11,6,17,13,7,4
1558442182225276,-1,-2,-4,-2,1,-1,-2,-5
1558442182225276,-2,-3,-6,-3,-4,-6,-2,-1
1558442182241234,-5,-2,0,0,1,4,-1,-2
1558442182241234,-1,-2,-5,-4,-6,-7,-2,-1
1558442182247218,-1,0,4,-1,-7,-6,-4,1
1558442182247218,1,-3,-1,-3,-1,0,0,1
1558442182255270,-1,0,-1,1,8,5,2,0
1558442182255270,2,2,7,-1,-2,-4,1,1
1558442182264174,-2,-2,-7,-3,-6,-5,-5,-3
1558442182264174,-1,2,2,0,-3,1,-4,-3
1558442182278252,1,0,1,0,1,5,4,3
1558442182278252,-3,0,-5,-3,1,0,-4,2
1558442182285213,0,2,3,-1,-7,-7,-6,-1
1558442182285213,-5,-2,-6,-1,7,3,1,-3
1558442182301074,5,4,4,2,3,3,0,0
1558442182301074,-4,-5,-1,1,-4,-6,-5,-6
1558442182308051,1,0,-4,-3,-5,-1,1,-2
1558442182308051,2,2,8,0,0,-1,0,2
1558442182324008,0,1,-7,-1,-1,-1,-2,0
1558442182324008,-2,-2,-4,-2,-1,-2,1,-3
1558442182325006,-5,-3,-2,-1,-4,-3,-1,-3
1558442182325006,1,-2,1,-1,-1,-1,-1,-3
1558442182338187,-3,0,1,0,-5,-4,1,0
1558442182338187,0,-3,-11,-4,-1,-1,1,0
1558442182345155,-4,-1,3,0,0,-2,-6,-6
1558442182345155,0,-3,-9,-3,3,1,-2,5
1558442182361110,-2,-4,-5,-2,-2,1,2,-3
1558442182361110,3,0,5,3,1,0,-3,0
1558442182368089,-1,-1,2,-2,1,2,2,-2
1558442182368089,0,-3,-4,0,-2,0,2,2
1558442182383855,-4,-1,-7,-3,-5,-2,-5,-5
1558442182383855,-3,-4,1,-3,-4,-2,2,4
1558442182384847,1,3,5,3,7,4,0,-4
1558442182384847,0,1,-1,-1,-2,-2,-5,-4
1558442182397811,-2,-4,-5,1,-1,-3,0,-2
1558442182397811,-1,4,12,0,-8,-6,-3,-3
1558442182404825,-1,-4,-11,0,3,0,0,5
1558442182404825,-1,1,2,1,-2,1,0,-3
1558442182420749,1,-5,-7,-5,0,1,2,3
1558442182420749,-4,-2,-4,-3,-4,-5,-8,-4
1558442182427760,-1,0,1,-3,-7,-4,-5,8
1558442182427760,-2,2,4,2,5,4,2,-2
1558442182444035,-1,1,1,1,5,0,-2,-4
1558442182444035,-3,-2,-5,-2,-4,-4,-2,-1
1558442182445683,-1,-2,0,-2,-2,-1,2,-3
1558442182445683,-1,-3,-3,-3,-5,-3,3,2
1558442182458913,1,-1,-2,-2,-5,-4,-4,7
1558442182458913,-2,-2,1,-1,4,4,-1,-8
1558442182465662,0,-2,-4,1,2,1,-3,-1
1558442182465662,-1,0,1,-2,-5,-6,-1,0
1558442182481587,-1,-1,4,0,-2,-1,-2,-6
1558442182481587,2,1,-6,-1,2,2,-1,-2
1558442182487604,0,-1,-2,-2,-1,1,2,5
1558442182487604,0,-1,4,0,1,1,1,2
1558442182503532,-3,-1,0,-1,-1,1,1,-2
1558442182503532,1,0,-5,-1,-1,-2,-3,-2
1558442182505524,1,-1,0,-1,0,-1,3,-3
1558442182505524,1,2,5,1,1,2,1,-2
1558442182518489,-3,-4,-6,-1,1,-4,-7,0
1558442182518489,0,4,9,4,4,3,0,0
1558442182525470,-4,-8,-10,-5,-4,-6,-4,-5
1558442182525470,-5,-5,-8,-4,-3,-4,-3,-3
1558442182540427,0,-2,1,-2,-3,-8,-1,-5
1558442182540427,1,0,-2,-1,1,-1,1,1
1558442182547409,-2,-1,2,0,-5,0,-4,2
1558442182547409,-1,-1,0,2,1,4,-1,-2
1558442182563368,0,-1,1,0,7,3,-2,-2
1558442182563368,-1,-3,-5,-3,-5,-7,-2,4
1558442182565362,0,3,3,-2,-6,-4,-1,-1
1558442182565362,-3,-3,-7,-4,-6,-6,-1,-2
1558442182578327,-2,-1,-4,-3,-2,0,-2,-2
1558442182578327,1,0,5,1,2,3,7,1
1558442182585307,0,-2,-5,0,4,3,-4,-1
1558442182585307,0,-2,-2,-1,0,-1,-1,-3
1558442182600269,-1,-2,-1,-3,-1,-2,-1,1
1558442182600269,1,-2,4,-2,-3,2,1,2
1558442182607248,0,-1,-7,-1,-1,-4,2,4
1558442182607248,0,1,1,1,-3,-2,-2,-4
1558442182624586,2,3,2,3,9,7,2,-1
1558442182624586,-2,-1,-2,0,-1,-1,0,-3
1558442182625204,0,-1,2,0,-4,0,-2,-5
1558442182625204,4,2,3,0,1,-1,-1,4
1558442182638517,0,-2,-3,-1,-3,-5,-1,1
1558442182638517,-1,2,0,-1,-1,3,-1,-4
1558442182645428,-1,0,4,-1,2,-1,-1,-6
1558442182645428,-3,-2,-6,-3,-5,-4,-4,4
1558442182661105,1,0,-2,-1,-3,3,3,5
1558442182661105,-1,-4,-3,-1,0,0,-1,-4
1558442182667440,-4,-3,-4,-3,-3,-2,-2,-5
1558442182667440,-1,-2,1,-2,-3,-3,-3,-2
1558442182684398,-1,1,5,-2,-7,-5,-1,-1
1558442182684398,-5,-4,-12,-3,-1,0,-4,-2
1558442182685041,2,-1,0,0,3,5,7,5
1558442182685041,-5,-2,0,1,4,3,-3,-5
1558442182698260,-2,-2,6,0,-3,-3,-6,-3
1558442182698260,-3,-3,-8,-5,-10,-7,-5,3
1558442182705242,1,3,-1,2,6,2,-2,-4
1558442182705242,-1,-2,5,-1,1,-1,2,2
1558442182721193,2,2,-2,-2,-3,-1,-1,3
1558442182721193,-2,-3,-3,-1,2,-1,-1,-5
1558442182728138,-1,-1,2,-4,-6,-5,0,0
1558442182728138,2,-1,-5,-2,-1,0,-1,-1
1558442182744104,-1,4,6,-1,-1,0,-1,-1
1558442182744104,4,1,2,-1,0,2,5,5
1558442182744896,-1,-1,-2,1,9,1,-5,-2
1558442182744896,-1,0,1,3,-1,-1,-2,-7
1558442182758890,-3,-3,-2,-3,-8,-8,-3,-2
1558442182758890,-3,-1,-4,-3,-5,-4,-4,-3
1558442182764831,-2,-3,-2,-2,-5,-2,-3,0
1558442182764831,1,-2,1,0,4,4,6,3
1558442182780788,-1,-2,-6,0,1,-2,0,4
1558442182780788,-5,-1,3,-2,-3,-4,-6,-6
1558442182787784,1,-3,-4,1,2,0,0,-1
1558442182787784,-1,1,6,3,1,1,0,4
1558442182803729,-3,-3,-6,-2,0,1,-1,-11
1558442182803729,-2,-2,-7,-3,-6,-6,-1,0
1558442182805723,-6,-4,-4,-4,-9,-3,-3,-3
1558442182805723,1,0,-1,-3,-5,-4,-1,0
1558442182817716,-1,-3,-1,-2,-1,1,-1,5
1558442182817716,0,3,11,2,6,1,-2,-5
1558442182826664,0,0,-5,-1,0,1,-1,1
1558442182826664,-3,-1,-1,0,1,-3,-1,-2
1558442182840953,-2,-2,4,-1,-2,-2,2,1
1558442182840953,-4,-3,-9,-2,1,2,-7,-6
1558442182847634,2,1,6,-2,-1,-1,3,6
1558442182847634,-3,-2,-11,-5,-3,-1,-1,-2
1558442182863567,-2,-4,-5,-3,-5,-5,-5,-1
1558442182863567,1,0,3,2,2,4,0,0
1558442182865588,-3,2,1,-1,0,-3,1,-2
1558442182865588,-2,0,1,2,2,0,-2,0
1558442182877837,3,1,-2,-1,4,1,3,-4
1558442182877837,1,0,6,0,-2,0,-1,2
1558442182886505,-3,-3,-5,-3,-8,0,-3,-5
1558442182886505,2,0,-3,-2,-2,-3,0,3
1558442182900728,0,1,-4,2,4,8,7,5
1558442182900728,3,1,6,1,2,1,-1,-3
1558442182907693,-7,-4,-8,-2,0,-2,-1,-8
1558442182907693,0,0,-7,-3,-1,-3,-2,0
1558442182924636,-2,-2,0,-2,-7,-8,-2,-3
1558442182924636,0,-1,-3,0,-2,-1,0,4
1558442182925404,1,2,3,-3,-6,-4,0,2
1558442182925404,0,-3,0,0,1,2,-2,-5
1558442182937370,-2,-1,-1,-1,-1,-1,-4,2
1558442182937370,-1,-2,-3,-2,-4,-2,1,0
1558442182946343,1,2,7,3,4,1,-1,-1
1558442182946343,-4,-1,-3,-1,-5,-4,-3,-1
1558442182961446,-2,-2,-9,-2,1,0,0,-2
1558442182961446,-2,-1,0,0,3,6,4,-2
1558442182968287,4,0,2,0,3,-1,-1,6
1558442182968287,-1,1,5,0,1,2,1,-6
1558442182983248,-2,-2,2,0,2,-1,-9,-10
1558442182983248,-2,-3,-4,-5,-7,-11,-3,2
1558442182991401,-1,-1,-5,-3,-5,-3,-4,1
1558442182991401,-1,1,5,-1,4,2,0,-2
1558442182997226,-3,-5,-9,-3,-4,-1,-1,0
1558442182997226,-2,1,1,1,1,-2,-4,-1
1558442183006184,-1,-1,-3,-5,-7,-4,2,-3
1558442183006184,0,-2,0,-2,-1,8,1,1
1558442183021145,-4,-1,3,2,1,-5,-4,-4
1558442183021145,0,0,3,-1,-2,-2,2,2
1558442183028371,-1,-4,-7,-3,0,-1,-1,-1
1558442183028371,0,-3,-3,-2,-3,-3,-2,-1
1558442183044111,1,1,2,-1,1,1,-1,0
1558442183044111,-2,-1,-1,-3,-3,-2,0,-7
1558442183045294,0,1,3,0,-5,0,-1,1
1558442183045294,-2,-2,-3,-3,-10,-10,-4,-2
1558442183057705,4,3,8,5,12,9,9,3
1558442183057705,-2,-1,0,2,2,2,-6,-2
1558442183066455,2,0,-7,-2,-1,1,1,1
1558442183066455,1,-2,0,-3,-1,-3,-2,0
1558442183081371,-4,-3,-5,-2,-8,-3,-4,-4
1558442183081371,2,-3,-2,-3,-2,-1,1,5
1558442183087572,-3,-2,-1,1,1,3,-2,-5
1558442183087572,-3,0,0,0,-2,-3,3,3
1558442183103550,-2,-1,1,-2,-1,2,-3,-3
1558442183103550,-2,1,6,1,5,6,-1,-4
1558442183110522,-3,-4,-6,-5,-5,-6,-5,-4
1558442183110522,-1,-2,-2,1,-2,2,4,-1
1558442183117496,-1,0,3,0,1,0,1,4
1558442183117496,1,-2,-9,-2,-1,-4,1,1
1558442183126482,-2,-1,2,-1,1,1,3,0
1558442183126482,-6,-1,1,-1,0,0,-7,-6
1558442183141451,0,-2,-3,-1,0,1,0,-4
1558442183141451,-2,-3,-4,-2,-2,-1,-3,2
1558442183147162,-2,0,1,-2,-4,-5,-1,1
1558442183147162,0,0,0,-1,-4,-1,-1,0
1558442183163120,-1,1,1,-1,1,-2,-1,2
1558442183163120,-1,0,-1,-2,-7,-6,-3,0
1558442183170277,0,0,4,0,1,1,2,-6
1558442183170277,0,2,7,2,5,3,0,1
1558442183178299,-2,-2,-10,-3,-9,-6,-4,2
1558442183178299,1,0,-4,-1,-2,0,1,1
1558442183186212,3,2,2,4,7,8,2,2
1558442183186212,0,-1,-1,-3,2,0,-3,-1
1558442183201018,0,-1,3,0,-5,-6,-2,-6
1558442183201018,-2,-2,0,-3,-8,-4,-2,-2
1558442183208003,-2,0,-5,0,2,1,-3,1
1558442183208003,-2,-4,-11,-3,2,-3,0,5
1558442183222962,-5,-3,-1,-1,-4,-4,-7,-8
1558442183222962,-3,-4,-3,-2,-6,-1,1,-3
1558442183229941,-3,-2,6,-2,-4,-4,-2,4
1558442183229941,-2,0,5,3,2,-4,-6,-10
1558442183237916,0,2,-4,-3,0,7,3,-1
1558442183237916,-1,2,2,3,5,1,0,0
1558442183245895,1,-2,1,1,7,5,6,5
1558442183245895,-1,-4,-3,-2,-7,-7,-2,0
1558442183285238,-1,-3,-6,-3,-6,-3,-4,-3
1558442183285238,0,-4,-8,-4,-1,-2,0,0
1558442183286786,-3,-4,-7,-1,-3,-1,-3,-6
1558442183286786,-3,-3,1,-3,-7,-4,-3,-2
1558442183288203,1,1,2,-1,1,1,-1,1
1558442183288203,4,2,-1,0,2,2,9,7
1558442183291785,-3,-2,0,-1,-5,-5,-11,-8
1558442183291785,1,0,-4,2,9,6,3,0
1558442183306734,-1,-3,1,-1,0,-3,-1,1
1558442183306734,-4,-3,-3,-5,-8,-6,-3,-2
1558442183307731,-1,2,3,0,-4,-1,-1,-1
1558442183307731,-1,2,-4,-1,-4,-2,-3,-2
1558442183321108,-1,0,-1,1,4,0,1,-1
1558442183321108,-1,-1,3,2,2,2,-1,2
1558442183334659,-4,-4,-2,-2,0,-4,-5,-6
1558442183334659,2,0,0,-4,-4,-3,-3,0
1558442183344069,-3,-4,-3,-2,-3,-2,-3,3
1558442183344069,-2,-1,-3,0,1,-1,-2,-2
1558442183350941,-2,-2,0,2,0,2,2,-3
1558442183350941,1,1,4,0,2,2,9,1
1558442183366976,-2,0,-5,-1,0,-1,0,-3
1558442183366976,-1,2,-1,-2,-3,-3,-3,-3
1558442183367570,1,-2,-7,-4,-7,-4,-1,5
1558442183367570,5,-1,3,3,7,5,0,1
1558442183381546,2,1,5,1,2,2,-1,-2
1558442183381546,-2,0,6,2,0,0,0,2
1558442183387921,-2,-1,-7,-2,-1,-3,-2,-5
1558442183387921,-5,-6,-5,-4,-10,-5,-4,-2
1558442183403875,-1,-2,-4,-2,-5,-1,0,1
1558442183403875,-3,0,0,-2,-1,-2,-5,-6
1558442183411454,4,2,5,1,2,2,3,5
1558442183411454,-3,0,-1,-2,-2,-2,-5,-5
1558442183426722,0,0,0,-1,0,1,-1,-1
1558442183426722,-1,-1,-2,-2,-1,-2,1,4
1558442183427654,0,-1,3,3,7,3,-3,-7
1558442183427654,-4,-2,-4,1,-1,-4,-3,-2
1558442183441504,-1,-3,1,-1,2,0,-3,0
1558442183441504,-1,-2,-2,-1,-5,0,-3,-4
1558442183447358,-2,-3,-8,-4,-7,-7,0,5
1558442183447358,0,3,4,1,2,1,0,2
1558442183463314,4,0,2,-1,3,2,5,1
1558442183463314,0,-4,-2,-2,-1,-4,-5,-5
1558442183470297,0,0,2,-1,-1,-2,-4,-1
1558442183470297,-1,0,-1,-1,-3,0,-1,-1
1558442183486255,-1,-2,1,-3,-10,-6,0,5
1558442183486255,-5,-1,-2,-1,3,-3,-7,-7
1558442183488249,-3,-1,1,1,-1,2,2,-2
1558442183488249,4,3,4,2,12,4,-2,0
1558442183501348,0,-2,-10,-1,2,1,2,0
1558442183501348,-2,-3,-2,-2,-2,0,-1,2
1558442183508358,-2,1,3,-2,-5,-2,-3,-10
1558442183508358,-3,-6,-7,-4,-9,-5,-1,0
1558442183523633,-3,1,5,-1,-2,1,-4,-6
1558442183523633,4,0,-4,1,6,6,8,9
1558442183529625,0,0,1,-1,0,1,2,0
1558442183529625,1,-1,-1,-2,-4,0,-1,-1
1558442183546578,0,0,1,-2,-3,-5,-2,2
1558442183546578,1,0,2,-1,-1,-3,1,-2
1558442183547749,-1,-1,1,1,4,5,-1,-1
1558442183547749,-1,-2,-8,-4,-2,0,4,2
1558442183560850,-3,-4,-1,-1,-7,-8,-6,-3
1558442183560850,-5,-5,-6,0,3,3,0,-12
1558442183575820,-1,-2,-1,1,6,-1,0,7
1558442183575820,-3,-3,-1,-4,-5,-4,2,-5
1558442183583940,3,1,2,0,4,1,2,4
1558442183583940,-4,-2,0,-1,-4,-4,-7,-7
1558442183590818,1,-1,-5,-3,-6,-4,-4,-4
1558442183590818,1,-3,-3,-1,1,-2,-1,1
1558442183606417,-1,3,3,1,1,2,7,12
1558442183606417,-3,-4,-7,0,-1,-3,-6,-7
1558442183607414,-1,-5,-9,-3,1,0,0,-1
1558442183607414,0,1,7,-1,0,0,0,-1
1558442183620380,-3,-3,-5,-3,-4,-1,1,-4
1558442183620380,0,0,4,-3,-7,-3,0,3
1558442183628474,-1,0,3,1,3,0,-3,-2
1558442183628474,-3,-2,-2,3,4,3,1,-1
1558442183643317,3,0,-3,1,7,0,2,0
1558442183643317,-3,-1,0,-1,-1,-1,-1,-6
1558442183650297,-2,-3,0,-4,-8,-2,-3,0
1558442183650297,-3,2,1,-3,-7,-6,-6,-4
1558442183666607,-5,-3,-3,-4,-6,0,-6,-2
1558442183666607,4,2,2,2,7,-2,-1,7
1558442183668251,-3,-3,-1,0,1,2,-1,-3
1558442183668251,0,-2,0,-1,0,4,0,2
1558442183689195,-3,-2,-3,-2,-1,-1,-3,-1
1558442183689195,1,0,-2,-2,0,2,1,-3
1558442183690192,-1,-2,-6,-4,-7,-8,-3,-1
1558442183690192,3,0,-1,1,9,0,2,3
1558442183711509,-1,-3,4,-2,-9,-5,-1,-3
1558442183711509,0,-1,-2,-1,-4,0,-2,-2
1558442183713131,-4,-1,-2,1,4,-1,2,1
1558442183713131,-3,0,3,0,-1,-3,-3,-6
1558442183726583,-4,-1,-10,-5,-2,-3,-4,-4
1558442183726583,0,1,-1,-4,-9,-4,1,7
1558442183728119,-4,-3,-6,-2,-6,-3,-3,-10
1558442183728119,1,0,-2,-1,7,5,7,2
1558442183741446,-2,1,5,4,3,1,-1,-4
1558442183741446,-3,-1,-3,-2,-2,-1,-2,3
1558442183747205,1,0,-3,0,1,-5,-1,4
1558442183747205,1,-1,-2,-2,-1,2,3,3
1558442183763005,-4,-2,-3,-2,2,2,-1,-7
1558442183763005,-4,-3,-1,2,-3,-3,-4,-2
1558442183770383,0,0,4,-1,-1,-2,-2,-3
1558442183770383,-2,-2,-2,-2,-5,-7,-4,4
1558442183786933,-1,0,0,-1,0,2,2,1
1558442183786933,-1,0,2,-2,-3,-4,-3,-3
1558442183787931,-3,-1,-1,-2,-3,-1,0,-2
1558442183787931,0,0,0,-1,-2,-4,-2,0
1558442183799900,2,-1,-1,0,1,4,1,0
1558442183799900,4,1,-1,1,3,2,1,-6
1558442183808912,1,2,2,2,5,1,-1,-1
1558442183808912,-3,-2,-3,-1,-6,-2,0,2
1558442183824050,0,-2,1,-2,-3,-5,-1,0
1558442183824050,2,3,3,1,3,5,3,3
1558442183829821,1,-4,-6,-4,-7,-5,0,4
1558442183829821,-2,1,0,-1,-1,1,-3,-5
1558442183846774,0,-1,-5,-2,-2,-4,1,1
1558442183846774,-2,-2,3,-1,0,-1,-3,2
1558442183847804,-6,-4,-8,-2,-5,-5,-3,-6
1558442183847804,-3,-3,-8,-3,-6,-7,-6,-4
1558442183860737,-2,-2,-1,-1,-3,0,-2,-3
1558442183860737,2,1,1,2,6,5,3,2
1558442183868718,2,0,1,2,6,2,1,1
1558442183868718,-2,-4,-2,-2,-2,-2,-4,-1
1558442183883844,-2,-2,-2,-1,-6,-5,-3,-5
1558442183883844,0,-3,1,-4,-5,-4,3,5
1558442183890691,-2,-3,-3,-3,-1,-1,-8,-4
1558442183890691,-2,-2,0,2,1,1,-2,-4
1558442183906951,-1,-1,-1,0,1,-3,-3,-5
1558442183906951,-4,-3,-2,-3,-7,-5,-4,-3
1558442183908607,1,1,5,1,-2,-3,2,4
1558442183908607,-3,-4,-5,-3,-2,0,-3,-4
1558442183920861,1,1,-2,0,4,5,0,4
1558442183920861,-2,-1,-6,-3,-3,-4,-3,0
1558442183928556,-1,2,2,3,0,4,4,-1
1558442183928556,-1,-1,0,-2,-4,-7,0,4
1558442183943844,0,-1,1,-2,-3,1,0,-4
1558442183943844,-1,-1,-2,-1,5,3,-1,-5
1558442183950826,-2,-2,-1,-6,-12,-5,-4,0
1558442183950826,0,0,-1,4,15,10,3,3
1558442183966746,-1,0,2,3,7,-3,-3,-6
1558442183966746,-1,-2,0,-3,-3,-2,-1,0
1558442183967452,-2,-3,-3,-2,-9,-10,-7,-5
1558442183967452,3,-1,-4,-4,-8,-2,2,7
1558442183980415,2,1,3,1,0,-1,1,-4
1558442183980415,-2,-1,3,0,-2,-5,-5,-5
1558442183989594,-2,-1,-1,-1,0,1,3,0
1558442183989594,1,-2,-4,0,4,5,0,-2
1558442184003355,0,-3,-5,-3,-3,-4,-1,0
1558442184003355,3,2,2,-1,1,2,3,0
1558442184010335,-4,-4,-4,-3,-2,0,0,-2
1558442184010335,1,2,-1,2,0,3,-1,3
1558442184025295,1,0,0,-3,-1,-5,-1,0
1558442184025295,-3,-7,-5,-2,-6,-3,-3,-1
1558442184032335,4,5,5,5,13,11,8,2
1558442184032335,1,0,4,0,-4,-2,-1,-4
1558442184040256,-2,-2,-4,-2,1,-5,-5,-2
1558442184040256,-4,-3,-5,-2,-1,1,2,-1
1558442184049266,-1,1,0,-1,-3,0,-2,0
1558442184049266,-5,-5,-3,-6,-9,-6,-4,-5
1558442184063195,1,2,2,4,10,7,7,7
1558442184063195,-2,-1,-2,1,-2,-1,0,-3
1558442184070525,0,-2,3,0,1,1,-1,1
1558442184070525,-5,-3,-4,-3,-7,-5,-2,-1
1558442184086440,2,0,-2,-4,-8,-2,2,1
1558442184086440,-2,-1,2,2,8,5,-2,-6
1558442184093330,3,1,4,3,4,1,-2,5
1558442184093330,1,2,0,0,-1,-4,-1,0
1558442184100098,-1,-3,-3,-4,-3,2,-1,-1
1558442184100098,0,-2,-6,-1,-1,-1,2,1
1558442184109072,-2,-2,3,-4,-3,-1,0,1
1558442184109072,-1,1,8,2,5,1,-1,-2
1558442184123036,-1,-4,-6,-2,-3,-3,-1,2
1558442184123036,-4,-4,-4,-1,-3,-4,-3,-6
1558442184130016,0,1,-4,-1,-5,-3,0,1
1558442184130016,0,3,6,0,2,3,1,0
1558442184145974,1,1,1,4,4,2,-2,0
1558442184145974,-1,-1,-1,-2,-2,-2,0,3
1558442184152289,-2,-3,1,-2,-8,-6,-1,-3
1558442184152289,-1,-2,-1,1,9,5,2,-1
1558442184160291,-4,-4,-9,-4,-5,-2,-4,2
1558442184160291,-1,-1,-1,0,-2,-2,-4,-3
1558442184168911,0,-1,-6,-3,-4,-5,2,1
1558442184168911,-4,-2,-3,-1,-3,0,-3,-7
1558442184183975,-5,-5,1,-2,-4,-8,-9,0
1558442184183975,1,1,1,1,1,-3,-2,0
1558442184189856,-2,-4,-2,-1,1,0,-2,0
1558442184189856,1,-1,-4,1,3,1,1,3
1558442184205201,-2,1,5,2,1,5,0,-4
1558442184205201,-4,-2,-8,-4,-9,-6,0,-2
1558442184220159,-1,2,0,-2,0,3,-1,1
1558442184220159,2,-3,-2,-3,-1,-3,-3,-2
1558442184229136,0,1,17,4,0,-3,0,-4
1558442184229136,2,-1,-12,-3,0,0,1,0
1558442184230134,0,0,-5,-1,3,1,0,-5
1558442184230134,-3,0,0,-2,-2,0,-1,0
1558442184243526,-1,-1,-1,-1,-2,-2,1,3
1558442184243526,4,4,16,3,4,4,1,5
1558442184250081,-3,-2,-4,-2,2,-2,-2,-7
1558442184250081,-3,-2,-11,-7,-9,-7,-6,-3
1558442184274015,-3,-1,0,0,-3,-2,-5,-2
1558442184274015,-2,0,0,1,-3,2,0,0
1558442184275012,2,0,1,2,13,10,4,10
1558442184275012,-1,-3,0,1,-2,-3,-3,-10
1558442184288975,-4,-1,-4,-3,-2,-5,0,-3
1558442184288975,-1,-2,4,0,-6,-6,-4,1
1558442184289972,1,0,-3,-2,-5,-4,0,2
1558442184289972,-3,-1,-2,-1,0,2,4,0
1558442184302938,0,-1,2,-1,1,1,-1,0
1558442184302938,-3,-3,-6,-4,-5,-6,-5,-3
1558442184309919,-3,2,4,0,-5,-2,-2,-6
1558442184309919,5,4,2,2,5,4,6,6
1558442184325909,2,3,0,1,1,1,-2,-3
1558442184325909,-1,-1,0,-2,1,0,0,1
1558442184333204,-1,-4,-4,-4,-10,-3,-3,-5
1558442184333204,-4,-3,-1,1,-4,-4,-5,-5
1558442184348815,2,-2,-2,-1,-2,1,3,5
1558442184348815,2,-2,-1,-2,7,4,8,1
1558442184349813,-2,-1,-1,1,3,3,-5,-6
1558442184349813,-2,-2,0,-1,-4,-4,-2,-1
1558442184362778,0,-4,-3,-1,-4,-5,-1,3
1558442184362778,0,-1,-4,-2,1,-2,-2,-5
1558442184370797,2,1,5,1,0,-1,1,3
1558442184370797,-3,-4,-7,-4,-5,-1,0,0
1558442184385970,0,-1,-2,-2,-3,2,-3,-8
1558442184385970,-1,-3,-7,-2,-2,-1,-1,7
1558442184393181,-3,-2,-2,-1,0,-3,-1,3
1558442184393181,-1,2,8,1,1,-4,-6,-1
1558442184408656,0,-1,-9,-2,2,3,3,0
1558442184408656,1,-2,-6,0,2,4,1,-2
1558442184410651,-1,-2,-1,-3,-4,-7,-4,-3
1558442184410651,0,-1,0,-2,-10,-6,-1,1
1558442184423614,-2,-1,0,-1,1,2,2,-1
1558442184423614,0,1,6,1,6,3,-2,9
1558442184429623,-7,-3,-6,-1,0,-1,-9,-17
1558442184429623,1,-1,2,-3,-4,-5,-1,2
1558442184445556,-2,0,-2,0,2,5,0,-5
1558442184445556,0,-2,-1,2,6,2,1,-1
1558442184452976,0,0,1,-1,-2,-3,2,1
1558442184452976,-4,-1,-5,-5,-7,-4,-5,-2
1558442184468790,0,-1,1,-2,-5,-6,-1,1
1558442184468790,-1,-1,1,-2,-9,-8,-4,-6
1558442184470380,-1,-3,-4,-2,-1,1,0,-3
1558442184470380,-2,0,4,1,4,6,3,-1
1558442184483754,-2,-2,-7,-2,-6,-5,-1,3
1558442184483754,-1,-1,3,0,0,3,1,-3
1558442184490408,0,1,0,2,5,-2,-2,1
1558442184490408,-2,-5,-8,-3,-1,0,0,0
1558442184505701,-1,1,0,-1,-3,-2,-1,3
1558442184505701,-5,-4,-2,-1,-2,-2,-5,-13
1558442184512269,0,2,2,2,3,3,2,0
1558442184512269,4,1,5,0,1,0,6,3
1558442184529222,-3,-2,-9,-3,0,-2,-5,-4
1558442184529222,4,5,2,-1,-4,0,3,-1
1558442184530222,0,-1,0,-1,-3,1,-2,4
1558442184530222,-2,-3,-6,-1,-2,-2,-2,-7
1558442184543483,1,-2,2,-2,-6,-4,-2,-3
1558442184543483,-2,-1,-1,-1,-1,0,-2,1
1558442184550444,1,-3,-2,1,7,1,2,0
1558442184550444,3,1,0,-2,-1,-2,0,4
1558442184566422,-1,-2,0,-2,0,4,-1,0
1558442184566422,-2,0,-2,-2,-1,-2,-2,-1
1558442184573211,-3,-3,-2,-2,-8,-6,-3,-2
1558442184573211,-1,-1,-4,-3,1,-3,1,-1
1558442184589354,1,1,4,5,9,7,4,5
1558442184589354,-4,-3,0,-1,-2,-4,-4,-7
1558442184590061,1,-1,-2,-5,-5,-1,2,1
1558442184590061,1,-1,-6,-3,-4,0,-3,-4
1558442184603029,-6,-5,-4,-2,-3,-7,-7,6
1558442184603029,-2,-1,-2,1,4,3,-2,-4
1558442184610008,1,2,6,-2,-5,-2,2,4
1558442184610008,0,-2,-4,1,2,0,-1,-3
1558442184625964,-2,0,-1,-2,-2,-1,1,-5
1558442184625964,1,-1,-3,-2,-1,-3,-3,3
1558442184631950,-1,-2,-2,0,2,0,-1,-1
1558442184631950,1,-2,-1,-2,-1,1,0,2
1558442184649371,-2,-2,2,-2,-2,-3,0,-4
1558442184649371,1,-1,0,-2,-5,-3,0,-1
1558442184649901,1,-2,-10,-2,-3,-3,1,4
1558442184649901,-8,-4,-2,-1,-3,-5,-7,-10
1558442184662865,-2,-1,1,-1,-2,-2,-3,-5
1558442184662865,-1,-2,2,0,0,4,2,5
1558442184670889,0,-1,3,-1,0,0,-2,-1
1558442184670889,-2,-4,-6,-1,-2,-1,-4,3
1558442184685716,-1,-1,-1,-3,-5,-3,-1,-6
1558442184685716,3,0,-1,1,3,0,11,4
1558442184693156,-2,-1,0,1,2,1,-5,-6
1558442184693156,-2,0,1,1,-4,-2,-2,-1
1558442184709015,-1,2,3,0,0,0,0,-1
1558442184709015,0,-3,-3,2,4,0,1,6
1558442184710650,-6,-7,-5,-2,1,0,-1,-6
1558442184710650,0,1,3,-1,-1,-3,-2,0
1558442184722990,-1,-1,-1,-3,-5,-4,-1,-4
1558442184722990,-1,0,-2,-3,-6,-1,0,4
1558442184731595,1,-2,-2,0,2,2,-3,-5
1558442184731595,0,0,2,-1,2,0,0,-1
1558442184745557,1,-4,-2,0,5,3,3,2
1558442184745557,3,1,5,-3,1,-2,1,-1
1558442184752538,-1,0,-5,-1,-1,-3,-2,-4
1558442184752538,-4,-5,-6,-6,-9,-6,-2,2
1558442184768580,1,-1,-1,1,0,3,0,0
1558442184768580,-4,-3,-4,-2,0,-1,-9,-4
1558442184770493,0,1,3,0,-2,-1,-2,-2
1558442184770493,2,0,-2,-1,-2,-3,-3,1
1558442184782462,-5,-3,-1,-2,-2,-1,-3,-10
1558442184782462,-4,-3,-5,-1,0,-4,-2,-4
1558442184791433,-2,-1,-1,-2,1,0,5,1
1558442184791433,3,2,0,0,2,4,3,7
1558442184806393,3,3,15,2,2,-1,2,-2
1558442184806393,-4,-5,-23,-4,1,-2,1,-4
1558442184812378,-2,-2,-1,-2,-6,-6,-4,0
1558442184812378,-2,-4,-1,0,2,0,-1,-3
1558442184828425,2,1,0,-1,-7,-3,-4,4
1558442184828425,3,1,7,-4,-5,-5,-1,-2
1558442184830330,-1,0,-1,0,3,7,3,7
1558442184830330,0,-1,6,3,3,2,1,-3
1558442184843444,-1,-2,-8,-4,2,0,3,4
1558442184843444,-2,1,5,3,-5,-6,-9,-10
1558442184851274,-1,-3,-13,-6,-7,-6,2,3
1558442184851274,1,2,3,0,-3,3,-1,0
1558442184866505,4,1,0,3,7,3,2,5
1558442184866505,-3,-2,1,0,1,4,0,-3
1558442184873214,-1,-1,3,-1,0,-2,-3,-3
1558442184873214,-1,2,2,-1,-6,-3,-2,-3
1558442184889508,-3,-2,-8,-4,-5,-2,-5,-3
1558442184889508,0,0,2,0,0,1,-2,1
1558442184890170,-2,0,-1,1,-3,-2,-4,-3
1558442184890170,-4,-2,0,-1,0,-2,-5,-9
1558442184902253,0,-2,-7,-2,-1,-3,-5,5
1558442184902253,0,-1,2,0,-5,2,1,-1
1558442184911397,1,1,2,0,-2,-4,0,3
1558442184911397,-1,-2,-1,-1,0,-1,2,0
1558442184926416,-3,-1,-4,-2,2,-1,-3,-7
1558442184926416,-1,-2,1,0,-3,-5,-6,1
1558442184933285,-4,-6,-14,-2,-4,-4,-4,-7
1558442184933285,2,3,4,0,-1,2,0,5
1558442184948311,-5,-2,2,-2,-6,-4,-3,-9
1558442184948311,-4,-3,-5,1,0,2,4,0
1558442184955084,3,1,3,0,-2,-1,2,4
1558442184955084,-1,-2,-4,-2,-3,-1,-3,2
1558442184961978,-1,0,1,2,1,-1,-1,-8
1558442184961978,2,5,5,0,6,6,3,3
1558442184971963,0,0,1,0,3,1,1,-1
1558442184971963,1,-2,-5,-2,3,-1,2,-1
1558442184986939,-2,-1,0,0,-6,-4,-1,3
1558442184986939,-2,-3,-2,-1,-6,-2,0,-1
1558442184992922,1,2,2,0,1,0,-1,-2
1558442184992922,-2,-2,-5,-3,-2,1,3,0
1558442185008177,1,0,3,-2,0,1,-1,-5
1558442185008177,0,-3,-5,-3,-3,-5,0,4
1558442185015147,-2,-1,6,0,1,-1,-3,6
1558442185015147,-5,-4,-11,1,2,-4,-7,-12
1558442185030793,-2,-4,-2,-1,-4,-2,-3,0
1558442185030793,2,2,-2,-4,-2,0,0,-3
1558442185030793,-2,-2,2,1,-3,-1,4,4
1558442185030793,-1,2,6,1,3,2,3,-6
1558442185046750,-3,-3,-4,-2,-5,-4,-3,-3
1558442185046750,-3,-3,0,-1,-3,-3,-2,-3
1558442185052733,2,1,2,3,7,5,1,-2
1558442185052733,1,1,2,0,1,4,2,0
1558442185067693,1,-2,-9,-3,2,-1,1,6
1558442185067693,-2,-3,-2,-2,-1,-6,0,-1
1558442185074674,-1,-2,1,-1,-6,-3,-3,-4
1558442185074674,-2,1,-1,0,0,4,2,1
1558442185090631,-1,0,-2,-2,-6,-5,-3,-3
1558442185090631,2,3,0,1,-3,-3,0,4
1558442185091629,-3,-1,-4,-2,-4,-4,-4,-7
1558442185091629,-3,-3,-3,-1,1,2,1,5
1558442185106624,1,2,1,1,6,6,8,7
1558442185106624,-3,-1,-1,2,0,1,-2,-8
1558442185112574,0,1,6,1,3,-2,1,5
1558442185112574,-1,-1,-3,-2,-4,-6,-4,-7
1558442185127533,-8,-4,-5,-2,-8,-4,-4,-11
1558442185127533,-2,-1,-3,0,4,3,-4,-1
1558442185134515,1,-1,2,-1,5,2,3,0
1558442185134515,3,2,5,1,0,0,1,3
1558442185150481,-2,-2,-5,0,-3,-5,-5,1
1558442185150481,0,1,3,-5,-5,0,-2,-2
1558442185151470,0,-2,-8,-2,-4,-2,-3,-2
1558442185151470,0,1,-3,-3,4,2,3,3
1558442185166429,1,1,5,3,8,2,2,0
1558442185166429,-2,0,0,-2,-6,-3,-2,0
1558442185172412,-5,-4,-4,-3,-7,-4,-4,-4
1558442185172412,0,-3,-1,-2,-5,-6,-8,2
1558442185187408,-1,-3,-3,-3,-2,1,-3,-3
1558442185187408,1,1,-1,-1,2,4,4,2
1558442185194356,1,0,-3,-3,-2,-4,0,2
1558442185194356,-4,-3,-3,-1,-5,-2,-3,-6
1558442185210311,2,2,6,1,7,4,4,-1
1558442185210311,-2,-2,0,-2,0,0,0,3
1558442185211308,-4,-2,-5,-6,-9,-2,-1,-3
1558442185211308,1,0,1,1,-1,-1,-2,0
1558442185226268,2,1,6,1,3,-2,0,5
1558442185226268,-3,-5,-17,-4,1,0,-2,-8
1558442185232311,-3,-3,-3,2,-1,-3,0,0
1558442185232311,0,-1,0,-2,-4,-6,-1,1
1558442185247217,-1,-1,3,-1,-5,-2,1,-2
1558442185247217,1,0,4,2,-1,2,-1,0
1558442185255242,-2,-4,-3,-2,0,2,-1,-1
1558442185255242,-5,-1,-3,-2,1,-4,-6,-4
1558442185270163,2,-1,1,1,3,1,2,-2
1558442185270163,0,0,6,-1,-6,-4,-9,3
1558442185271149,-1,-1,-7,-3,-4,-1,-3,-3
1558442185271149,-4,-4,-2,-3,-6,-6,-2,-4
1558442185286110,0,0,-4,0,5,6,2,1
1558442185286110,0,1,3,1,2,0,4,3
1558442185292092,3,1,0,-2,2,2,1,-1
1558442185292092,2,0,-1,1,0,-4,0,1
1558442185307054,-3,-1,-2,-5,-11,-8,-4,1
1558442185307054,-3,-2,-4,-3,-7,-6,-3,-4
1558442185315067,-2,1,4,2,4,0,-5,-4
1558442185315067,0,-3,-8,0,2,0,1,3
1558442185330989,2,0,1,-2,4,6,1,0
1558442185330989,1,1,0,-1,-7,-5,-3,-4
1558442185330989,-2,-2,3,-1,-2,-2,2,0
1558442185330989,-1,2,6,1,7,5,0,3
1558442185346001,-2,-2,-5,-1,-2,-4,2,3
1558442185346001,-4,-1,6,1,1,-1,-7,-13
1558442185351933,0,-4,-12,-5,-5,-3,0,-2
1558442185351933,1,0,2,0,2,4,-1,-3
1558442185366894,0,0,-2,0,0,0,0,3
1558442185366894,-3,-3,-1,-3,-2,-3,1,-2
1558442185374872,1,1,2,0,0,-4,-2,0
1558442185374872,-4,-3,1,-3,-3,-3,-2,-2
1558442185390828,0,-1,-5,-1,-5,-6,-4,-2
1558442185390828,0,0,1,1,1,-1,-2,2
1558442185390828,-4,-2,-1,-1,-1,3,-4,0
1558442185390828,0,-1,5,-1,1,-2,0,-5
1558442185405788,-1,-4,-6,-1,3,-2,0,5
1558442185405788,-3,-2,-13,-3,-3,-6,-1,-3
1558442185412772,-4,-7,-5,-1,-2,0,-2,-9
1558442185412772,-1,-1,1,1,-3,2,-1,0
1558442185427766,-1,2,6,0,3,2,0,3
1558442185427766,-2,-1,-3,-1,4,-2,2,-2
1558442185437002,-1,1,5,1,0,1,-2,-5
1558442185437002,1,0,-2,-3,-2,-4,-3,-2
1558442185450704,-1,-3,-3,-2,-2,0,-2,-3
1558442185450704,-3,-3,-2,-3,-6,-4,-1,2
1558442185451666,-2,0,2,2,-4,-1,-1,-1
1558442185451666,-2,-2,-4,-1,1,3,1,-2
1558442185466626,0,0,0,1,0,-2,-4,-5
1558442185466626,3,0,-1,0,1,2,2,-3
1558442185472610,0,1,1,-1,6,4,0,2
1558442185472610,-1,-3,-3,0,3,5,3,-1
1558442185487569,-6,-1,0,-1,-8,-4,-3,-3
1558442185487569,-2,-3,-7,-1,3,1,0,0
1558442185494550,0,2,7,-2,-9,-9,-3,-2
1558442185494550,-1,-4,-11,-5,-8,-6,-3,-2
1558442185510508,2,-1,1,0,1,2,2,-3
1558442185510508,-2,-2,4,-2,2,4,3,2
1558442185511505,-1,2,4,2,6,2,-4,-5
1558442185511505,2,1,6,0,1,1,2,4
1558442185526465,-5,-2,-6,-3,-7,-9,-3,-7
1558442185526465,1,0,1,-1,1,5,-1,1
1558442185532449,1,0,-3,-1,6,4,4,2
1558442185532449,-2,-2,0,1,1,2,1,1
1558442185547409,0,0,7,1,-1,1,-2,-3
1558442185547409,1,1,0,2,4,0,2,1
1558442185554390,-2,-8,-20,-8,-8,-8,-5,2
1558442185554390,-2,-2,-3,0,-5,-6,-5,-2
1558442185570348,0,0,0,0,-1,-1,1,2
1558442185570348,-2,-3,2,-2,0,-2,-5,-5
1558442185571345,0,-1,3,0,2,1,3,2
1558442185571345,-2,-3,-1,-3,-4,-5,-2,-1
1558442185586307,-5,-5,-1,-3,-6,-3,-9,-9
1558442185586307,3,2,-1,0,-2,0,5,5
1558442185592322,-2,-1,-8,-2,0,2,-4,-5
1558442185592322,-1,0,1,-3,-3,-6,0,0
1558442185607249,2,3,1,2,10,6,4,5
1558442185607249,-1,0,2,-1,-4,-2,-4,-3
1558442185615262,-1,-3,-1,-2,-9,-8,-2,2
1558442185615262,-1,0,-1,0,5,7,0,-2
1558442185630188,2,-1,-1,-2,-5,-3,-2,1
1558442185630188,-2,-2,3,0,1,3,-1,-8
1558442185631189,-2,1,0,0,-1,-2,1,5
1558442185631189,-2,-2,-4,-2,-7,-4,-5,-3
1558442185653128,1,1,5,-2,-1,4,3,0
1558442185653128,-2,1,-8,1,2,-3,0,4
1558442185654125,-2,0,1,1,3,1,2,-3
1558442185654125,-1,0,1,0,1,1,2,-1
1558442185667090,-2,-4,-4,2,4,1,-1,-1
1558442185667090,-1,0,2,-3,-4,-2,-3,1
1558442185675067,0,-2,2,-2,-2,-6,-1,3
1558442185675067,-2,-1,-1,-3,-2,-2,-5,-2
1558442185691026,-3,-3,-3,0,-6,-3,-7,-5
1558442185691026,-1,-6,-5,-1,-2,-5,-2,-2
1558442185691026,3,1,0,1,3,1,1,2
1558442185691026,-1,1,-1,0,0,0,-1,-4
1558442185705985,-1,-1,-2,-2,-4,-3,-1,2
1558442185705985,-3,-3,-1,-3,-8,-6,-3,-3
1558442185712967,2,3,1,-3,1,7,4,1
1558442185712967,0,0,3,-2,-5,-2,-2,0
1558442185726929,-5,-2,-1,0,0,0,3,0
1558442185726929,4,6,15,3,11,3,-1,-3
1558442185734907,-3,-4,-19,-3,-1,-1,0,-1
1558442185734907,0,-3,-4,-2,-5,-4,0,-2
1558442185750901,-1,2,-3,-4,-6,-4,-3,-3
1558442185750901,-2,-1,-1,-1,-1,1,0,3
1558442185750901,2,2,7,2,-3,-3,0,0
1558442185750901,4,3,2,1,9,4,1,0
1558442185765826,3,-3,-4,-2,0,-2,6,7
1558442185765826,-1,-1,-1,1,-3,1,-7,-7
1558442185772810,-1,0,2,2,5,3,-1,-4
1558442185772810,-1,-2,-3,-3,-4,-4,-1,1
1558442185787797,-2,-1,-1,-3,-2,-3,-1,-4
1558442185787797,-2,-2,-6,-4,-5,-2,0,5
1558442185794751,0,-1,-3,-2,-2,0,-1,-5
1558442185794751,-1,-3,1,2,6,8,4,3
1558442185810744,-2,-3,-2,-2,0,-4,-2,-2
1558442185810744,-1,-1,-2,-3,-6,-7,-5,1
1558442185810744,-4,-3,3,-2,-5,-1,-2,-6
1558442185810744,-1,2,0,-1,1,0,1,1
1558442185826701,1,0,-3,-1,2,3,-3,-5
1558442185826701,1,-2,-5,-3,-5,-4,4,7
1558442185832646,1,4,11,2,1,-1,-5,-8
1558442185832646,-4,-2,-4,-3,2,-1,-3,-4
1558442185847609,-1,-1,-12,-3,-2,0,-2,0
1558442185847609,-1,-1,-1,-1,3,1,0,-2
1558442185854588,0,-1,1,-4,-3,-6,-1,1
1558442185854588,-1,-3,-2,-4,-9,-8,0,-1
1558442185869583,0,2,5,3,7,3,0,8
1558442185869583,-2,-2,1,-1,0,5,0,-1
1558442185877528,-1,-3,-14,-1,-1,2,-3,-6
1558442185877528,1,0,2,0,-2,-5,-2,1
1558442185886505,-1,0,1,1,0,-1,-3,-8
1558442185886505,-2,-3,-9,-4,0,-1,-1,1
1558442185892525,-1,-1,4,-1,-2,1,1,4
1558442185892525,1,0,1,0,-3,2,3,3
1558442185907448,0,3,3,0,2,0,2,-1
1558442185907448,-1,0,1,-1,-4,-3,0,-3
1558442185914463,0,-3,-3,-2,-1,-1,2,0
1558442185914463,-5,-3,-6,-2,-6,-3,-8,-10
1558442185929390,-1,1,4,-1,-2,-1,0,3
1558442185929390,-2,-1,-1,1,4,2,-5,-6
1558442185937434,-1,0,-2,-1,-1,-5,-3,0
1558442185937434,-2,-3,-8,-6,-6,-6,0,1
1558442185946344,0,0,1,-2,-1,-3,0,-4
1558442185946344,-2,-4,-3,0,-1,-2,-5,-3
1558442185952503,5,4,6,4,13,10,8,7
1558442185952503,-1,-1,-2,0,0,-3,-2,-7
1558442185969281,-3,-1,-4,-5,-8,-2,-3,-1
1558442185969281,-1,0,-1,0,-8,-4,-4,-1
1558442185975265,-2,0,3,-2,2,-2,-3,0
1558442185975265,1,1,5,4,7,4,2,2
1558442185990227,-1,-2,-6,-4,-5,-2,0,2
1558442185990227,0,-2,0,0,-4,4,5,1
1558442185997208,-6,-4,-5,-2,1,-3,-5,-8
1558442185997208,-2,-2,1,2,-6,-6,-4,2
1558442186006182,-2,-2,0,0,4,0,-3,-5
1558442186006182,-3,-1,-3,-3,-2,-3,-2,0
1558442186012167,-3,-4,1,-2,-9,-2,-2,0
1558442186012167,-2,-3,-6,-7,-9,-6,-3,-3
1558442186029122,-1,2,9,4,0,-5,-5,-11
1558442186029122,1,1,2,4,10,8,6,4
1558442186035107,-3,-8,-11,-4,-2,-2,0,-2
1558442186035107,1,-2,-10,-2,-2,0,2,3
1558442186050065,-4,-4,-5,-4,-4,2,-7,2
1558442186050065,-1,-1,0,-1,-2,-6,-7,-5
1558442186057073,0,0,5,0,-2,-4,0,0
1558442186057073,-1,1,5,2,2,5,-1,-2
1558442186073004,1,-4,-4,-2,-1,-1,4,2
1558442186073004,0,3,3,0,1,0,2,-5
1558442186074003,-2,-2,-6,-3,-4,-7,-4,-2
1558442186074003,0,-1,3,0,1,1,-2,-2
1558442186088961,0,-1,7,3,6,0,-1,0
1558442186088961,-1,-2,-10,-4,-3,0,0,4
1558442186094946,-3,-3,-2,-1,-5,-3,-3,-5
1558442186094946,0,4,1,0,-3,-4,-4,1
1558442186109909,-1,-1,0,-3,-8,-3,3,-1
1558442186109909,-1,1,7,-1,3,0,-2,0
1558442186116887,-2,-2,-1,1,7,6,3,-3
1558442186116887,2,1,2,3,4,2,0,-1
1558442186132844,1,-1,-4,-2,-3,3,9,3
1558442186132844,-1,-3,-1,-2,-6,-6,-4,-4
1558442186133841,1,1,4,-1,-4,-2,0,0
1558442186133841,-2,-4,-9,-6,-1,-3,-3,1
1558442186148802,-2,-1,-3,1,1,1,-4,-6
1558442186148802,2,2,-2,1,4,8,6,1
1558442186154786,0,-1,-4,1,3,-3,-1,-1
1558442186154786,-1,-3,4,0,-2,-1,1,2
1558442186169746,-1,-3,-5,-2,-2,-4,-3,3
1558442186169746,-3,-6,-1,-3,-9,-6,-6,-1
1558442186177724,2,1,-3,1,3,3,-1,3
1558442186177724,1,2,3,2,4,-1,-1,2
1558442186192684,-3,-3,-8,-4,-3,-3,-4,-9
1558442186192684,-1,-1,4,1,3,-1,-2,-2
1558442186193680,-1,0,3,-3,-7,-4,0,2
1558442186193680,-2,0,-1,-2,0,1,2,1
1558442186208643,2,1,7,1,-3,-2,-1,-3
1558442186208643,-5,-3,-17,-4,0,-4,-7,-2
1558442186214626,2,1,-1,-1,0,2,1,5
1558442186214626,0,-4,-5,-2,2,5,3,-1
1558442186229589,-2,0,3,-1,-4,-5,-2,3
1558442186229589,0,1,2,-1,0,-1,2,-4
1558442186237564,-3,-1,2,-2,-4,-7,-6,-2
1558442186237564,-1,-1,4,-1,-2,0,1,-2
1558442186252524,2,1,2,2,4,5,4,3
1558442186252524,1,0,2,2,6,2,1,4
1558442186253521,-1,-1,2,-3,-3,0,0,2
1558442186253521,-1,2,4,0,1,0,-1,-7
1558442186268481,-5,-3,-12,-2,-2,-9,-9,-7
1558442186268481,1,-1,1,0,-1,-3,4,3
1558442186274465,-2,-3,-5,-3,-3,0,-5,-7
1558442186274465,-1,-2,0,-3,-8,-5,-2,3
1558442186289429,3,-1,-1,-3,-1,3,5,4
1558442186289429,-2,-2,-2,-1,5,3,-5,-1
1558442186297404,2,1,-1,3,1,-1,-2,0
1558442186297404,-5,-6,-4,-5,-6,-3,-3,-7
1558442186313362,-2,-2,-1,0,-2,-4,-4,3
1558442186313362,-1,0,1,-3,-5,-4,1,-6
1558442186313362,-4,-1,3,0,-1,0,-1,3
1558442186313362,-4,-1,-8,-4,-4,-4,-8,-5
1558442186329323,1,0,3,1,1,0,1,3
1558442186329323,-3,0,-5,0,1,0,3,1
1558442186335301,2,1,0,-2,1,2,10,5
1558442186335301,0,2,3,0,3,6,-1,-8
1558442186350263,-2,-3,3,-3,-4,-3,-4,-6
1558442186350263,0,-3,-9,-3,-5,-4,-4,-3
1558442186357243,-1,-2,-2,-2,0,-3,-1,-3
1558442186357243,-5,-3,-3,2,1,-4,-5,-3
1558442186374198,-2,2,1,1,-1,4,-1,0
1558442186374198,-1,-2,2,-3,-6,-1,2,1
1558442186375196,0,0,-2,1,-3,1,-4,-7
1558442186375196,0,-1,1,-1,-2,-4,3,-1
1558442186389164,0,-1,3,2,-3,-4,-4,-1
1558442186389164,-4,-7,-23,-9,-3,-3,-1,0
1558442186395143,0,1,9,2,-2,-1,-1,-4
1558442186395143,-1,-4,-11,-1,0,-1,-3,-1
1558442186410103,0,2,10,1,3,3,2,1
1558442186410103,-2,-4,-14,-4,-4,-3,-1,0
1558442186417084,-1,-3,-5,-2,-3,0,1,2
1558442186417084,0,2,5,3,1,2,-2,-2
1558442186433040,2,1,-1,-4,3,0,-1,0
1558442186433040,1,1,9,0,-6,-7,-8,-2
1558442186434040,1,-1,-3,-3,-1,0,-2,-3
1558442186434040,1,-1,0,-1,-6,-6,0,4
1558442186448999,0,-1,-6,0,-1,1,9,2
1558442186448999,0,3,9,4,6,4,-1,-3
1558442186454982,-2,-2,-1,1,5,2,-3,-3
1558442186454982,0,2,2,-1,-2,-2,1,2
1558442186469943,-3,-5,-7,-2,1,1,-3,-5
1558442186469943,-1,-1,2,-1,-6,-2,-2,2
1558442186476924,0,-1,-1,0,0,-1,1,0
1558442186476924,1,3,9,3,8,4,2,0
1558442186492881,-3,-3,-10,-3,0,-2,-3,-2
1558442186492881,1,2,6,-2,-4,-4,0,-7
1558442186493879,0,-1,-5,-3,-5,1,-2,5
1558442186493879,-1,-3,2,1,5,1,-1,-2
1558442186508838,0,-3,-5,-3,-3,-5,-4,1
1558442186508838,0,-1,2,1,-5,-1,-2,-6
1558442186514822,-6,-1,-2,-2,-2,-3,-3,-2
1558442186514822,0,-1,1,-1,0,6,2,3
1558442186529782,-3,-1,3,4,2,-2,-1,-2
1558442186529782,-1,-3,-11,-3,-1,-1,1,1
1558442186537762,-1,-2,1,0,1,-1,1,-4
1558442186537762,-1,-2,1,2,-2,-6,-10,-2
1558442186552721,-1,0,-1,-2,-3,3,-4,-6
1558442186552721,-1,-1,3,1,-4,-5,0,1
1558442186553718,3,4,1,-3,-8,-7,0,-2
1558442186553718,0,-3,-4,0,5,6,6,6
1558442186568679,-2,-1,-2,-1,5,1,0,-5
1558442186568679,-3,0,4,0,-2,0,-1,7
1558442186574661,-1,-3,-10,-2,3,2,0,3
1558442186574661,1,1,0,2,2,-2,-2,-1
1558442186589622,0,-3,-9,-4,-4,0,1,-1
1558442186589622,0,0,3,1,1,-1,0,-5
1558442186597601,-3,0,1,-1,-6,-8,-4,-2
1558442186597601,-3,-3,-5,-4,-7,-2,0,-1
1558442186613563,0,1,2,1,8,1,-1,1
1558442186613563,0,0,-1,0,2,1,1,3
1558442186613563,-1,-2,-3,-1,0,-6,-5,-4
1558442186613563,-4,1,-6,-1,-2,2,2,-3
1558442186628519,-1,-1,-7,-2,-9,-4,2,1
1558442186628519,-2,0,3,-3,-1,-1,-3,-6
1558442186634503,3,1,-1,2,8,6,6,1
1558442186634503,0,-2,-3,-1,0,-6,-3,-4
1558442186649462,-1,-1,0,1,-1,0,-1,2
1558442186649462,-2,-2,0,-2,-3,-4,-3,2
1558442186657442,-2,-2,0,-2,-6,-4,-1,-3
1558442186657442,0,-1,-3,-3,4,1,-1,0
1558442186673401,-2,0,1,-1,1,-1,-2,-2
1558442186673401,2,2,-1,-1,2,3,6,9
1558442186673401,-2,-1,4,0,-4,-1,-1,-6
1558442186673401,-2,1,-1,-3,-7,-6,-3,-2
1558442186688358,-6,-7,-6,-4,-6,-3,-9,-7
1558442186688358,1,-1,2,5,10,11,5,3
1558442186695339,-1,-2,-5,-4,-2,-1,0,0
1558442186695339,2,1,0,1,-1,-2,-3,-1
1558442186709309,1,0,0,-1,1,0,2,0
1558442186709309,-1,-2,-2,-1,-3,-4,-4,-3
1558442186717280,-4,-2,0,0,-3,-1,-2,-1
1558442186717280,-3,-1,0,-2,-5,-5,-2,-6
1558442186740220,4,1,2,-2,-4,1,6,4
1558442186740220,-2,-1,5,0,1,-2,-9,-8
1558442186741217,0,-1,-6,2,4,0,-5,2
1558442186741217,-3,-1,-1,-3,-2,-1,2,0
1558442186749196,1,2,4,2,-2,1,0,7
1558442186749196,4,4,3,0,-1,-1,1,-2
1558442186755183,-3,-4,0,-2,-3,-2,0,-2
1558442186755183,-1,-2,-8,-4,-6,-2,-2,-1
1558442186770139,-5,-4,-1,-3,-7,-5,-3,-7
1558442186770139,-4,-1,-2,-1,0,5,0,-4
1558442186777124,0,3,4,2,11,3,-4,-1
1558442186777124,4,-2,-6,1,6,2,7,6
1558442186793078,-1,0,4,-2,-5,-3,-5,-4
1558442186793078,-2,-4,-4,-5,-7,-5,-2,-4
1558442186794075,-2,-4,-5,0,-4,-5,-2,0
1558442186794075,-4,-3,-3,-1,0,1,-1,-4
1558442186809037,-2,-1,-2,-1,2,-2,-3,-3
1558442186809037,-1,-3,-2,0,1,0,3,3
1558442186815021,2,1,3,-1,0,1,0,-1
1558442186815021,1,-1,0,-2,-7,-5,-3,6
1558442186829979,0,1,1,1,-3,-1,9,-1
1558442186829979,0,-2,-3,-1,2,-3,-4,-2
1558442186836964,1,2,1,0,7,10,2,-6
1558442186836964,1,1,2,1,2,1,1,2
1558442186851921,-2,-2,-4,-1,1,-3,-7,-7
1558442186851921,0,0,1,0,-2,-1,4,8
1558442186859899,-2,-1,-1,-2,-3,-1,-3,-2
1558442186859899,-1,-1,-2,-1,-3,-1,-2,-4
1558442186868876,0,3,6,0,1,0,-1,4
1558442186868876,-2,-3,-6,-2,-3,-3,-3,-5
1558442186882838,-3,-3,-4,-3,-4,0,-2,5
1558442186882838,1,1,3,-1,1,0,2,1
1558442186890817,1,0,1,1,3,3,2,2
1558442186890817,-2,-2,-4,-1,-2,-5,-3,-8
1558442186897798,-3,-4,-5,-1,-1,-4,-4,-4
1558442186897798,2,3,5,2,3,5,-3,1
1558442186912780,-2,-4,-4,0,-2,-5,-5,0
1558442186912780,-2,-3,-3,-3,-1,0,-3,-4
1558442186919739,0,1,4,-1,-2,-3,2,1
1558442186919739,1,0,3,0,-1,-4,-4,6
1558442186928716,-2,-1,-5,-2,2,-3,-9,-10
1558442186928716,-1,1,0,0,-1,1,-1,-1
1558442186934699,-4,-3,-4,-5,-9,-5,-3,-8
1558442186934699,-7,-3,-2,-3,-5,0,-1,-4
1558442186949660,6,1,-1,1,8,5,5,5
1558442186949660,5,4,3,-1,2,-1,5,7
1558442186957649,1,-1,-1,0,4,0,1,0
1558442186957649,-1,-3,1,0,-2,-3,0,-3
1558442186972597,-3,0,-1,-4,-5,-1,-4,-1
1558442186972597,-6,-5,-3,-3,-2,1,-1,1
1558442186988557,1,0,-1,1,-1,1,1,0
1558442186988557,-1,-1,-2,-1,4,-1,1,0
1558442186990551,-3,-1,-1,-2,1,1,-1,-3
1558442186990551,1,2,5,-1,-3,-3,-1,-3
1558442186996546,0,-3,-6,-2,-3,-3,-1,10
1558442186996546,0,0,-8,-3,-2,-5,-2,-3
1558442187009500,1,-1,1,-5,-6,1,3,6
1558442187009500,-2,-2,-5,0,-1,0,-5,-4
1558442187017479,-1,2,2,2,4,1,-2,-8
1558442187017479,-2,-4,-1,-1,-4,3,-2,-3
1558442187032439,-1,-2,-4,-2,4,1,2,3
1558442187032439,0,-1,0,1,-1,-1,1,4
1558442187039419,-1,-1,2,0,-2,-4,-2,-1
1558442187039419,-2,-1,-9,-3,-2,-3,-1,-3
1558442187055390,-3,-7,-3,-3,-6,-6,-2,-3
1558442187055390,-1,-3,-2,0,0,2,-2,-4
1558442187056374,-1,-1,1,-3,-7,-8,-2,-1
1558442187056374,-4,-4,-3,-4,-2,1,-2,-6
1558442187071334,0,3,6,2,6,5,2,3
1558442187071334,-2,-4,-8,-1,4,0,-1,0
1558442187077318,-2,-2,0,-2,-2,-1,0,-1
1558442187077318,1,2,6,0,1,-1,3,-4
1558442187092277,-1,-2,-2,-3,-5,-7,-7,-1
1558442187092277,-1,1,6,1,5,5,4,2
1558442187100256,2,0,-3,-2,-2,-1,0,6
1558442187100256,-4,0,1,1,-2,-1,-10,-12
1558442187115224,-3,0,-3,-1,-4,-4,-2,-6
1558442187115224,-4,-2,-1,-1,-5,-2,-1,-4
1558442187116214,-2,0,-3,0,5,4,4,3
1558442187116214,2,0,0,-1,0,0,-1,2
1558442187130177,-3,-4,-1,-1,-1,-3,-2,-6
1558442187130177,0,0,2,-2,-5,-3,1,1
1558442187137163,-4,-1,-1,-2,-4,1,1,-3
1558442187137163,1,-2,-7,1,1,0,0,6
1558442187152122,-3,-1,0,0,2,2,2,0
1558442187152122,2,4,12,7,5,2,1,-1
1558442187160106,-4,-5,-15,-7,-6,-6,-6,0
1558442187160106,-2,-4,-2,-2,-5,-7,-5,-4
1558442187175058,1,-2,-1,-5,-8,-4,2,1
1558442187175058,0,-1,-7,-3,1,3,0,1
1558442187176057,2,1,9,4,8,1,-2,5
1558442187176057,-1,1,4,0,2,2,2,-3
1558442187190037,0,0,-1,0,-5,-4,-3,1
1558442187190037,-2,-4,-4,-5,-4,-3,-6,-5
1558442187197007,3,2,3,3,5,6,-4,-6
1558442187197007,1,0,-1,-3,-1,-5,2,5
1558442187212962,0,1,2,1,-1,-4,0,-3
1558442187212962,-1,1,2,-2,-3,-4,-1,-2
1558442187219943,1,-1,-4,-5,-2,3,4,5
1558442187219943,-4,-1,0,-2,-2,-2,-4,-3
1558442187235906,0,-1,-3,-1,3,4,0,-2
1558442187235906,-1,0,-2,0,4,0,1,-2
1558442187235906,-2,0,2,-3,-8,-7,-4,-3
1558442187235906,-1,1,2,-1,-2,1,4,1
1558442187249856,0,1,-3,0,2,2,1,-4
1558442187249856,1,-1,-4,-1,-1,-5,0,5
1558442187256841,-3,-3,0,-3,-2,0,-2,-8
1558442187256841,-4,-2,-3,-3,-3,-3,-3,0
1558442187272794,-1,-1,-2,-1,-7,-4,-2,-4
1558442187272794,0,-2,-1,0,-4,-3,-6,1
1558442187279776,2,2,2,4,13,7,2,-1
1558442187279776,1,4,8,2,10,7,5,3
1558442187295742,-1,-4,-10,-2,0,-1,-1,-1
1558442187295742,0,-2,-5,-6,-10,-6,6,2
1558442187296732,-6,-4,-2,-2,-5,-8,-9,-13
1558442187296732,1,-2,3,4,16,11,3,0
1558442187309696,-2,-2,1,-2,-3,-4,-4,-1
1558442187309696,0,-3,0,-1,-3,-3,-1,0
1558442187317677,-3,-2,-2,-3,-8,-3,1,1
1558442187317677,-2,-3,-4,-3,-3,-3,-5,-3
1558442187332645,-1,0,1,0,-1,-1,-3,-1
1558442187332645,-1,0,0,0,-1,-2,-2,-3
1558442187339634,-4,-4,-2,-2,-7,-1,-1,2
1558442187339634,-2,-5,-5,-2,-7,-9,-5,-4
1558442187355575,-2,-2,0,3,6,6,3,3
1558442187355575,1,1,3,0,-2,3,-5,-4
1558442187356576,-4,-1,1,1,3,-3,0,-3
1558442187356576,0,0,0,1,4,0,6,3
1558442187369539,-1,1,-1,-1,-3,-3,-3,-3
1558442187369539,-1,-3,-9,-4,-4,-6,-2,-4
1558442187377516,0,-2,2,-2,-6,1,-1,-2
1558442187377516,5,0,-7,-3,-3,1,9,11
1558442187392487,-2,3,5,4,6,2,-4,-8
1558442187392487,-1,1,1,0,4,4,3,4
1558442187399466,0,1,0,0,-2,-4,-6,-1
1558442187399466,2,0,2,-1,-2,-2,2,2
1558442187415422,-3,-4,-3,-2,-6,-4,-4,1
1558442187415422,-1,-2,3,0,5,5,-4,-5
1558442187416413,2,0,0,-2,-1,-3,3,7
1558442187416413,-7,-5,-10,-6,-10,-11,-10,-7
1558442187429383,-1,-1,0,2,-4,1,3,3
1558442187429383,-1,-1,1,2,6,5,1,-4
1558442187437385,4,3,1,2,13,8,4,3
1558442187437385,-2,-2,4,0,-3,-3,-5,-5
1558442187452316,0,-4,-3,-6,-6,-3,1,4
1558442187452316,-6,-3,-4,-2,-9,-9,-11,-8
1558442187460298,-3,-4,-11,-1,2,-2,-2,-5
1558442187460298,3,1,3,1,3,5,2,3
