timestamp,emg1,emg2,emg3,emg4,emg5,emg6,emg7,emg8
1558442254344895,1,-2,-2,-1,2,8,-2,1
1558442254344895,0,-1,0,-2,2,3,2,-2
1558442254345894,-1,2,1,1,4,-3,6,7
1558442254345894,-5,-1,-3,-1,-1,2,0,-7
1558442254345894,-3,-2,-2,-4,-5,-7,-3,-3
1558442254345894,-2,-2,-3,-3,-11,-8,-8,-2
1558442254346891,-1,-1,0,-1,-1,4,1,4
1558442254346891,1,0,-3,-1,1,-7,2,-2
1558442254367835,-1,1,-1,1,0,0,1,-1
1558442254367835,0,-3,-1,1,4,9,0,-1
1558442254367835,0,-5,-3,-4,-4,-6,0,-1
1558442254367835,-2,0,2,-4,-7,-6,-7,-2
1558442254376811,-1,1,-4,2,5,4,1,-2
1558442254376811,-3,0,0,-1,4,6,3,1
1558442254388779,-2,1,0,0,3,5,0,0
1558442254388779,-1,-3,-1,0,4,1,0,0
1558442254396757,-1,-2,-1,-2,-10,-9,-3,-1
1558442254396757,-2,1,-2,-4,-4,-8,-4,-3
1558442254403739,-2,-1,-3,-3,-5,4,0,-3
1558442254403739,0,-2,0,0,-3,-2,-3,0
1558442254421691,1,0,3,0,8,5,5,2
1558442254421691,0,-3,-4,1,1,3,4,1
1558442254425680,-1,-1,-2,-3,-5,-6,-7,-9
1558442254425680,-1,-2,-1,0,-4,-6,1,8
1558442254472555,0,-2,-4,-1,-6,-1,0,-2
1558442254472555,0,2,4,0,11,10,4,-1
1558442254473554,-3,-1,-7,-2,1,-3,-5,-3
1558442254473554,-2,0,-1,1,4,7,6,2
1558442254474549,0,-1,-1,1,-1,-6,-3,-1
1558442254474549,-1,-3,-2,-5,-11,-9,-6,0
1558442254474549,-2,-3,2,-2,-8,-5,0,0
1558442254474549,0,0,-2,0,-1,-3,-4,-1
1558442254485520,-2,1,1,-3,1,3,2,1
1558442254485520,0,0,0,1,2,7,2,-2
1558442254493498,1,0,-2,-1,-3,0,-4,-3
1558442254493498,1,0,0,1,2,-1,2,2
1558442254500481,0,-2,-2,-2,-2,1,0,-2
1558442254500481,-2,-2,-2,0,-3,-5,0,0
1558442254515440,-1,-1,0,0,0,-2,1,-2
1558442254515440,-1,0,-2,-2,5,4,2,-2
1558442254522421,-1,0,-2,0,3,-1,-1,4
1558442254522421,-4,-3,-3,-4,-11,-4,-7,-7
1558442254530399,1,-1,-1,-4,-5,-10,-5,-2
1558442254530399,-1,-2,-1,-1,-3,-2,-1,-2
1558442254545360,2,0,3,2,8,12,8,6
1558442254545360,-1,0,0,-2,3,7,1,-5
1558442254553338,-1,-1,0,-1,-1,5,1,1
1558442254553338,-1,0,-2,-4,-9,-19,-12,-4
1558442254560320,-2,0,-1,-1,-3,0,0,-3
1558442254560320,0,1,1,0,0,-1,5,3
1558442254575280,-2,0,0,-1,4,5,2,-1
1558442254575280,-1,-3,-1,-2,-6,-1,-1,1
1558442254582261,-4,-5,-4,-5,-16,-17,-14,-12
1558442254582261,-1,0,1,-2,-4,-10,-6,-2
1558442254590240,1,1,0,4,17,17,11,4
1558442254590240,1,1,-4,1,9,7,5,2
1558442254605199,0,3,0,-1,0,-2,-2,-3
1558442254605199,-2,0,-4,0,-10,-10,-10,-4
1558442254613179,-2,-2,2,-1,-3,-3,-1,2
1558442254613179,-1,-2,1,-2,-7,0,0,-1
1558442254620160,0,-1,-3,-4,1,0,-3,-3
1558442254620160,-1,0,2,0,6,1,1,2
1558442254636117,-1,1,-2,-1,2,3,3,1
1558442254636117,-2,-2,-1,-3,-4,-6,-4,-1
1558442254642100,-1,1,-1,0,-10,-4,-1,-2
1558442254642100,-1,-1,-1,0,4,-3,-3,-1
1558442254650082,-3,-3,-2,-3,3,3,-2,-4
1558442254650082,0,-1,3,0,2,2,4,-2
1558442254665040,-2,-3,0,-1,3,-8,-5,1
1558442254665040,2,-1,-3,1,6,14,6,10
1558442254673018,-2,0,0,1,-4,-3,-3,-8
1558442254673018,-5,-4,-4,-3,-5,-1,-3,-5
1558442254679999,0,0,4,-2,-2,-1,-3,0
1558442254679999,-2,-1,-2,0,1,-4,1,0
1558442254695957,1,-2,-3,-2,-5,-11,-7,-1
1558442254695957,-3,-2,-2,-4,-8,-6,-9,-7
1558442254702938,-1,-1,-3,-2,-2,-1,-1,3
1558442254702938,-1,-3,-2,-1,3,8,8,-1
1558442254709920,0,1,0,2,3,5,0,-3
1558442254709920,0,0,1,1,4,1,0,1
1558442254724881,-2,-4,-1,-1,-3,-1,-1,-6
1558442254724881,-2,-1,1,0,-2,-6,-3,-3
1558442254732859,0,-1,-1,-2,-6,-3,1,0
1558442254732859,-1,-2,-1,-5,-12,-6,-8,-5
1558442254739839,-2,-1,-4,-3,-2,-6,-3,-2
1558442254739839,1,4,6,3,19,14,11,7
1558442254755797,0,1,-1,1,5,5,0,1
1558442254755797,-2,0,-3,1,6,4,1,1
1558442254762779,-1,-2,-2,-1,-8,-6,-5,-4
1558442254762779,-1,-3,-5,-5,-17,-10,-8,-5
1558442254769759,1,-1,1,-2,-3,-7,0,3
1558442254769759,1,-1,2,0,2,3,2,5
1558442254784721,-2,0,0,0,4,0,3,-5
1558442254784721,1,1,0,1,9,12,7,0
1558442254793695,0,1,-2,0,0,0,-2,-1
1558442254793695,-1,-1,-3,-4,-12,-11,-4,-1
1558442254799680,1,0,2,0,3,-2,-2,0
1558442254799680,-2,-2,-2,-2,2,0,1,-1
1558442254815637,1,-2,3,-1,-3,0,2,2
1558442254815637,0,0,-2,-2,2,1,5,-1
1558442254822618,0,0,2,2,3,5,-1,5
1558442254822618,-1,-2,-8,-4,-5,-6,-4,-2
1558442254829600,-1,-4,-7,-5,-4,0,-4,-5
1558442254829600,-2,-3,1,0,0,-2,-3,-3
1558442254844559,-1,-1,-2,-2,0,-2,-1,2
1558442254844559,-2,2,0,0,-2,-1,2,-1
1558442254853538,0,0,0,2,10,6,4,5
1558442254853538,0,-1,-1,1,1,3,0,0
1558442254860519,-2,1,-2,-2,-6,1,2,-2
1558442254860519,-2,-4,-1,-4,-13,-19,-8,-5
1558442254875479,0,0,1,-1,4,2,1,1
1558442254875479,-2,-2,0,-1,5,4,-3,-4
1558442254882465,0,-1,-1,1,2,4,3,1
1558442254882465,1,-1,-2,0,3,6,0,-1
1558442254890440,-5,-3,0,-1,-7,-11,-4,-4
1558442254890440,2,3,2,-1,-4,-6,-6,4
1558442254905398,-1,-2,1,1,1,5,2,-3
1558442254905398,-5,-4,-7,-3,-6,-4,-8,-9
1558442254913378,-1,-1,-2,-1,-4,-6,-4,0
1558442254913378,0,-2,-6,1,8,6,6,2
1558442254920360,-2,-2,-2,-1,1,-5,-4,-1
1558442254920360,2,0,2,-2,-2,-3,1,4
1558442254935318,-4,-2,-2,-4,-7,-6,-10,-10
1558442254935318,-1,-1,-1,-1,-11,-12,-5,-4
1558442254942299,0,-1,1,-1,1,6,4,0
1558442254942299,1,-1,-2,2,13,3,0,3
1558442254950276,1,1,1,0,-1,4,0,2
1558442254950276,-1,0,1,-1,2,4,1,1
1558442254965244,-3,-3,-1,-1,1,0,0,-3
1558442254965244,-4,-2,0,-5,-16,-11,-9,-5
1558442254973216,1,0,0,-1,4,-2,2,2
1558442254973216,2,1,1,1,8,2,4,1
1558442254980197,1,0,0,0,-6,-6,-1,0
1558442254980197,-3,-1,-2,0,-4,-1,-2,-2
1558442254996154,-3,-4,-3,-4,-4,-4,-6,-4
1558442254996154,-2,0,2,-1,0,4,0,-2
1558442255002138,-1,1,3,3,3,-4,-1,0
1558442255002138,-1,-1,-2,-2,-2,-2,0,-3
1558442255010116,1,-1,0,-1,-3,4,4,6
1558442255010116,-3,-3,-4,-2,-4,-8,-6,-6
1558442255025078,0,-2,-2,-2,-2,-3,-2,-1
1558442255025078,0,0,-1,-1,-1,-3,-4,-2
1558442255033055,-2,-1,-1,0,3,5,1,0
1558442255033055,-1,-2,-1,0,3,8,-1,0
1558442255040036,-1,0,2,0,3,-1,-2,-1
1558442255040036,0,-4,-5,-3,0,-5,-4,-4
1558442255055994,-3,-1,-2,-1,-3,1,4,-2
1558442255055994,1,0,0,-3,-8,-7,3,3
1558442255062976,-3,-2,-2,-2,0,2,-5,-5
1558442255062976,1,0,1,-2,-3,3,4,5
1558442255077935,-2,-1,-2,-4,-9,-12,-5,-9
1558442255077935,-4,-2,0,-1,4,1,1,-5
1558442255084918,0,-2,-2,-1,2,7,4,3
1558442255084918,2,2,4,4,5,-2,4,7
1558442255092896,0,0,1,1,2,-2,-1,-1
1558442255092896,0,-2,2,-1,-9,-3,-7,-4
1558442255099877,-1,2,-5,0,7,9,5,0
1558442255099877,-3,-2,0,-2,-6,0,-3,-4
1558442255115834,1,-1,-1,1,-1,-2,1,7
1558442255115834,2,2,3,-1,4,-5,-4,-2
1558442255122816,-1,-2,-4,0,0,3,0,1
1558442255122816,-2,-2,0,-1,-6,0,-7,-5
1558442255137775,-3,-1,-7,-5,-9,-7,-2,-5
1558442255137775,0,-1,3,3,6,3,4,5
1558442255144758,0,0,0,-3,-1,1,-3,-2
1558442255144758,0,1,0,-1,1,1,-2,-2
1558442255152736,-3,-1,3,0,-6,-10,-7,-4
1558442255152736,-1,-4,-5,-3,-10,-4,-6,-2
1558442255167706,1,0,0,0,12,10,13,4
1558442255167706,0,-1,2,3,11,11,3,3
1558442255175676,-3,-2,-2,-1,-1,-6,-2,-2
1558442255175676,-3,-3,-3,0,-8,-8,-7,-7
1558442255182655,-2,-3,0,-5,-10,-6,-7,-6
1558442255182655,-4,-4,-3,-6,-11,-6,-3,0
1558442255198613,2,2,2,2,14,6,1,-5
1558442255198613,3,2,-1,2,11,12,10,9
1558442255204597,-3,-2,-2,-4,-6,-8,-7,-8
1558442255204597,-1,-1,0,0,-2,-2,-2,-5
1558442255213572,-1,-2,-2,-2,-7,-3,-2,1
1558442255213572,-4,-3,-4,-4,-5,-7,-7,-3
1558442255219558,-1,-3,-6,-2,-5,-6,-5,-1
1558442255219558,1,0,2,1,4,-1,1,1
1558442255235514,1,-1,2,4,11,12,6,3
1558442255235514,1,0,1,-1,0,2,-2,-5
1558442255242495,-1,-2,1,1,-6,-2,1,1
1558442255242495,-1,-2,-1,-2,-2,-3,-3,-1
1558442255258452,-1,-2,-1,0,-1,4,-2,-1
1558442255258452,-2,-1,-1,1,-1,-3,1,2
1558442255265433,-1,-2,-2,-1,-5,-8,-4,-5
1558442255265433,2,2,1,1,7,2,3,0
1558442255273412,-1,0,3,-1,-3,1,-1,8
1558442255273412,0,0,-4,-2,-3,-1,-5,-2
1558442255280394,-2,-2,-4,-2,-1,4,3,2
1558442255280394,-2,-2,0,0,1,-3,-4,-8
1558442255295357,-2,-1,-4,-4,-7,-7,-3,-1
1558442255295357,1,1,1,-1,-1,-8,-1,-2
1558442255302336,3,2,3,1,1,-4,-4,-3
1558442255302336,1,0,3,0,5,10,8,4
1558442255318301,1,3,0,2,12,9,2,0
1558442255318301,-5,-5,-5,-3,-11,-6,-6,-4
1558442255325274,-1,2,0,-1,4,-2,0,0
1558442255325274,-2,-3,-3,-3,-6,-8,-3,-1
1558442255333253,0,-1,-1,-3,-12,-11,-5,-1
1558442255333253,0,2,0,2,12,14,9,5
1558442255347217,-1,-2,-1,-1,-2,-1,-2,0
1558442255347217,-2,-3,-3,-4,-11,-12,-6,-3
1558442255356196,0,-2,1,1,3,5,4,-1
1558442255356196,2,0,0,1,3,5,2,1
1558442255362179,-1,1,1,1,1,0,0,-1
1558442255362179,1,-1,-2,-2,-2,-1,-2,-1
1558442255378133,-4,-2,1,-3,-5,-4,-5,-7
1558442255378133,1,-1,-3,-1,-4,-4,-2,2
1558442255385115,-1,-2,-1,-2,1,1,1,-1
1558442255385115,-1,0,-1,-1,0,0,-2,-2
1558442255393092,0,-3,-2,-2,0,-4,-2,-2
1558442255393092,-3,0,1,-2,1,1,0,-6
1558442255407055,1,0,0,0,-1,0,1,5
1558442255407055,-1,-1,-2,0,1,-3,-3,-3
1558442255416038,1,-2,-2,0,-3,1,2,-1
1558442255416038,-3,-2,-1,-2,2,0,-1,-4
1558442255423015,0,-2,-2,-1,-5,-11,-5,-2
1558442255423015,-1,0,-1,-3,-9,-6,-2,1
1558442255437974,-1,1,-2,2,9,11,-2,-2
1558442255437974,3,0,4,2,8,-1,8,11
1558442255444960,-1,-1,-3,0,4,5,1,-4
1558442255444960,-1,-3,-2,-4,-5,-4,-5,-5
1558442255460917,-2,-4,-6,-6,-11,-9,-11,-1
1558442255460917,-2,0,0,0,-2,3,2,-1
1558442255467898,-1,-3,-3,-1,6,1,1,4
1558442255467898,-1,-2,-1,1,-3,-1,1,-2
1558442255474878,-4,-1,0,0,-3,2,5,-4
1558442255474878,1,1,1,-1,6,9,1,-4
1558442255483850,-4,-2,-1,-3,-10,-11,-7,-2
1558442255483850,-1,0,-2,-1,-3,-7,-3,0
1558442255497814,2,-2,1,-3,-3,-8,0,2
1558442255497814,-1,-1,-1,0,5,4,2,0
1558442255504796,-1,-2,0,-1,-5,5,0,-5
1558442255504796,-4,-2,-2,-3,-4,-8,-8,0
1558442255520752,-4,-3,-2,-2,-4,2,-2,-3
1558442255520752,-2,0,-3,-2,-6,-4,-2,-3
1558442255535766,4,4,4,4,8,-3,0,3
1558442255535766,-3,-3,-5,-1,0,4,3,-3
1558442255544690,0,0,1,0,3,2,2,3
1558442255544690,-4,-4,-5,-3,-7,-2,-5,-1
1558442255545694,0,-1,3,1,-1,1,-1,2
1558442255545694,-3,-3,-3,-2,0,-6,-3,-6
1558442255558840,-3,-1,-3,-3,-4,-4,-2,-5
1558442255558840,-1,-5,-3,-4,-10,-8,-6,-6
1558442255564850,4,2,3,1,9,1,8,8
1558442255564850,1,2,2,2,7,12,6,4
1558442255580596,-2,-4,-4,-3,-5,-6,-3,-3
1558442255580596,-1,1,2,0,-8,-9,-7,-3
1558442255587583,-3,1,0,-2,-1,1,0,-2
1558442255587583,-1,-1,-6,-2,-2,2,3,-1
1558442255603533,-3,-1,-3,-1,-1,4,-3,-3
1558442255603533,1,-2,1,-2,-4,-7,0,1
1558442255605526,-1,0,0,1,-1,2,-3,-3
1558442255605526,1,-1,1,1,7,3,-2,-2
1558442255618492,1,0,-1,-3,-5,-5,-2,1
1558442255618492,-1,-2,-4,-2,-1,-1,-4,-4
1558442255625474,-1,1,0,2,3,3,5,2
1558442255625474,1,1,3,1,-1,-2,-3,1
1558442255640432,0,1,0,0,-1,-6,-1,-4
1558442255640432,0,0,-1,-1,2,5,-1,-3
1558442255647412,-3,-3,-3,-3,-6,-4,-5,-3
1558442255647412,-1,0,1,0,-3,0,0,2
1558442255664573,1,0,1,-2,-3,-3,-2,-2
1558442255664573,1,-1,0,-2,-9,-10,-8,2
1558442255665365,-2,-1,-3,-1,2,0,-1,-5
1558442255665365,-3,-2,-2,-3,-3,1,-3,-7
1558442255678331,0,-2,-2,1,9,6,3,1
1558442255678331,2,0,1,-1,2,9,4,4
1558442255685532,-2,-2,-5,-5,-7,1,-4,-4
1558442255685532,1,1,-1,0,-3,-9,-4,1
1558442255700271,-2,-2,-1,-2,-3,-8,-3,0
1558442255700271,-4,-2,-3,-2,-4,-2,-3,-4
1558442255707280,0,-6,-3,-3,-9,-6,-3,1
1558442255707280,2,3,7,5,20,16,12,3
1558442255724206,-2,1,3,-1,2,0,-4,-3
1558442255724206,-2,0,-1,-1,-5,-7,-1,-2
1558442255725203,-2,-2,-5,-4,-4,-3,-5,-5
1558442255725203,-1,-2,-3,0,-4,-1,1,0
1558442255738169,2,-1,1,0,1,-4,-3,3
1558442255738169,-3,-2,-2,1,2,0,0,-2
1558442255745152,1,2,3,-2,-3,-5,1,2
1558442255745152,0,-1,-2,-1,5,6,-1,-4
1558442255761191,-2,-1,0,1,5,3,1,2
1558442255761191,-3,-2,-3,-4,-5,-3,-7,-6
1558442255767334,0,0,3,1,2,5,1,4
1558442255767334,-1,-1,-5,-3,-10,-10,-6,-4
1558442255784047,0,-1,-4,-4,-5,-3,4,5
1558442255784047,-1,2,3,3,15,10,4,-6
1558442255784047,-1,-3,-4,-2,-2,-2,1,5
1558442255784047,-3,-3,4,0,-6,-5,-3,0
1558442255799007,-2,-1,-4,-2,-1,-1,-1,-3
1558442255799007,-2,-2,-3,-2,-1,0,3,7
1558442255804993,-1,-1,-1,0,1,-1,-3,-5
1558442255804993,0,-1,0,-3,-4,1,-4,-1
1558442255819952,-1,-1,0,-1,-9,-7,-5,-3
1558442255819952,0,-1,-4,-3,-2,-7,-4,0
1558442255828275,0,1,1,3,4,7,2,-3
1558442255828275,2,2,2,3,11,5,8,8
1558442255842890,-2,2,6,4,8,8,1,-4
1558442255842890,-5,-2,-6,-4,-8,-5,-8,-4
1558442255843889,-5,-5,-4,-5,-10,-16,-15,-8
1558442255843889,-5,-4,-6,-5,-8,-9,1,-1
1558442255859067,0,-2,0,-1,-3,4,4,0
1558442255859067,2,-1,3,5,11,2,7,6
1558442255865877,0,1,1,0,2,2,0,-2
1558442255865877,-3,-2,-2,-1,-1,-1,-5,-5
1558442255879794,1,-3,-6,-3,-5,-8,-5,-2
1558442255879794,0,-1,0,-2,-6,-7,-2,-3
1558442255887773,-1,-2,-1,1,1,4,5,4
1558442255887773,0,-1,-1,-1,-1,4,-2,-1
1558442255903729,-6,-4,-3,-4,-6,-6,-5,-6
1558442255903729,-1,-3,-2,-1,1,3,0,-1
1558442255903729,1,-1,1,1,5,2,2,2
1558442255903729,-1,0,2,1,4,-6,-1,-2
1558442255919696,0,-1,-3,-2,-4,-4,-3,-2
1558442255919696,1,1,0,-1,-6,0,-2,-1
1558442255924709,-1,0,-2,0,1,2,0,-3
1558442255924709,-1,-1,1,-2,-6,-4,-4,-4
1558442255939638,-1,-1,-3,0,2,1,1,1
1558442255939638,-1,2,3,0,5,4,5,5
1558442255947786,-2,-3,-8,-4,-2,-3,-2,-2
1558442255947786,0,1,-1,1,2,3,2,-5
1558442255963774,1,1,1,1,2,0,-1,-2
1558442255963774,-3,-1,-3,-3,-6,-4,-4,-3
1558442255963774,-2,-3,-3,-4,-7,-4,-4,-3
1558442255963774,-1,-3,-3,-5,-9,-10,-9,1
1558442255979528,1,-1,1,-3,-1,0,-1,0
1558442255979528,-2,-1,-1,2,5,3,2,1
1558442255985710,2,3,3,3,11,3,5,5
1558442255985710,-2,0,1,-1,0,2,-3,-2
1558442256001468,1,0,1,0,-1,-4,2,-2
1558442256001468,-2,-3,-2,-2,-2,-1,-3,-3
1558442256007450,-1,-2,0,-2,-6,-4,-4,-3
1558442256007450,1,-2,-2,-2,-3,-3,-2,3
1558442256023411,0,1,-1,0,2,1,-4,-6
1558442256023411,0,0,0,0,-5,-6,0,-3
1558442256024404,-2,-1,-2,-2,0,6,4,0
1558442256024404,0,0,-1,2,5,12,5,2
1558442256039364,-2,0,2,1,3,-6,-6,1
1558442256039364,-1,-3,-6,-2,3,4,0,-3
1558442256045348,-2,-1,0,-1,-6,-11,-5,-3
1558442256045348,0,-3,-6,-5,-9,-11,-5,-1
1558442256061309,-2,-4,-2,0,1,7,5,2
1558442256061309,0,0,3,0,3,5,1,-2
1558442256067289,1,-1,1,-2,-1,-9,-4,0
1558442256067289,-2,-2,-4,-2,2,8,1,-3
1558442256083246,-3,-1,-4,-1,-6,-4,-1,-4
1558442256083246,-2,-1,-2,-4,-6,-6,-4,-3
1558442256084278,-4,-1,-3,-1,-4,0,-6,-3
1558442256084278,1,1,3,2,6,3,7,5
1558442256099204,-2,-1,-2,-3,-1,3,0,1
1558442256099204,0,-1,1,-1,-4,-4,-5,-1
1558442256105225,-5,-3,-1,-2,-8,-8,-2,-4
1558442256105225,4,1,3,2,11,11,4,2
1558442256121144,1,1,1,2,3,-1,1,-1
1558442256121144,-1,1,2,1,1,-2,2,0
1558442256127130,-4,-5,-9,-5,-5,-4,-6,-5
1558442256127130,-1,-3,-3,-4,-10,-5,-7,-2
1558442256143200,-2,-3,-4,-1,-7,-4,-2,-2
1558442256143200,0,0,-2,-2,-3,-7,-4,4
1558442256144090,1,1,5,1,5,10,8,1
1558442256144090,-2,1,2,1,5,-1,0,0
1558442256159045,2,0,0,1,3,5,-2,-4
1558442256159045,-3,-4,-3,-5,-11,-13,-7,-2
1558442256165173,0,1,1,-1,2,1,4,3
1558442256165173,-2,-2,-1,-3,-5,-3,-2,-1
1558442256182008,-1,0,0,-2,-5,3,-1,0
1558442256182008,0,-1,2,0,0,8,0,-4
1558442256196209,1,-2,-4,1,2,-10,-4,0
1558442256196209,0,-1,-1,-1,8,1,3,-3
1558442256203029,-4,-1,0,-3,-3,-6,0,0
1558442256203029,-3,-4,-3,-1,-5,2,0,-1
1558442256203927,0,-1,4,1,-1,10,4,1
1558442256203927,-2,-4,-4,-2,-5,-15,-7,-2
1558442256225865,1,-2,-2,-3,1,4,1,0
1558442256225865,-1,-3,-2,0,-3,-2,-3,-2
1558442256226862,3,2,1,2,5,1,3,7
1558442256226862,-4,-1,-3,-3,-9,-6,-5,-9
1558442256241851,0,2,0,-2,4,-2,-3,-1
1558442256241851,-1,1,1,-2,1,-3,0,-2
1558442256247809,-1,0,0,-1,-2,10,-1,-2
1558442256247809,-3,-1,0,-1,-2,0,-2,-3
1558442256264118,-1,1,0,1,6,2,3,5
1558442256264118,0,3,2,0,6,2,4,3
1558442256264118,0,0,-6,-4,-5,-7,-5,-1
1558442256264118,-2,-2,2,-2,-13,-5,-9,-6
1558442256286704,-1,-3,-6,-3,-3,-5,-2,-1
1558442256286704,-2,-2,-1,2,7,1,7,6
1558442256287700,0,-1,2,-1,5,4,0,-7
1558442256287700,0,0,-1,2,9,10,3,0
1558442256310137,-3,-3,1,-1,-8,-5,-4,-2
1558442256310137,1,-1,-3,-1,-5,-2,-6,2
1558442256310641,-4,-3,-4,-3,-7,-10,-3,-5
1558442256310641,-3,-2,-1,-3,2,4,0,0
1558442256322907,-2,-1,0,0,0,1,1,-3
1558442256322907,2,-1,-2,0,1,6,1,-4
1558442256330771,-1,1,2,0,2,-2,-2,-1
1558442256330771,0,-2,-3,-1,-3,-3,-2,2
1558442256345576,0,-2,-1,-1,3,0,3,2
1558442256345576,0,0,0,-2,-6,-4,-5,-5
1558442256346545,0,-2,0,0,2,5,0,-2
1558442256346545,-1,0,0,0,6,-4,5,4
1558442256361507,-2,-1,0,1,-2,-1,-4,-2
1558442256361507,-4,-2,-4,-1,2,0,-2,0
1558442256367705,-3,-3,-2,-1,-9,-7,-7,-4
1558442256367705,1,0,4,4,3,4,6,3
1558442256382454,-1,-2,-8,-3,2,5,4,0
1558442256382454,-1,-2,-3,-2,-2,-4,-2,-2
1558442256390653,0,0,-1,-2,-5,-6,-1,2
1558442256390653,-3,-2,-4,-3,-6,-7,-5,-1
1558442256413363,-1,-1,4,0,1,-5,-3,3
1558442256413363,-1,0,1,0,5,5,3,-3
1558442256414368,-2,-1,-4,0,7,9,5,-2
1558442256414368,-1,-3,-4,-2,-10,-5,-3,-2
1558442256421345,-2,-1,-2,-4,-8,-3,-8,-3
1558442256421345,3,-2,1,-2,0,-8,0,2
1558442256427326,1,1,7,4,11,7,4,3
1558442256427326,-3,-3,-3,-2,4,2,-1,-3
1558442256442288,-1,-3,-2,-1,-5,-8,-3,-1
1558442256442288,-1,0,1,-1,0,1,-1,3
1558442256450543,-1,2,1,2,1,2,1,-7
1558442256450543,-1,-1,-2,-3,-10,-3,-4,-6
1558442256466592,0,1,-2,-1,0,-10,-3,0
1558442256466592,0,0,0,2,2,-1,-2,-3
1558442256466592,1,-3,-3,-1,0,-2,1,4
1558442256466592,1,-1,3,1,2,1,4,0
1558442256481488,-1,-2,-5,-1,-4,6,2,-4
1558442256481488,-1,0,0,-2,-5,-1,1,0
1558442256487167,0,1,0,0,5,0,-3,0
1558442256487167,-1,-2,-3,-1,-3,-6,-2,1
1558442256503123,-2,-1,0,0,-1,1,-1,-5
1558442256503123,-5,-1,-2,-1,3,0,-1,-2
1558442256510152,1,1,0,0,2,0,0,2
1558442256510152,0,2,1,0,-4,-4,-5,-5
1558442256526093,0,-3,-2,-2,-2,1,1,0
1558442256526093,3,-2,-3,-4,-7,-3,-1,-2
1558442256527109,-2,-1,-3,-3,-7,-10,0,-2
1558442256527109,0,1,0,2,13,7,3,3
1558442256541289,0,-1,2,1,2,3,1,2
1558442256541289,-2,-2,-3,-2,-4,-9,-6,-4
1558442256548231,-3,-5,-2,-4,-7,-3,-6,-5
1558442256548231,-1,0,0,-1,1,4,2,1
1558442256563199,0,3,0,2,5,6,5,-3
1558442256563199,0,0,-2,-1,-3,-5,-2,3
1558442256569953,-3,-1,-2,-2,-6,-4,-5,-3
1558442256569953,-2,-2,-4,-5,-6,-9,-4,-2
1558442256586136,-3,-1,-1,-2,1,0,-1,0
1558442256586136,-2,-2,-3,-1,-3,1,-1,-3
1558442256586902,-2,0,1,0,4,-3,-3,2
1558442256586902,1,0,2,0,2,7,7,1
1558442256601871,3,3,0,-2,-1,-5,1,-1
1558442256601871,0,0,3,0,8,8,4,2
1558442256607847,-4,-4,-8,-3,-12,-8,-11,-10
1558442256607847,-3,-2,-3,-2,-4,-2,-5,-5
1558442256622807,0,-2,2,-1,0,-5,2,1
1558442256622807,-3,-2,-2,-2,-6,-5,-6,-5
1558442256629789,1,0,3,0,6,10,6,5
1558442256629789,-1,-1,-1,0,2,3,4,4
1558442256645743,-1,-1,-2,-2,-2,2,-2,3
1558442256645743,1,2,3,3,-1,-9,-3,-2
1558442256646740,-4,-5,-10,-4,-6,-4,0,0
1558442256646740,0,-3,-2,-2,-6,-5,-8,-4
1558442256669038,-1,-1,-1,-2,-1,5,0,1
1558442256669038,1,0,1,1,9,10,6,3
1558442256669038,-2,-1,-1,-2,-7,-6,-5,-5
1558442256669038,-1,2,1,1,6,1,2,2
1558442256683003,-2,-1,-1,0,-2,-1,-5,-3
1558442256683003,-2,-2,-6,-4,-2,2,0,-1
1558442256690775,0,-1,2,1,-3,-1,-2,-3
1558442256690775,-1,-3,-5,-4,-10,-8,-4,-2
1558442256706624,-2,-2,-2,-3,-4,-9,-4,0
1558442256706624,-4,-2,-1,0,3,1,4,-1
1558442256706624,1,1,1,1,5,7,7,4
1558442256706624,-1,1,2,0,6,3,-1,0
1558442256721540,-2,-1,-1,1,2,-1,-2,-6
1558442256721540,0,-1,-3,-1,-3,1,-3,-4
1558442256727833,-2,-2,-2,-3,-7,-14,-7,-4
1558442256727833,-2,-1,-3,-4,-7,-5,-6,-4
1558442256743145,0,0,1,-1,2,1,3,0
1558442256743145,0,1,8,3,6,-2,-1,0
1558442256750121,-2,-4,-10,-2,-1,3,-1,-2
1558442256750121,0,-3,-3,-1,3,0,4,7
1558442256766058,0,0,0,-1,-1,1,-3,-5
1558442256766058,-1,-3,-1,-3,-9,-3,-2,-2
1558442256766834,0,0,1,-1,-5,-7,-5,0
1558442256766834,0,0,0,-1,-4,-9,-2,3
1558442256789774,2,2,1,-1,5,6,2,4
1558442256789774,-4,-1,-5,0,2,6,1,-6
1558442256790770,3,1,1,-1,2,2,1,-1
1558442256790770,-2,-1,0,1,3,1,-3,-6
1558442256802928,-1,-3,2,0,-6,-7,-2,2
1558442256802928,-1,0,-1,-2,1,5,0,-1
1558442256810746,0,1,0,-3,-5,-1,-4,-3
1558442256810746,-1,0,-3,1,-3,-6,-1,0
1558442256826678,-2,0,0,0,6,2,3,2
1558442256826678,0,-1,0,0,4,3,3,2
1558442256827676,-1,-1,3,1,6,2,1,0
1558442256827676,-2,-2,-4,-5,-7,-7,-6,-5
1558442256841635,-4,-2,-4,-2,-8,-6,-5,-2
1558442256841635,-2,-3,-5,-3,-8,-6,-3,-2
1558442256847653,1,0,3,2,9,10,4,2
1558442256847653,-1,1,1,1,1,4,0,-1
1558442256862578,-2,-3,-7,-2,-5,-7,-4,-2
1558442256862578,1,-1,-1,-3,-4,-2,-5,-3
1558442256869558,-2,-2,1,-1,-5,-4,0,-2
1558442256869558,2,0,2,0,5,3,2,0
1558442256885517,-2,-2,-1,-3,-4,-6,-4,-2
1558442256885517,-1,-2,-1,-1,-4,-3,-4,-6
1558442256886515,-1,-1,2,1,6,4,5,-1
1558442256886515,-1,-2,-5,-2,-3,0,-1,-1
1558442256901495,2,1,6,-2,6,6,1,-2
1558442256901495,0,-3,-7,-2,-3,-9,-4,3
1558442256907765,-2,1,-6,-2,-7,-1,-1,-2
1558442256907765,-3,0,1,-2,0,-4,-4,-2
1558442256922728,-1,-1,-2,0,1,-1,-3,-3
1558442256922728,-2,3,5,1,3,0,0,2
1558442256930673,-2,-2,-1,-3,-6,-6,-4,-3
1558442256930673,1,0,1,0,4,5,6,8
1558442256945954,0,-2,-2,-3,-4,-7,-2,-3
1558442256945954,-1,0,-1,-1,0,4,3,-1
1558442256946709,-1,-1,0,0,0,-1,-4,-1
1558442256946709,-3,-6,-8,-5,-9,-7,-5,-3
1558442256977641,-1,0,1,1,5,-2,4,5
1558442256977641,0,-2,-2,0,3,3,1,0
1558442256978630,-1,-2,2,-3,-4,-4,-5,-3
1558442256978630,-1,-4,-6,-3,-11,1,-5,-5
1558442256982910,0,0,-1,-1,5,4,0,-2
1558442256982910,1,-1,2,0,7,3,6,0
1558442256990599,-1,-1,0,0,0,-5,-5,-1
1558442256990599,-2,0,-1,-1,1,4,0,-2
1558442257007546,-2,-2,-4,-5,-8,0,-5,-6
1558442257007546,-2,-1,-3,-2,-8,-13,-6,-3
1558442257007546,-4,-2,-2,1,-4,-3,2,1
1558442257007546,-1,0,1,2,7,10,8,-1
1558442257029488,3,1,-1,1,2,6,8,6
1558442257029488,-3,-1,-2,-3,-6,-5,-7,-6
1558442257030487,-1,-1,-4,-3,-1,4,4,-4
1558442257030487,-1,1,3,-2,-1,-5,-6,-4
1558442257042641,-1,0,1,2,4,0,-3,-3
1558442257042641,0,2,6,-2,2,0,-2,1
1558442257050435,0,-3,-7,-2,2,-6,-6,0
1558442257050435,-3,-4,-1,0,-5,-6,-1,-5
1558442257066390,0,-2,0,0,-3,3,4,2
1558442257066390,-2,-4,-6,-1,0,-5,-3,3
1558442257066390,0,1,3,1,0,1,0,-2
1558442257066390,1,3,1,1,8,0,3,3
1558442257081348,-1,-2,-2,-4,-8,-7,-4,-3
1558442257081348,-2,-1,1,-1,-7,-6,-1,-2
1558442257087331,-1,-1,-2,0,3,8,0,1
1558442257087331,0,1,0,0,-1,5,0,2
1558442257102635,-4,0,-1,1,1,-4,-2,-3
1558442257102635,-2,2,0,0,1,3,6,3
1558442257118248,1,-1,-1,-1,0,-3,1,1
1558442257118248,1,-1,1,0,-3,-2,0,-3
1558442257125257,1,-3,-4,-1,-4,-5,-3,-2
1558442257125257,0,-1,-4,-2,0,2,-5,-6
1558442257126228,-3,-4,-2,-1,-3,-1,0,5
1558442257126228,-1,-2,-1,-1,3,-4,0,2
1558442257141187,-1,1,6,2,4,5,1,1
1558442257141187,-4,-4,-8,-1,-3,-4,-4,1
1558442257147170,-2,0,0,-2,-5,-8,-5,-2
1558442257147170,0,0,0,-2,-3,3,2,2
1558442257162133,-3,-4,-3,0,2,-3,-2,-1
1558442257162133,0,0,-2,-2,0,3,4,-1
1558442257170109,0,0,2,-2,-1,2,-7,-3
1558442257170109,1,-2,-6,-2,-1,-3,4,6
1558442257186066,-3,0,-1,-1,-2,2,1,-8
1558442257186066,-1,-3,1,0,0,6,0,0
1558442257186066,-1,-1,-3,-1,0,-2,3,-2
1558442257186066,0,0,2,-1,-3,-5,-5,-4
1558442257201035,-1,-1,-2,-4,-2,-4,-4,1
1558442257201035,0,0,-3,-2,-3,-1,3,4
1558442257207010,-1,-1,0,0,1,0,-1,-6
1558442257207010,-2,-2,2,-1,0,-4,-3,-2
1558442257222967,-2,-6,-7,-4,-5,-1,-3,-4
1558442257222967,2,2,3,2,3,-2,3,2
1558442257229986,0,-1,-1,0,6,6,3,3
1558442257229986,1,-1,-1,-1,-5,-6,-5,-3
1558442257244967,-2,-1,1,-1,-2,-2,-3,-2
1558442257244967,-1,-3,1,-1,-2,2,0,-2
1558442257252889,0,-2,-3,-2,-3,1,0,-1
1558442257252889,-2,2,-2,1,1,2,-1,0
1558442257261863,-1,1,-1,-4,-7,-10,-4,5
1558442257261863,-2,-2,0,-1,-1,1,-6,-9
1558442257267848,0,1,2,-1,4,1,1,0
1558442257267848,-1,0,1,0,3,3,1,1
1558442257283806,2,1,1,1,-6,-7,1,4
1558442257283806,-1,1,-1,-1,2,6,4,-3
1558442257289816,-1,-1,-4,-1,1,-4,-2,1
1558442257289816,-3,-2,-3,-2,-7,-6,-5,-4
1558442257304750,0,0,-1,-1,2,3,7,6
1558442257304750,-3,-1,-1,-1,-2,-2,-5,-9
1558442257312729,0,0,3,0,0,-6,-2,-2
1558442257312729,-2,-2,-3,-1,3,6,2,-3
1558442257321731,-1,-1,1,-1,-1,-5,-6,2
1558442257321731,-1,-4,0,-2,-3,-2,-2,-3
1558442257327722,-3,-4,-5,-4,-8,-3,-3,-2
1558442257327722,-1,-1,3,0,4,4,-2,0
1558442257342685,-2,-1,-5,-2,-1,4,-1,-6
1558442257342685,-1,0,-3,0,-2,-4,3,5
1558442257349670,0,1,1,1,3,-2,2,2
1558442257349670,-5,-5,-4,-1,-3,-6,-2,-2
1558442257364623,1,-3,-2,0,1,3,5,-1
1558442257364623,-1,-1,1,-2,1,-1,-4,-1
1558442257372567,-3,-5,-2,-5,-11,-5,-4,-5
1558442257372567,-2,0,-4,-3,-5,-7,-5,-2
1558442257381543,3,2,3,4,16,11,5,1
1558442257381543,-2,0,3,3,2,-8,-3,0
1558442257387527,0,-1,-5,-2,-3,-4,-3,-2
1558442257387527,-3,0,-4,-5,-7,1,-3,-6
1558442257402487,-1,-5,-3,-3,-9,-5,-4,-4
1558442257402487,0,-3,-4,-4,-3,-5,-3,1
1558442257410466,-3,-2,-2,0,3,5,0,0
1558442257410466,-2,-2,0,0,1,4,4,-1
1558442257425425,-3,-2,-1,-3,-7,-10,-7,-8
1558442257425425,-2,-1,0,-1,3,7,1,0
1558442257432409,1,0,0,0,4,0,3,4
1558442257432409,1,-1,-5,-2,-3,-4,-3,-1
1558442257448364,0,2,0,-1,0,1,0,4
1558442257448364,-3,-3,-4,-2,-7,-1,-5,-4
1558442257448364,-1,-2,-2,-1,5,-2,-2,-2
1558442257448364,2,2,3,4,8,6,4,3
1558442257462356,-2,-1,-1,-3,-4,-2,0,-4
1558442257462356,-3,-3,-3,-5,-9,-8,-2,-1
1558442257470307,1,3,3,2,0,2,2,4
1558442257470307,2,0,1,0,4,-5,-1,-2
1558442257485266,-3,-2,-3,-1,-1,0,-2,0
1558442257485266,-2,-3,-2,0,-1,2,1,-4
1558442257492248,-2,-2,-3,-3,-3,5,1,-3
1558442257492248,0,-3,-2,-2,0,2,0,3
1558442257508206,0,1,0,-2,-5,-8,-6,-4
1558442257508206,0,2,1,-1,-1,-9,-2,2
1558442257509201,-2,-1,0,0,3,4,2,0
1558442257509201,-3,-1,-1,-2,-8,-1,-7,-3
1558442257522167,0,-2,0,2,12,7,2,0
1558442257522167,2,2,-1,3,8,7,6,2
1558442257530145,-1,-3,-1,-3,-5,-2,-4,-4
1558442257530145,0,-2,-1,0,0,-5,2,0
1558442257545106,-2,0,-1,-2,-1,-3,-4,-2
1558442257545106,1,-1,-3,-1,-4,-3,-1,1
1558442257552087,-2,0,-1,0,-7,-2,-5,-2
1558442257552087,-1,0,0,-4,-9,-5,-1,-1
1558442257568044,-1,0,-2,0,5,6,3,-2
1558442257568044,1,0,2,1,12,7,3,3
1558442257569041,0,-1,-3,-1,-4,-5,2,-2
1558442257569041,-1,-2,1,-1,0,-1,-2,-2
1558442257582008,-2,-1,-4,-1,-3,-6,-2,3
1558442257582008,-2,-1,-3,-2,-8,-6,-5,0
1558442257589987,-2,-4,-2,0,-6,-5,-4,-4
1558442257589987,1,0,-1,2,9,9,2,1
1558442257604946,0,0,5,3,3,5,6,2
1558442257604946,-1,-1,-3,-2,-3,-1,-2,-1
1558442257612926,-2,-2,-1,-1,0,6,5,2
1558442257612926,0,-2,1,-1,-3,-9,-3,0
1558442257627919,-3,-1,-3,-4,-9,-9,-6,-1
1558442257627919,-2,-3,-1,-2,-10,-6,-7,-6
1558442257628882,2,0,0,-2,6,0,-2,0
1558442257628882,1,1,1,0,6,10,9,2
1558442257643841,1,-2,-2,2,9,8,4,2
1558442257643841,-1,0,-2,-2,-3,-3,-4,-2
1558442257649826,-4,-2,-3,-3,-12,-11,-7,-6
1558442257649826,-2,-2,-2,-2,-3,-9,-5,-2
1558442257664785,-1,-2,-2,-2,0,4,3,-2
1558442257664785,1,3,6,2,8,11,8,7
1558442257672764,-1,0,-4,-1,2,4,-2,0
1558442257672764,-3,0,-2,-1,-5,5,-2,-1
1558442257687725,-1,-1,-4,-2,-1,-10,-5,-9
1558442257687725,0,-1,2,-2,-1,-2,-3,-4
1558442257688722,0,-2,1,1,-1,-7,0,1
1558442257688722,-3,-1,-1,-1,-7,-7,-8,-3
1558442257702684,-3,-2,-2,-4,-3,1,-2,0
1558442257702684,-1,-3,-1,-1,-4,-6,-4,0
1558442257709666,-1,-5,-5,-2,-3,-2,-2,-2
1558442257709666,-1,-1,-1,-3,2,0,4,1
1558442257724676,0,0,1,1,4,9,5,3
1558442257724676,-2,0,2,0,3,0,0,-2
1558442257732605,0,3,4,-1,2,-2,1,1
1558442257732605,-2,-2,-5,0,-4,-5,-7,-6
1558442257748562,-1,1,1,-2,4,7,3,2
1558442257748562,-4,-1,-4,-3,-11,-9,-10,-5
1558442257748562,1,0,2,-1,1,-1,-1,3
1558442257748562,-2,-2,0,-1,3,0,4,-1
1558442257763556,0,-4,-2,-2,-9,-10,-3,-3
1558442257763556,1,-2,-3,2,14,14,6,0
1558442257769505,-3,0,0,-1,-2,2,2,-5
1558442257769505,0,0,-1,0,-1,-4,-4,0
1558442257784466,-1,-1,0,-3,-5,-1,-4,-2
1558442257784466,-3,-3,-6,-4,-9,-5,-5,-2
1558442257792445,0,1,1,-1,0,-2,4,3
1558442257792445,-1,-2,2,0,4,3,1,3
1558442257808400,-1,-1,2,2,3,1,-5,-6
1558442257808400,2,-1,0,-2,-2,-3,-1,1
1558442257808400,-3,-2,-5,-2,-5,-3,-3,-5
1558442257808400,0,-1,-2,-4,-6,-3,1,1
1558442257823400,-1,-1,-2,-1,-5,-4,-2,2
1558442257823400,-1,0,1,-2,0,-2,1,1
1558442257830426,-2,0,0,-1,-1,0,-2,-2
1558442257830426,0,-2,-3,-3,-5,-3,0,-1
1558442257845302,3,1,3,2,11,11,7,4
1558442257845302,0,1,-2,-1,-4,-10,-4,0
1558442257852329,0,0,-1,0,5,5,6,5
1558442257852329,-2,0,1,0,-2,-2,-6,-3
1558442257868242,-2,-2,-5,0,-5,-1,-4,-2
1558442257868242,-1,-2,3,0,-1,-4,-1,0
1558442257869240,-1,-3,0,-1,-3,-9,-4,3
1558442257869240,-1,-2,-1,-4,0,6,-1,-7
1558442257884236,1,0,2,0,1,-6,1,2
1558442257884236,0,-1,-1,3,10,5,5,1
1558442257890183,-2,-2,0,0,-3,3,-3,-1
1558442257890183,-3,-1,-3,-3,-9,-9,-6,-3
1558442257905144,-4,-2,-4,-4,-6,-7,-4,-3
1558442257905144,-2,-4,-3,-4,-5,-1,-2,-1
1558442257912125,2,1,0,0,6,4,7,2
1558442257912125,2,0,0,3,6,-3,1,8
1558442257928080,1,0,0,-1,2,1,1,-3
1558442257928080,-3,-2,-1,-3,-9,-7,-3,-2
1558442257929078,-3,-5,-2,-2,-9,-2,-9,-5
1558442257929078,0,-2,-5,-1,1,4,1,0
1558442257944073,0,-1,-1,-1,-3,-4,-2,0
1558442257944073,-2,-2,-1,0,1,1,3,-1
1558442257950056,-1,-1,0,-3,-1,3,-4,-2
1558442257950056,0,0,1,-2,-2,-9,-2,-2
1558442257965374,-1,0,1,0,2,6,1,0
1558442257965374,-1,2,3,-3,-4,-4,-4,-3
1558442257973209,0,-2,-4,0,4,-2,-1,1
1558442257973209,-1,-1,1,0,5,7,2,-2
1558442257987923,-1,-3,-3,-4,-6,-5,-5,-3
1558442257987923,2,1,-2,1,0,4,0,2
1558442257988919,-2,2,1,-2,-1,-2,1,-3
1558442257988919,-4,-3,-2,-2,-4,-2,-1,-4
1558442258003879,-1,0,2,0,8,-4,3,5
1558442258003879,-3,-2,-1,3,3,5,0,-3
1558442258010191,0,-1,-1,-2,0,-3,-7,-4
1558442258010191,-2,-1,-3,0,-3,-2,-2,-2
1558442258025153,-2,-3,-5,-3,-8,-7,-4,-3
1558442258025153,2,-1,-1,0,3,1,3,5
1558442258033140,0,0,-2,-2,-1,1,1,-3
1558442258033140,-3,-1,0,0,0,4,-1,-4
1558442258055768,-2,-3,-2,-1,-5,-5,1,0
1558442258055768,0,1,3,0,1,2,1,-5
1558442258056739,0,-2,-1,-2,-4,-5,-2,0
1558442258056739,0,-1,-3,1,4,4,3,2
1558442258063719,-1,-2,0,-3,-4,-2,-3,1
1558442258063719,-1,-3,-3,-3,2,6,2,0
1558442258069702,1,0,2,1,-2,-1,-5,-1
1558442258069702,1,0,0,-3,-4,-7,-4,3
1558442258084664,-1,2,3,1,5,12,5,-1
1558442258084664,-1,-3,-5,-3,-11,-10,-6,-1
1558442258092642,0,0,-4,0,1,-2,1,1
1558442258092642,1,1,1,3,12,20,10,4
1558442258107601,-3,0,0,0,-6,-11,-6,-2
1558442258107601,-4,-3,-6,-4,-6,-4,-3,-6
1558442258108598,-2,-3,3,-1,0,3,1,3
1558442258108598,-2,0,-4,-1,2,-2,-2,0
1558442258123560,-2,-3,-1,-1,-3,0,-2,-3
1558442258123560,-1,0,-1,0,1,0,-1,-1
1558442258129543,-1,-1,-1,-3,-9,-11,-6,-3
1558442258129543,-1,-4,1,-2,-6,1,-2,-2
1558442258144547,1,0,-1,-2,5,-1,0,2
1558442258144547,-1,1,-3,1,2,-12,-3,2
1558442258152480,-1,0,-1,2,4,4,1,-2
1558442258152480,-1,-1,0,-2,-5,0,0,1
1558442258168438,-1,-1,-2,-2,-6,-4,-4,-5
1558442258168438,2,-1,2,-2,-1,2,1,-1
1558442258175419,-1,1,-4,-2,0,4,1,0
1558442258175419,-2,-4,-3,-4,-6,-4,-2,-4
1558442258183397,-3,-3,-5,-1,2,-13,-4,1
1558442258183397,-1,1,1,2,5,11,2,3
1558442258190408,-3,-2,1,-1,1,0,1,-1
1558442258190408,2,1,1,-2,-2,-10,-9,-2
1558442258205341,0,-1,0,-2,-9,-4,-5,-4
1558442258205341,2,-1,0,-1,-2,0,2,0
1558442258212347,-3,-2,-2,-3,-5,-4,-6,-2
1558442258212347,-1,-2,-1,-2,-7,-2,3,-2
1558442258227280,2,1,-3,1,8,4,4,4
1558442258227280,-3,-2,-2,0,-2,1,1,0
1558442258235297,-3,-1,-2,1,-1,-2,-1,-4
1558442258235297,-1,0,0,0,3,3,-1,-1
1558442258244235,-1,-1,3,-1,0,9,1,2
1558442258244235,-1,0,-1,-1,-1,-9,2,1
1558442258250219,0,1,-1,0,1,-2,1,0
1558442258250219,-2,0,-4,0,-6,-2,-3,-4
1558442258265179,-4,-4,-3,-5,-12,-10,-5,-6
1558442258265179,0,0,-3,2,8,9,3,1
1558442258272162,0,-1,2,-2,3,2,-2,-1
1558442258272162,1,0,-1,1,4,-4,2,3
1558442258287122,-1,-1,-3,-3,-5,-3,0,4
1558442258287122,-4,-4,0,-5,-10,-5,-5,-7
1558442258295100,1,-1,-1,1,-3,1,2,1
1558442258295100,-2,-1,0,-4,-1,-1,-2,-3
1558442258304077,-2,1,1,-1,4,3,1,-1
1558442258304077,-1,-1,1,-2,-3,-7,-3,-1
1558442258310061,-2,0,-2,1,10,7,5,1
1558442258310061,-2,-5,-2,-3,-3,-4,-4,1
1558442258325018,-2,-1,-2,2,2,4,1,-3
1558442258325018,-1,0,0,-2,-5,-5,-4,-2
1558442258332000,-2,-4,-2,-3,-8,-6,-3,-1
1558442258332000,-1,0,-1,1,4,2,0,0
1558442258347957,0,0,-1,3,6,3,5,-2
1558442258347957,-1,-2,1,0,0,1,-4,-2
1558442258354939,-2,-1,-1,-3,-5,1,0,3
1558442258354939,0,-1,0,-2,-5,-4,-5,-2
1558442258370896,1,-1,0,-1,-4,0,-1,1
1558442258370896,0,-2,-1,1,4,5,0,1
1558442258370896,-2,-2,-1,-4,-6,-7,-4,-3
1558442258370896,0,1,0,0,0,-5,-5,-2
1558442258384892,-3,1,-1,2,11,15,6,-1
1558442258384892,-2,1,-1,-1,0,-2,3,1
1558442258392838,-1,-1,-4,-1,-5,-8,-7,-2
1558442258392838,-3,-4,0,-3,-6,-4,-6,-4
1558442258407804,-2,-3,-3,-4,-2,2,0,-2
1558442258407804,-1,-2,-3,-2,-3,-6,1,6
1558442258414785,2,1,4,0,2,-1,-3,-4
1558442258414785,1,-1,-7,-1,2,7,0,-5
1558442258430741,2,2,1,1,2,-6,0,2
1558442258430741,-2,-2,-2,-2,2,7,4,4
1558442258431738,-2,-3,-1,0,0,-3,-2,-1
1558442258431738,-2,-2,-1,-4,-10,-10,-6,-3
1558442258444703,-3,0,-1,-3,-7,-6,-3,-5
1558442258444703,2,1,1,-1,2,1,1,2
1558442258452750,0,-1,-2,2,8,8,2,0
1558442258452750,-2,-1,0,-1,1,1,0,-2
1558442258467897,-2,-3,-3,-2,-9,-6,-4,3
1558442258467897,0,-2,0,-1,-1,-7,-2,-2
1558442258475784,-3,-1,-3,-2,-3,-1,-2,-1
1558442258475784,1,0,0,2,6,11,9,4
1558442258491579,0,-1,-1,-2,-8,-10,-5,-4
1558442258491579,-1,-1,0,-1,-1,-2,-5,-4
1558442258492574,0,-4,0,-2,-4,2,-3,0
1558442258492574,-1,-1,0,0,4,1,2,-1
1558442258504539,-1,-1,0,1,2,-2,-2,1
1558442258504539,-1,1,1,1,3,9,2,-2
1558442258512949,-3,-1,-2,-3,-8,-10,-5,-2
1558442258512949,-1,-3,-3,-3,-6,-4,-4,-2
1558442258527553,-1,-3,-1,-1,2,3,3,6
1558442258527553,-3,-3,-4,-2,-3,1,-10,-12
1558442258535348,1,1,0,-1,5,3,6,5
1558442258535348,0,3,4,2,2,1,5,1
1558442258551320,0,1,-1,1,0,-1,1,-3
1558442258551320,-1,0,-2,-1,-2,-1,-3,-1
1558442258551320,-5,-1,-4,-3,-8,-2,-5,-4
1558442258551320,0,-2,-1,2,5,-2,2,2
1558442258565155,0,-1,1,0,6,2,2,1
1558442258565155,-2,-3,-1,-3,-14,-8,-9,-4
1558442258573146,2,1,-1,0,1,0,-1,1
1558442258573146,1,1,2,1,5,-4,1,1
1558442258587788,-1,-3,-7,-4,-8,-5,-3,-5
1558442258587788,0,-1,-1,-1,5,6,3,1
1558442258594835,-3,-3,-3,-2,0,2,-2,-3
1558442258594835,-1,1,2,0,-6,-2,0,0
1558442258610789,0,-1,0,0,-1,-3,-7,-1
1558442258610789,-1,0,1,2,5,1,4,-1
1558442258611760,2,2,5,1,1,-5,4,1
1558442258611760,-2,-1,-9,-2,-4,0,-2,-1
1558442258625788,-2,-1,-2,1,-1,0,-4,-5
1558442258625788,-1,-1,-2,-3,-4,-5,0,2
1558442258632945,0,-1,0,-1,2,1,-2,-2
1558442258632945,0,1,2,-1,2,-2,-2,-1
1558442258647657,0,2,1,-1,-1,-2,0,-2
1558442258647657,-2,-2,-1,-2,-4,-3,1,0
1558442258654612,-1,0,2,1,3,-1,-1,1
1558442258654612,1,0,-4,-1,0,2,-2,0
1558442258670569,-3,-2,-1,-1,-3,-4,-6,-1
1558442258670569,0,-1,-2,-1,-4,-2,2,4
1558442258671567,0,0,-1,0,1,5,0,-4
1558442258671567,-3,-2,0,-3,-4,-8,-4,-2
1558442258684563,1,-1,1,-1,4,3,4,2
1558442258684563,1,-1,0,2,0,-2,-1,-3
1558442258692510,-2,-5,-3,-3,-6,-3,0,0
1558442258692510,-1,0,1,-3,-2,4,2,0
1558442258707543,-1,-2,1,-1,0,4,-1,-2
1558442258707543,-2,-1,-2,-2,2,-3,-2,-4
1558442258714523,2,1,-1,2,2,2,4,4
1558442258714523,-3,-2,0,-2,-2,-8,-5,-5
1558442258730627,-3,-3,-4,-3,-6,0,-5,1
1558442258730627,-1,-1,-2,0,0,0,-1,-1
1558442258731479,3,-1,-1,0,-2,-4,-3,-1
1558442258731479,-2,-3,-2,-1,-2,4,2,0
1558442258745442,0,2,1,0,2,1,3,0
1558442258745442,1,-1,-2,-1,3,4,1,1
1558442258752452,-1,-1,-1,2,1,0,0,0
1558442258752452,0,-3,-2,-1,-4,-4,-3,-2
1558442258767384,-1,-1,-3,-1,-1,-4,-6,-6
1558442258767384,-2,0,5,-1,-1,-5,-5,-1
1558442258775370,-4,-3,-9,-5,-7,-6,-2,-3
1558442258775370,-1,-1,2,2,4,7,2,3
1558442258790494,-1,-3,-1,-1,2,6,7,5
1558442258790494,-1,-1,-2,-2,-3,-12,-5,-5
1558442258791319,-2,0,2,-1,3,2,4,6
1558442258791319,-1,-2,-2,-2,-4,0,-2,-5
1558442258805363,-2,-1,-4,-2,-10,-9,-6,-1
1558442258805363,0,-1,-1,0,2,4,2,2
1558442258812341,-2,-1,-3,-1,4,5,-2,-6
1558442258812341,1,3,0,0,0,4,4,2
1558442258827302,-2,1,2,1,2,-3,-1,-1
1558442258827302,-3,-2,-3,-2,-5,-1,-2,-3
1558442258835293,-2,-2,-1,-2,-4,-6,-1,-4
1558442258835293,0,-2,0,-1,5,-2,1,6
1558442258850237,-2,-3,-1,-2,-3,3,1,-5
1558442258850237,-2,1,-1,0,-1,-3,0,2
1558442258851157,0,0,0,-2,-9,-7,-3,2
1558442258851157,2,2,8,3,10,5,2,-1
1558442258865172,-1,-1,-7,-2,0,2,-3,1
1558442258865172,0,-1,-4,-3,-3,2,5,2
1558442258872915,-1,-3,0,0,1,3,-2,-5
1558442258872915,1,0,-1,-1,2,-8,-7,-1
1558442258888875,-2,0,3,0,6,9,1,-2
1558442258888875,-1,0,-3,-1,-4,0,1,0
1558442258894911,-2,-1,-4,-4,-12,-9,-3,-2
1558442258894911,-3,-2,-3,-4,-4,-4,-4,-3
1558442258910825,0,0,1,3,4,2,-1,1
1558442258910825,-1,-1,-2,-1,2,4,2,-1
1558442258910825,1,2,1,2,2,-7,-2,4
1558442258910825,-2,-2,-2,1,-5,-3,-1,-3
1558442258924808,-2,-2,0,-3,-4,-3,-4,-3
1558442258924808,0,-2,-1,1,1,0,-4,0
1558442258932758,-2,-3,-2,-3,-2,-1,-5,-5
1558442258932758,-1,-2,-1,-1,-1,2,-2,-3
1558442258948714,0,-1,-1,-1,-2,-1,1,0
1558442258948714,1,-1,1,-2,0,2,0,-2
1558442258954727,-1,-3,-3,-1,-2,-2,-2,2
1558442258954727,0,1,-2,-1,-7,-3,0,1
1558442258970660,-1,-2,-5,-3,-7,-7,-4,-5
1558442258970660,-1,-1,-2,-2,1,-7,-3,-1
1558442258971654,-4,-2,-1,2,4,8,1,-2
1558442258971654,-1,-2,2,-1,-1,0,2,6
1558442258984656,0,1,1,0,1,1,0,-4
1558442258984656,0,1,-1,1,2,-2,-1,-2
1558442258992627,0,-2,-2,-4,-1,-1,-2,0
1558442258992627,-4,-2,-5,-4,-4,-7,-3,-3
1558442259007587,-2,0,0,-3,-3,-2,-1,0
1558442259007587,-2,0,1,-1,-2,0,0,-1
1558442259014573,0,2,5,2,4,7,6,2
1558442259014573,0,-2,-3,-3,-9,-10,-6,-2
1558442259030529,1,0,0,-1,5,-2,0,-3
1558442259030529,2,-3,2,0,4,5,2,5
1558442259031497,-1,1,0,-2,0,1,-2,-2
1558442259031497,-3,-1,2,1,0,-1,1,0
1558442259044489,-3,-1,-8,-2,-6,-6,-1,-3
1558442259044489,-2,-1,-3,-2,-5,-2,-4,-2
1558442259052472,0,0,-1,-2,-4,-6,-2,-2
1558442259052472,-1,-4,-1,-1,3,1,0,-2
1558442259075409,3,-2,1,1,0,-5,0,2
1558442259075409,-1,-1,0,-1,4,7,4,1
1558442259076380,-1,-1,-1,0,-5,-2,-2,1
1558442259076380,-1,2,-1,0,1,2,0,-8
1558442259090367,0,-1,-1,-3,-1,4,5,5
1558442259090367,-1,1,-1,-2,0,3,-3,-6
1558442259098316,-1,-1,-2,-2,-3,-9,-4,0
1558442259098316,2,-1,1,0,3,2,2,2
1558442259105327,1,-2,-3,-2,2,-2,1,0
1558442259105327,0,-1,2,-1,-6,-4,-1,-1
1558442259112277,0,-1,-4,-1,-1,-2,-1,-2
1558442259112277,1,1,2,3,14,13,8,1
1558442259127428,1,1,-2,-1,-3,-3,-2,3
1558442259127428,-5,-3,-3,-4,-6,-3,-6,-5
1558442259135218,-1,0,5,-1,-3,-8,-4,-1
1558442259135218,-4,-4,-10,-3,-9,-4,-2,-1
1558442259150398,-4,-2,0,1,-1,0,-6,-8
1558442259150398,-2,0,-1,2,7,5,5,2
1558442259158309,-1,-2,0,-1,3,5,2,0
1558442259158309,0,0,-1,-1,-3,-2,0,0
1558442259165287,-1,-2,-1,-3,-8,-3,-3,-2
1558442259165287,-3,-2,-4,-3,-5,-10,-6,-3
1558442259172269,0,0,0,-1,8,7,3,-2
1558442259172269,1,3,4,3,9,6,4,2
1558442259187079,-2,-1,-1,-1,-4,-10,1,0
1558442259187079,-1,-2,1,-2,-12,-11,-6,-3
1558442259195056,-1,-2,-5,-3,3,-4,-3,1
1558442259195056,0,-1,1,-1,2,5,1,-1
1558442259210044,-6,-5,-3,-2,2,5,-1,-3
1558442259210044,-1,-3,0,-1,-2,-1,-3,-1
1558442259218037,0,-2,-4,-2,-7,-4,4,3
1558442259218037,-1,-1,-3,-1,-8,-5,-9,-4
1558442259224975,0,2,2,0,2,-1,-1,1
1558442259224975,-2,-1,-3,-1,-3,-3,-1,0
1558442259231957,1,1,0,-1,0,3,2,2
1558442259231957,-4,-3,-2,-1,-2,0,-1,0
1558442259248060,0,0,0,1,0,3,-3,-3
1558442259248060,-1,-2,-1,-1,-3,-5,-3,-4
1558442259254985,-3,-1,2,1,-2,0,1,-2
1558442259254985,-2,-1,-1,-4,-5,-9,-5,-2
1558442259269859,-1,-2,-2,-1,1,1,1,3
1558442259269859,0,-1,-1,0,2,1,3,1
1558442259277836,-1,0,-1,2,5,1,1,-4
1558442259277836,-3,-5,-3,-3,-5,-4,-3,-2
1558442259292796,-1,0,1,-1,1,1,0,-3
1558442259292796,0,0,-1,-1,2,-3,-1,0
1558442259293793,-1,-1,0,1,0,3,-2,-2
1558442259293793,1,-1,-1,-3,-6,-6,-5,0
1558442259307762,-2,0,2,-1,-4,-2,-5,-1
1558442259307762,-1,-3,-6,-1,-2,-4,0,-2
1558442259314738,-1,-2,-3,-1,2,8,0,0
1558442259314738,-1,0,1,3,9,5,0,-1
1558442259329697,1,0,1,-2,4,1,6,4
1558442259329697,-2,-3,-1,-1,-1,-4,-4,-2
1558442259337678,0,0,4,0,-4,-3,1,2
1558442259337678,-1,-2,-3,-3,-7,0,-4,-10
1558442259352646,-1,0,-1,1,0,-2,0,-1
1558442259352646,0,-1,-1,-3,2,-3,0,3
1558442259353645,1,0,-1,1,7,0,1,2
1558442259353645,-1,1,0,0,-1,-1,0,2
1558442259367595,-2,-1,-3,-1,-6,0,-6,-5
1558442259367595,1,-1,1,0,0,2,3,3
1558442259374579,-1,-1,1,0,3,3,-5,-3
1558442259374579,0,-4,-6,-5,-7,-8,-3,1
1558442259389538,1,1,0,-1,5,6,5,1
1558442259389538,-1,-1,-1,0,-2,2,3,1
1558442259398735,-3,-2,-1,-2,-5,-8,-3,-5
1558442259398735,0,0,1,0,2,0,2,1
1558442259413474,-3,-4,-7,-4,-6,-8,-6,-4
1558442259413474,-1,0,1,0,1,2,-1,-1
1558442259413474,-1,0,-1,-1,-1,6,3,-1
1558442259413474,0,-2,-2,0,-1,-2,2,0
1558442259427439,1,-3,1,0,2,-5,-1,2
1558442259427439,1,0,1,2,1,3,-1,-1
1558442259435415,-2,-3,-3,-4,-9,-9,-4,-3
1558442259435415,0,0,-3,-1,-5,-6,-3,-2
1558442259450374,0,1,-1,-1,2,6,3,0
1558442259450374,0,1,0,-2,4,3,3,6
1558442259458354,-2,0,-2,1,3,3,-4,-4
1558442259458354,-5,-2,-2,-1,-1,-7,-6,-1
1558442259473315,-1,0,1,-3,-5,0,-2,-2
1558442259473315,-2,0,-1,0,-2,3,2,-2
1558442259473315,1,0,3,2,5,4,7,2
1558442259473315,1,-2,-2,-1,4,-1,0,0
1558442259487283,-1,-2,-1,-1,-3,-3,-5,-1
1558442259487283,2,-2,-4,-2,-4,0,0,0
1558442259495256,-2,-2,-5,-2,-8,-4,-4,0
1558442259495256,-3,0,0,0,1,6,0,0
1558442259510214,0,2,1,1,4,-2,2,4
1558442259510214,-3,-1,1,-1,-3,-6,-7,-3
1558442259518195,0,0,-3,-5,-6,-5,-3,0
1558442259518195,0,0,-2,-1,-9,-4,-3,-5
1558442259533152,1,2,1,2,9,10,6,1
1558442259533152,0,-1,3,-1,1,0,-2,-3
1558442259534150,-2,-5,-4,-2,-1,-5,0,-2
1558442259534150,-2,0,1,0,6,-1,1,3
1558442259547132,-2,-4,-2,-2,-4,-3,0,-2
1558442259547132,-2,-1,-1,0,3,0,-2,-4
1558442259555107,-1,-2,-3,-2,-6,-3,-6,-1
1558442259555107,-1,-2,0,-2,-3,1,2,-1
1558442259570057,2,0,0,0,-3,-5,-1,4
1558442259570057,1,0,-1,0,2,0,-3,-3
1558442259577037,0,-2,0,0,1,4,3,2
1558442259577037,-2,1,1,1,2,5,-1,-2
1558442259601020,0,-1,-4,-4,-9,-12,-9,-5
1558442259601020,-5,-3,-4,-1,-2,2,-2,0
1558442259601970,0,1,2,1,2,6,1,-2
1558442259601970,2,-2,-1,-1,0,-9,0,2
1558442259606957,-4,0,4,1,-7,-6,-4,-4
1558442259606957,-1,-3,-9,-4,-5,-4,-3,-2
1558442259614937,-1,1,0,1,-1,-1,-2,0
1558442259614937,0,-1,2,1,5,7,3,3
1558442259629895,-2,-2,-3,0,2,0,-2,-2
1558442259629895,-1,1,3,-1,1,-4,-1,0
1558442259637880,-3,0,-7,-5,-1,1,1,1
1558442259637880,-1,-2,-5,-4,-12,-9,-8,-4
1558442259652832,-3,-3,-3,-1,-2,5,-1,-2
1558442259652832,0,-2,3,2,1,3,0,-1
1558442259653833,2,2,3,3,5,-8,2,1
1558442259653833,-3,-1,1,0,0,6,0,-5
1558442259667793,-3,-2,-4,-1,3,4,3,2
1558442259667793,-2,0,-3,-1,-4,1,-2,-2
1558442259674774,-1,-2,0,-1,-1,-1,2,0
1558442259674774,2,-2,-2,0,1,0,-2,4
1558442259691728,-2,0,4,3,2,3,-2,-3
1558442259691728,-2,-3,-10,-4,-4,-4,-1,0
1558442259697714,-1,-3,-2,-2,-4,-5,-5,-4
1558442259697714,0,0,-2,-1,-3,-4,0,-3
1558442259712679,0,-2,-1,-1,2,5,4,2
1558442259712679,-3,0,3,1,3,-1,-4,-6
1558442259713669,1,1,-1,2,5,4,3,2
1558442259713669,-1,-2,0,-4,-6,-3,-5,-2
1558442259727634,-1,0,-2,-3,-6,-8,-5,-1
1558442259727634,-1,-1,-2,-2,-2,0,3,-1
1558442259734614,-2,-2,-1,-3,-3,-8,-1,-2
1558442259734614,0,0,-2,-3,4,6,1,-2
1558442259749577,0,0,0,-1,3,1,1,-2
1558442259749577,2,1,1,2,3,3,4,5
1558442259757553,-5,-3,-1,-3,-4,-1,-5,-6
1558442259757553,-2,-2,0,1,-5,-5,1,-2
1558442259774507,-2,-3,-3,-3,-8,-8,-5,-3
1558442259774507,-2,-1,-2,-1,-2,-4,-4,-2
1558442259775504,2,1,3,3,2,7,1,1
1558442259775504,0,1,-3,1,9,3,-1,0
1558442259787473,-1,-2,-5,-4,0,-4,-5,-3
1558442259787473,0,0,4,0,-4,-8,0,-1
1558442259794453,-2,-4,-4,-2,-8,-2,-1,0
1558442259794453,-4,-1,0,-4,-5,-5,-5,-3
1558442259809413,3,1,1,1,6,5,6,5
1558442259809413,1,-2,-1,-3,-2,2,0,1
1558442259817392,-1,-1,0,0,2,-3,-6,-3
1558442259817392,-2,-1,0,0,-1,-1,3,0
1558442259833350,-4,-1,-4,-2,-3,2,-1,-1
1558442259833350,-2,-3,-1,-2,-5,-7,-4,2
1558442259833350,-2,-1,-3,-3,-2,6,3,-1
1558442259833350,-1,0,2,2,4,3,6,3
1558442259847313,0,0,0,-1,-3,-6,-2,-4
1558442259847313,-4,-2,-3,-3,-6,-2,-3,-3
1558442259855294,1,-1,1,-2,0,4,1,2
1558442259855294,1,-2,-4,0,3,-1,-2,1
1558442259870252,-3,1,6,-1,-1,-5,-3,-1
1558442259870252,1,1,-5,0,4,1,-2,-3
1558442259877232,0,-2,-3,-1,1,-1,-5,-1
1558442259877232,-1,-1,2,-1,1,2,1,-2
1558442259893192,0,-1,-1,-2,-5,-8,1,1
1558442259893192,-3,-1,-2,0,0,-1,1,-4
1558442259894187,-1,-2,-2,-1,-3,-10,-2,-2
1558442259894187,-2,-2,-1,-1,-4,-1,-3,-2
1558442259907152,-3,-2,-2,-3,-3,-1,-2,-3
1558442259907152,1,0,0,1,2,0,-1,1
1558442259915131,0,1,0,-1,-1,0,0,3
1558442259915131,-1,-2,-2,0,-4,0,-2,-2
1558442259930091,-2,-3,-1,-3,-1,-2,-4,-1
1558442259930091,0,-2,1,-2,-2,-1,-1,0
1558442259937075,0,-1,0,0,6,10,5,5
1558442259937075,-1,1,4,1,5,-3,-4,-5
1558442259953029,-2,-1,-6,1,-4,1,-4,-5
1558442259953029,0,-1,1,-4,-8,-7,-3,-3
1558442259954030,-2,-3,-2,-2,-1,-4,-1,2
1558442259954030,0,-1,-2,-1,2,5,5,4
1558442259966992,1,0,-3,1,2,2,3,3
1558442259966992,-3,0,3,0,2,3,-1,-1
1558442259974981,-4,-1,-4,-1,-2,-4,0,-3
1558442259974981,0,-1,0,-2,-2,-8,-3,-4
1558442259989931,1,-2,0,0,0,9,2,-1
1558442259989931,2,-2,1,3,9,2,3,6
1558442259997908,-2,-1,1,-1,-2,3,-4,-2
1558442259997908,-1,-1,-6,-3,-7,-5,-6,-2
1558442260012901,-2,-2,-3,-2,-5,-7,-3,-6
1558442260012901,-1,-3,-4,-4,-8,-2,-4,-1
1558442260013877,-1,-2,0,-1,1,-4,-1,-3
1558442260013877,0,0,3,1,5,7,5,2
1558442260027836,0,1,-1,1,-2,-5,-4,1
1558442260027836,0,0,-5,-1,5,5,6,0
1558442260034814,0,0,1,0,1,0,0,-1
1558442260034814,1,-2,-3,-3,-6,-3,-1,1
1558442260049770,-2,-4,-1,-1,-1,-2,-3,-6
1558442260049770,-1,-2,0,-2,-4,-2,-4,-2
1558442260057752,-2,-3,-7,-4,-13,-11,-8,-6
1558442260057752,-3,-2,-1,1,4,3,2,1
1558442260072711,2,1,5,3,10,9,5,7
1558442260072711,1,2,0,0,2,1,1,-1
1558442260080689,-3,-1,-2,-2,-4,-4,-7,-7
1558442260080689,-1,-3,-3,-5,-10,-8,-5,1
1558442260087674,1,-1,1,-1,2,-1,1,3
1558442260087674,-1,-2,-2,1,1,2,-2,-1
1558442260094654,-1,0,-1,-2,-3,4,0,-4
1558442260094654,-1,-1,0,-1,-4,-7,-2,-2
1558442260109611,0,0,-1,0,3,-4,2,5
1558442260109611,0,-2,-1,-2,-1,0,-4,-5
1558442260117622,-1,-2,2,-1,-6,-3,0,1
1558442260117622,-1,-1,-3,-1,4,4,-3,-4
1558442260132550,-1,1,0,-1,1,5,5,-1
1558442260132550,-1,-1,-2,-3,-1,-3,2,0
1558442260140531,-2,-3,-1,0,2,-4,-2,0
1558442260140531,-3,-1,2,-1,-1,0,-1,-2
1558442260148508,-2,-2,-1,-3,-8,-5,-4,-4
1558442260148508,-1,1,1,-1,-4,-10,-4,-1
1558442260154491,2,0,0,-1,2,4,3,1
1558442260154491,-3,-2,-4,-1,-1,4,4,4
1558442260171450,-1,-1,1,2,2,0,-5,-7
1558442260171450,-3,-1,-2,-1,-2,-5,-1,1
1558442260177430,-5,-2,-3,-3,0,1,3,-5
1558442260177430,-2,0,-1,-2,-5,-9,-7,0
1558442260192394,1,0,-1,-1,4,3,3,4
1558442260192394,-1,1,0,-2,-3,-1,-3,-2
1558442260200367,-1,-1,-2,-1,2,5,5,3
1558442260200367,1,2,1,2,11,10,9,0
1558442260207350,-4,-3,-3,-4,-9,-9,0,-2
1558442260207350,0,-3,-1,0,-6,-7,-5,-2
1558442260215327,0,0,2,-2,-5,-3,-5,-3
1558442260215327,-1,-1,-3,-1,5,8,5,2
1558442260230289,-1,0,2,1,3,6,3,1
1558442260230289,-1,-3,-4,-4,-4,-9,-2,1
1558442260237272,0,0,-3,-1,3,-2,-5,-5
1558442260237272,1,-1,0,-2,-6,-4,-5,-4
1558442260252233,-2,-2,-2,-2,-3,-1,-3,-3
1558442260252233,-2,0,2,-1,0,-1,0,-1
1558442260260213,-1,2,-1,-1,-2,-6,-1,2
1558442260260213,1,1,-1,-1,-4,-2,-5,-2
1558442260276166,0,-3,-1,-1,2,4,1,0
1558442260276166,0,0,2,1,2,8,3,0
1558442260277163,-2,-3,-4,-2,-7,-15,-4,-2
1558442260277163,0,-1,-1,-3,-7,-8,-2,-3
1558442260290128,1,1,1,2,8,10,1,1
1558442260290128,-1,1,1,0,3,2,-1,-2
1558442260297111,-1,-1,0,0,4,4,4,4
1558442260297111,-5,-5,-3,-1,-8,-5,-4,-5
1558442260312070,-1,-1,-3,-3,-9,-7,-2,0
1558442260312070,-2,-2,0,-1,-2,0,-4,-1
1558442260321048,-3,-2,-9,-4,-7,-8,-2,-1
1558442260321048,-1,0,2,-1,0,-2,0,1
1558442260336005,-1,-1,-1,0,2,-5,-2,0
1558442260336005,0,-2,-2,2,4,11,7,1
1558442260336005,2,-3,-1,-2,-6,-2,-2,-2
1558442260336005,0,1,-1,-2,2,3,3,0
1558442260349975,0,-1,-1,-2,0,-5,-1,-1
1558442260349975,-1,-4,-1,-2,-2,0,1,-2
1558442260356964,0,1,0,1,-3,-5,-6,-4
1558442260356964,-2,-3,-4,-2,-4,-5,-2,-2
1558442260371910,-3,0,0,-1,2,4,1,-3
1558442260371910,-1,-1,-2,1,4,-1,3,3
1558442260387866,-1,-2,0,0,0,6,-1,-4
1558442260387866,-2,-3,-2,-1,-4,-10,-6,-1
1558442260395845,0,-1,-1,-1,1,-2,0,2
1558442260395845,0,0,0,0,2,-5,-1,2
1558442260395845,-2,-2,-1,-2,1,4,2,0
1558442260395845,-2,-3,-3,-4,-10,-10,-7,-4
1558442260409807,-1,-3,-5,-2,-4,-2,-2,2
1558442260409807,1,0,-1,0,3,4,-1,-2
1558442260417787,-1,1,2,-1,1,1,1,1
1558442260417787,-1,3,1,2,9,13,8,3
1558442260432746,-3,-4,-5,-3,-7,-11,-8,-5
1558442260432746,-4,-2,-3,-3,-9,-5,-5,-4
1558442260440727,4,-1,1,0,-4,-4,-2,-1
1558442260440727,1,0,0,1,4,5,6,2
1558442260455685,1,2,2,-1,3,4,2,-1
1558442260455685,-1,-1,-2,-3,-7,-5,-4,-1
1558442260456682,-3,-3,-1,-1,4,8,3,0
1558442260456682,0,0,-1,2,0,-4,-4,-2
1558442260469648,-3,-2,-3,-2,-6,-6,-4,-3
1558442260469648,-2,-1,-2,-1,-3,-5,-3,-3
1558442260477626,-2,-1,0,0,0,0,0,6
1558442260477626,-1,0,-2,-2,2,3,-1,-3
1558442260492586,-1,0,-2,-3,-7,-5,-5,-3
1558442260492586,0,-2,-1,-1,-4,0,1,-3
1558442260500567,0,0,-1,1,4,-1,0,1
1558442260500567,0,1,1,0,8,5,6,5
1558442260515524,-1,-2,-3,-1,-5,-3,-1,-4
1558442260515524,-3,-1,0,0,4,3,2,-3
1558442260516522,-1,0,0,-1,2,-1,0,1
1558442260516522,-1,-1,0,-1,-1,-9,-2,0
1558442260529487,-1,-1,1,0,2,8,2,4
1558442260529487,-2,-1,1,-1,-2,-2,-5,-4
1558442260537466,-1,-1,-1,-1,1,-4,-4,-1
1558442260537466,-2,-3,-2,-3,-3,-1,-1,-1
1558442260552425,0,1,-1,2,-2,1,1,-1
1558442260552425,0,-1,0,-3,-7,-5,-2,-1
1558442260560404,-1,-1,0,-2,-1,0,-3,-1
1558442260560404,-1,-2,-3,-2,-6,-9,-7,-5
1558442260575364,0,-4,-1,-3,0,2,1,0
1558442260575364,0,-4,0,-1,1,3,4,3
1558442260576361,1,1,1,0,-3,2,3,1
1558442260576361,0,0,1,3,11,8,2,-3
1558442260590324,-1,0,1,-3,-8,-10,-7,-1
1558442260590324,-1,-1,-5,-1,5,6,0,0
1558442260597314,-2,-1,-3,-3,-3,-5,-7,-5
1558442260597314,-1,0,-2,-3,-8,-6,-4,-1
1558442260612266,0,1,2,1,1,-2,0,-1
1558442260612266,-1,-2,-3,-2,-5,-7,-3,-1
1558442260620247,1,2,1,1,10,7,8,6
1558442260620247,-2,-1,0,-1,0,2,-2,-3
1558442260635204,-2,-1,-1,-1,0,1,0,-6
1558442260635204,-3,-2,-2,-2,-4,-4,-1,-1
1558442260636203,0,-1,-3,2,2,6,5,0
1558442260636203,-1,-3,-3,-1,-7,-2,0,-1
1558442260650164,-4,-1,-4,-2,-4,-6,-6,-1
1558442260650164,-1,0,0,-2,-4,-3,-4,-5
1558442260657147,0,-2,-1,0,-1,1,3,-1
1558442260657147,-2,-4,-2,-1,4,6,0,-2
1558442260672106,-3,-3,-3,0,1,3,-4,-1
1558442260672106,0,1,2,3,2,-3,1,3
1558442260680084,-1,3,-1,-1,-1,-8,-2,-3
1558442260680084,-4,-3,-2,-5,-7,-7,-2,-2
