timestamp,emg1,emg2,emg3,emg4,emg5,emg6,emg7,emg8
1558442209032665,-2,0,0,1,2,3,-8,-12
1558442209032665,0,-3,3,1,-2,2,0,-1
1558442209039646,-4,-4,-5,-4,-5,-3,-3,-7
1558442209039646,-1,0,-1,-1,3,-2,-1,0
1558442209040644,0,-2,-1,2,3,-1,2,2
1558442209040644,0,-2,1,1,3,5,5,5
1558442209040644,0,-1,1,-1,-8,-7,-7,-4
1558442209040644,-1,-4,-3,-3,-8,-7,-3,3
1558442209052611,-3,-4,-6,-2,-1,3,-1,-10
1558442209052611,2,2,0,-1,3,-1,3,3
1558442209060590,2,3,0,2,4,0,1,3
1558442209060590,1,1,4,1,-3,0,0,-1
1558442209066574,-2,-2,-8,-5,-5,-6,-3,1
1558442209066574,-3,-2,-2,-2,-5,-2,-4,-5
1558442209081534,-1,-3,-2,-1,0,4,5,4
1558442209081534,-5,-2,-2,0,6,-3,-4,-5
1558442209090510,2,2,7,3,3,2,6,3
1558442209090510,-1,-2,0,-1,5,5,4,4
1558442209098489,-3,-5,-5,-2,-3,-4,-5,-8
1558442209098489,1,-1,0,-1,0,3,7,5
1558442209112452,-4,-2,0,0,-5,-3,-8,-6
1558442209112452,0,-1,-2,0,0,0,-5,-5
1558442209120431,4,3,2,-2,1,1,3,7
1558442209120431,0,0,-1,0,-1,-4,0,-2
1558442209159326,-5,-2,-4,0,-3,-4,-4,-1
1558442209159326,-3,0,-2,-5,-3,6,1,0
1558442209160324,1,-1,-2,-2,-2,2,0,1
1558442209160324,-3,-1,0,-2,2,2,0,0
1558442209161321,-1,-2,0,0,-1,-2,1,-1
1558442209161321,1,1,4,-1,1,-1,-2,-2
1558442209164312,-3,-3,-12,-1,-4,0,-2,-1
1558442209164312,0,-2,1,-1,-9,-7,-8,2
1558442209172291,-1,-1,3,1,9,1,1,-3
1558442209172291,0,-3,-9,-2,1,2,-2,-3
1558442209179275,0,-3,0,-4,-2,-3,4,5
1558442209179275,1,-1,-3,-1,1,2,6,1
1558442209186254,-3,-1,2,-3,-5,0,-8,-9
1558442209186254,0,0,4,1,-1,-7,-5,-5
1558442209201215,-1,0,-1,0,3,2,-2,-1
1558442209201215,-3,-1,-3,-3,-3,-2,0,-4
1558442209209194,0,-1,0,-4,-8,-6,2,6
1558442209209194,-2,-1,-2,-1,3,6,3,-1
1558442209218169,-3,-2,0,2,-3,1,-1,-1
1558442209218169,1,-1,1,0,6,2,-1,-1
1558442209232132,1,1,2,1,4,-3,0,1
1558442209232132,2,1,-3,-2,-5,-4,-3,1
1558442209239114,1,1,4,0,0,1,-1,-3
1558442209239114,-4,-4,-8,-2,-4,0,-1,-1
1558442209246093,1,0,-3,-3,1,3,4,3
1558442209246093,-1,-2,-2,-2,-4,-6,-3,-2
1558442209261054,-2,-2,2,-2,-1,-5,-4,-3
1558442209261054,-1,-3,1,3,0,3,-4,-5
1558442209269033,0,-2,-7,-5,-5,-2,-2,5
1558442209269033,-3,-2,-1,-2,-5,-5,-5,-5
1558442209278009,-3,-4,-1,0,3,-1,2,-6
1558442209278009,-2,-3,-1,-3,-2,-6,-6,-2
1558442209291972,-2,-2,-4,1,0,3,-2,-2
1558442209291972,2,1,2,1,1,-4,-1,2
1558442209298953,0,-2,-3,-2,-4,-4,-1,-1
1558442209298953,-1,0,-1,-2,-1,-2,4,4
1558442209306932,-3,-1,-1,-1,-2,-2,0,-3
1558442209306932,-1,0,3,3,3,6,5,0
1558442209321891,-1,-2,-4,-4,1,-4,-5,-4
1558442209321891,0,1,3,2,3,1,-3,0
1558442209328872,0,0,-2,-2,0,4,-1,-3
1558442209328872,-1,-2,2,-1,-3,-2,0,0
1558442209343833,-1,1,1,-2,0,-6,-2,3
1558442209343833,-1,-1,-2,-2,-6,-9,-1,-2
1558442209351811,2,2,1,-3,-5,-3,-4,-6
1558442209351811,0,3,2,2,1,3,3,0
1558442209358793,-2,-3,-4,2,6,0,0,5
1558442209358793,0,0,-1,1,4,2,0,-6
1558442209366771,-1,0,0,1,2,3,3,2
1558442209366771,-7,-5,-4,-5,-10,-6,-11,-4
1558442209381730,-2,0,3,0,-3,-1,-6,-3
1558442209381730,-1,1,1,-2,-2,-5,-1,0
1558442209388713,2,-1,2,4,3,3,3,0
1558442209388713,-5,-6,-4,-3,-2,-3,-4,-2
1558442209412651,0,0,0,-2,-3,-1,-1,-2
1558442209412651,1,-2,-3,-3,-1,-1,1,4
1558442209413647,-5,-2,-1,1,0,-1,-5,-3
1558442209413647,-2,1,-2,0,3,0,3,3
1558442209418633,1,1,3,-2,-2,-4,0,-1
1558442209418633,2,2,3,0,2,1,0,2
1558442209426612,-2,-4,-6,-4,-6,0,-3,-3
1558442209426612,3,0,0,2,5,2,-1,1
1558442209441571,-3,-2,-2,-3,-1,3,-2,0
1558442209441571,-1,1,0,0,-3,0,-3,-3
1558442209449550,0,-3,-2,-6,-2,-4,2,1
1558442209449550,-2,-3,-4,-1,-3,-2,1,-2
1558442209472488,1,0,0,-2,-4,-2,-2,3
1558442209472488,-2,-2,2,0,-5,-5,-5,-4
1558442209473485,-4,-2,0,-1,1,-2,0,-4
1558442209473485,4,-1,1,1,0,-1,0,-4
1558442209479471,6,4,-2,3,13,13,9,7
1558442209479471,-6,-8,-3,-4,-8,-5,-5,-3
1558442209494431,-2,0,2,2,0,-14,-6,-2
1558442209494431,-1,-1,-2,-4,-5,-4,1,6
1558442209501411,2,2,6,0,-3,4,-2,-8
1558442209501411,1,2,0,1,7,7,4,1
1558442209509390,1,2,-2,0,1,2,2,4
1558442209509390,-2,-2,2,-1,2,4,1,-3
1558442209524350,-2,-3,2,-2,-4,-8,-1,3
1558442209524350,-3,-2,-1,-3,-3,-4,-5,-13
1558442209532328,-3,-4,-7,-3,-3,2,1,3
1558442209532328,-2,1,1,0,3,0,-1,-1
1558442209539310,-4,-4,-7,-2,-4,-4,4,2
1558442209539310,0,-2,0,1,2,5,1,-1
1558442209546292,0,-2,3,0,-1,-7,-5,-1
1558442209546292,-1,0,0,2,1,1,1,-1
1558442209561251,0,-1,-1,0,0,4,1,-2
1558442209561251,-5,-3,-6,-5,-11,-11,-7,-2
1558442209569231,0,-1,0,-1,-4,-3,-3,-7
1558442209569231,2,3,1,2,4,5,7,5
1558442209584190,-4,-1,-2,-1,7,4,1,-1
1558442209584190,-2,0,-3,0,-1,-2,-1,1
1558442209592170,-4,-2,1,-3,-10,-8,-13,-5
1558442209592170,-2,-3,-8,-3,-4,-6,-5,2
1558442209599152,1,1,2,1,0,0,0,6
1558442209599152,-3,2,-4,2,16,16,7,-9
1558442209606132,2,-2,-1,0,-3,-1,0,-2
1558442209606132,-1,-3,-2,1,-1,-1,-3,1
1558442209621092,-2,-2,-1,-3,-5,-7,-5,-3
1558442209621092,-1,-3,-2,-5,-6,-5,-5,6
1558442209629070,-3,2,0,1,4,0,-1,-5
1558442209629070,-1,-1,-2,-4,-8,-2,-2,-4
1558442209644029,1,-1,0,-1,-3,-3,-5,-4
1558442209644029,3,2,5,0,3,2,6,6
1558442209652007,0,-3,-4,0,2,6,2,0
1558442209652007,0,-1,2,0,-1,-5,-3,-1
1558442209658989,0,-2,-7,0,3,-3,-2,-3
1558442209658989,0,-1,-1,-1,-6,-3,0,2
1558442209674947,0,0,1,1,2,8,1,0
1558442209674947,1,1,2,-1,0,0,1,-2
1558442209681928,-2,-1,-2,-4,-7,-4,-7,-7
1558442209681928,0,0,-2,1,-1,-3,-4,-2
1558442209688910,0,-1,2,-1,9,10,5,4
1558442209688910,-2,-1,-2,1,1,-1,-1,3
1558442209703870,-4,-2,-1,-4,-6,-7,-3,-7
1558442209703870,1,3,7,0,0,0,4,4
1558442209711849,1,0,-14,-1,-4,-2,0,-2
1558442209711849,-5,-3,-1,-4,-4,-2,-5,-6
1558442209718829,2,0,-6,0,-4,2,7,6
1558442209718829,-1,-3,-2,0,-3,-2,-6,-6
1558442209734787,0,-1,1,-5,-1,-10,-2,2
1558442209734787,1,2,2,1,5,0,2,-2
1558442209741785,-3,-1,5,0,0,-2,0,-2
1558442209741785,1,1,-1,-1,1,6,1,3
1558442209748749,-1,0,-1,-1,-6,-5,-4,1
1558442209748749,-1,0,-2,-2,1,1,-1,-3
1558442209772686,-2,-3,-1,-1,-3,-3,-3,-3
1558442209772686,0,0,1,1,3,5,3,0
1558442209773683,0,1,0,3,10,6,1,-1
1558442209773683,0,-4,-2,-1,0,8,4,4
1558442209778670,-4,0,3,-2,-4,-12,-2,-5
1558442209778670,-3,-7,-10,-7,-10,-13,-7,3
1558442209794627,-2,-1,1,-2,-6,-1,-2,-8
1558442209794627,1,2,0,0,0,2,7,8
1558442209801607,-2,-1,0,3,16,9,-2,-7
1558442209801607,-1,0,1,-2,-5,-2,-1,-6
1558442209809588,-1,-2,-2,-3,-11,-8,-3,3
1558442209809588,-2,-3,-4,-6,-8,-9,-10,-1
1558442209824547,-1,0,6,2,-4,3,-2,-4
1558442209824547,0,1,-5,0,6,2,3,1
1558442209832525,-2,1,3,1,5,1,-2,-2
1558442209832525,-2,0,-1,-3,-5,-6,-4,-5
1558442209839507,1,-2,-3,-3,-6,-4,-1,2
1558442209839507,-2,2,6,3,4,1,0,1
1558442209854466,0,1,-2,-4,-2,3,1,2
1558442209854466,1,-2,2,0,-2,-5,-5,-6
1558442209861448,-2,-3,-7,-1,-3,0,-3,-1
1558442209861448,0,0,1,1,2,1,2,1
1558442209869428,2,2,1,0,-3,-3,2,4
1558442209869428,1,1,4,4,7,5,-1,0
1558442209884387,3,3,-7,-5,-1,1,6,4
1558442209884387,-3,-3,-2,-2,-4,1,-3,-10
1558442209891368,-4,0,0,-3,-6,-10,-7,-5
1558442209891368,-1,-4,-6,0,-4,-4,-3,-3
1558442209900344,-3,-2,1,0,-1,-2,-7,-3
1558442209900344,-2,0,-2,1,7,0,2,1
1558442209914307,2,2,4,0,3,9,7,2
1558442209914307,1,-1,-1,-2,-6,-5,0,0
1558442209921289,0,-3,0,1,0,-3,-2,-2
1558442209921289,-2,-5,-5,-4,-12,-9,-8,-1
1558442209929267,-4,-2,0,1,0,6,0,-4
1558442209929267,-3,0,1,0,4,-1,0,1
1558442209944227,-2,-1,-2,0,-2,-2,0,-6
1558442209944227,2,2,2,-1,3,5,1,3
1558442209951207,2,0,6,1,1,-3,-3,2
1558442209951207,-6,-6,-14,-3,-4,0,-4,-8
1558442209960184,0,-2,2,-4,-4,-1,-1,5
1558442209960184,-4,-1,1,1,1,-7,-2,-8
1558442209975143,0,-4,-3,-2,1,1,2,1
1558442209975143,-2,-1,-3,-3,-1,-3,-3,3
1558442209981127,0,2,0,3,6,5,-6,-6
1558442209981127,3,-2,-1,-2,-1,1,3,8
1558442209989107,1,-1,-1,-2,-6,-6,-5,-4
1558442209989107,1,0,3,0,2,4,4,2
1558442210004066,0,-2,-5,-2,2,-1,3,0
1558442210004066,-2,0,-1,-1,1,-3,-5,-1
1558442210011049,-3,-5,-6,-2,3,-3,-1,-1
1558442210011049,-1,2,4,-1,-7,-4,-4,-5
1558442210020024,-3,-3,1,-2,0,5,3,0
1558442210020024,0,2,0,1,7,6,4,-3
1558442210034984,0,-2,-2,-2,-4,-3,-1,4
1558442210034984,-3,-3,-1,-2,-5,-3,-4,-5
1558442210041965,-2,0,0,-4,-5,-3,0,3
1558442210041965,1,-1,-1,-1,-4,-7,0,-1
1558442210048946,0,1,1,4,10,9,2,-7
1558442210048946,-2,1,0,-2,-6,-4,-8,1
1558442210063906,-3,0,-4,-1,-2,-1,-3,-4
1558442210063906,-2,-4,-3,-3,-10,-2,-4,-4
1558442210071884,1,-1,-1,-3,-5,-9,-4,1
1558442210071884,1,0,1,2,17,12,6,2
1558442210080861,0,-1,2,0,2,2,-1,1
1558442210080861,0,-1,0,-1,2,1,-2,-5
1558442210094824,0,1,4,-2,-8,-8,-4,-1
1558442210094824,-1,-3,-10,-5,-6,-11,-4,-3
1558442210101805,0,0,-1,-1,-3,-1,0,0
1558442210101805,-2,0,0,1,3,4,2,1
1558442210108786,-2,-1,1,2,4,4,0,3
1558442210108786,0,-1,0,-3,-2,1,0,-1
1558442210123745,1,0,1,-3,-6,-6,-7,-6
1558442210123745,-4,-3,-3,-4,-5,-1,0,-4
1558442210131725,1,1,-3,0,3,1,10,6
1558442210131725,-2,0,3,3,0,-2,-9,-11
1558442210146685,0,-1,-1,2,4,0,-1,2
1558442210146685,-1,-1,1,-2,-4,-7,-6,-1
1558442210162642,-2,0,-4,-2,-4,-2,-2,-5
1558442210162642,0,0,0,1,6,7,8,5
1558442210169623,0,-3,-1,-1,5,2,4,0
1558442210169623,-2,-2,-1,-2,-4,-5,-4,-3
1558442210170622,-1,-2,-3,-4,-10,-7,-4,0
1558442210170622,-2,-4,1,-3,-14,-9,-3,-4
1558442210183585,-3,-4,-5,-4,-1,5,0,0
1558442210183585,-1,-4,-5,1,9,6,3,4
1558442210191565,-2,0,0,2,4,6,0,-5
1558442210191565,0,2,1,0,2,1,0,4
1558442210206524,0,1,2,0,-2,-5,4,0
1558442210206524,-3,-4,-5,-5,-10,-9,-8,-1
1558442210214502,-1,-2,-1,1,4,1,-3,-6
1558442210214502,1,-1,-2,-1,1,5,3,0
1558442210229464,-4,-3,1,-4,-6,-14,-7,-4
1558442210229464,-2,2,3,2,0,4,4,-2
1558442210230461,1,-1,-3,-4,-2,2,5,8
1558442210230461,-1,-1,-4,3,10,0,-3,-6
1558442210244423,1,0,-2,-3,-9,-4,-6,-1
1558442210244423,0,0,-1,-1,2,-1,0,3
1558442210251404,-5,-5,-2,0,0,-4,-6,-1
1558442210251404,-5,-2,1,-4,-4,-2,0,-1
1558442210266364,-1,0,1,-2,-6,-3,-2,1
1558442210266364,-4,-3,-8,-3,-5,-3,-2,-4
1558442210274342,1,1,0,1,4,6,3,0
1558442210274342,3,1,0,-1,2,2,-2,-2
1558442210289302,-2,-4,-2,-1,-2,-3,-1,0
1558442210289302,0,-2,-2,-5,-8,-12,-7,-4
1558442210290300,-3,-3,0,2,0,1,3,5
1558442210290300,-4,-3,-2,-2,-7,-7,-4,-3
1558442210304301,6,2,1,2,4,8,9,3
1558442210304301,3,2,0,3,5,3,-2,-4
1558442210311246,-1,-2,-3,-3,-6,-12,-9,-6
1558442210311246,-3,-3,-5,-6,-10,-4,-2,-5
1558442210326205,-1,0,0,-1,4,5,11,11
1558442210326205,-1,1,2,2,8,4,1,-3
1558442210335180,0,0,0,-2,-5,-4,-1,-4
1558442210335180,0,-2,-1,-3,-6,-3,-2,2
1558442210350154,-1,1,4,0,-2,1,-3,-3
1558442210350154,1,-3,-5,0,4,8,4,3
1558442210350154,-1,-2,0,-2,6,0,2,0
1558442210350154,-1,0,-1,-2,-1,-3,0,-2
1558442210364102,-3,-6,-5,0,-5,-8,-10,-5
1558442210364102,-1,-1,4,1,-1,-1,-2,1
1558442210372083,2,0,-4,-4,2,4,0,2
1558442210372083,0,1,-1,2,2,4,5,0
1558442210386044,-3,-1,-6,-4,-6,-5,-5,-3
1558442210386044,0,-1,-1,-2,-7,-9,-2,-1
1558442210395020,-4,-2,0,0,2,4,-3,-6
1558442210395020,3,1,4,5,12,10,6,7
1558442210409980,-4,-2,-4,-2,-5,-8,-5,-6
1558442210409980,-2,0,1,-2,-3,2,4,3
1558442210409980,-1,2,-4,-1,-6,-5,-7,-4
1558442210409980,-1,-1,1,2,2,-2,-4,-4
1558442210423945,-2,0,1,1,4,8,2,3
1558442210423945,1,-2,-2,-4,-7,-8,-1,6
1558442210431922,-3,-3,2,-2,-9,-9,-9,-10
1558442210431922,-2,0,-5,0,3,2,3,2
1558442210447879,0,1,5,2,7,8,4,-1
1558442210447879,2,-1,1,-1,-3,-5,1,-2
1558442210454862,-2,0,-6,-4,-8,-7,-2,2
1558442210454862,-3,-4,-3,-3,-9,-9,-8,-7
1558442210469833,2,0,0,0,3,5,4,1
1558442210469833,-1,1,2,0,7,3,1,2
1558442210470830,-2,1,2,0,-2,-1,-2,-5
1558442210470830,1,0,3,-1,1,3,8,10
1558442210483794,-2,-1,-3,0,3,1,-2,-6
1558442210483794,0,-2,0,0,3,6,-3,-2
1558442210491786,-1,-3,-2,-1,1,2,2,1
1558442210491786,-3,-1,-2,-5,-6,-6,-4,-3
1558442210506721,-3,-1,-3,-1,-7,-2,-4,-1
1558442210506721,2,0,-2,1,4,0,6,9
1558442210515697,0,4,1,1,3,-1,0,0
1558442210515697,1,-1,4,1,3,5,2,-3
1558442210529659,-2,-2,-2,-3,-6,-7,-6,-1
1558442210529659,-3,-5,-5,-4,-5,-1,-2,-4
1558442210530659,3,-2,-2,2,1,7,4,8
1558442210530659,-2,-1,-2,-3,-7,-5,-8,-7
1558442210543623,2,1,1,0,7,5,3,0
1558442210543623,-4,-1,1,-1,3,2,1,-3
1558442210551602,3,2,0,0,2,5,6,2
1558442210551602,-1,-1,-3,-3,-7,-6,-2,1
1558442210566561,1,-2,1,0,-7,-6,-5,-3
1558442210566561,0,-2,-3,1,-1,1,-4,-5
1558442210574540,0,-1,-3,1,7,0,6,8
1558442210574540,-1,-1,-1,2,7,-1,-4,-8
1558442210589499,0,-4,-1,-4,-1,-4,3,-1
1558442210589499,-7,-3,-8,-4,-12,-9,-9,-5
1558442210597478,-3,-5,-2,-1,-3,-1,-3,-5
1558442210597478,-1,-1,-4,0,0,4,4,5
1558442210604460,-4,0,-3,0,2,0,-2,-3
1558442210604460,2,-1,1,0,-3,-4,1,1
1558442210611441,-1,-2,-2,-2,-7,-5,-6,-3
1558442210611441,0,1,0,1,7,8,3,2
1558442210626401,2,1,0,2,7,6,3,1
1558442210626401,-4,-4,-3,-1,-3,-4,-3,-6
1558442210634379,-2,-3,1,-2,-4,-9,-3,-4
1558442210634379,1,-1,-2,1,0,-3,0,0
1558442210649341,1,-3,0,-1,-4,1,0,3
1558442210649341,0,-1,-1,-3,-3,-3,-5,-3
1558442210657318,-3,0,3,0,-1,4,1,0
1558442210657318,-3,-1,1,2,13,5,1,-3
1558442210664300,0,-2,-3,-2,-4,-10,-2,4
1558442210664300,-1,0,2,0,5,7,2,-4
1558442210671280,-2,-3,-6,-4,-7,-2,-3,-1
1558442210671280,-3,-1,-1,-2,-9,-2,0,-2
1558442210686241,-3,-1,-7,-2,-2,-2,-4,-4
1558442210686241,2,0,1,-2,-4,-2,-4,3
1558442210695217,-1,-2,1,1,2,1,0,-1
1558442210695217,0,0,4,-1,3,4,5,3
1558442210709179,-2,-2,-5,-1,2,-5,1,-1
1558442210709179,-2,1,1,1,-3,-2,0,0
1558442210717158,-4,-5,-6,-4,-5,0,-9,-3
1558442210717158,-3,-4,-1,-1,-8,-12,-13,-6
1558442210724140,-2,-2,1,0,1,5,2,2
1558442210724140,1,1,-1,3,9,4,0,-3
1558442210731121,1,1,4,1,1,-4,6,2
1558442210731121,1,-3,-5,-2,-1,-1,1,3
1558442210746081,0,4,5,-2,-7,-6,-3,-1
1558442210746081,2,1,-2,-3,-1,1,6,5
1558442210755057,-2,-3,0,-2,1,0,-4,-6
1558442210755057,-3,-2,0,-3,-7,-3,-1,-3
1558442210769020,-3,-2,-3,-2,-1,3,0,-3
1558442210769020,-1,0,1,1,2,6,3,4
1558442210776998,0,0,-1,0,0,-2,-2,-6
1558442210776998,2,1,-1,-1,2,-3,-1,2
1558442210791959,-2,-3,0,-2,-3,-1,-2,-3
1558442210791959,-3,-2,-1,-1,0,-4,-3,-5
1558442210792956,3,-1,-2,-1,-2,3,2,6
1558442210792956,2,3,5,3,4,1,-1,1
1558442210806918,1,-2,-10,0,-1,-3,-2,-4
1558442210806918,-2,-3,-5,-2,-6,-4,-3,-1
1558442210814933,-1,-2,-3,-1,4,3,5,1
1558442210814933,-3,-3,-3,-4,-9,-4,-3,-5
1558442210828886,1,0,6,1,-2,-3,-8,-1
1558442210828886,-3,-1,-4,-1,-1,-7,-4,-1
1558442210836839,-4,-2,-3,0,2,5,0,-4
1558442210836839,1,1,0,-3,4,1,4,1
1558442210853012,2,0,-1,-4,-6,-2,1,-1
1558442210853012,1,-1,-1,0,2,-4,-1,0
1558442210853012,1,0,2,1,3,1,2,3
1558442210853012,0,0,-1,-2,-4,6,3,4
1558442210866828,-4,-1,2,1,0,-5,-5,-8
1558442210866828,0,0,1,-1,-3,-6,-4,-2
1558442210882748,2,-2,0,0,0,1,-1,2
1558442210882748,-3,-3,-6,0,-3,1,-1,-1
1558442210889904,0,-1,-2,-3,-1,3,2,0
1558442210889904,-2,0,1,-1,-4,-3,-2,0
1558442210897985,-1,1,3,0,-3,-7,-3,2
1558442210897985,-1,-1,-4,2,7,4,-3,-7
1558442210912931,-4,-3,3,-3,-3,2,-2,-2
1558442210912931,0,-3,3,-1,-7,-7,-2,1
1558442210912931,-3,-3,-10,-4,3,6,-2,-5
1558442210912931,2,-2,-1,-3,-13,-5,3,13
1558442210926600,-5,-2,-2,1,9,3,-4,-6
1558442210926600,0,0,1,1,8,3,-4,-3
1558442210934580,-3,0,1,-3,-4,-7,-4,-4
1558442210934580,-3,-1,-1,-2,-3,-4,-3,-1
1558442210949539,0,-3,-1,-3,-3,-6,-1,2
1558442210949539,2,0,-5,-3,0,4,5,1
1558442210957516,0,-1,2,4,4,-2,-1,1
1558442210957516,-1,-2,-5,-1,3,1,-1,-5
1558442210972850,2,1,2,1,2,4,6,4
1558442210972850,-2,-3,-2,-4,-9,-5,-6,-4
1558442210972850,-2,1,-1,-1,-4,-3,1,-1
1558442210972850,1,-2,1,-4,-4,-2,0,-2
1558442210986731,-1,1,2,2,9,7,5,1
1558442210986731,-3,-4,-3,-3,-8,-4,-1,-2
1558442210995447,-1,-2,-2,-2,-1,-3,-2,2
1558442210995447,-6,-5,-1,-1,1,-1,-5,-7
1558442211009378,-4,-3,-5,-2,0,1,-3,-1
1558442211009378,-4,1,1,-3,0,7,3,0
1558442211017386,-2,-3,-3,-3,-7,-3,0,2
1558442211017386,0,1,0,0,3,-7,-3,-4
1558442211032349,6,2,-1,4,4,5,2,4
1558442211032349,-2,-1,2,-2,-2,-6,-3,-2
1558442211033338,-3,-4,-6,-5,-7,-4,-3,-2
1558442211033338,0,2,-1,0,5,8,1,1
1558442211056253,-1,-1,2,-2,-7,-4,1,-3
1558442211056253,-4,-1,3,1,4,0,-5,-4
1558442211056253,0,1,1,2,-1,-8,-6,-4
1558442211056253,0,-2,-2,-1,2,1,1,1
1558442211070240,-7,-4,-2,-4,-6,-3,-6,-5
1558442211070240,-1,-2,-3,-4,-9,-6,-1,-2
1558442211077197,-2,-1,1,-1,1,0,0,-2
1558442211077197,0,0,-2,-1,-2,-6,-7,-2
1558442211092157,1,-1,-2,-1,2,1,-1,0
1558442211092157,2,-2,-3,1,3,6,5,3
1558442211093155,1,2,2,-3,-2,-2,-1,-3
1558442211093155,1,-1,-2,-1,-9,-6,2,3
1558442211107258,1,3,8,2,4,6,2,4
1558442211107258,-2,-2,-8,0,9,3,-1,-2
1558442211115381,-2,-2,-4,-2,-6,-6,-4,-1
1558442211115381,0,-3,-2,-4,-6,1,-2,-2
1558442211129323,1,-2,-4,-3,-1,-7,2,5
1558442211129323,5,1,7,6,8,11,4,0
1558442211137311,-4,-2,-4,-3,-5,-8,-4,-1
1558442211137311,-2,0,-1,-2,-2,-2,-3,-4
1558442211152279,-4,-3,-6,-3,-11,-7,-3,-4
1558442211152279,1,2,3,-2,0,-3,0,3
1558442211152994,3,-1,-1,2,8,8,9,4
1558442211152994,-1,1,5,1,1,-1,0,-6
1558442211167153,-2,-2,-6,-3,-3,-1,-4,-1
1558442211167153,-1,-2,-4,-2,3,-3,-4,-4
1558442211174935,0,-1,3,-1,-9,-2,-4,-3
1558442211174935,-2,-1,-3,-3,-4,-7,-3,1
1558442211188896,0,2,6,3,7,4,3,0
1558442211188896,-3,-6,-8,-4,-7,-5,-2,-2
1558442211196877,-1,0,1,-1,7,4,3,7
1558442211196877,3,0,1,2,10,14,11,1
1558442211212993,-2,-1,0,0,-3,-6,-4,-5
1558442211212993,0,1,0,-2,-7,-5,-3,1
1558442211212993,1,-1,-6,-3,-4,-7,-3,-5
1558442211212993,-1,-2,0,-1,-1,-2,2,8
1558442211227794,-1,0,-2,3,8,10,2,-6
1558442211227794,-2,-1,5,1,4,-1,0,-3
1558442211234809,-3,-3,1,-1,0,3,0,-1
1558442211234809,-3,-2,-4,-5,-12,-11,-10,-7
1558442211249144,-4,-6,-5,-2,-7,-7,-3,-2
1558442211249144,-4,1,-1,-1,-3,3,2,1
1558442211258115,2,2,-1,0,4,0,4,-2
1558442211258115,-2,-2,-1,-1,1,-2,-6,1
1558442211273098,-2,0,-3,-1,-2,-7,-6,-7
1558442211273098,-1,-1,-2,-1,-4,2,-3,-4
1558442211273098,-3,-4,-3,-1,-3,2,0,0
1558442211273098,3,-3,-1,0,0,-1,1,2
1558442211287080,1,-2,-6,-3,-5,-2,-2,0
1558442211287080,0,0,1,1,0,-2,2,-2
1558442211294614,-2,-1,-1,-1,5,9,0,-7
1558442211294614,-5,-2,-2,1,2,-4,-1,-4
1558442211308587,-1,0,4,0,1,3,1,4
1558442211308587,-2,-2,-8,-3,-6,-7,-1,2
1558442211317553,-4,-1,-1,-6,-10,-7,-8,-7
1558442211317553,0,0,0,3,-1,-1,1,2
1558442211332762,-1,-1,-1,0,10,4,1,-3
1558442211332762,2,-1,0,1,7,6,4,2
1558442211332762,1,0,2,-1,0,-1,-1,-1
1558442211332762,-1,-3,-1,-3,-4,-1,-4,-4
1558442211346782,-1,0,-1,-4,-8,-3,-1,-2
1558442211346782,0,-2,-4,-2,-8,-8,-4,0
1558442211355482,-3,-3,-5,-1,4,2,6,6
1558442211355482,-2,0,2,1,-2,-3,-6,-6
1558442211369464,3,1,2,2,10,3,6,3
1558442211369464,-5,-2,1,-3,0,-1,-2,-3
1558442211377394,-3,-4,-2,-1,-9,-14,-9,-1
1558442211377394,-2,2,1,-2,-6,-1,0,1
1558442211392354,0,-1,-3,-3,-4,-2,-2,-5
1558442211392354,3,1,3,1,7,3,3,4
1558442211393351,0,1,-1,1,2,6,-1,-2
1558442211393351,3,1,3,3,11,5,5,1
1558442211407385,-2,-1,-6,-6,-13,-11,-5,4
1558442211407385,-3,-3,-1,-5,-8,-7,-7,-6
1558442211414600,-1,2,1,-4,-1,1,3,-2
1558442211414600,-1,-2,0,0,-3,-5,-7,-2
1558442211429546,0,-2,-1,1,6,6,5,2
1558442211429546,1,-1,-1,1,6,8,3,2
1558442211437545,1,-1,1,-1,-1,-8,-6,0
1558442211437545,0,-1,-3,-3,-3,-3,1,-2
1558442211461169,0,-1,1,-1,-7,-3,-1,5
1558442211461169,-2,-1,-4,2,-3,-3,-9,-6
1558442211461169,0,1,1,2,7,10,5,-1
1558442211461169,-3,0,-2,0,5,6,6,3
1558442211467154,2,1,0,-2,-2,-10,-5,-5
1558442211467154,0,-1,6,-2,-3,-2,-1,0
1558442211482114,-2,-2,-8,0,1,-1,-5,-2
1558442211482114,-4,-4,-7,-3,-1,2,0,-3
1558442211489131,-1,0,2,-1,1,5,-1,-2
1558442211489131,-2,-3,-5,-4,-9,-9,-2,2
1558442211497071,-1,1,3,-1,-1,4,4,1
1558442211497071,-1,0,-3,1,7,-2,-1,-3
1558442211511034,-3,-2,-3,0,-2,0,-4,0
1558442211511034,-2,0,1,-1,-1,2,-2,-6
1558442211520010,-1,0,2,0,-1,-2,1,3
1558442211520010,-1,-3,-1,-4,-11,-9,-4,-2
1558442211526992,-3,-3,0,-4,-4,-6,-12,-5
1558442211526992,1,1,1,2,9,9,6,2
1558442211535436,1,0,0,2,11,10,6,3
1558442211535436,2,1,5,0,0,2,-1,-4
1558442211548935,-2,-3,-4,-3,-7,-7,3,4
1558442211548935,-2,-3,-7,-1,-3,-5,-4,-3
1558442211558162,0,-2,-5,-6,-9,-6,-7,-2
1558442211558162,1,-1,-1,3,7,1,2,0
1558442211581343,-4,-1,-3,-1,0,-3,-3,-6
1558442211581343,-1,-1,0,-1,-2,-2,3,2
1558442211581343,0,-1,-2,1,-8,-6,-3,-5
1558442211581343,-4,-8,-4,-4,-1,0,0,1
1558442211587337,1,1,4,1,5,8,2,1
1558442211587337,-2,0,-7,-1,-4,-5,-1,-1
1558442211603150,-4,0,1,-2,-3,-6,-5,-6
1558442211603150,-1,1,-1,-4,3,3,3,7
1558442211608774,2,2,1,3,3,3,-1,-4
1558442211608774,2,1,2,1,7,5,4,10
1558442211617943,-2,-2,0,0,-5,-4,-7,-5
1558442211617943,-1,-1,-4,-2,-5,-2,-3,-5
1558442211631149,0,-2,-2,-3,-2,-6,4,6
1558442211631149,1,0,2,-1,3,1,2,-3
1558442211640423,0,-2,-1,0,1,1,-2,-4
1558442211640423,-2,-2,-2,-3,-5,-3,-5,2
1558442211647388,-3,-3,-4,0,1,3,-2,-8
1558442211647388,0,-1,-4,-2,0,-2,-1,1
1558442211655408,-2,-4,-1,0,-1,-4,0,-1
1558442211655408,1,2,1,0,1,4,1,-1
1558442211669394,-3,-6,-7,-5,-9,-4,-1,1
1558442211669394,2,3,5,0,-1,2,2,3
1558442211678071,-3,-3,-2,1,10,9,2,-2
1558442211678071,-3,-3,-2,-1,1,-6,-4,-4
1558442211691983,3,2,4,2,-1,-5,0,1
1558442211691983,-1,-4,-2,-3,-8,-7,-4,-3
1558442211700596,-1,-2,-10,-5,-2,0,2,4
1558442211700596,-2,-1,0,-2,1,-1,-4,-4
1558442211715289,-1,-2,0,-1,3,1,5,2
1558442211715289,-3,-3,6,0,-4,-5,-7,-7
1558442211716255,-3,-3,-2,-4,-7,-8,-3,3
1558442211716255,-2,-1,-6,-3,-4,-2,-4,-7
1558442211729452,-2,1,-2,-2,1,4,0,-2
1558442211729452,0,-1,-3,-2,-4,-2,0,1
1558442211737430,2,3,5,1,-2,1,4,4
1558442211737430,0,0,2,1,-2,-1,-3,-3
1558442211751160,2,3,6,-1,2,3,3,3
1558442211751160,-5,-3,-6,-3,0,-4,0,-4
1558442211760139,-1,1,1,-1,3,5,1,2
1558442211760139,-1,-2,-4,-1,-3,-2,-1,1
1558442211775095,1,-2,-3,-2,-8,-6,-8,-1
1558442211775095,-3,-1,-2,3,7,8,-1,-4
1558442211775095,2,0,8,1,0,-5,0,5
1558442211775095,-3,-1,-5,0,-8,-5,-4,-3
1558442211789488,-4,-4,-7,-3,5,5,2,-1
1558442211789488,2,0,-1,-1,-4,-4,0,1
1558442211797456,-2,-2,-2,-1,-3,1,-2,-9
1558442211797456,0,1,4,0,-1,-4,1,3
1558442211812396,2,0,1,1,4,-4,-2,2
1558442211812396,-1,-1,-1,-1,-4,1,4,0
1558442211820381,0,1,1,-1,0,1,-3,-2
1558442211820381,-5,-2,-2,-5,-9,-6,-5,-7
1558442211834937,0,-1,-3,-1,-2,-7,-1,-1
1558442211834937,1,1,3,-1,0,3,4,7
1558442211834937,-3,-6,-2,-5,-9,-3,-6,-9
1558442211834937,3,0,3,2,9,1,-1,1
1558442211849204,-4,-2,-3,1,6,3,0,1
1558442211849204,-2,-1,2,1,2,1,0,-2
1558442211857876,-3,-2,-7,-5,-5,0,3,0
1558442211857876,0,-3,-1,-1,-11,-5,-3,0
1558442211872175,0,0,2,2,5,-3,0,-5
1558442211872175,-1,-1,-2,-1,3,3,-5,-2
1558442211880135,1,0,1,0,0,0,1,2
1558442211880135,0,-3,-2,-1,1,-3,0,-2
1558442211895085,-3,-2,-2,-2,-4,0,-2,-4
1558442211895085,-2,-1,-2,-5,-7,-2,-1,-2
1558442211895774,-1,-1,-1,-1,-3,-6,-3,-5
1558442211895774,2,4,4,1,4,0,7,7
1558442211908739,-4,-2,-9,-4,-6,-2,-3,-6
1558442211908739,-2,-4,-3,1,-3,-4,-3,-3
1558442211918036,0,2,-2,-1,3,-2,-1,-2
1558442211918036,2,0,3,2,9,12,5,3
1558442211932003,-2,-2,-1,-3,-4,-2,-2,0
1558442211932003,-1,1,6,0,1,-5,-4,-2
1558442211939982,0,-2,-10,-4,-1,-3,-2,0
1558442211939982,-5,-3,-4,-5,-7,-6,-5,-4
1558442211954615,-2,0,1,0,-3,5,2,1
1558442211954615,-2,-4,-4,-1,-4,-7,-2,-4
1558442211955613,3,1,4,2,8,2,4,10
1558442211955613,0,0,1,2,9,12,3,-3
1558442211969884,-2,0,-1,-2,-3,-5,-4,-5
1558442211969884,-3,-1,-2,-4,-4,-8,-4,0
1558442211977562,0,1,3,1,-4,-3,1,-4
1558442211977562,-2,-5,-8,-4,2,-2,0,2
1558442211991516,2,0,4,0,-2,3,0,1
1558442211991516,2,-1,-3,-4,-5,-3,-5,3
1558442211999496,-7,-3,1,3,-3,0,-6,-14
1558442211999496,0,1,2,-3,5,8,2,1
1558442212014454,-1,0,-1,-1,-5,-2,-2,-3
1558442212014454,0,1,2,-1,3,2,6,3
1558442212015452,2,1,-6,2,5,-1,1,0
1558442212015452,-3,0,5,1,-8,-5,-7,-5
1558442212029536,-5,-5,-5,0,6,8,1,-3
1558442212029536,0,1,-4,-3,1,2,3,-1
1558442212037562,-3,0,3,-4,-12,-17,-12,-1
1558442212037562,-1,-2,-5,1,-5,-5,-3,-5
1558442212051597,1,-1,1,-1,1,-2,2,1
1558442212051597,-1,-1,0,-1,2,4,-2,-5
1558442212059337,-2,-2,1,1,4,5,5,1
1558442212059337,0,-1,-3,-5,-8,-4,2,7
1558442212083593,-7,-2,-2,-2,-8,-9,-11,-13
1558442212083593,-4,-5,-13,1,3,3,-3,-3
1558442212083593,1,-2,-1,-2,-4,0,-1,1
1558442212083593,-1,0,3,0,6,1,0,1
1558442212089604,4,0,3,-3,-8,-7,1,7
1558442212089604,-3,-2,-1,-1,2,3,0,-5
1558442212097562,-2,0,4,2,12,11,2,1
1558442212097562,-1,-2,-7,-1,-5,-4,-4,-2
1558442212111510,0,-1,-2,-5,-5,-6,-2,2
1558442212111510,0,1,-1,-2,-1,-4,6,-3
1558442212120527,0,-4,-2,-1,-8,-6,-8,-3
1558442212120527,2,2,3,0,2,7,2,0
1558442212135486,-1,0,-1,-2,3,6,3,3
1558442212135486,2,-2,-1,-4,-5,-6,0,3
1558442212135486,-4,1,-5,0,3,4,-3,-5
1558442212135486,-2,-1,-3,-1,-4,-9,-4,-3
1558442212149401,0,-3,-3,0,-7,-4,-2,-2
1558442212149401,-1,1,3,0,6,5,-3,-5
1558442212157075,0,-2,-1,0,3,0,5,3
1558442212157075,-3,-2,-1,2,2,2,-4,-4
1558442212171064,1,0,0,5,3,-1,-3,0
1558442212171064,0,-5,-2,-4,-1,2,1,0
1558442212180367,0,0,-4,-4,-10,-12,-2,-4
1558442212180367,4,4,5,-1,-2,-1,4,5
1558442212194973,-4,-4,-5,-3,-5,-1,-2,-1
1558442212194973,-3,-2,-8,4,1,0,-4,-2
1558442212194973,3,1,-1,-1,6,2,8,7
1558442212194973,-2,-1,-1,-4,-1,4,-1,-5
1558442212208936,1,1,1,1,3,6,3,-2
1558442212208936,-3,-2,4,0,-4,-6,-4,0
1558442212216913,-1,4,5,1,-3,-5,-1,0
1558442212216913,-1,-4,-5,-2,-1,-3,-1,0
1558442212232232,0,0,1,-2,-4,-6,-4,-2
1558442212232232,-1,0,0,-2,-8,-4,-4,-4
1558442212240203,-3,-2,-1,0,6,10,0,-6
1558442212240203,2,2,13,6,10,10,3,2
1558442212255091,0,-2,-11,-4,2,-1,1,3
1558442212255091,0,-3,0,-4,-3,-3,-1,3
1558442212256035,-3,-3,-2,-4,-6,-3,-1,-1
1558442212256035,-5,-3,-2,-2,-11,-12,-5,-6
1558442212270815,-2,-1,-1,-3,0,1,1,2
1558442212270815,2,2,2,2,3,0,3,3
1558442212277935,0,0,-1,1,5,4,0,1
1558442212277935,-5,-3,-1,-4,-2,-1,-7,0
1558442212291764,-4,-2,5,1,-5,-6,-6,-9
1558442212291764,1,0,-4,-1,-4,-2,1,-1
1558442212300039,0,-3,-3,-5,0,1,-4,-3
1558442212300039,0,-1,-3,0,3,5,1,1
1558442212314698,1,1,3,1,5,0,1,-1
1558442212314698,-3,-2,-1,1,-3,-1,-6,-3
1558442212315697,-1,-1,-2,-2,-5,-2,1,2
1558442212315697,-1,-4,-5,-4,-13,-14,-5,-8
1558442212328659,-1,-1,0,-1,3,2,0,3
1558442212328659,-1,1,4,-1,5,1,-1,0
1558442212337970,-2,0,1,3,-3,-3,0,1
1558442212337970,-3,-5,-9,-6,-3,-2,-7,-7
1558442212351910,-1,1,5,3,5,2,0,-6
1558442212351910,3,2,4,0,3,6,7,8
1558442212360575,-1,-2,-5,-4,-7,-9,-10,-4
1558442212360575,-4,-3,-4,-1,-4,-4,1,-5
1558442212374813,2,0,5,-2,-7,-7,0,10
1558442212374813,-3,-2,0,1,1,6,-3,-6
1558442212382514,-1,-3,-1,-1,-1,-4,0,-2
1558442212382514,0,1,-2,1,7,3,4,1
1558442212389837,-2,-1,0,0,-1,-2,-3,-1
1558442212389837,-2,-3,-1,-3,-3,-5,-1,-1
1558442212397804,0,-1,0,-1,-2,4,-1,1
1558442212397804,-1,1,-3,-3,-5,-2,0,-1
1558442212411719,0,-2,1,2,3,-1,2,-1
1558442212411719,-1,1,-1,-4,-2,-1,2,-1
1558442212420602,0,-2,1,1,3,-1,0,-1
1558442212420602,-3,-1,-3,-4,-3,-4,-5,3
1558442212434732,1,-2,-3,-1,-9,4,-3,-1
1558442212434732,-7,-2,-3,-2,-5,-7,-8,-12
1558442212443354,0,2,1,1,7,6,6,5
1558442212443354,3,0,1,1,-1,-1,0,2
1558442212449641,1,-2,-4,-3,-3,3,6,0
1558442212449641,0,1,-2,0,4,0,-3,-1
1558442212458315,-3,-4,-1,-5,4,9,3,-2
1558442212458315,-2,-1,5,2,-2,-4,-1,0
1558442212472278,2,1,1,-1,-4,-7,1,3
1558442212472278,-2,-4,-11,-2,-5,2,4,0
1558442212480603,-1,-3,-2,1,1,-11,-5,-1
1558442212480603,-2,0,8,0,-4,-3,-3,-3
1558442212494468,-1,-3,-12,0,8,14,4,2
1558442212494468,-2,-1,-4,1,-5,-6,-8,-1
1558442212511173,0,-2,-3,-3,-9,-5,-5,-3
1558442212511173,0,-2,-3,-2,4,9,8,6
1558442212512169,-2,0,4,1,3,-6,-2,-12
1558442212512169,-3,0,2,-1,-2,0,-3,0
1558442212518159,0,1,-4,-3,-9,-6,-6,-1
1558442212518159,2,-1,-3,0,10,6,4,5
1558442212531130,0,1,1,2,7,3,-1,-8
1558442212531130,0,1,1,2,2,-2,3,2
1558442212548072,-3,-1,1,-3,-6,-4,-6,-7
1558442212548072,0,-2,-4,-3,-8,-4,10,4
1558442212554058,-2,1,4,-1,-4,-10,-10,-2
1558442212554058,0,-1,-5,-4,-5,-4,-2,0
1558442212563032,-1,-1,-1,-1,-3,-5,-4,-3
1558442212563032,0,-3,-7,2,-1,3,1,0
1558442212569050,-5,-5,-4,-4,-1,-1,-2,2
1558442212569050,2,0,9,1,2,7,7,3
1558442212577993,-1,2,3,4,9,3,4,0
1558442212577993,0,0,-3,1,2,2,-3,-3
1558442212591953,-1,-3,-4,-3,-10,-7,-4,-2
1558442212591953,0,-3,-2,-2,0,1,-2,-2
1558442212599932,-1,-1,-1,1,1,6,3,4
1558442212599932,0,1,0,0,1,-1,0,2
1558442212614898,-3,-1,0,-3,-10,-9,-7,-3
1558442212614898,-4,-1,-2,-3,2,-2,-2,-4
1558442212623078,2,4,3,4,7,4,5,5
1558442212623078,-5,0,0,-2,-1,-2,-6,-11
1558442212629856,0,-3,-2,-1,2,10,8,8
1558442212629856,1,0,0,0,-3,-2,2,2
1558442212637902,-3,-4,1,-4,-5,-6,-9,-4
1558442212637902,-4,-3,-4,-3,-9,-8,-8,-6
1558442212652144,1,1,-1,-1,0,3,-2,-1
1558442212652144,-3,-3,-5,-1,-3,-2,-1,-1
1558442212660774,-3,-4,-4,-1,-3,-4,-2,-3
1558442212660774,3,2,6,2,8,2,2,3
1558442212674690,-1,-1,1,-4,-1,-8,-4,-2
1558442212674690,-3,1,2,1,-4,-1,-1,-5
1558442212690594,-2,0,2,1,2,1,0,-2
1558442212690594,1,1,-5,-4,1,2,4,1
1558442212698516,-1,1,-4,3,3,3,5,2
1558442212698516,0,-1,-2,-3,-4,-6,-4,0
1558442212699182,-2,0,-2,-5,-12,-7,-7,-6
1558442212699182,-3,0,-2,0,4,4,2,-1
1558442212711559,1,-1,5,-2,-1,3,5,7
1558442212711559,1,-1,4,1,-3,-6,-4,-6
1558442212720535,4,0,2,4,8,8,4,3
1558442212720535,-5,-6,-11,-2,-4,-5,-5,-2
1558442212734823,-1,1,-2,-1,0,-1,-4,-1
1558442212734823,1,1,-1,-6,0,1,-1,0
1558442212742477,-6,-6,-5,-3,-9,-8,-5,-4
1558442212742477,0,1,3,2,2,0,0,1
1558442212758434,-4,-1,0,-2,-6,-3,-8,-4
1558442212758434,-1,0,0,2,8,7,3,-1
1558442212759430,0,-3,-5,-3,0,-2,2,-2
1558442212759430,0,-2,-1,-5,-11,-8,-7,0
1558442212771733,-4,-2,-6,-4,-7,-7,-5,-13
1558442212771733,2,-1,2,2,3,7,8,9
1558442212780374,3,5,7,6,21,20,11,6
1558442212780374,-2,-3,2,-2,-7,-9,0,0
1558442212794338,1,1,7,-1,-5,-4,-2,2
1558442212794338,0,-3,-15,-4,-11,-9,-8,-1
1558442212803314,-2,-3,-7,-3,-3,-8,-2,-3
1558442212803314,1,0,5,0,4,5,0,-2
1558442212818600,-2,0,2,0,-8,-3,-3,-5
1558442212818600,-1,-1,-4,-4,7,4,2,0
1558442212819274,-2,0,-1,0,3,-3,-5,0
1558442212819274,-4,-4,-6,-3,-9,-10,-9,-5
1558442212832235,-1,-1,1,1,9,8,5,0
1558442212832235,1,-2,1,1,1,1,7,6
1558442212840540,-2,-1,-1,-2,-6,2,-4,-7
1558442212840540,0,-1,-1,0,2,-1,1,-1
1558442212854505,0,-3,-3,-1,3,7,2,5
1558442212854505,-5,-5,-1,-1,-5,-9,-8,-9
1558442212863152,0,1,3,-1,1,-6,2,3
1558442212863152,-1,1,-4,-2,-5,-3,-2,-3
1558442212878458,-1,-1,-4,0,1,-1,4,2
1558442212878458,-3,-2,5,-1,-1,4,-5,-4
1558442212879110,-4,-5,-9,-5,-8,-9,-4,-4
1558442212879110,2,2,2,0,0,1,-1,4
1558442212891077,-2,-1,0,2,7,0,2,-4
1558442212891077,-4,-3,-10,-5,-6,-6,-6,-2
1558442212900377,0,-1,-2,-3,-4,3,-1,-1
1558442212900377,0,1,2,3,9,5,3,2
1558442212914343,1,-1,0,-1,-3,-6,-2,-1
1558442212914343,-1,-3,0,0,-1,4,3,7
1558442212922997,-2,0,2,2,-1,0,-1,0
1558442212922997,3,-1,1,0,2,4,-2,-4
1558442212938280,-2,-3,-2,-1,-4,-8,-6,-6
1558442212938280,-2,-1,-3,-4,-1,-2,-2,-5
1558442212940025,1,1,-6,-3,-6,-1,0,3
1558442212940025,-2,0,1,-1,0,2,1,1
1558442212952252,1,0,-2,1,-1,-4,-5,-2
1558442212952252,-1,-1,2,2,-1,-5,-4,-2
1558442212960891,0,-2,1,-1,-1,2,2,0
1558442212960891,-4,-2,0,-2,-4,-1,-2,-1
1558442212974151,-2,-1,-5,-3,0,1,2,-3
1558442212974151,0,3,5,-3,-6,-7,-3,0
1558442212983754,-2,-3,-7,-4,-1,-4,0,-1
1558442212983754,-5,-2,-6,-2,-1,-2,-5,-10
1558442212998042,1,1,0,-1,-6,-5,-4,-1
1558442212998042,4,2,5,4,12,9,2,-1
1558442212999715,3,1,1,1,4,8,15,13
1558442212999715,-2,-2,-3,-2,-9,-10,-8,-9
1558442213011683,0,-2,-1,-4,-1,-4,-2,6
1558442213011683,-4,0,-1,1,0,1,-1,-10
1558442213020662,1,0,4,2,1,-2,0,0
1558442213020662,0,1,-1,1,3,2,4,3
1558442213034096,0,-3,-4,-6,-10,-7,-7,-2
1558442213034096,-3,-2,-1,-1,-2,-2,-1,-3
1558442213043048,0,-1,-1,1,0,0,-1,-2
1558442213043048,-1,-1,4,0,-1,-3,0,3
1558442213058345,-4,-1,-3,0,0,3,0,-3
1558442213058345,0,-2,-3,-2,-9,-5,-6,0
1558442213059002,-2,-1,-2,-3,-2,-3,-2,-5
1558442213059002,0,-2,1,-1,2,-2,0,-1
1558442213072203,0,2,2,1,3,4,1,3
1558442213072203,3,0,-1,1,3,0,2,0
1558442213080334,-3,-1,-3,-3,-8,-3,-2,0
1558442213080334,-2,-3,-3,-2,-1,3,-1,-3
1558442213103599,1,0,0,0,8,5,4,1
1558442213103599,0,-1,-1,1,1,-5,0,0
1558442213104273,-2,0,0,-2,1,2,-3,-2
1558442213104273,0,0,6,-2,-10,-6,1,0
1558442213117573,0,-5,-12,-5,-5,-4,-4,3
1558442213117573,-4,-2,-1,1,2,1,-8,-11
1558442213124543,-3,-3,-7,-3,-2,-5,-4,-10
1558442213124543,0,1,2,1,6,4,1,1
1558442213132224,-3,-2,-1,-2,-2,-2,-3,-6
1558442213132224,2,0,-3,-3,-5,2,4,9
1558442213140494,-4,-5,-3,-6,-6,-6,-5,-3
1558442213140494,0,-1,2,1,1,1,-3,0
1558442213154449,0,1,5,-1,-1,-3,2,0
1558442213154449,-3,0,-4,-1,2,-4,-2,0
1558442213163114,0,-1,0,2,2,6,2,2
1558442213163114,1,-3,-2,0,1,-1,2,4
1558442213177073,-4,-3,-2,1,-6,0,-1,-6
1558442213177073,-2,-3,-1,-4,-7,-4,-6,-4
1558442213184054,-1,2,3,3,6,3,-3,-3
1558442213184054,-2,-2,-7,-5,2,-3,1,3
1558442213191036,3,2,3,2,2,0,4,4
1558442213191036,-1,-1,0,3,2,5,3,-2
1558442213200402,1,0,0,-1,-3,-7,-3,1
1558442213200402,-2,-2,-3,-1,-10,-4,-1,-5
1558442213214032,-5,-3,-2,-1,3,0,-6,-5
1558442213214032,1,1,3,-1,1,-1,1,-2
1558442213223118,1,-1,-2,0,2,0,0,2
1558442213223118,-5,-3,-3,-6,-7,-5,-2,-2
1558442213236914,-1,-1,0,-2,-4,-6,-2,-2
1558442213236914,-1,-1,2,3,-1,-2,3,6
1558442213245173,-1,1,0,-2,5,2,-1,-3
1558442213245173,1,-2,-5,-1,2,4,2,0
1558442213252260,0,1,2,0,-2,0,0,0
1558442213252260,-4,-2,-4,-4,-10,-5,-7,-2
1558442213260851,0,-2,-1,1,0,1,2,1
1558442213260851,1,3,3,3,13,8,4,-1
1558442213274318,0,-1,3,2,7,5,5,3
1558442213274318,-2,-2,-5,-6,-6,-7,-3,-4
1558442213282792,-2,-1,0,-1,-9,-11,-6,-5
1558442213282792,-3,-2,-2,-4,-8,-3,-6,-6
1558442213297170,0,1,-6,1,1,7,4,1
1558442213297170,2,2,-1,3,2,1,3,8
1558442213305730,-5,-5,-4,-4,-3,-3,-9,-13
1558442213305730,-1,3,3,0,-3,-1,-5,1
1558442213312059,1,0,2,-1,3,2,-3,0
1558442213312059,-1,0,2,0,6,-1,1,-1
1558442213320690,-2,-3,-3,-1,-4,1,1,0
1558442213320690,1,1,0,0,-4,-5,-3,-3
1558442213334863,-1,-1,-2,-5,-12,-6,-4,-4
1558442213334863,2,1,1,0,5,1,6,5
1558442213342631,0,1,0,3,2,-4,1,2
1558442213342631,-1,-1,-3,1,5,7,3,0
1558442213356876,-2,-2,-3,-3,-1,2,2,0
1558442213356876,-2,-3,-2,-1,-3,-1,-1,-6
1558442213365571,1,-2,0,-2,1,-1,-2,1
1558442213365571,-1,-3,-3,-1,0,2,2,-2
1558442213371838,2,2,2,2,0,0,-3,0
1558442213371838,-6,-5,-4,-1,4,3,-1,-5
1558442213380530,1,1,-2,1,-2,1,2,2
1558442213380530,-1,1,-2,1,-1,-9,-3,-1
1558442213393494,-5,-7,-1,-4,-13,-14,-11,-3
1558442213393494,-3,-2,-4,-3,0,2,-9,-8
1558442213402718,2,3,2,1,8,10,7,7
1558442213402718,2,1,4,4,1,-4,-2,0
1558442213416433,-3,0,4,-1,2,1,0,-7
1558442213416433,1,-3,-10,-6,-10,-6,-3,-1
1558442213425409,0,-1,0,0,-8,-9,-7,0
1558442213425409,-3,-5,-8,-3,0,3,4,2
1558442213431394,1,0,7,4,5,1,1,3
1558442213431394,-2,-4,-3,-1,-10,-5,-3,-1
1558442213440369,-2,0,0,-3,-2,6,4,0
1558442213440369,-5,-5,-3,-1,-6,-8,-8,-8
1558442213454780,-1,-1,-4,-1,-3,-1,0,1
1558442213454780,1,1,4,4,2,1,-4,1
1558442213463309,-1,-3,0,2,10,-1,0,-5
1558442213463309,-2,-2,-1,-4,-5,-2,0,4
1558442213476278,-1,1,-4,2,0,2,4,-4
1558442213476278,-1,-2,-3,-8,0,6,2,2
1558442213485567,2,3,0,-2,-7,-7,-1,-1
1558442213485567,-2,-3,-3,-3,0,-2,-3,-1
1558442213491664,0,-2,-6,-3,-2,0,2,5
1558442213491664,0,2,4,5,3,1,3,-5
1558442213501301,-5,-2,-4,-5,-4,0,-7,-6
1558442213501301,-2,-1,1,0,-3,1,0,-4
1558442213514924,3,-1,-1,-1,3,-2,-2,0
1558442213514924,-1,-1,0,-1,1,6,2,4
1558442213522647,-3,-4,-8,-4,-7,-7,-2,6
1558442213522647,0,-1,-2,1,-2,-4,-1,-2
1558442213536612,-3,-4,-1,-4,-4,-6,-5,-2
1558442213536612,0,1,7,-1,-3,2,4,-1
1558442213545590,-2,-4,-6,1,6,5,0,-5
1558442213545590,-2,-1,1,-3,2,-2,-6,-2
1558442213551936,1,1,-1,-1,-2,-9,-5,-2
1558442213551936,-5,-2,-1,-2,-2,-6,-4,-5
1558442213560578,2,0,1,0,-2,2,4,5
1558442213560578,1,0,1,-3,-3,0,2,4
1558442213574869,-4,-2,-1,0,-2,-1,-6,-8
1558442213574869,0,1,0,1,-6,-9,-5,-1
1558442213583641,-2,-2,1,-2,-2,4,-1,-3
1558442213583641,3,1,-1,0,3,4,5,5
1558442213596451,0,-4,-7,1,7,6,3,5
1558442213596451,-4,-2,-2,-1,-1,-5,-2,-4
1558442213605426,0,-1,-1,0,-6,-1,1,3
1558442213605426,-1,1,5,1,-6,-5,-3,-8
1558442213620421,-1,0,0,0,1,-1,1,0
1558442213620421,0,-2,-8,-4,6,6,3,5
1558442213621384,-2,-2,-2,-2,-4,-7,-6,-5
1558442213621384,-1,-1,-3,-5,-5,2,-2,5
1558442213634348,1,2,4,2,1,4,2,-2
1558442213634348,2,1,6,3,5,2,-1,0
1558442213643325,0,0,1,-2,2,1,0,-3
1558442213643325,-2,-3,-3,-2,-1,-5,1,1
1558442213656289,-1,-3,-1,-4,-8,-9,-2,-4
1558442213656289,-5,-6,-8,-2,-10,-8,-6,-3
1558442213665266,2,1,4,2,4,3,3,1
1558442213665266,-2,-1,-2,-1,-1,6,1,-3
1558442213681225,-3,-4,-5,-4,-4,-5,-3,-7
1558442213681225,1,1,5,0,2,-3,-2,-2
1558442213682221,-2,-5,-13,-4,-2,-1,0,0
1558442213682221,4,0,-1,-1,-1,-3,0,6
1558442213694540,-6,-3,-3,-1,-2,5,-1,-10
1558442213694540,-1,2,5,-1,-2,-4,0,-1
1558442213703166,0,0,4,3,5,-1,0,-2
1558442213703166,2,-3,-3,-1,-1,1,4,4
1558442213716457,-2,-2,-1,-1,3,8,-4,-5
1558442213716457,2,-1,-3,0,6,2,2,1
1558442213725106,-3,-1,2,-3,-9,-9,-4,0
1558442213725106,-2,-3,-6,-4,-8,-9,-7,-4
1558442213741300,1,1,4,0,-1,-2,2,5
1558442213741300,-2,-2,2,3,4,6,5,0
1558442213742062,-2,-2,1,-3,-2,-1,-5,-3
1558442213742062,-2,-2,-7,-3,-3,-2,-5,-2
1558442213754469,0,2,5,0,2,-1,4,1
1558442213754469,-2,-3,-10,-7,-4,-3,-5,-3
1558442213763005,-2,1,7,-1,-4,2,4,2
1558442213763005,-3,-4,-5,-2,-9,-5,-5,-2
1558442213776967,3,3,2,4,11,5,8,7
1558442213776967,1,-2,1,2,2,-1,-2,-1
1558442213785316,-1,-1,-3,-5,-4,-4,-2,-1
1558442213785316,0,0,4,-1,2,9,6,3
1558442213799906,-2,-1,-5,-1,-8,-6,-3,-7
1558442213799906,-1,-4,-3,-4,-9,-10,-6,-3
1558442213801901,-1,-1,1,2,0,-6,-4,-3
1558442213801901,2,1,2,6,13,6,2,-3
1558442213814141,1,1,0,-2,1,3,0,2
1558442213814141,-2,0,3,-1,-5,-2,-1,4
1558442213823118,-3,-1,-8,-3,-7,-2,-9,-8
1558442213823118,0,1,5,1,0,3,2,0
1558442213837364,3,0,-4,-2,-2,-4,1,8
1558442213837364,1,0,0,1,1,10,7,2
1558442213845406,1,3,5,5,11,8,4,1
1558442213845406,-2,-2,-4,-1,-5,-7,-5,-3
1558442213860017,0,-1,-6,-3,-5,-1,-2,-2
1558442213860017,1,1,-1,-1,1,-2,4,3
1558442213862011,-1,-1,2,3,-1,2,2,-1
1558442213862011,-2,0,3,-1,-1,0,-1,-2
1558442213873979,-3,0,3,1,-1,-1,-3,-5
1558442213873979,-1,-5,-10,-2,-1,5,1,-2
1558442213882957,-1,-3,-2,0,-3,-6,-1,-2
1558442213882957,-2,-3,-1,-3,-5,-9,-6,-5
1558442213896917,1,-4,-5,-5,-4,-1,-1,2
1558442213896917,-1,0,0,2,9,6,4,-2
1558442213904895,-1,-3,-2,-1,8,4,0,0
1558442213904895,-1,2,2,1,-4,-2,2,1
1558442213920302,-4,-2,3,-2,-3,-5,-1,-2
1558442213920302,2,3,6,0,-5,-6,-1,1
1558442213921853,-5,-5,-8,-7,-7,-7,-10,-3
1558442213921853,-3,-4,-9,0,3,0,-5,-5
1558442213934845,-2,-2,0,1,3,10,3,1
1558442213934845,-3,1,-4,0,-5,-7,-4,-4
1558442213942800,3,3,5,2,-3,-4,2,2
1558442213942800,-2,-3,2,0,2,1,3,1
1558442213957160,-2,-2,-1,1,3,-4,-4,0
1558442213957160,-2,-3,2,-3,2,4,-4,-4
1558442213965735,-2,-2,-2,-2,-3,1,-1,-1
1558442213965735,0,2,1,-2,-6,-3,0,-4
1558442213980693,1,2,1,2,2,-1,4,3
1558442213980693,0,0,7,2,2,-2,0,-1
1558442213981691,-5,-6,-12,-2,-9,-7,-5,-4
1558442213981691,1,-2,-7,-2,-1,2,0,0
1558442213993660,-4,-3,-2,-2,0,-1,-1,-1
1558442213993660,0,2,5,1,-1,-3,-4,0
1558442214002635,0,0,-4,-2,3,1,4,-3
1558442214002635,-3,-1,-2,-1,-2,-1,0,3
1558442214016843,-5,-3,2,-4,-10,-11,-12,-7
1558442214016843,-5,-3,-10,-1,-1,-1,-3,-3
1558442214025575,-1,0,4,1,4,6,7,-1
1558442214025575,1,0,3,1,4,1,0,-3
1558442214040539,1,-1,0,-3,2,0,2,-2
1558442214040539,0,-2,-5,-3,-9,-2,-5,2
1558442214041532,1,-1,3,0,1,-6,1,1
1558442214041532,-1,-1,0,-2,-4,3,4,1
1558442214054576,1,2,0,0,1,0,0,0
1558442214054576,0,1,-2,1,5,0,2,-1
1558442214062477,-1,-1,-1,0,-2,0,1,4
1558442214062477,-4,0,1,-3,0,-1,1,-3
1558442214076441,-2,-4,-5,-4,-4,-5,-2,2
1558442214076441,-2,1,-5,-1,1,-3,-6,-3
1558442214085419,-3,-3,-1,-4,-4,1,-2,-2
1558442214085419,1,0,0,1,2,-1,1,-1
1558442214100382,0,1,-2,-2,0,-4,-8,-5
1558442214100382,-3,-3,-1,-3,-5,-2,-6,-12
1558442214101373,1,0,6,0,1,-1,3,0
1558442214101373,0,-1,-3,1,8,6,2,-1
1558442214123321,1,1,0,0,3,7,6,2
1558442214123321,-1,0,1,-2,-5,-1,5,7
1558442214124312,1,1,-2,-1,5,-4,-6,-2
1558442214124312,-5,-3,-2,-3,-6,-7,-5,-2
1558442214136278,-2,-1,2,0,0,1,-3,-6
1558442214136278,2,1,-3,1,1,3,2,3
1558442214145276,-2,-1,-3,0,-5,-1,-3,-4
1558442214145276,-2,0,1,1,3,0,0,3
1558442214160251,0,-2,0,0,0,-6,2,2
1558442214160251,-1,-1,-1,-2,-6,-3,-2,-5
1558442214161213,0,1,-1,0,-2,3,5,8
1558442214161213,-1,-1,0,0,1,2,-11,-8
1558442214174178,-6,-4,-4,-1,-4,-4,-6,-11
1558442214174178,-2,-4,-1,-2,2,-1,3,-1
1558442214183153,-1,-2,-6,-3,-5,-4,-2,-5
1558442214183153,-1,-2,-2,-2,-5,-4,-2,1
1558442214196118,-1,1,5,3,2,0,-1,5
1558442214196118,0,-2,-1,-1,-1,-3,-4,-3
1558442214205095,-3,-3,-10,-4,4,6,1,-1
1558442214205095,2,1,-2,-1,1,2,9,5
1558442214220054,-4,-2,-1,-2,-5,-2,-4,-11
1558442214220054,-1,-1,-2,-3,-4,-5,-5,-4
1558442214222052,-2,-1,5,1,-10,-7,-4,0
1558442214222052,5,2,3,1,7,2,9,1
1558442214234018,0,-1,-4,-2,0,-2,-1,0
1558442214234018,-1,-2,1,-3,-4,-1,-1,10
1558442214243003,-3,0,3,0,2,2,-2,-8
1558442214243003,1,0,-2,1,5,2,4,7
1558442214257176,0,-1,-2,-1,-1,3,1,-3
1558442214257176,0,0,-1,-1,-3,-7,-3,-1
1558442214265931,1,-1,0,0,-2,-1,-3,0
1558442214265931,-2,-4,-1,0,-3,-2,-8,-9
1558442214279896,-4,-5,-8,-2,0,-1,3,3
1558442214279896,0,2,5,0,-4,3,1,0
1558442214281901,0,0,-8,-1,1,-4,2,1
1558442214281901,0,-1,1,-5,-5,-7,0,2
1558442214293859,3,1,-1,0,0,2,-3,-3
1558442214293859,-4,-5,-4,-1,-2,-6,-4,-6
1558442214302833,1,2,6,0,0,0,2,0
1558442214302833,-2,0,3,0,-6,-3,-5,-6
1558442214316999,3,0,-7,-1,13,7,7,13
1558442214316999,-2,0,3,-2,0,-1,-1,-5
1558442214325775,-4,-2,2,3,1,-1,-2,1
1558442214325775,-2,-2,-6,-4,-7,-1,-6,-4
1558442214347717,0,-1,0,-1,-2,1,6,3
1558442214347717,-2,0,0,3,9,2,-2,-4
1558442214349707,-2,-2,-2,-4,-2,1,1,-2
1558442214349707,-3,-3,-4,-3,-3,-7,-5,-4
1558442214353902,-1,-2,0,-3,-9,-5,-4,-2
1558442214353902,1,1,-3,-1,5,4,6,3
1558442214362672,2,-1,-1,-2,-6,-8,-4,-2
1558442214362672,-1,0,1,2,6,6,4,0
1558442214376636,1,2,2,0,2,5,4,4
1558442214376636,-2,-2,-4,-1,-3,-2,-5,-9
1558442214385611,0,0,3,-2,-4,3,4,3
1558442214385611,-3,1,0,1,-2,-3,-3,-5
1558442214399575,-4,-4,-9,-2,-1,-6,-3,-2
1558442214399575,1,-1,1,-2,0,-2,-1,-2
1558442214406681,1,1,-2,1,4,4,-1,-1
1558442214406681,-2,-1,1,-1,-3,2,-2,5
1558442214413539,-1,1,7,0,-3,1,-2,-6
1558442214413539,-1,-3,-6,-2,-1,-3,-2,2
1558442214422513,-1,-1,0,-1,-3,-8,-8,-5
1558442214422513,-1,0,-5,-2,0,0,0,3
1558442214436475,3,0,3,0,0,4,0,2
1558442214436475,0,-1,0,-1,-1,-2,0,2
1558442214445451,-1,-3,-3,-2,-1,-5,-2,0
1558442214445451,-3,0,-1,-1,0,-2,2,4
1558442214459432,-3,-1,0,2,-4,-4,-4,-13
1558442214459432,-2,-3,1,-2,-2,-2,-4,-5
1558442214466397,-1,0,0,-1,1,-6,2,2
1558442214466397,3,-2,0,0,1,-3,-1,1
1558442214474374,-3,-2,-4,-6,-6,-4,-4,0
1558442214474374,-1,-2,1,2,-2,5,4,5
1558442214490330,-5,-3,1,-1,-4,-5,-12,-7
1558442214490330,-2,-4,-8,-3,-1,2,-2,-4
1558442214496316,1,1,4,2,6,5,4,4
1558442214496316,0,1,1,2,-1,-2,-4,-3
1558442214505293,-2,-1,-3,-6,-7,-4,-5,-2
1558442214505293,2,-1,-1,-3,-4,-3,3,0
1558442214520250,-2,-2,-2,-1,-3,-4,-1,-1
1558442214520250,-3,-3,-5,-3,1,5,1,1
1558442214526537,-1,0,0,0,0,-1,-1,2
1558442214526537,-2,-1,-2,-2,-3,-3,-7,-7
1558442214543192,-4,-3,-2,-1,-3,-1,-5,-6
1558442214543192,4,0,1,-3,3,1,6,6
1558442214544191,-1,-1,-2,1,1,2,4,-1
1558442214544191,0,1,4,-1,-3,-9,-1,-3
1558442214556155,-2,-2,0,0,-3,-1,0,3
1558442214556155,-6,-6,-15,-4,2,3,-2,-5
1558442214565320,0,-2,-2,-3,2,9,-2,0
1558442214565320,-2,-3,1,2,-5,-6,-6,-5
1558442214580090,0,2,6,-2,0,-4,2,1
1558442214580090,-1,4,5,1,4,5,0,1
1558442214587083,-1,-3,-6,-1,-2,0,3,4
1558442214587083,-2,-3,-3,-2,5,10,0,-2
1558442214603031,-1,-4,-3,-2,-8,-8,-6,-3
1558442214603031,3,2,3,0,-3,-5,1,7
1558442214604028,1,1,1,1,3,1,1,-6
1558442214604028,0,0,1,-1,-3,1,1,0
1558442214615998,1,-2,-2,1,7,-3,-3,-3
1558442214615998,0,-3,-2,-3,-8,-3,-2,-1
1558442214639934,-1,-1,-1,0,-1,2,3,-2
1558442214639934,-1,-1,2,0,1,-4,-2,1
1558442214640927,-1,1,-3,0,3,5,2,2
1558442214640927,-1,1,0,-1,-3,-6,0,1
1558442214646913,1,-1,1,-2,-5,-5,-2,-2
1558442214646913,-4,-2,-3,1,-3,0,-4,-7
1558442214663075,-3,-3,-4,-2,1,0,1,2
1558442214663075,-4,0,1,-2,1,5,-1,-5
1558442214663883,1,-1,-3,0,-2,-4,-4,1
1558442214663883,0,0,0,-2,-3,-6,3,2
1558442214676834,-3,1,-2,1,0,1,1,-2
1558442214676834,-1,0,-1,2,1,1,3,2
1558442214685809,-5,-4,-1,-2,-5,-4,-5,-9
1558442214685809,-2,-2,-3,-5,-8,-4,-4,-2
1558442214699771,-1,-3,2,-1,-3,2,-4,-4
1558442214699771,-2,-4,-6,-3,1,-6,-4,-1
1558442214706759,0,0,2,2,3,1,4,3
1558442214706759,2,-2,-2,2,2,-1,9,8
1558442214722716,-2,-1,-2,-1,-4,-6,-11,-11
1558442214722716,-3,-2,-2,-2,-6,-4,-7,-9
1558442214723709,-3,1,-4,-2,0,2,1,1
1558442214723709,-1,2,1,0,2,8,1,-4
1558442214736684,5,1,3,0,3,-4,9,11
1558442214736684,-1,-4,-6,-3,-2,0,0,-3
1558442214745648,1,0,0,-3,-6,0,-4,-3
1558442214745648,1,-2,-2,-3,-2,-9,-4,4
1558442214759612,-3,-1,0,0,-1,2,-5,-7
1558442214759612,-1,-1,1,0,-3,1,-1,-2
1558442214767589,1,-2,-5,-2,0,-1,2,4
1558442214767589,-6,-2,-3,-2,1,0,-4,-7
1558442214782549,0,-2,-4,-3,-6,-6,-3,-1
1558442214782549,-2,-1,1,0,-3,-5,-3,-2
1558442214784552,0,-1,2,1,3,0,3,0
1558442214784552,0,-1,1,0,4,3,2,0
1558442214796664,1,0,-2,-2,2,5,7,4
1558442214796664,-3,-3,-6,-1,0,0,-4,-2
1558442214805487,0,-2,0,-3,-8,-6,-4,-1
1558442214805487,-3,-1,0,-2,0,-7,-11,-8
1558442214820449,1,-1,-3,-3,-2,0,3,4
1558442214820449,0,1,4,-1,-2,1,5,3
1558442214826432,-1,-3,-4,0,4,2,0,1
1558442214826432,-2,-1,-1,0,0,6,4,6
1558442214842394,-3,-1,-1,-1,-1,2,-3,-7
1558442214842394,-2,-3,0,-1,0,-5,-3,-2
1558442214844384,0,2,2,1,-1,-4,-2,-3
1558442214844384,0,0,-3,-2,-2,-2,-1,1
1558442214856352,1,-1,-2,1,5,4,1,5
1558442214856352,1,1,5,1,-6,-3,-4,-1
1558442214865328,1,1,0,0,3,7,3,0
1558442214865328,1,0,2,0,9,4,2,7
1558442214879293,-2,-1,-1,-1,-9,-10,-6,-7
1558442214879293,0,0,0,-2,4,1,3,1
1558442214886273,-2,-3,-1,0,-1,-4,0,0
1558442214886273,1,-2,0,-3,-7,-2,3,1
1558442214903230,-3,-4,-5,-3,4,6,-1,-3
1558442214903230,1,1,8,0,1,1,0,1
1558442214904224,-4,-4,-12,-6,-7,-4,-4,-7
1558442214904224,0,1,3,4,4,3,6,0
1558442214916192,-1,1,0,-2,-3,-3,0,1
1558442214916192,1,1,0,0,-3,0,-1,-1
1558442214925170,-1,0,3,1,4,-2,0,0
1558442214925170,0,0,-1,-1,-1,0,-5,-9
1558442214939132,-1,-2,-3,-3,-8,-7,-4,3
1558442214939132,-4,0,-4,-2,-4,0,-2,0
1558442214946118,0,1,2,0,4,1,1,-1
1558442214946118,-3,-2,-2,-3,-7,-6,-1,0
1558442214963072,1,-1,2,0,0,1,-2,-3
1558442214963072,-1,-2,-1,0,-1,0,-2,-5
1558442214964063,-2,-3,-7,-3,-6,-1,-2,0
1558442214964063,-1,-2,2,-2,3,-1,-3,-1
1558442214976037,3,3,5,2,0,-1,4,2
1558442214976037,-2,-4,-15,-5,-1,-2,-1,-1
1558442214985009,2,0,1,-1,0,3,0,3
1558442214985009,-2,-3,-6,-2,-1,-5,-8,-10
1558442214999973,-2,-1,0,0,1,-2,-2,0
1558442214999973,-1,-2,1,-2,-4,-5,-3,-4
1558442215005957,-1,-2,1,1,-2,-1,-2,2
1558442215005957,-1,1,-1,-1,1,2,-1,-1
1558442215022908,-1,-1,0,-2,-5,-6,-3,-1
1558442215022908,-1,0,1,0,2,3,2,1
1558442215023905,-2,-2,-1,-3,-3,-3,-3,-4
1558442215023905,-1,-2,-4,-1,-4,-8,-6,-5
1558442215035871,1,-1,0,0,5,9,10,3
1558442215035871,2,1,0,1,-2,-5,-1,1
1558442215044847,1,2,2,-1,-1,3,3,2
1558442215044847,-2,0,3,-1,0,-1,-9,-6
1558442215059808,-1,-1,-9,-1,0,-5,-3,1
1558442215059808,-2,-4,-2,-2,-2,0,2,-2
1558442215066789,-1,0,2,0,-2,-7,-9,-3
1558442215066789,-2,-1,-3,-2,-5,0,2,6
1558442215082749,-1,-3,-2,-1,0,-7,-2,-4
1558442215082749,-3,0,-1,1,6,5,-3,-3
1558442215084743,-3,-2,0,1,2,1,0,-4
1558442215084743,1,0,0,-2,-4,2,3,4
1558442215096709,-2,-2,1,-3,-7,-4,-7,-2
1558442215096709,0,-2,-4,-2,2,-5,1,1
1558442215105684,0,2,4,0,3,2,-2,-2
1558442215105684,0,-1,-2,-2,-4,-1,0,4
1558442215119652,-4,-3,-4,-3,3,-2,2,-4
1558442215119652,2,1,3,-1,0,-1,5,2
1558442215126635,-3,-5,-11,-3,-1,-2,3,3
1558442215126635,-3,-1,4,5,2,1,-5,-7
1558442215142586,-1,-2,0,-2,-5,-5,-3,2
1558442215142586,-3,-2,-3,-4,-8,-9,-9,-4
1558442215144580,4,4,6,3,9,12,10,6
1558442215144580,2,2,-2,-4,1,1,3,-1
1558442215156549,0,1,1,0,1,2,-1,1
1558442215156549,-3,-2,-5,-1,-3,-7,-9,-9
1558442215165525,-3,-3,-3,-6,-12,-12,-7,-3
1558442215165525,-5,-3,-3,-1,-2,-5,0,-3
1558442215180484,-2,0,0,0,2,7,0,-3
1558442215180484,3,2,4,0,5,7,3,6
1558442215193455,-3,-1,-1,-3,-5,-6,-6,-5
1558442215193455,1,-1,0,-1,-2,2,4,2
1558442215202427,1,-1,3,-1,-3,-3,0,0
1558442215202427,-2,-1,3,0,-1,-1,0,3
1558442215204420,-1,-4,-4,-1,-1,-4,0,2
1558442215204420,3,0,1,-1,2,-1,-2,-4
1558442215216389,-3,0,-1,-2,-2,0,0,-2
1558442215216389,-1,0,-3,2,2,2,3,1
1558442215225365,-2,1,1,1,4,5,3,-1
1558442215225365,1,-1,0,1,-1,-1,-1,2
1558442215239327,-3,-2,-3,-5,-3,-3,-5,-3
1558442215239327,1,-1,-1,-2,-3,-3,2,6
1558442215246309,-2,-1,-1,-3,-11,-4,-6,-10
1558442215246309,-3,-3,-2,-3,2,-2,-1,-2
1558442215262266,0,-2,-2,3,10,11,4,-1
1558442215262266,-1,-1,0,1,4,2,3,4
1558442215269247,-1,-3,-3,-1,-3,-4,-1,0
1558442215269247,0,0,-1,-2,-3,-1,0,-1
1558442215276229,-2,-2,0,-2,-5,-3,-4,-2
1558442215276229,-4,-3,-3,-2,-3,0,-4,-3
1558442215285215,3,2,1,-1,-3,-3,4,5
1558442215285215,-3,-2,-10,-1,1,1,-3,-3
1558442215300164,-2,-1,-5,-1,6,2,3,-1
1558442215300164,1,1,1,1,0,4,3,-1
1558442215306147,0,-1,1,-2,-3,-3,-6,-1
1558442215306147,-3,-3,-1,0,-1,-1,0,-2
1558442215322116,1,1,2,-1,-6,-6,1,5
1558442215322116,-1,-3,-5,-2,-2,1,-4,-7
1558442215329089,-4,-1,1,0,4,2,-2,-5
1558442215329089,-2,-2,-2,-1,4,0,3,3
1558442215337068,-1,-3,-1,-1,-4,1,-4,-3
1558442215337068,1,-1,0,-2,-6,-5,-4,-1
1558442215353024,-1,-2,-4,-1,1,-1,2,2
1558442215353024,0,-3,-1,-2,-6,-2,-3,-3
1558442215360005,1,1,-1,-1,-1,-3,1,4
1558442215360005,-1,-3,-2,-1,-2,-5,-5,-8
