timestamp,emg1,emg2,emg3,emg4,emg5,emg6,emg7,emg8
1558442295431787,-2,-1,-1,-1,-3,-1,0,-2
1558442295431787,-2,-2,-1,0,-5,-7,-6,-1
1558442295431787,0,0,-2,-2,-1,4,2,1
1558442295431787,2,-1,0,0,-1,1,2,-3
1558442295432784,-1,-2,-1,0,-3,-2,-2,1
1558442295432784,0,1,1,-1,2,1,-3,-6
1558442295435775,-1,1,-2,0,1,-1,-2,-2
1558442295435775,-3,-1,-2,-1,1,4,1,0
1558442295442757,-2,-2,-3,0,-5,-3,-2,-1
1558442295442757,0,-2,-1,0,3,-3,1,1
1558442295450736,1,-1,1,0,-2,-2,-2,0
1558442295450736,-1,-2,-1,-1,0,3,-3,-2
1558442295457715,-3,-1,-5,-4,-4,-5,-3,-2
1558442295457715,-2,0,1,-2,-2,-4,1,2
1558442295474672,1,-2,-4,2,13,13,7,1
1558442295474672,-3,-4,-3,-4,-8,-2,-3,-4
1558442295478660,0,-2,1,0,-4,-8,-5,-3
1558442295478660,0,0,-2,-2,-8,-10,-5,-2
1558442295489643,-1,-2,1,0,0,2,-1,-4
1558442295489643,0,-1,0,1,6,10,5,3
1558442295502596,-3,0,0,-1,0,-3,0,-1
1558442295502596,-3,-2,-2,-1,-5,-2,-4,-3
1558442295518553,-3,-3,2,-1,-7,-8,-4,-4
1558442295518553,0,-2,-6,-1,-8,-6,-4,0
1558442295519551,0,1,1,-1,2,3,-4,-3
1558442295519551,1,2,0,1,4,5,6,8
1558442295564431,1,1,-1,1,0,-7,0,2
1558442295564431,2,0,2,3,7,4,2,0
1558442295565429,-3,-3,-3,-5,-4,-4,-4,-5
1558442295565429,-1,0,-1,0,-1,0,1,0
1558442295566426,-2,-3,-3,0,-6,2,-2,-2
1558442295566426,-3,-1,-3,-3,-2,-5,0,0
1558442295569418,-1,1,3,2,2,5,4,-3
1558442295569418,-2,-1,-2,-1,-2,-1,-6,-1
1558442295576400,-2,-1,-1,-3,-3,-5,0,1
1558442295576400,0,-2,-1,-2,-5,-1,-2,-1
1558442295583382,-1,-2,-2,1,2,2,-1,0
1558442295583382,-2,-1,-1,-2,-4,-8,-3,-3
1558442295592356,-1,-1,2,-1,4,6,3,1
1558442295592356,-4,-3,-5,-3,-3,-4,-4,-2
1558442295607316,0,-1,-1,-2,1,3,4,2
1558442295607316,1,1,1,-1,0,2,0,0
1558442295613301,-1,-2,-1,-1,-1,0,-3,-3
1558442295613301,0,0,-1,0,-1,6,5,0
1558442295621280,-2,1,0,-1,0,-8,-1,2
1558442295621280,-1,-2,-1,-1,0,1,2,-2
1558442295636240,-1,-2,-1,-3,-3,-6,-6,-2
1558442295636240,-2,-2,0,1,-4,-1,-7,-3
1558442295643231,-2,-2,-3,-1,-4,5,-2,-2
1558442295643231,0,0,-3,-3,2,-6,4,1
1558442295652197,-2,1,-1,0,1,-2,-1,-7
1558442295652197,-2,-2,0,-3,-1,-1,-2,1
1558442295667157,0,1,6,1,2,1,0,-3
1558442295667157,-2,-1,-6,-1,-1,5,1,3
1558442295674137,-1,1,0,0,3,5,3,0
1558442295674137,1,0,-2,-2,-4,-9,-3,-3
1558442295689106,-3,-2,-5,-3,-1,-2,-4,-2
1558442295689106,0,-1,2,0,-1,3,-4,-4
1558442295696080,1,-1,-2,0,4,2,2,2
1558442295696080,0,-1,-1,0,4,3,2,-1
1558442295704059,-1,-2,-3,-4,-11,-10,-6,-4
1558442295704059,-3,-3,0,-4,-8,-9,-5,-4
1558442295713034,-4,-2,-2,-1,-4,1,0,1
1558442295713034,-2,-1,1,1,6,0,1,-3
1558442295726996,3,1,0,3,8,2,2,3
1558442295726996,-2,-2,0,0,0,2,0,-1
1558442295733978,-3,-3,-1,-4,-9,-8,-7,-5
1558442295733978,0,-1,-1,-3,-5,-2,-2,0
1558442295748938,0,0,1,1,8,10,4,4
1558442295748938,1,0,-1,0,1,4,-1,-2
1558442295755920,2,3,1,1,1,-3,3,3
1558442295755920,-4,-3,-3,-1,0,-3,-5,-8
1558442295763897,-2,-3,-3,-2,-7,-8,-4,-4
1558442295763897,0,0,0,-2,4,0,2,3
1558442295772874,-2,0,2,0,1,3,2,1
1558442295772874,0,1,4,1,2,-2,-1,0
1558442295786836,-1,-3,-7,-4,-7,1,-2,2
1558442295786836,-2,-2,-1,-4,-10,-9,-10,-8
1558442295793817,-3,-4,-5,-1,0,-7,-2,-2
1558442295793817,-1,0,2,1,2,3,0,-1
1558442295809775,-3,-2,-1,-2,-3,-5,-6,-5
1558442295809775,1,-1,-1,0,-2,0,-1,0
1558442295815760,1,1,1,0,1,3,4,1
1558442295815760,-1,1,-1,2,6,8,4,1
1558442295823738,0,0,2,0,3,6,1,-2
1558442295823738,-2,-2,-5,0,-1,-2,2,0
1558442295832714,0,-2,-2,-3,-7,-8,-6,-3
1558442295832714,1,-2,-3,-2,-1,-5,1,1
1558442295846676,-1,-1,-1,1,0,4,0,-2
1558442295846676,1,-1,2,0,3,2,1,2
1558442295853657,1,1,-1,0,3,2,-1,4
1558442295853657,-1,-3,-3,-2,-1,2,0,-2
1558442295869616,-4,-1,0,-2,-5,-10,-8,-6
1558442295869616,2,1,1,-1,-1,-5,-2,0
1558442295876595,0,-3,-3,-1,-3,-1,-2,-3
1558442295876595,0,0,-1,-3,-12,-6,-6,-3
1558442295883577,1,0,-3,0,1,-3,-1,3
1558442295883577,-2,0,-1,0,5,8,2,1
1558442295892553,1,2,1,0,6,4,1,-1
1558442295892553,1,3,5,-1,3,5,3,3
1558442295906516,-4,-2,-6,-4,-6,-5,-1,-2
1558442295906516,-2,-3,-7,-3,-6,-4,-4,-3
1558442295913497,-1,-3,0,0,2,0,-1,-4
1558442295913497,-1,0,2,0,2,-2,-4,-2
1558442295929455,-1,-1,3,1,-2,-3,1,0
1558442295929455,-3,-2,-4,-1,0,1,-2,-3
1558442295936436,1,-2,0,0,-5,6,3,2
1558442295936436,-1,-1,-3,-2,-5,-11,-2,-1
1558442295943418,-1,-1,-1,-2,-2,-6,1,2
1558442295943418,0,0,2,-2,-2,-6,-5,-2
1558442295958378,-2,-2,-2,0,5,6,0,-2
1558442295958378,-3,-1,-3,-1,-5,1,-4,0
1558442295967353,0,0,-2,-3,-4,-5,-2,2
1558442295967353,-2,1,1,0,1,6,3,-4
1558442295973338,1,-2,0,-1,-1,3,-3,-7
1558442295973338,-4,-3,-2,1,-1,-7,-1,1
1558442295989294,-1,-2,-2,-1,-5,-11,-4,1
1558442295989294,-2,-1,4,1,2,1,4,1
1558442295996275,-2,0,-6,-2,2,5,2,2
1558442295996275,-1,-1,-4,1,3,2,2,1
1558442296003257,0,0,-1,0,-2,2,-1,-1
1558442296003257,-1,-1,0,0,1,1,1,2
1558442296018223,-2,0,1,-2,-11,-11,-7,-5
1558442296018223,1,-2,-3,-3,-8,-4,-3,0
1558442296027194,3,1,-1,-1,4,3,1,-1
1558442296027194,0,1,1,0,7,4,-1,0
1558442296041155,-2,-2,1,0,0,-3,-1,1
1558442296041155,-2,1,0,0,1,4,3,1
1558442296049149,-1,-1,2,-1,-1,0,-4,-3
1558442296049149,-1,-3,-4,-4,-8,-12,-7,-3
1558442296056116,0,-2,-1,-1,0,-3,-2,1
1558442296056116,1,1,4,2,1,3,1,1
1558442296064094,-1,-1,-6,1,4,9,0,-3
1558442296064094,-1,1,2,0,-3,-4,-4,-1
1558442296079060,-1,-1,-2,0,1,-2,0,-1
1558442296079060,0,-3,-2,-3,-9,-9,-7,-6
1558442296087033,2,1,4,0,5,8,9,5
1558442296087033,-3,-4,-4,-1,-4,-3,-7,-8
1558442296094015,-4,-3,-3,-2,-8,-12,-10,-6
1558442296094015,1,1,-2,0,7,11,3,-1
1558442296108974,0,0,4,0,-2,-7,-1,-2
1558442296108974,-1,-2,-5,-1,3,2,3,1
1558442296115959,0,-1,1,0,1,4,7,5
1558442296115959,-5,-3,-1,-3,0,-3,-3,-3
1558442296123933,-2,-2,-1,-4,-9,-8,-8,-5
1558442296123933,-2,-4,-3,-2,-4,-4,-3,-1
1558442296138894,-1,-1,-1,0,3,2,3,0
1558442296138894,-1,1,-2,-2,4,7,2,2
1558442296146874,-2,-2,3,0,0,4,2,-1
1558442296146874,0,-1,-1,-1,-1,-2,1,0
1558442296153855,-3,-3,-5,-3,-7,-7,-7,-6
1558442296153855,1,1,1,-1,1,0,2,3
1558442296169811,-1,-1,-2,-1,4,4,4,3
1558442296169811,1,1,3,-1,2,5,2,2
1558442296175796,0,0,-2,-3,-5,-6,-5,-2
1558442296175796,-3,-2,-2,-4,-7,-8,-5,-6
1558442296183775,-2,2,1,3,3,3,-2,-3
1558442296183775,-2,-2,0,-2,1,1,-1,2
1558442296198735,-3,-2,0,-2,-6,-3,1,-1
1558442296198735,0,0,2,1,-1,-6,-6,-7
1558442296206712,2,0,-3,2,7,1,0,0
1558442296206712,1,0,1,-1,0,8,4,2
1558442296213699,1,3,4,0,9,7,2,0
1558442296213699,-3,-2,-2,-4,-11,-10,-6,-3
1558442296229654,-3,-5,-4,-3,-6,-6,-4,-2
1558442296229654,-3,-3,-5,-1,-1,-3,-1,-2
1558442296236634,1,0,1,-1,0,0,-1,1
1558442296236634,-1,0,-1,0,2,0,2,4
1558442296243615,-1,0,1,-1,-2,3,-2,-1
1558442296243615,-1,0,-1,-2,-1,-5,-1,0
1558442296258577,0,-2,0,-1,1,-1,-4,-2
1558442296258577,0,-1,2,-1,2,5,0,0
1558442296266554,-2,1,-1,-2,-3,-3,-1,-1
1558442296266554,-1,1,3,1,5,2,1,0
1558442296275529,1,3,3,1,4,-3,2,1
1558442296275529,-2,-4,-5,-3,-2,-3,-6,-3
1558442296289492,-2,-5,-2,-3,-7,-5,-2,-3
1558442296289492,-3,-1,1,-2,-6,-1,-1,-3
1558442296296472,-2,-3,1,-1,-4,2,-5,-5
1558442296296472,2,0,-2,2,2,2,6,5
1558442296303454,-1,0,-7,-2,-4,-12,-7,-5
1558442296303454,0,1,1,1,4,3,5,1
1558442296318415,-1,-2,-3,0,-1,-3,-7,-4
1558442296318415,-2,-2,0,-3,-8,-4,-3,-4
1558442296326393,0,-1,0,0,2,6,5,6
1558442296326393,-1,-1,0,2,4,8,-1,-3
1558442296333375,0,-1,0,-1,0,4,-1,-1
1558442296333375,0,1,1,0,2,-6,-2,-2
1558442296350334,-1,-2,1,-2,-6,-5,-2,-4
1558442296350334,-4,-3,-3,-5,-9,-11,-6,-3
1558442296356319,2,1,-5,-3,-4,0,0,0
1558442296356319,-2,-2,-1,1,5,4,1,-1
1558442296363300,-1,0,2,-2,-2,-1,-3,-2
1558442296363300,0,1,-3,0,-2,-5,-2,3
1558442296378255,-2,-2,0,-1,0,-1,-3,-1
1558442296378255,-2,-2,-3,-2,-5,-2,0,0
1558442296387232,0,-2,-2,0,1,4,1,-1
1558442296387232,1,1,2,-3,-2,-2,-1,0
1558442296393214,-2,-3,-1,-2,-5,-10,-5,-6
1558442296393214,-1,0,-3,-1,2,4,3,3
1558442296409179,0,3,4,2,10,11,3,0
1558442296409179,1,-2,0,-1,-4,-10,-5,0
1558442296416156,-1,-3,-2,0,-5,-4,0,1
1558442296416156,-1,-3,-2,-3,-8,-4,-5,-4
1558442296424132,-2,-4,-3,-1,-4,-2,-1,-3
1558442296424132,-1,1,-2,0,3,4,1,-4
1558442296439092,1,0,3,0,6,3,1,7
1558442296439092,1,-1,1,-1,-2,4,1,-1
1558442296446078,-2,-3,-3,-4,-3,-2,-3,-3
1558442296446078,-1,-1,-1,-2,-5,-2,0,0
1558442296455051,-3,0,-2,-1,0,-1,-2,-7
1558442296455051,1,0,4,3,5,-5,4,3
1558442296469014,0,0,0,-1,-3,-5,-2,0
1558442296469014,-2,-2,-2,-2,-4,0,-3,-2
1558442296475998,0,2,-3,-1,0,3,3,0
1558442296475998,-3,-1,0,0,1,3,-2,-3
1558442296483978,-1,-1,-2,0,0,1,1,-2
1558442296483978,0,0,-2,-1,-3,-5,-1,1
1558442296498933,0,-1,0,0,-3,-2,1,3
1558442296498933,0,-2,-2,-2,-2,-8,-7,-6
1558442296505922,-1,-2,-2,-2,-1,4,1,-1
1558442296505922,-1,2,4,3,13,19,9,-1
1558442296514890,-1,0,0,2,3,0,6,2
1558442296514890,0,-1,1,-3,-4,-12,-9,-2
1558442296528903,2,1,-1,0,-2,-5,-3,-2
1558442296528903,1,-1,-1,0,2,-2,0,0
1558442296537832,-2,-3,-3,-2,-4,-2,-1,-3
1558442296537832,-2,-2,-1,-4,-7,-1,-1,-1
1558442296551796,-2,-4,-1,-2,0,-4,-5,-1
1558442296551796,0,0,2,-1,-4,-4,-3,1
1558442296558777,2,1,0,0,2,2,3,1
1558442296558777,-1,1,0,2,13,13,10,6
1558442296574730,-1,-1,2,0,1,-3,0,-6
1558442296574730,0,-3,-4,-2,-4,-4,-2,-5
1558442296576727,-5,-5,-4,-5,-11,-10,-8,-6
1558442296576727,1,-1,-1,-2,-5,-6,-2,1
1558442296589695,0,-1,-4,-2,2,3,2,4
1558442296589695,1,2,4,1,4,4,2,3
1558442296596671,-1,0,0,-1,-1,-1,-1,0
1558442296596671,-2,-1,1,-2,-8,-2,-7,-7
1558442296611630,-1,-1,-3,-1,0,0,-1,1
1558442296611630,-4,-2,-2,-1,-3,-6,1,-3
1558442296626783,-1,1,-1,1,5,4,0,0
1558442296626783,-2,-3,-2,-2,-2,-6,-3,-2
1558442296635748,1,2,3,1,-2,-6,0,1
1558442296635748,1,-2,-2,-2,-4,0,-4,-1
1558442296636565,-2,0,2,1,9,11,8,2
1558442296636565,-2,-1,-1,0,2,0,0,0
1558442296657713,-1,-4,-2,-3,-3,1,-1,0
1558442296657713,-2,-2,-4,0,-4,-11,-8,-4
1558442296659544,0,-3,0,-3,-1,-5,-4,-4
1558442296659544,-1,-1,-2,-1,-5,2,-3,0
1558442296671934,-4,0,-2,-1,-2,3,-2,-1
1558442296671934,-2,-2,-2,-3,-5,1,2,-3
1558442296678930,1,1,3,1,1,-5,-4,0
1558442296678930,1,1,-3,1,8,5,7,3
1558442296695668,-2,-1,0,0,-1,0,-2,-4
1558442296695668,-4,-4,-7,-3,-10,-9,0,3
1558442296696669,-4,-2,-3,1,-5,-2,-6,-8
1558442296696669,0,-3,-2,-2,-2,0,-3,-3
1558442296708736,2,0,2,-1,-2,-5,-1,2
1558442296708736,0,0,0,-1,-2,-6,-3,-3
1558442296717611,-3,-2,-3,-1,2,2,3,-1
1558442296717611,-4,-2,-1,0,-1,0,0,0
1558442296740552,-2,0,-3,-2,3,6,2,-1
1558442296740552,3,0,4,2,11,12,5,2
1558442296741546,1,0,-4,-3,-7,-3,-3,-3
1558442296741546,-1,1,1,0,-4,-12,-1,-1
1558442296755510,-2,-2,-3,-4,-5,-6,-5,-3
1558442296755510,-1,0,-2,-1,1,4,-2,-3
1558442296756509,-2,-3,-3,-2,-2,-1,-1,-1
1558442296756509,-2,-3,-1,-2,-4,-1,-1,-5
1558442296777675,-1,1,4,1,-3,0,3,3
1558442296777675,-1,-1,1,-2,6,9,2,3
1558442296779452,-3,0,-4,-1,2,-6,-6,-1
1558442296779452,1,-2,-4,0,-2,-3,-2,-2
1558442296792412,-2,-2,-2,-4,-1,-1,-4,-4
1558442296792412,-3,-4,-3,-3,-7,-4,-6,-8
1558442296798396,-1,-1,0,-2,-5,-1,3,4
1558442296798396,2,1,3,1,3,9,11,7
1558442296815350,-3,-2,-4,0,3,2,1,-7
1558442296815350,-1,-1,0,1,5,0,-1,-5
1558442296816350,2,-2,-1,-4,-4,-1,-4,-3
1558442296816350,0,-1,-2,-1,0,-8,-6,-2
1558442296829322,-1,-1,1,1,-2,-1,-1,1
1558442296829322,-1,-2,-1,-4,-7,-7,-5,1
1558442296837289,1,2,-1,2,2,6,1,-2
1558442296837289,-2,0,2,-1,7,9,0,3
1558442296852414,-2,0,-1,1,2,-3,0,0
1558442296852414,-3,-3,-6,-5,-9,-14,-6,-3
1558442296859334,0,0,0,0,-3,0,0,0
1558442296859334,-1,-2,-3,-1,-3,-5,-2,-2
1558442296875186,0,1,1,-1,-2,-4,-4,-3
1558442296875186,0,0,2,0,5,0,3,2
1558442296881377,-2,-2,-2,-2,-2,3,0,-2
1558442296881377,0,-3,-1,-3,-2,4,1,-2
1558442296889331,0,1,0,-1,3,-1,-1,-2
1558442296889331,1,0,-1,0,-3,-5,2,3
1558442296904302,0,0,0,-3,-1,-3,-2,1
1558442296904302,-1,0,-4,-2,-4,-3,-3,-1
1558442296912257,-1,-3,-3,-2,-6,-7,-3,-4
1558442296912257,0,0,1,0,4,7,1,1
1558442296919216,-1,1,0,0,4,1,-1,0
1558442296919216,-2,-1,-2,-1,-9,-3,-4,1
1558442296935145,-1,-2,-2,-1,2,2,2,-4
1558442296935145,-1,0,5,-1,2,-8,-5,-1
1558442296941226,1,0,-3,1,7,10,10,4
1558442296941226,0,0,0,0,-1,1,2,1
1558442296948993,0,-2,-1,-4,-7,-7,-5,2
1558442296948993,-5,-4,-8,-3,-9,-1,-2,-8
1558442296957967,0,0,2,-3,0,-1,-4,0
1558442296957967,-2,-1,0,1,4,5,1,-3
1558442296972148,-1,2,3,1,3,0,0,4
1558442296972148,0,3,-2,0,2,0,1,0
1558442296979141,-1,-2,-4,-4,-4,-4,-3,-2
1558442296979141,-2,-2,-6,-1,-3,-3,-5,-3
1558442296995163,-1,-4,2,-1,-3,0,-2,-2
1558442296995163,-1,-2,-3,0,6,8,2,2
1558442297000853,0,-2,0,-3,-9,-10,-1,-2
1558442297000853,0,0,1,0,-2,-5,-3,-3
1558442297008832,-1,0,-1,-1,-5,-6,-4,-4
1558442297008832,0,1,3,-1,-5,0,-2,-3
1558442297017808,-2,0,0,3,9,5,5,2
1558442297017808,-3,-1,2,-1,0,1,3,-1
1558442297031770,0,-3,-3,-1,2,-2,-1,-1
1558442297031770,-1,-2,-5,-3,-6,-6,-6,-3
1558442297038751,-3,-1,-2,0,-6,-9,-5,-4
1558442297038751,4,2,3,1,6,15,11,9
1558442297054714,-2,-2,-3,-1,-1,-1,-3,-7
1558442297054714,-1,0,1,0,-1,-8,-2,0
1558442297068670,-1,-3,-3,-1,-5,-7,-7,0
1558442297068670,-1,-1,-1,0,4,2,0,1
1558442297077644,0,1,0,0,3,11,6,3
1558442297077644,-1,-4,-1,-3,-5,-3,-4,-1
1558442297078644,1,1,3,2,6,9,4,-1
1558442297078644,-1,-3,-8,-2,-4,-8,-6,-4
1558442297091640,-2,-3,-5,-3,-6,-6,-6,0
1558442297091640,0,-1,0,-1,3,4,3,1
1558442297098591,-2,-1,3,2,-2,-5,-3,0
1558442297098591,-4,-2,-1,-1,-1,-5,-5,-5
1558442297114660,-1,1,0,0,2,4,3,0
1558442297114660,-1,0,1,0,-1,-5,-1,-1
1558442297121694,-2,-2,-2,-2,-2,5,2,3
1558442297121694,1,-1,-1,-2,-1,-2,-4,-3
1558442297137740,-3,-3,-3,-2,-7,-13,-7,-3
1558442297137740,0,0,0,1,6,9,4,2
1558442297139512,-2,-1,2,-2,2,3,4,0
1558442297139512,0,1,1,1,8,-3,-2,-1
1558442297152607,1,1,-3,2,-2,3,3,8
1558442297152607,-2,-3,-2,-1,-7,-3,-1,-4
1558442297158438,1,-1,-4,-3,-5,-2,-5,-4
1558442297158438,-3,-4,-4,-3,2,9,5,1
1558442297174611,-1,0,3,0,3,-4,-8,-8
1558442297174611,-1,2,-1,0,-1,-3,-1,-1
1558442297181445,-2,-2,1,-1,-6,-5,0,0
1558442297181445,-3,-2,3,-1,-2,-3,-3,-7
1558442297197572,-1,-1,-4,-3,-4,-3,-1,-1
1558442297197572,-1,0,1,0,3,6,3,2
1558442297199325,0,-2,-4,-3,-5,-4,-6,-4
1558442297199325,0,-2,-3,-2,-7,-13,-4,0
1558442297212590,-2,-2,-3,-1,5,7,4,2
1558442297212590,1,0,0,-2,-3,-2,-2,-2
1558442297218310,-2,2,-3,1,6,6,3,-1
1558442297218310,-1,-1,-1,-1,-2,-8,-5,-1
1558442297234228,0,0,-1,-2,-9,-12,-2,1
1558442297234228,-4,-4,-2,-1,0,4,1,-1
1558442297241210,0,-2,-1,-2,0,1,-6,-3
1558442297241210,0,0,-1,1,-2,4,5,1
1558442297257206,-2,-2,0,1,1,1,-1,-1
1558442297257206,-1,-1,0,0,1,-1,0,1
1558442297259160,0,-1,-2,0,4,1,-2,-1
1558442297259160,1,0,-3,0,-6,-2,-5,-4
1558442297272378,-1,-3,-1,-1,-1,5,5,-1
1558442297272378,-1,-3,-3,-1,-1,-9,-1,-1
1558442297279340,-2,-2,0,-2,-3,-14,-3,1
1558442297279340,-1,-2,1,-2,0,5,0,-1
1558442297294326,-1,0,-1,-2,-2,5,0,-3
1558442297294326,-1,-2,0,-3,-15,-16,-12,-7
1558442297301082,-2,-1,-2,-1,2,6,5,0
1558442297301082,0,1,2,1,7,5,3,4
1558442297318123,0,0,2,0,4,2,4,2
1558442297318123,1,0,-2,-3,4,10,1,0
1558442297319002,-2,-3,-1,-3,-11,-9,-7,-5
1558442297319002,-1,-1,-3,-2,-8,-9,-3,0
1558442297331968,-1,-2,2,2,3,-1,-3,-1
1558442297331968,-1,1,0,-1,1,-1,0,-1
1558442297338980,-2,0,0,-1,-1,0,1,0
1558442297338980,-3,-4,-5,-3,-3,1,-2,-7
1558442297354907,-2,-1,-2,-1,-3,-1,-2,0
1558442297354907,1,-2,-5,-1,2,2,2,3
1558442297360922,-1,-1,0,0,0,-2,-2,-3
1558442297360922,0,0,3,0,-1,-4,-2,0
1558442297377841,-2,-3,-1,-5,-7,-8,-7,-2
1558442297377841,-4,-3,-3,-1,-3,-2,-3,-4
1558442297378839,0,-1,-1,-1,-2,-1,0,-1
1558442297378839,-2,-1,-2,0,0,0,-1,0
1558442297391805,2,1,5,2,7,9,7,2
1558442297391805,-2,-2,-1,-1,0,1,2,3
1558442297398788,-2,-2,-2,-2,-3,-10,-4,-4
1558442297398788,2,-2,-1,0,-3,-4,-1,-2
1558442297415083,1,1,-1,-2,2,0,-6,-4
1558442297415083,-1,-2,-2,-1,-3,-7,2,2
1558442297421167,1,-1,-1,1,1,6,1,-2
1558442297421167,-1,-1,2,-3,-1,0,2,1
1558442297437740,-2,-2,-5,-3,0,1,-3,0
1558442297437740,-2,0,-1,-1,-8,-12,-5,-3
1558442297438681,-1,0,0,-1,1,3,-1,0
1558442297438681,0,0,1,2,2,3,1,-2
1558442297459622,-1,1,0,-1,-2,-1,1,2
1558442297459622,-1,2,0,-1,0,2,-1,-3
1558442297461618,-4,-6,-4,-4,-4,-7,2,1
1558442297461618,0,1,3,2,4,-3,-4,0
1558442297474584,-2,-1,-2,0,-1,0,1,-1
1558442297474584,1,-2,1,0,1,10,2,-1
1558442297481564,0,0,2,0,2,-1,-4,0
1558442297481564,0,-1,-2,-2,-4,-11,-2,-2
1558442297497870,-1,-1,-1,-3,-3,0,3,2
1558442297497870,1,-1,0,-1,-3,-3,-7,-2
1558442297498518,0,1,-2,-1,0,7,4,0
1558442297498518,-5,-5,-8,-4,-5,0,-4,-1
1558442297512563,1,1,0,-1,-3,-8,-2,-4
1558442297512563,-2,-1,-3,-3,-3,0,-1,-1
1558442297518708,0,2,0,-1,-4,-7,-5,0
1558442297518708,-1,2,0,0,5,5,0,0
1558442297534643,-2,-2,-2,-1,3,3,-2,2
1558442297534643,-1,-3,0,2,2,0,-2,-1
1558442297541726,-3,-3,-3,-3,-1,-2,-2,-2
1558442297541726,-1,1,1,-1,-5,1,-2,-3
1558442297557621,0,-3,-1,-1,-4,-4,1,1
1558442297557621,-1,0,-2,-1,3,1,-3,-2
1558442297559359,0,0,-2,-2,-3,-5,0,-3
1558442297559359,2,0,0,0,3,3,1,1
1558442297571594,-3,-3,1,0,3,-5,-3,-5
1558442297571594,-1,-3,-2,-4,-6,-5,-3,0
1558442297580305,1,0,-2,0,-1,4,2,0
1558442297580305,-1,-3,-3,-2,-7,-6,-2,-2
1558442297594510,-1,-3,-1,-1,0,-4,-1,-2
1558442297594510,-3,0,-4,0,4,7,0,-4
1558442297601247,-1,0,2,2,3,4,-1,-2
1558442297601247,-1,-1,-1,-4,-6,-6,-2,-2
1558442297617414,0,0,-1,-1,-6,-5,-3,0
1558442297617414,0,-1,-1,0,2,1,2,1
1558442297619202,-2,-2,-1,0,2,6,2,3
1558442297619202,-2,-1,-1,-1,2,2,-2,-1
1558442297631302,0,-3,-8,-2,-6,-4,-5,-2
1558442297631302,0,2,2,0,2,3,8,6
1558442297640141,-1,-2,-3,-4,-8,-8,-6,-13
1558442297640141,-1,-1,-1,-2,1,0,0,3
1558442297654142,-1,-2,4,0,3,3,2,0
1558442297654142,0,0,-1,0,2,2,1,0
1558442297661120,-3,0,-1,-3,-7,-12,-7,-1
1558442297661120,-1,0,-1,-2,-3,-7,-4,-1
1558442297678385,-4,-1,-1,-2,-2,2,-2,-4
1558442297678385,0,-2,1,1,5,11,1,0
1558442297679038,-2,-2,0,2,3,-1,4,4
1558442297679038,0,1,0,0,-1,6,6,-3
1558442297691438,-2,0,2,0,-2,-3,-3,-4
1558442297691438,0,-2,-3,0,1,-7,-1,0
1558442297699982,-2,-3,-3,-4,-7,-7,-6,-1
1558442297699982,0,-2,-3,-1,1,-8,-7,2
1558442297714357,-1,-1,0,-1,1,1,2,0
1558442297714357,-2,-3,-1,-3,-6,-1,-2,-4
1558442297721301,3,1,2,2,4,1,1,2
1558442297721301,-1,-2,-5,-4,-5,3,-1,-4
1558442297737943,0,2,1,0,1,2,-3,-1
1558442297737943,-4,-1,2,-1,-2,-9,-4,-1
1558442297738926,0,0,0,2,-1,1,2,-1
1558442297738926,-3,-3,-3,-3,1,-2,0,-1
1558442297751915,2,-2,-2,-1,-1,1,-2,-1
1558442297751915,-2,-1,-2,-1,-3,2,-2,-3
1558442297759821,0,-1,-1,-1,-2,-5,-2,2
1558442297759821,0,-1,2,1,0,0,0,-5
1558442297775002,-1,0,-2,0,1,4,3,0
1558442297775002,-3,-3,-3,-2,-13,-20,-10,-8
1558442297781763,-1,0,0,2,4,6,5,2
1558442297781763,1,1,1,1,4,-1,-2,2
1558442297796953,-3,-2,-2,-4,-5,-5,-5,-2
1558442297796953,1,-1,0,-1,-1,3,1,0
1558442297803922,0,-3,-3,-2,-3,-1,-2,0
1558442297803922,-3,-2,-3,1,-1,9,4,0
1558442297811909,1,-4,-1,-2,4,2,4,2
1558442297811909,0,1,-1,-1,4,3,1,3
1558442297819874,-2,-2,-5,-3,-5,-10,-6,-4
1558442297819874,0,0,2,0,2,-4,-2,-3
1558442297834859,0,1,-1,-1,-3,-1,0,1
1558442297834859,-2,-2,-2,-1,-1,1,0,-1
1558442297841830,-1,-3,-1,-2,-4,-4,-5,-1
1558442297841830,-3,-3,-3,-2,-6,-1,-2,-4
1558442297857600,-2,0,-1,1,-1,-1,0,-2
1558442297857600,0,-1,0,-2,-5,-4,0,0
1558442297863545,0,0,0,0,2,1,-1,0
1558442297863545,-1,-3,-2,-1,1,-2,-4,-1
1558442297871525,-1,-1,0,0,-4,-7,-3,-1
1558442297871525,0,2,-3,0,3,1,4,1
1558442297879790,-3,-4,-1,-2,-10,-3,-4,-4
1558442297879790,-1,-5,-8,-3,-1,-3,2,2
1558442297894462,1,-1,-1,3,10,14,2,1
1558442297894462,1,1,3,3,3,-2,3,1
1558442297901471,1,0,0,0,4,0,1,3
1558442297901471,1,0,0,-2,-4,-1,-2,0
1558442297917546,-5,-3,-4,-3,-7,-6,-8,-4
1558442297917546,-3,-3,-3,-2,-9,-2,-5,-3
1558442297923705,0,2,-2,2,12,10,7,-2
1558442297923705,2,0,2,2,1,0,2,4
1558442297931397,-1,0,1,0,1,-1,1,-1
1558442297931397,-1,-2,-3,-1,0,-1,-2,-4
1558442297940339,-3,-3,-2,-2,-5,-1,-1,-3
1558442297940339,-1,-2,-3,-4,-10,-8,-2,-2
1558442297954378,0,0,0,0,0,-3,0,0
1558442297954378,0,-1,1,-2,1,0,2,0
1558442297961611,0,-1,-2,0,3,3,0,1
1558442297961611,-1,0,1,-2,4,7,2,-1
1558442297977530,0,-1,-3,-2,-1,-4,-1,0
1558442297977530,0,2,2,0,0,1,0,0
1558442297984335,-4,-4,-6,-2,-6,-4,-3,-3
1558442297984335,-4,-2,-3,-3,-7,-10,-2,-1
1558442298000381,-1,2,0,-1,-1,-6,-4,-4
1558442298000381,-1,-2,3,-1,-1,-2,-2,-2
1558442298001177,1,1,0,-2,2,8,0,0
1558442298001177,-1,0,1,2,-1,0,-1,0
1558442298014381,-1,0,0,1,3,6,7,1
1558442298014381,1,-3,-3,-1,0,-3,-2,-1
1558442298021347,-1,-1,1,-3,-4,-5,1,3
1558442298021347,-2,-2,-1,-1,-8,-9,-7,-4
1558442298037304,0,-1,0,0,1,5,3,1
1558442298037304,1,-2,0,-1,1,1,-7,-4
1558442298044276,0,1,0,0,3,3,4,2
1558442298044276,0,1,2,1,7,10,3,-1
1558442298060235,-1,0,-1,-2,-6,-6,0,-1
1558442298060235,-4,-3,-8,-2,-4,-3,-1,-4
1558442298061018,-2,0,-1,-2,-7,-9,-7,-2
1558442298061018,-1,0,-1,-1,0,-4,-3,-4
1558442298074009,-1,-2,-3,-1,-3,4,-1,1
1558442298074009,1,-1,2,0,8,8,4,2
1558442298081307,2,0,1,3,0,-9,-1,2
1558442298081307,0,1,0,-1,2,5,1,1
1558442298097288,0,-3,-2,0,3,5,1,-2
1558442298097288,-1,0,1,0,-2,-1,1,5
1558442298104289,0,-2,1,-1,-4,-3,-2,-3
1558442298104289,-3,-3,-5,-5,-2,1,-1,0
1558442298120895,-3,0,-3,-2,-5,-5,-5,-5
1558442298120895,1,0,-1,-2,-7,-5,-1,0
1558442298122046,-2,0,3,0,3,-4,-5,-3
1558442298122046,0,2,2,1,-4,-1,0,0
1558442298135213,-4,-5,-8,-5,-2,-5,-2,-2
1558442298135213,-3,-1,1,-2,-2,-3,-2,-1
1558442298142081,1,-1,-3,2,9,11,5,0
1558442298142081,0,-2,2,0,2,1,1,0
1558442298157118,0,-1,3,1,-4,-5,-2,2
1558442298157118,-2,-2,-5,-3,-7,-10,-6,-8
1558442298164047,-2,-3,-3,-3,-3,-4,-3,-3
1558442298164047,-2,-1,-3,-1,-5,-3,2,-2
1558442298180772,0,1,3,-2,-2,0,-1,-2
1558442298180772,-1,-1,-2,-1,3,7,1,-1
1558442298181694,-1,-1,1,0,0,7,3,2
1558442298181694,2,-1,0,0,2,0,-3,-2
1558442298194937,0,-2,-1,-2,-7,-7,-5,-1
1558442298194937,-1,0,-3,-3,-5,1,-2,-3
1558442298201909,-1,-2,-2,-2,-3,-11,-2,0
1558442298201909,-1,0,1,1,0,-1,2,2
1558442298217597,3,3,3,0,2,3,1,-1
1558442298217597,-1,0,7,3,5,4,1,1
1558442298223767,-4,-5,-10,-4,-3,-2,-3,-5
1558442298223767,-4,-3,-5,-4,-3,-8,-8,-3
1558442298240571,-2,-2,-2,-2,-3,-5,-3,-1
1558442298240571,0,-3,-2,0,0,8,5,1
1558442298241537,1,2,-1,-2,-6,-3,-7,2
1558442298241537,-1,-3,0,0,-1,0,1,1
1558442298254724,-1,-1,1,3,7,13,10,0
1558442298254724,0,1,1,0,5,2,1,1
1558442298261700,-2,0,2,-2,2,1,-2,-1
1558442298261700,0,-1,-2,0,-3,-2,-5,-3
1558442298277569,0,-4,-3,-2,-8,-15,-7,-3
1558442298277569,-1,-1,-1,0,-3,-3,-1,0
1558442298291433,-1,0,0,0,4,7,3,-2
1558442298291433,-4,-4,-3,-2,0,-3,-2,-4
1558442298300375,0,0,-1,-2,1,-3,-3,1
1558442298300375,-2,0,0,-2,-2,-12,-6,-3
1558442298301373,0,1,-2,-1,-4,3,1,-2
1558442298301373,0,3,-2,-1,1,5,1,-1
1558442298315337,-2,-2,-4,-1,0,0,-1,2
1558442298315337,-3,-2,-4,-3,-5,-2,-2,-1
1558442298321658,-1,-2,-1,-1,-2,-5,-2,-5
1558442298321658,-1,-1,0,-1,2,2,2,-1
1558442298336608,-1,1,1,0,2,-3,-1,0
1558442298336608,-3,-2,-1,-2,0,-2,-4,-2
1558442298344374,2,-1,3,1,1,6,6,4
1558442298344374,-1,-1,-3,0,2,6,0,-3
1558442298359549,-5,-3,-3,-2,-3,-2,-6,-5
1558442298359549,1,-1,-4,-3,-6,-5,-4,-2
1558442298360216,-1,-1,-1,1,-2,1,0,-1
1558442298360216,3,2,2,3,4,-1,3,3
1558442298382157,0,-1,2,-1,6,8,6,4
1558442298382157,-2,-1,-1,-2,0,-3,-4,-2
1558442298382157,-2,-2,1,-1,-2,-3,-5,-4
1558442298382157,2,-1,0,-1,-3,-2,-2,1
1558442298397425,0,-1,-1,0,-5,-5,-4,-6
1558442298397425,-1,-2,-3,-1,-4,1,3,-2
1558442298404097,-1,-1,-3,-1,0,3,2,0
1558442298404097,-3,-1,1,-1,-1,-5,-1,-4
1558442298419085,0,0,-1,-2,-4,-7,-5,0
1558442298419085,-1,-2,-4,-1,4,6,1,2
1558442298420055,-2,-1,-1,1,-1,4,1,-4
1558442298420055,-2,1,1,0,-2,-10,-4,2
1558442298435013,0,-1,-3,0,5,6,4,1
1558442298435013,0,1,3,-1,0,1,1,0
1558442298440997,0,-1,-4,-3,-7,-9,-5,-1
1558442298440997,-3,-2,0,-4,-5,-2,-1,-2
1558442298457953,-3,-1,-1,-2,-7,-6,-3,-6
1558442298457953,0,-1,-1,-1,0,-2,0,0
1558442298471915,1,0,1,-1,5,5,1,0
1558442298471915,0,-2,-1,-1,-3,-2,-3,-1
1558442298480334,1,-2,-1,-1,1,-1,1,4
1558442298480334,0,-4,-1,-1,2,4,1,1
1558442298480334,0,-1,-1,0,-1,-1,-1,-2
1558442298480334,-1,-3,-3,-3,-2,-5,-4,-2
1558442298495359,-2,-1,-1,-2,1,-4,0,-2
1558442298495359,-1,0,3,2,1,-1,1,-1
1558442298501886,-1,-1,-1,-1,-1,-1,-1,1
1558442298501886,0,-1,1,-4,0,4,-2,-3
1558442298517837,-4,-4,-6,-3,-2,-4,-3,-6
1558442298517837,-2,1,-2,-2,-1,-3,-1,0
1558442298524150,-2,0,1,-3,0,-2,-3,-2
1558442298524150,-2,-2,2,0,-5,0,-3,-1
1558442298540019,1,2,2,-1,0,5,2,2
1558442298540019,0,-4,-7,-4,-7,-8,-4,-6
1558442298540019,-3,0,-2,-2,-3,-5,-3,-3
1558442298540019,-3,-2,-2,0,1,2,4,-1
1558442298554886,0,0,4,2,5,6,5,2
1558442298554886,-1,-1,-1,-2,-5,-6,-5,1
1558442298561811,-2,-1,-4,-2,-4,-2,-5,-10
1558442298561811,1,0,-2,0,-1,-4,2,2
1558442298577636,1,0,1,2,3,5,3,-2
1558442298577636,0,0,2,1,2,2,0,-1
1558442298583874,-2,-1,1,-1,-3,-5,-3,1
1558442298583874,-2,-1,-3,-2,0,5,1,0
1558442298599574,-2,-2,-1,-3,-8,-10,-3,-2
1558442298599574,-2,-1,1,-3,-7,-7,-7,-3
1558442298599574,0,-2,-2,0,2,-4,-3,-2
1558442298599574,3,5,5,5,16,14,12,7
1558442298614581,-1,-2,-8,-2,-4,-1,-2,-2
1558442298614581,-1,0,-1,-1,1,5,-1,-5
1558442298621567,-1,-2,-3,-3,-7,-15,0,0
1558442298621567,0,-2,-1,-2,-6,-8,-7,-4
1558442298637607,-2,0,0,-2,-5,-3,-5,-3
1558442298637607,-2,-1,-2,0,-1,-4,0,-1
1558442298643730,-1,2,1,2,7,17,12,4
1558442298643730,-2,-3,-2,1,3,2,-5,-6
1558442298659688,0,-2,-1,0,-4,-5,-4,0
1558442298659688,-1,0,2,0,2,3,4,1
1558442298660618,1,2,2,0,-1,-2,-2,2
1558442298660618,-2,-1,-1,-3,-6,-11,-3,0
1558442298681360,-1,-1,1,0,-1,7,0,-2
1558442298681360,-1,-1,-1,0,1,2,0,-1
1558442298682353,0,-2,-2,-1,-3,2,-1,0
1558442298682353,-2,-1,-3,-2,-4,-3,-1,-3
1558442298705677,1,-1,1,1,11,3,4,2
1558442298705677,-2,-2,-1,-1,-2,1,2,-2
1558442298707319,-3,1,3,-2,-5,-4,-5,-1
1558442298707319,-2,-2,-4,-3,-5,-4,-3,2
1558442298719635,0,0,1,-1,-2,-3,0,0
1558442298719635,0,1,-5,0,-3,-2,1,2
1558442298720252,-2,-2,0,-1,4,5,0,2
1558442298720252,-2,-2,1,-1,-3,-2,-4,-4
1558442298742570,-1,-3,-1,-1,3,10,1,-2
1558442298742570,-1,1,2,-4,-2,-3,-1,-4
1558442298742570,-1,0,-2,-3,-7,-16,-4,0
1558442298742570,1,0,1,0,6,6,0,1
1558442298757515,-1,1,-1,1,2,2,-2,1
1558442298757515,1,-2,0,0,-2,-1,-2,-2
1558442298764493,0,0,-1,1,5,5,1,0
1558442298764493,0,0,-1,-1,1,0,2,-1
1558442298779382,-3,-3,-3,-5,-10,-6,-3,-1
1558442298779382,-4,-3,-2,-4,-8,-6,-2,-2
1558442298786403,0,-4,-2,1,-1,-4,-9,-5
1558442298786403,0,2,1,1,6,1,3,1
1558442298802034,-1,0,0,0,4,1,-3,-1
1558442298802034,0,0,-1,-1,2,4,4,2
1558442298802034,-1,-3,-2,0,-5,-2,-1,-3
1558442298802034,0,-2,-4,-3,-4,-2,0,1
1558442298818002,-4,0,-1,-2,-8,-10,-7,-6
1558442298818002,-1,-2,-1,0,0,1,-1,0
1558442298824257,1,2,2,0,5,6,2,0
1558442298824257,0,-1,-1,-2,-8,-8,-5,-4
1558442298839239,-2,-2,-4,-4,-3,-9,-2,-2
1558442298839239,1,-1,1,0,0,3,0,2
1558442298846913,-1,0,-2,-2,-2,0,-1,-1
1558442298846913,0,0,2,-2,2,7,2,0
1558442298862123,1,-1,2,-1,-1,-2,0,1
1558442298862123,-1,-1,-4,1,3,2,-2,-3
1558442298862872,0,-4,-1,-2,-8,-7,-4,-1
1558442298862872,-2,-2,-4,0,-1,2,3,2
1558442298885811,-1,-2,-4,-2,-2,-2,-2,-2
1558442298885811,-2,1,-2,-1,0,-1,-1,-3
1558442298886839,1,1,2,0,5,1,3,1
1558442298886839,-1,0,2,1,4,7,6,3
1558442298898778,-1,-1,-3,-2,-9,-6,-5,-5
1558442298898778,0,-1,1,0,-2,-5,0,1
1558442298905798,-1,0,-3,-2,1,2,-1,-3
1558442298905798,-3,-2,-3,-3,-8,-4,-7,-7
1558442298921711,-1,0,0,-1,1,0,2,2
1558442298921711,-3,-2,-1,-1,1,-6,-4,0
1558442298922709,-2,-2,-1,-1,1,1,1,-1
1558442298922709,-1,-2,-1,1,-1,-2,-1,0
1558442298937671,-1,-2,-2,-3,1,6,0,1
1558442298937671,-2,0,-1,-3,-4,-5,-7,-10
1558442298944096,0,0,3,0,6,4,3,2
1558442298944096,-3,-1,-3,-1,1,-2,-2,0
1558442298959051,-1,-2,-2,-2,-5,-4,1,-3
1558442298959051,1,-1,-1,-3,-7,-8,-3,-1
1558442298966931,-2,-1,-6,-2,-2,-4,-1,-2
1558442298966931,0,-1,2,0,0,2,-2,-6
1558442298981553,-2,1,-7,0,3,2,0,2
1558442298981553,-1,-1,-3,-2,-2,-2,-7,1
1558442298982551,0,-2,1,-1,-3,2,-1,0
1558442298982551,-1,-3,2,-3,2,1,3,0
1558442298997704,2,1,5,3,3,-2,0,3
1558442298997704,-1,0,0,-1,3,2,-3,-4
1558442299003852,1,0,-1,0,-1,-4,2,2
1558442299003852,-1,-2,-2,-1,-10,-10,-5,-5
1558442299018722,0,-2,1,-2,-3,1,-1,-2
1558442299018722,0,0,-2,-3,-1,2,3,3
1558442299026690,-1,-2,-1,-2,-3,0,-2,-4
1558442299026690,0,0,1,1,3,3,-2,-1
1558442299042491,-3,-1,-3,-3,-4,-5,-5,-2
1558442299042491,-1,-1,-2,1,0,0,1,2
1558442299042491,-1,-2,-2,-1,1,2,1,-2
1558442299042491,1,-1,-2,1,4,4,0,2
1558442299057570,1,1,2,0,2,0,-1,-1
1558442299057570,-1,-3,-4,-2,-5,0,0,-1
1558442299064332,-1,-1,-1,-2,-6,-4,-1,2
1558442299064332,-1,-1,-4,0,-2,-7,-6,-6
1558442299079365,1,-1,2,-1,3,3,5,0
1558442299079365,0,0,1,1,2,-3,-1,-2
1558442299086275,-2,0,-2,0,0,4,2,0
1558442299086275,2,1,1,-2,3,0,3,5
1558442299101231,0,-2,0,1,1,0,2,-1
1558442299101231,-2,-4,0,-3,-3,2,1,-6
1558442299102229,-3,-3,-4,-3,-5,-1,-6,-3
1558442299102229,-4,-2,-3,-2,-4,0,-2,-2
1558442299117192,0,-1,1,1,-2,-6,0,0
1558442299117192,-1,-2,-1,0,-2,2,0,1
1558442299124633,0,0,0,1,0,-4,-1,0
1558442299124633,-3,-1,-3,-3,-4,-7,-6,-4
1558442299139605,-2,-2,-1,-2,-6,0,-2,-1
1558442299139605,0,-1,1,0,2,1,1,1
1558442299146605,0,-2,-2,-1,0,3,1,-1
1558442299146605,-1,-1,-3,-1,-3,-2,-1,-2
1558442299162573,-2,0,-1,1,6,6,2,2
1558442299162573,1,0,7,1,4,6,2,4
1558442299162573,-1,-2,-6,-4,-6,-9,-7,-9
1558442299162573,-1,-2,-2,-2,-2,-3,-1,1
1558442299177530,-1,-1,-3,-1,-2,-3,-2,0
1558442299177530,-3,-1,-3,0,1,-1,2,-2
1558442299184304,-2,-1,2,0,1,0,3,5
1558442299184304,-1,-1,0,-1,-6,-3,-2,-2
1558442299198972,-2,-2,-2,-2,-5,-8,-14,-7
1558442299198972,-1,0,0,-1,0,4,5,-1
1558442299206214,-1,1,1,-2,-3,-3,-3,1
1558442299206214,-1,-2,-2,-2,0,-6,0,1
1558442299222170,-1,0,-1,0,1,4,0,-3
1558442299222170,2,1,-1,0,0,-6,-3,2
1558442299222907,-2,-2,-2,-1,2,3,-1,-2
1558442299222907,-1,-2,0,-2,-4,4,0,-1
1558442299237900,-1,-1,-2,-4,-3,-6,-1,0
1558442299237900,-4,-3,-5,-4,-10,-12,-10,-6
1558442299244106,1,-2,-2,0,-4,-2,-4,0
1558442299244106,0,3,1,1,9,8,5,4
1558442299258853,1,0,1,1,8,7,2,0
1558442299258853,-2,-1,1,0,-3,-1,-8,-3
1558442299266805,-1,0,-1,-3,-5,-7,-1,0
1558442299266805,-2,-6,-2,-2,-4,-2,1,1
1558442299281754,-3,0,1,0,-1,0,-3,-11
1558442299281754,-1,0,-2,-1,-4,-3,-1,0
1558442299282749,-1,-1,-4,-1,4,7,2,1
1558442299282749,0,0,0,-1,-3,-2,-5,-5
1558442299297706,-1,-4,-3,-4,3,0,5,5
1558442299297706,1,2,3,1,5,1,-1,1
1558442299303954,-1,0,1,0,0,0,-1,-5
1558442299303954,-3,-3,0,-2,-3,1,0,0
1558442299319679,2,-2,-2,0,-2,-4,-2,-2
1558442299319679,-1,-2,-3,-4,-2,-11,-4,3
1558442299326807,1,0,-2,-1,-4,-8,-4,-3
1558442299326807,-3,-2,-2,-3,-6,0,0,-4
1558442299341879,1,1,2,0,-3,3,4,6
1558442299341879,1,1,0,1,8,9,6,0
1558442299342591,-1,0,-1,0,3,5,0,0
1558442299342591,-1,0,-1,0,0,-1,-4,0
1558442299357625,-2,1,0,-1,-5,-3,-5,-5
1558442299357625,-3,-4,-10,-4,-7,-11,-6,-3
1558442299363827,0,1,1,0,8,5,7,4
1558442299363827,0,1,-1,0,3,-2,2,0
1558442299387467,-1,-1,0,-2,-2,1,-2,-1
1558442299387467,-3,-2,-2,-1,-4,-1,-4,-3
1558442299387467,-1,-2,0,-2,-6,-2,-7,-2
1558442299387467,-1,-3,-3,-1,2,-3,2,1
1558442299403429,1,-1,-1,1,-1,-6,-3,0
1558442299403429,-2,-2,1,-2,-4,-5,-1,-2
1558442299403429,-3,-2,-2,-3,-5,0,1,-2
1558442299403429,-2,-1,-1,-1,-3,-4,0,-3
1558442299417577,-4,-3,-3,-1,-2,-2,-2,0
1558442299417577,1,1,1,4,10,13,6,-3
1558442299424400,1,-2,0,-1,-1,1,-4,0
1558442299424400,-1,0,-1,-1,1,1,-4,-2
1558442299439350,-4,-2,-5,-4,-9,-15,-5,-2
1558442299439350,-4,-1,3,-3,-5,-3,-4,-4
1558442299446603,-1,-1,2,-1,4,-1,-1,0
1558442299446603,0,-1,1,0,-7,-7,-2,-2
1558442299462555,0,0,5,0,6,4,3,1
1558442299462555,2,-2,-5,1,7,4,4,4
1558442299462555,-2,1,-1,-1,-1,-3,-1,-2
1558442299462555,-1,-3,-5,-3,-2,2,-3,-1
1558442299477226,-3,1,-1,-2,-7,-2,-3,-4
1558442299477226,0,0,1,-1,-3,-1,3,2
1558442299483210,-2,0,-2,-2,-8,-8,-5,-3
1558442299483210,-2,0,1,-1,-2,-4,-3,-1
1558442299498172,3,-1,-2,1,5,10,4,4
1558442299498172,-1,0,1,-1,2,8,-1,-3
1558442299506148,1,0,2,0,4,0,3,2
1558442299506148,2,-3,-1,-2,-7,-10,-3,0
1558442299522106,-1,-1,0,0,-2,1,1,-2
1558442299522106,1,1,0,0,6,10,5,2
1558442299522106,-1,1,-1,1,0,-4,-5,-3
1558442299522106,-3,-1,-2,-1,1,2,-2,-3
1558442299537463,-4,-3,-4,-3,-11,-11,-8,-6
1558442299537463,2,-2,4,-3,-8,-8,-2,-1
1558442299544391,0,-4,-7,-1,-3,5,3,4
1558442299544391,1,1,-1,0,6,6,2,6
1558442299559356,-2,0,-2,-3,0,-4,-2,-5
1558442299559356,-1,0,-1,-1,-5,-4,-3,-4
1558442299565990,0,-2,2,0,8,4,3,-1
1558442299565990,3,1,4,1,3,6,3,3
1558442299581946,-1,-4,-3,-3,-4,-3,-2,2
1558442299581946,-4,-2,-2,-2,-8,-10,-8,-5
1558442299581946,-2,-4,0,-2,-4,-4,1,-3
1558442299581946,-1,2,0,-1,3,3,1,-2
1558442299597523,2,1,1,1,5,8,7,3
1558442299597523,-3,-2,-5,-1,-3,-7,-2,0
1558442299603606,-2,-3,-2,-4,-3,-1,-2,0
1558442299603606,-5,-3,-3,-1,-2,-3,-5,-6
1558442299619243,-1,-3,-1,-1,-4,-3,-5,-4
1558442299619243,0,0,-1,0,4,6,4,2
1558442299626535,-1,-1,1,-1,-3,-9,-4,-3
1558442299626535,-2,-2,-2,-1,-6,-8,0,0
1558442299642486,2,1,0,-2,2,-3,-2,1
1558442299642486,1,1,0,-1,3,11,5,-1
1558442299642486,-4,-5,-5,-3,-2,2,-1,-4
1558442299642486,1,-1,1,-1,1,-7,-1,4
1558442299657446,-3,-1,0,-2,1,-1,-4,-3
1558442299657446,-1,-1,-1,-1,-4,-3,-4,-3
1558442299664447,0,-1,2,-1,-2,-3,1,3
1558442299664447,-1,-3,-6,-1,3,7,2,-6
1558442299679393,1,-2,-1,-3,-5,-1,1,0
1558442299679393,-3,-5,-6,-5,-7,-8,-4,-3
1558442299686391,0,0,0,1,-2,-5,-1,-1
1558442299686391,2,2,3,1,10,-1,3,5
1558442299701753,1,2,1,3,6,10,2,0
1558442299701753,-1,0,-1,-1,-2,-1,-2,2
1558442299708721,-4,-1,-1,-1,-7,-2,-4,-2
1558442299708721,-3,-1,0,0,-4,-2,-3,0
1558442299717378,-4,-4,-7,-3,-2,0,0,-6
1558442299717378,0,-1,-2,-2,-5,-8,-2,5
1558442299723360,-1,2,0,0,5,-1,2,2
1558442299723360,-2,-2,2,-2,-1,6,-1,-5
1558442299738321,1,-1,-1,-1,1,8,3,1
1558442299738321,-1,-1,-1,0,3,0,2,1
1558442299746705,-1,-1,-2,-3,-5,-6,-7,-2
1558442299746705,-2,-3,0,1,-2,-7,-4,-2
1558442299761671,-4,-3,-1,-1,0,2,1,-1
1558442299761671,-1,-1,-1,-1,3,-2,1,-4
1558442299769483,2,2,3,0,1,1,-1,-1
1558442299769483,-1,-4,-8,-4,-4,1,-2,-3
1558442299784548,-1,-1,3,-1,1,-4,-2,-1
1558442299784548,-1,-1,0,1,3,-1,4,1
1558442299785196,-2,-1,-1,-1,-3,1,-4,-2
1558442299785196,-1,-1,-1,-4,-6,-4,-3,-1
1558442299798162,-4,0,-1,-1,-4,-3,-5,-4
1558442299798162,0,-2,-3,-3,-4,-3,-3,-3
1558442299806489,1,0,0,1,7,9,7,3
1558442299806489,-1,-2,-2,1,1,-3,-2,-2
1558442299821430,0,1,2,0,-2,0,-1,0
1558442299821430,-1,0,-1,-1,-4,0,-1,0
1558442299829410,-1,-4,-6,-2,-9,-11,-9,-7
1558442299829410,-1,0,-1,0,1,6,4,0
1558442299838075,1,0,0,1,5,2,3,0
1558442299838075,-5,-4,-2,-1,-6,-4,-4,-2
1558442299844223,0,-1,0,-3,2,-3,0,2
1558442299844223,0,0,0,0,-2,0,0,-1
1558442299859283,-2,-1,-1,0,4,2,0,1
1558442299859283,2,-1,0,-1,1,0,-3,-3
1558442299865979,0,-1,0,-1,-2,0,0,-4
1558442299865979,0,-2,-2,-2,-2,-5,-2,-2
1558442299881113,-1,1,2,-1,0,-1,3,0
1558442299881113,-2,-2,-5,0,-3,-1,1,0
1558442299889016,-1,-4,-5,-3,-4,-1,-1,-1
1558442299889016,-2,-1,-2,-4,1,0,-2,-3
1558442299904136,3,-1,-4,0,-3,-3,2,5
1558442299904136,-4,-1,4,1,7,2,-1,-2
1558442299904878,-1,1,0,-1,-3,-3,1,-3
1558442299904878,-5,-3,-6,-5,-9,-10,-8,-6
1558442299919106,0,0,-1,-1,-2,-1,1,-1
1558442299919106,1,0,1,2,2,2,0,1
1558442299925821,0,0,0,0,7,7,2,1
1558442299925821,0,1,2,1,3,3,9,6
1558442299941923,-4,-3,-3,-3,-4,-7,-10,-12
1558442299941923,1,-1,-3,-3,-3,-1,-1,-1
1558442299948757,-3,-2,-1,-4,-10,-7,-4,-6
1558442299948757,1,-2,1,0,1,-1,-2,0
1558442299964715,-2,-2,3,-1,-1,0,3,5
1558442299964715,2,-1,-3,2,1,0,-2,0
1558442299964715,-1,-1,-2,0,5,8,3,2
1558442299964715,-2,1,1,0,-2,-3,0,-1
1558442299978990,-2,-1,-1,0,-1,0,-4,-3
1558442299978990,-5,-2,-3,-3,-4,-3,-5,-5
1558442299986918,0,-2,3,0,-3,-4,1,0
1558442299986918,1,0,-6,0,5,6,3,3
1558442300001731,-5,-1,-1,-2,-4,-2,-1,-1
1558442300001731,0,2,3,0,-1,-3,2,1
1558442300008879,-2,0,-4,1,-3,-7,-3,0
1558442300008879,-2,-2,0,-1,-4,-4,-5,-4
1558442300024877,-1,-3,-5,-3,-5,-2,-3,-5
1558442300024877,-2,-1,0,-1,4,0,1,2
1558442300024877,-2,1,0,1,3,3,0,1
1558442300024877,1,1,4,0,0,1,3,1
1558442300038834,-1,-2,-7,-1,0,-10,-3,1
1558442300038834,-1,-5,-3,-2,-3,-1,0,-3
1558442300046785,-1,-1,1,-1,0,-1,-1,-2
1558442300046785,-3,-2,0,-2,-5,-2,-5,-2
1558442300061726,1,-1,3,1,3,7,0,-2
1558442300061726,1,1,-1,-1,-1,-3,-1,1
1558442300068664,-1,-2,1,-1,2,6,0,-1
1558442300068664,-2,-2,-3,-1,-1,5,0,-1
1558442300084604,-1,-2,-4,-3,-3,-6,0,-1
1558442300084604,-1,2,0,0,0,-2,-1,0
1558442300085392,2,2,1,-1,1,3,4,0
1558442300085392,0,-1,-4,-1,-7,-4,-6,-2
1558442300099356,-3,-1,1,0,-1,-7,-1,1
1558442300099356,-3,-3,2,-2,0,1,-3,-3
1558442300106371,1,-1,0,-1,-2,-1,-1,-1
1558442300106371,-1,-3,-5,1,0,3,2,1
1558442300121535,0,-1,0,-1,0,-4,-4,0
1558442300121535,-1,-3,-1,-4,-7,-5,-2,-1
1558442300128277,0,-1,1,2,2,-3,-1,2
1558442300128277,-2,1,2,0,2,2,-2,-5
1558442300144541,0,-1,-5,-4,-3,-4,-2,2
1558442300144541,-2,0,0,2,0,3,-4,-2
1558442300145233,-2,-2,-3,-2,-4,0,-5,-3
1558442300145233,-2,0,2,0,-1,-1,0,0
1558442300159380,-1,0,-1,0,4,2,1,0
1558442300159380,2,0,0,-3,-7,-8,-1,0
1558442300166176,2,0,-1,-2,0,-1,2,-1
1558442300166176,-1,-1,2,-1,-2,-6,-1,-1
1558442300181136,-1,-1,0,-1,-1,2,2,0
1558442300181136,0,-1,-3,1,3,9,3,-1
1558442300189267,-1,-4,-3,0,1,-3,-4,0
1558442300189267,-1,-2,1,-2,-2,-4,-2,3
1558442300204369,0,0,-1,-1,1,4,3,1
1558442300204369,-3,-1,0,0,-3,-7,-6,-5
1558442300205074,1,2,2,1,5,2,2,0
1558442300205074,-2,0,-3,0,0,-2,-2,-5
1558442300220032,0,-2,-3,0,-3,2,1,1
1558442300220032,0,-3,-4,-4,-6,1,-2,-1
1558442300226301,-3,-4,-4,-2,-7,-5,-4,-4
1558442300226301,-3,-2,-1,0,2,1,1,-2
1558442300241281,1,1,5,2,7,2,4,1
1558442300241281,0,-1,-1,-1,-3,-3,-2,-3
1558442300248956,-3,-2,-5,-2,-1,-3,-4,-2
1558442300248956,1,-1,-2,-2,-6,-9,-2,0
1558442300264168,-3,-2,-4,-1,0,-1,-4,-1
1558442300264168,-3,0,3,-1,3,-2,1,-2
1558442300264914,-3,1,2,-3,-5,-6,-3,1
1558442300264914,-2,-4,-8,-1,0,1,1,-2
1558442300279872,-2,0,2,-1,-5,-5,-4,-3
1558442300279872,0,2,-2,0,6,6,4,2
1558442300285887,0,0,2,1,3,4,1,1
1558442300285887,1,-1,1,-1,-2,-3,-3,2
1558442300300816,-2,-2,-4,-1,-5,0,-3,-3
1558442300300816,-1,-2,-2,-2,-5,-6,-2,0
1558442300308795,0,-1,-1,0,1,0,-1,-1
1558442300308795,1,2,2,0,2,1,-1,-2
1558442300323753,0,-1,1,-2,-2,1,-2,-2
1558442300323753,-2,-1,1,-2,2,-1,0,-1
1558442300324750,0,0,-3,0,2,9,6,1
1558442300324750,-3,-1,-1,-2,-2,-6,-6,-1
1558442300339711,-1,-2,-5,-3,-5,-6,-3,-2
1558442300339711,0,1,3,1,4,6,4,-2
1558442300345696,1,0,1,1,-2,-11,-6,-1
1558442300345696,0,-2,-6,-3,-2,-2,-1,-3
1558442300360654,0,-2,-2,-2,-8,-8,-3,-2
1558442300360654,-2,-2,-1,-1,-4,-3,-2,-1
1558442300368633,-1,-1,3,1,3,1,1,-2
1558442300368633,0,0,2,-1,5,9,5,-1
1558442300384917,-1,-1,-2,-2,1,2,3,2
1558442300384917,-1,-3,-2,-1,-5,-6,-8,-6
1558442300384917,-2,0,-2,-1,-8,-12,-6,-4
1558442300384917,-2,-2,0,1,0,-3,0,1
1558442300399553,-2,-3,-1,-2,-2,4,2,1
1558442300399553,0,1,1,-1,-1,2,2,2
1558442300405539,1,0,0,1,11,15,4,-1
1558442300405539,-1,1,-1,-1,-4,-7,3,2
1558442300421493,-3,0,0,-1,-6,-10,-8,-4
1558442300421493,2,1,-3,0,5,4,1,4
1558442300428477,1,-2,0,-1,-4,2,2,0
1558442300428477,-3,-4,-5,-1,-1,3,-3,-5
1558442300444644,-3,-1,-1,-4,-7,-7,-6,-3
1558442300444644,-3,0,-3,-1,-1,-1,3,0
1558442300444644,0,1,0,1,-1,-1,1,-1
1558442300444644,1,0,1,0,3,6,2,1
1558442300460390,2,3,-2,0,0,-10,-4,-2
1558442300460390,-2,-4,-1,-1,-6,-7,-9,-4
1558442300466375,-2,-2,-4,-2,-1,4,1,-1
1558442300466375,-1,2,4,-1,-9,-7,-4,-1
1558442300481333,-1,-1,-2,1,6,3,2,2
1558442300481333,0,-2,-1,-1,8,9,4,-2
1558442300488314,-3,-2,-4,-4,-12,-11,-6,-2
1558442300488314,-1,0,1,-3,-1,-2,-1,0
1558442300504515,0,0,4,1,4,-2,-1,3
1558442300504515,-2,-3,-6,-4,-4,-9,-9,-8
1558442300505270,-2,-2,0,-1,2,7,5,3
1558442300505270,-2,-1,1,-1,-4,-3,-5,-5
1558442300520228,2,-2,0,1,2,10,4,-3
1558442300520228,-1,1,-2,-3,-6,-8,-3,-1
1558442300526213,-1,-3,-3,-4,-5,-5,-6,-5
1558442300526213,0,0,0,-1,1,-5,-2,-2
1558442300541172,-2,-3,-4,-2,1,3,0,3
1558442300541172,-3,0,-1,0,-1,4,2,-2
1558442300548161,-3,-2,-2,-2,-4,-8,-5,1
1558442300548161,2,1,3,2,3,3,3,1
1558442300564116,-4,-2,-3,-2,-1,-1,-3,-3
1558442300564116,1,0,1,0,-2,1,2,4
1558442300565109,-1,-1,-3,-2,-1,0,-3,0
1558442300565109,-1,-1,-3,-1,-2,-7,-3,-2
1558442300580068,-1,1,-2,-1,-2,0,-1,-4
1558442300580068,-2,-1,-1,2,-3,-2,3,2
1558442300586053,-1,-1,1,1,7,9,-1,-2
1558442300586053,1,-1,0,-2,3,1,2,2
1558442300601012,-2,1,3,1,-1,-2,1,-5
1558442300601012,-3,-3,-3,-2,-2,-2,-3,-1
1558442300608991,-1,0,-2,-3,-7,-6,-4,-1
1558442300608991,-2,-2,2,-2,-1,1,-4,0
1558442300623951,-1,-2,-6,-2,-1,-3,-2,-3
1558442300623951,1,-1,0,-1,-2,2,-1,-1
1558442300630932,-2,-1,-2,0,3,-5,1,1
1558442300630932,-3,-4,-3,-3,-5,-4,-2,-4
1558442300646895,3,0,2,0,3,5,4,2
1558442300646895,-1,0,-2,-2,-5,-4,-7,-3
1558442300646895,2,0,-3,-1,-3,-3,-3,-3
1558442300646895,-1,-1,0,0,4,4,1,1
1558442300660858,-1,-1,1,-2,-5,-9,-4,-2
1558442300660858,-2,-2,-3,-3,-4,1,0,1
1558442300668831,-1,0,3,2,2,0,1,-1
1558442300668831,-1,0,0,2,6,0,2,-1
1558442300683793,1,0,2,0,2,5,-3,0
1558442300683793,-1,-1,-1,-1,-6,-3,0,-2
1558442300690773,0,0,-1,-3,-5,-6,-1,0
1558442300690773,-3,0,-2,0,-2,-4,-2,0
1558442300699749,-1,0,1,1,4,1,-1,-1
1558442300699749,0,1,4,-1,3,-2,1,1
1558442300705732,-3,-6,-8,-3,-4,0,-2,-2
1558442300705732,0,-1,-2,-2,-6,-5,-2,-2
1558442300720693,-1,-1,1,0,5,8,3,1
1558442300720693,1,-2,-1,-2,-1,-4,-1,2
1558442300728670,-3,-2,0,-2,-4,-7,-1,-3
1558442300728670,0,1,-1,-1,-3,3,-2,-2
1558442300743631,-2,0,1,-1,2,1,0,-2
1558442300743631,0,-1,0,-1,1,1,5,3
1558442300750615,-2,0,1,-2,-6,-7,-5,1
1558442300750615,-1,-2,-4,-2,-5,-2,-2,-1
1558442300759594,0,0,-1,1,2,4,3,1
1558442300759594,-2,0,-1,1,4,4,1,0
1558442300765573,1,-2,1,-1,2,5,4,4
1558442300765573,-3,-3,-6,-3,-2,4,-1,-2
1558442300781924,-1,-3,-2,-2,-2,-9,-7,-1
1558442300781924,-2,-1,-3,-3,-5,-9,-3,-2
1558442300788510,-1,0,-3,1,3,5,2,-3
1558442300788510,-1,1,3,2,2,8,0,0
1558442300803474,-2,-2,0,-3,-5,-3,-1,-1
1558442300803474,0,-1,2,0,-2,-3,-1,1
1558442300811454,-2,0,-2,-2,-1,1,4,0
1558442300811454,-1,-4,-4,-2,-6,-4,0,0
1558442300826410,0,0,-3,-2,-2,-2,0,-2
1558442300826410,0,-1,-1,0,1,1,-4,-4
1558442300827413,-2,-2,1,0,-1,-3,-5,-4
1558442300827413,0,0,1,2,2,-1,-1,3
1558442300841370,0,-1,1,-1,-2,-2,0,7
1558442300841370,-4,-3,1,-1,-4,-1,-7,-11
1558442300848352,0,0,2,-4,-6,-9,-7,-3
1558442300848352,-2,-1,-8,-2,4,1,4,-1
1558442300863311,-3,-2,-2,-1,1,1,1,-3
1558442300863311,0,-1,0,0,6,4,6,9
1558442300871289,-1,0,-2,0,-4,-2,0,-2
1558442300871289,0,-1,0,-2,-4,1,-4,-4
1558442300887248,-2,1,-2,-2,-9,-10,-6,-1
1558442300887248,-1,-1,-2,0,1,0,5,2
1558442300887248,2,-1,-1,0,4,3,-2,1
1558442300887248,-1,-1,1,1,0,-7,-5,0
1558442300901215,2,-2,-3,-1,-3,3,-1,-6
1558442300901215,2,-1,-1,1,7,9,3,0
1558442300908192,0,-2,0,-3,-2,-4,-4,0
1558442300908192,-3,-1,-1,-2,-1,-7,-6,-4
1558442300923155,-2,-4,-1,-3,-7,-10,-6,-5
1558442300923155,-1,-1,-3,0,0,0,1,0
1558442300931130,-2,-4,-8,-1,-3,-3,1,1
1558442300931130,-2,-2,2,-2,-4,2,-1,-2
1558442300947086,0,1,-3,-2,2,3,0,2
1558442300947086,2,3,2,0,-1,-2,-5,-1
1558442300947086,-2,-1,0,0,3,4,2,1
1558442300947086,0,-2,-2,-1,-4,-4,-3,-8
1558442300961057,-2,-1,1,1,-7,-9,-3,-2
1558442300961057,0,-1,-1,-1,3,-1,5,3
1558442300968036,1,1,1,0,0,8,3,1
1558442300968036,-1,0,-1,-1,1,0,0,2
1558442300991972,1,0,0,-2,-3,-4,-4,-1
1558442300991972,-4,-2,-2,-3,-2,4,-4,-6
1558442300992967,-1,0,0,-2,-2,-3,-3,-5
1558442300992967,0,-3,-3,-1,1,-5,1,4
1558442301006928,0,1,0,3,13,11,6,1
1558442301006928,-1,-1,-2,-1,-6,-11,-2,0
1558442301007926,1,1,0,0,-5,-5,-4,-1
1558442301007926,0,-3,1,-1,2,7,3,-3
1558442301020890,-2,0,-2,-3,0,-1,1,-4
1558442301020890,-1,-3,-1,-2,-5,-2,-7,-5
1558442301028869,-1,-1,3,2,3,-6,1,4
1558442301028869,1,0,1,0,1,-2,0,0
1558442301043835,1,-1,0,0,1,4,4,5
1558442301043835,0,-2,0,-4,-4,-3,-2,1
1558442301050810,-4,-2,-5,-2,-3,2,-5,-8
1558442301050810,-2,-2,0,-1,-3,-4,-2,1
1558442301066769,-1,-3,1,-2,-3,1,-1,-1
1558442301066769,-1,-1,-4,0,-1,6,0,-7
1558442301067764,1,0,3,2,3,0,1,3
1558442301067764,-3,0,-4,0,1,1,-3,-2
1558442301080735,-1,0,1,-2,-2,0,3,2
1558442301080735,-1,-1,-2,-3,-3,-10,1,1
1558442301088708,-3,-3,-4,-2,-4,-1,-3,-2
1558442301088708,-1,0,-1,0,-5,-1,-3,-3
1558442301103670,0,1,4,1,0,-1,-3,0
1558442301103670,-1,-3,-6,0,6,4,0,-1
1558442301110654,-4,-5,-4,-3,-5,-4,-2,-2
1558442301110654,0,-1,0,-1,-7,-6,-1,3
1558442301126633,-2,0,-2,-1,3,0,-1,0
1558442301126633,-2,0,2,0,1,0,0,-3
1558442301127613,2,1,2,-1,3,5,5,2
1558442301127613,-2,-2,-3,-2,0,4,-2,-4
1558442301140573,-1,-4,-4,-1,-5,-5,-2,-4
1558442301140573,0,0,3,0,-3,-2,-1,4
1558442301148550,0,0,-1,-2,-1,-2,0,0
1558442301148550,-1,-3,-5,-4,-7,-9,-3,1
1558442301163515,-4,-4,-2,-1,1,2,-3,-8
1558442301163515,0,-2,0,0,4,-1,0,-1
1558442301171487,-1,-1,2,-1,-1,-2,-4,-1
1558442301171487,1,-1,-2,-3,-8,-2,-2,1
1558442301186450,-1,-1,4,-2,-6,-4,-4,-4
1558442301186450,-1,-2,-9,1,5,1,3,1
1558442301187444,1,2,1,2,6,2,3,0
1558442301187444,-3,-2,-3,-2,-1,1,-3,-2
1558442301201413,-1,-4,-5,-5,-7,-4,-4,-1
1558442301201413,-1,0,-1,-3,-10,-4,-4,-2
1558442301208392,0,-2,-2,-1,0,-3,-2,-2
1558442301208392,-1,-1,5,0,2,-5,2,-2
1558442301223353,0,0,-2,0,1,4,-2,0
1558442301223353,3,-1,3,2,7,3,4,1
1558442301239305,-1,-2,-6,0,5,3,-1,1
1558442301239305,-1,-2,-2,-2,-6,-8,-1,1
1558442301246289,0,-1,-1,-1,-2,3,1,0
1558442301246289,-2,2,2,-1,1,-3,-1,-2
1558442301247305,-3,-3,-4,-4,-5,0,-6,-6
1558442301247305,0,2,3,3,9,8,4,6
1558442301261248,0,-2,-2,0,1,0,-1,3
1558442301261248,-1,0,-1,-2,-9,-5,-3,-2
1558442301268227,0,0,1,-2,-1,-7,-4,-2
1558442301268227,-1,0,-1,-1,2,1,2,-1
1558442301283190,0,0,3,1,5,9,8,0
1558442301283190,-1,0,-2,-1,-4,-3,-2,1
1558442301291166,-3,-5,-4,-5,-8,-7,-5,-3
1558442301291166,-2,-2,-5,-2,-3,1,-1,-2
1558442301307125,-1,-1,-1,0,-2,-6,-5,-1
1558442301307125,2,-1,1,-4,2,-1,0,2
1558442301307125,0,-1,0,2,-2,-1,1,-1
1558442301307125,1,0,1,1,5,4,-1,0
1558442301321087,-2,1,0,1,4,1,0,-4
1558442301321087,-3,-3,-2,-2,-3,-1,-3,0
1558442301328074,0,-1,-2,0,-2,0,-2,-1
1558442301328074,2,2,1,-2,-3,-4,0,-2
1558442301343031,-5,-3,-6,-3,-10,-9,-7,-7
1558442301343031,0,-1,-2,0,6,3,1,0
1558442301351007,0,2,2,0,3,6,8,4
1558442301351007,3,0,2,3,5,3,4,5
1558442301367960,-2,-2,1,-2,1,-7,-5,-6
1558442301367960,-3,-1,-6,-3,-5,-5,-9,-7
1558442301368958,-2,-1,-2,-5,-8,-7,-8,-6
1558442301368958,-4,0,-1,-2,-2,6,2,-3
1558442301380926,0,-1,-2,-2,0,3,5,1
1558442301380926,-1,0,5,0,-5,-6,-2,-1
1558442301388910,-1,-1,0,-1,4,1,1,-3
1558442301388910,-1,-4,-3,-3,-3,0,-5,-2
1558442301403865,0,1,1,1,0,0,-1,1
1558442301403865,-1,-3,-1,0,-1,-3,-1,-1
1558442301410847,-4,-1,-1,-1,-3,-2,1,-3
1558442301410847,-3,-2,-2,-3,-4,-2,-3,-6
1558442301426806,0,0,1,-2,-8,-7,-4,-3
1558442301426806,-1,-3,-5,-4,-6,-8,-4,0
1558442301427802,2,-2,0,3,12,9,4,5
1558442301427802,-1,0,6,3,10,2,7,1
1558442301440768,1,0,-1,0,5,7,4,3
1558442301440768,0,-4,-5,-2,-5,-4,-5,-3
1558442301448747,-1,-1,-2,-4,-9,-4,-3,-2
1558442301448747,-3,-3,-5,-3,-5,-4,-5,-6
1558442301463710,-2,1,0,-2,-3,-2,-2,-1
1558442301463710,-3,0,-1,-2,-4,-3,0,2
1558442301470688,-1,-1,-1,0,3,2,4,0
1558442301470688,2,1,1,-2,1,-1,-1,2
1558442301494625,-1,-2,-3,-3,-7,-4,-2,-1
1558442301494625,-1,-2,-2,0,0,0,1,1
1558442301495621,1,2,2,1,2,3,3,3
1558442301495621,-2,-2,-1,-1,-6,-3,-3,-3
1558442301500611,-2,-2,-6,-3,1,7,4,-1
1558442301500611,-3,-2,-1,0,12,14,3,-5
1558442301508586,1,-2,0,1,-2,-7,1,4
1558442301508586,-1,-2,0,-2,-4,-12,-10,-6
1558442301523546,1,-3,-2,-1,-3,-6,-4,1
1558442301523546,-3,0,3,-2,-2,1,0,-4
1558442301531524,-2,-1,-5,-3,-4,-2,-6,-6
1558442301531524,-1,-2,-2,-4,-7,-1,0,-1
1558442301545487,1,-1,1,2,1,1,3,1
1558442301545487,1,-2,2,2,2,-4,0,-1
1558442301554464,0,0,-2,0,5,9,0,2
1558442301554464,0,-1,-1,-1,0,-4,-3,-1
1558442301561446,-1,-1,-2,-3,-7,-9,-5,-3
1558442301561446,1,0,1,1,-5,-1,0,0
1558442301569426,-3,-2,0,-2,-5,-3,-5,-6
1558442301569426,-2,-2,-2,-2,-1,3,2,2
1558442301583387,-2,-2,-2,-1,4,0,1,0
1558442301583387,1,1,0,2,5,-2,5,9
1558442301591378,-5,-1,-2,-4,-14,-12,-13,-11
1558442301591378,0,-1,-1,-1,0,6,-1,-3
1558442301606323,3,0,-1,4,11,17,7,3
1558442301606323,-1,-1,-3,-1,0,-7,1,2
1558442301614302,-1,1,2,2,0,1,4,3
1558442301614302,-2,0,-1,-1,-5,0,-1,-1
1558442301621283,-2,-1,-1,-4,-13,-21,-13,-5
1558442301621283,-3,0,-3,-2,0,6,0,-5
1558442301628265,2,0,-1,1,10,10,6,6
1558442301628265,0,1,4,1,3,4,6,2
1558442301643225,-1,-4,-1,-2,-3,-5,-6,-1
1558442301643225,-2,-2,-1,-2,0,4,-2,-6
1558442301651206,0,-1,0,-2,-4,-5,-4,-2
1558442301651206,-1,0,-3,-1,2,0,1,0
1558442301666163,-1,0,-1,-2,-3,1,1,-2
1558442301666163,1,-2,0,1,-2,2,-2,1
1558442301674151,-3,-2,0,0,2,-5,-3,-3
1558442301674151,0,-1,-2,0,0,-10,-4,-2
1558442301681124,-2,0,-1,-1,2,0,2,3
1558442301681124,-5,-3,-3,-2,-12,-7,-10,-12
1558442301688112,1,-1,-1,-2,4,7,3,1
1558442301688112,-1,1,0,-3,-5,-7,-4,-2
1558442301703064,0,0,1,0,4,-1,4,2
1558442301703064,1,-1,0,-2,4,6,5,1
1558442301711043,-2,-4,1,0,-8,-8,-4,-1
1558442301711043,-2,-1,-4,-1,2,-2,-2,-5
1558442301726004,-1,1,1,-1,-1,4,2,5
1558442301726004,-1,0,0,1,-3,0,2,2
1558442301733982,-2,-2,-5,-2,-5,-6,-2,-2
1558442301733982,-2,-2,-1,-1,-1,5,-2,0
1558442301740962,0,0,1,3,3,5,-1,-1
1558442301740962,1,1,-1,4,9,-1,0,1
1558442301748942,-2,-1,-3,-2,-2,-4,-1,-1
1558442301748942,0,-1,-2,-2,-2,0,-1,1
1558442301763901,0,-2,-3,-2,-6,-4,-1,4
1558442301763901,-3,0,2,-3,-5,-1,-6,-8
1558442301770883,-1,0,-2,-1,-3,-7,-3,-1
1558442301770883,0,-3,0,1,3,4,1,0
