timestamp,emg1,emg2,emg3,emg4,emg5,emg6,emg7,emg8
1558442167909630,-2,-4,-4,0,11,5,2,1
1558442167909630,1,-1,-2,-1,-1,0,0,0
1558442167910628,0,-1,1,0,-1,0,1,5
1558442167910628,-2,2,2,2,1,2,-7,-12
1558442167911626,-4,-6,-12,-7,-6,-4,-3,-4
1558442167911626,-1,-2,-4,-2,-3,-6,-4,-2
1558442167912623,1,0,0,-1,-4,-3,1,3
1558442167912623,4,2,5,0,8,5,4,4
1558442167924590,0,1,4,1,-4,-5,-2,-1
1558442167924590,-3,-2,-2,0,1,0,1,-2
1558442167931579,-3,0,-1,-3,-4,-5,-3,-3
1558442167931579,-4,-1,-3,-2,-3,-3,0,1
1558442167939552,1,4,4,4,1,0,-3,-3
1558442167939552,0,0,1,-2,0,0,-1,0
1558442167962489,-1,-1,-1,-1,1,2,0,-2
1558442167962489,-2,-4,-5,-1,-3,-4,-1,-3
1558442167965482,0,-1,1,-2,-2,0,2,2
1558442167965482,1,0,1,-2,-2,-1,1,4
1558442167968474,-1,-1,-2,1,5,3,-5,-6
1558442167968474,-1,-2,-2,-1,-1,-2,3,3
1558442167984431,0,1,2,-2,-1,-1,-1,-1
1558442167984431,0,-2,-6,-2,-2,-4,-1,0
1558442167991411,-3,-2,-3,-1,-1,1,4,2
1558442167991411,0,0,-3,-3,-4,-5,-5,-3
1558442168031307,-1,1,2,-1,-1,-1,0,-3
1558442168031307,2,1,1,3,3,3,1,5
1558442168032303,-2,-1,-1,-2,-3,-4,-2,-5
1558442168032303,-3,2,1,-2,2,2,-1,-1
1558442168032303,1,2,1,2,5,5,3,-4
1558442168032303,-4,-3,-3,-2,-5,-4,-6,1
1558442168035294,0,-2,0,-2,-1,-2,-2,2
1558442168035294,-2,-4,2,0,-3,-3,0,0
1558442168044270,0,-1,-6,-2,-1,-1,-5,0
1558442168044270,-2,-2,-1,-3,-3,-1,-3,-6
1558442168050254,-3,-1,-2,-2,-3,-1,-1,0
1558442168050254,2,1,1,1,3,1,-2,-4
1558442168059230,0,-1,2,2,-2,-2,2,3
1558442168059230,2,0,-2,-4,0,-1,3,1
1558442168073193,-5,-2,-5,-1,-5,-3,-4,-4
1558442168073193,0,-2,0,0,-4,1,0,0
1558442168082170,-5,-3,-2,-5,-5,-7,-6,0
1558442168082170,1,2,1,1,4,2,3,1
1558442168088153,-1,-1,4,0,1,0,-6,-3
1558442168088153,0,-2,-1,0,2,1,0,-2
1558442168104110,0,0,3,-1,-3,-5,-1,-1
1558442168104110,-6,-6,-13,-3,-5,-3,-4,-7
1558442168127050,3,0,1,0,3,3,3,0
1558442168127050,-1,1,-5,-2,0,-2,0,5
1558442168128047,-1,-2,-2,-2,-2,2,-2,-2
1558442168128047,0,-2,3,1,-4,-6,-2,-3
1558442168133033,-1,-1,0,-2,-3,1,5,4
1558442168133033,-2,0,1,2,3,-1,-6,-8
1558442168148991,-2,-1,1,1,4,2,-1,-2
1558442168148991,2,2,3,1,4,3,3,3
1558442168148991,-2,-1,-4,-1,-2,-3,-3,-6
1558442168148991,-1,-2,-5,-4,-6,-4,-1,0
1558442168163951,2,3,8,2,-1,1,1,2
1558442168163951,0,2,2,-1,-1,1,4,0
1558442168169935,-4,-1,-5,-2,1,-1,-2,-4
1558442168169935,-3,-3,-4,-1,-2,-1,-1,-1
1558442168178910,2,-3,-5,-1,-1,0,3,9
1558442168178910,-2,-1,5,0,-2,-5,-5,-7
1558442168192873,2,2,1,1,-1,1,3,0
1558442168192873,-1,1,-1,-2,-5,-2,-1,-1
1558442168201850,0,2,3,2,8,3,5,-1
1558442168201850,0,0,1,0,0,-3,-1,0
1558442168207834,0,-1,-2,-2,0,-3,-1,3
1558442168207834,-3,-1,3,-2,-4,-2,-5,-7
1558442168224790,1,-1,-3,-3,-6,-3,-2,0
1558442168224790,-2,0,2,0,2,3,0,-1
1558442168230787,-1,-2,0,-1,3,0,0,-3
1558442168230787,1,1,4,0,-1,-1,4,2
1558442168239748,-3,-2,-4,-3,-4,-5,-8,-1
1558442168239748,-3,-4,-11,-4,-2,-1,-5,-5
1558442168252713,-3,-3,-8,-3,-4,-3,-2,-1
1558442168252713,1,3,3,2,4,3,2,3
1558442168261688,-1,0,-5,-3,-1,-1,0,-3
1558442168261688,-1,-1,3,-1,-1,0,1,1
1558442168267673,-1,1,6,1,-3,-3,0,-1
1558442168267673,-4,-5,-8,-2,-2,-4,-4,-4
1558442168284627,1,0,2,0,5,2,-3,-6
1558442168284627,-3,-4,-2,-1,-1,-2,0,1
1558442168290612,3,1,1,1,0,1,1,1
1558442168290612,3,0,-2,-1,-1,1,2,4
1558442168299588,-3,-5,-2,-1,-5,1,-3,-6
1558442168299588,-3,0,-1,-3,-4,-3,-1,-5
1558442168312553,-1,0,0,-1,3,0,-2,1
1558442168312553,0,-3,-6,-2,0,-2,0,-6
1558442168321530,-3,-2,-3,-1,-2,-6,-4,4
1558442168321530,1,-1,0,0,2,0,-5,-2
1558442168335492,0,1,0,-1,-2,-3,-2,-1
1558442168335492,0,-1,0,-2,-2,-2,-2,0
1558442168344467,-3,1,-1,-1,1,0,-2,-4
1558442168344467,2,0,-2,1,2,4,0,-1
1558442168359429,0,-2,2,0,-2,-2,-1,2
1558442168359429,-2,-1,2,-3,-2,-1,0,-1
1558442168360426,-5,-5,-8,-4,-5,-3,0,-6
1558442168360426,-2,1,3,1,-3,-1,-2,2
1558442168373391,-3,-2,-8,-1,2,4,-2,-3
1558442168373391,-2,0,-2,-2,-3,0,-2,1
1558442168381374,0,-2,2,2,-2,-1,0,-1
1558442168381374,-1,1,4,-1,-3,-3,-4,0
1558442168395331,2,0,0,-1,0,1,2,4
1558442168395331,-4,-3,-5,-3,-3,-2,-2,-5
1558442168404308,-2,0,3,0,1,0,1,-1
1558442168404308,-3,0,-7,-2,-1,1,-1,-1
1558442168410291,-5,-2,0,-2,-5,-3,-2,-3
1558442168410291,-3,-2,1,2,-2,-3,-1,1
1558442168425252,1,-1,-1,-2,-3,-5,0,-2
1558442168425252,3,-1,0,-2,2,2,7,0
1558442168433230,0,0,1,0,1,1,-3,-3
1558442168433230,-1,0,-3,-1,1,2,1,-4
1558442168442206,1,-1,0,1,0,-2,0,7
1558442168442206,-2,-3,-5,-5,-6,-6,-4,-3
1558442168455171,-3,0,0,-1,-3,-2,-2,-2
1558442168455171,0,2,1,0,3,-1,0,0
1558442168464148,2,1,2,1,0,3,-1,-2
1558442168464148,0,0,1,-1,2,-1,-2,-1
1558442168470131,2,-2,-1,-2,-1,-2,1,-1
1558442168470131,-1,-1,1,-1,-1,-2,-1,4
1558442168479107,3,3,8,-2,-1,0,1,8
1558442168479107,-2,-2,-13,1,-4,-5,-8,-10
1558442168493070,0,1,2,0,-1,0,0,-6
1558442168493070,2,2,2,1,2,2,1,5
1558442168502046,-2,-2,-4,-1,-1,0,0,-1
1558442168502046,-1,-2,2,-1,-2,-1,0,1
1558442168515011,-2,-1,-4,-1,-2,-2,-1,0
1558442168515011,-3,-3,-8,-3,-5,-4,-3,-4
1558442168523989,-1,0,1,-1,1,1,-2,-1
1558442168523989,-1,-1,3,-1,0,-1,-2,-2
1558442168538947,-1,-1,1,0,-1,0,-1,-1
1558442168538947,-1,-5,-10,-3,-3,0,5,6
1558442168540943,-1,-1,-1,-1,-4,-3,-1,-12
1558442168540943,-3,-3,-5,0,1,0,-4,-3
1558442168552910,0,-1,3,0,2,0,-1,1
1558442168552910,2,1,2,2,2,2,-1,-3
1558442168561887,-3,-2,-1,-3,-3,-3,-1,-1
1558442168561887,0,-1,0,-2,-5,-1,1,2
1558442168575849,0,2,-1,2,6,5,2,2
1558442168575849,-2,0,2,1,-1,-3,-4,-2
1558442168584825,-2,-2,-4,-1,-1,-2,-1,1
1558442168584825,-3,-3,1,-1,-1,-2,-7,-6
1558442168590808,-2,-1,0,-2,-3,-1,-2,3
1558442168590808,-3,-3,-1,-2,-4,-4,-6,-3
1558442168599785,-1,-2,-3,-1,-2,-5,-5,-8
1558442168599785,2,1,4,0,1,-1,5,4
1558442168629704,-6,-8,-9,-6,-5,-2,-2,-5
1558442168629704,1,-1,3,0,-1,-2,-1,3
1558442168630712,0,2,1,-1,-1,1,1,6
1558442168630712,0,-1,0,0,1,-1,-2,1
1558442168635688,-1,-1,-1,3,0,0,0,-2
1558442168635688,-1,0,-2,-2,-2,0,0,-3
1558442168644665,-1,-2,2,-1,-2,-2,-4,-2
1558442168644665,-1,0,-8,-3,-2,1,3,1
1558442168650649,2,0,0,-1,-2,-2,-3,0
1558442168650649,-1,-2,0,-1,-3,0,-1,0
1558442168674586,0,0,1,4,7,3,0,-3
1558442168674586,3,1,6,2,4,0,2,7
1558442168674586,-3,-3,-3,-2,-1,-2,-6,-13
1558442168674586,0,0,1,-2,-3,-1,-1,1
1558442168681567,-1,-1,-3,-3,-6,-3,-4,-1
1558442168681567,-4,0,-3,-3,-6,-1,0,1
1558442168695529,4,3,1,-1,7,4,4,5
1558442168695529,0,0,4,2,4,4,-1,-5
1558442168704517,-3,-6,-13,-5,-2,0,2,-4
1558442168704517,-1,-2,-3,-2,-2,-4,-1,3
1558442168710488,-2,0,0,-2,-7,-3,-4,-1
1558442168710488,-2,2,5,2,1,-1,-3,-2
1558442168725448,1,2,5,-1,2,3,2,1
1558442168725448,-1,1,3,2,4,3,0,-4
1558442168733427,0,1,-2,0,-1,1,2,0
1558442168733427,-2,-3,-6,-4,-3,-3,-3,0
1558442168741406,0,2,-2,-2,-4,-3,-2,4
1558442168741406,0,-3,-7,-2,-2,-1,1,-3
1558442168755369,-3,-1,6,2,1,0,-2,-1
1558442168755369,-1,-2,-6,-1,1,2,-3,-4
1558442168764345,-1,0,7,2,1,1,0,-1
1558442168764345,-1,-1,-4,-2,0,1,0,1
1558442168770328,0,0,-2,0,1,-2,2,1
1558442168770328,0,-1,-4,-4,-5,-5,-3,-7
1558442168785288,0,0,-1,-2,-3,-3,-6,-1
1558442168785288,0,-3,1,1,2,3,0,3
1558442168793267,-2,-1,1,0,-1,-1,-5,-4
1558442168793267,-1,-4,-3,-2,-1,-4,-1,-1
1558442168802244,-1,0,-3,-1,1,1,0,-2
1558442168802244,-3,1,-4,-1,1,0,1,0
1558442168815208,1,-1,-5,-3,-4,-3,-1,3
1558442168815208,1,0,4,4,2,2,2,-2
1558442168824185,-3,-2,-4,-2,-3,-1,1,-3
1558442168824185,0,-3,-3,-3,-5,-5,-5,-8
1558442168830175,-2,-3,-2,-1,-2,0,-1,4
1558442168830175,1,1,-2,-2,1,0,6,5
1558442168845129,-4,2,3,3,2,0,-4,-5
1558442168845129,2,-1,4,0,0,-1,3,-2
1558442168853107,-2,1,1,-1,-1,-3,-7,-7
1558442168853107,0,1,-6,-1,-2,0,-2,-1
1558442168862083,-1,0,-2,-2,-1,-2,1,3
1558442168862083,-4,-3,-4,-1,-1,-3,-3,-2
1558442168875049,0,-2,2,-1,0,2,4,-1
1558442168875049,-2,0,1,-1,-4,-3,-3,-2
1558442168884025,-2,-5,-1,-2,-4,-1,0,0
1558442168884025,-1,1,2,1,1,1,-1,-2
1558442168898985,-1,-2,-6,-3,-2,-1,2,2
1558442168898985,-3,-2,3,-1,0,-2,-8,-2
1558442168905974,2,-3,-10,-2,0,-1,-1,-3
1558442168905974,0,-2,-1,-1,-3,-4,-1,4
1558442168912947,-2,0,1,1,3,3,0,-3
1558442168912947,3,3,3,-1,0,1,4,6
1558442168921923,-2,0,1,-2,0,1,0,-1
1558442168921923,-3,0,1,1,4,-1,-4,-8
1558442168935886,0,-1,-4,-2,-4,-4,0,3
1558442168935886,0,-2,1,0,-6,-6,-3,0
1558442168944862,-2,-2,0,-1,0,-2,-1,-2
1558442168944862,-3,-1,2,2,0,3,0,-2
1558442168950846,2,0,0,2,2,-2,3,1
1558442168950846,-3,0,1,-1,3,0,1,-3
1558442168965805,-3,-4,-4,-1,-6,-3,-3,0
1558442168965805,0,1,0,-1,-6,-3,-2,0
1558442168972787,-1,0,-3,-6,-3,0,-4,-2
1558442168972787,1,-3,-1,-3,0,0,0,0
1558442168981763,0,0,-3,1,1,0,-2,-6
1558442168981763,-1,-2,-2,-3,1,0,0,3
1558442168995730,0,1,6,1,-1,-3,0,-3
1558442168995730,-1,-4,-10,-2,-1,1,1,1
1558442169011684,-4,-5,-3,-2,-3,-5,-5,3
1558442169011684,-2,-1,1,-1,-3,-3,-9,-15
1558442169018666,2,2,-3,1,0,0,-1,2
1558442169018666,-3,-3,2,-1,-1,-1,-2,0
1558442169025650,-1,0,-2,-1,5,1,3,-2
1558442169025650,2,1,-3,-5,-1,-1,3,5
1558442169041669,-3,-4,-2,0,-1,-1,-1,-3
1558442169041669,2,1,1,1,-2,0,-1,-5
1558442169043606,4,0,1,-1,-1,1,1,1
1558442169043606,-4,-1,-2,0,1,0,2,0
1558442169055567,2,-1,9,0,-1,-1,-1,-4
1558442169055567,0,0,-12,-3,0,1,5,9
1558442169064542,-3,-2,-6,-1,-2,0,-4,-12
1558442169064542,0,0,-1,0,-5,-5,-3,2
1558442169078507,-4,-4,-3,-2,-3,-2,-3,-2
1558442169078507,-3,4,5,1,3,0,1,0
1558442169085487,1,2,6,3,3,1,-1,0
1558442169085487,2,-3,-2,-2,-3,-1,1,2
1558442169101443,-1,-1,-10,-5,-4,-2,1,-3
1558442169101443,-1,-2,0,-2,-3,-3,0,2
1558442169103439,1,3,5,-1,-3,-1,1,0
1558442169103439,-2,-2,-8,1,3,1,0,-1
1558442169131365,-2,-2,-3,-1,-1,-2,-2,0
1558442169131365,0,-1,-2,-2,0,-1,-6,-6
1558442169133358,-2,-1,3,0,-2,0,1,2
1558442169133358,-1,-1,-5,-2,-4,-3,0,-4
1558442169138344,1,1,-1,-1,1,1,-1,-1
1558442169138344,-3,-1,-1,-1,0,1,3,0
1558442169145325,-2,-5,-6,-3,-6,-10,-6,-1
1558442169145325,2,3,8,3,2,3,3,0
1558442169169262,-3,-5,-7,-2,-1,1,0,-1
1558442169169262,-2,2,5,1,-1,-1,-3,-4
1558442169170259,0,-3,-10,-4,-3,-4,1,6
1558442169170259,1,-1,-2,-2,1,2,-1,0
1558442169175245,1,0,1,3,2,-1,-4,3
1558442169175245,-2,-3,2,0,-4,-1,0,-1
1558442169184222,1,2,4,3,3,1,-2,-9
1558442169184222,0,1,3,-1,-1,-1,-2,2
1558442169198187,0,0,-1,-3,-3,1,3,-1
1558442169198187,-4,-3,-2,0,-1,-4,-4,-7
1558442169205165,-2,0,4,-2,4,1,3,4
1558442169205165,0,-1,-8,-2,-3,-7,-1,-1
1558442169222121,-2,-3,-2,0,-2,-1,-6,-2
1558442169222121,0,2,-1,-1,-2,-1,-2,-1
1558442169223118,-3,-3,-5,-2,-2,-1,-2,0
1558442169223118,-1,-1,3,0,0,0,0,-1
1558442169235087,0,-1,1,-2,1,-2,1,4
1558442169235087,-2,-5,-8,-3,-3,-1,-1,-2
1558442169244061,1,1,2,0,3,2,4,3
1558442169244061,-3,0,2,-1,-2,-4,-2,-4
1558442169259021,-4,-3,-4,-1,-5,-6,-6,-10
1558442169259021,2,1,0,-2,0,0,-3,-3
1558442169265005,-1,-2,-2,-1,0,1,0,1
1558442169265005,0,-2,3,-2,-2,-1,-2,6
1558442169288941,-3,-2,-5,1,0,-3,-3,-4
1558442169288941,1,0,2,-1,2,3,0,-1
1558442169290943,-3,-1,-4,-2,-1,-2,2,-2
1558442169290943,-3,-1,-4,-2,-4,-4,-6,-2
1558442169295923,-4,-2,-1,-1,0,-2,-1,-1
1558442169295923,-3,-5,-5,-1,-5,-4,-6,-3
1558442169303903,1,1,-2,1,-3,-3,-2,-1
1558442169303903,-4,-3,1,0,0,1,0,-6
1558442169317865,1,-1,-2,-2,0,1,3,6
1558442169317865,-1,-2,-2,-2,0,-1,-2,-4
1558442169326841,1,-1,1,-1,0,0,0,3
1558442169326841,-3,-4,-3,-2,-4,-4,-4,-5
1558442169341800,0,-1,0,0,3,5,3,2
1558442169341800,0,0,-1,-1,2,-1,3,-2
1558442169342797,-4,0,-1,-2,-3,-4,-5,-2
1558442169342797,2,-1,-1,3,6,3,-2,4
1558442169355764,3,1,4,0,-2,-1,-1,-2
1558442169355764,-2,-2,0,-1,-4,-2,-3,-1
1558442169364739,-1,-1,-3,-3,-1,0,-6,0
1558442169364739,-3,-1,2,0,0,1,-2,-4
1558442169377703,-1,-1,-2,-3,-4,-6,-2,2
1558442169377703,0,-2,0,-1,0,2,2,4
1558442169386679,-1,0,1,0,0,0,-2,-10
1558442169386679,-1,0,-3,1,-4,-4,2,3
1558442169402636,1,1,3,-1,0,1,0,-2
1558442169402636,-2,-1,0,0,2,-2,-1,0
1558442169403634,-1,-5,-4,-2,-2,-1,0,1
1558442169403634,-1,-2,-5,-3,-3,-1,-2,-2
1558442169424577,2,2,1,1,2,2,3,1
1558442169424577,-2,-1,1,-2,-3,-3,-3,-7
1558442169425574,0,-1,-4,-3,-7,-4,-2,-3
1558442169425574,-1,0,-1,0,6,2,1,-3
1558442169437544,1,-4,-4,0,-2,-1,0,7
1558442169437544,1,-1,-1,-2,-1,-3,-2,1
1558442169454498,0,-2,3,-1,0,0,-1,-1
1558442169454498,-2,-5,-5,-4,-7,-6,-1,3
1558442169469493,-4,-2,-4,0,-2,0,-3,0
1558442169469493,-4,0,0,1,0,-1,-5,-10
1558442169470487,-2,-1,-4,-2,-3,-6,-3,1
1558442169470487,-1,-1,-2,-2,-3,-1,0,-2
1558442169475476,1,3,2,0,6,6,4,1
1558442169475476,0,0,-2,1,2,0,-1,2
1558442169484418,1,1,0,-1,-1,-2,3,-1
1558442169484418,1,0,1,-1,-1,-1,1,-1
1558442169498381,-2,-1,-1,-2,-2,-3,-7,-4
1558442169498381,-1,-2,-3,-1,-2,0,-1,2
1558442169506360,0,1,2,-1,3,4,2,-1
1558442169506360,4,-3,-2,-2,-3,0,1,3
1558442169521353,-1,-3,-2,-3,-3,-7,-4,-6
1558442169521353,-2,-2,-2,0,-2,-3,0,-1
1558442169523315,2,-1,0,1,4,5,6,8
1558442169523315,-2,2,1,1,1,3,-1,-10
1558442169535283,-3,-1,-3,-2,-5,-3,-8,-3
1558442169535283,2,-1,-1,-3,-2,1,0,0
1558442169544257,0,-2,0,1,0,0,-1,-1
1558442169544257,1,3,0,-3,2,1,3,8
1558442169567196,-4,-2,-2,-2,-2,-2,-1,-9
1558442169567196,0,0,-1,-2,-3,-3,-1,-1
1558442169568195,-1,-2,-1,-1,-1,-1,-1,-3
1558442169568195,4,10,13,4,6,5,3,2
1558442169589139,-3,-3,-8,-5,-2,-1,-2,-2
1558442169589139,-5,-4,-11,-5,-8,-7,-3,-2
1558442169591134,0,0,2,2,3,0,2,0
1558442169591134,1,-4,0,2,9,4,-1,3
1558442169595122,0,1,14,4,1,2,7,-4
1558442169595122,-1,-1,-5,0,1,1,-1,1
1558442169604101,-4,-2,-5,-7,-10,-7,-4,-5
1558442169604101,-1,-1,0,-3,-5,-3,-2,1
1558442169618118,-2,-3,-2,-3,-2,-2,-2,-3
1558442169618118,1,-2,2,0,1,-1,-1,-5
1558442169627036,0,-2,-3,1,2,2,-1,6
1558442169627036,2,0,0,0,2,-1,-3,-2
1558442169640998,0,-1,-3,-2,-2,0,-1,1
1558442169640998,0,3,6,0,2,0,-2,0
1558442169647982,-3,-3,-1,-3,-6,-5,-4,-5
1558442169647982,-2,-4,-1,-3,-1,1,2,-1
1558442169655958,-2,-2,-2,4,1,-1,-3,1
1558442169655958,1,2,2,-5,-1,4,4,8
1558442169663937,-2,-3,-7,-1,-3,-1,-4,-7
1558442169663937,-4,-1,1,-1,-4,-2,-3,-5
1558442169677939,-1,0,0,1,3,1,2,1
1558442169677939,1,-2,0,2,0,-1,2,-3
1558442169686876,1,-2,-1,-3,1,0,-2,5
1558442169686876,-1,-4,-3,-3,-5,-5,-2,-4
1558442169700838,1,1,-2,-2,-1,1,0,2
1558442169700838,0,0,2,1,2,-1,-2,-2
1558442169707854,-3,-3,-4,-2,-7,-7,-2,-6
1558442169707854,-3,-3,-6,-4,-3,-2,-5,0
1558442169715834,1,1,5,1,3,2,2,2
1558442169715834,-2,-5,-6,-2,-2,-1,2,-2
1558442169731756,1,4,5,-1,0,1,1,2
1558442169731756,-2,-3,-5,-3,-2,-3,0,-2
1558442169737741,2,-1,-1,-3,-6,-3,-3,-2
1558442169737741,-2,1,-2,-3,2,2,1,5
1558442169746716,-3,-2,0,1,6,2,-4,-5
1558442169746716,0,2,-1,1,-2,2,-1,0
1558442169760679,-2,-6,-2,-2,-3,-3,-3,-4
1558442169760679,-2,-2,0,0,-5,-5,-2,1
1558442169767661,0,2,2,-2,2,-1,1,2
1558442169767661,-1,-1,1,-1,-1,-4,-3,0
1558442169791635,-2,0,-4,-4,-8,-5,-2,-5
1558442169791635,1,0,-2,0,4,2,1,-5
1558442169793629,1,1,3,-1,1,3,4,9
1558442169793629,-5,-7,-11,-2,-5,-5,-9,-7
1558442169797586,0,-2,-1,-3,-4,-1,-1,1
1558442169797586,-2,-3,4,-1,-3,-2,-5,-4
1558442169806556,-4,-1,-2,0,4,0,-3,-5
1558442169806556,-3,-2,-3,-2,-1,-2,3,2
1558442169821515,-2,0,-3,-3,-3,-5,-7,-1
1558442169821515,-1,-4,-1,-2,-5,-1,-2,0
1558442169827535,0,1,2,2,0,-1,3,1
1558442169827535,2,3,6,1,-1,0,-3,-3
1558442169844454,-3,-6,-12,-3,-1,-1,1,-1
1558442169844454,3,-1,3,0,1,1,1,0
1558442169845452,0,-2,-2,-3,-2,-1,-3,-2
1558442169845452,1,-1,-2,0,2,0,3,1
1558442169857454,-2,2,2,0,0,-2,-2,3
1558442169857454,-1,-4,-8,-4,-3,1,-2,0
1558442169866431,0,-1,-4,-2,0,-2,-3,-10
1558442169866431,-1,1,4,0,-1,0,1,5
1558442169881364,0,1,7,1,1,3,-2,-7
1558442169881364,-1,0,-4,-2,1,1,0,0
1558442169895361,0,-4,-2,-1,-4,-1,4,12
1558442169895361,-4,0,-1,0,-3,0,-1,-7
1558442169905291,1,0,1,-2,7,3,0,-1
1558442169905291,-1,1,1,-1,-3,-2,-1,1
1558442169906289,3,2,3,0,2,2,2,3
1558442169906289,-1,-3,-11,-4,0,-2,-1,-1
1558442169918292,0,2,2,2,-1,2,1,3
1558442169918292,-2,0,2,-2,1,-1,-1,-4
1558442169927235,0,0,1,-3,-4,-4,-4,-4
1558442169927235,-2,-3,-1,-2,-3,-1,-3,-2
1558442169941222,0,-1,-2,1,4,6,2,-2
1558442169941222,0,-2,2,1,-1,-4,5,0
1558442169948178,1,0,-1,1,-2,-1,-1,-1
1558442169948178,-1,0,-3,-3,0,0,-3,-1
1558442169964136,-3,-1,-1,-1,-2,-5,-4,-6
1558442169964136,4,2,3,1,3,3,0,3
1558442169966129,-5,-4,-5,-3,-3,-1,1,-1
1558442169966129,-1,-1,-1,0,-2,-2,2,-1
1558442169978132,-1,-1,2,-1,-2,-3,2,3
1558442169978132,-1,-2,-1,-2,1,-2,0,-2
1558442169993115,-3,-2,-5,-2,-1,0,-3,-6
1558442169993115,-1,-3,1,0,1,3,-2,1
1558442170001037,-3,-3,0,-3,-3,-2,-3,-1
1558442170001037,-3,-1,0,0,-4,-4,-3,2
1558442170008019,0,-2,2,0,-1,-2,-2,-4
1558442170008019,-1,-1,0,-1,-1,-3,4,-1
1558442170023974,-1,-3,-4,-1,-2,-3,-1,-1
1558442170023974,0,-3,-2,-1,-2,-2,0,2
1558442170025969,-4,-4,-5,0,-3,-3,-4,-8
1558442170025969,-1,-2,0,0,3,0,1,-2
1558442170037937,-2,2,6,0,0,-2,-4,-4
1558442170037937,-3,-3,-8,-3,0,0,-1,-5
1558442170046913,3,-1,0,-3,-2,-2,0,5
1558442170046913,-2,1,-2,-2,-3,-5,-5,-4
1558442170062054,1,-2,-3,-2,-2,-1,0,1
1558442170062054,-1,2,5,1,2,3,3,-1
1558442170068349,1,0,-3,-1,1,3,1,-1
1558442170068349,1,-1,1,4,0,1,3,3
1558442170083816,-2,-2,-5,-5,-3,-3,3,-2
1558442170083816,0,-1,0,-1,-3,-5,-7,-5
1558442170085810,0,0,5,0,-1,2,0,-2
1558442170085810,2,2,-2,2,6,6,2,1
1558442170097780,-1,0,-2,-1,-2,-2,6,3
1558442170097780,-3,-1,-1,2,1,2,-6,-8
1558442170106753,-5,-3,-2,-2,-6,-3,0,-2
1558442170106753,1,-2,4,-1,-3,-3,-3,-1
1558442170120774,0,-4,0,2,1,3,2,-2
1558442170120774,1,-1,-1,-3,0,-2,0,-1
1558442170127732,-1,-3,-4,0,-3,-4,0,-1
1558442170127732,-3,-4,-4,-4,-7,-6,-5,-7
1558442170151670,2,0,-2,1,1,1,-2,6
1558442170151670,2,-1,2,-1,3,3,3,0
1558442170153665,0,0,3,2,6,3,-2,0
1558442170153665,-1,0,-3,-1,-3,-2,-3,-1
1558442170157672,-3,-1,-5,-3,-5,-3,-6,-1
1558442170157672,-3,0,3,1,1,-1,0,0
1558442170166595,1,0,3,-3,-1,-2,-1,1
1558442170166595,-1,-6,-14,-5,-1,1,4,0
1558442170181558,-6,-1,1,0,-3,-4,-7,-10
1558442170181558,0,0,-5,-3,-2,-2,-2,2
1558442170187537,-4,-3,-3,-1,-1,-2,-1,-1
1558442170187537,-1,1,2,-1,0,3,2,0
1558442170204532,-1,-1,3,0,3,-2,1,1
1558442170204532,-4,-3,-11,-3,-3,1,-4,-5
1558442170205489,0,0,0,-1,-1,-4,-1,-2
1558442170205489,-1,-1,4,1,-1,-4,-6,-1
1558442170217457,1,-5,-10,-1,2,4,8,1
1558442170217457,1,0,6,2,3,0,-1,2
1558442170234411,-1,0,0,-2,-2,-3,-2,-3
1558442170234411,-2,-2,2,-1,-4,-2,-2,1
1558442170241451,1,3,-2,-2,-3,0,-1,2
1558442170241451,-2,-2,-1,0,-3,2,-1,-2
1558442170248374,-2,-3,-6,-2,-2,-2,-3,2
1558442170248374,-1,-2,4,1,4,1,-1,-2
1558442170264331,0,0,2,-3,-5,-6,-6,-4
1558442170264331,-2,-3,-5,-5,-5,-3,-1,-5
1558442170265365,0,3,4,1,2,4,3,5
1558442170265365,1,0,-5,-1,3,1,1,-5
1558442170278328,2,0,-1,-3,-1,2,4,6
1558442170278328,-1,0,1,3,-4,-4,-5,0
1558442170287297,1,1,2,0,-1,-1,-2,-1
1558442170287297,-4,-5,4,-2,-5,-5,-4,-2
1558442170301232,-1,-2,-7,-2,-1,-3,-1,-3
1558442170301232,-3,-4,-4,-5,-7,-5,-3,-2
1558442170308213,-1,-1,-2,0,4,5,0,0
1558442170308213,-3,0,-2,0,0,-4,0,-1
1558442170324210,-2,1,7,-1,1,1,-3,-1
1558442170324210,5,1,1,0,2,1,4,2
1558442170326173,-5,-2,0,-2,-6,-6,-7,-6
1558442170326173,-1,0,3,0,-4,-2,-3,-2
1558442170347111,-3,-2,-3,-1,4,4,0,-3
1558442170347111,0,3,1,-1,0,-3,2,1
1558442170348108,1,-5,-9,-3,-3,-1,4,3
1558442170348108,1,1,0,-3,-2,-3,-3,-1
1558442170361073,1,-2,1,-1,2,-1,-4,-8
1558442170361073,1,1,5,-1,-2,1,1,1
1558442170368081,-3,-4,-11,-1,1,1,-2,-3
1558442170368081,-2,0,0,-2,-1,0,0,2
1558442170384012,-3,-2,-5,-3,-5,-3,-1,0
1558442170384012,-1,-1,1,0,1,0,-1,-2
1558442170386007,2,0,3,0,-4,-5,-2,-3
1558442170386007,0,0,-2,-1,-2,-1,1,3
1558442170397976,-1,-2,-2,0,1,2,-2,-2
1558442170397976,-1,-1,-2,-1,-2,-2,-1,0
1558442170406953,-1,0,-1,0,0,1,1,2
1558442170406953,-2,-3,-4,-2,-4,-2,0,-4
1558442170421023,2,-1,2,-2,-3,-3,3,0
1558442170421023,0,-1,0,2,11,4,-3,4
1558442170428167,-1,1,5,0,-4,-2,-6,-4
1558442170428167,0,-4,-11,-4,-5,-2,0,-2
1558442170445011,-2,-2,1,2,3,1,-1,-2
1558442170445011,-3,-4,-9,-4,-5,-5,-3,-3
1558442170445850,0,2,1,2,6,4,2,7
1558442170445850,-5,2,4,1,-1,-3,-4,-5
1558442170458102,-1,-1,5,-1,-8,-2,0,1
1558442170458102,-1,-2,-3,-2,-2,-2,-1,-4
1558442170466794,0,-3,-1,0,0,-1,2,-2
1558442170466794,5,3,4,1,5,5,4,7
1558442170480752,-2,0,-4,2,1,-2,-3,-2
1558442170480752,-1,1,2,0,-5,-3,-2,-1
1558442170488016,-2,-4,-7,-7,-5,-2,-2,-5
1558442170488016,-1,-3,-3,1,5,2,5,2
1558442170511976,0,0,-1,-3,2,0,-3,1
1558442170511976,-4,-3,1,2,-6,-5,-5,-3
1558442170513666,-4,-3,3,-1,-5,-3,-3,-5
1558442170513666,1,-2,-5,-2,-2,-2,-2,-4
1558442170518677,-5,-4,-2,0,-1,0,1,1
1558442170518677,0,0,-3,-1,-3,-3,-2,-2
1558442170526943,2,1,4,1,1,2,3,2
1558442170526943,0,-2,-7,-1,1,1,-2,0
1558442170541897,-1,-2,-3,0,-2,-5,-3,1
1558442170541897,-3,0,0,-1,2,2,1,-2
1558442170547574,-1,0,-2,-1,-1,-4,-3,-1
1558442170547574,-1,0,2,-1,-2,-1,-2,-2
1558442170563532,0,1,2,1,-1,1,1,-1
1558442170563532,0,-4,-5,-2,3,1,0,1
1558442170570516,-1,-2,-2,0,-1,-1,-2,-1
1558442170570516,-1,-1,0,-4,-4,-2,1,-1
1558442170586471,0,0,-1,-3,-7,-4,-4,0
1558442170586471,0,-3,1,0,8,6,2,3
1558442170588479,1,-1,-5,-1,2,-2,1,4
1558442170588479,-2,2,3,1,0,1,-7,-7
1558442170601759,-3,-3,-2,-3,0,1,-1,-3
1558442170601759,0,2,1,-1,-3,-2,1,5
1558442170607441,-1,-1,-3,-2,-2,-5,2,-1
1558442170607441,-1,-3,-2,0,-5,-2,-2,-2
1558442170623399,1,-1,2,-2,-2,-5,-1,-4
1558442170623399,-3,-2,0,-3,0,3,2,-2
1558442170630352,-1,-3,-9,-2,-2,-1,1,-4
1558442170630352,-2,-2,1,0,-1,0,-3,1
1558442170638397,0,0,-3,-3,-2,-2,-3,1
1558442170638397,-4,-2,-2,-1,-4,-7,-5,-2
1558442170646644,1,1,2,2,5,1,-2,1
1558442170646644,-1,-2,-5,-3,-5,-3,0,1
1558442170661593,2,-1,3,3,7,6,2,2
1558442170661593,-3,-5,-4,-4,-5,-2,0,-2
1558442170675548,-2,-1,3,-2,-9,-6,-5,1
1558442170675548,-2,0,-3,-1,1,-2,-3,-7
1558442170684331,1,0,-1,1,-3,-1,4,10
1558442170684331,0,0,1,1,2,0,-2,-3
1558442170691190,0,-4,-4,-3,1,1,1,-1
1558442170691190,-5,-2,1,-3,-1,-1,-6,-7
1558442170698172,0,-2,-2,-4,-6,-2,-1,-4
1558442170698172,1,2,1,2,3,2,0,-4
1558442170707149,0,-2,-3,0,0,1,0,3
1558442170707149,-3,0,-3,0,0,-3,-4,-7
1558442170721157,0,0,-2,-2,-2,-1,0,0
1558442170721157,1,1,-4,-3,-6,-1,1,-2
1558442170735363,1,1,1,0,3,3,0,1
1558442170735363,1,0,0,0,0,3,1,4
1558442170744339,-2,0,3,0,1,-2,-4,-3
1558442170744339,-2,-3,-4,-1,-3,-3,-4,-2
1558442170750034,-4,-4,-3,-1,-1,-3,-3,-1
1558442170750034,1,-1,2,-2,-5,-1,1,5
1558442170766988,2,0,-1,0,4,1,-1,-2
1558442170766988,0,1,0,-1,0,0,-2,-1
1558442170767985,1,2,2,1,2,5,4,1
1558442170767985,-3,-3,0,-1,1,-4,0,2
1558442170788930,-2,-3,-4,-4,-6,-3,0,-3
1558442170788930,-4,-4,-2,-2,-3,-6,-7,5
1558442170790924,-2,-1,-2,0,-2,0,-5,-5
1558442170790924,1,-1,0,-2,2,2,0,-3
1558442170803889,-6,-4,-4,-1,-1,-3,-3,-1
1558442170803889,-1,-1,-1,-3,-5,-3,-3,-5
1558442170810869,-3,-2,-2,-1,-3,-3,-2,-3
1558442170810869,1,0,2,4,7,5,2,4
1558442170826826,1,0,-2,4,6,4,3,2
1558442170826826,-1,-1,0,1,-1,-1,0,-3
1558442170827823,-3,-1,-3,-4,-7,-6,-5,-6
1558442170827823,-1,-1,0,-3,-7,-2,1,1
1558442170840791,2,1,1,0,4,3,2,0
1558442170840791,1,2,2,0,1,-1,1,3
1558442170847774,-3,-3,-2,-5,-10,-9,-6,-3
1558442170847774,-2,-1,-1,1,0,1,1,0
1558442170863727,-3,2,1,0,10,8,5,-4
1558442170863727,0,0,-2,0,1,1,4,4
1558442170870792,-2,0,1,-2,0,1,-7,-5
1558442170870792,-1,-3,-5,-3,-6,-5,-4,4
1558442170886856,-1,-1,0,-2,-6,-3,-6,-7
1558442170886856,-1,-2,-2,1,3,4,3,2
1558442170888661,-4,-2,-1,-1,0,-5,0,-6
1558442170888661,-2,-1,-2,-5,-4,1,-1,0
1558442170901057,-1,-2,-2,1,3,-1,-3,-2
1558442170901057,0,-1,-1,-3,-4,0,0,6
1558442170908447,0,2,3,1,0,2,2,1
1558442170908447,1,2,3,0,3,2,2,-1
1558442170923411,-1,-2,-4,-2,-5,-3,-1,1
1558442170923411,-1,1,3,2,4,2,2,1
1558442170930392,-3,-3,-3,0,-3,-4,-5,-5
1558442170930392,3,-1,0,3,4,2,1,-1
1558442170946451,-2,-1,-5,-4,-7,-9,-5,-1
1558442170946451,-1,-3,0,-1,-2,-1,-4,-4
1558442170948347,4,-1,-2,0,1,3,2,7
1558442170948347,-3,-3,-2,-1,-3,-3,-1,-3
1558442170961311,0,0,6,2,2,3,2,-1
1558442170961311,-3,-2,-5,-2,-4,-2,-4,-7
1558442170968290,2,-3,-3,-2,-4,-3,1,6
1558442170968290,0,-1,-5,0,0,-2,-1,-2
1558442170983438,-3,-1,1,1,3,1,-3,-5
1558442170983438,-1,1,1,1,3,2,0,-2
1558442170990231,0,0,1,-2,2,0,-1,-5
1558442170990231,0,2,0,-2,-1,2,4,4
1558442171007234,-3,-1,0,-3,-7,-8,-2,0
1558442171007234,-4,-5,-5,-1,-4,-6,-7,-4
1558442171008184,0,2,4,1,10,6,0,0
1558442171008184,-2,0,-3,1,0,-4,1,1
1558442171021186,-1,-1,0,-3,-4,1,-2,-2
1558442171021186,1,1,0,-5,-8,-6,-1,-3
1558442171028174,0,-1,-5,0,-4,-1,0,2
1558442171028174,-4,0,2,0,1,-1,-1,-2
1558442171043137,2,-2,-1,-1,1,1,0,5
1558442171043137,2,0,0,1,4,4,3,1
1558442171050108,-4,-1,-2,-2,-7,-3,0,-3
1558442171050108,0,-1,-2,-2,-1,0,-3,-6
1558442171066057,0,0,-1,-2,2,0,2,3
1558442171066057,-2,-3,-3,-5,-1,-4,-3,-3
1558442171073046,-2,-2,4,0,0,2,1,-1
1558442171073046,-2,-6,-7,-1,-4,-6,-4,-2
1558442171080988,-1,-2,-1,-4,-7,-5,-3,-1
1558442171080988,-5,-2,-4,0,-1,-1,0,-4
1558442171087970,0,-2,-1,-4,-2,-1,-2,2
1558442171087970,0,-2,0,-2,-2,-4,-3,-4
1558442171103928,0,2,0,1,1,2,2,0
1558442171103928,2,2,-1,1,2,0,-4,0
1558442171109912,0,0,-2,1,0,0,1,4
1558442171109912,0,-1,0,-1,0,1,-1,-2
1558442171127054,-2,-1,-1,0,2,3,1,1
1558442171127054,-3,2,5,-2,-4,0,1,-5
1558442171127863,-2,-5,-11,-2,-1,-3,-2,-4
1558442171127863,0,2,2,-1,2,3,3,7
1558442171141020,0,0,-4,0,-6,-3,-5,-8
1558442171141020,2,-1,2,-2,-5,-5,-3,1
1558442171147812,0,1,0,-1,-1,1,-1,-1
1558442171147812,0,1,1,1,1,3,2,-3
1558442171163767,0,-2,1,1,2,-5,-3,0
1558442171163767,-2,-3,-3,-1,-2,2,3,3
1558442171170749,-4,-1,2,0,0,-2,2,-8
1558442171170749,-1,-4,-12,0,0,-2,-1,0
1558442171186778,-3,-3,-5,-3,-2,2,0,-1
1558442171186778,0,-2,1,1,1,-2,-3,0
1558442171188715,-1,0,-1,-4,-3,-3,-1,-3
1558442171188715,-1,0,5,-2,-5,-3,-5,-5
1558442171200834,-2,-1,-1,-1,-1,-2,-3,-1
1558442171200834,0,1,-7,-3,1,0,0,2
1558442171209761,2,2,5,0,1,1,1,3
1558442171209761,-1,1,-2,-1,2,2,4,1
1558442171223784,-7,-4,-6,-2,-4,-6,-4,-6
1558442171223784,-1,0,1,-3,-5,-5,-5,-1
1558442171237747,2,-1,-3,0,-3,-2,-1,3
1558442171237747,-1,1,-1,1,6,6,-1,-2
1558442171246665,2,1,0,-2,1,3,4,7
1558442171246665,1,1,-1,0,1,-2,-1,-4
1558442171247662,-2,-1,1,2,-5,-4,-3,-3
1558442171247662,-1,-1,2,-5,-5,-3,-2,-3
1558442171260687,-2,-2,-1,-1,0,1,2,1
1558442171260687,-1,-1,-1,-1,4,5,3,2
1558442171269601,1,1,-1,1,0,-1,-2,-2
1558442171269601,-1,-3,3,-1,-3,-4,-2,-1
1558442171284031,0,-1,-4,-3,0,0,-1,1
1558442171284031,-3,-3,0,1,-1,-3,-2,-1
1558442171290077,-1,-2,-4,-4,-4,-6,-3,-1
1558442171290077,-2,0,-2,-2,-5,-3,-3,-4
1558442171307003,2,-1,2,0,-3,0,0,-1
1558442171307003,0,-1,3,-2,2,2,1,1
1558442171308008,1,-1,-7,0,7,3,-3,-4
1558442171308008,-3,-1,3,-1,-2,-3,-2,-1
1558442171319972,0,-1,-2,-1,-5,-5,0,-1
1558442171319972,-1,0,-5,0,-6,-1,-1,-6
1558442171328953,-3,0,1,-3,5,4,1,1
1558442171328953,0,1,0,1,2,1,-2,-2
1558442171351892,0,-1,0,-2,-4,-4,-6,-2
1558442171351892,-4,-5,-4,-5,-5,-3,2,1
1558442171352853,2,-1,1,0,-1,-1,1,3
1558442171352853,3,-2,-5,0,7,6,5,9
1558442171366813,0,0,3,1,3,0,-3,-4
1558442171366813,-2,-1,-1,1,-1,-3,-3,-7
1558442171367811,-4,0,-1,-5,-6,-3,-1,-2
1558442171367811,0,-1,3,-1,-3,0,0,-3
1558442171380776,1,1,1,0,1,0,2,1
1558442171380776,0,-2,2,2,3,3,-1,0
1558442171389752,-2,-3,-3,-1,-1,1,0,-2
1558442171389752,-3,-2,-2,-2,-2,-4,-2,-1
1558442171403715,-2,2,-1,0,0,1,-2,0
1558442171403715,-1,-2,-7,-3,-5,-3,-1,-3
1558442171410853,0,-3,-1,-1,-1,2,3,10
1558442171410853,4,1,2,1,5,1,0,-3
1558442171426799,0,-2,-2,1,2,-1,1,-3
1558442171426799,0,-1,2,-2,1,0,1,1
1558442171428721,1,1,1,1,-3,-2,-2,-2
1558442171428721,-3,0,-5,-2,-7,-5,-2,3
1558442171440757,-6,-3,0,-1,-5,-1,-2,-4
1558442171440757,3,2,1,3,8,6,1,4
1558442171449592,-2,-3,-2,-1,0,-4,-3,-4
1558442171449592,-1,-1,0,-3,-2,-6,-6,-5
1558442171463553,-2,-2,-5,-2,-5,-3,0,0
1558442171463553,3,2,2,-1,3,3,5,5
1558442171470638,-2,0,2,-3,-2,-2,-7,-3
1558442171470638,-4,-4,-1,0,-3,-2,1,-3
1558442171486531,0,-1,-1,-3,-5,-4,-1,1
1558442171486531,-1,0,3,1,4,3,2,-3
1558442171492554,2,-3,-4,-1,1,1,1,4
1558442171492554,0,0,-1,-2,-2,-2,-2,0
1558442171500528,-3,-3,-1,-2,-3,-3,-6,-4
1558442171500528,-3,-1,-3,-3,-8,-3,2,1
1558442171509432,-1,5,6,3,8,7,6,-3
1558442171509432,-1,1,-6,-3,-5,-3,-2,2
1558442171523441,-2,-3,-2,-1,0,-1,-2,-6
1558442171523441,-2,-1,-2,-1,-4,-2,-6,-6
1558442171530380,-2,-2,-5,-3,-3,-2,1,1
1558442171530380,1,1,4,0,1,-1,0,-6
1558442171546370,0,-1,-2,-1,5,5,5,7
1558442171546370,-1,-2,2,-1,-5,-5,-2,4
1558442171553344,-1,-2,2,-1,-5,-6,-4,-4
1558442171553344,0,-4,-7,-3,-2,-1,-4,2
1558442171560333,-1,-2,-6,-2,1,2,-2,-7
1558442171560333,0,-2,-3,-2,-4,-2,-4,-2
1558442171569275,-1,1,1,0,0,0,0,-2
1558442171569275,1,1,4,0,4,1,1,2
1558442171583235,-1,0,-1,-1,0,-2,1,-1
1558442171583235,-3,-1,0,-1,-2,-3,-1,-2
1558442171590215,-6,-6,-6,-4,-4,-4,-2,-3
1558442171590215,-2,-3,-2,-2,-4,-1,0,-1
1558442171606173,1,2,10,0,-1,0,0,3
1558442171606173,-6,-7,-22,-6,-3,-1,0,-4
1558442171613280,2,0,3,2,9,4,2,-1
1558442171613280,-3,-4,-2,0,-3,0,-1,1
1558442171620135,0,2,5,2,5,4,2,0
1558442171620135,0,1,0,-2,0,-3,-2,-1
1558442171629173,-3,-1,0,1,-3,0,1,-2
1558442171629173,-2,0,-2,1,4,0,-5,-8
1558442171644170,1,-1,-1,-2,-7,-7,-4,4
1558442171644170,-1,0,1,-1,2,0,-2,-2
1558442171650190,0,-1,-2,-2,-4,-2,2,4
1558442171650190,-1,-3,-4,-3,-5,-4,-5,-6
1558442171674056,-3,-3,-5,-2,1,1,-3,-3
1558442171674056,-1,2,4,0,1,-4,-2,-3
1558442171675986,-2,-5,-9,-6,-6,-2,0,-1
1558442171675986,-1,-2,1,-2,4,6,3,3
1558442171688984,0,2,5,2,3,2,-1,1
1558442171688984,1,-1,-4,-1,-2,-2,-1,-1
1558442171690948,1,3,1,1,1,0,-1,-3
1558442171690948,-1,1,1,-2,-5,-7,-1,2
1558442171704009,-4,-4,-8,-4,-5,-1,-1,-1
1558442171704009,2,1,5,3,2,2,1,1
1558442171710032,2,0,-3,0,2,-1,0,-3
1558442171710032,-1,0,5,-1,-2,-4,-6,1
1558442171725989,2,1,5,2,5,4,4,-2
1558442171725989,-2,-5,-9,-1,-2,-3,-2,1
1558442171732933,-2,-5,0,-2,-1,-4,-5,-2
1558442171732933,3,0,-7,1,3,9,7,10
1558442171756961,-1,-2,-2,-2,0,0,-3,-3
1558442171756961,-1,-1,5,1,0,-1,1,4
1558442171757926,-1,1,2,-1,-6,-7,-6,-6
1558442171757926,-6,-1,0,-3,-6,-6,-2,-6
1558442171763912,-3,-5,-13,-7,-5,-1,-1,0
1558442171763912,0,0,-1,-2,1,0,2,6
1558442171769896,1,1,4,2,4,4,-2,5
1558442171769896,-6,-3,-5,-2,-3,-4,-8,-13
1558442171785883,-4,0,-6,-3,-7,0,1,0
1558442171785883,-3,-3,-6,-3,-1,2,-1,-5
1558442171792861,0,-2,1,0,-5,-9,-6,1
1558442171792861,5,4,9,2,3,3,6,4
1558442171808816,-4,-8,-9,-1,-3,-4,-5,-4
1558442171808816,-3,-1,1,-3,-6,-7,-4,-3
1558442171810783,-3,-2,-1,-3,-6,3,1,2
1558442171810783,-2,-2,-4,2,9,6,1,-3
1558442171839869,1,5,1,0,2,-6,-2,-2
1558442171839869,0,-1,5,-1,-3,-3,-2,-1
1558442171840869,-1,-2,-8,0,0,-1,-1,-3
1558442171840869,-1,-1,-1,-2,-3,-2,0,3
1558442171846145,4,4,7,1,3,5,3,1
1558442171846145,0,0,-2,-1,-1,-2,-3,0
1558442171853086,-3,-2,-2,-3,-8,-5,-3,-1
1558442171853086,-1,-3,-2,-1,-1,1,2,3
1558442171869237,1,3,5,2,5,1,-4,-5
1558442171869237,-2,0,-2,0,0,1,0,-3
1558442171871037,-1,2,-3,-3,5,3,2,-1
1558442171871037,1,2,2,-1,-8,-5,2,2
1558442171884170,-3,-4,-7,-2,-1,2,3,1
1558442171884170,0,-1,2,0,-1,-2,-4,-3
1558442171890354,-6,-5,-3,-3,-6,-6,-2,-5
1558442171890354,1,-1,2,0,4,4,1,0
1558442171914094,2,0,3,-1,-2,-2,5,3
1558442171914094,0,-2,0,0,1,0,-6,-3
1558442171916119,1,1,-2,1,5,6,5,6
1558442171916119,-4,-1,-4,-1,-6,-4,-5,-4
1558442171929052,-3,-2,0,-4,-4,-5,-4,-2
1558442171929052,-1,-2,-3,0,2,4,3,0
1558442171931050,0,0,0,-3,-2,-3,-3,-4
1558442171931050,-1,0,-1,0,1,-2,0,3
1558442171944013,0,-1,1,1,2,-1,2,0
1558442171944013,-2,-3,-7,-1,1,-1,-1,-6
1558442171950031,2,2,2,0,-2,0,-2,-1
1558442171950031,-4,-2,-1,-1,-2,-1,-2,-4
1558442171965984,-1,-5,-7,-3,-7,-8,-4,2
1558442171965984,0,1,-2,-2,-2,1,3,2
1558442171972938,1,0,1,2,3,3,6,3
1558442171972938,0,0,0,0,3,2,-4,-9
1558442171988893,-2,-1,0,-1,0,1,-1,0
1558442171988893,-1,-1,2,0,-2,-1,0,1
1558442171990888,-1,-3,1,-1,-4,-5,-3,0
1558442171990888,-3,-3,-4,-5,-4,-3,1,5
1558442172004849,-4,0,7,0,-3,-2,-5,-13
1558442172004849,-8,-5,-14,-5,-12,-5,-5,0
1558442172010916,1,3,0,1,7,6,0,2
1558442172010916,2,0,-1,2,5,1,11,-1
1558442172025887,-4,1,1,0,-2,-3,-13,-9
1558442172025887,2,3,7,1,2,4,1,0
1558442172032863,-3,-5,-5,-4,-10,-9,-6,1
1558442172032863,-1,-1,-3,-1,-3,-2,-8,-10
1558442172049736,0,-3,-4,-3,-3,-1,4,3
1558442172049736,0,-1,1,-1,-4,-4,-2,1
1558442172050728,-1,-3,-5,4,11,5,-2,-1
1558442172050728,-1,-1,0,-4,-4,-3,0,0
1558442172063694,1,0,1,-1,1,2,5,3
1558442172063694,1,2,5,2,-3,-3,-3,-2
1558442172070708,-2,-4,-5,-1,-3,-2,0,-4
1558442172070708,-2,-3,-2,-4,-5,-7,-4,0
1558442172085674,2,1,0,-1,-4,-1,-2,3
1558442172085674,-5,-6,-2,-1,1,-1,2,-5
1558442172092659,-1,3,4,-1,5,1,-2,-3
1558442172092659,3,1,-2,-1,2,4,6,2
1558442172109612,-2,-1,-4,-2,-1,-3,-9,-2
1558442172109612,4,1,2,-1,0,0,4,5
1558442172110571,-1,0,4,0,2,5,-2,-5
1558442172110571,-3,-3,-4,-1,0,-3,-6,-3
1558442172123534,1,0,0,-1,-5,-2,4,6
1558442172123534,0,-2,0,-2,-2,-4,0,0
1558442172130520,-1,-2,-3,-2,-6,-3,-1,0
1558442172130520,-1,0,2,-2,-3,0,-1,-1
1558442172146475,-2,-4,-10,-3,-4,-4,-1,-4
1558442172146475,2,2,0,1,7,5,-1,0
1558442172152457,-1,-2,-1,0,0,-1,4,-1
1558442172152457,-1,-3,-2,-1,-2,2,0,0
1558442172169409,-2,-1,2,3,5,3,-1,-5
1558442172169409,-3,-1,-2,-3,-6,-6,-2,0
1558442172171403,-1,-1,-2,-2,-5,-2,-1,-7
1558442172171403,1,2,3,2,5,4,1,3
1558442172182376,3,-2,0,0,-2,1,2,1
1558442172182376,-1,-3,-2,0,2,3,5,2
1558442172191351,-1,2,-2,-2,-2,-7,-5,-4
1558442172191351,-4,-2,-2,-4,-9,-8,-6,-3
1558442172206315,-1,-1,-5,1,6,0,1,3
1558442172206315,-2,-1,0,0,3,2,1,-7
1558442172213293,0,-2,-2,-5,-6,-6,-5,1
1558442172213293,-1,0,3,1,0,2,-3,-6
1558442172229250,3,1,3,0,0,4,7,9
1558442172229250,-1,0,0,1,3,2,-4,-10
1558442172230247,-3,-2,-1,-1,-3,1,2,4
1558442172230247,-2,-1,-2,0,0,0,-2,-3
1558442172243248,-1,1,4,1,0,0,0,-4
1558442172243248,0,-4,-4,-6,-5,-5,-4,2
1558442172252215,-2,-3,-7,-2,-5,-5,-6,-2
1558442172252215,1,0,4,1,4,1,-2,2
1558442172266363,0,-2,-9,-3,-1,0,0,4
1558442172266363,2,-2,0,-1,-1,2,4,1
1558442172273344,-6,0,1,-1,0,-4,-6,-2
1558442172273344,-1,-2,-3,0,-1,-2,0,-1
1558442172289302,-2,2,3,0,-6,-4,-2,-2
1558442172289302,1,3,-2,-2,-2,2,-3,-3
1558442172291274,0,-1,-1,-3,-1,1,2,-1
1558442172291274,4,2,0,-1,4,1,3,3
1558442172303265,-7,-5,-1,0,4,-5,-7,-8
1558442172303265,1,-2,0,-1,2,-1,0,10
1558442172312029,-1,-2,-2,-1,-4,-1,-4,-3
1558442172312029,-4,-4,-3,-5,-12,-6,-7,-6
1558442172326053,1,-1,4,-1,0,1,-1,0
1558442172326053,0,-1,-5,0,6,3,3,3
1558442172339985,0,1,5,1,0,1,1,6
1558442172339985,-6,-4,-5,-1,-2,-4,-8,-8
1558442172348963,-3,-5,-3,-4,-6,-6,-3,-3
1558442172348963,-1,3,11,4,-5,-2,0,-3
1558442172350927,4,-1,-2,-4,2,4,8,0
1558442172350927,1,-4,-12,-5,-7,-5,-2,4
1558442172362930,-1,1,3,0,1,4,0,-3
1558442172362930,-2,-2,-8,-3,3,-2,-4,1
1558442172371874,-3,-2,7,3,0,-5,-3,-3
1558442172371874,0,-1,1,-1,-1,0,2,-1
1558442172385936,2,2,-3,-4,-1,0,5,1
1558442172385936,-5,-3,-1,-1,-2,-1,-5,-5
1558442172392917,1,1,1,0,-2,-2,1,1
1558442172392917,-4,-2,-2,0,-2,-5,-6,-4
1558442172408903,-5,-1,-2,-1,-1,0,-7,-8
1558442172408903,0,4,1,-1,-4,-3,2,-4
1558442172414857,-3,-2,-5,-2,0,-2,-1,1
1558442172414857,0,0,2,1,1,1,1,-1
1558442172422993,0,-1,0,0,1,2,-1,4
1558442172422993,0,-1,-1,-2,-1,1,1,0
1558442172431816,-3,-3,0,-1,-3,0,-3,-2
1558442172431816,1,-1,0,-1,1,-1,1,2
1558442172445999,1,-1,-1,-2,0,-2,0,7
1558442172445999,-2,-4,-2,0,-2,-2,-6,-9
1558442172453471,4,3,4,1,4,5,2,-4
1558442172453471,-2,-1,-8,-3,-3,-3,2,2
1558442172469612,-1,-5,-8,-3,-6,-2,-1,-2
1558442172469612,0,0,-3,-2,2,-1,2,4
1558442172475572,-2,-1,-2,-2,-2,-1,-4,1
1558442172475572,-2,0,4,2,5,5,0,1
1558442172482423,-1,-1,-1,0,1,1,-1,-1
1558442172482423,-1,0,0,-3,-3,-3,0,1
1558442172491373,-3,-3,-6,-3,-3,-3,-2,-5
1558442172491373,0,1,-1,-2,-7,-6,1,7
1558442172506413,-2,1,4,-1,-3,-4,-7,-9
1558442172506413,-1,-4,-5,-1,4,4,0,4
1558442172512371,0,1,4,1,5,4,2,-2
1558442172512371,0,-1,-6,2,7,4,1,-2
1558442172528309,0,-2,-1,-3,-3,-4,0,3
1558442172528309,-5,0,1,-1,-9,-4,-2,-5
1558442172535287,2,0,-3,-2,-3,-2,-1,-2
1558442172535287,-3,-2,1,0,-3,-5,-2,-3
1558442172543270,1,2,0,-1,-2,3,2,0
1558442172543270,-1,-4,-2,0,-2,-4,-7,1
1558442172552211,2,0,-3,1,0,0,-2,-5
1558442172552211,0,-1,-1,-3,-5,0,1,0
1558442172566213,-2,-1,-3,-2,-1,-2,-4,-7
1558442172566213,0,1,5,1,4,1,4,3
1558442172573194,-2,1,3,1,7,4,3,1
1558442172573194,-2,-4,0,-1,-1,-2,-4,-7
1558442172588117,-1,-1,-2,-2,-9,-9,-2,1
1558442172588117,-2,-1,-2,-6,-9,-8,-5,-6
1558442172595136,2,-1,0,0,0,0,2,5
1558442172595136,2,2,1,0,5,6,4,3
1558442172612050,-1,-1,-2,2,8,4,3,5
1558442172612050,-4,-4,-5,-1,-2,-4,-6,-8
1558442172613048,-3,-2,-3,-6,-10,-8,-5,0
1558442172613048,0,-1,0,-1,-7,-3,-1,-2
1558442172626224,0,-1,-3,2,3,2,-1,-1
1558442172626224,-1,0,0,0,3,2,0,2
1558442172633199,-3,-2,-5,-1,-2,-1,-1,-1
1558442172633199,3,1,0,-2,-5,-5,-2,2
1558442172649138,-1,0,2,0,-4,1,0,-4
1558442172649138,-2,-1,-1,0,9,8,6,0
1558442172655983,-2,-2,-2,1,4,3,-1,0
1558442172655983,-2,0,0,-1,1,-2,-2,0
1558442172678979,2,1,9,0,-5,-6,-3,-1
1558442172678979,-1,-6,-20,-8,-12,-7,0,-2
1558442172680868,-1,-2,-1,0,-1,0,-6,6
1558442172680868,-3,-1,4,2,7,4,-4,-10
1558442172685927,-1,-3,-2,-1,1,-1,-1,-1
1558442172685927,0,0,3,-2,-3,-2,-1,0
1558442172692911,2,0,1,-1,-1,-2,1,-3
1558442172692911,-2,-1,-3,-4,-6,-2,-1,1
1558442172708841,-3,-1,-1,0,-1,3,-1,-2
1558442172708841,0,2,3,1,1,0,-2,-1
1558442172715772,-1,-1,-1,0,0,-1,0,2
1558442172715772,2,3,4,1,1,2,0,-2
1558442172731730,2,-1,0,-2,0,-1,4,0
1558442172731730,-1,-4,-2,-3,-5,-3,2,1
1558442172732728,-5,-2,-2,-2,-6,-8,-11,-4
1558442172732728,1,-2,0,1,4,4,0,0
1558442172745736,-1,-1,-2,-3,-2,-1,0,-1
1558442172745736,1,3,2,2,-1,1,0,-3
1558442172752674,-3,-3,-2,-2,-5,-5,-3,-5
1558442172752674,-1,-1,-2,1,0,5,3,3
1558442172768631,-3,0,-2,0,3,-1,-3,3
1558442172768631,-1,1,0,-1,-3,-3,-6,-6
1558442172775611,-2,-2,-4,-4,-5,-2,1,0
1558442172775611,-4,-2,-4,-4,-9,-6,-5,-1
1558442172791568,-1,-1,0,-3,-4,-4,0,-4
1558442172791568,3,2,4,2,9,7,1,7
1558442172793576,1,3,3,2,7,3,5,-2
1558442172793576,-3,-4,-5,-4,-8,-6,-9,-3
1558442172805531,-2,-3,-3,0,-5,-7,-5,-3
1558442172805531,-1,-1,0,-1,-3,-1,-2,2
1558442172812514,1,-2,0,0,3,2,-2,-7
1558442172812514,-2,-3,-1,-1,1,-1,4,0
1558442172828471,-3,-2,-4,-1,-1,0,0,0
1558442172828471,-1,-2,4,-2,-1,-2,-1,-2
1558442172843482,-1,-2,-5,-1,0,-2,1,-1
1558442172843482,3,0,-1,-1,3,1,4,1
1558442172851562,1,-2,-1,-1,-1,2,0,3
1558442172851562,-6,-7,-2,-2,-9,-8,-5,-6
1558442172853404,-2,1,2,2,-5,0,3,0
1558442172853404,-2,-3,-5,-1,-2,-2,-4,-9
1558442172866532,-3,-1,-2,-1,-1,-1,-2,-4
1558442172866532,-1,0,-1,-1,-2,-3,1,5
1558442172872514,0,2,3,-2,3,5,2,-6
1558442172872514,0,-2,3,4,4,-1,1,5
1558442172888475,-4,-2,-1,-3,-2,-1,-4,-3
1558442172888475,-2,-5,-12,-6,-3,-2,-1,1
1558442172895293,0,1,0,0,-2,-4,-1,-1
1558442172895293,0,2,0,-1,4,5,3,-2
1558442172911250,3,1,3,2,3,0,3,6
1558442172911250,0,1,-1,-1,-5,-4,-4,-7
1558442172913244,-1,-2,-3,-4,-11,-5,-4,2
1558442172913244,-4,-6,-5,-6,-7,-4,0,-1
1558442172926210,3,2,5,4,7,8,1,-4
1558442172926210,4,2,2,3,13,4,1,3
1558442172933191,-3,0,3,0,2,1,-2,-2
1558442172933191,0,1,1,-3,-5,-3,1,-1
1558442172948151,-4,-4,-7,-8,-12,-9,-4,1
1558442172948151,-3,0,1,-1,-6,-3,-2,-6
1558442172955133,-1,-1,-1,0,3,3,1,4
1558442172955133,0,2,2,2,2,1,0,-3
1558442172972089,-1,-2,-4,-1,1,-1,2,-2
1558442172972089,-2,-1,-3,-2,-4,-2,-3,2
1558442172973086,-3,-5,-5,-5,-8,-6,-5,-2
1558442172973086,-2,-1,-4,-3,-5,-2,-2,1
1558442172986049,0,-1,1,5,12,3,2,0
1558442172986049,1,0,1,-1,2,4,0,-5
1558442172993031,-1,0,2,0,0,2,-4,-5
1558442172993031,-1,-4,-14,-3,-4,-4,-3,3
1558442173008989,-2,1,-1,-4,-11,-7,-3,-5
1558442173008989,-1,-2,1,-3,-2,-1,-2,1
1558442173014973,4,3,8,4,7,4,4,5
1558442173014973,-2,0,2,1,-1,-3,-5,-5
1558442173031949,-3,-7,-17,-5,-2,-1,0,-1
1558442173031949,-4,-5,-7,-3,-2,-8,-2,1
1558442173032927,0,-1,3,1,-7,-4,0,0
1558442173032927,-4,-4,-2,1,4,0,3,-1
1558442173045889,-2,1,3,-1,-5,-5,-4,-2
1558442173045889,2,0,5,1,-2,5,5,3
1558442173059852,-2,-2,-6,0,9,3,-2,-4
1558442173059852,2,3,11,0,1,-3,-1,3
1558442173068828,-3,-2,-1,-1,2,2,-1,-4
1558442173068828,1,-1,-1,1,-1,-1,3,4
1558442173074814,-2,-2,-1,-3,-5,-3,-1,-3
1558442173074814,1,1,0,-1,0,1,0,-1
1558442173091770,0,0,-2,2,0,1,-1,-2
1558442173091770,-4,0,-3,-1,-4,-5,-1,-4
1558442173092764,2,1,-2,-1,-2,-2,2,1
1558442173092764,-1,1,2,-1,-2,0,-3,-1
1558442173105730,1,-2,-2,-1,-4,-4,-4,3
1558442173105730,-3,-1,-2,0,3,1,-2,-4
1558442173114705,-3,-4,-5,-3,-3,-4,-3,5
1558442173114705,-2,-2,-3,0,1,2,-1,-6
1558442173128668,1,2,5,1,-2,-2,-1,1
1558442173128668,0,0,-3,-3,-6,-6,-5,-1
1558442173135649,-1,-2,-4,-3,-6,-3,0,0
1558442173135649,-1,-2,0,1,4,3,1,-1
1558442173151609,-2,0,4,3,8,3,-3,-10
1558442173151609,2,-1,-1,2,6,3,1,2
1558442173153605,-2,-3,-10,-4,-2,-2,0,-1
1558442173153605,4,0,2,-1,-3,0,1,6
1558442173165573,-2,-1,-4,-5,-5,-3,3,0
1558442173165573,-3,1,1,0,1,1,-3,-7
1558442173181531,0,2,3,-2,-2,-3,-2,-1
1558442173181531,-3,-3,-6,-3,-8,-5,-6,-2
1558442173188508,0,0,4,0,0,3,2,0
1558442173188508,1,-1,-2,-1,4,3,0,1
1558442173195491,-1,-3,-2,2,5,-1,-2,-2
1558442173195491,-1,-2,-1,-2,-8,-3,3,-3
1558442173211447,2,0,-1,1,-3,2,-2,0
1558442173211447,0,0,2,-1,1,2,-1,5
1558442173213443,-4,-4,-3,-1,-3,-4,0,-4
1558442173213443,-8,-4,-6,-4,-3,-8,-4,-11
1558442173225410,-2,-3,-4,-2,-2,-2,-2,2
1558442173225410,-1,0,1,-1,-3,-2,0,-3
1558442173234405,0,2,1,0,3,1,0,2
1558442173234405,3,1,1,-3,-3,-4,-4,3
1558442173248350,-1,1,-2,-2,-1,-3,-2,-1
1558442173248350,-3,0,2,1,3,2,-1,-3
1558442173255332,-3,-4,-4,-4,-6,-3,1,1
1558442173255332,0,0,-4,-2,0,1,1,-1
1558442173271287,-2,0,-3,1,2,2,1,2
1558442173271287,0,-1,0,-2,-1,-8,-4,4
1558442173273280,-3,2,2,1,-5,1,-2,-10
1558442173273280,-2,-1,-2,-2,6,9,2,-2
1558442173285256,2,0,4,2,4,2,3,3
1558442173285256,-3,0,-2,-3,-2,-4,-4,-2
1558442173294228,-1,-3,-3,-1,-5,-5,-3,-1
1558442173294228,0,-1,2,-1,-2,-5,0,5
1558442173308187,-2,-2,-3,-1,-3,-2,-2,-6
1558442173308187,0,-1,-1,-1,0,2,3,0
1558442173315172,1,-2,-3,-2,-2,0,-3,0
1558442173315172,-2,-1,-1,0,-5,-5,-4,-3
1558442173331128,-2,-1,-1,-1,3,2,-2,0
1558442173331128,2,-1,-4,2,5,1,0,1
1558442173346092,0,2,4,-1,3,1,3,0
1558442173346092,1,-2,-2,-2,-1,1,2,-2
1558442173347084,-5,-5,-6,-5,-8,-5,-8,-6
1558442173347084,1,0,1,-1,-2,-1,1,-2
1558442173354065,-1,-1,-2,0,0,0,-3,-1
1558442173354065,1,3,3,2,0,0,6,5
1558442173368029,-2,-1,0,-2,-3,-4,-4,-2
1558442173368029,-5,-1,-5,-3,-4,-3,-4,-1
1558442173375013,-2,0,2,-2,0,2,0,3
1558442173375013,-4,-4,-3,-1,-3,-1,-4,-2
1558442173390965,2,1,1,-2,-1,-2,-1,-2
1558442173390965,-2,-3,-2,-1,-2,0,1,-1
1558442173397951,3,1,3,1,6,1,2,0
1558442173397951,-2,-1,-4,-3,-1,-1,1,0
1558442173404933,-3,-3,4,1,0,0,-2,-4
1558442173404933,1,-1,-2,-2,3,1,1,-2
1558442173421887,-2,-4,-10,-3,-5,-6,-6,3
1558442173421887,0,1,2,2,4,5,0,-2
1558442173428896,-1,-2,-4,-5,-8,-6,-2,1
1558442173428896,-2,0,2,0,-2,2,2,-4
1558442173434858,1,1,1,0,4,2,6,-3
1558442173434858,-1,-3,2,1,0,-5,-7,1
1558442173450809,-2,-3,-12,-4,-9,-6,-1,2
1558442173450809,-1,-2,6,2,6,4,1,-3
1558442173457790,-3,-2,-7,-2,0,3,-1,-8
1558442173457790,0,1,2,-3,-5,-5,0,3
1558442173465766,-2,2,4,0,0,0,3,-2
1558442173465766,-1,-4,-4,-3,-8,-7,-6,-3
1558442173473747,1,-1,0,1,3,3,1,7
1558442173473747,-3,1,4,2,9,6,1,-5
1558442173488706,-1,-3,-1,-1,-3,-4,-1,2
1558442173488706,-1,0,0,-1,-4,-1,1,1
1558442173495706,-2,-1,-1,-5,-12,-8,0,-3
1558442173495706,0,1,-9,-1,0,2,-4,-3
1558442173510657,-1,1,-1,0,6,1,1,0
1558442173510657,-4,-3,1,0,-5,-3,-5,-1
1558442173517628,-1,-1,0,1,7,4,3,0
1558442173517628,0,-1,-1,0,0,-3,-2,3
1558442173534594,-1,-1,-3,-3,0,-2,-2,-7
1558442173534594,1,1,0,-3,-6,-5,-3,0
1558442173535581,-4,-4,-3,-1,-8,-3,-3,2
1558442173535581,-2,-2,-4,-1,-1,-2,1,-11
1558442173548557,-1,0,7,2,7,5,-4,-1
1558442173548557,2,-1,-6,-3,-1,-1,3,5
1558442173555535,-1,-2,-1,-3,-5,-1,-2,-3
1558442173555535,1,-1,-4,-2,-5,-3,-4,1
1558442173571491,-2,-1,2,0,3,3,4,1
1558442173571491,-1,-1,-6,-2,2,0,-1,-1
1558442173577472,1,0,1,0,2,-1,2,2
1558442173577472,-1,0,0,0,-1,-1,-2,1
1558442173594424,0,0,0,-5,-6,-4,0,3
1558442173594424,-1,-3,1,-1,-4,-2,-5,-4
1558442173595422,2,0,0,-1,4,1,2,7
1558442173595422,-5,-2,0,2,2,0,-5,-11
1558442173608384,-4,-1,-1,-1,-3,-2,-2,-4
1558442173608384,-3,-1,-1,-3,-4,-5,-4,-3
1558442173615370,0,-2,-1,0,-4,-1,-1,-3
1558442173615370,1,-1,7,-2,-5,0,0,5
1558442173631324,0,-4,-10,2,9,8,3,4
1558442173631324,-3,-2,0,1,-4,-2,1,-4
1558442173638307,0,1,0,0,-1,-1,-1,2
1558442173638307,-3,1,0,-1,-4,-5,-5,-6
1558442173654263,-1,-1,-1,-1,-6,-1,0,-1
1558442173654263,4,3,4,2,5,3,3,5
1558442173655259,-1,-2,-2,0,0,0,-2,-3
1558442173655259,1,-2,-6,-5,-2,0,3,6
1558442173668226,-2,0,-1,-2,-7,-5,-6,-6
1558442173668226,-3,-2,-1,0,1,4,5,1
1558442173675206,-3,-2,-1,-1,-3,-2,-4,-5
1558442173675206,1,1,2,2,2,3,2,-5
1558442173691165,1,0,-2,-2,-5,-6,1,3
1558442173691165,-1,-1,1,0,4,0,1,0
1558442173698146,0,3,1,1,5,4,-1,2
1558442173698146,-2,-3,-7,-4,-5,-5,-2,3
1558442173714105,3,2,3,-1,-5,-1,4,3
1558442173714105,1,-1,-3,-3,-6,-1,-4,-3
1558442173715100,-1,1,1,2,5,0,-3,-2
1558442173715100,-2,-2,-2,0,4,1,0,1
1558442173728077,-1,-1,0,0,-1,-2,2,0
1558442173728077,-2,-2,-2,-2,-2,-3,-5,0
1558442173735045,-3,-2,-1,-1,-4,-2,-6,-7
1558442173735045,2,-1,1,0,1,0,2,-2
1558442173751006,-3,-4,-8,-4,-2,-1,-5,-4
1558442173751006,-1,-1,-3,0,-1,-2,-1,2
1558442173757987,1,-1,-1,-3,0,-2,2,4
1558442173757987,-5,-1,-1,1,0,-4,-5,-10
1558442173773942,1,0,1,-1,-1,0,3,2
1558442173773942,1,2,0,0,0,4,1,-7
1558442173775938,-3,-4,-6,-2,-1,-4,-3,11
1558442173775938,-1,-1,0,0,-2,-2,0,-2
1558442173788901,-3,-1,-1,0,0,0,-2,1
1558442173788901,-3,-3,-3,-3,-4,-8,-4,-6
1558442173794885,-1,-1,0,-3,-6,-2,0,-7
1558442173794885,0,-1,-2,-1,1,4,4,10
1558442173810845,-2,1,3,-1,1,-1,-5,-1
1558442173810845,-4,-1,-5,-3,-4,-1,0,-4
1558442173817825,-1,0,0,1,6,1,0,-3
1558442173817825,0,-1,2,-3,-7,-3,-1,-3
1558442173833781,4,0,-4,-2,5,4,2,5
1558442173833781,0,0,2,2,5,2,1,0
1558442173835776,-2,-4,-3,-3,-10,-9,-4,-1
1558442173835776,-4,-2,1,0,-5,-3,-3,-3
1558442173848744,2,-1,-1,2,2,1,1,-1
1558442173848744,0,-1,4,2,9,5,9,7
1558442173855727,-1,-2,-9,2,0,0,-6,-8
1558442173855727,0,1,2,-4,-3,-2,-2,0
1558442173870683,-2,-1,-4,-2,-6,-5,0,3
1558442173870683,-4,-2,-2,-2,-5,-6,-6,-13
1558442173877665,-3,-1,1,-2,-3,-3,-1,-3
1558442173877665,2,-1,0,1,4,2,0,3
1558442173893621,0,1,0,-1,1,1,-1,-2
1558442173893621,4,3,2,-2,0,1,3,3
1558442173895617,1,0,2,0,-2,-3,0,-3
1558442173895617,-1,-2,-6,-2,-2,-4,-2,1
1558442173908597,-2,-1,2,0,0,-1,0,-3
1558442173908597,-3,-3,-2,-2,-6,-2,-7,-5
1558442173915564,0,0,-1,-2,-3,1,-1,4
1558442173915564,0,1,0,1,5,2,2,3
1558442173931523,-1,-1,-2,0,4,2,0,1
1558442173931523,-2,2,3,3,5,2,4,0
1558442173939500,0,-1,0,-1,-3,2,0,1
1558442173939500,-2,-3,-1,-3,-7,-5,-3,-8
1558442173954459,0,0,0,-1,-7,-5,-3,0
1558442173954459,1,-1,-3,0,7,4,3,2
1558442173955456,-1,1,1,1,9,6,2,-3
1558442173955456,2,0,-1,-1,0,-4,-1,6
1558442173968421,-4,-2,-1,-2,-7,-7,-3,-8
1558442173968421,-2,-4,-6,-4,-8,-5,-5,3
1558442173975402,1,1,2,0,-2,-2,2,0
1558442173975402,-3,-1,-4,3,7,9,1,-3
1558442173991362,1,-1,5,0,3,1,-1,-1
1558442173991362,-2,-6,-8,-3,-4,-4,-5,-2
1558442173997350,0,-3,0,-1,-2,-3,0,5
1558442173997350,-3,-1,-3,-1,-5,-3,-1,-4
1558442174014301,-2,-3,0,-1,-1,1,-3,-2
1558442174014301,0,0,2,-2,-3,-1,4,1
1558442174015298,-4,-3,-3,-2,-3,-2,-8,-11
1558442174015298,-1,0,-1,1,3,3,2,-1
1558442174027265,0,-1,-6,0,5,0,-2,-3
1558442174027265,0,-2,0,0,-3,-4,-5,3
1558442174036240,-4,-5,-4,-5,-13,-9,-3,-2
1558442174036240,-4,-3,-1,-3,-7,-6,-6,-4
1558442174051201,3,2,3,1,6,2,4,4
1558442174051201,-2,1,1,1,4,4,0,-4
1558442174058182,-1,0,-9,-2,0,-3,-2,-3
1558442174058182,-6,-3,-4,-4,-8,-8,-7,-3
1558442174074152,-5,-2,0,-3,-8,-5,-2,-2
1558442174074152,-1,0,-1,0,1,3,-1,0
1558442174075136,-2,-1,1,2,4,1,1,0
1558442174075136,0,-1,0,0,-2,2,-1,1
1558442174088102,-2,-2,3,0,4,2,1,1
1558442174088102,1,-1,-6,-3,0,-1,2,5
1558442174097078,-6,-2,-2,-2,2,-2,-5,-14
1558442174097078,-2,-4,-4,0,-1,-3,-1,1
1558442174111039,-2,-1,-3,-2,-6,-2,-4,-5
1558442174111039,1,-1,-2,-2,-8,-5,0,6
1558442174118021,3,3,4,2,1,5,1,7
1558442174118021,-1,-2,-1,1,4,5,4,2
1558442174133978,-4,-3,-2,-1,-2,-4,-8,-12
1558442174133978,2,2,2,0,-3,-2,-1,-2
1558442174135975,1,0,3,-2,-2,-3,1,2
1558442174135975,2,4,6,2,5,3,3,1
1558442174147945,0,-8,-6,-2,4,4,5,3
1558442174147945,-3,-2,-9,-5,-4,-3,-4,-8
1558442174156917,1,-2,2,1,3,1,-1,2
1558442174156917,-1,0,-7,-4,0,1,-1,-1
1558442174170880,-2,-1,0,-1,-4,-2,-1,3
1558442174170880,-3,-3,1,-2,-2,-4,-3,-4
1558442174177861,-2,-2,-2,-2,-6,-4,-1,-2
1558442174177861,0,-2,2,-2,-7,-8,-7,-3
1558442174193818,-1,1,-2,1,5,2,2,0
1558442174193818,0,3,4,1,0,1,1,1
1558442174195816,-3,-5,-8,-2,-1,0,-5,-4
1558442174195816,-1,-2,1,-1,-1,-2,0,-3
1558442174207781,2,2,1,-2,-8,-2,-2,4
1558442174207781,-1,1,4,2,7,1,3,-4
1558442174216758,1,1,-2,-2,-3,0,3,1
1558442174216758,0,1,-1,0,0,-1,-1,-2
1558442174230724,1,0,-2,-2,-1,0,3,6
1558442174230724,-3,-4,0,-2,-2,-1,-5,-11
1558442174237702,-1,-1,-1,-3,-3,-4,-1,-1
1558442174237702,-4,2,0,-1,-3,-2,-2,0
