timestamp,emg1,emg2,emg3,emg4,emg5,emg6,emg7,emg8
1558442195376603,0,0,1,2,1,2,-3,-4
1558442195376603,-1,-1,-3,-1,-8,-11,-6,-4
1558442195377601,-2,-3,-1,-4,-5,-3,-5,-2
1558442195377601,-3,1,-3,0,0,-2,0,1
1558442195381591,2,4,5,4,4,8,1,-1
1558442195381591,1,-1,3,0,5,8,4,-1
1558442195384582,2,-3,-6,-1,2,-2,-2,2
1558442195384582,2,-1,6,2,-3,-4,1,4
1558442195387576,-4,-4,-13,-8,-5,-11,-6,-3
1558442195387576,-1,-2,0,-2,-5,-6,-5,0
1558442195398545,-3,-1,-1,-1,-3,0,-3,-1
1558442195398545,-3,-2,-7,-3,1,2,0,-7
1558442195410513,0,3,4,-1,7,0,5,11
1558442195410513,-4,-2,-1,1,2,4,-4,-11
1558442195418508,-3,-2,-4,-3,-9,-14,-7,-2
1558442195418508,-2,-5,-2,-5,-7,-3,-9,-6
1558442195425472,-1,-3,-1,0,-2,4,3,0
1558442195425472,0,-2,-3,1,7,6,6,4
1558442195443425,1,0,5,2,5,4,3,0
1558442195443425,-1,-1,-2,-1,-4,-3,-3,-2
1558442195447414,-1,-2,-4,-3,-9,-12,-9,-4
1558442195447414,-3,-3,-1,-4,-5,-4,-1,3
1558442195494289,1,1,-5,2,2,0,3,0
1558442195494289,0,-4,-1,-1,-1,1,-3,-3
1558442195494289,1,-1,3,1,11,4,5,-3
1558442195494289,2,1,-1,0,-3,-5,0,1
1558442195495286,-3,-5,-1,-3,-13,-8,-5,-3
1558442195495286,3,0,-4,-4,-3,0,2,4
1558442195496284,-3,1,-4,2,2,6,-3,-5
1558442195496284,-1,-1,0,0,2,-1,3,4
1558442195507256,-2,0,1,-1,0,-3,-4,-1
1558442195507256,-2,0,0,0,2,0,0,-6
1558442195515232,0,1,3,-2,-3,1,-2,1
1558442195515232,-1,-1,-2,1,-2,-1,-3,-1
1558442195522214,1,0,0,-2,2,2,1,0
1558442195522214,-2,-1,-1,1,4,6,1,2
1558442195538172,-1,1,-3,-1,-7,-8,-1,2
1558442195538172,-2,-3,-4,-3,-2,0,-3,-4
1558442195544167,1,0,3,-1,4,0,2,-1
1558442195544167,-2,-5,-8,0,-1,-5,-3,-4
1558442195560112,-3,-4,-3,-5,-4,2,-3,-5
1558442195560112,1,-2,1,-4,-8,-5,-2,-1
1558442195567094,-1,-1,-1,1,2,0,0,0
1558442195567094,-3,3,2,0,2,2,-5,-5
1558442195575073,-4,-5,-6,-3,-6,-5,-6,-2
1558442195575073,-3,-4,-3,-1,-3,-3,-2,-4
1558442195582053,1,0,-3,-1,4,6,3,-1
1558442195582053,-1,-1,-4,-4,-1,-4,0,0
1558442195598012,2,1,0,0,-1,-4,-3,-2
1558442195598012,-3,2,0,1,-2,0,-1,2
1558442195604994,1,0,1,2,8,6,3,6
1558442195604994,-5,-2,-2,-2,-6,-5,-5,-12
1558442195619956,-2,-5,-4,-2,-3,-6,-1,1
1558442195619956,0,-2,-2,-3,-4,-8,-3,-3
1558442195626933,-6,-3,-4,-2,-9,-6,-6,-4
1558442195626933,1,-1,1,0,-1,-5,-3,6
1558442195634913,-2,-1,0,0,8,9,1,-4
1558442195634913,3,1,3,1,2,-1,0,4
1558442195641894,-3,-2,-5,-2,-3,-3,-7,-6
1558442195641894,0,0,3,4,2,5,3,-3
1558442195657852,-2,-2,-2,-3,-12,-9,-3,-1
1558442195657852,-1,-2,-7,-2,1,2,0,-2
1558442195672810,1,0,-1,-2,6,4,3,2
1558442195672810,0,0,0,1,5,3,4,5
1558442195673809,3,3,2,2,1,-3,1,2
1558442195673809,-1,-1,3,-1,-4,2,-1,-4
1558442195686774,1,2,0,-2,0,-3,0,2
1558442195686774,-2,-3,-5,-6,-7,-7,-7,-4
1558442195694754,0,2,0,-2,5,6,1,1
1558442195694754,0,0,-1,-1,-4,0,2,1
1558442195701735,0,-1,1,1,-5,-3,-3,-8
1558442195701735,-2,-2,3,-1,0,-7,-3,2
1558442195717693,1,-2,-4,1,1,6,5,2
1558442195717693,-2,1,1,2,12,6,1,-4
1558442195724674,-2,-1,-1,-2,-5,-2,-1,0
1558442195724674,-2,-2,-4,-2,-6,-6,-2,0
1558442195731657,-1,-2,-2,-1,0,-1,-1,-2
1558442195731657,-2,0,1,-3,0,2,-2,-2
1558442195746614,1,-2,-1,-1,0,-3,-3,0
1558442195746614,-1,0,-1,0,-4,-2,-1,1
1558442195755589,-2,-1,0,-2,-5,-9,-6,-5
1558442195755589,1,-1,-4,0,2,3,5,4
1558442195761574,1,2,3,0,3,2,4,8
1558442195761574,-3,-1,-1,-2,-3,2,-5,-8
1558442195777531,-1,0,0,2,3,1,0,-2
1558442195777531,-1,-4,-6,-2,-2,-6,-3,-4
1558442195792492,2,-1,-2,-2,-7,-5,2,1
1558442195792492,3,2,4,2,6,9,7,5
1558442195793488,0,-1,-5,-1,0,6,2,3
1558442195793488,-3,2,1,-2,-4,-8,-3,-3
1558442195807451,-5,-4,-5,-5,-6,-5,-5,-6
1558442195807451,-3,-2,-4,-3,1,-1,-3,0
1558442195823419,1,1,2,0,-2,1,-1,-3
1558442195823419,-1,-2,-2,0,2,-2,1,-2
1558442195825409,0,2,2,1,0,-2,-3,-2
1558442195825409,5,3,6,1,-1,4,2,1
1558442195837372,-1,-5,-5,-5,-10,-11,-5,-1
1558442195837372,0,-1,0,-3,-1,-4,-2,-3
1558442195844354,-4,0,-2,0,0,1,-3,-2
1558442195844354,-1,0,0,-1,-2,2,-1,-3
1558442195852339,-1,-1,0,-1,1,-5,1,2
1558442195852339,0,-1,1,0,-1,5,1,0
1558442195867293,1,1,5,2,4,1,1,-3
1558442195867293,1,0,-3,-2,1,0,3,4
1558442195875296,0,2,0,-1,4,3,0,1
1558442195875296,0,-1,-2,-1,-4,-6,-4,-5
1558442195882257,0,0,1,1,-2,0,-3,-3
1558442195882257,-1,-1,1,0,1,-4,-4,-3
1558442195898216,-3,-1,1,-1,-1,-1,-3,-2
1558442195898216,0,-2,-1,-2,-3,-2,-1,5
1558442195904193,-4,-2,-3,-4,-4,1,-5,-6
1558442195904193,-1,-3,-2,0,-5,-7,0,-5
1558442195912172,0,0,4,1,3,2,2,0
1558442195912172,3,1,0,1,5,5,3,2
1558442195927132,-2,-2,-1,-5,-8,-6,-6,-2
1558442195927132,-2,-5,-9,-1,4,2,2,-3
1558442195935112,-2,-1,2,-1,0,4,0,-5
1558442195935112,-4,-7,-8,-4,-5,0,-1,4
1558442195942091,2,1,1,3,5,8,4,1
1558442195942091,-1,-1,2,-5,-9,-9,-5,2
1558442195958048,-1,0,-1,-1,-7,-5,-7,-10
1558442195958048,-3,-2,1,0,6,3,-1,-1
1558442195966027,1,0,2,-1,4,-4,-1,3
1558442195966027,-1,-2,-4,1,4,6,0,-3
1558442195972010,-1,-1,-1,-3,-6,-7,2,2
1558442195972010,-2,-2,-2,-2,-9,-6,-7,-3
1558442195986972,-4,-5,-8,-6,-12,-8,-7,-7
1558442195986972,3,4,2,0,1,-2,1,2
1558442195994950,2,1,1,2,13,8,2,5
1558442195994950,-3,-1,0,1,4,3,-2,-7
1558442196001931,-3,-5,-5,-2,-2,-2,2,1
1558442196001931,0,2,-2,-1,-3,-1,-2,-2
1558442196017888,-1,-1,-3,-4,-5,-4,-4,0
1558442196017888,-2,-3,1,-1,-7,-9,-7,-1
1558442196024876,1,0,1,2,7,9,6,1
1558442196024876,0,3,7,0,4,0,1,2
1558442196031851,0,1,-2,1,3,2,1,1
1558442196031851,1,1,0,-2,-2,-1,-2,-2
1558442196046811,0,0,-3,-4,-5,-3,-4,1
1558442196046811,-1,-2,1,-2,-4,-4,-5,-6
1558442196054791,-4,-4,-5,-5,-5,-1,-4,-5
1558442196054791,0,-1,-1,0,0,-2,2,-3
1558442196061772,1,0,2,1,1,-7,1,1
1558442196061772,-1,1,1,-1,3,4,2,3
1558442196077728,0,-1,-3,-1,2,4,4,0
1558442196077728,1,-2,-2,-3,-5,-3,-4,-4
1558442196084709,-3,-4,-8,-3,-6,-4,-1,1
1558442196084709,2,-1,-3,1,6,3,-3,3
1558442196100668,-2,1,2,2,2,3,-1,-6
1558442196100668,2,6,8,3,8,7,5,0
1558442196106652,-2,-3,1,0,-3,-8,-4,-3
1558442196106652,-2,-2,-3,-6,-15,-7,-3,2
1558442196115629,-2,-5,-4,-2,-4,-9,-8,-2
1558442196115629,-1,-1,3,-2,-3,-2,1,-2
1558442196121613,0,-1,-2,0,4,8,2,0
1558442196121613,-1,1,4,0,-2,-1,-2,-2
1558442196137570,1,1,0,-1,3,-5,2,5
1558442196137570,0,0,-3,0,3,6,-1,-3
1558442196144551,-1,0,-1,-3,-3,-7,-6,-2
1558442196144551,-4,-7,-7,-5,-10,-5,-4,-6
1558442196160507,1,1,4,-1,-4,-7,-3,-1
1558442196160507,-2,1,1,0,4,2,4,4
1558442196167487,0,0,-5,1,12,9,4,-1
1558442196167487,-1,-2,-1,1,5,-1,1,-2
1558442196175467,-3,-3,-1,-2,-7,-6,-6,1
1558442196175467,-2,1,2,-2,-9,-2,-7,-4
1558442196182447,-1,-2,-1,1,3,1,0,-2
1558442196182447,0,0,-2,-2,0,3,1,-2
1558442196197408,-3,-4,-3,-4,-5,-3,-1,-1
1558442196197408,1,-1,-3,-2,0,2,3,8
1558442196204389,-3,-1,2,-3,-4,-2,-7,-11
1558442196204389,0,-2,-1,-1,-4,-3,-3,-2
1558442196220347,1,3,1,2,4,4,4,1
1558442196220347,-3,-4,-7,-6,-6,-8,-7,-4
1558442196227328,0,1,3,2,3,2,4,3
1558442196227328,-1,-2,-6,-3,-2,4,-2,-2
1558442196235307,0,-1,4,0,-1,-2,-5,-3
1558442196235307,-1,-1,-2,-2,-5,-9,-1,-2
1558442196242288,-1,-1,0,-1,-5,-2,1,1
1558442196242288,-1,3,5,1,6,3,2,2
1558442196266223,1,1,0,1,6,7,3,1
1558442196266223,-2,-1,3,4,-1,-4,0,-1
1558442196267221,0,-1,-1,-2,-5,-7,-6,-2
1558442196267221,0,-1,-3,-3,1,4,0,0
1558442196280188,-3,0,0,-1,-1,3,2,1
1558442196280188,2,2,-2,-1,1,-3,-3,-2
1558442196287168,-1,-1,0,-4,-6,-5,-5,-3
1558442196287168,-2,0,-1,0,-1,-6,-3,0
1558442196295147,2,-2,0,0,0,2,1,-1
1558442196295147,-2,-1,0,-1,-1,-1,-1,-3
1558442196302128,-1,-5,-6,-3,-3,0,-4,-2
1558442196302128,0,-1,0,-3,-7,-5,1,-4
1558442196326063,-1,0,2,0,1,-1,-3,-2
1558442196326063,-2,-3,-8,-1,0,1,-1,-2
1558442196327061,0,1,-4,3,6,3,3,1
1558442196327061,1,-1,0,0,4,3,2,1
1558442196340025,-4,-2,-1,-3,-7,-8,-3,-3
1558442196340025,-3,-2,3,-3,-5,-5,-7,-2
1558442196347009,-3,-1,-1,-2,-4,-3,-1,-2
1558442196347009,-3,-2,-2,-1,0,-4,-3,-2
1558442196354991,-1,0,0,0,-1,1,2,0
1558442196354991,1,-1,0,1,8,9,0,0
1558442196369946,0,3,4,2,6,5,5,3
1558442196369946,0,-1,-1,-2,-4,-6,-6,-3
1558442196377925,1,2,-2,-1,-4,-6,0,-1
1558442196377925,0,0,-2,-1,-6,-2,0,-2
1558442196384911,-2,-6,-4,-2,-2,1,-2,-3
1558442196384911,0,0,-2,-1,-1,-1,-1,0
1558442196399867,-4,-3,-5,-2,-5,-3,-2,-1
1558442196399867,1,1,-1,-1,8,5,4,1
1558442196406848,1,2,2,-3,-5,-1,1,1
1558442196406848,-2,-2,-2,-4,-6,-6,-3,-1
1558442196414827,-2,-4,-2,-2,-3,-1,-2,-4
1558442196414827,1,4,2,1,5,0,3,0
1558442196429789,-3,-4,-3,-1,-1,0,2,1
1558442196429789,-2,0,2,-2,-2,2,4,2
1558442196437771,1,0,-3,-2,5,-3,-4,0
1558442196437771,-2,-5,-2,0,0,3,-2,-3
1558442196444752,1,2,0,0,1,4,0,-1
1558442196444752,-1,1,-1,0,0,0,0,2
1558442196460705,-1,1,0,0,-3,-4,1,0
1558442196460705,-3,-3,-4,-2,-5,-3,-1,-1
1558442196466690,0,0,4,-1,-5,-7,-3,-2
1558442196466690,-1,-2,-5,-1,-3,0,-3,-1
1558442196482647,1,-1,-3,-1,0,0,-1,-1
1558442196482647,0,-1,-2,0,-1,3,2,1
1558442196489629,-2,1,1,-1,0,0,-4,0
1558442196489629,-2,1,6,0,2,1,0,-3
1558442196496610,-3,-2,-6,-3,-5,-1,-3,1
1558442196496610,2,0,-1,1,9,0,-2,1
1558442196506583,0,0,-1,1,2,1,0,-1
1558442196506583,-3,-1,-3,-2,-1,-3,-5,-4
1558442196520549,-2,-3,-2,-4,-10,-5,-5,0
1558442196520549,-2,-2,1,-2,-6,-4,-1,-5
1558442196527537,-1,-2,1,0,1,0,2,0
1558442196527537,2,-2,-9,3,12,9,5,2
1558442196542493,0,-2,1,-3,-7,-8,-8,-5
1558442196542493,-2,-2,-7,-5,-9,-4,0,1
1558442196549469,1,-2,1,1,4,0,-3,1
1558442196549469,-3,-4,-2,1,-4,-3,-3,-7
1558442196565428,-1,1,0,-1,-3,-1,1,5
1558442196565428,1,0,3,0,3,-6,-5,-2
1558442196567422,-2,0,0,0,0,6,-1,-6
1558442196567422,-3,-1,-4,-3,-4,-2,-1,0
1558442196580386,0,-4,-4,1,1,3,-1,-4
1558442196580386,-2,1,3,-3,-8,-6,-3,0
1558442196587367,0,-2,-3,-2,1,3,7,0
1558442196587367,2,3,5,3,12,7,5,-1
1558442196602326,0,-1,1,-1,0,-1,1,2
1558442196602326,-2,-3,-2,-1,1,7,0,-2
1558442196609312,-3,-3,-7,-4,-14,-17,-15,-5
1558442196609312,3,3,5,0,-1,0,3,4
1558442196626268,2,1,3,1,13,11,7,2
1558442196626268,-1,-2,1,2,3,1,0,-1
1558442196627259,-2,-2,-5,-3,-3,-1,1,-2
1558442196627259,-3,0,-1,-5,-11,-9,-6,2
1558442196640228,-3,0,0,-1,-4,0,-3,-3
1558442196640228,-4,-3,-2,0,2,2,0,-1
1558442196647207,1,2,-2,-2,3,0,1,1
1558442196647207,0,-1,1,-1,0,1,-3,1
1558442196663164,-3,-3,-1,1,4,2,0,-5
1558442196663164,0,-1,-1,-2,-2,0,1,0
1558442196669152,-3,-1,-2,-1,-6,-5,-5,-4
1558442196669152,0,-2,2,-4,-4,-1,-2,1
1558442196686105,-1,0,1,-1,-5,-7,-4,-6
1558442196686105,1,0,-2,-2,1,0,2,4
1558442196687102,-1,1,4,2,9,4,2,2
1558442196687102,-3,-2,-4,-2,-2,2,0,-4
1558442196709090,-2,-2,-4,-2,-1,0,0,2
1558442196709090,-1,1,-2,-3,-3,-6,-2,0
1558442196710058,-3,-4,-4,-1,-6,-4,-2,-7
1558442196710058,-1,-2,-1,1,-1,1,-2,-2
1558442196723111,1,-1,1,-1,2,-1,2,3
1558442196723111,-3,-3,-3,-1,-3,-1,-1,-1
1558442196730028,-2,0,1,-1,1,0,1,1
1558442196730028,-2,-4,-1,0,-5,-5,-4,-1
1558442196745944,0,-2,1,0,0,0,-3,-4
1558442196745944,-1,1,5,-1,-2,1,1,-4
1558442196746941,0,-2,-6,-1,-1,-2,0,5
1558442196746941,-3,-2,-6,-1,2,-4,-2,-7
1558442196759904,0,-1,-2,-2,-3,-1,0,-1
1558442196759904,-2,1,-1,0,0,0,-4,-5
1558442196766886,-3,-1,2,-2,-6,0,0,-1
1558442196766886,1,0,1,-1,-3,-1,-1,2
1558442196790821,-2,-1,-2,1,3,-1,-4,-2
1558442196790821,-1,-2,1,-4,-2,1,1,1
1558442196792815,0,1,1,-1,1,-3,1,-2
1558442196792815,-2,-1,1,1,3,4,3,1
1558442196804811,-1,0,-1,-2,-1,-1,0,3
1558442196804811,-2,-2,-4,-3,-12,-11,-9,-3
1558442196805780,0,1,1,0,-3,-2,-3,-6
1558442196805780,1,-1,0,1,7,5,7,1
1558442196820740,-1,-4,0,-2,3,4,2,-1
1558442196820740,1,-3,-1,1,-3,-3,-3,-2
1558442196826724,0,-2,-2,-1,4,3,2,1
1558442196826724,-2,0,-2,-2,-5,-6,-4,-4
1558442196841684,0,2,3,0,-8,-1,3,0
1558442196841684,0,-2,-9,0,0,1,-5,2
1558442196849669,-2,-2,-2,-2,-2,-5,-1,0
1558442196849669,1,2,5,2,5,4,0,5
1558442196872609,-2,-1,-8,0,3,1,-3,-7
1558442196872609,-4,-2,1,-2,-3,-4,-3,-3
1558442196873602,-1,-1,-4,-1,-6,-2,-4,0
1558442196873602,-3,-2,-1,-3,-4,-2,-4,-2
1558442196880589,-1,-1,0,-2,-2,-6,0,1
1558442196880589,-1,-1,-3,-1,2,5,2,-3
1558442196887563,2,1,5,0,-1,-4,0,3
1558442196887563,-2,-5,-9,-3,-7,-11,-6,-3
1558442196902606,0,2,2,1,6,7,4,1
1558442196902606,-4,-4,-1,-2,-2,2,1,-1
1558442196917585,1,1,8,2,2,5,2,2
1558442196917585,0,1,-5,-2,-4,-3,-5,-6
1558442196925464,0,0,0,0,0,-2,1,5
1558442196925464,-2,-1,-1,-2,-2,-2,0,0
1558442196925464,-1,0,1,0,3,2,-3,-4
1558442196925464,-1,0,0,0,-2,-3,-3,-2
1558442196941425,-1,-1,-1,-3,-5,-1,-5,-4
1558442196941425,-1,-2,-4,-1,-6,-1,1,-1
1558442196947445,-2,-3,-5,-4,-6,-1,-2,0
1558442196947445,-1,-2,-1,-4,-4,-2,0,1
1558442196962368,-3,2,0,2,7,5,1,-7
1558442196962368,2,2,6,2,13,6,4,4
1558442196969352,-3,-5,-7,-2,-6,-5,-5,-5
1558442196969352,0,1,3,-1,-1,-3,1,-1
1558442196994277,-4,-8,-5,-2,-6,-5,-4,-2
1558442196994277,4,3,3,1,7,6,3,2
1558442196994277,-1,-1,-6,-2,-5,-3,-1,1
1558442196994277,-2,-2,-5,-2,0,-2,-4,-1
1558442197001259,-1,0,2,-2,-5,-4,-2,-3
1558442197001259,0,-1,3,0,-6,-7,-4,-5
1558442197007242,-3,-4,-8,-5,-1,-3,-1,1
1558442197007242,0,0,-2,-1,-3,-4,1,1
1558442197023199,0,0,-1,0,-2,-5,-4,-4
1558442197023199,-2,-1,-3,0,0,2,-1,-3
1558442197029183,0,0,2,-1,-3,-7,-5,-1
1558442197029183,-1,1,2,3,5,9,5,0
1558442197045141,2,2,3,1,5,6,1,1
1558442197045141,-2,-4,-11,-5,-14,-4,-1,5
1558442197046148,0,1,2,2,3,-3,-2,-1
1558442197046148,1,0,-1,-2,2,3,1,0
1558442197061100,1,1,3,2,11,8,4,1
1558442197061100,-3,-2,0,0,-4,-9,-4,-4
1558442197067084,-2,-2,-2,-2,-6,0,-2,2
1558442197067084,-3,1,8,2,2,2,0,-3
1558442197083039,-3,-5,-16,-7,-13,-9,-4,1
1558442197083039,1,2,11,2,6,0,7,2
1558442197090091,2,1,-9,-1,10,5,0,0
1558442197090091,-2,-4,1,0,-2,-5,-7,-7
1558442197105982,-1,-1,2,-4,-7,-4,2,4
1558442197105982,-5,-3,-4,-1,0,1,-6,-10
1558442197105982,-1,1,5,1,7,10,8,3
1558442197105982,1,1,0,0,2,-6,-3,2
1558442197120949,-2,-3,-4,-6,-11,-7,-1,-1
1558442197120949,4,3,2,4,2,-2,-6,1
1558442197126930,-4,-4,-3,-2,-1,2,0,-8
1558442197126930,-3,-1,-3,-1,-2,2,0,-1
1558442197143881,-1,-3,-3,1,2,-2,-1,-3
1558442197143881,-1,-1,2,-3,-7,-6,1,0
1558442197150048,-1,-2,-1,0,-5,-2,-2,-1
1558442197150048,-1,-4,-5,0,-3,-2,-1,-3
1558442197165913,-1,2,5,0,3,-1,-2,-2
1558442197165913,2,-2,-3,-2,0,1,2,0
1558442197165913,-2,2,5,1,0,3,0,0
1558442197165913,-1,0,0,-2,2,4,0,-1
1558442197188759,0,-2,-3,0,-3,-3,-2,1
1558442197188759,-2,0,-3,1,-1,-2,0,-1
1558442197189756,2,1,-2,-3,-4,-4,1,0
1558442197189756,-2,-1,2,-3,-6,-4,-5,-2
1558442197211697,0,1,-2,1,4,5,-1,-3
1558442197211697,0,-2,-5,-1,8,9,3,-1
1558442197212692,2,0,5,0,1,-4,-1,-1
1558442197212692,-3,-5,-10,-3,-10,-6,-1,0
1558442197225659,-1,-3,2,-2,0,-3,-1,3
1558442197225659,-1,0,1,0,-5,-5,-6,-3
1558442197225659,-4,-4,-3,-3,-1,0,-6,-2
1558442197225659,0,1,7,2,1,-3,-1,-2
1558442197240620,-3,-2,-8,-5,-4,-2,-1,-2
1558442197240620,-3,-3,-4,-2,1,-1,-1,4
1558442197263557,0,1,3,2,5,3,0,-5
1558442197263557,-2,-3,-6,-4,-4,-4,-1,-3
1558442197264553,-3,-1,1,0,-5,-2,-2,-2
1558442197264553,-2,-1,1,-2,-4,1,0,2
1558442197277518,-1,-2,-8,-2,-6,-7,-4,-3
1558442197277518,1,3,-1,3,5,2,0,0
1558442197286605,4,3,3,1,6,3,2,0
1558442197286605,1,-1,3,1,9,11,4,-3
1558442197287492,2,0,4,2,3,-1,7,6
1558442197287492,-2,-1,-5,-3,-8,-2,-4,-5
1558442197307791,-1,2,4,-1,-2,-4,-8,-7
1558442197307791,-3,-6,-17,-7,-8,-4,-1,0
1558442197315447,0,-1,-1,-1,8,4,3,1
1558442197315447,0,1,2,4,8,6,2,4
1558442197323582,0,-1,-1,0,-4,-3,0,0
1558442197323582,-1,-2,4,-2,-6,-5,-9,-3
1558442197329585,1,1,3,-1,-4,3,0,3
1558442197329585,-1,-1,-4,-4,-2,-2,-2,-4
1558442197352320,-2,0,2,0,-5,-2,0,-2
1558442197352320,0,0,-1,-1,4,-4,2,2
1558442197353322,-2,-5,-5,-2,-4,-2,-3,-2
1558442197353322,0,-2,3,2,9,9,5,4
1558442197367279,-1,-1,-1,0,-1,1,-3,-2
1558442197367279,-1,-2,-4,-2,-8,-4,-6,-4
1558442197368276,-5,-4,-4,-6,-11,-10,-6,-5
1558442197368276,-1,-1,0,0,1,3,2,1
1558442197383241,-1,-2,-2,-1,-1,2,1,1
1558442197383241,-2,-1,2,1,2,-1,3,-2
1558442197389220,-1,0,3,0,2,1,-1,-2
1558442197389220,-2,-3,-10,-3,-7,-6,-2,-1
1558442197406175,0,0,3,-1,-3,-1,-1,1
1558442197406175,-1,3,-7,-4,-1,-2,2,3
1558442197412159,-2,1,0,-1,-5,-6,-4,-6
1558442197412159,-2,-2,-1,-1,-2,0,0,-7
1558442197427118,-5,-3,-7,-3,-4,-6,-3,-3
1558442197427118,1,2,6,3,3,-7,0,0
1558442197434099,3,3,2,4,9,14,12,5
1558442197434099,-2,-2,-3,-5,-5,-3,-8,-1
1558442197443546,-4,-2,-2,0,0,-1,-3,-5
1558442197443546,-4,-3,3,-4,-8,-9,-7,-4
1558442197450491,-3,-4,-5,-2,-3,-4,-2,1
1558442197450491,3,1,3,1,2,4,5,1
1558442197466515,-1,-1,-1,-3,-5,-4,-4,-2
1558442197466515,1,2,-3,1,8,9,5,4
1558442197472835,-1,0,3,0,-7,-8,-9,-5
1558442197472835,-2,-3,-5,-5,-5,-3,-1,2
1558442197488520,0,-2,-8,-2,4,6,2,4
1558442197488520,-2,-1,4,1,4,2,-2,-3
1558442197488520,-2,-2,-1,-2,-6,-12,-5,-1
1558442197488520,-3,1,1,1,-3,-5,-1,1
1558442197503481,-6,-3,-4,-2,-2,2,-1,-6
1558442197503481,-2,-1,-3,-3,-4,1,-1,-3
1558442197509785,1,0,-1,0,6,8,4,0
1558442197509785,1,0,1,1,1,-3,2,2
1558442197532407,-1,-2,-3,-1,2,-4,0,1
1558442197532407,-3,0,0,0,-5,1,-3,-4
1558442197533409,2,2,2,0,5,2,1,2
1558442197533409,-2,-1,-1,0,-4,-4,-4,-1
1558442197548412,1,-2,3,2,-1,-1,-4,-1
1558442197548412,-1,-2,1,-2,-1,-1,-3,-4
1558442197548412,0,-1,-3,-1,4,4,4,0
1558442197548412,0,-2,-7,-3,2,1,0,-1
1558442197571522,2,0,0,0,-4,-5,0,-1
1558442197571522,-1,-1,-1,-1,-1,0,1,0
1558442197572304,1,-1,-2,-2,-5,-1,-6,-1
1558442197572304,-1,-1,2,-1,-1,1,1,-2
1558442197584272,2,2,0,0,4,1,4,3
1558442197584272,-1,-3,-4,-3,-10,-8,-7,0
1558442197592464,-4,-4,-5,-5,-5,-3,-6,-2
1558442197592464,2,0,3,2,8,10,4,5
1558442197607211,-3,-1,-5,-5,-4,-8,-4,-7
1558442197607211,2,1,5,3,8,11,7,2
1558442197608205,0,3,0,-1,-1,1,1,0
1558442197608205,-1,-3,-2,-3,-9,-10,-4,-2
1558442197631143,-2,-2,-3,-1,-2,1,-5,-3
1558442197631143,-4,-2,-4,2,4,-1,0,-1
1558442197632142,0,-1,-2,1,-3,-6,-2,-3
1558442197632142,-1,2,1,-1,-2,2,2,1
1558442197644111,1,0,0,-2,-1,-1,3,2
1558442197644111,-2,-2,0,-1,2,7,-3,-1
1558442197652116,-1,-2,-3,-2,-7,-7,-5,-2
1558442197652116,-3,-1,0,-5,-5,-7,-7,-6
1558442197668045,-4,-5,-2,0,1,0,-1,-2
1558442197668045,-1,-2,-4,-2,-3,-3,-3,-3
1558442197668045,-2,-4,-2,-3,0,-1,2,-2
1558442197668045,2,2,4,2,1,2,4,3
1558442197683238,-4,-1,1,-1,-3,-2,-3,-8
1558442197683238,2,0,-4,0,1,-2,1,0
1558442197689986,0,1,2,2,0,0,1,0
1558442197689986,-3,-5,-4,-2,0,-1,-5,-1
1558442197705193,3,1,5,0,0,-1,1,7
1558442197705193,-1,-3,-3,-5,-4,-2,-6,-10
1558442197711931,-2,-2,-1,-3,-4,-1,2,-1
1558442197711931,-1,1,-3,-1,0,1,1,-1
1558442197727889,-2,1,3,3,1,3,2,1
1558442197727889,-2,-4,-4,-2,2,2,-1,1
1558442197727889,-3,-1,-3,-2,-6,-8,-2,2
1558442197727889,2,-1,-2,-1,0,1,-2,-4
1558442197743843,-2,1,0,-4,-5,-1,-2,-1
1558442197743843,-1,-1,0,-1,-5,-7,-2,-1
1558442197750303,0,1,3,4,13,11,2,-3
1558442197750303,1,-1,0,-1,0,3,3,2
1558442197765102,-2,-4,-2,-4,0,-1,-3,-4
1558442197765102,-2,0,-4,-2,-11,-12,-5,1
1558442197772041,1,-3,-5,-2,-1,-2,-4,4
1558442197772041,-2,1,0,1,2,5,2,-3
1558442197794711,-1,-1,0,0,6,9,4,2
1558442197794711,0,-2,-4,-2,-1,1,-2,-2
1558442197795704,-3,-3,-2,-1,-7,-8,-5,-4
1558442197795704,-1,1,1,-1,1,-1,3,1
1558442197803688,2,0,-1,-1,2,2,0,-2
1558442197803688,-2,-2,3,0,-2,-2,0,1
1558442197809968,-1,1,2,-2,-11,-9,-5,-6
1558442197809968,-4,-5,-6,-4,-6,-2,-4,-2
1558442197824664,1,3,3,3,6,2,2,4
1558442197824664,0,0,-1,0,5,2,4,2
1558442197831650,2,-1,-1,-3,0,0,-2,-3
1558442197831650,-3,-2,-4,-3,-4,-3,-4,-3
1558442197847566,-2,-5,-1,-5,-5,-4,-2,-1
1558442197847566,-2,-3,-9,-4,0,-1,-2,-2
1558442197848563,1,1,2,0,2,0,3,3
1558442197848563,-1,-1,0,0,3,2,-1,-3
1558442197863522,0,-2,-2,2,-2,-7,-5,1
1558442197863522,2,-1,5,0,-2,2,3,-1
1558442197869755,-4,-5,-5,-4,-4,2,-3,-2
1558442197869755,-2,0,1,0,3,-1,1,1
1558442197884716,-1,1,4,-1,-4,-1,0,1
1558442197884716,-1,1,-9,-1,-3,-5,-2,-1
1558442197892661,-2,-3,-4,-3,-1,3,1,-2
1558442197892661,4,3,2,1,0,-2,1,2
1558442197909403,-1,-2,-6,-4,-2,0,-3,-7
1558442197909403,-2,2,6,-1,-1,-2,1,1
1558442197909403,-1,2,2,3,4,3,3,3
1558442197909403,-3,-3,4,-2,-3,-3,-3,-3
1558442197931573,2,0,-4,0,3,3,2,2
1558442197931573,-5,-6,-3,-2,-6,-2,-5,-4
1558442197932343,1,-1,-6,-3,1,2,-1,0
1558442197932343,0,2,2,-2,-1,-9,-3,-2
1558442197952469,1,-1,-3,0,-3,-9,-3,0
1558442197952469,-2,-2,-1,-1,-5,-2,-4,-2
1558442197953285,-3,-4,-2,0,1,6,-2,-2
1558442197953285,-1,-2,0,0,6,4,0,-5
1558442197967428,-1,-2,-3,-5,-8,-9,-4,-2
1558442197967428,1,0,1,0,-4,1,2,0
1558442197968245,3,3,6,2,11,7,8,5
1558442197968245,0,-1,-4,0,2,-3,-5,-1
1558442197983410,-4,-1,1,0,-3,-2,-1,-5
1558442197983410,-2,-1,-1,-4,-5,-5,-4,-1
1558442197990245,-3,-4,1,-4,-14,-13,-7,-4
1558442197990245,-2,-5,-15,-2,-5,-4,-4,-2
1558442198004149,1,1,2,1,13,13,8,5
1558442198004149,2,2,2,3,6,4,3,0
1558442198012130,2,3,6,1,-1,-3,-4,0
1558442198012130,0,-1,0,-3,-9,-8,-6,-4
1558442198028083,-3,-4,-7,-3,-4,-4,-3,-3
1558442198028083,0,2,2,1,-1,2,1,2
1558442198028083,1,-1,-5,1,6,3,0,0
1558442198028083,-3,-2,1,-1,-2,-3,-3,-2
1558442198043074,0,-1,0,0,-4,2,0,-3
1558442198043074,2,2,4,-1,7,-1,2,1
1558442198049024,-3,-2,-11,-6,-5,-3,2,0
1558442198049024,-2,-1,-1,-1,6,12,3,1
1558442198073302,-1,-4,-4,-3,-1,0,-1,4
1558442198073302,-4,-2,-2,1,-5,-7,-2,-8
1558442198073302,0,1,2,-1,-3,-2,-1,-1
1558442198073302,-1,0,0,1,-2,-1,5,2
1558442198088259,-1,0,0,0,-1,0,-5,-3
1558442198088259,-1,0,-2,0,2,2,0,3
1558442198089125,0,-1,-2,0,2,6,0,0
1558442198089125,0,-1,-1,0,-3,1,5,2
1558442198103880,-1,0,2,-1,-1,-4,-1,1
1558442198103880,-3,-3,9,-1,-6,-1,-5,-1
1558442198110171,0,-1,-10,-1,7,-4,3,-1
1558442198110171,-1,-1,0,0,1,-2,-2,3
1558442198125106,-4,-4,-3,-1,-6,1,-1,-2
1558442198125106,-2,0,1,-2,-1,-2,-5,-3
1558442198132074,-4,0,4,-2,-8,-6,-4,-5
1558442198132074,3,-2,-3,-2,-3,-2,1,5
1558442198149763,1,0,-2,1,-2,-1,-1,-6
1558442198149763,0,0,0,-2,1,4,2,1
1558442198150755,-3,-1,-2,1,4,6,1,-3
1558442198150755,-4,-4,-7,-3,-6,-6,-3,-5
1558442198163721,-1,1,2,-1,-1,-5,-3,-4
1558442198163721,0,-2,-6,-2,-2,-1,1,2
1558442198169887,-1,-1,2,-2,-4,0,0,4
1558442198169887,-2,-1,3,-2,0,2,-8,-9
1558442198184865,-3,-1,-3,0,4,2,0,1
1558442198184865,0,-3,-4,-2,-6,-7,-1,-4
1558442198192697,-1,0,1,1,3,-9,-4,-3
1558442198192697,-3,-1,0,0,1,4,5,2
1558442198207803,-3,-1,0,-3,-7,-6,-1,-2
1558442198207803,1,2,4,2,7,7,0,3
1558442198208609,-3,-5,-7,-2,-6,-2,-3,-4
1558442198208609,-3,-1,2,1,-4,-5,-2,-3
1558442198230543,-1,1,-4,-3,1,-1,0,1
1558442198230543,-1,0,-1,0,-7,-6,-5,-4
1558442198230543,0,-2,-1,-4,-10,-4,-3,-1
1558442198230543,-3,-1,2,-1,-4,-2,0,0
1558442198244504,-1,-1,2,1,14,8,3,3
1558442198244504,0,-1,0,0,3,3,0,0
1558442198252481,2,0,2,1,-2,-1,0,-2
1558442198252481,-1,-2,-11,-3,-2,-5,-5,-3
1558442198267440,-2,-1,-2,0,-6,-2,2,2
1558442198267440,-1,-4,-7,-3,1,-2,0,-2
1558442198274803,-1,1,2,0,0,2,-2,0
1558442198274803,1,0,0,-2,-8,-5,-2,-1
1558442198283399,-1,0,2,-1,1,-4,-2,-4
1558442198283399,0,-2,-3,1,3,1,0,0
1558442198289778,0,-1,3,0,2,0,4,3
1558442198289778,0,1,6,2,2,-1,-2,-2
1558442198305378,-4,-7,-14,-5,-10,-3,-5,-4
1558442198305378,2,1,-1,0,-1,-3,0,-1
1558442198312707,-1,0,-3,-1,1,0,-4,-6
1558442198312707,-2,-5,0,-3,0,-1,0,3
1558442198335869,3,2,4,3,12,4,4,3
1558442198335869,-3,-1,-3,-2,3,2,4,5
1558442198335869,-1,-3,-2,-2,-5,-3,-4,-3
1558442198335869,-1,-1,-4,-2,3,6,3,-1
1558442198351630,0,-1,1,-3,-6,-3,-3,0
1558442198351630,-1,-3,-1,-2,-3,-5,-4,0
1558442198352628,-3,-2,-1,-3,0,3,1,-3
1558442198352628,-1,-1,-4,-3,-8,-9,-5,-2
1558442198364592,1,-2,1,2,2,3,0,0
1558442198364592,-4,1,-2,-1,1,0,1,0
1558442198372716,-2,2,5,1,-4,-2,0,1
1558442198372716,-3,-1,-4,-2,-2,-2,-3,-3
1558442198387634,2,1,-1,-2,-4,3,0,-2
1558442198387634,1,-3,2,0,2,3,3,8
1558442198394517,-2,-4,-5,0,-3,-7,-3,-1
1558442198394517,3,4,12,4,5,1,-1,0
1558442198403493,-2,-4,-8,-4,-2,-3,0,0
1558442198403493,-2,1,0,-1,-4,1,2,-1
1558442198409475,0,-2,-6,-2,0,4,0,0
1558442198409475,-1,-3,2,0,-1,-2,-3,0
1558442198434406,1,0,-1,2,1,0,-1,0
1558442198434406,-2,-4,-6,-2,-3,-4,-3,-4
1558442198434406,-1,-1,0,-3,0,-6,-1,-1
1558442198434406,0,-1,-2,-1,0,0,1,-2
1558442198447371,-2,0,3,-3,-6,-10,-4,-2
1558442198447371,-1,-3,-3,-2,-5,2,2,0
1558442198462332,-2,3,1,3,11,14,3,0
1558442198462332,-2,-3,-2,-1,1,-1,-3,-1
1558442198470310,0,0,-3,-3,-9,-9,-4,-1
1558442198470310,-1,0,0,0,2,-2,-3,-1
1558442198470310,-4,-6,-5,-5,-7,-6,-6,1
1558442198470310,0,0,4,2,2,3,3,-4
1558442198484272,-2,-1,-4,1,2,0,0,-2
1558442198484272,-4,-3,-4,-2,3,-2,-3,-5
1558442198492250,-3,-4,-4,-3,-3,-1,1,2
1558442198492250,-2,0,-3,0,-1,-8,-5,-3
1558442198507210,0,1,5,-2,-4,1,0,0
1558442198507210,-1,2,0,-1,-5,-5,-4,-4
1558442198514191,0,-1,0,-1,-4,3,3,-1
1558442198514191,1,1,-3,0,7,7,6,5
1558442198530154,1,0,2,1,10,2,-1,0
1558442198530154,1,3,4,1,2,1,4,2
1558442198531153,0,-3,-6,-2,-5,-7,-9,-2
1558442198531153,-4,-3,2,-4,-10,-7,-7,-6
1558442198544112,-1,-2,-3,-2,-3,-1,-2,-2
1558442198544112,0,-4,-3,0,-3,-2,-1,-2
1558442198552095,3,2,6,0,7,1,8,3
1558442198552095,-2,-5,-9,-2,1,3,-1,-1
1558442198567115,-2,-2,1,1,-1,2,-1,-1
1558442198567115,1,-2,-7,0,2,-1,-4,4
1558442198575146,-3,1,3,-2,-4,-3,-1,-3
1558442198575146,-3,-3,-7,-2,1,4,2,1
1558442198590995,-5,-3,-2,-2,-3,-10,-3,-4
1558442198590995,0,0,-1,-1,-6,-4,2,-4
1558442198590995,1,3,2,1,2,1,0,2
1558442198590995,-1,2,0,1,2,3,-1,-3
1558442198605031,0,-1,-2,1,1,5,0,1
1558442198605031,2,0,7,3,7,3,1,3
1558442198611932,-1,-3,-1,1,-3,-3,-4,-1
1558442198611932,-1,-2,-10,-7,-9,-8,-3,-3
1558442198626893,-2,-2,1,-1,-5,0,1,1
1558442198626893,-2,-1,-1,0,-3,-3,-4,-2
1558442198634972,-3,-1,-6,-2,-2,-5,-1,-6
1558442198634972,-1,1,2,-2,-5,-4,-1,0
1558442198650828,0,-1,-2,-1,-1,3,-4,-1
1558442198650828,0,0,2,2,13,8,7,2
1558442198650828,0,0,2,3,7,3,2,-1
1558442198650828,-3,-1,-1,-4,-1,-4,-1,1
1558442198664795,-2,2,0,-3,-6,-3,-1,-2
1558442198664795,-2,-4,-4,-5,-17,-13,-6,-2
1558442198671774,-2,-2,-7,-3,-5,-3,-6,0
1558442198671774,1,-2,1,0,5,4,4,2
1558442198686776,2,0,1,1,12,6,9,2
1558442198686776,0,0,3,-1,-1,-2,-3,-6
1558442198694709,-1,-1,-7,1,-2,-2,0,-2
1558442198694709,0,-1,0,-3,-10,-6,-4,1
1558442198709669,-1,-3,-3,-1,-1,0,0,1
1558442198709669,-2,0,-3,-2,0,1,-1,-3
1558442198710667,2,2,2,-1,-2,2,0,2
1558442198710667,0,-2,0,0,0,2,-3,-3
1558442198724629,0,-2,-3,-2,-5,-7,-3,-4
1558442198724629,-3,1,0,-1,-3,-4,-2,1
1558442198740587,-2,1,6,-1,2,1,-1,-3
1558442198740587,0,0,-6,1,8,6,3,2
1558442198746571,0,0,5,2,1,-5,-2,-1
1558442198746571,-1,0,0,-3,-2,-2,-3,-2
1558442198754553,-4,-3,1,-1,0,2,0,-2
1558442198754553,-3,-3,-11,-5,-3,-3,0,-2
1558442198770509,-4,-4,-2,0,-3,-5,-3,2
1558442198770509,-2,-1,-2,-3,-6,-3,-3,-6
1558442198770509,-2,-1,0,-2,-3,0,-1,-3
1558442198770509,0,0,6,2,1,-2,0,0
1558442198784475,-2,0,-3,-2,0,2,1,-2
1558442198784475,-3,-1,0,-1,-1,0,-1,2
1558442198792448,-3,-2,-3,-1,1,-3,0,0
1558442198792448,-3,-2,0,-2,-1,-5,-8,-11
1558442198807408,-1,-2,-4,-3,-7,0,-4,0
1558442198807408,1,-2,-2,0,-2,0,-7,-3
1558442198814393,4,0,-1,-2,2,6,3,2
1558442198814393,1,1,5,5,11,4,2,5
1558442198837333,-1,-2,4,-1,-1,-3,0,-1
1558442198837333,-2,-2,-10,-5,-4,-5,-2,-1
1558442198838327,0,-1,-4,-2,-8,-8,-6,-3
1558442198838327,-1,0,0,-3,-6,-6,0,-2
1558442198846304,-2,-1,-7,-1,-1,6,1,-2
1558442198846304,-4,-2,-3,0,5,3,1,0
1558442198852290,0,1,-2,0,-1,-5,-2,2
1558442198852290,-4,-2,2,0,-4,-4,-4,-2
1558442198867377,-2,-3,-3,-2,-2,-8,-7,0
1558442198867377,-1,0,3,1,3,12,4,-4
1558442198874240,0,0,1,2,3,3,-1,0
1558442198874240,2,-2,-4,-1,3,-2,-2,2
1558442198890191,-2,-1,-1,-2,-4,-2,4,-1
1558442198890191,0,-2,-2,-3,-4,-6,-3,1
1558442198891187,-4,-2,1,1,-6,-1,-3,-5
1558442198891187,3,2,-1,0,5,8,4,2
1558442198906145,0,1,-1,0,5,1,0,2
1558442198906145,1,-2,1,-3,-3,-6,0,2
1558442198912128,-1,-3,1,-3,-5,-4,-1,-1
1558442198912128,-3,-3,-1,-3,-6,-1,-5,-2
1558442198935303,-3,0,-1,-1,0,0,-4,-6
1558442198935303,-2,1,1,1,3,0,2,2
1558442198936066,1,2,2,1,9,9,8,3
1558442198936066,-2,-4,-4,0,1,-1,1,1
1558442198950270,-1,-4,-4,-5,-5,-3,-2,-2
1558442198950270,-2,-4,-3,0,0,-5,-5,-2
1558442198951024,-2,-2,-3,-1,-6,-11,-4,-3
1558442198951024,2,4,2,0,3,7,7,4
1558442198965985,0,-2,-2,1,-4,1,0,2
1558442198965985,1,2,2,2,1,1,1,0
1558442198972210,0,-4,-3,-4,-3,-4,-5,-4
1558442198972210,-3,-1,-1,-1,-4,-6,-5,0
1558442198986932,0,0,0,0,3,1,3,1
1558442198986932,-1,-1,-1,-3,-1,2,-2,-2
1558442198994906,-3,-3,-6,0,1,-1,-4,-2
1558442198994906,0,1,1,1,-1,0,0,-2
1558442199009867,-3,0,2,-1,-1,0,-2,-4
1558442199009867,0,-1,-2,-1,1,2,3,1
1558442199010864,-2,-1,3,-3,-4,-8,-3,0
1558442199010864,-2,-3,-6,-2,-7,-2,-4,-1
1558442199025825,-2,1,-2,-3,-5,-5,-7,-5
1558442199025825,1,-1,0,-4,-5,-2,-1,3
1558442199031843,-1,1,3,2,9,9,5,0
1558442199031843,1,1,-2,2,3,7,5,2
1558442199046772,1,-2,1,0,8,0,4,3
1558442199046772,-3,-3,-1,-1,-9,-9,-6,-1
1558442199054752,-1,-5,-7,-5,-1,-5,-6,-4
1558442199054752,1,0,5,0,-4,-1,0,0
1558442199070714,1,4,1,0,0,3,1,-2
1558442199070714,0,-3,-4,0,7,-1,2,3
1558442199070714,0,2,2,0,-1,-2,0,2
1558442199070714,-2,-3,-4,-3,0,-2,-5,-3
1558442199085664,0,-3,0,-1,-9,-7,-4,-3
1558442199085664,-7,-5,-11,-5,-9,-1,-5,-8
1558442199092655,-3,0,-4,-4,-3,3,0,-4
1558442199092655,-1,2,6,2,3,1,4,4
1558442199106610,0,-3,-3,-2,4,1,0,2
1558442199106610,2,0,4,3,4,2,-1,-1
1558442199114588,-1,-2,-2,0,-1,-2,-1,3
1558442199114588,-6,-6,-4,-6,-14,-9,-9,-9
1558442199130543,0,-1,-2,2,2,1,5,7
1558442199130543,0,2,1,2,8,7,4,-6
1558442199131581,1,-1,-1,-2,-9,-3,-3,-1
1558442199131581,-2,0,0,-1,-4,-3,-3,-1
1558442199145767,-2,-2,-1,-1,3,3,-2,-1
1558442199145767,1,1,1,-3,0,0,0,-1
1558442199152726,-3,0,-2,1,-3,-6,-1,-1
1558442199152726,-1,-2,-3,-2,1,-2,1,-1
1558442199167692,-1,-1,-1,0,-2,3,-2,-2
1558442199167692,-2,-1,4,0,1,4,1,0
1558442199174689,0,-2,-4,-3,1,0,0,0
1558442199174689,-2,-5,-8,-3,-3,-4,-2,-5
1558442199189725,1,0,1,1,-2,3,3,1
1558442199189725,1,0,4,0,-1,-4,-1,0
1558442199197625,-4,-4,-4,-1,1,4,0,0
1558442199197625,-1,-1,-2,1,0,0,-2,2
1558442199206343,-2,1,1,-1,-5,-11,0,-4
1558442199206343,-1,0,5,1,-5,0,0,-3
1558442199212325,0,-2,-7,-2,-3,0,0,1
1558442199212325,1,1,7,3,9,7,2,-1
1558442199227288,-2,-3,-3,-6,-6,-4,-4,1
1558442199227288,-1,2,0,1,3,-3,-6,-9
1558442199235270,0,0,4,0,4,-1,1,1
1558442199235270,1,-1,1,-2,-7,-4,-2,-1
1558442199249229,-1,-3,0,4,5,7,4,1
1558442199249229,0,1,2,0,-1,-3,1,4
1558442199257436,-2,-1,-9,-1,1,4,-1,-4
1558442199257436,-2,0,-1,-1,-8,-8,-7,-3
1558442199266182,-2,1,4,1,2,1,-2,-4
1558442199266182,-3,-4,-6,-4,2,-3,-1,-3
1558442199272203,0,0,0,1,-3,2,2,3
1558442199272203,-1,-1,-1,-2,-4,-7,2,2
1558442199287126,0,-2,-3,0,6,5,-1,-4
1558442199287126,0,-1,0,-3,-6,-1,0,2
1558442199294113,-1,-1,1,-2,2,0,-5,-9
1558442199294113,-2,3,1,0,3,0,4,3
1558442199309069,-3,-3,-2,-4,-8,-11,-6,-1
1558442199309069,-3,-5,-5,-4,-9,-1,-5,-4
1558442199317320,-1,1,1,1,3,0,-1,-1
1558442199317320,0,0,3,-2,-5,2,-1,-4
1558442199326024,-2,-5,-7,-2,3,-1,-2,-3
1558442199326024,4,1,-2,0,-1,3,6,14
1558442199332324,-1,-2,0,0,1,-6,-5,-5
1558442199332324,-2,-3,-2,-1,4,2,-1,-1
1558442199347300,-3,-2,-5,-5,-15,-12,-10,-7
1558442199347300,-3,-3,-12,-4,-9,2,-1,-4
1558442199355220,2,0,4,1,4,5,1,0
1558442199355220,3,-1,-1,2,10,3,3,7
1558442199370008,2,1,2,0,-3,0,0,0
1558442199370008,-4,-3,-3,-2,5,4,-2,-4
1558442199376883,-4,-1,-2,-5,-10,-5,-4,-4
1558442199376883,-1,0,1,-3,-2,-2,-4,-7
1558442199393139,-2,-3,-3,0,1,-2,0,1
1558442199393139,-1,0,0,0,-1,3,2,-5
1558442199393139,1,0,-1,1,2,-2,1,2
1558442199393139,-2,-4,-3,-4,-10,-7,-2,-2
1558442199407056,-1,0,-3,-3,-2,-2,-3,1
1558442199407056,-1,2,1,6,15,8,5,3
1558442199415047,-1,-1,1,-3,-1,3,-1,0
1558442199415047,-2,0,1,-3,-10,-10,-11,-4
1558442199429918,-4,-5,-8,-4,-6,-1,-3,-5
1558442199429918,1,0,1,1,5,2,4,6
1558442199437722,1,1,1,-1,-5,-3,-2,-6
1558442199437722,-1,-3,-2,2,7,2,-1,-3
1558442199453681,-3,1,2,-2,-1,-3,-2,0
1558442199453681,-3,-2,-2,-4,-4,-4,-5,0
1558442199454677,0,1,3,1,4,0,0,4
1558442199454677,-2,-3,-3,-2,-4,1,-3,-2
1558442199466648,1,2,4,3,4,2,1,-2
1558442199466648,1,1,1,-3,-5,-6,-2,-2
1558442199474848,0,0,-6,-1,-8,-4,-1,0
1558442199474848,-1,-3,-1,-1,2,3,1,0
1558442199489584,-2,-3,-1,-1,3,5,5,2
1558442199489584,-2,0,0,0,-4,-6,-5,-2
1558442199497705,-1,-2,-2,-2,-4,-3,-2,-1
1558442199497705,1,0,-1,-1,3,5,2,0
1558442199512522,2,0,2,0,2,2,-1,2
1558442199512522,0,-2,-1,-3,-6,-3,-3,-4
1558442199513520,-2,-1,-3,-1,-7,-9,-3,0
1558442199513520,-4,-6,-6,-4,-6,-2,-3,-5
1558442199526485,-1,-1,-6,0,7,6,3,2
1558442199526485,-1,-2,-5,3,9,-2,-3,-5
1558442199534462,-2,-1,-1,-1,-2,0,-1,0
1558442199534462,-1,0,3,0,-2,-2,-2,-2
1558442199549422,0,-2,3,0,1,-1,-3,-2
1558442199549422,-2,-3,-3,-2,-1,-2,-1,-3
1558442199557402,-3,-4,-5,-2,-4,-3,0,2
1558442199557402,-2,1,3,-1,-3,-1,-2,-2
1558442199580341,0,0,-2,-2,-5,0,1,-2
1558442199580341,0,-2,0,-1,-1,2,1,2
1558442199581337,1,0,4,-1,0,-1,2,1
1558442199581337,-1,0,-1,0,2,0,1,4
1558442199587669,0,-2,0,-1,0,0,-1,-2
1558442199587669,0,-3,0,-5,-11,-7,-6,-2
1558442199594304,-1,-2,-2,0,-2,-1,-1,-4
1558442199594304,2,3,1,3,13,8,0,0
1558442199609613,0,1,0,0,3,1,3,2
1558442199609613,-1,2,3,0,-4,-3,1,2
1558442199617051,-1,-2,1,1,2,2,0,-3
1558442199617051,1,1,-3,2,5,-4,2,2
1558442199632628,-3,-3,-1,-4,-5,-7,-5,-5
1558442199632628,0,-2,-4,-2,-5,-1,-1,-1
1558442199633624,-1,-1,-1,-4,-4,-5,-5,-1
1558442199633624,-1,1,2,1,-1,-3,0,0
1558442199647058,0,3,3,2,4,3,4,4
1558442199647058,-2,-6,-11,-5,-8,-7,-6,0
1558442199655030,0,-2,-3,-1,5,6,3,-1
1558442199655030,-2,-2,-3,-3,-6,2,-2,-5
1558442199669988,0,0,2,0,0,-5,-5,-2
1558442199669988,-1,-1,4,-1,-1,0,-2,-1
1558442199676788,0,-3,-2,1,3,-4,-2,3
1558442199676788,1,0,0,0,0,1,3,1
1558442199692470,-2,-2,-8,-4,-5,-3,-1,-2
1558442199692470,-1,1,0,2,5,5,5,1
1558442199693468,-3,-1,0,0,2,-6,-2,0
1558442199693468,1,-2,0,-3,-4,-2,-2,5
1558442199706432,-3,-2,2,-2,-6,-4,-9,-8
1558442199706432,-1,-1,-7,-1,0,-2,-2,-5
1558442199714801,-3,-1,2,-2,0,6,1,0
1558442199714801,0,1,0,1,6,2,3,0
1558442199729370,-1,-3,-2,-2,-7,-6,-3,4
1558442199729370,-2,-4,-3,-3,-6,-6,-5,-3
1558442199737348,0,-3,-2,-1,1,4,3,1
1558442199737348,-1,1,1,0,-1,0,-2,-3
1558442199753374,2,0,-1,-2,0,-3,0,-2
1558442199753374,-4,-3,-3,-4,-7,-4,2,-2
1558442199753374,0,1,8,1,3,4,-1,0
1558442199753374,-3,-5,-12,-3,4,-1,-2,-3
1558442199767634,-1,2,5,-1,0,6,-1,0
1558442199767634,-2,0,3,-1,-8,-8,-3,1
1558442199775284,2,1,1,2,3,1,2,4
1558442199775284,-1,2,1,0,2,2,-2,-2
1558442199790247,1,-1,0,0,-2,0,4,3
1558442199790247,1,2,3,0,-1,-3,-1,1
1558442199797518,-5,-5,-10,-4,-7,-4,-7,-8
1558442199797518,-3,-3,0,-1,-5,-7,-5,-1
1558442199813434,-3,-2,-2,1,2,-3,2,0
1558442199813434,-4,-5,-5,-2,4,5,-1,-2
1558442199813434,2,3,3,-3,-12,-6,-4,-1
1558442199813434,-1,-2,-2,-1,-1,-2,-2,-2
1558442199827109,-3,-3,0,1,6,5,1,-7
1558442199827109,-1,-1,-5,-1,3,0,-2,0
1558442199834222,-2,-1,0,-1,-3,-4,2,-2
1558442199834222,0,-1,-2,-3,0,4,6,3
1558442199850046,0,0,4,-1,-3,-1,-1,-3
1558442199850046,1,-1,-1,-2,-6,-6,-7,-4
1558442199857389,3,-1,-2,0,5,1,4,0
1558442199857389,0,-1,1,-1,-1,2,0,1
1558442199873395,1,-2,-2,-1,-3,-8,-1,2
1558442199873395,-2,0,2,0,2,-3,-4,-2
1558442199873395,-4,0,1,0,-4,-1,-5,-6
1558442199873395,-1,-1,-2,-2,-6,-2,6,1
1558442199887575,0,0,-2,-2,-5,1,-3,2
1558442199887575,-3,1,2,2,8,5,1,-1
1558442199894290,1,1,3,2,8,3,4,2
1558442199894290,0,-2,-3,-1,-1,-3,0,1
1558442199909883,0,2,5,0,0,-1,-2,-8
1558442199909883,-1,-5,-6,-4,-4,-3,-2,0
1558442199916585,-4,-2,-1,-1,-7,-3,-5,-4
1558442199916585,-2,-1,2,-2,4,4,1,-2
1558442199932541,-1,-1,-5,-3,-4,-6,-2,-1
1558442199932541,1,4,6,2,3,1,-1,2
1558442199933538,1,1,-1,-1,4,1,3,2
1558442199933538,-2,-1,2,2,-4,-5,-4,-1
1558442199946504,-6,-3,-3,0,-4,1,-1,-10
1558442199946504,-1,1,-1,-1,1,3,-1,-2
1558442199954483,-3,-3,-2,-5,-6,-3,-3,-4
1558442199954483,2,-1,-2,-2,-7,-8,-3,4
1558442199969875,-3,-2,1,-2,-2,0,-2,3
1558442199969875,-1,0,2,1,5,0,4,-5
1558442199976914,4,1,-2,1,5,8,11,7
1558442199976914,-1,1,1,-1,4,1,-5,-5
1558442199993349,0,-1,-5,-3,-1,-2,1,2
1558442199993349,-2,-1,-2,-3,-10,-2,-9,-10
1558442199993349,-1,0,-3,-2,-4,0,-1,1
1558442199993349,1,0,2,1,1,-2,6,0
1558442200007279,2,-1,-7,-1,5,1,-1,0
1558442200007279,-1,-1,1,-2,-2,1,3,4
1558442200014812,-2,-3,-3,-1,-3,-1,-3,1
1558442200014812,-2,-1,-2,-2,-7,-7,-5,-6
1558442200038095,-2,-4,-5,-1,-2,-2,-2,-1
1558442200038095,0,2,8,2,5,1,0,1
1558442200039029,-3,-2,-7,-2,4,5,1,-4
1558442200039029,-4,-3,-4,-1,3,0,-3,5
1558442200053033,-3,-1,-3,-3,-5,-3,0,-1
1558442200053033,0,-2,0,-2,-3,-1,-2,0
1558442200053708,-2,1,2,0,-7,-9,-7,-7
1558442200053708,-3,-3,0,-1,0,2,-3,-8
1558442200066802,-1,0,0,0,1,1,2,-1
1558442200066802,-1,-3,-5,0,2,-4,0,3
1558442200074986,-2,-1,-2,-1,-2,-3,-4,-1
1558442200074986,-2,-2,-4,-2,-11,-2,-2,-1
1558442200089909,-1,1,0,2,4,2,2,5
1558442200089909,-1,-3,-4,-2,-5,-4,-4,-7
1558442200097607,-1,1,1,-2,5,2,0,0
1558442200097607,-2,-1,2,0,0,-4,2,-1
1558442200111554,2,0,-6,-3,-4,2,6,4
1558442200111554,0,2,-2,1,0,1,-2,-3
1558442200120528,-3,-3,0,-2,2,-4,-5,-4
1558442200120528,0,-2,-4,0,-3,0,-2,2
1558442200126513,-2,-1,5,1,5,4,0,-4
1558442200126513,1,3,0,-2,-2,-4,-1,2
1558442200134938,-1,-2,-2,-3,-5,-3,-1,0
1558442200134938,1,-1,-2,-1,-4,-2,2,4
1558442200150008,2,1,6,1,4,2,1,3
1558442200150008,-2,-2,-9,-3,0,4,2,-5
1558442200157452,0,-1,0,1,0,1,0,0
1558442200157452,-1,-1,-2,-3,-2,-10,-7,-5
1558442200172410,0,-2,-3,-4,-10,-4,-5,-1
1558442200172410,0,1,7,1,4,4,3,4
1558442200180400,-3,-6,-7,-2,2,2,-2,0
1558442200180400,0,1,1,1,1,4,1,0
1558442200195977,-2,0,2,1,-2,-5,-8,-3
1558442200195977,1,0,-6,0,1,-1,4,0
1558442200195977,-4,-2,-2,-2,-4,-1,-1,0
1558442200195977,0,-3,0,-4,-8,-5,-5,-6
1558442200209852,-3,-1,-3,2,-1,-1,-4,-8
1558442200209852,0,-3,2,-3,-4,-5,5,13
1558442200216833,-3,-1,-1,3,0,0,-6,-8
1558442200216833,-4,-1,-1,-2,4,-3,-7,-4
1558442200231828,0,0,-3,-2,0,-2,-2,1
1558442200231828,-1,-2,-4,0,-2,-2,-1,-4
1558442200239805,0,-2,0,-5,-7,-2,0,3
1558442200239805,2,-2,-3,-2,1,7,4,4
1558442200246751,0,2,4,4,11,1,4,-6
1558442200246751,-2,-2,-2,0,3,1,-2,-1
1558442200254764,-3,-1,-3,-4,-3,-6,-6,-2
1558442200254764,-2,-1,-1,-1,-10,-4,-6,-6
1558442200269691,-1,-3,-2,-2,-7,-6,-3,1
1558442200269691,-1,-1,4,1,2,-2,-1,-1
1558442200276673,-2,-2,-9,-2,1,4,1,2
1558442200276673,1,0,1,-1,5,5,5,2
1558442200291633,1,-3,-5,-3,-3,-3,-2,0
1558442200291633,-3,-1,-1,-2,-4,-3,-7,-7
1558442200299930,1,0,4,-2,-3,-1,1,-1
1558442200299930,-2,-1,-2,-1,1,-3,0,-2
1558442200314983,0,-3,-3,-4,-9,-14,-6,3
1558442200314983,2,0,4,0,0,4,-2,-2
1558442200315569,3,4,0,4,14,9,5,1
1558442200315569,-1,-3,0,3,8,7,4,0
1558442200329533,-4,-2,3,-2,-9,-6,-5,-2
1558442200329533,-2,-2,-4,-5,-8,-9,-3,-1
1558442200336793,0,0,-1,-2,-7,-3,-3,-2
1558442200336793,-1,2,5,-1,0,-5,-2,-4
1558442200352625,-1,0,-8,0,3,5,6,4
1558442200352625,-2,-1,1,0,-2,0,-1,-2
1558442200360448,-1,-1,-4,-2,-1,-2,1,-3
1558442200360448,1,0,0,-1,-3,-3,1,1
1558442200375455,0,-1,1,-1,2,-6,-3,-2
1558442200375455,0,-3,-2,1,-2,5,1,-2
1558442200375455,1,0,5,1,4,3,0,4
1558442200375455,0,1,-1,1,1,1,-1,3
1558442200389370,-3,-2,-1,-2,-8,-1,0,-3
1558442200389370,-3,-3,-4,-4,-3,-4,-1,1
1558442200396351,1,-2,3,3,8,0,1,-3
1558442200396351,-2,-3,-4,-1,4,3,0,-2
1558442200412342,-1,-2,-2,-2,-1,3,-2,-3
1558442200412342,0,0,-3,-2,-5,-2,2,4
1558442200420496,-5,-5,-3,-5,-17,-9,-11,-7
1558442200420496,1,1,-2,0,0,-3,-4,0
1558442200435330,0,1,1,2,5,6,4,0
1558442200435330,2,2,1,1,11,10,5,1
1558442200435330,-1,-1,2,-1,-4,-11,-4,-4
1558442200435330,-5,-2,-8,-4,-8,-3,-1,0
1558442200449211,-3,-2,-4,-3,-2,-1,-1,0
1558442200449211,0,-1,-1,1,3,-3,-3,1
1558442200457231,0,-1,-2,-2,-1,-4,-4,3
1558442200457231,1,-3,0,1,-3,1,-4,-7
1558442200472335,1,1,2,0,7,8,8,0
1558442200472335,0,-3,0,1,2,-8,0,-1
1558442200480128,3,1,2,-1,-1,-5,0,3
1558442200480128,-1,0,-5,-2,0,4,3,-2
1558442200495125,-1,-1,-3,-1,-6,-4,-1,3
1558442200495125,1,0,-1,0,-2,1,-3,-6
1558442200496088,-2,-1,-3,0,2,2,2,-1
1558442200496088,1,-2,-1,-2,-2,-5,-1,2
1558442200509050,-1,-3,-3,0,0,0,-3,-1
1558442200509050,-3,-2,-2,-1,-4,1,4,0
1558442200517032,1,2,3,2,5,1,-1,1
1558442200517032,-4,-3,-2,-3,-9,-5,-9,-6
1558442200540966,1,-3,0,-1,6,3,1,-3
1558442200540966,-2,-2,-1,-4,-6,-10,-6,-1
1558442200541963,-1,-2,-4,-1,-9,-2,0,-2
1558442200541963,2,1,3,3,12,10,8,2
1558442200554927,0,1,-1,0,2,-5,-4,2
1558442200554927,-3,-1,0,-3,-1,0,-6,-6
1558442200555924,-1,-2,-4,-4,-7,-2,0,-3
1558442200555924,-2,-4,-2,-2,-9,-8,-5,0
1558442200569888,-1,-2,-1,-2,-1,-2,-2,-3
1558442200569888,-1,0,-2,1,5,8,6,6
1558442200576870,0,0,1,-1,0,-1,-2,-6
1558442200576870,-3,-2,-5,-3,-7,-1,-2,-6
1558442200591829,1,-1,0,-2,-7,-3,-2,2
1558442200591829,-1,3,10,3,-1,-4,1,0
1558442200599809,-4,-5,-14,-2,4,6,-1,0
1558442200599809,-4,-3,-5,-2,3,-2,-1,-1
1558442200614767,-1,0,-5,-2,-3,-4,1,-4
1558442200614767,-2,-3,-2,-1,-2,-2,-5,-4
1558442200615765,1,0,3,-1,-5,-1,-1,-1
1558442200615765,1,3,5,-1,2,1,1,2
1558442200629727,-3,-3,0,-1,-2,2,-1,-3
1558442200629727,2,0,-3,-1,4,0,3,5
1558442200636710,-1,2,0,1,3,0,-4,-4
1558442200636710,-4,0,-6,-4,-10,-8,-3,-1
1558442200651669,-1,-2,1,-3,-7,-5,-6,-4
1558442200651669,0,1,0,-1,4,10,5,-1
1558442200659648,0,0,4,1,3,1,5,2
1558442200659648,4,0,-3,1,8,5,9,7
1558442200674619,-3,-2,0,0,-1,5,2,1
1558442200674619,-1,1,-1,1,1,-4,-5,-2
1558442200675605,-2,0,0,-2,-8,-7,-3,-1
1558442200675605,-3,0,1,-4,-10,-12,-3,-1
1558442200689568,-2,0,8,-1,-2,0,-2,-3
1558442200689568,-2,-6,-16,-3,6,8,-2,-4
1558442200696839,-1,-2,-4,-3,-3,2,1,0
1558442200696839,0,0,4,-1,0,0,-5,-3
1558442200711511,-1,-1,-3,-1,0,-5,1,-3
1558442200711511,0,2,5,2,-2,-6,1,0
1558442200719488,0,1,1,-1,1,2,5,3
1558442200719488,-2,-2,-2,0,1,2,-2,-4
1558442200736443,-1,-2,-2,-3,-5,-5,-6,-4
1558442200736443,-1,-2,2,0,-5,-1,-2,1
1558442200737440,1,-1,1,0,3,-1,1,3
1558442200737440,-1,-3,-8,-1,1,1,-1,-3
1558442200749408,0,1,-1,-2,0,-2,-1,8
1558442200749408,-5,-3,-3,-2,-6,-3,-3,-9
1558442200756394,-3,-1,2,-1,1,2,-1,-2
1558442200756394,-2,-2,-4,-2,-7,-11,-5,-4
1558442200772346,1,0,-3,1,-1,6,1,-1
1558442200772346,3,-2,-5,-2,5,3,4,7
1558442200779333,-2,0,-1,-1,-2,-3,-4,-5
1558442200779333,-2,0,7,1,1,1,-4,-8
1558442200795286,-4,-3,-6,-4,-4,-10,-5,-4
1558442200795286,0,0,3,1,1,7,1,1
1558442200796286,-1,-2,-3,-4,-2,-1,1,1
1558442200796286,-1,-3,0,-2,-2,-3,0,4
1558442200811242,0,4,3,4,10,1,1,-1
1558442200811242,-3,-1,-2,-4,-2,-2,-2,-5
1558442200817228,-2,-4,-8,-1,0,1,-2,-1
1558442200817228,1,2,0,1,-4,-3,-1,1
1558442200832186,1,-3,-1,-1,-4,-1,-1,-1
1558442200832186,-2,-2,2,-1,-5,-2,-3,0
1558442200839167,-4,-1,-3,-4,-3,-5,-6,-10
1558442200839167,-3,-1,-4,-2,-2,2,-1,0
1558442200855124,1,3,4,3,12,10,6,2
1558442200855124,-1,-1,-5,-1,0,-2,2,-2
1558442200856123,-2,-4,-2,-4,-13,-11,-4,0
1558442200856123,1,2,10,3,-1,3,2,0
1558442200869087,2,-2,-6,-2,-2,-4,-2,2
1558442200869087,-3,-4,-5,-2,-8,-4,-3,-3
1558442200877069,1,0,6,1,4,8,2,6
1558442200877069,-1,0,-1,-1,9,5,-2,-5
1558442200893025,-2,-6,-11,-5,-7,-3,-3,-2
1558442200893025,-2,1,-2,0,2,-3,0,-6
1558442200899009,0,-1,-3,0,-5,-6,-3,0
1558442200899009,0,1,10,1,1,2,4,2
1558442200914966,-2,-2,-7,-2,0,5,7,0
1558442200914966,-5,-3,-6,-3,-13,-15,-13,-7
1558442200915963,-1,-2,-1,1,4,0,-1,2
1558442200915963,-3,-4,-2,-1,2,2,-2,-3
1558442200929928,0,0,4,-2,0,5,3,-3
1558442200929928,-1,-1,1,-3,-3,-3,2,0
1558442200936906,4,2,1,2,-3,0,2,3
1558442200936906,1,-1,-2,-1,-1,-2,-3,-1
1558442200951871,0,3,3,2,3,0,1,1
1558442200951871,0,1,7,-1,1,-2,-3,-1
1558442200959845,-3,-3,-9,-3,-3,0,-1,-3
1558442200959845,0,-1,-6,-1,8,5,2,2
1558442200974804,1,2,4,-1,-4,-4,-1,2
1558442200974804,1,-3,-3,-2,-1,1,-1,-1
1558442200975801,-1,0,5,-1,0,-2,3,-1
1558442200975801,-1,-2,-2,-3,-7,0,-1,0
1558442200989764,-2,-1,-9,-2,-1,-3,-3,-2
1558442200989764,1,3,5,2,-2,1,-1,1
1558442200996750,-1,-2,1,1,4,5,0,-1
1558442200996750,-4,-4,-7,-2,2,1,0,-4
1558442201011712,0,-2,1,-3,-1,-4,-4,-2
1558442201011712,1,-1,-3,-1,-1,-1,-1,1
1558442201019685,0,-2,-2,-3,-4,-8,-3,1
1558442201019685,-1,-2,-2,-1,-2,-4,1,0
1558442201043623,-1,-1,2,1,5,7,4,3
1558442201043623,-1,-2,-3,-1,0,-1,7,-1
1558442201043623,-3,1,0,-2,-2,-1,-3,0
1558442201043623,0,2,-6,-2,-2,-1,-8,-7
1558442201049605,-5,-4,-1,-5,-9,-11,-12,-6
1558442201049605,3,1,-2,-1,1,4,6,6
1558442201056587,2,2,8,3,10,7,5,3
1558442201056587,-1,-5,-11,-7,-13,-15,-4,1
1558442201071546,-3,-4,-5,1,1,2,2,-2
1558442201071546,0,0,-1,1,12,12,4,4
1558442201079540,-2,-1,0,-1,-2,-4,-2,-3
1558442201079540,0,2,10,2,4,3,0,1
1558442201094484,-2,0,6,-2,-6,-3,-3,-4
1558442201094484,-2,-5,-12,-5,-4,-6,-4,1
1558442201102463,-2,-3,-5,-3,-7,-5,-2,-5
1558442201102463,-1,-1,2,-1,-2,-1,0,-3
1558442201109445,-3,-1,0,0,-2,-1,0,5
1558442201109445,1,1,5,2,4,3,0,-3
1558442201116426,0,2,-1,0,5,-1,1,3
1558442201116426,-3,-1,1,-1,-5,-3,1,-4
1558442201131391,2,0,-1,-1,1,-1,1,0
1558442201131391,-2,-2,-2,0,-7,-3,-9,-10
1558442201139365,1,-2,-5,-2,-4,-4,-4,0
1558442201139365,-1,-4,-1,-3,-7,-6,-2,-1
1558442201154324,0,0,3,0,-1,5,5,0
1558442201154324,1,1,7,1,8,3,1,4
1558442201162303,-3,-1,-2,-2,7,11,5,-4
1558442201162303,-1,-2,-10,-1,2,-2,-1,1
1558442201169301,-1,-2,-6,-4,-6,-7,-1,0
1558442201169301,-1,-2,0,-1,-8,-9,-6,-4
1558442201177266,0,3,6,0,0,5,1,-2
1558442201177266,-3,-1,3,-2,-4,0,-2,0
1558442201192223,-2,0,-1,3,11,7,3,1
1558442201192223,-3,-5,-7,-3,0,-5,1,1
1558442201199205,0,-1,-3,-1,-2,-6,-4,0
1558442201199205,-2,-2,-5,-3,-4,-2,0,-2
1558442201214172,-1,-1,0,-2,-3,-2,-7,-4
1558442201214172,-2,0,-4,-3,-5,-4,-5,0
1558442201222144,-2,-3,-8,-1,-4,-3,-1,-2
1558442201222144,-1,1,4,3,-1,5,3,1
1558442201229125,1,1,2,3,13,6,0,1
1558442201229125,-1,1,7,0,-2,-3,0,-1
1558442201237103,-2,-4,-14,-4,-3,-3,-3,-1
1558442201237103,0,-2,2,0,1,0,-2,-3
1558442201252065,-1,0,1,-1,-7,-4,-3,-2
1558442201252065,0,-1,-7,-2,-2,0,0,-1
1558442201259044,-1,1,4,-1,-2,-1,-3,4
1558442201259044,0,1,1,0,1,-1,0,-5
1558442201274012,-2,-4,-3,-3,-2,-2,-6,2
1558442201274012,-4,-4,0,0,-4,-7,-9,-9
1558442201282979,-1,-1,1,0,1,5,4,1
1558442201282979,3,1,0,0,4,5,4,5
1558442201297941,1,-1,-2,-2,-1,-7,1,-4
1558442201297941,2,-1,-1,3,3,4,3,4
1558442201297941,-2,-1,2,0,1,-1,-3,-4
1558442201297941,4,1,2,1,7,3,5,9
1558442201311904,-2,-3,-11,-4,-6,-5,-2,-4
1558442201311904,-2,-4,-4,-5,-4,-1,1,-1
1558442201319884,-1,1,0,-1,-3,-2,-4,0
1558442201319884,-2,-3,-3,-3,-8,-6,-5,-6
1558442201334844,0,0,5,3,2,1,3,1
1558442201334844,0,2,3,1,4,-2,1,2
1558442201342820,-3,-3,0,-2,-4,-2,-6,-6
1558442201342820,-1,-2,-3,0,0,-5,-2,-4
1558442201357787,-2,0,-5,-3,1,4,-2,-3
1558442201357787,-2,-2,-1,-3,-5,1,2,-1
1558442201357787,1,-1,5,3,2,-4,6,5
1558442201357787,-1,1,-4,-2,-5,0,-6,-5
1558442201371754,0,0,9,2,5,5,3,4
1558442201371754,-1,3,-7,1,2,1,-2,-1
1558442201379721,-2,-3,2,-4,-5,-4,-4,-2
1558442201379721,0,-1,-5,-2,1,1,2,5
1558442201394683,-2,-3,0,-2,-9,-9,-3,-3
1558442201394683,2,3,9,2,5,7,7,4
1558442201402662,1,1,-3,1,3,1,-4,-5
1558442201402662,-3,-1,-2,-1,-3,-4,-6,-3
1558442201417619,0,1,0,0,-1,7,0,-2
1558442201417619,0,-2,-2,-3,-5,-4,2,3
1558442201418617,-1,-3,-5,-1,-6,-10,-4,-4
1558442201418617,-2,-2,-4,-4,-1,-8,-3,-2
1558442201431582,-1,-1,-1,1,0,0,0,2
1558442201431582,-4,-3,-3,-2,3,-2,-6,-6
1558442201439561,-1,-2,-3,-5,-4,1,2,5
1558442201439561,2,0,2,0,3,1,3,0
1558442201454527,-1,1,1,-2,-5,-8,-1,-5
1558442201454527,-3,-3,-4,-2,-1,2,0,-1
1558442201462512,-1,2,3,-2,3,2,2,-1
1558442201462512,0,0,2,1,7,3,5,3
1558442201477464,0,-2,4,0,2,0,-4,-3
1558442201477464,-1,-5,-10,-7,-11,-7,-6,-3
1558442201478468,1,0,-8,0,1,0,-4,2
1558442201478468,-2,0,-1,-2,-5,-4,-4,-7
1558442201491423,0,0,3,0,0,0,-2,-2
1558442201491423,0,0,7,3,-5,-9,-3,-4
1558442201499402,-1,-3,-5,-5,-7,0,3,-1
1558442201499402,3,-2,-7,-4,1,1,2,3
1558442201514363,-2,-1,3,-3,-9,-14,-9,-4
1558442201514363,-3,-1,-13,-1,4,6,2,3
1558442201522346,-1,1,4,4,7,12,7,-1
1558442201522346,-4,-1,0,0,3,4,5,1
1558442201537300,0,-4,-3,-1,3,-1,0,3
1558442201537300,1,1,2,-2,-6,-2,-5,-2
1558442201538297,-3,-4,-4,-2,-3,-6,-5,-1
1558442201538297,-3,-4,-5,-2,-9,-9,-5,-10
1558442201552260,0,-1,-5,0,4,1,1,2
1558442201552260,2,1,2,1,8,4,2,0
1558442201559241,-2,-3,-4,-2,-9,-9,-9,-5
1558442201559241,-2,-2,2,-1,-3,-2,-6,6
1558442201574203,-4,-1,-4,1,1,3,-3,-8
1558442201574203,0,0,1,-1,3,3,0,0
1558442201582180,1,0,0,0,-1,0,0,2
1558442201582180,-2,-1,1,-2,-7,-13,-7,-6
1558442201597140,-3,-4,-10,-5,-7,-2,0,-4
1558442201597140,-1,-1,-1,0,6,11,5,1
1558442201598141,3,2,6,1,1,-1,3,3
1558442201598141,1,1,2,1,9,7,2,3
1558442201612100,-1,-1,-3,-2,-2,-6,-3,-3
1558442201612100,-2,-4,-2,-3,-10,-9,-5,-4
1558442201619081,-4,-1,-2,-4,-6,-9,-3,-5
1558442201619081,-1,1,0,-2,-4,2,0,1
1558442201643018,0,0,-1,2,7,6,3,0
1558442201643018,-2,-1,8,1,8,4,2,0
1558442201644015,-3,-2,-4,-1,-2,-7,-1,-4
1558442201644015,-2,-2,-4,0,-2,-3,1,6
1558442201657987,3,2,-1,-2,-1,2,1,-1
1558442201657987,0,-2,1,1,1,3,0,-4
1558442201657987,1,2,-2,-1,-1,3,7,2
1558442201657987,-3,-2,1,0,1,0,-11,-5
1558442201671939,1,-1,-1,0,6,3,1,4
1558442201671939,-1,-1,0,0,-4,-10,-5,-6
1558442201678924,-2,-3,-2,-3,-7,-10,-5,-4
1558442201678924,-1,-1,-2,-2,-6,8,4,-2
1558442201693885,1,1,0,3,9,10,2,2
1558442201693885,1,1,1,2,1,-3,-5,-2
1558442201702858,-1,-2,0,-1,3,-2,-1,2
1558442201702858,-1,-1,0,-2,-7,-7,0,-2
