timestamp,emg1,emg2,emg3,emg4,emg5,emg6,emg7,emg8
1558442241205169,-2,-2,1,3,5,7,2,-1
1558442241205169,-3,0,0,-4,-8,-6,0,2
1558442241206155,1,-2,1,1,6,-2,2,0
1558442241206155,-1,-1,-4,4,9,10,6,3
1558442241206155,0,1,-1,-2,-4,-5,-5,0
1558442241206155,-6,-3,-3,-3,-1,-2,-5,-4
1558442241207152,-2,-2,0,0,-7,-7,-4,0
1558442241207152,0,2,1,-1,0,-1,-1,-5
1558442241219121,0,2,1,2,11,9,0,0
1558442241219121,1,-4,-1,1,1,1,-1,-1
1558442241227099,-1,-2,-4,-4,-10,-8,-6,-3
1558442241227099,0,-1,0,-2,1,2,6,2
1558442241233083,-1,-2,0,0,-2,4,5,-1
1558442241233083,-1,1,1,1,3,-4,0,-4
1558442241248043,-3,-4,-1,-4,-7,-6,-9,-1
1558442241248043,-2,-3,-1,-1,-1,5,3,-2
1558442241257019,0,-1,1,0,-2,-7,-1,0
1558442241257019,1,-1,-1,-1,1,3,0,1
1558442241263004,0,0,-3,-2,0,1,3,1
1558442241263004,-1,-1,1,-2,-6,-7,-6,0
1558442241279957,-1,-1,-9,-2,0,0,1,-1
1558442241279957,-1,0,-1,-2,-5,-3,-1,2
1558442241285941,0,0,2,0,5,3,0,-3
1558442241285941,0,-3,1,-2,-1,-3,-1,2
1558442241332816,-2,2,1,3,1,-6,-2,0
1558442241332816,0,2,2,1,9,9,5,0
1558442241333813,-1,-2,-2,-2,-6,1,-1,-2
1558442241333813,0,0,1,0,4,2,-3,-2
1558442241334811,0,0,-2,1,0,0,2,-2
1558442241334811,-1,-1,-1,-2,-7,-6,-3,-4
1558442241334811,-1,-2,-3,-5,1,1,0,1
1558442241334811,-1,1,-1,0,1,5,0,0
1558442241346778,0,1,1,1,2,5,-1,1
1558442241346778,-4,-3,-1,-3,-1,-4,-2,-2
1558442241352763,-1,-3,1,-1,-10,-9,-4,-4
1558442241352763,-2,-3,-3,-3,-6,-8,-3,-5
1558442241361740,-2,-2,-3,-3,4,6,3,-1
1558442241361740,0,2,-1,0,-1,0,-2,3
1558442241384677,-2,3,2,1,3,-4,-2,-3
1558442241384677,1,-2,-1,0,4,5,5,1
1558442241385675,-1,-1,2,-1,0,6,-1,-3
1558442241385675,-2,-2,-1,-2,-4,-6,-4,-5
1558442241390661,3,0,-1,-1,-6,-9,0,4
1558442241390661,-2,-1,-1,-4,-6,-4,-3,-3
1558442241405622,2,-1,-3,-3,-2,5,6,5
1558442241405622,-2,-3,-5,-2,-1,0,-6,-10
1558442241412617,1,1,5,2,12,12,5,1
1558442241412617,-1,2,1,1,1,0,6,3
1558442241421579,-2,-4,-1,-3,-5,-6,-2,-1
1558442241421579,-1,-3,-2,-2,-4,-9,-2,5
1558442241436538,-1,-3,-3,-1,-3,3,0,-7
1558442241436538,-1,0,0,0,1,-1,-5,-3
1558442241443520,0,1,6,3,5,3,3,0
1558442241443520,0,0,0,-2,-4,-8,-2,-2
1558442241450502,-1,-1,0,-2,2,0,-2,2
1558442241450502,0,-3,-2,0,-3,2,-4,0
1558442241465460,1,-2,-3,-3,-10,-6,-6,-4
1558442241465460,-2,-3,-4,-3,-3,-4,-2,1
1558442241473440,-4,-1,0,2,2,1,1,-6
1558442241473440,0,3,2,-2,2,4,1,1
1558442241481419,-1,-1,-2,-3,-4,-10,-4,2
1558442241481419,0,3,1,0,2,2,1,0
1558442241496378,-1,-4,-3,-2,0,1,2,3
1558442241496378,-1,-2,0,-1,-1,-1,-3,-6
1558442241503360,-2,-3,-3,-1,-1,2,-3,-3
1558442241503360,-1,0,3,-1,-2,4,0,-1
1558442241510341,0,-2,-3,-3,-2,-9,-3,1
1558442241510341,-3,-1,0,-2,-2,-3,0,0
1558442241525301,-1,0,0,-1,-3,-1,-1,-1
1558442241525301,-3,-2,-5,-1,-4,-4,-1,-2
1558442241533280,-5,-1,-4,-1,-5,2,-6,-5
1558442241533280,-1,-2,-3,0,1,1,-2,1
1558442241542256,0,2,-1,-2,8,4,5,0
1558442241542256,0,1,3,-1,5,3,1,1
1558442241556219,-2,0,-5,0,-6,-3,-1,-1
1558442241556219,-2,-3,0,-3,-7,-11,-6,-4
1558442241563200,-3,-6,-5,-2,-3,1,-5,-4
1558442241563200,-1,-1,-1,0,-2,1,-1,1
1558442241570182,3,0,1,-1,7,3,5,4
1558442241570182,-2,-1,0,-1,2,-1,0,-4
1558442241585141,-2,-1,1,1,2,1,1,-1
1558442241585141,-2,-1,-2,-2,-8,-5,0,-5
1558442241593120,-1,2,0,-1,-1,-1,-3,0
1558442241593120,2,-1,-3,1,10,6,8,9
1558442241604356,1,-2,1,0,-5,-5,-4,-2
1558442241604356,0,-1,-2,-1,-5,1,0,4
1558442241616058,0,2,0,0,1,3,0,-3
1558442241616058,-1,0,0,2,-1,4,1,-3
1558442241623040,-2,-2,-3,-2,3,3,-2,-3
1558442241623040,0,0,3,-2,-3,-9,-2,-1
1558442241630026,-1,-5,-5,-5,-4,-8,1,3
1558442241630026,0,-4,-3,-4,-8,-9,-7,-6
1558442241645979,-2,-1,-4,-2,-1,4,-2,-2
1558442241645979,-1,1,0,2,4,8,2,-2
1558442241652960,-1,-1,0,0,4,0,-2,0
1558442241652960,-3,-3,-2,-3,-9,-7,-6,-1
1558442241661938,0,1,-1,-2,-4,-7,2,-2
1558442241661938,1,-1,0,2,10,13,1,2
1558442241683877,-2,-2,-1,-1,-6,-3,-1,0
1558442241683877,1,0,0,-1,1,1,-4,0
1558442241685872,0,1,2,0,-3,-3,-6,-2
1558442241685872,2,1,0,2,8,9,8,0
1558442241690859,-4,-2,1,-2,-2,-10,-5,-4
1558442241690859,-3,-2,-7,-3,-8,-8,-7,-3
1558442241705819,-3,0,0,-2,-2,-1,1,-7
1558442241705819,2,-1,-2,0,3,-2,-1,2
1558442241712800,-2,-3,2,-2,-3,1,-4,-4
1558442241712800,-1,-1,1,-1,-2,0,2,3
1558442241721776,-2,-3,-2,-1,1,-2,-2,2
1558442241721776,-3,-2,-1,-3,-8,-9,-6,-7
1558442241744715,0,1,-2,0,-3,-3,-4,-2
1558442241744715,0,-2,-4,-2,3,-5,3,3
1558442241745713,0,0,-1,-1,-2,-1,-2,0
1558442241745713,-2,0,0,2,2,5,2,2
1558442241750699,2,3,2,0,4,8,1,-2
1558442241750699,0,0,1,-1,-5,-2,-3,-2
1558442241765659,1,-1,-1,-2,-3,-8,-6,-3
1558442241765659,-1,-3,-1,-2,-2,-3,4,1
1558442241772640,-1,-2,1,1,2,0,-1,-2
1558442241772640,0,-1,0,1,4,5,6,0
1558442241781616,-3,-1,-3,-3,-7,-5,-4,-4
1558442241781616,2,2,2,-1,1,3,2,9
1558442241796577,1,-1,1,-1,-1,-1,2,-3
1558442241796577,0,-2,-1,-1,1,4,0,-1
1558442241802560,-2,0,0,-1,-5,-8,-6,-1
1558442241802560,-1,1,-1,-3,1,6,1,-4
1558442241810539,-2,-1,-3,1,-1,-4,-4,-1
1558442241810539,-1,-1,0,0,1,1,-2,-2
1558442241825498,1,3,5,4,9,11,12,5
1558442241825498,-2,-3,-3,-3,-6,-4,-8,-4
1558442241832479,0,-1,-2,-1,-5,2,3,1
1558442241832479,-1,-3,-5,-4,-6,-8,-7,-4
1558442241841456,0,0,1,-2,1,-7,-6,-1
1558442241841456,-1,-3,-7,-3,-3,-1,-3,-4
1558442241856416,1,1,3,0,5,3,0,-1
1558442241856416,1,3,1,-2,3,4,4,9
1558442241871376,-3,-2,-3,-1,-3,1,-3,-8
1558442241871376,-3,-2,-3,-3,-3,-2,-2,-1
1558442241872374,0,0,-1,-4,-1,-7,-1,-3
1558442241872374,-1,0,3,-1,-5,-4,-1,3
1558442241887333,0,0,-2,1,3,1,1,4
1558442241887333,-1,1,2,3,5,4,1,-3
1558442241893318,-1,-2,-5,-3,-3,7,0,3
1558442241893318,0,-1,-2,-1,-1,-2,-4,-6
1558442241902293,-1,-2,-1,-1,-6,-2,0,-1
1558442241902293,-3,-3,0,0,0,1,-3,-4
1558442241916255,0,-2,2,0,-5,-3,-1,0
1558442241916255,1,-1,0,1,6,8,4,0
1558442241923238,0,-3,-1,-2,-1,-3,-2,1
1558442241923238,-1,-1,1,-1,-7,-18,-7,-3
1558442241938206,2,4,-1,0,2,3,5,6
1558442241938206,-3,-2,2,0,-5,-5,-6,-12
1558442241945179,1,0,-3,0,3,4,1,1
1558442241945179,0,-2,-4,-2,-3,-2,-2,0
1558442241953156,-3,1,2,-1,-3,-5,-5,-6
1558442241953156,-4,0,-1,-1,-3,2,0,-1
1558442241962133,1,1,3,-2,2,-2,-3,1
1558442241962133,1,0,2,1,-3,-3,0,1
1558442241976095,-2,-1,-2,-1,-1,-1,-1,-3
1558442241976095,0,-1,-2,-3,-1,-2,-3,3
1558442241983077,-2,0,2,-1,0,-1,-3,-1
1558442241983077,0,-1,-2,-3,-1,3,1,1
1558442241999033,0,-1,0,0,0,2,2,-3
1558442241999033,1,1,-2,1,5,-4,0,1
1558442242005018,-3,-3,-3,-2,-12,-11,-3,2
1558442242005018,-1,-1,-1,-1,-3,-4,-5,-4
1558442242012997,-3,-4,-8,-2,-1,5,1,-2
1558442242012997,1,4,4,1,7,10,8,7
1558442242021973,-3,-3,-3,-2,-2,-2,-6,-12
1558442242021973,-2,-2,-3,-3,-6,-7,-6,-4
1558442242035936,-1,-2,1,0,4,0,-1,-1
1558442242035936,1,-1,0,-1,-2,-1,0,2
1558442242042919,-2,-5,-6,-3,1,5,7,4
1558442242042919,-1,-2,-1,-2,-6,-4,-1,0
1558442242058874,-1,0,0,1,5,5,-3,-7
1558442242058874,-1,1,2,-1,-4,-9,1,0
1558442242065855,0,0,1,0,-5,-3,-2,-1
1558442242065855,-2,-4,-5,-2,-2,-3,-1,-1
1558442242072838,0,-2,-1,-1,2,4,0,4
1558442242072838,0,-3,-4,-1,2,1,-1,-2
1558442242081812,-3,-2,-3,-1,-6,-5,-5,-8
1558442242081812,0,0,2,1,5,8,8,5
1558442242095776,-3,1,-3,-1,-4,-12,-7,-1
1558442242095776,-3,0,2,-1,-2,2,1,-3
1558442242102757,0,0,0,-1,-1,3,1,0
1558442242102757,-1,-1,-2,-2,3,-2,0,-3
1558442242119712,0,-1,-5,-1,-7,-3,-3,3
1558442242119712,-1,1,-5,-1,-7,-9,-8,-6
1558442242125696,-1,-1,1,-2,3,3,0,-1
1558442242125696,-2,0,2,1,-1,-2,3,3
1558442242132676,0,1,2,-2,-2,-1,0,3
1558442242132676,-1,-2,-1,2,3,6,3,-2
1558442242141652,-1,-2,-2,0,-5,-1,-5,-4
1558442242141652,0,1,0,-2,-3,-1,-7,-4
1558442242156613,-1,-5,-6,-6,-2,-7,-2,-3
1558442242156613,0,-1,1,-1,-4,-3,1,5
1558442242162597,-1,0,1,1,4,2,4,1
1558442242162597,0,-2,-1,-2,-3,-2,-4,-7
1558442242178561,0,-2,-1,1,-1,9,2,-3
1558442242178561,2,-2,1,-1,3,3,2,0
1558442242185535,-1,-1,-3,-1,-1,0,-1,1
1558442242185535,2,2,1,-1,-2,-13,0,5
1558442242192517,-1,-1,-1,1,0,-5,-4,-1
1558442242192517,-6,-4,-5,-1,-1,-3,-6,-8
1558442242208474,0,-2,-1,-2,-3,-2,0,1
1558442242208474,-2,-1,0,0,-1,6,2,-3
1558442242216452,1,2,2,-1,0,-3,-3,1
1558442242216452,-2,-1,1,-1,-4,-1,-3,-4
1558442242222437,-2,-3,-3,-3,-5,-8,-2,-1
1558442242222437,1,2,2,-1,1,3,1,6
1558442242239392,0,-4,0,-2,0,-4,0,-1
1558442242239392,-1,-2,-4,-2,-4,-4,-1,0
1558442242245377,0,0,1,-3,-2,-1,-2,0
1558442242245377,0,0,1,3,8,6,3,-2
1558442242253353,-1,-1,-2,0,1,6,2,-2
1558442242253353,-3,-1,-1,-4,-13,-11,-8,-6
1558442242268314,2,1,1,3,7,-1,6,4
1558442242268314,-1,-1,-2,2,5,4,0,-5
1558442242276291,-3,0,3,1,-1,1,-2,-5
1558442242276291,-1,-3,-6,-2,-3,-2,-3,0
1558442242283273,2,2,-1,0,-1,4,-1,-2
1558442242283273,-2,-3,-5,-6,-11,-11,-8,1
1558442242298233,-1,-2,-2,-5,-5,-4,-1,1
1558442242298233,0,-2,1,1,5,6,2,0
1558442242305216,-1,-1,2,2,4,-4,-2,-2
1558442242305216,-1,-1,-2,-2,-1,-3,-3,3
1558442242321174,-3,-2,-4,-2,-5,-2,-4,-5
1558442242321174,0,-2,-1,-1,-4,-4,-4,2
1558442242328154,1,0,-2,-1,1,0,1,2
1558442242328154,1,0,1,0,5,4,1,0
1558442242335135,-3,-2,-3,-1,-5,-4,-4,-1
1558442242335135,-2,3,9,0,4,8,4,-2
1558442242344111,-1,-4,-10,-3,-3,-2,-6,-4
1558442242344111,0,-3,0,-1,-4,-7,3,1
1558442242359071,-1,-1,-1,-2,-5,-5,-3,1
1558442242359071,-2,-1,-2,-2,3,8,1,0
1558442242365054,-3,-1,0,-2,-4,-2,2,-2
1558442242365054,-1,0,-2,0,4,2,-1,-5
1558442242381012,1,-1,1,-1,-1,-1,2,7
1558442242381012,1,0,-3,-1,-7,-15,-8,-6
1558442242387993,0,-1,1,-1,-2,4,0,0
1558442242387993,-2,-2,-5,-2,-2,4,-4,-1
1558442242403951,1,1,4,3,9,8,3,1
1558442242403951,1,0,-3,0,6,1,2,0
1558442242405946,-5,-2,0,-4,-6,-5,-3,-2
1558442242405946,-1,-2,0,-2,-10,-8,-5,-6
1558442242418910,-2,-3,-3,-3,-4,0,-1,-2
1558442242418910,1,1,-1,3,8,7,2,5
1558442242425891,1,1,1,2,3,-6,-2,-1
1558442242425891,-5,0,0,-2,-5,-4,-5,-2
1558442242440854,1,0,-2,-1,-3,-7,-2,-1
1558442242440854,-2,-2,-2,-1,0,7,3,0
1558442242447833,1,-1,0,-1,1,4,4,2
1558442242447833,0,0,-1,0,6,9,3,-2
1558442242464788,-1,0,-1,-2,-4,-8,-2,-2
1558442242464788,-3,-7,-6,-5,-7,-11,-7,-1
1558442242465785,-2,-2,-2,-4,-7,-5,-3,-2
1558442242465785,-1,-4,-4,1,-1,6,0,0
1558442242486731,0,3,2,1,5,5,2,4
1558442242486731,-1,-2,2,0,3,-1,-1,-9
1558442242488725,1,1,-1,-1,0,-3,2,9
1558442242488725,-3,0,0,1,-2,0,-2,-8
1558442242500693,-5,-3,-3,-3,-5,0,0,-4
1558442242500693,0,-1,-3,-1,-4,-8,-4,0
1558442242507677,0,-2,-1,-1,-5,-4,-2,0
1558442242507677,0,1,3,0,2,-6,3,4
1558442242524628,-1,-1,-2,-1,1,10,-2,-4
1558442242524628,-1,-1,-2,-1,-1,2,3,2
1558442242525627,0,-1,1,0,-1,-2,-2,-5
1558442242525627,1,-3,-3,-1,-6,-3,2,6
1558442242538591,-2,-4,0,0,1,-6,-4,-4
1558442242538591,0,-1,-3,-2,2,3,1,0
1558442242545573,-1,1,0,1,2,6,2,-2
1558442242545573,-2,-4,-5,-2,0,-7,-5,-5
1558442242561529,0,-3,-3,-2,-11,-7,-3,0
1558442242561529,1,2,2,1,1,2,-3,0
1558442242567513,2,4,2,3,5,5,1,1
1558442242567513,-2,-1,-3,0,-3,1,-2,-4
1558442242584467,-2,-3,-1,-4,-6,-7,-4,-3
1558442242584467,-3,-1,-1,-3,-6,-4,1,0
1558442242585465,-2,-3,-2,-1,-1,0,-4,-1
1558442242585465,0,1,0,-3,2,-1,3,4
1558442242598434,0,1,2,-1,3,-3,0,-1
1558442242598434,0,1,1,1,-2,-3,-4,-7
1558442242606664,2,-2,-1,-1,-2,0,-1,1
1558442242606664,2,-2,5,-1,1,6,1,0
1558442242621368,-2,-2,-9,-2,-2,-5,-3,-1
1558442242621368,0,2,0,0,1,0,4,2
1558442242628351,-5,2,-2,-3,-4,-2,-4,-5
1558442242628351,-2,-2,-4,-2,-1,1,-3,-2
1558442242644308,2,2,2,2,10,7,3,2
1558442242644308,-1,-4,-2,-1,-1,-4,-4,-3
1558442242645306,0,-4,-2,-2,-4,1,2,-1
1558442242645306,-1,0,-3,-1,-1,-4,-1,0
1558442242658270,-1,-4,-3,0,0,2,0,-2
1558442242658270,-4,-3,-4,-3,-8,-4,-1,-5
1558442242665250,-2,-1,0,-1,-1,-4,-1,-4
1558442242665250,0,-3,-1,-1,1,2,0,-3
1558442242681210,-1,-2,-1,1,4,5,3,2
1558442242681210,-3,-1,0,-3,-3,-7,-4,-1
1558442242688191,-2,-1,-1,-1,1,2,-1,1
1558442242688191,-1,1,1,0,2,2,2,-1
1558442242704180,-4,-1,-4,-2,-5,-3,-5,-4
1558442242704180,-2,-3,-1,-1,-5,-3,-2,1
1558442242706142,-2,-2,-5,-2,-8,-7,-9,-1
1558442242706142,0,-2,-4,0,5,3,3,3
1558442242719172,1,1,3,0,4,-3,2,-6
1558442242719172,1,2,1,0,3,8,5,4
1558442242725131,-3,0,0,1,5,1,1,-3
1558442242725131,-2,-3,-3,-2,-5,-5,-5,-4
1558442242741116,1,-1,1,-2,-7,-4,0,-1
1558442242741116,0,-2,-3,-2,-2,-3,0,2
1558442242748091,0,-5,-1,-2,-9,-10,-3,-2
1558442242748091,-3,0,2,1,-2,3,-4,-4
1558442242765023,1,0,0,-2,4,5,0,2
1558442242765023,2,1,3,1,3,2,-1,2
1558442242765989,-2,-2,-2,-1,7,0,2,-1
1558442242765989,-1,-1,2,-1,-2,2,2,1
1558442242779071,-2,-1,-4,-2,-9,-5,-2,0
1558442242779071,0,-2,-1,0,-3,0,-5,-4
1558442242786033,-1,1,-1,-1,7,9,4,4
1558442242786033,-1,0,-2,-3,-3,-9,-2,-3
1558442242800928,0,0,2,1,5,3,1,1
1558442242800928,-5,-2,0,-3,-3,1,-1,-5
1558442242807875,0,-1,-4,-1,-4,-3,-1,2
1558442242807875,-2,-2,-3,-2,-7,-4,-2,4
1558442242823830,-2,-1,1,-1,1,-1,-2,-7
1558442242823830,-1,-1,0,-2,-2,-2,2,3
1558442242825823,0,-2,1,1,2,0,-4,-9
1558442242825823,1,0,1,-1,0,-4,0,1
1558442242838797,-4,-1,-1,-1,-4,-4,-2,-2
1558442242838797,-2,-1,-4,-2,-1,-4,-3,-2
1558442242845777,-1,-1,0,-1,2,6,3,3
1558442242845777,-1,-1,0,1,-1,3,2,2
1558442242860729,0,-1,-1,-1,-1,-2,-2,-1
1558442242860729,-3,-1,-3,-2,-2,-7,-5,-3
1558442242867710,1,1,0,-1,1,3,2,1
1558442242867710,-1,-1,3,2,3,3,0,-3
1558442242884665,-4,-4,-8,-1,-2,-7,-3,-1
1558442242884665,0,-3,-1,0,-1,2,0,-3
1558442242885663,-3,-3,-4,-3,-9,-3,-2,-3
1558442242885663,-1,1,0,-1,1,-3,0,3
1558442242897631,-1,1,3,2,5,3,-5,-1
1558442242897631,0,-2,0,0,-3,-2,0,2
1558442242906606,-2,-3,-2,-2,-6,-6,-5,-5
1558442242906606,-1,2,1,-1,4,8,4,-1
1558442242921568,0,-2,1,-4,-6,-9,-4,-2
1558442242921568,-2,-2,-2,0,2,0,-4,-5
1558442242927551,2,1,0,1,3,4,4,3
1558442242927551,-1,-2,-3,-2,-7,-7,-6,1
1558442242944557,1,-2,0,2,6,9,2,2
1558442242944557,0,1,1,1,1,2,3,4
1558442242945528,-4,-2,-1,-5,-6,-9,-2,-5
1558442242945528,0,-3,-9,-4,-6,-7,-4,-5
1558442242957496,1,0,0,0,2,8,6,0
1558442242957496,-1,0,0,-2,1,1,-2,1
1558442242966447,-1,-1,2,1,0,5,3,3
1558442242966447,0,-2,-4,-3,-5,-7,-5,-7
1558442242981407,0,-2,1,-2,-4,-11,-5,1
1558442242981407,0,0,0,0,5,5,2,0
1558442242988389,-2,0,-2,-1,-7,-7,-5,-3
1558442242988389,-3,-2,0,-1,-2,6,-1,-3
1558442243004346,1,3,0,-1,3,3,3,-1
1558442243004346,1,1,-1,1,6,7,5,1
1558442243005342,-1,-2,-2,-2,-3,-5,-3,-2
1558442243005342,-3,-4,-3,-2,-7,-6,-8,-4
1558442243018337,-2,-3,1,-3,-6,-7,-4,-1
1558442243018337,-1,1,2,0,5,7,5,4
1558442243027283,0,-1,-3,2,7,6,2,0
1558442243027283,0,1,1,-1,-1,-3,1,6
1558442243041245,-4,-2,-1,0,0,2,1,-4
1558442243041245,-3,-5,-5,-4,-7,-6,-5,-4
1558442243048226,-3,-1,-2,-3,-6,-5,-3,-2
1558442243048226,0,-1,0,-2,-5,-9,-6,-1
1558442243064186,0,0,-1,1,5,8,4,4
1558442243064186,-3,-1,-2,-3,-9,-4,-5,-8
1558442243066238,2,1,1,3,10,9,3,4
1558442243066238,-2,0,-2,-1,3,-4,-1,-3
1558442243078147,-3,-2,-4,-5,-7,-3,1,-1
1558442243078147,1,0,-2,-1,-7,-13,-6,-5
1558442243087124,-4,-2,-2,-3,-6,-2,0,2
1558442243087124,0,2,1,3,11,13,5,0
1558442243102083,0,0,-2,-1,-3,-7,-5,-2
1558442243102083,1,-3,-2,-1,0,0,0,-1
1558442243108069,0,-2,-2,-2,-3,-6,-5,-5
1558442243108069,-1,-2,0,0,1,2,2,1
1558442243124024,0,2,-2,-5,-11,-10,-6,2
1558442243124024,-2,0,0,-1,2,-1,-3,-4
1558442243126020,-1,-2,-1,1,3,2,0,-2
1558442243126020,-1,-1,-1,-3,-2,-4,0,-7
1558442243137986,0,-3,-3,0,0,5,2,4
1558442243137986,-3,-1,-5,-4,-9,-3,-3,-1
1558442243146962,-1,-1,0,-4,-4,-6,-2,1
1558442243146962,0,1,3,3,15,12,8,0
1558442243160926,0,0,-1,-1,-4,-7,-6,-7
1558442243160926,1,-2,-3,-3,-3,0,-1,1
1558442243167906,-4,-2,-1,-1,-3,-5,-6,-4
1558442243167906,0,1,3,-3,-9,-14,-5,1
1558442243183876,-4,-6,-7,-2,2,2,-1,0
1558442243183876,0,0,2,2,4,3,0,-2
1558442243190853,-2,-1,-1,-1,6,7,5,0
1558442243190853,0,-2,0,0,2,2,-2,-1
1558442243197866,-1,-1,-3,-1,-2,-1,-3,-2
1558442243197866,-2,0,-3,-2,-7,-8,-4,-3
1558442243206804,-2,-4,-2,-3,-10,-9,-6,-5
1558442243206804,1,-2,1,0,2,5,6,1
1558442243220827,0,2,2,1,1,0,2,2
1558442243220827,0,-1,0,-2,1,0,-2,6
1558442243227850,2,0,-1,-2,0,0,-1,-6
1558442243227850,-2,-2,-5,-2,-4,-6,-7,-4
1558442243243807,-1,0,1,-3,-4,0,0,-2
1558442243243807,0,-3,-2,-4,-5,-2,-3,-4
1558442243250689,-1,2,0,4,11,5,2,4
1558442243250689,-1,-1,-2,0,3,6,3,1
1558442243266644,-4,-2,-1,-4,-11,-13,-7,-6
1558442243266644,1,2,2,0,6,1,5,5
1558442243268639,-2,1,-4,-3,0,10,3,1
1558442243268639,0,-1,-3,-1,-2,-3,-5,0
1558442243281604,-1,-2,1,0,0,3,-1,2
1558442243281604,0,-1,0,-2,-3,-2,1,0
1558442243287586,0,-2,-2,-2,-2,-3,-3,1
1558442243287586,-4,-4,-3,-3,-6,-4,-5,-6
1558442243304576,0,-2,0,-2,0,4,1,0
1558442243304576,-4,-2,-1,0,-4,0,0,-1
1558442243310915,2,-1,0,-1,-1,0,0,0
1558442243310915,0,-2,-3,-1,-2,-2,0,3
1558442243318852,-1,1,1,2,6,7,5,0
1558442243318852,-2,-1,-2,3,8,8,1,-3
1558442243326873,-1,0,0,-2,-4,2,-1,-1
1558442243326873,-2,-1,-1,-2,-8,-8,-7,-5
1558442243341890,0,-1,-3,-1,-10,-9,-6,5
1558442243341890,0,2,2,-2,0,-5,2,7
1558442243348894,1,3,1,2,8,3,0,-3
1558442243348894,-2,-1,0,-1,2,4,1,-3
1558442243364422,1,-2,-1,1,5,-4,0,-1
1558442243364422,-1,-3,-1,-4,-7,-3,-2,-5
1558442243370690,-1,-1,0,-2,-6,-8,-1,2
1558442243370690,-4,1,-2,-2,-3,1,0,-4
1558442243387575,0,-1,-1,-1,-5,-1,0,3
1558442243387575,-1,-1,-2,1,4,0,2,1
1558442243388322,0,-1,-1,0,9,1,2,2
1558442243388322,-1,-1,0,-1,-6,-5,-2,-1
1558442243401521,-1,0,1,1,4,4,1,-2
1558442243401521,-2,-1,-2,-2,-2,-2,-7,-7
1558442243408473,0,-2,-3,-2,-9,-6,0,5
1558442243408473,-1,0,-2,-2,-8,-7,-2,-4
1558442243424460,-3,-4,-4,-2,2,3,-2,-2
1558442243424460,0,-3,-2,0,1,-6,2,7
1558442243431241,0,2,5,2,2,-6,-2,-8
1558442243431241,-2,-3,-2,-3,-5,-8,-2,2
1558442243447392,-1,0,-1,-1,-4,-9,1,-4
1558442243447392,-1,0,-1,-1,1,2,3,-1
1558442243448164,0,-1,-1,0,0,1,1,-1
1558442243448164,0,-2,-3,-1,-1,-4,0,7
1558442243461327,-3,-3,-2,-2,-3,1,-4,-6
1558442243461327,-1,1,1,0,2,1,0,2
1558442243468303,-2,-1,-3,-1,-5,-2,-1,-2
1558442243468303,1,1,1,-2,0,-4,-1,-4
1558442243484300,-1,0,0,-1,4,3,-2,-1
1558442243484300,-2,-1,0,1,-2,3,1,-1
1558442243490048,-5,-2,-3,-4,-6,-3,-4,0
1558442243490048,-2,-1,-1,0,11,11,5,-1
1558442243507283,-2,0,-1,-1,-5,-10,-5,-3
1558442243507283,0,-1,-3,-2,-3,-5,-2,2
1558442243508260,-4,-2,-4,-1,1,2,-2,-4
1558442243508260,-1,-2,0,0,-2,4,-2,-2
1558442243520998,0,0,0,-3,-9,-10,-2,-3
1558442243520998,-5,-1,-1,-1,-6,0,-4,-2
1558442243527944,0,0,0,0,2,3,-4,-1
1558442243527944,-1,-1,-3,-1,0,-1,-3,-4
1558442243543903,2,1,2,0,3,2,5,9
1558442243543903,-4,-3,-7,-4,-5,-3,1,-1
1558442243550892,-2,-1,1,1,4,6,-1,-4
1558442243550892,-3,0,-3,0,0,1,-2,-4
1558442243567277,2,-1,0,0,4,7,4,2
1558442243567277,1,-1,2,-2,1,-4,-1,-4
1558442243569131,-2,-4,-3,-2,-7,-8,-5,-1
1558442243569131,-3,-1,-1,-3,-7,-3,-3,-3
1558442243582056,-4,-2,-1,-2,-1,-3,-6,-4
1558442243582056,-1,-1,-2,-1,0,0,1,1
1558442243588282,3,0,-1,1,4,3,3,2
1558442243588282,0,-3,-3,-2,-1,-2,-3,1
1558442243604530,-2,-2,-2,-3,-6,0,-3,-3
1558442243604530,-3,-1,1,0,-4,-3,-2,-6
1558442243611439,-3,-1,-1,-4,-7,-13,-2,-3
1558442243611439,0,-1,-1,0,-1,-1,1,9
1558442243627644,-1,-1,0,-1,4,6,4,-1
1558442243627644,-1,-1,-1,0,5,1,0,-3
1558442243628169,1,0,-1,-1,-1,-1,0,1
1558442243628169,-1,-3,-1,-2,-5,-7,-4,-1
1558442243641364,-3,-2,-3,3,4,0,-4,-4
1558442243641364,2,1,0,-2,-4,-4,-5,-1
1558442243649551,-3,-1,-1,-1,-3,0,-3,-4
1558442243649551,-1,2,1,0,0,3,1,-3
1558442243664417,-2,-3,0,-1,5,6,2,-2
1558442243664417,1,-4,-1,-2,-2,-1,-2,-1
1558442243670427,0,0,1,-1,-3,-6,-3,3
1558442243670427,-1,-2,-1,-2,-1,-1,-1,-1
1558442243687349,-2,-1,-2,-3,-8,-2,3,6
1558442243687349,-2,-2,-2,-1,4,3,-3,-7
1558442243688010,-1,0,2,1,-4,-5,-2,-1
1558442243688010,0,-1,1,-1,2,9,3,-1
1558442243701974,1,-1,-2,-2,-5,-5,-4,-1
1558442243701974,0,-1,1,-3,-8,-7,-7,-2
1558442243708292,-2,-1,-5,-3,-7,-6,-2,-5
1558442243708292,2,0,3,3,15,10,6,5
1558442243724256,2,0,2,3,8,5,3,2
1558442243724256,0,3,0,1,5,9,3,2
1558442243731240,-3,-3,-5,-6,-9,-8,-7,-3
1558442243731240,-3,-2,-1,-3,-6,-7,-3,-2
1558442243747231,-2,0,-2,-3,-1,3,2,-3
1558442243747231,1,1,0,1,-4,-7,-3,3
1558442243748974,-1,-3,-4,-3,-2,2,0,-4
1558442243748974,-2,-1,-2,0,1,0,-5,-6
1558442243760817,-2,-2,0,-1,-3,-5,-3,-3
1558442243760817,-3,-1,-2,-1,-2,-1,1,-1
1558442243769790,1,0,2,0,6,8,5,4
1558442243769790,0,-3,-3,-3,-7,-11,-6,-1
1558442243784101,-3,-2,-1,-4,-7,-7,-7,-8
1558442243784101,-3,-2,-2,-5,-12,-9,-4,-1
1558442243791098,3,3,1,2,11,17,12,8
1558442243791098,2,-1,0,2,4,2,4,2
1558442243807016,-2,-2,-1,-1,-1,-5,-6,-1
1558442243807016,-3,-3,-7,-2,5,6,-5,-13
1558442243808687,-1,-1,0,-3,-7,-10,-5,2
1558442243808687,-3,0,0,-1,-3,3,4,-2
1558442243821001,1,3,4,1,3,-4,2,3
1558442243821001,2,2,-2,0,0,0,1,5
1558442243827730,-3,-5,-7,-3,-3,-3,-6,-6
1558442243827730,0,1,-1,-1,0,1,0,1
1558442243843941,-1,-3,-4,-2,-6,-1,-1,-1
1558442243843941,1,0,4,0,0,2,0,-2
1558442243850925,-2,-4,-3,-2,-2,-5,2,2
1558442243850925,-2,0,2,1,1,-1,-2,-6
1558442243867531,-1,-3,-7,-2,-2,-2,1,-2
1558442243867531,-1,-3,0,1,-3,-1,2,3
1558442243868530,1,1,4,1,7,0,-3,1
1558442243868530,-2,-1,-2,-2,-3,-4,-2,-1
1558442243880495,0,-1,-4,-1,-1,1,0,-3
1558442243880495,0,-1,-5,-1,-1,1,2,4
1558442243889471,0,-2,-2,0,0,3,-1,0
1558442243889471,0,0,4,0,-4,-5,-2,-2
1558442243904433,1,-1,0,-1,3,-6,-3,-1
1558442243904433,-2,-3,-3,-2,-4,3,-1,-1
1558442243910749,-3,-3,-1,-3,-6,-4,-5,-8
1558442243910749,-3,-4,-1,0,-2,2,-2,-4
1558442243927667,-1,-2,1,-3,-13,-12,-9,-4
1558442243927667,-4,-3,-4,1,10,10,7,2
1558442243928368,-1,1,1,1,8,5,3,2
1558442243928368,2,2,2,-2,2,1,2,2
1558442243940619,-5,-4,-4,-5,-9,-4,-4,-4
1558442243940619,-4,-3,4,-2,-12,-19,-11,-8
1558442243949514,1,-1,-9,1,9,8,4,-1
1558442243949514,-3,-4,-10,-2,-1,-2,0,5
1558442243964397,-2,-2,2,0,-2,-2,-3,2
1558442243964397,-2,-1,-1,-1,-4,6,-4,-3
1558442243970600,-1,3,8,2,8,5,1,-6
1558442243970600,1,0,-2,-1,-6,-9,0,8
1558442243994296,-2,-2,-4,0,3,7,1,-8
1558442243994296,-1,2,5,-1,6,3,5,1
1558442243996228,-2,-4,-1,-1,-8,-6,-3,1
1558442243996228,1,1,0,-1,-2,-2,-3,-3
1558442244001215,4,0,2,2,3,2,5,5
1558442244001215,1,-1,-1,-2,-2,-3,-1,-2
1558442244009470,-1,0,0,1,2,1,-6,-2
1558442244009470,-2,-2,-5,-3,-1,1,-2,-2
1558442244024435,-1,-2,1,-1,-3,-2,-2,-1
1558442244024435,2,0,6,1,2,-2,-2,-2
1558442244055089,-1,-3,-12,-3,-7,2,3,4
1558442244055089,-3,-3,5,-1,1,-2,-6,-3
1558442244056069,-1,-2,-6,-1,5,-5,-5,-3
1558442244056069,-2,-4,-6,-3,3,4,1,0
1558442244057098,-2,0,2,-1,-6,1,3,-1
1558442244057098,-2,-1,1,-1,-5,-6,-5,-7
1558442244060337,2,0,2,-1,-3,0,2,4
1558442244060337,0,0,-3,0,6,4,-2,-5
1558442244069034,-2,-3,1,0,-4,-5,-7,-8
1558442244069034,0,-1,-2,-2,-4,0,7,5
1558442244083993,0,2,3,2,9,8,3,3
1558442244083993,-2,-4,-6,-3,-11,-16,-7,-1
1558442244090005,1,1,2,-3,2,2,2,3
1558442244090005,0,-2,-3,-1,-1,0,-2,-2
1558442244105934,-3,-2,1,-2,-10,-8,-2,-1
1558442244105934,2,-1,-5,-1,4,3,3,2
1558442244112915,-1,1,1,-1,2,-3,-1,-1
1558442244112915,-2,-1,-4,1,-1,-3,-2,-2
1558442244119895,0,-2,1,-1,-2,2,2,-1
1558442244119895,0,-1,-2,-3,-8,-11,-5,0
1558442244128872,0,-1,0,0,-2,1,2,2
1558442244128872,0,-2,-2,0,3,8,0,-1
1558442244144181,-3,-2,1,2,-4,-6,-4,-2
1558442244144181,-2,0,-4,0,1,-1,0,0
1558442244151172,-2,-2,-2,-3,0,2,0,1
1558442244151172,-3,-2,-1,-2,1,-2,0,-2
1558442244166818,-3,0,-4,0,-1,8,-1,-4
1558442244166818,0,0,4,-1,-5,-4,-4,-2
1558442244181995,0,1,5,0,-2,-6,1,-3
1558442244181995,0,-3,-8,-1,2,-1,-7,-1
1558442244181995,-2,0,-1,-2,-3,0,-7,-4
1558442244181995,-1,0,0,-1,2,2,2,-1
1558442244189710,-4,-2,-1,0,-1,-1,-6,1
1558442244189710,0,0,3,0,5,4,5,2
1558442244204117,2,2,3,3,11,4,8,8
1558442244204117,-1,-2,-3,-1,-4,-2,0,-3
1558442244210827,-2,0,-5,-4,-11,-2,-3,-3
1558442244210827,-1,-1,0,-3,-4,-7,-3,-2
1558442244227008,0,-2,-3,-3,-2,-5,-3,-1
1558442244227008,0,1,1,0,4,8,5,2
1558442244233878,0,1,-2,0,-1,-1,0,-1
1558442244233878,-1,1,0,-2,-7,-6,-6,-4
1558442244240939,-2,-3,-2,-2,-5,-4,-2,-1
1558442244240939,-1,-3,-2,-2,0,-4,-3,3
1558442244249584,-1,-2,0,-1,4,-1,-2,-3
1558442244249584,-4,-2,-1,1,5,5,2,-4
1558442244263513,-3,-4,-8,-3,-3,-1,-6,-7
1558442244263513,-2,-3,-6,-2,-7,-6,-2,-3
1558442244270870,1,1,2,1,3,5,6,7
1558442244270870,0,0,2,-1,-1,3,1,1
1558442244285911,-2,1,0,2,9,5,1,-2
1558442244285911,1,-1,-1,-2,-2,-3,-2,2
1558442244293228,-2,-2,-4,-3,-7,-4,-4,-8
1558442244293228,1,2,0,0,-6,-5,5,4
1558442244308849,-1,0,2,-2,-5,-3,-5,-2
1558442244308849,-2,0,0,-1,-3,1,-3,-2
1558442244308849,2,1,6,4,5,-4,4,4
1558442244308849,-1,-2,-5,0,5,8,3,0
1558442244323842,0,-2,-2,-3,-1,0,2,1
1558442244323842,-1,-1,0,-1,-2,1,-3,-3
1558442244330788,-5,-8,-7,-6,-15,-18,-15,-11
1558442244330788,0,-1,-1,1,6,8,8,9
1558442244345750,1,0,-2,1,5,7,4,3
1558442244345750,-2,1,4,0,0,-7,-2,-3
1558442244353833,0,-1,-4,1,0,1,-5,-1
1558442244353833,1,3,3,-1,-3,-4,0,0
1558442244369118,-4,-3,0,-3,-5,1,-8,-11
1558442244369118,-4,-3,-13,-5,-9,-8,-6,-4
1558442244369688,0,-1,-1,-2,-4,-5,-2,0
1558442244369688,0,-1,0,0,-2,-8,-2,-3
1558442244384809,2,1,4,2,8,7,5,5
1558442244384809,2,1,5,2,4,6,5,1
1558442244391270,-3,3,2,1,4,5,1,-2
1558442244391270,-3,-6,-10,-4,-6,-7,-7,-4
1558442244405756,-3,-2,-3,-2,-9,-6,-2,-2
1558442244405756,-1,-2,-1,0,3,1,0,-2
1558442244413174,1,1,-1,-1,4,6,8,7
1558442244413174,-2,-1,3,-2,-10,-3,-7,-12
1558442244428842,0,-1,-1,0,3,-1,1,5
1558442244428842,-2,-1,-3,0,3,3,1,0
1558442244429692,1,0,-1,0,0,-3,1,5
1558442244429692,-5,-2,-3,0,2,5,-4,-7
1558442244444653,0,0,0,-2,0,-5,4,1
1558442244444653,-1,-1,0,0,0,10,0,-1
1558442244450976,-3,-4,-6,-3,-11,-18,-9,-12
1558442244450976,-1,-2,-4,-3,-6,-3,-6,-2
1558442244465873,3,3,2,3,10,9,5,3
1558442244465873,-1,1,2,0,3,1,1,4
1558442244473641,-3,-1,3,0,1,6,-1,-2
1558442244473641,-4,-5,-8,-2,-3,-4,-2,0
1558442244488537,1,-1,-1,-3,-4,-4,0,-1
1558442244488537,0,0,-2,-3,-1,-7,-4,-2
1558442244489533,-1,0,2,-2,-5,0,3,-3
1558442244489533,2,0,5,-1,4,0,5,6
1558442244504492,-1,-1,-6,0,7,3,-3,-1
1558442244504492,-2,-2,-1,-3,-6,-6,-3,-3
1558442244510478,-3,-1,-5,-1,-4,0,-3,-2
1558442244510478,0,-1,2,-1,0,1,0,0
1558442244533413,0,-1,-1,-2,-6,-10,-5,-3
1558442244533413,-3,-1,1,0,-2,3,-2,-6
1558442244534411,-2,-3,-3,-2,0,-2,-3,-3
1558442244534411,0,1,3,2,7,7,1,0
1558442244548411,-1,-3,-1,-1,-5,1,-1,3
1558442244548411,-2,-1,-2,-1,-2,-7,-2,-3
1558442244549403,3,1,-1,0,-2,-1,0,2
1558442244549403,-4,-3,-5,-2,-2,-2,-1,0
1558442244564368,-3,-3,-1,-2,0,4,5,-2
1558442244564368,0,-1,-1,0,-1,-2,0,3
1558442244570669,2,1,4,1,4,-5,6,5
1558442244570669,1,0,-4,-2,-7,-5,-5,-6
1558442244586322,0,0,-4,-3,-5,-5,-4,-2
1558442244586322,0,-1,0,-1,0,1,-2,-2
1558442244593305,0,1,2,2,8,11,5,6
1558442244593305,1,1,3,0,3,2,0,2
1558442244608682,-5,-4,-6,-3,-10,-11,-5,-3
1558442244608682,2,2,2,1,6,11,5,3
1558442244609261,-3,-3,-4,-2,-7,-7,-8,-7
1558442244609261,1,0,0,-1,-3,1,2,2
1558442244624616,3,3,-1,3,6,5,-2,-1
1558442244624616,2,0,-1,-3,-4,-5,-2,0
1558442244631386,-3,-5,-4,-3,-3,0,-5,-7
1558442244631386,-4,-3,-3,-4,-9,-5,-6,-3
1558442244646438,0,2,6,2,1,0,0,-2
1558442244646438,2,0,0,2,4,2,4,10
1558442244653588,0,1,-3,-3,1,5,1,-2
1558442244653588,-2,-2,-4,-2,-3,-4,-1,-3
1558442244669461,-1,-2,-3,-2,-2,-5,3,3
1558442244669461,-1,-1,-3,0,0,2,2,-6
1558442244669461,-4,-5,-3,-1,-10,-6,-7,-1
1558442244669461,-1,0,3,2,9,5,1,2
1558442244685141,5,2,0,0,9,13,8,4
1558442244685141,-1,-2,0,-1,-2,-5,-6,-3
1558442244691363,-3,-4,-1,-1,-3,-4,-3,-2
1558442244691363,1,0,1,-1,-3,-3,2,-1
1558442244705006,-2,0,-3,-1,-6,-7,-7,-1
1558442244705006,-1,1,-2,-3,2,-1,0,-3
1558442244713018,1,-1,0,-1,7,10,2,4
1558442244713018,0,0,-2,0,-3,-5,-3,-1
1558442244728988,-4,-3,1,-1,-10,-12,-7,-3
1558442244728988,-2,-4,-1,-2,-8,-11,-8,-3
1558442244728988,-2,2,1,1,1,3,1,-2
1558442244728988,0,1,-2,0,7,6,2,-1
1558442244744900,-2,-3,0,-3,-6,-6,-7,-2
1558442244744900,-2,-4,-5,-5,-9,-5,-1,-1
1558442244751344,1,1,3,2,10,7,2,3
1558442244751344,-2,-1,-1,0,-3,-7,-4,-2
1558442244766377,-1,-1,-3,-3,-4,-3,-1,-1
1558442244766377,-3,0,3,0,-1,-2,-5,-3
1558442244773800,-1,-3,-4,-5,-7,-8,0,0
1558442244773800,-3,-4,-5,-1,2,1,-1,2
1558442244788283,1,-1,1,0,0,4,0,-3
1558442244788283,-2,-4,-6,-2,-3,1,-1,-2
1558442244789279,-2,-1,-2,-2,-1,-3,-4,-5
1558442244789279,0,-3,-3,-2,-3,-5,0,0
1558442244804582,-1,0,2,1,4,2,1,-3
1558442244804582,0,-2,-4,-1,3,8,1,2
1558442244811252,3,0,-1,-2,-4,-7,-1,7
1558442244811252,-3,-2,-2,-1,-8,-12,-8,-8
1558442244825534,-3,-2,-2,0,4,9,2,-2
1558442244825534,0,2,2,2,3,3,1,6
1558442244833548,-5,-1,-1,-1,4,1,4,-5
1558442244833548,2,-1,5,-1,-2,-2,0,3
1558442244849417,-2,-1,-4,-3,-3,-4,-2,-4
1558442244849417,-1,1,0,-1,6,1,1,-1
1558442244849417,1,-1,-2,-4,-9,-4,-3,1
1558442244849417,0,-1,1,-2,-4,0,-6,-12
1558442244864373,-2,1,1,0,3,3,2,0
1558442244864373,-1,-4,-5,-2,0,1,0,-1
1558442244871097,1,-1,-1,1,1,-4,2,0
1558442244871097,-2,1,0,-3,-3,-5,-2,-2
1558442244886260,0,-3,-2,-1,-5,-5,-3,0
1558442244886260,-3,0,-2,-2,-1,2,-1,-2
1558442244893276,-7,-5,-3,-1,-4,2,-4,-4
1558442244893276,-2,-3,-2,-2,-8,-7,-4,-1
1558442244908959,2,0,-1,2,12,11,7,4
1558442244908959,-4,-4,0,-1,-5,-6,-1,-1
1558442244908959,0,-2,-3,-4,-3,-3,-3,-1
1558442244908959,-4,-2,-2,-1,0,5,1,-4
1558442244931934,0,1,-1,-1,0,0,1,-3
1558442244931934,2,0,-1,0,-3,-5,0,4
1558442244931934,-1,-1,0,-1,2,-1,-1,5
1558442244931934,1,0,2,0,2,5,4,-2
1558442244947093,-1,-3,-2,-2,-2,0,1,6
1558442244947093,-2,-3,-1,-1,-3,-3,-3,-5
1558442244953264,1,0,3,0,-1,-9,-5,-3
1558442244953264,2,0,-3,-1,3,2,5,7
1558442244969261,-3,-3,1,-3,-11,-8,-9,-3
1558442244969261,-1,1,1,-1,-5,-1,-2,-4
1558442244969261,1,1,0,1,12,10,4,0
1558442244969261,-3,-2,-2,0,3,7,0,0
1558442244984757,-2,0,0,-1,5,3,2,2
1558442244984757,-2,-1,-1,-3,-10,-8,-2,0
1558442244991211,-2,-3,-1,-2,-3,-5,-5,-7
1558442244991211,-1,-1,-4,-3,-7,-6,-3,3
1558442245021661,-2,1,4,3,7,9,9,-3
1558442245021661,0,0,-10,0,4,6,2,2
1558442245022656,0,1,1,1,-5,-4,-4,-2
1558442245022656,-1,1,2,1,-1,-5,-1,0
1558442245027643,-1,-2,-4,-2,-8,0,-2,0
1558442245027643,-2,-1,0,-3,1,1,-2,-9
1558442245035620,1,0,-6,-4,-6,-7,1,0
1558442245035620,3,0,1,0,8,1,3,6
1558442245044598,-4,-4,-4,-4,-9,-8,-9,-6
1558442245044598,-1,0,4,1,7,3,2,-3
1558442245050579,-2,0,-1,1,4,13,2,0
1558442245050579,0,-1,-2,-2,3,8,6,5
1558442245067567,-2,-2,-5,-2,-7,-16,-10,-6
1558442245067567,3,-1,3,1,0,-3,5,4
1558442245073551,-1,0,4,0,-2,-1,-1,1
1558442245073551,0,1,-7,-1,0,2,-1,-1
1558442245087744,-2,-2,-2,-2,0,4,4,0
1558442245087744,-2,0,0,0,2,-2,-1,-4
1558442245095733,0,-1,-4,-2,-2,-6,0,2
1558442245095733,1,1,3,3,3,5,-1,-4
1558442245104465,-1,-5,-8,-5,-7,-5,-4,-6
1558442245104465,-1,0,1,-3,-6,-7,-5,3
1558442245110421,-4,-2,-2,-1,-1,0,-3,-5
1558442245110421,-5,-4,0,-3,-6,-8,-8,-6
1558442245126663,1,0,0,3,5,3,-3,0
1558442245126663,0,-2,1,-1,1,2,-1,0
1558442245133361,0,-3,-1,-3,-3,-1,2,-1
1558442245133361,1,-1,-2,-1,5,-2,2,3
1558442245149316,-1,-1,1,-2,-4,-4,-2,-5
1558442245149316,-1,0,-1,-1,3,7,5,0
1558442245155311,-2,-1,5,-2,-2,0,-3,1
1558442245155311,-6,-6,-12,-4,-9,-7,-8,-9
1558442245171257,0,-1,-3,-1,4,-2,4,8
1558442245171257,-2,-5,-5,-2,-5,-5,-7,-2
1558442245171257,-1,-1,0,2,3,7,1,-5
1558442245171257,1,2,6,1,5,5,4,3
1558442245187214,-1,1,0,-3,-4,-4,-3,0
1558442245187214,-4,-2,-5,-3,-13,-14,-10,-4
1558442245193198,1,1,-6,-2,-4,-3,4,2
1558442245193198,2,2,2,1,2,5,2,2
1558442245208509,-3,-3,-5,0,4,-4,-5,-7
1558442245208509,3,2,6,2,6,5,6,4
1558442245216204,0,0,-3,-1,-1,-3,-1,0
1558442245216204,-1,-3,-3,-1,-5,-3,-5,-4
1558442245231453,-2,-1,0,-2,-6,-3,-3,-5
1558442245231453,-3,-2,0,-2,-3,-1,2,-3
1558442245232095,-1,-4,-8,-2,-1,1,0,2
1558442245232095,0,-1,1,-1,-1,-8,-5,-7
1558442245247056,0,2,3,1,3,2,1,-1
1558442245247056,1,0,-2,0,2,4,0,0
1558442245253039,1,0,3,0,1,-2,0,0
1558442245253039,-3,-4,-6,-2,-5,-2,-2,0
1558442245268450,0,0,2,-4,-5,-2,-2,4
1558442245268450,-5,-2,-2,-2,-6,-9,-1,-7
1558442245276437,-1,-1,2,-3,1,-1,-2,-1
1558442245276437,0,2,4,3,11,10,10,3
1558442245291301,3,2,2,5,7,9,6,4
1558442245291301,-1,-6,-7,-1,-6,-5,-4,-1
1558442245291935,-2,-2,-3,-1,-2,-2,0,-3
1558442245291935,-2,-2,1,-1,-4,-6,-3,-6
1558442245306989,-3,-1,1,-3,-4,-2,-3,0
1558442245306989,-1,0,-6,-1,-2,-1,-1,0
1558442245312880,-3,-2,0,-1,-5,-4,-7,-10
1558442245312880,-1,-2,-2,-1,-1,-1,-4,0
1558442245327879,1,0,1,-2,-4,-5,-1,-1
1558442245327879,0,1,-2,-2,-1,-6,-3,1
1558442245336178,-2,0,0,1,-1,3,0,-2
1558442245336178,1,2,2,1,7,3,1,2
1558442245351926,-3,-5,-1,-4,-7,-1,-4,-4
1558442245351926,-3,1,2,-1,-2,-2,-3,-6
1558442245351926,2,-2,0,0,5,4,10,8
1558442245351926,-1,1,3,2,5,9,6,2
1558442245366995,4,1,-3,0,4,0,1,3
1558442245366995,0,-1,-2,-3,0,-3,-1,-4
1558442245372720,-3,-2,-2,-3,-7,-6,-7,-2
1558442245372720,-4,-1,-2,-2,-5,-5,0,0
1558442245387775,1,1,1,0,2,5,1,0
1558442245387775,1,0,2,2,5,1,3,4
1558442245395994,0,0,4,-2,-4,-9,-5,-2
1558442245395994,-4,-3,-10,-6,-11,-6,-7,-3
1558442245411773,-2,-2,-2,0,3,5,2,0
1558442245411773,-1,0,2,1,0,3,-2,-5
1558442245411773,0,-2,1,-1,6,1,-2,1
1558442245411773,0,-3,-6,-3,-6,-7,-7,-1
1558442245426935,-4,-3,-2,1,2,1,2,-6
1558442245426935,-1,-3,-3,-3,-1,1,-2,-1
1558442245433671,0,0,0,0,-2,-1,0,1
1558442245433671,3,0,4,1,-3,-3,-2,1
1558442245448734,-2,-3,-2,-1,-4,-5,-3,-4
1558442245448734,0,2,1,-2,4,3,0,1
1558442245455500,-3,1,-2,-1,2,4,3,-2
1558442245455500,-2,0,1,-1,2,3,3,0
1558442245471456,-2,-1,-2,-2,-9,-13,-10,-6
1558442245471456,-5,-5,1,-1,-3,2,-5,0
1558442245471456,-3,-4,-9,-1,-3,2,-3,-5
1558442245471456,2,3,-1,0,-4,-7,-2,-1
1558442245486701,0,0,-1,0,10,5,0,4
1558442245486701,-1,0,-2,1,4,5,11,6
1558442245493677,0,0,-1,-1,-1,-7,-2,-2
1558442245493677,-2,0,3,-1,2,6,0,-3
1558442245508610,-2,-1,-3,-2,-13,-10,-6,1
1558442245508610,2,2,1,0,5,1,3,1
1558442245515338,-1,1,-1,0,6,3,2,3
1558442245515338,-2,-3,-2,-4,-7,-4,-2,-5
1558442245531562,-1,-2,-2,-3,-7,-5,-4,-2
1558442245531562,1,-2,-3,-2,-3,-1,-4,0
1558442245531562,1,-1,2,1,2,0,1,2
1558442245531562,-4,1,-1,1,1,-2,-2,-6
1558442245547251,-2,-3,2,-1,-2,2,1,3
1558442245547251,-1,-6,-9,-3,-2,-4,3,-1
1558442245553238,3,0,0,0,4,2,-2,-2
1558442245553238,1,-2,-4,-3,-5,-1,-2,2
1558442245568703,0,1,2,-2,-1,-5,0,-9
1558442245568703,-1,0,2,0,-6,-2,-3,2
1558442245575676,-3,-2,-5,-4,-10,-5,-5,-1
1558442245575676,-1,-1,0,-1,3,2,1,2
1558442245591594,-1,0,-4,-2,0,-5,-1,1
1558442245591594,-2,1,1,-1,3,3,0,-3
1558442245592132,-2,1,-2,-2,-4,-1,0,-1
1558442245592132,-1,-3,0,-1,-7,-6,2,0
1558442245607091,-1,1,-1,-1,-2,2,-3,-8
1558442245607091,0,-1,-2,1,1,3,-1,-2
1558442245615104,1,2,5,0,7,7,4,5
1558442245615104,0,-1,-7,-1,-1,-4,-3,-1
1558442245628434,0,-1,-2,-3,-3,-5,-2,4
1558442245628434,-2,-1,1,-3,-7,-2,-3,-3
1558442245636358,-2,-2,-1,1,3,3,2,1
1558442245636358,3,1,3,1,10,6,7,-3
1558442245651323,-1,-1,-1,1,3,3,0,3
1558442245651323,0,0,6,-1,-5,-2,-5,-2
1558442245651973,-1,-2,-10,-5,-10,-12,-6,-2
1558442245651973,0,-2,-3,-2,-2,-1,-1,2
1558442245666933,-4,-3,-2,-2,-5,-1,0,0
1558442245666933,-2,-2,-2,1,-5,-6,-7,-7
1558442245672916,0,2,5,2,10,8,7,2
1558442245672916,-1,-2,1,-1,3,2,0,1
1558442245687875,-1,0,-3,2,0,-2,-1,-4
1558442245687875,-3,-4,-3,-3,-9,-7,-2,-1
1558442245696044,-1,-2,1,-1,-5,3,-1,-6
1558442245696044,1,1,1,2,12,8,-2,3
1558442245710894,0,-2,4,2,6,7,4,2
1558442245710894,-3,-1,-8,-3,0,-6,-3,-2
1558442245711813,-1,-4,-4,-4,-11,-12,-8,-4
1558442245711813,-2,-3,1,-2,-8,-9,-4,-5
1558442245726774,0,-1,1,-1,4,6,2,0
1558442245726774,1,-1,1,0,7,-1,4,10
1558442245732754,-3,-2,-1,1,1,2,3,-8
1558442245732754,-4,-2,-3,-3,-11,-8,-8,-4
1558442245747714,-2,-3,-5,-3,-6,-4,-5,0
1558442245747714,1,0,2,0,5,10,5,3
1558442245764023,-1,-2,-1,-3,-7,-4,-6,-1
1558442245764023,-3,-1,1,-3,-5,-5,-4,-4
1558442245770654,0,2,-1,0,8,3,1,0
1558442245770654,4,1,-3,2,4,7,5,1
1558442245771652,0,2,2,1,4,3,1,4
1558442245771652,-2,-1,-3,-3,-6,-7,-5,-6
1558442245786869,-2,-2,-5,-3,-2,0,-5,1
1558442245786869,-2,1,4,2,-2,-6,0,-3
1558442245793629,0,-2,-6,-2,-1,-3,-6,-2
1558442245793629,0,0,3,2,1,3,2,0
1558442245808070,1,1,2,1,4,-1,2,1
1558442245808070,-2,-1,-3,-2,-4,-6,-6,-6
1558442245815894,-6,-1,-2,-4,-7,-6,-1,-8
1558442245815894,0,0,-3,0,-1,3,1,6
1558442245831871,-1,-3,-3,0,-1,4,-1,-3
1558442245831871,3,1,-1,0,5,2,0,2
1558442245831871,1,0,1,-2,-2,-1,-1,5
1558442245831871,0,-3,-1,-1,-4,-5,-3,-1
1558442245847448,-3,-2,-2,-1,2,-1,-1,-6
1558442245847448,-1,0,1,-2,-3,-4,-2,-1
1558442245853781,1,-2,-1,-1,1,8,3,-5
1558442245853781,1,3,0,-2,-4,-10,-6,-1
1558442245868765,1,0,3,1,-7,-7,2,4
1558442245868765,-4,-1,-7,-1,0,3,2,-4
1558442245875738,2,1,9,3,7,3,4,2
1558442245875738,-2,-4,-9,-2,0,4,6,0
1558442245891692,0,-4,-6,-4,-10,-11,-8,-3
1558442245891692,-1,-1,-1,-1,1,0,-2,0
1558442245891692,1,0,-3,-1,3,6,3,4
1558442245891692,0,0,3,-2,-4,-4,-1,-2
1558442245907294,-2,0,1,-1,-4,-1,-4,-3
1558442245907294,-3,-5,-7,-3,-7,-2,-3,-3
1558442245913580,-2,-1,-2,0,1,0,-1,0
1558442245913580,-1,0,1,-1,-2,0,2,2
1558442245928533,2,0,4,2,9,0,3,3
1558442245928533,-2,-3,2,-2,-4,1,-5,-7
1558442245936272,-4,-7,-8,-3,-10,-11,-5,1
1558442245936272,-1,0,2,2,6,4,4,0
1558442245950176,0,1,-2,-2,-4,-3,0,4
1558442245950176,-3,1,2,0,-1,0,-4,-6
1558442245958506,-3,-1,0,-3,-8,-10,-9,-6
1558442245958506,-5,-3,-9,-5,2,7,1,-3
1558442245967129,-1,-1,-1,2,10,12,7,8
1558442245967129,4,3,4,2,10,5,6,-2
1558442245973117,-4,0,-1,-3,-6,-6,-7,-3
1558442245973117,0,0,2,-2,-7,-4,-3,-3
1558442245988074,-3,-3,-5,-4,-8,-4,-3,-4
1558442245988074,-1,-3,0,-2,1,0,0,0
1558442245996050,0,-1,-3,0,5,1,1,1
1558442245996050,3,1,4,2,7,1,4,5
1558442246010367,-2,-1,0,-2,-2,0,-2,-2
1558442246010367,-2,-1,-2,-3,-7,-5,-3,1
1558442246018385,0,-3,-1,0,0,3,3,0
1558442246018385,-4,-2,-2,-2,-3,0,-4,-5
1558442246026971,-2,-1,-1,-2,-2,-7,-9,-6
1558442246026971,1,-1,-1,0,-6,-6,-2,4
1558442246032952,1,-2,-1,0,5,7,3,2
1558442246032952,0,0,-1,1,6,6,6,5
1558442246047912,-1,-2,0,1,1,2,2,-1
1558442246047912,-2,-2,-2,-4,-5,-9,-9,-10
1558442246055889,-1,0,0,-3,-10,-1,-2,7
1558442246055889,-1,-1,-4,-2,-3,-6,-4,-2
1558442246069854,0,-2,2,2,5,3,3,0
1558442246069854,2,3,0,4,8,7,3,4
1558442246077867,0,0,0,-2,-1,-9,-3,-5
1558442246077867,-2,-2,-2,-4,-6,2,0,-1
1558442246086808,0,-2,-1,-3,-7,-2,-2,-3
1558442246086808,-2,-3,-4,-2,1,-3,-2,2
1558442246102080,0,1,3,2,3,-1,2,1
1558442246102080,1,0,1,0,5,0,0,-1
1558442246108834,-2,1,-1,-2,-9,-10,-5,0
1558442246108834,1,0,-4,-2,-3,4,0,0
1558442246115731,0,0,0,1,5,4,3,-6
1558442246115731,0,-1,0,-1,3,0,-1,3
1558442246130693,-1,-3,-2,-2,0,2,0,-3
1558442246130693,-3,-2,0,-1,-9,-15,-6,-3
1558442246137688,-2,-2,-4,-2,-5,-5,-3,-5
1558442246137688,0,-1,0,1,2,5,2,-3
1558442246153629,-1,4,2,0,3,3,5,1
1558442246153629,0,-1,1,-2,0,-4,1,1
1558442246154627,-2,-4,-6,-1,-1,-1,0,-1
1558442246154627,-2,-1,0,-1,-5,-5,-6,-3
1558442246167593,0,-1,-3,-1,1,4,-3,0
1558442246167593,-2,-1,0,-1,-5,0,-3,-3
1558442246175612,-3,-2,0,1,1,-5,-3,-2
1558442246175612,0,-1,-2,0,1,4,2,-1
1558442246190538,-1,-1,-3,1,4,6,5,2
1558442246190538,-1,-3,-2,-2,-3,0,-2,-2
1558442246197779,-2,-2,-2,-3,-5,-10,-4,-2
1558442246197779,-1,-2,-5,-2,-8,-6,-7,-3
1558442246213470,-1,-2,-3,-2,1,-2,-1,2
1558442246213470,3,2,1,1,3,2,4,6
1558442246214466,-1,-2,-1,-2,-4,2,-5,-4
1558442246214466,-1,0,3,-1,-1,-2,-4,-4
1558442246227432,1,-1,-6,-2,-2,-9,-3,-2
1558442246227432,-5,-2,-4,-3,-1,-2,-3,-3
1558442246235410,-1,0,-2,-1,0,4,5,2
1558442246235410,0,3,4,1,4,2,1,3
1558442246250372,-3,-2,-1,-2,-7,-1,0,-6
1558442246250372,1,0,3,-2,-4,-3,0,-1
1558442246266329,-2,-1,0,-3,-5,-4,-2,-1
1558442246266329,-2,-2,-7,-2,-3,-2,-3,-2
1558442246273309,-1,-3,-3,-2,-4,-6,-3,0
1558442246273309,1,-1,1,3,9,7,4,2
1558442246274306,1,-1,3,-2,-3,-2,-6,-4
1558442246274306,-2,-6,-8,-2,4,1,6,1
1558442246288272,-1,-4,-2,-2,-2,2,-1,-3
1558442246288272,-1,2,0,-1,0,4,-1,0
1558442246295251,-1,2,-3,-1,2,0,1,1
1558442246295251,-5,-3,-2,-3,-7,-12,-11,-4
1558442246310210,1,1,-1,-1,-6,-6,-2,-4
1558442246310210,-2,0,1,1,8,14,7,3
1558442246318396,-1,2,0,3,8,6,5,1
1558442246318396,1,0,-1,-1,-2,-5,-1,-4
1558442246333415,0,-1,0,-1,-3,-8,-6,-1
1558442246333415,-3,-4,-4,-2,-10,-6,-5,-6
1558442246334150,1,-1,1,0,0,2,2,1
1558442246334150,0,-1,-2,-1,-4,-2,-2,-2
1558442246348110,-1,0,1,-1,-1,-4,2,0
1558442246348110,-3,-3,-3,-1,3,3,1,0
1558442246355093,-1,0,1,-3,-4,-1,4,3
1558442246355093,-6,-3,-3,-4,-14,-13,-13,-4
1558442246370049,-5,1,0,1,1,5,-1,-3
1558442246370049,0,1,-2,1,5,5,1,0
1558442246378033,1,0,0,2,4,1,0,-1
1558442246378033,-2,-4,-2,-3,-7,-4,-4,-6
1558442246401966,1,0,-1,-3,-2,-2,-4,0
1558442246401966,1,-1,-4,-1,2,2,0,1
1558442246401966,-1,0,2,1,2,-2,-1,1
1558442246401966,0,0,-1,-1,-5,-4,-2,2
1558442246407951,0,1,0,0,-1,-2,2,0
1558442246407951,2,0,2,-1,5,9,3,-1
1558442246415100,-2,0,-2,-1,-1,-4,-1,0
1558442246415100,-1,-2,-3,-1,2,0,-1,-3
1558442246431008,-3,-5,-3,-3,-6,-3,-3,-4
1558442246431008,1,-2,0,-3,-3,-7,-1,-1
1558442246437870,1,-1,0,1,0,-2,-2,-3
1558442246437870,-1,1,1,-2,0,3,-1,-2
1558442246453826,-1,-2,-1,-1,0,1,1,-1
1558442246453826,0,-1,-3,-1,-5,-9,-4,-2
1558442246453826,-2,1,-2,-1,1,0,-1,-1
1558442246453826,-2,-1,0,-1,4,5,5,3
1558442246467790,-1,-1,-1,0,-1,0,-2,3
1558442246467790,1,0,-2,0,4,-1,0,-1
1558442246475769,-1,-2,-2,-2,2,1,-2,0
1558442246475769,0,0,0,-1,-5,-7,1,-2
1558442246491005,-2,-2,0,-1,-2,-1,-3,-5
1558442246491005,-2,-1,2,1,1,4,3,1
1558442246497908,-3,-5,-1,0,1,6,3,-3
1558442246497908,-1,-1,-3,-2,2,-2,0,0
1558442246513867,-1,3,-1,0,0,-1,2,1
1558442246513867,-2,0,-1,-3,-9,-7,-5,-6
1558442246514670,1,1,-1,-4,-7,-2,-5,2
1558442246514670,1,2,3,5,8,6,7,2
1558442246527630,0,-1,-1,-1,1,-1,0,-2
1558442246527630,0,0,0,-1,0,-1,-4,-1
1558442246535608,-2,-1,-7,-5,-5,-4,-4,-1
1558442246535608,0,-1,0,0,3,3,2,2
1558442246550567,0,1,5,0,3,6,3,3
1558442246550567,-2,-6,-8,-2,-6,-7,-3,-2
1558442246557587,1,-1,2,1,-2,-1,-1,1
1558442246557587,0,-1,-3,0,-2,-4,-5,-1
1558442246573509,-2,-1,0,-2,-1,-5,-3,-1
1558442246573509,-1,0,-1,0,-1,0,2,2
1558442246574506,1,-1,-3,-2,1,-5,-1,-4
1558442246574506,-1,-1,0,1,5,0,-2,-1
1558442246587469,-1,1,0,-3,-3,-3,-3,-2
1558442246587469,-1,-1,-1,-3,-4,2,-1,-1
1558442246595448,-3,0,-2,-2,-1,-5,-4,-3
1558442246595448,1,2,7,2,1,7,4,1
1558442246610596,-2,-2,-3,-1,3,3,1,1
1558442246610596,-1,-3,-5,-4,-9,-7,-4,0
1558442246618430,-4,-3,-1,-1,-2,-1,-2,-7
1558442246618430,-1,-1,3,-1,0,0,-2,1
1558442246633406,-2,-6,-10,-3,-6,-9,-6,-9
1558442246633406,-1,2,1,0,1,-3,2,4
1558442246634344,-2,1,0,0,3,3,-1,2
1558442246634344,1,-2,-3,-3,-7,-1,-3,-3
1558442246648544,0,-1,-1,0,3,2,3,5
1558442246648544,-2,0,2,1,1,2,-3,-4
1558442246655292,-2,-4,-7,-5,-5,-5,0,-2
1558442246655292,-4,-1,-2,-2,0,1,-2,-2
1558442246670460,-1,1,0,0,-1,1,-2,-3
1558442246670460,1,-1,0,-1,3,-4,0,5
1558442246678226,0,1,2,1,-6,0,0,0
1558442246678226,0,-1,-2,-1,1,-1,-3,-1
1558442246693187,3,-1,-1,0,4,3,-2,0
1558442246693187,-1,-2,-1,-1,-4,-6,3,-2
1558442246694187,0,-2,-1,1,0,2,1,-1
1558442246694187,-2,1,-1,-2,-4,-6,0,5
1558442246708147,-3,-2,-2,-4,-7,1,-4,-5
1558442246708147,-1,-1,-1,-2,5,1,-1,-4
1558442246715128,0,-1,0,0,0,4,0,-2
1558442246715128,1,1,5,-1,-1,-7,-1,0
1558442246730346,0,0,-5,0,3,1,2,4
1558442246730346,-4,-3,-1,-3,-5,1,-4,-2
1558442246738297,-1,-1,-4,-1,-4,-2,-2,-5
1558442246738297,0,0,0,-4,-4,-7,0,-4
1558442246754254,2,0,4,-1,-5,-3,0,5
1558442246754254,-2,-1,-4,-1,5,2,1,-4
1558442246754254,-1,0,3,3,12,1,2,3
1558442246754254,1,1,-2,0,5,8,4,2
1558442246769215,-4,-1,-2,-2,0,-4,-3,-4
1558442246769215,-3,-2,-2,-3,-8,-4,-4,0
1558442246775212,-1,-1,-1,-1,-1,-5,-3,-1
1558442246775212,1,-1,0,0,2,8,7,0
1558442246790157,-1,-2,-1,0,-4,-6,-1,0
1558442246790157,-1,1,3,2,14,10,4,1
1558442246798137,-2,-3,-3,-6,-8,-10,-4,-3
1558442246798137,-3,-4,-4,-4,-8,-6,-4,-5
1558442246813096,-1,-1,-2,-1,-1,0,-3,-1
1558442246813096,-1,-2,2,0,-2,0,-4,-2
1558442246814092,2,1,0,-1,2,5,1,0
1558442246814092,-1,0,-5,-1,3,0,1,2
1558442246830052,-3,-3,0,-1,1,2,0,-2
1558442246830052,1,-2,-2,-1,-6,-6,-2,2
1558442246835075,-2,0,3,0,5,5,7,1
1558442246835075,-2,-2,-1,-3,-1,-1,-6,-5
1558442246850025,-2,-4,-5,-2,-4,-5,-1,-1
1558442246850025,-1,-2,-1,-1,-6,-8,-6,-2
1558442246857977,-1,-1,-2,-3,-8,-8,-4,-1
1558442246857977,-4,-6,-5,0,4,7,2,-2
1558442246873933,2,3,3,3,9,4,1,0
1558442246873933,-3,-1,-1,-2,-7,-9,-5,-6
1558442246874930,-2,-2,-2,-1,-4,-4,-3,1
1558442246874930,-1,-1,1,-3,-4,-4,-4,-1
1558442246888894,0,-1,1,-2,3,8,5,0
1558442246888894,1,0,4,1,5,10,4,0
1558442246894881,-1,-1,-8,0,-1,-1,1,-1
1558442246894881,-1,-1,1,0,-6,-11,-4,-3
1558442246910833,0,1,0,0,-1,0,0,0
1558442246910833,1,2,0,1,3,4,8,3
1558442246925794,-2,-2,1,-1,-1,3,-4,-2
1558442246925794,-4,-2,-1,-1,-2,-1,-5,-2
1558442246932776,-1,-3,-6,-3,0,-6,0,0
1558442246932776,-3,-2,-2,-2,-5,-2,-2,-4
1558442246940753,1,0,0,1,0,-1,1,3
1558442246940753,2,2,4,1,-3,-6,-3,-3
1558442246948732,-2,-2,-2,0,-3,1,1,6
1558442246948732,-1,-1,-1,1,5,2,-1,2
1558442246955715,-1,-5,-6,-5,-7,-6,-3,-1
1558442246955715,-4,-1,-2,-2,-2,7,-3,-10
1558442246970674,1,4,6,1,9,0,0,-2
1558442246970674,-2,-4,-7,-3,-5,-10,-2,-4
1558442246985633,-2,-1,-1,-2,-5,-1,-5,-3
1558442246985633,-1,-3,-4,-2,-5,-2,1,0
1558442246992616,-2,-1,1,0,-1,-1,2,2
1558442246992616,0,0,0,1,3,-1,-3,-1
1558442247000595,-2,-1,0,-1,1,5,-1,-2
1558442247000595,2,0,1,0,3,-1,3,5
1558442247009570,1,-3,-1,-1,-4,-5,-6,-3
1558442247009570,-1,-1,0,0,2,3,8,2
1558442247015554,0,-1,0,-1,0,-3,1,-4
1558442247015554,0,-1,-2,0,1,6,0,-1
1558442247030514,0,-3,-3,-2,-4,1,1,0
1558442247030514,0,1,-2,-1,-2,-16,-9,-2
1558442247037495,-3,-3,-3,-2,0,3,-3,-5
1558442247037495,1,2,3,1,2,1,3,3
1558442247053465,-1,2,6,2,5,5,3,-1
1558442247053465,-4,-6,-13,-5,-5,-3,-7,-4
1558442247060434,-1,0,-1,-2,-6,-1,4,6
1558442247060434,-4,-4,-7,-2,-2,-11,-11,-11
1558442247069410,0,-2,-2,-2,-3,-3,-3,-1
1558442247069410,1,0,5,3,5,7,7,1
1558442247075399,-2,-1,-1,1,4,-1,-3,1
1558442247075399,-2,-3,-3,-3,-4,0,1,6
1558442247098333,-1,0,1,-1,-7,-5,0,-6
1558442247098333,-4,-3,-3,-4,-7,-8,-7,-5
1558442247099331,-1,0,-2,-3,-5,-3,-6,-4
1558442247099331,-2,0,2,3,10,7,2,1
1558442247113293,1,0,0,3,7,7,3,6
1558442247113293,3,0,-1,-2,-2,3,0,1
1558442247120275,-3,-2,-2,-2,-8,-9,-5,-5
1558442247120275,-3,-5,-4,-2,-4,-4,-1,0
1558442247136231,0,-1,0,1,11,3,0,1
1558442247136231,-1,0,2,0,0,3,2,-2
1558442247136231,-2,-2,-1,-1,-6,-9,-6,-5
1558442247136231,1,1,0,-3,2,0,2,3
1558442247150201,-2,-2,2,-1,-4,4,-1,-1
1558442247150201,-1,0,-4,-1,-1,2,0,-1
1558442247158174,-2,0,3,1,2,1,-1,-5
1558442247158174,1,0,-3,-1,-7,-7,0,2
1558442247173133,1,-2,-3,-3,-5,-14,-11,-7
1558442247173133,0,0,-1,-2,-4,-3,4,13
1558442247180115,0,2,0,2,8,14,3,-4
1558442247180115,-3,0,2,1,0,5,0,-3
1558442247204050,-1,-2,-8,-3,-6,-9,-2,2
1558442247204050,-1,-3,0,0,3,3,-1,-1
1558442247205048,1,-2,0,0,3,0,2,2
1558442247205048,-1,-2,-1,-1,-3,-7,0,1
1558442247210035,-4,1,1,-1,-1,2,1,-4
1558442247210035,-2,0,0,-2,-4,-3,-3,-3
1558442247218012,1,-1,0,0,2,4,1,3
1558442247218012,-1,0,1,-1,0,-4,-4,-4
1558442247232973,-4,-6,-9,-6,-6,-4,3,4
1558442247232973,0,0,1,1,5,-2,0,-8
1558442247239954,-2,-2,-4,-1,-1,-3,-3,-1
1558442247239954,1,0,-1,-3,-5,1,-5,-2
1558442247255913,-5,-1,-2,0,-5,-4,-4,-3
1558442247255913,1,0,-2,1,0,1,-1,0
1558442247256909,-1,-2,4,1,6,2,0,0
1558442247256909,2,1,-1,0,0,-4,-2,-1
1558442247269873,-3,-3,-2,-3,1,2,-2,-1
1558442247269873,-2,-1,2,-1,-5,0,1,-2
1558442247277855,-3,-4,-3,-3,-3,-2,0,2
1558442247277855,0,0,-4,1,0,-5,0,4
1558442247292812,-2,0,0,-2,-9,-8,-9,-14
1558442247292812,-2,0,3,1,2,2,0,-1
1558442247300791,1,1,0,0,-3,-3,-4,-1
1558442247300791,-2,1,1,0,7,15,8,0
1558442247315751,2,-1,-8,-1,0,-3,2,4
1558442247315751,0,-2,-2,-2,-4,-6,-3,0
1558442247316748,1,0,-1,-2,-1,-1,-1,-2
1558442247316748,-3,-2,-2,0,2,6,4,1
1558442247330710,2,1,3,1,1,0,0,-1
1558442247330710,-1,-1,-1,-2,-3,-8,-6,-1
1558442247337692,0,-2,-6,-2,1,-6,-1,-3
1558442247337692,-1,-2,-1,-1,-2,1,-1,0
1558442247352652,1,1,1,2,6,11,4,0
1558442247352652,-3,-2,-1,-1,-7,-6,-5,-3
1558442247360631,-2,-2,-3,-2,-5,-6,-2,3
1558442247360631,0,-2,-3,-1,1,-2,-1,-5
1558442247375592,-2,-2,1,-1,1,2,4,2
1558442247375592,0,2,5,2,5,5,3,0
1558442247376588,0,0,-4,-1,-2,-4,-6,-5
1558442247376588,0,-3,-2,-2,-4,-4,0,1
1558442247390551,0,0,-1,-2,-4,-1,-1,0
1558442247390551,1,0,-6,-3,3,0,0,4
1558442247397532,-4,-2,0,-1,-1,3,-1,-7
1558442247397532,-3,-1,1,-1,-3,-3,-5,-5
1558442247412499,0,-2,-3,-3,-2,3,-5,-1
1558442247412499,1,0,4,1,0,1,2,1
1558442247420470,0,0,-2,1,2,3,5,7
1558442247420470,-1,-1,-2,-3,-4,-10,-6,-1
1558442247436429,-3,0,1,-4,-10,-7,-4,-2
1558442247436429,-3,-4,-4,-4,-4,-1,-1,-2
1558442247436429,1,1,4,2,5,8,2,2
1558442247436429,1,0,-1,0,5,3,8,1
1558442247450397,1,1,3,2,8,1,0,0
1558442247450397,-1,-3,-4,-2,-7,-7,-8,-7
1558442247457373,0,-2,3,-1,-5,-1,0,-1
1558442247457373,-1,-1,-4,-2,-2,2,-3,-1
1558442247472333,2,0,0,-2,-5,-6,-2,2
1558442247472333,-2,-3,-4,-2,5,-3,-1,0
1558442247480311,0,1,1,1,0,3,1,-2
1558442247480311,-2,-3,-3,-1,0,-3,-3,0
1558442247496273,0,0,3,-1,0,2,2,0
1558442247496273,-1,0,0,-2,-7,0,-1,-1
1558442247496273,-4,0,-5,-4,-5,-7,-1,4
1558442247496273,1,0,2,-1,5,6,0,-1
1558442247510232,-1,-3,-5,-1,-2,-8,-2,-3
1558442247510232,1,-1,2,1,4,6,-1,-2
1558442247518209,0,0,-2,-1,-1,-3,-2,0
1558442247518209,-3,-2,0,-2,-9,-6,-2,-3
1558442247533169,-2,-2,-2,-2,0,0,-1,2
1558442247533169,0,-1,4,2,7,6,7,4
