timestamp,emg1,emg2,emg3,emg4,emg5,emg6,emg7,emg8
1558442227075530,0,0,1,5,17,8,6,0
1558442227075530,1,1,1,2,10,7,3,1
1558442227076528,-2,0,-2,-1,-4,-4,-2,-2
1558442227076528,-3,-1,-1,-2,-11,-10,-4,-2
1558442227077525,-1,2,-1,-3,-6,-2,-4,-1
1558442227077525,-4,-3,-4,-6,-7,-5,-1,-2
1558442227077525,0,0,0,0,2,1,-2,-2
1558442227077525,-1,-2,-1,-1,2,2,-1,3
1558442227088496,-1,-2,-2,0,1,1,-4,-10
1558442227088496,0,0,2,2,-5,-6,-2,-5
1558442227099465,0,-3,-2,0,3,5,4,3
1558442227099465,-1,0,-1,0,4,2,4,-2
1558442227103455,2,0,2,0,-1,2,1,6
1558442227103455,-3,-4,-6,-4,1,4,0,3
1558442227120411,1,-1,2,-4,-15,-15,-2,-1
1558442227120411,1,-1,0,-1,-1,5,0,0
1558442227126397,2,2,4,3,11,4,7,4
1558442227126397,1,1,1,2,4,4,1,0
1558442227134375,-1,1,-1,0,5,0,1,0
1558442227134375,-3,-4,-3,-4,-6,-6,-4,-4
1558442227158309,0,-2,0,-2,-5,-2,-1,0
1558442227158309,-1,-1,-1,-2,-3,-2,-8,-3
1558442227160303,0,-1,-2,-2,-3,2,1,1
1558442227160303,0,3,0,1,-1,-4,-1,-3
1558442227163295,0,-1,2,-2,-3,-5,-3,4
1558442227163295,0,1,-2,0,2,3,3,-4
1558442227210170,1,0,-4,-2,-7,-5,-4,1
1558442227210170,0,-2,-2,-4,0,1,0,2
1558442227211168,-2,-2,-1,3,-1,5,2,0
1558442227211168,1,1,3,1,4,-2,-1,3
1558442227212164,-2,1,1,3,6,4,1,-4
1558442227212164,-2,-4,-4,-2,-2,-1,1,1
1558442227212164,-2,-2,-2,-4,-3,-6,-2,-4
1558442227212164,1,-2,-6,-3,-8,-8,-1,1
1558442227223135,-2,-7,-3,-4,-8,-5,-4,-1
1558442227223135,0,2,1,4,1,3,-2,-1
1558442227231116,1,1,2,-3,0,-1,-2,2
1558442227231116,3,3,4,4,1,2,4,1
1558442227240090,1,2,1,-2,6,3,3,-1
1558442227240090,1,-1,-2,-1,7,3,3,9
1558442227253055,-1,-1,2,3,-1,-1,-7,-10
1558442227253055,-2,-3,-5,-2,-2,-5,-6,-4
1558442227262031,-3,-2,-2,-2,-9,-6,-6,-7
1558442227262031,1,1,2,-2,4,4,3,-1
1558442227268015,1,2,1,-1,-1,0,4,7
1558442227268015,1,-2,2,-2,-1,2,-1,0
1558442227282975,-1,-1,1,-3,-2,1,5,7
1558442227282975,-4,-5,-7,-3,-4,-5,-5,-10
1558442227290961,-1,-2,-4,-1,3,3,0,0
1558442227290961,-6,-4,-3,-2,-2,-3,-3,-7
1558442227299929,1,1,1,-1,1,1,3,2
1558442227299929,-1,1,2,0,-3,-2,0,-1
1558442227313893,0,1,0,0,0,1,1,1
1558442227313893,-3,-2,0,0,-5,-3,-2,-4
1558442227322868,0,-1,-4,0,0,0,-1,0
1558442227322868,-1,1,2,-2,-2,-3,-6,-1
1558442227328852,-2,-3,-4,-3,-6,-7,0,-2
1558442227328852,-5,-1,4,-2,4,9,-6,-6
1558442227343813,1,-1,-3,4,14,8,1,-2
1558442227343813,0,-2,-4,2,1,4,1,-1
1558442227350793,-1,-1,1,-2,2,1,1,-1
1558442227350793,1,2,0,-6,-5,-7,2,2
1558442227359769,-6,0,0,-2,-8,-8,-7,-6
1558442227359769,-1,-3,-2,1,-1,-2,0,2
1558442227373733,1,1,1,-1,-2,2,-2,-2
1558442227373733,0,-1,-2,0,3,3,4,1
1558442227382710,-4,-3,-3,-2,-6,-6,-3,-5
1558442227382710,-2,-1,1,-3,-6,-5,-4,-2
1558442227388693,0,-1,2,-1,-5,-6,-2,1
1558442227388693,-2,-4,-12,-1,-4,1,-3,0
1558442227403652,0,-2,2,0,3,-2,-4,-1
1558442227403652,0,0,2,-1,-4,-3,-3,-1
1558442227410634,-1,0,2,-1,5,3,0,0
1558442227410634,0,-3,-7,-2,6,6,7,5
1558442227419610,-1,-3,0,-2,-6,-4,-4,1
1558442227419610,-3,-2,0,-1,-3,-4,-5,-4
1558442227433572,2,1,0,-1,1,-2,-1,2
1558442227433572,0,1,2,0,-4,-1,0,-2
1558442227442548,-2,1,0,-3,-1,1,-4,2
1558442227442548,-1,-2,-3,-4,-4,2,-3,-5
1558442227448533,0,-2,-3,1,0,0,-2,0
1558442227448533,0,2,4,2,0,-10,-4,0
1558442227463493,-3,-2,-4,-4,-4,0,2,-6
1558442227463493,1,0,-4,0,4,-1,3,1
1558442227470473,-3,-3,-8,-1,-3,-2,-1,2
1558442227470473,0,1,4,-1,1,-2,-2,1
1558442227479452,1,0,-3,0,0,0,-1,-3
1558442227479452,-1,0,1,-2,-4,-4,1,1
1558442227493413,-1,-2,-7,-2,-7,-2,-4,-2
1558442227493413,-3,-4,2,-4,0,1,-3,-3
1558442227502388,5,6,6,2,5,1,4,6
1558442227502388,1,1,1,-3,-2,2,6,3
1558442227508372,-4,-1,1,-1,-2,-4,-6,2
1558442227508372,-3,-3,-11,1,4,6,-3,-9
1558442227523332,-1,0,2,-3,-8,-6,-7,-1
1558442227523332,-5,-3,-7,-1,-6,-3,-4,-5
1558442227531311,-2,0,8,0,5,6,9,1
1558442227531311,-1,0,2,0,-3,-8,-2,2
1558442227540288,-2,-4,-7,-1,-1,3,2,0
1558442227540288,1,-2,-1,-1,7,1,-2,0
1558442227553253,-2,-4,-4,-3,-3,-3,-5,-6
1558442227553253,0,-1,-1,-1,-4,-1,-3,1
1558442227562229,1,-2,-1,-1,-4,-6,1,0
1558442227562229,4,1,4,-1,-4,-3,-2,-2
1558442227568212,-5,-3,-6,-3,1,1,0,-6
1558442227568212,-2,-1,1,-1,1,-4,-2,0
1558442227583172,-5,0,1,1,3,4,-2,-5
1558442227583172,0,1,1,1,-4,1,1,4
1558442227591157,3,0,-1,-2,4,2,6,0
1558442227591157,-2,-1,-2,-4,-6,-8,-8,-8
1558442227600127,0,-2,-5,-1,-2,0,2,0
1558442227600127,-1,1,1,2,7,4,2,0
1558442227613092,-4,-3,-1,-2,-5,-3,-4,-5
1558442227613092,0,-1,2,0,-1,3,4,4
1558442227622069,-1,2,-1,-4,1,0,-1,-1
1558442227622069,0,0,3,0,-1,-5,-2,3
1558442227628053,-1,-1,-4,-3,-9,-9,-6,-6
1558442227628053,-1,-1,-3,0,4,4,3,0
1558442227643012,2,3,5,2,9,8,3,-2
1558442227643012,-1,-2,-2,0,6,4,-1,-2
1558442227650990,-2,-1,-1,-1,-5,-3,-2,1
1558442227650990,0,-2,-3,-4,-4,-1,1,1
1558442227659968,-2,-2,1,-1,-1,-2,-1,-1
1558442227659968,-2,-2,-5,-4,-8,-7,-3,-1
1558442227673939,-1,-1,3,-2,2,1,-1,0
1558442227673939,-2,0,-4,-1,-2,-1,0,3
1558442227681924,-1,1,4,0,-1,-4,0,2
1558442227681924,-6,-4,-8,-2,-1,0,-3,-2
1558442227696870,1,1,6,2,5,4,-4,-6
1558442227696870,1,0,1,0,1,-1,2,-4
1558442227703849,-2,-5,-10,-7,-8,-8,-7,-1
1558442227703849,3,0,0,-1,-4,-4,-1,7
1558442227710830,-2,-2,-6,-3,0,0,2,-6
1558442227710830,0,0,4,0,-1,2,-2,-2
1558442227719807,-2,-3,-4,0,1,1,0,0
1558442227719807,-2,0,2,0,5,2,4,-3
1558442227733769,1,0,0,0,-5,-5,-2,6
1558442227733769,-2,-2,-4,-3,-4,-1,-2,-1
1558442227742746,2,0,1,1,3,1,-3,-3
1558442227742746,2,2,1,-1,1,-1,0,0
1558442227756708,2,3,2,0,4,3,5,4
1558442227756708,0,0,1,-1,-5,-2,2,4
1558442227763689,-2,-1,2,-2,1,3,1,-3
1558442227763689,-1,0,-3,0,1,3,-2,-3
1558442227770671,-2,-1,0,0,-2,-4,-1,-4
1558442227770671,-1,-3,-3,-3,0,1,-3,1
1558442227779647,1,3,3,1,0,6,7,6
1558442227779647,-3,-1,1,-1,-10,-7,-3,-6
1558442227793610,-2,-4,-8,-4,-7,-5,-7,-3
1558442227793610,1,-2,-2,1,7,1,3,-1
1558442227802585,-1,-2,-1,0,2,-2,-4,1
1558442227802585,-3,0,2,-1,-3,-2,-6,-7
1558442227816548,-2,-1,-1,-3,-5,-6,-3,0
1558442227816548,-1,2,7,-3,-6,-1,-1,-3
1558442227823530,-5,-6,-23,-5,-1,-3,-7,-5
1558442227823530,2,2,-1,0,4,2,3,3
1558442227830513,-2,-1,1,-2,0,0,-3,-1
1558442227830513,-4,-2,-1,-1,2,0,-1,-2
1558442227839486,1,-1,4,0,-2,-7,0,6
1558442227839486,-6,-4,-2,0,0,4,-4,-12
1558442227853451,-1,0,1,0,4,6,4,1
1558442227853451,0,1,2,1,4,-1,0,3
1558442227862425,-3,-1,0,-3,-9,-6,-7,-9
1558442227862425,0,-2,-1,-3,-2,-2,0,-2
1558442227876388,-2,1,5,0,-3,-6,-3,3
1558442227876388,1,1,-10,-3,-5,-5,-1,2
1558442227883370,-1,2,7,1,-1,1,-3,-1
1558442227883370,3,0,-11,-2,-2,-4,0,6
1558442227891348,2,2,3,0,2,4,2,-4
1558442227891348,-1,-5,-11,-3,-5,-6,-4,-3
1558442227900324,1,0,6,1,-1,1,5,3
1558442227900324,0,-1,3,3,2,4,0,1
1558442227913289,1,-1,1,2,2,-1,1,2
1558442227913289,2,0,1,-1,-3,-2,4,3
1558442227922265,2,2,0,0,3,1,-4,-3
1558442227922265,-5,-5,-4,-4,-3,0,0,-3
1558442227937225,-3,-1,-4,-1,2,-2,-7,-1
1558442227937225,-2,0,4,2,2,1,-2,-6
1558442227945203,-1,-2,-2,-2,0,2,3,1
1558442227945203,1,0,0,-1,-2,-5,-2,3
1558442227951187,-5,-3,-4,-1,-6,-2,-5,-11
1558442227951187,0,-1,1,-2,-5,1,-2,-2
1558442227960164,-3,-1,-1,-3,-10,-11,-7,-3
1558442227960164,-2,1,-1,0,-6,-6,-4,-2
1558442227973130,3,0,-3,4,17,11,10,8
1558442227973130,-2,0,3,-1,4,5,-3,-4
1558442227982106,-2,-5,-11,-3,-2,0,-2,-3
1558442227982106,-3,-2,0,-3,1,0,2,-3
1558442227997066,0,1,2,-1,-11,-9,-1,4
1558442227997066,0,0,9,2,6,2,-3,-2
1558442228003048,1,-3,-8,-1,0,-2,2,-2
1558442228003048,1,1,2,-1,-4,-1,7,4
1558442228011028,-4,-4,-6,-3,-1,2,-8,-10
1558442228011028,-2,1,-4,1,4,-1,0,1
1558442228020004,-2,1,6,3,3,-1,1,-3
1558442228020004,-2,0,-2,2,-1,0,1,1
1558442228033968,-2,-3,0,-4,-6,-6,-4,1
1558442228033968,0,-2,-3,-3,-7,-7,-2,0
1558442228042944,0,-3,-4,-4,-2,-3,-3,-3
1558442228042944,0,-1,2,-4,1,-1,-3,-3
1558442228056906,4,2,1,1,4,3,4,1
1558442228056906,-4,-1,-2,-2,1,3,-3,-5
1558442228063891,-2,-2,2,1,-2,-1,3,2
1558442228063891,0,-1,-1,-4,-1,-2,-4,-2
1558442228070872,-2,-5,-5,-3,-7,-2,-1,-5
1558442228070872,2,-1,0,1,-6,-7,5,0
1558442228085829,-5,-2,2,-2,3,2,-7,0
1558442228085829,-1,0,0,1,3,2,-6,-10
1558442228093809,0,1,7,0,-1,0,3,5
1558442228093809,-4,-4,-15,-6,-4,-1,-4,-8
1558442228102784,3,-1,-4,-1,-5,-5,0,1
1558442228102784,0,-2,3,-1,-4,-4,-2,2
1558442228116748,-1,0,-4,0,8,8,0,0
1558442228116748,0,-2,4,-1,-5,-3,-2,3
1558442228123727,0,0,2,0,-2,0,0,-1
1558442228123727,-1,2,-2,1,12,0,1,-4
1558442228130708,1,2,1,1,2,3,5,5
1558442228130708,-2,-2,-3,-1,-5,-3,-2,1
1558442228145667,1,0,-2,-7,-5,-3,1,3
1558442228145667,-3,-2,5,1,-5,-2,-5,-8
1558442228153649,2,0,2,0,-1,1,0,-4
1558442228153649,0,-2,3,1,9,5,-2,1
1558442228162625,0,-1,-3,-1,-2,1,0,0
1558442228162625,-1,-1,-4,-2,3,0,1,4
1558442228176586,-1,0,-4,-4,-12,-17,-7,-4
1558442228176586,-2,0,0,-5,-8,-2,1,-5
1558442228183568,-3,2,5,3,5,7,0,-2
1558442228183568,1,-2,-7,-2,-7,-3,-2,8
1558442228199524,-2,-2,0,-2,-4,-7,-4,-7
1558442228199524,1,-2,-1,0,1,-2,2,3
1558442228205507,-1,0,-1,0,3,1,-1,0
1558442228205507,1,0,-1,0,-1,1,6,6
1558442228213485,-1,0,3,2,11,14,2,-8
1558442228213485,-1,-1,-2,-1,-4,-4,-3,-4
1558442228222462,0,0,1,-2,-4,-4,-2,-4
1558442228222462,-3,-1,4,1,-1,-1,-1,2
1558442228237421,0,-1,-9,0,-4,-2,2,8
1558442228237421,-2,-1,2,-2,1,4,-4,-6
1558442228243407,0,-3,-5,-3,1,0,2,-1
1558442228243407,0,-1,-1,-2,-1,-3,-3,0
1558442228259363,6,0,0,-1,1,0,2,5
1558442228259363,-1,-5,-3,-1,-3,-3,-5,-2
1558442228266345,-1,-3,-4,-3,-5,-2,-6,-3
1558442228266345,0,2,0,-2,-3,2,2,-3
1558442228282314,-3,-3,-2,-2,2,3,3,3
1558442228282314,3,0,1,0,5,1,5,6
1558442228283305,-4,-2,1,0,-2,-3,-3,-1
1558442228283305,-2,-3,-5,-1,1,2,-8,-7
1558442228296277,-4,0,0,-4,-11,-9,-9,-4
1558442228296277,-2,0,-1,-2,-2,2,1,0
1558442228303257,0,-1,-2,1,6,6,7,5
1558442228303257,-3,-4,-1,0,0,1,-1,-3
1558442228319206,0,-1,-8,-3,-2,3,0,0
1558442228319206,-2,-2,-1,1,-3,-9,-7,-4
1558442228326187,3,3,5,3,2,0,3,2
1558442228326187,-4,-6,-4,-3,-6,0,-6,-5
1558442228342143,0,0,4,1,11,3,4,0
1558442228342143,3,3,2,0,7,7,7,10
1558442228344139,-4,-2,2,1,-3,-6,-1,-14
1558442228344139,-1,-3,-2,-1,0,-2,-6,-3
1558442228356105,-2,0,-1,-5,-7,-8,-7,-6
1558442228356105,-2,-3,-5,-1,-4,1,-3,0
1558442228365082,0,1,4,-5,-7,-5,-3,1
1558442228365082,-4,-4,-6,-4,-7,-5,-1,-3
1558442228379055,-6,-4,-2,-1,-4,-4,-8,-5
1558442228379055,1,-2,-2,0,-4,-3,4,7
1558442228386035,2,2,0,3,6,8,2,-5
1558442228386035,2,1,9,1,1,0,4,2
1558442228401989,1,1,-5,-1,1,-2,2,6
1558442228401989,-6,-3,0,-3,-3,-4,-7,-13
1558442228403977,-3,-4,-3,-1,-7,-6,-7,-4
1558442228403977,2,0,-1,-3,0,0,8,0
1558442228415953,1,2,3,0,-1,-3,-6,-1
1558442228415953,0,5,3,1,0,0,-1,-8
1558442228424928,-2,-10,-7,-7,1,2,-1,3
1558442228424928,-3,-3,-2,-1,4,-3,-5,-6
1558442228438884,0,-2,0,-2,-3,-4,2,4
1558442228438884,-2,-2,-2,-5,-2,0,-2,-5
1558442228445865,4,7,2,3,5,3,5,14
1558442228445865,-4,-1,-2,-2,-5,-3,-6,-8
1558442228461823,-3,-4,2,-1,-4,-2,-1,-2
1558442228461823,-3,-1,-1,-2,-4,-5,-3,1
1558442228463818,-2,0,-4,-3,-4,-3,-1,-1
1558442228463818,1,-3,-3,-1,4,0,9,11
1558442228475785,0,3,1,5,11,10,3,-7
1558442228475785,-1,1,2,1,2,0,-2,-10
1558442228485758,-2,-4,0,-2,-3,-3,-4,9
1558442228485758,3,2,-3,-1,-4,-6,-6,-2
1558442228498724,-3,-3,-4,-4,-1,1,0,-5
1558442228498724,1,-4,-4,0,-5,-2,1,8
1558442228505704,-4,1,0,-2,-1,-1,-2,-4
1558442228505704,0,-2,0,-2,-3,-2,-2,2
1558442228522658,-4,-1,-2,-1,-3,-5,-2,-7
1558442228522658,-3,0,-1,-2,1,0,0,-4
1558442228523657,-1,-3,-2,3,2,0,-1,-4
1558442228523657,2,2,1,0,2,2,0,1
1558442228535623,0,-4,-2,-6,-10,-8,-4,0
1558442228535623,1,0,-1,2,-2,0,5,3
1558442228544611,0,0,0,-1,7,2,1,3
1558442228544611,-3,1,0,1,0,-3,-1,-2
1558442228559567,0,-1,0,-1,-2,2,-1,2
1558442228559567,0,0,1,0,12,10,3,2
1558442228567541,-2,1,-1,-1,-4,-5,-1,-4
1558442228567541,-2,0,0,-1,-4,-3,-2,2
1558442228582504,-1,-5,-3,1,-6,-5,-2,-1
1558442228582504,1,2,-2,-3,-4,-6,-4,-4
1558442228583497,0,-1,-3,1,-4,4,0,-2
1558442228583497,-2,-2,-1,0,3,2,1,-1
1558442228596463,-1,0,2,1,5,-1,2,-2
1558442228596463,-4,-3,-1,-2,0,-2,-5,2
1558442228604506,-2,-2,-1,-2,-3,-4,-6,-5
1558442228604506,-5,-4,-3,-2,-3,1,0,-2
1558442228619416,1,-1,-1,0,0,-2,-2,-3
1558442228619416,1,-3,-3,1,4,0,1,-2
1558442228626419,-2,0,-2,-3,-5,-6,-2,-4
1558442228626419,0,0,0,-3,-4,-1,-2,1
1558442228643421,-1,1,-3,-2,-2,-2,-1,3
1558442228643421,0,0,-2,-1,-2,-3,-1,10
1558442228644337,1,0,-2,-1,-2,-3,-6,-16
1558442228644337,-2,2,1,1,5,9,3,-4
1558442228665317,-3,-4,-3,-1,-5,-5,1,1
1558442228665317,-3,-3,-2,-3,-7,-6,-10,-3
1558442228666282,2,-2,0,-3,-3,2,1,5
1558442228666282,2,0,0,-3,1,-3,1,1
1558442228679429,0,0,2,3,8,7,2,-1
1558442228679429,1,0,3,3,9,6,4,1
1558442228686431,-2,-4,-6,-2,-3,-5,-3,2
1558442228686431,-3,-5,-4,-4,-8,-6,-3,-7
1558442228703179,0,0,0,-1,-4,-1,-1,4
1558442228703179,-1,-3,-2,-1,-2,-8,-9,-7
1558442228704176,0,0,2,1,4,7,2,1
1558442228704176,1,-2,0,-2,0,1,1,-1
1558442228716145,2,0,-1,-2,0,0,3,8
1558442228716145,-2,1,0,0,5,5,8,-3
1558442228725124,-5,-2,-2,1,-7,-9,-10,-12
1558442228725124,-3,-4,-7,-3,-7,-7,-7,0
1558442228739082,-3,-1,-3,-2,0,3,-5,-5
1558442228739082,-1,-3,-5,-4,-15,-12,-4,-1
1558442228746066,0,2,2,0,15,11,9,4
1558442228746066,2,2,6,3,5,0,0,-3
1558442228762020,-2,-1,0,-1,-4,-8,-4,-2
1558442228762020,-1,0,-2,-2,-2,4,1,-1
1558442228764015,-1,-3,-5,-5,-6,-2,3,1
1558442228764015,3,3,5,3,6,0,2,4
1558442228775983,0,-1,1,-3,-1,2,0,0
1558442228775983,-2,2,9,-1,-4,-6,-5,-4
1558442228784957,-6,-8,-18,-6,-11,-12,-9,-4
1558442228784957,-1,-1,-6,-1,0,4,1,0
1558442228798948,-1,1,0,3,12,7,4,-2
1558442228798948,0,-2,-1,-1,-2,-8,-4,-3
1558442228806910,2,5,10,6,7,6,6,8
1558442228806910,0,-1,-1,-3,-4,0,-2,-1
1558442228821858,-2,-4,-5,-3,-5,-8,-7,-3
1558442228821858,-2,-1,-2,-3,-6,-1,-1,0
1558442228823854,1,6,3,1,1,-2,-4,-10
1558442228823854,-2,-9,-4,0,1,4,3,3
1558442228835879,-2,0,3,-1,-5,-1,-7,-4
1558442228835879,3,0,-6,0,6,0,1,8
1558442228844797,1,-3,-1,-2,-5,-6,-2,0
1558442228844797,-2,2,0,-4,-1,-4,-5,-9
1558442228858759,2,0,5,2,1,2,4,9
1558442228858759,-2,-1,0,-2,-4,0,0,-1
1558442228865741,-3,-2,-1,-2,-5,-2,-2,-1
1558442228865741,2,1,1,2,4,2,0,0
1558442228882710,-1,-3,-3,-4,-1,-5,0,-3
1558442228882710,-1,1,-1,1,4,9,4,-2
1558442228883698,-2,-2,-1,0,3,1,1,-2
1558442228883698,-2,-2,-2,-1,-9,-8,2,2
1558442228895666,1,2,0,1,5,3,0,-3
1558442228895666,-2,-4,-2,-3,-2,-8,-4,-3
1558442228904756,0,-1,2,-1,1,2,-1,-1
1558442228904756,-2,-1,0,-1,-1,4,-1,1
1558442228919730,-2,-1,-3,-1,-7,-3,0,5
1558442228919730,0,2,1,0,1,2,-3,-5
1558442228925624,-4,-4,-1,2,5,2,-1,-4
1558442228925624,1,1,2,-1,-1,-4,-5,-4
1558442228942552,-4,-2,-7,-2,-6,-9,-3,-6
1558442228942552,0,-3,-4,-3,-6,-4,-3,4
1558442228943537,2,-1,2,-3,-4,-2,3,4
1558442228943537,-3,1,-2,2,3,4,0,-1
1558442228956501,2,2,2,-2,1,3,1,1
1558442228956501,-3,-5,-7,0,-2,-5,-4,-3
1558442228964477,1,2,0,-2,4,6,3,2
1558442228964477,-1,2,1,0,-1,-2,0,-4
1558442228979439,1,-1,0,0,-3,-7,0,0
1558442228979439,-5,-1,-3,-4,-12,-8,-4,-7
1558442228986419,-1,-1,-2,-1,1,-3,-2,0
1558442228986419,0,-2,-2,-5,-6,2,1,1
1558442229001730,0,1,-1,0,5,5,0,-4
1558442229001730,-2,-4,1,4,4,-2,-4,-2
1558442229008594,-1,-3,-2,-2,1,0,1,2
1558442229008594,-3,0,0,-1,-3,-7,-3,-2
1558442229016628,-4,-1,0,-1,-1,2,0,-3
1558442229016628,-1,0,-2,-1,0,6,3,0
1558442229025342,-1,-2,-4,-2,-6,-5,-1,5
1558442229025342,-2,0,-2,-1,2,-2,-6,-6
1558442229039565,2,-3,-2,1,-1,0,-1,-2
1558442229039565,1,2,1,-1,2,-1,0,2
1558442229046510,-1,2,3,-2,-6,-2,-2,-5
1558442229046510,-1,-1,-3,-1,-7,-2,-4,3
1558442229062537,0,-3,1,1,8,6,3,-2
1558442229062537,1,-2,1,0,-3,-2,-2,-1
1558442229069292,-2,-2,-2,1,-5,-9,-4,0
1558442229069292,-1,-2,-1,-1,6,-1,5,5
1558442229076522,-2,0,-1,-3,-6,-2,-5,-4
1558442229076522,1,2,1,1,7,11,4,-2
1558442229085156,7,3,5,3,8,7,8,2
1558442229085156,-1,-2,1,1,-1,-6,-5,0
1558442229099150,-5,-5,-11,-4,-7,-5,-2,-5
1558442229099150,0,2,1,-2,5,5,4,5
1558442229106302,-2,-2,-1,-4,-7,-4,-2,-3
1558442229106302,0,0,0,0,-2,0,1,2
1558442229122344,0,0,-1,-5,-7,-4,-3,4
1558442229122344,-2,-1,-1,0,0,-1,-5,-8
1558442229129199,-3,-2,1,1,2,0,-1,0
1558442229129199,-1,-2,-4,-1,3,1,0,3
1558442229136235,-2,0,0,2,1,1,-2,-1
1558442229136235,-2,-4,-3,-1,-5,-4,-2,-5
1558442229145002,1,1,-1,-3,2,-1,-1,0
1558442229145002,0,-2,-2,-1,-5,-4,-2,-3
1558442229158962,-1,-2,-2,-3,-5,-6,-3,-1
1558442229158962,1,0,-2,-8,-6,-3,4,6
1558442229165940,0,0,-2,1,0,3,-2,0
1558442229165940,1,2,0,0,7,8,3,1
1558442229181897,-1,2,2,3,5,-1,1,1
1558442229181897,-5,-3,-4,0,0,-3,-2,-2
1558442229188911,-3,-3,-3,-3,-5,-4,-2,-3
1558442229188911,-1,-2,-4,-2,-7,-9,-3,0
1558442229205168,1,-2,0,-1,1,2,4,-1
1558442229205168,-1,-1,-1,3,7,5,0,0
1558442229205833,-2,-2,-1,0,3,0,-2,-1
1558442229205833,0,-1,1,0,-5,-2,1,-2
1558442229219990,-1,-2,-2,-3,-9,-8,-6,-6
1558442229219990,-3,-2,-4,-4,-10,-7,-2,1
1558442229226153,-1,0,-1,0,1,0,-4,-4
1558442229226153,0,-3,0,1,4,3,0,0
1558442229241738,-2,-1,0,-3,0,3,0,2
1558442229241738,-1,0,3,0,-3,-6,-3,-2
1558442229249064,-5,-3,-3,-1,-6,-1,-4,-3
1558442229249064,-3,-1,-5,-3,3,-4,-1,-3
1558442229265034,-2,0,1,0,-1,-4,-4,-3
1558442229265034,-2,-3,-3,-2,-4,-2,-1,-3
1558442229266949,3,2,5,1,11,9,8,3
1558442229266949,2,1,-2,1,-4,3,0,2
1558442229279953,2,0,-4,-4,0,-1,-1,6
1558442229279953,-2,1,-2,0,-5,-7,-8,-9
1558442229286712,-2,-1,-1,-5,-14,-14,-6,-4
1558442229286712,-2,-3,-2,-3,-4,3,-2,-7
1558442229301799,-1,-2,0,2,8,10,3,-1
1558442229301799,8,3,4,6,14,5,13,18
1558442229308593,-3,-2,-5,-2,0,2,-3,-5
1558442229308593,-5,-3,1,-1,-6,-12,-7,-6
1558442229325514,-3,-4,-5,-5,-12,-5,-6,-7
1558442229325514,-3,-3,-2,-3,-5,3,1,-2
1558442229326517,3,1,-2,1,1,-3,2,5
1558442229326517,-1,-2,-1,-2,-1,-4,-3,0
1558442229347454,-1,0,1,3,4,-6,2,1
1558442229347454,1,-2,-2,-2,0,1,1,0
1558442229348453,-3,1,-1,-2,-7,-6,-4,0
1558442229348453,-4,-4,-2,-2,1,0,-3,-3
1558442229361626,1,3,4,2,8,13,3,-2
1558442229361626,0,-1,0,1,0,-3,-3,-2
1558442229368397,-1,-2,-3,-2,-2,-3,1,1
1558442229368397,-1,1,-1,-3,-2,0,4,6
1558442229384394,-2,-4,-3,-3,-4,-8,-8,-10
1558442229384394,-1,-1,2,0,-4,-2,-5,0
1558442229386351,0,-4,-7,-4,-1,3,1,-2
1558442229386351,-2,0,1,0,2,5,0,-6
1558442229399630,0,-4,-4,-3,-7,-6,-3,5
1558442229399630,0,1,3,3,10,9,6,-3
1558442229406357,0,0,1,2,0,-4,-1,1
1558442229406357,0,-1,0,-3,-5,-4,3,2
1558442229422500,-3,-1,-4,0,-6,-4,-3,-1
1558442229422500,-3,-3,-2,-6,-3,2,1,2
1558442229428565,-2,-1,0,1,-7,-5,-6,-1
1558442229428565,-1,-3,-3,-4,3,1,-5,-6
1558442229445549,1,3,3,2,6,6,3,1
1558442229445549,-2,0,-3,-2,-7,-7,-1,-1
1558442229446189,-2,0,0,0,8,10,7,0
1558442229446189,-2,-2,-1,-2,-3,-4,-2,-3
1558442229459468,-1,2,0,-1,-1,-5,-2,1
1558442229459468,-2,-2,-1,-1,3,4,0,-4
1558442229466205,-2,-3,-2,-3,-9,-11,-3,0
1558442229466205,1,2,2,2,2,0,-2,1
1558442229482324,0,1,1,1,6,6,1,-3
1558442229482324,-1,-4,-5,-2,1,2,-1,-2
1558442229489213,-4,-3,-3,-4,-7,-6,-4,-1
1558442229489213,-3,-1,0,-1,-4,-5,-5,-8
1558442229505282,-4,-1,3,0,1,3,0,-2
1558442229505282,0,-1,-4,-1,-3,-3,-3,2
1558442229506031,-3,-6,-7,-2,0,-2,-5,-6
1558442229506031,2,3,-1,-1,-4,-2,1,5
1558442229519994,-2,-1,-1,-1,-7,0,3,-3
1558442229519994,-1,3,5,0,1,-6,-2,-4
1558442229526009,1,1,4,3,7,8,5,5
1558442229526009,0,1,2,-1,1,3,2,1
1558442229541937,2,-1,-2,-4,5,3,0,2
1558442229541937,-2,1,-1,-1,-1,-3,-5,-6
1558442229549123,1,-2,-1,-2,0,-7,-3,-1
1558442229549123,-4,-4,-2,-2,-7,-6,-4,-6
1558442229564923,-3,-3,-4,-3,-9,-9,-3,0
1558442229564923,-2,-3,-3,-2,-1,4,-3,-1
1558442229565879,3,3,3,-2,-3,-7,-2,1
1558442229565879,-1,-2,-2,1,7,9,7,2
1558442229578836,1,1,0,1,8,7,6,-1
1558442229578836,1,-1,2,2,-1,0,1,2
1558442229585819,-1,-2,-2,0,-2,1,2,-4
1558442229585819,1,0,-3,-2,-6,-6,-1,2
1558442229609755,-5,-4,-2,-4,-8,-15,-9,-7
1558442229609755,2,1,2,4,9,11,3,2
1558442229610749,1,0,-1,0,6,6,3,-1
1558442229610749,-2,-1,-1,0,0,0,0,-3
1558442229624713,-1,-1,-1,-4,-12,-10,-6,-2
1558442229624713,0,-2,-1,-2,-9,-9,0,1
1558442229626707,-2,-2,-3,-1,7,7,-3,-1
1558442229626707,2,1,1,0,9,3,0,0
1558442229639701,0,0,-3,-2,-5,0,0,2
1558442229639701,-2,0,-2,-4,-5,-7,0,-1
1558442229645980,-3,-2,0,-1,2,4,-2,-2
1558442229645980,-3,-4,-3,-2,-2,-5,-5,-3
1558442229661936,-1,1,1,1,0,-4,0,1
1558442229661936,-4,-1,-3,-2,-3,4,2,-4
1558442229668913,2,2,2,0,0,4,5,1
1558442229668913,1,2,1,-1,-3,-2,-1,-2
1558442229684820,-1,-3,-1,0,10,4,-2,0
1558442229684820,0,0,-2,-1,5,1,1,4
1558442229686548,-1,-1,1,2,-2,-4,-6,-4
1558442229686548,-2,-3,-6,-4,-2,-3,-1,2
1558442229698734,0,1,0,-1,-4,-1,0,-1
1558442229698734,-2,-4,-4,-4,-11,-11,-8,-4
1558442229707500,-4,-5,-4,-3,-3,-2,-3,-5
1558442229707500,0,0,0,-1,0,9,8,6
1558442229722455,3,3,2,1,1,-1,1,1
1558442229722455,-1,-2,0,-2,2,1,0,0
1558442229728476,-2,-2,0,-1,-1,2,2,-2
1558442229728476,-5,-3,-4,-1,-5,-6,-7,-4
1558442229745527,1,0,-2,-1,7,7,8,6
1558442229745527,2,3,0,-1,-2,-7,-6,0
1558442229746391,0,0,-4,-2,-5,-4,-2,-2
1558442229746391,2,0,0,0,-2,-2,2,0
1558442229758361,-6,-5,-2,0,2,4,-1,-6
1558442229758361,0,0,3,0,-5,-7,-7,0
1558442229767377,-1,-4,-4,-4,1,0,0,4
1558442229767377,-2,0,1,-2,5,8,-1,-5
1558442229782292,1,0,-3,-1,-5,-9,-3,-3
1558442229782292,0,0,0,0,1,2,4,0
1558442229790269,0,0,-2,-6,-6,-9,-2,1
1558442229790269,1,1,2,-1,-5,-9,-4,0
1558442229805229,-1,-1,-4,-2,1,5,1,3
1558442229805229,-3,0,-2,1,4,4,0,-9
1558442229806226,-2,-1,1,2,-2,-1,-2,0
1558442229806226,1,0,-1,0,5,5,2,-1
1558442229818196,1,0,1,-3,-5,-5,-3,-4
1558442229818196,-3,-4,-3,-3,-7,-8,-2,1
1558442229827506,0,0,1,2,4,5,2,-2
1558442229827506,-1,0,-1,3,8,3,-1,1
1558442229842412,0,-3,-4,-1,-2,5,2,-1
1558442229842412,0,-2,0,-2,4,2,2,4
1558442229849199,0,1,-2,-3,-6,-7,-6,-4
1558442229849199,-1,-2,-2,1,-3,-7,-2,1
1558442229864172,-2,-2,-2,-1,-3,-4,-5,-2
1558442229864172,-2,-2,-3,0,-5,-5,-2,0
1558442229871057,2,1,2,3,7,5,7,5
1558442229871057,-4,-4,0,-2,-4,-4,-3,-6
1558442229878036,-2,-1,-1,-1,0,-1,-2,-1
1558442229878036,1,0,1,-1,0,2,0,-2
1558442229887012,-5,-2,-2,-1,-3,-1,-7,-8
1558442229887012,1,3,1,1,-1,-1,2,6
1558442229901997,-1,-2,0,-2,-1,-6,-3,-6
1558442229901997,-1,0,-1,0,-1,2,-2,-4
1558442229907953,2,-1,-3,-2,-6,-5,-3,-2
1558442229907953,-5,-7,-6,-4,-11,-6,-4,-8
1558442229923985,-1,-2,-1,0,4,3,2,6
1558442229923985,-6,-1,1,0,6,2,-4,-8
1558442229930891,1,2,1,-1,0,-1,1,-1
1558442229930891,1,-1,1,-3,-6,-7,-3,-2
1558442229939381,-1,-2,-4,-3,-5,0,-2,-2
1558442229939381,1,-5,-3,0,-1,0,3,4
1558442229947847,-2,-1,1,0,0,-6,-2,3
1558442229947847,-3,-1,0,0,4,2,-1,0
1558442229962332,-2,-2,1,1,-2,-3,-2,-5
1558442229962332,0,0,-1,-2,-1,-4,-3,-5
1558442229969309,-5,-3,-1,-3,-6,0,0,-3
1558442229969309,-1,-1,-3,0,-1,2,1,2
1558442229984288,1,3,4,5,9,9,2,1
1558442229984288,-3,-4,-8,-3,-2,-5,-3,-1
1558442229991268,-1,0,-1,-1,-7,-6,1,6
1558442229991268,0,-2,-2,-2,-3,1,-4,-4
1558442229999249,-2,-2,2,-1,-4,-4,-5,-6
1558442229999249,2,4,6,3,6,11,6,5
1558442230007225,-1,-4,-11,-6,1,0,0,1
1558442230007225,0,-1,0,-1,-2,-3,-2,-3
1558442230022485,-2,-2,-6,-3,-6,-1,0,-2
1558442230022485,1,0,7,-1,-6,-7,-2,-2
1558442230029269,-3,-1,-7,-2,-1,-3,0,-2
1558442230029269,-3,-4,-6,-2,1,3,-1,2
1558442230044126,-5,-2,-5,-2,-7,-10,-5,-3
1558442230044126,-1,-2,-5,-1,2,-2,2,0
1558442230051561,0,0,5,2,4,6,0,-1
1558442230051561,1,3,5,2,8,10,4,0
1558442230058102,-2,-2,-7,-5,-3,-4,-3,-1
1558442230058102,0,0,1,-4,-10,-7,-6,-1
1558442230067546,1,1,1,0,-4,0,-1,-1
1558442230067546,-2,-1,2,3,7,-3,0,-2
1558442230082451,1,1,1,1,13,13,13,7
1558442230082451,-2,0,-3,-3,1,1,0,0
1558442230088476,-1,-1,3,-3,-6,-9,-9,-9
1558442230088476,1,1,-6,-5,-3,-5,1,2
1558442230104968,4,2,1,5,11,6,2,6
1558442230104968,-4,-4,-2,-1,-7,-7,-4,-6
1558442230111350,-1,1,-2,-1,1,3,-1,2
1558442230111350,-4,-3,1,-3,-8,-6,-3,-3
1558442230128016,-3,-4,-2,-3,-10,-9,-6,-3
1558442230128016,1,-2,0,-1,-2,-1,-2,2
1558442230128903,4,2,10,3,10,10,5,3
1558442230128903,-3,-5,-6,-3,-5,-1,0,-4
1558442230142213,-2,-2,-1,0,-5,1,0,-2
1558442230142213,0,0,-7,-2,3,-2,-4,-1
1558442230149118,-2,-4,-4,-2,-5,-1,1,-3
1558442230149118,0,3,8,2,-1,-7,-5,-1
1558442230164977,-1,-1,-3,-1,1,2,-2,-2
1558442230164977,-2,-2,-4,-2,-2,8,7,6
1558442230171748,-2,0,3,1,4,-1,-3,-7
1558442230171748,0,5,6,-1,-3,-1,2,7
1558442230187678,-6,-3,-7,-2,-6,-11,-10,-8
1558442230187678,0,-1,-5,-2,-2,-8,-2,-6
1558442230188673,0,-4,-7,-1,4,10,8,7
1558442230188673,-2,-1,0,-2,-7,-5,-4,-6
1558442230201636,1,2,10,0,-4,-3,-2,3
1558442230201636,-5,-6,-14,-3,4,7,4,1
1558442230208631,-1,0,7,0,-5,-9,-8,-7
1558442230208631,0,-2,-8,-4,-3,5,1,-3
1558442230224575,1,-1,-3,-1,8,-2,7,4
1558442230224575,2,2,14,1,-1,-2,-3,1
1558442230230559,-4,-5,-18,-3,-11,-8,-6,-4
1558442230230559,-3,-3,-3,-2,-4,5,-1,-2
1558442230247510,-1,-1,1,1,8,11,4,0
1558442230247510,-1,2,9,2,4,-1,1,2
1558442230248508,3,1,-2,1,-1,1,8,10
1558442230248508,-2,1,1,-1,-2,-11,-10,-13
1558442230261925,-2,-1,-7,-5,-11,-1,-5,-6
1558442230261925,3,0,-1,1,6,5,4,2
1558442230268900,-3,1,3,0,6,5,3,1
1558442230268900,-1,-4,-9,-4,-5,-4,-2,-2
1558442230284877,-1,-2,4,-1,-1,0,4,8
1558442230284877,-2,1,1,1,0,7,-3,-10
1558442230290398,-1,-1,-5,-1,3,-4,1,3
1558442230290398,1,-1,4,-2,-1,-5,-5,-1
1558442230307353,-1,0,-3,-6,-11,-9,-3,3
1558442230307353,-5,-4,-7,-2,-7,-3,-7,-11
1558442230308777,0,4,20,4,2,-1,-3,-5
1558442230308777,-8,-12,-35,-10,-1,-3,-3,2
1558442230322407,-2,-1,-1,0,-5,-9,-8,-3
1558442230322407,0,3,1,-3,-2,-4,2,2
1558442230328669,-2,0,4,-4,-7,-5,-9,-9
1558442230328669,2,2,13,7,6,6,7,6
1558442230344608,-1,-2,-11,1,5,0,0,-5
1558442230344608,-4,-7,-13,-9,-10,-7,-6,-5
1558442230351610,0,1,2,1,5,8,2,1
1558442230351610,4,1,1,0,4,7,3,3
1558442230367425,3,1,5,-1,2,1,1,3
1558442230367425,-2,0,8,3,-2,-4,-5,-5
1558442230369188,-2,-3,-12,-5,-9,-7,-6,-4
1558442230369188,1,2,11,0,-5,-5,-6,4
1558442230382228,-3,-2,-2,-1,6,2,-1,-9
1558442230382228,-1,-4,-5,1,2,6,2,3
1558442230388395,0,-2,-7,-2,3,1,-6,-4
1558442230388395,1,2,7,4,2,0,8,5
1558442230404097,-1,-2,-6,-6,-13,-18,-13,-6
1558442230404097,-3,-4,-2,-2,-7,-4,-5,1
1558442230411075,-1,-1,-5,-1,6,6,7,2
1558442230411075,0,3,9,5,17,17,6,1
1558442230427034,-1,2,6,-2,-2,2,5,3
1558442230427034,-1,-1,-5,-2,-5,-9,-5,-5
1558442230429027,-1,-2,1,-4,-5,-7,-4,-5
1558442230429027,-3,-3,-1,-3,-11,-12,-8,-7
1558442230442130,-5,-3,-4,-2,-2,3,-1,1
1558442230442130,2,2,1,1,10,12,8,5
1558442230449472,2,-2,2,-1,-7,-7,3,0
1558442230449472,-3,-3,-6,-2,4,-2,-3,-4
1558442230463946,0,-2,1,1,1,2,1,-1
1558442230463946,1,1,4,0,-4,-5,-1,0
1558442230471464,-2,-1,1,-3,-5,-5,-5,1
1558442230471464,-5,-6,-7,-7,-11,-11,-7,-7
1558442230488153,-2,-5,-6,-4,-9,-2,-2,-5
1558442230488153,4,3,4,1,17,12,14,9
1558442230488867,-3,-3,-3,4,7,5,-4,-12
1558442230488867,0,-2,-5,-5,-12,-7,-6,1
1558442230502205,1,1,5,1,3,2,0,-1
1558442230502205,-1,4,4,0,-4,-9,-2,-2
1558442230516138,-3,-2,-5,-2,-5,-2,1,4
1558442230516138,-1,-5,-4,-2,6,1,-1,-6
1558442230523775,-2,0,-2,1,-3,4,2,1
1558442230523775,1,1,2,-1,4,4,5,4
1558442230531009,-1,0,1,0,2,-5,6,4
1558442230531009,-3,-1,-5,0,-5,-1,-5,-7
1558442230547934,0,3,13,1,2,-5,2,-1
1558442230547934,-4,-9,-23,-11,-13,-4,-9,-5
1558442230548712,0,0,2,1,3,2,-4,-2
1558442230548712,1,0,-1,4,7,6,9,5
1558442230561908,0,-3,-1,0,4,6,1,-2
1558442230561908,-3,0,2,-1,-10,-15,-7,1
1558442230568886,-4,-3,-1,-4,-10,-6,-5,-2
1558442230568886,-2,-1,-2,-2,0,2,-4,-9
1558442230584777,2,-1,1,2,0,-5,-4,-2
1558442230584777,-1,-3,-1,2,5,2,4,1
1558442230590598,-3,-3,-9,-4,-6,-2,-4,-4
1558442230590598,0,2,5,0,-6,-3,0,2
1558442230607554,-4,1,-1,1,9,2,6,0
1558442230607554,-3,-2,-4,-1,-6,-7,-11,-7
1558442230608549,2,0,5,1,9,9,8,3
1558442230608549,0,-1,-6,0,2,2,-5,2
1558442230620517,-3,-4,-3,-2,-9,-8,-10,-7
1558442230620517,-3,-2,-3,-2,-8,-8,-3,1
1558442230630506,0,-1,-1,-1,-1,7,2,0
1558442230630506,-1,4,4,2,6,4,8,7
1558442230644331,-3,-2,-5,-3,-1,6,5,-3
1558442230644331,-1,0,3,2,1,-7,-10,-4
1558442230651338,-3,-4,-1,0,2,1,0,-2
1558442230651338,2,-1,-1,-3,-8,-8,-1,-4
1558442230667063,3,0,-3,0,0,-3,-1,8
1558442230667063,-1,-2,-3,-1,-1,9,3,-2
1558442230668916,-1,-3,-3,3,3,3,2,5
1558442230668916,3,2,3,0,4,1,11,9
1558442230681222,-4,0,-3,-3,-8,-13,-14,-8
1558442230681222,-1,-4,-2,-3,-6,-5,0,0
1558442230689793,0,1,-2,0,-4,0,-3,-3
1558442230689793,-4,-1,-1,-1,-2,0,-2,-6
1558442230704922,3,0,4,0,4,4,4,7
1558442230704922,2,3,4,3,10,9,5,-3
1558442230711152,-2,-5,-5,-2,-6,-6,-6,-3
1558442230711152,-1,0,-2,-1,-2,3,2,0
1558442230728019,0,2,3,-2,-4,-3,3,0
1558442230728019,-2,-2,-5,-4,-1,0,-2,0
1558442230728693,0,1,2,-1,-3,-3,-1,1
1558442230728693,-1,0,0,1,2,8,-2,1
1558442230741654,-5,-5,-10,-2,-5,-7,-6,-4
1558442230741654,0,-1,4,1,3,5,5,4
1558442230749942,1,-2,-1,-2,-3,-9,-2,-7
1558442230749942,-4,-3,-1,-4,-11,-16,-8,-2
1558442230764672,4,0,3,3,2,2,-1,5
1558442230764672,-4,-2,-2,0,0,3,-6,-11
1558442230771722,-1,-1,-4,-2,3,9,9,3
1558442230771722,0,0,0,1,8,8,6,1
1558442230787532,-2,-2,-1,-3,0,4,4,0
1558442230787532,-1,2,1,-3,-8,-8,-5,-1
1558442230788530,-3,-1,0,-2,-7,-9,-7,-1
1558442230788530,-2,0,2,-1,-2,-3,-3,-4
1558442230801662,1,-3,-6,-4,-7,-5,1,0
1558442230801662,1,-3,4,5,5,0,1,0
1558442230809474,0,2,-1,2,6,1,0,-3
1558442230809474,-2,-3,-9,-4,-2,3,4,1
1558442230824432,-1,0,-1,-2,-2,0,-5,-3
1558442230824432,1,0,-1,-5,-11,-9,-5,5
1558442230830417,-2,0,1,2,4,1,0,2
1558442230830417,-3,-4,-3,0,1,2,-3,-12
1558442230847541,0,-1,-2,0,-3,-5,0,1
1558442230847541,0,0,-2,0,4,9,13,2
1558442230848719,-3,-1,-2,-3,-4,-4,-7,-4
1558442230848719,2,1,1,-1,-4,-1,-1,5
1558442230861791,-3,-3,0,0,3,0,-4,-13
1558442230861791,1,-5,-1,-1,3,-7,0,0
1558442230870310,-1,0,3,-2,-5,-6,-3,-1
1558442230870310,-2,0,-4,-1,-4,-2,0,0
1558442230884809,0,0,4,-2,-3,3,-3,1
1558442230884809,0,0,-3,-1,-2,6,7,3
1558442230891830,-6,-2,-7,-2,-7,-11,-7,-11
1558442230891830,0,-1,0,-1,5,3,2,4
1558442230906755,-1,2,4,5,9,6,2,-1
1558442230906755,-2,-1,-4,-1,3,4,-1,1
1558442230914180,-3,-3,1,-5,-7,-9,-7,-2
1558442230914180,-1,1,6,-1,-6,-4,-4,1
1558442230921734,-1,-2,-4,0,0,1,-1,0
1558442230921734,-1,-4,-9,-2,0,2,-2,-2
1558442230929693,2,1,2,-2,0,0,1,-3
1558442230929693,-2,-1,-2,-5,-2,-13,-4,6
1558442230943654,-3,1,2,-1,0,2,3,-1
1558442230943654,0,3,3,0,0,-3,-4,-1
1558442230950635,1,-2,-4,0,2,5,0,-1
1558442230950635,1,1,4,3,5,4,0,-6
1558442230966592,0,1,-1,-4,-2,-5,2,3
1558442230966592,-2,-1,-2,-3,-9,-5,-3,2
1558442230973574,1,-2,-1,-1,1,3,-7,-5
1558442230973574,0,-4,0,1,2,2,5,1
1558442230980555,-1,-1,-1,0,4,0,-5,-4
1558442230980555,-1,-2,-3,-2,-10,-3,1,3
1558442230989530,-2,2,3,0,6,-1,1,-3
1558442230989530,-4,-3,-8,-1,3,3,-4,-4
1558442231004844,0,-1,1,-3,-6,-6,0,2
1558442231004844,-3,-3,-3,-4,2,3,0,-8
1558442231011762,2,1,-4,0,-2,4,5,9
1558442231011762,-1,-1,0,0,-2,-8,-6,-7
1558442231026865,-1,0,0,-2,-6,2,0,-2
1558442231026865,-1,2,6,-3,-2,-7,1,1
1558442231033473,-2,-2,-3,2,6,8,4,2
1558442231033473,-3,-4,-2,-3,-4,-4,-7,-1
1558442231040398,-1,-1,-3,-1,-4,-4,-5,-5
1558442231040398,1,-1,2,1,-1,-4,-6,-8
1558442231049407,2,0,2,0,-1,0,4,2
1558442231049407,-2,-2,-2,-2,-6,-7,-2,-1
1558442231064332,0,1,0,1,5,6,2,6
1558442231064332,-5,0,-1,1,5,-4,-3,-10
1558442231073308,0,-4,-5,-2,-4,-4,1,0
1558442231073308,4,3,3,0,4,10,6,3
1558442231087603,-5,-3,-2,-3,-7,-3,-2,-4
1558442231087603,1,1,5,0,4,2,-2,4
1558442231093787,-1,-2,-8,-5,-10,-9,-8,-3
1558442231093787,-1,-3,-1,-2,-6,-8,-1,-2
1558442231110632,1,-1,-1,0,7,0,4,3
1558442231110632,-6,-5,-2,0,0,4,-3,-4
1558442231111207,-2,0,-1,-1,-1,-1,-1,-3
1558442231111207,3,-1,-5,-1,-2,-4,1,6
1558442231124172,-6,-5,-6,-3,-4,-6,-9,-9
1558442231124172,0,1,-1,2,-3,-8,-5,-3
1558442231131490,-2,-2,1,-3,-4,3,4,-1
1558442231131490,0,-1,0,-2,-2,3,-3,0
1558442231146617,0,0,-1,1,1,-3,-2,-5
1558442231146617,0,-3,-6,-3,-1,1,-1,-1
1558442231153838,-1,0,6,3,0,-6,-3,0
1558442231153838,-4,-6,-7,-4,-10,-7,-2,-4
1558442231170556,0,-3,-2,-2,4,8,0,0
1558442231170556,1,5,4,3,11,11,5,3
1558442231171458,-2,-2,2,-1,-2,-3,-4,0
1558442231171458,-1,4,1,0,4,2,1,-2
1558442231184703,0,0,-4,-3,-12,-11,-3,1
1558442231184703,2,-3,-3,-4,-7,-4,3,4
1558442231190406,0,-1,-1,2,0,2,-3,0
1558442231190406,0,3,4,2,5,3,2,-3
1558442231206399,1,-1,-1,0,6,8,6,3
1558442231206399,-2,-4,-2,-2,-7,-9,-2,2
1558442231221323,-3,-2,-5,-2,2,2,1,-4
1558442231221323,-2,-2,-2,1,0,1,-4,-1
1558442231230365,-3,-1,2,-1,-2,-2,-2,-6
1558442231230365,-1,-1,-3,-1,-1,-6,-3,-2
1558442231231299,0,-2,1,-5,-2,-1,0,3
1558442231231299,-2,-1,2,0,-2,-2,1,0
1558442231244560,1,0,-1,0,4,2,3,3
1558442231244560,-2,-2,-4,-3,-2,1,2,-4
1558442231251495,-1,-1,-2,-2,-4,-4,-4,-3
1558442231251495,-1,-1,2,0,4,3,-2,-8
1558442231266232,-1,2,2,0,-4,-5,-3,6
1558442231266232,-3,-1,0,-5,-9,-5,-7,-5
1558442231273187,-1,-3,-3,1,-2,-4,-5,-4
1558442231273187,-1,1,3,-2,-2,-1,0,1
1558442231290148,1,0,-3,-3,-4,-4,0,-3
1558442231290148,-3,-4,-3,-2,-8,-11,-7,2
1558442231291136,-3,0,0,4,15,15,8,0
1558442231291136,-2,-1,-2,0,2,1,-3,-2
1558442231305010,-2,-1,0,-1,-1,1,0,-4
1558442231305010,-3,-4,-3,-2,-2,0,-1,1
1558442231311860,3,-1,5,1,-1,-4,1,3
1558442231311860,0,-1,-5,-1,2,7,3,1
1558442231326981,-3,-5,-10,-5,0,-5,-4,-2
1558442231326981,2,2,5,-1,8,8,5,2
1558442231333929,0,-2,-3,-4,-9,-11,-2,5
1558442231333929,-4,-2,-4,-3,-8,-5,1,-6
1558442231350508,1,-1,2,1,-3,1,-4,-7
1558442231350508,1,-1,0,-1,-2,-6,-4,-2
1558442231351507,-2,1,-1,-2,-1,-1,0,-1
1558442231351507,0,-1,0,3,7,2,4,6
1558442231364776,-3,-2,-2,-5,-3,-6,-2,-1
1558442231364776,-2,-1,1,0,-2,2,0,-4
1558442231371683,3,1,-1,0,1,3,6,5
1558442231371683,-5,-5,-7,-6,-13,-12,-14,-12
1558442231386720,-1,0,2,-2,-3,4,4,0
1558442231386720,0,2,4,3,5,-2,-2,-3
1558442231393669,0,-1,-6,-2,6,4,3,2
1558442231393669,-1,-2,-3,-1,-6,-6,-4,-1
1558442231410414,-3,-3,-4,-1,4,6,1,-1
1558442231410414,-1,2,6,2,0,5,1,1
1558442231411349,-2,-1,-3,-2,-5,-10,-5,5
1558442231411349,-1,-1,0,-1,-2,-1,-4,-4
1558442231424313,-3,0,1,0,-3,-3,-1,-2
1558442231424313,-1,0,-1,-1,3,7,2,1
1558442231431551,-2,-1,0,1,-2,-2,-6,-7
1558442231431551,0,0,-2,-2,4,-2,2,1
1558442231447350,1,-4,-4,-2,-4,-4,0,3
1558442231447350,-1,-1,-4,-1,-3,-5,-2,-2
1558442231453261,-1,0,1,-1,-6,-2,-3,-5
1558442231453261,2,1,2,-1,3,3,1,-4
1558442231470512,1,-1,1,2,-1,3,0,7
1558442231470512,0,-3,-3,-2,-5,-1,-1,-1
1558442231471191,-2,-3,-3,-4,-14,-10,-5,-3
1558442231471191,-3,-2,-2,0,2,0,-2,-2
1558442231484439,1,1,7,3,9,4,7,2
1558442231484439,-1,0,-7,-1,5,7,0,0
1558442231491133,-4,-5,-3,-5,-9,-8,-3,-3
1558442231491133,1,3,5,2,5,-8,-6,5
1558442231506127,-3,-3,-2,0,-4,3,-4,-7
1558442231506127,0,0,2,0,1,2,-1,-1
1558442231513176,-1,1,-1,-3,-3,-2,1,-4
1558442231513176,0,-1,0,2,-2,0,4,6
1558442231530104,0,1,2,-2,1,-8,-2,-2
1558442231530104,-9,-10,-17,-7,-10,-3,-5,-6
1558442231531146,-1,-3,-2,1,1,1,-5,-6
1558442231531146,2,0,0,2,4,7,7,3
1558442231544248,1,0,2,-1,-6,-5,-7,-3
1558442231544248,2,-1,1,-1,-6,-5,4,2
1558442231551225,1,4,6,3,13,7,3,3
1558442231551225,-2,-5,-6,-5,-3,-1,-3,-2
1558442231567190,-4,-4,-8,-3,-5,1,-3,-4
1558442231567190,1,-1,-1,-2,-6,-4,-4,-2
1558442231572919,-1,-1,1,0,4,3,2,3
1558442231572919,1,2,3,0,5,2,5,4
1558442231589868,-2,1,-2,-1,0,-4,-5,-5
1558442231589868,-2,0,3,0,-1,-3,-5,-3
1558442231590866,-2,-2,-6,-4,-9,-11,-11,-5
1558442231590866,-2,-1,-2,-2,0,5,1,-3
1558442231604068,-2,-2,-5,2,8,0,7,3
1558442231604068,4,4,5,3,11,4,2,3
1558442231619015,0,-3,-4,0,0,3,3,2
1558442231619015,0,0,-1,-2,-12,-10,-5,0
1558442231627011,-2,-4,-8,-4,-10,-10,-8,-4
1558442231627011,1,1,8,1,4,7,4,-4
1558442231633752,-2,-3,-14,-3,2,4,2,2
1558442231633752,0,-2,-8,-4,-3,3,0,0
1558442231649708,0,1,0,0,2,1,5,5
1558442231649708,-1,1,-3,-1,1,0,1,3
1558442231650705,-1,0,6,0,-13,-9,-9,-6
1558442231650705,-1,-1,1,0,-6,-7,-3,-2
1558442231671649,2,4,5,1,10,14,12,6
1558442231671649,0,-1,1,-1,0,-6,-6,-5
1558442231673644,-1,0,-3,-1,3,5,3,-3
1558442231673644,0,-1,2,0,-1,-6,-2,-2
1558442231687040,0,3,17,4,-1,-2,-4,0
1558442231687040,-3,-6,-14,-5,-1,2,8,7
1558442231694060,-3,-1,-3,-1,2,-1,-2,-6
1558442231694060,-7,-3,-4,0,3,-2,-4,-8
1558442231710001,-2,-4,-4,-3,-9,-9,-7,-6
1558442231710001,-2,1,6,-1,-6,-9,-3,-3
1558442231711542,1,-1,1,0,3,4,4,3
1558442231711542,-2,0,1,-1,0,6,2,0
1558442231723510,-1,-3,0,0,2,-4,-1,0
1558442231723510,-1,-1,-2,-1,-1,-2,-4,-2
1558442231732487,0,-2,-2,-5,-3,0,1,1
1558442231732487,-1,-2,1,-1,-2,0,-5,-2
1558442231747189,-3,-1,-4,0,2,3,-3,-4
1558442231747189,0,-3,0,0,-5,-6,-3,-2
1558442231754191,-2,-2,-4,0,2,-2,0,-2
1558442231754191,1,-1,0,-1,0,-3,2,1
1558442231770075,-2,-1,0,-1,-5,-2,-4,-3
1558442231770075,-4,-3,-6,-2,0,1,-4,-2
1558442231770811,2,3,6,2,-5,-4,-4,3
1558442231770811,0,2,0,1,1,4,0,-4
1558442231784047,-1,0,-3,-2,5,2,1,2
1558442231784047,-3,0,-1,-4,-5,-6,-4,-2
1558442231792755,2,0,4,6,6,9,5,6
1558442231792755,-1,0,5,0,-6,0,2,0
1558442231806717,0,-1,-11,-4,-4,-4,-9,-6
1558442231806717,-2,-2,-1,-1,-6,-1,-3,-2
1558442231813933,-3,-3,0,-3,-6,-6,-8,-3
1558442231813933,0,-1,-2,0,12,5,5,1
1558442231837633,0,-1,2,1,1,7,8,2
1558442231837633,0,-1,2,-1,4,1,3,6
1558442231838630,1,-1,-5,-3,-7,-16,-7,-6
1558442231838630,0,0,3,-2,-6,-4,-1,4
1558442231843617,-5,-7,-6,-3,-6,-3,-5,-7
1558442231843617,-2,-1,-1,0,-1,0,-3,-3
1558442231852618,0,0,4,2,6,0,1,1
1558442231852618,0,-2,-2,-2,2,4,-1,0
1558442231866805,-4,-3,-3,-3,-8,-9,1,4
1558442231866805,0,1,2,-1,-4,0,1,-4
1558442231873540,-2,-2,-1,1,7,15,12,1
1558442231873540,-3,-1,-5,-3,-6,-12,-12,-6
1558442231889491,2,-1,-6,-2,-1,-4,-4,-3
1558442231889491,0,1,7,5,10,11,6,5
1558442231896740,-3,-4,-6,-5,-6,-3,-5,-11
1558442231896740,1,-1,0,-1,1,-2,6,6
1558442231903804,1,2,1,-1,4,3,2,-2
1558442231903804,-1,-1,-3,-3,-7,-6,-2,2
1558442231912432,1,0,-1,0,6,6,0,-1
1558442231912432,-3,-1,1,-1,-2,-2,-5,-5
1558442231926432,2,2,3,-1,-2,0,1,-1
1558442231926432,1,-2,-2,-1,2,-2,7,5
1558442231933410,-2,-3,0,-3,-4,-2,1,2
1558442231933410,-1,-4,-1,1,-1,0,-7,-1
1558442231949330,-3,1,-2,-2,1,-1,-6,-7
1558442231949330,2,2,0,0,-2,3,3,5
1558442231955314,-4,-3,-7,-1,-6,-5,-1,-2
1558442231955314,0,1,3,2,12,7,7,5
1558442231972831,-8,-8,-9,-5,-8,-3,-2,-4
1558442231972831,-4,-4,-6,-3,0,-4,-6,-5
1558442231973268,0,2,1,2,6,2,1,3
1558442231973268,-1,0,0,-2,-6,-4,-1,-2
1558442231986680,-1,1,-1,-2,-4,-5,-1,1
1558442231986680,-2,-1,-5,-5,-7,-5,-2,3
1558442231993653,-2,-1,2,-1,-3,-4,-7,-12
1558442231993653,-1,0,-2,-1,2,1,-1,-2
1558442232009173,-2,-2,3,1,-2,2,-2,0
1558442232009173,-1,-2,-2,1,4,1,0,-1
1558442232016181,1,1,2,-1,0,-2,0,7
1558442232016181,0,-3,-5,-3,-9,-2,0,-4
1558442232032113,-2,-2,-2,-1,-3,-7,-9,-4
1558442232032113,0,-2,-1,-1,0,-1,-5,-6
1558442232033109,1,0,1,-2,0,-2,-3,3
1558442232033109,-3,-1,-7,-3,-2,-2,-2,-2
1558442232046074,2,0,2,-1,4,8,9,9
1558442232046074,-1,0,3,1,-4,-6,-2,-8
1558442232053053,-2,-4,-7,-3,-8,-9,-6,-1
1558442232053053,-1,-2,-3,-1,3,3,5,3
1558442232069011,-2,-1,-2,-2,0,-3,2,-1
1558442232069011,0,2,3,2,0,-3,-3,0
1558442232075997,1,1,2,-1,0,1,1,-6
1558442232075997,1,-1,0,-2,-3,-2,-3,-1
1558442232091951,-1,-1,1,-2,-1,2,-4,-1
1558442232091951,-2,-4,-2,-4,-4,2,-1,-3
1558442232093949,0,-3,1,-1,0,-4,2,3
1558442232093949,-2,-4,-4,0,-4,-4,2,7
1558442232106913,-3,1,1,3,4,7,3,-6
1558442232106913,-3,-2,-2,-2,-1,2,1,4
1558442232113959,-3,0,-4,1,-1,1,-2,-6
1558442232113959,-1,0,1,-1,7,5,5,-1
1558442232128851,-2,0,0,-1,-5,-7,-6,-2
1558442232128851,0,-1,-4,-1,-2,-5,-5,-2
1558442232135845,-2,-3,-2,-3,-9,-9,-3,1
1558442232135845,0,-3,-1,0,-1,-2,-6,-3
1558442232152788,3,2,5,3,5,7,9,4
1558442232152788,-3,-3,-3,-3,0,-2,-4,-4
1558442232153794,0,1,1,0,-1,4,0,0
1558442232153794,-1,-5,-11,-5,-9,-13,-6,-2
1558442232166750,-1,-2,-1,-1,-1,-5,1,2
1558442232166750,-3,-2,0,0,0,6,2,0
1558442232173733,-2,0,1,1,8,14,4,0
1558442232173733,-3,-1,-1,-4,-5,-4,-7,-5
1558442232188692,2,0,2,-1,0,-8,-3,1
1558442232188692,0,-1,-4,0,1,-9,0,-1
1558442232195675,0,-1,2,-1,-3,-3,7,5
1558442232195675,-2,-1,-4,-4,-5,1,-3,-5
1558442232212626,-3,-5,-10,-6,-11,-13,-12,-9
1558442232212626,0,2,1,3,7,10,7,1
1558442232213626,2,1,3,4,10,4,6,4
1558442232213626,-2,-1,1,-1,-1,-2,-5,-6
1558442232226594,-1,-4,-4,-2,-8,-2,-3,1
1558442232226594,0,-3,-2,-2,1,0,2,0
1558442232233734,-2,0,6,-1,-2,-3,-1,2
1558442232233734,0,1,3,2,5,3,1,-5
1558442232248531,-1,-1,-5,-3,0,-4,-2,1
1558442232248531,-4,-4,-1,-5,-7,-4,-6,-4
1558442232255515,-2,-1,-2,-1,-6,0,0,-5
1558442232255515,-1,1,12,1,4,-3,-8,1
1558442232272466,0,1,-7,0,4,13,2,1
1558442232272466,1,1,-4,-2,-5,-6,-3,-4
1558442232278689,0,0,2,-2,-1,-2,-3,1
1558442232278689,-1,-2,-3,-1,-8,-6,1,0
1558442232286431,1,-2,1,-1,-2,-5,-3,-2
1558442232286431,1,1,5,1,10,15,5,3
1558442232293693,0,2,-3,-1,-3,-7,-4,1
1558442232293693,-2,-3,-3,-2,-7,-4,-1,-2
1558442232309583,-1,0,3,1,-2,-3,-2,-1
1558442232309583,-1,-2,-12,-5,-6,-2,0,5
1558442232315553,-1,-3,-1,0,7,2,0,-8
1558442232315553,2,1,3,-2,0,2,4,5
1558442232332525,-1,-4,-2,-1,-8,-9,-6,-4
1558442232332525,1,4,11,2,6,0,-3,-5
1558442232333307,-2,-4,-9,-3,7,4,-2,4
1558442232333307,-2,0,0,1,-4,1,-2,-3
1558442232346269,-3,-4,-3,-4,2,2,2,-1
1558442232346269,-3,-4,-1,-5,-20,-17,-11,-4
1558442232354250,-1,0,5,1,-1,0,0,2
1558442232354250,0,1,-11,1,6,4,4,2
1558442232369425,1,1,0,2,1,0,3,1
1558442232369425,-1,1,1,4,11,5,4,1
1558442232376189,-1,-1,5,-2,-10,-5,-8,-7
1558442232376189,-3,-6,-18,-7,-6,-3,-5,-7
1558442232392148,3,2,3,0,-2,0,5,2
1558442232392148,-1,-2,-6,-2,-1,1,2,3
1558442232394143,-4,-2,-3,-3,-8,-7,-7,-4
1558442232394143,-1,1,5,1,1,-4,3,4
1558442232406112,-3,0,3,2,8,9,-6,-8
1558442232406112,1,-1,3,1,0,-3,-3,-4
1558442232413312,-2,-3,0,-4,-2,-1,1,-2
1558442232413312,0,-1,-4,0,0,-1,-1,-2
1558442232429047,-3,-2,-3,-2,-4,-1,2,1
1558442232429047,0,-1,-1,-3,-2,1,-2,-3
1558442232436030,2,1,-1,3,1,-1,6,7
1558442232436030,-3,-1,3,-1,-4,-4,-6,-5
1558442232451987,-3,2,7,-1,3,2,0,2
1558442232451987,-7,-11,-22,-7,-5,-3,-5,-6
1558442232453983,-1,0,-3,0,2,1,3,-1
1558442232453983,2,0,4,-1,-3,-2,2,3
1558442232465950,-3,-4,1,-1,-6,-2,-7,-7
1558442232465950,1,-1,2,0,-2,-2,0,-2
1558442232474927,0,-2,-5,-1,0,-4,-1,0
1558442232474927,-1,2,3,-1,0,3,6,3
1558442232488889,-5,-3,-3,-1,0,-6,-9,-6
1558442232488889,-1,-1,-2,-1,-8,-1,-7,-1
1558442232495877,-1,-1,3,-2,-6,-3,0,-1
1558442232495877,-1,-1,3,2,10,13,6,0
1558442232511828,4,0,-12,-2,11,3,8,8
1558442232511828,-1,2,6,2,-2,-4,-2,1
1558442232513823,-7,-3,-9,-3,-6,2,-4,-8
1558442232513823,0,-1,7,-2,-7,-6,-4,-1
1558442232525793,-2,-1,-6,-4,-6,-3,0,6
1558442232525793,-1,-2,2,2,1,3,0,-5
1558442232534772,1,-1,-3,-1,2,-3,-3,-1
1558442232534772,-1,-1,-2,-2,2,1,-6,-4
1558442232548729,1,0,2,-3,-2,-4,2,4
1558442232548729,1,2,4,1,-2,-3,1,-1
1558442232555709,3,1,6,-2,2,4,4,4
1558442232555709,-3,-3,-8,-1,3,2,-6,-6
1558442232571670,4,3,13,3,-2,-3,-1,4
1558442232571670,-2,-5,-14,-7,-8,-9,-2,2
1558442232573662,0,0,-3,0,-1,4,1,-1
1558442232573662,-2,-2,-6,-2,2,0,0,-1
1558442232585631,-1,1,0,1,2,1,0,-2
1558442232585631,-2,2,5,-1,-3,-3,-3,-4
1558442232594626,-2,-4,-5,-2,-2,-2,-7,-2
1558442232594626,3,3,5,-1,-3,-5,1,10
1558442232608568,-2,-2,-9,-3,1,5,2,-8
1558442232608568,0,1,1,0,1,-2,0,1
1558442232615677,-3,-3,-9,-5,-10,-14,-8,-2
1558442232615677,0,0,1,0,0,4,4,-2
1558442232632504,-1,-1,-2,0,0,7,4,0
1558442232632504,1,-2,-3,-2,1,-7,-1,3
1558442232633502,-2,0,3,3,9,15,6,-5
1558442232633502,-3,-2,-1,-1,-5,-13,-12,-5
1558442232645471,-4,0,1,-2,-4,-1,-4,-2
1558442232645471,0,-2,-2,-2,-8,-1,-3,-4
1558442232654453,0,-2,-4,-2,-6,-8,-4,4
1558442232654453,1,-1,1,-1,0,-1,0,0
1558442232669407,1,-3,-4,0,2,2,3,0
1558442232669407,1,2,6,2,11,10,6,0
1558442232676388,1,2,10,3,8,7,0,-3
1558442232676388,-3,-2,-12,-4,-2,1,4,1
1558442232691347,0,-3,-6,-5,-9,-15,-10,-4
1558442232691347,-4,-4,-4,-2,-8,-7,-7,-4
1558442232692344,2,-2,-4,-2,-4,-6,-6,2
1558442232692344,1,2,5,0,-4,-10,-2,-3
1558442232714285,0,1,5,2,-1,1,2,-1
1558442232714285,-1,0,2,0,3,4,3,2
1558442232714285,-9,-5,-3,-4,-5,0,-10,-11
1558442232714285,-5,-4,-4,-2,-4,-1,-5,-3
1558442232729245,0,0,-2,0,4,6,5,7
1558442232729245,0,1,1,-1,1,-3,1,-2
1558442232736228,-1,-1,-1,0,2,0,3,0
1558442232736228,0,-2,3,-1,-6,-3,-8,-3
1558442232751194,-5,-5,-4,-3,-7,-5,-6,-4
1558442232751194,2,2,2,0,10,11,5,3
1558442232758170,-2,-1,-4,-1,-4,-12,-3,-2
1558442232758170,0,1,0,-1,3,1,5,6
1558442232774128,-2,-1,1,-1,-1,1,-2,-9
1558442232774128,2,-1,-1,-2,-1,5,-4,-4
1558442232775123,1,0,2,1,4,-6,4,7
1558442232775123,-4,-1,-2,-3,-5,-3,-4,-6
1558442232790085,2,-3,-4,-5,-9,-4,-3,3
1558442232790085,-2,-3,1,-1,-5,-5,-2,1
1558442232796068,-1,-2,-4,-1,6,7,2,-1
1558442232796068,3,2,7,1,5,7,7,4
1558442232811062,-5,-3,-6,-1,-7,-11,-6,-3
1558442232811062,-3,-4,-2,-3,-6,-5,-5,-5
1558442232826208,0,-2,-6,-4,-12,-5,-7,3
1558442232826208,-2,-1,-1,2,9,4,-4,-8
1558442232833966,2,2,2,2,6,5,4,2
1558442232833966,-3,-1,-3,-1,2,2,-1,-1
1558442232834973,-2,-2,-1,-2,-7,-1,4,2
1558442232834973,1,0,-1,0,2,1,6,4
1558442232849922,-2,0,2,-1,0,-4,0,-3
1558442232849922,-4,-3,-2,-1,-8,-5,-5,-2
1558442232855907,0,-1,-1,-3,-1,1,2,1
1558442232855907,-3,-4,-6,-3,-4,-1,-6,-8
1558442232870867,-2,2,1,1,1,1,-2,-5
1558442232870867,-1,2,0,0,2,3,4,3
1558442232877854,-3,-1,0,-2,-3,-4,-5,-6
1558442232877854,0,-5,-5,0,-3,-3,-1,7
1558442232893807,1,0,1,-1,3,3,7,3
1558442232893807,-2,0,-1,-3,-2,-6,-10,-4
1558442232894803,1,2,2,2,6,13,5,-1
1558442232894803,-3,-4,-3,-2,-5,-5,-3,-1
1558442232909763,-2,-2,0,-1,-7,-4,-8,-5
1558442232909763,0,-2,-7,-2,1,4,5,3
1558442232915746,1,2,12,2,-5,-4,0,1
1558442232915746,-1,-4,-11,-1,-3,1,-1,-3
1558442232930708,3,-1,-2,-1,4,3,4,8
1558442232930708,-2,1,1,2,5,0,-1,-5
1558442232938883,-1,1,4,2,-1,-2,-4,-6
1558442232938883,-2,0,-4,-4,-5,-3,-4,-4
1558442232955651,1,0,3,0,5,4,5,1
1558442232955651,0,-1,1,0,-7,-14,-4,3
1558442232955651,0,-2,-1,1,0,2,5,1
1558442232955651,-3,-1,1,-2,-1,-7,-10,-6
1558442232969603,1,0,2,4,7,9,3,-2
1558442232969603,-4,-8,-13,-4,-1,2,-1,-3
1558442232975587,-1,-1,-5,-3,-3,-2,-3,-3
1558442232975587,2,2,4,-2,-3,-3,4,5
1558442232992540,-3,-2,-1,-3,-8,-6,-6,-3
1558442232992540,0,0,6,-1,-3,-4,-1,2
1558442232998527,-3,-5,-10,0,4,3,-1,-3
1558442232998527,-1,0,1,1,2,5,2,-1
1558442233013484,0,0,1,0,3,-1,-1,6
1558442233013484,-1,2,5,1,1,4,4,-5
1558442233014482,0,-2,-5,-3,1,-6,-3,-2
1558442233014482,0,3,2,1,-1,-6,2,-3
1558442233029444,-4,-2,-4,-3,-8,-7,-9,-4
1558442233029444,3,2,1,-1,1,9,6,2
1558442233036437,-2,-4,-5,-5,-4,-5,-5,-4
1558442233036437,-1,-3,1,-2,-3,2,1,0
1558442233051425,-2,-2,-2,-2,-4,-5,-2,-2
1558442233051425,-1,0,-3,-2,4,-3,1,0
1558442233058596,-2,2,3,1,5,5,0,-3
1558442233058596,-2,-4,-3,-2,-3,-2,-1,0
1558442233081303,-2,-3,-6,-3,-7,-3,-4,-3
1558442233081303,-1,-1,2,-2,-4,-4,-3,-2
1558442233082300,-2,-3,-4,-2,1,2,6,5
1558442233082300,-2,-1,0,1,3,2,0,-5
1558442233089282,-2,0,8,0,1,3,3,-6
1558442233089282,-1,-2,-5,1,-6,-7,-3,0
1558442233095267,0,-2,-9,-6,-13,-8,-7,-1
1558442233095267,-3,-3,-6,-4,3,4,1,-3
1558442233111223,3,1,6,4,12,9,8,0
1558442233111223,1,-2,-6,-1,2,-1,3,9
1558442233118205,-1,-2,4,-1,-1,1,-2,1
1558442233118205,-2,-1,2,-2,-10,-9,-10,-3
1558442233135159,0,3,-4,0,-1,-3,-3,-3
1558442233135159,0,0,0,-4,-4,-1,-1,0
1558442233141143,-2,0,1,0,-5,-6,-3,-1
1558442233141143,0,1,1,-1,-2,0,-5,-5
1558442233150119,-1,1,-4,-1,4,2,6,4
1558442233150119,1,0,6,4,12,7,-4,0
1558442233156104,2,0,-3,3,10,3,-3,-2
1558442233156104,1,1,5,-1,-2,-2,3,2
1558442233171063,-4,-3,-4,-5,-12,-7,-10,-1
1558442233171063,-6,-6,-11,-8,-12,-3,-1,-5
1558442233178045,-1,0,4,1,1,8,8,5
1558442233178045,-1,0,-1,2,3,-7,-3,-4
1558442233194002,3,0,-4,-1,2,2,6,5
1558442233194002,-3,-1,1,0,1,1,-5,-5
1558442233195001,-1,-1,1,-2,-4,-2,-3,-5
1558442233195001,-1,-2,-4,-2,-3,1,4,4
1558442233209960,0,-2,2,-3,-10,-13,-9,-7
1558442233209960,2,2,0,0,2,-4,4,-3
1558442233215947,1,-1,3,3,9,9,-1,-3
1558442233215947,-3,1,-8,-1,-2,-1,-2,0
1558442233230904,-2,0,-1,-3,-6,-5,-7,-4
1558442233230904,0,2,3,-2,-7,-2,-1,3
1558442233237913,-3,-2,-7,-1,1,-3,4,2
1558442233237913,1,1,6,2,1,3,6,2
1558442233253872,-3,-4,-6,-2,7,0,-2,1
1558442233253872,-1,-2,-2,-2,-9,-6,-4,-5
1558442233254841,-5,-1,-1,-1,-4,-4,-5,-7
1558442233254841,0,0,0,-4,0,9,3,0
1558442233269805,-1,-2,0,-2,-4,-3,-2,-1
1558442233269805,0,3,3,2,8,6,6,0
1558442233275789,0,-1,3,0,1,0,2,2
1558442233275789,3,-2,-3,1,1,-6,6,9
1558442233290743,-5,-3,-8,-2,-5,-2,-6,-14
1558442233290743,-4,-3,-1,-2,-7,-8,-7,-3
1558442233298726,0,-1,-8,-5,-8,-5,-5,3
1558442233298726,-2,0,3,4,5,6,-5,-5
1558442233313913,-1,-1,5,4,5,5,4,4
1558442233313913,-2,-5,-2,-1,2,-2,-5,-2
1558442233314680,-2,0,1,-1,-2,1,5,0
1558442233314680,-1,1,-1,-1,-3,-7,0,0
1558442233329640,-1,4,5,0,3,5,1,4
1558442233329640,-1,-2,-6,2,1,2,-1,-3
1558442233335728,2,2,3,2,2,-4,-1,-1
1558442233335728,-2,-4,-2,-3,-1,4,-3,-4
1558442233358562,0,-1,1,-2,-5,-3,0,-3
1558442233358562,0,2,-2,-1,7,11,9,9
1558442233359558,0,-2,-9,-1,-5,0,-3,-4
1558442233359558,1,0,-1,2,6,0,2,2
1558442233373525,-1,-1,-1,-2,-9,-10,-1,3
1558442233373525,1,1,3,2,1,0,-2,1
1558442233374519,-3,-3,-1,-2,-3,-3,-4,-4
1558442233374519,-3,-2,-1,-3,-10,-4,-7,-9
1558442233389479,-1,-1,-1,-1,-2,1,0,1
1558442233389479,0,-1,2,0,3,2,2,1
1558442233395464,-2,0,3,-1,0,-3,2,3
1558442233395464,-2,0,-4,-3,2,0,-1,0
1558442233410428,-2,-2,-4,-3,-8,-6,1,-2
1558442233410428,-2,-1,-3,-2,0,-4,-11,-5
