timestamp,emg1,emg2,emg3,emg4,emg5,emg6,emg7,emg8
1558442267934779,-1,-1,-4,2,4,2,0,2
1558442267934779,1,-2,0,-2,-1,0,0,0
1558442267935779,0,0,0,-1,0,-1,-1,-1
1558442267935779,0,0,-1,0,-3,6,5,2
1558442267936773,-1,0,-1,-3,0,-4,-6,-1
1558442267936773,-2,1,0,0,3,2,-1,-2
1558442267939765,-1,-2,-6,-1,-4,-6,-3,-4
1558442267939765,-2,0,-2,-2,0,-2,3,1
1558442267947744,-2,-1,-2,-3,-4,0,0,0
1558442267947744,-4,-2,-1,1,-5,-2,-1,-2
1558442267958716,-2,-3,1,-1,-1,2,-1,0
1558442267958716,0,-1,0,-3,0,-4,-5,-3
1558442267962706,-1,-2,-1,-1,-5,-9,-4,-5
1558442267962706,3,0,0,0,8,8,6,3
1558442267977663,-1,-1,0,-1,1,1,-1,0
1558442267977663,0,-2,-1,-1,-4,-5,-5,-1
1558442267985644,-1,0,0,0,-2,0,0,-3
1558442267985644,-1,-1,4,-1,-3,-8,-5,-1
1558442267993621,-2,0,-6,2,4,10,2,-7
1558442267993621,-3,-2,-2,0,-1,0,1,-1
1558442268007583,0,1,0,-2,0,-6,-2,0
1558442268007583,-1,-2,-3,-3,-1,0,-4,-2
1558442268017557,1,-1,2,0,2,-1,0,2
1558442268017557,-2,0,0,-1,-6,-3,-5,-3
1558442268046479,-1,-1,0,-2,2,4,2,1
1558442268046479,-2,-1,1,0,1,0,2,-3
1558442268054459,0,-3,-1,-3,-8,-12,-4,0
1558442268054459,-2,-3,-5,-4,-5,-7,-4,-4
1558442268055456,-1,-2,-2,-1,1,7,2,-2
1558442268055456,-2,-3,-2,0,6,5,1,0
1558442268056453,1,2,1,1,1,1,2,5
1558442268056453,1,-1,1,0,-2,-4,1,4
1558442268067424,-2,-2,-4,0,-3,-4,-3,-3
1558442268067424,-2,1,-2,0,-3,0,-2,-2
1558442268076400,-4,-5,-3,-6,-7,-5,-3,-6
1558442268076400,0,-1,-1,-3,-6,1,0,-2
1558442268082384,0,1,4,2,6,-4,-3,1
1558442268082384,1,1,-3,0,1,0,4,3
1558442268097344,1,0,1,0,5,2,2,1
1558442268097344,-2,-2,-2,-1,1,3,1,0
1558442268104325,-3,-2,-2,-3,-5,-3,-3,-4
1558442268104325,2,1,1,-2,-1,-1,-5,-2
1558442268113301,0,-1,-2,-2,-7,-4,0,-4
1558442268113301,-4,-2,-4,-1,-1,-2,-5,-2
1558442268127263,0,-1,1,0,7,6,3,2
1558442268127263,1,0,2,0,1,-3,0,2
1558442268136240,-4,-4,-5,-3,-2,5,-1,-3
1558442268136240,-1,-2,1,-1,-2,3,-3,-2
1558442268142223,0,1,-2,-2,-13,-11,-4,-2
1558442268142223,-3,0,4,-1,0,-2,1,-1
1558442268157183,1,2,-2,0,4,5,3,3
1558442268157183,0,0,-3,-2,0,-1,-2,1
1558442268164165,-1,-2,-4,-4,-1,0,-3,-7
1558442268164165,-2,-4,-5,-4,-7,-11,-8,-6
1558442268173141,-1,1,4,-1,-5,-7,-5,-1
1558442268173141,0,-1,1,0,-1,0,6,3
1558442268187103,-1,-1,-2,2,8,5,0,2
1558442268187103,-1,-1,2,0,-1,5,-1,-1
1558442268196079,-1,0,0,-2,-1,-4,-4,-3
1558442268196079,0,-1,-4,-2,-1,-7,-3,-1
1558442268202063,-2,-2,-2,-2,-7,-6,-3,-4
1558442268202063,-1,-2,-1,-3,-7,1,-4,-2
1558442268217023,0,0,0,3,9,5,3,4
1558442268217023,0,0,3,0,-3,3,-4,-4
1558442268225001,0,1,-4,0,2,-5,8,5
1558442268225001,-2,-1,-3,-1,-5,-2,-3,-1
1558442268232980,0,-1,-1,0,-4,-6,-6,-4
1558442268232980,-2,-2,0,-1,2,0,-2,-1
1558442268246943,-3,-2,-4,-2,-5,-2,-5,-3
1558442268246943,0,1,-1,-2,-7,-3,1,-1
1558442268255920,-2,-1,-2,-1,2,3,1,-2
1558442268255920,-1,0,1,0,5,-1,0,-2
1558442268261904,1,0,6,2,2,4,1,4
1558442268261904,-2,-1,-5,-3,-2,-8,-4,-1
1558442268276863,-2,-2,-6,-2,0,3,1,-4
1558442268276863,-3,1,-1,-2,-5,0,-2,-1
1558442268293817,0,1,2,0,4,6,4,1
1558442268293817,0,-1,2,0,2,3,2,-1
1558442268294815,-1,-2,-1,-1,1,2,-1,4
1558442268294815,-1,-3,-2,-3,-3,-4,-1,-1
1558442268306783,0,-1,-1,-2,-8,-8,-9,-4
1558442268306783,-1,-1,0,-1,-4,-1,-2,-2
1558442268315759,-1,-1,-3,-2,-3,2,0,0
1558442268315759,1,1,-2,0,0,-11,-4,-6
1558442268321743,1,0,0,1,2,2,3,7
1558442268321743,-2,0,-3,0,6,3,-3,-4
1558442268336703,0,2,5,3,3,6,-1,-1
1558442268336703,-1,-3,-5,-5,-11,-8,-3,-2
1558442268344682,-2,-2,-1,-3,-5,-9,-7,-6
1558442268344682,-1,-2,-3,0,0,5,2,0
1558442268359643,-3,-3,0,-2,-3,-2,1,-2
1558442268359643,2,4,4,2,11,3,10,8
1558442268375600,0,1,0,-2,-1,-1,-4,-4
1558442268375600,-1,-2,-1,-3,-4,-2,-3,0
1558442268377594,0,1,-5,-4,-8,-12,-7,0
1558442268377594,0,-3,-1,-1,0,2,-1,-2
1558442268381583,-1,0,-2,-2,-2,2,3,-2
1558442268381583,2,1,2,1,0,2,0,2
1558442268396542,-2,-1,-2,0,2,0,-2,-5
1558442268396542,1,0,0,-1,3,3,2,1
1558442268404527,-4,-3,0,-3,-7,-3,-4,-4
1558442268404527,-1,-1,-4,-2,1,0,-3,-1
1558442268419493,1,-1,0,2,7,2,2,-1
1558442268419493,-1,0,0,0,-3,-1,-2,2
1558442268427460,-1,-1,-1,-3,-2,-2,0,-3
1558442268427460,-3,-1,-1,-3,-3,-1,-1,-3
1558442268436436,0,-2,-2,-1,0,-2,-2,-1
1558442268436436,-2,-3,0,-2,-2,-1,-4,-3
1558442268442420,2,0,-2,2,6,2,2,-4
1558442268442420,-2,-1,-1,-1,-1,-3,0,2
1558442268457381,1,1,0,-1,-3,-2,-2,0
1558442268457381,-3,-1,0,1,1,1,-1,-5
1558442268464362,-4,-1,-4,-3,-9,-7,-6,1
1558442268464362,-2,-1,-1,1,3,1,1,-2
1558442268479323,-2,-2,1,-1,0,1,0,-4
1558442268479323,-1,-1,-2,-3,-5,-2,-3,-1
1558442268487300,2,0,3,1,3,3,2,2
1558442268487300,-1,-3,-6,-2,0,0,-1,-1
1558442268496277,-2,-2,-2,-4,-11,-7,-2,-2
1558442268496277,-1,0,-2,-1,2,-3,-2,-3
1558442268502262,2,-1,-1,0,3,3,4,4
1558442268502262,3,3,5,3,10,7,8,2
1558442268517221,0,-1,0,0,4,1,0,2
1558442268517221,-2,-2,-2,-3,-5,-7,-6,-4
1558442268524201,-1,-2,-2,-2,-3,1,0,-3
1558442268524201,-3,-2,-5,-3,-10,-7,-7,-3
1558442268539164,1,0,-2,-2,1,3,3,-1
1558442268539164,1,-2,-1,1,1,2,0,-1
1558442268547140,-3,0,0,0,-1,-1,-5,-1
1558442268547140,0,2,1,3,4,0,1,0
1558442268556116,-4,-2,-1,-4,-5,-4,-3,-2
1558442268556116,0,-1,-2,-1,-2,-3,-1,3
1558442268562101,2,1,-3,0,6,5,1,1
1558442268562101,0,-4,-1,-2,-10,-11,-7,-4
1558442268578058,-3,-2,-1,-3,-4,-6,-2,-3
1558442268578058,1,-1,-1,0,4,3,1,0
1558442268584041,3,-3,-2,0,3,3,-1,-1
1558442268584041,0,-1,1,1,7,4,6,3
1558442268599999,0,1,-1,-2,-6,-7,-7,-2
1558442268599999,-3,-2,0,-1,-5,-3,-5,-2
1558442268606983,-3,0,-1,-4,-4,-4,-2,-2
1558442268606983,1,-1,-2,-2,2,4,-1,-5
1558442268615956,-2,-1,-3,-1,-2,-1,2,2
1558442268615956,1,1,3,1,-1,-2,1,0
1558442268621940,-2,-3,-5,-1,1,2,-3,-3
1558442268621940,-3,-2,1,-5,-8,-7,-3,-2
1558442268636900,-1,0,4,1,3,-1,-2,1
1558442268636900,0,1,-1,2,8,11,4,1
1558442268644881,-1,-3,-6,-2,-4,0,-3,-2
1558442268644881,-1,-2,-3,-3,-9,-11,-8,-3
1558442268660836,0,1,3,2,7,6,3,-1
1558442268660836,-2,-2,-4,-1,0,4,5,0
1558442268666821,-2,1,2,-1,-6,-6,-2,-1
1558442268666821,-1,-2,-1,-2,-5,-4,-2,-2
1558442268675796,0,0,-3,-1,-5,-5,-7,-5
1558442268675796,-4,-1,0,-1,-4,0,1,-2
1558442268693009,1,1,1,0,1,5,6,5
1558442268693009,0,-1,-2,-1,2,1,-3,-1
1558442268696741,-1,-1,-1,0,1,-3,-3,-4
1558442268696741,-1,0,-1,-1,0,-5,-2,-2
1558442268704719,-2,-2,-1,-3,-1,-3,0,-2
1558442268704719,-4,2,4,0,-7,-2,0,-1
1558442268719680,-3,-1,-8,-2,0,0,-2,3
1558442268719680,1,2,-1,-3,1,1,-5,-6
1558442268726660,-2,-3,-2,1,-1,-3,2,-1
1558442268726660,0,-2,4,2,6,2,-1,0
1558442268735636,1,-4,0,-4,-5,0,-1,2
1558442268735636,-2,-2,-3,-5,-9,-5,-2,-1
1558442268750596,-2,-1,4,2,1,3,-4,-3
1558442268750596,2,0,-2,-1,3,-2,2,3
1558442268756579,-1,-1,2,0,3,4,2,-2
1558442268756579,1,0,0,-1,-1,0,0,2
1558442268764559,-2,0,1,-1,-4,-6,-1,-3
1558442268764559,1,-1,-1,-1,1,3,-1,0
1558442268779519,-1,-2,-5,0,5,5,2,-2
1558442268779519,0,-1,1,-1,-3,-5,0,0
1558442268787497,-1,-1,-6,-4,-8,-14,-7,-2
1558442268787497,-3,0,-2,-1,3,9,1,-6
1558442268795475,-3,0,-1,-2,-2,-6,-4,-1
1558442268795475,-1,1,0,3,5,6,2,3
1558442268810442,0,-3,0,-2,-5,0,1,-2
1558442268810442,0,1,-2,-2,-3,-4,-2,0
1558442268817419,1,0,2,-2,-5,-4,-1,-4
1558442268817419,0,-3,-1,-1,0,-1,-2,-3
1558442268832384,-1,-2,1,0,5,5,0,2
1558442268832384,-5,-1,-4,-3,0,-5,-1,-4
1558442268839362,0,0,-1,-1,-3,-3,-1,-4
1558442268839362,-1,0,-2,-3,-5,-5,-1,0
1558442268847339,2,2,-1,-1,2,4,-3,-1
1558442268847339,-2,-2,-4,-1,-3,3,1,0
1558442268856315,-3,-2,0,-1,0,3,2,3
1558442268856315,-2,-4,-1,0,-2,-7,-5,-5
1558442268869279,0,0,5,-1,4,-1,-1,-1
1558442268869279,0,-3,-6,-3,-4,-6,-5,-2
1558442268878255,-1,1,6,0,-1,-3,1,-1
1558442268878255,-1,-1,-7,-1,-2,-1,-2,-1
1558442268884240,-2,0,-3,-2,-1,4,0,-3
1558442268884240,0,2,3,-1,2,-1,1,1
1558442268899198,0,-1,-1,-1,-2,6,2,-1
1558442268899198,-1,0,2,1,1,-1,2,-4
1558442268907177,2,-1,-2,-1,-1,-2,1,3
1558442268907177,0,-3,0,0,-4,-9,-3,0
1558442268916152,-1,0,-2,-3,1,-1,2,2
1558442268916152,-3,0,3,0,-3,2,-2,-1
1558442268929118,-1,-2,-6,-2,0,-4,-5,-6
1558442268929118,0,-1,2,2,4,8,3,1
1558442268938095,0,-1,-1,-2,2,-3,-1,-1
1558442268938095,-4,-4,0,-1,-3,1,-4,-4
1558442268944077,0,2,6,-1,-7,-5,-2,0
1558442268944077,-1,-3,-10,-6,-4,-5,-4,-1
1558442268960037,-1,-1,-2,-1,1,4,-1,0
1558442268960037,2,2,2,2,10,11,6,5
1558442268967017,-3,-2,-2,-2,-4,-2,-5,-6
1558442268967017,-3,-3,1,-3,-9,-16,-9,-4
1558442268975993,-4,0,-2,1,-3,-4,2,2
1558442268975993,-1,0,2,0,3,2,-2,-6
1558442268989965,-2,-2,-2,-1,4,5,2,2
1558442268989965,0,-1,-2,-1,-3,2,0,1
1558442268998939,0,-3,-2,-2,-1,-5,-3,-1
1558442268998939,1,-2,-1,-2,-3,-2,0,-2
1558442269004919,0,-1,-1,1,-3,-8,-1,0
1558442269004919,-2,-1,1,-1,1,0,-5,-5
1558442269019879,-2,-3,-2,0,-2,2,-1,-2
1558442269019879,-2,-3,-4,-4,-6,-3,-3,-2
1558442269026859,-2,-2,-2,0,2,-2,2,0
1558442269026859,0,0,-2,-1,-3,4,0,-1
1558442269041820,0,1,1,0,5,5,0,-1
1558442269041820,-3,-1,-2,-3,-3,-5,-3,0
1558442269049804,-3,0,2,1,-4,0,0,-3
1558442269049804,-1,2,0,4,7,7,6,1
1558442269065754,-1,-2,-1,-1,-5,-3,-1,-4
1558442269065754,2,0,-1,3,6,7,4,2
1558442269065754,0,0,0,-1,-1,-4,0,-2
1558442269065754,-2,-1,1,0,-1,-4,-3,-3
1558442269080718,-2,1,3,-3,-9,-9,-6,-4
1558442269080718,-2,0,-3,-3,-2,-2,0,3
1558442269087697,-3,-1,-4,-2,-3,-2,-6,-6
1558442269087697,-1,-2,2,0,-1,0,0,2
1558442269102658,-1,-3,-3,-1,-1,-1,-2,-2
1558442269102658,0,0,1,1,1,0,-1,0
1558442269109642,1,1,-1,-1,1,-4,-3,1
1558442269109642,2,-1,-1,-2,-3,0,0,1
1558442269125599,-2,-1,-2,-1,-2,-4,-3,-5
1558442269125599,1,1,1,-2,-3,-6,0,0
1558442269125599,-1,-3,-3,-1,1,4,2,4
1558442269125599,-1,-1,-3,-2,-2,-7,-2,2
1558442269139560,2,-2,1,3,10,9,5,1
1558442269139560,1,0,0,0,5,12,3,0
1558442269147537,-2,-3,-4,-2,-9,-14,-6,-4
1558442269147537,-2,-1,0,-5,-7,-4,-4,-2
1558442269162498,-1,0,-3,-1,-3,-2,0,1
1558442269162498,-2,0,1,1,6,6,0,-1
1558442269169477,0,-2,-1,-1,0,3,-1,0
1558442269169477,3,1,3,4,13,10,4,2
1558442269185434,1,-1,-1,-1,-5,-6,-4,-3
1558442269185434,-2,-3,-2,-3,-8,-9,-5,-2
1558442269186432,-1,-1,0,-2,-6,-5,1,1
1558442269186432,-2,-2,-6,-4,-2,-8,-8,-4
1558442269199396,-1,-1,-2,-3,0,2,-1,0
1558442269199396,-1,-2,-2,-3,-8,-7,-1,0
1558442269207374,1,2,2,3,5,-3,0,0
1558442269207374,0,-1,0,0,2,1,3,2
1558442269222333,1,1,-1,-2,0,2,3,1
1558442269222333,-1,-3,-2,-2,-5,-6,-1,0
1558442269229315,-3,-1,0,-2,-2,3,-6,-5
1558442269229315,-1,-1,-2,-1,-1,2,-1,-4
1558442269245277,0,-1,1,0,0,0,-5,-1
1558442269245277,-1,-1,2,0,-2,-6,-4,-2
1558442269246275,-1,-3,-6,0,5,6,5,0
1558442269246275,-2,0,3,0,1,4,4,-1
1558442269260235,0,-1,-6,-3,-2,-1,-1,0
1558442269260235,0,-1,1,-1,-3,-1,-4,-1
1558442269267215,2,2,1,-1,1,0,2,4
1558442269267215,-2,-2,-6,-2,-4,-4,-6,-5
1558442269282182,-1,-1,-3,-1,-2,-2,-2,-4
1558442269282182,-2,-1,-2,-1,-1,-1,-3,-4
1558442269290207,-2,-2,0,-4,-4,0,2,3
1558442269290207,-1,1,1,-1,1,1,2,0
1558442269305122,-4,-3,-5,-2,-7,-10,-5,-2
1558442269305122,3,-2,-1,-1,0,-2,-4,-1
1558442269306113,-2,0,-1,1,9,16,5,-1
1558442269306113,1,-3,0,-2,-5,-6,0,0
1558442269320179,-2,-1,0,-3,-6,-8,-4,-3
1558442269320179,0,1,-1,1,7,10,6,1
1558442269327265,-1,1,1,0,0,-2,-2,-4
1558442269327265,0,-2,-2,0,4,4,1,-1
1558442269342137,-3,0,0,1,-1,3,-3,-4
1558442269342137,-3,-2,-2,-4,-8,-10,-5,-4
1558442269350100,0,-2,-2,-1,-6,-7,-2,-1
1558442269350100,-3,-1,0,-1,-1,2,-1,0
1558442269365065,0,1,2,-1,1,0,0,2
1558442269365065,-2,-1,0,1,3,0,0,1
1558442269366059,0,0,-1,0,-1,1,-5,-4
1558442269366059,-1,-1,-2,-3,-8,-6,0,0
1558442269380019,0,-1,0,-1,3,3,-1,-8
1558442269380019,-2,-2,-1,-2,1,3,4,1
1558442269387001,-1,-2,0,-3,-4,-4,0,0
1558442269387001,0,0,0,-2,-2,-1,-4,-2
1558442269401961,2,0,2,2,4,2,0,4
1558442269401961,-1,-1,-1,-1,-2,-5,0,3
1558442269409939,-1,-1,-2,-3,-7,-6,-5,-5
1558442269409939,-1,-1,0,-1,3,5,-1,-1
1558442269424900,0,0,0,1,1,4,5,5
1558442269424900,-1,0,-3,-1,2,-1,-3,-2
1558442269425896,-3,-1,0,-1,-2,-2,-2,-2
1558442269425896,0,2,5,1,1,-1,1,2
1558442269440101,-2,-3,-9,-3,0,-1,-1,1
1558442269440101,0,-2,0,0,-4,-3,-2,-3
1558442269447840,-1,1,7,0,-2,-3,1,-2
1558442269447840,-4,-5,-8,-2,0,4,-2,-4
1558442269462836,1,-2,-6,-3,-8,-11,-9,-3
1558442269462836,-3,-2,-3,-2,-1,-4,-3,-1
1558442269470049,1,0,0,3,8,4,2,3
1558442269470049,0,1,7,3,8,3,7,2
1558442269485738,-2,0,0,-3,-3,5,-1,-1
1558442269485738,0,0,-2,0,-1,-2,3,0
1558442269492976,2,-1,1,0,7,7,0,0
1558442269492976,0,0,1,1,-2,1,1,5
1558442269499705,-3,-2,-3,-1,1,-1,2,-5
1558442269499705,-2,-2,-2,-5,-13,-12,-10,-9
1558442269507719,-2,-1,-2,-2,-1,1,0,-5
1558442269507719,0,-2,-2,0,4,9,2,-1
1558442269522836,0,0,5,1,-1,-3,1,0
1558442269522836,0,-2,-4,0,2,1,5,2
1558442269529822,-5,-5,-9,-4,-3,-5,-4,0
1558442269529822,1,0,0,1,2,1,0,-1
1558442269545801,0,-2,0,-4,-7,-6,-4,-1
1558442269545801,0,0,-2,-3,-5,-1,-2,0
1558442269546586,-4,0,-1,-3,-2,-2,0,-1
1558442269546586,-2,-1,-2,-2,-4,-11,-6,-2
1558442269559717,1,1,7,1,7,10,4,5
1558442269559717,-1,-1,1,0,2,0,-2,-3
1558442269567726,1,-1,-4,-4,-14,-9,-6,-1
1558442269567726,-1,1,0,-2,-1,-3,0,-2
1558442269583474,0,1,1,1,1,2,2,-2
1558442269583474,-1,0,4,0,0,7,-1,-3
1558442269589459,-2,-2,-7,-1,4,1,-1,1
1558442269589459,2,-2,2,0,2,2,-1,-1
1558442269604418,1,-5,-5,-1,-4,-6,-2,1
1558442269604418,-2,-2,1,-3,-6,-1,-5,-4
1558442269612397,0,0,1,0,-3,-5,-4,-2
1558442269612397,-2,-1,0,-1,-2,1,0,-1
1558442269619386,-2,-1,-9,-5,-5,-10,-4,4
1558442269619386,1,0,1,2,6,13,12,8
1558442269627385,-2,0,4,2,2,1,-6,-12
1558442269627385,-3,-2,-7,-2,3,5,3,-1
1558442269642318,-4,-2,1,-1,-3,-3,-2,-6
1558442269642318,-1,0,-2,0,-4,-6,-1,1
1558442269650310,-2,0,1,0,3,5,4,3
1558442269650310,-1,-1,0,0,1,-9,-3,1
1558442269665335,-1,-3,1,-2,-5,-1,-5,-3
1558442269665335,-1,-4,-7,-2,-5,-4,-3,2
1558442269673546,0,-1,1,0,0,0,3,1
1558442269673546,1,1,1,1,4,2,1,3
1558442269679552,-2,-1,-1,-1,2,4,4,0
1558442269679552,-2,-4,1,-1,-2,-6,-4,-4
1558442269687483,0,-2,-2,-4,-8,-10,-5,-2
1558442269687483,-3,-2,-5,-5,-7,1,-2,-4
1558442269711421,1,0,-2,0,-3,-1,0,1
1558442269711421,0,2,2,2,10,7,0,-1
1558442269712321,0,-3,-3,-2,-1,0,2,4
1558442269712321,-2,-3,-3,-1,-8,-8,-6,-3
1558442269724354,-5,-3,-2,-2,-1,1,1,-6
1558442269724354,0,0,-2,-1,-1,-6,-1,-3
1558442269733323,-1,-2,-2,0,-1,1,-2,0
1558442269733323,1,-1,1,-2,-4,0,-2,1
1558442269740274,-2,-3,-2,-3,0,3,-3,0
1558442269740274,-3,-1,0,0,2,-2,0,1
1558442269747259,-1,0,-2,0,0,0,-1,1
1558442269747259,-1,-2,1,-2,-3,0,-2,-3
1558442269763992,2,3,3,3,3,-1,2,0
1558442269763992,0,-3,-6,-3,1,5,-1,-1
1558442269770008,1,-1,0,1,4,2,2,-1
1558442269770008,0,-1,0,-3,-5,-8,-4,-2
1558442269784938,-2,-2,-2,0,-2,-1,-2,-4
1558442269784938,0,-3,-2,-1,-2,-3,-1,2
1558442269793168,0,-1,-1,-2,1,-1,-2,0
1558442269793168,-2,0,-1,0,1,-2,0,-1
1558442269807873,0,0,1,-1,-3,-4,-2,1
1558442269807873,-1,0,2,-3,-2,-5,-2,-3
1558442269808872,-2,-2,-1,-3,-2,1,1,-4
1558442269808872,0,-1,-1,-1,-1,-4,1,6
1558442269822922,0,-2,1,0,3,9,4,-1
1558442269822922,-1,-1,0,0,1,3,1,0
1558442269830298,0,-2,3,2,3,-1,-2,-1
1558442269830298,-4,-3,-3,-2,-2,-3,-3,-4
1558442269845194,-2,0,2,-2,-4,-5,-2,0
1558442269845194,1,2,-3,-2,-4,-1,1,0
1558442269852754,-2,2,2,0,1,1,-1,3
1558442269852754,-2,-3,-6,-2,2,2,-3,-3
1558442269868039,1,-3,-5,0,6,7,0,3
1558442269868039,-2,0,0,-2,-2,0,-2,-4
1558442269868712,-4,-2,-5,-3,-12,-13,-5,-4
1558442269868712,-2,2,1,0,5,10,9,-1
1558442269882815,-2,1,2,0,2,-3,-4,3
1558442269882815,1,-2,-2,-1,-3,-1,-3,-2
1558442269889894,0,1,0,-1,-4,-1,-2,0
1558442269889894,0,-1,-1,0,-1,-3,0,-1
1558442269904646,-2,-3,-1,0,4,3,1,-3
1558442269904646,-2,-1,-3,-2,-4,-5,-7,-1
1558442269912598,-1,-2,0,-2,-1,-1,-1,-3
1558442269912598,-2,-2,-1,0,-4,-3,0,0
1558442269927805,1,0,2,-1,1,-2,-2,0
1558442269927805,-1,-1,-3,0,-2,-2,-1,-2
1558442269928556,3,2,0,-1,2,3,3,-2
1558442269928556,0,-1,-3,0,1,-1,1,0
1558442269942745,-2,-1,-1,-3,-2,-4,-3,-4
1558442269942745,-1,-3,0,0,-2,-6,0,1
1558442269949743,-1,-1,3,-2,1,0,-3,0
1558442269949743,-1,1,3,-1,-6,-2,-3,-3
1558442269964708,-1,-2,-2,-1,-3,0,2,-2
1558442269964708,-3,-1,-5,-3,-2,2,-2,-3
1558442269973523,0,0,-4,-2,-5,-4,2,1
1558442269973523,-1,-3,-2,-3,-3,-1,-6,-1
1558442269987658,1,2,2,2,-1,0,1,0
1558442269987658,-1,-1,4,-1,3,3,0,-1
1558442269988396,-1,0,-1,0,-2,-3,2,0
1558442269988396,0,-1,3,-1,1,3,1,-2
1558442270002354,0,-2,-4,-1,-1,-5,2,2
1558442270002354,-2,-1,1,0,0,-1,-2,-3
1558442270009573,-2,-4,-5,-3,-5,-2,-4,1
1558442270009573,-3,-1,-2,-4,-6,-9,-6,-4
1558442270024327,1,0,1,0,1,0,2,2
1558442270024327,-2,-2,-4,0,2,-2,1,-1
1558442270032277,-1,-3,-4,0,2,0,1,0
1558442270032277,-1,-3,-2,0,-3,-1,-5,-8
1558442270048545,0,-3,0,-1,1,0,-1,0
1558442270048545,-2,0,-1,-2,-1,0,1,1
1558442270048545,-2,-1,-2,-2,-1,-5,0,0
1558442270048545,-3,-1,-4,-2,-6,-9,-4,-2
1558442270062195,-1,1,4,-2,2,-6,-3,1
1558442270062195,0,0,1,2,3,6,1,0
1558442270069176,-1,-2,1,1,-2,-2,-1,-2
1558442270069176,1,-1,-4,1,3,2,0,1
1558442270084435,-2,-3,-1,-4,-7,0,-3,-3
1558442270084435,1,3,6,1,1,-3,1,2
1558442270093415,-3,-1,-8,-3,0,5,3,-3
1558442270093415,-3,-4,-10,-3,-1,-7,-2,1
1558442270108285,-2,-3,-1,1,0,-1,1,-3
1558442270108285,-1,-1,-1,-3,0,4,0,-1
1558442270108285,-1,-2,2,0,-2,-2,-6,-3
1558442270108285,-1,0,2,-2,-3,-4,-3,-2
1558442270122319,-3,1,-1,0,4,3,5,1
1558442270122319,0,-3,0,-1,-3,-4,0,-2
1558442270130309,0,-1,3,1,5,7,1,0
1558442270130309,1,0,0,0,2,5,2,3
1558442270153954,-1,0,-1,0,0,-1,-2,-1
1558442270153954,-2,-2,-3,-2,-8,-5,-6,-2
1558442270153954,-2,-3,-4,-5,-8,-4,-2,-4
1558442270153954,-1,-3,-2,-2,-8,-8,-4,-4
1558442270168041,1,2,0,0,4,2,2,1
1558442270168041,-2,0,0,2,5,3,-2,-3
1558442270168917,0,0,1,2,0,-6,-3,-2
1558442270168917,0,2,1,-2,2,0,2,4
1558442270182107,-3,-3,-5,-2,-9,-4,-4,-11
1558442270182107,-1,-1,-3,-2,-5,-4,-2,-2
1558442270190102,-1,-1,-1,0,1,1,-2,1
1558442270190102,0,-1,5,0,1,0,3,-1
1558442270204812,-1,-1,-6,-3,-5,-10,-6,0
1558442270204812,-1,-1,-5,-3,-1,2,3,2
1558442270213031,-1,-1,-3,-1,-1,0,-2,-1
1558442270213031,-2,-2,-2,-2,-2,0,-4,-5
1558442270227787,-1,-2,-1,-2,-2,-1,-3,-6
1558442270227787,2,1,0,0,4,1,4,2
1558442270235730,-1,-1,0,-1,-4,-2,2,2
1558442270235730,-2,-1,1,-1,0,-2,2,0
1558442270241717,-1,0,0,0,0,0,-1,1
1558442270241717,-3,-4,-5,-3,-10,-7,-6,-1
1558442270249691,1,-1,0,0,-1,3,0,-1
1558442270249691,-2,-2,-2,1,2,-3,-1,-2
1558442270264687,0,-1,0,-1,2,3,-1,-2
1558442270264687,0,1,1,0,1,0,1,2
1558442270272632,-1,-1,0,-2,-2,1,-3,-2
1558442270272632,0,0,-3,-1,-3,-5,-1,1
1558442270287628,-1,-2,0,-2,-1,-3,-3,-1
1558442270287628,-1,0,-3,-1,-3,-2,-5,-2
1558442270288588,1,-2,0,-2,-3,-2,-2,-2
1558442270288588,-1,1,1,-1,2,8,3,1
1558442270301552,0,-1,-4,0,3,5,2,1
1558442270301552,0,-2,1,-1,0,0,0,-1
1558442270309953,-3,-2,-3,-2,-3,-4,-3,1
1558442270309953,0,0,-3,1,1,-5,-4,0
1558442270324663,-2,0,0,-1,-1,5,4,2
1558442270324663,1,-3,2,-2,-3,-3,0,3
1558442270333629,-1,-2,0,0,-1,-4,-1,-5
1558442270333629,1,-1,2,0,0,0,1,0
1558442270348681,-2,0,0,1,-5,-5,1,2
1558442270348681,-4,-3,-10,-3,1,4,-3,-5
1558442270348681,-1,3,0,3,5,5,0,0
1558442270348681,-2,-3,-2,-2,2,2,0,-2
1558442270362632,1,-2,2,0,2,-1,2,0
1558442270362632,-2,-3,1,1,-4,-5,0,2
1558442270369912,0,2,0,0,3,2,2,1
1558442270369912,0,1,1,0,-1,4,1,-1
1558442270384911,-1,-1,-4,-4,-10,-7,-9,-7
1558442270384911,-2,-2,-3,-4,-8,-10,-5,-7
1558442270393199,-3,-1,-2,-1,4,2,1,0
1558442270393199,0,-1,1,0,0,5,3,3
1558442270407813,-2,-1,-3,1,4,4,0,1
1558442270407813,1,-1,1,0,-1,-7,-6,-2
1558442270408809,-2,-3,-2,-2,-4,-7,-3,-2
1558442270408809,-3,-3,-4,-5,-11,-9,-8,-7
1558442270421774,0,-1,0,-2,1,4,0,-1
1558442270421774,0,2,0,0,4,10,5,1
1558442270429752,0,-2,0,-1,0,-4,-1,-1
1558442270429752,-2,-1,-2,0,4,4,0,-3
1558442270445035,-1,0,0,-2,-4,-4,-2,-1
1558442270445035,-1,1,-1,-1,1,-4,-2,-1
1558442270452692,-2,-3,3,-1,-4,-1,0,-1
1558442270452692,-1,-3,-9,-2,-3,-2,-3,-1
1558442270467988,0,-1,2,0,2,3,2,1
1558442270467988,1,-2,0,-1,0,-4,-1,-2
1558442270468651,-2,0,-4,0,-1,-5,0,0
1558442270468651,-1,0,1,0,-2,0,-2,-1
1558442270482877,-2,-2,-2,-1,-5,-2,0,0
1558442270482877,0,0,3,1,2,4,3,4
1558442270489888,-2,-2,-1,-4,3,1,-3,-8
1558442270489888,-3,-2,-1,0,2,4,3,0
1558442270504873,0,-3,-2,1,-1,-3,-2,1
1558442270504873,-1,-1,-1,-2,-3,-5,-4,-5
1558442270513582,-1,-2,-2,-2,-3,2,0,3
1558442270513582,0,-1,-1,0,2,-6,3,1
1558442270527780,-3,-1,-3,-3,-6,-6,-6,-7
1558442270527780,-1,-2,-1,-1,0,2,0,-2
1558442270535472,-1,1,-1,-1,0,-2,-2,-1
1558442270535472,-3,-1,1,-1,-3,1,-2,-1
1558442270542714,-3,-2,-2,-1,1,-3,-2,1
1558442270542714,2,1,0,1,2,2,1,3
1558442270549729,0,-1,-1,1,2,-1,-3,-3
1558442270549729,-2,-2,-2,0,-2,-2,-2,-1
1558442270564661,-2,0,0,-1,-3,-5,0,-2
1558442270564661,-1,-1,-3,-2,-4,-3,-2,-6
1558442270572402,1,-1,1,0,1,4,6,2
1558442270572402,1,-1,-1,-1,-3,-9,-5,-1
1558442270587644,-1,-2,-3,-1,-1,0,0,1
1558442270587644,-2,1,0,0,3,7,4,0
1558442270595607,0,-3,-1,-1,-4,3,-1,-1
1558442270595607,-1,0,1,0,1,-1,-2,-2
1558442270602293,0,-1,-3,-1,1,-5,1,3
1558442270602293,-3,-2,-2,-3,-3,-1,-2,0
1558442270610300,-1,0,-2,-1,-3,-9,-9,-3
1558442270610300,1,0,1,-2,2,0,2,1
1558442270624236,0,0,5,-1,-1,1,1,-4
1558442270624236,-3,-4,-7,-3,-5,0,-2,-3
1558442270632212,-2,-1,-2,-1,0,1,2,2
1558442270632212,-2,0,-4,-1,-3,-3,-4,-4
1558442270647169,-1,-1,2,0,1,-1,0,1
1558442270647169,-1,-1,4,1,2,3,4,1
1558442270655594,0,-1,-4,-2,-7,-10,-4,-3
1558442270655594,1,1,2,-1,0,2,2,0
1558442270662641,-2,0,-2,-2,-1,5,-2,-2
1558442270662641,-3,-5,-7,-3,-3,-1,-7,-4
1558442270669112,-2,-3,-2,-4,-4,-5,-1,1
1558442270669112,0,-1,-1,-1,2,0,3,0
1558442270684572,-3,0,-1,-1,1,-4,-1,0
1558442270684572,1,3,4,-1,1,-2,-1,4
1558442270693391,-1,0,1,1,3,4,-1,-3
1558442270693391,-1,-3,-2,-2,-6,-9,-6,-5
1558442270707359,1,1,-1,-2,-1,2,-1,1
1558442270707359,-1,-2,-1,-2,-4,-2,-1,-3
1558442270715987,-1,-1,0,-2,0,5,4,2
1558442270715987,1,0,-2,0,2,6,1,3
1558442270730987,-3,-4,-5,-2,-2,-2,-1,-1
1558442270730987,0,-1,1,-2,-5,-7,-5,-4
1558442270730987,-4,1,1,1,4,9,7,2
1558442270730987,0,-1,3,-1,4,6,0,-3
1558442270745219,2,0,-2,-1,3,-7,-3,1
1558442270745219,1,0,-2,1,5,5,2,1
1558442270751894,0,-2,-1,-3,-10,-10,-2,-3
1558442270751894,-4,-1,-2,-3,-11,1,-3,-3
1558442270767087,-2,1,-4,-2,-3,2,0,-2
1558442270767087,0,0,4,1,7,1,2,1
1558442270775977,3,0,0,3,7,5,0,1
1558442270775977,-2,-3,1,-1,-4,-5,-2,2
1558442270790995,-3,-4,-2,-3,-9,-9,-7,-3
1558442270790995,-2,-1,-2,-5,-12,-12,-5,-4
1558442270790995,-2,-1,-3,0,1,10,6,-1
1558442270790995,0,1,1,3,11,3,1,1
1558442270804755,-2,0,3,1,2,2,0,-1
1558442270804755,-1,-3,-2,-3,-4,0,-3,-1
1558442270811733,1,0,2,-1,-2,-4,-4,-2
1558442270811733,-3,-2,-3,-4,-9,-10,-5,-3
1558442270826694,-1,0,-2,-1,4,-1,0,2
1558442270826694,0,-1,3,3,9,8,3,2
1558442270835667,-2,-1,-5,-4,-7,-8,-5,-4
1558442270835667,0,0,2,0,6,8,2,0
1558442270850626,3,0,0,-2,-3,-3,3,3
1558442270850626,-3,-2,-3,-2,-2,-2,-6,-10
1558442270851624,-4,-4,-4,-1,0,1,-2,0
1558442270851624,-1,-1,-2,-1,2,6,0,1
1558442270864630,0,-1,1,-2,-3,-3,-3,-3
1558442270864630,1,1,-1,-2,-1,-4,-2,-2
1558442270871569,0,-2,0,0,0,4,4,3
1558442270871569,-1,-2,-6,-4,-11,-12,-4,0
1558442270887877,-2,-1,2,0,0,2,-2,-4
1558442270887877,-1,1,-2,3,-1,1,3,4
1558442270895874,-2,-2,0,-3,-2,-3,-4,-1
1558442270895874,1,-2,-2,-1,-4,-4,-3,0
1558442270910849,1,0,-1,1,8,9,6,0
1558442270910849,-1,-3,-4,-1,4,-1,-3,-2
1558442270910849,1,0,0,0,-2,-7,0,0
1558442270910849,-2,-1,0,-3,-4,-5,1,-1
1558442270924430,-3,-2,-2,-3,-8,-6,-4,-6
1558442270924430,-1,-1,-1,-2,-2,-1,1,1
1558442270932781,0,-2,1,1,2,-1,-2,-2
1558442270932781,2,0,0,1,2,5,2,2
1558442270956755,-1,-3,-4,-3,-5,-4,-2,1
1558442270956755,-2,0,-3,-1,1,0,-2,-7
1558442270956755,-1,-1,-1,-1,-1,-1,-4,-2
1558442270956755,-2,1,-1,-1,-1,-8,-4,2
1558442270970683,2,-1,2,0,-1,3,1,-2
1558442270970683,0,1,3,2,1,2,3,1
1558442270971305,-2,-4,-7,-5,-7,-4,-4,-1
1558442270971305,-2,-4,-5,-2,-1,0,-1,-4
1558442270984641,-2,-3,-3,2,6,-1,2,1
1558442270984641,0,-1,0,0,-2,0,-1,2
1558442270992333,1,-2,2,0,-3,-2,-3,-5
1558442270992333,0,-1,-1,0,-3,-11,0,-2
1558442271007447,-2,0,-1,-3,-1,1,-3,-1
1558442271007447,0,-2,-3,-2,-1,-2,-2,-1
1558442271015440,1,2,0,0,1,-5,1,1
1558442271015440,-1,-2,-4,-1,3,10,-4,-4
1558442271030410,-1,-2,0,2,-3,0,2,1
1558442271030410,-3,0,-1,-3,-5,-11,-2,0
1558442271031149,1,-1,0,-2,-4,6,-1,-1
1558442271031149,-1,-2,1,0,1,-2,-3,-3
1558442271044108,0,-1,-3,-2,1,0,-2,0
1558442271044108,-3,-1,-2,-1,0,3,0,2
1558442271052087,-1,2,1,1,-2,-7,-1,-1
1558442271052087,-1,0,1,-1,0,3,2,-1
1558442271067047,1,-1,-2,-1,-3,-1,-3,-1
1558442271067047,-1,-1,-2,0,-3,-8,-2,-2
1558442271075027,-1,0,1,1,3,2,0,2
1558442271075027,0,-1,2,-1,-2,4,0,3
1558442271090375,-3,-1,2,-1,-3,-1,-1,-6
1558442271090375,-2,0,-1,-4,-3,-2,-4,2
1558442271090985,0,-2,-2,1,5,3,1,-1
1558442271090985,-2,-2,-2,-3,-8,-7,-3,-2
1558442271105396,-1,-1,-3,-2,-1,-5,-3,0
1558442271105396,1,1,1,0,0,5,3,1
1558442271112344,-2,-2,-3,0,3,1,0,0
1558442271112344,0,-2,-2,-1,-3,-4,-3,-3
1558442271127330,1,0,3,-1,0,0,2,0
1558442271127330,-2,-2,-1,-1,-1,2,-2,-2
1558442271134866,-1,-1,-4,-2,-6,-8,-2,1
1558442271134866,-1,0,-1,0,1,-1,1,0
1558442271150655,-3,1,-2,0,2,7,1,0
1558442271150655,1,-2,-1,0,0,0,1,1
1558442271151336,1,-1,2,-1,2,-4,-3,0
1558442271151336,0,0,0,-1,-1,1,3,0
1558442271164946,-2,-1,-3,-1,-6,-5,-7,-4
1558442271164946,-4,-3,-3,-2,-4,-3,-3,-4
1558442271172677,-1,0,1,-1,8,9,3,3
1558442271172677,-3,0,0,0,-4,-3,-3,-1
1558442271188617,0,-3,-3,-1,-2,-1,-1,-2
1558442271188617,2,-2,-1,-1,0,0,0,-2
1558442271195785,-2,0,0,-3,-7,-6,-1,-2
1558442271195785,0,0,-2,0,2,2,-1,0
1558442271210559,1,-3,-1,-3,-3,-2,-2,0
1558442271210559,-1,-1,-2,-3,-6,-7,-6,-2
1558442271210559,-3,-2,-3,-3,-2,-3,-1,-2
1558442271210559,0,0,0,2,5,10,8,2
1558442271224751,0,1,0,0,1,1,-1,0
1558442271224751,-1,-1,0,-1,-2,2,3,0
1558442271232723,-4,-1,-3,-2,-1,-2,-5,-3
1558442271232723,-1,-1,-1,0,-1,-2,-1,-4
1558442271247660,1,-2,-1,0,4,1,2,1
1558442271247660,0,-1,0,0,5,2,2,-1
1558442271255435,-2,-2,-2,-3,-8,-7,-5,-2
1558442271255435,-4,-3,-3,-2,-4,-1,-6,-3
1558442271270395,-2,-1,-2,0,-5,-5,-3,1
1558442271270395,-1,0,0,-1,3,-2,2,0
1558442271270395,1,-1,-1,1,1,6,5,-1
1558442271270395,-1,0,-1,-2,-2,-5,0,0
1558442271284715,0,1,4,-1,-6,-11,-2,2
1558442271284715,-2,-3,-7,0,-3,2,-3,-3
1558442271292094,-1,0,-2,1,3,6,2,-2
1558442271292094,-1,-1,-1,-3,-1,-1,-3,-3
1558442271306934,-1,-3,-1,-2,-10,-10,-7,-6
1558442271306934,0,0,1,-1,-3,-4,0,-2
1558442271314920,0,-2,-5,0,2,-1,-2,1
1558442271314920,-1,0,-2,0,-2,-1,-1,1
1558442271329875,-4,-1,-3,-2,4,4,2,-3
1558442271329875,1,1,4,3,6,11,5,5
1558442271330834,0,-2,2,1,1,-2,-3,-3
1558442271330834,1,-3,-1,-2,-5,-5,-4,-1
1558442271344797,0,-4,-5,-4,-6,-7,-6,-4
1558442271344797,-2,-3,-4,-3,-11,-9,-2,-2
1558442271351782,3,1,2,3,11,7,7,5
1558442271351782,0,-2,-1,0,10,3,2,2
1558442271367803,1,1,1,0,2,5,6,2
1558442271367803,-2,-4,-3,-3,-8,-2,-6,-7
1558442271375952,-5,0,0,-4,-10,-7,-3,-2
1558442271375952,-1,-2,1,-1,-2,-12,-2,1
1558442271390029,-1,0,-4,-1,0,4,-2,-2
1558442271390029,-2,0,-1,-3,-7,-8,-6,1
1558442271391745,0,0,-2,-1,2,-1,-2,-2
1558442271391745,0,1,1,1,5,8,4,-1
1558442271404983,-1,-2,-1,-1,0,0,0,2
1558442271404983,-2,-4,-3,0,-1,-6,-1,-1
1558442271412869,-4,-5,-6,-4,-10,-2,-5,-4
1558442271412869,0,1,2,-3,0,3,0,0
1558442271427937,1,1,-3,1,2,0,3,-1
1558442271427937,2,2,-3,1,6,2,-1,1
1558442271435558,0,-1,2,0,1,2,-1,1
1558442271435558,0,-3,-2,-2,-6,-6,-3,-1
1558442271449862,-2,-1,1,0,0,-3,-2,-3
1558442271449862,0,0,0,-2,-2,-3,4,1
1558442271457497,-4,0,0,-2,-6,-6,-3,-3
1558442271457497,-1,-2,-5,0,-4,0,-2,-5
1558442271464834,1,-1,2,1,3,2,0,4
1558442271464834,-2,-1,-3,-2,-3,-2,-2,1
1558442271480905,-3,1,1,1,-2,6,-1,-8
1558442271480905,0,0,0,-2,-4,-6,-2,-3
1558442271487451,-1,1,-2,1,7,1,1,1
1558442271487451,-1,-1,2,2,7,8,4,1
1558442271495832,0,-3,1,2,-4,-11,-3,4
1558442271495832,-4,-4,-3,-3,-8,-4,-6,-8
1558442271510558,-1,-1,-1,-3,-4,0,-4,-2
1558442271510558,-2,-2,-2,0,2,4,1,-1
1558442271517806,0,-1,2,-1,0,2,4,2
1558442271517806,-2,-1,-9,-1,2,-5,-2,-2
1558442271524320,-1,1,4,-1,-4,-4,-1,-2
1558442271524320,0,-2,-5,1,2,5,2,-1
1558442271532758,-1,-3,0,-3,-5,-5,-5,-2
1558442271532758,-2,2,6,1,-4,-5,0,1
1558442271547758,-2,-4,-6,-1,2,-1,-1,-2
1558442271547758,0,0,-1,-1,0,4,-1,-2
1558442271555550,0,-2,-3,-1,-2,-4,-4,-4
1558442271555550,1,0,-2,-1,0,4,4,3
1558442271570278,0,1,1,0,4,-5,-3,-1
1558442271570278,1,0,4,-1,0,-1,-3,0
1558442271578207,0,-1,-3,-1,2,0,-1,0
1558442271578207,-1,-1,-1,-1,0,7,2,2
1558442271584427,0,0,2,-3,-8,-9,0,0
1558442271584427,-4,-2,-2,-2,-3,-9,1,-1
1558442271592407,-2,0,1,0,1,2,-5,-6
1558442271592407,-3,-3,-6,-3,1,4,-3,-4
1558442271607100,0,-2,0,2,5,5,3,1
1558442271607100,1,0,-2,-1,0,-1,-1,-1
1558442271615346,0,1,1,0,-5,-4,-1,-2
1558442271615346,2,-1,1,2,3,5,1,2
1558442271630299,-1,-2,-3,-2,-3,2,-1,-3
1558442271630299,1,-1,2,-3,-4,-9,-2,0
1558442271638283,1,-2,-4,-3,-1,0,2,1
1558442271638283,0,-2,-2,-4,-3,-7,-7,-4
1558442271652975,-1,-1,0,0,5,7,5,0
1558442271652975,1,-2,-2,1,2,-2,-4,-2
1558442271653972,-2,-2,-4,-1,-3,-1,2,1
1558442271653972,-2,-2,3,-1,-5,-12,-4,-4
1558442271667935,-3,-5,-7,-3,-1,3,3,1
1558442271667935,-2,-1,1,-1,1,2,1,-2
1558442271675079,-1,1,2,0,2,4,0,-3
1558442271675079,0,2,-1,3,8,8,8,5
1558442271690360,-1,-3,-2,-2,-7,-11,-6,-3
1558442271690360,-2,-1,0,-3,-8,-5,-4,-2
1558442271698306,0,0,1,1,-2,-2,-2,-1
1558442271698306,-2,-1,-3,-1,0,3,-1,-2
1558442271713148,-1,0,-6,-2,-1,0,-2,-1
1558442271713148,-1,-2,0,-2,-4,-7,-3,0
1558442271714080,0,-2,-1,-1,1,-3,-2,0
1558442271714080,-1,0,1,-1,-2,-2,-2,2
1558442271727774,-3,-1,-3,0,-4,-4,-6,-13
1558442271727774,-1,-1,2,-1,0,0,0,-1
1558442271735753,-2,-3,-4,-3,-3,-7,-4,0
1558442271735753,0,-3,-4,-3,-3,-1,-2,-1
1558442271750049,1,0,-1,0,1,5,1,2
1558442271750049,-2,-1,2,0,3,1,-2,-4
1558442271757807,-1,-2,-1,-1,1,4,3,1
1558442271757807,-1,0,0,2,5,3,2,-2
1558442271772974,-1,1,4,-1,-5,-4,-3,2
1558442271772974,-3,-3,-6,-2,-2,0,1,-1
1558442271773654,-1,0,0,-1,2,2,-2,5
1558442271773654,0,1,2,1,-3,-6,-3,-2
1558442271787923,-1,0,1,-2,-4,0,1,1
1558442271787923,0,-1,4,-1,-1,2,-2,-3
1558442271796595,-3,-3,-14,-6,-6,-8,-2,-4
1558442271796595,0,-1,-1,-2,-1,-4,1,-1
1558442271809884,-1,1,2,1,2,-3,-2,2
1558442271809884,-1,-1,-5,-1,2,4,1,-1
1558442271817877,0,0,4,1,-5,2,0,-1
1558442271817877,1,2,4,1,9,5,2,0
1558442271833492,-1,-3,-2,-1,-5,1,-2,-4
1558442271833492,-1,-2,-1,-2,0,2,2,3
1558442271833492,0,-1,-1,0,-7,-5,-5,-1
1558442271833492,1,-4,-3,-2,1,-5,-3,-3
1558442271847686,-2,-1,1,-1,0,-6,1,1
1558442271847686,0,1,-3,1,0,0,-4,-6
1558442271855434,-2,-1,0,-1,0,0,2,-3
1558442271855434,-2,0,-1,-4,-7,0,-4,-1
1558442271869396,-3,-3,-2,-1,0,1,-6,-3
1558442271869396,-2,-3,-4,-3,-5,-10,-3,-1
1558442271877375,2,0,1,2,10,9,8,3
1558442271877375,-2,-2,2,0,-4,0,-1,-5
1558442271901463,-2,-5,-3,-1,-2,-6,0,3
1558442271901463,1,1,2,1,0,-2,-4,-3
1558442271901463,-2,-1,-3,0,-1,0,-3,-1
1558442271901463,0,-1,-1,-1,0,0,-1,1
1558442271907627,-1,-3,-5,-2,-5,0,-3,-4
1558442271907627,-1,-2,0,-1,-3,-9,-2,0
1558442271915601,0,-1,1,0,4,4,3,0
1558442271915601,0,-2,-2,0,-2,-2,-1,-1
1558442271929263,-2,1,0,0,2,2,2,0
1558442271929263,-3,0,1,-1,1,1,3,1
1558442271938394,-1,-1,-5,-1,-7,-9,-7,-3
1558442271938394,-2,0,2,0,1,0,2,2
1558442271953469,1,-2,-2,-1,1,2,0,0
1558442271953469,0,-2,-3,0,-4,2,0,1
1558442271953469,0,2,5,-1,3,2,0,0
1558442271953469,-2,-4,-8,-3,-6,-8,-5,-1
1558442271967614,1,2,2,2,3,1,-1,1
1558442271967614,-1,0,-1,-2,-3,0,-2,-3
1558442271975590,-1,0,-1,-3,-4,-4,-1,-1
1558442271975590,0,-2,1,-2,-5,-2,-3,-4
1558442271990324,0,1,4,2,-2,0,5,0
1558442271990324,-1,0,-5,-1,4,-2,-2,-1
1558442271998470,3,0,2,1,9,10,7,3
1558442271998470,0,0,-1,-1,-1,3,4,0
1558442272013422,-2,-1,-4,-3,-3,-6,-8,-5
1558442272013422,-2,-1,-1,-1,-2,-4,-3,-1
1558442272013422,-2,-2,0,0,-5,-4,-3,0
1558442272013422,0,-1,0,0,1,4,1,-2
1558442272027424,-2,-2,-2,-3,-2,6,2,-2
1558442272027424,1,-2,0,-1,-4,-4,-2,0
1558442272035103,-1,-1,-6,-1,1,0,-2,-1
1558442272035103,-1,-2,0,0,1,1,0,2
1558442272050270,1,-2,4,2,-2,-1,1,2
1558442272050270,1,0,-4,-1,4,2,-1,1
1558442272058042,1,-2,-1,-4,-10,-16,-7,-6
1558442272058042,-2,-2,-3,-3,-7,-5,-4,-4
1558442272073001,2,2,-2,-1,6,8,6,0
1558442272073001,-1,-2,0,-2,-4,1,0,-1
1558442272073998,-1,0,0,-1,1,-1,-1,3
1558442272073998,-2,1,0,0,2,-3,-4,-3
1558442272086966,-2,0,-1,-1,-1,0,0,2
1558442272086966,2,1,2,1,2,5,4,4
1558442272096132,-2,-2,0,-2,-8,-4,-6,-10
1558442272096132,-2,-1,-4,-3,-7,-6,-3,-3
1558442272110068,-1,-2,1,-3,5,-3,-2,0
1558442272110068,-1,0,1,-1,-3,-2,1,-1
1558442272117882,0,-3,-2,-2,-1,1,2,1
1558442272117882,0,-2,1,0,3,1,-2,2
1558442272133303,0,0,-2,-1,2,0,3,3
1558442272133303,-2,0,2,0,1,2,1,-3
1558442272133839,-2,-3,-3,-3,-8,-6,-3,-4
1558442272133839,0,-1,-1,-1,-3,-1,0,-1
1558442272147258,1,-2,-1,0,-1,-5,-4,4
1558442272147258,-3,-1,0,1,4,-1,2,-2
1558442272156064,-4,0,1,1,1,1,-1,1
1558442272156064,-1,-3,-5,-4,-4,-2,0,-2
1558442272170047,-1,-2,1,-1,-3,0,-4,-1
1558442272170047,0,-3,-4,-1,-4,-4,-3,-2
1558442272178019,-1,-1,-1,-1,-1,-3,-1,-3
1558442272178019,-2,0,1,0,0,3,1,1
1558442272192929,0,0,-1,-2,-1,-8,-3,-3
1558442272192929,-2,-1,-2,-2,-4,0,-4,0
1558442272193680,-3,-1,-2,0,6,8,4,0
1558442272193680,1,0,2,1,1,2,-3,-3
1558442272206927,-2,-3,-4,-1,-3,-2,4,1
1558442272206927,-2,-2,3,0,-2,-2,-4,-8
1558442272215893,-4,-4,-7,-3,-7,-9,-5,-2
1558442272215893,-1,-3,0,0,6,5,6,2
1558442272229854,-3,1,-1,-2,-6,-1,-6,-3
1558442272229854,-1,-2,-2,-2,-3,-9,-8,-1
1558442272237815,0,1,2,-1,3,7,5,7
1558442272237815,-1,0,0,1,1,0,-1,-1
1558442272252522,-3,-2,-3,-1,-2,0,0,-3
1558442272252522,-2,-3,2,-2,-3,-1,-2,-2
1558442272253520,-1,-1,-3,-3,-9,-10,-9,-4
1558442272253520,2,-2,-2,-2,-2,4,0,2
1558442272267695,1,-1,1,1,12,11,8,1
1558442272267695,0,-1,-1,0,2,-1,-1,2
1558442272275527,-2,-1,-1,-2,-4,-3,-4,0
1558442272275527,-1,2,1,-1,-5,-8,-3,-6
1558442272289424,1,1,1,1,3,-6,0,-1
1558442272289424,-1,-1,-2,-1,3,4,5,1
1558442272297402,-4,-2,-2,-2,2,3,0,-3
1558442272297402,0,1,-1,-1,-5,-8,-1,2
1558442272312420,-2,-2,0,-2,-3,1,-3,-1
1558442272312420,1,3,-3,-1,3,-2,-1,1
1558442272313358,1,1,2,1,2,3,3,0
1558442272313358,-3,-3,-4,-2,-5,-3,-5,-3
1558442272327766,0,-2,1,-4,-10,-5,-6,-5
1558442272327766,-2,-5,-8,-1,-2,-3,1,-1
1558442272335304,2,0,5,1,3,2,6,11
1558442272335304,0,1,-3,1,7,8,4,-3
1558442272349735,-2,2,0,2,-2,-3,-2,-2
1558442272349735,0,-1,-1,-2,-7,-2,-4,-3
1558442272357703,0,0,-1,-1,1,-5,-6,-4
1558442272357703,-2,-1,3,-1,-1,-7,-1,1
1558442272372201,-2,-3,-1,1,4,9,1,0
1558442272372201,-2,0,-1,-2,-2,1,0,1
1558442272373198,-1,-3,-3,0,0,3,3,-2
1558442272373198,1,-1,1,-1,-2,0,-3,1
1558442272387196,-3,-3,-3,-4,-2,-3,-7,-6
1558442272387196,-2,-2,-2,-2,-3,-4,1,-1
1558442272395139,2,-1,0,-2,-4,-12,-6,-3
1558442272395139,-4,-1,-4,-3,0,-2,0,-1
1558442272409102,-2,0,2,0,1,2,2,1
1558442272409102,-1,-4,-5,-1,1,5,0,-2
1558442272418078,-1,-3,-3,-1,-4,-2,2,-1
1558442272418078,1,-1,0,0,0,-1,-1,-1
1558442272432505,1,-2,-1,0,0,-6,-4,0
1558442272432505,0,-1,5,2,4,7,2,1
1558442272440470,-4,0,-3,-2,-4,-7,-6,-6
1558442272440470,-1,-3,-2,-1,-5,-7,-3,0
1558442272447981,-1,-1,-1,-3,-2,0,0,0
1558442272447981,-1,0,-3,-1,2,6,1,-4
1558442272455939,0,-1,-4,0,1,4,0,-1
1558442272455939,-1,-1,4,-2,0,-3,1,3
1558442272469484,0,0,-2,0,-1,5,0,0
1558442272469484,1,0,1,0,2,-8,-1,1
1558442272477463,0,1,-1,-2,-1,-5,-1,-1
1558442272477463,-3,-2,-2,-1,-1,0,-3,0
1558442272492386,-1,-2,0,-2,-3,-2,1,-1
1558442272492386,0,1,1,-1,-4,2,-2,-5
1558442272500366,-1,-1,-2,0,2,2,1,-2
1558442272500366,-2,-1,-2,-2,-3,-1,-2,0
1558442272507346,-1,0,-4,-2,-5,-5,-2,-1
1558442272507346,-2,1,-2,-4,0,3,-3,0
1558442272515500,1,-2,4,1,2,0,4,4
1558442272515500,-1,1,-4,0,2,-3,-1,-1
1558442272530284,-2,-3,-3,-1,-5,-5,-3,-3
1558442272530284,0,0,-2,-3,-5,-8,-4,0
1558442272538466,-2,0,-1,-1,3,3,-3,-3
1558442272538466,-3,0,1,0,1,6,1,1
1558442272552228,-1,0,-1,1,0,0,2,0
1558442272552228,0,-2,-1,-1,-1,-7,-4,-3
1558442272560542,-2,-2,-1,-1,-4,0,-1,2
1558442272560542,-1,-1,0,-2,-1,2,1,-3
1558442272567529,0,0,-3,-3,0,0,2,-1
1558442272567529,-1,-1,0,-1,0,1,1,-1
1558442272574292,1,-1,0,-1,-1,-6,-1,-2
1558442272574292,-1,-2,-4,-1,0,-2,0,-1
1558442272590289,-2,-1,-3,-3,-8,-2,-2,-5
1558442272590289,-1,-1,0,0,0,0,3,4
1558442272598364,-2,0,-4,-1,1,1,0,1
1558442272598364,-2,-2,0,-2,-3,-2,-9,-11
1558442272612315,-3,-3,-4,0,0,-2,-1,-5
1558442272612315,-1,-1,2,-2,1,-3,2,4
1558442272620299,-1,-2,0,-1,-2,2,-1,-4
1558442272620299,1,-1,-1,-1,-1,-4,-1,2
1558442272635005,0,1,1,-1,3,3,-2,1
1558442272635005,-3,1,-2,0,-6,-5,-2,-3
1558442272636002,-4,-3,-1,-2,1,0,-1,0
1558442272636002,-1,-3,-2,-2,-2,2,1,1
1558442272659187,1,-2,0,-4,-5,-9,-4,-1
1558442272659187,-2,-2,-2,-2,-4,5,-1,-1
1558442272659187,2,0,3,1,1,-2,-1,-2
1558442272659187,-1,0,0,1,4,9,2,-3
1558442272672177,-3,-1,-1,0,0,-6,2,1
1558442272672177,-1,0,1,0,5,-1,3,3
1558442272680962,-1,-1,-3,-3,-7,-5,-3,-1
1558442272680962,0,-1,1,-2,-4,-4,-2,2
1558442272694844,-1,0,0,-2,-2,0,-6,-1
1558442272694844,-2,-1,-2,-3,-3,-2,-1,-1
1558442272695841,-1,0,-2,-1,-1,2,0,-2
1558442272695841,-1,0,-2,-2,-4,-6,-4,-1
1558442272710169,-3,-2,0,-1,1,-4,-3,-2
1558442272710169,0,-2,-2,0,1,4,1,-1
1558442272717831,1,-1,0,1,3,4,4,3
1558442272717831,-1,0,3,-1,0,0,1,0
1558442272740726,0,0,0,0,2,7,4,2
1558442272740726,-2,-3,-8,-1,3,-3,-4,-4
1558442272741720,-3,-3,0,-3,-4,-3,-4,-2
1558442272741720,-2,0,-2,-2,-4,0,0,-1
1558442272764004,-1,1,1,1,-2,-1,1,1
1558442272764004,-1,-2,0,-1,-5,-4,2,1
1558442272764658,0,0,1,2,6,2,-3,-2
1558442272764658,-2,-1,-4,-1,-2,-4,-4,-3
1558442272771002,-1,-2,-2,-3,-3,0,-3,-3
1558442272771002,-2,-3,0,-3,-8,-2,-3,-3
1558442272777809,0,-1,-2,-1,2,0,3,1
1558442272777809,-1,-2,-2,-1,0,-3,-1,-1
1558442272791584,0,-2,-3,0,-5,-2,-6,-3
1558442272791584,-1,-1,-2,1,4,5,5,2
1558442272800595,-1,0,-1,1,4,-5,3,3
1558442272800595,-1,-1,-1,-1,-5,-11,-7,-1
1558442272815520,-1,1,2,-3,-6,-4,0,-4
1558442272815520,-2,-2,-7,-1,0,7,-2,-2
1558442272815520,2,3,2,1,7,6,2,0
1558442272815520,0,2,-2,2,7,10,9,0
1558442272829482,-1,-2,-2,-3,1,-4,-6,0
1558442272829482,0,-1,2,-2,-9,-5,-7,-5
1558442272837461,0,-2,-2,-2,-7,-6,-2,-2
1558442272837461,-1,-3,1,0,-2,-1,2,0
1558442272852423,-2,-4,-3,-2,-6,-2,1,1
1558442272852423,-1,0,3,-1,0,-5,-4,-1
1558442272860403,-2,-1,-4,-4,0,3,-2,-2
1558442272860403,0,1,-1,-2,2,2,0,-1
1558442272883692,1,1,0,3,4,4,3,-1
1558442272883692,-1,-1,-3,-3,-4,-9,-4,-2
1558442272884337,-1,-3,-2,-2,-7,0,0,-1
1558442272884337,-1,-2,-1,0,0,-3,3,0
1558442272889676,0,-1,-1,0,1,-1,-1,-1
1558442272889676,1,-2,-2,1,-4,-1,-2,2
1558442272897316,-1,-1,-1,-3,-4,-4,-7,-6
1558442272897316,1,-1,1,0,2,6,1,5
1558442272912263,-1,4,5,4,16,8,5,3
1558442272912263,0,-2,-3,-1,3,-2,-1,-2
1558442272920241,-1,-2,-2,-2,-10,-6,-3,1
1558442272920241,-3,-3,-3,-4,-8,-10,-2,-5
1558442272935202,-1,-2,-1,-1,-1,1,-1,-1
1558442272935202,1,1,2,1,4,2,-1,0
1558442272936199,-1,-2,1,1,3,8,2,1
1558442272936199,-4,0,-6,-6,-7,-7,-4,-3
1558442272949197,-1,0,-2,-3,-5,-6,-2,1
1558442272949197,-1,-1,-2,-2,3,4,4,-3
1558442272958321,-1,-1,-1,0,2,0,-1,-2
1558442272958321,-2,-2,-1,-1,-7,-8,-4,-2
1558442272972388,-1,-1,-2,-1,-1,3,4,0
1558442272972388,-1,-1,-1,-1,-1,3,-3,-1
1558442272980082,0,1,0,-2,-1,2,-1,0
1558442272980082,-1,-1,0,0,1,0,-1,-3
1558442272995040,-1,-1,0,-1,-4,-4,0,3
1558442272995040,-1,-1,1,0,-1,-1,2,4
1558442272996038,-2,-1,-4,0,3,-2,-2,-3
1558442272996038,0,-1,2,1,2,4,1,-3
1558442273009003,0,0,-3,-3,-1,-1,1,2
1558442273009003,-1,-3,0,0,-4,-7,-4,-8
1558442273017979,-1,-3,-2,-2,-4,-4,-3,-2
1558442273017979,-2,-3,-4,-3,0,-1,-6,-1
1558442273031943,-1,-1,-1,-1,-2,5,0,-4
1558442273031943,0,0,0,-1,-2,-6,-1,1
1558442273039921,0,2,-1,-1,3,0,6,3
1558442273039921,-2,1,1,1,-1,-1,-1,-1
1558442273055107,-3,-3,-4,-3,2,1,-5,-2
1558442273055107,-2,0,0,-3,-4,-1,0,-1
1558442273055877,0,-3,-2,-2,-6,-6,-3,-1
1558442273055877,0,1,2,2,3,7,6,1
1558442273069841,-3,0,-1,0,-4,-3,-2,-2
1558442273069841,-2,0,0,-3,3,2,-2,-1
1558442273077820,-2,1,2,0,0,-2,-2,0
1558442273077820,-1,-2,-2,-2,-4,-6,-4,3
1558442273092077,-3,-2,-5,-1,-6,-6,-3,-3
1558442273092077,-1,-2,1,0,3,1,-1,-1
1558442273100769,-1,-3,-2,-1,-2,6,0,-5
1558442273100769,3,-1,-1,-2,0,-2,0,0
1558442273116114,2,-1,-2,0,-2,-7,-1,1
1558442273116114,-2,1,1,0,1,6,4,0
1558442273116114,-1,1,0,0,-3,-1,-1,-1
1558442273116114,-2,-1,1,-1,2,4,2,0
1558442273129681,2,-1,2,-1,0,-6,0,1
1558442273129681,-2,-2,-1,-4,-2,-6,-3,-2
1558442273137660,-2,-5,-7,-4,-2,-3,-4,-2
1558442273137660,-2,-2,-4,-4,-4,-3,-1,1
1558442273151621,-1,0,0,1,5,11,2,-3
1558442273151621,0,-1,-2,0,6,2,-2,2
1558442273160602,-1,-1,2,3,-3,1,0,-2
1558442273160602,-1,-2,0,-1,-3,-4,-1,1
1558442273175558,-2,-2,-2,-2,-3,-4,-4,0
1558442273175558,1,-2,-2,-1,-3,3,1,-1
1558442273175558,0,2,-1,-1,2,-1,-2,0
1558442273175558,1,0,-1,-1,2,-2,-1,-1
1558442273189521,-2,-1,-1,-1,-1,5,1,-1
1558442273189521,-1,1,-3,-2,-4,-6,-1,1
1558442273197502,-3,-2,-1,-3,-6,-4,-1,-1
1558442273197502,-2,-2,-1,-2,-6,-3,-3,-4
1558442273212644,-1,0,4,1,1,2,-4,-2
1558442273212644,-2,-3,-6,0,5,1,0,2
1558442273220437,-2,-2,-2,0,3,-3,0,-1
1558442273220437,-2,-1,-2,0,-2,-3,-5,-2
1558442273235399,1,-1,1,-3,-2,3,1,-1
1558442273235399,0,-2,-2,1,-1,-2,2,-2
1558442273235399,2,0,3,0,-2,-5,-1,1
1558442273235399,1,-2,-4,-1,0,3,-2,-3
1558442273249361,-1,1,-3,-2,0,-5,-3,-4
1558442273249361,-3,-1,-1,-1,-4,-2,-4,-4
1558442273258338,-1,-1,-3,-1,-3,1,-2,0
1558442273258338,-1,0,0,-1,4,3,3,1
1558442273272590,0,-1,-2,-1,-5,-9,-3,3
1558442273272590,-3,0,1,0,0,3,-3,-6
1558442273280278,0,0,-1,-2,2,2,3,0
1558442273280278,-1,-2,0,1,1,0,0,0
1558442273295238,1,-1,-1,-1,3,-2,1,2
1558442273295238,0,-1,-3,-3,-3,-6,0,1
1558442273296235,-2,-2,-3,0,4,7,1,-1
1558442273296235,-1,0,-1,-1,-5,0,-4,0
1558442273309200,-1,-1,3,0,-1,1,2,-2
1558442273309200,-2,-4,-5,-4,-4,-4,-6,-3
1558442273318176,1,-1,1,-3,-2,-4,-2,-3
1558442273318176,-2,-3,-4,-3,-3,0,3,-2
1558442273332140,-2,-2,1,1,-1,-3,-2,0
1558442273332140,3,0,0,0,1,3,0,0
1558442273341116,-1,0,-2,-2,1,4,-1,-1
1558442273341116,0,1,0,0,-6,-17,-5,-3
1558442273354080,-2,0,-2,1,9,7,5,0
1558442273354080,1,-1,-1,-1,-2,-1,-2,1
1558442273363058,-1,-3,-1,-1,0,-3,-2,-2
1558442273363058,0,-3,2,-2,-3,-2,-4,-2
1558442273369042,-1,-3,-6,-5,-8,-5,-4,-2
1558442273369042,1,0,2,1,1,0,2,2
1558442273378019,-3,0,-4,0,-2,-2,-4,0
1558442273378019,-2,2,-1,2,5,7,4,0
1558442273391980,-1,-2,0,0,2,4,1,-1
1558442273391980,-1,1,-4,-1,-1,2,2,-1
1558442273400954,-1,-2,3,-2,-5,-8,-1,-1
1558442273400954,0,-4,-4,0,1,2,-2,-6
1558442273414917,-2,0,0,-4,-5,-9,-6,-5
1558442273414917,-2,-1,0,0,-1,-1,0,1
1558442273422896,2,3,4,2,3,8,3,3
1558442273422896,1,0,1,0,-1,0,-1,0
1558442273429876,-2,-2,-5,-4,-5,-3,-3,-4
1558442273429876,-3,-1,-2,-4,-5,-9,-7,-3
1558442273437856,0,0,0,0,-1,-5,1,-1
1558442273437856,-2,0,3,0,2,5,2,0
1558442273451819,-4,-3,0,0,-4,0,-4,-4
1558442273451819,-1,-2,-3,-3,-5,-4,-5,-2
1558442273460795,-3,-2,-5,-2,1,1,-1,-1
1558442273460795,-4,-3,-2,-2,0,3,2,-3
1558442273474760,4,2,5,3,5,3,2,6
1558442273474760,0,-5,-5,-1,4,6,0,-3
1558442273483734,0,-3,1,0,-2,1,-2,-3
1558442273483734,-2,-2,-6,-4,-2,-8,-5,-3
1558442273489719,-4,-2,-3,-4,-7,0,1,-2
1558442273489719,0,3,3,0,-3,-5,-2,0
1558442273498694,0,-2,-3,1,-1,-6,-6,0
1558442273498694,-1,1,1,0,0,3,1,1
1558442273512656,-1,0,-3,0,-2,1,0,-4
1558442273512656,0,-2,0,-1,1,2,7,9
1558442273520635,-5,-2,-3,-1,0,1,-3,-6
1558442273520635,-1,-2,0,-3,-4,-2,-2,-2
1558442273534598,-1,-2,-2,-2,-3,-12,-5,-4
1558442273534598,1,1,3,1,2,-2,-1,-1
1558442273543574,0,-1,-3,-4,-2,1,0,-1
1558442273543574,3,-1,2,1,8,8,8,5
1558442273558537,0,-1,-2,1,0,1,2,-1
1558442273558537,-2,-2,-2,0,2,3,-1,-5
1558442273559534,1,-1,-1,0,-2,-3,-2,5
1558442273559534,2,2,2,-1,0,-8,-9,-4
1558442273571500,-3,-5,-6,-3,-2,2,1,-2
1558442273571500,-1,0,1,0,-1,0,1,-1
1558442273580480,-3,0,-3,-1,-6,-1,-2,-4
1558442273580480,-3,-3,-3,-2,-4,-4,-2,-1
1558442273594440,-2,1,-1,-2,0,-1,-2,0
1558442273594440,-1,0,0,-1,-2,0,-1,-3
1558442273603416,1,-2,-2,-4,-5,-6,-3,-2
1558442273603416,0,-2,-6,0,-2,-4,-3,-2
1558442273618374,-1,0,0,0,2,4,-1,-1
1558442273618374,-1,-1,-3,-1,-6,-12,-2,0
1558442273619374,2,4,3,1,7,-5,0,2
1558442273619374,0,0,3,1,6,10,6,2
1558442273632338,3,0,-2,2,4,11,2,1
1558442273632338,0,1,-1,-3,-1,5,-3,-2
1558442273641313,-2,-2,-1,-1,-6,-6,-6,-4
1558442273641313,-4,-3,0,-3,-11,-9,-4,-3
1558442273654277,1,0,-4,-1,1,3,0,0
1558442273654277,0,-2,-1,-1,-1,-2,4,7
1558442273663253,-1,-2,-3,-1,-2,-1,-4,-6
1558442273663253,-2,2,-1,-1,1,4,1,1
1558442273677219,0,1,3,0,-5,-5,-2,1
1558442273677219,-2,-2,-2,-3,-7,-5,0,-5
1558442273686193,-2,-2,-2,-3,-1,-1,-3,-4
1558442273686193,1,1,-3,2,-1,-4,-5,-4
1558442273692190,-1,0,3,1,2,-7,0,2
1558442273692190,0,-1,-2,3,7,3,0,0
1558442273701154,-1,-4,0,-1,2,4,4,0
1558442273701154,-2,0,-1,-2,-1,3,1,-1
1558442273714117,-2,-3,-1,-1,-7,-2,-5,-3
1558442273714117,-2,-1,-1,-1,-3,-1,-2,-2
1558442273723092,-1,-1,1,0,-3,0,0,2
1558442273723092,-3,-3,-1,-1,1,-8,-2,-1
1558442273738055,-1,-2,-3,-2,-1,-3,-1,-2
1558442273738055,-1,1,4,0,-4,1,-2,-4
1558442273740050,2,-3,-4,-3,3,-3,0,0
1558442273740050,3,-1,1,1,1,4,-1,0
1558442273752019,-4,-4,-7,-4,-9,-11,-7,-4
1558442273752019,1,-1,1,2,6,9,3,1
1558442273760994,-1,1,-4,-1,-5,-4,-2,1
1558442273760994,1,0,1,1,2,2,0,2
1558442273774956,-4,-1,2,-1,-2,-2,-4,-2
1558442273774956,-1,-1,-1,-1,-5,-5,-2,-2
1558442273782937,-3,-1,0,-2,-1,3,3,-2
1558442273782937,-2,-2,-2,-1,1,1,1,2
1558442273797893,-1,1,0,0,4,4,3,1
1558442273797893,-3,-1,-1,-2,-7,-6,-5,-6
1558442273799893,-1,0,3,0,-3,-1,1,5
1558442273799893,0,0,-6,-2,0,0,3,0
1558442273811855,4,0,0,2,7,6,6,4
1558442273811855,-3,-3,-2,-2,3,2,-1,-2
1558442273820835,-4,-1,0,-1,-9,-7,-5,-3
1558442273820835,-1,-2,-2,-1,-3,-3,-6,-3
1558442273834801,1,-1,0,1,7,0,-4,0
1558442273834801,-1,-2,0,-2,2,3,3,2
1558442273843771,-2,-3,0,-1,-2,2,-3,-2
1558442273843771,-3,-1,-4,-3,-3,-3,-1,-5
1558442273858730,-1,0,-4,-1,1,-1,-1,2
1558442273858730,0,3,1,0,0,-8,3,1
1558442273859734,-2,-2,-2,-1,2,7,0,-1
1558442273859734,0,0,2,-2,-1,2,2,0
1558442273872693,-2,-5,1,-2,-9,-7,-4,-6
1558442273872693,-2,-3,-1,-1,0,-5,-6,-2
1558442273880675,0,-1,-2,0,8,12,8,2
1558442273880675,2,-1,1,2,5,4,1,5
1558442273894652,-4,0,1,-2,-2,-5,-4,-7
1558442273894652,-2,-3,-7,-4,-8,-6,-4,0
1558442273903612,-1,-1,-2,-5,-4,-2,-4,-5
1558442273903612,-1,0,-1,-1,-4,-1,-1,0
1558442273917573,-1,0,3,1,5,2,6,5
1558442273917573,3,-1,-1,0,8,-1,0,2
1558442273924555,1,1,0,2,5,3,2,0
1558442273924555,-3,-2,-3,-2,-5,-5,-5,-4
1558442273931536,-2,0,-1,-4,-9,-4,-1,0
1558442273931536,-3,-1,-3,-1,-8,-5,-6,-4
1558442273940512,1,-1,2,2,6,8,4,4
1558442273940512,-1,-3,-2,-2,-2,0,-3,-1
1558442273954476,1,0,0,-1,-2,-3,-1,-3
1558442273954476,0,-2,-4,-1,6,2,0,0
1558442273963450,-1,2,3,0,-5,-11,-3,0
1558442273963450,-1,0,1,-1,-2,-1,-1,0
1558442273977412,-3,-3,-7,-3,0,-2,-5,0
1558442273977412,-1,-2,-1,0,-1,6,2,-4
1558442273984400,-1,0,-1,-2,-8,-6,-7,-5
1558442273984400,-1,-2,0,-2,-7,-5,0,1
1558442273992373,1,1,-1,1,11,3,4,1
1558442273992373,-3,-1,0,-1,4,3,2,2
1558442274000355,-1,-1,-2,-1,-4,-4,-3,0
1558442274000355,-1,-1,1,0,6,4,0,-2
1558442274014317,-2,-3,-1,-1,-7,-2,-8,-1
1558442274014317,0,-3,-2,0,-4,-6,-2,0
1558442274023291,0,-2,-1,-1,-1,3,-1,-5
1558442274023291,-1,-2,1,-5,-10,-15,-9,-4
1558442274037258,-1,-2,-5,-1,4,6,5,-1
1558442274037258,0,0,-1,1,5,7,2,2
1558442274046229,0,0,-1,0,-1,1,2,0
1558442274046229,-1,-1,2,0,6,4,2,-1
1558442274052213,-1,-1,0,-2,-6,-5,-2,-1
1558442274052213,-3,1,1,-3,-11,-8,-6,-3
1558442274061191,-2,-2,-2,-3,-1,-4,1,-2
1558442274061191,-2,-2,-3,-2,0,-3,-4,-4
1558442274074158,-1,-1,2,0,0,5,0,-1
1558442274074158,-1,0,-1,-2,0,0,-1,1
1558442274083131,-2,-2,0,0,3,-2,-2,2
1558442274083131,1,0,-1,-1,1,-2,3,3
1558442274097094,-1,-5,-4,-3,-4,-5,-4,-6
1558442274097094,1,-1,1,-1,-1,3,0,-1
1558442274106070,0,-1,-1,-1,-6,-7,-6,-4
1558442274106070,-4,-2,-6,-4,-7,-3,-3,-4
1558442274112054,-1,1,2,-2,-6,1,1,-1
1558442274112054,1,2,3,3,12,11,8,4
1558442274121030,-1,-4,-6,-3,1,-4,-2,1
1558442274121030,-3,1,3,1,3,7,1,2
1558442274134996,0,-1,-6,-1,2,-2,0,-3
1558442274134996,-1,0,1,-3,-8,-8,-9,-2
1558442274148969,0,0,-2,0,0,0,-1,-1
1558442274148969,1,0,0,1,-1,0,0,-3
1558442274156934,-2,-2,2,-1,-6,-2,-2,-1
1558442274156934,0,0,-1,-2,-3,-2,-1,-2
1558442274165909,-2,-2,-1,-2,-2,0,0,-1
1558442274165909,-2,-4,-10,-3,-8,-8,-5,-5
1558442274171896,0,2,2,0,-1,-4,-1,2
1558442274171896,-1,0,0,0,7,4,3,2
1558442274180869,0,1,4,4,9,5,3,1
1558442274180869,-1,0,1,1,4,6,2,0
1558442274194834,-1,-1,-2,-3,-5,-3,-5,-6
1558442274194834,-4,-5,-6,-6,-14,-12,-9,-3
1558442274203809,-1,-4,0,-3,-7,-3,-2,0
1558442274203809,0,0,-1,-1,0,7,-1,1
1558442274216777,1,-1,1,2,5,3,1,2
1558442274216777,1,0,0,0,-2,4,4,-2
1558442274232731,-3,0,-2,-2,-3,-9,-4,-4
1558442274232731,2,-1,0,-1,1,-5,-1,0
1558442274233727,-2,-1,0,-1,0,-1,0,1
1558442274233727,-3,-2,0,-1,-1,0,-1,-4
1558442274240710,-1,0,-2,0,0,1,0,-1
1558442274240710,-2,-1,0,-2,-2,1,1,0
1558442274254671,0,-1,4,1,1,-1,3,2
1558442274254671,-1,-3,-3,-1,-1,-3,-1,-3
1558442274263647,-1,-3,-4,-2,1,3,-1,1
1558442274263647,-1,0,-1,-1,1,-4,-2,1
1558442274276615,0,0,-3,0,3,7,2,1
1558442274276615,0,1,2,-1,-3,-6,-1,-1
