timestamp,emg1,emg2,emg3,emg4,emg5,emg6,emg7,emg8
1558442051056612,-1,1,2,10,4,-4,5,3
1558442051056612,1,0,2,-5,1,-11,-3,1
1558442051057609,3,-1,6,9,0,0,-2,-1
1558442051057609,-6,-1,-3,-7,-1,1,-2,-3
1558442051057609,-2,2,5,-9,-12,-2,-8,-1
1558442051057609,-5,-3,-4,0,-3,8,4,-4
1558442051058607,0,-6,-16,-9,-13,-11,-11,-4
1558442051058607,5,2,1,4,20,-4,16,11
1558442051069591,0,-3,-2,-6,-3,-1,6,-1
1558442051069591,-2,-2,4,10,-1,4,-7,-4
1558442051078557,-1,-1,0,-7,-6,-1,-2,-2
1558442051078557,-2,-5,5,8,-3,8,-4,-5
1558442051085535,-2,-2,-6,1,5,-2,-4,-4
1558442051085535,-1,-1,0,0,-3,-6,-1,5
1558442051099498,-3,2,-1,-4,-3,4,1,-5
1558442051099498,2,-1,-11,-12,-3,-1,-9,-2
1558442051110469,-7,-2,3,1,0,-8,0,-2
1558442051110469,0,-5,-15,-8,-1,7,3,-1
1558442051114459,-4,1,1,-2,1,-1,0,1
1558442051114459,3,4,20,21,8,-7,4,4
1558442051129418,2,-5,-27,-22,1,10,-2,-4
1558442051129418,-3,-4,-2,-23,-24,-9,-5,-4
1558442051138393,-3,-4,-2,2,-6,-12,-19,-1
1558442051138393,1,2,-2,-4,4,4,19,2
1558442051178288,1,1,7,-2,0,-15,3,6
1558442051178288,3,2,5,11,10,5,5,3
1558442051179285,-3,-2,-5,-8,-13,-10,-9,-3
1558442051179285,-2,-2,-3,-7,-3,9,-4,-2
1558442051183274,-3,-4,-3,3,-1,5,-3,-4
1558442051183274,-1,-4,-8,-9,-4,1,-5,-3
1558442051184272,0,1,4,9,0,2,-1,-2
1558442051184272,-6,-8,-14,-4,-9,-13,0,2
1558442051189257,-1,-1,5,8,-1,-1,-1,-8
1558442051189257,0,-2,0,-3,-1,-4,-1,1
1558442051197240,-2,0,5,11,5,3,1,-3
1558442051197240,1,2,4,-4,-3,1,-4,1
1558442051206213,0,1,5,8,0,4,-7,0
1558442051206213,-6,-6,-12,-14,-13,-2,4,-5
1558442051219179,1,2,3,-4,8,1,20,7
1558442051219179,4,5,8,14,20,2,13,4
1558442051228153,-4,-3,-7,-8,-2,-3,-5,-1
1558442051228153,-2,-2,-3,-13,-16,-17,-17,-7
1558442051234138,-1,-1,-1,-2,-1,8,-6,-3
1558442051234138,0,0,0,1,5,5,6,1
1558442051249097,-1,0,-2,-4,-1,-1,-2,0
1558442051249097,-4,-2,7,12,-2,1,-11,-7
1558442051257077,-1,-3,-9,-14,-10,-12,-6,-3
1558442051257077,-2,-2,1,-5,-2,-5,1,-1
1558442051266054,2,0,-6,3,0,-3,0,1
1558442051266054,1,0,2,6,2,4,3,1
1558442051279020,1,0,-7,-11,0,-4,0,-1
1558442051279020,-1,-1,0,4,-3,-1,-5,-4
1558442051287994,-1,3,4,6,4,2,0,0
1558442051287994,0,0,-2,-14,-2,-3,1,0
1558442051293977,1,0,4,9,-4,-10,0,0
1558442051293977,-1,-2,-8,-8,-6,0,-6,-4
1558442051308937,-2,-6,-6,-15,-11,2,-2,-5
1558442051308937,0,3,6,5,6,0,-6,3
1558442051316916,2,1,4,10,11,12,8,6
1558442051316916,0,-2,-7,-8,-5,-7,4,1
1558442051325892,2,-2,2,4,3,-5,3,0
1558442051325892,0,-1,-2,-1,-1,7,4,2
1558442051339855,-4,-3,-3,-3,-8,-1,-9,-8
1558442051339855,-2,0,3,3,-1,-4,-4,-2
1558442051356809,-2,0,-1,-2,-1,0,1,0
1558442051356809,-1,3,22,28,17,6,5,1
1558442051356809,-5,-7,-46,-58,-24,-8,-7,-2
1558442051356809,1,-3,4,7,-10,-8,-20,-7
1558442051377753,-3,-3,-12,-15,-1,8,6,0
1558442051377753,6,7,4,13,18,-9,16,10
1558442051377753,-2,0,15,17,16,-3,2,3
1558442051377753,0,-1,0,-3,-3,0,2,0
1558442051385732,-5,-3,-8,-9,-11,1,-7,-6
1558442051385732,-3,-2,1,5,-4,8,-5,-3
1558442051399696,-1,-1,5,13,-1,-2,-8,-4
1558442051399696,0,2,4,-14,1,0,1,-3
1558442051414655,-3,0,-5,-7,-10,-4,0,2
1558442051414655,-2,-3,-2,-2,-8,3,-3,-5
1558442051415652,-1,-3,-6,-10,-4,-10,-9,-5
1558442051415652,0,0,10,21,15,18,9,4
1558442051429615,4,3,12,9,22,1,11,5
1558442051429615,-2,-1,-9,-10,-6,-2,1,-1
1558442051436597,-4,-2,1,4,-7,2,-5,-4
1558442051436597,-3,-1,-10,-12,-9,-11,-7,-4
1558442051445573,0,2,4,1,-2,0,0,0
1558442051445573,-3,-6,-10,-3,-5,-7,-4,-1
1558442051459534,2,3,6,11,9,6,4,3
1558442051459534,-2,-2,-1,8,-7,-6,-5,-1
1558442051468511,-1,-3,-19,-34,-5,0,-6,-1
1558442051468511,1,4,10,9,4,4,2,0
1558442051474496,-3,-3,-8,-10,-5,0,-3,-3
1558442051474496,0,2,-10,-10,-2,-10,5,1
1558442051489456,0,1,16,23,3,0,-6,-5
1558442051489456,0,-3,-14,-19,-1,-14,-5,-2
1558442051496436,0,-2,0,0,-2,2,4,4
1558442051496436,-3,0,2,-1,0,0,-9,-4
1558442051513391,-2,-2,-2,2,1,10,2,-1
1558442051513391,-4,-3,-5,-4,-2,1,5,1
1558442051519375,0,2,9,8,4,-3,2,1
1558442051519375,-1,-4,-2,1,3,11,2,0
1558442051528353,-3,-3,-10,-9,-11,-19,-12,-4
1558442051528353,-2,-2,-10,-20,-9,-3,-2,-4
1558442051542314,3,3,16,17,4,4,1,-1
1558442051542314,-2,-5,-15,-14,-1,-9,0,1
1558442051550293,-1,-1,-1,-5,-4,2,-4,0
1558442051550293,-3,-2,-3,0,-8,6,3,-2
1558442051557274,0,-2,-1,-1,-4,0,-9,-3
1558442051557274,5,7,13,14,20,9,14,8
1558442051565251,1,1,2,4,1,-5,1,-1
1558442051565251,-1,-3,-3,-4,-1,-6,-6,-3
1558442051579216,-1,-1,1,9,3,5,-3,-2
1558442051579216,-1,-3,-3,-16,-8,0,-3,-4
1558442051588190,0,2,1,10,7,-1,7,3
1558442051588190,-1,-1,2,-7,-6,2,-5,-3
1558442051602154,-4,-5,-7,-1,5,12,2,-3
1558442051602154,-4,-3,-2,-6,-11,-8,-7,-7
1558442051611131,-2,-1,-2,-4,-4,-3,-6,-3
1558442051611131,-1,-4,-11,-10,-5,-4,0,0
1558442051617113,1,0,7,9,8,2,8,3
1558442051617113,1,-2,-4,8,1,7,1,0
1558442051626089,-1,-1,3,-5,-1,-14,2,-2
1558442051626089,0,-1,-1,-5,1,2,1,1
1558442051639056,0,-1,-3,-9,-6,-13,-3,0
1558442051639056,-6,-3,-1,-1,-14,-4,-10,-7
1558442051648031,-1,-3,-2,3,1,18,5,0
1558442051648031,5,6,4,2,8,-18,-3,1
1558442051661994,1,0,4,2,-1,1,3,0
1558442051661994,0,-1,-5,-10,-3,-1,-3,-2
1558442051670969,-3,-2,3,1,2,4,-5,0
1558442051670969,-3,-3,-7,1,-1,2,-4,-3
1558442051676952,-2,-1,2,-3,-3,-1,-2,-2
1558442051676952,-2,1,3,5,0,-6,-6,1
1558442051685930,-2,0,2,1,-2,1,3,-2
1558442051685930,-1,0,1,1,2,14,5,-1
1558442051698895,-3,-2,-5,-2,-6,-6,-4,-1
1558442051698895,3,1,5,3,7,2,13,4
1558442051707871,-1,-2,-6,-8,-1,-7,-2,0
1558442051707871,-1,-3,-5,12,-5,-8,-1,0
1558442051721833,-3,-3,-10,-10,-3,-5,-5,-3
1558442051721833,-4,-2,0,-4,2,7,-3,-1
1558442051730811,2,0,3,0,-2,-1,3,3
1558442051730811,-1,0,7,6,0,-1,-4,-2
1558442051736793,-1,0,-1,0,-2,-3,-1,2
1558442051736793,-2,0,-1,0,-2,3,-1,-2
1558442051745770,2,3,14,28,6,-1,-1,-1
1558442051745770,-5,-2,-6,-24,-7,-7,-4,0
1558442051759732,-1,-4,-11,-8,-11,-3,-5,-4
1558442051759732,-1,-2,-6,-10,0,6,3,0
1558442051768709,0,-1,0,6,0,-8,3,-1
1558442051768709,-1,2,4,-1,-2,6,0,0
1558442051781672,0,1,1,-1,2,-2,-3,0
1558442051781672,1,1,-2,-1,-2,-11,-2,-1
1558442051790649,-2,-3,1,-2,-1,-4,-11,-5
1558442051790649,-1,-5,-4,4,-1,-10,-1,-2
1558442051796639,1,3,8,-16,-9,3,11,4
1558442051796639,-3,-4,-5,5,2,3,-2,-1
1558442051805609,-3,-3,-6,5,-1,10,3,0
1558442051805609,-1,-1,-11,-31,-3,-11,-4,-1
1558442051819572,-3,-1,-12,-3,-6,-8,-3,-2
1558442051819572,-1,0,3,6,-1,-3,-6,-3
1558442051828549,-2,-2,-7,-7,-5,-1,-5,-2
1558442051828549,0,-3,6,13,-2,5,-4,-3
1558442051841515,-3,-1,-2,1,0,6,-1,-3
1558442051841515,2,0,-2,-4,3,8,4,4
1558442051850492,-1,1,-2,-2,6,-19,8,3
1558442051850492,-1,1,4,7,0,3,-4,-1
1558442051856474,2,-1,0,-3,2,-12,1,1
1558442051856474,-4,-4,-1,1,-7,-3,-7,-7
1558442051871433,-2,-2,-3,-10,-6,9,-4,-3
1558442051871433,-1,-1,2,9,-2,4,-4,-3
1558442051879412,-1,-1,8,16,17,15,7,4
1558442051879412,1,-2,-12,-31,-9,-14,2,2
1558442051888389,-1,1,-5,-1,1,4,-1,0
1558442051888389,-3,-1,-4,-9,-4,3,1,-1
1558442051901353,-2,-3,1,0,-4,-3,-6,-4
1558442051901353,1,2,7,13,4,-11,1,-1
1558442051919306,-1,0,-2,-4,0,1,-2,1
1558442051919306,-1,-2,-2,2,-3,1,-4,-4
1558442051919306,0,-2,-1,-2,-5,-3,-6,0
1558442051919306,-2,0,1,5,9,13,5,3
1558442051933267,-1,-3,-1,-8,-8,-10,-4,-2
1558442051933267,1,-1,4,6,5,2,3,1
1558442051939252,0,-2,-2,-6,-6,-11,-2,-2
1558442051939252,-3,-1,0,-2,-4,-2,-8,-5
1558442051948229,-5,-4,-4,-1,-9,7,-2,-4
1558442051948229,7,9,21,22,18,0,10,9
1558442051962191,-5,-9,-29,-29,-7,-4,-2,-1
1558442051962191,-2,-4,-10,-11,-20,-10,-11,-5
1558442051971166,1,-2,8,7,10,11,8,0
1558442051971166,-1,2,11,16,1,-7,0,-1
1558442051977150,1,2,4,2,0,-4,5,0
1558442051977150,-2,-1,-22,-16,-3,4,-1,-2
1558442051992110,-3,-2,0,-3,-2,-8,-5,-5
1558442051992110,0,-2,7,14,-1,-1,0,0
1558442051999096,-1,1,3,4,4,12,1,1
1558442051999096,-1,-3,9,2,2,-6,2,1
1558442052008075,3,0,-6,-3,-3,2,-4,-1
1558442052008075,-1,0,-1,4,5,-6,2,-2
1558442052022037,1,1,5,6,5,1,3,0
1558442052022037,-3,-2,-2,4,-7,-9,-6,-2
1558442052031007,-1,2,11,9,7,3,-2,2
1558442052031007,-2,-3,-13,-10,-3,5,-2,-3
1558442052044971,0,0,2,2,1,-1,-4,0
1558442052044971,2,4,11,10,3,3,5,1
1558442052051952,0,0,-4,-2,3,2,2,1
1558442052051952,-3,-4,-1,-9,-11,-11,-8,-2
1558442052059931,0,1,7,4,4,0,-8,-2
1558442052059931,-2,-5,-5,-2,0,5,-1,-1
1558442052067909,2,3,23,29,7,9,10,4
1558442052067909,-2,-6,-44,-53,-18,-3,-8,-4
1558442052081871,-1,-1,3,5,-6,-17,-6,0
1558442052081871,0,1,20,28,17,7,6,1
1558442052090846,-3,-5,-11,-17,-12,-1,-8,-5
1558442052090846,-1,1,-4,-4,4,3,3,0
1558442052096829,0,1,6,12,7,7,2,-1
1558442052096829,0,1,-3,-4,-5,-7,-3,0
1558442052111791,0,0,-4,-3,-2,1,0,1
1558442052111791,-1,-3,2,-3,-3,0,-5,-2
1558442052127749,-4,-1,-5,-7,3,12,2,-1
1558442052127749,-3,1,2,2,1,-3,1,0
1558442052135731,-2,-3,-9,-15,-3,-16,-9,-4
1558442052135731,-1,-2,5,-1,-10,-9,-10,-3
1558442052141715,2,-1,-7,4,7,16,8,3
1558442052141715,3,0,0,-9,0,0,1,3
1558442052150690,-3,-6,-15,-6,-5,-2,0,-1
1558442052150690,0,0,7,19,4,1,1,0
1558442052164661,-1,1,-1,-10,-7,2,-4,-3
1558442052164661,-1,-4,-5,2,-3,7,-3,-5
1558442052171726,1,0,-6,-7,-4,-20,-1,2
1558442052171726,-1,1,9,8,11,17,6,3
1558442052188647,-1,-1,0,1,3,-1,2,1
1558442052188647,3,3,8,9,7,1,2,-1
1558442052189583,-3,-3,-15,-16,-11,-14,-10,-4
1558442052189583,-2,0,0,3,0,9,5,0
1558442052201558,-1,-3,1,0,-13,-11,-9,-5
1558442052201558,-3,-5,-8,-5,-9,1,-4,-2
1558442052210573,4,3,14,15,11,-4,8,3
1558442052210573,1,2,-7,-11,-2,-2,0,2
1558442052225486,-1,-4,3,6,3,7,-3,-1
1558442052225486,-3,-1,9,8,-3,-1,0,-2
1558442052231477,-2,-1,-1,-1,-4,-5,-2,-2
1558442052231477,1,-3,-1,-3,-2,-2,-1,-2
1558442052248432,0,-1,-2,-7,-4,0,0,0
1558442052248432,-5,-2,-7,-9,-6,-5,-7,-4
1558442052249429,2,2,9,8,2,3,1,4
1558442052249429,0,1,0,-3,5,-4,4,1
1558442052262388,1,-2,0,2,7,15,6,-1
1558442052262388,2,2,-2,0,-4,-7,-2,1
1558442052271365,-5,-7,-19,-23,-6,2,-9,-6
1558442052271365,-2,-1,-1,-4,-11,-10,-1,-2
1558442052285327,3,0,3,2,8,-13,6,4
1558442052285327,2,1,8,5,1,-11,3,3
1558442052292308,-3,-2,-5,-3,-1,12,-1,-2
1558442052292308,-2,-4,-2,-5,-1,5,-3,-1
1558442052308327,-4,0,5,6,-5,5,-3,-3
1558442052308327,0,0,-3,-5,-6,-2,-6,-2
1558442052310273,2,4,1,0,-2,-7,-2,1
1558442052310273,-2,-1,3,10,6,3,2,0
1558442052322288,-3,1,-1,-9,-6,-14,-5,-4
1558442052322288,0,-5,-15,-12,6,14,4,-1
1558442052331204,-1,-3,2,4,-2,-3,1,-1
1558442052331204,-2,-2,3,-3,0,-1,0,-1
1558442052345167,-6,-5,-15,-14,-8,-9,-2,-3
1558442052345167,3,2,6,6,6,1,6,2
1558442052352151,0,0,-1,-6,-5,-1,0,-1
1558442052352151,-3,-3,-3,4,-7,-6,-6,-4
1558442052368211,0,-1,-5,-12,-2,-14,-4,-2
1558442052368211,-3,-4,0,11,2,4,0,-2
1558442052370108,0,3,-2,-3,4,10,4,0
1558442052370108,1,3,-1,-8,0,5,-4,-1
1558442052382068,-2,-7,-2,5,-8,-12,-5,-4
1558442052382068,-4,-6,-8,-6,-2,-5,-2,0
1558442052391055,-2,3,0,-1,2,1,2,-2
1558442052391055,0,2,0,2,4,1,4,1
1558442052405072,2,4,0,0,2,6,0,1
1558442052405072,1,6,3,-4,-10,-14,-5,-2
1558442052419012,4,0,2,5,-5,-6,-1,0
1558442052419012,-8,-12,-6,-4,0,0,-2,-2
1558442052427954,-6,-5,7,11,0,-6,-1,-1
1558442052427954,-5,-3,-9,-14,-2,6,-5,-5
1558442052429940,8,-2,5,1,-6,-14,-5,-3
1558442052429940,-8,-9,-4,-1,2,1,3,1
1558442052441915,-6,-24,-3,7,7,8,3,-1
1558442052441915,-6,2,-8,-14,-12,-2,-7,-4
1558442052466841,-5,-5,0,6,11,20,9,3
1558442052466841,9,11,5,4,1,-13,0,0
1558442052467838,3,7,5,4,3,7,2,1
1558442052467838,5,8,5,-6,4,-3,-2,0
1558442052471827,0,0,-6,1,-6,-8,-5,-1
1558442052471827,0,1,6,1,-4,1,-4,-2
1558442052487811,0,6,-2,-5,-6,6,0,-1
1558442052487811,2,-3,5,16,9,10,4,0
1558442052489810,-7,-9,-22,-35,-9,-12,-3,-1
1558442052489810,-1,-1,5,3,13,1,2,2
1558442052501746,3,1,-1,-1,-14,-7,-5,0
1558442052501746,5,-1,8,11,3,0,0,4
1558442052510722,-6,-5,-3,4,-9,-3,-8,-9
1558442052510722,10,18,16,8,10,19,12,6
1558442052524685,9,21,-10,0,1,5,3,0
1558442052524685,-2,-4,-3,-7,-1,-7,-16,-9
1558442052531670,-21,-30,-6,-3,9,-13,7,12
1558442052531670,-7,-6,-14,-9,-9,1,8,-12
1558442052548628,5,15,4,-12,-9,-9,-10,8
1558442052548628,-4,-21,-5,-5,-7,0,-3,-19
1558442052549623,2,20,0,3,2,7,11,8
1558442052549623,-23,-32,-3,7,-5,-12,-11,-6
1558442052561590,20,36,25,18,25,-5,12,19
1558442052561590,-2,0,-31,-48,-23,-9,1,-6
1558442052570564,-8,-1,1,-6,-1,8,-8,-7
1558442052570564,7,-8,-6,-2,-25,-20,-12,-6
1558442052585607,-20,-33,-4,5,25,26,-5,-6
1558442052585607,-2,-3,-2,4,5,1,0,9
1558442052592553,18,24,17,17,3,2,13,-3
1558442052592553,28,55,1,-13,-7,1,-21,-14
1558442052607507,-3,-13,22,13,14,5,19,16
1558442052607507,-40,-66,-16,1,-16,-6,0,-12
1558442052614491,-5,-8,-6,-1,5,10,1,1
1558442052614491,2,-6,-2,-7,-6,-8,8,9
1558442052622427,7,1,-9,-14,-22,-10,-6,-3
1558442052622427,3,21,7,10,15,8,4,9
1558442052630416,12,5,10,11,1,-7,-5,-2
1558442052630416,21,35,30,26,10,3,-3,6
1558442052645367,-3,45,-25,-24,-9,2,-11,-15
1558442052645367,-35,-86,-28,-21,-11,-5,2,10
1558442052652346,-5,-10,0,2,-16,-14,-17,-31
1558442052652346,18,15,9,13,29,10,14,18
1558442052668309,3,12,-1,-11,2,6,4,-2
1558442052668309,-14,-8,-7,10,8,7,-5,-7
1558442052669302,-10,-37,2,6,-21,-21,-18,6
1558442052669302,-8,4,-19,-25,11,22,13,-5
1558442052682265,-11,-29,-9,-14,-16,-1,-3,-8
1558442052682265,25,65,15,0,6,-13,0,7
1558442052691240,-8,-28,-24,-16,4,9,6,10
1558442052691240,-8,-9,-1,10,-8,-13,-8,-12
1558442052705203,8,-2,-1,-4,4,16,-1,1
1558442052705203,15,20,26,18,14,2,11,7
1558442052714181,0,11,2,-5,3,-10,0,2
1558442052714181,-6,-12,-2,13,-4,1,-11,-4
1558442052728141,-7,-13,-18,-32,-13,-20,-21,-29
1558442052728141,8,6,9,4,2,12,21,31
1558442052729140,20,28,10,12,6,21,40,33
1558442052729140,-12,8,-4,-11,-7,0,-11,-23
1558442052742105,-26,-55,13,43,12,-3,4,1
1558442052742105,-2,-14,-42,-34,-16,-8,-25,-19
1558442052751082,-3,3,1,-4,-5,0,-7,-10
1558442052751082,-5,-33,-17,-22,0,-5,-5,6
1558442052765044,7,18,4,12,6,3,9,7
1558442052765044,11,22,27,29,-1,-1,-8,-5
1558442052772026,-8,-23,-26,-19,1,1,-5,-6
1558442052772026,-8,-5,-8,-2,-3,-4,-6,0
1558442052787981,-1,-3,-9,-9,-16,-5,1,-7
1558442052787981,6,7,4,-2,3,-7,10,10
1558442052793965,1,13,24,18,10,-6,-9,-8
1558442052793965,-6,-7,-19,-20,-9,-2,-10,-4
1558442052801946,1,-4,7,5,9,-13,-3,17
1558442052801946,5,12,3,12,0,7,45,9
1558442052810919,-1,8,-2,-12,0,9,-16,-17
1558442052810919,-1,-10,3,8,4,-1,-9,-6
1558442052826876,-3,-7,-19,-27,-12,-10,0,2
1558442052826876,4,5,15,29,6,3,-2,9
1558442052831864,-7,-3,-15,-18,-9,-7,-12,-22
1558442052831864,-2,-7,5,7,1,14,13,14
1558442052848349,1,-2,-4,-13,-5,-14,-1,2
1558442052848349,-3,3,11,7,-3,-5,-36,-30
1558442052855304,-7,-7,-16,-19,-13,-3,10,5
1558442052855304,2,2,8,5,1,-10,-11,2
1558442052862327,-1,6,24,45,20,14,13,-3
1558442052862327,0,-2,-27,-52,-13,-4,9,5
1558442052870668,1,2,-2,2,-6,1,-23,-11
1558442052870668,-2,-4,6,8,9,4,34,13
1558442052885301,2,3,0,0,-10,-9,-14,-2
1558442052885301,2,5,18,10,13,3,-18,-13
1558442052892246,0,-1,0,10,0,4,10,11
1558442052892246,0,-4,-1,-12,-1,5,10,12
1558442052907208,-4,-7,-39,-26,-8,-11,-10,-9
1558442052907208,-3,-3,-14,-8,-5,8,15,-2
1558442052914216,-2,1,-1,-13,-10,-5,-12,-7
1558442052914216,2,0,-1,7,-2,-3,4,6
1558442052922168,-4,-5,4,3,-4,-5,4,-1
1558442052922168,-1,-1,4,2,3,-12,-16,0
1558442052931144,4,5,7,15,23,4,12,10
1558442052931144,-7,-7,-7,-10,-12,-10,-4,-10
1558442052945508,0,0,-3,-10,-13,6,-11,-10
1558442052945508,0,1,2,4,-12,-15,-7,2
1558442052959977,-1,0,9,3,8,18,6,4
1558442052959977,-3,2,10,6,3,2,-7,-9
1558442052967723,0,-1,-8,11,5,4,4,5
1558442052967723,-5,-8,-23,-6,-7,-9,0,-7
1558442052974686,0,1,8,8,0,4,-1,2
1558442052974686,-1,-1,7,13,6,-1,-6,1
1558442052991421,-1,0,5,7,-8,0,-2,-3
1558442052991421,2,3,10,0,-1,-3,3,0
1558442052992390,0,-1,-6,-5,-4,-7,-5,0
1558442052992390,-1,1,-5,3,-4,-1,-4,-4
1558442053005391,-6,-6,5,9,3,-3,3,1
1558442053005391,0,1,-7,-10,1,9,-6,-4
1558442053012329,-1,4,13,9,-4,-8,-9,-12
1558442053012329,-7,-7,-5,-5,-7,-5,-1,1
1558442053027288,2,3,13,22,18,2,2,3
1558442053027288,-1,3,3,-11,-6,-13,-6,0
1558442053034279,-1,-2,-6,-4,10,0,4,2
1558442053034279,-4,-8,-18,-15,-7,-1,-7,-10
1558442053051224,-1,-1,-4,-15,2,6,-2,-1
1558442053051224,-2,-3,4,-1,-3,2,-2,-2
1558442053052227,3,4,5,-5,-8,-8,2,5
1558442053052227,-4,-2,-10,-14,-15,-5,-7,-7
1558442053067215,-1,0,10,4,2,-2,-1,-2
1558442053067215,-2,-1,-5,-7,-4,-2,2,1
1558442053072377,-1,0,3,13,9,1,2,-4
1558442053072377,2,-3,4,1,1,-6,1,7
1558442053088317,0,1,-3,-8,-9,-3,-6,-11
1558442053088317,0,-1,1,16,15,18,12,3
1558442053094327,2,1,-2,2,2,-3,0,5
1558442053094327,-3,-1,-1,-7,-5,-2,-6,-5
1558442053111064,-4,-3,-9,-6,-1,-5,0,-1
1558442053111064,-2,-3,6,20,3,0,-4,-2
1558442053112061,-4,-4,-5,-15,-15,-6,-9,-3
1558442053112061,0,-2,-3,2,7,0,16,9
1558442053125300,0,-1,-11,-12,-14,-13,-3,-5
1558442053125300,-2,-1,11,7,0,-5,-10,5
1558442053132007,-3,-6,-6,-5,2,11,-1,-5
1558442053132007,2,2,9,8,5,1,11,-1
1558442053148963,-6,-4,1,-2,-2,-6,-3,-5
1558442053148963,2,0,-5,-2,1,10,4,-2
1558442053155098,-2,0,10,12,-10,-7,-10,-4
1558442053155098,-4,-5,-10,-10,1,-4,-4,1
1558442053171182,6,5,4,-4,-2,-9,2,2
1558442053171182,-3,-1,-2,5,3,3,1,-5
1558442053172115,0,-1,-13,-8,-3,-6,-3,5
1558442053172115,1,0,-7,-5,-1,5,1,-2
1558442053184896,-1,0,-4,-8,-13,-1,-4,1
1558442053184896,1,0,10,17,7,0,-8,-3
1558442053192123,0,-1,-15,-19,-2,16,6,5
1558442053192123,-1,1,5,14,6,-10,3,-5
1558442053208075,0,0,-10,-11,0,3,-2,2
1558442053208075,-3,-2,-12,-8,-1,-1,3,0
1558442053215077,0,1,6,10,7,4,2,-1
1558442053215077,-2,-1,-1,-8,-13,-9,-14,-5
1558442053231001,-3,-6,8,10,10,2,7,-1
1558442053231001,-2,-2,-11,-13,-9,-20,-7,-3
1558442053231746,3,2,5,12,9,-3,8,5
1558442053231746,-2,-4,-3,-1,-9,3,-4,-3
1558442053244714,0,-1,1,0,5,9,7,8
1558442053244714,4,1,8,8,6,4,-2,-8
1558442053251721,-2,-5,-10,-3,-13,-7,-5,-5
1558442053251721,2,0,-20,-27,-5,2,-1,4
1558442053267836,-2,-2,1,8,-3,11,1,-1
1558442053267836,-1,-1,9,-14,-3,-14,3,1
1558442053274832,-4,-2,-17,-28,-13,-6,4,0
1558442053274832,-1,-1,8,15,15,9,4,-1
1558442053290585,2,0,-12,-19,-15,-13,0,2
1558442053290585,-2,-5,-12,-16,-10,6,-2,2
1558442053292584,-2,-1,8,2,-5,-19,-8,0
1558442053292584,2,3,13,15,9,3,4,-3
1558442053305543,-2,-1,-10,-3,1,7,-5,-3
1558442053305543,3,2,-2,3,2,3,5,3
1558442053311528,1,3,-15,-21,-9,4,-4,-4
1558442053311528,-3,-3,3,6,6,-8,0,11
1558442053328485,-3,-4,0,12,5,3,-1,-9
1558442053328485,-1,-1,-12,-20,-10,3,-10,-9
1558442053334796,1,1,3,6,7,8,12,8
1558442053334796,1,3,11,13,6,3,-10,0
1558442053351466,-2,-4,-4,-11,-9,-6,-1,-5
1558442053351466,-1,0,8,6,11,15,8,4
1558442053352456,-1,0,-2,6,-9,-4,-2,-3
1558442053352456,-7,-5,0,-6,-9,-4,-3,-1
1558442053364697,-1,-1,13,19,8,5,0,4
1558442053364697,3,0,-5,3,-4,-15,-2,1
1558442053379374,-1,-1,9,-3,7,-1,-6,-4
1558442053379374,-3,-4,-4,-2,-7,0,-2,-15
1558442053387560,1,0,-17,-17,-1,2,-4,3
1558442053387560,-1,1,10,9,0,9,3,2
1558442053394327,-7,-8,-11,4,5,-7,2,-5
1558442053394327,0,-1,-16,-16,-15,-5,-4,2
1558442053410271,-4,-1,-10,-24,-9,1,-3,-6
1558442053410271,-3,-4,6,14,-1,-8,0,-4
1558442053412262,1,2,15,22,8,9,1,0
1558442053412262,-3,-2,-16,-23,-17,-11,-10,-4
1558442053433411,0,0,12,10,13,2,6,3
1558442053433411,2,4,1,10,9,6,6,3
1558442053434202,-1,-2,2,-3,-2,-4,-4,-1
1558442053434202,-1,-1,2,10,-10,-7,1,2
1558442053448205,0,0,2,3,-9,-6,-6,-6
1558442053448205,0,-1,-2,0,7,3,7,3
1558442053454362,-1,0,1,-10,-1,0,-3,-2
1558442053454362,1,1,1,12,5,-2,-4,-3
1558442053471311,-1,-3,-8,-8,2,-2,-5,2
1558442053471311,-2,-1,11,12,-1,4,-4,-7
1558442053472102,-3,-4,0,13,-5,-13,-7,-4
1558442053472102,3,2,-3,2,9,7,7,3
1558442053485277,-1,-3,-10,-19,-5,6,-6,-3
1558442053485277,-1,1,0,-3,-4,-4,-1,4
1558442053493045,-2,-1,2,7,8,-7,1,3
1558442053493045,2,1,-1,-21,-9,7,3,-4
1558442053508279,-3,-2,7,17,-3,-5,0,-2
1558442053508279,-3,-4,-13,-12,-14,-16,-17,-10
1558442053513988,-1,1,9,7,3,10,-2,-4
1558442053513988,3,2,6,16,16,10,10,3
1558442053530945,-2,-2,1,-8,-2,-1,0,0
1558442053530945,0,-3,-10,-10,-6,0,-5,3
1558442053531938,-1,-4,-17,-5,-4,-1,0,-6
1558442053531938,-3,-2,15,14,2,-1,-3,2
1558442053544257,-1,1,-4,-7,-4,-2,0,-6
1558442053544257,-6,-8,-17,-20,-22,-12,-23,-13
1558442053553239,-1,-2,4,-3,1,1,5,3
1558442053553239,0,0,4,9,6,-1,5,3
1558442053567927,0,0,2,12,8,-12,14,8
1558442053567927,-2,1,-1,0,7,8,6,2
1558442053575115,-1,1,1,-3,-7,0,-10,-6
1558442053575115,-1,-3,-4,-7,-2,1,-4,-6
1558442053591116,6,6,18,10,-5,1,-5,0
1558442053591116,-4,-9,-14,-8,-1,-6,-3,-6
1558442053592043,-1,-1,2,10,-3,4,-2,0
1558442053592043,-12,-10,-17,-17,-11,-2,-10,-11
1558442053605024,0,3,8,12,4,5,-1,1
1558442053605024,2,4,-5,-4,8,0,16,6
1558442053613720,2,3,3,3,5,8,2,0
1558442053613720,1,-4,-6,-3,-3,-4,-2,-2
1558442053627700,-2,-2,-4,3,-1,-1,-1,-2
1558442053627700,-1,-2,5,2,-2,8,2,-5
1558442053634667,-1,-3,-6,-14,-14,-22,-9,-2
1558442053634667,8,12,27,35,22,9,9,8
1558442053650875,-5,-10,-24,-44,-3,0,-3,-4
1558442053650875,-3,-3,5,18,-3,-9,-7,7
1558442053652798,-4,-2,-14,-11,-5,6,4,-11
1558442053652798,-1,-2,-3,-10,-8,-4,-6,-3
1558442053664778,2,2,16,17,6,-3,1,2
1558442053664778,0,2,4,5,4,4,0,-3
1558442053673566,-3,-3,0,-8,-5,-3,-4,-2
1558442053673566,1,-1,-5,-6,-5,-7,-3,-1
1558442053687731,-6,-7,-18,-14,-8,1,-12,-8
1558442053687731,1,1,-1,-5,-2,-5,1,-2
1558442053694512,1,2,3,7,15,6,13,8
1558442053694512,-3,-2,2,-5,7,-5,1,0
1558442053710468,-1,-1,-2,2,-4,4,1,2
1558442053710468,-1,-1,-6,-12,-15,-3,-7,-6
1558442053712456,1,1,3,2,6,9,-1,1
1558442053712456,-3,-2,-4,-10,-9,-3,-6,-2
1558442053724631,-1,1,6,6,-1,-4,0,-1
1558442053724631,0,1,1,0,5,-8,-8,0
1558442053733407,4,1,5,10,8,0,8,3
1558442053733407,-1,-1,-1,-2,9,10,6,0
1558442053747592,1,2,9,-1,-5,-6,-2,-1
1558442053747592,-6,-6,-32,-35,-16,-3,-3,-2
1558442053761324,-2,-2,-1,-8,-4,-5,-6,2
1558442053761324,-4,-3,-6,3,-6,-4,-6,-3
1558442053770554,1,-1,7,11,-1,7,-5,-2
1558442053770554,1,2,9,10,2,-2,-3,-2
1558442053777534,1,2,-17,-18,14,2,9,3
1558442053777534,-1,0,8,7,0,-2,6,0
1558442053784561,-2,-3,-13,-10,-4,1,-1,1
1558442053784561,-1,3,14,-1,1,6,-5,-6
1558442053794237,-5,-7,-15,-5,-13,-1,-5,-4
1558442053794237,1,4,1,2,0,3,5,0
1558442053808290,-1,4,2,-6,5,6,2,0
1558442053808290,1,-2,3,9,-1,-7,-6,-1
1558442053814450,0,0,11,6,-2,1,1,-1
1558442053814450,0,-1,-8,-13,-1,4,-2,2
1558442053830412,-3,-3,-2,7,-3,-4,2,5
1558442053830412,0,2,9,4,7,3,7,-4
1558442053837162,-1,-1,19,38,9,1,1,0
1558442053837162,-5,-10,-33,-59,-25,-15,-15,-7
1558442053844102,1,-1,-17,-9,1,-5,5,2
1558442053844102,-1,-2,-8,-21,-10,-2,5,2
1558442053853080,0,3,4,-8,-5,-5,-2,2
1558442053853080,0,-2,4,12,1,12,-4,-5
1558442053868037,1,-1,8,8,2,-1,0,-1
1558442053868037,1,-2,-3,-3,5,-4,4,4
1558442053874021,0,1,-1,-3,3,-9,-6,-1
1558442053874021,-1,1,0,3,-4,-6,4,1
1558442053889980,-2,-1,-1,-2,2,-1,2,0
1558442053889980,-3,-1,2,10,2,0,-2,-2
1558442053897019,-4,-4,-2,-9,-10,3,-6,-4
1558442053897019,-1,-1,0,4,1,1,-2,-4
1558442053912918,0,2,3,4,-2,-7,-4,-1
1558442053912918,4,5,15,20,16,-3,6,5
1558442053914915,-4,-8,-21,-18,-11,-2,-3,-3
1558442053914915,-3,-1,-4,-12,-15,-6,-3,-2
1558442053927878,-6,-9,-16,1,-2,1,-5,-8
1558442053927878,1,2,2,-6,5,18,7,3
1558442053934865,1,2,7,7,5,-4,-3,1
1558442053934865,6,3,6,10,0,-13,-1,4
1558442053950194,1,3,3,-1,6,6,-4,-5
1558442053950194,-2,-3,-6,-3,-10,-8,-5,-4
1558442053957192,0,1,-6,0,14,21,10,1
1558442053957192,0,0,-4,-9,-5,-3,0,-1
1558442053974083,0,-1,4,3,5,-4,-2,1
1558442053974083,-3,-5,-8,-1,-8,-4,-8,-2
1558442053974754,-3,-2,1,-3,-5,1,-1,-2
1558442053974754,1,1,11,19,11,4,1,0
1558442053987719,0,1,-4,-9,1,-2,5,1
1558442053987719,-3,-2,-1,-4,-1,7,-1,-3
1558442053994236,0,0,-4,-8,-10,-7,2,0
1558442053994236,-1,-2,5,7,7,-5,1,-2
1558442054010386,-3,0,2,1,-7,-1,-6,-2
1558442054010386,-2,-2,-4,1,-12,-7,-3,-1
1558442054025151,0,0,3,2,8,5,2,1
1558442054025151,-1,0,-5,-5,4,1,0,-2
1558442054033279,-2,-1,9,14,5,-3,-1,0
1558442054033279,0,0,-11,-16,2,6,-2,1
1558442054035008,-2,-1,2,9,-7,-7,-9,-2
1558442054035008,-3,-3,11,12,-4,-5,1,-1
1558442054047971,-1,-5,-14,-27,-4,1,4,-1
1558442054047971,-3,-2,2,17,7,1,0,-1
1558442054053988,-1,0,-3,-10,-5,0,-1,-4
1558442054053988,0,-1,-1,5,3,7,1,2
1558442054071162,1,1,10,3,-6,-9,-6,0
1558442054071162,1,0,-9,-17,-3,-11,3,0
1558442054077162,-1,-4,1,3,0,-1,-7,-4
1558442054077162,-2,-1,-3,-6,1,-11,0,3
1558442054093992,-1,1,-5,-1,5,7,7,-2
1558442054093992,-2,0,3,-2,-5,0,-4,-3
1558442054094895,-1,1,6,6,1,-9,-5,-1
1558442054094895,-3,-3,-12,-8,-2,13,-6,-1
1558442054108098,0,-2,-8,-3,-18,-13,-13,0
1558442054108098,3,2,13,8,23,11,19,6
1558442054113848,-1,-1,-6,-8,0,-1,3,0
1558442054113848,-2,-1,8,3,2,0,-2,-3
1558442054129801,-1,-2,-1,7,4,0,2,2
1558442054129801,-2,-1,-3,3,-6,0,-4,-2
1558442054136784,1,0,-1,-8,-6,-2,1,2
1558442054136784,-2,-1,-8,-5,-3,-2,-1,-2
1558442054152738,-1,1,8,1,4,-1,-5,-6
1558442054152738,-2,-2,-2,3,-6,-10,-5,1
1558442054154732,-3,-4,-18,-22,-4,4,0,-1
1558442054154732,-3,-4,6,17,1,-5,-5,-8
1558442054175685,-4,-3,-9,-18,-6,3,1,1
1558442054175685,0,-1,5,5,2,-1,-2,-2
1558442054183693,0,0,-5,-6,-2,-7,-2,0
1558442054183693,1,0,-1,2,-3,-1,-3,0
1558442054190876,0,0,3,4,1,1,-1,0
1558442054190876,0,0,2,-2,4,8,4,0
1558442054197658,0,0,10,20,0,2,-6,-3
1558442054197658,-7,-9,-14,-33,-11,-7,-13,-6
1558442054214016,-2,-1,1,11,-1,-6,3,2
1558442054214016,2,2,4,8,9,-3,6,3
1558442054214576,1,1,4,10,10,-3,6,2
1558442054214576,1,3,-1,1,0,5,0,-3
1558442054228538,-3,-4,-2,2,-10,-3,-9,-6
1558442054228538,-5,-6,-10,-13,-21,-7,-14,-9
1558442054234521,2,3,4,2,5,2,3,0
1558442054234521,1,2,-2,3,5,-6,8,5
1558442054250506,-2,-3,-5,-7,-5,1,-6,-7
1558442054250506,2,1,2,5,8,0,6,1
1558442054257522,-5,-5,6,12,8,13,2,-2
1558442054257522,-3,-5,-30,-33,-18,-16,3,-2
1558442054273719,1,4,-2,5,9,11,2,0
1558442054273719,-6,-6,-5,-8,-8,-3,-6,-3
1558442054275412,-2,1,0,-3,-6,-2,-6,-3
1558442054275412,0,-2,1,5,2,6,6,2
1558442054287611,-1,-2,4,0,2,-6,4,1
1558442054287611,-2,-2,-3,2,3,-1,2,0
1558442054294364,-3,-5,-11,-14,-3,-3,-6,-4
1558442054294364,1,1,9,12,2,5,4,2
1558442054310544,1,0,-3,3,-4,-4,-2,-1
1558442054310544,-2,-1,0,-5,0,-3,-6,-2
1558442054317301,-2,-1,-14,-16,-7,-8,0,-1
1558442054317301,1,-1,8,13,2,0,-9,-2
1558442054333260,1,1,1,-2,-6,-7,0,1
1558442054333260,-3,-3,-11,-7,-8,-2,-1,-4
1558442054334258,0,-1,7,9,2,4,12,2
1558442054334258,-1,-2,-22,-27,-1,-9,-3,2
1558442054347218,-3,-2,4,11,5,7,1,-1
1558442054347218,-1,-1,6,-7,-2,-2,-9,-5
1558442054354537,1,1,0,0,-1,1,2,1
1558442054354537,1,2,10,9,-1,0,6,1
1558442054370533,0,-2,-5,-6,1,-4,-5,-2
1558442054370533,-1,0,-2,-6,-3,2,-1,-1
1558442054377167,-1,-4,4,10,-10,-8,-5,-2
1558442054377167,1,4,-1,-14,15,10,9,3
1558442054394124,0,-2,2,0,-1,-10,-1,1
1558442054394124,1,1,4,10,1,-2,0,1
1558442054395090,-1,-4,-16,-21,-1,7,-2,1
1558442054395090,-2,-1,8,19,-7,3,-7,-6
1558442054416422,1,1,-3,-8,-6,-9,-1,-1
1558442054416422,-2,0,3,8,9,2,6,1
1558442054417037,1,-3,0,-4,-7,-16,-9,-4
1558442054417037,-1,-2,0,4,4,13,0,0
1558442054430368,-2,-2,-2,-1,1,2,3,-2
1558442054430368,-1,0,-5,0,-3,-5,-5,-3
1558442054437338,-3,1,4,4,-2,4,-5,-1
1558442054437338,-1,-2,1,-1,-6,-8,-5,-3
1558442054453934,-1,-3,6,8,0,9,4,-2
1558442054453934,1,1,-9,-20,6,-3,1,2
1558442054454971,-1,1,-6,-11,-1,-3,3,3
1558442054454971,-4,-3,11,14,3,3,0,-2
1558442054467211,-4,-6,-9,-16,-13,-7,-10,-3
1558442054467211,-1,-4,-4,3,-12,0,-7,-4
1558442054475910,4,7,14,6,26,14,11,5
1558442054475910,-3,-1,-10,-8,-3,-4,-6,-3
1558442054490105,-1,1,-6,-9,0,-4,4,0
1558442054490105,1,0,6,11,-6,-3,-1,-1
1558442054496829,-4,-1,-6,-7,-10,-5,-11,-5
1558442054496829,-1,0,-4,-6,-12,-12,-9,-1
1558442054512780,0,0,0,0,12,2,3,4
1558442054512780,4,-1,2,3,2,5,4,3
1558442054514780,-2,-6,-8,-4,-6,-9,-3,-6
1558442054514780,-1,-1,-1,-2,0,4,0,-1
1558442054526957,-2,-3,-4,-2,-8,-2,-6,-4
1558442054526957,0,-1,11,6,3,-5,4,5
1558442054535716,0,-1,-10,1,-4,-2,-4,1
1558442054535716,-2,-1,5,-9,-1,-7,3,-1
1558442054549682,0,0,4,17,3,5,4,-2
1558442054549682,-4,-1,-3,-6,0,4,-5,-3
1558442054556659,-2,-1,5,3,-5,-6,-2,-2
1558442054556659,-5,-2,-12,-5,4,1,-2,-2
1558442054573974,-1,2,10,8,-1,2,1,-2
1558442054573974,1,-1,-11,-15,2,-4,-5,0
1558442054575622,2,4,3,-4,-1,1,1,0
1558442054575622,-3,-5,-6,5,5,0,1,0
1558442054587601,0,0,2,-10,-9,-3,-3,-1
1558442054587601,-2,-2,-12,-2,-7,-5,0,0
1558442054595556,-1,-3,6,2,-7,-4,-7,1
1558442054595556,3,3,4,3,2,3,-3,-2
1558442054610817,1,1,-6,-6,6,7,5,4
1558442054610817,-2,0,1,4,2,2,3,-1
1558442054616842,-1,-2,-3,-1,0,0,2,-2
1558442054616842,-1,0,2,4,-1,-3,-1,-2
1558442054633790,1,1,3,20,4,-6,-5,0
1558442054633790,0,-1,-9,-21,-8,-3,3,-1
1558442054635779,-2,-2,9,13,1,-6,-3,-3
1558442054635779,-1,-2,-14,-20,0,4,0,1
1558442054647549,-5,-5,-7,-8,-13,-11,-8,-3
1558442054647549,-2,-1,2,8,1,-4,2,0
1558442054655720,-4,-5,-13,-9,-4,6,0,-3
1558442054655720,1,2,12,9,2,2,8,2
1558442054670702,-1,0,-7,-13,0,2,4,-1
1558442054670702,-1,-1,-2,0,2,3,-6,-3
1558442054677536,1,1,-1,-4,-3,-16,3,1
1558442054677536,-1,-2,0,1,-8,2,-6,-8
1558442054693294,-2,-2,-1,0,0,-1,-3,-2
1558442054693294,-2,-4,2,6,-2,1,2,-2
1558442054699582,3,3,6,10,12,3,1,4
1558442054699582,2,-1,-4,-6,-3,0,0,1
1558442054707507,3,2,1,17,7,11,4,-1
1558442054707507,-6,-7,-10,-24,-12,-15,-9,-6
1558442054716232,-5,-7,-2,-1,-7,-3,-8,-2
1558442054716232,-1,1,-1,-4,2,-1,4,2
1558442054730479,-3,-5,-1,-11,-8,0,-2,-4
1558442054730479,1,2,0,4,2,4,0,0
1558442054737175,-3,0,0,2,-2,1,-1,-4
1558442054737175,-2,-1,-2,0,-1,-5,-3,-1
1558442054752138,1,3,4,3,1,-3,-4,0
1558442054752138,0,-2,-9,-2,1,-1,-3,-3
1558442054759147,3,1,8,6,5,7,7,1
1558442054759147,-3,-5,-15,-27,-11,-11,-1,-1
1558442054767096,-2,-4,-6,-12,6,6,5,3
1558442054767096,1,3,12,14,3,-4,-3,2
1558442054776073,-3,-2,-8,-1,-6,1,-2,-1
1558442054776073,-1,0,2,3,-1,-3,-8,-3
1558442054790393,2,-2,-2,-8,-7,-2,-6,-4
1558442054790393,-1,1,2,6,2,6,13,2
1558442054797390,-1,-1,6,2,7,-9,-9,-2
1558442054797390,1,-2,-10,3,-2,5,3,2
1558442054811983,-3,-2,3,-4,5,-7,-2,0
1558442054811983,0,0,4,5,-2,1,-1,-1
1558442054820248,0,-2,-7,-11,-11,-4,-7,-2
1558442054820248,-2,0,6,12,2,-8,1,1
1558442054827300,-1,0,-7,-4,-5,1,-1,-2
1558442054827300,-1,-2,-5,-3,2,10,2,2
1558442054835916,4,4,12,8,11,6,9,4
1558442054835916,0,-2,-12,-10,-6,-4,-7,-5
1558442054850176,-5,-3,-10,-5,-8,-8,-7,-4
1558442054850176,2,0,0,6,5,-1,8,5
1558442054857103,-3,-4,-11,-28,-18,-6,-6,-8
1558442054857103,1,1,13,20,15,10,3,4
1558442054873092,-1,1,4,4,-3,-4,-2,-3
1558442054873092,0,3,5,1,-2,-2,-8,-3
1558442054879797,-3,-3,-2,9,3,11,4,-1
1558442054879797,-2,0,-12,-16,-2,9,3,-2
1558442054895755,0,-1,7,5,-4,-15,-5,1
1558442054895755,2,0,-3,-7,6,9,4,1
1558442054896750,0,1,10,15,4,-2,5,1
1558442054896750,-3,-1,1,-4,-1,1,-1,-1
1558442054909716,3,0,3,5,8,5,9,5
1558442054909716,-4,-3,0,6,-2,0,-10,-6
1558442054916726,-3,-2,-16,-17,-8,-1,-10,-4
1558442054916726,1,1,2,-2,-9,-16,-7,-1
1558442054932653,1,4,5,1,9,11,1,0
1558442054932653,-3,-6,-2,0,-6,-16,-3,0
1558442054939635,0,0,0,3,4,6,3,0
1558442054939635,-2,-6,-11,-4,-8,-3,-3,-1
1558442054955592,-1,-3,-5,-4,-10,-13,-4,-2
1558442054955592,-2,-2,0,-4,-6,2,-4,-2
1558442054957586,1,0,4,9,-1,5,-4,0
1558442054957586,-2,0,1,-12,2,5,1,-4
1558442054970836,-2,1,-2,1,5,2,8,2
1558442054970836,2,1,-3,-11,3,-16,4,5
1558442054977812,-1,-1,3,4,-2,-5,1,0
1558442054977812,2,1,7,7,2,3,0,-1
1558442054993000,-4,-5,-6,-5,-4,5,-5,-4
1558442054993000,-3,-1,0,-3,-7,-16,-9,-4
1558442054999993,1,-3,-6,-7,-5,-2,-1,-2
1558442054999993,1,0,6,6,5,2,3,3
1558442055016657,2,2,17,10,12,6,3,-1
1558442055016657,-2,-6,-30,-10,-12,2,-3,-4
1558442055017437,-3,-3,-10,-22,-5,-6,-4,0
1558442055017437,0,-3,-5,-1,-4,-7,-2,1
1558442055030855,-1,-1,-3,7,-2,-3,2,1
1558442055030855,1,3,4,0,9,12,8,-1
1558442055037665,-5,-1,-3,-4,-6,-8,-6,-4
1558442055037665,-3,-3,-3,2,-5,7,-3,-4
1558442055053352,0,1,3,-2,-2,-5,-3,0
1558442055053352,0,-2,3,4,0,-11,-2,0
1558442055059668,-1,-1,-6,-1,1,2,9,3
1558442055059668,2,5,12,12,19,2,7,6
1558442055076635,1,0,11,5,-1,-7,-6,0
1558442055076635,-8,-10,-22,-9,-14,-3,-12,-12
1558442055077270,0,-1,-10,-17,-9,1,2,2
1558442055077270,-3,-5,-10,-13,-5,-3,-3,-3
1558442055090597,-2,-1,-6,-2,-9,-1,-5,-5
1558442055090597,3,4,15,7,9,4,5,4
1558442055097588,3,3,6,6,9,-8,-1,3
1558442055097588,-1,-4,-5,1,-8,-6,-11,-5
1558442055113212,-2,-5,-6,-5,-2,8,2,-2
1558442055113212,1,2,7,-1,4,10,4,-1
1558442055119508,-2,-2,-1,3,3,10,-5,-6
1558442055119508,0,0,5,-1,-3,-11,0,1
1558442055136450,-3,-2,-3,-2,-6,-4,-8,-5
1558442055136450,-3,-2,-2,-5,6,7,6,-1
1558442055143090,1,-1,-3,3,4,7,2,-2
1558442055143090,0,0,0,-4,-5,1,-1,0
1558442055150143,-1,0,-8,-6,-8,-16,-2,1
1558442055150143,-1,1,-6,-24,-7,10,2,2
1558442055157055,-1,0,6,12,7,0,-3,-1
1558442055157055,-2,0,0,3,-1,-1,-2,-4
1558442055173318,-1,-5,-1,0,1,3,0,-3
1558442055173318,1,0,3,2,-8,-13,-10,-1
1558442055178996,5,3,18,11,6,-3,8,5
1558442055178996,-2,0,-10,9,14,16,16,3
1558442055196202,-3,-2,-18,-27,-14,-6,0,-1
1558442055196202,-1,-3,-5,1,-6,1,-1,-1
1558442055196947,-2,-6,-8,-4,-10,-11,-3,-3
1558442055196947,1,2,5,4,11,7,4,-1
1558442055210248,1,0,6,10,8,4,0,3
1558442055210248,0,0,0,3,-1,2,2,0
1558442055217214,-1,-2,2,6,3,-3,-7,0
1558442055217214,0,0,5,-10,-10,-6,-5,0
1558442055232879,2,0,-7,-6,1,8,-1,-1
1558442055232879,-2,0,1,3,-2,-1,2,0
1558442055238962,2,2,-1,1,4,-1,2,1
1558442055238962,0,-1,-1,2,-4,-9,-11,-3
1558442055256133,-1,-3,-1,-3,5,9,4,-2
1558442055256133,-3,-2,1,0,-8,-8,-8,-4
1558442055257870,-6,-3,-6,-5,-8,-2,-8,-5
1558442055257870,-2,1,5,9,1,-6,2,-3
1558442055269968,4,8,14,4,25,5,7,4
1558442055269968,-5,-9,-15,-7,-15,-4,-8,-2
1558442055276735,-3,-3,-8,-12,-11,-7,-3,2
1558442055276735,-3,-6,-8,-5,-15,1,-8,-5
1558442055293006,1,1,19,24,6,8,-1,-1
1558442055293006,4,7,6,16,18,-7,9,5
1558442055299984,-4,-4,-5,-17,-7,1,-5,-7
1558442055299984,-2,-9,-18,-19,-13,-6,-6,-3
1558442055315942,0,-2,-12,-6,-1,-9,2,1
1558442055315942,-3,0,4,-3,-3,3,0,-3
1558442055316627,-2,-1,-3,5,-1,2,-2,-1
1558442055316627,-2,0,2,1,-1,-5,-5,-4
1558442055329651,-4,-4,-4,-5,-8,6,0,-3
1558442055329651,2,2,-2,-5,4,-5,0,2
1558442055338568,1,1,8,1,7,-4,8,5
1558442055338568,-3,0,4,10,7,5,-3,-2
1558442055352868,-1,-1,-5,-6,-1,2,2,1
1558442055352868,0,-2,9,4,4,6,-4,-3
1558442055359831,1,2,-5,-4,-6,2,2,1
1558442055359831,2,-1,-1,2,-2,-10,7,3
1558442055376779,-1,1,4,4,-1,3,0,-3
1558442055376779,-4,-1,-18,-16,-4,-18,-12,-6
1558442055377464,1,-4,-14,-17,-12,-7,-2,-2
1558442055377464,2,-1,5,-5,7,6,1,5
1558442055389799,-2,-3,-1,4,6,6,2,-1
1558442055389799,-2,-4,5,5,-3,11,-4,-3
1558442055398447,0,-3,0,7,-5,-5,-13,-6
1558442055398447,1,6,12,7,3,6,11,3
1558442055412423,-1,0,-11,-15,-6,-19,-4,0
1558442055412423,-3,-5,-6,-2,1,5,-2,-1
1558442055419464,1,3,15,5,13,16,5,0
1558442055419464,-3,-4,-12,-1,-1,-6,0,-2
1558442055435430,-1,-3,3,-1,-9,-6,-3,-2
1558442055435430,0,0,-4,-3,-4,-3,3,-3
1558442055437422,-1,-2,3,12,-8,-3,-7,-4
1558442055437422,2,1,3,-7,-4,0,-5,-2
1558442055449390,3,3,-3,2,6,-1,3,5
1558442055449390,-1,-2,11,6,11,-4,2,-1
1558442055458300,-2,-5,-9,0,-6,3,-1,-2
1558442055458300,-3,-4,-9,-22,-9,1,-6,-4
1558442055472296,-1,-2,-6,1,-11,-10,-5,-2
1558442055472296,1,1,6,10,10,-2,-1,2
1558442055486666,2,0,-3,-12,5,12,7,3
1558442055486666,-6,-6,-6,11,-7,-12,-12,-7
1558442055495592,-2,0,-10,-22,-11,0,1,2
1558442055495592,-1,2,-5,-4,-8,-10,1,2
1558442055496585,-3,0,4,-1,-3,-5,0,-5
1558442055496585,0,2,-7,-1,4,5,1,1
1558442055509587,-1,-2,2,9,7,11,8,-1
1558442055509587,-1,0,4,2,-5,6,-3,-2
1558442055518529,-3,-4,-12,-5,-7,-4,-3,-2
1558442055518529,2,3,6,2,10,-4,1,4
1558442055532622,1,-1,4,1,2,-5,-4,-2
1558442055532622,2,-4,-3,-5,-11,-6,-2,0
1558442055539596,0,1,4,11,10,5,5,3
1558442055539596,2,3,9,-1,-6,4,-4,0
1558442055555549,-9,-9,-10,-18,-7,-11,-13,-11
1558442055555549,0,1,0,1,9,7,9,3
1558442055557511,2,0,-3,-3,0,-9,-1,0
1558442055557511,-2,-2,3,6,-5,-6,1,0
1558442055569483,0,3,6,3,-1,0,-5,3
1558442055569483,0,1,2,-1,-8,-5,-2,-1
1558442055578456,-2,0,1,3,5,3,-3,-3
1558442055578456,2,2,6,13,6,-1,3,1
1558442055600398,0,-2,-2,-18,3,6,-7,-2
1558442055600398,0,-2,-7,-6,-5,-8,3,0
1558442055602393,-2,-3,-16,-17,-9,-18,-2,2
1558442055602393,-2,-3,-7,-8,-7,-4,-5,-3
1558442055615429,0,-1,8,14,-5,1,-1,-2
1558442055615429,-1,-1,5,13,8,8,0,0
1558442055630474,2,0,0,-8,2,2,5,0
1558442055630474,-2,0,2,9,4,-2,0,-2
1558442055630474,-1,1,2,-8,2,2,0,1
1558442055630474,0,2,5,-6,5,17,2,1
1558442055638755,-5,-5,-8,-3,-6,-11,-8,-4
1558442055638755,0,-3,-14,-10,-9,-2,-5,-1
1558442055652742,-1,-4,3,13,1,-6,10,2
1558442055652742,0,-1,0,3,-1,-11,-6,1
1558442055659846,-1,-1,-7,-9,-1,6,-3,-6
1558442055659846,1,0,5,-1,2,5,1,-3
1558442055674649,-3,-2,-9,2,-4,1,-10,-7
1558442055674649,-1,0,11,6,-3,2,4,1
1558442055681713,0,2,-6,-17,2,0,4,2
1558442055681713,-3,-4,-13,-3,-3,-11,1,1
1558442055697671,-2,1,-6,-8,0,-1,-2,-1
1558442055697671,-3,-2,-5,1,-11,-3,-10,-6
1558442055699636,0,3,19,22,4,8,3,1
1558442055699636,-3,-2,-12,-11,-1,-3,-1,-2
1558442055712600,-1,2,17,33,11,7,3,1
1558442055712600,-1,-4,-14,-21,-12,-14,-7,-5
1558442055719581,2,1,1,5,14,6,8,5
1558442055719581,0,0,3,-5,-2,1,-5,-2
1558442055735558,-4,-5,-19,-11,-12,-4,3,-2
1558442055735558,-4,-5,-2,8,-3,2,-10,-6
1558442055741663,0,2,7,5,-1,3,-3,3
1558442055741663,2,1,5,1,8,3,5,2
1558442055758521,-2,-1,-2,-11,2,2,8,4
1558442055758521,1,0,-6,-5,-4,-4,2,-1
1558442055759476,-1,-3,-5,-8,-5,-2,-6,-4
1558442055759476,-4,-1,-1,5,3,11,-2,-1
1558442055780608,-1,-2,-6,-10,-3,-3,-8,-3
1558442055780608,2,4,7,9,16,14,13,3
1558442055782414,-1,-5,-4,-3,-8,-4,1,-3
1558442055782414,-1,0,4,1,-2,-8,-2,-1
1558442055795380,0,-1,-1,-3,-3,-3,-1,-4
1558442055795380,0,-1,0,1,-3,-7,-2,0
1558442055809544,-7,-5,-7,1,-8,3,-7,-5
1558442055809544,-4,-3,2,-3,-5,0,3,-2
1558442055818377,1,1,0,-16,-6,-21,-6,0
1558442055818377,-1,0,-2,12,4,2,0,0
1558442055819352,-1,-3,-1,-2,-3,-2,-6,-5
1558442055819352,-2,-2,-3,-12,-6,4,-5,-3
1558442055832345,1,3,3,13,-3,-4,0,-2
1558442055832345,-1,-4,-17,-22,-4,-2,0,-2
1558442055839331,0,0,-8,-8,8,1,7,3
1558442055839331,-1,-1,12,17,4,-1,-4,-2
1558442055863344,-1,-1,1,-2,-6,0,-1,1
1558442055863344,-2,-1,-2,-5,-1,5,-3,-4
1558442055864313,-2,0,2,11,3,10,2,-2
1558442055864313,3,2,5,13,15,-4,5,5
1558442055878275,0,-1,-1,-4,3,2,2,2
1558442055878275,0,-2,4,3,-3,-5,-3,3
1558442055879271,-3,-2,3,-2,-9,-9,-9,-6
1558442055879271,-1,1,5,8,-1,1,-1,-4
1558442055892272,-2,-4,-12,-13,-6,-8,-6,-5
1558442055892272,-1,0,5,6,-2,-6,3,1
1558442055924150,0,-1,-2,1,1,8,3,2
1558442055924150,-2,-2,-4,-6,-1,0,-1,-2
1558442055924150,0,-1,1,6,10,-7,1,5
1558442055924150,-4,-2,-4,1,1,4,2,3
1558442055926148,0,2,4,0,-3,-7,-4,-1
1558442055926148,-4,0,1,-1,-10,1,-3,-5
1558442055938147,-1,0,0,-4,-3,6,-6,-5
1558442055938147,-1,0,6,5,3,6,-3,-3
1558442055939112,-1,1,7,9,1,-10,8,0
1558442055939112,0,0,-12,-15,0,0,-1,3
1558442055961057,-3,-4,-10,-5,-10,-7,-5,-2
1558442055961057,-2,-3,5,10,4,-3,-3,-3
1558442055962050,-1,-2,1,-2,-9,0,-6,-2
1558442055962050,-2,-4,-10,-9,-7,-1,-4,-1
1558442055975016,2,3,9,13,9,-2,6,2
1558442055975016,-3,-2,-3,-9,-5,-3,-4,-7
1558442055988978,0,0,0,9,0,-11,2,0
1558442055988978,3,2,4,6,8,2,9,4
1558442055997991,-4,-4,-18,-19,-5,2,-4,-1
1558442055997991,0,-2,-1,-6,-3,-3,4,-1
1558442055999949,-2,1,1,-4,-13,-14,-13,-4
1558442055999949,1,-2,-2,-2,-2,4,-4,-1
1558442056011917,1,1,6,12,6,7,7,0
1558442056011917,1,3,-3,-11,5,1,-3,1
1558442056018902,-2,-4,-5,-3,-3,1,-3,-2
1558442056018902,-2,-2,-1,-5,-7,-9,-5,-3
1558442056034855,3,4,20,28,15,12,3,1
1558442056034855,-1,-2,-16,-31,3,-3,-4,0
1558442056042837,0,0,-1,-8,1,5,3,1
1558442056042837,-2,-1,-5,-3,-10,0,-5,-1
1558442056066776,-2,-1,0,1,-3,-7,2,2
1558442056066776,-1,-1,6,12,0,0,0,-1
1558442056067767,2,-1,3,5,8,-2,2,1
1558442056067767,-3,-3,-6,-12,-5,0,-8,-6
1558442056075028,-4,-3,-2,-3,-15,-10,-4,-2
1558442056075028,1,1,1,3,3,2,0,-1
1558442056086718,3,4,11,16,12,14,8,2
1558442056086718,-2,-4,-6,-11,2,-2,3,-4
1558442056094699,-6,-6,-16,-19,-7,-2,-5,-4
1558442056094699,-5,-5,-8,-19,-21,-6,-4,-2
1558442056101679,-2,-3,-8,-4,-2,0,-2,-1
1558442056101679,-2,3,10,12,2,-1,5,2
1558442056117635,-2,-3,-1,3,-1,-5,-3,-4
1558442056117635,-2,-3,-4,-9,-1,0,-2,0
1558442056119628,-1,-1,1,1,-3,-3,-5,-3
1558442056119628,2,1,-1,0,9,6,6,2
1558442056140573,2,-2,-2,-1,4,7,1,-1
1558442056140573,-2,1,3,8,-9,-5,-5,-4
1558442056142569,-3,-5,-4,0,-7,-3,-2,-1
1558442056142569,4,4,16,7,12,3,7,4
1558442056154536,-3,-4,-14,-22,-3,-7,-1,2
1558442056154536,0,1,3,9,-1,3,5,2
1558442056161518,-4,-4,-8,-12,-3,-1,-5,-4
1558442056161518,-3,-1,-1,-2,-10,-11,-5,0
1558442056178477,2,4,12,10,1,3,1,-2
1558442056178477,0,-2,-2,-2,0,0,-1,-1
1558442056179469,-3,-2,-3,-2,0,2,-7,-5
1558442056179469,0,0,-2,1,-1,-14,-5,-1
1558442056192445,2,4,13,15,6,11,7,3
1558442056192445,-7,-9,-18,-25,-9,-6,-5,-5
1558442056199415,0,-3,-22,-20,-6,-10,-3,1
1558442056199415,-1,-2,-5,-6,2,6,3,0
1558442056215379,-1,1,3,3,2,7,2,1
1558442056215379,1,2,10,12,2,1,-1,-1
1558442056221356,0,0,8,6,11,5,4,2
1558442056221356,-1,-3,-14,-13,-20,-19,-9,-6
1558442056238311,0,2,8,14,8,4,-2,3
1558442056238311,-2,-2,1,-10,-5,-1,-5,-4
1558442056239309,-4,-4,-22,-12,-10,-10,-9,-1
1558442056239309,-4,-3,8,14,8,13,1,-1
1558442056252274,-4,-6,-11,-15,-6,-7,-3,-4
1558442056252274,0,0,6,12,6,3,11,8
1558442056259254,0,1,2,0,-3,-5,0,1
1558442056259254,-4,-4,-7,-2,0,6,-7,-4
1558442056275213,-1,-3,-2,-4,-5,-8,2,-2
1558442056275213,2,1,5,13,11,8,0,1
1558442056282201,2,0,5,5,4,-3,1,0
1558442056282201,-1,-1,-7,-6,-4,0,-6,-2
1558442056298158,0,1,0,-4,0,3,-6,-2
1558442056298158,-4,-4,-6,-10,-15,-14,-4,-1
1558442056299149,-1,1,9,12,2,0,0,2
1558442056299149,-1,-2,2,-2,2,4,8,1
1558442056312114,-2,2,1,5,1,-3,-3,-4
1558442056312114,-1,-1,-2,2,-4,6,0,-4
1558442056321089,-4,-4,-16,-13,-8,1,0,-1
1558442056321089,-2,0,3,-3,-7,-28,1,2
1558442056335053,-2,-4,-4,-9,-7,-7,-7,-5
1558442056335053,2,-1,7,14,9,11,1,1
1558442056343031,1,2,12,2,13,18,7,0
1558442056343031,1,2,5,22,-7,-2,-3,-3
1558442056357991,-4,-4,-25,-34,-7,-11,-1,0
1558442056357991,0,0,-5,-6,3,-6,-3,-1
1558442056359991,-2,-2,4,2,-7,-6,-5,-7
1558442056359991,1,-1,0,-3,6,9,4,0
1558442056371959,2,1,16,16,-6,-5,-4,-1
1558442056371959,-1,-4,-19,-15,-3,-5,1,-1
1558442056380931,0,0,-1,10,1,7,6,2
1558442056380931,0,1,3,-10,2,-2,5,-1
1558442056394895,-3,-5,-9,-1,-7,2,-7,-4
1558442056394895,-1,2,13,6,-2,-10,-3,-1
1558442056401874,1,0,8,11,3,-7,3,2
1558442056401874,-4,-3,-13,-18,-4,11,-5,-3
1558442056417842,-1,2,1,2,5,1,0,-1
1558442056417842,2,2,2,-1,3,2,-3,-1
1558442056419826,-2,0,1,-5,0,4,1,0
1558442056419826,-1,1,4,1,5,0,-6,-1
1558442056431793,-1,-7,-18,-16,-8,-2,4,-2
1558442056431793,-1,0,2,10,-1,2,1,-1
1558442056440770,-1,-1,2,-2,-1,-8,-8,-5
1558442056440770,3,2,6,3,-9,-8,-5,-1
1558442056454733,-2,-2,-9,1,0,-1,-3,-3
1558442056454733,1,0,4,-1,2,6,2,1
1558442056461717,-1,0,-5,-6,-2,-4,-3,-1
1558442056461717,-1,-2,-3,1,3,-4,-6,-2
1558442056478670,1,1,9,3,0,3,3,0
1558442056478670,-5,-4,-3,5,-3,0,-6,-1
1558442056480664,2,-2,-8,-21,1,5,7,1
1558442056480664,-3,-4,-8,-6,-4,-7,-9,-4
1558442056491635,0,1,10,10,9,6,3,6
1558442056491635,-3,-1,-9,-8,-8,-13,-5,-6
1558442056500610,-1,0,4,-2,10,11,4,-1
1558442056500610,0,-2,-4,3,0,6,6,0
1558442056514573,-1,-3,-6,-6,-12,-8,-4,-1
1558442056514573,2,1,7,12,10,4,4,4
1558442056521554,-2,-1,-4,-5,-4,-10,-5,1
1558442056521554,-1,-1,-2,-1,-3,-1,-1,1
1558442056537518,0,-1,1,-3,-1,4,-3,-4
1558442056537518,0,-1,0,0,2,7,-2,0
1558442056544495,0,2,13,12,-3,-5,-7,-3
1558442056544495,-2,-3,-8,-21,1,-1,9,4
1558442056551476,-5,-2,-3,4,-3,0,2,-1
1558442056551476,-2,-1,1,4,-4,-7,-4,-4
1558442056560451,2,1,4,4,9,9,3,0
1558442056560451,-3,-4,-4,1,-8,0,-7,-5
1558442056575411,0,0,0,-1,-3,-12,-2,0
1558442056575411,0,2,-2,-9,0,0,2,-2
1558442056583392,-6,-4,-2,1,-10,-1,-15,-9
1558442056583392,2,-1,2,12,9,14,8,2
1558442056606327,5,7,13,2,5,-13,4,5
1558442056606327,-7,-11,-30,-26,-10,-3,-8,-8
1558442056607324,-1,-1,2,18,-3,1,0,1
1558442056607324,-2,-6,-10,-21,-8,-3,-3,-2
1558442056611314,1,2,6,5,6,8,4,3
1558442056611314,0,4,2,3,-1,-3,-3,0
1558442056620290,-2,-5,-8,-7,-5,-3,-2,-2
1558442056620290,-3,-3,-3,1,-10,-10,-10,-6
1558442056635255,-3,-2,-1,1,7,14,10,-3
1558442056635255,2,3,6,1,10,-11,6,3
1558442056641234,2,-1,-5,-6,1,-10,2,3
1558442056641234,3,-1,5,9,-2,-4,4,1
1558442056657191,-2,-1,10,-3,-6,3,-11,-8
1558442056657191,-6,-9,-34,-33,-7,-12,-1,-3
1558442056664173,-2,-1,-10,-9,-12,-12,-2,-1
1558442056664173,-4,-2,2,5,-4,0,-3,-1
1558442056672150,-2,-1,-4,-8,2,10,1,2
1558442056672150,-2,-1,14,14,-1,-11,-3,-1
1558442056680129,0,1,-3,-4,-5,-2,-2,-2
1558442056680129,0,1,-1,-2,2,4,1,0
1558442056695091,0,-3,-5,5,7,14,3,-1
1558442056695091,5,4,21,24,12,5,3,5
1558442056702072,-3,-4,-11,-13,-3,-2,-2,-4
1558442056702072,-2,2,4,6,2,2,2,0
1558442056717030,-1,-4,-27,-15,-12,-9,-8,-2
1558442056717030,-1,0,11,11,5,10,-4,0
1558442056724012,0,0,7,7,3,-12,3,2
1558442056724012,0,2,8,8,13,1,-4,1
1558442056740966,-2,-2,-3,-8,-8,-5,-2,0
1558442056740966,3,3,17,26,5,-9,0,0
1558442056741963,-4,-6,-19,-24,-11,5,-2,-8
1558442056741963,-3,-2,-4,-6,-5,-2,-4,-4
1558442056754930,2,-3,3,7,6,-4,3,2
1558442056754930,1,2,4,2,1,8,5,4
1558442056761911,1,2,8,10,4,0,0,3
1558442056761911,1,-1,-6,-5,1,-2,3,1
1558442056776878,-6,-3,9,5,-5,8,-9,-8
1558442056776878,-4,-2,-13,-21,-8,9,1,-1
1558442056783853,3,4,4,13,8,-10,3,4
1558442056783853,1,1,-3,-3,5,-2,3,-1
1558442056800807,-6,-1,1,0,-8,-11,-10,-6
1558442056800807,-1,-3,-8,-9,1,7,0,0
1558442056801809,1,0,1,-11,1,-5,-1,4
1558442056801809,1,-3,-12,-12,-11,-7,-6,-5
1558442056814769,0,2,-1,0,7,3,1,2
1558442056814769,-1,-2,5,6,-6,1,-2,-1
1558442056821752,-5,-5,-3,-4,-5,-4,-7,-5
1558442056821752,0,-1,1,-4,-2,0,9,5
1558442056837708,3,3,0,-1,6,-9,5,5
1558442056837708,-3,-3,-7,-13,-7,1,-4,-4
1558442056844690,-1,0,9,12,-3,6,-8,-5
1558442056844690,-4,-3,-1,1,-2,2,1,0
1558442056860647,-1,0,-1,-5,1,-13,1,1
1558442056860647,1,1,7,8,7,5,7,3
1558442056861651,-1,-3,-11,-6,-9,-7,-9,-5
1558442056861651,-4,-4,4,6,0,7,-5,-6
1558442056874609,-4,-2,-11,-8,-3,10,2,-2
1558442056874609,1,1,6,0,-2,-11,-2,0
1558442056881592,-2,0,-1,5,4,3,2,0
1558442056881592,1,1,-4,-2,9,5,-2,2
1558442056897549,1,2,8,8,-6,-7,-4,-1
1558442056897549,2,2,3,-3,3,0,-5,0
1558442056904532,-2,-3,-13,-11,-10,0,2,-5
1558442056904532,1,0,7,6,5,1,-2,-1
1558442056920486,1,2,9,9,9,6,3,-1
1558442056920486,-3,-3,-7,-11,-8,-19,0,-2
1558442056921484,-2,-4,-1,3,-7,-6,-2,0
1558442056921484,0,2,8,10,9,-2,3,-2
1558442056934454,-1,-4,-12,-12,-10,0,-5,0
1558442056934454,-2,-2,-3,4,-1,2,-3,-1
1558442056941430,0,0,4,1,8,9,5,2
1558442056941430,-5,-1,0,-1,-10,-10,-2,-2
1558442056957414,-1,-2,-9,3,-4,-1,-2,-4
1558442056957414,1,-1,-6,-18,-6,-5,-3,-3
1558442056964369,0,2,10,4,11,7,2,-1
1558442056964369,-3,-4,-14,-2,-6,5,-4,-5
1558442056980327,0,-1,10,9,-1,0,2,0
1558442056980327,-3,-4,-7,3,2,9,-2,-4
1558442056982321,2,1,0,-8,-1,-3,2,5
1558442056982321,2,1,-2,1,-8,-18,-2,3
1558442056995287,-2,-2,-1,-13,-3,-7,3,2
1558442056995287,0,2,10,11,4,-11,-2,0
1558442057001272,-3,-1,-5,4,0,5,0,-1
1558442057001272,-3,-5,-11,-13,-9,-1,-11,-5
1558442057017229,-2,-1,-5,-10,0,9,0,-2
1558442057017229,-1,-4,-7,-14,-5,10,5,-2
1558442057024210,0,-1,5,4,2,-4,3,0
1558442057024210,-2,-2,-8,-10,-10,-12,-5,-3
1558442057040171,1,0,5,5,13,16,10,4
1558442057040171,-1,1,1,2,-3,-7,-5,-1
1558442057042161,-5,-5,-9,-14,-16,-8,-10,-7
1558442057042161,-2,-1,0,-1,-2,1,4,0
1558442057055126,0,0,8,5,6,-3,2,4
1558442057055126,1,1,2,3,-3,-2,0,1
1558442057062107,2,-3,-4,2,1,-3,2,-3
1558442057062107,-1,-3,-1,-13,-6,-3,-9,-5
1558442057078327,1,1,2,7,8,1,-3,1
1558442057078327,-2,-2,-1,-5,-6,0,8,0
1558442057084049,-3,0,-5,-14,-7,-1,-3,-2
1558442057084049,2,1,5,6,6,2,-3,1
1558442057100007,-2,-3,-5,-5,-14,-13,-7,-7
1558442057100007,-3,-1,-2,8,6,18,3,-1
1558442057101003,2,1,7,11,6,-7,-1,1
1558442057101003,0,0,-1,-11,-3,3,7,2
1558442057115968,0,0,-10,-8,-2,-2,-10,-6
1558442057115968,-2,0,-5,-12,-3,4,0,-2
1558442057121951,0,-3,2,6,2,2,4,3
1558442057121951,0,2,5,2,9,-6,5,4
1558442057152865,0,-2,-5,-2,-9,-14,-5,1
1558442057152865,0,-5,-9,-1,-4,-2,-7,-5
1558442057153863,-1,-1,0,-3,4,11,0,-4
1558442057153863,-1,-3,1,2,0,7,-1,-1
1558442057159846,-2,-2,6,9,1,-3,1,-1
1558442057159846,1,0,-9,-7,-6,-19,-5,1
1558442057160845,1,1,-2,3,2,-6,-1,7
1558442057160845,-2,-1,-1,-4,-3,3,-2,-5
1558442057175803,-2,-2,-5,-2,2,7,-1,-3
1558442057175803,-1,0,3,1,4,1,0,-1
1558442057181792,-2,-2,2,5,-6,1,-2,-3
1558442057181792,-4,-1,-1,4,-2,-13,4,-1
1558442057197747,-1,-2,-4,-14,-2,8,4,0
1558442057197747,1,-1,-6,1,9,5,5,4
1558442057204727,1,0,-4,-3,-1,-1,2,0
1558442057204727,-1,-1,4,2,0,6,0,0
1558442057219691,-1,-2,3,1,-3,0,2,-4
1558442057219691,-3,-4,-6,-4,-7,-11,-8,-4
1558442057220689,2,2,8,7,7,9,2,0
1558442057220689,0,-4,-4,-2,-10,-8,-8,-1
1558442057235644,-3,-2,-5,-9,-3,1,2,-1
1558442057235644,1,2,7,13,8,4,2,1
1558442057241628,-3,0,2,-4,-5,-18,-5,-2
1558442057241628,0,-1,2,4,5,10,0,1
1558442057266562,-2,-1,-5,-11,-8,-7,-9,-5
1558442057266562,0,0,3,14,-5,-9,0,-1
1558442057266562,0,0,-1,-2,6,6,-1,1
1558442057266562,-1,1,-3,-12,-2,0,0,0
1558442057295491,-2,-4,-8,-7,-20,-15,-14,-6
1558442057295491,-4,-6,-8,-4,1,9,8,2
1558442057303465,4,3,1,1,25,19,17,5
1558442057303465,0,2,3,6,0,-6,-1,0
1558442057305459,0,-1,-2,-9,-2,-7,-4,1
1558442057305459,0,-1,-1,-10,-12,-15,-10,-1
1558442057306460,-1,-3,-2,7,-8,4,-1,-3
1558442057306460,-3,-1,-6,-1,2,7,3,-2
1558442057318425,0,-3,3,10,3,-1,-4,-3
1558442057318425,0,0,1,-11,1,4,-4,-6
1558442057324406,-3,-2,5,5,5,-15,3,2
1558442057324406,-2,-2,-8,2,-1,-9,-1,1
1558442057339366,0,0,4,9,-1,-5,3,0
1558442057339366,0,-3,-11,-16,-1,1,-4,0
1558442057355341,0,0,0,0,-7,8,-1,-2
1558442057355341,-4,-3,-4,-6,-12,-19,-9,-4
1558442057362304,2,0,2,8,5,-2,-3,4
1558442057362304,1,1,4,4,9,13,12,2
1558442057363302,-2,-1,-5,-10,-11,-6,-9,-3
1558442057363302,3,1,12,14,10,6,5,2
1558442057378266,-2,-1,-25,-29,-1,3,8,3
1558442057378266,-2,-3,-3,3,-9,-4,-6,-4
1558442057384250,-4,-2,0,9,-8,-6,-9,-5
1558442057384250,-4,-5,-12,-22,-11,-1,-6,-4
