timestamp,emg1,emg2,emg3,emg4,emg5,emg6,emg7,emg8
1558442092035223,-3,-3,0,-4,-5,2,-1,-4
1558442092035223,-1,-4,0,2,-5,-11,-8,-4
1558442092036221,-1,3,16,19,19,4,5,2
1558442092036221,-2,-4,-24,-28,-7,-4,-1,2
1558442092036221,-2,-2,3,5,-3,1,-2,-2
1558442092036221,-1,0,1,-10,-7,-1,-8,-7
1558442092037218,-2,-6,-8,-4,-9,3,2,0
1558442092037218,0,1,10,14,7,-9,1,0
1558442092048191,-1,-2,0,3,1,-3,-3,-2
1558442092048191,0,-1,4,-4,2,7,-1,0
1558442092057165,-3,0,-2,-2,-2,-7,-4,-1
1558442092057165,-2,-1,2,-1,-4,8,0,-6
1558442092064146,0,0,-4,-13,0,8,7,0
1558442092064146,-2,1,-1,16,1,-5,-1,-1
1558442092079105,1,0,-6,-9,-6,-3,-5,-4
1558442092079105,-2,-2,1,12,1,-5,-3,-2
1558442092088081,-1,2,-1,-14,5,-9,-1,2
1558442092088081,-2,-2,-2,-4,-5,4,1,-1
1558442092093068,1,0,2,-3,3,6,4,2
1558442092093068,-1,0,6,12,-4,2,-3,-2
1558442092108029,-2,-4,-16,-5,-8,-2,-4,-2
1558442092108029,-1,0,-1,1,7,-3,5,2
1558442092117004,-3,0,0,0,-1,-2,-1,-1
1558442092117004,1,2,4,-4,4,1,-3,-2
1558442092155901,-2,-1,-2,-8,-16,-8,-7,-5
1558442092155901,2,2,9,7,6,-3,-1,4
1558442092156898,0,-4,-12,-2,4,3,10,2
1558442092156898,0,-1,0,-14,-1,1,0,-1
1558442092157895,-3,-5,-5,-5,-12,-5,-10,-6
1558442092157895,-2,-6,-8,-6,-5,5,0,-2
1558442092160887,0,1,6,3,-3,-12,-3,1
1558442092160887,0,3,6,11,8,11,5,3
1558442092167868,-1,-1,-5,-3,-4,-11,-1,-2
1558442092167868,-3,0,3,6,2,3,-2,-3
1558442092175847,-2,-2,-3,2,1,13,1,-1
1558442092175847,-2,-1,-3,-4,-7,-9,-5,-2
1558442092184824,3,1,-4,-2,2,-4,0,1
1558442092184824,0,0,0,-4,-2,5,4,1
1558442092198788,0,-1,2,7,6,4,3,-1
1558442092198788,0,-2,-4,-8,-8,0,-5,-3
1558442092213747,-2,-1,-9,-6,0,3,-4,-2
1558442092213747,-4,-2,11,16,5,-3,-2,-3
1558442092214744,-3,-2,-2,-8,-5,-4,-1,-2
1558442092214744,-1,1,-4,5,-8,-16,-5,1
1558442092227708,0,1,5,4,1,8,3,0
1558442092227708,1,1,-8,-10,-1,-3,2,2
1558442092235687,0,-1,3,-6,-1,3,-4,-2
1558442092235687,-2,-4,-1,4,-2,-4,-8,-6
1558442092244662,2,2,6,11,1,2,3,-1
1558442092244662,2,4,2,1,7,2,6,2
1558442092258626,0,0,1,-11,-11,-11,-5,-1
1558442092258626,-2,-4,-8,-11,-2,1,2,0
1558442092265607,-1,-1,2,6,0,3,-4,-2
1558442092265607,-3,-1,1,-4,-6,-10,-7,-5
1558442092272590,0,4,5,7,17,27,6,2
1558442092272590,-2,-3,1,8,-8,-3,-1,-2
1558442092287551,0,0,-3,-8,5,-19,6,4
1558442092287551,1,-2,0,1,-1,8,0,-1
1558442092295527,0,0,-4,-3,-6,-11,-8,-4
1558442092295527,-3,-2,-5,-15,-4,3,-5,-5
1558442092304502,-3,-1,2,12,6,8,9,4
1558442092304502,-1,-2,-11,-10,2,-1,1,0
1558442092318464,-2,-1,5,5,-5,-7,-5,-3
1558442092318464,0,2,-3,-8,1,-7,1,1
1558442092325481,-2,-3,-4,-13,-1,3,-4,-3
1558442092325481,-4,-4,-1,-3,-8,-5,-4,-3
1558442092341407,1,-1,-3,1,-2,1,-5,-5
1558442092341407,2,3,0,6,5,6,1,3
1558442092348385,-1,-1,3,3,5,-1,5,2
1558442092348385,-1,0,0,-2,-2,4,-3,0
1558442092355367,-4,-4,-10,-6,-9,-8,-7,-2
1558442092355367,1,0,11,13,5,-3,6,2
1558442092364343,2,0,-1,-8,2,5,2,-1
1558442092364343,-3,-5,-10,-8,-3,9,3,-4
1558442092378306,-1,1,13,16,2,-7,-2,-2
1558442092378306,1,-1,-13,-20,3,-1,3,1
1558442092393265,-2,-2,-4,-10,-7,-2,-7,-4
1558442092393265,1,0,1,2,-1,1,-1,0
1558442092394262,-2,-1,-7,-14,-12,-13,-3,0
1558442092394262,-2,-1,11,16,8,19,4,-1
1558442092408226,-2,-1,-10,-9,2,-1,-6,-3
1558442092408226,1,-1,-3,-8,-1,3,3,-1
1558442092415207,-2,-1,4,7,1,-4,-3,0
1558442092415207,-1,-1,-11,-15,-10,-17,-4,-2
1558442092424184,-2,0,4,2,9,17,8,6
1558442092424184,0,-1,-1,10,2,-4,-8,-3
1558442092439142,0,-3,4,3,-1,8,8,2
1558442092439142,-4,-3,-6,-15,-6,-8,-3,-3
1558442092445126,-2,0,2,9,0,0,-1,-1
1558442092445126,-2,-3,-7,-13,-12,-17,-6,-2
1558442092461083,-1,-2,0,1,3,5,3,-1
1558442092461083,1,2,8,14,3,5,1,0
1558442092468067,0,-1,0,1,-3,-3,-3,-3
1558442092468067,-1,-2,-4,-6,-2,-3,-3,-2
1558442092475047,0,0,-3,-2,3,3,0,-1
1558442092475047,-2,-3,-1,-3,-4,3,-4,-2
1558442092484022,-2,-4,-6,-4,-6,-6,-7,-4
1558442092484022,-2,-2,3,5,-3,-7,-2,-1
1558442092498982,3,3,2,0,17,11,6,6
1558442092498982,-2,0,1,13,3,1,6,0
1558442092505966,1,-1,-1,-7,1,-2,0,0
1558442092505966,-6,-3,-1,0,-7,4,-6,-5
1558442092520926,-5,-5,-8,-11,-15,-16,-7,-5
1558442092520926,3,0,3,10,18,6,10,6
1558442092527907,2,0,3,-3,-12,-16,-6,-2
1558442092527907,1,-1,0,1,2,8,2,-1
1558442092535884,0,-2,-9,-11,-4,-8,-4,1
1558442092535884,2,0,0,-1,6,10,4,-1
1558442092544859,-3,-4,-6,-1,-4,-8,-2,-2
1558442092544859,-2,0,0,0,1,-10,-4,2
1558442092558824,0,0,2,2,-2,3,1,-1
1558442092558824,-2,-4,-6,-9,-7,0,-4,0
1558442092565804,-3,2,4,14,9,-4,-1,2
1558442092565804,2,3,7,-1,5,4,1,1
1558442092580765,-3,-6,-11,-15,-9,-4,-6,-3
1558442092580765,-1,-2,-2,-2,-8,-4,-6,-3
1558442092587745,-3,-4,-7,-9,-3,1,2,0
1558442092587745,-2,1,7,12,5,-5,-1,-2
1558442092595724,2,-1,0,-1,-3,-1,2,-2
1558442092595724,-3,-6,-7,-12,-4,3,-3,-5
1558442092604699,4,3,13,12,2,-4,0,2
1558442092604699,4,4,1,-8,6,-1,6,6
1558442092618665,-1,0,-2,-1,7,0,2,-1
1558442092618665,-3,-5,-6,-6,-20,-12,-7,-4
1558442092625644,-1,-3,-6,-3,-13,-4,-9,-2
1558442092625644,2,4,15,7,11,1,7,4
1558442092641601,-6,-8,-12,-1,-2,-2,-2,-3
1558442092641601,-1,-1,-4,-1,3,2,3,0
1558442092647585,-1,-1,8,1,-5,0,-4,-4
1558442092647585,1,-2,-4,8,0,4,-2,0
1558442092664540,-2,1,-4,-15,-6,-4,-1,-2
1558442092664540,-1,2,7,6,-1,-5,1,-2
1558442092665538,-2,-2,-7,0,0,6,0,-2
1558442092665538,-2,-3,-5,0,1,6,1,-1
1558442092678503,1,5,2,0,6,-1,7,5
1558442092678503,1,1,3,5,1,-8,-5,-4
1558442092685483,1,0,2,0,2,-5,-1,-1
1558442092685483,0,-4,-7,-9,-9,-18,-11,-5
1558442092709422,0,2,15,7,10,13,5,1
1558442092709422,-4,-2,-15,-3,-4,-4,-4,0
1558442092716401,-3,-4,-9,-6,-6,4,-3,-4
1558442092716401,-5,-3,-4,-7,-6,-2,-9,-6
1558442092716401,0,-2,-2,1,-4,7,2,1
1558442092716401,2,2,3,-4,0,-18,2,2
1558442092724380,0,1,-3,-4,6,-5,2,2
1558442092724380,-3,-5,-9,-3,-9,-1,-5,-6
1558442092738342,0,0,7,9,0,2,-1,-4
1558442092738342,1,0,-3,0,3,5,-2,0
1558442092745324,-2,-3,-1,-14,-2,4,0,-1
1558442092745324,-4,-3,-13,-8,-4,-1,5,0
1558442092761282,0,2,4,13,2,-4,-1,-1
1558442092761282,0,-1,5,2,-4,-3,-7,-1
1558442092768264,0,-3,-12,-11,-10,-3,-4,-4
1558442092768264,3,3,-2,-7,1,14,8,3
1558442092775244,-1,-5,0,-2,-4,-8,-5,-3
1558442092775244,-4,-4,-2,8,-6,-6,-3,-2
1558442092790205,-2,1,7,8,8,2,-4,1
1558442092790205,1,1,6,2,2,-12,2,1
1558442092799180,0,3,-2,-1,4,4,3,1
1558442092799180,1,0,2,2,4,2,1,-3
1558442092807159,-1,-1,-4,-5,-3,2,-3,-4
1558442092807159,-2,-3,-1,1,-5,2,-5,-2
1558442092821121,2,0,7,5,7,-3,1,4
1558442092821121,-1,-3,-1,-5,1,-10,3,-1
1558442092829099,-2,0,3,4,1,4,5,-1
1558442092829099,-2,-3,-10,-4,-12,-11,-8,-5
1558442092835083,-4,-2,-9,-20,-10,-5,-5,-2
1558442092835083,2,2,1,-2,8,5,5,2
1558442092851041,1,1,1,6,4,3,2,1
1558442092851041,0,0,5,-1,-7,-4,-5,-3
1558442092859021,-2,-2,-5,-2,1,15,6,-1
1558442092859021,1,1,7,10,6,-11,1,3
1558442092866003,-1,-1,-3,-11,-1,-2,-2,3
1558442092866003,-2,-1,2,5,4,3,2,-6
1558442092880961,1,0,4,7,-1,-4,-7,-3
1558442092880961,-2,-1,-3,3,2,13,0,-2
1558442092887942,-1,-3,-8,-19,-10,-4,-1,0
1558442092887942,-1,0,4,5,5,-4,5,4
1558442092895921,-2,0,4,7,-2,-4,-5,-2
1558442092895921,0,0,1,5,-3,4,1,-1
1558442092910881,2,1,3,8,1,-4,0,1
1558442092910881,0,-1,-4,-7,2,-1,1,0
1558442092919857,-1,-1,-1,-3,-7,-7,-7,-4
1558442092919857,-3,-1,3,-1,1,6,-7,-4
1558442092925841,-3,-3,-13,-19,-16,2,3,-2
1558442092925841,0,0,17,19,6,-6,-2,0
1558442092940801,-1,-4,-26,-26,-5,-15,-3,0
1558442092940801,-2,0,0,-2,-1,7,1,0
1558442092955760,0,2,5,11,8,2,4,-1
1558442092955760,-2,-3,-3,0,-5,1,-6,-2
1558442092956759,-1,-2,4,5,-8,-1,-6,-4
1558442092956759,1,3,5,-4,10,5,6,3
1558442092970720,-3,-2,3,11,-4,-13,-5,-2
1558442092970720,-2,-1,-10,-21,0,0,-1,2
1558442092978699,2,1,5,10,0,-4,3,1
1558442092978699,0,-5,-8,-14,-9,2,-4,-3
1558442092985680,-2,-1,3,7,3,-2,5,0
1558442092985680,-2,-1,-1,2,-2,-3,-7,-3
1558442093001639,1,1,3,2,-5,3,-3,-4
1558442093001639,0,-1,-2,2,-1,1,-3,1
1558442093007623,-1,0,-1,-6,-1,1,0,-1
1558442093007623,2,1,-1,5,10,-12,7,5
1558442093015605,-7,-3,-1,-9,-9,-3,-2,0
1558442093015605,-3,-2,-3,-9,-5,2,-5,-4
1558442093030565,-3,-2,-5,-3,-7,4,-12,-8
1558442093030565,1,2,2,3,12,13,10,5
1558442093038547,-2,-1,-4,-1,3,-2,2,-1
1558442093038547,-4,-3,1,3,-7,-8,-9,-5
1558442093045523,2,-2,1,-4,7,10,5,1
1558442093045523,-2,-3,-5,-7,-14,-1,-6,-5
1558442093061478,1,1,2,11,17,4,3,5
1558442093061478,0,-1,-4,-10,-2,-9,2,3
1558442093068467,1,-1,6,5,8,2,0,1
1558442093068467,-3,-2,-6,-4,-9,6,-4,-4
1558442093075441,-2,-2,4,3,-1,8,-5,-6
1558442093075441,-2,-2,-10,-21,-26,-34,-5,-3
1558442093090403,3,2,5,16,23,15,13,4
1558442093090403,-1,0,-6,-21,-9,-10,-4,2
1558442093098383,0,-2,-2,0,-1,3,-2,-4
1558442093098383,-1,-1,1,8,-1,-1,-6,-4
1558442093105370,3,0,4,2,-2,17,1,-2
1558442093105370,-3,-5,-11,-14,1,-4,1,-2
1558442093121324,-1,0,0,-2,3,5,11,4
1558442093121324,0,1,2,4,3,0,0,-1
1558442093128302,-4,-4,-6,-5,-13,-15,-8,-3
1558442093128302,-1,1,4,8,-6,1,-5,-4
1558442093144258,1,2,0,-8,5,-5,0,1
1558442093144258,0,-4,-8,0,1,10,3,0
1558442093150249,1,1,8,8,4,-5,1,1
1558442093150249,-4,-5,-21,-26,-12,1,-6,-3
1558442093167201,1,1,3,6,-1,-17,-3,0
1558442093167201,0,-1,0,-4,4,13,2,-1
1558442093168195,-3,-3,-7,-6,-8,-6,-8,-4
1558442093168195,-2,-2,7,8,-1,-4,-5,-5
1558442093181208,0,0,-9,-10,-6,2,3,0
1558442093181208,1,0,-2,3,10,10,10,5
1558442093188149,-1,1,2,-1,-1,1,3,4
1558442093188149,1,2,9,16,9,-1,-2,1
1558442093204099,-1,-3,-7,-11,-4,-4,-5,-4
1558442093204099,0,-2,3,1,-5,-1,-3,-2
1558442093211080,0,0,-2,-1,-5,-11,-2,-1
1558442093211080,-1,0,-4,0,5,7,5,2
1558442093227038,-1,-1,3,9,1,5,-2,0
1558442093227038,-2,-1,1,0,0,4,-4,0
1558442093228034,2,4,6,10,1,-7,-1,0
1558442093228034,-2,-5,0,-11,-12,-3,-3,-4
1558442093240999,-5,-4,-11,-14,-17,-6,-8,-4
1558442093240999,-3,-2,-2,-2,2,-4,4,1
1558442093247982,1,1,0,0,13,14,6,3
1558442093247982,0,1,9,14,4,-11,-5,-2
1558442093263936,2,0,1,4,8,11,6,2
1558442093263936,-4,-2,-2,-6,-8,-6,-6,-2
1558442093270918,-1,-5,-12,-12,-6,-16,-5,-2
1558442093270918,0,0,0,6,3,6,4,-1
1558442093286880,-4,-4,1,3,-7,1,-9,-7
1558442093286880,-1,2,-3,3,6,2,2,2
1558442093288872,-1,2,5,12,6,-6,-1,0
1558442093288872,0,-1,-13,-22,-2,1,0,1
1558442093300845,-1,-3,0,5,-7,-9,-7,-3
1558442093300845,1,-1,0,1,-1,3,3,-1
1558442093307828,-5,-7,-3,-3,-14,-2,-5,-3
1558442093307828,-2,-2,7,10,1,8,1,-4
1558442093323778,-1,1,0,-5,10,-7,8,4
1558442093323778,-3,-3,-2,-1,-10,-9,-9,-3
1558442093330881,-2,0,0,-4,1,5,2,-2
1558442093330881,0,1,2,3,-2,-8,1,2
1558442093346716,0,2,5,11,3,4,2,0
1558442093346716,-3,-5,-9,-14,-6,-5,-6,-5
1558442093348713,-4,-4,-4,-9,-6,0,-7,-5
1558442093348713,-1,-3,-3,-4,-11,-11,-4,-2
1558442093361678,-3,-1,4,10,8,0,3,1
1558442093361678,1,2,-2,-2,8,8,4,1
1558442093367709,-1,-1,-2,3,-4,3,-4,-4
1558442093367709,1,0,2,0,1,3,4,2
1558442093383728,1,1,-2,-7,-3,-12,-6,1
1558442093383728,-3,-4,4,4,-6,0,-4,-6
1558442093390603,-1,-4,-8,-7,0,-2,-1,-1
1558442093390603,1,1,1,3,10,7,4,4
1558442093406571,0,-1,-2,0,2,4,7,1
1558442093406571,-2,1,5,4,-3,-12,-6,-1
1558442093408553,0,2,-2,-2,5,6,3,1
1558442093408553,-2,-2,1,10,-2,0,-5,-4
1558442093421524,-4,-5,-13,-27,-20,-2,-10,-9
1558442093421524,0,-1,1,-3,2,-6,2,0
1558442093428498,-2,-1,5,4,3,-8,-1,1
1558442093428498,-2,1,0,1,-3,-14,-6,1
1558442093443468,-2,-1,-5,-4,0,10,2,1
1558442093443468,1,-1,4,6,-1,6,-1,0
1558442093450437,0,0,-2,-9,0,-1,0,-1
1558442093450437,-1,1,0,7,9,2,0,0
1558442093466395,2,1,7,14,-3,-3,-3,-2
1558442093466395,-1,-1,2,-16,-1,2,2,1
1558442093468390,1,-1,-10,1,-8,-7,-3,0
1558442093468390,2,-1,-4,-3,-5,-2,1,0
1558442093480358,-1,-4,-7,-17,2,-4,-3,0
1558442093480358,1,0,-2,9,4,5,-2,2
1558442093489333,-1,-1,9,6,-3,-4,-2,-2
1558442093489333,-1,-1,-11,-12,-4,2,3,-2
1558442093503301,-1,0,-1,1,3,7,3,-2
1558442093503301,-1,2,5,5,-2,-16,-4,-3
1558442093510282,2,1,1,6,11,4,6,0
1558442093510282,0,-4,-11,-22,-8,-1,-2,-2
1558442093527238,-3,0,6,9,-1,4,-3,1
1558442093527238,-2,0,-3,-3,-5,3,-1,1
1558442093528231,-3,-3,-1,0,3,-2,-6,-3
1558442093528231,-7,-4,-1,-4,-11,-9,-3,-4
1558442093540237,3,1,-1,-1,8,5,6,4
1558442093540237,0,-1,-6,-8,-7,-8,-2,-3
1558442093550175,-1,0,-2,-4,-4,-1,-2,-1
1558442093550175,0,-1,5,9,2,1,-2,-1
1558442093564364,0,0,8,19,4,-2,-3,-3
1558442093564364,-2,-4,-16,-21,-12,-5,-5,-2
1558442093571260,-1,-2,-6,3,-1,8,0,0
1558442093571260,1,2,2,-9,12,9,9,6
1558442093587235,0,-1,-2,5,-1,-12,-1,-1
1558442093587235,0,-2,3,7,1,6,-1,-2
1558442093588203,-1,0,5,-1,-1,-4,-4,-4
1558442093588203,-2,-2,-12,-8,-17,-5,-7,-4
1558442093601113,-3,-2,-6,-1,7,12,6,1
1558442093601113,0,1,-4,-9,6,-8,7,4
1558442093609019,-1,-1,9,14,5,-1,-3,2
1558442093609019,-2,-2,2,1,-3,5,-4,-3
1558442093623975,-4,-6,0,-5,-16,-12,-9,-6
1558442093623975,0,-2,-3,6,6,1,0,-2
1558442093630961,1,1,-2,-9,3,0,4,2
1558442093630961,1,2,7,9,4,-5,0,1
1558442093646914,-3,-3,-9,-5,-3,3,0,-3
1558442093646914,-4,-2,-4,-8,-12,-5,-6,-4
1558442093647920,-2,-1,-2,-8,-2,-3,-3,-3
1558442093647920,1,2,8,13,20,26,7,2
1558442093660874,-1,0,-3,-14,-17,-24,-13,-4
1558442093660874,2,2,13,12,16,12,4,1
1558442093669850,-4,-6,-20,-35,-15,-13,5,0
1558442093669850,-3,-2,0,0,-7,-6,-4,-2
1558442093683814,0,-1,-4,5,1,2,3,0
1558442093683814,-1,-1,-1,1,-4,-1,-4,-1
1558442093690797,2,0,3,6,0,-7,-5,1
1558442093690797,-1,-2,-1,1,1,4,0,-1
1558442093705981,-3,0,6,2,-3,4,-2,-1
1558442093705981,-1,-2,-8,-2,2,-10,-2,-2
1558442093712962,-5,-3,-6,-11,-9,-2,-1,-4
1558442093712962,1,0,-4,-1,9,-2,4,2
1558442093721062,0,2,-1,-4,-1,-6,-2,1
1558442093721062,-1,-4,8,21,6,5,0,-2
1558442093729692,-2,-2,-8,-7,-7,3,-2,-2
1558442093729692,-2,-4,1,0,-3,-11,-9,-3
1558442093743947,-2,-3,-9,-10,-7,0,-2,-2
1558442093743947,-2,2,6,10,6,8,4,1
1558442093750912,0,1,-1,-1,-6,-13,-7,-2
1558442093750912,-2,0,5,9,4,3,4,-1
1558442093766814,-1,0,-2,-10,4,-6,0,0
1558442093766814,-4,-4,-6,-8,-8,1,-4,-3
1558442093773579,1,2,8,16,-3,6,-3,-5
1558442093773579,0,-4,-11,-22,-1,-6,-6,-2
1558442093780771,3,2,4,13,6,-1,5,4
1558442093780771,0,0,1,-2,-7,-5,1,0
1558442093789546,0,-1,-6,-14,1,0,-4,-2
1558442093789546,0,1,6,7,3,3,-2,-2
1558442093803549,-4,-3,-21,-11,-10,0,-3,-3
1558442093803549,-1,-2,-1,1,7,8,7,1
1558442093810513,-1,1,19,17,9,3,4,1
1558442093810513,-3,-4,-7,-8,-11,-12,-3,-1
1558442093826471,-3,-4,-3,-3,0,-2,-5,-2
1558442093826471,-2,-1,-10,-9,-17,-1,-5,-2
1558442093833415,2,1,12,17,11,-1,0,1
1558442093833415,-3,-3,-19,-14,-3,3,-2,-1
1558442093840399,-2,0,10,4,0,3,6,0
1558442093840399,-2,-2,0,-3,-3,5,-4,-3
1558442093849379,1,-2,-11,-16,-2,-18,0,0
1558442093849379,3,4,10,16,6,-8,-1,2
1558442093863336,-2,-6,-10,-21,-5,-1,0,-1
1558442093863336,2,2,1,0,6,13,1,1
1558442093871315,0,-4,-3,-1,-7,5,4,-1
1558442093871315,-2,0,5,-1,-5,7,-3,-2
1558442093886273,1,2,2,2,0,-4,-2,0
1558442093886273,0,0,1,1,7,-6,1,0
1558442093893290,-3,-1,-7,3,6,5,0,0
1558442093893290,1,2,13,17,-6,-8,1,-1
1558442093909212,-2,-5,-4,-3,0,0,-4,-5
1558442093909212,1,0,-1,-6,-9,0,-3,-1
1558442093911210,0,0,-3,-8,-5,-2,-3,-1
1558442093911210,-3,-1,1,4,2,0,2,-2
1558442093924171,2,2,8,14,14,5,0,2
1558442093924171,-1,0,6,9,1,-9,-7,0
1558442093930191,0,1,0,-8,1,19,12,3
1558442093930191,-2,-3,-2,-9,-3,-10,1,1
1558442093946248,-2,0,0,-4,-1,1,-6,-3
1558442093946248,0,0,-1,4,3,0,6,1
1558442093953340,-3,-2,3,8,-5,-2,-9,-3
1558442093953340,-3,-2,-9,-10,-3,9,0,-2
1558442093970087,-1,2,5,-4,-2,0,3,0
1558442093970087,-2,-3,-17,-10,2,2,1,-3
1558442093971051,-6,-5,2,2,-9,-22,-11,-4
1558442093971051,0,0,-1,-2,4,6,0,0
1558442093984268,-2,-2,-4,-4,-1,1,1,-2
1558442093984268,0,0,8,7,1,-1,3,-1
1558442093989996,-1,-1,-5,-3,-3,2,-1,-3
1558442093989996,2,0,-1,-9,-14,-18,-9,-4
1558442094005953,-2,-3,-3,-11,-1,5,0,2
1558442094005953,-1,-2,-4,-3,5,-7,4,3
1558442094012934,0,0,0,-4,-4,-11,-5,0
1558442094012934,-4,-4,-2,2,3,7,-8,-3
1558442094036868,0,1,11,10,-1,4,6,0
1558442094036868,-2,-2,-6,-16,-6,-9,-6,-2
1558442094037865,-3,-5,-2,6,0,9,-4,-4
1558442094037865,0,-1,0,0,-1,0,0,2
1558442094043879,0,-1,-4,-1,3,-9,2,0
1558442094043879,-2,-3,1,1,-6,-2,-4,-2
1558442094050830,0,4,4,2,9,12,3,1
1558442094050830,-2,-1,1,3,-7,-7,-1,-2
1558442094065792,1,1,0,0,5,-2,0,-1
1558442094065792,-4,-1,0,13,-1,-3,-4,-1
1558442094072772,-1,-3,-8,-7,-4,-1,-4,-2
1558442094072772,0,0,0,-4,0,7,6,2
1558442094089727,-2,-4,-10,-4,-6,-15,-2,0
1558442094089727,3,3,11,12,4,-4,-2,0
1558442094090725,-2,-3,-5,-4,-4,3,-3,-5
1558442094090725,1,-2,-3,-4,0,3,1,-1
1558442094104063,0,0,10,10,-6,-11,-5,-5
1558442094104063,-1,-5,-14,-16,-5,6,-3,-4
1558442094110885,0,1,0,5,11,0,6,3
1558442094110885,-1,-1,-5,0,2,2,3,1
1558442094126877,-1,0,-4,-2,-8,4,-4,-1
1558442094126877,0,0,8,20,3,1,-3,0
1558442094133738,-1,-2,-5,-26,-9,-7,-4,0
1558442094133738,-6,-6,-15,3,-7,-9,-3,-5
1558442094149781,0,-2,-9,-20,-6,0,-2,-2
1558442094149781,-1,0,6,3,6,5,0,0
1558442094150720,-1,-3,2,11,-2,5,5,-2
1558442094150720,-2,0,-1,-2,-1,-3,-3,-3
1558442094163810,1,1,1,8,10,16,6,3
1558442094163810,-1,-2,0,-6,0,-10,10,2
1558442094171845,1,1,0,-1,2,-6,-2,-2
1558442094171845,-3,-4,-5,-10,-9,-3,-8,-4
1558442094186761,-1,0,6,10,1,6,-4,-2
1558442094186761,3,0,-7,-6,5,-7,7,7
1558442094200714,-1,0,7,3,0,1,6,3
1558442094200714,0,2,-2,-7,2,-7,0,1
1558442094209684,-2,-3,-1,6,-7,-7,-12,-6
1558442094209684,-7,-6,-10,-14,-13,-1,-14,-8
1558442094210406,0,0,0,-4,5,5,5,1
1558442094210406,0,-1,-5,-11,-4,-12,-3,-1
1558442094223373,-3,-2,-7,-10,-2,-4,-2,0
1558442094223373,3,4,3,-2,2,-8,0,3
1558442094230383,-1,-2,0,9,1,7,0,-2
1558442094230383,1,3,9,13,12,17,8,0
1558442094246602,0,-4,-4,-12,0,-10,0,0
1558442094246602,-3,-3,2,0,-8,8,-4,-5
1558442094270245,-1,-1,-4,-1,-4,-10,-9,-2
1558442094270245,0,-1,-3,5,4,5,5,2
1558442094270245,-3,0,-1,-8,-10,-3,-3,-1
1558442094270245,1,1,4,2,7,-8,0,1
1558442094272241,-2,-2,-3,2,-9,-3,-3,-2
1558442094272241,-1,-1,-3,-7,-1,4,-5,-2
1558442094283213,-1,1,6,8,3,7,4,1
1558442094283213,-1,-4,-5,-7,-2,4,-2,-3
1558442094290191,0,-2,-6,-9,-1,-11,-2,0
1558442094290191,-3,-4,3,3,2,-1,1,0
1558442094314502,2,1,6,8,-2,-1,-2,1
1558442094314502,-3,-2,-9,-12,-6,0,-6,-2
1558442094316120,0,1,3,6,0,-2,-5,0
1558442094316120,1,2,7,12,8,11,9,4
1558442094329124,-3,-5,-9,-14,-1,-1,-4,-6
1558442094329124,0,-2,-6,-3,-5,-4,-1,-1
1558442094337066,-2,-1,-1,-2,1,5,-2,0
1558442094337066,-1,0,3,-1,-7,-14,-3,-1
1558442094344405,0,-1,1,1,-1,-11,-1,-1
1558442094344405,-1,0,3,2,-1,3,-2,-3
1558442094351227,-2,-1,-4,0,-3,-3,1,-2
1558442094351227,-1,-2,-7,-7,-4,3,-8,-3
1558442094367023,1,1,8,10,9,15,8,2
1558442094367023,-2,-2,-1,4,-6,-7,-7,-5
1558442094372970,0,-1,-2,-11,-4,-8,0,3
1558442094372970,-3,-2,-3,4,5,3,2,0
1558442094389288,0,0,-12,-6,-5,-4,-3,0
1558442094389288,-2,-1,1,1,-1,1,-2,0
1558442094390943,0,0,2,1,0,4,-2,-1
1558442094390943,-1,-2,1,0,-5,-7,-2,-3
1558442094402892,-1,-1,-4,-6,-1,-4,2,0
1558442094402892,0,1,9,3,11,-3,3,1
1558442094420020,-4,-4,-8,11,-7,4,1,-4
1558442094420020,-4,-5,-9,-30,-14,-8,-9,-4
1558442094426827,-4,0,4,5,1,5,4,-2
1558442094426827,1,-2,-11,2,2,8,10,0
1558442094433816,0,-2,3,1,-3,-2,0,0
1558442094433816,3,1,6,0,6,-1,6,1
1558442094450012,-1,-2,-2,-1,-1,-8,-7,-1
1558442094450012,-2,-3,1,-8,-9,-4,-7,-4
1558442094450766,-2,-1,-5,2,6,5,0,0
1558442094450766,1,0,-6,-12,-6,-9,-1,-1
1558442094462973,-1,0,1,0,2,0,-5,-3
1558442094462973,0,1,0,1,0,4,2,1
1558442094471706,-1,-2,-4,-19,-3,7,-3,-4
1558442094471706,-3,-1,2,4,2,-6,0,-1
1558442094485930,4,3,9,14,4,-11,2,4
1558442094485930,-2,-3,-3,-4,-7,0,-7,-3
1558442094492653,-1,1,0,-4,-7,-3,-7,-3
1558442094492653,0,1,6,13,7,-2,-1,-1
1558442094509896,-3,-4,-11,-13,-7,-1,3,1
1558442094509896,-2,2,4,-1,-2,6,-1,-1
1558442094510604,-3,-1,-7,-13,-4,-10,0,-3
1558442094510604,-1,-2,9,21,5,5,4,0
1558442094522671,-2,-2,-9,-13,-3,-8,-4,-4
1558442094522671,1,1,-3,-5,2,1,2,1
1558442094531860,-2,-5,3,-1,2,-4,-7,-3
1558442094531860,-1,0,-6,-1,1,4,-3,-4
1558442094545860,-3,-2,-4,0,-7,-1,-3,-1
1558442094545860,1,-1,-2,-14,-5,-16,-2,-1
1558442094553135,1,-1,3,4,-1,4,1,1
1558442094553135,-2,0,-1,-4,4,4,4,2
1558442094569987,-1,0,5,12,7,8,0,-2
1558442094569987,-3,-2,2,1,0,4,-7,-2
1558442094570792,1,-1,-4,0,-5,-7,6,3
1558442094570792,0,-1,-2,-11,-5,3,-3,-2
1558442094583785,-1,0,3,7,-8,-11,-6,-4
1558442094583785,-2,-1,0,3,6,3,4,0
1558442094591958,-2,0,5,4,13,5,3,0
1558442094591958,0,-1,-1,1,-4,3,-1,1
1558442094606697,-3,-2,1,7,-7,-5,-7,-3
1558442094606697,-2,-2,-12,-10,-5,-12,-4,-1
1558442094613677,0,2,9,9,5,6,4,1
1558442094613677,-1,1,-2,3,-5,-8,-5,-1
1558442094628644,-3,-4,-7,-4,1,3,-1,-2
1558442094628644,1,-1,6,0,2,-4,0,-1
1558442094635898,-4,-2,-10,-10,-1,2,4,-2
1558442094635898,-2,-2,2,8,4,-4,-2,1
1558442094651870,1,-1,-4,-11,-1,-6,0,1
1558442094651870,0,-1,2,-1,-4,-3,-1,1
1558442094651870,0,-1,1,7,-1,5,0,-1
1558442094651870,-3,-3,0,-3,-15,-16,-11,-5
1558442094667613,-1,2,0,-5,6,1,5,2
1558442094667613,0,1,2,8,1,7,4,0
1558442094672651,-2,1,-5,-1,1,1,-8,-3
1558442094672651,0,2,4,6,-4,-2,-1,-1
1558442094688768,-1,-1,-8,-13,1,14,1,-1
1558442094688768,-3,-1,-8,0,-5,-5,-2,0
1558442094695458,1,-1,5,13,9,-4,1,3
1558442094695458,-2,-3,-6,-15,-2,0,-4,-4
1558442094711813,2,0,7,6,1,2,-4,1
1558442094711813,-2,-2,1,-4,-11,-3,-7,-6
1558442094711813,1,0,-1,-10,-6,-7,-2,0
1558442094711813,0,1,8,21,16,2,2,4
1558442094727373,0,1,-2,-9,-1,-4,3,0
1558442094727373,0,-1,-8,5,4,3,0,-1
1558442094733777,-2,-2,-10,-26,-21,-12,-11,-3
1558442094733777,0,-3,0,1,3,11,10,2
1558442094748637,0,-2,-1,-1,5,0,-3,-2
1558442094748637,-1,-1,3,2,-8,-10,-7,-5
1558442094755619,1,-1,2,7,9,7,7,2
1558442094755619,-1,-1,-8,-9,3,-1,5,1
1558442094771256,-2,0,4,1,4,8,2,0
1558442094771256,-4,-2,-1,-1,6,13,1,-1
1558442094772253,-2,-4,-2,2,-10,-11,-7,-1
1558442094772253,-1,-1,-3,-10,-3,-1,-2,-2
1558442094787214,0,-3,-4,-3,-3,-19,-3,-1
1558442094787214,-1,-1,-5,-9,-9,-10,-6,-4
1558442094793502,1,1,11,16,2,-2,-1,0
1558442094793502,-2,-5,-13,-11,1,-7,-3,2
1558442094808162,-4,-1,0,2,-3,2,9,2
1558442094808162,-2,-1,5,6,3,6,4,1
1558442094824116,-2,0,0,2,-5,-5,-1,-3
1558442094824116,1,1,-7,-14,2,13,5,2
1558442094831104,0,0,0,7,5,3,-2,-2
1558442094831104,-1,-2,4,0,2,-2,-4,-1
1558442094832094,0,-1,-3,4,-4,-4,-4,-4
1558442094832094,-3,-3,-14,-20,-12,-10,-5,-5
1558442094847338,-1,-1,3,0,-7,-13,-9,-5
1558442094847338,0,-2,-8,-8,4,5,8,3
1558442094853548,-2,-4,0,-8,0,-2,-3,-3
1558442094853548,-2,-1,4,12,-8,-9,-5,-2
1558442094886236,-1,-3,2,2,-4,6,-5,-1
1558442094886236,0,0,3,5,4,10,8,4
1558442094886236,0,-1,-10,-8,-1,-4,-1,1
1558442094886236,-2,-1,-6,-6,-4,8,3,-2
1558442094891221,-2,2,7,5,8,-1,-3,0
1558442094891221,1,1,2,8,-2,-1,1,-3
1558442094892219,-3,0,-1,-7,3,5,-1,-2
1558442094892219,0,0,-1,2,2,-2,-2,-3
1558442094907179,-1,-3,-5,3,-4,5,-1,-3
1558442094907179,-2,-3,-7,-18,-8,-20,-8,-2
1558442094913191,1,2,4,7,4,6,3,3
1558442094913191,-2,-2,2,7,-4,-4,-8,-5
1558442094928157,1,-1,-6,-14,-3,4,5,1
1558442094928157,-1,-2,-4,-1,1,-17,-4,2
1558442094935141,1,2,4,3,6,9,5,2
1558442094935141,-1,-1,1,-2,0,1,-2,-1
1558442094951523,-1,-2,-3,0,-1,9,-2,-1
1558442094951523,-3,-2,0,2,-5,3,-3,-2
1558442094952059,-2,-1,-5,-9,-4,-10,-5,-3
1558442094952059,0,1,3,6,4,3,1,1
1558442094967020,0,2,4,-3,-2,-2,1,-1
1558442094967020,-1,2,-4,8,7,7,3,0
1558442094973002,-3,-3,-4,-12,-14,-19,-5,-2
1558442094973002,-2,-3,1,1,-1,-9,-3,-3
1558442094988412,0,0,6,20,8,1,-2,-1
1558442094988412,-1,-1,-10,-27,-5,-1,-6,-3
1558442094995403,0,0,-5,2,2,10,8,1
1558442094995403,-1,-1,7,8,-7,-4,-5,-2
1558442095011348,-2,-1,-6,-4,-4,-10,-4,1
1558442095011348,2,2,6,13,15,10,9,2
1558442095011900,1,-1,5,15,2,-2,-1,1
1558442095011900,1,2,-11,-19,-2,-4,6,6
1558442095027135,-4,-2,-1,-4,-9,-1,-8,-5
1558442095027135,-3,-2,0,5,-11,-6,-6,-3
1558442095033278,2,1,1,4,11,16,8,4
1558442095033278,0,1,3,3,1,-6,-5,-1
1558442095048279,1,0,5,11,5,7,2,2
1558442095048279,4,0,-8,-14,-5,-10,2,0
1558442095056151,-1,-1,2,-7,-1,-9,-9,-5
1558442095056151,-1,2,-4,-3,-1,10,3,1
1558442095071947,-1,-3,-7,-14,-5,-9,-5,-2
1558442095071947,-4,-5,-4,2,-5,2,-2,-5
1558442095071947,-2,-2,1,11,-1,2,0,-2
1558442095071947,0,-2,-5,-6,5,8,2,-1
1558442095086698,1,2,3,4,12,4,7,2
1558442095086698,-3,-4,-11,-12,-15,-14,-7,-4
1558442095092681,1,2,-1,-4,-1,-6,1,0
1558442095092681,-5,-4,0,4,-8,-9,-9,-7
1558442095115621,-1,-3,-3,-1,-1,2,0,0
1558442095115621,1,2,10,14,17,18,9,5
1558442095116617,0,-3,-5,-13,0,-6,-2,-2
1558442095116617,1,0,6,8,4,0,1,2
1558442095130580,0,2,-3,-7,-8,-3,-1,0
1558442095130580,-2,1,10,5,-2,-1,-3,-3
1558442095131577,-3,-3,-11,-5,-5,5,0,-3
1558442095131577,-1,1,0,0,-3,-1,1,1
1558442095147537,-7,-10,-7,-16,-18,-15,-10,-10
1558442095147537,4,5,8,6,19,1,12,6
1558442095161886,-2,-1,-4,-7,-9,-6,-6,-2
1558442095161886,-2,-4,-5,3,0,3,1,-2
1558442095168943,-2,1,-4,-1,2,3,2,1
1558442095168943,0,-3,0,-1,-4,-2,-7,-2
1558442095176520,-1,1,4,7,7,-1,2,1
1558442095176520,0,-1,1,-8,-10,-6,-8,-5
1558442095191450,0,1,1,8,3,18,6,2
1558442095191450,-3,-1,-4,-11,-5,-3,0,0
1558442095192838,-1,-4,0,6,-5,-1,-4,-2
1558442095192838,-1,0,10,8,2,-2,-2,1
1558442095206378,4,0,5,10,12,-4,8,2
1558442095206378,0,0,-7,-9,-4,-3,-3,-2
1558442095221750,-6,-5,-9,-2,-9,1,-5,-3
1558442095221750,-2,0,-6,-7,-7,3,-4,-5
1558442095228735,-2,-1,-4,-1,-1,0,-2,-2
1558442095228735,-2,-5,-2,-4,-3,-6,-3,-3
1558442095235354,0,0,-1,-5,-3,-2,1,-3
1558442095235354,-2,-2,-1,-2,1,3,5,-2
1558442095251639,0,0,2,9,2,-4,-3,-3
1558442095251639,2,2,4,6,2,-5,0,1
1558442095252256,-2,-1,2,6,-4,2,-2,-2
1558442095252256,-2,-1,-7,-9,-2,2,-5,-2
1558442095267216,-2,-3,-5,-15,-9,-1,-3,-3
1558442095267216,0,2,15,17,9,10,3,1
1558442095273201,-1,-3,-6,-1,3,-9,-5,-2
1558442095273201,0,-3,0,-1,2,-3,2,4
1558442095288210,-1,1,-4,-9,-3,-12,-1,2
1558442095288210,-2,0,3,7,-1,4,-1,-3
1558442095295143,-2,-3,-11,-9,-9,-4,-1,-1
1558442095295143,0,0,7,5,3,3,-1,-3
1558442095311480,0,-2,0,0,-2,2,-3,-1
1558442095311480,-5,-5,-8,-7,-5,0,-1,-3
1558442095312097,0,0,2,-8,0,0,4,2
1558442095312097,4,1,10,16,6,-12,-1,2
1558442095327057,2,0,3,2,1,7,0,0
1558442095327057,-2,-3,-11,-11,-12,-4,-8,-5
1558442095333426,-4,-1,5,4,-7,1,-1,1
1558442095333426,-1,1,-1,0,2,-6,-6,-3
1558442095348350,0,0,3,-2,6,-3,3,1
1558442095348350,2,0,-5,1,7,-3,7,5
1558442095355997,1,1,2,-9,-4,2,-2,-2
1558442095355997,-5,-5,-18,-23,-11,-6,-3,-2
1558442095372933,-5,-4,-4,9,-18,-10,-13,-7
1558442095372933,-1,-1,-7,-11,5,8,1,2
1558442095372933,3,3,4,1,21,12,12,5
1558442095372933,-3,-2,-3,2,-4,-6,2,1
1558442095386926,0,-3,-2,2,-5,-2,0,-4
1558442095386926,-3,-3,-5,-10,-7,4,-5,-4
1558442095393187,1,2,5,1,0,4,-2,-3
1558442095393187,2,3,3,1,7,0,4,1
1558442095407867,0,2,3,5,4,-7,1,1
1558442095407867,0,1,10,4,-6,-4,-3,-2
1558442095416143,-4,-5,-8,-1,-3,-13,-7,-3
1558442095416143,0,-1,3,2,0,3,1,0
1558442095431823,-5,-4,-4,-7,-11,-14,-7,-3
1558442095431823,2,6,18,23,24,5,13,6
1558442095431823,-1,-1,-11,-30,-8,4,-4,-2
1558442095431823,-4,-4,-3,10,-7,-6,-6,-1
1558442095446917,0,1,1,2,6,7,1,-4
1558442095446917,-3,-5,-10,-14,-14,0,-8,-5
1558442095453753,0,-2,6,13,3,-8,1,-1
1558442095453753,-1,2,2,-5,5,6,3,2
1558442095468764,-1,-3,-7,-15,0,10,1,0
1558442095468764,-1,-3,4,14,3,7,-1,-3
1558442095475973,-1,1,5,11,-2,-11,-3,3
1558442095475973,0,0,-7,-27,-2,-5,-1,0
1558442095492642,0,-2,3,6,3,9,2,3
1558442095492642,-2,1,-2,-2,0,1,1,-1
1558442095497669,-3,-3,-7,-4,-7,-3,-5,-3
1558442095497669,1,2,8,12,6,1,-2,-1
1558442095506578,-2,-2,-2,-11,-2,-8,-1,-2
1558442095506578,-2,-2,-5,-3,-5,-2,-5,-2
1558442095512588,1,1,2,-1,9,9,11,3
1558442095512588,0,-2,-2,0,4,3,5,2
1558442095528788,0,-1,-7,-15,-8,-3,-1,-1
1558442095528788,-4,-8,-3,-2,-8,-13,-8,-4
1558442095544474,0,0,-4,-4,0,-9,-1,3
1558442095544474,-1,-2,2,3,-4,2,-2,-8
1558442095551796,-1,-1,2,4,-2,2,2,1
1558442095551796,0,0,-3,-3,-7,-12,-2,0
1558442095551796,-3,-3,-2,-5,0,0,-6,-5
1558442095551796,-1,-1,3,10,3,6,-1,0
1558442095567412,0,0,8,10,-1,0,-1,0
1558442095567412,1,-2,-13,-4,-1,2,-2,-2
1558442095573396,-2,-4,-4,-8,-4,-3,-3,0
1558442095573396,0,4,0,4,6,7,2,3
1558442095588652,1,0,-6,1,8,-2,3,2
1558442095588652,1,0,9,4,0,-9,-1,0
1558442095596364,0,-1,3,0,-3,1,0,-4
1558442095596364,-4,-6,-13,-8,-18,-7,-7,-5
1558442095619492,-3,-1,-1,-1,-4,2,0,-1
1558442095619492,-2,1,5,3,7,0,-5,1
1558442095619492,1,-1,-9,-11,-1,-3,4,1
1558442095619492,-2,-2,5,9,1,0,-4,-2
1558442095627253,0,1,-11,-16,-1,10,1,-3
1558442095627253,-3,-1,4,10,-1,0,-1,-1
1558442095633572,-4,1,-3,-5,-5,-4,-4,-4
1558442095633572,-3,-3,-1,0,1,2,0,0
1558442095648543,-2,-4,0,-1,0,-13,-8,0
1558442095648543,0,2,-7,-13,-3,5,4,0
1558442095655529,-1,-4,5,14,4,3,0,-1
1558442095655529,4,3,3,3,3,0,6,1
1558442095671274,-3,-1,2,3,3,0,1,-5
1558442095671274,-1,-1,-8,-18,-5,-2,-2,-3
1558442095678437,-1,-1,0,10,8,6,0,0
1558442095678437,-3,0,-5,-4,-9,-5,-1,1
1558442095687096,1,1,-4,-6,-4,-9,-6,0
1558442095687096,-1,0,9,11,0,1,2,-5
1558442095693076,0,-2,-17,-10,-12,3,-1,-3
1558442095693076,1,1,3,-2,6,-9,0,1
1558442095709036,0,1,-7,-2,-2,3,6,1
1558442095709036,0,-1,7,8,0,-6,-5,-3
1558442095716305,1,2,11,7,-2,0,1,1
1558442095716305,-3,-4,-20,-20,-5,2,0,-3
1558442095731117,0,0,6,2,-5,-3,-4,0
1558442095731117,-1,-1,-5,-6,0,-3,-1,0
1558442095738659,0,0,1,7,-1,-4,-5,-3
1558442095738659,-3,-4,-4,-1,6,12,4,-1
1558442095754393,-1,1,2,0,6,-3,3,2
1558442095754393,-1,-4,-6,0,-9,1,-4,-4
1558442095754393,0,2,4,-11,6,-3,4,2
1558442095754393,0,0,9,6,-4,-24,-11,0
1558442095769349,-3,-3,-20,-15,-6,10,-5,-4
1558442095769349,-2,-2,5,-1,-5,2,0,0
1558442095776285,-3,-3,-2,7,-2,-1,-3,-2
1558442095776285,-2,1,2,-4,-4,2,1,-2
1558442095790192,-2,-2,2,-7,-1,-7,-2,-3
1558442095790192,-1,1,-1,8,3,6,-2,1
1558442095798175,-1,-5,-6,-4,-1,-11,-9,-2
1558442095798175,-1,-2,2,-3,0,7,4,0
1558442095814461,3,3,7,12,4,-4,1,2
1558442095814461,-3,-4,-8,-10,-7,-9,1,0
1558442095814461,0,1,4,16,5,14,2,-1
1558442095814461,1,3,4,-5,8,5,1,1
1558442095829116,0,-1,-7,-4,-6,-12,-1,-1
1558442095829116,0,-3,-6,-6,-6,-7,-3,-2
1558442095836290,-2,-2,-4,-3,1,3,2,0
1558442095836290,-1,-1,4,7,-6,-2,-5,-5
1558442095851032,-1,-2,6,11,-2,0,-5,-6
1558442095851032,3,1,-8,-12,2,1,2,1
1558442095858348,-1,-1,7,16,6,-3,-3,0
1558442095858348,-3,-1,1,-2,-10,-2,-5,-2
1558442095875309,-3,0,-2,-15,0,6,2,-3
1558442095875309,0,2,1,7,7,0,-2,0
1558442095889229,-2,1,-3,-9,-10,1,0,-1
1558442095889229,0,-2,0,5,7,6,1,2
1558442095890924,-1,-2,-5,-2,1,-5,-2,0
1558442095890924,-1,-1,0,-3,-9,-11,-5,-2
1558442095894914,-1,-1,-2,-13,1,7,2,-2
1558442095894914,-2,-1,1,7,-7,-7,-4,-2
1558442095911206,-1,-3,-3,7,-2,5,1,-1
1558442095911206,-1,0,1,0,6,-2,-2,-2
1558442095918177,-3,-5,-15,-17,-11,-17,-6,-4
1558442095918177,1,0,2,5,-2,-3,-3,-2
1558442095933806,2,1,5,5,9,11,3,3
1558442095933806,1,0,3,10,5,4,2,2
1558442095933806,-1,-2,9,9,1,-5,-3,-1
1558442095933806,2,0,-6,-12,5,1,3,2
1558442095949770,-2,-3,-9,-12,-8,-1,-2,2
1558442095949770,-2,-1,1,3,-6,3,-3,-6
1558442095955874,1,2,1,3,2,1,7,2
1558442095955874,-1,-1,6,9,7,2,0,-1
1558442095971031,0,3,1,-3,0,1,5,2
1558442095971031,-6,-6,-8,-23,-13,-6,-5,-3
1558442095978691,-3,-5,-1,3,-11,-5,-8,-3
1558442095978691,1,-1,-6,-10,6,6,7,3
1558442096000960,1,0,7,14,7,3,0,1
1558442096000960,-1,-4,-2,-2,-6,2,-4,-2
1558442096001627,0,2,-2,-7,1,3,4,1
1558442096001627,-1,-2,-3,1,-5,-10,-6,0
1558442096009610,-2,-2,-5,-8,-6,0,-1,-2
1558442096009610,-1,-1,-2,0,1,-6,1,0
1558442096015933,-3,0,3,-6,1,12,-3,-2
1558442096015933,-2,0,-5,-3,-2,-5,-1,0
1558442096030848,2,0,8,4,4,-10,0,3
1558442096030848,0,3,5,11,7,-7,0,1
1558442096038765,-1,1,3,3,-4,-13,-2,-2
1558442096038765,-2,-3,-5,-5,-5,3,-3,-5
1558442096053836,0,-2,-6,-11,-10,-13,-8,-8
1558442096053836,2,1,-1,9,14,25,13,6
1558442096054486,-2,-4,0,2,3,4,-3,-1
1558442096054486,-2,-2,0,-1,-4,-1,-4,-2
1558442096069448,-4,0,5,10,0,-6,-3,-1
1558442096069448,-1,-1,-3,-5,4,4,6,1
1558442096075734,3,0,1,0,4,2,3,0
1558442096075734,-2,-3,-11,-10,-4,0,-2,-1
1558442096090405,-3,-3,-1,8,-5,-9,-6,-3
1558442096090405,-1,-1,-7,-8,-3,-1,-2,3
1558442096098368,2,2,6,8,2,1,0,-2
1558442096098368,-2,-4,-5,-13,-15,-9,-6,-6
1558442096114358,-1,-1,10,13,3,6,-2,-1
1558442096114358,-2,-1,-12,-17,0,7,1,1
1558442096114358,-1,0,5,10,-3,-5,0,0
1558442096114358,-2,-3,-3,1,1,-2,-4,-4
1558442096129467,0,1,2,0,7,2,5,3
1558442096129467,2,0,8,5,0,-18,-1,2
1558442096135566,-3,-5,-6,-10,-5,-3,-5,-4
1558442096135566,2,3,6,-1,2,-1,5,-2
1558442096150259,-4,-4,-16,-16,-6,12,-3,-5
1558442096150259,-1,-3,1,-3,-3,-9,-4,-2
1558442096158210,2,1,1,1,14,2,6,4
1558442096158210,0,0,0,-7,-9,-3,-5,-1
1558442096173168,1,0,5,11,5,6,8,3
1558442096173168,-3,-3,-5,-8,-13,-10,-9,-6
1558442096174164,-2,-2,-3,-1,-5,-2,-3,-3
1558442096174164,1,2,-2,4,8,9,3,2
1558442096189125,-2,-2,-4,-11,-2,-4,-5,0
1558442096189125,-2,0,2,7,0,5,-2,-4
1558442096195109,-1,-1,0,3,-4,2,1,0
1558442096195109,0,1,2,-1,4,-3,5,3
1558442096211319,0,-3,6,9,1,-5,-1,-1
1558442096211319,-2,-1,2,-3,0,2,-2,0
1558442096218049,-3,-5,-18,-24,-10,-3,-5,-2
1558442096218049,0,-2,-1,2,-8,-3,-6,-4
1558442096234509,-1,-2,-3,-6,-6,-8,-4,-1
1558442096234509,-1,-2,8,11,13,5,4,1
1558442096234509,1,1,-2,-3,3,13,5,0
1558442096234509,0,2,6,16,9,3,7,4
1558442096249627,-2,-2,-9,-23,-8,-15,-9,-6
1558442096249627,-3,-3,-3,-2,-13,-6,-7,-3
1558442096255959,-1,-1,2,4,3,0,-2,-1
1558442096255959,-1,1,0,3,-1,2,-1,-1
1558442096270911,-3,-1,1,8,-1,1,1,0
1558442096270911,1,1,0,3,2,-14,-4,-4
1558442096278855,1,-2,-8,-13,3,10,6,3
1558442096278855,0,-5,3,10,-3,-8,-8,-4
1558442096293864,-2,0,-1,-7,-8,4,-2,-2
1558442096293864,-2,-3,-6,6,-5,-1,-1,-1
1558442096294353,-4,-1,1,-5,1,-6,-5,-1
1558442096294353,1,1,0,-2,6,-1,7,3
1558442096309316,-1,-3,2,1,7,-1,2,0
1558442096309316,1,0,-9,-15,-8,5,2,0
1558442096315297,-1,0,8,2,-6,-4,-11,-9
1558442096315297,-5,-5,-17,-14,-6,8,5,-3
1558442096330303,-3,3,3,3,6,-8,0,2
1558442096330303,2,3,10,8,11,7,1,1
1558442096338292,-4,-5,-11,-7,-14,-7,-7,-5
1558442096338292,-1,-3,-10,-10,-12,-4,-2,-3
1558442096354191,-4,-5,-4,-5,3,5,2,-3
1558442096354191,1,1,1,6,2,-5,0,0
1558442096361299,2,1,0,-4,-2,-11,-5,0
1558442096361299,-1,3,16,12,11,10,0,1
1558442096369615,1,2,-2,4,-2,2,-1,0
1558442096369615,-5,-4,-12,-4,-4,-4,-4,-4
1558442096376265,-1,-1,-2,9,3,-6,2,2
1558442096376265,0,0,1,-16,-1,-4,-2,0
1558442096390098,1,-3,-3,-2,3,0,0,1
1558442096390098,-3,-5,-3,-13,-8,9,-3,-2
1558442096398386,-2,-1,4,11,-2,4,2,-3
1558442096398386,-1,1,1,5,2,-9,-2,1
1558442096414394,-2,-1,-11,-11,-6,-5,-4,1
1558442096414394,-1,1,1,-1,2,4,5,0
1558442096414394,-1,0,1,5,3,0,0,-5
1558442096414394,-1,-2,6,3,0,3,-5,-2
1558442096429156,-1,-1,-2,-3,-4,1,-3,-3
1558442096429156,0,-2,-6,-4,-5,3,0,0
1558442096436301,2,-1,-5,-6,0,1,3,-1
1558442096436301,-1,-3,0,1,0,-8,1,0
1558442096451187,1,-1,3,-1,-3,1,-1,-1
1558442096451187,-1,-2,-4,-4,-3,-10,-6,-3
1558442096466209,0,3,5,12,8,-4,-1,-1
1558442096466209,-2,-2,-2,-13,-11,-2,-3,-4
1558442096473872,-1,-1,-2,3,4,-7,1,0
1558442096473872,3,2,10,4,10,7,2,2
1558442096473872,-2,-5,-10,-20,-15,-2,-8,-4
1558442096473872,-4,-2,-6,3,-5,1,-6,-2
1558442096489127,0,2,6,12,-1,-1,-1,-1
1558442096489127,2,1,5,-6,-1,-7,2,0
1558442096495846,1,0,-3,2,7,-4,4,4
1558442096495846,-3,-1,1,0,0,3,-3,-2
1558442096510773,-1,-1,4,3,-1,1,1,3
1558442096510773,0,-1,-5,1,0,-2,-2,-6
1558442096517789,1,1,4,1,-8,-10,-1,0
1558442096517789,1,1,-7,-3,10,8,7,1
1558442096532718,0,1,2,-4,3,8,-1,-2
1558442096532718,-1,-1,7,7,0,3,0,4
1558442096540695,-3,-3,-5,-3,-2,-2,-2,-3
1558442096540695,1,-2,-4,-1,0,3,3,2
1558442096555993,-1,-2,4,9,-3,-12,-6,-2
1558442096555993,1,0,-7,-17,3,11,4,0
1558442096556653,-3,-4,-5,-6,-4,-10,-4,-1
1558442096556653,0,0,0,-4,1,4,1,-2
1558442096571106,0,-2,-3,1,-1,8,2,-4
1558442096571106,-1,2,4,8,2,-7,1,-1
1558442096578027,-2,-2,-6,-10,-9,-2,-3,-2
1558442096578027,-2,-2,-5,10,-2,-10,-5,-2
1558442096592986,1,1,2,-1,11,18,7,2
1558442096592986,-4,-5,-6,-13,-17,-6,-8,-3
1558442096600964,0,0,-1,2,2,-7,2,-2
1558442096600964,1,0,1,-5,1,-9,1,0
1558442096609509,-1,-4,0,6,-8,-5,-9,-4
1558442096609509,-2,-1,5,5,8,3,1,-1
1558442096615877,-4,-2,-4,1,4,4,0,2
1558442096615877,-2,-3,-7,-12,-16,-3,-6,-5
1558442096630852,0,2,1,-14,-2,-16,-3,1
1558442096630852,-2,-1,-5,3,-1,-12,-4,0
1558442096638851,2,-1,-1,1,2,3,5,3
1558442096638851,-1,-1,-5,-8,-4,-5,-8,-4
1558442096652776,-3,-3,-2,-4,-7,0,-1,-4
1558442096652776,-4,-1,3,11,9,10,5,2
1558442096660785,2,3,1,-7,3,4,2,0
1558442096660785,-2,-2,-10,-1,-2,-6,0,1
1558442096669524,-2,1,4,8,0,-8,-3,-4
1558442096669524,-3,-7,-20,-24,-14,-4,-3,-7
1558442096675617,0,1,5,11,3,6,3,2
1558442096675617,-3,-2,5,-2,-3,-1,-4,-6
1558442096690294,1,0,3,7,14,14,10,4
1558442096690294,-2,-2,-8,8,-2,-2,-3,-4
1558442096698547,0,-1,-4,-12,-8,1,-7,-2
1558442096698547,0,1,8,8,1,-8,-2,2
1558442096713525,-2,-2,-5,-9,-4,-1,-5,-1
1558442096713525,0,2,12,13,13,7,8,3
1558442096720215,2,1,2,1,4,-3,1,1
1558442096720215,-3,-4,-4,-4,-4,2,-9,-6
1558442096736171,-4,-3,-5,-1,-12,-8,-5,-2
1558442096736171,-1,-1,-2,-10,-10,-3,-2,-2
1558442096737170,-2,1,3,8,10,14,9,0
1558442096737170,1,1,8,5,2,-2,-2,0
1558442096751305,-2,-3,-11,-10,-7,4,-3,-4
1558442096751305,-1,-2,1,1,1,6,0,0
1558442096758487,1,1,2,-3,4,-12,-2,3
1558442096758487,0,0,-6,-10,-1,-6,3,3
1558442096772565,-1,-1,-8,-3,-13,-17,-6,-3
1558442096772565,-4,0,0,4,-3,1,-3,-1
1558442096780545,-4,-2,5,3,-1,10,1,-1
1558442096780545,-1,0,1,1,3,1,1,-1
1558442096796501,2,3,7,7,6,6,4,2
1558442096796501,1,-2,-10,-10,-3,-7,0,2
1558442096796501,-2,-4,-7,-12,-12,-6,-6,-4
1558442096796501,1,-1,2,5,3,8,4,0
1558442096810896,-1,1,2,-3,4,-2,0,0
1558442096810896,-1,-2,-9,-1,-4,1,1,-1
1558442096818859,-5,-1,9,15,3,-2,-6,-4
1558442096818859,-3,-1,-4,-9,-10,1,1,-1
1558442096833403,0,0,5,0,4,4,1,1
1558442096833403,1,0,-1,-3,4,5,2,0
1558442096840419,-1,-1,-2,-5,-6,-1,-4,-1
1558442096840419,0,1,8,14,4,-14,-7,1
1558442096864756,-2,-1,-4,1,2,-2,4,1
1558442096864756,0,-1,-6,-19,-8,-4,-5,-3
1558442096865318,-1,-4,-5,0,-7,-3,-1,-1
1558442096865318,-1,-4,1,-1,-3,-4,-7,-6
1558442096870715,3,3,-1,-4,9,6,10,6
1558442096870715,-1,1,9,6,5,-8,0,-1
1558442096878283,0,0,-2,4,3,6,1,0
1558442096878283,-1,-1,-7,-7,-8,-7,-3,-2
1558442096893241,-5,-4,-1,-6,-9,1,-7,-4
1558442096893241,2,1,2,5,15,1,6,3
1558442096900258,-1,-1,-6,2,-2,-2,-5,0
1558442096900258,-3,-2,1,6,6,10,9,2
1558442096916180,-1,-3,-9,-16,-7,0,-4,-2
1558442096916180,-3,-2,5,13,-8,-25,-8,-3
1558442096917181,1,-1,-4,-6,2,-4,2,0
1558442096917181,1,-1,2,6,3,11,2,0
1558442096930143,-2,-2,-1,-3,-6,-6,-6,-4
1558442096930143,0,-1,-3,2,-4,11,1,1
1558442096938123,-2,-2,1,-10,-2,-5,-3,0
1558442096938123,0,2,6,6,-3,0,5,0
1558442096953511,0,-4,-10,-3,-3,-9,-3,1
1558442096953511,0,-1,2,2,-1,5,-2,-6
1558442096961310,0,-2,-6,-6,-3,-3,-1,-2
1558442096961310,1,1,-3,-10,4,4,1,0
1558442096978019,2,0,1,0,0,-9,3,2
1558442096978019,-1,0,4,9,5,-1,-1,0
1558442096979015,-1,0,3,-2,-3,6,-2,-4
1558442096979015,-5,-1,-2,-6,-5,-1,-1,-2
1558442096989984,-4,1,-8,-1,-3,-9,-6,-2
1558442096989984,2,-3,6,2,2,0,0,1
1558442096998153,-2,0,2,4,-1,-3,-6,-1
1558442096998153,1,-2,-11,-13,-1,-6,1,1
1558442097012921,0,-3,5,6,-3,-3,-4,-4
1558442097012921,-3,-2,-7,-20,-1,10,7,0
1558442097020902,-1,2,6,14,3,6,2,-1
1558442097020902,-3,-4,-17,-15,-2,-1,-4,-1
1558442097035860,-1,1,8,10,-2,-5,1,0
1558442097035860,-2,-2,-2,-7,-4,-2,-2,-1
1558442097036866,2,3,3,-2,2,-8,-1,1
1558442097036866,-2,-2,4,10,-4,-3,-5,-3
1558442097050828,1,2,-4,-7,0,8,3,-4
1558442097050828,-1,1,-1,2,-9,-10,-7,-3
1558442097057813,-2,-2,0,0,8,-3,3,1
1558442097057813,3,0,-10,-28,-5,-9,0,4
1558442097080743,-2,-5,1,11,0,6,-2,-2
1558442097080743,-2,-4,-7,-2,-2,11,-1,-2
1558442097081739,-1,-2,1,-3,-7,-5,-2,-2
1558442097081739,0,0,2,8,0,-6,-2,-1
1558442097095702,-1,0,0,-1,8,12,4,-1
1558442097095702,-2,-1,1,1,-3,-6,-5,-2
1558442097096698,2,1,-2,-7,5,-9,2,6
1558442097096698,-3,-2,1,5,-1,0,1,-6
1558442097110662,0,0,1,0,0,-6,-6,-1
1558442097110662,-2,-2,4,9,-3,4,-3,-2
1558442097117644,-1,-2,-4,-4,-9,-6,-3,-4
1558442097117644,1,1,2,2,6,1,4,5
1558442097132603,-1,-1,6,9,5,3,1,-2
1558442097132603,-2,-1,-6,-5,-9,-3,-3,-1
1558442097140581,-3,-3,-5,-1,-8,-1,-5,-4
1558442097140581,-2,0,5,6,3,5,2,-1
1558442097164518,-3,-2,-1,-6,4,2,0,0
1558442097164518,3,4,-3,-9,-5,-14,-5,0
1558442097164518,-1,-3,-12,-14,-5,9,0,-3
1558442097164518,-1,-2,7,11,-1,3,0,-3
1558442097170501,-4,-2,-8,-11,0,-3,1,-1
1558442097170501,-2,-2,0,-2,-1,-10,-1,-2
1558442097177482,-3,-2,2,3,-3,-11,-2,-2
1558442097177482,-2,-3,-12,-5,-2,11,-3,-4
1558442097192443,0,-1,-6,-8,-9,-4,-4,2
1558442097192443,1,0,7,8,11,10,4,2
1558442097200421,-2,-2,1,3,-3,-7,-2,-1
1558442097200421,-3,-1,-4,-6,-2,-5,-4,-2
1558442097216379,0,2,7,10,-2,7,4,0
1558442097216379,0,-2,-7,-11,2,-3,-4,-3
1558442097216379,3,4,3,1,6,8,4,0
1558442097216379,1,2,5,1,2,-6,-4,0
1558442097230341,-2,0,2,7,-5,-3,-3,-3
1558442097230341,-4,-2,3,5,3,1,0,1
1558442097238320,-3,-4,-24,-18,-12,-4,-4,-8
1558442097238320,1,1,8,10,10,-6,6,3
1558442097253279,1,-2,-8,-5,3,10,1,-1
1558442097253279,-3,-2,5,4,-7,-14,-7,0
1558442097260272,-1,0,10,8,7,-3,1,2
1558442097260272,0,-5,-17,-14,-6,3,0,-1
1558442097276219,0,-1,3,3,-8,-5,-3,-3
1558442097276219,0,-1,-8,-2,3,9,4,0
1558442097277218,-2,2,1,-3,3,9,0,1
1558442097277218,-4,-2,1,1,-12,-12,-10,-4
1558442097290184,-1,-2,5,-3,-1,2,-1,2
1558442097290184,1,2,-7,-4,8,8,5,2
1558442097298169,0,-1,-4,-12,-7,-8,-5,-1
1558442097298169,-2,-1,3,7,0,3,0,-2
1558442097329077,1,-1,-12,-15,-7,-10,-7,-3
1558442097329077,-7,-6,5,-1,-11,-10,-4,-5
1558442097330096,0,2,4,3,4,12,5,3
1558442097330096,2,3,7,9,20,14,11,6
1558442097336059,-2,0,3,-1,-4,-6,-2,-1
1558442097336059,0,0,-10,-16,-4,3,-6,-5
1558442097337055,-1,-2,6,15,6,11,1,4
1558442097337055,-1,-2,-3,-3,-12,-19,-8,-1
1558442097350021,0,1,10,9,12,14,6,3
1558442097350021,-2,-5,-19,-14,-9,-6,-3,-2
1558442097358000,-3,-1,2,-3,-2,-1,-2,-4
1558442097358000,-2,-1,-7,0,-10,1,-1,-4
1558442097372959,-3,-3,-7,-4,4,-3,4,2
1558442097372959,2,0,7,7,0,-8,-2,2
1558442097379941,-1,-1,5,4,-1,-1,-2,-2
1558442097379941,-2,-2,1,0,1,3,-6,-3
1558442097395898,-3,-7,-22,-30,-24,-12,-3,-5
1558442097395898,7,6,13,15,25,9,13,7
1558442097403877,1,-1,-2,1,0,0,-2,0
1558442097403877,-3,-4,-3,-1,-9,-6,-8,-4
1558442097410862,-1,-1,-4,-6,1,1,-1,-1
1558442097410862,-1,-1,5,4,1,3,-1,2
1558442097417840,0,-1,-7,-4,-1,0,-1,0
1558442097417840,0,0,4,3,-6,-12,-4,-4
1558442097432801,-2,2,6,5,5,-3,-1,-3
1558442097432801,-2,-3,-7,2,-4,-2,-2,-1
1558442097440778,0,-1,-6,-4,3,-1,1,1
1558442097440778,-1,0,0,-5,1,-1,0,1
1558442097455739,-3,-4,0,0,-15,-6,-5,-3
1558442097455739,2,3,0,0,10,1,1,2
1558442097463716,-3,-1,-7,-18,-15,-12,-7,-4
1558442097463716,-3,-1,-2,4,14,19,8,5
1558442097486655,1,1,3,5,2,-7,3,1
1558442097486655,-3,-3,2,9,-6,1,-6,-4
1558442097487655,0,-3,-6,-10,-9,-9,-2,-2
1558442097487655,1,1,0,-7,8,12,4,-1
1558442097492639,-1,0,4,8,6,-10,-5,-1
1558442097492639,0,-2,-10,-9,-6,5,2,0
1558442097500619,-3,-1,9,20,4,5,-5,-4
1558442097500619,-3,-5,-15,-20,-10,-10,-1,2
1558442097515577,-3,-4,-9,-6,-1,-1,-2,-1
1558442097515577,-1,-1,2,-2,-1,0,-5,-2
1558442097523560,0,-2,-1,-6,-6,4,2,1
1558442097523560,-1,-1,5,6,0,-2,-5,0
1558442097530539,1,2,2,0,9,3,7,8
1558442097530539,2,2,6,5,-1,-13,0,-2
1558442097537520,-4,-3,-6,-5,-5,-3,-5,-4
1558442097537520,0,1,2,0,-4,3,-2,-4
1558442097552480,1,-2,3,4,6,6,-4,-1
1558442097552480,0,-1,0,-6,-6,-2,-1,-4
1558442097560460,1,0,2,9,8,-7,4,1
1558442097560460,-2,-1,-8,-16,-15,-27,-5,-4
1558442097575418,-1,-2,-7,-7,2,7,1,-2
1558442097575418,-3,-3,-5,-10,-3,2,-3,-2
1558442097582399,-3,-3,1,-3,-11,2,-3,-2
1558442097582399,-1,-2,-3,-11,3,-6,0,1
1558442097591379,0,0,6,14,-3,-1,1,-3
1558442097591379,-3,-3,-2,2,-2,-1,0,-1
1558442097597359,4,1,3,0,16,15,7,4
1558442097597359,1,-2,0,-2,-4,-8,-7,-2
1558442097613316,-3,-2,6,15,5,4,4,0
1558442097613316,-2,-1,-7,-16,-7,-6,-2,-2
1558442097620299,-2,-2,-7,6,2,1,-3,-2
1558442097620299,-1,3,-1,-7,2,14,4,3
1558442097635258,-1,-2,0,2,-5,-13,-12,-5
1558442097635258,-1,0,7,0,0,4,0,1
1558442097643236,-1,-2,-10,-3,1,-6,0,-3
1558442097643236,1,-3,-5,-2,-1,-8,6,0
1558442097658197,1,-1,-10,-13,-10,-1,-5,-2
1558442097658197,-1,-3,3,4,0,5,-4,-4
1558442097659195,1,5,8,4,3,-4,5,3
1558442097659195,-1,0,-1,-4,1,6,-2,-1
1558442097673160,1,1,9,0,4,2,0,0
1558442097673160,-2,-3,-9,-2,-2,-4,-2,1
1558442097680138,-1,-3,-1,-1,-4,-6,-2,0
1558442097680138,-2,-5,-10,-9,-12,0,-5,-5
1558442097703076,-1,0,5,1,2,-3,-2,-1
1558442097703076,2,4,5,11,9,1,3,1
1558442097704074,0,-1,1,-5,-4,-6,0,-3
1558442097704074,-1,-1,-9,-9,-6,-1,-1,0
1558442097718036,-3,-3,-5,-3,-5,-4,0,0
1558442097718036,-1,-1,-7,-5,-2,-2,5,2
1558442097719035,-1,-1,8,10,6,3,-1,0
1558442097719035,-1,0,7,8,-4,-1,-3,-3
1558442097732996,1,-1,-5,-2,9,16,2,1
1558442097732996,-2,-2,-9,-9,0,-9,1,0
1558442097739981,2,2,5,9,6,4,0,2
1558442097739981,-2,0,6,7,-4,-1,-4,1
1558442097754937,-5,-5,-9,-6,-9,-10,-6,-5
1558442097754937,-2,-2,-2,-7,-6,0,-1,-2
1558442097762918,-2,-1,-2,1,-6,-3,-5,-3
1558442097762918,-1,-1,1,4,7,9,0,-2
1558442097779872,4,2,1,2,0,-2,5,2
1558442097779872,0,-1,10,10,1,-3,-2,-3
1558442097780869,-3,-2,-4,-7,-6,-9,-4,-2
1558442097780869,-3,-2,6,9,0,3,0,-1
1558442097792840,-1,-2,-11,-21,-3,-7,-1,-2
1558442097792840,-1,-2,-5,-3,-2,11,0,-4
1558442097799818,-5,-3,-4,-4,-9,5,-11,-5
1558442097799818,2,2,10,4,13,4,13,5
1558442097815774,2,1,5,12,8,-4,1,4
1558442097815774,-3,-2,4,-4,-3,-4,-9,-5
1558442097822759,-1,-4,-9,-6,-10,-1,-3,-2
1558442097822759,-1,-2,-2,-1,-8,-3,-4,-2
1558442097838713,1,2,-1,-3,0,-17,0,3
1558442097838713,0,1,4,4,8,0,5,3
1558442097839712,-3,-4,0,9,0,1,-2,-1
1558442097839712,-1,-1,-7,-20,-4,-8,1,-3
1558442097852692,-1,-1,0,-2,-1,-4,1,0
1558442097852692,3,1,4,11,1,-1,-2,0
1558442097860655,0,1,0,-8,2,2,0,1
1558442097860655,-2,-3,-9,-4,0,3,-5,-3
1558442097875616,-2,-2,-3,0,-8,-8,-4,-2
1558442097875616,-3,-1,-3,-6,-14,-7,-5,-2
1558442097882596,-1,-3,-8,-7,1,5,8,1
1558442097882596,3,-1,6,12,8,3,-1,1
1558442097898570,-5,-2,0,10,-3,1,-7,-7
1558442097898570,-4,-3,-13,-21,-14,-12,-9,-2
1558442097899552,-2,1,2,-1,0,3,8,3
1558442097899552,-1,1,-2,4,9,10,7,4
1558442097912517,-1,0,6,0,1,5,3,1
1558442097912517,-3,-5,0,9,3,2,-3,0
1558442097920494,-1,-3,-16,-28,-12,-7,-11,-7
1558442097920494,2,2,1,3,1,-10,-1,-2
1558442097935456,0,3,2,6,2,0,1,-1
1558442097935456,-1,-1,-11,-14,-5,-1,0,-2
1558442097942436,-5,-2,3,2,-1,-16,-5,-1
1558442097942436,0,-2,-2,1,3,10,2,2
1558442097958394,-4,-6,-6,-17,-12,-2,-7,-3
1558442097958394,0,-1,2,7,-4,-7,-1,0
1558442097959391,2,1,10,13,10,11,5,0
1558442097959391,-2,0,-1,-5,2,-6,1,0
1558442097981331,-1,0,-1,1,4,7,1,-1
1558442097981331,0,0,4,7,8,13,6,1
1558442097981331,1,0,5,8,1,1,-5,-3
1558442097981331,-4,-2,-1,-5,-11,-11,-9,-2
1558442097995301,-1,1,-4,-3,0,-6,3,2
1558442097995301,-3,-3,-6,-12,-11,-13,-4,-2
1558442098003273,0,2,6,8,4,8,2,1
1558442098003273,0,-1,-5,0,-5,4,-3,-3
1558442098018233,-3,-3,-4,-10,-8,-5,-4,-5
1558442098018233,0,1,1,1,8,4,2,1
1558442098019230,1,-2,3,5,2,-12,0,0
1558442098019230,-4,-3,-8,1,-2,2,-5,-3
1558442098033193,-1,-4,-9,-17,1,21,6,-1
1558442098033193,0,0,4,5,-2,-7,-4,1
1558442098040175,-1,2,2,3,7,2,5,3
1558442098040175,-2,-2,1,-3,-9,-10,-5,-4
1558442098055136,1,-1,2,7,2,4,-3,-3
1558442098055136,2,1,3,4,9,14,3,2
1558442098063114,0,-1,-6,1,-11,-2,-1,-1
1558442098063114,-3,-4,-1,-2,-11,-12,-10,-2
1558442098078074,-2,-2,-2,4,1,-3,3,0
1558442098078074,-1,-1,-6,-5,-2,-1,1,-2
1558442098079071,0,1,5,1,6,3,3,2
1558442098079071,0,0,5,4,0,3,3,0
1558442098093033,-1,-6,-12,-15,-19,-15,-11,-4
1558442098093033,-2,0,1,4,9,14,4,2
1558442098100014,-1,-2,-2,-6,8,1,6,1
1558442098100014,1,1,1,11,-3,-7,-3,-2
1558442098114975,0,-2,-3,-12,-6,-7,-6,-3
1558442098114975,-3,-2,-2,-3,-8,-5,-9,-6
1558442098122956,1,2,0,7,5,9,2,0
1558442098122956,0,-1,-13,-18,-7,1,1,1
1558442098138910,0,-1,3,3,8,-7,-1,3
1558442098138910,-2,-2,4,7,-2,-6,-3,-1
1558442098138910,-2,-3,-11,-12,-4,2,-7,-6
1558442098138910,1,4,17,21,13,13,6,3
1558442098153870,-2,-2,-26,-27,-16,-13,-3,0
1558442098153870,-1,-2,1,4,-1,-2,-1,-1
1558442098159855,-1,-4,-4,-5,-3,-5,2,1
1558442098159855,2,1,9,9,9,6,8,3
1558442098174814,0,1,-3,-3,1,1,-7,-2
1558442098174814,2,2,6,13,5,7,-1,-2
1558442098185045,0,0,-4,-24,-7,-7,-1,0
1558442098185045,-3,-3,-3,9,-2,-8,-4,-5
1558442098199747,0,-1,-1,3,-1,7,-1,-3
1558442098199747,-2,-2,7,10,-1,-5,1,-1
1558442098200745,-3,-2,-10,-15,-6,-2,0,-1
1558442098200745,-2,-2,-9,-13,-6,1,-3,0
1558442098213710,3,0,15,14,11,5,6,3
1558442098213710,1,-1,0,3,4,-10,-2,0
1558442098220692,-3,-4,-6,-11,-2,8,-1,0
1558442098220692,-2,0,-1,-8,-10,-17,-6,-3
1558442098235651,-1,1,4,2,5,6,0,-2
1558442098235651,-1,0,-6,-11,-1,12,0,-1
1558442098242633,1,1,1,5,-1,-10,-3,-2
1558442098242633,-2,-2,-6,-10,-2,-4,-3,-1
1558442098258591,1,2,10,13,2,-5,0,0
1558442098258591,-2,0,-6,-12,-6,-4,1,-1
1558442098259587,-3,1,17,21,3,-1,-3,-1
1558442098259587,0,-3,-11,-22,-6,3,-6,-4
1558442098272555,-5,-4,-1,6,-4,-4,-1,-3
1558442098272555,1,1,-6,-12,8,-3,8,8
1558442098280531,-1,0,-2,5,-8,-7,-5,-3
1558442098280531,2,1,9,13,9,10,5,1
1558442098295491,-1,2,5,2,-2,-2,-5,-2
1558442098295491,-3,-6,-4,2,-7,3,-2,-3
1558442098302473,1,-2,-6,-12,-1,9,2,0
1558442098302473,-1,-2,3,9,3,-7,-5,-3
1558442098318430,-1,1,1,11,8,7,0,2
1558442098318430,-1,-2,2,-6,-11,-16,-3,-3
1558442098319429,-2,-4,-3,4,-6,-12,-5,-3
1558442098319429,0,-2,0,7,6,5,2,-1
1558442098332392,-1,-4,-14,-31,-5,1,3,0
1558442098332392,-5,-2,0,6,-8,-9,-11,-5
1558442098340373,1,-1,4,0,9,-1,-2,1
1558442098340373,-4,-1,-5,-4,-6,-1,-6,-3
1558442098355331,-2,0,9,10,0,12,2,-2
1558442098355331,0,-2,-5,-5,7,6,6,-1
1558442098362313,-1,-1,-4,-3,0,8,1,0
1558442098362313,-1,-1,-2,-7,-8,-8,-3,-1
1558442098378270,2,1,1,5,5,-1,3,4
1558442098378270,-2,0,3,6,4,5,5,1
