timestamp,emg1,emg2,emg3,emg4,emg5,emg6,emg7,emg8
1558442106773216,-1,-5,-10,-3,-3,-8,-3,-2
1558442106773216,-1,1,8,11,8,14,3,-5
1558442106773216,1,-1,-1,8,1,3,4,0
1558442106773216,-2,-3,2,-15,-5,-5,-4,-4
1558442106774214,0,1,8,9,-1,4,-1,0
1558442106774214,-1,-2,-6,-12,-6,-10,-7,-2
1558442106775212,-3,-4,-15,-10,-3,-2,-5,0
1558442106775212,-1,1,-1,6,7,6,3,2
1558442106785186,1,2,7,6,4,3,-1,-2
1558442106785186,-3,-3,-7,-10,-9,-2,-4,-4
1558442106794161,-1,0,7,4,2,0,-2,-3
1558442106794161,-2,-4,-6,-6,-13,2,-3,-2
1558442106801142,2,1,1,-8,-2,-15,-2,1
1558442106801142,1,0,4,12,7,6,3,1
1558442106815104,0,-2,-8,-9,-8,-12,-6,-4
1558442106815104,-4,-3,-5,-8,-8,-4,-4,-4
1558442106834054,0,0,-1,1,6,16,5,1
1558442106834054,2,3,10,2,4,-5,6,4
1558442106835050,-3,-4,-2,-2,-8,-4,-7,-1
1558442106835050,0,0,8,17,4,-11,-2,-3
1558442106847019,0,-2,-10,-12,2,2,0,-1
1558442106847019,0,-2,1,1,0,6,0,-1
1558442106853003,-1,-2,-2,-2,7,7,7,0
1558442106853003,-1,-1,-6,-10,-8,-8,-4,0
1558442106863974,-3,-3,1,5,-5,-11,-6,-2
1558442106863974,0,-3,-8,-3,-4,-6,-1,0
1558442106883919,-2,-1,-6,-17,-4,0,-4,-3
1558442106883919,1,2,10,18,13,13,9,4
1558442106916833,-3,0,0,-3,-5,-1,-5,-5
1558442106916833,-2,-3,-2,4,0,-8,-2,-2
1558442106917830,0,1,2,6,-1,-1,-1,-1
1558442106917830,-1,-2,0,3,0,3,0,-3
1558442106920822,2,2,4,5,5,-2,3,3
1558442106920822,-2,-2,-6,-5,-7,6,-2,-2
1558442106928800,0,0,1,-14,-6,-4,-2,-2
1558442106928800,0,-2,0,-6,-6,-19,-12,-1
1558442106930795,-1,-2,-13,-4,5,13,6,1
1558442106930795,0,0,-1,3,-7,-3,2,1
1558442106934784,1,0,3,-2,2,-1,1,-1
1558442106934784,-3,-2,-6,-1,2,12,1,0
1558442106943760,-4,-2,3,-1,-7,-13,-13,-7
1558442106943760,0,0,1,4,4,5,-1,-3
1558442106957723,0,0,-10,-9,9,13,8,3
1558442106957723,-2,0,1,-4,-5,-10,-3,-1
1558442106964704,2,0,1,3,5,-1,0,2
1558442106964704,1,-3,0,-2,-4,3,-2,-1
1558442106972682,-2,0,0,9,-7,-5,-7,-4
1558442106972682,-1,0,2,-11,1,8,9,1
1558442106987642,-2,-3,-21,-15,-3,-10,-4,0
1558442106987642,0,2,1,5,0,0,0,1
1558442106994624,-2,-3,-4,-9,-6,-6,-3,-2
1558442106994624,1,1,2,-1,2,4,1,0
1558442107018560,-2,-3,2,-3,-5,4,5,-1
1558442107018560,0,-1,-4,-11,2,6,2,0
1558442107019557,0,-2,5,11,1,2,-1,0
1558442107019557,-2,-3,-6,-4,-7,-1,-12,-5
1558442107024544,2,2,10,9,-2,-5,4,1
1558442107024544,-1,-2,-6,-9,-2,-7,-5,-2
1558442107032522,-3,-2,1,4,-7,1,-5,-5
1558442107032522,-1,0,0,3,4,0,3,0
1558442107047483,0,2,6,7,-4,4,0,0
1558442107047483,-4,-4,-11,-21,3,-1,3,0
1558442107055463,-1,1,9,3,4,-9,1,3
1558442107055463,-2,-2,-15,-5,-1,-4,0,0
1558442107063441,-1,1,6,0,0,7,-4,-1
1558442107063441,-2,0,3,10,-17,-7,-10,-6
1558442107078401,4,1,3,6,7,-10,6,3
1558442107078401,2,0,1,3,12,1,9,3
1558442107085381,-1,-2,1,0,-2,3,-1,-3
1558442107085381,-2,-1,-5,-5,-2,-3,-7,-2
1558442107092364,-1,0,0,-6,0,5,2,1
1558442107092364,1,2,12,9,4,1,1,1
1558442107107323,-1,-3,-10,-13,-7,-7,-8,-5
1558442107107323,1,1,5,1,-2,2,4,1
1558442107115301,-2,-2,-10,1,-3,-2,-4,-2
1558442107115301,-1,3,12,15,4,-4,0,0
1558442107124277,-2,-2,-8,-18,-3,0,2,-1
1558442107124277,-2,-1,5,12,9,7,0,-2
1558442107138241,-2,-1,-4,-9,-6,6,0,-3
1558442107138241,1,-3,-3,8,-6,-15,-4,-2
1558442107145221,0,-1,-5,-16,3,-2,4,3
1558442107145221,0,1,1,7,4,-9,1,0
1558442107152203,-5,-5,0,2,-2,6,-4,-1
1558442107152203,-2,-1,-4,-6,-2,9,-3,-1
1558442107167162,2,2,8,8,5,-5,5,3
1558442107167162,0,-3,-11,-5,2,5,5,0
1558442107175142,-3,-2,-2,-1,3,-5,-3,-2
1558442107175142,-3,-3,-2,-8,-8,1,-6,-3
1558442107184117,0,-1,10,8,-2,4,6,3
1558442107184117,0,1,0,-1,2,-9,-4,0
1558442107198081,2,2,6,16,7,5,1,0
1558442107198081,-1,0,-8,-22,-8,-2,1,-2
1558442107205062,-1,-3,-7,-7,-4,-2,-7,-2
1558442107205062,-3,-2,5,0,3,-9,3,1
1558442107212043,-1,-5,-5,-3,-7,-4,-4,-3
1558442107212043,0,-1,3,-4,0,-3,0,-1
1558442107228000,1,2,9,25,9,5,3,1
1558442107228000,-1,0,3,-7,-4,-7,-6,-2
1558442107234982,-2,-1,-13,-13,-8,-7,-9,-6
1558442107234982,-1,-4,-8,-7,-6,6,2,0
1558442107243958,2,2,0,11,11,7,1,0
1558442107243958,0,-1,3,-8,-1,4,4,2
1558442107258918,-4,0,1,-4,-6,-10,-3,-5
1558442107258918,-1,-1,0,3,-1,5,-3,-3
1558442107264901,-2,-4,-3,1,-9,-6,-7,-4
1558442107264901,0,1,0,3,0,8,4,3
1558442107272881,0,-2,-3,-10,0,-10,-4,3
1558442107272881,-3,-2,4,15,1,0,-1,-5
1558442107287841,-4,-3,-2,-11,4,-8,-2,-3
1558442107287841,-2,-3,-1,4,-8,-2,-5,-5
1558442107294821,2,-1,-3,-5,1,10,10,-1
1558442107294821,-1,1,14,16,-1,-7,-3,0
1558442107303798,1,-1,-21,-18,6,17,7,3
1558442107303798,-5,-4,-11,-19,-13,-8,-10,-6
1558442107317761,1,2,5,7,10,0,3,4
1558442107317761,0,-1,-8,-9,-3,4,0,-1
1558442107324742,-2,-2,2,-7,-6,-9,-7,-2
1558442107324742,0,-2,-1,8,0,-3,-6,-4
1558442107332720,3,2,-1,-11,11,15,11,5
1558442107332720,1,1,0,-10,7,-19,-3,1
1558442107347680,-3,-2,5,12,-21,-10,-8,-4
1558442107347680,0,-2,-10,-10,-2,3,-1,-1
1558442107354661,1,-2,1,5,-1,-7,1,-1
1558442107354661,-4,-1,-2,0,2,10,1,-1
1558442107363637,0,1,7,0,-2,-2,-3,-1
1558442107363637,2,2,10,14,6,2,3,2
1558442107378598,-5,-5,-21,-28,-16,-20,-13,-5
1558442107378598,-2,-2,-4,-5,1,4,0,-1
1558442107384581,-3,-5,-2,3,-1,6,1,-1
1558442107384581,-1,0,10,9,-1,3,-3,-1
1558442107400538,-1,0,6,7,9,15,4,1
1558442107400538,2,2,-3,9,2,-14,3,2
1558442107407520,1,1,4,-1,11,6,1,3
1558442107407520,1,2,-4,-17,1,2,5,-2
1558442107415498,-2,0,-1,6,-15,-2,-4,-1
1558442107415498,-3,-2,-1,1,-13,-8,-10,-5
1558442107423477,1,1,4,8,12,8,5,2
1558442107423477,1,-2,-6,-6,3,-6,1,0
1558442107437441,-1,-1,9,11,0,-1,-5,-4
1558442107437441,-3,-6,-6,0,0,5,0,-2
1558442107446416,1,-3,-4,-8,-10,-10,-4,-3
1558442107446416,-1,-2,5,9,-4,-8,-5,-1
1558442107461376,0,1,-6,-7,2,11,2,0
1558442107461376,-2,0,4,-2,-1,10,-1,-1
1558442107469354,-1,1,5,14,14,-2,4,1
1558442107469354,-2,-1,-4,-12,-1,3,0,3
1558442107475338,-3,-2,7,5,-10,-16,-9,-5
1558442107475338,3,0,1,-9,-2,0,7,1
1558442107484315,-2,-3,-9,-6,1,2,-2,1
1558442107484315,-1,0,0,-2,-4,-9,-2,-1
1558442107498278,0,-3,-6,-4,-1,-1,-3,-1
1558442107498278,-4,-2,-2,-4,-9,0,-8,-6
1558442107505263,-2,1,10,8,2,4,-2,-2
1558442107505263,-1,-1,-2,3,14,10,8,2
1558442107520238,-1,-3,-2,0,-6,-8,-2,0
1558442107520238,-1,-5,-7,-2,-2,-5,-2,-3
1558442107527200,-3,-2,-4,-4,-12,-8,-10,-5
1558442107527200,0,-2,0,4,4,1,3,1
1558442107535178,-2,0,2,8,4,-6,-2,-5
1558442107535178,2,3,-2,-10,4,3,4,4
1558442107544155,-1,-1,-9,-9,-10,-6,-2,-3
1558442107544155,0,0,5,12,3,1,-3,-2
1558442107558118,-3,-2,-5,-6,-5,-1,-3,-2
1558442107558118,0,1,3,-4,8,9,8,2
1558442107572080,-3,-3,-3,-5,-3,-15,-3,0
1558442107572080,0,0,2,3,2,-1,0,-1
1558442107581057,-1,-3,-2,-3,-6,-1,-4,-2
1558442107581057,1,-3,-7,4,-2,-1,-2,0
1558442107596016,-3,-6,-9,-9,-6,3,-3,-2
1558442107596016,-2,-1,0,-5,-1,0,-1,0
1558442107596016,1,3,3,0,7,-1,6,3
1558442107596016,-2,-1,4,9,2,-2,-2,-1
1558442107603995,-2,-6,-10,-7,-10,-5,-8,-5
1558442107603995,2,2,2,4,4,6,5,4
1558442107625938,2,1,-2,-9,7,4,5,1
1558442107625938,-2,-3,-9,-8,-6,1,-4,-2
1558442107627932,2,2,4,5,-1,-1,-3,0
1558442107627932,-7,-6,-6,-8,-12,-16,-8,-5
1558442107640896,1,1,5,-1,1,0,2,3
1558442107640896,-3,-1,4,11,-5,-4,1,-2
1558442107647878,-2,1,-4,-6,0,0,-3,-1
1558442107647878,-2,-2,-1,3,-4,3,-4,-2
1558442107662837,-2,-3,-3,9,-7,-14,-11,-1
1558442107662837,1,-2,-8,-15,0,-3,0,-2
1558442107669818,1,0,5,1,-3,1,6,1
1558442107669818,2,1,3,4,2,2,2,-2
1558442107677796,0,0,-5,-6,-4,4,2,0
1558442107677796,-1,1,5,9,5,-2,-1,1
1558442107684780,0,0,4,4,7,14,3,2
1558442107684780,-1,-3,-10,-9,-4,-8,-3,-1
1558442107708715,-1,-1,-4,-5,-4,-2,-4,-3
1558442107708715,1,0,6,15,-2,-9,-1,1
1558442107710711,-1,0,5,2,9,3,4,2
1558442107710711,-4,-4,-11,-10,-10,4,-5,-4
1558442107714699,-2,-1,1,-6,0,-5,2,0
1558442107714699,0,0,1,-2,2,-2,1,-1
1558442107731653,3,1,8,4,-1,-2,1,3
1558442107731653,-1,-4,-12,-10,-4,-6,-7,-4
1558442107738639,-3,-1,0,5,-3,11,-3,-4
1558442107738639,-2,-1,-2,-8,-9,-6,-2,-2
1558442107744619,1,0,-8,-9,-3,-20,0,-1
1558442107744619,-3,-1,4,-9,10,21,6,3
1558442107760575,-1,1,4,8,3,-12,0,2
1558442107760575,-3,-4,-4,-1,-6,2,-6,-6
1558442107767557,0,1,3,4,0,5,-2,-2
1558442107767557,0,2,6,7,-11,-22,-8,-2
1558442107774539,1,-1,-6,-7,19,28,15,4
1558442107774539,-2,-1,3,-3,-3,-12,-5,-1
1558442107789499,-2,-2,2,10,-3,1,-2,-2
1558442107789499,0,0,-9,-14,-6,-2,0,0
1558442107798475,-3,-2,3,-7,-6,-4,-8,-4
1558442107798475,0,1,-5,-6,4,5,0,1
1558442107805456,-2,-1,1,3,2,-1,6,1
1558442107805456,-1,1,13,11,6,-1,-2,1
1558442107820415,-2,-5,-11,-3,-10,-9,2,-3
1558442107820415,-2,-1,-4,-5,2,3,2,-1
1558442107827396,-5,-4,-7,-6,-2,-7,-6,-4
1558442107827396,-1,-1,6,4,2,0,3,0
1558442107835381,2,0,-4,2,-6,-5,1,-1
1558442107835381,1,-1,0,-5,-4,-11,-6,1
1558442107850336,-2,-2,-8,-7,-2,5,0,-1
1558442107850336,0,0,2,13,4,4,-3,-3
1558442107858314,-3,-2,-7,-12,-10,-2,-7,-4
1558442107858314,2,0,6,6,2,4,4,1
1558442107865300,1,2,-1,-6,-1,4,2,2
1558442107865300,1,-1,-4,10,5,-4,2,-2
1558442107881257,1,2,2,-8,-1,-9,1,-1
1558442107881257,-3,-2,-4,-3,-1,6,-4,-3
1558442107887237,-2,-2,-3,-4,-5,-4,0,-1
1558442107887237,-2,-2,-3,-8,-1,0,-1,1
1558442107903200,-1,-2,10,14,-1,-5,-4,0
1558442107903200,0,1,-1,9,2,0,-2,1
1558442107910177,-4,-3,-12,-25,-2,3,-1,-2
1558442107910177,0,-1,0,-4,-4,-1,-3,0
1558442107926136,0,-2,-5,2,2,4,4,2
1558442107926136,-3,-5,-2,-11,-8,-3,-5,-4
1558442107928130,1,-1,4,16,3,-1,-1,-2
1558442107928130,1,-1,-1,0,-1,-9,1,1
1558442107941093,1,1,0,-6,8,13,2,1
1558442107941093,-3,-2,-7,-1,-8,-8,1,-1
1558442107948074,2,1,1,-2,8,-3,5,1
1558442107948074,-2,-2,-3,-5,-7,-4,-4,-3
1558442107963038,-4,-2,-1,2,-4,-5,-11,-3
1558442107963038,1,0,3,4,5,3,1,2
1558442107970021,-3,-3,3,2,4,6,1,1
1558442107970021,0,-1,-5,-9,-5,-4,3,4
1558442107985983,-1,-2,-1,5,8,-2,-2,-2
1558442107985983,-1,-2,-8,-17,-13,-3,-2,-2
1558442107987968,-2,-1,-1,0,-8,-2,-8,-2
1558442107987968,-1,0,10,17,3,-1,2,-4
1558442108000939,-1,-2,-12,-5,-1,-5,1,0
1558442108000939,1,1,6,5,10,-2,2,0
1558442108014896,-3,-2,-3,-3,-5,-1,-4,0
1558442108014896,-1,-3,-8,-10,2,8,0,-2
1558442108022882,0,0,20,26,2,2,1,-1
1558442108022882,-2,-4,-13,-20,-2,-5,2,1
1558442108037835,0,1,2,4,-6,-6,0,-1
1558442108037835,-2,0,-5,-6,-5,0,-9,-3
1558442108046810,-3,-3,-8,-18,-11,-3,-5,-1
1558442108046810,2,4,9,14,9,9,4,1
1558442108047808,-2,-3,3,4,1,7,-1,-2
1558442108047808,-2,-2,-6,-5,0,4,7,2
1558442108060776,3,1,4,4,4,-3,3,3
1558442108060776,-3,-3,-1,2,-3,-3,-6,-3
1558442108067767,1,1,0,-6,0,-2,-2,0
1558442108067767,-1,2,13,11,2,-6,0,-1
1558442108082721,1,-1,-10,-12,5,10,4,-1
1558442108082721,-2,0,4,-6,0,-5,0,-1
1558442108091691,-2,-3,-5,11,-4,4,-3,-3
1558442108091691,-1,-4,-6,-10,-8,-2,-6,-4
1558442108106655,-4,0,-9,-12,-1,0,3,-1
1558442108106655,0,-2,0,3,-5,-7,-6,-1
1558442108107648,0,2,1,2,0,-13,0,0
1558442108107648,0,-3,8,6,9,11,5,-2
1558442108120615,-2,-5,-10,-2,-4,1,-6,-3
1558442108120615,1,-1,-3,-4,-1,5,3,0
1558442108134639,2,1,-1,-5,2,-5,4,4
1558442108134639,-1,0,2,3,-2,-9,-7,-2
1558442108143553,0,0,4,-1,4,4,0,-1
1558442108143553,-2,0,2,7,-2,1,2,-1
1558442108149534,-2,-6,-6,-2,-10,-6,-6,-5
1558442108149534,1,1,1,-14,-6,-16,-5,-2
1558442108166489,0,-1,7,11,8,0,6,2
1558442108166489,-4,-6,-16,-14,-11,0,-6,-4
1558442108167486,-1,1,2,-8,0,3,-6,-2
1558442108167486,-1,-5,-10,-3,-6,0,0,-1
1558442108181450,0,-2,5,5,-3,-12,-6,0
1558442108181450,2,0,1,-2,9,11,5,1
1558442108187434,-2,-4,-2,-6,-6,-4,-2,-3
1558442108187434,-2,-2,-4,-3,-3,2,3,-1
1558442108203392,0,2,3,-1,1,0,-1,0
1558442108203392,0,0,1,6,1,-8,-1,0
1558442108210372,-2,-2,0,-2,-3,-1,-6,-3
1558442108210372,1,3,12,17,12,13,4,5
1558442108226342,-6,-7,-10,-19,-10,6,5,-4
1558442108226342,0,2,6,10,9,2,3,0
1558442108227327,1,-1,0,3,-5,-6,-2,-1
1558442108227327,0,-1,4,7,-2,1,-8,-2
1558442108240292,-2,-1,2,0,4,8,5,-2
1558442108240292,-3,1,-3,-4,-8,-10,-12,-4
1558442108247274,0,-1,-4,-2,6,15,10,1
1558442108247274,-2,0,1,5,-2,-23,-4,-2
1558442108271209,2,0,-2,-2,-5,-6,-6,0
1558442108271209,-1,-3,12,11,-5,-2,-2,-2
1558442108273205,1,0,-7,0,10,16,7,2
1558442108273205,-2,-1,-6,-9,-4,2,3,0
1558442108294153,-4,1,-4,-4,1,-7,-6,-3
1558442108294153,0,3,12,11,8,-1,2,1
1558442108295146,-2,-3,-3,1,-9,-8,-5,-1
1558442108295146,-1,-3,-17,-20,1,10,4,1
1558442108301131,0,-3,4,4,-9,-7,-9,-4
1558442108301131,-1,-2,-5,-5,4,16,4,-1
1558442108315098,-2,-1,3,3,-6,-12,2,-1
1558442108315098,-2,-3,-8,-9,-4,-11,-4,-2
1558442108323073,1,1,1,6,-7,-18,-4,3
1558442108323073,-1,0,-3,-1,-2,-6,1,0
1558442108330057,-3,-3,-6,-11,-1,3,0,-3
1558442108330057,-1,-3,7,12,0,10,0,2
1558442108346011,-3,-3,-10,-11,-1,2,-3,-5
1558442108346011,-2,-5,-7,-5,-11,-9,-7,-5
1558442108348009,0,1,6,6,9,-6,-2,1
1558442108348009,0,2,-2,-1,-2,4,2,0
1558442108360080,1,2,7,18,11,18,7,2
1558442108360080,-5,-3,-16,-23,-9,2,-2,-3
1558442108368959,-2,0,2,2,-11,-2,-5,-4
1558442108368959,1,1,8,5,11,-8,-1,1
1558442108383910,1,2,1,-8,1,-2,2,3
1558442108383910,-4,-5,-4,-3,-5,-8,-6,-4
1558442108389897,2,0,-9,-7,0,5,0,-2
1558442108389897,-2,-4,-2,-6,-1,15,2,-2
1558442108406853,0,2,13,15,4,-8,2,2
1558442108406853,-2,-4,-13,-10,-8,-9,-8,-5
1558442108407851,-2,-2,0,1,6,9,2,1
1558442108407851,1,1,-6,-10,-5,-19,-4,-1
1558442108428802,-4,-5,-5,-8,-5,-1,-8,-5
1558442108428802,-2,-2,-2,-2,0,-3,-4,1
1558442108430784,1,-1,3,12,6,5,5,2
1558442108430784,0,0,2,4,0,-6,-3,-4
1558442108442751,-1,-2,-9,-7,-4,0,0,1
1558442108442751,1,2,7,4,5,7,10,3
1558442108449733,-1,-4,-9,-11,-3,-7,-2,-3
1558442108449733,1,-1,0,3,-6,-7,-2,2
1558442108466687,0,-1,0,-1,-6,-2,2,2
1558442108466687,0,0,1,-1,4,3,-4,-3
1558442108467685,-1,3,-2,-2,5,16,7,1
1558442108467685,1,3,6,4,10,10,8,0
1558442108480683,-3,-5,-11,-13,-14,-13,-10,-4
1558442108480683,3,3,1,3,3,-2,5,4
1558442108488630,-1,1,5,2,-1,-18,-7,-2
1558442108488630,-2,-3,-3,-1,-3,3,-5,-2
1558442108503601,-1,-3,3,4,3,12,3,-2
1558442108503601,-1,-2,-2,-2,-1,-5,-5,-1
1558442108517564,1,-1,3,-1,0,-3,3,1
1558442108517564,-3,-1,-3,-6,-5,-2,-1,-1
1558442108526537,-2,-2,-3,5,1,-7,-6,-1
1558442108526537,-2,-1,-8,-10,-6,-5,-1,0
1558442108527525,-2,-2,0,-5,-4,-7,-5,0
1558442108527525,-1,-1,2,4,2,7,1,-2
1558442108540571,1,4,9,6,7,4,6,1
1558442108540571,0,-2,-4,-10,2,5,2,-2
1558442108549468,-2,-3,-14,-7,-10,6,-4,-2
1558442108549468,-2,-4,5,4,-8,-13,-5,-4
1558442108563436,0,0,-9,-15,0,-5,-4,-1
1558442108563436,0,-2,1,8,2,-4,0,0
1558442108570490,0,0,1,0,3,8,0,0
1558442108570490,-2,-4,-13,-13,-7,6,0,-3
1558442108587385,0,3,2,0,4,3,5,3
1558442108587385,-2,-1,4,8,-1,-2,1,-1
1558442108594348,-2,-1,4,1,-7,-19,-8,-2
1558442108594348,-3,-3,-12,-13,-5,0,-1,-3
1558442108600638,-2,-2,3,10,2,9,0,2
1558442108600638,-1,2,4,3,5,5,2,-2
1558442108609307,-2,-1,-10,-3,-1,-2,0,-1
1558442108609307,0,1,11,12,7,6,-2,-1
1558442108623277,-2,-3,-12,-12,-9,-12,-3,-3
1558442108623277,-3,-4,3,5,-1,11,1,-3
1558442108630292,-2,-2,-2,-5,-8,-13,-2,-3
1558442108630292,1,2,3,3,5,-11,-2,4
1558442108645256,-2,-3,8,11,6,9,3,-1
1558442108645256,-3,-4,-16,-20,-14,-14,-7,0
1558442108652193,-2,-2,6,5,-5,-7,-6,-5
1558442108652193,-1,-1,-14,-20,2,9,4,2
1558442108660170,-2,1,8,13,4,5,2,0
1558442108660170,-3,-2,-4,-4,-5,4,-3,-3
1558442108669155,0,3,5,5,5,7,4,0
1558442108669155,-3,-3,0,4,0,-4,-4,-1
1558442108683157,0,-2,-2,4,-5,-5,-2,-1
1558442108683157,4,2,13,0,13,8,9,6
1558442108690097,-2,-7,-12,-21,-5,-15,-5,-1
1558442108690097,-2,-1,0,6,-2,4,-6,-4
1558442108706075,-1,-1,-5,-9,-10,5,-4,-5
1558442108706075,1,2,9,10,2,-1,2,1
1558442108712030,-3,-2,-3,-4,-3,-6,1,2
1558442108712030,-1,0,-3,-5,-1,-2,3,-3
1558442108720008,-4,-3,5,5,-4,-1,-5,-4
1558442108720008,3,1,-7,-5,3,-11,-1,0
1558442108728986,-1,-2,0,-5,8,13,4,-1
1558442108728986,0,-2,2,0,0,7,7,2
1558442108751281,0,-4,-8,-7,-5,0,-7,-4
1558442108751281,-4,-2,-6,-4,-13,-8,-8,-6
1558442108752960,-2,0,2,5,1,-5,-4,-2
1558442108752960,1,0,0,-1,-3,-13,-1,2
1558442108766236,2,0,8,6,4,-1,5,0
1558442108766236,-4,-5,-9,-6,-1,-1,-7,-5
1558442108772869,0,-1,4,8,2,13,1,-2
1558442108772869,-1,-3,-14,-11,-16,-10,-12,-6
1558442108788828,1,0,-8,-9,2,-8,7,5
1558442108788828,-2,-1,9,10,5,-6,0,2
1558442108789823,1,1,-8,-3,1,3,2,0
1558442108789823,-3,-2,3,3,-2,6,-5,-6
1558442108803873,-2,-2,-13,-19,-14,-11,-10,-4
1558442108803873,-2,-1,0,0,7,12,6,1
1558442108810023,0,0,0,1,1,-1,5,1
1558442108810023,1,2,7,11,14,2,9,6
1558442108825945,-2,-1,-1,-4,-10,-18,-10,-6
1558442108825945,0,-3,2,10,2,-7,-2,-1
1558442108832910,-1,-2,0,-13,-1,10,-2,2
1558442108832910,-2,0,-3,7,-5,-2,0,-3
1558442108856647,-3,-3,-12,-13,0,5,-3,-4
1558442108856647,-1,0,2,-3,-4,1,3,1
1558442108857643,0,-1,1,11,-3,-17,-3,-1
1558442108857643,-1,-1,3,0,0,-6,-5,2
1558442108863628,-2,-3,-8,-14,-6,4,1,-2
1558442108863628,-3,-2,-6,7,-1,11,-4,-4
1558442108869611,-1,0,-1,-9,0,-8,0,1
1558442108869611,0,1,2,1,0,-7,4,2
1558442108885577,0,1,6,13,11,10,4,1
1558442108885577,-2,-2,0,-1,-1,6,0,-1
1558442108892551,0,-2,-4,-10,-2,-12,-2,0
1558442108892551,0,-1,1,-5,-5,-5,-8,-1
1558442108909503,-2,-1,5,7,-1,-4,-2,-1
1558442108909503,-1,-3,-8,-5,-4,-3,2,-3
1558442108910502,1,0,-3,-8,3,2,5,1
1558442108910502,-2,-3,0,-5,-2,1,-2,-2
1558442108923629,-5,-5,-4,2,0,2,-3,-3
1558442108923629,1,1,-1,-7,-3,-4,-1,2
1558442108930599,-3,-2,-1,1,-6,-4,-3,-4
1558442108930599,-3,-3,-10,-8,-3,0,0,-2
1558442108945673,-2,1,4,4,9,1,2,2
1558442108945673,0,-2,-1,-14,-4,2,-6,-2
1558442108952883,-1,-2,-6,-4,-3,-4,-6,-3
1558442108952883,0,-1,-3,0,0,-3,7,3
1558442108969570,0,-1,1,0,-2,-3,-6,-3
1558442108969570,2,1,4,5,4,2,4,2
1558442108970569,0,0,2,6,2,-3,-1,0
1558442108970569,-3,0,5,5,-3,3,-6,-4
1558442108983753,-1,-1,-15,-11,-3,8,4,2
1558442108983753,-4,-1,-1,-3,-14,-20,-7,-6
1558442108989516,3,0,3,2,-2,-2,-3,-2
1558442108989516,1,1,15,27,13,-2,1,1
1558442109005483,-3,-3,-18,-22,-8,-2,-4,-1
1558442109005483,-5,-2,0,-3,0,10,3,-2
1558442109020634,-2,-1,0,7,0,-5,3,0
1558442109020634,-1,-4,-12,-23,-8,-6,-4,-3
1558442109029569,3,2,12,9,-3,-8,-3,1
1558442109029569,0,0,-8,-6,-1,-1,-6,-1
1558442109031404,-2,-1,5,16,7,7,3,1
1558442109031404,0,0,5,5,11,9,5,1
1558442109043582,-3,-4,3,-5,-9,-14,-7,-4
1558442109043582,1,-1,-7,-7,0,9,7,0
1558442109050353,-2,-2,3,7,-3,0,-3,-4
1558442109050353,0,1,-6,-12,1,-2,-6,-3
1558442109065316,0,1,10,14,4,-1,-1,-1
1558442109065316,-1,-4,-7,-13,-15,-10,-7,-2
1558442109072295,0,-1,-1,2,9,24,9,3
1558442109072295,-4,-3,-2,0,-5,-14,-6,-2
1558442109096232,-2,0,-6,-7,2,2,5,0
1558442109096232,-2,0,8,20,0,-11,-3,0
1558442109097230,-1,-1,-1,-11,-7,0,-5,0
1558442109097230,-1,-3,-18,-9,1,7,-2,-3
1558442109103369,0,2,4,-5,-8,-3,-1,0
1558442109103369,-1,-6,-5,5,-2,6,2,-1
1558442109110199,-1,0,-4,4,-1,-18,0,0
1558442109110199,0,3,9,0,9,7,6,5
1558442109126254,0,-2,-4,-1,1,1,0,1
1558442109126254,0,-1,-2,1,1,-5,-2,-1
1558442109133132,-1,0,4,-2,-7,7,-5,-4
1558442109133132,-3,-3,-1,6,-3,0,2,-1
1558442109157107,-1,-1,1,-4,-2,-7,1,0
1558442109157107,3,4,14,9,4,-1,0,3
1558442109158071,-4,-3,-23,-28,-5,-11,-4,-5
1558442109158071,-2,0,0,4,3,14,0,0
1558442109164052,0,0,-4,-5,-3,-1,-3,-3
1558442109164052,-2,-1,8,6,5,4,-1,-1
1558442109170037,-2,-2,-1,-3,-10,-10,-3,1
1558442109170037,0,-5,-18,-16,-5,-2,-1,-1
1558442109186286,0,-1,11,19,10,8,2,1
1558442109186286,0,0,-7,-9,6,4,5,3
1558442109193195,0,-1,0,-1,-5,2,-6,-6
1558442109193195,-1,-1,1,-4,-11,-1,-6,-3
1558442109209153,4,2,6,9,11,-7,6,7
1558442109209153,0,1,7,13,14,14,6,1
1558442109209935,-1,0,-2,-20,-4,0,-2,-4
1558442109209935,-2,-2,0,4,-7,-9,-9,-6
1558442109223979,0,-1,0,1,-3,4,4,-1
1558442109223979,3,4,2,-2,12,-6,4,4
1558442109230112,-2,-3,-6,-5,-7,-3,-2,1
1558442109230112,-2,-1,2,2,-7,3,-3,-3
1558442109246041,-4,-1,4,10,-1,-2,-3,-1
1558442109246041,0,-3,-12,-14,-5,-11,-6,-1
1558442109252812,0,0,3,5,0,-1,2,0
1558442109252812,-2,-1,3,3,0,0,3,-3
1558442109268769,-2,1,2,7,-1,5,-2,-2
1558442109268769,-5,-4,-1,5,-6,-7,-5,-5
1558442109270764,0,0,-3,-2,-2,-1,-2,1
1558442109270764,-1,-2,-6,-10,7,4,3,2
1558442109282733,0,-2,2,-1,2,-3,-5,0
1558442109282733,-3,-1,4,5,2,4,2,0
1558442109291708,1,-4,-8,-13,-12,-12,-6,-4
1558442109291708,-1,1,0,4,-8,-14,-6,-1
1558442109313676,1,3,1,3,11,8,7,3
1558442109313676,-1,1,-2,-8,-2,6,0,-4
1558442109314646,-2,-1,4,0,-9,-8,-2,0
1558442109314646,2,-1,-5,1,8,12,9,2
1558442109329657,-2,-3,-3,-3,-4,-12,-8,-4
1558442109329657,-3,-4,-5,-10,-10,-11,-11,-4
1558442109330619,1,1,6,17,12,10,6,2
1558442109330619,-1,-2,5,-3,-5,-8,-2,-1
1558442109343029,-1,0,-11,-14,-1,1,2,1
1558442109343029,-2,1,3,0,-1,1,-2,-3
1558442109351473,0,0,8,16,2,3,1,-3
1558442109351473,-1,-5,-6,-6,-5,-9,-3,-1
1558442109367441,-1,-3,-6,-6,-2,-4,-4,-3
1558442109367441,3,1,1,-3,2,7,1,0
1558442109371957,-3,-3,-3,0,-5,1,-5,-2
1558442109371957,0,2,8,9,11,10,8,3
1558442109388910,-1,-1,1,-3,-9,-5,-6,-2
1558442109388910,-1,-2,1,-2,2,1,0,0
1558442109389908,-4,-1,-15,-7,-2,-11,1,0
1558442109389908,-2,-1,2,-5,-8,-3,-7,-4
1558442109403214,0,-1,-1,-10,3,6,5,0
1558442109403214,0,-3,-5,4,-10,-3,-9,-3
1558442109411851,1,-1,2,-2,3,-2,3,0
1558442109411851,-1,1,6,6,7,-1,-2,-1
1558442109426039,-4,-3,-17,-17,-14,0,-3,-5
1558442109426039,0,1,3,4,-1,-1,2,0
1558442109433022,-2,-1,-1,3,5,6,-1,0
1558442109433022,1,0,-1,-3,-7,-31,-4,0
1558442109448968,3,3,16,20,12,10,3,-1
1558442109448968,-4,-5,-23,-25,-4,-11,-1,-2
1558442109450748,-4,0,-5,-1,0,6,-1,-3
1558442109450748,-4,-1,0,0,-2,11,-4,-2
1558442109462923,0,0,2,0,-6,-12,-2,1
1558442109462923,1,2,12,21,5,-5,3,0
1558442109471690,2,1,-5,-15,-6,-6,-2,-1
1558442109471690,-1,-2,-7,-5,0,7,-10,-2
1558442109485658,-1,-2,6,9,2,-2,5,2
1558442109485658,-2,1,0,-4,-2,6,3,1
1558442109492632,2,0,5,7,1,-5,-3,-2
1558442109492632,1,-1,-5,-4,-4,1,0,-2
1558442109509597,-3,-4,-6,-1,-7,-4,-5,-4
1558442109509597,-1,-4,-4,-11,-4,0,0,-3
1558442109510615,0,1,3,0,4,13,3,-1
1558442109510615,-2,-5,-24,-24,-4,-18,1,0
1558442109522553,-2,2,8,6,3,-1,-4,-3
1558442109522553,-1,1,-6,-1,-6,-3,-3,-3
1558442109531602,0,1,11,7,3,-4,-1,-1
1558442109531602,3,2,9,7,-1,-3,-4,-1
1558442109546866,0,-3,-8,-11,7,6,3,3
1558442109546866,-2,-1,-3,-6,-9,-5,-4,-2
1558442109552827,-3,-5,-2,-3,-8,6,-2,-1
1558442109552827,-1,1,0,1,3,7,8,1
1558442109568752,-3,-2,-3,0,-8,-22,-6,-4
1558442109568752,0,-2,0,-3,0,10,0,0
1558442109575412,-2,0,8,9,6,5,0,-1
1558442109575412,-1,0,-3,-6,-3,-3,3,0
1558442109582734,0,-1,-5,-3,-3,4,0,2
1558442109582734,-1,-3,-1,0,-1,-3,-6,-2
1558442109591475,0,1,5,7,4,-3,-3,1
1558442109591475,-1,-1,1,0,2,13,5,1
1558442109605334,1,1,-1,0,9,9,5,2
1558442109605334,2,3,10,14,2,-15,0,1
1558442109612313,-1,-2,-3,-12,-2,2,1,0
1558442109612313,-3,-2,-4,7,1,7,-4,-2
1558442109628488,-1,-1,5,-4,-5,-2,-3,-3
1558442109628488,-4,-1,-5,6,-6,-7,-3,-4
1558442109635498,-2,-4,-9,-11,1,1,2,-3
1558442109635498,2,1,0,-2,5,-3,4,4
1558442109643265,-3,-1,-2,0,-6,-4,-8,-3
1558442109643265,-2,-4,-3,-7,-7,-2,-7,-4
1558442109651380,-3,-4,-11,-1,3,-6,-1,0
1558442109651380,0,-3,6,6,-6,-4,-2,-1
1558442109666202,0,-1,-13,-17,1,8,2,-3
1558442109666202,0,3,-2,3,-4,-3,0,0
1558442109674179,0,0,4,-5,0,5,-2,0
1558442109674179,-1,2,6,3,-4,-16,-4,0
1558442109688110,2,0,4,10,-1,-2,-4,2
1558442109688110,-3,-2,-4,-6,1,2,0,0
1558442109695123,0,1,-6,1,4,13,2,1
1558442109695123,-3,-2,0,-2,-4,-10,-7,-5
1558442109711051,0,-2,4,10,-4,-3,-2,-2
1558442109711051,1,1,-5,-21,5,5,11,1
1558442109711051,-1,1,4,7,-2,-3,0,-1
1558442109711051,-1,0,4,2,11,12,3,0
1558442109726008,-2,-3,0,-4,-10,-10,-6,-4
1558442109726008,-1,-4,-2,2,1,12,2,1
1558442109731993,-3,-5,0,0,-7,-12,-8,-4
1558442109731993,-2,0,-7,-8,3,-5,-3,-4
1558442109748257,-2,-1,-4,-10,0,3,0,-2
1558442109748257,-2,-1,8,11,-2,-4,-5,-2
1558442109754933,-2,-1,-7,-9,-16,-12,-7,-2
1558442109754933,-1,1,5,4,3,11,1,0
1558442109770888,-1,-1,-1,2,-1,-4,-2,-1
1558442109770888,0,-1,-6,-6,-1,2,-2,-3
1558442109770888,-1,1,5,5,0,-7,-5,0
1558442109770888,2,0,5,6,10,3,10,7
1558442109786847,-3,-1,-3,1,3,7,-5,-2
1558442109786847,-2,-3,-6,-12,-8,3,3,1
1558442109793098,-2,-4,-3,3,-1,1,5,-2
1558442109793098,0,2,-1,3,0,0,0,1
1558442109816788,3,0,2,-9,1,-11,-4,0
1558442109816788,0,1,9,16,4,0,-6,0
1558442109823824,-3,-3,-17,-24,-6,-5,-2,-2
1558442109823824,0,-4,-3,-7,-9,3,3,-4
1558442109831007,-3,-4,-7,-6,-4,-10,3,0
1558442109831007,1,-2,4,4,9,1,1,1
1558442109831728,1,5,10,12,11,9,6,2
1558442109831728,-3,0,-3,-16,-15,-3,-7,-4
1558442109846688,0,1,-2,9,4,-5,-3,-4
1558442109846688,-3,-3,-5,-9,-7,-15,-1,0
1558442109852953,2,1,-2,5,7,1,1,4
1558442109852953,-2,-4,-8,-8,-5,-7,-8,-5
1558442109867913,-3,-2,-2,-7,3,16,5,-1
1558442109867913,-2,-1,5,3,-7,-7,-1,-2
1558442109874874,-1,-1,-10,-8,0,0,0,0
1558442109874874,-2,0,9,20,2,3,1,0
1558442109890568,0,-1,-5,-15,-5,5,-1,-2
1558442109890568,-3,-2,-1,3,5,8,-2,-3
1558442109891567,4,4,11,3,0,-16,2,4
1558442109891567,-2,-3,-5,-3,-10,-5,-7,-9
1558442109906528,-1,2,9,13,1,-3,-3,0
1558442109906528,-1,-3,-17,-27,1,3,6,0
1558442109912543,-2,-2,8,13,6,2,-5,1
1558442109912543,0,-3,5,0,-9,-14,-5,-1
1558442109927469,-6,-6,-19,-8,-3,8,-2,-4
1558442109927469,-1,1,11,17,-5,-8,-6,-2
1558442109935740,-2,-5,-15,-25,-16,-7,-2,-4
1558442109935740,2,3,7,8,9,7,7,5
1558442109951696,0,1,0,5,6,-2,-1,2
1558442109951696,1,3,2,0,3,9,3,-4
1558442109952403,-4,-4,-6,-9,-4,4,-6,-4
1558442109952403,-1,-2,0,0,-2,0,0,-1
1558442109966375,-1,-3,1,-16,-6,-4,2,0
1558442109966375,1,-2,-4,6,1,-5,-1,0
1558442109972378,-2,-2,7,9,-10,-9,-9,-4
1558442109972378,1,2,-5,-2,6,9,6,3
1558442109987310,1,2,15,17,13,-3,3,5
1558442109987310,0,1,-3,-1,-5,-11,-2,0
1558442109995355,-1,0,0,8,5,12,2,-1
1558442109995355,-3,-2,-2,3,-1,0,-4,-2
1558442110011329,1,-1,1,-1,-5,-6,0,-3
1558442110011329,-1,-2,-19,-20,-7,-9,-4,0
1558442110011329,0,-3,-1,7,5,10,4,0
1558442110011329,-2,0,5,2,4,-2,0,-1
1558442110026488,-4,-1,-7,3,-13,-7,-6,-5
1558442110026488,0,-1,1,-11,8,5,8,1
1558442110033297,1,3,12,8,12,7,0,1
1558442110033297,-1,-5,-8,-5,-7,-10,-10,-3
1558442110048248,-1,-3,-6,-9,-12,-4,-4,-3
1558442110048248,-2,-1,5,3,-5,-6,-4,1
1558442110055130,2,2,-3,-1,4,0,4,2
1558442110055130,0,-1,7,-1,2,2,-3,2
1558442110071090,-1,-3,-10,-17,-11,-11,-8,-5
1558442110071090,-2,-1,-2,-1,-7,-2,-4,-2
1558442110071090,2,1,5,4,8,-3,3,2
1558442110071090,1,1,-2,-3,0,4,1,0
1558442110086315,-1,-3,-7,-2,4,9,4,0
1558442110086315,-1,-3,-9,-9,3,-1,-3,-3
1558442110092261,-5,-4,0,-11,-7,-9,-4,-3
1558442110092261,-1,-3,-17,-12,-7,-3,-3,-3
1558442110106990,-1,0,4,6,0,-2,-3,-1
1558442110106990,-3,0,4,4,2,8,2,-2
1558442110114968,0,3,0,1,-1,0,2,0
1558442110114968,-2,0,-1,1,2,-3,0,-2
1558442110130926,2,0,3,-3,5,-3,9,5
1558442110130926,1,-5,-7,-5,-2,0,-5,-2
1558442110130926,0,-2,-3,3,-8,5,0,-2
1558442110130926,-4,-2,3,0,1,1,0,-4
1558442110146881,0,0,6,12,7,-1,1,-1
1558442110146881,1,2,3,4,1,-9,-2,2
1558442110161063,-3,-7,-7,2,-1,-4,-4,0
1558442110161063,0,1,1,3,-1,0,-2,-1
1558442110168166,-5,-4,-4,-9,-8,4,-3,-4
1558442110168166,0,1,1,15,8,6,6,2
1558442110175842,0,3,1,0,2,-6,-1,-1
1558442110175842,-2,-3,-7,-6,-8,-4,-6,-2
1558442110191118,-1,-2,3,7,0,-5,-6,-4
1558442110191118,2,2,6,1,1,2,-1,0
1558442110191763,0,-1,3,1,1,8,1,2
1558442110191763,-1,1,-2,4,7,-5,1,1
1558442110206723,-2,-2,-8,-12,-4,-2,-1,0
1558442110206723,-3,-3,-1,0,-13,0,-7,-5
1558442110213161,-1,-2,2,4,-3,-3,-4,-5
1558442110213161,-1,1,-3,-10,2,4,6,2
1558442110236112,0,0,1,5,6,-5,-1,1
1558442110236112,-1,0,1,-7,-1,3,-2,0
1558442110236643,-1,-2,-6,-5,1,2,5,2
1558442110236643,-1,-1,3,3,-4,-8,-2,-3
1558442110250938,-2,2,6,6,0,9,-6,-2
1558442110250938,-3,-6,-10,-6,-3,-2,-2,-3
1558442110251603,-2,-4,-16,-28,-19,-12,-7,-4
1558442110251603,-1,0,3,2,-1,-9,-3,-6
1558442110266564,-1,0,-6,-2,6,5,8,5
1558442110266564,-2,0,5,4,0,-8,-3,-1
1558442110272574,-1,0,0,6,-4,-2,-10,-4
1558442110272574,-2,-5,-11,-25,-12,-5,-8,0
1558442110295487,3,2,8,8,12,9,9,3
1558442110295487,-1,-5,-6,-7,-4,-4,2,-1
1558442110296482,-1,0,0,8,8,0,0,0
1558442110296482,-3,-5,-5,-11,-12,-10,-11,-5
1558442110310448,-1,0,-3,3,0,4,-2,-1
1558442110310448,-1,2,-5,-7,4,2,4,0
1558442110311444,-1,1,4,-4,-3,-5,1,-2
1558442110311444,0,-3,-6,3,-4,3,3,1
1558442110326403,-2,-3,-9,-15,-16,-18,-12,-6
1558442110326403,2,-1,8,11,10,12,5,-1
1558442110332387,0,1,5,8,2,-14,1,0
1558442110332387,1,0,4,-2,4,4,2,1
1558442110347382,-2,-2,-2,-2,-3,3,0,-1
1558442110347382,-2,-3,-4,-6,-8,-6,-10,-6
1558442110355324,1,0,-6,2,0,2,5,2
1558442110355324,0,2,13,13,6,7,7,-1
1558442110372279,-1,-2,-15,-14,-2,0,0,3
1558442110372279,-2,-1,6,2,-6,-9,-13,-6
1558442110372279,-1,-3,-13,-14,-3,0,-4,-6
1558442110372279,3,1,1,7,8,10,9,4
1558442110386597,1,0,3,4,2,-2,-3,-1
1558442110386597,-2,-1,4,4,-2,-5,-4,3
1558442110392662,1,-4,2,11,1,2,-2,-4
1558442110392662,0,3,-9,-16,-1,0,-1,0
1558442110424141,-2,-1,2,0,-1,2,0,1
1558442110424141,3,1,2,5,1,-7,4,3
1558442110424141,-3,-2,8,8,3,6,-2,-3
1558442110424141,-3,-3,-4,0,-10,-3,-8,-5
1558442110431547,1,0,-2,-2,-10,-12,-3,-3
1558442110431547,-1,0,3,15,14,16,8,1
1558442110431547,0,-1,-11,-19,-7,3,4,2
1558442110431547,-1,1,-1,6,5,-1,3,2
1558442110446399,-1,-3,2,-4,-4,-7,-6,-2
1558442110446399,2,-1,4,0,-4,-6,-4,-3
1558442110453330,-2,-1,-5,3,0,1,-1,-3
1558442110453330,-1,-3,-13,-29,-3,-1,-3,-2
1558442110469020,-1,1,15,23,5,-7,-1,2
1558442110469020,0,0,-4,-8,-10,-1,2,0
1558442110475370,0,-1,4,0,11,11,10,4
1558442110475370,0,1,5,12,-4,-7,-7,-2
1558442110490384,-1,-2,-16,-14,-1,7,0,-6
1558442110490384,-2,1,-1,2,-6,-6,-2,-2
1558442110498321,-3,0,1,-8,-6,-8,-9,1
1558442110498321,-1,-3,-8,0,-6,-8,-1,-2
1558442110505925,1,-1,10,3,3,8,1,2
1558442110505925,-2,-2,-5,-11,-3,3,-4,-1
1558442110513277,-2,-3,-4,0,-4,3,-3,-3
1558442110513277,-2,1,14,13,2,-13,0,1
1558442110537155,-3,-3,-12,-14,-3,-2,-1,-2
1558442110537155,0,-1,0,-2,-3,0,1,-2
1558442110537838,0,1,-5,-12,-9,-4,-5,-3
1558442110537838,-4,-4,1,-3,-1,1,-4,-5
1558442110550832,2,0,-1,-1,-4,-7,1,0
1558442110550832,-2,-2,-5,2,-4,-5,-6,-3
1558442110558151,1,1,-1,-7,-3,2,0,-3
1558442110558151,-1,1,4,9,3,10,-3,-3
1558442110566760,-1,0,8,4,2,-5,1,1
1558442110566760,2,0,-9,-10,4,-2,7,2
1558442110572773,-3,-7,0,-7,-2,-7,-6,-4
1558442110572773,-1,0,-4,2,0,3,-5,-2
1558442110588700,-4,-4,5,10,6,10,2,-3
1558442110588700,0,-1,-6,-14,-10,-7,-7,-3
1558442110594871,-2,0,4,7,1,-9,-1,-1
1558442110594871,0,-2,-9,-7,-3,-5,1,1
1558442110609999,0,2,2,6,0,5,7,4
1558442110609999,-5,-2,2,7,-4,3,-3,-7
1558442110625629,2,1,-3,-2,10,15,11,4
1558442110625629,-2,-6,-4,-11,-12,-20,-5,-5
1558442110634042,0,-4,-17,-19,-10,3,-8,-5
1558442110634042,-1,0,-6,-8,-2,-1,3,1
1558442110634042,-2,0,11,12,13,7,5,5
1558442110634042,-2,0,0,-5,-1,1,-3,1
1558442110649008,-3,-6,-6,-1,-11,-9,-4,-3
1558442110649008,1,1,4,10,13,18,3,3
1558442110654527,-3,-2,-2,-5,-6,3,-1,-5
1558442110654527,3,-1,-3,-11,-2,-1,1,1
1558442110686799,1,5,14,12,7,-7,2,2
1558442110686799,0,-1,-3,-1,0,2,-4,-2
1558442110687473,-3,-4,-1,-1,-11,-11,-5,-2
1558442110687473,0,0,2,5,5,9,3,2
1558442110709732,0,0,-6,-10,-2,0,2,0
1558442110709732,1,0,10,5,3,-6,4,0
1558442110710376,1,-1,-7,-1,-2,-3,-2,-1
1558442110710376,-6,-4,0,0,-6,-5,-6,-5
1558442110711374,1,0,-10,-8,2,0,2,0
1558442110711374,-3,-2,2,-1,2,-1,2,0
1558442110715653,0,4,5,4,1,9,-2,-2
1558442110715653,-2,-2,-12,-13,-11,1,4,-1
1558442110730323,-3,0,4,3,-2,-7,-2,-1
1558442110730323,-1,-2,1,0,-2,-9,-3,-2
1558442110737533,-1,-2,-6,-8,-8,-11,-5,-1
1558442110737533,0,2,11,13,18,3,2,2
1558442110753678,-1,-3,7,24,3,7,-1,-3
1558442110753678,-3,-5,-16,-27,-21,-5,2,-1
1558442110753678,-1,0,6,6,-3,-1,-5,-4
1558442110753678,0,-2,-17,-18,4,8,1,1
1558442110769219,0,0,8,12,2,1,-3,-1
1558442110769219,-4,-3,-2,2,-1,-1,-3,-1
1558442110775207,-1,-2,-2,0,-2,-4,3,0
1558442110775207,-1,1,8,11,2,-6,1,2
1558442110790539,-1,0,-4,-7,-1,-5,2,-3
1558442110790539,0,1,5,5,9,0,-3,-2
1558442110798140,-3,-3,-12,-21,-16,0,-2,-3
1558442110798140,1,-2,5,18,2,4,-2,-2
1558442110814444,-1,-2,-8,-14,2,2,-1,0
1558442110814444,1,-2,-5,-8,-8,-17,-5,-2
1558442110815099,0,2,16,13,6,-6,-6,-1
1558442110815099,-1,1,-4,-1,5,6,7,2
1558442110829059,1,3,2,2,-2,-4,1,3
1558442110829059,0,0,1,4,5,8,-1,-2
1558442110835377,-1,-1,-4,2,0,3,-3,-4
1558442110835377,2,2,2,7,1,5,2,0
1558442110850344,-1,-1,3,-2,-7,-13,-4,-1
1558442110850344,1,-1,-1,4,4,6,4,2
1558442110858300,-1,-3,-2,-10,5,-1,-1,0
1558442110858300,-4,-2,-5,2,-11,0,-6,-5
1558442110872941,-3,-4,-6,-11,-8,-4,-5,-2
1558442110872941,-1,-2,-1,4,5,14,2,0
1558442110873940,3,3,3,2,3,-8,2,2
1558442110873940,-3,-3,3,6,5,3,3,0
1558442110888898,-1,-1,2,8,4,6,-2,-2
1558442110888898,0,0,7,5,-4,-11,-5,-4
1558442110903862,-2,-1,-3,-3,3,7,2,-1
1558442110903862,0,0,1,-11,0,3,-1,-2
1558442110909842,-5,-4,-7,0,-9,7,-4,-6
1558442110909842,1,0,1,-2,-3,-6,1,0
1558442110926165,0,-4,-8,3,2,-15,1,0
1558442110926165,0,-2,-4,-8,-11,-3,-4,-3
1558442110933967,-1,1,5,2,11,13,3,-1
1558442110933967,-4,-2,-7,-2,-2,-9,-6,-4
1558442110933967,-5,-4,-10,-14,-11,-8,-8,-3
1558442110933967,0,0,3,4,1,-2,-3,0
1558442110948978,3,1,1,-9,3,-12,3,3
1558442110948978,-3,-2,7,12,5,9,0,0
1558442110954722,-2,-4,-17,-13,-8,-1,-6,-1
1558442110954722,-4,-2,-2,3,-4,-2,-5,-6
1558442110970709,1,-2,3,0,-5,-1,3,-1
1558442110970709,-1,0,1,-1,4,-3,4,2
1558442110977802,1,0,-1,-6,-8,-4,1,-4
1558442110977802,-2,-3,2,9,2,2,-1,-2
1558442110993878,1,-3,-11,-13,-1,-7,-4,0
1558442110993878,-1,-1,-1,-3,1,-3,1,-1
1558442110993878,-2,0,10,17,2,8,1,-1
1558442110993878,1,0,-1,-4,5,-1,5,2
1558442111008858,0,0,-6,-4,2,5,3,-1
1558442111008858,-1,-1,-8,-11,-9,-6,-8,-2
1558442111015643,-2,0,3,7,-1,-3,-4,-3
1558442111015643,1,3,9,5,6,0,-3,-1
1558442111030779,-6,-5,-17,-10,-11,-5,-6,-4
1558442111030779,1,1,-2,-3,0,4,4,2
1558442111037502,-2,-2,2,2,1,-5,-5,-1
1558442111037502,-4,-3,-2,-1,-4,-1,1,-1
1558442111053856,-1,3,0,-8,8,18,2,1
1558442111053856,-2,-4,-12,-17,-13,-8,-5,-3
1558442111053856,2,3,4,3,2,-6,1,0
1558442111053856,1,-2,-10,-14,-6,-6,-1,0
1558442111068755,-1,-1,9,13,1,-4,-6,-3
1558442111068755,3,3,10,13,7,-5,4,2
1558442111075697,1,-2,-8,-3,2,3,0,1
1558442111075697,-1,1,2,0,-5,-8,-2,-1
1558442111091440,-2,0,7,-2,-3,-6,-1,-1
1558442111091440,-4,-5,-9,0,-5,7,-3,1
1558442111097646,-3,-1,-3,0,1,5,0,-5
1558442111097646,0,0,-8,-5,2,1,2,1
1558442111113298,2,0,8,17,1,-12,0,1
1558442111113298,-2,-1,-1,-13,0,3,-2,0
1558442111113298,-1,0,0,-6,-2,7,1,-3
1558442111113298,-4,-2,3,13,-3,-1,-1,-5
1558442111128259,-1,-2,-12,-20,-6,-8,1,3
1558442111128259,0,-2,2,0,7,3,-2,-1
1558442111135239,-1,-2,-7,-6,-2,8,7,3
1558442111135239,0,-3,1,-10,-8,-25,-7,-3
1558442111151534,0,3,-1,0,3,18,2,0
1558442111151534,-3,-5,-11,-6,-3,-3,-2,-3
1558442111157625,-1,-1,11,10,5,-4,-1,4
1558442111157625,-1,-4,-18,-15,-4,7,-1,0
1558442111173138,-2,-1,8,16,3,-8,-3,-2
1558442111173138,-1,0,-4,-5,-1,1,1,-2
1558442111174135,-1,-1,2,-2,-5,-17,-7,-5
1558442111174135,0,1,5,-1,8,8,1,2
1558442111189095,-2,-3,-7,-10,-4,8,1,0
1558442111189095,0,-1,2,4,1,0,-1,0
1558442111195548,1,1,2,0,-5,-8,-1,0
1558442111195548,-1,-1,2,4,-2,-1,-5,-3
1558442111210482,-3,-4,-4,-13,-11,-6,-8,-3
1558442111210482,1,2,5,9,8,6,9,1
1558442111218442,-3,-3,-11,-19,-7,1,-3,-2
1558442111218442,0,1,13,7,5,5,5,-1
1558442111233342,-2,-3,-17,-3,-6,-7,-6,-4
1558442111233342,1,0,7,3,-3,0,2,3
1558442111233976,-4,-1,-6,-2,8,3,-1,-5
1558442111233976,-4,-1,1,6,-11,-6,-10,-4
1558442111248936,2,0,3,-3,5,10,8,2
1558442111248936,0,1,-5,-13,-11,-12,-13,-2
1558442111254921,0,-3,-5,-2,5,-2,5,3
1558442111254921,-1,1,11,8,5,2,1,3
1558442111270202,-2,-3,-11,-6,-1,0,-1,-2
1558442111270202,-5,-7,-3,-1,-5,2,-4,-7
1558442111277924,0,0,5,6,3,4,0,0
1558442111277924,2,1,-1,-1,-2,-6,5,5
1558442111293097,0,1,7,5,-1,-6,-2,-1
1558442111293097,-1,0,1,0,1,-1,-3,-3
1558442111300106,-1,-2,-1,4,-12,-14,-8,-5
1558442111300106,2,1,4,0,17,19,13,4
1558442111308813,-2,-1,-1,-8,-8,-5,-3,-1
1558442111308813,0,-1,-8,-5,0,4,-2,-3
1558442111314762,-3,1,2,-1,-4,-1,-7,-2
1558442111314762,-2,-1,-7,-7,-10,-11,-5,-2
1558442111329718,-1,-1,5,6,5,-2,2,1
1558442111329718,-3,0,7,3,4,5,1,1
1558442111337697,2,1,-2,5,6,7,4,2
1558442111337697,-1,-4,-9,-4,-1,-6,-4,-6
1558442111352658,-4,-3,3,10,-3,14,-1,-4
1558442111352658,0,-1,4,0,-5,-9,-3,-2
1558442111360829,1,0,-1,-2,-2,-8,-1,2
1558442111360829,-2,-1,-4,-5,-6,-10,-9,-4
1558442111368980,0,0,1,0,4,1,0,2
1558442111368980,0,-3,-10,-6,6,13,9,2
1558442111375759,-3,-2,5,8,2,5,2,-3
1558442111375759,-3,-4,-4,-11,-2,-4,-2,-3
1558442111389559,-2,-2,-2,0,-9,-12,-9,-6
1558442111389559,0,-2,-1,-3,-6,-5,-1,0
1558442111397537,-1,0,1,2,5,6,-1,0
1558442111397537,-2,-3,1,7,4,3,1,-2
1558442111412532,-2,2,1,-6,5,-2,-1,-1
1558442111412532,-1,1,1,2,0,-4,5,1
1558442111419479,0,-2,-10,-9,-4,1,3,3
1558442111419479,0,-1,0,5,3,8,-3,-1
1558442111428453,-1,-2,-2,-6,-3,-5,0,-1
1558442111428453,3,2,2,13,-2,-1,0,-1
1558442111434437,0,2,1,-8,6,-8,1,3
1558442111434437,-5,-6,-11,-10,-7,7,0,-3
1558442111450733,-1,-2,5,5,-5,-10,-5,-2
1558442111450733,0,1,-4,0,6,1,-2,0
1558442111457729,-3,-2,3,-3,-7,-3,-3,-3
1558442111457729,3,3,0,-2,6,2,0,1
1558442111481325,-2,-3,0,5,-5,-1,-2,-3
1558442111481325,-5,-4,-6,-6,-5,-1,-6,-4
1558442111481325,2,2,12,12,8,-5,-2,3
1558442111481325,-2,0,-8,-16,-3,-10,1,-2
1558442111488296,-2,-2,-1,-2,-4,2,2,-1
1558442111488296,-2,-2,-1,-2,1,7,-1,0
1558442111495648,-1,-3,-2,-5,-5,0,5,1
1558442111495648,0,-1,8,13,-6,-6,-6,-2
1558442111518216,1,-3,-16,-11,3,-3,0,2
1558442111518216,0,0,7,-6,-5,-12,-7,-6
1558442111519212,-2,-3,-8,-5,-4,9,-2,-4
1558442111519212,-2,-1,0,-5,-3,-7,-1,3
1558442111532520,-1,-2,1,5,-3,-3,-7,0
1558442111532520,1,1,6,3,4,9,8,3
1558442111540155,-2,-1,-7,-4,-4,1,-1,-1
1558442111540155,0,0,-1,-3,-2,5,0,-1
1558442111549133,1,2,4,8,13,-2,0,4
1558442111549133,0,0,-7,-15,-5,-9,-4,-2
1558442111555116,-1,-2,4,3,-1,6,2,-2
1558442111555116,-1,0,5,6,4,-4,2,0
1558442111571073,-3,-1,-5,-17,-10,4,1,-3
1558442111571073,-2,0,1,8,2,1,-3,-3
1558442111577480,-2,-2,-2,-2,-7,-5,-4,-2
1558442111577480,1,-1,-1,-3,2,4,-2,1
1558442111592016,0,-1,7,10,1,1,3,-3
1558442111592016,-4,1,1,3,6,10,5,1
1558442111599994,-2,-3,-3,-6,0,-16,-2,1
1558442111599994,-2,-3,-8,-7,-5,-6,-3,-2
1558442111615952,0,0,0,-1,4,5,3,0
1558442111615952,-1,-4,-3,3,-8,4,-6,-5
1558442111615952,-3,-2,-5,-6,-2,1,-5,-5
1558442111615952,1,0,3,0,5,1,5,4
1558442111629914,-1,-1,-3,-6,-4,-10,-9,-2
1558442111629914,-1,-2,-3,-7,11,13,13,5
1558442111636896,0,-2,2,9,-6,-6,-3,-1
1558442111636896,1,1,5,2,-4,-3,0,0
1558442111652859,1,0,2,3,3,4,-3,-1
1558442111652859,-2,0,0,0,-6,-8,-5,0
1558442111659836,0,-1,-1,-3,-1,3,1,-1
1558442111659836,0,1,9,21,-1,0,-2,-3
1558442111676176,0,-4,-13,-33,-3,-4,1,1
1558442111676176,-1,-5,-16,-17,-3,-10,-1,1
1558442111676176,-3,0,0,-2,-7,-8,-4,-1
1558442111676176,-3,-2,-2,-9,1,12,-3,-3
1558442111689755,-1,0,9,24,4,-2,1,0
1558442111689755,-1,-1,-3,-1,-10,-15,-5,-2
1558442111705713,0,-1,-1,-2,0,11,3,-2
1558442111705713,-3,-2,-11,-5,-1,1,-2,-4
1558442111712696,1,2,1,5,6,1,6,3
1558442111712696,1,-1,-2,-7,-5,2,3,0
1558442111719677,1,0,1,6,0,2,-3,-2
1558442111719677,2,1,3,0,1,-12,0,3
1558442111735633,-1,-2,-5,-10,-2,-4,-1,-3
1558442111735633,-1,-2,1,4,-5,-4,-9,-4
1558442111736629,1,5,11,13,7,12,9,7
1558442111736629,-3,-6,-21,-17,-8,-9,-6,-8
1558442111757577,-1,-1,0,1,2,8,2,0
1558442111757577,1,4,17,21,10,-9,4,2
1558442111758571,-2,-3,-13,-16,-5,9,-6,-2
1558442111758571,-2,-3,2,5,-2,-1,0,2
1558442111772534,0,0,-5,-7,-11,-11,-6,-2
1558442111772534,0,-1,-3,6,4,13,-1,-4
1558442111779686,0,0,14,9,10,-12,0,2
1558442111779686,1,-2,-14,-1,11,17,7,1
1558442111795472,-2,-3,4,-6,-14,-6,-3,-5
1558442111795472,1,-1,-3,-8,1,-2,-1,2
1558442111796472,-6,-8,-15,-17,-14,-14,-9,-4
1558442111796472,-2,-1,1,-2,-7,-4,-6,-4
1558442111809450,-3,0,-1,0,3,8,0,0
1558442111809450,1,1,7,10,-2,1,5,-1
1558442111817706,-2,-2,-5,-4,0,-5,1,-1
1558442111817706,-2,-3,4,3,-4,-6,-4,-1
1558442111832374,1,1,-2,2,7,16,4,1
1558442111832374,-4,0,0,5,1,-3,-3,-2
1558442111839362,3,2,-3,-1,10,4,11,4
1558442111839362,-2,-2,-1,-1,-13,-10,-4,-3
1558442111855314,2,1,5,9,4,-2,-1,1
1558442111855314,-1,-2,-7,-10,-6,-6,-5,-2
1558442111856312,-1,-1,4,4,-4,-2,-7,-6
1558442111856312,2,4,4,-5,6,12,9,3
1558442111870319,0,0,-1,-4,1,-1,-2,-2
1558442111870319,-4,-3,-5,-1,-7,0,-7,-3
1558442111877255,-1,2,4,13,3,1,0,1
1558442111877255,0,2,-4,-18,-6,-7,-4,-3
1558442111892214,0,0,-3,4,4,6,4,0
1558442111892214,-1,-1,4,-6,-4,-5,-3,-3
1558442111900351,-1,-4,-4,-2,4,6,1,0
1558442111900351,-4,-1,4,6,-8,-8,-5,-5
1558442111915155,2,0,9,12,4,-9,1,2
1558442111915155,-3,-4,-13,-13,-8,0,-5,-3
1558442111916148,-2,-2,-7,0,1,-6,-5,-1
1558442111916148,0,0,-4,-6,-4,2,-4,0
1558442111930118,-2,-1,1,8,8,3,9,1
1558442111930118,-1,1,4,8,0,-9,5,1
1558442111937110,-1,-2,-3,-9,-7,-7,-5,0
1558442111937110,0,-2,-1,0,2,4,2,-1
1558442111952065,-5,-5,-4,-10,-9,2,-8,-7
1558442111952065,0,0,-4,-4,-1,4,-3,-1
1558442111960032,3,5,10,10,17,13,14,4
1558442111960032,-2,-3,-4,-9,-6,-9,-3,1
1558442111976988,-4,-1,4,-3,-6,-8,-7,0
1558442111976988,-2,-4,-5,-7,-3,0,0,1
1558442111977984,1,-1,-2,-5,-3,-9,-2,-1
1558442111977984,1,-1,-1,2,-3,-6,-3,0
1558442111989953,-1,0,3,-3,2,7,1,-1
1558442111989953,1,4,16,16,9,-2,-2,0
1558442111996933,-3,-5,-14,-14,-16,-1,0,-4
1558442111996933,-2,-3,-2,3,1,-4,3,0
1558442112011893,0,1,3,-2,0,-11,-6,-2
1558442112011893,-1,-3,-16,-10,-1,9,1,1
1558442112027851,-2,-1,7,9,0,-5,-3,-5
1558442112027851,-2,-1,2,1,0,1,2,0
1558442112036122,-1,0,-5,-2,-8,-5,-1,-1
1558442112036122,-4,-2,-4,-2,5,13,0,-2
1558442112036122,3,5,9,2,3,10,1,3
1558442112036122,0,-3,-14,-14,-8,-25,-4,-1
1558442112049950,-1,-1,-1,-2,0,6,1,-2
1558442112049950,1,2,2,2,3,-13,0,3
1558442112057772,-3,-4,-5,-3,-8,-2,-5,-6
1558442112057772,1,1,14,25,11,7,-3,1
1558442112072733,1,-2,-1,-15,-10,-3,4,0
1558442112072733,-4,-6,-14,-18,-6,1,-1,-4
1558442112079714,-3,-2,6,9,2,-7,-2,1
1558442112079714,-1,0,-7,-6,5,7,5,2
1558442112103648,0,-2,2,10,-2,-15,-7,-2
1558442112103648,-1,-4,-9,-5,-10,-1,-2,-4
1558442112104647,1,-3,-4,-8,-8,3,-2,-3
1558442112104647,-3,-4,2,0,-9,1,-5,-4
1558442112109633,2,2,4,13,15,6,4,4
1558442112109633,0,2,5,-2,5,-4,7,-2
1558442112117767,-4,-3,-7,-6,-5,-9,-8,-3
1558442112117767,0,2,0,-3,-2,2,-2,-1
1558442112133567,1,-2,-8,-8,-13,-9,-5,-2
1558442112133567,-1,0,8,15,7,2,4,3
1558442112156507,-1,3,3,5,0,-14,-3,-3
1558442112156507,-2,-3,-2,-6,4,11,-4,-2
1558442112158506,-1,-1,2,8,-1,9,1,-2
1558442112158506,-3,-6,-8,-9,-5,-7,1,-2
1558442112159499,-2,1,1,-7,-2,-2,-4,-2
1558442112159499,1,-2,-6,7,-2,1,0,1
1558442112169473,0,-1,3,6,3,-4,3,2
1558442112169473,1,3,5,0,2,-1,0,1
1558442112177510,-2,-5,-10,-9,-2,10,-1,-3
1558442112177510,-2,-3,2,-4,-7,-8,-4,-2
1558442112192412,-2,0,3,1,5,-1,4,3
1558442112192412,1,1,9,10,2,-10,-2,-2
1558442112200444,0,0,4,6,2,4,1,1
1558442112200444,2,0,-3,-10,5,13,6,-1
1558442112215521,-2,-4,-3,1,1,-1,1,4
1558442112215521,0,-1,-3,-3,-6,-2,-2,-10
1558442112216352,-2,-3,0,3,-2,-5,-3,-1
1558442112216352,-2,0,-1,-4,-2,0,2,-1
1558442112238291,-2,-1,0,-4,-5,7,-2,-2
1558442112238291,-1,1,-1,5,5,4,0,5
1558442112238291,2,-2,-4,-6,-3,-16,-1,3
1558442112238291,-3,0,0,-2,-2,7,5,0
1558442112262224,-4,0,-1,0,-11,-18,-16,-8
1558442112262224,0,1,4,8,11,15,1,2
1558442112262224,-1,2,-7,-15,-16,-5,1,2
1558442112262224,-2,-2,-1,6,7,-9,3,0
1558442112275411,-2,-2,-11,-19,-10,-6,-3,-5
1558442112275411,0,0,13,12,7,14,-4,1
1558442112276186,1,1,0,4,13,18,13,1
1558442112276186,0,1,0,8,2,-1,3,3
1558442112291185,-2,-1,-6,-3,-7,-2,-4,-4
1558442112291185,-3,-5,-13,-20,-8,-8,-3,-4
1558442112297132,-1,-1,4,3,-7,-8,-6,-2
1558442112297132,1,0,2,0,4,-6,-1,0
1558442112312090,0,-1,-1,6,-3,6,0,-2
1558442112312090,-7,-7,-17,-20,-14,-15,-14,-4
1558442112320069,2,3,7,12,16,9,10,6
1558442112320069,-1,-2,-5,-12,-6,-7,-6,-3
1558442112335030,-2,-1,-5,-6,5,5,0,-2
1558442112335030,1,3,8,14,-3,-6,1,2
1558442112350988,-4,-4,-9,-11,-9,-4,-6,-7
1558442112350988,1,2,9,13,4,0,-3,1
1558442112352980,0,-1,-2,-3,5,4,4,-4
1558442112352980,0,-2,4,-3,-5,8,2,1
1558442112356983,-2,-3,3,6,-1,-4,-5,-1
1558442112356983,1,1,-4,-6,-1,-13,-5,-1
1558442112371931,-3,-5,-8,-4,-11,5,-4,-1
1558442112371931,1,0,6,8,3,-2,2,1
1558442112379909,3,2,-8,-9,9,4,13,7
1558442112379909,-1,0,5,3,-6,-1,1,-1
1558442112394875,-1,-2,-4,0,-6,-5,-5,-2
1558442112394875,-1,-2,2,6,8,3,3,-1
1558442112402935,-1,-3,-6,-6,-5,-1,-3,-3
1558442112402935,-4,-1,-6,-8,-6,3,0,-3
1558442112410827,-1,0,11,4,7,-5,1,2
1558442112410827,-2,-1,5,6,-8,-9,-7,-3
1558442112417807,2,0,3,4,3,-10,-6,0
1558442112417807,1,0,1,-6,4,17,5,1
1558442112432999,0,-2,3,9,10,8,-2,0
1558442112432999,0,0,-13,-16,-13,-12,-5,-2
1558442112439749,-4,0,0,4,-3,3,-4,-1
1558442112439749,-3,-2,-3,-2,-8,-9,-2,-3
1558442112454709,0,-1,-10,-23,0,-2,4,0
1558442112454709,-3,-1,3,6,6,-1,2,0
1558442112462719,0,0,6,13,5,12,1,-2
1558442112462719,-2,-2,-5,-6,-9,-5,-10,-4
1558442112471667,-2,2,4,0,5,2,4,4
1558442112471667,-1,-4,-14,-17,-5,1,1,-3
1558442112477647,-3,-4,-11,-5,-8,1,-6,-4
1558442112477647,1,1,5,8,7,-4,0,1
1558442112492606,2,1,4,10,9,4,2,1
1558442112492606,-2,-1,-6,-11,-10,0,3,1
1558442112499590,-3,-3,-7,1,-1,-5,0,-2
1558442112499590,1,-2,1,2,-3,-3,-4,0
1558442112516544,-1,0,-4,-2,-7,-4,0,-4
1558442112516544,1,0,11,13,7,-3,0,-2
1558442112537488,-1,-1,-6,-11,5,1,1,-2
1558442112537488,-4,-3,-6,-4,-14,-9,-6,-2
1558442112547461,-3,-3,-11,-10,-8,-2,-2,-1
1558442112547461,0,1,-9,-8,4,1,1,-1
1558442112548458,-4,-1,0,-10,-8,-7,-7,-6
1558442112548458,-2,-3,-2,2,2,2,-3,-3
1558442112552449,2,5,4,8,6,2,3,1
1558442112552449,-3,-1,-11,-5,-9,-3,0,1
1558442112559429,-1,-4,-1,11,-2,-3,-8,-1
1558442112559429,-3,-3,-3,-17,-7,-1,-2,-3
1558442112574668,0,-4,-7,-4,-4,-19,0,3
1558442112574668,0,1,9,5,6,2,-2,1
1558442112582368,1,1,3,4,3,-7,3,1
1558442112582368,0,-2,-2,-5,-5,0,2,-2
1558442112598328,0,-2,-2,-5,-7,-2,-6,-1
1558442112598328,-3,-1,9,6,0,-4,0,-2
1558442112599321,-2,-1,-11,-11,0,5,0,1
1558442112599321,-2,0,-4,-6,4,11,6,-1
1558442112612289,0,1,0,11,8,3,1,0
1558442112612289,-2,-3,-7,-9,-16,-9,-10,-5
1558442112620405,-2,-3,6,0,-1,5,0,-1
1558442112620405,0,0,-2,3,5,-5,3,2
1558442112635228,-1,-1,4,6,1,6,0,0
1558442112635228,1,1,0,3,0,2,-3,2
1558442112642209,-5,-4,-5,-15,-11,-13,-3,-5
1558442112642209,2,1,4,2,3,4,7,0
1558442112658166,-1,1,5,17,10,-7,-6,1
1558442112658166,-1,-4,3,-2,-7,1,-4,-3
1558442112659164,1,-3,-3,2,0,5,7,4
1558442112659164,-3,-2,0,6,2,1,-3,-1
1558442112672131,-1,3,6,-4,-4,1,2,-1
1558442112672131,-2,-5,-14,-5,3,0,1,-3
1558442112680108,1,3,0,-3,-1,11,-1,0
1558442112680108,-1,-2,9,15,0,-3,1,-3
1558442112695066,-6,-8,-16,-17,-11,-7,-5,-3
1558442112695066,1,2,2,2,5,3,4,1
1558442112702047,-1,2,5,-2,-2,-16,-6,-2
1558442112702047,0,-1,-3,5,4,16,2,3
1558442112718006,-2,0,-1,-6,-5,-9,0,-3
1558442112718006,1,0,3,6,2,-2,3,1
1558442112719002,-2,-2,-11,-13,-5,0,3,0
1558442112719002,-1,-3,1,-13,-8,-6,-10,-9
1558442112733963,-1,-3,-5,-1,5,23,5,2
1558442112733963,1,1,6,13,2,-15,0,2
1558442112747984,3,2,9,7,3,-1,1,2
1558442112747984,-4,-1,-2,-7,-2,-3,-3,-2
1558442112754906,1,0,3,1,6,4,1,-1
1558442112754906,-3,-2,-6,-9,-4,7,-3,-3
1558442112761887,-4,-3,5,5,1,6,0,-4
1558442112761887,1,0,2,5,1,-9,0,0
1558442112777845,4,3,4,2,-1,-17,-1,0
1558442112777845,-2,-2,-1,-5,0,-4,-5,-2
1558442112778843,-2,-1,-2,-2,-1,12,5,-3
1558442112778843,-3,-3,-10,-12,-6,-5,-3,-1
1558442112792806,-3,-6,-5,-14,-16,-3,-2,-2
1558442112792806,3,3,2,-4,4,-12,0,3
1558442112799793,-2,-4,-6,2,-2,-6,-8,-4
1558442112799793,0,1,4,3,6,11,1,1
1558442112814754,-1,2,3,8,6,9,7,3
1558442112814754,-1,-1,-1,1,-5,-12,-5,0
1558442112822727,0,-1,-4,-9,-1,3,-3,-4
1558442112822727,1,-1,-1,3,5,-7,3,0
1558442112837685,-4,-2,0,1,-13,-4,-11,-6
1558442112837685,-1,-2,4,4,-2,8,3,0
1558442112838682,2,2,2,-4,3,-4,2,4
1558442112838682,0,1,3,6,2,0,5,1
1558442112853643,2,0,-12,-14,-10,-14,-2,-3
1558442112853643,-3,-4,-7,-13,-4,5,-2,-3
1558442112859631,1,1,7,9,2,0,0,0
1558442112859631,-1,-2,0,6,7,4,4,3
1558442112874586,-2,-2,-11,-12,-3,0,-3,-2
1558442112874586,0,1,4,10,0,1,-3,-4
1558442112882579,-3,-2,-7,-7,-6,1,-1,-1
1558442112882579,-1,-2,2,0,1,3,-6,-4
1558442112898526,-1,0,0,-4,-4,-6,-5,-2
1558442112898526,-1,-3,-9,-7,-1,6,6,1
1558442112905507,4,0,3,3,4,-17,5,2
1558442112905507,-1,-2,1,5,-3,-1,-4,-1
1558442112920464,-1,-2,-1,-4,0,8,-1,0
1558442112920464,-3,-2,0,-2,0,-5,0,-2
1558442112921462,-3,1,9,21,1,-5,-6,-3
1558442112921462,0,0,-13,-18,0,4,2,0
1558442112934426,0,-1,1,2,2,3,2,4
1558442112934426,-4,-2,-5,-5,-6,-2,-6,-7
1558442112950388,-2,-1,-3,5,0,-3,-2,-2
1558442112950388,0,0,-8,-9,-6,-4,-2,-1
1558442112958365,0,1,10,11,7,0,3,0
1558442112958365,1,-3,2,2,7,13,0,0
1558442112958365,0,-1,-5,3,7,14,5,2
1558442112958365,0,-3,2,-4,-4,-7,1,0
1558442112980304,0,-1,-3,4,4,3,1,0
1558442112980304,-2,1,2,-4,-5,-7,2,0
1558442112981300,-5,-2,-8,-10,-5,-3,-7,-6
1558442112981300,-2,-1,2,6,-1,2,-3,-2
1558442112995263,-1,-2,5,3,-3,-11,-8,-2
1558442112995263,1,0,-5,1,7,-9,0,3
1558442113002244,0,1,1,-1,1,6,2,1
1558442113002244,-4,-7,-16,-13,-6,-5,-4,-3
1558442113018202,-1,-1,1,1,-6,-8,-4,-3
1558442113018202,0,0,2,-4,-1,9,1,0
1558442113018202,1,0,2,-1,-2,1,0,1
1558442113018202,-1,-1,12,11,-4,-1,-5,-3
1558442113034165,1,-1,1,1,4,-2,3,1
1558442113034165,-2,-2,-5,5,5,6,2,-3
1558442113040146,2,1,3,2,5,5,8,5
1558442113040146,-2,-1,-2,-4,-4,0,-4,-4
1558442113055103,-4,-1,-11,-5,-8,-2,-7,-2
1558442113055103,-1,2,9,13,1,-7,-1,1
1558442113062088,-3,-6,-12,-16,-18,-23,-9,-4
1558442113062088,1,3,7,12,3,-11,0,2
1558442113086024,-2,0,4,4,6,6,3,-2
1558442113086024,0,-4,-3,-9,-2,2,-5,0
