timestamp,emg1,emg2,emg3,emg4,emg5,emg6,emg7,emg8
1558442120617706,-1,1,4,5,8,8,6,2
1558442120617706,-1,1,-1,-2,4,-4,0,3
1558442120617706,-2,-1,0,-5,-6,4,0,-2
1558442120617706,-3,-2,-1,9,-4,-5,-3,-4
1558442120618703,-1,-3,-6,-14,-2,-4,-2,-1
1558442120618703,-1,0,0,1,-2,-2,-4,-3
1558442120622692,2,-1,5,10,7,-1,1,1
1558442120622692,-2,-2,-12,-19,-3,-1,-1,0
1558442120629672,0,-1,-1,4,-5,-1,-5,-2
1558442120629672,-2,-2,-6,-7,-9,2,0,-1
1558442120640643,-3,0,13,10,-1,-1,-3,-1
1558442120640643,0,-1,-10,-2,-1,1,1,0
1558442120644632,-1,-1,3,3,1,-12,-3,-2
1558442120644632,0,-1,1,1,7,11,3,0
1558442120661589,0,-2,-16,-22,-4,1,1,-4
1558442120661589,-1,0,14,8,-1,-5,-5,-1
1558442120669566,-1,1,2,5,1,4,3,0
1558442120669566,-2,-6,-23,-20,-17,-20,-11,-3
1558442120676547,-1,-1,-3,1,-2,6,7,1
1558442120676547,0,-1,1,-1,3,0,2,-1
1558442120689514,-1,-1,10,11,0,-3,-4,-2
1558442120689514,-2,-2,-5,-21,-10,0,-5,-4
1558442120705470,-2,1,14,21,8,0,0,2
1558442120705470,-1,0,-15,-13,4,2,3,3
1558442120738382,-1,-3,0,7,1,-1,-1,-1
1558442120738382,-3,-2,2,2,-3,-4,-4,-3
1558442120738382,0,0,-2,1,-3,-2,-5,-4
1558442120738382,-1,0,2,4,0,-4,-2,0
1558442120739379,-4,-1,0,-2,-10,-3,-7,-7
1558442120739379,-2,-2,-2,-8,-3,2,1,-3
1558442120743368,0,-1,7,11,11,1,5,2
1558442120743368,1,3,5,6,-4,1,-5,-2
1558442120749353,-1,-1,-12,-14,-1,-3,2,5
1558442120749353,2,0,10,13,8,2,2,2
1558442120758328,-4,-6,-21,-22,-10,-6,-3,-3
1558442120758328,-2,-3,2,6,0,0,-2,-2
1558442120764313,2,3,8,8,4,6,4,-1
1558442120764313,-3,-1,-2,-4,-5,-2,-5,-3
1558442120781267,1,1,5,3,-1,-2,-1,1
1558442120781267,0,-1,-7,-9,6,9,4,3
1558442120787253,-1,-1,3,6,-3,-8,-4,-3
1558442120787253,-1,-2,-10,-11,1,1,0,-1
1558442120802212,-2,0,-1,7,-4,-1,-5,-5
1558442120802212,-3,-5,-7,-5,-6,-5,-5,-5
1558442120809192,1,2,2,-11,-2,-6,5,3
1558442120809192,2,2,11,24,3,3,0,1
1558442120818168,-6,-6,-18,-32,-4,-1,-6,-4
1558442120818168,-2,-2,-5,-4,-7,3,-1,-1
1558442120824152,-2,-4,-10,-1,-3,-1,-5,-2
1558442120824152,-3,0,2,6,0,-5,1,0
1558442120841109,0,-1,-3,-4,-6,-1,-2,-3
1558442120841109,2,3,7,-2,9,4,3,1
1558442120847091,-1,-1,5,10,3,-5,-2,-3
1558442120847091,-2,-6,-23,-22,-12,-12,-4,-4
1558442120862052,1,2,8,14,11,11,7,3
1558442120862052,0,-1,-3,-1,-1,-5,-1,-1
1558442120870031,1,2,6,0,-1,5,0,2
1558442120870031,-3,-1,-11,-9,0,-3,-4,-3
1558442120879007,0,-2,1,0,-6,-6,-4,-2
1558442120879007,0,-1,2,2,-1,0,-3,0
1558442120884990,-2,-3,0,0,3,-2,2,2
1558442120884990,-1,-1,3,-8,-2,0,3,-1
1558442120900947,-3,1,-1,1,3,4,5,2
1558442120900947,-1,0,-4,-7,-3,-4,-5,-3
1558442120906931,0,-1,3,3,-3,5,-1,-4
1558442120906931,2,0,4,6,-3,-3,-4,-3
1558442120921891,0,-1,-5,-5,-3,-9,3,2
1558442120921891,-4,-1,2,7,-4,-6,1,-2
1558442120929871,2,3,-3,-12,10,11,8,5
1558442120929871,-1,-2,-4,0,-4,1,-5,2
1558442120938846,3,2,11,8,4,-2,-2,1
1558442120938846,-2,-3,1,4,-2,-5,-7,-3
1558442120960788,-3,-3,-3,4,-11,-7,-8,-5
1558442120960788,-3,-3,-2,-17,-6,-3,-3,-4
1558442120962782,0,-1,-3,-12,1,-6,0,-1
1558442120962782,-2,-1,-7,-6,-4,3,3,-2
1558442120966771,3,0,2,6,5,-8,1,0
1558442120966771,1,1,3,6,4,3,0,0
1558442120981732,-2,0,7,11,-3,5,-3,-4
1558442120981732,-4,-6,-16,-23,-5,-13,-3,-3
1558442120989709,0,-1,5,7,1,3,-6,-3
1558442120989709,-1,-2,-8,-16,-8,-4,3,0
1558442120998685,-2,-3,-5,-6,-8,-13,-8,-4
1558442120998685,2,4,8,12,15,21,12,4
1558442121011652,0,1,-1,-3,-4,-1,-3,-1
1558442121011652,-5,-3,-1,8,3,1,-2,-2
1558442121020628,2,2,1,-4,2,2,3,4
1558442121020628,-3,-6,-18,-18,-11,-8,-4,-4
1558442121026612,-1,-1,8,5,0,3,-4,-3
1558442121026612,-2,-5,-11,-7,-9,-3,-5,-3
1558442121041571,-4,-1,4,6,9,6,4,-2
1558442121041571,-1,0,6,7,0,0,-2,2
1558442121049550,-1,-3,1,-2,-6,-13,-6,-2
1558442121049550,1,1,0,-5,5,7,3,0
1558442121058525,-1,-2,-4,-4,-9,2,-2,-3
1558442121058525,-1,-1,1,4,0,-4,-3,-3
1558442121072488,-2,-2,-7,-1,3,-3,2,2
1558442121072488,1,3,11,13,4,3,4,1
1558442121080467,0,-1,-4,-18,2,4,-5,-3
1558442121080467,2,1,6,5,-3,-9,1,2
1558442121087450,-3,-2,-3,3,-2,-3,4,-1
1558442121087450,-2,-4,-13,-9,-8,-11,-3,-2
1558442121102407,0,-1,4,0,2,-7,-1,0
1558442121102407,1,2,1,2,2,12,4,-1
1558442121109389,-3,-3,-1,-10,-2,9,2,-1
1558442121109389,2,1,-1,4,2,0,-2,1
1558442121118366,-3,-2,-1,1,-11,-7,-6,-4
1558442121118366,-2,-2,-2,-4,-8,-7,-8,-3
1558442121132330,2,1,3,8,16,10,8,5
1558442121132330,1,2,-1,-4,1,-5,-4,1
1558442121141306,-2,-4,-2,-2,-9,-7,-4,-2
1558442121141306,-3,0,0,6,7,-2,-3,-1
1558442121147288,-2,-1,-6,-5,-7,-5,2,-2
1558442121147288,-2,-2,8,11,-3,3,-2,-3
1558442121162248,2,0,-1,-2,6,-7,2,-1
1558442121162248,1,-3,-6,-3,6,7,2,1
1558442121169229,-6,-7,-15,-14,-19,-8,-10,-4
1558442121169229,0,-2,6,8,-1,-6,-2,-1
1558442121178208,2,3,3,5,8,10,4,3
1558442121178208,-2,-3,-2,-7,-9,-6,-4,-3
1558442121192167,1,2,2,1,6,9,4,1
1558442121192167,-1,2,7,6,7,8,6,0
1558442121201144,-3,-5,-11,-3,-11,1,-6,-4
1558442121201144,1,-1,-3,-3,4,-3,1,-1
1558442121207128,0,0,12,11,2,4,-4,-2
1558442121207128,0,-2,-11,-12,-2,-5,2,1
1558442121222088,0,0,-4,-7,1,-7,0,1
1558442121222088,-2,0,8,5,-6,0,-4,-6
1558442121229070,-4,-4,-21,-13,-5,-4,-2,-3
1558442121229070,-1,2,9,0,4,3,2,2
1558442121238046,-3,-2,-2,13,0,-2,-5,0
1558442121238046,1,0,-9,-20,-6,5,6,0
1558442121252008,-2,-3,-4,-4,-6,-19,-7,-2
1558442121252008,-3,-2,-3,-8,-6,-3,-10,-4
1558442121260988,2,2,7,7,17,22,21,9
1558442121260988,-3,-1,6,8,-2,-7,-3,-1
1558442121266968,-1,-2,2,1,-2,3,0,-3
1558442121266968,0,-1,-8,-12,-6,-9,-4,-1
1558442121281928,-2,-1,3,5,-7,-7,-7,-4
1558442121281928,2,2,3,4,4,-15,-3,0
1558442121289907,0,0,-5,-5,0,2,2,1
1558442121289907,-4,-5,0,-1,-9,-4,-7,-6
1558442121298882,-1,-4,-3,-2,0,11,-2,-2
1558442121298882,5,4,10,9,13,-8,6,7
1558442121311848,1,-1,-7,-9,-1,-3,-5,-4
1558442121311848,-3,-3,-2,16,-4,0,-4,-2
1558442121320825,-2,-1,-3,-7,2,3,2,0
1558442121320825,-2,-3,0,-1,-8,-1,-8,-3
1558442121326807,-3,0,4,9,2,3,-3,-3
1558442121326807,-1,0,-6,-19,0,6,4,-1
1558442121343763,0,0,3,0,-7,-14,-5,-5
1558442121343763,0,-1,-8,-4,2,-10,-2,1
1558442121349747,0,-1,6,14,6,4,0,2
1558442121349747,-1,0,0,-6,1,15,9,-1
1558442121358723,-2,-3,1,4,-7,0,-6,-4
1558442121358723,-1,-2,-7,-16,-8,-7,1,-1
1558442121371688,2,0,7,4,7,7,7,4
1558442121371688,-1,-2,-4,5,11,6,4,3
1558442121380668,-1,0,3,-1,3,0,-1,-1
1558442121380668,-4,-3,-10,-7,-9,1,-3,-8
1558442121395625,0,-3,-7,-4,-6,-13,-10,-2
1558442121395625,0,0,5,11,4,0,1,0
1558442121401608,-2,-3,-3,3,-6,-9,-4,-2
1558442121401608,-1,-1,6,7,5,12,-2,-1
1558442121409588,0,-3,-15,-31,-9,-10,-4,-4
1558442121409588,-5,0,4,3,-4,-2,0,-1
1558442121418563,-2,-1,-6,1,-3,-3,-2,-1
1558442121418563,-3,0,3,9,-4,-6,-3,-1
1558442121431528,2,-1,-3,-11,4,4,6,2
1558442121431528,-2,0,3,3,-3,1,-2,-2
1558442121440504,-2,-5,-4,8,5,9,-1,-2
1558442121440504,-4,-3,-11,-19,-11,0,0,-1
1558442121447485,-2,1,-3,-3,-3,-4,-3,2
1558442121447485,0,1,3,1,4,-5,1,-1
1558442121463442,1,3,6,1,-2,1,1,0
1558442121463442,-2,-4,2,4,0,6,0,-2
1558442121469427,-3,-4,-2,7,-4,-6,-5,-1
1558442121469427,2,1,0,-9,-1,2,2,2
1558442121478402,-1,-2,-9,-7,-5,1,-1,-4
1558442121478402,0,0,6,3,-3,-7,-2,0
1558442121492365,0,1,3,1,1,9,9,-1
1558442121492365,-1,0,9,14,10,-10,-6,1
1558442121501342,0,-1,-17,-17,-6,0,1,2
1558442121501342,-3,-1,-4,-3,2,9,2,-3
1558442121507326,0,-1,7,16,0,5,-5,-7
1558442121507326,-2,-7,-19,-26,-11,-16,-5,-1
1558442121523282,0,3,9,4,5,1,3,2
1558442121523282,-3,0,-1,4,0,0,6,0
1558442121529267,-2,1,2,-1,2,3,-5,-1
1558442121529267,0,-2,-4,-5,-4,5,-2,-5
1558442121553203,-1,-2,4,-5,-4,-5,-2,-3
1558442121553203,-1,-1,-2,0,-3,-5,-2,0
1558442121561181,-1,1,5,-1,-2,-9,-4,-1
1558442121561181,1,1,-2,10,9,10,6,2
1558442121562179,-2,-5,-10,-20,-9,-10,-1,-2
1558442121562179,2,3,14,16,12,17,7,2
1558442121567165,-4,-4,-15,-13,-13,-5,-5,-4
1558442121567165,-1,0,5,-2,-10,2,-4,-3
1558442121583121,-4,-2,-3,3,1,-10,-3,-3
1558442121583121,1,0,-2,0,5,7,2,2
1558442121589107,2,-1,6,4,2,-10,-4,-2
1558442121589107,0,1,5,6,-4,-3,3,2
1558442121605064,-1,3,4,2,1,7,3,2
1558442121605064,-3,-4,-12,-10,-10,-6,-8,-6
1558442121612046,-4,-2,-2,-3,-2,1,0,-3
1558442121612046,1,2,2,2,0,-11,-3,0
1558442121621021,2,3,7,9,5,-3,0,2
1558442121621021,1,-2,-1,-2,2,11,3,0
1558442121627006,3,1,2,20,10,5,-1,2
1558442121627006,-3,-5,-23,-56,-19,-11,-1,-3
1558442121642962,-2,1,14,21,8,-2,-3,-2
1558442121642962,1,1,4,0,-5,-4,-6,0
1558442121649943,-5,-3,-24,-34,-9,11,1,-2
1558442121649943,2,0,10,33,3,-1,-2,-2
1558442121664903,-2,-5,-2,-15,0,-11,-2,-3
1558442121664903,-1,-2,6,-3,5,1,4,0
1558442121671886,3,4,21,25,11,-1,2,1
1558442121671886,-3,-5,-14,2,2,14,2,-1
1558442121680860,-3,-3,-13,-16,-7,-2,-4,-1
1558442121680860,0,2,1,7,-1,-15,-1,3
1558442121686845,-4,-4,-10,-17,-13,-5,-1,-3
1558442121686845,2,3,8,16,11,-1,0,1
1558442121703800,2,-1,-2,-3,-6,-8,-8,-3
1558442121703800,-5,-1,-4,-9,-4,0,-5,-4
1558442121709783,0,-1,-2,2,-2,7,-4,-4
1558442121709783,-2,-1,4,-4,-3,7,-2,0
1558442121724743,1,1,0,13,11,1,10,4
1558442121724743,-1,-2,-2,-4,-5,-4,1,-1
1558442121731725,-2,-3,-3,-8,-14,-9,-9,-3
1558442121731725,0,-2,-3,9,3,3,3,1
1558442121747682,1,1,-13,-22,-5,-15,-1,-2
1558442121747682,-5,-6,-5,1,-7,-1,-6,-6
1558442121748679,0,-1,6,4,6,2,2,-1
1558442121748679,-1,-1,-4,-6,3,-3,1,2
1558442121763640,-2,-1,8,9,-4,5,-1,-1
1558442121763640,1,3,1,12,10,11,4,1
1558442121769623,-4,-4,-18,-25,-7,-12,-4,-2
1558442121769623,-3,-2,2,-6,-6,-2,-7,-2
1558442121785581,-1,-3,0,8,3,2,1,2
1558442121785581,3,-1,5,7,0,-3,-3,-2
1558442121791564,0,-2,7,7,-8,-5,-4,0
1558442121791564,-1,0,-9,-14,-5,2,6,-3
1558442121807522,-1,-2,-13,-3,-7,8,1,-3
1558442121807522,-2,-4,-2,-12,6,8,6,1
1558442121808520,3,5,18,18,14,-6,6,6
1558442121808520,-3,-8,-18,-18,-16,-8,-11,-3
1558442121823480,-1,-2,0,-11,-11,3,-4,-3
1558442121823480,-1,-6,-13,-7,-7,-2,2,-1
1558442121829464,3,1,4,3,13,5,10,4
1558442121829464,-1,3,12,13,7,1,-4,-1
1558442121844422,-3,-5,-13,-15,-14,-5,-7,-3
1558442121844422,-1,1,-1,-4,-7,-9,-5,-3
1558442121852402,1,1,-2,-4,4,9,3,-1
1558442121852402,-2,-2,1,8,0,-3,-5,-2
1558442121867360,-1,-1,2,-3,0,3,-4,-2
1558442121867360,-2,0,11,11,-6,-9,-5,-3
1558442121874343,1,-2,-7,1,3,-5,5,2
1558442121874343,0,1,-3,-15,3,-2,4,0
1558442121883320,0,1,3,-2,2,4,2,0
1558442121883320,-1,-2,0,6,0,3,-5,-4
1558442121889302,-5,-4,3,7,-3,-3,-3,0
1558442121889302,2,2,7,1,0,-3,-7,-2
1558442121904266,-1,0,0,5,0,-2,2,-3
1558442121904266,4,4,1,-2,6,4,4,2
1558442121912268,-3,-3,-3,-10,-13,-7,-2,-4
1558442121912268,-1,-4,-14,-8,0,4,-1,0
1558442121927236,-2,0,1,14,-2,-12,-1,-1
1558442121927236,-1,-2,-10,-15,-2,-5,-2,1
1558442121934230,-3,-4,-8,-1,-4,2,-8,-4
1558442121934230,-1,-2,6,8,-1,4,2,-1
1558442121943160,3,6,15,5,15,14,3,5
1558442121943160,-4,-3,-17,-1,-3,-6,-4,-2
1558442121949142,-4,-4,6,15,1,-3,0,-2
1558442121949142,2,3,-1,-19,-5,-15,-1,0
1558442121964102,-1,0,5,11,5,4,-1,-1
1558442121964102,4,4,6,2,7,8,4,3
1558442121972081,-1,-1,-2,-6,0,6,-1,-3
1558442121972081,-3,-2,3,13,-6,-11,-5,-5
1558442121987042,-3,-1,-3,-2,-1,2,2,1
1558442121987042,-2,-5,4,-5,-5,-1,-5,-4
1558442121995026,0,3,-7,-1,3,11,6,1
1558442121995026,-2,-5,0,13,1,-6,1,-2
1558442122002999,-1,-2,-14,-25,-14,-13,-4,-2
1558442122002999,-1,1,5,6,5,3,-1,-1
1558442122009981,-3,-2,-9,-7,-10,-1,-4,-3
1558442122009981,-2,0,1,2,5,4,3,-1
1558442122024940,1,0,7,12,11,13,8,0
1558442122024940,1,-2,-13,-13,-6,-10,-2,-1
1558442122031921,2,-1,-1,-3,-8,-10,-8,-2
1558442122031921,-1,-2,-1,-1,-3,-1,-2,-3
1558442122046881,1,-1,-1,3,6,3,-1,0
1558442122046881,0,1,-1,-5,-7,-2,-2,-1
1558442122054861,-1,0,-4,-5,0,-3,-1,-1
1558442122054861,-3,-1,-5,-4,-5,-2,-3,-1
1558442122069822,-5,-2,-1,-2,-3,1,2,2
1558442122069822,-2,0,2,-2,2,-7,-2,0
1558442122070817,0,-1,2,7,0,-1,0,1
1558442122070817,1,0,-2,-6,-4,5,-1,-1
1558442122084779,1,-1,-4,-4,3,3,-3,-2
1558442122084779,-3,-4,-7,-9,-3,-11,-4,-2
1558442122091760,-1,-1,-4,-2,-2,-5,2,-1
1558442122091760,-2,2,12,19,6,-4,-3,-2
1558442122106721,-2,-3,3,-6,-5,-4,-2,-2
1558442122106721,-1,0,1,7,7,5,1,0
1558442122114699,1,-3,2,-6,-5,-7,-2,0
1558442122114699,-2,-2,-4,-7,-1,8,-3,-1
1558442122129660,0,-2,-5,0,-5,-7,-4,-2
1558442122129660,-2,0,8,-3,7,6,7,1
1558442122130656,-2,-2,-7,-3,-3,-1,4,-1
1558442122130656,-3,-3,1,1,0,-5,-4,-1
1558442122144619,-3,-1,2,10,-6,4,-6,-5
1558442122144619,-3,-4,-19,-28,-14,-6,-4,-5
1558442122151601,3,4,9,7,15,12,7,4
1558442122151601,2,0,-3,3,-3,-9,4,3
1558442122168555,0,0,8,10,5,-3,-1,-1
1558442122168555,-1,0,1,5,3,14,0,1
1558442122174539,-1,-4,-1,-9,-11,-8,-7,-3
1558442122174539,1,2,12,20,4,-10,1,3
1558442122190498,-6,-8,-28,-33,-15,-10,-5,-3
1558442122190498,0,0,6,9,2,6,2,0
1558442122190498,0,2,0,2,5,2,-1,0
1558442122190498,-1,1,7,8,9,16,6,-1
1558442122204460,-1,-1,-4,-10,-13,-4,1,-2
1558442122204460,-1,-3,0,4,-2,-13,-2,0
1558442122212474,-2,-2,-2,-5,-2,-8,-5,-2
1558442122212474,1,3,7,16,10,11,6,-1
1558442122228396,1,1,-3,-16,3,-6,2,1
1558442122228396,-5,-4,-7,-1,-4,5,-3,-5
1558442122234379,-3,0,3,3,-3,0,-4,-3
1558442122234379,-3,-4,-14,-20,-8,1,-7,-3
1558442122251333,-2,-1,1,7,3,6,3,-3
1558442122251333,1,1,9,6,-2,-6,0,1
1558442122251333,2,-1,-2,-3,0,-4,-2,0
1558442122251333,-4,-6,-9,-13,-9,-4,-6,-2
1558442122264355,2,0,7,13,7,8,1,1
1558442122264355,0,0,-3,-4,7,4,11,4
1558442122280257,1,0,7,12,1,3,0,-2
1558442122280257,-3,-4,-16,-17,-10,-2,-5,-4
1558442122286650,1,2,10,11,5,1,6,2
1558442122286650,0,-2,-4,2,-2,-6,-6,-2
1558442122294978,-1,-3,-4,-7,-5,-5,-2,-3
1558442122294978,1,3,12,11,7,3,0,3
1558442122310584,-3,-4,-11,-10,1,9,-5,-3
1558442122310584,-2,-3,5,4,-12,-6,-8,-4
1558442122310584,-1,0,-8,-10,0,-7,5,3
1558442122310584,1,-3,-5,-12,2,3,5,3
1558442122324546,-2,1,8,6,2,-16,-3,-4
1558442122324546,-2,0,3,3,-6,2,-3,-5
1558442122331530,-2,-1,-7,-10,-4,3,-3,-2
1558442122331530,-3,-1,-2,-4,-1,1,0,-1
1558442122346488,-3,-3,0,1,-6,-9,-7,-1
1558442122346488,1,3,5,3,8,6,4,2
1558442122354468,0,0,4,8,4,1,-1,1
1558442122354468,0,0,-4,-12,-4,0,6,0
1558442122370424,0,-2,-1,-1,-3,-7,-7,0
1558442122370424,-3,-3,-5,-1,-7,-5,-3,-5
1558442122370424,-3,-3,-3,3,2,6,-2,-1
1558442122370424,1,3,6,5,10,3,3,2
1558442122384388,0,0,-3,-7,-2,-9,-1,1
1558442122384388,0,0,-2,7,-1,3,0,1
1558442122392415,-2,-5,-4,-5,-14,-1,-9,-8
1558442122392415,-1,-4,-4,1,-6,-12,-5,-2
1558442122407360,1,4,6,7,12,12,9,6
1558442122407360,-1,-1,-3,-6,2,-2,-2,0
1558442122414306,-1,0,4,3,5,1,1,0
1558442122414306,-5,-5,-4,-6,-15,-4,-11,-7
1558442122430290,1,0,0,-2,-8,-1,-1,-2
1558442122430290,-3,-4,-5,-4,-3,-7,2,0
1558442122431288,-1,-1,-9,-5,0,-1,4,0
1558442122431288,4,4,9,17,7,-1,4,-1
1558442122444262,-3,-4,-6,-11,0,12,-1,-2
1558442122444262,-1,-4,-9,-2,-10,-7,-13,-5
1558442122452248,-2,-2,-4,-6,-10,-2,-2,-4
1558442122452248,3,2,0,6,13,-5,11,5
1558442122467167,-3,0,8,11,-1,5,0,-3
1558442122467167,-3,-3,-9,-15,1,-1,-2,-3
1558442122474147,-1,-2,-1,0,-9,-9,-4,-5
1558442122474147,-2,-2,2,-7,-5,-2,-6,-4
1558442122490105,1,0,-2,3,-3,-2,-3,1
1558442122490105,-1,0,-1,-6,1,-10,-3,3
1558442122491100,0,0,2,7,10,8,7,7
1558442122491100,-2,-2,-3,0,-8,3,-3,-4
1558442122505063,0,-2,0,-4,-8,-9,-9,-3
1558442122505063,2,1,1,3,7,7,9,1
1558442122520024,-2,0,3,1,5,10,3,-3
1558442122520024,0,1,-4,-6,3,0,3,4
1558442122527037,-2,-3,-1,4,-2,-9,1,-2
1558442122527037,-3,0,4,3,-2,3,-1,-4
1558442122534983,-1,0,-6,-4,4,2,0,0
1558442122534983,-3,-3,-6,-13,-6,6,-1,-1
1558442122549943,-3,-1,-2,4,-1,-3,-8,-3
1558442122549943,1,1,8,-4,3,-4,5,3
1558442122565935,0,0,5,1,1,0,0,1
1558442122565935,-1,-3,-4,4,-5,-2,-10,-3
1558442122572881,-2,-4,-1,-8,-3,-9,-3,-1
1558442122572881,2,1,-1,0,-1,6,-1,1
1558442122572881,-2,0,9,10,11,8,-1,0
1558442122572881,-1,-1,-6,-7,-4,-10,-3,-2
1558442122586845,1,1,1,3,-5,-3,6,1
1558442122586845,0,-1,1,-3,-6,-8,-5,-3
1558442122594850,-1,-1,1,5,4,6,-4,-4
1558442122594850,-5,-4,-4,-5,-8,-10,-8,-3
1558442122609785,1,0,-8,-9,3,8,6,0
1558442122609785,0,-1,-4,-1,-1,-12,1,0
1558442122610782,-1,-4,-4,-2,-3,0,-2,1
1558442122610782,-3,-2,5,7,-2,1,-2,-2
1558442122625741,1,1,3,-2,3,2,-2,-2
1558442122625741,-4,-3,-8,-15,-3,3,3,0
1558442122631786,0,-1,-4,-8,-8,-21,-2,0
1558442122631786,0,-1,-3,-4,2,-4,-4,0
1558442122647967,2,0,2,16,16,18,7,3
1558442122647967,-1,-1,4,3,-5,4,-4,-4
1558442122654665,0,0,4,1,4,-12,-4,2
1558442122654665,-2,0,2,6,-2,-7,-1,0
1558442122671619,-1,-6,-19,-12,-9,-5,-5,-2
1558442122671619,-1,-2,0,1,1,8,-2,0
1558442122673068,1,-1,-1,-2,-3,1,1,0
1558442122673068,1,1,6,4,9,7,6,1
1558442122685069,1,2,1,6,-3,-8,-1,0
1558442122685069,-1,-2,0,-1,-1,6,-5,-4
1558442122693004,-4,-3,-6,-30,-11,2,-2,-2
1558442122693004,-2,-4,-14,-3,4,-1,3,0
1558442122707930,0,0,8,-2,-6,-2,-5,-2
1558442122707930,1,-2,-7,-5,9,3,9,5
1558442122714579,-2,0,-5,-7,-4,-2,-2,0
1558442122714579,0,-1,4,-2,-3,0,-5,-5
1558442122729917,0,-4,-5,-4,-9,-3,-2,-2
1558442122729917,0,0,2,5,0,-4,-5,-4
1558442122737442,4,4,5,8,9,6,7,2
1558442122737442,0,-2,-2,-1,-2,-4,3,2
1558442122744900,-2,-2,0,-1,1,-1,-2,0
1558442122744900,1,0,2,0,-2,-2,-2,-1
1558442122752781,-2,-2,-3,8,-5,-9,-2,0
1558442122752781,0,-1,-3,-5,-2,6,1,-2
1558442122783617,-1,2,12,9,7,3,2,-3
1558442122783617,-3,-2,-3,-10,-6,2,-3,-1
1558442122784319,-4,-3,-11,-3,-6,4,-5,-5
1558442122784319,2,1,-2,-5,-4,-12,0,3
1558442122789612,3,6,11,13,13,4,8,4
1558442122789612,-3,-2,-4,-11,-3,-3,-3,-2
1558442122798558,-2,-2,0,5,-4,0,-3,-6
1558442122798558,0,-1,1,-4,1,5,-5,-3
1558442122804265,-2,-3,-9,-2,-3,-3,-1,-2
1558442122804265,1,1,-2,-1,2,-7,1,2
1558442122812243,1,1,3,4,4,2,3,2
1558442122812243,-2,1,0,-2,-3,1,-3,-2
1558442122826581,-2,-1,2,-3,3,2,-3,0
1558442122826581,-2,-3,-8,0,-7,-11,-6,-2
1558442122842504,0,1,8,7,-6,-6,-7,-1
1558442122842504,-3,-2,-20,-27,-1,13,6,2
1558442122849484,-1,-3,-1,-3,-5,-14,-8,-4
1558442122849484,1,-1,5,7,2,10,4,1
1558442122857491,2,2,4,4,7,-2,7,3
1558442122857491,-4,-3,-8,-8,-7,-10,-11,-2
1558442122864444,-2,-2,-4,-5,-9,-1,0,-2
1558442122864444,-1,-1,-5,-5,-9,-10,-7,-5
1558442122872448,2,1,2,2,14,18,7,2
1558442122872448,0,-1,15,22,4,1,4,0
1558442122886530,-2,-4,-9,-16,-3,-4,-5,-2
1558442122886530,-1,1,11,19,0,-4,0,0
1558442122894620,0,-3,-13,-24,-6,-2,-2,1
1558442122894620,2,0,-3,-11,-4,-3,-3,-3
1558442122909497,-2,-4,-7,-8,-6,-2,-4,-3
1558442122909497,1,1,1,8,4,-1,1,1
1558442122917481,0,0,8,5,3,-2,1,-1
1558442122917481,-1,0,1,5,4,2,3,-1
1558442122924458,-3,-2,-13,-6,-15,-3,-1,-3
1558442122924458,-1,-1,4,-14,2,-4,-3,-1
1558442122932492,-3,-3,-4,3,4,6,1,1
1558442122932492,0,1,12,13,-2,-4,-8,-4
1558442122947461,2,0,-2,-1,-2,-8,1,-1
1558442122947461,-4,0,-1,10,4,14,3,-2
1558442122954466,-2,-2,0,-7,-6,-6,2,-3
1558442122954466,-2,-3,-12,-7,-4,-13,-1,0
1558442122969399,-1,-1,-2,2,-1,4,-3,1
1558442122969399,1,-1,-5,-2,-2,5,4,2
1558442122977404,-1,-1,2,1,1,-13,-5,0
1558442122977404,-2,-2,-1,3,-2,7,-3,-2
1558442122992364,1,3,9,4,-4,-2,-1,-1
1558442122992364,1,-5,-16,-14,2,-3,0,1
1558442122993335,-1,-3,-2,6,-2,7,0,-1
1558442122993335,-1,1,10,9,6,1,2,1
1558442123007295,-1,-1,0,-1,3,-2,-1,-1
1558442123007295,-2,-1,4,8,-2,2,-1,-2
1558442123014276,-3,-3,-9,-4,-4,-1,-5,-1
1558442123014276,-3,-4,0,-4,-7,-2,-2,-2
1558442123029265,-1,0,0,-4,10,15,2,-1
1558442123029265,1,1,9,5,1,-23,-1,-2
1558442123037214,-2,-3,-9,-2,-14,-3,-1,-3
1558442123037214,-3,-2,-14,-5,3,4,3,-1
1558442123052371,0,1,4,1,4,-7,6,4
1558442123052371,-3,-2,-4,-8,1,-3,-4,-4
1558442123053173,-5,-1,6,11,-4,-4,-7,-5
1558442123053173,0,-3,4,-1,-7,2,3,-1
1558442123068133,-2,-1,-10,-6,1,1,-2,2
1558442123068133,-2,-1,-3,1,1,5,1,-1
1558442123075118,1,1,6,6,-3,-14,0,0
1558442123075118,-1,-2,1,1,4,6,-1,-2
1558442123089115,-1,-1,0,-1,-3,-4,-3,-1
1558442123089115,-1,1,-4,1,-5,-1,-5,-2
1558442123098090,0,-1,-4,-12,-7,-1,-4,-3
1558442123098090,2,2,6,14,10,8,6,3
1558442123113013,-2,-2,-3,-12,-3,1,0,-2
1558442123113013,-2,-1,-8,-3,2,-1,-2,1
1558442123113013,-3,-3,-10,-4,-10,-17,-5,0
1558442123113013,3,0,4,12,-4,-1,-3,0
1558442123127011,-3,-3,-1,-7,-3,-1,-1,-1
1558442123127011,-2,-2,3,3,1,6,-3,-2
1558442123134962,-2,-1,0,0,-2,8,-1,0
1558442123134962,0,-2,-9,-8,-4,0,0,1
1558442123149954,2,0,7,8,2,-6,4,2
1558442123149954,1,-2,-9,-6,-3,-15,0,1
1558442123157927,-2,-2,-6,-9,-3,-3,-4,-2
1558442123157927,-1,-2,1,-3,-3,3,-5,-4
1558442123172852,-1,1,8,8,8,9,0,-1
1558442123172852,-1,-3,-2,-11,-6,0,-1,-3
1558442123173851,2,-1,-3,4,-2,-8,-3,-2
1558442123173851,-1,-2,-4,-17,5,5,4,1
1558442123186817,-3,-3,-8,0,-9,-10,-6,-4
1558442123186817,0,2,7,-1,-8,-4,-1,0
1558442123194889,-1,0,5,4,7,11,4,0
1558442123194889,-3,2,-3,-2,-5,-8,-4,-3
1558442123209836,1,1,-7,-3,0,-1,-4,-2
1558442123209836,-3,-2,4,3,-2,2,0,-3
1558442123217931,-1,-4,-8,-13,-4,-7,1,-2
1558442123217931,1,0,-1,7,6,-3,2,1
1558442123240866,1,-1,2,-1,6,14,2,2
1558442123240866,-1,-2,-1,0,-6,1,-3,-6
1558442123241832,-3,-4,-1,-8,-3,10,0,-3
1558442123241832,-1,1,9,6,2,-11,-1,3
1558442123246851,2,-2,-11,-4,-2,-17,-2,3
1558442123246851,1,-1,-1,0,-2,0,4,2
1558442123254796,-2,-3,0,-3,2,11,2,1
1558442123254796,1,2,1,0,-3,-11,-2,1
1558442123269756,-1,-2,0,0,-3,-2,-6,-4
1558442123269756,-2,-2,-5,-3,-5,1,-5,-2
1558442123277799,0,1,5,9,8,4,3,1
1558442123277799,0,0,-3,-10,-3,-8,-2,-1
1558442123292694,-3,-4,3,0,-5,3,1,-3
1558442123292694,2,-1,-5,-1,-1,-2,0,2
1558442123293691,-1,1,-2,0,3,-6,1,2
1558442123293691,-3,0,1,0,2,8,-1,0
1558442123306725,-5,-2,-1,1,-5,1,-5,-5
1558442123306725,-1,-1,-1,-2,-1,-1,-2,0
1558442123314705,1,0,0,1,4,9,4,0
1558442123314705,0,-1,1,2,3,-11,-3,-1
1558442123337575,-1,-2,-5,5,-4,-7,-5,0
1558442123337575,-1,1,-2,-3,0,-6,0,-1
1558442123338573,-1,-2,-11,-19,3,5,2,0
1558442123338573,-2,-4,-1,2,-13,-7,-7,-6
1558442123352536,2,2,7,0,5,7,3,1
1558442123352536,-2,-4,-5,1,-4,-1,-6,-3
1558442123353533,-1,0,10,10,3,-4,-1,-2
1558442123353533,-3,-2,-2,6,-7,-4,1,-2
1558442123367525,0,-1,-15,-41,-8,-13,-2,1
1558442123367525,-4,-4,6,11,6,6,0,1
1558442123374475,1,2,-9,-11,-11,-11,-4,-2
1558442123374475,-4,-5,4,5,-2,10,-3,-4
1558442123397416,-2,-1,1,12,2,-6,-1,1
1558442123397416,-1,1,3,2,8,15,4,1
1558442123398411,-3,-2,-4,-2,-7,-10,-6,-1
1558442123398411,1,1,-10,-8,0,-9,2,0
1558442123412375,-1,-1,6,16,4,4,-1,-2
1558442123412375,1,-1,-2,-10,-3,2,0,-1
1558442123413373,0,-2,-5,0,0,4,2,2
1558442123413373,1,0,-4,-8,-1,-2,2,1
1558442123427333,0,1,6,6,-2,2,-2,-4
1558442123427333,-3,-3,-2,0,-9,-7,-7,-4
1558442123434314,-1,-1,1,1,4,12,-1,-4
1558442123434314,0,3,11,10,7,-8,4,4
1558442123449277,2,0,-5,-13,11,10,5,3
1558442123449277,-1,-3,-7,-6,-6,-6,1,-1
1558442123457259,-2,-7,-10,-17,-14,-7,-5,-4
1558442123457259,-3,-3,4,8,6,10,-3,-5
1558442123472214,-2,-2,-11,-18,-8,2,3,1
1558442123472214,1,3,14,28,12,4,5,2
1558442123473211,0,1,-6,-23,-3,-8,-3,-2
1558442123473211,0,-2,4,2,-4,-5,-3,0
1558442123487174,0,0,0,5,-1,-5,-4,0
1558442123487174,0,-1,-2,-4,-6,-4,-3,-2
1558442123495151,-2,-2,0,5,0,6,2,-2
1558442123495151,-3,-1,1,-1,1,9,2,0
1558442123518125,-3,-1,0,2,-9,-4,-4,-5
1558442123518125,-3,-3,-4,-11,-4,-5,-5,-3
1558442123518125,4,3,8,18,4,-19,2,2
1558442123518125,-1,1,1,-1,15,-6,-1,-1
1558442123533094,-2,-3,-1,-4,-8,4,-3,0
1558442123533094,-2,-4,-21,-20,-16,-6,-10,-5
1558442123533094,-1,-1,0,0,-2,3,-2,-2
1558442123533094,-1,-2,-3,1,-2,-1,-3,-1
1558442123547068,-1,0,-3,-1,3,3,4,0
1558442123547068,-1,0,6,3,5,2,2,-1
1558442123554024,2,2,3,0,4,-3,2,4
1558442123554024,-2,-4,-10,-13,-16,-6,-7,-2
1558442123570951,-3,-5,4,12,1,-3,-5,-4
1558442123570951,2,1,-4,-8,5,12,10,3
1558442123577153,-2,-3,1,1,-1,5,-2,-2
1558442123577153,0,1,-3,-8,-8,-7,-1,0
1558442123593110,1,-2,3,11,0,-6,-1,2
1558442123593110,1,5,5,-6,3,-3,1,1
1558442123593110,-1,-2,-2,1,-4,-7,-5,-4
1558442123593110,-3,-5,-15,-22,-9,11,-3,-3
1558442123606855,0,-1,-4,2,1,6,2,-1
1558442123606855,-1,-1,6,6,1,-3,-2,-2
1558442123614889,-1,-1,-3,-7,2,7,-2,0
1558442123614889,-1,-2,-1,4,-12,-8,-1,-2
1558442123629842,3,0,1,-8,3,1,2,0
1558442123629842,3,0,-1,1,8,1,3,6
1558442123636873,-3,-1,5,10,-3,-8,-5,-4
1558442123636873,-3,-3,5,3,2,7,0,-2
1558442123652829,-3,-2,-3,-3,-6,-3,-3,-2
1558442123652829,-2,-2,-3,2,-6,4,-4,-3
1558442123653824,2,0,2,4,-1,-6,-1,0
1558442123653824,2,1,2,-1,7,3,6,0
1558442123666829,-1,-2,-2,0,3,-14,-3,-5
1558442123666829,-2,-2,4,1,-6,0,-5,-4
1558442123674769,0,-1,-6,1,-3,-1,0,-1
1558442123674769,1,1,-1,4,8,20,8,3
1558442123689728,-1,-1,-1,5,5,12,1,-1
1558442123689728,0,0,-5,-2,0,-9,-1,1
1558442123696710,-2,-1,1,1,-7,-1,-4,-4
1558442123696710,0,-3,-5,-4,-3,-9,-11,-7
1558442123712701,-3,-1,7,9,-2,-3,3,0
1558442123712701,2,3,-1,-5,9,1,5,3
1558442123713698,-2,-1,-5,-10,-5,-2,-1,1
1558442123713698,-2,-1,-1,-1,-5,4,-4,-3
1558442123727627,0,2,11,0,7,2,1,0
1558442123727627,1,0,0,12,-6,-13,0,-1
1558442123734825,-3,-4,-3,-10,-2,-4,-5,-5
1558442123734825,-1,-1,-4,-3,-8,-17,-4,0
1558442123749786,-2,-1,0,-5,-7,-1,-7,-5
1558442123749786,-1,-2,4,6,1,8,2,-1
1558442123756636,-1,2,4,12,13,3,5,1
1558442123756636,1,-1,13,16,5,-2,2,-1
1558442123772506,-1,-5,-16,-32,-10,0,-4,-2
1558442123772506,-3,-2,2,0,-2,-2,-6,-3
1558442123780577,1,0,0,5,-4,-6,-4,-1
1558442123780577,-2,0,-4,-6,-1,-6,2,1
1558442123787466,-1,1,1,10,5,-3,3,2
1558442123787466,-4,-3,-7,-6,-1,4,2,-3
1558442123794536,-4,-1,5,3,8,11,0,0
1558442123794536,-1,0,-8,-6,3,12,9,2
1558442123809505,0,-2,-4,2,-3,-9,-4,0
1558442123809505,-3,-3,-4,-7,-11,-3,-12,-7
1558442123817452,-2,0,4,6,2,0,6,2
1558442123817452,0,2,1,1,2,-8,1,1
1558442123832366,-3,-1,-5,-5,2,0,0,-4
1558442123832366,-3,-2,-5,-2,-5,-1,-3,-3
1558442123840356,-1,-4,-8,-11,-5,6,-1,-2
1558442123840356,0,-1,1,-3,-7,-6,-3,0
1558442123847342,1,1,4,7,2,2,3,2
1558442123847342,-1,-1,-2,-7,-2,-7,-1,-1
1558442123854291,0,0,8,1,2,-1,-1,-1
1558442123854291,-2,-5,-21,-12,-7,3,-3,-1
1558442123869484,0,0,2,10,4,0,7,4
1558442123869484,0,2,6,1,9,2,4,3
1558442123877458,0,-1,-12,-5,-5,-7,-4,-1
1558442123877458,-1,1,7,7,-2,1,-6,-4
1558442123892419,-3,-2,-3,-12,-10,0,-5,-5
1558442123892419,-1,-1,-1,3,-3,-1,-3,-2
1558442123909508,-2,-3,-4,-13,-9,-4,-1,-2
1558442123909508,2,0,1,6,8,-6,2,5
1558442123910371,-2,0,-3,0,1,-5,0,1
1558442123910371,-3,-1,4,3,4,-3,1,-1
1558442123914359,0,-1,-4,-1,-3,5,-5,-2
1558442123914359,-2,-3,-6,-7,-3,0,-4,-3
1558442123929531,-1,1,0,4,1,2,-6,-3
1558442123929531,0,1,9,7,1,-1,-7,-4
1558442123937300,-4,-6,-6,-10,-5,-10,-2,-3
1558442123937300,-1,-2,-6,-9,-5,-13,2,2
1558442123952389,-1,-2,1,-1,-2,6,3,1
1558442123952389,0,1,-1,2,5,3,5,4
1558442123960417,0,1,4,6,2,-3,-2,-2
1558442123960417,-1,0,4,-1,1,-1,-1,-2
1558442123975323,-4,-5,-11,-8,-9,-4,-6,-3
1558442123975323,-1,-1,5,2,-6,-7,-7,-3
1558442123976194,3,1,0,11,4,-2,3,1
1558442123976194,1,-1,-10,-16,2,0,-3,0
1558442123989160,-1,0,6,-2,-4,8,2,-1
1558442123989160,-2,-3,-4,-3,-4,4,-1,-2
1558442123997138,-3,0,6,7,5,-2,-2,-1
1558442123997138,-3,1,3,1,-2,-7,3,-1
1558442124012097,-1,-1,0,3,2,-2,-4,-2
1558442124012097,0,-2,0,-4,-7,-12,-5,-1
1558442124020077,0,-1,-4,-7,-1,20,7,2
1558442124020077,-2,-2,-6,-8,-1,-2,-3,-3
1558442124035502,4,6,2,-2,11,0,6,7
1558442124035502,-3,-3,-2,4,3,5,6,3
1558442124036296,1,1,2,6,1,-1,-3,-1
1558442124036296,-3,-4,0,-4,-8,5,-1,-5
1558442124057582,-1,-1,0,0,-4,-8,-5,-1
1558442124057582,1,-2,-14,-10,-1,-2,-4,-2
1558442124058486,0,0,5,8,-3,-5,5,1
1558442124058486,-1,-1,3,-1,7,18,5,-2
1558442124073443,-5,-4,-14,-20,-15,-9,-8,-6
1558442124073443,-1,0,-2,0,0,-3,4,0
1558442124080426,-1,-2,-4,-7,-2,-7,-2,-2
1558442124080426,-1,1,-1,0,3,3,0,-1
1558442124095388,0,1,8,13,4,9,1,-2
1558442124095388,-3,-3,-4,-4,-6,-8,-4,-4
1558442124095388,-3,-5,-8,-4,-14,-13,-10,-5
1558442124095388,2,4,10,9,14,15,7,2
1558442124109443,3,1,1,-3,5,-7,3,1
1558442124109443,-4,-5,-1,7,-4,-5,-4,0
1558442124117423,0,-1,-4,-12,-6,-1,-4,-2
1558442124117423,-2,-3,-5,-4,-9,-6,-14,-6
1558442124141338,1,-3,1,11,1,9,0,-1
1558442124141338,2,3,-5,-15,3,-1,8,2
1558442124141338,-1,2,5,-2,5,-2,0,-1
1558442124141338,-2,-1,5,18,4,3,1,-2
1558442124155327,-2,-6,-13,-19,-14,-2,-4,-2
1558442124155327,-1,-2,-1,-2,3,1,0,-1
1558442124156313,0,1,0,-3,10,5,3,1
1558442124156313,-1,-1,0,1,-8,-5,-3,-1
1558442124169190,-1,1,7,13,5,-1,-1,-2
1558442124169190,0,-3,-5,-12,-8,2,-5,-1
1558442124177234,-3,-2,-5,-1,-7,-3,-5,-2
1558442124177234,-3,-3,0,1,1,3,-3,-2
1558442124192169,4,7,21,28,10,-1,7,3
1558442124192169,-4,-8,-38,-41,-8,-2,-3,-5
1558442124200107,-2,-1,5,-7,0,1,-2,-2
1558442124200107,-3,-4,-11,-8,-10,-15,-6,-3
1558442124215100,-3,-3,-8,-12,-15,-7,-8,-3
1558442124215100,2,6,14,14,5,4,6,1
1558442124216065,1,1,2,7,11,0,-2,1
1558442124216065,-2,-2,-4,-7,-5,-3,-2,-1
1558442124229058,-4,-2,1,0,8,7,5,0
1558442124229058,-1,1,7,21,5,5,1,0
1558442124237008,-5,-8,-13,-12,-12,0,1,-3
1558442124237008,2,0,3,6,-3,-7,-2,1
1558442124252002,-1,0,-4,-1,1,-13,0,-1
1558442124252002,1,3,5,2,1,-2,-5,-1
1558442124259975,-2,-2,-6,-10,3,12,0,-1
1558442124259975,0,0,-1,-4,-1,0,2,1
1558442124274936,-3,-5,-20,-10,-7,-12,-4,-2
1558442124274936,0,-2,3,5,0,8,6,-1
1558442124275905,0,2,5,7,3,-6,1,-1
1558442124275905,0,-1,6,-5,-1,9,-3,-3
1558442124289897,-2,-2,-5,-4,-8,-6,-4,-2
1558442124289897,3,4,7,8,19,2,9,9
1558442124296849,0,-1,7,19,-3,-11,-2,0
1558442124296849,-3,-3,-11,-21,-7,-5,-6,-2
1558442124311905,-1,-3,1,-5,-11,-4,-7,-5
1558442124311905,-4,-1,-4,-7,-3,1,-5,-6
1558442124319788,0,1,-2,-1,9,4,6,4
1558442124319788,0,1,6,6,-2,-8,-1,0
1558442124334845,-2,-1,5,4,2,3,-3,-2
1558442124334845,-2,-3,-3,-4,-3,-4,-6,-3
1558442124335742,0,1,4,3,-4,-2,-4,0
1558442124335742,1,0,-9,-1,4,-3,-1,0
1558442124349806,2,2,3,-1,3,4,11,2
1558442124349806,0,-2,11,17,-3,-1,-1,-2
1558442124356686,-2,-3,-6,-4,-8,-8,-4,-3
1558442124356686,-3,0,-7,-10,0,0,6,2
1558442124371742,-1,-4,-2,-7,-2,1,-4,-3
1558442124371742,-3,-1,-2,-4,-1,3,-1,-2
1558442124380659,3,0,3,5,2,3,3,0
1558442124380659,0,3,5,0,0,3,0,-1
1558442124395583,-5,-7,-8,1,-2,-1,-6,-3
1558442124395583,1,3,8,0,5,1,3,4
1558442124396595,-4,-3,-14,-14,-6,-11,-7,-3
1558442124396595,0,0,11,11,5,3,6,0
1558442124409545,-3,-2,-4,-2,-8,-7,-7,-2
1558442124409545,-1,-3,-4,-3,-6,4,-7,-5
1558442124416556,-1,0,-3,-13,-1,6,3,0
1558442124416556,0,0,0,9,5,2,0,2
1558442124431523,1,3,4,-2,6,-7,5,3
1558442124431523,-2,-1,1,-4,-9,-14,-9,-4
1558442124440497,1,-1,-8,-4,2,10,5,-1
1558442124440497,-2,-3,-6,1,-8,-16,-9,-1
1558442124463401,1,0,0,-2,-1,10,0,0
1558442124463401,-4,-2,-1,0,-1,4,-2,-1
1558442124464398,0,-1,7,13,-7,-5,-6,-4
1558442124464398,-2,-4,-9,-5,4,-1,4,0
1558442124469385,3,1,1,1,7,0,-2,-1
1558442124469385,1,0,8,9,3,-3,5,2
1558442124477364,-5,-3,-14,-12,-7,2,-3,-2
1558442124477364,-1,0,6,0,-8,0,-4,-4
1558442124492323,-3,-3,-1,5,0,0,0,-2
1558442124492323,1,1,-1,-1,-1,-4,-4,-3
1558442124500301,-1,-1,10,11,-4,-2,1,1
1558442124500301,3,0,-1,3,10,1,2,3
1558442124515265,-1,-2,0,2,3,5,-3,0
1558442124515265,0,-1,-3,-16,-4,-7,1,2
1558442124516260,-1,-4,-7,-3,0,4,4,-2
1558442124516260,-2,-1,2,4,-2,1,1,-4
1558442124529429,-2,-2,-2,3,-2,-6,-4,-3
1558442124529429,-2,-2,-15,-21,-6,0,-4,0
1558442124537219,-1,0,12,14,12,3,0,1
1558442124537219,-2,0,4,6,1,-7,-3,2
1558442124552296,0,0,-1,0,2,6,6,1
1558442124552296,-2,-4,-3,0,-1,-6,1,0
1558442124560308,-3,1,12,4,5,-3,-1,-2
1558442124560308,1,-1,-1,4,-6,2,0,1
1558442124575490,-5,-5,-5,-15,-6,-7,-7,-3
1558442124575490,0,-1,-1,-1,-8,-3,-5,-3
1558442124576379,0,-1,-10,-2,0,2,-1,1
1558442124576379,-2,-1,-2,-9,-2,-6,3,1
1558442124589398,0,3,6,16,5,4,5,2
1558442124589398,-1,-2,-1,9,2,6,-3,-5
1558442124597377,-2,-4,-12,-22,-8,-3,-5,-3
1558442124597377,-3,-2,-7,-1,1,1,0,-2
1558442124612276,-2,1,4,1,-9,-1,-5,-4
1558442124612276,1,-2,-5,-2,-5,-10,-9,0
1558442124620197,-1,1,-8,-9,0,-1,2,1
1558442124620197,-1,-1,0,2,1,-4,-4,-3
1558442124635194,1,-2,2,-4,10,17,10,5
1558442124635194,-2,-2,-6,4,-7,-8,-2,-1
1558442124636154,0,0,1,-2,0,-1,-3,-1
1558442124636154,0,-2,1,-5,-10,-5,-7,-6
1558442124649154,-3,-5,-8,-5,-10,-8,-7,-5
1558442124649154,-2,0,4,0,4,3,7,0
1558442124657130,2,2,6,9,12,5,3,0
1558442124657130,-2,0,5,6,8,8,2,-1
1558442124673083,1,-1,3,-7,-4,0,-7,-2
1558442124673083,0,-3,-10,-9,-8,-14,0,1
1558442124680074,0,0,2,4,-6,-7,-2,-2
1558442124680074,-1,-3,-1,8,-2,5,-4,-2
1558442124694027,-1,-2,-15,-15,-2,-4,4,0
1558442124694027,-2,-3,3,8,5,15,5,1
1558442124702975,0,2,-4,-7,0,-5,-1,1
1558442124702975,-2,-4,1,1,-1,-6,0,-1
1558442124708992,-2,0,-1,-2,-7,2,-3,-1
1558442124708992,0,-2,-11,1,-3,-3,-6,-4
1558442124717189,0,0,1,1,0,-1,2,0
1558442124717189,-4,-1,-1,-4,-5,0,-2,-5
1558442124731899,3,3,1,15,17,7,4,0
1558442124731899,-2,-1,5,-22,-8,-15,1,2
1558442124740128,-3,-4,-4,1,-8,-2,-6,-2
1558442124740128,1,-2,-7,-9,-4,4,2,0
1558442124755066,1,3,14,20,8,-3,-1,1
1558442124755066,-1,0,-4,2,5,12,2,-3
1558442124762817,0,-3,-2,-10,-2,-6,-2,-3
1558442124762817,0,0,-8,-16,2,-8,3,3
1558442124769797,0,-2,1,-1,-9,-5,-6,-2
1558442124769797,0,0,1,-2,2,10,5,1
1558442124776786,1,0,0,-3,-2,-12,-4,1
1558442124776786,-1,-1,1,6,6,11,5,1
1558442124800946,-2,1,4,1,-4,-4,-3,-3
1558442124800946,0,1,0,-6,5,-4,-5,-2
1558442124801712,-1,-2,6,13,0,10,0,-3
1558442124801712,2,1,10,7,-7,-6,-5,0
1558442124814975,-7,-10,-40,-33,-13,-7,-2,-2
1558442124814975,-2,1,10,18,0,5,2,0
1558442124830987,-4,-5,-14,-9,-11,-7,-1,-2
1558442124830987,2,1,7,7,9,3,-1,1
1558442124831934,-3,1,8,6,2,-3,-3,-3
1558442124831934,-2,0,1,-1,-5,5,-4,-3
1558442124836923,1,-2,5,10,2,-4,-4,-2
1558442124836923,-1,-2,-11,-21,-5,-7,-1,0
1558442124851919,0,-2,-11,-19,-10,0,5,-2
1558442124851919,-1,-2,6,5,2,-7,-3,0
1558442124859891,-2,-2,1,5,-2,2,-3,-2
1558442124859891,0,-2,-4,-5,-7,-9,-5,-1
1558442124874852,-2,-2,10,6,0,0,-1,0
1558442124874852,0,0,1,4,8,13,11,2
1558442124882834,-1,-1,-12,-6,-7,-6,-5,-2
1558442124882834,-4,-1,2,5,2,9,-6,-5
1558442124897759,-3,-2,-4,-10,-14,-9,-7,-7
1558442124897759,2,-1,6,12,1,-2,5,1
1558442124898756,0,2,5,4,16,2,8,6
1558442124898756,-2,0,-7,-5,-1,-6,-2,-2
1558442124911750,0,3,17,19,10,7,-3,1
1558442124911750,-4,-3,-19,-14,-12,0,-6,-8
1558442124919698,0,-1,4,-8,0,4,-5,-3
1558442124919698,-2,-3,-10,-7,-12,-6,4,0
1558442124934902,1,-2,-5,-10,-1,1,0,0
1558442124934902,-1,0,4,1,1,-2,1,-1
1558442124942636,-1,1,1,-3,0,-2,-4,1
1558442124942636,-2,-1,13,20,5,11,4,1
1558442124957693,-2,-4,-21,-29,-2,-3,-4,0
1558442124957693,-1,-1,1,-3,5,-3,-1,0
1558442124958594,-2,-2,7,14,-5,6,0,-2
1558442124958594,-5,-5,-12,-14,-18,-13,-10,-6
1558442124971655,-1,3,11,13,4,-7,0,1
1558442124971655,0,0,-8,-6,8,9,4,1
1558442124980622,0,-2,-5,-6,-3,-7,4,0
1558442124980622,2,0,5,6,9,6,0,0
1558442124994599,-2,-2,-1,-2,-4,0,2,-1
1558442124994599,-2,-4,-5,-10,-12,-10,-12,-4
1558442125002478,1,3,4,1,-1,6,5,0
1558442125002478,-1,-2,3,4,0,-3,1,-2
1558442125017537,-2,2,2,1,3,-2,-2,1
1558442125017537,-2,-2,-4,-1,4,1,0,3
1558442125018433,-3,-2,-5,-3,-1,3,0,-1
1558442125018433,1,0,2,-2,-3,-4,-1,-2
1558442125032420,0,1,3,8,2,-1,1,0
1558442125032420,1,2,10,12,7,-7,1,2
1558442125039408,-3,-3,-5,-5,-9,-3,-3,-4
1558442125039408,-3,-4,-9,-13,1,10,0,0
1558442125054369,-2,-2,-1,3,-4,0,-3,-3
1558442125054369,-6,-7,-11,-11,-16,-15,-11,-8
1558442125062353,1,-1,2,1,-3,-17,-8,1
1558442125062353,4,5,4,7,23,21,20,8
1558442125077307,-2,-2,-3,-2,3,-1,4,2
1558442125077307,3,4,9,22,12,7,3,2
1558442125078277,-4,-5,-20,-35,-22,-11,-9,-6
1558442125078277,-5,-2,8,13,-10,-16,-15,-6
1558442125092268,1,-4,-20,-23,-9,-8,-1,-3
1558442125092268,1,0,2,7,5,8,7,3
1558442125100216,2,-1,4,7,12,4,5,2
1558442125100216,1,2,1,-2,1,1,2,0
1558442125114178,0,0,6,12,7,-1,-2,-1
1558442125114178,-3,-4,-8,-9,-10,-2,-6,-4
1558442125122156,-3,-2,2,-1,-3,1,-4,-1
1558442125122156,-4,-2,-8,-11,-10,-4,-11,-2
1558442125137116,1,-1,1,8,1,0,0,2
1558442125137116,1,-2,-7,-5,-5,-5,2,1
1558442125138113,2,3,12,17,19,22,20,6
1558442125138113,0,-3,-4,-5,-3,-12,-3,-2
1558442125152272,-1,0,3,-6,-5,0,-7,-2
1558442125152272,-1,-2,-8,-24,-8,0,0,-1
1558442125160090,-2,-3,-1,9,-4,-3,-6,0
1558442125160090,0,-1,-1,-4,1,-11,1,1
1558442125176011,1,-3,0,6,0,0,1,-1
1558442125176011,-3,-3,-1,-6,-9,-8,-7,-3
1558442125183174,0,1,3,5,3,-5,1,0
1558442125183174,-1,-1,-2,-2,-2,1,-8,-5
1558442125197954,-2,2,4,0,-6,1,-4,-1
1558442125197954,1,-1,-2,0,2,-13,-2,0
1558442125198966,-2,0,5,3,5,4,1,1
1558442125198966,-2,-5,-14,-6,-6,2,-3,-5
1558442125212107,-3,-1,-1,-7,1,3,-3,-2
1558442125212107,2,1,1,0,3,-1,3,0
1558442125218921,0,-1,-6,-2,-3,0,-3,-1
1558442125218921,-3,-3,-9,-11,-10,-6,-5,-4
1558442125234892,-2,-3,-3,-3,-2,5,3,-1
1558442125234892,-2,-1,6,10,2,-1,4,2
1558442125242884,-1,-2,-6,-7,4,-9,-5,-1
1558442125242884,-1,0,-2,-6,-8,6,2,-2
1558442125259792,-1,-4,-3,4,0,-2,-1,1
1558442125259792,-5,-3,-5,-7,-5,7,-4,-5
1558442125259792,0,-2,-3,-7,-2,-10,-3,0
1558442125259792,0,-2,9,12,5,4,0,2
1558442125271787,0,3,0,7,4,-1,0,0
1558442125271787,2,3,17,19,8,6,5,1
1558442125279772,-4,-5,-18,-28,-10,-5,-4,-6
1558442125279772,-1,0,-4,-3,1,-2,-6,-1
1558442125294728,-1,0,6,5,0,4,2,0
1558442125294728,-3,-1,-8,-1,-2,-2,-5,-2
1558442125302673,-1,0,7,6,-6,-7,-2,-1
1558442125302673,0,0,-8,-6,2,1,-4,0
1558442125317636,3,2,3,1,3,-4,6,0
1558442125317636,-2,-4,-4,-9,-2,1,-7,-4
1558442125318630,1,-1,5,3,5,5,7,2
1558442125318630,1,0,1,-2,4,7,3,1
1558442125331626,-4,-2,9,13,4,1,-7,-3
1558442125331626,-3,-3,-8,-8,-5,-2,-6,-2
1558442125339834,-3,0,-2,6,-3,-2,-4,-2
1558442125339834,-1,-1,-1,-3,-9,-8,1,0
1558442125354535,1,0,0,-3,2,0,0,-1
1558442125354535,1,1,5,5,0,-5,0,-1
1558442125362703,-3,-4,-6,-7,-12,6,-7,-5
1558442125362703,-1,-1,0,3,-1,5,3,-2
1558442125377624,4,6,5,9,22,-12,8,10
1558442125377624,2,1,12,-2,-5,-12,1,2
1558442125378472,-2,-5,-14,-10,-10,-4,-6,-3
1558442125378472,-2,-4,-6,-6,-7,-8,-5,-4
1558442125400599,-5,-7,-10,-4,-20,-1,-11,-8
1558442125400599,0,1,-2,-2,5,9,4,1
1558442125400599,1,1,5,13,9,-2,5,2
1558442125400599,-3,-2,-2,-1,-2,1,-2,-2
1558442125414679,0,0,-5,-11,5,15,5,2
1558442125414679,-2,-5,-12,-11,-10,-12,-2,-4
1558442125423138,1,2,5,15,3,9,0,0
1558442125423138,1,4,11,11,12,-3,6,4
1558442125446113,-1,-2,-7,-11,-5,-7,-3,-2
1558442125446113,-2,-1,-2,0,1,10,0,-2
1558442125447077,-1,-3,-2,-10,-1,-1,-3,-2
1558442125447077,-1,-1,3,7,-5,-11,-3,-2
1558442125452094,-1,0,-3,-3,0,5,3,-1
1558442125452094,-1,-2,-3,-3,-2,0,-7,-3
1558442125459046,0,0,1,3,7,1,3,1
1558442125459046,1,2,5,1,-1,-19,1,3
1558442125474008,-4,-5,-7,1,-10,-8,-2,-3
1558442125474008,-4,-7,-14,-9,-4,4,-3,-6
1558442125482983,-2,-4,-12,-17,-9,-6,-9,-3
1558442125482983,-2,-2,-4,-2,-1,6,-1,1
1558442125497985,4,4,9,2,3,-5,4,4
1558442125497985,0,2,4,6,12,15,9,2
1558442125497985,3,4,16,10,5,2,1,0
1558442125497985,-4,-6,-18,-10,-6,2,-5,-7
1558442125511902,-4,-5,0,4,-10,-4,-8,-7
1558442125511902,-4,-4,-8,-5,-13,-17,-8,-4
1558442125519883,1,1,-4,-11,-3,2,5,0
1558442125519883,-1,-1,2,3,10,1,5,3
1558442125534842,0,1,6,3,1,-4,-4,0
1558442125534842,-1,0,-5,-6,-8,3,-4,0
1558442125542821,-4,-1,2,5,-2,3,-1,-5
1558442125542821,2,3,5,7,7,10,4,2
1558442125557781,-1,-1,-8,-11,-5,-21,-4,0
1558442125557781,0,0,5,5,1,-7,-2,-1
1558442125557781,1,0,0,-2,-3,-4,-2,0
1558442125557781,-2,1,-1,-4,5,19,2,-1
1558442125571743,-2,0,-4,-7,1,0,-1,-1
1558442125571743,-1,0,2,0,-3,-5,-2,0
1558442125579722,-3,-4,-4,-2,-15,-7,-16,-6
1558442125579722,-2,-3,-1,-6,0,9,4,-2
1558442125594683,5,6,12,7,19,-2,12,7
1558442125594683,5,4,21,34,16,3,7,4
1558442125602678,-4,-8,-31,-51,-14,1,-2,-4
1558442125602678,-4,-6,-10,-3,-14,-15,-15,-7
1558442125616867,-2,-1,-3,-8,-12,13,-1,-5
1558442125616867,2,3,19,24,6,-6,1,-1
1558442125625666,1,0,-12,-2,9,0,6,3
1558442125625666,-1,-2,-3,-5,-7,-16,-4,0
1558442125631762,-4,-2,3,13,3,10,3,-2
1558442125631762,0,-1,-13,-35,-6,-3,-5,3
1558442125639573,-1,1,12,22,-1,-7,-6,-3
1558442125639573,-1,-2,-6,-7,1,11,4,-3
1558442125654523,-1,-5,-9,-7,-8,-2,-9,-5
1558442125654523,-2,-1,0,4,3,10,5,-1
1558442125662501,0,-1,4,7,5,-3,4,2
1558442125662501,0,0,4,1,1,-10,-5,0
1558442125677463,-1,0,-1,-4,-2,5,0,-1
1558442125677463,-2,-2,-8,-10,-6,-6,-5,-5
1558442125685476,-2,-1,18,14,-3,1,-3,-4
1558442125685476,-5,-7,-20,-22,-13,-12,-12,-6
1558442125693419,2,2,10,9,10,10,9,5
1558442125693419,1,-2,-12,-4,-8,-14,-3,3
1558442125699403,-2,-1,-2,-9,4,-8,3,2
1558442125699403,0,0,13,13,0,1,-4,-3
1558442125714363,-3,-6,-12,-9,-15,-5,-10,-6
1558442125714363,-3,-2,-1,-4,1,2,-2,-2
1558442125722342,1,0,6,11,5,3,4,1
1558442125722342,-1,1,3,0,5,5,4,4
1558442125737307,-2,0,-5,-7,6,1,-1,-1
1558442125737307,-2,2,8,8,-1,-4,1,-3
1558442125745280,-2,-3,-13,-8,-8,-5,-9,-5
1558442125745280,3,2,5,1,-3,-6,1,0
1558442125752268,1,-2,4,13,3,-9,-3,2
1558442125752268,-1,-3,-10,-18,1,-10,3,1
1558442125759242,2,1,-1,-9,0,0,2,0
1558442125759242,-2,1,9,14,9,15,7,0
1558442125774202,-3,-1,-9,-14,-5,-3,-11,-4
1558442125774202,0,-2,0,10,-4,6,0,0
1558442125782247,-1,-3,-5,-6,-1,-8,-2,1
1558442125782247,0,-2,0,-7,-9,-6,-4,-7
1558442125797150,1,1,7,12,6,9,7,2
1558442125797150,0,1,2,-3,6,5,5,-1
1558442125805119,-1,0,-10,2,-3,6,1,-3
1558442125805119,-1,-1,-2,-7,-2,-3,-3,0
1558442125820081,-4,-2,-7,0,-6,-5,-7,-5
1558442125820081,2,-1,-2,-5,3,8,1,4
1558442125821078,0,3,14,24,9,-1,1,3
1558442125821078,2,1,-2,-6,3,4,2,1
1558442125834271,-2,-6,-11,-13,-9,-2,-3,-4
1558442125834271,0,-5,-2,5,-11,-12,-4,1
1558442125843018,-2,-1,-7,-11,-2,-1,-2,-1
1558442125843018,0,0,3,11,4,5,5,3
1558442125856980,0,3,3,-7,-3,-6,-1,-2
1558442125856980,-2,-2,-7,-9,3,-4,-4,-4
1558442125865206,0,0,6,3,1,-1,2,1
1558442125865206,1,0,-7,-9,-3,-8,0,-1
1558442125879921,-2,-2,1,5,-2,2,0,-2
1558442125879921,-1,1,3,5,2,8,-1,-2
1558442125880918,-1,-3,1,-11,-3,7,1,-1
1558442125880918,0,2,-6,3,12,5,10,6
1558442125902861,-1,-2,4,-4,-3,-10,-1,0
1558442125902861,0,0,-2,1,1,7,-1,-1
1558442125903858,-2,-2,2,2,-4,-1,-4,-4
1558442125903858,-3,-4,-13,-7,-11,-6,-7,-5
1558442125916823,1,1,8,4,12,9,4,1
1558442125916823,-4,-4,-7,-1,-9,2,-6,-4
1558442125924800,1,-1,4,7,-1,-8,-2,-3
1558442125924800,0,1,-1,3,-1,-6,0,3
1558442125940762,-2,1,0,-6,-4,-3,-3,-1
1558442125940762,0,0,-1,4,0,-4,-1,-1
1558442125943749,0,0,0,2,1,6,2,-1
1558442125943749,-4,-2,3,3,-1,6,-1,-1
1558442125954719,-1,-2,0,-1,-3,0,-4,-3
1558442125954719,-2,0,-3,0,-3,2,0,-2
1558442125969681,2,2,-6,-10,3,-12,-1,2
1558442125969681,1,1,8,3,2,-1,-5,-3
1558442125976661,3,0,-8,-2,-1,2,4,1
1558442125976661,-6,-10,-13,-26,-11,-17,-5,-5
1558442125984638,-2,1,4,5,-1,8,3,2
1558442125984638,1,0,1,0,2,-12,3,2
1558442125999599,-1,0,6,8,0,-11,-6,2
1558442125999599,1,0,5,5,5,10,3,-2
1558442126000603,0,-3,-4,0,0,-1,-3,-3
1558442126000603,-1,-1,7,7,-5,-2,-5,-3
1558442126014558,-1,-2,-2,-3,2,-3,3,2
1558442126014558,0,0,-5,-1,1,6,4,1
1558442126022674,-1,-1,-1,4,0,-5,-3,-1
1558442126022674,-2,0,2,-13,0,7,-3,-3
1558442126036506,-4,-6,-14,-12,-1,1,-4,-4
1558442126036506,2,0,1,4,-4,-7,-2,1
1558442126045770,-2,-3,0,0,-8,3,-9,-5
1558442126045770,-3,-1,2,12,-2,0,1,-1
1558442126060436,5,7,3,3,21,5,6,4
1558442126060436,-2,-3,-9,-17,-10,-3,-3,-1
1558442126060436,-1,0,2,7,1,-5,2,0
1558442126060436,-5,-2,-5,-11,-15,-9,-9,-6
1558442126074537,2,0,10,10,-1,4,0,1
1558442126074537,-1,1,7,11,7,-3,-2,0
1558442126082515,0,-1,-1,0,8,15,11,1
1558442126082515,0,-1,2,3,4,1,-1,-1
1558442126097337,-2,-3,-12,-12,-9,-5,-1,-2
1558442126097337,-1,-2,2,2,-5,-13,-6,-2
1558442126105316,-3,-2,-2,-2,-8,-9,-3,-2
1558442126105316,3,2,2,1,9,-8,4,3
1558442126120283,-3,-2,1,0,-1,1,-4,-3
1558442126120283,-4,-3,-10,-10,1,13,1,0
1558442126120283,-1,3,2,2,-1,0,-4,-1
1558442126120283,-3,-2,-3,-4,-8,-3,-6,-3
1558442126134238,-3,-6,-11,-6,-3,-5,-2,0
1558442126134238,0,0,17,3,5,-10,-2,-1
1558442126143290,-2,-5,-17,-23,-2,5,5,-1
1558442126143290,2,2,5,11,5,9,3,2
1558442126157177,-5,-6,-16,-18,-17,-8,-14,-7
1558442126157177,-1,2,8,6,-3,4,1,-4
1558442126165155,-5,-3,-9,-4,3,4,-4,-3
1558442126165155,2,-1,-6,-5,2,0,6,2
1558442126180117,2,4,12,10,2,-9,3,0
1558442126180117,-4,-5,-20,-29,-11,-4,-4,-2
1558442126181113,2,0,4,6,0,-10,0,0
1558442126181113,0,-1,-3,-3,8,7,-3,-5
1558442126194080,1,0,2,-3,-11,-3,-6,-3
1558442126194080,4,2,4,6,4,-1,1,1
1558442126203056,-2,-2,1,3,-7,-4,-7,-4
1558442126203056,-3,-4,-4,-4,1,7,-1,0
1558442126217019,-2,0,1,5,5,3,3,2
1558442126217019,-2,0,-1,2,1,-3,-1,-1
1558442126224995,-2,-1,-1,-4,-5,-9,-5,-3
1558442126224995,0,-2,-1,3,0,10,1,-1
1558442126247937,-3,-2,-5,-4,-2,-4,1,-2
1558442126247937,1,1,2,4,7,-2,5,2
1558442126248933,0,2,2,2,-1,-1,2,1
1558442126248933,-1,0,-3,-7,-2,0,-2,-3
1558442126253919,2,4,27,25,13,6,0,-1
1558442126253919,-5,-10,-32,-20,-15,-6,-9,-6
1558442126262895,1,1,0,-2,5,5,5,2
1558442126262895,-3,-3,-8,-21,-6,-6,-6,2
1558442126276859,-1,-4,-4,2,-5,15,4,0
1558442126276859,2,3,19,18,5,3,1,0
1558442126284886,2,2,3,3,2,-12,2,2
1558442126284886,-2,-1,-2,3,2,1,1,0
1558442126299801,0,0,3,1,2,3,3,-1
1558442126299801,-1,-2,5,-2,-8,0,-3,-3
1558442126300799,-5,-6,-7,-6,-4,10,0,-2
1558442126300799,2,2,13,20,12,-10,6,2
1558442126314866,-1,-2,-15,-21,-9,-6,-4,-2
1558442126314866,-1,-1,-2,3,-1,5,-2,-2
1558442126322735,-1,0,2,-1,-6,-12,-4,-3
1558442126322735,-1,-2,-3,-2,-1,-6,1,0
1558442126336701,-2,-2,-4,-4,0,9,1,-2
1558442126336701,0,-2,-1,-3,-2,-5,-3,-1
1558442126345771,0,0,-1,0,5,9,-1,0
1558442126345771,-3,-2,-2,-4,-12,-11,-7,-5
1558442126359647,0,-2,-3,-2,4,1,7,2
1558442126359647,-1,2,11,17,17,9,6,-1
1558442126360634,1,-2,1,-15,-7,1,-1,-1
1558442126360634,-1,-2,-11,-6,-15,-8,-1,0
1558442126374597,-3,-2,-3,-1,-9,-8,-6,-3
1558442126374597,2,1,-6,-9,1,0,0,0
1558442126382575,0,-1,4,9,8,2,1,0
1558442126382575,2,2,5,3,12,9,3,3
1558442126396538,-3,-3,4,-1,-7,-2,-7,-4
1558442126396538,-1,-1,-2,10,-1,0,1,-2
1558442126405532,-2,-3,-2,3,-4,2,-6,-3
1558442126405532,0,1,2,-4,-2,-2,-3,-2
1558442126420475,0,-1,1,7,-1,-14,-2,1
1558442126420475,-1,-1,-2,0,2,8,0,0
1558442126420475,-1,-2,-2,-1,0,5,0,-1
1558442126420475,-2,-3,-5,-2,-5,-1,-4,-5
1558442126434443,0,-2,-6,-10,-2,2,1,-1
1558442126434443,-2,-3,-5,-5,0,-4,-1,-1
1558442126443412,1,2,7,8,0,-5,2,0
1558442126443412,-2,-4,-2,-1,1,-6,-2,-1
1558442126457374,-6,-6,-12,-10,-11,-3,-7,-4
1558442126457374,-1,-1,3,-3,-7,-2,-4,-1
1558442126465354,2,1,-14,-2,12,6,12,6
1558442126465354,-1,2,6,0,-1,-9,-4,-3
1558442126480315,0,1,3,0,9,13,4,2
1558442126480315,-1,-1,-2,10,1,-7,-1,3
1558442126480315,1,0,10,6,3,-3,-3,0
1558442126480315,-3,-4,-14,-21,-9,5,-5,-4
1558442126494276,0,2,10,13,-4,-4,-1,-1
1558442126494276,-3,-3,-19,-23,-5,-2,-6,-3
1558442126503258,0,-1,-3,-4,-3,-4,1,0
1558442126503258,-1,-1,5,9,0,-5,-1,-2
1558442126517234,0,2,5,3,9,4,3,0
1558442126517234,-1,-2,6,6,-1,-9,2,2
1558442126525194,-1,1,1,-4,-11,-7,-5,-3
1558442126525194,-3,-4,-14,-10,-8,3,-1,-3
1558442126539156,2,2,8,5,13,0,5,2
1558442126539156,-2,0,-6,-10,-5,-4,-5,-1
1558442126547135,-2,-6,-8,-2,-7,3,-2,-4
1558442126547135,0,2,15,19,-3,-5,-2,0
1558442126554119,-1,-2,-16,-21,6,6,-1,-2
1558442126554119,0,5,16,8,3,4,6,1
1558442126570091,-3,-3,-17,-14,-8,-11,-5,-2
1558442126570091,1,1,4,1,6,2,3,3
1558442126577055,-3,-4,-2,1,-10,-5,-9,-3
1558442126577055,0,-2,3,0,3,2,-1,1
1558442126585034,-2,-1,0,-3,-3,1,-2,-1
1558442126585034,-4,-2,1,3,-2,7,-1,-3
1558442126598996,-1,-1,-3,3,-1,-7,0,1
1558442126598996,2,0,1,-3,-1,-13,-1,1
1558442126607972,-1,-1,2,4,3,-1,1,0
1558442126607972,1,-3,-9,-15,2,4,0,0
1558442126613956,-1,-3,4,3,-4,0,2,-1
1558442126613956,0,-2,-1,0,3,5,-1,-1
1558442126622932,0,0,4,-7,-3,-3,-3,-1
1558442126622932,0,-1,0,14,-13,-12,-5,-3
1558442126636894,-3,-5,-23,-41,-12,4,4,-2
1558442126636894,1,0,7,2,-1,3,7,2
1558442126644873,2,3,10,17,14,-5,4,4
1558442126644873,0,-1,-12,-10,4,9,3,0
1558442126658837,-2,1,4,9,-4,-6,-5,-1
1558442126658837,-2,-4,2,-3,-6,-2,-8,-5
1558442126667812,-3,-3,-8,-10,-4,9,-3,-3
1558442126667812,-1,-3,3,4,0,-7,-1,1
1558442126674793,1,0,-1,2,-3,-5,-1,-3
1558442126674793,-3,-3,-6,-6,-10,-4,-7,-4
1558442126682773,-2,1,-1,6,6,13,3,1
1558442126682773,4,6,17,15,16,7,7,6
1558442126696734,-1,-3,-20,-16,7,-6,-3,2
1558442126696734,-2,-7,-13,-19,-11,-10,-3,-2
1558442126704714,-1,-3,3,6,-5,3,-3,-3
1558442126704714,-5,-3,-6,-15,-4,4,-2,-5
1558442126719678,-1,1,9,11,-6,-5,-3,-4
1558442126719678,-1,2,5,8,2,-2,-4,-3
1558442126727652,-2,-5,-9,-14,-9,0,3,-2
1558442126727652,-1,-1,0,0,5,-16,-1,1
1558442126743609,2,1,2,8,12,16,5,2
1558442126743609,-2,0,1,5,-2,-3,-2,0
1558442126743609,-2,-2,-6,-13,-10,-7,-10,-5
1558442126743609,-2,-2,-5,-1,-4,-3,-1,0
1558442126756574,0,-1,7,4,-8,-5,-2,-2
1558442126756574,1,1,-7,-3,6,11,1,0
1558442126764555,-2,-2,-3,3,-4,-13,-4,0
1558442126764555,0,0,-1,-3,0,6,1,1
1558442126779513,-4,-5,-6,-10,-6,-15,-5,-3
1558442126779513,-1,-1,5,6,5,10,4,0
1558442126787492,2,2,5,4,8,0,2,-1
1558442126787492,0,-1,-6,-7,-4,-3,-1,-2
1558442126803450,-4,-4,-8,-7,-5,-3,-7,-2
1558442126803450,-4,-3,-4,4,-5,-2,0,-4
1558442126803450,0,0,0,-8,-1,-14,-7,-1
1558442126803450,0,1,0,8,6,8,5,0
1558442126816420,1,4,12,10,13,14,7,2
1558442126816420,1,1,-6,-2,2,-9,-1,1
1558442126825390,1,0,4,7,-1,0,0,1
1558442126825390,-1,-2,4,-2,0,1,-3,-2
1558442126839353,-2,0,-1,1,-6,-3,-10,-4
1558442126839353,-1,-2,-6,-3,-4,-3,-3,0
1558442126847331,0,1,3,4,-3,-5,0,0
1558442126847331,-1,-2,-2,-6,-8,-7,-5,-3
1558442126863297,2,0,5,5,4,9,2,0
1558442126863297,0,2,6,7,9,4,0,-3
1558442126864287,-5,-5,-13,-19,-13,-3,-6,-3
1558442126864287,0,-2,6,3,-8,1,-7,-4
1558442126877252,-2,-3,-20,-4,5,-11,4,3
1558442126877252,3,2,4,7,11,-12,9,6
1558442126885229,-3,0,2,10,5,11,4,-1
1558442126885229,-1,0,-8,-13,-6,3,-1,-2
1558442126908169,2,2,16,16,4,5,5,0
1558442126908169,-3,-6,-20,-37,-12,0,-6,-1
1558442126909166,-1,1,3,10,10,0,1,1
1558442126909166,-1,0,-3,-1,-9,-7,-6,-1
1558442126923128,0,-2,6,7,-4,6,1,-1
1558442126923128,-1,0,-2,-5,-1,-9,1,-2
1558442126924126,-2,-1,-2,0,-2,5,0,-3
1558442126924126,-1,-4,-4,-5,-2,-2,-2,-2
1558442126937092,1,-1,3,1,-2,-2,-4,-1
1558442126937092,3,3,3,2,3,17,2,-1
1558442126945070,-2,-3,-9,-15,-6,-5,-5,-1
1558442126945070,-1,-2,2,4,8,-4,6,4
