timestamp,emg1,emg2,emg3,emg4,emg5,emg6,emg7,emg8
1558442065292103,-3,-4,-1,-18,-9,-12,-4,-1
1558442065292103,0,2,-9,0,1,7,7,0
1558442065293101,-4,-3,0,-4,-3,-2,-7,-4
1558442065293101,1,-2,0,-1,-2,1,-2,0
1558442065294099,1,-2,-3,-2,-3,2,-4,-5
1558442065294099,-3,-2,1,9,5,-3,0,-1
1558442065297090,1,2,-1,-13,6,4,4,4
1558442065297090,-4,-2,-4,0,-6,2,3,-3
1558442065305069,0,3,6,9,2,-2,-4,-2
1558442065305069,-2,-4,-3,-4,-10,-3,-3,-5
1558442065313047,2,0,-6,-11,0,-8,-2,-1
1558442065313047,-2,-2,3,2,8,-4,-4,-2
1558442065319031,1,1,-5,-2,0,7,6,0
1558442065319031,-4,-5,-9,-21,-10,-8,-8,-2
1558442065335987,-3,-1,10,16,-2,5,2,-3
1558442065335987,1,0,-2,-2,-3,2,-3,-1
1558442065342967,-1,-1,-2,-10,-1,-12,-6,-1
1558442065342967,0,-2,-1,5,2,4,4,3
1558442065374881,-5,-6,-7,-2,-13,-19,-4,-2
1558442065374881,-1,0,5,-1,-4,-5,-2,-2
1558442065376880,0,2,8,17,15,11,1,-2
1558442065376880,1,2,3,7,0,6,2,1
1558442065378871,1,-1,0,10,9,9,1,-1
1558442065378871,-4,-4,-9,-13,-9,-16,-2,-2
1558442065379869,-3,1,5,6,-1,-9,-4,-2
1558442065379869,-3,0,1,-5,-12,0,-4,-4
1558442065417768,0,2,0,-6,0,-7,0,1
1558442065417768,0,0,3,3,0,-1,-6,-2
1558442065425747,-2,-2,0,0,-7,-4,-2,-3
1558442065425747,-2,-2,-5,-3,4,1,3,4
1558442065426744,-1,-1,-4,-8,-5,-6,-4,-5
1558442065426744,-1,-1,0,0,-1,7,-3,-3
1558442065427740,-1,-3,1,-1,4,5,-2,-3
1558442065427740,-1,-1,-2,-6,-1,-6,0,1
1558442065438713,-1,0,4,20,0,-12,4,2
1558442065438713,0,0,-3,-12,-4,-4,-2,-2
1558442065447687,-2,-2,-1,1,3,3,-1,-2
1558442065447687,1,-1,7,10,-3,5,0,-2
1558442065453671,-1,-2,-11,-5,4,-2,-3,-2
1558442065453671,-4,-1,11,16,0,4,3,0
1558442065468631,0,3,10,4,6,1,0,0
1558442065468631,0,-2,-8,-11,-1,0,-1,-2
1558442065485585,-2,-5,-20,-20,-16,-1,-8,-6
1558442065485585,0,-2,3,-5,2,-3,0,2
1558442065486583,1,0,2,1,8,-4,6,5
1558442065486583,-3,0,6,7,0,-4,-8,-4
1558442065498553,-4,-3,-5,-9,-3,8,3,-3
1558442065498553,-3,-2,-7,-1,-7,-3,-3,-2
1558442065507528,0,1,-6,-3,0,4,-1,1
1558442065507528,-1,-1,-2,-2,-2,0,-1,-1
1558442065513512,-2,-3,1,2,-2,3,-5,-3
1558442065513512,3,4,8,5,8,-4,3,2
1558442065528472,-1,-3,-15,-10,-9,-2,2,-2
1558442065528472,0,-1,5,10,4,2,-1,-1
1558442065536449,-1,1,8,8,2,7,-3,0
1558442065536449,-1,-1,-10,-24,-8,1,-6,-4
1558442065545426,1,3,7,11,10,-1,6,0
1558442065545426,-3,-2,-8,-16,-14,-3,-3,-2
1558442065567367,3,1,-1,6,1,2,-1,1
1558442065567367,-4,-2,1,6,2,2,-1,0
1558442065569362,-1,-1,-1,-2,-8,-3,0,-2
1558442065569362,-3,-3,-12,-6,-4,-9,-8,-1
1558442065574348,2,4,15,14,10,0,7,4
1558442065574348,-3,-3,-15,-18,-6,-1,-4,-3
1558442065589310,0,1,5,13,4,4,-2,1
1558442065589310,-1,-3,-10,-15,-12,2,0,-3
1558442065596290,0,-1,12,10,-2,-18,-6,-2
1558442065596290,1,-2,-2,1,4,-5,1,1
1558442065605265,2,0,3,-1,1,1,1,-2
1558442065605265,-3,0,1,0,3,-7,-3,-1
1558442065619228,-1,0,-4,-7,6,14,7,2
1558442065619228,-2,1,3,4,-10,-4,2,-4
1558442065628204,-3,-3,-3,-4,-7,-1,-3,-2
1558442065628204,0,-1,-4,13,7,-5,-5,-1
1558442065634189,-1,-3,-8,-15,-8,-2,5,1
1558442065634189,1,2,1,-4,0,-8,5,3
1558442065649149,-2,1,9,17,9,13,-1,-1
1558442065649149,1,1,0,-14,-9,1,3,0
1558442065656129,-2,-1,-2,3,10,0,-2,0
1558442065656129,-1,-5,-6,-1,-5,-4,-4,-1
1558442065665105,-3,-6,-11,-23,-16,-11,-6,-4
1558442065665105,-1,0,1,6,3,5,5,4
1558442065679068,-1,1,20,18,8,8,-1,-2
1558442065679068,2,-1,-10,-9,1,-2,0,2
1558442065688043,-4,-2,-3,3,-6,-11,-8,-5
1558442065688043,0,-1,0,1,6,9,4,0
1558442065694030,0,0,-3,-4,-8,4,2,-1
1558442065694030,-1,0,12,23,3,-6,0,-1
1558442065708987,1,0,6,4,6,-4,0,0
1558442065708987,-4,1,-3,-2,-4,-1,-5,-3
1558442065715969,-4,-4,-5,-2,-13,-12,-6,-4
1558442065715969,-1,1,-1,1,9,18,14,0
1558442065730929,2,0,-5,1,4,-5,-2,4
1558442065730929,-1,-2,13,13,0,-8,-2,-2
1558442065738908,1,0,-11,-28,-7,-4,-5,-1
1558442065738908,-1,-2,-4,-7,-5,-1,-3,-3
1558442065754865,1,-1,7,3,3,-2,2,2
1558442065754865,0,-1,-7,-5,1,-4,-4,0
1558442065754865,1,-1,10,12,5,0,6,2
1558442065754865,-2,2,-4,-10,-8,-3,-9,-4
1558442065768830,-2,-6,-14,-20,-11,2,2,-1
1558442065768830,3,2,8,6,10,3,2,0
1558442065776808,-4,-4,5,9,-7,-4,-5,-3
1558442065776808,0,-4,-3,-9,-2,-4,0,-3
1558442065791767,-1,1,6,11,5,6,-3,-1
1558442065791767,-2,-1,-2,-1,-1,-4,-1,-2
1558442065798748,-1,-1,-2,-8,2,6,0,1
1558442065798748,-2,-2,0,5,-1,-3,-1,1
1558442065807723,-2,0,-6,-12,-12,-10,-12,-3
1558442065807723,2,-1,-3,4,0,3,2,2
1558442065813717,0,2,0,0,7,1,2,-3
1558442065813717,-3,-3,-1,-3,0,0,-3,-1
1558442065828669,0,2,1,2,-7,-4,0,-2
1558442065828669,0,-2,-2,2,-8,-4,0,-3
1558442065836648,1,0,-10,-8,6,11,-1,1
1558442065836648,3,-2,-1,-5,1,1,2,3
1558442065852604,-4,-4,0,0,-1,-5,-3,-2
1558442065852604,-3,-3,-5,-9,-6,3,0,-3
1558442065858589,-1,-1,-1,-2,2,-16,-5,-1
1558442065858589,-3,-2,-7,-5,-3,9,-5,-3
1558442065867563,1,2,9,6,2,4,3,3
1558442065867563,-1,-2,-10,-13,-11,-4,-2,-4
1558442065873548,0,-1,-8,2,4,5,-3,-1
1558442065873548,-6,-5,-4,-16,-9,-9,-1,-4
1558442065889506,2,2,7,3,8,6,7,3
1558442065889506,-2,-2,-5,8,4,-9,0,-1
1558442065896487,-4,-6,-12,-14,-12,-5,-7,-4
1558442065896487,4,1,4,5,3,-3,-1,-1
1558442065911447,-2,-5,-15,-11,-11,4,-1,-7
1558442065911447,-1,-2,3,-4,-2,1,0,2
1558442065918432,-1,0,8,9,7,6,4,1
1558442065918432,-2,-1,1,6,6,1,0,2
1558442065927405,-3,0,-8,-15,-6,-9,-6,-4
1558442065927405,-1,2,11,7,2,1,5,-3
1558442065933388,-2,-4,-16,-30,-4,-10,-2,-1
1558442065933388,0,0,5,17,-5,1,-1,1
1558442065950354,0,1,1,-6,2,3,1,-3
1558442065950354,-2,-4,-14,-9,-2,5,-4,-4
1558442065956326,-2,0,3,-2,-8,-3,0,-3
1558442065956326,2,-2,2,6,4,-3,4,2
1558442065971287,-1,-1,-3,-6,4,-6,-1,2
1558442065971287,1,2,3,1,3,-1,2,2
1558442065979265,0,0,6,-2,-2,1,-4,-4
1558442065979265,-2,-1,-8,-4,-7,1,-9,-7
1558442065988242,-4,-3,-8,-5,-5,-11,-3,-2
1558442065988242,-1,-1,10,6,8,5,1,-1
1558442065994225,-1,1,4,16,3,8,1,3
1558442065994225,0,2,-4,-9,2,-5,6,3
1558442066009185,0,-2,-4,-2,-1,0,-4,0
1558442066009185,-1,-1,-4,-7,-7,-13,-4,0
1558442066016166,-2,-4,-5,-1,-9,-9,-5,-3
1558442066016166,-3,-2,4,7,-7,2,-7,-4
1558442066031127,3,1,2,11,9,4,5,2
1558442066031127,2,3,5,-6,8,4,3,2
1558442066039105,-3,-3,1,1,-3,-1,0,-2
1558442066039105,-2,-1,-5,-3,4,-2,-5,0
1558442066048080,-4,-2,0,-3,-9,-2,-1,-6
1558442066048080,3,3,11,20,8,10,0,2
1558442066070023,-3,-3,-9,-24,-10,-3,1,-3
1558442066070023,-1,1,-2,-1,1,2,0,0
1558442066072018,1,2,5,8,5,1,1,2
1558442066072018,-1,1,3,11,4,5,-3,-4
1558442066076007,0,-1,7,8,-3,2,1,3
1558442066076007,-3,-3,-1,-3,-3,-1,-7,-2
1558442066090966,1,-4,-11,-9,1,3,4,3
1558442066090966,-1,1,8,4,0,-2,-2,-3
1558442066098945,-3,-3,-17,-9,-10,-9,-6,-2
1558442066098945,1,1,9,6,3,-7,-3,-1
1558442066107922,-3,-2,0,2,-2,2,1,-2
1558442066107922,-3,-6,-11,-10,-10,-2,-3,-3
1558442066121884,1,1,5,-13,3,-3,4,3
1558442066121884,0,-2,-9,-2,0,6,3,0
1558442066128865,-2,-1,-3,-5,-13,-12,-12,-4
1558442066128865,0,0,-7,-14,-1,-1,2,2
1558442066144823,0,3,11,18,9,7,5,-1
1558442066144823,0,0,1,4,7,4,6,2
1558442066151804,-1,0,-2,-8,-6,-3,-5,-4
1558442066151804,-2,-4,-1,-4,-13,-1,-11,-6
1558442066158785,1,-2,-7,3,-2,-12,-2,0
1558442066158785,-1,-2,-1,-4,-2,-11,2,-3
1558442066167761,-3,-3,-7,-6,-2,1,-7,-2
1558442066167761,-2,0,8,11,4,-3,-2,-3
1558442066181724,-2,-1,-4,-7,1,3,-3,0
1558442066181724,1,0,-5,-3,0,6,5,2
1558442066188705,2,1,8,-5,4,-3,1,1
1558442066188705,-3,-3,2,0,-9,-4,-2,-3
1558442066196684,-1,-1,0,-8,2,5,-2,0
1558442066196684,-1,-3,-1,8,-6,-6,-4,0
1558442066211644,0,-1,-9,-14,4,-3,6,5
1558442066211644,0,-3,-3,0,0,-5,-2,1
1558442066218626,2,1,4,-3,-6,-7,-4,-2
1558442066218626,-3,-2,-2,-2,-2,8,-1,-2
1558442066227603,-1,-1,3,15,3,-2,2,0
1558442066227603,0,-2,-14,-29,-4,-10,0,1
1558442066241566,-4,-4,-7,3,1,0,-3,-2
1558442066241566,3,3,2,7,8,5,3,2
1558442066250541,-4,-4,-1,-6,-11,-1,-3,-4
1558442066250541,-1,0,-7,2,-1,2,4,0
1558442066256523,1,0,6,10,4,-7,-4,-1
1558442066256523,-1,-3,-6,-17,-10,-2,-2,-3
1558442066279462,-2,0,0,9,1,5,-3,-3
1558442066279462,1,1,12,9,5,1,0,5
1558442066280460,2,-1,-17,-6,6,12,17,4
1558442066280460,-3,-3,2,3,5,-1,-1,-3
1558442066287441,-1,-2,-7,-9,-5,0,-5,-1
1558442066287441,-4,-5,-16,-17,-19,-13,-2,-4
1558442066301404,-1,1,6,-1,5,5,0,-1
1558442066301404,-1,1,5,4,-1,2,-3,0
1558442066310380,0,0,3,11,4,4,5,3
1558442066310380,-2,-3,-1,-3,1,0,-4,-1
1558442066316364,1,-1,-2,-3,-9,-8,-2,-1
1558442066316364,-2,0,0,-3,-2,-6,-2,-1
1558442066331324,-1,0,-2,-1,3,-2,-3,1
1558442066331324,-1,0,0,-3,-3,-2,-1,0
1558442066339303,-3,-1,1,3,1,5,0,-2
1558442066339303,1,-1,-1,-1,1,7,3,0
1558442066348278,0,0,1,-3,-3,-5,-2,-2
1558442066348278,1,-1,1,0,6,6,1,-1
1558442066361243,1,0,19,35,7,-5,-8,-3
1558442066361243,-1,-3,-28,-40,-13,1,7,3
1558442066370219,-3,0,-7,-18,-15,-17,-1,-3
1558442066370219,-4,-2,-1,2,4,9,1,-2
1558442066376204,-1,-2,8,3,-3,-4,-6,1
1558442066376204,0,1,7,13,6,0,-3,-7
1558442066391162,1,2,7,8,5,-4,-3,-1
1558442066391162,-4,-1,-8,-6,-3,1,-3,-6
1558442066399142,-3,0,-5,-15,-6,-7,-2,-1
1558442066399142,1,0,10,15,12,-1,1,4
1558442066414102,0,1,-2,2,13,17,6,2
1558442066414102,-1,-2,1,3,-2,2,-4,-3
1558442066421084,0,-3,-11,-7,-7,4,1,-1
1558442066421084,-1,-2,6,0,-6,-17,-11,-4
1558442066437041,-1,-2,-1,3,6,8,2,0
1558442066437041,0,2,8,3,3,-9,-4,-3
1558442066438038,2,5,-6,1,11,18,7,3
1558442066438038,-4,-1,-6,-9,-11,-8,1,0
1558442066451004,3,2,9,11,-3,-5,-1,-1
1558442066451004,0,-5,-5,-2,0,6,-2,-4
1558442066458981,-1,-3,-6,-11,-15,-2,-2,-2
1558442066458981,0,1,6,7,7,-8,3,1
1558442066473942,0,-1,-2,5,2,-2,0,-1
1558442066473942,1,1,1,-5,0,-11,0,3
1558442066480923,-5,-5,-14,-3,-7,1,-7,-9
1558442066480923,-3,-4,0,-12,-13,4,-8,-3
1558442066496881,-1,-4,2,-4,0,-1,-5,-1
1558442066496881,0,0,-1,12,-5,-8,0,2
1558442066497879,-2,-2,5,10,10,-2,-1,-2
1558442066497879,-1,1,-1,-12,-12,2,-2,-3
1558442066511841,-4,-4,-14,-8,-15,-3,-3,-4
1558442066511841,1,5,10,-1,14,6,10,5
1558442066518821,0,1,-4,-1,2,-13,-4,2
1558442066518821,0,-1,-2,6,-1,-6,-5,-3
1558442066533782,1,-2,3,7,-4,-1,-4,0
1558442066533782,-1,-3,-7,-17,-6,2,-4,-4
1558442066541767,1,-1,-4,-5,-6,-6,3,3
1558442066541767,-1,-2,5,9,6,-1,1,-1
1558442066573681,0,1,0,-5,3,9,3,2
1558442066573681,-1,1,1,0,-6,0,-6,-5
1558442066573681,0,-1,4,1,0,-2,-2,-1
1558442066573681,-2,-5,-4,-5,-4,-2,-4,-2
1558442066575674,1,0,5,4,4,0,4,1
1558442066575674,-1,-2,-6,-3,1,6,0,1
1558442066578664,-1,-3,7,-7,-9,-5,-7,-6
1558442066578664,-2,-3,-3,11,3,-5,-5,-3
1558442066594622,-4,-3,-7,7,-4,2,2,1
1558442066594622,-1,-3,-9,-15,3,4,2,-2
1558442066601602,1,4,7,1,11,0,1,0
1558442066601602,0,2,0,7,-3,-9,0,2
1558442066617621,-1,-1,1,-2,1,0,-5,-6
1558442066617621,-2,-4,4,8,-7,-3,-3,-3
1558442066617621,-1,-1,-2,6,-2,-1,-6,-2
1558442066617621,-2,-2,-15,-19,-2,9,0,-1
1558442066632520,-3,-4,6,0,-1,-9,-2,-1
1558442066632520,2,2,0,12,13,-7,13,11
1558442066638504,0,-2,3,0,1,9,2,-6
1558442066638504,-1,0,3,4,-2,0,-4,-4
1558442066653467,-1,-2,1,-2,-6,2,-2,-2
1558442066653467,1,0,-5,-9,-1,-1,-2,0
1558442066669419,0,-3,-5,3,-4,2,0,1
1558442066669419,2,3,5,6,6,7,3,-1
1558442066677398,0,-3,-6,-11,5,-1,4,1
1558442066677398,-1,-2,3,-3,-2,-6,-4,0
1558442066677398,-2,-3,-10,-1,-6,-10,-5,0
1558442066677398,0,0,4,-5,-5,5,-2,-3
1558442066691360,-1,0,1,5,7,3,-2,0
1558442066691360,-3,-2,0,5,-3,4,-3,-2
1558442066699339,1,-2,3,-7,-4,-15,0,0
1558442066699339,3,1,-2,0,11,-2,9,6
1558442066722278,-3,-3,-14,-10,-8,2,-7,-3
1558442066722278,-2,-2,0,2,-7,-1,-3,-5
1558442066722278,0,-2,-2,-2,3,3,0,0
1558442066722278,1,0,3,4,2,-3,-3,1
1558442066737236,0,-1,1,-2,-3,-10,1,-2
1558442066737236,-2,-2,-2,-5,-10,-5,1,-2
1558442066737236,-4,-2,2,1,1,3,-3,-1
1558442066737236,-1,-2,-6,-2,3,5,4,-4
1558442066753194,-1,0,2,1,-1,-2,-4,-3
1558442066753194,1,2,2,5,6,-1,-1,3
1558442066759178,2,2,-1,-15,4,-1,2,1
1558442066759178,-5,-6,-12,-8,-14,-7,-4,1
1558442066774138,-2,-2,1,2,0,-4,-4,-3
1558442066774138,-2,-3,-5,0,-11,-8,-8,-6
1558442066781120,0,3,4,2,8,8,8,2
1558442066781120,1,2,7,17,6,-5,-1,1
1558442066797077,-2,-2,-16,-27,-7,-3,-5,-2
1558442066797077,-3,-3,-10,-14,-2,-1,1,-2
1558442066798075,-2,-3,5,13,1,2,-2,-2
1558442066798075,-3,-4,-8,-22,-12,-5,-3,-2
1558442066811040,1,0,6,9,2,-7,2,3
1558442066811040,-1,2,0,0,9,2,6,3
1558442066819018,-3,-2,-4,-5,-10,-2,-7,-5
1558442066819018,1,-1,9,3,-1,-5,-6,-1
1558442066834976,2,-1,-11,-5,-4,4,0,-1
1558442066834976,-3,0,3,2,2,11,-1,-2
1558442066840959,1,1,-4,-1,-3,-2,0,-2
1558442066840959,0,-1,5,1,1,0,-4,-2
1558442066856917,-2,-1,6,19,1,-4,-2,-2
1558442066856917,-4,-5,-6,-9,-9,0,-2,-3
1558442066857915,0,2,1,4,4,-14,2,4
1558442066857915,-1,-2,-6,-5,-1,3,-1,-2
1558442066870879,0,0,0,-1,0,-3,3,1
1558442066870879,-3,-4,-2,3,-6,3,-2,-4
1558442066878858,-2,-1,-4,-4,-6,5,-3,0
1558442066878858,0,1,-1,-1,2,-11,-1,2
1558442066894816,-1,0,2,0,0,-5,-1,-1
1558442066894816,2,3,5,9,5,-1,0,-3
1558442066901797,-2,-4,3,3,-2,0,2,-3
1558442066901797,-4,-4,-19,-22,-4,3,1,1
1558442066916759,-4,-2,2,2,2,8,4,2
1558442066916759,3,0,4,2,0,-8,-3,3
1558442066917755,-2,-1,-4,-1,-5,-4,-6,-1
1558442066917755,-1,0,5,9,-3,0,0,-4
1558442066931718,1,-1,-2,-6,1,6,1,-1
1558442066931718,3,-1,1,2,5,10,7,2
1558442066938698,-1,0,3,0,7,-6,2,-2
1558442066938698,-3,-3,-2,-3,-6,-2,-1,-2
1558442066953658,-4,-3,-5,-6,-10,-5,-3,-4
1558442066953658,2,5,4,-1,3,-3,-3,0
1558442066961637,1,2,0,12,5,13,2,2
1558442066961637,-1,-2,0,8,9,-1,-1,-1
1558442066976598,-3,0,-1,-4,-1,7,-4,-1
1558442066976598,-4,-6,-20,-15,-13,-7,-3,-2
1558442066984576,-1,-2,1,3,-3,3,1,0
1558442066984576,1,3,8,-2,2,3,-2,-3
1558442066991557,0,1,6,5,-1,-7,3,1
1558442066991557,-1,-3,-3,-2,4,0,-5,-3
1558442067007514,-2,-1,-6,-13,-6,0,-5,-1
1558442067007514,-2,-2,0,10,-4,3,0,-2
1558442067013498,0,-2,-2,-4,-3,-6,0,0
1558442067013498,-2,-2,5,2,-1,-3,-1,-1
1558442067021476,-1,-5,-1,0,0,-12,-2,-5
1558442067021476,2,1,-8,-13,-2,-8,-3,-2
1558442067036436,-2,-1,-1,1,-2,9,2,-2
1558442067036436,0,2,14,21,10,1,1,0
1558442067044415,0,-1,-7,-8,-7,0,-3,0
1558442067044415,-4,-5,-11,-8,-10,-11,-6,-3
1558442067051402,1,1,4,7,8,6,-5,0
1558442067051402,1,-3,-10,-4,1,2,6,0
1558442067059380,-2,-3,-3,-2,-4,-10,-4,-1
1558442067059380,2,3,14,9,15,20,10,3
1558442067074336,-4,-7,-12,-15,-22,-9,-8,-4
1558442067074336,-5,-1,4,2,-2,-9,-3,-2
1558442067081323,-2,-1,-6,-17,-3,8,0,-2
1558442067081323,-3,-1,-4,4,0,2,-1,-1
1558442067096281,1,1,6,7,10,-6,1,1
1558442067096281,0,0,-4,-5,-10,-14,-7,-2
1558442067106367,2,0,3,0,4,4,4,3
1558442067106367,-2,-1,2,4,0,-4,1,2
1558442067128192,-1,-2,2,12,4,5,2,-2
1558442067128192,-3,-1,2,-1,-9,2,-7,-1
1558442067128192,-3,-1,-9,-7,-5,-15,-1,-4
1558442067128192,2,-2,1,5,5,-5,1,3
1558442067134178,-1,-1,-6,-13,2,0,3,-1
1558442067134178,1,-1,6,2,5,14,2,2
1558442067150232,-2,-6,-18,-10,-12,-9,-18,-6
1558442067150232,1,1,7,3,5,10,9,2
1558442067156183,1,0,-11,-6,-8,-10,3,1
1558442067156183,-4,-3,-1,-6,-3,6,-2,-5
1558442067172076,-3,-1,3,5,3,1,0,-2
1558442067172076,1,1,5,6,6,8,1,-2
1558442067180055,-1,-3,-14,-21,1,-15,-4,1
1558442067180055,0,1,5,8,5,5,8,1
1558442067180055,3,4,16,10,5,5,6,2
1558442067180055,-3,-7,-30,-24,-23,-15,-12,-6
1558442067194017,2,4,20,17,9,9,2,0
1558442067194017,-5,-6,-16,-7,-5,-10,-2,2
1558442067200996,-3,-5,-4,-9,-7,-3,-1,-4
1558442067200996,1,1,4,1,-5,-2,-2,-3
1558442067215957,1,-4,3,-1,-7,-9,-7,-2
1558442067215957,2,2,2,1,11,5,7,1
1558442067224937,-1,-2,-4,-3,-5,3,-1,1
1558442067224937,-4,-4,-4,-6,-10,-3,-5,-3
1558442067239900,-3,1,5,6,4,8,2,-1
1558442067239900,0,-1,-7,-7,1,-7,-7,-2
1558442067239900,-1,1,8,11,10,3,9,1
1558442067239900,1,1,1,-1,-2,-7,0,-1
1558442067253860,-4,-5,-4,-6,-6,-12,-7,-3
1558442067253860,0,-2,4,3,-4,3,-1,-1
1558442067261841,-3,-3,-8,1,1,5,-6,-3
1558442067261841,-3,-1,1,-1,-1,7,-1,-2
1558442067292756,3,2,4,6,6,0,6,2
1558442067292756,2,2,3,2,-2,-8,0,3
1558442067293754,-3,-4,-4,3,-7,-19,-8,-5
1558442067293754,-3,-2,-4,-19,-9,-1,-5,-4
1558442067299735,1,1,-5,-4,7,18,10,3
1558442067299735,0,0,-4,-8,-7,2,-1,-1
1558442067300733,1,0,2,-3,0,1,-3,-1
1558442067300733,1,2,6,11,12,0,9,6
1558442067313699,-3,0,2,2,-5,-7,-6,-3
1558442067313699,-4,-4,-7,-1,-7,0,-4,-4
1558442067321697,-2,0,-10,-40,-4,9,0,0
1558442067321697,0,0,2,14,6,-3,6,3
1558442067336637,-2,-5,-7,-15,-6,-2,-4,-1
1558442067336637,0,-1,1,-1,-5,-9,-2,1
1558442067344615,2,0,6,8,0,-3,1,1
1558442067344615,0,-1,-2,-1,-5,3,-8,-7
1558442067359575,1,1,-5,-1,1,4,2,-2
1558442067359575,-1,1,7,1,-2,-8,-3,0
1558442067360571,-4,-3,-5,4,3,9,3,-3
1558442067360571,0,1,6,9,4,-1,-1,0
1558442067373536,-2,-2,-3,8,5,-13,-1,1
1558442067373536,-1,-2,-18,-34,-7,7,5,-1
1558442067381520,-1,-2,5,3,-8,-9,-2,-1
1558442067381520,0,1,11,15,5,8,-3,-3
1558442067396480,-2,-5,-17,-22,-15,-6,-8,-6
1558442067396480,3,3,4,8,1,3,2,-1
1558442067404459,-1,-1,0,7,3,-6,5,3
1558442067404459,-1,2,4,-7,6,7,3,0
1558442067419417,-5,-3,1,1,-14,-1,-5,-3
1558442067419417,-2,-2,-1,3,0,-19,-2,1
1558442067420412,0,1,-3,-4,4,9,3,0
1558442067420412,-1,-4,-8,2,-2,-1,-2,1
1558442067434418,0,0,5,6,5,5,-2,0
1558442067434418,-5,-4,-9,-9,-5,-2,-6,-4
1558442067441357,-2,-2,-3,1,-5,-4,-5,2
1558442067441357,1,1,2,12,4,-9,-1,0
1558442067456315,2,0,-5,-18,9,18,10,5
1558442067456315,-3,-2,6,10,0,-1,-4,-4
1558442067464299,-2,0,4,3,-1,-5,-5,-3
1558442067464299,-2,-1,-3,-11,-7,3,0,1
1558442067479254,1,3,5,9,11,6,-2,-1
1558442067479254,-1,-3,-4,2,-3,-12,-8,-4
1558442067480252,-4,-4,0,-5,-4,0,0,0
1558442067480252,1,-2,-4,-7,-3,6,5,2
1558442067495212,0,1,10,14,3,-5,1,1
1558442067495212,2,0,-4,-3,8,6,2,1
1558442067501197,-1,-1,-2,-6,-1,-2,-2,0
1558442067501197,-3,-2,0,-9,-5,-4,-7,-4
1558442067516184,-1,0,7,6,-9,-6,0,-1
1558442067516184,1,-2,-3,10,4,-7,-3,-1
1558442067524145,1,-1,-5,-8,-7,-6,3,0
1558442067524145,-3,-1,0,-9,5,10,3,0
1558442067540091,0,-1,1,0,-7,-10,-4,-1
1558442067540091,-2,-3,-2,0,5,15,5,-1
1558442067540091,2,1,2,5,2,-1,-2,1
1558442067540091,-1,-2,-2,1,2,-7,-5,0
1558442067554065,-2,-3,-4,-8,-10,-11,-7,-4
1558442067554065,-3,-1,6,3,-11,-11,-11,-6
1558442067561037,3,1,3,4,22,22,12,4
1558442067561037,-4,-4,-8,-9,-11,-15,0,-3
1558442067576993,0,-1,-2,5,4,4,3,0
1558442067576993,-2,-3,-1,-8,-8,-8,-3,-3
1558442067585083,-3,-3,-2,5,-5,-2,-4,-5
1558442067585083,0,-1,-3,-6,0,5,0,1
1558442067599934,-1,-1,-1,-2,-1,-3,-1,-3
1558442067599934,1,0,-4,-2,4,0,0,-2
1558442067599934,0,1,1,6,5,-3,1,2
1558442067599934,-4,-5,-11,1,-13,-7,-10,-4
1558442067613894,-2,-2,-6,-5,0,4,2,1
1558442067613894,1,4,11,11,2,0,7,4
1558442067621950,0,-2,-9,-12,-2,-5,-5,-3
1558442067621950,-1,-2,-2,-2,0,-4,-3,-2
1558442067636916,0,-1,0,4,1,13,1,-4
1558442067636916,-1,-1,-4,-1,0,1,-2,-1
1558442067644821,1,2,16,8,3,-4,7,3
1558442067644821,0,-1,-7,7,6,6,7,3
1558442067659774,-3,-2,-2,-7,-10,-9,-8,-6
1558442067659774,-2,-1,-3,-9,-4,9,3,-2
1558442067659774,0,1,3,3,-6,-7,-2,-2
1558442067659774,1,2,5,5,3,-10,-4,1
1558442067675740,-1,-3,-3,-1,-6,-14,-4,0
1558442067675740,-2,-3,0,-1,3,9,-1,-2
1558442067681916,-2,-1,-6,-3,1,10,3,0
1558442067681916,2,3,8,4,-1,-5,1,-1
1558442067697712,-1,0,-6,-10,0,-2,1,-1
1558442067697712,-3,-3,-7,-16,-16,-10,-11,-6
1558442067704852,2,2,2,7,12,12,6,5
1558442067704852,-1,-2,-3,-8,1,2,-3,1
1558442067719810,-1,1,6,9,0,4,-4,3
1558442067719810,-3,0,1,0,3,-5,-1,0
1558442067720620,-2,-5,-10,-14,-15,-9,-8,-6
1558442067720620,0,0,10,13,5,0,-1,1
1558442067733579,4,2,0,-2,9,7,12,5
1558442067733579,-1,-2,-4,-6,-12,-14,-8,-2
1558442067741553,-3,-2,5,22,10,-1,0,1
1558442067741553,-1,0,-4,-22,-3,-3,-3,-4
1558442067756753,-4,-7,-12,-8,-7,4,-2,-3
1558442067756753,2,1,1,3,6,2,7,3
1558442067764493,-3,-2,0,-2,-11,-8,-9,-5
1558442067764493,-3,-1,-6,-2,-4,2,-2,-3
1558442067779455,0,-1,2,2,8,-7,1,4
1558442067779455,0,2,7,12,14,9,5,2
1558442067780450,-1,-1,0,-6,-9,-2,-4,-2
1558442067780450,0,0,0,10,-1,-5,-3,-3
1558442067793412,-3,-6,-16,-10,-14,-9,-9,-6
1558442067793412,0,-2,-2,-2,-2,3,-1,-1
1558442067801423,-2,-3,2,5,1,-1,-3,-3
1558442067801423,0,-1,-12,-13,-2,8,3,0
1558442067816667,-2,1,7,15,2,-9,3,0
1558442067816667,0,-1,-11,-14,0,4,5,1
1558442067824673,0,0,-6,-8,-6,1,0,-1
1558442067824673,-3,-5,-2,0,-2,-2,-5,-2
1558442067839609,1,4,8,4,6,4,4,1
1558442067839609,1,-1,-2,0,0,-3,-3,4
1558442067840341,-3,-1,-4,-9,-7,-4,-3,-4
1558442067840341,-1,-2,5,2,-1,-3,-5,-3
1558442067870480,-5,-4,-10,-10,-5,3,-3,-4
1558442067870480,1,0,3,3,-2,-5,-1,0
1558442067871256,0,-4,-6,-5,-4,-5,-1,4
1558442067871256,-3,-2,-7,-4,-2,-2,3,1
1558442067876240,1,1,2,-1,-8,4,-3,-3
1558442067876240,-2,-2,-1,-4,0,-5,0,-3
1558442067884222,-3,-1,9,12,10,-5,1,-1
1558442067884222,0,-3,-12,-19,-6,-4,1,-1
1558442067900232,-4,-5,-8,-2,-8,10,-5,-2
1558442067900232,0,0,-2,5,4,-4,5,4
1558442067900232,1,2,-2,-15,-1,-5,3,2
1558442067900232,-2,-2,0,1,-3,-14,-3,-1
1558442067914175,-1,1,5,4,1,5,-5,-3
1558442067914175,-1,-2,2,-1,-5,6,-4,-1
1558442067921295,0,-2,-4,-4,-5,-6,-5,-6
1558442067921295,-1,-3,6,16,4,5,-2,-1
1558442067937091,2,-3,-18,-25,-10,-14,-7,-1
1558442067937091,1,2,16,13,21,22,9,5
1558442067945055,0,-1,4,8,-6,1,-1,1
1558442067945055,-1,-3,-18,-18,-12,-2,-2,-1
1558442067959242,2,2,14,13,2,-13,6,2
1558442067959242,-2,-3,-14,-9,-10,-9,-11,-4
1558442067967000,2,2,3,6,3,-4,-1,0
1558442067967000,1,2,8,9,9,8,4,-1
1558442067973982,-1,-1,2,2,4,-3,-1,0
1558442067973982,-3,-1,-6,-5,-14,-10,-4,-4
1558442067980964,-1,-1,-1,5,2,4,-3,-2
1558442067980964,-1,-1,-6,-11,-8,-10,-5,-3
1558442067997912,0,-1,2,3,8,0,3,-1
1558442067997912,-1,0,2,4,0,5,0,-5
1558442068004894,-1,-1,-13,-17,-4,13,1,-2
1558442068004894,-2,0,4,6,3,-8,1,3
1558442068018890,-1,-1,2,7,12,10,3,-1
1558442068018890,-1,-3,-3,1,-6,-11,-3,-2
1558442068026837,0,0,4,-4,2,-4,0,1
1558442068026837,-2,-1,4,3,-3,5,0,0
1558442068033816,1,-1,-7,-11,-2,-4,0,-1
1558442068033816,-2,-1,-4,-8,-3,6,-5,-3
1558442068040798,0,-1,-1,2,-3,-7,-3,-2
1558442068040798,2,2,1,4,0,-3,-1,1
1558442068056780,-3,-1,0,3,-5,2,-4,-2
1558442068056780,-1,-1,-2,-4,4,2,4,0
1558442068064734,-2,0,-9,-6,1,2,0,-1
1558442068064734,0,0,7,4,1,2,-1,-1
1558442068079048,-1,-1,1,3,-5,-2,-4,0
1558442068079048,2,0,0,-1,-1,0,3,2
1558442068087813,-2,-1,2,3,3,1,3,1
1558442068087813,-1,-2,0,-6,-3,-10,0,-1
1558442068102925,0,2,4,2,5,6,2,1
1558442068102925,-2,-1,14,19,2,4,-5,-7
1558442068102925,-4,-6,-28,-25,-7,-3,-7,-2
1558442068102925,2,1,1,2,0,-11,0,2
1558442068116845,-1,-1,-1,-1,1,6,-1,1
1558442068116845,-2,-3,-1,2,-5,-5,-1,-3
1558442068124824,-1,-1,4,-4,-1,-1,-5,-5
1558442068124824,-3,-4,-3,-2,-5,-5,-4,-4
1558442068138999,-2,-4,-10,-14,-5,-4,-4,-3
1558442068138999,1,0,1,6,-2,-8,-2,1
1558442068147883,2,3,8,9,8,6,9,5
1558442068147883,1,0,0,-5,-3,6,-3,-3
1558442068162802,-3,-3,1,-2,-7,-5,-2,-3
1558442068162802,-4,-2,-9,-9,-3,1,0,-3
1558442068162802,3,3,10,12,8,2,3,5
1558442068162802,0,0,-1,-3,5,5,2,3
1558442068177694,1,1,-1,10,-7,1,-5,-5
1558442068177694,-1,-5,-15,-17,-11,0,-6,-1
1558442068184705,-3,-3,0,0,-6,-15,3,1
1558442068184705,-1,2,5,5,19,19,9,-2
1558442068199668,-1,-1,0,18,4,-2,1,1
1558442068199668,-3,-2,-2,-13,-11,-12,-6,1
1558442068207687,0,-2,4,7,-8,-6,-8,-3
1558442068207687,1,0,-6,-9,4,9,2,0
1558442068222637,-1,1,4,-5,-2,-5,3,0
1558442068222637,1,0,-7,-1,10,9,5,1
1558442068222637,-4,-2,7,6,-12,-8,-6,-5
1558442068222637,-3,-1,-2,0,-3,0,-9,-4
1558442068236615,-3,-5,3,3,1,1,-3,-2
1558442068236615,-1,2,4,2,0,-10,2,2
1558442068244253,-2,-4,-7,-12,0,8,-6,-4
1558442068244253,-3,-2,2,6,-4,-5,0,-4
1558442068259214,0,0,1,-6,-4,-11,-8,-1
1558442068259214,-1,-2,1,-4,-1,-1,-4,-2
1558442068267271,1,0,4,12,10,15,9,2
1558442068267271,-2,-2,-4,2,-6,-8,0,-2
1558442068282478,-3,-3,-7,-7,-10,6,0,2
1558442068282478,0,3,6,5,4,1,3,-3
1558442068283149,-1,-1,-9,-4,2,-2,-2,-1
1558442068283149,0,0,-4,-4,-1,-1,-2,2
1558442068297112,-2,-1,3,-1,-6,-4,-4,-3
1558442068297112,-2,-4,-2,3,2,6,-5,0
1558442068304390,0,-1,5,1,2,4,4,-1
1558442068304390,0,-1,6,6,2,-15,-1,1
1558442068319317,0,-1,-13,-15,-4,-7,-3,0
1558442068319317,-3,-2,-6,-5,-7,3,-7,-3
1558442068327035,2,1,2,4,8,16,10,2
1558442068327035,-2,-2,-3,-6,-3,-6,1,1
1558442068342267,1,1,11,11,9,-5,2,1
1558442068342267,-3,-1,-11,-16,-3,1,-2,1
1558442068342991,-4,-2,1,3,-15,-15,-11,-4
1558442068342991,0,-4,-8,-6,-4,1,-2,-1
1558442068357141,0,0,-1,-5,11,5,0,3
1558442068357141,1,-2,-1,2,-2,0,9,1
1558442068363936,0,-1,-3,2,-4,-6,-2,-1
1558442068363936,-2,-1,6,1,-2,1,-1,2
1558442068387869,-1,-1,-6,-6,-3,-10,-3,-5
1558442068387869,-1,-2,3,7,4,-5,-3,-3
1558442068387869,0,1,-3,-9,4,6,2,2
1558442068387869,-1,-3,5,7,-5,-3,-4,-3
1558442068401831,-3,-3,-11,-15,-3,-2,-2,-3
1558442068401831,-2,-2,5,13,5,9,1,-3
1558442068402828,1,2,0,-3,-1,-17,3,2
1558442068402828,-2,-1,3,-2,-3,15,3,1
1558442068416791,0,1,0,4,-2,0,-3,0
1558442068416791,0,-1,1,2,-7,-14,-6,-2
1558442068423773,-4,-3,-2,0,-1,1,-5,-3
1558442068423773,1,1,-2,-4,-1,-5,4,1
1558442068440727,-2,-3,-2,1,2,6,1,1
1558442068440727,-1,-3,5,-5,-6,0,-1,-3
1558442068447842,-2,-2,-10,-7,-6,-8,-3,-1
1558442068447842,1,2,3,0,1,-7,-5,-3
1558442068461707,0,1,3,9,3,5,6,0
1558442068461707,2,2,-8,1,5,-3,1,3
1558442068462670,-5,-4,-5,-17,-3,7,-1,-2
1558442068462670,-2,-2,0,3,-3,-2,1,-1
1558442068476631,-3,-2,-6,-6,-12,-11,-13,-12
1558442068476631,3,2,8,9,9,9,8,4
1558442068484611,2,0,-14,-16,2,2,2,0
1558442068484611,0,1,7,4,1,2,-2,0
1558442068498574,-3,-6,-16,-13,-5,-6,-5,-1
1558442068498574,-3,-1,4,-1,-12,-12,-7,-4
1558442068508007,-1,-4,-6,-12,0,-4,-7,-3
1558442068508007,0,-1,-5,-4,8,12,4,3
1558442068522952,2,2,3,6,2,-9,0,1
1558442068522952,-1,-2,7,-1,4,6,0,0
1558442068522952,-2,-4,-11,-3,-11,-4,-6,-5
1558442068522952,-2,-5,-11,-3,-1,0,-5,-5
1558442068536794,-1,-2,6,6,3,6,1,2
1558442068536794,-1,0,-6,-6,-9,-6,-1,1
1558442068543966,1,4,13,3,1,-3,-3,0
1558442068543966,-4,-3,-7,-6,-4,-13,-7,-6
1558442068568900,2,2,5,1,7,3,9,3
1558442068568900,1,-2,-6,-4,3,0,-3,-2
1558442068569896,-1,0,5,12,-3,7,0,-1
1558442068569896,-2,-1,-4,3,-2,6,-1,0
1558442068581891,0,3,12,5,3,-6,0,-2
1558442068581891,-3,-4,-7,-10,-1,-5,-3,0
1558442068582889,0,-1,3,2,-2,0,-2,-2
1558442068582889,-2,-1,-6,-9,-2,2,-2,0
1558442068595830,0,-3,2,2,-7,2,-3,0
1558442068595830,-2,1,-3,3,-3,-3,-1,-2
1558442068612242,0,-2,1,-2,4,1,-5,-1
1558442068612242,1,0,5,-3,1,-3,4,2
1558442068619219,-3,-4,-25,-16,-7,2,-2,-3
1558442068619219,-1,0,-4,-3,-5,3,-3,-3
1558442068635180,-2,0,-1,3,4,-2,4,1
1558442068635180,0,1,1,-2,-1,-16,3,4
1558442068642129,0,1,9,11,5,0,-4,-3
1558442068642129,-1,-1,-6,-17,5,6,7,5
1558442068642702,-2,-1,8,10,-5,2,-1,-1
1558442068642702,1,-1,-8,-7,-4,-3,0,0
1558442068657018,-1,-3,0,-3,-7,-6,-3,-2
1558442068657018,-2,0,1,3,3,6,1,-2
1558442068663992,0,1,0,2,-2,-7,-4,-2
1558442068663992,-3,-1,-1,2,0,6,0,-4
1558442068680630,0,-1,1,-3,4,8,2,1
1558442068680630,-1,-2,0,5,-2,5,-7,-4
1558442068687907,-2,-4,-4,0,0,2,2,-2
1558442068687907,5,7,11,21,12,-16,6,7
1558442068702849,-6,1,-14,-24,-4,-3,-2,-1
1558442068702849,-3,-4,-4,-6,-13,-9,-5,-4
1558442068702849,0,2,0,6,7,1,-1,0
1558442068702849,-5,-2,3,-2,-9,6,-3,-6
1558442068716819,3,-2,3,6,4,2,4,2
1558442068716819,1,3,4,4,3,-8,-2,2
1558442068724719,-3,-4,-11,-16,-3,1,-4,0
1558442068724719,-2,-4,3,8,-6,0,-9,-11
1558442068747760,1,2,0,-4,-3,-7,2,2
1558442068747760,-1,-1,-1,4,5,-1,2,-1
1558442068748421,-1,1,3,4,-4,-6,-2,-2
1558442068748421,-4,-2,-2,1,-1,0,-2,-1
1558442068762744,-1,-2,-9,-13,-5,10,-5,-5
1558442068762744,2,1,5,7,2,-3,2,0
1558442068762744,5,3,8,8,8,-7,2,4
1558442068762744,-1,-3,-18,-16,-8,-3,-4,-3
1558442068776348,-5,-5,4,-2,-7,-4,-9,-4
1558442068776348,-3,0,6,15,6,10,4,0
1558442068783361,-1,-2,-1,-1,8,2,2,-2
1558442068783361,0,-3,-1,-5,-9,-2,-7,-4
1558442068808554,-1,-1,2,13,2,-6,2,1
1558442068808554,1,1,-5,-8,1,-7,4,5
1558442068808554,-2,-2,0,1,-5,-10,-10,-6
1558442068808554,0,0,0,3,-1,5,2,2
1558442068822567,-1,0,1,-7,-1,3,1,-5
1558442068822567,-2,-5,-7,-1,-3,5,-2,-4
1558442068822567,-1,-1,-6,-9,-6,-1,2,0
1558442068822567,1,-2,2,-5,5,-1,-2,-1
1558442068836536,-1,-2,4,8,0,3,-3,0
1558442068836536,-1,0,-1,-7,-4,-9,0,1
1558442068844484,-2,-4,-8,-2,-4,-6,3,1
1558442068844484,-1,-1,1,4,4,10,-6,-4
1558442068859163,-2,-1,-5,4,4,10,8,1
1558442068859163,-1,2,-5,-23,-4,-5,1,1
1558442068867409,1,0,-3,10,-3,-7,0,2
1558442068867409,-3,-3,-11,-12,-11,-14,-4,-3
1558442068881396,0,-4,2,-5,-1,1,-7,1
1558442068881396,-3,-2,1,-2,0,-5,-2,-2
1558442068890102,-2,-2,-11,-9,-2,10,1,1
1558442068890102,-1,-1,-1,-2,-1,-3,2,0
1558442068897105,1,1,3,7,7,2,3,3
1558442068897105,-1,-2,-8,-6,-5,-8,1,-4
1558442068904004,1,2,9,5,3,2,-4,-1
1558442068904004,0,-3,10,4,7,13,7,2
1558442068919279,-2,-4,-12,-3,-12,-4,-7,-4
1558442068919279,-1,-3,-7,-10,-6,1,-8,-4
1558442068926944,-1,-2,4,8,-1,1,-3,-3
1558442068926944,-1,0,-4,-13,-2,-6,2,1
1558442068942072,1,-1,3,7,0,-6,1,0
1558442068942072,-2,-3,1,7,-3,1,-9,-4
1558442068950187,-1,0,-6,-7,-4,5,2,-1
1558442068950187,0,0,3,6,-1,-10,0,1
1558442068957190,1,1,6,-5,8,0,4,0
1558442068957190,-1,0,-8,2,2,-1,0,2
1558442068964172,-2,-3,-7,-12,-14,-9,-9,-6
1558442068964172,-3,-2,-2,4,-3,9,-3,-2
1558442068979113,0,2,5,6,4,-10,7,3
1558442068979113,1,1,3,-5,3,11,3,0
1558442068986782,-1,0,13,13,6,-2,2,2
1558442068986782,-2,-5,-23,-24,-15,-11,-8,-7
1558442069001807,-3,-2,3,8,7,1,-3,0
1558442069001807,-2,-5,-5,-7,-11,-4,-6,-3
1558442069009723,-1,-2,0,-4,-2,2,0,-2
1558442069009723,0,0,7,15,2,3,-7,1
1558442069017029,-4,-5,-10,-18,-9,4,8,-2
1558442069017029,2,1,2,5,8,-9,-2,1
1558442069024715,-1,-2,2,2,-2,-3,-1,0
1558442069024715,1,2,1,2,3,-3,-2,-1
1558442069039640,-4,-3,-2,0,-8,-4,-8,-8
1558442069039640,1,-3,1,-6,-8,-8,-6,-3
1558442069047730,1,-1,-12,-6,9,5,9,3
1558442069047730,-3,1,1,4,2,4,-1,0
1558442069061610,1,1,6,-4,3,-4,2,4
1558442069061610,-1,-1,1,6,-3,1,-1,-3
1558442069069596,-2,-3,-2,-1,-5,-4,-4,0
1558442069069596,-1,-3,2,4,-3,-15,-3,-4
1558442069084520,-1,1,-11,-6,3,2,0,0
1558442069084520,0,0,1,0,0,4,1,2
1558442069085578,-2,-2,-7,-11,-7,-3,-5,-4
1558442069085578,-2,-1,7,4,1,5,2,-1
1558442069098483,4,2,8,11,4,9,5,3
1558442069098483,-3,-3,-10,-11,1,2,4,1
1558442069107458,-4,-1,0,5,2,5,1,0
1558442069107458,-1,-1,2,-4,3,-2,-1,-1
1558442069121432,-2,-1,-8,-5,-4,-7,-3,-1
1558442069121432,-3,-1,-2,1,0,-2,-1,-1
1558442069129404,1,-1,5,2,-2,-3,0,-1
1558442069129404,-1,-1,-1,0,6,2,2,1
1558442069144360,-1,-1,-3,-1,-4,-5,-5,-4
1558442069144360,2,-1,5,6,3,4,0,-1
1558442069145358,-1,-1,-8,-10,-2,-5,-2,-1
1558442069145358,-2,-1,4,2,-3,1,-4,-1
1558442069158770,-1,-2,-10,-4,-5,-2,-1,0
1558442069158770,0,0,8,10,4,-9,0,3
1558442069167746,-2,-2,-6,-11,3,7,-1,0
1558442069167746,-1,-1,-1,-4,-3,0,2,1
1558442069181703,-2,-1,4,4,2,3,-8,-5
1558442069181703,0,2,10,20,8,1,3,0
1558442069189688,-1,-4,-11,-21,-13,-7,-1,-1
1558442069189688,-1,-2,-2,1,-6,-3,-5,-1
1558442069205394,-1,1,2,-3,-6,-4,-2,0
1558442069205394,-4,-2,-11,-10,-6,-3,-2,-4
1558442069205394,0,0,9,8,3,-2,-3,-1
1558442069205394,1,1,-1,4,7,12,7,2
1558442069228464,-3,-5,-3,-5,-2,-7,-7,-2
1558442069228464,1,0,7,-4,-2,10,-1,-1
1558442069228464,-5,-5,-1,14,-5,-7,-6,-5
1558442069228464,0,-2,-8,-12,-13,-17,-6,-4
1558442069242136,1,3,11,10,12,5,6,3
1558442069242136,1,0,-4,-3,9,3,8,4
1558442069249409,-3,-1,-8,-14,-9,-4,-7,-1
1558442069249409,3,2,-3,2,-2,-3,-1,0
1558442069265216,-3,-2,0,5,-4,3,-1,-1
1558442069265216,-3,-1,2,-3,-3,-1,-1,-5
1558442069265216,1,-1,5,7,6,-1,2,0
1558442069265216,0,-1,3,5,4,2,-3,-2
1558442069279316,0,-3,-4,-9,-7,-4,-3,0
1558442069279316,0,-1,-6,-1,-6,-5,-4,-1
1558442069287322,0,3,8,4,10,10,7,2
1558442069287322,-2,0,-5,-3,-3,-7,-4,-2
1558442069302177,-3,-2,-7,-8,-10,-3,-3,-4
1558442069302177,1,0,1,1,3,-5,1,4
1558442069309918,-1,0,1,0,-6,-15,-6,-2
1558442069309918,-2,-4,-9,-8,-4,4,0,-2
1558442069325233,-1,0,-1,-4,3,7,4,1
1558442069325233,-2,-1,5,6,-4,-8,-6,-3
1558442069325233,0,-2,-13,-13,-12,3,-1,0
1558442069325233,0,-1,-2,-6,0,2,3,0
1558442069339185,-4,-2,-8,3,6,9,1,-3
1558442069339185,-1,-3,-2,-6,-9,-7,-4,0
1558442069347146,2,1,6,10,12,6,2,2
1558442069347146,0,-1,9,1,9,10,3,0
1558442069362124,1,-2,-7,-6,-6,-9,-2,-3
1558442069362124,-2,1,-1,2,-4,-3,-2,-4
1558442069370121,-2,-2,-9,-3,-6,1,-7,-5
1558442069370121,0,1,1,-2,1,-8,3,0
1558442069392695,-1,0,3,1,-3,-5,-5,-3
1558442069392695,-3,-2,0,4,-4,-2,-2,-2
1558442069399680,1,1,5,-5,1,2,0,0
1558442069399680,0,-1,-6,4,4,9,4,2
1558442069401672,0,1,0,-4,-1,-7,-3,2
1558442069401672,-2,-1,-3,-5,-7,-1,-2,-1
1558442069414996,0,0,9,10,11,-7,0,0
1558442069414996,1,-2,-6,0,-7,-3,-5,-1
1558442069421622,0,-3,0,0,0,4,3,0
1558442069421622,1,-1,0,0,5,1,2,-1
1558442069429948,-1,0,-3,1,-3,-3,3,0
1558442069429948,0,1,4,-3,4,1,2,1
1558442069444556,-4,-2,-7,-5,-6,-6,-8,-4
1558442069444556,-2,-1,2,-2,0,2,0,0
1558442069445896,-1,1,8,11,8,9,2,-2
1558442069445896,-2,-2,-7,-5,-6,-8,-2,0
1558442069458882,2,1,7,0,-3,4,-1,-1
1558442069458882,-1,-2,1,-5,-3,-9,-3,-5
1558442069466902,-1,-4,-22,-10,-7,-8,-5,-2
1558442069466902,-3,-2,-1,-6,-5,-3,-1,-1
1558442069481818,-1,-1,1,-1,3,-3,4,3
1558442069481818,0,-2,-3,-7,-3,12,2,0
1558442069489797,0,0,5,2,-5,-12,-1,-1
1558442069489797,-2,-2,-3,2,2,5,-1,0
1558442069505412,0,-2,1,0,-1,-7,-5,-3
1558442069505412,0,-2,-19,-13,3,-4,1,3
1558442069505412,-2,-1,0,0,-3,6,0,-1
1558442069505412,-2,-3,-3,-2,-2,-1,-7,-4
1558442069520359,0,2,2,2,5,7,7,2
1558442069520359,-4,-2,3,9,0,-4,-5,-4
1558442069527365,-2,0,1,-9,0,-1,0,1
1558442069527365,-1,-1,-7,-1,3,0,2,2
1558442069541650,-2,-5,-14,-9,-12,-7,-7,-4
1558442069541650,0,0,-8,-14,-1,7,-1,-2
1558442069549623,-5,-1,2,0,-2,1,1,-2
1558442069549623,1,0,8,3,-3,-3,1,1
1558442069565235,0,0,-3,0,1,-14,-4,-2
1558442069565235,0,-1,2,6,1,-6,-3,2
1558442069565235,0,-1,-1,-1,-1,-5,-3,-2
1558442069565235,-1,-2,5,2,1,5,-5,-1
1558442069579204,-2,-1,-4,0,-5,3,-1,-2
1558442069579204,0,-1,-2,0,1,-2,1,-1
1558442069587521,0,-2,-7,-4,1,2,-1,0
1558442069587521,-2,2,0,-5,-2,-12,-3,0
1558442069601491,-2,-1,5,7,1,5,1,-2
1558442069601491,-1,-1,-8,-2,-5,0,-4,-4
1558442069609147,-2,-1,-1,-2,-1,-6,-2,0
1558442069609147,0,0,0,7,2,5,0,-1
1558442069624414,-4,-3,4,1,-4,4,-1,-1
1558442069624414,-2,0,-2,-7,-4,2,0,0
1558442069625076,1,2,9,12,-1,-6,-4,-3
1558442069625076,1,-1,-4,-3,4,-4,1,0
1558442069640387,0,2,8,7,9,5,2,1
1558442069640387,0,0,2,5,2,9,0,-1
1558442069647340,1,-1,0,-7,-4,-5,0,-6
1558442069647340,0,-3,-1,3,-5,-11,-2,0
1558442069662228,-2,-1,-8,-11,-6,-10,-4,-2
1558442069662228,-3,-1,5,6,5,0,-4,0
1558442069670330,-2,-4,-6,-11,-10,7,-5,-3
1558442069670330,1,1,4,2,9,9,-2,-2
1558442069684919,1,-1,-2,0,1,3,7,3
1558442069684919,-1,0,-2,-8,-5,-23,-3,-1
1558442069685928,-2,2,1,4,6,4,1,4
1558442069685928,-2,-2,-5,-9,-4,-5,-4,-3
1558442069699010,0,1,-1,1,2,6,-1,1
1558442069699010,-2,-3,-3,1,-7,1,-1,-2
1558442069707202,-4,-5,-10,-8,-7,-3,-6,-4
1558442069707202,0,0,2,2,4,2,7,5
1558442069722184,1,3,10,7,3,-5,-6,-7
1558442069722184,-2,-2,-4,-7,2,1,6,0
1558442069737141,1,1,6,3,-3,0,1,-1
1558442069737141,-2,-1,-3,2,-4,3,-2,-2
1558442069745110,-1,1,4,0,-2,-2,-3,1
1558442069745110,1,-2,-9,0,2,5,6,0
1558442069745110,1,1,2,0,2,2,1,0
1558442069745110,-1,-1,3,-2,-2,3,3,0
1558442069759081,-2,-2,1,0,-4,-7,-3,-1
1558442069759081,-1,0,3,-2,-3,3,-2,-3
1558442069767732,0,-2,-7,-5,2,-2,0,1
1558442069767732,-3,-4,-6,-5,-11,-8,-9,-6
1558442069782020,-3,-4,-5,-3,4,17,2,-3
1558442069782020,0,1,7,10,9,-3,6,3
1558442069789981,2,0,-3,-6,-3,-11,2,5
1558442069789981,1,4,4,4,13,4,9,1
1558442069812581,-3,-5,-5,-9,-5,-7,-5,-4
1558442069812581,-2,-2,2,0,-1,8,-4,-3
1558442069813580,0,-2,1,4,-4,1,0,-3
1558442069813580,-3,-1,0,-5,-4,2,-3,0
1558442069818567,-3,-5,-15,-12,-7,2,-6,-4
1558442069818567,-2,-1,-1,3,-2,-2,-4,0
1558442069826544,-1,2,8,11,7,1,4,-1
1558442069826544,-2,-5,-20,-13,-10,-7,-5,-4
1558442069841942,-1,0,4,-2,-7,-1,-2,0
1558442069841942,0,-2,-10,-8,-3,-13,-1,-1
1558442069849920,0,0,11,11,1,1,-5,-2
1558442069849920,-1,0,4,-3,-4,-3,-3,-2
1558442069864404,-1,0,1,3,2,1,3,-1
1558442069864404,1,-1,-2,6,4,7,-3,-2
1558442069872342,-3,-2,-6,-12,0,7,0,-1
1558442069872342,-1,1,3,-1,-5,-12,-2,3
1558442069879332,0,0,-4,-1,4,-8,3,1
1558442069879332,-2,0,6,1,-2,-2,-3,-3
1558442069887302,0,0,0,13,5,7,-1,-1
1558442069887302,-2,-2,-11,-24,-15,-9,-5,-4
1558442069902248,2,-1,4,9,3,3,4,2
1558442069902248,2,0,2,-1,2,-1,6,2
1558442069909790,-3,-2,-1,1,2,-3,-5,-2
1558442069909790,-1,-3,-4,-2,-3,-1,-1,-1
1558442069924783,-2,-2,-10,-16,-8,-8,-4,-1
1558442069924783,-1,-1,-3,-4,-1,-6,-2,-1
1558442069932473,-3,-3,2,-2,3,16,2,1
1558442069932473,1,0,7,15,-1,2,-5,0
1558442069939778,2,-2,-1,-11,9,4,4,3
1558442069939778,-2,-2,-2,2,-1,-8,-1,-1
1558442069946838,-1,-1,-3,-11,-10,-9,-1,-2
1558442069946838,-1,-1,-2,4,6,-3,-4,-2
1558442069961767,0,0,8,7,-4,4,-4,-6
1558442069961767,-2,-1,-9,-5,-10,-3,-2,-2
1558442069969733,-1,-2,2,4,3,0,3,2
1558442069969733,0,-1,2,0,2,-2,3,2
1558442069984525,-3,-2,-1,-2,-4,0,-1,-1
1558442069984525,-1,0,2,1,-5,0,-4,-2
1558442069992315,1,-1,-8,-9,-2,-8,-4,-2
1558442069992315,0,-1,1,4,-2,-4,0,-2
1558442070007278,-3,-3,0,4,5,2,0,2
1558442070007278,-1,-1,1,-3,-3,4,1,-2
1558442070007278,-3,-3,-4,-8,-5,-18,-7,-1
1558442070007278,0,0,-2,1,6,9,5,0
1558442070030217,-2,0,-1,0,0,-3,-1,-1
1558442070030217,-3,-2,2,-2,-4,7,-3,-3
1558442070031212,-1,1,-2,1,-8,-1,-1,0
1558442070031212,-1,-1,0,4,4,0,-2,-3
1558442070044177,0,-1,-6,-5,-4,-3,-2,-1
1558442070044177,-1,-4,-5,-12,4,-4,1,4
1558442070052569,1,-1,3,7,2,3,4,0
1558442070052569,-1,-3,-2,-14,-8,-7,-6,-1
1558442070067337,-2,0,-7,0,-1,-6,-3,-3
1558442070067337,0,0,-1,3,3,-5,-1,-2
1558442070068610,1,-1,-3,-3,-2,-2,-2,-3
1558442070068610,-2,-1,0,0,-5,-3,4,0
1558442070081546,-1,-1,4,11,0,5,0,-1
1558442070081546,-1,-2,1,-6,2,3,-2,-1
1558442070090487,-2,-3,-5,-2,4,0,3,-2
1558442070090487,-1,-1,2,6,0,-2,-6,-4
1558442070104495,0,-1,-6,-13,-6,-13,-3,0
1558442070104495,-2,-2,-4,7,1,7,-5,-3
1558442070114042,1,1,4,0,2,5,2,0
1558442070114042,0,0,2,-2,2,-3,3,1
1558442070126957,2,-1,3,6,-3,0,-2,0
1558442070126957,1,-1,-2,-2,-3,-3,-3,1
1558442070128004,0,-1,-8,-4,3,4,3,0
1558442070128004,-1,1,2,4,-2,2,-2,-6
1558442070140923,-2,0,3,1,-1,0,1,0
1558442070140923,-1,-2,-3,-4,-7,-6,0,-1
1558442070148897,0,-1,-3,-3,-1,-4,-5,-1
1558442070148897,0,-2,-1,-4,1,2,-2,-2
1558442070163857,1,-1,3,3,8,1,4,3
1558442070163857,-1,0,1,0,1,9,3,0
1558442070171835,-3,-4,-4,1,-7,0,-5,-4
1558442070171835,-3,-3,-7,-4,-7,-3,-5,-1
1558442070186803,0,0,-5,-2,1,-6,3,2
1558442070186803,-1,0,4,-3,4,-13,5,4
1558442070187793,-1,1,0,-3,1,6,3,1
1558442070187793,-2,-1,-6,-5,3,6,5,3
1558442070202754,-1,0,14,15,4,8,-3,-4
1558442070202754,-1,-2,-20,-25,-11,-7,-7,-1
1558442070209735,-1,-1,-2,2,-2,-8,-1,-1
1558442070209735,-2,0,-2,0,-2,6,-1,-3
1558442070223712,-1,1,-3,-1,-2,-10,1,1
1558442070223712,1,0,6,6,-1,-5,-4,-3
1558442070232769,0,-3,-2,0,3,10,2,1
1558442070232769,0,0,0,-3,0,-2,-4,1
1558442070254848,-2,-1,0,2,7,11,2,-3
1558442070254848,-1,-1,-1,2,-7,-4,-1,-1
1558442070255611,-1,-1,-3,-2,-3,-2,-4,-1
1558442070255611,-2,-3,2,-1,-4,-3,-2,-3
1558442070261837,-1,0,1,-4,-2,-13,5,1
1558442070261837,-2,-1,-2,-1,1,-3,-1,1
1558442070269719,1,-1,2,4,-1,-6,-7,-4
1558442070269719,-1,-2,1,-1,-2,1,-3,-1
1558442070283710,-3,-7,-16,-8,-12,-2,-9,-6
1558442070283710,1,0,4,9,11,13,9,-1
1558442070291553,-2,-1,-1,-5,0,-10,0,-1
1558442070291553,-1,1,3,2,-4,-4,-6,-1
1558442070306476,1,-1,1,-4,-6,1,-4,-4
1558442070306476,-3,-1,-4,1,-6,1,-1,-2
1558442070307473,-1,0,-1,-1,-4,-11,-2,-1
1558442070307473,-3,-1,-2,0,3,6,5,0
1558442070321691,-2,-2,-2,-3,-2,-1,-2,-1
1558442070321691,3,0,6,7,11,15,5,2
1558442070329415,1,0,4,-5,-4,-2,-1,0
1558442070329415,1,0,-1,1,2,3,-1,0
1558442070343379,0,0,-4,-4,-1,-6,-1,3
1558442070343379,-3,-4,-3,-10,-12,-10,-6,-3
1558442070352353,-2,1,2,5,7,14,5,1
1558442070352353,0,-1,3,4,0,-11,-2,-2
1558442070367312,-2,-2,-14,-11,-6,-5,-5,-5
1558442070367312,1,0,7,10,4,5,-1,-1
1558442070368322,-1,-2,0,0,-8,-4,-1,0
1558442070368322,-3,-2,-7,-6,0,-9,-1,-1
1558442070381277,-1,0,7,13,4,11,1,-1
1558442070381277,-3,-3,-4,-7,-3,1,-3,-5
1558442070389278,-2,1,-2,-2,-7,-6,-2,-2
1558442070389278,4,3,8,10,16,12,12,7
1558442070403369,0,-3,-6,-10,-8,-14,-3,-1
1558442070403369,0,3,4,2,2,-3,1,0
1558442070412195,-4,-7,-11,-14,-7,2,-8,-5
1558442070412195,0,-2,-4,3,-8,-2,-1,-2
1558442070427155,0,0,0,-6,3,-2,-1,2
1558442070427155,-1,-1,1,3,-1,4,-1,-3
1558442070428151,0,0,-1,-1,0,-2,-1,-1
1558442070428151,-2,-2,-6,-1,-3,-6,-3,-2
1558442070441115,-1,0,-1,2,1,4,2,0
1558442070441115,-2,-2,-12,-8,-3,-2,-5,-2
1558442070449110,0,-1,-1,0,0,-13,-2,2
1558442070449110,0,-2,-5,-5,-6,-4,-2,-2
1558442070464120,-1,1,6,10,-1,6,-2,0
1558442070464120,1,2,10,8,7,-1,-1,-2
1558442070472033,-3,-5,-9,-12,-8,1,-3,-1
1558442070472033,-3,0,0,1,1,2,2,1
1558442070486993,-3,0,4,-4,1,-2,-1,-3
1558442070486993,-2,-3,-5,-6,-12,-10,-3,-1
1558442070487992,0,1,3,4,6,2,3,-1
1558442070487992,1,-2,0,-1,-1,-3,-3,-1
1558442070509933,1,1,6,3,9,5,2,1
1558442070509933,-2,0,-7,-3,-6,-2,-5,-4
1558442070510929,0,-1,-3,-5,2,-2,0,0
1558442070510929,-3,0,-1,1,0,3,0,-5
1558442070533069,-2,-3,2,4,-1,3,-1,1
1558442070533069,0,-1,2,1,1,-6,-2,-1
1558442070533069,0,-1,-3,-1,-7,-9,0,0
1558442070533069,1,-1,-2,1,2,-4,-4,0
1558442070547009,-1,-2,-9,-11,-4,-3,-3,-3
1558442070547009,-4,-2,-1,-1,2,9,1,-1
1558442070547836,-1,0,3,7,5,6,4,0
1558442070547836,-2,-1,-6,-14,-3,-7,0,0
1558442070560796,-3,-3,-2,4,-5,-7,-2,-1
1558442070560796,1,-2,-4,-3,-3,-5,1,-1
1558442070569773,-2,-1,-3,-1,-7,-5,-7,-5
1558442070569773,-1,1,3,1,1,6,0,-1
1558442070583735,2,0,-5,-4,4,1,4,0
1558442070583735,-3,-3,-1,2,-6,-2,-6,-3
1558442070591715,0,2,7,11,19,17,9,3
1558442070591715,1,1,-2,-12,0,-14,-1,0
1558442070606674,-3,-2,-6,-2,-12,-1,-4,-4
1558442070606674,-1,-2,-2,-2,-5,-7,-5,-3
1558442070607670,-1,0,1,-2,1,6,-3,-4
1558442070607670,-1,-1,-2,4,-2,1,-2,-3
1558442070621812,5,3,8,5,8,1,3,3
1558442070621812,0,-1,0,-7,1,1,2,1
1558442070629628,1,-1,4,4,-6,3,-4,-1
1558442070629628,-4,-3,-7,-3,-6,-2,-3,-3
1558442070643579,1,3,4,6,8,-1,3,2
1558442070643579,0,-2,-2,-4,-3,-10,-3,1
1558442070659534,-2,0,1,-1,-4,-8,-1,-2
1558442070659534,-1,-3,-6,-2,0,9,1,1
1558442070666515,-2,0,-3,2,5,-3,-5,-4
1558442070666515,0,0,-3,-5,2,9,4,-1
1558442070667510,-2,-1,-3,-2,-4,-5,-1,-2
1558442070667510,-3,-3,-4,-7,-12,-9,-7,-6
1558442070681474,-4,-2,-5,-4,-7,1,-2,-1
1558442070681474,0,1,3,7,6,-4,2,2
1558442070689486,0,-3,-4,0,-5,-1,-3,-1
1558442070689486,1,0,3,0,3,3,0,1
1558442070703417,-2,-3,-8,-4,4,1,0,-1
1558442070703417,-1,-1,-5,-13,-9,-7,-2,-1
1558442070711553,0,-1,-7,-4,3,3,0,-1
1558442070711553,-3,-4,1,-2,-2,1,2,-1
1558442070726356,0,-2,1,-2,-2,-5,-3,-1
1558442070726356,-2,-2,-4,1,-1,1,-3,-3
1558442070735331,1,-2,-5,-4,-2,-4,-2,-1
1558442070735331,-1,1,4,11,4,-4,-3,0
1558442070750289,-2,-2,3,-2,2,2,2,1
1558442070750289,2,1,2,2,3,1,4,1
1558442070751423,-2,1,3,0,1,4,-2,1
1558442070751423,-1,-2,-1,-2,-7,-8,-2,-3
1558442070764251,0,0,-1,0,1,2,2,1
1558442070764251,-3,-1,-5,1,-6,-6,-2,-1
1558442070772229,0,-1,-1,-2,-1,-4,-1,-2
1558442070772229,0,0,2,0,1,7,1,-1
1558442070786193,0,-2,-5,-11,-8,-3,-4,-4
1558442070786193,-2,-1,4,4,2,3,3,0
1558442070795169,-2,-1,-5,0,-2,-6,-1,3
1558442070795169,0,0,-6,-14,-2,-2,0,-2
1558442070801154,-2,0,4,4,-1,-2,-4,-2
1558442070801154,-2,-2,-1,-1,4,10,-1,-1
1558442070810131,-1,-1,3,0,1,2,2,0
1558442070810131,0,-2,-4,-1,-1,-3,1,2
1558442070824307,1,0,2,3,4,4,4,0
1558442070824307,0,-1,-1,0,-9,-10,-5,-4
1558442070833068,-3,-2,-3,-4,-10,-14,-11,-5
1558442070833068,-1,1,2,3,7,8,2,2
1558442070846033,0,1,4,2,5,2,2,1
1558442070846033,-2,-2,-5,-6,-1,-2,-3,0
1558442070855076,-1,-1,2,-2,-2,-5,0,-1
1558442070855076,-3,0,-1,-1,-1,-3,-2,-2
1558442070861003,-2,-1,-4,-2,-12,-14,-6,-3
1558442070861003,-2,-1,12,19,15,15,6,0
1558442070869968,-1,-2,-25,-25,-11,-13,0,0
1558442070869968,-1,-4,-8,-6,-10,-1,-4,-3
1558442070884113,1,2,5,4,9,13,5,1
1558442070884113,0,0,-3,0,0,0,0,1
1558442070892909,0,1,10,5,2,7,-2,1
1558442070892909,-2,-3,-3,2,-3,-7,0,0
1558442070905932,-1,-3,-5,-2,-5,3,-4,-3
1558442070905932,-2,-1,-4,-4,2,3,1,-1
1558442070921123,1,0,2,4,5,-4,3,2
1558442070921123,0,0,7,12,6,2,0,2
1558442070929819,-4,-3,-12,-25,-16,-7,-10,-4
1558442070929819,-3,-2,-3,1,-7,-13,-6,-5
1558442070931805,4,5,7,2,17,13,14,4
1558442070931805,0,-2,-4,-2,-3,-8,-8,-4
1558442070943794,-3,-4,-13,-8,-11,-4,0,0
1558442070943794,-2,1,1,-2,2,-1,-1,1
1558442070952747,-3,-2,1,6,-1,10,-1,-3
1558442070952747,-3,1,3,-2,-3,-2,4,1
1558442070966710,0,1,4,3,3,-4,0,0
1558442070966710,-2,-2,-3,-6,-10,-3,-5,-1
1558442070974848,-1,-3,0,4,5,-9,0,0
1558442070974848,4,1,1,-4,5,5,2,0
1558442070990756,-3,-2,1,0,-4,-9,-4,-3
1558442070990756,1,2,0,-2,-1,-7,-3,0
1558442070991644,-1,-6,-5,0,-7,12,-2,-1
1558442070991644,-2,-1,-2,-4,-11,-6,-5,-4
1558442071003611,0,-1,7,5,6,8,0,0
1558442071003611,0,-3,-8,-9,-4,-3,2,-1
1558442071012589,-3,-3,-5,-8,-7,-6,-6,-3
1558442071012589,-2,-3,-11,-10,-6,-5,-4,-1
1558442071026550,1,0,1,2,-5,0,3,0
1558442071026550,-1,0,7,7,20,13,5,1
1558442071035533,0,1,5,2,2,-2,2,1
1558442071035533,-1,0,0,3,0,-2,-2,1
1558442071050488,-1,-2,-15,-15,-9,-12,-3,-2
1558442071050488,0,-1,-2,2,-2,3,-2,-2
1558442071051485,-2,1,5,6,2,-4,-4,-1
1558442071051485,1,0,2,-2,0,11,4,1
1558442071063453,-1,0,0,6,3,6,0,-1
1558442071063453,0,2,3,5,3,-4,-2,-1
1558442071072427,-3,-3,-2,-12,-10,0,-6,-3
1558442071072427,0,-1,3,4,5,0,-1,-2
1558442071086397,-3,-2,-6,-3,-5,-7,-1,0
1558442071086397,0,-1,-1,-5,-6,-5,2,1
1558442071095366,-1,-1,3,6,1,2,0,-1
1558442071095366,-2,-2,-7,-5,-2,-3,-5,-2
1558442071110329,-1,-1,4,1,0,-5,-6,-3
1558442071110329,-3,-3,-4,-8,-7,-1,-5,-3
1558442071111322,0,0,1,11,7,4,4,0
1558442071111322,0,0,-7,-19,1,10,3,1
1558442071123581,-2,-4,0,-1,-2,3,-2,-2
1558442071123581,0,0,11,7,2,-10,-2,1
1558442071147228,-3,-5,-23,-16,-16,-9,-8,-5
1558442071147228,-1,0,8,10,4,9,1,-1
1558442071147228,2,1,5,5,8,0,3,3
1558442071147228,-4,-5,-11,-11,-12,1,-3,-1
1558442071155206,0,0,8,6,6,8,-1,-2
1558442071155206,2,-1,-3,1,0,-3,1,0
1558442071169169,-2,0,-2,-3,-2,-8,-3,-2
1558442071169169,1,1,3,9,-6,-8,-1,-2
1558442071176150,0,0,-1,-12,3,1,2,0
1558442071176150,-1,-4,-4,0,-8,-8,-3,-4
1558442071184132,1,2,6,9,8,1,5,2
1558442071184132,-1,-2,-5,-6,0,2,-2,-2
1558442071193108,-2,-1,-3,-3,-10,-10,-6,-4
1558442071193108,2,4,9,13,11,9,5,3
1558442071206068,-2,-3,-2,-2,3,-3,-2,-1
1558442071206068,-1,2,13,14,3,-7,-1,-2
1558442071215047,-2,-5,-25,-29,-3,-5,0,2
1558442071215047,-1,0,3,3,-6,-1,-7,-4
1558442071230006,-2,-2,-11,-10,-4,10,0,-1
1558442071230006,-1,-2,-2,0,-4,0,-4,-1
1558442071231003,-1,-1,9,5,3,2,1,0
1558442071231003,-2,-1,3,6,-5,-27,1,1
1558442071243968,0,-2,-9,-3,-2,1,0,-1
1558442071243968,0,-2,-6,-14,2,5,4,-2
1558442071252944,-4,1,9,12,8,13,2,-5
1558442071252944,-1,-2,-10,-13,-11,-2,-1,1
1558442071282866,1,1,15,14,-1,-14,-8,-2
1558442071282866,-1,-5,-18,-16,-6,3,-4,-1
1558442071283861,1,0,5,6,0,-8,1,0
1558442071283861,-2,1,4,4,6,8,0,-3
1558442071289845,0,-1,0,-6,-5,1,1,-1
1558442071289845,-4,-4,-11,-10,-6,-13,-4,-1
1558442071295829,1,-2,1,5,2,7,0,-3
1558442071295829,0,0,2,1,0,0,0,-2
1558442071303807,-1,-3,-10,-6,0,0,-2,1
1558442071303807,-3,-3,-4,0,-3,0,-3,0
1558442071312784,-1,-1,-4,-6,-12,-14,-6,-2
1558442071312784,0,-1,3,2,7,6,3,3
1558442071325749,1,0,9,9,12,13,4,0
1558442071325749,-1,-2,-4,-1,-3,4,1,-2
1558442071334727,-3,-3,-7,-11,-15,-15,-5,0
1558442071334727,-2,-2,-2,7,1,-9,1,-1
1558442071349686,-2,-1,-8,-15,-10,-13,-5,-3
1558442071349686,4,5,12,14,19,14,6,2
1558442071356676,3,-1,-6,1,4,3,-3,0
1558442071356676,-3,-3,-6,-6,-2,7,-1,-3
1558442071363651,-3,1,-2,0,-2,-1,-4,-3
1558442071363651,-2,-1,1,2,-12,-9,-6,-3
1558442071372624,2,0,5,-1,12,13,7,5
1558442071372624,0,-2,-1,5,2,-2,3,0
1558442071386631,-3,-3,-7,-11,-16,-11,-1,-2
1558442071386631,-2,-4,3,2,1,6,-4,-4
1558442071395578,-2,0,0,-2,-5,-9,-1,-1
1558442071395578,0,0,0,-6,1,-1,-7,0
1558442071408540,1,-1,6,5,6,4,1,0
1558442071408540,0,1,2,4,2,-4,2,1
1558442071417507,-1,-3,2,8,-5,-4,-4,-5
1558442071417507,-2,-2,-13,-30,-3,13,3,-2
1558442071423494,2,1,3,-2,-10,-27,-4,1
1558442071423494,2,1,2,-3,2,3,3,1
1558442071432471,1,3,4,15,20,16,8,2
1558442071432471,-3,-2,-1,-6,-7,-9,-7,-4
1558442071455403,-2,-2,-3,-6,-2,12,1,0
1558442071455403,-2,-1,2,-2,-7,2,0,-1
1558442071457397,-5,-3,-4,-5,-16,-9,-8,-4
1558442071457397,1,0,5,5,3,-6,4,1
1558442071468367,-2,-2,0,8,-2,7,2,-2
1558442071468367,2,-2,-12,-5,8,-2,6,4
1558442071477344,2,-1,-1,-4,-6,-18,-6,-2
1558442071477344,-1,1,5,6,7,3,1,3
1558442071484331,-2,0,-7,-6,-2,0,-5,-6
1558442071484331,-2,-2,0,0,-6,-2,-4,-4
1558442071492304,-2,-4,-5,-7,-5,7,-1,-4
1558442071492304,-4,-6,-1,-2,-14,-7,-9,-6
1558442071506270,1,3,10,8,7,-4,0,2
1558442071506270,2,1,1,-1,5,1,2,3
1558442071529210,3,4,13,20,22,4,8,4
1558442071529210,-2,-4,-14,-24,-15,1,-2,-3
1558442071530203,-4,-4,4,4,-2,5,-3,-4
1558442071530203,-4,-4,-4,-15,-10,-24,-8,-2
1558442071537183,2,0,7,15,7,12,3,2
1558442071537183,1,0,-4,4,-2,-11,-10,-4
1558442071544168,0,-1,-4,1,3,8,7,1
1558442071544168,-1,-1,5,3,2,-9,1,3
1558442071553153,-3,-1,-8,-14,-10,-2,-4,-5
1558442071553153,-1,-3,-2,4,-4,3,-4,-3
1558442071566109,-1,-2,-3,-6,1,-3,3,5
1558442071566109,1,1,0,3,0,-11,-2,1
1558442071575086,-2,-2,-3,-5,-4,-3,-2,0
1558442071575086,-2,-1,-1,-1,-1,-8,-6,-2
1558442071589051,-1,-3,-1,-1,4,8,-1,-4
1558442071589051,-1,-2,0,-1,3,14,2,-1
1558442071598021,0,0,0,1,4,-1,2,3
1558442071598021,1,2,10,2,-9,-14,-1,3
1558442071604011,-1,-3,-14,-15,-6,-9,-6,-6
1558442071604011,-1,0,-5,-2,2,12,6,0
1558442071612981,-2,0,3,-3,2,-6,-2,0
1558442071612981,-2,1,-1,3,8,11,7,2
1558442071625951,2,2,17,17,8,-6,-1,1
1558442071625951,-1,-6,-14,-11,-18,-5,-8,-6
1558442071634923,-4,-4,-11,-6,-3,7,2,-3
1558442071634923,2,2,10,12,7,-12,-2,2
