timestamp,emg1,emg2,emg3,emg4,emg5,emg6,emg7,emg8
1558442078416483,-1,-5,-15,-11,1,-1,1,-3
1558442078416483,1,1,6,-9,-3,-5,0,1
1558442078418477,-1,-1,-6,3,7,11,5,0
1558442078418477,-2,-1,-2,-5,-6,-3,-1,-1
1558442078419475,-2,1,8,12,-4,-2,-7,-3
1558442078419475,-2,-3,-6,-5,-1,1,5,1
1558442078420472,1,2,5,8,5,-9,-2,0
1558442078420472,0,-2,2,4,1,3,1,0
1558442078430446,0,-1,1,1,-1,0,-1,1
1558442078430446,1,-1,3,1,-3,-6,-10,-7
1558442078432440,-2,-4,-4,-7,-1,3,1,4
1558442078432440,-1,-1,-6,-8,-3,-16,-5,-5
1558442078437426,1,2,2,-3,4,1,1,0
1558442078437426,1,0,3,15,9,10,7,2
1558442078452386,-1,-2,1,-1,-9,-10,-6,-5
1558442078452386,-2,-3,-3,-7,-7,1,-5,-2
1558442078459369,-2,-2,0,0,0,1,2,1
1558442078459369,1,2,4,10,8,-2,-1,2
1558442078467346,-5,-4,-10,-15,-4,2,-3,-5
1558442078467346,-4,-5,-6,-3,-7,-3,-2,-2
1558442078491283,1,-1,-1,-2,-3,-1,-2,-3
1558442078491283,-4,-5,-7,-2,-2,8,-3,-2
1558442078494274,1,0,1,-4,-6,-8,-3,0
1558442078494274,2,1,4,10,7,-2,4,1
1558442078496269,0,1,-3,-4,3,-4,-1,2
1558442078496269,-3,-2,-4,-9,-7,-1,-5,-3
1558442078511230,-1,-2,-1,2,0,3,-1,-1
1558442078511230,2,3,9,12,8,7,3,-1
1558442078519208,-2,-3,-4,-17,-4,-15,3,1
1558442078519208,-2,-6,-13,-10,-8,-7,-5,0
1558442078558104,-3,-2,-4,1,0,8,3,-2
1558442078558104,-2,0,2,3,0,-1,-4,-2
1558442078559102,0,-1,1,1,1,4,-2,-1
1558442078559102,0,-1,0,3,1,-7,0,-2
1558442078559102,1,0,2,-3,-1,-6,1,0
1558442078559102,1,0,-5,-4,-2,6,5,3
1558442078560099,-3,1,11,21,6,-2,2,-1
1558442078560099,-4,-3,-6,-6,-7,-2,-5,-3
1558442078571068,-1,-5,-13,-15,-7,-3,-6,-3
1558442078571068,1,-1,-2,-4,-3,-9,-5,-4
1558442078579048,-2,-1,-1,-1,-6,-4,-5,1
1558442078579048,-3,-3,1,3,-6,-5,-3,-4
1558442078593011,-1,1,3,5,10,5,6,2
1558442078593011,-1,-1,3,0,0,-6,-2,-2
1558442078601986,-1,-3,-6,-6,4,7,3,1
1558442078601986,-1,1,0,0,3,9,3,0
1558442078607970,0,-2,-1,-4,-10,-10,-6,-3
1558442078607970,-2,0,6,6,0,1,-1,-3
1558442078615950,0,0,-4,-8,7,9,7,0
1558442078615950,1,0,4,4,-1,-10,0,2
1558442078630908,1,0,9,9,9,10,0,2
1558442078630908,-2,-3,-4,0,-3,-5,-3,1
1558442078638889,0,0,15,16,-6,-14,-7,-5
1558442078638889,-2,-3,-13,-30,-7,4,-2,-3
1558442078645869,-1,-1,-3,9,4,-1,-3,-1
1558442078645869,0,0,5,-5,-2,-11,2,2
1558442078661827,1,0,-2,-4,-7,-3,-3,-2
1558442078661827,0,-3,-7,5,-4,4,2,0
1558442078668809,-1,-2,3,3,-2,5,-3,-1
1558442078668809,-4,-1,-4,-5,-1,5,-1,-7
1558442078675791,-3,-3,-4,-4,-3,-12,-2,-1
1558442078675791,0,-2,-4,-2,-7,-5,-3,-1
1558442078690750,-3,-2,-1,-14,-2,1,-4,-1
1558442078690750,-1,-3,-2,7,3,8,1,0
1558442078714704,-3,-4,-7,-9,-6,4,-4,-2
1558442078714704,0,2,10,9,8,5,-1,0
1558442078716681,0,0,-1,0,-1,-25,1,2
1558442078716681,5,2,0,-4,11,0,4,4
1558442078721667,-3,0,-7,-5,-9,0,-4,-4
1558442078721667,-2,1,2,15,-1,4,-10,-6
1558442078728649,-2,-2,-10,-22,-14,-3,1,-1
1558442078728649,0,1,0,2,11,4,7,6
1558442078735639,0,1,-3,-6,8,4,5,1
1558442078735639,0,-1,5,7,0,6,2,0
1558442078750600,1,2,2,3,-2,-4,-4,-1
1558442078750600,-3,-6,-10,-10,-18,-4,-11,-9
1558442078767555,1,1,7,-1,1,1,1,1
1558442078767555,-1,-2,-7,0,10,-8,5,2
1558442078768547,1,2,-4,0,6,-7,2,3
1558442078768547,-3,-1,1,0,-7,-3,-4,0
1558442078781517,-3,-1,0,9,4,11,-1,-1
1558442078781517,-4,-1,0,-14,-11,-4,-5,-5
1558442078788490,-3,-5,-2,4,-8,-3,-5,-4
1558442078788490,0,0,-1,1,-1,8,0,-3
1558442078796472,1,-2,-2,-3,-2,-4,-2,1
1558442078796472,2,0,-1,3,-1,-2,1,-1
1558442078811435,-1,0,4,2,0,2,-1,-3
1558442078811435,-4,-1,2,-4,-1,-1,-2,-3
1558442078819441,-2,-2,-9,-7,-3,-8,-3,-3
1558442078819441,1,0,7,1,5,-6,1,4
1558442078826387,0,-2,-9,-5,-4,-4,-2,-1
1558442078826387,-2,1,7,6,0,4,1,-1
1558442078841347,-2,-2,-3,-3,-6,1,-4,-4
1558442078841347,-2,-3,3,8,0,11,0,0
1558442078848328,0,-1,-4,10,10,-5,2,1
1558442078848328,2,0,0,-21,-1,-9,5,5
1558442078856305,-1,-2,1,0,-2,-5,-4,-1
1558442078856305,0,1,1,5,3,6,-3,0
1558442078871266,-2,2,10,8,-4,0,-3,-2
1558442078871266,-3,-3,-17,-6,-9,0,-8,-7
1558442078879245,1,-2,-4,0,-7,-5,-1,1
1558442078879245,2,3,3,-3,7,4,6,1
1558442078886227,-1,-1,-1,-1,1,1,1,0
1558442078886227,-1,0,2,5,4,-3,0,2
1558442078901187,-3,1,0,3,-11,-13,-7,-7
1558442078901187,-3,-5,-18,-15,-7,4,1,0
1558442078908168,0,2,11,14,21,23,15,7
1558442078908168,0,0,-3,-2,-3,-17,-6,1
1558442078916157,2,3,2,0,8,-1,1,3
1558442078916157,-3,-2,3,-2,-5,-7,-6,-3
1558442078931109,0,-2,-7,-7,-7,-7,-7,-5
1558442078931109,-1,-2,-1,0,-8,-4,-4,-7
1558442078939094,0,-1,-1,4,7,6,6,0
1558442078939094,-1,0,2,-2,1,0,-2,1
1558442078946067,-2,-2,-2,-3,-7,-7,-5,-3
1558442078946067,-1,2,9,18,5,6,3,2
1558442078962024,2,0,-13,-19,-3,0,4,-1
1558442078962024,-2,-1,0,0,-3,-5,-5,-5
1558442078968009,-1,-2,-10,-26,-1,5,-2,-2
1558442078968009,0,0,4,7,1,-4,0,-1
1558442078975986,0,-2,4,-1,0,-3,-1,4
1558442078975986,0,1,-3,-3,-1,3,2,-4
1558442078990947,-2,0,3,11,-5,-1,-7,-5
1558442078990947,0,-2,-9,-20,-13,5,0,-2
1558442078998925,3,4,31,28,29,-5,14,10
1558442078998925,-7,-12,-38,-33,-25,-30,-9,2
1558442079005906,-4,-6,1,8,-9,-4,-7,-5
1558442079005906,-2,-2,-2,-6,2,6,1,0
1558442079021863,-4,0,0,7,-9,-1,-7,-6
1558442079021863,2,1,8,7,9,6,4,1
1558442079028847,1,0,0,2,7,8,8,0
1558442079028847,-1,-3,-9,-6,-10,-13,-7,-3
1558442079035826,-2,-2,-9,-10,-3,6,-5,-3
1558442079035826,1,4,9,13,10,5,2,1
1558442079050786,-2,-2,-8,-16,-10,-8,-4,0
1558442079050786,-1,-1,-4,8,15,11,9,2
1558442079058766,-1,-5,-12,-22,-7,1,-1,-2
1558442079058766,-4,-1,6,8,-6,-9,-7,-3
1558442079065747,-1,-1,-4,-2,-4,-7,-2,8
1558442079065747,-4,-2,-7,-11,-2,2,-1,-12
1558442079081703,0,2,7,9,1,-3,-3,-2
1558442079081703,0,0,-15,-16,11,17,9,4
1558442079104643,0,-2,5,0,-5,-15,-5,-4
1558442079104643,-1,0,2,3,1,-2,-2,5
1558442079105640,-1,-1,-4,-5,-4,-4,2,-1
1558442079105640,-1,1,8,6,6,9,1,-2
1558442079110626,-4,2,0,-3,-5,0,-2,-2
1558442079110626,0,1,10,16,12,6,2,-1
1558442079119602,-3,-5,-19,-24,-13,-2,-3,-2
1558442079119602,0,-1,-1,0,-7,-16,-7,-1
1558442079125586,-2,1,-9,-16,-14,-3,-5,-4
1558442079125586,-2,-2,2,14,5,12,4,1
1558442079156503,-2,-3,2,3,-7,-6,-6,-3
1558442079156503,-1,1,-4,-4,8,9,9,3
1558442079166477,0,-4,0,-5,3,8,-2,-3
1558442079166477,-1,-2,-5,-2,-10,-11,-9,-1
1558442079166477,1,0,1,3,7,2,2,1
1558442079166477,-3,-2,1,1,-7,-8,-7,-4
1558442079170467,2,2,5,8,4,-1,2,-1
1558442079170467,2,0,-6,-9,-2,0,1,0
1558442079178447,-4,-3,2,6,0,-3,-3,-2
1558442079178447,-1,-3,-2,0,-4,-6,-5,-1
1558442079187420,-1,-4,-4,-3,0,5,6,2
1558442079187420,-2,-1,0,-5,-1,-5,-3,0
1558442079209361,-1,1,-5,-2,-4,2,0,-1
1558442079209361,0,1,7,5,4,4,0,-3
1558442079211356,-1,0,-1,-2,0,0,-4,-5
1558442079211356,0,-2,1,14,1,1,0,-2
1558442079224323,-3,-1,-4,-13,3,-2,3,2
1558442079224323,1,-1,-4,-2,-8,-12,-3,0
1558442079231305,-1,1,2,2,5,-3,-2,-2
1558442079231305,-2,-2,0,-6,-10,4,-1,-2
1558442079238285,-3,-3,-2,1,-3,2,-8,-2
1558442079238285,0,1,0,-2,1,-3,1,1
1558442079247260,-2,-1,14,17,0,-3,2,1
1558442079247260,1,-1,-8,-18,2,4,0,-3
1558442079261224,-1,-1,-9,-10,-3,-3,-2,-2
1558442079261224,1,2,17,15,7,4,3,0
1558442079268204,-4,-6,-29,-27,-6,2,-5,-2
1558442079268204,-1,1,10,5,2,4,3,4
1558442079284162,1,-2,1,-1,-2,2,-5,-3
1558442079284162,0,-2,-6,-4,-8,-14,-5,-3
1558442079291143,1,0,9,14,13,-1,4,3
1558442079291143,-3,-1,-4,-3,-9,-12,-4,-2
1558442079298124,0,0,-2,-1,-5,1,-4,-3
1558442079298124,0,1,4,6,6,18,3,0
1558442079307103,2,4,9,5,3,-4,0,0
1558442079307103,-4,-6,-11,6,5,0,-1,0
1558442079322060,2,1,7,5,-1,-2,3,4
1558442079322060,-2,-1,-8,-6,-1,9,-6,-9
1558442079328044,-3,-1,4,4,-1,6,5,1
1558442079328044,4,4,1,-1,2,-11,-1,0
1558442079344002,-4,0,3,8,3,-1,1,1
1558442079344002,-6,-4,-14,-17,-7,-4,-4,-1
1558442079350983,0,0,-3,2,2,0,-4,-4
1558442079350983,0,-2,0,-7,-9,1,-1,0
1558442079357964,-1,-1,6,4,-5,-5,-2,-4
1558442079357964,1,-2,-14,-14,-4,-5,0,0
1558442079375918,-2,0,-1,-5,3,4,2,0
1558442079375918,-3,-2,5,2,7,1,-2,1
1558442079381903,-1,-1,-5,-5,-10,-10,-8,-4
1558442079381903,-1,-2,-4,0,0,3,-1,-2
1558442079388882,1,1,2,1,4,-12,2,5
1558442079388882,-1,-2,3,11,1,2,-1,-5
1558442079403841,-2,-1,-2,-24,-11,-3,-3,-6
1558442079403841,-2,0,10,15,4,0,-1,-1
1558442079410823,1,0,-10,-3,-3,5,4,1
1558442079410823,0,1,-2,-1,-3,5,2,2
1558442079434759,0,0,9,22,9,-2,1,-1
1558442079434759,-2,-5,-15,-20,-9,-24,-5,-1
1558442079435757,0,0,1,-8,1,13,-1,0
1558442079435757,-1,-2,-2,-2,-7,-11,-5,-2
1558442079441742,0,-1,-3,1,7,18,7,0
1558442079441742,-1,0,9,9,5,5,5,1
1558442079448721,1,0,-5,0,-3,-11,-4,2
1558442079448721,-5,-4,-9,-16,-5,4,-4,-5
1558442079463683,0,2,5,9,1,-9,-4,0
1558442079463683,-6,-8,-19,-26,-20,-21,-13,-7
1558442079470663,0,-1,-6,-9,2,18,9,-2
1558442079470663,1,2,2,2,3,-3,1,6
1558442079486620,-1,0,-2,0,9,-3,2,-4
1558442079486620,0,-2,10,7,-2,1,-6,-2
1558442079493607,-2,-3,-1,3,-3,0,0,-2
1558442079493607,-2,-2,-3,-7,0,-10,0,0
1558442079501581,-1,-2,-3,-4,-4,2,-2,-1
1558442079501581,1,1,4,6,-3,-3,-4,0
1558442079508564,1,2,6,-2,1,-7,-1,-4
1558442079508564,0,2,11,13,2,6,4,1
1558442079524520,-4,-6,-27,-27,-9,-1,1,2
1558442079524520,-1,0,-5,-9,-2,6,-3,-6
1558442079548460,-5,-7,-7,-9,-17,-5,-10,-3
1558442079548460,0,2,12,11,1,-5,0,-1
1558442079548460,1,0,-13,-14,8,10,6,2
1558442079548460,4,2,6,6,7,2,9,5
1558442079553449,1,1,1,1,-1,-2,-1,-1
1558442079553449,-2,-4,-6,-8,-2,1,-4,-2
1558442079561421,0,-1,4,5,-9,-2,-5,1
1558442079561421,-3,-1,-1,0,3,5,5,-4
1558442079569403,-1,-2,2,9,-2,-5,-3,-5
1558442079569403,-3,-4,-10,-7,-11,-5,-7,-4
1558442079584363,2,1,5,9,1,-8,-3,1
1558442079584363,4,3,7,1,10,4,8,7
1558442079598325,-2,0,5,7,1,-1,-4,-5
1558442079598325,-3,-5,-13,-17,-5,2,-2,-1
1558442079606302,-2,-3,-3,0,-2,9,-1,-3
1558442079606302,-2,-2,3,-1,-3,-13,-5,0
1558442079615278,-1,0,0,-3,1,9,3,0
1558442079615278,-1,0,-7,-12,2,1,1,-1
1558442079630236,-1,-1,1,7,5,1,3,0
1558442079630236,-3,0,4,5,-6,-8,-2,-1
1558442079631236,-1,0,-7,-8,-2,-8,-6,-1
1558442079631236,0,1,2,2,2,7,-2,-1
1558442079651182,-1,1,3,8,1,-7,1,-1
1558442079651182,0,1,-2,-5,-5,4,3,1
1558442079660158,-2,-3,-3,2,-7,-14,-7,-4
1558442079660158,3,2,2,4,5,0,1,3
1558442079667140,1,-2,-3,-11,-3,5,0,3
1558442079667140,-1,-1,-2,-1,-4,-2,-2,-8
1558442079673122,-2,-3,-4,-9,-3,2,-2,-3
1558442079673122,0,-1,-2,1,-3,-6,-1,-2
1558442079690076,-1,-2,1,1,-5,-8,-2,-3
1558442079690076,1,1,9,19,17,-3,3,6
1558442079691074,-2,-4,-9,-13,-6,0,0,-1
1558442079691074,-2,-3,-4,-12,-2,-8,-5,-4
1558442079704044,-2,-1,0,3,-11,-2,-5,0
1558442079704044,-1,-2,-2,4,5,15,2,1
1558442079711020,-2,-1,0,10,5,-3,-3,-3
1558442079711020,-3,-1,-8,-16,-8,-1,0,-2
1558442079726980,1,-1,1,0,-1,-17,-4,-1
1558442079726980,-3,0,3,0,-7,0,-8,-7
1558442079733960,2,1,-5,-3,10,12,6,4
1558442079733960,1,0,-2,5,1,4,4,2
1558442079749922,-1,1,6,1,-4,-1,-5,-4
1558442079749922,-2,-1,-4,1,4,8,2,1
1558442079750914,1,2,-3,-16,-8,-15,-3,1
1558442079750914,-1,1,6,10,10,14,3,-1
1558442079764884,0,2,2,1,-1,-7,1,1
1558442079764884,-2,-3,-6,-4,-3,7,0,-1
1558442079770865,0,-1,8,13,11,8,3,-4
1558442079770865,-1,-2,2,3,-9,-15,-6,-4
1558442079786818,-3,-1,-1,-1,7,3,3,2
1558442079786818,-4,-4,-8,-18,-12,-6,-8,-6
1558442079793799,-3,2,6,8,4,-3,1,2
1558442079793799,-3,-5,-12,-18,-15,-5,-3,-2
1558442079817734,-1,-3,2,5,5,5,-2,-5
1558442079817734,1,2,0,2,8,-9,5,8
1558442079825713,-1,-2,0,0,-3,4,-4,0
1558442079825713,1,2,14,17,0,-4,-4,-3
1558442079826710,-2,-5,-13,-13,-7,2,3,0
1558442079826710,-1,-2,-11,-9,-1,-14,-3,-1
1558442079830699,-1,-3,6,3,0,0,-5,-2
1558442079830699,-2,0,2,5,6,10,5,4
1558442079846663,0,0,-1,-5,-1,5,-2,-3
1558442079846663,4,0,2,2,2,3,2,4
1558442079853645,-2,3,8,17,5,-7,1,-5
1558442079853645,-2,-4,-17,-19,-10,-9,-5,-3
1558442079886554,-3,0,3,7,0,-4,-2,2
1558442079886554,1,2,4,0,2,5,0,-3
1558442079887551,-1,-1,-3,0,2,13,4,4
1558442079887551,-2,1,8,11,2,-8,1,-1
1558442079888548,0,-1,-2,-9,-1,3,1,-1
1558442079888548,-5,-6,-7,-6,-13,-3,-11,-8
1558442079892539,-1,-2,-8,-1,-11,2,-1,-1
1558442079892539,3,2,11,5,16,-9,7,8
1558442079906498,-2,0,-6,-2,0,7,0,0
1558442079906498,-1,0,4,3,-6,-4,-8,-4
1558442079913482,1,-1,-2,-4,1,4,2,2
1558442079913482,1,1,1,2,0,-5,-4,-5
1558442079937415,1,0,13,7,4,3,0,-2
1558442079937415,-2,-4,-14,-13,-9,1,2,-2
1558442079938413,-3,-2,7,8,-9,-10,-7,-3
1558442079938413,2,1,-3,-3,5,-1,3,3
1558442079944396,-1,1,-5,0,5,3,3,0
1558442079944396,-3,-2,2,-3,-2,2,-2,-2
1558442079951378,0,-1,-4,-11,-2,-3,-1,0
1558442079951378,-1,1,5,9,-1,11,-1,-3
1558442079966336,1,-2,1,1,1,-5,-1,-1
1558442079966336,-2,-1,-1,0,8,7,2,0
1558442079973317,1,0,0,-4,-1,1,3,10
1558442079973317,-3,-4,-10,-10,-9,1,-6,-13
1558442079990276,-1,1,3,6,4,-2,2,2
1558442079990276,3,2,5,3,2,-12,-1,-1
1558442079991275,-1,-2,1,1,1,1,-1,-1
1558442079991275,0,-1,3,7,-6,3,-1,1
1558442080004240,-2,-2,5,8,-4,-4,-7,-3
1558442080004240,-3,-4,-27,-28,-9,-12,-5,0
1558442080011219,-2,0,-1,-3,-3,-10,-1,-2
1558442080011219,-2,0,-1,5,8,5,4,1
1558442080027177,0,-2,-10,-10,-11,-10,0,-3
1558442080027177,2,1,8,-2,1,13,4,4
1558442080033265,-2,-4,-2,3,-2,2,-3,-5
1558442080033265,-2,-3,-4,-6,1,1,-4,-2
1558442080050125,0,2,3,2,4,-10,1,4
1558442080050125,-2,-1,2,0,-3,-2,-3,-2
1558442080051113,-1,-4,-10,-13,-7,-4,-4,-4
1558442080051113,-3,-4,-1,0,-10,-3,-7,-4
1558442080064181,-2,-1,-3,-1,3,20,6,2
1558442080064181,0,2,6,11,5,-3,5,-3
1558442080071058,1,1,3,1,10,-2,5,3
1558442080071058,1,1,-1,-3,-5,-7,-5,-1
1558442080087017,-1,-2,-4,-8,-5,0,-5,-3
1558442080087017,-2,-3,-5,-3,-10,-6,-5,-3
1558442080093001,0,-1,1,10,0,7,0,-1
1558442080093001,1,1,10,11,12,-6,6,2
1558442080109957,-1,-3,-26,-41,-12,-7,-4,-1
1558442080109957,1,2,13,18,12,8,0,0
1558442080110950,-6,-6,-8,-3,-15,-6,-7,-4
1558442080110950,-1,-2,-12,-5,-4,1,-1,2
1558442080122920,0,-1,0,8,-1,0,-1,-3
1558442080122920,-1,-2,7,4,6,4,1,0
1558442080131895,0,0,-4,-7,-1,-2,1,-1
1558442080131895,-1,1,2,-1,7,0,2,0
1558442080146855,-3,-2,0,0,-6,0,-9,-4
1558442080146855,0,2,-1,0,-1,-2,5,4
1558442080153836,2,3,4,8,6,-11,1,4
1558442080153836,1,0,-4,-8,-1,1,-1,1
1558442080169858,-5,-9,-10,-24,-4,-5,-2,-8
1558442080169858,0,-1,6,7,-3,-2,-6,-2
1558442080170793,-3,-1,-5,-2,-12,0,-4,-3
1558442080170793,-5,-5,-4,-16,-6,-5,-6,-2
1558442080183766,-4,-2,-5,3,-4,-8,-5,0
1558442080183766,-1,-2,0,4,-1,1,2,0
1558442080192733,2,1,4,-4,5,6,5,0
1558442080192733,0,1,-11,-12,3,9,4,0
1558442080206705,2,1,18,18,15,-2,4,3
1558442080206705,-3,-5,-11,-9,-16,-13,-11,-4
1558442080213687,0,1,-4,0,3,4,1,-1
1558442080213687,-1,-2,3,-1,-6,-4,-4,-1
1558442080230635,0,2,-1,13,8,1,2,1
1558442080230635,-2,-3,1,-1,-12,-15,-5,4
1558442080231633,-5,-4,-9,-13,-9,-3,-6,-10
1558442080231633,0,-4,4,7,1,8,0,-3
1558442080252682,1,2,10,5,6,5,4,4
1558442080252682,0,1,0,6,1,4,1,0
1558442080253576,-4,-5,-10,-10,-7,-6,-8,-5
1558442080253576,-1,-2,-7,-11,-13,-9,-2,-1
1558442080266536,4,5,10,16,22,24,14,6
1558442080266536,-1,-1,2,-2,6,-2,3,0
1558442080273521,-1,-3,-4,-6,-2,-4,0,0
1558442080273521,-1,-3,2,9,-2,-1,-5,-2
1558442080297453,1,-4,-3,-5,-10,-5,-9,-5
1558442080297453,0,0,2,5,10,10,4,-2
1558442080298452,2,4,3,1,6,-1,7,7
1558442080298452,-3,-2,2,2,-6,-6,-6,-7
1558442080303438,-4,-3,-6,-1,-16,-11,-12,-8
1558442080303438,2,1,-3,-3,7,2,9,10
1558442080312414,-1,-3,6,8,-6,-9,-9,-11
1558442080312414,-1,0,-4,-8,6,7,3,4
1558442080326376,-1,2,0,-4,-3,-8,0,-2
1558442080326376,-1,-2,9,10,1,9,-4,-7
1558442080333359,0,0,-5,-9,-3,2,-1,1
1558442080333359,0,2,4,4,10,2,4,3
1558442080349343,-2,-2,-2,-6,-9,-8,-3,-3
1558442080349343,-4,-2,-6,-9,-3,1,-3,-4
1558442080356646,-1,0,1,7,-2,5,0,0
1558442080356646,1,2,2,5,2,-4,0,-2
1558442080363666,-3,-3,-7,-14,-10,-13,-2,-1
1558442080363666,-1,-2,0,-3,-4,-8,-4,-1
1558442080387769,-1,-1,-5,-8,-1,1,0,1
1558442080387769,-1,-2,4,8,1,6,0,-1
1558442080387769,-1,1,-2,2,-3,-1,-2,1
1558442080387769,-3,-3,-6,-1,-3,-4,-7,-7
1558442080393490,3,2,-2,-9,1,-5,1,2
1558442080393490,0,-2,1,-2,-2,4,2,1
1558442080409446,1,-2,1,8,-2,-3,-2,2
1558442080409446,0,0,0,1,7,5,3,-1
1558442080416592,-4,-2,4,5,-2,2,-3,-3
1558442080416592,-3,-3,-13,-11,-8,-5,-4,-6
1558442080423615,3,1,-1,-9,-3,-10,1,4
1558442080423615,0,-3,-19,-17,0,10,6,2
1558442080432395,0,-1,4,6,7,1,1,0
1558442080432395,-3,-3,0,2,-3,1,0,-3
1558442080446490,-3,-2,0,6,5,9,-4,-4
1558442080446490,2,1,-1,-10,-7,-19,-2,2
1558442080461497,0,1,6,6,5,-1,4,3
1558442080461497,-1,-1,-7,-2,-7,-7,-6,-3
1558442080469500,-2,-2,-2,0,-5,7,-2,-3
1558442080469500,-3,-2,1,-1,-6,-6,-6,-1
1558442080476268,0,0,-4,-1,6,1,-1,-1
1558442080476268,0,1,4,2,2,-4,2,0
1558442080492230,-1,-3,-2,1,3,13,6,3
1558442080492230,0,-1,3,-1,-3,5,-2,-8
1558442080494219,0,-1,-6,-1,-3,3,-4,-2
1558442080494219,0,4,19,18,2,-6,-2,1
1558442080507191,-1,-2,-25,-22,-9,-8,-5,-3
1558442080507191,-4,1,6,17,6,9,5,2
1558442080513167,-2,-5,-6,-17,-8,-11,-6,-3
1558442080513167,-3,-4,-9,-5,-4,-1,1,0
1558442080529128,0,2,11,9,4,-14,-3,-1
1558442080529128,0,-1,3,0,-6,0,-4,-4
1558442080543121,-2,0,-10,-14,1,-1,2,1
1558442080543121,1,3,12,11,17,11,9,4
1558442080553093,-4,-5,-11,-12,-20,-11,-12,-8
1558442080553093,-2,-3,-13,-13,-7,-1,-7,-4
1558442080554382,1,1,11,3,2,-12,5,3
1558442080554382,-2,-3,-8,-11,-8,-9,-5,-2
1558442080567266,1,0,4,4,9,15,11,3
1558442080567266,0,-1,-1,-3,-5,-6,-6,-4
1558442080574227,-1,-4,-2,4,-6,22,-3,-3
1558442080574227,0,1,-3,0,2,1,3,1
1558442080589280,-1,1,1,-8,-2,-12,-3,4
1558442080589280,-3,-1,2,-1,-13,-24,-9,-10
1558442080595976,2,-1,5,14,12,10,6,2
1558442080595976,1,-2,-5,-9,-3,1,-3,-3
1558442080612931,-4,-5,2,10,-4,-7,-4,-1
1558442080612931,-2,0,-4,-4,-6,3,3,3
1558442080613903,-1,-2,3,4,6,-12,-1,1
1558442080613903,-2,-2,-2,5,-6,-3,-4,-3
1558442080626862,0,3,6,10,7,16,5,-2
1558442080626862,-2,-4,-7,-3,1,-6,-2,0
1558442080633875,-2,0,9,3,-3,7,0,-4
1558442080633875,-1,-1,-8,-3,-1,-1,-4,-1
1558442080649832,-1,0,-4,-4,0,-1,-1,-2
1558442080649832,-2,1,1,-2,2,6,3,2
1558442080656076,1,0,-1,3,0,-10,-1,0
1558442080656076,0,0,3,-3,1,-1,0,0
1558442080679931,-1,-2,1,2,-6,4,-2,-1
1558442080679931,-1,-2,-2,4,-3,1,-2,-2
1558442080681716,0,-1,-8,-10,2,-7,2,2
1558442080681716,1,-1,-3,-9,-1,6,4,0
1558442080686925,-1,-1,1,1,5,-12,-2,-4
1558442080686925,-3,-1,4,1,-1,0,1,3
1558442080693727,-2,-2,-3,-2,-2,7,-1,-2
1558442080693727,-1,-2,-2,-4,-5,-14,-2,0
1558442080709647,3,4,3,2,15,14,11,4
1558442080709647,-3,-4,-3,-2,-9,2,-4,-5
1558442080715628,-4,-4,-12,-21,-12,-3,-10,-6
1558442080715628,-1,-1,5,10,3,5,0,1
1558442080732582,2,2,6,-7,7,-4,2,3
1558442080732582,2,3,5,5,7,7,5,2
1558442080733578,-1,-2,-12,-1,-7,-8,-5,-4
1558442080733578,-5,-4,-10,-19,-14,3,-8,-10
1558442080746547,0,-1,0,1,-5,-21,-2,-2
1558442080746547,2,0,5,11,11,5,4,4
1558442080753552,-2,-3,-6,-17,-7,2,-3,-3
1558442080753552,-1,-1,1,12,3,4,-2,1
1558442080769809,-3,-3,1,1,-3,2,-2,-3
1558442080769809,-2,-2,-9,-10,-4,-13,-7,-4
1558442080775485,0,0,9,9,0,1,1,2
1558442080775485,0,-1,-3,-6,4,10,7,5
1558442080791424,-1,0,-1,1,-2,-8,-2,-8
1558442080791424,2,-1,2,0,7,15,8,5
1558442080792420,-1,-1,7,17,-2,-10,-7,-7
1558442080792420,1,-2,-15,-31,-8,-18,-4,3
1558442080807443,2,0,5,5,1,9,-3,1
1558442080807443,-1,1,2,-1,3,-1,3,4
1558442080813647,-1,0,-4,3,2,2,-1,2
1558442080813647,-2,1,6,1,-2,0,-3,-4
1558442080828324,-3,-2,-5,4,-11,-2,-8,-6
1558442080828324,-2,-3,2,-5,0,5,2,-2
1558442080836548,-2,-1,-2,-7,-5,-2,-1,3
1558442080836548,-2,-4,-4,0,0,-5,-3,-3
1558442080852303,-1,1,1,2,-1,-2,-3,-2
1558442080852303,-2,-2,-7,-11,-8,-8,-6,-4
1558442080852303,1,1,5,4,3,3,7,2
1558442080852303,0,0,1,6,6,-6,0,-2
1558442080867407,-2,-2,-3,5,9,24,7,2
1558442080867407,-1,-2,-1,5,-6,-12,-8,-4
1558442080882183,-2,-4,-3,-7,0,-7,-2,-2
1558442080882183,0,2,9,6,3,5,3,2
1558442080888377,0,-3,-13,-5,-5,-3,1,0
1558442080888377,-1,0,6,4,12,19,6,2
1558442080896183,1,-1,-4,-3,-1,4,-1,-5
1558442080896183,-1,0,1,-2,-8,3,1,-1
1558442080912127,-2,-2,-2,-10,-10,-8,-5,-4
1558442080912127,2,1,1,4,10,-2,7,4
1558442080912127,1,0,2,1,1,-16,-2,2
1558442080912127,-3,-1,1,2,-1,-3,-6,-3
1558442080927070,-1,-2,-12,-12,-7,7,1,-1
1558442080927070,-3,-3,-2,0,-9,9,-6,-6
1558442080933045,1,-1,-5,-10,-1,2,4,-1
1558442080933045,0,1,-2,2,-3,-6,-1,-3
1558442080949999,-1,-4,5,4,-5,-8,-2,-2
1558442080949999,-3,1,-2,-3,10,5,4,-1
1558442080955983,-2,1,-5,0,-1,-5,-2,2
1558442080955983,-2,-1,14,19,7,3,0,-1
1558442080971972,-3,-3,-20,-27,-8,-3,-7,-1
1558442080971972,0,-2,3,-1,-10,-10,-7,1
1558442080971972,-1,0,9,13,-1,5,2,-8
1558442080971972,-2,-1,-14,-9,-3,-10,-3,1
1558442080995910,2,-2,6,2,10,1,4,5
1558442080995910,-1,2,-4,3,-7,-10,-5,-3
1558442080995910,-3,-2,-2,-7,5,18,3,2
1558442080995910,-1,1,7,8,-3,-7,-2,-1
1558442081009838,-4,-2,-5,1,-4,-2,-2,-3
1558442081009838,0,0,-10,-13,1,1,5,1
1558442081015823,2,1,11,11,-2,-12,-3,0
1558442081015823,0,-2,-18,-18,-3,3,1,1
1558442081031779,1,2,9,10,5,2,0,-1
1558442081031779,-3,-3,-2,0,-6,-2,-6,-4
1558442081031779,-3,-3,-5,-9,-14,-8,-5,-5
1558442081031779,1,-2,0,1,1,6,0,-1
1558442081047736,-4,-2,2,-1,4,-3,-1,-2
1558442081047736,2,-1,-4,-5,-7,-7,-3,-2
1558442081053719,3,2,6,9,17,1,11,8
1558442081053719,-1,2,0,-8,-1,-11,-2,-2
1558442081069678,0,0,-2,10,7,10,5,0
1558442081069678,0,-1,9,0,-13,-5,-5,-1
1558442081075675,-4,-5,-22,-20,-9,0,-9,-7
1558442081075675,-1,-2,4,15,3,7,2,1
1558442081091621,0,0,3,-1,-1,-1,-1,-3
1558442081091621,1,3,6,9,9,3,5,1
1558442081092618,0,-3,-2,0,-3,-1,-6,-2
1558442081092618,-3,-3,0,-3,-4,1,-2,-1
1558442081107577,-2,-1,-2,-8,-5,-18,-6,-1
1558442081107577,-2,-1,-4,-11,-8,1,-2,-6
1558442081113561,-2,1,3,2,-3,8,-4,-3
1558442081113561,-1,-1,3,7,3,-3,-4,0
1558442081129520,0,0,-1,-10,2,4,5,1
1558442081129520,0,1,-1,4,-2,-12,0,3
1558442081135503,-2,-3,-12,-8,5,3,4,3
1558442081135503,-1,-4,-4,-2,-1,14,3,-3
1558442081159440,-1,0,1,-5,-6,-6,-4,0
1558442081159440,-1,-1,0,1,4,-5,-3,-1
1558442081159440,-2,-1,-1,-5,-5,-5,-2,-5
1558442081159440,0,-1,2,7,-2,-3,-1,1
1558442081167416,-2,-2,-4,2,-2,6,0,-1
1558442081167416,-3,-1,-4,-13,-5,-7,-4,-4
1558442081173399,1,2,-1,4,3,5,3,3
1558442081173399,1,1,-1,-6,-1,0,2,-1
1558442081189395,0,-2,-2,6,-2,-12,-6,-2
1558442081189395,1,0,2,10,6,8,5,2
1558442081196342,0,-2,-8,4,-2,-2,-1,8
1558442081196342,-3,-3,-2,-11,-4,-8,1,-15
1558442081211300,2,1,4,4,4,3,1,0
1558442081211300,0,-5,-1,11,-3,-6,-5,1
1558442081212297,0,0,3,-6,-3,-4,0,1
1558442081212297,0,0,1,0,8,-1,2,4
1558442081234237,-3,-4,-1,4,-10,-1,1,-3
1558442081234237,-1,-1,-2,-2,10,10,3,-2
1558442081234237,0,1,10,11,-4,-6,0,-2
1558442081234237,-1,-2,-10,-18,-3,-6,-6,-1
1558442081250196,-2,0,-2,-8,-4,-1,-7,-5
1558442081250196,-2,-2,-6,-6,-3,10,1,3
1558442081256181,-3,-1,6,8,7,9,4,-4
1558442081256181,1,-1,4,4,-3,-16,-5,0
1558442081272135,0,2,0,-3,-1,0,0,2
1558442081272135,-1,-1,-7,-2,5,-1,-3,-3
1558442081278148,0,-1,1,-1,-6,-2,-5,-4
1558442081278148,-2,-2,-3,4,0,4,1,-1
1558442081294079,0,0,-1,-2,-1,-4,1,-3
1558442081294079,-2,-1,-1,-3,-7,-2,-7,-4
1558442081295076,-1,-1,1,-2,-2,4,4,-2
1558442081295076,-1,1,-2,-2,3,0,-1,0
1558442081310036,0,-6,-6,-6,-5,-1,-2,0
1558442081310036,-2,-4,-1,-9,-9,-3,5,-1
1558442081316018,0,-2,4,6,1,-4,-7,-2
1558442081316018,-4,-2,-6,-12,-12,1,-3,1
1558442081330978,0,1,6,4,7,-1,4,3
1558442081330978,2,1,6,10,5,-3,1,0
1558442081337959,0,-3,-12,-23,-2,5,-1,-4
1558442081337959,-2,-2,-13,-13,-14,-4,-2,-2
1558442081353919,-1,-2,-4,-8,-1,-2,-1,0
1558442081353919,-1,0,0,4,-2,2,1,3
1558442081354917,-2,-2,0,4,-2,-5,-1,-3
1558442081354917,5,3,9,13,13,7,3,2
1558442081369874,-4,-1,-7,-3,-3,1,-4,-5
1558442081369874,1,1,-3,-4,0,-13,-1,1
1558442081383837,-2,-1,1,1,0,1,-1,0
1558442081383837,0,-1,-1,1,-3,-5,1,1
1558442081390819,-2,-1,5,4,-1,5,-5,-4
1558442081390819,-6,-7,-15,-9,-15,-4,-8,-5
1558442081398796,-1,-3,-2,2,-2,-2,-2,0
1558442081398796,0,-1,4,9,14,-7,6,5
1558442081413791,2,1,3,5,1,3,4,1
1558442081413791,0,2,3,4,1,-7,-2,-2
1558442081414755,-4,-5,-5,-7,-9,-4,-8,-4
1558442081414755,-3,-2,-10,-24,-14,2,-4,1
1558442081429713,-1,0,9,12,1,-4,-3,-12
1558442081429713,-2,-2,-7,-13,-10,-4,-2,-4
1558442081435697,0,2,6,13,14,12,8,3
1558442081435697,0,0,7,9,1,3,0,-3
1558442081450660,0,-1,-5,-1,2,2,-1,2
1558442081450660,0,-1,0,-4,-1,3,-4,-2
1558442081458639,0,-1,3,4,7,1,0,1
1558442081458639,-1,0,-3,0,0,-6,3,-1
1558442081473596,1,-1,-4,-8,-11,-16,-4,-1
1558442081473596,0,1,11,16,9,8,-1,-2
1558442081474594,-2,-6,-21,-26,-15,-9,-7,-2
1558442081474594,-1,-2,3,15,6,12,1,-1
1558442081489555,-3,-3,-14,-13,-7,3,1,1
1558442081489555,-1,-2,2,4,-4,-15,-4,2
1558442081495573,-1,3,4,-3,-2,3,-1,-3
1558442081495573,-4,-3,-3,5,2,8,-1,-2
1558442081510534,2,3,2,-5,6,-6,3,5
1558442081510534,1,-1,6,7,3,6,3,0
1558442081518477,-2,-2,-12,-14,-9,-12,-6,-3
1558442081518477,-1,1,-1,3,5,18,7,0
1558442081534434,-3,-1,4,-1,3,-6,0,1
1558442081534434,2,1,0,-3,6,-3,5,4
1558442081534434,0,-2,3,6,-12,-5,-9,-4
1558442081534434,-1,-2,1,1,2,7,-5,-3
1558442081549395,3,0,-2,10,4,2,9,6
1558442081549395,-5,-4,-7,-10,0,6,0,-5
1558442081556375,-2,-2,-4,-14,-14,-16,-13,-5
1558442081556375,2,2,3,1,5,7,4,2
1558442081571336,-2,0,8,4,0,3,0,-1
1558442081571336,0,-2,-8,-7,-1,-7,-5,-5
1558442081578317,0,2,5,7,9,3,7,4
1558442081578317,-2,-1,-4,-3,-10,-9,-7,-1
1558442081594275,-1,-2,-1,-5,-5,0,-3,-5
1558442081594275,2,0,-1,-6,1,-11,2,2
1558442081601256,-1,-1,1,7,3,3,4,0
1558442081601256,-2,-3,-6,-9,-5,-10,-5,0
1558442081609236,-3,-1,7,9,4,0,-1,1
1558442081609236,-4,-5,-8,-11,-8,4,-5,-8
1558442081616216,0,3,4,6,10,4,6,0
1558442081616216,-1,-1,-2,-7,-6,-13,-4,-3
1558442081631176,-2,-3,-5,-3,-4,1,-4,-2
1558442081631176,-1,-2,-1,1,-3,3,-2,0
1558442081638156,1,-1,1,2,-1,2,0,0
1558442081638156,-1,-1,0,-2,8,1,2,0
1558442081654114,-3,-3,2,-1,-4,-1,-4,-2
1558442081654114,-1,-1,-7,-12,-2,-5,-3,2
1558442081661095,-3,-4,0,11,-7,-3,-6,-4
1558442081661095,-5,-6,-19,-17,-17,-12,-10,-5
1558442081670112,2,0,-2,2,3,1,1,2
1558442081670112,-4,1,1,0,-1,4,4,-5
1558442081684060,-1,-1,1,-4,2,2,0,-2
1558442081684060,0,-2,3,0,-3,-2,0,-1
1558442081692035,2,1,-1,-4,-1,-9,2,-1
1558442081692035,-1,1,3,7,0,0,-5,2
1558442081698000,1,3,1,6,0,7,4,0
1558442081698000,-1,-5,-8,-10,-6,-14,-3,-4
1558442081721995,-1,0,-1,-1,-1,8,-1,-1
1558442081721995,2,1,8,13,3,-4,2,2
1558442081721995,-2,1,9,9,0,0,-2,-3
1558442081721995,0,1,-3,-5,2,-2,-4,-1
1558442081729912,-1,2,-2,3,7,5,5,1
1558442081729912,-1,-3,3,5,3,0,-3,-3
1558442081735951,0,-2,-2,-12,-2,0,-2,2
1558442081735951,0,-3,-1,4,-5,5,1,1
1558442081750855,-4,-3,3,-1,3,2,-2,-6
1558442081750855,1,1,-10,-14,4,12,6,1
1558442081766812,-3,-1,2,12,-1,-8,-2,0
1558442081766812,-1,1,-5,-14,-6,-7,-1,-3
1558442081773793,0,1,-5,-5,-5,2,-5,-2
1558442081773793,1,2,9,14,0,-2,0,0
1558442081774791,-3,-5,-21,-23,-7,-8,-4,-2
1558442081774791,-2,0,7,9,2,-3,-4,-2
1558442081797730,-3,-3,-4,4,-5,7,-2,0
1558442081797730,-2,-2,-10,-24,-5,-1,-2,-1
1558442081798728,-1,0,1,-5,3,-5,-1,0
1558442081798728,-3,0,1,2,-3,3,-1,-2
1558442081810734,-1,-1,-4,-4,-4,-7,-1,-1
1558442081810734,0,3,7,10,4,6,3,0
1558442081818712,-1,-1,-3,-8,4,2,0,1
1558442081818712,2,1,5,9,6,5,9,3
1558442081833635,2,-1,-7,-8,-9,-2,-4,7
1558442081833635,-3,0,0,2,-2,-2,-9,-12
1558442081834635,-1,-2,-1,-1,-5,4,6,2
1558442081834635,2,-1,8,11,3,10,3,-2
1558442081850605,2,2,5,1,3,-16,2,2
1558442081850605,-2,-3,-5,-1,1,2,-3,0
1558442081855610,-1,-1,4,2,3,3,-4,-2
1558442081855610,-1,1,-1,3,-12,-14,-6,1
1558442081870536,0,1,9,4,13,11,3,-3
1558442081870536,-4,-7,-15,-6,-14,-14,-5,-3
1558442081878843,1,2,7,1,7,6,7,1
1558442081878843,-3,-2,0,-5,0,-1,-2,0
1558442081894472,-4,-1,-7,-4,-11,-9,-8,-4
1558442081894472,0,0,-10,-4,1,6,2,-1
1558442081895507,0,-2,-5,-1,-4,-2,3,1
1558442081895507,2,2,8,9,5,0,-2,0
1558442081909447,2,0,-4,-5,-1,-11,2,0
1558442081909447,0,-1,5,8,-2,-1,-3,-1
1558442081924393,0,-1,-2,-12,-6,-6,1,-1
1558442081924393,2,1,3,7,5,4,0,-2
1558442081931372,-4,-2,0,-6,0,11,0,-4
1558442081931372,0,2,4,5,0,-4,-3,0
1558442081938655,0,-1,-4,3,-3,-5,-7,-2
1558442081938655,-1,-1,0,-4,-5,-5,-6,-3
1558442081954618,-1,-1,-2,-6,-9,-12,-6,0
1558442081954618,0,-2,-5,-10,6,11,11,3
1558442081954618,0,1,2,8,2,1,2,2
1558442081954618,-3,-2,3,-3,0,3,0,-6
1558442081970268,-4,-1,-7,3,-1,-3,-7,-5
1558442081970268,0,-1,-1,-19,-7,1,-7,0
1558442081976256,0,-2,0,5,-4,-10,5,0
1558442081976256,2,2,1,-5,12,7,12,6
1558442081992210,-2,-2,-4,-2,-4,-6,-3,-4
1558442081992210,1,0,0,4,5,-5,4,2
1558442081998232,-2,-3,-1,-8,-7,5,-4,4
1558442081998232,-4,-2,0,2,-9,-5,-7,-10
1558442082014151,-1,-3,2,3,1,-1,-1,1
1558442082014151,-1,-3,-4,0,-3,-1,2,0
1558442082015181,1,2,2,6,13,12,8,2
1558442082015181,-3,-3,-2,-2,-5,-6,-4,-7
1558442082030108,-1,0,-2,-7,2,12,-1,-1
1558442082030108,-2,-4,-17,-10,-12,-19,-5,-1
1558442082036093,-4,-1,-1,-3,-5,-8,-5,-4
1558442082036093,-1,-2,-8,-14,-4,1,-2,0
1558442082051051,1,-1,2,-3,-1,-6,0,0
1558442082051051,1,3,8,7,5,11,1,-3
1558442082058033,-3,-4,-4,-2,-7,-8,-10,-4
1558442082058033,1,-1,-3,2,-5,-8,0,2
1558442082074989,-1,-1,-2,2,-1,14,1,-1
1558442082074989,-4,1,5,7,-1,-7,0,-1
1558442082075986,0,-1,0,-3,4,-1,-1,-3
1558442082075986,-4,-3,-6,-5,-4,-5,-9,-3
1558442082089948,0,-1,-4,0,-7,-4,-3,-1
1558442082089948,-2,-1,4,3,-1,8,6,-1
1558442082095934,0,0,0,-3,4,6,5,-1
1558442082095934,1,0,4,12,-4,-13,-1,4
1558442082110893,0,-2,-3,-14,9,5,0,-5
1558442082110893,-1,0,6,11,1,0,-4,3
1558442082118870,0,-1,7,-2,-5,-7,-5,-5
1558442082118870,-2,-5,-25,-20,-6,1,-3,-1
1558442082133882,2,2,7,10,4,3,2,0
1558442082133882,-2,-2,1,8,-3,1,-1,0
1558442082134828,-2,-3,-3,4,1,1,0,-4
1558442082134828,1,2,5,-2,2,4,-4,-1
1558442082157766,0,-1,6,7,-3,-6,6,3
1558442082157766,2,1,-2,-3,13,13,7,3
1558442082158766,-2,1,1,5,-5,-11,-3,-1
1558442082158766,-1,-2,-3,-2,-4,0,-1,0
1558442082170731,-3,-4,-5,-5,-4,4,-4,-6
1558442082170731,-2,-1,3,1,2,-11,1,1
1558442082178712,0,1,-6,-5,-4,-4,-3,-2
1558442082178712,-2,-2,0,-1,-6,0,0,-2
1558442082193671,0,1,1,2,5,-2,0,4
1558442082193671,-1,-3,1,-10,-2,2,-2,-2
1558442082194667,-1,-2,9,16,5,3,-3,-5
1558442082194667,-4,-6,-14,-17,-11,-14,-8,-3
1558442082209628,-3,-4,-11,-9,-7,6,-5,-2
1558442082209628,2,0,0,-7,-2,-9,-2,0
1558442082215611,3,2,3,9,15,8,6,6
1558442082215611,-2,-2,2,-4,1,3,2,0
1558442082230573,-1,1,10,6,2,-1,2,-1
1558442082230573,-1,-3,-10,-3,-6,-5,-7,-4
1558442082238550,-4,-6,-19,-23,-8,-1,-5,0
1558442082238550,-2,-1,-2,1,-2,4,-4,-5
1558442082253512,-4,-3,-5,-6,-6,1,-4,-4
1558442082253512,6,3,11,5,13,7,17,9
1558442082260518,-1,2,-2,0,-1,-12,-1,-2
1558442082260518,-1,0,0,4,4,9,0,2
1558442082269490,1,3,14,18,0,-2,-4,-2
1558442082269490,-7,-9,-31,-38,-20,-13,-7,-9
1558442082275454,-1,-3,0,3,-3,-4,-5,-3
1558442082275454,2,2,2,-12,9,8,10,4
1558442082290450,0,-1,9,14,2,-9,-1,-1
1558442082290450,-3,-2,-2,0,-12,-1,-6,-1
1558442082298391,-1,2,-3,-4,-3,7,0,-1
1558442082298391,-2,0,4,3,-2,-11,-7,1
1558442082313351,1,0,-7,-6,0,0,-3,-2
1558442082313351,-1,0,11,3,8,4,0,-4
1558442082321677,-7,-7,-6,-9,-9,-4,-6,-3
1558442082321677,4,1,10,9,1,-2,-1,3
1558442082329310,-1,1,-3,1,3,5,3,6
1558442082329310,0,-3,-5,-11,-7,-2,-9,-5
1558442082336776,2,1,-1,0,-5,-10,-5,-2
1558442082336776,1,2,0,-3,8,3,6,3
1558442082352606,-2,0,-1,-4,0,0,3,-3
1558442082352606,-1,0,-3,0,2,6,1,0
1558442082358257,-2,-1,1,-3,2,5,-4,4
1558442082358257,-1,-4,-1,3,-9,1,2,-4
1558442082381505,-1,-1,-8,-7,-1,-19,-1,0
1558442082381505,1,-3,4,7,4,-7,-2,0
1558442082382169,-1,0,-1,-3,-6,1,1,-1
1558442082382169,-1,1,16,22,1,3,-5,-1
1558442082390147,-3,-5,-13,-13,-3,15,-2,-2
1558442082390147,0,2,-3,-9,3,-9,2,5
1558442082396479,-2,-5,-2,3,1,-6,4,-7
1558442082396479,-2,-2,-3,-4,-4,-6,-2,-5
1558442082411089,-1,-2,-1,-1,1,-3,0,-3
1558442082411089,-3,-4,0,5,-4,-4,-7,-4
1558442082419107,0,-1,-5,-6,-5,2,-4,-1
1558442082419107,-3,-2,-5,-1,-1,5,-6,-4
1558442082435028,-2,-2,-3,-8,-3,2,-3,0
1558442082435028,-1,2,8,9,6,4,2,0
1558442082441010,-1,-2,-9,-6,-2,3,2,0
1558442082441010,1,-2,-6,-8,-6,-2,6,4
1558442082456971,4,1,5,9,14,-2,9,6
1558442082456971,0,-1,0,-7,-4,0,-3,-2
1558442082456971,-5,-1,4,0,-1,5,2,-3
1558442082456971,-1,-1,-7,-11,-8,-18,-14,-5
1558442082471281,-1,-2,2,2,-8,-1,0,-4
1558442082471281,1,1,7,19,5,0,4,-1
1558442082486888,-2,-4,-17,-22,-2,1,-2,-2
1558442082486888,-5,-2,0,0,5,5,-1,-3
1558442082494174,-2,-5,-17,-19,-13,-2,-2,0
1558442082494174,-3,0,6,12,-7,-11,-5,-2
1558442082508829,2,2,5,8,-1,1,4,1
1558442082508829,-1,-1,-5,-8,0,0,-3,-3
1558442082516806,-2,-3,-4,-3,4,5,0,0
1558442082516806,-2,0,7,13,-2,5,-6,-4
1558442082516806,1,2,4,12,5,11,3,1
1558442082516806,0,-1,-17,-21,2,-14,5,2
1558442082539745,1,1,2,-3,0,-7,-3,-1
1558442082539745,-2,-3,-2,3,-9,-6,-1,0
1558442082540742,0,0,7,4,6,-6,1,1
1558442082540742,1,-2,-2,0,-6,1,-2,-3
1558442082554147,-2,-1,-3,4,-4,-2,-6,-1
1558442082554147,-1,-3,-10,-18,-1,2,-8,-6
1558442082560734,0,-1,-4,-3,-11,-13,-6,3
1558442082560734,0,-2,4,8,4,5,9,3
1558442082576675,-2,-3,-2,-1,3,1,0,-1
1558442082576675,1,4,7,2,4,7,5,1
1558442082577674,-1,-1,0,-3,6,-2,-2,0
1558442082577674,0,2,7,8,1,1,-5,-1
1558442082598617,-3,-4,-1,2,-7,-1,-4,-4
1558442082598617,-2,-1,-9,-15,-8,-9,-4,-3
1558442082599588,2,2,6,1,10,14,10,2
1558442082599588,1,-1,-3,10,8,1,1,1
1558442082613548,-2,0,8,0,-6,-10,-2,-2
1558442082613548,-2,-2,-11,4,-1,-2,-3,-4
1558442082620529,-1,-1,1,3,-2,-4,2,-3
1558442082620529,-4,-3,-7,-2,-11,2,-3,-2
1558442082636520,2,1,4,7,8,11,4,3
1558442082636520,-2,-2,-3,-4,-5,-10,-4,1
1558442082637519,0,1,1,-4,-2,-15,-13,-1
1558442082637519,2,3,0,6,11,11,15,4
1558442082652443,-2,-4,-5,-10,-8,3,-3,-3
1558442082652443,-2,-2,-12,-10,-7,2,-4,-1
1558442082658429,-1,-4,0,6,-4,-4,-4,-6
1558442082658429,-2,0,5,2,8,4,-4,-2
1558442082673536,-1,0,-2,-3,-6,-16,-4,-2
1558442082673536,1,-2,3,4,12,14,8,3
1558442082681378,1,1,1,0,-1,10,7,5
1558442082681378,1,2,-2,-11,2,-12,-3,-7
1558442082696409,-1,-1,2,6,0,-8,3,9
1558442082696409,-2,-1,7,9,-2,-11,-3,-4
1558442082697325,-1,-3,-6,0,2,-6,1,0
1558442082697325,-3,-2,-2,-7,-8,6,-2,-5
1558442082712285,-1,1,1,-2,-8,-5,-8,-6
1558442082712285,0,-3,-5,1,5,4,3,3
1558442082718268,2,0,5,5,9,6,4,0
1558442082718268,1,-1,-7,-10,-1,1,3,4
1558442082735223,-1,-1,0,2,-8,-3,-3,-8
1558442082735223,-1,2,5,6,4,-7,5,1
1558442082741209,-2,-5,-9,-17,-7,-6,-9,-6
1558442082741209,-3,-3,7,14,-1,5,-7,0
1558442082765174,-4,-5,-15,-20,-4,-1,0,-2
1558442082765174,3,3,3,3,1,-1,0,-1
1558442082765174,-2,-1,0,6,2,-1,0,0
1558442082765174,0,0,2,-1,-8,-19,-4,-2
1558442082771163,1,1,9,18,8,13,1,-2
1558442082771163,-4,-3,-10,-23,-10,-5,-8,-4
1558442082778140,-5,-5,-9,-10,-7,-3,-9,-6
1558442082778140,-1,2,10,14,7,10,5,2
1558442082793098,1,1,-5,-2,5,0,-1,-2
1558442082793098,1,3,4,1,-2,-5,-2,-3
1558442082801047,-1,-2,-3,0,-5,6,3,1
1558442082801047,1,0,0,-3,-2,3,2,-2
1558442082818001,-2,-2,12,19,12,-3,-1,2
1558442082818001,-2,-3,-13,-5,-2,4,-3,-4
1558442082818999,-3,-2,2,-2,-12,-7,-9,-3
1558442082818999,-2,-2,1,1,-1,-3,-3,0
1558442082831964,-2,1,-3,-4,2,4,2,0
1558442082831964,-2,-3,0,-6,-9,-4,-5,-5
1558442082837950,-1,0,5,9,8,1,5,1
1558442082837950,-2,0,-8,-1,3,7,3,4
1558442082852907,1,0,-2,-7,-1,0,0,1
1558442082852907,-2,-1,3,-11,-7,3,-2,2
1558442082861074,-1,-3,-11,0,-4,-7,-6,-8
1558442082861074,-3,-3,-5,-4,-9,-2,-2,-6
1558442082877842,-3,-1,-11,-21,-8,-8,-3,-4
1558442082877842,1,-1,6,13,8,9,6,4
1558442082878839,1,3,8,2,2,-4,5,6
1558442082878839,-2,-4,-1,0,-1,-9,-7,-2
1558442082898827,2,4,-1,-3,-4,1,5,4
1558442082898827,-3,-4,8,6,2,0,-2,-3
1558442082899781,-1,-3,-17,-17,-9,-1,-6,-1
1558442082899781,-2,-4,-7,-17,-16,-10,-17,-6
1558442082913786,2,2,5,6,12,4,16,8
1558442082913786,1,3,-1,4,5,3,5,2
1558442082928733,0,-3,2,-1,-2,-1,-4,-4
1558442082928733,-2,-3,-1,0,-1,-7,1,-1
1558442082936732,-1,-1,-3,-2,-2,4,-8,0
1558442082936732,-2,1,-2,-1,5,10,5,-3
1558442082937699,-3,-2,-1,-6,-8,-15,-2,2
1558442082937699,-2,-2,9,4,-1,-6,-2,-2
1558442082960620,-2,-6,-20,-14,-12,-8,-8,-4
1558442082960620,-1,-1,-1,5,5,7,3,2
1558442082961624,1,2,4,2,9,15,5,-1
1558442082961624,-2,-1,-4,-6,-7,-5,2,0
1558442082973639,0,-2,4,2,1,-5,-7,-3
1558442082973639,1,-1,-2,3,-11,-3,-5,-1
1558442082988575,-1,0,-7,-26,-8,3,-1,-1
1558442082988575,-4,-3,3,8,4,4,-2,-7
1558442082996557,-3,-2,-2,2,-3,-5,2,-1
1558442082996557,0,-2,-17,-12,-7,-5,-3,-1
1558442082997523,-2,-2,5,9,-1,-3,-4,-3
1558442082997523,0,-1,-8,-12,-2,14,9,4
1558442083020459,-2,0,-1,-3,-5,-1,-4,-6
1558442083020459,1,2,8,3,7,-20,0,2
1558442083021457,2,5,5,11,17,9,13,3
1558442083021457,-1,-3,-1,-2,-5,-5,-11,2
1558442083042402,-2,-2,3,9,1,1,-3,-6
1558442083042402,-3,-1,-3,-9,-4,0,1,-1
1558442083049415,-3,-1,1,9,-2,1,-3,-4
1558442083049415,-1,-2,-4,-2,-2,-3,-2,-1
1558442083056392,0,-1,2,1,-2,-3,1,0
1558442083056392,-1,-3,0,3,-2,-4,-9,-4
1558442083057363,2,-2,-7,-7,-8,-3,-2,-2
1558442083057363,1,3,3,7,7,4,1,1
1558442083072321,0,-2,-1,-3,-3,-2,-3,0
1558442083072321,-3,-2,-4,-4,-3,0,1,-1
1558442083078333,-1,-2,1,3,1,0,-2,1
1558442083078333,1,-1,-4,-3,-3,-7,-6,-3
1558442083093267,-2,-1,-3,-6,-8,1,0,-3
1558442083093267,2,3,7,4,15,16,6,3
1558442083101274,-5,-6,5,13,-7,-14,-4,-4
1558442083101274,-1,2,-7,-30,-1,4,6,1
1558442083116231,-1,1,8,11,-1,-10,-8,1
1558442083116231,-3,-3,-23,-14,-7,7,4,0
1558442083117202,2,4,2,4,6,4,4,2
1558442083117202,1,0,6,9,3,-8,-1,-3
1558442083132162,-4,-2,1,-4,-7,-3,-3,-4
1558442083132162,-3,-2,3,-10,-5,-4,-6,0
1558442083138146,3,2,2,6,4,1,-2,0
1558442083138146,-1,-2,3,10,4,5,-3,0
1558442083155134,0,0,-4,-3,2,2,7,3
1558442083155134,-1,-3,1,4,-3,-6,-7,-3
1558442083161118,-2,-3,-6,-12,-5,5,4,-1
1558442083161118,1,3,2,-2,2,-4,-2,0
1558442083176044,-3,-2,3,10,4,-6,-1,-1
1558442083176044,1,1,-5,-13,1,13,3,0
1558442083183024,-1,-3,1,-1,-11,-9,-7,0
1558442083183024,0,-1,6,10,4,5,6,-4
1558442083192000,-1,-3,-15,-10,4,0,-2,2
1558442083192000,-3,-2,-1,1,-6,-7,-3,-1
1558442083198172,-2,-3,-5,-23,-9,1,-5,-3
1558442083198172,-4,-4,-8,-3,-15,-24,-3,-3
1558442083213965,2,2,10,11,16,16,8,2
1558442083213965,1,-1,4,7,9,3,2,1
1558442083221118,1,0,4,7,4,-3,2,2
1558442083221118,-2,-2,-1,0,-3,4,-4,-6
1558442083235883,-2,-4,-15,-22,-12,1,2,2
1558442083235883,1,0,11,17,1,-13,-7,-3
1558442083242892,-4,-2,-7,-5,3,7,0,-2
1558442083242892,1,-1,-4,-5,-4,-10,0,4
1558442083251841,0,-1,4,5,3,0,-1,1
1558442083251841,1,0,6,11,3,7,2,-1
1558442083266799,-1,-1,-2,-11,-2,1,2,-1
1558442083266799,-1,-3,-20,-10,-4,0,-4,-1
1558442083273781,-5,-2,-5,2,-2,4,-5,-4
1558442083273781,1,0,3,-1,-3,-6,-2,-2
1558442083280795,-4,-4,-2,2,-13,-9,-7,-6
1558442083280795,0,-1,3,1,2,19,5,1
1558442083295724,5,1,-3,-5,7,-13,8,8
1558442083295724,-2,-3,-6,-4,1,-6,-4,-4
1558442083303794,0,-1,0,-2,-1,-1,1,-1
1558442083303794,-3,-1,8,13,2,1,-6,-5
1558442083319746,-2,-2,-2,-8,-15,5,-10,-8
1558442083319746,-4,-4,-6,-14,-2,-11,4,2
1558442083326640,0,-1,1,8,4,-3,-7,-1
1558442083326640,0,0,3,9,4,0,5,1
1558442083333622,1,0,6,-2,2,0,-2,-4
1558442083333622,2,1,7,7,-4,0,-5,0
1558442083340638,-3,-3,-12,0,4,8,1,0
1558442083340638,-3,-3,-1,-2,-4,0,-3,-1
1558442083355661,-2,1,-3,-15,-1,-8,0,-1
1558442083355661,-1,-2,-10,-15,-10,1,-5,-4
1558442083363544,1,-1,6,4,-1,0,1,-1
1558442083363544,0,1,1,3,8,0,3,4
1558442083380496,-2,-3,7,4,-2,-5,-6,-2
1558442083380496,-2,-2,-6,0,-4,-6,-3,-1
1558442083381494,2,3,0,1,7,6,11,4
1558442083381494,-3,1,5,9,6,5,-1,-6
1558442083393464,-3,-5,-12,-10,-10,1,-3,-4
1558442083393464,0,-1,-2,-6,-2,-6,1,-2
1558442083400592,2,0,0,0,1,-6,0,-2
1558442083400592,0,-2,5,11,-4,-18,-2,4
1558442083415406,1,-1,4,7,5,3,-2,-2
1558442083415406,-2,-2,0,0,-3,0,-2,-3
1558442083431362,-3,0,-5,-4,-4,1,-6,-2
1558442083431362,-1,-3,-3,-8,-2,5,0,-1
1558442083439358,0,0,3,11,0,2,-4,-3
1558442083439358,0,1,-1,2,1,7,2,1
1558442083439358,-1,1,5,-2,-2,-4,-2,0
1558442083439358,0,0,-4,-7,-1,-2,3,0
1558442083453302,1,3,1,0,3,0,5,3
1558442083453302,-3,-2,1,5,3,-7,-5,-3
1558442083460302,-1,0,2,9,0,0,6,3
1558442083460302,-2,-3,-13,-26,-9,-2,-3,-5
1558442083484218,-3,-4,0,2,-4,1,-2,-2
1558442083484218,0,0,2,5,5,6,-1,1
1558442083484218,-3,-3,1,-3,-8,-2,-8,-4
1558442083484218,-4,-5,-5,-3,-5,0,-6,-2
1558442083499187,1,-1,1,3,2,-14,3,2
1558442083499187,1,0,-4,-14,-8,-13,-3,0
1558442083499187,-4,-2,4,13,12,6,1,-1
1558442083499187,-3,1,8,6,2,-1,-2,2
1558442083513140,-2,-1,-7,-8,-5,6,1,0
1558442083513140,1,0,-4,-2,7,15,6,4
1558442083521120,1,-1,-6,-6,-4,-8,-6,-4
1558442083521120,2,0,2,6,4,7,2,-2
1558442083538078,-3,-1,6,8,-2,-2,-1,2
1558442083538078,0,-1,5,6,2,1,-1,-3
1558442083551045,-1,-5,-12,-17,-11,-6,0,-3
1558442083551045,0,-1,1,2,2,1,2,0
1558442083559024,1,-2,-10,-4,-3,-9,-6,-4
1558442083559024,-1,-2,-4,-4,-5,1,-1,1
1558442083560020,-1,1,3,6,0,-2,-1,2
1558442083560020,0,-1,-5,-4,-1,-2,0,0
1558442083573009,-1,-1,-2,-11,-5,-1,-1,-1
1558442083573009,0,1,4,12,0,1,2,-1
1558442083588939,-2,-4,-13,-22,-6,-7,-2,-3
1558442083588939,0,1,-3,-2,-1,-6,0,1
1558442083595920,-3,-1,0,-1,-1,6,-3,-2
1558442083595920,-1,-2,6,11,2,-1,-1,2
1558442083611879,0,-3,-13,-10,-9,-9,-2,-3
1558442083611879,-2,-2,-3,-6,-6,5,4,-3
1558442083618864,0,0,1,2,6,-6,3,0
1558442083618864,-4,-2,-2,-3,-8,-6,-5,-5
1558442083619858,0,1,5,0,4,5,1,1
1558442083619858,-2,-2,-1,3,3,-12,-2,1
1558442083632821,2,1,5,10,10,12,4,-1
1558442083632821,-2,-2,-2,-6,-5,1,-1,0
1558442083640801,-4,-1,0,2,-2,3,-4,-5
1558442083640801,-1,0,-2,-3,-3,-5,-3,-1
1558442083655762,-2,-1,-1,3,-2,1,0,0
1558442083655762,0,-3,-12,-12,-9,-11,-4,-3
1558442083663738,-1,-1,10,13,12,16,3,1
1558442083663738,3,-2,-4,-5,-3,3,3,0
1558442083678702,-1,-1,7,7,-6,-4,-6,-4
1558442083678702,0,3,10,15,13,-3,7,3
1558442083679698,0,-3,-17,-18,-6,-9,-1,1
1558442083679698,-2,-3,-7,-15,-10,-5,-6,-5
1558442083693659,0,0,-2,-1,1,8,-3,2
1558442083693659,-4,-2,-4,4,-6,5,-5,-7
1558442083700640,2,1,3,-8,2,-3,4,3
1558442083700640,0,1,3,9,4,0,-1,-5
1558442083715600,-5,-3,-8,-10,-8,-7,-6,-3
1558442083715600,0,0,-5,-11,-5,-9,-1,3
1558442083723578,0,0,5,5,7,7,1,0
1558442083723578,1,1,8,7,6,3,-2,1
1558442083738544,-1,-3,-12,-12,-12,-2,0,-1
1558442083738544,-3,-5,2,-2,0,6,-5,-3
1558442083739536,-1,0,-8,-10,-8,-6,-4,-2
1558442083739536,1,0,0,-1,1,-4,3,3
1558442083769458,1,1,6,8,6,-12,2,3
1558442083769458,1,0,-3,-3,0,2,0,-1
1558442083777435,-3,-2,5,6,-3,1,-5,-3
1558442083777435,-3,-2,2,0,-8,2,-8,-5
1558442083778434,-3,-4,-3,-2,-3,3,1,-6
1558442083778434,-1,1,-3,-2,0,-7,4,2
1558442083791398,1,3,7,0,4,-5,0,2
1558442083791398,-2,-1,-8,-2,-7,-6,-4,1
1558442083799377,-1,-3,-1,-4,-1,-1,-5,-2
1558442083799377,1,2,8,7,4,6,6,2
1558442083799377,-2,0,5,8,3,3,-2,0
1558442083799377,-3,-3,-16,-17,-5,-2,-3,2
1558442083814336,1,0,-9,-12,-6,-4,-2,2
1558442083814336,-1,-4,-4,-2,-2,1,-5,-2
1558442083820324,0,-1,3,9,2,-4,4,-1
1558442083820324,1,1,4,5,3,6,1,-1
1558442083835279,2,2,1,1,0,-5,-1,-1
1558442083835279,-2,-2,-3,-5,-2,7,0,-2
1558442083843259,0,2,2,8,1,-11,-3,4
1558442083843259,-3,-2,1,-3,-3,-6,-2,0
1558442083859217,-4,-3,2,9,0,-2,-2,0
1558442083859217,2,0,-8,-19,-5,0,-1,-5
1558442083859217,0,-4,-1,0,-3,2,-4,-6
1558442083859217,-1,-1,8,10,6,4,0,-2
1558442083875173,3,1,-4,-6,-1,1,1,0
1558442083875173,-1,0,7,8,3,4,4,6
1558442083881157,-4,-5,-9,-2,-5,-4,-3,-2
1558442083881157,0,1,-5,-20,-5,-11,-2,2
1558442083897116,-3,-3,-3,-4,0,-1,-1,0
1558442083897116,-2,-2,4,9,3,3,-5,-5
1558442083903103,0,0,-11,-16,-8,2,3,-3
1558442083903103,-2,-1,1,11,0,7,-2,-4
1558442083927038,-1,-1,12,4,-3,-13,-3,2
1558442083927038,0,-3,-20,-20,-3,-1,-2,-2
1558442083928034,4,1,9,15,6,5,7,3
1558442083928034,0,-1,-6,-4,4,5,1,-2
1558442083933019,-3,-3,-4,-9,-10,-6,-5,-2
1558442083933019,-3,-4,7,8,4,-4,0,2
1558442083940999,0,-1,-1,-3,2,1,2,2
1558442083940999,-4,-1,-5,5,-1,1,-3,-4
1558442083955960,2,3,0,-4,8,6,4,2
1558442083955960,2,0,-2,-7,-6,-5,-3,-2
1558442083962938,-4,-6,-5,0,-2,4,-5,-4
1558442083962938,1,1,6,5,-2,-5,-2,0
1558442083979893,-4,-4,-7,-6,-7,-3,-4,-6
1558442083979893,-1,0,5,15,-1,-1,1,-1
1558442083980891,-2,-1,-10,-11,-2,3,-3,-4
1558442083980891,1,1,-4,-9,3,-8,3,3
1558442083992858,0,1,7,10,10,-4,6,3
1558442083992858,-2,-3,3,8,1,1,-2,-4
1558442084000841,-1,-3,-7,-11,-11,-5,-6,-2
1558442084000841,0,-2,4,4,-4,2,-2,-1
1558442084015797,-1,-1,-1,1,1,7,-1,-4
1558442084015797,-2,-1,-5,-10,-4,-5,-2,0
1558442084023776,-1,-2,1,6,-3,-11,-4,0
1558442084023776,-2,1,4,5,6,8,4,2
1558442084038764,1,0,0,0,2,3,2,-1
1558442084038764,-2,1,-3,-15,-1,2,-3,-4
1558442084039733,-3,-3,-1,-3,-12,0,-3,-2
1558442084039733,2,0,3,7,2,5,7,2
1558442084053696,-2,-1,-3,-5,-7,-4,-3,0
1558442084053696,-3,-3,-17,-21,-5,-6,-2,0
1558442084060678,1,1,8,11,10,1,-1,3
1558442084060678,-2,-4,-14,-9,-4,-10,5,1
1558442084075638,-2,-2,2,4,-4,8,-6,-3
1558442084075638,-3,-4,-9,4,-8,-8,-8,-6
1558442084099572,-2,-1,-3,-22,-8,-4,-6,-2
1558442084099572,0,-2,-3,3,6,2,4,6
1558442084101567,0,2,2,-4,1,-10,-3,-6
1558442084101567,-2,-3,-4,-4,-5,0,5,-2
1558442084106555,2,1,11,13,13,5,6,0
1558442084106555,-3,-1,1,2,-9,2,-4,-3
1558442084113535,-2,-2,-1,-3,-1,7,-1,-1
1558442084113535,3,3,7,19,10,3,5,7
1558442084120516,-4,-1,-9,-14,-4,2,1,-3
1558442084120516,-4,-3,0,-5,-8,-15,-10,-4
1558442084152442,-2,-1,-8,0,1,3,4,2
1558442084152442,0,0,3,1,-2,-1,-4,-3
1558442084152442,0,0,-1,1,1,0,0,-2
1558442084152442,-1,-1,0,-2,2,-3,-4,-5
1558442084158420,1,0,-2,3,-9,0,2,0
1558442084158420,-4,-3,-1,-14,6,-2,-3,1
1558442084166395,-1,-2,-5,-1,-4,-3,1,-1
1558442084166395,-2,-3,-1,-12,-9,-6,-4,-5
1558442084173434,2,1,10,22,20,12,6,3
1558442084173434,1,-3,-11,-20,-13,-12,-2,1
1558442084180415,0,0,-3,2,-1,-1,-2,-1
1558442084180415,-1,0,4,4,-3,-3,-6,-4
1558442084195317,0,0,1,4,2,9,0,1
1558442084195317,-1,0,1,7,4,5,2,1
1558442084219285,-1,-1,3,-2,-2,-1,0,-1
1558442084219285,3,0,1,6,0,-3,1,-1
1558442084221283,-3,-2,-8,-15,-5,-15,-7,0
1558442084221283,-2,-2,8,20,2,4,-4,-7
1558442084226234,0,1,-5,-1,-3,1,1,1
1558442084226234,-2,2,7,0,3,0,1,0
1558442084233218,-2,-3,-3,-13,-4,-3,-5,-3
1558442084233218,-1,-1,0,6,-5,0,-1,0
1558442084241194,-3,-2,5,-1,-2,-6,0,-1
1558442084241194,-3,-4,-18,-8,-4,1,3,1
1558442084256156,0,-1,-4,-1,1,2,2,1
1558442084256156,-1,0,3,-1,2,3,0,-1
1558442084263135,0,2,5,7,2,2,-3,-1
1558442084263135,-2,-1,-1,1,-2,-2,-4,-1
1558442084278095,-2,-2,4,4,-8,-3,-3,-3
1558442084278095,3,3,0,-4,10,0,8,5
1558442084286076,1,2,-2,7,10,8,8,6
1558442084286076,0,-1,-1,-10,-5,1,-2,-4
1558442084301036,-5,-2,-2,-10,-4,4,3,-3
1558442084301036,-2,-2,-7,-12,-7,-18,-10,-3
1558442084302035,2,2,5,9,10,5,5,3
1558442084302035,-1,-2,-12,-8,-3,-4,0,0
1558442084316991,-1,-3,2,7,-1,-4,-7,-4
1558442084316991,-2,1,6,0,-1,4,-3,2
1558442084330954,-2,0,1,-3,-4,7,3,-7
1558442084330954,-1,-3,-6,-3,0,-5,1,-1
1558442084337936,-2,-2,0,-1,-3,-1,-6,0
1558442084337936,-4,-1,-5,0,-4,3,-2,-4
1558442084353895,0,1,-1,-3,-7,-14,-3,2
1558442084353895,-2,-1,9,7,-2,0,-6,-5
1558442084361871,1,1,-2,-5,4,8,8,3
1558442084361871,-1,-4,-5,-1,-1,-3,1,-1
1558442084361871,-2,-4,-6,-10,-11,-5,-5,-1
1558442084361871,-1,-1,2,1,-3,-5,-3,-1
1558442084376834,0,1,1,5,4,8,-3,-3
1558442084376834,-4,-2,-10,-13,-9,-6,-4,-2
1558442084382815,-1,-1,-1,3,12,9,3,2
1558442084382815,1,1,3,10,5,4,1,1
1558442084398773,-1,-1,-14,-10,-7,-5,-2,-3
1558442084398773,-1,1,16,14,-3,-4,-3,-5
1558442084406757,-3,-4,-1,-4,2,6,1,-1
1558442084406757,1,1,-7,-13,-4,-9,-1,3
1558442084421711,0,-4,6,10,2,-9,3,4
1558442084421711,4,0,-2,-2,1,-3,-2,-4
1558442084428697,-3,-4,-1,-2,-10,-5,-6,-5
1558442084428697,-1,0,4,3,8,16,4,1
1558442084435679,0,1,-1,-7,0,-6,3,2
1558442084435679,0,-1,-5,3,0,-3,-4,1
1558442084443652,-3,-1,-1,-1,-6,0,-8,-6
1558442084443652,-1,-1,-1,-6,-1,2,-1,-3
1558442084458613,-1,-2,-4,-4,0,-6,1,1
1558442084458613,0,-2,1,4,1,-2,-1,0
1558442084466592,-1,-1,-2,-1,-1,-5,0,-2
1558442084466592,-1,0,-2,-2,-3,1,0,-2
1558442084481556,-1,-2,1,2,-1,0,-2,-4
1558442084481556,0,0,1,-4,1,4,4,1
1558442084482550,2,1,2,0,2,-9,-3,0
1558442084482550,-1,-2,1,3,1,5,1,2
1558442084495516,-1,-2,-2,-2,-9,-8,-8,-1
1558442084495516,-3,-3,-2,-3,-1,2,-2,-3
1558442084511470,1,2,-1,5,9,12,10,3
1558442084511470,0,2,2,2,2,-3,0,1
1558442084518452,-2,-1,1,1,2,-3,1,1
1558442084518452,-3,-4,-8,-11,-12,-3,-4,-2
1558442084526436,0,-4,-4,-15,-11,-14,-9,-4
1558442084526436,0,-2,1,7,4,7,-1,-1
1558442084541394,4,1,5,1,1,2,8,1
1558442084541394,0,-1,2,9,9,5,4,-1
1558442084542398,-2,-1,-1,-2,-2,-4,-2,-1
1558442084542398,1,0,-4,2,-1,7,1,0
1558442084555356,-1,0,10,-2,0,3,-3,-3
1558442084555356,-1,-4,-5,-1,-5,-4,1,1
1558442084563332,-3,-2,-10,-4,-7,-1,-5,-2
1558442084563332,-1,1,2,-5,-3,-13,-5,-1
1558442084578294,1,1,-3,2,5,4,1,0
1558442084578294,2,4,1,2,7,10,9,7
1558442084585277,-1,1,8,9,1,-9,-1,-3
1558442084585277,-3,-7,-14,-11,-13,-9,-8,-4
1558442084601247,-1,0,-3,-2,-1,-3,-2,-2
1558442084601247,-1,-1,-2,-1,4,5,1,-2
1558442084602228,0,-2,0,-1,-3,-1,1,1
1558442084602228,0,0,1,-3,3,1,5,1
1558442084625178,-3,-1,-2,-2,-7,-5,-3,-4
1558442084625178,0,0,0,-1,0,0,-1,0
1558442084626173,-2,-3,-7,-5,-4,0,-1,-1
1558442084626173,0,-1,20,17,8,4,0,-3
1558442084638137,-4,-5,-18,-17,-11,-3,-2,0
1558442084638137,-1,-1,-15,-13,-6,-7,-4,-2
1558442084646116,-3,-2,0,6,-1,0,-5,-3
1558442084646116,-1,-1,-2,-6,-4,-1,-3,-2
1558442084661071,3,3,10,14,10,3,4,4
1558442084661071,0,0,7,6,1,-6,-2,0
1558442084662068,2,1,-5,-5,8,5,5,4
1558442084662068,-4,-3,-5,3,0,-4,-2,0
1558442084676035,-3,-2,-1,-8,-5,5,-1,-3
1558442084676035,-2,-2,-1,-5,-6,-3,-6,-5
1558442084683014,0,-3,4,6,-6,-6,-5,-4
1558442084683014,1,1,-5,-7,3,3,5,1
1558442084706950,1,-1,-3,-1,2,-10,-2,0
1558442084706950,-2,0,7,2,-2,2,-3,-1
1558442084706950,-2,-1,-4,-2,0,4,-1,-1
1558442084706950,-2,-5,-6,-5,-12,-4,-4,-2
1558442084721912,-1,-1,-4,-2,6,1,6,1
1558442084721912,4,3,8,-5,9,-11,4,6
1558442084721912,-3,-1,0,6,-1,1,-6,-1
1558442084721912,0,-2,-2,4,-2,2,1,0
