timestamp,emg1,emg2,emg3,emg4,emg5,emg6,emg7,emg8
1558441757328513,-4,-3,-5,-10,-10,-11,-12,-6
1558441757328513,1,0,1,3,6,8,7,1
1558441757336492,2,0,3,6,3,-2,2,0
1558441757336492,-3,-1,1,-6,-11,3,-1,-4
1558441757339484,0,0,-2,-3,-1,3,-4,-4
1558441757339484,0,-1,-5,-3,2,0,3,3
1558441757341479,0,-2,1,-1,2,-4,3,-1
1558441757341479,-2,-4,-3,-7,-3,3,-4,-1
1558441757350455,-2,-1,1,1,-1,0,6,1
1558441757350455,-4,-5,-4,-7,-6,-6,-9,-6
1558441757358434,-4,-4,-9,-4,-8,-4,-5,-3
1558441757358434,-2,-1,-4,-2,-6,-8,-4,-6
1558441757365415,0,2,3,11,13,8,5,0
1558441757365415,-2,0,1,-9,-5,-9,3,3
1558441757383367,-1,-1,-3,1,5,-1,0,-1
1558441757383367,0,0,1,5,8,5,-2,1
1558441757387357,-1,-2,-1,-3,-8,3,8,3
1558441757387357,-2,-4,-4,-2,-4,-7,-4,-5
1558441757398328,-1,-3,7,7,-2,1,-2,-2
1558441757398328,0,0,2,3,7,-9,-2,3
1558441757410296,1,-1,6,4,3,8,0,-2
1558441757410296,-1,-1,-6,-6,-3,8,1,0
1558441757418274,-2,-1,-5,-8,-10,-1,-3,-4
1558441757418274,-1,-3,-3,-2,0,-4,2,-2
1558441757466146,-1,-2,-3,-4,-6,2,-1,2
1558441757466146,1,1,-8,-13,4,-5,-7,-1
1558441757466146,-1,-4,-2,-1,-5,-4,5,1
1558441757466146,1,1,7,9,11,3,5,1
1558441757470135,-1,-1,-4,-2,-9,-17,-5,-1
1558441757470135,-1,-2,-2,-4,0,9,-5,-2
1558441757470135,-2,-1,4,11,1,-3,-3,-3
1558441757470135,-2,-1,-11,-18,-12,-5,0,-3
1558441757477117,0,1,6,9,12,16,8,1
1558441757477117,-1,-2,0,-1,-4,-9,1,-3
1558441757484099,0,0,2,0,5,6,-2,2
1558441757484099,-3,-5,-2,-6,-7,3,-4,-5
1558441757492077,-1,0,-3,-3,-7,-7,-7,-2
1558441757492077,0,2,-2,-1,2,6,5,2
1558441757507036,-3,-2,-5,0,-11,-11,-9,-7
1558441757507036,1,-2,-1,-1,1,-7,-10,0
1558441757515015,1,2,3,2,10,7,12,5
1558441757515015,0,-1,-3,-2,1,3,0,-1
1558441757522013,-2,0,4,3,5,-1,0,2
1558441757522013,0,0,-3,-7,-7,-3,-1,0
1558441757536955,-3,-2,-3,-6,-7,0,-11,-6
1558441757536955,-2,-3,1,5,-2,-5,0,-2
1558441757543937,1,1,0,-2,-1,-5,1,1
1558441757543937,-1,0,-4,-2,-2,6,-1,-3
1558441757559895,-2,-4,3,1,-6,-14,-8,-3
1558441757559895,-1,-1,5,-2,-7,-12,-4,0
1558441757566876,-3,-3,-10,-7,5,6,7,-1
1558441757566876,-3,-4,-6,-10,-4,-6,-1,-2
1558441757574855,-2,3,-1,1,9,20,11,2
1558441757574855,0,1,2,8,-2,-10,-5,-1
1558441757581836,-1,-2,0,-5,-2,6,-6,-3
1558441757581836,-1,-1,-3,1,-12,-5,-6,-2
1558441757605772,-3,-5,-5,-5,-10,-9,-9,-6
1558441757605772,1,1,4,4,4,-1,9,2
1558441757606770,2,4,-1,3,11,12,11,6
1558441757606770,-2,1,-2,-5,2,4,0,-2
1558441757611756,-2,0,-5,3,1,4,-2,-3
1558441757611756,-3,-4,2,0,1,9,-1,-3
1558441757626716,2,-2,-3,-6,-4,-15,2,3
1558441757626716,1,-1,5,2,8,9,-1,2
1558441757634696,-1,-2,-2,-3,-5,-5,-6,-2
1558441757634696,0,-1,-4,-4,-5,-8,-8,-4
1558441757641675,-3,-2,-2,2,-6,-6,-8,-6
1558441757641675,-1,-2,1,6,3,4,6,4
1558441757657634,0,-1,2,3,9,-3,0,-2
1558441757657634,-4,-3,-4,-5,-5,1,-2,-2
1558441757664615,0,0,-2,0,-2,5,-7,-2
1558441757664615,-1,0,-2,6,-6,-13,-5,-3
1558441757671596,-1,0,-3,-6,0,5,4,0
1558441757671596,0,0,4,11,10,5,6,4
1558441757686555,-1,2,0,-6,-3,-14,-1,-1
1558441757686555,-3,-4,-4,-4,-8,-9,-10,-7
1558441757694535,0,-3,-5,-5,-8,-2,-5,-2
1558441757694535,0,-2,0,-1,3,5,3,0
1558441757701516,3,0,3,7,4,13,2,3
1558441757701516,1,2,-4,-5,7,0,12,6
1558441757717473,-2,-1,6,0,-2,-7,-4,-1
1558441757717473,1,1,-6,-5,-7,1,-5,-3
1558441757725452,-2,-3,-4,-5,-7,-8,-4,-1
1558441757725452,4,1,-2,3,2,7,0,1
1558441757740412,-1,-2,5,4,-6,-8,1,-1
1558441757740412,0,0,-1,-6,2,6,2,2
1558441757746396,-1,0,0,0,3,9,2,-2
1558441757746396,-5,-2,5,6,3,-4,1,-2
1558441757755372,1,1,0,3,5,0,2,1
1558441757755372,-3,-4,-6,-1,-8,-6,-6,-5
1558441757778311,-1,-1,-9,-22,-10,-5,-4,-5
1558441757778311,-1,-3,3,2,-1,5,1,-1
1558441757778311,-3,-3,-5,-3,-10,-18,-7,2
1558441757778311,3,2,3,1,10,11,9,5
1558441757784295,0,-2,-1,4,1,-3,0,0
1558441757784295,-3,-1,-1,-5,-2,-2,2,-2
1558441757791275,2,-1,3,5,3,6,-2,0
1558441757791275,-4,-3,-4,-4,-5,-4,-6,-5
1558441757806238,-3,-2,-3,-3,-9,-2,0,-3
1558441757806238,-1,1,0,-3,-2,-5,-4,-3
1558441757815212,1,2,-1,-1,10,16,4,2
1558441757815212,2,0,4,5,7,-4,5,4
1558441757830171,-3,-2,-2,5,3,3,-1,0
1558441757830171,-2,-3,-5,-13,-10,-10,0,-1
1558441757837153,1,0,-2,3,4,5,1,0
1558441757837153,0,-1,1,-10,-8,-7,-1,-2
1558441757844134,-1,-1,2,3,2,-6,-5,1
1558441757844134,2,0,5,10,6,4,-2,0
1558441757852114,1,-3,-9,-7,-1,4,3,0
1558441757852114,0,-2,3,7,-1,-4,-2,0
1558441757867074,-3,-2,-1,-4,-4,4,-1,-1
1558441757867074,1,0,2,6,7,0,1,1
1558441757875052,0,-3,-3,-12,-1,-3,1,-1
1558441757875052,-4,-1,-1,1,-6,-4,-8,-6
1558441757889014,0,0,-2,-2,2,-2,-1,-2
1558441757889014,-4,-5,-11,-6,-3,-1,-2,-2
1558441757896993,-1,-2,0,-3,-3,0,0,1
1558441757896993,-5,-4,-9,-8,-7,2,2,-1
1558441757903976,1,-4,2,0,0,-3,0,-2
1558441757903976,0,0,0,0,-3,-4,-4,-3
1558441757911954,0,1,1,4,1,-7,-1,-1
1558441757911954,2,3,-3,-6,5,7,2,2
1558441757926914,-3,-1,8,3,-2,1,-2,0
1558441757926914,1,-2,-3,2,2,-4,0,2
1558441757942870,-2,1,2,0,-6,-7,-2,-1
1558441757942870,-2,-3,-4,-1,1,3,-1,-3
1558441757948855,2,2,2,2,10,1,3,1
1558441757948855,-2,-2,-1,-2,2,-1,-3,-1
1558441757957831,-3,-3,4,4,2,5,-1,-2
1558441757957831,-2,1,-3,-13,-8,-4,-2,-1
1558441757963815,-2,-2,-1,-2,-7,-5,-3,-3
1558441757963815,0,0,2,-3,1,5,-2,-2
1558441757971793,0,-2,-4,-2,1,-1,-1,-1
1558441757971793,-3,-3,-2,9,5,2,3,0
1558441757986753,0,0,1,3,-6,-8,-3,-3
1558441757986753,-1,0,-1,-6,3,8,7,1
1558441757994732,-3,-5,-4,0,-8,-8,-6,-4
1558441757994732,0,-1,-3,0,-7,-8,-2,-2
1558441758017671,-3,0,-1,-4,8,11,8,0
1558441758017671,-4,0,3,7,-8,-7,-9,-2
1558441758018668,-3,-1,-1,2,-1,6,0,-1
1558441758018668,0,-1,-5,-10,0,-2,-3,1
1558441758024652,-3,-3,3,9,3,4,-2,-3
1558441758024652,1,1,3,-1,-2,-1,0,1
1558441758031633,-3,-3,-2,2,-1,3,1,-4
1558441758031633,-4,-1,4,1,-5,-3,-7,-5
1558441758046593,0,-1,-3,-3,1,-1,-2,0
1558441758046593,0,0,1,6,8,5,4,4
1558441758062550,-1,-2,-6,-5,-6,-7,3,-1
1558441758062550,2,2,5,9,7,-12,5,2
1558441758069534,0,1,-4,-6,6,16,6,2
1558441758069534,-2,-2,-6,-1,-8,0,-2,-4
1558441758077512,0,-2,-6,-10,-5,3,-1,0
1558441758077512,1,1,-2,6,-6,-17,-6,-1
1558441758084492,-4,-3,-5,-11,-8,-2,-3,-4
1558441758084492,1,0,2,3,5,1,4,3
1558441758099451,1,0,4,8,4,-12,-4,-1
1558441758099451,-2,-4,3,-5,-1,15,-1,-3
1558441758106434,1,-1,4,5,3,-1,2,1
1558441758106434,1,1,4,3,6,10,1,0
1558441758114412,1,2,2,2,7,-1,3,3
1558441758114412,-1,-2,-6,3,-10,-17,-18,-4
1558441758129373,2,-1,-7,-8,-3,5,9,5
1558441758129373,-3,-4,-2,-2,-8,-8,-4,-4
1558441758138348,0,1,1,3,4,-1,6,3
1558441758138348,-2,0,-3,-9,-3,5,-4,-2
1558441758144332,-3,-1,-9,-3,-13,-7,-10,-8
1558441758144332,-1,-2,1,-6,-2,-9,-8,-3
1558441758160289,-1,-3,-6,-13,-12,-8,-3,-3
1558441758160289,2,3,8,11,16,18,12,5
1558441758166273,0,-1,-4,1,-5,-2,-3,-2
1558441758166273,-1,0,-4,-3,-5,-4,-3,-2
1558441758181234,-3,-1,-2,3,10,10,-3,-2
1558441758181234,-4,-3,-2,-13,-6,-6,-3,-4
1558441758189212,0,-3,-1,-4,-10,-9,-8,-4
1558441758189212,2,-1,-5,-5,-4,-3,-3,-2
1558441758198187,0,1,8,6,-3,0,-5,-2
1558441758198187,1,-3,-6,2,5,10,10,4
1558441758204172,1,1,2,-4,6,-6,6,2
1558441758204172,0,1,3,3,1,-5,3,0
1558441758220129,1,1,-2,-5,-2,5,-6,-1
1558441758220129,-3,-2,2,-1,-4,3,0,-3
1558441758236091,-1,-1,-1,-8,-12,-16,-11,-3
1558441758236091,-3,-2,-4,2,16,18,12,3
1558441758237084,0,0,-1,1,-2,0,0,0
1558441758237084,-2,-1,3,3,-3,-3,1,-3
1558441758249051,-4,-3,-2,-1,-1,-1,2,-3
1558441758249051,-3,-4,-1,-3,-9,-10,-8,-5
1558441758258030,-2,-1,-1,-1,1,-8,1,1
1558441758258030,2,0,1,0,-3,-7,1,1
1558441758264018,0,-2,-6,1,4,8,-3,-1
1558441758264018,-2,0,0,1,0,0,0,0
1558441758280984,-4,-2,-2,-5,-4,7,5,1
1558441758280984,-2,1,-2,1,-5,-18,-7,-2
1558441758286955,0,-1,0,-4,-1,-8,-10,0
1558441758286955,-1,-1,-2,1,-1,-1,4,3
1558441758295935,-2,-1,-6,-4,-3,-1,-2,-2
1558441758295935,1,0,2,1,4,12,5,0
1558441758308901,1,-1,-1,1,-6,-14,-5,-1
1558441758308901,1,2,4,1,10,16,13,3
1558441758317869,-1,1,-1,-3,-1,-15,-2,0
1558441758317869,-3,-2,-5,-2,-7,1,0,-1
1558441758323852,-2,-3,6,8,2,-2,0,-1
1558441758323852,-2,-3,-5,-7,-5,1,-12,-7
1558441758340816,2,0,0,1,0,7,4,-2
1558441758340816,0,2,-4,-9,4,-4,1,0
1558441758346791,-1,-1,-2,-6,-1,6,-1,-1
1558441758346791,-4,-3,1,2,-10,-14,-13,-5
1558441758355772,1,-3,-4,-2,4,4,6,1
1558441758355772,-3,-4,-1,3,-5,-8,-7,-1
1558441758369730,-2,-3,-6,-4,-1,4,2,-3
1558441758369730,1,2,4,2,1,-4,-5,1
1558441758385690,-4,-5,-6,-6,-15,-11,-10,-8
1558441758385690,0,0,2,7,10,8,4,-1
1558441758391669,-1,1,-2,-1,3,4,4,2
1558441758391669,-1,0,-2,1,-2,-12,1,0
1558441758408625,1,-1,1,-2,0,-4,-4,0
1558441758408625,1,1,4,0,-1,1,-2,-1
1558441758409621,-4,-1,-4,-2,-2,11,-2,-3
1558441758409621,0,-1,-4,-2,-2,0,2,-3
1558441758415607,-1,-1,5,6,4,-4,3,3
1558441758415607,-4,-4,-5,-5,-5,-5,-4,-2
1558441758438543,0,1,0,5,4,-4,1,4
1558441758438543,-2,-3,-1,-2,-5,6,0,0
1558441758439542,0,1,0,-3,-2,-3,5,-1
1558441758439542,0,-3,-5,-6,-9,-5,-6,-3
1558441758451514,-4,-3,2,-2,-5,-7,-9,-6
1558441758451514,0,-1,-1,1,11,11,14,6
1558441758460489,-1,-2,2,3,1,-3,-3,-3
1558441758460489,-1,-1,-5,-1,-2,1,-4,-4
1558441758475450,1,-2,-4,-8,-5,-2,3,-2
1558441758475450,-4,-2,-2,-2,-6,-5,-10,-5
1558441758477443,-3,-1,-5,-3,-2,9,1,-1
1558441758477443,2,1,9,8,12,4,4,4
1558441758489416,-3,-2,-8,-7,-5,-6,-4,-2
1558441758489416,-2,-4,2,-1,2,4,6,0
1558441758498385,2,3,-4,-8,-8,-12,-5,0
1558441758498385,-3,-2,-2,-3,-4,0,-4,-4
1558441758512407,-3,1,5,7,5,2,1,0
1558441758512407,0,-1,-2,-3,-6,-4,-1,1
1558441758520429,-2,-2,-1,-2,3,-1,-3,-2
1558441758520429,0,-3,-7,-4,-4,2,-3,-2
1558441758536332,3,1,8,13,9,2,9,2
1558441758536332,-2,-2,-8,-21,-14,-5,-13,-5
1558441758537286,-2,-2,-2,3,2,7,-3,-3
1558441758537286,-1,-2,-9,-13,3,5,2,1
1558441758549255,-4,-3,4,9,-5,-14,-3,-4
1558441758549255,0,-2,-6,-2,-2,-7,-4,-1
1558441758558228,-1,-4,4,5,-1,4,4,-1
1558441758558228,-2,-1,-5,-1,-5,-6,-4,-2
1558441758572235,1,-1,-7,-13,-6,4,-1,-1
1558441758572235,-2,2,7,5,-1,-5,-10,-2
1558441758581185,2,5,-2,-3,3,-1,1,2
1558441758581185,-4,-7,-3,3,-1,0,1,-1
1558441758596128,1,0,-3,-14,-5,-7,-4,1
1558441758596128,1,0,0,1,3,3,5,1
1558441758611084,-1,-1,-5,-6,-2,1,-3,-2
1558441758611084,-1,2,2,1,1,4,4,-2
1558441758612083,-3,-2,7,7,-2,-8,-4,-2
1558441758612083,-1,-1,-3,-2,-2,-3,-2,-1
1558441758618066,0,0,-4,-6,2,7,-2,1
1558441758618066,-2,-4,3,3,-7,-5,-4,-4
1558441758632106,0,-2,-8,-7,1,1,4,-1
1558441758632106,3,4,5,12,11,2,7,3
1558441758641004,-2,-1,1,2,1,0,-1,2
1558441758641004,0,0,6,4,3,-7,5,2
1558441758663193,0,-1,-10,-5,-2,9,-2,-2
1558441758663193,0,2,3,8,3,-4,-3,-2
1558441758664941,-5,-6,0,4,-5,0,-6,-5
1558441758664941,0,0,-1,-4,4,11,7,5
1558441758669250,3,4,1,7,6,-4,6,3
1558441758669250,-2,0,7,4,1,-9,-3,-1
1558441758677925,-3,-3,-9,-17,-16,-6,-13,-7
1558441758677925,1,1,-3,3,-3,1,-5,-3
1558441758691866,2,0,-2,-2,5,4,12,5
1558441758691866,-3,-4,-3,-2,-4,-2,-4,-2
1558441758700843,-1,-1,-6,-7,-2,-1,8,2
1558441758700843,4,1,3,-1,3,-11,-2,-2
1558441758713809,2,-1,2,4,2,-1,-5,0
1558441758713809,-5,-2,-6,-7,-4,5,-1,-3
1558441758722786,-5,-1,-1,0,-1,-6,1,-3
1558441758722786,0,3,-11,-9,-4,-2,0,2
1558441758737743,-4,-4,11,6,1,-1,-3,-3
1558441758737743,0,-1,-2,-7,1,10,5,1
1558441758739738,0,-1,1,-3,-1,-7,2,-1
1558441758739738,-3,-3,-3,-4,2,-3,0,-2
1558441758752012,-3,0,-5,5,-5,-4,3,2
1558441758752012,-2,-1,-5,-8,-8,-7,-11,-7
1558441758767664,0,-1,3,3,3,3,1,0
1558441758767664,-2,-3,-2,3,2,7,-6,0
1558441758774663,-3,-4,-2,-5,-4,-4,-6,-5
1558441758774663,-3,-5,-11,-19,-9,-2,6,0
1558441758782625,-2,-1,6,11,5,-19,-7,0
1558441758782625,-1,0,-10,-15,-12,-8,-3,-4
1558441758789644,0,1,3,9,-3,-1,-6,2
1558441758789644,2,2,-14,-19,4,18,5,1
1558441758798582,-4,0,5,6,1,3,2,-3
1558441758798582,-2,-2,9,9,0,-5,5,-2
1558441758811578,-1,-1,-6,-9,-2,2,-8,-2
1558441758811578,0,-2,-5,-10,-8,-10,-4,-3
1558441758820522,-3,-2,-11,2,2,5,4,2
1558441758820522,-2,-2,18,14,11,7,5,6
1558441758834692,-4,-1,0,-8,-2,-10,-4,-1
1558441758834692,0,0,5,3,10,1,-4,-2
1558441758850640,3,2,-5,-10,-12,-1,2,0
1558441758850640,-1,-1,-10,-2,-6,3,-5,-5
1558441758850640,-4,-5,2,-2,-10,-10,-9,-9
1558441758850640,1,-2,-1,3,2,-3,4,4
1558441758858423,2,0,4,14,16,15,1,-1
1558441758858423,1,0,-11,-12,-9,-14,-11,0
1558441758871590,-2,-2,20,31,11,5,3,-4
1558441758871590,-5,-3,-7,-9,-15,-18,-13,-6
1558441758880369,7,3,-7,-3,-3,3,3,0
1558441758880369,-6,0,0,-10,1,12,5,1
1558441758894573,-1,-1,-7,-3,6,-4,1,0
1558441758894573,1,4,12,18,0,2,-2,-1
1558441758903306,-3,-5,1,-12,-11,-14,-4,4
1558441758903306,-2,-4,-13,-13,-3,-8,-15,-12
1558441758909491,1,1,2,-6,-3,-4,2,0
1558441758909491,2,0,3,9,5,4,-4,-1
1558441758918277,1,1,-5,-16,-1,11,8,2
1558441758918277,-2,-3,-5,3,-6,-14,-5,-6
1558441758932231,-3,2,1,0,5,10,3,-4
1558441758932231,-2,-3,-8,-4,-5,-2,0,-1
1558441758941201,-2,0,15,16,7,-10,-1,-3
1558441758941201,4,5,4,0,-1,-5,11,6
1558441758954386,-1,-5,-13,-13,-4,5,-7,-4
1558441758954386,-1,1,7,19,5,-8,-10,5
1558441758963194,-6,-8,-6,-21,-5,-1,-7,-8
1558441758963194,2,-1,4,7,0,5,-4,-1
1558441758969138,2,3,1,-8,1,7,14,5
1558441758969138,-3,-3,-11,4,-2,-12,2,0
1558441758978104,3,4,9,8,4,-3,-8,3
1558441758978104,-6,-9,-14,-1,1,1,-2,-3
1558441758992064,-2,-4,-12,-15,-12,0,-3,0
1558441758992064,-2,-3,0,-2,-6,-1,-1,-2
1558441759001041,-1,-1,5,11,11,8,0,-1
1558441759001041,2,0,5,4,5,3,1,1
1558441759014006,2,3,2,4,9,3,3,0
1558441759014006,-5,-3,-3,-3,-7,-1,-2,-5
1558441759022980,0,0,-6,4,5,0,0,1
1558441759022980,1,-1,7,-2,0,3,2,4
1558441759028964,2,3,-4,1,-4,-6,-7,-1
1558441759028964,-7,-7,4,1,-3,6,0,-10
1558441759037941,2,-2,-5,-22,-12,-17,-11,0
1558441759037941,-2,-1,1,5,1,0,5,1
1558441759051904,1,2,-3,-2,-3,-4,1,3
1558441759051904,0,1,1,-6,4,1,-3,-3
1558441759060881,2,3,1,3,-2,12,7,2
1558441759060881,-4,-9,-9,0,-12,-17,-11,-6
1558441759073851,-4,-6,-11,-18,-19,-7,-9,-6
1558441759073851,1,-1,6,-3,15,16,13,5
1558441759082826,-3,-2,4,11,4,2,5,-4
1558441759082826,0,5,0,-23,-4,2,-17,-4
1558441759089804,-2,-6,4,19,-1,-5,-5,-3
1558441759089804,-1,0,-4,-8,-6,-7,9,1
1558441759105763,1,-2,-3,7,4,-1,7,1
1558441759105763,1,2,0,-1,8,11,4,1
1558441759120724,-2,0,6,4,2,1,-10,-3
1558441759120724,0,0,2,-1,-8,1,-7,0
1558441759121720,0,-3,-4,0,5,1,-1,-3
1558441759121720,0,1,3,7,-7,-8,2,2
1558441759134684,2,1,-1,-2,17,17,15,9
1558441759134684,-1,-1,2,9,-1,-7,-6,-5
1558441759143661,-2,-2,-4,-5,-8,-6,-3,-1
1558441759143661,-3,0,4,9,4,2,8,-8
1558441759149646,-1,-2,1,-9,-5,-12,-4,-1
1558441759149646,1,4,-9,3,7,12,5,3
1558441759158620,-4,-4,-8,-13,-16,0,-5,-3
1558441759158620,2,1,5,4,4,2,4,5
1558441759171598,-5,-2,-1,3,6,12,11,-1
1558441759171598,-2,-1,-2,1,-13,-23,-16,-5
1558441759180562,-4,-2,5,-2,-3,9,-9,2
1558441759180562,-1,0,1,6,4,-1,11,1
1558441759194524,-4,-8,-18,-17,-12,-8,-1,-5
1558441759194524,0,1,5,-6,1,2,0,-2
1558441759210483,-2,-1,-2,2,-6,-18,-3,0
1558441759210483,1,1,7,-2,-7,-18,-10,-2
1558441759218458,-1,-2,-6,4,10,12,3,0
1558441759218458,-1,0,4,8,7,12,10,2
1558441759219456,-5,-2,-4,-8,-13,4,-5,-8
1558441759219456,-2,-4,-13,-5,-3,2,-12,-3
1558441759231429,0,-1,2,-7,4,-3,3,6
1558441759231429,0,-3,1,1,3,-4,4,-2
1558441759240765,2,1,-6,2,7,4,9,6
1558441759240765,0,3,3,0,1,-3,-4,-3
1558441759254753,0,-2,-5,-4,-17,-18,-13,-7
1558441759254753,0,-1,-1,2,-2,6,4,-1
1558441759263377,-2,-1,0,-9,1,9,1,3
1558441759263377,-2,-2,0,3,2,-4,2,-3
1558441759278613,0,2,3,2,4,-4,-7,2
1558441759278613,0,-1,-9,-12,-5,-1,8,3
1558441759279634,0,1,3,8,7,0,-8,-6
1558441759279634,-2,-2,-2,-5,-9,0,13,4
1558441759292413,-1,1,3,3,-2,2,-2,-1
1558441759292413,2,2,-4,1,-1,-16,-2,2
1558441759300509,-2,-3,-4,-5,2,9,9,-1
1558441759300509,-3,-4,2,7,3,4,-5,-3
1558441759314266,0,2,2,8,-1,4,1,-3
1558441759314266,-2,0,-3,-8,-1,-9,2,1
1558441759323242,-5,-2,3,7,-6,-9,-4,-4
1558441759323242,0,0,1,-4,1,5,-14,-1
1558441759338429,-4,0,0,7,1,3,-1,1
1558441759338429,-1,-6,-3,9,-4,0,-2,-4
1558441759339202,1,-2,-3,-1,-6,-8,-2,2
1558441759339202,3,2,1,5,5,-3,6,-1
1558441759352359,-2,0,5,10,11,5,-4,-4
1558441759352359,-1,-3,-6,-12,5,9,-6,-3
1558441759361141,-4,-3,-2,7,-5,-12,-14,-4
1558441759361141,4,3,-2,-6,6,17,13,10
1558441759374375,3,2,2,-6,-2,-5,-16,0
1558441759374375,-1,-3,1,5,-8,-9,1,1
1558441759383081,3,4,4,1,5,-6,4,2
1558441759383081,-7,-7,-6,-4,-1,1,-1,-4
1558441759398056,-2,1,-3,-8,-3,-5,-10,-3
1558441759398056,0,1,1,2,6,13,0,2
1558441759400044,0,-2,-7,-16,-14,-3,-4,-2
1558441759400044,-4,-6,-4,-4,-6,-11,-8,0
1558441759412221,0,0,4,1,0,1,0,-4
1558441759412221,-1,-2,-1,-8,-3,-3,-2,2
1558441759421245,2,1,-5,3,8,12,5,1
1558441759421245,-2,-1,0,-4,5,-1,-3,0
1558441759433945,-1,-4,-1,-5,-6,2,3,-2
1558441759433945,-1,-1,2,1,0,-4,2,-1
1558441759442920,-3,0,1,0,-4,-3,-7,-7
1558441759442920,-2,1,-1,6,8,10,10,6
1558441759457880,-2,-3,-5,-13,-5,-1,-2,-4
1558441759457880,-1,-1,-1,-4,0,1,1,-3
1558441759459875,-6,-8,5,7,1,2,-16,-5
1558441759459875,-3,-3,-8,0,-13,-7,-4,-7
1558441759480818,0,-1,-4,0,4,1,20,6
1558441759480818,-1,2,5,4,10,16,14,2
1558441759481815,0,-1,4,2,-2,-8,-6,-1
1558441759481815,-2,2,0,-6,-3,1,3,-5
1558441759493783,1,0,1,4,1,-2,8,-1
1558441759493783,-4,-5,-7,-4,-11,-13,-23,-3
1558441759502763,1,2,-2,2,5,-5,31,5
1558441759502763,5,1,0,-3,-4,-4,5,0
1558441759518808,-2,-3,7,13,7,3,8,0
1558441759518808,-5,-2,-2,-3,-8,-7,-11,-7
1558441759519715,-2,-1,-6,-5,-4,2,-12,-4
1558441759519715,-3,-1,-2,3,-3,-2,0,-2
1558441759541957,0,1,-8,-12,-8,-13,-4,-1
1558441759541957,4,3,10,12,15,16,10,5
1558441759546876,-2,-4,-11,-13,-6,-12,-10,-2
1558441759546876,-2,-2,-2,-6,-6,-2,-16,-1
1558441759554621,-2,0,-3,-4,0,2,-3,2
1558441759554621,0,1,1,5,4,-3,-2,-2
1558441759562897,0,-1,-1,-4,-5,-4,4,-4
1558441759562897,-3,-5,-3,-1,-8,-10,-3,-1
1558441759578745,0,0,0,-4,3,-2,-6,3
1558441759578745,-1,0,2,-4,-6,-2,4,3
1558441759579557,-1,-2,0,2,6,4,4,-1
1558441759579557,-2,-2,-2,-9,0,-4,-4,-1
1558441759591552,-2,-1,-4,5,-2,9,3,0
1558441759591552,-5,-7,-2,-7,-14,-4,-24,-9
1558441759600606,3,3,-1,-2,2,-4,1,6
1558441759600606,2,2,8,5,9,-3,4,0
1558441759614461,-3,-2,-2,0,1,4,14,-3
1558441759614461,1,-1,1,-1,-10,-15,-19,-4
1558441759623438,4,-3,-9,-2,2,11,8,6
1558441759623438,1,3,7,7,9,8,6,4
1558441759638626,-1,0,2,8,8,-3,10,-5
1558441759638626,0,-1,-14,-14,0,0,1,-1
1558441759639396,-3,3,7,3,-6,-14,-16,-4
1558441759639396,-2,-3,-14,-11,-9,11,-6,-2
1558441759660372,-1,-3,3,0,-8,-9,-4,1
1558441759660372,-1,-1,-1,1,-2,-11,15,2
1558441759662335,-1,0,-3,3,6,5,2,-2
1558441759662335,0,0,3,-6,-3,2,3,-2
1558441759674304,0,2,10,14,1,0,-20,-5
1558441759674304,-2,-1,-4,-6,0,6,2,4
1558441759683282,0,-2,-2,-5,-10,-14,3,1
1558441759683282,-1,1,2,11,10,-3,-3,-7
1558441759698240,1,-2,-5,-7,-4,-2,-11,-3
1558441759698240,2,0,4,5,6,1,1,3
1558441759699235,-1,-2,-4,-1,-7,4,-3,0
1558441759699235,1,-1,-4,-4,-10,-2,-3,1
1558441759712422,-2,-2,4,-7,-2,-5,2,3
1558441759712422,-2,-2,-1,3,6,-4,4,-3
1558441759720401,-2,0,-1,0,5,6,1,-4
1558441759720401,0,-1,-3,-2,-3,-7,-2,0
1558441759734631,-4,-2,-7,-11,-9,-3,-7,0
1558441759734631,-2,-1,0,-2,5,20,10,1
1558441759743370,0,0,7,4,0,-4,-4,2
1558441759743370,-1,-1,-11,-10,-4,-6,6,-1
1558441759758389,4,3,-3,-2,0,-4,-5,2
1558441759758389,-2,-4,2,4,-1,1,-12,-3
1558441759772290,-1,-1,2,0,0,7,4,-1
1558441759772290,0,0,-1,0,-1,-3,-13,-2
1558441759773288,4,1,1,-5,7,5,13,3
1558441759773288,-3,-1,-5,-5,-2,-2,-1,-2
1558441759780267,0,-1,-7,0,-4,3,-6,-2
1558441759780267,0,2,7,5,6,8,6,0
1558441759794446,-4,-2,-7,-9,-8,-6,-4,-3
1558441759794446,2,2,2,4,-5,-18,6,4
1558441759803230,-3,-2,-9,-8,0,0,0,-2
1558441759803230,-2,0,-1,-1,-4,3,-8,-3
1558441759819173,-2,-2,-3,-3,-10,-9,-9,-5
1558441759819173,0,1,1,3,4,-7,14,1
1558441759824375,-4,-1,4,-4,-1,-4,-2,-4
1558441759824375,-1,-2,-1,-5,-6,-6,-5,0
1558441759832132,-7,-7,-8,-2,-5,7,-3,-3
1558441759832132,-3,-4,4,0,-8,-4,-17,-8
1558441759841103,-1,-4,-7,-2,1,-6,3,2
1558441759841103,0,1,4,2,9,2,13,3
1558441759855069,-2,0,7,11,2,5,-5,-5
1558441759855069,2,2,-5,-9,-5,-1,-5,-1
1558441759863045,1,-2,-3,-2,-4,-9,-3,-1
1558441759863045,3,3,6,9,8,13,6,3
1558441759878004,-1,-5,-10,-18,-6,-4,-4,0
1558441759878004,-5,-2,3,1,-1,-1,-15,-5
1558441759879999,-2,3,3,1,-2,-1,-3,0
1558441759879999,-4,-6,-9,-8,-11,-9,-15,-7
1558441759892253,-2,-2,2,8,1,-5,7,-4
1558441759892253,0,-1,-3,0,7,4,5,1
1558441759900946,-1,-1,2,-2,-4,-12,-8,-3
1558441759900946,-1,-2,-2,-3,-10,-16,-9,-3
1558441759914949,2,1,-1,3,2,11,4,1
1558441759914949,-4,0,-2,-1,-1,5,8,0
1558441759923229,0,0,1,8,4,8,2,0
1558441759923229,-2,-4,-5,-14,-1,-5,0,0
1558441759939190,-2,0,1,2,1,3,8,0
1558441759939190,1,0,-3,-4,-5,2,-14,-5
1558441759940866,-1,-2,-4,-2,-6,-7,-13,-6
1558441759940866,-2,-1,0,5,4,-1,9,0
1558441759952128,1,-2,-2,-7,-7,-15,3,0
1558441759952128,0,1,0,2,-5,-4,-3,-5
1558441759960786,-2,-1,-2,1,0,10,-3,-3
1558441759960786,-3,-2,-9,-11,-1,1,-10,-1
1558441759983820,-1,0,2,6,3,0,-10,-4
1558441759983820,2,2,5,2,8,-4,13,5
1558441759984730,1,-2,1,1,-2,-9,5,2
1558441759984730,-6,-5,6,5,-5,-4,-6,-5
1558441759997688,-1,1,1,7,-3,-1,-16,-5
1558441759997688,-2,-6,-11,-15,-5,0,0,-1
1558441760004829,2,3,-1,-6,13,11,9,5
1558441760004829,-2,0,7,4,1,-4,12,4
1558441760011878,-1,-2,-2,0,-2,-1,3,0
1558441760011878,3,-3,-1,-4,-3,-2,1,4
1558441760020628,-3,-2,5,4,-1,3,-15,-4
1558441760020628,1,0,-7,-3,2,4,8,0
1558441760034841,0,-1,3,8,3,-2,3,3
1558441760034841,0,-2,-1,-4,-5,-2,0,-2
1558441760050549,-3,-4,-2,-6,-8,0,3,-2
1558441760050549,-2,0,-2,-5,-11,-1,-18,-5
1558441760057558,0,-1,-3,0,2,4,11,8
1558441760057558,-3,-1,3,3,5,-5,7,3
1558441760072488,0,-1,3,11,3,1,-5,-4
1558441760072488,1,1,2,-4,-7,0,-2,-1
1558441760073481,1,-1,-9,-3,10,11,16,6
1558441760073481,-4,-2,-7,-11,-10,-7,-17,-6
1558441760080464,2,0,-1,-5,-11,-7,-5,-1
1558441760080464,-5,-3,-1,0,-7,1,3,-3
1558441760094428,0,1,1,-5,5,-3,0,-2
1558441760094428,-3,-2,-2,-1,4,6,7,0
1558441760103406,-1,0,1,1,6,-8,0,0
1558441760103406,1,0,0,1,2,3,-4,1
1558441760117659,-2,0,0,-10,-13,-7,-18,-5
1558441760117659,-1,-3,-2,5,2,10,7,1
1558441760124624,-2,-2,0,-6,-8,-12,-13,-3
1558441760124624,-2,-5,-2,4,0,-2,-5,-1
1558441760141301,1,1,0,5,10,11,13,5
1558441760141301,2,2,-4,-7,8,-8,8,4
1558441760142299,-1,-1,1,3,3,7,5,2
1558441760142299,0,-2,-3,-3,-9,-6,-9,-3
1558441760154328,-2,0,-2,1,-8,-9,-5,-2
1558441760154328,-1,0,8,9,2,3,-7,1
1558441760163242,1,-1,-2,-8,5,3,14,4
1558441760163242,2,-1,-3,-3,5,-12,0,2
1558441760177511,-7,-5,3,3,-4,0,-1,-8
1558441760177511,-1,1,-7,0,-6,0,-5,-3
1558441760184494,-1,0,3,6,11,10,7,2
1558441760184494,1,2,-4,-6,-3,2,-6,-4
1558441760201420,1,-3,-1,-4,1,6,4,3
1558441760201420,-3,0,5,9,6,0,6,-2
1558441760202142,-3,-4,-11,-17,-20,-11,-10,-6
1558441760202142,1,5,2,8,2,-7,5,2
1558441760214107,-1,-1,-7,-13,9,13,5,1
1558441760214107,-1,0,-1,-3,-1,7,-5,-5
1558441760223246,1,1,3,0,2,-4,-8,-2
1558441760223246,4,2,-6,-7,2,-2,-20,5
1558441760237046,2,1,4,3,-10,-27,2,5
1558441760237046,-1,-7,0,2,-10,-13,-2,1
1558441760244302,1,0,-5,-12,-9,-4,3,2
1558441760244302,-2,-2,3,3,12,19,-8,0
1558441760260980,1,0,-5,-6,-7,-12,-11,-4
1558441760260980,1,0,1,8,5,5,-5,1
1558441760261980,-2,2,3,5,6,2,18,4
1558441760261980,-4,-2,1,-1,-5,0,11,-3
1558441760273945,-7,-4,2,-2,0,-6,6,0
1558441760273945,-1,1,-2,-1,0,-2,-3,-3
1558441760282921,-7,-8,-5,-8,-13,-7,-15,-9
1558441760282921,1,-3,0,5,0,-4,9,1
1558441760297883,-1,-3,-4,-10,4,17,0,-1
1558441760297883,-2,-1,2,-2,-5,-4,-8,-6
1558441760303894,-2,-4,-1,5,3,0,-3,-3
1558441760303894,-2,-2,-1,-9,-10,-19,5,-2
1558441760320819,3,3,4,8,-5,-14,-6,0
1558441760320819,-6,-6,-6,-7,-4,3,-4,-3
1558441760322204,2,1,-2,1,9,28,4,1
1558441760322204,-2,-2,0,8,-3,-9,9,0
1558441760335196,-1,1,-2,-2,2,-5,-12,-4
1558441760335196,0,1,3,2,0,13,14,1
1558441760343222,-4,-3,-11,-6,-7,-7,-8,-4
1558441760343222,-1,0,0,4,5,11,8,-2
1558441760358166,-5,-2,-2,-8,1,4,-6,-8
1558441760358166,0,-3,-6,-2,-4,-6,-9,-1
1558441760363705,1,0,-3,-1,-7,-12,9,1
1558441760363705,-1,-1,3,0,2,-1,0,4
1558441760380660,3,-1,-2,5,-2,-14,2,1
1558441760380660,0,3,2,-5,5,5,0,-1
1558441760381658,-2,-2,-1,2,-4,1,-11,0
1558441760381658,-1,0,-1,-2,3,18,-2,-6
1558441760394961,-1,1,4,3,2,5,5,0
1558441760394961,-2,-3,-4,-2,-6,-14,-13,-8
1558441760403598,0,2,3,-5,-1,2,0,-1
1558441760403598,-3,-3,-10,-5,-7,-13,-7,0
1558441760417781,-4,-5,-7,-6,-15,-14,-11,-8
1558441760417781,2,3,4,6,13,12,6,5
1558441760424793,-2,-3,4,1,-2,-6,-3,0
1558441760424793,-2,0,0,-1,-5,-6,-7,-6
1558441760441500,-2,-3,-6,1,-12,-11,-21,-9
1558441760441500,1,-1,-7,-7,-6,-2,7,2
1558441760442498,1,2,7,10,8,-12,-4,0
1558441760442498,2,2,0,-8,1,18,3,0
1558441760454466,-4,-3,-4,6,0,-3,1,-1
1558441760454466,-1,-1,3,-6,0,4,-9,-3
1558441760463440,-3,-3,-5,6,-5,-1,-5,-4
1558441760463440,2,1,2,2,4,-1,-7,3
1558441760477400,-1,-1,-5,-6,0,7,-1,-5
1558441760477400,2,0,-1,2,-4,-3,8,2
1558441760491364,1,0,1,-4,8,3,3,-1
1558441760491364,-2,-1,-2,-3,-5,-2,-4,-4
1558441760500339,-3,-1,5,5,5,13,6,0
1558441760500339,-5,-1,-5,-11,-8,-15,-6,-9
1558441760502334,-2,-1,-7,-6,-12,-5,-6,-4
1558441760502334,-1,-4,-2,2,-1,-18,2,5
1558441760514303,4,2,-3,1,2,-8,9,7
1558441760514303,0,-1,3,1,8,14,9,3
1558441760523279,-3,-3,3,4,-3,6,0,-2
1558441760523279,-3,1,4,5,7,1,22,0
1558441760537240,1,0,-5,-11,-10,-3,1,-1
1558441760537240,-2,-2,-5,-3,-5,-2,-3,0
1558441760544221,3,1,-3,-2,7,4,13,11
1558441760544221,-2,-3,7,8,3,-2,-2,-1
1558441760560184,-1,-1,6,-5,5,4,-1,1
1558441760560184,-2,0,-5,0,-2,2,0,-3
1558441760562174,0,0,0,4,-1,7,5,-1
1558441760562174,0,2,-5,-6,-2,-2,-12,0
1558441760574141,-3,-5,0,-3,-9,-10,0,-1
1558441760574141,5,4,7,9,13,8,1,6
1558441760583117,-1,-1,2,2,14,5,19,2
1558441760583117,-1,1,0,6,0,-1,-2,0
1558441760598077,-2,0,1,-5,-9,2,-4,-4
1558441760598077,0,-2,-12,-15,-9,-19,-9,-2
1558441760605058,-1,-3,1,-4,-7,2,-3,-1
1558441760605058,-2,-2,-3,-6,0,8,4,-4
1558441760620018,1,-2,-3,1,3,-6,-2,1
1558441760620018,-2,0,3,3,-5,-12,-12,-4
1558441760622013,-3,-2,-10,-9,-4,-11,-6,-3
1558441760622013,-4,-6,-5,-2,-1,14,-4,-3
1558441760633980,-1,0,1,0,2,-1,-18,-2
1558441760633980,-3,-2,-1,-1,-3,-2,5,1
1558441760642958,2,1,8,8,6,-3,6,2
1558441760642958,-1,1,-2,-1,-1,-12,-5,-1
1558441760656920,0,2,1,-5,0,8,-5,-5
1558441760656920,-2,-2,3,2,-2,-13,-7,-5
1558441760663902,-2,2,0,-3,-6,7,3,-2
1558441760663902,1,1,2,2,5,1,-4,3
1558441760680857,-1,-3,-5,2,13,13,19,3
1558441760680857,-2,-1,-2,-1,-3,-2,-1,-3
1558441760681853,-1,1,-3,-4,-9,-7,-9,-2
1558441760681853,-1,-4,0,7,-6,-5,-22,-7
1558441760693821,-2,-2,-8,-12,-10,-10,1,1
1558441760693821,-1,0,-1,3,0,8,2,2
1558441760702797,1,2,5,9,7,3,-1,0
1558441760702797,2,1,-4,0,1,-2,8,3
1558441760717757,-3,-6,3,-2,-5,-17,-14,-5
1558441760717757,-3,-5,-4,-2,-13,-13,-13,-9
1558441760723741,1,1,-2,0,4,6,10,4
1558441760723741,-1,0,1,-2,1,-10,3,0
1558441760740695,-2,-3,0,0,2,2,4,4
1558441760740695,-3,-3,5,8,-1,-5,-10,-2
1558441760741693,-4,-3,-8,-10,-7,5,-6,-6
1558441760741693,-1,0,-2,-3,-1,5,12,2
1558441760753663,0,-3,-5,1,-2,2,8,0
1558441760753663,-1,1,4,0,2,8,0,-3
1558441760762638,-3,-3,-7,-10,0,7,-8,-4
1558441760762638,-3,-3,-6,-13,-11,-15,-8,-5
1558441760777610,0,-1,3,6,4,6,-4,-1
1558441760777610,-2,-4,-7,-6,-8,-7,6,-2
1558441760784585,1,1,3,9,12,12,2,1
1558441760784585,1,0,2,-5,0,0,-2,0
1558441760800540,0,0,6,7,-1,12,4,-2
1558441760800540,-5,-2,-6,-4,-3,-17,-2,1
1558441760801535,-3,-4,-4,-2,-4,-3,-9,0
1558441760801535,4,2,8,10,8,11,7,7
1558441760823477,0,1,-2,9,2,-7,4,1
1558441760823477,3,0,-7,-15,-2,-5,-6,2
1558441760824472,-2,-3,7,7,0,-5,-2,0
1558441760824472,-1,-4,-16,-21,-8,5,-7,-4
1558441760837476,-2,1,6,5,-6,-5,0,-4
1558441760837476,2,3,2,2,7,11,10,2
1558441760844453,-1,0,2,-1,6,-1,9,1
1558441760844453,-2,-3,-4,3,-10,-9,3,2
1558441760860417,1,0,-6,-8,-2,-6,-1,2
1558441760860417,-3,-2,5,6,-1,4,3,-2
1558441760862405,-2,-2,-13,-11,-16,-15,-6,-5
1558441760862405,1,-1,9,10,15,24,13,0
1558441760883316,-1,1,-3,0,4,-2,-6,-1
1558441760883316,2,1,2,1,-4,-6,11,4
1558441760884312,1,-1,4,10,8,12,-2,-1
1558441760884312,-4,-3,-7,-23,-14,-5,-11,-8
1558441760897279,-1,-1,2,5,-3,1,-10,-8
1558441760897279,1,-1,1,6,14,13,2,5
1558441760904261,-1,1,-2,-1,-3,-6,6,0
1558441760904261,0,1,2,6,1,-2,-4,-4
1558441760920273,-1,2,1,-6,5,8,-4,-2
1558441760920273,-3,-4,-3,-3,-10,-13,-1,-4
1558441760926201,1,1,2,0,7,2,5,3
1558441760926201,-3,-4,-7,2,-6,-8,-13,-6
1558441760934236,-2,-4,-1,-2,-6,3,-4,0
1558441760934236,1,2,-1,2,11,4,13,4
1558441760943155,0,0,-3,-7,1,-10,-6,-2
1558441760943155,2,3,9,8,9,12,14,6
1558441760957116,-2,0,1,0,1,7,6,-1
1558441760957116,-5,-8,-8,-2,-3,10,-5,-4
1558441760966093,0,-2,0,-1,-7,-10,-7,-3
1558441760966093,0,2,-3,-8,1,-3,-4,1
1558441760980055,-1,2,4,7,7,2,13,7
1558441760980055,-4,-3,-5,-2,2,7,-5,-3
1558441760987057,0,-5,-4,-7,-7,-4,-2,-4
1558441760987057,3,0,-1,2,1,-10,5,3
1558441761002996,2,-4,-1,0,-6,-17,-10,-3
1558441761002996,6,4,0,-6,0,4,-10,-3
1558441761003993,-3,-5,-1,-3,-4,0,-6,0
1558441761003993,-6,-3,2,1,-2,3,5,-6
1558441761016992,0,-1,-10,-10,-1,-1,-2,0
1558441761016992,-2,-2,6,1,-2,-3,0,-1
1558441761025935,0,1,-6,-4,-5,-3,-17,-3
1558441761025935,1,-2,1,3,6,5,16,5
1558441761039895,-4,-3,-6,-4,-5,-1,-19,-5
1558441761039895,-4,0,2,5,-3,-2,6,-3
1558441761054857,-2,-2,-5,-11,3,-4,6,3
1558441761054857,-2,-3,1,-4,-6,-7,4,-1
1558441761055855,-1,0,-4,-4,-2,8,-5,-4
1558441761055855,1,0,-1,-4,-7,-2,-18,-1
1558441761062836,0,5,7,5,7,-10,14,5
1558441761062836,-1,-4,-2,2,4,3,5,-1
1558441761076798,-3,-6,-10,-9,-6,-13,4,-3
1558441761076798,-1,-3,-6,1,-10,-1,-9,-5
1558441761085772,1,2,1,1,2,8,2,-1
1558441761085772,-2,-1,6,10,2,3,-8,-3
1558441761107714,1,3,-1,-8,4,0,-2,-2
1558441761107714,0,1,5,10,10,4,-1,0
1558441761109709,-6,-8,-9,-6,-10,-6,-16,-8
1558441761109709,1,2,-4,-2,1,0,-4,-2
1558441761122675,-1,-3,3,2,1,-2,1,1
1558441761122675,-1,-1,-4,-10,-12,-18,-6,-4
1558441761124707,0,0,7,15,10,21,10,-1
1558441761124707,0,-3,-2,-15,-1,-16,-19,-2
1558441761145612,-3,-2,-4,3,-5,-6,2,-2
1558441761145612,1,-1,-4,-4,0,0,12,5
1558441761160574,-2,-1,1,-1,-5,-32,-4,-1
1558441761160574,-2,-3,-7,-1,-6,4,-3,-3
1558441761161571,1,2,6,4,-2,5,-4,-1
1558441761161571,-3,-1,-5,-7,-9,-4,-1,-9
1558441761166592,1,-1,-2,5,15,29,14,4
1558441761166592,-1,-2,-2,-1,0,-6,6,3
1558441761183820,-2,0,5,1,-2,-16,2,-1
1558441761183820,-1,1,1,-2,7,18,-1,0
1558441761184511,0,3,3,6,-7,-10,-4,1
1558441761184511,-1,-1,-3,-1,7,10,2,0
1558441761196478,0,0,0,-3,-1,4,-9,-1
1558441761196478,-2,-3,1,0,7,8,16,3
1558441761206484,-1,-2,-2,3,-4,2,-5,-1
1558441761206484,2,2,3,-1,3,-2,8,0
1558441761219447,-1,-4,-5,3,2,-4,-4,-2
1558441761219447,-4,-1,-2,-5,-6,-1,-9,-5
1558441761226438,-1,-3,-2,-9,-12,-9,-8,-2
1558441761226438,-2,-6,-7,-2,-4,-4,5,1
1558441761243352,0,1,4,8,6,-1,3,3
1558441761243352,-4,-5,-6,-11,-3,-15,-6,-2
1558441761244348,0,-1,-2,-7,-3,2,0,0
1558441761244348,-2,0,1,1,-16,-15,-20,-8
1558441761256318,3,-1,-6,-7,2,16,12,3
1558441761256318,-1,-5,-2,2,0,-11,-1,2
1558441761265292,2,3,4,1,4,-10,-10,0
1558441761265292,-2,-2,-1,2,0,-2,-5,-1
1558441761280254,-2,-3,-2,-2,-3,-1,4,-1
1558441761280254,1,-1,-2,3,-8,1,-4,-3
1558441761286271,-2,0,-2,-11,-2,-5,-10,-6
1558441761286271,-1,0,0,3,1,-2,-7,0
1558441761303236,1,1,1,-3,0,4,9,2
1558441761303236,0,1,2,2,9,-4,-2,1
1558441761304190,-3,-3,-3,-2,-6,0,3,-4
1558441761304190,-3,0,-2,0,-9,-4,-5,-7
1558441761316157,-6,-5,3,-7,-4,-3,-12,-7
1558441761316157,-2,-1,-1,9,12,7,15,3
1558441761325167,2,0,-1,-4,0,4,7,2
1558441761325167,-2,-3,-6,-5,1,1,0,-1
1558441761340092,-1,-1,1,-2,-11,-12,-1,-1
1558441761340092,1,2,1,2,-2,-7,-15,-2
1558441761347074,-4,-7,-4,-5,0,-4,12,6
1558441761347074,0,-1,3,0,2,2,4,2
1558441761363031,-4,-3,-6,-1,3,15,6,-1
1558441761363031,2,4,2,-5,-1,-2,-2,1
1558441761364029,-2,-2,-5,-3,-15,-18,-18,-9
1558441761364029,-4,-4,-4,1,2,5,0,0
1558441761377038,1,3,4,-3,1,-4,0,-1
1558441761377038,1,-5,-4,-6,-3,7,-2,0
1558441761385996,-5,-9,-3,-2,-11,-3,-6,-6
1558441761385996,0,-2,-1,4,12,10,1,-2
1558441761399976,1,4,2,-6,-7,-3,2,4
1558441761399976,-1,-2,-1,-3,0,-12,2,-1
1558441761406978,0,1,3,2,7,8,-2,0
1558441761406978,0,-1,-1,1,-4,-1,-5,-4
1558441761422912,1,0,-2,-2,-1,7,-1,1
1558441761422912,-2,1,0,3,-1,-3,-1,-1
1558441761424867,-2,-2,-1,-2,-8,-7,-7,-5
1558441761424867,1,1,4,-2,2,9,10,4
1558441761436833,-1,-1,3,4,5,-1,-2,2
1558441761436833,-3,-5,-9,-13,-14,-5,-7,-5
1558441761445851,-5,-3,-4,8,-1,5,-15,-12
1558441761445851,0,2,-3,-7,-8,-16,-9,1
1558441761459772,2,2,6,10,16,14,9,0
1558441761459772,-3,-3,-4,-4,-9,-13,-4,-3
1558441761466789,1,-2,-4,1,7,5,0,-2
1558441761466789,-2,0,1,-4,-1,4,-3,-5
1558441761482710,1,-4,-5,-5,-16,-17,-13,-4
1558441761482710,2,3,2,5,9,6,18,6
1558441761484705,3,2,2,9,5,0,4,5
1558441761484705,-5,-7,-11,-18,-17,-16,-19,-8
1558441761496674,-2,-2,-3,6,6,1,7,4
1558441761496674,-3,-2,-1,-8,-9,-4,-8,-5
1558441761505651,-2,0,-4,-2,-5,2,-7,0
1558441761505651,3,1,9,7,7,-2,8,1
1558441761519647,-3,-3,-7,-5,-3,-5,-2,-1
1558441761519647,2,-1,0,4,-1,2,5,1
1558441761526593,0,2,11,7,11,0,7,3
1558441761526593,-2,1,-6,-4,-13,5,-4,-5
1558441761550529,-2,-2,-7,-11,-1,2,-2,-4
1558441761550529,4,4,9,9,16,9,8,6
1558441761551527,-3,-2,-2,-7,-6,-14,-16,-5
1558441761551527,-3,-3,-7,1,-1,8,6,-5
1558441761556513,-1,0,2,0,-4,-9,-12,-5
1558441761556513,-1,-1,-1,2,2,6,4,1
1558441761565490,-2,-1,3,2,-4,-5,1,-1
1558441761565490,0,0,0,2,4,2,5,6
1558441761579454,-4,-1,-1,4,1,5,2,-5
1558441761579454,-3,-3,-4,-5,-11,-4,-13,-2
1558441761586433,-1,-1,4,5,4,7,14,0
1558441761586433,-2,-2,-6,-9,-11,-22,-12,-1
1558441761603390,3,1,3,7,8,4,10,3
1558441761603390,-2,0,-5,-1,1,-5,-5,-4
1558441761604387,1,1,-1,0,-1,8,3,-1
1558441761604387,-1,0,5,5,7,9,-8,-5
1558441761616353,-1,0,-7,-8,-6,-8,7,-2
1558441761616353,-4,-3,1,-1,-4,-1,-3,-4
1558441761625329,0,-1,-2,-5,1,3,5,1
1558441761625329,-3,1,0,3,-2,-1,1,-1
1558441761640290,-2,-1,7,4,7,3,-7,-2
1558441761640290,1,0,0,0,-2,-11,-1,0
1558441761646273,0,-5,-11,-2,-5,7,-2,-2
1558441761646273,0,-1,0,1,-4,-7,3,1
1558441761671206,-4,-3,0,2,0,2,-5,-4
1558441761671206,-1,2,-2,-2,-2,2,4,0
1558441761672204,1,1,2,1,12,-5,3,3
1558441761672204,1,0,-5,-6,-9,-10,-7,-3
1558441761676193,2,1,-2,-7,-5,-5,-5,2
1558441761676193,-2,-4,0,1,-2,-2,-4,-2
1558441761685526,-3,0,5,-2,-3,5,-12,-5
1558441761685526,-5,-2,1,-1,-4,1,-1,-1
1558441761700130,1,2,-1,3,3,-6,0,3
1558441761700130,2,-1,4,0,8,3,4,-1
1558441761707151,-5,-6,-7,-16,-15,-8,-3,-8
1558441761707151,3,1,7,12,10,0,-1,3
1558441761723069,-2,-3,-5,-6,1,14,18,3
1558441761723069,-4,-3,-18,-11,-13,-15,-10,-5
1558441761724067,0,-6,-3,-3,-4,-2,-2,3
1558441761724067,2,0,3,4,9,6,1,-2
1558441761737067,-3,-3,1,-3,-7,-7,-12,-5
1558441761737067,-4,-1,0,0,-8,-15,-10,-9
1558441761746008,2,1,0,-6,0,7,17,7
1558441761746008,1,-2,-7,-1,-1,-3,3,1
1558441761767949,-1,-2,-2,1,-6,-5,-8,-3
1558441761767949,1,1,7,3,13,15,9,-1
1558441761768946,-2,3,-3,-3,1,-6,-1,-2
1558441761768946,1,1,7,7,7,-2,15,5
1558441761782966,-3,-1,-5,-8,-2,-1,-7,-5
1558441761782966,-1,-2,-1,-3,-6,9,-3,-1
1558441761783907,-6,-1,-2,4,-1,-4,-4,-3
1558441761783907,4,3,0,-4,2,3,-4,2
1558441761796870,0,0,1,4,5,-8,0,3
1558441761796870,-1,-2,-1,1,-2,2,2,0
1558441761805848,2,3,2,9,11,7,7,5
1558441761805848,-6,-7,-8,-7,-14,-9,-13,-3
1558441761827789,1,1,3,15,5,4,2,0
1558441761827789,0,-3,-7,-21,-7,-2,-1,-1
1558441761829783,1,-1,8,4,5,1,-2,0
1558441761829783,-7,-6,-11,-12,-13,-6,-10,-6
1558441761842756,1,0,1,3,0,-3,0,1
1558441761842756,6,7,10,12,18,5,8,7
1558441761848732,-3,-4,-14,-7,-6,-4,-2,2
1558441761848732,-1,-3,-1,-3,-1,3,-3,-5
1558441761856747,-4,-3,-1,-8,-11,-6,-3,-5
1558441761856747,0,-2,-2,3,-5,5,-6,-2
1558441761865686,0,2,4,6,-5,-5,-1,-3
1558441761865686,-3,-4,-6,-2,-1,-3,2,-2
1558441761880650,3,0,1,4,2,3,0,2
1558441761880650,4,0,-3,-8,12,-3,-6,4
1558441761886753,1,-1,1,6,-2,9,5,2
1558441761886753,-4,0,0,-9,6,-5,-3,1
1558441761902589,-5,-4,-9,-8,-14,-20,2,-4
1558441761902589,-2,-1,4,7,3,2,-8,-2
1558441761909569,3,0,-3,0,9,11,8,3
1558441761909569,-1,-2,2,-5,-6,7,-7,-4
1558441761916552,-1,0,-2,-8,-4,1,2,1
1558441761916552,-3,-3,3,10,7,8,12,2
1558441761925526,-3,-3,-10,-14,-11,-11,-19,-10
1558441761925526,-1,-2,-2,8,2,11,12,0
1558441761939489,6,5,6,4,13,-5,7,6
1558441761939489,-1,-2,3,1,-5,-3,-10,-1
1558441761946474,1,0,-1,-1,1,6,18,3
1558441761946474,2,3,7,10,7,-1,3,1
1558441761962427,-5,-8,-12,-19,-6,1,-7,-7
1558441761962427,0,1,2,9,-7,-13,-4,1
1558441761969409,0,-1,-2,-10,-1,-4,-5,0
1558441761969409,-1,0,0,-7,-10,-4,-4,-4
1558441761976390,-3,-3,-3,2,-4,-2,-3,-3
1558441761976390,1,1,1,1,6,8,1,1
1558441761985368,-4,-2,-7,-6,-6,-8,-5,-4
1558441761985368,2,3,5,1,0,-1,5,3
1558441761999366,-1,1,2,5,1,6,-6,-2
1558441761999366,-4,-4,-5,-4,-5,-4,-5,-2
1558441762014468,2,1,-1,1,-5,-18,-4,-3
1558441762014468,-1,0,-2,2,5,9,-5,1
1558441762022267,1,1,3,0,0,-3,0,-2
1558441762022267,0,2,10,5,5,14,2,0
1558441762029277,-4,-7,-13,-11,-2,-5,-5,-1
1558441762029277,0,1,-3,-4,-5,0,-4,-4
1558441762053184,-6,-8,-9,-5,-15,-13,-2,-7
1558441762053184,-3,-2,4,9,-6,-3,-11,-11
1558441762054184,2,4,4,-5,9,12,12,4
1558441762054184,0,1,5,9,14,-2,7,4
1558441762060203,-4,1,-9,-14,-4,3,-2,1
1558441762060203,1,0,3,0,-9,-13,-7,-5
1558441762066151,-1,-6,-2,2,0,9,-3,-1
1558441762066151,1,-4,-6,-4,-2,5,-4,-2
1558441762082143,1,0,5,2,-4,-14,-6,0
1558441762082143,1,1,1,-1,9,10,10,5
1558441762089123,0,4,6,8,2,-6,0,0
1558441762089123,-3,-4,-3,-1,7,8,15,1
1558441762105078,-2,-1,3,-6,-5,1,-7,-5
1558441762105078,-5,-3,-13,-13,-15,-14,-11,-6
1558441762107045,1,-1,3,-2,-4,-12,-10,-3
1558441762107045,-1,0,1,-4,0,3,2,-3
1558441762120008,3,3,9,14,13,13,4,4
1558441762120008,-6,-5,-8,-12,-9,-3,1,-7
1558441762127017,-3,-3,-13,-5,-8,3,-4,-5
1558441762127017,3,2,5,5,12,-13,6,5
1558441762142080,-2,-2,-1,5,0,4,-8,-1
1558441762142080,2,1,3,5,1,1,0,4
1558441762148929,2,1,4,4,7,6,4,-1
1558441762148929,-3,-5,-4,-5,-20,-11,-8,-5
1558441762165904,2,0,2,-5,8,2,-2,0
1558441762165904,-2,-5,-17,-5,-9,-6,-4,-1
1558441762166883,-3,-1,2,0,-5,5,-12,-4
1558441762166883,-2,0,-2,0,1,-6,10,5
1558441762179852,-2,0,-4,2,-6,4,-3,-3
1558441762179852,0,1,-1,-3,4,-2,0,0
1558441762186827,2,1,2,-2,0,5,8,5
1558441762186827,-1,0,0,5,0,-11,1,0
1558441762201789,0,-1,-5,-8,-1,5,-4,0
1558441762201789,-3,-3,-2,-13,-13,-14,-7,-5
1558441762208802,1,2,2,4,5,5,5,3
1558441762208802,0,-1,1,-1,-1,-2,-15,-7
1558441762225724,-2,-2,-1,6,6,14,13,-1
1558441762225724,0,-3,3,4,3,3,-6,-1
1558441762227717,-2,-2,2,2,-5,-9,-7,-6
1558441762227717,-3,-3,2,-6,-10,7,-4,-2
1558441762239900,0,-2,1,3,10,10,3,0
1558441762239900,0,-1,-5,6,4,-4,2,1
1558441762246671,-3,-2,-1,-1,-8,-4,-4,-3
1558441762246671,-1,-2,-11,-4,-9,-6,-4,-5
1558441762262650,-2,-3,-4,-9,-11,-9,-7,-1
1558441762262650,5,8,12,9,8,0,11,5
1558441762268639,-4,-7,-2,-14,-4,-9,-2,-1
1558441762268639,-2,1,1,4,-6,-10,-15,-5
1558441762285566,0,-2,-2,-2,6,8,15,4
1558441762285566,-3,-1,-8,-10,-3,8,0,-3
1558441762286562,-1,1,4,10,2,-2,4,2
1558441762286562,-1,-1,2,-8,-5,-12,-8,-2
1558441762299529,-5,-6,-7,-8,-14,-14,-10,-6
1558441762299529,-1,0,4,4,0,2,13,4
1558441762306510,8,5,2,8,23,-4,20,11
1558441762306510,0,1,5,2,11,14,2,4
1558441762330446,-1,1,-6,3,-16,-6,-16,-6
1558441762330446,-6,-10,-12,-12,-16,-3,-6,-4
1558441762336428,2,1,2,1,6,1,1,4
1558441762336428,1,0,-3,2,7,-4,-6,1
1558441762345479,1,1,4,2,0,-9,11,3
1558441762345479,0,-2,0,-6,-13,-8,-14,-7
1558441762347403,-1,-3,1,1,-9,-1,-11,0
1558441762347403,2,-1,-3,0,8,17,17,6
1558441762359366,-4,-6,-3,0,4,-1,-6,-4
1558441762359366,0,0,-2,-3,-1,-5,-2,0
1558441762366352,-3,0,4,0,-2,-3,-5,-3
1558441762366352,-4,-4,-10,-12,-15,-8,-8,-7
1558441762382347,3,4,2,13,5,9,-8,1
1558441762382347,-4,-4,-3,-15,-5,-5,5,0
1558441762389289,1,2,5,8,22,19,14,6
1558441762389289,0,0,4,3,-2,-8,5,3
1558441762406242,0,2,0,-1,8,5,-4,0
1558441762406242,-2,-2,-4,-6,-1,0,-3,-1
1558441762411227,-2,-3,-4,-2,-14,-12,-4,-2
1558441762411227,-1,2,-3,0,2,-9,-7,-2
1558441762420204,-3,-4,3,-4,-4,-1,6,2
1558441762420204,2,2,4,-1,-2,5,-9,-2
1558441762426188,-6,-6,-7,-8,-22,-15,-17,-12
1558441762426188,4,-2,-12,-12,9,7,13,10
1558441762442145,-1,2,1,-3,-4,-12,-14,-3
1558441762442145,-1,-2,-2,-1,-1,1,2,-2
1558441762449126,-2,0,0,3,4,1,-4,0
1558441762449126,-1,0,0,0,0,1,1,-3
1558441762465087,-2,0,0,-8,-7,-5,-4,-3
1558441762465087,-1,0,13,14,7,2,1,0
1558441762467079,-3,-6,-23,-26,-15,-4,-7,-5
1558441762467079,-4,-5,-2,-2,-1,-2,-3,-4
1558441762480044,2,2,1,3,2,-8,4,1
1558441762480044,2,1,-4,2,1,-4,-1,-3
1558441762487026,1,3,5,8,4,9,-2,-3
1558441762487026,-4,-6,-2,-10,-9,-6,-24,-6
1558441762501985,-5,-2,1,6,14,15,17,-1
1558441762501985,1,-2,-5,-1,3,0,2,2
1558441762508968,-2,1,10,7,4,4,0,-1
1558441762508968,-4,-2,-11,-10,-12,5,11,-4
1558441762525921,0,-1,4,0,-4,-4,-2,-1
1558441762525921,0,1,4,8,9,8,-3,-4
1558441762526919,-2,-4,-13,-19,-3,-7,-5,-2
1558441762526919,2,1,11,18,-9,-20,-8,-2
1558441762538891,2,2,4,-6,-3,8,-9,1
1558441762538891,-3,1,-6,2,1,2,17,2
1558441762547864,-1,-2,-7,-3,-2,0,-10,-5
1558441762547864,-2,-1,-1,4,-1,9,9,3
1558441762562822,0,-4,-10,-14,-1,-5,1,0
1558441762562822,-2,2,6,-4,2,5,-6,-2
1558441762568818,-5,-4,-5,-2,-2,1,8,1
1558441762568818,-2,-1,-10,-16,-8,-12,-5,-3
1558441762585760,-5,-7,7,13,-2,-4,7,1
1558441762585760,2,1,0,-7,-4,-9,-4,0
1558441762586759,0,-4,-4,2,-5,-20,4,-2
1558441762586759,0,2,4,7,8,21,7,3
1558441762599723,0,-2,-3,-3,2,-5,-5,0
1558441762599723,-3,-4,-12,-8,-4,-11,-2,-1
1558441762607704,-3,0,3,-2,-10,-4,-8,-1
1558441762607704,-2,2,5,6,13,0,-10,-3
1558441762622667,3,6,9,11,7,1,13,2
1558441762622667,-7,-6,0,-1,-5,-5,-15,-10
1558441762629645,-3,-3,-8,-10,-10,-2,1,-2
1558441762629645,-1,0,0,3,4,13,-9,0
1558441762645604,0,2,-1,-7,-5,3,4,2
1558441762645604,-1,-4,6,18,7,1,-3,-1
1558441762646599,-1,-2,-6,-18,-11,-12,-12,-4
1558441762646599,-3,-3,-1,2,10,17,2,-1
1558441762658641,1,-3,-3,-8,-6,-4,12,6
1558441762658641,1,-2,5,10,4,-2,7,2
1558441762667545,0,-1,1,6,3,4,1,1
1558441762667545,3,0,-2,-4,-3,4,7,0
1558441762682503,0,-1,-5,1,-1,-8,-23,-8
1558441762682503,0,0,-1,-1,0,-3,6,4
1558441762689521,1,0,7,5,8,1,9,3
1558441762689521,-2,-4,-1,-8,-12,-9,-2,-6
1558441762705444,-5,-4,-5,-5,-10,1,-11,-7
1558441762705444,2,-1,-5,-3,0,0,-16,0
1558441762706438,-4,0,5,6,5,6,0,-1
1558441762706438,1,3,8,7,0,-4,-14,-4
1558441762719405,-1,-2,-6,-8,-3,2,3,-1
1558441762719405,-2,1,-6,-4,-11,7,2,-3
1558441762728380,3,3,5,6,10,6,7,5
1558441762728380,-4,-4,-3,-6,-11,-14,-6,-2
1558441762742342,-4,-6,-10,-1,3,9,-6,-2
1558441762742342,-1,0,1,4,-6,-2,7,1
1558441762749324,0,0,0,-4,-13,-14,-11,-3
1558441762749324,-1,-1,4,0,9,3,19,3
1558441762764286,0,1,-2,-2,-6,-8,-9,-3
1558441762764286,-4,-3,-8,-2,-2,2,-3,-5
1558441762788220,-4,-6,-5,-12,-18,-15,-15,-10
1558441762788220,1,1,-4,-1,1,0,4,4
1558441762789216,-2,0,-1,-1,9,10,4,-3
1558441762789216,4,3,7,0,10,11,12,3
1558441762791212,-3,-2,-2,6,-4,-4,-3,-5
1558441762791212,-6,-6,-7,-6,-8,0,-8,-9
1558441762802182,1,1,-4,-2,4,-9,-7,0
1558441762802182,-1,-4,0,-3,-9,-20,-1,-2
1558441762809164,-1,-1,-2,7,12,5,19,4
1558441762809164,-6,-7,-4,-7,-17,-9,-19,-11
1558441762841078,-1,2,1,4,-5,2,-4,-3
1558441762841078,-2,-2,-1,2,4,-1,6,2
1558441762842076,-3,-2,0,-12,-10,2,-15,-9
1558441762842076,-2,0,-2,-1,1,3,2,-1
1558441762843072,-3,-1,-2,-3,-8,-7,-6,0
1558441762843072,-1,0,-1,4,9,7,1,0
1558441762848059,1,-1,3,8,4,2,1,1
1558441762848059,2,1,-3,-7,3,0,2,3
1558441762862025,0,-1,-1,-3,-10,-2,-2,-2
1558441762862025,-1,-4,-1,-7,-8,-7,-12,-2
1558441762869003,3,2,-1,3,8,-3,0,7
1558441762869003,-1,1,0,3,0,-9,6,1
1558441762884963,0,-2,-1,4,-1,-4,0,-2
1558441762884963,1,1,-1,3,6,11,0,-1
1558441762891942,1,1,12,6,4,5,7,1
1558441762891942,0,-1,-3,-6,-5,-19,0,-1
1558441762898926,-4,-3,-9,-4,-2,7,-3,0
1558441762898926,1,0,0,2,4,2,11,6
1558441762907900,-1,1,1,3,-1,6,-3,-1
1558441762907900,-2,-4,1,-3,-5,1,-15,-5
1558441762921866,0,-1,-4,0,4,-3,28,9
1558441762921866,3,3,4,7,7,2,9,5
1558441762928849,-1,1,1,-11,-6,-4,-4,-1
1558441762928849,-3,-5,-7,-5,-12,-8,2,-2
1558441762944800,0,-2,0,-1,10,13,3,4
1558441762944800,0,0,5,3,8,6,3,2
1558441762951782,-4,-2,-7,-4,-7,2,-6,-5
1558441762951782,0,0,-2,8,6,12,12,5
1558441762967740,-1,0,-1,-2,-4,-8,-16,-7
1558441762967740,-1,1,3,-1,5,8,5,0
1558441762969734,1,2,2,2,-2,-5,-3,-2
1558441762969734,0,0,-5,4,11,17,3,0
1558441762982699,2,-1,4,4,0,-8,-1,1
1558441762982699,-4,-4,-2,-10,-13,-8,-17,-9
1558441762988684,-1,-2,-7,0,3,2,15,-1
1558441762988684,-1,1,10,9,4,3,-5,-1
1558441763004646,0,0,1,0,1,-6,1,3
1558441763004646,-1,-2,-5,-9,-7,-1,-2,0
1558441763012621,-1,-3,1,3,2,6,0,1
1558441763012621,0,-1,-3,-6,-1,0,-19,-2
1558441763027604,-2,0,5,6,1,3,2,-1
1558441763027604,-3,-3,-3,-9,-12,-12,-8,-2
1558441763029574,0,2,-4,-1,11,8,10,3
1558441763029574,5,1,2,2,0,-14,0,6
1558441763042539,-4,-3,4,4,1,15,-6,-4
1558441763042539,-5,-4,-13,-16,-15,-15,-7,-2
1558441763049521,2,1,-3,0,15,3,-4,0
1558441763049521,-1,0,2,4,3,4,12,0
1558441763064481,1,1,7,6,0,4,4,-1
1558441763064481,-3,-5,-13,-17,-5,6,-7,-4
1558441763071463,-5,-8,-7,-7,-25,-12,-15,-8
1558441763071463,3,3,6,18,20,-7,21,5
1558441763088418,-1,1,-2,-7,-1,-11,4,1
1558441763088418,0,0,4,8,4,8,7,-4
1558441763089414,-2,0,-1,-5,-5,2,-6,-2
1558441763089414,-4,-3,-7,-9,-10,0,-11,-6
1558441763102379,0,-4,-1,-6,-8,-1,6,3
1558441763102379,3,5,12,16,20,14,2,1
1558441763109359,-1,-2,-8,-7,-7,-8,5,0
1558441763109359,0,1,0,-3,-12,-8,-4,-5
1558441763124320,2,0,-5,6,8,8,11,4
1558441763124320,-2,-4,-1,-16,-7,-19,-8,-3
1558441763131303,0,-3,5,7,4,11,-5,3
1558441763131303,-1,-1,-2,-5,-8,-7,2,1
1558441763156235,-2,1,-8,-3,2,5,-5,-4
1558441763156235,-4,-6,-4,-3,-8,-15,-10,-6
1558441763157232,-2,1,0,0,3,-6,3,-4
1558441763157232,0,0,4,-3,-3,0,-7,-2
1558441763162221,-3,-4,1,0,-8,-14,-3,-5
1558441763162221,1,-1,-5,-5,-3,-4,5,0
1558441763176182,-2,-3,-8,-1,4,15,-2,-4
1558441763176182,-1,2,7,2,-1,-15,0,0
1558441763185158,-3,-1,-5,-6,0,-4,-7,-4
1558441763185158,-2,0,-2,-4,-12,0,-16,-5
1558441763192141,-1,-3,-3,5,-9,3,-13,-2
1558441763192141,2,-1,-7,-9,18,15,19,9
1558441763208096,-1,-2,1,-3,0,-26,-7,1
1558441763208096,-3,2,8,14,5,-2,3,3
1558441763209094,-8,-6,-8,-14,-17,-6,-16,-5
1558441763209094,-6,-3,-6,-5,-9,10,-3,-5
1558441763222076,1,0,1,5,15,25,13,4
1558441763222076,1,-3,-10,-7,-9,-6,-10,0
1558441763229040,1,1,-1,-7,9,-2,18,4
1558441763229040,1,-2,-3,2,-12,-17,-14,-3
1558441763244997,-2,-3,-4,-8,-10,-10,-8,-6
1558441763244997,-1,1,4,0,-5,-3,4,1
1558441763251978,0,1,3,2,2,-2,11,3
1558441763251978,-4,-8,-2,0,9,-6,-3,-1
1558441763267936,2,0,-1,3,1,4,-4,0
1558441763267936,-1,-1,-1,2,-3,-11,-5,0
1558441763268933,0,3,6,4,-4,-24,-10,-5
1558441763268933,-3,0,-4,-6,-6,1,-3,-3
1558441763281900,-1,0,3,2,1,8,8,0
1558441763281900,0,-1,-3,2,12,7,-4,0
1558441763288880,0,2,3,-6,-1,5,1,0
1558441763288880,-3,-5,-11,-7,-12,-2,-5,-4
1558441763304839,-1,0,3,0,10,20,19,8
1558441763304839,-3,-3,-12,-12,-8,-20,-7,-1
1558441763318801,0,1,14,14,-2,-5,-5,0
1558441763318801,-1,-1,-7,-2,3,4,0,-1
1558441763327776,-3,-4,-8,-12,-23,-21,-21,-7
1558441763327776,-5,2,7,16,21,28,32,5
1558441763329778,0,-2,-4,1,7,-21,-5,0
1558441763329778,0,-1,3,-1,-5,-12,-8,-3
1558441763342748,-1,-1,-5,1,-7,2,-14,-7
1558441763342748,0,-3,-3,-11,-5,12,4,-3
1558441763348720,2,0,-4,-4,4,-11,2,3
1558441763348720,-2,-1,-1,-1,3,15,14,2
1558441763372664,-1,3,5,-1,2,-8,14,0
1558441763372664,0,-1,-3,2,-4,1,-3,-4
1558441763374652,1,3,7,5,5,16,8,-1
1558441763374652,2,-1,3,0,-2,-5,-6,4
1558441763386618,-1,-2,-11,-8,-3,0,-1,-1
1558441763386618,-2,-4,-4,0,-5,-12,-6,-1
1558441763395594,-2,-1,-3,0,-3,5,4,0
1558441763395594,-1,1,3,5,-6,-4,-5,-3
1558441763402578,2,-1,-5,-6,1,-1,-4,2
1558441763402578,0,3,5,7,12,17,2,0
1558441763409563,-3,-2,-6,-5,-4,-6,-4,0
1558441763409563,2,4,3,-2,-1,-1,0,4
1558441763424519,-3,-5,-6,-8,-10,-10,-22,-9
1558441763424519,0,-2,8,12,8,-5,4,1
1558441763431501,-3,-3,-6,-5,-9,3,-1,-3
1558441763431501,1,2,-2,0,2,19,2,2
1558441763447457,-3,-3,4,2,-5,-14,-3,-2
1558441763447457,0,-2,-13,-13,-5,6,1,-2
1558441763449450,0,0,4,0,20,4,4,5
1558441763449450,-1,-1,1,-3,-13,-8,-14,-9
1558441763461418,0,-2,-3,2,6,8,0,-1
1558441763461418,1,3,11,4,4,-6,3,4
1558441763470397,-1,-2,-4,-3,0,5,-1,-6
1558441763470397,-1,0,-5,-1,6,0,0,-1
1558441763484361,0,3,10,0,-5,-2,-4,1
1558441763484361,-1,-2,-6,-9,-13,-10,2,0
1558441763491349,-3,-3,1,7,0,3,0,-1
1558441763491349,1,1,6,0,7,6,-3,1
1558441763516275,-1,0,-7,0,-9,-2,-1,1
1558441763516275,-1,-1,2,7,-1,-4,-6,2
1558441763517271,-1,-4,-11,-14,-14,-8,-3,-2
1558441763517271,-1,-1,3,-8,-3,-5,-21,-4
1558441763521258,0,-3,-4,-2,2,-12,7,3
1558441763521258,1,2,0,-3,0,7,8,-2
1558441763530236,-2,0,4,1,-1,8,-7,-2
1558441763530236,-6,-5,-8,0,-5,-6,9,-2
1558441763545194,-1,0,1,-3,5,1,2,-1
1558441763545194,1,-1,-5,2,-2,-2,-6,-1
1558441763551180,1,-1,-2,-4,-11,-11,-2,0
1558441763551180,-3,-3,3,6,5,13,8,0
1558441763568134,0,0,-4,-7,1,0,0,0
1558441763568134,-3,-5,-8,-8,-4,-6,-4,-5
1558441763569131,1,-3,-5,-4,-5,-5,-4,2
1558441763569131,-2,-2,-4,0,1,3,-6,-5
1558441763582099,-1,-1,6,5,-10,-6,3,-2
1558441763582099,3,5,9,3,14,15,13,6
1558441763590076,-3,-2,-4,-1,-11,-21,-17,-8
1558441763590076,1,2,1,2,17,29,9,2
1558441763605045,0,-1,-5,-8,-3,1,-1,-2
1558441763605045,-4,-3,-5,-2,-14,-9,-4,-2
1558441763612016,1,2,3,5,7,11,8,2
1558441763612016,2,0,3,6,-2,-17,7,3
1558441763627974,-4,-2,-3,-7,-3,3,-9,-4
1558441763627974,0,1,3,-3,0,2,-2,0
1558441763628970,-2,-7,-15,-9,5,3,7,2
1558441763628970,-2,-1,11,5,-2,-19,-2,1
1558441763641936,-2,-1,-1,10,3,3,5,-1
1558441763641936,-3,-2,-6,-14,-15,-8,-20,-10
1558441763650913,1,2,8,7,2,4,3,-1
1558441763650913,-1,-4,-16,-17,-9,3,-6,-6
