timestamp,emg1,emg2,emg3,emg4,emg5,emg6,emg7,emg8
1558441771107699,-2,-3,-3,-5,-9,-16,-11,-3
1558441771107699,-2,-1,-1,-2,2,9,3,0
1558441771107699,-2,-1,1,0,-4,-5,7,0
1558441771107699,-2,-2,-3,-4,-13,-9,-8,-5
1558441771108695,2,0,2,9,16,15,4,0
1558441771108695,-2,-3,-2,-2,-3,-6,-6,-1
1558441771112685,-3,-2,-6,-10,-1,5,1,2
1558441771112685,-2,-1,-3,-6,-8,-16,-9,-4
1558441771118668,-1,0,-5,-2,1,10,4,-3
1558441771118668,-1,-2,5,12,2,-6,-3,-4
1558441771127646,-2,-1,4,-1,-3,1,-9,-6
1558441771127646,-2,-1,-6,-12,1,-1,6,0
1558441771142603,0,0,-5,-3,-6,4,0,0
1558441771142603,-1,-1,-4,-11,-5,-5,-3,1
1558441771149585,-2,-3,-2,-1,1,8,1,0
1558441771149585,2,2,5,11,4,-7,-3,1
1558441771157567,-1,0,0,-5,-1,-2,3,3
1558441771157567,-1,-2,-4,7,6,7,4,-2
1558441771173522,-2,-4,-6,-14,-14,-7,0,-1
1558441771173522,-1,-2,1,0,5,12,2,0
1558441771179506,0,0,1,-8,-10,-11,-5,-1
1558441771179506,1,-1,-5,1,0,2,-4,-1
1558441771187500,0,3,2,6,3,-2,0,-1
1558441771187500,-1,-2,-4,-1,5,-12,0,0
1558441771195463,-2,0,0,5,5,18,6,-1
1558441771195463,1,0,-2,-8,-10,-14,-4,-1
1558441771242338,-3,3,-3,-5,-7,-9,-1,-3
1558441771242338,-5,-13,-1,-1,-4,-14,-5,-1
1558441771243335,-4,-5,-3,-3,-15,-7,-13,-6
1558441771243335,4,1,1,11,18,12,14,8
1558441771243335,2,1,-1,-9,-5,-1,-1,2
1558441771243335,1,4,1,4,2,5,-2,-1
1558441771246328,-3,-1,1,-3,-4,-8,-5,-2
1558441771246328,-3,-6,-2,-6,-5,-2,-9,-2
1558441771254306,-1,-2,-3,2,-4,6,-5,-4
1558441771254306,2,3,2,0,5,-1,3,0
1558441771261287,-2,0,-1,-2,-1,-6,-3,-3
1558441771261287,-2,2,-6,-1,-2,6,-4,-1
1558441771269266,1,-1,2,5,13,0,14,4
1558441771269266,-1,-2,-4,-4,-8,0,-4,-3
1558441771284225,0,0,-3,3,3,3,-2,-2
1558441771284225,-6,-1,2,-4,-5,-6,-5,-6
1558441771292211,-2,-4,-2,-1,-5,-17,-9,0
1558441771292211,1,1,3,-2,5,7,2,3
1558441771299185,2,2,2,3,1,4,3,2
1558441771299185,-1,-1,4,2,-2,-2,0,-1
1558441771314181,0,-4,-2,-1,-5,-5,-12,-3
1558441771314181,1,1,-1,1,1,2,9,-1
1558441771321126,1,-1,-4,-2,0,5,5,2
1558441771321126,1,0,4,-4,-5,-5,-2,-1
1558441771337085,0,0,-4,-3,0,4,4,1
1558441771337085,-4,-4,-6,-6,-4,-10,-7,0
1558441771344099,-2,-3,-1,-1,-2,3,1,1
1558441771344099,-2,-5,-8,-10,-3,3,5,-3
1558441771352043,-1,0,7,3,3,0,-1,-1
1558441771352043,-2,-1,-8,-6,-10,-6,-9,-4
1558441771359026,0,2,4,0,6,1,9,2
1558441771359026,0,-1,2,4,5,0,-5,-1
1558441771374985,-1,0,-3,1,-2,2,0,2
1558441771374985,1,1,3,5,8,-2,-3,-2
1558441771380966,-3,-3,-5,-9,-13,-11,-8,-5
1558441771380966,-1,2,-4,5,-2,-6,-1,-2
1558441771389006,-3,-3,-5,-13,-1,14,3,-2
1558441771389006,0,1,-1,-7,-3,-3,-1,2
1558441771403933,-1,-1,5,7,5,-1,-7,-1
1558441771403933,-1,-1,-3,-10,-5,5,-9,0
1558441771411911,0,1,6,5,-3,-8,3,3
1558441771411911,-1,-3,-12,2,2,-3,1,-1
1558441771418894,0,1,4,1,12,3,4,1
1558441771418894,0,0,1,5,-1,-8,-4,-3
1558441771434891,-4,-2,-5,7,3,9,-2,-3
1558441771434891,-4,-4,-2,-24,-18,-16,-4,-3
1558441771441815,-2,-2,-2,0,-1,5,-1,-1
1558441771441815,1,1,0,8,6,4,2,1
1558441771448833,-1,0,3,1,2,-1,1,-1
1558441771448833,-1,-2,2,7,2,3,-2,-1
1558441771463773,-2,-6,-10,-6,-8,-1,-3,-3
1558441771463773,3,1,3,0,-3,2,0,-1
1558441771472762,2,-1,-4,-4,10,0,1,2
1558441771472762,0,1,0,5,4,7,-6,-1
1558441771478717,-2,-2,9,8,3,1,4,0
1558441771478717,-7,-6,-17,-14,-15,-15,-4,-6
1558441771495675,-2,-2,14,1,2,-3,5,1
1558441771495675,-2,-1,-4,-1,-3,1,-3,-3
1558441771501649,-1,1,-2,0,3,8,0,0
1558441771501649,2,1,8,2,5,7,6,1
1558441771509633,-4,-4,-8,-6,-16,-23,-9,-6
1558441771509633,-1,-5,-6,-1,9,15,10,1
1558441771523591,1,4,5,4,5,-5,1,0
1558441771523591,-3,-6,3,4,-2,-5,-4,0
1558441771539550,-1,-5,-8,-6,0,13,-3,-1
1558441771539550,1,-1,0,-2,-9,-2,1,0
1558441771546524,1,-2,-10,-8,-2,-10,-9,-1
1558441771546524,-2,2,1,1,6,6,6,2
1558441771554503,-1,1,0,2,3,-3,-1,-1
1558441771554503,-5,-5,-1,-3,-12,-1,-9,-8
1558441771561521,-1,-2,0,-3,-7,-9,5,-1
1558441771561521,4,1,-3,-3,6,-14,4,2
1558441771568466,-1,-1,-1,1,0,6,-4,-3
1558441771568466,0,3,9,8,6,3,6,2
1558441771583426,-5,-3,-3,-7,-6,-8,-7,-3
1558441771583426,-1,-1,-2,-5,-11,-10,-1,-1
1558441771592401,2,0,-6,1,0,4,-6,-4
1558441771592401,-1,0,5,1,-3,-11,1,3
1558441771606368,2,2,6,6,5,7,12,4
1558441771606368,-4,-5,-9,-1,7,9,1,-1
1558441771623319,-1,-2,-2,-3,-7,0,-6,-5
1558441771623319,-3,0,-1,-6,-3,-3,1,0
1558441771624316,2,2,3,-1,1,-4,4,3
1558441771624316,-3,-3,-3,-5,-8,-3,-10,-6
1558441771628304,-1,-1,-6,0,-4,-2,-4,0
1558441771628304,0,2,4,6,11,-2,11,2
1558441771644262,1,0,-6,-3,-5,-1,-5,-2
1558441771644262,-3,-3,1,3,3,10,-2,-1
1558441771652242,1,2,4,-4,-4,-16,1,4
1558441771652242,-3,-5,-4,0,-1,7,-2,-3
1558441771666206,-4,-5,-3,0,-1,0,-5,-4
1558441771666206,-1,-2,-2,-3,-2,0,2,1
1558441771674183,-3,-1,2,2,1,-6,-1,-5
1558441771674183,1,1,-3,-2,3,2,-6,-2
1558441771681163,3,3,-3,-3,1,0,4,2
1558441771681163,-2,-3,1,1,-1,3,2,-1
1558441771689143,-1,0,-3,-3,-4,-5,0,-1
1558441771689143,-4,-2,1,1,-1,-7,-6,-3
1558441771704104,-5,-4,-3,-2,-3,13,-7,-6
1558441771704104,2,-2,1,-3,-4,-5,-5,0
1558441771712082,0,-1,0,-3,3,2,12,2
1558441771712082,-1,0,-1,3,-8,-12,-5,-4
1558441771726043,-1,0,2,8,2,-4,2,0
1558441771726043,3,2,2,-3,1,1,1,2
1558441771742999,0,-1,4,2,13,14,1,2
1558441771742999,-1,-1,-1,-1,-9,-5,-6,-5
1558441771743996,-3,-3,-3,-3,-5,-5,-7,-4
1558441771743996,-1,-2,-1,-10,1,4,4,-1
1558441771756960,0,-1,-6,-7,-9,-11,-5,-1
1558441771756960,0,-1,-4,-4,-5,3,-3,-2
1558441771763943,5,5,16,9,8,-4,4,0
1558441771763943,-5,-4,-9,-4,-8,-1,-6,-2
1558441771771920,-4,-8,-11,-6,-1,11,0,-4
1558441771771920,0,0,3,0,13,3,10,5
1558441771794858,-5,-4,-5,-5,-10,-6,-5,-4
1558441771794858,-3,0,1,1,-12,-5,-10,-6
1558441771795858,-4,1,3,3,3,-3,-4,-1
1558441771795858,3,1,2,6,6,-1,11,6
1558441771800845,2,0,-6,-15,2,3,-6,2
1558441771800845,2,1,-2,-1,4,1,9,5
1558441771808857,-2,-2,0,0,-8,7,-4,-2
1558441771808857,-1,-3,-1,-2,3,1,0,1
1558441771823782,1,3,-2,-2,3,-10,3,4
1558441771823782,-3,-4,0,-3,-3,0,-4,-3
1558441771831796,2,0,1,4,-2,-4,-4,-2
1558441771831796,0,-1,-2,1,-1,11,6,3
1558441771854700,-5,-5,-8,-11,-11,-10,-2,-6
1558441771854700,-2,1,2,3,4,7,-3,-3
1558441771855706,-2,1,6,7,1,-4,5,2
1558441771855706,1,1,-5,-11,3,-7,-3,-2
1558441771862678,-3,-3,-2,2,-6,1,-8,-4
1558441771862678,-2,1,0,-1,-7,-16,-3,0
1558441771876641,0,-1,2,-4,-5,4,-3,-3
1558441771876641,1,-4,-3,3,-5,-6,-4,-1
1558441771883622,2,3,-4,-7,8,9,10,3
1558441771883622,2,5,22,14,17,10,5,3
1558441771891604,1,-3,-15,-4,-2,-3,-3,-2
1558441771891604,-2,0,-2,4,-7,2,-6,-5
1558441771906562,-2,-6,2,0,4,5,7,-1
1558441771906562,-1,-3,-7,-5,-3,3,4,0
1558441771914540,0,2,4,6,5,-1,-1,-1
1558441771914540,-3,1,-3,-16,-8,-7,-8,-4
1558441771921524,-3,-3,0,0,-4,0,-5,-4
1558441771921524,4,2,-1,1,3,-3,-2,-1
1558441771937478,-1,-1,-2,-4,-1,3,6,0
1558441771937478,-5,-4,1,5,-2,2,-11,-9
1558441771943463,1,1,-4,-1,-9,-11,-3,-1
1558441771943463,1,0,-1,1,9,4,3,3
1558441771951440,1,1,2,1,0,-2,-6,-1
1558441771951440,-3,1,5,2,4,2,4,0
1558441771966400,-2,-4,-4,2,-10,3,-8,-4
1558441771966400,-1,-2,-5,-2,-4,-6,4,-3
1558441771974380,1,3,3,1,4,-2,3,2
1558441771974380,2,-2,-1,-4,-7,-11,0,-2
1558441771981361,-4,0,3,-3,4,14,3,2
1558441771981361,-7,-6,-5,-4,-15,-25,-20,-7
1558441771997318,-3,0,1,2,7,9,7,2
1558441771997318,-3,-2,-2,-6,-1,2,-4,-2
1558441772003303,0,0,1,6,6,8,7,3
1558441772003303,1,1,1,0,-2,1,-2,-1
1558441772019260,0,-1,-4,-7,-8,-8,-3,-2
1558441772019260,1,1,-2,2,1,5,1,-1
1558441772026243,-1,-2,0,5,2,1,-4,-1
1558441772026243,-4,-3,-3,-15,-8,-2,-6,-6
1558441772034219,-5,-5,-2,-3,-7,-7,-8,-4
1558441772034219,1,0,-7,3,8,11,15,7
1558441772041200,5,3,3,5,9,-12,6,5
1558441772041200,1,0,-3,2,-5,-2,-4,-1
1558441772057158,-5,-2,-1,-2,-8,-4,-10,-6
1558441772057158,-1,-1,1,0,-1,-1,-3,0
1558441772064139,-1,2,-1,1,6,14,6,1
1558441772064139,-2,-3,-2,1,-2,1,6,-1
1558441772071121,-2,-2,-3,-4,-1,-1,5,2
1558441772071121,0,0,8,2,3,-9,-3,0
1558441772086080,-1,-4,-2,-2,-7,-9,-7,-3
1558441772086080,-2,-1,-2,-1,-1,-2,4,0
1558441772094059,-2,-2,-6,-3,-6,11,0,-3
1558441772094059,-4,-3,-3,-5,-9,-1,-7,-6
1558441772101040,-2,-1,-3,-5,-3,-6,-9,-3
1558441772101040,-2,1,4,5,13,6,6,1
1558441772117000,2,0,0,4,3,-15,5,1
1558441772117000,5,4,-3,-1,2,-5,-2,3
1558441772123980,-2,-2,2,-2,-9,-3,0,-3
1558441772123980,-1,-2,1,5,-5,-1,-2,-2
1558441772130961,-3,0,2,-3,4,7,-1,0
1558441772130961,-5,-4,-1,1,-6,-1,-6,-5
1558441772145922,-2,-3,-11,-16,-2,-7,-6,-1
1558441772145922,3,3,1,2,3,-7,6,5
1558441772154903,2,-2,4,2,0,-6,1,1
1558441772154903,-5,-3,1,3,-1,-5,-3,-2
1558441772160885,-3,-3,-6,-6,-13,1,-5,-5
1558441772160885,-3,-3,-11,-5,-1,0,-4,-3
1558441772176841,0,0,-3,-3,3,12,3,0
1558441772176841,-1,0,0,-2,-4,-14,-4,1
1558441772183820,-2,-2,1,5,8,8,1,-2
1558441772183820,-2,-1,4,1,-3,-9,-4,-4
1558441772190801,0,0,8,5,4,9,3,0
1558441772190801,-3,-4,-6,-7,1,11,10,0
1558441772206762,0,0,1,-2,-4,-3,-3,-3
1558441772206762,1,2,-3,-2,-5,-3,-4,1
1558441772214737,0,-3,-5,-2,-3,-6,-5,-1
1558441772214737,1,-3,-1,-2,-2,4,-3,-5
1558441772229961,-2,-3,-5,-2,-12,-2,-5,-4
1558441772229961,-2,0,-1,-6,-3,4,-2,-1
1558441772236678,0,1,-3,3,4,-18,-6,-1
1558441772236678,-1,2,3,4,10,14,6,3
1558441772251644,2,2,4,-2,3,0,7,4
1558441772251644,-1,-1,-5,-2,-9,-6,0,-3
1558441772252637,-1,0,3,1,-1,-1,1,0
1558441772252637,-3,-3,-4,-5,-5,-7,-8,-4
1558441772266610,-2,-3,-3,0,-2,-5,-5,-1
1558441772266610,0,-1,-2,0,3,8,-3,0
1558441772274586,-2,-5,-9,-13,-16,-1,-2,-3
1558441772274586,1,1,-2,-4,-11,-2,-7,-4
1558441772297516,2,2,2,4,3,-9,0,1
1558441772297516,5,3,12,9,22,2,19,10
1558441772298515,-5,-3,-10,-9,1,-9,-5,-6
1558441772298515,-4,-1,-1,4,4,5,1,1
1558441772312477,-2,-1,-7,-6,-6,2,-3,-2
1558441772312477,-2,-2,-6,-6,-23,-15,-14,-5
1558441772312477,-1,0,6,4,3,10,6,0
1558441772312477,0,1,1,1,8,-6,2,1
1558441772326474,1,-2,-1,0,-1,-9,-4,-2
1558441772326474,-3,-5,-5,-12,-3,4,-3,-4
1558441772334448,1,-1,2,2,-1,3,-3,-2
1558441772334448,0,-1,-5,-2,-6,-4,2,0
1558441772348419,2,1,3,4,8,-4,7,3
1558441772348419,-2,-3,4,0,1,2,1,1
1558441772357418,2,-2,-6,0,-3,-4,-8,-1
1558441772357418,-1,1,4,3,1,-5,2,0
1558441772372319,-4,-3,-2,-6,-11,0,-5,-3
1558441772372319,-4,-2,-5,4,0,8,-6,-4
1558441772372319,-2,1,4,0,4,-1,3,1
1558441772372319,1,3,4,2,11,5,4,4
1558441772386340,-2,0,3,3,3,9,7,1
1558441772386340,-4,-5,-5,-2,-2,-9,-3,0
1558441772394321,1,0,3,2,-6,-1,-7,-3
1558441772394321,-2,-2,-9,-8,-8,-3,-8,-5
1558441772409225,-4,-3,5,3,4,11,9,-2
1558441772409225,1,2,2,5,3,-6,10,2
1558441772417258,-1,-1,-5,-4,-3,-6,-4,-1
1558441772417258,-2,-4,-4,-4,-2,2,3,-2
1558441772432263,0,1,-1,-3,-3,-14,-9,-4
1558441772432263,-2,-2,3,5,2,9,-5,-2
1558441772433158,-1,-3,-7,-9,-2,4,3,-1
1558441772433158,3,2,3,-1,2,-7,-6,0
1558441772446131,-2,-2,1,1,-9,-1,2,1
1558441772446131,0,1,0,-1,0,1,1,0
1558441772454106,0,1,0,-1,1,4,-1,-2
1558441772454106,-2,-3,-2,-2,-6,1,-4,-1
1558441772469067,0,1,-1,-3,1,-8,-4,0
1558441772469067,-1,-1,-2,-6,-7,-10,-7,-1
1558441772477043,-3,-2,0,3,2,15,3,0
1558441772477043,-1,-1,3,1,0,-11,1,0
1558441772491996,0,-1,-1,0,11,4,5,1
1558441772491996,0,1,-4,1,-1,-7,2,1
1558441772492993,1,2,7,13,9,2,3,1
1558441772492993,-1,-2,-4,-6,-8,-4,-6,-4
1558441772505958,0,-2,-2,-1,-7,0,-11,-6
1558441772505958,0,-2,-5,-4,0,-3,1,-2
1558441772514938,0,3,0,0,2,1,0,1
1558441772514938,1,-5,-2,1,3,1,4,6
1558441772528896,0,2,-2,-3,2,-2,-3,1
1558441772528896,-1,-1,-1,-1,-1,8,-5,-1
1558441772536910,2,-2,2,0,-2,-4,0,0
1558441772536910,-3,0,-4,-7,-6,5,-3,-2
1558441772551833,0,0,-1,3,1,1,2,0
1558441772551833,-3,-3,-2,-4,-5,-3,-1,-1
1558441772559814,0,0,3,3,4,0,3,2
1558441772559814,-3,-1,-9,-14,-4,-4,-7,-4
1558441772565796,-2,-2,-2,0,7,-4,3,3
1558441772565796,-3,-2,-5,-10,-3,-11,-1,0
1558441772574778,-1,-1,1,0,-6,-2,-5,-2
1558441772574778,-1,-1,3,6,4,13,8,0
1558441772588738,-1,1,-3,-2,1,-6,-2,1
1558441772588738,-1,1,-1,1,-4,7,-5,-4
1558441772596715,-5,-4,-5,-9,-10,-11,-10,-7
1558441772596715,-1,-1,3,2,5,5,0,-1
1558441772611680,0,-2,-4,-4,-7,0,-4,-3
1558441772611680,0,0,1,8,4,2,-1,0
1558441772612675,0,-2,0,-2,6,2,8,4
1558441772612675,1,-1,2,5,-2,-6,1,-2
1558441772642715,-2,-2,-1,-3,-7,-2,-6,-2
1558441772642715,-2,-2,0,0,-10,-14,-7,-4
1558441772643601,-1,-1,-6,1,3,-5,9,4
1558441772643601,-4,-2,-9,-14,-10,2,-3,-2
1558441772648585,-1,0,2,5,10,16,1,-2
1558441772648585,-1,1,5,-4,-3,3,3,1
1558441772656566,0,0,-6,-2,-1,-12,-5,-1
1558441772656566,-1,-2,0,5,-3,0,-2,-3
1558441772671559,-1,-3,-2,-1,3,8,4,0
1558441772671559,1,0,-2,-3,-4,-8,1,0
1558441772672515,-3,-2,3,1,0,-3,-2,-3
1558441772672515,0,1,1,2,-3,-6,-7,-1
1558441772686521,-6,-5,-5,-6,-13,-1,-8,-5
1558441772686521,0,-2,-2,0,12,11,1,1
1558441772694500,1,0,3,1,1,-13,-1,3
1558441772694500,1,2,0,-3,0,-5,-1,1
1558441772708420,0,2,-1,8,3,6,2,1
1558441772708420,-2,-3,0,-4,-7,-2,-1,-2
1558441772717394,-1,0,-7,-11,-6,-3,-2,-4
1558441772717394,-3,-1,2,9,4,6,4,1
1558441772731355,1,-1,-4,-13,-5,-13,2,-1
1558441772731355,-1,0,-1,0,-2,-4,-6,-1
1558441772739333,-3,-3,-6,-5,-5,2,-7,-1
1558441772739333,-2,0,5,5,8,10,7,-2
1558441772746325,0,-2,1,1,-6,-4,-3,2
1558441772746325,-1,-1,-6,-1,-1,5,2,-1
1558441772754294,-2,-3,-1,-1,0,6,1,1
1558441772754294,1,-1,-2,2,0,-12,-3,1
1558441772768316,-1,-1,-2,-1,1,-4,0,0
1558441772768316,-2,-1,2,-3,0,-4,-3,-4
1558441772777301,-2,-2,-3,-2,-8,-3,-3,-3
1558441772777301,2,0,-2,-3,2,11,4,-1
1558441772791260,-1,-2,1,1,-5,-9,-7,-2
1558441772791260,-1,-2,-1,2,1,5,-5,-2
1558441772799173,0,2,-4,-3,-4,4,-2,0
1558441772799173,-2,-2,3,-4,-2,-18,0,2
1558441772806215,0,2,-4,-1,7,14,9,0
1558441772806215,-1,-3,4,3,2,-3,-2,-2
1558441772814147,0,-1,0,0,4,-4,-1,-2
1558441772814147,-2,-2,-6,-5,-16,-8,-13,-5
1558441772829146,-2,1,0,-3,-2,-8,-8,-4
1558441772829146,0,1,-3,-2,4,6,11,5
1558441772838073,-2,-2,-1,-2,-6,-2,-2,-3
1558441772838073,-1,-1,2,8,7,5,0,2
1558441772852042,-3,-4,-1,-6,-5,-4,-7,-3
1558441772852042,0,-1,-6,-8,-16,-7,-6,-2
1558441772860204,2,2,3,1,2,-8,0,1
1558441772860204,0,-1,1,6,7,4,1,-1
1558441772866237,0,-1,-1,5,7,4,3,-2
1558441772866237,-1,-1,1,1,-7,-2,-10,-6
1558441772875165,-3,-2,5,1,6,17,8,2
1558441772875165,0,0,1,-1,-7,-6,2,1
1558441772889230,-2,-3,-4,-4,-3,-5,-3,-4
1558441772889230,2,3,-4,-3,4,8,4,2
1558441772898104,-2,0,-1,1,-8,-15,-6,-3
1558441772898104,-1,-3,0,-3,1,14,3,-1
1558441772911282,-3,-3,-2,-2,-10,-19,-7,-1
1558441772911282,-1,0,1,5,2,1,5,2
1558441772920235,-1,-3,-3,-6,-1,3,-1,-2
1558441772920235,0,1,-3,0,6,3,6,3
1558441772926030,0,-2,2,-1,3,8,2,-2
1558441772926030,0,1,6,13,11,4,0,1
1558441772935011,-5,-7,-10,-12,-13,-4,-6,-7
1558441772935011,-2,-3,1,0,-8,-5,-12,-5
1558441772948968,0,1,-12,-12,6,21,7,4
1558441772948968,-2,2,3,-2,-3,-10,-1,-1
1558441772957943,1,-3,-2,4,3,3,2,-1
1558441772957943,1,-2,-4,0,-2,-18,-5,-1
1558441772970938,-5,-4,3,6,-7,0,-1,-3
1558441772970938,-3,-7,-6,-11,-2,6,1,-1
1558441772979882,0,1,4,4,1,6,-4,-1
1558441772979882,-2,-3,-7,-13,-10,-14,-5,-3
1558441772994841,4,4,8,7,7,-2,3,3
1558441772994841,4,0,-5,-1,11,2,6,3
1558441772996836,-3,-4,0,-1,-12,-5,-7,-2
1558441772996836,-4,-1,-5,-9,-6,3,-7,-3
1558441773008804,-1,0,-1,-1,0,4,-2,-2
1558441773008804,-1,-2,4,9,2,-2,-3,-1
1558441773017922,3,6,5,3,25,12,16,8
1558441773017922,3,1,0,1,0,-4,2,0
1558441773040721,1,-3,-5,0,-10,-17,-7,-2
1558441773040721,-3,-4,0,-2,-3,1,-6,-5
1558441773041721,1,2,6,7,-1,3,1,1
1558441773041721,-3,-5,-6,0,-1,1,0,-2
1558441773055682,1,1,-1,2,0,-11,2,2
1558441773055682,-1,-1,-3,-1,-1,-16,0,-2
1558441773056678,-3,-1,-7,-6,-1,-2,-7,-3
1558441773056678,-3,0,5,4,-4,2,2,0
1558441773069769,-2,-2,-1,-1,-3,-3,1,-1
1558441773069769,1,3,-1,-3,1,8,2,1
1558441773077663,-2,-1,-3,4,-1,3,-1,-1
1558441773077663,0,-2,-1,2,0,-3,-3,1
1558441773091631,1,0,2,-5,9,13,13,4
1558441773091631,-1,-2,2,4,-3,-9,-6,-4
1558441773100574,1,-1,1,6,-4,-4,-3,0
1558441773100574,-4,-4,-6,-16,-11,-1,-3,-3
1558441773115604,1,-1,3,0,-2,-10,2,3
1558441773115604,2,-1,-3,-1,4,-2,1,3
1558441773116522,0,-1,-5,-4,-10,-6,-6,-4
1558441773116522,0,-2,-2,-4,-3,-2,-9,-2
1558441773128497,-5,-3,-2,-2,-4,11,-8,-6
1558441773128497,-3,-3,-6,-4,-1,3,5,3
1558441773137464,3,1,3,3,12,-3,3,4
1558441773137464,-1,0,5,-1,-2,-3,1,-1
1558441773151642,0,0,-2,4,2,-6,0,1
1558441773151642,-2,-6,-1,-6,-11,-3,-10,-6
1558441773160403,-2,-4,-8,-7,-8,-1,-4,-4
1558441773160403,0,-1,1,3,7,13,5,0
1558441773175362,0,-1,0,-3,-6,-8,-13,-5
1558441773175362,-3,-3,-9,1,-12,-5,-7,-6
1558441773176357,1,1,9,1,13,-2,17,6
1558441773176357,2,2,-1,-2,8,-11,0,3
1558441773189426,-6,-7,-8,-6,-14,-10,-8,-6
1558441773189426,-2,0,0,-3,-2,12,-6,-6
1558441773197333,-4,-3,-1,-3,-8,4,-5,-3
1558441773197333,0,1,-5,8,4,10,7,1
1558441773211397,0,-1,1,-8,-9,-8,-7,-3
1558441773211397,1,0,1,-5,3,-3,1,2
1558441773220240,0,-1,-2,7,-4,-4,-2,0
1558441773220240,0,-1,4,-9,3,4,3,1
1558441773236431,2,3,5,10,12,1,4,4
1558441773236431,-3,-2,-1,-1,-2,1,1,0
1558441773237201,0,1,6,5,8,4,1,0
1558441773237201,0,2,-4,-3,-6,-6,-8,-3
1558441773249167,-4,-6,-9,-6,-11,-11,-7,-6
1558441773249167,3,3,5,4,11,11,12,7
1558441773257358,-2,-3,-3,1,-7,-10,-9,-6
1558441773257358,-1,2,3,1,5,5,6,-3
1558441773271349,0,1,3,1,2,6,1,2
1558441773271349,-3,-4,-6,-7,-7,-4,-3,-3
1558441773280086,-1,0,-4,-6,-3,0,-2,-2
1558441773280086,0,0,0,3,1,-1,-4,-1
1558441773294264,-2,-4,-3,-2,-1,8,-1,-2
1558441773294264,-1,0,1,-1,-10,-13,-3,-1
1558441773301202,0,0,-2,-3,5,-1,4,1
1558441773301202,-1,-2,3,9,10,2,4,2
1558441773309209,1,-1,-2,-2,6,12,6,1
1558441773309209,1,2,5,2,5,7,4,3
1558441773317981,-3,-3,-7,-11,-10,-15,-8,-5
1558441773317981,-3,-5,-8,-3,-3,11,-3,-5
1558441773330986,-1,2,-2,0,-6,-8,-1,1
1558441773330986,-3,-6,-6,-3,-8,-13,-1,-3
1558441773340262,2,1,0,0,1,-3,2,1
1558441773340262,1,-1,0,-1,5,10,5,1
1558441773354186,-3,-2,-3,-3,-4,-5,-2,-2
1558441773354186,-2,1,7,0,-3,-1,-2,-2
1558441773361207,-4,-3,-6,3,-4,1,-4,-2
1558441773361207,-6,-8,-2,-13,-21,-16,-16,-6
1558441773369182,1,0,-2,4,20,24,10,2
1558441773369182,0,3,1,-3,3,-13,-3,2
1558441773378116,0,-3,-3,-3,-5,-2,-5,-2
1558441773378116,1,0,-4,-3,-9,-3,-2,-2
1558441773391079,2,4,5,2,-1,-14,1,0
1558441773391079,0,-4,-3,4,11,3,2,-1
1558441773400060,-1,-1,4,-1,-1,-2,-1,1
1558441773400060,-6,-4,2,4,-3,-1,-7,-3
1558441773414016,-3,-4,-4,-8,-6,-2,-4,-1
1558441773414016,-2,2,-5,1,-1,5,1,-2
1558441773422993,0,-1,-1,0,-2,-5,2,-3
1558441773422993,0,2,0,1,-8,-15,-9,-3
1558441773428977,0,1,-4,2,8,15,6,1
1558441773428977,-2,-2,0,-3,5,3,-1,-1
1558441773437953,-3,-3,-1,0,-7,0,-8,-2
1558441773437953,-2,-1,3,1,2,-9,4,3
1558441773450928,-1,-2,-1,-2,-4,-15,-10,-4
1558441773450928,0,-3,-3,-6,-8,2,-8,-4
1558441773459920,-1,-2,-2,0,5,6,2,0
1558441773459920,1,1,0,1,-3,-12,-2,-2
1558441773473983,-2,0,-2,-3,1,9,8,4
1558441773473983,1,-1,2,4,5,-6,-8,-1
1558441773482834,-3,-2,-2,-8,-3,3,3,-1
1558441773482834,-1,-3,-4,-6,-2,4,6,0
1558441773488825,-2,-4,-3,-1,-12,-18,-9,-5
1558441773488825,1,0,-2,2,5,13,9,2
1558441773497802,-1,-2,2,2,6,5,1,1
1558441773497802,-2,1,-2,1,0,7,-2,-1
1558441773511760,-1,0,-2,6,8,3,7,4
1558441773511760,-2,-1,2,-4,-7,-8,0,-3
1558441773520744,1,-2,0,-9,-6,-7,1,-1
1558441773520744,-3,-2,-10,-3,2,14,4,-3
1558441773542882,0,0,5,3,-7,-9,-6,-4
1558441773542882,-3,-2,-5,-8,-6,2,-1,-2
1558441773543673,0,-1,-3,-2,0,-7,-2,-3
1558441773543673,0,-1,2,1,-3,-5,-2,0
1558441773548657,-1,-1,-3,-5,-2,5,-1,0
1558441773548657,-5,-4,4,4,4,0,2,1
1558441773557634,0,0,2,3,1,-3,-2,-3
1558441773557634,3,2,3,8,6,3,3,1
1558441773571605,-1,0,1,-5,-4,-1,-4,-3
1558441773571605,1,-2,-8,-6,0,1,-2,1
1558441773586564,-5,-5,-5,-8,-7,-8,-2,0
1558441773586564,1,0,-1,-1,-1,1,3,2
1558441773593537,-1,-2,0,-1,-2,-2,-5,-5
1558441773593537,1,0,4,9,10,9,7,3
1558441773602519,1,2,5,2,0,3,1,0
1558441773602519,-5,-4,-6,-6,-8,-17,-2,-1
1558441773608501,-5,-4,-6,-10,-1,-2,-2,-2
1558441773608501,-4,-2,-8,-7,-10,-13,-10,-5
1558441773617614,-1,0,0,4,4,9,0,1
1558441773617614,0,0,5,-1,-4,-11,-2,-3
1558441773631631,2,0,4,1,3,-4,0,-2
1558441773631631,-2,-2,-1,-2,-5,-6,-5,-4
1558441773640412,0,0,-4,2,3,7,0,-2
1558441773640412,-2,-2,0,-4,-8,8,-3,-5
1558441773654439,-5,-5,0,3,1,4,-2,-3
1558441773654439,1,1,0,1,2,-6,7,4
1558441773662351,-2,0,-1,-3,-7,-10,-7,-3
1558441773662351,-2,-3,-11,-3,3,3,-3,-1
1558441773669441,1,-1,9,4,3,3,1,3
1558441773669441,1,2,-4,0,-5,-8,-6,-2
1558441773685291,-4,-3,0,-3,-3,9,4,0
1558441773685291,-1,2,-1,0,2,-16,-3,0
1558441773691430,-3,-2,-4,-1,-9,-5,-8,-4
1558441773691430,0,1,5,4,9,15,5,2
1558441773700253,-2,2,-4,2,0,-13,-5,-2
1558441773700253,-2,-5,-6,-8,-8,5,-5,-2
1558441773714420,1,4,-1,-3,-3,-3,-2,1
1558441773714420,-2,-3,5,5,-2,-15,-5,-3
1558441773723194,3,2,-1,-3,3,5,3,-1
1558441773723194,-2,-2,-1,6,13,23,3,-1
1558441773729178,-1,-1,-8,-15,-6,-1,8,4
1558441773729178,-1,-2,-4,-8,1,-11,4,0
1558441773737159,-3,-3,-1,4,-5,-3,-6,-4
1558441773737159,5,6,5,7,10,-10,3,5
1558441773751124,-1,0,3,-2,-4,-5,-3,-2
1558441773751124,-2,-1,-5,-6,-8,1,-8,-5
1558441773760094,0,-3,0,0,3,4,4,1
1558441773760094,-3,-3,-1,-3,-3,-7,-1,-1
1558441773774090,-2,-4,0,5,-4,5,-3,-5
1558441773774090,2,2,2,-4,0,-1,4,1
1558441773783030,-2,-2,-2,1,-4,-3,-6,-1
1558441773783030,-3,-4,-5,-7,-7,5,-5,-4
1558441773789014,-1,0,0,2,5,-5,-3,-2
1558441773789014,0,-1,4,1,-5,-2,-3,-3
1558441773804971,1,-2,-17,-9,5,8,5,3
1558441773804971,0,2,15,12,9,-2,5,2
1558441773810953,-1,2,3,-1,0,1,-1,0
1558441773810953,-3,-3,-7,-2,-8,-9,-3,-4
1558441773819931,-1,0,1,-2,-1,-14,-5,0
1558441773819931,-1,-1,-5,0,-1,13,3,1
1558441773833891,-2,-2,-7,-11,-5,-5,-3,0
1558441773833891,0,0,5,4,-3,-3,2,2
1558441773842867,0,-3,-6,-2,-2,7,4,0
1558441773842867,1,0,-2,1,1,-5,0,0
1558441773848853,-4,-4,-8,-13,-11,-15,-8,-3
1558441773848853,-1,2,4,1,11,19,5,2
1558441773857828,-2,-2,-4,-4,-4,4,-1,0
1558441773857828,0,1,2,4,0,6,-1,-3
1558441773871954,0,-2,8,9,-2,-6,-2,-3
1558441773871954,0,-1,-6,-8,2,-1,-2,1
1558441773879770,2,0,7,2,-3,-12,-5,-2
1558441773879770,-2,-1,-5,-4,-2,1,2,-1
1558441773894112,-3,-2,-7,1,-4,3,-2,-3
1558441773894112,-3,-3,-5,-3,-10,-7,-6,-6
1558441773902708,-1,1,-1,-3,6,-4,-1,1
1558441773902708,-3,-3,6,7,-3,-8,-4,-4
1558441773917933,1,0,-4,-3,2,-3,2,1
1558441773917933,-1,-2,1,5,3,10,0,-3
1558441773918668,-3,-1,2,-13,-16,-4,2,-2
1558441773918668,-3,-4,-7,2,-4,-4,-4,-2
1558441773931770,0,-4,-5,-10,3,5,3,-1
1558441773931770,0,-1,0,1,-1,1,1,-1
1558441773940616,0,-3,-1,-3,-4,-10,-10,-4
1558441773940616,2,1,3,-4,1,3,4,2
1558441773953619,0,0,2,7,10,8,8,2
1558441773953619,-4,-4,-4,-10,-11,-7,-5,-1
1558441773962556,-1,1,1,8,2,-10,3,1
1558441773962556,1,2,-5,-11,-4,-4,-5,-1
1558441773977524,0,-1,2,13,9,11,3,0
1558441773977524,0,0,-3,-14,-2,-4,-1,0
1558441773979504,-4,-4,-4,0,-6,-4,-8,-4
1558441773979504,1,1,8,7,7,8,2,2
1558441773991473,-2,-2,-6,-8,-8,4,2,-2
1558441773991473,-4,-5,-8,-6,-7,0,-4,-5
1558441774000450,0,-1,7,7,2,14,0,0
1558441774000450,3,-2,-5,-5,4,-21,-1,4
1558441774013416,4,2,0,-1,2,-4,-3,0
1558441774013416,-3,-2,3,6,0,0,-2,-3
1558441774022389,-4,-5,-6,-1,-14,-5,-9,-6
1558441774022389,-1,1,-3,-13,-4,5,4,2
1558441774038363,0,2,6,8,7,-27,2,4
1558441774038363,2,5,3,4,8,9,4,4
1558441774039344,0,0,-3,1,3,1,0,-3
1558441774039344,-2,-2,-4,-5,-7,7,-6,-3
1558441774051766,-3,-7,-5,0,-5,6,1,-3
1558441774051766,-2,-1,-4,-7,-4,-8,-7,-4
1558441774059999,-2,-5,-3,-2,-2,11,2,-1
1558441774059999,-2,1,5,3,-3,-22,-5,-2
1558441774074231,0,0,-2,-9,10,14,6,1
1558441774074231,-2,-2,-1,7,1,-8,0,-1
1558441774082945,1,1,2,0,3,10,5,-1
1558441774082945,-3,-5,-12,-9,-9,-13,-9,-4
1558441774098152,-1,3,2,1,-8,1,-3,0
1558441774098152,1,-2,3,4,7,10,6,2
1558441774098903,1,2,-2,-2,7,-14,-1,1
1558441774098903,-2,-2,13,11,0,6,-3,-2
1558441774111117,0,-2,-14,-9,-1,-4,0,-1
1558441774111117,-2,-3,5,-3,-6,2,-2,-3
1558441774119842,-1,-1,-10,-8,-7,-3,-5,0
1558441774119842,-3,1,-4,-5,3,7,8,2
1558441774134034,-3,-3,3,5,-7,-12,-12,-4
1558441774134034,2,2,2,1,9,0,2,2
1558441774142787,0,-2,-5,3,3,-8,1,2
1558441774142787,2,0,-1,-14,-12,-2,-7,-5
1558441774157741,-1,1,4,3,-3,11,3,-1
1558441774157741,1,-2,-7,2,0,-3,-3,-1
1558441774158739,0,1,2,-9,2,1,2,2
1558441774158739,-3,-3,-4,1,-4,-8,-6,-3
1558441774171869,-2,-1,3,-2,-4,4,-2,-1
1558441774171869,1,-1,0,1,-6,-11,-12,-4
1558441774179685,1,0,6,3,10,20,13,1
1558441774179685,0,-2,1,-1,-6,-9,-6,-3
1558441774193859,0,2,6,8,8,4,7,5
1558441774193859,-2,-2,-5,-4,3,-5,-6,0
1558441774202623,-2,-3,-1,1,-13,-10,-12,-6
1558441774202623,-1,-1,-1,-7,8,13,12,-1
1558441774217581,-4,-4,-6,0,-6,0,-3,-2
1558441774217581,1,-1,4,4,0,0,3,1
1558441774218579,1,1,-12,-14,-3,-7,-3,0
1558441774218579,-2,-1,1,4,-7,-3,-8,-6
1558441774231570,1,-3,0,-2,4,-9,2,0
1558441774231570,-1,2,2,5,1,13,5,-2
1558441774240518,-3,-3,8,-2,-3,-4,-3,-1
1558441774240518,0,0,-2,-1,-2,-12,-3,2
1558441774254494,0,0,-2,-5,2,8,2,-1
1558441774254494,-3,-3,4,-1,-6,-13,-2,-1
1558441774262461,1,-1,-2,-4,1,5,-1,-2
1558441774262461,-1,1,-2,6,0,3,1,1
1558441774285703,-1,0,-11,-17,-1,7,-4,1
1558441774285703,-4,-3,-7,-5,-11,-7,-2,-4
1558441774286398,1,4,14,13,11,6,10,6
1558441774286398,-1,-4,7,2,3,-10,-1,2
1558441774291687,-2,0,-10,-1,2,13,2,-3
1558441774291687,0,-2,-6,-1,3,-5,-4,-2
1558441774300361,1,1,-5,-2,-3,-7,-2,-2
1558441774300361,-2,0,2,-1,4,4,1,-2
1558441774313693,-1,-3,10,13,-7,-10,-6,-4
1558441774313693,-2,-4,-10,-14,-11,-12,-6,-3
1558441774322638,-1,-2,0,3,0,-2,0,0
1558441774322638,0,-1,-3,-1,-2,10,-3,0
1558441774338397,-3,-2,-3,-3,2,3,-5,-2
1558441774338397,0,0,0,1,-2,-3,3,1
1558441774339258,-2,-3,-1,2,-2,-4,0,0
1558441774339258,2,0,0,2,5,-1,5,1
1558441774351479,1,0,1,-5,-6,-16,-2,-1
1558441774351479,1,3,5,13,16,25,6,4
1558441774360206,-5,-2,-2,-2,-1,-4,0,-1
1558441774360206,-1,0,-8,-2,-6,-4,-5,-3
1558441774374162,-4,-2,4,3,-1,-1,-2,-3
1558441774374162,-2,-1,-2,-1,-6,-10,-9,-2
1558441774382142,-1,0,-5,-1,-1,-1,7,4
1558441774382142,-1,0,8,5,7,8,5,-1
1558441774397102,1,-2,1,-4,0,-3,-2,-1
1558441774397102,-3,-5,-7,-12,-12,-3,-9,-5
1558441774399095,-2,-1,-1,0,5,8,4,0
1558441774399095,-3,0,-13,-9,-1,1,4,0
1558441774420041,-4,-6,-1,2,-1,-7,-1,-1
1558441774420041,0,1,1,3,-2,-2,0,0
1558441774422034,-1,-3,1,-1,-4,-5,-10,-7
1558441774422034,-1,-2,-1,-3,-7,-4,-3,-1
1558441774434003,2,3,4,3,11,2,8,5
1558441774434003,-1,-1,-3,-3,3,-7,2,0
1558441774442980,-2,-1,0,3,-4,-4,-5,-3
1558441774442980,1,0,-1,-3,6,11,-3,-2
1558441774458400,1,-1,-4,6,-7,-10,-9,-4
1558441774458400,0,-4,-5,-21,-10,-17,3,0
1558441774459971,-1,-1,1,-1,5,-2,4,3
1558441774459971,-2,-3,6,-3,-2,-4,-1,0
1558441774472086,-1,2,-11,-8,-10,3,0,0
1558441774472086,0,1,8,16,17,18,8,0
1558441774479880,-1,0,-3,-4,-4,3,-5,-4
1558441774479880,-4,-4,-7,-8,-6,-4,-13,-2
1558441774494287,-3,-3,-3,-5,-13,-12,1,-3
1558441774494287,0,-2,-5,-3,5,0,4,0
1558441774502820,1,1,-1,-2,4,1,2,0
1558441774502820,0,-1,4,11,-4,-4,-3,-1
1558441774518084,-2,-3,-5,-14,-8,3,-7,-2
1558441774518084,0,-1,3,1,-2,5,1,2
1558441774518775,-1,-2,0,0,5,-8,-2,0
1558441774518775,1,-2,-6,-1,0,8,4,-1
1558441774532039,1,3,7,7,2,-4,-3,0
1558441774532039,-4,-3,-6,2,-3,4,-3,-5
1558441774539948,-2,-1,1,3,4,-2,-1,1
1558441774539948,-2,-2,-4,0,1,-4,1,-1
1558441774553936,-2,-2,0,-11,-7,-2,-7,-4
1558441774553936,1,-2,0,6,4,15,2,0
1558441774562661,5,4,-2,-6,5,-5,7,4
1558441774562661,1,-2,-7,5,9,-5,0,1
1558441774577865,-1,-1,5,7,4,2,-2,0
1558441774577865,-2,0,0,-5,-12,-9,-3,-6
1558441774578620,0,-2,-3,-2,-1,8,2,1
1558441774578620,-2,-2,3,-1,0,-4,0,0
1558441774591584,-1,-2,-3,3,6,9,1,1
1558441774591584,-3,-1,1,-3,-2,0,0,1
1558441774600557,-2,0,5,6,-4,-5,-8,-2
1558441774600557,2,2,-4,-9,2,-2,9,2
1558441774613522,-1,-1,7,12,8,4,-1,-1
1558441774613522,-2,-5,-11,-10,-7,-6,-3,-3
1558441774622683,0,-1,-3,0,0,-3,3,-2
1558441774622683,-3,-1,0,0,-5,-5,-11,-4
1558441774636675,-1,2,1,3,2,0,10,-1
1558441774636675,0,4,3,1,-2,4,-8,-1
1558441774645440,-1,-4,-6,-2,-7,-11,-7,-2
1558441774645440,0,0,10,1,-3,3,0,-1
1558441774651705,0,-3,-9,-6,-1,-4,4,2
1558441774651705,-1,0,-1,12,11,3,1,1
1558441774660401,-2,-1,-2,-12,-10,-9,-4,-3
1558441774660401,-1,-6,-4,-1,-12,-4,-9,-5
1558441774674393,4,3,6,3,9,-3,3,1
1558441774674393,2,0,-1,4,0,-5,-1,-1
1558441774682569,-6,-3,3,-4,-8,5,-4,-4
1558441774682569,-1,0,-1,0,3,-3,2,2
1558441774697548,-3,-1,-5,-3,-7,-5,-7,-4
1558441774697548,-3,-2,-2,-3,-7,-8,2,0
1558441774704399,1,-1,0,6,5,11,-1,-1
1558441774704399,0,-4,-1,-15,-14,-14,-5,-2
1558441774711449,3,4,-1,4,11,4,5,4
1558441774711449,-2,1,-1,-4,-4,-6,-5,-1
1558441774720268,-1,-3,-2,6,2,14,3,-1
1558441774720268,1,0,0,2,3,5,1,-2
1558441774734486,0,-5,-6,-9,-3,1,-4,-3
1558441774734486,3,1,3,2,1,-1,1,0
1558441774742433,-2,-3,-7,-7,-5,-18,-5,-2
1558441774742433,-1,0,-7,-4,4,7,5,2
1558441774757393,-3,1,5,2,-5,-2,-3,-1
1558441774757393,-3,-1,3,3,-8,-1,-10,-6
1558441774764365,-3,0,-6,-12,-5,8,0,0
1558441774764365,2,1,4,5,11,-2,9,2
1558441774771346,-1,-2,-1,-1,-1,6,1,-2
1558441774771346,-2,-7,-9,-8,-6,2,-2,-5
1558441774780077,2,0,4,2,-5,-27,-7,-4
1558441774780077,-1,0,-1,4,2,14,7,3
1558441774794043,1,-1,-1,-5,3,4,2,-2
1558441774794043,0,-1,2,1,2,0,0,1
1558441774803016,-4,-5,-9,-5,-7,0,-8,-3
1558441774803016,-2,2,-1,3,2,-4,-2,0
1558441774816978,1,0,-3,-4,-1,-10,7,0
1558441774816978,-3,-1,1,4,9,10,2,4
1558441774823959,-3,-1,2,-3,2,4,-3,-3
1558441774823959,-1,2,3,6,2,5,1,-1
1558441774831945,-1,-3,-2,0,0,1,-3,-1
1558441774831945,1,2,-2,-2,3,-1,2,-1
1558441774840206,0,-1,3,0,-2,0,0,-1
1558441774840206,-3,-1,-3,1,-1,5,-1,-1
1558441774854172,-4,-4,-3,-8,-8,-4,-2,-5
1558441774854172,0,-1,-2,-11,-7,-14,-8,-4
1558441774868838,-1,3,3,5,2,6,0,0
1558441774868838,-2,-3,-6,-8,-8,-8,0,-1
1558441774876816,2,1,-1,1,-1,-5,-5,1
1558441774876816,-3,-2,2,-1,-1,5,1,-1
1558441774883798,2,2,5,-1,-3,-1,-2,-2
1558441774883798,-4,-7,-9,-8,-7,-11,-8,-5
1558441774899759,-1,-1,2,0,1,10,2,1
1558441774899759,1,2,-3,0,4,-8,3,5
1558441774901752,0,-1,-5,-4,-7,-12,-4,-1
1558441774901752,-2,-2,6,6,-6,4,-1,-3
1558441774913718,-2,-1,-2,-7,1,-3,-2,-1
1558441774913718,-3,-2,-9,-20,-5,12,4,-4
1558441774922695,0,-1,-3,2,5,12,3,2
1558441774922695,-3,-4,-5,-5,-4,-13,-8,-2
1558441774936789,0,0,4,4,0,-14,-1,-1
1558441774936789,-2,0,5,6,4,5,-1,0
1558441774943770,3,0,2,1,4,2,5,2
1558441774943770,0,1,0,-4,1,5,-1,-3
1558441774960831,-2,-2,-2,-1,-11,-8,-9,-4
1558441774960831,-1,0,-1,-4,-2,7,-1,0
1558441774961594,-3,-2,-5,2,-2,2,-1,-2
1558441774961594,2,4,4,-3,11,-6,5,4
1558441774974556,0,-2,-4,8,2,-4,2,2
1558441774974556,1,-1,6,1,4,-3,3,1
1558441774982671,-2,-1,-7,-4,-9,4,-6,-3
1558441774982671,-3,-5,-7,0,-7,1,-4,-7
1558441774996497,1,3,6,-1,-1,1,-5,-2
1558441774996497,1,-1,-6,-1,3,4,13,5
1558441775003728,-2,-5,-1,0,0,-17,-5,-1
1558441775003728,-2,1,4,7,5,7,0,-2
1558441775020433,-1,-1,-1,0,1,2,0,3
1558441775020433,-2,1,4,5,-2,1,-5,-4
1558441775021431,-3,-5,-2,-2,0,-3,1,0
1558441775021431,0,1,2,1,2,0,3,1
1558441775033403,-1,-2,-2,5,-6,-11,-7,-2
1558441775033403,2,3,7,2,5,-3,-1,0
1558441775042862,-3,-5,-10,-6,1,6,2,-2
1558441775042862,2,4,6,3,-1,-2,-3,1
1558441775057711,-3,-2,-6,-4,-5,11,-5,-7
1558441775057711,-5,-5,-5,-2,-7,-14,-8,-6
1558441775064489,4,3,10,6,9,-1,6,6
1558441775064489,1,-1,-5,-13,-9,-10,0,1
1558441775080646,-3,0,1,-8,-5,-1,0,-3
1558441775080646,-1,-2,-5,3,-5,-12,-9,-3
1558441775081271,0,2,6,4,8,20,11,2
1558441775081271,-2,-3,-7,1,2,4,-2,-3
1558441775094592,1,2,4,0,7,-2,8,5
1558441775094592,-1,-2,-4,-2,-6,-4,-5,-1
1558441775102566,-3,-2,2,-2,-6,-2,-7,-3
1558441775102566,-1,2,-5,-6,-6,3,0,-1
1558441775117549,-2,-4,2,5,2,5,-1,-4
1558441775117549,-3,-2,-2,-5,8,8,6,4
1558441775124529,0,-1,-7,0,0,-14,3,1
1558441775124529,-3,-3,-2,-4,-6,-4,-4,-4
1558441775148332,-2,0,-4,-6,-9,1,-6,-4
1558441775148332,1,-2,3,6,4,3,5,-1
1558441775149093,2,3,9,2,2,-6,-1,1
1558441775149093,-2,-1,-2,0,3,3,5,2
1558441775154361,-2,-3,1,0,-3,-11,-3,-1
1558441775154361,-4,-5,-10,-12,-16,-8,-6,-4
1558441775163061,-2,1,2,2,0,8,1,-2
1558441775163061,1,-1,3,-1,5,-4,0,0
1558441775177016,-2,1,-4,1,-3,1,-4,-1
1558441775177016,-1,-3,-1,0,-5,0,-6,-5
1558441775184200,-2,-4,-2,-4,-9,-7,-6,-4
1558441775184200,1,0,1,-8,-1,-11,-3,2
1558441775200174,1,0,-2,-1,8,6,6,4
1558441775200174,-3,-2,-1,-2,-4,-1,1,0
1558441775201950,-1,-1,-4,2,-3,6,-4,-3
1558441775201950,-1,0,0,5,0,-8,-1,0
1558441775213916,-2,-1,-1,-2,0,-10,-2,-1
1558441775213916,3,3,-1,-4,8,7,9,4
1558441775222906,0,1,6,2,1,4,4,0
1558441775222906,-4,-3,-8,-7,-11,-9,-6,-3
1558441775236857,-2,-1,-2,1,1,5,1,1
1558441775236857,-1,2,1,-7,-4,-5,-2,1
1558441775243840,0,-3,-1,-1,1,3,0,0
1558441775243840,2,1,1,1,8,12,2,3
1558441775260917,-2,3,1,0,-6,-11,-6,-4
1558441775260917,0,1,2,1,0,1,-2,-1
1558441775261793,-3,0,-5,-7,1,-11,-7,-3
1558441775261793,-2,-1,0,2,-1,15,4,0
1558441775274083,-1,-8,0,4,10,8,1,-1
1558441775274083,-1,-2,-2,-4,-13,-7,-10,-4
1558441775282737,-4,-4,-6,-6,-10,-12,-5,-2
1558441775282737,2,3,5,7,7,7,3,1
1558441775296962,1,-1,1,-5,7,7,5,1
1558441775296962,-3,0,-2,2,4,2,-1,-2
1558441775304011,-3,-3,-7,-5,-10,-6,-10,-4
1558441775304011,-1,-3,-5,-9,-11,-1,-8,-2
1558441775320748,-1,-3,-2,3,-4,8,8,2
1558441775320748,1,-1,3,2,4,-12,2,3
1558441775321630,2,2,0,-2,7,9,5,0
1558441775321630,-1,-1,3,7,-4,-7,-12,-6
1558441775333936,-2,-3,-11,-6,-14,-17,-17,-7
1558441775333936,2,3,-2,4,14,12,10,7
1558441775342701,-2,-1,2,0,2,0,4,2
1558441775342701,0,1,2,0,6,-2,9,3
1558441775356788,-4,-4,-3,-3,-4,0,-6,-6
1558441775356788,-4,-3,-3,1,-12,-15,-10,-5
1558441775363826,2,0,0,2,10,15,10,4
1558441775363826,-3,-4,3,-1,-1,-3,-2,0
1558441775379788,1,1,5,2,0,-3,3,1
1558441775379788,0,0,4,4,8,5,0,-2
1558441775381779,-4,-5,-11,-4,-5,-2,0,-2
1558441775381779,-3,-2,1,-3,-10,-2,-2,-2
1558441775393948,0,2,-9,-3,-5,-21,-3,1
1558441775393948,0,-3,8,7,14,3,5,3
1558441775402728,-3,-2,-5,-5,-7,-8,-4,-5
1558441775402728,2,0,-3,7,7,-4,-5,-5
1558441775416690,-3,-1,-3,-13,-14,2,-1,-2
1558441775416690,-2,0,-4,-4,-8,-5,-1,-2
1558441775423892,-2,-1,-3,1,-2,-11,-4,0
1558441775423892,-4,-4,0,1,1,17,0,-1
1558441775439852,-1,-2,5,4,1,2,2,-1
1558441775439852,1,-1,-4,-2,6,0,4,2
1558441775441620,0,0,2,2,0,-1,4,1
1558441775441620,-1,1,-4,-1,-6,-7,-5,-3
1558441775453587,-4,-6,-8,-11,-7,4,-3,-5
1558441775453587,-2,-3,-2,-5,-5,0,3,1
1558441775462564,0,2,8,2,2,-4,0,-3
1558441775462564,0,-1,-7,-3,1,-7,-3,-2
1558441775477749,-1,0,-8,0,5,-10,-3,2
1558441775477749,-1,1,-6,-5,-18,-17,-4,-3
1558441775483829,1,0,7,9,11,13,2,0
1558441775483829,-4,-4,-2,-11,-11,3,1,-2
1558441775500777,-1,-2,-2,1,-1,-2,-4,1
1558441775500777,-1,-2,-5,-1,7,18,5,1
1558441775501459,1,1,-1,0,-8,-21,-5,-1
1558441775501459,0,-2,1,4,2,3,0,-3
1558441775514477,2,4,4,-5,10,15,5,-2
1558441775514477,-6,-4,0,1,-10,-7,-8,-4
1558441775522599,1,2,2,0,7,5,6,3
1558441775522599,1,0,2,-1,-2,-12,0,0
1558441775537733,-1,-4,1,4,-3,-3,-4,0
1558441775537733,2,1,3,3,-2,4,1,0
1558441775544435,-3,-8,-8,-11,-1,6,2,1
1558441775544435,-2,-3,0,-2,2,1,1,-2
1558441775560673,1,2,1,2,1,4,3,-1
1558441775560673,0,0,3,6,0,0,-7,-4
1558441775561357,-4,-2,-8,-7,-2,4,0,-1
1558441775561357,-1,-1,1,2,-2,-15,-2,0
1558441775574462,-2,-1,2,-2,-1,0,0,-1
1558441775574462,-2,-2,-4,-5,2,8,-1,-3
1558441775582509,0,1,4,4,-4,-17,-9,-5
1558441775582509,1,-2,-3,-1,13,8,6,3
1558441775597494,0,0,1,-1,-9,-3,-3,-2
1558441775597494,0,1,1,-1,-6,-20,-2,2
1558441775604425,-1,0,-4,3,3,17,3,0
1558441775604425,1,2,-6,-7,4,-8,3,3
1558441775619402,-1,-1,3,0,1,11,4,0
1558441775619402,0,-4,0,-2,2,-2,0,0
1558441775626183,-1,0,3,-1,-6,-1,-6,-3
1558441775626183,0,-2,-6,-2,-3,1,-3,1
1558441775634396,1,1,5,8,3,9,9,2
1558441775634396,-1,-1,-1,1,3,-1,0,-2
1558441775649121,-1,-2,-8,-9,-3,-3,-5,-1
1558441775649121,-2,-2,-1,-2,-9,-1,-8,-3
1558441775656102,-1,1,1,-5,4,-9,-1,1
1558441775656102,-1,-1,-1,3,-5,8,1,-1
1558441775671089,1,-2,-3,-11,-1,3,5,5
1558441775671089,1,3,5,3,4,-4,3,0
1558441775679044,-4,-4,-2,8,2,-6,-4,-4
1558441775679044,0,-1,-8,-1,4,4,1,-1
1558441775686021,-4,-3,-2,-2,-10,-6,-4,-3
1558441775686021,0,0,0,-2,-4,3,0,-1
1558441775694351,-3,-3,2,0,-2,-15,-3,0
1558441775694351,-3,-1,-1,-5,-4,-2,-8,-3
1558441775702977,-2,0,-2,2,-4,1,-7,-2
1558441775702977,-1,-1,1,-4,-4,-2,-1,1
1558441775716231,0,3,3,6,8,-1,10,1
1558441775716231,-1,-3,-7,-9,-9,-6,-2,1
1558441775725285,-2,-3,-3,-9,-2,-4,-6,-5
1558441775725285,-3,-3,-4,1,-9,3,-6,-4
1558441775739069,1,-1,-4,-6,0,4,2,3
1558441775739069,0,-1,0,4,7,-4,4,4
1558441775745884,5,5,9,12,13,14,8,3
1558441775745884,0,-1,2,-3,6,8,7,1
1558441775754206,-4,-6,-9,-8,-11,-2,-11,-6
1558441775754206,-2,-2,-1,1,-7,-2,-5,-4
1558441775762817,-2,1,6,6,13,0,9,3
1558441775762817,-3,-4,-6,-1,-2,-1,-4,-2
1558441775777092,2,2,4,9,0,-7,-4,-1
1558441775777092,-1,-3,-6,-15,-9,1,-8,-4
1558441775792739,-3,2,4,3,-2,-7,-6,-4
1558441775792739,-1,-1,-6,-1,2,0,7,1
1558441775799725,-2,-2,-5,-2,-5,-8,-1,1
1558441775799725,-2,0,-2,-5,3,5,2,1
1558441775806022,0,-2,-8,-3,1,1,8,0
1558441775806022,-4,-2,8,10,-5,-6,-6,-4
1558441775822800,-3,-3,-5,-6,-5,1,-6,-4
1558441775822800,2,2,8,8,8,5,5,1
1558441775823654,-4,-5,-7,-13,-14,-18,-10,-2
1558441775823654,2,2,1,2,9,7,7,5
1558441775835620,-3,-4,-6,-4,-6,3,-6,-7
1558441775835620,-2,-4,-1,0,0,8,4,1
1558441775852577,0,0,-5,-2,-6,-10,1,2
1558441775852577,-1,0,1,-3,-7,-2,-2,-1
1558441775859943,-2,-2,-3,0,-3,-3,-6,-3
1558441775859943,-2,2,4,1,0,-6,-1,1
1558441775866539,2,2,7,5,-3,-3,-5,-2
1558441775866539,-2,-2,-14,-6,-3,0,6,-4
1558441775882854,1,0,7,11,16,8,5,3
1558441775882854,-3,-2,-12,-17,-10,0,-7,-9
1558441775883495,-3,-5,2,4,-3,1,-7,-3
1558441775883495,0,-2,0,-1,-8,-19,-7,-1
1558441775896472,1,3,2,-2,-1,0,-1,3
1558441775896472,0,-1,-2,3,5,4,7,3
1558441775905436,-3,-4,-6,-5,-14,-5,-10,-5
1558441775905436,0,0,-4,-12,-3,-13,-2,0
1558441775919537,0,-1,-6,-2,1,-1,1,-1
1558441775919537,-4,-5,2,-1,-3,0,-7,-3
1558441775926380,-2,-2,-1,3,-4,2,-4,-4
1558441775926380,-1,-1,3,-7,-6,-4,-5,-1
1558441775942335,1,1,-5,-5,11,8,9,6
1558441775942335,2,5,4,10,0,-3,2,0
1558441775944330,-2,-2,-2,-2,-7,-17,-5,-3
1558441775944330,-2,-3,0,3,6,8,-7,-5
1558441775956298,-2,-1,-1,-5,-6,4,-4,-3
1558441775956298,0,-1,0,3,-2,-3,-5,0
1558441775965276,1,-1,-3,-1,3,-3,4,3
1558441775965276,-1,-2,4,5,1,5,2,0
1558441775979264,-1,1,-8,-13,-7,-2,-1,-2
1558441775979264,0,-1,5,1,3,5,2,0
1558441775986218,-1,-2,2,0,3,9,3,-1
1558441775986218,0,3,2,6,10,3,10,2
1558441776002179,-4,-6,0,0,-9,-2,-2,-4
1558441776002179,0,-2,-1,1,-1,-10,-2,1
1558441776004171,1,2,-1,1,9,-1,2,4
1558441776004171,-3,-3,-1,-1,-1,11,-4,-2
1558441776016140,-3,-4,1,2,-14,-10,-4,-4
1558441776016140,-1,-3,-10,-10,-9,-18,-8,-2
1558441776025117,1,2,6,4,12,14,6,3
1558441776025117,-1,0,4,6,6,2,-2,-2
1558441776039079,0,1,0,-6,0,14,5,-1
1558441776039079,-3,-4,-6,-6,-15,-28,-11,-6
1558441776046059,-2,-4,-4,1,0,3,0,-3
1558441776046059,1,-2,-1,-3,-1,0,4,2
1558441776063017,-2,1,0,4,2,-3,-6,-1
1558441776063017,-2,-2,1,0,1,9,5,0
1558441776064011,1,2,-1,-1,5,-3,-1,1
1558441776064011,0,-2,1,4,-3,-2,-1,-1
1558441776075978,3,2,1,0,6,-11,0,3
1558441776075978,-1,1,1,1,3,12,4,0
1558441776085110,-1,-1,-2,0,-8,0,-10,-6
1558441776085110,-1,0,-4,-3,-7,1,1,-3
1558441776099181,1,-3,-2,-4,-1,-7,-2,-1
1558441776099181,-1,-1,-1,-1,3,-5,1,-1
1558441776105901,-2,-3,-4,-4,-5,-1,4,1
1558441776105901,1,0,1,-2,3,6,1,3
1558441776122856,-1,-2,0,1,-1,2,-3,-1
1558441776122856,-3,-2,2,0,0,10,2,-2
1558441776123850,-2,-2,-3,-3,5,8,3,-1
1558441776123850,-2,1,0,4,0,0,2,0
1558441776135818,1,0,4,1,5,1,5,2
1558441776135818,-3,-4,-2,1,-3,2,-7,-4
1558441776144796,0,-1,-3,-6,-6,-8,-2,0
1558441776144796,-2,0,1,-4,0,-13,-6,2
1558441776159754,0,0,2,5,-3,-1,1,1
1558441776159754,-1,-2,-2,-3,-6,-2,1,-4
1558441776165738,-3,-3,-3,-8,-3,15,6,-2
1558441776165738,1,-2,0,-3,-2,-18,-3,-1
1558441776182693,-2,-1,2,2,-3,-2,-2,-1
1558441776182693,-1,-3,-5,-2,-4,-8,-10,-2
1558441776183709,-2,-1,1,5,-7,-3,-6,-3
1558441776183709,-1,-2,-7,-12,2,11,3,-2
1558441776195660,-1,2,3,1,1,0,2,0
1558441776195660,-1,-1,-5,-2,4,6,3,-1
1558441776204637,2,1,1,3,3,-4,0,0
1558441776204637,-3,-3,-1,1,-9,-22,-3,-3
1558441776219703,-2,-5,-5,-3,-4,1,0,-4
1558441776219703,1,2,4,8,6,4,1,4
1558441776226576,2,-1,-6,-12,-4,-8,-12,-3
1558441776226576,-2,-3,-1,-2,-4,12,0,-2
1558441776242533,1,4,5,7,13,11,8,4
1558441776242533,-2,-6,-2,-3,-12,-13,-4,-1
1558441776244528,-1,-3,0,4,2,1,0,-1
1558441776244528,-2,-3,-6,-9,-13,-18,-9,-6
1558441776256497,0,-2,0,3,1,-4,0,0
1558441776256497,-1,0,4,-1,6,11,4,1
1558441776265472,-3,-2,0,1,-10,-4,-2,-1
1558441776265472,1,2,-2,5,6,5,-5,-4
1558441776279439,-6,-5,-4,-4,-8,-2,-3,-6
1558441776279439,3,2,-5,0,2,-17,3,1
1558441776286422,-2,0,4,1,3,-4,2,0
1558441776286422,-1,-2,-4,-9,-8,7,-1,-1
1558441776302373,-1,-1,0,-6,-8,-10,-11,-2
1558441776302373,0,2,-2,0,1,8,7,-2
1558441776304368,-1,-3,0,-3,9,6,0,-1
1558441776304368,-3,-3,-1,1,3,3,5,1
1558441776316343,2,1,-3,3,4,2,5,0
1558441776316343,-3,-3,2,-8,-12,-8,-7,-4
1558441776325311,1,0,2,10,6,6,4,3
1558441776325311,-1,-2,0,4,1,5,-1,1
1558441776339275,-2,-3,-1,-2,-10,-4,-2,-3
1558441776339275,-1,0,2,-1,-2,-6,-6,-2
1558441776346257,2,-3,-6,-3,1,0,-1,-2
1558441776346257,0,-1,-1,-4,-3,-5,-2,1
1558441776362216,0,2,4,6,3,-1,3,0
1558441776362216,-1,0,-3,-2,2,3,-5,-1
1558441776364210,-3,-1,-4,-3,-7,0,-4,-5
1558441776364210,-1,-4,-6,-3,-6,-8,-1,-3
1558441776376179,2,0,-5,0,4,1,3,2
1558441776376179,-3,-2,3,-1,-1,4,-1,-3
1558441776385154,-1,0,-1,-4,-6,-12,5,-3
1558441776385154,-1,1,4,6,7,16,2,0
1558441776399117,0,2,4,2,12,6,1,0
1558441776399117,-1,-1,0,5,1,-4,1,2
1558441776406106,-1,-2,-3,-8,-10,-12,-6,-3
1558441776406106,-2,0,-2,-4,-6,-4,-9,-5
1558441776422054,-4,-5,-6,-7,-16,-21,-12,-6
1558441776422054,1,1,0,-1,7,6,6,5
1558441776424048,-2,0,0,2,10,17,4,2
1558441776424048,-1,-3,-3,-4,-6,-10,-5,-1
1558441776436018,-1,-3,-2,-6,-5,0,-5,-1
1558441776436018,-2,-3,-7,0,-13,-17,-7,-7
1558441776444993,0,2,2,1,6,10,7,3
1558441776444993,-1,1,2,2,0,1,-1,1
1558441776467930,-2,-3,2,1,6,8,8,-1
1558441776467930,-3,-4,-5,-3,-9,-10,-12,-5
1558441776468931,0,-2,-3,7,0,-5,2,-3
1558441776468931,-2,0,-5,-11,3,8,6,1
1558441776482891,0,-2,-4,-1,-10,-7,-7,-1
1558441776482891,0,-1,1,-3,4,4,5,2
1558441776483888,1,1,2,-2,-1,-3,-3,1
1558441776483888,-2,-1,5,13,-1,-7,-4,-1
1558441776496854,-2,0,-1,-8,-4,1,-1,-4
1558441776496854,1,3,3,2,6,-1,1,0
1558441776504833,-2,-3,-4,-4,-9,-14,-9,-2
1558441776504833,3,2,1,3,10,13,9,5
1558441776519792,-2,-1,-7,-17,-7,-11,-2,-2
1558441776519792,-1,0,-3,-2,-2,11,-1,-1
1558441776525800,-4,-3,9,2,-6,-1,-1,-4
1558441776525800,-1,-4,-11,-5,-5,-9,-6,-1
1558441776541736,1,-3,-5,5,2,-7,3,0
1558441776541736,2,0,6,1,6,7,6,4
1558441776548717,-3,-2,-9,-7,-12,-12,-9,-4
1558441776548717,-5,-1,1,-1,-4,-5,-8,-6
1558441776556695,-1,-1,-7,-4,-3,7,-2,-1
1558441776556695,3,-1,6,7,20,13,14,6
1558441776564673,3,3,5,6,11,-2,13,7
1558441776564673,-2,-3,-3,-3,-5,1,-4,-4
1558441776579632,0,-2,-3,1,-8,6,-5,-2
1558441776579632,0,1,0,-6,0,-17,-3,-1
1558441776586623,-2,-3,1,3,-3,-9,-7,-3
1558441776586623,2,4,6,0,2,3,7,1
1558441776601576,-4,-8,-11,-7,-6,-5,-8,-4
1558441776601576,-1,-5,-3,-4,1,16,1,-2
1558441776610548,0,-2,0,5,-2,-10,-1,-2
1558441776610548,-1,1,4,-1,2,6,3,0
1558441776616556,1,0,5,3,3,-2,-6,-1
1558441776616556,-3,-3,-8,-5,-16,-11,-10,-5
1558441776625520,0,-1,1,0,13,18,4,0
1558441776625520,7,2,2,6,11,5,12,7
1558441776639471,-1,0,6,3,7,6,1,1
1558441776639471,-2,0,-1,3,-7,-3,-3,-2
1558441776646457,-3,-3,-8,-10,-6,0,-8,-5
1558441776646457,-3,-3,-5,-4,-10,-19,-7,-4
1558441776661412,1,2,0,3,0,-8,-3,-4
1558441776661412,-1,-1,0,-4,0,4,-1,-2
1558441776668403,-1,0,4,3,-9,-5,0,0
1558441776668403,0,0,-2,-3,11,14,7,2
1558441776676376,-4,-3,-2,-3,-1,-1,-1,1
1558441776676376,-3,0,4,2,1,-18,-2,-1
1558441776685352,1,-2,-6,0,7,8,1,3
1558441776685352,-2,-2,-2,-2,-8,-7,-3,-1
1558441776699314,-1,2,6,4,-2,6,4,2
1558441776699314,-3,-4,-10,-6,1,-5,-12,-5
1558441776706294,-1,-1,2,-1,0,4,4,-1
1558441776706294,1,-2,0,-1,-6,-12,-6,-2
1558441776722253,-1,-1,-1,-1,2,4,1,0
1558441776722253,-1,-1,2,9,-4,2,-1,-1
1558441776728233,0,-1,-2,0,2,-8,-1,1
1558441776728233,-5,-7,2,-3,-3,3,-6,-5
1558441776744193,-3,0,-2,1,3,11,5,3
1558441776744193,-2,-4,-8,-4,-2,-4,-1,-1
1558441776752169,-1,0,-4,-10,-3,0,-4,-2
1558441776752169,-2,1,0,-2,-1,5,-1,0
1558441776759158,2,1,5,2,4,-16,-2,2
1558441776759158,-1,0,-4,-3,-7,-3,-5,-5
1558441776766136,-3,-5,-5,-3,-13,0,-7,-5
1558441776766136,4,4,3,3,21,19,19,9
1558441776782093,1,0,2,-1,4,1,5,1
1558441776782093,0,-1,2,-3,-5,2,-2,0
1558441776806025,-2,-1,-3,-1,0,-4,0,-3
1558441776806025,-4,-1,-7,-5,-11,-9,-11,-7
1558441776806025,0,-1,4,0,5,8,6,0
1558441776806025,3,3,-2,1,8,15,14,5
1558441776808020,-1,0,-1,0,-4,-4,-5,-1
1558441776808020,-1,-1,-4,-4,-8,-8,-6,-1
1558441776818991,-2,-4,-6,-6,-9,-11,-7,-4
1558441776818991,-1,-1,0,-1,4,8,-4,-4
1558441776825972,-2,-2,-2,-1,1,13,4,2
1558441776825972,-1,-3,3,1,-7,-22,-5,-2
1558441776841938,3,3,3,4,7,-1,7,3
1558441776841938,-3,-4,-4,-7,-2,4,-5,-1
1558441776848913,3,2,4,5,5,18,4,2
1558441776848913,-4,-3,-6,-7,-12,-18,-9,-3
1558441776872853,-3,-4,-6,-2,-11,-2,-6,-5
1558441776872853,1,-1,-1,1,4,-1,3,2
1558441776873848,0,1,1,1,5,1,2,1
1558441776873848,1,-1,4,1,9,13,3,-1
1558441776887808,-5,-5,-3,-6,-11,-8,-6,-5
1558441776887808,-3,-2,-2,1,-2,-1,-1,-2
1558441776888805,1,1,2,-3,-1,-15,1,2
1558441776888805,-1,-2,-1,3,-1,4,2,-1
1558441776901772,-2,-1,-1,2,3,1,-10,-3
1558441776901772,0,2,-3,-7,-2,1,3,2
1558441776908751,-5,-7,-6,-3,-11,-12,-5,-6
1558441776908751,0,3,0,-1,4,-6,-1,1
1558441776924710,3,0,4,4,2,4,2,3
1558441776924710,1,1,4,4,4,6,7,5
1558441776926703,0,2,-1,-5,3,0,2,1
1558441776926703,-3,-7,-7,-9,-10,-1,-8,-7
1558441776947652,-1,-3,-4,-3,-6,-2,-5,-3
1558441776947652,1,2,3,6,2,-5,0,0
1558441776948645,-2,-1,6,-3,-11,-8,-7,-4
1558441776948645,-4,-2,-7,0,-1,6,5,-2
1558441776961613,-1,0,-6,-7,4,5,-3,1
1558441776961613,1,0,3,-3,-1,8,4,2
1558441776968591,-2,-1,-4,-5,-4,-17,-5,0
1558441776968591,-1,0,-1,2,-5,1,-8,-3
1558441776984553,-2,0,-1,1,11,2,-2,-1
1558441776984553,-4,-3,-2,6,-2,-1,0,-5
1558441776986543,-3,-5,-2,-13,-5,1,0,-4
1558441776986543,2,2,6,1,-1,-6,-3,-1
1558441776999508,-2,-2,-7,2,-6,-6,3,-1
1558441776999508,-1,-1,3,0,0,4,-3,-2
1558441777006490,-3,1,-2,5,2,5,-3,-2
1558441777006490,-1,-5,-1,0,2,-1,3,1
1558441777021450,0,1,-1,-2,1,-6,1,1
1558441777021450,-4,-3,1,-6,-11,-13,-14,-5
1558441777028431,0,-1,-10,-3,-2,1,-3,-1
1558441777028431,-2,-1,4,5,5,-2,2,2
1558441777044388,-1,0,-3,-12,3,6,9,4
1558441777044388,-4,-2,0,-2,0,-9,-6,-2
1558441777052366,0,-2,-2,4,-2,3,-1,-2
1558441777052366,-2,-5,-5,-4,-5,0,-6,-4
1558441777059348,-4,-3,4,0,-6,3,-2,-8
1558441777059348,1,-1,-3,-4,-13,-23,-9,-3
1558441777066334,1,0,2,5,11,7,4,2
1558441777066334,3,3,8,3,10,3,11,4
1558441777081289,-2,-2,-1,0,-4,0,-3,-2
1558441777081289,-2,-4,-6,-8,-4,-6,-3,-2
1558441777088273,-3,1,0,-1,-4,-4,-1,0
1558441777088273,-1,1,0,4,-2,2,-1,-2
1558441777105226,0,-1,1,1,3,0,-5,-2
1558441777105226,-2,-2,-4,-2,-2,5,-2,-1
1558441777106226,0,1,3,0,-1,1,4,2
1558441777106226,0,1,-2,-3,5,-8,3,5
1558441777119188,-1,-2,-3,-3,-3,-4,-3,0
1558441777119188,-2,-4,-7,-6,-10,2,-2,-4
1558441777126172,0,-2,-1,-3,-4,1,-3,-3
1558441777126172,1,2,-2,3,16,3,13,6
1558441777142127,1,1,5,2,0,-4,1,1
1558441777142127,0,0,1,3,0,3,-3,-2
1558441777148112,-2,-4,-2,-2,-8,-5,-9,-3
1558441777148112,2,0,-2,-6,-2,14,1,-4
1558441777172047,2,1,-3,-4,4,2,5,5
1558441777172047,-1,-2,0,4,10,-2,4,3
1558441777174042,-3,-1,-3,-4,-10,-1,-7,-6
1558441777174042,-4,-2,-3,2,0,2,-7,-2
1558441777179033,-1,0,3,-6,-2,7,5,1
1558441777179033,-1,2,3,1,0,-2,1,3
1558441777193989,1,1,0,1,2,-7,3,0
1558441777193989,1,1,0,-5,-7,-1,-8,0
1558441777201967,1,-1,-5,2,-4,-11,-4,-3
1558441777201967,-1,-2,3,2,7,4,8,2
1558441777208948,0,1,-2,3,-5,-5,0,1
1558441777208948,-1,-1,-4,-5,-7,-1,-8,-2
1558441777232884,-2,-1,-1,3,-2,-5,-2,-3
1558441777232884,-1,-3,-11,-9,-8,-14,0,-2
1558441777233881,-1,-2,0,1,0,4,0,-3
1558441777233881,-3,-4,-5,-4,-2,7,4,-2
1558441777238869,-3,-3,-1,0,-4,-16,-4,0
1558441777238869,-1,2,10,10,10,-1,-3,0
1558441777254828,-4,-4,-9,-19,-4,0,-5,-3
1558441777254828,-3,-2,-4,2,-10,-7,-10,-4
1558441777261811,1,0,-9,-9,-1,5,-2,-1
1558441777261811,0,1,3,6,3,2,5,-1
1558441777268789,-2,-1,2,9,5,-9,0,0
1558441777268789,-4,-4,0,-12,-15,-3,-7,-5
1558441777284745,0,4,7,12,14,11,13,5
1558441777284745,-3,-1,-6,-8,-5,-10,-3,-1
1558441777286741,-1,-2,3,-5,-1,8,-1,0
1558441777286741,-4,-5,-9,3,-3,-4,0,-4
1558441777307683,-1,-1,3,4,7,-2,-3,2
1558441777307683,2,1,4,-7,0,13,1,0
1558441777308681,0,0,-7,-2,-4,-4,-5,-2
1558441777308681,-2,-1,4,8,-7,-12,-5,-3
1558441777321647,-1,-4,-5,-12,-13,-10,-7,-5
1558441777321647,2,4,6,16,16,15,8,2
1558441777328631,-2,-3,-5,-15,-5,-1,-4,-1
1558441777328631,-3,-3,-1,3,-1,2,-1,-2
1558441777344585,-4,-4,-9,-2,-4,-5,-4,-3
1558441777344585,0,-2,-3,-3,-3,-5,-3,-2
1558441777346588,1,2,3,7,7,5,7,1
1558441777346588,1,-1,3,-3,8,-4,-4,2
1558441777374510,-1,1,0,7,0,10,5,2
1558441777374510,-3,-4,-9,-8,-12,-1,-9,-5
1558441777376499,1,0,6,2,4,-4,-2,0
1558441777376499,4,5,-3,-3,0,-7,4,2
1558441777381486,-3,-4,-11,-6,-1,-1,-6,-4
1558441777381486,-1,1,0,0,-5,-4,-4,-2
1558441777388469,-3,0,7,-1,5,8,-3,0
1558441777388469,0,1,0,1,-5,-10,-2,0
1558441777405445,0,-1,6,11,1,3,-2,-4
1558441777405445,0,-3,-10,-18,-9,-8,2,1
1558441777406421,2,2,4,8,11,1,5,7
1558441777406421,-2,-2,-3,-3,0,3,-1,1
1558441777418398,-2,0,0,-9,-11,-4,-11,-8
1558441777418398,-1,-1,-4,5,-2,14,0,-2
