timestamp,emg1,emg2,emg3,emg4,emg5,emg6,emg7,emg8
1558441743147723,3,1,4,-3,4,3,5,1
1558441743147723,1,-2,-2,-4,0,-8,-5,-4
1558441743149720,-1,-2,-7,-4,-5,-1,-4,-2
1558441743149720,-1,-1,5,2,0,3,1,0
1558441743150738,-1,0,-2,7,4,-7,-2,0
1558441743150738,1,1,0,-5,-1,-5,2,1
1558441743151713,1,-1,2,3,4,-2,-3,-1
1558441743151713,-3,-2,1,-1,-6,0,-2,-2
1558441743176645,-1,0,-4,2,-4,-4,-6,-2
1558441743176645,-3,-2,-4,-3,-2,4,3,0
1558441743177644,0,-1,2,6,2,-3,1,-5
1558441743177644,0,-1,-6,-2,-3,2,0,-2
1558441743179638,1,0,5,5,4,0,0,-2
1558441743179638,-1,-1,-5,-5,-5,-2,-7,-2
1558441743189612,-6,-5,-9,-14,-7,2,-1,-1
1558441743189612,2,0,-1,-2,11,8,4,2
1558441743201579,-2,-3,-1,1,-1,-9,2,-1
1558441743201579,0,0,-2,1,0,1,3,2
1558441743204571,-4,-1,1,-2,-10,-5,-4,-3
1558441743204571,-3,-2,-3,-2,-1,-3,-9,-3
1558441743223521,-4,-1,-3,-6,-4,2,1,2
1558441743223521,0,1,7,4,0,5,-4,-1
1558441743236485,4,1,2,4,5,-3,5,4
1558441743236485,-1,-2,-9,-15,-6,-7,-4,-1
1558441743237482,0,-1,1,2,-2,4,0,-2
1558441743237482,-4,-3,0,1,-4,-4,-6,-4
1558441743250448,1,4,0,-1,5,2,5,5
1558441743250448,-1,-2,5,7,-1,-8,-5,-2
1558441743259425,0,-2,-4,-4,-2,0,-3,-3
1558441743259425,-3,-2,0,-2,-2,7,-1,-3
1558441743297323,1,1,0,1,2,1,0,1
1558441743297323,1,-1,4,4,-5,-13,2,2
1558441743298321,0,-4,-7,-13,-10,-8,-4,-1
1558441743298321,3,0,1,2,8,12,10,4
1558441743298321,-3,-5,-3,-1,-3,-8,-7,-5
1558441743298321,-2,-2,-5,-2,1,6,2,-3
1558441743302310,-2,0,0,1,-1,3,-2,-3
1558441743302310,-1,0,2,-4,-6,-11,-4,0
1558441743309291,1,1,0,4,10,-2,2,3
1558441743309291,-4,-3,-1,2,-2,-2,2,-3
1558441743318267,-3,0,4,5,-4,-6,0,-3
1558441743318267,0,0,-7,-12,-1,3,-3,-4
1558441743324251,-1,-1,4,3,-1,6,1,-2
1558441743324251,-1,-3,-8,-6,-3,2,-4,-4
1558441743341206,1,1,0,-6,0,-1,3,2
1558441743341206,-3,-4,3,3,-1,-2,1,-1
1558441743347191,-1,1,-2,-2,-7,-2,-4,-3
1558441743347191,-1,0,1,1,8,8,6,2
1558441743356168,1,0,0,0,5,0,3,1
1558441743356168,-4,-1,-2,0,-12,-7,-2,-2
1558441743370128,0,-2,-2,-6,-1,4,0,-1
1558441743370128,-2,1,-2,-1,-5,-6,-7,-2
1558441743394063,1,0,-3,3,5,7,1,1
1558441743394063,-2,-6,-4,-6,0,-10,-6,-3
1558441743395061,0,0,2,0,-5,-7,3,2
1558441743395061,1,0,0,-1,-4,-4,-6,-1
1558441743401045,0,2,5,5,6,3,-2,-2
1558441743401045,-4,-1,-9,-3,-7,5,0,-1
1558441743407044,-2,-2,-2,-1,-4,3,4,1
1558441743407044,-1,-1,-2,-4,-2,-6,-6,-1
1558441743416005,-1,-2,-2,0,-1,4,1,0
1558441743416005,0,2,8,5,2,-5,-4,-1
1558441743429967,1,-2,-7,-7,0,-9,-1,1
1558441743429967,-3,-2,6,7,2,6,-2,-2
1558441743438946,-4,-5,-12,-7,-11,-7,-9,-8
1558441743438946,2,3,3,5,11,22,21,5
1558441743451909,-2,-2,-2,-3,-5,-13,-10,-4
1558441743451909,2,-1,1,-1,1,-5,0,2
1558441743460885,2,3,2,8,10,1,3,4
1558441743460885,0,0,5,5,-1,-6,-6,-3
1558441743466870,0,-2,-3,-12,-10,-3,-4,-2
1558441743466870,0,-1,-2,-2,4,16,4,3
1558441743475846,-2,-3,-2,4,-5,-14,-5,-2
1558441743475846,-1,1,1,-6,0,-3,-5,-2
1558441743489809,-1,-2,-4,-4,0,1,1,-1
1558441743489809,-2,-1,-1,0,-7,-9,-4,-1
1558441743498784,0,-1,0,-2,1,5,2,1
1558441743498784,-2,0,-3,-4,-2,-1,-3,-3
1558441743504768,-1,-1,7,8,8,8,1,-2
1558441743504768,0,-1,-13,-17,-12,-12,-4,-3
1558441743520726,-1,-3,4,0,6,2,5,1
1558441743520726,1,0,1,4,-1,-1,-13,-5
1558441743527706,1,0,-1,1,3,8,9,5
1558441743527706,1,3,2,4,6,-1,-1,4
1558441743542666,-3,-1,-1,5,-5,4,3,-4
1558441743542666,1,0,-3,-5,3,-8,0,2
1558441743549648,-4,-2,4,1,-10,-4,-11,-7
1558441743549648,-2,-2,-1,3,2,6,4,0
1558441743567600,0,0,-2,-5,-7,-2,-4,-2
1558441743567600,1,-3,1,10,2,-4,0,0
1558441743568599,0,1,0,-2,3,4,4,0
1558441743568599,-2,-4,-4,0,-5,-9,-6,-4
1558441743589544,-6,-5,-1,-5,-7,-7,-14,-8
1558441743589544,-3,-4,-8,-9,-13,-1,-1,-3
1558441743589544,-2,0,-1,2,1,-1,4,1
1558441743589544,3,3,5,6,15,3,9,5
1558441743602506,2,0,2,0,4,4,1,1
1558441743602506,0,-1,-5,-11,-1,4,-6,-3
1558441743609489,-2,-2,1,-5,-6,0,-3,-3
1558441743609489,0,2,1,-2,-1,-10,-1,0
1558441743618465,-3,-1,0,1,-5,-6,-1,-1
1558441743618465,1,-4,1,3,-3,3,2,-1
1558441743624448,-4,-2,-3,2,-1,-3,-11,-6
1558441743624448,1,-2,1,-1,8,19,10,-2
1558441743641402,-1,2,-3,-7,-5,-5,-2,1
1558441743641402,-1,1,-3,5,3,4,-1,-1
1558441743647386,2,2,-5,-5,2,-1,1,2
1558441743647386,-2,1,2,3,-5,-12,0,-1
1558441743663344,-2,-4,-2,-10,-9,-3,-5,-2
1558441743663344,-3,-5,-7,-1,2,-2,0,2
1558441743669327,1,-1,3,6,7,-2,0,2
1558441743669327,0,0,-5,-6,0,8,3,0
1558441743678304,1,2,1,2,0,2,-3,-3
1558441743678304,-2,-1,4,-4,-7,-3,-4,-1
1558441743684288,-1,-6,-4,-2,-5,-7,-2,-2
1558441743684288,-1,-2,-8,-6,-5,-8,-7,-4
1558441743701244,-4,-1,-3,-3,-2,-13,1,1
1558441743701244,-4,-2,0,-2,1,-1,-2,-2
1558441743707227,-3,1,-4,0,-7,5,-3,-1
1558441743707227,-4,-1,2,0,-2,9,-3,-2
1558441743722186,-1,-1,-1,2,2,-7,4,1
1558441743722186,3,5,2,2,8,0,2,1
1558441743738144,-1,-1,4,0,5,9,5,-1
1558441743738144,-4,-7,-7,-14,-16,-16,-11,-5
1558441743740139,-2,-2,-3,1,-4,0,-4,-2
1558441743740139,0,-1,-1,3,8,4,8,4
1558441743745125,1,2,-1,2,4,-11,0,-3
1558441743745125,-1,-5,1,-3,-5,0,-4,-1
1558441743761082,-3,-1,-1,-3,-2,4,-1,-2
1558441743761082,-2,-2,-1,-4,-7,-5,-3,-2
1558441743767067,-1,-4,-1,-7,-8,-3,-4,-3
1558441743767067,1,2,8,5,3,-2,7,3
1558441743782027,0,-3,-5,-1,6,-2,3,1
1558441743782027,0,-1,1,1,3,-2,-4,3
1558441743790006,0,2,-2,0,2,14,8,0
1558441743790006,-2,1,-1,3,-8,0,-7,-5
1558441743798982,0,0,1,-1,5,5,-2,0
1558441743798982,-1,0,-2,-2,-8,-13,-4,-5
1558441743804964,-1,0,-5,-7,-1,1,-2,1
1558441743804964,-2,-2,3,10,-1,-18,-6,-2
1558441743820922,0,1,8,7,15,15,12,3
1558441743820922,-3,-1,-6,-6,-10,-6,-4,-2
1558441743826906,0,-2,-4,-3,-1,-6,-5,-1
1558441743826906,-1,-2,0,3,1,7,0,-2
1558441743841868,1,-1,-3,-3,-4,-7,-9,-4
1558441743841868,-2,-3,5,1,-7,1,0,-4
1558441743849845,-2,1,-1,0,-2,-12,-1,-1
1558441743849845,-1,0,5,-2,12,15,12,4
1558441743864807,-4,-3,-5,-1,-2,-2,0,-3
1558441743864807,-3,-1,-2,-6,-1,8,-1,-2
1558441743871788,0,-1,-5,3,-2,5,-3,-1
1558441743871788,-3,-2,-7,-9,-7,-4,-4,-3
1558441743880764,-1,2,1,4,-9,-19,-7,-3
1558441743880764,-2,-2,-4,-7,-1,4,11,0
1558441743886748,-2,-1,5,7,8,5,0,-1
1558441743886748,-3,0,1,-1,0,7,-2,-2
1558441743902704,0,-1,-5,-6,-10,-12,-3,0
1558441743902704,2,1,-1,7,10,1,4,1
1558441743909685,-1,-4,1,-1,-3,-4,-1,1
1558441743909685,-1,-2,-4,-4,3,2,-1,-2
1558441743918662,-2,-4,-6,-11,-15,-4,-10,-6
1558441743918662,0,2,13,13,11,0,1,0
1558441743932627,2,1,-4,-10,6,-1,9,5
1558441743932627,-1,-1,-1,6,2,-1,-4,-2
1558441743941599,-3,-2,0,-1,-10,5,-8,-4
1558441743941599,2,-1,-7,-4,-4,-6,-8,0
1558441743955565,0,0,1,4,10,15,8,-1
1558441743955565,0,1,-2,-8,-6,-14,-3,-1
1558441743962544,1,0,-4,-9,7,5,6,2
1558441743962544,-3,-4,2,4,-10,-4,-6,-4
1558441743969525,-3,-1,2,-3,-8,-4,-5,-4
1558441743969525,2,-1,-12,-2,-1,-10,5,2
1558441743978501,-1,1,5,0,7,7,1,3
1558441743978501,-2,-3,-3,-5,-3,1,0,-2
1558441743992465,-2,-2,1,0,-7,-5,-5,-2
1558441743992465,-3,-3,-2,-5,-8,4,-6,-3
1558441744009418,1,2,2,7,7,4,8,3
1558441744009418,-5,-6,-11,-11,-6,-13,-5,-3
1558441744010418,-2,0,2,-2,-3,-11,-5,-2
1558441744010418,0,0,4,-1,6,16,9,3
1558441744022383,-3,-3,-1,4,-1,-3,-4,-5
1558441744022383,-2,1,-3,-8,-4,7,-4,-1
1558441744029365,-1,-2,-2,7,0,1,-1,0
1558441744029365,-2,-2,-6,-14,-7,-8,-6,-2
1558441744038341,-1,0,0,-1,4,4,0,-2
1558441744038341,1,1,6,8,9,3,-1,2
1558441744052310,-1,0,-1,-4,-1,-7,0,1
1558441744052310,-1,-1,3,3,1,0,-9,2
1558441744068265,-1,0,0,-5,-7,-4,7,1
1558441744068265,0,1,2,5,3,-1,1,0
1558441744068265,-2,0,-3,-11,-2,6,0,2
1558441744068265,0,-2,3,6,-6,-7,-1,0
1558441744082226,1,1,5,4,4,5,3,-1
1558441744082226,-3,-5,-12,-9,-10,-7,-8,-3
1558441744090207,-1,-1,-4,-9,-2,4,2,-2
1558441744090207,2,3,2,6,1,3,3,-2
1558441744098182,-2,-4,1,-2,1,-1,0,-2
1558441744098182,-2,0,5,3,1,-5,1,-1
1558441744112144,-3,-1,-6,-2,2,8,0,-1
1558441744112144,0,0,-7,-5,-7,-10,-6,-3
1558441744121120,0,-2,0,2,-1,1,-5,-2
1558441744121120,2,-1,-1,-5,-1,-10,2,0
1558441744127104,-2,-2,-1,8,1,0,3,0
1558441744127104,0,-1,-6,-14,3,9,2,-1
1558441744142064,-2,-3,-1,5,-4,2,-3,-2
1558441744142064,-2,0,2,0,2,6,-4,0
1558441744150043,-1,-1,5,1,0,-11,1,0
1558441744150043,-2,-4,-4,4,-3,-4,3,-1
1558441744159021,-2,-3,-5,-17,-9,-9,-10,-2
1558441744159021,-2,-2,-2,-4,-8,-1,-5,-3
1558441744171985,-2,-1,-2,1,-6,-8,-10,-6
1558441744171985,-2,-1,4,-2,7,9,0,0
1558441744180961,0,1,-6,-3,3,-1,2,4
1558441744180961,0,2,3,2,0,-11,4,1
1558441744195920,-1,-2,-1,-5,-8,-6,-12,-5
1558441744195920,-3,-3,-1,0,-4,5,-2,-4
1558441744201904,2,2,-3,0,11,3,4,5
1558441744201904,0,0,-4,-1,0,5,6,1
1558441744209985,-1,2,6,4,-1,4,2,-2
1558441744209985,-1,-2,-2,0,-4,-14,-6,-4
1558441744218860,-3,-4,0,1,7,5,2,-2
1558441744218860,-2,-1,-2,-3,-2,-5,-5,-1
1558441744231824,-2,-3,0,-5,-4,-1,1,0
1558441744231824,-1,-3,-1,-4,-10,-4,-4,-2
1558441744240845,-1,1,-1,5,-3,-6,-4,-1
1558441744240845,0,1,-1,-1,7,5,8,3
1558441744246819,0,0,-1,2,2,0,2,0
1558441744246819,0,2,-3,-3,1,0,-3,-2
1558441744261775,-1,-2,3,3,-3,3,-2,-2
1558441744261775,-3,-2,2,-2,-3,-11,2,1
1558441744269752,-3,-2,1,7,1,-1,-1,-3
1558441744269752,1,2,1,-6,7,-2,4,4
1558441744284682,-1,1,-6,-9,0,5,5,3
1558441744284682,-2,0,-5,3,1,6,-2,-1
1558441744292660,1,0,6,-3,-2,-3,2,-1
1558441744292660,-5,-9,-3,0,-8,-5,-2,-3
1558441744307620,-2,-1,-1,-2,-2,2,-2,-2
1558441744307620,2,-1,-3,0,1,9,-3,-3
1558441744308618,-1,-2,-5,2,3,1,-1,3
1558441744308618,0,1,9,4,3,7,2,1
1558441744323580,0,0,-4,-5,-2,1,-2,-2
1558441744323580,-3,-3,0,3,-12,-11,-14,-6
1558441744329562,0,2,1,-5,-1,-13,-3,1
1558441744329562,1,4,0,2,7,-4,5,4
1558441744346517,-2,-2,-5,-4,-6,-7,-3,-2
1558441744346517,-1,0,5,9,2,-3,-2,0
1558441744352517,-2,-2,0,-2,3,8,7,1
1558441744352517,2,1,-4,-2,-5,-6,-6,1
1558441744368474,0,-4,1,5,0,0,0,-3
1558441744368474,-2,-1,-1,-1,-7,-3,-7,-3
1558441744368474,2,0,-3,-5,-4,3,-4,-1
1558441744368474,-3,-3,6,13,5,3,3,2
1558441744383419,4,3,4,5,10,1,9,5
1558441744383419,0,0,-2,-6,-2,-2,-4,-1
1558441744390435,-3,-4,-9,0,-2,-4,-3,-4
1558441744390435,-3,-2,-2,-7,-8,-1,-10,-6
1558441744404716,1,-1,-4,-3,1,9,2,-3
1558441744404716,-1,-2,5,5,-4,-2,-3,-1
1558441744412873,3,4,5,2,6,-3,6,6
1558441744412873,-3,-2,-6,10,5,8,0,-4
1558441744427657,2,1,10,3,3,-9,-5,1
1558441744427657,-1,0,-3,-5,1,-4,0,-3
1558441744428658,-1,-1,-3,-2,-7,2,-6,-5
1558441744428658,-1,-2,-6,-6,-9,-9,1,-3
1558441744443612,-1,0,1,2,4,9,5,1
1558441744443612,1,1,-3,-1,11,11,6,0
1558441744457761,-2,-2,-3,-5,-5,3,-6,-4
1558441744457761,2,2,-1,1,3,2,3,2
1558441744464772,-6,-7,-5,-5,-18,-26,-8,-7
1558441744464772,-2,-1,2,-3,1,11,-3,-1
1558441744472719,-1,-1,-1,0,1,1,2,0
1558441744472719,2,3,5,7,10,13,5,1
1558441744488492,-2,2,3,10,10,3,-1,-1
1558441744488492,-2,-2,-5,-11,-6,-11,-1,2
1558441744488492,-1,0,-1,6,4,1,8,5
1558441744488492,-2,-3,-5,-7,-5,-9,-2,-1
1558441744503451,1,-1,0,-1,-7,-5,-5,-2
1558441744503451,2,2,4,1,6,12,2,-1
1558441744517412,-4,-6,-18,-10,-18,-22,-8,-3
1558441744517412,0,1,6,-10,6,4,3,3
1558441744524392,0,3,-6,-8,-3,5,-3,2
1558441744524392,-4,-7,-10,-1,-12,0,-5,-5
1558441744532372,-1,0,-1,-2,-3,-5,0,-1
1558441744532372,-1,-2,1,1,-3,-10,-4,-5
1558441744548330,-2,3,7,-8,-1,3,5,2
1558441744548330,0,1,0,3,11,6,10,1
1558441744548330,-5,-9,-17,-5,-5,0,-6,-4
1558441744548330,-1,-1,-4,1,3,4,3,2
1558441744572265,-1,2,10,5,-6,-6,-6,-5
1558441744572265,-1,-3,-9,-4,-11,-14,-3,0
1558441744572265,5,3,7,4,14,18,7,-3
1558441744572265,-3,-7,-15,-4,-7,-7,-3,-2
1558441744585408,-1,-3,-5,-4,-3,0,0,0
1558441744585408,0,0,-4,-7,3,8,0,0
1558441744592240,-1,2,8,7,2,-5,-1,-1
1558441744592240,-2,-2,-4,-5,-9,-6,-7,-3
1558441744608451,-1,0,1,7,7,5,2,1
1558441744608451,-1,-3,-1,-6,-8,0,0,-2
1558441744624301,1,-1,1,-2,3,-1,-1,-1
1558441744624301,2,3,7,6,4,-2,-1,0
1558441744625125,-2,-5,-7,-10,-1,0,-3,-1
1558441744625125,-3,0,-5,-2,0,0,-6,-1
1558441744630404,-2,1,3,-2,-1,2,0,2
1558441744630404,-3,-1,-2,0,-6,-3,-7,-2
1558441744645296,-2,0,-1,1,-4,-11,-7,-6
1558441744645296,-1,-3,-1,-4,4,2,9,2
1558441744652246,-1,-2,-1,-3,-7,-7,-6,-5
1558441744652246,-2,-2,1,1,-1,8,-5,-3
1558441744683990,0,-2,-7,2,-2,-2,7,1
1558441744683990,-2,0,4,0,4,2,8,0
1558441744684967,3,1,3,2,2,-2,-3,2
1558441744684967,-3,-6,-5,-9,-6,-1,-1,-1
1558441744685962,-6,-3,-4,-3,-4,-7,-7,-3
1558441744685962,-1,-1,-2,-3,-3,-3,-3,0
1558441744689995,0,1,2,0,-6,-4,1,-2
1558441744689995,1,3,5,2,2,-2,0,2
1558441744705116,-3,-3,2,3,-2,1,-4,-1
1558441744705116,0,-2,-6,-2,-7,-13,-7,0
1558441744712942,-4,-2,-2,0,3,-1,-1,0
1558441744712942,0,2,-1,-2,1,5,3,-2
1558441744728992,-4,-6,0,-9,-9,-7,-2,1
1558441744728992,-1,-1,-6,0,-2,0,-3,-2
1558441744734838,-6,-5,-4,-12,-10,-12,-12,-8
1558441744734838,-2,0,-1,7,6,10,11,2
1558441744743850,1,1,1,3,8,4,8,1
1558441744743850,1,1,6,4,0,-10,-2,0
1558441744749791,2,3,-1,-5,-6,-2,-5,1
1558441744749791,-5,-5,0,4,2,4,1,-1
1558441744764750,3,2,-5,-5,2,-9,-3,1
1558441744764750,-3,-4,2,5,-2,-5,-3,-4
1558441744771732,0,-1,-2,3,5,6,2,0
1558441744771732,-1,-1,-2,-1,-8,-4,-4,-3
1558441744786693,-1,2,4,6,-5,-1,-6,-3
1558441744786693,0,-1,-9,-10,5,-9,2,0
1558441744794670,-1,-1,-3,3,3,2,-5,-1
1558441744794670,1,4,-1,-11,-2,3,1,0
1558441744811625,-4,-5,-5,-9,-10,1,-7,-3
1558441744811625,1,1,3,-4,-11,0,-8,-3
1558441744812622,0,-3,0,8,13,5,12,4
1558441744812622,0,-4,-6,-9,-2,-12,-4,0
1558441744824589,1,-1,-6,-5,-3,3,-6,-1
1558441744824589,0,1,7,11,6,0,2,1
1558441744855507,1,0,6,0,2,13,3,3
1558441744855507,0,2,1,4,-1,-2,-1,-3
1558441744865481,2,3,3,-3,-3,-8,-4,-2
1558441744865481,-1,-3,-3,-2,3,2,1,-1
1558441744866478,-1,-3,-9,-9,-9,-9,-9,-2
1558441744866478,-1,-1,-3,-3,2,1,6,3
1558441744870467,-3,-2,-6,-2,-1,9,1,-2
1558441744870467,-1,-3,1,0,5,3,-2,0
1558441744871466,-2,0,8,3,-3,-4,-3,-4
1558441744871466,-3,-1,-9,-10,-2,1,-4,-1
1558441744884430,-3,-7,-7,-1,-2,-7,1,-2
1558441744884430,1,1,-1,5,3,0,0,-2
1558441744892408,-1,-1,-3,-11,-7,1,1,2
1558441744892408,-2,-3,1,0,-12,-10,-13,-8
1558441744924324,1,3,6,4,11,16,5,1
1558441744924324,2,0,-5,-3,3,12,1,-1
1558441744925320,-1,-1,3,-1,-3,-4,0,1
1558441744925320,0,0,6,12,5,-18,3,1
1558441744926318,-3,-1,-5,-3,-3,-15,-2,-2
1558441744926318,-3,-4,0,-14,-6,-2,1,-2
1558441744929310,-3,-2,-6,0,0,11,3,0
1558441744929310,0,-3,-2,1,-6,-8,-4,-2
1558441744953247,2,0,5,3,7,0,1,3
1558441744953247,-2,-2,-4,-1,-10,-6,2,1
1558441744953247,-4,-2,-5,-1,-1,-2,-5,-5
1558441744953247,-3,-4,2,1,1,6,1,-1
1558441744967209,2,-2,-3,-1,-5,0,-2,-1
1558441744967209,1,5,9,7,10,13,6,4
1558441744975187,-1,-6,-1,-7,-6,-5,-1,-3
1558441744975187,0,-3,-8,-4,-4,0,-8,-3
1558441744990181,0,0,-4,-3,-6,1,-1,-2
1558441744990181,1,4,12,12,10,6,3,0
1558441744991145,2,4,-7,-6,3,-14,1,0
1558441744991145,-4,-2,3,-7,-5,5,-11,-6
1558441745013120,-2,-2,-5,-2,-6,-2,-2,-4
1558441745013120,2,0,0,5,1,-8,-1,2
1558441745013120,0,-1,-2,4,8,7,1,1
1558441745013120,2,0,0,-3,-2,5,1,2
1558441745027049,-1,-1,2,11,2,-8,-2,-2
1558441745027049,-6,-2,-7,-18,-18,-12,-11,-7
1558441745035061,-1,0,-6,-5,0,8,-5,1
1558441745035061,-2,-1,-1,-1,-4,-5,3,2
1558441745049990,3,1,-3,4,14,15,8,4
1558441745049990,-3,-5,4,5,-5,-15,-9,-7
1558441745050984,-3,-1,3,2,3,2,3,2
1558441745050984,2,1,0,0,4,-12,-1,0
1558441745064946,-4,-2,-1,-6,-8,-4,-2,0
1558441745064946,0,-2,-6,-4,-6,0,-10,-4
1558441745071929,-1,0,2,-1,-10,-11,-8,-4
1558441745071929,1,2,3,6,17,9,12,7
1558441745086923,-2,-1,-5,-5,6,7,2,0
1558441745086923,-3,-5,-7,-5,-4,-2,-4,0
1558441745094901,-3,-4,3,5,-9,-8,-5,-4
1558441745094901,0,0,-5,1,-4,6,-2,-5
1558441745110824,0,1,2,-6,7,-7,-1,1
1558441745110824,1,0,-4,-5,-1,4,3,5
1558441745110824,-4,-1,2,1,-2,6,5,1
1558441745110824,0,-1,0,-1,-4,-8,-2,-1
1558441745125798,-1,-4,-1,-5,-4,0,-4,-2
1558441745125798,1,0,-1,-2,-4,-2,-2,-4
1558441745131769,-1,-1,-6,2,-1,-3,-2,-2
1558441745131769,-1,-1,-1,-6,-2,-4,-3,-3
1558441745146729,1,2,2,3,7,6,4,2
1558441745146729,1,-1,1,0,0,-2,-1,2
1558441745162685,-2,-3,1,3,-4,-5,-5,-3
1558441745162685,-4,-3,-4,-10,-1,5,1,-4
1558441745178642,0,0,-4,2,-1,1,0,1
1558441745178642,-2,-3,-5,-10,-5,-2,-7,-5
1558441745179675,0,-1,-5,-3,3,6,8,1
1558441745179675,0,-1,0,3,-4,-9,-3,-1
1558441745184627,0,1,1,-2,-1,5,-1,1
1558441745184627,-2,-2,-3,4,2,-4,6,2
1558441745192605,1,-1,-4,-4,-4,-7,-7,-4
1558441745192605,0,-1,7,2,0,2,-4,-2
1558441745207600,-1,-1,-2,1,-6,1,-5,-3
1558441745207600,-3,1,0,-5,0,2,3,-3
1558441745214586,0,-1,-1,1,3,-8,2,1
1558441745214586,-1,0,-3,3,4,1,5,1
1558441745238483,-3,-2,0,0,-5,1,-4,-3
1558441745238483,-2,-2,0,2,-5,2,-6,-3
1558441745239481,0,0,-2,-5,-3,1,2,-2
1558441745239481,0,1,3,12,11,5,-7,-2
1558441745244467,-1,-3,1,-2,-4,-3,6,0
1558441745244467,-1,0,-1,-1,-2,-10,2,1
1558441745252446,-1,-1,-2,-5,2,-6,-1,0
1558441745252446,-2,-1,-2,-1,-9,1,-4,-3
1558441745267405,-2,-5,-5,-3,-1,-8,-4,-1
1558441745267405,1,-1,-1,1,2,13,-1,-1
1558441745283362,0,1,-3,0,-6,-1,-6,-2
1558441745283362,-2,-2,2,-6,5,0,3,2
1558441745290343,-2,-1,1,-1,-2,-15,-1,0
1558441745290343,0,0,-4,-9,-1,1,2,0
1558441745291341,-3,-1,4,9,13,10,3,1
1558441745291341,-2,-1,-4,0,-9,-4,-8,-3
1558441745304345,-1,-4,-7,-3,-4,-7,2,-3
1558441745304345,-1,0,0,4,5,2,0,-2
1558441745312285,0,0,-1,-2,-8,-3,-6,-2
1558441745312285,0,1,-2,-4,-6,-2,0,1
1558441745327245,-1,-1,-1,3,8,0,-1,1
1558441745327245,-4,-4,11,13,2,3,3,-2
1558441745351182,1,-2,-6,-5,-3,-3,-2,-1
1558441745351182,-1,0,0,-4,-8,-9,-8,-2
1558441745353176,-1,-1,1,4,-1,-9,2,2
1558441745353176,-1,0,-2,-1,-5,-5,-4,0
1558441745354173,-1,-1,4,5,11,16,8,3
1558441745354173,0,0,1,0,0,-12,6,3
1558441745364147,-2,-2,-1,-1,-4,2,-6,-6
1558441745364147,-2,-1,-4,-3,-3,4,1,-1
1558441745372126,0,-1,-5,-5,-6,-14,-1,-1
1558441745372126,1,1,2,1,7,9,6,1
1558441745388115,-1,0,3,0,-2,3,-2,-4
1558441745388115,-6,-5,-3,0,-7,-6,-5,-6
1558441745395065,-1,-1,-2,-7,-8,0,-4,0
1558441745395065,2,0,-2,4,6,-6,2,4
1558441745410085,1,-1,1,-3,0,3,-1,2
1558441745410085,1,-2,0,-2,0,2,0,0
1558441745411021,-4,-3,3,4,-3,-5,-2,-4
1558441745411021,-6,-9,-16,-14,-11,-7,-9,-4
1558441745424983,3,2,3,6,5,5,6,3
1558441745424983,-1,1,-3,-2,4,-4,2,1
1558441745439978,0,2,6,6,3,2,-2,-2
1558441745439978,0,0,-10,-4,-2,1,-4,-5
1558441745446926,-4,-1,-3,-4,-5,-1,0,-2
1558441745446926,1,0,0,-1,1,-5,1,1
1558441745462883,-1,0,0,-1,4,6,-1,0
1558441745462883,-2,-1,6,3,-1,-3,0,-1
1558441745470861,-3,0,-3,-8,-9,-3,-10,-5
1558441745470861,-2,-1,-5,-2,-3,1,-3,-4
1558441745470861,-1,0,-1,2,-2,-4,-2,-2
1558441745470861,0,-1,-1,-6,1,-3,2,1
1558441745484823,2,1,2,1,8,2,8,3
1558441745484823,-3,-1,-2,3,-6,-12,-7,-2
1558441745491842,-2,-4,-10,-16,-13,0,-2,-1
1558441745491842,-2,0,1,2,0,5,0,-1
1558441745506766,-1,0,-4,-3,-1,2,-2,-2
1558441745506766,1,1,2,-1,7,8,-3,0
1558441745514753,1,0,1,4,3,3,3,1
1558441745514753,2,1,4,7,2,-4,2,1
1558441745530701,-2,-3,-1,-2,-8,-1,-2,-3
1558441745530701,4,5,7,6,14,8,14,5
1558441745530701,-3,-3,-2,4,0,2,-3,-3
1558441745530701,-3,-2,-2,-3,-5,-5,-3,-2
1558441745544664,-1,-2,-5,-14,-13,-11,-10,-2
1558441745544664,-1,-1,1,-1,-1,-4,2,1
1558441745551644,0,-4,-9,-1,-4,-11,-1,-1
1558441745551644,-1,1,3,5,2,7,1,-1
1558441745567602,-1,-3,0,1,-5,-11,-7,-2
1558441745567602,2,-1,3,-4,-2,5,-1,0
1558441745574585,-2,-3,-1,-1,0,1,0,-3
1558441745574585,-2,-1,-3,-2,-6,0,-6,-2
1558441745590541,-2,-2,-5,-2,2,3,2,0
1558441745590541,-1,0,-5,1,-3,-6,-3,1
1558441745590541,0,1,3,-10,-2,-4,-3,0
1558441745590541,-2,-2,-3,-6,-3,2,0,-2
1558441745604504,-1,1,4,7,2,5,2,2
1558441745604504,-2,-6,-15,-14,-9,-3,0,-1
1558441745612483,-1,2,2,5,6,-1,-4,-2
1558441745612483,-2,-3,-2,-2,3,5,4,1
1558441745628440,-1,0,0,1,0,-13,-2,-3
1558441745628440,-3,-2,-6,-9,-7,1,-9,-7
1558441745643515,-3,-5,0,0,-5,-7,-1,-1
1558441745643515,0,-4,-7,-9,-5,-6,-4,-2
1558441745650381,1,2,-1,-1,5,5,3,1
1558441745650381,1,0,5,11,2,-5,-6,1
1558441745651378,2,1,-2,-16,-1,4,5,2
1558441745651378,-2,-3,-2,2,-6,-4,-8,-4
1558441745664693,-2,-2,-3,-6,-2,5,1,-4
1558441745664693,-2,-4,-4,-2,-5,-7,-2,-4
1558441745672673,0,1,-1,1,4,13,2,1
1558441745672673,-1,0,0,4,-2,-8,-4,-3
1558441745687632,-2,-2,1,3,4,-2,-6,-1
1558441745687632,-2,-1,-2,-7,-6,-1,1,-4
1558441745695653,-3,-5,-1,7,-3,-4,-2,-1
1558441745695653,0,1,-4,-7,-1,-3,0,0
1558441745710690,-1,1,4,7,3,-1,-1,0
1558441745710690,2,1,3,-4,-1,0,-2,-2
1558441745712115,-1,-1,-1,0,-2,0,-1,-1
1558441745712115,-1,-3,0,5,0,2,0,0
1558441745725121,-1,-1,-8,-12,-5,-5,-4,0
1558441745725121,0,-1,0,2,0,-5,-1,-1
1558441745732065,0,1,1,2,2,7,2,-2
1558441745732065,-3,-3,-3,-6,-6,0,-2,-3
1558441745747024,-2,-1,2,5,-1,0,2,-1
1558441745747024,-2,-1,-5,-6,-5,-11,0,2
1558441745755040,-1,-2,6,9,5,-10,1,-3
1558441745755040,0,2,2,-5,0,4,1,-1
1558441745770014,-2,-4,-9,-3,0,11,5,0
1558441745770014,-4,-4,-7,-2,-1,3,-1,-3
1558441745777943,-1,1,0,-1,-3,-3,-8,-3
1558441745777943,4,1,2,10,5,0,1,2
1558441745792901,-3,-1,-3,-13,-4,3,8,1
1558441745792901,1,-1,7,11,9,-1,5,2
1558441745793899,-1,1,-1,-8,-3,-6,-2,0
1558441745793899,0,-1,-4,1,9,8,6,2
1558441745806866,-2,-1,-3,-3,-5,-7,-10,-3
1558441745806866,-3,-4,-1,4,-5,5,-1,-2
1558441745814843,-1,2,-6,-9,-6,-5,0,1
1558441745814843,-1,-1,5,3,4,5,7,2
1558441745829804,-2,-3,7,1,0,-2,-5,-1
1558441745829804,-3,-5,-5,-3,2,5,2,-1
1558441745845762,0,1,-2,-2,-3,-18,-5,2
1558441745845762,1,1,-4,-8,-6,-1,-3,0
1558441745847757,-1,-2,0,4,2,-3,0,-4
1558441745847757,3,1,2,1,0,-1,-1,1
1558441745851744,1,-2,-1,-1,2,7,0,0
1558441745851744,-1,1,-4,-2,0,-1,0,-1
1558441745866705,1,-2,1,-3,-7,-5,-5,-1
1558441745866705,-3,1,1,-5,-2,4,2,0
1558441745874684,-1,-5,-7,-5,0,-6,-3,-1
1558441745874684,1,1,3,6,9,4,5,2
1558441745889643,-2,0,-4,2,-6,-7,-5,-4
1558441745889643,-1,1,0,-1,0,4,0,0
1558441745905646,-2,-2,1,2,-2,0,-4,-3
1558441745905646,-2,-2,-1,-7,-13,-7,-9,-5
1558441745912581,0,0,1,4,12,19,10,2
1558441745912581,2,-2,-1,0,2,-13,-4,-1
1558441745913578,0,0,1,2,2,3,1,-1
1558441745913578,-2,-2,-1,-4,-6,-6,2,1
1558441745927541,0,-1,-3,-1,-6,-12,-2,0
1558441745927541,-2,-1,-2,-1,-3,2,-5,-4
1558441745934522,-2,-3,-1,4,-6,-3,-4,-2
1558441745934522,1,2,-1,-6,5,12,4,1
1558441745949485,0,0,0,-3,1,-2,2,2
1558441745949485,0,0,7,2,9,-3,7,2
1558441745957463,-3,-4,-5,-2,-7,-5,-7,-3
1558441745957463,-1,0,-1,1,-3,-7,1,-3
1558441745973419,-1,-2,-5,-6,-9,-10,-9,-5
1558441745973419,-2,-2,-6,-2,-10,0,-4,-1
1558441745973419,-1,-1,-1,-2,6,8,3,2
1558441745973419,0,-1,2,10,2,-7,-2,1
1558441745987381,1,2,-1,-8,5,8,11,4
1558441745987381,0,1,8,2,6,0,2,-1
1558441745994363,1,1,4,12,-3,-4,-5,-3
1558441745994363,-6,-6,-17,-12,-5,4,0,-5
1558441746009323,-4,-5,-3,-3,-14,-2,-10,-6
1558441746009323,0,2,-3,-1,3,13,1,-1
1558441746018299,1,1,1,3,7,-4,11,4
1558441746018299,1,0,6,-3,-1,-14,-4,2
1558441746033260,0,2,0,5,1,5,1,0
1558441746033260,-3,-3,0,2,0,5,-2,-2
1558441746033260,-2,-3,-10,-22,-9,-2,-2,-3
1558441746033260,-4,-3,2,0,-4,-4,-7,-6
1558441746055387,-2,-3,-5,-1,-4,-2,-4,-3
1558441746055387,2,-2,-3,0,1,-3,-6,1
1558441746056203,1,0,1,1,-4,-2,4,3
1558441746056203,2,1,3,3,14,-2,14,8
1558441746071319,2,2,3,5,3,3,4,-1
1558441746071319,1,-1,-4,-6,-3,-3,-7,-2
1558441746078636,-2,0,8,6,2,-4,3,-2
1558441746078636,-2,-1,-5,-2,-6,5,-8,-5
1558441746093416,-1,-2,2,-6,-2,-2,-4,-2
1558441746093416,-3,-5,-14,-8,-6,-6,3,-2
1558441746093416,-1,-3,-1,-8,-6,-13,-13,-4
1558441746093416,3,4,8,10,8,5,7,4
1558441746108060,2,1,-6,0,6,3,2,2
1558441746108060,-3,-1,1,1,2,6,-3,-4
1558441746115046,-4,-1,-1,0,-5,6,-1,-1
1558441746115046,-4,-5,-2,-2,-5,2,-7,-4
1558441746130271,0,0,2,0,0,-7,4,1
1558441746130271,2,1,-3,-2,-2,-1,3,3
1558441746138012,-3,1,4,5,10,11,10,1
1558441746138012,-4,-3,-3,-4,-6,-2,-5,-3
1558441746152975,-4,-3,-1,10,-5,-11,-8,-5
1558441746152975,-1,-4,-4,-19,-7,-1,3,1
1558441746153940,2,1,2,3,7,1,2,3
1558441746153940,-1,-1,-1,-3,-2,6,-1,-1
1558441746166932,-3,-5,-5,-5,-3,4,-7,-3
1558441746166932,-1,-1,1,5,-2,-9,0,0
1558441746182860,-1,0,-4,4,4,10,2,0
1558441746182860,0,0,0,-5,-1,0,-2,-2
1558441746189840,0,-3,1,4,4,-1,-3,-2
1558441746189840,-2,1,-2,-3,-7,-5,-5,-2
1558441746198284,-3,-3,-6,-6,-7,-1,-2,-6
1558441746198284,-1,1,3,3,4,3,7,2
1558441746212844,2,1,3,-5,-1,1,-3,-1
1558441746212844,-1,0,0,7,10,1,10,3
1558441746213836,-1,-3,-4,-5,-7,-14,-4,-1
1558441746213836,0,-3,1,-2,0,-1,-8,-3
1558441746228114,-4,-3,-7,-1,-6,-4,0,-2
1558441746228114,0,0,2,-11,-14,-7,-7,-2
1558441746235158,3,2,1,3,13,10,6,3
1558441746235158,-1,1,-1,6,6,3,4,3
1558441746249688,-1,-3,1,-6,-8,-10,-8,-2
1558441746249688,0,-1,-6,-2,-1,2,0,0
1558441746257863,1,0,1,12,5,7,7,4
1558441746257863,-1,-4,-9,-17,-7,-4,-1,-2
1558441746273688,-1,0,2,4,5,3,5,1
1558441746273688,-2,-2,-2,1,-3,-1,-4,-5
1558441746273688,-5,-5,-7,-11,-14,-10,-11,-7
1558441746273688,-3,0,3,5,2,-1,-2,-5
1558441746287903,-2,1,1,-2,-5,-16,-3,-2
1558441746287903,1,1,5,4,1,-9,1,1
1558441746294901,0,1,-8,-2,13,14,1,-1
1558441746294901,0,-1,3,0,4,13,-3,0
1558441746309819,-2,-4,-10,-12,-9,-6,-2,-2
1558441746309819,-2,1,3,3,-2,-14,-5,0
1558441746317706,0,-1,-4,-11,-5,-14,-2,2
1558441746317706,-1,-2,-4,-3,-7,-8,-6,-3
1558441746332464,-1,-3,2,6,4,17,5,0
1558441746332464,1,1,-2,-2,4,10,2,-1
1558441746333463,-3,-3,-2,0,-5,-2,-2,0
1558441746333463,1,-1,-1,-2,-6,-7,0,1
1558441746356395,-4,-2,2,6,4,1,-3,-1
1558441746356395,-1,1,0,2,0,1,0,-2
1558441746363522,-3,-1,5,-2,-6,-6,-6,-5
1558441746363522,1,-1,-4,-4,0,-13,-1,0
1558441746369395,2,4,1,8,8,13,6,3
1558441746369395,-1,0,-1,0,5,11,-2,-2
1558441746385343,0,-2,-5,-7,-14,-4,-4,-2
1558441746385343,-1,-4,0,4,-6,-8,-9,-3
1558441746392331,1,0,-2,-10,-3,-3,-2,-1
1558441746392331,-3,-3,-5,2,-6,-8,-6,-3
1558441746393297,4,3,4,7,11,19,12,3
1558441746393297,-2,-1,-1,-3,-5,1,2,-2
1558441746407259,-2,-2,0,1,-1,-3,-3,-1
1558441746407259,-1,-2,-6,-13,-3,3,6,0
1558441746414243,-2,-1,-1,-4,-7,-16,-11,-2
1558441746414243,-3,-1,2,3,1,-2,-2,-1
1558441746429200,2,2,2,1,6,-2,0,1
1558441746429200,-2,0,-3,3,-1,-1,-1,-3
1558441746437179,-3,-1,0,-2,-2,0,1,-1
1558441746437179,-3,-2,-3,-4,-4,7,0,-5
1558441746461116,-2,-1,-2,-9,-3,6,-2,-2
1558441746461116,-1,-5,-2,1,-13,-24,-6,-2
1558441746461116,-1,1,5,4,6,-4,1,0
1558441746461116,-2,-3,-4,1,-1,-4,1,-2
1558441746467099,0,0,0,2,0,1,-2,-1
1558441746467099,-1,-1,2,5,9,21,4,-1
1558441746475077,-3,-2,-4,-10,-9,-3,-4,-5
1558441746475077,-1,-1,-4,-1,0,-13,-5,1
1558441746490237,-3,1,-3,-3,1,5,8,-2
1558441746490237,-1,0,4,4,7,4,-4,1
1558441746497571,0,-3,-1,-3,-8,-4,-4,-3
1558441746497571,1,1,1,4,7,5,6,6
1558441746513417,2,-2,3,4,0,-11,-4,-1
1558441746513417,-2,4,-2,-7,0,0,3,2
1558441746513417,0,-3,-9,-3,3,-3,-2,-1
1558441746513417,-5,-4,1,-1,-15,-13,-12,-8
1558441746527445,-1,1,-5,-15,-2,-6,-1,1
1558441746527445,-2,-2,3,5,-2,6,-1,-4
1558441746534373,1,1,1,-1,2,-5,1,2
1558441746534373,-3,0,-5,0,4,11,3,-1
1558441746549231,-3,-2,2,5,2,1,1,1
1558441746549231,-2,-3,-6,-4,-4,-8,-5,-1
1558441746557237,-3,0,-1,-3,-4,4,-7,-4
1558441746557237,0,-1,1,-1,-7,-6,5,-1
1558441746574166,2,0,2,0,3,6,2,-1
1558441746574166,0,-1,-5,0,3,7,1,3
1558441746575163,-1,-2,1,5,-2,3,-1,-3
1558441746575163,2,2,5,5,2,-7,-1,1
1558441746587162,-1,-3,-5,-17,-3,-7,-1,-1
1558441746587162,0,-2,-3,-2,-6,-15,0,-2
1558441746595108,-3,-1,0,0,-4,1,1,-3
1558441746595108,-1,0,0,-5,-5,-2,-3,-3
1558441746610101,-2,0,-1,7,3,-3,0,0
1558441746610101,-1,-2,-1,-3,0,3,-2,-1
1558441746625063,2,-1,5,4,8,3,1,0
1558441746625063,0,-4,-5,-8,-10,-7,-8,-2
1558441746633009,-1,-1,1,7,0,7,-1,0
1558441746633009,-2,-2,5,-4,-2,-7,-2,-4
1558441746634004,0,0,-3,-3,-4,5,-3,-1
1558441746634004,0,0,1,0,3,4,3,1
1558441746647006,0,-2,-5,-3,-11,-18,-7,1
1558441746647006,2,3,1,5,6,12,11,3
1558441746670938,1,0,3,6,10,-5,6,3
1558441746670938,1,2,4,-4,7,6,0,1
1558441746672932,-3,-2,-9,0,-11,3,-3,-4
1558441746672932,-6,-6,-10,-5,-16,-13,-12,-4
1558441746676927,0,0,1,-1,-3,-5,-5,0
1558441746676927,1,0,-4,3,11,10,7,1
1558441746691916,1,2,6,1,2,3,-2,-1
1558441746691916,4,3,3,0,5,-8,-1,1
1558441746700824,-2,-3,-11,-4,-2,7,4,-2
1558441746700824,-4,-4,-1,-9,-8,-12,-9,-2
1558441746706841,-1,-1,0,1,-4,-4,-3,-3
1558441746706841,-1,-2,-1,-3,-5,2,-4,-2
1558441746739723,1,0,-1,-4,-6,-8,0,0
1558441746739723,-1,-1,-3,2,-3,1,-4,-2
1558441746740725,0,1,4,6,9,4,9,5
1558441746740725,-2,-2,-4,-8,-4,-5,-2,-1
1558441746741718,-3,-1,2,-4,-2,0,-1,0
1558441746741718,-1,-3,-4,1,-6,0,-1,-2
1558441746752688,1,2,5,8,7,2,3,1
1558441746752688,-4,-4,-7,-10,-1,-4,-7,-4
1558441746760710,-1,-2,-3,0,-5,-1,0,-4
1558441746760710,-2,2,0,-1,-1,1,2,-1
1558441746767652,-4,-2,-6,-4,-5,-15,-10,-5
1558441746767652,2,2,7,9,8,10,7,3
1558441746774674,-1,0,3,4,4,7,-1,-1
1558441746774674,0,2,-2,4,1,1,-4,-3
1558441746789588,-1,-2,-8,-13,-8,5,0,-4
1558441746789588,-2,-2,-5,-3,-7,-5,-6,-2
1558441746797609,-4,-2,-2,-3,-2,-8,-4,1
1558441746797609,0,1,1,4,4,-3,0,0
1558441746812526,1,1,5,-4,-2,-1,2,1
1558441746812526,0,-1,0,4,2,9,6,0
1558441746820623,1,1,-3,-3,-1,-6,-7,-2
1558441746820623,2,-1,3,-2,-1,-4,5,2
1558441746827611,-2,-3,-3,-5,-4,-3,-1,-2
1558441746827611,0,0,5,12,6,8,3,1
1558441746834586,-2,-2,4,-4,-2,-15,-4,-2
1558441746834586,-3,-2,-7,-8,-8,0,-6,-5
1558441746857508,-3,-3,-6,-1,-4,2,-10,-4
1558441746857508,4,5,3,2,10,6,13,6
1558441746858404,-2,0,-4,1,-1,2,-2,-2
1558441746858404,-1,-4,-2,-3,-2,0,-1,-2
1558441746872471,-4,-4,3,3,-5,-4,-8,-5
1558441746872471,-4,-4,-4,0,-6,-7,-7,-3
1558441746880453,4,4,-1,-5,8,5,15,5
1558441746880453,-1,-1,-2,-3,1,-6,1,-2
1558441746903312,-1,-3,-3,3,1,-2,1,1
1558441746903312,-1,-2,-1,-3,-6,-10,-7,-1
1558441746904280,0,0,-2,2,-1,6,-2,-1
1558441746904280,-4,-1,-2,2,-3,-1,-5,-3
1558441746909306,-1,2,-3,-3,-4,6,-3,-1
1558441746909306,-1,-5,-3,-6,-6,-7,-1,-3
1558441746917384,3,1,9,13,15,-1,13,6
1558441746917384,1,2,-2,-8,-2,3,3,2
1558441746932303,-1,0,0,0,-1,-1,-2,-2
1558441746932303,-2,-3,-11,-15,-9,-4,-7,-3
1558441746948259,-2,-1,3,3,0,6,-2,-2
1558441746948259,-1,-5,-2,1,-1,-10,-2,-1
1558441746955242,0,1,1,2,6,12,7,2
1558441746955242,-3,1,-2,-12,-9,-11,-8,-6
1558441746956240,-5,-3,1,2,-5,0,-3,-5
1558441746956240,-1,-3,-5,-1,2,-3,-4,-2
1558441746970205,0,-2,0,-7,-1,-5,4,1
1558441746970205,0,-1,1,6,3,1,-3,-4
1558441746977228,0,-2,-3,-3,-2,6,1,-1
1558441746977228,-2,3,7,8,-1,-7,-3,-1
1558441746992147,-3,-2,-7,-12,0,5,-1,-2
1558441746992147,1,-1,4,12,3,6,7,1
1558441747000120,-3,0,-2,-4,-4,-7,-5,0
1558441747000120,-2,-2,-6,1,-3,-5,0,-1
1558441747015081,1,-1,2,1,1,-11,0,2
1558441747015081,0,0,-1,-1,2,8,7,0
1558441747016079,-3,-3,-5,-8,-8,-1,-8,-3
1558441747016079,-1,-2,3,0,3,4,1,1
1558441747030051,-2,-1,-2,1,-8,-5,-6,-3
1558441747030051,-1,0,1,0,1,7,-2,-2
1558441747037078,1,1,3,9,8,-9,8,7
1558441747037078,0,2,-1,-19,0,6,-1,0
1558441747052038,-3,-3,-3,2,-2,-10,-3,-4
1558441747052038,0,-2,1,-4,0,9,-3,0
1558441747060022,-3,-3,-8,-8,-5,-2,-5,-2
1558441747060022,0,-3,-1,0,-4,-2,-7,-2
1558441747075134,-2,0,2,3,2,4,-4,-3
1558441747075134,1,1,2,1,2,-19,3,2
1558441747076070,3,2,4,5,10,6,4,4
1558441747076070,-3,-1,2,6,-4,1,-6,-4
1558441747090046,-1,2,0,-5,-8,-2,-4,-3
1558441747090046,-1,-3,-5,1,4,5,-4,-1
1558441747097133,1,-1,0,-2,-11,-13,-8,-5
1558441747097133,1,2,-1,0,3,10,5,1
1558441747112104,-4,-3,-2,0,1,-6,2,-2
1558441747112104,-1,0,0,-3,5,3,1,0
1558441747128064,1,3,-3,-2,-1,-6,0,3
1558441747128064,0,-3,6,8,6,2,1,3
1558441747135044,-2,-2,0,2,2,8,1,3
1558441747135044,-3,0,-3,-3,-8,-18,-6,-3
1558441747136002,-5,-8,-8,-7,-1,9,-5,-6
1558441747136002,-1,3,3,-7,-10,3,2,-2
1558441747149962,0,-3,-1,-4,-1,-9,-2,-2
1558441747149962,0,1,4,0,-1,-5,-3,0
1558441747165917,-2,-3,-7,-3,-2,7,0,-2
1558441747165917,-1,-2,-2,1,4,-5,-1,2
1558441747180914,1,1,-1,4,3,-1,-3,-1
1558441747180914,-1,-2,0,0,-5,3,0,-1
1558441747181872,-1,-2,0,-6,-6,-9,-10,-4
1558441747181872,-1,-2,-1,4,-7,-13,-2,-3
1558441747194872,0,-2,-4,-4,8,13,11,4
1558441747194872,-1,0,-2,-1,3,3,4,-1
1558441747195836,0,1,-2,-2,4,7,4,1
1558441747195836,-1,-1,-2,0,-1,-5,-4,-1
1558441747209931,1,-2,0,-6,-10,-12,-7,-2
1558441747209931,-1,-2,-3,-4,-2,-7,-4,-3
1558441747216913,-3,-2,-1,-5,-8,2,2,-4
1558441747216913,1,0,1,1,4,-1,4,2
1558441747231871,1,-1,-5,-4,3,-4,8,4
1558441747231871,-4,-3,-2,-2,-1,2,-6,-4
1558441747240845,-2,-3,-3,-5,-8,-5,-2,-2
1558441747240845,-3,-3,-1,1,-1,1,-4,-2
1558441747254866,-3,1,2,-3,-4,3,-4,-3
1558441747254866,-4,-3,-6,-5,-13,-7,-7,-5
1558441747255806,0,2,4,3,3,-4,-3,-2
1558441747255806,2,2,-1,-1,16,22,11,3
1558441747269710,3,2,4,7,12,-6,8,4
1558441747269710,-3,-1,-1,-3,-4,-2,-2,-5
1558441747277624,-5,-1,-2,-1,-14,-7,-7,-8
1558441747277624,-1,-4,-3,-7,-6,-3,-3,-3
1558441747293583,-1,0,-2,1,-4,1,-7,-1
1558441747293583,1,0,4,2,3,-5,-2,0
1558441747300600,3,1,0,-4,0,-8,6,4
1558441747300600,-1,0,2,6,4,1,2,2
1558441747315527,-2,-2,-6,0,0,1,-1,-1
1558441747315527,0,-1,-3,0,2,8,2,0
1558441747315527,-4,-3,-3,-12,-10,-9,-8,-5
1558441747315527,-1,1,7,7,2,-6,2,0
1558441747329489,0,-3,-1,1,-4,-1,-6,-2
1558441747329489,1,1,-4,2,7,9,6,2
1558441747337499,0,2,8,10,5,0,-1,0
1558441747337499,-1,-2,-10,-13,-9,-2,-1,-2
1558441747352459,-2,0,2,-5,-5,-8,-5,-3
1558441747352459,0,-1,-2,-2,-4,-1,-2,0
1558441747360442,-2,-2,4,6,2,6,-2,-2
1558441747360442,-1,0,-4,-8,-5,-7,0,-2
1558441747375402,0,-3,0,2,-1,4,-3,-2
1558441747375402,2,2,7,8,14,6,9,4
1558441747376361,-1,0,-2,-5,-1,3,2,1
1558441747376361,-4,-1,-2,2,1,0,-3,-1
1558441747389365,-1,0,-5,-6,-6,-7,-3,-1
1558441747389365,-5,0,-1,1,-6,1,-6,-2
1558441747397343,-1,-2,-2,1,-1,-2,-4,-3
1558441747397343,1,-2,-3,-6,-2,14,4,-4
1558441747412264,0,1,2,6,11,5,7,1
1558441747412264,-1,-2,-2,-1,-1,-9,-1,1
1558441747420243,-1,1,-3,-1,-1,-4,-1,0
1558441747420243,-2,-2,-1,2,-3,-4,-6,-3
1558441747435202,-2,-1,-1,-10,-8,-4,-8,-3
1558441747435202,-3,-3,-3,-4,-6,4,-2,-3
1558441747436199,1,-2,-2,12,6,9,6,2
1558441747436199,1,0,5,2,6,-8,2,0
1558441747459137,-2,-3,-3,1,0,4,1,-1
1558441747459137,0,-1,-2,-6,-7,-20,-8,-2
1558441747460135,2,1,0,1,7,12,5,2
1558441747460135,-2,-2,3,2,-1,-8,-3,-2
1558441747473141,-4,-2,-3,2,-3,2,-6,-4
1558441747473141,-1,-3,-3,-4,-7,5,-2,-1
1558441747480085,0,-1,3,7,8,-11,0,1
1558441747480085,-2,-1,0,-4,2,3,0,-1
1558441747495043,-2,-1,-1,-7,-2,-5,-1,-1
1558441747495043,0,0,0,-1,-5,-4,-5,-4
1558441747503020,-5,-5,-4,-6,-13,-10,-11,-5
1558441747503020,5,3,-4,1,5,-5,-1,3
1558441747510001,-1,-1,4,4,3,2,2,2
1558441747510001,0,0,1,1,7,7,4,1
1558441747516983,-2,-3,-2,-8,-5,2,0,-2
1558441747516983,-2,-5,-9,-7,-13,-4,-10,-5
1558441747531946,-2,-2,-4,-4,1,7,4,-2
1558441747531946,-1,2,2,4,12,-10,7,3
1558441747540922,-2,1,2,1,3,-1,-1,-1
1558441747540922,-2,0,-1,-5,-4,5,-3,-2
1558441747554887,-2,-3,-1,0,-10,-9,-5,-4
1558441747554887,0,-1,-3,1,1,1,3,3
1558441747555881,0,-2,-5,-8,-2,2,0,0
1558441747555881,-2,-4,-5,-5,-2,5,2,-2
1558441747570841,-1,-2,-1,2,-4,-5,-3,-2
1558441747570841,-2,-4,0,-2,-6,-6,-5,-1
1558441747576827,1,3,-5,-5,-1,-2,-1,1
1558441747576827,0,2,2,11,4,-11,-1,3
1558441747591784,1,2,2,-3,3,4,6,2
1558441747591784,-1,-3,-7,-4,-5,0,-4,-5
1558441747600800,-2,-3,4,8,5,12,2,-3
1558441747600800,-3,-3,0,-2,1,-5,0,0
1558441747623912,1,2,-3,0,4,5,5,1
1558441747623912,-2,-3,1,-1,-6,-4,-5,-2
1558441747624698,0,-1,2,-1,-6,-13,-7,-2
1558441747624698,0,0,-5,-1,-3,-2,3,2
1558441747629682,-3,-3,-1,-2,1,-9,-3,0
1558441747629682,-2,0,-3,-5,-4,5,-2,-1
1558441747645649,-1,0,4,3,5,5,3,-3
1558441747645649,1,0,3,3,-4,0,-4,-2
1558441747652621,-4,-5,-5,-12,-5,-11,-7,-3
1558441747652621,0,2,3,5,8,13,9,2
1558441747660813,-2,-2,-9,-8,-10,-16,-5,-1
1558441747660813,-2,-1,0,-5,0,11,1,-2
1558441747674629,-2,-2,1,3,-6,-6,-3,-4
1558441747674629,-1,-2,-1,1,6,3,2,0
1558441747682542,0,0,-4,-5,5,0,0,2
1558441747682542,-3,-2,1,0,-3,9,-2,-5
1558441747689585,1,0,-1,0,-1,1,0,-1
1558441747689585,0,-2,2,-3,1,-5,5,1
1558441747697825,-1,-1,-3,2,0,6,1,0
1558441747697825,2,1,0,1,0,-3,1,2
1558441747712730,-2,2,6,-1,6,10,3,1
1558441747712730,-3,-2,-3,-2,-9,-10,-7,-4
1558441747720683,-1,-1,1,-2,-3,-3,-2,-2
1558441747720683,-3,-5,-6,-1,-8,-13,-5,-2
1558441747734413,2,3,3,8,4,12,6,4
1558441747734413,0,0,-1,2,10,-7,1,3
1558441747743381,-3,-5,-2,-5,-5,-5,-1,-2
1558441747743381,-1,-2,-2,-4,-7,-6,-8,-3
1558441747750363,1,-1,0,4,3,4,-3,-2
1558441747750363,1,2,2,-2,4,8,2,2
1558441747757522,-2,-2,0,-3,-7,5,-2,-2
1558441747757522,0,0,1,7,5,5,5,2
1558441747772316,-3,-5,-1,-11,-5,-26,-6,-4
1558441747772316,-2,-2,-5,3,1,7,0,0
1558441747780500,-1,-2,-4,-4,-3,-2,-6,-3
1558441747780500,-2,-1,-2,-5,1,-3,1,1
1558441747795301,1,0,-3,-1,-3,9,-1,-1
1558441747795301,1,2,10,6,-2,-6,-1,-1
1558441747803430,-2,-2,-6,-6,-2,-4,2,0
1558441747803430,-4,-6,-11,-8,-7,-3,-6,-5
1558441747818179,-3,-2,2,5,-5,-6,-8,-8
1558441747818179,0,0,1,-1,-8,-7,-1,-1
1558441747818179,2,0,-1,4,5,5,2,0
1558441747818179,1,2,3,3,12,17,7,2
1558441747832143,1,0,-7,-7,-6,-5,-1,1
1558441747832143,-1,-2,-2,-4,-6,-8,-3,-4
1558441747840160,2,2,6,9,4,0,-1,0
1558441747840160,-3,-8,-10,-13,-5,3,4,0
1558441747855399,0,-1,5,9,3,2,-1,0
1558441747855399,-1,-1,-2,-2,-1,-3,3,1
1558441747863378,-1,-1,0,4,2,-7,-2,-1
1558441747863378,-1,3,6,1,2,3,-5,-2
1558441747878339,-1,2,-6,-5,-8,-3,-3,-2
1558441747878339,-2,-2,-1,-6,-5,-2,-2,-2
1558441747879027,-2,-3,-4,0,-4,0,-4,-3
1558441747879027,-1,0,9,4,-4,-10,-1,-1
1558441747901264,1,0,1,6,16,18,11,4
1558441747901264,0,0,-6,-3,-3,-6,-4,-3
1558441747901956,-1,-1,-1,-5,-8,-1,-3,-1
1558441747901956,2,0,4,7,14,-1,6,3
1558441747914921,-2,-4,-4,-10,-16,-9,-11,-4
1558441747914921,1,-3,-2,-2,7,9,6,1
1558441747923160,-2,-1,1,0,-1,-4,-2,-1
1558441747923160,-2,-1,-8,2,-10,-6,-10,-4
1558441747954857,0,1,0,-9,0,-2,2,2
1558441747954857,-1,0,-6,-5,-6,-1,-3,-2
1558441747954857,-1,-1,3,0,8,7,5,3
1558441747954857,-1,0,7,3,-2,-3,0,0
1558441747956808,-2,-3,-8,-9,1,-4,3,-1
1558441747956808,-3,-3,-1,3,-7,-12,-12,-3
1558441747961016,-4,-4,-7,-11,-9,-5,-3,-4
1558441747961016,-1,-3,-3,-7,-1,4,1,0
1558441747974973,3,2,4,5,8,8,9,3
1558441747974973,-1,-1,1,0,-5,-4,-2,2
1558441747982739,1,1,2,10,6,2,3,1
1558441747982739,-1,-2,-10,-19,-11,-9,-8,-4
1558441747997698,-5,-5,-3,-2,-7,-8,-10,-7
1558441747997698,0,2,-1,-4,2,11,1,-4
1558441747998696,0,-1,1,4,3,-5,0,2
1558441747998696,2,4,0,4,5,-9,2,2
1558441748011689,-1,-1,-3,0,-2,-6,0,2
1558441748011689,-1,-2,-2,-4,2,12,-3,-4
1558441748020673,-1,0,1,3,-7,-3,-5,-3
1558441748020673,-1,-1,2,-1,1,5,3,-1
1558441748034599,0,4,0,-3,4,7,1,-2
1558441748034599,-1,-4,-7,7,-9,-15,-6,-3
1558441748042577,3,0,1,-2,4,7,3,2
1558441748042577,-1,-4,-4,0,0,0,-6,-3
1558441748057574,-1,0,5,8,0,-1,-4,4
1558441748057574,-2,0,1,-8,-7,-9,5,1
1558441748058535,-3,-3,-4,-7,-4,-3,-2,-4
1558441748058535,0,-2,-2,-1,-4,-9,0,-2
1558441748072499,-3,0,-4,-2,3,0,1,1
1558441748072499,-2,-6,1,-1,-1,3,0,1
1558441748079854,-1,2,2,3,-2,-6,0,1
1558441748079854,-2,-1,-5,-11,-10,-4,-7,-3
1558441748103415,-4,-8,-8,-5,-6,-2,-8,-5
1558441748103415,-1,0,0,-1,7,8,11,3
1558441748104413,0,0,-2,-11,1,-4,4,0
1558441748104413,-1,0,1,1,-1,2,0,1
1558441748117377,1,-2,1,0,-1,-1,-2,-1
1558441748117377,0,3,2,4,4,5,-3,-3
1558441748118377,0,-2,0,0,-1,-4,-2,0
1558441748118377,1,0,3,4,1,-1,1,2
1558441748132344,1,3,-1,-1,3,-3,1,1
1558441748132344,-2,-1,2,1,-2,5,-3,-1
1558441748139318,1,0,2,2,0,1,3,1
1558441748139318,-3,-1,-4,2,-1,-5,-6,-3
1558441748154280,-4,-5,-8,-16,-12,-6,-3,-5
1558441748154280,1,2,-1,2,5,1,-1,2
1558441748163254,-2,-2,-3,0,-4,-2,0,-2
1558441748163254,0,-1,4,1,5,3,0,0
1558441748178215,0,-3,-1,-2,-5,-6,-2,-1
1558441748178215,2,0,1,-7,0,1,-5,1
1558441748178215,-2,-1,-5,1,-4,8,-5,-4
1558441748178215,1,3,5,4,1,0,6,4
1558441748193176,-2,-1,4,6,3,-2,-1,-3
1558441748193176,0,1,-3,-6,-2,-5,0,1
1558441748199162,-2,-5,-4,2,1,0,-5,-5
1558441748199162,-1,-2,-4,-4,-1,-2,-2,-2
1558441748215117,1,1,4,3,-2,3,5,2
1558441748215117,0,-1,3,3,4,2,0,0
1558441748223096,0,2,-3,-2,4,4,3,1
1558441748223096,-1,1,1,-2,-3,-14,-3,-1
1558441748238055,-3,-1,-1,2,-2,1,-1,-3
1558441748238055,-3,-4,-3,4,-6,-9,-11,-8
1558441748238055,2,2,5,-3,2,7,6,3
1558441748238055,-3,-6,-6,-6,2,9,0,0
1558441748252018,0,2,6,9,4,0,-5,1
1558441748252018,-2,-2,1,0,-5,-4,0,-1
1558441748259996,-2,-3,-8,-8,0,-3,-2,0
1558441748259996,1,1,-2,1,-2,4,3,0
1558441748274958,-2,-4,-1,1,-2,-8,4,-1
1558441748274958,-5,-6,-3,-1,-5,-5,-5,-6
1558441748282943,1,-1,-1,-2,4,5,3,1
1558441748282943,-3,-2,-2,-3,-5,-8,0,-1
1558441748297895,-1,0,-4,-3,-1,6,-4,-4
1558441748297895,1,3,1,6,4,-2,1,0
1558441748298898,-6,-3,-4,-7,-11,-13,-8,-5
1558441748298898,-2,-1,-1,-5,-2,-5,-4,-1
1558441748311861,0,-1,-3,-2,-2,5,-1,0
1558441748311861,1,-1,0,1,10,-1,8,2
1558441748319838,1,2,3,5,2,0,-3,0
1558441748319838,-2,-3,-3,-6,-6,-2,-2,-1
1558441748334798,-1,-2,-3,0,-8,-9,-6,-7
1558441748334798,-2,0,-2,-11,-2,-2,-3,0
1558441748342784,-3,-2,-1,2,-5,-4,-2,2
1558441748342784,3,2,5,7,8,7,7,2
1558441748357741,-1,1,2,7,7,2,-2,-2
1558441748357741,-1,0,2,-2,-5,-3,-2,-2
1558441748358734,-3,-4,-5,-11,-6,-4,-3,-6
1558441748358734,-3,-1,-1,-1,-4,-1,-3,-3
1558441748371697,0,1,1,0,0,0,0,1
1558441748371697,-3,-2,1,3,-4,-8,-4,-4
1558441748379678,1,1,2,-3,-1,3,6,3
1558441748379678,2,5,-3,6,16,2,6,3
1558441748394715,-2,-1,-2,-15,-3,1,-1,4
1558441748394715,-1,-2,-5,2,-3,0,-2,-1
1558441748402688,-2,-5,-6,-5,-9,-2,-8,-6
1558441748402688,-4,-2,-1,-4,-5,4,-2,-2
1558441748417580,-1,-1,-1,1,9,6,8,3
1558441748417580,-1,1,-1,-5,2,2,1,3
1558441748418574,2,0,1,1,0,-10,-2,-1
1558441748418574,-2,-1,4,14,3,3,-3,-5
1558441748432538,-2,-1,-2,-11,-9,-4,0,-2
1558441748432538,-3,-3,-4,-5,-4,-2,-2,-3
1558441748439523,-2,1,1,1,5,2,0,0
1558441748439523,-1,-4,0,1,-5,-9,-5,-2
1558441748454556,-4,-2,-1,-1,-3,1,-1,-2
1558441748454556,0,-1,-6,-10,0,-3,3,1
1558441748462455,-2,-2,1,11,2,-3,1,1
1558441748462455,3,1,7,0,4,3,2,0
1558441748477415,-3,-4,-3,0,-4,-15,-8,-3
1558441748477415,-4,-5,-2,-2,-5,1,-4,-5
1558441748478414,2,4,1,0,0,-1,-2,0
1558441748478414,-2,-5,-5,-10,-8,0,-4,-1
1558441748492374,2,2,-3,5,9,9,4,2
1558441748492374,0,3,3,4,1,-6,-1,2
1558441748499358,-2,-3,2,7,0,5,0,-2
1558441748499358,-2,-2,-5,-14,-5,5,0,-2
1558441748514315,-2,-1,-2,4,-4,-5,-3,-1
1558441748514315,1,-1,-1,-2,2,5,2,0
1558441748523294,-4,-3,-6,-9,-14,-10,-6,-5
1558441748523294,-2,-1,0,-2,-2,-4,-9,-5
1558441748537255,4,3,2,4,6,11,11,6
1558441748537255,0,0,-2,-1,-4,-8,-1,-3
1558441748545233,-2,-1,3,-2,3,-2,-3,-2
1558441748545233,0,0,-2,4,4,-3,0,0
1558441748552216,-1,-1,5,-4,1,4,-2,-4
1558441748552216,0,-4,-2,4,-3,8,-5,-1
1558441748559198,-1,-1,-9,-20,-8,-9,-5,-1
1558441748559198,-1,-3,-6,-4,-5,0,1,1
1558441748574155,-2,-1,1,5,7,7,4,-1
1558441748574155,1,1,3,-8,-1,-7,-2,-2
1558441748583132,-1,-2,2,14,-1,-3,1,0
1558441748583132,-3,-4,-8,-10,-7,-6,-8,-2
1558441748597098,-4,-5,-11,-13,-12,-9,-7,-5
1558441748597098,-1,0,1,1,6,9,5,0
1558441748605073,1,1,-2,-2,-3,6,-3,-1
1558441748605073,-1,1,2,7,1,-1,2,1
1558441748612054,0,1,6,2,4,-15,1,2
1558441748612054,0,-2,-3,4,-8,-3,-6,-1
1558441748620044,1,-1,-1,1,11,17,4,3
1558441748620044,-2,-3,-1,1,-5,-9,0,2
1558441748634998,0,-1,-2,-5,-2,1,-2,-4
1558441748634998,2,1,0,0,0,-4,1,1
1558441748643014,0,0,4,9,2,0,1,-3
1558441748643014,-3,-2,-3,-10,1,11,-5,-3
1558441748656936,-2,0,2,2,-6,-2,-2,-1
1558441748656936,-4,-5,-2,1,6,9,2,0
1558441748664914,1,-1,1,-2,-3,-20,-1,1
1558441748664914,0,0,-2,-1,2,8,2,-2
1558441748671893,0,-1,6,-5,-5,-3,-2,-1
1558441748671893,-4,-1,-10,-5,-8,-13,-9,-1
1558441748679876,0,-1,-2,1,5,10,4,4
1558441748679876,1,1,7,8,5,0,5,4
1558441748694843,0,-1,-2,1,-2,-11,-9,-2
1558441748694843,-3,-3,-9,-10,-4,13,6,1
1558441748702812,-1,1,-3,-3,-2,-6,-1,2
1558441748702812,2,0,-2,3,-3,-10,1,-1
1558441748716776,-1,-2,1,1,3,4,-1,2
1558441748716776,-2,-2,-6,-14,-8,-5,-1,-3
1558441748732736,-2,0,-3,-4,0,1,0,-2
1558441748732736,2,-1,0,-6,-1,-5,0,-2
1558441748740713,-3,-2,6,12,7,-7,-2,-1
1558441748740713,-2,-3,-2,2,-4,-7,-3,-2
1558441748740713,-2,-1,-5,-14,-8,9,-1,-1
1558441748740713,-3,-2,-6,-4,-6,-1,-6,-4
1558441748754679,3,1,1,0,1,-7,0,-1
1558441748754679,5,1,2,6,5,0,6,6
1558441748762658,0,0,6,6,5,3,-6,-1
1558441748762658,1,0,-1,-1,0,-4,8,0
1558441748776618,-4,-1,-6,-1,-5,-5,-2,-1
1558441748776618,-3,-1,-2,-5,-2,1,-6,-6
1558441748785591,-3,-5,-5,0,-6,-3,-5,-4
1558441748785591,-3,0,1,-1,-1,-2,-4,-2
1558441748800551,1,-1,2,3,4,13,4,0
1558441748800551,-1,-1,-3,-2,-5,-15,-4,-3
1558441748800551,3,-1,-4,-6,0,-4,0,1
1558441748800551,-2,0,4,5,7,-1,1,-1
1558441748814517,0,-1,-2,-4,-5,-2,1,-3
1558441748814517,-2,-2,-1,5,3,8,-5,-1
1558441748822492,-4,-2,-2,-3,-4,-7,-1,-6
1558441748822492,-1,-2,-3,-2,-3,-5,-4,-1
1558441748837452,-1,0,-5,-6,0,8,7,1
1558441748837452,-2,0,8,-2,6,-6,4,1
1558441748845431,-4,-2,-2,-5,-8,-2,-4,-4
1558441748845431,-2,1,1,-1,-2,1,-4,2
1558441748860395,0,-2,-7,-2,-6,2,-7,-5
1558441748860395,3,1,-3,5,3,2,4,2
1558441748861389,0,2,8,5,-1,-10,-1,-2
1558441748861389,-3,-1,-3,-4,-3,-2,-3,-5
1558441748874353,-3,-3,-8,3,4,-1,-3,0
1558441748874353,0,1,5,6,3,6,2,-1
1558441748882336,1,1,-3,-8,5,4,5,4
1558441748882336,-2,-3,-1,-3,-6,3,-4,-3
1558441748897292,-1,-4,1,-3,-8,-8,-7,-4
1558441748897292,-1,-1,-3,4,3,-1,-2,-2
1558441748905270,1,4,10,5,7,1,-2,1
1558441748905270,-1,-4,-4,-10,-6,-3,1,2
1558441748920230,-2,-3,-6,-4,-3,-3,-9,-2
1558441748920230,-3,-1,0,0,3,14,2,-2
1558441748921228,-3,-2,1,0,-5,1,-4,-3
1558441748921228,1,0,0,4,2,3,1,-1
1558441748934193,0,1,1,1,1,-3,9,1
1558441748934193,-1,0,-1,-6,-4,-11,-6,0
1558441748943173,0,0,-4,2,3,7,4,0
1558441748943173,1,-2,1,7,5,9,5,0
1558441748957132,0,1,1,-3,0,-1,-3,-1
1558441748957132,-1,-3,-5,-4,-6,-1,0,-4
1558441748965112,0,0,1,-4,-4,-6,0,0
1558441748965112,-4,-5,-5,0,0,-3,-7,-4
1558441748980071,2,0,1,-2,1,-9,5,5
1558441748980071,0,1,2,-1,0,-5,-3,1
1558441748981070,0,-2,3,6,-2,-1,-10,-4
1558441748981070,-2,2,0,9,8,12,6,-1
1558441748994034,-2,-4,-7,-6,-5,3,-1,1
1558441748994034,-4,-2,-4,-4,-8,-4,-2,-8
1558441749009991,-2,-5,-5,-1,-5,-8,-5,-2
1558441749009991,-1,0,2,4,2,-2,0,-1
1558441749025946,-4,0,4,-3,0,9,1,2
1558441749025946,1,1,-1,7,11,3,7,2
1558441749026943,0,-2,1,2,2,-2,1,-1
1558441749026943,1,-2,-8,-15,-15,-12,-12,-2
1558441749039911,-1,0,3,3,4,2,2,2
1558441749039911,-1,1,0,-3,-6,-6,-5,-3
1558441749040907,-3,0,1,3,1,2,-1,-3
1558441749040907,1,0,2,-2,3,-3,1,2
1558441749055867,0,0,-4,-2,-1,3,2,-1
1558441749055867,1,0,-5,-4,-5,-3,-3,1
1558441749062848,-4,-3,-2,-8,-7,-10,-6,-3
1558441749062848,1,-1,1,3,1,13,3,2
1558441749076811,-1,-2,0,0,-3,-17,-3,-1
1558441749076811,-2,-5,-3,-1,-2,0,-5,-3
1558441749084790,-2,-1,-6,-6,-1,6,6,0
1558441749084790,2,1,4,4,-3,-4,-1,-1
1558441749099754,1,0,-4,-10,-2,-6,-8,-4
1558441749099754,0,0,1,3,2,3,1,-1
1558441749100750,-1,0,-7,-9,-4,-6,1,2
1558441749100750,-2,-1,1,-3,3,1,-1,1
1558441749114711,-4,-2,3,6,-3,6,-6,-4
1558441749114711,-1,0,3,3,3,-1,-1,-1
1558441749122694,-3,-4,-3,-9,-4,8,1,-1
1558441749122694,2,3,2,-2,-2,-12,4,-1
1558441749136655,0,-2,-7,-6,-3,-6,-2,-2
1558441749136655,-4,-3,0,-3,-6,-3,-4,-2
1558441749145627,0,-2,1,8,7,6,-4,0
1558441749145627,-1,-1,-6,0,1,-9,0,3
1558441749159589,-2,0,3,2,0,7,-4,-3
1558441749159589,0,-2,-2,-6,-7,-5,-4,-2
1558441749168565,0,-1,-4,-3,-4,-7,3,-2
1558441749168565,-1,0,1,-2,2,-11,-6,0
1558441749175546,-2,-3,0,-2,-2,0,4,-1
1558441749175546,1,-1,-3,-2,-3,2,-1,1
1558441749182532,1,-1,2,2,7,2,0,4
1558441749182532,0,-1,-5,-1,2,10,1,-4
1558441749197691,-3,-2,0,-2,-7,-7,-12,-8
1558441749197691,0,-2,-4,-2,3,15,5,3
1558441749205466,-3,-3,2,4,-2,-15,-2,-2
1558441749205466,-5,-6,-2,2,-3,-1,-1,-2
1558441749220426,2,0,2,1,2,5,3,1
1558441749220426,0,-1,-4,-3,0,-4,-4,-3
1558441749221426,-2,0,-4,2,-1,11,-4,-4
1558441749221426,-1,0,6,3,0,5,3,-1
1558441749234389,4,2,-7,-3,4,-21,8,6
1558441749234389,1,2,3,2,3,-4,-3,-1
1558441749242368,1,0,0,1,-7,3,-4,-2
1558441749242368,-4,-4,-3,-8,-7,5,-8,-4
1558441749257568,-2,0,-2,-3,8,11,6,-1
1558441749257568,1,-2,-2,2,0,-9,1,-1
1558441749289245,0,-3,1,3,-2,-9,-5,-3
1558441749289245,-1,0,-12,-18,-9,3,-1,-2
1558441749291243,1,-1,1,3,-3,-11,1,2
1558441749291243,0,-2,3,5,5,8,4,1
1558441749292236,1,-1,-1,-1,-2,0,1,0
1558441749292236,-2,-2,-1,-3,-1,-5,-1,-3
1558441749296226,1,0,0,6,-7,0,-8,-3
1558441749296226,-2,-4,1,-1,-3,-4,-2,-1
1558441749303205,-2,-3,-9,-6,-2,-12,-2,1
1558441749303205,0,-1,7,9,9,9,6,-1
1558441749317169,-1,1,-7,-4,0,5,0,1
1558441749317169,-1,5,2,0,-3,-6,-6,-1
1558441749341257,-3,-3,-4,3,-2,-3,-2,-1
1558441749341257,1,-2,5,2,6,9,1,-1
1558441749348085,-5,-3,0,-6,-9,-15,-7,-3
1558441749348085,1,-1,0,1,-5,-8,-9,-1
1558441749349088,-2,2,-1,-2,7,11,1,0
1558441749349088,-3,0,-5,-2,-9,-13,-4,-1
1558441749354069,-1,-2,0,0,3,4,7,1
1558441749354069,1,1,2,-1,4,2,0,0
1558441749363048,-2,-5,-7,-7,-10,0,-5,-4
1558441749363048,2,1,2,7,6,-3,0,1
1558441749377008,0,-1,-2,-3,-6,-1,-3,-2
1558441749377008,-2,-2,-2,-4,-5,-3,-1,-1
1558441749384996,1,2,4,3,8,-1,0,2
1558441749384996,-4,-3,-2,0,-9,-12,-7,-1
1558441749399949,3,2,-6,3,8,11,9,4
1558441749399949,-1,-2,6,6,7,12,10,-1
1558441749400944,0,-1,-3,-8,-2,1,1,1
1558441749400944,-2,-2,0,0,-7,-4,-5,-3
1558441749414911,-4,-4,-5,-3,-2,-4,-7,-2
1558441749414911,0,1,1,-5,-3,2,6,1
1558441749422906,0,0,-6,4,4,-5,4,0
1558441749422906,0,0,0,-8,0,0,1,-1
1558441749436850,-1,-3,-6,-11,-2,5,-1,-3
1558441749436850,0,-1,9,15,5,-3,-2,-2
1558441749452810,-1,-1,-7,-18,-7,2,-3,-3
1558441749452810,-1,0,-1,2,-3,-7,-2,-2
1558441749459788,-2,-4,-3,0,0,-4,-1,-3
1558441749459788,-2,-2,-5,-6,-7,-13,-4,0
1558441749460786,0,2,10,7,8,5,3,2
1558441749460786,-4,-2,-8,-5,-5,8,0,-3
1558441749474748,-2,1,6,8,4,10,1,1
1558441749474748,-2,0,-8,-6,-7,-10,-4,-2
