timestamp,emg1,emg2,emg3,emg4,emg5,emg6,emg7,emg8
1558441812798384,-2,-2,-2,0,-6,0,-4,-1
1558441812798384,6,4,-2,5,7,-8,7,6
1558441812800377,0,1,-6,-1,-2,1,0,-1
1558441812800377,1,2,7,13,9,16,5,1
1558441812800377,-4,-4,-5,-8,-7,-5,-8,-6
1558441812800377,-5,-1,4,-3,-7,-1,-5,-9
1558441812802371,1,-2,-5,-1,0,-1,3,5
1558441812802371,-1,0,-2,1,2,7,6,0
1558441812820322,0,-1,1,3,1,2,1,0
1558441812820322,-2,0,2,0,0,6,-3,-1
1558441812822317,0,-1,4,3,-3,-18,-1,-1
1558441812822317,-1,-2,-1,-7,-5,0,-6,-3
1558441812825309,2,-2,0,3,2,1,1,4
1558441812825309,-3,-3,-5,-6,-1,-1,3,-3
1558441812840269,-2,-1,-2,-1,-5,2,-6,-6
1558441812840269,1,1,-5,-1,-3,-18,-10,1
1558441812849245,-1,1,2,-4,-5,6,0,-1
1558441812849245,1,-3,-7,5,7,7,5,1
1558441812855229,-2,-1,8,1,4,8,4,1
1558441812855229,0,-1,-7,-3,-5,-2,1,-3
1558441812871187,1,2,1,-5,-1,-6,-1,-3
1558441812871187,-4,-5,-5,5,-7,-1,-6,-4
1558441812880163,-3,-2,3,-7,-4,-8,-4,-3
1558441812880163,-1,0,3,5,5,-3,-1,1
1558441812885150,-2,0,2,-1,-1,0,4,1
1558441812885150,0,2,-1,-2,2,1,-1,1
1558441812924046,-1,-3,-5,-8,-3,-13,-7,-5
1558441812924046,-2,-2,3,2,3,-7,-2,-1
1558441812932025,-1,-1,-2,1,2,5,-1,-1
1558441812932025,0,-1,0,-2,-3,-9,1,1
1558441812933030,2,-1,2,3,-6,-7,-1,1
1558441812933030,-3,-3,-7,-7,-5,-9,-17,-6
1558441812934018,0,-1,0,3,8,4,10,2
1558441812934018,-3,-1,1,-3,0,9,1,-2
1558441812944990,-1,-2,3,2,0,1,0,-2
1558441812944990,-2,-3,-4,-3,-9,-2,-8,-3
1558441812953966,0,1,3,0,-3,-3,2,0
1558441812953966,-2,-3,-5,-6,-5,2,-9,-2
1558441812959949,0,-4,-2,7,0,2,4,0
1558441812959949,1,-1,-2,-7,5,3,2,0
1558441812974910,-2,-2,-7,-7,-11,-4,-2,-1
1558441812974910,-2,0,2,-4,-3,3,5,3
1558441812982888,2,5,4,1,10,5,4,4
1558441812982888,0,0,-2,3,1,6,5,2
1558441812990867,-1,-1,-1,-5,0,-7,-1,1
1558441812990867,-1,1,0,5,-2,-3,-4,-5
1558441813004829,-6,-4,-6,-5,-10,-1,-2,-3
1558441813004829,4,4,3,-4,11,3,14,6
1558441813020787,-4,-5,-7,-2,-11,-4,-10,-7
1558441813020787,0,0,1,-1,-2,-1,0,1
1558441813020787,0,0,0,2,2,-2,-6,0
1558441813020787,0,1,1,-1,4,3,1,4
1558441813034749,-1,0,2,5,0,4,1,-1
1558441813034749,-6,-6,-5,-3,-7,-10,-19,-9
1558441813042728,-1,-2,-3,-1,4,8,1,0
1558441813042728,-2,0,2,4,-5,-7,2,-1
1558441813051704,2,-1,1,-2,4,-4,-7,2
1558441813051704,3,1,-6,-2,3,0,5,3
1558441813064669,-2,-2,4,2,-7,-8,-3,-1
1558441813064669,-3,-4,-5,-12,-10,-5,-9,-7
1558441813073645,2,1,5,11,7,6,8,3
1558441813073645,2,-1,-4,-7,3,-8,-1,-1
1558441813079628,0,1,1,-2,-1,-1,1,-1
1558441813079628,-3,-3,5,5,-3,-1,0,-3
1558441813094589,-4,0,2,-4,-7,0,-5,-6
1558441813094589,2,1,-2,-5,4,7,5,0
1558441813102568,-1,-3,5,2,0,-8,-6,-4
1558441813102568,-2,-1,3,7,4,6,1,-1
1558441813125507,-3,-1,-6,-8,-8,-9,-18,-8
1558441813125507,-2,-2,-1,4,4,7,9,5
1558441813126504,-1,0,-10,-8,-6,-7,-1,0
1558441813126504,-2,-4,-7,-2,-7,0,5,-4
1558441813133485,1,1,3,0,3,5,6,6
1558441813133485,1,2,6,8,3,0,6,-2
1558441813139469,-1,2,-2,-2,9,1,-1,2
1558441813139469,0,-2,-5,6,-3,-1,-1,-3
1558441813155427,-1,-3,1,-1,0,-3,-2,-1
1558441813155427,-3,0,1,-2,-5,-9,3,3
1558441813178366,0,-2,-4,-10,-6,7,-3,-2
1558441813178366,-2,-1,6,4,8,7,2,2
1558441813180360,-3,-1,-4,-5,0,1,-6,-8
1558441813180360,0,-2,0,-3,7,11,1,0
1558441813185348,0,0,-2,-5,-4,1,-5,-4
1558441813185348,-2,1,-3,-2,-6,-11,-7,-4
1558441813193325,-4,-5,-1,1,-2,-5,0,-2
1558441813193325,-2,-3,-3,-10,-5,-6,3,-4
1558441813200306,-1,0,-1,6,4,8,8,0
1558441813200306,0,-1,-2,-3,-4,-2,-3,1
1558441813215266,-2,-1,2,-1,8,2,3,0
1558441813215266,0,-1,1,3,-1,-8,-11,-3
1558441813231225,-5,-3,-5,-1,-5,0,-4,-2
1558441813231225,0,-1,-4,-6,2,7,8,0
1558441813232222,-1,-1,4,5,-6,-17,-8,-2
1558441813232222,0,0,-2,0,2,7,3,1
1558441813245186,1,0,4,9,2,-21,-1,0
1558441813245186,-2,-2,-3,-9,-2,1,-4,-1
1558441813254163,0,0,-4,-2,-5,5,-13,0
1558441813254163,-2,0,0,-4,2,10,6,-1
1558441813260148,2,2,0,2,6,11,4,0
1558441813260148,-1,-2,-2,1,2,-7,-1,2
1558441813283085,-1,1,-2,-3,-1,3,1,0
1558441813283085,-3,-1,3,2,-7,-11,-9,-4
1558441813284082,-3,-2,-6,-4,-7,-12,-8,-3
1558441813284082,0,-1,0,-1,1,-2,-5,-3
1558441813299042,0,1,-8,-4,-4,11,5,-2
1558441813299042,1,-2,6,3,-1,-6,3,1
1558441813305025,-5,-2,-4,-4,3,9,3,0
1558441813305025,1,0,1,0,-3,-11,-6,-2
1558441813314003,1,-1,5,1,0,-12,4,2
1558441813314003,-6,-4,-14,-8,-4,1,-6,-4
1558441813319992,0,-3,1,4,1,4,2,1
1558441813319992,-3,-2,-1,-1,-3,8,-4,-2
1558441813342925,1,0,-5,-3,-3,-2,5,0
1558441813342925,1,0,-1,4,2,-2,2,0
1558441813343924,0,0,5,-3,0,-5,-8,1
1558441813343924,-3,0,-1,3,0,6,4,0
1558441813356888,-1,1,-3,0,3,1,9,-1
1558441813356888,-1,-3,-4,-2,-9,-7,-14,-4
1558441813364867,-1,-1,-3,-2,0,-2,-1,-2
1558441813364867,0,1,0,-5,-1,-2,0,0
1558441813381820,-2,-2,-6,-5,-8,-10,-5,-2
1558441813381820,-6,-6,-4,-2,-4,-1,0,-2
1558441813382818,2,3,0,-1,4,11,-4,-4
1558441813382818,1,0,10,8,0,-12,-1,1
1558441813395785,1,-2,-4,-1,0,-1,3,1
1558441813395785,1,3,2,-3,1,2,0,0
1558441813402765,0,-3,-1,0,2,3,6,0
1558441813402765,-1,-1,-8,-13,-5,0,0,0
1558441813417725,-4,-4,7,3,-3,2,-3,-3
1558441813417725,-2,0,4,6,-1,-6,-6,-2
1558441813433682,-3,-1,-7,-9,0,6,1,0
1558441813433682,-2,1,-4,0,-2,6,-1,-2
1558441813434680,2,1,1,1,7,-16,0,3
1558441813434680,2,0,3,-1,3,6,10,0
1558441813447644,0,-2,1,-1,-9,-6,1,0
1558441813447644,-2,-6,-7,-1,1,5,-1,-1
1558441813454626,-2,-5,-3,2,-7,-9,-1,-1
1558441813454626,0,0,-3,-6,-2,-13,-4,-1
1558441813462605,-1,0,7,2,-1,3,0,-1
1558441813462605,-3,-2,-8,-4,-3,-1,3,0
1558441813477564,-2,-3,-1,-2,2,8,-2,1
1558441813477564,-1,0,-6,1,-2,-1,-7,-2
1558441813484546,-1,-2,4,3,-6,-12,-5,-1
1558441813484546,0,4,7,7,3,1,-7,-3
1558441813502498,-2,-1,0,-1,4,17,7,-1
1558441813502498,1,3,7,0,5,-6,1,5
1558441813508483,2,0,-8,-2,-2,-3,0,0
1558441813508483,-2,-3,-4,2,0,1,-5,1
1558441813514466,-1,0,1,-3,-2,-12,-1,-2
1558441813514466,-3,-3,0,0,-3,6,1,-2
1558441813522445,-2,0,-3,-6,-10,-12,-8,-4
1558441813522445,-2,-1,1,0,-5,1,-1,-4
1558441813537404,3,2,6,3,15,9,18,4
1558441813537404,-2,-6,-10,-1,-5,4,-8,-7
1558441813545383,-3,-2,-1,-5,-7,-2,-2,-1
1558441813545383,-1,-2,-5,-4,-3,-7,-1,-2
1558441813562339,-5,-3,0,3,-6,2,-9,-4
1558441813562339,1,4,6,4,11,1,6,5
1558441813562339,0,-1,-2,-7,-2,-3,3,2
1558441813562339,0,-2,2,-1,-5,-7,-15,-5
1558441813575304,1,-2,-5,-3,-1,7,-1,2
1558441813575304,1,0,1,-1,1,-7,3,1
1558441813582286,-2,1,-5,0,-2,0,2,-2
1558441813582286,1,0,3,0,2,-3,0,0
1558441813613202,0,-3,-6,-5,-5,-3,-7,0
1558441813613202,-2,-1,-2,-2,-2,-2,-3,-1
1558441813614200,-2,-1,3,3,-2,-7,-4,-2
1558441813614200,1,1,-1,-5,-3,3,0,0
1558441813621181,0,-1,4,4,9,3,-2,2
1558441813621181,-1,-3,-5,-2,0,9,-1,-4
1558441813628162,1,-3,0,3,4,4,1,2
1558441813628162,0,-1,3,3,-5,-7,-1,-3
1558441813635144,-2,-2,-5,-5,-6,-13,-9,-3
1558441813635144,-1,-1,2,2,1,6,5,0
1558441813642127,-5,-4,2,-1,-6,-7,-8,-6
1558441813642127,0,0,-2,0,7,6,6,4
1558441813657086,3,0,0,0,2,6,3,-1
1558441813657086,-4,-4,-1,3,-6,-4,-6,-3
1558441813681023,1,-1,-4,-5,-4,-3,-2,-2
1558441813681023,-5,-3,-6,-1,-8,0,-5,-5
1558441813683015,0,3,2,0,0,2,8,-1
1558441813683015,-1,0,-2,-4,-5,-18,-8,-2
1558441813688002,1,-1,4,3,14,24,4,3
1558441813688002,-2,-1,0,2,4,-6,2,0
1558441813694983,-2,-3,0,-1,-5,-3,-7,-1
1558441813694983,-1,-1,2,-2,-3,3,-6,-4
1558441813701966,-2,-3,-7,-5,-11,0,8,-2
1558441813701966,2,3,-2,-4,9,0,7,3
1558441813734877,-6,-1,2,5,-4,-4,-4,-5
1558441813734877,-3,-3,-4,-8,1,-7,-1,0
1558441813734877,-2,-4,-7,-1,1,-7,-4,-3
1558441813734877,-1,-2,-1,-2,-6,0,-3,-1
1558441813736872,2,1,-1,-4,-4,-3,-5,0
1558441813736872,0,-1,-6,-9,-3,-3,0,1
1558441813747848,0,-2,1,3,5,4,-1,1
1558441813747848,2,0,0,-3,-3,-3,-1,-2
1558441813754829,1,1,4,1,2,-6,-3,4
1558441813754829,-1,-1,-6,-3,3,3,5,0
1558441813762816,0,2,6,-2,2,-3,1,4
1558441813762816,-3,-4,-7,-3,-3,-1,-3,-2
1558441813785743,-4,-4,-6,-9,-3,4,-8,-5
1558441813785743,0,0,1,9,-1,-8,-2,0
1558441813786739,2,-2,-6,-6,1,3,9,1
1558441813786739,-1,0,6,-2,5,4,7,-2
1558441813793720,0,0,-2,1,1,-5,-4,-1
1558441813793720,-1,-1,2,-3,-4,0,-8,-3
1558441813807684,-1,1,4,6,-2,-1,-10,-7
1558441813807684,-3,-2,3,5,-4,-8,-21,-3
1558441813814664,-1,-1,-3,-8,0,6,11,-1
1558441813814664,0,2,3,5,11,16,7,2
1558441813822642,-1,0,0,0,-2,-3,-10,-2
1558441813822642,0,-1,-5,-6,-2,-7,1,2
1558441813838602,0,-1,-6,-3,-3,4,-1,-1
1558441813838602,-1,-2,7,6,-8,-18,-7,-3
1558441813844583,-4,-5,-7,-13,0,5,1,-1
1558441813844583,-1,-1,2,6,-2,0,4,0
1558441813853565,0,-4,-10,-16,-10,-15,-3,0
1558441813853565,-2,-1,-2,0,-2,4,1,-2
1558441813868522,-1,0,-1,-1,3,-4,4,-1
1558441813868522,-2,1,-3,-1,-2,-1,-5,-4
1558441813883481,-4,-3,1,4,-1,7,-7,-4
1558441813883481,-2,-3,-3,0,-7,-6,-5,-2
1558441813898446,1,2,-2,-5,-1,-11,1,2
1558441813898446,0,0,4,1,5,7,4,1
1558441813900437,2,0,2,4,8,4,-1,0
1558441813900437,-3,-4,-6,-7,-6,5,-3,-5
1558441813905425,1,-1,5,-3,-2,-3,4,1
1558441813905425,4,0,-4,-7,-3,-2,8,3
1558441813920382,-2,0,3,2,2,0,8,1
1558441813920382,-2,-5,-6,-7,-12,1,-5,-2
1558441813928365,4,3,-3,4,1,-13,-3,3
1558441813928365,2,2,4,0,6,10,-3,-2
1558441813951300,-4,-3,-8,-8,-2,-7,-3,-2
1558441813951300,-1,-2,5,4,-4,-3,-2,-2
1558441813952299,-2,-2,-6,-1,-6,2,-5,-2
1558441813952299,0,1,0,-1,-1,3,0,-2
1558441813957284,-2,0,0,-1,4,0,4,0
1558441813957284,1,2,0,3,5,3,8,1
1558441813965266,-2,-4,-2,-1,-5,0,-8,-3
1558441813965266,-2,-4,-1,1,-7,-6,-7,-2
1558441813980222,-2,0,-1,-4,-3,3,-17,-6
1558441813980222,2,-3,-1,3,9,11,7,2
1558441813988205,0,0,1,0,4,-5,0,0
1558441813988205,-2,-3,1,0,-1,1,12,1
1558441814012135,-2,-2,0,3,-4,-11,0,-1
1558441814012135,-1,0,-8,-4,-4,7,-8,-4
1558441814012135,-2,0,4,4,7,18,8,-2
1558441814012135,-2,0,-1,-1,-8,-17,-8,-3
1558441814017122,-1,-5,-3,3,3,10,1,-2
1558441814017122,1,2,5,0,-1,-15,-1,1
1558441814025102,-5,-10,-4,-1,-3,-4,-4,-5
1558441814025102,-1,-2,-8,-10,-2,-2,-3,-3
1558441814040063,-1,0,-1,-4,-15,-8,-6,-3
1558441814040063,-1,-3,-1,-6,-4,-7,-2,-1
1558441814048041,-2,-1,-1,5,2,-3,-3,-3
1558441814048041,1,-1,4,4,9,14,3,1
1558441814063007,0,2,-2,1,3,-7,5,3
1558441814063007,-5,-4,-4,-6,-5,-8,-13,-6
1558441814063996,-2,-1,-6,-6,-11,-1,-1,-1
1558441814063996,-3,-1,1,2,1,-8,0,1
1558441814076961,0,1,-4,-2,-1,7,7,2
1558441814076961,1,1,1,3,10,17,5,1
1558441814084939,-4,-1,4,-8,-9,-11,-10,-4
1558441814084939,-1,-4,0,9,-5,-15,4,0
1558441814099899,0,0,4,-11,-3,3,6,-1
1558441814099899,-3,-3,-8,-5,-11,-19,-6,-1
1558441814107878,2,0,-2,8,16,22,6,1
1558441814107878,2,2,1,6,4,7,4,1
1558441814123835,0,3,3,4,2,-8,-9,0
1558441814123835,-3,-4,-3,-2,0,6,7,0
1558441814123835,0,1,-5,-1,-2,-3,-2,-1
1558441814123835,-3,-3,1,-6,-7,-23,-6,-1
1558441814137806,3,-2,2,11,1,-1,-2,-2
1558441814137806,2,5,-3,-11,3,12,8,4
1558441814144783,-3,-2,-5,-5,-4,7,-1,-4
1558441814144783,-2,-1,8,-4,1,12,-1,0
1558441814159741,-3,-4,-10,0,-7,-19,-6,-3
1558441814159741,-1,0,-1,1,-1,-15,-3,-1
1558441814167718,0,0,3,4,0,-3,5,4
1558441814167718,-2,-4,-14,-14,-6,6,4,-3
1558441814182678,-1,0,7,2,6,12,2,2
1558441814182678,-1,0,6,5,-1,0,2,0
1558441814183676,-2,-6,-6,-5,-6,-12,-3,0
1558441814183676,0,-2,1,1,4,5,-6,-1
1558441814197638,-2,-2,-6,-2,-4,-8,0,0
1558441814197638,0,-2,1,2,1,-2,3,0
1558441814204619,1,1,-1,-4,1,-2,-8,-1
1558441814204619,-1,0,0,1,2,11,7,1
1558441814219581,-1,1,-9,-7,-6,4,-3,-2
1558441814219581,-2,-1,10,14,9,-3,-3,-1
1558441814227558,0,-1,1,-15,-17,-21,-7,-3
1558441814227558,-1,-1,-7,-1,3,2,0,-2
1558441814242519,1,0,4,1,1,-2,-1,2
1558441814242519,1,-1,-5,-7,-4,3,8,0
1558441814243515,-1,-2,-2,5,-3,3,-4,-6
1558441814243515,1,-1,4,-3,0,-2,1,0
1558441814257479,1,2,5,5,6,7,1,-2
1558441814257479,-2,-7,-13,-10,-2,1,-2,1
1558441814264460,1,-1,-1,3,-4,-7,0,2
1558441814264460,-2,1,0,3,6,17,3,-2
1558441814279419,-6,-3,-3,-3,-1,0,-1,-4
1558441814279419,0,1,3,3,2,5,-2,-1
1558441814287398,-1,1,0,0,1,1,1,-1
1558441814287398,0,-1,-4,0,-6,-4,6,-2
1558441814303362,0,-1,1,-2,1,5,-3,-3
1558441814303362,0,1,1,2,3,-2,2,0
1558441814303362,0,0,-1,-4,2,4,-2,-2
1558441814303362,-4,-3,3,1,-12,-24,-13,-5
1558441814317326,-1,-2,-7,-6,4,10,6,1
1558441814317326,-1,-3,-2,-4,-10,-13,-8,-4
1558441814325304,1,0,0,7,2,0,-6,0
1558441814325304,1,-2,-5,-7,2,9,-3,-1
1558441814340259,3,-2,4,2,4,0,6,4
1558441814340259,2,4,0,6,10,13,8,4
1558441814347245,-2,0,3,3,-1,-1,2,2
1558441814347245,-4,-4,-9,-7,-13,-18,-15,-5
1558441814363303,-1,0,2,-1,0,11,4,1
1558441814363303,1,-4,-5,0,7,-4,-1,1
1558441814364196,-1,1,4,2,3,-9,-2,-2
1558441814364196,-1,0,-4,-1,2,10,3,1
1558441814386186,-4,-1,1,0,-9,-14,-12,-2
1558441814386186,-1,0,1,-5,-1,-1,-1,0
1558441814386186,-3,-3,-4,-2,2,10,0,0
1558441814386186,-2,-1,5,3,-3,-7,-7,-3
1558441814400099,-3,-1,-2,-6,-10,-2,-6,-5
1558441814400099,-6,-6,-1,0,2,5,3,-2
1558441814407080,4,5,2,6,19,8,9,7
1558441814407080,-1,1,4,-2,1,2,-1,-2
1558441814423038,-2,-1,-1,2,-2,1,1,-2
1558441814423038,-1,-4,-5,-1,-14,-5,-14,-5
1558441814424034,-2,-4,-5,-6,-8,-8,-1,-2
1558441814424034,-1,-2,-6,1,7,7,4,1
1558441814438212,1,2,-1,-5,-8,-14,-13,-4
1558441814438212,-4,-1,-2,-3,-6,5,-2,-3
1558441814444976,-1,-1,4,6,17,13,13,5
1558441814444976,3,0,5,5,10,-13,-3,4
1558441814460274,0,-1,0,-1,-4,-12,2,-2
1558441814460274,-1,-1,-3,-1,-7,-1,-11,-6
1558441814468110,-4,-4,-2,-3,-14,-2,-5,-5
1558441814468110,0,-1,4,-4,-10,-5,-4,-2
1558441814483159,0,-3,-10,1,2,3,0,-4
1558441814483159,2,2,0,7,4,1,2,2
1558441814483874,1,0,3,-8,6,4,8,1
1558441814483874,-1,0,-3,-4,-9,-9,-8,-2
1558441814497835,-4,-4,2,1,-5,-9,-4,-3
1558441814497835,1,-2,0,-2,-3,-7,0,-2
1558441814505043,-1,-2,-7,-6,-8,-7,-7,-5
1558441814505043,2,0,0,3,2,7,-1,0
1558441814520004,-4,-5,-4,-10,-10,-7,-4,-3
1558441814520004,1,4,5,1,5,-3,6,6
1558441814527949,-1,-2,-2,-7,-7,-11,-1,-2
1558441814527949,-3,-1,-3,-1,-1,2,1,-1
1558441814542724,1,3,10,5,12,13,11,3
1558441814542724,-4,-2,-6,0,4,11,-5,-5
1558441814559836,1,0,-2,1,-4,5,1,2
1558441814559836,0,0,-4,-6,-4,-10,-2,0
1558441814565696,-2,-2,-1,-1,-2,-6,-5,-2
1558441814565696,-1,-2,-2,-6,-7,-6,-4,-3
1558441814566653,1,0,-4,-2,-6,7,-2,0
1558441814566653,0,1,7,8,7,-4,1,-1
1558441814579808,1,1,-6,1,4,-4,5,4
1558441814579808,2,0,-5,-7,6,8,8,3
1558441814587654,-5,-4,-4,-9,-15,-14,-11,-7
1558441814587654,-2,-1,1,-2,-3,4,2,-1
1558441814611744,0,0,0,3,0,-2,-2,-2
1558441814611744,-1,-1,2,0,-4,-12,-1,1
1558441814612533,-2,-2,-2,1,5,6,-3,-2
1558441814612533,-3,-5,-8,-7,-8,0,-6,-3
1558441814625499,1,-2,2,-2,-4,4,-3,2
1558441814625499,0,2,3,6,5,2,11,1
1558441814626493,1,1,2,2,6,-12,-3,5
1558441814626493,0,-1,-4,-3,0,-9,3,0
1558441814639459,-2,-3,-6,-3,1,2,2,-3
1558441814639459,-2,-2,6,3,-9,2,-10,-5
1558441814647441,-3,-2,-8,-12,-1,1,-2,-3
1558441814647441,3,1,2,4,6,4,7,5
1558441814662395,-2,1,0,0,0,-8,-4,0
1558441814662395,0,-4,-4,-7,-1,2,-11,-3
1558441814670650,-4,0,4,5,-2,2,5,-1
1558441814670650,-3,-2,-7,-4,-2,0,-4,-2
1558441814677630,2,3,9,4,8,-1,3,0
1558441814677630,0,-1,-4,-1,-6,-7,-9,-3
1558441814685624,-3,-4,-8,2,-9,-6,-5,-3
1558441814685624,1,1,0,-2,8,17,6,3
1558441814700523,1,0,3,6,5,-4,-2,0
1558441814700523,-5,-3,-4,-3,-7,-12,-2,-2
1558441814707283,-1,-3,3,-2,-9,-6,-7,-3
1558441814707283,-4,-7,-11,-13,-8,8,4,-4
1558441814731214,-1,-2,2,1,-1,-8,-5,0
1558441814731214,4,3,3,2,1,-13,6,4
1558441814732211,0,1,-1,-1,-2,-5,-1,-2
1558441814732211,1,2,3,3,5,7,1,0
1558441814746399,-1,-4,-7,1,5,10,-3,-1
1558441814746399,-4,-2,-1,-5,-1,13,8,1
1558441814747175,1,0,7,8,11,-1,0,2
1558441814747175,-1,-1,-2,-1,-1,-9,-3,0
1558441814761360,-4,-6,-11,-9,-13,-9,-9,-8
1558441814761360,0,-2,4,1,1,-2,-5,0
1558441814768116,2,2,-2,4,1,-3,-5,0
1558441814768116,-1,0,5,-1,-2,-5,-9,-1
1558441814784081,-3,-6,-15,-14,-11,-2,5,0
1558441814784081,0,0,-1,0,5,9,5,-2
1558441814791055,-1,-1,0,-2,-3,0,-8,-2
1558441814791055,-1,2,2,4,-6,-13,10,2
1558441814806056,-4,-2,0,1,-1,0,3,-1
1558441814806056,-1,-3,-3,1,-4,1,-3,-2
1558441814806056,1,1,-5,0,12,20,7,1
1558441814806056,-4,-2,-3,-6,-10,-3,-8,-6
1558441814820210,-1,-1,-2,-6,-4,6,-2,-3
1558441814820210,1,0,-1,3,8,-7,6,3
1558441814828076,0,-1,1,2,5,-8,0,0
1558441814828076,0,-3,-11,-20,-11,-9,-10,-6
1558441814842916,-1,1,4,7,-6,-2,-2,-2
1558441814842916,-1,-2,-1,-3,-1,-7,0,0
1558441814850898,-1,0,-2,1,2,0,-7,-1
1558441814850898,-1,-1,3,3,6,1,0,0
1558441814865853,2,3,-1,-3,1,-2,7,6
1558441814865853,-4,-4,-4,0,-9,-1,-6,-4
1558441814866850,-1,-1,1,-2,2,1,7,1
1558441814866850,-4,-4,-2,4,0,-3,-1,-1
1558441814887830,2,-1,-2,-5,-4,5,-5,-2
1558441814887830,0,-2,-2,3,2,4,-4,-1
1558441814888790,0,0,0,0,7,19,13,-1
1558441814888790,2,1,2,7,8,6,4,6
1558441814903061,-1,1,1,-2,-1,-12,-1,1
1558441814903061,-3,-3,-3,-13,-16,-11,-20,-9
1558441814910930,-1,-4,0,-1,-4,5,6,-1
1558441814910930,3,-1,-2,12,16,13,17,6
1558441814925886,0,-4,-7,-4,3,-1,-2,-1
1558441814925886,-2,1,-5,-3,-7,-2,-8,-1
1558441814926691,-1,-2,-1,0,-3,-3,-2,-4
1558441814926691,-3,-2,-2,-2,-13,-2,-8,-7
1558441814939822,4,6,11,5,19,10,2,8
1558441814939822,-1,-1,-5,0,3,3,10,0
1558441814947845,-2,-1,-5,-9,-10,-14,-10,-3
1558441814947845,0,1,3,1,-5,-2,-8,-5
1558441814963597,-2,-1,-2,-9,-2,2,-7,-3
1558441814963597,-3,-3,-3,-6,-11,-9,-2,-2
1558441814970791,2,3,4,2,5,-11,4,6
1558441814970791,-1,-1,-1,-1,2,-6,-7,2
1558441814985750,-2,0,1,5,-2,-2,-1,-3
1558441814985750,-1,-3,-7,-7,0,10,5,-1
1558441814986535,-3,-4,-8,-7,-9,7,-2,-5
1558441814986535,0,-1,3,-1,-1,-9,-2,0
1558441815000605,0,2,7,6,3,-9,1,-1
1558441815000605,3,1,0,2,10,12,9,4
1558441815007473,-1,0,3,0,-3,-3,-5,-2
1558441815007473,-1,-4,-10,-8,-12,-2,-8,-6
1558441815022642,-4,-3,1,0,-3,8,4,-2
1558441815022642,0,-1,-1,-2,-1,-10,0,-2
1558441815030624,-3,-3,0,0,-3,-3,-3,-3
1558441815030624,0,0,-4,-3,3,-4,4,2
1558441815045373,-3,-1,0,2,-3,1,1,-2
1558441815045373,0,1,4,6,11,8,1,-2
1558441815046374,2,3,5,3,7,12,2,2
1558441815046374,-1,-2,-4,1,-2,-2,-1,0
1558441815060332,0,-3,-6,-8,-9,-16,-3,-1
1558441815060332,-1,-2,4,2,-2,5,-6,-3
1558441815067322,0,-2,-4,-2,-5,-6,-4,-2
1558441815067322,-2,2,3,-1,-3,6,1,-7
1558441815082275,1,-2,-4,6,1,-5,2,-1
1558441815082275,0,1,1,-2,-4,-10,3,3
1558441815090252,-2,0,5,7,6,-1,2,3
1558441815090252,-2,-6,-5,-7,-6,0,-6,-5
1558441815105510,-4,-4,-6,-5,-5,13,2,-3
1558441815105510,-3,-1,1,2,-1,-10,-7,-1
1558441815106210,-1,-3,-5,-5,-13,-4,-7,-5
1558441815106210,2,4,3,3,14,10,5,6
1558441815120552,-2,2,8,4,7,0,4,1
1558441815120552,1,3,4,1,7,7,4,3
1558441815127495,-5,-7,-18,-13,-12,-13,-7,-3
1558441815127495,-4,-3,0,-1,-18,-13,-11,-3
1558441815142114,0,-4,-6,-2,-5,-6,-1,-2
1558441815142114,-2,1,4,-1,0,3,0,-2
1558441815150091,1,-1,0,2,-3,-17,-3,1
1558441815150091,-1,-3,-1,-3,3,4,8,-1
1558441815166048,1,0,-1,2,1,-1,-9,0
1558441815166048,-1,-2,1,8,-2,0,-2,-2
1558441815182006,-2,-1,-8,-16,-1,-5,2,2
1558441815182006,-2,-2,4,6,1,-2,-5,0
1558441815183002,0,1,-1,-4,1,5,2,1
1558441815183002,-3,-4,-6,-3,-5,-2,-3,-4
1558441815186992,-1,1,4,7,3,2,7,-1
1558441815186992,0,-1,-1,-2,-2,-6,-3,-2
1558441815203376,-1,-2,-2,-6,-1,0,-9,-2
1558441815203376,0,0,3,3,1,-4,1,1
1558441815211433,-3,0,-6,-1,-3,0,-4,-3
1558441815211433,-3,-1,4,-3,2,4,5,1
1558441815226359,0,1,-1,6,0,-6,-5,0
1558441815226359,0,0,-3,-2,-1,9,-2,-1
1558441815226359,-5,-5,-2,1,-7,2,-14,-7
1558441815226359,0,-1,6,6,-3,-15,3,2
1558441815239853,1,1,4,4,15,13,13,4
1558441815239853,-1,-3,-4,-10,-6,-10,-2,-1
1558441815247860,1,0,-4,-3,-3,3,1,-2
1558441815247860,-2,0,-6,-4,-3,10,-7,-7
1558441815261792,-5,-5,-3,-6,-12,-10,-9,-5
1558441815261792,-1,-1,-3,0,4,0,1,-3
1558441815271108,1,0,3,0,2,4,-3,-3
1558441815271108,-2,1,-1,-2,-2,-5,-8,-4
1558441815285728,2,-1,0,0,-2,-9,1,0
1558441815285728,1,1,4,1,3,-11,-2,0
1558441815293039,-1,-1,-1,-1,6,7,6,1
1558441815293039,-1,-1,-2,-3,-1,1,4,1
1558441815300019,-3,-3,1,-3,-3,3,-1,-4
1558441815300019,-1,-5,-4,-3,-7,-3,-9,-2
1558441815307672,-1,0,5,5,-8,-6,-13,-5
1558441815307672,1,-3,-9,-3,6,-1,6,1
1558441815323627,0,2,0,-3,-2,-8,3,3
1558441815323627,0,-2,-2,-4,-4,-2,3,-1
1558441815330883,0,-2,2,2,5,8,3,2
1558441815330883,0,0,0,-5,-6,0,0,-2
1558441815346237,-5,-7,-8,-6,-8,5,-6,-6
1558441815346237,-1,0,0,-3,3,-6,1,-1
1558441815346237,0,2,0,2,8,3,7,5
1558441815346237,-2,-2,-1,-1,6,11,-2,-1
1558441815359909,1,-2,-4,-10,-16,-13,-6,-4
1558441815359909,-1,0,-1,12,3,2,-1,0
1558441815366923,-1,-2,-2,-6,1,2,2,0
1558441815366923,-1,1,2,5,5,9,3,2
1558441815383110,1,2,1,0,-1,-1,-2,-3
1558441815383110,-3,-4,-6,-7,-13,-10,-3,-4
1558441815390828,2,-1,1,3,1,-9,4,3
1558441815390828,4,5,6,2,2,-9,0,4
1558441815406108,-3,-3,-7,1,1,6,0,-1
1558441815406108,-1,1,3,-3,-1,5,-7,-3
1558441815406108,-4,-5,-9,-5,-3,6,1,-3
1558441815406108,0,-1,4,-1,-6,-23,-5,-1
1558441815419781,-2,-1,-4,0,4,8,4,-1
1558441815419781,0,1,2,-1,-5,2,-2,-1
1558441815427729,-1,0,3,-1,2,-2,-5,-2
1558441815427729,0,-1,-5,-1,-8,-3,-1,-2
1558441815443017,0,1,2,5,13,-1,5,3
1558441815443017,-2,-2,-7,-9,0,7,3,-2
1558441815450963,-1,0,5,2,-7,-5,-6,-3
1558441815450963,-3,-4,-9,-6,-4,3,-4,-4
1558441815464928,-4,-3,-4,-4,-8,-1,-8,-3
1558441815464928,-1,-3,0,0,9,10,6,3
1558441815489562,1,2,3,7,4,-17,0,3
1558441815489562,-3,-4,-6,-8,-4,5,-3,-6
1558441815490560,1,-1,-2,-3,-1,3,3,0
1558441815490560,-2,-1,-5,0,-5,-13,1,1
1558441815491557,-1,-1,3,3,2,15,4,-2
1558441815491557,-1,-1,-1,2,3,-3,-6,-2
1558441815502849,-2,-2,-3,-6,-7,4,-3,-5
1558441815502849,-1,-2,-1,-9,-9,-5,-2,0
1558441815511246,-1,1,-1,2,6,1,-4,-1
1558441815511246,-2,2,6,4,0,-4,1,-2
1558441815524874,2,3,1,-1,6,7,8,4
1558441815524874,0,-1,0,1,-2,2,-5,-4
1558441815533180,-6,-6,-8,-10,-9,-8,-6,-9
1558441815533180,-1,-1,1,0,5,9,8,4
1558441815539873,0,0,2,4,6,-17,-7,1
1558441815539873,-1,0,-4,-2,-5,-9,-4,-3
1558441815548133,0,0,4,9,-3,3,0,0
1558441815548133,0,0,0,-5,-3,8,-3,-2
1558441815563033,0,-4,-4,-2,-2,3,-2,-1
1558441815563033,0,1,5,6,7,4,5,0
1558441815571081,-2,0,-1,-8,-10,-7,-7,-4
1558441815571081,-2,-2,-6,2,2,-5,1,2
1558441815585035,-1,0,-1,4,0,-5,5,2
1558441815585035,-1,-5,-1,-6,-6,3,-5,-3
1558441815593878,-2,-4,-5,-5,-6,3,0,-2
1558441815593878,-2,1,1,2,1,-1,1,0
1558441815607654,0,2,2,-4,5,-9,4,0
1558441815607654,-7,-3,-5,-2,-4,0,-13,-3
1558441815608650,2,1,0,1,5,-9,10,4
1558441815608650,-1,-2,0,3,-7,-11,-14,-4
1558441815622615,-1,-2,-7,-16,-6,12,4,-3
1558441815622615,3,3,2,7,12,9,7,3
1558441815630664,-4,-1,1,-5,-12,-3,-7,-6
1558441815630664,1,-3,-6,-6,2,-1,-3,-2
1558441815645685,-3,-3,1,5,-4,-10,-4,0
1558441815645685,-1,0,-2,-4,2,-9,-2,1
1558441815653858,4,0,-5,-1,-6,4,-1,0
1558441815653858,-2,-3,2,-2,6,1,8,3
1558441815668814,-5,0,7,2,-3,0,-13,-4
1558441815668814,0,-2,-1,1,-7,-7,-2,-5
1558441815668814,-2,0,-7,-9,6,6,3,1
1558441815668814,-1,-1,-2,-1,-9,-10,-9,-6
1558441815682453,1,1,-4,1,2,10,8,1
1558441815682453,-1,-1,1,3,4,-5,-2,5
1558441815690433,-1,3,8,8,7,2,5,2
1558441815690433,1,0,-4,-3,-4,-4,0,-1
1558441815704393,-5,-4,0,-5,-5,3,-9,-6
1558441815704393,-2,0,-2,3,3,15,3,-3
1558441815720352,-1,-1,-3,-1,1,2,0,0
1558441815720352,-1,0,2,-2,-7,-5,-3,-1
1558441815729327,-1,-3,-5,1,-4,-7,-4,0
1558441815729327,0,-2,5,-5,-10,-16,-1,-3
1558441815730323,-2,-5,-9,-5,-4,-3,-2,-1
1558441815730323,-2,-1,0,-1,7,5,0,-2
1558441815743289,0,-1,1,-2,-2,2,-9,0
1558441815743289,2,2,0,3,0,6,15,4
1558441815751456,-1,-2,0,-2,-4,-12,-4,-1
1558441815751456,-3,-6,-4,-3,-14,-11,-14,-6
1558441815765640,2,1,-1,-7,6,12,11,1
1558441815765640,-2,-1,-5,0,9,-2,-2,1
1558441815773277,-2,-1,-2,-2,-6,-11,-10,-4
1558441815773277,-1,-3,-7,-5,-6,7,1,-3
1558441815788540,0,0,6,2,1,7,-1,-4
1558441815788540,1,-1,-4,2,1,3,2,-1
1558441815789167,1,1,-1,-1,3,2,3,2
1558441815789167,-2,-1,1,0,3,-2,-1,2
1558441815811499,0,-2,1,4,-2,0,-2,0
1558441815811499,-3,-1,-8,-8,-7,1,-3,-2
1558441815812107,0,0,-2,3,-2,-7,-1,1
1558441815812107,1,2,7,-1,5,-2,4,2
1558441815825439,-1,0,-6,2,3,8,1,-2
1558441815825439,-3,-2,-6,-3,0,-7,-2,0
1558441815833419,-2,-1,12,-2,-6,-15,-3,-1
1558441815833419,-1,0,-5,3,0,5,-3,-2
1558441815848385,-3,-3,-3,0,-10,-7,-11,-5
1558441815848385,1,-1,-3,-4,2,12,13,4
1558441815849008,1,-1,-1,0,3,-1,7,2
1558441815849008,-1,0,-5,-1,0,2,2,-1
1558441815863267,-1,2,3,1,1,-6,-3,-2
1558441815863267,-3,-2,1,1,-3,7,-7,-4
1558441815871323,-3,-1,1,1,1,15,1,-1
1558441815871323,1,0,-5,-7,-7,-13,1,-2
1558441815884913,1,0,-4,-1,3,-1,7,3
1558441815884913,0,2,3,-2,2,-3,0,0
1558441815892924,-3,-1,-4,-1,-1,5,-4,-4
1558441815892924,-4,-2,1,0,-6,1,-1,-3
1558441815907850,-1,-1,-7,-1,-3,-3,0,-1
1558441815907850,0,0,1,0,0,-3,4,0
1558441815908848,0,-2,-8,-7,-1,-7,-7,-3
1558441815908848,-2,-1,3,3,0,0,-3,0
1558441815923281,-1,-1,3,3,7,-1,3,4
1558441815923281,-3,-1,-3,-5,-9,-6,-7,-1
1558441815930789,-2,-4,-7,-4,-9,-1,-6,-3
1558441815930789,0,2,3,0,0,-7,6,0
1558441815945102,-1,2,1,2,9,5,5,2
1558441815945102,0,-2,3,-1,-6,-8,-10,-2
1558441815953783,1,-1,-5,1,5,8,6,4
1558441815953783,-1,-1,-1,-6,-2,8,-5,-4
1558441815968858,-6,-6,-9,0,-5,-7,-1,-5
1558441815968858,1,2,4,3,5,-8,-2,-1
1558441815968858,0,1,3,-2,1,-3,-1,0
1558441815968858,-1,-3,-2,-5,0,6,1,0
1558441815991837,-1,-1,2,-1,-5,-3,-5,-1
1558441815991837,-1,-4,-4,-1,4,4,-1,-3
1558441815991837,2,-1,3,0,0,-16,-5,-3
1558441815991837,0,0,0,5,-4,6,2,-1
1558441816013678,0,-2,-1,-1,1,11,0,1
1558441816013678,-1,-2,-5,-3,-6,-7,-3,-1
1558441816014564,-1,1,3,3,2,-3,3,2
1558441816014564,-1,-2,1,0,8,3,3,1
1558441816028858,0,2,3,-2,-1,-6,-2,-3
1558441816028858,-4,-3,-1,3,-5,-3,-2,-2
1558441816028858,-1,-1,-4,-5,1,15,3,-1
1558441816028858,0,-1,5,3,4,-10,6,0
1558441816042833,1,-3,-3,-3,-10,-7,-3,1
1558441816042833,-2,-1,-1,1,5,11,-2,-1
1558441816050813,-1,1,-2,-3,4,3,3,2
1558441816050813,-3,-4,-5,0,-10,-10,-12,-4
1558441816064752,-2,-3,-2,-6,4,6,1,-3
1558441816064752,-2,0,-6,-7,-11,-14,-5,-3
1558441816073409,1,0,3,6,3,0,3,-2
1558441816073409,1,3,3,4,12,14,6,-1
1558441816096396,-1,1,-2,-4,-8,-5,-12,-5
1558441816096396,-2,-3,-5,-2,-7,4,0,-2
1558441816097344,0,1,4,1,2,-14,0,2
1558441816097344,-3,-2,-7,-1,1,-1,0,2
1558441816103610,-2,-1,0,-1,-4,-4,-1,-1
1558441816103610,-3,0,-3,-6,-8,0,-12,-4
1558441816109314,-1,-1,-4,-2,0,6,10,0
1558441816109314,0,1,6,7,6,1,0,2
1558441816125268,1,3,1,2,4,-5,1,2
1558441816125268,-2,-3,1,-5,0,-1,2,-3
1558441816133628,-1,-4,-11,-6,-6,3,-3,-1
1558441816133628,-1,1,3,3,8,0,-4,0
1558441816148520,0,-3,-1,-6,-1,-11,2,0
1558441816148520,1,0,1,1,0,-4,1,2
1558441816149512,-1,-1,2,5,-1,8,-9,-4
1558441816149512,3,-1,-2,-1,-2,4,13,4
1558441816162507,-2,-1,-5,-4,-2,3,3,-3
1558441816162507,-1,0,-4,-1,1,3,-2,-4
1558441816170184,-2,-4,-7,-3,-7,-9,-6,-5
1558441816170184,0,-1,-5,-9,-9,-12,-6,-3
1558441816185453,-4,-3,0,-1,-5,0,3,-1
1558441816185453,2,3,6,7,9,0,7,6
1558441816193087,-1,-1,2,1,1,11,0,-3
1558441816193087,-1,-1,-4,-1,2,5,-2,-3
1558441816208048,-1,-1,-2,-4,-9,-13,-7,-3
1558441816208048,-2,-4,0,1,2,7,-2,-2
1558441816209045,-2,-2,3,1,-3,-2,-2,0
1558441816209045,-5,-4,-7,-9,-10,-2,-10,-4
1558441816222009,1,2,6,14,19,10,8,5
1558441816222009,-2,0,-3,-10,-1,-2,0,4
1558441816229987,1,0,2,-3,-4,1,-3,0
1558441816229987,-4,-2,-3,0,-10,-8,-5,-5
1558441816244947,-3,-2,-1,0,4,7,1,-3
1558441816244947,0,-2,-2,-1,1,-2,6,0
1558441816252931,-1,-1,-1,-3,0,-6,-3,1
1558441816252931,-2,-3,1,-3,-5,-4,-6,-4
1558441816268052,1,3,1,6,-3,0,-6,-2
1558441816268052,0,1,2,2,0,-4,-1,0
1558441816268888,1,-1,1,5,6,-7,1,1
1558441816268888,1,1,0,-7,-6,-11,-1,2
1558441816282018,0,-1,-4,-5,1,3,-1,-1
1558441816282018,-2,-2,2,0,-5,5,-3,-5
1558441816289832,-4,-4,-13,-11,-14,-14,-6,-6
1558441816289832,-1,-3,-4,4,9,11,3,2
1558441816305070,-2,-3,-3,-4,1,6,1,1
1558441816305070,-1,-2,-3,-2,-7,-7,-4,-4
1558441816313800,-1,1,9,4,-1,-2,1,-1
1558441816313800,0,1,1,-1,4,7,0,1
1558441816328764,-3,-4,-4,-3,-14,-13,-17,-5
1558441816328764,-1,-2,-4,0,1,-2,2,2
1558441816328764,-1,0,2,-1,-1,4,0,1
1558441816328764,-1,0,0,-2,-3,-12,-2,-2
1558441816343055,1,0,3,2,2,-5,-1,4
1558441816343055,0,4,-1,-3,2,1,0,0
1558441816350049,0,1,-3,6,-4,-7,-3,-2
1558441816350049,-2,-1,1,-9,0,8,9,1
1558441816364629,-1,-4,-4,-2,-8,-8,-1,-3
1558441816364629,1,-1,0,3,4,11,2,-1
1558441816372975,-1,-4,-2,-6,5,4,4,1
1558441816372975,-1,-2,-2,4,3,7,-3,-2
1558441816388860,-1,-1,0,-3,-6,-13,-4,-3
1558441816388860,-1,0,1,-2,-3,2,0,-3
1558441816388860,-2,-2,-4,0,-1,3,-6,-2
1558441816388860,-1,-2,-4,-7,-4,-5,4,2
1558441816402881,1,1,4,4,9,7,9,2
1558441816402881,-1,-1,-3,-1,-3,-4,-3,-4
1558441816418849,-1,2,4,0,4,8,6,-1
1558441816418849,-2,-2,0,0,-10,-12,-10,-3
1558441816424469,-1,-3,-7,-3,3,-13,0,-2
1558441816424469,2,-1,2,5,4,1,-4,0
1558441816433803,-3,-2,-1,-8,-4,-2,-5,-3
1558441816433803,0,0,-2,0,3,2,3,-1
1558441816447407,-1,1,9,5,-9,-4,-3,-1
1558441816447407,-1,-1,-5,1,2,-2,-2,-3
1558441816455708,-3,-5,-6,-6,-3,-12,-5,-2
1558441816455708,0,1,1,-1,-1,1,0,2
1558441816462673,0,-1,-4,0,0,3,1,-2
1558441816462673,0,-2,1,1,3,0,-1,-1
1558441816470006,-1,-1,-2,-5,-9,-3,-3,-1
1558441816470006,-4,-3,-3,-3,-1,7,0,-5
1558441816494104,-2,0,4,-4,7,10,6,1
1558441816494104,1,3,-2,0,4,-11,4,5
1558441816495106,-1,-1,-2,2,0,0,-4,-4
1558441816495106,-2,-2,-6,-7,-4,-3,-7,-3
1558441816507074,-2,-3,-4,-4,-8,1,-3,-5
1558441816507074,-1,-3,-1,-3,-4,-7,-2,-1
1558441816515053,2,-3,2,2,2,4,3,1
1558441816515053,1,1,2,4,2,3,-1,2
1558441816522035,-2,1,-3,-1,-2,-1,-2,1
1558441816522035,0,-1,0,-2,-2,-2,-1,-2
1558441816538345,-2,0,-1,0,0,1,2,-1
1558441816538345,-2,-2,-1,-2,-1,0,1,-1
1558441816545324,0,-1,-1,1,-7,1,-12,-3
1558441816545324,0,-3,-1,-8,-10,-10,-4,1
1558441816553301,3,2,2,4,18,3,18,9
1558441816553301,1,2,4,6,12,-5,6,2
1558441816576928,-4,-1,-4,1,2,-3,-2,-4
1558441816576928,-5,-5,-6,-11,-12,0,-7,-5
1558441816576928,-3,-4,-4,2,-10,5,-9,-7
1558441816576928,2,-1,-2,-4,-8,-4,-5,-1
1558441816583054,1,3,5,4,12,-6,3,4
1558441816583054,-3,1,0,6,0,8,-1,-5
1558441816589857,-5,-5,-5,-10,-8,-7,-6,-4
1558441816589857,-3,-1,-2,-3,-2,-5,-6,0
1558441816605167,0,0,-1,-2,-7,0,-3,-1
1558441816605167,1,1,1,1,3,4,5,2
1558441816613129,1,2,-2,0,3,-5,-1,2
1558441816613129,-2,-2,2,2,-6,-3,-7,-5
1558441816628007,-1,-3,-1,-6,3,12,5,2
1558441816628007,1,2,2,9,8,-12,3,3
1558441816643825,2,3,5,2,5,2,4,1
1558441816643825,-1,-4,-3,-5,-11,-10,-5,-7
1558441816650690,-3,-1,-1,-3,-4,8,5,-2
1558441816650690,-1,-2,-10,-2,-2,5,-2,-1
1558441816651716,-2,0,0,-4,-5,-7,-9,-5
1558441816651716,0,1,6,11,6,1,4,1
1558441816664753,0,-1,-5,-11,-1,4,1,0
1558441816664753,-3,-5,-1,-2,-6,-2,-3,-6
1558441816672961,1,0,-5,-5,-5,4,1,2
1558441816672961,-1,0,0,1,1,4,2,-1
1558441816687920,-2,-2,-1,1,-3,-12,-6,-3
1558441816687920,-2,-1,-1,-1,1,-4,-1,0
1558441816695896,-4,-3,-4,-4,-8,-1,-9,-5
1558441816695896,2,0,3,2,7,10,4,2
1558441816710834,1,0,-2,3,6,7,6,1
1558441816710834,0,-1,1,-4,8,-2,2,0
1558441816711528,1,1,5,6,4,-11,2,1
1558441816711528,-4,-4,-6,-8,-9,-1,-3,-2
1558441816733780,-4,-3,-9,-6,-10,-5,-9,-4
1558441816733780,1,1,0,0,2,5,0,0
1558441816734466,1,-1,0,2,1,-4,-4,-5
1558441816734466,-1,-3,-4,-7,-7,-7,-6,-3
1558441816747532,-2,-1,8,6,3,-1,6,2
1558441816747532,-3,-3,1,-1,-5,-3,-3,-2
1558441816755408,-2,-3,-8,-12,-7,2,-4,-1
1558441816755408,0,1,-3,1,1,-2,-1,2
1558441816770400,1,2,4,3,2,-2,-3,0
1558441816770400,1,-2,-2,-6,4,1,5,2
1558441816771368,-1,-1,5,3,4,3,-1,-4
1558441816771368,-3,-3,-5,-9,-7,-3,-5,-4
1558441816785542,2,0,-3,2,-3,-2,-4,-2
1558441816785542,-3,-2,-7,-4,-6,-7,1,-3
1558441816793309,1,0,0,1,-2,-6,-5,3
1558441816793309,-1,-3,-1,-3,1,-1,6,5
1558441816807271,-2,-2,0,3,0,-4,3,-1
1558441816807271,-4,-4,-1,-3,-7,3,-6,-3
1558441816823227,-1,-3,-5,-3,-2,5,5,0
1558441816823227,-2,1,3,5,5,-7,-3,-5
1558441816830210,-1,0,-1,-3,4,6,1,1
1558441816830210,-2,-4,-3,0,-4,-5,-2,0
1558441816831206,-4,-1,-1,-2,-4,2,-3,-3
1558441816831206,0,2,-1,-2,0,3,2,0
1558441816845167,0,-3,-4,0,-1,-3,-2,-2
1558441816845167,2,0,7,2,2,-4,0,-2
1558441816853148,1,3,6,3,7,10,3,0
1558441816853148,-2,-3,-9,-6,-6,6,-5,0
1558441816867110,-2,-2,-4,1,-3,-7,-2,0
1558441816867110,-1,0,-1,-4,-1,4,-4,-3
1558441816876087,1,-1,4,1,-11,-22,-5,-3
1558441816876087,-1,-3,-8,-6,-1,-1,-7,-4
1558441816890048,-3,-3,-2,-5,-7,1,-1,-6
1558441816890048,1,1,5,5,4,-12,3,4
1558441816898085,-1,-3,-3,0,8,7,3,0
1558441816898085,-1,-1,3,-1,-1,0,4,1
1558441816905007,-2,-1,-4,-5,-6,-5,-10,-4
1558441816905007,-3,-4,-6,-3,-8,2,-7,-6
1558441816912988,-1,-1,4,2,0,-5,0,2
1558441816912988,3,1,1,7,20,14,16,7
1558441816926952,2,2,-2,-2,6,3,1,1
1558441816926952,-1,-2,2,2,-6,-7,-7,-3
1558441816942911,-3,-2,-9,-12,-12,2,-2,-3
1558441816942911,-5,-8,-4,-1,-4,0,-1,-3
1558441816951883,1,0,4,-1,-2,-8,3,2
1558441816951883,4,1,-1,6,13,14,6,2
1558441816952914,-1,-2,-4,-2,-5,4,-4,-1
1558441816952914,-2,1,4,5,1,-3,-8,-2
1558441816964882,-2,0,3,-3,-6,-8,-2,0
1558441816964882,-2,-2,-7,-16,-7,-7,-4,1
1558441816972826,0,-2,4,5,5,5,4,1
1558441816972826,-3,-2,-14,-4,-5,2,-5,-4
1558441817003778,1,2,3,5,8,9,3,0
1558441817003778,-5,0,-5,1,-2,-7,-4,-1
1558441817004776,-1,-1,1,1,-2,-5,0,-3
1558441817004776,2,3,7,1,1,-1,0,0
1558441817010759,-1,-2,-2,-4,-3,0,-2,-3
1558441817010759,-2,-1,1,-1,1,6,1,-2
1558441817010759,-1,-3,-3,-1,5,5,-7,-3
1558441817010759,-3,-2,3,4,-15,-18,-5,-3
1558441817024723,0,-4,2,7,11,7,10,5
1558441817024723,-2,-1,-9,-13,-6,-3,-4,-2
1558441817032701,-1,-1,-2,0,-1,3,-1,-3
1558441817032701,-1,0,-1,-4,-3,-2,-3,-3
1558441817047626,0,-2,-3,-2,-5,-14,-10,-4
1558441817047626,1,5,6,15,6,2,8,2
1558441817062621,-5,-6,-3,-9,-7,-7,-8,-4
1558441817062621,2,1,3,2,3,6,5,2
1558441817070603,0,-1,-1,-3,0,1,-3,0
1558441817070603,1,0,1,1,-1,-9,-5,1
1558441817071596,3,2,-6,-3,3,6,7,3
1558441817071596,0,-1,2,0,-2,-2,2,1
1558441817084562,-2,-3,0,-2,-4,-4,0,-4
1558441817084562,-2,-3,-1,-1,-6,-4,-7,-3
1558441817092541,-4,-4,-6,-7,-4,2,1,-2
1558441817092541,1,1,2,0,0,-10,0,3
1558441817107467,0,-2,-4,-6,3,5,0,0
1558441817107467,-1,-2,-2,-3,-4,1,-1,-1
1558441817123424,1,-2,5,5,-1,-4,4,1
1558441817123424,2,1,-1,-3,1,8,-6,-2
1558441817130406,-3,-2,-2,-4,-6,2,-3,-1
1558441817130406,-3,-3,-3,2,-1,-6,-3,1
1558441817131429,1,1,3,3,5,-4,5,4
1558441817131429,0,0,2,7,13,8,4,-2
1558441817144372,-2,2,0,-1,0,-4,-3,-2
1558441817144372,-4,-4,-5,-11,-10,-2,-7,-6
1558441817153346,-1,1,-4,5,3,8,0,-1
1558441817153346,-1,1,-9,-15,-9,-11,0,0
1558441817176284,-3,-3,1,-1,1,-5,1,0
1558441817176284,1,-1,1,5,-2,4,2,0
1558441817177280,-2,-1,-7,-1,-2,-11,-5,0
1558441817177280,0,0,1,1,2,1,2,-2
1558441817190245,-1,-1,0,-1,-5,-5,-7,-1
1558441817190245,-1,-4,-3,-5,-6,-4,-2,-1
1558441817191242,-3,-2,6,-2,-7,-3,-10,-7
1558441817191242,-2,-2,-12,-2,-3,-6,0,-1
1558441817204207,0,1,1,-5,6,4,2,2
1558441817204207,0,-2,3,7,9,9,6,1
1558441817220164,1,1,-4,-3,-1,0,0,-1
1558441817220164,-3,-3,3,-3,-6,-15,-8,-3
1558441817227172,-3,-3,-6,-1,-11,-9,-10,-6
1558441817227172,2,3,8,8,10,8,2,1
1558441817235124,-5,-2,-12,-7,1,10,4,-1
1558441817235124,-1,-1,3,7,-2,-2,0,-1
1558441817251082,1,1,-1,-2,-1,-6,3,1
1558441817251082,-3,-4,-5,-5,-3,6,1,-2
1558441817251082,1,0,2,1,1,-4,-4,1
1558441817251082,1,1,-3,-1,2,-2,0,-1
1558441817265046,1,1,0,-2,-5,-5,-1,-5
1558441817265046,2,1,0,0,4,8,-1,-1
1558441817273023,0,0,3,4,-3,-2,7,2
1558441817273023,-5,-3,-5,-10,-7,-3,-8,-3
1558441817286987,-1,-3,-3,0,5,12,4,2
1558441817286987,2,3,-1,-3,-1,-18,-1,4
1558441817294965,-1,-1,2,-7,-4,-9,-4,-2
1558441817294965,-1,-3,-7,-1,-5,8,-3,-4
1558441817318901,-4,-2,-2,-1,-5,7,6,-2
1558441817318901,0,1,-3,-2,3,-1,5,0
1558441817318901,1,0,2,9,11,-7,5,5
1558441817318901,-3,0,2,-3,-7,-10,-7,-3
1558441817324887,-1,-2,-3,-8,-9,-8,-13,-4
1558441817324887,1,-2,0,-1,-2,7,8,1
1558441817332863,-5,-3,1,8,-5,4,-6,-7
1558441817332863,-1,0,-1,-13,8,2,1,-2
1558441817346825,1,0,-6,5,9,-1,2,2
1558441817346825,-2,1,8,-1,-2,3,-1,-2
1558441817355802,0,-1,-9,-5,-4,-8,-3,-1
1558441817355802,-1,-4,-4,2,2,11,2,4
1558441817369764,-2,-2,3,2,-2,-2,-1,-3
1558441817369764,-3,-2,-5,-5,-5,-16,-6,-3
1558441817377743,-2,-2,-2,-5,-6,-1,-6,-3
1558441817377743,3,2,3,2,3,7,-2,1
1558441817384724,0,0,-3,4,7,12,9,5
1558441817384724,-1,-2,-1,-2,-3,-2,-4,0
1558441817393700,-2,1,2,-2,-1,-12,0,-1
1558441817393700,-2,-1,0,0,0,2,2,-2
1558441817407664,-1,-3,3,4,2,4,0,-2
1558441817407664,-1,1,-8,-8,4,8,1,-2
1558441817415641,-2,-3,-3,-5,-2,0,-1,0
1558441817415641,-1,-3,0,-3,-8,-2,-2,-2
1558441817429604,0,0,-1,-1,-3,-10,-9,-3
1558441817429604,-2,-2,-1,3,5,2,3,0
1558441817437582,1,0,1,-1,4,5,4,3
1558441817437582,0,1,1,2,-4,-2,-2,-3
1558441817444564,-2,1,4,0,-9,-9,-8,-3
1558441817444564,-3,-4,-8,-4,-5,-5,-6,-2
1558441817452542,-2,0,-2,-1,1,8,4,1
1558441817452542,1,-2,-1,2,-3,-10,-5,1
1558441817467503,-1,-3,0,-4,5,-3,1,2
1558441817467503,-1,-1,-5,1,-1,0,-1,-4
1558441817475481,-3,-2,0,-7,-4,-2,-1,-3
1558441817475481,-5,-2,-7,-5,-11,-10,-2,-3
1558441817489445,-3,-2,-6,-4,-2,12,-2,-5
1558441817489445,1,3,8,9,3,0,6,3
1558441817498430,0,-3,3,-3,6,-4,-1,-1
1558441817498430,-3,-4,-6,-3,-4,-7,-8,-1
1558441817513414,1,0,-2,-3,-2,2,4,1
1558441817513414,-1,-1,-1,4,4,-3,-2,-4
1558441817514394,-2,-2,-1,-8,-12,3,-4,-4
1558441817514394,0,0,6,6,8,8,3,3
1558441817527378,2,1,-6,-6,-1,-5,-4,0
1558441817527378,-1,-2,1,-2,-7,-2,-2,-3
1558441817535322,-2,1,-2,1,0,-8,-5,-3
1558441817535322,0,-3,-3,-2,-2,2,4,1
1558441817549285,-1,0,4,6,10,8,6,2
1558441817549285,-1,-1,2,-3,-2,-8,-2,-2
1558441817558260,3,0,0,3,-3,-1,-3,1
1558441817558260,-3,-7,-5,-7,-5,-3,-2,-4
1558441817573221,1,1,6,3,3,5,4,2
1558441817573221,0,0,-2,0,-7,-6,-7,-3
1558441817574219,1,-1,-1,2,3,-1,1,0
1558441817574219,-3,3,7,5,8,2,11,0
1558441817587217,-3,-3,-4,-8,-10,-3,2,-2
1558441817587217,-1,1,-4,0,5,7,1,1
1558441817595196,2,-1,-6,-12,-1,5,1,0
1558441817595196,-2,-4,-2,5,-2,-6,0,-1
1558441817610156,2,0,3,-1,4,-8,-1,2
1558441817610156,-2,-3,1,4,3,2,-3,-2
1558441817618102,-2,-2,-2,-1,-3,3,-4,-4
1558441817618102,0,1,0,0,0,1,0,0
1558441817634058,-4,-3,-1,-3,-14,-20,-13,-5
1558441817634058,-2,-2,-8,-7,-3,10,-2,0
1558441817634058,0,4,3,5,11,-6,7,5
1558441817634058,-1,-1,1,0,3,2,-6,-3
1558441817647022,-1,-1,-4,-3,-6,1,0,-4
1558441817647022,-1,-1,1,-2,-8,-6,4,1
1558441817655999,1,-1,1,1,2,2,0,0
1558441817655999,-3,0,-4,1,1,9,1,-2
1558441817669963,-1,1,-3,-4,3,1,0,0
1558441817669963,-1,-4,-2,-8,-2,-13,-7,-1
1558441817677940,-3,-2,0,3,1,13,2,-5
1558441817677940,3,-3,2,-1,-4,-2,-5,0
1558441817693924,-2,-3,-8,-1,-5,-5,1,-2
1558441817693924,-3,-2,0,-2,-7,-12,-3,-3
1558441817694896,0,1,1,0,5,8,1,1
1558441817694896,2,1,1,-1,5,1,-1,1
1558441817706864,-3,-2,-1,-4,-4,-4,-10,-4
1558441817706864,-1,-3,-9,-3,-4,14,-2,0
1558441817715848,0,-3,-1,3,1,-13,6,0
1558441817715848,1,0,1,2,0,-1,1,-1
1558441817729808,1,0,-1,-1,-4,-7,-3,-3
1558441817729808,-2,-1,-1,-1,1,-3,0,0
1558441817737786,-2,-4,-4,-3,-10,2,-12,-4
1558441817737786,0,2,1,1,4,6,6,2
1558441817753744,3,3,5,5,13,-1,6,4
1558441817753744,0,0,3,0,-4,-6,-5,-3
1558441817754736,-3,-3,-8,-7,-4,6,1,-3
1558441817754736,-6,-1,-1,-2,-9,-11,-10,-4
1558441817767702,-1,-1,-1,0,5,5,-3,-1
1558441817767702,1,1,6,5,3,1,4,3
1558441817775680,0,1,4,1,0,-2,2,0
1558441817775680,-2,-1,-10,-7,-6,-6,-3,-3
1558441817789655,-1,-3,0,2,-2,0,-3,0
1558441817789655,-1,-2,-4,-9,1,4,-3,1
1558441817797620,2,1,4,10,4,-16,-2,3
1558441817797620,0,1,0,-7,1,-1,0,-2
1558441817813578,-3,-4,-6,-4,-7,-2,-13,-6
1558441817813578,-1,-1,0,2,-4,-4,-3,-5
1558441817814576,-3,-2,-3,-5,-7,0,0,-2
1558441817814576,4,4,7,6,13,6,13,5
1558441817836516,1,0,-3,-3,2,3,-3,1
1558441817836516,-1,-2,-3,-6,-5,-8,-2,-1
1558441817837513,-2,-2,0,3,-6,-5,-9,-6
1558441817837513,-1,-1,-3,-7,-9,-7,-8,-3
1558441817849481,-4,-4,-7,-4,-9,-2,-4,-5
1558441817849481,2,1,1,5,1,-7,4,5
1558441817857461,1,3,-4,-7,9,10,11,4
1558441817857461,1,-2,8,3,-1,0,2,-1
1558441817872420,-4,-1,-5,-8,-4,0,-1,-1
1558441817872420,-1,-4,-7,-1,-7,1,-9,-5
1558441817881397,4,4,4,4,9,-6,5,4
1558441817881397,-4,-4,-2,-1,-2,2,-4,-3
1558441817887381,0,-1,2,3,2,-2,1,0
1558441817887381,-3,-1,-4,-2,-3,-4,-5,-3
1558441817896356,-4,-3,-8,-7,-7,19,-3,-2
1558441817896356,1,-1,-4,-3,-3,-20,8,3
1558441817909321,3,0,11,12,1,-13,4,3
1558441817909321,0,-2,-4,-2,-2,3,0,-2
1558441817918297,-4,-2,2,-2,1,1,-4,-3
1558441817918297,-3,-1,-3,-1,-4,-1,-8,-3
1558441817932260,-2,-4,-4,1,-3,1,6,2
1558441817932260,1,1,6,3,1,6,7,2
1558441817941239,-3,-4,0,4,3,9,-10,-5
1558441817941239,2,1,1,3,8,8,5,4
1558441817947220,-1,0,-1,-8,-4,-11,-8,-5
1558441817947220,0,-2,-4,-1,-2,0,-1,-1
1558441817956199,-1,1,-1,-1,-2,0,-1,-3
1558441817956199,-4,-1,2,0,-3,-6,-2,0
1558441817970158,-1,-2,-4,-5,3,12,0,-1
1558441817970158,0,0,5,1,5,-5,1,0
1558441817986118,1,-1,1,-8,-8,-15,-6,-5
1558441817986118,-4,-6,-6,2,-6,5,6,-5
1558441817992105,1,2,10,4,12,15,8,4
1558441817992105,-2,-1,-10,-8,-8,-8,-2,1
1558441818001078,2,1,2,6,11,2,13,8
1558441818001078,-1,-1,1,4,-2,0,-9,-8
1558441818007063,-4,-5,-8,-9,-12,-4,-9,-6
1558441818007063,1,2,4,2,3,8,5,3
1558441818016037,3,0,0,1,1,-8,-1,-1
1558441818016037,-2,-2,-4,-6,-2,3,0,0
1558441818030000,0,-1,-2,2,-1,-1,3,-1
1558441818030000,-1,0,0,2,14,7,1,1
1558441818038975,-1,-2,-3,-2,-4,-1,-2,-1
1558441818038975,0,-2,-5,-5,3,4,-2,0
1558441818051940,-1,0,2,9,-9,-5,2,-1
1558441818051940,-2,-2,-4,-14,-1,0,-2,-2
1558441818060921,-1,3,-3,0,-1,3,-5,-3
1558441818060921,-5,-3,-1,-3,0,-5,-6,-4
1558441818066900,-3,-2,-5,-8,-9,-15,2,1
1558441818066900,0,1,-2,7,5,9,7,-1
1558441818075876,0,0,1,-4,-10,-11,-2,-2
1558441818075876,0,0,2,-1,-5,-11,-22,-1
1558441818098814,2,2,3,7,20,10,17,6
1558441818098814,0,-4,1,-2,-11,-5,-4,-1
1558441818099811,-3,-7,-7,-9,-7,4,-2,-5
1558441818099811,1,1,-11,0,-1,5,2,1
1558441818111781,-3,0,4,1,-5,-7,-9,-3
1558441818111781,-1,0,2,2,2,-5,-4,-1
1558441818120756,-1,-2,-2,-1,-4,-3,-1,0
1558441818120756,0,-1,-2,-3,-6,-10,2,-1
1558441818126741,1,0,-2,-1,4,10,-3,-3
1558441818126741,-4,-4,-1,2,-1,-2,-6,-6
1558441818143696,0,-4,-3,-3,-5,-14,-4,-1
1558441818143696,1,1,2,0,1,7,12,5
1558441818149679,0,1,-2,0,0,4,-2,1
1558441818149679,-1,-3,-5,-7,-2,-7,1,3
1558441818158655,1,1,-2,-1,6,-6,-3,-1
1558441818158655,-5,1,-1,0,0,3,1,-4
1558441818172618,-4,-1,-2,-4,-4,4,-5,-7
1558441818172618,0,0,1,0,-3,0,0,-2
1558441818181599,-4,-3,-1,0,-5,-11,-9,0
1558441818181599,-2,-2,0,-2,0,4,14,2
1558441818187578,0,-2,-1,-2,1,0,-1,-2
1558441818187578,0,2,4,6,10,12,9,5
1558441818196554,1,1,1,1,-1,-10,1,1
1558441818196554,1,-1,-1,-5,-2,-4,-10,-4
1558441818209518,-1,0,-5,-2,-1,-2,1,-1
1558441818209518,-3,-1,-1,-3,-5,-5,-6,-3
1558441818218494,-3,-1,-1,0,-4,5,-3,-4
1558441818218494,0,-1,-3,5,0,4,-2,-1
1558441818232457,-1,-5,-1,1,3,0,-1,0
1558441818232457,-1,-2,0,-5,1,4,1,-5
1558441818241433,-2,-3,3,-3,-7,-6,2,2
1558441818241433,-2,-1,-10,-4,-5,-11,-4,-2
1558441818247418,0,0,0,1,2,8,2,1
1558441818247418,1,1,3,10,0,-13,-8,-3
1558441818256393,-3,-3,0,-10,-3,4,-2,-1
1558441818256393,1,-1,-6,-3,2,6,4,1
1558441818269358,-2,0,-6,-1,-4,-1,1,0
1558441818269358,-1,-1,0,-2,-8,-11,-7,-2
1558441818278334,2,3,0,3,9,1,8,2
1558441818278334,-1,-1,5,0,-5,-9,-15,-2
1558441818292296,-2,0,3,-2,0,5,4,2
1558441818292296,-2,-4,-11,-6,1,8,0,-4
1558441818301273,-3,-3,0,2,2,-3,-3,-4
1558441818301273,-1,-1,3,-1,-2,-7,-4,0
1558441818307260,1,-1,-2,-2,-11,-18,-5,-1
1558441818307260,-1,0,4,1,3,7,0,-2
1558441818316233,1,1,2,9,15,13,8,2
1558441818316233,-3,-2,2,-4,3,3,0,-2
1558441818329198,-5,-6,-4,-2,-9,-11,-8,-5
1558441818329198,-1,0,-1,-8,-5,-1,3,-1
1558441818345156,-3,-5,-7,-2,-2,-2,-12,-3
1558441818345156,3,1,5,2,1,-3,-1,0
1558441818352138,-2,0,5,3,4,1,-1,0
1558441818352138,-1,-2,-9,-6,2,7,2,0
1558441818361113,-4,-1,-1,-5,-14,-2,-5,-7
1558441818361113,0,-1,-1,-3,-2,-7,1,0
1558441818367100,0,-2,0,-5,-2,-6,-6,-1
1558441818367100,2,0,2,4,13,15,7,6
1558441818376074,0,-1,0,1,-2,-3,2,-2
1558441818376074,-3,-2,2,4,-4,0,-1,-1
1558441818390035,1,0,-4,-15,-5,-10,-4,-2
1558441818390035,2,2,2,-2,3,-6,-1,3
1558441818399012,1,0,-9,-6,-4,-4,1,-1
1558441818399012,-3,-4,3,3,0,6,-4,-6
1558441818411977,0,-1,2,1,-3,2,0,1
1558441818411977,-3,-3,-7,4,-1,-3,7,-1
1558441818420955,0,1,4,-1,3,-2,7,4
1558441818420955,2,3,1,-4,1,-9,-7,2
1558441818426937,-2,-1,2,2,0,1,-1,-2
1558441818426937,-2,-3,-5,1,-2,-2,-5,0
1558441818435913,1,-2,1,-3,-4,1,3,2
1558441818435913,-1,-5,-6,-3,1,-1,2,-1
1558441818449875,-3,-2,-5,0,3,4,-3,-1
1558441818449875,3,1,6,6,-6,-6,-3,-3
1558441818458855,-2,-4,-4,-7,-3,-19,-10,-2
1558441818458855,1,-2,-2,-3,1,0,0,-3
1558441818472814,0,0,1,5,4,10,5,1
1558441818472814,-3,-2,-1,-9,-8,-14,-11,-3
1558441818480793,-2,-2,-1,0,-4,2,9,-1
1558441818480793,0,0,2,3,-3,6,1,-1
1558441818495753,1,0,-1,-3,-1,-4,-1,3
1558441818495753,-3,-4,-1,-4,-2,-5,-6,-3
1558441818497749,2,2,4,12,18,16,10,4
1558441818497749,-2,-2,-5,-10,-8,-7,-4,0
1558441818509715,-3,0,-6,-3,-4,3,1,-2
1558441818509715,-5,-3,-1,-1,-7,-9,-3,-2
1558441818518692,-3,-1,1,2,-3,0,-8,-4
1558441818518692,0,-1,-2,-7,4,10,9,1
1558441818532654,0,-4,-3,-1,-4,-10,-3,-2
1558441818532654,-2,-1,-4,-5,-4,1,-2,-3
1558441818540633,0,1,-1,-2,-4,0,-3,-1
1558441818540633,-1,3,4,6,2,-12,-10,-1
1558441818556595,-1,-3,-4,-4,2,7,7,0
1558441818556595,3,1,3,0,3,8,2,-1
1558441818557588,0,-3,0,5,3,-11,-3,0
1558441818557588,1,-2,-3,1,2,10,8,3
1558441818569561,-2,-1,-4,-3,-6,-6,-3,-5
1558441818569561,0,-1,4,3,0,-3,0,-1
1558441818578532,-1,0,-5,-6,-1,8,-2,-2
1558441818578532,-1,-1,2,2,-4,-4,-2,0
1558441818601470,-2,-1,0,1,2,1,-3,-1
1558441818601470,-3,-2,3,-2,-5,0,-6,-1
1558441818602467,-3,-3,-11,-7,-8,-6,-3,0
1558441818602467,-1,0,-2,-1,2,6,2,-2
1558441818623427,-1,-3,2,-1,1,5,3,-1
1558441818623427,-2,-1,-4,-3,-4,-12,-5,-2
1558441818625407,-1,-1,2,0,1,-7,-4,-1
1558441818625407,-1,0,-1,-2,0,0,1,-2
1558441818629399,-1,1,2,0,-9,-5,-12,-2
1558441818629399,-4,-2,-6,1,-6,3,1,-3
1558441818638372,3,3,7,4,24,24,15,6
1558441818638372,-1,0,-4,-5,-2,-5,2,2
1558441818652333,1,0,-1,1,0,-11,4,0
1558441818652333,-3,-3,-2,-6,-7,-9,-6,-5
1558441818661311,-3,-3,-4,0,-8,7,-5,-5
1558441818661311,-2,1,6,4,7,12,-4,0
1558441818676274,-1,0,-5,-5,-5,-18,-4,-1
1558441818676274,2,1,0,6,9,11,3,5
1558441818677267,1,-2,-4,-10,-1,6,4,-1
1558441818677267,-2,-4,1,8,-6,-11,-8,-4
1558441818689235,-4,-3,1,-1,1,6,-1,-2
1558441818689235,0,-1,-3,4,-1,-8,1,0
1558441818698213,-5,-2,1,0,-6,-11,-7,-5
1558441818698213,0,-3,-7,-6,-6,5,2,-1
1558441818712186,-1,2,4,7,9,11,1,0
1558441818712186,-1,-2,-6,-5,0,-7,1,0
1558441818721153,-5,-4,-2,-3,-7,-6,-6,-5
1558441818721153,2,0,-4,-4,1,-10,3,1
1558441818736122,0,-1,4,1,0,4,-2,-2
1558441818736122,-1,-4,1,-2,1,13,-5,-2
1558441818738111,-1,-3,-6,-3,-6,-4,-9,-1
1558441818738111,-1,1,1,4,-4,-6,3,0
1558441818759056,-1,-1,-1,-7,0,-2,6,0
1558441818759056,-4,-3,-10,-6,-7,-6,-6,-5
1558441818760047,2,-1,0,-8,-4,-10,3,2
1558441818760047,0,-1,3,6,9,13,9,0
1558441818772013,1,1,1,5,1,-6,-6,-3
1558441818772013,-2,0,-2,-7,0,1,3,-1
1558441818780991,-2,0,5,4,0,3,-5,-3
1558441818780991,-3,-1,-5,-5,-1,-5,3,0
1558441818795959,0,-2,-2,-3,-5,3,0,-2
1558441818795959,0,-1,-1,-1,-1,0,-4,-6
1558441818797944,3,2,1,5,9,12,9,5
1558441818797944,-4,-4,3,-4,-8,-13,-9,-2
1558441818809922,-2,-2,-6,3,-5,1,-3,-2
1558441818809922,0,2,1,3,4,11,8,1
1558441818818889,-2,-1,6,1,-4,-8,-7,-3
1558441818818889,0,-3,-3,3,13,16,4,2
1558441818832856,0,1,0,-1,1,-4,0,2
1558441818832856,-2,2,4,0,-7,-1,-4,0
1558441818848809,-1,-1,-3,-1,-5,4,-7,-7
1558441818848809,-2,-1,-1,-4,-4,-8,-6,-4
1558441818855791,1,-3,-2,0,4,-10,7,3
1558441818855791,1,0,5,7,8,3,0,2
1558441818857786,-9,-7,-14,-7,-18,-10,-17,-7
1558441818857786,-1,-1,-2,-2,-3,-1,0,3
1558441818869759,-2,0,0,0,-1,8,-2,-3
1558441818869759,0,-1,-2,-5,-2,-6,2,-1
1558441818878729,0,2,6,6,7,7,1,1
1558441818878729,1,-2,0,1,2,9,-2,-3
1558441818892696,-2,-2,-4,-4,-7,-8,-6,1
1558441818892696,1,-2,2,1,4,3,6,3
1558441818901671,0,0,-3,-4,-7,-15,6,4
1558441818901671,0,0,1,0,5,10,4,-1
1558441818915635,2,-1,0,0,0,-7,0,0
1558441818915635,1,1,-1,-6,-2,1,0,1
1558441818917625,-3,0,-5,-2,-3,-7,-3,-2
1558441818917625,-2,-3,-4,-2,-9,-6,-7,-3
1558441818929593,-5,-2,6,-3,-5,-3,-4,-2
1558441818929593,-2,-3,-5,-1,8,0,0,2
1558441818938570,-2,-1,-3,-1,0,2,4,-2
1558441818938570,-2,-1,-2,-3,-6,-7,-6,-4
1558441818952531,0,-2,-5,-6,3,2,-15,-2
1558441818952531,2,1,7,4,-2,-7,4,0
1558441818961513,0,-2,4,5,9,4,8,3
1558441818961513,-1,-1,-4,-6,-2,0,-4,-3
1558441818976469,-4,-4,-7,-6,-12,-7,-10,-4
1558441818976469,0,1,1,-1,-1,-4,5,2
1558441818977464,2,1,-3,-2,-5,-10,-6,-2
1558441818977464,-2,0,1,-2,-6,-4,-4,-3
1558441818989434,-1,-1,-2,-3,2,3,2,-2
1558441818989434,-3,-3,-3,1,0,3,-7,-4
1558441818998409,3,-1,2,-2,3,6,5,0
1558441818998409,0,-1,-4,-1,-2,-5,-2,-1
1558441819012373,0,-1,4,1,4,3,3,1
1558441819012373,-2,-2,-8,-2,0,-6,1,0
1558441819021349,1,1,2,1,-1,-3,-2,1
1558441819021349,0,-2,-5,0,-3,-4,-5,-1
1558441819036309,-3,-5,-2,-8,-9,-5,-7,-5
1558441819036309,0,1,2,0,1,2,5,1
1558441819037304,-1,-2,-3,-5,-4,-7,-6,1
1558441819037304,-2,-2,1,4,0,-6,0,-2
1558441819049274,3,5,5,10,14,12,13,4
1558441819049274,-3,-4,-5,-13,-13,-3,-11,-6
1558441819058249,-5,-5,1,-1,-5,-3,-3,-4
1558441819058249,-2,-2,1,-1,2,7,0,0
1558441819072211,1,2,2,2,6,-16,3,2
1558441819072211,0,0,-2,2,-4,-5,-3,-1
1558441819081186,-1,-2,-2,-8,-3,5,5,1
1558441819081186,0,-1,-2,-2,-7,-1,0,-3
1558441819103128,0,-1,-2,0,0,8,1,-3
1558441819103128,-2,-1,2,2,6,8,0,-1
1558441819105128,-1,1,-3,-3,0,3,-1,-1
1558441819105128,-2,-2,-4,-5,-4,-14,-1,2
1558441819110109,-2,1,5,2,-2,0,4,0
1558441819110109,-2,-4,-10,-2,0,1,-5,-3
1558441819118088,-1,-1,0,4,-1,4,-3,-2
1558441819118088,0,3,6,0,5,6,8,0
1558441819132055,-1,-2,-7,-1,-6,-5,0,0
1558441819132055,-2,-3,2,-3,-4,-21,-5,0
