timestamp,emg1,emg2,emg3,emg4,emg5,emg6,emg7,emg8
1558441785731826,0,-1,-6,-10,-6,-8,-3,-1
1558441785731826,2,2,1,6,2,-1,8,5
1558441785733819,0,2,6,4,8,5,0,0
1558441785733819,-1,0,-5,-8,-4,-8,-3,-1
1558441785733819,0,-3,-1,5,-3,-8,-6,-3
1558441785733819,-1,-3,-5,-5,-7,-5,-13,-5
1558441785734816,-1,-3,2,2,-3,-2,6,0
1558441785734816,2,3,6,7,17,9,12,6
1558441785744790,1,0,0,2,4,8,3,0
1558441785744790,-2,-1,-1,-6,-5,0,-5,-2
1558441785751771,-1,-1,-6,-3,-10,-7,-7,-3
1558441785751771,-2,-3,-8,-4,-9,0,-9,-6
1558441785759750,-2,0,9,8,4,-9,1,2
1558441785759750,0,-3,-9,-9,6,4,4,-1
1558441785775707,0,-1,-3,-6,-3,5,0,2
1558441785775707,0,1,2,0,2,-2,4,2
1558441785780694,-1,0,-4,0,-2,7,-2,-3
1558441785780694,1,2,-2,-1,1,0,-1,-3
1558441785789670,-4,-1,10,14,-4,-10,-7,-3
1558441785789670,-2,-2,-4,-9,1,9,1,-4
1558441785804633,0,0,1,-9,-9,-7,3,0
1558441785804633,-3,-4,-8,-5,-13,-13,-9,-5
1558441785811611,0,0,-5,-1,9,3,3,2
1558441785811611,0,2,11,13,5,1,4,1
1558441785849509,-2,-2,-2,-9,-7,-4,-3,-3
1558441785849509,0,0,0,0,2,6,2,-1
1558441785858485,-1,0,2,2,4,-8,6,2
1558441785858485,0,-1,-2,-1,-2,-2,-5,0
1558441785859482,-3,1,1,3,-1,2,-1,0
1558441785859482,-1,0,-3,-4,-2,3,-5,-1
1558441785859482,1,0,0,-3,-2,-4,-1,-1
1558441785859482,0,3,2,6,7,3,1,1
1558441785871451,-2,-3,-3,-2,-6,-1,1,-2
1558441785871451,-2,0,0,2,2,3,5,0
1558441785878433,0,1,0,2,11,9,2,-1
1558441785878433,0,-2,-1,-5,-9,-13,-5,-2
1558441785885413,1,-1,-1,2,2,3,-4,-3
1558441785885413,0,0,3,-5,1,3,8,3
1558441785900374,-5,-7,-9,-6,-10,-7,-7,-6
1558441785900374,-1,-1,4,-2,0,0,-1,-2
1558441785908352,2,-1,-2,4,4,-8,4,3
1558441785908352,-1,-2,-5,-12,-9,-6,-5,-2
1558441785917328,-3,0,-3,-5,-4,7,-1,-2
1558441785917328,-3,-4,3,3,-2,6,-2,-2
1558441785931292,1,0,5,1,-4,-9,-3,-1
1558441785931292,0,-2,-2,3,3,-2,-3,-1
1558441785938272,0,0,2,1,1,5,2,0
1558441785938272,-4,-3,-7,-12,-16,-15,-11,-8
1558441785946250,-1,-2,0,0,-1,-2,3,1
1558441785946250,-2,-1,-8,-2,-3,-5,-1,-2
1558441785961213,1,1,7,2,3,11,0,1
1558441785961213,-1,0,0,3,5,6,10,2
1558441785968194,-1,1,-1,-1,-1,0,-3,-1
1558441785968194,-3,-5,1,-3,-9,-6,-9,-6
1558441785977168,-1,-3,-4,0,1,-7,-2,2
1558441785977168,1,1,2,6,4,-9,2,4
1558441785991131,-5,-4,0,-4,-1,9,-4,-4
1558441785991131,0,2,12,10,5,-1,-1,-3
1558441785998112,-3,-1,-12,-7,-4,-3,1,-2
1558441785998112,1,1,-1,-1,4,4,-2,1
1558441786006090,1,0,-4,-4,0,-3,-3,-1
1558441786006090,-2,-4,-6,-2,-10,-6,-8,-3
1558441786021050,1,1,7,9,-8,-4,-4,-4
1558441786021050,1,1,1,2,10,-3,4,2
1558441786028032,-1,-1,-6,-16,-1,5,2,2
1558441786028032,-2,-3,0,1,3,5,-1,-1
1558441786037008,-2,1,0,-2,-4,5,-1,-2
1558441786037008,0,0,-2,1,2,9,4,1
1558441786050986,0,-2,0,3,-3,-10,-4,-3
1558441786050986,-1,-2,-5,0,6,8,8,0
1558441786057953,-3,-2,1,-6,-8,-8,-9,-4
1558441786057953,-3,-2,-2,-1,-7,-5,-7,-4
1558441786065931,0,2,-3,0,2,-3,3,3
1558441786065931,1,3,4,3,-3,-11,-6,-1
1558441786080891,-1,-7,-13,-2,-1,5,-3,-3
1558441786080891,-1,-1,-8,-9,-11,-10,-5,-5
1558441786087873,-3,-1,3,8,5,4,3,0
1558441786087873,1,1,0,-5,-2,-4,2,3
1558441786096847,1,0,6,7,12,9,12,4
1558441786096847,-1,-2,-1,-1,-7,-2,-5,-1
1558441786111808,-3,-1,1,5,-1,2,-5,-4
1558441786111808,-3,-4,-10,-11,-9,-8,-3,-2
1558441786118790,0,-3,9,3,-4,-13,-4,-3
1558441786118790,-3,-2,-4,-11,9,4,3,2
1558441786125770,-1,-1,-1,4,2,0,1,-2
1558441786125770,-4,0,-2,-2,-4,1,-5,-2
1558441786140731,0,2,-2,-4,1,1,1,-1
1558441786140731,-2,-2,-2,-2,-7,-4,0,1
1558441786156687,-1,0,1,8,4,4,3,-1
1558441786156687,2,2,0,6,6,3,0,-1
1558441786163669,-1,-6,-2,-14,-16,-17,-11,-4
1558441786163669,2,-1,0,2,1,9,1,0
1558441786171648,1,0,-4,-4,1,3,-3,-1
1558441786171648,1,0,3,2,-1,5,4,0
1558441786186609,2,4,3,5,4,-5,0,3
1558441786186609,-1,1,1,7,4,5,5,-1
1558441786187607,0,-4,-1,-8,-11,-7,-6,-1
1558441786187607,2,2,-1,3,4,9,6,-1
1558441786200570,-4,-7,0,2,1,-9,-3,0
1558441786200570,-2,0,3,-2,1,4,2,-2
1558441786208550,0,1,1,-2,1,4,1,-1
1558441786208550,-1,-2,2,3,4,-7,-3,0
1558441786223510,0,4,0,1,-6,-6,-5,0
1558441786223510,0,-2,-3,4,-6,-1,0,-1
1558441786231487,-2,-2,-4,-6,-5,-2,-3,-3
1558441786231487,-2,-2,1,-3,0,7,2,0
1558441786238470,-2,-1,-3,6,5,5,0,-2
1558441786238470,-1,-2,0,-6,-2,-7,-3,0
1558441786245452,-2,1,0,0,-4,-12,-3,-3
1558441786245452,-2,-4,-10,-17,-14,-13,-6,-3
1558441786260414,1,0,-1,-2,2,10,4,-1
1558441786260414,2,3,5,5,5,-3,0,2
1558441786268390,-2,-2,8,6,1,4,0,0
1558441786268390,-5,-6,-5,-6,-12,-16,-13,-6
1558441786283350,-4,0,-5,-3,2,1,-2,-1
1558441786283350,-1,-2,-5,0,-3,3,2,-3
1558441786291329,-1,-1,3,-8,2,2,2,0
1558441786291329,1,-2,0,5,5,4,-4,1
1558441786306287,2,2,-1,-4,4,8,6,2
1558441786306287,-2,-3,-3,-7,-5,6,-2,-3
1558441786307285,-3,0,1,6,-4,-12,0,-2
1558441786307285,-4,-1,-4,-5,-5,-5,0,-3
1558441786321251,-1,-1,-3,2,1,-5,-3,-4
1558441786321251,-3,-1,-5,-8,-9,-8,-5,0
1558441786328235,-1,-2,0,2,0,8,1,0
1558441786328235,1,1,0,-1,2,1,3,5
1558441786343189,-1,1,-1,0,-1,-5,1,1
1558441786343189,-3,-2,-1,0,-1,7,-4,-3
1558441786351168,-1,-2,-7,-5,-6,2,-1,-2
1558441786351168,1,1,0,-6,-5,-3,-6,-3
1558441786358150,-3,-3,4,3,1,7,0,-2
1558441786358150,2,-1,-1,-1,5,-7,5,1
1558441786366128,1,-3,-4,-3,-1,1,-4,0
1558441786366128,0,0,-1,6,5,5,4,2
1558441786381088,-2,0,-6,-9,-8,-5,-6,-3
1558441786381088,-4,0,-6,0,-9,-5,-10,-6
1558441786388069,-1,1,1,-5,0,-6,-1,0
1558441786388069,-1,0,3,7,4,11,7,-2
1558441786403029,2,2,1,3,2,-6,4,3
1558441786403029,-2,1,5,2,4,-5,0,1
1558441786411012,-2,-4,-8,-6,-3,1,-2,-2
1558441786411012,-3,-4,1,0,-4,0,-5,-4
1558441786417990,-1,-3,-5,-11,-6,5,0,-1
1558441786417990,2,1,1,3,7,-7,4,4
1558441786425968,-1,-3,-5,-7,-3,-3,-6,-5
1558441786425968,0,1,1,4,4,2,0,1
1558441786440928,-4,-4,-5,-13,-13,-18,-4,-3
1558441786440928,-2,-3,-7,-4,-4,9,-4,-5
1558441786447909,-1,2,11,5,7,-3,5,2
1558441786447909,-1,2,-2,6,7,4,1,1
1558441786462870,-2,-3,-3,0,0,2,-2,-2
1558441786462870,-1,-2,2,0,-4,-9,-4,-1
1558441786471846,0,1,-2,5,2,1,3,-1
1558441786471846,1,0,-1,-6,-3,-1,-1,2
1558441786477829,1,1,2,4,-2,0,1,-2
1558441786477829,1,0,5,0,1,-2,2,1
1558441786493786,1,0,-5,-1,3,5,2,1
1558441786493786,-4,-2,1,1,-1,-6,-1,-5
1558441786500767,0,1,2,9,4,6,-4,-1
1558441786500767,0,0,-7,-15,-1,7,1,1
1558441786508747,-1,-2,-2,-2,-7,-4,-1,0
1558441786508747,1,1,1,1,2,-15,-5,1
1558441786523708,-2,-5,-1,-2,3,5,3,0
1558441786523708,-4,-3,-4,1,-3,-5,-2,-3
1558441786531685,-4,-2,-2,-4,-8,-5,-9,-3
1558441786531685,-3,-2,-2,-5,-3,3,3,-1
1558441786538667,0,1,7,1,-2,-7,-3,2
1558441786538667,-1,1,-3,-2,-1,-1,0,-2
1558441786553625,0,-1,-5,-1,-1,3,0,-1
1558441786553625,-2,-3,2,7,-3,-1,-4,-3
1558441786560609,1,2,-2,-3,3,5,-1,0
1558441786560609,2,0,2,2,4,3,6,4
1558441786568587,3,2,3,4,10,-2,6,2
1558441786568587,-2,-3,-4,-12,-10,-6,-5,-2
1558441786584544,-3,-4,-4,-2,-4,-9,-9,-7
1558441786584544,-4,-4,-5,-2,-2,19,-3,-7
1558441786591525,1,1,-2,5,7,-4,10,6
1558441786591525,0,3,6,-1,-1,-14,0,1
1558441786598506,-2,-5,-5,-5,-7,-3,-3,1
1558441786598506,-2,-1,4,5,-6,-6,-4,-3
1558441786622442,-1,-1,-2,-5,-1,0,-2,-3
1558441786622442,-2,-4,-7,-4,-3,10,-5,-2
1558441786623440,2,2,1,9,5,7,11,1
1558441786623440,0,-1,-4,-7,0,-13,-5,1
1558441786628426,-1,-2,0,-5,-11,-5,-5,-1
1558441786628426,-1,0,-3,-3,6,11,2,-1
1558441786643386,0,1,4,0,-3,3,-2,-2
1558441786643386,-3,-2,-1,3,4,0,0,-2
1558441786651365,-3,-1,-1,2,-2,-3,-2,-5
1558441786651365,1,0,1,0,4,-10,0,0
1558441786658346,1,1,-4,-7,5,8,4,4
1558441786658346,0,1,6,1,5,7,-2,0
1558441786674303,-3,-1,-1,1,-8,3,-1,-3
1558441786674303,1,1,-1,4,-5,-11,1,0
1558441786689264,-2,-2,1,4,5,2,-1,1
1558441786689264,0,0,-1,-4,-5,-9,3,1
1558441786689264,-2,-2,0,5,3,5,-4,-2
1558441786689264,0,-1,0,-6,0,2,2,-1
1558441786703227,-2,-2,-9,-4,-3,-10,-3,0
1558441786703227,0,-3,-3,-6,-3,-11,-8,-1
1558441786711206,-3,-1,-2,-2,3,12,7,-1
1558441786711206,-3,-1,6,8,4,6,1,-1
1558441786719185,-2,-2,-2,-10,-9,-18,-4,-1
1558441786719185,0,-3,1,11,2,3,-3,-1
1558441786734143,1,0,-2,-14,-5,-10,-3,1
1558441786734143,-3,-1,-6,-3,-1,-2,-4,-2
1558441786741124,-2,1,-1,0,0,10,2,-2
1558441786741124,-4,-4,-2,-3,-9,-1,-3,-3
1558441786748108,0,2,2,5,6,-1,0,0
1558441786748108,1,0,6,3,3,0,3,0
1558441786763066,0,-1,-5,-2,0,-4,-4,-1
1558441786763066,-2,1,-5,-3,-4,2,-2,-4
1558441786771045,-3,-4,-3,-5,-9,0,-9,-4
1558441786771045,-1,-2,2,0,2,-2,6,1
1558441786780021,3,2,1,5,6,-2,-1,2
1558441786780021,-1,-4,-9,-4,2,-1,5,0
1558441786793984,0,-2,2,2,-9,-3,-12,-3
1558441786793984,-4,-4,-9,-19,-15,-4,-5,-3
1558441786800966,2,2,9,5,9,-2,9,3
1558441786800966,-2,0,7,6,2,-9,-2,-1
1558441786807946,0,-2,-8,-2,0,1,0,-1
1558441786807946,1,-1,5,7,1,10,2,-1
1558441786822906,-2,-4,-7,-8,-9,0,-6,-3
1558441786822906,-1,-2,0,-3,3,6,2,-3
1558441786830885,-1,-4,-3,-1,-8,-13,-5,-2
1558441786830885,2,1,0,1,9,6,4,4
1558441786845845,-1,-2,0,2,3,-5,1,0
1558441786845845,-1,0,-2,0,-5,-3,-2,0
1558441786853822,-3,-4,4,1,-8,-7,-8,-4
1558441786853822,-3,-1,-10,-15,-2,4,2,0
1558441786868803,-3,-2,-3,-1,-9,-3,-2,-3
1558441786868803,-3,1,-4,-3,-3,-1,-4,-2
1558441786869784,-1,1,6,0,-1,0,2,-2
1558441786869784,0,-2,-8,0,-4,-9,-3,-3
1558441786883744,-3,-2,0,3,9,19,5,-2
1558441786883744,2,-2,-3,-2,-1,-9,-1,1
1558441786890730,3,2,1,2,6,10,8,2
1558441786890730,-1,1,3,8,12,3,-2,-1
1558441786905686,0,0,5,1,-10,-5,-1,-2
1558441786905686,-2,-3,-12,-15,-8,4,-3,-6
1558441786913665,-1,-4,1,-3,-4,-9,-6,-3
1558441786913665,0,-1,2,3,3,-2,-2,1
1558441786928629,2,-1,0,1,0,5,4,1
1558441786928629,2,2,8,6,7,8,-2,0
1558441786929621,1,0,-1,-2,1,-12,3,2
1558441786929621,0,1,-3,-1,0,2,3,2
1558441786943583,-3,-2,-2,-5,-9,-10,-7,-4
1558441786943583,0,-1,1,0,-5,-12,-3,-1
1558441786950564,1,2,1,0,11,18,6,1
1558441786950564,0,0,-5,3,1,-8,-1,-2
1558441786974499,-5,-4,-6,-16,-2,6,-2,-3
1558441786974499,-2,-2,-1,8,-3,7,-2,0
1558441786975497,0,-1,1,6,6,-14,0,2
1558441786975497,-1,-3,5,-4,-6,-2,-4,-3
1558441786989461,1,2,0,-3,-3,2,-4,-4
1558441786989461,-2,-2,-6,-3,-3,0,-1,-4
1558441786989461,-4,0,-9,-14,-10,1,-3,0
1558441786989461,-1,1,-3,4,-1,-2,4,1
1558441787003423,-3,-4,-3,7,-1,-8,-3,-1
1558441787003423,4,3,11,2,10,9,6,2
1558441787010404,1,2,-2,5,4,5,-3,-2
1558441787010404,-4,-3,-3,-9,-13,-8,-4,-2
1558441787025363,-2,-3,-4,-3,0,-2,-4,0
1558441787025363,-2,-4,3,2,1,-3,5,1
1558441787034340,-1,-3,-3,-6,-4,-6,-4,-1
1558441787034340,0,0,3,5,5,11,-2,0
1558441787049300,-2,-3,0,-4,-7,-12,-6,-4
1558441787049300,-4,0,-5,-5,0,-5,-4,-3
1558441787049300,-1,0,0,6,3,3,4,1
1558441787049300,-4,-2,-1,-6,3,10,1,-2
1558441787063263,0,2,-6,-8,-3,1,8,3
1558441787063263,-3,-3,3,-5,-7,-13,-13,-4
1558441787071241,0,-1,-7,-12,-13,-3,-3,-1
1558441787071241,-1,-2,4,9,6,-1,-1,-2
1558441787086201,1,1,4,-1,6,4,5,0
1558441787086201,2,-2,0,1,-3,-1,-2,1
1558441787094180,-2,-1,-3,0,5,5,-1,0
1558441787094180,-2,-2,-1,-1,-8,-9,-6,-3
1558441787110138,-2,0,-5,-1,0,1,-2,-4
1558441787110138,-3,-5,0,-4,-6,-7,-3,-1
1558441787111135,0,1,-2,-1,4,0,2,-2
1558441787111135,0,0,1,3,0,0,4,-1
1558441787123102,2,1,1,6,1,4,1,2
1558441787123102,2,3,3,6,3,3,3,2
1558441787131081,-2,-2,-5,-13,-10,-11,-7,-5
1558441787131081,-1,-1,2,0,-1,4,-5,-3
1558441787146051,1,-1,0,2,4,6,5,-1
1558441787146051,-4,-1,-4,0,2,0,1,-1
1558441787154019,-4,-3,2,5,0,-6,-5,0
1558441787154019,2,1,-2,-4,3,9,6,4
1558441787168979,-2,0,-1,4,-7,-18,-6,-2
1558441787168979,3,-1,-8,-9,-5,3,-2,1
1558441787169977,-4,-2,2,5,-7,-5,-5,-4
1558441787169977,1,1,-2,-4,3,-5,3,-2
1558441787182943,0,-1,3,6,10,14,0,2
1558441787182943,-2,1,-4,-11,-5,-6,4,-1
1558441787190921,-1,-5,0,1,-3,-1,-3,-2
1558441787190921,3,-1,-5,-7,-2,6,-1,-1
1558441787205883,-1,-2,2,6,-5,-3,-4,-3
1558441787205883,-2,-2,1,7,4,-9,0,1
1558441787213860,-4,-4,0,-8,-8,-1,-5,-5
1558441787213860,-1,0,-6,-7,-5,-6,3,2
1558441787228820,-1,-2,-2,-8,0,-7,-4,2
1558441787228820,0,-2,-2,2,1,10,3,1
1558441787229818,0,1,-1,2,3,-5,4,2
1558441787229818,-1,0,3,4,-3,2,-2,-2
1558441787242783,-6,-2,-2,-16,-5,-5,-4,-2
1558441787242783,0,0,-4,1,-1,2,1,0
1558441787250761,4,5,4,3,12,6,10,3
1558441787250761,-3,-3,-2,0,-2,-10,-5,-2
1558441787275695,-3,-3,-3,-3,-7,-6,-9,-6
1558441787275695,2,0,2,4,11,13,6,1
1558441787275695,0,0,0,-2,-1,-2,-5,0
1558441787275695,-2,-2,1,-3,-2,-7,-4,0
1558441787288659,1,0,1,1,-2,0,-3,-2
1558441787288659,-2,-1,2,-2,1,8,1,-1
1558441787289656,-1,0,2,-3,-6,-7,1,-1
1558441787289656,-4,-4,-7,-13,-8,-5,-11,-5
1558441787312943,-2,-2,-5,-2,-5,-6,-2,-4
1558441787312943,-3,-1,3,3,0,4,-3,-5
1558441787313595,0,0,1,-2,12,17,13,3
1558441787313595,-3,1,3,3,-4,-8,-2,-2
1558441787325938,-2,-1,-2,-3,0,-8,2,1
1558441787325938,-2,-2,-5,-2,-7,-2,-7,-5
1558441787334884,-3,-5,-3,5,-6,-3,-11,-5
1558441787334884,1,1,1,7,7,12,6,2
1558441787349786,-1,0,5,-2,1,-12,5,1
1558441787349786,1,1,1,3,4,-2,-2,0
1558441787349786,-1,-2,-4,-6,-7,-4,-8,-3
1558441787349786,-2,-3,-1,3,4,18,5,-2
1558441787363962,1,-2,-3,-5,-7,-5,-7,-3
1558441787363962,0,1,3,7,6,1,4,4
1558441787370443,-4,-4,-7,-5,-10,-18,-7,-4
1558441787370443,-1,-2,-5,-1,-12,-10,-10,-6
1558441787385409,1,1,7,6,5,9,3,2
1558441787385409,-1,-2,-6,-9,-5,-6,1,0
1558441787394378,-1,-1,1,1,0,10,-4,-3
1558441787394378,1,0,1,-2,0,-13,-1,2
1558441787408341,0,1,-3,-3,0,-5,-5,-1
1558441787408341,0,0,1,4,-4,-11,1,3
1558441787416318,1,-1,-1,-4,11,11,11,1
1558441787416318,-3,-4,-3,-8,-8,-6,-8,-5
1558441787423651,-1,-5,-6,-3,0,4,-2,1
1558441787423651,1,0,0,-2,1,-2,6,1
1558441787431277,-1,1,-2,-2,-1,-1,-1,1
1558441787431277,-1,-3,2,4,-6,-3,-4,-6
1558441787446253,0,1,-6,-1,-2,12,-1,-2
1558441787446253,-4,-2,2,4,5,-1,1,-1
1558441787454567,-2,-1,1,-2,0,-1,-3,-1
1558441787454567,-1,1,-2,-2,-3,-4,0,-1
1558441787469214,0,-2,1,2,-1,-3,-5,-2
1558441787469214,-1,-1,-3,-4,-9,-2,-5,-4
1558441787476613,1,1,-1,3,7,8,7,3
1558441787476613,0,0,0,2,1,-7,-2,1
1558441787491603,-1,1,-4,0,4,1,-3,1
1558441787491603,-1,3,4,4,4,2,-1,-1
1558441787493125,-4,-6,-6,-10,-10,-8,-2,-3
1558441787493125,2,0,-1,0,1,-3,-1,0
1558441787506554,-2,-1,-3,-2,-6,1,-1,-1
1558441787506554,0,-2,-2,-4,-3,-3,-6,-2
1558441787514548,1,0,4,1,3,-1,-6,2
1558441787514548,-1,-1,-6,0,6,12,11,2
1558441787529142,-5,-4,4,-1,-5,-2,-4,-5
1558441787529142,0,-1,-2,-3,-9,-16,-5,0
1558441787537332,1,3,8,8,-1,-7,3,1
1558441787537332,-1,-4,-17,-16,-2,-1,-14,-3
1558441787543294,1,2,1,-4,-5,3,3,2
1558441787543294,-7,-7,-6,0,3,12,2,-4
1558441787551221,0,-3,0,2,0,4,4,2
1558441787551221,1,0,6,7,3,-5,3,2
1558441787575123,-2,-3,-2,0,-3,-2,6,-2
1558441787575123,1,2,-5,-10,-7,-9,-9,0
1558441787575123,-2,0,-1,6,2,10,0,-1
1558441787575123,0,-1,5,1,10,7,6,4
1558441787589027,-1,-1,0,3,3,-4,0,-2
1558441787589027,1,-3,3,2,-3,5,-6,-5
1558441787596841,-4,-3,-9,-13,-5,-3,0,-5
1558441787596841,1,2,4,4,3,2,2,0
1558441787611797,-3,-1,-3,-1,-2,-7,-2,0
1558441787611797,-2,-1,1,-3,-4,-6,-6,0
1558441787611797,3,-1,-5,0,-2,-3,3,0
1558441787611797,1,0,3,0,4,8,10,2
1558441787626079,2,-2,0,2,4,-2,-3,1
1558441787626079,-3,-2,-3,-6,-13,-12,-4,-3
1558441787633737,0,-4,-9,-3,-8,-12,-15,-2
1558441787633737,-4,-4,2,0,-4,-1,-2,-4
1558441787648697,-1,0,8,-4,5,8,-4,0
1558441787648697,-2,-4,-13,-2,-3,-1,3,-1
1558441787656702,0,-2,-1,-1,5,9,5,0
1558441787656702,-2,1,0,0,-10,-16,-7,-4
1558441787671666,2,-1,-1,7,4,10,4,1
1558441787671666,2,3,1,-2,6,-3,1,3
1558441787671666,-2,-3,5,6,4,1,3,1
1558441787671666,-3,-4,-8,-9,-12,-4,-15,-9
1558441787685598,-1,0,0,3,9,7,13,4
1558441787685598,-1,1,2,0,4,2,1,-3
1558441787693599,-3,2,0,1,-7,-4,3,0
1558441787693599,0,-1,1,0,-2,-3,-12,-2
1558441787708990,-1,1,0,2,-4,-13,5,-5
1558441787708990,-1,2,4,3,8,1,0,2
1558441787716517,-2,-1,0,-1,0,6,-3,0
1558441787716517,-2,-2,-6,-7,-5,-5,3,0
1558441787731896,-5,-4,1,9,0,4,-8,-8
1558441787731896,-1,-5,-7,-14,-14,-9,-6,-1
1558441787732474,-1,0,5,0,2,-1,1,0
1558441787732474,0,2,-3,0,6,3,4,5
1558441787746672,-1,-2,0,-5,-3,-1,-6,-2
1558441787746672,-4,-5,2,7,-4,-7,-8,-7
1558441787754415,1,-1,-6,-3,-3,-8,2,1
1558441787754415,-1,2,6,4,7,2,5,1
1558441787768412,1,3,-4,-11,-3,-7,2,0
1558441787768412,-2,-2,3,6,2,11,-3,-3
1558441787776760,-3,-3,0,-4,-7,-7,-5,-6
1558441787776760,0,0,-3,-2,-3,-1,-6,-3
1558441787791661,1,0,-3,1,4,1,-7,1
1558441787791661,3,2,0,-1,0,-2,-1,0
1558441787792314,0,0,1,-2,5,11,6,-1
1558441787792314,-1,-2,0,-2,-4,-5,3,-1
1558441787806610,-1,0,-3,-2,-10,-19,-7,-1
1558441787806610,0,0,-1,2,11,17,7,4
1558441787814254,2,1,5,0,3,-3,-3,1
1558441787814254,-1,-3,-3,-4,-7,3,-3,-2
1558441787828216,-1,-4,-4,-4,-6,-4,-3,-1
1558441787828216,-1,2,-2,-5,-2,-3,-2,-1
1558441787837252,-5,-3,-4,2,-6,-6,-3,-4
1558441787837252,-1,0,-2,-10,-4,-14,6,1
1558441787851253,-2,0,0,-5,-8,-7,-12,-3
1558441787851253,-1,0,-5,-2,6,7,5,1
1558441787852154,1,0,7,9,9,3,-7,-1
1558441787852154,-1,-2,-3,-6,-8,-4,1,1
1558441787866115,-1,-1,-2,-3,0,2,-4,0
1558441787866115,-5,-4,1,3,0,-9,0,-4
1558441787874438,2,-1,-9,-14,-9,-4,-8,1
1558441787874438,1,1,1,4,4,6,-2,-1
1558441787888408,-1,-2,-3,0,4,5,10,4
1558441787888408,-3,-2,0,-5,-5,2,0,-1
1558441787897180,-3,0,-2,-1,-3,1,2,-4
1558441787897180,-1,1,-2,1,3,1,5,-1
1558441787912139,1,-2,2,1,0,-2,1,-2
1558441787912139,0,-2,-2,-4,-5,4,3,-2
1558441787912139,-1,-4,-7,-7,-8,-8,-8,-3
1558441787912139,-2,-3,-2,6,3,22,3,-2
1558441787926570,0,3,-1,1,13,16,13,3
1558441787926570,2,1,4,0,5,1,2,2
1558441787934433,0,1,1,-2,-3,-7,-5,-1
1558441787934433,1,0,-4,0,-2,-3,-2,-2
1558441787948604,-4,-5,2,-10,-8,-1,-4,-4
1558441787948604,-1,-2,-2,6,-1,-2,-2,2
1558441787956595,-3,-1,-4,-7,-3,-6,-7,-3
1558441787956595,-2,0,0,4,5,-4,-5,-1
1558441787971505,-2,-4,-2,-8,-8,0,2,-3
1558441787971505,0,0,3,2,7,-6,-3,1
1558441787972241,1,-3,1,5,9,4,9,4
1558441787972241,-2,-1,-1,-3,-3,0,-4,0
1558441787986452,-3,0,-3,-1,-1,-6,0,1
1558441787986452,0,-3,1,1,-4,-10,2,-1
1558441787994182,0,0,-3,1,4,13,10,1
1558441787994182,-1,-1,6,2,-6,-3,-8,1
1558441788008144,-3,-2,-7,-1,-4,-8,-1,-2
1558441788008144,2,3,2,-4,5,10,4,2
1558441788024099,-2,-4,-3,1,-1,-5,-2,-5
1558441788024099,-3,-4,-3,-2,-8,-4,-13,-9
1558441788031080,-3,-3,3,3,-3,2,-9,-3
1558441788031080,-2,-1,-1,-1,-1,3,4,1
1558441788032078,-5,-3,1,-5,-1,1,-4,-4
1558441788032078,0,-2,-3,-2,-2,-8,-17,1
1558441788046042,2,0,-4,-3,-5,-8,16,6
1558441788046042,1,0,0,5,8,-5,0,2
1558441788054019,-2,-3,-1,1,-13,-10,-4,-1
1558441788054019,0,2,1,-2,-1,4,-2,0
1558441788069045,-1,1,2,7,2,3,-3,-2
1558441788069045,-1,-2,-6,-4,0,4,1,-1
1558441788076960,1,1,4,5,0,3,2,3
1558441788076960,1,-2,-5,-12,1,-10,0,-1
1558441788092228,-2,0,4,4,-4,2,-3,-5
1558441788092228,-3,-5,-7,-16,-12,-4,-8,-8
1558441788092228,-1,1,-1,-1,-4,-12,-11,-4
1558441788092228,-2,0,3,7,6,10,12,-2
1558441788106185,-2,-2,0,-1,-3,-5,-7,-3
1558441788106185,-2,-4,-5,-8,-12,0,-13,-3
1558441788114172,-1,-2,-4,3,3,2,6,4
1558441788114172,2,1,3,0,1,-7,-2,2
1558441788129014,1,1,-1,8,9,2,12,3
1558441788129014,-2,-2,-1,-3,-3,-6,2,-1
1558441788137089,-1,-1,-8,-10,-3,-2,-1,-5
1558441788137089,-3,0,-1,-1,-7,-1,-9,-4
1558441788152073,0,2,1,2,3,10,-11,0
1558441788152073,0,1,-1,1,1,-10,4,1
1558441788152073,0,-2,-2,0,3,0,-3,-1
1558441788152073,2,-1,0,-3,8,6,14,3
1558441788166035,-2,-3,-4,-3,-7,-6,-6,-6
1558441788166035,-3,-2,2,0,-6,-2,-11,-11
1558441788174814,-1,0,-3,-4,5,0,6,1
1558441788174814,-4,-3,1,-2,-3,-12,-1,-3
1558441788189093,0,-1,1,1,2,1,1,0
1558441788189093,-2,-2,-3,-3,2,4,4,1
1558441788197036,-2,-5,-5,-6,-13,3,-5,-3
1558441788197036,-2,0,2,-1,0,0,-1,-2
1558441788211978,0,-3,-6,-9,-2,-5,0,-1
1558441788211978,-1,0,6,4,-11,-12,-8,-5
1558441788212718,-2,0,-12,-8,2,6,4,2
1558441788212718,0,0,1,6,5,6,18,-2
1558441788225685,-1,0,0,-2,-1,-4,-10,-4
1558441788225685,1,1,1,-3,-5,-3,1,2
1558441788234659,-1,0,4,6,6,9,5,3
1558441788234659,-4,-2,-4,-3,-4,-1,2,1
1558441788248968,1,0,3,4,5,-2,4,0
1558441788248968,-3,-1,-1,1,5,12,6,-2
1558441788256945,0,0,3,-1,-1,-10,-6,-1
1558441788256945,1,1,2,1,-1,-4,0,1
1558441788271917,-2,-3,-7,-4,-4,5,0,-5
1558441788271917,-2,-1,1,2,-2,4,2,3
1558441788272559,2,4,4,4,3,-8,1,1
1558441788272559,-4,-3,-5,-1,-3,-8,-12,-3
1558441788285639,-1,-3,-3,-8,-8,-5,1,-5
1558441788285639,-4,-3,-3,-1,-2,3,-1,-2
1558441788294498,0,-2,-1,-5,-5,-3,-4,-4
1558441788294498,1,0,-3,1,-2,1,-7,-2
1558441788308802,-1,0,6,1,6,-4,-4,-2
1558441788308802,-1,-3,-3,-2,-6,-3,0,0
1558441788316613,-1,-1,3,6,2,-5,8,3
1558441788316613,-1,-3,-4,-9,-5,-3,-10,-6
1558441788331754,-2,5,1,2,1,1,-1,1
1558441788331754,3,-1,-5,-6,-4,1,-2,0
1558441788332447,1,-2,2,5,11,9,8,3
1558441788332447,-2,-6,-5,-3,-6,-6,-6,-2
1558441788347414,-1,0,4,6,6,10,5,3
1558441788347414,-1,1,1,-3,-4,-4,-3,0
1558441788354638,-4,-3,-1,0,-11,-4,-7,-6
1558441788354638,-3,-1,-4,-8,-8,-11,-2,-2
1558441788368566,-2,0,-3,-1,2,-13,0,1
1558441788368566,-2,-2,-3,3,-2,-10,1,-4
1558441788376335,-2,0,-5,-11,-3,4,-5,-4
1558441788376335,-1,2,7,8,3,8,4,2
1558441788391568,-2,-5,-6,-10,-16,-6,-11,-2
1558441788391568,2,-2,-5,-1,6,5,7,1
1558441788399508,3,2,2,0,-2,-11,1,1
1558441788399508,0,0,1,4,-1,-4,-3,0
1558441788406511,-2,3,-1,-1,-3,3,4,-3
1558441788406511,-1,-3,-8,-12,3,2,-1,0
1558441788414227,-3,-3,6,6,1,0,-7,-3
1558441788414227,2,1,-2,-5,3,6,2,-1
1558441788428190,0,-1,1,2,-5,-3,-9,-1
1558441788428190,-4,-4,1,-3,-9,-6,-1,-2
1558441788436169,0,2,7,7,11,15,4,-2
1558441788436169,0,2,-1,0,2,-8,11,-1
1558441788451410,0,-4,-8,-1,2,6,0,2
1558441788451410,-2,-2,-1,-6,1,6,-2,-4
1558441788459428,-3,-4,-8,-2,-13,-9,-7,-2
1558441788459428,-2,-3,-2,-10,-8,-2,-5,-1
1558441788466406,-1,0,2,5,9,7,6,0
1558441788466406,0,4,1,2,8,-9,3,3
1558441788473397,-2,-3,-2,-1,-3,-4,-13,-4
1558441788473397,0,0,-3,-1,-1,2,-7,1
1558441788489136,-3,-6,-1,-4,-12,0,1,-3
1558441788489136,0,0,-4,3,-1,9,-9,-5
1558441788497161,2,5,8,2,13,-3,10,5
1558441788497161,-3,-2,6,9,-1,-14,-2,-2
1558441788510969,0,-3,-2,-4,-1,-4,-1,3
1558441788510969,-1,1,0,0,-2,-2,-4,-2
1558441788519269,-2,-1,-2,-1,-8,2,-5,-5
1558441788519269,-2,-3,-9,-13,-4,-4,-2,1
1558441788534541,-4,-5,0,0,5,11,-2,-5
1558441788534541,-2,-3,0,3,-2,7,-4,-4
1558441788534541,-1,1,-3,-5,-3,-16,-5,2
1558441788534541,-1,4,0,6,11,12,5,4
1558441788548528,0,-2,2,-2,-3,-6,-3,0
1558441788548528,2,1,0,-2,-7,-7,-6,-3
1558441788556522,-2,-4,-9,-8,-4,6,-5,-5
1558441788556522,0,-3,4,5,1,-2,3,0
1558441788571430,3,2,1,-3,4,-2,6,3
1558441788571430,-1,0,3,11,7,12,1,0
1558441788579452,-1,-2,-6,-5,-9,-3,-1,-1
1558441788579452,1,2,1,1,7,6,2,-1
1558441788594127,1,0,-1,0,0,-11,-1,0
1558441788594127,-3,-2,-1,3,-1,-10,-4,-1
1558441788595153,0,1,-2,2,-6,4,-6,-4
1558441788595153,-1,-3,-8,-4,-3,6,0,-2
1558441788608355,0,0,3,7,11,14,5,0
1558441788608355,4,4,6,0,8,-1,4,5
1558441788616065,-7,-5,-3,-10,-5,2,-2,-6
1558441788616065,-5,-3,3,12,-6,-9,-7,-5
1558441788631025,0,0,-10,-11,-3,-5,-3,1
1558441788631025,0,-2,2,-1,1,0,-3,-1
1558441788639005,0,-1,-2,-5,-6,0,1,2
1558441788639005,-1,-5,-3,-2,-3,9,6,1
1558441788653963,-3,-4,0,-3,-4,-9,-7,-5
1558441788653963,0,3,3,-2,5,11,-4,-1
1558441788654959,-2,-6,1,-2,-6,-9,0,-1
1558441788654959,-2,-2,-8,-4,-3,1,0,-1
1558441788668141,1,1,2,-1,-7,-3,-2,0
1558441788668141,1,1,-5,-2,9,10,3,0
1558441788676903,1,2,7,5,4,-2,18,8
1558441788676903,-2,-1,2,5,2,7,-2,-1
1558441788691389,-2,-3,-4,-12,-13,-11,-5,-2
1558441788691389,-2,-4,-3,0,-1,-12,5,1
1558441788699363,1,2,5,3,8,6,1,-1
1558441788699363,-1,-2,-2,-4,-7,-4,-10,-5
1558441788714787,-2,0,-4,-2,0,1,-6,-3
1558441788714787,1,3,3,2,-6,1,1,4
1558441788714787,-1,-5,-12,-11,-5,-7,-6,-3
1558441788714787,-2,0,5,6,2,-9,0,0
1558441788738602,-3,-3,-6,-1,0,4,-2,-3
1558441788738602,-3,-3,-5,-7,-13,-12,-8,-3
1558441788738602,2,2,3,7,7,9,8,4
1558441788738602,0,-2,-5,-12,-3,-5,-7,-6
1558441788751345,-1,1,2,7,7,8,-2,-2
1558441788751345,-3,-8,-5,-5,-1,-1,-7,1
1558441788759582,-1,1,3,-2,4,-9,-1,1
1558441788759582,0,0,4,1,1,-1,6,-1
1558441788774683,-1,-2,-7,-1,0,-1,-1,6
1558441788774683,-6,-5,-3,-4,-7,-7,-7,-9
1558441788774683,2,3,6,3,-5,-12,-12,-1
1558441788774683,-1,-2,-6,1,-2,-2,5,1
1558441788797859,2,2,1,5,-2,1,15,4
1558441788797859,-1,-3,-8,-7,-1,-6,-20,-2
1558441788797859,-1,-2,0,-6,-2,10,2,0
1558441788797859,0,-1,4,3,0,-9,-1,0
1558441788819521,2,3,4,-1,-2,1,0,0
1558441788819521,2,1,2,2,5,3,6,0
1558441788820520,-3,-2,1,6,2,1,-5,-3
1558441788820520,-3,-2,-12,-16,-9,-5,-6,-1
1558441788833482,-5,-3,5,5,-3,-11,-3,-6
1558441788833482,0,4,3,1,5,6,9,4
1558441788834480,-3,0,-3,-2,-1,7,10,0
1558441788834480,2,-2,-3,-4,-7,-5,-5,-1
1558441788848442,2,-1,2,4,7,13,3,1
1558441788848442,0,-2,-4,-4,0,0,5,-2
1558441788856455,-5,-3,-9,-1,2,-3,4,-2
1558441788856455,0,-1,3,4,-1,0,-9,-1
1558441788870382,-3,0,-6,-9,-9,-9,-6,-1
1558441788870382,-2,-1,1,0,-7,-5,-1,-3
1558441788879357,1,-3,-4,1,1,4,-2,-3
1558441788879357,0,1,1,-4,7,-2,7,5
1558441788894400,0,0,7,6,6,7,-7,0
1558441788894400,-4,-4,-10,2,-4,-3,7,2
1558441788895525,0,-4,0,-3,-1,-13,-1,2
1558441788895525,-1,-2,-1,-5,-8,-10,-3,-4
1558441788908788,0,-1,0,1,-2,-2,-10,-1
1558441788908788,-2,-3,1,6,-6,-7,-9,-6
1558441788916780,-1,1,0,-2,4,11,2,-1
1558441788916780,-2,-3,-2,-5,-4,-2,2,-2
1558441788931699,-1,-1,-7,-6,-6,0,-4,-3
1558441788931699,1,0,1,4,9,0,2,4
1558441788939563,1,0,-2,0,-4,-5,-6,0
1558441788939563,1,2,3,-2,-1,0,7,3
1558441788962899,-2,-3,-6,-4,-6,-4,-5,-4
1558441788962899,0,-1,-2,-3,-6,-4,-5,-1
1558441788962899,-2,-1,-6,-2,-2,-1,5,1
1558441788962899,-1,2,2,2,7,12,6,0
1558441788968862,-2,0,4,7,2,-9,0,-2
1558441788968862,3,1,-4,-16,1,7,0,1
1558441788976530,-1,-3,-5,0,-7,-5,-3,-1
1558441788976530,-4,-2,0,-3,-1,0,-12,-4
1558441788990818,-2,0,3,-4,-3,-1,1,-1
1558441788990818,-1,0,-4,2,1,-3,-2,-2
1558441788999736,-2,-3,1,-5,-2,1,6,-1
1558441788999736,0,-1,-2,2,1,-2,-4,-1
1558441789014594,-2,1,1,-1,0,8,-2,-4
1558441789014594,-2,-3,0,3,-10,-9,-6,-2
1558441789014594,0,-1,-4,-10,-6,-7,-13,-3
1558441789014594,0,0,3,3,-1,-1,-2,-1
1558441789028391,3,2,-2,3,14,9,12,4
1558441789028391,-1,0,0,3,-1,-5,1,-1
1558441789036397,-3,-3,8,3,-4,-10,-4,-4
1558441789036397,-6,-4,-17,-12,-9,-2,-2,-4
1558441789050333,-2,0,-2,-1,3,-2,4,2
1558441789050333,-2,0,0,-1,-2,0,0,-1
1558441789059306,1,2,-1,-2,1,6,-9,-1
1558441789059306,4,1,7,4,-1,-1,1,3
1558441789074266,2,-1,-5,-3,-1,-3,1,-1
1558441789074266,-3,-1,8,14,13,7,11,1
1558441789074266,-3,1,0,6,8,4,-2,-2
1558441789074266,-4,-4,-8,-15,-13,0,-14,-4
1558441789088264,0,-5,-5,-2,-8,-2,-4,-6
1558441789088264,4,1,-2,-5,-2,1,0,0
1558441789096207,0,0,2,2,5,-2,3,1
1558441789096207,-4,-2,-2,6,-4,-6,-6,-6
1558441789110169,-2,-1,-2,-5,-3,1,2,-5
1558441789110169,-2,1,7,1,8,15,10,4
1558441789119576,-2,-2,-8,-5,-3,-17,-8,0
1558441789119576,-2,-3,-4,-2,3,6,3,-2
1558441789134415,0,-1,1,3,-9,-17,-10,-1
1558441789134415,-2,-3,-7,-18,-12,-7,-9,-2
1558441789135500,0,2,2,5,3,7,7,-2
1558441789135500,0,2,2,3,10,5,6,3
1558441789157845,-2,-1,1,5,-3,-9,-8,-3
1558441789157845,0,-1,0,3,-1,-6,5,1
1558441789157845,-2,-2,5,-6,-6,5,-9,-2
1558441789157845,1,-2,-4,-1,-1,0,0,-3
1558441789171721,-1,-2,-1,-4,3,4,1,1
1558441789171721,2,-1,-9,0,2,-3,2,2
1558441789179781,-2,-3,-4,-6,-5,-11,-3,1
1558441789179781,1,2,6,3,0,4,-4,-1
1558441789194260,-1,0,1,-2,-4,3,1,1
1558441789194260,0,-3,-4,-7,-8,-5,-4,-3
1558441789195287,2,1,-2,4,3,-2,2,-1
1558441789195287,-1,0,4,-1,7,0,3,5
1558441789208483,-3,-4,-3,-2,-3,-11,-11,-3
1558441789208483,-1,-1,-4,-1,-8,-5,-5,-6
1558441789216433,0,0,-1,1,1,9,1,-4
1558441789216433,-1,-2,-3,-6,0,10,1,0
1558441789231161,-2,0,5,9,11,3,6,2
1558441789231161,1,-1,1,-1,2,-12,-1,1
1558441789239172,-1,-3,1,-1,-9,-8,-3,1
1558441789239172,-1,-1,2,-2,-5,-3,-6,-5
1558441789254111,-1,-2,-8,-6,-8,2,-7,-3
1558441789254111,-1,1,-2,-1,3,6,5,0
1558441789254111,-1,0,3,2,11,2,4,-1
1558441789254111,-2,-1,-1,-2,-2,-13,4,-2
1558441789268090,-2,-1,-4,-6,-2,4,-2,0
1558441789268090,-2,-2,-3,-5,-9,-1,-13,-5
1558441789277117,0,0,-5,0,-2,12,10,3
1558441789277117,0,1,-2,-3,-4,-12,-1,-2
1558441789291513,-2,0,9,11,12,-6,-4,2
1558441789291513,2,1,8,2,6,-4,-1,2
1558441789300055,-1,-1,-11,-6,-4,10,-4,-1
1558441789300055,-2,-1,-3,3,-6,0,6,-1
1558441789314143,-2,-3,-5,-4,-4,7,-2,-2
1558441789314143,-2,-1,1,0,1,0,-6,-3
1558441789322443,2,0,7,9,2,1,4,2
1558441789322443,1,3,0,-1,-4,-6,6,6
1558441789329040,-1,1,-7,-8,1,2,3,-1
1558441789329040,-5,-4,3,10,5,-4,2,-3
1558441789337251,-1,-2,-4,-7,-6,-8,-9,-4
1558441789337251,0,1,-3,3,1,4,1,-1
1558441789351283,3,-1,6,-1,0,-2,-10,-3
1558441789351283,-2,-2,-6,-6,-11,4,1,-2
1558441789359895,-2,-1,-4,1,3,2,1,-4
1558441789359895,-1,-1,5,6,11,5,0,0
1558441789374188,-4,0,-6,-2,-12,-6,-4,-4
1558441789374188,-3,-1,2,-7,-3,-6,-9,-5
1558441789381851,-2,-2,-1,1,-3,-9,-1,0
1558441789381851,-1,-2,0,4,7,2,-3,2
1558441789388921,-2,0,-5,-7,-2,1,9,4
1558441789388921,-3,-5,1,3,-2,-3,-7,-2
1558441789397069,1,2,10,-3,-1,-2,-4,0
1558441789397069,-3,-5,-16,-2,-2,2,-2,-4
1558441789410758,1,-2,0,-7,-2,-16,5,1
1558441789410758,-4,-2,-5,3,-3,-3,-1,-3
1558441789420089,1,2,3,1,1,1,-2,0
1558441789420089,-3,-3,3,2,2,4,-2,-4
1558441789433477,-1,0,-3,0,-1,5,-6,-5
1558441789433477,-1,-2,1,-9,-9,-4,-2,1
1558441789442385,1,-2,1,2,16,16,21,4
1558441789442385,-2,1,4,-2,-4,-5,-6,-3
1558441789448655,-3,-2,-7,2,-4,5,1,-3
1558441789448655,3,2,4,6,5,1,2,1
1558441789457342,-2,-2,-13,-19,-19,-15,-13,-5
1558441789457342,-1,-4,-1,-6,5,5,4,3
1558441789471401,2,1,13,8,2,0,2,1
1558441789471401,-4,-6,-14,-4,-3,2,-9,-2
1558441789479575,-5,-4,-3,-5,-7,0,-2,1
1558441789479575,1,2,4,1,-4,-15,-5,-2
1558441789493248,-2,-2,0,-3,-3,-7,-1,-3
1558441789493248,-2,-1,3,1,5,14,8,1
1558441789502222,-2,-4,-14,-6,-7,-10,-11,-4
1558441789502222,-2,-2,3,-7,-6,1,-2,-1
1558441789517253,-2,-2,2,3,7,-4,-2,0
1558441789517253,2,-1,-1,-6,-4,2,4,0
1558441789518492,-3,-2,-1,0,-3,6,-4,-5
1558441789518492,0,0,-1,-1,-5,-2,1,-2
1558441789531443,-1,-1,0,-2,1,3,4,2
1558441789531443,0,2,1,3,2,-6,4,1
1558441789539428,-1,-2,-5,-6,-6,-1,-2,-3
1558441789539428,-3,-2,-1,4,-1,-10,-7,-3
1558441789554335,-1,-2,-4,-4,-2,2,1,-1
1558441789554335,-1,0,0,0,2,0,-1,-2
1558441789570042,-1,-2,-2,-1,-1,-2,-1,2
1558441789570042,0,1,3,3,3,0,10,4
1558441789577024,-1,1,-6,-5,-2,-4,0,0
1558441789577024,-3,0,-4,-3,-10,-8,-5,-3
1558441789579016,0,-1,-1,5,7,7,6,1
1558441789579016,2,-1,1,2,0,-11,-6,0
1558441789590984,1,-1,-3,-4,-2,10,-4,-2
1558441789590984,1,1,14,13,9,-6,3,2
1558441789599963,-3,-2,3,-2,0,0,-1,-3
1558441789599963,-4,-7,-14,-9,-6,5,-5,-4
1558441789614228,4,3,1,5,8,10,3,3
1558441789614228,-1,-2,-4,-6,1,-3,0,-2
1558441789621901,1,1,5,3,-4,-9,-5,-4
1558441789621901,1,1,2,0,2,8,3,0
1558441789637163,-1,-2,-3,-4,-6,-2,-9,-5
1558441789637163,-1,0,-5,2,-3,9,1,-1
1558441789638859,0,2,3,5,11,-4,2,1
1558441789638859,-2,-1,-2,-5,-7,-2,1,-1
1558441789651100,-1,-4,-4,1,-4,-9,-3,-2
1558441789651100,-1,-2,1,2,8,2,6,-1
1558441789667082,1,-2,0,1,-8,-3,-1,-1
1558441789667082,0,0,-3,-4,0,6,-1,-2
1558441789674114,-2,0,3,10,5,1,-4,-3
1558441789674114,-3,-2,-12,-29,-22,-11,-10,-2
1558441789682212,-2,1,-2,0,6,4,3,1
1558441789682212,0,1,2,6,16,14,7,3
1558441789697989,-1,-2,-5,-8,-5,-14,-2,0
1558441789697989,0,-1,6,12,-1,3,-5,-4
1558441789698697,-6,-4,1,-2,-7,-3,-8,-6
1558441789698697,1,-2,0,-4,-11,-9,-6,-4
1558441789710678,-2,-5,-9,-9,1,0,2,-2
1558441789710678,2,-1,-1,-2,1,0,0,-1
1558441789719588,2,0,-2,1,3,0,2,-2
1558441789719588,-2,-4,0,8,-4,-8,-7,-3
1558441789734126,0,1,-6,-15,-3,1,8,3
1558441789734126,0,-1,-4,2,6,-4,-7,1
1558441789742333,-4,-1,4,2,2,0,-2,-2
1558441789742333,-3,-4,-5,-8,-13,-3,-6,-3
1558441789765328,0,0,8,5,8,9,4,0
1558441789765328,0,-1,-2,-2,-4,-3,0,-2
1558441789766005,1,0,-1,2,1,1,0,1
1558441789766005,0,0,0,-1,4,-7,1,3
1558441789771070,-6,-2,1,-1,-8,-2,-4,-5
1558441789771070,0,-1,-4,-1,2,8,2,1
1558441789779972,1,-1,-2,3,2,-8,3,1
1558441789779972,0,1,9,9,7,13,4,0
1558441789792985,-6,-7,-10,-4,-8,-8,-6,-5
1558441789792985,-2,-1,-4,-8,-4,-2,-1,-2
1558441789802153,-1,-3,-7,-1,-7,0,-1,-1
1558441789802153,0,1,2,2,6,7,1,-1
1558441789817101,0,1,1,-1,-4,-7,-2,0
1558441789817101,0,-1,-1,-3,-3,-2,-1,-2
1558441789818864,0,0,5,3,7,8,5,1
1558441789818864,-1,-4,-5,-6,-4,-8,-5,0
1558441789831079,2,-1,-4,3,-3,5,-1,-1
1558441789831079,-2,-4,-3,-2,-5,-2,-2,-2
1558441789839812,1,0,0,0,-1,-8,-3,1
1558441789839812,0,1,5,1,4,1,3,1
1558441789853950,-1,-1,-2,-3,-4,4,-4,-2
1558441789853950,-2,2,3,5,3,6,0,0
1558441789861752,-1,-2,-1,-6,-3,-7,-1,1
1558441789861752,-3,0,-1,0,0,-2,-2,-6
1558441789876711,1,-3,4,0,1,-6,1,1
1558441789876711,0,0,-3,2,5,-2,0,0
1558441789891703,-1,-6,-9,-15,-10,9,-3,-4
1558441789891703,-2,-1,-4,0,2,3,0,1
1558441789892871,0,2,8,6,1,5,-1,-3
1558441789892871,-1,-2,-1,10,2,-9,0,-1
1558441789899897,0,4,-3,-5,9,6,4,1
1558441789899897,-2,-4,1,3,-9,-8,-10,-4
1558441789913609,-1,-1,-6,-5,-3,-1,4,2
1558441789913609,-1,1,1,-2,-1,-4,-3,-1
1558441789922101,-3,-2,-2,5,-2,2,-2,-3
1558441789922101,0,0,3,-2,2,12,2,2
1558441789944867,-2,-1,-3,-1,-1,-4,2,-1
1558441789944867,1,1,5,5,7,7,7,3
1558441789945524,0,0,0,-1,4,-15,-1,-1
1558441789945524,-1,-2,-9,-10,-11,-12,-4,-2
1558441789951508,-2,-3,2,-5,0,7,-5,-1
1558441789951508,-2,-3,-5,-8,-12,1,-7,-1
1558441789959608,-1,-1,5,2,-10,-4,-5,-4
1558441789959608,1,-1,-3,1,5,4,3,0
1558441789973795,0,0,-4,2,9,4,5,1
1558441789973795,-4,-5,0,-2,-2,-6,1,-6
1558441789982427,-3,-1,-1,1,-5,-7,-5,-4
1558441789982427,-2,-1,2,-2,-8,-13,-5,0
1558441789996520,1,2,-1,-1,-3,-2,-1,0
1558441789996520,-2,-3,-4,-5,1,5,-1,-2
1558441790004365,-1,-3,-1,1,-3,2,-4,-2
1558441790004365,-2,-3,-9,-8,-1,5,5,-3
1558441790010353,-2,-3,2,6,-1,-6,-3,0
1558441790010353,2,1,4,0,5,11,4,3
1558441790019632,-1,1,0,-1,2,-16,-2,1
1558441790019632,0,1,5,4,-2,-1,1,0
1558441790033368,-2,-3,-8,-13,-12,-11,-2,-3
1558441790033368,-2,-3,-8,-3,-9,-8,-4,-3
1558441790042269,0,-2,-2,1,3,19,4,2
1558441790042269,-1,-2,2,2,7,1,2,0
1558441790056513,0,1,-1,3,2,-4,-4,0
1558441790056513,1,2,4,5,6,-3,-1,1
1558441790064206,-1,1,0,-4,-1,0,0,0
1558441790064206,-3,-5,-5,-10,-10,-4,-9,-5
1558441790070193,-1,-2,3,-3,-5,-5,-1,0
1558441790070193,-2,-3,-10,-10,0,9,-2,-1
1558441790079480,0,0,-2,1,-1,0,-3,0
1558441790079480,3,4,4,2,4,-10,1,2
1558441790093129,0,0,1,4,4,-3,4,1
1558441790093129,1,0,3,4,-1,-6,-4,0
1558441790102238,-1,-1,2,-3,-8,-7,-4,-4
1558441790102238,-1,-2,-15,-3,-5,3,-6,-4
1558441790116068,1,0,6,-1,4,13,4,-1
1558441790116068,4,4,2,-1,8,-18,10,5
1558441790125045,-3,-4,-2,2,-1,0,-3,-2
1558441790125045,-1,-2,1,1,-3,-3,-6,-3
1558441790131054,-3,-2,-6,-1,-3,5,-1,-2
1558441790131054,0,0,3,2,1,6,1,-1
1558441790140003,-1,1,-2,-5,-6,2,3,0
1558441790140003,-1,1,3,-3,7,9,5,2
1558441790152967,0,-3,-6,3,-6,-13,-7,-1
1558441790152967,-2,-4,-7,-7,-10,2,-5,-3
1558441790161944,0,1,2,2,4,-13,-2,0
1558441790161944,1,1,0,-2,0,11,3,-1
1558441790175907,0,1,1,-5,0,-11,-3,0
1558441790175907,-2,1,10,3,5,8,5,-1
1558441790184885,-3,-5,-19,-13,-14,-10,-3,0
1558441790184885,0,0,4,3,0,-6,1,-1
1558441790191305,-2,-2,-2,-2,-2,-3,-5,-6
1558441790191305,-2,-5,-3,2,2,6,-4,1
1558441790199844,0,1,1,-3,3,10,4,1
1558441790199844,-2,-1,-3,0,0,-8,1,1
1558441790213744,1,1,-2,-6,0,-8,-3,1
1558441790213744,-5,-4,-6,-1,-12,-3,-7,-7
1558441790223149,-1,0,3,5,8,20,14,3
1558441790223149,-1,0,-3,-2,3,-5,-2,0
1558441790236270,-2,-1,-6,-5,-2,11,-1,-6
1558441790236270,-1,2,1,1,0,-6,-6,0
1558441790244293,0,-1,4,0,-3,-9,3,0
1558441790244293,-2,-2,-3,2,-8,0,-4,-1
1558441790250279,-2,-1,2,2,8,4,6,2
1558441790250279,0,-2,-5,-7,-4,-3,-3,-3
1558441790259625,-2,-2,3,3,-1,-10,-12,-4
1558441790259625,-1,-1,5,-1,9,10,6,1
1558441790273220,-2,-1,-6,5,-4,1,-3,0
1558441790273220,-2,-1,-3,-7,-4,-9,0,1
1558441790284470,2,0,-1,2,7,8,-1,-2
1558441790284470,0,-2,-3,-4,-5,-11,-10,-4
1558441790296153,0,-4,8,5,-3,-1,1,1
1558441790296153,0,1,-5,-14,-5,-7,-1,-5
1558441790304559,-4,-3,-4,0,-2,-5,-7,-5
1558441790304559,0,1,4,2,3,4,5,-1
1558441790311113,-2,2,-2,0,-2,-8,-6,-3
1558441790311113,-3,-4,-3,0,-5,4,-3,-2
1558441790320091,-1,-2,-2,-5,-6,-9,-4,-1
1558441790320091,4,3,5,6,7,-2,6,3
1558441790333863,1,2,-3,1,2,-3,-3,-2
1558441790333863,-3,-3,-5,-7,-12,-2,-3,-3
1558441790342265,-1,1,1,4,1,7,0,1
1558441790342265,-4,-8,-14,-1,0,9,3,1
1558441790356244,4,3,4,1,13,2,6,5
1558441790356244,-1,0,1,3,0,-7,0,1
1558441790364787,-2,-1,-2,0,-2,-5,-4,1
1558441790364787,-4,-5,0,-6,-17,-7,-12,-4
1558441790380080,-2,-5,-3,-10,-8,1,-3,0
1558441790380080,2,1,0,4,2,3,-3,0
1558441790380742,-2,-1,-4,-2,-2,8,1,-2
1558441790380742,1,1,-3,-3,-4,-5,-2,-1
1558441790392907,-1,-2,-3,-2,-1,7,-4,-4
1558441790392907,3,3,7,3,4,-4,10,7
1558441790401941,2,-1,-3,-3,-1,-10,-3,-2
1558441790401941,-3,0,2,0,3,-1,-5,-2
1558441790415885,-4,-3,-7,-12,-9,2,2,0
1558441790415885,-1,-1,-1,6,5,4,-1,0
1558441790424665,0,1,3,0,4,6,4,2
1558441790424665,-1,0,-3,-1,-2,-4,-5,-1
1558441790439821,-3,1,6,5,-4,-9,-3,-1
1558441790439821,-1,-2,-2,-1,0,-5,-1,-1
1558441790440590,-1,-1,-5,-5,2,7,1,-4
1558441790440590,0,-2,-5,-1,-3,6,7,-1
1558441790453552,-1,1,-3,-2,5,5,1,-1
1558441790453552,-3,-2,2,3,3,3,-2,-1
1558441790462524,-2,-1,4,1,4,-11,-4,0
1558441790462524,0,2,-4,-6,-10,-13,-2,-1
1558441790475491,-2,-2,0,2,-5,2,-6,-3
1558441790475491,-2,-2,-5,-4,1,7,2,-2
1558441790484582,3,0,7,8,11,6,5,5
1558441790484582,-2,-1,-12,-9,-7,-9,-1,-3
1558441790499426,-1,-2,8,0,-4,-11,1,1
1558441790499426,-1,-2,1,3,-2,-6,-10,-4
1558441790501862,-5,-1,-5,-5,-9,6,-3,-6
1558441790501862,1,-2,3,3,23,18,16,8
1558441790513387,0,1,0,3,2,-9,0,1
1558441790513387,-2,-1,-2,-14,-11,-13,-5,-1
1558441790522362,0,-1,-1,7,-4,3,-1,1
1558441790522362,-2,-2,-8,-21,-11,-3,-8,-2
1558441790536413,1,1,3,11,6,3,-3,-3
1558441790536413,-1,-1,-6,-2,1,3,0,0
1558441790544304,-2,-3,-4,-11,-8,-9,-3,0
1558441790544304,-1,-2,3,4,0,7,-2,-3
1558441790559266,-1,-2,-4,-2,-4,-2,2,-1
1558441790559266,0,1,-1,-1,0,-11,0,2
1558441790561259,0,-1,-1,-4,3,1,-1,2
1558441790561259,-2,-2,4,7,0,-4,-2,2
1558441790573261,-2,0,5,-1,1,2,2,0
1558441790573261,-2,-1,-4,-10,-3,4,-6,-4
1558441790582201,0,-1,-7,-7,-7,-3,-1,0
1558441790582201,-1,1,5,1,-2,-1,-4,-2
1558441790595167,0,0,1,7,5,5,4,-1
1558441790595167,-5,-4,-1,-5,-6,-4,-4,-6
1558441790604144,-2,-3,-1,6,1,-1,-1,0
1558441790604144,-1,-1,-5,-5,4,-9,3,-2
1558441790620101,0,-1,0,-1,-1,-4,-5,0
1558441790620101,0,-1,-1,6,7,9,7,2
1558441790621098,-2,-3,2,-2,-1,-9,-3,0
1558441790621098,-2,-1,-3,4,-4,7,-1,-2
1558441790633505,1,-1,0,-6,0,-6,-5,1
1558441790633505,0,2,-4,3,-3,0,1,0
1558441790642381,-4,-2,1,-4,-16,-12,-10,-8
1558441790642381,-1,1,-3,-2,3,2,-2,-1
1558441790656006,-4,-3,1,0,-1,4,4,-2
1558441790656006,1,-3,-6,-8,-2,-4,4,4
1558441790664982,2,2,9,17,19,14,4,2
1558441790664982,0,-2,-6,1,-4,-8,-4,-2
1558441790679977,-3,-4,-8,-15,-13,-5,-5,0
1558441790679977,0,3,9,5,-1,-1,-2,-1
1558441790680938,-2,-4,-11,-6,3,-3,0,-2
1558441790680938,-3,-4,1,3,2,11,3,1
1558441790692914,-4,-4,-3,-2,-2,-6,-2,-3
1558441790692914,0,-2,-3,3,1,-7,0,1
1558441790701884,-2,0,1,-7,-7,-9,-5,-2
1558441790701884,-3,0,-3,-1,-9,-7,-10,-4
1558441790715845,2,1,-3,4,11,13,14,3
1558441790715845,-1,0,1,-1,1,4,-2,-1
1558441790724823,-3,-4,-6,-9,-10,2,1,-3
1558441790724823,0,0,2,3,1,-21,-2,4
1558441790739780,0,1,0,-1,0,5,-5,-1
1558441790739780,-1,-3,-1,-2,3,7,1,-3
1558441790740843,0,1,-4,-4,-10,-3,-4,-4
1558441790740843,1,-2,-2,-1,-3,-4,-3,-2
1558441790753771,-1,-1,0,-10,0,-4,3,2
1558441790753771,1,1,-3,4,7,3,9,4
1558441790767959,-2,-1,-2,-1,-3,-2,-7,-1
1558441790767959,-1,1,0,-4,-5,12,-2,-3
1558441790775686,2,2,4,5,3,-10,-2,1
1558441790775686,0,1,-3,-1,0,-1,1,0
1558441790784661,-2,0,1,1,-1,-2,3,-1
1558441790784661,4,2,4,5,9,-1,9,7
1558441790799965,-2,-4,-1,4,-4,2,-7,-5
1558441790799965,-1,-1,2,-5,0,3,3,1
1558441790800618,-2,-5,-2,-9,-3,-4,-4,-1
1558441790800618,-1,-1,1,4,2,9,-1,-2
1558441790813763,-3,-3,-6,-5,-8,-4,-6,-4
1558441790813763,-1,0,-1,2,-3,-7,-3,-1
1558441790822559,2,4,-2,-4,5,5,8,3
1558441790822559,-5,-4,6,4,-1,5,-5,-6
1558441790835526,-3,-1,-1,1,-3,-3,4,1
1558441790835526,-2,-3,-4,-1,-5,1,-6,-3
1558441790844504,1,-1,2,1,1,-6,0,-1
1558441790844504,0,0,1,0,4,4,-1,1
1558441790859476,1,0,-2,2,8,7,4,1
1558441790859476,-2,-4,10,3,-2,-3,-4,-1
1558441790861456,0,2,-7,-2,-5,-18,-3,0
1558441790861456,1,0,-1,-3,-9,-15,-2,-2
1558441790882684,-2,-3,-5,-6,-6,0,-6,-3
1558441790882684,-2,0,0,0,5,11,-4,-4
1558441790883400,-2,-2,2,-1,0,17,1,-4
1558441790883400,1,-2,-3,-8,-4,-7,-3,-3
1558441790905337,-1,1,2,10,6,-5,5,2
1558441790905337,0,0,-2,0,-1,-4,1,2
1558441790906336,-2,-2,-5,-9,-10,-3,-10,-5
1558441790906336,-2,-4,-2,2,5,1,1,-1
1558441790919315,-2,-2,-3,-6,-6,-6,0,-1
1558441790919315,-2,-2,-4,-2,1,-5,-4,-3
1558441790921297,1,-2,2,12,7,6,4,1
1558441790921297,-1,0,-2,-4,-8,-8,-1,-3
1558441790933265,1,-1,-3,-2,5,7,1,1
1558441790933265,-4,-2,1,1,-9,-10,-8,-6
1558441790957199,-3,-3,-6,-2,5,6,3,0
1558441790957199,-2,2,0,-2,5,7,4,-2
1558441790958197,-2,-2,3,5,-3,-3,-1,-1
1558441790958197,0,2,5,-3,0,4,-2,0
1558441790964183,-2,-4,-5,3,-3,-8,-3,-1
1558441790964183,-4,-4,-7,-4,-10,-12,-8,-2
1558441790979208,-1,-1,-2,-5,-5,-5,-5,-3
1558441790979208,1,-1,2,0,0,-14,1,1
1558441790981136,-4,-2,-2,-9,-4,4,-5,-5
1558441790981136,0,1,4,2,12,16,9,5
1558441790993105,-2,-2,-2,1,-7,-12,-6,-3
1558441790993105,-1,-1,0,-3,3,14,9,1
1558441791009089,0,2,5,1,2,1,-5,-1
1558441791009089,-3,-3,-7,-2,-8,-12,-8,-1
1558441791016042,0,2,4,6,8,15,5,0
1558441791016042,0,-4,-6,-6,-10,-14,-2,-3
1558441791025019,1,1,5,7,5,7,3,2
1558441791025019,-2,-5,-7,-8,-10,4,-3,-3
1558441791047166,-2,1,-2,-2,0,-11,-5,1
1558441791047166,-2,0,-9,6,4,8,0,-1
1558441791048953,2,-1,4,-7,-7,-7,4,2
1558441791048953,-5,-3,0,-2,-3,-2,-1,-1
1558441791052945,-2,-2,0,-5,-6,1,1,-1
1558441791052945,1,1,3,5,9,9,5,3
1558441791061922,-1,0,-8,-10,2,3,-2,-2
1558441791061922,1,-1,0,-1,2,1,5,0
1558441791076056,-4,-5,1,-2,-9,-3,-6,-4
1558441791076056,-4,-3,-5,-4,-10,-11,-9,-5
1558441791084864,-1,0,4,5,5,3,0,2
1558441791084864,-1,2,-4,1,8,6,1,2
1558441791099819,-3,-3,-4,-10,-7,-3,-5,-1
1558441791099819,0,-2,-4,-3,-9,-5,-5,-3
1558441791100815,1,0,3,0,-4,-27,-3,-1
1558441791100815,5,4,3,7,8,0,-1,1
1558441791112785,2,0,-3,-10,-4,4,8,4
1558441791112785,-3,-3,-2,-5,-3,3,-4,-5
1558441791136901,-3,-4,-3,4,10,24,6,1
1558441791136901,1,1,-2,-2,-3,-18,-3,0
1558441791136901,4,2,3,6,3,1,-6,-1
1558441791136901,-3,-3,2,-2,-1,-10,1,-2
1558441791160887,1,-1,0,3,-1,-14,-3,3
1558441791160887,-5,-5,-1,-1,-5,5,-10,-6
1558441791161884,0,-1,-2,-3,-1,9,6,0
1558441791161884,1,2,3,-3,1,-1,2,3
1558441791165873,-1,0,-4,1,1,4,3,-2
1558441791165873,-2,-4,4,2,-2,-5,-4,-4
1558441791172853,-3,-1,-10,-8,-8,-2,-6,-4
1558441791172853,-3,-4,2,6,-5,-1,-5,-3
1558441791181832,1,3,-1,-4,4,-3,5,2
1558441791181832,-1,-3,-10,-5,0,14,4,0
1558441791211788,-1,-2,3,5,0,-3,-5,-3
1558441791211788,0,-1,-8,-7,-5,-4,3,-2
1558441791213745,-1,0,5,5,1,-2,-5,0
1558441791213745,3,1,6,-3,-4,-16,3,3
1558441791218733,-1,0,0,4,7,3,-4,-3
1558441791218733,-2,-1,-3,-5,-4,2,-1,-1
1558441791225749,0,-2,0,-5,-5,-10,-3,0
1558441791225749,-3,-3,-2,-2,-1,7,4,-1
1558441791233692,0,2,3,1,6,1,2,1
1558441791233692,0,1,-2,4,4,-4,-2,0
1558441791242667,-3,-3,-1,1,-12,-2,-7,-5
1558441791242667,2,2,-1,-5,3,1,3,0
1558441791255633,0,-3,-2,-4,-7,-8,-2,-1
1558441791255633,-1,0,0,1,4,7,1,0
1558441791264608,0,1,-5,2,2,0,2,-1
1558441791264608,-1,-1,0,-9,-5,-1,-6,-2
1558441791286832,-3,-2,-2,4,-5,-5,-7,-8
1558441791286832,2,0,-2,0,5,-3,2,3
1558441791293533,-2,-3,-2,0,-4,-3,-4,-3
1558441791293533,1,2,6,8,11,10,6,4
1558441791294529,-2,-3,-6,-1,0,-1,-2,-2
1558441791294529,-5,-6,-9,-13,-16,-13,-8,-5
1558441791302507,-3,-1,-1,-1,-1,5,0,0
1558441791302507,-1,-1,-5,-9,-5,-17,-5,-2
1558441791324448,0,1,5,-2,-4,-2,-2,-1
1558441791324448,-1,-3,-3,-2,1,9,2,0
1558441791326443,0,-2,0,-3,-7,-2,-5,-3
1558441791326443,-6,-4,-5,0,5,5,6,2
1558441791338412,1,1,5,2,5,-10,-1,2
1558441791338412,1,1,0,1,1,0,1,3
1558441791345401,-4,-2,-4,-4,-5,-7,-3,-6
1558441791345401,-2,0,-1,-2,-10,6,-6,-7
1558441791362357,-3,-3,-5,-2,-1,3,0,-2
1558441791362357,0,0,3,7,9,10,-3,0
1558441791363344,1,-3,0,-6,-1,-8,8,4
1558441791363344,1,0,3,9,7,4,-3,0
1558441791375312,-4,-3,-10,-17,-12,-7,-5,-3
1558441791375312,0,1,7,4,1,6,-3,-2
1558441791384513,0,-1,-8,-5,-7,-1,-4,-1
1558441791384513,-5,-3,5,2,-7,-13,0,-2
1558441791399248,3,3,0,3,11,8,7,2
1558441791399248,-3,-5,-8,-7,-9,-5,-6,-1
1558441791406229,1,-2,0,-1,2,5,2,1
1558441791406229,-3,-2,-5,-2,-6,9,-6,-2
1558441791429168,4,4,3,3,14,-6,13,6
1558441791429168,-1,2,3,9,6,-13,2,1
1558441791431163,-4,-4,-9,-18,-13,4,-3,-4
1558441791431163,-2,-8,-10,-4,-11,-12,-10,-3
1558441791435362,-5,-5,-4,-6,-17,-10,-16,-7
1558441791435362,1,1,3,5,16,23,12,5
1558441791444128,2,3,2,1,10,-13,8,4
1558441791444128,-1,2,0,-3,1,0,5,-1
1558441791459088,2,0,2,2,-4,6,-4,-2
1558441791459088,-3,-4,-4,-8,-10,-3,-8,-8
1558441791466187,1,-2,-7,2,-3,-7,-6,-1
1558441791466187,7,6,3,7,21,9,7,7
1558441791482202,-5,-5,0,-1,-14,-10,-1,0
1558441791482202,-1,-1,1,-1,0,2,1,-1
1558441791484021,-4,-4,7,1,-5,8,-10,-5
1558441791484021,2,2,-5,2,-1,-7,-2,-1
1558441791495990,0,0,-1,1,9,-6,3,3
1558441791495990,2,2,3,-3,-9,-4,-8,-4
1558441791504964,-7,-7,-4,0,-5,-9,-4,-3
1558441791504964,0,-2,2,-1,-1,1,0,-1
1558441791518927,0,0,-5,2,8,10,5,1
1558441791518927,-4,-5,1,-6,-11,-10,-4,-3
1558441791525996,2,0,1,0,-4,1,1,4
1558441791525996,-1,1,-3,-6,-10,-6,-7,-4
1558441791541872,-4,-3,2,9,10,10,1,-1
1558441791541872,1,1,3,3,1,-12,5,3
1558441791543869,-2,-2,-1,-2,-2,7,2,-5
1558441791543869,-4,-5,-15,-9,-8,4,2,-3
1558441791555862,-4,-7,6,3,-1,-13,-5,-2
1558441791555862,0,1,-8,-2,0,-4,3,-1
1558441791564806,0,5,9,12,13,11,5,2
1558441791564806,4,5,7,-12,-1,-1,4,1
1558441791578770,1,-4,-8,5,-8,-4,-8,-4
1558441791578770,-6,-5,2,-3,-8,-9,-3,1
1558441791585751,2,-1,-3,5,9,8,2,-2
1558441791585751,4,6,1,-4,5,6,3,1
1558441791602704,-3,-6,-1,-10,-6,-1,1,-2
1558441791602704,2,-1,-3,-1,5,4,-2,0
1558441791607692,-3,-1,-5,-4,-5,-5,-2,-1
1558441791607692,-2,-2,1,12,2,-13,-3,-1
1558441791624647,1,2,8,-5,-1,5,4,3
1558441791624647,-2,-6,-26,-9,-1,1,1,-3
1558441791625642,1,1,-4,-7,-8,-4,-10,-3
1558441791625642,-2,-3,16,18,10,8,-1,1
1558441791638636,1,6,0,-1,3,6,7,0
1558441791638636,-4,1,6,9,6,11,-1,-3
1558441791653569,7,4,5,2,6,8,2,2
1558441791653569,-11,-7,-15,-9,-12,-20,-8,-5
1558441791662545,1,0,1,-2,-2,0,3,0
1558441791662545,3,0,-3,-1,-1,-4,-7,1
1558441791663542,-3,0,9,3,0,-2,3,1
1558441791663542,-3,-7,-10,-11,-7,-1,-4,-4
1558441791675588,2,0,-4,-3,2,10,2,1
1558441791675588,-5,-1,-4,0,-1,-8,-5,-2
1558441791684485,1,0,2,4,4,5,7,5
1558441791684485,-2,-1,-5,-12,-7,0,-4,-1
1558441791698447,-1,0,0,2,-2,2,-5,-4
1558441791698447,1,-1,2,0,7,13,8,1
1558441791707423,-1,2,1,2,3,-6,-2,-1
1558441791707423,-4,-3,-4,-9,-8,10,7,-1
1558441791722386,-1,-1,-1,-2,-4,-15,-10,-3
1558441791722386,1,1,-4,0,-5,0,5,-1
1558441791723381,-1,-1,5,6,5,-11,-4,-1
1558441791723381,-2,-4,-4,-8,-1,-6,0,1
1558441791744325,2,4,-1,-1,-2,9,1,0
1558441791744325,-4,-6,-5,-11,-5,-9,-2,-3
1558441791746319,-6,-8,-9,-3,-4,-1,-6,-4
1558441791746319,2,0,6,4,2,-1,2,0
1558441791759285,-1,0,-1,1,2,0,-3,-2
1558441791759285,-1,-1,7,5,2,0,-5,-2
1558441791765270,-3,-4,-10,-6,-6,5,1,-2
1558441791765270,-2,0,-2,-1,-5,-2,-6,-1
1558441791782225,0,-1,-2,-1,-1,-19,-2,1
1558441791782225,-1,2,10,3,-2,-6,-6,-1
1558441791783221,-3,-1,-14,-9,-4,-10,-12,-6
1558441791783221,3,0,5,5,3,3,1,1
1558441791795195,-2,-3,-8,-10,-9,-2,0,-1
1558441791795195,3,1,9,7,17,17,11,6
1558441791812147,0,0,7,2,-8,-1,0,-1
1558441791812147,-4,-3,-11,-2,-4,-7,-8,-5
1558441791819125,-3,0,-3,2,8,17,11,1
1558441791819125,-3,-4,-8,-7,-17,-13,-7,-5
1558441791825113,1,1,5,1,-3,-3,2,1
1558441791825113,5,-2,1,6,7,-4,-6,-1
1558441791842069,-7,-4,-2,-3,0,-3,0,-2
1558441791842069,1,3,-9,-10,-8,-5,-3,0
1558441791843065,-2,-2,0,-7,3,4,4,1
1558441791843065,3,2,-4,-7,-6,-8,-6,-1
1558441791865008,-1,1,4,6,14,8,2,-1
1558441791865008,-5,-5,-7,-5,-7,-3,-2,-8
1558441791866001,-3,-2,1,0,-6,-17,-7,-3
1558441791866001,-1,1,5,7,5,7,2,-3
1558441791878981,0,0,-1,0,-1,9,-2,0
1558441791878981,3,4,-1,-5,5,-1,7,2
1558441791885948,-2,-6,-10,-3,6,13,7,0
1558441791885948,-4,-2,10,14,1,-2,-1,-4
1558441791901906,2,-2,-5,-13,-10,-18,-7,-3
1558441791901906,0,-2,3,2,3,5,-1,1
1558441791903902,6,1,3,5,3,-4,5,2
1558441791903902,-7,-3,-1,-6,-4,-10,-8,1
1558441791915865,1,-1,-3,6,-2,-4,3,0
1558441791915865,-3,-1,-6,-7,-5,8,-2,-2
1558441791924843,0,-2,-5,5,11,9,4,1
1558441791924843,-4,-1,3,-1,-3,-4,2,-1
1558441791938804,-1,0,-3,-6,-11,-10,-8,-7
1558441791938804,-2,-1,9,12,0,3,-4,0
1558441791945786,0,3,-6,-8,2,-3,-2,-3
1558441791945786,4,0,-6,2,4,14,10,2
1558441791962749,-2,-2,-4,-5,-5,-6,-3,2
1558441791962749,-2,-3,-3,2,-4,-3,-6,-3
1558441791967733,-3,-3,1,-4,-8,-4,-11,-6
1558441791967733,0,1,-2,-4,1,1,2,0
1558441791975705,-5,-3,-6,-13,-11,-9,-9,-5
1558441791975705,1,0,1,2,-1,-4,0,1
1558441791984682,0,0,4,5,-7,-16,-4,1
1558441791984682,7,3,-1,-9,-3,-6,-2,0
1558441791998647,-16,-8,4,18,13,14,1,-5
1558441791998647,4,5,6,1,9,9,10,3
1558441792005628,-1,-1,-5,0,-5,-4,-4,-3
1558441792005628,3,-1,4,2,-2,6,-9,-2
1558441792020594,7,4,4,5,7,10,4,3
1558441792020594,-5,-6,-10,-11,-10,-15,-1,-3
1558441792029563,-2,-2,3,2,-2,-3,4,1
1558441792029563,0,2,2,3,3,-1,7,2
1558441792035547,1,-4,-1,4,0,-8,-3,-1
1558441792035547,-4,-2,-5,-9,0,0,-7,-5
1558441792044522,0,0,-2,-4,-5,5,1,-2
1558441792044522,-7,-9,-12,-9,-8,-12,-6,-2
1558441792058490,3,4,5,5,5,4,3,5
1558441792058490,1,-1,12,6,1,-1,1,-2
