timestamp,emg1,emg2,emg3,emg4,emg5,emg6,emg7,emg8
1558441715227710,-1,-2,-2,0,-1,-2,-4,0
1558441715227710,-1,0,0,1,1,5,0,0
1558441715228707,0,1,1,0,-5,-4,-2,-1
1558441715228707,-3,-1,-7,-7,-4,-4,-3,1
1558441715231698,-1,-1,-3,-2,0,3,1,-5
1558441715231698,-2,0,3,-1,-2,-11,-5,-3
1558441715234691,-1,-2,-1,-1,-5,1,-3,-1
1558441715234691,0,0,2,1,5,4,6,2
1558441715238683,2,3,5,-1,3,-13,0,3
1558441715238683,0,-1,-8,-5,-4,1,-1,-4
1558441715246660,-2,-2,0,-3,-7,-12,-10,-8
1558441715246660,-2,-2,0,1,0,8,2,-4
1558441715262618,-2,-4,1,-1,1,2,2,1
1558441715262618,-3,-1,0,-1,-2,-1,-1,-2
1558441715268600,0,-3,-5,-1,6,6,12,5
1558441715268600,3,1,2,0,6,2,4,0
1558441715276579,-3,-3,-1,-1,-10,-10,-7,-1
1558441715276579,-2,-2,0,-2,-5,2,-5,1
1558441715291539,-2,-4,-7,-7,-2,7,1,-7
1558441715291539,1,1,2,3,8,2,4,0
1558441715299518,-1,2,-2,-1,4,4,1,-2
1558441715299518,0,-1,0,-2,-6,-10,-6,-2
1558441715346392,1,4,4,0,-2,-19,-6,-1
1558441715346392,2,-1,-4,-3,3,-2,3,2
1558441715347390,1,2,2,1,7,6,4,1
1558441715347390,-1,0,1,0,1,7,2,-1
1558441715348388,-3,0,-4,-3,-9,2,-4,-6
1558441715348388,-4,-4,0,-1,-4,-6,-9,-3
1558441715350381,-1,0,-1,0,0,-5,1,2
1558441715350381,1,0,1,1,2,-2,3,0
1558441715358360,-3,-2,-4,-3,-3,-1,-5,-3
1558441715358360,-3,-3,-3,-2,-7,-8,-7,-3
1558441715365343,0,-1,1,1,4,5,2,0
1558441715365343,-1,-3,3,2,2,-1,0,-2
1558441715373321,1,2,-2,0,5,10,6,4
1558441715373321,1,1,2,-2,-4,-10,-6,-6
1558441715388281,-1,-2,-3,-1,0,-5,1,3
1558441715388281,0,-1,-2,-2,-2,-2,-1,-2
1558441715404238,-2,-5,-4,-4,-7,-5,-8,-3
1558441715404238,1,3,-1,1,2,5,5,4
1558441715406232,-3,-2,-1,-3,1,1,-3,-9
1558441715406232,1,3,-1,-1,3,-3,4,2
1558441715419198,-1,-3,-2,1,0,-3,1,1
1558441715419198,-2,-1,-2,-1,-5,2,-2,-2
1558441715425183,-1,-1,-4,-7,-19,-17,-12,-3
1558441715425183,-2,-1,-2,4,12,13,5,4
1558441715433160,2,2,3,-2,6,-2,4,1
1558441715433160,0,3,-1,-2,0,3,3,1
1558441715448120,-4,-6,-6,-5,-10,-2,-11,-7
1558441715448120,-4,-4,-5,-5,-13,-11,-12,-6
1558441715456098,2,2,2,5,13,9,12,7
1558441715456098,-2,4,3,1,0,-9,-3,0
1558441715464077,-1,0,-4,0,4,8,5,-3
1558441715464077,-3,-6,-7,-4,-10,-6,-5,0
1558441715479037,-1,0,0,1,6,8,3,-3
1558441715479037,0,-3,2,2,4,5,3,2
1558441715486019,-2,0,-1,0,-6,-2,-5,-2
1558441715486019,-2,-1,-2,-4,-2,-9,-4,-4
1558441715493000,-3,-4,-3,-1,-3,-1,-5,0
1558441715493000,0,-2,-1,1,6,6,5,1
1558441715509955,2,3,5,4,14,5,10,5
1558441715509955,-1,-1,2,0,-3,3,-2,-1
1558441715515939,-2,-2,1,-3,-10,-1,-7,-5
1558441715515939,-1,0,0,-1,-1,-9,-4,-3
1558441715524915,1,1,1,2,3,-7,-1,0
1558441715524915,-2,1,-3,-2,-2,-2,-2,0
1558441715538878,0,-3,-1,-1,0,5,1,-1
1558441715538878,-2,-3,1,0,4,6,1,-1
1558441715545860,-2,0,-3,-4,-1,8,5,1
1558441715545860,1,2,1,-1,-5,-9,-5,-2
1558441715552841,-1,-1,1,2,3,0,0,1
1558441715552841,-3,-4,-5,-4,-1,3,1,0
1558441715567802,-5,-2,-4,-4,-5,-2,-1,0
1558441715567802,0,-2,-2,-1,1,4,2,-1
1558441715575779,-2,3,0,1,2,-1,3,-1
1558441715575779,0,-3,-4,-1,1,0,2,0
1558441715584755,1,-2,-1,0,-4,-4,-6,-4
1558441715584755,-3,-1,-2,-2,-1,1,-1,-5
1558441715598717,-1,-2,-3,-3,-5,-3,-6,0
1558441715598717,0,-1,-1,0,6,2,7,1
1558441715605700,-3,-1,1,-1,-2,-2,-5,-1
1558441715605700,0,0,2,-1,-6,-9,-5,-3
1558441715612681,0,-4,-9,-9,-3,-1,-2,-2
1558441715612681,-2,-2,-1,0,2,10,2,3
1558441715627641,-2,0,2,-1,-2,-3,3,-2
1558441715627641,0,2,0,0,5,-1,1,2
1558441715643597,-1,1,3,0,1,2,2,0
1558441715643597,-2,-2,-4,-2,-8,-3,-4,-2
1558441715650578,-1,1,4,3,2,8,6,1
1558441715650578,0,1,-1,0,1,3,-3,1
1558441715658557,0,-1,-1,-1,-4,-9,-11,-3
1558441715658557,1,-1,-2,0,1,1,5,0
1558441715665539,0,-2,-3,-1,-4,-9,-7,-2
1558441715665539,-1,-2,2,0,4,5,4,-1
1558441715673518,-4,-2,-3,-1,-12,-15,-6,-4
1558441715673518,0,0,1,-1,1,-2,-4,-2
1558441715688478,0,2,-2,-2,4,5,3,3
1558441715688478,-3,-2,-6,-5,-4,0,0,-2
1558441715695459,-1,-3,0,-3,-7,-7,-4,-1
1558441715695459,-3,-2,-2,-2,-8,-5,-4,-3
1558441715719395,1,2,3,0,8,3,2,1
1558441715719395,-2,0,1,2,0,1,2,-1
1558441715720393,0,1,0,0,4,7,2,-1
1558441715720393,-5,-3,0,-3,-7,-10,-10,-5
1558441715725379,0,-4,-2,-2,-8,-5,-6,0
1558441715725379,0,0,2,3,3,5,2,-1
1558441715733358,-1,-1,0,1,1,1,2,2
1558441715733358,-4,-2,-5,-5,-4,-2,-1,-1
1558441715748318,-1,-1,-3,-1,1,5,2,0
1558441715748318,-3,-2,-3,-4,-8,-11,-6,-1
1558441715755299,-1,-1,-1,1,-1,-2,-2,-7
1558441715755299,1,1,2,2,9,7,4,4
1558441715770259,-2,-3,-4,-1,3,0,-3,-1
1558441715770259,-1,-4,-2,-2,-4,1,-5,-3
1558441715779235,-2,-3,0,-2,-4,-9,2,0
1558441715779235,1,-2,-4,-5,-5,-4,-4,-3
1558441715786220,-1,-2,-1,-2,0,3,3,0
1558441715786220,0,0,1,1,8,-6,3,6
1558441715793197,-2,1,1,0,-1,5,-3,-1
1558441715793197,-1,1,2,0,-6,-3,-6,-4
1558441715808158,-3,-6,-8,-5,-6,-8,-6,-3
1558441715808158,0,-1,3,0,-5,-3,4,0
1558441715816136,-1,0,1,1,10,10,6,4
1558441715816136,1,2,1,0,1,7,-1,-5
1558441715831098,0,-1,-2,0,-3,-5,-1,2
1558441715831098,-1,1,-1,0,-1,-5,-2,-3
1558441715839075,1,-1,-2,-2,0,0,2,2
1558441715839075,-1,-1,1,-1,-9,-7,-10,-5
1558441715846057,-2,1,3,2,6,17,7,0
1558441715846057,-2,0,-2,0,2,3,1,-1
1558441715853038,-2,-3,-2,-3,-4,-9,-7,-4
1558441715853038,0,-2,-5,0,-1,-4,0,1
1558441715867997,2,1,3,1,1,-10,-2,1
1558441715867997,-4,-4,-3,0,1,3,4,0
1558441715875979,0,-2,-1,-2,2,6,2,1
1558441715875979,-3,2,-3,-1,-5,-16,-5,0
1558441715890936,-2,-4,0,0,-5,0,-5,-5
1558441715890936,-1,-2,-5,-3,1,9,-3,-2
1558441715898923,-1,0,0,2,2,-1,1,2
1558441715898923,0,1,0,0,3,2,2,0
1558441715905896,0,1,2,-1,-5,-1,-3,-4
1558441715905896,-1,-5,-1,-2,-1,-8,-3,3
1558441715912878,-2,0,-3,-1,-3,0,-1,-1
1558441715912878,1,0,1,-1,6,3,6,3
1558441715927837,-2,3,-1,-2,-6,-9,-6,-6
1558441715927837,-2,-6,-4,-4,-9,-2,-6,-5
1558441715935816,3,-1,1,1,3,-2,4,3
1558441715935816,0,-2,1,1,8,13,3,-2
1558441715950776,1,-1,-2,-2,-1,-4,-2,-2
1558441715950776,-2,6,-1,-3,-9,-9,-3,-2
1558441715958755,0,-2,-1,2,3,8,3,3
1558441715958755,-6,-12,-4,-1,-4,-1,-2,0
1558441715965736,0,-2,-2,-2,2,2,0,0
1558441715965736,1,0,-1,-2,-5,-5,-3,-2
1558441715981693,-3,3,0,0,-1,3,1,-3
1558441715981693,-2,1,-3,-2,-2,5,-1,-1
1558441715988675,-4,-7,-3,-2,0,-1,1,-1
1558441715988675,1,2,1,4,5,0,1,1
1558441715995655,1,0,-4,-6,-6,-11,-6,-3
1558441715995655,0,-1,1,2,-3,-2,-3,0
1558441716010617,-1,-2,-4,-3,2,5,0,2
1558441716010617,2,2,1,0,8,8,4,0
1558441716018594,0,1,2,0,-3,-7,-3,0
1558441716018594,-1,-1,-2,-3,0,-3,-1,-4
1558441716025576,-3,-4,-4,1,-5,-5,-2,-4
1558441716025576,-1,0,0,-1,-2,3,0,-1
1558441716041532,-1,-3,-1,-1,3,-6,-1,-1
1558441716041532,0,1,-2,-3,-3,0,-2,-3
1558441716049512,1,1,3,0,-1,-2,-5,-1
1558441716049512,-1,-3,-1,-3,-2,0,-2,-2
1558441716055496,0,1,0,-1,-5,-1,-3,-1
1558441716055496,-1,2,4,4,7,6,8,4
1558441716070458,2,2,-1,1,5,-8,0,1
1558441716070458,0,-2,-6,-3,-2,-4,-6,-4
1558441716078434,-2,-3,1,-3,-5,-8,-4,-2
1558441716078434,0,-1,-1,0,2,3,0,2
1558441716085415,-1,-2,0,-2,-3,-4,1,0
1558441716085415,0,0,0,-1,0,-3,1,2
1558441716101374,-1,-2,0,-1,-1,-2,-1,-1
1558441716101374,-2,-1,-1,-1,-4,-4,-4,-5
1558441716108355,-2,-2,2,1,-6,0,-7,-6
1558441716108355,-3,0,-5,-1,5,10,4,5
1558441716115336,-1,-3,-5,-5,0,-5,2,-3
1558441716115336,1,-2,0,-2,-3,-13,-8,-5
1558441716130296,-1,-3,-8,-3,2,6,1,-1
1558441716130296,0,0,2,0,-1,2,3,-2
1558441716139271,-3,-1,-3,0,-3,4,-2,-3
1558441716139271,-1,-3,-3,-3,-1,-1,-3,2
1558441716145255,-1,0,1,-1,-2,-9,1,3
1558441716145255,1,3,0,-1,3,1,-1,0
1558441716161219,-2,-2,-2,-2,-4,2,-3,-2
1558441716161219,0,-3,0,0,-3,-5,1,4
1558441716168201,-2,-2,-1,2,3,4,0,-3
1558441716168201,0,-3,1,0,0,2,3,-1
1558441716176179,0,0,-1,0,-5,-4,-2,-4
1558441716176179,0,1,-2,-3,-1,0,-1,-2
1558441716190136,2,0,-1,-1,0,1,0,2
1558441716190136,-1,-2,1,1,-1,-4,0,1
1558441716199112,-2,-3,-5,-3,-3,1,-4,-3
1558441716199112,-2,-1,-2,-4,5,9,8,1
1558441716206094,0,1,2,0,8,5,7,5
1558441716206094,-1,-1,-2,-5,-9,-5,-8,-6
1558441716221053,1,-2,-2,3,5,8,1,1
1558441716221053,1,0,-1,-1,-4,-8,-5,-1
1558441716228035,-2,-2,-2,-3,-7,-6,-2,-6
1558441716228035,-2,-4,-1,-3,-4,-3,-6,-3
1558441716236015,0,2,4,2,-1,-7,-2,1
1558441716236015,-1,0,-1,-2,1,2,1,0
1558441716250975,1,0,1,-1,-1,-7,-5,0
1558441716250975,-2,-4,-4,0,0,1,0,0
1558441716258953,0,1,-1,-1,0,1,3,0
1558441716258953,-1,-1,4,2,-1,-2,-1,0
1558441716265933,-2,-2,-4,-3,-4,5,-4,1
1558441716265933,-4,-2,2,-2,-5,1,-4,-6
1558441716280937,0,-2,-1,-4,2,-20,-5,0
1558441716280937,0,-1,-5,-1,-2,1,2,2
1558441716287878,-1,1,-1,1,2,2,2,0
1558441716287878,-2,-2,-4,-2,-1,-1,-3,0
1558441716295854,-3,-3,0,1,-3,5,-4,0
1558441716295854,-2,1,4,-1,-6,-5,-3,-7
1558441716310818,1,4,4,1,3,2,3,4
1558441716310818,-2,-4,-2,-2,-1,-4,-1,-3
1558441716318793,-1,-1,2,0,0,3,4,1
1558441716318793,-1,-1,-3,-1,-1,-6,-7,-2
1558441716333754,0,2,-1,-2,-5,-4,-8,-3
1558441716333754,2,1,2,-3,6,-2,5,4
1558441716341736,-1,0,0,1,5,8,1,0
1558441716341736,-1,-2,-2,-2,-6,4,-3,-2
1558441716356692,0,-2,0,0,-2,2,-3,-5
1558441716356692,0,0,-1,0,0,-14,-5,1
1558441716363692,-2,-3,-3,-2,1,-3,1,-2
1558441716363692,1,2,3,3,8,12,9,3
1558441716370662,-1,-6,-5,-3,-12,-10,-7,0
1558441716370662,-5,-3,-3,-2,-8,-3,-5,-4
1558441716378634,-1,0,0,0,4,6,2,0
1558441716378634,-1,-2,-3,-2,-4,-10,-5,-4
1558441716393693,-1,-2,-2,-1,0,0,-2,1
1558441716393693,-1,-1,0,-2,2,9,3,-1
1558441716401672,-2,-1,-4,-4,-10,-12,-10,-5
1558441716401672,-2,-1,-5,-4,-1,-3,0,2
1558441716416531,0,0,1,-1,9,5,9,3
1558441716416531,0,-2,2,1,-3,-8,-2,-3
1558441716417528,2,-1,2,3,6,7,7,2
1558441716417528,-2,0,1,1,-7,-5,-5,-2
1558441716431493,-5,-4,-7,-7,-7,1,-6,-6
1558441716431493,-4,-4,-7,-1,-4,-1,-5,0
1558441716446453,2,2,2,1,5,5,4,3
1558441716446453,-1,-2,-2,-1,0,-10,0,3
1558441716453434,2,2,2,2,8,1,8,2
1558441716453434,0,3,1,0,-2,1,-3,-2
1558441716461412,-2,-3,-4,-2,-12,-6,-7,-5
1558441716461412,-2,-2,2,1,5,6,-2,0
1558441716476584,-2,0,-1,-2,0,0,1,1
1558441716476584,-1,0,0,1,0,-4,3,-1
1558441716477370,0,-1,-2,-2,-4,-2,-3,-3
1558441716477370,1,0,2,1,1,4,1,0
1558441716491369,-1,-2,-3,-2,-5,-12,-6,0
1558441716491369,-2,0,-3,0,4,9,3,-2
1558441716499431,-2,-3,-9,-5,-7,-5,-8,-4
1558441716499431,-2,-2,-6,-2,-3,3,1,-1
1558441716513415,-3,-2,-1,-1,-4,-4,-3,-4
1558441716513415,2,1,0,2,2,-6,3,4
1558441716521251,-3,2,-2,2,7,5,7,2
1558441716521251,0,-2,2,-5,2,-5,-4,-1
1558441716536212,-3,0,0,1,1,5,3,-5
1558441716536212,1,-1,-2,-1,-3,-4,-5,-2
1558441716537210,-1,0,-1,0,-1,-1,2,1
1558441716537210,-4,-1,-3,-1,-5,-7,-6,-7
1558441716551414,-1,-2,2,7,0,-1,-6,-4
1558441716551414,-1,-1,-1,-8,0,3,3,0
1558441716559380,-4,-2,-1,1,-4,-10,-2,-3
1558441716559380,2,-1,-6,0,3,10,4,-1
1558441716573323,-2,-4,1,2,-3,-3,-3,-3
1558441716573323,3,-2,4,7,1,0,-5,-3
1558441716581118,3,1,-2,5,4,4,-2,0
1558441716581118,2,3,16,15,4,0,15,4
1558441716596050,-7,-11,-3,-21,-16,-11,-18,-8
1558441716596050,4,6,-11,0,7,1,13,13
1558441716597047,-10,-12,9,-2,-10,-12,-12,-11
1558441716597047,8,13,11,19,12,13,-1,4
1558441716611010,0,1,-10,10,2,-2,5,-1
1558441716611010,-5,-9,11,-26,-9,-10,3,3
1558441716618989,-2,-5,-24,-22,-7,5,9,0
1558441716618989,-5,-6,-6,10,-7,-3,-17,-9
1558441716632982,-1,6,0,-2,10,7,4,2
1558441716632982,2,2,9,6,-2,-1,4,-4
1558441716640930,-2,0,9,-20,-5,-5,-13,-1
1558441716640930,-10,-2,-15,4,4,0,-5,-7
1558441716655890,2,1,16,-2,2,-2,-1,2
1558441716655890,1,0,-33,19,2,6,0,-2
1558441716656887,0,2,13,-11,0,-1,3,1
1558441716656887,-3,-7,6,-23,-13,-10,1,-3
1558441716670865,3,9,20,13,8,4,-1,0
1558441716670865,0,-8,-15,23,3,2,1,-1
1558441716677860,13,13,-21,2,5,6,7,7
1558441716677860,-18,-1,6,-42,-21,-12,-8,-9
1558441716692793,3,-4,14,12,2,2,11,7
1558441716692793,1,-2,11,-5,0,0,-4,4
1558441716701767,-8,-1,-32,-11,-10,-1,-7,-7
1558441716701767,-1,-1,16,18,-4,-11,-5,-3
1558441716716733,2,-4,-36,-5,8,9,1,-3
1558441716716733,-13,4,24,-10,-14,-7,-5,-3
1558441716717727,-4,-19,-18,2,12,4,-6,3
1558441716717727,-4,3,11,-5,-13,-8,0,-1
1558441716730695,3,-5,6,15,5,6,8,7
1558441716730695,6,22,74,60,22,3,2,3
1558441716738674,0,-16,-79,-79,-31,-14,-5,-7
1558441716738674,2,-1,-32,-25,-15,-9,-5,0
1558441716761716,-14,-6,-1,0,8,2,-8,-6
1558441716761716,21,-2,-3,0,11,2,2,17
1558441716762608,-5,22,84,40,6,4,15,5
1558441716762608,13,21,-11,36,37,25,9,5
1558441716776677,-10,-16,-10,-20,-20,-3,-6,-10
1558441716776677,-26,-29,-14,-25,-10,-11,-19,-19
1558441716777567,10,15,25,33,6,-2,-12,4
1558441716777567,4,-6,15,-4,-14,-7,-1,17
1558441716790529,8,24,5,9,16,18,21,7
1558441716790529,5,1,-42,-20,-17,-4,-9,-6
1558441716798734,-7,-12,-10,2,-1,1,2,0
1558441716798734,-9,-15,-33,-23,-12,-16,0,-7
1558441716813683,22,24,55,31,17,-1,-11,11
1558441716813683,-3,-1,8,20,-2,-8,9,6
1558441716821651,-1,-14,-28,-10,-11,-12,-11,-18
1558441716821651,3,8,5,14,2,12,9,0
1558441716836410,-29,-37,-21,-20,-13,-31,-16,-17
1558441716836410,-14,-18,-45,-40,-20,1,-16,-6
1558441716837405,7,9,16,4,12,6,30,16
1558441716837405,-1,-3,8,-2,0,-3,2,-6
1558441716850370,9,19,6,35,9,4,2,-1
1558441716850370,-5,-2,-22,-31,-17,-10,-7,-2
1558441716858349,-21,-22,1,10,-8,-7,-17,-19
1558441716858349,11,4,-4,-28,5,12,6,11
1558441716873307,13,18,-8,-15,-2,7,23,11
1558441716873307,-13,-2,41,18,26,2,2,-10
1558441716881329,12,2,-31,-26,-25,-18,-35,0
1558441716881329,4,-2,24,33,26,13,14,6
1558441716896573,-25,-14,-10,-15,-30,-21,-25,-19
1558441716896573,9,-2,4,-1,17,13,8,-2
1558441716904598,-2,3,24,53,14,0,-1,0
1558441716904598,-2,-15,-30,-58,-21,-7,-9,-3
1558441716911436,2,-3,2,-18,-3,0,9,6
1558441716911436,-1,10,-5,17,4,5,-1,2
1558441716918561,-6,1,32,31,18,10,4,-3
1558441716918561,-10,-13,-36,-7,-15,-7,-10,-7
1558441716933344,-1,7,14,5,12,5,20,5
1558441716933344,3,0,11,-10,-12,-11,2,-1
1558441716941131,20,31,12,-11,1,7,3,4
1558441716941131,-10,-11,15,23,5,-1,-7,-8
1558441716957083,-5,-8,-32,-32,-10,9,-9,-8
1558441716957083,4,7,6,-5,-5,-1,-5,-4
1558441716964065,-8,-1,10,-12,4,5,21,0
1558441716964065,0,8,31,34,11,-2,-7,-3
1558441716971046,-5,-9,-43,-28,-4,2,-14,-4
1558441716971046,14,11,18,-1,3,3,12,5
1558441716978027,-27,-17,19,23,-5,-4,-14,-2
1558441716978027,2,-4,-27,-9,-2,8,21,-4
1558441716992988,6,5,20,3,6,-4,-15,-3
1558441716992988,-12,-2,-27,-18,-24,-15,-27,-16
1558441717000965,8,2,0,-9,2,7,22,3
1558441717000965,0,1,-9,-2,-6,-14,-14,0
1558441717016301,7,10,0,7,2,1,10,8
1558441717016301,4,1,3,-5,-8,-10,2,4
1558441717023907,-3,-13,-7,1,10,11,19,6
1558441717023907,7,8,27,10,8,0,-10,5
1558441717031236,-9,-7,-2,-11,-20,-9,-2,-4
1558441717031236,2,-1,-24,7,18,20,19,10
1558441717037869,-19,-19,-26,-32,-15,-21,-13,-11
1558441717037869,-1,-7,3,-4,7,4,1,-1
1558441717062291,12,13,5,1,-12,-6,-1,-3
1558441717062291,4,3,1,4,0,-7,-6,0
1558441717063808,-5,-12,-17,-12,-7,3,-2,-2
1558441717063808,3,1,-10,-8,1,6,-6,-9
1558441717075766,4,5,-2,-6,-9,-2,-6,-1
1558441717075766,-2,7,-1,-13,-1,8,8,-1
1558441717084244,2,-1,22,13,-3,-10,-14,4
1558441717084244,-9,-6,-8,-10,3,-8,9,-7
1558441717099199,0,-9,-3,-4,3,1,-6,4
1558441717099199,-15,-29,-23,-1,-17,-23,-1,-7
1558441717099703,10,21,8,15,14,12,8,3
1558441717099703,4,-1,0,0,-17,-11,-11,3
1558441717114165,-5,2,21,16,19,20,18,-2
1558441717114165,-2,3,16,-3,-3,-9,-20,2
1558441717122128,6,-3,-27,-3,4,5,13,4
1558441717122128,-7,7,8,8,-2,-6,5,4
1558441717135607,-6,-14,-19,-4,-9,-14,-5,-4
1558441717135607,-1,-1,4,1,1,10,1,-4
1558441717143586,2,-4,6,-13,-4,-10,1,3
1558441717143586,1,3,-8,-9,-1,1,-8,-1
1558441717159574,1,-6,4,3,-6,-7,-6,2
1558441717159574,2,1,-4,-2,4,10,4,-3
1558441717159574,3,13,4,0,-11,-10,-13,-5
1558441717159574,-10,-38,-20,4,5,10,15,5
1558441717173803,1,9,1,-8,-5,-3,-8,1
1558441717173803,-5,-6,1,14,7,8,19,-2
1558441717181786,8,16,6,11,9,5,3,3
1558441717181786,3,16,1,-30,-12,-6,-16,-6
1558441717196444,-7,-21,-15,-1,-1,2,18,0
1558441717196444,5,10,6,-4,1,-3,-18,0
1558441717204512,0,-1,-6,7,4,8,0,-4
1558441717204512,0,-2,3,10,0,0,1,4
1558441717218419,-6,-6,-5,-3,0,-7,-6,-15
1558441717218419,-2,5,-8,2,-1,-2,2,-7
1558441717219386,0,-2,2,-16,3,2,-5,5
1558441717219386,-2,1,-6,7,-9,3,14,-3
1558441717233587,7,19,2,5,1,-7,-6,0
1558441717233587,-7,-15,3,4,9,9,7,3
1558441717240327,-7,-21,-18,-12,-3,2,-3,-10
1558441717240327,-8,-24,-3,6,5,-1,-13,-5
1558441717255286,8,4,2,5,2,3,-4,5
1558441717255286,3,7,4,0,-6,-1,4,-2
1558441717264505,0,5,-5,-16,-5,-1,-10,-1
1558441717264505,0,8,-4,-3,-7,-7,-5,0
1558441717279223,4,-7,3,5,6,1,-11,6
1558441717279223,3,0,1,-2,7,10,12,4
1558441717279223,-3,-5,7,5,-2,-10,1,-4
1558441717279223,2,8,11,7,-4,-6,-5,1
1558441717293530,2,7,1,-1,-5,-1,-1,-1
1558441717293530,0,2,-7,-5,-3,-3,-11,1
1558441717301525,-15,-17,-1,15,0,-4,-6,-8
1558441717301525,11,8,3,-12,-5,-8,-1,0
1558441717315546,-22,-19,7,0,-2,-2,7,0
1558441717315546,-10,-21,-14,13,3,-5,-10,-9
1558441717324528,5,7,3,-7,-5,4,9,0
1558441717324528,4,-1,-13,-2,-1,-2,-8,0
1558441717339480,6,2,-9,-9,-6,-1,10,9
1558441717339480,3,3,-1,-6,-11,-7,-8,-8
1558441717339480,-4,-2,3,0,3,-2,-2,-1
1558441717339480,2,8,12,-1,3,9,0,-4
1558441717353467,6,5,-13,-12,6,5,-8,-1
1558441717353467,1,7,10,14,19,4,16,7
1558441717361679,0,-8,-10,-9,-9,-14,6,4
1558441717361679,-2,-1,11,5,1,3,-1,-1
1558441717376384,-4,-6,-2,-9,-15,-9,-13,-9
1558441717376384,-2,1,-14,-17,-6,3,-6,-5
1558441717384581,-2,-2,8,6,-2,1,-1,-2
1558441717384581,1,10,18,12,10,0,3,-2
1558441717399415,0,-8,-24,-6,-15,-10,6,10
1558441717399415,5,1,-12,-2,3,0,-4,-2
1558441717399415,-2,7,13,4,-3,-11,-21,-2
1558441717399415,-6,-11,1,13,8,15,20,-1
1558441717413285,-12,-11,-2,-7,-1,-8,-9,-18
1558441717413285,8,12,3,-5,-6,-2,-3,5
1558441717421516,6,0,-2,3,-3,2,7,8
1558441717421516,5,12,-8,-2,9,8,5,3
1558441717435257,-15,-19,-7,-5,-2,1,-3,-1
1558441717435257,-8,-12,-5,-2,-1,-4,-1,5
1558441717444390,-4,-6,10,12,5,5,-3,-13
1558441717444390,-2,-4,-7,-17,-1,0,-6,0
1558441717459156,9,8,13,25,8,9,12,-1
1558441717459156,-1,3,-5,-21,-11,-7,1,2
1558441717459156,5,9,5,10,4,11,5,6
1558441717459156,0,-2,-4,0,-3,-10,-6,4
1558441717473118,-1,2,2,16,3,-2,10,-2
1558441717473118,-2,-1,15,8,-3,-5,-3,-1
1558441717482101,6,6,-9,-4,0,-2,-5,2
1558441717482101,-7,-4,4,15,2,3,4,-4
1558441717496060,9,12,9,-1,14,16,11,4
1558441717496060,-8,-24,-26,-17,-18,-8,-10,-5
1558441717504039,-1,0,1,-7,-5,-5,-5,-2
1558441717504039,-6,-4,-8,-6,-6,-9,-5,-4
1558441717518996,-2,-2,-5,-1,-14,-10,-14,-3
1558441717518996,3,6,15,7,5,11,7,-1
1558441717519997,0,0,1,1,5,-5,-14,-8
1558441717519997,-3,-9,-14,-21,-12,-8,-4,-1
1558441717533222,-5,-4,2,-4,-2,-5,-11,-5
1558441717533222,-1,-2,-1,5,1,-8,-16,0
1558441717542117,4,5,0,0,1,9,4,2
1558441717542117,0,-2,2,-2,-1,-6,-1,-3
1558441717555927,-4,-6,-17,-18,-9,-5,-16,-4
1558441717555927,-3,-3,8,-11,-8,-5,0,-3
1558441717563932,1,3,-10,-7,-3,5,7,-1
1558441717563932,-3,-2,7,8,1,-2,-7,-4
1558441717578838,1,-1,-2,1,4,-1,-1,0
1558441717578838,3,8,2,-1,-4,0,-5,-3
1558441717586816,-6,-7,0,-10,-3,-7,-11,-2
1558441717586816,0,-4,1,1,6,6,1,2
1558441717592800,-7,-5,8,7,-2,1,0,-5
1558441717592800,3,3,5,16,11,4,1,-2
1558441717601827,6,6,4,2,-1,5,18,9
1558441717601827,-11,-14,-8,-13,-4,-5,-8,-4
1558441717616058,1,0,-9,-9,1,1,14,-1
1558441717616058,-4,-1,-5,-8,-9,-2,2,-5
1558441717624022,-3,-2,13,26,6,-5,-5,-4
1558441717624022,2,0,-12,-8,3,1,4,5
1558441717647730,0,2,11,-3,-3,-1,6,1
1558441717647730,-2,-4,-7,0,4,-1,10,1
1558441717647730,-3,-2,-6,-8,7,4,-3,0
1558441717647730,-4,1,-1,0,-8,-1,-5,-8
1558441717652692,-2,-5,-11,5,-2,-5,-5,1
1558441717652692,3,3,12,18,13,16,8,3
1558441717661666,-2,-7,-23,-15,-10,-5,-3,0
1558441717661666,2,4,4,9,4,-6,-6,-1
1558441717675956,0,1,5,-1,2,2,1,-2
1558441717675956,1,13,11,4,-8,-5,-11,-2
1558441717691263,0,-5,-12,-1,4,-2,29,-1
1558441717691263,-13,-17,-8,-19,-12,-7,-5,-8
1558441717699232,-5,-6,2,9,-2,5,-5,-4
1558441717699232,3,-1,5,-1,14,12,6,7
1558441717699893,-1,6,4,11,-4,-2,-6,-3
1558441717699893,7,7,12,8,4,1,3,10
1558441717714015,3,4,4,-4,7,-1,4,2
1558441717714015,-8,-8,-8,-6,-12,-10,-9,-17
1558441717722200,-10,-9,-9,-6,-10,-10,-18,-10
1558441717722200,5,5,-8,0,8,16,6,3
1558441717735797,4,3,0,-4,-10,-11,-5,5
1558441717735797,0,3,3,6,7,-1,-2,4
1558441717744117,1,0,0,-5,-1,5,15,8
1558441717744117,-9,-10,-12,-12,0,4,-4,-18
1558441717758832,4,10,6,1,0,-2,-5,1
1558441717758832,3,-5,10,13,9,1,6,2
1558441717759732,0,-1,4,0,0,0,-5,-1
1558441717759732,-8,-5,-4,-1,-7,-6,-10,1
1558441717773895,-2,-11,-13,-12,-3,3,3,-5
1558441717773895,1,9,8,14,18,3,-10,-3
1558441717781965,5,-3,15,5,-11,-6,-1,2
1558441717781965,0,11,-24,-12,-5,-1,1,0
1558441717795897,-12,-14,-1,2,0,0,-10,-4
1558441717795897,-11,-18,-2,-4,-17,-14,-6,-4
1558441717804645,2,5,5,3,9,5,-2,-7
1558441717804645,7,10,10,7,-4,-9,-3,1
1558441717818581,3,7,10,8,1,-4,-5,1
1558441717818581,4,5,-12,-15,-8,4,15,5
1558441717819573,-3,-2,-7,-11,-6,-11,-4,-6
1558441717819573,-2,-6,14,16,20,12,16,2
1558441717833787,10,12,-9,-14,-1,6,2,4
1558441717833787,-8,-9,1,-6,-8,-6,-3,0
1558441717841775,-9,-8,-13,-6,-6,-4,-2,-1
1558441717841775,13,14,11,8,-2,-3,-4,1
1558441717855746,4,2,-3,-10,-4,-3,5,7
1558441717855746,-5,-21,-12,-7,1,1,-9,-2
1558441717863457,-8,-10,-2,-7,1,3,17,-4
1558441717863457,-2,1,6,13,11,13,8,-2
1558441717878677,5,7,4,2,4,-4,8,0
1558441717878677,3,11,-3,-9,-12,-8,-10,-5
1558441717886395,-4,-7,-5,-5,-5,0,-3,4
1558441717886395,-1,-1,7,12,6,3,-2,-2
1558441717893377,2,2,6,1,6,5,3,2
1558441717893377,7,14,-3,-5,-5,-10,-10,-7
1558441717901353,-3,4,1,0,-11,-8,-21,-8
1558441717901353,-4,-10,-15,-10,-5,-7,-3,-2
1558441717916467,-13,-16,0,3,1,2,-5,-2
1558441717916467,-18,-16,-3,4,-10,-9,1,-1
1558441717924492,2,-4,-9,-12,-3,-3,-13,2
1558441717924492,5,5,4,4,-6,3,10,-4
1558441717938576,0,2,-1,8,2,2,-5,-6
1558441717938576,14,11,-3,-17,-2,-2,-1,8
1558441717946565,3,9,4,1,12,9,-2,2
1558441717946565,-16,-15,-2,-2,-13,-10,-4,1
1558441717953223,0,-7,-7,-5,-5,-10,-13,-10
1558441717953223,-4,5,-2,-9,1,9,13,4
1558441717961527,3,-16,-5,10,3,-1,1,4
1558441717961527,-2,-5,-16,-26,-12,-4,0,1
1558441717976364,-20,-21,-2,8,-2,-6,-6,-5
1558441717976364,-7,-8,-10,-1,-5,-5,-1,-7
1558441717984131,4,8,-2,-4,-4,-2,-2,4
1558441717984131,14,14,13,20,17,9,0,3
1558441717998423,12,14,-5,-15,-8,4,9,7
1558441717998423,-5,-8,17,22,15,3,0,-3
1558441718007151,1,-1,-3,-7,2,6,-5,-1
1558441718007151,0,4,5,7,-8,-4,-13,1
1558441718013056,3,9,0,7,9,0,-12,-2
1558441718013056,-1,-4,10,-6,8,9,11,0
1558441718021070,-2,2,-10,-5,1,2,4,-2
1558441718021070,0,-2,-7,-3,-5,-5,10,7
1558441718035994,-9,-8,-3,0,4,3,-6,-5
1558441718035994,3,2,-7,10,0,0,2,2
1558441718043971,-4,-6,13,8,6,-4,-3,-3
1558441718043971,2,0,-10,-16,-6,2,-2,-1
1558441718066910,0,-1,12,17,1,2,4,0
1558441718066910,7,4,-1,7,10,2,6,3
1558441718067907,4,6,-9,-17,-3,5,1,5
1558441718067907,-5,-2,-2,-11,-11,-9,-6,-8
1558441718081871,-7,-1,2,-6,-13,-8,15,-3
1558441718081871,-5,-5,-8,-8,-8,-10,-14,-6
1558441718083877,3,6,4,-1,1,5,11,6
1558441718083877,2,-1,11,12,6,-3,4,2
1558441718096225,-1,-5,-20,-13,-2,-1,-21,-3
1558441718096225,2,1,1,-9,-7,5,10,6
1558441718104811,-7,-7,-8,13,1,-8,-3,-7
1558441718104811,1,-3,-4,-12,0,-7,-4,0
1558441718118143,3,4,11,-1,-5,0,-21,-7
1558441718118143,-12,-7,-16,0,-1,-8,-7,-5
1558441718127817,-1,2,4,1,-8,-4,-6,-6
1558441718127817,-2,-5,3,18,12,10,4,-2
1558441718149923,-6,-6,-7,-14,-3,-7,-7,-3
1558441718149923,12,10,-3,-13,-12,-5,-4,2
1558441718150689,-4,-4,1,9,-1,-1,2,-3
1558441718150689,-6,-2,-11,-27,-19,-18,-7,-2
1558441718155908,11,7,15,22,19,10,5,8
1558441718155908,-9,-6,-9,-17,-12,-7,-18,-2
1558441718171974,2,4,6,6,9,10,10,1
1558441718171974,7,9,13,-13,-2,1,7,-1
1558441718177618,-10,-14,-14,8,-10,-17,-26,-6
1558441718177618,-2,-1,-26,-8,3,5,-3,-4
1558441718186590,-2,-8,13,8,0,-9,-18,-5
1558441718186590,-12,-22,-24,-9,-6,7,18,0
1558441718201551,2,15,6,8,6,4,13,-1
1558441718201551,-3,-11,11,4,3,-3,-2,-2
1558441718208624,-2,1,-13,-23,-13,0,2,-1
1558441718208624,9,4,-4,7,8,-8,-12,3
1558441718215844,-7,-4,-4,2,1,-1,12,-4
1558441718215844,0,3,8,14,1,-3,6,-3
1558441718224562,4,7,3,-2,5,-1,-10,-2
1558441718224562,-8,-10,13,14,-10,-10,-3,0
1558441718247691,4,1,-10,-12,-8,1,2,7
1558441718247691,10,14,6,1,6,6,14,6
1558441718248427,-5,-18,1,6,8,7,2,4
1558441718248427,-3,6,6,6,-2,-2,-14,-13
1558441718260660,-2,-8,-19,-38,-19,-6,9,1
1558441718260660,-6,-17,15,6,6,4,3,-3
1558441718269369,5,20,-12,-1,-11,-10,-6,5
1558441718269369,-15,-4,-4,-6,1,-2,9,-4
1558441718275383,1,-6,12,19,8,10,10,3
1558441718275383,-4,-2,-23,-22,-11,-5,-13,-14
1558441718284330,-8,-15,-3,3,3,0,5,-3
1558441718284330,5,8,14,18,7,10,-3,-4
1558441718298291,-6,-3,11,0,-2,-7,4,-2
1558441718298291,13,8,11,4,6,-13,4,15
1558441718307267,-5,3,2,11,7,-4,7,-2
1558441718307267,2,7,3,-4,1,5,-3,-1
1558441718320233,-3,-2,5,15,5,2,-11,-6
1558441718320233,1,-1,0,1,-11,3,-11,-4
1558441718329209,0,-1,-3,0,4,5,0,2
1558441718329209,3,-3,-1,1,1,-2,6,6
1558441718335194,-1,-4,-8,-13,-5,-9,-2,-7
1558441718335194,0,8,0,1,4,8,5,0
1558441718344581,-8,-10,0,0,-5,-6,-2,-6
1558441718344581,1,4,1,1,6,8,-2,-1
1558441718358566,-5,-10,3,-10,-3,-4,1,-1
1558441718358566,-4,3,17,16,10,1,-5,-6
1558441718367108,-3,-3,-37,-36,-15,-5,2,-3
1558441718367108,1,-6,-5,-4,-2,2,0,2
1558441718381498,2,5,-3,1,2,0,2,-2
1558441718381498,0,-2,2,3,11,10,5,-3
1558441718389397,5,3,22,-5,-6,-3,3,4
1558441718389397,-4,-8,-17,3,-6,-17,-15,-5
1558441718396376,4,9,1,-1,-2,5,4,1
1558441718396376,-1,-4,-11,-9,-1,6,6,2
1558441718405006,4,3,-5,-9,-3,-5,-13,-4
1558441718405006,-9,-2,3,4,-4,-3,0,-4
1558441718418330,7,5,8,7,7,3,3,5
1558441718418330,0,-2,-2,-5,-13,-15,-10,0
1558441718426947,-2,-3,3,10,12,15,2,1
1558441718426947,6,0,3,-1,-2,-1,5,5
1558441718441255,-4,-2,-18,-13,2,4,8,0
1558441718441255,-2,5,21,13,-2,-7,-17,1
1558441718450185,-1,-12,-22,-11,-10,-5,-13,-3
1558441718450185,5,6,9,7,1,-7,-2,2
1558441718456147,-5,-9,-14,-3,-5,-6,0,-6
1558441718456147,2,-4,-4,-6,0,4,11,4
1558441718464847,4,5,14,11,6,1,11,4
1558441718464847,1,5,8,-3,14,15,1,-6
1558441718479005,-8,-7,-17,7,6,-1,10,0
1558441718479005,-5,-4,-13,-26,-23,-8,-9,-7
1558441718486787,-3,-5,14,12,0,-1,-2,-3
1558441718486787,4,1,-12,-21,-9,-5,-7,4
1558441718501092,5,5,4,7,-3,-5,-2,6
1558441718501092,-7,-10,-16,-2,-3,-1,-9,-8
1558441718509728,-1,0,-2,6,0,-2,1,-1
1558441718509728,7,10,2,-11,-7,-2,-8,2
1558441718516050,-2,9,19,-1,1,0,-5,-7
1558441718516050,-8,-8,-8,0,8,-1,0,-2
1558441718524687,-7,-16,-30,-17,-16,-4,7,-6
1558441718524687,-7,-6,16,3,-5,-5,-1,-3
1558441718538801,5,1,7,10,4,2,-9,1
1558441718538801,13,13,9,8,9,5,1,8
1558441718546975,-2,3,-1,-8,-4,-8,-2,-2
1558441718546975,-5,-4,-2,5,-4,-5,-4,-3
1558441718560708,-3,0,-6,-6,1,13,-4,-4
1558441718560708,-3,-9,8,9,1,2,13,5
1558441718569565,-2,6,3,2,-2,-7,-22,-9
1558441718569565,-8,-17,-14,-9,-8,-11,-5,0
1558441718575860,2,6,5,0,5,11,5,0
1558441718575860,-5,-4,-1,6,-1,0,2,-5
1558441718584576,2,6,-10,-9,-2,1,-3,1
1558441718584576,1,-1,6,11,6,3,7,3
1558441718598847,-2,-6,-3,-14,-2,-3,16,3
1558441718598847,9,13,1,-5,-5,-4,-9,0
1558441718607468,-4,4,-10,-11,-4,4,-1,-4
1558441718607468,-11,-22,-10,-4,-5,-1,-13,-12
1558441718621427,-4,-5,13,16,5,-3,-4,-4
1558441718621427,-6,-8,13,10,-1,-8,12,-2
1558441718629695,2,1,5,-3,-3,-5,-3,0
1558441718629695,9,16,23,13,14,17,11,5
1558441718635391,-3,-1,-37,-37,-20,-6,-1,-6
1558441718635391,-5,-7,4,-4,-9,-2,-11,-2
1558441718644696,-4,-7,-6,3,7,2,-10,-2
1558441718644696,-2,1,-1,2,-2,-14,5,-6
1558441718658384,3,6,24,1,0,2,-3,-1
1558441718658384,-1,8,-6,-6,3,4,3,-3
1558441718667308,4,-6,0,-7,-2,2,11,8
1558441718667308,4,0,-8,4,-4,-15,-7,4
1558441718681390,-2,4,7,8,1,-3,-1,0
1558441718681390,-1,-9,-10,-13,-7,2,0,-4
1558441718689245,-8,-8,5,4,-6,-9,0,0
1558441718689245,3,5,-15,-5,5,9,5,-1
1558441718696367,5,7,6,-6,-4,-3,-12,-3
1558441718696367,-6,-12,-10,-2,-1,1,1,-1
1558441718704205,8,11,15,9,12,4,5,3
1558441718704205,1,-1,1,-10,-7,6,13,4
1558441718718263,-6,-8,-25,1,-3,-4,2,0
1558441718718263,5,11,18,11,13,13,0,-1
1558441718727145,-3,-4,-10,6,-6,-2,-11,-9
1558441718727145,-2,-6,-24,-52,-18,-16,-25,-5
1558441718741237,9,7,9,8,10,16,14,10
1558441718741237,-8,-17,2,13,12,-5,3,-4
1558441718749407,4,8,0,3,3,3,20,8
1558441718749407,-1,10,1,7,5,13,6,-1
1558441718756380,-7,-18,-10,-6,-10,-8,-6,0
1558441718756380,1,3,-4,1,-1,1,-9,-1
1558441718765043,-1,4,11,-2,2,3,14,0
1558441718765043,-2,2,-11,-14,0,0,-3,2
1558441718787273,-4,-8,3,21,3,-1,-9,-8
1558441718787273,2,4,-5,-23,-9,-3,-8,1
1558441718787984,-3,-8,-5,4,1,4,2,-4
1558441718787984,3,8,17,8,0,1,6,1
1558441718800949,-5,-8,-3,-6,-8,-13,-17,-4
1558441718800949,1,-3,-7,0,-2,-2,-2,0
1558441718809923,-4,-2,-7,-11,-7,-7,-11,-2
1558441718809923,-3,-11,1,1,-1,-5,-9,-2
1558441718815907,-1,-1,-4,-5,-7,-4,-5,1
1558441718815907,1,7,0,4,-1,-4,18,7
1558441718824882,4,5,11,5,5,2,-7,-3
1558441718824882,-3,0,4,15,7,-1,3,-6
1558441718837850,3,3,4,-6,0,0,-5,-1
1558441718837850,-3,-4,-13,-7,-2,1,-11,0
1558441718846824,5,6,14,15,14,9,6,4
1558441718846824,2,-2,-6,-8,-4,-3,1,0
1558441718860787,-1,2,-6,-2,-4,-6,-3,3
1558441718860787,-1,9,-2,-7,-5,1,-8,-2
1558441718869762,-2,-8,7,0,-3,-7,0,0
1558441718869762,-5,-8,-18,2,-2,2,-3,-4
1558441718875747,7,12,18,17,9,5,13,5
1558441718875747,-2,5,-11,-14,-14,-11,-13,-10
1558441718890705,-4,-8,-13,-13,-4,-1,-2,0
1558441718890705,-6,-4,14,13,2,-6,-2,-2
1558441718897688,-3,-8,1,3,5,2,18,4
1558441718897688,-1,-1,-3,3,-5,-8,-3,-8
1558441718906664,3,5,7,-1,1,3,1,-3
1558441718906664,0,-6,2,8,11,16,1,3
1558441718920626,-2,-2,1,-4,-5,-3,-12,-4
1558441718920626,-6,-10,-13,-9,-7,-6,-3,-4
1558441718929604,6,8,10,14,10,-7,14,9
1558441718929604,-2,-6,-21,-24,-8,-6,2,-2
1558441718935586,-2,3,22,15,5,2,-7,-4
1558441718935586,-3,-13,-25,-7,-3,4,-1,2
1558441718944561,0,-3,-5,-18,-8,1,2,-1
1558441718944561,2,3,2,3,9,4,-7,0
1558441718958526,-2,-2,-12,-10,-14,-8,-3,-6
1558441718958526,1,-1,16,11,10,4,14,5
1558441718966504,-4,-7,-17,-6,-10,-16,-11,-3
1558441718966504,4,9,12,5,0,2,5,4
1558441718980466,-4,-10,-7,-5,-14,-16,-3,-3
1558441718980466,1,4,11,8,5,-2,-7,-2
1558441718989442,-5,0,1,6,10,15,3,-8
1558441718989442,-1,-6,-10,-8,-8,-2,3,-1
1558441719004401,3,0,-3,4,0,6,-7,7
1558441719004401,2,-5,0,-3,-1,1,0,1
1558441719005400,-4,-3,6,11,1,-11,-4,-2
1558441719005400,-1,-3,-5,1,-4,-5,-12,-5
1558441719018365,-3,-2,-10,-13,-3,0,8,0
1558441719018365,-2,6,14,-1,1,-1,-6,-3
1558441719027340,-2,-3,-6,6,-8,3,-8,-5
1558441719027340,-1,0,-2,-7,0,1,7,-2
1558441719040305,2,4,15,6,7,-2,-1,-1
1558441719040305,2,0,-8,-4,-5,-5,-5,0
1558441719049282,-4,-6,-15,-16,-10,-3,-9,-2
1558441719049282,-2,0,-4,-2,-5,-7,-8,-4
1558441719064241,1,-1,-4,-2,10,1,-9,-1
1558441719064241,-2,-1,9,13,2,0,6,-2
1558441719066248,0,-2,7,-2,4,1,-3,0
1558441719066248,-5,-6,1,5,3,-7,12,2
1558441719078207,-3,4,-3,-4,-1,5,1,-2
1558441719078207,-8,-9,-9,-5,-8,0,-2,-14
1558441719087182,1,2,7,1,-5,0,-8,1
1558441719087182,2,5,6,5,13,10,9,1
1558441719109123,-1,-2,-10,3,-1,-1,8,0
1558441719109123,1,0,5,0,3,0,-3,5
1558441719111119,1,-1,-11,-12,-5,-2,8,-1
1558441719111119,-4,-5,9,2,-12,-6,-23,-4
1558441719124082,-6,-6,-13,-7,-2,-2,4,-3
1558441719124082,5,6,4,0,-2,-2,4,4
1558441719126076,0,7,6,0,4,9,6,4
1558441719126076,-1,4,-4,7,-2,1,3,2
1558441719138045,-2,-10,-2,-17,-4,-4,-6,-1
1558441719138045,-2,-6,-1,1,3,4,15,6
1558441719147021,5,13,2,5,9,11,9,3
1558441719147021,-5,-12,-2,-7,-9,-8,-16,-5
1558441719160983,-1,1,-7,-5,0,4,-3,-2
1558441719160983,0,-1,-4,-16,-6,-5,-11,0
1558441719169961,1,-1,0,5,6,0,0,2
1558441719169961,-2,-3,-4,12,6,4,6,-2
1558441719183921,2,-1,9,7,-2,5,-6,-3
1558441719183921,0,2,11,3,-1,-3,1,1
1558441719185916,-2,-10,-25,-12,-7,-4,2,-3
1558441719185916,-9,-10,-15,-16,-12,-6,-12,-6
1558441719197885,0,1,4,17,13,-3,1,3
1558441719197885,-7,-10,-4,-1,-12,1,3,-2
1558441719206860,-4,-2,4,9,2,-7,-4,-2
1558441719206860,-1,4,-9,-2,1,4,5,-2
1558441719220823,-1,-4,-1,-3,-6,-5,-6,-4
1558441719220823,3,2,-7,8,4,1,-12,-1
1558441719229800,-1,2,9,-13,-12,-9,-8,-2
1558441719229800,2,8,17,5,11,11,3,2
1558441719244758,-2,-2,-16,-16,-6,6,9,0
1558441719244758,0,0,7,9,11,-2,1,2
1558441719245756,-4,-11,-3,-4,-5,-1,2,-2
1558441719245756,5,6,-3,-9,-2,-4,9,4
1558441719257724,2,1,0,4,0,-10,2,3
1558441719257724,-2,-4,3,0,3,4,-7,-1
1558441719266700,3,1,-3,1,-8,-7,-5,3
1558441719266700,4,1,4,-3,3,1,12,5
1558441719280663,-3,2,-1,-9,-10,-4,-2,-7
1558441719280663,-4,-5,-15,2,-3,-6,-13,-4
1558441719289639,-6,-5,1,3,1,4,-1,-4
1558441719289639,0,-1,2,2,-2,-10,-2,1
1558441719304599,1,-2,-5,-5,-2,-3,-5,3
1558441719304599,4,9,8,8,4,10,8,0
1558441719305598,-4,-3,-9,-22,-2,-8,-5,-6
1558441719305598,-2,-4,-7,-4,-7,-4,3,-4
1558441719318563,-1,-5,6,8,6,-1,5,-1
1558441719318563,-8,-9,-5,-4,-13,-2,-4,-3
1558441719326541,-5,-4,-5,3,0,6,9,-1
1558441719326541,0,3,5,3,0,-1,-4,-5
1558441719340503,1,2,0,-9,-5,-9,-8,-6
1558441719340503,1,3,-3,-5,5,-1,5,-2
1558441719349479,0,-2,-4,2,-3,2,4,1
1558441719349479,-6,-8,-2,2,-4,0,-19,-12
1558441719365437,-4,-5,-5,-4,-2,1,-5,0
1558441719365437,-1,2,4,0,-5,-5,5,0
1558441719366434,1,2,-3,-4,1,-4,-5,-2
1558441719366434,1,4,0,2,-3,-3,-6,4
1558441719378409,-3,-3,-3,-2,-3,3,4,-1
1558441719378409,-1,-1,-5,-14,1,4,-5,-4
1558441719387387,0,1,13,9,9,3,3,-2
1558441719387387,-1,-6,-6,-9,-6,-1,1,2
1558441719400347,0,-5,-6,6,-3,-10,1,-4
1558441719400347,3,6,-1,-3,7,7,17,2
1558441719409321,-6,-13,-12,-10,-15,-13,-13,-6
1558441719409321,-1,2,-4,0,-1,-9,2,0
1558441719425333,1,2,7,4,-4,3,8,5
1558441719425333,-3,-3,-1,1,3,-3,-8,0
1558441719430267,7,10,19,20,7,7,11,6
1558441719430267,1,0,-5,-14,-5,2,2,-5
1558441719438352,-2,-4,1,-7,-1,-4,-7,-1
1558441719438352,-1,1,0,6,-10,-13,-1,-1
1558441719447231,-5,0,-1,0,-3,-4,-2,-6
1558441719447231,0,4,3,4,5,4,-3,0
1558441719461183,-2,-4,-4,1,5,5,2,1
1558441719461183,-2,-3,-4,-4,-4,-3,-13,-4
1558441719469161,1,3,2,-12,-3,-1,-12,-4
1558441719469161,-3,-4,-6,4,2,-1,-1,-2
1558441719484174,-1,3,5,-4,-5,-9,-32,-9
1558441719484174,0,2,-10,-2,3,-4,-4,4
1558441719486116,1,-1,7,-3,-9,-3,-8,0
1558441719486116,-1,-1,0,12,7,5,8,2
1558441719498088,1,4,1,-5,-3,-5,-9,-2
1558441719498088,-4,-7,-6,-3,-3,0,-5,-2
1558441719507057,2,2,1,1,3,-2,-10,4
1558441719507057,-1,-4,-2,-2,-1,2,-5,-1
1558441719521020,0,-1,3,7,4,3,5,5
1558441719521020,3,5,-2,-15,-6,-1,7,1
1558441719528999,-4,-6,-5,4,0,-2,-4,-2
1558441719528999,-1,-1,0,-8,-7,-2,4,1
1558441719545158,-3,2,1,5,6,2,2,-1
1558441719545158,-1,0,0,0,-1,-2,-4,-1
1558441719546316,0,0,3,5,-1,-4,-1,-1
1558441719546316,-2,-2,-14,-20,-9,0,2,2
1558441719558482,0,2,-4,-5,3,6,5,-1
1558441719558482,2,-2,5,-1,-3,-2,3,5
1558441719567076,-5,-2,7,18,10,10,5,-4
1558441719567076,-1,-3,-13,-20,-11,-8,-8,-3
1558441719581372,1,-3,4,4,0,1,-2,3
1558441719581372,-2,1,-2,2,1,-11,-5,-2
1558441719590013,-3,-8,-11,-11,-6,2,13,-3
1558441719590013,-1,1,12,13,7,-5,4,4
1558441719604972,-2,0,-2,2,-3,3,3,-1
1558441719604972,0,0,-3,-2,-6,0,-7,-5
1558441719605970,7,7,8,6,12,8,1,5
1558441719605970,-2,-2,8,7,3,-4,5,1
1558441719618144,-2,-6,-14,-23,-15,-8,-1,-6
1558441719618144,-6,-8,-10,3,3,9,3,0
1558441719626921,-1,-1,-6,-10,6,7,10,2
1558441719626921,7,5,13,12,2,-4,-10,5
1558441719640878,3,3,8,12,15,10,0,0
1558441719640878,0,1,-7,2,1,2,3,-1
1558441719649855,-5,-9,-8,-20,-14,-15,-9,-7
1558441719649855,1,5,6,4,6,11,-7,-5
1558441719662818,-4,-2,-6,-3,-6,-12,-9,-6
1558441719662818,-6,-8,4,-1,-5,-6,0,-5
1558441719671887,0,2,0,6,5,4,-11,2
1558441719671887,3,-1,-3,-4,-2,-4,-16,6
1558441719677799,2,3,3,3,5,1,-4,1
1558441719677799,1,2,2,-5,0,3,5,1
1558441719686998,-2,-2,4,1,0,2,3,-4
1558441719686998,-4,-6,-10,-2,-5,-1,-9,-7
1558441719701174,2,0,5,2,0,0,11,4
1558441719701174,-3,-1,-14,-13,-1,0,0,-1
1558441719709938,3,3,14,6,-1,-3,-13,-2
1558441719709938,-4,-5,-13,-8,-7,-8,-6,-2
1558441719724110,2,-1,-2,2,1,8,11,2
1558441719724110,2,1,10,-1,3,-2,7,2
1558441719730887,-2,2,-3,4,0,1,3,-3
1558441719730887,-7,-5,-9,-13,-7,-3,-1,-7
1558441719737899,-1,-3,-3,6,-4,-7,-5,1
1558441719737899,1,0,3,-16,-8,2,-6,-1
1558441719754818,-2,-2,-6,1,-3,-2,-2,0
1558441719754818,1,3,5,5,7,-3,4,-1
1558441719760803,-4,-2,-4,-7,-6,-5,5,0
1558441719760803,-1,1,10,8,1,2,-4,-5
1558441719769777,0,-2,-13,-7,2,2,5,2
1558441719769777,0,-3,5,6,5,6,-3,1
1558441719783737,-6,-5,-1,3,-6,-7,-6,-7
1558441719783737,-3,-5,-8,-12,-11,-15,-12,-5
1558441719807718,-2,0,-3,1,-8,-8,0,-3
1558441719807718,-1,2,4,10,4,3,1,-3
1558441719808705,2,2,4,-9,3,8,-2,3
1558441719808705,-1,-4,-6,8,2,-1,-1,-1
1558441719809668,-1,-1,3,3,5,9,13,4
1558441719809668,-4,-2,-6,-2,-7,3,-2,-2
1558441719820826,-2,-1,-1,-6,-10,-10,12,-2
1558441719820826,-1,1,8,4,0,3,-4,-1
1558441719830022,5,1,-6,5,14,-1,5,6
1558441719830022,0,-2,-1,-18,-10,-5,6,1
1558441719851983,-2,-2,-13,-9,-4,-1,-9,1
1558441719851983,-6,-4,2,10,-6,-5,-6,-8
1558441719852978,-1,0,-4,-12,1,7,13,2
1558441719852978,-2,-1,2,3,3,-1,10,1
1558441719867261,-2,-1,3,-2,1,4,-7,-4
1558441719867261,-4,2,2,-1,-2,-6,-4,-1
1558441719868193,-9,-7,-4,-4,-13,-11,-16,-11
1558441719868193,0,-3,1,4,7,12,10,0
1558441719881233,0,-1,-4,3,-1,0,3,-1
1558441719881233,1,-2,-8,-12,1,4,1,1
1558441719889269,-4,-3,1,-5,-8,-9,-9,-5
1558441719889269,3,3,4,4,2,-12,4,2
1558441719903230,-2,-3,-5,-11,-8,-4,-11,3
1558441719903230,5,5,11,12,12,14,13,5
1558441719911248,0,-1,-7,-7,-3,1,14,2
1558441719911248,-5,-5,-5,6,-5,-1,-10,-8
1558441719928203,4,4,-2,-11,-7,-1,1,0
1558441719928203,-4,-1,8,29,12,-10,10,-2
1558441719929165,-2,-5,-2,-7,-9,0,-10,-2
1558441719929165,1,0,1,2,1,2,0,0
1558441719941131,-2,-2,-3,0,3,6,-10,-1
1558441719941131,3,3,5,0,6,1,18,10
1558441719949108,4,2,2,4,1,-4,-9,0
1558441719949108,-2,1,0,2,-3,-1,4,2
1558441719964103,-6,-6,-6,-2,1,0,-9,-9
1558441719964103,-3,-5,-10,-14,-5,0,0,-1
1558441719971049,2,3,-1,1,3,-8,-1,3
1558441719971049,-1,-5,-9,-2,-5,-5,1,-2
1558441719987007,-2,4,19,13,12,7,8,0
1558441719987007,-4,-9,-16,-14,-8,-4,-10,-3
1558441719989003,-4,-3,-5,-5,-11,-5,-10,-7
1558441719989003,4,4,-3,1,1,8,-6,8
1558441720001349,0,-2,-5,6,2,0,-4,-2
1558441720001349,0,1,3,3,1,-10,-6,-4
1558441720009945,1,0,-1,-11,-2,1,6,0
1558441720009945,-3,-4,0,-3,-7,0,2,-5
1558441720024214,-2,0,2,3,-4,-24,-8,-5
1558441720024214,-1,-4,-7,-12,-1,10,-4,-2
1558441720031204,2,0,-4,-1,-5,-4,-10,-2
1558441720031204,-2,0,4,-1,3,3,3,1
1558441720047148,1,1,3,6,6,6,4,0
1558441720047148,2,4,2,-5,-3,1,6,1
1558441720048845,-6,-5,-5,-8,-8,-6,-16,-5
1558441720048845,-3,-1,-2,-3,-3,0,-5,-7
1558441720060809,0,-2,10,6,-2,-7,-2,-2
1558441720060809,1,1,-8,-12,-2,2,-8,-1
1558441720069787,2,-1,2,11,-3,-7,-7,4
1558441720069787,1,1,10,2,3,3,-1,3
1558441720084745,1,-1,-14,-13,-4,-1,28,14
1558441720084745,2,2,7,6,7,5,8,2
1558441720091726,-4,-2,-1,1,-4,-13,-14,-4
1558441720091726,-1,-1,-7,-8,1,4,12,-1
1558441720106686,0,-2,7,4,1,1,-4,-4
1558441720106686,0,1,-2,0,-6,-3,5,2
1558441720108681,-2,-5,-2,-1,-4,-7,-6,-2
1558441720108681,-2,-5,-5,-2,-1,-8,-7,-4
1558441720120650,-3,1,0,6,1,5,-2,-1
1558441720120650,-3,-4,0,12,4,8,-9,-7
1558441720129625,0,5,3,5,5,4,7,-1
1558441720129625,-2,-2,0,-4,-4,-5,1,-1
1558441720143588,-2,-2,-3,2,4,7,6,-1
1558441720143588,0,1,9,5,-1,-9,-7,-3
1558441720150958,-2,-3,-12,-15,1,5,7,1
1558441720150958,1,-2,3,6,-1,-7,-13,-2
1558441720166848,3,-1,-1,1,-4,-4,2,2
1558441720166848,0,-2,-5,-15,-7,0,-15,2
1558441720168523,5,5,9,7,16,13,18,5
1558441720168523,0,1,-4,0,-3,-4,0,-4
1558441720180490,-5,-3,-7,-10,-8,-7,-15,-7
1558441720180490,-1,2,-1,-2,-7,-12,-2,-3
1558441720189466,-1,-1,9,6,8,12,10,-1
1558441720189466,-3,0,-12,-8,0,1,-5,-3
1558441720203428,-3,-5,1,0,1,2,-11,-2
1558441720203428,-1,-4,-6,3,-3,1,5,-2
1558441720218389,-3,2,1,-6,-6,-3,7,-3
1558441720218389,-2,-3,-3,-15,-13,-17,-6,-5
1558441720227364,-3,1,2,9,5,6,6,-1
1558441720227364,-1,-1,2,-3,-3,6,7,-1
1558441720228361,-2,-5,-5,-1,-7,-16,-16,-1
1558441720228361,0,2,5,5,13,18,1,1
1558441720240329,-2,-3,-4,-4,-5,-5,-2,-2
1558441720240329,2,-1,-2,-6,-3,0,-10,-3
1558441720257287,3,2,5,6,2,6,14,6
1558441720257287,-2,-1,1,-2,0,5,7,2
1558441720264266,-3,-1,-3,-3,-2,-4,-6,-5
1558441720264266,-3,-2,2,13,4,-6,-2,-1
1558441720270249,2,-2,-12,-14,1,10,12,2
1558441720270249,2,3,3,0,2,-5,0,3
1558441720287211,2,1,0,-4,-2,3,-4,1
1558441720287211,-5,-7,-6,-3,-8,-9,1,-3
1558441720288221,-5,-3,1,0,-8,-11,-11,-1
1558441720288221,-1,0,4,3,3,2,6,-4
1558441720300169,1,-1,-1,-4,-2,2,-6,-2
1558441720300169,0,-1,-5,-4,-9,-3,2,1
1558441720309164,-4,-2,1,7,8,9,-5,-4
1558441720309164,-1,-2,-7,-13,-6,-14,-3,1
1558441720324105,-2,1,-1,-1,1,-5,3,1
1558441720324105,0,-2,-1,6,3,0,1,3
1558441720330094,-1,5,16,8,9,10,6,3
1558441720330094,-1,-4,-12,-3,-12,-5,-13,-2
1558441720354027,2,4,-2,2,5,-7,7,3
1558441720354027,-3,-2,-2,-4,2,3,-1,-1
1558441720356021,-1,-2,-4,1,1,4,-5,-3
1558441720356021,-2,-2,7,7,-4,-4,-13,0
1558441720360016,2,0,-2,-6,10,7,12,3
1558441720360016,1,3,5,3,-1,-3,1,0
1558441720368986,-1,2,7,0,-4,-11,-7,-6
1558441720368986,-3,-9,-18,-17,-13,2,6,-1
1558441720383949,-2,-1,3,5,6,5,0,-3
1558441720383949,0,2,-8,-5,0,3,3,1
1558441720390927,-2,-3,1,-3,-4,-5,3,-2
1558441720390927,2,5,8,9,-5,-6,8,1
1558441720406889,-1,-5,-10,-8,-1,-3,-1,-2
1558441720406889,-3,0,8,0,4,13,11,-1
1558441720407882,-2,-3,-7,1,-3,-5,1,-2
1558441720407882,-1,0,-2,-2,0,-6,-7,-2
1558441720420847,1,0,-3,-4,-10,-5,1,2
1558441720420847,-3,-1,-1,1,17,24,9,1
1558441720429823,-1,-3,3,-2,-9,-12,-11,-2
1558441720429823,-3,-1,-15,-5,9,2,4,-2
1558441720443786,-3,-5,6,5,-12,-12,-3,-2
1558441720443786,0,2,6,0,-1,-3,-7,2
1558441720450772,1,-4,-18,-4,-2,0,16,6
1558441720450772,4,8,19,17,15,12,6,0
1558441720466725,-1,-3,-7,-5,-5,-4,-18,-6
1558441720466725,0,-2,-1,-6,-14,-10,-8,-6
1558441720468724,2,1,-3,-1,7,9,19,6
1558441720468724,-3,-2,-4,0,-7,-10,-4,1
1558441720480692,-1,3,3,-6,8,13,6,2
1558441720480692,-3,-5,-3,1,1,-2,-9,1
1558441720489667,4,3,1,6,11,12,-7,0
1558441720489667,2,2,0,1,4,5,3,0
1558441720503625,0,1,6,2,-3,9,2,-2
1558441720503625,0,-3,-6,-4,-5,-16,-13,1
1558441720511607,-4,-2,3,-6,-3,-3,-9,-4
1558441720511607,-2,0,3,-7,-1,6,2,-2
1558441720526639,2,2,-5,2,-10,-9,0,3
1558441720526639,-5,-6,-6,-6,-7,-8,-3,-4
1558441720528562,0,-2,-2,-4,-8,-7,-14,-7
1558441720528562,2,1,12,9,5,6,2,1
1558441720540530,2,3,-3,-7,1,-8,1,3
1558441720540530,1,-1,3,6,3,1,1,0
1558441720549506,-1,0,-5,1,-4,-6,0,0
1558441720549506,-3,-4,-6,-2,-3,1,-9,-5
1558441720563465,-4,-4,-1,-4,-9,-4,-11,-6
1558441720563465,2,2,-1,5,5,4,1,2
1558441720571502,-1,-1,-1,-10,-2,0,-5,-3
1558441720571502,-1,-1,-3,-7,-2,-6,-4,-2
1558441720586406,-3,-1,-3,3,0,1,5,-3
1558441720586406,-2,-1,1,-1,-7,-1,-1,-4
1558441720588398,-2,-4,-1,-4,-2,-1,-8,-1
1558441720588398,-1,-3,-1,-3,-10,-12,-13,-3
1558441720600367,0,-1,0,-1,4,-2,-3,0
1558441720600367,1,3,4,4,6,4,18,2
1558441720609342,-2,-3,-7,5,1,-2,-5,-1
1558441720609342,-2,1,0,-7,-3,2,-5,-3
1558441720623305,0,-3,-3,-3,-5,-8,-2,2
1558441720623305,-3,-3,-5,-13,-2,2,-5,-2
1558441720632282,-4,-4,-6,4,-7,-5,-23,-5
1558441720632282,0,-4,-2,-1,-6,-6,18,6
1558441720646244,0,0,-3,2,4,4,6,-1
1558441720646244,0,-2,-9,-8,-2,0,5,1
1558441720653226,-5,-3,-3,4,-2,-7,-3,-6
1558441720653226,-2,-3,-3,-18,-15,-7,-9,-4
1558441720660211,-2,-3,-2,6,8,14,-1,-1
1558441720660211,0,0,8,-2,-3,-10,-3,0
1558441720670185,-2,-1,-9,-6,1,3,-5,-4
1558441720670185,-1,-2,2,9,5,3,1,1
1558441720683145,0,0,1,-7,-7,-10,-10,-6
1558441720683145,0,-2,-6,-1,-4,-5,-15,-6
1558441720692121,-1,0,6,-11,-4,4,11,-1
1558441720692121,-1,-1,-7,1,8,8,15,2
1558441720706083,-5,-5,-3,-1,-4,-10,-6,-1
1558441720706083,-1,-3,-4,6,1,-10,-3,1
1558441720713065,3,2,2,-1,-2,5,-3,1
1558441720713065,-1,-1,5,8,2,-7,-9,0
1558441720729022,0,2,-1,-4,-1,1,2,0
1558441720729022,-2,0,-2,0,1,6,5,1
1558441720731018,-3,-4,-3,0,-6,-11,-8,-1
1558441720731018,-4,-3,-4,-11,1,11,3,0
1558441720742986,-2,-3,-4,-1,-4,0,-4,-2
1558441720742986,-3,-1,2,-2,-5,1,-2,-2
1558441720751966,-1,0,2,4,-3,-1,6,2
1558441720751966,1,-1,-6,1,4,-4,-11,-3
1558441720765923,0,1,3,-3,-1,0,15,0
1558441720765923,1,-1,0,-1,1,2,3,-3
1558441720772905,0,-1,3,-1,4,3,-1,1
1558441720772905,1,1,0,2,-4,-5,-2,-1
1558441720780885,-2,0,5,14,2,4,-1,-3
1558441720780885,-4,-3,-5,-8,1,2,-10,-7
1558441720789873,-1,2,-2,-3,-2,1,7,3
1558441720789873,-3,-3,1,8,0,-7,-11,-4
1558441720802830,0,-2,-4,-1,2,1,-4,0
1558441720802830,-1,1,7,2,-6,2,9,-3
1558441720811801,-1,-3,-6,-6,0,-10,-12,-4
1558441720811801,-1,0,-1,-6,-8,2,-4,-4
1558441720825763,-1,-5,-3,5,-1,-5,-7,1
1558441720825763,1,1,-3,-8,6,0,10,3
1558441720832744,-1,0,0,-2,-4,-3,-2,-4
1558441720832744,-1,0,3,6,1,0,-2,-1
1558441720849700,-3,0,-1,-3,-5,1,-2,-3
1558441720849700,-2,0,-7,-4,-2,-2,-8,-2
1558441720850697,1,-4,5,4,-2,0,7,1
1558441720850697,-1,-5,0,-1,6,2,5,-1
1558441720863662,2,1,-1,-2,2,2,-1,2
1558441720863662,-4,0,-1,0,-2,2,-1,-3
1558441720871639,-2,2,2,2,-2,-1,5,0
1558441720871639,1,5,4,3,3,1,1,-1
1558441720886601,-3,-6,-6,-7,-5,-6,-7,-1
1558441720886601,-1,0,3,5,2,2,5,-1
1558441720892586,-2,-1,-7,-5,-5,4,-1,0
1558441720892586,3,-1,0,-1,5,-1,-2,4
1558441720909545,0,3,1,-5,0,4,-1,-1
1558441720909545,-1,-1,2,4,-3,-8,-8,-1
1558441720910539,0,3,3,0,-3,4,-4,-3
1558441720910539,-5,-8,-11,-6,-8,-8,8,-3
1558441720922504,-2,-2,-2,1,-1,0,7,-2
1558441720922504,0,-1,-3,-17,-8,-14,-13,-2
1558441720931482,0,1,0,4,15,10,10,1
1558441720931482,2,2,-3,-4,3,1,5,3
1558441720946439,2,0,2,0,-3,-2,-8,0
1558441720946439,-3,-4,-3,2,-6,2,1,-3
1558441720953432,2,1,7,5,-6,-9,-17,4
1558441720953432,-3,-1,-5,-4,-2,-4,-5,-2
1558441720969380,-1,1,-5,1,1,5,2,-1
1558441720969380,2,0,-4,-8,4,0,11,4
1558441720970378,-7,-11,-13,-13,-12,-7,4,-7
1558441720970378,-1,-2,3,5,-1,6,-4,-2
1558441720983342,0,3,8,3,0,2,4,1
1558441720983342,-1,-3,-3,3,1,-2,-10,2
1558441720992318,-1,-2,-4,3,-1,-5,9,1
1558441720992318,1,2,-1,-5,-3,-10,-3,0
1558441721006281,-2,-2,-1,0,-4,0,0,-3
1558441721006281,-2,0,5,1,0,2,-4,0
1558441721013263,-1,1,-6,-4,6,6,-4,0
1558441721013263,-1,-2,2,0,-6,-1,-5,-1
1558441721029219,2,0,-3,-4,2,-5,-1,1
1558441721029219,-4,-4,-3,-3,-2,7,4,-2
1558441721031216,1,2,6,0,0,-5,-4,-3
1558441721031216,-1,0,2,3,-4,-8,-7,-2
1558441721043182,-2,-4,-10,-1,7,-1,5,-1
1558441721043182,0,0,-1,3,-3,0,1,-1
1558441721052160,0,1,-1,2,-1,4,-12,-1
1558441721052160,2,3,1,2,12,13,25,3
1558441721066122,0,-1,2,-3,-8,-8,-2,0
1558441721066122,-5,-2,-4,1,-3,-3,-2,-1
1558441721073101,-3,0,0,-3,-3,-5,-7,-2
1558441721073101,-5,-2,0,-1,-5,1,-4,-5
1558441721089059,-1,0,-2,1,7,3,1,2
1558441721089059,0,-3,-4,5,-1,3,12,0
1558441721091055,1,2,7,-2,1,-2,-3,1
1558441721091055,-3,-4,-10,-15,-12,-15,-16,0
1558441721103024,0,-2,3,-4,-2,-1,6,6
1558441721103024,-1,0,-3,5,0,1,4,-1
1558441721111998,1,0,8,7,6,4,5,0
1558441721111998,-1,-1,-7,-4,4,7,2,-2
1558441721125969,-4,-3,-8,-5,-11,-9,-13,-4
1558441721125969,0,0,-3,-3,-3,-8,-12,-7
1558441721132942,0,-1,1,3,3,-3,6,1
1558441721132942,2,0,0,-2,-2,2,-4,0
1558441721148906,-2,-2,4,7,3,-5,-1,-4
1558441721148906,1,0,-4,-17,-5,5,-3,-1
1558441721150894,-5,-7,-7,-6,-7,-9,3,-2
1558441721150894,-2,1,0,-3,-10,-5,-12,-4
1558441721162861,-2,-5,-8,-7,2,-1,-4,-1
1558441721162861,1,2,5,6,-3,-7,-1,-1
1558441721171838,-2,-4,-3,-3,1,1,-6,-2
1558441721171838,1,1,-3,1,4,2,8,2
1558441721185807,-2,0,2,-2,-3,-2,2,-3
1558441721185807,-5,-3,-1,1,-3,-6,-4,-2
1558441721192782,1,-2,-4,-5,-3,-3,-1,-3
1558441721192782,4,2,11,16,15,17,9,2
1558441721209738,1,1,-3,0,3,-5,8,3
1558441721209738,-1,-2,0,7,5,-1,-5,-1
1558441721210743,-5,-2,6,4,1,5,-6,-6
1558441721210743,-1,-1,-6,-2,1,-4,5,4
1558441721222702,1,2,6,-1,-9,-6,-21,-6
1558441721222702,2,4,8,9,8,3,0,2
1558441721231677,-3,-5,-17,-18,-4,0,3,1
1558441721231677,-5,-3,4,6,5,7,2,-5
1558441721246641,0,-2,-4,-6,-15,-4,-16,-4
1558441721246641,4,0,2,-2,-6,-6,6,0
1558441721252622,3,5,6,5,5,3,10,1
1558441721252622,-5,-7,-10,-5,-5,-7,0,1
1558441721269581,-3,0,4,1,-2,-4,-5,-3
1558441721269581,-2,-6,-7,-2,-7,-4,-9,-2
1558441721270575,-1,-1,1,7,-4,-7,4,-2
1558441721270575,-2,0,-2,-3,-5,-10,-6,-4
1558441721283544,-1,1,4,-8,4,6,-4,2
1558441721283544,-5,-6,-9,-6,0,-4,1,1
1558441721307475,-3,-5,-14,-10,-10,-5,-7,-3
1558441721307475,-1,-2,-8,-8,-14,-9,4,-5
1558441721314466,1,2,4,3,7,9,7,1
1558441721314466,1,2,0,-2,6,4,0,-2
1558441721315456,-3,2,3,3,-5,-5,-22,-7
1558441721315456,-5,-3,4,5,1,-3,-6,-1
1558441721329418,1,0,-2,3,3,9,14,4
1558441721329418,-4,-2,-6,-2,1,-5,-8,-9
1558441721330413,4,1,2,2,2,2,4,1
1558441721330413,2,-3,1,-1,-4,1,-5,-1
1558441721343379,-6,-7,-13,-5,1,1,3,-7
1558441721343379,3,0,9,4,-5,-1,-10,3
1558441721352374,-1,2,-4,-7,2,5,11,4
1558441721352374,-3,-2,-4,3,-2,-6,-1,-1
1558441721366317,-3,-3,2,-4,-11,-14,-20,-1
1558441721366317,6,4,1,4,9,6,12,7
1558441721373306,-2,-3,-6,3,1,0,-1,-2
1558441721373306,-2,1,9,2,5,9,3,-3
1558441721388258,-2,0,-6,-4,-5,-4,1,0
1558441721388258,-3,-3,-4,-4,-10,-9,0,-3
1558441721395241,2,4,6,-5,4,-3,-4,-1
1558441721395241,2,1,-5,-1,1,0,0,3
1558441721403219,-2,-3,-2,7,7,3,-2,-5
1558441721403219,-2,-2,-3,-11,-10,-4,-7,1
1558441721412194,-2,-3,-1,0,-3,-2,10,1
1558441721412194,0,0,-2,-4,2,2,-15,-3
1558441721426161,2,3,0,-7,-7,-4,13,2
1558441721426161,1,0,2,6,10,3,0,4
1558441721433140,0,0,1,-6,-2,4,3,2
1558441721433140,-2,-1,3,8,-1,-4,1,2
1558441721449095,-1,-2,2,6,11,8,13,1
1558441721449095,-1,-1,-3,-4,-2,-1,-12,-2
1558441721451090,1,-2,2,1,-5,-9,2,-2
1558441721451090,0,-1,-7,-6,3,7,5,-1
1558441721463058,-2,-2,-6,-4,-9,-12,-16,-5
1558441721463058,-2,1,-1,-6,-2,-2,2,-3
1558441721472034,-4,-4,1,4,-3,-2,-8,-1
1558441721472034,0,0,5,3,2,0,-9,-1
1558441721501959,-1,-1,3,-1,2,2,3,1
1558441721501959,1,1,3,5,6,14,10,5
1558441721503951,-2,0,-1,-4,11,20,22,-1
1558441721503951,-1,-2,0,-2,-12,-10,-10,-5
1558441721508940,1,0,3,5,-2,0,-7,-1
1558441721508940,-2,-4,-2,-5,7,5,-1,-4
1558441721510932,0,-1,2,1,-3,-2,-8,0
1558441721510932,-3,-2,-4,-3,5,7,3,-2
1558441721522905,-3,-2,1,-1,-6,-1,-2,-2
1558441721522905,1,0,-1,0,-4,-1,16,2
1558441721531884,-2,1,1,2,0,-5,10,3
1558441721531884,0,0,5,5,0,-11,-4,-1
1558441721545836,0,-3,-8,-12,0,4,2,3
1558441721545836,-1,-7,-9,-5,-9,-8,-13,-6
1558441721552826,2,1,-2,5,7,12,5,-1
1558441721552826,2,3,9,5,16,13,11,1
