timestamp,emg1,emg2,emg3,emg4,emg5,emg6,emg7,emg8
1558441798840185,0,2,2,6,6,-4,1,2
1558441798840185,-3,-2,0,1,-4,-3,7,0
1558441798841183,-1,-3,-8,-11,-10,-2,-5,-4
1558441798841183,-4,-3,1,2,0,5,-2,-2
1558441798841183,2,0,1,-2,1,-10,-5,-1
1558441798841183,1,1,2,4,5,-2,3,2
1558441798842181,-2,-3,-4,1,-5,-9,-2,-2
1558441798842181,-1,-1,-4,-4,-2,9,2,-2
1558441798854148,-1,-2,1,-3,-2,4,5,-3
1558441798854148,0,1,0,-3,-5,-13,-7,-1
1558441798863124,-1,1,4,4,2,-4,-6,0
1558441798863124,-3,-3,-9,-2,-9,-2,-6,-2
1558441798869107,-2,0,10,2,8,19,5,2
1558441798869107,-5,-8,-17,-6,1,-3,-2,-3
1558441798883074,-1,-2,0,-2,-5,1,-3,0
1558441798883074,2,-1,2,7,4,-3,3,2
1558441798892046,-1,-1,0,-3,-10,-11,-4,-2
1558441798892046,-1,0,0,-2,2,4,0,-1
1558441798898031,2,1,-1,-1,3,5,-5,1
1558441798898031,0,-1,4,0,1,-3,5,2
1558441798913987,-5,-6,-9,-3,-8,-8,-5,-7
1558441798913987,0,-1,3,2,-1,-3,-2,-3
1558441798921967,-4,0,-4,-4,2,9,0,0
1558441798921967,3,3,9,9,8,2,3,-1
1558441798960862,-1,-1,-8,-11,0,-5,2,1
1558441798960862,-3,-3,-9,-4,-6,-4,-6,-3
1558441798961860,-2,-1,-3,-4,-3,10,0,-1
1558441798961860,-2,-1,-3,4,-5,-10,-3,-2
1558441798962857,0,3,6,-1,2,-6,-2,1
1558441798962857,-1,-1,-5,1,4,15,6,2
1558441798964852,0,2,2,2,-1,-8,-1,0
1558441798964852,2,4,1,-9,-5,1,-2,-1
1558441798973828,-3,-5,-9,-1,-3,0,-18,-10
1558441798973828,0,0,0,-4,-3,-9,4,1
1558441798980809,0,-1,2,4,11,14,11,1
1558441798980809,3,2,8,5,3,-13,5,3
1558441798996766,1,-4,-6,-9,-5,2,-1,0
1558441798996766,0,-1,-1,0,0,-13,-10,-2
1558441799002750,-3,-2,-1,-3,-5,-2,-9,-6
1558441799002750,-4,-2,0,-3,-5,7,-2,-6
1558441799011726,-1,-5,-7,4,1,0,11,1
1558441799011726,0,3,5,3,5,-3,7,5
1558441799017711,-2,-2,-1,-2,-6,-11,-4,-1
1558441799017711,-2,-2,-5,2,8,14,1,-1
1558441799034669,-3,1,3,-5,-10,-4,-11,-5
1558441799034669,-3,0,2,3,4,15,3,0
1558441799040648,2,2,10,4,0,-22,-6,-1
1558441799040648,-3,-5,-14,-6,-4,5,0,-1
1558441799055610,2,1,4,6,10,16,14,4
1558441799055610,-1,-1,3,-3,-9,-10,-11,-6
1558441799062590,3,2,2,-5,1,-4,-1,2
1558441799062590,-3,-7,-8,1,3,6,3,1
1558441799071566,-2,1,0,1,-4,-12,3,2
1558441799071566,0,-1,1,-3,-1,0,3,-2
1558441799077550,0,2,2,7,4,1,6,-1
1558441799077550,4,2,8,0,4,6,0,-2
1558441799094505,-7,-5,-12,-7,-15,-5,-6,-5
1558441799094505,-1,-3,-1,-6,-2,-12,-2,0
1558441799100489,1,0,-3,-1,4,5,-7,0
1558441799100489,-3,1,4,2,1,-1,0,-2
1558441799115449,-1,-1,4,1,-5,0,-9,-7
1558441799115449,1,2,-4,-6,-5,-4,-6,-3
1558441799122430,-1,-2,7,3,0,8,6,1
1558441799122430,-1,-2,-14,7,11,-3,-1,-1
1558441799131405,0,0,7,-8,-8,-11,-8,-3
1558441799131405,-4,-4,-9,-1,-3,2,-5,-2
1558441799137389,-1,0,-1,0,3,-4,4,4
1558441799137389,-1,-1,7,-1,-7,-1,-3,-1
1558441799154345,0,1,-4,-1,-5,-6,-3,2
1558441799154345,2,2,5,7,10,6,5,2
1558441799160330,-3,-4,-5,-4,-10,3,-4,-7
1558441799160330,-1,0,1,-5,-7,0,-5,-4
1558441799176286,1,0,3,2,6,-6,2,6
1558441799176286,0,-1,0,-1,-2,-7,-3,-4
1558441799183268,-5,-3,-2,5,-1,0,-2,-1
1558441799183268,0,-2,-8,-14,1,-6,0,1
1558441799192243,-1,-2,-5,1,0,3,-2,-5
1558441799192243,-2,0,-2,5,4,9,3,1
1558441799198228,1,0,1,-2,-2,-11,-6,1
1558441799198228,1,-2,1,0,-2,4,6,-1
1558441799214185,-1,-2,0,4,2,1,-1,0
1558441799214185,-1,0,5,-2,-5,-11,-3,-1
1558441799220170,-4,-5,-8,-8,-9,-6,-10,-7
1558441799220170,-3,-2,-10,-7,-6,-11,-2,0
1558441799237123,3,6,4,4,15,21,12,2
1558441799237123,-3,0,12,6,4,12,-9,-2
1558441799243108,0,-1,-6,-2,2,7,9,4
1558441799243108,-1,-2,-2,-9,-11,-18,-9,-2
1558441799252083,-5,-3,1,3,-4,-7,-2,-5
1558441799252083,3,-2,-8,-14,-9,-15,-6,1
1558441799265048,-1,-1,0,5,10,12,6,0
1558441799265048,-2,1,5,7,5,6,-1,0
1558441799274024,-2,-2,-3,-4,-2,-4,1,-2
1558441799274024,1,0,6,0,-4,-3,2,2
1558441799280008,1,-2,-12,-4,-4,1,-3,0
1558441799280008,0,-2,-8,-11,2,0,2,-2
1558441799296964,-4,-3,1,-1,-2,-7,-3,-7
1558441799296964,-1,-4,-7,0,-1,-1,0,-3
1558441799302950,-1,4,9,3,-4,-6,2,0
1558441799302950,-4,-2,0,3,-3,7,-6,-3
1558441799311923,-3,-6,-14,-12,-10,-4,-6,0
1558441799311923,-2,0,6,5,7,1,5,-2
1558441799324894,-2,0,-10,-6,-2,-5,-4,-3
1558441799324894,0,2,7,6,-1,-4,0,1
1558441799333863,0,0,3,3,1,4,-4,-2
1558441799333863,-2,-5,-14,-11,-14,-1,-4,-2
1558441799339848,-1,-2,-1,-3,5,13,3,2
1558441799339848,-1,-1,6,9,0,-6,-2,1
1558441799356803,4,1,-3,-16,-3,-16,3,5
1558441799356803,-1,0,2,1,6,9,9,-1
1558441799371762,-1,-2,-4,-8,-11,-5,-4,-3
1558441799371762,-2,-1,-4,-5,-4,2,-6,-4
1558441799372760,-7,-7,-10,3,-2,-6,1,-1
1558441799372760,3,3,2,2,8,0,-1,2
1558441799385726,-1,0,-4,-6,4,8,4,1
1558441799385726,2,0,7,4,-1,0,-1,0
1558441799394703,3,2,11,4,-2,0,-5,-2
1558441799394703,-5,-4,-1,13,-5,-8,-8,-4
1558441799400686,-5,-6,-12,-18,-5,0,-2,-4
1558441799400686,-2,0,1,-3,6,6,0,2
1558441799416643,0,2,9,10,8,15,7,3
1558441799416643,-4,-6,-9,-11,-8,-13,-7,-2
1558441799422627,1,1,6,5,3,-7,0,-1
1558441799422627,-2,-2,-6,-5,-3,-3,-2,-3
1558441799431603,0,0,-3,-2,0,4,-4,0
1558441799431603,-1,0,7,8,3,-2,3,1
1558441799445566,-3,-5,-8,-7,-8,-9,-4,-3
1558441799445566,0,1,8,8,2,6,11,4
1558441799454541,3,1,-2,0,-1,-15,-7,-3
1558441799454541,-1,0,-3,-8,-2,14,2,-2
1558441799460526,-1,-2,-4,4,-6,-5,-8,-5
1558441799460526,-1,0,5,1,2,-4,2,1
1558441799476483,-1,-4,-6,2,3,12,8,1
1558441799476483,-4,-4,-9,-5,-2,3,-9,-7
1558441799482466,3,2,12,5,15,14,16,8
1558441799482466,2,2,-5,-6,-8,-13,-4,0
1558441799491443,-6,-2,-3,-3,-7,-11,-8,-2
1558441799491443,0,-2,-9,-9,-7,-11,-6,-2
1558441799505406,-2,0,10,10,-1,5,-4,-6
1558441799505406,0,-4,-9,1,5,6,3,-1
1558441799514382,2,2,1,1,4,3,3,3
1558441799514382,-2,-1,4,-5,5,12,3,0
1558441799520366,-3,-5,-8,-5,-10,-9,-5,-4
1558441799520366,0,3,6,2,2,5,-5,0
1558441799536323,-4,-4,-4,-6,-10,-4,-9,-5
1558441799536323,-2,-1,-4,2,2,8,10,2
1558441799543304,1,2,2,2,4,-5,2,1
1558441799543304,-1,-1,-7,-5,0,-6,1,0
1558441799551282,2,2,4,4,-1,7,-3,-3
1558441799551282,3,2,-1,-1,1,2,3,3
1558441799565246,1,0,9,9,7,-14,-1,0
1558441799565246,-3,-5,-5,-3,-7,8,-6,-2
1558441799574221,0,-1,1,-5,-2,4,-3,-1
1558441799574221,1,-1,0,3,-10,-16,-2,-2
1558441799580207,-1,1,1,-6,7,-3,-3,0
1558441799580207,-3,-2,1,-4,-4,-2,1,1
1558441799597160,-2,1,1,6,9,1,7,0
1558441799597160,-2,-1,0,-1,-9,0,-10,-5
1558441799612120,0,0,2,-6,-6,-5,0,1
1558441799612120,-1,-1,-9,-6,-6,-7,-1,-1
1558441799613118,0,0,2,7,12,11,11,5
1558441799613118,-2,-3,-2,-2,-8,-15,-4,-2
1558441799625086,1,-2,-4,-1,-5,-3,-9,-6
1558441799625086,2,3,-2,-1,7,-6,-2,5
1558441799634060,-2,0,2,7,-7,-1,-4,-4
1558441799634060,-1,-1,-5,-10,-10,-16,-6,-2
1558441799640046,-2,0,-2,9,12,14,16,2
1558441799640046,-3,-2,-1,-6,-14,1,-5,-8
1558441799657008,2,-2,-3,0,5,-11,-4,-1
1558441799657008,-1,-4,1,-2,2,6,-1,-1
1558441799662983,-4,-5,-3,-3,-18,-11,-9,-1
1558441799662983,2,1,4,-1,10,6,1,1
1558441799671960,-1,-4,-11,-8,-8,-1,1,-3
1558441799671960,0,0,-1,2,5,1,-3,0
1558441799684927,0,1,0,-2,-1,0,0,-1
1558441799684927,-2,0,13,16,5,3,-3,-5
1558441799693902,-4,-4,-12,-18,-5,-1,-5,-2
1558441799693902,0,1,-2,-1,-1,-5,5,2
1558441799699886,-2,-2,0,2,-4,0,-2,-2
1558441799699886,2,-1,-5,-5,-4,4,-1,-2
1558441799716849,-1,0,8,0,-7,-6,-5,-2
1558441799716849,-1,-1,1,9,10,12,3,2
1558441799722824,-2,-1,-2,-7,-2,-3,-2,-2
1558441799722824,-4,-2,0,-1,-5,-2,1,-1
1558441799731800,1,1,-2,-1,4,-4,5,1
1558441799731800,-3,-6,-6,-5,-5,-2,-7,-7
1558441799745762,0,2,8,1,-1,-3,-3,0
1558441799745762,-1,-1,-6,-2,0,4,2,-1
1558441799754744,3,3,7,1,8,3,7,5
1558441799754744,-2,1,-4,1,-2,-8,-2,-5
1558441799760725,-1,-5,-5,-1,-5,-5,-11,-2
1558441799760725,-3,-2,5,-6,-4,-6,1,-2
1558441799783663,-3,-4,-11,3,-7,-7,-2,0
1558441799783663,1,2,3,1,11,17,4,1
1558441799784660,-3,-6,-12,-14,-14,-4,-9,-6
1558441799784660,0,0,4,3,4,-1,-6,-1
1558441799791642,2,-1,-1,1,8,3,0,2
1558441799791642,0,-3,1,1,-3,-1,2,1
1558441799805607,-1,0,-5,3,2,9,-3,1
1558441799805607,-1,-4,-2,-4,-6,-6,-2,-3
1558441799814579,1,5,11,6,2,-6,0,1
1558441799814579,1,3,-1,-2,3,2,3,5
1558441799820567,-2,-7,-6,4,-5,-14,-5,0
1558441799820567,-3,-2,-3,2,-2,-10,-5,-2
1558441799836520,-5,-3,-1,-3,1,19,7,-2
1558441799836520,-2,0,0,-3,-12,-11,-3,-3
1558441799842506,2,2,1,6,10,6,-5,0
1558441799842506,1,3,4,2,-3,-7,-2,-1
1558441799851480,-1,-2,-14,-10,-1,1,-6,-1
1558441799851480,0,-1,5,2,9,6,-1,3
1558441799865443,-2,-4,-9,-6,-10,-14,1,1
1558441799865443,0,-1,-3,-1,-4,-8,-2,0
1558441799874420,1,2,7,2,3,9,-5,-2
1558441799874420,-1,3,10,4,9,11,-1,-2
1558441799880402,-4,-2,-3,-3,1,5,-1,-3
1558441799880402,-4,-5,-13,-19,-12,-12,-4,-3
1558441799896360,-2,-3,-2,-2,-8,-20,-2,-3
1558441799896360,-1,-1,-2,0,5,8,2,2
1558441799902344,-3,-1,0,-3,-5,2,3,-3
1558441799902344,-3,0,5,8,4,1,-3,-2
1558441799917302,-1,-3,-2,-7,-12,-18,-12,-5
1558441799917302,-4,-2,-2,-4,7,10,9,1
1558441799925283,1,6,6,-4,6,13,6,-2
1558441799925283,-1,-5,-9,3,0,-4,-3,-3
1558441799934258,-1,1,-2,-3,5,5,0,0
1558441799934258,-3,-1,1,4,-2,-1,1,-5
1558441799948227,3,2,4,2,5,-4,2,2
1558441799948227,1,2,-1,2,6,12,0,-1
1558441799957200,-3,-3,6,5,-1,1,-2,-1
1558441799957200,0,0,-9,-11,-10,-17,-7,-1
1558441799972245,-2,-3,3,5,-1,0,-3,0
1558441799972245,3,1,-2,-4,-4,-5,-1,2
1558441799973192,-3,0,-3,-8,-3,-1,1,-3
1558441799973192,-1,-3,-9,-6,-8,-3,-6,-2
1558441799986124,0,1,-1,-2,1,1,0,-1
1558441799986124,0,-5,-1,3,5,5,-2,-3
1558441799994110,-1,0,4,3,3,3,-6,-1
1558441799994110,-1,2,6,0,1,3,2,0
1558441800008063,-1,-2,-3,-4,-2,-10,0,1
1558441800008063,-3,-3,-3,-4,2,7,-4,-1
1558441800017040,-3,-2,1,2,-3,3,1,-1
1558441800017040,1,0,4,9,-1,-10,3,1
1558441800031998,-1,0,-6,-9,1,3,2,-1
1558441800031998,-2,4,8,13,5,-7,1,2
1558441800032995,-4,-2,-1,-10,-4,-5,-4,-6
1558441800032995,0,-4,-10,-8,-11,-4,-2,-2
1558441800044962,-1,-3,-2,-3,-1,11,-3,-1
1558441800044962,0,-1,-3,-1,2,-10,2,-2
1558441800053938,1,0,2,6,3,-6,0,1
1558441800053938,-2,-1,1,1,0,1,-4,-2
1558441800067901,-1,-3,-7,-5,-6,-14,-4,-4
1558441800067901,-2,3,-2,-12,-3,8,-4,0
1558441800076877,-3,-2,7,13,-3,3,6,-2
1558441800076877,-4,-5,-12,-12,-7,-3,-4,-3
1558441800091839,-1,-1,5,10,5,-8,-3,-3
1558441800091839,2,-2,-4,-1,1,6,8,5
1558441800092837,5,6,11,9,8,-5,-3,1
1558441800092837,0,-2,-6,-4,-7,-7,-4,-3
1558441800105801,-4,-5,-9,-8,-10,10,-7,-5
1558441800105801,-5,-3,-3,2,-5,-4,-8,-6
1558441800121760,2,-2,-1,-5,5,3,10,5
1558441800121760,-1,-2,-1,1,0,-7,-10,-4
1558441800127743,-3,2,9,12,10,-2,3,3
1558441800127743,-4,-5,-11,-13,-10,-1,-7,-3
1558441800136720,5,3,2,3,0,5,14,7
1558441800136720,1,-1,-6,-9,0,-3,6,1
1558441800151681,-2,-3,-1,-3,-7,-15,-6,-2
1558441800151681,3,1,6,2,-7,-10,-10,-6
1558441800153674,-4,-3,-8,-10,0,5,0,-1
1558441800153674,-2,0,10,8,4,14,9,1
1558441800165753,0,0,-8,-7,-5,-4,-13,-3
1558441800165753,-1,-2,-2,-3,0,0,0,1
1558441800174618,-3,-5,-13,-8,-5,0,-11,-2
1558441800174618,0,1,10,0,0,2,3,-1
1558441800187667,2,0,1,1,0,8,-3,1
1558441800187667,1,-3,3,3,1,-2,-1,-1
1558441800196558,-1,0,-6,-1,5,-3,1,-1
1558441800196558,-4,-3,3,3,-1,1,-3,-2
1558441800211516,-3,0,2,0,1,13,-2,-2
1558441800211516,0,-2,-5,0,2,-3,8,4
1558441800213541,-1,-2,-5,-6,-8,-7,2,2
1558441800213541,4,2,0,1,2,1,4,2
1558441800225479,-1,-2,-4,-8,-8,-8,7,2
1558441800225479,-3,-2,7,8,0,1,-5,-7
1558441800234455,-1,-5,-4,-7,-1,-1,3,1
1558441800234455,-2,-3,2,3,-2,-1,-5,-2
1558441800247422,-3,-4,-8,-9,-11,-5,-16,-5
1558441800247422,1,3,3,9,3,-1,18,5
1558441800256396,2,0,-7,-4,6,16,3,0
1558441800256396,-2,-4,-3,-8,-11,-15,-12,-2
1558441800271356,1,1,-1,-1,7,7,10,3
1558441800271356,-7,-5,-1,-2,-7,-8,-8,-9
1558441800273351,-1,0,-2,1,-5,2,-6,-3
1558441800273351,-2,0,-4,-2,-4,-12,-3,0
1558441800285319,-1,0,14,5,4,-5,14,1
1558441800285319,-1,-4,-16,-14,2,10,1,1
1558441800294295,-2,-4,-7,-1,-5,-1,-6,-3
1558441800294295,-1,2,-2,-3,-7,5,-10,-5
1558441800310510,1,-2,-1,3,4,-12,-2,-1
1558441800310510,1,4,0,-9,-2,-3,1,2
1558441800316235,-6,-3,2,3,-3,-11,-13,-9
1558441800316235,-2,-4,-4,-7,1,0,-2,1
1558441800332193,-1,-2,5,6,1,10,4,-1
1558441800332193,-1,1,-3,0,-5,-4,9,-1
1558441800333195,-1,-2,-5,-7,-7,-4,0,-2
1558441800333195,-1,1,2,4,4,-6,-4,0
1558441800346167,1,2,-3,-3,7,8,5,0
1558441800346167,-3,-5,-1,1,3,10,-3,-3
1558441800354463,0,1,1,0,-5,-8,-2,-1
1558441800354463,3,1,2,5,10,7,10,4
1558441800368340,0,0,-3,1,1,2,5,1
1558441800368340,0,1,1,3,3,-5,-8,-1
1558441800377076,-4,-5,-2,-3,-10,-3,-5,-4
1558441800377076,-1,-2,-1,6,3,1,-3,-2
1558441800392037,-1,2,3,3,2,1,-3,0
1558441800392037,1,2,3,-7,-1,-10,3,3
1558441800393034,-2,-4,-9,1,-4,1,-3,-4
1558441800393034,-2,-3,-1,-3,3,8,10,1
1558441800415021,2,1,-2,-4,-6,-12,-7,0
1558441800415021,-1,1,9,8,3,2,-5,-1
1558441800415976,0,-1,-3,-2,-3,-2,7,2
1558441800415976,-3,-4,-11,-8,-10,-2,-5,-3
1558441800427945,-1,-5,-3,-1,1,0,1,-2
1558441800427945,4,2,2,5,5,4,5,6
1558441800436926,-1,3,10,-1,5,1,-4,-2
1558441800436926,-1,-3,-3,-3,-7,7,-4,-4
1558441800452084,1,1,-4,-1,-2,-6,9,5
1558441800452084,-1,-4,-3,2,-5,-11,-11,-7
1558441800452886,-3,0,5,4,0,5,0,-3
1558441800452886,-1,0,0,-6,3,-2,-3,1
1558441800466064,-2,1,-1,-5,3,18,4,1
1558441800466064,-2,0,3,-6,0,4,0,2
1558441800473817,2,0,-1,4,8,-11,2,6
1558441800473817,3,2,3,8,0,-3,1,0
1558441800488778,-5,-6,-12,-2,-10,-3,-14,-5
1558441800488778,-2,-1,-2,-3,-4,3,1,-4
1558441800502742,-2,0,0,-8,-6,-5,-4,-4
1558441800502742,1,1,3,-1,6,7,0,1
1558441800510717,1,2,6,4,2,-8,-1,1
1558441800510717,-1,-3,-3,0,4,4,-12,-1
1558441800517997,2,1,5,3,-2,1,0,0
1558441800517997,-2,-1,-7,-4,-10,-6,-7,-6
1558441800525714,-2,-2,-5,-13,-1,9,-3,-2
1558441800525714,-2,-5,0,0,-8,-14,-3,-2
1558441800534654,1,0,-1,-3,6,2,1,6
1558441800534654,-2,-1,0,1,4,-1,4,1
1558441800547941,-1,1,1,0,-3,0,0,-1
1558441800547941,-3,-3,5,-2,3,9,6,0
1558441800556863,2,3,-2,2,0,-4,3,-1
1558441800556863,-3,-7,-10,-6,-4,-11,-2,-1
1558441800571866,1,1,3,3,2,8,2,0
1558441800571866,0,0,0,-3,-2,0,-4,1
1558441800578535,-2,-1,6,3,0,3,-4,-3
1558441800578535,-2,-1,-1,0,-1,5,0,-2
1558441800585737,-2,-3,-3,-10,-9,-7,-8,-3
1558441800585737,-3,-1,-7,3,-3,-8,4,0
1558441800594497,1,2,2,-1,1,6,12,3
1558441800594497,1,-1,-5,-3,1,-2,-1,-1
1558441800607668,-2,-5,5,7,1,-2,1,-3
1558441800607668,-1,0,1,-1,-1,-2,-3,-2
1558441800616646,-4,-2,-6,-4,-1,-4,-1,-3
1558441800616646,-2,0,16,16,5,6,4,2
1558441800631400,-1,-3,-4,-10,-4,-2,-2,-1
1558441800631400,-2,0,-6,-3,-2,-6,9,3
1558441800638602,-2,-3,-6,-5,0,0,-3,-2
1558441800638602,1,3,3,4,3,-6,-3,0
1558441800645566,-2,-4,-5,-4,-9,-12,0,-3
1558441800645566,0,0,1,1,6,20,6,0
1558441800654372,1,2,4,6,6,3,-1,-1
1558441800654372,-1,1,-1,-2,3,4,-5,3
1558441800668436,-5,-4,-6,-10,-15,-5,-7,-7
1558441800668436,1,-1,-1,-2,4,5,-4,1
1558441800676279,-2,-3,-8,-9,-3,-2,4,0
1558441800676279,1,2,6,10,3,7,1,-1
1558441800691234,1,0,-1,3,1,-10,-7,-1
1558441800691234,-2,-6,-3,-10,-11,-11,-2,-5
1558441800698405,-1,-3,-5,-6,-4,-4,-2,0
1558441800698405,-2,-3,-6,-3,-5,-3,-8,-1
1558441800714173,-1,3,3,6,2,-5,-1,2
1558441800714173,2,-1,-4,2,10,16,1,0
1558441800715171,-1,-2,2,0,-4,-18,-6,-1
1558441800715171,0,-1,-5,-9,-3,-9,-1,-1
1558441800728139,-3,-1,1,4,0,3,-7,-3
1558441800728139,-2,-1,-6,-8,-7,-13,-8,-1
1558441800737111,-3,-2,6,4,-4,3,-10,-1
1558441800737111,-2,-6,-5,-11,3,12,13,-2
1558441800751420,2,3,1,5,10,-2,5,2
1558441800751420,-1,0,-1,0,-1,-2,2,-1
1558441800758361,-2,-5,-7,-4,-12,2,-4,-4
1558441800758361,0,0,1,-5,-12,-17,-6,-3
1558441800775039,4,2,11,12,15,11,6,4
1558441800775039,-4,-2,-6,-4,-3,-2,3,-2
1558441800781177,2,2,9,8,5,-5,8,3
1558441800781177,-3,-1,-3,-1,-2,4,-5,-3
1558441800788266,-3,-1,-5,-4,-4,-5,0,-4
1558441800788266,0,0,3,0,-3,-8,1,0
1558441800796956,-1,-2,-2,1,-2,-3,-9,-2
1558441800796956,-1,-1,-2,-2,-9,-5,0,-4
1558441800810919,3,6,9,6,6,-5,4,4
1558441800810919,-2,-5,-19,-14,-6,-10,-1,0
1558441800817896,-1,-2,-2,-4,7,12,4,-3
1558441800817896,-5,-6,0,4,-6,-13,0,-2
1558441800833860,-3,-1,5,-1,-1,-7,-4,-6
1558441800833860,-1,1,-4,5,-8,10,3,-1
1558441800835847,0,0,0,-2,4,8,-1,0
1558441800835847,0,-1,-1,0,1,7,6,1
1558441800847845,-1,-3,-6,-7,0,3,-2,-3
1558441800847845,2,0,5,-3,-3,-2,-1,4
1558441800856792,-3,-2,-3,0,3,-2,-9,-5
1558441800856792,0,0,6,3,3,-2,7,2
1558441800870815,1,-3,-7,1,0,-2,1,4
1558441800870815,-2,0,0,-3,-5,0,-7,-6
1558441800877734,-2,-4,1,-4,-13,-11,-7,-5
1558441800877734,0,1,-4,1,6,8,-1,2
1558441800893719,-3,-2,-3,-1,-7,-8,-1,-2
1558441800893719,1,3,5,6,9,11,0,0
1558441800895688,-1,0,-3,-2,-2,-11,6,2
1558441800895688,0,0,-4,-1,-3,-1,1,0
1558441800907714,-2,-5,-5,-2,6,20,10,0
1558441800907714,1,-1,2,3,-1,-1,-4,0
1558441800916630,-3,-1,-3,2,-1,-1,-7,-3
1558441800916630,0,1,-2,-7,-3,-12,2,-3
1558441800930592,-1,-2,-4,-3,-5,5,1,-2
1558441800930592,1,1,5,3,4,-10,3,-1
1558441800937576,2,-2,4,3,-1,2,4,2
1558441800937576,-2,-6,-5,-2,-13,-9,-15,-6
1558441800954529,-3,-2,-5,-5,-3,2,-4,-3
1558441800954529,-3,-3,-4,-7,-2,-1,-6,-5
1558441800955527,0,-1,-2,1,1,5,8,-2
1558441800955527,2,4,1,4,12,7,-3,2
1558441800967495,-2,1,-1,-3,-1,-6,-3,-1
1558441800967495,-1,0,1,2,-1,2,2,-1
1558441800976471,0,-1,1,-8,-2,-7,-1,1
1558441800976471,0,-3,-3,1,1,5,-8,-2
1558441800990435,-3,-3,-4,1,-4,3,0,-4
1558441800990435,1,-3,5,6,7,-3,4,2
1558441800999409,2,0,-9,-4,3,2,9,2
1558441800999409,1,-1,3,0,-3,-11,1,-1
1558441801014395,-4,-1,-1,-5,-9,-4,-3,-2
1558441801014395,-2,-1,5,2,-4,0,-1,-3
1558441801015367,0,0,1,-4,4,-1,6,-1
1558441801015367,-3,-8,-8,-2,-5,-2,4,1
1558441801028332,0,0,-2,-1,-1,1,-9,0
1558441801028332,1,3,3,0,4,-11,0,3
1558441801036310,2,2,1,-2,-6,1,-6,-2
1558441801036310,-2,2,3,0,-4,-8,-8,-3
1558441801051312,0,-1,-1,-11,-1,8,-6,-2
1558441801051312,1,-2,-9,-2,3,4,2,-2
1558441801058251,-1,-1,1,0,-4,-17,-8,-2
1558441801058251,-4,-3,-1,-2,-3,2,-1,-2
1558441801074266,5,1,5,3,2,-6,5,3
1558441801074266,-6,-4,-4,-4,-13,-8,-11,-7
1558441801075223,-1,1,-12,-4,3,16,10,5
1558441801075223,-1,0,12,4,10,5,4,-1
1558441801088237,0,-3,-4,-7,-2,1,-1,1
1558441801088237,0,-3,-5,-6,-12,-3,-5,2
1558441801097199,-2,1,1,1,-4,-6,-10,-4
1558441801097199,2,0,0,-2,0,-4,-1,3
1558441801111110,1,1,-2,7,5,-1,6,4
1558441801111110,1,-2,7,2,3,9,2,-2
1558441801118094,-3,-3,-6,1,-3,-2,-9,-3
1558441801118094,-4,0,-8,-12,-12,-2,-3,0
1558441801134048,-2,-1,1,4,10,15,4,-2
1558441801134048,1,-1,3,-2,2,-4,-3,0
1558441801136044,-1,-2,0,2,4,2,2,1
1558441801136044,2,4,7,3,1,6,-3,-1
1558441801148071,-4,-7,-6,-1,-11,-5,9,-1
1558441801148071,0,1,-4,-12,-3,5,-6,1
1558441801156987,-1,-3,-4,-2,-2,-14,-2,1
1558441801156987,1,0,-1,1,10,7,5,1
1558441801171984,1,1,1,1,-9,-6,-1,0
1558441801171984,-3,-2,-7,3,2,7,-1,-2
1558441801177966,-2,-2,2,-4,-7,0,-10,-1
1558441801177966,-1,-2,-1,-2,-1,-6,3,1
1558441801193887,-1,2,3,1,8,1,-2,2
1558441801193887,-2,0,2,-1,-4,-1,1,-2
1558441801195885,-3,1,0,2,-3,2,-6,-5
1558441801195885,-4,-2,-10,-1,3,1,1,0
1558441801207886,1,-1,2,4,11,1,11,2
1558441801207886,0,1,-1,1,0,11,2,-2
1558441801222811,0,-2,3,-2,-6,1,-8,-5
1558441801222811,-1,0,-1,-1,2,3,-2,2
1558441801230847,-1,0,1,0,-6,-29,-7,0
1558441801230847,0,-5,-8,-6,-4,-5,-3,0
1558441801237772,1,0,6,9,6,13,10,2
1558441801237772,-1,-5,-6,-9,-6,0,-4,-5
1558441801253770,-4,-4,-5,-3,-2,5,-1,-2
1558441801253770,2,2,1,2,6,3,6,2
1558441801255765,0,0,-1,-4,-8,-17,-14,-4
1558441801255765,-2,-3,0,-3,1,5,6,0
1558441801267727,-1,0,0,3,7,9,-6,-2
1558441801267727,-5,-4,-10,-16,-11,-11,-10,-4
1558441801276667,-1,-1,-4,0,0,7,12,3
1558441801276667,-1,-1,-3,-2,-8,-10,-8,-7
1558441801290629,-3,-3,-4,-2,0,4,-2,-2
1558441801290629,-2,0,-2,1,-2,-5,0,-2
1558441801297611,-4,-5,1,-6,-10,-10,-6,-2
1558441801297611,3,4,-1,0,-1,-13,-3,-1
1558441801314565,3,0,-2,-1,0,10,4,-3
1558441801314565,0,-1,2,4,4,8,2,-4
1558441801315564,1,2,2,-3,5,-1,7,4
1558441801315564,3,1,2,7,4,-12,-3,3
1558441801327533,-2,-6,0,-4,-2,9,-5,-2
1558441801327533,-2,-2,1,5,-2,2,-3,0
1558441801336508,-3,-1,0,2,-1,4,2,0
1558441801336508,-6,-3,-1,-4,-2,2,-10,-7
1558441801351467,1,0,-5,0,-4,-14,5,-1
1558441801351467,0,0,-2,-4,-1,-9,-4,2
1558441801357452,0,0,-4,-2,1,0,3,-1
1558441801357452,-3,-2,-2,-2,-2,13,-2,-2
1558441801374436,-2,-4,-3,-2,-14,-9,-8,-4
1558441801374436,1,0,14,10,7,-6,-4,1
1558441801375404,-1,-2,-12,-2,3,-4,-1,0
1558441801375404,0,2,-1,-3,1,5,3,-2
1558441801387370,-2,1,0,-1,-1,11,-6,-5
1558441801387370,-3,-2,-4,-2,-14,-13,-7,-5
1558441801396347,-2,-3,3,-3,-2,-5,-8,-2
1558441801396347,4,1,-5,0,5,8,14,4
1558441801410346,2,3,1,2,4,-4,-1,3
1558441801410346,-4,1,2,7,0,0,-3,-8
1558441801419286,1,0,-4,-13,-6,3,-1,-2
1558441801419286,-1,0,-1,-2,-6,-4,1,1
1558441801433275,-1,-2,-8,-3,-1,-14,-1,3
1558441801433275,-1,-1,0,-2,5,6,4,5
1558441801440229,0,0,0,4,2,7,-2,-3
1558441801440229,1,-1,0,2,-4,-7,-5,-2
1558441801448207,1,1,8,-4,-7,-3,-12,-4
1558441801448207,1,-1,-4,6,8,2,14,3
1558441801456188,-1,-1,-3,-3,-2,0,0,-1
1558441801456188,0,-3,3,-4,-8,-6,-5,-3
1558441801470148,-3,-2,-6,-4,5,4,3,-2
1558441801470148,2,0,-4,-3,2,2,3,2
1558441801479125,0,-1,3,2,0,8,2,-3
1558441801479125,1,0,3,-3,-5,-17,-11,2
1558441801502064,-1,-2,0,4,-3,-2,2,-1
1558441801502064,-2,-4,-3,-19,-4,4,-9,-2
1558441801503061,-4,-4,-9,0,-8,0,3,0
1558441801503061,-3,2,2,6,8,12,7,3
1558441801508048,-1,-3,-4,-3,-6,-17,-12,-2
1558441801508048,-1,0,-1,2,-4,-1,7,1
1558441801517025,2,2,5,1,-1,-6,-8,-2
1558441801517025,-2,-4,-1,0,1,-4,2,1
1558441801529988,-1,-2,-1,0,-7,-10,-1,-3
1558441801529988,-1,-3,-6,0,3,12,8,3
1558441801538965,-1,0,-1,2,1,-1,-5,0
1558441801538965,-1,1,-4,-2,4,15,3,-3
1558441801553944,1,-1,3,0,2,1,9,4
1558441801553944,0,-1,-4,-5,-10,-26,-18,-2
1558441801559910,-3,-1,-2,5,3,-2,6,-1
1558441801559910,3,1,1,0,8,7,2,0
1558441801576891,-4,-4,-4,-13,-8,-5,-10,-5
1558441801576891,-2,-3,-5,-6,-3,9,0,0
1558441801577861,-2,-3,-3,-5,-1,-7,-9,-1
1558441801577861,0,-2,-2,0,0,5,2,-3
1558441801589868,1,1,-4,6,0,3,2,-3
1558441801589868,0,-1,2,-2,2,-10,2,1
1558441801598806,2,1,5,5,7,-5,3,1
1558441801598806,-3,-5,-5,-5,-14,-14,-14,-5
1558441801613799,-3,-3,-7,-4,2,11,0,-2
1558441801613799,-2,-1,-1,4,3,6,3,-1
1558441801619748,0,0,10,7,-3,-8,-15,-2
1558441801619748,-2,-2,-6,-3,-6,-9,2,2
1558441801636705,0,3,11,-1,4,2,5,0
1558441801636705,-4,-4,-6,-1,-2,-3,-2,-6
1558441801637702,1,1,-5,-1,2,4,2,1
1558441801637702,-3,-3,5,1,-6,2,-5,-6
1558441801659642,-2,-2,-4,-8,-6,-8,-5,-1
1558441801659642,0,-1,2,3,1,-1,-3,-2
1558441801660640,-1,2,-3,-5,1,-2,5,-3
1558441801660640,-2,-1,-2,1,4,10,6,3
1558441801673648,-1,-3,-7,0,-3,-5,-6,-2
1558441801673648,-1,-1,1,-2,-4,-3,4,0
1558441801680923,1,0,4,-1,7,5,2,0
1558441801680923,-1,-2,-9,-2,-1,3,0,-1
1558441801696896,-3,0,8,0,4,-12,-6,-2
1558441801696896,-1,-3,-9,-7,-12,-6,-6,-4
1558441801698568,-2,-3,-1,-1,-4,-3,-8,-4
1558441801698568,0,0,11,6,3,-5,2,0
1558441801710507,-2,-5,-11,-9,-7,1,2,2
1558441801710507,-1,0,4,7,4,-1,-2,-2
1558441801719691,-3,-3,-8,-7,-7,1,1,-2
1558441801719691,0,-2,1,0,-4,-3,-1,-4
1558441801733447,0,2,1,4,2,6,6,2
1558441801733447,1,3,-1,-5,4,-6,-2,3
1558441801740427,-2,-4,-3,0,-1,4,8,1
1558441801740427,1,2,-2,-2,4,0,-1,1
1558441801756383,1,0,-2,-1,-7,-3,-2,-1
1558441801756383,-2,-3,-6,-5,1,12,-1,-1
1558441801758378,0,-1,1,0,-4,-3,-1,-2
1558441801758378,2,2,5,0,-4,-13,-5,-1
1558441801770348,2,1,0,3,12,17,9,5
1558441801770348,-2,-3,2,3,2,-1,-5,-2
1558441801785308,-3,-7,-12,-6,1,7,5,1
1558441801785308,-4,-1,0,1,-11,-12,-3,-3
1558441801793285,3,2,4,6,3,8,2,2
1558441801793285,1,2,4,1,-1,-6,-12,1
1558441801800266,0,-2,-1,-1,-5,2,-5,-2
1558441801800266,0,0,2,6,5,5,3,2
1558441801816258,-1,-2,-12,-22,-12,-8,-5,-3
1558441801816258,-2,-3,0,8,7,7,2,-1
1558441801818219,1,3,2,0,7,10,2,1
1558441801818219,-3,0,-7,-5,-11,-10,-3,-3
1558441801830186,2,3,8,12,16,19,8,3
1558441801830186,0,-1,4,-1,-4,-12,2,0
1558441801839163,1,0,-6,-4,-2,-2,3,1
1558441801839163,-1,0,-1,3,2,6,-7,-7
1558441801853125,-3,-2,2,-2,-4,-6,-5,-3
1558441801853125,-4,-5,-12,-10,-11,-9,-4,-6
1558441801860107,-2,0,8,9,4,9,2,2
1558441801860107,-2,-3,-6,-7,-7,-5,-9,-3
1558441801877061,0,-3,3,4,5,4,-4,-3
1558441801877061,3,3,1,4,1,-10,4,2
1558441801878058,-2,-1,-8,-8,-2,-3,-6,-5
1558441801878058,-3,-2,7,4,2,-4,8,1
1558441801890026,-3,-2,-10,-2,-5,-9,-2,-3
1558441801890026,1,-1,1,-2,-4,2,-1,0
1558441801899002,-1,-2,3,3,2,9,4,-1
1558441801899002,-2,-2,-7,-7,-6,-7,-3,0
1558441801912964,1,1,3,10,11,6,6,2
1558441801912964,0,3,-1,6,5,3,0,0
1558441801919946,-1,0,1,-13,-6,-11,-3,0
1558441801919946,-2,-6,-8,-10,-7,5,-2,-2
1558441801936900,1,0,-3,-6,-16,-10,-12,-4
1558441801936900,1,-3,-3,6,5,6,10,4
1558441801937898,1,1,3,2,4,-11,-5,1
1558441801937898,0,1,3,7,5,4,3,2
1558441801949867,-1,2,0,-5,-6,-2,-6,-5
1558441801949867,-2,-4,-12,-9,-6,8,6,0
1558441801958843,-4,-4,2,-3,-6,-19,-5,-3
1558441801958843,1,1,2,0,10,7,4,2
1558441801973836,0,0,-1,0,-2,-3,1,1
1558441801973836,-2,-1,0,-2,-4,7,-7,-5
1558441801979843,-2,-3,-5,-4,-5,6,7,-3
1558441801979843,-1,-1,-1,3,-3,-10,-11,-3
1558441801996790,-3,-3,4,-5,-3,-7,-7,-5
1558441801996790,0,2,-5,-3,7,5,5,7
1558441801997765,-4,-2,-5,1,-6,-7,-1,-6
1558441801997765,-1,-1,-2,-3,7,19,8,0
1558441802010762,-2,0,-1,2,-2,-6,-5,1
1558441802010762,-1,2,4,-2,-2,-6,-7,0
1558441802019680,1,2,6,8,4,-5,-4,0
1558441802019680,1,-2,0,-2,2,-5,5,4
1558441802033642,-3,-4,-3,-1,-4,4,-5,-7
1558441802033642,-2,-2,2,0,-10,1,-6,-6
1558441802040625,2,0,-5,6,2,-7,-2,1
1558441802040625,2,3,1,-8,9,14,6,2
1558441802056580,-2,0,-2,2,-6,-7,-10,-2
1558441802056580,-1,-1,2,-1,-1,-3,-2,-1
1558441802057605,-1,1,-1,-3,-2,-1,3,3
1558441802057605,-2,-2,2,1,-1,-11,-10,-1
1558441802070542,2,-1,-6,-5,-6,0,9,4
1558441802070542,-4,-1,-1,-3,-5,-1,-3,-5
1558441802079519,1,1,3,7,2,1,1,0
1558441802079519,1,-3,-9,-6,-3,-2,-9,-5
1558441802093483,-3,0,-1,0,0,2,-2,-3
1558441802093483,1,0,1,0,-7,-6,-2,-2
1558441802100524,1,-4,-1,-2,4,-8,5,1
1558441802100524,-1,-2,-3,-4,-2,8,-3,-6
1558441802116423,2,1,7,0,2,-2,7,4
1558441802116423,-3,-7,-7,0,-1,-1,-4,-5
1558441802118415,-4,-2,-1,-12,-2,7,-9,-4
1558441802118415,-2,2,-4,-4,-6,-2,-2,-1
1558441802139359,-3,-4,-2,3,-1,-5,2,-3
1558441802139359,1,1,1,-2,3,0,-1,1
1558441802140356,-1,1,0,3,-5,-1,2,-1
1558441802140356,-2,-4,-8,-4,-8,-13,2,2
1558441802153383,-1,2,5,8,6,7,2,3
1558441802153383,-1,-1,-3,-4,-5,-3,-1,0
1558441802168519,0,-2,-6,-5,-2,1,-5,-5
1558441802168519,-1,1,2,5,3,-8,-8,-2
1558441802177307,-2,-2,-4,-10,-5,-3,14,1
1558441802177307,-5,-2,4,4,2,-10,-3,-7
1558441802178289,2,-1,-2,-3,-6,-9,-8,-1
1558441802178289,-5,-5,-1,3,1,12,3,-2
1558441802190325,1,2,-1,-1,6,-2,-2,1
1558441802190325,-2,-2,0,-2,-4,-4,-5,-4
1558441802199199,-2,-1,-1,-3,-4,7,-2,-5
1558441802199199,2,0,2,3,5,-3,2,1
1558441802214163,-3,-2,-1,1,0,-9,-4,-2
1558441802214163,0,0,2,-2,2,10,8,1
1558441802220393,0,-1,-7,-9,-7,-6,-1,0
1558441802220393,-2,-1,-2,0,-3,1,0,-2
1558441802237290,-1,-3,-6,-7,-2,0,-5,-2
1558441802237290,4,1,1,2,4,-6,-2,1
1558441802238097,-2,0,-8,-4,-4,-4,-1,-2
1558441802238097,2,3,11,2,2,-4,8,3
1558441802250370,-1,-2,5,1,3,7,-4,-3
1558441802250370,-5,-3,-3,1,-3,-1,-3,-1
1558441802259127,-4,-2,3,2,-2,5,-1,-4
1558441802259127,0,-2,-7,-6,-6,-2,-2,-3
1558441802274085,1,1,-2,1,0,-13,0,0
1558441802274085,0,1,0,7,6,3,3,2
1558441802281070,2,2,5,-6,3,3,10,1
1558441802281070,0,0,-5,-4,0,3,-1,-1
1558441802297239,-1,-2,-1,5,-3,2,-4,-1
1558441802297239,1,-1,1,-2,-4,-7,1,0
1558441802298024,-2,-4,-5,5,1,-1,-4,2
1558441802298024,-2,0,-2,-4,3,2,2,0
1558441802310999,-5,-2,-2,-5,0,7,-4,-1
1558441802310999,0,-1,0,-2,-7,-6,-5,-1
1558441802318966,1,2,-1,2,1,3,0,-1
1558441802318966,-3,-2,3,2,4,-2,-2,-1
1558441802333925,-1,-1,2,4,-1,6,-3,-2
1558441802333925,2,0,5,7,1,-11,15,4
1558441802339910,-3,-2,-3,-4,1,8,-4,-3
1558441802339910,-1,-1,-9,-6,-6,-4,0,-1
1558441802357199,1,3,7,1,6,2,7,2
1558441802357199,-5,-5,-8,-1,-2,5,-8,-3
1558441802358150,-2,-2,3,-1,-13,-15,-7,-1
1558441802358150,2,0,5,2,5,4,7,2
1558441802371169,0,-3,-3,-2,-8,-14,-13,-5
1558441802371169,1,-1,-11,-12,-6,1,0,-2
1558441802379255,1,2,6,4,12,10,8,6
1558441802379255,-1,0,6,8,3,-5,-7,0
1558441802393199,-3,-5,-12,-12,-3,7,-1,-2
1558441802393199,-1,4,9,2,3,10,0,0
1558441802400300,-5,-8,-15,-6,-12,-22,-7,-3
1558441802400300,-1,-3,-5,-8,-10,-9,-5,-3
1558441802416126,1,3,5,6,9,8,3,1
1558441802416126,0,1,1,-7,-7,-5,-6,-2
1558441802423108,-1,-3,-4,-2,-3,-1,-8,-5
1558441802423108,0,3,3,7,6,5,1,-1
1558441802430091,-2,-3,-4,-1,-3,-4,-1,-3
1558441802430091,-3,-1,5,9,4,-2,-7,1
1558441802439062,0,0,1,1,5,10,8,4
1558441802439062,-1,-2,-5,-5,-8,-8,-7,-4
1558441802453064,2,2,2,10,0,-1,-3,-3
1558441802453064,-1,-3,-5,-14,-1,7,4,1
1558441802460008,0,1,3,7,2,-1,-1,0
1558441802460008,-4,-7,-9,-10,-12,-20,-6,-3
1558441802475965,2,2,-1,1,9,9,9,3
1558441802475965,-2,-2,4,3,-8,-9,-6,-4
1558441802483362,0,1,-1,1,3,7,3,0
1558441802483362,-2,-1,-3,-3,-5,6,1,-3
1558441802491170,-1,0,2,-1,2,-6,6,2
1558441802491170,-1,0,-5,0,2,-2,1,-4
1558441802498931,0,3,3,-2,3,3,2,0
1558441802498931,-3,-2,2,-6,-8,-21,-10,-4
1558441802514186,-4,-7,-13,-14,-17,-8,-8,-6
1558441802514186,-1,-2,4,7,1,4,-6,-2
1558441802520161,0,-2,-2,-1,6,3,6,4
1558441802520161,1,3,0,3,3,2,7,2
1558441802536119,1,0,2,0,-1,-1,6,2
1558441802536119,-2,-2,0,0,-6,-9,-10,-2
1558441802542785,-4,-3,-1,0,-5,-3,-8,-6
1558441802542785,3,0,0,1,7,19,9,4
1558441802558744,-3,-3,1,1,-6,-8,-9,-4
1558441802558744,-1,-4,-13,-8,5,3,5,-3
1558441802560738,-1,0,2,1,5,3,1,1
1558441802560738,-4,-2,0,-4,-2,-1,-1,1
1558441802574180,-1,1,5,2,-6,2,-6,-1
1558441802574180,-2,-2,-9,-6,-8,4,-2,-3
1558441802580869,0,-3,-2,-13,-2,-7,-5,-2
1558441802580869,1,2,1,5,1,-1,-2,0
1558441802595728,-3,-3,-2,-9,-1,1,-4,-5
1558441802595728,2,2,9,4,0,-5,-2,1
1558441802602700,1,1,-7,-3,1,6,-1,0
1558441802602700,0,0,1,5,2,-5,4,-1
1558441802619612,0,-1,-4,-9,-8,-13,-6,-2
1558441802619612,1,-2,1,3,13,16,14,7
1558441802620579,-2,1,7,2,-7,-7,-9,-4
1558441802620579,-2,-4,-16,-5,-1,4,-2,0
1558441802633571,-2,-3,-1,-1,-7,-1,-1,-1
1558441802633571,3,0,-4,-5,3,-13,-1,3
1558441802640606,-1,1,7,7,4,1,3,1
1558441802640606,-1,-4,-3,-3,-9,2,-3,-5
1558441802656536,-3,-3,-6,0,-8,-6,-8,-6
1558441802656536,-3,-3,-2,-1,-5,-6,-1,-4
1558441802664461,2,0,-1,-3,-2,-2,4,-3
1558441802664461,-2,1,3,1,0,1,-10,-2
1558441802679450,3,3,5,10,17,14,13,4
1558441802679450,0,1,3,-5,-1,-9,3,0
1558441802680425,-2,-7,-4,-1,-7,-3,-9,-2
1558441802680425,-1,-3,1,-2,-7,-7,-2,-1
1558441802693413,3,0,-1,2,13,20,9,6
1558441802693413,0,1,0,6,1,12,0,-1
1558441802700394,2,4,-5,-11,-3,0,-7,-1
1558441802700394,1,2,10,11,8,-1,2,3
1558441802716405,-4,-4,-12,-2,-7,-8,-14,-1
1558441802716405,0,1,-1,0,1,-8,10,0
1558441802722423,-3,-2,-4,-2,-6,-2,-3,-4
1558441802722423,-2,-1,-6,-6,-4,-12,-4,-1
1558441802739347,0,0,4,-1,6,6,1,0
1558441802739347,-1,-4,-3,-8,-10,1,-7,-2
1558441802740342,-1,1,4,17,9,2,8,2
1558441802740342,-2,-2,0,-9,-7,-9,0,-2
1558441802753386,2,0,0,3,0,-5,7,2
1558441802753386,-3,-2,-4,-1,2,5,-5,-4
1558441802760288,1,-1,-1,-3,-2,8,5,2
1558441802760288,0,-1,2,5,4,9,3,-1
1558441802776245,-1,-1,0,-4,-1,-12,-2,-3
1558441802776245,0,0,4,-2,-4,-10,-4,-3
1558441802783225,-1,-4,-9,-8,-2,-11,-7,5
1558441802783225,-2,-1,4,-2,1,-1,5,1
1558441802799246,-3,-5,-11,-6,-9,-4,-6,-3
1558441802799246,1,1,-4,-2,1,7,-2,1
1558441802800182,-1,1,13,5,-7,-14,4,-3
1558441802800182,2,0,-9,-1,9,21,3,-2
1558441802813203,-3,-4,-6,-12,-4,-2,2,-2
1558441802813203,-2,-1,0,2,4,2,6,3
1558441802820191,-1,0,-2,1,1,5,-5,-4
1558441802820191,-2,-1,1,-2,-5,-5,-2,0
1558441802836119,0,0,0,1,7,0,0,-1
1558441802836119,-1,-2,-4,2,-4,1,-12,-3
1558441802843068,-2,-3,6,1,0,-3,-2,-3
1558441802843068,1,0,3,5,1,-9,-1,-2
1558441802859026,-2,1,-1,-3,-4,-10,-3,-2
1558441802859026,-4,-5,-9,-9,-8,0,-5,0
1558441802861018,-4,-2,-5,-4,-6,6,0,-6
1558441802861018,-2,1,-8,-7,-4,-12,-6,-4
1558441802874023,-2,-3,8,4,-9,-13,-5,-2
1558441802874023,-1,0,3,9,8,11,5,2
1558441802881962,-1,-2,-8,-7,2,5,2,-1
1558441802881962,-1,0,-3,-4,-1,3,-7,1
1558441802895959,-2,0,2,2,-2,-2,-2,-3
1558441802895959,0,-3,-2,-4,-11,-11,-7,-7
1558441802904646,0,0,1,4,8,12,8,-1
1558441802904646,2,0,3,2,3,-3,-4,4
1558441802919612,4,2,-3,-4,8,7,1,4
1558441802919612,2,3,-2,-2,2,0,8,5
1558441802920612,-1,-2,-5,-5,-9,-11,-11,-2
1558441802920612,-5,-3,-5,-7,-11,0,-6,-5
1558441802933613,-4,-4,-2,1,-6,-7,4,-5
1558441802933613,0,0,8,8,4,-9,0,0
1558441802940557,1,-1,-12,-17,1,2,7,6
1558441802940557,-1,-2,-4,-3,-2,0,-1,-2
1558441802956513,3,1,2,1,-3,-5,-1,1
1558441802956513,-4,1,6,0,-5,-4,-8,-6
1558441802962532,-6,-7,-10,-1,-5,-5,-3,-4
1558441802962532,0,1,4,1,10,14,6,1
1558441802979508,0,1,-4,-7,-8,-2,-5,0
1558441802979508,0,-1,-1,-4,-5,-10,-6,-1
1558441802980450,1,1,6,2,4,7,1,-1
1558441802980450,-3,-3,-5,-9,-5,-4,4,0
1558441802993416,-3,-1,3,7,7,-1,6,1
1558441802993416,1,1,-4,-8,-6,-2,-2,-1
1558441803000425,-2,-2,-5,-1,-7,-4,-4,-4
1558441803000425,0,-2,-8,0,2,6,2,-2
1558441803016381,-1,-2,7,3,0,-17,-6,0
1558441803016381,-1,-1,-1,1,8,4,7,2
1558441803022369,0,2,3,2,-4,-1,-17,-5
1558441803022369,-2,-2,1,-2,-7,-5,-4,0
1558441803039292,-1,-1,-9,-1,-5,-3,-1,0
1558441803039292,-1,-4,-1,-1,4,14,-3,-2
1558441803040302,1,-1,9,9,1,1,-5,-3
1558441803040302,-1,0,-4,-3,0,-7,-4,-1
1558441803052291,0,1,-3,-3,11,10,6,2
1558441803052291,-2,-3,-6,-6,-6,-2,-2,-2
1558441803061263,-1,-1,7,3,-1,1,9,2
1558441803061263,-1,-4,1,0,-6,-28,-3,0
1558441803076270,-3,-3,-4,-4,-5,-3,-8,-4
1558441803076270,-1,0,-3,-2,-1,7,8,2
1558441803082257,1,3,3,7,6,0,6,1
1558441803082257,-2,-3,-5,-12,-5,9,-6,-8
1558441803099210,2,0,7,7,10,12,13,4
1558441803099210,-1,-2,-1,0,-1,-15,-10,-4
1558441803100208,0,-1,-9,-13,-8,-6,-7,1
1558441803100208,0,2,9,9,3,-1,5,1
1558441803113171,-3,-4,-6,-4,-4,6,-6,-8
1558441803113171,1,0,0,-2,-2,2,0,-1
1558441803121150,-2,0,-3,0,4,-11,-7,-1
1558441803121150,1,1,0,5,7,7,7,4
1558441803136110,0,-1,1,-1,-4,-5,-4,-3
1558441803136110,-1,0,0,-1,-1,-1,1,-1
1558441803143092,0,-5,-1,-2,1,0,4,-1
1558441803143092,-1,1,3,0,-7,-9,-9,0
1558441803159048,-2,-4,-3,-4,-3,1,-5,-5
1558441803159048,-1,-1,-1,1,5,-1,6,-1
1558441803160045,0,1,1,2,5,2,8,1
1558441803160045,-3,-3,-1,-3,-4,12,-1,-4
1558441803173047,2,2,-3,3,3,-6,4,4
1558441803173047,-3,-2,-5,-10,-6,-8,-5,-2
1558441803182021,-1,0,3,9,-1,-6,-3,-1
1558441803182021,-3,1,-7,-12,8,15,6,2
1558441803196052,-3,-2,0,-5,-8,-4,-2,0
1558441803196052,-4,-3,-5,-2,4,5,-6,-4
1558441803203127,-2,-2,-6,-12,-12,-9,-3,-2
1558441803203127,0,4,2,8,9,9,2,0
1558441803219084,-3,0,-1,-2,-2,-1,1,-1
1558441803219084,-2,-4,-7,-11,-11,-6,-2,0
1558441803220883,0,-2,9,3,1,5,-4,-3
1558441803220883,-5,-9,-19,-8,-12,-5,-9,-4
1558441803233259,0,0,3,-5,2,-3,-5,0
1558441803233259,3,3,-3,4,5,11,20,7
1558441803241278,-1,-1,2,5,2,5,2,-2
1558441803241278,-2,-1,1,-8,-5,-6,-8,-4
1558441803256358,1,2,5,4,7,7,0,-1
1558441803256358,-1,-3,-8,-8,-11,-9,-7,-5
1558441803263240,-2,-1,-1,7,-2,1,2,1
1558441803263240,0,0,5,3,2,-12,-1,2
1558441803286156,2,1,3,5,5,-2,-1,2
1558441803286156,0,1,11,6,6,4,-3,0
1558441803288118,-2,-6,-18,-14,-8,6,0,-1
1558441803288118,-2,-3,0,1,-13,-17,-7,-4
1558441803293105,2,2,1,5,9,14,5,2
1558441803293105,3,2,3,-4,-1,-11,-7,-2
1558441803302087,-3,-3,-1,0,-1,-3,0,-2
1558441803302087,0,-2,6,1,-4,-8,4,0
1558441803316074,-3,-2,-5,-2,-1,-1,0,-2
1558441803316074,-1,-1,-7,3,1,-4,-2,-1
1558441803323062,-3,0,0,-6,-5,-9,-11,-4
1558441803323062,1,0,5,11,4,4,2,-2
1558441803339020,0,-4,-7,-16,-8,1,5,4
1558441803339020,-2,1,7,13,7,4,-2,1
1558441803344998,-3,-2,-5,-16,-13,-15,-7,-2
1558441803344998,-2,-1,-1,1,-1,-6,-4,-2
1558441803361920,-1,0,-3,0,0,3,-1,-2
1558441803361920,-1,1,-2,-3,-3,3,-1,-2
1558441803362915,-1,3,7,6,17,12,10,4
1558441803362915,1,1,1,0,4,0,3,1
1558441803375881,-1,-5,-3,-5,-10,-13,-10,-5
1558441803375881,-2,-3,-1,-5,-8,-9,-10,-1
1558441803382861,-1,0,1,7,7,9,4,-1
1558441803382861,-1,-2,-11,-17,3,9,8,2
1558441803399041,-3,-1,6,1,-6,-6,-3,-2
1558441803399041,-2,-5,-9,-3,-12,-10,-8,-4
1558441803413778,3,2,8,9,6,6,5,4
1558441803413778,-3,-4,-15,-7,-1,7,-5,-1
1558441803413778,-1,1,0,-1,-1,5,1,-1
1558441803413778,-2,-2,-3,-12,-6,-4,6,-1
1558441803421757,-1,0,1,6,-5,-9,-4,-3
1558441803421757,-3,-2,-4,-8,-2,2,0,0
1558441803435917,-2,-1,-1,3,2,-2,7,-3
1558441803435917,0,-1,3,3,7,17,2,0
1558441803442704,-3,0,-7,-4,-4,-1,0,0
1558441803442704,-1,1,7,7,3,0,1,0
1558441803474617,-1,2,-2,1,1,-2,-5,1
1558441803474617,-2,-2,-3,-2,1,-2,3,0
1558441803475615,0,-4,2,-5,-1,1,-1,-3
1558441803475615,0,-1,-2,6,-4,-14,-2,-1
1558441803481778,-3,-2,-4,-6,-8,4,-3,-2
1558441803481778,2,6,6,9,12,7,9,5
1558441803483629,1,2,-5,-5,-2,-11,-9,0
1558441803483629,0,1,12,0,-2,4,-10,-1
1558441803495632,0,-4,-17,-8,2,-5,9,6
1558441803495632,-5,-4,-3,-9,-11,-6,-5,-3
1558441803502588,0,-1,1,5,2,-6,3,1
1558441803502588,0,2,4,3,3,0,-9,-2
1558441803518535,-1,1,0,-4,1,7,2,-4
1558441803518535,-3,-3,4,8,2,10,-9,-6
1558441803532510,0,-2,-9,-6,-5,1,2,-2
1558441803532510,0,-1,-1,1,-8,-11,-4,-3
1558441803541440,-2,-1,-4,-14,-1,-8,-7,-3
1558441803541440,0,-2,-3,2,-1,-7,-7,-1
1558441803543434,3,3,8,5,7,9,9,2
1558441803543434,-1,-2,3,0,-2,16,6,-1
1558441803556400,-5,-7,-12,3,-4,-4,-1,-4
1558441803556400,0,1,-3,-2,-1,-11,-5,-3
1558441803562385,-5,-4,-3,-4,-4,5,-7,-2
1558441803562385,0,1,-1,-1,3,-3,-2,-1
1558441803578341,-1,1,8,1,-1,-8,-10,-5
1558441803578341,-3,-1,-1,0,-3,-7,0,-1
1558441803585349,-3,-6,-6,-8,-8,-10,-12,-8
1558441803585349,-2,3,0,6,6,8,1,-2
1558441803601388,0,-3,7,3,-1,-2,-7,-1
1558441803601388,2,-1,-5,-4,-1,3,6,2
1558441803603273,-2,-2,-6,-6,-10,-4,-8,0
1558441803603273,1,1,7,12,13,1,6,5
1558441803616349,1,0,0,0,-2,1,2,1
1558441803616349,-1,0,0,-2,-8,-9,-5,-5
1558441803624215,1,0,-1,1,6,12,8,1
1558441803624215,0,-3,-6,-4,-9,-16,-4,-3
1558441803639292,0,1,2,5,5,2,8,3
1558441803639292,1,-1,3,1,2,4,-3,1
1558441803646268,-2,-3,-3,-2,-12,0,-3,-2
1558441803646268,-1,-1,-1,0,0,2,7,-2
1558441803662114,-1,1,0,-3,-1,-6,-9,-4
1558441803662114,-1,1,2,1,5,6,7,1
1558441803663114,-5,-8,-18,-8,-2,2,1,-1
1558441803663114,-1,-2,2,0,-3,-5,-1,0
1558441803676158,-1,-2,-1,5,-10,-6,-5,-3
1558441803676158,0,2,2,-5,2,2,1,-2
1558441803690039,1,3,5,6,8,-3,3,2
1558441803690039,1,-2,-7,-11,-2,-1,-2,2
1558441803698049,-2,-1,6,3,-6,4,-3,-1
1558441803698049,-3,-3,-5,-2,-4,-4,8,-1
1558441803705043,5,3,4,3,12,6,9,2
1558441803705043,-1,-1,-4,-8,-4,-3,-2,-2
1558441803721954,-3,1,-3,-2,1,-2,5,0
1558441803721954,-4,-4,-5,0,-10,-9,-9,-3
1558441803722962,-4,-4,-2,-7,-5,-4,-1,-3
1558441803722962,2,2,0,-1,0,4,4,0
1558441803735962,-2,-4,0,-4,-2,-3,-9,-4
1558441803735962,1,0,1,4,10,2,7,5
1558441803742931,-2,3,3,0,-5,-10,-7,-5
1558441803742931,-7,-5,-7,-8,-13,-3,-11,-7
1558441803758856,-1,1,-3,-4,-7,-5,1,0
1558441803758856,1,-2,0,-8,-8,-5,-4,-2
1558441803765871,-1,0,1,-3,7,4,6,4
1558441803765871,0,-2,1,13,8,3,1,-1
1558441803788935,1,0,-3,-14,0,0,4,1
1558441803788935,-4,-1,4,3,0,-3,0,-1
1558441803790771,0,-1,-3,-2,-6,3,-3,2
1558441803790771,1,-2,-4,-1,7,8,17,4
1558441803803736,0,-1,0,7,3,4,-3,-3
1558441803803736,0,1,7,-3,2,9,-8,-4
1558441803805734,-2,-2,-7,-5,-9,-12,-3,-1
1558441803805734,-1,-2,-4,-3,-2,3,-8,-2
1558441803818784,3,-1,2,0,2,-5,6,3
1558441803818784,-2,-2,-5,1,-3,-5,3,1
1558441803825682,-4,-2,3,2,-3,-9,-9,-5
1558441803825682,0,1,2,-3,-2,-7,-6,0
1558441803841636,0,1,-5,3,-5,-8,-9,-2
1558441803841636,1,1,-6,-14,5,15,7,3
1558441803842633,-2,-1,-1,5,6,3,1,-3
1558441803842633,-1,-3,-2,0,-2,-2,-9,0
1558441803855763,0,-1,-1,-1,-3,0,6,0
1558441803855763,1,1,0,1,3,7,4,1
1558441803862580,-3,-4,-4,-4,-14,-8,-6,-5
1558441803862580,0,2,0,7,-4,-10,-8,-1
1558441803878537,0,0,0,-6,11,16,10,2
1558441803878537,0,1,-7,-3,-8,-22,-8,1
1558441803885581,0,2,2,-1,4,0,3,1
1558441803885581,-3,-1,-1,1,-8,-6,-2,-2
1558441803901556,0,-1,-1,-3,0,4,5,1
1558441803901556,-5,-3,-5,1,2,4,-2,-2
1558441803903537,-1,0,-1,-4,-3,-3,1,0
1558441803903537,-3,-3,-7,-5,-5,-2,4,-4
1558441803916434,-2,0,-1,-1,-2,-3,-5,-1
1558441803916434,-1,-3,-4,1,-2,1,-3,-3
1558441803922441,0,-1,4,0,1,-4,6,4
1558441803922441,1,-1,-3,-1,6,7,1,2
1558441803938378,-4,-5,-2,-8,-7,3,-7,-3
1558441803938378,0,-1,2,7,-5,-8,5,-3
1558441803945357,-1,1,0,-1,-3,-9,-5,1
1558441803945357,-1,-1,-8,-8,-8,-9,4,-3
1558441803961316,-2,-2,3,6,5,-3,-3,-2
1558441803961316,-3,-4,-5,-7,-7,-5,-4,-3
1558441803963309,-1,-3,-6,-4,-1,13,6,-2
1558441803963309,-2,1,8,7,6,-4,3,1
1558441803976276,0,1,-8,-10,-4,-5,-1,-1
1558441803976276,-4,-2,-5,-2,1,-1,-9,-2
1558441803982260,-1,-2,8,2,-4,1,-5,-4
1558441803982260,-1,-3,-5,-7,-3,2,-5,-3
1558441803998239,2,0,1,4,0,-5,2,3
1558441803998239,2,4,8,8,15,9,3,3
1558441804005198,-3,-2,-9,-5,-3,3,-4,-4
1558441804005198,-2,1,1,2,3,6,-3,-3
1558441804021385,-2,-3,1,-9,-12,-19,-8,-4
1558441804021385,1,-2,0,5,8,11,5,-1
1558441804023151,-2,-1,0,5,-1,0,-6,-2
1558441804023151,2,2,4,-4,2,0,5,1
1558441804044094,-4,-4,-16,-13,-5,0,-1,-4
1558441804044094,-3,-1,4,1,-2,-1,-2,-2
1558441804045090,1,1,0,0,1,0,-1,0
1558441804045090,-1,-1,3,-1,-8,-3,-4,-2
1558441804058057,-1,-2,0,7,0,-5,-9,-3
1558441804058057,-1,1,0,0,6,15,1,0
1558441804065039,1,0,3,-2,3,1,-1,1
1558441804065039,-3,-1,-2,-4,-10,-18,-7,-4
1558441804082080,2,3,5,11,18,18,17,6
1558441804082080,-4,-4,-12,-10,-8,-3,-7,-2
1558441804087980,0,3,8,14,9,-4,0,-2
1558441804087980,-3,-2,-12,-10,-4,5,-2,-2
1558441804094960,-3,-3,3,-2,-16,-8,-11,-7
1558441804094960,-2,-2,-7,-9,-6,-5,-2,-1
1558441804103933,2,1,0,4,12,8,6,5
1558441804103933,0,-1,5,6,10,2,2,0
1558441804118893,0,1,-7,-5,-7,-7,2,2
1558441804118893,0,-2,3,-2,-13,-15,-6,-2
1558441804124881,-1,-4,-11,-9,-11,-8,-5,-4
1558441804124881,-4,-4,-2,-1,-4,9,-10,-2
1558441804141832,-3,-3,5,1,-3,0,2,-2
1558441804141832,2,5,2,1,17,-4,11,7
1558441804142841,-4,-2,-2,1,-2,-7,-1,1
1558441804142841,1,2,4,4,18,17,14,3
1558441804154798,-1,-2,-3,-4,-9,-1,-10,-5
1558441804154798,-2,-4,1,2,-7,1,-11,-9
1558441804163773,-2,0,-2,-3,-2,1,0,-2
1558441804163773,-3,-2,-3,-1,3,-8,-8,-1
1558441804178734,-1,0,2,9,9,6,6,2
1558441804178734,0,-3,-1,-1,-1,7,1,-1
1558441804184718,-2,0,-1,-6,-2,-13,-8,-4
1558441804184718,0,-3,-3,-2,-8,-5,-6,-3
1558441804201673,-3,1,9,7,3,1,1,1
1558441804201673,0,2,2,0,-1,7,-4,-1
1558441804202671,-3,-7,-10,0,-7,-5,-3,-3
1558441804202671,0,1,1,-7,-1,-7,7,2
1558441804215634,1,0,-1,-2,7,-4,3,1
1558441804215634,1,0,-2,-4,-5,-8,1,2
1558441804223613,0,0,0,-8,-8,1,-8,-3
1558441804223613,2,-3,-2,1,-6,-1,-2,-1
1558441804238576,1,-2,1,5,10,14,-4,1
1558441804238576,0,-2,-2,-4,-7,-16,2,1
1558441804245559,2,5,10,-1,5,2,4,2
1558441804245559,-8,-9,-13,-8,-9,2,-10,-7
1558441804260515,-4,-3,-6,-3,-9,-8,-2,-5
1558441804260515,-1,-1,1,0,4,-6,1,0
1558441804267496,2,2,10,8,5,3,3,3
1558441804267496,0,1,-8,-5,-2,-3,3,4
1558441804275491,-2,-2,-6,-3,0,4,-4,-3
1558441804275491,-5,0,-2,1,-3,6,-6,-5
1558441804284450,0,-1,0,-4,-3,-15,-1,0
1558441804284450,0,1,5,-1,-1,-3,0,-5
1558441804298413,-1,-2,-5,1,-1,4,2,1
1558441804298413,4,0,-4,1,11,1,3,3
1558441804305404,-4,-3,-6,-8,-8,10,-5,-4
1558441804305404,1,1,8,10,2,-4,-12,0
1558441804321644,-2,-2,-7,-9,-5,-7,2,-1
1558441804321644,1,0,1,-7,-3,5,-7,-1
1558441804327338,2,1,-2,-1,-3,-2,0,0
1558441804327338,-1,1,0,-5,1,1,12,1
1558441804344291,-1,-3,-5,0,-1,-4,-5,0
1558441804344291,-3,-3,-2,5,-4,-3,-5,-2
1558441804345288,-3,-4,-6,-7,-5,-2,-3,-2
1558441804345288,0,-1,4,1,1,3,0,-1
1558441804358255,3,4,2,1,2,-2,-3,0
1558441804358255,-4,-4,5,0,-4,8,10,-1
1558441804365235,3,2,-6,0,5,0,1,1
1558441804365235,-1,-2,-2,-1,-2,-2,0,-2
1558441804381197,1,-2,-7,-6,-4,-3,-1,-1
1558441804381197,-1,0,9,7,7,7,6,0
1558441804388173,-4,-3,-7,-3,-1,-1,4,-1
1558441804388173,0,1,1,1,-10,-16,-8,-1
1558441804395155,-1,-1,0,2,4,0,3,2
1558441804395155,0,-1,4,3,4,5,4,1
1558441804404130,-3,-5,-8,-8,-10,-1,-6,-3
1558441804404130,-1,-1,9,8,8,7,9,1
1558441804418094,-2,-1,-1,-5,3,3,-6,-3
1558441804418094,0,-5,-12,-6,-10,-15,-4,-2
1558441804425076,0,0,1,0,1,-9,-5,-2
1558441804425076,-2,-3,-8,-4,-6,-7,-6,-2
1558441804441031,1,3,4,0,-6,-8,-4,-4
1558441804441031,0,2,3,6,8,9,0,2
1558441804448014,-1,-1,3,1,7,5,7,0
1558441804448014,-1,0,5,-3,0,2,-5,0
1558441804463976,-5,-3,-8,5,2,1,5,1
1558441804463976,-4,-3,-8,-8,-16,-12,-8,-4
1558441804465965,-1,-1,2,7,-3,0,-7,-6
1558441804465965,3,4,4,3,15,18,0,5
1558441804477935,1,0,1,-5,-4,-8,-3,-2
1558441804477935,2,2,4,10,6,9,2,1
1558441804484919,-2,-2,0,-4,-3,-4,2,-1
1558441804484919,-4,-2,-1,-3,0,2,-5,0
1558441804500874,0,-1,11,8,3,-7,-1,-1
1558441804500874,-3,-8,-25,-20,-13,-9,-11,-7
1558441804507853,1,2,5,4,5,2,2,2
1558441804507853,1,0,-6,-2,-1,4,4,0
1558441804523815,-1,1,-1,5,-1,3,-3,1
1558441804523815,-3,-2,5,-4,-4,0,-1,-3
1558441804525807,-5,-5,-4,-2,-5,-5,0,-2
1558441804525807,-2,-3,-7,-9,-9,-16,-8,-6
1558441804538773,1,1,-4,0,2,20,5,3
1558441804538773,-1,-2,0,1,1,-3,-5,-3
1558441804544755,0,0,-5,-7,-3,-2,-5,-2
1558441804544755,0,-1,8,9,-1,-4,1,0
1558441804560714,-1,-2,-9,-20,1,1,-1,-2
1558441804560714,-1,0,-2,1,-2,-11,-1,-1
1558441804567694,-1,0,1,1,-2,-8,-3,-1
1558441804567694,-2,-1,-4,1,-5,4,1,-3
1558441804583651,1,0,0,-1,-3,-2,-6,-2
1558441804583651,-1,2,1,1,2,5,1,2
1558441804585645,3,2,4,3,2,-8,4,2
1558441804585645,0,-2,-5,-7,2,8,14,0
1558441804598612,-3,-4,-1,5,0,0,3,0
1558441804598612,0,0,1,7,-5,-25,-4,1
1558441804605591,-4,-3,-6,-19,-9,0,-8,-2
1558441804605591,-2,0,-2,7,-8,-1,-7,-2
1558441804620551,1,-1,2,-2,1,2,-1,-1
1558441804620551,2,2,6,1,2,0,2,-2
1558441804627532,1,0,-4,5,4,9,3,3
1558441804627532,-1,-1,-1,-1,3,-4,8,4
1558441804644488,-2,-1,-7,-5,-8,-10,-10,-7
1558441804644488,1,1,7,2,6,9,-2,-1
1558441804645485,0,-4,-7,-2,-2,6,2,-2
1558441804645485,-3,-3,-4,-4,-9,-8,-7,-3
1558441804658450,1,2,8,7,0,-4,5,5
1558441804658450,-4,-1,0,2,5,2,-5,-2
1558441804665434,-5,-6,-6,-8,1,12,1,-4
1558441804665434,2,3,2,3,5,-10,0,0
1558441804680395,-4,-5,-2,-4,-5,-1,-8,-6
1558441804680395,-2,-1,0,-6,-2,3,-6,1
1558441804695351,-3,0,-2,1,-4,2,8,2
1558441804695351,-2,-4,0,-5,1,7,-4,-3
1558441804704327,-2,-2,-1,0,2,-2,-7,-1
1558441804704327,1,2,-1,-1,3,-2,7,2
1558441804705325,-1,1,1,3,-2,-4,-2,-2
1558441804705325,-1,-2,-9,-7,-7,0,-7,-6
1558441804718290,-4,-2,4,3,-3,3,-1,-4
1558441804718290,3,-2,-10,-18,-10,-8,-4,2
1558441804725275,-1,-2,0,-3,-1,-17,-6,1
1558441804725275,-4,-1,5,6,-3,-8,-9,-3
1558441804741231,1,3,1,-6,-3,4,0,1
1558441804741231,-3,-2,-4,4,-3,-7,2,-1
1558441804747281,-3,-2,1,-4,4,3,-4,-1
1558441804747281,-2,-4,-7,-2,-4,-6,-5,-1
1558441804764167,-2,-1,-1,-1,-4,5,-1,-4
1558441804764167,-1,-1,1,5,5,-1,6,2
1558441804765164,2,4,4,3,-3,-8,-7,-1
1558441804765164,0,0,0,1,5,9,7,3
1558441804778165,-2,-3,-3,2,7,2,-1,1
1558441804778165,-2,-1,-6,-1,1,-1,2,-1
1558441804785115,0,-3,-2,3,-1,4,-7,-2
1558441804785115,2,4,6,2,0,9,-1,0
1558441804801080,0,-2,-11,-4,-5,-4,-6,-2
1558441804801080,-2,-1,3,5,-1,-5,6,-4
1558441804808054,-1,0,-6,-2,6,11,7,2
1558441804808054,0,2,9,2,0,-8,-1,0
1558441804831985,1,2,-5,-5,-2,-8,1,-1
1558441804831985,-5,-4,-4,-6,-10,2,-8,-5
1558441804832982,0,0,2,-1,0,-3,0,0
1558441804832982,-1,-3,-6,1,-4,-7,2,-2
1558441804837972,-1,-2,0,1,1,0,0,-2
1558441804837972,0,-1,-1,-7,-2,4,-4,-2
1558441804844956,1,3,4,5,8,5,5,0
1558441804844956,-1,-2,2,-3,-5,2,-3,-2
1558441804860909,1,1,4,2,7,-1,4,4
1558441804860909,-2,-6,-12,-7,-5,-4,-5,-3
1558441804867889,-2,-4,2,3,-5,-2,-8,-4
1558441804867889,-1,-2,-4,-6,-6,-8,-10,-1
1558441804883846,0,1,8,8,10,18,12,0
1558441804883846,3,1,1,-3,-2,-3,1,1
1558441804885841,-1,0,5,5,3,-9,-1,-2
1558441804885841,-3,-3,-15,-11,-10,-3,-3,-3
1558441804898814,-1,-2,1,-2,-4,9,-3,-1
1558441804898814,1,-1,-6,-2,3,-4,0,1
1558441804904794,0,1,4,5,5,-1,7,3
1558441804904794,0,0,4,2,8,-5,0,2
1558441804920750,0,0,5,8,0,1,1,0
1558441804920750,-3,-2,-8,-6,-4,7,-3,-6
1558441804935707,-2,-3,-2,-2,-5,-1,-1,1
1558441804935707,-1,0,-6,0,-2,-8,-6,0
1558441804943688,-2,-3,-2,-14,-3,-8,-8,0
1558441804943688,0,-1,3,10,1,5,3,0
1558441804951669,1,-1,-7,-2,-3,-1,-3,-2
1558441804951669,-1,-2,-1,-7,12,21,6,0
1558441804957651,-5,-4,-4,-3,-12,-18,-11,-6
1558441804957651,-2,0,5,1,-1,10,0,-2
1558441804966626,-3,-2,-8,-5,-2,3,0,-2
1558441804966626,2,1,1,1,4,-11,4,2
1558441804980590,0,1,6,2,0,-19,0,0
1558441804980590,0,0,-3,-7,3,3,8,2
1558441804987570,-3,-4,-9,-1,-9,-1,-9,-6
1558441804987570,-3,0,5,-3,3,14,8,1
1558441805004525,-1,-3,-6,-3,-2,-4,1,0
1558441805004525,-1,3,3,7,0,-10,-10,-3
1558441805005523,-1,-3,-3,-16,-1,1,7,2
1558441805005523,2,1,-6,-2,-2,0,-3,-1
1558441805017491,0,-1,4,4,-2,0,-1,-2
1558441805017491,-2,-3,2,2,-4,-8,1,-2
1558441805026470,0,-1,-5,-2,-6,0,-4,-2
1558441805026470,-4,-2,-4,0,-3,-6,1,-3
1558441805040429,-4,-1,-6,-3,-6,8,0,1
1558441805040429,-2,0,-1,5,1,-2,-2,-2
1558441805047411,1,2,10,-2,4,-18,0,1
1558441805047411,1,-1,-4,-6,-4,-2,16,1
1558441805064368,-1,1,-6,-3,-5,-10,4,0
1558441805064368,2,1,7,8,7,3,-6,0
1558441805065362,-2,-6,-21,-19,-21,-2,-4,-2
1558441805065362,1,-2,9,8,9,4,-7,-2
1558441805086305,-2,-2,-9,-10,-3,-1,-1,-2
1558441805086305,-2,1,10,5,4,3,3,4
1558441805088301,-1,-3,-9,-2,3,-1,-3,-3
1558441805088301,-4,-3,0,-3,-11,-11,-14,-7
1558441805101267,-2,-2,0,2,-3,8,-2,-3
1558441805101267,1,-1,-5,-6,-3,-15,-2,1
1558441805107254,0,-1,4,8,8,11,-3,-2
1558441805107254,0,-3,-2,-6,-7,-9,-8,-1
1558441805124205,1,-2,-3,0,-4,3,-7,-3
1558441805124205,-2,-2,-4,-10,-3,-9,2,0
1558441805125216,0,3,7,6,0,-3,-2,1
1558441805125216,1,-1,-2,-2,-2,2,2,0
1558441805138166,1,1,2,5,10,4,6,1
1558441805138166,1,1,-1,-5,-3,5,-5,-5
1558441805147146,-6,-4,0,2,2,-2,-1,-2
1558441805147146,-3,1,-2,2,0,-1,-2,-2
1558441805161107,-2,0,4,-11,1,7,8,0
1558441805161107,-3,-4,-12,-7,-6,-1,-4,-4
1558441805168087,-1,2,10,5,5,-1,-3,-1
1558441805168087,-3,-3,-5,3,1,3,1,1
