timestamp,emg1,emg2,emg3,emg4,emg5,emg6,emg7,emg8
1558441729086659,-3,-3,-10,-8,-8,-8,-6,-3
1558441729086659,0,0,1,0,-1,-3,-3,-2
1558441729087655,1,1,2,-3,-3,-7,-7,0
1558441729087655,-9,-8,-12,-13,-11,-4,-6,-7
1558441729091645,1,-1,1,2,2,1,-3,-4
1558441729091645,-5,-3,1,-1,-7,-3,-6,-7
1558441729093640,-1,-1,2,2,2,1,8,4
1558441729093640,1,0,-5,-7,7,5,15,4
1558441729099624,0,-2,3,4,4,-6,-1,-1
1558441729099624,-4,0,0,-3,-7,-4,-5,-4
1558441729106605,0,-5,-8,2,-6,-6,-11,-6
1558441729106605,-1,1,-1,-2,-3,-1,-6,0
1558441729124557,1,5,3,4,8,11,9,2
1558441729124557,4,5,7,8,6,-4,9,6
1558441729127548,-4,0,-7,-11,-5,1,-11,-4
1558441729127548,-1,-1,1,6,-1,-2,-3,-2
1558441729142509,-2,-2,-1,3,2,5,-2,-1
1558441729142509,-1,-4,-4,-9,-7,1,-4,-1
1558441729151486,-1,-1,-4,-1,-3,0,-7,-3
1558441729151486,1,1,3,0,1,0,3,-1
1558441729159464,1,3,1,3,-2,-1,0,0
1558441729159464,-5,-3,0,1,-1,-3,3,-4
1558441729206338,-2,1,5,12,12,12,12,2
1558441729206338,0,0,4,0,0,1,0,1
1558441729206338,1,-2,-3,-1,-2,-2,0,2
1558441729206338,1,1,-1,3,5,3,-2,0
1558441729207335,-1,-2,-5,-16,-8,-10,-5,-1
1558441729207335,-2,-3,-4,-2,-4,-8,-14,-2
1558441729210327,3,2,2,6,3,7,10,2
1558441729210327,-5,-7,-5,-6,-5,-3,0,-1
1558441729219303,2,2,3,8,3,3,4,1
1558441729219303,1,1,-4,0,6,3,2,-3
1558441729225288,-1,-1,-3,-9,-8,-5,-10,-2
1558441729225288,-1,-1,-1,-5,-11,-10,-6,-4
1558441729232268,0,0,4,7,4,4,3,0
1558441729232268,-6,-7,-10,-6,-10,-5,-4,-6
1558441729247229,-2,1,-1,1,-2,-1,-1,-4
1558441729247229,1,1,1,1,5,2,1,1
1558441729256204,-4,-5,-8,-8,-8,-10,-9,-5
1558441729256204,-2,-3,3,3,-3,-3,-2,-3
1558441729263186,0,1,11,8,2,-1,-3,-1
1558441729263186,-3,-5,-15,-7,-9,-11,-7,-4
1558441729278146,1,-1,-9,-6,-2,3,2,0
1558441729278146,1,-1,-2,-1,8,5,9,4
1558441729285127,-1,-2,0,-2,-3,1,-1,-1
1558441729285127,0,-2,3,0,-4,-1,-1,0
1558441729293106,-3,1,7,3,-5,-6,-12,-4
1558441729293106,1,0,-10,-12,-5,0,5,-1
1558441729308066,-1,1,5,-3,0,-1,2,2
1558441729308066,-2,0,5,4,1,-3,1,-1
1558441729316045,0,1,3,0,2,1,1,2
1558441729316045,-1,-2,4,3,-1,-2,-8,-4
1558441729330006,-3,-5,-7,-1,1,4,0,-4
1558441729330006,-2,-1,1,8,-1,2,-4,-5
1558441729337988,-4,-5,-5,-11,-5,-4,-8,-6
1558441729337988,3,5,17,12,10,9,10,5
1558441729344967,0,-8,-19,-1,-1,-15,0,-2
1558441729344967,0,3,3,-12,3,10,12,1
1558441729352947,-4,-6,-9,-6,-9,-1,-4,-3
1558441729352947,-4,0,-8,-8,-7,2,-9,-1
1558441729367906,0,5,4,1,4,1,2,0
1558441729367906,-1,0,-2,-3,4,-1,-3,3
1558441729376881,1,0,-1,2,0,-11,-5,1
1558441729376881,1,-1,14,10,4,4,3,-1
1558441729383863,-6,-9,-20,-14,-10,-4,-4,-3
1558441729383863,-1,-2,-3,3,2,-3,-3,-2
1558441729398823,0,2,1,0,0,0,2,1
1558441729398823,-2,-4,-5,0,-4,-2,-5,-4
1558441729404807,1,3,3,-1,-4,2,1,1
1558441729404807,1,2,3,-1,6,5,7,-1
1558441729412785,2,2,11,15,7,8,0,0
1558441729412785,-4,-4,-8,-5,-6,-12,-7,1
1558441729427745,0,-2,-4,-9,-5,-6,2,4
1558441729427745,-1,-2,-6,-1,-3,4,-2,-3
1558441729435725,1,1,3,0,0,-2,3,1
1558441729435725,-1,-3,-9,-5,-3,-12,3,-3
1558441729442705,-1,0,0,-2,1,4,-5,-2
1558441729442705,-1,-3,6,9,-6,0,-4,-2
1558441729466642,-4,-4,-5,-2,0,7,4,-4
1558441729466642,0,2,-1,-7,2,1,4,1
1558441729467639,-1,-1,2,2,1,-6,-2,1
1558441729467639,0,-2,-4,-2,-7,-4,-2,-1
1558441729472625,0,-2,-5,-3,-3,-3,-6,-1
1558441729472625,-1,-2,-3,-4,-4,-3,1,-1
1558441729487587,1,1,6,4,-1,8,-6,-4
1558441729487587,-2,-1,5,3,-3,0,2,0
1558441729495564,0,-1,-8,-1,11,10,15,2
1558441729495564,2,0,-4,0,9,4,13,6
1558441729510525,-1,1,1,4,3,4,0,-1
1558441729510525,-2,-2,2,7,0,-11,-6,-1
1558441729518503,-1,1,1,-5,-7,-7,-10,-4
1558441729518503,-1,-2,-1,0,-9,-5,-8,-5
1558441729525483,-1,-2,-1,-4,-3,1,5,2
1558441729525483,1,1,1,-2,5,4,0,3
1558441729532465,1,0,11,6,7,2,1,4
1558441729532465,-2,1,-6,-4,2,0,-4,1
1558441729547424,-2,-4,5,4,-4,-3,1,-3
1558441729547424,-2,-1,-5,-12,-1,1,-2,-2
1558441729555404,0,1,-1,3,-4,-2,-4,-1
1558441729555404,-1,-1,0,-5,-8,-2,-10,-5
1558441729570364,1,1,0,4,7,5,5,1
1558441729570364,0,3,4,0,5,-6,3,0
1558441729578344,-5,-4,-2,-4,-4,-1,1,-2
1558441729578344,1,2,8,7,0,-2,-1,0
1558441729586325,0,2,-2,-1,-1,-8,-8,-4
1558441729586325,-3,-4,-11,-5,-4,4,-2,-2
1558441729592309,1,0,-5,-5,-7,-7,-3,0
1558441729592309,-3,-1,-3,-4,-3,1,-3,-3
1558441729609260,-1,-4,8,10,1,-3,-2,-1
1558441729609260,2,3,-3,-7,6,8,5,4
1558441729616243,-2,-3,-7,-5,-2,-7,-2,-3
1558441729616243,0,2,2,2,4,0,6,-1
1558441729630203,-3,0,-4,-7,-7,-6,-9,-4
1558441729630203,0,-1,-1,0,-5,2,-3,-3
1558441729638185,0,-2,6,5,-4,-6,0,-2
1558441729638185,-1,-2,-4,0,3,7,-3,-4
1558441729645164,0,1,15,-3,-4,-6,2,0
1558441729645164,-7,-10,-22,-19,-10,-15,-10,-4
1558441729653143,-1,-2,-7,-7,-1,5,6,-1
1558441729653143,-3,-3,-6,-1,-4,-4,-4,-1
1558441729668102,-3,-2,-2,1,1,-5,-1,1
1558441729668102,0,0,4,7,0,1,-17,-3
1558441729675084,-2,3,-1,-12,-5,-1,-1,-2
1558441729675084,0,1,7,9,9,0,5,2
1558441729690044,-2,-3,-9,-6,-5,-6,3,-3
1558441729690044,-3,-2,3,2,-2,2,-2,-3
1558441729698023,-2,-4,-9,-2,-6,-3,-11,-5
1558441729698023,0,0,-1,-4,-8,-1,-4,-2
1558441729705003,3,4,6,7,12,13,1,3
1558441729705003,-1,-4,-5,-13,-5,-4,12,1
1558441729712981,-3,-4,5,6,-2,-7,-4,-5
1558441729712981,-2,-2,-1,-4,3,6,18,3
1558441729727942,1,1,-5,2,8,2,2,0
1558441729727942,-1,2,5,0,-10,-6,-5,-3
1558441729734924,-4,-1,-6,-2,3,12,7,2
1558441729734924,-2,-2,5,-3,-6,-13,-7,-1
1558441729749883,-3,-5,-10,-3,-2,-7,-3,-2
1558441729749883,3,1,9,2,6,-4,5,3
1558441729758859,2,0,3,6,1,-6,-4,2
1558441729758859,-2,-1,-2,5,5,11,-2,1
1558441729764845,-1,-2,-8,-12,-12,-4,-5,-4
1558441729764845,-3,-5,-5,1,-4,-2,-4,-3
1558441729772823,2,1,6,0,0,4,4,4
1558441729772823,2,-1,-5,0,0,-7,-1,-2
1558441729787784,-2,-3,0,4,2,2,-3,-6
1558441729787784,1,2,-3,-3,0,-4,1,1
1558441729794763,-3,-5,0,1,0,-6,-15,-7
1558441729794763,2,1,-1,-2,1,9,10,0
1558441729809724,-2,0,-7,-8,-4,-1,0,1
1558441729809724,0,3,7,9,9,10,4,2
1558441729818701,-1,-1,-5,-7,-13,-13,-4,-4
1558441729818701,-6,-4,-2,-1,-5,-6,-1,-3
1558441729825681,0,-3,0,-10,-6,-3,-2,0
1558441729825681,-1,0,2,-1,-5,-10,6,-2
1558441729840650,3,2,0,0,4,9,7,4
1558441729840650,-4,-6,-5,-5,-5,-1,-10,-5
1558441729847622,-2,0,0,1,-3,2,-9,0
1558441729847622,1,-2,-4,1,-3,-7,1,4
1558441729855601,1,2,3,4,13,0,7,3
1558441729855601,2,2,-3,-11,-5,1,3,0
1558441729870562,-3,-2,3,4,2,2,2,-1
1558441729870562,-2,-4,-8,-4,1,9,-3,-2
1558441729878540,-2,-2,-3,-3,-8,-10,-10,-4
1558441729878540,-1,0,-1,1,2,2,6,1
1558441729885521,-2,-1,0,2,0,0,1,0
1558441729885521,-2,0,1,4,2,5,2,0
1558441729900481,0,0,1,0,-3,-8,-3,1
1558441729900481,2,5,4,5,9,6,-2,0
1558441729907463,-2,-3,-4,-4,-4,-5,-2,-2
1558441729907463,0,-1,6,7,5,10,1,-3
1558441729915441,-2,-3,-7,-5,0,-1,0,-2
1558441729915441,-2,-3,3,4,-6,-9,-11,-2
1558441729930402,0,-2,-5,-13,-4,-4,3,1
1558441729930402,-2,1,-4,-1,0,5,-7,-2
1558441729938380,1,1,3,5,3,-5,6,0
1558441729938380,0,1,1,-3,5,1,0,3
1558441729945362,0,-1,-4,2,3,10,4,1
1558441729945362,-2,-2,3,0,-2,-4,-2,0
1558441729961318,-3,-3,-12,-10,-8,-7,-4,-1
1558441729961318,0,0,-1,1,0,0,-3,-2
1558441729967303,-2,-1,5,2,3,1,-3,-2
1558441729967303,-2,-2,-1,-2,-6,0,-10,-5
1558441729975282,-2,-2,-1,0,-1,2,5,-1
1558441729975282,-2,0,6,7,2,-11,5,3
1558441729990241,2,2,9,0,0,-6,-4,0
1558441729990241,1,0,-9,-1,6,6,6,2
1558441729998220,-1,0,0,-6,3,14,-5,-2
1558441729998220,-4,-2,-4,-2,-8,-2,-8,-3
1558441730005203,-1,3,2,2,-1,-4,-5,-2
1558441730005203,-5,-3,-4,-7,-8,-4,3,-6
1558441730021160,3,3,3,3,2,-4,1,1
1558441730021160,0,-3,-4,2,1,-4,-7,-4
1558441730028140,0,0,7,7,1,6,-2,-3
1558441730028140,-1,-1,2,2,0,-3,5,0
1558441730035120,-7,-7,-12,-9,-7,-2,-8,-1
1558441730035120,-3,-2,0,-1,1,5,0,-1
1558441730050080,-2,-2,-8,0,-3,-14,-11,-3
1558441730050080,0,0,-3,-2,-2,-8,-6,0
1558441730058059,0,-2,1,1,-2,4,0,0
1558441730058059,1,1,-1,-4,1,3,2,1
1558441730065042,-4,-4,-3,0,0,0,2,0
1558441730065042,4,3,9,-2,-4,-2,-4,1
1558441730083300,-2,-2,-3,-1,0,3,2,-1
1558441730083300,-2,-3,-6,-7,-7,-4,-4,-3
1558441730087981,0,1,1,-5,3,4,9,2
1558441730087981,0,-2,-1,2,1,-1,-2,-2
1558441730094961,-2,0,1,0,-3,-6,-6,-4
1558441730094961,-4,-5,-3,-6,-13,-9,-8,-4
1558441730109921,1,0,-1,7,10,4,12,4
1558441730109921,2,4,4,-6,4,4,7,5
1558441730117901,3,4,6,-5,3,8,-1,1
1558441730117901,-9,-11,-18,-5,-6,-4,-7,-3
1558441730124882,-3,-3,-4,-3,-9,-10,-10,-5
1558441730124882,-2,-5,-5,-6,-7,-9,-13,-1
1558441730140839,4,5,5,11,6,-2,12,3
1558441730140839,1,4,6,-7,0,-4,5,3
1558441730147819,-5,-5,-12,-3,-6,3,-4,-2
1558441730147819,-1,1,1,5,3,4,2,1
1558441730154801,-3,-3,-3,-1,-7,-8,-10,-2
1558441730154801,1,0,-1,1,4,4,5,2
1558441730169761,-1,0,0,-3,0,3,0,-2
1558441730169761,-6,-4,-3,-2,-3,-4,5,-6
1558441730178738,1,1,-3,-5,-2,-2,0,-2
1558441730178738,0,2,3,14,8,3,1,-1
1558441730192703,2,1,0,-7,6,11,5,2
1558441730192703,0,1,7,9,-1,-8,-1,0
1558441730200679,-3,-6,-10,-14,-9,2,-6,-2
1558441730200679,-2,-3,-10,-7,-7,-9,-4,-1
1558441730215638,5,6,8,2,6,-8,5,6
1558441730215638,-3,-4,-10,1,-2,0,-2,-5
1558441730216635,-2,1,3,5,4,6,0,2
1558441730216635,1,0,4,0,1,3,-4,-1
1558441730230597,-1,0,-1,-4,-2,0,0,-2
1558441730230597,1,0,-3,-5,5,7,5,0
1558441730238577,-1,-1,-2,1,-2,-6,-10,-6
1558441730238577,-3,-1,0,-4,-7,-1,1,-7
1558441730252539,-2,-5,0,4,-7,-4,-10,-4
1558441730252539,-3,-1,-1,-8,2,0,12,0
1558441730260517,-3,-5,-3,2,-2,2,-1,-1
1558441730260517,-3,-4,0,-15,-5,4,-4,-1
1558441730275477,-1,2,0,9,3,-3,-1,0
1558441730275477,5,6,3,-3,3,-4,-5,0
1558441730276474,2,2,2,5,5,9,8,3
1558441730276474,2,1,1,1,0,-1,8,3
1558441730290438,0,0,0,-5,-5,-12,-9,-4
1558441730290438,-3,-5,-11,-5,-9,-5,-17,-4
1558441730298417,-1,1,6,5,1,1,8,2
1558441730298417,-1,1,-1,3,7,1,4,0
1558441730312379,0,0,3,1,1,6,3,1
1558441730312379,0,2,5,0,-2,-4,4,2
1558441730320359,-1,-3,-4,-4,-11,-7,-5,-5
1558441730320359,-2,-2,-2,-2,-5,2,-3,-4
1558441730336315,-3,-2,-4,6,7,7,2,-4
1558441730336315,0,-1,-4,-7,-5,-4,0,0
1558441730336315,-1,0,3,1,2,0,-7,-1
1558441730336315,1,0,2,0,-6,-6,2,1
1558441730350277,-2,-5,-14,-13,-11,-3,-4,-1
1558441730350277,2,-1,5,16,10,2,-2,1
1558441730358256,-2,-3,-1,-10,4,4,3,-2
1558441730358256,1,0,2,2,-2,-3,-1,0
1558441730381194,-5,-4,-5,1,-3,-10,-4,-3
1558441730381194,-2,-2,-3,-7,-9,-2,-3,0
1558441730382192,0,-1,-1,6,8,4,5,0
1558441730382192,-4,-4,-2,-1,-2,1,-2,-2
1558441730396154,2,-1,2,-9,-6,-1,-12,-2
1558441730396154,0,2,3,9,4,3,7,1
1558441730396154,-2,-6,-5,-13,-6,-4,-7,-6
1558441730396154,2,1,-5,-5,3,1,-5,-1
1558441730410119,2,1,1,2,7,4,4,3
1558441730410119,-4,-3,3,1,1,-3,1,-1
1558441730418282,-1,2,-6,5,-3,-3,-3,-1
1558441730418282,-6,-5,3,-5,-7,-6,-2,-7
1558441730433173,-1,-1,-5,-4,-1,7,2,-4
1558441730433173,1,-1,4,5,-1,-2,-8,0
1558441730441141,-2,1,-1,-3,-3,-3,4,3
1558441730441141,1,-3,-3,0,5,5,-1,-1
1558441730456002,-5,-3,2,0,-3,-2,-3,-3
1558441730456002,-3,-3,-7,-7,-6,-7,-3,-3
1558441730456994,1,3,1,2,-1,3,-5,1
1558441730456994,4,3,2,6,3,-8,4,7
1558441730469958,2,4,6,-10,3,-2,12,5
1558441730469958,-7,-6,-6,-4,-3,0,-2,-5
1558441730477936,-1,-5,-7,3,1,0,-9,-5
1558441730477936,-1,0,-11,-8,-7,0,-4,-3
1558441730492897,-2,-2,5,6,-4,-2,-1,-2
1558441730492897,2,0,0,0,-3,-3,2,1
1558441730500875,-1,0,2,1,1,-2,1,-1
1558441730500875,-4,-1,1,0,0,6,-3,-3
1558441730515837,-3,-1,-2,2,-2,-7,-7,-3
1558441730515837,-3,-3,-2,-2,0,1,-1,0
1558441730516833,-2,-2,2,-10,-5,-9,-1,0
1558441730516833,2,2,-2,-2,0,-1,-2,-1
1558441730529798,-1,-5,-10,-2,2,12,4,0
1558441730529798,-1,-1,2,-3,-4,-8,-9,-4
1558441730538773,-2,-2,-1,7,5,-1,4,0
1558441730538773,0,-2,2,-1,-3,-6,-4,-1
1558441730552735,-1,2,1,-7,-7,-2,-1,-2
1558441730552735,-2,-3,-3,-2,-5,0,-4,-4
1558441730560714,-1,-1,-5,-5,-1,1,10,0
1558441730560714,-2,-2,-4,2,-5,-10,-19,-3
1558441730575674,-1,-2,-2,-6,-6,-2,3,0
1558441730575674,-1,1,4,10,12,15,3,2
1558441730576672,-3,-1,-5,-13,-9,-8,-2,0
1558441730576672,-2,-3,-1,0,-4,-6,-6,-3
1558441730589637,1,0,0,5,1,0,-4,0
1558441730589637,5,2,2,2,5,3,4,5
1558441730598647,0,-1,1,-2,3,3,1,-1
1558441730598647,-3,-2,1,2,0,1,5,-1
1558441730612617,-3,-2,0,-1,-10,-10,-10,-6
1558441730612617,0,2,1,-5,-4,-2,-2,0
1558441730620556,2,-3,-3,7,7,10,4,1
1558441730620556,1,0,6,3,5,-5,-1,2
1558441730635516,-1,-4,-11,-14,-6,-8,-1,-4
1558441730635516,-1,0,-4,-7,-1,1,-5,-2
1558441730636512,-1,-3,-4,0,-5,-2,-10,-1
1558441730636512,-1,-1,3,2,-6,3,4,0
1558441730650476,0,-1,0,-2,0,-1,11,3
1558441730650476,3,3,-1,0,10,-1,4,2
1558441730658487,2,2,3,1,5,3,11,6
1558441730658487,2,1,-2,-3,1,4,-2,-3
1558441730672415,-3,-1,0,2,-6,2,-8,-4
1558441730672415,0,0,-3,-4,-4,1,1,-1
1558441730680394,1,2,7,4,-3,-1,-9,-3
1558441730680394,-3,-4,-7,2,4,-2,5,3
1558441730695354,-2,1,-3,-3,4,0,3,2
1558441730695354,-2,-3,1,-1,-5,-5,-7,-2
1558441730696351,0,0,0,0,2,1,3,1
1558441730696351,-2,-1,4,2,2,0,1,-1
1558441730710315,-1,-1,-5,-2,-2,3,-2,-1
1558441730710315,-1,-3,1,1,-8,-6,-1,-2
1558441730718294,-2,1,2,-9,-11,-5,-12,-4
1558441730718294,-2,-4,-8,-3,-2,-5,3,0
1558441730732257,1,4,4,10,15,8,6,5
1558441730732257,-3,-3,-4,-6,-6,-1,-1,-5
1558441730741248,1,0,3,-1,-2,1,4,-2
1558441730741248,-3,-2,-1,-2,-2,0,-4,-4
1558441730755193,-1,-1,3,2,-1,0,-5,-1
1558441730755193,0,-1,-3,-3,-4,0,-5,-3
1558441730763172,0,-1,-1,-1,-11,-10,-11,-2
1558441730763172,1,2,6,2,1,-3,13,2
1558441730770155,-1,-3,-10,-3,-2,-4,8,1
1558441730770155,0,0,4,14,11,-1,5,1
1558441730778133,-5,-4,-12,-14,-6,-8,-6,-2
1558441730778133,-1,-2,-3,0,-1,-4,-5,-1
1558441730793119,-1,-2,2,-2,-8,4,-9,-3
1558441730793119,1,0,-11,-15,-8,-7,1,1
1558441730801071,-2,-1,7,10,6,-4,10,0
1558441730801071,2,1,1,4,13,17,1,0
1558441730815069,0,1,2,-3,2,-2,-3,0
1558441730815069,-2,-4,2,-4,-8,-4,-6,-5
1558441730824073,-3,-5,-10,-6,-7,-1,-2,-1
1558441730824073,-3,-3,-6,-7,-6,-1,-4,0
1558441730829995,-1,-5,-3,2,0,-4,-2,-2
1558441730829995,0,1,-4,-2,-4,0,-6,-2
1558441730839153,-3,0,4,-2,-3,-7,-7,-6
1558441730839153,0,3,5,4,7,6,11,2
1558441730853291,-2,1,-2,-2,2,-4,-4,0
1558441730853291,-3,-5,-4,-2,-1,2,-1,0
1558441730861271,0,-2,-8,-1,-1,0,-6,-4
1558441730861271,0,2,4,-2,-2,-1,-4,-1
1558441730875957,0,-1,1,-4,-6,-3,-2,-2
1558441730875957,-1,-2,-3,3,2,-4,-5,-4
1558441730883321,-1,-1,-1,-8,0,5,-4,1
1558441730883321,2,5,9,5,9,-3,6,5
1558441730889835,-4,-3,2,5,0,-2,-8,-7
1558441730889835,-4,-6,-8,-10,-9,-1,11,-2
1558441730898812,1,-2,-2,2,4,4,2,1
1558441730898812,0,-4,-5,-12,-12,-9,-9,-4
1558441730912773,1,-2,5,10,6,5,-1,0
1558441730912773,2,5,4,11,11,-6,1,4
1558441730921778,-3,1,2,-11,-11,3,6,0
1558441730921778,-5,-5,-18,-8,-6,-3,-9,-4
1558441730944042,1,3,5,0,2,-5,2,-1
1558441730944042,-6,-7,-8,-1,-5,3,-7,-6
1558441730944688,0,2,2,6,3,-6,5,0
1558441730944688,0,0,0,-3,-1,-1,-4,-1
1558441730959648,-3,-3,-6,-7,-7,-1,-10,-3
1558441730959648,0,3,3,2,-3,0,-2,-1
1558441730959648,3,1,2,1,5,-5,6,3
1558441730959648,1,2,8,7,1,1,0,-5
1558441730973102,-5,-6,-6,-1,-3,-4,2,-3
1558441730973102,-1,2,2,-4,1,0,-4,1
1558441730996883,-1,-1,-5,4,6,7,1,-1
1558441730996883,0,-2,-1,-1,-4,1,6,0
1558441730998676,3,3,0,-1,5,11,9,2
1558441730998676,-4,-7,-2,-2,-11,-1,-1,-2
1558441731003866,3,2,1,-4,-3,-9,1,5
1558441731003866,-1,1,-3,3,8,4,1,1
1558441731019841,-3,0,2,3,-2,-2,-5,-1
1558441731019841,0,-2,-6,-4,-1,1,2,1
1558441731019841,-4,-1,1,5,1,4,-7,-4
1558441731019841,-1,-3,-2,-3,-7,-1,-5,-3
1558441731033467,3,0,-1,3,-1,-6,-12,0
1558441731033467,0,1,4,4,4,2,10,2
1558441731041591,2,1,2,-4,6,-7,-2,4
1558441731041591,-2,-2,-1,0,1,-4,5,0
1558441731055694,-4,-5,-8,-1,-2,0,4,0
1558441731055694,-1,2,4,5,5,7,-6,-2
1558441731064369,-2,-6,-5,-9,-10,0,-8,-6
1558441731064369,0,-3,-6,-7,-12,-6,-3,-3
1558441731078615,3,4,8,-6,2,-2,-5,2
1558441731078615,0,0,-5,4,4,-1,11,3
1558441731086341,-4,0,-2,1,1,-2,0,0
1558441731086341,0,-1,0,-3,-1,0,-11,-2
1558441731092324,-2,-2,-8,-8,-11,1,2,-2
1558441731092324,2,1,3,-1,8,4,1,0
1558441731101269,0,-1,1,3,-2,-3,1,-2
1558441731101269,-1,-2,0,-1,-3,-5,-2,0
1558441731115262,-1,1,3,7,0,-5,-1,0
1558441731115262,-1,-2,-9,-28,-12,-9,-6,-3
1558441731124209,-5,-4,-2,14,10,12,10,-1
1558441731124209,1,1,5,-6,-2,3,1,1
1558441731138693,-2,-6,-9,-1,5,-4,7,0
1558441731138693,1,2,5,4,3,2,-2,0
1558441731146209,-2,-6,-6,-4,-11,-9,-14,-5
1558441731146209,-2,-1,-1,0,1,1,-1,-1
1558441731153145,0,-1,4,0,-2,-4,-2,-2
1558441731153145,0,-1,-1,-6,-3,4,-4,-1
1558441731161110,-2,2,3,4,-5,-9,-1,1
1558441731161110,-1,-2,1,3,4,-2,0,2
1558441731175073,-3,-1,3,3,-2,-4,3,2
1558441731175073,-5,0,-6,-10,-5,-4,-7,-3
1558441731184047,-3,0,-2,-2,3,17,5,-1
1558441731184047,0,-1,0,-1,-2,-4,-2,-1
1558441731198011,-2,-4,-2,1,2,3,-2,-4
1558441731198011,-1,-3,0,2,-5,-3,-8,-2
1558441731206986,-2,0,5,4,2,-5,3,0
1558441731206986,0,-2,-8,-2,0,0,3,-1
1558441731212971,1,-1,-3,-8,0,6,1,1
1558441731212971,1,-2,-2,5,5,0,9,-1
1558441731221948,-1,-2,-10,-2,-10,-12,-9,-4
1558441731221948,-4,-3,0,-6,-1,3,-6,-3
1558441731234910,-1,1,3,8,-2,4,0,-1
1558441731234910,-2,1,3,1,-11,-9,-2,-1
1558441731243886,0,0,-2,-11,0,-2,0,-1
1558441731243886,0,0,5,9,5,-1,5,-1
1558441731257850,-2,-2,-2,-8,2,1,-2,-1
1558441731257850,-1,-2,1,2,1,1,0,0
1558441731266826,1,-2,1,8,9,7,-4,-3
1558441731266826,-2,1,-2,3,-8,-5,-11,-2
1558441731272810,0,1,-3,-17,-4,-3,3,1
1558441731272810,1,-1,1,8,6,2,2,3
1558441731281786,0,-3,-3,-6,-2,-2,9,4
1558441731281786,0,1,1,-5,-4,0,-5,-2
1558441731294752,-3,-3,-6,3,-1,-5,-7,-5
1558441731294752,0,-1,1,0,-3,4,3,-2
1558441731304223,1,0,3,1,-3,-7,-7,0
1558441731304223,-2,-1,-7,-7,-2,-2,5,0
1558441731317701,-3,0,0,2,-5,2,-1,-4
1558441731317701,-1,-4,-3,-4,-3,-4,-5,-2
1558441731326668,0,-2,-4,-7,2,-2,5,2
1558441731326668,1,2,11,16,4,1,5,0
1558441731332685,-4,-3,-4,-12,-4,0,-6,-1
1558441731332685,-1,-1,-2,-1,-4,-3,-6,-2
1558441731341665,-1,0,0,2,-6,4,-3,-4
1558441731341665,-2,-3,-8,-5,-2,-6,-3,-2
1558441731355962,0,2,4,3,4,4,4,2
1558441731355962,0,-2,-7,-1,2,-6,-3,-2
1558441731364891,1,1,3,2,1,6,0,1
1558441731364891,1,1,-1,-2,3,-3,8,2
1558441731378529,1,0,-3,-1,-2,-1,1,0
1558441731378529,1,1,8,7,6,3,8,0
1558441731386912,0,-1,-7,-3,-3,2,-7,-4
1558441731386912,-3,-5,-9,-12,-4,10,-6,-3
1558441731393251,-2,-3,2,2,-6,-3,-2,-4
1558441731393251,-2,-2,-2,-5,-1,-8,-1,0
1558441731409147,0,-2,-1,-1,0,-7,-2,1
1558441731409147,-2,-1,0,-11,-8,-5,0,0
1558441731415945,-4,-3,5,13,0,-6,-3,-1
1558441731415945,-3,-2,-4,-6,-1,7,-7,-4
1558441731423915,2,1,0,1,-2,-4,3,3
1558441731423915,-1,-1,-1,-2,5,2,-6,-3
1558441731438157,1,-4,-6,-6,-10,-4,-1,-1
1558441731438157,3,7,15,7,5,4,1,-2
1558441731446860,-2,-3,-13,-8,-3,-5,2,-5
1558441731446860,1,-1,1,7,5,4,1,-1
1558441731452842,-2,-2,-3,-12,-10,-6,-12,-7
1558441731452842,-2,-5,-9,-2,-2,2,2,0
1558441731467803,-1,1,3,2,-1,1,-4,-1
1558441731467803,-3,0,-1,1,0,-1,4,-1
1558441731474784,-1,1,-2,4,5,3,-2,-1
1558441731474784,-1,-2,4,-1,-3,-7,-7,-4
1558441731483759,-5,-2,-5,-6,-5,-2,-2,-4
1558441731483759,-3,-5,-8,-1,-4,-8,-4,-2
1558441731498011,1,0,8,7,6,1,5,2
1558441731498011,-1,-2,-2,-2,7,4,1,4
1558441731514757,1,-2,4,-4,-5,-3,-3,-1
1558441731514757,-1,0,-2,-1,-6,-8,-7,-1
1558441731515675,2,3,10,10,10,5,9,-1
1558441731515675,-4,-3,-11,-16,-9,-7,-3,-5
1558441731521657,-4,-1,2,6,-2,0,-2,-4
1558441731521657,0,0,5,1,9,3,1,3
1558441731535620,0,2,-7,-3,-4,-1,4,3
1558441731535620,-4,-5,-11,-3,-9,-8,-3,-1
1558441731543605,-2,-3,1,0,-5,1,-6,-4
1558441731543605,-3,-1,-3,-2,-7,-12,-2,-1
1558441731557564,0,0,4,4,6,1,1,2
1558441731557564,-1,-1,-4,-3,-5,0,-8,-5
1558441731566538,1,1,2,0,6,5,5,1
1558441731566538,1,0,-3,1,3,-3,4,2
1558441731572579,1,-4,-7,-5,-2,3,1,-3
1558441731572579,-1,1,4,-4,-2,-1,1,-2
1558441731581803,-2,-3,3,0,4,6,-1,-1
1558441731581803,1,1,-5,2,-4,-8,1,3
1558441731595459,-4,0,3,-8,-3,-8,2,-3
1558441731595459,1,2,-2,3,-3,0,-2,0
1558441731604439,1,1,0,4,0,0,-3,1
1558441731604439,0,-1,1,-11,-7,-2,1,1
1558441731617413,-2,-3,-9,-7,0,-6,-3,-2
1558441731617413,0,-1,7,16,7,1,1,3
1558441731626422,-2,-3,-5,-20,-7,-4,-3,-2
1558441731626422,-2,-1,0,5,-2,10,-6,-5
1558441731633531,0,0,-5,-1,3,-1,1,1
1558441731633531,1,1,4,1,4,-5,0,2
1558441731641689,0,-1,-1,3,-1,-1,-1,-3
1558441731641689,-3,-5,-4,-6,-5,-2,-7,-4
1558441731655650,0,1,-1,-2,-3,3,6,0
1558441731655650,-1,1,5,7,0,1,-1,0
1558441731664275,-4,-3,0,5,12,6,11,2
1558441731664275,-3,-4,-9,-15,-14,-8,-8,-5
1558441731678498,2,0,3,5,1,2,-1,3
1558441731678498,-2,-3,-6,-13,-6,-3,-6,-3
1558441731693490,0,-1,-4,2,-4,-1,-1,-1
1558441731693490,-1,0,5,12,8,1,2,-1
1558441731694200,1,1,-1,-2,-1,-5,-4,0
1558441731694200,1,1,1,-1,0,-2,2,1
1558441731709157,1,-1,-1,3,3,1,-4,0
1558441731709157,2,3,1,-4,5,5,8,3
1558441731715434,-3,-6,-5,4,1,4,-10,-4
1558441731715434,0,-1,-2,-1,0,3,14,1
1558441731724117,0,1,2,1,-6,-13,-7,-4
1558441731724117,-3,-4,-3,-1,-4,-6,-5,-3
1558441731738345,-1,0,-1,-4,-2,-1,-1,-2
1558441731738345,-4,-4,-7,-5,0,6,-3,-4
1558441731747056,-1,-1,5,6,1,0,0,0
1558441731747056,-1,-2,-6,-9,1,6,3,-3
1558441731753052,-2,1,3,-1,0,-7,1,0
1558441731753052,0,0,-5,-6,-1,3,0,0
1558441731762016,1,1,4,0,-3,-2,0,1
1558441731762016,-2,-2,3,7,-1,1,1,-2
1558441731775010,-2,-2,-7,-2,3,8,3,0
1558441731775010,-1,-1,5,1,2,-4,-3,0
1558441731783956,-1,0,-1,-2,0,4,-2,3
1558441731783956,-1,0,10,14,3,-5,0,-1
1558441731815195,-2,-6,-20,-29,-7,-8,-6,0
1558441731815195,-2,0,1,10,-2,-6,-3,-3
1558441731815871,-1,-2,-2,-2,1,3,3,0
1558441731815871,0,0,2,1,-1,8,-1,-1
1558441731816871,-3,0,4,7,-1,-4,-3,-4
1558441731816871,0,-1,0,-4,-6,-9,-1,0
1558441731821855,0,-2,-7,-6,-2,-6,-1,-1
1558441731821855,-3,-2,-1,-4,-3,5,2,-3
1558441731835866,-2,-1,0,7,1,-1,-4,-3
1558441731835866,1,2,1,-2,4,1,5,3
1558441731844044,-2,0,-2,3,-3,-4,-3,-3
1558441731844044,-1,-1,-4,-1,4,10,-2,1
1558441731858031,1,0,7,1,-6,-1,-9,-3
1558441731858031,-1,-3,-6,-10,-3,-4,-2,0
1558441731866736,-1,-1,5,9,7,5,-3,-1
1558441731866736,2,1,-4,-7,5,0,6,4
1558441731881976,1,0,5,5,-5,-4,-3,-3
1558441731881976,-1,-3,-4,-1,1,3,1,-3
1558441731882694,-1,-4,-6,-9,-10,-5,-6,-4
1558441731882694,-3,-2,-9,-4,0,2,-7,1
1558441731895919,-1,-3,3,6,2,7,4,-1
1558441731895919,2,1,-1,-4,3,2,1,3
1558441731903901,-4,-1,-1,-1,-7,-19,-10,-6
1558441731903901,4,5,4,-1,-4,-5,-7,-4
1558441731917602,-3,1,-2,0,-5,-5,3,0
1558441731917602,-3,-2,-1,5,12,20,-2,0
1558441731926680,-3,-3,-5,-15,-2,5,3,1
1558441731926680,-1,-1,2,4,0,-4,2,-1
1558441731941777,-2,-4,1,-3,-5,-7,-6,-2
1558441731941777,-1,-3,3,6,1,3,-1,-5
1558441731943530,2,-1,-8,-6,1,-4,3,1
1558441731943530,-3,-3,1,6,4,2,0,-2
1558441731955759,-1,0,-7,-7,-2,1,1,-1
1558441731955759,-2,1,3,6,-1,-9,0,-1
1558441731964475,0,1,0,-4,-6,-5,0,0
1558441731964475,-7,-5,-1,-3,-6,1,-5,-6
1558441731977441,-2,-4,-2,-2,-2,-4,2,0
1558441731977441,0,-4,-14,-10,-11,-10,0,1
1558441731994406,1,-1,4,-2,1,-8,-5,-2
1558441731994406,2,1,-4,-4,-4,-8,-1,1
1558441732001375,-1,2,7,3,5,10,-1,0
1558441732001375,0,-1,2,1,-5,3,-2,-1
1558441732003370,-1,0,3,1,4,4,6,0
1558441732003370,0,-2,-11,-2,-4,-7,0,0
1558441732024747,0,-1,-4,-7,-4,-5,-4,-4
1558441732024747,-2,-2,-2,2,0,2,4,-1
1558441732025310,-2,1,5,9,4,11,0,-1
1558441732025310,2,1,-2,-15,-6,-14,0,2
1558441732038627,-1,0,-3,-3,-4,0,-9,-2
1558441732038627,-4,-4,-1,-4,-2,-1,-2,-1
1558441732046686,-3,-2,1,4,2,4,-1,2
1558441732046686,-1,-4,-8,4,6,12,3,-1
1558441732062386,1,2,4,3,0,-2,2,1
1558441732062386,-3,2,0,-4,-7,-8,-6,-3
1558441732063209,-3,-1,-2,-2,-3,-1,-1,-2
1558441732063209,1,0,5,4,1,1,2,1
1558441732075473,-1,-1,-7,-5,2,-1,5,3
1558441732075473,-2,-2,4,2,-2,-2,-3,-3
1558441732084154,0,0,-5,3,1,6,2,-1
1558441732084154,-2,-1,3,-9,-4,-11,-8,-3
1558441732098388,-3,-2,2,4,-4,-3,1,0
1558441732098388,-2,1,-7,-7,-5,-8,-4,-3
1558441732106387,0,0,-8,-7,1,4,1,1
1558441732106387,-3,-1,20,15,5,3,3,-1
1558441732129271,0,-1,-6,-7,-4,-5,-2,-2
1558441732129271,-2,-1,-3,-3,-5,-7,-11,-2
1558441732131028,-1,-1,-4,-7,-7,2,0,0
1558441732131028,-2,0,-1,3,1,0,-4,0
1558441732135021,1,3,5,5,8,3,5,3
1558441732135021,0,-3,-9,-14,-3,-3,-7,-4
1558441732144123,0,-2,4,3,-3,-7,-1,-5
1558441732144123,-2,-2,-11,-8,-5,7,-2,-2
1558441732157956,0,0,1,2,4,-10,1,0
1558441732157956,0,2,2,5,2,3,-1,2
1558441732166931,0,1,6,3,2,5,4,1
1558441732166931,-2,-4,-5,-6,-6,-8,-7,0
1558441732181891,-2,-2,-4,1,0,4,-1,-1
1558441732181891,3,2,6,4,4,0,7,4
1558441732182888,0,-3,-6,-5,-4,-5,-5,-2
1558441732182888,-3,2,4,3,5,5,4,-1
1558441732195853,-2,-2,1,8,2,2,-4,-3
1558441732195853,-2,-3,-5,-17,-8,-3,0,-3
1558441732203832,-2,-3,-5,-4,5,8,4,0
1558441732203832,0,-2,-3,-2,-9,-8,-11,-3
1558441732217798,-1,-2,-2,-2,-5,-3,-5,-2
1558441732217798,0,-2,1,1,2,1,2,2
1558441732226772,-1,-2,0,0,3,-10,1,2
1558441732226772,2,2,-5,-5,-4,1,0,0
1558441732240842,-3,-1,1,-2,3,3,2,-3
1558441732240842,0,2,2,4,0,4,6,-1
1558441732248964,-2,0,-1,-1,-6,-4,0,-1
1558441732248964,-1,-3,0,0,-1,-7,9,0
1558441732255822,-1,-3,-3,-6,-9,-6,-7,-6
1558441732255822,1,-2,-1,1,1,-1,0,-2
1558441732264751,-6,-2,2,7,2,3,-3,-2
1558441732264751,-1,-1,-4,-10,-1,-1,-1,-1
1558441732277980,0,1,2,-4,3,3,1,1
1558441732277980,-2,-1,-6,-2,1,0,2,-1
1558441732286612,-1,-1,2,1,-9,-6,-10,-4
1558441732286612,-2,0,-3,-2,-2,2,0,0
1558441732301598,2,0,4,-1,2,-6,1,1
1558441732301598,-2,-3,-5,2,0,-4,-3,-2
1558441732302596,0,0,-2,-5,-5,-8,-2,-1
1558441732302596,-1,0,-3,0,2,7,0,-2
1558441732315571,0,-1,6,6,1,5,0,-1
1558441732315571,-1,1,2,4,-4,-5,-1,-1
1558441732323512,-4,-3,-1,-13,-2,-7,-5,-2
1558441732323512,0,-1,3,6,1,4,3,-1
1558441732337474,-5,-6,-16,-16,-13,-11,-7,-4
1558441732337474,1,-1,3,10,4,6,0,1
1558441732346592,-2,-2,-6,-1,1,-4,2,-2
1558441732346592,-4,-2,3,2,4,-1,-4,-3
1558441732361911,-3,-2,-6,-7,-8,2,-6,-1
1558441732361911,0,-1,0,4,3,0,6,2
1558441732363406,1,2,7,11,5,1,4,3
1558441732363406,-5,-7,-9,-20,-18,-17,-10,-6
1558441732375431,0,1,-5,3,-1,-11,-2,0
1558441732375431,-3,0,1,-3,-2,3,-4,-2
1558441732384350,1,-1,-4,3,3,9,1,-2
1558441732384350,2,1,5,4,7,2,1,2
1558441732397315,0,-1,-5,-3,-7,-2,-7,-2
1558441732397315,0,-1,2,-2,5,6,4,2
1558441732406767,-1,-3,-6,-6,-1,3,3,-1
1558441732406767,1,2,6,10,6,-1,0,0
1558441732421718,-2,-3,-1,-1,2,3,4,-2
1558441732421718,-1,0,-1,-2,0,-3,-8,-4
1558441732423245,-3,-3,-8,-8,-9,1,0,-1
1558441732423245,-2,0,6,3,0,-2,2,0
1558441732435226,-1,2,2,3,4,-4,2,-1
1558441732435226,-1,-3,-7,0,-7,-11,-8,-2
1558441732444191,-3,-2,-4,-1,-2,-5,-1,-1
1558441732444191,0,0,2,1,0,6,-2,0
1558441732458413,0,1,4,2,6,5,4,0
1558441732458413,-3,-2,-10,-9,-10,-14,-18,-6
1558441732466497,1,-2,5,3,1,1,2,0
1558441732466497,-5,-8,-14,2,3,6,-1,0
1558441732482364,2,-2,-3,-6,-5,-1,0,1
1558441732482364,0,2,7,5,11,6,0,4
1558441732483089,3,2,7,1,-2,-1,-1,1
1558441732483089,-1,-3,-7,-1,-7,-10,-6,-4
1558441732495374,-4,-3,3,2,1,7,2,-1
1558441732495374,-2,-1,-3,-8,-5,-3,5,0
1558441732504133,2,0,0,5,6,-4,-3,-1
1558441732504133,0,3,2,-3,-3,-1,4,3
1558441732527237,1,0,-1,-6,-3,-2,-4,0
1558441732527237,-2,0,5,3,2,4,1,0
1558441732527970,0,2,1,1,3,2,-3,0
1558441732527970,0,-2,-6,-1,-3,-3,0,-3
1558441732541927,-2,-2,-1,-4,-3,1,-2,-4
1558441732541927,-1,-2,-1,-5,3,2,4,-2
1558441732542926,-3,-3,1,1,-1,-10,-10,-3
1558441732542926,-3,0,-3,-11,-4,7,6,3
1558441732555924,0,2,1,3,3,-17,2,3
1558441732555924,1,1,0,8,2,0,-3,-3
1558441732564132,-3,-5,-13,-20,-12,2,-6,-2
1558441732564132,3,3,3,3,4,4,1,0
1558441732577862,-4,-2,-2,1,-6,-1,-4,-6
1558441732577862,-2,-2,-2,-4,-4,2,0,0
1558441732586809,-1,-3,7,7,3,-4,-5,-3
1558441732586809,1,1,5,7,3,-4,-1,2
1558441732609008,-1,-7,-13,-5,-2,-4,1,-2
1558441732609008,-4,1,0,-4,-1,-3,-2,-2
1558441732610744,-3,-4,-2,2,-4,-2,-3,-1
1558441732610744,0,2,2,-9,0,-4,0,0
1558441732614736,-1,-2,-4,1,-7,-3,-3,1
1558441732614736,1,0,2,-5,-8,0,3,3
1558441732624052,1,-1,1,6,6,7,6,1
1558441732624052,-2,-3,-8,-5,0,2,-4,-2
1558441732638016,-2,-2,-7,-6,2,6,-5,-1
1558441732638016,-2,-3,-4,-11,-6,-3,2,-3
1558441732646647,-3,0,6,3,1,1,2,0
1558441732646647,0,1,-3,-2,2,-12,-1,-1
1558441732661951,-5,-3,2,5,0,-4,0,-1
1558441732661951,-1,-4,-2,3,-3,-1,-10,-4
1558441732667593,-2,-1,-6,-8,0,3,3,-1
1558441732667593,0,-1,-5,10,-1,-3,-1,-4
1558441732675874,2,2,4,-1,-2,0,-1,0
1558441732675874,1,-1,1,-1,-4,-11,-3,0
1558441732683552,1,0,-2,-3,-9,-5,1,0
1558441732683552,-3,-2,-4,4,5,5,4,0
1558441732697854,-2,-2,-2,-7,-5,-7,-1,3
1558441732697854,-4,-2,0,9,1,1,-4,-2
1558441732706490,3,1,-2,1,4,0,3,2
1558441732706490,-2,-2,1,-5,-3,-3,-5,-4
1558441732721534,0,1,2,5,6,8,0,-1
1558441732721534,2,3,-3,1,5,9,11,3
1558441732728429,-2,0,-3,-9,-6,-11,-4,-4
1558441732728429,-2,-1,0,-8,-15,-6,-6,-5
1558441732744650,0,-1,0,-2,0,-2,10,2
1558441732744650,-1,-4,-2,-3,0,-1,-3,0
1558441732745390,-1,1,-6,3,1,7,-3,-1
1558441732745390,1,-2,5,4,-1,-5,5,1
1558441732757608,0,-2,1,-1,0,1,-2,-2
1558441732757608,-1,0,1,1,-1,2,1,-4
1558441732766520,-3,-5,-9,0,1,-2,-3,-2
1558441732766520,2,4,8,-3,5,8,2,5
1558441732781550,-2,-4,-8,1,-3,-3,-13,-1
1558441732781550,-1,-2,2,4,0,0,12,0
1558441732788270,-2,4,4,3,-4,0,-10,-4
1558441732788270,-4,-3,-5,-8,-4,-1,-6,-3
1558441732795254,-1,2,5,7,9,5,0,-1
1558441732795254,-2,0,3,0,-6,-7,-3,0
1558441732804232,-3,-7,-8,-9,-4,5,4,0
1558441732804232,3,4,5,5,2,5,-5,0
1558441732817192,1,-2,-5,-12,1,-2,19,3
1558441732817192,-3,-4,3,8,-1,-8,-7,-4
1558441732826168,0,1,-3,-4,2,-5,0,1
1558441732826168,-3,-3,1,8,6,4,-4,0
1558441732841496,-1,1,2,2,-7,-2,-8,-4
1558441732841496,2,2,-1,-11,-4,6,2,1
1558441732848483,-4,-4,-5,-7,-7,-9,-4,-4
1558441732848483,1,2,4,7,9,5,9,2
1558441732864438,-2,-4,-2,3,-4,-4,-11,-2
1558441732864438,0,1,3,1,9,13,5,1
1558441732866155,-2,0,4,-6,-10,-6,-4,-4
1558441732866155,-3,-2,-16,-7,-3,-4,3,3
1558441732878392,3,2,4,4,2,3,0,-1
1558441732878392,-2,-3,-6,-4,-3,-1,8,-3
1558441732887009,1,-1,3,1,-8,-5,-7,-1
1558441732887009,0,-3,-2,1,0,-5,4,-2
1558441732900971,-1,2,1,-5,2,4,5,0
1558441732900971,-3,-1,-2,4,5,-4,-10,-2
1558441732907949,-1,1,1,-1,2,11,10,1
1558441732907949,-5,-7,-7,-10,-7,-5,-7,-3
1558441732924228,-3,2,3,5,-1,-7,-5,-2
1558441732924228,0,-1,2,-9,-1,4,-1,-2
1558441732932132,-2,-5,-6,-1,3,0,-2,1
1558441732932132,0,1,1,-2,-3,-7,-1,2
1558441732938163,-2,-2,-4,-4,-6,-6,-6,-5
1558441732938163,2,-1,1,1,5,8,8,5
1558441732946846,1,0,-2,4,-1,-2,-2,-2
1558441732946846,0,-1,0,-1,-1,0,-6,-2
1558441732961119,-1,-4,0,-3,-4,-7,-1,-4
1558441732961119,1,1,-9,0,-3,-9,-1,-1
1558441732967791,-1,0,5,2,1,0,-6,-3
1558441732967791,-2,-2,-1,-2,-4,-1,2,-2
1558441732983748,-1,-1,0,-1,6,8,-2,0
1558441732983748,0,0,0,5,-1,-9,-7,1
1558441732985742,2,4,1,0,-2,-8,1,0
1558441732985742,-4,-3,-1,-10,-14,-12,-9,-5
1558441732998024,0,-3,-5,1,3,7,4,2
1558441732998024,-7,-6,-2,-2,-4,-3,0,-9
1558441733006685,1,1,0,5,6,2,5,1
1558441733006685,1,1,-3,-15,-7,-10,-4,-2
1558441733021077,-3,-6,-3,-2,0,6,-5,-6
1558441733021077,-1,-2,1,5,7,10,9,5
1558441733028153,-2,-1,-11,-7,-1,-2,-2,0
1558441733028153,-1,-1,5,10,1,5,-2,-3
1558441733044887,-1,0,-2,-5,-3,-3,-5,-1
1558441733044887,1,1,1,-4,-8,-10,-12,-4
1558441733045581,-1,-3,-2,-1,-6,-5,-4,-5
1558441733045581,3,2,-1,5,13,8,9,6
1558441733057658,-3,-3,-9,-1,-1,-6,1,-2
1558441733057658,-2,-2,0,0,-8,0,-7,-3
1558441733066555,-2,0,-2,-7,-1,0,2,-1
1558441733066555,-3,-2,0,1,-5,-11,-1,-3
1558441733081537,1,1,2,0,1,5,2,2
1558441733081537,3,3,9,2,-1,-7,-13,0
1558441733087794,-2,-4,-8,2,-1,-1,5,1
1558441733087794,2,0,-3,-7,0,12,5,3
1558441733104764,0,0,5,0,-3,-6,-3,1
1558441733104764,0,-1,-4,1,-4,-16,0,0
1558441733105423,1,4,9,2,6,8,-1,1
1558441733105423,-5,-7,-11,-1,-6,-6,-5,-5
1558441733117392,-2,0,-1,-2,-6,-2,-3,1
1558441733117392,-1,-2,-4,-6,-1,2,0,-2
1558441733126630,-4,-3,-1,-4,-4,-2,2,-3
1558441733126630,-1,2,2,-3,1,3,0,-1
1558441733141552,2,4,11,9,5,-1,5,2
1558441733141552,-3,-7,-11,-9,-5,2,-4,-4
1558441733148389,-2,-2,0,-5,-3,-11,-9,-2
1558441733148389,0,-1,-6,6,5,12,4,1
1558441733164528,4,3,2,-3,6,-1,5,3
1558441733164528,2,0,1,3,2,5,4,2
1558441733165266,1,0,3,2,-4,2,-1,0
1558441733165266,-1,-2,3,-7,-4,-2,-8,-5
1558441733178364,-2,-2,-4,-1,-1,1,0,2
1558441733178364,-3,-2,2,6,7,8,2,0
1558441733186232,0,2,1,-6,-3,-5,-4,0
1558441733186232,-1,-2,-5,-1,-3,-2,-5,-2
1558441733201164,0,-1,-1,-1,-7,-8,-4,-3
1558441733201164,-1,-1,1,-3,3,1,0,0
1558441733208272,-2,-2,3,6,-3,-4,-2,-1
1558441733208272,2,1,2,-1,3,-1,-5,-3
1558441733224102,2,1,-2,-3,3,5,4,0
1558441733224102,-1,1,1,1,-4,-3,0,0
1558441733225101,-1,-3,-7,0,-3,-8,-12,-4
1558441733225101,2,0,5,5,4,3,4,2
1558441733238521,-1,1,4,4,6,12,6,0
1558441733238521,-5,-7,-12,-6,0,-4,-5,-6
1558441733246523,1,2,0,-3,-3,-3,6,2
1558441733246523,-3,-3,-3,1,-5,-2,-2,-3
1558441733261477,-3,-3,-4,-2,-4,5,-9,-4
1558441733261477,2,6,8,7,10,6,6,2
1558441733267986,-3,-4,-6,-7,-8,-8,-4,-2
1558441733267986,-3,1,2,4,5,4,1,-2
1558441733283943,-2,-3,-3,-1,2,2,0,0
1558441733283943,1,0,-5,-9,-7,-6,-2,-1
1558441733284940,-1,1,3,3,2,1,-2,-3
1558441733284940,-1,-3,-5,-4,-6,-9,-2,0
1558441733298283,-6,-9,-7,-2,-7,-6,-3,-5
1558441733298283,-2,1,-4,-5,-2,6,-1,-1
1558441733306882,0,-1,-4,-3,-3,-5,1,-2
1558441733306882,0,1,9,9,1,1,-3,0
1558441733321174,-1,-1,-5,-6,-6,-12,-4,0
1558441733321174,0,-2,5,-1,1,-2,1,1
1558441733329130,-1,-1,4,-5,-3,0,1,1
1558441733329130,-2,-2,-9,-4,4,1,3,0
1558441733343782,-2,-2,-7,-9,-5,-5,-9,-2
1558441733343782,-1,-1,3,6,-2,-5,8,-1
1558441733345779,-2,-2,8,11,9,8,3,-2
1558441733345779,-3,-3,-10,-17,-10,-11,-10,-3
1558441733357745,-2,0,7,13,9,8,9,0
1558441733357745,-1,0,-13,-5,-4,-5,-7,-2
1558441733366721,1,0,2,6,8,12,2,2
1558441733366721,0,0,3,0,-4,-4,-5,-1
1558441733379686,-2,-2,3,2,0,-9,-7,-3
1558441733379686,1,3,-4,-15,-13,0,1,4
1558441733388661,0,1,2,4,2,-1,1,-1
1558441733388661,-5,-6,-8,-6,0,6,8,-6
1558441733403622,0,0,-2,1,-1,3,-1,0
1558441733403622,-4,-4,-2,0,1,0,-5,-4
1558441733405618,-2,-2,4,-1,-1,3,3,0
1558441733405618,1,0,-3,-1,-1,-4,1,0
1558441733417588,-1,0,-2,-5,-5,-6,3,-1
1558441733417588,-3,-2,-1,1,-2,-8,-2,-5
1558441733426562,-2,-4,-8,-2,1,0,-1,-1
1558441733426562,1,2,4,1,-4,-5,-1,-1
1558441733440608,-2,-3,1,-5,5,14,4,0
1558441733440608,3,4,3,-1,2,-1,-3,4
1558441733448828,2,-3,0,0,-1,3,-3,-2
1558441733448828,0,-4,-2,-5,-10,-18,-6,-3
1558441733464823,0,2,-1,-2,-6,-6,2,-1
1558441733464823,-6,-2,3,6,7,11,-3,-2
1558441733465459,-2,-2,-5,-8,-5,-2,6,3
1558441733465459,-2,-2,0,7,5,4,0,2
1558441733477800,1,-1,-1,-3,-7,-7,-12,0
1558441733477800,-1,-1,0,3,1,2,9,-2
1558441733486823,1,0,-1,2,9,12,9,-1
1558441733486823,-3,-2,0,-2,3,0,1,0
1558441733500364,-1,-2,-1,-1,-2,-7,-5,-1
1558441733500364,-1,-2,-3,0,-3,-7,-4,0
1558441733509341,-4,-2,-4,-5,-3,1,-13,-7
1558441733509341,0,0,11,10,2,6,1,-2
1558441733524424,-2,1,5,-1,1,3,0,-4
1558441733524424,-3,-6,-19,-15,-9,-8,-3,-2
1558441733525297,-1,0,-3,0,-10,-15,-8,0
1558441733525297,-3,-3,-2,3,3,4,1,2
1558441733538294,-2,-4,-7,-12,-12,-6,-3,-1
1558441733538294,-1,1,3,0,-2,6,-4,-2
1558441733546442,-2,0,-1,1,3,3,-5,-1
1558441733546442,2,0,0,-4,0,-7,-5,-1
1558441733560453,1,0,0,2,3,4,9,4
1558441733560453,2,-2,5,2,1,-2,2,1
1558441733575196,0,-1,0,-2,-3,-3,2,-1
1558441733575196,-3,-1,-3,-3,-6,0,-8,-5
1558441733583149,-2,-3,-3,-6,-4,1,7,-3
1558441733583149,-1,1,0,4,3,1,1,2
1558441733590390,0,-2,-1,-1,-3,-7,-4,-1
1558441733590390,-1,-3,-2,1,1,-1,-3,1
1558441733598361,1,0,2,8,6,0,-1,-1
1558441733598361,2,-2,-2,-11,-4,-7,0,-1
1558441733606350,1,-2,0,-3,-1,-2,4,2
1558441733606350,0,2,0,-3,0,4,1,-1
1558441733620046,-3,-2,-1,-1,1,-3,-5,-1
1558441733620046,-2,-1,5,3,-4,1,-1,-2
1558441733629020,-2,-1,-12,-9,-4,-6,-6,-1
1558441733629020,-2,-2,-1,-1,0,6,6,1
1558441733642981,2,3,-1,6,10,5,3,3
1558441733642981,0,-1,-4,-1,-3,-6,-4,-3
1558441733649963,-3,-1,4,0,1,5,4,0
1558441733649963,0,0,1,3,3,-2,1,1
1558441733657943,-1,-2,0,-3,-5,-6,0,-2
1558441733657943,1,2,2,4,1,6,6,-2
1558441733666917,-2,-4,-6,-10,-1,-4,0,-2
1558441733666917,0,1,3,7,-2,-5,1,0
1558441733680891,-2,1,3,1,7,10,0,-4
1558441733680891,-5,-6,-11,-7,-7,-13,-7,-4
1558441733689021,-1,-1,1,4,-2,-2,-2,0
1558441733689021,1,1,2,2,4,5,7,1
1558441733704161,2,-3,1,-12,-17,-8,-7,1
1558441733704161,-2,-4,-12,1,-1,-3,-5,-1
1558441733710839,1,2,6,7,7,9,1,-3
1558441733710839,-3,-1,-6,-12,-4,0,-3,-2
1558441733717785,-6,-7,-4,-1,-6,-2,-6,-5
1558441733717785,-2,0,3,-3,-4,-5,-5,-2
1558441733726760,4,-1,1,4,4,0,-1,2
1558441733726760,2,0,2,0,3,1,9,0
1558441733740090,0,1,0,6,4,7,10,0
1558441733740090,-4,-4,-2,-4,-1,-2,-9,-6
1558441733749073,-3,-4,-6,7,-2,-6,0,-1
1558441733749073,2,0,-4,-10,-1,0,-1,1
1558441733764023,-3,-3,0,4,0,-6,-2,-3
1558441733764023,-1,1,1,2,1,0,-3,1
1558441733770994,-1,4,2,1,2,4,2,-1
1558441733770994,-3,-6,-2,-5,-6,2,-7,-3
1558441733786915,1,0,3,1,-11,-16,-8,-2
1558441733786915,3,-1,-7,-1,6,1,0,3
1558441733787597,-1,0,0,-3,5,7,6,4
1558441733787597,-2,0,-3,-1,-6,-6,-3,-2
1558441733800561,0,0,3,-2,2,6,0,-1
1558441733800561,-2,0,-3,-1,-1,2,3,-3
1558441733809538,-2,-1,0,-5,-6,-13,-9,-3
1558441733809538,1,-1,0,3,-3,0,2,-3
1558441733823498,-1,-1,-2,-1,0,4,1,-1
1558441733823498,3,0,4,-3,-2,-2,1,0
1558441733830481,-1,-2,-3,5,2,-8,-3,-1
1558441733830481,-3,-2,-2,-7,-7,-6,-10,-4
1558441733846439,-2,-1,-6,-1,1,0,-1,0
1558441733846439,-1,0,-2,-1,-2,-6,2,0
1558441733847437,-2,-2,1,-6,-13,-2,-3,-3
1558441733847437,1,1,0,3,7,2,1,1
1558441733860823,-2,-2,-3,-1,1,3,-4,0
1558441733860823,0,-2,5,1,-1,5,-3,2
1558441733869379,3,0,2,-4,3,-3,5,4
1558441733869379,-3,0,-7,1,-7,-13,-6,-3
1558441733883347,1,1,0,0,3,3,2,1
1558441733883347,1,-1,3,-2,-1,2,-5,-1
1558441733890320,-1,-1,-4,3,6,8,2,2
1558441733890320,-1,-2,3,-2,-5,-3,-4,-1
1558441733906279,0,1,-5,-5,-3,-6,-7,-3
1558441733906279,-4,-3,1,-2,-5,-2,4,-1
1558441733908275,2,1,-1,-7,-5,-3,2,2
1558441733908275,-3,-2,0,4,2,-2,-11,-5
1558441733920570,0,-2,-10,-6,1,-3,0,3
1558441733920570,-4,-2,5,6,2,0,3,-2
1558441733929220,-5,-4,-3,0,-1,11,4,-5
1558441733929220,0,-1,-5,-3,0,3,-1,0
1558441733943178,5,0,1,-3,-1,-4,-1,-1
1558441733943178,0,2,0,3,0,-10,-5,-1
1558441733950161,0,-2,-5,-6,-1,-6,-4,-2
1558441733950161,1,1,3,3,4,7,3,0
1558441733966119,-7,-3,-5,-3,-7,-6,-8,-3
1558441733966119,0,0,-1,0,-5,1,8,3
1558441733968141,2,3,3,2,4,8,-2,0
1558441733968141,-4,-5,-6,-6,-6,-5,-8,-1
1558441733980079,-1,-2,4,3,5,-2,1,0
1558441733980079,-2,-1,-3,-3,-1,8,2,-1
1558441733989056,-3,-4,1,-1,-6,-6,-8,-7
1558441733989056,-1,-1,1,6,8,9,6,1
1558441734003394,-2,-2,-3,-3,-4,0,-3,-1
1558441734003394,0,-1,-2,-3,3,-4,-2,-3
1558441734010001,-1,-1,2,1,5,0,-1,-3
1558441734010001,2,1,-2,1,-3,-1,1,1
1558441734026334,-2,0,0,-6,-3,5,-2,-3
1558441734026334,3,2,4,2,3,-2,1,2
1558441734027951,3,1,-1,0,-2,-6,8,6
1558441734027951,-3,-2,2,-4,-9,-8,-4,-4
1558441734048899,-2,-1,0,5,-4,0,-6,-5
1558441734048899,2,-1,-5,-14,-1,2,-12,-2
1558441734049894,0,0,-2,1,5,3,1,2
1558441734049894,3,3,5,-1,-6,-11,-13,4
1558441734062860,2,-1,-2,0,6,6,20,4
1558441734062860,-2,-2,0,0,-1,0,-2,-2
1558441734069842,-3,-1,-5,-5,-5,2,-5,-4
1558441734069842,-2,-1,0,-3,-7,-1,-8,-5
1558441734086795,1,-1,-7,2,9,3,4,5
1558441734086795,3,0,-3,-1,0,-7,3,4
1558441734087792,-3,-3,0,2,3,3,3,1
1558441734087792,-2,-1,-2,1,1,4,7,0
1558441734099761,1,0,4,-1,-2,1,-5,-4
1558441734099761,-5,-2,-3,-6,-6,-5,1,-4
1558441734108740,-1,-5,-2,-12,-13,-8,-8,-1
1558441734108740,-1,-2,-3,-2,6,15,11,1
1558441734124069,0,1,1,-1,-6,-8,-7,-2
1558441734124069,-1,0,-3,-2,5,0,-1,1
1558441734131679,-2,-1,-1,-6,-10,-13,-6,-4
1558441734131679,-2,-1,-2,2,6,9,4,-2
1558441734146646,-4,-4,-7,-2,-5,-6,-4,-6
1558441734146646,0,2,3,-1,5,7,0,1
1558441734147633,1,1,4,3,0,-8,-10,0
1558441734147633,-3,-5,-11,-7,-1,-2,-1,-2
1558441734159850,1,3,7,12,4,4,8,2
1558441734159850,-2,-3,-6,-14,-8,-14,-5,0
1558441734185531,-4,-2,-6,-3,-4,0,-6,-4
1558441734185531,0,-4,1,0,3,0,-2,-1
1558441734186564,-4,-5,-2,-7,-10,-4,-13,-8
1558441734186564,0,1,0,5,-6,-2,5,-2
1558441734190542,3,3,3,1,8,8,11,7
1558441734190542,-1,-4,-6,-5,-6,-11,-4,-4
1558441734206480,-3,-2,-8,-5,-3,-2,-3,1
1558441734206480,-4,-1,4,6,-8,-7,-7,-4
1558441734207472,0,1,-3,2,3,6,1,-1
1558441734207472,0,2,-3,-7,-1,1,8,2
1558441734220438,-1,1,6,-5,-2,-6,-2,1
1558441734220438,-1,1,-5,2,4,3,-5,-2
1558441734228428,-3,-5,-4,1,-5,-1,-4,-4
1558441734228428,-2,0,5,4,0,-10,-7,-2
1558441734243376,1,0,1,0,0,-1,2,1
1558441734243376,0,-1,2,-2,5,9,7,1
1558441734250358,-1,0,-2,-6,-3,-1,-8,-5
1558441734250358,-3,-1,3,9,1,2,2,1
1558441734266318,-3,-3,-5,-11,-9,-12,0,-2
1558441734266318,0,-4,2,4,1,0,-18,-2
1558441734268310,2,-1,1,1,3,3,11,5
1558441734268310,-1,-3,-3,2,4,6,8,0
1558441734280285,1,1,3,0,-2,0,-9,-3
1558441734280285,-2,-2,-7,6,5,3,-2,-3
1558441734289257,-3,-1,1,-6,0,-10,-8,-2
1558441734289257,1,2,3,2,-2,1,2,-1
1558441734303217,-1,-1,-4,-3,-2,8,5,1
1558441734303217,2,1,2,0,-4,2,-2,-2
1558441734310199,-1,-1,-3,6,-2,5,3,0
1558441734310199,-2,-2,1,-9,-13,-27,-17,-3
1558441734326166,1,-1,0,3,4,-5,-3,-2
1558441734326166,2,-1,1,-6,-8,-3,5,1
1558441734328176,-5,-3,-2,0,1,9,0,-4
1558441734328176,-2,0,-1,-1,-1,4,-5,-3
1558441734340117,-2,-2,-2,-6,1,6,9,0
1558441734340117,0,1,-2,2,7,4,5,1
1558441734349094,2,1,2,8,1,-8,-7,-1
1558441734349094,-1,-2,-5,-6,1,3,4,3
1558441734370036,-2,-4,0,0,-4,-2,-6,-1
1558441734370036,-2,0,-3,-5,-1,3,-2,-2
1558441734379013,0,1,3,-1,-2,-4,-1,-3
1558441734379013,-1,0,-7,3,-6,-8,-4,-1
1558441734385996,-2,-2,-3,-5,-2,-3,-6,0
1558441734385996,-2,-4,0,2,1,9,10,0
1558441734392991,-3,-1,-2,-4,0,0,5,1
1558441734392991,0,1,0,-5,-5,-15,-8,-2
1558441734399957,0,1,4,4,2,2,0,2
1558441734399957,-1,-1,-3,0,-2,3,3,1
1558441734408933,0,-1,1,9,3,-4,0,-1
1558441734408933,-3,1,-5,-18,-11,3,-2,-5
1558441734422900,0,0,-3,9,2,1,-3,0
1558441734422900,1,0,4,-1,12,6,8,1
1558441734429877,0,-2,-3,-7,-3,3,4,1
1558441734429877,-1,-3,3,10,9,7,4,-2
1558441734446832,-2,2,1,0,-4,-4,-5,-2
1558441734446832,-4,-2,1,0,-7,-7,-4,-6
1558441734447830,-2,-4,-4,-4,-1,3,-1,-3
1558441734447830,0,-1,-1,2,-1,-4,1,1
1558441734459796,1,2,2,1,5,5,4,2
1558441734459796,1,2,1,1,-1,-10,-6,-1
1558441734468774,-2,-3,-5,-8,-11,-19,-6,0
1558441734468774,1,0,-2,-3,0,11,3,0
1558441734482764,-1,-3,4,4,0,2,-5,-3
1558441734482764,0,2,-5,-4,0,8,1,2
1558441734489718,-2,-1,-1,3,9,3,3,0
1558441734489718,-3,-3,-3,-4,-7,-3,-5,-5
1558441734505676,-4,-3,-5,-7,-2,-3,1,-1
1558441734505676,0,0,3,3,-1,-2,-11,1
1558441734512658,2,3,4,3,4,0,1,1
1558441734512658,-1,-1,-1,-3,-3,-5,5,-3
1558441734519638,-5,-4,-6,4,-1,3,-6,-8
1558441734519638,-3,-4,-3,1,-5,-11,-9,-4
1558441734528820,-1,0,-10,-9,-6,-3,4,0
1558441734528820,2,3,8,3,3,-6,2,3
1558441734543756,-2,-2,0,3,-6,-1,-5,-3
1558441734543756,-3,-5,-5,-4,-5,-3,-1,-3
1558441734550558,-2,-2,1,-1,2,9,-6,-3
1558441734550558,1,1,0,4,8,5,4,4
1558441734565581,-1,1,3,-13,-12,-12,3,-2
1558441734565581,-2,0,-12,-1,1,4,3,1
1558441734572497,-5,-6,-3,-12,-9,-3,-3,-5
1558441734572497,1,0,-1,2,0,2,-3,-1
1558441734580709,3,2,8,8,12,1,7,1
1558441734580709,-4,-9,-11,-19,-23,-7,-17,-9
1558441734588454,0,2,0,3,-8,-5,-6,-1
1558441734588454,-1,-4,2,2,0,-9,-1,1
1558441734603426,4,1,0,1,8,8,7,3
1558441734603426,-1,-1,2,5,1,-8,-3,-3
1558441734610395,-2,0,-5,-5,-4,3,-5,-6
1558441734610395,-2,-2,-1,-5,-8,4,-5,-2
1558441734625647,-1,-2,0,9,7,0,5,2
1558441734625647,3,7,7,1,10,7,16,6
1558441734632337,-1,-2,-6,0,9,-2,-6,1
1558441734632337,1,0,1,8,4,5,2,1
1558441734640314,-6,-6,-9,-16,-11,4,-8,-4
1558441734640314,-6,-5,1,-1,-11,-8,-5,-6
1558441734656285,1,3,5,8,9,-4,6,5
1558441734656285,1,1,3,-4,1,-11,-6,-1
1558441734663254,0,-1,-5,-1,-6,2,-3,-3
1558441734663254,-1,-5,0,-3,-6,-1,-7,-5
1558441734670235,0,-1,-4,0,-2,7,10,1
1558441734670235,-2,-1,-8,-4,-1,-6,-7,-1
1558441734686193,-2,0,-1,-7,0,1,2,1
1558441734686193,-1,-1,-1,-3,-1,3,2,0
1558441734692178,-1,0,6,7,0,-1,-4,-3
1558441734692178,-2,-5,-9,-13,-4,-3,-3,-1
1558441734709131,-2,-2,-2,-2,-7,-9,-5,-1
1558441734709131,4,3,4,9,5,0,5,4
1558441734710182,2,-1,9,2,-5,3,0,0
1558441734710182,-2,-5,-14,-9,-5,-3,-7,-4
1558441734723466,-1,1,1,10,5,6,4,1
1558441734723466,-3,0,-2,-3,2,-4,-3,0
1558441734730434,0,1,3,-2,1,-5,4,0
1558441734730434,1,0,6,5,0,8,8,1
1558441734745250,-1,-1,3,1,-4,-11,0,-4
1558441734745250,2,2,-9,-2,2,2,6,4
1558441734752215,-3,-3,0,-3,2,-1,2,-1
1558441734752215,2,-1,-1,-1,-1,0,-5,-3
1558441734769374,-1,-2,4,-6,-2,7,-1,0
1558441734769374,-1,0,3,3,-2,-4,-10,-6
1558441734770167,-3,-2,-8,-10,-9,-7,-7,-2
1558441734770167,-4,-4,-4,1,3,-1,0,3
1558441734791110,2,1,2,1,1,-7,4,2
1558441734791110,-3,-2,-3,-5,-2,-1,8,0
1558441734793112,3,1,-1,4,1,-6,-4,1
1558441734793112,-3,0,2,-3,-4,6,-2,-2
1558441734806071,-2,-5,-5,-2,-7,-1,-9,-3
1558441734806071,1,1,8,3,3,8,17,3
1558441734812248,1,0,-5,-1,5,-5,1,1
1558441734812248,0,0,-1,1,-3,-4,-5,-1
1558441734829011,-2,-4,-3,-9,-6,-3,1,-5
1558441734829011,1,-2,-4,-2,-6,-6,2,3
1558441734830009,-2,0,0,2,-5,1,-1,-4
1558441734830009,2,2,8,2,14,3,6,2
1558441734842973,-1,0,-6,-3,1,-6,-5,-1
1558441734842973,-5,-4,2,6,-1,-1,-7,-4
1558441734849959,-2,-1,0,-4,-6,1,-8,-3
1558441734849959,-4,-4,-2,-4,-7,1,5,-2
1558441734866117,1,0,-3,3,4,-7,-3,2
1558441734866117,1,0,-2,-5,3,-4,-1,0
1558441734872895,-3,-3,-4,-5,-8,-3,-8,-2
1558441734872895,-4,-2,-1,4,-5,1,-3,-6
1558441734888850,1,3,6,-6,4,-6,8,5
1558441734888850,-1,2,2,5,3,-4,-4,-1
1558441734889848,-1,-4,-3,3,-1,-1,12,2
1558441734889848,-3,-2,-1,-5,-2,2,-1,0
1558441734902815,2,3,-4,3,1,7,5,1
1558441734902815,-3,0,-1,-5,-4,-6,-6,-3
1558441734909794,-4,-5,-6,-5,-6,-10,-9,-6
1558441734909794,1,4,7,10,12,7,5,1
1558441734925751,-2,-3,-1,0,0,2,1,-1
1558441734925751,0,0,0,-3,-1,-6,-4,2
1558441734932867,-1,-1,-2,-4,-3,2,-9,-2
1558441734932867,-3,-3,-4,-4,-9,-14,-2,-4
1558441734948691,-2,0,3,3,1,3,-4,-4
1558441734948691,-3,-2,-5,1,-1,4,-3,-3
1558441734950684,1,-1,-1,-5,3,9,5,-1
1558441734950684,-3,-4,-3,-2,-6,-4,-1,1
1558441734963758,1,1,-1,1,3,-8,4,2
1558441734963758,1,-1,-1,-1,-1,-7,9,-1
1558441734977612,1,3,3,1,-1,-6,-4,0
1558441734977612,-1,0,2,7,-1,-4,-10,-5
1558441734985591,-4,-3,-9,-17,-12,2,-7,0
1558441734985591,3,1,7,5,5,13,6,3
1558441734992574,-1,-2,-5,-2,6,0,3,1
1558441734992574,-3,-2,-2,-1,-6,-6,-10,-6
1558441735008531,-3,-4,-8,-6,-1,-4,3,3
1558441735008531,1,2,4,4,8,4,0,1
1558441735010525,0,2,3,1,-7,-8,-11,-2
1558441735010525,5,2,2,3,8,3,3,4
1558441735023490,-1,-2,-1,0,-2,7,-4,-4
1558441735023490,-3,-5,-8,-5,-10,1,0,-2
1558441735030620,-2,-1,7,9,4,-2,9,0
1558441735030620,-1,0,-2,-7,2,3,1,-2
1558441735045430,-2,0,1,3,-6,-5,-9,-7
1558441735045430,0,1,-3,-2,6,1,-4,-2
1558441735052412,-2,-3,-2,1,-1,-4,-2,-1
1558441735052412,-2,-1,-1,-6,-6,1,0,3
1558441735068386,-5,-5,0,0,-5,1,-7,-3
1558441735068386,-2,2,0,2,-2,1,-12,-5
1558441735070364,3,-1,-7,-8,5,-4,7,5
1558441735070364,-1,-1,-1,0,-5,-2,1,0
1558441735083331,0,-6,-8,-3,-1,-9,-5,-3
1558441735083331,0,0,7,7,0,3,-3,-2
1558441735090310,-3,-4,-4,-7,-6,-1,-4,-7
1558441735090310,-1,0,0,-1,4,1,0,1
1558441735105502,-2,0,-1,4,-2,2,13,2
1558441735105502,-5,-2,-2,-5,-2,-4,-6,-3
1558441735113250,1,1,1,-2,7,9,12,3
1558441735113250,1,-2,-4,-4,-2,-4,-1,0
1558441735129428,0,2,-2,-3,-4,-9,-13,-4
1558441735129428,2,-2,-1,-2,2,4,5,0
1558441735130206,-4,0,-1,1,-7,-10,-6,-4
1558441735130206,-4,-3,-3,-4,1,5,-2,-3
1558441735142377,-1,1,-2,-2,2,1,0,2
1558441735142377,0,-3,2,1,-8,-9,-4,0
1558441735151149,-1,1,1,-1,-1,4,-5,0
1558441735151149,-1,-4,-2,-8,-1,0,5,0
1558441735166109,1,1,1,2,4,7,1,1
1558441735166109,-1,-1,-3,-1,-4,-2,-1,-1
1558441735172092,-2,-1,-5,-8,1,9,6,-2
1558441735172092,0,0,2,5,2,1,1,-1
1558441735189049,-3,0,1,0,0,-5,-7,-5
1558441735189049,-1,-3,-5,-5,-8,-8,0,1
1558441735190189,2,1,4,7,1,-3,-7,0
1558441735190189,1,1,-2,0,-1,3,7,2
1558441735203157,-2,-1,2,-1,-3,0,-6,-5
1558441735203157,-1,0,-2,0,1,0,7,2
1558441735210990,-1,0,1,1,10,4,5,1
1558441735210990,-1,-2,-3,-1,-11,-10,-10,-3
1558441735226170,-2,-1,2,5,5,6,5,3
1558441735226170,-1,-2,-4,-8,-4,2,2,-5
1558441735232937,-4,-5,1,4,-2,1,-5,-2
1558441735232937,1,1,0,8,4,0,1,1
1558441735248917,-1,-4,-3,-16,-12,-8,-1,-3
1558441735248917,-2,-2,-3,-5,-1,-4,-2,-1
1558441735249886,-1,-1,-1,-1,-6,-5,-5,-1
1558441735249886,-3,-2,-3,-5,-5,-3,-1,-4
1558441735271827,1,-1,1,3,1,-2,-2,-2
1558441735271827,2,2,0,3,7,1,1,3
1558441735272822,-3,0,-4,-10,-10,-3,-4,-2
1558441735272822,-3,-2,-1,-3,-6,-7,-10,-3
1558441735301960,1,0,-1,3,8,3,5,3
1558441735301960,0,-3,-3,-10,2,2,0,-2
1558441735310846,0,0,-3,2,2,2,4,-2
1558441735310846,-2,-5,-2,-6,-10,-3,-7,-5
1558441735311718,-2,-3,-1,1,-8,-14,-6,0
1558441735311718,0,2,2,1,4,1,-5,1
1558441735314939,-2,-3,-3,-5,-4,-2,0,2
1558441735314939,0,0,1,2,2,1,5,1
1558441735322688,-1,2,2,0,2,2,6,-1
1558441735322688,-2,-3,-7,-1,-10,-11,-9,-5
1558441735331665,-2,-4,-8,-10,-7,0,-2,-3
1558441735331665,2,3,6,4,3,5,-4,0
1558441735345629,0,1,2,3,2,0,0,1
1558441735345629,-3,-2,-3,3,0,5,0,-4
1558441735352610,-3,-2,0,0,-8,-7,-5,-2
1558441735352610,2,2,1,0,11,2,5,3
1558441735368601,-4,-7,-18,-12,-7,-7,-12,-1
1558441735368601,0,1,6,9,7,5,1,0
1558441735370563,-2,-3,-6,-5,-10,3,1,-4
1558441735370563,-2,-2,-1,-1,-5,-10,8,3
1558441735382530,2,5,10,7,9,1,2,1
1558441735382530,-4,-7,-10,-14,-17,-13,-9,-5
1558441735391506,3,0,6,6,7,9,-3,-2
1558441735391506,-3,-2,-10,-14,-7,-4,-11,-4
1558441735405469,-1,0,5,10,2,1,9,-2
1558441735405469,-3,-1,4,0,0,-5,0,-2
1558441735412448,-1,-2,1,-4,0,-3,-6,-1
1558441735412448,1,0,2,3,4,-3,-2,2
1558441735428407,-1,2,-1,-3,1,7,-8,-3
1558441735428407,-3,-4,-1,-2,-4,-6,-6,-2
1558441735430401,2,1,3,6,7,8,4,0
1558441735430401,-2,-3,-5,-4,0,8,0,-1
