timestamp,emg1,emg2,emg3,emg4,emg5,emg6,emg7,emg8
1558441826567894,-2,1,2,5,0,0,3,0
1558441826567894,1,2,1,3,-4,-10,-8,-2
1558441826568891,0,0,0,-3,0,3,-2,-3
1558441826568891,-1,-3,-4,-2,-11,-9,-4,-6
1558441826569888,1,-1,-3,-3,-6,-2,-11,-6
1558441826569888,1,0,3,9,19,11,11,3
1558441826573897,1,0,2,-3,-1,-4,1,4
1558441826573897,-1,0,-4,-3,0,2,-2,-2
1558441826588838,-1,-1,-3,-2,-2,1,-6,-2
1558441826588838,-2,-4,-7,-2,-7,-3,-1,-4
1558441826592827,-1,0,2,1,-1,0,-2,-4
1558441826592827,-1,0,7,4,7,5,4,3
1558441826594822,-2,0,-4,-2,-5,-9,-3,-2
1558441826594822,0,-1,-2,-7,1,15,1,-1
1558441826610779,-3,-4,-4,0,-4,-4,-2,-2
1558441826610779,1,3,1,1,4,0,6,3
1558441826619755,1,-1,0,-4,-1,-5,0,1
1558441826619755,-1,-2,2,2,-4,-16,-3,0
1558441826632721,-1,-1,-4,-3,-10,-4,-6,-5
1558441826632721,-2,0,-6,-5,-3,-3,-7,-2
1558441826639704,-4,-3,-2,-3,-1,3,0,-4
1558441826639704,-1,1,2,5,9,9,3,1
1558441826650672,1,1,2,-6,6,6,1,1
1558441826650672,1,-2,0,-1,-3,-12,-6,-3
1558441826654661,-2,0,2,1,0,3,3,0
1558441826654661,-5,-4,-7,-13,-16,-13,-9,-5
1558441826701536,-2,-2,-2,0,-8,-9,-4,-3
1558441826701536,-1,-1,-2,-3,-1,5,0,-3
1558441826702533,1,2,3,3,10,-2,-1,1
1558441826702533,-1,2,-1,7,7,4,1,1
1558441826702533,-2,-2,0,-3,-5,1,-2,-2
1558441826702533,0,-2,-2,0,-3,-15,-7,1
1558441826703532,-5,-4,-5,-5,-7,6,0,-1
1558441826703532,0,-1,2,-2,-2,-1,-1,0
1558441826714518,-1,-2,-3,4,-1,3,-3,0
1558441826714518,0,-2,0,5,2,14,2,-3
1558441826721484,1,-1,-6,-11,-9,-16,-8,-3
1558441826721484,0,-1,3,2,4,-12,1,0
1558441826730460,-1,-1,0,-1,-6,-5,-3,-2
1558441826730460,0,-1,-1,-2,-3,-3,-1,-1
1558441826745418,0,1,1,3,5,11,3,0
1558441826745418,-1,-3,-2,-3,-8,-2,-11,-4
1558441826752400,0,-1,1,1,4,-2,-1,-2
1558441826752400,-1,2,1,-3,0,2,3,2
1558441826759382,-1,0,-1,5,7,-5,3,2
1558441826759382,-2,1,2,-2,-6,-1,-6,-4
1558441826774341,-2,-2,-4,-9,-1,5,4,2
1558441826774341,-2,0,-1,-1,-1,-6,-4,-1
1558441826782319,0,1,4,6,1,1,4,0
1558441826782319,1,0,1,0,6,14,9,2
1558441826791295,-2,-5,-9,-2,-6,-5,-3,-5
1558441826791295,-2,1,3,-4,-2,-1,0,-2
1558441826805258,-5,-4,-7,-1,3,2,-2,-1
1558441826805258,-1,-2,0,0,-4,-9,-6,-4
1558441826820218,2,3,4,4,10,-4,6,2
1558441826820218,-1,-5,-5,-5,-1,7,6,-1
1558441826821216,-1,-3,0,-1,-7,1,-2,-3
1558441826821216,-1,-5,-9,-2,-3,3,-2,-1
1558441826844154,0,-2,-1,-3,-7,-2,0,-1
1558441826844154,0,0,2,-1,2,-2,-6,-2
1558441826845154,-1,1,2,2,3,4,-1,-1
1558441826845154,-2,1,-1,-2,2,-5,4,0
1558441826851136,-2,-1,3,0,3,3,0,1
1558441826851136,0,1,-2,-2,-6,-14,0,0
1558441826865099,-1,-2,-6,-7,-12,-10,-9,-3
1558441826865099,-3,-1,-1,0,3,1,0,1
1558441826872080,3,1,2,-2,7,7,4,3
1558441826872080,-1,-1,-2,1,1,4,-2,0
1558441826879060,-4,-4,-1,-2,-2,12,4,-4
1558441826879060,1,1,1,2,-1,-17,4,3
1558441826894020,0,0,0,-8,-2,-2,-2,-1
1558441826894020,-3,-6,-8,-4,-8,-14,-7,-3
1558441826901999,3,1,5,-5,2,-4,7,3
1558441826901999,-3,-2,-1,3,3,10,5,0
1558441826910976,1,1,0,4,4,5,-1,0
1558441826910976,-1,-2,1,3,-3,-4,-5,-3
1558441826924939,0,0,-3,-4,-6,-5,-4,-2
1558441826924939,-1,-3,-6,-10,-7,-1,-4,-4
1558441826931919,-2,0,2,2,0,2,3,-2
1558441826931919,0,3,0,2,6,10,1,2
1558441826938902,-1,-1,2,2,4,-6,-6,-2
1558441826938902,1,-1,0,-2,-3,0,-5,-1
1558441826954865,1,1,0,0,1,-6,4,2
1558441826954865,-2,-1,0,5,4,-1,0,-1
1558441826961842,-4,-3,-5,-8,-8,-1,-6,-3
1558441826961842,1,-1,-1,1,-4,-8,-13,-4
1558441826970817,-1,-4,1,-2,-6,-9,1,0
1558441826970817,1,0,4,6,12,0,6,2
1558441826984780,0,0,0,-4,-6,-8,-1,-3
1558441826984780,-5,-1,-4,-2,-1,7,-7,-5
1558441826991774,0,-1,-5,2,-3,2,-5,-2
1558441826991774,1,-1,0,-7,-6,-4,0,-1
1558441826999739,-1,-1,-4,1,-1,1,-1,-1
1558441826999739,0,1,2,-6,-3,1,3,0
1558441827014698,-1,2,4,7,7,1,2,-1
1558441827014698,-3,-4,-12,-18,-5,0,1,0
1558441827021680,-2,0,0,-1,-4,0,-1,0
1558441827021680,-1,-1,1,2,-6,-6,-1,-3
1558441827030655,-2,0,-6,-1,5,12,2,0
1558441827030655,-1,1,-1,4,2,2,1,1
1558441827044619,1,0,3,4,0,-16,-2,1
1558441827044619,-1,-4,-4,-6,2,4,-2,0
1558441827051601,1,-3,-1,2,-4,-25,-4,0
1558441827051601,1,1,8,4,0,-2,-2,-2
1558441827059579,-2,-3,-11,-12,-12,1,-1,-3
1558441827059579,1,-1,0,10,8,7,6,3
1558441827074540,-1,-2,-4,-16,2,16,0,-2
1558441827074540,-2,1,-2,-2,-1,4,2,0
1558441827081520,0,-1,7,9,5,2,-1,1
1558441827081520,-2,-2,-5,-11,-13,-3,-2,-1
1558441827090496,-2,-3,-5,-2,-11,-5,-4,-2
1558441827090496,0,1,0,1,7,4,6,4
1558441827104459,-1,-2,0,2,5,0,-4,-3
1558441827104459,0,0,1,-1,4,0,3,2
1558441827113434,0,2,3,3,3,2,-2,0
1558441827113434,-2,-3,-4,-6,-5,1,-8,-6
1558441827119419,-1,1,1,5,-2,-10,-1,-2
1558441827119419,-1,-2,-1,-6,-3,-1,3,-2
1558441827134378,-1,-2,0,-1,-8,-5,-7,-5
1558441827134378,0,0,2,2,4,10,5,1
1558441827142356,0,-3,-1,-4,-1,8,-6,-2
1558441827142356,-3,-2,-8,-4,-11,-13,-3,-4
1558441827150336,-1,0,2,0,8,7,4,2
1558441827150336,-3,-4,-7,-5,-7,-7,-4,-4
1558441827164298,1,1,0,-2,4,3,5,2
1558441827164298,-4,0,2,-1,1,2,5,-3
1558441827173275,-1,-1,0,2,-9,-21,-9,-4
1558441827173275,0,0,-5,-7,-3,7,0,1
1558441827179259,1,0,1,2,0,4,1,-2
1558441827179259,2,0,1,2,7,6,4,2
1558441827194217,-3,-3,1,1,-1,4,-2,-4
1558441827194217,0,0,-2,-2,-12,-25,-13,-2
1558441827202199,0,-3,-1,-1,4,8,6,1
1558441827202199,0,0,-1,1,2,-1,3,3
1558441827211173,0,1,-2,-1,2,-2,1,0
1558441827211173,-3,-4,1,-3,-8,0,-6,-5
1558441827224140,-3,-2,-4,1,-3,-11,-3,-3
1558441827224140,-2,1,-1,-8,-3,-1,-6,-1
1558441827233116,1,1,-1,0,1,-5,0,1
1558441827233116,1,-1,2,7,7,-4,0,-1
1558441827248074,-1,-3,-5,-4,-5,5,1,-1
1558441827248074,-1,-2,1,0,0,-1,3,2
1558441827254060,-4,-2,0,-2,0,4,1,-2
1558441827254060,0,-1,-1,0,-4,-3,-2,-2
1558441827262038,2,0,-2,2,12,-1,-3,4
1558441827262038,0,-2,-3,-6,-5,1,3,-3
1558441827271013,-1,-1,-4,-6,-11,-6,-8,-4
1558441827271013,-2,0,5,6,9,8,6,1
1558441827283979,-5,-1,-3,-4,0,8,4,-1
1558441827283979,2,1,4,5,2,-10,-4,2
1558441827292956,-2,-3,0,3,1,5,3,0
1558441827292956,-3,-5,-6,-9,-8,-8,-7,-5
1558441827307914,-4,-4,-3,-5,-9,-1,-3,-2
1558441827307914,1,0,4,9,8,-1,2,3
1558441827315893,2,1,2,0,6,5,2,1
1558441827315893,1,2,-1,4,3,4,-5,-3
1558441827321877,-3,-3,-4,-14,-14,-17,-5,-5
1558441827321877,-1,-2,1,3,3,6,1,-2
1558441827330862,-1,-2,-9,-2,-3,-13,-10,-3
1558441827330862,-2,-3,-3,-2,-4,4,2,0
1558441827344815,2,4,3,12,14,13,2,3
1558441827344815,-2,1,-3,-10,-14,-8,-10,-4
1558441827360773,0,-2,3,-1,-1,-4,-3,0
1558441827360773,-3,-2,4,2,-5,-15,2,-1
1558441827367753,0,-3,-3,0,3,11,3,-2
1558441827367753,-2,-3,-7,-8,-5,-3,-9,-4
1558441827374736,0,2,1,2,8,7,8,3
1558441827374736,0,-1,-7,-7,2,-3,1,1
1558441827381717,-3,-3,5,10,-2,2,4,0
1558441827381717,-2,-3,-1,-4,-1,6,-2,-5
1558441827390693,0,-1,-4,-5,-10,-1,-3,0
1558441827390693,0,1,3,2,5,1,-1,-2
1558441827404656,0,2,0,-3,2,-3,2,3
1558441827404656,-2,-1,1,6,1,5,-2,-2
1558441827413633,-1,-2,-8,-8,-14,-4,-9,-5
1558441827413633,-1,-1,6,3,-1,-7,9,3
1558441827427595,-2,-2,0,-5,-2,-2,-4,-3
1558441827427595,-1,-1,-2,5,8,12,2,1
1558441827434578,-1,-1,-2,-6,-2,1,3,1
1558441827434578,2,-1,1,3,-2,-9,-10,-2
1558441827441556,-1,0,-6,-7,-4,1,0,-2
1558441827441556,-1,-1,1,-1,-4,-8,1,-1
1558441827450533,-2,-1,3,4,9,14,9,-1
1558441827450533,-1,0,-1,-1,0,3,0,-1
1558441827464496,0,0,-1,0,-2,-4,-1,-1
1558441827464496,2,1,-3,0,0,-6,1,1
1558441827473471,-2,-1,0,1,-4,-11,-7,-2
1558441827473471,0,-2,-3,-5,-8,1,-2,-2
1558441827487434,-2,-2,-5,-6,-1,-2,1,-2
1558441827487434,1,0,0,-5,1,0,1,1
1558441827494415,-1,-2,3,2,0,-6,-9,-1
1558441827494415,-2,-1,2,3,-6,-5,-2,-1
1558441827502393,0,2,-1,1,1,3,-1,-3
1558441827502393,-1,2,1,6,6,-4,7,2
1558441827517354,0,0,-2,1,11,4,3,3
1558441827517354,2,0,-5,-18,5,19,10,5
1558441827533316,-3,-3,1,-3,-12,-19,-2,-3
1558441827533316,-5,-5,-7,-7,-13,-22,-11,-4
1558441827535312,-1,-2,-5,0,-3,4,3,-1
1558441827535312,0,-2,-2,2,11,13,6,0
1558441827547285,2,0,5,6,6,-4,-6,-1
1558441827547285,0,-2,-2,-4,-2,2,-6,-3
1558441827554255,-5,-3,-1,-2,-8,-12,-5,-3
1558441827554255,-1,0,1,2,1,4,-5,-2
1558441827570215,0,-1,1,-4,-3,4,0,3
1558441827570215,0,0,-1,5,1,-1,-1,-1
1558441827577194,0,-2,-12,-17,-3,2,3,-3
1558441827577194,-3,-2,4,6,-5,-1,-6,-4
1558441827584175,-2,-2,0,-1,1,-1,-5,0
1558441827584175,1,1,7,2,2,-4,-1,1
1558441827593150,-1,0,1,2,1,-5,2,0
1558441827593150,0,0,-3,-4,-6,-12,-3,-1
1558441827607115,-2,-3,-3,3,0,9,0,-3
1558441827607115,-2,-4,-2,-4,-8,-5,-5,-3
1558441827614095,-1,-2,1,-1,1,0,9,0
1558441827614095,1,1,-1,3,9,6,4,2
1558441827630058,1,2,2,2,5,-1,2,3
1558441827630058,-2,-1,1,5,4,5,0,-2
1558441827637039,-3,-5,-4,-12,-10,-5,-8,-4
1558441827637039,-2,1,1,-1,-1,-11,-3,-1
1558441827644024,1,-2,-4,-6,-2,6,5,-2
1558441827644024,-3,-2,-1,-1,-7,-7,-2,-4
1558441827653000,0,1,4,8,7,8,-1,-1
1558441827653000,2,1,-3,-8,1,12,6,2
1558441827667959,-2,0,-3,-3,-4,-16,1,5
1558441827667959,-1,0,4,4,5,-3,6,1
1558441827673939,-2,-2,-4,3,-3,-7,-10,-3
1558441827673939,-1,-4,-5,-8,-9,-2,-7,-1
1558441827689895,-1,-2,-3,0,-1,5,-5,-3
1558441827689895,-3,-5,-4,-10,0,10,-3,-3
1558441827696876,-2,0,2,1,-1,-5,-1,0
1558441827696876,0,3,6,9,9,-1,6,2
1558441827704855,-1,-2,-2,-3,-6,-8,-4,-2
1558441827704855,0,-1,-4,-4,-5,-6,-6,-1
1558441827712831,0,-1,0,-5,-11,-8,-13,-5
1558441827712831,-3,-1,-3,1,-3,-3,-2,1
1558441827727795,5,3,-1,-4,2,-1,-3,2
1558441827727795,-2,-3,-4,-6,-5,7,5,-2
1558441827734778,1,0,2,0,4,5,1,-1
1558441827734778,-2,-2,1,4,4,-3,-3,-2
1558441827749738,0,-2,0,2,-3,-1,-1,-2
1558441827749738,2,1,2,1,0,2,0,3
1558441827756715,1,1,1,-1,4,0,7,2
1558441827756715,-5,-5,-5,-8,-4,-1,-7,-6
1558441827773671,-3,-1,-2,3,-5,-3,-2,-6
1558441827773671,1,-1,0,1,-6,-13,-6,-1
1558441827774669,-2,0,-3,0,0,7,2,-3
1558441827774669,-3,-2,0,-1,-4,-3,-3,-3
1558441827787638,1,1,2,-1,5,-1,2,4
1558441827787638,2,0,3,8,14,20,10,3
1558441827794618,0,-2,0,0,1,-4,0,0
1558441827794618,-1,-3,-6,-8,-3,4,-4,-3
1558441827810570,-4,-2,-1,3,-8,-11,-10,-6
1558441827810570,-3,1,-8,-12,-11,-5,-7,-2
1558441827816556,2,2,4,5,10,4,12,5
1558441827816556,-1,-4,-2,0,-5,-4,-2,-5
1558441827840494,-5,-3,-3,-7,-10,-6,-2,-4
1558441827840494,-2,-3,-8,-7,4,1,-2,-1
1558441827842484,0,1,1,2,5,-2,-8,0
1558441827842484,0,-1,3,2,-8,-10,-1,-2
1558441827847479,0,0,0,-1,8,13,10,3
1558441827847479,-1,-1,-4,-2,-6,-7,-5,-5
1558441827854458,-2,-4,-1,0,0,1,0,-2
1558441827854458,1,-1,-6,-4,-7,2,-7,-2
1558441827870475,0,1,5,4,1,-2,-1,0
1558441827870475,3,2,0,-2,6,3,6,4
1558441827877541,1,-4,-5,-1,-6,-2,-5,-3
1558441827877541,-3,-1,1,4,0,-10,-1,0
1558441827893409,-2,-2,-3,-4,-5,0,-2,-3
1558441827893409,-3,-3,2,-8,-5,-8,1,-1
1558441827894345,-1,-1,-3,-1,-2,0,-2,0
1558441827894345,2,1,-1,4,-4,5,4,0
1558441827907312,4,1,4,2,13,-5,6,6
1558441827907312,-2,-1,1,8,-2,2,-6,-5
1558441827914323,-2,-1,-7,-7,-9,-5,2,0
1558441827914323,0,-1,1,-4,3,-2,-6,-1
1558441827930280,-3,-1,-7,-4,-6,3,-4,-4
1558441827930280,0,0,4,3,6,-3,3,2
1558441827937266,-2,-1,-3,0,-4,14,-1,-2
1558441827937266,0,1,0,0,6,0,3,4
1558441827953187,-1,-1,-2,-3,-4,-1,0,-1
1558441827953187,-2,-2,-8,-5,-4,-5,-3,-4
1558441827955183,-4,-2,-1,0,-3,-1,0,-4
1558441827955183,0,-1,-4,-3,3,-4,-1,1
1558441827976154,-2,-2,4,3,-2,1,-11,-7
1558441827976154,-1,-1,-4,-6,-2,0,-2,-2
1558441827977125,-3,-3,-3,-5,-7,-6,0,-1
1558441827977125,-1,-3,0,1,-6,3,-1,-3
1558441827990089,2,2,-1,4,12,7,4,4
1558441827990089,1,-1,3,1,-3,-4,-6,-2
1558441827997071,-4,-5,3,-1,-2,1,-6,-4
1558441827997071,0,2,1,0,1,-6,-1,-1
1558441828014028,-1,-1,-7,-8,-10,-3,-5,-6
1558441828014028,0,0,3,7,11,16,8,3
1558441828015033,0,1,-1,3,8,13,1,0
1558441828015033,-5,0,-2,-2,-15,-11,-8,-4
1558441828027988,0,-1,-1,-2,3,-2,6,0
1558441828027988,-1,-1,-3,0,-7,0,0,-1
1558441828035976,-2,0,3,2,-1,-8,-5,-2
1558441828035976,-3,0,0,-1,9,10,5,0
1558441828049997,-3,-1,-2,3,-8,-5,-4,-2
1558441828049997,-3,-2,-4,0,-1,2,-1,-3
1558441828056916,-3,-3,-5,-6,-4,-7,-9,-5
1558441828056916,0,-3,0,-2,1,4,-2,-3
1558441828072873,-1,-1,-6,-19,-11,-15,0,1
1558441828072873,-3,-2,-3,-3,-6,1,-8,-6
1558441828074865,-1,-1,-1,-2,-4,8,4,1
1558441828074865,3,2,-1,2,4,-13,-4,2
1558441828087894,-1,-3,5,5,4,-11,-4,0
1558441828087894,-1,-4,-3,-5,-3,6,4,2
1558441828094858,-2,-2,-1,2,-4,-4,-6,-5
1558441828094858,-4,-2,-1,-2,-8,3,1,-1
1558441828110816,-1,0,-4,-6,6,-2,8,4
1558441828110816,2,0,4,3,1,-6,-5,0
1558441828117751,2,2,1,6,8,3,8,4
1558441828117751,0,-1,-1,-12,-5,-6,-8,-4
1558441828133824,-1,-2,0,5,3,2,0,-2
1558441828133824,-4,-1,-2,-4,-10,-13,-9,-2
1558441828134708,0,2,0,-2,7,13,12,4
1558441828134708,0,-1,-2,1,0,-7,2,2
1558441828147778,-1,0,-2,4,3,11,5,-1
1558441828147778,-1,-2,3,-6,-7,-22,-8,-2
1558441828161633,-1,-3,1,3,0,1,-3,0
1558441828161633,-3,-3,-2,-3,-4,0,2,-2
1558441828170608,-1,0,0,-1,-7,-3,-6,-4
1558441828170608,2,3,0,3,1,9,5,3
1558441828184570,-2,0,-1,-2,-6,-14,-3,0
1558441828184570,1,0,0,-5,7,8,2,-1
1558441828193546,-3,-2,-6,2,-1,5,-2,-3
1558441828193546,-1,2,6,2,7,11,3,2
1558441828194544,-1,-2,-3,0,-4,-23,-5,-3
1558441828194544,0,0,-5,0,-2,1,-2,-2
1558441828207508,1,0,2,2,4,3,1,1
1558441828207508,1,0,0,2,3,8,3,0
1558441828214491,0,-2,-8,-7,-3,10,3,-1
1558441828214491,-3,-4,7,8,0,-7,-1,0
1558441828230452,4,1,-3,-5,-2,-10,-8,-2
1558441828230452,-3,-4,-7,-4,-5,0,1,-4
1558441828236431,-1,2,6,3,-2,-10,-4,0
1558441828236431,-3,1,-10,-13,-12,3,-3,-2
1558441828253386,0,-1,1,-3,4,7,6,1
1558441828253386,3,-1,0,2,-1,-12,-1,1
1558441828254382,1,0,4,3,15,22,5,2
1558441828254382,0,1,-3,5,1,-2,2,0
1558441828267709,-6,-4,0,-1,-3,-1,-8,-4
1558441828267709,-1,-1,2,2,2,2,1,-3
1558441828276324,-2,-4,-6,-9,-18,-14,-7,-4
1558441828276324,1,2,4,7,13,-2,7,5
1558441828290356,2,2,0,0,8,11,3,1
1558441828290356,-3,1,7,8,0,-6,-6,-4
1558441828297329,-1,-1,-3,0,2,1,0,1
1558441828297329,-3,-1,-2,-9,-13,-19,-12,-3
1558441828313270,-3,-1,-1,5,0,6,1,-1
1558441828313270,-2,-4,-7,-5,-3,-3,0,-2
1558441828315223,1,1,-3,-7,2,4,0,-1
1558441828315223,-1,-5,0,4,-8,3,-2,-3
1558441828327189,-1,-2,-3,-11,-5,-8,-1,-1
1558441828327189,0,3,-1,4,10,9,5,4
1558441828336175,0,-1,0,-5,-7,-6,-7,-2
1558441828336175,2,0,-3,-4,11,5,13,2
1558441828350149,-5,-4,-4,2,-12,-7,-14,-6
1558441828350149,0,-1,-3,-9,-8,0,-1,-1
1558441828357109,1,0,2,2,1,-10,-2,0
1558441828357109,-2,-1,0,1,2,0,-5,-2
1558441828373071,-2,-2,-3,0,6,9,3,1
1558441828373071,0,-2,-1,1,6,0,7,3
1558441828375061,-5,-2,3,3,-3,0,-2,-6
1558441828375061,-2,-2,-6,-11,-14,-5,-9,-4
1558441828387343,-1,1,3,0,-3,-10,1,3
1558441828387343,-1,-1,-8,-6,-3,-9,-3,-2
1558441828403282,-2,-2,2,2,0,2,3,-1
1558441828403282,2,0,3,6,17,11,5,0
1558441828409969,-1,-1,-2,-7,-11,-10,-7,-3
1558441828409969,1,5,1,2,-1,-12,-1,0
1558441828416948,-4,-4,-5,-3,-6,-3,-5,-4
1558441828416948,-2,-3,-2,3,-2,9,1,-1
1558441828432907,-1,-3,-3,-1,0,1,-2,0
1558441828432907,-1,-1,0,0,1,6,1,1
1558441828434935,-3,-3,-2,0,-6,-4,-9,-3
1558441828434935,-3,0,0,-6,-4,-1,-3,0
1558441828455843,0,0,2,6,3,-5,0,-2
1558441828455843,-1,1,-2,-4,-5,2,1,-3
1558441828456840,-2,0,2,4,3,6,4,2
1558441828456840,-1,-2,4,2,1,-1,-4,-1
1558441828469805,-2,-3,-9,-3,-6,-7,-1,-1
1558441828469805,-3,-2,-3,-5,-5,7,-4,-7
1558441828476817,5,2,0,-2,7,2,9,7
1558441828476817,-1,-1,0,8,1,-1,-5,-1
1558441828492746,0,2,2,-10,1,4,0,-1
1558441828492746,-2,-5,-6,-6,-3,-9,-3,1
1558441828500968,-2,0,-5,-2,-8,-6,-2,1
1558441828500968,-1,-2,1,0,-1,1,-3,-2
1558441828506707,-2,-4,-7,-4,-14,-7,-8,-4
1558441828506707,-2,-2,6,9,7,-2,-1,0
1558441828515683,0,-3,-3,-10,4,5,3,0
1558441828515683,0,-1,-3,-2,-3,-6,2,0
1558441828530791,1,1,3,0,0,-7,-2,0
1558441828530791,-2,-1,-2,3,-6,3,-8,-5
1558441828537809,1,-1,-3,-1,8,6,4,1
1558441828537809,-1,3,-2,-1,1,10,1,1
1558441828552842,-4,-4,-1,-5,-8,-3,-3,-5
1558441828552842,0,0,1,2,0,4,0,-3
1558441828559785,3,0,-2,-3,-1,-10,-3,-1
1558441828559785,-1,-1,-4,-4,1,-6,-1,-2
1558441828567578,0,1,0,1,-1,3,2,-1
1558441828567578,0,-2,2,-1,6,6,6,4
1558441828575787,0,2,1,1,1,3,-2,-4
1558441828575787,-5,-3,5,0,-5,-5,-4,-5
1558441828590490,3,4,2,8,16,4,10,6
1558441828590490,-3,-4,-10,-14,-17,-12,-11,-4
1558441828597465,-5,-4,-1,0,-5,-7,-3,-1
1558441828597465,-2,-1,-5,0,-4,0,-2,-1
1558441828621487,0,1,4,7,13,20,2,-2
1558441828621487,1,1,1,-1,5,0,3,2
1558441828622405,-2,1,8,3,-3,-2,-5,-1
1558441828622405,-2,-6,-16,-12,-18,-15,-6,-3
1558441828627388,0,0,1,0,5,2,0,1
1558441828627388,1,-1,-3,-1,7,2,5,1
1558441828636362,1,-1,1,5,0,1,-2,-2
1558441828636362,2,0,1,-6,1,8,6,0
1558441828650325,-3,-1,4,4,-3,-10,3,-2
1558441828650325,-2,-3,-4,-6,-6,-3,-6,-3
1558441828657340,-2,1,-1,-1,-5,-7,0,-1
1558441828657340,2,1,2,5,9,17,5,1
1558441828672272,-2,-2,-6,-5,-4,1,-6,-1
1558441828672272,-1,2,1,2,-4,-5,6,3
1558441828679554,-2,-2,2,-3,-3,-15,-5,0
1558441828679554,0,-2,-4,-4,-8,-3,-6,-1
1558441828696486,-1,1,-2,-1,1,10,1,-2
1558441828696486,0,-2,3,2,-1,-14,-5,-1
1558441828697199,2,1,-5,-5,5,10,2,3
1558441828697199,0,2,3,3,2,5,10,2
1558441828710476,-1,-1,4,5,-4,-11,-5,0
1558441828710476,0,0,-5,-10,5,22,10,3
1558441828717434,-2,0,-2,0,-7,-11,-7,-5
1558441828717434,-3,-5,-3,-7,-3,-7,-9,-4
1558441828733316,-1,-6,-5,-9,-6,-6,-3,-4
1558441828733316,0,0,-3,-3,-4,0,-5,-4
1558441828739088,0,-2,-2,1,-1,2,0,0
1558441828739088,0,0,1,4,1,-2,-2,-1
1558441828756044,0,-1,-3,0,1,-4,-1,-3
1558441828756044,-3,-1,4,5,-1,-3,-3,-2
1558441828757050,-4,-2,-5,-4,1,9,3,-5
1558441828757050,-2,-2,0,-2,-3,-7,-4,-4
1558441828778188,-2,1,-3,0,-4,-3,3,1
1558441828778188,1,1,0,3,2,-4,-2,0
1558441828779981,-2,-4,-2,-5,-5,-7,-2,-4
1558441828779981,-3,1,-2,0,5,6,1,2
1558441828793250,0,-1,-1,-3,2,9,0,-1
1558441828793250,-2,1,-2,2,1,0,0,-1
1558441828799239,-2,0,-3,0,-1,-2,0,-2
1558441828799239,-5,-4,-6,-3,-10,-11,-5,-5
1558441828816175,0,1,2,1,-2,5,0,-1
1558441828816175,1,-1,-2,-1,-3,-9,-4,-2
1558441828817175,2,2,4,1,10,8,5,4
1558441828817175,1,1,3,2,3,-1,7,3
1558441828830365,0,-2,-3,-2,-1,4,2,1
1558441828830365,0,-1,-3,2,2,1,4,-1
1558441828837123,-3,-6,-2,-13,-18,-15,-10,-6
1558441828837123,-1,0,2,5,8,12,-1,-1
1558441828852078,1,1,0,-1,1,-7,-2,-1
1558441828852078,1,-1,-1,-2,-3,0,-6,-2
1558441828859088,-1,-1,-6,1,-6,0,-1,-2
1558441828859088,0,-1,2,-3,2,-9,2,1
1558441828876374,1,-2,2,-1,2,1,1,0
1558441828876374,-3,-3,-3,-3,-7,-1,-2,-2
1558441828877012,0,0,-2,4,5,3,-4,1
1558441828877012,0,-1,-1,0,-2,-4,-5,1
1558441828890303,0,1,0,3,1,-4,2,-3
1558441828890303,-3,-1,-3,-12,3,18,4,0
1558441828897293,-2,-2,-2,-2,-7,-6,-4,-3
1558441828897293,-1,-3,-2,0,-4,-6,-1,-2
1558441828913234,1,-1,0,1,0,-4,0,2
1558441828913234,-4,-2,1,0,-14,-8,-8,-5
1558441828920214,0,0,7,-1,7,-2,6,1
1558441828920214,1,0,-7,-3,4,4,0,1
1558441828935859,-5,-2,0,1,-7,-1,-6,-2
1558441828935859,-3,-2,5,-2,-6,-10,-7,-2
1558441828937849,1,-1,-7,3,2,5,1,0
1558441828937849,1,0,6,2,-5,-10,-3,-3
1558441828950830,-1,-1,-5,-2,5,7,2,2
1558441828950830,0,0,0,3,9,2,2,2
1558441828956800,0,-1,1,1,2,3,4,-1
1558441828956800,0,1,0,0,-5,-12,-7,-3
1558441828972757,0,-2,-5,-11,-6,2,-1,-4
1558441828972757,1,-3,-1,5,-4,-4,-4,-3
1558441828979744,-4,-2,-11,-13,-7,1,-5,0
1558441828979744,0,0,3,7,12,10,6,2
1558441828995923,-3,0,1,-2,-7,-16,-5,-2
1558441828995923,0,-1,-4,0,-3,-4,-2,-2
1558441828997697,-3,-4,0,-5,-3,3,0,-4
1558441828997697,1,-2,-6,-4,-2,3,0,-1
1558441829009666,-2,0,0,-2,-1,4,-6,3
1558441829009666,0,1,3,6,12,7,12,5
1558441829016657,1,1,2,3,-2,-2,-7,-3
1558441829016657,-1,-1,-4,-5,0,-2,1,-1
1558441829032838,0,-2,1,5,8,-2,6,2
1558441829032838,1,0,-2,-1,-2,-11,-5,-2
1558441829039581,-1,1,-1,-8,-3,-4,-3,-1
1558441829039581,-5,-3,-3,-2,-4,13,1,-2
1558441829055541,-2,0,-3,-5,-3,-5,-4,-3
1558441829055541,-2,-1,-2,5,1,3,-5,-2
1558441829057542,-2,-2,-2,-5,-5,-3,2,0
1558441829057542,3,5,6,8,13,-11,5,5
1558441829070494,-6,-5,-7,-11,-15,-4,-5,-8
1558441829070494,-1,-3,-5,-8,-5,-1,-4,-3
1558441829077476,-1,-1,4,7,8,8,0,0
1558441829077476,-4,-5,-7,-4,-6,4,4,-1
1558441829092437,-1,-2,0,2,-4,-13,-4,-1
1558441829092437,-3,-4,-7,-8,-13,-15,-6,-4
1558441829099684,1,0,3,7,8,5,4,3
1558441829099684,0,2,4,2,6,5,2,2
1558441829116407,-1,0,-5,-2,6,8,3,1
1558441829116407,-4,-1,1,-4,-12,-6,-9,-6
1558441829117372,-1,0,-4,-4,-6,-9,-5,-2
1558441829117372,0,-4,-5,-3,-6,-12,-6,-1
1558441829131377,-1,0,2,1,2,5,1,-1
1558441829131377,-2,-1,2,-2,2,4,-1,0
1558441829137573,-3,-4,-1,6,-6,-2,1,-1
1558441829137573,-2,-3,-11,-9,-8,-2,-6,-4
1558441829153357,-3,-3,-2,0,-3,-3,0,-2
1558441829153357,-2,-1,-1,-2,7,5,4,-1
1558441829159502,0,0,3,0,-1,-4,1,-1
1558441829159502,-4,-3,-2,-5,-11,-9,-9,-5
1558441829176476,1,-1,1,4,7,12,5,3
1558441829176476,0,-3,-5,-6,-6,-14,-3,2
1558441829177210,2,2,-1,-4,2,5,2,0
1558441829177210,-2,-2,-1,-6,-3,6,-4,-3
1558441829189177,0,-1,2,-1,2,-3,5,1
1558441829189177,-2,-1,3,4,1,-1,1,-1
1558441829198390,-2,0,-3,0,-1,-1,-2,-1
1558441829198390,1,1,3,-1,3,-2,-3,0
1558441829213186,-1,-2,-8,-8,-10,3,-5,-3
1558441829213186,0,-2,-7,-6,-2,8,3,-2
1558441829219104,0,-1,0,3,-3,-13,-5,0
1558441829219104,-2,-1,10,3,4,-6,4,1
1558441829236259,-1,1,-2,2,1,3,-7,-1
1558441829236259,-3,0,-2,-6,-1,3,2,1
1558441829237051,1,1,0,-1,3,-5,2,1
1558441829237051,-1,0,-2,-1,0,2,2,1
1558441829250014,-1,-1,2,3,3,0,1,1
1558441829250014,1,0,-2,-2,-4,-16,-5,-2
1558441829257992,-1,-1,1,-2,-2,2,0,-3
1558441829257992,-1,0,3,6,11,16,8,2
1558441829272968,-1,-1,-2,-4,2,0,-1,1
1558441829272968,-1,0,3,6,2,3,1,1
1558441829278937,-1,-2,-7,-13,-6,-9,-1,-3
1558441829278937,0,-3,-6,-2,-10,-4,-8,-4
1558441829295897,-1,-3,0,-3,-2,2,-1,-2
1558441829295897,-1,-1,0,1,-2,-1,-1,-3
1558441829296889,-1,-3,-1,-3,-7,-9,-4,0
1558441829296889,1,0,-3,-4,1,9,2,0
1558441829309852,-3,-2,1,-1,-3,2,-4,-3
1558441829309852,-1,-1,0,2,0,13,-1,-1
1558441829317831,-1,-2,0,1,5,-7,2,-2
1558441829317831,-2,-1,-2,-2,-3,-13,-4,0
1558441829333902,0,2,8,7,7,4,1,1
1558441829333902,-2,-3,-9,-10,-3,4,2,-3
1558441829339772,-2,-2,0,2,-4,8,-1,-2
1558441829339772,-4,-2,-4,-5,-10,-11,-7,-4
1558441829355732,0,1,2,-1,-4,-11,-3,-1
1558441829355732,-1,1,3,-1,6,-5,1,0
1558441829356728,-2,-4,-9,-1,-6,0,-7,-2
1558441829356728,-2,-2,3,0,-3,-6,1,-1
1558441829370132,0,0,1,-2,4,5,1,0
1558441829370132,-1,-4,-3,6,-7,-6,-1,-4
1558441829378672,-3,-2,-9,-14,-2,1,0,1
1558441829378672,-2,-3,-2,0,-4,7,-4,-4
1558441829393008,0,1,0,0,0,-10,1,1
1558441829393008,0,2,-1,-2,7,-1,3,2
1558441829407648,-1,2,2,7,-3,-4,-8,-3
1558441829407648,-2,-3,-4,-2,-1,15,1,-5
1558441829415892,0,0,-1,0,-3,-13,0,1
1558441829415892,-3,-3,-2,-3,-1,-1,-7,-2
1558441829417567,0,1,2,0,5,7,2,-1
1558441829417567,-1,2,-1,-1,13,11,7,2
1558441829429853,-2,-2,1,1,-10,-4,-5,-7
1558441829429853,1,-2,0,2,2,1,-2,0
1558441829438510,-2,-2,-2,-3,-8,-5,-5,-2
1558441829438510,1,-1,0,-1,1,-5,-5,0
1558441829452733,0,-1,-2,-1,-1,-4,1,0
1558441829452733,-3,-3,-1,0,-6,-5,-3,-2
1558441829459689,2,1,1,2,10,8,9,4
1558441829459689,0,3,2,-1,1,-4,-1,1
1558441829475676,-5,-5,-6,-1,-17,-4,-9,-3
1558441829475676,1,1,4,1,5,6,3,1
1558441829482394,1,-2,0,0,8,13,4,2
1558441829482394,0,-1,4,3,-4,-6,-6,-2
1558441829489375,1,-1,2,-8,-4,-14,-3,0
1558441829489375,0,0,-1,2,4,6,6,0
1558441829498350,0,-3,-1,2,-2,1,-5,-4
1558441829498350,1,-1,-5,-6,-1,5,-2,-2
1558441829513335,-2,-2,-3,-3,-7,-7,-4,-1
1558441829513335,-2,0,2,-1,3,2,-3,0
1558441829519333,-2,0,-2,-2,-2,-13,-1,1
1558441829519333,-3,0,-5,0,-1,-6,-4,1
1558441829535663,2,-1,-2,0,3,-9,-1,1
1558441829535663,-1,-1,-2,-2,-5,3,2,0
1558441829542661,-1,-4,0,1,10,16,3,-2
1558441829542661,-2,-3,0,4,-11,0,-6,-3
1558441829550321,-1,-1,-3,-5,-1,2,-2,-3
1558441829550321,-1,2,5,9,9,-5,-1,3
1558441829558301,-1,0,1,-5,2,11,4,0
1558441829558301,-2,-1,-2,1,1,-12,1,1
1558441829572153,-4,-4,-8,-10,-9,-2,-6,-4
1558441829572153,-2,-1,-3,-7,-7,-6,-4,-1
1558441829580189,0,1,3,5,0,5,5,4
1558441829580189,-1,-1,5,0,-1,-6,-3,-3
1558441829595091,-2,-2,-3,5,9,14,3,-1
1558441829595091,0,-1,-3,-3,-1,-18,-5,-2
1558441829602399,1,2,3,6,3,-4,-1,0
1558441829602399,-1,-1,0,-3,-3,-5,1,1
1558441829618358,0,1,-2,3,-1,16,2,-2
1558441829618358,-2,-4,-5,-5,-6,4,-3,-6
1558441829620288,-4,-3,-1,2,-1,1,-1,-3
1558441829620288,0,-3,-3,-6,-7,-14,-7,-4
1558441829633413,1,1,1,2,6,11,6,0
1558441829633413,1,0,5,2,6,2,6,2
1558441829639056,-2,-1,-7,-2,0,-5,0,3
1558441829639056,-2,-4,-3,-4,-8,-9,-7,-3
1558441829655015,0,-3,2,0,-10,-9,-9,-2
1558441829655015,-2,-3,-5,-3,4,15,4,0
1558441829662286,0,2,1,-5,6,9,3,1
1558441829662286,0,0,0,5,-5,-9,-1,-1
1558441829678351,0,-2,1,7,4,-10,-1,3
1558441829678351,3,0,-5,-5,1,-3,-3,0
1558441829679348,-1,-3,4,5,0,-1,-8,-3
1558441829679348,-1,0,-4,-10,-1,11,3,1
1558441829692764,-1,0,-3,-4,-2,4,2,-2
1558441829692764,-2,0,0,1,-10,-9,-7,-3
1558441829699292,-3,-4,-6,-6,-12,-7,-5,-4
1558441829699292,0,1,3,1,16,19,12,4
1558441829715703,0,3,3,4,3,-9,-1,0
1558441829715703,0,-2,-2,-11,-4,1,-1,0
1558441829722233,0,-1,-6,-1,-2,-2,-4,0
1558441829722233,-1,-1,-4,-5,-1,-2,2,-1
1558441829738191,-6,-3,1,3,1,-1,-4,-2
1558441829738191,1,3,0,0,-3,1,9,1
1558441829739190,-1,-2,-1,0,-3,-7,-5,-5
1558441829739190,1,3,7,5,5,13,0,2
1558441829761185,-1,-3,-6,-12,1,-4,0,0
1558441829761185,-1,-3,3,-2,-7,-10,-3,-2
1558441829762126,-1,0,-3,0,-2,-6,-5,-4
1558441829762126,-1,-3,-9,-10,-8,2,-1,-1
1558441829775415,6,4,-2,-2,6,3,7,6
1558441829775415,-3,-1,7,5,1,-8,-7,-2
1558441829782394,-3,0,-1,-4,-5,-1,4,-1
1558441829782394,0,-1,3,7,6,-2,-2,-3
1558441829798352,-3,-1,-7,-11,-7,2,-2,-3
1558441829798352,-1,-2,-3,-2,-3,-5,-2,-1
1558441829800027,-3,-6,0,-4,-7,-14,-8,-5
1558441829800027,-1,-1,2,-2,1,0,-1,-2
1558441829813328,0,1,-10,-2,6,13,-2,2
1558441829813328,-5,-3,6,1,-5,-7,-4,0
1558441829820219,-1,2,-7,-6,-5,5,-5,-2
1558441829820219,-5,-4,10,9,-4,-10,-2,-1
1558441829835250,3,-2,-11,-7,-6,-1,-4,-2
1558441829835250,-4,-3,-8,-7,-5,4,-3,0
1558441829842210,1,1,5,2,4,4,7,5
1558441829842210,-1,-1,-10,-3,-5,-12,-4,-2
1558441829858960,-5,0,10,9,5,8,3,-3
1558441829858960,2,1,2,-1,7,8,2,-1
1558441829859865,1,1,-2,5,-4,-8,-4,-2
1558441829859865,-2,-2,-4,-7,-12,-2,5,1
1558441829872829,0,-2,6,7,5,1,-3,-3
1558441829872829,7,1,-3,0,8,5,7,2
1558441829879811,-12,-3,1,-1,0,-4,-2,-2
1558441829879811,0,0,-2,-1,-1,-13,-10,-5
1558441829894823,-5,-3,-3,1,-6,-2,-11,-8
1558441829894823,0,-1,-13,-20,-8,5,2,0
1558441829901809,0,-3,5,-2,2,2,0,-1
1558441829901809,-2,-3,1,1,5,-9,1,2
1558441829917710,-3,-1,-2,-2,-7,-3,1,-1
1558441829917710,0,-2,-5,7,-2,-1,-4,-2
1558441829919940,4,1,-3,-4,-3,4,2,-1
1558441829919940,0,0,5,6,5,-1,-5,-1
1558441829932669,-1,1,10,-5,6,3,4,-1
1558441829932669,-3,-1,-7,6,0,-2,1,-1
1558441829939651,-3,0,-3,1,-7,-12,-4,-2
1558441829939651,-2,-6,-3,-9,-1,4,2,0
1558441829955131,3,5,8,11,5,1,7,3
1558441829955131,0,1,4,-1,5,1,-6,-4
1558441829962115,-2,-5,-10,1,1,4,-5,-2
1558441829962115,1,2,-7,-8,-4,3,3,-3
1558441829978180,-6,-7,-3,2,-8,-16,-8,-4
1558441829978180,3,1,6,9,-4,-7,2,3
1558441829980345,-8,-2,-2,-5,5,2,-1,-2
1558441829980345,3,1,-4,2,-5,9,-7,-1
1558441829993377,0,-2,-4,-4,-4,-21,-2,3
1558441829993377,0,-1,1,-2,1,2,-1,-2
1558441830000164,2,-3,-4,-10,-4,-2,4,0
1558441830000164,-1,-1,-4,-3,5,15,-5,-4
1558441830024015,-2,-3,1,-4,4,16,9,0
1558441830024015,-2,-3,1,1,0,-4,0,0
1558441830024979,0,-2,-3,-6,-14,-24,-8,-4
1558441830024979,2,5,6,9,17,-4,10,6
1558441830038106,0,-3,0,-5,-4,-2,-4,-3
1558441830038106,-5,-6,-8,-1,-3,6,-6,-5
1558441830039908,0,0,4,3,1,2,-2,0
1558441830039908,0,1,4,3,-7,-6,3,-4
1558441830053156,-1,-1,-8,-11,-1,4,-2,-1
1558441830053156,-1,1,0,2,4,0,0,1
1558441830060145,3,1,5,0,-4,-2,-2,-1
1558441830060145,-3,-2,-5,3,1,-1,-3,-6
1558441830074813,-6,-3,3,-12,-13,-11,-8,-5
1558441830074813,-4,-4,-2,-2,-1,5,-2,-3
1558441830082054,3,1,3,4,11,7,5,4
1558441830082054,0,-1,-6,-2,2,9,9,4
1558441830097758,3,2,0,-1,2,1,4,0
1558441830097758,-4,0,-9,1,-10,-13,-11,-5
1558441830099746,0,-4,2,0,9,5,5,1
1558441830099746,-3,-6,-2,-10,-14,-5,-6,-4
1558441830112029,2,4,0,4,0,10,6,4
1558441830112029,0,-1,4,1,1,-13,-7,1
1558441830120976,2,1,-13,-7,1,4,12,2
1558441830120976,-3,-2,3,2,-5,-8,-10,-2
1558441830135901,-1,-5,-15,-8,-2,4,1,-3
1558441830135901,3,2,12,8,4,-4,2,-1
1558441830141976,1,0,-3,3,-1,0,-9,-5
1558441830141976,-2,3,2,-12,-4,-3,-4,0
1558441830158941,-1,-7,-3,6,5,1,3,1
1558441830158941,0,0,-2,-11,0,5,2,2
1558441830159586,-4,-6,-1,7,-4,-6,-2,-2
1558441830159586,0,-3,-1,0,5,2,0,0
1558441830171553,-2,4,0,1,0,-7,-5,0
1558441830171553,-3,-5,-3,-5,-8,-9,1,1
1558441830195782,1,-1,2,0,-2,-3,-4,-2
1558441830195782,1,3,-2,1,4,4,8,0
1558441830196489,-1,2,3,1,2,1,-5,-2
1558441830196489,-4,-6,-1,-6,-3,0,8,-3
1558441830202513,3,5,0,3,2,2,-2,3
1558441830202513,-1,-4,-4,-3,-4,-2,-2,0
1558441830218751,2,1,5,2,1,-7,-4,1
1558441830218751,0,0,-6,-11,2,8,4,-2
1558441830219665,-1,2,3,4,-5,-2,-10,-2
1558441830219665,-2,-2,-5,-11,-7,-2,-2,-2
1558441830232672,-1,-4,-3,-2,-6,3,-4,-4
1558441830232672,2,2,9,8,5,-2,2,1
1558441830240713,-1,2,1,-2,5,-2,5,3
1558441830240713,0,0,-6,-2,1,-1,8,2
1558441830255331,-1,-3,-3,-3,-6,-1,4,0
1558441830255331,0,1,-1,-1,-6,1,-8,-2
1558441830262606,-2,-6,-8,-7,-2,1,-1,-2
1558441830262606,0,-1,6,12,1,-1,5,1
1558441830278268,1,2,-8,-11,7,2,-1,-1
1558441830278268,-1,-2,9,5,7,0,-2,-1
1558441830279265,-3,0,2,-1,-9,1,1,-1
1558441830279265,-6,-5,-8,-10,-4,0,-6,-4
1558441830292536,-1,2,2,3,2,-6,5,3
1558441830292536,-1,1,-4,-5,-5,-7,-3,-3
1558441830301206,0,-1,2,0,6,5,2,1
1558441830301206,-1,1,4,3,2,-3,-7,-2
1558441830315170,-4,-4,-1,-1,-9,-2,-15,-7
1558441830315170,1,5,1,1,-1,-1,1,1
1558441830321565,-1,-2,0,-1,3,2,2,1
1558441830321565,-1,-4,-8,0,-4,-10,6,-2
1558441830338517,0,2,15,11,5,-14,3,1
1558441830338517,0,-1,-6,3,0,4,-4,0
1558441830339513,-2,-1,-3,-3,-4,-5,0,-2
1558441830339513,-2,1,-2,4,1,-2,-2,0
1558441830360457,-2,-4,-14,-14,-5,2,-7,-3
1558441830360457,0,-2,-4,1,1,2,-1,-2
1558441830362452,1,2,10,6,4,2,-3,-2
1558441830362452,1,-1,-4,-11,1,-3,-2,0
1558441830375417,-3,-2,-4,-3,-6,0,3,0
1558441830375417,-3,-1,0,-1,-7,-4,-8,-4
1558441830381400,1,-3,-5,-4,1,0,-1,0
1558441830381400,2,4,6,11,11,1,-4,3
1558441830399018,-2,-4,-5,-5,-10,-4,1,-3
1558441830399018,0,-2,-2,-6,-1,5,8,2
1558441830413350,-2,1,-3,0,2,-3,2,-2
1558441830413350,-1,-1,0,-4,-11,-8,-5,-2
1558441830413350,1,-1,-1,-2,5,5,2,2
1558441830413350,-2,-5,-7,-3,-10,-5,-7,-2
1558441830420719,-3,0,3,0,-3,-1,-1,-3
1558441830420719,-3,-3,-5,-5,-4,-10,-4,-1
1558441830435702,-2,-1,0,3,-1,-6,-3,-3
1558441830435702,1,0,-1,-7,11,19,1,4
1558441830442698,1,-1,0,2,-6,-12,4,0
1558441830442698,0,-2,1,1,6,8,-4,-1
1558441830457650,0,1,-4,2,-8,-5,-7,-2
1558441830457650,-4,-4,3,7,-1,-7,-6,-5
1558441830472159,-3,0,-6,-7,-3,7,5,-2
1558441830472159,-4,-2,5,4,0,4,7,-2
1558441830473157,2,1,3,1,1,-7,1,1
1558441830473157,-1,-2,-10,-4,-5,-8,-6,-1
1558441830481136,-2,-2,-3,-9,-12,-2,-9,-4
1558441830481136,-1,-3,-6,-1,-6,3,-6,-2
1558441830503075,2,3,8,4,16,14,13,4
1558441830503075,-3,0,2,2,1,-9,4,-2
1558441830505070,-1,-2,-5,-2,-6,-4,-11,-1
1558441830505070,0,1,-2,2,5,3,3,1
1558441830526435,1,2,-3,0,5,9,5,0
1558441830526435,-4,-4,4,1,-2,-1,-3,0
1558441830527015,1,0,1,1,0,-12,-6,1
1558441830527015,2,-1,-1,0,1,4,0,0
1558441830532033,-1,-4,-2,-3,-6,-3,-4,-4
1558441830532033,1,1,-8,-15,-1,2,-3,1
1558441830540975,-3,-2,0,-5,-8,-1,9,-2
1558441830540975,0,0,0,1,1,-5,-2,-3
1558441830555484,-3,-3,-3,1,-4,-5,2,1
1558441830555484,0,-2,3,8,8,17,-1,-7
1558441830561470,2,-1,0,-8,-8,-2,-6,2
1558441830561470,-2,-3,-5,-1,-1,3,9,3
1558441830577742,-1,-4,-6,1,1,-14,-4,-3
1558441830577742,-2,-3,-3,-6,-10,-5,2,0
1558441830584751,1,1,7,9,12,4,2,4
1558441830584751,-3,-1,-1,-7,-8,-14,-4,-4
1558441830601529,0,0,1,1,-2,2,-12,1
1558441830601529,2,3,1,3,0,0,6,2
1558441830602629,-2,-4,-2,1,-5,-6,-6,-5
1558441830602629,0,0,-2,-6,2,11,4,1
1558441830615685,-2,-4,-6,-10,-2,-3,-4,-6
1558441830615685,-1,-3,-3,2,-1,-2,-5,-1
1558441830621384,0,1,-4,-4,-3,-7,-4,2
1558441830621384,-1,-3,2,8,6,-4,0,-1
1558441830637604,-1,2,7,0,-7,1,-3,-2
1558441830637604,0,-2,-2,-1,0,-9,1,-1
1558441830644374,-1,-3,-7,-1,-5,-2,-5,-2
1558441830644374,-1,-3,-4,-7,-5,6,-10,-3
1558441830661233,-1,-1,3,6,1,-5,0,1
1558441830661233,-4,-3,-2,-3,-6,-5,-3,-2
1558441830662201,0,1,3,3,7,5,7,0
1558441830662201,-1,1,1,1,-5,-6,-2,-5
1558441830675478,-1,0,1,7,6,7,9,3
1558441830675478,0,1,-7,-12,-3,-4,-9,1
1558441830682241,-2,0,0,1,1,4,-2,-3
1558441830682241,-3,-4,3,4,-7,1,0,0
1558441830706111,-1,-4,-6,-8,-4,-8,-7,-3
1558441830706111,2,3,-1,5,8,9,14,5
1558441830707080,1,1,4,6,10,2,4,-2
1558441830707080,-3,-4,-6,-15,-10,1,-7,-3
1558441830721047,-3,-4,-5,-1,-10,-8,-9,-9
1558441830721047,-4,-1,-5,-4,-3,-6,-4,-3
1558441830722040,-2,-3,-6,-4,3,9,4,-4
1558441830722040,1,3,0,-3,-4,-7,3,0
1558441830735006,-2,0,8,11,7,8,7,1
1558441830735006,2,0,6,4,4,-2,4,1
1558441830742292,-1,-2,-6,-7,-9,-3,-7,-3
1558441830742292,0,-1,1,4,2,-7,-3,-2
1558441830757945,2,2,-3,-4,0,1,-1,-1
1558441830757945,-3,-1,7,3,-6,-6,0,0
1558441830765027,-1,-3,-1,-1,1,-9,-1,-1
1558441830765027,0,-1,-3,-3,0,6,1,0
1558441830781209,-2,0,-3,-1,3,3,1,0
1558441830781209,2,0,5,5,1,1,-4,0
1558441830782133,-2,-1,-6,-1,-7,0,-2,-3
1558441830782133,-2,-1,5,3,8,6,9,1
1558441830795167,-4,-2,-5,-4,-9,-7,-2,-4
1558441830795167,-2,-2,-4,-3,4,12,-2,-2
1558441830802154,0,-2,0,-4,2,-3,-4,0
1558441830802154,0,2,4,5,-2,-12,0,1
1558441830818099,-2,-3,-6,2,0,2,-6,-3
1558441830818099,-2,-2,-8,-11,-9,7,-4,-5
1558441830832744,-5,-2,1,-4,-7,-5,-9,-1
1558441830832744,3,3,3,10,5,-14,3,3
1558441830841061,1,0,-1,-13,2,7,2,0
1558441830841061,0,-1,1,-1,1,0,-5,-3
1558441830841721,1,-2,-3,-3,-5,-15,-1,1
1558441830841721,0,1,0,0,3,10,-10,-5
1558441830854699,2,0,0,3,-7,1,3,2
1558441830854699,-5,-1,-4,-1,-4,-4,0,-5
1558441830869945,-2,0,0,1,3,4,5,-1
1558441830869945,-1,-2,1,-3,4,0,-4,1
1558441830877630,0,-2,-5,-6,4,12,3,1
1558441830877630,2,-1,3,10,-2,-3,-1,-1
1558441830884906,0,1,7,-7,4,-9,-3,1
1558441830884906,-1,-2,-9,-7,-8,-2,0,-1
1558441830900562,2,-3,-2,-4,-2,3,6,4
1558441830900562,-2,0,3,1,5,10,0,0
1558441830902788,0,2,3,7,3,2,9,0
1558441830902788,-1,-3,-1,-2,-2,-2,-2,-2
1558441830914528,-1,0,-1,-4,-6,-3,-6,-5
1558441830914528,0,0,-2,-1,-3,-12,-4,3
1558441830921507,-1,-1,-2,-2,-3,5,-3,0
1558441830921507,-2,2,-3,-1,4,3,-5,-1
1558441830937874,-2,-3,-3,4,-5,-4,1,1
1558441830937874,0,0,-2,1,5,0,3,1
1558441830944788,0,1,1,0,3,-8,-2,1
1558441830944788,-2,-2,-4,0,-2,8,2,-4
1558441830960766,-3,-1,6,0,-2,-11,-10,-4
1558441830960766,-2,-4,-5,0,-4,-2,-14,-5
1558441830962397,-1,-2,-1,-5,0,13,7,-1
1558441830962397,-1,1,3,1,1,-6,2,2
1558441830975711,1,1,1,1,0,-18,-2,1
1558441830975711,0,1,2,3,-4,-8,4,0
1558441830982555,-2,-3,-14,-5,-4,9,-7,-6
1558441830982555,1,0,3,-2,-5,-12,-3,-2
1558441830998301,-1,1,2,4,7,13,-1,-5
1558441830998301,-3,-4,-4,-11,-5,3,0,-1
1558441831004650,0,-3,-5,-3,-7,-13,-12,-5
1558441831004650,-1,-1,-2,0,3,0,5,3
1558441831020589,-1,2,3,3,-4,-5,-5,0
1558441831020589,-1,-2,-2,-10,-1,0,0,-2
1558441831020589,-4,-4,1,-2,-5,1,1,-1
1558441831020589,-4,-3,-10,-5,-1,10,-6,-4
1558441831043321,0,4,1,2,6,-8,4,2
1558441831043321,-3,-2,5,2,1,-2,-3,1
1558441831043321,-1,-2,-2,2,5,3,4,3
1558441831043321,-3,-3,3,-6,-7,-1,-6,-3
1558441831058178,-1,-2,-4,-13,-5,-5,-6,2
1558441831058178,0,-1,-5,-1,-5,-15,6,0
1558441831065154,2,2,2,4,4,4,6,3
1558441831065154,0,-1,-3,2,-3,-1,-1,-2
1558441831080388,-2,-2,-4,-4,-9,-2,-7,-5
1558441831080388,-3,-3,0,-4,-6,-13,-10,-5
1558441831081081,2,3,-1,2,9,7,8,2
1558441831081081,1,-1,0,-3,6,-6,-2,5
1558441831102025,-1,0,-3,0,8,21,10,1
1558441831102025,-1,-2,3,5,-6,-11,-10,-5
1558441831103022,0,-3,-5,-1,-11,-5,-7,-2
1558441831103022,-3,-1,4,2,8,12,3,-1
1558441831119008,-5,-4,5,2,1,-2,-6,-7
1558441831119008,3,5,4,5,9,16,9,6
1558441831125153,-1,1,-5,-7,-1,-6,-5,-2
1558441831125153,-1,-3,0,0,-14,-12,-9,-4
1558441831139958,0,-2,-3,0,3,0,7,1
1558441831139958,-1,-2,-4,-5,1,4,4,0
1558441831140922,-2,-4,0,-3,-11,-10,-1,-4
1558441831140922,2,2,3,7,4,9,8,3
1558441831163211,1,0,-7,-8,1,-7,4,1
1558441831163211,1,0,1,3,-1,-8,-5,-2
1558441831163211,-6,-5,-2,-1,-5,4,-7,-6
1558441831163211,-2,-4,-10,-9,-8,-4,-2,-5
1558441831178203,-1,2,3,3,5,3,2,0
1558441831178203,1,0,1,1,0,5,4,2
1558441831185121,-1,-2,-4,0,-6,-17,-7,-2
1558441831185121,1,-1,-5,-8,-3,-7,-1,-3
1558441831200777,-2,-1,-3,-7,-1,0,-5,0
1558441831200777,-2,-2,-4,-1,-6,-4,-3,1
1558441831200777,3,1,7,3,1,-3,-1,1
1558441831200777,-2,-3,-5,-2,-10,-10,0,0
1558441831222736,1,2,5,2,5,5,-1,-1
1558441831222736,-2,-2,-4,-2,-1,10,-5,-4
1558441831224047,0,-2,-3,-1,-2,0,6,2
1558441831224047,0,0,10,6,12,1,3,2
1558441831238659,0,-2,2,2,-5,-5,0,-3
1558441831238659,-1,-4,-7,-9,-13,-7,-1,4
1558441831252918,-3,-2,-1,-1,1,7,-8,-5
1558441831252918,-2,-2,1,5,5,9,0,-3
1558441831259605,0,-2,-3,2,-1,-4,4,2
1558441831259605,-2,2,2,0,8,10,9,1
1558441831260600,0,2,-2,-5,2,-1,-5,-2
1558441831260600,-1,-2,2,1,-6,2,5,2
1558441831282775,1,-1,-3,1,-2,-3,-7,-3
1558441831282775,-1,-1,-3,-9,-1,-1,-1,-2
1558441831283540,3,3,6,6,5,-9,8,5
1558441831283540,0,2,-10,-5,-5,-5,-8,-3
1558441831298500,-5,-6,5,0,-11,-1,-3,-4
1558441831298500,-2,0,1,2,6,3,3,-2
1558441831304483,-3,-1,1,2,8,14,0,-2
1558441831304483,0,0,1,-5,-1,-3,-1,3
1558441831319441,-1,-1,-5,-6,-4,-16,2,-2
1558441831319441,-1,0,-2,-1,-14,-10,-8,-4
1558441831326424,0,-1,0,-3,-1,-1,-4,-4
1558441831326424,1,3,7,1,2,11,-1,-1
1558441831342380,1,-3,-10,-2,2,-3,0,4
1558441831342380,0,-6,6,-1,12,9,3,0
1558441831343377,-4,-5,-13,-5,-3,1,-4,-6
1558441831343377,-3,-2,-5,-4,-8,-4,0,-5
1558441831358338,5,3,2,-1,3,-10,0,1
1558441831358338,-2,2,11,10,4,-3,-1,2
1558441831364323,-1,0,-8,-9,-5,9,2,-1
1558441831364323,-2,-1,-3,2,1,2,-2,-1
1558441831379639,0,2,9,6,10,11,9,3
1558441831379639,-1,-2,-7,-6,-7,-7,-5,-3
1558441831387624,1,0,5,2,5,-5,1,3
1558441831387624,-2,-1,1,-1,0,0,-2,3
1558441831402257,-2,-1,-5,-5,-9,6,-2,-7
1558441831402257,-2,-3,-2,0,-1,-10,-2,0
1558441831403218,0,2,7,5,5,-5,9,2
1558441831403218,1,-3,-10,-9,3,1,-4,-3
1558441831418177,-1,-1,-3,2,-5,1,-5,3
1558441831418177,-5,-3,3,-1,-8,-8,-7,-8
1558441831424161,0,1,2,1,2,6,2,1
1558441831424161,-3,-5,-1,-7,-7,-6,-8,-5
1558441831441116,-3,-2,2,1,-4,-8,-3,-2
1558441831441116,3,2,-6,-3,8,4,6,1
1558441831447099,-1,-4,1,4,-6,-2,-7,-2
1558441831447099,0,0,-2,-6,1,-2,2,-1
1558441831462060,-2,-1,-3,-3,-2,10,-1,-1
1558441831462060,0,0,-4,-6,-11,-1,-3,-2
1558441831463057,0,2,3,6,5,7,2,3
1558441831463057,-2,-1,0,0,5,-4,1,1
1558441831478350,-3,-4,-8,-6,-10,-9,-8,-4
1558441831478350,3,0,13,9,10,1,3,5
1558441831484335,-1,-4,-4,-4,-7,-8,-4,-1
1558441831484335,-2,0,3,6,2,14,0,-6
1558441831500970,1,1,-1,-5,-5,-5,6,2
1558441831500970,-1,-1,2,7,2,0,-4,3
1558441831506941,-1,-6,-12,-18,-5,0,-4,-1
1558441831506941,3,0,7,6,2,-1,-1,2
1558441831522898,-3,-3,-8,-5,-2,-3,1,0
1558441831522898,0,1,-5,-3,-2,5,2,-4
1558441831522898,-2,0,-2,-1,-3,0,2,0
1558441831522898,-2,0,1,0,-6,-15,-2,-3
1558441831537857,-2,0,1,-4,-1,4,-7,-3
1558441831537857,-1,-4,1,3,4,3,3,2
1558441831543843,-1,-1,-4,-11,0,-1,1,1
1558441831543843,0,-4,5,6,2,-5,3,0
1558441831558802,-3,0,1,3,-2,-9,-8,-2
1558441831558802,-1,-1,-5,-2,-8,-13,-7,-4
1558441831566781,0,-4,-1,-2,-1,4,-9,-6
1558441831566781,3,3,-1,5,9,8,8,7
1558441831582739,0,-2,2,-1,-1,-5,2,-1
1558441831582739,0,-1,-4,-1,4,6,0,0
1558441831582739,1,0,-1,4,-7,-6,-1,-2
1558441831582739,-5,-5,-5,-11,-14,-14,-8,-4
1558441831598007,1,-2,-1,2,10,12,2,3
1558441831598007,-2,-1,1,3,-2,-3,-1,-3
1558441831612657,-2,0,3,-5,-11,-16,-6,-3
1558441831612657,-3,-4,-7,-4,-7,-2,-2,-3
1558441831619794,-4,-1,-4,-2,-5,11,1,-2
1558441831619794,-1,2,-1,-1,6,9,8,3
1558441831626621,-2,0,3,0,3,-1,5,1
1558441831626621,2,2,2,7,5,-3,-2,2
1558441831642581,1,-2,4,-2,-4,-2,-6,-1
1558441831642581,0,-2,-5,-8,-12,-5,-6,-4
1558441831643575,-2,-1,-4,1,-4,-7,0,0
1558441831643575,0,1,0,0,4,7,6,0
1558441831666514,0,1,4,5,10,7,6,2
1558441831666514,-2,-1,-6,-5,-3,-2,-3,-1
1558441831667513,3,2,2,4,6,3,4,2
1558441831667513,-5,-4,-5,-9,-13,-3,-6,-7
1558441831679485,-1,0,-5,-3,-3,-8,-6,-3
1558441831679485,-2,-4,-2,-1,-2,-5,-5,-4
1558441831686461,-3,-4,-3,-5,-13,-8,-13,-7
1558441831686461,-2,-5,-1,2,2,15,7,-2
1558441831702418,0,0,8,7,15,-7,2,0
1558441831702418,1,1,-7,-11,-3,-13,-1,2
1558441831703416,-1,0,4,7,10,13,2,-1
1558441831703416,0,1,-3,-8,-8,-6,-9,-2
1558441831718376,-1,-1,-5,-4,-13,-5,-3,-3
1558441831718376,-2,0,-2,-2,-14,-5,-9,-7
1558441831724679,0,-1,2,2,15,9,14,3
1558441831724679,1,3,-4,3,6,-1,2,1
1558441831739319,-3,-3,0,-5,-6,-4,-6,-2
1558441831739319,1,-2,-3,3,-1,-7,0,-1
1558441831747371,-3,-2,-4,-7,-11,4,-5,-2
1558441831747371,1,-1,3,5,0,-2,5,2
1558441831762257,-1,0,-4,-9,1,-1,-2,-1
1558441831762257,0,1,0,0,6,8,-2,2
1558441831763259,0,0,-3,-2,0,3,3,1
1558441831763259,-1,1,4,3,3,-8,-1,0
1558441831778216,0,-2,-3,1,-6,1,-4,-3
1558441831778216,-2,-3,0,-3,-4,-10,-2,-5
1558441831784228,0,0,-2,4,-3,-10,-5,-3
1558441831784228,1,-3,-1,-8,-1,3,2,1
1558441831799159,-1,0,5,7,5,9,9,-2
1558441831799159,-7,-5,-8,-7,-1,-1,-1,-3
1558441831806403,-1,-1,3,4,1,-5,-8,-1
1558441831806403,1,0,-4,-4,-3,-2,-4,-4
1558441831822358,1,0,4,4,-7,-1,2,1
1558441831822358,1,0,-3,4,2,-6,0,3
1558441831823357,-2,0,14,6,11,7,11,0
1558441831823357,-2,-4,-14,-5,-3,3,-4,-1
1558441831838318,2,-2,0,-3,7,4,1,2
1558441831838318,1,3,2,4,5,7,1,-2
1558441831844300,-2,-4,-2,-1,-10,-3,-2,-1
1558441831844300,-2,1,0,-4,-4,-14,-6,0
1558441831860258,-3,-3,0,0,-6,1,-5,-3
1558441831860258,1,0,2,1,4,6,3,-1
1558441831867238,1,-2,-3,-3,3,-13,-3,2
1558441831867238,0,-1,0,-1,-1,8,-1,-3
1558441831882391,-3,0,-5,-4,-11,-10,-11,-5
1558441831882391,1,0,3,2,1,-1,4,1
1558441831883196,2,1,-4,-2,2,0,2,2
1558441831883196,0,2,6,6,2,5,8,1
1558441831898156,1,1,-4,-12,-2,-10,1,4
1558441831898156,-1,-2,0,5,2,12,5,-1
1558441831912120,0,1,1,1,-4,-2,-5,-2
1558441831912120,-1,-2,-8,0,-3,-7,-3,-2
1558441831919100,-2,-1,-2,-3,1,-3,-1,-1
1558441831919100,-1,-1,-4,-6,-7,-5,-2,-3
1558441831927080,-4,-1,-2,-3,-4,1,-4,-3
1558441831927080,1,-1,3,0,-10,-8,-9,-4
1558441831942045,4,2,1,0,13,4,5,4
1558441831942045,-2,-2,-3,2,-2,-9,3,4
1558441831943036,-3,-3,-1,3,1,3,0,-2
1558441831943036,-3,1,-1,-2,0,2,-3,-1
1558441831957996,-2,-2,-1,-7,-3,2,1,-2
1558441831957996,-1,-3,-5,-3,-1,-3,-3,-3
1558441831964986,2,1,0,0,5,14,8,-1
1558441831964986,-5,-3,0,-1,-3,-12,-2,0
1558441831979122,-2,-3,-5,0,-2,-3,-1,-1
1558441831979122,-1,1,3,-3,-4,2,-5,-3
1558441831986919,1,1,4,2,-2,3,-2,-2
1558441831986919,1,0,0,-5,10,2,6,2
1558441832002875,-4,-3,-3,2,-1,-4,-5,-1
1558441832002875,-2,-1,2,-2,-6,-9,-6,-2
1558441832002875,-2,-2,-5,-4,-4,0,1,-2
1558441832002875,-4,-2,-3,0,-3,6,-7,-4
1558441832018833,1,-2,0,1,-2,-9,-3,-3
1558441832018833,0,-2,-3,-3,3,7,1,3
1558441832023999,1,0,1,5,-3,-22,-5,-2
1558441832023999,-3,-4,-6,-13,8,15,4,-1
1558441832038782,-1,-2,2,4,-5,5,-5,-4
1558441832038782,2,2,1,-8,4,-1,4,3
1558441832054738,-3,-3,-4,-3,-8,-5,-2,-4
1558441832054738,2,-1,-2,-2,-9,-8,-7,-1
1558441832062729,-3,0,-4,-3,-8,-5,-11,-4
1558441832062729,-2,-1,0,5,-1,4,0,0
1558441832062729,-2,-1,-2,1,9,18,9,2
1558441832062729,0,-1,2,1,2,-5,3,1
1558441832077676,0,0,-3,-2,2,2,2,1
1558441832077676,1,-1,1,5,0,-6,-3,-1
1558441832084656,-4,-5,-9,-20,-10,-2,-5,0
1558441832084656,0,0,-1,5,-3,-3,-7,-3
1558441832099617,-3,-6,-6,-4,-8,3,1,-3
1558441832099617,1,0,3,2,3,-6,6,3
1558441832106606,3,-1,-5,2,8,-3,5,2
1558441832106606,-3,-1,1,-1,-3,0,-3,-2
1558441832122557,0,1,-1,-2,-1,2,-1,-1
1558441832122557,-1,-1,-4,-1,0,1,-3,-1
1558441832123553,-5,-2,-2,-2,1,-5,-10,-5
1558441832123553,0,-2,-3,-2,-14,-14,-3,-3
1558441832138514,-2,-3,1,3,3,19,11,0
1558441832138514,-4,-3,-2,-7,1,4,-2,-3
1558441832144506,4,4,6,4,9,-4,-4,4
1558441832144506,-3,-1,0,1,-2,-7,3,2
1558441832159702,-1,-1,-2,0,-4,-10,-6,-3
1558441832159702,-2,-3,-3,-6,-8,-5,-7,-4
1558441832166629,2,-3,-3,-5,-7,-7,0,0
1558441832166629,2,-1,0,1,5,8,2,-3
1558441832182590,3,4,-1,4,4,1,6,2
1558441832182590,-1,-2,9,3,3,-7,2,2
1558441832183395,-5,-5,-3,1,-3,5,-3,-6
1558441832183395,-1,1,2,0,5,1,1,1
1558441832198353,0,1,3,0,2,1,1,0
1558441832198353,0,0,-5,-4,-10,-4,-6,-4
1558441832204338,0,0,-1,-2,-8,-6,-7,-3
1558441832204338,-3,-2,2,3,5,10,8,0
1558441832219300,1,3,2,1,11,-3,5,3
1558441832219300,-1,2,0,6,-3,-2,-8,-4
1558441832226317,-1,0,-2,-9,-6,5,4,-1
1558441832226317,-3,-2,-2,-4,-3,-6,-5,-2
1558441832242237,-1,-3,-2,-2,3,-10,-2,1
1558441832242237,-4,-3,-3,-2,-1,8,4,-2
1558441832249218,-3,-2,0,3,-7,-7,-1,0
1558441832249218,3,3,8,1,0,-7,1,1
1558441832258192,-2,-2,-4,-5,-6,-4,0,0
1558441832258192,2,4,3,11,10,5,1,-1
1558441832264178,-3,-2,-8,-16,-5,-1,-4,-4
1558441832264178,0,-4,-4,-7,-2,3,1,-1
1558441832279136,-1,-2,-2,-3,-12,-8,-13,-6
1558441832279136,-2,0,1,0,1,6,2,-1
1558441832287116,0,1,3,7,11,20,11,2
1558441832287116,3,-1,-3,2,5,-5,3,3
1558441832302330,-2,2,3,1,2,3,-3,-1
1558441832302330,-3,-6,-9,-9,-15,-10,-7,-5
1558441832309247,-1,-2,-4,-1,-4,-4,-5,-2
1558441832309247,-1,-2,1,0,4,3,-4,-1
1558441832318033,1,2,4,3,12,4,3,3
1558441832318033,-3,-2,-4,-2,-2,-4,-5,-3
1558441832324019,-2,0,-5,-1,-6,2,3,0
1558441832324019,-3,0,-6,-5,-7,-1,-5,-5
1558441832338978,-3,-6,-2,-1,-9,-6,-5,-6
1558441832338978,5,2,3,2,7,-6,4,5
1558441832346956,2,-1,-2,-13,4,7,-1,-1
1558441832346956,-2,-1,4,12,-1,6,0,1
1558441832361971,-1,0,-8,-11,-7,-11,-2,0
1558441832361971,0,-2,-3,-10,-6,1,-1,1
1558441832368896,1,0,2,8,2,-3,2,-1
1558441832368896,1,1,0,0,5,2,3,0
1558441832377881,-2,-2,0,1,-7,4,-7,-2
1558441832377881,-3,-2,-1,-4,-9,-3,-9,-5
1558441832384158,1,2,3,10,12,4,5,5
1558441832384158,0,3,-1,-5,6,-9,1,2
1558441832398815,-2,0,5,6,10,7,5,2
1558441832398815,-3,-1,-3,-6,-7,-5,-4,-3
1558441832414775,-4,-5,-3,-4,-14,-8,-8,-7
1558441832414775,-1,-2,-3,2,-2,5,-1,-3
1558441832421758,-4,-1,-3,-2,-3,3,-2,-4
1558441832421758,-2,-2,-2,0,-2,2,2,0
1558441832428805,1,1,0,4,3,-21,-1,2
1558441832428805,1,-3,2,3,3,2,1,-3
1558441832444695,-1,-2,-2,-6,-1,7,0,-2
1558441832444695,-1,-1,-2,-1,0,0,-3,0
1558441832445692,-3,1,1,0,-1,3,0,-2
1558441832445692,-3,-1,-7,-9,-13,-17,-10,-2
1558441832459656,2,1,3,5,14,12,8,2
1558441832459656,-1,-2,2,6,3,1,0,-3
1558441832474614,-1,-2,-5,-14,-5,3,-4,-3
1558441832474614,-1,-1,-2,-3,-5,-6,-5,-5
1558441832481641,-1,-1,-3,-4,-6,-12,0,1
1558441832481641,-2,1,4,-2,-4,-6,-2,-1
1558441832489575,-1,-3,-3,-1,8,15,5,2
1558441832489575,-5,-5,-5,-4,-11,-6,-9,-4
1558441832504535,1,0,-3,0,-8,-2,-7,-1
1558441832504535,2,1,-5,-1,14,0,9,3
1558441832505533,-1,1,4,7,-3,-4,-2,-1
1558441832505533,-2,-3,-3,-5,1,14,1,1
1558441832527474,-1,-2,0,0,-6,-6,-9,-5
1558441832527474,2,3,7,2,14,17,10,5
1558441832528469,-3,-2,-4,-5,-3,-3,-2,0
1558441832528469,-3,1,-4,-1,-4,-7,-1,0
1558441832541437,-3,-3,-4,-6,-11,-8,-1,-3
1558441832541437,0,-2,-4,-1,-3,8,-1,-2
1558441832549417,-3,-2,2,2,-2,-4,-1,-4
1558441832549417,0,0,2,-3,-9,-14,-2,0
1558441832565371,0,2,3,6,14,3,13,6
1558441832565371,-2,-2,-9,-12,-6,-13,-3,-1
1558441832565371,1,-1,1,0,-1,0,-3,0
1558441832565371,-2,-2,-4,0,2,3,-2,-2
1558441832579341,-1,1,1,-1,-1,8,0,-1
1558441832579341,-2,-3,-3,-3,-10,-10,-5,-2
1558441832586582,0,1,1,1,-2,-7,-4,-2
1558441832586582,-1,0,2,2,6,10,-1,0
1558441832602282,1,-1,-4,3,3,7,2,1
1558441832602282,-2,-3,-5,-9,-7,-2,-2,-3
1558441832609255,-2,-3,-2,-3,-9,-10,-1,-2
1558441832609255,0,-5,-2,-6,-1,-1,0,-1
1558441832625212,-1,-1,-3,-1,0,-15,-7,-1
1558441832625212,-1,0,-1,3,-8,-2,0,-3
1558441832625212,-1,-2,0,-1,0,2,-5,-3
1558441832625212,3,5,11,5,19,5,11,6
1558441832647152,1,0,4,6,1,1,5,1
1558441832647152,-4,-5,-12,-12,-7,1,-6,-3
1558441832648150,-4,-2,-5,-1,-1,-1,2,-3
1558441832648150,-2,0,3,-2,-7,-3,-1,2
1558441832662338,2,-1,0,-2,-4,-2,-8,-4
1558441832662338,0,1,5,9,8,-1,2,2
1558441832669096,0,1,-4,-1,0,7,1,0
1558441832669096,0,1,-1,-2,-1,0,1,-1
1558441832686246,-2,-5,6,4,-2,-14,-2,-3
1558441832686246,-2,-4,0,1,2,5,-3,-1
1558441832687047,0,-3,0,-1,-7,-15,-7,-3
1558441832687047,-3,-3,-5,-5,-5,3,-6,-5
1558441832701009,-2,2,-2,-5,1,10,3,0
1558441832701009,-1,0,2,3,5,-13,11,4
1558441832706272,0,-2,2,8,11,11,6,2
1558441832706272,-1,-1,-4,-12,-11,-6,-4,-1
1558441832722232,0,0,-1,2,2,5,-1,0
1558441832722232,-3,1,4,-1,2,3,-8,-4
1558441832729520,-1,-4,-8,-2,-9,-7,-5,-2
1558441832729520,-1,-1,0,1,-4,-4,2,-1
1558441832752351,-3,-6,-5,-2,-1,-1,-2,-2
1558441832752351,1,2,5,3,1,5,-1,0
1558441832753147,0,2,1,-2,-6,-20,-1,0
1558441832753147,-2,-4,-3,1,-1,1,-2,-2
1558441832761126,-3,-3,-3,-4,4,7,0,1
1558441832761126,0,-1,4,4,-4,-10,-7,-3
1558441832767111,-1,0,1,-1,0,15,4,0
1558441832767111,3,2,-1,4,9,1,0,3
1558441832782069,0,-1,-3,-2,0,-2,5,0
1558441832782069,0,-2,-4,-3,-3,-10,-3,0
1558441832789053,-4,-3,1,1,-2,3,-6,-6
1558441832789053,-2,0,-1,-4,-7,-9,-4,-1
1558441832805010,-2,0,-1,-4,1,3,3,2
1558441832805010,-3,-3,-5,-1,-9,0,-8,-5
1558441832806010,-2,-2,5,3,3,-4,5,-1
1558441832806010,-2,-4,-4,-1,-3,-6,-3,-5
1558441832820966,0,2,1,-3,-2,-5,-1,-1
1558441832820966,-1,-1,-6,-7,0,4,0,1
1558441832826981,4,3,4,3,9,8,4,4
1558441832826981,-3,-4,-10,-4,-10,-3,-6,-5
1558441832842216,-2,-1,-2,-6,-4,2,-4,-1
1558441832842216,-3,-1,1,3,0,0,-2,-4
1558441832849909,-2,0,-2,-4,0,-9,-3,1
1558441832849909,-1,-3,-3,-2,2,1,5,-1
1558441832864848,0,-2,1,2,-4,-6,-5,-6
1558441832864848,0,0,2,6,11,12,4,1
1558441832865845,2,0,-1,-10,-11,-3,-1,1
1558441832865845,0,-1,-1,1,0,-10,3,2
1558441832880805,-2,-2,-5,-1,-2,0,-2,-1
1558441832880805,-2,-4,2,-3,5,10,4,1
1558441832886789,-3,-5,-6,0,-12,-3,-9,-3
1558441832886789,0,4,3,1,7,9,5,3
1558441832901979,2,1,1,7,2,1,2,0
1558441832901979,2,3,8,3,3,3,10,5
