timestamp,emg1,emg2,emg3,emg4,emg5,emg6,emg7,emg8
1558438949425815,-2,-1,0,0,-4,-5,-7,-4
1558438949425815,0,0,-1,-4,4,12,5,-1
1558438949431799,-5,-5,-3,2,0,1,-1,-2
1558438949431799,-1,-2,-2,0,-6,-6,-4,0
1558438949431799,1,0,1,-3,2,-4,4,3
1558438949431799,-1,-1,-5,-1,-6,-12,-5,-2
1558438949433794,2,7,9,6,3,1,2,1
1558438949433794,-3,-2,-10,-4,-3,1,-2,-3
1558438949444765,-4,-5,-3,-6,-9,-5,-12,-7
1558438949444765,1,-3,-1,5,2,5,2,0
1558438949455734,0,-4,-14,-5,5,-6,9,4
1558438949455734,2,1,3,-7,-2,2,-1,-1
1558438949459724,-1,1,3,6,-1,9,-2,-1
1558438949459724,-5,-2,-3,-6,-14,-11,-9,-5
1558438949474684,1,2,6,7,6,-6,-2,1
1558438949474684,1,1,1,-4,1,-1,2,0
1558438949482662,-2,-3,-1,1,4,8,3,-2
1558438949482662,-1,0,-3,-1,-1,0,-2,-1
1558438949490642,-3,-3,-4,-6,-5,5,-5,-6
1558438949490642,0,-2,1,4,-4,-11,0,0
1558438949504604,0,1,-1,1,6,2,3,0
1558438949504604,1,0,3,-1,3,6,0,0
1558438949514577,-2,1,1,3,-2,5,-1,-1
1558438949514577,-5,-3,-3,-4,-2,-5,-8,-3
1558438949551478,2,1,0,-1,4,0,1,1
1558438949551478,2,2,0,-3,-6,-2,3,2
1558438949552475,-4,-4,0,3,0,-1,0,-1
1558438949552475,-2,2,3,-4,0,1,0,0
1558438949553472,-1,0,-12,-2,1,-6,-1,1
1558438949553472,3,1,4,2,-1,-3,-3,-1
1558438949556466,-1,-2,0,-4,-4,2,-3,-3
1558438949556466,-2,-5,-8,-8,-10,0,-2,-2
1558438949564444,3,2,7,11,14,9,10,6
1558438949564444,-2,-4,-6,-5,-6,-8,-3,-2
1558438949573420,2,3,4,-2,-2,3,1,-1
1558438949573420,1,0,-7,1,-4,-7,-3,-2
1558438949579409,-3,-2,-3,-4,-4,1,-2,-4
1558438949579409,-1,-1,5,5,12,5,1,-1
1558438949594365,0,2,-3,-6,-7,-3,0,-1
1558438949594365,-1,0,3,7,9,4,2,0
1558438949601344,-2,-2,1,-2,-5,2,-2,-1
1558438949601344,-2,-1,-2,-5,-2,-3,-6,-3
1558438949610322,-1,-3,-4,5,4,-3,2,1
1558438949610322,0,1,-1,-2,3,-1,0,2
1558438949624285,-3,-2,0,0,-10,-8,-10,-5
1558438949624285,-1,-2,1,-5,-3,6,-1,-3
1558438949633260,0,1,-3,-1,5,-5,-1,1
1558438949633260,-2,-1,-2,-4,-8,-6,-2,-3
1558438949639248,-3,-10,-7,-3,4,-2,-1,1
1558438949639248,-3,0,2,3,-2,1,0,-1
1558438949654203,-1,-4,-3,0,-3,-5,-11,-6
1558438949654203,0,2,-1,0,8,9,8,2
1558438949661185,1,2,11,1,-1,7,3,0
1558438949661185,-2,-2,-12,-1,1,1,2,2
1558438949670161,-1,0,-5,-4,3,4,2,2
1558438949670161,1,2,5,4,-3,-10,-6,-2
1558438949684124,1,0,-3,-10,-16,-16,-7,-6
1558438949684124,2,2,7,5,14,14,5,1
1558438949693100,-4,-6,-7,-5,-9,-11,-6,-3
1558438949693100,-2,-3,-4,-1,-2,4,-1,-3
1558438949699083,2,0,0,2,8,4,6,3
1558438949699083,-2,-1,2,0,-3,-2,-4,-3
1558438949714043,-1,-2,-1,-1,-5,-1,-2,-2
1558438949714043,-2,-2,1,0,-1,-6,-3,0
1558438949722023,-2,1,0,-4,-7,-3,-6,-3
1558438949722023,-2,-1,1,-1,-6,0,-1,-2
1558438949730000,0,-1,-4,-2,3,2,5,2
1558438949730000,-3,-1,-3,1,6,-1,1,0
1558438949743964,0,-1,-3,-3,-4,1,0,-1
1558438949743964,1,3,-1,0,-1,-9,-5,0
1558438949752940,2,5,12,3,5,9,0,-3
1558438949752940,-6,-8,-10,-10,-11,-1,-6,-5
1558438949758923,-2,-2,-3,-1,-3,-10,-7,-1
1558438949758923,-2,-3,-12,-5,-4,-1,3,0
1558438949773882,2,4,8,2,7,1,5,1
1558438949773882,1,2,3,2,0,4,3,-1
1558438949781865,-5,-4,-8,-5,-5,0,-6,-6
1558438949781865,-2,-2,0,-1,-7,-13,-4,0
1558438949796822,-1,-1,-1,4,6,5,3,-2
1558438949796822,0,0,4,-3,-6,0,-8,-6
1558438949803803,0,0,-5,-2,-4,-4,4,-1
1558438949803803,3,2,6,-1,8,-6,3,4
1558438949812780,-5,-5,-11,-1,-6,0,-5,-3
1558438949812780,0,-1,2,-4,0,3,-1,0
1558438949818764,2,3,4,4,4,5,0,-2
1558438949818764,-2,-3,-5,-2,-7,-7,-7,-3
1558438949833724,-2,-3,-2,-7,-15,-3,-5,-3
1558438949833724,1,1,-4,0,4,-1,0,0
1558438949841702,-2,-1,1,0,0,-6,-2,-2
1558438949841702,0,0,2,1,3,9,3,0
1558438949856662,0,-2,-2,-2,-1,-1,-5,-2
1558438949856662,-1,-2,0,-2,-4,-7,1,-1
1558438949863643,1,3,9,4,11,14,6,3
1558438949863643,-1,0,-2,-2,-6,-5,-3,-4
1558438949872620,0,3,1,-3,4,4,2,3
1558438949872620,-6,-9,-10,-3,-3,-12,0,1
1558438949878603,-1,0,-1,0,1,1,-4,-2
1558438949878603,-2,0,0,-3,-6,2,-1,-3
1558438949894561,0,-1,2,-1,3,-1,-5,-1
1558438949894561,-1,-1,2,4,-4,3,-3,-1
1558438949901542,1,-2,1,3,1,-10,-2,-2
1558438949901542,-2,-1,0,-3,0,-1,-1,-1
1558438949916503,-1,-2,-8,-2,-3,5,0,0
1558438949916503,2,1,0,2,1,4,-2,0
1558438949924480,2,1,4,0,7,-6,1,2
1558438949924480,-2,1,-7,-2,-1,-2,-5,-3
1558438949933456,-3,-4,3,-2,-8,-12,-2,-1
1558438949933456,2,1,6,1,4,9,1,1
1558438949939441,-2,0,-4,0,-2,3,2,-1
1558438949939441,-4,-4,-5,0,7,3,1,0
1558438949954401,0,1,1,-3,0,-6,-1,1
1558438949954401,0,2,6,-1,-3,-1,-2,-1
1558438949961383,-3,-6,-8,-6,-8,-9,-3,-1
1558438949961383,1,1,1,7,5,1,-4,-4
1558438949976343,-2,1,-4,-2,-5,-9,-1,2
1558438949976343,3,1,2,-3,3,2,2,0
1558438949984321,-7,-3,-1,-1,-3,-4,-5,-3
1558438949984321,1,-2,5,0,0,8,1,-2
1558438949993296,-1,-4,-11,-1,0,-3,0,-1
1558438949993296,0,-1,-5,3,1,-4,1,-1
1558438949999281,0,-1,-4,-11,-5,4,2,1
1558438949999281,-2,0,0,-2,-2,1,3,0
1558438950014244,0,2,9,1,1,7,-1,-1
1558438950014244,-1,-2,-7,-7,-3,-7,-6,-1
1558438950021223,-3,-3,-2,2,-2,2,-5,-3
1558438950021223,2,0,0,-5,-3,-3,6,4
1558438950036184,1,4,8,2,4,-2,0,0
1558438950036184,-4,-5,-6,-1,-2,1,1,-2
1558438950044172,2,-1,1,1,2,4,-2,-2
1558438950044172,-1,-2,-4,-5,-2,-9,-1,0
1558438950053138,-1,-7,-9,-1,-4,-2,0,-1
1558438950053138,-2,2,2,-2,-3,5,-1,-3
1558438950067101,-1,-1,-2,-3,-7,-3,-4,-3
1558438950067101,1,-2,1,4,-3,-10,-3,-3
1558438950074083,0,-2,2,-1,13,11,9,2
1558438950074083,0,0,2,1,-1,-2,-2,0
1558438950082058,-2,-2,-3,-3,-8,-4,-4,-3
1558438950082058,-3,-2,-5,-4,-4,1,-10,-4
1558438950097019,2,2,4,3,1,-12,1,2
1558438950097019,0,1,3,3,5,-3,2,0
1558438950104001,-2,0,-1,-7,1,7,4,0
1558438950104001,-2,-1,-1,0,-4,1,-5,-2
1558438950112976,-2,-1,-5,-6,-9,-4,-9,-7
1558438950112976,0,4,5,1,-1,-6,3,2
1558438950126941,-1,-2,5,3,8,3,-2,-2
1558438950126941,-4,-4,-14,-7,-1,-2,1,-1
1558438950133923,0,-1,0,-1,-1,0,-1,0
1558438950133923,0,0,-1,-2,-3,-5,-5,-3
1558438950141899,0,-2,3,6,3,4,0,-2
1558438950141899,2,2,2,-6,-9,1,-1,0
1558438950156859,-5,-2,6,6,3,3,0,-1
1558438950156859,0,-2,-6,-7,-5,-3,4,2
1558438950172817,2,2,2,3,-1,-7,-2,0
1558438950172817,1,2,4,4,8,12,-1,-1
1558438950178801,2,1,3,-1,3,0,1,1
1558438950178801,-1,-4,-6,-1,-2,-2,-3,-5
1558438950186779,0,0,-5,-1,-2,-4,-1,1
1558438950186779,-1,0,-1,0,-1,0,-1,3
1558438950193760,-2,-2,-2,-1,0,1,0,0
1558438950193760,0,-1,3,0,-1,3,3,0
1558438950201740,-1,-1,-2,-3,-4,-1,2,0
1558438950201740,0,-2,-3,-5,-6,-8,-9,-5
1558438950216701,-2,-2,-2,2,5,4,0,1
1558438950216701,2,1,3,-4,-6,-5,-2,0
1558438950223681,-1,-1,-2,-3,-1,-2,0,-3
1558438950223681,-3,-2,-1,3,6,6,5,0
1558438950232656,-3,-4,-8,-10,-16,-3,-6,-6
1558438950232656,-2,-1,0,-1,4,-3,-3,-2
1558438950247617,-3,-3,1,0,-8,-10,-6,-1
1558438950247617,-1,-2,-2,-1,-4,-7,-1,-2
1558438950253600,-1,-1,-2,-2,3,0,-1,-2
1558438950253600,-1,0,-7,-6,-4,1,1,2
1558438950261594,1,3,5,6,7,4,2,1
1558438950261594,-2,-2,-2,-4,-6,-4,-4,-4
1558438950276539,1,-1,-1,-2,-9,-3,-7,-2
1558438950276539,-4,-2,1,0,-3,-4,-3,-3
1558438950284518,2,0,-2,1,5,9,7,3
1558438950284518,0,2,0,-2,5,3,1,1
1558438950293494,-1,2,-3,1,-2,7,2,1
1558438950293494,-5,-6,0,2,5,-6,-6,-3
1558438950307469,-1,0,-5,-6,-11,-9,-7,-4
1558438950307469,-1,-4,-3,1,-4,-10,-3,-2
1558438950314438,0,3,5,0,9,12,7,3
1558438950314438,-2,0,-2,2,0,-4,-4,-2
1558438950321421,-3,-2,-4,2,1,4,0,-2
1558438950321421,0,-3,-1,-2,2,6,2,0
1558438950336379,-1,0,5,0,-3,-14,-4,-3
1558438950336379,1,0,-4,-3,-5,2,-3,0
1558438950344357,-2,1,3,-2,1,6,-1,0
1558438950344357,-1,0,-5,2,5,0,1,1
1558438950353334,0,-3,-5,-9,-12,-2,0,-3
1558438950353334,1,1,5,3,6,6,0,-3
1558438950367296,1,-2,3,-3,-1,-1,0,-2
1558438950367296,0,3,1,2,4,-3,4,4
1558438950374279,-2,0,-2,1,1,-1,3,1
1558438950374279,-4,-8,-3,2,-4,-7,-4,-2
1558438950381258,-2,-2,-6,-7,-1,6,-1,-1
1558438950381258,-1,-4,1,2,-6,-3,-1,-2
1558438950396219,2,2,0,1,5,-1,-4,-1
1558438950396219,2,3,-2,-3,1,9,6,2
1558438950404197,-5,-3,-4,-1,-1,-1,0,-2
1558438950404197,0,2,6,0,1,-2,-4,-2
1558438950413173,-5,-4,-8,-6,-9,-3,-2,-1
1558438950413173,0,0,1,2,6,0,2,3
1558438950427137,2,3,5,0,-2,-6,2,-2
1558438950427137,-5,-6,-5,-4,-5,0,-5,-5
1558438950434118,-1,0,-2,-4,-10,-8,-4,-3
1558438950434118,0,1,0,1,3,-1,-2,-4
1558438950441099,2,-1,0,3,-3,-1,-1,1
1558438950441099,2,3,13,7,3,-9,3,3
1558438950457056,-1,-3,-9,-3,9,9,5,1
1558438950457056,-1,-3,-3,-3,-3,3,-2,-1
1558438950473014,1,0,0,1,4,4,3,2
1558438950473014,-2,1,2,-3,-10,-7,-8,-3
1558438950474011,-1,-3,-1,-1,-4,-11,-7,-2
1558438950474011,0,-2,-1,0,-10,-8,-1,-1
1558438950486980,-2,-3,-6,-10,6,14,5,0
1558438950486980,-1,3,5,1,6,12,3,-1
1558438950493957,-2,0,2,3,-4,-12,-4,-3
1558438950493957,-5,-7,-6,-8,-4,-6,-5,-2
1558438950501936,-3,-3,-5,3,-1,4,-3,-2
1558438950501936,3,-1,-5,-1,1,-9,-1,2
1558438950516896,-1,3,1,0,-6,0,-3,-3
1558438950516896,3,5,5,-2,-3,-2,-1,0
1558438950523877,-4,-3,4,2,-7,-9,-8,-5
1558438950523877,-2,-4,-10,-1,9,17,14,6
1558438950538837,1,-2,-5,-2,0,-3,-4,-2
1558438950538837,-2,-2,-2,1,-1,8,-2,-2
1558438950547813,-1,1,2,-7,-7,-11,-2,0
1558438950547813,-2,0,-2,-1,-7,0,-1,-2
1558438950562774,0,0,6,4,8,14,5,2
1558438950562774,-2,2,3,1,6,0,6,0
1558438950562774,0,0,-4,-1,-7,-6,-5,-3
1558438950562774,-2,-3,0,0,-8,-6,-5,-4
1558438950576735,1,0,-5,-2,1,-5,8,5
1558438950576735,1,0,1,0,1,-2,-5,-2
1558438950583716,0,-1,-3,0,-3,-7,-5,-3
1558438950583716,-3,-4,-5,-7,-9,0,-5,-5
1558438950598677,-1,0,10,4,8,5,3,1
1558438950598677,0,0,-1,2,3,4,3,3
1558438950607657,-4,-6,-8,-5,-5,-6,-4,-4
1558438950607657,0,-1,5,1,5,8,2,1
1558438950622614,-3,-5,-5,-4,-6,-9,-7,-4
1558438950622614,-1,-2,-9,-11,-17,-7,-5,-6
1558438950622614,2,2,5,6,8,2,3,1
1558438950622614,1,3,5,9,5,-5,-2,3
1558438950636575,-3,-3,-5,-7,-4,5,-6,-6
1558438950636575,-2,-3,-2,-2,0,-2,-2,-3
1558438950644555,1,-1,-1,0,-1,-8,1,2
1558438950644555,-2,-1,0,-2,2,6,-1,-1
1558438950659513,1,2,2,-1,-4,2,0,1
1558438950659513,-3,-4,-2,-1,-4,-9,-3,-2
1558438950666495,-1,-3,-3,-1,-7,-5,-2,-3
1558438950666495,1,4,5,0,11,9,9,3
1558438950683692,1,-2,-2,4,5,-1,0,0
1558438950683692,-3,-3,-5,-5,-5,2,-3,-3
1558438950683692,-2,-3,-4,-2,-8,-4,-5,1
1558438950683692,-1,-3,-2,-1,1,-5,-2,0
1558438950696415,1,2,9,3,5,-1,-2,-1
1558438950696415,0,1,-2,3,3,8,3,3
1558438950704395,0,2,-1,2,1,0,-1,-1
1558438950704395,-1,-3,-4,-7,-10,-4,-8,-6
1558438950719355,-6,-5,-1,-3,-6,-8,-5,-1
1558438950719355,-2,0,2,1,-1,-11,2,3
1558438950734314,2,-1,1,2,11,9,1,2
1558438950734314,-4,-3,-6,-7,-16,-10,-7,-6
1558438950742292,-1,-2,-5,0,-7,-6,1,1
1558438950742292,0,2,4,-3,18,27,12,5
1558438950743290,-1,-1,1,1,-1,-4,-3,-2
1558438950743290,0,-1,-2,-2,-2,-5,3,0
1558438950756255,-1,-2,-3,0,-7,-13,-8,-5
1558438950756255,-3,-4,-2,-2,-9,-6,-10,-6
1558438950772213,2,-1,1,0,10,11,6,2
1558438950772213,-3,-2,-2,1,4,0,-2,1
1558438950779195,0,-4,0,3,0,-6,-2,-2
1558438950779195,-2,0,-2,-3,-10,-6,-6,-3
1558438950786176,-1,2,2,-1,-1,5,3,0
1558438950786176,-3,-5,-9,-5,-10,-7,-7,-4
1558438950802134,-3,-1,-4,-3,-4,-1,-3,-1
1558438950802134,-1,1,5,5,8,-3,-1,1
1558438950803130,-2,2,1,-8,-8,0,0,-2
1558438950803130,-1,-3,-2,2,2,5,3,-1
1558438950816095,-2,-1,-1,-2,1,2,-2,0
1558438950816095,-2,-4,-8,-4,0,5,-2,-3
1558438950824074,-1,2,4,3,-2,-13,-2,1
1558438950824074,0,3,-2,-1,-6,-3,0,0
1558438950839035,0,3,0,0,9,11,3,-1
1558438950839035,-2,-7,-1,-1,-8,-7,-3,-3
1558438950847012,0,1,4,3,7,3,2,2
1558438950847012,-2,-4,-6,-2,1,2,-1,-3
1558438950863967,1,0,2,2,-1,2,0,1
1558438950863967,2,1,0,-1,-5,-1,0,0
1558438950863967,-4,-5,-10,-13,-11,-2,-2,-6
1558438950863967,-3,-3,-2,-4,-3,-8,-3,-1
1558438950876932,0,3,5,0,4,-1,0,-1
1558438950876932,-4,-2,-7,-1,3,4,1,-2
1558438950883915,-2,-1,-3,1,-1,6,1,1
1558438950883915,3,3,4,4,3,-7,-1,3
1558438950898874,-3,-1,1,-2,-5,-2,-4,-3
1558438950898874,-1,-2,1,-4,0,-6,-2,1
1558438950906852,-4,-5,-10,-5,1,-2,-2,-2
1558438950906852,0,-2,3,3,0,0,1,-1
1558438950921813,-2,-3,-2,-1,-6,-9,-7,-1
1558438950921813,3,4,5,6,5,1,5,2
1558438950922809,-2,2,0,4,3,-3,-7,-3
1558438950922809,-1,-1,-1,-3,0,7,-1,-1
1558438950936772,-1,-6,-7,-6,-8,-9,1,0
1558438950936772,0,0,-2,0,2,1,2,1
1558438950943753,1,-1,2,1,-4,-7,1,0
1558438950943753,-1,1,5,0,-2,-1,-2,-2
1558438950958713,0,-3,-4,-2,2,1,1,0
1558438950958713,-2,0,0,2,-2,-1,0,-3
1558438950966692,-3,-6,-3,-4,1,4,4,-1
1558438950966692,0,0,2,-1,-4,1,-5,-1
1558438950982649,-1,-1,-6,-3,2,-1,3,1
1558438950982649,1,1,2,3,5,0,2,1
1558438950982649,-2,0,-4,-3,-11,-4,-8,-6
1558438950982649,-3,-3,1,0,1,0,-5,-3
1558438950996612,2,0,2,-3,1,2,4,2
1558438950996612,-1,0,3,3,1,-3,3,1
1558438951003594,2,1,-1,5,6,-3,0,3
1558438951003594,-2,-3,-7,-9,-11,-2,-6,-5
1558438951018553,-1,0,-3,-1,-2,4,-6,-3
1558438951018553,-2,-3,1,-2,-11,-4,-5,-4
1558438951026567,-1,-5,1,-1,-4,-17,-3,0
1558438951026567,-1,-3,0,7,12,0,4,0
1558438951041493,-1,1,-6,-5,5,12,10,3
1558438951041493,-2,2,-2,-7,-6,1,-5,-4
1558438951049471,-2,-3,1,0,1,5,1,0
1558438951049471,-2,0,1,-2,-7,-8,-4,-1
1558438951056452,-2,1,5,3,3,7,2,-1
1558438951056452,1,0,-6,0,-2,-3,-6,-1
1558438951064430,0,1,2,0,1,-10,2,1
1558438951064430,-2,1,-1,0,5,4,0,-1
1558438951079391,-5,-5,-3,-5,-7,-7,-2,-5
1558438951079391,-2,-1,-1,-1,4,10,9,3
1558438951086372,0,-3,4,1,-3,-1,-5,-1
1558438951086372,0,0,-5,-3,4,0,4,1
1558438951101332,-1,0,2,4,0,-2,-4,2
1558438951101332,0,0,-1,-1,0,-8,-8,-3
1558438951109310,2,-1,-1,-2,-7,-2,-7,-5
1558438951109310,-2,1,1,3,4,6,4,0
1558438951116292,1,-1,4,1,-1,-8,0,-1
1558438951116292,-3,-3,-2,-2,-2,-2,-3,0
1558438951124307,-2,4,5,1,2,6,3,0
1558438951124307,-3,-3,-3,-2,-9,-5,-8,-5
1558438951139230,-4,-6,-11,-11,-9,-2,-6,-5
1558438951139230,0,-2,3,6,2,-7,2,2
1558438951146246,-1,-2,-2,-4,15,9,6,1
1558438951146246,-1,0,-4,-6,-8,-11,-4,-4
1558438951161172,-2,0,1,-1,-1,10,3,-1
1558438951161172,1,1,4,4,7,3,3,3
1558438951170190,-1,0,-4,-5,-4,-2,-2,0
1558438951170190,0,1,-7,-3,-2,1,-1,-1
1558438951185148,-3,-5,0,-2,-10,-10,-11,-5
1558438951185148,-3,-4,2,0,-1,5,-1,-2
1558438951185148,-2,-2,-10,-2,-6,-8,-1,-1
1558438951185148,1,-2,2,0,5,-4,0,2
1558438951207488,5,4,1,4,1,-3,1,2
1558438951207488,-4,-1,-1,-5,-5,3,-2,-4
1558438951208048,-2,-1,0,-5,-14,3,-4,-3
1558438951208048,0,0,5,1,6,-4,6,4
1558438951222010,-1,0,2,8,10,5,1,5
1558438951222010,-1,-2,-7,-10,-6,-4,-6,-5
1558438951230439,-2,-5,-7,-3,-6,-3,-4,-3
1558438951230439,0,-1,4,4,2,5,0,1
1558438951244947,2,-1,2,-1,4,10,7,1
1558438951244947,-1,-1,-6,-2,2,-13,-5,-1
1558438951245946,-3,-4,-2,0,-5,-2,-6,-4
1558438951245946,-2,-2,-3,1,-5,1,-5,-2
1558438951258939,-2,0,6,0,7,4,6,1
1558438951258939,-2,1,-4,-2,-10,-11,-3,-1
1558438951267323,-1,1,1,-1,-1,-5,-2,-1
1558438951267323,0,-2,2,4,2,0,-3,-4
1558438951281850,-1,-1,-8,-5,-8,-11,-3,-2
1558438951281850,2,0,-1,0,8,13,6,2
1558438951289831,-1,1,3,1,3,-1,0,0
1558438951289831,-1,0,-4,-2,-3,5,0,-1
1558438951304796,-4,-5,4,3,-6,-2,-8,-6
1558438951304796,2,0,-6,-5,-1,-4,0,-2
1558438951305814,1,-2,-6,-2,5,-1,-1,0
1558438951305814,-2,1,1,-2,0,2,4,2
1558438951318751,-1,-1,-1,0,-6,-2,0,1
1558438951318751,-2,-5,-4,-1,-4,-2,-4,-2
1558438951326729,-1,-1,2,-1,-4,4,-1,-1
1558438951326729,-1,2,-2,-4,-2,-3,-1,-1
1558438951341688,-1,-4,-9,-5,5,5,-2,-1
1558438951341688,-1,-1,8,3,-2,0,-1,-2
1558438951349667,-2,-2,-7,-3,-4,-5,-1,-2
1558438951349667,-1,-4,-3,-4,-1,-4,1,2
1558438951372607,3,4,3,3,7,-4,-1,2
1558438951372607,-1,-3,-3,5,0,4,-6,-5
1558438951373605,-2,-4,-1,-7,-5,1,-5,-3
1558438951373605,1,1,4,1,-5,1,3,-1
1558438951378593,-1,0,-1,-2,-5,-8,-1,-1
1558438951378593,-3,-1,0,-4,1,-7,-3,0
1558438951386576,2,2,3,7,17,19,16,8
1558438951386576,1,-1,5,1,7,5,2,0
1558438951401566,-3,-5,-3,-9,-16,-9,-6,-7
1558438951401566,-1,-1,-3,-1,-2,0,-5,-1
1558438951409507,2,3,5,2,0,-1,1,-1
1558438951409507,-4,-4,-12,-6,-2,-2,-2,-1
1558438951424494,-1,0,0,-1,1,2,-2,0
1558438951424494,0,0,2,1,-2,-2,2,3
1558438951425466,1,-1,3,0,-1,-2,-2,0
1558438951425466,1,0,1,-1,5,2,1,1
1558438951439429,0,0,-4,2,-3,-4,-2,-2
1558438951439429,-2,1,-1,1,7,8,4,0
1558438951446410,-3,-3,-5,-6,-11,-10,-7,-3
1558438951446410,0,-1,-3,-4,-14,-15,-8,-4
1558438951461371,1,2,7,3,17,0,7,2
1558438951461371,0,-3,-6,-5,-2,0,3,0
1558438951469349,-4,-4,6,6,4,5,1,-1
1558438951469349,-5,-2,-7,-1,-7,-1,-10,-4
1558438951484308,0,1,0,-7,-5,-5,0,0
1558438951484308,-1,-5,-10,-4,-5,0,-3,-4
1558438951485305,2,0,0,3,10,5,9,6
1558438951485305,0,0,6,1,-3,-8,-2,0
1558438951499302,-2,-3,-2,-1,-4,-2,-6,-3
1558438951499302,-1,1,2,-1,2,6,2,1
1558438951506249,0,1,3,1,-3,-10,-4,-2
1558438951506249,-1,-4,-7,5,8,13,3,-2
1558438951521209,0,-1,-6,-3,-5,-8,-1,1
1558438951521209,-1,0,0,-5,-5,-10,-3,-1
1558438951530212,-3,-2,-5,0,-10,-3,-9,-6
1558438951530212,-4,-5,-3,-3,-6,3,0,-2
1558438951545145,1,2,2,7,5,-4,3,0
1558438951545145,-1,-4,-2,-8,6,4,5,3
1558438951545145,0,0,0,1,2,5,2,0
1558438951545145,-1,-1,2,-1,2,-3,-5,-2
1558438951559143,-4,-2,-3,-5,-8,7,-3,-5
1558438951559143,0,2,4,5,1,-15,0,2
1558438951566089,2,0,0,-3,6,-2,2,2
1558438951566089,0,-3,-3,-8,-8,-3,-2,-3
1558438951582045,-2,0,-1,2,0,2,-1,-1
1558438951582045,-1,5,3,2,3,0,-2,-3
1558438951590024,-3,-4,-5,-2,0,3,-3,-4
1558438951590024,1,-1,-7,-2,-6,-13,1,0
1558438951604987,1,3,4,3,6,5,-1,-1
1558438951604987,-3,-2,-4,-6,-9,5,-5,-4
1558438951604987,-3,-7,-4,-1,0,-2,1,-3
1558438951604987,-2,-2,4,1,-2,-5,-2,0
1558438951619324,0,-3,-5,-5,-7,-5,-5,0
1558438951619324,2,1,2,5,7,8,1,-1
1558438951627425,-1,-1,-6,-8,-5,-9,-1,-1
1558438951627425,-1,-1,-2,-2,-1,-4,-2,-1
1558438951641889,-4,-3,-1,-3,-8,-5,-7,-4
1558438951641889,1,-2,0,-1,3,11,3,0
1558438951650185,-1,0,2,0,-4,-4,-2,-1
1558438951650185,2,2,6,3,5,-3,5,4
1558438951665155,-3,-2,-3,0,-1,9,2,-2
1558438951665155,-2,-6,-13,-4,-16,-10,-8,-3
1558438951665824,1,1,-1,-5,3,-2,1,2
1558438951665824,-2,0,0,0,2,1,4,0
1558438951679948,-4,-4,-3,0,6,0,1,0
1558438951679948,-1,-1,5,0,-3,-10,-3,-3
1558438951686767,-1,0,-3,-4,-3,0,0,-2
1558438951686767,-3,-3,1,-1,-2,-2,-1,-2
1558438951702062,0,-1,1,1,5,6,-3,0
1558438951702062,-1,0,-1,1,2,3,4,2
1558438951709989,-1,2,-3,1,-8,-9,-8,-2
1558438951709989,-1,-3,-3,-2,1,8,-1,-2
1558438951724950,1,1,2,-1,-4,-14,-1,-1
1558438951724950,0,-2,-1,0,2,-2,-2,-2
1558438951725664,-1,-3,-1,-4,-11,-3,-2,-1
1558438951725664,0,2,3,0,8,9,3,1
1558438951738630,-3,-3,-5,-3,-6,-6,2,-1
1558438951738630,-1,2,2,1,1,-5,0,-1
1558438951746635,-3,0,2,4,4,9,1,1
1558438951746635,-3,-4,-11,-12,-11,-4,-8,-4
1558438951761665,2,0,1,0,0,-2,2,2
1558438951761665,0,1,1,2,2,0,4,-1
1558438951769651,-1,-2,-1,2,7,4,-2,-1
1558438951769651,-3,-7,1,2,1,-3,-3,0
1558438951784610,-1,-2,3,-3,-5,2,-3,-1
1558438951784610,-4,-7,-8,-8,-8,3,-1,-3
1558438951785573,-1,4,6,3,-2,-8,-2,-2
1558438951785573,-1,2,-8,2,5,-9,4,4
1558438951799536,-1,-4,0,-6,-4,3,-1,-1
1558438951799536,-1,0,12,3,2,2,-1,-3
1558438951806546,-3,-7,-14,-6,-6,-5,-5,-5
1558438951806546,1,1,-1,-1,-4,7,-2,-2
1558438951822513,1,0,0,2,13,4,9,3
1558438951822513,-1,0,1,-3,-7,-3,-4,0
1558438951830218,-2,0,4,1,-2,0,4,1
1558438951830218,-1,2,4,4,9,5,3,1
1558438951845184,-2,-1,-3,0,-3,-1,-6,-3
1558438951845184,-3,-2,1,-2,4,2,-1,-2
1558438951845184,-1,-2,-1,-5,-6,-1,-2,0
1558438951845184,-1,-2,0,-1,-4,-2,-2,-2
1558438951859147,3,2,4,1,2,3,1,2
1558438951859147,-3,-3,-9,-2,-1,-2,1,-2
1558438951866156,1,-1,4,2,0,-4,-1,1
1558438951866156,0,-1,-8,-4,-6,-5,-5,-2
1558438951881089,-3,-2,-2,0,-1,-3,-6,-2
1558438951881089,2,2,5,3,-2,-8,-4,-1
1558438951890098,0,-5,-7,-3,-4,2,2,-1
1558438951890098,-2,1,5,-1,-10,2,-4,-4
1558438951905024,0,0,-2,1,7,6,2,0
1558438951905024,1,-1,-4,-2,5,5,5,3
1558438951905024,1,0,2,4,9,5,3,-1
1558438951905024,0,-1,4,-1,-4,-13,-6,0
1558438951919018,-3,-3,-3,2,-5,7,0,-5
1558438951919018,-1,1,0,-1,2,0,-1,1
1558438951926994,-1,1,-1,1,-6,-2,-4,-2
1558438951926994,-3,-1,-2,-4,0,4,0,0
1558438951949905,1,3,1,0,0,-16,4,2
1558438951949905,-2,-2,0,2,1,0,-2,1
1558438951956911,1,0,4,3,-2,-4,-8,-2
1558438951956911,-2,-1,-7,-8,1,5,2,0
1558438951963893,-2,-4,-5,-1,-4,0,-8,-2
1558438951963893,1,1,1,2,5,-5,1,2
1558438951971847,-2,-4,1,-2,-5,-6,-4,-3
1558438951971847,-1,-1,-4,5,8,9,9,3
1558438951978826,0,2,0,0,8,4,3,0
1558438951978826,-1,-1,-4,-5,-4,3,-2,-5
1558438951986804,-3,-2,-2,-3,-1,1,-2,-2
1558438951986804,-1,-1,3,0,-3,-10,-3,-1
1558438952001763,0,0,0,2,-2,-3,-2,-2
1558438952001763,-2,-4,-7,-1,-5,-5,-2,1
1558438952009742,0,0,-3,-4,-2,0,2,-1
1558438952009742,0,0,1,1,-1,2,-3,-4
1558438952023893,-3,-3,-2,-6,-10,-9,-8,-3
1558438952023893,0,1,6,4,-5,1,-1,-3
1558438952032855,0,0,0,-1,5,-9,4,1
1558438952032855,-1,-1,0,-3,-4,-10,-3,-2
1558438952039663,0,-2,-3,0,3,7,3,-1
1558438952039663,-2,-2,0,0,3,8,2,-2
1558438952046832,-3,-4,-8,-8,-12,-11,-6,-2
1558438952046832,2,0,2,1,3,6,2,0
1558438952061605,-1,1,0,-2,2,1,-2,0
1558438952061605,-1,1,-4,-4,-3,3,2,-2
1558438952069670,-2,-3,1,2,5,12,7,3
1558438952069670,-2,-4,-4,-2,-8,-13,-7,-3
1558438952092678,0,3,0,-3,5,-3,-1,1
1558438952092678,-1,-2,-2,1,-2,2,-7,-2
1558438952093517,3,5,3,-3,-9,-15,-4,0
1558438952093517,0,-2,-1,1,-1,-5,-1,-1
1558438952107509,-4,-5,-1,-3,-7,3,-2,-1
1558438952107509,-1,-2,-6,-6,-2,-11,-7,-2
1558438952107509,-4,-4,-2,1,4,12,3,-3
1558438952107509,0,1,0,-1,0,-5,0,0
1558438952121443,-1,0,-1,0,1,5,5,1
1558438952121443,-2,-1,4,1,-9,-8,-3,1
1558438952129454,-2,0,-1,0,0,5,-4,-2
1558438952129454,-2,1,-3,0,-3,-3,-3,-3
1558438952144383,-2,-3,-2,-5,-3,-5,1,-1
1558438952144383,1,-1,-2,0,4,-5,5,3
1558438952152524,-1,1,-3,2,5,0,0,-2
1558438952152524,0,2,2,-1,-1,-4,-4,-1
1558438952167353,0,0,-2,-2,-4,-3,0,-2
1558438952167353,1,-2,-3,-3,-7,-4,-4,0
1558438952168353,-3,-3,-3,-2,2,8,2,0
1558438952168353,-1,1,0,-2,2,2,0,0
1558438952181313,0,-3,7,4,9,3,6,2
1558438952181313,-3,-4,-5,-3,6,-1,3,0
1558438952189291,-1,-2,-1,-1,3,4,-1,-1
1558438952189291,-2,-3,-2,-3,-5,13,2,-2
1558438952204225,0,2,-1,3,-3,-13,-7,-3
1558438952204225,-1,4,3,-2,2,0,-4,-2
1558438952212233,-2,-6,-6,-8,-5,-1,0,-2
1558438952212233,-3,0,-1,5,5,5,7,1
1558438952227198,1,1,-1,0,4,5,2,2
1558438952227198,1,0,-5,-2,-2,-5,-2,0
1558438952228159,-3,1,-1,-1,-3,-1,-6,-3
1558438952228159,-2,-4,-2,-5,-3,-7,-2,-3
1558438952241274,-2,-2,-5,-3,-6,2,-3,-3
1558438952241274,1,1,6,4,3,-2,3,-1
1558438952250204,2,0,5,2,-3,-1,-2,0
1558438952250204,1,-2,-5,1,10,6,5,3
1558438952264168,-2,-2,0,2,1,3,1,-1
1558438952264168,-2,-4,-6,-11,-6,-7,-4,-4
1558438952272176,1,-1,1,3,1,-7,-3,0
1558438952272176,-2,0,1,-5,-6,-3,-2,0
1558438952296147,-3,-1,3,-1,0,4,2,-1
1558438952296147,-2,-4,-8,-5,-13,-3,-5,-2
1558438952296147,-1,0,1,2,7,6,7,4
1558438952296147,1,-3,-1,-2,-2,-9,-3,-1
1558438952303064,-2,2,2,-1,-3,-5,-3,-1
1558438952303064,1,0,0,2,-1,0,3,-1
1558438952310073,-2,-2,-3,-1,-1,-10,-4,-1
1558438952310073,-6,-4,1,-6,-9,-1,-10,-8
1558438952324507,-1,-6,-7,1,6,5,0,-3
1558438952324507,-2,0,2,0,-2,-4,0,-1
1558438952332524,2,1,-2,2,5,5,6,1
1558438952332524,-1,-4,2,-6,1,-2,4,2
1558438952347479,-1,-2,-2,-1,-4,-2,-8,-4
1558438952347479,-1,-2,2,0,-8,0,-8,-3
1558438952347479,1,1,-2,-5,-4,-3,2,2
1558438952347479,4,4,5,6,11,-1,6,3
1558438952361441,-1,-1,-4,-3,-6,2,0,-1
1558438952361441,-4,-5,-12,-3,-3,-2,-3,-4
1558438952369420,-1,-2,1,4,2,0,-1,-2
1558438952369420,3,4,9,3,-3,-1,1,2
1558438952384384,-3,-5,-15,-7,-8,-15,-1,0
1558438952384384,-3,-1,5,1,11,14,5,-1
1558438952392362,-3,1,1,7,-3,-4,-8,-4
1558438952392362,-1,-1,-4,-10,-5,1,-3,-3
1558438952407387,0,1,0,-1,0,-3,-1,-1
1558438952407387,-1,-3,-5,-5,-7,-2,-4,-2
1558438952408383,0,-2,0,0,0,1,-2,-4
1558438952408383,1,-1,0,2,-4,-1,0,2
1558438952421342,1,0,2,0,4,4,1,1
1558438952421342,-1,3,2,4,4,-3,-1,2
1558438952430322,-4,-5,-9,-10,-13,-4,-8,-5
1558438952430322,-2,-1,-2,5,2,-1,0,1
1558438952444326,2,0,3,-1,5,6,3,5
1558438952444326,2,1,-2,6,7,5,4,1
1558438952452305,1,3,-1,-10,-10,-10,-7,-3
1558438952452305,-5,-8,-8,-2,-6,6,-1,-2
1558438952467225,-2,-2,-4,-2,-2,-5,-1,0
1558438952467225,0,2,9,3,7,5,2,-1
1558438952468217,-4,-7,-12,-4,-4,1,-1,-4
1558438952468217,-1,-1,-5,-4,-8,-16,-6,-3
1558438952481209,3,1,6,4,6,1,0,0
1558438952481209,-2,-2,-1,-2,-6,-9,-6,-1
1558438952489163,-2,3,5,1,5,3,2,1
1558438952489163,-3,-1,-7,-6,-4,4,-3,-3
1558438952504122,-1,-1,1,-2,-9,-7,-3,-5
1558438952504122,-2,-2,-3,-4,-4,-4,0,4
1558438952512100,3,0,5,3,7,-1,0,2
1558438952512100,-1,-1,0,0,1,4,-5,-3
1558438952527477,-2,-3,-4,-5,2,7,4,0
1558438952527477,1,-1,1,2,0,-10,-1,-1
1558438952528477,0,-1,-3,-1,4,-1,2,1
1558438952528477,-2,-1,0,-2,-7,-6,-2,-1
1558438952541440,0,-3,-4,-4,-9,-7,-11,-4
1558438952541440,0,1,2,2,3,13,11,4
1558438952549419,-2,-3,2,-1,-2,0,2,0
1558438952549419,1,4,2,2,15,12,8,0
1558438952564382,-2,-2,-2,-2,-8,-10,-4,-1
1558438952564382,-4,-7,1,-1,-7,0,-5,-3
1558438952572594,1,1,3,0,-3,-8,-2,2
1558438952572594,0,0,-10,2,4,3,2,0
1558438952587566,-2,0,-3,-3,-4,2,-3,-4
1558438952587566,2,-1,-6,-5,2,-4,0,0
1558438952587566,-2,1,-1,-1,1,0,2,-2
1558438952587566,-2,-1,3,5,4,1,-2,-2
1558438952601560,0,0,1,-6,-6,-1,0,1
1558438952601560,-1,-4,-7,-6,-8,-13,-5,-2
1558438952609532,2,-1,3,4,7,14,6,-1
1558438952609532,1,2,3,-4,-2,-7,-7,-4
1558438952624515,-4,-5,-3,0,-7,-9,-7,-5
1558438952624515,-3,0,7,3,4,5,-2,-2
1558438952632487,-2,-4,-8,-8,-5,4,1,1
1558438952632487,-2,-2,-8,-4,4,2,1,1
1558438952647446,1,4,3,0,4,-5,1,0
1558438952647446,0,-1,-2,2,-4,-10,-6,-6
1558438952648409,-2,0,1,0,-3,-3,-4,-3
1558438952648409,-2,-3,-9,-9,-9,-3,-1,-1
1558438952661371,-3,-1,0,-1,-1,5,-2,-3
1558438952661371,-1,0,1,-1,7,-1,3,2
1558438952669353,1,3,-3,2,-4,-7,-3,0
1558438952669353,-1,-2,-1,-3,-7,-8,-10,-1
1558438952684341,-1,0,-3,-1,0,5,6,2
1558438952684341,0,-1,1,0,0,12,2,0
1558438952692313,-4,-6,-5,-4,4,6,2,-1
1558438952692313,0,0,5,-1,3,-3,1,1
1558438952707244,-1,-2,4,1,-4,-3,0,-3
1558438952707244,-2,-2,-13,-5,-4,3,-7,-4
1558438952715317,0,-1,4,-3,-2,-11,2,0
1558438952715317,-3,-4,-6,-5,2,0,1,0
1558438952721213,1,2,3,6,4,-2,-3,3
1558438952721213,0,-1,-5,-3,1,10,7,2
1558438952729335,-1,-3,-2,0,-7,-12,-9,-3
1558438952729335,0,0,4,3,2,1,4,0
1558438952744299,0,0,1,-2,1,0,-2,-2
1558438952744299,-1,2,4,1,1,-9,-6,0
1558438952752283,-1,-1,-8,-3,6,7,1,1
1558438952752283,1,3,3,6,-7,-1,-1,-2
1558438952767239,-4,-4,-3,-7,2,6,0,-2
1558438952767239,-2,-3,0,-1,-1,8,2,-1
1558438952768082,-1,1,6,-1,-6,-10,-4,-1
1558438952768082,-3,-4,-11,0,-10,-11,-6,-3
1558438952782088,0,-1,-5,0,12,2,8,4
1558438952782088,2,1,7,4,5,-7,-3,0
1558438952789120,-1,-1,-3,-6,-7,2,-2,0
1558438952789120,4,3,10,5,6,5,4,3
1558438952803986,-2,-2,-3,-1,-8,-7,-7,-4
1558438952803986,-2,-3,-3,-7,-10,-11,-6,-4
1558438952812001,1,0,-2,4,6,0,2,-1
1558438952812001,-2,-5,-3,-6,-2,8,1,-1
1558438952826958,1,0,-1,6,6,-4,-1,2
1558438952826958,-4,-3,-2,-6,-8,1,1,-1
1558438952827927,-2,1,-2,-2,-9,-11,-14,-4
1558438952827927,-1,1,0,-3,-3,-4,1,1
1558438952841918,3,1,4,5,9,14,6,3
1558438952841918,-5,-6,-6,0,1,1,-1,-2
1558438952848905,-1,0,0,-1,-4,-4,2,-3
1558438952848905,-1,2,2,1,2,0,0,0
1558438952863861,-2,-4,-4,-4,-10,-10,-8,-5
1558438952863861,2,-2,2,2,2,6,8,-1
1558438952871807,-3,-7,-9,-8,-9,-15,-7,-2
1558438952871807,-3,-1,3,0,2,7,0,-2
1558438952886770,0,0,-1,5,9,4,6,4
1558438952886770,1,4,16,0,3,-1,0,1
1558438952894743,-1,-4,-19,-2,2,8,0,-2
1558438952894743,1,-2,-1,-1,-1,-9,-6,-2
1558438952901724,-1,0,-1,-12,-14,-12,-3,-2
1558438952901724,-2,-3,-11,-3,-7,-11,-5,-3
1558438952908772,0,2,13,5,10,16,10,5
1558438952908772,-2,1,5,5,8,2,1,0
1558438952923723,-3,-2,1,-6,-6,-1,-3,-3
1558438952923723,-2,-4,-11,-1,-3,0,-4,-2
1558438952931810,1,1,1,1,3,-2,4,2
1558438952931810,-3,-4,-4,-6,-11,-12,-7,-4
1558438952946474,0,-1,6,2,6,11,3,2
1558438952946474,1,4,-1,2,7,0,2,4
1558438952954397,-2,-4,-4,-5,1,5,-2,-2
1558438952954397,1,-1,3,4,1,0,-3,-1
1558438952961442,1,-1,-3,-8,-6,-2,-1,-1
1558438952961442,0,0,0,-1,-4,-6,-2,-1
1558438952969358,-3,-3,0,-2,-3,-1,-2,0
1558438952969358,0,0,-1,-1,-7,-11,-4,-2
1558438952984316,1,-2,-5,0,3,10,4,-1
1558438952984316,-2,-2,-3,-4,-8,-5,-4,-3
1558438952992294,-2,-2,4,3,4,1,3,2
1558438952992294,-2,0,-3,-3,-3,-7,-4,-1
1558438953006469,-2,-2,-1,0,-4,-4,-9,-4
1558438953006469,-2,0,5,4,6,7,3,1
1558438953014265,-2,-2,-3,-6,-7,-3,-5,-3
1558438953014265,-3,-3,-5,0,-1,6,3,-1
1558438953021228,0,1,0,0,4,-9,1,5
1558438953021228,-2,-2,0,0,-3,2,-5,-1
1558438953029197,0,-2,1,-2,-6,0,-9,-6
1558438953029197,-2,0,0,1,5,6,8,1
1558438953044190,-3,-1,1,-2,-14,-16,-5,-3
1558438953044190,1,2,-3,0,12,0,4,2
1558438953052134,0,0,0,3,6,8,1,1
1558438953052134,0,-4,-5,-9,-6,6,-3,-4
1558438953067129,-1,-1,3,2,-4,-10,-4,-3
1558438953067129,-1,-3,-6,-9,-11,-14,-2,-2
1558438953075285,1,3,2,9,16,12,14,6
1558438953075285,-2,-3,0,-5,-2,0,0,0
1558438953090245,-4,-1,-2,1,1,7,-5,-4
1558438953090245,-5,-4,-2,-2,-9,3,-1,-2
1558438953090245,2,2,3,1,-4,-21,-2,1
1558438953090245,0,-3,-2,-1,-2,-3,-2,-2
1558438953104009,2,-1,2,3,9,5,2,3
1558438953104009,3,-1,2,-1,2,1,-2,-3
1558438953112133,-2,1,1,-2,-7,0,-5,-1
1558438953112133,0,0,1,0,3,0,4,0
1558438953127071,-5,-4,-7,-9,-17,-6,-6,-6
1558438953127071,-1,1,2,4,6,-4,2,3
1558438953135231,0,-1,-3,-2,-3,-4,-2,-1
1558438953135231,-2,-2,-2,4,-6,0,-9,-5
1558438953150184,-2,2,1,-3,5,3,7,2
1558438953150184,-1,-6,-10,-7,-5,-3,0,-1
1558438953150184,-1,0,5,2,6,4,-2,1
1558438953150184,-3,-3,-6,-9,-11,-11,-7,-3
1558438953164078,-1,-3,0,-1,-5,2,-7,-5
1558438953164078,1,0,1,3,-5,-12,3,4
1558438953171996,2,1,-1,-1,6,-6,1,3
1558438953171996,-1,1,3,6,10,12,4,1
1558438953186951,0,0,-2,-3,-2,-1,1,0
1558438953186951,0,1,3,1,2,3,0,-1
1558438953194997,0,-3,-1,-2,-7,-1,-5,-5
1558438953194997,1,-2,-3,-3,-1,1,1,2
1558438953209956,-1,-3,-1,-1,-9,-7,-6,-2
1558438953209956,-1,-2,-1,3,6,8,2,-1
1558438953210887,2,-1,-2,-7,2,8,7,2
1558438953210887,-1,0,3,1,-4,-3,-2,-1
1558438953233371,-3,-3,-4,-2,3,6,1,-1
1558438953233371,-2,0,0,-1,-5,-4,-4,-3
1558438953233371,-2,1,1,2,2,4,-2,-1
1558438953233371,-2,0,-2,0,1,-11,0,1
1558438953246370,3,-1,1,4,2,3,-1,-1
1558438953246370,1,-2,-1,-1,-1,7,-1,-2
1558438953254322,-5,-7,-5,-6,-7,1,-6,-6
1558438953254322,2,0,2,-1,0,-3,2,2
1558438953269316,0,0,-3,3,-1,-10,0,-1
1558438953269316,1,3,3,5,8,-1,-3,-3
1558438953270277,-1,1,-4,-9,-13,-6,-5,-4
1558438953270277,0,2,6,1,1,6,0,-2
1558438953284244,1,2,-1,-1,12,8,3,3
1558438953284244,-2,-1,-1,-5,-3,1,-2,-2
1558438953292251,-3,-2,-6,2,-5,-5,-3,-4
1558438953292251,0,-1,-1,-1,-7,-15,0,2
1558438953306179,-1,0,3,2,4,5,2,-2
1558438953306179,-2,-2,0,-5,-1,7,-4,-3
1558438953315184,2,3,3,4,2,-3,5,2
1558438953315184,-2,-5,-7,-4,-3,-9,-1,-2
1558438953330131,-3,-4,3,7,0,3,-4,-3
1558438953330131,-1,-1,2,-4,-6,0,-1,0
1558438953330131,-3,-4,-9,-8,-4,-6,-1,0
1558438953330131,-1,0,0,1,9,15,4,-1
1558438953344140,0,0,2,1,-3,-11,-3,-1
1558438953344140,-2,-1,1,-1,2,-1,0,-1
1558438953352120,0,-1,2,0,0,-2,-3,0
1558438953352120,-1,-2,0,1,2,5,-3,-2
1558438953367018,-2,-1,-3,-4,-7,-6,-3,-3
1558438953367018,-1,1,-1,-4,-4,-14,-1,-1
1558438953375053,1,0,2,4,13,6,8,2
1558438953375053,-1,-3,-2,1,-8,-6,-8,-4
1558438953389985,0,2,-1,-3,2,3,3,3
1558438953389985,-2,-2,-1,0,-4,3,0,-3
1558438953389985,-3,-3,-2,-2,-1,5,-4,-4
1558438953389985,-2,0,-2,-7,-2,0,-3,-2
1558438953403919,0,-2,-4,-3,-2,-14,-2,-1
1558438953403919,-1,0,3,3,4,7,6,0
1558438953411929,-3,-2,-4,-5,-14,-6,-4,-3
1558438953411929,2,-1,3,5,12,4,4,2
1558438953426932,-1,-3,1,0,-3,3,-2,0
1558438953426932,-1,-2,-7,-2,-8,-13,-8,0
1558438953434953,0,-1,1,0,-1,0,-3,-3
1558438953434953,-2,0,-5,-2,-7,10,2,-2
1558438953449909,-3,-2,-1,-3,-1,-1,-3,-1
1558438953449909,2,2,3,0,2,-11,5,6
1558438953450872,-2,-3,-2,-1,-1,-10,-5,-2
1558438953450872,-1,-1,-1,4,5,7,5,0
1558438953463867,-2,-4,-4,-4,-5,3,-3,-2
1558438953463867,-3,-4,-2,-1,-8,3,-8,-7
1558438953471815,2,0,2,2,0,-8,-2,0
1558438953471815,3,2,-1,-2,5,4,7,4
1558438953486422,-2,0,1,3,8,10,6,2
1558438953486422,-2,0,-2,-1,-4,-1,-5,-2
1558438953494395,-3,-3,-8,-11,-5,-4,-1,-1
1558438953494395,-3,-1,3,0,-4,-1,-7,-4
1558438953510350,-2,3,-5,-4,-9,-5,-2,-3
1558438953510350,-3,-2,-2,-5,3,0,4,0
1558438953511326,2,1,-2,1,7,6,2,2
1558438953511326,0,0,0,-2,-5,-6,-5,-5
1558438953524379,1,0,-2,-1,5,1,0,1
1558438953524379,0,-2,-3,3,-2,-2,-3,-2
1558438953532417,-2,-1,2,5,-6,0,-2,-3
1558438953532417,-1,-3,-6,-12,-6,-5,-5,-1
1558438953546374,1,3,5,7,2,-18,-5,0
1558438953546374,-3,-3,-4,-3,3,5,-2,-2
1558438953555199,-1,1,4,-3,1,6,3,4
1558438953555199,-3,-3,-5,-1,-12,-7,-6,-7
1558438953570158,-2,0,1,1,4,8,2,-1
1558438953570158,-1,-2,1,2,1,-11,-2,0
1558438953570158,-1,0,3,3,0,0,2,-1
1558438953570158,0,-2,1,4,7,6,0,2
1558438953584267,0,-2,-4,-2,8,11,8,2
1558438953584267,-1,-1,-1,-1,-3,-2,-8,-3
1558438953592207,-3,-2,-4,-3,-7,-9,1,-1
1558438953592207,-2,-2,-4,-2,-6,-5,-3,-3
1558438953606106,0,-3,-3,-1,-3,-9,-4,-1
1558438953606106,1,4,2,8,4,0,7,4
1558438953615089,-3,-2,-3,-8,-1,1,-4,-4
1558438953615089,0,-1,0,-2,-5,-5,-5,-2
1558438953637982,-2,-3,-1,-3,-7,-6,-5,-5
1558438953637982,1,-1,-3,-4,2,8,3,-1
1558438953638981,1,-1,1,4,0,-8,-2,1
1558438953638981,1,0,-3,-3,1,-6,6,3
1558438953659951,-4,-3,-4,-5,-4,5,-3,-2
1558438953659951,1,0,4,0,0,-1,-3,-3
1558438953660917,-1,-1,-3,-2,-2,8,1,-3
1558438953660917,-1,-1,-1,2,-9,-19,-9,-2
1558438953666903,0,0,0,-4,2,0,4,3
1558438953666903,-2,-3,-3,-3,2,-1,-3,-1
1558438953681899,1,-1,0,4,10,11,1,2
1558438953681899,1,2,5,0,-1,-4,-1,0
1558438953691834,-1,-4,4,3,-3,-5,-6,-4
1558438953691834,-1,2,-4,-4,-5,1,1,3
1558438953691834,-2,-2,-4,-8,-7,0,-3,-2
1558438953691834,-4,-2,-3,-4,6,2,1,1
1558438953703801,2,2,8,-1,0,3,2,0
1558438953703801,-3,-5,-9,-8,-8,0,-5,-5
1558438953711848,-2,-1,-9,-1,-7,-6,-6,-4
1558438953711848,-2,-3,0,2,0,-1,2,2
1558438953726744,0,0,-1,-5,-1,-8,4,0
1558438953726744,-2,0,4,7,11,6,4,1
1558438953734938,1,1,2,-2,-1,-2,-6,0
1558438953734938,0,0,-2,-2,2,8,1,1
1558438953749842,-2,-8,-8,1,-1,2,1,0
1558438953749842,1,-1,4,-1,-13,-15,-7,-1
1558438953750676,2,4,8,6,10,8,9,5
1558438953750676,-1,1,0,-2,-6,-5,-7,-4
1558438953763799,-3,-5,-5,-3,-6,4,1,-5
1558438953763799,0,2,4,2,-2,1,-1,-2
1558438953771621,-2,-1,0,4,8,7,5,-1
1558438953771621,-1,3,2,3,1,3,0,-2
1558438953786709,-2,-1,-2,-8,-7,-2,-4,0
1558438953786709,-4,-5,-8,-6,4,2,7,1
1558438953794671,-2,-1,4,5,-3,-12,-2,0
1558438953794671,0,0,1,5,3,3,-1,-1
1558438953808551,-1,3,-1,-5,-9,-5,-6,-2
1558438953808551,-2,-4,-3,2,10,18,7,1
1558438953817538,1,2,7,2,-3,-8,-5,-2
1558438953817538,-5,-7,-16,-24,-18,-7,-5,-3
1558438953824529,-1,-2,-3,2,-10,-4,-8,-5
1558438953824529,3,1,3,1,5,5,10,3
1558438953832499,-1,0,0,7,7,-1,1,-2
1558438953832499,-2,1,5,-7,3,10,2,-1
1558438953846423,-3,-1,-3,3,-4,1,-3,-1
1558438953846423,-1,1,-1,-4,-12,-22,-11,-1
1558438953854404,0,-4,-1,-4,-7,-6,-1,-1
1558438953854404,1,-3,-11,4,8,3,-1,0
1558438953869401,1,-1,-3,-1,10,15,7,2
1558438953869401,1,-1,0,-4,0,8,3,0
1558438953877341,-1,0,1,4,-7,-22,-7,0
1558438953877341,2,0,3,2,0,-3,-2,-1
1558438953884365,-3,-1,-1,-5,1,0,1,-1
1558438953884365,-2,-3,-3,1,4,2,-2,1
1558438953892338,-4,-5,-6,-10,-19,-3,-9,-6
1558438953892338,1,1,6,6,4,9,4,2
1558438953906267,2,1,1,3,11,-10,-3,2
1558438953906267,-2,-2,2,-3,-9,-5,-4,-3
1558438953914269,0,-1,-4,0,5,1,1,0
1558438953914269,-1,-3,-4,-7,-11,-9,-3,-1
1558438953929203,1,5,5,2,-2,7,2,-3
1558438953929203,-3,0,1,3,3,0,-2,-3
1558438953937178,0,-4,-11,-18,-12,-5,-1,0
1558438953937178,-2,1,3,8,9,2,7,3
1558438953944158,0,-3,-2,-2,-2,-8,-2,0
1558438953944158,0,1,0,4,2,-2,-3,-1
1558438953952136,-2,-3,0,0,3,6,-5,-5
1558438953952136,-1,-2,-7,-12,-9,-1,-5,-5
1558438953975104,-2,-1,-3,-4,-5,-2,-1,1
1558438953975104,2,0,1,1,6,-4,2,5
1558438953976074,-2,-5,1,6,10,16,8,3
1558438953976074,-1,-3,1,1,1,-7,-4,-3
1558438953998179,-3,-2,-4,-3,-9,-3,-7,-5
1558438953998179,-1,3,-1,2,-4,-4,0,1
1558438953999145,3,1,2,-2,5,-3,6,6
1558438953999145,-3,-1,1,3,-3,-6,-2,-1
1558438954013140,-2,-3,0,1,3,3,-2,-2
1558438954013140,-2,-4,-7,-2,-11,2,-6,-6
1558438954014144,2,3,1,3,8,2,10,2
1558438954014144,-3,-2,-3,-6,-4,-9,-4,-2
1558438954027086,1,1,-3,1,-2,-1,0,1
1558438954027086,-1,-3,-5,-9,-9,-1,-5,-3
1558438954042066,-1,-3,2,5,8,3,-3,-2
1558438954042066,2,1,1,4,-1,-3,3,2
1558438954049050,1,0,-1,-3,7,-2,0,1
1558438954049050,-2,-2,-5,-10,-13,-3,-2,-1
1558438954057023,1,0,2,2,8,12,4,1
1558438954057023,-1,-3,-6,1,-2,-5,0,-2
1558438954072843,1,0,3,2,0,4,3,0
1558438954072843,-3,0,-4,-4,-2,-2,-6,-5
1558438954073838,-4,-3,-3,2,-5,9,2,-3
1558438954073838,2,4,5,3,7,-3,2,4
1558438954086778,-1,-2,7,7,2,-3,2,1
1558438954086778,0,-3,-6,-9,-1,-1,0,0
1558438954094755,-2,-2,-3,0,-7,-10,-9,-4
1558438954094755,1,-1,-5,-3,2,7,1,-1
1558438954108717,-2,-3,-1,1,-2,-8,-2,-1
1558438954108717,-2,-2,1,6,2,-5,1,0
1558438954116698,0,1,3,-3,4,10,1,1
1558438954116698,-5,-7,-6,-5,-16,-10,-10,-5
1558438954132654,-2,-1,-6,-3,-4,-4,-2,1
1558438954132654,0,2,5,3,4,2,7,4
1558438954133654,0,-2,-3,-5,-7,-10,-2,-4
1558438954133654,0,0,2,-1,7,7,-1,0
1558438954146869,-3,-4,-3,0,-4,7,-6,-2
1558438954146869,-1,-3,-1,-5,0,0,-3,-2
1558438954154598,0,2,-1,1,5,-6,5,4
1558438954154598,-1,2,0,0,-9,0,1,-1
1558438954168730,-3,-6,-8,-5,2,-4,-8,-3
1558438954168730,-1,-2,0,3,6,8,4,1
1558438954177715,0,0,3,3,-4,-14,-2,0
1558438954177715,0,0,-3,-11,1,8,2,-2
1558438954192660,0,-1,-3,-4,-10,-4,-2,-2
1558438954192660,0,-2,1,0,-6,-11,-4,-4
1558438954193492,0,-1,1,1,-1,-5,-7,-2
1558438954193492,-3,-3,-2,-5,1,1,0,-2
1558438954206548,2,3,3,2,6,3,8,5
1558438954206548,0,0,1,2,1,6,-2,0
1558438954214509,-1,-1,-4,-7,-4,-2,-2,2
1558438954214509,2,1,0,5,-2,0,-1,-2
1558438954229436,1,2,-1,2,4,-2,2,0
1558438954229436,-2,1,-1,0,0,4,-3,-4
1558438954237376,-4,-4,-7,-6,-6,-5,-9,-3
1558438954237376,0,0,4,4,14,13,9,2
1558438954253340,0,0,-1,-6,-2,2,7,2
1558438954253340,-3,-3,-6,-4,-3,-8,0,0
1558438954253340,-2,1,0,-1,-11,-4,-7,-4
1558438954253340,-1,1,1,5,7,3,2,1
1558438954266347,0,-1,0,-4,-3,0,1,0
1558438954266347,-1,-2,-2,0,2,4,-1,-1
1558438954274278,2,2,6,7,2,3,6,2
1558438954274278,-2,-3,-3,-3,-1,-4,-2,0
1558438954289268,-1,-2,-1,2,3,3,-1,-2
1558438954289268,0,-1,-1,1,-8,-17,-8,-6
1558438954297215,1,-1,-2,1,2,13,9,0
1558438954297215,-1,-2,2,-1,-8,-7,-2,1
1558438954312174,-3,-1,-1,-2,-2,-4,1,1
1558438954312174,0,-1,-2,-2,5,4,-4,-2
1558438954313172,0,-1,-4,1,1,3,3,2
1558438954313172,2,1,2,3,-2,-12,-2,0
1558438954326169,-1,0,-1,2,-1,3,0,-1
1558438954326169,-3,-4,-4,-7,-11,0,-4,-3
1558438954335112,1,0,3,1,0,-12,-5,-1
1558438954335112,-2,-1,-2,-6,3,11,1,-1
1558438954349076,-1,-2,-3,2,1,-4,-3,-5
1558438954349076,-1,0,-1,-2,4,-7,2,0
1558438954358052,-4,-4,-4,-6,-7,4,-4,-4
1558438954358052,-1,-1,-1,1,-8,-12,-3,0
1558438954372021,2,0,4,-2,5,1,3,2
1558438954372021,-2,-1,4,9,5,1,2,0
1558438954380082,-2,-2,-7,-13,-10,-5,-9,-7
1558438954380082,1,1,3,6,1,4,-1,-1
1558438954386974,-1,-2,-11,-11,-12,-5,-5,-3
1558438954386974,-1,-2,3,-2,-5,-14,-7,1
1558438954395979,0,1,2,4,15,12,9,4
1558438954395979,-1,0,0,0,1,4,-1,-1
1558438954409022,-3,-3,-3,-4,-6,-6,-2,-2
1558438954409022,0,1,-1,-1,0,8,3,-1
1558438954425876,-4,-3,-3,-4,-6,-3,-5,-5
1558438954425876,-4,-4,-7,-12,-6,-1,-1,-2
1558438954431882,0,0,8,11,6,-3,-1,2
1558438954431882,2,1,-7,-10,1,-4,4,3
1558438954440845,0,-1,-2,3,-6,-4,1,0
1558438954440845,-1,-4,-1,4,2,-1,-3,-4
1558438954446815,-2,-4,-4,-6,-10,-7,-9,-3
1558438954446815,0,-2,-4,0,5,4,4,2
1558438954455795,3,4,8,3,5,7,3,0
1558438954455795,-5,-5,-14,-12,-12,-1,-7,-3
1558438954468884,-2,-4,7,7,3,0,-3,-3
1558438954468884,2,2,0,4,9,5,10,5
1558438954477755,-3,-3,-4,-7,-6,-3,-2,-2
1558438954477755,1,1,5,0,-2,0,2,1
1558438954491695,0,1,1,3,-2,-6,-3,-3
1558438954491695,-3,-5,-5,-8,-13,-1,-6,-6
1558438954500670,2,1,0,3,6,7,6,1
1558438954500670,1,0,-2,-11,-5,-7,-3,-1
1558438954506654,-1,-1,-6,-3,2,-4,2,1
1558438954506654,0,1,4,3,4,7,6,1
1558438954515650,-5,-3,-1,5,4,1,-4,-4
1558438954515650,-3,0,2,-1,-6,-1,0,-4
1558438954529592,0,-3,-8,-6,-5,4,-4,-3
1558438954529592,-2,-3,2,0,-2,-5,-6,-2
1558438954545552,2,-1,2,-1,3,1,1,2
1558438954545552,-3,-3,-17,-4,2,-1,0,0
1558438954551777,-3,0,0,-1,-1,-1,-3,-1
1558438954551777,1,-1,0,1,-7,-5,-4,-3
1558438954561509,0,0,-4,-7,-7,-12,-7,-4
1558438954561509,0,0,7,6,5,-3,-5,-3
1558438954566723,1,0,-10,-12,-3,2,2,-1
1558438954566723,0,1,1,6,3,3,-1,-2
1558438954575693,0,0,-1,-7,-4,2,-3,0
1558438954575693,-1,-6,3,6,8,-2,7,2
1558438954588659,-2,-3,-2,-1,-2,-3,-7,-4
1558438954588659,-2,0,3,0,3,14,10,4
1558438954597634,-2,4,3,1,6,-8,0,4
1558438954597634,-2,2,0,1,-9,-4,-6,-3
1558438954611597,-1,-1,1,3,3,10,4,0
1558438954611597,-3,-2,1,-5,-4,-7,-6,-4
1558438954620574,0,-3,-4,-6,-12,-7,-4,-3
1558438954620574,0,-2,5,7,7,3,5,3
1558438954626555,0,-1,-4,-9,-3,-7,-3,0
1558438954626555,-2,-1,-4,-2,-1,5,-3,-2
1558438954635534,-2,-2,-3,-4,-1,-1,0,0
1558438954635534,0,0,5,2,4,4,4,1
1558438954649497,-4,-2,-2,5,-1,-1,-6,-7
1558438954649497,-1,0,-5,-4,-4,2,-2,0
1558438954657476,-2,-6,-5,0,-1,-4,-4,-1
1558438954657476,0,-2,-1,2,3,8,2,1
1558438954671437,0,2,3,8,3,4,3,1
1558438954671437,3,2,0,-5,5,-1,1,0
1558438954680412,-4,-3,3,5,-1,-9,-4,-5
1558438954680412,0,-1,-2,-5,-11,-13,-8,-2
1558438954686396,-1,-1,-17,-18,-1,9,4,-3
1558438954686396,-3,-6,-2,2,-6,-11,-4,-3
1558438954695380,-1,-1,0,-1,1,-5,2,3
1558438954695380,0,1,6,7,8,2,-2,-2
1558438954709334,0,-1,4,-8,-8,-3,0,5
1558438954709334,-5,0,-6,0,-5,-3,-8,-8
1558438954718311,0,-2,-1,-3,2,2,7,1
1558438954718311,0,-1,-3,-1,3,2,0,0
1558438954731535,-2,0,2,-7,-7,-8,-8,-6
1558438954731535,-1,-1,-2,-1,2,2,0,2
1558438954740252,-4,-1,2,0,-3,3,-1,-1
1558438954740252,0,-2,-7,-3,-1,-6,-2,-3
1558438954746237,2,2,7,7,8,8,6,4
1558438954746237,-2,-7,-4,-2,-7,-4,0,-1
1558438954755213,-1,-4,-2,0,-8,-2,-2,-2
1558438954755213,0,0,1,-6,-6,-12,-2,1
1558438954769349,-3,0,0,4,5,-2,-2,-4
1558438954769349,1,0,4,4,-1,-5,2,3
1558438954778151,1,-1,-1,5,8,11,1,1
1558438954778151,-7,-5,-7,-8,-16,-6,-3,-4
1558438954791130,-1,1,10,8,3,2,3,3
1558438954791130,0,0,-9,-8,4,10,3,1
1558438954800093,-2,-2,-7,-11,-12,-7,-7,-7
1558438954800093,1,1,0,0,4,-4,-3,1
1558438954807073,2,-1,2,4,4,-2,1,1
1558438954807073,1,1,7,7,3,2,1,-1
1558438954815051,1,1,2,-6,-3,-2,0,4
1558438954815051,-1,-1,-9,-4,-4,0,-3,-2
1558438954829014,-3,-6,-3,3,1,-2,0,-3
1558438954829014,-2,-2,-2,-1,-4,4,-1,-5
1558438954838009,-1,-2,-3,0,-2,-9,-3,-2
1558438954838009,-2,-4,1,2,-3,-1,-6,-6
1558438954851952,1,1,3,3,2,-1,3,4
1558438954851952,1,0,6,2,3,3,1,1
1558438954860060,-1,-2,-8,-7,-3,1,-3,-3
1558438954860060,2,-2,1,0,0,-1,2,5
1558438954867031,-1,-1,-3,3,0,3,2,-2
1558438954867031,-4,-7,-7,-7,-10,-10,-9,-9
1558438954875036,-3,1,-1,-4,-6,-2,-3,-1
1558438954875036,2,2,1,-2,10,2,5,2
1558438954888855,3,3,8,3,-2,-5,1,1
1558438954888855,0,-2,-7,1,0,-2,-2,0
1558438954897830,-1,-2,-4,-3,-2,-3,-1,-2
1558438954897830,-6,-6,-2,-1,-1,1,-3,-3
1558438954911922,-2,-2,0,-4,-6,-1,-5,-2
1558438954911922,3,4,5,4,-3,-10,-5,1
1558438954920772,0,-1,-7,-9,-1,6,3,0
1558438954920772,-1,-2,0,-5,-4,-7,-3,1
1558438954926785,-1,-3,-2,0,3,6,-1,-1
1558438954926785,-1,1,1,1,1,4,2,0
1558438954935730,-3,-2,2,9,3,-5,2,1
1558438954935730,2,1,1,0,4,2,2,1
1558438954948697,-2,-3,-3,-5,-8,-13,-7,-6
1558438954948697,-2,0,0,-4,-2,-5,-2,-1
1558438954957670,-1,1,5,6,11,12,1,2
1558438954957670,-1,-1,-5,-2,0,8,2,-1
1558438954971634,-1,-2,-8,-2,2,1,-1,-1
1558438954971634,1,-1,3,-4,-3,-18,-4,0
1558438954980609,1,2,2,1,1,3,2,-2
1558438954980609,-2,-1,2,3,-4,1,-3,-5
1558438954995569,1,1,-1,-9,6,6,3,2
1558438954995569,-3,-3,-2,1,1,5,1,-1
1558438954996566,1,0,3,8,-1,-9,-2,-1
1558438954996566,0,-1,-4,-7,-2,4,0,-2
1558438955008534,-6,-9,-9,-7,-12,-9,-8,-6
1558438955008534,-3,2,2,3,5,11,5,-2
1558438955017511,-1,0,2,3,1,-8,-5,2
1558438955017511,-3,0,-3,1,1,2,1,0
1558438955031474,-1,-2,-5,-7,-10,-11,-3,-1
1558438955031474,-2,-4,-4,-6,-5,-6,-1,-1
1558438955040454,-1,-1,-3,-4,-4,4,-4,-3
1558438955040454,0,0,1,4,-1,5,-3,-3
1558438955055409,-1,0,-3,-4,-4,-2,-2,-2
1558438955055409,3,0,0,2,5,-7,5,3
1558438955056407,-2,-2,0,-7,4,5,2,-2
1558438955056407,-2,-3,-9,-5,-6,-6,1,0
1558438955069371,-1,2,-1,3,-3,2,-4,0
1558438955069371,0,-1,3,3,0,7,4,1
1558438955077351,0,-4,0,1,2,-3,-1,-3
1558438955077351,-2,-1,2,2,-1,-4,-8,-6
1558438955091313,2,6,4,8,9,6,7,3
1558438955091313,-4,-3,-6,-18,-15,-11,-7,-3
1558438955100290,1,-3,0,3,3,10,2,-1
1558438955100290,0,-1,-3,2,-2,-9,0,1
1558438955115249,-1,-4,-4,-4,1,1,-4,0
1558438955115249,-3,-3,-7,-7,-6,1,-6,-5
1558438955116246,-3,-4,-4,0,-1,2,5,0
1558438955116246,0,-3,1,1,-2,-8,-5,0
1558438955129219,0,1,6,4,7,2,5,4
1558438955129219,1,2,2,5,8,6,3,0
1558438955138191,-2,-2,-6,-7,-4,2,-3,-2
1558438955138191,0,2,3,1,1,7,5,0
1558438955151153,-2,-3,-1,-3,-6,-10,-4,-1
1558438955151153,-4,-8,-3,-1,2,-2,2,-1
1558438955160129,-2,1,2,4,-7,-3,-6,-2
1558438955160129,1,1,4,1,3,2,3,2
1558438955176089,0,0,-3,-5,-1,3,-5,-3
1558438955176089,-1,-2,-5,-1,-2,5,-5,-2
1558438955177087,0,-3,-1,-1,1,0,2,-1
1558438955177087,-3,-3,2,3,-2,-1,-3,-4
1558438955189052,-1,2,-1,-1,-10,-18,-3,-1
1558438955189052,1,1,2,4,10,10,5,1
1558438955198027,-3,1,0,-2,-4,-2,1,0
1558438955198027,2,1,1,0,2,-6,-3,-1
1558438955210992,0,-3,0,3,3,7,5,1
1558438955210992,-2,-3,-3,-5,-5,-7,-8,-4
1558438955219969,1,0,0,0,-1,5,-2,-1
1558438955219969,-4,-7,2,-7,-12,-14,-2,0
1558438955234931,-3,-5,-6,-4,-4,-4,0,-3
1558438955234931,0,1,-3,-1,2,-5,-5,0
1558438955236924,1,2,2,-2,-1,-2,-4,0
1558438955236924,0,1,2,0,12,19,8,2
1558438955248894,1,2,2,4,3,0,1,2
1558438955248894,-4,-3,-2,0,-5,-2,-8,-8
1558438955257870,-2,-3,-4,-4,-6,0,-1,0
1558438955257870,0,-1,-1,0,-1,-5,-3,0
1558438955271834,1,-1,1,-2,5,5,3,2
1558438955271834,1,3,2,2,-9,-10,-3,-1
1558438955280807,-4,-7,-4,3,-2,-5,-2,-3
1558438955280807,0,-1,-8,-8,-5,-3,2,0
1558438955294769,1,0,-4,-2,-1,2,-6,-1
1558438955294769,-2,1,4,2,-6,-1,1,-1
1558438955296764,2,-2,-2,-4,-1,-10,-4,-2
1558438955296764,-5,1,-3,0,1,11,-2,-2
1558438955308735,0,2,4,3,8,5,3,4
1558438955308735,-4,-4,-7,-5,-4,0,0,0
1558438955317707,-1,-1,-1,0,-10,-11,-5,-5
1558438955317707,1,-2,-1,-3,5,5,3,1
1558438955331674,-1,0,0,-2,-2,2,0,-3
1558438955331674,-3,0,0,0,0,2,-3,1
1558438955340647,-3,-3,1,-2,-1,-2,0,-3
1558438955340647,0,-1,-1,-1,4,-4,-5,0
1558438955355607,-2,-4,0,5,-3,3,-1,-1
1558438955355607,0,-3,-2,-4,8,0,2,1
1558438955356604,0,0,-7,-3,-6,-4,-3,-2
1558438955356604,1,2,1,1,-9,-10,-2,-3
1558438955368572,-1,0,-2,-1,-2,-6,3,-1
1558438955368572,0,-1,1,-1,3,9,-1,3
1558438955377547,0,-3,4,6,9,1,5,1
1558438955377547,-3,-4,-8,-10,-10,-11,-9,-5
1558438955391512,-3,1,1,-5,0,9,4,-2
1558438955391512,0,0,-3,1,-3,-3,0,-1
1558438955400487,-3,0,-8,-4,0,1,-2,1
1558438955400487,1,0,2,1,-3,5,0,0
1558438955415446,2,-2,0,5,2,-1,6,4
1558438955415446,-1,-1,-2,-3,5,-2,-2,-4
1558438955416442,-2,2,1,-2,-1,2,-9,-4
1558438955416442,0,1,2,1,4,7,4,0
1558438955429410,0,-1,2,-1,-7,-8,-6,-5
1558438955429410,1,-4,-1,0,2,0,-1,-2
1558438955437389,3,3,2,1,-1,-11,1,0
1558438955437389,-1,1,-4,2,3,2,2,0
1558438955451350,-4,-4,0,-2,-1,0,-1,0
1558438955451350,-2,-3,-1,-4,-12,-10,-4,-4
1558438955460331,-2,-2,-4,-2,3,8,0,0
1558438955460331,1,2,0,1,1,1,-1,2
1558438955475287,1,-1,0,-2,1,2,1,-1
1558438955475287,4,4,0,2,-2,-11,-2,2
1558438955476289,-2,-1,-1,-4,-4,3,2,-2
1558438955476289,-4,-6,-2,0,0,-2,-3,-5
1558438955489248,-1,0,0,-2,4,10,2,1
1558438955489248,-1,0,4,3,2,0,-2,-1
1558438955498225,0,1,-1,-5,-5,1,1,-1
1558438955498225,-1,-1,-7,1,-4,-8,-3,-2
1558438955511222,-3,-3,-3,-4,-7,-7,-6,-3
1558438955511222,2,2,0,3,7,6,7,3
1558438955520172,0,0,2,2,0,-3,3,2
1558438955520172,0,-2,-4,-1,3,13,4,-1
1558438955535127,-3,-2,-7,-6,-12,-2,-11,-8
1558438955535127,-2,-2,4,-1,-6,-5,-3,-3
1558438955537121,1,0,3,3,2,-10,-1,5
1558438955537121,-2,0,-1,-2,-5,-2,-6,-6
1558438955549089,2,2,1,2,3,1,1,0
1558438955549089,0,-1,0,3,6,6,4,2
1558438955558064,-2,-2,-8,-10,-14,1,-4,-7
1558438955558064,-3,-5,-1,-5,-3,-3,-2,0
1558438955571034,1,0,2,0,2,-6,3,2
1558438955571034,-3,-4,-5,-1,-5,1,-6,-5
1558438955580005,0,-1,5,4,4,-6,2,3
1558438955580005,2,3,6,6,6,3,-1,0
1558438955594967,-3,-6,-7,-10,-5,5,-2,-4
1558438955594967,-1,3,-2,-5,-10,-10,-8,-1
1558438955596985,4,-1,-1,6,11,0,6,6
1558438955596985,-4,-5,-7,-5,-9,-5,-2,-2
1558438955608928,-3,-2,1,3,-4,-6,-7,-3
1558438955608928,-1,1,-3,-4,1,0,3,2
1558438955617905,-2,-1,-1,0,0,5,-4,-4
1558438955617905,-2,0,1,-2,-6,-6,-1,-1
1558438955630874,0,-1,1,8,7,3,4,1
1558438955630874,-2,-2,-4,-9,0,3,3,-1
1558438955639853,0,-2,3,-1,-2,-4,-8,-2
1558438955639853,-2,-7,-7,-2,-10,-9,-5,-2
1558438955654808,-2,-2,-4,-5,-4,-5,-5,-2
1558438955654808,-2,-1,1,2,0,4,-4,-3
1558438955656801,0,-1,4,2,-3,-3,-1,0
1558438955656801,1,3,3,0,11,8,11,2
1558438955668772,-1,-1,-8,-8,-9,-17,-6,4
1558438955668772,-2,-4,-9,-2,0,0,0,-3
1558438955677747,-6,-6,-6,-6,-8,5,-6,-5
1558438955677747,0,1,3,-3,-12,-10,-8,-2
1558438955691707,3,2,5,5,8,-1,4,-1
1558438955691707,1,-1,0,0,-1,-3,4,-2
1558438955700683,0,1,2,0,3,6,2,-2
1558438955700683,-2,-1,-7,-1,2,2,-2,1
1558438955714652,-1,1,6,7,1,8,4,0
1558438955714652,-1,-2,-2,-7,-6,-12,0,4
1558438955721627,2,1,-3,-1,7,-5,-3,0
1558438955721627,1,2,4,-3,-3,-1,0,0
1558438955728608,0,0,-1,3,-1,-4,-6,-3
1558438955728608,-1,-2,4,1,5,11,2,-1
1558438955737588,-1,0,-5,1,-7,-3,-4,0
1558438955737588,2,0,0,-1,14,4,7,5
1558438955751547,-4,-1,-2,-2,-3,-4,-3,1
1558438955751547,0,-1,3,1,-5,-4,-3,-2
1558438955760524,-3,-3,-15,-6,-5,0,1,-2
1558438955760524,-3,-4,-1,2,-2,0,-7,-4
