timestamp,emg1,emg2,emg3,emg4,emg5,emg6,emg7,emg8
1558438821134457,-1,2,-7,-7,-9,-12,-6,0
1558438821134457,-2,-2,9,2,-2,7,0,-8
1558438821140442,-6,-10,-22,-6,6,11,-1,-6
1558438821140442,2,2,3,3,4,-2,9,7
1558438821141439,2,-1,-1,-4,1,-5,2,3
1558438821141439,1,3,4,0,3,7,2,-1
1558438821142437,3,3,17,10,-9,-6,-3,-2
1558438821142437,-8,-9,-28,-17,-12,-1,-15,-11
1558438821153408,-2,-2,0,0,0,-1,1,-3
1558438821153408,-4,-9,-7,2,6,1,1,1
1558438821164377,-4,-1,4,0,3,3,10,-1
1558438821164377,-4,0,1,0,-1,-1,4,-3
1558438821168366,1,5,16,6,6,4,3,-1
1558438821168366,-5,-4,-22,-5,-9,-10,-8,-4
1558438821183326,1,2,-5,-4,1,-7,0,3
1558438821183326,2,3,5,-2,-7,-7,-6,-1
1558438821192303,-3,-4,5,13,4,6,-2,-3
1558438821192303,-1,1,-11,-14,-12,-4,-6,-2
1558438821200281,-3,-3,-6,-9,-3,0,1,-2
1558438821200281,2,-2,3,7,10,5,11,4
1558438821213247,-2,0,-3,-6,-5,-14,-2,2
1558438821213247,0,2,0,1,3,-2,2,-1
1558438821223222,-2,0,-2,-5,-9,-10,-8,-2
1558438821223222,-1,0,8,4,0,2,-5,-2
1558438821261119,-4,-2,-12,-11,-8,-4,-3,-5
1558438821261119,0,0,5,-4,2,6,-4,-2
1558438821262117,-1,-1,-7,11,2,1,1,0
1558438821262117,0,0,0,-4,2,10,2,-1
1558438821263113,-1,-2,-1,-8,-16,-15,-1,-1
1558438821263113,-2,0,0,7,5,-8,3,0
1558438821266106,-1,-2,1,0,2,5,3,-2
1558438821266106,2,2,7,1,4,-5,2,1
1558438821273086,-2,-6,-9,3,8,14,5,-1
1558438821273086,0,-2,-1,-1,-9,-3,-3,2
1558438821282063,0,0,-1,-5,-3,-3,-5,-3
1558438821282063,0,-1,3,0,1,7,-10,-6
1558438821288048,-2,3,2,2,-6,-5,-8,-4
1558438821288048,-5,-5,-4,-7,-15,-14,-8,-7
1558438821303017,0,-1,-7,-3,7,8,10,6
1558438821303017,-3,-2,-8,-15,-6,-11,-5,-2
1558438821310986,-3,4,7,2,5,2,4,2
1558438821310986,-4,-8,-7,-8,-3,-7,-10,-2
1558438821319962,-2,-4,4,1,-13,-15,-6,-2
1558438821319962,0,-1,0,6,2,9,4,0
1558438821333924,0,-4,-4,-2,-5,-4,-6,-5
1558438821333924,4,7,6,3,5,-2,-1,-2
1558438821341902,0,3,-1,-3,0,1,-2,-1
1558438821341902,-3,-12,-6,1,1,-3,5,0
1558438821348884,0,-1,1,2,2,4,1,0
1558438821348884,-1,-3,-3,3,6,13,2,-1
1558438821363844,2,1,-3,-11,-16,-12,-9,-1
1558438821363844,-1,2,-1,-1,-7,-5,-1,1
1558438821370827,-1,-1,11,6,10,8,8,2
1558438821370827,0,-1,-9,0,-1,-5,2,0
1558438821379801,-4,-6,-2,-4,2,7,-1,-2
1558438821379801,-2,-2,0,2,0,-5,-5,-2
1558438821393764,1,-4,-5,-6,-4,1,4,2
1558438821393764,2,1,-2,0,9,15,6,0
1558438821402740,0,2,4,1,-2,-6,-2,0
1558438821402740,-3,-2,3,5,6,2,-7,-5
1558438821408724,2,0,-4,-9,-14,-2,-4,-1
1558438821408724,1,-1,1,1,-8,0,7,-2
1558438821423683,-3,-7,-17,-5,11,9,6,2
1558438821423683,2,7,0,-3,1,-5,7,4
1558438821430665,-1,-8,-4,3,8,1,-14,-5
1558438821430665,-4,1,11,1,-9,-7,-4,-3
1558438821445626,0,-1,-8,-12,-3,3,-3,-3
1558438821445626,1,1,0,-2,-5,-6,0,1
1558438821453604,1,3,6,6,0,4,-4,-2
1558438821453604,2,4,0,3,10,-6,7,5
1558438821462578,-4,-2,3,2,1,0,-3,-8
1558438821462578,-4,-6,-13,-8,-14,-7,-10,-5
1558438821468563,-2,2,0,0,-3,-10,-1,-2
1558438821468563,-6,-9,-4,-3,4,7,-6,-7
1558438821483524,1,0,6,5,5,4,0,2
1558438821483524,1,1,-2,-3,-5,-7,-1,0
1558438821490506,-3,-7,-6,-4,-15,-10,-4,-3
1558438821490506,1,1,1,0,0,1,-3,-1
1558438821505465,0,5,4,3,7,-1,10,4
1558438821505465,-3,-8,0,1,1,9,-4,-6
1558438821513444,-4,2,-8,-6,-7,-12,-7,-2
1558438821513444,1,1,1,-1,5,-2,9,5
1558438821529400,0,2,3,2,-4,-2,1,-2
1558438821529400,-1,-3,1,1,1,1,1,2
1558438821529400,2,4,7,-3,4,-5,0,1
1558438821529400,-4,-4,-8,-7,-10,2,-6,-4
1558438821543378,-5,-1,0,2,-7,4,-6,-7
1558438821543378,0,1,-9,0,8,5,7,4
1558438821551343,0,1,2,3,10,5,7,4
1558438821551343,1,-1,0,1,0,0,-3,-2
1558438821566302,4,-4,1,-4,-2,-5,-2,2
1558438821566302,-3,-2,3,-2,-4,-3,-5,-4
1558438821573283,-2,-1,-3,2,-1,-3,-1,-2
1558438821573283,2,1,0,-1,2,1,-1,2
1558438821582259,1,5,15,6,3,3,-5,-2
1558438821582259,-3,-6,-14,-7,-7,6,-6,-5
1558438821588244,0,-3,-14,-13,0,1,1,0
1558438821588244,4,3,4,1,8,-11,10,5
1558438821603204,-3,0,3,0,4,5,1,-1
1558438821603204,2,7,12,7,8,4,0,0
1558438821611182,1,-1,5,2,-1,10,-3,-6
1558438821611182,-3,-6,-8,-1,-7,-7,-13,-4
1558438821626142,0,0,-8,1,6,0,5,3
1558438821626142,-2,0,-6,-13,-15,-8,-5,-3
1558438821633125,-4,-1,-1,-5,-7,-2,-13,-8
1558438821633125,1,4,-2,0,1,3,8,3
1558438821642100,-1,-5,-5,2,2,-16,0,2
1558438821642100,0,4,6,7,7,0,8,2
1558438821648084,2,-2,2,6,8,8,9,3
1558438821648084,-3,-2,-4,-10,-12,-8,-7,-5
1558438821663043,-2,-3,-1,0,-3,0,-3,-2
1558438821663043,5,-2,0,-2,-5,-12,0,2
1558438821671022,0,1,11,5,1,-4,-3,1
1558438821671022,-8,-4,-7,-1,-15,-5,-7,-12
1558438821685981,-5,-8,-15,-8,-8,5,2,-2
1558438821685981,-3,1,2,2,6,0,-2,-1
1558438821692963,3,2,2,4,6,2,8,5
1558438821692963,-4,-7,0,4,11,17,12,4
1558438821701941,2,0,2,-3,-7,-12,-12,-3
1558438821701941,-4,1,-3,-1,-5,1,-2,-2
1558438821716900,0,7,17,4,0,2,0,0
1558438821716900,-5,-9,-36,-13,-3,-4,-4,-4
1558438821723882,-5,-5,-5,-10,-14,-5,-16,-7
1558438821723882,1,-3,2,3,-4,-7,1,4
1558438821730863,2,1,2,5,8,-1,11,6
1558438821730863,1,2,4,1,4,-4,-4,-1
1558438821745823,-2,1,7,2,-3,-2,0,-3
1558438821745823,1,-3,-8,-3,-5,1,-20,-6
1558438821753801,-4,-6,-15,-18,-15,-4,-6,-7
1558438821753801,-1,2,10,5,7,14,3,0
1558438821762778,0,2,1,1,-2,-9,-2,1
1558438821762778,-1,0,5,7,13,10,14,5
1558438821776739,-4,-3,-5,-1,-7,-7,-5,-2
1558438821776739,-1,-2,-4,-4,-5,0,-8,-3
1558438821783721,4,4,5,-2,1,3,8,6
1558438821783721,-1,1,-1,-5,-6,-3,5,-1
1558438821790703,-3,-1,-5,-1,-4,-12,-8,-5
1558438821790703,1,-3,-2,-15,-2,0,3,2
1558438821805663,-3,-1,-5,-5,-15,-14,-9,-5
1558438821805663,-2,2,-4,-1,0,6,2,-2
1558438821813640,-3,-3,-6,1,2,3,4,0
1558438821813640,4,9,18,8,0,-12,-3,4
1558438821822617,-4,-7,-6,-2,3,7,4,-3
1558438821822617,1,0,3,2,7,10,6,2
1558438821836581,-1,-2,1,-2,-2,-3,-6,-1
1558438821836581,-2,-3,-6,-2,-4,3,-4,-1
1558438821843561,2,3,1,1,1,5,1,-1
1558438821843561,-4,-3,-3,-4,-9,-20,-19,-9
1558438821850544,4,2,11,9,15,24,21,9
1558438821850544,0,-3,-8,4,5,-23,-3,4
1558438821865503,-3,1,-5,-10,-2,4,-1,-2
1558438821865503,-2,-4,1,0,-2,-4,-6,-2
1558438821873483,0,0,-4,-5,-5,-8,-8,-2
1558438821873483,-1,0,6,2,-6,-3,1,-1
1558438821882457,0,-3,-4,1,5,1,3,0
1558438821882457,-1,-2,-9,-4,-4,8,-1,-5
1558438821896422,-2,1,-2,-1,-1,-3,-3,-4
1558438821896422,3,-1,10,7,5,6,9,3
1558438821903403,1,1,6,7,5,0,9,1
1558438821903403,-4,-3,-10,-4,-7,-6,-9,-7
1558438821911380,-2,-3,-2,-6,-4,-3,-1,1
1558438821911380,-1,-1,-9,-4,-9,-3,-7,-4
1558438821926345,-1,1,2,2,2,-2,-6,-1
1558438821926345,-3,-5,6,3,1,0,2,0
1558438821942296,-3,0,-5,1,-1,1,-2,-2
1558438821942296,-3,-3,2,-7,-10,-5,-11,-3
1558438821943296,-1,0,-2,3,3,4,2,0
1558438821943296,1,6,13,6,21,8,20,8
1558438821956259,0,-6,-22,-6,-2,-1,-4,-2
1558438821956259,0,1,5,1,8,16,6,-1
1558438821963240,-2,-6,-12,-5,-16,-15,-10,-3
1558438821963240,-2,-1,-5,-1,-4,-4,-11,-3
1558438821971232,2,5,5,-5,-10,-9,-2,0
1558438821971232,-2,-5,1,-1,1,-4,-1,-4
1558438821986179,-1,-2,-4,-2,-2,4,1,-2
1558438821986179,1,1,2,0,-5,-8,-2,-1
1558438821993162,-3,-2,4,-1,1,4,-4,-5
1558438821993162,-1,-2,-12,-5,-7,-2,-1,-4
1558438822002137,3,4,17,9,24,5,3,5
1558438822002137,-2,-7,-10,-10,-9,-7,2,2
1558438822017097,1,0,4,2,8,10,3,1
1558438822017097,-5,0,3,-2,-8,-3,-7,-5
1558438822023081,-4,-7,-9,-1,-5,-9,-4,-2
1558438822023081,1,1,3,-5,0,5,2,-2
1558438822031065,0,1,7,-2,-9,-9,-7,-3
1558438822031065,-4,-3,-15,-3,-4,-1,-7,-5
1558438822046024,-5,2,-8,-6,6,14,6,-4
1558438822046024,-1,-7,-2,5,1,-17,-2,2
1558438822053002,2,-2,0,0,3,0,3,-2
1558438822053002,4,6,9,6,10,11,6,5
1558438822061981,-2,-4,0,-5,-11,-6,-11,-5
1558438822061981,0,0,-3,-2,-4,7,1,0
1558438822076942,0,0,2,3,3,0,-8,-1
1558438822076942,1,3,11,5,12,5,5,1
1558438822083925,-1,-4,-5,-4,-4,1,-1,-2
1558438822083925,0,4,1,3,6,2,6,4
1558438822090900,-2,-7,-4,-2,-3,-8,-3,-1
1558438822090900,0,1,-1,-2,-5,-5,-7,-4
1558438822105859,-1,2,1,2,0,0,2,4
1558438822105859,2,-1,0,-3,1,-4,4,2
1558438822113837,-2,0,2,1,5,7,-4,-2
1558438822113837,-4,-1,1,-7,-15,-17,-13,-7
1558438822122814,0,-1,-3,0,6,-5,10,4
1558438822122814,1,1,0,-2,-4,0,1,-3
1558438822136778,-3,-1,-8,-1,-1,3,2,2
1558438822136778,1,-1,5,5,15,9,13,5
1558438822143759,3,1,4,-4,-11,-16,-5,0
1558438822143759,-1,0,0,-2,-4,-2,-10,-5
1558438822150739,-2,-5,-5,-4,-6,-8,-7,-5
1558438822150739,-1,-4,-4,-3,-8,3,-3,-2
1558438822165699,-2,-2,4,0,-15,-8,-9,-6
1558438822165699,-1,-2,-2,0,12,6,-2,1
1558438822173677,-3,0,0,-3,-1,3,0,-2
1558438822173677,-3,-4,-10,-3,-8,-10,-3,-1
1558438822182654,0,-1,-5,-2,-1,-1,-1,-1
1558438822182654,0,5,3,-4,-7,-2,-5,-3
1558438822196616,-1,-4,2,4,6,3,9,1
1558438822196616,0,3,3,3,6,9,5,1
1558438822203598,1,-3,7,6,2,2,2,-1
1558438822203598,-2,0,-9,-12,-7,-8,-4,-3
1558438822210579,0,1,-11,0,-3,1,6,2
1558438822210579,2,1,-5,3,6,8,-6,-2
1558438822225539,-1,0,6,2,4,7,3,0
1558438822225539,-3,-4,-3,-2,2,6,0,1
1558438822233518,0,-1,7,1,-7,-12,-3,-1
1558438822233518,-2,1,-2,-2,-3,-4,-6,-3
1558438822248479,-3,-3,-4,-8,-12,-4,-11,-6
1558438822248479,-1,1,9,7,-4,1,-8,-7
1558438822256457,-1,0,-12,-3,1,-5,5,2
1558438822256457,2,3,-2,1,7,-2,11,4
1558438822271418,-1,0,-3,-5,0,1,-1,-1
1558438822271418,-3,-4,-1,3,6,3,4,2
1558438822272415,0,2,0,-1,-4,2,2,0
1558438822272415,-2,-2,4,-2,3,3,-3,-1
1558438822286377,0,-3,-1,4,1,1,-1,-1
1558438822286377,0,0,6,1,-9,-6,-6,-4
1558438822293357,-4,-15,-12,-1,4,3,-10,-3
1558438822293357,-3,-5,-11,-15,-6,3,5,0
1558438822308319,1,3,2,7,10,2,5,4
1558438822308319,1,4,1,-4,-7,-8,0,1
1558438822316298,2,6,8,1,6,7,2,-1
1558438822316298,-5,-4,6,2,-6,-6,-7,-6
1558438822331258,-4,-3,-1,1,-2,-1,-4,-4
1558438822331258,1,-4,-22,-10,-1,-10,1,2
1558438822332253,1,-1,2,-2,-3,-2,-1,-4
1558438822332253,-1,-4,-3,-4,-6,-4,-7,-1
1558438822346215,1,1,-4,-6,-3,5,-4,-3
1558438822346215,0,2,11,13,10,5,7,4
1558438822353197,1,4,8,1,7,7,5,3
1558438822353197,-2,2,-9,-4,-6,-8,-4,-3
1558438822368159,-2,-5,-8,-2,-1,-10,-1,-2
1558438822368159,-2,-4,-2,-3,-5,0,-6,-4
1558438822376136,-3,-1,-6,-4,-8,-10,-7,-3
1558438822376136,3,4,12,6,5,8,2,0
1558438822391096,-3,-4,6,-9,-13,0,-5,-5
1558438822391096,-8,-6,-31,-12,-1,-12,-7,-7
1558438822392092,-1,-3,-11,-4,-2,-9,-1,2
1558438822392092,0,-3,-2,-2,-7,-18,3,2
1558438822406055,-1,1,4,3,3,9,4,-1
1558438822406055,0,-4,8,5,9,17,5,0
1558438822413036,-2,2,7,3,0,0,-1,-1
1558438822413036,-1,-2,-3,-2,0,3,-4,-2
1558438822427998,-2,-2,-2,3,-1,-5,-4,0
1558438822427998,0,3,4,-1,-5,7,3,0
1558438822435976,0,3,7,8,9,13,3,-1
1558438822435976,0,-6,-2,3,2,-8,3,5
1558438822452932,-1,2,-3,-5,3,-3,3,2
1558438822452932,1,-3,2,1,0,6,0,-1
1558438822453928,-2,-4,-2,0,-3,-5,1,-4
1558438822453928,-2,0,0,1,-4,-3,-5,-3
1558438822465897,-3,-2,-5,-4,0,2,-3,-2
1558438822465897,-4,-2,-7,-5,-15,-7,-12,-4
1558438822472877,-1,-5,-3,-2,5,-20,-2,5
1558438822472877,1,-1,1,-3,2,7,7,-2
1558438822488834,0,0,-3,-1,1,1,3,2
1558438822488834,-2,0,9,1,2,9,2,1
1558438822495816,-3,-1,-2,-4,-16,-11,-12,-4
1558438822495816,-2,-4,-9,-6,-2,-3,-5,-1
1558438822511773,3,4,2,0,0,-2,-8,0
1558438822511773,-5,-7,-5,-6,-10,-6,-6,-7
1558438822511773,3,4,5,1,15,9,12,4
1558438822511773,-3,1,4,0,-2,-10,4,1
1558438822525735,0,3,8,8,3,3,0,-4
1558438822525735,0,1,-9,-3,6,-3,2,3
1558438822533716,-3,-8,-7,-5,-6,5,-5,-3
1558438822533716,-2,-1,0,0,-6,-4,-7,-3
1558438822548675,-2,-3,0,-2,-9,-19,-6,0
1558438822548675,2,5,8,4,6,7,0,-1
1558438822555655,0,0,2,1,-2,-4,-1,-1
1558438822555655,6,8,7,6,13,13,4,2
1558438822571614,-1,-5,-13,-9,-7,-1,-5,-1
1558438822571614,-8,-11,-8,-3,-4,-9,1,0
1558438822572611,-3,-6,-8,-7,-9,-4,-6,-4
1558438822572611,-2,0,6,0,-8,-9,-8,-5
1558438822585575,-2,0,1,-2,-5,0,-2,1
1558438822585575,5,2,1,6,18,17,10,4
1558438822593554,3,2,11,4,0,-3,4,2
1558438822593554,-6,-6,-14,-5,-3,-4,5,0
1558438822608513,1,1,7,3,10,10,4,1
1558438822608513,-4,-2,-8,-10,-13,-7,-8,-5
1558438822615494,-1,-2,0,0,-4,0,-5,-1
1558438822615494,0,2,-3,2,4,1,0,2
1558438822630488,-1,3,-8,-3,-3,-3,4,-1
1558438822630488,1,0,9,5,1,-8,-1,-2
1558438822639431,-3,-1,-5,-2,0,4,-5,-6
1558438822639431,-3,-6,-1,-5,-15,-9,-7,-3
1558438822645415,4,6,20,13,23,8,13,8
1558438822645415,-4,-5,-25,-23,-21,-26,-9,-1
1558438822653394,2,5,9,8,9,7,11,6
1558438822653394,-3,-6,-13,-8,1,16,-2,-5
1558438822668353,-3,-6,3,2,0,3,-3,-4
1558438822668353,2,0,-3,5,8,-1,3,1
1558438822676333,-1,0,1,-4,-5,-1,-5,-4
1558438822676333,-2,-3,1,-7,-10,-4,-5,-2
1558438822691292,-1,-1,-8,-1,5,6,9,1
1558438822691292,2,2,8,3,1,-5,1,0
1558438822699271,-1,3,-4,-3,-4,4,-3,0
1558438822699271,-1,-1,2,-2,-4,-7,-1,-1
1558438822706252,-2,-1,-5,-1,3,-1,-4,0
1558438822706252,1,1,4,4,2,8,1,1
1558438822713233,0,-1,-4,-7,-6,-8,-3,-2
1558438822713233,0,2,1,5,6,1,10,3
1558438822728193,1,-1,-2,-2,-3,-1,4,-2
1558438822728193,-2,3,11,0,-8,-2,-3,-3
1558438822736173,1,2,-5,-8,0,1,-5,-1
1558438822736173,-1,1,-8,-3,0,2,1,1
1558438822751132,0,-9,-8,-1,-1,-7,1,1
1558438822751132,-2,-1,0,3,5,6,3,0
1558438822759111,-3,-4,2,1,-4,1,-3,-5
1558438822759111,1,0,7,1,-2,-2,-2,-1
1558438822766095,-3,0,-4,-7,-7,-3,-7,-1
1558438822766095,-1,0,6,2,-1,-5,-2,1
1558438822773074,0,-3,-7,-1,0,-4,3,1
1558438822773074,0,5,4,3,6,-1,-9,-2
1558438822788034,-3,0,-4,-1,-4,-2,7,2
1558438822788034,-3,-5,1,0,-5,-2,-2,-4
1558438822796012,-4,-6,-6,-2,-5,-10,-2,1
1558438822796012,1,-3,-1,1,3,-1,-3,-2
1558438822810972,-1,0,-2,0,0,6,-8,-4
1558438822810972,3,2,3,1,5,-5,5,5
1558438822818951,-1,2,4,3,1,4,1,-2
1558438822818951,2,0,8,6,13,0,3,1
1558438822825933,-2,-4,-14,-3,-6,-10,-1,-1
1558438822825933,-1,0,-1,0,-1,4,-1,-3
1558438822832913,-1,-9,-8,-13,-11,-3,-6,-4
1558438822832913,0,2,2,1,-1,3,-7,-4
1558438822848870,-1,2,6,2,2,5,1,-1
1558438822848870,0,1,-3,-3,0,-8,-4,-3
1558438822855886,2,4,4,6,5,-1,1,1
1558438822855886,1,-1,0,-1,3,1,9,5
1558438822870812,1,1,3,-1,4,2,9,4
1558438822870812,-2,-2,-2,-4,-10,-4,-5,-3
1558438822878826,-3,-2,-4,-2,0,5,-6,-4
1558438822878826,-3,-3,-5,-3,-6,-9,-7,-2
1558438822893787,2,3,14,3,-4,-5,-3,-1
1558438822893787,-2,-6,-14,-1,7,5,4,1
1558438822894749,-1,2,3,-6,-7,-6,-3,-1
1558438822894749,-1,2,-9,-4,-6,-3,-2,-1
1558438822908712,-7,-6,-15,-16,-10,-6,-4,-6
1558438822908712,-2,-2,4,-1,0,1,-4,-1
1558438822915693,-1,1,0,4,0,4,-2,-1
1558438822915693,1,1,9,11,8,4,5,1
1558438822930687,1,-1,3,-4,-7,-6,-1,3
1558438822930687,3,2,3,0,-1,-1,-2,-1
1558438822938632,0,0,-9,-4,0,-3,0,1
1558438822938632,-5,-3,-6,-5,-2,7,-2,-2
1558438822953591,-2,-6,2,5,0,4,-6,-5
1558438822953591,-1,-3,-11,-13,-9,-11,2,2
1558438822954589,-2,2,7,9,5,0,4,1
1558438822954589,-2,-3,-2,-7,-6,-5,-4,-2
1558438822968552,0,-2,-7,1,3,2,-1,-1
1558438822968552,-1,2,6,0,-2,-3,3,-1
1558438822975533,1,0,0,0,1,-5,-9,-2
1558438822975533,-3,-9,-11,-6,-2,5,5,0
1558438822990492,-2,0,-1,3,9,5,2,0
1558438822990492,1,6,22,11,6,-3,2,-1
1558438822999527,-3,-5,-21,-6,-6,-6,-1,-2
1558438822999527,-2,-4,-4,-6,-11,-14,-8,-4
1558438823014429,0,-2,-3,2,1,2,-5,1
1558438823014429,1,1,0,6,3,7,-2,-3
1558438823014429,0,7,18,3,0,-1,4,2
1558438823014429,-3,-9,-5,0,5,6,-3,-1
1558438823028392,-3,-1,-5,-9,-10,-8,-5,-4
1558438823028392,1,-2,-3,-4,3,4,1,3
1558438823036375,-1,-6,-14,-5,-14,-4,1,-1
1558438823036375,4,5,3,1,-6,-1,2,2
1558438823051681,0,3,8,4,-2,-11,-5,-1
1558438823051681,0,-1,4,3,3,2,1,0
1558438823059661,-1,-3,-1,1,6,11,5,-1
1558438823059661,2,3,7,5,6,3,3,1
1558438823074909,0,-5,-3,-5,-11,-7,-5,-3
1558438823074909,0,6,-1,2,-2,-3,-3,0
1558438823074909,-2,-4,7,-2,0,-5,-5,-3
1558438823074909,-3,-2,-12,-10,-10,0,-5,-3
1558438823088707,5,1,7,5,7,-3,4,1
1558438823088707,-4,-2,-9,-5,-8,-6,-1,-2
1558438823096681,-1,-1,-2,2,9,8,5,2
1558438823096681,-3,-7,-9,-5,-6,-5,-3,-1
1558438823110930,-1,1,0,-2,-1,0,-1,1
1558438823110930,-3,-7,-6,-9,-6,-4,-7,-1
1558438823126813,-2,6,10,2,-4,-6,-8,-3
1558438823126813,-1,-7,-3,0,3,5,7,0
1558438823133793,-1,-1,-1,0,-1,-5,0,2
1558438823133793,-1,-2,1,7,6,0,-3,-3
1558438823134791,-3,-6,-4,-10,-6,1,-1,0
1558438823134791,0,4,9,6,1,-8,4,1
1558438823148753,-3,0,-7,-7,-7,-1,-5,-4
1558438823148753,-2,-1,-6,-2,0,4,-2,-4
1558438823155737,3,0,3,4,0,-10,1,0
1558438823155737,-1,-2,-6,-5,0,3,-3,-1
1558438823170695,-1,-1,-10,-5,-4,-2,-4,-4
1558438823170695,-1,-2,2,-1,-1,-2,-4,0
1558438823178720,-4,-3,-5,-2,1,3,-3,-3
1558438823178720,2,4,15,7,10,6,7,5
1558438823193677,-3,-1,0,-6,-11,-7,-7,-5
1558438823193677,-2,-4,-9,-6,0,1,-3,-2
1558438823194633,-2,-5,-3,4,-3,-6,1,-1
1558438823194633,0,0,3,-2,-7,-9,-2,-2
1558438823208595,0,2,-7,1,6,7,2,0
1558438823208595,-4,-10,-4,-4,-1,7,2,-1
1558438823215576,2,2,0,-1,1,8,2,-2
1558438823215576,1,4,1,1,-1,-9,-6,-2
1558438823230569,1,2,14,1,0,-11,0,3
1558438823230569,-3,4,5,-1,-3,8,4,0
1558438823239511,-4,-9,-27,-15,-4,-2,-9,-3
1558438823239511,0,-2,-3,3,-1,-6,1,-1
1558438823254504,2,0,7,4,5,7,4,1
1558438823254504,-1,-2,0,3,-3,-2,-1,0
1558438823254504,-3,0,7,-3,-9,-12,-8,-3
1558438823254504,-3,-8,-3,0,7,12,1,-2
1558438823268466,0,0,0,8,11,0,9,3
1558438823268466,2,2,12,2,-4,-10,2,1
1558438823276412,-1,-2,-6,5,4,-1,1,-1
1558438823276412,-2,2,-7,-15,-13,-2,-8,-4
1558438823291374,-4,-5,-6,-1,-1,-2,0,-2
1558438823291374,1,-1,-1,-2,1,8,-3,0
1558438823299380,-1,0,-1,1,1,4,9,0
1558438823299380,2,5,10,5,5,-3,-4,0
1558438823314312,-3,-3,-4,-3,-6,2,-1,-1
1558438823314312,1,0,-1,2,3,-11,2,2
1558438823314312,-3,0,1,-5,-3,-2,-2,0
1558438823314312,-1,1,-5,1,-5,-1,-1,-4
1558438823328312,-3,-2,-1,-5,-5,8,-4,-5
1558438823328312,-4,-2,-5,-4,-2,-11,-6,-5
1558438823336252,2,3,6,5,6,-2,1,1
1558438823336252,-3,1,6,2,2,-1,8,2
1558438823351216,2,2,-3,-6,-9,-15,-3,-3
1558438823351216,-2,-10,-12,-3,1,5,-2,-1
1558438823359191,-1,3,4,-5,-8,-2,-5,1
1558438823359191,-3,-2,-6,-7,-5,7,-4,-1
1558438823374151,-2,-2,0,0,0,-7,-8,-3
1558438823374151,-1,2,2,3,7,10,3,-2
1558438823375150,-2,-3,-1,-4,-7,-6,0,-1
1558438823375150,0,-1,4,5,3,3,1,2
1558438823388115,1,1,0,-1,1,-9,-3,-1
1558438823388115,-1,0,-4,-2,1,5,4,1
1558438823396127,1,-1,4,2,1,3,5,0
1558438823396127,0,-1,1,1,3,2,-3,-3
1558438823411052,-2,-4,-8,1,2,3,-1,0
1558438823411052,-3,0,-7,-16,-21,-13,-10,-6
1558438823427009,-1,-3,-4,-1,-2,1,-1,0
1558438823427009,2,5,7,4,-1,-13,-2,0
1558438823433990,-2,-6,0,0,1,1,-2,0
1558438823433990,-2,0,-1,5,4,6,3,1
1558438823434987,2,2,7,9,10,11,4,3
1558438823434987,1,1,-7,-9,-7,-4,1,0
1558438823447953,-1,0,2,0,-5,-7,-4,-2
1558438823447953,-2,-2,-6,-2,-5,1,3,-1
1558438823455932,0,-2,-3,-3,-1,4,-3,-1
1558438823455932,-5,-3,-7,-5,-10,-5,-12,-6
1558438823470896,1,2,2,1,3,-4,7,1
1558438823470896,4,2,12,6,6,-1,11,7
1558438823478877,-1,0,5,4,8,2,2,0
1558438823478877,-1,-4,-3,-6,-4,3,2,-3
1558438823493872,-4,-5,-24,-16,-16,-17,-12,-4
1558438823493872,-2,-2,-2,-4,-8,-10,-11,-3
1558438823494830,0,1,-11,-5,0,-2,5,0
1558438823494830,-4,-12,3,5,3,-4,-1,0
1558438823508825,1,5,18,8,3,8,1,1
1558438823508825,-8,-13,-22,-11,-6,-7,-5,-3
1558438823515774,-3,-5,-13,-1,4,1,0,-2
1558438823515774,5,7,5,3,3,2,6,2
1558438823530770,-3,-2,0,-1,3,3,4,-1
1558438823530770,2,2,6,1,1,-1,-2,-1
1558438823538833,-1,-1,6,2,-5,-10,-12,-3
1558438823538833,-1,-7,-6,-4,-8,-7,-8,-2
1558438823553758,-1,0,-3,2,18,23,15,5
1558438823553758,1,4,14,9,-2,-1,0,-1
1558438823554756,-6,-6,-10,-15,-9,-6,-10,-6
1558438823554756,-1,2,-6,-2,3,-3,6,3
1558438823568746,-1,1,-4,-3,-6,-3,-5,-5
1558438823568746,-3,-10,4,4,8,5,0,-1
1558438823575700,0,-2,-2,0,-1,3,3,0
1558438823575700,-1,1,0,0,-8,-6,-4,-3
1558438823590661,3,2,6,2,0,-4,-1,1
1558438823590661,-2,-3,-7,0,7,11,4,1
1558438823598639,0,2,1,-2,-1,-4,0,2
1558438823598639,-1,0,4,2,3,2,-1,1
1558438823613633,-1,-2,-6,-3,-10,1,-2,-1
1558438823613633,2,5,5,0,-2,0,-4,-1
1558438823621578,-2,-2,-12,-4,-6,-1,-3,-3
1558438823621578,-3,-1,-1,1,1,7,-3,-4
1558438823628557,1,0,4,3,9,6,6,4
1558438823628557,2,1,2,6,6,-6,4,0
1558438823635538,0,2,5,-9,-9,-1,1,0
1558438823635538,-1,1,6,2,-1,-8,0,0
1558438823652495,-3,-8,-18,-12,-9,-3,-4,-4
1558438823652495,-2,6,-1,-6,-11,-12,-9,-4
1558438823659652,0,-2,0,6,8,6,2,1
1558438823659652,-1,1,2,-1,-1,0,-5,-2
1558438823673652,0,-2,4,-2,0,5,1,0
1558438823673652,-1,-1,2,-1,-5,-6,0,1
1558438823681630,0,3,3,5,0,1,-2,-1
1558438823681630,-3,-2,-11,-9,-8,-3,-5,-4
1558438823688470,-1,-6,-2,0,-6,-8,-14,-4
1558438823688470,-2,-4,-3,-4,4,7,9,2
1558438823696377,0,-2,4,2,-1,-3,-2,-2
1558438823696377,1,-3,5,4,9,2,7,3
1558438823711055,-3,-2,-2,3,2,-5,-6,-4
1558438823711055,-2,-3,-11,-11,-11,-1,-5,-3
1558438823719040,-2,-3,-6,-5,-2,-7,-1,1
1558438823719040,0,0,-2,-1,2,2,0,-2
1558438823733929,0,1,11,-2,2,8,3,1
1558438823733929,-1,3,-1,-4,-8,-5,-9,-4
1558438823741972,0,-5,4,3,1,4,3,2
1558438823741972,-5,-5,-11,-4,-2,-1,-5,-4
1558438823756900,0,0,0,4,6,3,9,1
1558438823756900,-1,-2,2,1,1,1,-3,-1
1558438823756900,2,0,-1,0,3,3,-1,2
1558438823756900,-1,-3,0,-2,-8,-5,-2,-2
1558438823770831,-3,2,5,2,-5,0,-7,-3
1558438823770831,1,4,5,5,4,3,5,1
1558438823778810,-4,-4,-18,-5,-3,-6,0,-4
1558438823778810,-2,-2,-2,-3,0,4,-1,0
1558438823793800,-1,1,-1,2,5,7,3,-1
1558438823793800,-2,-2,1,-1,-8,-1,3,0
1558438823801750,0,-2,11,4,3,-1,0,-3
1558438823801750,3,1,0,2,8,-2,7,5
1558438823816708,-3,-4,-3,-8,-11,-11,-4,-3
1558438823816708,1,0,-2,2,3,3,0,-1
1558438823816708,-2,3,4,-1,-4,0,0,-3
1558438823816708,-2,0,3,4,5,6,4,-1
1558438823830670,-2,-5,-6,-8,-3,-7,-5,-1
1558438823830670,1,-1,2,2,3,6,1,4
1558438823839672,-3,-6,-6,-1,-4,-7,-8,-4
1558438823839672,0,1,2,-6,-4,2,-2,-3
1558438823853609,0,1,1,1,-2,-1,-1,0
1558438823853609,0,-2,-2,-5,2,-6,-2,0
1558438823861732,1,-1,-3,-2,-1,-1,6,2
1558438823861732,-1,2,-3,0,-2,2,-3,-1
1558438823876631,-1,-3,-2,1,-1,-8,0,2
1558438823876631,-3,-3,8,-1,-3,2,-2,-2
1558438823877546,-3,3,-11,-3,-1,1,1,-1
1558438823877546,-3,-7,-6,-4,-8,-14,-8,-3
1558438823890561,-1,5,4,4,4,9,8,3
1558438823890561,0,-4,-8,-6,-3,-1,-5,-2
1558438823899487,2,7,13,3,4,6,-1,0
1558438823899487,-4,-6,-3,0,-4,0,-3,-3
1558438823922479,-1,-2,-6,-7,0,2,0,-1
1558438823922479,-2,-3,3,1,-2,-6,-4,-4
1558438823923428,-1,0,0,-4,-9,-5,-4,-1
1558438823923428,-2,1,-4,-3,-4,3,-2,-1
1558438823936492,1,-2,2,2,-2,-6,1,1
1558438823936492,2,-1,-4,1,6,4,3,1
1558438823937490,-3,1,-1,-1,-5,-2,-5,-3
1558438823937490,3,-3,4,5,0,-1,3,2
1558438823950509,-3,-5,-2,-5,-3,-8,-4,-3
1558438823950509,-1,3,-6,-2,-2,-10,-5,-2
1558438823959486,0,-7,-6,-4,3,1,-1,-1
1558438823959486,-1,3,10,5,6,6,8,3
1558438823973448,2,0,-6,-1,-4,-1,-6,-2
1558438823973448,0,1,-3,-3,-2,1,-2,2
1558438823981523,-2,-1,2,1,-5,-5,-6,-3
1558438823981523,0,1,1,-3,4,4,2,1
1558438823996477,2,-1,-1,3,8,3,5,0
1558438823996477,-2,-4,-1,9,7,-1,-4,-3
1558438823997427,2,4,4,-10,-17,-6,-2,0
1558438823997427,-6,-7,-13,-2,1,-5,-8,-5
1558438824011409,-3,3,1,-2,-10,-1,-1,-2
1558438824011409,2,-4,4,4,10,7,12,5
1558438824019366,-2,-3,-3,0,4,-1,-3,0
1558438824019366,2,5,4,-1,-2,0,-6,-3
1558438824033383,-2,-1,-5,-4,-6,-9,-9,-2
1558438824033383,2,4,-4,-3,1,-1,0,-2
1558438824041337,1,-8,4,3,2,-8,10,5
1558438824041337,1,3,3,-1,3,7,5,2
1558438824056297,-4,-5,-6,-4,-13,-5,-13,-8
1558438824056297,-2,2,0,1,4,7,4,4
1558438824057265,-1,-1,3,4,12,-1,6,2
1558438824057265,-2,-3,-5,-3,-3,5,-5,-5
1558438824071232,1,0,12,-1,0,-1,-3,-1
1558438824071232,-2,-5,-20,-6,-15,-8,-8,-4
1558438824079235,0,1,0,1,2,-2,1,0
1558438824079235,0,0,0,-1,0,-6,3,-1
1558438824093276,-2,-1,-11,-8,-6,-6,-2,-2
1558438824093276,-1,-3,2,-4,-4,0,-3,-4
1558438824101258,2,0,3,2,9,11,3,2
1558438824101258,3,1,-4,8,4,-9,0,4
1558438824116219,1,1,0,-3,0,-1,0,0
1558438824116219,-3,1,0,-1,-3,6,-3,-1
1558438824117183,-4,-2,0,-1,-6,-1,-6,-2
1558438824117183,-1,3,2,-2,-4,-9,-7,1
1558438824131144,1,-5,4,6,11,6,9,5
1558438824131144,-2,-1,-3,-9,-9,-10,-2,-2
1558438824139153,0,2,-1,2,-4,-2,-2,-3
1558438824139153,-2,1,4,-1,4,10,-4,-3
1558438824153085,-5,-6,-12,-4,-4,-3,-3,-6
1558438824153085,3,3,7,-3,-8,-24,0,3
1558438824162062,-2,-4,-10,-5,-4,3,-4,-4
1558438824162062,0,3,1,-4,-8,-8,-2,-2
1558438824177021,-3,-7,-1,1,10,17,2,1
1558438824177021,-3,-4,0,-1,-7,-8,-9,-4
1558438824177021,3,0,-1,4,8,2,5,2
1558438824177021,-1,-4,-13,-9,-7,-4,-5,-4
1558438824191020,-2,0,5,5,6,13,3,-2
1558438824191020,-1,2,2,2,4,6,0,-4
1558438824197999,-3,-7,0,-1,-4,-3,-2,-1
1558438824197999,2,0,6,4,7,0,5,2
1558438824212924,-1,-2,-2,-3,-10,-7,-5,-4
1558438824212924,0,1,3,3,1,5,9,2
1558438824222094,1,6,5,-1,-2,-8,3,3
1558438824222094,-4,-8,-4,-1,-1,-7,-5,-4
1558438824236861,-1,-4,-10,-5,-5,-3,-5,-2
1558438824236861,-1,0,0,2,9,8,0,-1
1558438824236861,0,3,1,0,-1,-5,-4,-4
1558438824236861,1,-2,4,-3,-12,-9,-1,-1
1558438824251018,0,5,9,4,5,3,-3,0
1558438824251018,-2,-12,-17,-4,-3,3,5,0
1558438824258942,-1,3,3,-1,1,0,-3,1
1558438824258942,-4,-4,-10,-6,0,6,2,2
1558438824273951,0,-2,5,2,2,1,1,1
1558438824273951,-1,1,8,1,-6,-13,-9,-3
1558438824281741,-3,-4,-13,-11,-10,-2,2,-2
1558438824281741,-1,1,1,2,-1,1,5,-1
1558438824296981,6,9,11,6,8,-11,8,4
1558438824296981,-5,-11,-17,-11,-2,1,-5,-5
1558438824296981,-1,-1,-1,-2,-1,-2,-4,-2
1558438824296981,0,-1,4,-1,-6,2,-2,-1
1558438824310826,-1,2,-2,1,0,-6,-4,1
1558438824310826,-4,-1,1,0,6,2,5,2
1558438824318810,-4,0,-1,-4,-7,0,-9,-7
1558438824318810,1,-2,9,0,1,1,-2,-2
1558438824333786,0,0,-17,-2,12,8,9,7
1558438824333786,0,5,-4,-7,-14,-17,-9,-3
1558438824341715,-5,-11,-2,9,9,13,-1,-1
1558438824341715,-2,-5,-2,-11,-10,-2,2,3
1558438824356707,-1,-3,-2,-3,-12,-7,0,-3
1558438824356707,3,3,9,6,7,0,3,2
1558438824357672,2,5,3,-8,-6,-3,-1,-2
1558438824357672,-2,-1,-9,-2,2,1,-7,-2
1558438824370636,-3,-6,2,-3,-8,-8,-10,-2
1558438824370636,-1,1,1,0,-5,3,-5,-2
1558438824378614,3,0,0,1,14,12,14,7
1558438824378614,1,3,2,1,0,-11,0,2
1558438824393574,-5,-3,-3,-5,-12,-2,-7,-5
1558438824393574,0,0,5,-1,-4,-6,-4,-1
1558438824401749,-2,-1,1,4,8,11,2,1
1558438824401749,2,0,-4,3,8,6,5,1
1558438824416541,-1,2,3,-2,-4,-3,0,-1
1558438824416541,-4,-3,-3,-2,-4,3,-2,-2
1558438824417510,2,-2,-3,3,-5,-13,-8,-4
1558438824417510,-3,-6,-13,-8,-6,-9,2,0
1558438824431506,1,2,6,2,-1,1,-1,0
1558438824431506,-5,-6,-3,-3,0,5,-1,-1
1558438824438453,2,5,7,3,-4,4,-5,-2
1558438824438453,-4,-3,-2,-6,-6,-7,-5,-3
1558438824453415,-4,-12,-8,-4,-6,-8,-5,-5
1558438824453415,2,-1,-2,4,16,25,15,4
1558438824461421,-1,-3,-7,-5,-1,-10,1,1
1558438824461421,2,5,11,8,7,7,1,0
1558438824476382,-2,-4,-4,-3,-7,-8,-4,-1
1558438824476382,2,1,0,0,2,0,-4,-1
1558438824477350,-1,-4,1,0,-10,-10,-5,-3
1558438824477350,2,0,-3,-2,-3,1,-8,-4
1558438824491333,1,6,-7,-1,5,3,6,3
1558438824491333,-3,-7,2,0,3,-1,-1,-5
1558438824498329,-4,0,-5,-7,-8,-2,-5,-3
1558438824498329,-4,-4,-5,0,-2,-8,-5,-1
1558438824513253,-1,1,3,-4,-1,9,-2,-1
1558438824513253,1,0,3,-3,-9,-5,3,1
1558438824521264,2,0,5,8,12,5,8,3
1558438824521264,2,1,3,1,4,-6,1,1
1558438824536193,-4,1,-3,1,-1,1,0,-2
1558438824536193,-1,-2,-8,-3,0,0,-6,-2
1558438824544175,0,-4,1,1,-2,-4,-4,-2
1558438824544175,-2,0,-2,0,1,4,4,-2
1558438824551189,1,4,9,6,9,-1,8,2
1558438824551189,-2,0,3,-3,-7,-11,-7,-3
1558438824558166,-4,-5,-13,-7,-4,-4,-7,-4
1558438824558166,-2,-8,-4,0,-1,8,4,-1
1558438824573093,1,2,0,-1,-1,1,-4,-3
1558438824573093,-2,-1,6,2,-1,-1,-1,2
1558438824581072,0,-2,-6,-3,0,-6,1,2
1558438824581072,-2,-4,-8,-9,-3,-2,-3,-1
1558438824605008,1,-1,6,5,5,4,1,-1
1558438824605008,-2,-3,-15,-1,-6,-11,-2,-2
1558438824606007,-1,3,9,-1,1,5,4,1
1558438824606007,-1,0,-1,-1,-4,2,-5,-2
1558438824610992,-2,-2,-6,-6,-4,2,-3,0
1558438824610992,1,3,3,4,7,2,7,1
1558438824619003,-2,-5,-6,-6,-7,-6,1,-1
1558438824619003,-2,3,6,3,3,-2,1,-1
1558438824633969,-5,-10,-3,0,1,0,-1,1
1558438824633969,-2,0,0,1,-1,5,-1,-1
1558438824641909,-1,-1,2,2,-5,-1,-7,-4
1558438824641909,-2,-3,-12,-7,-4,-4,-2,-2
1558438824655875,2,2,3,-2,-2,2,7,1
1558438824655875,-1,0,1,4,-2,-3,-7,1
1558438824663878,-2,-4,-4,-8,-2,3,1,0
1558438824663878,0,4,3,2,-3,3,-2,0
1558438824670868,-3,1,0,5,1,-8,0,-1
1558438824670868,-1,2,-2,-1,0,-3,3,2
1558438824677851,1,2,1,1,-3,-5,-2,-2
1558438824677851,1,2,14,3,0,2,-4,-2
1558438824693772,-3,-8,-20,-12,-5,1,-4,-1
1558438824693772,2,-2,4,0,4,-2,8,3
1558438824701750,-1,1,-3,-1,-2,-8,-3,0
1558438824701750,0,1,10,7,5,5,1,0
1558438824715912,0,3,-4,-3,0,3,0,-3
1558438824715912,-1,-3,3,0,-1,4,-7,-4
1558438824723890,-3,-3,-2,-1,-1,1,-2,0
1558438824723890,-5,-6,-9,-4,-7,-3,-1,-4
1558438824739679,1,3,10,3,4,3,-1,-1
1558438824739679,0,2,-5,-4,1,-5,-2,-1
1558438824739679,-1,-2,-1,2,-9,-7,1,-1
1558438824739679,2,0,2,3,4,0,-2,1
1558438824753610,-2,-5,-5,-6,-4,-6,-6,-3
1558438824753610,0,2,7,-1,-4,6,2,-2
1558438824761709,-1,-1,-6,3,12,4,6,2
1558438824761709,-4,-3,-2,-9,-5,-19,0,2
1558438824775671,-1,-5,1,-5,-8,-2,-1,-2
1558438824775671,-3,-2,-1,-2,-10,-13,-7,-2
1558438824784528,-3,2,-4,0,1,5,-3,-5
1558438824784528,0,-2,-3,1,2,11,3,-1
1558438824798490,1,-1,6,4,5,0,-1,-1
1558438824798490,-3,-2,-2,-4,-1,2,3,-1
1558438824799488,-1,0,2,-2,-9,-13,-4,-1
1558438824799488,-3,-5,-6,3,-2,-5,-1,0
1558438824813616,0,9,-2,-8,-6,-4,-3,0
1558438824813616,-3,-12,-5,-3,0,5,-2,-2
1558438824821626,0,-2,2,8,4,-1,-3,0
1558438824821626,2,1,-1,-3,-5,-2,3,1
1558438824835598,2,4,13,6,-1,-1,2,2
1558438824835598,-5,-5,-20,-9,-2,-3,-5,-1
1558438824844564,-1,1,4,-1,3,2,3,0
1558438824844564,-2,-5,-2,0,-1,-1,-5,-3
1558438824859329,-2,-3,-5,0,-4,-6,-1,-3
1558438824859329,0,7,8,2,2,0,-1,-2
1558438824860362,-4,-10,-6,-5,-2,2,-4,-2
1558438824860362,1,6,-2,-3,-1,-5,-3,-1
1558438824873486,-1,-2,-3,0,1,-8,-2,-1
1558438824873486,1,2,1,3,3,5,3,2
1558438824881275,1,-5,3,1,-4,1,-5,-1
1558438824881275,-2,0,-9,-3,4,8,3,0
1558438824896275,-2,-4,0,7,5,1,1,0
1558438824896275,0,-1,4,-6,-3,-1,-3,-2
1558438824904213,-2,3,-5,-4,0,-4,-4,-3
1558438824904213,-1,1,-3,-1,-5,-5,-5,0
1558438824919169,-1,0,1,1,2,1,-1,-2
1558438824919169,-1,-6,3,4,0,1,-4,-3
1558438824920168,-3,-1,-9,-12,-12,-7,-4,-4
1558438824920168,-1,-3,-6,-3,-2,-6,-4,-3
1558438824933178,0,-3,-9,-5,2,8,3,0
1558438824933178,2,3,9,5,0,-6,-3,-1
1558438824941118,-1,2,6,0,0,3,3,1
1558438824941118,-3,-3,-1,-4,-2,0,0,-1
1558438824956070,-2,-4,-6,-3,0,-1,-1,-1
1558438824956070,-2,-2,-12,-5,-7,-2,-3,-2
1558438824964091,1,2,8,7,1,-2,-1,-1
1558438824964091,-4,-7,-9,-5,-7,-3,-3,-6
1558438824979011,4,5,19,11,9,7,3,1
1558438824979011,-3,2,-9,-10,-5,1,-1,0
1558438824980010,-2,-2,-2,-3,-3,-10,0,2
1558438824980010,1,4,5,4,4,2,-1,0
1558438824992971,-1,-4,-3,1,-1,7,2,1
1558438824992971,3,3,1,5,9,4,3,4
1558438825002010,-1,1,4,1,3,6,3,3
1558438825002010,2,1,6,1,-3,-1,1,-1
1558438825016073,-2,-3,-12,-11,-8,-2,-8,-3
1558438825016073,-2,-1,-4,-2,-5,-2,3,-2
1558438825024045,1,-2,2,2,5,-4,1,2
1558438825024045,2,9,10,4,3,-3,0,2
1558438825039929,-5,-5,-5,-2,-5,-7,-1,-2
1558438825039929,-1,2,-8,-9,-5,0,-8,-3
1558438825040879,0,-2,-3,4,0,3,-7,-4
1558438825040879,-2,-1,5,-3,-4,4,7,2
1558438825053810,-3,2,-3,-1,7,2,5,0
1558438825053810,0,-6,2,-1,-3,-5,2,0
1558438825061869,-4,3,-2,0,-2,0,-3,-3
1558438825061869,0,0,-4,-2,3,-1,4,1
1558438825075829,-3,-6,8,1,-1,-2,0,1
1558438825075829,0,-5,-7,1,2,-5,-3,0
1558438825083783,1,0,-3,-3,0,0,0,1
1558438825083783,-1,-6,-9,-9,-6,4,0,-4
1558438825098724,0,1,3,3,-4,-10,-2,-1
1558438825098724,-1,1,5,7,11,9,4,2
1558438825099685,-1,1,-1,0,-2,-5,-4,-4
1558438825099685,-1,-4,2,4,0,0,-7,0
1558438825114651,1,-2,-7,-7,-12,-10,-2,-3
1558438825114651,0,1,3,0,2,-7,6,3
1558438825121657,0,-1,5,-3,0,0,0,1
1558438825121657,-4,-9,-15,-3,2,1,-2,-3
1558438825135590,-2,3,2,0,2,3,-1,-2
1558438825135590,-3,-4,5,4,-6,-4,-6,-6
1558438825143599,1,-2,2,0,-5,1,-1,0
1558438825143599,-2,-2,-23,-13,-1,2,7,0
1558438825159527,-1,-6,-2,-3,-4,0,-4,-1
1558438825159527,-3,2,-4,-5,-7,-6,-5,-1
1558438825159527,-1,-6,0,-2,2,8,0,-4
1558438825159527,3,3,11,6,4,0,0,-1
1558438825173520,0,3,-3,1,3,-7,-3,1
1558438825173520,-3,-3,0,-4,-9,-3,-6,-2
1558438825181498,0,2,-1,3,3,-6,5,1
1558438825181498,-1,4,4,-1,-1,1,-2,-2
1558438825195459,1,2,3,3,4,4,4,1
1558438825195459,2,-4,-3,-2,3,2,-2,0
1558438825204406,-6,-7,-9,-2,-6,-1,-2,-2
1558438825204406,-1,0,4,4,-3,-16,-1,1
1558438825219367,0,1,3,0,1,3,-5,-3
1558438825219367,0,-3,-2,-6,-4,3,1,-4
1558438825219367,1,3,0,0,1,6,0,1
1558438825219367,-1,0,-1,0,-1,-10,-5,0
1558438825233361,2,-1,8,5,5,-2,2,2
1558438825233361,-6,-5,-21,-16,-10,-3,-5,-7
1558438825241335,-3,-4,6,4,1,3,0,-1
1558438825241335,-3,0,5,2,3,2,0,-2
1558438825256297,-2,1,-6,-4,-5,-9,-1,-1
1558438825256297,0,1,10,6,3,1,1,0
1558438825264522,-1,-2,-7,-5,-7,-8,-3,-3
1558438825264522,2,5,6,2,-5,6,-7,-3
1558438825279489,-4,-8,-5,1,9,10,5,2
1558438825279489,2,2,5,5,0,-2,4,-1
1558438825280362,-3,-1,-8,-5,2,2,-1,-4
1558438825280362,0,-2,3,2,-1,6,1,-4
1558438825293441,3,1,6,1,-5,-5,-2,1
1558438825293441,-1,-1,0,1,3,-8,-9,0
1558438825302164,-4,1,-7,-6,-6,-4,-3,-1
1558438825302164,1,0,-6,1,0,0,-3,1
1558438825316549,-3,-4,-2,-8,-11,-1,-6,-4
1558438825316549,-3,-3,1,1,0,4,2,-1
1558438825324576,1,-3,-11,-6,-3,-18,-6,-2
1558438825324576,-2,-3,3,-2,-4,-3,-3,-4
1558438825339492,-2,4,-1,-2,1,1,1,-1
1558438825339492,2,1,-4,4,3,-2,3,3
1558438825340044,-2,0,0,0,2,8,0,-2
1558438825340044,2,-2,0,1,0,-8,-2,2
1558438825353011,2,1,-2,-4,-8,-6,-2,-4
1558438825353011,-5,-4,5,1,2,9,-4,0
1558438825361985,0,0,5,2,4,-4,6,3
1558438825361985,-2,2,-2,-3,-2,4,-4,-3
1558438825376377,-1,0,-3,-6,-13,-6,-5,-2
1558438825376377,0,0,-5,-1,2,-6,3,1
1558438825383926,2,-3,0,4,5,10,1,0
1558438825383926,-5,-6,-4,-3,-4,-5,1,0
1558438825398885,1,1,0,-1,5,7,1,-1
1558438825398885,-3,-1,-1,1,1,2,-1,-2
1558438825399883,3,2,4,0,-4,1,-1,1
1558438825399883,0,3,7,5,2,-1,4,1
1558438825414322,2,-1,-11,0,7,4,6,5
1558438825414322,0,-3,-6,-4,-3,-1,-1,1
1558438825422247,-1,1,1,-1,-3,2,4,-2
1558438825422247,-1,-2,0,0,2,-2,-2,-1
1558438825436054,-4,-5,1,-6,-5,-6,-6,-1
1558438825436054,2,4,2,0,1,3,1,-1
1558438825443766,-4,-5,-3,-3,-2,-3,-4,-3
1558438825443766,0,1,1,0,-1,0,3,1
1558438825458728,0,-1,2,3,4,2,5,0
1558438825458728,-3,-2,0,0,-4,-4,-1,-1
1558438825467162,-1,2,3,-3,-4,-3,-6,-2
1558438825467162,-2,-11,-8,-5,-2,3,-2,-1
1558438825474172,-2,-2,-8,-1,-7,-4,-4,-4
1558438825474172,-2,2,-10,-6,0,0,-2,1
1558438825482110,-4,-2,-9,1,2,-3,0,-1
1558438825482110,1,1,10,1,1,4,5,2
1558438825496736,-4,-3,-1,-3,-7,0,-7,-5
1558438825496736,0,2,-6,0,1,-5,3,0
1558438825504724,-1,-1,5,1,2,-2,3,0
1558438825504724,-4,-3,-3,-1,-2,0,-5,-3
1558438825518918,-2,0,3,0,-2,-8,-8,0
1558438825518918,-1,-1,0,-3,-5,-2,-5,-3
1558438825527815,-1,1,-3,-2,3,-2,1,3
1558438825527815,0,1,-2,-2,3,3,4,0
1558438825534867,-1,1,-3,0,-4,-4,-3,-2
1558438825534867,-1,1,0,-2,1,1,1,0
1558438825541824,1,-1,5,-1,-4,-5,-2,-1
1558438825541824,-5,-6,-11,-4,-3,1,-5,0
1558438825556685,-2,0,0,2,4,0,4,0
1558438825556685,0,0,1,4,-1,2,3,-1
1558438825564804,1,0,-7,-5,-3,4,1,-1
1558438825564804,1,9,6,1,-2,0,0,-1
1558438825578740,-2,-1,3,1,2,-1,-1,-2
1558438825578740,-2,-7,-1,-2,-2,-1,-4,-2
1558438825586385,-2,-1,-3,-3,-4,-2,-4,-3
1558438825586385,2,-2,-10,-4,-1,-4,-4,2
1558438825593370,0,0,3,2,-1,-3,0,1
1558438825593370,-1,-1,-5,-2,-9,-10,-3,-2
1558438825601343,1,2,3,1,7,7,0,1
1558438825601343,0,1,5,5,2,1,2,-1
1558438825616304,1,1,1,-3,-3,3,3,-1
1558438825616304,-2,-3,6,6,8,10,0,-2
1558438825624281,-4,-1,4,0,-2,6,1,-1
1558438825624281,-1,-7,-23,-13,-1,-8,-1,-1
1558438825639300,-2,-5,-3,0,0,2,4,1
1558438825639300,2,3,14,7,7,-1,7,3
1558438825647407,-4,-3,-10,-2,-2,-2,-4,-2
1558438825647407,-1,-3,7,-1,-4,0,-1,0
1558438825662620,-3,-3,-13,-9,-6,-3,-8,-5
1558438825662620,2,2,0,-1,-10,-5,-3,-1
1558438825663179,1,4,5,2,7,9,2,0
1558438825663179,-1,-7,-2,-2,-6,-2,0,-2
1558438825676604,2,-1,4,12,14,2,2,2
1558438825676604,0,4,-5,-13,-10,-3,-1,-2
1558438825684543,3,-1,9,4,-3,-20,-3,4
1558438825684543,-3,3,-8,-5,-6,-7,-6,-5
1558438825698085,-3,-8,-7,-5,-5,-1,-2,-2
1558438825698085,-1,-2,11,5,2,4,-5,-2
1558438825706971,3,-2,-21,-5,7,6,12,5
1558438825706971,1,3,6,2,2,0,1,0
1558438825722531,0,1,4,-2,0,1,-1,-2
1558438825722531,-1,1,0,1,-2,-5,-3,0
1558438825722531,-3,-5,-7,-6,-14,-8,-7,-8
1558438825722531,0,1,5,5,7,2,2,0
1558438825735497,0,2,1,6,11,1,6,3
1558438825735497,-2,-2,-1,-4,-2,3,-7,-2
1558438825744471,-1,2,5,2,-1,0,-4,-2
1558438825744471,-6,-6,-2,-3,-1,4,2,-2
1558438825758434,-2,2,4,-3,-10,-14,-7,-4
1558438825758434,-3,-6,-8,-1,6,7,11,1
1558438825767445,5,1,5,2,5,-3,2,3
1558438825767445,1,4,2,-2,-3,-1,-2,-2
1558438825782806,-4,-12,-11,-9,-11,-7,-6,-5
1558438825782806,0,1,3,2,-3,-3,-4,-2
1558438825783332,-2,-2,-9,-6,0,12,5,-1
1558438825783332,0,3,8,5,1,1,1,1
1558438825795304,3,2,-3,-6,-3,-14,0,0
1558438825795304,-2,-3,-16,-8,-1,-4,2,3
1558438825804314,-1,-1,7,4,3,3,-1,-5
1558438825804314,-3,2,-2,1,-4,2,-4,0
1558438825818725,-3,-10,1,-1,1,9,3,0
1558438825818725,-3,0,0,-3,-3,-5,-3,-3
1558438825834689,-2,1,3,8,2,-7,-5,-2
1558438825834689,1,-5,-4,-11,-9,0,0,-1
1558438825842612,1,6,2,2,-3,-4,-6,-2
1558438825842612,-1,1,0,-4,-2,-6,0,1
1558438825843176,-1,-1,1,2,3,3,3,1
1558438825843176,-1,2,-6,-3,4,1,2,-1
1558438825856482,-4,-7,-10,1,-4,1,-6,-1
1558438825856482,-1,-2,-5,-1,-2,2,0,-4
1558438825864439,-2,1,0,-2,1,2,-2,-4
1558438825864439,1,2,3,5,7,-12,-3,4
1558438825879080,4,4,1,-5,0,8,9,4
1558438825879080,-4,-3,-9,-5,-8,-3,-6,-6
1558438825886063,-3,-4,5,0,-1,2,-2,-2
1558438825886063,-1,-3,-9,-4,-6,0,-6,-7
1558438825902350,-1,2,6,-2,-2,7,8,-4
1558438825902350,-4,-8,-8,-1,2,-13,-7,-6
1558438825903017,-2,-2,-3,-4,-9,-7,-8,-2
1558438825903017,0,-1,1,0,0,0,-3,0
1558438825916308,-1,3,0,3,13,12,2,2
1558438825916308,-1,0,6,2,1,0,4,0
1558438825924273,-2,1,2,-1,-4,-7,5,1
1558438825924273,-6,-9,-12,-7,-4,-4,-6,-6
1558438825938253,-3,-1,-10,-7,-13,-14,-10,-5
1558438825938253,1,-1,-5,-7,0,3,3,2
1558438825947901,1,0,0,3,-2,-9,-2,-2
1558438825947901,-4,-8,3,1,-1,5,-1,-1
1558438825961149,2,7,12,5,6,6,3,3
1558438825961149,-3,0,-9,-6,-5,-6,-2,-2
1558438825969840,1,-5,-7,-4,-5,-7,-8,-2
1558438825969840,1,1,2,-1,7,12,7,-1
1558438825975819,-2,-2,-1,2,1,-3,-1,-5
1558438825975819,1,-1,7,3,-5,3,-4,-2
1558438825984795,-1,-2,-2,-3,1,6,0,0
1558438825984795,1,3,1,4,3,-2,-5,-2
1558438825998758,2,-1,1,-2,6,-3,4,3
1558438825998758,0,0,1,0,-7,-4,-5,-3
1558438826006739,-4,-4,-10,-9,-18,-11,-10,-2
1558438826006739,3,5,6,5,5,2,1,2
1558438826020700,-2,3,0,0,-1,2,3,-1
1558438826020700,-1,-3,-3,4,2,3,-1,-3
1558438826037655,0,-6,1,-5,1,1,0,0
1558438826037655,-3,-3,-2,-2,-4,-3,5,-2
1558438826038653,-2,1,-3,0,-1,-8,-1,-3
1558438826038653,-4,-12,-1,3,-4,-6,-6,-1
1558438826044852,-1,1,3,2,-1,3,-1,0
1558438826044852,1,-2,-2,2,10,8,4,3
1558438826058600,0,-2,-4,-3,3,4,3,2
1558438826058600,-1,2,0,-5,-5,0,-3,-3
1558438826067576,-2,0,-5,-3,-8,-11,-5,-4
1558438826067576,2,0,0,-1,-2,1,2,2
1558438826080541,-1,-3,-1,2,1,2,0,2
1558438826080541,4,7,6,2,10,0,4,6
1558438826089528,-1,2,-2,-3,-2,5,-5,-8
1558438826089528,-2,1,-1,1,-9,-12,1,-2
1558438826095500,-3,-7,-2,-2,-1,5,-7,-5
1558438826095500,-1,-5,-3,1,-1,-5,1,2
1558438826104504,-2,-1,1,1,6,2,1,1
1558438826104504,-2,-1,-5,-5,-12,-8,-5,-3
1558438826118439,-1,-1,-6,-4,-3,-1,-6,-3
1558438826118439,1,3,11,2,-1,-2,-4,-2
1558438826127415,-1,2,-1,0,5,3,4,3
1558438826127415,-4,-9,-16,-4,0,-5,-1,-3
1558438826141704,-1,0,-2,-1,-1,-4,0,-3
1558438826141704,-1,2,-3,-1,-3,-3,-3,-4
1558438826149667,-2,-2,3,1,-4,-2,-5,-6
1558438826149667,0,2,6,3,10,14,15,5
1558438826156377,-3,-4,-7,-4,-11,-6,-10,-4
1558438826156377,0,3,5,4,9,8,2,-2
1558438826164318,-1,-1,-4,-3,0,3,3,1
1558438826164318,0,-3,12,0,-8,-12,-13,-4
1558438826178278,-2,-4,-17,-8,-2,-4,-2,1
1558438826178278,4,4,6,5,11,3,4,8
1558438826187257,2,3,-2,-1,2,7,5,0
1558438826187257,-6,-8,-8,-5,-9,-7,-4,-3
1558438826201234,0,1,8,4,-3,2,0,-4
1558438826201234,-1,-4,-3,-6,-1,2,4,1
1558438826209198,2,2,5,1,0,-7,3,1
1558438826209198,2,0,-11,-1,6,1,-3,-2
1558438826216178,2,0,2,-3,5,12,7,4
1558438826216178,-3,-2,-10,-5,-6,5,4,-1
1558438826225154,-4,-4,-3,-3,-3,-3,-7,-2
1558438826225154,-2,0,7,4,-1,-8,-4,0
1558438826238118,-2,-2,-8,-5,-3,-2,-8,-4
1558438826238118,5,4,0,1,5,4,16,7
1558438826247095,-1,1,-2,-2,-2,-11,-3,-4
1558438826247095,-2,-1,2,-2,-4,1,-6,-8
1558438826261057,0,3,5,4,3,-2,-2,-1
1558438826261057,0,2,1,-2,-3,3,-7,-2
1558438826270037,0,-5,-5,-2,5,-1,4,4
1558438826270037,-1,0,4,8,7,13,-2,-7
1558438826276017,0,2,5,-10,-5,-13,3,5
1558438826276017,-4,-8,-6,-2,-7,-1,4,-3
1558438826285014,-2,1,2,1,-4,1,-5,-2
1558438826285014,6,7,1,-3,4,-4,0,1
1558438826298119,-5,-1,1,5,6,11,1,0
1558438826298119,-14,-17,-14,-10,-11,-13,-16,-6
1558438826306936,2,-3,-6,0,-4,-10,0,2
1558438826306936,0,3,9,8,7,1,0,1
1558438826320916,2,3,8,-7,-10,2,2,-2
1558438826320916,0,-4,-14,-7,-6,-14,-8,-3
1558438826329874,-3,-2,-1,-1,-2,3,3,-1
1558438826329874,0,4,4,0,-1,-17,-1,2
1558438826335863,2,-2,5,8,9,3,4,1
1558438826335863,-7,-10,-5,-5,-11,0,-3,-6
1558438826344833,1,1,1,-2,-5,0,-11,-1
1558438826344833,-1,5,7,2,-6,5,-2,-3
1558438826357981,-4,-9,-16,-7,-6,-6,-3,1
1558438826357981,5,6,9,10,13,-4,9,4
1558438826366933,1,-2,-4,-1,7,8,5,1
1558438826366933,-3,-4,-5,-10,-10,-7,-4,0
1558438826380737,0,2,-1,0,4,5,-1,-1
1558438826380737,-3,0,2,3,-1,5,-6,-4
1558438826389714,-1,-5,-7,-5,-9,-3,2,-1
1558438826389714,3,3,5,5,11,1,11,4
1558438826395699,-2,-2,-1,-3,-6,-12,-4,-4
1558438826395699,1,0,-7,-3,2,5,2,3
1558438826404677,-4,-2,3,5,0,1,-3,-5
1558438826404677,-3,-6,-14,-20,-20,-4,-8,-4
1558438826418636,3,3,15,15,15,-2,4,2
1558438826418636,-3,-1,-11,-17,-10,-10,-9,-6
1558438826427615,-2,-4,-5,2,-2,-1,-1,-1
1558438826427615,1,-3,2,2,7,7,4,2
1558438826440596,-6,-6,-3,-6,-14,-6,-7,-7
1558438826440596,4,2,0,1,6,1,-2,0
1558438826449552,1,0,3,0,2,1,6,3
1558438826449552,0,4,-8,-7,-7,-8,-12,-3
1558438826455540,-3,-8,-4,2,-3,1,0,0
1558438826455540,1,1,4,-1,1,5,8,0
1558438826464535,-1,4,0,-2,2,-10,1,1
1558438826464535,-1,-4,0,1,2,1,-3,0
1558438826478478,-2,-3,0,-1,-5,-5,-6,-2
1558438826478478,-2,-6,5,3,-2,1,-10,-9
1558438826487452,2,-5,-14,-8,-3,4,2,1
1558438826487452,-3,1,-7,0,-10,-5,-3,2
1558438826500418,-4,0,-7,-1,3,7,-4,-4
1558438826500418,0,4,5,1,3,-3,3,1
1558438826509393,2,6,15,10,8,-8,-3,0
1558438826509393,-3,-6,-14,-10,-6,-5,2,-4
1558438826515638,-3,-6,-5,-5,-2,11,-1,-2
1558438826515638,0,2,4,-2,-3,3,-11,-4
1558438826524545,1,-1,2,-2,4,8,8,2
1558438826524545,-2,-5,-7,-2,3,3,2,0
1558438826538316,3,1,-2,-1,-6,-10,-2,1
1558438826538316,0,3,3,1,-1,0,2,1
1558438826547293,-5,-5,-4,-3,-5,-7,-7,-4
1558438826547293,-2,-3,1,-1,-1,-5,-4,-2
1558438826561256,3,3,4,3,3,4,8,1
1558438826561256,-1,-1,0,4,7,3,0,1
1558438826570233,-2,-4,0,-1,-1,4,-4,-2
1558438826570233,-1,2,4,-6,-6,0,2,4
1558438826576288,-2,2,-5,-4,-1,-19,-4,1
1558438826576288,-1,-4,-3,0,-3,-9,-6,-1
1558438826584202,0,-1,3,2,-3,1,-5,-4
1558438826584202,2,2,2,4,9,9,4,0
1558438826598155,-1,-1,-1,0,3,-3,1,-1
1558438826598155,-6,-7,-7,-5,-7,-2,3,-2
1558438826607133,-2,-1,-1,-3,-6,-3,3,1
1558438826607133,0,-1,4,7,5,0,-3,-3
1558438826621098,-1,0,-2,-5,-8,-2,-9,-4
1558438826621098,4,1,1,2,0,1,4,3
1558438826630070,-4,-4,-7,-8,-3,-11,-8,-3
1558438826630070,-2,-1,3,-1,-9,4,2,-3
1558438826645031,-4,-8,-2,0,-4,-9,-3,1
1558438826645031,1,3,-3,4,10,0,7,4
1558438826646028,-1,0,-1,-5,-1,2,-2,-1
1558438826646028,0,-1,3,5,11,9,9,1
1558438826657995,3,4,-5,-5,-6,-9,2,-1
1558438826657995,-2,-4,7,7,-2,3,-4,-5
1558438826667010,-1,-2,-16,-6,-4,-4,-5,-3
1558438826667010,-4,-6,-9,-3,-4,-3,-4,2
1558438826680954,1,2,8,3,2,1,-6,-3
1558438826680954,0,2,-4,-5,0,-6,-2,0
1558438826696000,-1,0,0,5,1,-1,7,2
1558438826696000,-3,0,4,-4,-7,-5,-6,-5
1558438826704869,-2,5,6,1,-4,3,-1,-2
1558438826704869,-3,-10,-14,-6,-6,5,-2,-5
1558438826705867,-2,-6,-1,1,1,7,0,-3
1558438826705867,3,0,2,7,10,-6,0,4
1558438826717835,-1,4,2,-7,-10,-8,1,1
1558438826717835,-1,5,3,5,14,14,3,-2
1558438826726814,-1,3,7,2,-9,-13,-7,-4
1558438826726814,-5,-4,-8,-5,-2,1,1,-2
1558438826740775,3,-2,-5,2,5,2,6,5
1558438826740775,-1,-1,2,-5,-7,-7,-5,-6
1558438826749753,2,5,3,5,3,8,-5,-3
1558438826749753,0,-4,-1,-3,-4,0,-6,-3
1558438826764737,-2,2,1,-4,1,4,6,-3
1558438826764737,0,1,0,-4,-6,-1,-6,2
1558438826765708,-4,-8,-10,-3,2,5,2,-1
1558438826765708,-3,0,-1,-2,-1,-4,1,1
1558438826778673,0,-6,-7,-1,-1,-4,-6,0
1558438826778673,-2,4,7,0,-4,-12,3,3
1558438826787649,0,3,4,0,4,5,4,-2
1558438826787649,0,0,0,-1,-4,5,-3,-1
1558438826800615,-3,-6,2,0,-1,6,0,-3
1558438826800615,4,4,2,4,7,6,10,4
1558438826809591,-3,-4,-8,-9,-4,-4,0,-1
1558438826809591,0,-5,-7,-3,-7,-9,-1,-2
1558438826824549,-2,-2,0,-1,-6,-6,-12,-5
1558438826824549,0,1,1,-1,2,14,0,-3
1558438826825547,3,0,5,8,1,-6,1,2
1558438826825547,2,4,7,-10,-1,-3,4,4
1558438826838513,-5,-6,-16,0,0,8,-5,-7
1558438826838513,2,1,8,7,9,-4,9,6
1558438826847489,-1,6,3,-1,8,5,-2,-2
1558438826847489,-7,-12,-6,-1,-4,-1,-3,-2
1558438826860459,0,0,-1,-1,2,6,1,1
1558438826860459,1,-3,-1,3,-7,-9,-2,1
1558438826869430,-1,-4,-6,-16,-10,-10,0,4
1558438826869430,-1,2,4,6,5,3,2,-3
1558438826884399,-2,-4,-1,-8,0,-2,2,-1
1558438826884399,-6,-3,-8,-4,-9,-3,-3,-5
1558438826886386,2,-1,0,2,-1,-7,-3,0
1558438826886386,-1,-2,-3,-3,-2,1,-4,-5
1558438826898356,0,-1,-1,-4,-7,-6,-3,0
1558438826898356,0,3,1,0,1,-4,-1,1
1558438826907329,1,2,2,0,-4,-6,-3,-1
1558438826907329,-1,-3,-5,-3,4,6,6,1
1558438826920295,2,1,5,7,11,8,-3,1
1558438826920295,-2,-3,2,1,-5,-11,0,2
1558438826929270,-5,-3,-11,-7,-3,0,4,-2
1558438826929270,2,-1,2,3,1,-1,-5,-4
1558438826944231,0,1,1,-1,-7,-8,-4,1
1558438826944231,-1,-4,-5,-7,-9,-3,-4,-1
1558438826946225,2,3,6,4,8,13,9,2
1558438826946225,-4,-2,-9,-2,-1,-5,-7,-5
1558438826959189,-3,0,1,1,-3,2,2,-2
1558438826959189,-5,-3,-7,-5,-2,0,-7,-5
1558438826973155,2,-2,6,5,5,-4,3,3
1558438826973155,1,3,1,0,3,-2,1,3
1558438826981130,1,5,8,4,-1,-1,2,1
1558438826981130,-2,-2,-5,-6,1,2,-4,-5
1558438826990107,-4,-12,-13,-1,-2,-1,0,-4
1558438826990107,-1,-4,0,1,-7,-2,-4,0
1558438827003080,3,5,-1,-2,8,3,6,3
1558438827003080,1,2,9,2,3,7,1,1
1558438827012049,-4,-6,-7,-1,-6,-8,-8,-4
1558438827012049,-1,2,-4,-6,-4,-3,0,3
1558438827018032,-4,-7,-6,0,-6,4,-3,-1
1558438827018032,-1,-2,-6,-5,-5,-2,0,-2
1558438827034988,-1,2,8,4,9,14,10,0
1558438827034988,1,0,4,4,-2,-12,0,0
1558438827040974,-2,-2,-3,-3,1,0,-1,-3
1558438827040974,-1,-1,-11,-2,-2,-9,-4,-2
1558438827049947,-3,2,-2,-4,-8,2,-8,-5
1558438827049947,-2,-5,1,-4,-7,1,-8,-3
1558438827064907,-1,0,2,5,4,-4,9,5
1558438827064907,-2,-2,1,-1,1,-13,-6,1
1558438827065905,1,-2,2,4,4,1,-1,-1
1558438827065905,0,5,-6,-1,-2,-1,-1,0
1558438827078869,-3,-4,-7,-6,-7,-5,-4,-4
1558438827078869,1,2,3,-2,-2,6,-2,-3
1558438827086849,1,3,2,-5,-5,-5,-2,0
1558438827086849,-2,-5,6,1,1,6,5,-2
1558438827100811,-3,-2,-8,4,5,11,9,3
1558438827100811,3,3,16,4,8,-10,2,7
1558438827109787,-5,-6,-21,-16,-8,-10,-7,-7
1558438827109787,0,-1,-6,-3,-3,2,-2,-2
1558438827124752,1,-1,-1,-1,-5,-14,-5,-1
1558438827124752,-1,-4,-3,1,-3,6,-5,-4
1558438827125745,0,4,13,13,3,-3,-3,2
1558438827125745,1,9,5,-15,-14,-14,8,2
1558438827138716,-7,-15,-18,-7,1,5,0,-8
1558438827138716,0,-2,-1,3,-5,2,0,-2
1558438827147687,-2,-4,0,1,0,-5,-7,-4
1558438827147687,0,2,-11,-5,2,4,0,0
1558438827160654,3,7,11,5,3,-2,0,0
1558438827160654,-2,-7,-7,-4,2,10,6,-1
1558438827169630,-2,-2,-2,-3,-9,-2,-6,-1
1558438827169630,-3,-4,3,1,-2,13,-4,-1
1558438827184586,-1,1,0,-1,-1,-12,5,-1
1558438827184586,0,-2,1,3,10,-9,3,1
1558438827186584,1,2,-1,-3,-5,0,0,-1
1558438827186584,1,1,-1,1,-2,-7,-5,0
1558438827198549,-2,-1,1,-2,1,8,-7,-4
1558438827198549,-2,-3,3,4,5,10,3,1
1558438827207526,0,1,-1,-6,-6,3,-7,-1
1558438827207526,0,-1,8,1,1,3,5,1
1558438827220500,2,1,1,4,6,-4,1,0
1558438827220500,-4,-5,-10,-9,-11,-5,-5,-1
1558438827229467,-2,-4,-4,-2,-2,-4,-3,-5
1558438827229467,-2,0,-7,3,7,6,-1,-2
1558438827244427,-1,-1,-1,-5,-6,0,-3,-2
1558438827244427,0,1,0,-2,-2,-1,-4,-1
1558438827246422,1,1,9,7,6,11,6,2
1558438827246422,-1,-6,-7,-13,-20,-15,-12,-3
1558438827258389,3,-1,6,4,0,-3,5,3
1558438827258389,-1,2,3,0,9,13,7,2
1558438827267365,3,2,-1,0,2,-9,1,3
1558438827267365,-6,-6,-3,6,4,-4,-4,-5
1558438827280333,-2,-4,-9,-15,-9,-5,-7,-4
1558438827280333,-1,-2,-1,-5,-15,-6,-8,-8
1558438827289307,-2,-1,1,-1,-2,1,2,-2
1558438827289307,3,3,11,9,15,-1,9,6
1558438827303274,-3,-2,-14,-5,-1,-2,-6,-1
1558438827303274,1,0,-3,0,-3,0,-2,1
1558438827312246,-2,-1,0,-3,-4,-4,-2,-3
1558438827312246,-3,-5,-10,-4,-4,-1,-7,-5
1558438827318232,-1,3,7,0,-2,5,-2,-2
1558438827318232,-1,-1,2,3,0,-13,-1,-2
1558438827327209,-3,0,-3,0,6,7,1,-3
1558438827327209,-4,-10,-2,-6,-8,-5,-7,-7
1558438827341168,2,2,6,11,7,1,4,5
1558438827341168,-1,0,-8,-18,-12,-6,-1,-1
1558438827350144,-1,0,5,-4,-12,-13,-6,0
1558438827350144,3,6,4,5,7,3,3,4
1558438827364112,-7,-11,-16,-4,-2,8,-4,-8
1558438827364112,-3,-4,-6,0,1,5,-4,-2
1558438827371091,-3,-1,-2,2,4,-12,2,2
1558438827371091,2,3,8,1,6,-1,2,3
1558438827378077,1,0,-1,0,0,-3,-2,0
1558438827378077,-3,-1,-3,4,-4,3,-3,-4
1558438827387047,3,0,9,1,-1,-5,-1,0
1558438827387047,-2,-3,-10,1,3,4,-5,-2
1558438827401012,1,2,7,-2,-4,-4,0,3
1558438827401012,1,-2,1,-1,-2,-5,-2,-1
1558438827409993,-1,1,-9,-3,-3,5,-10,-2
1558438827409993,-5,-5,-1,-6,-8,-2,4,-1
1558438827423947,0,-3,3,-2,13,4,9,6
1558438827423947,1,-1,-6,0,-3,0,-1,-1
1558438827430937,1,-1,-2,-2,-4,-3,1,0
1558438827430937,-4,-5,-4,1,-3,3,-5,-4
1558438827437910,-6,-2,-6,-5,-10,-5,-8,-5
1558438827437910,-1,-1,5,6,10,-1,0,1
1558438827446886,0,-2,-2,-4,-2,0,-2,0
1558438827446886,1,2,0,-4,-8,-9,-3,-3
