timestamp,emg1,emg2,emg3,emg4,emg5,emg6,emg7,emg8
1558438968443457,-1,-2,-3,-1,-3,-1,1,-2
1558438968443457,-1,1,0,-2,3,6,-1,-1
1558438968443457,-2,-4,-4,-5,-9,0,-2,-1
1558438968443457,1,0,4,1,0,-12,-1,3
1558438968444454,1,4,6,1,9,5,1,1
1558438968444454,1,-1,-3,-4,-4,-7,-5,-2
1558438968445453,-2,-4,-5,6,-2,2,-1,-2
1558438968445453,-2,-3,-11,-11,-12,-3,-6,-4
1558438968456423,-1,1,1,0,7,10,13,8
1558438968456423,0,0,4,4,-3,-7,-5,-3
1558438968464401,1,5,7,1,3,7,1,1
1558438968464401,-1,-1,0,3,4,1,-3,-1
1558438968471383,-4,-8,-14,-9,-5,-1,-4,-4
1558438968471383,-1,1,8,4,2,4,5,1
1558438968486342,-2,-4,-7,-7,-5,-9,-4,-2
1558438968486342,0,-1,-3,-5,-6,-6,-4,-4
1558438968495319,2,2,8,8,3,-3,-2,1
1558438968495319,0,-3,-9,-2,6,10,7,0
1558438968501303,0,2,3,0,0,-3,-3,-2
1558438968501303,-2,0,2,1,3,6,4,0
1558438968517260,-3,-2,-1,-1,-9,0,-6,-4
1558438968517260,-2,0,2,-2,-7,-8,0,1
1558438968524240,0,2,-5,0,6,-2,0,0
1558438968524240,-1,-3,-3,2,8,7,1,0
1558438968564134,-2,-2,-3,-5,-11,-5,-7,-4
1558438968564134,0,1,1,-2,1,-1,1,-1
1558438968565131,-4,-4,-3,1,-3,7,0,-2
1558438968565131,0,3,0,-3,-1,-3,2,2
1558438968566129,2,1,3,-1,9,1,3,0
1558438968566129,-1,-1,-6,1,-7,-14,-8,-2
1558438968577099,-1,1,3,5,9,8,0,0
1558438968577099,-5,-7,-1,-11,-7,2,-3,-5
1558438968579095,0,0,1,1,-6,1,-1,-1
1558438968579095,0,-3,2,2,3,1,2,1
1558438968583084,0,1,-2,-4,-5,-6,-2,-1
1558438968583084,0,0,-3,1,4,6,3,0
1558438968598044,-2,0,-1,2,0,-7,-1,-1
1558438968598044,0,0,1,-3,-2,2,0,0
1558438968606022,1,-1,-1,-4,-1,-9,-6,-1
1558438968606022,0,1,5,4,-3,-3,-1,0
1558438968614998,0,-2,-4,-1,2,4,2,0
1558438968614998,-3,-2,0,0,7,9,4,-1
1558438968620983,-1,-1,-7,0,-3,-1,-2,-1
1558438968620983,-1,3,1,-2,0,-15,2,1
1558438968636939,-3,-2,2,-1,-8,-5,-10,-5
1558438968636939,-3,-3,-11,-6,-4,-6,-3,-1
1558438968643920,1,3,5,6,11,11,3,0
1558438968643920,0,0,3,3,3,3,-2,0
1558438968659889,-1,-7,-2,-4,2,-2,0,0
1558438968659889,-2,1,-1,-1,-6,0,-6,-4
1558438968665863,-3,-6,-3,-5,-13,-7,-3,-3
1558438968665863,3,2,-2,0,3,-4,3,3
1558438968682817,-1,1,-4,-1,-2,1,-1,1
1558438968682817,1,1,3,2,-2,-9,-1,2
1558438968683814,-1,0,-1,-2,7,10,4,-1
1558438968683814,0,-2,-2,-2,-5,-6,-8,-4
1558438968697777,0,0,3,2,1,4,2,-1
1558438968697777,-2,-3,-3,-4,0,5,0,-2
1558438968703761,-2,-2,-6,-3,-8,-14,-5,-1
1558438968703761,-4,0,3,3,1,0,-7,-3
1558438968719718,-6,-8,-14,-5,-3,7,2,-2
1558438968719718,1,3,9,2,11,12,7,-1
1558438968725714,0,-3,-1,-1,-7,-12,-6,-4
1558438968725714,-1,-3,-2,-4,-1,3,-1,-2
1558438968734678,-1,0,1,-2,-2,-9,-5,-2
1558438968734678,-1,0,-4,-1,-7,1,-1,-4
1558438968740662,-1,-2,0,-3,-4,2,-1,0
1558438968740662,-4,-8,-5,2,0,2,1,-2
1558438968757616,0,4,5,0,7,-11,-3,3
1558438968757616,-3,-4,-7,-4,-3,-2,2,1
1558438968763601,3,3,2,2,4,-7,4,-1
1558438968763601,2,0,-3,-6,-8,-2,-6,-4
1558438968779558,0,1,3,-3,-9,4,-2,-3
1558438968779558,-5,-4,4,0,-6,-2,-8,-6
1558438968785543,-1,-2,-7,-4,9,12,10,1
1558438968785543,-2,-1,-5,7,10,1,8,4
1558438968794519,1,-1,-1,-6,3,-11,-2,1
1558438968794519,-4,-1,-1,-4,-7,-8,-8,-3
1558438968800502,-2,-2,6,5,-8,-8,-7,-4
1558438968800502,-1,-1,-1,-6,-4,5,1,1
1558438968817458,0,-2,-5,2,0,4,2,-1
1558438968817458,4,4,4,3,14,12,7,4
1558438968823441,0,1,-1,-2,-4,-9,-7,-1
1558438968823441,-4,-5,1,1,1,2,0,-4
1558438968839398,0,2,-1,-2,-3,1,4,0
1558438968839398,0,-1,-1,0,-1,1,0,-1
1558438968846379,-4,-2,-4,-4,-2,5,-2,-1
1558438968846379,-1,3,-1,2,-2,6,-5,-5
1558438968855356,1,1,4,-1,-7,-11,1,2
1558438968855356,2,-3,-2,5,4,-5,4,1
1558438968868320,-3,-3,-5,-12,-7,-2,1,0
1558438968868320,-3,-2,-1,-1,-6,-4,-6,-4
1558438968877296,-1,-1,0,3,-2,-6,-6,-5
1558438968877296,-3,-2,1,-6,-2,3,-7,-2
1558438968883280,2,3,2,3,10,-6,2,3
1558438968883280,0,0,0,-1,3,1,2,0
1558438968900236,0,5,8,7,10,12,5,0
1558438968900236,-3,-7,-8,-12,-20,-15,-5,-4
1558438968906219,-1,-2,-4,0,-7,-3,-7,-5
1558438968906219,1,-1,-5,0,-1,-3,4,1
1558438968915197,2,1,6,0,6,10,0,-1
1558438968915197,-4,-6,-8,-6,-3,-1,-2,-4
1558438968928162,1,0,6,4,9,11,5,5
1558438968928162,-1,-2,-6,-10,-8,-15,-5,-3
1558438968937136,-4,-2,-8,-2,-2,1,-3,-1
1558438968937136,1,1,2,2,3,5,4,2
1558438968943123,-1,0,3,-1,-5,-4,-1,-2
1558438968943123,2,0,2,0,0,-9,-7,0
1558438968960076,-1,-4,0,0,-1,4,0,0
1558438968960076,0,0,1,4,14,13,4,1
1558438968975038,-3,-3,-6,-8,-3,1,1,0
1558438968975038,1,-1,5,-2,-9,-8,-7,-1
1558438968976033,-2,-1,-5,-6,-9,-12,-6,-2
1558438968976033,5,1,2,4,7,0,4,2
1558438968988002,1,1,-2,0,0,0,0,0
1558438968988002,-2,-5,-5,-2,3,12,3,-1
1558438968996976,-3,-3,1,-1,7,8,3,-2
1558438968996976,-2,-2,0,-2,-8,-7,-8,-4
1558438969003959,-1,0,-1,2,-1,-8,-1,0
1558438969003959,-2,0,-1,-2,-14,-17,-12,-6
1558438969019915,-1,3,-2,2,8,11,6,4
1558438969019915,3,3,-1,-5,7,5,7,3
1558438969025900,-3,-5,3,0,2,3,-3,-5
1558438969025900,-3,-2,-4,-2,0,0,-1,0
1558438969034875,-2,-2,-5,-4,-16,-21,-5,-5
1558438969034875,-1,2,1,-2,0,-3,1,0
1558438969048837,1,-1,0,-1,3,6,0,1
1558438969048837,-1,0,4,1,3,9,2,0
1558438969057814,0,-1,1,5,3,-5,-2,0
1558438969057814,-2,-4,-4,-7,-14,-8,-7,-3
1558438969063797,-2,-1,-3,-1,-8,-9,-5,-5
1558438969063797,-1,0,-5,-1,5,10,5,2
1558438969079758,0,0,0,-1,-1,-2,-3,-3
1558438969079758,-2,-7,4,4,3,-1,-8,-3
1558438969085739,0,0,-2,-1,-4,-10,-2,-1
1558438969085739,1,0,0,0,-1,2,-1,2
1558438969094721,-2,-2,-7,-4,4,8,3,-1
1558438969094721,0,4,2,1,-6,-13,-6,-1
1558438969108678,0,0,-3,-3,-1,3,0,0
1558438969108678,0,-2,2,2,1,-1,-2,-2
1558438969117653,0,-2,-1,-1,2,3,0,0
1558438969117653,0,-2,1,2,2,5,2,-1
1558438969123638,-1,0,1,0,4,3,5,0
1558438969123638,-1,0,-2,-2,2,-4,1,-2
1558438969140592,-2,-3,-2,-3,-2,6,-1,-3
1558438969140592,-2,0,2,0,-12,-14,-9,-1
1558438969145579,-1,-1,3,1,2,-3,0,1
1558438969145579,-2,-3,-8,-6,-3,8,2,-5
1558438969154555,-3,-5,-7,-4,-5,-4,0,0
1558438969154555,3,5,1,1,2,-9,1,0
1558438969168518,-1,-2,-1,-2,-4,2,-4,-1
1558438969168518,-3,-2,4,0,5,4,6,2
1558438969184475,0,-1,3,2,-4,-10,-10,-1
1558438969184475,-2,0,-2,-1,0,8,4,0
1558438969184475,2,1,-1,0,-4,-11,-5,-1
1558438969184475,-1,-1,-1,3,6,7,3,0
1558438969199435,1,-1,1,-5,-4,9,-1,0
1558438969199435,-1,-1,-5,3,1,-6,-2,-1
1558438969205419,-1,-3,1,1,4,5,1,-3
1558438969205419,0,2,-5,-4,-4,-4,1,-1
1558438969214395,0,1,2,-3,2,-3,1,-3
1558438969214395,0,-1,4,6,-2,-3,-2,-3
1558438969228360,-7,-8,-14,-9,-10,0,-7,-5
1558438969228360,1,3,5,-1,2,-10,-4,-1
1558438969237333,0,-1,-3,0,1,-2,1,2
1558438969237333,0,-1,3,-1,8,14,1,0
1558438969243318,-3,-3,-8,-2,-2,2,0,-1
1558438969243318,0,2,0,-1,-6,-6,-1,-2
1558438969260272,-4,-7,-2,-1,-7,-9,-9,-5
1558438969260272,0,0,-2,-8,-3,-9,2,-1
1558438969266257,2,4,13,4,3,13,5,0
1558438969266257,-2,-3,-6,-7,-9,-14,-11,-5
1558438969275233,2,2,1,5,7,9,12,3
1558438969275233,-3,-3,-1,5,-1,7,-5,-4
1558438969288197,2,3,-1,-7,-2,-9,-3,2
1558438969288197,0,-1,0,4,-6,-15,-4,-1
1558438969297173,-1,1,1,-6,-6,0,0,1
1558438969297173,-2,-2,-8,-2,9,10,-1,-1
1558438969303157,-4,-2,4,2,-6,-7,-5,-5
1558438969303157,-3,-2,-1,-2,1,17,4,-1
1558438969320112,1,-2,-2,3,7,2,2,1
1558438969320112,-4,-2,-2,-7,-6,-4,-5,0
1558438969326096,0,-1,1,-4,-5,-9,-2,1
1558438969326096,0,-3,0,-1,-12,-16,-8,-1
1558438969335072,2,2,2,1,10,15,9,1
1558438969335072,1,-2,1,2,-5,-4,-2,-4
1558438969348038,1,-3,-8,-5,0,-1,1,-2
1558438969348038,1,2,4,2,6,8,-1,-1
1558438969357013,-3,-3,-1,-3,-11,-6,-8,-3
1558438969357013,-2,-4,-7,-4,-4,-13,-2,0
1558438969362998,-2,-2,-4,-1,-4,-1,-5,-1
1558438969362998,-1,-1,-1,1,3,4,6,3
1558438969379953,0,1,4,2,2,-5,-2,0
1558438969379953,-3,-1,-3,0,2,6,3,0
1558438969385937,-2,-1,2,0,1,7,0,-2
1558438969385937,-1,-2,-6,-2,0,7,1,-4
1558438969394911,0,0,4,-1,-2,-3,-3,-3
1558438969394911,-1,-5,-4,1,-2,-7,-1,1
1558438969408875,-1,-1,-3,-5,5,5,5,4
1558438969408875,1,-1,2,-1,3,-4,1,0
1558438969417857,-4,-1,-6,-3,-5,0,-5,-5
1558438969417857,-2,5,6,-2,-9,-4,-5,-5
1558438969423835,-1,1,6,10,11,4,6,4
1558438969423835,-4,-5,-6,-7,2,4,0,0
1558438969439794,-3,-3,-3,-2,-9,-8,-7,-4
1558438969439794,5,6,8,6,6,-3,0,3
1558438969445780,1,1,2,1,-6,-1,-4,-4
1558438969445780,-3,-9,-6,-3,-6,-3,-1,-3
1558438969454770,0,0,-1,3,-1,-2,-2,-1
1558438969454770,-3,-5,-10,-16,-13,-6,-6,-4
1558438969468716,-1,1,1,10,4,10,2,-3
1558438969468716,1,5,9,-5,-5,-7,-2,-1
1558438969477691,-2,-2,-6,-4,-2,-1,-1,-5
1558438969477691,0,-1,0,1,7,15,7,2
1558438969483675,0,1,3,2,-1,-9,-2,-1
1558438969483675,-1,1,-6,-2,-3,1,-6,-1
1558438969499631,0,-1,2,-2,-5,-12,-5,0
1558438969499631,2,-1,-1,-1,3,6,1,-1
1558438969505616,0,-4,-3,-4,2,0,0,0
1558438969505616,-2,-3,-2,0,-3,5,3,-2
1558438969514636,-1,-2,1,-2,-1,-3,4,3
1558438969514636,-1,0,-1,-1,-4,-10,-7,-3
1558438969528625,0,2,3,-2,1,-4,-1,-3
1558438969528625,-2,-5,3,4,6,11,4,-1
1558438969537538,-2,-3,-12,-1,-5,-3,-5,-5
1558438969537538,0,-1,1,-1,3,11,7,7
1558438969551544,0,2,1,5,0,-5,-4,1
1558438969551544,-1,0,-2,-9,-13,-18,-9,-2
1558438969559479,-3,-4,-1,-2,-3,4,-1,-2
1558438969559479,-5,-1,1,-1,-4,-1,-4,-4
1558438969574434,0,2,0,-1,9,5,5,0
1558438969574434,2,1,-4,0,9,6,0,0
1558438969576428,-1,0,5,-3,-5,2,-1,-1
1558438969576428,1,1,-6,-3,-1,-14,0,-2
1558438969588403,-3,-6,-5,-4,-10,3,-1,-2
1558438969588403,1,0,3,5,-2,-1,-2,-2
1558438969603363,2,2,6,5,5,-7,0,1
1558438969603363,0,-1,1,-3,-6,-6,-5,-3
1558438969611340,-2,2,6,-2,-4,-1,-4,0
1558438969611340,-2,-3,-17,2,4,3,4,-1
1558438969620336,1,2,-1,-9,-2,2,-1,-1
1558438969620336,-1,-8,-7,3,0,2,2,1
1558438969635285,-1,-2,-4,-9,-9,-7,-4,-3
1558438969635285,-2,1,7,3,2,6,2,1
1558438969636272,0,0,-6,-1,3,2,1,-1
1558438969636272,-3,-3,1,1,-4,-4,-1,-3
1558438969649274,0,-1,0,0,2,5,1,0
1558438969649274,-2,-1,2,-1,1,-1,-1,-1
1558438969657215,1,0,-1,2,-8,-14,-7,-1
1558438969657215,-2,-2,0,-3,1,10,1,-3
1558438969671181,1,-3,0,0,3,-4,3,1
1558438969671181,1,-1,-3,-3,-3,-7,-1,0
1558438969680159,0,1,3,-1,2,4,1,-2
1558438969680159,-1,-1,-4,-1,0,6,-2,-3
1558438969695221,-1,-3,1,1,-4,-15,-8,-4
1558438969695221,0,1,5,-1,-9,-6,-7,-4
1558438969696111,0,-3,-14,-8,1,7,5,0
1558438969696111,1,4,1,8,11,7,6,1
1558438969709075,-5,-9,-8,-10,-6,3,0,-4
1558438969709075,0,-3,0,0,-6,-17,-11,-4
1558438969718052,2,-1,1,4,3,6,6,2
1558438969718052,-1,1,0,-3,-5,-12,-3,-3
1558438969731013,2,3,1,-1,5,9,1,2
1558438969731013,-1,-2,-1,-3,-12,-8,-4,-2
1558438969739990,-1,0,11,0,-2,-3,-5,-3
1558438969739990,-2,-4,-13,-5,5,7,6,2
1558438969754949,-1,0,0,0,-4,-3,-2,-3
1558438969754949,-2,0,0,0,4,-2,1,-1
1558438969755946,0,1,2,4,4,1,-5,-1
1558438969755946,-4,-2,1,-4,-12,2,-3,-1
1558438969768911,-1,-1,-6,-1,-4,3,5,0
1558438969768911,2,5,9,3,13,12,7,5
1558438969776951,-4,-2,-8,-4,-3,-12,-6,-2
1558438969776951,0,-3,-4,-3,-2,-2,-7,-5
1558438969790914,-1,-1,-4,-6,-2,-1,-1,-1
1558438969790914,3,1,-1,7,-1,-7,2,1
1558438969799832,-2,1,-1,-8,-3,-1,1,-1
1558438969799832,-1,-4,4,-1,-1,-4,1,1
1558438969814836,-2,-2,1,4,-5,-7,-5,-1
1558438969814836,-1,1,-1,-1,9,14,0,-2
1558438969816785,-2,0,0,-1,-5,-5,-2,-1
1558438969816785,4,3,1,3,-2,-9,-1,2
1558438969828761,-3,-1,7,2,-1,-3,2,-2
1558438969828761,0,-3,-6,-2,5,4,1,0
1558438969837730,-4,-6,-18,-2,4,4,-2,-5
1558438969837730,-1,0,2,-8,-10,-3,-3,1
1558438969850693,-2,-2,2,5,7,3,1,1
1558438969850693,1,-2,-1,-5,-7,-12,-1,1
1558438969859669,0,0,6,3,-2,3,0,2
1558438969859669,-4,-4,-3,2,7,3,0,-4
1558438969873632,-3,0,-7,-8,-10,-5,-6,-4
1558438969873632,-2,-1,-3,-2,-4,8,5,0
1558438969882607,2,-2,6,3,4,-3,3,4
1558438969882607,1,3,2,2,5,3,3,1
1558438969888591,-2,-3,-3,3,2,1,1,3
1558438969888591,-6,1,-3,-3,8,3,-4,-1
1558438969897602,-2,-3,-4,-7,-5,4,0,-3
1558438969897602,0,2,2,0,-6,-9,-4,-2
1558438969910534,2,-1,-4,-3,-5,-2,-6,-4
1558438969910534,0,-2,-1,0,-4,0,0,-1
1558438969919509,0,2,0,0,6,5,8,1
1558438969919509,0,1,1,1,3,-4,-2,0
1558438969942518,-2,-2,-6,-5,-5,-3,-2,-2
1558438969942518,-3,-3,3,1,-3,-4,-8,-3
1558438969943447,3,1,4,6,5,0,5,3
1558438969943447,0,-2,-1,-3,-3,0,1,0
1558438969948498,-2,-1,-3,0,-1,0,-1,-1
1558438969948498,-3,-4,-5,-8,-9,-8,-6,-4
1558438969957417,1,0,8,7,8,7,7,3
1558438969957417,-2,-1,2,-4,-1,9,2,0
1558438969971373,0,1,-3,-2,-1,-5,0,-2
1558438969971373,-1,0,-1,0,0,2,1,-3
1558438969980349,-4,-6,-4,-7,-15,-21,-13,-3
1558438969980349,-2,-1,-5,0,4,5,0,-2
1558438969995356,1,1,1,0,1,1,2,1
1558438969995356,2,3,3,6,9,4,11,4
1558438969996310,-4,-5,-1,-4,-2,3,-3,-1
1558438969996310,-1,-2,-2,-1,-4,-15,-12,-3
1558438970008377,-1,-1,1,-1,-3,0,-3,0
1558438970008377,3,1,3,0,7,10,8,2
1558438970017304,0,-1,-4,5,3,-4,-2,0
1558438970017304,-1,0,1,-1,-3,-3,-4,-2
1558438970031433,-3,0,-4,-6,-4,5,-1,-1
1558438970031433,-2,-4,0,0,-2,-4,-2,1
1558438970040196,-1,0,-10,-7,-6,-8,-6,-5
1558438970040196,1,-1,0,1,1,2,3,0
1558438970055368,1,-2,-5,-2,6,11,5,0
1558438970055368,-2,-1,-2,-3,-7,-9,-11,-4
1558438970056147,-3,-2,-2,4,0,-2,0,-1
1558438970056147,-1,2,7,-5,-7,-17,0,0
1558438970069125,-1,-5,-9,-8,-10,-2,-6,-5
1558438970069125,0,1,0,6,3,7,0,-1
1558438970077130,2,0,-1,-5,2,-9,0,3
1558438970077130,0,-1,-1,-1,-5,-6,-3,-3
1558438970091236,1,3,7,5,3,0,2,3
1558438970091236,-3,-8,-4,-2,-4,-11,-5,-2
1558438970100027,-3,-1,-7,-5,-2,6,-1,-2
1558438970100027,-3,-2,-3,3,3,12,-2,-3
1558438970113989,-2,0,-1,-4,-3,-3,-2,-4
1558438970113989,-1,0,4,-1,-3,-2,5,1
1558438970120971,1,2,4,0,-1,-8,-1,0
1558438970120971,-2,-2,-8,-2,-6,0,-4,-2
1558438970128949,-3,-4,-2,3,5,1,-4,-4
1558438970128949,0,1,0,0,0,-9,0,1
1558438970137925,1,1,5,-1,0,9,3,0
1558438970137925,-1,-3,-1,-2,-4,-1,1,0
1558438970150924,-4,-9,0,-1,-5,-5,-6,-4
1558438970150924,-1,0,3,2,7,6,1,0
1558438970159865,3,5,5,-1,-6,-12,0,-1
1558438970159865,-2,-4,-6,-3,1,4,0,1
1558438970183167,0,4,0,2,2,-5,-1,3
1558438970183167,-3,-5,-11,-7,-5,3,-1,-2
1558438970183803,-3,-2,1,1,1,16,3,-2
1558438970183803,0,-1,3,1,3,-1,2,-1
1558438970189139,1,-1,3,2,0,-12,-3,-2
1558438970189139,1,3,2,-6,-12,-7,-6,-6
1558438970197765,-4,-3,-11,-7,-4,7,-5,-6
1558438970197765,1,-1,-1,-1,-1,-1,1,0
1558438970210918,3,2,1,5,16,2,6,5
1558438970210918,-1,5,3,2,1,-3,-3,1
1558438970219708,-3,-4,4,-4,-6,2,-5,-2
1558438970219708,-2,-9,-10,-7,-15,-11,-7,-5
1558438970233697,-1,3,7,3,6,-1,6,3
1558438970233697,0,-5,-13,-3,0,0,1,2
1558438970240681,-1,-2,3,2,-5,-9,-7,-5
1558438970240681,-1,1,-1,-4,-1,9,-1,-1
1558438970248628,-1,1,0,4,3,8,2,0
1558438970248628,-1,-5,-2,-5,7,8,6,1
1558438970257605,0,-1,0,1,-1,-11,-3,1
1558438970257605,0,-2,-4,-3,-2,4,-3,-2
1558438970271751,0,-2,1,-4,-4,5,-4,-4
1558438970271751,0,1,4,3,1,2,1,3
1558438970279916,0,-3,-7,-1,1,-3,4,3
1558438970279916,1,3,8,6,11,-4,4,2
1558438970295001,-3,-4,-8,-9,-22,-12,-12,-8
1558438970295001,1,0,2,-3,-7,3,-1,-2
1558438970301729,-3,-4,-5,4,3,-5,-3,1
1558438970301729,2,4,7,2,9,-4,-1,4
1558438970317031,-1,-4,-6,1,2,7,1,0
1558438970317031,-5,-9,-4,-8,-7,-5,0,-4
1558438970318990,-3,1,4,4,3,5,3,0
1558438970318990,-3,-4,-5,-2,-12,-11,-6,-3
1558438970330958,0,0,-8,-5,3,4,2,2
1558438970330958,0,0,0,2,-1,0,-4,-3
1558438970339934,1,-1,1,-3,1,0,-3,-1
1558438970339934,0,-2,2,5,5,0,5,3
1558438970353897,-3,-2,0,0,4,5,6,0
1558438970353897,-1,-1,-1,-1,1,5,-5,-2
1558438970361388,-4,-2,-6,-1,-13,-7,-5,-1
1558438970361388,3,1,0,-1,-7,-14,-8,-2
1558438970377883,-2,0,2,-3,-4,-2,-1,-2
1558438970377883,-2,-5,-3,3,5,-3,1,1
1558438970379655,0,-4,1,-3,-3,8,4,-1
1558438970379655,0,1,-4,-2,-1,9,2,-1
1558438970391761,2,1,5,7,10,1,1,1
1558438970391761,-4,-5,-2,-3,-8,-20,-9,-4
1558438970400390,1,-2,2,-2,-9,-4,-3,-2
1558438970400390,-4,-2,-2,3,7,11,4,0
1558438970414668,1,5,5,2,5,-3,2,3
1558438970414668,0,-1,-6,-6,-5,-1,-3,-1
1558438970421651,2,-1,3,1,-1,2,-3,2
1558438970421651,-5,-2,-8,-7,-6,-3,-5,-2
1558438970437561,-3,-2,0,0,1,7,1,-2
1558438970437561,0,4,5,3,-1,-9,1,-1
1558438970438261,-4,-4,-17,-7,-6,-18,-8,-4
1558438970438261,1,1,4,1,4,14,4,1
1558438970451226,-1,-5,-6,-2,-3,-2,-4,-1
1558438970451226,2,-1,5,2,-1,-4,1,1
1558438970460200,1,2,5,2,6,7,6,2
1558438970460200,-3,-1,-1,0,1,0,-2,-2
1558438970474430,-2,-1,-6,-4,-11,-16,-5,0
1558438970474430,-3,-2,-2,-1,-5,9,0,-3
1558438970481428,0,2,-2,-5,-4,-3,0,-2
1558438970481428,-2,0,2,-1,4,1,-1,-1
1558438970497383,-3,-3,7,1,-7,-8,-5,-3
1558438970497383,0,3,-5,1,7,3,-1,1
1558438970499315,-1,-3,-4,1,6,6,0,-2
1558438970499315,-2,-4,-4,-7,-3,1,0,-2
1558438970511351,-1,0,-2,-3,-9,-9,-8,-4
1558438970511351,1,1,3,2,9,4,5,3
1558438970520040,-2,1,6,5,14,5,6,2
1558438970520040,-4,-1,2,-1,-16,-5,-5,-2
1558438970534005,0,-3,-5,-4,-4,-1,-1,1
1558438970534005,1,0,-8,-2,1,0,4,3
1558438970541014,-3,-4,0,-7,-5,1,-4,-1
1558438970541014,1,-4,-2,1,-2,2,-1,-2
1558438970558112,-1,3,5,2,2,-6,-1,2
1558438970558112,3,4,5,4,8,-7,-1,2
1558438970558941,-1,-2,-4,-3,-4,3,-2,0
1558438970558941,0,-1,5,2,3,1,0,-3
1558438970571198,-6,-7,-9,-4,-9,-8,-6,-5
1558438970571198,-5,-3,-5,-3,-14,3,-4,-4
1558438970579955,0,-2,-6,-3,-1,-12,-1,-1
1558438970579955,2,6,1,-2,-2,-7,4,1
1558438970593872,1,2,3,5,11,13,9,3
1558438970593872,-5,-4,1,-4,-3,4,-3,-2
1558438970601107,-1,-1,1,2,-5,0,-5,-4
1558438970601107,-3,-2,1,-1,-8,-13,-9,-3
1558438970617927,1,1,2,4,10,11,7,1
1558438970617927,-5,-4,-2,-9,-11,-5,-4,-2
1558438970618781,2,0,-4,0,11,2,0,3
1558438970618781,-2,-3,-8,-5,-1,-4,-3,-1
1558438970631760,-2,-1,-3,-5,-10,-8,-8,-5
1558438970631760,1,0,2,1,-1,-1,2,2
1558438970639868,0,2,6,6,5,6,3,0
1558438970639868,-2,0,0,-2,1,-2,1,0
1558438970654899,-5,-5,-13,-7,-8,-11,-7,-5
1558438970654899,2,4,4,3,10,7,6,0
1558438970661712,-3,-4,-2,-2,-5,-8,-2,-3
1558438970661712,-2,0,-2,-1,0,6,1,-1
1558438970677890,1,-4,3,0,6,10,4,1
1558438970677890,1,-1,0,3,-1,5,-3,-4
1558438970678619,1,2,1,2,2,-7,1,3
1558438970678619,0,0,1,2,0,2,-2,-1
1558438970691725,1,2,1,-7,-9,-8,-2,0
1558438970691725,-2,-1,-4,-3,-4,-6,-6,-4
1558438970699820,-2,0,1,-3,0,8,0,-3
1558438970699820,-1,-5,-5,1,-2,2,1,1
1558438970714783,0,2,5,4,5,-15,-3,2
1558438970714783,0,-3,-7,-4,-3,3,3,0
1558438970720505,-1,3,1,-2,-1,-3,-1,0
1558438970720505,-3,-5,-7,-3,-7,-2,-4,-4
1558438970737794,0,2,3,1,3,3,3,1
1558438970737794,-1,-3,-3,2,1,-6,-2,-1
1558438970738456,0,-3,-3,-4,1,5,5,0
1558438970738456,0,1,0,5,4,1,2,2
1558438970751456,0,0,-2,-4,-8,-5,-11,-3
1558438970751456,-3,-2,4,2,1,0,-1,-1
1558438970759433,-3,-3,-5,-10,-5,-6,2,1
1558438970759433,-2,-2,0,-3,-5,-7,-5,-2
1558438970774613,0,-1,0,4,0,3,0,-2
1558438970774613,-1,0,-4,-4,-12,-6,-6,-2
1558438970781603,-1,0,4,3,2,-4,0,1
1558438970781603,-1,-1,-5,2,16,2,5,2
1558438970797553,-1,-2,-1,1,-1,3,0,-1
1558438970797553,1,0,-2,-7,-7,-6,-4,-3
1558438970799294,-1,0,8,3,-2,3,-8,-9
1558438970799294,1,2,-9,-4,-3,-4,1,1
1558438970811523,-2,-2,0,1,6,5,6,0
1558438970811523,-2,-3,-6,-5,-6,-4,1,0
1558438970820274,-1,1,5,7,3,5,-1,0
1558438970820274,-1,-2,0,-7,-5,-8,-9,-4
1558438970834201,-3,-4,-6,-5,-5,-3,0,-2
1558438970834201,1,1,5,3,4,-1,-2,-1
1558438970842396,-2,0,-4,-3,-1,7,-1,1
1558438970842396,-3,-6,3,2,7,4,2,0
1558438970858136,2,1,5,1,5,10,5,1
1558438970858136,-2,-2,-5,-2,-3,-6,-5,0
1558438970859166,0,-1,0,0,-6,-7,-3,-3
1558438970859166,2,1,4,-2,-8,4,-2,-2
1558438970871361,-1,0,-6,-4,-2,-7,-7,-2
1558438970871361,-2,1,11,4,6,9,4,1
1558438970880081,-2,-3,-13,-3,0,5,-2,-2
1558438970880081,-3,-2,-1,0,-3,-5,2,1
1558438970894189,-2,0,3,1,1,-2,0,-1
1558438970894189,-1,-3,-4,-4,-4,-8,-6,-2
1558438970902036,-2,-2,3,2,-8,-10,-8,-4
1558438970902036,-1,-1,2,0,10,10,3,2
1558438970918043,0,0,-4,2,-5,1,4,0
1558438970918043,0,-2,-2,-8,2,-3,-2,-3
1558438970918984,1,-1,2,0,2,4,1,0
1558438970918984,1,1,-5,-1,-7,-9,-5,-1
1558438970931157,-5,-12,-6,0,-4,-16,-5,-3
1558438970931157,-1,1,7,1,4,7,6,0
1558438970939917,-6,-7,-17,-10,-12,-10,-7,-4
1558438970939917,-1,4,6,2,5,8,0,2
1558438970953880,-2,-3,-8,-6,1,14,6,-1
1558438970953880,-1,-4,0,3,-7,-14,-4,-1
1558438970962901,3,-1,2,-3,4,-4,3,3
1558438970962901,3,0,3,0,3,5,5,1
1558438970977815,-2,-3,-3,-4,-6,-13,-9,-2
1558438970977815,-4,-1,-7,0,1,11,1,-2
1558438970978813,-4,-1,1,-3,-5,-1,-4,-2
1558438970978813,0,-1,0,1,-1,-8,0,0
1558438970991137,1,1,6,-3,-7,-2,-6,-2
1558438970991137,1,1,-1,-2,3,7,3,3
1558438970999989,3,3,4,3,6,-5,1,2
1558438970999989,-2,-1,-7,-2,-3,-6,-5,-2
1558438971014068,0,1,-4,-6,-6,-4,-5,-2
1558438971014068,-2,-5,-2,-1,3,4,-1,-1
1558438971022726,-2,-1,-1,0,-3,-3,0,-1
1558438971022726,0,0,6,3,-1,1,-3,-2
1558438971036895,-1,3,3,2,4,4,4,0
1558438971036895,2,2,-5,-2,-4,-4,-4,-4
1558438971043940,-2,-3,1,0,4,5,4,0
1558438971043940,1,-3,0,0,1,2,3,-1
1558438971050883,0,-1,-4,-1,-1,-3,0,2
1558438971050883,-2,-1,0,-1,-3,0,-5,-4
1558438971059828,-3,-2,-6,-5,-6,-9,-10,-6
1558438971059828,-1,0,-2,0,2,7,10,4
1558438971073771,1,1,10,10,18,10,8,3
1558438971073771,0,1,6,-5,-8,-7,-5,-1
1558438971082541,-4,-11,-27,-3,-1,6,-5,-3
1558438971082541,0,1,5,0,1,-10,-6,-1
1558438971097497,-5,-3,-14,-9,-11,-10,-8,-5
1558438971097497,-1,-1,2,5,7,-3,2,2
1558438971103484,0,0,3,-3,-11,-7,2,3
1558438971103484,-2,-3,4,-4,-11,1,-7,-6
1558438971110685,1,2,0,5,9,14,7,2
1558438971110685,-3,-9,-10,-6,-5,-5,-8,-4
1558438971120435,1,3,-3,-2,-2,3,1,-2
1558438971120435,0,-4,-3,-3,-1,-5,-6,-4
1558438971133400,3,3,9,4,1,0,4,2
1558438971133400,-2,4,-5,-1,0,2,8,2
1558438971142375,-2,-2,2,5,4,-1,-2,-2
1558438971142375,-2,0,1,-5,-9,0,-3,-3
1558438971156338,-5,-3,-4,-6,-4,-5,-9,-7
1558438971156338,2,0,2,3,11,9,12,5
1558438971163765,1,2,1,4,5,-4,2,2
1558438971163765,-2,-2,-7,-2,-5,-7,-2,0
1558438971170773,1,-2,-1,-1,-5,-9,-3,2
1558438971170773,-1,-4,-4,-3,-10,1,-2,-4
1558438971180069,1,7,13,1,1,4,0,1
1558438971180069,-4,-2,-4,1,-2,-9,-7,-5
1558438971194181,-6,-7,-12,-8,-1,5,5,1
1558438971194181,1,-1,-3,1,7,5,3,1
1558438971202695,-2,-5,-1,-5,-10,2,-2,-4
1558438971202695,4,3,10,6,5,-7,1,1
1558438971216993,1,-2,-8,-2,-2,2,-1,-3
1558438971216993,-6,2,-4,-6,-14,-23,-12,-6
1558438971223968,-1,-1,2,1,8,19,6,1
1558438971223968,-3,-1,0,2,7,11,5,1
1558438971240640,1,3,5,-1,-4,-5,-5,-3
1558438971240640,-1,-2,-5,-3,-4,-11,-7,-2
1558438971241325,-1,-4,-4,-3,-6,-8,-2,-1
1558438971241325,-4,-1,3,0,2,3,-1,-1
1558438971253291,0,-2,-2,-1,3,-5,0,0
1558438971253291,0,-1,-1,1,-4,-2,-7,-3
1558438971262268,2,3,-2,1,3,-9,2,3
1558438971262268,1,-2,-2,3,9,5,4,1
1558438971276228,-1,0,-1,-6,-13,0,-1,-2
1558438971276228,0,-1,-5,-1,-4,2,-1,-3
1558438971283210,-4,-6,4,-1,0,4,3,-1
1558438971283210,-1,-1,-8,-3,0,-4,-2,-1
1558438971300164,0,3,6,2,0,-1,-1,-1
1558438971300164,1,-2,1,2,8,7,5,3
1558438971301161,2,3,2,-1,-3,5,-3,-3
1558438971301161,-3,-4,-2,-3,-1,3,0,-2
1558438971313164,0,-1,0,-2,1,-8,1,1
1558438971313164,-3,1,1,-3,-10,-15,-7,-2
1558438971322107,0,2,0,3,10,6,3,3
1558438971322107,-1,-2,1,2,0,6,2,-1
1558438971337430,-2,-2,-1,2,-1,-4,-4,-3
1558438971337430,-1,1,1,3,3,3,3,1
1558438971343052,-3,-4,-5,-7,-8,-7,-7,-5
1558438971343052,0,1,-4,-6,-6,-4,-3,-1
1558438971360520,1,-1,5,3,-1,3,1,0
1558438971360520,-2,2,-2,-3,-3,-6,-5,-4
1558438971361005,-3,-2,-4,0,2,8,1,-1
1558438971361005,4,3,-1,-2,4,3,11,6
1558438971374303,-4,-4,-5,0,-3,-1,-4,-3
1558438971374303,1,-6,-1,0,3,7,2,2
1558438971382444,-3,-3,-2,-2,-5,-6,-8,-3
1558438971382444,0,1,5,1,-4,-3,-3,-2
1558438971397532,0,0,-1,-1,6,3,6,2
1558438971397532,0,1,3,2,2,-3,1,1
1558438971404367,-1,-4,-5,-5,-9,0,-4,-5
1558438971404367,-3,-2,-1,2,-1,-1,-5,-2
1558438971420732,0,-1,3,-4,0,-2,0,2
1558438971420732,2,1,0,1,4,0,1,0
1558438971421325,-1,0,-5,0,-1,-10,3,1
1558438971421325,1,0,-2,-1,0,1,0,-1
1558438971433293,-1,-3,-2,1,4,9,-2,-4
1558438971433293,-3,-3,-3,-5,-8,-3,-9,-2
1558438971442352,1,3,4,2,10,8,4,2
1558438971442352,-2,-4,-7,-6,-12,-7,-4,-2
1558438971457395,0,1,6,3,4,-1,2,2
1558438971457395,-1,1,-7,-3,-11,-10,-6,-2
1558438971464208,0,0,5,4,8,6,5,3
1558438971464208,-7,-7,-5,-4,-5,-4,-8,-6
1558438971480364,-1,-2,-10,-7,-6,-7,-5,-3
1558438971480364,-1,1,6,8,11,7,6,5
1558438971481168,3,3,2,-1,2,3,0,1
1558438971481168,-1,0,-1,-1,-3,-3,-3,0
1558438971493133,0,0,-1,4,-2,5,0,1
1558438971493133,-1,-3,-3,-7,0,1,3,-1
1558438971502111,-2,-3,-1,1,1,-4,-3,-2
1558438971502111,-2,-1,-4,-4,-10,-10,-3,0
1558438971517235,-1,-1,-1,-2,0,5,1,0
1558438971517235,0,-2,-3,0,10,6,5,0
1558438971524237,0,0,1,2,-3,-3,2,0
1558438971524237,-1,2,-4,-3,-2,-1,-2,-1
1558438971540010,-3,-3,-1,-1,-1,-6,-7,-7
1558438971540010,-6,-8,-2,-4,-14,-3,-7,-5
1558438971541002,0,-3,-2,1,3,-10,-5,-1
1558438971541002,1,2,9,7,8,1,3,1
1558438971553967,-3,-2,-8,-10,-5,2,1,0
1558438971553967,-1,-1,-7,1,4,5,-1,-3
1558438971561946,0,1,1,-3,-7,-3,1,0
1558438971561946,0,-2,-1,-4,-4,0,-4,-4
1558438971576933,0,2,8,4,-2,-2,-2,0
1558438971576933,1,3,-3,2,13,11,8,2
1558438971582891,-1,-2,0,-4,-2,-6,0,1
1558438971582891,0,2,-3,-3,-2,2,2,0
1558438971600193,-2,-4,-5,-3,-8,-7,-10,-4
1558438971600193,2,2,7,0,0,-9,-2,1
1558438971600843,-1,-3,-6,-2,-2,-2,-3,-3
1558438971600843,-2,-2,6,2,1,0,-2,-2
1558438971614139,2,1,-6,-2,4,6,6,1
1558438971614139,-1,3,1,-6,-10,-9,-4,-2
1558438971622798,-3,0,-2,-1,4,7,0,0
1558438971622798,-4,-3,-9,-2,0,1,6,-1
1558438971636746,0,-3,2,2,5,-1,0,-2
1558438971636746,-1,-3,-1,-1,0,5,1,-2
1558438971644063,-1,-1,3,0,-4,-7,-6,-2
1558438971644063,-2,0,-5,-3,-7,-4,-1,0
1558438971659974,-3,-3,-4,-5,0,-2,1,0
1558438971659974,-2,0,0,5,7,6,-1,-1
1558438971661680,-2,-1,1,-1,-6,-5,-3,-2
1558438971661680,1,-2,-1,-1,2,-8,-2,1
1558438971673953,1,0,3,0,-4,2,0,0
1558438971673953,-1,-7,-5,-4,-7,-2,-3,-3
1558438971682627,-1,-2,-9,-2,-3,2,-5,-3
1558438971682627,1,6,2,5,12,14,10,2
1558438971696898,-2,-2,1,-2,-8,-11,-8,-5
1558438971696898,-2,-5,0,-2,-2,3,1,-2
1558438971703842,1,1,-2,-2,-1,-6,-2,1
1558438971703842,0,-4,-6,-5,1,0,-4,-1
1558438971720700,-4,-7,1,4,-1,-2,-4,-1
1558438971720700,1,4,5,5,9,9,9,5
1558438971721521,-3,-4,-10,-3,-4,2,0,-3
1558438971721521,0,2,0,-2,-3,0,-2,0
1558438971733809,0,0,-3,-3,-9,-7,-2,-2
1558438971733809,1,-5,1,1,-4,-6,-6,-3
1558438971742463,1,1,5,2,9,6,6,2
1558438971742463,0,3,2,3,2,-11,-5,1
1558438971756425,-4,-3,-2,-5,-4,0,0,-1
1558438971756425,-4,-3,-8,-3,-6,-7,-8,-3
1558438971763408,-1,1,-2,-5,-8,1,0,-1
1558438971763408,0,-2,-1,-2,-2,3,0,-3
1558438971780705,1,1,6,6,7,-3,4,3
1558438971780705,1,0,-3,-6,0,3,1,-1
1558438971781419,-1,-5,-7,-2,0,1,-2,-2
1558438971781419,-2,-4,-3,-4,-7,-10,-2,0
1558438971793328,2,6,1,1,1,2,-2,1
1558438971793328,-1,0,6,1,0,-2,-3,-2
1558438971809623,-3,-9,-14,-4,-9,-5,-1,-2
1558438971809623,-3,1,2,1,2,4,0,-1
1558438971817322,-1,-2,-7,2,6,-2,0,0
1558438971817322,1,2,1,-3,-3,-8,-1,1
1558438971823561,-3,2,0,-3,-9,-1,-3,-5
1558438971823561,-2,-7,-6,-4,-6,-5,-6,-3
1558438971840228,0,0,2,1,3,3,1,0
1558438971840228,-1,0,0,1,2,1,3,2
1558438971847373,-1,0,1,-2,-2,-2,-2,-1
1558438971847373,1,-3,-3,-2,3,8,4,0
1558438971854164,1,1,0,0,0,-1,0,0
1558438971854164,0,-1,0,6,5,0,1,0
1558438971862407,-1,-1,1,-6,-7,-12,-2,0
1558438971862407,1,6,2,4,5,-3,-2,1
1558438971877392,-2,-3,-2,-4,-11,-7,-5,-6
1558438971877392,-4,-7,-8,-7,-4,-5,-1,-1
1558438971884205,1,3,8,8,12,15,2,1
1558438971884205,0,-2,5,2,-3,0,-3,-1
1558438971900301,-1,0,-9,-4,2,4,0,1
1558438971900301,-2,1,-2,-3,-10,-7,1,-2
1558438971901041,0,2,13,1,1,-3,-5,-1
1558438971901041,-1,-9,-21,-5,3,3,1,0
1558438971914170,1,2,7,2,1,7,2,1
1558438971914170,1,0,3,2,-3,-9,-3,0
1558438971922239,-2,-4,-7,-3,3,4,0,-2
1558438971922239,-4,-1,3,1,-8,-4,-7,-5
1558438971937192,-4,-5,-12,-12,-11,-4,-1,-5
1558438971937192,1,3,6,7,9,10,3,4
1558438971944179,4,0,0,0,6,-6,3,2
1558438971944179,-1,0,0,-4,-4,2,1,-3
1558438971958886,-5,-4,-4,-3,1,2,-1,-3
1558438971958886,-4,-4,-8,-9,-15,-5,-5,-4
1558438971965866,-1,-3,1,-2,-3,0,0,-2
1558438971965866,-2,-4,-4,1,-3,-4,0,0
1558438971974296,1,5,5,7,25,16,11,8
1558438971974296,2,-2,1,-3,1,1,1,-3
1558438971982269,-4,-6,0,1,-12,-10,-9,-4
1558438971982269,-3,-5,-6,-8,-2,-5,-2,-2
1558438971997203,0,-2,-2,1,-7,-16,-3,0
1558438971997203,1,4,3,0,10,15,4,1
1558438972003247,1,2,0,5,6,4,-2,-3
1558438972003247,-2,4,-1,-11,-16,-3,-5,-1
1558438972019200,-1,-5,-3,-2,-8,-4,-5,-5
1558438972019200,-4,-3,-5,-1,1,-6,-1,0
1558438972026602,-4,-2,-1,2,0,-7,-1,0
1558438972026602,-1,-1,7,8,7,5,1,-1
1558438972034223,1,1,2,-2,3,-5,-3,-1
1558438972034223,-1,-3,-4,-1,-5,-1,1,-2
1558438972042140,-1,-3,-2,-4,-6,0,-1,-3
1558438972042140,3,6,9,3,6,1,6,5
1558438972057298,-5,-7,-12,-4,3,3,-5,-2
1558438972057298,-5,-6,-7,-1,-10,-15,-7,-6
1558438972064167,0,2,-2,0,3,1,4,3
1558438972064167,0,-1,-1,-2,-2,1,-1,-3
1558438972079304,0,0,6,4,-1,4,0,2
1558438972079304,3,3,4,3,8,-8,-1,2
1558438972086022,0,0,-4,-3,-4,-1,4,3
1558438972086022,-2,-4,-7,-5,-8,-2,-5,-4
1558438972093266,-2,-1,0,2,-7,0,-5,-6
1558438972093266,1,-1,3,2,8,6,3,2
1558438972101980,1,2,6,-1,7,0,4,3
1558438972101980,-2,-2,1,4,1,-1,-1,-3
1558438972117201,-1,-1,-5,-8,-14,-3,-3,-2
1558438972117201,-6,-2,-1,-4,-9,-11,-6,-4
1558438972124116,0,-4,-7,0,5,8,6,1
1558438972124116,1,2,4,9,15,4,5,7
1558438972139412,-2,4,1,-8,1,-7,-2,-1
1558438972139412,1,0,5,5,-9,5,0,-2
1558438972146150,-8,-12,-17,-10,-5,-11,-10,-8
1558438972146150,-1,-1,-5,-2,3,6,4,-1
1558438972162346,2,-1,0,-1,-3,2,4,2
1558438972162346,2,2,1,-3,-2,-9,-1,2
1558438972164345,-1,0,2,-2,-11,-2,-7,-5
1558438972164345,-1,-3,-3,0,1,3,3,0
1558438972176398,2,1,3,4,-5,-3,-3,-1
1558438972176398,-1,-1,-4,-7,0,-3,-5,-1
1558438972183381,-1,0,6,3,2,-3,0,0
1558438972183381,-1,0,-7,-3,1,3,1,0
1558438972199674,-1,0,-4,-1,6,-1,5,2
1558438972199674,-2,-2,-6,-2,-2,8,2,-1
1558438972206660,-1,0,-3,-1,-12,-10,-12,-5
1558438972206660,-1,-4,1,-5,2,5,3,-2
1558438972222622,2,3,11,8,7,-4,2,2
1558438972222622,-2,-1,-8,-2,-5,3,-2,-2
1558438972223594,-4,-1,-2,-1,2,1,-3,-3
1558438972223594,-4,-2,-1,-4,-4,-6,-1,1
1558438972236242,-2,-5,-1,-1,-7,-3,-7,-2
1558438972236242,-1,-3,-2,-1,2,2,2,-2
1558438972244215,5,6,2,0,4,-7,2,6
1558438972244215,-1,-2,-3,8,0,5,3,0
1558438972259486,0,-2,2,-3,10,1,2,-1
1558438972259486,0,1,0,-5,-2,-4,-6,-3
1558438972266195,-2,-3,-2,-4,-8,2,-1,-2
1558438972266195,2,-1,7,7,13,3,0,-1
1558438972283113,-4,-1,-12,-5,-9,0,6,0
1558438972283113,0,0,1,4,2,-6,-3,1
1558438972284458,-1,-1,1,-1,-3,3,3,0
1558438972284458,-2,-4,-5,-5,-5,-9,-4,1
1558438972297413,1,4,5,4,-1,-3,-4,-5
1558438972297413,-4,-2,-5,-5,-9,-1,-6,-5
1558438972304283,-3,-5,3,5,5,0,3,0
1558438972304283,3,4,15,4,1,0,3,1
1558438972319016,-3,-6,-19,-10,-10,4,1,-2
1558438972319016,1,2,7,-1,13,11,6,2
1558438972325996,0,-3,-10,-4,-5,0,-3,0
1558438972325996,-2,-2,-3,-10,-13,-9,-10,-5
1558438972341953,0,1,6,2,6,10,7,1
1558438972341953,1,-1,-1,5,-1,-10,-2,-1
1558438972343986,-1,2,2,-5,-6,3,4,-2
1558438972343986,1,3,0,-1,11,-6,8,7
1558438972355918,-1,-2,-5,0,-2,3,-8,-4
1558438972355918,-3,-2,8,3,-3,-3,-6,-3
1558438972364893,1,-2,-4,1,3,-2,2,-1
1558438972364893,0,-1,-6,-5,-15,-6,-11,-7
1558438972378891,-1,-1,1,3,6,3,4,1
1558438972378891,0,0,1,2,12,7,3,4
1558438972385837,-2,-1,-5,-2,-4,-2,-9,-6
1558438972385837,-6,-4,-1,0,-5,1,-6,-3
1558438972401822,0,-3,-1,-3,-1,-8,-1,1
1558438972401822,0,0,0,2,-6,-7,3,0
1558438972403789,1,4,9,6,5,-4,5,3
1558438972403789,2,-1,-10,-7,-6,4,-7,-4
1558438972417214,-1,-1,3,2,8,1,-3,-1
1558438972417214,-3,-4,-10,-5,-10,4,5,-1
1558438972424218,0,0,-4,1,0,-5,-5,-1
1558438972424218,-1,2,11,7,2,-3,-2,-2
1558438972439166,0,-2,-7,-1,9,15,9,4
1558438972439166,-1,-2,-6,-1,-7,-13,-7,-3
1558438972446804,-4,-7,-6,-7,-6,-1,-4,-2
1558438972446804,0,-1,3,-3,-4,3,0,0
1558438972462902,-1,1,4,6,-2,-14,-3,-3
1558438972462902,-2,-5,-8,-8,-2,1,-2,1
1558438972463629,-1,4,1,4,1,4,2,2
1558438972463629,-3,-4,-4,-6,-7,-8,-4,-3
1558438972476876,-3,-5,3,-1,-10,-2,-6,-5
1558438972476876,0,-1,0,-1,0,-3,1,-1
1558438972483858,1,-1,-2,0,7,10,5,1
1558438972483858,0,-4,-4,-4,-5,-2,-2,0
1558438972499805,2,1,-9,3,5,-4,3,2
1558438972499805,0,-1,1,-6,-4,-1,-3,-1
1558438972506716,0,0,13,7,5,10,1,-2
1558438972506716,-3,-2,-19,-4,1,3,5,1
1558438972522763,0,1,1,-4,-9,-9,-4,-3
1558438972522763,-2,-1,-2,1,-1,1,1,-3
1558438972523640,0,4,5,2,1,4,4,1
1558438972523640,0,0,4,1,7,6,3,0
1558438972536433,0,-3,0,-5,-6,-8,-4,-2
1558438972536433,-1,-2,-2,2,5,8,4,-1
1558438972543684,2,0,5,1,3,-6,-2,1
1558438972543684,-3,0,-1,0,-8,-3,-2,-3
1558438972559372,-1,2,-3,5,7,-2,1,1
1558438972559372,-1,-4,8,-8,0,-2,-2,0
1558438972566535,-5,-8,-26,-12,-13,-7,-10,-6
1558438972566535,-2,-1,2,2,5,4,5,0
1558438972582588,0,2,4,1,-3,-5,0,1
1558438972582588,3,5,4,0,-4,1,-5,-3
1558438972583314,0,2,-2,-3,2,-7,-2,0
1558438972583314,-1,-3,-4,-2,-6,0,-1,-3
1558438972596274,-1,0,4,-1,2,10,-1,-1
1558438972596274,-1,-4,-7,2,3,-6,-1,-1
1558438972603284,0,0,-4,-4,1,1,0,-1
1558438972603284,-1,1,2,-5,-12,-13,-7,-4
1558438972619254,-1,0,0,2,4,10,5,1
1558438972619254,-2,2,-4,-4,-5,4,0,0
1558438972626573,0,-4,3,1,-1,0,0,0
1558438972626573,1,3,0,2,1,-7,0,2
1558438972641608,-5,-11,-6,0,-6,-4,-7,-5
1558438972641608,1,4,5,0,7,-2,3,4
1558438972650131,-1,-2,-7,-3,-10,-4,-1,-2
1558438972650131,-1,-4,-1,-3,0,0,-4,-1
1558438972656527,2,4,11,5,-2,2,0,0
1558438972656527,-1,-4,-10,1,0,-8,-2,-2
1558438972665091,1,1,7,2,15,12,10,3
1558438972665091,-3,-1,-1,2,-5,-5,-9,-5
1558438972679492,-5,-4,-7,-6,-8,-7,-6,-4
1558438972679492,-1,-2,6,6,3,-5,3,1
1558438972686034,-3,-1,-5,-10,-9,-9,-3,-5
1558438972686034,-3,-7,-6,1,5,5,-2,-4
1558438972701990,-1,0,-2,-5,0,-7,1,3
1558438972701990,-2,-2,-3,-2,-3,3,-5,-3
1558438972703986,0,6,10,6,3,2,-2,-1
1558438972703986,-2,1,-2,3,8,7,5,1
1558438972716265,-8,-9,-12,-19,-20,-3,-10,-6
1558438972716265,-2,-2,-2,0,-4,-3,0,-2
1558438972724931,-2,-2,-4,-3,-6,-22,-7,-1
1558438972724931,2,4,7,4,12,8,9,5
1558438972739201,2,2,5,5,7,-3,-2,0
1558438972739201,-2,-2,3,-3,-4,7,-3,-2
1558438972746166,-3,-6,-14,-7,-17,-6,-6,-5
1558438972746166,2,2,5,2,4,-10,3,1
1558438972763087,0,-2,-4,0,6,-8,4,3
1558438972763087,0,2,4,-1,0,5,-1,-2
1558438972763827,-1,-2,0,-3,-3,12,3,-2
1558438972763827,-3,-2,-2,-2,2,-1,-1,-1
1558438972775795,-1,2,4,3,-3,-4,-1,-2
1558438972775795,-4,2,-6,-11,-13,-10,-5,-3
1558438972784770,1,-6,-2,6,13,10,1,2
1558438972784770,0,-4,-1,3,3,6,-1,-1
1558438972799929,1,1,-2,-5,-6,0,-1,-2
1558438972799929,-3,-1,-2,0,4,0,1,0
1558438972806711,0,3,6,0,-2,-4,-3,-2
1558438972806711,2,0,1,0,2,-1,3,2
1558438972823061,-2,-2,-2,0,5,12,0,0
1558438972823061,2,-2,-2,-5,-6,-17,-2,0
1558438972823666,-1,-1,-1,0,-4,0,0,0
1558438972823666,-3,-4,-5,-5,-1,5,-2,-2
1558438972835643,0,-1,5,1,-9,-9,-3,-2
1558438972835643,-1,-1,-3,-1,0,7,2,-2
1558438972852590,-2,-4,-4,-5,-7,-13,-6,-3
1558438972852590,-2,-1,-4,-4,0,9,1,-1
1558438972859854,0,0,0,2,7,0,2,0
1558438972859854,-3,-5,1,1,1,4,0,-2
1558438972866701,0,-1,1,1,0,-3,-2,-1
1558438972866701,1,4,0,-3,-8,-4,-4,-2
1558438972881858,1,0,-1,0,0,-5,-4,-1
1558438972881858,-1,-2,2,3,11,7,8,5
1558438972889150,-3,-2,-8,-6,0,3,4,0
1558438972889150,-2,-6,-2,-2,-14,-15,-4,-3
1558438972905125,0,2,-1,1,4,10,3,1
1558438972905125,3,3,9,4,6,3,0,-1
1558438972905772,-5,-1,-6,-1,-3,4,2,-1
1558438972905772,-1,-3,-10,-6,-7,-8,-9,-2
1558438972918738,0,0,0,-4,-3,-9,-2,-1
1558438972918738,0,1,-1,2,5,14,4,2
1558438972926020,0,-2,-2,-1,-1,-7,-3,0
1558438972926020,-1,-1,1,4,1,0,2,-3
1558438972941955,-3,-2,-2,-3,-4,2,-1,-4
1558438972941955,0,-2,-2,0,-2,-2,2,-3
1558438972948935,1,1,3,-2,0,-2,-6,-2
1558438972948935,-2,-1,3,-3,-6,-6,-4,-2
1558438972956636,1,-2,0,3,12,19,5,3
1558438972956636,-3,1,-9,-9,-17,-16,-10,-5
1558438972964860,1,1,7,7,11,-2,3,3
1558438972964860,-2,-3,1,1,5,0,3,3
1558438972978578,1,0,3,1,-4,-1,-1,0
1558438972978578,-4,-5,-7,-3,-3,-3,-8,-4
1558438972985563,-1,3,3,-6,-9,-1,-5,-3
1558438972985563,1,2,-5,-3,-4,2,2,1
1558438973001517,-3,-3,0,-2,-1,-5,-1,-2
1558438973001517,1,1,5,6,6,0,2,1
1558438973008496,-4,-5,-6,3,-1,0,0,-2
1558438973008496,-1,0,-1,-11,-7,-5,-4,-1
1558438973015478,-3,-2,-3,-5,-5,-2,-5,-3
1558438973015478,-1,0,2,7,4,1,-4,-1
1558438973024496,1,-1,0,-1,5,12,5,0
1558438973024496,0,-1,3,3,2,-3,1,-1
1558438973039448,-3,-4,-14,-8,-11,-17,-10,-3
1558438973039448,0,0,3,0,2,3,-2,1
1558438973045431,1,-2,-9,-3,-4,-10,0,0
1558438973045431,-1,-2,-2,2,5,3,3,1
1558438973061816,-1,0,-2,3,5,3,0,-4
1558438973061816,-1,1,0,-1,-6,-12,-5,-4
1558438973068374,-3,1,2,1,0,21,4,-4
1558438973068374,0,0,-6,-11,-3,-6,-5,-1
1558438973084580,0,-1,7,0,-4,-3,3,3
1558438973084580,-3,-2,-7,-1,0,-3,-1,0
1558438973086316,1,0,2,0,-2,0,-2,-2
1558438973086316,-4,-1,-2,3,-4,0,-2,-2
1558438973099597,0,-1,-3,-2,4,5,0,-2
1558438973099597,-3,-6,-5,-7,-10,-5,-5,-2
1558438973106604,0,-1,6,4,-1,-5,0,3
1558438973106604,2,2,0,6,17,2,6,3
1558438973122403,0,3,2,-1,-3,-1,-1,-1
1558438973122403,-2,-1,-6,-4,-6,-11,-4,-3
1558438973128491,0,-2,-3,-3,3,4,-1,0
1558438973128491,-4,0,4,-2,-15,-4,-9,-7
1558438973145131,1,3,9,6,11,-2,2,2
1558438973145131,-2,-6,-12,-3,1,8,3,-2
1558438973146128,1,0,-1,-1,0,-4,0,-1
1558438973146128,-2,0,0,-2,-2,-1,-1,-1
1558438973159132,-3,-2,-5,-3,-14,-15,-9,-6
1558438973159132,-2,1,7,2,7,2,7,4
1558438973166082,0,-1,-3,-2,5,3,4,2
1558438973166082,0,-2,0,3,-12,-12,-7,-3
1558438973181039,-4,-2,0,-1,6,12,2,-1
1558438973181039,3,-2,-3,-8,-9,-3,3,4
1558438973188015,2,4,3,1,1,-1,2,1
1558438973188015,1,-4,-8,1,3,5,-1,-3
1558438973204971,-2,-5,-2,-9,-5,-5,-7,-2
1558438973204971,-2,-1,1,3,-5,5,-8,-4
1558438973205968,-4,-2,-5,-5,-4,-3,0,-4
1558438973205968,1,3,0,-3,-3,-3,6,-1
1558438973218934,0,-1,-8,-2,-3,-7,0,0
1558438973218934,0,-1,3,2,8,10,5,2
1558438973226228,-4,-4,-1,0,-4,-3,-6,-2
1558438973226228,-1,1,4,-3,-7,-11,-7,-4
1558438973242215,2,0,1,2,0,0,0,1
1558438973242215,0,-1,-2,1,11,7,2,-1
1558438973249196,-1,1,-7,-3,6,3,2,2
1558438973249196,-3,-6,-6,-4,-4,-2,-3,-2
1558438973265147,-1,2,8,3,-4,-2,1,0
1558438973265147,-3,-3,-2,-3,-1,-1,-2,-3
1558438973265810,0,-2,-2,-2,-11,-12,-6,-4
1558438973265810,3,3,10,10,16,11,6,6
1558438973278772,1,-1,-13,-7,-7,-11,-3,0
1558438973278772,-1,0,-1,2,0,1,-1,-2
1558438973293739,-2,1,2,-11,-14,-14,-9,-5
1558438973293739,-1,-2,-1,3,8,13,12,7
1558438973301713,1,0,7,5,2,6,-2,-2
1558438973301713,-7,-7,-8,-8,-9,-5,-4,-5
1558438973308719,0,-5,-6,-4,-6,-13,-1,1
1558438973308719,-2,-2,0,-3,-3,-7,-5,-2
1558438973324651,-1,0,-3,-1,1,6,1,0
1558438973324651,-1,3,4,3,-5,-2,-6,-3
1558438973326930,-4,-3,1,-5,-4,2,-7,-7
1558438973326930,-1,0,1,6,7,0,1,-1
1558438973339864,0,0,0,-6,4,-3,9,4
1558438973339864,-2,0,-4,-3,-12,-9,-11,-4
1558438973345946,-3,-2,2,3,4,9,0,1
1558438973345946,2,4,-2,-1,8,1,1,2
1558438973361901,0,0,11,7,-2,-5,-2,-1
1558438973361901,0,-2,-13,-7,-1,-8,1,0
1558438973368536,-1,-3,-9,-5,-2,3,-2,-1
1558438973368536,-3,-7,-9,-4,-6,6,-3,-4
1558438973384491,0,1,2,-4,-7,-13,-2,0
1558438973384491,3,2,8,5,16,12,11,5
1558438973386490,-1,-3,-1,2,1,-3,0,-1
1558438973386490,0,-2,-2,-6,-8,-11,-6,-1
1558438973399450,-4,-3,-7,-4,-4,6,-8,-7
1558438973399450,0,-1,3,2,-2,0,-2,0
1558438973405435,-1,3,0,8,12,7,5,0
1558438973405435,0,-1,-1,-6,-9,-11,-2,-2
1558438973421392,2,-1,-5,1,-1,-1,0,0
1558438973421392,1,2,0,-4,-7,-3,-5,-1
1558438973428375,0,-5,6,3,4,-6,2,3
1558438973428375,-3,-1,-1,3,6,7,-3,-2
1558438973444332,-2,-2,-5,0,1,5,2,-1
1558438973444332,-2,-1,-3,-3,-10,-15,-7,-7
1558438973446325,-1,-3,-4,-1,-9,1,-3,-2
1558438973446325,-3,0,1,-6,-9,-6,-4,-2
1558438973459306,-1,-4,-5,-1,13,12,6,4
1558438973459306,3,4,8,7,9,11,5,1
1558438973466600,2,5,-4,0,7,-3,-1,0
1558438973466600,-4,-9,-9,-11,-14,-5,-7,-6
1558438973489212,-1,-2,-2,-4,-7,-1,-2,-5
1558438973489212,1,0,2,0,7,-12,4,5
1558438973491208,-1,-1,1,1,-3,-1,-2,-2
1558438973491208,0,3,6,1,-9,1,-1,-1
1558438973504173,-3,2,-8,-2,2,6,0,-3
1558438973504173,0,-7,-5,-5,-3,0,-1,-1
1558438973506166,-1,-3,-3,-2,-9,-12,-4,1
1558438973506166,0,-1,-1,0,6,8,3,1
1558438973519133,0,-1,4,2,2,0,3,1
1558438973519133,-2,-1,-3,1,3,0,-3,-2
1558438973526112,0,1,2,10,9,15,7,0
1558438973526112,0,0,5,-8,-7,-11,-1,-3
1558438973542068,-4,-5,-5,1,7,5,-4,-3
1558438973542068,0,-1,-2,1,4,0,2,4
1558438973548130,1,2,-1,-4,-7,-4,-2,-4
1558438973548130,-1,-4,-4,3,0,3,-2,-2
1558438973565008,1,2,2,-1,-3,-7,0,0
1558438973565008,-3,2,1,-3,1,9,4,-2
1558438973566005,-5,-5,1,-5,-9,-5,-11,-4
1558438973566005,0,2,-1,2,3,6,0,3
1558438973578036,-2,-4,-3,-3,0,-4,4,4
1558438973578036,-2,-4,0,-3,-8,-9,-1,-1
1558438973594927,-1,2,6,0,3,-5,-3,1
1558438973594927,0,-2,-12,-7,-5,2,-5,-4
1558438973601913,-1,-1,0,1,-1,6,-4,-1
1558438973601913,-2,-5,-5,-6,-2,0,0,-3
1558438973607892,0,-1,2,2,0,-4,3,-1
1558438973607892,1,-1,-3,-3,2,7,3,-1
1558438973625006,0,1,-3,-1,-7,-10,-1,1
1558438973625006,0,2,3,3,2,2,0,-1
1558438973625845,-2,-1,0,-4,-4,7,-3,-3
1558438973625845,-1,1,-4,4,2,-3,3,1
1558438973638953,0,1,1,8,-1,-13,-6,-2
1558438973638953,-1,0,-3,-7,5,12,7,4
1558438973646804,-1,-2,-2,-6,-7,-6,5,2
1558438973646804,-3,-2,5,2,-2,-1,-6,-2
1558438973661749,0,-3,-2,-5,-7,-3,-5,-2
1558438973661749,2,0,0,3,-5,-7,1,-1
1558438973668732,-1,0,-4,-1,3,2,-2,-2
1558438973668732,2,1,6,1,4,-4,1,2
1558438973684687,-3,-2,-5,-5,-9,0,-2,-4
1558438973684687,-5,-7,0,5,1,2,-6,-5
1558438973685690,0,1,-4,-8,5,2,4,-2
1558438973685690,-4,-2,0,-2,-7,-7,0,-1
1558438973698661,-3,-3,-2,-4,-6,-5,-8,-5
1558438973698661,1,3,4,1,4,3,6,-1
1558438973707625,0,-2,-4,5,-6,-1,-4,-1
1558438973707625,-1,1,5,3,16,10,5,1
1558438973721589,-2,-3,-10,-5,-1,3,-5,-3
1558438973721589,0,0,-1,-3,-6,-6,-3,0
1558438973728571,1,1,4,2,1,-7,-5,0
1558438973728571,0,-1,0,-3,-3,2,3,0
1558438973746842,-4,-3,-3,-1,-3,-3,-1,-2
1558438973746842,2,2,0,4,9,4,6,1
1558438973746842,-1,-2,-1,-6,-1,3,3,1
1558438973746842,0,0,-4,-2,1,2,0,-2
1558438973758491,0,0,6,2,0,2,-5,-3
1558438973758491,-5,-3,-4,-4,-6,-2,-10,-5
1558438973767466,1,1,-2,-2,-1,-7,4,4
1558438973767466,1,2,0,3,-5,-9,-7,-3
1558438973781431,2,2,1,3,18,23,17,6
1558438973781431,-5,-9,-5,-7,-11,-13,-9,-4
1558438973788411,-1,-4,-1,1,-3,1,-5,-4
1558438973788411,0,-2,1,-3,-3,-4,0,3
1558438973804369,0,2,2,-3,-11,-9,-3,-3
1558438973804369,1,4,6,9,15,13,4,2
1558438973806364,-5,-5,-11,-8,-6,-6,-2,0
1558438973806364,-4,-3,-5,-4,-12,-11,-9,-7
1558438973818337,-1,-2,2,2,5,4,3,0
1558438973818337,1,2,3,3,1,4,4,2
1558438973827308,-2,-1,0,1,-4,-3,-1,0
1558438973827308,-1,-2,-8,-3,-2,0,-2,-2
1558438973841301,1,-2,0,-1,4,-2,3,1
1558438973841301,1,0,1,1,0,-2,0,-3
1558438973848249,3,4,1,4,2,-4,-3,-2
1558438973848249,-2,0,0,-7,-2,14,-1,-2
1558438973864460,-6,-9,-5,1,2,3,-1,-2
1558438973864460,-1,0,-2,-4,-6,-17,-1,2
1558438973871192,0,4,15,1,2,7,3,0
1558438973871192,-3,-5,-13,0,0,-7,0,-2
1558438973878337,-2,-3,-6,-3,-4,-3,-9,-4
1558438973878337,-2,-1,-4,-5,-12,-1,-4,-3
1558438973887146,-3,-4,-5,0,-6,-2,-3,-2
1558438973887146,-2,2,9,-3,7,5,7,0
1558438973901110,1,5,3,-1,-3,-6,0,2
1558438973901110,-1,-2,-6,-4,-6,-9,-4,-2
1558438973908093,-1,-2,-1,1,5,6,0,-3
1558438973908093,1,-1,-1,4,6,1,1,2
1558438973924047,-1,-2,-1,-3,-7,1,0,-1
1558438973924047,-2,-1,1,-4,-8,-6,-8,-4
1558438973931029,-1,0,-5,-1,0,-4,1,1
1558438973931029,3,2,6,7,6,-9,-3,-1
1558438973938208,-4,-2,-9,-8,-8,-10,-8,-4
1558438973938208,-1,-4,4,5,3,4,0,0
1558438973946986,-1,-4,-6,-3,0,4,0,-3
1558438973946986,-4,-6,-6,-4,-12,-7,-8,-5
1558438973962099,1,2,8,1,-5,-3,1,0
1558438973962099,1,1,-12,-7,5,6,8,3
1558438973967931,-1,-3,3,2,-1,-12,-3,-3
1558438973967931,-1,-3,-2,0,-3,1,-1,-1
1558438973984094,1,-1,1,-2,-5,-6,-10,-6
1558438973984094,-1,-1,2,2,-1,2,-1,-3
1558438973990870,1,0,-1,-3,10,11,7,7
1558438973990870,2,5,5,0,-6,-5,-4,2
1558438973998851,-4,-5,-10,-3,1,-3,0,0
1558438973998851,-3,-2,-3,-3,-10,-7,-5,-2
1558438974006825,-1,0,0,4,-2,1,-1,0
1558438974006825,-3,-1,1,-7,4,4,-2,-1
1558438974021786,2,0,3,-2,4,2,8,4
1558438974021786,0,1,5,-2,-3,-5,-1,-1
1558438974028779,-3,-5,-8,-2,-7,0,-8,-7
1558438974028779,-3,-5,-3,2,2,7,2,-3
1558438974043727,-1,3,0,4,10,-6,4,3
1558438974043727,-4,-4,-4,-8,-8,-4,-3,-4
1558438974050946,3,4,6,0,0,2,-4,0
1558438974050946,-2,-5,-10,-4,-7,-10,-6,0
1558438974067664,-2,-2,-2,0,9,13,4,-1
1558438974067664,0,0,-3,1,4,8,3,0
1558438974068661,4,2,5,2,-3,-7,-2,-1
1558438974068661,-2,0,-2,-7,-3,-2,2,-4
1558438974081627,2,-2,5,1,-2,-14,-5,0
1558438974081627,1,1,-3,-1,4,8,7,4
1558438974088610,-2,-1,-2,-4,-5,1,-5,-1
1558438974088610,0,0,-5,3,-1,-2,-2,0
1558438974103566,-1,2,0,2,-2,-8,-3,-4
1558438974103566,0,0,0,-4,-2,-9,-3,1
1558438974110551,-4,-3,0,1,6,10,5,0
1558438974110551,2,0,3,2,0,-10,-6,0
1558438974127507,-1,0,7,3,-1,7,0,-2
1558438974127507,-1,-2,-10,-3,-4,1,-2,-2
1558438974128501,-2,-5,0,-1,0,-2,10,4
1558438974128501,-1,1,4,1,-1,-3,-2,0
1558438974141501,-3,-3,-8,-3,-6,-6,-4,-3
1558438974141501,-2,-2,3,1,7,6,-1,1
1558438974148452,-3,-1,-4,-9,3,-2,1,0
1558438974148452,-2,-3,-1,0,-5,3,1,-5
1558438974164418,1,0,1,3,3,9,0,-1
1558438974164418,1,6,7,3,2,-4,0,0
1558438974170388,-2,-6,-18,-6,-12,-11,-6,-4
1558438974170388,-4,-2,-1,1,5,9,3,-1
1558438974187344,-2,-2,-2,-8,-12,-5,-6,-2
1558438974187344,-1,-4,-3,0,2,-4,1,1
1558438974188355,1,3,6,1,3,1,1,-1
1558438974188355,1,1,-2,1,10,5,5,2
1558438974201305,0,1,1,1,-3,2,4,1
1558438974201305,2,5,7,-1,-1,-5,2,0
1558438974208291,0,-1,-7,-2,-5,-4,-5,-2
1558438974208291,-1,-7,-5,-3,-3,-5,-4,-1
1558438974224245,-4,-3,1,0,2,3,-1,0
1558438974224245,-5,-4,-7,-7,-18,-7,-8,-4
1558438974231225,0,5,9,8,11,1,6,1
1558438974231225,3,5,7,2,2,1,3,1
1558438974247185,-1,-3,-7,-3,-5,-7,0,0
1558438974247185,0,-3,2,2,4,5,-3,-4
1558438974248181,-2,-3,-3,-3,-8,0,-7,-6
1558438974248181,-3,-1,2,-4,-6,-8,-8,-3
1558438974261148,1,0,-8,0,-3,3,0,0
1558438974261148,-2,-1,-1,-5,3,0,-2,-1
1558438974268134,-2,-2,-5,-1,0,0,-1,-1
1558438974268134,-2,0,-4,-1,2,2,5,1
1558438974284087,1,0,6,2,4,1,1,-1
1558438974284087,-3,-2,-5,-2,-7,-2,-6,-6
1558438974291065,-2,-5,-8,-3,-10,-12,-5,-4
1558438974291065,2,1,4,-1,-3,-4,2,1
1558438974307022,-2,1,3,-6,5,0,5,1
1558438974307022,1,-2,-12,2,10,8,5,2
1558438974309020,0,2,4,-3,0,-9,-5,-1
1558438974309020,-1,1,1,-1,-6,1,-8,-5
1558438974320991,-4,-7,-9,-4,-12,2,-7,-5
1558438974320991,0,-2,6,11,4,-3,-1,2
1558438974327983,0,2,8,-3,1,-1,7,3
1558438974327983,-1,-2,-8,-2,-2,-6,-5,-1
1558438974343936,-1,0,2,-5,-5,1,-1,-1
1558438974343936,-2,-1,1,-2,1,0,-2,-1
1558438974357889,-2,-4,-6,1,-3,5,-5,-4
1558438974357889,1,0,1,5,2,-5,5,2
1558438974366879,-1,1,1,1,1,-6,-2,0
1558438974366879,-1,-2,-10,-10,-11,-3,-5,-4
1558438974368865,1,0,3,5,8,4,0,1
1558438974368865,1,-2,-2,3,3,8,6,1
1558438974381824,-2,-2,-3,-8,-1,-3,-5,-2
1558438974381824,-4,-3,-4,-3,-7,-3,-3,-1
1558438974387807,1,3,6,4,9,9,4,4
1558438974387807,-2,-3,-5,-4,-10,-13,-2,-3
1558438974403769,-3,-4,-3,3,5,6,2,-1
1558438974403769,1,3,6,2,-4,-11,-3,-1
1558438974410746,-2,-1,-4,-7,-5,2,0,0
1558438974410746,-3,-2,-4,-3,1,0,-4,-2
1558438974426703,0,0,-1,4,-1,-6,0,-2
1558438974426703,-3,-5,-3,-2,-4,-7,-3,-2
1558438974428698,1,0,4,-5,-7,3,1,-1
1558438974428698,-4,0,3,-3,1,16,3,-2
1558438974441665,-1,-3,-14,-2,3,-10,-2,-1
1558438974441665,-3,-1,-1,-3,-1,-1,-3,-2
1558438974448646,-1,-2,-8,-1,-5,-4,0,-3
1558438974448646,-2,-3,4,0,-8,-8,-2,-1
1558438974463605,1,0,6,1,6,0,-2,1
1558438974463605,0,-1,3,-5,-8,-4,3,0
1558438974470586,-2,-3,-1,3,7,3,0,-1
1558438974470586,-3,0,-8,-4,6,4,4,-1
1558438974487540,-3,-4,-6,-2,-12,1,-6,-4
1558438974487540,0,-1,-2,-2,-7,-16,-4,-2
1558438974488541,-1,0,2,1,-5,-6,-3,-1
1558438974488541,1,-3,0,0,1,-1,-1,0
1558438974501504,1,-2,7,5,16,12,6,2
1558438974501504,3,-3,-4,-2,2,7,6,1
1558438974515467,-2,-1,4,-5,-1,2,0,-2
1558438974515467,-1,-2,-11,-4,-10,-6,-5,-5
1558438974523444,-1,3,2,-5,-8,-2,0,-1
1558438974523444,-2,-2,-1,5,14,11,-3,-3
1558438974530426,-1,0,1,-3,-11,-20,-6,-2
1558438974530426,2,3,3,1,2,-1,-1,2
1558438974547380,0,0,2,3,4,11,8,1
1558438974547380,-1,-1,2,2,0,-6,-2,2
1558438974548378,1,-1,-6,0,-3,1,-2,0
1558438974548378,-2,0,0,-2,3,0,-1,-1
1558438974560345,1,-2,3,1,-2,1,0,-1
1558438974560345,-2,0,2,-3,-3,5,-4,-3
1558438974569321,2,-1,-6,-3,-10,-13,-1,0
1558438974569321,-2,-1,-4,-1,5,2,6,2
1558438974584282,-2,0,1,4,-3,-12,-7,-4
1558438974584282,1,1,-3,-7,-1,5,0,-3
1558438974591262,-1,1,7,9,8,10,-1,-2
1558438974591262,-4,-8,-5,-9,-16,-11,-8,-2
1558438974607224,1,3,3,4,13,6,5,3
1558438974607224,0,0,-1,0,4,-3,3,3
1558438974608217,-2,-3,-1,-3,-4,1,2,1
1558438974608217,2,2,4,1,-2,-12,-6,-1
1558438974621183,-5,-4,-13,-8,-9,-2,-7,-4
1558438974621183,3,0,5,5,-1,-2,1,1
1558438974630158,-3,0,2,-4,12,10,5,1
1558438974630158,-1,-2,5,1,0,-4,0,0
1558438974644123,-2,-3,-6,-7,-13,-11,-9,-3
1558438974644123,-3,-2,-7,-6,-4,13,-2,-4
1558438974651102,-1,-3,-2,5,-2,-5,-2,0
1558438974651102,-1,-1,6,3,-2,-14,-5,0
1558438974667060,1,2,7,4,8,9,6,5
1558438974667060,-1,2,1,-1,-6,-7,0,-1
1558438974669058,-4,-6,-14,-8,-9,-2,-8,-9
1558438974669058,3,2,-3,0,12,23,8,2
1558438974681029,-2,1,-1,-1,-12,-23,-6,-2
1558438974681029,-1,-4,2,6,12,9,6,2
1558438974689999,2,2,3,0,7,10,5,4
1558438974689999,-1,3,2,0,-8,-7,-7,-3
1558438974703970,0,-3,2,-3,-2,-4,-2,-1
1558438974703970,-5,-4,-8,-3,-5,-6,-5,-2
1558438974710943,-1,-1,-3,0,0,-8,-7,-1
1558438974710943,-2,-3,-4,1,0,7,4,-1
1558438974726905,-1,0,3,-1,-3,-4,-4,-2
1558438974726905,-3,-1,-3,-3,-13,-13,-5,-3
1558438974728894,2,-1,5,5,5,7,6,-1
1558438974728894,4,1,6,2,8,4,3,2
1558438974740867,-3,-5,-13,-7,-6,4,-2,-2
1558438974740867,-3,-2,0,-2,4,6,3,-2
1558438974749838,0,0,-5,-2,-7,-12,-6,-1
1558438974749838,-1,0,0,-4,-8,-12,-7,-3
1558438974763804,0,1,3,5,8,15,8,0
1558438974763804,2,3,3,-2,3,-8,0,4
