timestamp,emg1,emg2,emg3,emg4,emg5,emg6,emg7,emg8
1558438837334724,-2,-5,-5,-16,-12,-8,1,0
1558438837334724,-3,-2,-1,7,-10,-9,-7,-4
1558438837347689,-1,-1,-2,-4,-4,-2,-3,-2
1558438837347689,-1,0,3,-2,7,13,7,2
1558438837348686,-1,0,7,10,3,3,-2,-1
1558438837348686,1,-1,-12,-5,2,-2,-1,1
1558438837349684,-2,2,0,-4,0,2,1,-2
1558438837349684,-1,-5,-7,-9,-14,-12,-10,-5
1558438837353672,-3,-1,4,2,2,3,2,-1
1558438837353672,-2,-5,-3,-7,0,2,1,-2
1558438837361651,0,-1,1,1,2,-1,-2,0
1558438837361651,-1,2,-5,5,0,-2,0,0
1558438837370628,1,1,0,-4,-4,-6,-1,0
1558438837370628,-1,-1,3,-3,-8,-5,-5,-4
1558438837386584,-2,-3,-1,3,-2,-5,-2,-1
1558438837386584,-2,0,1,2,9,7,6,3
1558438837390574,0,-2,-10,-5,-4,-4,-2,0
1558438837390574,-1,0,-2,0,-5,-6,-3,-1
1558438837401545,-1,-2,-1,0,-6,-1,-3,-2
1558438837401545,-3,-1,4,-3,-3,-4,-3,-2
1558438837414510,1,0,-3,1,5,8,2,-2
1558438837414510,0,0,1,0,1,-1,0,0
1558438837422489,-2,-5,-2,-2,-1,-5,0,-2
1558438837422489,-1,-2,0,-2,0,4,0,-3
1558438837468367,-1,0,2,-5,3,3,3,1
1558438837468367,3,4,5,-3,0,-5,-1,0
1558438837469363,-2,-6,-11,0,-4,2,-2,-1
1558438837469363,-1,0,1,-2,4,6,2,-3
1558438837470361,0,2,-1,-6,-3,-3,1,0
1558438837470361,-2,0,6,9,1,1,3,-1
1558438837473352,0,-2,-5,-4,-8,-5,-8,-4
1558438837473352,2,-1,1,-5,0,-1,0,1
1558438837489310,-2,-4,-5,-1,1,-7,-1,-2
1558438837489310,-5,-4,-5,0,-7,-4,-6,-1
1558438837490308,2,0,2,-3,5,10,6,2
1558438837490308,0,-1,-1,-2,-3,-13,-2,-1
1558438837495293,1,0,-2,6,2,-3,1,1
1558438837495293,0,-1,-5,-4,3,-1,0,1
1558438837510254,-2,-1,-3,-5,0,2,3,-4
1558438837510254,-2,-2,-2,2,-7,0,-5,-2
1558438837518233,-2,0,3,1,-2,4,2,-1
1558438837518233,0,0,-4,-4,5,-3,-2,0
1558438837525215,-2,0,4,2,-3,-3,-2,-1
1558438837525215,0,1,-3,-1,0,0,-1,-1
1558438837541171,-3,-2,-5,-6,-9,-7,-6,-3
1558438837541171,0,-1,-9,-2,0,7,-1,0
1558438837556131,0,1,3,2,4,-3,4,2
1558438837556131,0,0,7,3,0,-7,-4,0
1558438837557128,-2,-4,-9,-7,1,10,3,-1
1558438837557128,-1,-3,-2,-2,-4,0,-1,-4
1558438837570095,-1,1,0,1,-2,-6,-2,-1
1558438837570095,-1,-2,-2,-3,2,0,1,-2
1558438837579069,0,-3,2,6,-1,-1,-3,-1
1558438837579069,-2,1,4,-3,-1,2,1,-3
1558438837585053,0,-2,-5,-5,-3,-2,-5,1
1558438837585053,-4,-6,-2,-1,-4,-4,-2,0
1558438837601011,-1,-1,-5,-1,1,-7,-4,2
1558438837601011,-1,-1,-2,-3,-5,-5,0,-3
1558438837607993,-1,-1,1,-1,2,3,0,-2
1558438837607993,1,1,0,3,5,8,2,2
1558438837614975,0,1,5,-1,2,0,4,3
1558438837614975,-3,0,-1,-4,-7,-20,-7,-2
1558438837629934,-3,-5,-7,-3,-5,2,-4,-5
1558438837629934,-1,1,-2,-1,-3,-8,-2,-2
1558438837638909,0,-1,1,1,2,4,-4,-6
1558438837638909,-3,-3,-1,-1,-6,1,1,-4
1558438837644894,-2,0,-1,2,-2,-6,0,1
1558438837644894,-2,-1,-8,-4,3,7,3,-1
1558438837660851,1,0,1,1,-2,-7,-2,1
1558438837660851,2,0,3,0,-2,1,-4,1
1558438837667832,-3,-1,-1,-4,-6,-1,-2,-5
1558438837667832,-1,0,-1,-2,-1,3,0,-2
1558438837675810,0,1,1,3,6,9,2,0
1558438837675810,0,-2,-4,-1,4,4,1,-1
1558438837699752,-1,-1,3,-4,-1,-3,-5,0
1558438837699752,-1,1,-1,1,-6,-9,-6,-1
1558438837699752,0,2,2,-2,1,-2,4,1
1558438837699752,0,-4,1,-1,5,3,-1,-1
1558438837705735,-1,0,1,0,-4,-7,1,-2
1558438837705735,1,2,-2,-2,6,6,2,2
1558438837720698,-1,-5,0,1,-9,-10,-7,-2
1558438837720698,1,-2,-9,-2,0,-5,1,-1
1558438837727681,0,4,4,1,-1,6,-1,-2
1558438837727681,0,-3,-2,1,3,6,8,3
1558438837735653,-3,2,1,-3,-1,0,-5,-3
1558438837735653,0,-3,-1,0,-4,0,-3,-3
1558438837750728,0,1,9,2,2,-1,1,2
1558438837750728,-5,-5,-17,-5,-8,-3,-5,-3
1558438837758625,-1,-3,-4,-3,2,2,-1,0
1558438837758625,0,0,-1,-1,-5,-6,-1,1
1558438837765573,1,-1,2,-1,1,-5,-4,4
1558438837765573,-2,2,3,2,0,-3,0,-3
1558438837781529,-2,-1,-3,0,-1,3,1,1
1558438837781529,-5,-1,-2,-2,-6,3,-6,-4
1558438837787515,1,-2,-3,2,6,9,7,1
1558438837787515,2,-1,4,-2,-2,-6,-4,-2
1558438837795492,-1,-2,-3,-4,-5,-8,-4,-1
1558438837795492,0,2,5,5,6,4,0,0
1558438837810456,0,1,3,2,2,-4,2,-1
1558438837810456,-4,-11,-8,-9,-7,8,-2,-7
1558438837818430,-2,1,-2,0,-3,4,2,-3
1558438837818430,0,2,5,2,4,-12,3,3
1558438837832393,-2,-2,-8,-2,-6,-10,-7,-3
1558438837832393,0,2,6,2,7,6,2,3
1558438837841368,-3,-2,1,-1,-5,-4,-6,-3
1558438837841368,0,-2,-1,-2,-3,2,-2,-1
1558438837856329,0,-3,-6,-1,2,0,2,-1
1558438837856329,3,2,4,2,6,-2,2,1
1558438837856329,-2,-4,-8,-5,-6,0,-2,-3
1558438837856329,0,-1,1,-1,-3,-2,-1,0
1558438837870293,0,-2,-4,-2,3,6,-1,-2
1558438837870293,-2,2,1,1,-5,-10,-3,0
1558438837878271,1,3,6,4,9,13,8,5
1558438837878271,-4,-2,-3,-4,-5,-2,-1,-6
1558438837893230,-2,-1,1,-3,-3,4,-3,-3
1558438837893230,-2,-1,-1,0,-4,-2,-5,-4
1558438837902206,0,-1,1,-1,2,-1,0,2
1558438837902206,-1,0,2,0,2,2,1,1
1558438837908190,0,-1,-5,-1,2,3,1,1
1558438837908190,-3,0,2,0,-11,-5,-8,-5
1558438837915172,4,2,5,3,7,-11,0,2
1558438837915172,0,1,0,3,-1,0,2,2
1558438837930132,-4,-3,-4,-3,-3,-7,-5,-3
1558438837930132,0,-2,-2,-6,0,5,-1,-1
1558438837938111,1,-1,-1,-3,-7,0,-3,-4
1558438837938111,-2,-3,-2,0,1,1,-3,0
1558438837953070,2,2,5,3,2,-1,2,2
1558438837953070,-2,2,0,-1,4,2,-3,-1
1558438837961048,-3,-4,-9,-4,-6,-4,-3,-4
1558438837961048,-2,-3,1,-1,-4,5,0,-1
1558438837968030,-1,-3,-7,-4,-4,-7,-2,0
1558438837968030,0,-3,3,-1,-3,1,1,-1
1558438837975010,1,3,2,3,-1,-5,3,-3
1558438837975010,-2,-1,-5,-1,9,10,-1,-2
1558438837989970,0,2,4,-1,-3,-3,1,1
1558438837989970,1,1,1,3,4,-5,2,3
1558438837998948,-2,-3,-3,-4,-9,-4,-11,-3
1558438837998948,-4,-4,-6,-3,2,6,4,-1
1558438838012909,-5,-2,-1,-2,-6,-5,-7,-3
1558438838012909,-2,-1,-2,-3,-9,3,0,-2
1558438838020888,-2,3,4,2,5,-5,1,1
1558438838020888,1,-1,-2,-3,-4,-11,-1,-2
1558438838027871,0,-2,-2,0,1,0,3,1
1558438838027871,-3,0,-6,-2,1,4,-5,-9
1558438838035848,-3,0,-1,-2,-7,-2,-6,-3
1558438838035848,-1,1,3,0,-1,-3,-3,0
1558438838050809,-1,2,-5,-2,-2,2,5,1
1558438838050809,2,0,1,2,6,-10,1,3
1558438838058788,-2,0,-4,1,7,14,1,-2
1558438838058788,2,-1,0,0,-2,-12,-2,-1
1558438838072751,-1,0,0,-2,-5,0,-7,-5
1558438838072751,-3,-7,-4,-6,-8,-5,-6,-3
1558438838080728,-2,-4,1,2,1,2,3,0
1558438838080728,2,3,-2,-4,-4,2,-2,0
1558438838087711,-3,-3,-2,-4,-1,-4,-5,-4
1558438838087711,-1,-1,4,1,5,0,5,1
1558438838103667,1,-2,-1,-3,-1,2,-1,-3
1558438838103667,-1,-2,-5,-5,-7,-8,-2,-4
1558438838119624,3,4,14,10,9,4,5,1
1558438838119624,-1,-4,-17,-12,-7,-6,-3,1
1558438838119624,-2,0,0,-4,-8,-6,-7,-4
1558438838119624,-2,1,-2,2,4,4,3,1
1558438838132590,-1,1,0,-6,-3,-8,-3,-1
1558438838132590,-5,-4,2,4,5,11,5,0
1558438838141565,2,1,3,1,3,3,7,2
1558438838141565,-2,-2,3,-2,-8,-1,-6,-3
1558438838147549,-3,-2,-5,-1,-3,2,-7,0
1558438838147549,2,2,5,2,1,-4,2,1
1558438838163508,-1,-3,-7,-4,1,-2,-3,-1
1558438838163508,-1,2,8,2,1,6,3,-1
1558438838170488,-2,-5,-6,-1,0,-1,-1,-3
1558438838170488,-1,0,-3,-2,-9,-9,-7,0
1558438838178467,-2,-4,-3,-1,-1,-1,-2,-2
1558438838178467,-1,-2,-4,-7,-1,-6,-4,-1
1558438838192429,0,1,4,3,5,9,1,1
1558438838192429,0,1,-3,-2,-7,-6,-3,-4
1558438838201405,-1,0,2,-1,4,0,3,-2
1558438838201405,-2,-1,-1,1,0,0,2,-1
1558438838207389,-2,-3,-3,-4,-3,-4,-4,-1
1558438838207389,0,2,3,1,-1,-5,-1,1
1558438838223347,-2,-2,-4,-2,-3,-1,-8,-3
1558438838223347,1,0,0,0,-3,5,2,1
1558438838230327,1,-2,-1,-2,2,-3,-2,0
1558438838230327,-3,-3,3,0,-5,2,2,-3
1558438838238306,0,1,-5,-2,3,-3,-4,0
1558438838238306,-2,-3,-5,-1,-2,-3,-6,-2
1558438838253266,3,2,3,5,1,-3,3,2
1558438838253266,0,-4,-13,-10,-1,4,-3,0
1558438838261245,-1,-1,4,2,-1,-1,5,3
1558438838261245,1,0,-2,0,0,-7,-5,-3
1558438838268229,-3,0,-5,0,0,3,3,-4
1558438838268229,1,1,3,4,6,7,2,0
1558438838283187,-1,-1,-3,-2,-2,2,0,-2
1558438838283187,-1,-2,-2,0,2,1,-1,-1
1558438838290168,0,-2,2,-3,-5,-5,-6,-2
1558438838290168,1,-1,-1,2,1,-4,0,-2
1558438838298147,-1,0,3,1,-2,-4,-2,-1
1558438838298147,0,3,0,0,5,4,7,4
1558438838313108,-4,-5,-4,-2,3,-4,4,-1
1558438838313108,-1,0,2,3,6,15,2,0
1558438838321086,-1,-2,4,0,-8,-10,-7,-1
1558438838321086,0,-3,-7,-5,-6,-9,-1,-3
1558438838328067,-2,-1,-8,-2,-4,-6,-2,0
1558438838328067,0,2,0,-1,0,-4,-1,-1
1558438838344025,-1,-2,1,-3,-10,-9,-6,-6
1558438838344025,-1,-2,-4,-4,0,7,-3,1
1558438838350011,-3,-2,0,-2,-4,-2,0,1
1558438838350011,-2,-2,0,2,5,6,0,-2
1558438838364968,1,-2,-5,-3,1,6,2,2
1558438838364968,0,0,2,0,-4,-18,1,0
1558438838372949,1,0,-1,0,-3,-8,-4,0
1558438838372949,-2,-2,-2,-1,-6,-3,-4,-1
1558438838381922,2,5,6,1,6,2,4,0
1558438838381922,-2,-4,-4,-1,5,6,2,-2
1558438838387906,1,-2,-4,-3,-5,-1,1,-1
1558438838387906,-1,2,5,-1,-5,-9,-2,-1
1558438838403864,-2,-3,-4,2,4,6,-1,-2
1558438838403864,0,2,3,1,-1,-1,1,1
1558438838409847,-1,0,1,0,-7,-5,-5,-5
1558438838409847,-2,-2,-6,-5,-1,-1,1,0
1558438838425805,-4,-2,-5,-4,1,-3,-3,-3
1558438838425805,-1,-2,0,-2,-4,1,-3,-1
1558438838432786,0,2,3,2,10,12,7,1
1558438838432786,-1,-1,0,-1,-6,-4,-5,-2
1558438838441762,0,1,-1,1,4,-3,3,1
1558438838441762,-1,0,-2,0,-2,-1,-3,2
1558438838455726,-1,2,2,-2,-3,-3,-1,-1
1558438838455726,-1,-2,6,1,0,-15,-4,-1
1558438838464701,-1,-1,-7,-1,-1,7,-1,0
1558438838464701,0,-1,1,-1,3,6,-1,-3
1558438838477665,-4,-6,-3,-2,1,5,0,-2
1558438838477665,-1,0,-4,-1,-4,-4,-3,-2
1558438838486642,1,-3,2,0,-5,-5,1,0
1558438838486642,0,2,3,0,-2,0,-6,-2
1558438838492627,-1,-1,-7,-5,-5,-10,-5,-1
1558438838492627,-3,-2,1,-1,-3,3,-4,-2
1558438838501607,-1,0,-1,1,7,2,9,2
1558438838501607,-3,-6,-2,0,-2,-2,-3,-5
1558438838515564,0,0,8,2,-2,1,-6,-1
1558438838515564,0,-3,-9,-3,-1,3,8,2
1558438838524542,2,-2,0,-4,-3,-3,-4,-1
1558438838524542,-1,0,0,2,4,6,1,0
1558438838537506,-2,1,-3,-1,3,0,4,0
1558438838537506,0,-2,-1,0,4,7,1,-2
1558438838546482,-3,-3,-3,-2,-12,-6,-7,-5
1558438838546482,1,0,0,1,6,2,6,2
1558438838552468,0,0,3,-2,2,0,-3,0
1558438838552468,2,3,-1,-2,0,2,-1,-1
1558438838561441,-5,-5,-12,-5,-5,3,-2,-1
1558438838561441,-3,-2,1,-1,5,-4,1,-2
1558438838575405,0,-2,-5,-4,-1,1,-1,-2
1558438838575405,0,2,3,1,-4,-8,-1,0
1558438838584381,3,3,3,1,5,-7,3,1
1558438838584381,-3,-4,-5,-4,-9,-1,-6,-5
1558438838597346,-4,-1,0,0,1,11,4,-2
1558438838597346,0,-3,-2,0,10,2,2,-2
1558438838606321,1,2,7,1,-3,-5,-4,1
1558438838606321,-2,-2,-2,-4,-1,1,2,-1
1558438838613302,-2,-5,-8,-3,-5,-6,-7,-3
1558438838613302,0,-2,0,2,-7,-2,-3,0
1558438838622279,-4,0,1,0,6,10,0,-1
1558438838622279,2,2,5,2,1,-7,2,2
1558438838635246,1,-2,1,1,2,1,1,-1
1558438838635246,-2,-2,-4,-3,0,4,2,-1
1558438838644221,0,-2,-5,-3,-10,-8,-4,-3
1558438838644221,0,-3,-2,0,-2,-5,-1,-1
1558438838658183,1,0,0,2,4,7,2,0
1558438838658183,1,2,9,1,-2,-12,-2,3
1558438838667203,-1,-1,-7,-1,4,4,-3,-2
1558438838667203,-2,1,-5,-2,1,7,1,-3
1558438838673144,2,0,4,2,3,5,1,-1
1558438838673144,-3,-5,-8,-6,-6,-9,-5,-3
1558438838682120,1,0,8,-1,-10,-4,-9,-2
1558438838682120,-1,1,-2,-1,-3,2,3,2
1558438838695122,-2,-6,-4,-2,1,-1,1,1
1558438838695122,-1,2,0,1,2,2,2,1
1558438838704060,-4,-3,2,-2,-3,-2,-2,-5
1558438838704060,-4,0,0,-1,-7,0,-6,-4
1558438838718024,0,0,-3,-1,2,-13,-3,0
1558438838718024,-1,-2,-1,-2,-1,3,-1,0
1558438838734978,-1,2,-1,0,4,7,8,4
1558438838734978,-1,-2,0,-1,0,4,-3,-1
1558438838735975,-3,-2,0,-3,-10,-5,-4,-4
1558438838735975,0,-1,9,3,1,-7,-2,-2
1558438838741959,0,-4,-9,-1,7,12,2,-1
1558438838741959,0,-1,-2,0,-6,-11,-5,-1
1558438838754925,2,2,0,1,-2,-6,0,1
1558438838754925,-3,-4,-9,-3,2,7,-2,-3
1558438838763900,-2,-1,4,-2,-4,0,-1,-2
1558438838763900,-3,-2,-3,0,0,2,-2,0
1558438838777862,1,3,5,1,5,-5,0,-2
1558438838777862,-3,-1,-6,-5,-5,-2,0,-3
1558438838786839,0,1,1,2,1,-1,2,0
1558438838786839,-1,-2,-6,-6,-4,-4,-2,0
1558438838792823,-3,-2,0,-4,-4,1,-1,-2
1558438838792823,0,0,2,4,5,0,3,4
1558438838801800,1,-1,2,-1,4,-5,-1,2
1558438838801800,-1,1,1,-1,1,1,1,0
1558438838815760,-4,-4,-7,-1,-4,5,-2,-7
1558438838815760,-2,-2,-3,-3,-5,-8,-5,-3
1558438838823739,-1,-4,-3,0,-4,-6,-3,-1
1558438838823739,1,1,0,0,1,-1,0,-2
1558438838837702,1,1,0,0,5,3,5,2
1558438838837702,-3,-2,-4,-4,-9,1,-7,-4
1558438838846679,-4,-4,-1,-5,-12,-7,-7,-5
1558438838846679,0,-1,5,7,13,3,8,4
1558438838852672,0,1,5,-1,-6,-10,-2,2
1558438838852672,2,-4,-16,-7,1,3,0,-1
1558438838861639,1,1,2,4,-1,-8,-4,-3
1558438838861639,-4,-4,-6,-9,-10,-3,-4,-4
1558438838875642,0,1,2,2,7,10,5,3
1558438838875642,-1,2,8,5,-3,-3,-2,1
1558438838884579,-2,0,-4,-3,0,7,0,0
1558438838884579,-3,-1,1,-2,-5,-5,-6,-1
1558438838897583,1,3,-5,0,6,-1,2,3
1558438838897583,-1,-2,1,-1,5,6,7,1
1558438838906519,-2,-6,-6,-5,-1,-6,0,-1
1558438838906519,0,-2,0,-2,-10,-11,-4,-3
1558438838912502,-1,0,-3,-4,-3,0,-8,-2
1558438838912502,0,2,3,1,1,10,1,-1
1558438838921478,-1,-2,2,0,1,-5,-3,0
1558438838921478,2,3,2,2,8,2,8,4
1558438838935442,-2,-3,-2,0,-4,1,-4,-4
1558438838935442,0,-1,-2,-2,-4,-1,-1,-2
1558438838944417,-1,1,0,-2,-1,0,-3,-2
1558438838944417,1,-1,-2,-2,-4,-5,-2,-3
1558438838957383,-2,-3,-6,-5,-8,-2,-6,-4
1558438838957383,-4,-1,-1,-2,2,0,-1,0
1558438838966360,2,3,3,3,9,-3,10,7
1558438838966360,0,2,1,1,8,7,4,0
1558438838972386,-2,-1,2,-1,-4,-3,1,2
1558438838972386,-1,-3,6,1,-2,-1,-7,-4
1558438838981353,-2,-4,-14,-8,-7,-6,-4,-4
1558438838981353,1,0,-1,-1,-1,-2,-5,0
1558438838995284,-1,-1,-1,-1,-5,-9,-2,-2
1558438838995284,0,-1,-4,-5,-1,4,3,0
1558438839004256,0,1,1,1,1,0,-1,0
1558438839004256,-2,-3,1,-1,0,-1,-1,0
1558438839018219,-3,-3,-6,-8,-10,-1,1,-1
1558438839018219,-1,-1,0,3,4,-3,-1,2
1558438839027195,1,0,5,-3,1,2,4,1
1558438839027195,-3,-4,-1,-2,-4,7,-2,-4
1558438839033180,-1,0,1,3,3,8,-1,-2
1558438839033180,1,2,1,0,1,-3,3,2
1558438839042157,-1,1,-3,1,2,0,-2,1
1558438839042157,-1,0,-2,-3,-5,0,-6,-2
1558438839055120,-1,-1,0,0,-4,-9,-6,-3
1558438839055120,-3,1,-3,-2,0,3,6,0
1558438839064098,-2,-5,0,1,-7,-6,-4,-4
1558438839064098,0,-2,-1,-1,0,-4,2,-1
1558438839078061,0,-4,-1,-1,5,6,3,2
1558438839078061,1,0,3,2,2,4,1,1
1558438839087035,0,1,0,-2,-4,-6,-1,0
1558438839087035,-2,-3,-2,-3,-1,0,-5,-4
1558438839093020,-1,0,-1,-1,-2,3,1,0
1558438839093020,-1,-1,1,0,-3,-15,-7,-3
1558438839101996,-4,-4,-3,-4,-1,7,3,0
1558438839101996,-3,-4,-6,-4,-2,9,5,1
1558438839114960,1,1,1,-1,2,-10,-2,0
1558438839114960,0,-2,2,4,5,5,2,0
1558438839123937,0,0,0,-4,-6,-6,-8,-2
1558438839123937,1,0,0,1,0,-5,-3,-1
1558438839137901,-1,-4,-7,-4,-10,-3,-1,-2
1558438839137901,-1,-1,-2,-1,5,-1,5,3
1558438839146876,0,-1,4,1,3,2,-1,0
1558438839146876,-2,-4,-5,-1,-1,1,-4,-3
1558438839152891,1,-3,0,1,-4,5,0,0
1558438839152891,-2,-5,-9,-6,-8,-7,-8,-3
1558438839161836,-2,-1,3,2,3,4,3,1
1558438839161836,-2,1,-4,-2,-7,-14,0,0
1558438839175797,-2,-2,-1,1,12,18,6,0
1558438839175797,-2,-3,-3,-4,-7,-4,-5,-4
1558438839184158,1,1,0,-2,-1,-7,-5,-2
1558438839184158,1,-2,1,4,9,6,2,3
1558438839198104,0,1,3,0,-2,-3,-3,2
1558438839198104,-1,-1,0,1,-7,-4,-1,-1
1558438839206972,-4,-5,-6,-3,-3,3,-4,-3
1558438839206972,1,3,4,2,2,-3,-3,-1
1558438839222033,-2,0,-5,-5,0,-3,3,-1
1558438839222033,0,2,8,2,-1,-6,-2,0
1558438839222674,0,1,-2,2,1,0,2,0
1558438839222674,-1,-1,1,-1,-3,-4,-2,-2
1558438839235857,0,0,-2,2,9,2,-3,2
1558438839235857,-3,-1,-2,-3,-3,2,1,0
1558438839244897,-2,-4,-7,-3,-7,-3,-5,-3
1558438839244897,0,0,1,-1,-4,0,-2,-2
1558438839266994,4,0,1,1,5,-7,4,2
1558438839266994,1,1,3,2,2,-4,-3,-3
1558438839267777,-1,-2,-2,0,4,10,-1,-3
1558438839267777,-3,-2,-3,-5,-10,-3,-8,-6
1558438839282008,-1,-1,1,-3,-8,-14,-6,0
1558438839282008,0,-1,-3,2,8,10,10,4
1558438839283851,-1,0,-3,-1,1,0,3,-2
1558438839283851,-2,0,-1,-4,-2,2,-2,-2
1558438839296005,-1,-3,-5,-3,-10,-7,-8,-5
1558438839296005,1,-4,-5,-3,0,7,2,-3
1558438839304711,1,0,0,-2,-6,-8,1,0
1558438839304711,0,1,2,2,6,1,4,3
1558438839317644,-2,-3,-1,0,3,3,-3,-1
1558438839317644,-1,-1,1,-4,-8,-6,-3,-1
1558438839326895,1,-1,0,2,6,0,-1,-1
1558438839326895,-4,-4,-6,-5,-8,-3,-1,-1
1558438839341579,-2,2,2,0,3,-1,-3,-2
1558438839341579,-1,-2,-4,-5,-8,-5,-5,-1
1558438839343573,-2,-1,5,2,0,0,0,-3
1558438839343573,-3,-1,-7,-2,9,8,6,2
1558438839355545,0,1,1,-3,-1,-1,0,0
1558438839355545,-2,-2,-1,-2,-4,-5,-4,-3
1558438839364518,-1,0,-4,-3,-6,-7,-6,-3
1558438839364518,-1,-2,2,-1,-4,-1,-4,-3
1558438839377516,-3,-1,-3,-3,-7,0,1,-1
1558438839377516,0,0,-3,1,3,1,-1,1
1558438839386460,0,-1,4,0,4,0,1,4
1558438839386460,-4,-3,1,-3,-7,-15,-10,-4
1558438839401419,0,0,0,1,1,10,6,2
1558438839401419,0,-3,2,2,0,-6,-2,-3
1558438839403411,-2,-2,-3,-3,-1,-4,2,1
1558438839403411,0,-2,-2,-2,-2,-4,-4,0
1558438839415380,-1,-3,-3,-2,0,-1,1,-1
1558438839415380,1,2,2,-2,1,1,-2,-1
1558438839424356,-3,-2,1,0,1,3,-3,-4
1558438839424356,-1,-1,-2,1,0,3,4,-1
1558438839438321,-1,-2,0,-3,-4,-4,-4,-3
1558438839438321,-4,-4,-7,-8,-8,-1,-1,-1
1558438839446356,-1,0,2,0,2,-10,-3,-2
1558438839446356,1,1,-2,0,-3,-5,-4,-1
1558438839461259,0,-2,-1,-1,2,2,3,-1
1558438839461259,1,0,3,3,5,5,3,2
1558438839463253,1,1,0,-1,-2,1,-4,-1
1558438839463253,1,1,6,2,2,6,4,1
1558438839475220,-4,-3,-10,-6,-7,-7,-4,-3
1558438839475220,-5,-4,1,-1,-5,-5,-7,-4
1558438839484196,-2,-1,-4,-3,4,4,3,3
1558438839484196,1,0,-2,0,6,2,-3,1
1558438839498158,-2,-1,2,1,-1,5,-1,1
1558438839498158,0,-1,-2,-2,-2,-1,-1,-1
1558438839507136,-3,1,0,0,-3,-4,-1,-1
1558438839507136,-1,-1,4,-2,-5,-5,-2,-1
1558438839522096,-3,-6,-12,0,1,0,-3,-3
1558438839522096,-1,0,1,0,9,4,2,1
1558438839523093,-2,0,-1,-2,-10,-2,-3,-2
1558438839523093,1,-2,-7,1,5,3,2,-1
1558438839535061,0,2,5,2,-3,-6,0,0
1558438839535061,-1,-2,-3,1,0,2,0,-1
1558438839544035,-1,-1,-2,0,0,2,1,1
1558438839544035,1,-2,-2,-1,-7,-11,-5,-1
1558438839557998,1,0,3,-2,6,10,2,1
1558438839557998,-5,-3,-8,-4,-13,-9,-5,-3
1558438839567002,0,-1,4,0,-2,-9,-1,0
1558438839567002,2,2,5,2,11,12,7,2
1558438839581985,0,-4,-7,-5,-5,-1,-4,-1
1558438839581985,2,2,4,-1,-4,1,-5,-2
1558438839582931,2,2,-5,-2,-9,-12,-7,-4
1558438839582931,-4,-7,0,-3,1,-5,1,0
1558438839594956,-2,0,-4,-3,-1,0,-2,-2
1558438839594956,-1,1,4,4,6,6,2,2
1558438839603875,0,-5,-5,-2,-2,11,0,1
1558438839603875,-3,-1,0,-1,-5,-4,-6,-3
1558438839617838,-1,1,12,3,-3,-8,0,-1
1558438839617838,-2,-5,-17,-9,-4,-13,-2,1
1558438839626816,2,0,2,3,12,16,6,2
1558438839626816,0,0,-4,-4,-8,0,0,-2
1558438839641774,0,-2,-1,1,-3,0,-6,-3
1558438839641774,-1,0,-3,-3,3,-3,2,-1
1558438839642771,0,0,6,-1,-1,-4,1,2
1558438839642771,0,-3,-9,-3,0,1,0,-1
1558438839655738,1,0,6,4,-5,-2,-3,-1
1558438839655738,-1,1,3,-1,2,2,2,-1
1558438839664732,-4,-4,-12,-3,-6,-2,-5,-3
1558438839664732,-3,1,5,0,1,-4,-1,3
1558438839677680,-2,-2,-2,0,5,2,0,-1
1558438839677680,0,0,6,2,0,-7,-2,-1
1558438839686655,-4,-2,-2,-4,-2,-2,-5,-5
1558438839686655,-2,-3,-5,-4,-7,1,-7,-6
1558438839700885,0,0,2,1,4,5,6,3
1558438839700885,-1,-2,0,2,2,0,4,1
1558438839707600,1,-1,-1,-6,0,3,3,0
1558438839707600,2,-1,-3,-2,-5,-9,-3,-1
1558438839715982,-4,-4,-3,0,-3,-2,-2,-3
1558438839715982,-1,-2,-3,-4,2,7,2,0
1558438839724555,0,0,3,0,-6,-11,1,0
1558438839724555,-3,1,0,0,7,10,2,2
1558438839737522,-1,0,2,-4,-2,-5,0,-2
1558438839737522,-2,-2,-10,-3,-8,-4,-7,-3
1558438839746802,-3,1,2,1,0,-3,0,-1
1558438839746802,0,-1,-5,-1,1,6,3,0
1558438839761762,-1,-1,2,2,-2,-5,-1,-1
1558438839761762,0,0,5,1,9,9,4,0
1558438839763450,0,-3,-3,-1,-1,-7,-2,-1
1558438839763450,-1,-2,1,-1,0,2,-2,-2
1558438839775448,-2,0,2,1,1,4,6,2
1558438839775448,1,-1,-2,2,1,-5,-3,-1
1558438839784395,1,2,-2,-4,1,10,5,1
1558438839784395,-2,-2,-2,-3,-9,-10,-7,-3
1558438839797419,-1,0,-2,0,-1,2,-4,0
1558438839797419,-2,1,4,1,-2,-10,-1,1
1558438839806336,1,1,-2,1,2,7,-2,0
1558438839806336,-4,-2,-4,-2,-2,-6,-2,-3
1558438839821295,-1,-3,-5,-5,-8,-2,-9,-5
1558438839821295,1,0,2,3,-4,1,7,2
1558438839823288,0,-4,-7,-3,6,4,3,-1
1558438839823288,-1,0,6,5,4,8,6,1
1558438839835262,-2,-3,-8,-6,-9,-13,-6,-3
1558438839835262,-3,-3,-5,-5,1,8,-4,-1
1558438839844233,-3,-1,2,3,-2,1,1,-1
1558438839844233,-3,0,1,1,1,-1,0,-1
1558438839858382,-2,-1,-4,-6,-2,2,-1,0
1558438839858382,2,-2,-5,-5,-8,-18,-6,-1
1558438839873680,-2,1,2,-1,7,14,3,0
1558438839873680,2,0,2,4,-3,-9,0,2
1558438839882439,1,2,3,3,8,-1,3,1
1558438839882439,-2,-4,-5,-3,0,9,-7,-6
1558438839883129,0,2,1,2,-5,-7,-3,0
1558438839883129,-2,-7,-2,-4,-5,-9,-1,-3
1558438839896134,0,2,-2,-3,5,7,7,3
1558438839896134,-3,-2,-5,-2,-1,1,2,-2
1558438839904356,-2,-3,0,1,-3,-3,-7,-6
1558438839904356,3,4,2,-3,-3,-1,2,-1
1558438839918036,2,0,5,3,-1,-4,-3,-3
1558438839918036,-2,-1,0,0,-2,-1,-4,-2
1558438839927042,-4,0,-2,-3,-6,-9,-6,-5
1558438839927042,-1,3,4,0,1,1,-1,-1
1558438839941974,-3,-4,-7,-2,-4,-3,-2,-1
1558438839941974,0,-1,-3,-3,5,-5,0,2
1558438839942970,2,-1,2,1,2,4,2,0
1558438839942970,0,-1,-3,-2,-2,-4,-3,1
1558438839956326,-3,-1,0,-2,-3,-7,-2,-3
1558438839956326,-4,-1,3,1,-8,-4,-6,-4
1558438839964334,0,-1,-5,-3,6,5,5,4
1558438839964334,-1,-1,-1,1,7,13,2,2
1558438839978256,1,3,6,-2,-7,0,-6,-1
1558438839978256,-3,-5,-13,-3,-6,-13,1,-1
1558438839986852,-2,-6,-4,-4,-4,-4,-6,-2
1558438839986852,-1,-1,-4,-3,0,4,-2,-2
1558438840000879,-1,-3,-6,-4,-7,-11,-4,-2
1558438840000879,1,3,8,0,4,6,4,1
1558438840008793,-1,-1,1,3,6,8,2,0
1558438840008793,0,-3,3,-3,-14,-19,-2,-3
1558438840015779,0,-1,-8,-2,8,8,2,1
1558438840015779,-1,-3,-3,1,-4,-8,-3,0
1558438840023753,-1,-1,-5,-5,-4,-6,-1,0
1558438840023753,-3,-1,1,2,-1,2,-4,1
1558438840037715,3,2,4,5,8,0,0,2
1558438840037715,-1,3,2,-3,-5,-2,-3,-3
1558438840046692,-3,-4,-2,-2,0,1,1,-2
1558438840046692,-1,-2,-1,-4,-4,-1,0,-1
1558438840061871,-2,-2,-3,0,-1,-3,-1,-2
1558438840061871,0,1,1,3,1,0,-1,0
1558438840067636,-2,-1,0,-2,3,-2,-3,-2
1558438840067636,-2,-1,-4,-2,-4,-5,-1,-2
1558438840076079,2,-1,1,-1,8,1,8,4
1558438840076079,-1,-1,-2,-3,-6,-7,-7,-4
1558438840084591,-1,0,1,-1,-6,-2,-2,-1
1558438840084591,-1,1,-4,-1,7,13,6,2
1558438840097895,-4,-6,-3,0,-7,-4,-5,-2
1558438840097895,1,-1,-2,2,14,5,8,3
1558438840106784,2,-1,1,-3,-11,-8,-6,-3
1558438840106784,0,1,3,2,0,5,-2,1
1558438840120572,-2,0,-3,-4,-2,0,-1,0
1558438840120572,-1,1,2,-2,-8,-2,-6,-2
1558438840127476,0,-3,9,8,8,8,5,2
1558438840127476,-3,-4,-18,-9,0,-3,1,-2
1558438840135464,1,1,2,-4,-7,2,0,-3
1558438840135464,-1,1,2,1,3,-7,-3,-1
1558438840144433,-1,1,-3,-2,-5,-3,-2,-1
1558438840144433,1,-2,2,1,-4,-9,-9,-3
1558438840158676,-2,-1,-3,1,1,5,3,-3
1558438840158676,2,-1,0,-2,4,9,4,1
1558438840166847,0,1,-2,2,-3,-7,0,0
1558438840166847,-3,-4,-1,-4,-4,-1,-6,-4
1558438840181803,-1,-2,2,1,-2,-17,-2,-1
1558438840181803,0,-3,3,0,-3,6,-1,-1
1558438840187677,-1,1,0,-3,4,0,-3,1
1558438840187677,0,-1,-8,-6,-3,3,4,-2
1558438840204555,-3,-2,-7,-6,-1,2,-3,-2
1558438840204555,0,0,2,0,-4,2,-1,-4
1558438840205269,0,-1,-1,-2,4,-2,4,1
1558438840205269,1,4,11,4,6,-3,-4,-1
1558438840218234,0,2,-1,-2,-5,-1,-1,-2
1558438840218234,-3,-4,-4,-5,-8,-7,-5,-3
1558438840227458,-2,-4,3,-1,2,4,2,0
1558438840227458,-2,-3,-8,-1,2,-2,1,0
1558438840241201,0,0,4,3,2,-10,-2,1
1558438840241201,-1,0,0,-2,-2,4,-2,-1
1558438840248419,-1,-1,-6,-5,-1,0,-4,-4
1558438840248419,-1,1,2,4,-3,-6,3,4
1558438840264411,-4,-3,-3,-3,-3,9,1,0
1558438840264411,-1,0,1,-2,0,-3,-2,-1
1558438840266389,0,-1,-1,3,-5,-10,-4,-1
1558438840266389,1,1,5,4,7,11,4,-1
1558438840287066,-1,-2,0,-3,-5,-4,-4,-3
1558438840287066,-2,-5,-8,-2,1,-1,0,2
1558438840288126,-1,2,1,-1,-1,-3,-5,-2
1558438840288126,-1,-1,2,-8,-4,1,2,-1
1558438840301012,2,-1,-6,-3,-5,-4,5,12
1558438840301012,-6,-5,-4,-2,-5,-2,-6,-16
1558438840308267,2,2,0,1,7,11,11,3
1558438840308267,0,-3,1,2,-5,-20,-8,-1
1558438840323980,-3,-5,4,1,10,10,3,-1
1558438840323980,1,-1,-2,-2,-4,-2,-2,1
1558438840325945,-2,-6,-8,-1,-12,-9,-9,-4
1558438840325945,1,4,2,-2,0,0,-8,-1
1558438840338202,1,-2,-1,-1,1,6,8,2
1558438840338202,1,2,10,6,10,10,3,4
1558438840346890,-3,8,1,0,5,-1,-1,-3
1558438840346890,-1,-5,-2,3,-2,-6,0,1
1558438840360853,-2,-1,-7,-7,-6,-8,-9,-7
1558438840360853,2,0,-2,3,4,5,8,8
1558438840367833,0,-1,2,-3,-3,-5,-2,-5
1558438840367833,-1,2,2,0,2,7,0,-3
1558438840383789,-1,-2,-6,1,-2,-3,-1,-2
1558438840383789,-4,-2,-4,-6,-9,-18,-5,-1
1558438840385786,0,-3,2,0,-4,0,-7,0
1558438840385786,-2,-4,-14,-8,-10,-5,-4,-1
1558438840398183,-1,4,8,13,15,13,2,-1
1558438840398183,0,2,-1,-9,0,1,2,2
1558438840406729,-3,-5,-2,-3,-4,-2,1,3
1558438840406729,-4,-7,-1,-2,-4,6,-5,-8
1558438840421924,3,5,9,4,1,-9,1,3
1558438840421924,-5,-6,-3,-7,-9,-11,-7,-9
1558438840428120,0,0,-7,-4,-5,-4,2,1
1558438840428120,-2,1,4,2,4,5,2,1
1558438840445060,-3,-3,-3,-2,3,4,-2,-6
1558438840445060,-1,0,0,5,5,6,8,3
1558438840446642,0,0,-1,1,2,-8,-2,1
1558438840446642,-1,-1,-5,-1,3,2,0,-2
1558438840457593,-1,0,0,-4,-5,-3,-7,-4
1558438840457593,-1,-5,1,1,-3,0,-2,-2
1558438840467026,-2,-2,-1,-2,-7,-5,-2,0
1558438840467026,4,4,0,3,14,13,8,3
1558438840481913,1,4,1,-1,1,-1,-2,-3
1558438840481913,-3,-5,-5,-1,-6,-3,-3,-3
1558438840488541,-3,0,-2,-8,2,-3,-4,-4
1558438840488541,2,1,5,-4,-6,-4,2,2
1558438840504470,1,-1,-5,5,3,-2,-1,6
1558438840504470,-1,-1,-6,-2,-2,6,-1,1
1558438840505619,-1,-4,-3,3,1,1,0,-6
1558438840505619,-1,0,4,-1,-2,-1,-4,-5
1558438840517434,1,-3,2,-1,5,6,5,2
1558438840517434,5,1,-1,3,-1,-4,-3,6
1558438840526741,-5,-3,0,-4,-4,0,-6,-2
1558438840526741,-4,-1,-4,1,-6,-4,-4,-2
1558438840541370,-1,-1,1,-9,-9,-9,-1,-2
1558438840541370,1,1,-3,2,3,8,3,1
1558438840547353,1,0,-2,-5,-3,2,0,-4
1558438840547353,1,0,6,-2,-4,-10,2,6
1558438840564306,-2,-3,-10,-2,-3,-5,-5,-5
1558438840564306,5,4,3,2,2,-5,-5,-5
1558438840565366,-6,4,0,-1,-2,4,-4,-1
1558438840565366,1,1,1,5,3,6,9,2
1558438840587360,-2,-6,4,4,9,2,0,-1
1558438840587360,1,-2,-2,-4,-11,-6,-5,0
1558438840588246,3,0,0,4,-1,-3,3,2
1558438840588246,-1,0,-7,-2,3,-4,-1,0
1558438840600593,3,1,2,-4,-15,-9,-4,6
1558438840600593,-7,-2,-3,3,2,1,-4,-16
1558438840609230,-1,-3,-5,-8,-2,4,-1,3
1558438840609230,-1,0,2,2,10,14,-3,-1
1558438840624484,-1,-4,-9,-10,-16,-8,9,-2
1558438840624484,-1,-1,9,2,2,0,1,0
1558438840625147,2,6,13,7,3,-1,3,3
1558438840625147,-1,-5,-14,-6,-2,-2,-1,1
1558438840638453,-4,-3,9,21,16,19,1,1
1558438840638453,-6,-7,-16,-34,-22,-17,-8,-5
1558438840647088,6,-5,-4,-1,-8,-18,-8,-2
1558438840647088,-10,0,12,3,9,5,3,2
1558438840661050,-3,8,-9,-3,-2,6,-6,-16
1558438840661050,-4,-8,-7,2,3,6,9,5
1558438840669028,4,-2,0,-1,1,0,-6,8
1558438840669028,-11,-8,-5,-4,-8,-6,-5,-25
1558438840683988,-3,-3,4,4,1,-8,-6,-3
1558438840683988,-2,7,7,7,11,10,4,6
1558438840686011,-2,-3,-7,-4,-3,2,6,3
1558438840686011,3,1,5,5,-9,-22,-15,-1
1558438840698216,-4,-6,-10,-9,-8,-2,0,0
1558438840698216,8,6,10,6,7,4,-5,-2
1558438840706930,-9,-1,-5,-2,1,1,1,2
1558438840706930,7,-5,-7,-4,-1,3,5,9
1558438840721108,-9,-5,-4,-7,-6,-5,-12,-11
1558438840721108,1,2,0,6,1,-1,-1,1
1558438840729121,-1,-1,-7,-3,-7,-5,-5,-9
1558438840729121,-3,-12,-3,5,4,1,1,2
1558438840744973,2,-1,-2,-11,-7,1,7,3
1558438840744973,0,2,16,10,5,6,-2,-3
1558438840745822,-2,1,-5,-6,-2,5,6,-2
1558438840745822,-1,2,-5,-3,-8,-4,-7,-5
1558438840757790,-1,-4,1,-7,-7,-10,-3,4
1558438840757790,-4,3,5,3,5,3,0,-1
1558438840766766,-3,-7,-8,-5,-7,1,-2,-3
1558438840766766,1,1,-2,-3,0,-2,-1,1
1558438840781077,1,3,3,8,14,5,0,-1
1558438840781077,1,2,-9,-10,-6,-2,13,7
1558438840789705,-3,-3,4,10,8,1,-4,-6
1558438840789705,-1,-4,-3,-8,-8,4,3,-1
1558438840804953,3,4,13,1,-5,-8,-3,9
1558438840804953,-3,-5,-16,-4,-1,1,-6,-12
1558438840805662,4,1,4,5,3,4,1,7
1558438840805662,-2,-3,-6,-4,8,10,7,0
1558438840817631,-1,1,7,-2,-4,-13,-3,3
1558438840817631,-5,0,-7,-5,-13,-11,-10,-2
1558438840826608,4,1,11,-1,-1,-1,4,-1
1558438840826608,-5,-5,-9,-1,1,6,-6,-4
1558438840840573,1,-1,-3,0,4,7,3,-3
1558438840840573,8,2,8,3,1,-8,-4,3
1558438840849572,-14,-9,-16,-7,-5,-14,-6,-8
1558438840849572,1,7,17,6,4,6,1,5
1558438840864544,-2,-6,-16,-7,-1,-3,-3,-4
1558438840864544,-2,-5,-3,5,-3,-3,-2,0
1558438840865502,3,2,3,-6,0,5,-4,-3
1558438840865502,1,-1,4,0,-5,-7,-1,-2
1558438840886480,1,-2,-5,-4,2,4,7,2
1558438840886480,-2,-1,-3,0,1,-2,-5,-1
1558438840888439,3,1,0,5,9,11,9,6
1558438840888439,-4,2,-4,-4,-5,-5,-8,-1
1558438840900409,-4,-1,3,4,-4,2,-5,-7
1558438840900409,-2,-9,-5,-3,-3,0,0,0
1558438840909385,3,1,4,3,2,-7,1,-1
1558438840909385,0,-2,-6,-5,-3,-3,-3,-4
1558438840923655,-1,1,0,-1,-2,2,0,2
1558438840923655,0,0,0,0,6,-7,6,3
1558438840930769,-9,-6,-3,-6,-8,-17,-9,-3
1558438840930769,5,2,6,1,0,2,2,7
1558438840938313,-6,-3,-2,1,-1,10,-2,-11
1558438840938313,-5,-9,1,0,8,5,1,-1
1558438840946734,2,2,2,1,11,12,6,2
1558438840946734,3,2,4,1,-1,-7,2,0
1558438840960248,-2,-7,-9,-17,-18,-10,-10,-5
1558438840960248,2,3,-3,2,0,2,8,4
1558438840969224,-2,-1,1,0,-6,-5,-4,-5
1558438840969224,0,-1,1,5,10,8,6,7
1558438840983640,6,7,9,8,15,2,9,6
1558438840983640,-4,-3,-1,-5,-4,-10,-10,-8
1558438840990467,-3,-6,-8,-7,-10,-5,0,6
1558438840990467,2,2,10,10,2,-1,-4,-3
1558438840998148,-2,-4,-6,-2,-4,-12,-4,-1
1558438840998148,-1,1,-6,-4,-1,-1,-2,3
1558438841007123,-2,-2,-3,-3,-1,6,-2,-8
1558438841007123,-4,0,-5,-5,-8,-17,-9,-7
1558438841020088,0,-1,-7,1,5,9,5,11
1558438841020088,0,0,0,-6,-3,6,6,-3
1558438841029064,-4,-3,6,4,5,-1,-3,3
1558438841029064,-3,-2,-6,0,-4,-1,2,-9
1558438841044025,1,1,3,-4,-4,1,-5,-1
1558438841044025,2,-5,0,1,-8,-3,-1,1
1558438841050454,0,4,10,8,9,6,5,0
1558438841050454,-1,2,-4,0,0,1,2,1
1558438841057988,-1,-6,-9,-1,5,3,6,8
1558438841057988,-9,-5,-3,-4,-3,2,-4,-9
1558438841066963,0,1,0,-3,-9,-11,-9,-6
1558438841066963,-2,0,-1,-7,-7,-2,0,1
1558438841081331,0,-4,-1,3,-2,-5,-3,-4
1558438841081331,-1,-2,-2,-3,1,3,2,-1
1558438841089390,0,-1,-2,3,3,6,2,0
1558438841089390,-1,-5,0,-1,3,-3,0,2
1558438841104343,-2,-1,-10,-10,-18,-4,-5,-9
1558438841104343,-3,0,3,0,-5,-9,-6,-2
1558438841111308,0,0,-4,-1,-5,-13,-6,-1
1558438841111308,4,1,-2,-1,6,11,5,2
1558438841127517,0,5,11,6,6,4,2,-1
1558438841127517,-2,0,-3,-2,5,-2,2,3
1558438841128299,4,-2,2,-4,-2,-1,-6,1
1558438841128299,-4,-3,-8,-4,-6,-3,-6,-8
1558438841140560,-5,-11,-6,-4,-3,-4,0,-3
1558438841140560,0,6,7,2,2,3,-1,-2
1558438841149240,2,-2,-14,-4,-2,-6,2,4
1558438841149240,0,2,7,14,4,-7,-2,2
1558438841163232,4,6,-1,-8,2,8,-2,-2
1558438841163232,-7,-6,4,3,1,5,-1,-2
1558438841170464,-1,-4,-5,-3,-1,0,-1,-5
1558438841170464,1,-2,-6,-3,-2,3,-2,-3
1558438841186141,2,3,5,5,-6,-5,0,-2
1558438841186141,1,3,2,-1,2,2,-4,2
1558438841188136,-5,0,-3,-5,-2,-2,9,4
1558438841188136,2,-4,-1,-4,-8,-7,0,4
1558438841200386,-3,3,6,9,10,0,-1,-1
1558438841200386,2,-1,-6,-7,-2,3,4,-1
1558438841209160,-1,-3,1,-2,-3,2,-4,-3
1558438841209160,3,3,0,2,2,-1,-3,9
1558438841224162,-4,-8,-4,-3,-5,-6,-7,-12
1558438841224162,-1,0,-3,1,-1,-2,-2,-1
1558438841231021,2,4,4,3,-8,1,1,-2
1558438841231021,-2,-2,-4,-6,-3,-6,-5,-2
1558438841247247,7,8,10,5,17,7,14,10
1558438841247247,-5,-6,-11,1,5,-3,-6,-2
1558438841247978,-1,-2,2,-2,-3,3,1,-5
1558438841247978,-5,-1,0,-5,-12,-4,-4,-4
1558438841261129,-2,-1,-5,-8,-6,-4,-8,-4
1558438841261129,3,0,-1,2,-5,-10,-1,0
1558438841268919,-1,-1,-2,-5,-11,-6,-7,-3
1558438841268919,-9,-7,-3,-4,-2,8,6,-5
1558438841283882,4,1,6,4,12,-6,5,5
1558438841283882,-2,-2,-3,-3,-2,-4,-2,1
1558438841290129,1,2,0,2,7,2,1,2
1558438841290129,-1,-3,-5,-3,-4,-7,-5,-5
1558438841306821,-2,-4,-4,-1,-6,0,-2,0
1558438841306821,2,5,5,-2,-7,-4,1,-2
1558438841307872,0,-4,-6,2,5,8,2,-1
1558438841307872,-2,-5,-3,-10,-11,-5,-5,-2
1558438841321040,-6,-3,-1,-1,-10,-9,-10,-2
1558438841321040,-4,-5,-10,-1,3,7,-6,-13
1558438841329027,-1,-3,1,6,16,11,10,3
1558438841329027,5,1,5,1,8,-7,4,3
1558438841343994,1,2,0,2,4,0,8,13
1558438841343994,0,0,3,0,-5,-5,-5,-5
1558438841350702,-1,4,7,0,-4,-4,-9,-1
1558438841350702,-3,-6,-11,-5,1,3,5,-3
1558438841366661,-4,-3,-7,-5,-10,-8,-8,-6
1558438841366661,-1,0,3,2,1,1,-2,2
1558438841367657,-1,-2,-6,-2,1,-2,-5,-4
1558438841367657,0,1,1,-2,-5,0,0,1
1558438841380624,-2,-2,-1,5,-5,-2,-3,-4
1558438841380624,2,1,6,2,17,12,12,7
1558438841389626,-1,1,6,0,-6,-15,-6,0
1558438841389626,-4,-3,-10,-3,7,9,-3,-3
1558438841403561,-5,1,-6,-5,-4,-6,-14,-6
1558438841403561,-2,-7,-3,-2,-10,-10,1,-2
1558438841410814,-5,-5,-1,-3,-9,-8,-3,0
1558438841410814,1,1,-4,2,11,13,9,3
1558438841426611,-1,2,4,2,-1,-1,-3,4
1558438841426611,1,1,12,2,-2,3,3,-5
1558438841428770,1,0,-18,-9,-6,-5,-7,-3
1558438841428770,-7,-2,9,6,2,-8,-8,-4
1558438841440790,1,-3,-6,-7,-6,7,7,1
1558438841440790,1,7,1,-5,-6,3,-1,2
1558438841449439,-3,-11,-10,1,3,-1,2,2
1558438841449439,2,7,10,3,-3,-4,-6,-8
1558438841463737,-3,-5,-9,-3,2,-4,1,-5
1558438841463737,2,0,5,-1,1,-9,-2,5
1558438841470718,0,1,1,-4,-1,5,4,-2
1558438841470718,2,1,0,-2,-1,-8,-7,1
1558438841487361,-1,2,8,0,-7,-1,-6,-6
1558438841487361,-2,-11,-10,0,9,0,4,0
1558438841488334,-2,1,4,-1,-2,3,0,0
1558438841488334,0,-4,-2,3,-6,-4,-1,2
1558438841500470,-1,-2,-7,-2,-1,1,-4,-4
1558438841500470,-2,3,-4,4,0,0,0,0
1558438841509278,-1,0,-6,-12,-2,2,6,1
1558438841509278,-1,1,2,2,2,2,-1,2
1558438841523546,-3,-3,-2,-7,-6,-2,-6,-8
1558438841523546,0,1,1,2,-3,4,-3,-1
1558438841531045,-2,-2,7,11,7,-8,6,3
1558438841531045,0,-3,-6,-7,-2,0,-1,-2
1558438841547005,-1,-3,-4,1,9,1,3,0
1558438841547005,3,-1,-3,0,-2,-3,3,5
1558438841547681,0,3,5,-2,-4,9,-5,-4
1558438841547681,1,-1,-4,-8,-9,-10,-6,-3
1558438841560963,0,0,3,7,12,6,6,5
1558438841560963,-2,-3,-5,-6,-8,-3,-5,-3
1558438841569620,0,1,5,1,1,0,-6,-6
1558438841569620,-5,-4,-6,4,4,11,11,2
1558438841583814,-1,0,-5,-8,-5,0,-1,0
1558438841583814,-2,2,2,1,-2,-1,-7,-1
1558438841590643,-1,-4,-8,-3,1,-8,-3,-9
1558438841590643,3,1,6,2,-3,-3,-3,-3
1558438841606842,2,1,2,3,2,-7,6,7
1558438841606842,-2,-3,-7,-5,5,6,-1,-3
1558438841608770,-4,-5,-8,-14,-20,-1,-12,-3
1558438841608770,-2,1,2,2,0,4,4,2
1558438841620806,0,3,7,5,17,0,5,2
1558438841620806,-3,-4,-6,-2,-7,-1,-9,-6
1558438841629462,-1,-1,2,-2,-1,-4,5,5
1558438841629462,1,1,6,2,-1,2,1,0
1558438841643732,-4,-7,-7,-8,-13,-3,-8,-5
1558438841643732,-1,-1,-3,1,2,-6,-2,2
1558438841650461,-2,-3,-7,3,4,5,6,-5
1558438841650461,-1,0,2,-3,0,-9,-5,-1
1558438841674342,-1,-1,-3,4,-3,7,-5,-2
1558438841674342,2,0,8,5,4,0,5,3
1558438841676388,0,-1,5,-4,6,-3,1,4
1558438841676388,-2,-3,-6,-8,-9,-2,-4,-1
1558438841680651,1,0,2,2,-1,-8,3,0
1558438841680651,-3,-4,-4,-1,-5,-2,-4,-3
1558438841689301,0,6,6,7,5,3,-1,1
1558438841689301,1,-2,-8,-3,5,-5,-3,7
1558438841703594,-2,-2,0,1,0,-1,-9,-11
1558438841703594,-2,1,0,-5,-4,3,3,4
1558438841718224,0,0,-2,4,6,2,2,-2
1558438841718224,1,1,0,-3,4,6,-1,0
1558438841727512,1,1,7,4,-1,2,8,5
1558438841727512,-3,-5,-10,-7,-6,-5,-7,-6
1558438841728198,-3,-2,-2,0,-8,3,0,-2
1558438841728198,-4,-3,-12,-8,-7,-5,-7,-5
1558438841740472,0,-2,10,1,3,1,1,0
1558438841740472,-1,-1,-7,-6,-3,-10,2,-2
1558438841749321,-2,0,-2,0,-2,-3,-3,0
1558438841749321,0,3,4,2,7,8,6,1
1558438841763151,-1,-4,-8,-6,-12,-6,-4,5
1558438841763151,-2,0,2,4,-5,-7,-4,1
1558438841770084,-2,-1,0,1,-1,-8,-7,-12
1558438841770084,-2,-2,-3,-7,-4,0,2,-3
1558438841787039,-1,-5,1,-1,3,11,-1,0
1558438841787039,-1,-1,3,-1,-1,-2,-1,1
1558438841788038,2,-1,-2,-1,-1,2,-3,-1
1558438841788038,-1,2,10,9,2,-3,6,3
1558438841800004,-1,0,-11,-6,0,-6,-9,-8
1558438841800004,3,-1,-3,-5,-1,-3,9,6
1558438841809456,1,1,6,2,1,0,-2,-1
1558438841809456,-1,-4,-11,-5,-6,-3,-4,-3
1558438841824323,-1,0,4,4,-1,-2,1,-1
1558438841824323,0,-1,-1,-2,-4,-12,-5,-6
1558438841831219,-2,0,2,-2,2,4,-1,6
1558438841831219,1,0,4,2,5,9,1,-9
1558438841846879,-3,1,-8,-7,-9,-6,-4,-3
1558438841846879,2,1,5,2,2,-1,-3,11
1558438841853277,-3,-6,-4,-3,-5,0,4,-8
1558438841853277,-5,-8,-8,-12,-15,-12,-9,-3
1558438841860206,1,4,6,0,4,7,1,-1
1558438841860206,-1,-4,-4,1,1,3,4,1
1558438841868820,3,6,4,5,4,-13,-2,5
1558438841868820,-2,-4,-6,-5,-8,-9,-2,-5
1558438841883808,-5,-7,0,-4,-8,-6,-7,-1
1558438841883808,-1,3,8,1,1,8,-2,-4
1558438841890762,-6,-8,-22,-9,-3,-1,-6,-11
1558438841890762,-1,-2,0,3,4,-4,2,4
1558438841905749,3,1,2,0,7,12,8,7
1558438841905749,-1,0,-3,-4,-5,-3,-6,-5
1558438841912732,0,0,5,1,-8,-17,-1,-1
1558438841912732,0,0,0,6,1,-2,-5,-2
1558438841920694,-1,-3,-6,-10,1,5,1,0
1558438841920694,-3,0,6,3,1,5,-2,-5
1558438841929659,0,2,1,2,4,10,-1,4
1558438841929659,0,0,0,3,4,1,3,2
1558438841943619,1,1,2,7,7,-3,0,1
1558438841943619,-2,0,-6,-11,-12,-3,-6,-5
1558438841950603,-4,-6,0,-5,-8,-4,-6,2
1558438841950603,2,3,5,3,2,-2,1,0
1558438841965601,-1,-5,-6,1,0,5,1,-5
1558438841965601,-2,5,3,-1,-2,-5,-4,-3
1558438841972577,-2,-7,-10,-2,2,1,3,-3
1558438841972577,-1,-1,1,-2,1,9,-3,0
1558438841980999,-2,1,2,0,-3,-9,-1,-4
1558438841980999,6,4,5,5,10,2,10,6
1558438841989497,3,2,1,-4,-9,1,5,6
1558438841989497,-3,-1,-8,0,3,5,4,0
1558438842003915,-1,3,5,-2,-6,-3,-6,-4
1558438842003915,-4,-4,-8,-4,-7,1,-3,-2
1558438842010506,-2,-1,-5,-8,1,-5,-3,2
1558438842010506,-3,-5,-2,3,0,7,0,-7
1558438842026709,-2,1,1,-3,-4,-7,-2,3
1558438842026709,1,1,18,13,8,-9,2,9
1558438842032734,-5,-6,-25,-11,-9,4,-1,-10
1558438842032734,0,2,0,-5,-5,-3,-6,-2
1558438842049339,-3,-3,-2,-1,2,4,12,2
1558438842049339,0,-3,-2,3,4,-3,-5,-3
1558438842050335,0,4,8,3,4,0,1,5
1558438842050335,0,-1,-1,-6,0,-5,-3,1
1558438842063301,-1,-1,-4,-1,-1,-3,-3,-2
1558438842063301,-1,-4,-8,-5,0,9,4,-3
1558438842070629,-1,-1,6,3,0,2,-8,-9
1558438842070629,-1,-3,-4,-1,-9,-18,-3,3
1558438842086657,-4,-4,7,5,7,14,7,8
1558438842086657,-4,-3,-12,-4,0,-12,-2,-6
1558438842093579,1,1,7,1,3,2,0,1
1558438842093579,-1,1,-1,7,5,-2,-1,4
1558438842109178,-2,-2,-8,-16,-18,-9,-13,-12
1558438842109178,-1,-1,6,2,-2,13,3,1
1558438842111323,2,2,-3,1,7,6,10,1
1558438842111323,-3,-4,-4,-4,-10,-17,-7,-6
1558438842123469,4,-1,-2,4,4,-3,6,5
1558438842123469,-4,-3,-8,-6,3,8,-1,-3
1558438842130451,0,3,6,3,-1,1,-9,-8
1558438842130451,-2,2,-1,-7,-2,2,2,1
1558438842146391,0,-5,-1,3,7,-5,-7,-3
1558438842146391,0,0,1,1,-3,-4,-9,-4
1558438842153381,1,0,4,1,5,14,14,16
1558438842153381,-2,0,1,3,-7,-2,-6,-6
1558438842169022,0,6,4,-5,2,-6,0,0
1558438842169022,0,-2,-7,0,1,-2,3,-2
1558438842171014,-2,2,2,1,-4,-11,-7,-2
1558438842171014,-4,-6,-7,-7,-4,9,-1,-4
1558438842182980,-1,-2,-1,1,-9,-9,-6,-3
1558438842182980,-4,-4,-7,-4,0,11,0,0
1558438842189961,0,2,0,-1,4,-2,2,1
1558438842189961,2,3,14,6,4,-7,1,4
1558438842205917,-2,-2,-10,-3,-4,-3,0,-1
1558438842205917,-3,-4,-6,-6,-4,-7,-3,1
1558438842212899,-1,-2,-1,0,-8,2,-5,-9
1558438842212899,-1,-1,-3,-4,-2,1,-1,-1
1558438842228858,0,1,4,9,3,1,2,2
1558438842228858,-1,1,-1,-11,-14,-3,-8,-2
1558438842234842,-1,0,-2,-1,-2,-14,5,4
1558438842234842,2,-1,2,2,17,15,11,2
1558438842244172,0,0,-3,1,2,9,1,-2
1558438842244172,0,-2,0,3,0,-4,-2,-2
1558438842250195,-1,-2,1,-4,-10,-9,-11,-4
1558438842250195,-1,5,-2,-3,-6,-6,-4,-4
1558438842266792,-6,-10,-6,-5,-7,-3,-3,-7
1558438842266792,-5,-6,-2,3,3,-9,4,0
1558438842273083,2,1,2,-1,2,-4,3,3
1558438842273083,-1,0,2,4,7,1,0,-1
1558438842288924,0,1,-3,-2,-7,3,-7,-1
1558438842288924,1,4,-1,0,0,3,4,-2
1558438842290694,-2,-10,-7,0,0,5,-2,-1
1558438842290694,1,-1,11,-2,-1,7,3,4
1558438842303657,-3,-4,-11,-6,-7,-9,-6,-8
1558438842303657,1,5,14,4,6,8,1,-2
1558438842310649,-4,-3,-20,-5,-2,-9,-5,-2
1558438842310649,1,2,2,-4,-1,-5,9,6
1558438842326596,-2,-2,2,2,2,4,-3,0
1558438842326596,0,-1,2,2,0,6,4,0
1558438842332579,-1,1,4,0,1,3,-3,-6
1558438842332579,-1,0,-3,2,-1,3,-5,-2
1558438842349534,0,3,1,-5,-5,-11,2,3
1558438842349534,2,4,8,4,1,-1,-5,-2
1558438842350550,-4,-12,-16,-6,-6,-1,1,0
1558438842350550,-2,-2,3,0,-2,-2,-9,-4
1558438842363498,-1,0,-13,-2,5,14,6,1
1558438842363498,-3,-3,-8,-6,-4,-2,-3,-1
1558438842370858,2,2,8,6,11,-1,3,4
1558438842370858,-1,-1,-3,-5,-10,-6,-7,-11
1558438842386435,0,-3,3,-1,1,-1,2,2
1558438842386435,2,2,5,3,-3,-5,-1,1
1558438842392420,-3,0,-5,-2,-2,-2,-7,1
1558438842392420,-3,-8,-14,-1,-6,-3,2,1
1558438842409417,-3,-1,3,-4,-8,-3,-11,-7
1558438842409417,-1,-3,-7,-5,-6,3,1,-3
1558438842410372,1,4,10,5,9,-2,6,5
1558438842410372,1,-1,4,3,1,-3,-4,-5
1558438842423338,-2,0,-4,-6,-9,-7,-1,-2
1558438842423338,-4,-7,-6,-3,-6,-5,-2,1
1558438842430602,-2,4,10,5,6,20,7,-1
1558438842430602,-3,-3,-16,-8,-8,-2,-1,4
1558438842446277,0,-2,6,5,13,8,-1,-8
1558438842446277,0,-2,-4,-8,-8,-12,-1,2
1558438842460271,-2,2,3,2,1,-1,-3,-5
1558438842460271,-1,-2,-2,-7,-2,-9,3,3
1558438842469581,1,2,6,5,0,-11,-7,1
1558438842469581,-1,-3,-5,-3,0,3,-7,-5
1558438842470211,2,1,4,-1,-2,1,4,1
1558438842470211,-1,2,1,0,4,0,-1,0
1558438842483179,0,0,1,1,2,1,2,1
1558438842483179,-2,-3,-8,-4,-1,-7,0,-3
1558438842492153,-2,-4,-4,-6,-12,-6,-11,-6
1558438842492153,-3,0,5,8,8,13,5,-2
1558438842506116,0,0,-8,-8,-11,-13,1,1
1558438842506116,0,1,2,-2,3,8,-5,-1
1558438842513096,-2,3,-4,0,1,0,10,5
1558438842513096,-1,-1,-3,-1,-2,1,-5,0
1558438842529113,-1,1,9,7,2,-1,1,-1
1558438842529113,0,-3,-6,-4,1,-2,1,-4
1558438842530054,-2,-3,-6,-7,-8,-1,-9,-6
1558438842530054,-2,-2,3,0,-3,1,3,3
1558438842543017,0,-2,-6,0,-4,-12,-2,3
1558438842543017,-1,0,1,3,1,5,6,2
1558438842551994,0,-3,0,-1,-2,-7,-9,-3
1558438842551994,1,5,2,2,5,1,4,0
1558438842573935,-1,0,2,1,0,9,1,1
1558438842573935,-2,-3,-2,1,-1,-7,-3,-3
1558438842575930,-2,-2,5,-1,-5,-1,-1,-2
1558438842575930,-4,-7,-17,-14,-16,-6,-13,-10
1558438842588893,-3,-5,-1,-2,1,13,3,0
1558438842588893,2,3,11,3,2,-18,0,2
1558438842590889,-1,-2,-12,-8,6,3,2,2
1558438842590889,0,2,2,5,4,2,0,-5
1558438842602857,-2,-4,-6,-5,-4,6,-2,-5
1558438842602857,2,3,6,3,3,2,1,3
1558438842611834,-2,-6,-5,-2,-3,-7,-1,0
1558438842611834,-1,-2,5,-1,-6,-5,-5,5
1558438842626004,-3,1,-6,1,4,-2,-3,-11
1558438842626004,-4,-3,-8,-6,2,2,7,1
1558438842632905,0,3,9,5,-2,-2,-3,-3
1558438842632905,0,-4,-3,-6,-5,-1,0,0
1558438842649786,2,6,8,3,3,-1,3,4
1558438842649786,-3,-4,-5,-10,-10,-1,-8,-3
1558438842650730,-3,-1,-3,1,-3,-2,2,1
1558438842650730,-2,-6,-1,0,0,-2,0,-4
1558438842662696,-1,-1,0,-1,-7,-5,-7,0
1558438842662696,-2,-1,-6,0,-3,1,-4,-3
1558438842671672,4,3,1,2,6,2,0,3
1558438842671672,-2,3,8,2,9,18,10,3
1558438842685636,-1,0,-3,-3,6,2,-2,0
1558438842685636,0,-1,0,6,3,1,5,5
1558438842692618,-2,-1,0,-11,-9,-8,1,-4
1558438842692618,-1,-1,-12,-2,-4,-11,-5,-3
1558438842708744,-1,-5,-1,1,-2,-3,-4,2
1558438842708744,-3,-3,-2,-6,-12,6,-9,-12
1558438842710569,-1,0,-4,3,3,6,-3,0
1558438842710569,1,3,5,4,4,-10,3,-1
1558438842722538,-1,-3,-7,-10,-6,-6,-3,2
1558438842722538,-1,0,2,6,5,-3,1,-1
1558438842731512,1,-2,5,4,2,6,3,0
1558438842731512,0,0,-1,-5,0,0,-1,-1
1558438842745476,0,2,1,2,0,-3,-1,-2
1558438842745476,-2,-2,-3,-2,-3,4,-3,-2
1558438842752456,-4,-6,-5,-1,-3,-6,-3,-2
1558438842752456,-2,-1,-3,0,0,1,-4,1
1558438842768415,-1,-2,2,1,0,2,-2,-5
1558438842768415,1,1,0,0,6,6,7,5
1558438842775396,0,3,6,8,4,-10,3,2
1558438842775396,-2,-3,-2,-7,-9,-6,-6,-5
1558438842782378,-1,1,-5,3,0,1,1,0
1558438842782378,-1,-2,-2,0,-3,1,-5,-3
1558438842791354,-2,-2,3,-7,-5,2,-6,-5
1558438842791354,-5,-4,-16,-6,-11,-11,-5,-4
1558438842806437,-2,-1,-7,-4,2,2,-1,-3
1558438842806437,-2,-3,-3,1,5,10,3,1
1558438842812297,4,4,7,9,12,-2,8,5
1558438842812297,0,1,3,1,-1,-2,-3,-2
1558438842828255,3,0,6,-1,6,-3,3,5
1558438842828255,1,0,2,-2,1,-5,1,-2
1558438842835237,-3,-2,0,-3,-1,9,-1,-2
1558438842835237,-2,-3,-7,-1,-5,1,-4,-1
1558438842843216,-1,-2,-5,-8,-11,-17,-5,-2
1558438842843216,-2,-4,-1,0,-1,2,-1,-2
1558438842851197,-2,-1,-4,-3,-5,-8,-6,-3
1558438842851197,6,6,8,6,9,3,7,3
1558438842874133,-2,-5,1,1,2,2,2,1
1558438842874133,-2,1,-4,-2,-1,-3,-2,1
1558438842876129,-2,-3,-9,-8,-11,-1,-8,-5
1558438842876129,-4,-3,0,1,-5,0,-6,-4
1558438842888230,-1,0,-1,-1,1,3,2,1
1558438842888230,2,0,-1,-3,-4,-8,-2,-2
1558438842895142,-1,-3,-6,-3,-4,-4,-6,-3
1558438842895142,-2,-1,3,2,2,0,0,-1
1558438842903057,-2,-1,-1,-3,-2,-1,6,2
1558438842903057,0,0,2,3,8,0,-2,0
1558438842912031,0,0,0,-2,-8,3,-4,-3
1558438842912031,1,-1,-3,0,1,-4,3,2
1558438842925994,-4,-2,-5,-6,-3,5,-4,-5
1558438842925994,-3,-3,-4,1,-8,-10,-3,-2
1558438842932975,-2,-2,-1,4,9,1,3,2
1558438842932975,-3,-4,-5,-10,-7,-2,-6,-2
1558438842947934,0,0,5,0,-5,1,-3,-3
1558438842947934,-1,-2,-9,-2,0,-1,1,2
1558438842954918,0,0,-1,-4,-3,-8,2,0
1558438842954918,3,2,8,10,5,0,3,2
1558438842971869,-1,-3,-2,-1,2,6,6,3
1558438842971869,-2,-4,1,-2,-2,-7,-5,-4
1558438842972868,-2,1,-3,-2,-4,2,-4,-1
1558438842972868,-2,-4,-2,-3,-2,3,-3,-3
1558438842985833,1,2,1,0,-1,-3,-1,-1
1558438842985833,0,2,1,-1,2,-3,1,0
1558438842992815,-1,-3,-7,-4,1,1,2,-1
1558438842992815,2,1,0,0,1,1,1,-1
1558438843008771,-3,-5,1,-3,-7,0,-12,-5
1558438843008771,-1,-1,1,2,0,11,6,1
1558438843014757,4,2,-3,5,14,-11,9,7
1558438843014757,-2,-3,-10,-7,-6,-5,-2,-3
1558438843031709,-3,-4,-14,-7,-3,-1,1,1
1558438843031709,-3,-1,3,-3,-2,7,-1,-2
1558438843032707,-2,-8,-3,-3,-7,-3,-8,-5
1558438843032707,2,0,8,5,6,1,3,-1
1558438843045672,2,7,5,10,3,2,4,-2
1558438843045672,-1,-6,-3,-12,-10,-20,-7,-1
1558438843052654,-1,-2,-1,0,-1,5,2,-1
1558438843052654,-2,-2,0,-3,-1,1,-3,-2
1558438843068611,0,1,4,4,4,5,-4,-3
1558438843068611,-4,0,-6,2,3,4,-1,-1
1558438843075593,-2,-4,-5,-6,-4,2,-1,-2
1558438843075593,0,-1,0,-4,0,7,1,2
1558438843091550,-2,-3,-6,1,-2,2,2,-1
1558438843091550,6,5,7,5,3,-14,1,0
1558438843093550,-3,-3,-4,-6,-10,-9,-3,-5
1558438843093550,-4,-1,9,4,5,5,1,-2
1558438843105512,-2,-3,-8,-7,-2,-1,4,1
1558438843105512,-1,-2,-4,-1,3,6,0,-3
1558438843112494,1,3,3,2,0,8,1,-1
1558438843112494,0,4,5,6,3,-17,-2,1
1558438843128452,-2,0,-5,-15,-9,-4,-4,-3
1558438843128452,-1,-2,2,2,-4,7,-2,-3
1558438843135434,-3,-3,-4,-2,-5,1,2,1
1558438843135434,0,-2,-7,-3,-2,1,-3,-2
1558438843151393,3,0,3,5,5,-10,-1,2
1558438843151393,0,2,-1,-2,-2,-3,-3,0
1558438843153384,-1,2,2,-2,-3,0,-2,-3
1558438843153384,-5,-9,-1,-5,-11,-3,-7,-4
1558438843166349,3,1,1,2,8,-1,8,3
1558438843166349,-2,-4,-13,-7,-6,-5,-2,1
1558438843172335,2,2,8,4,8,3,1,0
1558438843172335,-3,-3,-8,-3,-3,6,0,-4
1558438843188291,0,0,6,4,-3,-4,-8,-2
1558438843188291,-3,0,3,0,0,6,1,-1
1558438843195275,-1,-1,-2,-1,-5,-7,-2,-1
1558438843195275,1,0,1,1,5,-1,6,3
1558438843211230,-2,0,5,5,8,5,-2,0
1558438843211230,-1,0,-7,-2,1,-1,1,0
1558438843213224,-2,-3,-4,-5,-10,-8,-7,-2
1558438843213224,3,3,4,9,12,11,6,3
1558438843226190,-6,-11,-11,-8,-8,-7,-3,-9
1558438843226190,0,5,7,6,4,4,-2,-1
1558438843240152,-6,-10,-13,-16,-18,-7,-7,-7
1558438843240152,1,2,2,4,0,-4,-3,0
1558438843248131,1,0,1,-5,-2,-11,-4,3
1558438843248131,0,-2,4,0,2,9,1,-1
1558438843255112,3,2,6,8,6,6,4,3
1558438843255112,0,3,-6,0,2,6,6,1
1558438843272067,-2,-7,-2,-3,-7,-7,-6,-2
1558438843272067,-2,0,-3,-6,-13,-15,-8,-5
1558438843273065,-1,3,3,4,9,2,6,2
1558438843273065,-3,-6,-8,-7,-2,-1,0,-1
1558438843286033,-1,1,-1,5,1,5,0,-1
1558438843286033,-3,-4,0,-3,-1,-1,-2,-2
1558438843293012,3,1,6,5,10,5,0,1
1558438843293012,2,2,-3,-5,-8,-11,-4,-2
1558438843308967,0,3,3,3,2,0,1,1
1558438843308967,-3,-6,-4,-4,-2,0,3,1
1558438843314956,-2,-4,-9,-4,-10,-10,-7,-4
1558438843314956,-2,-1,6,0,2,0,-2,-2
1558438843331907,4,2,-5,-6,-8,-1,0,-1
1558438843331907,0,-1,-1,1,3,4,2,-2
1558438843332905,-2,-1,2,1,5,6,-1,-1
1558438843332905,-1,2,5,0,-5,-7,-3,4
1558438843345871,-2,-3,-8,-4,-3,-14,-2,0
1558438843345871,4,5,8,6,10,6,8,1
1558438843352851,-3,-7,-9,-6,-1,3,1,-4
1558438843352851,1,7,3,0,-2,0,-3,-4
1558438843368810,-4,-5,1,2,0,12,1,-3
1558438843368810,1,0,-1,-5,-7,-18,-7,3
1558438843374792,2,1,6,3,3,4,-2,-1
1558438843374792,-2,-6,-9,-4,-8,-5,-6,-5
1558438843391749,0,2,5,2,8,1,7,4
1558438843391749,0,-3,-9,-5,-4,-4,-2,-1
1558438843392745,-2,1,3,2,-1,-1,-1,0
1558438843392745,-9,-8,-6,-4,-12,-11,-9,-5
1558438843405709,0,2,-2,1,2,15,6,1
1558438843405709,0,2,-1,1,2,-3,1,-1
1558438843412691,-1,3,2,-2,-2,-4,-2,-4
1558438843412691,-1,-3,-2,1,4,9,5,0
1558438843428650,-4,-3,-2,-7,-15,-11,-9,-7
1558438843428650,-1,0,1,0,-2,-6,2,1
1558438843435629,4,4,11,8,17,17,9,7
1558438843435629,0,-1,-4,-1,-1,-1,-5,-3
1558438843451587,0,5,0,-3,-1,-8,-2,-1
1558438843451587,-5,-12,-12,-1,-7,-2,-6,-5
1558438843452584,-1,-2,-6,-13,-10,-11,0,-1
1558438843452584,-1,-4,-1,-2,2,1,1,1
1558438843465552,1,-2,4,2,5,6,3,2
1558438843465552,-2,1,-1,-2,-3,-6,-2,-2
1558438843474526,-2,-2,-1,0,-2,-1,-5,0
1558438843474526,-1,0,-2,-3,-6,1,-4,-2
1558438843488490,0,3,0,3,10,0,6,3
1558438843488490,0,-5,0,-3,-4,5,-1,-3
1558438843495470,0,-1,-5,-1,-3,-2,-1,3
1558438843495470,0,1,2,4,7,-1,2,-6
1558438843511427,-3,-6,1,-5,-6,5,-1,-2
1558438843511427,2,3,2,-2,3,1,-3,-1
1558438843513421,-3,-1,-11,-3,-7,-1,-4,-3
1558438843513421,0,-2,-5,-2,-3,-7,-6,-2
1558438843525389,-1,-2,-1,-7,0,-2,-3,1
1558438843525389,-1,3,6,4,8,13,5,4
1558438843541347,-1,-2,-3,-2,-3,-15,-5,-3
1558438843541347,-1,0,3,-2,1,1,3,3
1558438843549327,0,0,5,6,3,6,-1,-6
1558438843549327,-1,-4,-10,-5,-8,-4,-4,-4
1558438843556308,-6,-5,-5,-6,-8,-7,-5,-1
1558438843556308,0,2,-2,2,2,6,2,-3
1558438843571277,3,2,0,4,5,-5,6,5
1558438843571277,-3,-4,2,0,2,-2,2,-1
1558438843573263,1,5,5,7,8,2,2,-4
1558438843573263,-3,-8,0,-5,-8,2,-4,-1
1558438843585229,-4,-3,-6,-4,-8,-2,-8,-2
1558438843585229,-1,1,1,1,-2,-10,-5,-3
1558438843594205,-2,-5,-7,-6,-9,1,0,-2
1558438843594205,0,1,7,2,3,-2,-1,3
1558438843608172,3,1,-1,2,3,-14,2,1
1558438843608172,-1,0,2,-2,-7,-2,-3,-1
1558438843623131,-6,-6,-12,-4,-3,-1,0,-1
1558438843623131,1,2,0,1,7,9,4,0
1558438843631109,-5,0,-4,-1,-3,8,-1,0
1558438843631109,-2,0,6,3,-3,-4,-4,0
1558438843633101,-1,-1,-4,-2,-2,-4,-4,-4
1558438843633101,0,-2,-1,1,6,2,1,-2
1558438843645070,-3,-4,-3,-2,-5,-1,-4,-2
1558438843645070,2,-1,-2,-6,-6,0,-3,2
1558438843654045,1,3,6,1,5,8,8,-2
1558438843654045,2,2,0,-2,8,-4,0,3
1558438843668012,-2,-5,-1,-2,-7,-3,-4,2
1558438843668012,-1,-1,-4,0,3,2,2,-3
