timestamp,emg1,emg2,emg3,emg4,emg5,emg6,emg7,emg8
1558438982347848,-2,-6,-10,-10,2,4,2,1
1558438982347848,-2,-1,-3,4,-9,-9,-5,0
1558438982348845,-3,-3,-4,0,1,3,1,-3
1558438982348845,2,0,4,-4,4,7,-1,1
1558438982348845,1,3,-2,3,1,0,2,-3
1558438982348845,-2,-8,-3,3,6,-1,-2,3
1558438982349843,1,3,-1,-3,-5,-5,-3,-2
1558438982349843,-3,-3,-4,-2,0,1,0,-4
1558438982369789,-1,2,6,2,-2,1,-2,1
1558438982369789,0,-2,-5,-4,-5,-6,-4,-3
1558438982370785,-2,-2,1,-5,-8,-8,-3,-1
1558438982370785,1,-1,-2,3,-1,-1,1,0
1558438982376770,2,2,0,1,1,0,1,4
1558438982376770,-1,-2,-1,-5,5,6,-2,-2
1558438982391729,0,-4,-6,0,-5,-8,-5,-3
1558438982391729,2,4,3,3,6,4,3,1
1558438982398711,-3,-4,2,-3,0,10,0,-3
1558438982398711,1,3,-2,-1,-2,-13,-1,1
1558438982405691,-1,-2,0,0,-2,-6,-2,-1
1558438982405691,-4,-4,-9,-7,-14,-6,-10,-5
1558438982428631,-2,-6,-5,-2,2,-3,-1,-3
1558438982428631,1,4,6,1,4,1,7,0
1558438982429627,-2,0,1,1,0,-9,-4,0
1558438982429627,-2,-1,-1,-3,-3,0,4,2
1558438982475505,0,-1,-3,0,6,-4,0,0
1558438982475505,-1,0,-3,-8,-1,5,2,-3
1558438982476503,0,3,5,6,2,7,3,0
1558438982476503,-3,-7,-10,-4,-3,2,-2,-1
1558438982477500,-2,-3,-1,-3,0,0,-3,-1
1558438982477500,2,-1,0,4,-2,-8,3,2
1558438982480493,-4,-1,0,0,-6,0,-1,-2
1558438982480493,-1,-1,4,-2,5,4,7,1
1558438982488469,0,1,0,0,-3,1,0,-2
1558438982488469,-1,-5,-9,0,4,0,2,3
1558438982496448,1,-1,-3,-5,-4,-5,-4,0
1558438982496448,2,2,3,-2,-6,-8,-11,-3
1558438982503431,-3,-4,-7,-2,-5,2,-1,-2
1558438982503431,-2,-2,1,-4,-2,-2,0,0
1558438982518391,0,-3,1,2,4,5,4,0
1558438982518391,-1,0,-3,-2,1,0,2,0
1558438982525372,-4,-2,2,-1,-4,-2,-6,-2
1558438982525372,-4,-3,-7,-6,-7,-3,-3,-6
1558438982534348,-4,-2,0,-1,-2,-16,-9,-5
1558438982534348,-1,1,-2,3,8,10,6,2
1558438982548309,0,2,5,1,1,4,6,0
1558438982548309,1,-2,2,0,1,2,2,-1
1558438982557287,-3,-3,-5,-2,-2,0,0,1
1558438982557287,-1,1,2,1,0,-16,-3,0
1558438982563270,-2,-5,-2,-5,-4,-1,-7,-1
1558438982563270,1,3,4,4,5,9,0,-1
1558438982578230,-5,-1,-1,-3,-4,0,-1,-4
1558438982578230,0,1,4,-1,-6,-3,-2,-2
1558438982585211,1,-3,-10,-2,4,-7,1,0
1558438982585211,0,-2,1,0,-5,-9,-10,-3
1558438982594202,3,1,0,-3,1,6,5,1
1558438982594202,-1,-2,0,2,11,4,6,4
1558438982608150,-3,-2,2,0,-4,-3,-4,-5
1558438982608150,-1,-2,4,-1,-5,-2,-5,-2
1558438982625105,-3,-3,-13,-8,-8,-1,-3,-1
1558438982625105,-3,-2,0,1,-1,-1,-3,-4
1558438982626103,3,2,-1,1,4,-16,0,4
1558438982626103,-3,0,-2,-1,2,0,-3,-2
1558438982646050,-3,-2,5,-1,-5,-1,-4,-2
1558438982646050,-3,-1,2,-3,-5,3,-4,-2
1558438982647047,-2,-3,-8,-4,-1,-2,-2,0
1558438982647047,-1,1,0,-1,1,1,4,1
1558438982660011,1,0,1,2,4,-2,-3,-1
1558438982660011,-3,0,-1,-4,-6,-7,-6,-3
1558438982667991,1,0,4,0,-2,2,2,-2
1558438982667991,-4,-7,1,3,0,-10,-1,-1
1558438982683947,-1,-1,-3,-2,0,3,4,2
1558438982683947,2,2,4,3,8,6,6,1
1558438982683947,-2,1,-4,-2,-3,9,-3,-2
1558438982683947,-3,-2,-7,-3,-5,-1,-2,-1
1558438982697911,3,2,3,3,1,-21,-6,-2
1558438982697911,0,-4,-8,-6,-6,12,4,0
1558438982705889,-1,2,4,3,6,6,2,0
1558438982705889,-2,4,0,-1,-3,2,-4,-3
1558438982720850,-2,-2,-1,-3,-1,2,-2,-2
1558438982720850,-1,-2,-2,-1,-2,-7,-5,1
1558438982727830,0,0,7,0,-2,-3,0,-1
1558438982727830,-3,0,-6,1,2,-3,1,1
1558438982736806,1,0,7,-2,-3,0,-1,-1
1558438982736806,-2,-4,-8,-5,-5,0,-1,-3
1558438982742791,0,-1,-5,-1,-2,-1,-1,0
1558438982742791,3,3,4,3,10,12,3,2
1558438982757750,-1,-5,-1,2,1,-2,-1,0
1558438982757750,-2,-2,-1,-1,-4,1,-3,-2
1558438982765729,0,1,1,-1,-3,-10,-6,-1
1558438982765729,-1,-1,1,0,0,3,6,1
1558438982780688,-2,1,-1,-8,-7,-5,-3,1
1558438982780688,-3,-2,-4,-1,0,4,-2,-4
1558438982787671,-1,0,1,2,-1,2,2,-2
1558438982787671,0,-1,-4,-1,3,-6,-2,-1
1558438982796646,0,-1,-5,-3,3,9,1,0
1558438982796646,-2,0,1,1,-4,-9,-6,-5
1558438982802631,-1,5,0,-4,-6,-5,-1,-1
1558438982802631,-1,-4,0,-3,-5,0,1,-3
1558438982817591,0,-1,-3,0,2,4,0,-1
1558438982817591,1,1,0,2,2,-6,-3,0
1558438982825569,0,0,2,-1,1,6,0,0
1558438982825569,-4,-5,-15,-8,-18,-13,-11,-4
1558438982840528,-4,-4,-9,-2,-5,-7,-6,-7
1558438982840528,1,-1,-1,-5,-3,-8,-3,0
1558438982847512,3,5,13,9,22,12,12,9
1558438982847512,-1,-1,-8,-5,-6,-9,-4,-2
1558438982856485,-1,0,1,1,0,0,3,0
1558438982856485,-1,-1,1,1,-4,1,2,-1
1558438982862471,-1,0,-5,-1,-5,1,-5,-5
1558438982862471,0,-3,3,-4,-3,2,0,-1
1558438982878427,1,1,-1,0,3,5,2,0
1558438982878427,-1,-1,3,2,3,-1,5,3
1558438982885412,-2,-4,-3,-2,-5,-6,-3,-2
1558438982885412,-4,0,1,2,0,4,-2,-2
1558438982900369,-2,-1,0,-4,-1,-1,-1,-1
1558438982900369,-1,1,3,1,6,0,2,0
1558438982908348,-1,-4,-2,-1,-3,-4,-1,-3
1558438982908348,0,-1,0,-3,-6,-9,-7,-3
1558438982917340,-1,-3,-7,-4,-1,9,-1,-1
1558438982917340,1,1,-4,1,-6,-5,-8,-4
1558438982931286,-2,-1,-6,-3,-4,-5,-1,-3
1558438982931286,-1,-1,5,4,18,14,10,4
1558438982938267,1,1,2,3,-4,-6,-1,0
1558438982938267,0,-2,-5,-4,7,14,5,0
1558438982945249,-4,-1,-1,-2,-6,-4,-3,-1
1558438982945249,3,3,0,2,5,-2,0,0
1558438982960209,0,-3,-4,-5,-5,-7,-5,-1
1558438982960209,0,-1,2,-1,-7,0,-3,-3
1558438982968188,-2,-2,-1,-1,-5,-8,-5,1
1558438982968188,-2,1,0,4,5,1,4,2
1558438982977162,0,1,5,5,4,0,0,0
1558438982977162,-3,-3,-3,-6,-9,-4,-6,-2
1558438982991129,0,-4,-7,-4,1,-5,-3,2
1558438982991129,3,2,7,0,3,0,-3,-2
1558438982998108,0,0,-7,0,2,-1,2,-1
1558438982998108,0,-1,0,2,0,-5,-1,-2
1558438983014064,-4,-1,1,1,1,8,-1,-2
1558438983014064,-2,-1,-2,-8,-18,-8,-10,-2
1558438983020048,-2,-3,-6,-1,2,-3,1,0
1558438983020048,2,0,6,1,0,-5,4,0
1558438983028026,-2,-8,-8,-5,-4,-4,-1,-4
1558438983028026,-3,0,3,2,3,14,6,-3
1558438983037003,-1,2,1,0,2,-3,-1,3
1558438983037003,0,1,-5,-3,-2,-13,-1,3
1558438983050967,1,-2,2,0,-1,3,-3,-4
1558438983050967,-1,-2,2,1,-5,-3,-4,-2
1558438983057947,0,2,1,-1,6,2,-2,1
1558438983057947,-3,-3,-3,-1,1,-4,1,-1
1558438983065926,0,1,4,4,2,2,1,-1
1558438983065926,-5,-5,-13,-12,-16,-16,-9,-2
1558438983080885,0,0,3,2,5,10,4,0
1558438983080885,-1,-3,-4,-1,-2,-3,1,0
1558438983087871,-1,1,2,1,-5,-1,-1,-3
1558438983087871,2,3,3,1,4,-6,-2,0
1558438983096843,0,0,0,-3,-12,-10,-6,-3
1558438983096843,-2,-8,-4,-1,-5,5,-6,-4
1558438983119781,1,1,3,-1,12,10,9,4
1558438983119781,0,0,-5,1,12,3,2,2
1558438983120779,-3,-3,-1,-3,-11,-8,-10,-7
1558438983120779,0,0,-5,0,2,7,0,-1
1558438983125766,1,1,2,0,-1,7,2,-2
1558438983125766,2,2,6,1,-8,-8,-5,1
1558438983140726,-1,-3,-9,-2,6,6,6,1
1558438983140726,-4,-2,-8,-5,-2,-10,-6,3
1558438983147707,0,0,0,-2,-3,-2,0,-2
1558438983147707,-1,-1,1,1,4,2,2,-4
1558438983156683,-2,-2,-3,-7,-7,-4,0,-3
1558438983156683,-2,-2,-3,-4,-6,5,-6,-5
1558438983171643,-3,-3,-6,-4,-1,2,0,-1
1558438983171643,2,3,6,3,4,-2,3,4
1558438983177627,-1,-2,0,0,-5,-3,1,-1
1558438983177627,2,5,3,4,10,0,3,3
1558438983185605,-1,3,-2,0,2,0,-4,0
1558438983185605,-3,-6,-4,-1,-2,9,-3,-6
1558438983200566,-2,-2,4,1,-4,-5,-6,0
1558438983200566,1,-1,-2,-1,2,9,5,2
1558438983207547,-1,0,0,-3,-8,-4,0,-1
1558438983207547,0,-1,-5,1,5,-3,2,-1
1558438983216523,2,-1,-1,0,-3,-12,-1,0
1558438983216523,0,1,1,1,5,5,-7,-4
1558438983231483,-2,1,-2,-7,-1,10,8,1
1558438983231483,-2,-2,-3,-4,-3,-9,-3,0
1558438983237467,1,0,4,3,-1,-3,-2,1
1558438983237467,-2,-2,9,-1,-5,-9,-4,-4
1558438983245446,-3,-9,-22,-5,-4,-3,-7,-3
1558438983245446,-2,1,0,-2,-4,2,2,1
1558438983260405,-1,-2,-3,-4,-3,-7,-1,-2
1558438983260405,-1,4,4,1,4,5,5,1
1558438983268385,1,1,5,7,3,-4,-2,1
1558438983268385,1,-2,3,-1,-2,5,-1,-2
1558438983277361,-4,-6,-2,0,-2,-4,-4,0
1558438983277361,-1,0,-1,-3,-3,-7,-5,-2
1558438983291323,-1,1,-4,-1,0,2,-2,-4
1558438983291323,-2,0,3,1,2,4,0,1
1558438983298305,1,0,-7,-3,-4,1,-3,0
1558438983298305,0,2,-2,0,-1,1,2,2
1558438983305285,-2,-2,-1,-3,-7,-10,-4,-1
1558438983305285,2,4,4,0,-6,-9,-3,-3
1558438983320245,-2,-3,-1,-1,6,11,0,-4
1558438983320245,-1,-6,-4,-1,-2,-1,-2,-1
1558438983328224,3,-1,5,-2,-7,-13,-1,-2
1558438983328224,-1,-1,0,3,7,11,3,1
1558438983337200,1,3,2,0,5,-3,3,-1
1558438983337200,1,2,0,-4,-6,-1,1,-2
1558438983351164,0,-2,0,0,5,5,-2,-2
1558438983351164,-2,-3,-3,1,-2,0,2,0
1558438983358143,-1,0,-3,-2,2,2,-1,1
1558438983358143,-1,-2,-3,-4,-9,-6,-2,-2
1558438983365128,-1,-1,2,-1,2,6,1,0
1558438983365128,-3,-5,-1,0,5,7,2,1
1558438983380085,-2,1,3,2,-2,-3,-3,-2
1558438983380085,-2,-1,0,2,0,-1,1,0
1558438983388063,1,1,0,-1,0,-1,-2,-2
1558438983388063,1,0,-5,-3,-1,-6,-2,-2
1558438983397040,-2,-4,0,-1,-4,3,-2,-5
1558438983397040,0,-2,2,-2,-5,-6,-12,0
1558438983411003,1,0,0,3,15,15,8,4
1558438983411003,-2,-4,-7,-5,-3,-3,-4,0
1558438983417984,3,1,-1,1,1,8,5,1
1558438983417984,-3,3,-9,-7,-9,0,-1,-3
1558438983425962,-6,-6,-2,-1,-11,-16,-7,-4
1558438983425962,1,2,2,1,0,-5,-1,-2
1558438983448901,-1,0,3,1,-4,-1,2,-2
1558438983448901,4,1,6,6,12,2,5,0
1558438983448901,0,0,-2,-5,-9,-3,-3,-2
1558438983448901,-4,-4,-8,-6,-8,-2,-5,-6
1558438983462863,-6,-8,0,2,5,1,0,0
1558438983462863,-2,0,4,1,2,0,-2,-3
1558438983470843,-4,-4,-5,-2,-3,0,-1,0
1558438983470843,2,5,5,5,-6,-11,-1,1
1558438983485801,0,3,-6,-5,1,1,-3,0
1558438983485801,-3,-5,-5,-3,-4,-7,-5,-3
1558438983486799,1,1,-2,4,4,6,1,-1
1558438983486799,-3,-2,0,-4,-7,-7,-8,-5
1558438983500763,0,0,0,-4,-4,2,4,2
1558438983500763,-1,1,3,3,7,4,6,2
1558438983507746,1,-1,5,0,-5,-7,-5,-2
1558438983507746,-6,-6,-15,-11,-11,-2,-3,-2
1558438983522733,0,0,5,2,1,-5,1,0
1558438983522733,-3,-3,-4,0,3,10,1,-1
1558438983530719,-3,-1,3,-3,-2,4,-5,-2
1558438983530719,4,2,8,5,3,-1,5,1
1558438983546638,-2,0,-7,-2,-5,-6,-10,-5
1558438983546638,-2,-3,0,-2,-5,-6,-2,-2
1558438983546638,0,1,0,1,6,-3,3,1
1558438983546638,3,0,6,2,5,6,3,1
1558438983560601,1,3,-1,-3,-4,0,-3,1
1558438983560601,-1,-6,-4,-1,1,3,3,-1
1558438983567613,-1,1,2,0,-3,-7,-3,-3
1558438983567613,-4,-5,-10,-7,-1,3,-3,-2
1558438983582577,1,0,4,2,-5,-3,-1,-2
1558438983582577,2,0,3,3,-4,-1,-3,-1
1558438983591519,0,-4,-1,-1,-4,-2,-2,-1
1558438983591519,-2,-1,-6,-2,9,17,7,1
1558438983606479,-1,1,1,-2,-6,-12,-10,-4
1558438983606479,-2,-4,-5,0,-9,-3,-1,-2
1558438983606479,0,0,2,-2,5,2,8,3
1558438983606479,1,0,1,2,3,3,1,1
1558438983628420,0,-4,-3,1,3,5,3,0
1558438983628420,-2,-4,-3,-4,-5,-3,-2,-4
1558438983629417,-2,-2,-6,-4,-8,-8,-3,-2
1558438983629417,-1,3,2,1,1,0,-4,-4
1558438983643382,0,-2,0,-3,4,-2,5,3
1558438983643382,0,-1,1,4,5,-6,3,1
1558438983651360,1,3,-2,1,-1,-8,-3,0
1558438983651360,-3,-4,-3,-1,-7,-8,-3,-2
1558438983666321,0,0,-4,-6,-7,-4,-2,-2
1558438983666321,1,4,1,-1,5,0,1,-1
1558438983667319,-1,-3,-4,-1,1,5,-1,1
1558438983667319,-2,-3,-2,-3,-9,-5,-7,-3
1558438983688262,-2,0,6,1,5,12,-4,-5
1558438983688262,-3,-4,-12,-5,0,-7,0,0
1558438983689258,0,0,-1,1,0,-6,-5,-1
1558438983689258,-1,-2,-2,-2,-6,-9,-2,-2
1558438983703220,-1,0,5,7,5,5,8,2
1558438983703220,1,-1,2,-2,-2,-5,-5,-2
1558438983710203,-2,-5,-9,-5,0,4,1,-2
1558438983710203,0,1,0,-2,-1,5,5,2
1558438983726158,-3,-5,-9,-2,-4,-2,-6,-4
1558438983726158,1,5,7,1,3,2,7,3
1558438983727155,0,1,-2,-1,-4,-6,-1,1
1558438983727155,-3,-3,-5,-3,-1,1,-7,-4
1558438983740125,-5,-6,-2,-2,-2,-4,-3,-2
1558438983740125,-2,1,3,0,5,5,1,-1
1558438983748100,-2,-1,-2,0,-5,1,-5,-4
1558438983748100,2,4,7,2,-2,-5,4,1
1558438983763061,-1,-3,-4,-3,4,2,-1,0
1558438983763061,-2,-3,-4,-3,-1,1,-6,-2
1558438983770041,-1,-2,1,3,4,4,3,2
1558438983770041,1,0,3,3,-4,-6,-3,-2
1558438983785999,-1,1,0,0,-4,-1,0,-1
1558438983785999,-3,-1,-4,-2,-2,6,-3,-2
1558438983786996,-5,-3,-2,-2,4,4,-2,-2
1558438983786996,-3,-5,-3,-6,-4,-3,-4,-2
1558438983799962,2,0,2,3,-3,-8,0,0
1558438983799962,1,1,0,-4,-8,-12,-6,-2
1558438983807942,2,0,6,4,7,16,4,1
1558438983807942,-1,-2,-5,-4,2,3,0,0
1558438983822900,-1,1,-7,-2,0,2,2,0
1558438983822900,-2,-1,-3,-2,-6,2,-6,-5
1558438983830879,-1,-4,2,1,-2,-12,-2,-1
1558438983830879,-1,-2,-3,-2,2,2,-1,0
1558438983845839,0,4,8,0,2,3,5,1
1558438983845839,-1,-1,0,-1,1,0,-1,1
1558438983853818,-3,-4,-11,-6,-5,-2,-4,-4
1558438983853818,-1,0,3,3,3,0,2,0
1558438983860798,-1,-1,-2,-5,-6,-1,-4,-5
1558438983860798,-3,-2,-4,-2,-4,-2,-3,-3
1558438983867780,2,3,7,2,5,6,6,2
1558438983867780,-1,-3,-9,-1,0,-8,2,1
1558438983890718,0,0,1,-1,7,3,-1,2
1558438983890718,1,-1,1,0,-5,-5,-1,-1
1558438983891723,-1,-4,0,-4,-12,-11,-7,-2
1558438983891723,-1,0,-3,2,9,7,2,0
1558438983905678,-4,-3,-4,-6,-3,0,2,-3
1558438983905678,-4,-5,-5,0,0,3,-4,1
1558438983913657,-1,-3,-3,-5,-6,-13,-3,-1
1558438983913657,-1,1,6,2,0,-1,3,1
1558438983920638,-2,-3,1,3,-1,-5,-3,0
1558438983920638,1,1,2,-2,-2,5,0,-1
1558438983927619,-2,1,1,-1,1,-1,1,-1
1558438983927619,2,1,-2,0,9,13,5,3
1558438983942580,-6,-7,-2,-2,-5,-12,-5,-2
1558438983942580,1,-1,2,-2,0,0,2,2
1558438983950559,-1,2,-1,0,-4,-2,-2,-2
1558438983950559,-1,0,4,1,-6,-4,-5,-5
1558438983965518,-3,-1,-2,0,3,3,0,1
1558438983965518,0,-2,1,1,5,5,2,0
1558438983973497,-2,-2,-8,-6,-8,-8,-5,-4
1558438983973497,-1,-2,-2,-6,-8,-3,-8,-4
1558438983980478,1,1,5,4,10,10,7,4
1558438983980478,-2,-3,-8,-1,-6,-21,-5,-4
1558438983987460,-1,1,-1,-2,-3,-4,-5,-1
1558438983987460,0,-4,1,2,6,4,3,4
1558438984003418,-2,-2,-4,-2,-4,2,-4,-2
1558438984003418,-1,3,9,2,0,4,2,-3
1558438984010399,0,-2,-2,0,-4,-12,-3,-2
1558438984010399,-2,3,-2,-2,-3,-3,-4,-4
1558438984025391,0,-2,-8,-5,-6,-4,-7,-1
1558438984025391,0,-7,-3,-3,2,1,2,3
1558438984033337,0,0,0,0,3,4,1,0
1558438984033337,-3,0,3,2,-4,-1,-3,-3
1558438984048298,1,2,2,-2,4,0,5,1
1558438984048298,-1,2,1,1,-3,-9,-5,-2
1558438984049295,-1,-5,-7,-4,3,7,-1,-2
1558438984049295,-3,-2,0,1,0,-2,2,0
1558438984063257,-1,0,1,-3,-1,4,0,-3
1558438984063257,-1,-2,2,-2,-3,-2,-2,-3
1558438984070238,-4,-2,-6,0,10,13,4,1
1558438984070238,1,3,2,0,-2,-11,-4,1
1558438984085199,-2,-5,-7,-1,-5,-6,-7,-4
1558438984085199,-2,-1,-1,1,1,-1,6,4
1558438984093176,0,-1,0,1,3,3,-3,-3
1558438984093176,-1,-1,-3,-5,-4,4,3,-1
1558438984108137,2,-2,-4,1,9,-1,5,2
1558438984108137,1,-1,0,0,1,1,-4,0
1558438984109135,-2,1,2,0,-6,-3,0,0
1558438984109135,0,-5,0,-1,1,-1,0,0
1558438984123098,1,1,-2,2,2,0,-4,-3
1558438984123098,-2,-3,-4,-2,0,5,3,-2
1558438984139061,-4,-3,1,0,0,-9,-2,-2
1558438984139061,-2,-2,-6,-4,-6,-4,-5,-2
1558438984147037,0,1,6,2,2,7,4,0
1558438984147037,3,-1,-11,-8,6,3,6,2
1558438984154016,-1,0,9,3,-7,-11,-3,1
1558438984154016,-3,0,-5,-1,0,-8,-6,-4
1558438984169083,-3,1,1,-6,-8,-4,0,0
1558438984169083,-1,1,-3,4,8,10,2,1
1558438984169083,-1,-2,-1,-4,-5,1,-1,-2
1558438984169083,-1,-4,-1,-1,-4,-9,-1,-3
1558438984182980,-1,-3,-1,-2,-2,3,-2,-1
1558438984182980,-1,-1,-4,-3,-5,0,-2,0
1558438984190917,2,0,1,-1,3,4,4,0
1558438984190917,1,2,2,-2,-5,-2,-5,-3
1558438984205878,-4,-1,-6,-2,-2,-7,-4,-2
1558438984205878,-1,-3,0,-3,-8,-7,-7,-3
1558438984213859,2,1,-1,2,4,1,2,2
1558438984213859,-2,-2,-5,-1,2,-4,1,-1
1558438984228844,-2,0,2,-1,-6,1,-1,-1
1558438984228844,-2,-2,2,-1,3,8,4,2
1558438984229811,-1,0,0,-1,-1,-3,1,-3
1558438984229811,1,0,-1,0,-2,0,-4,-2
1558438984242780,-2,2,-2,2,-1,-6,-1,-2
1558438984242780,-2,-1,-1,-3,-10,-6,-6,-4
1558438984250758,4,1,8,6,6,-2,3,3
1558438984250758,-2,-3,-3,-7,-2,2,0,1
1558438984274723,1,-2,-1,-3,-2,0,-3,-2
1558438984274723,0,2,6,6,9,9,5,5
1558438984274723,-4,-6,-8,-3,-4,-2,-7,-6
1558438984274723,1,1,7,-2,-4,-6,-1,0
1558438984288712,3,3,3,1,7,10,8,3
1558438984288712,-5,-3,-5,-4,-10,-11,-6,-5
1558438984289680,-2,0,-5,-3,4,1,-2,-1
1558438984289680,-1,-2,2,0,-1,2,-1,-3
1558438984312591,-2,-5,-6,-3,-11,-15,-8,-2
1558438984312591,1,3,2,-2,6,2,2,-1
1558438984313894,-1,0,-2,-1,-9,-1,-5,-2
1558438984313894,-3,-3,-2,1,8,2,3,0
1558438984325908,-4,-4,-5,0,-3,-2,-1,-3
1558438984325908,0,2,3,0,-2,-2,1,-1
1558438984333537,-1,-3,-5,-3,-7,-10,-5,-3
1558438984333537,0,0,1,-1,3,15,4,0
1558438984348836,-1,-3,4,1,-2,-9,-5,-1
1558438984348836,-1,-2,-2,1,7,2,4,2
1558438984349494,-3,2,2,-1,5,13,7,0
1558438984349494,-1,-3,-4,0,-6,-4,-5,-1
1558438984363761,-1,-2,-3,-1,-3,0,-6,-3
1558438984363761,0,-1,-2,-5,-14,-17,-10,-5
1558438984370698,2,-1,-4,0,12,4,11,7
1558438984370698,-1,0,3,3,0,-5,1,0
1558438984385431,-3,-2,-4,-6,-8,0,-4,-1
1558438984385431,-2,-3,-5,2,10,10,0,0
1558438984393381,-2,-2,-2,-3,-8,-10,-6,-4
1558438984393381,2,1,5,2,-4,-11,-2,0
1558438984408336,-1,0,-1,0,0,3,0,0
1558438984408336,-3,-3,-6,-3,-3,10,5,-1
1558438984409336,-4,-8,-2,1,-1,2,-2,-3
1558438984409336,2,2,4,2,9,4,1,1
1558438984423327,-1,-1,-3,-2,1,-9,-1,-2
1558438984423327,1,2,-2,-3,-4,-4,-3,-2
1558438984430575,0,1,1,0,0,2,-2,-2
1558438984430575,-2,-4,-6,-2,-7,-6,-4,-3
1558438984445239,3,1,3,0,3,5,3,0
1558438984445239,-1,-2,-1,-2,0,0,-2,-2
1558438984454306,-1,-2,-3,-2,-2,1,-3,-3
1558438984454306,-2,4,-5,1,3,-1,5,2
1558438984469171,-1,-2,3,1,3,-2,1,3
1558438984469171,-2,-5,0,0,-3,-4,-4,-4
1558438984469171,0,2,1,-1,-8,2,-2,-2
1558438984469171,-3,-4,-10,-3,-2,5,-2,-3
1558438984483168,3,4,-1,-6,-1,-2,2,0
1558438984483168,1,0,10,3,-1,-5,-3,0
1558438984490118,-3,-10,-6,-2,2,-3,-1,1
1558438984490118,1,1,-4,-3,0,0,-2,-1
1558438984505075,-1,0,2,3,0,-1,-1,-2
1558438984505075,0,1,0,-2,-10,-4,-7,-1
1558438984514081,1,4,5,-1,0,3,0,-3
1558438984514081,0,-2,6,3,7,9,5,2
1558438984529040,-4,-6,-9,-3,0,-3,0,-1
1558438984529040,-1,0,-2,-1,1,-3,0,-1
1558438984529040,-3,-4,-6,-2,-8,-9,-7,-4
1558438984529040,-2,-2,5,-1,-9,-5,-7,-4
1558438984550953,1,2,-2,-1,2,5,5,1
1558438984550953,-1,1,1,2,5,-9,-2,1
1558438984551949,-1,5,2,-1,1,5,-2,-1
1558438984551949,-2,-3,-1,-1,-3,5,-2,-2
1558438984566236,-2,0,-2,-1,-4,-7,2,0
1558438984566236,-2,-2,-1,-2,-5,-6,-4,0
1558438984574017,1,-2,-6,-2,-1,1,1,-1
1558438984574017,0,-3,-1,0,3,0,1,-1
1558438984589184,1,-1,2,0,-3,6,-3,-2
1558438984589184,-2,-1,-2,0,-3,-6,0,-3
1558438984590138,-3,-4,-2,-3,-7,-7,-5,-3
1558438984590138,0,0,-3,-4,-1,7,6,2
1558438984603145,1,1,2,0,5,-4,-2,3
1558438984603145,-2,0,-4,-4,-8,1,-2,-5
1558438984610793,0,0,-1,-2,-1,-2,1,1
1558438984610793,1,-2,-1,-2,1,-4,-3,1
1558438984626090,-2,-3,2,1,-2,10,1,0
1558438984626090,1,-1,0,-2,-5,-8,-2,-3
1558438984633734,0,5,8,4,12,13,6,1
1558438984633734,-2,-2,-5,-6,-11,-11,-2,-4
1558438984649021,-1,-3,-1,-2,6,5,0,-1
1558438984649021,0,0,2,0,0,-1,-1,4
1558438984649693,-4,-4,-5,-5,-1,1,-1,-2
1558438984649693,-3,1,3,4,0,2,1,-3
1558438984663723,-3,-3,-1,-4,-9,-15,-9,-3
1558438984663723,0,0,5,2,0,-11,-3,1
1558438984670920,0,1,-9,-4,1,1,6,7
1558438984670920,-1,0,-6,-2,1,1,-3,-2
1558438984685594,-1,-1,1,-3,-6,4,0,-5
1558438984685594,-2,-1,2,1,-2,4,-2,-3
1558438984693882,-3,-8,-5,-3,-5,-12,-6,-3
1558438984693882,1,1,3,5,3,-2,1,-1
1558438984708563,-1,-1,-2,1,7,6,4,1
1558438984708563,0,2,6,-3,4,3,-1,-2
1558438984709536,-1,0,-6,-3,-8,-6,-6,-3
1558438984709536,-1,-3,-2,-2,2,-1,-2,2
1558438984722524,1,3,7,5,5,-4,-1,0
1558438984722524,-3,-5,-14,-6,0,9,2,-1
1558438984730741,0,-1,3,0,-3,-2,1,0
1558438984730741,1,-3,-4,0,0,-4,-5,-2
1558438984745676,-1,-2,-1,-2,-5,-8,-3,-5
1558438984745676,-2,-3,0,0,1,2,-1,0
1558438984754410,0,2,4,2,-4,-13,-5,-3
1558438984754410,-3,0,1,0,12,11,5,2
1558438984768375,1,1,3,-4,-1,-1,3,1
1558438984768375,-3,-1,-6,-5,-2,7,4,-2
1558438984769370,-3,-1,0,0,-8,-5,-3,-2
1558438984769370,0,0,0,-1,-2,0,-2,-1
1558438984783338,-1,2,2,-1,-1,-3,1,-1
1558438984783338,-3,-7,-3,2,5,9,5,-1
1558438984790313,0,3,3,-2,4,4,0,1
1558438984790313,0,1,2,0,-3,-11,-3,-1
1558438984806331,-2,-4,-10,-3,-2,3,-4,-1
1558438984806331,0,1,-3,-1,-8,-4,-3,-2
1558438984813251,-1,-1,1,0,5,5,1,-1
1558438984813251,-1,2,4,0,4,2,1,-2
1558438984828214,-2,-2,6,2,2,-3,0,0
1558438984828214,0,1,5,1,-2,-9,-3,-1
1558438984836190,-3,-7,-17,-8,-1,4,-3,0
1558438984836190,-1,-2,-1,0,2,5,1,1
1558438984851153,-3,-2,-4,-7,-7,-4,-2,-3
1558438984851153,-1,-1,6,4,1,-4,-2,-3
1558438984852147,3,0,3,2,4,1,6,1
1558438984852147,-2,-2,-8,-4,-9,-5,-3,-1
1558438984866346,2,2,3,3,10,11,1,2
1558438984866346,-1,-4,-2,-2,-2,-3,-1,0
1558438984874100,-3,-3,0,0,-6,-16,-1,0
1558438984874100,-2,-1,-8,-7,-11,-12,-7,-3
1558438984888364,-1,1,-6,-1,-1,-2,0,-1
1558438984888364,2,0,-3,0,6,8,4,4
1558438984905180,0,0,4,1,2,0,-3,0
1558438984905180,-1,-5,1,-4,-1,2,1,-3
1558438984906005,-2,0,-1,0,-5,6,-4,-1
1558438984906005,-2,0,-6,-7,-1,-8,-2,-2
1558438984911324,1,1,4,5,7,10,7,0
1558438984911324,-4,-3,-6,-6,-7,-4,-8,-6
1558438984925957,-2,-2,-5,-3,0,7,4,-1
1558438984925957,-2,-2,-2,-4,4,-8,3,2
1558438984933931,0,0,0,-3,-4,-5,-4,-2
1558438984933931,2,0,-2,1,1,-5,4,3
1558438984947922,0,-3,5,0,-4,-2,-2,-1
1558438984947922,-1,-4,-5,1,7,16,0,-2
1558438984956900,1,2,5,2,-2,-3,-2,0
1558438984956900,-2,1,-11,-4,3,4,1,0
1558438984963131,-4,-3,-2,-1,-5,-12,-7,-4
1558438984963131,-3,-5,-4,-3,-5,1,-2,-1
1558438984971093,0,-2,3,-3,-3,1,-1,-1
1558438984971093,-1,-2,1,-1,0,0,1,1
1558438984986053,2,2,1,1,3,-8,3,3
1558438984986053,-2,-2,0,-1,-7,-10,-7,-3
1558438984993772,-1,1,-2,1,6,11,5,2
1558438984993772,0,0,4,0,-5,1,-1,-4
1558438985008000,-1,-1,-4,-2,-1,-1,-2,-2
1558438985008000,-1,0,-1,1,0,-2,0,0
1558438985015715,-1,1,6,2,4,0,0,0
1558438985015715,0,-1,-4,-1,-1,-3,-4,1
1558438985030671,-1,-2,1,-4,-1,-3,-2,0
1558438985030671,-4,-1,-4,-2,-3,1,-2,-4
1558438985031668,-3,-5,-6,-4,-5,0,-6,-3
1558438985031668,-1,1,3,1,1,1,1,-2
1558438985045904,-1,-2,-3,2,2,2,-2,-1
1558438985045904,2,5,6,1,-5,-1,-4,-3
1558438985053609,-4,-2,-9,-7,0,-3,4,0
1558438985053609,0,-2,1,0,5,-2,-3,0
1558438985067574,2,-1,-3,-2,-1,-2,3,0
1558438985067574,0,-1,-3,-1,-3,-5,-2,-1
1558438985076564,-1,-1,4,3,-3,1,-3,-3
1558438985076564,-2,0,0,-2,-4,0,1,-1
1558438985091544,-2,-2,-3,-3,-5,-10,-2,-1
1558438985091544,-6,-4,-2,0,1,-1,-4,-2
1558438985091544,-2,-4,-10,-5,-4,1,0,-2
1558438985091544,0,1,2,5,4,0,1,-1
1558438985105723,1,3,7,-2,-5,-1,0,-2
1558438985105723,2,1,1,-1,2,2,3,0
1558438985114481,-4,-6,-7,-5,-5,-8,-8,-1
1558438985114481,0,-2,1,-1,1,4,1,2
1558438985128613,0,-2,-5,0,3,0,-3,-1
1558438985128613,3,2,5,-2,-10,-16,-5,0
1558438985136665,-3,-1,-7,0,-2,4,0,-2
1558438985136665,-2,-1,-2,-2,-2,-4,4,0
1558438985151359,-3,-4,-2,-3,1,5,-1,1
1558438985151359,-1,-2,-4,-5,1,1,-4,-2
1558438985151359,-1,1,4,4,0,-1,1,3
1558438985151359,0,0,1,-1,-4,-2,-1,0
1558438985166313,-3,-2,-2,0,-1,0,2,0
1558438985166313,-1,0,-2,1,-1,-5,-1,-1
1558438985173541,2,5,10,2,6,3,1,0
1558438985173541,-4,-4,-12,-3,2,1,-5,-2
1558438985188496,-1,0,0,1,-8,-4,-6,-4
1558438985188496,1,0,-8,-3,-7,0,-1,0
1558438985196232,-3,-4,6,-1,-4,-7,0,-2
1558438985196232,-1,-1,-1,-2,3,0,-2,0
1558438985211416,-3,-3,-4,-1,-9,4,-6,-6
1558438985211416,4,4,5,10,27,16,15,9
1558438985212190,4,4,0,-3,-9,-18,-5,-1
1558438985212190,-2,0,5,2,-8,-1,-4,-3
1558438985225150,-1,-3,3,-1,-3,-5,-7,-2
1558438985225150,-3,-1,-8,-2,3,6,2,-2
1558438985233128,0,-2,-6,1,0,-2,0,-1
1558438985233128,-1,-2,-1,1,-1,-6,-3,-4
1558438985248089,1,2,2,2,-4,-1,-3,-1
1558438985248089,-2,0,2,0,4,13,1,-2
1558438985256066,-1,-4,-3,-3,1,1,0,-4
1558438985256066,-1,0,-1,-4,-9,-19,-6,-2
1558438985271026,0,0,3,5,10,13,11,6
1558438985271026,-1,-6,-13,-6,-8,-15,-7,-3
1558438985272023,-1,1,0,-1,-5,0,-3,0
1558438985272023,-3,-3,-5,-4,-4,6,-6,-6
1558438985284989,-1,-1,-1,1,8,1,3,-1
1558438985284989,-1,4,5,2,1,0,7,1
1558438985293967,-1,-2,-4,-5,-5,2,-4,-2
1558438985293967,-2,-1,-1,0,-4,2,-1,0
1558438985307927,-2,-4,-4,-3,1,-1,2,1
1558438985307927,-2,-1,3,0,-7,-14,-8,-2
1558438985315906,0,0,3,2,6,9,2,-2
1558438985315906,0,-2,-3,0,1,-3,-1,-1
1558438985330866,0,-3,-6,-8,-3,-5,0,-2
1558438985330866,1,-2,-1,-1,-6,1,-4,-1
1558438985331863,-1,-1,3,1,1,4,-2,-2
1558438985331863,0,2,0,-2,-1,2,0,2
1558438985345825,0,3,8,3,2,-10,-4,-1
1558438985345825,-2,0,-5,-3,-2,0,-1,-2
1558438985353804,0,-2,-3,0,4,5,3,-1
1558438985353804,0,-4,-2,-2,-3,-4,1,-2
1558438985367767,-2,-2,-3,-3,-2,4,-2,-3
1558438985367767,-1,-2,-1,1,-6,-5,-9,-4
1558438985375746,-1,1,-2,-1,-1,-1,1,1
1558438985375746,1,0,7,4,5,6,7,0
1558438985390705,-1,-2,-7,-5,-5,-17,-6,0
1558438985390705,0,-2,-5,-4,1,6,1,0
1558438985391703,-1,5,-4,-2,-4,-2,-4,-3
1558438985391703,1,1,2,-3,-3,4,-3,-1
1558438985405665,2,-3,3,4,12,12,9,3
1558438985405665,-5,-2,4,-3,-4,-7,-1,-1
1558438985413644,-2,-2,-4,1,-3,-12,-1,-1
1558438985413644,0,4,8,4,-1,-7,-2,2
1558438985427607,-4,-1,-11,-5,-7,2,-6,-3
1558438985427607,2,2,3,0,2,3,7,3
1558438985436584,0,-4,2,1,1,-9,-4,-2
1558438985436584,-2,-1,-7,-2,3,15,4,-1
1558438985451543,-2,-3,-1,-2,-6,-2,-4,-1
1558438985451543,-1,-4,-2,-3,-7,-6,-9,-5
1558438985451543,1,2,1,5,5,-1,-3,1
1558438985451543,-1,-1,-2,-4,-3,-12,-4,-1
1558438985465507,-1,1,-1,0,-5,-3,0,-2
1558438985465507,-2,-3,-3,-4,4,7,4,-1
1558438985481463,0,1,5,1,3,6,3,2
1558438985481463,0,-1,-1,0,4,-6,1,0
1558438985487447,-1,-2,-4,-3,-8,-1,-5,-4
1558438985487447,-1,0,1,0,-4,1,0,-3
1558438985496423,1,-2,-2,-1,-1,-4,-4,0
1558438985496423,0,0,-2,-3,3,5,-1,-3
1558438985511383,-1,-3,2,4,3,0,3,-1
1558438985511383,1,0,10,2,4,11,5,2
1558438985511383,-6,-5,-18,-12,-15,-14,-7,-5
1558438985511383,-1,3,3,2,2,6,4,-2
1558438985525351,-1,0,-3,-1,-2,0,-7,-4
1558438985525351,0,-1,-2,-3,-2,0,-2,0
1558438985532335,0,1,7,0,2,8,-2,2
1558438985532335,-1,-3,4,-3,-3,-3,2,1
1558438985548292,0,2,-5,1,9,-11,6,2
1558438985548292,-2,-3,-9,-3,-9,-15,-6,0
1558438985556272,-1,0,1,1,0,9,1,-3
1558438985556272,0,-3,-7,-3,-3,1,-5,-2
1558438985571235,1,1,8,4,1,6,3,-2
1558438985571235,0,-1,-1,-2,0,-3,0,1
1558438985572222,0,-1,0,0,3,5,3,-1
1558438985572222,-4,-5,-7,-6,-8,-3,-5,0
1558438985585187,-2,2,0,-1,-3,-6,-2,-2
1558438985585187,-1,0,-2,-1,1,1,4,-1
1558438985593169,-3,-2,1,-1,-2,-7,-1,0
1558438985593169,-3,-1,-1,-1,-5,-3,-5,-3
1558438985608141,-3,-2,-2,-3,-7,-3,-2,-5
1558438985608141,-1,2,1,-2,3,3,1,-1
1558438985616155,1,-3,-2,-1,0,-4,2,1
1558438985616155,-1,2,0,3,2,2,2,-2
1558438985631065,-3,-2,-10,-8,-8,-10,-7,1
1558438985631065,0,-5,5,2,4,4,-2,0
1558438985632064,-2,-1,-1,-5,-6,-1,-2,-1
1558438985632064,-5,-6,-7,-3,-10,-9,-7,-3
1558438985646288,-1,2,1,-3,-2,-1,1,2
1558438985646288,1,2,1,8,17,17,10,2
1558438985653011,0,0,4,4,6,-2,-2,-2
1558438985653011,0,-2,-3,-2,-3,-8,1,1
1558438985667967,1,-3,0,-3,-3,2,-1,-1
1558438985667967,-4,-2,-3,-3,-11,-13,-11,-5
1558438985675945,-2,2,-1,0,-4,0,-2,-2
1558438985675945,-2,1,3,1,9,6,3,1
1558438985690916,-2,-3,2,3,2,-1,0,0
1558438985690916,0,0,-3,-5,-4,-4,1,-3
1558438985691902,1,0,-1,-1,-3,2,-2,0
1558438985691902,0,-1,-4,-3,-7,-8,-5,0
1558438985705972,-2,-6,-4,1,13,19,5,3
1558438985705972,-2,-2,-2,0,-11,-18,-7,-5
1558438985712956,-3,-2,-1,-5,-2,4,2,-1
1558438985712956,2,2,13,5,3,0,3,1
1558438985728011,-3,2,-8,0,4,2,3,3
1558438985728011,-2,-3,-6,-7,-8,0,-2,0
1558438985736823,0,-3,1,7,6,-2,-6,-4
1558438985736823,2,2,-3,-7,-5,-4,-1,1
1558438985750747,-1,-3,3,-1,-4,-6,-6,-4
1558438985750747,1,0,-1,-5,1,7,8,4
1558438985758903,-1,-2,-7,0,-6,-13,-4,-1
1558438985758903,-2,-3,2,6,5,3,-2,-2
1558438985765898,-1,-1,-1,-9,-8,-2,-5,-6
1558438985765898,3,3,6,6,3,-15,-2,4
1558438985772878,-2,-3,-2,-5,-4,-7,-2,-2
1558438985772878,-2,-2,0,-6,-9,6,-3,-3
1558438985787837,4,4,1,-1,-2,-1,2,4
1558438985787837,-5,-7,-7,1,-3,4,-5,-2
1558438985796830,-3,-2,-1,1,-2,1,3,-4
1558438985796830,0,2,-2,-2,5,-5,5,1
1558438985810587,-3,-1,-2,-4,-14,-10,-11,-5
1558438985810587,0,-1,1,-2,1,9,2,-4
1558438985818566,0,0,1,-2,2,3,1,4
1558438985818566,-2,-3,0,3,2,-2,-1,-1
1558438985825546,0,4,0,-2,3,7,1,-2
1558438985825546,-2,-2,-5,-5,-12,-11,-11,-5
1558438985832537,-1,-1,-3,-3,1,-12,-1,1
1558438985832537,-1,-3,-3,3,-1,5,0,-3
1558438985848704,0,-2,8,5,9,3,8,3
1558438985848704,-5,-1,-8,-3,-4,-5,-6,-5
1558438985856677,-1,-3,-2,0,7,7,6,1
1558438985856677,1,-1,1,0,-1,-1,-3,-2
1558438985870426,-1,-5,-3,-3,-1,-9,-3,-1
1558438985870426,-1,2,4,0,-6,-3,-4,0
1558438985878411,0,7,1,-4,-4,-5,-4,-2
1558438985878411,0,1,0,2,3,5,-3,0
1558438985885387,-5,-10,-11,-3,-4,1,-1,-3
1558438985885387,-1,0,0,0,1,-6,1,4
1558438985893368,-1,-3,2,1,3,5,0,-1
1558438985893368,-1,1,2,-2,-5,1,-4,-2
1558438985908325,1,0,-4,-6,-7,-4,-2,-3
1558438985908325,2,0,0,3,9,-3,3,3
1558438985916303,-1,-2,1,-2,-2,5,0,0
1558438985916303,0,0,-8,-7,-2,-3,2,2
1558438985930476,-3,0,-5,-5,-9,-9,-3,-6
1558438985930476,-2,-2,7,4,4,8,1,-1
1558438985939248,0,-1,-6,0,0,4,0,-2
1558438985939248,-1,-4,2,-1,-3,-3,-3,-3
1558438985953428,1,-2,1,0,1,-10,-3,2
1558438985953428,0,2,1,-3,2,0,-3,-2
1558438985954205,3,1,5,3,2,-1,-2,-2
1558438985954205,-1,-2,-4,-7,-1,9,10,4
1558438985968166,-1,0,2,5,3,-2,-1,0
1558438985968166,-2,-2,-3,-4,-2,-3,-1,-1
1558438985976354,-3,-3,-4,-4,-6,-2,-4,-1
1558438985976354,-2,-2,-6,-2,-6,-5,-7,-4
1558438985991106,2,3,5,2,3,2,2,2
1558438985991106,2,-1,1,0,-3,-2,-1,-2
1558438985999289,1,2,4,3,5,10,5,4
1558438985999289,-2,-3,-2,0,6,-4,1,-2
1558438986014358,-1,-1,0,-1,-5,-2,-6,-2
1558438986014358,-3,-5,-10,-6,-4,-1,-2,-5
1558438986014358,1,-3,0,-1,-4,-3,-1,0
1558438986014358,0,-1,-1,2,-4,-7,-6,-1
1558438986037206,1,4,5,3,13,10,6,0
1558438986037206,-2,-1,-3,-4,1,-5,-7,0
1558438986037981,-2,-2,-3,-3,-10,-1,-3,-3
1558438986037981,1,-1,1,-2,5,11,5,1
1558438986050942,-3,-6,-4,-1,-6,-9,-2,1
1558438986050942,-3,-2,-1,1,0,-12,2,0
1558438986058923,-1,1,0,-4,-6,-3,-7,-2
1558438986058923,1,-3,-6,-6,-10,-10,-7,2
1558438986073888,1,1,3,2,11,12,8,-3
1558438986073888,-2,-1,1,3,3,9,1,0
1558438986073888,-1,-3,-2,-1,-6,-14,-4,-1
1558438986073888,-4,-2,-1,-3,0,5,-3,-4
1558438986087844,-4,-5,-12,-9,-17,0,-6,-5
1558438986087844,-1,-1,1,0,-1,-3,0,0
1558438986095829,4,5,5,5,17,2,9,5
1558438986095829,-1,-3,-2,1,-2,0,1,0
1558438986110917,0,-1,0,0,1,-1,1,-1
1558438986110917,0,-1,3,-6,-2,8,-3,-2
1558438986118894,-3,-7,-13,-6,-2,-2,-4,-2
1558438986118894,-2,-1,4,4,8,6,7,5
1558438986133726,0,1,-3,-2,-4,-15,-8,1
1558438986133726,-1,-1,5,6,-1,1,-2,-5
1558438986134718,-7,-7,-6,-7,-10,-11,-6,-3
1558438986134718,-1,3,6,0,0,-1,1,-2
1558438986148680,-3,-5,-14,-3,-1,3,2,-1
1558438986148680,1,2,4,-1,0,-5,-1,0
1558438986155798,-2,-3,-6,-4,-2,6,-1,-1
1558438986155798,0,0,0,-2,-2,-11,-8,-6
1558438986170622,0,0,4,2,-2,-1,-2,4
1558438986170622,0,-2,-5,-3,-3,-6,2,-1
1558438986178695,1,0,6,3,10,8,6,-1
1558438986178695,-1,1,-4,-2,-4,-10,-5,-3
1558438986193748,-3,1,4,2,5,15,1,-1
1558438986193748,-2,-4,-8,-2,-1,0,-4,0
1558438986194559,5,4,5,4,1,4,5,4
1558438986194559,-1,3,-3,-3,-9,-6,1,0
1558438986208643,-2,1,2,-4,-7,-3,-1,-2
1558438986208643,0,-1,-2,0,0,3,1,0
1558438986224478,-1,-1,-1,-1,5,6,0,-2
1558438986224478,0,-2,1,1,-4,-5,-5,1
1558438986230672,0,1,-3,2,2,-3,2,3
1558438986230672,-2,0,-3,-3,-2,3,2,2
1558438986238630,-4,-9,-2,-2,-6,-2,-6,-5
1558438986238630,-3,-4,-4,0,-3,2,-2,-6
1558438986254617,4,1,8,5,10,5,4,1
1558438986254617,1,2,-2,-2,-4,-18,-6,2
1558438986254617,3,1,1,6,9,8,3,4
1558438986254617,-2,-1,4,-2,0,5,-1,-4
1558438986268360,0,-4,-13,-10,-8,0,-5,-5
1558438986268360,0,-2,-1,-1,-2,6,0,0
1558438986276545,-2,1,-1,1,-1,-13,-1,1
1558438986276545,0,-2,1,0,0,-4,-1,-2
1558438986290341,2,4,6,5,8,7,9,6
1558438986290341,-1,0,-3,-9,-6,1,-2,-3
1558438986298278,-1,1,2,-2,-2,2,-9,-6
1558438986298278,0,0,-10,0,2,1,3,2
1558438986314388,-2,-4,2,1,0,-3,-1,-1
1558438986314388,1,-3,1,-2,-5,-6,3,0
1558438986314388,-1,0,0,-6,-7,1,-4,-5
1558438986314388,1,3,5,1,-2,-5,0,0
1558438986328534,0,3,-2,0,0,-14,-5,-3
1558438986328534,-1,-5,-1,-1,5,6,1,5
1558438986336500,-2,0,2,1,0,-3,-1,-7
1558438986336500,-2,-5,-8,-3,-2,1,-5,-5
1558438986350179,-2,-2,0,-2,-4,3,4,-1
1558438986350179,-2,3,-1,1,-1,1,0,-5
1558438986359405,-2,1,-3,-5,-4,-11,4,5
1558438986359405,-3,-6,-1,0,5,8,2,1
1558438986374078,-1,-2,-1,-1,0,2,-5,-5
1558438986374078,0,-1,-2,0,-9,-12,-10,-3
1558438986374078,3,2,0,-2,4,11,1,0
1558438986374078,-3,0,-1,1,1,2,-1,-1
1558438986388038,-2,-4,-5,-4,-4,-2,-1,1
1558438986388038,0,0,2,4,8,0,3,2
1558438986396016,-2,-3,-5,-2,-7,2,-5,-3
1558438986396016,1,-1,1,0,-4,-5,0,0
1558438986410017,-1,-2,0,0,0,-10,-8,-3
1558438986410017,1,-1,-1,0,4,13,5,-1
1558438986418980,0,1,-1,0,0,-9,-3,1
1558438986418980,-1,-1,-1,1,-4,-3,-6,-2
1558438986433917,-4,-6,2,3,-2,4,1,-1
1558438986433917,-1,-3,-9,-5,1,2,1,2
1558438986433917,-2,-1,0,-1,-2,-4,-3,-4
1558438986433917,-2,-2,-7,-5,-1,-3,-5,-2
1558438986448339,0,0,-1,-6,-7,2,-2,-1
1558438986448339,-1,0,4,3,0,-8,0,-1
1558438986456189,-1,0,-3,1,5,-2,4,4
1558438986456189,-2,0,-1,-4,-1,-3,-2,0
1558438986478797,-1,1,2,-1,-3,-7,-4,-2
1558438986478797,-2,-1,0,-1,0,13,-1,-3
1558438986479794,-1,-5,-4,-3,-7,-10,-6,-1
1558438986479794,2,0,7,6,8,-2,4,1
1558438986493068,0,-3,-9,-9,-5,4,5,2
1558438986493068,0,0,-3,-3,-3,-6,-4,-1
1558438986500740,-3,0,1,-1,-3,-2,-6,-3
1558438986500740,0,-2,-3,-3,-5,-1,0,-4
1558438986508024,0,3,5,4,12,12,4,3
1558438986508024,-2,2,6,3,-9,-5,-2,-3
1558438986516004,-3,-7,-19,-9,-10,-4,-5,-1
1558438986516004,-1,-4,-2,1,-2,-1,1,-1
1558438986530973,-2,0,-4,0,3,-3,-1,-1
1558438986530973,0,-3,2,-1,4,1,-1,-1
1558438986538927,1,1,6,6,3,8,5,1
1558438986538927,2,1,0,-3,0,-7,-2,2
1558438986553598,-1,-2,-5,-3,-12,-11,-3,-4
1558438986553598,-2,-3,1,0,6,2,2,0
1558438986554594,-1,1,1,3,3,5,9,1
1558438986554594,-3,-2,-2,1,1,4,1,-3
1558438986567561,-1,-1,0,-2,-6,-6,-7,-4
1558438986567561,-3,-2,-5,-1,-8,-5,-9,-4
1558438986576840,0,-1,4,-3,-3,-6,-7,-3
1558438986576840,0,0,-1,-1,4,4,7,4
1558438986590730,0,3,2,2,7,-4,-1,2
1558438986590730,-1,-2,-2,-1,-2,1,2,-1
1558438986598768,0,-2,5,3,1,1,1,0
1558438986598768,-1,3,-2,-2,-3,-6,-4,-2
1558438986613741,1,0,-2,-2,-1,-1,-4,-2
1558438986613741,-1,0,-6,-4,-4,1,-5,-4
1558438986614437,-3,-8,-4,0,-2,-3,1,-1
1558438986614437,2,3,17,5,4,3,4,6
1558438986628712,-4,-4,-14,-5,0,2,-1,-4
1558438986628712,1,0,-3,-1,0,-12,-4,-2
1558438986636679,1,2,-4,-7,-10,-2,-5,-3
1558438986636679,-2,-3,-4,-5,-1,3,-1,-4
1558438986650339,1,1,9,6,14,9,6,7
1558438986650339,-3,-2,-4,-3,-6,-2,-2,0
1558438986659371,2,1,10,7,7,1,1,0
1558438986659371,0,2,-10,-10,-3,-2,-3,0
1558438986673515,-2,-4,0,-2,-16,-11,-5,-7
1558438986673515,1,-2,-5,1,13,10,9,3
1558438986681263,-2,0,-3,-3,-6,-4,0,-2
1558438986681263,-5,-5,-3,0,-6,0,-7,-4
1558438986688236,-1,-1,4,2,7,5,1,-1
1558438986688236,-1,-2,-5,-4,-8,-10,-2,-1
1558438986696218,0,2,-1,3,1,-4,3,0
1558438986696218,2,4,4,1,0,-7,1,0
1558438986710177,-4,-8,-6,-6,-16,-13,-13,-5
1558438986710177,-4,-1,0,2,9,11,-3,-4
1558438986718157,-1,-3,-10,-15,-15,0,-3,-2
1558438986718157,1,2,0,4,3,-7,2,1
1558438986733144,2,3,8,4,9,9,1,2
1558438986733144,1,-4,-4,-2,1,5,1,-3
1558438986741095,-1,-1,-1,-1,-2,-3,-3,0
1558438986741095,-2,0,-3,-4,-11,-8,-7,-2
1558438986748542,-1,2,4,1,9,5,5,2
1558438986748542,-1,0,-1,-6,-10,-5,-3,0
1558438986756518,-4,-3,-2,-1,2,2,-4,-4
1558438986756518,0,-5,-3,-4,-4,0,-1,0
1558438986771263,-2,-1,-4,1,-1,-2,-2,-3
1558438986771263,0,1,6,6,9,2,2,2
1558438986778992,1,2,3,-6,0,2,2,0
1558438986778992,0,0,1,1,1,2,-1,1
1558438986793217,-5,-6,-10,-5,0,5,-1,-1
1558438986793217,-1,1,-1,-2,-8,-2,0,-3
1558438986800942,-2,-1,1,1,3,-2,0,-1
1558438986800942,-1,-5,-1,-1,1,3,-2,-4
1558438986807926,2,1,0,-2,-9,-2,-4,-2
1558438986807926,2,5,5,3,2,-12,-1,3
1558438986815926,-2,-6,-5,3,5,6,-1,0
1558438986815926,-2,-1,0,-3,-4,3,1,0
1558438986831100,-2,-4,-11,-6,-6,-7,-4,-2
1558438986831100,-2,-1,2,1,4,9,2,-1
1558438986839127,0,2,-3,-2,-2,-4,-4,-2
1558438986839127,-4,-3,0,-4,-8,-6,-4,-4
1558438986853093,-3,1,4,0,0,2,4,2
1558438986853093,1,-3,-4,-2,2,3,2,1
1558438986861072,1,0,-1,-1,6,1,5,2
1558438986861072,-2,-5,-3,-2,2,0,-5,-3
1558438986877046,0,1,3,3,-11,-6,-3,-4
1558438986877046,-3,-3,0,-5,-7,-10,-3,-4
1558438986877731,1,2,3,1,12,10,6,3
1558438986877731,-3,1,-1,2,0,-2,-1,1
1558438986890695,1,2,2,1,4,1,1,1
1558438986890695,0,-4,-2,-1,-2,-2,-2,-2
1558438986898672,0,-3,-2,-3,-13,-9,-8,-4
1558438986898672,1,0,-5,0,-1,-5,-2,-3
1558438986912681,-1,-2,-1,-1,4,-1,0,-1
1558438986912681,-2,-1,-2,-8,-7,4,-3,-4
1558438986920676,1,-2,0,3,3,3,6,3
1558438986920676,1,2,4,2,7,13,3,1
1558438986937066,0,0,-5,-2,0,-7,-5,-1
1558438986937066,-3,-2,-3,-2,-12,-11,-5,0
1558438986938568,-2,1,1,2,6,5,2,-1
1558438986938568,0,-2,-4,-5,-1,-4,0,-2
1558438986950536,1,-1,3,2,7,11,8,2
1558438986950536,-2,1,1,3,6,-1,0,2
1558438986958992,-2,0,-3,-4,-7,-4,-10,-2
1558438986958992,0,3,-2,-1,0,-1,-1,-2
1558438986973898,-1,-6,1,-3,-2,7,-3,-3
1558438986973898,0,-1,3,2,-1,-3,0,0
1558438986981805,2,1,-3,-1,-4,-23,1,2
1558438986981805,-2,-1,-1,-2,8,10,0,-1
1558438986997492,-3,2,-5,-3,-5,-1,-5,-2
1558438986997492,-1,-1,-1,-2,-2,4,-4,-2
1558438986997492,-3,-4,2,-3,-7,-5,-6,0
1558438986997492,0,0,-3,-3,-5,-5,0,-1
1558438987010375,0,2,3,2,4,-1,2,0
1558438987010375,-1,-1,0,0,0,1,3,3
1558438987018353,1,-1,-1,2,2,-4,0,-1
1558438987018353,-1,-4,1,-1,-8,-4,-8,-5
1558438987033313,-4,-2,-6,-4,-5,-1,-3,-4
1558438987033313,-1,2,0,-2,1,-6,-2,-1
1558438987041628,-2,-1,0,1,1,2,0,-5
1558438987041628,1,-1,0,1,5,-8,5,6
1558438987055577,0,-1,2,0,1,-1,1,0
1558438987055577,-2,-3,-6,-1,1,5,-1,-4
1558438987064326,-1,1,-1,-6,-13,-15,-5,-2
1558438987064326,-1,1,-1,-1,1,8,-3,0
1558438987071212,-4,-6,1,1,6,1,2,3
1558438987071212,0,0,0,0,-2,-2,-2,0
1558438987079190,-3,-1,2,-4,-4,5,0,-1
1558438987079190,-2,-3,-15,-4,-6,-13,-6,-4
1558438987102131,2,1,-2,-1,3,-5,3,3
1558438987102131,-1,0,-1,3,12,14,4,2
1558438987103126,0,1,-2,-3,-3,5,0,1
1558438987103126,-3,-1,1,2,-8,-7,-8,-5
1558438987115096,-4,-4,-3,-6,-9,-7,-8,-7
1558438987115096,4,2,3,5,11,2,11,5
1558438987124478,1,0,-1,-1,-4,-4,-3,-2
1558438987124478,1,-2,1,0,5,6,3,2
1558438987131238,1,1,0,-1,-6,-4,-1,0
1558438987131238,0,-1,2,-2,-9,-7,-5,-6
1558438987139351,-1,-2,-5,1,2,3,-1,-2
1558438987139351,-2,-2,-1,-1,-1,0,2,0
1558438987153312,0,-2,-2,-5,-9,-2,-6,-3
1558438987153312,-2,-3,-1,-2,-4,1,0,1
1558438987161968,-1,-2,-1,-2,0,0,-3,-2
1558438987161968,-1,-1,4,2,12,11,9,-1
1558438987176093,3,2,6,1,1,-6,3,-1
1558438987176093,-3,-1,-2,0,-3,-3,-11,-1
1558438987183912,-4,-7,-14,-12,-17,-13,-8,-5
1558438987183912,3,0,1,1,4,7,1,3
1558438987191180,-1,2,0,1,5,5,3,1
1558438987191180,-2,-3,-1,-6,-9,-5,-7,-5
1558438987199198,-2,-3,2,2,4,1,0,1
1558438987199198,-2,-4,-9,-6,-9,-9,-5,-4
1558438987212832,0,-2,-3,-3,-2,-5,-5,-1
1558438987212832,2,1,2,7,9,-9,6,4
1558438987221809,-1,1,8,4,-1,3,-3,-1
1558438987221809,-4,-4,-6,-5,2,9,1,-1
1558438987235778,-1,2,-1,-1,-4,1,-3,-2
1558438987235778,0,-3,-4,-6,1,8,2,-5
1558438987243748,-1,-2,1,1,4,-1,3,4
1558438987243748,-2,2,2,-1,-10,-17,-6,1
1558438987250731,-3,-2,-4,-2,-2,-3,-2,-3
1558438987250731,0,-2,0,0,-1,5,0,-4
1558438987259707,-2,0,-3,-2,4,6,0,-6
1558438987259707,-1,-2,2,0,-7,-4,-4,-2
1558438987273004,1,-2,2,-2,2,-4,2,3
1558438987273004,-1,-2,-4,-1,-2,-9,6,1
1558438987281653,-2,-1,-4,0,3,7,-5,-1
1558438987281653,-3,3,1,2,2,14,3,-2
1558438987296003,-5,-6,0,-2,-4,-2,0,-4
1558438987296003,-1,1,-1,-2,-8,-8,-8,-1
1558438987304590,-1,2,0,-1,1,3,1,0
1558438987304590,2,-2,4,-2,1,-3,5,3
1558438987310571,0,0,-6,-1,-1,2,-2,-2
1558438987310571,-3,-1,-3,0,3,8,1,-2
1558438987319547,-1,1,1,0,-3,-14,-3,1
1558438987319547,-2,1,3,1,4,6,0,-4
1558438987332543,0,0,9,2,0,5,5,2
1558438987332543,-3,-4,-16,-8,-10,-13,-7,-6
1558438987341501,1,-2,-4,-1,3,0,1,1
1558438987341501,-3,0,2,1,-3,-2,-3,-1
1558438987355451,-1,0,-2,1,3,-5,-4,1
1558438987355451,-1,2,-1,-2,-4,-14,-6,1
1558438987364426,3,2,2,4,7,4,6,2
1558438987364426,1,-4,-4,-3,-5,2,-4,-2
1558438987370505,0,6,7,3,-1,11,8,1
1558438987370505,0,-2,4,1,2,-8,-2,2
1558438987379387,-6,-9,-5,-3,-5,-4,-4,-5
1558438987379387,0,1,6,4,4,-9,-2,-1
1558438987401460,-1,-3,-8,-4,3,-4,-3,-1
1558438987401460,-1,3,5,-3,-5,7,0,0
1558438987403323,0,-3,-7,1,4,2,4,3
1558438987403323,0,0,1,2,0,-2,0,0
1558438987415292,1,-3,-2,-1,-6,-12,-2,-3
1558438987415292,-2,-1,-3,-2,-2,1,-2,-4
1558438987424267,-2,-1,3,0,-3,4,-5,-4
1558438987424267,0,-1,1,0,1,5,1,-1
1558438987430253,-1,1,-5,-5,-6,-4,1,2
1558438987430253,-1,-3,-2,0,-4,-10,-4,-2
1558438987447205,1,-2,-2,-2,-5,-6,-3,-2
1558438987447205,-1,-1,0,2,8,2,1,1
1558438987453195,-3,-1,0,-2,-2,-3,-4,-1
1558438987453195,-2,-2,2,-2,-3,9,0,-2
1558438987462167,-2,-1,2,-1,5,6,3,-1
1558438987462167,0,1,-4,-4,-10,-13,-4,-1
1558438987475132,-3,-5,-5,1,6,7,0,0
1558438987475132,-1,1,5,0,3,4,2,3
1558438987492094,0,5,-3,-4,-9,-11,-1,0
1558438987492094,1,-3,6,1,1,2,2,2
1558438987493084,-1,-4,-4,-3,-7,-5,-4,-2
1558438987493084,-1,0,-3,-1,-2,0,-2,-2
1558438987499068,-1,-1,2,-1,0,2,0,-3
1558438987499068,-2,-1,-8,-6,-10,-1,-6,-1
1558438987513030,2,1,0,1,2,-9,-1,-2
1558438987513030,-1,0,4,0,8,7,8,3
1558438987522005,0,3,5,5,0,-9,-2,0
1558438987522005,-5,-4,-9,-4,0,3,0,-1
1558438987534971,-3,-3,0,-2,1,7,0,0
1558438987534971,0,-2,-2,0,-3,-5,-4,-4
1558438987544114,1,1,1,-3,0,4,1,0
1558438987544114,0,1,2,3,-1,-3,1,0
1558438987549934,-1,-4,-5,-6,-9,-10,-7,-2
1558438987549934,1,2,0,2,4,5,-1,-3
1558438987558907,-1,1,1,3,12,7,8,2
1558438987558907,-1,2,-3,-8,-8,-3,-3,0
1558438987572870,-1,1,0,-2,2,10,0,-2
1558438987572870,0,-2,-1,-1,-10,-14,-7,-2
1558438987581846,-3,-3,-3,-1,-3,0,-4,-3
1558438987581846,1,1,4,2,0,-4,3,2
1558438987594839,-4,-3,1,1,-1,-3,-1,-1
1558438987594839,-2,-4,-6,-5,-3,2,1,-2
1558438987603787,-2,-4,-5,-3,-1,3,-3,-3
1558438987603787,-2,-2,-4,-2,-6,-11,-8,-5
1558438987610799,0,2,2,1,3,1,-1,-1
1558438987610799,-1,-2,1,0,4,-3,5,3
1558438987618746,1,-1,-1,-6,-4,2,3,0
1558438987618746,-3,-2,-2,-4,-2,0,-1,-3
1558438987641687,-2,-3,-7,-3,-10,-3,-5,-5
1558438987641687,2,0,5,5,14,13,9,6
1558438987643747,0,-1,-4,-2,-1,-6,-2,3
1558438987643747,-1,0,7,1,5,10,3,-2
1558438987655649,1,2,3,2,1,-1,-1,-3
1558438987655649,-3,-6,-6,-3,-1,3,-1,-3
1558438987664624,0,-1,-2,-3,-7,-3,-2,-1
1558438987664624,0,-5,-3,-2,2,-7,-3,0
1558438987670611,0,2,4,1,-4,1,-3,-2
1558438987670611,2,4,4,6,4,-6,-1,0
1558438987679584,-3,-5,-9,-11,-10,0,-5,-2
1558438987679584,-2,-1,0,1,5,1,2,1
1558438987692550,-2,-2,-1,2,-1,-2,-1,-1
1558438987692550,2,-3,-1,-1,1,2,-1,-1
1558438987701525,1,2,5,2,2,-7,1,1
1558438987701525,-2,-1,-4,-1,-5,-3,-3,-1
1558438987715654,-2,1,-2,-1,2,5,0,-4
1558438987715654,-2,-7,-4,-5,-2,0,3,0
1558438987724464,-3,-2,2,5,8,1,0,0
1558438987724464,-1,-3,-4,-9,-13,-8,-4,-2
1558438987730464,2,0,2,1,5,2,4,3
1558438987730464,-2,-1,-5,5,3,4,-2,-6
1558438987739423,2,4,1,-4,2,0,4,4
1558438987739423,-1,-3,-2,1,-1,-2,-2,-4
1558438987752392,-5,-2,-3,-5,-11,-6,-7,-1
1558438987752392,-3,-2,0,-3,-6,-5,-6,-3
1558438987761391,1,-3,-6,-1,4,3,0,-3
1558438987761391,2,1,2,5,7,11,2,0
1558438987775329,2,-1,1,-1,-3,-15,2,2
1558438987775329,0,1,0,-2,-8,-4,-2,0
1558438987784305,-3,-2,1,-1,-9,-3,-8,-5
1558438987784305,-3,-1,0,0,8,1,3,0
1558438987799265,-2,-5,-3,1,9,21,9,0
1558438987799265,2,4,4,0,-3,-13,-1,0
1558438987800262,0,-3,-1,-2,-11,-7,-7,-5
1558438987800262,-1,-7,-7,-6,0,2,-1,-2
1558438987813311,1,4,6,4,8,3,5,6
1558438987813311,-5,-2,-1,-4,-1,7,1,-3
1558438987822205,-3,1,-1,5,2,0,2,-2
1558438987822205,0,3,6,1,-4,-12,-4,2
1558438987844240,-2,-3,-6,-5,-6,-1,-5,-4
1558438987844240,-1,0,-5,-3,-7,3,-1,0
1558438987846163,1,-1,0,-1,0,0,1,3
1558438987846163,0,-2,-5,-3,-2,-10,2,0
1558438987858107,0,-1,1,0,-5,-6,-6,-3
1558438987858107,-1,2,0,1,4,8,-1,-1
1558438987867086,-2,-5,-3,0,8,12,4,0
1558438987867086,-1,1,1,-3,-4,0,-2,-1
1558438987873291,-3,0,1,-2,-5,-6,-7,-3
1558438987873291,1,3,-2,-4,-6,-11,-8,-3
1558438987882045,-3,-3,-2,-2,1,5,-1,-1
1558438987882045,-1,0,3,6,6,3,4,0
1558438987895008,-3,0,-5,-2,-3,-7,-2,-1
1558438987895008,-3,-6,-2,-4,-5,-5,-4,-1
1558438987919941,-1,-1,1,0,-5,-2,-2,-3
1558438987919941,-1,-5,-5,-1,7,8,3,-3
1558438987920939,1,2,1,-6,-8,-3,-1,1
1558438987920939,0,-5,-7,-3,1,2,-4,-6
1558438987921938,-3,-5,-1,3,4,0,-2,-1
1558438987921938,0,3,2,-1,-1,2,1,-1
1558438987932906,0,-3,2,0,4,5,2,-1
1558438987932906,-1,1,1,2,0,-11,-1,2
1558438987941885,-1,-2,-7,-7,-4,-14,-5,-3
1558438987941885,-2,-1,-3,-3,-3,8,-2,-2
1558438987954849,-1,1,-2,2,3,-7,2,2
1558438987954849,-1,3,2,1,3,4,4,2
1558438987963825,0,-1,-1,0,1,0,0,-1
1558438987963825,1,0,3,-2,-7,-6,-1,2
1558438987978785,-1,-1,-7,-1,-8,-8,-7,-5
1558438987978785,-4,-7,-4,-6,-7,-6,-4,-3
1558438987980781,-3,0,4,2,4,-3,-2,-3
1558438987980781,1,-3,-7,0,2,0,0,-1
1558438987992844,2,-3,-1,0,5,4,3,0
1558438987992844,0,0,2,-3,-11,-3,-1,1
1558438988001728,1,3,-1,1,7,10,5,3
1558438988001728,-2,0,1,1,0,-7,-3,-1
1558438988015685,-3,-1,0,-3,5,7,-2,-5
1558438988015685,0,-1,-4,1,5,2,0,1
1558438988024662,1,0,2,-4,-8,-13,-7,-2
1558438988024662,-2,-5,-4,-2,0,8,2,0
1558438988039620,-3,-4,3,2,3,-1,-2,1
1558438988039620,-1,0,2,4,6,3,3,1
1558438988040620,-1,0,1,-3,-10,-4,-1,-3
1558438988040620,-1,-1,-6,-4,-10,-20,-8,-4
1558438988052588,-1,-4,-4,-6,-12,-3,-4,-2
1558438988052588,-2,-3,-2,-4,0,4,-5,-1
1558438988061564,-1,2,1,0,-5,-7,1,1
1558438988061564,1,1,6,3,3,2,1,0
1558438988075526,-2,-5,-5,-2,1,-1,4,0
1558438988075526,-3,-1,-1,-3,1,0,0,-1
1558438988084501,-3,-3,-5,-2,2,4,0,-2
1558438988084501,-6,-1,-5,-3,-9,-6,-7,-5
1558438988099461,2,2,9,5,5,-3,5,7
1558438988099461,0,3,1,-1,3,0,1,-2
1558438988100458,-2,-4,-9,-4,-5,-1,-4,-2
1558438988100458,0,-3,-2,-2,-5,-2,-4,-1
1558438988112428,2,4,-1,-2,5,6,1,2
1558438988112428,-1,2,2,2,3,-3,-3,-1
1558438988121404,1,-3,2,4,1,1,0,-1
1558438988121404,-1,0,1,-2,-1,2,2,1
1558438988135365,0,-1,-3,0,-1,-11,-3,1
1558438988135365,-1,-3,-1,-5,-6,-3,2,0
1558438988144343,0,2,0,-4,-3,-1,3,2
1558438988144343,0,-1,-4,-1,-1,-1,-5,-4
1558438988159301,-1,0,1,3,-4,0,-1,-4
1558438988159301,0,-1,-6,0,1,2,-2,1
1558438988165284,-1,-2,2,0,-3,-9,-6,-1
1558438988165284,-3,0,-3,-3,9,10,9,5
1558438988172266,-3,0,2,1,1,-3,-4,-3
1558438988172266,-1,-3,-7,-4,-10,0,-2,-1
1558438988181242,2,0,2,2,4,0,4,-1
1558438988181242,0,4,7,4,2,-6,-4,0
1558438988195205,-1,-5,-9,-4,-4,-1,-2,-1
1558438988195205,-4,-5,-4,-2,-8,2,-2,-3
1558438988204181,-2,0,3,5,0,-5,2,0
1558438988204181,1,-1,0,0,8,10,5,1
1558438988219146,-4,-3,-2,-2,-4,-1,-3,-4
1558438988219146,2,2,3,1,3,-3,-3,-1
1558438988220139,1,-2,-4,-4,-10,-7,-4,2
1558438988220139,1,2,3,4,0,-3,4,0
1558438988233106,1,1,5,-2,2,5,4,2
1558438988233106,-7,-8,-4,-4,-2,6,-1,-5
1558438988242081,-3,-3,-8,-5,0,4,0,-3
1558438988242081,-1,-2,-4,-2,-3,-5,-4,-3
1558438988255044,-1,0,2,1,5,6,3,2
1558438988255044,-1,-1,0,2,-1,-13,-1,0
1558438988264022,-3,-1,2,0,11,11,1,0
1558438988264022,-2,-3,0,-1,-4,0,-4,-3
1558438988278981,-2,-3,-5,-3,-10,-1,-3,-5
1558438988278981,0,-1,1,-1,2,7,1,-1
1558438988280976,0,2,6,5,6,-6,3,1
1558438988280976,0,-4,-3,-5,-5,-4,-2,-1
1558438988292949,0,0,-3,-1,1,-2,-2,1
1558438988292949,2,-1,-1,-4,-9,-8,-6,0
1558438988301920,0,0,-2,1,-1,-3,0,-2
1558438988301920,1,-1,-2,-1,3,-1,2,-2
1558438988315885,2,-3,-2,1,4,1,0,-2
1558438988315885,-1,0,2,-5,-5,2,-3,-1
1558438988323864,-3,-1,-5,-3,-7,-2,-8,-3
1558438988323864,-3,2,-2,-4,-4,2,4,3
1558438988338820,-6,-6,0,1,1,2,2,-1
1558438988338820,1,-3,3,1,-3,-14,-1,-2
1558438988340815,-2,1,-5,0,5,5,-1,-2
1558438988340815,-3,-2,-2,-4,-8,0,-5,-6
1558438988352783,-2,-1,-6,-5,-2,-4,-4,-2
1558438988352783,1,1,0,0,4,9,2,0
1558438988361762,0,0,1,0,2,2,3,-1
1558438988361762,0,-6,0,-2,-5,-8,-2,-1
1558438988375723,-2,0,-2,-3,-5,2,-5,-3
1558438988375723,2,3,6,8,6,-5,4,3
1558438988384700,-2,-4,-2,-4,-2,-6,-4,0
1558438988384700,-2,-1,-2,1,0,8,-1,-1
1558438988398660,-1,0,9,4,-1,-2,0,-2
1558438988398660,-1,-2,-14,-8,-1,-11,-5,-1
1558438988400656,0,1,-2,-2,-1,12,3,-2
1558438988400656,0,-1,2,2,8,-5,0,2
1558438988412623,-2,-2,-4,-5,-7,-4,-5,-3
1558438988412623,0,-1,3,3,-1,7,0,-1
1558438988421604,1,1,2,-1,1,-2,3,-1
1558438988421604,0,-2,-2,-3,-6,-4,-5,-2
1558438988435569,3,2,3,3,6,3,3,1
1558438988435569,2,2,-4,0,0,-9,1,1
1558438988444540,-1,-3,-6,-3,2,-6,-5,0
1558438988444540,-2,-5,-3,-6,-7,1,-1,-2
1558438988459497,-2,-1,-4,-1,-6,-4,-8,-2
1558438988459497,-7,-1,-1,-3,-4,3,-5,-5
1558438988460496,0,1,3,1,0,4,2,3
1558438988460496,1,1,2,3,5,-9,3,4
1558438988472463,2,-2,-2,-3,4,0,2,1
1558438988472463,-1,-1,-4,-2,-4,-1,-4,-7
1558438988481439,0,-1,1,-1,-2,4,1,-1
1558438988481439,0,2,-3,-1,-3,-4,-2,-2
1558438988495407,0,2,0,0,1,-2,2,1
1558438988495407,0,0,0,2,0,-4,-3,0
1558438988504379,-1,-4,-2,-4,-1,-5,-2,-1
1558438988504379,-1,0,-1,3,-1,5,0,0
1558438988519338,-2,-1,-4,-3,2,0,1,-3
1558438988519338,-2,-2,-1,-1,-3,-4,-1,0
1558438988520335,0,-2,0,2,0,-1,-5,-3
1558438988520335,2,8,10,0,-4,-11,-1,1
1558438988533302,-3,-3,-9,-4,0,2,1,0
1558438988533302,-1,-1,3,2,4,7,2,-1
1558438988541280,-4,-11,-10,-7,-13,-7,-6,-4
1558438988541280,-1,-2,0,0,4,7,0,-1
1558438988555242,2,2,4,1,-1,-6,-1,0
1558438988555242,0,0,-1,-4,-4,-2,1,-1
1558438988564219,0,1,4,1,4,10,1,0
1558438988564219,-2,-2,-4,2,-1,-13,-2,0
1558438988578180,0,-2,-2,-3,-2,3,0,1
1558438988578180,-1,-1,0,1,-1,-1,-5,-3
1558438988585162,1,0,2,-8,-4,1,5,1
1558438988585162,-1,2,8,0,1,0,0,-1
1558438988593143,-3,0,-7,-3,4,4,2,-2
1558438988593143,0,-1,0,4,-3,-15,-1,1
1558438988602117,-3,0,-7,1,-1,3,-1,-3
1558438988602117,0,-2,3,1,-4,5,-2,-2
1558438988615082,3,-1,-2,0,-2,-13,-3,1
1558438988615082,0,-2,-5,-2,4,16,2,2
1558438988624057,0,2,2,5,3,-7,-2,-2
1558438988624057,-2,1,-8,-6,-5,-4,0,-1
1558438988647002,-6,-6,5,2,-5,5,2,-4
1558438988647002,-3,-3,0,-3,-5,1,-2,-3
1558438988647993,-1,-3,2,-4,-10,-17,-9,-3
1558438988647993,-1,1,-2,5,18,15,10,2
1558438988652985,0,2,8,2,-3,-7,-2,0
1558438988652985,0,0,-9,-4,8,-2,4,4
1558438988661957,-4,-3,-3,-8,-11,-3,-5,-4
1558438988661957,-3,0,-3,-3,-10,-9,-8,-4
1558438988674925,-1,-2,-5,-4,-5,-6,-3,-1
1558438988674925,1,0,6,3,4,-2,1,2
1558438988684900,-2,-1,-5,-5,-8,0,-5,-3
1558438988684900,-4,-5,-3,0,-2,1,0,-3
1558438988698859,0,1,1,2,11,7,4,3
1558438988698859,-3,1,1,-5,-9,0,-3,-3
