timestamp,emg1,emg2,emg3,emg4,emg5,emg6,emg7,emg8
1558438870685778,-1,0,1,7,-2,-2,-2,-1
1558438870685778,0,1,4,0,0,0,-1,-1
1558438870690766,1,3,2,-2,1,-2,1,0
1558438870690766,-3,-6,-4,2,-2,-1,-1,-2
1558438870691763,-1,-3,-4,-5,-7,-6,-3,-2
1558438870691763,-3,-3,-4,-9,-2,4,2,-2
1558438870691763,3,4,3,9,7,11,6,3
1558438870691763,-1,-1,0,-1,5,0,-2,-1
1558438870705726,-3,-6,-1,-7,2,-2,-6,-2
1558438870705726,-2,-3,-6,-5,-11,-8,0,-1
1558438870712706,-1,-2,-2,1,-7,-7,-3,0
1558438870712706,1,4,8,-1,-3,0,-1,-1
1558438870719687,-1,0,-7,0,10,16,5,1
1558438870719687,-1,-1,-3,6,-1,-5,0,1
1558438870734647,0,0,-3,-9,-1,0,-1,-3
1558438870734647,-3,-4,-8,-3,-16,-12,-7,-5
1558438870743624,-4,-9,-2,-9,-12,-16,-5,-4
1558438870743624,0,0,4,5,3,2,-2,-3
1558438870756588,2,2,7,3,11,2,2,3
1558438870756588,-2,-1,-7,-11,-6,7,2,-2
1558438870766562,-3,-3,-3,0,-5,-5,-4,-3
1558438870766562,1,3,14,6,11,6,5,2
1558438870780525,-4,-8,-15,-8,-14,-7,-7,-5
1558438870780525,-1,-1,-5,-7,-5,-6,-3,-1
1558438870780525,2,5,4,6,11,15,10,6
1558438870780525,-2,-5,-4,-16,-15,-7,-5,-3
1558438870827399,-2,0,-3,-3,0,-5,-6,-3
1558438870827399,-2,-2,-2,-6,-9,-10,-4,-3
1558438870827399,-3,-3,-6,4,-1,-2,-3,-4
1558438870827399,-3,0,0,-2,-4,-1,-1,-2
1558438870829395,1,-1,-2,0,3,2,5,3
1558438870829395,-1,2,2,-1,2,1,1,1
1558438870831390,-2,-2,2,0,1,1,-3,-2
1558438870831390,0,-3,-2,6,1,-7,-3,-1
1558438870839367,-5,-8,-11,-19,-12,-5,-8,-6
1558438870839367,-3,-3,-2,7,-4,-3,-2,0
1558438870848343,0,3,7,0,0,-2,-1,0
1558438870848343,1,0,-7,-8,-5,2,3,-1
1558438870854327,2,1,10,13,8,0,8,3
1558438870854327,-3,1,0,-2,8,3,-2,-1
1558438870869287,-3,-3,-2,-6,-7,-2,-5,-4
1558438870869287,-3,-2,-3,-1,-1,-1,-6,-2
1558438870876269,0,0,-4,3,0,-4,0,2
1558438870876269,1,-1,5,2,2,1,-1,-3
1558438870885246,-1,-1,-4,-5,2,8,0,-3
1558438870885246,1,1,3,0,2,-10,1,-1
1558438870899207,-2,-2,-4,-2,-8,-6,-8,-4
1558438870899207,3,-1,5,5,16,19,7,2
1558438870908184,-2,-2,-10,-5,-7,-6,-3,1
1558438870908184,-1,-2,2,2,9,10,6,1
1558438870914168,-3,-3,-9,-13,-14,-5,-6,-6
1558438870914168,0,-2,0,2,-5,-3,-4,-2
1558438870929127,3,2,3,2,5,-5,7,4
1558438870929127,-1,0,2,-1,3,6,2,2
1558438870937106,1,2,5,6,7,4,0,0
1558438870937106,-7,-5,-9,-14,-13,-6,-3,-6
1558438870952065,0,-3,-6,-7,-10,-15,-4,0
1558438870952065,0,2,16,6,3,-1,0,4
1558438870959046,-4,-4,-21,-9,-6,3,-5,-6
1558438870959046,-1,0,-1,1,0,-3,-1,-1
1558438870968022,3,5,11,10,7,-1,4,5
1558438870968022,-2,-3,-3,-9,-14,-15,-9,-5
1558438870974007,0,-1,1,4,7,23,11,3
1558438870974007,2,2,-3,-1,1,-7,-1,4
1558438870990962,-3,-5,-4,-4,-6,2,-6,-8
1558438870990962,0,-1,-1,-5,-15,-5,-6,-3
1558438870996946,4,3,5,4,12,-2,3,1
1558438870996946,0,0,-5,-3,-1,-5,-1,0
1558438871011906,-4,-1,0,0,-1,-5,-2,-1
1558438871011906,-8,-10,-5,-3,-9,1,-8,-6
1558438871018887,-2,-2,-3,-5,-7,-4,-4,-2
1558438871018887,1,2,3,4,6,0,4,2
1558438871027862,0,-1,-1,2,-2,0,-2,-1
1558438871027862,-1,0,-8,-4,-9,-6,-4,-5
1558438871033847,-1,-1,5,3,5,1,-1,0
1558438871033847,-2,-2,-6,-2,2,9,3,0
1558438871048807,0,0,1,-3,-4,5,-3,-3
1558438871048807,-2,0,-4,1,6,9,6,1
1558438871056785,-3,-3,4,2,-7,-16,-4,-2
1558438871056785,0,-1,-4,-1,2,-1,-1,-1
1558438871071746,1,-3,0,-2,-2,-1,0,-3
1558438871071746,0,0,-2,3,13,4,4,3
1558438871078728,1,10,10,13,14,10,4,1
1558438871078728,-6,-13,-4,-16,-23,-25,-9,-5
1558438871094684,-5,-9,-11,-3,-1,3,-3,-4
1558438871094684,2,0,-5,-3,3,4,0,0
1558438871095681,1,4,10,2,-4,-1,4,4
1558438871095681,0,4,-10,-5,-3,3,-2,-4
1558438871109645,2,1,5,4,5,-2,2,1
1558438871109645,-4,-6,-7,-4,-1,4,-1,-5
1558438871116627,-2,-2,0,-4,-4,-16,-7,-2
1558438871116627,1,2,5,3,3,2,3,4
1558438871131586,0,2,2,-2,1,-1,-1,1
1558438871131586,0,6,4,6,9,1,4,3
1558438871139564,-3,-7,-6,-10,-11,0,-2,-4
1558438871139564,-1,-3,-2,-2,-5,3,-2,-2
1558438871148541,-3,2,2,-1,1,-4,-2,-1
1558438871148541,3,3,1,1,1,-9,1,1
1558438871154525,1,3,-4,-1,1,0,0,2
1558438871154525,-2,-7,-1,4,4,7,4,-1
1558438871169485,0,-1,1,0,0,5,4,0
1558438871169485,0,1,0,-3,-2,-3,-5,-2
1558438871176466,0,-5,2,-2,-5,0,-5,-5
1558438871176466,-3,-3,3,3,2,5,2,-1
1558438871191426,1,2,-4,0,-1,-5,1,3
1558438871191426,-2,-4,-4,-3,1,6,-3,-1
1558438871199404,1,-2,-2,-1,-1,-12,-5,0
1558438871199404,0,0,-2,-1,1,5,-5,-4
1558438871208381,-1,-2,3,5,8,7,3,1
1558438871208381,0,2,4,-5,-14,-29,-5,1
1558438871214379,-2,-2,-5,-7,-4,6,3,-1
1558438871214379,-1,4,8,3,-4,-4,-6,-4
1558438871229325,-1,-2,-9,-6,-3,3,0,-4
1558438871229325,0,-1,-7,6,9,11,7,2
1558438871237305,-1,-2,6,-1,1,4,3,1
1558438871237305,-2,-1,-6,-5,-5,-13,-3,0
1558438871251266,-3,-1,-1,0,-8,-7,-5,-4
1558438871251266,-1,-3,2,-1,-2,6,1,1
1558438871259246,0,0,-6,2,2,-2,0,-4
1558438871259246,0,2,3,0,-2,-3,0,-4
1558438871268221,-2,-2,-2,-1,1,0,-2,1
1558438871268221,-3,-4,-5,-3,-8,-4,-7,-5
1558438871282184,2,4,8,5,10,9,8,4
1558438871282184,1,1,-1,-2,3,1,1,1
1558438871289165,0,-1,0,-1,1,-4,2,0
1558438871289165,-3,-8,2,1,0,7,3,0
1558438871305123,-2,-4,-13,-9,-6,-3,-5,-3
1558438871305123,-1,7,9,3,-4,-5,-5,0
1558438871312103,-3,-3,-10,-4,-2,-5,-2,-1
1558438871312103,2,4,5,-2,3,4,2,-2
1558438871319087,-2,3,3,3,-5,-3,-4,-4
1558438871319087,-2,-8,-12,-2,0,-3,-2,1
1558438871328060,0,1,6,0,-2,-2,-2,-1
1558438871328060,-4,-7,-15,-8,-11,-3,-5,-5
1558438871342023,0,2,0,1,2,2,-4,-4
1558438871342023,1,0,2,2,6,5,3,0
1558438871349004,-3,-6,-2,-6,-5,2,-3,-5
1558438871349004,1,3,4,3,7,3,2,2
1558438871356983,0,1,4,0,4,-11,1,3
1558438871356983,1,0,7,2,-1,4,1,0
1558438871371945,-3,-3,-9,-7,-4,-5,-4,-2
1558438871371945,-2,-3,-3,1,-7,4,-3,-3
1558438871378928,1,1,-1,-2,3,1,0,0
1558438871378928,-1,-6,-6,-4,-7,-3,-6,-5
1558438871393884,0,-2,6,2,1,-7,-3,-1
1558438871393884,-2,0,-1,-2,1,0,1,-1
1558438871410839,-6,-3,0,3,5,7,1,0
1558438871410839,1,3,-8,-4,2,0,0,2
1558438871411837,-1,0,-2,-3,-7,4,-4,-2
1558438871411837,0,-1,2,-1,-3,-15,-5,-2
1558438871416824,-1,-4,-6,-1,0,3,5,1
1558438871416824,1,2,2,5,0,-5,1,1
1558438871431793,-3,-9,-8,-10,-4,2,-3,-4
1558438871431793,0,1,3,-4,-2,-2,-1,-1
1558438871438764,1,-2,4,3,-2,-6,-2,0
1558438871438764,0,3,4,1,-1,-4,1,-1
1558438871447741,2,1,3,5,8,6,5,2
1558438871447741,0,-2,-2,-5,-11,-4,-7,-3
1558438871462699,-4,-5,-8,-6,-7,2,-4,-4
1558438871462699,-1,-3,-2,1,0,2,2,-2
1558438871469682,-3,1,0,-2,-2,-8,-2,-1
1558438871469682,-1,3,4,0,4,-1,0,1
1558438871476663,0,2,-1,-2,-2,-6,-2,0
1558438871476663,-6,-8,-17,-6,-10,-4,-4,-3
1558438871491623,1,3,0,7,10,3,3,3
1558438871491623,2,0,1,2,7,4,0,3
1558438871499602,-1,2,-1,-5,-3,4,-4,-3
1558438871499602,-2,-6,2,-7,-5,2,2,-3
1558438871508578,2,1,8,8,6,-4,0,0
1558438871508578,-1,0,-7,-5,-8,-14,-1,-1
1558438871522542,-2,-4,4,4,3,5,2,1
1558438871522542,1,2,3,-5,-1,1,-1,1
1558438871529522,-1,-5,-10,-5,-7,-3,0,-2
1558438871529522,3,2,3,2,11,11,4,0
1558438871536503,-1,-1,-2,1,-2,-6,-5,-4
1558438871536503,-1,1,-1,0,7,7,3,3
1558438871551463,-1,3,2,-2,-4,-3,-3,-1
1558438871551463,-1,-3,-1,-1,-4,-6,-2,-2
1558438871559442,-1,-1,1,2,3,8,3,-4
1558438871559442,0,2,5,1,6,-4,-4,-1
1558438871568418,-2,-2,-6,-4,-11,-6,-8,-4
1558438871568418,-2,1,-1,2,2,7,4,2
1558438871582381,0,-1,-5,-3,4,4,1,2
1558438871582381,0,4,0,5,-8,-10,-7,-5
1558438871589361,-1,-3,2,-9,3,7,7,4
1558438871589361,-3,-2,0,-4,-11,-12,-6,-2
1558438871596343,-1,3,12,6,10,9,1,2
1558438871596343,-3,-11,-15,-9,-7,2,-1,-3
1558438871611303,-3,-2,-3,-1,-8,-5,-7,-4
1558438871611303,0,0,1,1,5,-1,-4,-2
1558438871619282,0,1,0,-1,0,-2,2,0
1558438871619282,1,0,-3,0,-3,-12,-5,-3
1558438871628258,-3,-2,-3,-3,-5,0,-4,-4
1558438871628258,-2,-1,1,-3,-1,5,4,0
1558438871642220,0,0,-3,-1,-8,-14,-6,-1
1558438871642220,-2,-2,3,-3,3,3,-4,-1
1558438871649201,1,1,-3,4,2,2,4,-1
1558438871649201,0,0,2,6,10,7,5,1
1558438871657180,-2,-5,-6,-7,-6,-2,-4,-4
1558438871657180,1,1,6,-3,-12,-17,-2,1
1558438871672140,2,4,9,7,6,10,8,2
1558438871672140,-2,-4,-10,-4,3,-1,-2,-1
1558438871679122,0,-3,0,1,7,3,1,-2
1558438871679122,-1,0,-4,-2,-5,-2,-3,-1
1558438871688098,0,4,4,-1,0,2,-1,-1
1558438871688098,-2,-8,-2,-3,-20,-13,-14,-8
1558438871702061,-3,1,-13,-7,1,0,1,3
1558438871702061,-4,-3,0,2,2,-8,-3,-1
1558438871709042,-2,-2,-4,-1,1,-2,2,1
1558438871709042,4,3,9,4,10,6,8,3
1558438871717020,-3,-8,-11,-11,-20,-2,-4,-4
1558438871717020,0,4,1,5,6,-5,2,2
1558438871731980,1,-2,-4,-6,-7,-8,-9,-5
1558438871731980,-3,-3,-1,1,9,16,-1,-1
1558438871738961,0,0,3,5,9,1,5,0
1558438871738961,1,1,-1,0,2,7,3,-1
1558438871747938,-2,0,8,3,-3,3,-3,-2
1558438871747938,1,2,-5,-5,-12,-32,-10,-3
1558438871762897,-3,-9,-10,-5,-10,-6,-4,-4
1558438871762897,-3,-2,1,8,12,15,5,1
1558438871768881,-1,2,-3,-13,-3,-5,0,0
1558438871768881,-3,-1,-2,3,-4,4,-3,-4
1558438871776859,2,-3,3,0,-2,-8,-1,1
1558438871776859,-1,-3,-1,-4,-5,1,-4,-4
1558438871791820,0,0,-2,5,1,1,2,0
1558438871791820,-2,-1,-7,-7,-12,-5,-8,0
1558438871798802,2,2,13,8,13,8,6,1
1558438871798802,1,1,-8,1,5,3,2,-1
1558438871813761,0,-1,-1,0,3,3,0,1
1558438871813761,-1,-2,-2,-5,-6,-1,-1,-2
1558438871822736,-3,-5,-10,-4,-9,-4,-8,-4
1558438871822736,-1,0,2,-2,-3,-6,0,3
1558438871837697,1,-1,0,-3,0,-2,2,0
1558438871837697,-1,-2,4,5,2,-10,1,-1
1558438871837697,-1,4,1,-2,-9,-5,-8,-4
1558438871837697,-2,-2,0,-5,-1,7,2,-2
1558438871851658,0,-1,-3,2,6,0,0,2
1558438871851658,-1,-3,-2,-3,-3,-3,-4,-4
1558438871859638,1,5,6,3,9,1,2,1
1558438871859638,-3,-4,-3,-5,-11,-7,-7,-4
1558438871874598,0,2,5,4,-5,-10,0,-1
1558438871874598,-2,-4,-1,8,10,10,7,1
1558438871881581,1,-3,-7,-7,-1,6,4,0
1558438871881581,-3,-3,-8,-3,-4,-4,-4,-4
1558438871898534,-3,0,3,3,1,1,-3,0
1558438871898534,2,3,5,2,2,-5,3,3
1558438871899531,0,0,-4,-4,-8,-15,-4,-1
1558438871899531,0,1,11,7,7,13,2,0
1558438871913495,-4,-3,-14,-5,-11,-8,-9,-6
1558438871913495,-1,0,0,0,10,15,7,1
1558438871919478,-2,-3,-2,-2,-7,-1,-4,0
1558438871919478,0,0,-1,-5,-5,-2,1,1
1558438871934438,-2,0,1,-1,3,0,-1,1
1558438871934438,-2,3,-5,-5,-8,-7,-4,-3
1558438871941418,-2,-4,0,3,6,-2,-3,1
1558438871941418,0,-2,1,0,1,1,0,3
1558438871957376,2,0,-2,-2,1,4,1,-5
1558438871957376,-1,-4,-3,0,0,-2,1,0
1558438871958373,-3,1,1,-1,-7,-9,-2,-3
1558438871958373,1,3,-1,-1,-4,-5,-2,-1
1558438871971339,0,-4,-3,0,0,7,-1,1
1558438871971339,-1,-2,-3,-3,-9,-5,-6,-4
1558438871979317,4,2,2,4,10,6,8,3
1558438871979317,-2,-1,-3,-2,0,-3,-1,0
1558438871994278,-1,-2,-1,-1,-5,2,-1,-2
1558438871994278,0,-1,4,3,12,11,5,1
1558438872001259,-1,2,4,-6,-10,-7,-4,-3
1558438872001259,0,-3,-12,-7,-6,-5,-5,-6
1558438872017215,-3,-6,-6,-2,-6,-2,-4,-3
1558438872017215,0,-1,0,0,6,10,0,3
1558438872018213,2,6,5,3,2,-4,1,3
1558438872018213,1,0,5,2,5,0,5,2
1558438872032178,-2,-4,0,-5,-4,0,-4,-6
1558438872032178,-2,-3,-6,-5,-7,-6,-3,-1
1558438872039192,1,-1,-1,4,-4,-14,-8,0
1558438872039192,-5,-2,-7,-8,-4,10,2,-3
1558438872054118,0,2,1,-1,2,2,1,-1
1558438872054118,1,-3,-5,-1,-4,-11,-5,-3
1558438872062096,-2,-6,-1,-3,-4,-1,-5,-1
1558438872062096,1,3,1,2,9,10,7,3
1558438872077057,-1,0,-2,-1,5,-5,0,2
1558438872077057,-1,3,2,-5,-3,2,0,-2
1558438872078054,-4,-6,-14,-6,-12,-4,-9,-8
1558438872078054,-1,-7,4,2,3,-3,4,2
1558438872092016,1,1,0,2,3,-1,-1,-4
1558438872092016,-1,2,2,-5,-4,-5,-1,-2
1558438872099033,1,1,3,3,4,6,2,-1
1558438872099033,-2,3,0,1,-4,-4,-6,-2
1558438872113958,-1,-1,5,-2,-1,-2,1,0
1558438872113958,-1,-5,-7,-3,-7,-9,-4,-2
1558438872121941,-1,0,-2,-2,2,-6,4,2
1558438872121941,-1,-1,1,0,-5,-5,-8,-5
1558438872136923,-4,-2,-4,-2,-3,-4,-5,-1
1558438872136923,1,-2,3,3,7,11,4,0
1558438872137895,-2,-1,-1,-2,0,6,3,0
1558438872137895,-1,-4,-3,-3,-6,-10,-9,-3
1558438872151891,0,0,-1,-1,-7,2,0,0
1558438872151891,0,3,0,-1,-3,-10,-2,2
1558438872158879,-1,-2,1,-2,0,1,-1,-2
1558438872158879,-1,-5,0,-1,0,-8,-2,-2
1558438872173797,-1,-2,-6,-3,1,0,1,1
1558438872173797,-2,-2,-4,-6,-9,-2,-6,-3
1558438872181811,1,2,8,1,1,2,1,-1
1558438872181811,-3,0,-6,-2,-3,3,0,-1
1558438872206711,0,0,1,0,0,0,2,0
1558438872206711,-1,-1,-7,1,5,0,3,2
1558438872207708,-2,0,3,-1,-6,-3,-4,-1
1558438872207708,-1,0,-6,1,1,4,2,-1
1558438872211697,1,-2,-1,-2,1,-4,-3,-1
1558438872211697,-2,-2,-3,5,6,5,0,-1
1558438872219713,-1,3,2,-3,-1,-7,-3,-1
1558438872219713,0,1,7,4,8,6,8,3
1558438872234665,-2,-5,-4,-4,-4,-8,2,3
1558438872234665,1,-1,1,-3,-7,-1,-8,-7
1558438872241617,-2,-5,-8,2,6,13,0,-2
1558438872241617,1,2,5,0,-6,-6,-4,-3
1558438872256577,-2,-1,0,0,3,9,5,0
1558438872256577,-1,-2,1,1,-3,-8,1,1
1558438872264557,-1,-5,-6,-2,-1,-3,-3,-2
1558438872264557,-1,0,-4,-4,-3,2,1,-3
1558438872271572,-2,0,1,0,-4,-5,-5,0
1558438872271572,0,-2,2,-1,1,-1,-2,-1
1558438872279514,-1,0,-1,0,2,5,3,0
1558438872279514,3,-2,1,-1,5,-5,1,0
1558438872294476,-6,-5,-2,1,-4,0,-2,-3
1558438872294476,-4,-2,3,-3,4,10,1,-1
1558438872301518,-2,-2,-6,-2,-7,-11,-5,-2
1558438872301518,-1,-2,-1,-1,-4,-5,-3,-1
1558438872316416,3,0,3,4,1,-8,-2,0
1558438872316416,-1,-1,-5,-5,-5,-4,-3,-1
1558438872324397,3,1,4,7,3,0,4,-2
1558438872324397,-2,0,-6,-7,-2,9,-3,0
1558438872331376,2,3,11,8,8,2,5,4
1558438872331376,-1,0,-6,-5,-10,-10,-1,0
1558438872339381,0,-6,-3,-1,-2,3,-3,-1
1558438872339381,-1,0,6,4,2,-1,1,0
1558438872354315,-5,-5,-14,-8,-4,-2,-7,-7
1558438872354315,1,1,-1,0,-7,4,-2,-2
1558438872361332,1,2,3,4,3,-5,5,4
1558438872361332,-5,-8,-17,-16,-17,-4,-9,-8
1558438872376260,-1,1,2,0,9,7,6,0
1558438872376260,1,3,6,4,11,-9,4,5
1558438872385233,-3,-3,-3,-8,-13,-10,-11,-9
1558438872385233,2,0,2,4,1,-1,0,3
1558438872400191,1,4,1,0,3,14,4,-2
1558438872400191,-4,-7,-3,0,-3,0,-3,-3
1558438872400191,0,2,4,-2,5,-8,5,4
1558438872400191,0,4,7,5,1,1,-1,-1
1558438872422191,0,-4,-6,-3,-5,-4,-6,1
1558438872422191,-3,-3,-14,-3,3,1,-1,-2
1558438872423131,-3,-2,-3,-4,-3,10,1,-3
1558438872423131,0,1,13,8,11,3,4,2
1558438872437129,-1,-2,-14,-7,-1,-15,-5,1
1558438872437129,-2,0,5,-1,-2,6,0,-2
1558438872445071,-2,-4,-1,-2,-5,2,-5,-4
1558438872445071,0,1,-2,2,3,-1,0,-1
1558438872460033,2,4,5,3,2,0,-1,0
1558438872460033,-1,-2,3,0,1,5,4,-2
1558438872461031,-3,-3,-1,-3,-3,-6,-6,-1
1558438872461031,-1,1,5,5,9,11,6,3
1558438872474022,-3,-4,-18,-10,0,-3,0,-1
1558438872474022,-4,-6,-6,-5,-7,-7,-7,-3
1558438872481973,-1,-4,-3,-2,0,5,-2,-3
1558438872481973,-2,0,8,3,-11,-11,0,1
1558438872496933,0,0,6,2,-4,-6,1,0
1558438872496933,1,0,-4,-3,2,2,4,3
1558438872504953,1,2,1,0,-1,1,-1,-2
1558438872504953,-1,-3,-10,-3,-1,0,-1,-3
1558438872519873,-3,-5,7,0,1,3,-1,0
1558438872519873,-2,1,2,1,0,1,-2,-3
1558438872520870,-1,0,1,2,5,3,5,1
1558438872520870,1,-1,-6,-3,-3,-6,-5,-4
1558438872533835,0,2,5,-5,-12,-6,-5,-3
1558438872533835,-1,-2,-5,-2,1,-2,3,1
1558438872541814,-5,-1,-7,-5,-5,3,-6,-1
1558438872541814,0,2,-3,0,-1,-3,2,-1
1558438872556800,1,0,8,4,4,-2,-2,0
1558438872556800,-1,-5,-9,-2,-4,0,-6,1
1558438872564754,-3,-1,1,-4,-7,-5,-3,-4
1558438872564754,-1,-2,-3,1,3,2,-1,0
1558438872579711,-1,-1,-6,-2,-1,5,1,2
1558438872579711,1,1,4,-1,-4,-13,-2,-2
1558438872580709,-1,-1,-6,-2,1,10,5,-1
1558438872580709,-1,-3,8,1,-2,-9,-9,-3
1558438872602651,0,-4,1,2,7,3,9,1
1558438872602651,0,-1,-5,3,12,17,8,2
1558438872602651,0,2,0,1,-2,-5,-3,-1
1558438872602651,-1,-3,2,-2,1,3,0,0
1558438872616612,-6,1,-10,-7,-11,-10,-7,-4
1558438872616612,1,2,4,6,4,-9,-1,2
1558438872624591,1,-2,1,-4,7,8,0,1
1558438872624591,0,0,-6,-8,-3,2,-1,-4
1558438872640550,-3,1,8,3,-1,-3,1,-2
1558438872640550,-2,0,2,-2,-3,-3,-1,-2
1558438872641547,-2,-1,-2,2,1,0,6,2
1558438872641547,-2,-4,-9,-5,-6,-9,-4,0
1558438872663488,2,1,1,-3,-5,3,-3,-2
1558438872663488,-2,-8,-5,-2,1,4,1,-4
1558438872663488,1,1,8,1,1,-1,0,-1
1558438872663488,0,-4,-7,-3,-3,-2,-1,0
1558438872676452,1,1,-2,3,13,10,9,3
1558438872676452,-4,0,3,-2,-5,0,-3,-1
1558438872684431,-2,-3,-9,-8,-9,-8,-7,-2
1558438872684431,-4,-1,8,2,1,8,0,-2
1558438872700876,1,1,-5,-2,-5,-4,1,-1
1558438872700876,0,0,4,0,0,-5,-2,-1
1558438872700876,-2,0,-7,-4,-6,1,1,0
1558438872700876,-4,-2,-6,-3,0,0,-1,-3
1558438872714354,1,-1,8,5,0,-1,-5,-1
1558438872714354,1,4,6,-1,-1,2,-2,-1
1558438872721334,-2,-7,-17,-2,5,-2,7,-1
1558438872721334,-1,3,3,-1,-6,3,0,-2
1558438872737155,-4,-7,-11,-8,-4,2,-3,-5
1558438872737155,3,2,9,4,-4,-15,-5,-1
1558438872744763,0,2,2,1,2,-1,-1,1
1558438872744763,-1,0,0,-1,1,2,3,1
1558438872760113,0,-7,-2,-1,1,2,2,0
1558438872760113,-2,-2,-3,-4,-11,0,-3,-6
1558438872760722,2,3,9,5,6,4,3,2
1558438872760722,0,3,-1,0,7,6,7,3
1558438872775082,-2,-1,-9,-7,-12,-8,-10,-3
1558438872775082,-1,0,-5,1,-2,0,1,-1
1558438872781665,2,1,13,1,-1,-2,-2,0
1558438872781665,-3,-6,-10,-5,1,-7,-7,-5
1558438872796623,-1,3,1,3,-3,-8,0,0
1558438872796623,-5,-1,-6,-4,-3,-12,-3,-2
1558438872805720,-1,-2,1,1,8,11,0,-1
1558438872805720,2,2,7,2,0,-3,1,3
1558438872819926,1,-1,5,1,-1,-4,-2,1
1558438872819926,-1,-1,-5,-10,-8,3,1,0
1558438872820561,-4,-4,-4,1,-14,-9,-5,-6
1558438872820561,-1,-2,-5,-4,-5,-7,-3,0
1558438872834919,0,-1,2,3,5,3,1,1
1558438872834919,1,6,7,1,8,11,3,4
1558438872842530,-2,-4,-7,-1,1,-4,-1,-1
1558438872842530,-7,-9,-6,-5,-10,-9,-10,-8
1558438872857551,1,5,2,0,4,2,-1,1
1558438872857551,1,0,2,0,9,6,4,2
1558438872865881,-2,-2,-1,-2,-7,-9,-6,-1
1558438872865881,2,1,-8,-2,-3,6,2,-1
1558438872880028,-1,-1,2,-1,-4,0,-1,-1
1558438872880028,-2,-4,0,1,2,-5,-4,-2
1558438872880847,0,0,-7,-11,-11,-12,-4,-1
1558438872880847,-1,2,8,1,0,7,2,1
1558438872895004,-4,-2,3,-1,-4,-3,-8,-5
1558438872895004,2,1,-7,5,8,4,4,3
1558438872902063,-1,-2,-2,-7,-5,-3,-1,-2
1558438872902063,-2,-2,1,2,3,-2,-4,-1
1558438872917027,-2,-2,-4,-8,-1,3,0,2
1558438872917027,-1,-3,4,1,-9,-8,-5,-4
1558438872925756,1,-4,3,4,-1,-7,-4,-2
1558438872925756,-2,0,-6,-6,0,12,10,4
1558438872940717,0,0,6,1,2,1,-1,-1
1558438872940717,-2,-6,-10,-5,-1,1,2,-1
1558438872940717,-1,2,0,3,4,4,1,2
1558438872940717,-2,0,-4,-3,-7,-5,-6,-4
1558438872954649,-3,-6,-1,-4,3,6,5,1
1558438872954649,-1,3,2,0,4,-1,4,5
1558438872961949,0,4,5,6,3,2,0,0
1558438872961949,0,-3,1,-1,-1,-6,-2,0
1558438872976909,-3,-4,-10,-5,-15,-10,-11,-7
1558438872976909,0,-1,-1,2,0,2,5,1
1558438872985630,1,0,-1,-3,5,-1,6,2
1558438872985630,3,2,2,0,-4,-14,-8,-1
1558438873000555,0,3,4,4,-1,3,6,3
1558438873000555,-3,-3,1,-1,-3,7,-6,-4
1558438873000555,1,-2,-5,-1,5,8,5,3
1558438873000555,2,-1,4,1,3,-10,4,1
1558438873014488,-2,0,-6,-4,-2,3,0,-1
1558438873014488,-3,-3,-3,1,-4,-1,-7,-4
1558438873021470,1,0,2,3,8,-5,-2,-1
1558438873021470,0,0,3,-1,0,10,1,1
1558438873038422,-2,-3,-9,-4,-5,-3,-6,-5
1558438873038422,-1,3,7,0,4,5,10,4
1558438873044406,0,-1,-3,1,0,-7,-2,2
1558438873044406,-4,-3,-5,-2,2,-3,-1,-2
1558438873060806,0,-1,2,1,-1,-4,-6,-2
1558438873060806,-4,-4,-4,-2,-14,-3,-10,-7
1558438873060806,-1,2,5,-7,5,10,5,0
1558438873060806,1,4,6,7,4,-20,-1,-1
1558438873074326,-3,-12,-12,-9,-3,3,5,-1
1558438873074326,-1,-2,-9,-11,-10,-4,-6,-6
1558438873082565,-5,-5,-2,0,-7,1,-3,-4
1558438873082565,1,2,2,3,9,16,4,4
1558438873096765,2,7,11,4,9,-6,3,4
1558438873096765,-6,-9,-13,-4,-10,-7,-1,-1
1558438873105537,-1,-3,-2,-1,-6,-5,-8,-4
1558438873105537,1,-1,-2,-2,-4,5,-1,-1
1558438873119845,1,-2,-8,0,2,-5,2,-1
1558438873119845,0,2,3,-1,3,-2,-2,-1
1558438873127484,-6,-3,2,0,-9,-2,-10,-5
1558438873127484,-5,-4,-3,-1,1,2,-1,-2
1558438873134790,0,1,-1,6,3,-3,-1,-2
1558438873134790,3,1,-4,-10,-8,-5,0,1
1558438873141776,-1,-1,-2,-1,-5,-7,-2,0
1558438873141776,-1,-2,2,1,4,0,0,-1
1558438873156442,-2,2,3,-2,-6,-4,-6,-2
1558438873156442,-2,-4,-4,0,-4,1,-5,-3
1558438873164385,-3,-6,-4,0,0,2,-1,-3
1558438873164385,0,1,1,2,7,0,5,4
1558438873179672,4,3,4,2,5,6,4,1
1558438873179672,1,0,3,-2,-6,-2,-6,-2
1558438873187627,3,4,5,1,9,3,6,3
1558438873187627,-6,-3,-1,0,-5,0,-3,-3
1558438873202320,-7,-6,-10,-9,-11,-7,-6,-5
1558438873202320,0,0,1,2,1,-6,0,0
1558438873203280,1,-1,2,3,6,4,4,2
1558438873203280,2,1,6,-11,-20,-8,-8,2
1558438873217417,0,-2,-10,-1,6,6,4,-1
1558438873217417,-2,-5,-12,-3,1,0,2,-1
1558438873225559,-3,1,-7,-10,-11,-10,-12,-5
1558438873225559,-2,-6,-1,2,8,5,4,-1
1558438873239525,1,2,9,3,-2,2,-1,4
1558438873239525,0,3,4,2,6,5,1,1
1558438873247163,2,0,4,4,1,4,2,-3
1558438873247163,-3,-3,-11,-7,-10,-8,-5,-3
1558438873254446,1,-1,-1,1,6,2,2,-1
1558438873254446,-6,-2,4,2,8,3,3,1
1558438873262123,-3,-3,-9,-8,-13,-7,-11,-5
1558438873262123,-2,-2,-4,-5,-5,5,-5,-2
1558438873277384,2,0,2,5,5,-8,2,-1
1558438873277384,2,5,10,3,5,7,2,-1
1558438873285314,-3,-4,-11,-4,-2,-6,-1,-1
1558438873285314,0,-1,-5,3,-2,-3,-1,-1
1558438873300052,1,3,8,4,-1,2,1,2
1558438873300052,0,-3,-5,-8,-2,-4,0,1
1558438873307031,-4,-4,-7,-5,-10,-5,-6,-4
1558438873307031,-1,2,7,5,-2,-7,1,-2
1558438873323393,-3,-5,-9,-5,2,4,-4,0
1558438873323393,1,1,3,5,10,4,6,2
1558438873323393,3,1,1,6,1,-9,1,0
1558438873323393,-1,4,0,-4,3,1,3,1
1558438873337318,-4,-2,4,-2,-8,-1,-6,-5
1558438873337318,-2,-5,-3,-4,-12,-6,-6,-2
1558438873345920,-1,-2,-2,0,0,-5,4,0
1558438873345920,3,2,0,-5,5,8,2,-2
1558438873360061,-4,-4,-4,-1,-3,-2,-5,-2
1558438873360061,1,0,1,2,6,8,0,-1
1558438873368307,2,2,9,4,5,4,5,4
1558438873368307,-2,-5,-15,-5,-8,-5,-5,-5
1558438873383214,-2,0,-1,-5,-6,2,-2,-4
1558438873383214,-3,-3,-1,4,-8,-11,-9,-5
1558438873383214,-1,2,6,-3,6,9,9,5
1558438873383214,0,3,4,4,4,-8,0,2
1558438873396766,-4,-4,-8,-6,-5,3,-6,-3
1558438873396766,2,4,11,9,7,2,3,3
1558438873405247,-3,-5,-8,-6,-7,-5,-4,-3
1558438873405247,-2,-7,-5,-2,-7,0,-7,-5
1558438873419245,2,-1,-5,-9,-13,-9,-5,-6
1558438873419245,-3,-5,-4,-5,-11,-7,-7,-5
1558438873427225,2,2,7,6,14,14,9,3
1558438873427225,0,-2,-6,-1,6,0,2,4
1558438873442185,0,0,10,7,5,-4,3,3
1558438873442185,-1,-4,-11,-9,-9,-4,-7,-3
1558438873443146,-5,-6,-14,-6,-9,-4,-8,-4
1558438873443146,3,2,8,5,10,14,9,2
1558438873457109,0,2,6,7,6,1,3,1
1558438873457109,-3,-3,0,-5,-6,-7,-4,-3
1558438873465087,-2,-3,-12,-7,-8,8,-7,-7
1558438873465087,-1,1,11,4,0,-7,-5,-1
1558438873479516,1,-2,-11,2,9,4,7,5
1558438873479516,1,3,-1,-8,0,-14,0,0
1558438873488146,1,-3,4,4,-1,7,-1,0
1558438873488146,-5,-6,-14,-9,-23,-4,-7,-7
1558438873503236,-3,-1,6,2,2,5,0,0
1558438873503236,0,0,2,4,5,-2,1,1
1558438873503236,-2,2,2,2,-2,-2,0,-3
1558438873503236,-2,2,-2,-2,-2,-7,-3,0
1558438873517406,1,-1,4,-1,-1,-2,1,-1
1558438873517406,-1,-3,-8,0,9,7,7,-1
1558438873525399,1,1,0,-1,-1,-1,-3,-1
1558438873525399,0,3,-1,-2,-11,-12,-8,-3
1558438873540013,-1,-6,-1,-3,-5,-5,-6,-1
1558438873540013,1,4,4,4,3,6,3,1
1558438873546993,-3,-2,0,-5,-2,-5,-2,-3
1558438873546993,-3,-3,-6,2,-1,5,-2,-3
1558438873561954,1,2,2,-5,0,8,6,3
1558438873561954,4,3,7,5,11,-8,8,7
1558438873562949,0,-4,2,-2,7,-6,1,1
1558438873562949,-1,0,5,5,2,-2,-4,-2
1558438873577244,-5,-5,-13,-7,-10,-7,-13,-6
1558438873577244,-2,-2,2,-1,1,18,0,-3
1558438873584891,0,3,2,-1,-6,-9,-5,-1
1558438873584891,-2,-3,-10,-2,6,7,4,-2
1558438873599976,0,0,1,-1,-8,-4,-5,-2
1558438873599976,-2,0,0,-3,-3,-16,-6,1
1558438873608127,0,0,0,1,2,5,-4,-2
1558438873608127,-1,-1,8,-2,-2,4,-2,-2
1558438873623146,-2,-2,-9,-4,-3,2,0,-2
1558438873623146,5,0,3,6,7,-14,4,7
1558438873623146,-3,-2,0,1,-1,4,2,-2
1558438873623146,0,-3,-1,-3,-4,-12,-5,-2
1558438873637162,-3,3,-4,-2,-1,6,0,-3
1558438873637162,-2,1,-3,0,-5,2,-8,-3
1558438873645483,-1,1,-2,-2,9,10,5,3
1558438873645483,1,4,15,7,5,2,7,4
1558438873659453,-5,-8,-22,-6,-10,-13,-8,-6
1558438873659453,-3,-5,-2,-9,-17,-4,-5,-3
1558438873667123,4,3,0,-1,-4,-8,-1,0
1558438873667123,-2,-3,-3,-2,-4,4,-4,-3
1558438873682042,0,2,7,3,-3,-11,-4,-1
1558438873682042,-1,2,0,-2,-1,-7,1,0
1558438873683040,-1,-3,-2,1,0,8,-3,-3
1558438873683040,-1,-5,-6,-1,0,-4,2,0
1558438873697004,1,1,6,3,9,-6,2,2
1558438873697004,-1,-2,-4,-1,0,8,-2,-4
1558438873703983,-2,1,2,3,-4,-1,-2,-3
1558438873703983,-6,-4,-10,-10,-15,-8,-10,-7
1558438873718943,2,4,9,4,10,2,2,5
1558438873718943,0,1,3,1,5,7,3,1
1558438873726922,-4,-4,-11,1,9,7,5,3
1558438873726922,0,0,-5,-5,-5,-2,-3,-3
1558438873742879,-4,-5,1,-1,-6,-5,-4,-2
1558438873742879,2,2,9,6,-3,-6,-6,-1
1558438873742879,-1,-1,-1,-3,-5,-1,-2,0
1558438873742879,0,4,-9,-5,-4,-4,1,-1
1558438873756900,1,3,4,-1,-2,1,0,-2
1558438873756900,-2,0,-3,0,9,16,10,1
1558438873763823,-3,-3,-4,-5,-4,-3,0,4
1558438873763823,3,1,4,4,4,-9,-2,-1
1558438873779899,-1,-2,-4,-1,-7,6,-1,-4
1558438873779899,-3,-5,-6,-4,-3,8,-2,-3
1558438873795739,3,2,13,4,9,-1,4,1
1558438873795739,1,2,3,3,13,7,6,4
1558438873802959,1,0,-7,-8,-3,2,-3,-1
1558438873802959,-7,-10,-10,-5,-10,-2,-8,-8
1558438873802959,-2,2,1,2,-5,-13,-7,-1
1558438873802959,-1,-8,0,5,8,7,5,3
1558438873816924,-3,-1,1,-3,2,5,0,-2
1558438873816924,-1,3,-5,-1,-3,-1,-2,-2
1558438873824833,-2,1,5,1,-5,-9,-1,-3
1558438873824833,-4,-2,-6,-1,2,2,3,0
1558438873839957,1,-2,-4,-3,-5,-14,-1,1
1558438873839957,1,2,-2,-4,0,3,-1,-1
1558438873847600,0,-4,-3,-1,-4,-4,-1,-1
1558438873847600,0,1,5,3,3,10,1,0
1558438873862899,1,-2,-3,-2,3,-2,-1,1
1558438873862899,-2,-3,-4,1,0,-8,0,-1
1558438873862899,-3,-2,-4,-6,-4,6,-1,-4
1558438873862899,-1,-1,-4,0,-1,-2,0,0
1558438873876558,0,2,-2,1,0,4,0,2
1558438873876558,0,-3,3,-4,-4,-8,-5,-5
1558438873884836,0,0,-1,2,6,-4,2,0
1558438873884836,-3,-3,-8,-8,-9,-5,-2,-2
1558438873899779,-2,-9,2,2,7,10,0,1
1558438873899779,2,2,6,1,0,4,-5,2
1558438873907775,-2,-6,-12,-9,-6,-1,-3,-1
1558438873907775,0,2,5,1,6,-1,2,1
1558438873922429,0,2,1,3,-5,-24,2,1
1558438873922429,0,0,4,0,1,4,5,1
1558438873923398,-1,-1,-2,0,2,3,-4,-3
1558438873923398,-2,-1,-2,-3,-9,-7,-10,-4
1558438873936730,0,4,4,2,8,13,5,3
1558438873936730,-2,-3,-6,-5,-6,-10,-2,0
1558438873945008,0,1,1,-1,-1,3,-1,-4
1558438873945008,-1,-2,-6,2,3,0,-1,-2
1558438873959667,1,4,1,-8,-12,-11,-3,-2
1558438873959667,1,3,2,1,0,-4,-1,0
1558438873967996,-3,-9,-2,-3,-7,-8,-4,-3
1558438873967996,1,0,7,0,2,-5,0,1
1558438873982919,2,2,5,5,12,14,4,2
1558438873982919,-4,-7,-8,-2,-2,-3,-2,-2
1558438873982919,-2,-1,-4,-12,-12,-9,-8,-2
1558438873982919,-1,-1,-1,-2,-3,-4,-5,-1
1558438873996599,-1,-3,0,-1,-3,-4,-1,-1
1558438873996599,1,3,-1,-3,1,3,1,0
1558438874004550,0,1,1,3,-11,-9,-9,-2
1558438874004550,-4,-7,-11,-4,1,5,4,-1
1558438874019507,-2,0,-2,-1,5,4,2,1
1558438874019507,-1,-2,0,4,1,-1,-2,0
1558438874027486,-1,4,2,-3,-3,-1,1,-2
1558438874027486,-2,-1,1,-4,-5,-5,-6,-4
1558438874042921,-3,-4,-6,-3,-8,-1,-6,-4
1558438874042921,-1,-1,-4,-4,-5,-7,-4,0
1558438874043444,2,-1,1,2,1,5,1,-6
1558438874043444,2,2,4,2,8,-1,1,2
1558438874064389,-2,-3,-3,-3,0,4,2,1
1558438874064389,0,-2,2,-1,-1,-5,-3,-1
1558438874065384,-2,1,-2,-2,2,0,1,2
1558438874065384,0,4,-2,-2,-2,5,-2,-2
1558438874079654,-6,-12,-4,2,3,6,1,-3
1558438874079654,1,3,1,1,-1,-4,-1,0
1558438874087366,-1,-3,0,-1,-3,-3,-4,0
1558438874087366,-3,-3,-11,-6,-12,-5,-6,-6
1558438874102549,-1,6,2,1,5,7,6,2
1558438874102549,-2,-1,0,2,4,0,-2,1
1558438874110567,1,2,4,4,6,4,4,3
1558438874110567,0,-2,4,0,-4,-7,1,2
1558438874116277,0,-3,-2,-3,-8,-12,-8,-2
1558438874116277,-4,-3,-1,-3,-9,0,-5,-7
1558438874124256,1,0,1,1,7,2,5,3
1558438874124256,-1,-2,-4,-3,-4,2,1,-1
1558438874139191,-2,-6,-4,-2,-3,0,0,-2
1558438874139191,2,2,1,1,4,-12,3,2
1558438874147170,-3,1,-5,3,0,4,1,0
1558438874147170,0,5,2,1,2,0,2,-1
1558438874162128,-3,-8,3,-3,-3,0,-3,-2
1558438874162128,-3,-2,-11,-5,-8,3,-3,-3
1558438874170133,-4,-3,-5,1,2,-6,-1,-2
1558438874170133,2,1,4,-1,5,6,1,1
1558438874177090,1,5,5,1,-3,-7,-4,-1
1558438874177090,2,-2,0,-2,0,2,2,1
1558438874184097,-1,-2,0,2,3,9,1,-1
1558438874184097,-3,-3,1,1,-7,-3,-5,-2
1558438874201036,4,2,-5,0,6,-1,4,2
1558438874201036,-3,-3,-2,-3,2,4,4,1
1558438874207034,1,1,-5,-3,1,-3,3,3
1558438874207034,-3,-6,-1,0,-1,-2,-4,-1
1558438874221968,0,3,8,5,-4,5,-4,-3
1558438874221968,0,-1,-7,-1,3,10,1,0
1558438874229944,-1,-3,-4,-4,-10,-10,-4,-2
1558438874229944,-2,-1,-15,-8,-2,4,1,-2
1558438874236955,-3,0,1,3,-6,-21,-9,-3
1558438874236955,-5,-5,3,0,-1,-11,-2,-1
1558438874243940,-3,-4,-2,-1,-1,3,8,2
1558438874243940,0,0,9,4,5,7,-2,0
1558438874258901,-2,3,-12,-4,-3,3,-3,-4
1558438874258901,0,-1,2,1,-7,1,0,-4
1558438874266875,0,-2,4,-1,3,-1,-5,-4
1558438874266875,2,-1,-1,1,3,0,7,3
1558438874281837,2,3,7,4,6,7,1,-1
1558438874281837,-3,-5,-8,-8,-8,-7,-1,0
1558438874289816,-2,0,-5,-6,-1,-7,-5,-5
1558438874289816,-2,-2,-3,-11,-19,-16,-8,-2
1558438874304776,1,3,7,5,15,15,13,3
1558438874304776,0,-2,3,1,-1,9,-3,-2
1558438874305744,0,-4,-11,-1,-1,-4,0,0
1558438874305744,-3,2,-1,-3,-1,1,-2,-2
1558438874318740,-3,-6,2,-4,-5,-14,-7,-1
1558438874318740,-1,1,-1,0,-3,-3,-1,-1
1558438874327721,0,2,4,2,4,-6,1,2
1558438874327721,1,0,0,2,9,9,3,0
1558438874341682,1,2,-4,-4,-8,-7,1,0
1558438874341682,-1,3,1,0,1,-6,2,-1
1558438874349656,-4,-8,-4,-3,-6,3,-5,-5
1558438874349656,-1,-3,5,1,-4,-4,-6,-3
1558438874364585,1,0,-1,-3,0,4,1,-1
1558438874364585,1,3,4,10,13,9,6,1
1558438874365582,0,0,-9,-11,-7,-6,-2,2
1558438874365582,0,0,5,1,0,-2,-4,0
1558438874379581,-6,-4,-6,-5,-6,-4,-6,-6
1558438874379581,1,2,7,4,12,8,3,2
1558438874387688,-2,-2,-7,3,-3,4,0,0
1558438874387688,-2,-1,-4,-3,1,6,4,-2
1558438874401524,-3,-3,-8,-5,-9,-13,-11,-5
1558438874401524,1,4,7,5,4,-3,1,2
1558438874409570,0,1,10,2,1,2,-1,-1
1558438874409570,0,-6,-10,-5,-4,-11,-4,-1
1558438874425295,0,0,0,1,0,2,6,4
1558438874425295,-4,-1,-6,-3,-1,0,0,-3
1558438874425295,4,6,10,4,8,16,7,2
1558438874425295,0,1,0,4,-2,-1,-5,-1
1558438874439291,-3,-9,-1,-5,-4,0,-7,-6
1558438874439291,-1,-4,-8,-15,-13,-8,-4,2
1558438874447242,-1,-1,-1,1,5,5,2,0
1558438874447242,0,5,5,2,0,2,5,1
1558438874461232,0,1,-2,4,9,8,3,3
1558438874461232,-4,-2,-2,-3,-5,-5,-8,-5
1558438874471175,-2,-3,-1,-4,-12,-10,-6,-4
1558438874471175,0,-4,-3,0,5,-2,2,1
1558438874485138,-2,3,2,-1,-6,4,1,-1
1558438874485138,2,3,2,3,7,-9,1,1
1558438874485138,1,-4,-4,-1,-2,-1,-3,1
1558438874485138,-4,-1,0,-2,0,4,0,-4
1558438874499133,0,0,-2,0,-1,2,2,4
1558438874499133,-3,-4,-10,-13,-12,2,-3,-7
1558438874515059,0,-2,2,0,-5,-8,-1,0
1558438874515059,2,-2,4,2,-3,-10,-6,-3
1558438874522040,-4,-3,4,0,0,4,-2,-5
1558438874522040,-7,-5,-10,-5,-5,-1,1,1
1558438874530020,0,3,7,4,1,3,-3,0
1558438874530020,-3,-6,-8,-5,-10,-9,-5,-1
1558438874544978,6,3,0,2,-1,-9,4,4
1558438874544978,3,3,12,9,15,17,0,0
1558438874545976,0,0,-8,-7,0,4,6,0
1558438874545976,-1,-2,-5,0,-1,-14,2,0
1558438874559130,-2,-2,0,-3,-9,-4,-6,-3
1558438874559130,-1,0,-3,4,2,3,0,1
1558438874575114,-1,5,9,-2,1,5,-2,-2
1558438874575114,-4,-8,-16,-9,-7,2,-3,-4
1558438874591068,-1,-1,-2,0,-1,-9,5,0
1558438874591068,-2,-3,-4,-1,1,1,-5,-3
1558438874591068,-1,2,9,3,-5,4,-4,-2
1558438874591068,0,2,2,4,2,-6,1,2
1558438874604850,-2,-3,-5,-4,-1,1,-3,-2
1558438874604850,0,3,0,-9,-16,-9,-7,-2
1558438874605817,2,-3,-8,4,6,-1,1,-1
1558438874605817,2,1,8,5,6,8,3,0
1558438874618811,1,-1,-3,-2,9,0,0,1
1558438874618811,0,-4,-1,-2,-5,-6,-5,-2
1558438874627830,-4,-2,-5,-4,-6,-4,-7,-5
1558438874627830,-1,-1,7,-2,-5,-2,-7,-3
1558438874641823,-2,-6,-17,-2,1,8,4,-1
1558438874641823,-1,-3,0,-2,-3,-8,0,1
1558438874649801,1,1,-2,-1,5,0,6,3
1558438874649801,-2,1,-1,-3,-2,-3,-3,1
1558438874664796,-3,1,8,1,-2,-5,-3,-3
1558438874664796,-3,-3,-1,-5,0,11,1,0
1558438874665793,-2,-4,-8,-4,-10,-12,-6,-5
1558438874665793,1,3,1,-1,-6,-13,-2,-2
1558438874678794,2,-3,9,9,21,23,11,3
1558438874678794,-4,-6,-11,-10,-6,-8,0,-4
1558438874687733,-2,-2,4,2,0,-5,1,1
1558438874687733,-1,-2,1,1,0,-5,-5,-4
1558438874701730,1,-1,-6,-4,-9,-7,-4,0
1558438874701730,-1,2,2,8,6,5,1,1
1558438874709710,-2,-2,-1,-3,-2,4,-2,-2
1558438874709710,-1,-3,-10,-7,-5,-2,-4,-2
1558438874724670,1,0,4,0,-9,-17,-4,-1
1558438874724670,5,4,8,8,9,7,8,3
1558438874725634,-4,-7,-5,-6,-9,-6,-5,-6
1558438874725634,-1,-2,-3,1,-4,5,-2,-2
1558438874739628,0,4,0,-7,3,6,-1,-2
1558438874739628,-2,-4,-1,1,-2,-7,-4,-1
1558438874747667,0,2,4,3,9,11,6,3
1558438874747667,-2,-5,-15,-3,-7,4,0,0
1558438874761659,0,1,3,4,0,-11,-1,3
1558438874761659,-1,-1,-3,-4,-13,-13,-9,-6
1558438874769608,-1,0,5,2,3,-4,2,1
1558438874769608,-1,-1,-3,2,14,16,10,2
1558438874785568,0,3,0,-2,-5,-1,-3,-2
1558438874785568,-5,-4,-4,-3,1,2,-4,-2
1558438874786565,2,1,-3,-1,-3,-6,0,3
1558438874786565,1,-1,5,0,5,2,4,0
1558438874799525,-3,-3,-2,-2,-4,-2,-1,-5
1558438874799525,1,1,-1,-3,-3,13,-2,-2
1558438874807780,1,2,4,6,7,5,10,4
1558438874807780,2,3,3,-1,12,5,11,6
1558438874821530,-3,-3,-5,-3,-2,-12,-5,-1
1558438874821530,-1,-1,-4,-4,-7,-5,-2,-3
1558438874829705,-2,-2,-4,-4,-4,2,-11,-4
1558438874829705,1,1,6,1,-3,-2,-1,0
1558438874845648,0,0,-7,-9,-5,-13,-4,-3
1558438874845648,2,-1,3,4,13,11,8,5
1558438874845648,-4,-7,-9,-5,-7,-13,-9,-3
1558438874845648,-3,-2,-1,-4,-8,-2,-5,-3
1558438874859713,1,1,5,3,-2,11,4,-1
1558438874859713,0,-3,-2,-5,-4,-9,0,-3
1558438874867683,0,3,-1,2,8,0,5,4
1558438874867683,-2,-2,3,-2,-10,-11,-9,-4
1558438874881394,-1,4,-3,5,5,19,9,3
1558438874881394,-1,0,-1,-6,1,-8,0,2
1558438874890361,-4,-4,-4,-2,-3,7,-2,-3
1558438874890361,-3,-1,1,9,7,3,-2,-4
1558438874905588,-1,-4,-1,-4,-6,0,-8,-6
1558438874905588,0,-1,-3,1,-2,-4,-1,-1
1558438874905588,-1,-1,-3,0,-4,-10,-4,-1
1558438874905588,-1,1,2,-2,3,4,1,1
1558438874920312,-5,-5,-9,-5,-2,2,-5,-2
1558438874920312,0,3,2,1,-3,-2,2,0
1558438874927511,-3,-8,-2,-2,1,4,-1,0
1558438874927511,1,2,3,-1,2,-3,6,2
1558438874942459,3,0,-2,-2,-1,-9,-4,1
1558438874942459,3,1,5,2,-1,-4,-6,-5
1558438874950457,-4,-3,-2,-6,-13,-3,-3,-5
1558438874950457,2,1,4,1,8,2,1,2
1558438874965160,-5,-5,-10,-6,-5,0,-1,-2
1558438874965160,-1,-2,2,6,-3,-4,-5,-4
1558438874966155,1,3,-2,-7,-9,1,1,-2
1558438874966155,-2,-3,-2,-5,-3,-10,-4,-1
1558438874979122,-2,0,6,3,10,5,1,-2
1558438874979122,-3,-3,-7,-7,-7,-5,-4,0
1558438874987102,-2,-1,-4,2,6,5,0,-6
1558438874987102,-2,-2,-4,-6,-16,-10,-4,-6
1558438875002059,0,-1,4,1,-3,-8,-2,-1
1558438875002059,-1,1,0,3,19,18,10,6
1558438875010386,1,0,6,2,-6,-7,-2,-1
1558438875010386,-1,1,-8,-3,-1,4,-4,-1
1558438875025011,0,-3,-1,1,-8,-9,-10,-5
1558438875025011,1,-5,-2,2,-7,-8,-2,0
1558438875033093,2,7,7,-8,11,-1,7,5
1558438875033093,-4,1,-10,-7,-3,5,-1,-2
1558438875040022,-2,-6,3,6,10,8,4,1
1558438875040022,-2,1,-4,-4,-2,-5,-7,-2
1558438875046938,1,0,11,4,-6,-3,-6,-1
1558438875046938,-6,-7,-15,-4,-15,-7,-6,-4
1558438875062217,-1,4,-5,-5,2,4,0,2
1558438875062217,-1,-2,0,1,2,3,4,1
1558438875070168,1,2,0,2,4,-4,3,1
1558438875070168,4,2,13,7,12,9,6,1
1558438875085160,-1,0,-4,0,-6,-11,-4,-2
1558438875085160,-2,-1,-6,-4,-9,-2,-2,-3
1558438875101095,-2,2,4,5,7,11,3,0
1558438875101095,0,0,-1,-10,-10,-5,-5,-3
1558438875101794,-2,-3,3,0,-3,-5,2,-1
1558438875101794,2,-3,-8,-4,6,-8,3,5
1558438875108096,0,3,-2,2,1,7,1,-4
1558438875108096,-3,-4,-2,1,1,-4,-3,-1
1558438875121738,-2,0,-1,-4,-7,-2,-2,1
1558438875121738,0,3,7,6,-2,4,-7,-3
1558438875129717,-3,-5,-6,-2,-5,-6,-6,-3
1558438875129717,1,0,-3,-1,6,6,7,3
1558438875143679,-1,0,0,-1,2,1,0,-2
1558438875143679,-1,-2,5,4,3,-1,5,-1
1558438875152657,0,0,-8,-7,-3,-8,-5,-3
1558438875152657,1,-6,4,8,2,5,1,-3
1558438875159636,0,-4,-6,-12,-7,-5,-2,-1
1558438875159636,-2,1,5,-2,-7,-1,-5,-4
1558438875167615,0,0,-8,-4,-4,0,-1,0
1558438875167615,-1,2,2,-2,1,4,-2,-2
1558438875181578,-6,-11,-8,1,-5,1,-7,-3
1558438875181578,2,0,-1,-2,8,2,7,1
1558438875189557,2,0,-1,-3,1,-2,-1,3
1558438875189557,1,5,6,4,3,-9,2,-1
1558438875204559,1,1,1,1,6,9,-1,-2
1558438875204559,-5,-1,-5,-7,-10,1,-6,-5
1558438875212887,-1,-4,0,0,-6,-1,-2,-3
1558438875212887,0,-1,-3,-2,-2,-2,-5,-3
1558438875228452,-4,1,2,-6,-9,-5,-2,-2
1558438875228452,-3,0,0,5,9,2,10,4
1558438875228452,-1,-1,0,4,5,-9,0,1
1558438875228452,0,-2,-2,-10,-4,5,3,0
1558438875242508,1,2,1,4,-2,-5,-1,-3
1558438875242508,-1,-1,1,-5,-4,0,-2,0
1558438875250643,-4,-4,-4,-2,-7,-5,-9,-5
1558438875250643,-2,-1,-7,-3,-5,-3,0,-1
1558438875264358,1,-4,1,6,8,2,5,3
1558438875264358,0,-1,-1,-3,-3,4,1,0
1558438875272480,2,2,-4,-4,3,-4,4,1
1558438875272480,-3,-1,-2,0,0,-4,-4,-2
1558438875288350,0,2,-1,2,1,3,0,0
1558438875288350,0,0,-1,-1,-3,4,-1,-2
1558438875288350,-2,-4,-1,-1,-4,1,-3,0
1558438875288350,3,1,1,0,-1,5,0,2
1558438875301291,1,2,1,-1,2,-5,6,1
1558438875301291,-1,-3,2,3,-2,-11,-5,-4
1558438875310282,1,-1,-10,-3,6,6,3,1
1558438875310282,-3,-4,-3,-9,-7,-8,-2,-1
1558438875324243,-3,-1,0,-2,-2,6,-3,-2
1558438875324243,-3,-1,-4,1,-1,-2,-1,-3
1558438875332215,-1,-1,3,0,2,1,0,0
1558438875332215,0,0,7,7,1,0,-4,-3
1558438875348140,0,-4,-14,-10,-4,-4,-3,1
1558438875348140,-4,-2,-2,-6,-7,-1,-1,-1
1558438875349132,0,-1,3,6,5,-12,-1,0
1558438875349132,0,1,2,3,7,0,1,3
1558438875362140,1,0,5,-3,-8,-3,-5,-5
1558438875362140,0,1,-5,-2,-3,0,-7,-5
1558438875370075,-5,-5,-2,-2,-7,5,-1,-2
1558438875370075,-4,-4,-3,-4,0,-4,-4,-4
1558438875384038,1,3,8,7,8,-8,4,1
1558438875384038,0,-2,-9,-3,0,2,-1,0
1558438875392049,-3,-2,-1,-2,-8,-12,-8,-2
1558438875392049,1,1,-5,0,0,16,5,3
1558438875415951,0,2,9,6,13,5,2,-1
1558438875415951,-1,0,-2,-5,-1,-9,-5,-2
1558438875415951,-3,-2,-3,-1,-3,0,1,-3
1558438875415951,-1,-2,1,-2,-10,-6,-1,1
1558438875421964,-1,1,8,1,12,11,6,2
1558438875421964,-2,-6,-20,-6,-4,-6,-2,-2
1558438875429985,3,1,0,-1,0,-8,3,3
1558438875429985,0,-1,3,2,-2,-7,-1,-1
1558438875443981,-3,0,-6,-5,-10,-5,-10,-5
1558438875443981,-2,-2,6,2,-1,0,-2,0
1558438875451955,-2,-2,-4,-6,-10,-9,-5,-5
1558438875451955,0,1,-2,6,12,10,5,0
1558438875468481,2,3,-6,-10,-1,-1,2,5
1558438875468481,1,1,1,-2,-3,0,-1,-1
1558438875468481,-4,-6,3,4,3,9,-4,-3
1558438875468481,1,2,-1,0,1,-3,-1,0
1558438875481484,0,0,1,1,-5,0,-2,-1
1558438875481484,2,0,-3,3,1,-4,2,0
1558438875489454,-2,-4,-6,-8,-7,2,-1,-5
1558438875489454,-1,-4,-1,-2,5,3,0,-1
1558438875504416,1,-3,-9,-4,-6,-2,-2,-1
1558438875504416,-1,-3,4,1,-2,-17,-3,1
1558438875512400,1,4,9,6,3,1,3,2
1558438875512400,-2,-4,0,8,5,2,0,-2
1558438875527356,-3,-3,-9,-12,-13,-11,-7,-1
1558438875527356,-2,-1,3,4,10,20,11,5
1558438875528324,-1,3,-2,-3,1,3,-4,-6
1558438875528324,-3,-3,-1,-3,-10,-5,-4,1
1558438875541287,1,1,5,6,0,-6,0,-1
1558438875541287,0,0,4,-4,-7,-10,-8,-2
1558438875550262,-1,3,-4,-1,3,5,6,4
1558438875550262,-3,-4,-3,-1,5,10,0,-2
1558438875564228,-1,-2,9,1,-6,-4,-3,-5
1558438875564228,-2,-6,-21,-11,-7,-4,-1,-3
1558438875573201,3,5,-1,-2,2,7,-1,2
1558438875573201,-5,-2,-3,-4,-5,-16,-5,-2
1558438875586167,-4,-5,1,1,-2,-4,1,1
1558438875586167,0,-1,5,5,7,6,4,0
1558438875595144,3,-1,5,6,1,0,-1,0
1558438875595144,-1,1,1,-10,-12,-4,-1,-3
1558438875601126,1,0,-5,-1,12,11,3,-1
1558438875601126,-2,-1,3,4,-2,2,2,1
1558438875610102,-1,-2,-2,-2,-7,-11,-7,-5
1558438875610102,1,2,3,4,14,7,7,6
1558438875624128,-2,-2,-1,-1,-9,-4,1,-3
1558438875624128,0,0,5,1,-1,-2,-2,0
1558438875633040,0,-2,-3,-2,2,2,1,0
1558438875633040,-1,1,-9,-5,-11,-9,-3,-1
1558438875647005,-3,-9,-11,-1,1,0,-2,-1
1558438875647005,3,4,7,1,2,9,-3,0
1558438875656024,-2,4,0,-2,-4,0,-1,0
1558438875656024,-2,-1,0,-1,-4,-15,-4,-3
1558438875661997,1,2,-2,1,5,-1,-3,-1
1558438875661997,-2,0,-1,-3,1,4,0,-3
1558438875670943,-1,-2,5,-1,-2,0,-6,-5
1558438875670943,0,0,-11,0,6,6,9,1
1558438875683908,0,2,1,1,0,-6,-1,0
1558438875683908,-5,-5,7,2,-8,-9,-6,-3
1558438875692881,-1,-3,-6,1,6,2,4,1
1558438875692881,-1,2,0,-5,-9,-3,-5,1
1558438875706848,-1,-1,-1,3,6,2,4,0
1558438875706848,1,0,2,0,3,-6,1,-1
1558438875715824,-1,-1,-5,-3,-2,5,-1,-1
1558438875715824,0,-2,-4,1,-6,-3,-4,-1
1558438875721812,0,1,-2,-8,-8,-1,0,0
1558438875721812,2,1,1,0,0,9,0,-2
1558438875730782,-1,0,-1,-4,2,-12,-1,3
1558438875730782,-1,-4,4,5,0,-2,-4,-2
1558438875743775,-2,-4,-4,-5,-14,-8,-6,-3
1558438875743775,-2,-2,-8,-4,8,18,11,2
1558438875752724,0,0,7,2,1,-1,3,0
1558438875752724,-2,-3,-6,-7,-4,0,-3,-6
1558438875766705,1,4,5,4,6,-6,-1,3
1558438875766705,-4,-4,-14,-4,-2,-2,-2,0
1558438875775660,0,0,-1,0,-2,-7,0,1
1558438875775660,1,2,4,3,5,1,2,-1
1558438875781644,-4,-9,-3,-3,-5,2,-7,-6
1558438875781644,0,1,2,1,-2,-4,-6,-5
1558438875790621,-1,-2,-1,2,2,-5,-2,-2
1558438875790621,1,0,8,-4,-8,-3,0,-3
1558438875804583,-3,-6,-22,-6,5,9,2,-1
1558438875804583,1,2,3,-2,-7,-28,-6,1
1558438875812562,0,-1,-2,0,5,12,3,0
1558438875812562,2,2,3,1,10,11,4,2
1558438875826533,-2,3,5,2,-3,-2,-1,-1
1558438875826533,-4,-4,0,3,4,11,1,-1
1558438875835502,0,-2,-1,-6,-11,-14,-8,-2
1558438875835502,0,0,0,-1,1,4,-1,-2
1558438875841491,1,3,0,-2,-4,-5,-3,0
1558438875841491,-5,-7,-8,-7,-6,-14,-8,-2
1558438875850462,1,0,4,-1,6,4,4,1
1558438875850462,-3,-2,-5,-2,-2,0,-6,-2
1558438875864440,-1,2,5,3,-2,1,4,1
1558438875864440,-1,-1,-2,-2,-9,-1,-2,-3
1558438875873400,-3,1,-5,-1,-4,-2,-3,-1
1558438875873400,-3,-6,-1,-2,0,-5,-1,-1
1558438875886435,0,-1,-4,-1,4,7,3,-1
1558438875886435,-2,-3,-4,-7,-7,2,-5,-6
1558438875895340,1,-1,2,-1,-7,-10,-5,-2
1558438875895340,1,1,-3,4,12,3,6,4
1558438875901394,1,1,5,2,1,1,3,4
1558438875901394,1,1,4,0,-3,5,-3,-2
1558438875910300,-1,-1,-2,-7,-4,4,0,-3
1558438875910300,-1,1,-7,3,-5,-11,-3,-3
1558438875924266,-4,-6,-5,-7,-2,-6,-2,-2
1558438875924266,-1,2,4,3,7,6,4,-1
1558438875933238,-2,-4,-8,-6,-4,4,-1,-2
1558438875933238,1,2,2,-2,3,1,4,4
1558438875946206,-3,0,2,4,-3,-2,-2,-7
1558438875946206,-2,-2,0,-5,-11,-10,-4,-2
1558438875955249,-1,0,-2,-2,-3,3,-1,-2
1558438875955249,-2,-9,-1,-1,7,17,5,1
1558438875962163,0,1,1,-2,-6,-18,-9,-2
1558438875962163,1,2,5,2,7,-1,-1,-1
1558438875970142,-3,-1,-6,-4,-5,-7,-4,-3
1558438875970142,0,0,-2,-4,-8,-2,-2,-2
1558438875984104,0,2,7,5,7,10,5,1
1558438875984104,-1,-1,-5,-1,5,4,4,3
1558438875993080,-1,2,1,-2,-1,-7,-1,2
1558438875993080,-2,-3,-1,0,-6,-1,-11,-5
1558438876007041,-2,-3,-5,-9,-2,10,0,-1
1558438876007041,0,2,4,4,-2,-19,1,2
1558438876016017,-2,1,4,-2,-3,3,3,-3
1558438876016017,-1,-3,-11,-5,-1,-2,-2,0
1558438876022002,1,-1,2,1,2,-3,1,-3
1558438876022002,2,-1,2,6,4,13,2,-1
1558438876030978,-4,-3,-6,-7,-6,5,0,-1
1558438876030978,-2,0,4,1,4,0,3,0
1558438876044007,1,1,6,5,-3,-14,-3,1
1558438876044007,-2,-3,-13,-9,-7,-5,-8,-5
1558438876052918,-1,-4,2,2,-2,-7,-5,-2
1558438876052918,3,2,-4,-3,-5,3,0,-3
1558438876066909,2,1,10,1,7,14,9,3
1558438876066909,-1,-3,-9,-5,-1,6,3,0
1558438876075858,0,-2,-6,2,1,-2,-3,-1
1558438876075858,-1,5,6,-1,-9,-23,-4,0
1558438876081845,0,-5,-8,-3,6,7,5,2
1558438876081845,-2,2,0,-4,-4,-2,-3,-2
1558438876090816,-4,-6,-3,0,-4,3,-5,-3
1558438876090816,1,-1,5,5,14,18,9,2
1558438876103817,-1,-2,1,-9,-12,-12,-4,-1
1558438876103817,0,-1,2,0,4,-1,1,2
1558438876112758,-2,-1,-3,1,4,0,-1,-4
1558438876112758,-3,-3,-7,-9,-18,-20,-13,-8
1558438876126731,-2,-1,-6,4,0,-4,-3,0
1558438876126731,0,3,4,1,3,11,2,0
1558438876135737,0,-1,5,1,8,10,3,1
1558438876135737,0,-2,-1,2,-3,0,-3,-4
1558438876150658,-1,-1,-1,5,7,3,-2,0
1558438876150658,-3,-7,-5,-2,-8,-5,0,-3
1558438876151658,1,2,8,2,9,2,6,5
1558438876151658,0,1,-2,-2,0,8,1,1
1558438876164620,-1,-4,-12,-7,-5,-3,-2,-2
1558438876164620,-2,-6,3,1,-5,-4,-7,-4
1558438876172601,-1,-3,0,0,-2,4,3,0
1558438876172601,0,3,0,1,8,-1,0,2
1558438876186562,-5,2,-2,1,-6,-4,-3,-2
1558438876186562,0,-2,-1,-3,2,-12,-2,-1
1558438876195541,-1,-4,-5,1,-7,-6,-5,-4
1558438876195541,-1,0,7,1,-5,-8,3,1
1558438876210497,-3,-3,-10,-2,1,8,-3,-1
1558438876210497,1,4,2,-2,-5,-4,1,-3
1558438876211495,0,1,2,-1,-1,-5,-1,-2
1558438876211495,-2,-3,9,3,9,0,0,-2
1558438876224463,0,1,3,-1,0,3,3,1
1558438876224463,-1,-4,-12,-4,-2,0,-5,-3
1558438876233464,-1,-3,-5,-4,-7,1,-3,-3
1558438876233464,-3,-1,-3,-4,-2,-3,-4,-3
1558438876246402,-3,0,0,2,-6,-6,-6,-4
1558438876246402,2,3,2,-4,8,17,7,3
1558438876255383,2,2,6,8,6,-5,2,2
1558438876255383,-3,-4,-5,-3,-3,2,2,0
1558438876270337,-4,-4,-7,-5,-10,-8,-5,-4
1558438876270337,0,1,5,3,-3,-9,-4,-1
1558438876272331,-1,1,2,-3,-3,7,2,0
1558438876272331,-1,1,-7,-2,11,7,4,2
1558438876284302,-3,-1,6,1,-2,3,1,-3
1558438876284302,0,-6,-13,-5,3,-1,-2,-1
1558438876293276,0,-1,3,1,-3,-7,-2,-1
1558438876293276,-1,-1,1,-5,-11,-3,-6,-5
1558438876306254,2,-2,-2,-2,-3,2,0,-2
1558438876306254,-1,1,5,4,4,-2,9,6
1558438876315216,1,3,-3,-4,6,0,5,0
1558438876315216,0,1,1,2,1,6,0,-2
1558438876330179,-4,-3,-4,-13,-17,-11,-6,-2
1558438876330179,-3,-3,-1,1,3,5,-1,1
1558438876332173,1,2,-3,6,2,-9,3,3
1558438876332173,0,0,-2,-1,-1,-8,-4,-1
1558438876344140,0,0,4,2,3,6,-3,-1
1558438876344140,-1,-4,-3,-3,-6,-12,-3,1
1558438876353115,-1,2,1,-4,3,10,2,-1
1558438876353115,-5,-7,-7,-5,-10,-8,-8,-4
1558438876366083,1,1,1,4,12,12,5,0
1558438876366083,-1,4,12,2,0,7,0,-3
1558438876375057,-5,-5,-23,-8,-4,-4,-8,-5
1558438876375057,-2,-2,-5,-6,-9,-3,-1,-2
1558438876390028,2,-5,8,7,13,11,13,7
1558438876390028,1,3,0,-5,-8,-16,-5,-2
1558438876392012,-7,-8,-5,-6,-7,-1,-6,-3
1558438876392012,0,-1,2,-2,-1,7,3,0
1558438876403980,1,0,-1,-2,-1,-5,2,1
1558438876403980,2,5,7,4,6,-1,0,1
1558438876412956,1,0,4,0,4,1,3,0
1558438876412956,-1,2,-4,-2,-5,-5,-7,-3
1558438876426918,-2,0,-4,-3,-8,-3,-6,-5
1558438876426918,-3,-7,-1,3,3,12,6,2
1558438876435894,0,0,3,3,7,0,0,1
1558438876435894,1,-1,1,1,1,-4,-2,1
1558438876450854,0,3,-1,0,3,-3,-2,0
1558438876450854,-2,-1,-3,-5,-12,-9,-12,-5
1558438876451852,0,-1,1,-7,-2,10,4,-1
1558438876451852,0,-1,-3,0,2,3,4,2
1558438876463821,-4,-6,-11,-7,-13,-16,-10,-1
1558438876463821,-4,-1,-8,-1,4,9,1,-2
1558438876472801,-2,0,2,1,0,4,0,-2
1558438876472801,0,-4,5,7,2,-8,2,2
1558438876486758,-3,-4,-7,-13,0,-1,-5,-3
1558438876486758,-4,-1,0,2,-5,-1,-3,-2
1558438876495735,-3,-4,-2,-1,-9,-10,-6,-4
1558438876495735,0,2,4,4,12,9,7,4
1558438876510695,1,1,-2,0,-2,0,0,1
1558438876510695,1,-1,0,1,3,13,10,1
1558438876516679,-1,-3,0,1,0,-11,-4,1
1558438876516679,0,-2,-3,-7,-2,2,-6,-5
1558438876523660,-2,1,5,2,-4,7,1,-3
1558438876523660,-1,0,-4,-1,-10,-7,-8,-3
1558438876532636,-1,2,5,3,3,-6,1,2
1558438876532636,-2,0,3,0,9,4,0,-2
1558438876546598,-2,-2,-9,-2,2,-4,6,3
1558438876546598,-2,1,-3,-5,-5,-4,-1,0
1558438876555574,-3,-6,-4,-1,-12,2,-3,-4
1558438876555574,-2,-1,0,2,-6,-4,-7,-2
1558438876570541,-1,1,5,-1,4,-3,1,1
1558438876570541,-1,-2,-3,-2,-1,-7,-4,-2
1558438876571532,-2,-2,-2,-1,-10,-5,-7,-2
1558438876571532,1,-2,-3,-3,-3,8,7,1
1558438876584497,3,6,9,8,7,3,4,1
1558438876584497,-3,-2,-13,-4,4,0,-1,-2
1558438876593472,-3,-8,-1,-7,-6,-10,-5,-1
1558438876593472,-2,-3,-5,-5,-7,-2,-6,-3
1558438876606436,-1,-3,-3,5,1,-2,-3,-4
1558438876606436,0,1,12,3,-8,-11,1,-1
1558438876615414,1,-1,-13,-6,0,-3,-3,-2
1558438876615414,0,-2,0,0,9,12,9,1
1558438876630381,-3,-5,-3,1,-8,-18,-9,-1
1558438876630381,2,2,1,-4,5,11,7,1
1558438876636358,2,4,8,1,-3,0,-2,-1
1558438876636358,-3,-9,-7,-3,-10,-1,0,-2
1558438876644337,2,2,0,-1,-3,-5,-6,-1
1558438876644337,-2,-6,-9,-7,-8,-7,-8,-1
1558438876653312,-1,0,2,5,14,15,8,2
1558438876653312,1,4,5,2,-1,-7,-3,-1
1558438876666278,1,-1,2,0,2,6,2,-2
1558438876666278,0,1,-1,3,1,-5,0,0
1558438876675254,-1,2,0,-3,-3,0,-2,0
1558438876675254,-6,-1,-6,-3,-11,-6,-7,-4
1558438876690215,-3,-3,8,1,4,2,1,1
1558438876690215,-2,-3,-13,-3,3,-11,2,-1
1558438876692208,1,-1,-1,-1,4,3,4,3
1558438876692208,-1,1,-2,-2,0,5,-2,-2
1558438876704181,-2,1,0,-4,-9,5,-2,-5
1558438876704181,6,5,14,5,6,-7,-1,2
1558438876713152,-1,-1,1,4,4,4,4,2
1558438876713152,-3,-4,-9,-4,-7,-13,-7,-2
1558438876726123,-1,1,-7,1,3,6,0,-1
1558438876726123,-5,-8,-2,-3,-2,6,0,1
1558438876735101,-2,-2,-2,1,-9,-12,-4,-3
1558438876735101,0,0,6,3,4,1,2,2
1558438876750060,-2,2,1,0,-1,-9,-2,-2
1558438876750060,0,5,10,6,6,12,1,-1
1558438876752049,-2,0,-10,-6,-6,6,-1,-2
1558438876752049,0,-2,-7,-12,-13,-17,-5,-2
1558438876764016,0,3,3,4,3,2,1,2
1558438876764016,-1,-2,-7,-5,3,4,-3,0
1558438876772993,-1,-5,9,3,5,9,-2,-2
1558438876772993,1,2,-4,-3,4,6,4,1
1558438876786957,-3,-5,-11,-6,-9,-6,-5,-4
1558438876786957,0,0,6,0,-9,-7,-4,-2
1558438876795934,1,2,-9,-1,5,1,4,2
1558438876795934,-4,2,2,0,-2,-9,-4,-3
1558438876810898,-1,-1,0,-1,-1,3,-4,-2
1558438876810898,-3,-9,-3,0,0,9,9,1
1558438876811889,-1,-3,1,1,-5,-12,-5,-5
1558438876811889,2,3,12,7,1,6,-1,-1
1558438876832833,1,-2,-9,-11,3,2,2,1
1558438876832833,-2,2,2,4,0,-7,-6,-2
1558438876834827,-2,-1,-7,0,1,3,-3,-2
1558438876834827,-1,-6,-9,-9,-7,0,4,2
1558438876846805,0,-3,4,0,-5,-18,-6,-5
1558438876846805,1,0,-5,0,-3,5,-1,-3
1558438876855771,0,2,0,-1,7,7,1,-1
1558438876855771,-3,-6,0,2,1,3,-3,-2
1558438876869735,-1,0,-2,-2,-1,0,-1,-2
1558438876869735,-3,-4,-2,-1,-11,-12,-6,-4
1558438876876716,-2,2,2,-3,-2,0,1,1
1558438876876716,-5,1,2,4,5,-4,-2,-4
1558438876883699,-3,-10,-9,-7,-3,-3,-4,-1
1558438876883699,1,4,11,7,14,9,3,-1
1558438876892673,-1,-5,-8,-6,-8,-6,0,0
1558438876892673,-1,-1,-8,-11,-3,-2,3,0
1558438876915612,-1,2,3,5,5,6,0,-2
1558438876915612,0,1,2,-3,-6,-9,-2,2
1558438876916609,-2,-2,2,1,-3,-10,-7,-5
1558438876916609,2,2,4,5,8,8,2,1
1558438876929576,0,0,0,-5,-2,5,4,1
1558438876929576,-5,-5,-7,-3,-5,4,-5,-4
1558438876936563,1,-2,3,-1,-5,-10,-3,-1
1558438876936563,0,0,-1,-4,-7,-12,2,4
1558438876944535,-2,-4,7,12,14,12,6,4
1558438876944535,-1,2,-2,-5,-4,0,-1,-1
1558438876952513,-1,-4,-18,-17,-10,-10,-7,-3
1558438876952513,0,1,13,5,-1,4,-4,-6
1558438876966492,-1,-4,-19,-7,-3,-1,4,1
1558438876966492,0,-1,1,-1,4,-7,3,3
1558438876975452,0,1,2,6,6,13,8,1
1558438876975452,1,-1,-1,-5,-3,-9,-6,-1
1558438876989414,2,3,8,-1,-3,-2,5,4
1558438876989414,-1,-1,0,6,11,15,1,-2
1558438876996397,-2,-3,0,-3,-12,-5,-3,-2
1558438876996397,1,2,-1,6,8,0,1,1
1558438877004373,0,1,-1,-5,-9,-6,-2,-1
1558438877004373,-1,1,-1,-4,-1,-3,-5,-1
1558438877013350,-2,-4,-2,0,2,6,2,-1
1558438877013350,0,0,0,-2,-1,-5,-5,-2
