timestamp,emg1,emg2,emg3,emg4,emg5,emg6,emg7,emg8
1558438929939218,-2,-5,2,-1,-1,7,-1,-4
1558438929939218,-4,-6,1,6,-1,1,-2,-3
1558438929940216,-1,-1,1,-1,0,-4,2,0
1558438929940216,1,2,4,-4,-3,-5,-7,1
1558438929941214,-4,-2,-8,-5,-10,-5,-4,-5
1558438929941214,2,3,6,2,7,5,1,2
1558438929941214,1,-1,-9,-6,-3,-1,2,-3
1558438929941214,0,0,0,4,4,7,8,0
1558438929952184,-2,0,-1,-1,2,-4,-3,0
1558438929952184,-3,-3,-2,-7,-10,-5,-10,-7
1558438929962157,-4,-3,0,1,-2,0,-7,-4
1558438929962157,-1,0,1,-1,1,1,5,0
1558438929967144,1,0,-4,-1,2,-6,6,4
1558438929967144,0,0,-1,2,2,-1,0,-1
1558438929983101,1,2,2,-5,-5,0,-4,-1
1558438929983101,-4,-6,-1,-4,-3,-2,-5,-3
1558438929991093,0,3,6,-1,0,4,1,0
1558438929991093,-1,-6,-19,-1,1,-2,1,1
1558438929997065,-3,-3,-3,3,1,6,-3,-2
1558438929997065,0,2,4,-2,0,1,4,1
1558438930012024,2,2,9,1,1,-1,1,-2
1558438930012024,-3,-2,-9,-5,-6,-9,-8,-3
1558438930021002,-2,-3,3,-1,-4,2,0,2
1558438930021002,-2,-5,-7,1,5,3,0,-2
1558438930060894,-1,0,2,7,-5,-4,-3,-2
1558438930060894,-2,0,-2,-1,0,-3,-4,0
1558438930060894,-1,-1,-2,-6,1,-1,-3,-4
1558438930060894,1,0,1,1,-5,0,0,1
1558438930061891,1,2,3,1,6,-7,6,4
1558438930061891,2,1,2,-3,1,7,0,2
1558438930073862,-1,-1,-2,3,-10,-12,-4,-1
1558438930073862,-2,-1,0,2,4,5,1,0
1558438930074856,-1,-2,-3,-10,-9,-2,0,1
1558438930074856,-1,-3,5,4,5,1,0,1
1558438930080841,0,0,0,3,-1,3,0,1
1558438930080841,-3,-6,-11,-8,-4,-11,-7,-6
1558438930086825,-1,-2,-8,-3,0,10,-2,0
1558438930086825,-3,2,1,1,-7,-18,-3,-7
1558438930102782,-1,-2,1,0,7,12,5,-2
1558438930102782,0,2,2,-5,1,-3,2,3
1558438930109763,-1,0,4,2,3,1,-3,0
1558438930109763,-2,-4,-9,-1,-8,6,-2,-5
1558438930117742,-7,-7,-6,-9,-7,-1,-5,-5
1558438930117742,2,1,2,1,-5,-9,2,3
1558438930132701,-1,3,2,3,9,-7,-2,0
1558438930132701,-1,3,11,-1,-7,-2,-3,1
1558438930140684,-4,-3,-17,-7,-4,-2,0,-1
1558438930140684,-2,-3,0,1,-1,3,-6,-1
1558438930147660,0,-1,0,-5,-1,3,-2,-2
1558438930147660,3,2,4,0,0,-3,2,1
1558438930162622,-1,1,4,1,9,9,5,0
1558438930162622,-3,-4,-2,0,3,6,1,-1
1558438930169603,0,-2,0,-3,-12,-15,-5,-2
1558438930169603,1,0,-2,1,1,-1,-2,-4
1558438930185560,2,2,0,1,-2,-3,0,0
1558438930185560,-1,-1,-8,-4,0,1,3,1
1558438930192541,-2,-1,-3,-3,-16,-7,-9,-7
1558438930192541,-3,-7,-4,0,10,14,4,1
1558438930200520,1,0,5,0,1,0,1,1
1558438930200520,2,2,3,4,8,4,2,5
1558438930207502,-1,0,-1,2,4,-5,6,-3
1558438930207502,-1,-1,-7,-2,1,2,-2,0
1558438930223459,0,2,0,-1,-5,-5,-7,-2
1558438930223459,-5,-4,-3,-5,-10,-4,-6,-4
1558438930229443,0,-2,2,0,-2,2,2,2
1558438930229443,0,-1,3,3,11,3,1,1
1558438930245400,-1,-1,2,-2,-4,-12,1,0
1558438930245400,0,0,-2,2,0,5,1,-3
1558438930252382,-1,-2,-6,-7,-4,-1,-1,2
1558438930252382,-3,-3,-2,-2,0,4,-3,-2
1558438930260361,3,-1,1,3,4,9,0,0
1558438930260361,-2,1,3,-2,-8,-19,-6,-3
1558438930267342,0,-2,0,2,3,-1,-2,-1
1558438930267342,0,-1,-7,-3,-2,3,-2,-6
1558438930283298,1,3,-1,0,1,0,-1,0
1558438930283298,-2,1,-1,-2,-1,0,-7,-8
1558438930289284,-5,-8,-2,0,0,4,2,2
1558438930289284,-1,-1,-1,-2,-8,-9,-2,3
1558438930305240,0,4,3,2,3,5,10,4
1558438930305240,1,-3,1,1,7,0,0,-1
1558438930312221,0,2,-4,-2,-9,1,-6,-3
1558438930312221,0,0,-2,-1,-7,-4,-2,-2
1558438930320200,0,-2,-1,-1,3,-5,-5,-1
1558438930320200,1,3,0,3,7,16,5,1
1558438930327181,-1,1,4,3,12,15,5,-1
1558438930327181,-1,-3,-3,-2,-6,-10,-2,-1
1558438930343138,-3,-3,-8,-4,-6,-4,0,-2
1558438930343138,-1,-2,1,-1,-2,-6,-1,0
1558438930350120,-2,-1,-1,-3,-3,-9,-5,-2
1558438930350120,-3,-2,2,-2,-8,-8,-3,1
1558438930365080,0,0,7,4,7,10,-1,-3
1558438930365080,0,0,-10,-6,-10,-10,-4,-1
1558438930372060,1,3,-1,1,-3,-6,-6,-4
1558438930372060,-4,-7,-5,-4,3,2,6,1
1558438930380040,-2,-1,4,3,-3,-3,3,1
1558438930380040,0,-4,1,1,3,7,4,2
1558438930387021,0,-2,-5,-2,1,4,2,1
1558438930387021,2,5,3,0,0,2,1,-1
1558438930402978,-4,-4,2,-3,-7,-6,-6,-5
1558438930402978,-2,2,0,-3,-2,-9,-1,-3
1558438930409959,-3,-6,-8,-10,-9,-9,-6,-3
1558438930409959,-3,0,-2,2,7,2,-3,-2
1558438930425918,1,0,-1,-6,-1,14,1,0
1558438930425918,-2,0,-3,-3,-12,-12,-3,-1
1558438930431900,0,-1,-2,-1,0,-11,-3,1
1558438930431900,1,1,1,-2,0,7,1,0
1558438930440877,-1,3,6,3,0,-4,-4,-1
1558438930440877,-2,-5,-13,-3,-3,-7,-5,-3
1558438930454841,-4,-1,0,1,6,10,4,-1
1558438930454841,0,0,-1,1,-2,-5,-2,-2
1558438930462818,2,2,-2,1,0,-10,-3,0
1558438930462818,0,-1,4,-3,-7,-4,-11,-5
1558438930469802,2,2,2,2,2,11,11,3
1558438930469802,-1,-2,-3,-2,2,-4,1,0
1558438930485758,1,0,3,-2,-1,-3,-3,0
1558438930485758,-2,-6,-1,5,11,7,0,-2
1558438930492739,0,2,-6,-11,-14,-6,-2,0
1558438930492739,-3,3,4,4,4,-2,3,2
1558438930499720,-4,-4,-9,-2,-4,-11,-3,-3
1558438930499720,1,0,11,0,5,9,3,-1
1558438930514680,0,-3,-3,3,6,14,3,-3
1558438930514680,2,-2,1,-3,-5,-10,-5,-2
1558438930522658,-4,-7,-19,-15,-12,-1,2,-3
1558438930522658,2,5,7,6,3,6,3,3
1558438930529640,1,1,4,3,4,7,0,-2
1558438930529640,1,4,3,-4,-2,3,-4,0
1558438930545597,-2,-8,-4,4,0,-10,-7,-2
1558438930545597,-5,-7,-3,-12,-6,-3,3,-1
1558438930552579,-1,0,1,1,3,0,2,0
1558438930552579,-2,-1,2,2,0,-3,0,-1
1558438930559560,0,0,-4,0,4,4,0,0
1558438930559560,-2,-1,-7,-1,-9,-5,-5,-5
1558438930574520,-2,-3,0,-2,-3,-7,-6,-3
1558438930574520,-2,-4,-5,-1,1,1,3,-1
1558438930582498,-1,3,4,7,-3,-13,0,3
1558438930582498,-3,-4,-6,-11,2,0,-3,-1
1558438930589479,-1,0,11,4,1,-3,-3,0
1558438930589479,0,0,-9,-1,5,4,1,-1
1558438930605437,0,-2,0,-6,-1,1,-5,-1
1558438930605437,-1,1,4,4,4,10,3,0
1558438930612418,-4,0,-6,-2,-6,-8,-7,-1
1558438930612418,-3,-5,-5,-1,4,-5,-2,-1
1558438930619402,-1,-3,-1,-3,-10,-5,-5,-2
1558438930619402,2,4,5,4,6,9,4,3
1558438930634360,2,1,1,-2,0,-1,-4,-3
1558438930634360,-4,-7,0,0,-10,-4,-3,-6
1558438930643336,-2,1,-3,-4,3,4,3,1
1558438930643336,-2,-1,1,0,-3,-5,-2,-4
1558438930649320,-2,-1,-3,-2,-6,-10,-7,1
1558438930649320,-1,1,-1,1,1,2,2,3
1558438930665278,0,3,6,-4,-2,4,-4,-3
1558438930665278,-1,2,1,3,1,-4,0,3
1558438930672258,-1,-3,-8,-1,3,0,0,-3
1558438930672258,0,3,-2,-4,-10,-5,-6,-4
1558438930679239,-1,-3,0,0,-4,-3,-5,-5
1558438930679239,1,-2,0,3,0,-3,0,-1
1558438930695196,-3,0,-9,-7,-1,-1,-2,-3
1558438930695196,2,-2,-3,-2,-1,1,3,1
1558438930703176,0,1,1,1,4,-4,2,4
1558438930703176,-1,-2,-9,-3,-2,-3,-7,-5
1558438930710158,-1,-2,-1,1,-9,0,-2,-3
1558438930710158,-6,-5,0,-2,-1,0,-3,-2
1558438930725118,0,1,5,0,-3,-4,-4,-2
1558438930725118,-2,-2,0,-3,-5,0,4,3
1558438930732098,-2,1,5,4,12,-1,9,6
1558438930732098,0,5,-2,-1,1,7,2,-3
1558438930740076,-1,-3,-4,0,-2,1,0,-2
1558438930740076,-1,-2,-1,-4,-5,0,-6,-3
1558438930756037,1,2,7,2,-2,-4,-3,-5
1558438930756037,-1,-5,-8,-5,-3,1,1,0
1558438930763017,-4,-1,1,4,9,14,5,0
1558438930763017,1,0,-4,-2,-5,-2,-1,-3
1558438930769997,-3,-3,-2,-3,3,9,1,-3
1558438930769997,0,-1,6,0,-3,-7,-4,1
1558438930784957,2,2,-1,0,2,-5,0,1
1558438930784957,-2,1,0,2,5,4,5,4
1558438930791938,1,-2,3,1,-8,-8,-10,-6
1558438930791938,1,2,-3,-1,-6,-5,-3,-1
1558438930799916,-2,-3,-6,-6,4,9,5,-1
1558438930799916,-3,-1,-1,-2,-6,-8,-6,-2
1558438930814877,1,0,-1,-2,-3,-4,-2,-1
1558438930814877,0,1,0,0,4,15,1,1
1558438930822855,4,0,5,2,-2,-7,-5,-2
1558438930822855,-2,-3,-7,-3,-7,-6,-6,0
1558438930829837,-1,-3,0,0,4,3,5,2
1558438930829837,-1,2,-5,-2,2,2,1,-1
1558438930845793,0,-1,0,2,2,-4,-3,-2
1558438930845793,1,0,4,3,8,7,8,3
1558438930851779,-1,-3,-5,-7,-10,-12,-8,-4
1558438930851779,-2,0,4,1,0,-2,-3,0
1558438930859757,-1,3,0,1,-5,1,1,-5
1558438930859757,2,2,-2,-8,-5,-8,-3,9
1558438930874717,-7,-9,0,0,3,6,3,-6
1558438930874717,0,1,-1,-1,-7,-8,-5,-1
1558438930882695,-6,-9,-2,-3,-3,-4,-2,-3
1558438930882695,1,3,1,2,3,2,5,-1
1558438930889678,-2,-2,2,3,3,7,2,4
1558438930889678,0,-2,-4,-8,-6,-10,-9,-2
1558438930905635,0,3,-4,-1,-5,3,1,-3
1558438930905635,-3,0,1,3,6,-3,-1,-2
1558438930912616,2,2,0,0,1,2,5,5
1558438930912616,-3,-6,-8,-3,-3,-1,0,-7
1558438930919597,1,0,-2,-2,2,-3,-2,2
1558438930919597,-1,0,7,1,-7,-8,-5,-5
1558438930934556,0,0,-7,-1,3,2,3,-1
1558438930934556,1,1,14,9,4,1,-2,-1
1558438930942537,-1,-6,-14,-10,-3,0,1,1
1558438930942537,-1,-2,-4,-6,-2,-10,-8,-8
1558438930949518,-3,0,-1,-2,-3,2,0,3
1558438930949518,-3,-2,-3,-5,-9,-7,-3,-5
1558438930965474,-1,-1,7,8,11,7,5,0
1558438930965474,-1,-1,-3,1,1,4,-2,-2
1558438930972455,1,-3,-4,-8,-9,-7,-5,-1
1558438930972455,0,-3,6,2,-5,-12,1,2
1558438930979438,-3,-1,-4,-2,-2,5,-7,-4
1558438930979438,-3,-3,-11,-6,-6,4,2,0
1558438931005368,1,5,3,5,0,-10,0,3
1558438931005368,0,-6,-3,-1,9,5,1,3
1558438931005368,0,-1,1,-2,-7,-5,-9,-5
1558438931005368,2,0,8,2,2,9,6,1
1558438931009357,1,0,-10,-2,-3,1,-1,-1
1558438931009357,2,5,5,-3,4,7,4,1
1558438931025313,-2,-1,-1,-3,-4,-9,-1,2
1558438931025313,-3,-2,-6,-2,-2,2,-1,-4
1558438931032294,-2,0,3,0,-6,-3,1,-2
1558438931032294,2,4,12,2,3,1,2,2
1558438931048252,-2,-4,-18,3,9,9,2,2
1558438931048252,1,-2,2,-11,-14,-17,-6,-3
1558438931054236,2,-1,1,-2,3,2,-2,-3
1558438931054236,-6,-4,-10,-3,-7,-1,-1,-1
1558438931071192,3,0,6,0,4,5,6,3
1558438931071192,0,-1,1,4,2,-10,-6,1
1558438931072189,-1,-3,-5,-3,0,1,-2,0
1558438931072189,-1,-1,-4,-1,-7,-3,-3,-5
1558438931085153,3,6,13,11,12,11,6,4
1558438931085153,-1,-3,-7,-3,3,4,-2,-5
1558438931092136,-2,-1,0,-6,-4,-1,0,0
1558438931092136,-2,-5,-5,-2,-4,-1,-3,-3
1558438931108093,-2,-1,-5,-2,-2,-6,-2,-1
1558438931108093,-2,-2,3,6,6,5,1,1
1558438931115073,2,2,3,-1,-3,-10,-5,-2
1558438931115073,1,0,-9,-5,-4,2,-3,-5
1558438931131036,-1,-2,8,1,-4,-4,2,0
1558438931131036,-2,2,-4,2,9,0,0,1
1558438931133029,-4,-6,-12,-5,-9,-10,-3,-1
1558438931133029,-1,-1,2,4,4,12,3,0
1558438931144995,0,2,6,-5,-3,-11,-6,-1
1558438931144995,-1,0,0,-3,-10,-6,-4,-2
1558438931153970,0,0,11,6,7,8,3,3
1558438931153970,0,-3,-13,-5,-4,-4,-1,-1
1558438931167937,-4,-4,-7,-9,-10,1,-4,-4
1558438931167937,0,0,5,1,1,6,2,3
1558438931174914,-5,-6,-9,-4,-9,-8,-6,-5
1558438931174914,0,2,3,3,3,-10,0,1
1558438931190874,3,4,7,4,6,-1,1,1
1558438931190874,-2,-1,-6,-6,-8,2,-2,-4
1558438931192867,0,5,8,7,8,8,2,0
1558438931192867,0,0,-1,-2,-6,-4,1,1
1558438931204836,-4,-6,6,0,-7,-13,-7,-4
1558438931204836,-1,-5,-19,-10,-5,0,-6,-2
1558438931213811,-2,-2,-1,-5,-6,5,-2,-3
1558438931213811,-1,1,-1,1,7,2,4,0
1558438931227772,1,-1,-6,1,-1,2,1,-2
1558438931227772,0,0,13,6,9,5,8,0
1558438931234755,0,-1,0,4,8,6,1,-2
1558438931234755,-1,-2,-4,-11,-15,-6,-11,-6
1558438931250712,0,-3,-3,-3,-6,-7,-3,1
1558438931250712,-2,-3,-5,2,4,0,1,-2
1558438931252709,1,0,-4,-2,4,-2,-2,-2
1558438931252709,1,2,13,13,11,2,0,1
1558438931264680,-4,-5,-8,-10,-6,-8,-3,-4
1558438931264680,0,0,6,-4,-11,-2,-1,0
1558438931273652,1,0,-4,0,-3,0,1,2
1558438931273652,-3,-5,-4,-1,0,-8,-3,2
1558438931287614,-1,0,2,2,-1,-6,-4,0
1558438931287614,-3,-3,-12,-4,-1,2,-1,-5
1558438931294593,0,-4,5,-3,-8,-4,-6,-4
1558438931294593,2,2,4,1,10,9,12,5
1558438931311548,-1,-2,0,-2,-3,3,0,-3
1558438931311548,1,0,-2,4,8,2,-2,0
1558438931312545,-1,-7,-4,1,1,-2,-2,0
1558438931312545,-6,-3,-11,-14,-14,-8,-11,-7
1558438931324516,-4,-4,-6,-8,-8,7,2,-2
1558438931324516,2,1,7,4,-1,-7,-1,-1
1558438931333490,1,4,-1,-3,-2,-5,-1,-1
1558438931333490,-2,-2,-1,1,3,3,1,0
1558438931348454,1,2,4,4,4,0,-1,0
1558438931348454,0,1,8,-1,-7,0,-7,-5
1558438931355482,-4,-6,-14,-3,5,6,6,-1
1558438931355482,-1,-3,0,-2,-4,-13,2,0
1558438931370494,-3,2,4,4,0,-2,-4,-4
1558438931370494,-1,-2,4,-1,-1,5,1,-2
1558438931377379,0,-1,-11,-1,1,-4,-2,-1
1558438931377379,0,3,11,2,2,5,-1,-1
1558438931384356,-3,-8,-16,-9,-10,-7,-5,-2
1558438931384356,-3,-2,-6,-3,-11,-11,-2,-1
1558438931393329,1,4,9,8,10,12,8,5
1558438931393329,-1,-3,-6,-6,-2,0,0,-1
1558438931408290,2,3,7,3,0,-6,0,1
1558438931408290,-2,-2,-1,1,-2,-2,-3,1
1558438931414277,-1,-1,-2,-6,-14,-18,-7,-4
1558438931414277,2,2,1,8,8,9,0,-1
1558438931430242,4,2,-1,-1,0,7,3,0
1558438931430242,-3,-6,-2,0,1,-4,5,1
1558438931437224,-3,-1,7,0,-2,1,1,1
1558438931437224,-4,-5,-9,-4,-6,-6,-6,-2
1558438931453179,-4,-1,-2,-3,-3,-3,-3,-4
1558438931453179,0,-2,-7,4,5,7,4,1
1558438931454169,2,2,1,-2,4,-1,-1,-2
1558438931454169,-3,4,7,-3,-3,-2,-2,-6
1558438931469134,-3,-5,-12,-3,1,7,0,-2
1558438931469134,-1,2,1,3,3,-10,-2,1
1558438931475115,-3,0,3,4,1,10,2,-4
1558438931475115,-2,-1,-5,-1,-6,-10,-4,-1
1558438931490075,2,1,-1,-3,-6,-13,-5,0
1558438931490075,-1,-4,-1,-3,2,3,0,0
1558438931497059,-1,-2,5,3,4,3,2,2
1558438931497059,0,-5,-4,-4,-2,-1,-4,-3
1558438931513232,2,3,10,7,7,7,6,2
1558438931513232,2,6,0,3,6,5,4,3
1558438931514010,-2,-5,-10,-9,-8,-10,-5,-1
1558438931514010,-4,-5,-3,-1,-1,2,-3,0
1558438931528976,-3,1,-4,-4,-1,9,3,-2
1558438931528976,-1,1,3,-3,-8,-4,-3,-4
1558438931535164,2,1,-1,-2,1,-5,-2,0
1558438931535164,-4,-4,-1,1,-1,0,-1,-4
1558438931549916,1,-1,0,1,-5,-8,-2,-1
1558438931549916,-2,-3,-7,-2,1,-7,-2,-1
1558438931556904,2,1,3,5,6,3,5,4
1558438931556904,0,-1,-3,-6,-5,0,-2,2
1558438931572850,-1,2,10,1,-2,2,-5,-6
1558438931572850,-2,-4,-7,-6,-2,-2,-2,-1
1558438931573849,-5,-5,-5,-1,-5,-1,-7,-5
1558438931573849,3,2,1,-2,2,0,2,4
1558438931588809,2,1,1,-1,2,-1,4,3
1558438931588809,-4,-7,0,-4,-5,1,-5,-3
1558438931602770,0,-1,-5,-5,1,1,-1,-2
1558438931602770,1,1,2,9,7,0,5,1
1558438931609751,-2,-4,-3,-2,-1,0,-1,2
1558438931609751,1,0,-1,-2,-4,-2,1,-1
1558438931616731,-3,-1,-1,0,-5,0,-3,-2
1558438931616731,-2,-1,0,-1,-3,-3,-1,-2
1558438931632690,-3,-3,-14,-3,5,3,0,-3
1558438931632690,-2,1,1,-1,-3,-5,-2,0
1558438931633687,0,1,7,3,-3,-2,-5,-1
1558438931633687,1,2,-7,3,-1,-6,0,1
1558438931648647,-4,-3,0,-3,0,2,-3,-2
1558438931648647,1,2,1,0,5,1,1,1
1558438931654629,-2,-4,5,-3,-3,3,2,0
1558438931654629,2,0,0,-1,-5,1,-2,-2
1558438931670627,-1,-6,-5,-1,-5,-10,-1,-1
1558438931670627,1,0,4,0,7,9,-1,-2
1558438931677925,0,2,-3,3,7,-7,-1,3
1558438931677925,1,-1,3,-3,2,1,-2,-2
1558438931693661,-3,-2,-3,-3,-4,3,-1,-2
1558438931693661,-1,-5,3,-2,-6,-7,-4,-3
1558438931693661,0,2,-4,-1,-1,-6,-4,-3
1558438931693661,-5,-6,-7,-5,0,4,-3,-5
1558438931708751,-5,-5,-10,-5,-7,-7,-6,-2
1558438931708751,1,4,8,3,3,2,3,2
1558438931715573,-1,0,-3,1,5,2,4,3
1558438931715573,0,1,4,0,-3,-1,-1,-2
1558438931729671,1,-2,-8,-3,-7,-2,-2,-3
1558438931729671,-2,-4,-10,-2,-1,4,0,-4
1558438931737647,-2,-3,0,-3,-1,-2,1,-2
1558438931737647,-1,0,2,-1,4,7,1,0
1558438931753652,-1,1,6,6,1,-12,-3,3
1558438931753652,-2,-1,-4,-5,-3,5,-3,1
1558438931753652,-4,1,2,-2,-8,-8,-4,-6
1558438931753652,1,0,4,3,8,4,7,4
1558438931768619,-3,-5,-5,0,3,7,-1,-2
1558438931768619,-2,-4,-6,-3,-5,-8,-5,-3
1558438931775317,0,-1,-4,4,2,7,-1,0
1558438931775317,0,-3,-5,-17,-18,-15,-1,-1
1558438931790269,-1,0,6,3,6,4,3,0
1558438931790269,0,2,5,2,-3,-4,-4,-1
1558438931797256,-5,-5,-10,-1,1,6,-1,-4
1558438931797256,-1,-1,-5,1,-5,-5,-4,-3
1558438931813244,2,-2,6,-1,1,-1,-2,0
1558438931813244,-2,-2,-3,-2,-5,-8,-3,-3
1558438931813244,1,-1,2,-4,-3,-4,-1,0
1558438931813244,1,1,-1,3,5,6,1,0
1558438931829169,-1,1,0,-5,-6,-1,-4,-3
1558438931829169,-1,-3,-4,1,0,1,2,-2
1558438931835352,-1,-2,-4,-2,7,5,5,1
1558438931835352,-3,-3,-5,0,-1,1,-2,-1
1558438931850319,0,1,3,0,-5,-7,-3,0
1558438931850319,0,1,6,3,5,3,9,5
1558438931857091,-1,1,1,-6,-6,-9,-2,0
1558438931857091,-3,-1,2,1,1,7,-3,-1
1558438931873046,0,-4,-8,-2,4,7,4,1
1558438931873046,-5,-5,-7,-7,-11,-10,-12,-5
1558438931874043,1,3,8,3,-1,5,4,-1
1558438931874043,-2,-4,-3,3,3,-3,1,-2
1558438931889009,-1,1,0,-2,1,-2,-4,-4
1558438931889009,1,4,1,-3,-1,7,5,2
1558438931895232,-1,-2,-1,4,-2,-3,-4,-1
1558438931895232,1,4,5,0,6,10,4,5
1558438931909986,-1,-1,-9,2,-1,0,-2,-3
1558438931909986,-1,-4,-2,-6,-3,-10,-5,0
1558438931917932,0,-1,4,-1,-1,1,-5,-3
1558438931917932,-1,-2,-6,-3,1,-5,-1,-1
1558438931932932,2,-1,6,4,7,4,9,3
1558438931932932,-2,0,2,2,-1,-2,-1,4
1558438931933896,-2,-1,-7,-4,-12,-10,-9,-7
1558438931933896,-1,-1,0,-2,-3,-1,0,2
1558438931948851,-1,2,3,5,8,4,3,0
1558438931948851,-1,0,-9,-5,-1,1,-2,-6
1558438931955048,-1,-1,0,-4,-9,-8,-6,-2
1558438931955048,-5,-10,-6,-2,-2,-2,-3,-4
1558438931970000,2,1,8,2,8,1,4,4
1558438931970000,-2,-1,-3,-1,-1,2,-3,0
1558438931977971,-1,-1,-8,-2,1,6,5,3
1558438931977971,0,6,6,4,1,0,-3,-4
1558438931992728,0,-3,-5,-7,-3,3,-1,-1
1558438931992728,1,-3,5,4,4,2,0,1
1558438931993726,3,0,1,4,2,0,1,-1
1558438931993726,-3,-5,-10,-11,-8,-11,-5,-5
1558438932008685,-1,0,-1,-3,-6,-3,-3,-4
1558438932008685,0,2,1,3,11,15,8,2
1558438932014872,-3,-3,3,-2,-5,-1,-3,-2
1558438932014872,1,-4,0,-3,-8,-12,-3,0
1558438932029630,-2,-2,-2,-1,-9,-10,-2,-2
1558438932029630,1,5,1,0,5,1,-1,-1
1558438932037608,-6,-10,-11,-6,-6,-5,-5,-5
1558438932037608,1,5,4,4,6,5,6,3
1558438932053623,-2,-4,2,-5,-9,-7,-5,-4
1558438932053623,-1,-2,3,6,3,-8,0,0
1558438932053623,1,1,2,-8,5,7,4,-1
1558438932053623,-2,-2,-3,1,-6,1,-1,-2
1558438932068774,-2,3,0,0,0,-4,-1,1
1558438932068774,-3,-3,-11,-4,-6,-5,-8,-8
1558438932074783,1,0,1,0,3,5,0,3
1558438932074783,0,-1,1,-5,-10,-7,-8,-4
1558438932089718,0,1,6,5,5,5,2,0
1558438932089718,-3,-8,-10,-7,-3,-3,3,1
1558438932097694,-2,1,0,-1,-2,-4,-3,-2
1558438932097694,-3,-1,-8,-5,-1,7,0,-3
1558438932112835,-3,-3,-12,-4,-3,3,-2,-3
1558438932112835,2,-1,3,2,-4,-17,-5,1
1558438932113655,-2,-1,3,0,-2,-14,-6,-2
1558438932113655,2,0,2,4,14,18,9,4
1558438932128616,0,2,3,4,3,5,1,1
1558438932128616,-1,3,1,-5,-8,4,-3,-4
1558438932135598,2,-1,-5,-2,-5,-7,0,1
1558438932135598,-6,-5,-5,0,-3,-13,-9,-5
1558438932149760,-2,-1,-4,-3,-6,-2,-2,-2
1558438932149760,1,1,8,3,9,6,4,3
1558438932157564,-3,-1,2,3,0,3,-5,-3
1558438932157564,-1,-1,-16,-7,1,-1,-1,-2
1558438932173494,2,-2,-4,-8,-14,-12,-5,-2
1558438932173494,-2,-4,4,-5,-8,0,1,-2
1558438932173494,2,0,-4,-1,1,3,1,0
1558438932173494,1,5,13,6,5,5,3,0
1558438932188454,-1,-2,-4,-3,-1,-9,-6,-2
1558438932188454,-1,-2,-6,0,-3,-4,-4,-3
1558438932195435,-1,-3,-4,-6,5,10,10,1
1558438932195435,1,-3,2,1,-4,0,-1,1
1558438932209406,-2,1,7,0,3,3,2,0
1558438932209406,-1,0,-2,-3,-5,-5,-3,-5
1558438932225354,-4,0,2,4,-7,-7,-8,-4
1558438932225354,-3,-2,-7,-1,0,-1,-3,-2
1558438932233505,-1,0,2,-1,2,-1,6,1
1558438932233505,0,0,-2,-3,2,3,4,1
1558438932233505,-3,-2,7,1,-1,1,-1,0
1558438932233505,-2,-1,-8,-7,-6,-9,-3,-3
1558438932248294,-4,-3,-2,-2,-1,10,-2,-1
1558438932248294,2,-1,-2,6,1,2,-2,0
1558438932254315,4,5,-4,-4,2,-5,5,2
1558438932254315,0,0,4,-1,-2,-3,0,0
1558438932270233,-5,-4,-6,-4,-3,-8,-8,-4
1558438932270233,-2,3,5,4,10,9,5,1
1558438932277247,0,-2,4,0,0,-3,-3,0
1558438932277247,0,-3,-3,2,-1,-3,-3,0
1558438932293171,-1,1,-1,-2,-3,3,-3,-1
1558438932293171,-5,-5,-14,-8,-11,-8,-7,-4
1558438932293171,-4,-2,-3,0,0,-5,1,-1
1558438932293171,2,1,11,4,5,-5,3,-1
1558438932308418,2,-2,0,-2,3,5,3,1
1558438932308418,-2,-1,0,1,1,-2,-2,0
1558438932315455,0,1,-13,-8,-4,11,0,-2
1558438932315455,-2,-1,0,2,-5,-7,0,-1
1558438932331184,2,0,12,11,6,0,-1,-2
1558438932331184,-2,-4,-8,-12,-9,-6,-3,-4
1558438932337431,-4,-1,-2,-2,-6,-9,-1,-2
1558438932337431,1,5,6,2,18,22,11,4
1558438932352346,-2,-4,-4,0,-1,1,0,0
1558438932352346,-1,-1,6,3,-2,-2,-4,-4
1558438932360320,-2,-3,-11,-5,-12,-10,-7,-3
1558438932360320,0,-1,-1,-3,-7,-6,-6,-1
1558438932368975,-3,-2,-9,-5,3,5,4,-2
1558438932368975,-2,1,9,3,0,3,4,-1
1558438932374953,-1,0,5,3,6,-7,-1,0
1558438932374953,-4,-4,-8,-8,-12,-10,-9,-3
1558438932390911,2,1,3,4,11,-6,-1,6
1558438932390911,0,0,-7,-1,3,1,3,1
1558438932396900,-1,1,6,4,-1,8,0,-1
1558438932396900,0,-1,1,-5,-2,4,1,-2
1558438932412085,-3,-4,-8,-7,-15,-16,-5,-5
1558438932412085,1,2,7,1,4,-5,-2,0
1558438932419834,-1,1,-2,2,4,9,1,0
1558438932419834,-2,-4,-7,-5,-10,-9,-6,-2
1558438932428812,2,-1,2,-2,-5,-4,-4,-1
1558438932428812,-3,-6,-10,-8,-2,3,0,-1
1558438932434832,-2,0,1,1,-3,-5,-3,-5
1558438932434832,2,3,6,4,4,-8,3,1
1558438932450751,-1,0,1,-1,3,8,2,1
1558438932450751,-2,-1,1,1,-1,-9,-5,-3
1558438932456737,-4,-5,-13,-10,-8,4,-4,-1
1558438932456737,-2,-4,-8,-1,-1,5,0,-2
1558438932471724,0,3,3,-2,0,-9,-3,-1
1558438932471724,3,2,10,12,7,4,7,4
1558438932479672,0,0,4,-9,-10,-7,-6,-6
1558438932479672,-3,-6,-8,-2,0,-4,-2,-1
1558438932495664,0,-1,-10,-5,-3,-6,-4,-1
1558438932495664,-4,-3,0,-3,1,13,-1,-5
1558438932495664,0,-1,0,-4,-5,-7,-1,1
1558438932495664,1,0,4,0,0,-9,-2,1
1558438932511588,0,0,-3,-3,-1,-1,-3,0
1558438932511588,0,0,5,3,6,2,7,4
1558438932526220,1,-1,-3,2,7,7,3,3
1558438932526220,-3,-5,3,-3,-8,-1,-11,-7
1558438932532951,-4,-6,-12,-5,-7,2,-4,-5
1558438932532951,2,6,0,1,9,5,7,3
1558438932539922,1,0,4,6,7,-1,5,2
1558438932539922,0,3,1,-10,-1,-1,0,0
1558438932556119,-1,-3,0,1,-6,-7,-6,-5
1558438932556119,-4,-2,-6,-5,-5,-3,-4,-1
1558438932556119,1,-1,9,6,5,-2,2,2
1558438932556119,-4,-5,-16,-6,-11,-4,-6,-3
1558438932571146,-1,-2,4,-2,-2,9,3,-3
1558438932571146,-1,-1,-5,-3,-6,-9,2,-1
1558438932578067,0,1,2,2,5,-5,4,2
1558438932578067,0,-2,11,4,5,2,0,-2
1558438932591787,0,-3,-11,-2,1,-3,-3,-1
1558438932591787,-1,-2,-6,-11,-14,0,-6,-3
1558438932599773,0,2,2,3,1,-3,-4,-1
1558438932599773,1,1,1,4,5,9,1,1
1558438932615963,-1,2,-1,-3,-2,4,5,1
1558438932615963,-3,-7,2,3,1,-6,-3,-3
1558438932615963,-1,-3,0,-7,-9,-6,-2,-4
1558438932615963,-1,-1,-11,-2,-2,2,1,-1
1558438932632965,2,3,9,4,4,7,3,1
1558438932632965,0,-1,-7,-5,-6,-11,-11,-1
1558438932637660,1,-1,-6,-1,0,1,4,3
1558438932637660,3,1,7,6,-1,-9,-2,3
1558438932652855,-2,-3,-2,-1,3,2,2,1
1558438932652855,-2,-1,1,-5,-3,4,-3,-5
1558438932659606,-4,1,-5,-2,-11,-4,-13,-7
1558438932659606,-3,2,4,4,8,5,7,0
1558438932675561,0,1,3,-2,-1,-6,-1,1
1558438932675561,-2,-2,2,-1,-6,-1,0,0
1558438932675561,2,-2,-4,5,13,14,7,3
1558438932675561,1,2,-2,-8,-5,-6,-7,-3
1558438932691518,0,1,5,0,-6,1,-2,-1
1558438932691518,-3,-5,-3,1,-1,-8,-4,-1
1558438932697499,-1,0,1,0,1,-3,2,0
1558438932697499,0,-2,-6,-1,-6,-1,-2,-2
1558438932712459,0,-1,-4,0,5,-8,3,2
1558438932712459,0,1,0,5,1,2,0,-4
1558438932719442,-4,-1,0,-13,-10,-2,-6,-5
1558438932719442,-4,-5,-5,-4,-11,-6,-3,-2
1558438932735438,-1,2,1,1,8,6,3,1
1558438932735438,0,-1,1,3,-2,-1,-4,1
1558438932736436,0,-2,-3,4,9,-2,2,3
1558438932736436,-2,0,-4,-1,1,2,0,0
1558438932751357,-3,-4,-3,-4,-4,-5,-6,-6
1558438932751357,1,0,3,-1,3,0,3,1
1558438932756750,-2,-2,-1,-3,-6,-3,-3,-3
1558438932756750,2,3,5,3,10,13,8,1
1558438932772576,-3,-1,-6,-4,-5,-11,-8,-2
1558438932772576,0,-1,-8,-4,2,7,0,-1
1558438932780382,0,-1,-1,1,-4,-10,-6,-4
1558438932780382,3,5,6,1,-1,0,1,0
1558438932795824,-7,-8,-2,-3,0,0,-6,-2
1558438932795824,0,-1,-6,-3,-3,-1,0,-2
1558438932795824,-1,1,4,-4,-4,0,-2,0
1558438932795824,0,1,-1,2,1,-4,3,2
1558438932811088,0,4,0,2,-2,4,-6,-4
1558438932811088,-2,-2,-6,-5,-5,-1,-4,-2
1558438932817982,2,-3,2,5,8,8,7,3
1558438932817982,1,-3,1,-2,-4,-8,-6,-4
1558438932832960,1,1,5,4,3,3,8,4
1558438932832960,-3,0,-6,-2,-5,-4,-4,-3
1558438932839712,-2,0,-6,-10,1,15,3,-3
1558438932839712,1,-2,3,4,5,0,2,0
1558438932855971,1,0,-9,-4,-3,-13,-8,-2
1558438932855971,0,0,5,-2,-3,1,-1,-2
1558438932856668,-3,-1,1,3,-1,-1,-3,-2
1558438932856668,-3,-4,-8,-5,-2,1,-5,-3
1558438932871627,0,1,3,-1,-1,-4,10,4
1558438932871627,3,5,8,6,6,1,1,1
1558438932877635,1,0,-7,-2,-6,-3,-7,0
1558438932877635,-4,-8,0,-3,-10,-7,-6,-3
1558438932892570,0,-1,-3,-1,5,1,2,1
1558438932892570,0,0,3,1,3,6,7,2
1558438932900547,0,0,0,1,3,2,-1,0
1558438932900547,-1,-3,-1,-5,-2,1,-3,-1
1558438932915827,2,0,-7,-2,0,0,4,1
1558438932915827,-2,-1,-1,-4,-12,-13,-9,-4
1558438932916781,-2,-2,-5,-2,8,7,1,-1
1558438932916781,-2,3,8,4,1,-2,1,2
1558438932931465,-1,-5,-9,-5,-10,-4,-4,-4
1558438932931465,-1,-3,-1,-4,-4,-6,-3,-2
1558438932937738,0,-2,2,2,1,-1,1,-2
1558438932937738,0,-1,-5,0,3,-1,-3,-2
1558438932952636,2,5,13,3,5,3,3,3
1558438932952636,-2,-2,-8,-5,-8,-7,-5,0
1558438932960389,-2,-3,-3,6,-1,7,4,1
1558438932960389,-4,-3,-5,-12,-9,0,-4,-3
1558438932975355,0,0,-1,0,-5,-8,-4,-4
1558438932975355,0,0,-4,2,4,2,3,2
1558438932976347,0,-2,4,-1,6,11,6,4
1558438932976347,1,3,0,6,7,-4,7,8
1558438932991306,0,0,2,0,0,-5,-5,-2
1558438932991306,-5,-6,-6,-6,-10,-2,-8,-9
1558438932997290,3,4,1,0,-6,-22,-4,0
1558438932997290,-3,-4,-5,-1,-4,11,-4,-8
1558438933012457,0,-3,-1,-1,-1,2,3,1
1558438933012457,3,4,6,6,15,8,6,6
1558438933020438,-6,-4,-7,-8,-11,-3,-7,-5
1558438933020438,2,0,2,1,-3,0,0,1
1558438933035494,0,-1,2,6,3,-1,-2,-2
1558438933035494,-5,-7,-16,-18,-16,-13,-9,-5
1558438933036194,-3,-3,0,-1,-4,-5,-5,-3
1558438933036194,1,2,5,6,12,11,8,3
1558438933051190,-2,-3,-2,-4,0,1,1,-1
1558438933051190,3,2,10,9,3,-3,0,0
1558438933057131,-1,-3,-16,-9,-9,-4,-6,-3
1558438933057131,-4,-2,-2,-2,-8,-11,-6,-4
1558438933072089,-5,-5,-7,0,8,16,8,1
1558438933072089,3,0,6,7,9,5,1,3
1558438933080072,0,-3,1,-2,-1,-7,-1,1
1558438933080072,-1,0,-2,-2,-4,6,-2,-1
1558438933103358,-4,-3,-4,-5,-12,-16,-8,-5
1558438933103358,-3,1,5,0,-1,-10,0,0
1558438933104312,0,-1,-1,2,3,1,-1,-2
1558438933104312,-1,1,-4,-2,6,-2,-1,-2
1558438933111134,-1,0,-1,-2,-10,6,-4,-3
1558438933111134,-2,-3,-4,-1,4,8,3,-1
1558438933126105,-1,-1,1,-1,1,-8,-3,1
1558438933126105,-2,-3,2,-3,-8,-12,-4,-2
1558438933132953,-2,-2,-4,-2,-2,-5,-4,-2
1558438933132953,-1,1,3,6,8,10,5,1
1558438933148239,1,1,6,-5,-9,1,1,1
1558438933148239,-1,0,-8,-2,-4,-1,-1,-2
1558438933156036,-1,3,10,5,10,9,5,3
1558438933156036,0,-1,1,-2,-3,0,-1,-1
1558438933156036,-2,-1,-12,1,0,-5,-5,-1
1558438933156036,-2,-5,-2,-3,0,-5,1,2
1558438933171005,-2,0,-5,-4,-11,-2,-7,-4
1558438933171005,-2,-2,-1,-1,8,11,11,1
1558438933177981,3,2,16,8,5,-8,1,4
1558438933177981,-1,-4,-16,-13,-8,-4,-9,-4
1558438933191784,-2,1,1,-2,-2,1,-3,-2
1558438933191784,-2,-5,-6,-3,-4,-3,-3,-2
1558438933199946,-2,0,-3,-5,-9,-6,-2,-4
1558438933199946,1,0,5,5,4,-1,1,0
1558438933215904,-2,-3,0,-4,-6,-5,0,0
1558438933215904,0,0,-2,-6,-5,-4,-5,-1
1558438933215904,-1,-2,-1,4,7,6,6,1
1558438933215904,0,4,10,3,4,-1,-1,0
1558438933231665,-1,-4,-9,-2,0,5,1,-1
1558438933231665,-1,-2,-6,-3,-6,-4,-2,-2
1558438933237860,-2,-2,-4,-1,-5,-1,-3,-1
1558438933237860,1,-2,1,2,-1,-1,-3,-2
1558438933252823,-2,-3,-2,0,0,2,-3,-3
1558438933252823,1,2,-1,-1,1,-4,-2,0
1558438933259592,-3,2,4,0,5,0,1,-2
1558438933259592,-3,-3,-5,-2,-4,-1,-3,-3
1558438933274548,3,2,4,2,-3,-11,-6,0
1558438933274548,-4,-2,-2,-1,-4,-3,-3,0
1558438933282527,0,2,2,-2,0,14,5,-2
1558438933282527,2,3,6,5,2,-9,3,1
1558438933291502,0,-4,-12,-8,0,1,4,1
1558438933291502,-1,-1,5,5,-6,-13,-5,-2
1558438933297563,-3,-1,-8,-11,-7,-6,-8,-5
1558438933297563,-2,-4,-1,-5,-6,5,-2,-2
1558438933313443,1,1,7,7,2,2,-2,-1
1558438933313443,-1,-1,-4,-5,2,-4,5,1
1558438933320453,0,-4,2,3,0,6,-1,-3
1558438933320453,-2,-3,-12,-6,-3,2,-2,-3
1558438933334412,-1,3,8,2,3,0,4,0
1558438933334412,-2,-1,-2,-6,-10,-9,-6,-1
1558438933342404,0,1,5,6,-1,-6,-4,-1
1558438933342404,-2,-2,-13,-13,-7,4,0,0
1558438933351342,1,-1,-1,2,19,18,10,2
1558438933351342,-2,-4,3,3,1,0,0,-2
1558438933357336,-3,-2,-2,-2,1,-3,-2,2
1558438933357336,0,1,4,6,5,1,4,1
1558438933372642,-2,3,1,-1,-9,0,-3,-3
1558438933372642,-2,-2,-7,-7,-3,-5,-5,-1
1558438933380263,-2,-1,-4,-1,0,3,6,1
1558438933380263,-2,0,-1,-1,-4,-6,-4,-3
1558438933395532,-1,-1,-2,-6,-13,-4,-7,-3
1558438933395532,2,1,7,4,0,4,1,-1
1558438933402472,0,-2,-7,-2,6,3,2,1
1558438933402472,0,3,5,2,-1,4,2,1
1558438933411183,-3,-6,-9,-5,-7,-21,-8,-2
1558438933411183,0,0,2,4,5,10,-2,-3
1558438933417402,-1,-1,-3,-12,-7,4,4,-1
1558438933417402,1,4,8,5,5,5,2,3
1558438933432346,-3,-2,-2,-5,-9,-8,-5,-2
1558438933432346,-1,-1,1,4,9,2,6,5
1558438933440106,2,-1,-2,1,1,-1,-2,-2
1558438933440106,-2,-3,-2,-2,1,6,1,-1
1558438933455275,0,2,0,1,1,3,-1,-1
1558438933455275,-2,-6,-4,-4,-4,-8,-2,-2
1558438933462263,-1,-1,3,-2,-5,-6,-3,0
1558438933462263,0,-1,5,0,-9,-9,-3,-3
1558438933478003,-3,-2,-7,-4,-1,-1,1,0
1558438933478003,1,4,-7,0,2,0,1,0
1558438933479002,-1,-2,-2,0,-2,4,-2,1
1558438933479002,-2,-3,-3,-1,-2,-1,-3,-1
1558438933491967,3,1,8,-3,1,7,2,0
1558438933491967,-1,-3,-7,-6,-12,-7,-7,-4
1558438933500206,1,0,5,3,5,2,7,2
1558438933500206,-1,-1,-5,-1,2,-5,-3,0
1558438933514907,-1,-1,-2,3,6,7,0,-1
1558438933514907,-2,0,2,-5,-7,5,2,0
1558438933522176,-3,-3,-6,-4,-14,-20,-13,-4
1558438933522176,1,2,16,5,1,-7,-2,-1
1558438933538132,2,0,-14,0,8,0,8,4
1558438933538132,-1,-2,-5,-3,4,2,-1,0
1558438933538841,-1,1,2,1,4,7,0,-2
1558438933538841,-2,-1,-5,-8,-10,-5,-2,-1
1558438933552900,-1,-3,7,1,-5,-8,-7,-2
1558438933552900,0,2,4,5,9,8,4,3
1558438933560072,-1,-1,-7,-6,-5,-7,-2,-2
1558438933560072,0,-3,-6,-3,4,8,2,-2
1558438933574744,-1,1,3,-1,-2,-3,-1,-1
1558438933574744,-3,-2,-1,-3,-5,4,-4,-4
1558438933582917,1,0,5,3,3,-3,-2,1
1558438933582917,-3,-4,-6,-4,-1,-5,-2,-2
1558438933597976,-2,-2,2,2,3,7,3,-2
1558438933597976,-1,0,5,1,-5,-2,1,-1
1558438933598683,-2,-3,-6,3,6,7,4,1
1558438933598683,-4,-3,1,0,1,2,2,1
1558438933612662,-3,-4,-6,2,5,-4,-1,-3
1558438933612662,2,0,-1,0,-1,-3,1,-1
1558438933619915,1,0,-2,-7,-1,8,2,-3
1558438933619915,-2,-3,-3,-1,-3,2,-5,-4
1558438933635610,1,3,13,4,2,5,4,2
1558438933635610,-1,0,0,-1,1,-10,-4,0
1558438933642830,-1,-2,-3,0,0,-9,4,2
1558438933642830,-3,-2,-2,-1,3,-1,1,2
1558438933659521,-2,-3,-3,-3,-9,-5,-7,-3
1558438933659521,0,0,-1,1,1,3,0,0
1558438933659521,0,1,0,-1,-2,-2,-6,-3
1558438933659521,0,-2,4,2,-1,2,-2,1
1558438933672582,-2,-1,-5,-3,-4,-13,-4,-1
1558438933672582,0,-2,2,-1,4,9,2,-1
1558438933679463,1,2,8,2,-3,-12,-3,0
1558438933679463,-2,2,-8,-3,0,-5,0,-3
1558438933694422,0,-3,-8,-4,-1,1,2,-2
1558438933694422,-4,-3,-3,-2,-4,-1,-6,-4
1558438933702403,3,2,3,4,11,12,4,2
1558438933702403,-3,-4,-6,0,-7,-6,-1,-1
1558438933717389,-1,-1,-1,0,-2,-6,-2,-1
1558438933717389,-1,-2,-2,-3,-4,-4,-2,-3
1558438933718358,-2,-1,2,1,4,12,1,-1
1558438933718358,2,0,0,4,1,0,3,-1
1558438933732320,0,-1,-1,-4,-2,-8,-5,-1
1558438933732320,-1,-3,-2,-4,-1,9,0,-3
1558438933739302,-6,-5,-5,-4,-11,-6,-4,-4
1558438933739302,1,-1,-3,-4,6,3,0,0
1558438933754263,2,3,5,5,2,-9,-1,1
1558438933754263,-1,3,-1,-10,-9,-9,-6,0
1558438933762276,-6,-9,0,1,-1,0,3,-1
1558438933762276,-3,-1,-12,-1,-4,-1,-6,-3
1558438933778413,-4,-2,1,-8,-9,1,0,-1
1558438933778413,-1,-2,-7,2,-3,-7,-2,-2
1558438933778413,1,-1,4,0,5,4,1,-1
1558438933778413,3,1,10,-1,-4,-2,1,1
1558438933800495,-1,1,-2,1,4,5,-2,0
1558438933800495,-4,-3,-7,-3,1,-3,0,1
1558438933808478,-3,-2,-4,-3,-4,-2,-5,-2
1558438933808478,-3,-2,3,0,1,7,-3,-3
1558438933815438,-2,-2,-1,-3,-10,-7,-3,-5
1558438933815438,2,0,6,0,4,-1,5,4
1558438933822431,1,2,0,3,1,-9,-5,3
1558438933822431,-3,-3,-3,-3,0,-1,1,-1
1558438933838398,-1,-2,-3,-1,5,14,1,-1
1558438933838398,-1,1,-2,-2,-8,-3,-2,-4
1558438933839351,1,1,-2,-2,-14,-11,-6,-4
1558438933839351,3,2,0,-1,11,7,7,3
1558438933852998,-1,0,1,1,3,-2,-1,-3
1558438933852998,0,-6,4,3,0,-4,-3,-2
1558438933860310,-2,-1,-1,-5,-2,5,-1,-1
1558438933860310,-2,-4,-5,-1,-2,-1,0,-2
1558438933874969,-2,2,-3,-2,1,-7,1,-1
1558438933874969,1,1,2,2,3,4,0,1
1558438933881925,-1,-4,-9,-7,-12,-16,-7,-5
1558438933881925,-1,-2,5,3,2,-5,0,2
1558438933897878,-1,-4,5,-6,-6,-1,-2,2
1558438933897878,-2,1,-7,-4,1,3,-1,0
1558438933898877,-2,-3,-5,4,0,1,-1,-2
1558438933898877,-1,0,-4,-11,-8,-4,2,0
1558438933912202,2,0,7,8,5,8,2,1
1558438933912202,-5,-4,-5,-8,-3,-2,-2,-4
1558438933919821,0,0,0,0,-1,0,1,1
1558438933919821,-1,-2,-4,3,-2,0,-5,-3
1558438933936240,-2,-1,-5,-1,-1,-3,-1,0
1558438933936240,-1,1,10,3,-1,-3,-3,-1
1558438933943136,0,0,-3,4,16,13,8,3
1558438933943136,-2,2,-2,-12,-13,-3,-1,0
1558438933957735,-4,-1,-4,-5,-8,-3,-3,-4
1558438933957735,-1,-2,1,2,-1,-12,-7,-2
1558438933958715,0,-1,-3,-1,-2,-2,1,-1
1558438933958715,-4,-7,-5,-7,-4,-6,-9,-6
1558438933972829,-2,-7,-3,0,4,14,5,-1
1558438933972829,0,2,-1,2,-3,-5,1,-2
1558438933988005,-3,-3,4,-4,-4,-8,-1,-2
1558438933988005,3,3,8,7,16,13,9,7
1558438933994980,0,-1,-7,0,0,1,3,4
1558438933994980,-1,-2,2,-1,1,6,2,-2
1558438934002899,0,0,-1,-4,-11,-4,-6,-2
1558438934002899,-3,-7,-4,-3,-10,-11,-5,-2
1558438934018648,1,0,1,1,3,-2,2,1
1558438934018648,-1,1,-1,1,-1,-1,-1,0
1558438934018648,-3,0,2,-4,-2,3,-1,-3
1558438934018648,-2,-3,-8,-2,-8,-4,-6,-5
1558438934032775,0,-3,-2,-1,-2,-10,-5,2
1558438934032775,1,1,1,3,8,3,1,0
1558438934039506,-1,-1,1,-7,-7,-2,-3,-1
1558438934039506,1,3,-1,2,0,7,3,2
1558438934055492,-1,-2,-3,-2,-7,-11,-7,-5
1558438934055492,-2,-2,-2,-1,-3,-3,-5,-3
1558438934062704,1,2,4,5,15,7,7,5
1558438934062704,-4,-7,-4,-4,-9,-7,-3,-1
1558438934086378,-2,1,-2,-3,-7,-2,-3,-3
1558438934086378,0,-1,-7,-3,-5,-3,-6,-1
1558438934086378,1,-1,-1,-4,3,-10,-3,1
1558438934086378,2,4,8,5,8,6,2,-2
1558438934092592,0,1,3,3,9,0,0,-1
1558438934092592,-1,-2,-3,-4,-8,0,-2,-3
1558438934100420,-6,-8,-9,-2,-15,-11,-14,-8
1558438934100420,1,0,0,-3,2,-5,5,1
1558438934114304,1,1,6,0,-1,8,-1,-1
1558438934114304,-1,0,-5,0,8,12,6,2
1558438934122281,-2,-3,-4,-5,0,0,-4,-3
1558438934122281,2,3,6,4,3,-12,-5,2
1558438934138678,-2,0,1,-1,-7,-1,-3,-2
1558438934138678,-1,-3,1,-2,1,-3,0,-1
1558438934138678,-1,0,-3,1,0,1,2,-1
1558438934138678,-1,1,-2,0,1,4,-1,-5
1558438934152606,1,3,5,3,1,2,0,-1
1558438934152606,-6,-12,-16,-5,-9,-9,-9,-5
1558438934160560,2,1,4,0,4,-1,6,5
1558438934160560,0,4,5,5,8,4,5,2
1558438934175523,-4,-3,-4,-2,-6,-10,-4,-1
1558438934175523,2,1,-1,3,5,9,2,0
1558438934182537,-1,-2,-5,-6,-9,0,-1,-2
1558438934182537,-5,-2,-4,1,0,3,-2,-2
1558438934197442,-2,-4,0,-4,-6,-13,-1,-1
1558438934197442,0,-1,4,0,-6,-4,-6,-5
1558438934205391,1,3,3,2,-1,-8,2,2
1558438934205391,2,1,-3,1,10,11,4,1
1558438934214202,-1,1,3,-1,0,0,-1,-2
1558438934214202,-2,-3,-3,-7,-2,2,-2,-2
1558438934220366,-3,-2,-9,0,-8,-6,-9,-3
1558438934220366,-3,-5,-9,-3,-5,-7,-1,-1
1558438934235423,2,2,1,0,5,-5,-2,2
1558438934235423,3,4,5,4,8,8,10,7
1558438934242444,1,1,1,-5,-3,-1,-3,-2
1558438934242444,-3,-5,1,1,2,4,3,2
1558438934257092,-1,-2,-4,-2,-1,3,1,-4
1558438934257092,1,2,5,1,-3,-12,-1,1
1558438934265274,-1,-2,-2,-3,3,10,1,-1
1558438934265274,-2,-1,0,-3,-3,-2,-3,-1
1558438934274046,-1,1,1,0,0,-2,-2,-1
1558438934274046,0,0,-3,1,-1,-5,5,0
1558438934280334,-3,-4,-10,-1,5,6,-2,-1
1558438934280334,-1,-1,2,-9,-15,-19,-5,-3
1558438934294283,-1,-4,-2,-2,-6,0,-5,-4
1558438934294283,-2,0,2,-3,0,4,-6,-2
1558438934302498,4,1,-2,2,9,-1,5,4
1558438934302498,0,1,5,8,-2,3,-7,-3
1558438934317248,-4,-4,-4,-11,-4,-3,-1,-1
1558438934317248,1,-1,-14,-6,0,-6,1,0
1558438934325427,-2,0,6,3,4,8,6,1
1558438934325427,0,3,4,5,1,4,-3,-3
1558438934333548,-4,-7,-15,-10,-13,-10,-10,-6
1558438934333548,0,1,8,2,5,5,0,1
1558438934340153,1,1,-1,-2,-6,-7,0,-1
1558438934340153,-1,-5,-1,0,-2,-11,4,2
1558438934355485,1,3,3,6,10,11,6,3
1558438934355485,-4,2,-3,-9,-12,-9,-8,-3
1558438934362289,-1,-4,-3,-3,-10,-3,-8,-6
1558438934362289,3,0,-2,-2,9,17,7,3
1558438934378077,4,1,8,5,7,2,2,2
1558438934378077,-2,-6,-8,-4,-7,0,-5,-4
1558438934385406,0,1,2,3,3,0,-1,1
1558438934385406,0,2,6,-2,-2,-11,3,2
1558438934401023,-4,-2,-6,-4,-2,2,0,-2
1558438934401023,2,1,1,3,11,7,2,3
1558438934401023,-4,-2,-4,1,-1,4,-4,-4
1558438934401023,-3,-5,-5,-4,-11,-2,-7,-3
1558438934415290,-3,-4,-7,0,4,-8,-4,-2
1558438934415290,-1,-1,2,0,-7,-9,4,-1
1558438934422247,-1,-1,0,-1,4,12,7,1
1558438934422247,-2,0,4,-1,0,-2,-3,-1
1558438934437960,0,0,-3,-1,-5,3,-1,-1
1558438934437960,-2,-3,-6,-2,-2,-2,-7,0
1558438934445181,3,1,2,0,0,-5,5,4
1558438934445181,-2,-3,-7,-4,1,0,-6,-2
1558438934461054,-4,-3,-2,-5,-6,-3,-3,-2
1558438934461054,3,5,10,11,16,12,11,3
1558438934461054,-4,-4,-7,-7,-7,-13,-2,-3
1558438934461054,2,1,-1,0,-2,5,-1,-3
1558438934474825,2,3,6,6,6,3,6,3
1558438934474825,-4,-4,-1,-7,-6,-1,-2,-1
1558438934482799,-2,1,-6,0,-2,1,-5,-3
1558438934482799,-1,-3,-8,-7,-4,-5,3,-1
1558438934496974,2,-2,2,0,1,-1,1,-1
1558438934496974,1,0,3,2,3,-9,0,0
1558438934504944,0,-3,5,0,3,0,-4,-4
1558438934504944,-2,0,-5,2,-2,2,-2,-3
1558438934520677,0,1,5,1,4,10,1,2
1558438934520677,-1,-1,-9,-5,-11,-5,-3,-3
1558438934520677,-1,0,2,0,2,-3,7,1
1558438934520677,-2,-3,-8,-3,-5,1,-5,-4
1558438934534668,1,1,0,-1,-3,-3,-1,0
1558438934534668,-5,-5,-2,-5,-2,0,-4,-2
1558438934542907,-3,-4,2,0,0,-4,-6,0
1558438934542907,-4,0,-1,0,6,7,6,1
1558438934557571,-1,0,1,-1,0,-5,-4,-2
1558438934557571,0,1,-2,0,-5,0,1,-4
1558438934564791,1,1,-3,-4,-4,0,1,0
1558438934564791,1,-5,-2,-1,-5,-10,-10,-4
1558438934581805,-2,-5,-3,-4,-6,1,-2,-1
1558438934581805,2,4,6,11,8,-7,1,3
1558438934582506,-2,-4,-6,-11,0,10,7,2
1558438934582506,-1,0,1,1,0,-2,3,-1
1558438934595072,-3,2,-3,1,1,6,-2,-2
1558438934595072,0,-4,-2,-2,-4,-4,-6,-2
1558438934602076,0,1,4,2,-8,-14,-5,-3
1558438934602076,1,3,3,2,-3,-6,-5,-1
1558438934617917,0,-3,0,0,8,7,6,4
1558438934617917,-2,-3,-1,-5,-5,0,-3,-3
1558438934624995,-2,-2,0,2,2,-6,-1,2
1558438934624995,0,3,4,5,6,-4,-1,0
1558438934640678,0,1,-6,-10,-13,-5,-7,-4
1558438934640678,-2,-4,-1,-2,2,8,4,2
1558438934640678,2,0,-1,0,-1,-4,-1,1
1558438934640678,-1,-3,4,1,0,-1,0,0
1558438934654916,-3,2,-1,-3,-4,-2,-3,-2
1558438934654916,-2,2,1,-1,-2,5,1,0
1558438934662622,-2,-2,-1,-1,0,-3,0,-1
1558438934662622,0,-5,-7,-6,-2,-2,-2,1
1558438934677847,2,0,1,2,7,5,5,0
1558438934677847,-1,-3,-2,-4,-8,-5,-6,-5
1558438934684825,-2,1,3,3,-7,-4,-1,-2
1558438934684825,0,-1,-6,-2,3,2,-5,-1
1558438934700790,-4,-5,-4,-8,-8,-1,2,-1
1558438934700790,2,2,5,2,3,0,-2,2
1558438934700790,-1,2,3,6,12,3,3,3
1558438934700790,-3,-3,-3,-10,-11,-3,-2,-1
1558438934714764,-5,-4,-9,1,-3,-7,-7,-4
1558438934714764,-3,-1,4,2,1,-10,-2,-2
1558438934722460,0,0,1,-5,-4,10,-4,-3
1558438934722460,0,2,1,3,1,2,2,-1
1558438934737623,-3,-8,-9,-6,-2,-8,-2,0
1558438934737623,0,-2,-5,1,3,6,5,0
1558438934744438,-5,-1,-4,-4,-1,4,1,-1
1558438934744438,1,1,7,3,-6,-8,-1,1
1558438934760694,2,1,1,0,-2,-5,-7,-2
1558438934760694,-1,-4,-13,-1,1,3,-5,-4
1558438934761357,-2,-5,-7,-11,-10,-10,-7,-4
1558438934761357,0,2,1,1,3,3,6,2
1558438934775428,3,4,9,5,9,1,2,2
1558438934775428,-4,-2,3,2,-1,1,0,-1
1558438934782299,-4,-7,-15,-4,-13,-10,-7,-5
1558438934782299,0,1,2,-2,1,6,6,-2
1558438934797259,3,0,-5,0,3,-2,2,1
1558438934797259,-2,-2,-2,-6,-7,-5,-3,-3
1558438934804244,2,1,0,3,4,2,-2,0
1558438934804244,-3,-3,2,-3,0,-4,-7,0
1558438934820236,-4,-1,-2,2,-8,1,-3,-3
1558438934820236,2,3,-3,-6,2,-6,6,4
1558438934821197,2,1,9,7,16,11,7,2
1558438934821197,0,-1,-6,-11,-20,-11,-7,-2
1558438934834161,-3,-4,-3,-3,-2,2,-1,-5
1558438934834161,0,-1,2,0,1,-3,-3,1
1558438934842140,-2,0,-1,0,-3,1,-2,-3
1558438934842140,1,2,8,8,11,-4,3,2
1558438934857101,-1,-3,-5,0,-4,7,-3,0
1558438934857101,-2,-3,-6,-7,-13,-12,-5,-3
1558438934865512,1,-3,2,-3,-2,-6,-9,-2
1558438934865512,-1,0,-5,0,5,13,4,-1
1558438934889224,1,3,12,3,6,-4,10,3
1558438934889224,-2,-6,-9,0,0,9,-4,-4
1558438934889224,0,-2,-3,2,3,-4,-1,0
1558438934889224,-1,5,5,-2,4,4,0,1
1558438934894998,-3,-4,-6,-6,-14,-9,-6,-6
1558438934894998,1,2,8,7,13,13,10,3
1558438934903012,-4,-4,-9,-7,-13,0,-6,-7
1558438934903012,1,-1,0,9,8,-7,-5,-2
1558438934916940,-1,1,7,-10,-3,1,0,2
1558438934916940,-1,-4,-13,-5,-6,-6,-3,2
1558438934924919,-1,-1,0,-2,-2,-11,-3,-3
1558438934924919,-3,-5,-5,1,0,3,1,-3
1558438934939879,-1,1,1,2,6,7,0,0
1558438934939879,1,3,7,6,5,4,0,-1
1558438934940876,4,4,3,-4,-5,-1,4,6
1558438934940876,-2,-4,-4,-8,-12,-7,-8,-5
1558438934955837,-5,-8,-5,-1,1,2,-3,-3
1558438934955837,0,1,2,-1,2,2,3,-2
1558438934961988,2,6,15,10,8,1,7,5
1558438934961988,-5,-8,-27,-17,-17,-11,-9,-4
1558438934977871,1,1,-3,0,1,0,3,1
1558438934977871,-4,-3,-4,0,1,-2,-3,-4
1558438934984948,-2,0,5,6,5,-7,-3,-3
1558438934984948,2,2,0,-13,-4,13,3,-2
1558438935000981,3,2,3,6,4,-13,0,2
1558438935000981,-1,-3,-2,-8,-9,-14,-5,-2
1558438935000981,0,-3,-4,-2,-3,7,-4,-2
1558438935000981,-1,-2,2,7,10,14,4,-3
1558438935014868,-1,-3,-5,-3,0,-2,-2,0
1558438935014868,-1,2,6,-1,0,4,2,5
1558438935021845,-1,-2,-6,-2,-1,5,-3,-5
1558438935021845,0,1,4,5,4,-2,3,4
1558438935036882,0,2,-4,-4,-7,-10,0,-2
1558438935036882,-1,-2,-1,0,-5,-10,-5,-2
1558438935044807,-1,-3,3,-1,3,5,1,1
1558438935044807,1,-1,-5,0,2,-4,-1,0
1558438935060554,0,2,6,3,5,9,-2,-3
1558438935060554,0,0,-4,-1,0,9,2,0
1558438935060554,0,-3,-6,-2,-3,1,0,-1
1558438935060554,-4,-5,3,-2,-5,-7,0,-1
1558438935074518,-2,0,-3,-2,-4,-7,-3,-2
1558438935074518,-2,-2,6,3,3,9,-3,-5
1558438935082496,0,1,-4,-1,0,1,2,-2
1558438935082496,-2,3,-2,3,11,2,3,6
1558438935097456,-1,-2,3,2,-3,0,2,-1
1558438935097456,0,-3,-13,-4,-2,-4,-3,-3
1558438935104452,-2,-4,0,-6,-5,2,-3,-3
1558438935104452,1,-2,1,5,-7,-9,-3,0
1558438935119397,0,1,1,-4,3,1,6,2
1558438935119397,-2,-1,-1,-3,-4,-4,-5,-4
1558438935127387,-3,0,2,1,-2,-2,-2,-2
1558438935127387,-1,-3,-4,-4,4,-6,0,3
1558438935134395,-1,0,1,5,1,4,-3,-3
1558438935134395,0,0,6,-2,-5,-3,-2,1
1558438935142373,-3,-2,-14,-8,-7,-8,-6,0
1558438935142373,-3,2,3,-2,-7,2,-3,-8
1558438935157297,2,0,0,-2,5,2,1,1
1558438935157297,-4,-7,-5,-3,-2,-7,-4,-2
1558438935164277,-3,-2,-4,-3,-3,4,3,-4
1558438935164277,4,1,12,7,3,-5,2,1
1558438935179275,0,-2,-15,-9,-8,0,-2,0
1558438935179275,1,3,1,3,5,6,5,0
1558438935187217,0,0,4,-2,-8,-5,-4,-1
1558438935187217,-1,1,5,2,3,3,1,-3
1558438935196193,-1,-4,-4,-5,-12,-12,-11,-3
1558438935196193,-1,-1,-9,-3,0,6,4,0
1558438935202176,1,2,9,7,9,-6,2,1
1558438935202176,0,-1,-7,-2,7,9,3,1
1558438935217139,-3,-1,5,8,10,7,-2,-2
1558438935217139,0,1,-2,-15,-18,-11,-4,-1
1558438935225116,-2,-2,0,2,1,2,-1,1
1558438935225116,-2,-1,1,-3,-6,-11,-3,-2
1558438935240076,-2,0,-1,-1,8,3,5,0
1558438935240076,-1,-1,1,1,2,2,1,1
1558438935248061,-1,-3,-5,-1,-2,-6,0,-2
1558438935248061,0,-4,-6,-3,-6,-3,-7,-2
1558438935255041,-3,0,-4,-3,-6,2,-4,-3
1558438935255041,2,3,3,3,1,-2,-2,-1
1558438935262015,-1,2,-1,-2,4,4,4,4
1558438935262015,0,1,-1,-2,-5,-6,-7,-4
1558438935276976,-1,-5,3,2,-6,-13,-4,-3
1558438935276976,-4,-3,-10,-5,0,-1,-5,-4
1558438935284962,-1,-2,-2,-1,-4,-4,-5,-3
1558438935284962,-2,-3,-2,-1,-1,0,4,0
1558438935299918,2,2,4,-1,7,7,6,1
1558438935299918,0,0,5,9,8,4,2,2
1558438935307897,-3,-5,-7,-7,-10,-11,-5,-5
1558438935307897,-3,-2,-5,-1,2,6,1,1
1558438935322859,0,0,-1,0,-2,2,2,-3
1558438935322859,0,1,2,0,3,-1,-1,0
1558438935323853,0,-2,-1,1,-4,1,-1,-4
1558438935323853,-1,-1,0,1,-2,-5,-7,1
1558438935336816,0,0,7,3,3,-1,0,-3
1558438935336816,-3,-6,-15,-7,-5,-4,1,-3
1558438935344797,1,-1,2,1,2,5,-1,2
1558438935344797,-2,-2,0,-6,-5,4,3,-1
1558438935359757,-3,-3,-3,0,-4,-3,-4,-2
1558438935359757,3,5,11,1,-1,-8,1,2
1558438935367735,-2,-2,-13,-5,-2,-1,0,-3
1558438935367735,0,-3,1,0,-1,-6,-2,-2
1558438935382694,-1,-3,-5,-3,-2,-3,2,2
1558438935382694,1,6,18,6,3,-1,-4,-2
1558438935383691,-1,-2,-12,-5,2,1,0,0
1558438935383691,-2,-1,-14,-2,-2,3,0,-2
1558438935397654,-6,-10,-8,-5,-6,-5,-4,-5
1558438935397654,-1,-6,-4,-8,-12,-8,-3,-1
1558438935404642,1,2,15,8,3,3,-2,0
1558438935404642,0,3,3,0,3,3,5,3
1558438935420600,-1,0,-6,-4,-7,-11,-2,-1
1558438935420600,0,-4,-3,0,7,9,0,-3
1558438935427578,-1,-1,3,1,2,2,1,0
1558438935427578,2,1,3,-2,-3,4,-3,-3
1558438935442536,-2,-2,-9,-5,-1,3,-3,1
1558438935442536,-2,0,0,1,-1,9,9,1
1558438935443531,0,1,-2,-2,-3,-19,-7,0
1558438935443531,-3,-2,1,-3,-3,2,2,-1
1558438935457494,1,1,1,-2,-8,-6,-4,-1
1558438935457494,0,-2,1,2,2,-3,-6,-5
1558438935464478,-4,-4,-6,-5,4,3,2,-3
1558438935464478,-3,-3,5,-2,-2,-6,0,0
1558438935479438,1,1,-2,2,9,11,4,1
1558438935479438,-1,-3,-7,-2,-11,-6,-3,0
1558438935487417,2,6,10,1,-3,1,2,3
1558438935487417,-8,-11,-11,-8,-10,-9,-14,-8
1558438935502374,-2,-1,-4,-2,4,7,12,3
1558438935502374,0,4,-2,-1,3,-8,-1,1
1558438935503372,0,-4,2,4,-1,-2,-3,-3
1558438935503372,2,4,0,-1,-1,2,1,1
1558438935517337,2,0,3,0,-1,-6,-9,1
1558438935517337,-3,-3,-1,1,6,1,2,2
1558438935524315,1,0,-1,-2,-3,3,-4,-3
1558438935524315,-2,1,1,1,3,-1,2,2
1558438935540274,-1,0,0,-3,0,4,2,-1
1558438935540274,-1,1,1,4,1,-2,-2,-2
1558438935548251,-4,-2,-5,-4,-3,0,-3,-2
1558438935548251,-1,-4,-5,-2,-9,-12,-7,-3
1558438935563211,0,2,4,5,8,10,6,1
1558438935563211,-3,-3,1,-1,-6,-9,-9,-6
1558438935563211,2,-1,-6,0,2,3,6,0
1558438935563211,1,5,4,2,17,16,9,1
1558438935577180,0,0,-2,-3,-13,-16,-8,-1
1558438935577180,-1,-2,0,-7,-11,-5,-1,1
1558438935584157,-2,-1,-6,-5,-4,-9,-5,-3
1558438935584157,2,-2,3,12,9,12,3,0
1558438935600118,-3,-5,-1,-8,-3,-3,-4,-2
1558438935600118,0,-4,-12,-4,3,8,3,-1
1558438935608091,3,1,7,4,3,6,4,3
1558438935608091,-3,-1,-3,-5,-6,-16,-9,-3
1558438935623054,-2,-2,-5,-3,-7,0,-4,-6
1558438935623054,0,-4,1,-1,-3,-4,-4,-1
1558438935623054,1,0,-1,-2,7,11,9,5
1558438935623054,-1,-1,0,2,2,0,1,-2
1558438935637013,1,2,5,3,1,0,-4,-2
1558438935637013,0,2,0,1,6,-5,0,3
1558438935644999,-1,1,0,-1,1,-5,2,-2
1558438935644999,-1,-5,-9,-7,-8,2,-3,-2
1558438935659952,-1,-3,2,1,-10,-7,-5,-4
1558438935659952,1,0,-5,1,2,5,0,1
1558438935667931,-1,-5,4,0,5,2,0,0
1558438935667931,0,-1,-14,-5,-3,-4,-1,1
1558438935690879,1,-1,1,2,6,2,2,1
1558438935690879,-2,0,-4,-2,-10,-6,-4,-4
1558438935691871,0,-1,-4,-1,2,4,4,1
1558438935691871,1,3,14,6,4,4,4,1
1558438935696858,-2,-3,-11,-6,-5,-6,-2,-2
1558438935696858,0,2,8,3,10,12,7,2
1558438935704831,-9,-14,-19,-11,-17,-17,-12,-4
1558438935704831,0,0,0,6,3,-6,0,2
1558438935720791,1,1,1,-8,-6,1,-1,0
1558438935720791,-1,0,3,1,0,-1,0,-2
1558438935727775,-1,4,-3,-1,-6,2,-6,-4
1558438935727775,-2,-3,-3,-4,-9,-3,-5,-4
1558438935750713,1,-3,0,0,1,-7,-1,2
1558438935750713,4,3,7,2,9,6,6,4
1558438935751707,2,1,6,2,0,-1,4,-1
1558438935751707,-2,-3,-9,-6,-8,-13,-7,-4
1558438935756702,-4,0,2,5,0,7,0,-2
1558438935756702,-2,-3,2,-2,1,10,3,-1
1558438935764832,3,0,-7,2,2,-15,1,3
1558438935764832,-3,-4,0,-4,2,3,-7,-4
1558438935779793,-1,0,-3,-5,-7,-3,-1,-1
1558438935779793,-1,-3,-4,-2,-8,-9,-6,-2
1558438935787613,-1,2,8,1,0,8,-4,-3
1558438935787613,-4,-5,-5,-2,-7,-5,1,-4
1558438935802570,1,-2,0,3,8,6,-3,1
1558438935802570,-1,-1,-1,-2,-2,0,-7,-4
1558438935803568,2,4,6,3,6,-2,3,4
1558438935803568,0,2,-3,-2,6,0,6,2
1558438935817529,-3,-5,3,-1,-4,-7,-3,-3
1558438935817529,-4,-4,-11,-6,-5,0,-3,-4
1558438935824512,0,-3,0,10,4,8,-3,-2
1558438935824512,4,3,3,-13,-10,-11,-6,2
1558438935839472,1,1,-1,-2,3,5,4,1
1558438935839472,-4,-3,-2,3,-2,-7,-6,-3
1558438935847451,-3,-2,-8,-2,3,8,-2,-1
1558438935847451,0,-1,5,0,-3,-3,0,-2
1558438935862452,2,1,-6,1,-3,-5,-3,-1
1558438935862452,-2,-4,-3,-3,-3,-3,0,-1
1558438935863408,-3,3,4,0,3,4,1,-2
1558438935863408,-3,0,-3,0,3,-2,3,1
1558438935877369,1,0,-4,-4,-4,-13,-3,1
1558438935877369,3,3,4,4,17,19,14,5
1558438935884358,0,-2,-1,-2,0,6,-1,-2
1558438935884358,-2,2,1,5,-2,3,-6,-4
1558438935899312,0,2,5,1,-4,-6,-2,-2
1558438935899312,-4,-2,1,-5,-11,-10,-7,-3
1558438935908288,-1,-4,-6,-4,1,-5,-2,-3
1558438935908288,0,3,6,2,8,6,9,4
1558438935923253,-1,-1,-7,-2,-1,0,-2,-3
1558438935923253,1,2,4,0,-5,0,-2,0
1558438935923253,-2,-3,2,-1,-8,-5,-7,-3
1558438935923253,-1,-5,-8,-10,-10,-1,-4,0
1558438935937210,-3,-5,-5,-8,2,5,5,-2
1558438935937210,0,1,-2,1,5,5,2,1
1558438935944197,-2,0,4,0,-1,-8,2,0
1558438935944197,-2,-2,-5,-1,0,-2,0,0
1558438935960153,-3,-3,-2,0,-3,7,-4,-2
1558438935960153,-1,-2,-4,-2,-6,-4,-4,-2
1558438935968131,2,2,3,0,5,-8,3,1
1558438935968131,1,3,9,8,10,14,5,2
1558438935983089,-3,2,6,-10,-17,-7,-4,-5
1558438935983089,-2,-1,-19,-7,0,0,-6,0
1558438935983089,-3,-6,-8,-5,-4,-3,3,-2
1558438935983089,-1,-6,-5,-4,-9,-12,-10,-5
1558438935997051,0,2,10,7,5,3,0,3
1558438935997051,1,2,8,2,5,1,1,-1
1558438936012014,-1,-1,-8,-10,-13,-6,-3,2
1558438936012014,0,-1,0,8,13,14,2,-1
1558438936020987,-4,-1,-3,1,-2,-3,-1,-4
1558438936020987,-1,-2,0,1,-8,-11,-6,-3
1558438936026972,-2,4,0,3,-6,-8,-3,-1
1558438936026972,-3,-7,-11,-7,-5,-4,0,-1
1558438936042927,0,2,7,11,16,9,7,6
1558438936042927,-1,-3,-7,-5,-10,-11,-6,-2
1558438936043924,0,-3,-1,-5,7,11,3,-1
1558438936043924,2,5,5,-4,-8,-12,-7,-2
1558438936056890,-1,-2,-5,6,10,7,7,6
1558438936056890,-5,-4,-1,-1,0,0,0,-6
1558438936064877,0,0,3,-4,-8,-3,-7,-3
1558438936064877,3,2,11,13,14,13,7,2
1558438936079836,2,-2,-12,-13,-5,-3,-1,0
1558438936079836,-2,0,0,0,-3,1,0,-2
1558438936086830,1,1,4,8,1,-3,-4,-1
1558438936086830,-4,-5,-13,-11,-4,1,0,0
1558438936101773,2,-1,5,7,0,-5,-5,0
1558438936101773,0,-1,1,-5,-3,-4,-4,-3
1558438936110748,-4,-3,-1,-2,-5,-3,-3,-2
1558438936110748,0,0,-1,-4,-3,-1,0,0
1558438936116737,-1,3,-2,0,1,-4,-1,-1
1558438936116737,0,1,-5,-2,-3,-14,0,2
1558438936124710,-5,-7,-4,1,7,5,0,-2
1558438936124710,-5,-3,1,-4,-7,0,-2,-4
1558438936139669,2,1,7,2,-1,-1,-1,0
1558438936139669,-1,-2,-1,-1,-1,11,-1,-6
1558438936146650,3,2,-4,-5,-4,-10,1,3
1558438936146650,1,1,6,5,5,-5,1,-1
1558438936161610,-4,1,-6,-2,-1,4,-2,-3
1558438936161610,2,1,3,4,3,2,1,4
1558438936170590,-5,-7,-8,-4,-8,-3,-9,-7
1558438936170590,0,-2,-1,-12,-11,-7,-5,-3
1558438936185548,0,-2,5,4,5,-1,3,2
1558438936185548,3,0,2,1,1,1,2,2
1558438936185548,0,-5,-10,-6,-5,-3,-2,-5
1558438936185548,-1,-1,-4,5,1,4,0,-1
1558438936199509,-2,-3,-6,-2,3,6,2,0
1558438936199509,-3,-2,-1,-6,-3,-10,-2,1
1558438936207487,3,4,7,4,6,7,5,1
1558438936207487,-1,-2,-1,0,0,-7,-2,-1
1558438936222453,-4,-3,-1,1,1,7,0,-3
1558438936222453,-1,-1,1,1,3,7,1,0
1558438936230428,-1,-1,-2,-2,3,-4,2,2
1558438936230428,2,4,4,5,9,11,6,3
1558438936237413,-4,-7,-9,-16,-18,-23,-9,-4
1558438936237413,-4,-2,-2,0,-6,-3,-2,-2
1558438936244395,0,2,2,2,1,6,-3,1
1558438936244395,-4,-3,-4,-1,2,-1,-5,-2
1558438936259348,3,1,7,4,4,5,4,1
1558438936259348,-2,-3,-8,-5,-7,-6,-2,-2
1558438936267327,-2,1,1,-4,0,1,0,-1
1558438936267327,-1,1,6,4,-2,0,-1,-3
1558438936282289,-4,-6,-15,-7,-8,-5,-4,-5
1558438936282289,1,-2,-1,0,0,-6,-3,1
