timestamp,emg1,emg2,emg3,emg4,emg5,emg6,emg7,emg8
1558440524958601,-1,-1,-1,-6,0,1,0,1
1558440524958601,-1,-1,-2,-21,1,-1,0,-1
1558440524960596,-2,0,-1,16,-2,-1,-2,-2
1558440524960596,-1,-1,-1,0,-1,-1,-3,0
1558440524961594,0,-1,1,-12,1,-1,-2,-1
1558440524961594,0,-3,0,8,-1,3,4,-2
1558440524962591,-2,-1,0,2,-1,-3,-3,1
1558440524962591,2,1,-3,-9,-1,-1,-2,0
1558440524970571,0,-2,-4,-3,0,0,2,-4
1558440524970571,-2,1,-1,15,-1,1,0,1
1558440524978548,-2,-1,2,-9,-1,-2,-3,-2
1558440524978548,-2,-3,0,-9,-2,-1,1,-4
1558440524986530,-1,-1,-2,12,-3,-6,-3,-1
1558440524986530,0,-1,-1,-2,-1,-5,-2,0
1558440525001488,0,-2,-3,-10,1,4,3,-1
1558440525001488,1,-2,0,5,0,1,-2,-3
1558440525007471,-3,1,1,3,-2,-3,-1,-2
1558440525007471,-2,-1,-3,-9,-1,3,-1,-1
1558440525016447,0,0,1,-4,1,1,3,-1
1558440525016447,0,0,1,7,-3,-5,-3,-1
1558440525031407,1,-1,-2,-2,0,0,-2,-2
1558440525031407,-2,-2,-4,-5,-2,-3,-4,-1
1558440525038389,-2,-2,-4,1,-2,-1,-2,0
1558440525038389,-1,-1,0,0,1,-2,-1,-1
1558440525076287,-3,2,-2,22,-3,-4,-3,2
1558440525076287,-1,-1,0,-3,1,-1,-2,-1
1558440525093242,0,-2,-2,-18,-1,-1,0,-3
1558440525093242,-1,-1,-2,13,-2,-2,-3,-2
1558440525093242,-1,-1,-1,-1,3,5,3,2
1558440525093242,-4,-2,0,-10,-1,0,0,-2
1558440525094239,-4,-2,-5,4,-4,-2,-2,-2
1558440525094239,-1,0,3,5,-3,-2,-2,0
1558440525098228,1,0,0,-13,0,0,-1,0
1558440525098228,1,0,-3,-4,1,-2,-1,-2
1558440525105209,-1,-1,2,15,-1,0,-1,0
1558440525105209,-3,-2,-4,-8,-2,-1,-1,0
1558440525113189,0,-1,-1,-11,-1,0,1,-2
1558440525113189,0,0,-1,11,-1,3,2,0
1558440525128149,-1,-1,0,-1,-1,-5,-3,0
1558440525128149,1,0,-1,-7,1,-1,0,-2
1558440525135130,-2,-4,-2,3,-2,-5,-2,-3
1558440525135130,0,0,2,4,-1,-4,-3,0
1558440525144106,-2,-3,-2,-3,0,-1,-6,-3
1558440525144106,0,-1,-2,-5,-1,0,1,-2
1558440525158068,-1,-2,-2,4,-2,0,-1,-4
1558440525158068,-1,0,1,-1,1,2,1,0
1558440525165050,0,0,2,-6,-3,-3,0,0
1558440525165050,1,0,1,4,0,3,-1,-1
1558440525173028,-2,-2,-3,-2,-1,-1,-3,-1
1558440525173028,-3,-2,-4,-3,0,1,-1,-3
1558440525187988,1,1,1,5,-1,-1,-2,-1
1558440525187988,-4,-3,-3,-4,-3,-5,-2,-2
1558440525194969,0,-1,0,-4,1,3,1,-1
1558440525194969,-1,1,0,1,-1,2,1,0
1558440525203945,-1,-1,0,3,2,-2,2,0
1558440525203945,0,-1,0,0,1,2,1,0
1558440525217943,-2,-1,-3,-7,-2,-4,-5,-2
1558440525217943,1,-1,-1,2,-1,1,-2,0
1558440525224891,0,-1,-2,-1,1,2,-1,-1
1558440525224891,-1,-1,0,-3,-1,-4,-4,-3
1558440525232868,-2,0,0,4,-1,0,-1,1
1558440525232868,-4,-3,-5,-6,-7,-8,-6,-5
1558440525247831,1,-1,-2,-3,3,7,5,1
1558440525247831,1,0,-2,0,-1,-2,-3,-1
1558440525255827,-3,0,3,0,1,-3,-2,0
1558440525255827,0,1,1,-2,-1,-2,-3,1
1558440525263787,-2,-1,-5,-3,-2,-2,-1,-2
1558440525263787,0,-1,-1,-1,-2,-2,-3,-3
1558440525278746,3,0,0,1,1,2,2,0
1558440525278746,0,-3,1,1,1,0,3,0
1558440525284734,-2,-2,1,-1,-3,-4,-3,-2
1558440525284734,-1,0,1,-1,2,0,0,1
1558440525292738,1,-1,0,-3,0,-3,-2,-2
1558440525292738,0,-1,-1,1,0,0,2,-1
1558440525307668,-4,-2,1,-1,1,-2,0,1
1558440525307668,-4,-4,-7,-4,-4,-4,-5,-3
1558440525315649,0,0,-2,-1,-3,-4,-4,-2
1558440525315649,-2,-1,1,2,2,4,0,-1
1558440525323626,-2,-3,-3,-2,-3,2,1,-1
1558440525323626,0,0,1,2,4,6,3,1
1558440525338585,-2,0,-2,0,-3,-8,-4,-1
1558440525338585,1,-1,-3,-5,0,-3,0,1
1558440525345568,1,0,-2,0,-3,-3,-3,-5
1558440525345568,-2,-2,1,0,1,1,1,1
1558440525352551,-2,-1,0,-2,-1,5,1,0
1558440525352551,0,-2,-1,1,-3,-1,-2,-5
1558440525369503,2,-1,0,1,-1,-8,-2,0
1558440525369503,0,0,1,-1,-1,-1,-1,-1
1558440525375489,-1,0,1,-2,0,2,0,-3
1558440525375489,-2,-4,-7,-7,-5,-3,-3,-1
1558440525384463,1,1,2,1,-2,1,0,1
1558440525384463,-1,0,-2,0,-1,-1,-2,-2
1558440525398425,-1,-2,-3,-3,1,1,0,-1
1558440525398425,0,-1,2,1,-2,-3,-3,0
1558440525405410,-2,0,-1,-2,-2,-3,-4,1
1558440525405410,-1,1,1,0,-1,2,1,-1
1558440525412389,-1,-1,-2,0,0,0,1,1
1558440525412389,-1,-1,0,0,0,1,1,0
1558440525427350,-2,-1,-2,-1,0,0,-1,-2
1558440525427350,0,1,3,0,-2,-2,-2,0
1558440525435327,0,1,0,0,-4,-2,-4,-2
1558440525435327,-1,-1,-5,-2,0,-3,-2,-2
1558440525450287,2,0,-1,-1,2,4,2,0
1558440525450287,0,-4,-5,-2,-4,-7,-3,-3
1558440525458267,1,-2,1,-1,2,3,2,-2
1558440525458267,-1,1,1,-1,-1,-1,-3,-1
1558440525465248,-1,0,0,1,0,3,-3,-1
1558440525465248,-3,-3,-1,-2,-2,-2,-2,-2
1558440525473228,-1,0,-1,-3,-4,-4,-3,-1
1558440525473228,0,-3,0,3,1,-1,-1,-1
1558440525488190,1,-2,-1,0,2,0,2,0
1558440525488190,-1,-2,-4,-4,0,1,1,-2
1558440525495234,0,-1,1,-1,0,-1,-1,-2
1558440525495234,-1,-2,-1,0,-3,-3,-2,-4
1558440525510134,0,-1,0,-4,-5,1,0,0
1558440525510134,-1,-2,-2,-4,0,-1,0,-1
1558440525518105,-2,0,-1,2,0,-5,-2,-1
1558440525518105,-1,0,-2,-1,1,1,-1,0
1558440525525087,-1,2,-1,-2,-1,-1,-2,-3
1558440525525087,-3,-1,-3,-1,0,0,-2,-2
1558440525533065,0,-1,-2,0,-4,-2,-1,-1
1558440525533065,0,-1,1,-3,0,-1,-1,0
1558440525548026,-2,-2,-1,0,-1,0,1,-1
1558440525548026,0,0,1,1,-1,1,-1,1
1558440525555007,-1,-2,-3,-2,-2,-3,-1,-2
1558440525555007,0,-1,-1,-2,0,0,0,0
1558440525570002,0,0,0,0,-1,-2,0,-3
1558440525570002,1,-1,1,-2,-1,-1,0,0
1558440525577946,1,-1,0,-1,-1,0,-1,-2
1558440525577946,-1,1,1,-2,-2,-1,-1,-1
1558440525584929,-1,-1,-3,0,-3,-5,-5,0
1558440525584929,0,1,-1,-3,0,1,2,1
1558440525592905,-2,-2,-2,-2,-1,0,1,-1
1558440525592905,-1,-1,0,-1,-2,0,-1,-2
1558440525607923,-1,0,-1,-4,-2,-5,-1,-2
1558440525607923,1,0,1,-1,2,3,2,-3
1558440525614848,-4,-2,-2,1,0,2,-1,0
1558440525614848,-2,-1,-3,-1,-2,-1,0,1
1558440525629808,-2,-1,0,-2,0,1,-1,-1
1558440525629808,-1,-2,-1,0,-2,-2,-3,-2
1558440525638786,-1,-1,-1,0,-1,-3,-3,0
1558440525638786,0,2,0,0,-1,-1,-3,-2
1558440525653744,-2,-5,-3,-4,-1,0,-1,-1
1558440525653744,-2,0,-2,-1,-3,-3,0,0
1558440525653744,0,-1,-4,-4,-2,-3,-3,-2
1558440525653744,1,0,2,1,0,-3,-1,0
1558440525667706,-1,1,0,1,1,1,0,1
1558440525667706,-3,-1,-2,-3,-1,-1,0,-1
1558440525674687,2,0,2,0,-1,1,2,-1
1558440525674687,-1,0,-3,-1,-1,-4,-3,-2
1558440525698623,-2,-1,2,1,1,3,-2,-1
1558440525698623,2,1,1,-1,-1,1,0,2
1558440525698623,0,1,1,-2,3,2,1,0
1558440525698623,0,-1,-1,0,-2,-1,0,0
1558440525706605,0,-1,-3,-2,-3,-1,-1,-1
1558440525706605,-1,0,0,0,0,-2,-3,-1
1558440525720564,-3,-1,-2,0,1,-1,-1,0
1558440525720564,-1,-1,0,-2,0,3,1,0
1558440525727548,-1,-3,-2,-1,-3,-3,-4,-3
1558440525727548,0,-2,0,-5,-4,-2,-2,-2
1558440525735527,0,-2,1,1,-2,-3,-1,0
1558440525735527,-3,-2,-2,-4,-2,-1,0,-2
1558440525750484,-3,1,-3,0,-1,-1,1,-1
1558440525750484,0,-1,-1,1,1,-1,-2,-2
1558440525757499,1,-2,0,-4,1,1,0,-1
1558440525757499,0,-1,0,1,-2,0,-3,0
1558440525766441,-1,-4,-3,1,-1,-4,-5,-3
1558440525766441,-2,-1,1,-1,-1,-1,-1,0
1558440525781405,-1,-1,0,-1,0,-6,-3,-1
1558440525781405,0,0,-2,0,-1,-2,-2,-1
1558440525787385,3,0,1,0,2,5,3,1
1558440525787385,-1,-3,-3,-4,-3,-5,-4,-2
1558440525795369,-1,0,-3,-3,-4,-4,-3,-1
1558440525795369,-1,0,0,1,-2,-1,1,1
1558440525810324,-1,0,1,0,-1,-2,-1,-1
1558440525810324,-1,-1,-3,0,-2,0,0,0
1558440525817305,0,0,1,1,-2,1,0,0
1558440525817305,-4,-1,-2,-2,1,0,-1,-2
1558440525826281,-1,-1,0,-2,-1,0,-1,1
1558440525826281,1,1,3,-1,3,3,3,1
1558440525841243,-3,-3,-2,0,-2,-2,-5,-2
1558440525841243,0,-1,-4,-4,-3,-1,-3,-3
1558440525847226,-1,2,0,-2,-2,-2,-1,-1
1558440525847226,-1,-1,0,3,0,-2,-1,-2
1558440525855204,1,1,-1,-5,0,4,0,0
1558440525855204,-2,-2,-1,-1,-2,-2,-2,-1
1558440525870164,-2,-1,0,-2,-2,-5,-2,-2
1558440525870164,-1,0,-4,-2,-1,-1,-1,-1
1558440525878142,-1,-1,-1,-1,0,-1,0,-1
1558440525878142,0,-2,0,0,-2,1,0,-2
1558440525886122,0,-2,-2,0,0,-1,1,2
1558440525886122,-1,-1,0,-2,-2,-1,-1,-1
1558440525901083,-3,-3,-1,-1,-2,0,-2,-2
1558440525901083,1,0,0,1,0,-2,0,0
1558440525908061,-3,-2,-3,-2,1,-2,-2,0
1558440525908061,-2,1,-1,0,1,1,0,0
1558440525915043,1,2,0,3,-1,-1,0,-2
1558440525915043,-3,-4,0,-4,-2,-2,-1,-1
1558440525930005,-1,-1,0,-1,1,1,0,0
1558440525930005,-2,-1,-1,-1,-3,-2,-5,-2
1558440525937993,-2,-1,1,1,1,1,1,-1
1558440525937993,0,0,1,-1,-1,-1,-1,1
1558440525946958,-1,-1,-2,-2,-2,-1,0,-2
1558440525946958,-1,-3,-2,2,-2,-1,-2,0
1558440525968904,-1,-2,-2,-3,1,-2,-1,-1
1558440525968904,-2,3,-2,2,2,1,-1,-2
1558440525970895,0,0,-1,0,-1,1,-1,-1
1558440525970895,0,0,1,1,0,-4,-3,-2
1558440525974884,0,-2,-4,-2,-2,-2,0,-1
1558440525974884,0,-1,-5,-7,0,-2,-1,-2
1558440525989855,1,-2,0,0,-2,-1,0,-1
1558440525989855,0,-2,1,-2,-3,-3,-2,-1
1558440525997825,0,0,-2,0,-1,3,1,0
1558440525997825,0,-2,-1,1,1,-1,-2,1
1558440526006800,0,0,-2,1,-1,-1,-2,-2
1558440526006800,-1,-2,-4,-4,-3,-1,-2,-1
1558440526020822,-2,-1,0,3,-2,-1,-1,-1
1558440526020822,1,-1,0,-2,-3,-3,-3,-2
1558440526027810,-2,1,2,0,3,3,3,0
1558440526027810,-1,1,-1,-1,-2,-1,-1,1
1558440526035729,-1,-3,-2,-2,-1,-2,-4,-2
1558440526035729,-1,-1,-2,-3,-2,0,-2,1
1558440526050690,-1,0,-2,-3,-1,-3,-3,-2
1558440526050690,-1,-1,-4,1,-2,1,1,-2
1558440526057769,0,-1,0,-4,0,-2,-1,-1
1558440526057769,2,0,0,1,0,2,1,-1
1558440526072860,-2,-3,-3,0,-2,-1,-3,-2
1558440526072860,-2,0,1,-2,0,1,1,-2
1558440526080838,-2,-1,0,-2,-2,-3,-1,-1
1558440526080838,0,-1,0,1,-1,-6,-1,-1
1558440526095800,0,1,-1,0,0,3,3,1
1558440526095800,0,-1,-3,-1,2,1,-2,-1
1558440526096795,1,0,-3,-2,-2,-3,-2,-2
1558440526096795,-2,-2,1,0,-2,-1,-1,-3
1558440526110764,-2,-2,0,-3,2,3,-1,1
1558440526110764,1,-1,0,-1,-3,-5,-6,-1
1558440526117736,-1,-1,1,-1,-2,-2,-1,1
1558440526117736,-1,1,0,-2,2,4,4,-1
1558440526132696,1,-2,-1,-3,-3,-4,-4,-3
1558440526132696,1,-1,-1,1,0,4,2,1
1558440526140677,0,0,-1,0,1,-3,-1,0
1558440526140677,-1,-3,-2,-1,-3,-6,-3,-2
1558440526155695,-2,0,-2,-3,-4,-2,-1,-2
1558440526155695,0,1,0,0,-1,-2,0,0
1558440526156641,0,1,-2,-2,0,-1,-1,0
1558440526156641,-2,-2,1,0,0,0,1,-1
1558440526171597,-3,-3,0,0,-2,-4,-4,-2
1558440526171597,-2,-1,-3,-2,-1,-1,-1,-2
1558440526177608,-1,-2,-2,0,-1,1,0,0
1558440526177608,-3,-2,0,1,-2,-2,0,1
1558440526201529,0,-1,-3,0,0,0,-1,1
1558440526201529,-3,-1,0,-3,-3,-5,-1,-4
1558440526202520,0,-2,-1,0,1,5,1,-1
1558440526202520,-2,0,-1,0,0,0,-2,0
1558440526215483,1,0,0,-3,-1,-3,0,-3
1558440526215483,0,-2,-1,-2,-1,0,0,-1
1558440526216480,-1,-1,1,1,-1,2,-1,-4
1558440526216480,2,-1,-1,-3,-2,-3,0,1
1558440526230445,-2,-2,-3,-3,-1,-1,0,-2
1558440526230445,0,-1,0,0,1,1,1,0
1558440526237417,-2,-1,-2,0,-1,-1,2,-2
1558440526237417,-2,-1,-1,-2,-1,0,-2,-1
1558440526252414,0,0,1,1,0,1,0,0
1558440526252414,-2,-1,2,1,-2,-4,-3,0
1558440526261363,0,1,-2,-1,1,-1,1,0
1558440526261363,-1,-2,-7,-11,-3,1,2,-1
1558440526276610,-1,-2,-3,2,-1,0,-3,0
1558440526276610,-1,-2,-1,-1,2,0,0,0
1558440526276610,0,-1,3,2,-1,-1,-2,-1
1558440526276610,-1,-3,-2,3,0,-2,-1,-2
1558440526290281,-3,0,-2,-1,-1,-1,-1,0
1558440526290281,-2,0,-3,-3,-1,-1,-3,-1
1558440526298258,-1,-2,-4,-2,0,-3,-3,-1
1558440526298258,-1,1,-1,3,1,2,-1,-2
1558440526312732,-1,0,0,-2,0,-3,0,-1
1558440526312732,0,-1,-1,-1,0,3,2,2
1558440526320530,-1,0,0,1,-2,-2,-1,-1
1558440526320530,-3,-1,-3,-1,-2,-3,-3,-2
1558440526335494,1,-1,2,0,0,0,1,-1
1558440526335494,0,-1,-1,0,0,-2,-1,-3
1558440526336450,0,-1,-1,-4,-3,-1,-2,0
1558440526336450,-1,0,0,0,2,4,2,0
1558440526350413,-1,0,0,-1,-3,-1,-1,-1
1558440526350413,0,-1,-3,1,-2,0,-1,-2
1558440526357393,-2,-1,-3,-3,-1,-1,1,-3
1558440526357393,0,-1,2,-1,-1,-1,-2,0
1558440526372351,0,-1,0,3,1,-7,-4,0
1558440526372351,-1,-3,-3,-1,-3,-3,-2,-1
1558440526381328,0,-4,-4,-9,-5,-1,-2,-3
1558440526381328,-2,-1,0,2,-2,1,0,0
1558440526404267,-1,-3,-3,-3,-1,-2,-1,-1
1558440526404267,-2,0,1,-2,1,-1,-2,0
1558440526404267,-1,0,-1,1,0,-1,-1,-1
1558440526404267,0,-1,-4,-4,-2,-4,-4,-1
1558440526411490,-3,-3,-1,-3,-1,4,2,0
1558440526411490,-1,-1,-2,0,-2,-5,0,-2
1558440526418290,-3,1,0,2,0,0,-1,1
1558440526418290,-1,-1,1,-1,-1,0,0,-1
1558440526433312,-3,-3,-5,-3,-1,-3,-2,-2
1558440526433312,-2,-2,0,-2,-3,-3,-1,-2
1558440526441229,1,-2,0,0,4,7,6,2
1558440526441229,0,1,1,0,2,-5,-1,-1
1558440526456189,0,0,1,-1,-1,1,-4,-1
1558440526456189,-2,-2,-6,0,-2,-2,-4,-2
1558440526456189,-2,-1,-3,-3,-1,-4,-4,-3
1558440526456189,-1,-2,-2,-1,-2,-1,1,-1
1558440526470153,-3,-2,0,2,-2,0,3,-1
1558440526470153,0,-1,2,2,2,0,-1,-1
1558440526478142,0,1,-3,-8,-4,-3,-2,-1
1558440526478142,-1,0,0,-1,-3,-2,-1,-1
1558440526493095,0,1,0,1,-1,-1,0,0
1558440526493095,0,-1,0,3,0,2,3,-1
1558440526501114,-3,-3,-2,0,0,-1,1,-2
1558440526501114,-1,0,0,-1,0,-3,-3,-1
1558440526516088,2,-1,2,-3,-1,0,1,-1
1558440526516088,0,-1,-5,-5,-1,2,0,-1
1558440526516970,-1,-3,-2,5,0,0,-1,-2
1558440526516970,0,-1,0,-4,-1,-1,-2,0
1558440526529934,-3,-3,-1,-1,-3,0,-2,-2
1558440526529934,-2,-1,-1,-1,0,-2,-2,1
1558440526537915,-3,-3,-1,-1,-1,0,0,0
1558440526537915,-2,-2,0,-1,-2,-1,-1,-1
1558440526552870,0,0,-3,-2,-2,-2,-2,-2
1558440526552870,-1,0,0,-2,-2,0,0,-2
1558440526560863,1,0,0,-2,0,-2,-2,1
1558440526560863,-1,0,-1,0,-1,1,-1,-1
1558440526575811,1,-1,0,0,0,-1,-2,0
1558440526575811,-2,-1,-1,-4,-1,0,0,-2
1558440526576806,-1,0,0,0,1,-2,-1,0
1558440526576806,-3,-1,-2,1,-2,-3,1,-2
1558440526589771,-1,0,-1,-2,0,-2,-1,-2
1558440526589771,-1,-1,-1,-3,0,-2,0,-1
1558440526597789,-1,-5,-1,-1,-2,-1,-4,-2
1558440526597789,-1,-1,-2,1,-1,0,-1,-1
1558440526612708,-2,0,-1,-4,-3,0,0,0
1558440526612708,-1,0,0,1,0,1,-1,0
1558440526620691,1,1,-1,0,-1,-3,1,-1
1558440526620691,0,-1,1,-2,1,1,-1,-1
1558440526634650,0,-2,-3,-1,-1,0,-3,0
1558440526634650,-3,-3,-1,1,-1,1,-3,0
1558440526643638,-1,-1,-3,-1,-1,1,0,-1
1558440526643638,-1,0,-2,-1,-2,0,0,-1
1558440526650619,1,-2,-4,-1,-2,-4,1,0
1558440526650619,1,1,4,0,-1,1,-2,2
1558440526657594,0,-2,-2,-2,-1,0,2,0
1558440526657594,-2,-1,-1,-3,0,-4,-2,-1
1558440526672560,-1,1,-3,1,2,1,0,-2
1558440526672560,-3,-1,-2,-4,-2,-1,2,0
1558440526680530,-1,-1,2,-1,-1,0,1,0
1558440526680530,1,-1,3,2,0,2,1,0
1558440526704550,1,0,1,-4,-2,-4,-2,-2
1558440526704550,-1,0,-3,-2,0,-1,-2,-2
1558440526704550,0,-1,0,1,0,-2,-1,-1
1558440526704550,-1,-2,-5,-1,-1,2,1,1
1558440526710555,-2,-1,1,-2,-1,-1,2,-1
1558440526710555,0,-3,-2,0,1,-2,-2,-1
1558440526717468,-2,2,1,2,-2,-3,-2,0
1558440526717468,-1,-1,-1,-1,-1,0,-1,-2
1558440526734396,-1,0,1,0,-1,-1,0,-1
1558440526734396,0,-2,-2,1,-3,-3,-3,-2
1558440526741660,-2,0,-4,-2,-2,0,-1,-4
1558440526741660,-5,-4,0,-3,-1,-3,-3,-1
1558440526755367,0,-3,-2,-1,-2,-3,-1,1
1558440526755367,0,-1,1,-1,-2,-1,1,-1
1558440526763313,0,-1,-2,-2,-3,0,-2,0
1558440526763313,-2,1,-2,0,1,1,-1,-3
1558440526770327,-1,-4,-2,0,-1,1,1,-2
1558440526770327,-1,-1,-3,-4,0,-2,1,0
1558440526778464,-2,-2,-2,-1,-1,-1,-3,-3
1558440526778464,-1,1,-1,0,-1,0,-1,-2
1558440526792234,1,0,0,-2,1,-1,-4,0
1558440526792234,1,-1,-2,-1,0,1,0,-1
1558440526801463,-3,-1,-2,-1,-3,-1,1,-2
1558440526801463,-1,1,1,-2,-2,-3,-2,-1
1558440526815175,-3,-2,-3,1,0,1,0,0
1558440526815175,-1,0,-1,-1,-1,-1,1,1
1558440526824144,-1,0,0,1,1,0,-1,0
1558440526824144,0,-2,1,-2,0,-2,0,0
1558440526838137,-1,1,-1,-1,0,-1,-2,-1
1558440526838137,-1,-2,0,1,1,4,-1,1
1558440526839105,-2,-2,0,-2,-2,-3,-2,-3
1558440526839105,0,0,0,-2,-2,0,1,-1
1558440526853099,-1,-3,-3,-3,-2,-3,-4,-1
1558440526853099,-1,-1,-2,1,-1,-2,0,-2
1558440526861306,0,0,-1,-2,0,-1,-1,0
1558440526861306,0,-4,-4,0,-2,0,-1,-1
1558440526875228,0,-3,0,0,-2,-1,1,0
1558440526875228,-4,-1,-3,-3,-2,-5,-5,-2
1558440526884093,1,1,-1,-2,-2,-2,-1,3
1558440526884093,0,-3,-3,1,-1,-5,-2,-2
1558440526897954,-2,-1,0,-3,-3,1,0,-2
1558440526897954,1,0,-2,-2,-3,-4,-2,-2
1558440526898944,-1,-1,2,1,0,1,0,-1
1558440526898944,-2,-1,-1,-1,0,4,2,2
1558440526912924,-3,-1,-1,-1,1,1,1,-1
1558440526912924,-2,-1,-1,-2,-2,-2,-3,-2
1558440526921069,-1,-2,-2,-1,-3,-4,-4,-3
1558440526921069,0,-1,-1,0,1,0,-1,1
1558440526934849,2,2,1,-1,-2,-2,-1,0
1558440526934849,0,-2,1,1,0,1,1,0
1558440526943833,-2,-4,-4,-1,-2,0,-1,-1
1558440526943833,-1,-1,-2,-3,-1,-2,-4,-3
1558440526958800,0,-2,-1,1,0,-1,0,-2
1558440526958800,-1,0,0,-1,0,2,0,-1
1558440526958800,-1,-2,-1,-1,-1,-2,0,0
1558440526958800,-1,0,1,-1,-3,-2,1,0
1558440526972748,-4,0,-4,1,-2,-1,-1,-2
1558440526972748,0,-1,1,0,-1,0,0,0
1558440526980761,-1,-2,-1,-2,1,1,1,2
1558440526980761,0,-1,1,1,0,-2,-3,-1
1558440526994688,-4,-1,-2,-1,-2,-3,-7,-2
1558440526994688,1,-2,-3,-3,0,0,-2,-1
1558440527003664,0,1,-1,2,1,2,2,-1
1558440527003664,1,-1,-3,-2,-1,1,0,-1
1558440527018876,0,0,2,-2,0,1,0,3
1558440527018876,-2,-1,-5,-3,-2,-3,-2,-1
1558440527019621,0,-2,0,0,-2,0,-1,-2
1558440527019621,0,0,0,-3,-1,-2,1,-3
1558440527032839,2,-4,-2,-1,-1,-3,0,-3
1558440527032839,-1,0,0,1,2,-1,2,0
1558440527040818,-1,0,0,-2,0,-2,1,1
1558440527040818,-3,-2,-3,-3,-3,-3,-3,-2
1558440527055524,-3,0,-1,0,-1,2,1,1
1558440527055524,-1,0,1,-3,-1,-2,-2,0
1558440527063503,-1,-2,-2,-2,0,2,0,-1
1558440527063503,0,-2,-2,1,-1,-3,-2,-2
1558440527078810,0,-4,-3,0,-1,-1,-3,0
1558440527078810,-2,-1,-1,-2,-2,-3,-1,-2
1558440527079461,-1,0,-2,0,-1,-2,-1,-2
1558440527079461,0,0,-1,2,-2,-1,1,-1
1558440527093459,0,0,0,-4,-2,-1,-3,-2
1558440527093459,-3,0,-1,1,-1,-1,-1,1
1558440527101742,0,-1,-3,-1,-2,-3,-4,-1
1558440527101742,-3,-3,-2,-1,-1,-1,0,0
1558440527115729,0,-2,-1,-3,0,-1,-1,-1
1558440527115729,1,0,0,1,1,-1,2,-1
1558440527123634,-2,-1,1,1,1,-1,1,-1
1558440527123634,-2,1,-2,0,-1,-2,-4,0
1558440527138602,-2,0,-2,-3,-2,-2,-1,-1
1558440527138602,0,-2,-3,1,-1,1,-1,-2
1558440527139303,-1,0,1,-2,1,1,1,-1
1558440527139303,-1,1,-1,-2,-1,-2,-2,1
1558440527152559,-3,2,0,0,1,1,0,0
1558440527152559,-2,-1,-1,-1,-3,-2,-1,-1
1558440527161537,0,-2,-2,-1,-1,1,1,0
1558440527161537,0,0,2,0,-2,0,-1,-1
1558440527175207,-3,1,-3,0,-4,-5,-3,-1
1558440527175207,1,-2,-3,-2,0,0,-2,-1
1558440527183465,-1,-2,-2,-1,0,-1,-3,-1
1558440527183465,1,-2,-1,0,-2,1,0,1
1558440527199141,1,-1,0,-2,1,0,-1,-2
1558440527199141,-1,-2,0,-1,0,0,1,0
1558440527199141,-3,-1,-2,-1,-4,-4,-2,-1
1558440527199141,0,-2,0,-2,1,1,0,-1
1558440527213104,0,-2,-3,0,0,2,1,-2
1558440527213104,-2,-2,-2,-5,-4,-4,-6,-1
1558440527221152,1,-1,-1,0,0,-3,-1,0
1558440527221152,-5,-2,-2,-2,-2,-2,0,-1
1558440527235046,0,-3,0,0,1,4,2,-1
1558440527235046,0,-1,0,2,-1,0,1,0
1558440527244104,0,2,-2,-3,-3,-2,-3,-2
1558440527244104,-2,1,-1,-1,0,-1,0,0
1558440527259183,-1,-2,1,2,0,-2,-1,1
1558440527259183,-2,-1,-1,-1,-1,-2,-3,-1
1558440527259183,0,-2,0,-1,0,-2,-1,-2
1558440527259183,2,-3,-2,-3,-3,0,-2,-3
1558440527273276,-1,1,-1,0,-2,-4,0,-1
1558440527273276,1,0,-1,-2,0,5,2,-2
1558440527280922,-3,0,-2,-1,-3,-3,-1,-3
1558440527280922,0,1,0,0,-1,-6,-3,-1
1558440527296025,-4,-3,-6,-3,0,0,1,0
1558440527296025,-2,1,0,0,-1,-1,0,1
1558440527304021,-2,-2,0,1,-2,-1,0,-1
1558440527304021,3,-1,1,0,1,2,1,2
1558440527319120,-1,2,2,-1,-3,-7,-3,-1
1558440527319120,-2,-3,-3,-1,1,0,-2,-2
1558440527319120,-3,-2,-1,0,0,1,-4,-2
1558440527319120,-2,-2,0,-1,-2,-3,-3,-1
1558440527332991,-1,-2,1,-3,-2,1,-1,-2
1558440527332991,-1,-1,-3,0,-1,2,1,0
1558440527340763,1,-2,1,-2,0,-2,0,1
1558440527340763,-2,-2,-1,-2,0,1,0,-2
1558440527355923,-1,-2,-1,1,-1,-2,-2,-1
1558440527355923,0,-2,0,-2,-2,-2,-1,-1
1558440527363704,0,-1,-2,-3,-2,-1,-2,0
1558440527363704,-1,0,-3,-2,-2,-2,-3,-3
1558440527378661,-2,0,-2,0,0,1,-1,1
1558440527378661,-1,0,-1,-3,-1,-1,-2,2
1558440527378661,-2,-1,-1,-1,1,1,0,-2
1558440527378661,-1,-2,-2,-1,-1,1,1,-1
1558440527393624,1,-1,-2,-2,-2,0,-1,-1
1558440527393624,1,0,-3,-3,-2,-5,-2,-2
1558440527408581,-1,-3,-2,1,-2,-3,-4,-3
1558440527408581,0,-1,0,-1,2,0,0,-2
1558440527415561,-1,-2,-4,-3,-3,1,0,-2
1558440527415561,-1,1,1,1,0,-2,0,0
1558440527430525,-1,-1,0,0,-1,0,-1,-2
1558440527430525,-3,0,-2,-1,-1,-1,0,-1
1558440527438501,-1,-1,1,0,2,-1,1,-1
1558440527438501,0,-3,1,-1,-2,-1,-1,-2
1558440527439498,1,-1,-2,-1,-3,-3,-1,1
1558440527439498,-2,0,0,-1,-1,-1,0,-1
1558440527452465,-2,0,-1,0,-1,0,-1,0
1558440527452465,-3,-3,-4,-2,-2,-1,-1,-1
1558440527460469,-1,-1,-1,0,0,-1,-1,-1
1558440527460469,0,-1,0,-4,-3,-2,0,0
1558440527475401,-3,-3,0,1,-1,-2,-1,-1
1558440527475401,0,0,3,-1,1,-2,-2,0
1558440527483379,-1,1,-1,-3,-2,-1,1,1
1558440527483379,-1,-2,-2,1,1,3,0,0
1558440527506320,-1,-2,-3,-2,-2,-1,-4,-3
1558440527506320,-2,-1,-2,-1,-1,-1,-2,-2
1558440527507327,0,-1,1,2,0,1,0,1
1558440527507327,-1,-1,0,-2,0,0,1,-1
1558440527513334,-1,-3,-2,-4,-1,2,0,-3
1558440527513334,-2,0,-3,-1,-3,-5,-4,-4
1558440527521297,-2,-1,-1,-1,0,0,0,-1
1558440527521297,-3,0,-1,-1,-2,-3,0,-2
1558440527535243,-1,0,0,-1,1,-2,-2,0
1558440527535243,-1,0,0,0,0,0,1,-2
1558440527543221,0,-1,-1,-4,1,0,0,0
1558440527543221,-1,-2,-1,0,-2,-1,-4,-2
1558440527558181,2,1,1,1,0,-1,-2,0
1558440527558181,-1,0,-2,-2,-2,1,0,-1
1558440527559177,-2,-1,-1,0,1,-1,-1,-3
1558440527559177,-1,-1,-2,-1,-1,1,2,-1
1558440527572143,0,0,1,0,-3,-2,0,-2
1558440527572143,-1,-3,-1,-1,1,2,1,0
1558440527580121,-2,0,-3,-3,-3,-4,0,-1
1558440527580121,0,-1,-2,3,0,2,1,0
1558440527595081,-1,0,1,-2,0,-2,-2,-1
1558440527595081,0,-3,0,-3,0,0,-4,-2
1558440527603087,0,0,0,0,-2,-3,0,-1
1558440527603087,-1,-1,1,-2,0,-2,0,1
1558440527618020,0,-1,-2,-1,-1,-1,-2,1
1558440527618020,-3,-2,-3,1,-2,-2,-1,1
1558440527626060,0,-2,-1,1,0,0,-4,-1
1558440527626060,-1,0,0,1,1,1,2,0
1558440527633017,-4,-4,-4,-2,0,-3,-2,-3
1558440527633017,-1,0,2,1,-1,-1,0,0
1558440527640019,-3,-3,-3,-3,-2,-5,-3,0
1558440527640019,0,2,0,-2,-2,-1,-3,-2
1558440527654956,2,-1,-1,2,-2,-2,0,-1
1558440527654956,0,0,-2,-2,-4,-5,-2,-1
1558440527662900,0,0,0,0,1,4,2,0
1558440527662900,0,-3,-1,0,0,0,-2,0
1558440527677859,-3,1,0,-1,-2,2,0,1
1558440527677859,-1,0,-1,-1,0,1,0,-1
1558440527685840,-4,-2,-2,-1,1,1,0,-3
1558440527685840,-4,-2,-2,-1,-3,-5,-4,-1
1558440527692821,-1,0,-3,-3,-2,-1,-1,-3
1558440527692821,-1,-1,-3,-1,-1,-3,-4,-1
1558440527708789,1,-1,2,0,1,0,2,3
1558440527708789,-1,1,-1,-3,-2,-2,-1,-1
1558440527714796,0,1,0,-1,0,-1,-1,-2
1558440527714796,1,-1,-1,-1,-1,3,1,-2
1558440527723782,-1,-1,-1,1,1,-1,-3,-2
1558440527723782,-2,-3,-5,-4,-5,-6,-5,-1
1558440527737699,-1,-1,-2,-1,-1,0,1,3
1558440527737699,0,-2,0,1,1,3,1,1
1558440527745677,-1,0,-1,-3,-2,1,-1,-1
1558440527745677,0,-1,0,-3,-2,-3,0,-2
1558440527752660,0,-2,-2,-1,-2,-4,-4,-4
1558440527752660,-1,-2,0,-2,-1,0,-1,-2
1558440527760637,-1,-1,-1,-2,0,3,0,-1
1558440527760637,0,0,-1,0,1,0,0,-1
1558440527775599,-3,-3,1,-1,0,0,2,1
1558440527775599,0,-2,0,-4,-2,-3,-1,-3
1558440527783611,-1,0,-2,-2,-2,-3,-1,-1
1558440527783611,-2,-2,-5,1,1,2,1,-1
1558440527797540,-1,-1,0,-2,-2,-2,-2,0
1558440527797540,-2,-1,0,0,0,1,0,-1
1558440527805517,-1,-2,-2,3,-4,-2,-3,-1
1558440527805517,0,0,1,-2,1,1,-1,-1
1558440527820478,0,0,-2,0,1,0,1,0
1558440527820478,-1,-1,-1,-3,-1,-4,0,1
1558440527821476,-1,0,0,1,-1,1,-1,0
1558440527821476,-3,-1,-1,-1,-2,-2,-3,-1
1558440527835437,0,-3,-1,-2,0,2,-3,-2
1558440527835437,2,-1,-1,2,-3,-7,-4,-3
1558440527843417,-1,1,0,-4,0,-1,1,-2
1558440527843417,0,-1,0,0,-1,-2,2,0
1558440527857416,-3,-1,-2,-1,-2,-3,0,0
1558440527857416,0,0,0,-2,0,3,-1,1
1558440527865388,0,-2,1,-2,-3,-3,-3,-1
1558440527865388,-1,-2,1,3,1,3,1,-1
1558440527880321,-3,-1,1,-1,0,-2,-2,-2
1558440527880321,-1,0,-2,-1,-1,-2,0,-2
1558440527881316,0,-1,-2,-1,-3,-4,-4,0
1558440527881316,0,0,0,0,2,2,1,0
1558440527895318,-2,-3,-3,-3,-1,-2,0,-1
1558440527895318,-3,-1,1,0,-2,-2,-2,0
1558440527903291,-1,-1,-2,0,-1,-2,-2,-2
1558440527903291,0,-2,-1,-2,-2,2,-1,0
1558440527917218,1,0,-1,-2,0,0,1,0
1558440527917218,-1,-2,0,0,-2,-1,0,-1
1558440527926196,0,-2,2,-1,0,-1,0,-2
1558440527926196,-2,0,0,-2,-3,-3,-1,0
1558440527941194,-2,-1,-2,-3,-2,-1,-4,-4
1558440527941194,0,-1,-1,1,1,2,-1,0
1558440527941194,-3,-2,0,-1,2,1,3,1
1558440527941194,0,1,2,-4,0,0,1,0
1558440527955119,1,0,-1,2,-2,-3,-3,1
1558440527955119,-1,-1,0,-4,-2,-3,-2,-3
1558440527963098,-2,-3,-6,-1,-2,-1,-1,-3
1558440527963098,-1,0,3,1,1,-2,-1,-1
1558440527978056,0,-1,-1,-1,0,-1,-3,-1
1558440527978056,-2,-2,-2,-1,0,1,0,-1
1558440527986035,0,-2,-5,-4,-3,-3,-1,-1
1558440527986035,-1,-3,-1,1,-1,-2,0,-2
1558440528000997,1,1,2,0,-2,-4,-1,-1
1558440528000997,-2,-3,0,-3,-2,1,0,-1
1558440528001992,0,0,0,1,-1,0,-2,-2
1558440528001992,-2,-1,-3,-3,-1,-1,-2,-1
1558440528014958,-1,-2,2,-1,0,1,0,1
1558440528014958,0,-2,-2,2,1,-1,-2,-1
1558440528022937,0,-1,0,-1,-2,-4,-1,-1
1558440528022937,1,-1,-1,-2,1,2,0,0
1558440528037898,1,0,0,-2,0,-2,-1,-1
1558440528037898,-2,1,-2,0,-1,1,1,0
1558440528045875,-2,-1,-3,-5,-3,-3,-3,-2
1558440528045875,0,-1,-2,-1,-2,-2,-3,-3
1558440528060835,-1,-1,-1,-1,1,3,3,0
1558440528060835,-1,-1,-2,-2,0,-3,1,2
1558440528061832,0,-3,0,0,1,0,-1,-1
1558440528061832,1,-1,-2,0,-2,-3,-1,-2
1558440528074836,-2,0,1,-1,-2,0,-1,0
1558440528074836,-1,-1,-2,-3,-1,0,0,-2
1558440528083773,-2,0,-1,-1,-1,1,-1,-2
1558440528083773,-3,0,-1,0,-1,-5,-3,-2
1558440528097744,-2,-2,-1,-1,-1,2,2,0
1558440528097744,-2,-1,-1,-2,-2,-3,0,-1
1558440528105716,1,-2,0,1,-2,-1,-1,0
1558440528105716,-1,-3,-3,-1,0,-1,0,-3
1558440528120711,-1,0,1,-2,0,0,0,0
1558440528120711,-1,0,-2,1,-2,-3,-3,-2
1558440528121706,-2,0,-2,0,-1,-2,-5,-1
1558440528121706,-4,-1,-1,-3,-5,-3,-4,-3
1558440528134639,-1,1,-3,0,1,1,1,1
1558440528134639,1,2,1,2,2,4,3,-1
1558440528143614,-2,-1,-2,-1,1,2,0,-2
1558440528143614,0,-2,-1,-1,-1,-2,0,0
1558440528157576,-2,-4,-2,-2,-3,-3,-4,-2
1558440528157576,-2,-1,0,-3,-3,-2,-4,-1
1558440528165556,-2,-1,-2,-2,-2,0,0,-1
1558440528165556,1,0,0,0,0,-1,2,2
1558440528180516,-2,-2,-3,-2,-3,-2,0,-2
1558440528180516,-2,-1,-4,-3,-2,-1,-2,0
1558440528181513,-1,0,1,0,2,0,0,-1
1558440528181513,-2,-1,1,0,1,2,-2,-3
1558440528195476,-1,-2,0,-1,-3,-5,-3,-2
1558440528195476,0,0,0,-1,-1,0,-1,-1
1558440528203453,-2,0,2,2,-1,-1,0,2
1558440528203453,-1,-3,-4,-4,-2,-3,-3,1
1558440528217416,-1,-1,0,0,-1,0,1,0
1558440528217416,-1,-2,-3,0,-3,-3,-2,-2
1558440528225395,-1,0,0,-2,0,1,0,-1
1558440528225395,-1,0,-2,-1,0,-1,0,-1
1558440528240415,1,2,-2,-1,-1,3,1,-1
1558440528240415,0,-3,-2,0,0,0,-2,0
1558440528241353,2,0,1,-2,-1,-7,-4,-1
1558440528241353,1,0,2,2,0,1,-1,2
1558440528255316,-2,-2,-1,0,1,0,-2,-3
1558440528255316,-1,-2,0,-2,1,0,0,0
1558440528263294,-1,-2,-4,-2,-3,-4,-2,-4
1558440528263294,-2,-2,-4,1,-1,-1,1,-2
1558440528277298,-1,0,0,-2,1,1,3,1
1558440528277298,-1,-2,0,0,-2,-4,-1,-1
1558440528286245,-2,-1,-2,0,-1,-1,-2,0
1558440528286245,0,-1,0,-1,-2,1,-2,-1
1558440528301194,-3,-1,-1,-3,-3,-4,-3,-4
1558440528301194,0,0,-4,-2,2,3,2,0
1558440528301194,-1,-1,-2,3,0,2,1,0
1558440528301194,-1,-1,-1,-3,-1,-3,-2,0
1558440528315182,0,-1,0,0,1,0,0,2
1558440528315182,-4,0,-1,1,-3,-2,-2,-2
1558440528323195,-3,-1,0,-2,-1,-3,-2,-2
1558440528323195,1,1,3,-3,3,4,3,2
1558440528347072,-1,-2,-1,0,-3,-5,-3,-3
1558440528347072,1,-1,-1,-2,-2,-3,-1,0
1558440528347072,-1,-1,-2,-2,1,2,0,-2
1558440528347072,-3,-2,-2,0,-2,-1,-3,-5
1558440528361156,1,1,-1,1,0,-2,1,1
1558440528361156,1,-1,0,-1,0,-2,0,0
1558440528362035,0,0,-1,-1,-1,1,0,1
1558440528362035,-2,-3,0,1,-1,1,2,1
1558440528375127,-1,-2,-1,-2,-1,-4,-3,-2
1558440528375127,-2,-1,-1,-1,-2,0,-2,-1
1558440528398937,1,-2,0,1,0,1,1,0
1558440528398937,-3,-2,-5,-1,-1,-4,-2,-1
1558440528400930,-2,0,-3,-3,-1,0,-1,-1
1558440528400930,0,1,0,0,3,-4,1,0
1558440528405917,0,-2,1,0,-2,0,-2,1
1558440528405917,-1,-2,0,-3,-3,-2,0,-1
1558440528420873,-1,-1,-1,1,0,0,-1,-1
1558440528420873,-3,-2,0,-1,-3,-2,-3,-2
1558440528421870,-2,-2,-3,-3,-1,-1,1,-3
1558440528421870,0,1,-2,-1,-3,-4,-4,-2
1558440528443810,0,-2,-3,-1,-1,-1,-1,-2
1558440528443810,-1,0,-1,-1,1,4,0,1
1558440528444807,-3,-3,-3,-4,-1,-2,-1,-1
1558440528444807,-2,-1,-1,-2,0,-3,-2,0
1558440528457774,-1,-1,-1,1,-1,-2,-3,0
1558440528457774,1,1,2,-1,-2,-3,0,-1
1558440528473730,0,-2,1,-1,-1,-2,-2,-1
1558440528473730,-1,-2,-1,0,-2,-2,-2,-2
1558440528480712,-2,-1,1,-1,0,4,2,0
1558440528480712,1,-1,-1,-2,0,1,-1,-1
1558440528481711,-1,2,4,0,0,-1,0,1
1558440528481711,-1,-2,-2,-2,-3,-5,-5,-2
1558440528496670,-3,-1,-4,-3,-3,-1,-1,0
1558440528496670,1,-1,-1,-1,-2,-2,-2,0
1558440528503652,-1,0,-1,2,1,3,1,-1
1558440528503652,-1,0,-2,-4,0,4,2,0
1558440528517612,-3,-1,-1,0,-1,0,1,-1
1558440528517612,-1,-2,0,0,-1,-3,-3,-2
1558440528525591,1,-2,0,-2,-2,-2,-2,-2
1558440528525591,-2,0,1,-2,-1,-1,0,-1
1558440528548530,-1,-1,0,-1,-2,-2,-1,-3
1558440528548530,0,-1,-1,0,0,2,1,2
1558440528556508,-2,-2,-3,-1,-2,-5,-2,-2
1558440528556508,0,0,0,1,1,2,1,2
1558440528557506,2,-1,0,0,-1,-3,-3,-1
1558440528557506,-3,-1,-1,-2,-1,-2,-1,-2
1558440528570472,0,-2,-1,-1,0,-1,0,-1
1558440528570472,-1,-2,1,1,0,-1,0,-1
1558440528577491,-1,-2,-2,-2,-3,0,-1,-1
1558440528577491,-1,-1,-2,-1,-1,-3,-2,0
1558440528585431,1,1,0,0,1,3,-1,0
1558440528585431,-2,-2,-3,-2,-1,-3,0,-2
1558440528600391,0,-1,1,-1,0,-4,-2,-2
1558440528600391,-2,-2,-2,-2,-1,0,-2,0
1558440528608371,-2,1,-3,-2,-3,-2,-4,0
1558440528608371,0,0,1,0,3,6,2,2
1558440528624327,-2,-3,-3,-3,0,0,-3,-2
1558440528624327,-3,-1,1,1,0,-4,1,-1
1558440528624327,0,-1,-3,-3,-4,-4,-2,-2
1558440528624327,1,-1,-1,-3,-4,-3,-2,-1
1558440528646269,3,1,1,1,0,1,3,0
1558440528646269,0,0,1,-1,-1,-3,-3,-2
1558440528647267,-3,-4,0,0,0,3,-1,-1
1558440528647267,-3,-3,-2,-2,-1,0,-1,-3
1558440528660258,-2,-1,-2,-1,-3,-4,-2,0
1558440528660258,0,-1,-3,-1,0,1,3,0
1558440528668209,-1,-1,1,-1,-2,-5,-1,0
1558440528668209,-1,-1,0,1,-3,-2,-2,-1
1558440528675191,-3,0,1,-1,1,2,0,0
1558440528675191,0,-2,-1,-2,0,3,-3,-2
1558440528683170,0,-1,0,0,-2,0,0,0
1558440528683170,-1,-2,-1,-1,1,6,4,1
1558440528698130,-2,0,0,-1,0,-5,-2,-2
1558440528698130,-1,-2,-2,-2,-3,-2,-1,-2
1558440528706111,-1,-1,1,1,-1,-1,-1,1
1558440528706111,-1,-1,-1,-1,0,-2,-2,-3
1558440528720071,-1,0,-1,-2,-2,0,0,1
1558440528720071,0,1,2,0,0,-2,-1,0
1558440528729047,-1,-1,-2,-1,1,0,1,-2
1558440528729047,-1,-3,-3,-2,-2,-2,0,-1
1558440528743018,-1,-2,1,-1,0,0,-2,-1
1558440528743018,-1,-2,-1,-1,-1,0,0,-2
1558440528751991,-2,0,-4,-2,0,-3,-2,-1
1558440528751991,0,1,-1,-1,0,-3,0,0
1558440528757976,0,-1,-2,0,0,1,-1,-1
1558440528757976,-2,-6,-2,-1,-2,1,-1,-2
1558440528773972,-2,-1,-1,-2,0,-1,-1,-4
1558440528773972,-3,-1,0,3,-1,-3,-3,-2
1558440528779913,-1,1,0,-4,-1,0,1,1
1558440528779913,-1,0,-1,-3,0,-1,0,3
1558440528796867,1,1,2,0,-1,0,0,0
1558440528796867,2,-2,-2,-1,0,-1,-2,-2
1558440528803923,1,2,2,1,0,-1,0,0
1558440528803923,0,-4,-4,-3,-1,-1,-1,-3
1558440528805848,0,1,0,0,-3,-3,-2,-1
1558440528805848,-1,-1,1,-2,-1,-1,-2,-1
1558440528827045,-2,-3,-2,0,0,-1,0,-2
1558440528827045,-2,0,0,1,1,-2,-1,-1
1558440528827787,0,-3,-3,0,-3,-2,0,-1
1558440528827787,0,-1,0,-2,0,0,-2,0
1558440528848730,-2,-4,-3,0,-2,-2,-2,-3
1558440528848730,-2,-1,-3,-2,0,0,-1,0
1558440528850724,-1,-1,-1,-2,0,0,0,0
1558440528850724,-2,-1,-2,-3,-2,-3,-2,0
1558440528871972,-2,-1,-1,0,0,-1,-2,1
1558440528871972,1,-1,0,0,0,-1,-2,-1
1558440528872970,-1,-1,1,-1,1,-1,2,-2
1558440528872970,0,-2,-2,-1,-2,1,2,0
1558440528885906,-2,0,-2,-2,-2,-2,-1,0
1558440528885906,-3,-1,-1,-1,-1,-1,-1,-2
1558440528893932,0,-1,-2,1,-1,-1,-2,1
1558440528893932,-2,0,-2,-4,-4,-5,-3,0
1558440528900793,1,-2,0,-1,1,0,-1,0
1558440528900793,3,-1,-2,-1,-1,-2,-1,-2
1558440528908882,-2,-1,2,1,0,0,1,0
1558440528908882,-2,-1,-1,0,-1,1,2,-1
1558440528923787,-3,-1,-3,-2,-3,-4,-1,-3
1558440528923787,-1,1,1,2,-2,-1,-2,-2
1558440528931506,-1,0,-4,-6,-1,-3,-2,-2
1558440528931506,0,0,3,3,2,1,0,1
1558440528954719,-1,-1,-4,-7,-2,1,2,0
1558440528954719,-1,-3,-1,-1,-3,-4,-1,1
1558440528955445,-1,-3,-3,-2,-3,-3,-2,-5
1558440528955445,0,1,-1,-1,1,0,-2,-3
1558440528960706,-1,0,1,3,1,1,1,0
1558440528960706,-1,2,1,-3,0,-1,0,-1
1558440528969407,-2,-2,-3,-4,-1,-4,-2,0
1558440528969407,-1,-1,-1,3,-1,-2,-2,0
1558440528983628,0,1,2,1,-1,-1,-3,-1
1558440528983628,-2,-2,-7,-6,-1,3,3,-1
1558440528998566,-1,-1,-1,1,0,4,1,0
1558440528998566,-1,-2,-4,-2,-1,-5,-3,-3
1558440528999327,-1,-3,0,1,1,-1,-1,-1
1558440528999327,-1,1,3,2,2,3,2,-1
1558440529006583,-1,-1,0,3,2,-2,-1,-1
1558440529006583,-2,-1,-2,-3,-2,1,0,0
1558440529020585,0,-2,-3,1,-4,-2,-2,-3
1558440529020585,-3,-2,-2,-1,-2,-3,-2,-2
1558440529029563,-2,-1,1,-2,-2,2,0,-2
1558440529029563,0,0,1,-3,-3,-1,-1,0
1558440529042526,-2,-2,-1,1,-2,-1,-3,0
1558440529042526,1,0,3,2,-1,-1,0,1
1558440529051503,-1,0,-1,-3,0,-1,0,1
1558440529051503,-4,-3,-3,3,-2,0,-2,-2
1558440529057552,-1,0,0,-5,-2,-1,-1,-1
1558440529057552,-1,-2,-2,-2,1,-3,-2,-2
1558440529074446,-1,-4,-3,-3,-2,-2,0,-2
1558440529074446,0,-3,-2,1,-1,0,-1,-1
1558440529080426,-1,-3,-4,-2,1,0,0,0
1558440529080426,-4,-3,-1,-1,-3,0,-1,-2
1558440529089401,1,0,-1,1,-1,-1,-1,1
1558440529089401,-1,-1,-2,-1,-2,-3,-1,-1
1558440529102367,-1,1,0,-2,0,-2,-1,1
1558440529102367,-3,-1,-1,-2,-3,-4,-2,0
1558440529111343,-1,1,3,5,2,2,-1,0
1558440529111343,-1,-4,0,-4,-2,-2,-2,1
1558440529126302,-2,0,-5,-7,-3,-2,0,0
1558440529126302,-1,-1,-1,3,-1,3,2,-1
1558440529128297,-1,-3,-1,-1,0,1,-1,-1
1558440529128297,0,0,1,-1,-1,-3,-1,-2
1558440529149240,2,-1,-1,4,2,0,2,0
1558440529149240,0,0,-2,0,0,1,-2,2
1558440529150238,-4,0,-2,-6,-1,1,-1,0
1558440529150238,0,-1,-1,-2,-1,0,0,-1
1558440529162628,-2,-3,0,-1,-3,-3,-2,0
1558440529162628,-2,-4,-2,-2,-2,-4,-4,0
1558440529180159,0,2,1,1,-2,-2,-2,-1
1558440529180159,-2,-2,-2,-1,0,0,-2,-1
1558440529180159,-2,0,1,-1,-1,-2,-1,-2
1558440529180159,1,0,0,-2,1,2,-2,0
1558440529186172,0,-3,-2,0,0,0,1,1
1558440529186172,0,-1,0,0,0,1,0,-1
1558440529200105,-1,-4,3,3,-1,-1,0,-3
1558440529200105,0,-2,-3,-4,-3,-2,-1,-3
1558440529209081,-1,-1,-3,-1,-2,-3,0,0
1558440529209081,-3,0,-3,-1,-1,-2,0,-1
1558440529223043,-2,3,0,-2,1,1,1,0
1558440529223043,-2,0,-1,2,-1,-2,-1,-2
1558440529231024,-1,-1,-1,-1,-2,0,-1,0
1558440529231024,-1,-1,-3,-1,-2,-2,-1,-1
1558440529238003,-2,-2,-1,0,1,-1,-3,-3
1558440529238003,-1,0,-2,-2,-2,-2,0,0
1558440529254024,1,-1,0,1,-1,-2,-2,-1
1558440529254024,1,0,2,-2,2,1,0,0
1558440529259976,0,-3,0,-2,-2,-2,0,1
1558440529259976,0,0,0,0,2,0,-1,-1
1558440529276901,0,0,-3,-8,-1,1,-1,-1
1558440529276901,-1,0,0,2,-1,0,-4,-1
1558440529283106,-3,-2,-5,-2,-2,-1,2,-2
1558440529283106,0,-3,-1,-2,0,-4,0,-3
1558440529291859,0,1,1,0,-2,-3,-1,-1
1558440529291859,-2,-3,-4,-4,1,1,1,-1
1558440529297875,1,-1,-2,-2,0,2,2,1
1558440529297875,-2,-1,0,2,-2,-1,-1,-1
1558440529306821,-3,-6,-6,-1,-1,-4,-5,-4
1558440529306821,-1,1,-1,0,-3,0,0,0
1558440529336976,1,2,-1,-2,-3,-1,-2,-1
1558440529336976,0,-1,0,1,-1,-1,0,0
1558440529337736,-1,0,-3,-1,0,0,0,0
1558440529337736,0,1,3,-1,-1,-1,-1,-2
1558440529351728,-4,-2,-3,1,-3,-2,-3,-2
1558440529351728,-3,-1,0,-4,-1,1,0,0
1558440529352698,-2,1,2,1,0,0,0,-3
1558440529352698,-1,-1,0,1,0,-2,-4,-1
1558440529357958,-1,-2,-3,-2,-1,-1,-1,-2
1558440529357958,-1,1,-2,-2,-1,-1,1,1
1558440529380623,1,2,2,1,-1,-1,2,1
1558440529380623,-3,-7,-10,-6,-4,-5,-2,-2
1558440529381622,-1,-1,1,-2,1,-2,-1,1
1558440529381622,1,-1,-1,-1,0,0,-1,1
1558440529388883,-1,0,-1,-1,-2,-3,-2,1
1558440529388883,0,0,3,1,-3,-1,1,1
1558440529411805,-2,-2,-1,-2,-2,0,-2,-1
1558440529411805,-1,-1,-3,2,0,3,1,0
1558440529412542,-2,-3,-3,-2,-1,-2,-4,-2
1558440529412542,-1,1,1,-1,0,-1,-1,-2
1558440529426501,0,0,-2,-2,0,1,1,-2
1558440529426501,-1,-2,0,2,0,-1,0,-1
1558440529427497,-1,-1,0,-1,0,2,1,0
1558440529427497,1,0,1,0,-1,-1,-2,0
1558440529456420,-1,-2,-3,1,2,2,-1,1
1558440529456420,1,-1,-2,-5,-2,-2,-1,-1
1558440529457417,-2,-1,-2,-2,-3,0,-1,1
1558440529457417,0,0,-3,0,1,-1,-3,-1
1558440529462402,-1,0,0,2,0,0,-3,-1
1558440529462402,-1,0,-1,-3,-2,-1,-2,-1
1558440529488660,-2,-3,0,0,-1,-1,-1,-1
1558440529488660,-1,2,3,2,3,2,4,2
1558440529489331,0,2,-1,-3,-3,-4,-2,-3
1558440529489331,-1,-3,-6,-4,-1,1,-1,-2
1558440529510299,1,1,1,0,0,1,2,1
1558440529510299,-1,1,-2,-2,-1,-3,-1,-2
1558440529510299,1,-4,-5,-4,-3,0,-1,-1
1558440529510299,-1,-2,-1,1,0,-3,-3,-1
1558440529512271,-2,-1,0,0,0,-4,-3,-1
1558440529512271,-1,1,-1,-2,0,4,0,2
1558440529531256,-3,-3,-1,-4,-2,-1,-1,1
1558440529531256,-2,-3,-1,0,-2,-1,-2,-3
1558440529533214,-1,-2,1,-1,0,-1,0,0
1558440529533214,-1,-2,-2,-3,-1,-1,-2,-3
1558440529538339,-1,-1,0,0,-3,-1,-2,-1
1558440529538339,-2,0,1,1,0,0,1,1
1558440529562274,1,-2,1,-1,-1,-2,-4,-1
1558440529562274,-1,0,-2,0,-1,-1,-1,-1
1558440529563137,1,1,1,1,3,-1,0,1
1558440529563137,-1,0,-3,-3,-1,1,-1,0
1558440529583382,-2,-3,-2,0,-2,-1,1,-2
1558440529583382,0,-3,-1,1,-3,-3,-1,-1
1558440529584078,0,-1,1,0,0,0,-3,-2
1558440529584078,1,0,3,0,1,-1,-1,-1
1558440529592408,-2,-3,-4,-2,-1,0,0,-1
1558440529592408,-2,-2,-1,-4,-2,1,1,0
1558440529606655,-1,1,4,3,3,-1,0,0
1558440529606655,1,3,2,1,0,1,-1,-2
1558440529608602,0,0,-3,-3,-3,-2,-1,0
1558440529608602,-2,-3,-4,-2,-2,-2,-3,0
1558440529620304,-1,-1,-2,-3,-2,0,-3,-1
1558440529620304,-1,-1,0,1,0,-3,-2,3
1558440529636259,1,-1,3,2,1,2,-1,0
1558440529636259,-1,-1,1,-2,2,0,2,-2
1558440529659197,-2,-4,-1,0,-2,-3,-2,-4
1558440529659197,-3,-3,-3,-6,-2,-4,-3,-3
1558440529660195,0,2,1,-3,0,0,0,-3
1558440529660195,0,-2,-2,2,0,-1,0,0
1558440529667301,-2,-4,-3,0,-2,-2,-2,-1
1558440529667301,-4,-3,-2,-1,-4,-4,-4,-2
1558440529668177,0,-1,-4,-2,-2,-1,-1,-1
1558440529668177,1,3,2,1,0,0,-1,-3
1558440529689627,-1,-1,-4,-2,-1,2,2,2
1558440529689627,-2,-2,-2,-2,-1,1,1,0
1558440529691436,-3,-1,-5,1,-1,-3,-3,-2
1558440529691436,1,1,3,3,0,1,1,-1
1558440529711535,0,0,1,-1,-1,-2,-3,0
1558440529711535,0,-2,1,0,-2,0,0,-2
1558440529735298,-1,0,-1,-1,0,0,-1,-1
1558440529735298,0,-1,1,0,-1,0,-1,-1
1558440529735298,2,-1,-3,-2,-1,-3,-2,-2
1558440529735298,-2,1,-3,1,1,0,1,-1
1558440529736991,2,3,2,-2,-1,1,1,1
1558440529736991,-1,-1,-5,-3,-1,-1,-1,0
1558440529740279,-1,1,2,1,-1,1,1,-1
1558440529740279,-1,-3,-3,-5,-1,-2,-3,0
1558440529756937,0,-2,-2,0,0,2,-2,-1
1558440529756937,-2,-2,-2,-1,-1,-3,-2,0
1558440529762922,-1,1,1,0,-2,0,-2,0
1558440529762922,1,-1,0,1,-2,-1,-1,-3
1558440529795166,-2,-3,-2,-2,0,-2,1,-1
1558440529795166,-2,-1,0,0,-1,-4,-4,-1
1558440529795166,-2,-3,-3,-1,-1,-2,0,-1
1558440529795166,-2,-2,-3,-3,-1,2,-1,1
1558440529796830,-1,-3,-1,1,-3,0,-1,0
1558440529796830,2,-1,-1,-4,-1,2,-1,-2
1558440529816806,3,2,3,1,0,-3,1,2
1558440529816806,3,0,0,1,3,3,1,0
1558440529817773,-2,-1,1,-4,0,-4,0,-3
1558440529817773,-2,-5,-5,-1,-1,0,-1,-2
1558440529838717,-2,-2,0,1,-2,-4,-2,-4
1558440529838717,0,1,0,-3,-3,-5,-2,1
1558440529840713,-2,-2,-7,-4,-1,0,-3,0
1558440529840713,-1,-2,0,0,1,2,-1,-2
1558440529860659,0,1,-2,1,1,2,1,-2
1558440529860659,-3,-4,-5,-8,0,-2,-2,-1
1558440529870631,-1,2,2,0,-3,-5,-2,-1
1558440529870631,-2,-1,-2,-2,-4,-2,-2,-2
1558440529871630,-2,-2,-3,-2,-3,-4,-4,-1
1558440529871630,-1,2,2,3,3,1,4,1
1558440529883911,1,-3,-4,-2,-2,0,1,-1
1558440529883911,0,0,1,3,0,0,1,1
1558440529883911,1,0,1,-2,0,3,1,0
1558440529883911,-2,-6,-9,-7,-4,-3,-4,-5
1558440529891577,-3,-3,0,2,0,0,-3,0
1558440529891577,-4,-4,-4,-3,0,-4,-1,-1
1558440529913535,-1,0,0,0,1,1,4,0
1558440529913535,0,1,2,4,-3,0,-2,-1
1558440529915514,-1,-2,-3,-2,-1,-3,-1,-1
1558440529915514,3,1,0,-3,-1,0,-1,1
1558440529935460,0,2,0,-1,-3,-3,-4,-2
1558440529935460,0,-1,-1,-1,-2,-3,1,-3
1558440529944434,0,-2,0,1,0,2,0,-1
1558440529944434,-1,1,-3,-7,-3,-4,-3,-2
1558440529945432,-1,-1,5,0,3,3,2,1
1558440529945432,-5,-6,-7,-2,-3,0,-4,-2
1558440529968371,-3,-4,-1,0,0,0,-2,-2
1558440529968371,-2,-2,-1,-1,-2,0,-1,-1
1558440529969376,0,0,-1,-5,-2,1,-1,1
1558440529969376,0,3,2,0,3,-2,3,1
1558440529989416,0,3,1,-1,-1,-4,0,-3
1558440529989416,-1,-1,-2,-1,0,0,-1,0
1558440529990312,-1,-3,-2,-2,-1,-3,0,-1
1558440529990312,0,1,3,-1,-1,-3,0,0
1558440529991311,-1,-2,-2,-2,-2,-2,-3,-2
1558440529991311,-2,0,2,0,0,2,4,0
1558440530002281,-3,-2,-4,-2,-6,-8,-6,-2
1558440530002281,-2,-2,1,1,1,1,-1,0
1558440530019235,0,0,-1,-4,-1,-3,-1,0
1558440530019235,-1,0,3,0,-1,-1,0,-3
1558440530042173,-1,-2,-4,-4,-2,3,1,-2
1558440530042173,-1,-1,0,2,0,-3,-3,-1
1558440530043172,-1,-1,-3,-2,-1,-2,-2,0
1558440530043172,0,1,2,1,2,0,0,2
1558440530044168,-3,-4,-4,-2,-2,-2,-3,-2
1558440530044168,0,1,-2,-2,-1,-2,-3,-2
1558440530096033,-1,1,-2,-4,-1,-3,-1,0
1558440530096033,0,0,-5,1,-2,-3,-2,-2
1558440530097028,-1,0,0,0,2,2,4,-3
1558440530097028,-2,0,-1,-4,-2,-3,-1,-1
1558440530117970,-2,1,2,1,2,2,0,-1
1558440530117970,-2,-2,-2,-1,2,1,1,-1
1558440530117970,-1,-1,-1,-2,0,-1,-3,0
1558440530117970,2,-2,1,0,1,2,0,-2
1558440530118968,1,-2,1,2,-1,0,0,-3
1558440530118968,-1,0,-2,0,-3,-2,1,-1
1558440530123954,-1,-2,-3,-4,1,4,3,0
1558440530123954,1,-1,-2,0,-2,-5,-4,-1
1558440530124954,-1,1,-1,-1,-2,0,2,1
1558440530124954,-2,-2,-2,2,-1,1,1,0
1558440530138914,1,2,2,1,-4,-1,-1,-3
1558440530138914,1,0,-1,-3,-3,-3,-4,-3
1558440530145896,1,1,1,1,1,1,0,-1
1558440530145896,1,0,0,-1,1,0,-2,0
1558440530147891,-2,2,0,2,2,3,1,-1
1558440530147891,-6,-4,-1,0,-3,0,-2,-3
1558440530160855,-2,-1,-3,-4,-4,-4,-5,-1
1558440530160855,0,1,0,0,-2,1,0,-3
1558440530168835,1,-2,-2,3,0,0,0,1
1558440530168835,-1,-1,0,1,-2,-1,-1,-1
1558440530182799,-3,-4,-6,-6,-3,-3,1,-2
1558440530182799,-1,0,1,-2,0,0,-1,0
1558440530191773,-1,-1,-3,0,0,-1,1,0
1558440530191773,-3,-4,-2,-1,-2,1,-2,0
1558440530221693,-1,3,2,0,0,2,-1,1
1558440530221693,-2,0,-3,-1,-3,0,1,0
1558440530223688,-1,-2,-1,-4,-2,-4,-1,-3
1558440530223688,-3,-3,0,0,1,2,-1,-3
1558440530223688,1,-2,0,2,1,-3,0,-1
1558440530223688,-3,-4,-2,-4,-2,-1,-5,-1
1558440530243635,-3,-2,0,-1,0,2,-3,0
1558440530243635,1,0,-1,1,-3,-1,-1,-1
1558440530243635,0,0,1,-1,-3,-4,-2,1
1558440530243635,0,0,-1,2,2,2,3,-1
1558440530267571,1,-1,-2,-3,0,-1,2,-1
1558440530267571,-1,-1,-1,1,0,3,0,-1
1558440530267571,-3,-3,-2,-1,-1,-2,-5,-2
1558440530267571,-1,-1,-5,-6,-4,-5,-1,-2
1558440530282530,0,0,-1,1,0,0,1,2
1558440530282530,-1,1,-2,-1,-2,-2,0,-2
1558440530282530,-1,-2,-1,-1,0,2,0,-1
1558440530282530,-2,-2,-3,-1,-3,-3,-6,-2
1558440530288516,-1,0,3,0,-2,-3,-2,0
1558440530288516,2,0,1,-1,3,0,3,0
1558440530302477,-1,-2,-3,-2,0,-6,-1,-3
1558440530302477,0,1,-1,1,-1,0,-3,-2
1558440530311453,-2,-1,-4,-5,-5,-2,-2,-1
1558440530311453,-1,0,0,2,-2,-5,-2,-2
1558440530342384,-3,-3,-6,-4,-2,4,1,-1
1558440530342384,0,-3,1,1,-1,-5,-1,2
1558440530343368,0,0,0,-1,-1,-2,0,-1
1558440530343368,-2,-4,0,-2,0,0,-2,-1
1558440530344368,-1,0,0,-1,-1,-4,-3,-2
1558440530344368,-2,0,3,1,1,-1,0,-1
1558440530349351,-2,1,-1,-1,0,2,-1,-1
1558440530349351,-2,-1,-5,-2,-3,-4,-2,0
1558440530362317,2,2,5,2,2,-2,-1,1
1558440530362317,1,-1,1,1,0,2,0,0
1558440530371293,-1,-4,-5,-5,-2,1,-1,-3
1558440530371293,-2,1,0,-1,-3,-3,-2,-2
1558440530394232,1,0,-2,-2,-3,2,2,-2
1558440530394232,-2,-3,0,1,-2,-6,-3,-2
1558440530395231,2,1,1,6,3,3,0,1
1558440530395231,-1,0,0,-3,-3,2,1,0
1558440530416174,-1,-1,1,-8,0,-1,0,-2
1558440530416174,-3,-4,-7,-2,-1,1,3,-1
1558440530418170,-1,-1,-4,-4,-1,-2,-3,-3
1558440530418170,1,3,0,1,5,1,-1,-1
1558440530422157,0,-1,4,8,1,-1,-3,-2
1558440530422157,0,-2,-4,-8,-3,-1,-1,-3
1558440530439113,-3,-1,1,0,-2,-5,0,-1
1558440530439113,1,0,3,-1,0,-3,0,0
1558440530446101,-3,-3,-4,-1,-1,-1,-1,-1
1558440530446101,1,0,1,0,2,0,-2,0
1558440530452076,0,1,2,1,-3,0,-2,-2
1558440530452076,-2,-2,-4,-4,-2,-3,-2,-1
1558440530461053,-2,0,-2,0,-2,1,0,-1
1558440530461053,0,1,0,-1,-1,-1,-2,-1
1558440530469031,-2,-4,-3,-1,-2,-1,0,-2
1558440530469031,-1,-1,-3,-4,-2,-3,-1,1
1558440530482994,-1,0,0,-1,-2,1,0,0
1558440530482994,0,-2,0,3,0,-1,-1,-1
1558440530497957,-2,0,-1,-1,-1,-3,-1,0
1558440530497957,-2,-1,2,-1,-3,-1,-1,-1
1558440530514916,2,-2,-1,0,0,-1,0,0
1558440530514916,-2,0,0,0,1,-2,-3,-1
1558440530520899,1,-2,1,-1,-2,-1,-2,-1
1558440530520899,1,-1,-1,2,0,2,1,0
1558440530521891,-2,-3,-2,2,-2,-4,-3,-2
1558440530521891,1,2,3,-4,1,0,0,-2
1558440530542845,0,-2,-2,-2,-2,-2,-2,1
1558440530542845,-1,-2,-2,-4,0,0,-3,-3
1558440530543832,-2,2,4,3,1,3,-1,-2
1558440530543832,-1,-3,-7,-3,-2,-3,0,0
1558440530551811,-3,-1,2,0,-1,-2,-2,-1
1558440530551811,0,0,-3,-1,-1,1,2,-2
1558440530565774,-1,1,1,-3,2,0,-2,0
1558440530565774,-3,-2,-6,-2,-1,-2,-4,-1
1558440530572756,-1,-2,0,-2,-3,-2,-2,0
1558440530572756,-2,-1,0,0,0,-1,-1,-2
1558440530588713,-1,-1,1,0,1,4,2,-1
1558440530588713,1,0,1,2,-2,-5,-2,0
1558440530590710,0,-3,-5,-6,-2,2,1,-2
1558440530590710,-1,-5,-5,2,-1,-3,-3,-3
1558440530611650,2,0,-2,-8,1,0,0,0
1558440530611650,0,-1,2,2,-2,1,1,-2
1558440530612663,0,2,7,9,5,1,0,0
1558440530612663,0,-1,-3,-8,0,-5,-3,-1
1558440530625613,-3,-3,-10,-3,-5,-4,-2,0
1558440530625613,-1,-2,-1,-6,-2,-1,-1,-1
1558440530632603,-2,-3,-3,0,1,-1,0,1
1558440530632603,0,3,5,7,2,4,0,0
1558440530648553,-2,-6,-6,-5,-5,-6,-4,-2
1558440530648553,0,-2,-4,-8,0,1,-1,-2
1558440530650546,0,1,-1,-1,-1,-2,0,-1
1558440530650546,-2,-2,2,4,-3,-2,-1,1
1558440530662514,-1,0,-3,-6,-1,1,0,-1
1558440530662514,-1,2,1,-1,-3,-4,0,0
1558440530671491,-2,-3,-1,-3,-1,-3,-1,-3
1558440530671491,0,2,1,0,0,0,0,-1
1558440530685453,1,-2,1,-2,-1,0,-1,-1
1558440530685453,0,1,3,5,0,1,1,-1
1558440530692434,1,1,-2,-4,1,2,1,0
1558440530692434,-1,-2,2,-2,0,0,0,1
1558440530708394,-2,1,0,2,0,-2,-2,-2
1558440530708394,-1,-1,0,0,0,0,-3,-2
1558440530716370,-3,-1,-4,0,0,-1,-2,-1
1558440530716370,2,-3,-3,-5,-3,0,1,-1
1558440530722354,-1,0,-2,2,-1,-2,0,-2
1558440530722354,0,1,1,0,-1,-1,-1,1
1558440530731330,-1,0,0,-1,0,0,1,-1
1558440530731330,-2,-1,-8,-5,0,-3,-1,-3
1558440530745294,0,-2,0,3,0,-1,0,0
1558440530745294,0,-2,-1,-1,-1,-1,0,-1
1558440530752283,-3,-3,2,-2,-3,-1,-1,-1
1558440530752283,0,-1,1,0,-2,-1,-3,-1
1558440530769294,-1,0,-2,-1,-3,-1,-1,0
1558440530769294,-3,-1,-5,-3,-3,0,0,0
1558440530770228,0,-2,-3,-1,-1,-1,-2,0
1558440530770228,-3,-1,2,-2,2,2,1,-1
1558440530782206,0,-1,1,2,0,1,-1,-2
1558440530782206,-1,-1,-1,0,0,-1,-1,0
1558440530791180,0,0,-4,-2,-3,-3,0,-2
1558440530791180,1,1,1,0,-4,-3,-2,-2
1558440530806141,-1,-1,-2,-2,-1,-2,-1,-1
1558440530806141,-2,0,0,2,1,0,0,-3
1558440530812115,-2,-1,0,-2,0,-1,0,-2
1558440530812115,-2,-5,-8,-4,-2,-2,-1,0
1558440530829068,1,0,1,-1,-3,-3,-1,0
1558440530829068,0,0,-2,-2,1,6,3,2
1558440530830068,1,-2,0,0,-2,-2,-2,0
1558440530830068,-2,-1,1,1,-1,-1,0,0
1558440530842034,-2,-3,-4,-6,-1,0,-2,-2
1558440530842034,0,-1,-2,-3,-3,-6,-6,-2
1558440530851010,-3,-2,-2,0,1,-1,-1,1
1558440530851010,-2,-2,-1,0,0,1,-2,0
1558440530865971,1,0,-1,-1,0,-2,-2,-1
1558440530865971,-1,1,4,4,-1,1,1,-1
1558440530872954,-1,0,-2,-3,-2,1,0,-2
1558440530872954,-1,-2,-1,-3,0,-1,-1,-1
1558440530888912,-1,0,1,0,0,3,-2,0
1558440530888912,0,-2,-7,-5,-2,-2,-2,-1
1558440530889906,0,-2,-2,2,-1,-4,-2,-1
1558440530889906,1,1,0,-2,1,1,-2,-1
1558440530902873,0,0,-1,0,1,2,1,-1
1558440530902873,-1,1,0,3,0,1,-1,-2
1558440530918829,0,-1,0,-2,0,2,2,1
1558440530918829,-1,-3,-2,-1,-2,-5,-2,-1
1558440530925809,-3,-4,-3,-1,-1,-3,-2,1
1558440530925809,-3,-3,-4,-4,-3,-1,-1,-1
1558440530932791,1,1,0,-1,-2,0,0,0
1558440530932791,2,2,1,1,-1,1,1,-2
1558440530948749,0,2,0,0,0,-1,-1,0
1558440530948749,-2,0,1,1,0,-1,-1,-1
1558440530950744,-2,-2,0,-2,-1,1,-2,-1
1558440530950744,-1,-3,-4,-2,-4,-4,-1,-1
1558440530962710,-1,-1,-4,-4,-2,-2,1,-1
1558440530962710,0,2,3,0,-1,-1,0,1
1558440530978674,-2,-5,-5,-1,-2,-3,-2,-3
1558440530978674,-5,-3,-3,-3,-2,-2,-1,-1
1558440530985651,1,-2,-1,2,-2,-5,-4,-2
1558440530985651,-3,-5,-4,-3,-2,-1,-2,-4
1558440530992631,-1,0,1,0,-2,-1,0,-1
1558440530992631,0,-2,-1,-2,-1,0,0,1
1558440531008590,-2,-4,-4,-1,0,0,1,-3
1558440531008590,-1,-1,-2,0,-2,-3,-3,1
1558440531010584,0,0,-1,0,-2,-5,-3,-3
1558440531010584,-3,1,0,-1,-1,-1,1,-3
1558440531022550,0,2,2,2,0,1,1,-1
1558440531022550,-2,-2,-1,-3,1,0,0,1
1558440531031527,-2,0,-1,-3,0,-1,1,1
1558440531031527,-1,-2,-2,-1,-1,-1,-2,0
1558440531045489,0,-1,1,0,-1,-1,-2,0
1558440531045489,0,1,1,0,-3,-1,0,0
1558440531052482,-2,-2,-3,1,-2,2,-1,0
1558440531052482,-2,-1,-2,0,-2,-3,-2,-1
1558440531068431,-1,0,0,-3,-1,0,-1,-2
1558440531068431,-2,-5,-4,-4,-2,-4,-3,-3
1558440531070425,-1,-1,-3,-1,-1,-2,-1,-3
1558440531070425,2,-2,1,-2,1,5,3,-1
1558440531082392,0,-1,4,1,0,2,2,2
1558440531082392,-1,0,2,1,1,-3,-1,0
1558440531091368,-1,-2,-2,-1,-1,0,-3,-2
1558440531091368,-2,0,-2,-1,-2,-2,-3,-1
1558440531105330,-1,-3,-3,-2,0,-1,1,0
1558440531105330,0,2,2,0,0,-1,0,-2
1558440531120302,-3,-5,-2,-2,-2,-2,0,1
1558440531120302,-4,0,1,-2,0,1,-1,-3
1558440531129266,-1,-2,-3,0,-3,-8,-6,-1
1558440531129266,1,-1,-1,-2,0,1,1,1
1558440531130264,0,1,-2,-1,-2,-2,-2,-1
1558440531130264,-2,-4,-4,-2,-1,-2,-2,0
1558440531142241,-1,-3,-3,-2,-2,-1,-1,0
1558440531142241,-1,0,-3,-2,-2,-1,0,-2
1558440531151207,-1,-1,0,-2,-2,-1,-1,-2
1558440531151207,0,-4,-2,-3,-3,-5,-1,-2
1558440531166169,1,4,3,-2,1,0,0,0
1558440531166169,1,0,1,2,0,-1,-1,-1
1558440531172153,-2,3,-2,-1,-1,1,1,0
1558440531172153,-4,-2,-3,-3,-3,-6,-6,-3
1558440531189107,-1,-2,-2,-3,-1,1,2,-1
1558440531189107,-2,-1,1,-1,0,1,0,-2
1558440531190107,2,2,3,2,2,0,1,0
1558440531190107,0,-2,-5,-2,3,2,-1,0
1558440531202071,-1,0,-1,1,-1,-1,0,0
1558440531202071,-3,1,1,0,-4,-1,-3,-2
1558440531219028,2,3,7,1,-1,-3,-2,1
1558440531219028,1,1,-1,0,0,-1,-1,-1
1558440531225010,-3,-2,-3,-1,-1,-3,-2,-2
1558440531225010,-1,-4,-3,0,-1,-2,-1,0
1558440531233986,-3,-1,-2,1,-2,-1,-1,1
1558440531233986,0,5,5,1,1,-1,1,0
1558440531248947,-3,-5,-4,-3,-2,-3,-2,-3
1558440531248947,0,-1,1,2,2,0,-1,-3
1558440531249943,-1,-4,-5,-2,-1,-1,-2,-1
1558440531249943,-1,1,6,4,0,2,2,1
1558440531262909,0,2,2,-3,0,-2,-1,0
1558440531262909,-2,-4,-7,-7,-3,-2,-1,-1
1558440531271886,-1,0,4,4,1,-1,-1,-2
1558440531271886,-3,-3,-10,-4,-4,-2,-2,-2
1558440531293826,1,1,2,3,1,1,1,0
1558440531293826,0,-1,-2,1,-2,-1,-1,0
1558440531295820,-1,-3,-4,-5,2,1,0,0
1558440531295820,-4,-3,-1,5,-2,-2,1,-1
