timestamp,emg1,emg2,emg3,emg4,emg5,emg6,emg7,emg8
1558440495981738,1,-1,-1,-20,2,1,2,-2
1558440495981738,-2,-1,-1,18,-1,-1,-2,-4
1558440495982736,-3,0,-2,-1,-1,-3,-3,0
1558440495982736,-1,-2,-2,-15,0,-3,0,-1
1558440495985728,2,-1,-1,13,-1,-2,-2,0
1558440495985728,-2,0,1,-1,0,1,1,3
1558440495985728,1,-1,1,-10,0,0,2,0
1558440495985728,-2,0,-3,-2,0,0,-1,-4
1558440495992724,-2,-2,-1,11,-2,-1,-5,-1
1558440495992724,1,-2,-2,-11,0,1,-1,-1
1558440495999690,0,0,-1,-6,-2,-1,-1,-2
1558440495999690,1,-2,0,12,-1,-1,-2,0
1558440496007670,-4,-1,-2,-4,-2,0,-3,-1
1558440496007670,-2,-1,-1,-11,-1,1,-1,-2
1558440496023626,-1,-2,0,7,-2,-3,0,0
1558440496023626,-1,2,1,1,-1,0,-3,-3
1558440496028614,-2,-1,-1,-7,-1,-2,0,-1
1558440496028614,0,-1,-4,-1,0,-3,-1,-2
1558440496044573,-2,-1,-1,4,-1,0,-2,-1
1558440496044573,-1,-1,-2,-4,-1,2,1,1
1558440496052549,0,-1,-2,-4,-1,-1,-2,0
1558440496052549,-3,0,1,5,-2,-4,-1,-1
1558440496059530,0,0,0,-2,1,1,-2,-3
1558440496059530,-3,-2,-4,-5,-1,-3,-2,-3
1558440496097429,0,-1,2,-1,1,-2,-2,0
1558440496097429,-1,0,0,-18,1,2,1,-1
1558440496105409,0,-1,-3,8,-1,-1,-3,-3
1558440496105409,-1,-1,1,6,-1,0,-2,2
1558440496107402,-2,-2,0,-10,-1,0,0,-2
1558440496107402,1,-1,-3,0,-3,-1,0,-4
1558440496107402,-2,-2,0,8,0,0,-2,1
1558440496107402,-1,-1,0,-7,-1,-3,-2,-1
1558440496119370,1,-1,-2,-9,0,0,1,-2
1558440496119370,-1,0,-1,17,-2,-2,-1,1
1558440496126352,-2,-1,-1,-5,-1,-5,-4,-1
1558440496126352,-1,0,-1,-9,1,3,-1,-3
1558440496133334,0,-1,-2,8,-2,1,-1,1
1558440496133334,-2,-2,-1,0,-1,-3,-3,-1
1558440496148293,3,-1,-1,-9,1,1,1,0
1558440496148293,-1,-1,-1,-1,-1,1,-2,1
1558440496156271,-3,0,1,5,-3,-4,-1,-1
1558440496156271,-2,-2,-3,-3,0,-1,-2,-3
1558440496165247,-1,-1,-2,-7,0,0,0,-1
1558440496165247,1,-2,-1,6,-1,-1,0,1
1558440496179210,1,0,-1,0,0,1,-1,1
1558440496179210,-1,-2,-2,-4,-2,0,-1,0
1558440496186191,-1,-2,-2,1,-4,-5,-2,-2
1558440496186191,-1,-2,0,0,-1,-2,-1,-3
1558440496194179,-1,-3,0,-1,-1,0,0,-1
1558440496194179,0,-1,-1,0,1,1,0,0
1558440496209131,-2,-2,-1,1,0,1,-1,-1
1558440496209131,1,1,1,-3,0,-3,1,-1
1558440496216112,-3,-1,-4,-4,-3,-3,-2,-1
1558440496216112,-2,0,-1,4,1,1,-2,-1
1558440496225087,1,0,0,-3,-2,1,1,-1
1558440496225087,-1,-1,1,-3,-1,-2,-1,-3
1558440496239050,0,-3,-4,0,-2,-1,1,-4
1558440496239050,-2,-5,-1,-3,-2,-2,-1,2
1558440496246030,-2,0,0,-6,-3,-2,-2,0
1558440496246030,-1,-2,-4,0,-3,-2,0,0
1558440496254012,0,1,1,2,2,1,-1,0
1558440496254012,-2,1,3,-1,-1,-1,1,-1
1558440496268970,-1,-1,1,-3,-2,-4,-2,-3
1558440496268970,-3,-1,-2,1,-3,0,-2,-2
1558440496275951,0,1,-1,-3,-1,2,0,-2
1558440496275951,1,-1,0,-4,-2,-3,0,-3
1558440496284928,0,1,1,2,1,1,1,0
1558440496284928,1,0,1,-2,-1,0,-2,1
1558440496298889,0,-1,0,-1,0,-1,-1,-1
1558440496298889,-2,-1,-1,1,1,0,-1,-1
1558440496307868,-1,0,-1,-1,-1,-3,-1,0
1558440496307868,-3,-2,-1,-1,0,-2,0,-3
1558440496313850,0,-1,1,0,-1,0,-2,-1
1558440496313850,0,2,-1,0,-2,0,0,-2
1558440496328810,0,-2,-2,-2,-1,0,-2,-1
1558440496328810,0,-2,-3,-1,1,-2,-2,-2
1558440496335791,-1,0,0,1,0,-1,-3,-3
1558440496335791,0,-3,0,-2,-1,-3,-3,-1
1558440496344766,-2,-2,-1,-1,-1,1,0,-2
1558440496344766,0,0,-1,0,-2,-2,0,-1
1558440496367706,-3,1,2,-1,0,-1,0,-1
1558440496367706,-1,-2,-5,-2,-1,1,-3,-1
1558440496368703,1,2,-1,0,-2,-1,0,2
1558440496368703,1,-2,1,-2,-3,-6,-3,-1
1558440496373690,0,-3,-2,-1,-1,-2,-2,0
1558440496373690,-2,1,-1,-1,-2,-1,-3,-2
1558440496388650,-1,-2,-1,0,1,1,-1,-1
1558440496388650,1,0,1,-1,-1,1,1,-2
1558440496396629,-1,-1,-2,-1,-2,0,-2,-2
1558440496396629,0,-2,1,0,-1,-1,0,-2
1558440496404607,-1,-2,-1,-2,-2,-2,0,-1
1558440496404607,-2,-1,-2,-1,0,1,0,-1
1558440496418573,0,1,-2,0,0,-4,0,-1
1558440496418573,-2,-1,2,-1,-2,0,0,0
1558440496427546,-2,0,-1,-2,-1,-3,-1,0
1558440496427546,-1,0,-1,0,0,2,-1,1
1558440496433546,-1,-3,-4,-2,-3,-2,-3,-1
1558440496433546,-1,-2,-1,-3,-2,-3,-3,-3
1558440496465447,1,0,0,2,1,0,1,-2
1558440496465447,-2,-1,-2,-1,-3,0,-1,0
1558440496465447,-1,-2,-1,-2,-2,0,0,-3
1558440496465447,0,1,0,-2,0,-1,-1,1
1558440496488383,-1,-3,-2,0,-1,-3,0,0
1558440496488383,-1,-4,-1,0,-1,2,0,-3
1558440496489380,0,-3,-1,-2,-3,-2,-2,-1
1558440496489380,1,2,-2,-1,-2,-1,1,-2
1558440496490379,-1,-1,2,-1,0,1,-1,-2
1558440496490379,0,1,-1,-2,0,-1,1,0
1558440496493370,-1,-2,-2,2,1,-1,-1,-2
1558440496493370,0,-1,2,3,-1,0,0,-2
1558440496508341,-1,1,0,-1,0,0,2,-3
1558440496508341,-3,-2,-5,-5,-2,-3,-2,-2
1558440496516308,-3,-2,-2,-2,-3,-1,-1,-2
1558440496516308,-1,-2,-6,-2,0,-2,-2,0
1558440496540246,0,1,1,0,0,-2,-2,0
1558440496540246,-2,-2,-4,-3,-2,-1,-1,-2
1558440496541241,0,1,4,1,1,1,0,1
1558440496541241,0,-2,-4,-2,-2,-1,0,0
1558440496564181,-1,0,-2,-4,0,0,-1,0
1558440496564181,-4,-3,-3,-1,-2,-3,-4,-5
1558440496564181,-1,-1,-3,-4,-2,1,0,0
1558440496564181,-2,-3,-3,-2,-1,-2,0,-1
1558440496568171,1,-2,-2,1,0,0,-1,0
1558440496568171,-2,0,2,1,1,-2,0,-3
1558440496584127,-2,1,1,-1,-3,0,1,1
1558440496584127,-1,0,1,1,-2,1,-2,0
1558440496591109,0,-2,-4,-1,-4,-3,-3,-2
1558440496591109,1,0,-1,-1,1,0,2,1
1558440496607066,1,0,1,1,1,-2,-3,-1
1558440496607066,0,0,3,3,0,-1,-2,0
1558440496609061,-2,-2,-4,-8,-4,0,-1,-2
1558440496609061,-1,-1,-2,-6,-3,-2,-2,-1
1558440496614047,0,-1,0,0,1,0,2,1
1558440496614047,-1,-1,1,2,1,0,-1,-2
1558440496629008,-4,-2,-3,3,0,-4,-3,-1
1558440496629008,0,0,1,1,-2,-2,-2,-1
1558440496635989,-2,-1,0,-1,-1,-3,-1,0
1558440496635989,1,-2,2,-3,-1,0,-1,-1
1558440496658926,-1,-1,2,-2,0,-1,-2,-2
1558440496658926,1,0,-2,4,0,-1,-2,-1
1558440496659924,1,1,-2,0,0,1,-2,-2
1558440496659924,-3,-1,0,-2,-1,-3,-1,-3
1558440496667903,-4,-2,-3,-1,-1,2,0,0
1558440496667903,-2,-3,0,3,1,1,-1,-2
1558440496681866,1,-1,0,-1,-2,-3,-3,0
1558440496681866,-1,0,-4,0,-1,-4,0,-2
1558440496688847,0,-2,2,0,0,-1,0,-1
1558440496688847,-3,-2,-1,-2,-1,0,0,-2
1558440496695828,-3,-2,-3,-2,-3,-3,-2,-1
1558440496695828,-3,0,-1,-3,-3,0,-3,-1
1558440496712783,-1,0,0,-1,-2,-1,-1,-2
1558440496712783,-1,1,-3,-2,-2,0,-3,-1
1558440496718766,-2,0,-2,3,1,-1,-3,0
1558440496718766,0,-1,-2,-1,0,-1,2,2
1558440496734724,0,-2,-2,-6,-2,1,0,-2
1558440496734724,2,2,3,1,1,-2,1,1
1558440496741706,-2,0,0,-3,0,-1,0,-2
1558440496741706,-1,-5,-4,3,0,-1,-2,-3
1558440496748686,0,0,-1,1,0,0,0,0
1558440496748686,0,-3,-4,-1,-2,-1,-2,2
1558440496764644,-1,-1,-2,-2,-1,1,0,-1
1558440496764644,-1,2,0,-3,1,0,-1,-2
1558440496770628,-2,-3,-5,-4,-2,-2,-2,-2
1558440496770628,0,-1,0,-1,1,-1,-1,-1
1558440496787583,1,-1,-1,-3,0,-1,0,1
1558440496787583,0,1,4,0,-1,-1,-1,-2
1558440496788580,0,0,0,1,0,-2,-1,-1
1558440496788580,-1,-1,-2,-3,-1,0,-3,-1
1558440496810522,-3,-1,-3,-4,-1,1,-1,-3
1558440496810522,1,1,-2,0,-1,0,-1,-1
1558440496816505,-2,-2,3,0,0,-1,-2,-1
1558440496816505,-1,0,-4,-1,-1,-1,0,-1
1558440496817503,1,-1,1,0,-1,-2,0,-2
1558440496817503,-1,-3,0,-3,-2,-2,-1,-1
1558440496831465,-2,-3,-2,-1,-1,-1,-1,0
1558440496831465,-3,-2,-6,-5,-3,-2,1,-2
1558440496838447,0,1,0,-1,-3,-3,-2,-1
1558440496838447,-2,-1,-3,-2,0,1,-1,0
1558440496847423,-1,0,1,3,-1,-2,-1,-2
1558440496847423,0,-2,1,2,-3,2,0,-1
1558440496861385,-4,-7,-5,-5,0,0,-2,0
1558440496861385,0,0,-2,-1,-4,-2,-2,-1
1558440496868366,1,-2,-3,-1,0,-2,-3,-1
1558440496868366,3,1,-3,0,1,-3,-3,0
1558440496876347,1,-1,1,0,0,1,1,0
1558440496876347,-1,1,0,-3,-2,-2,-3,-1
1558440496891305,1,-3,4,1,0,-2,0,-1
1558440496891305,-2,-4,0,-2,-3,-1,-1,-1
1558440496898286,1,-1,1,0,-1,-1,1,-2
1558440496898286,-2,-5,-2,-2,1,0,1,0
1558440496915241,0,3,0,0,0,0,2,0
1558440496915241,-2,-2,2,-2,1,0,0,-2
1558440496922222,-1,-2,-2,1,0,-2,-3,-2
1558440496922222,0,-1,-2,-3,-2,-4,-2,-1
1558440496929204,-3,-4,-4,-2,-2,-2,-3,-2
1558440496929204,-3,-1,-3,0,0,2,0,0
1558440496936186,0,0,-2,-1,0,0,0,-1
1558440496936186,1,2,-1,-3,-1,-2,-2,0
1558440496951145,-1,-2,-1,-1,-1,-2,-2,-1
1558440496951145,0,1,1,2,1,-1,1,-2
1558440496959123,1,1,-2,-2,0,-2,0,1
1558440496959123,0,-2,-2,-3,-2,-3,1,0
1558440496967105,-1,-1,-1,-1,-2,-1,-1,-1
1558440496967105,-1,-2,1,-1,1,2,1,0
1558440496982062,0,-1,-1,0,0,-2,1,-2
1558440496982062,0,-1,0,2,-1,-2,-2,-2
1558440496989044,-3,-3,-5,-2,-3,-1,-2,-2
1558440496989044,-1,0,0,-2,-3,-2,-3,-2
1558440496996025,1,0,-3,-1,-1,0,-2,1
1558440496996025,-3,0,0,1,-1,2,1,-1
1558440497010985,2,-2,5,-3,1,1,2,0
1558440497010985,-3,-2,1,-2,0,0,-2,0
1558440497018964,-3,-4,-2,1,-3,-4,-2,1
1558440497018964,1,1,0,-2,0,1,0,1
1558440497027939,0,3,-2,-1,-1,-1,-2,-1
1558440497027939,0,-1,-3,-2,-1,-1,-1,-3
1558440497041902,2,2,4,0,0,0,-2,-1
1558440497041902,-2,-2,-2,-2,0,0,1,-3
1558440497048883,0,1,1,-1,-1,-1,0,-3
1558440497048883,-2,-2,0,2,0,-1,-1,0
1558440497055864,-2,-3,-3,-6,-2,-2,-3,-4
1558440497055864,0,-3,0,0,-1,-1,0,0
1558440497070824,0,0,-3,0,1,0,-1,2
1558440497070824,1,-2,-1,-2,-2,-4,-1,1
1558440497078803,-3,1,-1,0,-2,-1,1,0
1558440497078803,-2,-4,-3,0,-1,-2,-3,0
1558440497093763,0,0,0,0,0,0,-1,-2
1558440497093763,1,0,0,-2,0,0,0,0
1558440497101742,0,-3,-4,-1,-2,-3,-3,0
1558440497101742,-1,-2,0,-1,-2,-3,-3,-2
1558440497116702,0,-1,-1,-3,0,1,1,0
1558440497116702,-2,0,-1,-1,0,0,2,-1
1558440497117700,-1,-2,-2,-2,-2,1,2,-2
1558440497117700,0,0,1,0,2,1,0,0
1558440497130664,-1,-5,-6,-4,-4,-5,-3,-3
1558440497130664,2,0,0,0,-2,-2,-1,-1
1558440497138644,-1,-2,-3,-1,-1,-1,-2,-2
1558440497138644,0,1,0,-2,-1,1,-2,-1
1558440497153604,-3,0,0,-1,-1,1,-1,-1
1558440497153604,-1,-2,2,-1,0,0,1,1
1558440497161581,-2,0,-1,0,0,-3,-2,-1
1558440497161581,-1,-1,2,0,1,-1,-1,-1
1558440497176541,-3,0,-2,2,0,0,-1,0
1558440497176541,1,0,0,-2,-3,-4,-5,-1
1558440497177540,1,0,-3,0,0,-1,-2,-1
1558440497177540,-1,-1,-2,-1,-1,-2,2,0
1558440497191502,-1,0,-2,0,2,0,-3,-2
1558440497191502,0,0,0,-2,0,1,1,-1
1558440497198483,-1,-1,0,-1,-4,-2,-1,-1
1558440497198483,-3,-1,0,0,-3,-3,-3,-1
1558440497213442,-1,-2,0,-2,-2,-1,0,0
1558440497213442,-2,-1,-2,-2,1,-2,-2,0
1558440497221422,-1,1,0,1,1,0,0,-1
1558440497221422,-2,-1,-3,-1,0,1,0,-2
1558440497236382,0,-1,-1,-1,-1,-2,-1,2
1558440497236382,-1,-1,-1,0,-1,-1,-2,-4
1558440497237378,0,-1,4,1,2,2,4,-1
1558440497237378,-2,0,-1,-4,-3,-1,-2,-1
1558440497251343,-1,2,-5,-3,-1,-1,-1,-1
1558440497251343,-2,-2,-2,0,-2,-2,-4,0
1558440497258325,-3,-1,-1,-4,0,2,-1,-2
1558440497258325,-2,-1,-2,-1,0,1,0,-2
1558440497273290,1,-1,2,0,-2,-2,0,-2
1558440497273290,0,0,1,-2,-1,-1,0,0
1558440497282260,-1,-3,-1,0,-2,-1,-1,0
1558440497282260,-1,-1,-1,-2,-2,1,0,0
1558440497297225,-5,-3,-1,0,-3,-1,0,-1
1558440497297225,-2,-2,-2,1,-1,-1,-1,0
1558440497297225,1,-1,2,-2,0,-1,-2,2
1558440497297225,-1,-1,-7,-3,-4,-2,-1,0
1558440497311190,0,0,-2,-1,-1,-3,-4,-3
1558440497311190,-1,-1,-2,0,-1,0,0,-1
1558440497319162,0,-1,-2,1,-2,-1,-1,0
1558440497319162,1,0,0,-1,-1,1,-1,-1
1558440497334123,2,-4,0,0,2,1,1,1
1558440497334123,-1,-1,-2,-1,0,-2,-2,-3
1558440497342109,-1,-1,-3,-4,-1,-2,-1,0
1558440497342109,-1,-3,1,-2,-2,-4,-2,-1
1558440497365071,-2,0,1,-1,-4,-2,-1,0
1558440497365071,-3,-1,1,2,1,0,-2,1
1558440497366065,1,1,1,2,0,2,0,-1
1558440497366065,0,0,-3,-6,-1,-2,-1,-1
1558440497371050,-1,-3,-3,0,-2,0,-1,0
1558440497371050,0,-1,0,-3,-1,0,-1,-1
1558440497386980,1,0,0,1,0,1,-1,-2
1558440497386980,0,0,2,6,0,-7,-3,0
1558440497393961,-2,0,-2,-2,-1,-4,-1,-1
1558440497393961,0,-2,-1,-2,-3,-1,0,-1
1558440497401939,-3,-2,-2,-3,-1,1,-1,-2
1558440497401939,0,1,1,3,-1,0,-1,-2
1558440497416899,0,1,2,-2,0,-3,-2,0
1558440497416899,-3,-2,-5,-4,-4,-1,0,0
1558440497417898,-2,0,-1,1,-1,-1,-2,-2
1558440497417898,-2,-1,0,0,3,0,1,0
1558440497430861,0,-1,0,-2,-2,2,1,-2
1558440497430861,0,-1,0,1,-1,0,0,-1
1558440497438839,-1,-2,0,-2,-2,-3,-3,-2
1558440497438839,-1,0,-2,0,-3,-1,-2,0
1558440497453800,-1,-4,-3,2,0,-2,-2,-2
1558440497453800,2,3,4,-1,0,1,1,3
1558440497461778,-4,0,-2,-4,-2,-5,0,2
1558440497461778,-3,-4,-3,0,-1,-4,0,-1
1558440497476738,0,-2,-2,0,-2,1,-1,-2
1558440497476738,-1,-2,-4,-3,-1,-1,-2,-4
1558440497477735,-1,-1,-1,1,-1,-1,-2,-1
1558440497477735,2,-1,0,-3,-2,-1,-3,-1
1558440497490701,-2,1,-1,-2,-3,-1,-1,-1
1558440497490701,-3,-5,1,-1,-1,-2,-3,-3
1558440497498679,0,0,1,0,-2,-2,0,-1
1558440497498679,-3,1,-5,-1,0,1,2,-3
1558440497513639,1,3,2,0,0,0,-1,0
1558440497513639,0,2,-4,-1,-1,0,-2,-2
1558440497521618,-1,-2,-1,-1,-1,-4,-1,-2
1558440497521618,-2,-2,3,-2,-1,1,-1,1
1558440497536579,1,-1,-2,0,0,0,1,0
1558440497536579,0,-2,-1,1,0,-2,-1,-3
1558440497537576,1,-1,-2,-1,0,0,1,1
1558440497537576,-2,-3,-1,0,-2,-2,-2,0
1558440497551539,-3,1,0,-3,0,-1,-2,0
1558440497551539,-3,0,-2,-1,-2,0,-2,-2
1558440497558520,-2,-9,1,-3,-2,1,-1,0
1558440497558520,1,0,3,-2,0,0,1,-2
1558440497573482,-1,-3,-3,2,-1,-1,-2,1
1558440497573482,1,0,-3,-2,0,-2,-2,1
1558440497581458,0,1,-3,-2,-1,-2,0,-3
1558440497581458,-1,-2,-2,1,-2,1,-2,-1
1558440497596420,-2,-3,-1,-4,-2,-2,-1,-1
1558440497596420,-2,-2,-3,-1,-2,-1,-2,-1
1558440497597416,0,2,-1,0,-2,1,-2,-1
1558440497597416,0,1,-2,1,-2,0,0,-1
1558440497611436,-3,0,1,-1,-2,-2,-1,-3
1558440497611436,0,-2,1,-2,1,-1,2,0
1558440497618360,-2,0,1,0,-1,0,-2,0
1558440497618360,2,1,2,-4,1,1,0,0
1558440497633320,-3,-4,-4,-2,-2,-2,-4,-1
1558440497633320,-3,-2,-2,-1,-2,-3,0,0
1558440497642296,-1,1,2,-1,-1,-1,-2,0
1558440497642296,-2,1,-4,-2,-1,-2,1,-2
1558440497681191,-2,-5,4,0,0,2,2,0
1558440497681191,0,0,-1,0,1,-1,-1,-2
1558440497682188,0,-1,-4,-2,-1,0,0,-4
1558440497682188,-2,-4,-4,-1,-3,1,-3,-2
1558440497683186,2,-1,-1,1,-1,-3,0,-2
1558440497683186,-2,-2,-2,-2,-3,-1,-2,-1
1558440497695154,-2,-2,1,-1,-1,0,-1,1
1558440497695154,-2,-2,-1,-1,-1,-1,0,0
1558440497696151,0,2,3,1,-2,-3,-2,0
1558440497696151,-2,-3,0,-1,0,-1,-3,-2
1558440497702135,-1,2,-3,0,-3,-3,1,0
1558440497702135,-1,-2,4,-2,-3,-2,-2,-3
1558440497725075,-1,0,-3,-2,1,-1,1,-1
1558440497725075,0,1,0,1,-2,0,0,1
1558440497726072,-2,-1,0,0,-2,3,0,1
1558440497726072,1,-1,-3,-2,-2,-1,-2,0
1558440497731059,-1,-1,0,-1,-1,-1,-2,-3
1558440497731059,2,1,-3,0,-1,-1,-2,0
1558440497739037,-2,-5,-1,-1,-2,-3,-2,-3
1558440497739037,-4,-8,-1,-3,1,0,-1,-1
1558440497754002,-2,-3,-6,-1,-2,0,-1,-2
1558440497754002,-3,-1,0,0,0,-3,-2,-1
1558440497769959,2,-2,-1,-2,0,-2,0,0
1558440497769959,-1,2,0,1,-2,-1,0,0
1558440497777937,-1,1,0,0,-3,-1,1,0
1558440497777937,-3,-2,-3,-3,-1,0,0,0
1558440497784921,-2,1,-3,-3,0,-1,-2,-2
1558440497784921,0,2,1,0,0,0,-1,0
1558440497800876,1,0,0,-2,1,2,0,-1
1558440497800876,0,-3,3,-2,-1,0,-1,-2
1558440497801870,1,0,-1,0,-1,-1,0,-1
1558440497801870,0,0,-1,-1,0,-2,-1,-2
1558440497813903,-2,-1,3,0,0,1,0,-1
1558440497813903,-2,1,-1,0,-3,-1,-2,-1
1558440497821922,-2,-4,-1,-1,-1,-2,-3,0
1558440497821922,-1,-6,3,-2,-2,-1,0,-1
1558440497844755,-1,-2,-4,-2,0,-1,-1,0
1558440497844755,-1,-1,1,1,-3,-2,0,1
1558440497845752,-3,-5,-5,-3,-1,-1,0,-2
1558440497845752,-1,1,-4,0,-2,1,-1,0
1558440497859874,-3,-3,0,-1,1,1,0,-1
1558440497859874,0,-1,0,-2,-2,-4,-3,-1
1558440497859874,-1,2,0,0,-2,-3,-4,-2
1558440497859874,0,0,-5,-2,0,-2,-2,-1
1558440497873677,0,0,-3,1,-1,-3,-3,-2
1558440497873677,-3,-5,0,-1,1,3,1,-2
1558440497881655,-3,0,-2,-1,-1,0,0,2
1558440497881655,-1,2,-2,1,2,-2,-1,-1
1558440497896626,0,-2,0,-1,0,-4,-4,0
1558440497896626,1,0,-3,-2,-1,-2,-2,-2
1558440497904600,1,2,-3,1,-1,-1,0,0
1558440497904600,0,-2,1,0,-1,2,3,-1
1558440497919555,-2,1,1,0,0,1,1,0
1558440497919555,-2,0,0,-2,-2,-3,-1,-2
1558440497919555,-2,1,0,1,1,1,-1,-2
1558440497919555,-2,1,0,-1,-1,-1,0,1
1558440497933520,-1,1,-4,-1,-1,-1,-2,-2
1558440497933520,-1,1,-3,0,-3,-3,-3,-1
1558440497949513,0,-2,-1,-2,-1,-2,-1,0
1558440497949513,1,1,2,-1,2,4,2,1
1558440497965584,-1,-3,-2,0,-2,-6,-4,-3
1558440497965584,1,-1,-1,-1,1,0,0,-1
1558440497965584,-3,-3,-2,0,0,-3,-1,-4
1558440497965584,0,-2,1,-1,-2,-1,0,-2
1558440497979560,-1,-1,-2,-1,-1,0,-1,0
1558440497979560,0,0,-2,-3,-1,1,-3,1
1558440497980394,1,-3,1,-1,-1,0,0,0
1558440497980394,-2,-1,-5,1,-3,-7,-5,-2
1558440497994379,-1,-1,-4,-4,-2,1,0,-1
1558440497994379,-1,1,0,1,0,1,1,0
1558440498001339,-2,0,0,-2,-1,-3,-2,-2
1558440498001339,-1,-1,-2,-1,-1,0,1,-2
1558440498025409,-2,-2,1,-1,0,0,0,-1
1558440498025409,-1,-2,-3,-2,0,-2,1,-3
1558440498026273,1,0,3,3,-1,-1,-2,0
1558440498026273,0,-1,-3,-7,-3,-3,0,-3
1558440498047219,0,-3,-7,-3,-1,-1,-1,-2
1558440498047219,-3,0,2,-1,0,1,-1,0
1558440498055193,0,4,-5,-1,0,-2,-1,-1
1558440498055193,-3,-3,5,1,0,-2,-4,-1
1558440498056202,0,1,0,0,1,0,0,-2
1558440498056202,-3,-6,-4,-1,-2,1,-1,-1
1558440498062173,0,-3,-3,-2,-2,-1,0,0
1558440498062173,1,0,-1,-1,-1,-1,-1,0
1558440498076486,0,0,2,1,-2,-1,-1,-1
1558440498076486,3,4,1,-1,0,0,-1,0
1558440498084116,0,-4,-1,-3,-2,0,-1,0
1558440498084116,0,1,0,0,-1,2,0,-1
1558440498108352,1,-2,-1,-1,-2,-4,-1,0
1558440498108352,-1,0,0,-1,-1,-2,0,-1
1558440498108352,-3,-1,-2,1,1,1,2,-1
1558440498108352,-2,-2,-3,0,-2,-1,-2,-1
1558440498114410,1,1,2,3,0,-2,0,-1
1558440498114410,1,-4,1,-5,-1,-2,-4,-1
1558440498122012,-2,-2,-5,-1,-1,0,-2,1
1558440498122012,0,0,-2,-2,-2,-4,-1,-5
1558440498135975,-3,-1,-3,-3,-1,1,1,0
1558440498135975,-2,-5,-2,1,-1,-3,0,0
1558440498143955,-1,-3,2,-2,0,-1,-3,-2
1558440498143955,0,-1,-2,4,-1,-1,-2,1
1558440498158914,0,-1,-3,-8,0,0,-1,-1
1558440498158914,-1,2,-2,0,-2,-2,0,-2
1558440498159911,2,3,0,-3,-2,0,1,1
1558440498159911,-4,-6,-6,-2,-2,-5,-3,-4
1558440498175870,0,-1,1,0,-2,-1,-1,1
1558440498175870,-1,-1,0,-2,-1,-2,-2,-1
1558440498180856,0,1,-2,0,0,-2,0,-1
1558440498180856,3,0,1,1,0,1,-2,1
1558440498205263,-2,0,0,-1,0,2,0,0
1558440498205263,-3,1,1,-1,-2,-5,-1,-1
1558440498205790,2,2,1,2,0,-1,0,0
1558440498205790,-1,-3,1,-3,-1,-1,2,-1
1558440498228179,0,-1,-2,-2,-1,-2,-3,-2
1558440498228179,-1,2,-5,2,-1,1,0,-3
1558440498228728,-1,-1,5,-1,1,1,0,-1
1558440498228728,-2,4,-1,-3,1,2,0,-2
1558440498233715,0,-6,7,2,1,-2,0,2
1558440498233715,0,2,3,1,-1,-3,0,2
1558440498249735,-2,0,-7,-5,-3,-4,-2,-2
1558440498249735,-1,-6,3,-3,1,0,0,-1
1558440498256652,0,2,4,2,-1,1,0,-1
1558440498256652,-1,-4,-6,-2,-1,-1,-4,-3
1558440498264635,-1,-3,-4,-1,-1,-1,-2,-2
1558440498264635,0,-1,-1,0,0,1,0,3
1558440498280784,-2,-2,-6,-1,-1,-1,0,-2
1558440498280784,0,-3,-1,-2,0,0,-2,-1
1558440498281587,0,-2,-2,-2,-3,-1,-1,0
1558440498281587,-3,1,0,-2,-2,-2,-1,-2
1558440498293560,-1,-1,0,-1,1,-2,-1,-1
1558440498293560,0,-1,-2,-2,0,0,-1,-1
1558440498301533,-1,-1,2,1,-1,-1,-3,0
1558440498301533,0,-2,-5,-2,1,-1,-2,-1
1558440498325469,0,1,0,-4,0,0,-3,-1
1558440498325469,-1,-3,0,-2,1,-1,0,-1
1558440498325469,-3,-1,0,1,0,-2,0,-2
1558440498325469,-1,-2,-2,-2,0,0,0,1
1558440498339757,-2,1,-4,-3,-2,-1,0,-3
1558440498339757,-1,-1,1,4,-1,-1,-1,0
1558440498355682,-3,-4,-3,-4,-5,-7,-3,-3
1558440498355682,0,-2,-3,-1,-3,-2,-1,0
1558440498356388,-1,-1,-3,0,-2,-2,-1,-2
1558440498356388,-1,-2,-2,-1,-1,0,-1,1
1558440498377651,0,-3,2,-2,0,1,1,0
1558440498377651,-1,0,-2,0,-2,1,-2,-1
1558440498379635,-2,-2,-1,0,1,-3,-2,-1
1558440498379635,-2,-2,-1,-2,-1,-1,-2,-1
1558440498384347,-3,-1,-2,-2,0,-1,-2,-1
1558440498384347,-2,-1,2,0,-2,-1,-3,0
1558440498399557,1,2,-1,0,-3,1,1,-2
1558440498399557,-1,-1,0,-1,0,-1,0,-1
1558440498400273,2,0,-4,-2,-1,-1,-1,0
1558440498400273,-2,-4,-5,-2,-3,-3,0,-2
1558440498422490,-2,-1,-1,-1,-1,1,-2,-1
1558440498422490,0,-1,0,1,-2,0,1,-1
1558440498422490,-3,1,-1,-1,-1,0,-2,-1
1558440498422490,-1,-1,1,-1,0,-1,-2,-2
1558440498436173,-2,-2,-2,0,1,1,-1,-1
1558440498436173,-2,0,-2,1,-1,1,-2,-3
1558440498452418,-2,0,-1,-2,0,1,0,1
1558440498452418,1,0,-3,-2,-1,-2,-1,0
1558440498459376,2,-1,1,2,0,-1,0,1
1558440498459376,-1,-3,-2,-2,0,0,-2,-1
1558440498460112,1,-1,-2,1,-1,-3,-3,-3
1558440498460112,-1,-1,-1,1,-1,-4,-4,-3
1558440498475141,-1,1,-2,-1,-3,0,0,-1
1558440498475141,-2,-2,-1,-2,-3,-1,-1,-2
1558440498481314,-1,-3,0,-2,-3,-1,0,-1
1558440498481314,-3,-1,0,0,0,0,0,-2
1558440498505255,-3,-2,-2,-3,-1,-2,-1,-2
1558440498505255,-1,1,-2,-2,-1,1,0,0
1558440498505987,-2,-2,-1,0,-2,-2,-3,-1
1558440498505987,-2,-3,-6,-1,-1,-1,-2,-4
1558440498527928,-2,-1,0,-2,-2,-1,-1,0
1558440498527928,0,-2,0,-1,0,-1,1,0
1558440498529084,-3,-3,-3,-1,-1,-2,1,0
1558440498529084,-1,-1,0,-2,-1,0,1,0
1558440498533926,-2,-1,-3,-3,0,-2,-2,-2
1558440498533926,0,2,3,3,-1,0,-3,0
1558440498542064,0,-3,0,-4,-2,0,-1,-4
1558440498542064,0,0,0,-4,-2,0,-2,-2
1558440498557077,-1,1,0,2,-1,-1,-1,0
1558440498557077,-1,-2,-2,-3,-2,-3,-1,-1
1558440498565188,0,1,0,0,0,0,0,0
1558440498565188,-1,1,-2,-1,-1,0,1,0
1558440498580248,-1,-2,-2,-1,-2,-5,-2,-1
1558440498580248,-2,0,-4,-2,-1,-1,0,-1
1558440498580248,-1,0,2,-1,1,1,-2,2
1558440498580248,-1,2,-4,-3,0,2,-1,-1
1558440498602144,1,1,0,-1,-2,0,-1,0
1558440498602144,-2,-2,-2,-2,-2,-3,0,-3
1558440498602728,1,-1,-2,-1,-2,-1,-1,-1
1558440498602728,-2,-1,2,0,-1,-1,-3,2
1558440498616024,-1,1,-6,-2,-1,3,-1,-3
1558440498616024,0,-1,1,-2,0,-3,-1,-1
1558440498625015,0,2,3,2,1,2,2,1
1558440498625015,-3,-5,-3,-1,-3,-3,-3,-2
1558440498638936,-1,1,-1,-1,-2,-2,-2,-1
1558440498638936,-1,-1,-3,1,-2,-1,0,-3
1558440498655832,0,-1,-3,-1,-1,0,-1,1
1558440498655832,1,1,0,-1,-1,-3,0,0
1558440498656585,1,0,2,2,0,-1,-1,-1
1558440498656585,-1,0,1,-3,0,-1,-1,0
1558440498661869,-3,-3,-1,1,0,-3,-1,-2
1558440498661869,0,1,2,3,0,-1,0,-1
1558440498677699,-3,-3,-5,-5,-4,-2,0,-2
1558440498677699,0,1,1,-2,0,0,0,1
1558440498684508,-4,-2,-2,-3,-2,1,0,-1
1558440498684508,0,-1,1,2,-1,-4,-2,0
1558440498698472,-2,-2,0,-3,1,-1,-1,0
1558440498698472,0,0,-1,-1,-1,0,-1,0
1558440498707589,0,0,-5,-1,-1,-4,-2,-2
1558440498707589,0,1,0,-2,-1,0,0,-2
1558440498722688,-1,-2,-1,-1,0,-1,-2,0
1558440498722688,0,-3,-1,0,-1,-1,-2,0
1558440498722688,-2,-1,-2,-1,-3,-1,-3,-3
1558440498722688,-1,-1,-2,-2,-1,-1,-1,1
1558440498736682,-2,0,-5,-2,-1,-1,0,-1
1558440498736682,2,2,4,1,1,0,0,1
1558440498744676,3,1,1,-2,-3,-3,0,0
1558440498744676,-2,-2,0,-2,-3,0,2,0
1558440498758339,-2,-2,-1,1,0,-2,0,-3
1558440498758339,-2,-2,-3,-2,0,0,0,-1
1558440498766289,-2,-1,-3,-3,-2,-2,-2,-2
1558440498766289,-2,-3,-5,0,-1,0,0,-2
1558440498773271,-3,-2,-4,0,-1,2,-2,-3
1558440498773271,0,2,-3,0,-1,0,-3,-1
1558440498781249,-1,-3,0,-1,1,0,-1,-2
1558440498781249,-3,-1,0,0,-2,-2,-2,-1
1558440498805246,0,-1,1,-2,1,0,0,-2
1558440498805246,0,-3,-2,-1,-1,-1,-2,-3
1558440498806348,0,0,-1,0,1,0,-1,0
1558440498806348,-2,-2,-3,-2,0,1,1,-1
1558440498818905,1,0,1,-1,0,0,0,1
1558440498818905,-4,3,2,1,-3,-1,1,1
1558440498827568,0,-1,-1,-1,-2,-1,0,-1
1558440498827568,4,6,7,-2,2,2,1,1
1558440498842644,-2,-1,1,-2,-2,0,0,-2
1558440498842644,-1,-1,-8,-3,-2,-6,-3,-3
1558440498842644,-1,-3,-3,-2,-1,-1,-4,-1
1558440498842644,-1,-3,1,2,0,-1,-1,-1
1558440498857935,1,2,-5,0,-2,-1,-3,0
1558440498857935,-2,-3,3,-3,-2,-2,-1,-1
1558440498865306,-1,0,2,1,0,1,1,-1
1558440498865306,-1,-1,-4,0,-2,-2,0,-2
1558440498878912,3,0,2,0,-1,1,-1,2
1558440498878912,-1,0,-5,-3,0,0,0,-2
1558440498887284,1,-1,1,-1,0,0,1,-1
1558440498887284,-2,0,-1,-1,-3,-5,-3,-1
1558440498902227,0,-2,2,-2,0,-1,1,-1
1558440498902227,-2,-3,-1,-1,1,0,2,0
1558440498902814,-5,-3,-4,-1,-3,-2,-3,-1
1558440498902814,-2,0,-2,-1,-1,1,1,0
1558440498916169,2,2,5,1,0,-2,2,1
1558440498916169,1,-1,-7,-1,-1,-3,-4,-4
1558440498932107,0,0,5,0,1,1,0,1
1558440498932107,0,-2,-3,-3,0,-2,-1,1
1558440498938719,-4,-7,-1,-3,-1,1,-2,-1
1558440498938719,0,0,1,0,-3,0,1,0
1558440498947071,-1,-2,-3,-2,-2,-1,0,-2
1558440498947071,-1,1,0,0,0,2,1,1
1558440498962388,0,3,0,3,0,-1,-1,1
1558440498962388,-2,-7,-1,0,2,0,-2,-1
1558440498962388,-2,0,-2,-1,-3,-3,-2,-1
1558440498962388,-1,-2,0,0,-2,0,-3,-3
1558440498985686,-1,-4,0,-2,-1,0,1,0
1558440498985686,-1,-1,1,-1,-1,-1,1,0
1558440498985686,-2,-1,-1,-2,-2,0,-1,0
1558440498985686,0,-1,3,-1,-1,0,1,-1
1558440499007607,-2,0,-3,-4,-2,-1,-1,-1
1558440499007607,0,0,0,-1,-2,-2,0,-1
1558440499008273,0,-1,0,0,2,2,0,-1
1558440499008273,-5,-4,-5,-5,-1,-4,-6,-2
1558440499022546,-2,-2,-4,-1,-1,1,-1,-2
1558440499022546,-1,-2,-2,-1,-2,-2,1,0
1558440499022546,0,0,-1,0,-2,-5,-2,-1
1558440499022546,1,-1,-1,-1,1,1,0,-2
1558440499036507,-1,-1,2,1,-1,-2,-1,0
1558440499036507,-3,0,-2,-2,-3,0,-2,-1
1558440499044480,-2,-1,-5,-5,-3,-2,0,-3
1558440499044480,1,0,-2,3,0,0,1,0
1558440499059444,-4,-4,-2,-6,-2,-3,-3,-2
1558440499059444,-1,0,2,4,-1,1,-2,-1
1558440499067113,-2,-2,-3,-4,-3,-1,-1,2
1558440499067113,0,-3,-1,-2,-3,-4,-2,-2
1558440499082074,-4,-3,-5,0,1,0,-1,-2
1558440499082074,-3,-2,1,-2,0,1,-1,0
1558440499082074,1,-1,0,2,0,-2,-3,-2
1558440499082074,-2,-1,1,3,1,0,-2,0
1558440499096033,2,0,1,-2,1,0,-1,1
1558440499096033,-1,-2,-1,-1,0,-2,-2,-2
1558440499104047,-3,-1,-2,2,2,0,2,-1
1558440499104047,-1,1,-1,-4,-1,-1,0,-1
1558440499118972,1,0,-1,-1,-1,-2,-1,0
1558440499118972,-1,0,-1,1,1,-3,0,-1
1558440499133932,-3,-2,-1,1,0,1,0,-2
1558440499133932,0,-1,-4,-8,-2,3,1,-1
1558440499141910,-2,-2,-5,-2,-4,-6,-4,-3
1558440499141910,1,1,-1,0,-2,-1,-2,-2
1558440499142907,0,-2,-1,-1,-1,-2,-2,-1
1558440499142907,-1,-1,-2,4,-1,-1,-1,0
1558440499157907,1,1,2,0,0,2,0,-1
1558440499157907,-1,-1,-6,-7,-3,-3,0,1
1558440499165172,-3,-3,-1,2,-2,1,1,-1
1558440499165172,-1,-2,-7,-7,-3,-1,-2,-2
1558440499179165,-2,0,-1,2,-1,-2,0,-1
1558440499179165,0,-3,3,1,2,1,0,0
1558440499187144,2,2,0,-1,2,-1,-1,-1
1558440499187144,-1,0,6,8,0,-1,-2,1
1558440499210189,-3,-3,-4,-5,-2,-3,-6,-3
1558440499210189,-2,-2,-6,-6,-2,0,-1,-2
1558440499211732,1,-2,5,1,0,-3,-2,-1
1558440499211732,-2,1,0,-1,-2,-1,-4,-2
1558440499215718,0,-2,2,3,2,-1,-1,-2
1558440499215718,-2,1,0,4,-1,0,0,-1
1558440499232698,2,2,-6,-11,-4,-1,0,0
1558440499232698,1,1,5,0,0,0,1,0
1558440499239011,-2,-3,-4,0,-1,0,-1,1
1558440499239011,1,-3,3,0,1,-3,-3,-2
1558440499247636,-2,-2,-1,-4,-2,-1,-1,0
1558440499247636,1,-1,1,-3,-2,-2,-3,0
1558440499262588,0,1,1,0,-1,1,1,2
1558440499262588,-2,1,1,0,-1,1,1,0
1558440499262588,0,0,-1,2,-2,-2,-2,0
1558440499262588,0,2,-1,1,1,-1,0,-3
1558440499284531,-3,-1,1,-3,0,1,0,0
1558440499284531,-3,-4,-4,-2,-2,-2,-4,-2
1558440499285528,-3,-2,-1,0,1,2,0,-2
1558440499285528,1,0,-1,5,1,-3,-1,0
1558440499298530,0,-1,-1,-6,-2,0,0,1
1558440499298530,0,1,-1,1,0,-2,-1,0
1558440499306505,-2,0,0,0,0,0,-1,-2
1558440499306505,1,-1,-1,2,0,0,1,0
1558440499321733,-3,-1,-5,-9,-3,-3,1,0
1558440499321733,0,-2,1,1,1,0,0,0
1558440499322428,-2,-4,-3,-8,-3,1,-1,-2
1558440499322428,-1,-2,1,2,-1,-3,-2,-1
1558440499336391,1,-1,5,2,0,-1,-3,-1
1558440499336391,0,0,1,1,-1,0,2,2
1558440499344371,-2,-1,0,2,1,-3,-2,-1
1558440499344371,-2,-3,-2,-4,-1,0,0,-2
1558440499359366,1,2,2,8,-2,-2,-2,0
1558440499359366,1,2,-1,-3,0,0,0,0
1558440499366311,-2,1,-1,0,-1,-2,1,-1
1558440499366311,-3,-3,1,-1,0,-1,-1,-2
1558440499382633,-4,-6,-22,-19,-7,-4,0,-2
1558440499382633,1,-1,3,3,0,-2,-2,0
1558440499382633,1,2,2,0,1,1,-1,1
1558440499382633,1,-1,0,-5,-4,-3,0,0
1558440499413185,1,1,-1,4,1,0,0,-3
1558440499413185,-1,-3,-1,-3,-1,-2,0,-1
1558440499413185,-1,-1,-1,-1,-1,1,-1,1
1558440499413185,-2,-1,-3,-4,-1,-2,-1,-3
1558440499419531,0,1,4,2,1,0,0,-1
1558440499419531,-2,-2,-1,-2,-4,-3,-3,-2
1558440499434130,-2,-2,-1,3,1,0,-1,0
1558440499434130,-4,1,-1,2,1,1,1,-1
1558440499442217,0,1,-3,-2,-1,-2,1,0
1558440499442217,-1,2,4,7,0,-1,-2,-1
1558440499443240,0,-1,-1,-6,0,1,0,0
1558440499443240,-2,-6,-3,-5,-3,-3,-3,-3
1558440499456503,-4,0,-5,1,-1,0,-2,-2
1558440499456503,-1,2,-2,-2,-1,0,1,-2
1558440499465278,0,-1,-4,2,-3,-4,-2,-3
1558440499465278,-3,-6,1,4,-1,2,0,0
1558440499486988,-2,-1,4,1,0,2,1,-1
1558440499486988,1,-4,-7,-7,-3,-2,-3,1
1558440499487987,-1,-3,0,-4,0,0,1,0
1558440499487987,-1,1,-1,2,-1,-3,-2,-1
1558440499501951,0,0,-4,-4,0,0,0,-3
1558440499501951,1,0,4,2,-1,-2,-1,-1
1558440499501951,0,0,-4,-2,-2,-2,-3,0
1558440499501951,0,2,1,-5,0,-2,-1,-2
1558440499516119,-1,-1,-1,1,1,0,0,-1
1558440499516119,-4,-2,-1,-3,-4,-1,-2,-2
1558440499524977,0,-1,0,1,0,-1,0,-3
1558440499524977,1,4,-4,-2,-1,0,-2,1
1558440499539163,2,2,-1,9,0,-1,-1,0
1558440499539163,-3,-6,-1,-9,0,0,1,0
1558440499547157,-4,-6,3,0,0,-1,-2,0
1558440499547157,0,3,-4,-2,-1,1,-1,-1
1558440499561834,-2,-1,4,2,1,-1,-2,0
1558440499561834,-1,0,-1,0,1,-1,0,-1
1558440499570092,-2,-1,-2,2,0,0,0,-1
1558440499570092,1,-3,-5,-3,-3,-2,-1,-1
1558440499576070,3,6,0,-1,-2,-1,-1,0
1558440499576070,-2,-6,0,-3,1,1,1,-2
1558440499584977,-3,0,-10,-2,-4,-4,-4,-1
1558440499584977,-1,2,-2,-2,0,-2,-2,-3
1558440499599012,-1,0,6,2,0,-2,-1,0
1558440499599012,0,0,-7,-3,-1,1,-3,0
1558440499606982,-2,-1,1,1,1,0,0,-1
1558440499606982,-2,-4,-1,-2,0,-2,0,0
1558440499621880,-2,-4,1,-1,-1,1,1,-1
1558440499621880,-2,1,-3,1,-2,-3,0,-2
1558440499637852,-2,0,-1,-2,-3,-1,0,0
1558440499637852,0,-3,2,5,-1,-1,0,0
1558440499638584,-4,-5,-3,-10,-1,0,0,-1
1558440499638584,3,5,2,-3,-2,-2,-2,0
1558440499644846,1,4,-3,3,-2,-2,-2,-2
1558440499644846,-1,-2,-3,-7,-1,0,-1,1
1558440499659528,-1,-3,-1,0,-1,-3,-5,-1
1558440499659528,-2,-3,-3,0,0,2,0,-3
1558440499666508,0,-2,2,-1,0,-2,1,-1
1558440499666508,1,1,1,0,-1,0,-2,1
1558440499690445,-1,-3,-2,1,-2,-1,-2,-2
1558440499690445,-1,-2,-1,-3,-2,-3,-1,-1
1558440499690445,1,3,-3,2,-1,1,1,-1
1558440499690445,-3,-2,2,2,1,0,0,0
1558440499696428,2,0,-3,-7,-3,-1,-1,0
1558440499696428,-2,0,-1,-1,-1,-2,-1,-1
1558440499711389,0,0,0,-2,-1,0,-2,-1
1558440499711389,-3,-2,0,0,-5,-3,-4,-2
1558440499718371,1,-1,1,-1,-1,1,1,0
1558440499718371,1,0,1,4,2,0,0,-3
1558440499727664,-2,-3,0,-2,0,0,0,-1
1558440499727664,-3,-1,-2,-2,-1,-1,0,-3
1558440499741658,0,-1,4,6,0,-1,-2,1
1558440499741658,-1,-3,-10,-8,-4,-2,-2,-1
1558440499749286,1,-1,1,2,1,1,-1,0
1558440499749286,1,0,-1,-5,1,1,1,0
1558440499765243,-1,0,-5,-1,-2,-2,-1,-1
1558440499765243,0,1,5,3,0,-1,-1,2
1558440499765243,-2,-2,-2,-1,-2,0,-1,-2
1558440499765243,2,-2,-1,-1,-1,-2,-2,-2
1558440499787183,-2,-1,-2,-5,-3,-3,-2,-1
1558440499787183,-2,-4,-5,-5,-2,0,-1,0
1558440499788182,-3,-4,0,-4,-2,-2,-3,-2
1558440499788182,0,0,1,2,1,-2,1,-1
1558440499801176,2,3,1,1,3,0,-2,0
1558440499801176,-2,-6,3,4,0,-2,1,-1
1558440499809127,-3,-1,-5,-6,-1,0,1,1
1558440499809127,2,2,0,-1,0,1,1,-1
1558440499825087,-6,-21,-3,-5,-1,-2,-2,-2
1558440499825087,-2,2,0,5,0,-1,-3,-1
1558440499826082,3,1,8,0,2,-1,1,1
1558440499826082,-3,-3,0,-3,-3,1,-2,-2
1558440499839045,-2,0,-7,0,0,0,0,-1
1558440499839045,1,3,2,-1,-2,1,-1,0
1558440499847024,0,-4,-3,-4,-2,-3,-3,-3
1558440499847024,1,4,-2,1,-2,-1,-1,-2
1558440499861984,0,1,2,2,-1,-1,-1,0
1558440499861984,-1,-1,-10,-9,-2,-2,-1,0
1558440499870128,2,4,-4,1,-2,0,-2,0
1558440499870128,-1,-3,-2,-1,-2,0,-1,0
1558440499885263,0,0,0,-1,-2,0,1,-4
1558440499885263,0,-1,4,0,1,2,2,1
1558440499885923,-1,0,-1,2,-2,-3,0,0
1558440499885923,0,-3,2,1,-1,0,0,-1
1558440499898885,-2,1,-1,1,1,-4,-4,0
1558440499898885,-1,1,-3,-8,-3,-1,-4,-3
1558440499907221,-1,0,0,1,-1,2,-2,0
1558440499907221,-3,-2,-3,-2,-1,-3,-3,-1
1558440499921955,0,3,2,0,0,0,0,-1
1558440499921955,-2,-2,-1,6,0,1,-1,-2
1558440499930111,-1,-4,-4,-2,-1,-4,0,0
1558440499930111,-3,-1,-1,-2,-2,-3,-2,-1
1558440499945579,0,-1,2,0,-1,0,1,-1
1558440499945579,-1,-2,0,1,-3,-3,-2,-3
1558440499946228,0,2,-3,-3,0,1,0,0
1558440499946228,-4,-4,3,-1,2,2,-1,0
1558440499959343,-2,3,-2,1,-1,0,-1,-2
1558440499959343,-1,0,0,1,0,0,2,0
1558440499967171,1,1,-2,-5,-1,0,-1,-1
1558440499967171,-2,-4,-10,-1,-2,-4,-3,-2
1558440499981385,-2,0,1,-3,-2,-1,-1,-2
1558440499981385,-1,-3,-1,3,-1,-1,-2,0
1558440499989358,-2,-4,0,2,-1,0,-2,0
1558440499989358,0,-1,2,-1,-1,-3,-2,1
1558440500004076,-3,-3,-4,0,-1,-2,0,-1
1558440500004076,-2,-5,-3,-9,-3,-1,0,0
1558440500005073,-1,-2,1,1,-1,0,-1,0
1558440500005073,1,-3,0,-1,-1,0,0,1
1558440500019032,1,0,-1,2,-1,-2,-1,0
1558440500019032,-2,0,-1,-2,-1,-3,-2,-2
1558440500027226,-1,-1,-3,-3,-1,-1,-2,-2
1558440500027226,-1,0,-1,-3,0,4,2,-2
1558440500041977,1,-1,1,1,-1,-4,-2,1
1558440500041977,-1,1,-3,1,-2,-2,-3,-1
1558440500049233,-1,0,2,4,-2,0,-3,-2
1558440500049233,-1,-1,-5,-13,-3,-3,-1,-3
1558440500064911,0,-1,0,0,0,1,0,3
1558440500064911,-2,-2,-3,-2,0,-1,-3,-2
1558440500064911,1,-3,1,1,1,-2,0,-1
1558440500064911,0,2,2,6,0,-1,1,-1
1558440500079093,0,-1,-2,-4,-1,-1,0,-3
1558440500079093,2,0,2,2,1,0,0,0
1558440500087046,-3,-1,0,1,0,-1,-1,0
1558440500087046,-3,-1,-3,0,-1,-1,-2,0
1558440500100819,-1,-2,1,-4,0,1,0,0
1558440500100819,1,1,-2,2,-2,-1,0,-1
1558440500109791,-3,-3,-3,-3,-1,0,-1,-2
1558440500109791,-1,-1,-1,-4,0,-1,0,0
1558440500124752,-1,-1,0,0,0,-1,-1,-1
1558440500124752,0,-2,0,3,-1,-1,1,1
1558440500124752,-3,-2,-2,-5,1,1,0,-2
1558440500124752,-1,-2,0,-1,-1,1,-1,2
1558440500138712,1,2,1,-1,-1,-2,-1,0
1558440500138712,-4,-4,-5,-4,-1,-1,-3,-5
1558440500146691,1,0,-1,3,0,-1,0,0
1558440500146691,0,0,0,0,-2,-2,-2,-1
1558440500160653,-1,-1,-4,-5,-2,-1,-1,-1
1558440500160653,-2,0,0,0,0,1,0,0
1558440500169629,-1,-1,-1,-3,-1,-1,-2,0
1558440500169629,1,0,0,6,0,-2,-4,-4
1558440500183594,0,1,0,-3,-1,-2,-2,-1
1558440500183594,3,8,2,7,0,-2,-2,0
1558440500192569,-2,-2,-3,-6,-3,-4,-1,0
1558440500192569,1,1,-2,-4,-2,-1,0,0
1558440500198925,-3,-3,2,-2,-1,0,-1,-1
1558440500198925,0,1,-1,-4,0,1,0,0
1558440500207569,-1,-1,0,2,1,0,0,-1
1558440500207569,-3,-2,-2,-2,1,-2,0,-2
1558440500221853,0,-2,-2,0,-1,0,-3,-2
1558440500221853,-1,-5,-4,-1,-1,-1,-1,0
1558440500230467,-1,-1,2,-1,-4,-2,0,0
1558440500230467,-3,-5,-7,-3,-2,1,0,-3
1558440500252623,-4,-3,0,2,-1,0,-3,-3
1558440500252623,-2,-2,3,0,-3,-2,-1,0
1558440500253410,1,0,0,-5,-3,1,0,-2
1558440500253410,-1,-2,-1,3,0,-1,-3,-2
1558440500258394,1,0,-2,-1,-2,-4,0,-2
1558440500258394,-1,-1,1,-2,-1,-1,-3,-1
1558440500267369,-3,-3,-4,0,-3,-1,-3,-1
1558440500267369,0,-1,1,1,-1,1,3,0
1558440500281546,-2,-3,-2,-2,-2,2,-2,-1
1558440500281546,-1,-2,0,-1,-1,-2,-2,-1
1558440500290306,1,0,1,0,0,-1,0,0
1558440500290306,1,-2,0,-1,-1,-1,-2,0
1558440500304358,-2,-3,-2,-2,0,0,0,1
1558440500304358,0,-1,-1,-2,0,-1,2,0
1558440500312248,-3,-3,-2,-1,-3,-1,0,-3
1558440500312248,0,0,1,-3,-1,2,-1,-1
1558440500318232,0,-1,2,-2,-2,-3,0,0
1558440500318232,-3,-3,-4,-1,0,0,-4,-1
1558440500327208,-1,2,1,-2,-1,-2,-1,0
1558440500327208,-4,-2,-2,-3,-2,-1,-3,-2
1558440500341173,-1,-4,-2,0,-3,-3,-2,-1
1558440500341173,1,-1,2,-2,-1,0,-1,0
1558440500350147,0,1,-2,0,0,-2,-1,0
1558440500350147,-4,-2,-3,-1,-3,-4,-4,-2
1558440500364242,0,2,1,1,-1,1,0,1
1558440500364242,-2,0,0,1,-1,-2,-1,-2
1558440500372305,-2,-7,-8,-8,-4,-3,-3,-3
1558440500372305,-1,0,-3,-3,-2,0,-2,-1
1558440500379253,-2,0,-1,-3,0,0,-1,1
1558440500379253,0,-2,-2,-1,0,-1,1,-1
1558440500387266,1,2,3,3,0,-2,-1,0
1558440500387266,2,0,1,0,0,-2,-1,0
1558440500401016,-1,-2,-4,-2,-1,1,1,-1
1558440500401016,-2,0,1,-1,0,1,-2,-2
1558440500410034,-1,-1,-2,0,0,-2,0,-2
1558440500410034,2,-1,-1,-1,0,1,-2,-1
1558440500423952,-2,-1,-2,0,0,-2,-2,-1
1558440500423952,0,-2,1,-1,0,-3,0,2
1558440500432928,-5,-2,-2,1,0,0,-3,-3
1558440500432928,-4,-1,-3,-2,-3,-2,-2,-1
1558440500438944,0,3,0,0,-1,-1,0,-1
1558440500438944,-3,-1,-6,-2,-1,0,0,-3
1558440500447885,2,-1,-2,-2,-1,0,0,1
1558440500447885,1,-3,-1,1,1,1,0,-1
1558440500461852,-2,-2,0,1,-2,-2,-3,-2
1558440500461852,0,0,0,-3,-2,-2,-1,-2
1558440500469828,1,0,0,0,-1,1,1,-1
1558440500469828,-1,2,0,2,-1,1,1,1
1558440500483793,-1,-2,-3,-4,1,-1,1,-1
1558440500483793,-2,1,-2,-3,0,-2,-2,-2
1558440500492766,-1,-2,0,1,-1,-2,-2,-1
1558440500492766,-2,0,2,-1,-2,0,1,1
1558440500507906,-1,-1,-2,1,-1,1,-1,-1
1558440500507906,1,1,1,1,-1,0,2,0
1558440500508725,-4,-1,-2,-3,-1,-3,-1,-1
1558440500508725,-2,-2,0,-3,0,-1,-2,2
1558440500529671,-2,-2,-1,-1,-1,-2,-1,-2
1558440500529671,0,0,1,1,1,2,2,-1
1558440500531662,-1,1,-3,-2,-1,-2,-2,-1
1558440500531662,-2,1,3,-1,-1,-1,-1,-1
1558440500543880,1,-1,1,0,-2,1,-3,-1
1558440500543880,-1,-3,-4,-3,-3,-3,-4,-1
1558440500552605,2,0,0,-2,-1,0,-2,-1
1558440500552605,0,-2,-2,0,0,-2,-1,-1
1558440500558590,-2,1,1,1,1,-2,0,0
1558440500558590,-1,-3,-2,-2,-2,0,-2,-2
1558440500567565,-2,-1,-4,-3,-1,0,0,-1
1558440500567565,2,1,-4,0,0,-1,-1,0
1558440500581528,-2,-4,-3,-3,-3,-2,-3,-3
1558440500581528,0,-2,0,0,-1,-2,1,-1
1558440500589505,-1,-2,2,1,1,2,-1,-1
1558440500589505,-1,-2,3,0,0,-2,-2,1
1558440500603958,1,0,-6,-5,-1,-3,-1,-1
1558440500603958,-1,-2,-2,-3,-2,-2,-2,0
1558440500612655,-1,-1,-1,-1,-1,-1,0,-1
1558440500612655,-3,0,-3,-2,-3,0,-1,-2
1558440500619580,-1,-1,-1,-1,1,-1,-1,-1
1558440500619580,-3,-1,-2,0,1,0,0,-2
1558440500627764,0,1,1,-1,-2,0,0,0
1558440500627764,0,-2,-1,-2,0,-1,-1,-2
1558440500641370,1,-1,0,-2,-2,-3,0,0
1558440500641370,1,-2,-5,-2,-2,-4,0,0
1558440500650345,-1,0,-1,1,0,-2,-2,0
1558440500650345,-1,-3,-3,0,-2,-4,-2,-1
1558440500664516,-1,0,1,-2,-2,2,-2,-2
1558440500664516,-1,-1,1,0,0,2,-1,0
1558440500672642,-2,-2,-2,-3,-2,-3,-2,-2
1558440500672642,-1,-1,1,0,0,0,2,-1
1558440500687246,1,1,-1,-1,-2,0,0,-1
1558440500687246,-1,-1,-2,-4,0,-1,-1,-2
1558440500689240,-4,-2,2,2,-2,1,-4,-2
1558440500689240,0,-1,-3,-3,0,0,-1,-3
1558440500701481,-1,-1,0,1,-1,-1,-1,-1
1558440500701481,-1,-1,2,1,0,0,0,-1
1558440500710185,0,-1,-2,-2,0,-2,0,1
1558440500710185,0,1,2,-1,-1,-1,1,1
1558440500723402,1,-1,1,-1,0,0,-1,-1
1558440500723402,-2,-1,-2,1,-2,0,-4,1
1558440500732410,0,-1,-2,0,-2,-1,-1,1
1558440500732410,0,-1,-2,-2,-1,0,-1,0
1558440500747114,-1,-2,1,1,0,-3,1,1
1558440500747114,0,-3,-2,-4,-1,-1,-1,-3
1558440500749079,0,-1,-1,-1,-1,-2,-2,-3
1558440500749079,-3,-4,-3,0,-4,-3,-4,0
1558440500761048,-2,-1,-2,-1,0,-1,-3,1
1558440500761048,0,1,1,0,-1,-1,0,0
1558440500770023,-1,-1,-1,-2,-2,0,0,0
1558440500770023,-1,0,0,1,-2,0,-2,-1
1558440500783985,-1,-1,-2,0,-1,0,1,-1
1558440500783985,-1,-1,-1,-3,-1,-1,-1,-2
1558440500792721,1,-2,-2,-1,1,0,-1,0
1558440500792721,0,-1,0,-2,-1,-1,0,-1
1558440500807743,-2,-1,1,-2,-1,-3,-1,-2
1558440500807743,-1,-1,0,2,0,-1,-1,-3
1558440500808419,0,1,-1,0,-1,1,-1,0
1558440500808419,-3,0,-2,-3,-1,-2,-1,-1
1558440500821385,0,-2,-2,-1,-1,3,-1,0
1558440500821385,-1,0,-1,-1,-1,1,1,1
1558440500830386,1,0,1,-3,-2,-1,1,-1
1558440500830386,2,-2,-2,1,-1,-2,-2,-2
1558440500843325,-5,-5,-3,-1,1,-2,-3,-5
1558440500843325,-1,-2,-1,0,-2,-1,-1,-1
1558440500852301,-1,-2,0,-2,1,-1,-1,-1
1558440500852301,-2,-1,1,1,1,0,-1,0
1558440500867288,-1,0,-2,-1,0,-3,2,-1
1558440500867288,-1,0,0,-1,-2,-3,-3,-1
1558440500869254,-1,-2,-1,0,-1,-5,-4,-2
1558440500869254,-1,0,0,-1,-2,1,-1,0
1558440500881224,0,1,-1,-1,0,-1,-2,-1
1558440500881224,1,-2,-2,-1,1,-1,-1,-1
1558440500890199,1,-1,-1,1,-2,0,3,0
1558440500890199,-1,-2,-1,-2,0,0,0,-1
1558440500903164,0,0,-4,-1,-2,-1,0,0
1558440500903164,-1,0,0,0,-1,-1,0,2
1558440500912171,0,0,0,1,-1,0,0,-1
1558440500912171,0,-1,-1,-3,-3,-2,0,-1
1558440500927100,-2,0,0,-2,1,2,1,-1
1558440500927100,-4,-1,-1,0,-2,-2,-2,-1
1558440500929128,-1,0,2,-2,1,-1,-3,-2
1558440500929128,0,-3,-1,-1,0,-1,0,-1
1558440500941062,-1,-1,1,0,-3,-2,-5,-1
1558440500941062,2,1,1,-3,-1,-1,-1,-1
1558440500950039,-2,-2,-3,-1,0,0,0,0
1558440500950039,-1,-1,-3,0,-1,-1,0,-2
1558440500964003,0,-1,0,-1,0,-2,0,-1
1558440500964003,-1,-1,-2,-3,0,0,1,-2
1558440500972983,-3,-3,-3,-1,-2,-1,-1,-3
1558440500972983,0,1,-2,0,-1,-1,-1,0
1558440500987938,0,-1,0,-1,-1,1,0,1
1558440500987938,-2,-3,-1,0,-1,-1,-1,-1
1558440500988935,0,-2,-1,0,-2,-2,-2,0
1558440500988935,-2,-3,0,-3,0,-1,-2,0
1558440501000904,0,0,-2,-1,-1,0,0,0
1558440501000904,-1,1,1,0,2,0,-1,0
1558440501009886,-1,0,-1,-3,-1,-2,-3,-1
1558440501009886,-4,0,-1,1,3,0,0,-2
1558440501024092,-1,-1,-2,-3,-2,0,0,0
1558440501024092,-2,-2,-3,-1,-1,-2,-2,0
1558440501032818,-1,0,0,-2,-3,0,-1,-2
1558440501032818,-1,-1,-3,-1,-3,-3,-1,0
1558440501047777,-1,-1,-2,-1,0,0,-3,1
1558440501047777,0,1,-3,-3,-1,-1,-1,0
1558440501048774,0,1,-1,0,0,-1,1,0
1558440501048774,-1,-2,0,0,-2,-2,-3,-2
1558440501060743,-2,-3,-1,-3,-2,-1,1,-1
1558440501060743,-1,-3,0,-2,0,-2,-2,-1
1558440501069718,-2,-2,-2,-1,-2,1,0,-2
1558440501069718,-1,0,-3,0,1,2,1,0
1558440501083684,0,-1,-1,-1,-1,-4,0,-1
1558440501083684,0,0,1,-2,-2,0,-2,-2
1558440501092657,0,-1,-2,-1,0,0,0,-3
1558440501092657,-1,-2,-1,-2,-1,-2,-1,-1
1558440501107647,-3,-2,-4,-2,1,1,-1,-4
1558440501107647,-1,-2,-1,-1,-2,-5,-1,0
1558440501108614,-1,-1,-2,-2,-1,-2,-2,0
1558440501108614,-1,0,-1,-2,1,-2,-3,0
1558440501120582,-1,-2,-1,2,0,-2,-2,0
1558440501120582,-1,-1,-2,-1,-4,1,-3,-1
1558440501129567,-1,0,1,0,0,0,1,2
1558440501129567,0,-1,0,-1,-1,-3,-1,-2
1558440501143522,0,0,-1,2,-1,-1,-2,-2
1558440501143522,0,-1,-1,-1,-1,-3,-2,-1
1558440501152497,-2,-4,-2,-2,2,-1,-3,-1
1558440501152497,2,0,0,1,0,-1,0,-2
1558440501167461,-3,-3,-2,-1,-2,0,-2,0
1558440501167461,-1,-1,2,0,-1,-2,-1,0
1558440501168465,-1,1,-3,-2,-2,2,-2,1
1558440501168465,-2,-2,0,1,-2,-1,-2,-1
1558440501181454,-1,-2,-1,-1,-1,-1,-2,0
1558440501181454,-1,-1,-1,0,2,2,2,-1
1558440501190397,0,-2,0,3,-2,-3,1,-1
1558440501190397,0,-2,-3,-4,-2,-3,-1,-2
1558440501203361,1,-1,-1,-3,-2,-3,-2,-2
1558440501203361,-1,-2,-1,1,-1,0,0,-1
1558440501212336,-1,-3,-1,-2,-1,0,1,-1
1558440501212336,0,-2,0,0,-1,0,-2,-1
1558440501227297,-1,0,-4,-2,-2,-1,0,0
1558440501227297,-1,-1,1,1,0,2,0,0
1558440501229427,-1,0,0,-2,0,-3,-3,-2
1558440501229427,-1,-2,-1,-3,-2,-1,-2,2
1558440501241270,-1,-2,3,1,-2,-2,0,1
1558440501241270,0,0,-8,-4,-2,-1,0,-2
1558440501250238,-1,-2,0,-2,-1,1,1,0
1558440501250238,-1,0,2,3,0,1,1,-1
1558440501263203,-1,0,-2,-1,-2,1,-1,-2
1558440501263203,1,0,1,-1,-2,-2,0,-2
1558440501272358,-2,-1,-4,1,-2,-4,-2,1
1558440501272358,-1,1,-2,-2,1,-2,0,0
1558440501287147,-2,0,-1,-2,0,1,0,0
1558440501287147,-2,-1,-3,-1,-1,0,-1,-2
1558440501293122,0,-3,0,-2,-1,-1,-5,0
1558440501293122,-1,-4,1,-2,-2,0,-2,0
1558440501301099,1,0,0,-1,-2,0,-1,-2
1558440501301099,-1,-2,-2,0,-4,-2,0,-1
1558440501310077,0,2,1,-1,-4,-4,-1,-1
1558440501310077,-2,-2,-3,-1,0,-2,-1,-2
1558440501324154,-1,0,-1,0,2,0,1,1
1558440501324154,-4,-1,0,-1,2,1,0,0
1558440501332019,-2,-1,-1,-2,-3,2,1,-3
1558440501332019,0,-2,-3,-1,-1,0,-2,-2
1558440501346978,-3,-1,-1,-3,-7,-5,-4,-2
1558440501346978,0,-2,0,-2,-2,0,-3,-2
1558440501353957,0,1,1,2,5,4,2,2
1558440501353957,1,1,-2,-1,3,2,1,1
1558440501360939,-1,-2,-3,0,1,1,1,0
1558440501360939,-2,-2,-3,-3,-2,-2,-2,-3
1558440501369915,0,0,-1,0,-2,-3,-1,0
1558440501369915,0,0,1,-2,-2,-1,0,-2
1558440501383881,-4,-4,0,0,-1,-5,-3,-3
1558440501383881,-1,-3,-1,-2,-2,-2,-2,0
1558440501392853,-1,-1,-1,0,-1,1,-1,-2
1558440501392853,-2,-1,-2,-2,-3,-1,-1,-1
1558440501406818,-4,-3,-2,-3,-4,-2,-3,-5
1558440501406818,0,0,1,2,-1,-1,0,0
1558440501413797,-1,-3,-4,-2,2,0,-1,-2
1558440501413797,-1,-1,-3,-1,-1,-1,-1,0
1558440501420779,0,1,0,1,0,1,2,2
1558440501420779,0,-2,-1,0,0,-1,0,1
1558440501429843,-2,-1,-2,-1,-2,-2,-2,0
1558440501429843,-2,-1,2,-2,-2,-3,-3,-2
1558440501443718,1,-1,-5,-3,0,2,1,1
1558440501443718,0,-3,1,-2,0,0,-1,0
1558440501452694,0,-1,-3,-1,-2,-1,-3,-2
1558440501452694,-1,1,0,1,-2,-1,-1,-1
1558440501466657,2,-2,1,-1,0,-1,-3,-1
1558440501466657,0,-1,-1,-1,-2,-3,-2,0
1558440501473638,-2,-2,1,-1,-1,0,0,1
1558440501473638,-3,-2,-2,0,1,0,0,-1
1558440501480828,0,-1,1,-2,0,-3,1,1
1558440501480828,-1,1,-2,-1,0,-1,0,-1
1558440501489771,0,-2,1,0,0,-2,-3,-1
1558440501489771,1,1,0,-2,-2,-2,-1,1
1558440501503560,1,-1,-3,-2,-1,-2,-1,-3
1558440501503560,-2,0,-5,-1,-1,-1,-2,-2
1558440501512534,-1,0,-2,-1,0,1,2,0
1558440501512534,-1,-2,-1,-2,-2,-3,0,-1
1558440501526719,0,0,1,-2,0,0,0,-2
1558440501526719,1,0,1,0,1,1,1,0
1558440501533479,-1,-5,-4,-3,-2,-1,-3,-4
1558440501533479,1,-1,2,1,-2,-1,-1,2
1558440501541458,-2,-2,1,1,1,-3,-2,0
1558440501541458,0,-2,-1,-1,-1,1,-2,0
1558440501550436,-1,0,1,-2,-3,-2,0,1
1558440501550436,-1,0,-2,0,-1,0,-2,-3
1558440501563399,-2,0,0,-2,-1,-3,-2,-1
1558440501563399,-3,-1,-1,-2,1,-1,-1,0
1558440501572374,1,0,1,-1,-1,-2,0,0
1558440501572374,-1,-2,-6,-4,-1,-1,-2,0
1558440501586412,-1,0,-2,-3,-1,2,1,0
1558440501586412,-5,-2,-2,-1,-2,-3,-2,-3
1558440501594315,-1,-2,-1,0,-3,-4,-3,-2
1558440501594315,0,1,1,0,2,1,3,0
1558440501610274,-1,-1,0,1,0,1,-1,-3
1558440501610274,0,-2,0,0,-1,-1,-2,0
1558440501611269,0,-1,-2,-3,-1,0,-1,0
1558440501611269,0,-1,-1,0,-2,-2,-2,-2
1558440501624259,-2,-3,0,0,1,-1,0,0
1558440501624259,0,0,2,-1,-1,0,1,0
1558440501632216,-2,-2,0,-2,-2,-4,-3,-1
1558440501632216,0,0,-1,-1,-1,-1,0,-1
1558440501647174,-1,1,-1,4,1,0,-2,0
1558440501647174,0,0,1,-1,0,1,0,-1
1558440501654190,-3,0,-4,-3,-1,-1,1,-2
1558440501654190,-4,-2,-4,0,-4,-2,-2,-2
1558440501670403,0,1,-2,-1,0,-5,-3,1
1558440501670403,0,0,-1,-2,0,-2,-1,-2
1558440501671110,1,-2,1,0,1,0,2,-2
1558440501671110,-4,-2,-1,-3,-2,1,0,-2
1558440501684182,0,-2,-2,0,-3,-1,0,0
1558440501684182,-1,-1,0,1,0,-1,-2,-3
1558440501700036,1,0,2,1,0,-2,-1,-3
1558440501700036,0,-1,-5,-3,-1,-2,-2,-2
1558440501707175,1,-1,-3,-3,-2,0,3,1
1558440501707175,0,0,-2,1,-1,-3,-2,1
1558440501713997,0,1,0,0,1,1,0,-1
1558440501713997,-1,-1,2,-1,2,-1,-2,0
1558440501729952,-3,-1,-1,0,-3,-2,-2,-2
1558440501729952,0,-1,0,-1,-1,0,1,1
1558440501730951,-3,-2,-4,-3,-1,-1,-1,-1
1558440501730951,-1,0,-2,-2,-2,-3,-3,0
1558440501743922,-1,-6,-3,1,-1,0,-1,-4
1558440501743922,1,2,0,-2,1,-1,-1,0
1558440501751894,-2,-1,-2,-1,-1,-1,-1,1
1558440501751894,0,-1,1,0,-2,-2,0,0
1558440501766856,-2,-2,-6,-6,-1,1,-1,-1
1558440501766856,-1,-1,-1,-2,1,0,-2,-3
1558440501773839,-1,-1,-2,0,-3,0,-4,-3
1558440501773839,0,-1,-1,0,-1,0,-2,1
1558440501789793,-2,1,0,2,-1,-3,-2,-2
1558440501789793,-3,-4,-3,-2,-3,-4,-3,-2
1558440501791787,0,0,0,0,-2,-4,-1,1
1558440501791787,0,-1,2,-1,1,0,1,-2
1558440501803012,1,0,1,-1,-1,-4,0,-1
1558440501803012,1,-1,-1,-1,-1,-2,1,1
1558440501811995,-1,-3,-4,-3,-1,-1,0,-2
1558440501811995,-3,0,0,0,1,-2,0,-2
1558440501825950,1,0,1,-2,1,1,-1,1
1558440501825950,-3,-2,-2,0,-3,1,0,2
1558440501834926,-1,-2,-1,-1,1,1,1,-2
1558440501834926,-1,-2,-2,0,0,-1,0,-1
1558440501849890,-1,1,1,0,-1,0,-3,1
1558440501849890,-3,-3,-1,-1,-1,0,0,-2
1558440501850886,-2,-2,-3,-1,-4,0,0,-1
1558440501850886,1,2,-1,0,-2,-3,0,-2
1558440501864099,-2,-3,-6,-4,-1,-2,-3,-1
1558440501864099,-3,-2,-4,-5,-2,-2,-2,-2
1558440501872825,-1,-1,0,0,0,-3,0,0
1558440501872825,0,-2,0,-1,0,1,-2,-1
1558440501885982,-1,-2,2,-1,1,-1,-2,-1
1558440501885982,-1,2,2,2,1,0,-1,-3
1558440501900750,-3,0,0,-3,-4,-1,-1,-2
1558440501900750,-1,-1,-2,-4,-1,-2,-1,-1
1558440501909730,0,-3,-1,-1,-1,1,3,1
1558440501909730,1,2,-1,1,-1,-2,-1,0
1558440501911720,-1,0,0,-2,0,2,1,-1
1558440501911720,0,2,0,0,-1,-3,-1,-1
1558440501923895,-1,1,0,1,0,-2,-1,-1
1558440501923895,0,-4,-5,-3,-2,0,-3,-1
1558440501932666,3,0,3,2,1,1,0,0
1558440501932666,-3,-5,-6,-4,-4,-1,-4,-2
1558440501945630,-3,-2,-3,0,0,0,0,-1
1558440501945630,-2,-1,-1,-2,-2,-5,-2,-4
1558440501954605,-1,-2,-3,-3,0,-2,0,-1
1558440501954605,-2,2,3,2,-1,-1,-1,2
1558440501969570,0,1,-5,0,1,3,-2,-2
1558440501969570,0,0,-2,-2,-3,-3,-2,-2
1558440501971561,-1,-3,-5,0,-4,-3,-1,-2
1558440501971561,1,2,2,4,2,1,1,0
1558440501983534,1,0,0,-3,-3,-2,-1,1
1558440501983534,-1,-1,-1,1,0,1,0,-2
1558440501992504,-2,-2,1,0,0,0,-2,-1
1558440501992504,-1,1,-6,-3,-1,-2,-2,-3
1558440502006467,-1,4,9,4,0,-1,1,0
1558440502006467,1,6,3,4,2,-1,0,0
1558440502014446,-5,-10,-6,-3,-3,-1,-1,-1
1558440502014446,-2,-7,-7,-4,-2,1,-3,-4
1558440502029408,-2,-6,-1,-1,-3,-5,-2,-2
1558440502029408,-1,-3,-2,-2,-1,2,3,2
1558440502031402,1,5,-1,-1,0,-1,0,-1
1558440502031402,2,0,2,3,-1,-2,-2,-1
1558440502043369,-6,-8,-8,-8,-4,-2,-6,-4
1558440502043369,0,-4,4,1,0,-2,-2,0
1558440502052345,-2,2,0,-3,2,1,0,2
1558440502052345,-3,-3,0,-3,-2,-3,-2,0
1558440502066308,-1,3,3,0,0,1,2,0
1558440502066308,-2,-3,-6,-3,-1,0,-1,-2
1558440502075285,-2,-4,-5,-1,-2,-1,-1,-2
1558440502075285,2,1,3,-1,-1,1,1,0
1558440502090244,1,5,3,4,0,-1,0,-2
1558440502090244,1,1,-1,-3,0,1,1,0
1558440502091242,-1,-3,-2,-1,-2,-1,-3,-2
1558440502091242,-1,-3,-3,-3,1,0,-1,-1
1558440502103208,0,-2,-2,-2,-1,2,1,1
1558440502103208,-6,-5,-1,-2,-4,-1,-3,-4
1558440502120164,8,4,1,1,0,0,1,2
1558440502120164,-3,1,5,-2,-2,2,1,1
1558440502126149,1,1,2,-2,-1,0,1,1
1558440502126149,-4,-2,-7,-3,-2,-3,-3,-2
1558440502135123,0,6,9,4,0,-1,0,-1
1558440502135123,-4,-4,-3,-4,-3,-3,-2,-2
1558440502150088,0,4,6,2,1,0,1,1
1558440502150088,0,-2,-8,-5,-3,-3,-1,0
1558440502151081,-4,1,1,-3,-1,1,0,-1
1558440502151081,3,-4,-5,-1,-2,-4,-1,1
1558440502164045,-11,-6,-9,-5,-2,-1,-3,-3
1558440502164045,-1,3,2,2,2,-1,0,-1
1558440502172030,1,-2,-1,2,-1,-2,-1,-1
1558440502172030,-5,-3,-5,-4,-2,-1,-2,-2
1558440502185988,0,3,3,1,-1,0,-1,-1
1558440502185988,0,-2,-4,1,-1,1,-1,-1
1558440502194963,-3,-5,-3,0,-3,-3,-4,0
1558440502194963,0,3,5,2,3,0,0,0
1558440502209925,3,3,3,-1,-1,0,-1,-1
1558440502209925,0,6,6,2,0,-1,0,-1
1558440502210923,-3,0,0,-4,0,2,1,1
1558440502210923,-1,-6,0,0,0,-2,-1,-1
1558440502223886,-3,-8,-5,-2,-2,-2,-2,-2
1558440502223886,2,-1,-1,-3,-3,-1,-1,0
1558440502231865,-3,-5,-2,-6,-1,0,-4,-2
1558440502231865,-2,1,-2,-1,-2,-4,-1,-1
1558440502245828,1,-1,-2,1,1,-1,-1,2
1558440502245828,-1,-1,1,-1,1,-1,0,1
1558440502254806,-2,-3,-4,-1,-2,-2,-1,0
1558440502254806,-4,-5,1,-1,0,4,2,1
1558440502269763,1,-4,-2,-3,-3,-2,-1,-2
1558440502269763,1,1,5,0,3,2,1,0
1558440502271759,-2,-2,-4,-2,-3,-2,-2,-3
1558440502271759,1,0,-1,-1,-2,0,-2,-2
1558440502283727,0,0,1,1,1,2,0,1
1558440502283727,-1,-2,2,0,-3,-1,-1,0
1558440502292702,-1,-3,-3,-2,-3,-6,-4,-3
1558440502292702,1,3,2,0,1,-1,0,1
1558440502306666,-2,-3,-5,-3,-2,-3,0,0
1558440502306666,-1,-2,-2,-1,-2,-2,-1,-1
1558440502314644,-2,-1,0,-3,-1,-4,0,-1
1558440502314644,0,2,0,3,0,1,0,0
