timestamp,emg1,emg2,emg3,emg4,emg5,emg6,emg7,emg8
1558440565464991,-1,-2,-1,-10,1,1,-2,0
1558440565464991,2,-1,-6,-18,-2,-2,-1,-2
1558440565465988,-3,-1,0,17,-1,-3,-2,-1
1558440565465988,0,-1,1,-4,-1,0,-2,0
1558440565465988,0,0,1,-11,-1,1,-1,-2
1558440565465988,-1,-2,-2,15,-2,-6,-5,-1
1558440565468981,-1,1,-1,-6,-2,0,-2,1
1558440565468981,-2,-1,-4,-12,0,0,2,-1
1558440565477956,-1,-2,-4,7,0,4,5,-1
1558440565477956,-2,-1,1,6,-1,1,1,1
1558440565484937,0,1,-1,-10,1,-2,-2,-2
1558440565484937,1,0,1,-2,0,-1,0,-1
1558440565492919,-2,-2,-2,10,-2,-2,-4,0
1558440565492919,-2,-2,3,-5,2,0,-1,1
1558440565506879,-1,-3,-5,-11,-1,1,-1,-1
1558440565506879,-1,-1,-1,8,-1,-1,-1,1
1558440565533806,-1,-1,0,-2,-1,-1,-1,-2
1558440565533806,0,0,1,-5,-1,0,1,-2
1558440565533806,-1,-2,0,2,1,0,0,-2
1558440565533806,0,-1,1,2,-2,0,0,-1
1558440565537796,-1,0,-1,-2,-4,-6,-3,-2
1558440565537796,-2,-1,-4,-7,-3,-2,-1,-2
1558440565544777,-1,-1,0,4,2,5,-1,0
1558440565544777,-1,-1,-1,-1,1,3,0,1
1558440565552755,-1,0,1,-3,-1,-8,-5,-2
1558440565552755,2,1,3,5,-1,0,0,1
1558440565607609,-2,-1,-4,-17,-1,2,-2,-2
1558440565607609,0,-3,-6,-2,-2,1,2,-2
1558440565608607,-2,0,2,10,-2,-6,-3,-2
1558440565608607,-1,-3,-3,-9,2,4,2,0
1558440565613592,1,0,0,-4,-1,-1,3,-1
1558440565613592,-1,0,0,13,-3,-1,-2,0
1558440565613592,-1,-1,0,-7,-1,-2,-2,0
1558440565613592,0,-1,-1,-9,-3,-3,-1,-2
1558440565614590,2,-2,0,13,-2,-3,-3,-1
1558440565614590,-4,-2,-3,-7,-2,-3,-4,1
1558440565626559,2,-1,-1,-9,0,4,3,0
1558440565626559,0,-1,1,4,0,0,-1,-3
1558440565627555,-4,0,1,3,1,1,0,0
1558440565627555,-2,-1,2,-6,-1,-2,-3,-2
1558440565641519,0,-1,-2,-5,-1,-1,0,-1
1558440565641519,-4,-1,-2,7,-4,-7,-5,-2
1558440565648500,-1,-3,0,-2,-1,-6,-2,-3
1558440565648500,2,2,1,-4,4,4,1,-2
1558440565657475,-1,1,-3,4,2,3,2,0
1558440565657475,0,-2,0,0,-2,-1,0,1
1558440565679417,-1,1,-1,-5,0,-4,-2,-3
1558440565679417,-3,-2,-3,-2,-5,-3,-2,-4
1558440565687394,0,-2,0,2,-2,-1,-1,1
1558440565687394,-1,-1,-4,-5,-5,-4,-3,-1
1558440565687394,-2,0,-1,2,0,1,-1,1
1558440565687394,-2,1,1,0,-1,0,0,-1
1558440565702355,-2,0,-1,-3,1,1,-1,-2
1558440565702355,-1,-1,-1,-2,-1,0,-1,-1
1558440565708340,0,-1,-1,4,0,2,1,-1
1558440565708340,-1,-2,-1,-1,1,1,0,-1
1558440565717315,-1,-1,-2,-5,-3,-6,-4,-3
1558440565717315,-2,-1,1,-2,0,-1,1,-1
1558440565740254,0,-2,-1,0,1,4,1,0
1558440565740254,1,-2,2,-2,1,-1,0,0
1558440565741251,-1,-1,-2,2,0,-1,0,-3
1558440565741251,-1,-3,-11,-9,-4,-3,-3,-3
1558440565754216,0,0,1,-1,-1,-1,1,0
1558440565754216,-1,-2,-2,-3,-1,1,1,0
1558440565761198,-2,-2,-3,2,-1,-2,-1,0
1558440565761198,-1,0,3,6,2,1,-2,-2
1558440565778153,0,0,-3,-8,-3,-1,-1,0
1558440565778153,-1,-1,1,0,-2,-3,-2,-2
1558440565779150,-2,-1,1,-2,-3,-4,-2,-2
1558440565779150,0,1,0,-1,0,0,2,1
1558440565808083,0,0,-3,1,0,4,1,-1
1558440565808083,-1,0,1,1,-4,-8,-2,-1
1558440565810068,0,1,1,-2,0,3,0,1
1558440565810068,-2,-3,-6,-2,0,-2,-2,-1
1558440565810068,0,0,2,3,-1,-2,-1,2
1558440565810068,-1,-1,-3,-3,-1,-1,-1,-2
1558440565830016,-1,-4,-2,-2,-1,-1,-1,-2
1558440565830016,-1,0,3,2,0,1,1,-1
1558440565830016,-2,-2,-4,-3,0,-1,-4,-3
1558440565830016,-1,1,-4,-2,0,0,-1,-1
1558440565838004,0,-2,0,-1,0,1,0,0
1558440565838004,-1,0,-1,3,-2,-1,-2,0
1558440565851959,-1,-1,-1,0,0,-1,-3,-2
1558440565851959,0,0,1,-1,0,1,0,-1
1558440565858940,-1,-2,-3,-5,-5,-2,-1,-2
1558440565858940,-2,-1,1,0,1,2,0,0
1558440565865923,0,0,1,-2,-2,-4,0,2
1558440565865923,1,-1,-2,-1,-2,-2,-2,0
1558440565882874,-1,-1,1,-1,-1,1,-1,-1
1558440565882874,0,2,1,-1,-2,0,-1,-2
1558440565888860,-4,-2,-2,1,-3,-5,-3,-6
1558440565888860,-2,0,1,-2,-2,-1,-2,-4
1558440565904815,0,-1,0,0,0,-3,-2,-2
1558440565904815,0,-1,-1,-3,-2,-1,-2,-1
1558440565911796,-1,-1,-1,0,-1,0,-1,-1
1558440565911796,1,-1,-3,1,-2,-1,-1,-2
1558440565918777,-1,-1,0,-4,0,-2,-1,-3
1558440565918777,-1,0,0,2,1,2,1,-2
1558440565926756,2,-1,2,-4,-1,-1,-3,-2
1558440565926756,-1,-3,0,-1,-1,-2,-3,0
1558440565941716,0,0,-3,2,-1,-3,-2,0
1558440565941716,-1,1,0,-4,-2,-3,0,0
1558440565948696,-1,0,0,-1,-1,1,0,0
1558440565948696,-3,-3,-5,-6,-3,0,-1,0
1558440565963657,-1,-1,2,3,4,5,2,1
1558440565963657,-3,-2,-2,-3,-1,-3,-2,-2
1558440565971635,-4,0,1,-2,-4,-3,-2,-3
1558440565971635,0,2,3,2,-1,-1,0,-1
1558440565978617,-1,1,-5,-4,0,0,0,-1
1558440565978617,3,-1,2,1,1,2,2,1
1558440565986596,-3,-3,-5,-4,-6,-7,-6,-2
1558440565986596,-1,0,1,1,2,-1,1,1
1558440566002553,-1,0,0,-3,-2,-2,-1,-2
1558440566002553,-1,-2,-1,-2,-4,-4,-2,-3
1558440566008537,0,-1,0,1,-2,-4,-1,-2
1558440566008537,0,-2,1,-1,1,3,-2,-1
1558440566023496,1,-3,-2,-5,-3,0,0,0
1558440566023496,1,0,-2,-2,-3,-1,-2,0
1558440566032472,0,0,-2,-2,3,3,3,2
1558440566032472,-1,-1,-3,-2,-1,-4,-3,-1
1558440566038456,-1,1,1,3,1,0,-2,-1
1558440566038456,0,-1,-1,-2,-1,-3,-1,-1
1558440566046444,-1,-1,-1,-4,-4,-2,-2,0
1558440566046444,-1,0,-1,0,-1,1,1,-1
1558440566061401,0,-1,0,-1,-5,-4,-2,-2
1558440566061401,-1,1,-1,2,0,-1,-1,0
1558440566069377,-1,0,0,-3,0,3,-1,2
1558440566069377,-3,-2,-7,-1,0,0,-1,-1
1558440566084336,-1,-3,0,-4,-3,-2,-3,-2
1558440566084336,-2,-2,-2,-1,-2,-1,-1,-1
1558440566092314,0,-1,2,3,1,1,2,-1
1558440566092314,-1,-3,-2,-1,-2,-1,-3,-2
1558440566107279,-1,-1,-2,-4,-1,1,1,0
1558440566107279,-1,-1,0,2,1,0,-1,-2
1558440566107279,-1,0,-1,-1,-2,0,-1,-1
1558440566107279,-1,1,1,-3,-4,-6,-2,0
1558440566121311,-2,0,-1,-1,4,3,5,-1
1558440566121311,1,-1,1,1,1,-4,-2,-3
1558440566129215,0,-1,-2,-2,-1,-1,-2,-3
1558440566129215,0,1,2,0,-2,-4,-1,-2
1558440566152203,-1,0,0,2,-2,-4,-3,1
1558440566152203,0,-2,-2,-3,-1,1,0,0
1558440566153153,0,-3,-1,0,-2,-2,0,0
1558440566153153,-1,-3,-1,2,0,-3,-2,-1
1558440566160132,-3,-1,0,0,0,3,0,1
1558440566160132,-4,-2,-3,-4,-3,-2,-2,-1
1558440566166118,1,-1,-4,-1,-2,-4,-6,-3
1558440566166118,0,0,1,2,-1,3,1,-1
1558440566183070,-1,0,-2,-2,-3,-3,-2,0
1558440566183070,0,2,-2,-3,-1,1,1,0
1558440566189054,-2,-1,-1,0,-1,-2,1,1
1558440566189054,-2,0,-1,-1,2,0,0,0
1558440566204013,-1,-1,-2,-2,-2,-3,0,-2
1558440566204013,0,-1,1,2,-1,-1,-2,-2
1558440566210994,0,-1,0,2,1,3,2,-1
1558440566210994,-1,1,-6,-8,-1,-4,-3,0
1558440566219970,-2,0,-2,-2,-1,1,-1,0
1558440566219970,1,-1,1,0,2,3,1,0
1558440566234932,-1,0,1,-2,-2,-5,-2,-3
1558440566234932,-1,-3,1,2,-1,-2,-2,-1
1558440566240914,-2,-3,-2,2,-2,0,0,-2
1558440566240914,-1,-1,-2,-3,-4,-3,-1,1
1558440566248895,-1,-1,-3,-2,-2,0,0,-1
1558440566248895,0,0,-1,1,0,1,0,0
1558440566263854,-1,-1,2,-2,-1,-3,-3,-2
1558440566263854,-5,-3,-2,-3,-2,-4,-4,-4
1558440566271831,1,0,0,-1,0,1,0,0
1558440566271831,-1,-2,-3,0,0,2,0,-1
1558440566279812,0,1,2,3,3,-2,-1,-1
1558440566279812,0,0,-2,-2,1,1,1,-1
1558440566294771,-1,0,-1,-4,-3,-6,-1,-4
1558440566294771,-1,0,0,-4,-3,-1,-2,-3
1558440566309731,0,-3,-2,-1,-1,-1,-4,-1
1558440566309731,0,1,0,4,-1,-5,-1,1
1558440566309731,-1,-2,-1,1,5,3,0,0
1558440566309731,0,-1,2,-2,-2,-1,2,0
1558440566323694,-1,1,0,0,-1,0,-1,-1
1558440566323694,-2,-1,-4,-2,-7,-5,-4,-1
1558440566331672,-2,-1,-2,-4,-1,3,-2,-1
1558440566331672,0,-1,0,-1,-1,2,0,-1
1558440566340648,1,0,-1,0,-3,-5,-5,0
1558440566340648,-1,-2,-1,-2,1,3,-2,-1
1558440566354611,0,-2,-1,-2,-3,-4,-2,-3
1558440566354611,0,0,0,1,0,-2,-1,0
1558440566361593,0,-1,-2,-4,-3,-1,0,-2
1558440566361593,0,-3,1,3,1,3,1,0
1558440566368574,-2,-1,1,-2,1,1,2,0
1558440566368574,0,1,2,1,1,-6,-3,0
1558440566385528,-3,-2,-6,-9,-1,1,-1,-2
1558440566385528,-2,-1,-2,-3,-4,-5,-5,-3
1558440566391513,-1,-1,-1,4,3,3,-1,-1
1558440566391513,-1,-2,0,-4,-1,0,-2,-2
1558440566407470,1,0,0,1,-1,0,-1,-1
1558440566407470,-1,0,0,3,0,2,-1,0
1558440566414450,-3,-1,-5,-6,-4,-7,-3,0
1558440566414450,-3,0,-2,-2,-2,-3,-3,0
1558440566429411,0,0,-2,3,2,1,0,-1
1558440566429411,-1,-1,1,-3,-2,-2,-3,-2
1558440566430408,0,0,0,0,-5,-3,-1,-1
1558440566430408,-1,1,0,0,1,8,7,1
1558440566443373,-1,-3,1,1,1,-1,-1,0
1558440566443373,1,0,-3,-2,0,2,1,-1
1558440566451353,0,0,-2,-2,-3,-7,-5,-1
1558440566451353,-2,-2,-1,-1,-3,-6,-2,-2
1558440566460328,0,-1,2,-1,0,3,1,2
1558440566460328,-1,2,2,2,-1,-3,-3,0
1558440566474290,-1,-2,-1,-3,0,3,0,0
1558440566474290,1,-2,-2,2,-1,1,-2,-1
1558440566481273,-1,0,1,-1,-1,0,-1,-2
1558440566481273,-1,-3,-1,-3,0,2,2,-1
1558440566489250,-1,0,1,3,-1,1,0,-1
1558440566489250,-1,0,0,-1,1,-4,1,-1
1558440566504211,-2,-1,-2,-4,-2,0,0,-1
1558440566504211,-3,-1,-4,-2,-1,0,-2,-2
1558440566511191,-2,-2,2,1,0,2,0,-2
1558440566511191,-1,-1,-2,-5,-1,-5,-1,0
1558440566520167,-2,-1,-4,-4,-1,-4,-1,0
1558440566520167,-2,0,-1,0,0,2,-1,-2
1558440566534130,-1,-1,-4,0,0,-1,-1,-3
1558440566534130,-1,-2,-3,0,-4,-1,-1,-3
1558440566541120,-1,-1,-2,1,-4,-7,-2,-3
1558440566541120,1,1,6,1,3,1,2,3
1558440566549096,-1,0,-2,0,3,2,1,0
1558440566549096,-1,-2,-3,-6,0,2,-2,-2
1558440566572036,-3,-2,-3,-3,-2,-2,-2,-1
1558440566572036,-1,0,0,-4,-3,-1,-4,-3
1558440566573034,-1,0,0,2,0,-3,0,-1
1558440566573034,-1,0,-2,-2,-1,-2,-2,1
1558440566587991,-1,-2,-2,-2,1,3,0,0
1558440566587991,-4,-4,-3,-3,-1,1,1,-2
1558440566594970,1,-2,1,-2,-2,-5,-2,0
1558440566594970,0,0,0,1,1,1,-1,-1
1558440566609930,0,0,2,1,1,-5,-1,-1
1558440566609930,1,-1,-2,2,-1,-1,-1,-1
1558440566609930,-1,0,-1,0,-1,-3,-4,-1
1558440566609930,-2,-2,-3,-2,-2,-3,-1,-2
1558440566640845,-2,0,0,-1,-1,-1,-1,-2
1558440566640845,-1,-3,1,0,0,1,1,1
1558440566641842,-1,0,0,-1,2,5,3,3
1558440566641842,0,-1,-1,-1,-3,-1,-2,-1
1558440566646831,-1,1,0,1,0,3,2,-2
1558440566646831,-1,1,-1,-3,-1,-3,-3,-2
1558440566661791,1,0,0,0,-1,0,-2,-1
1558440566661791,-1,-4,-5,-3,1,2,-1,0
1558440566669771,1,-2,-3,0,-2,-3,-2,0
1558440566669771,-1,0,-2,-3,1,-1,1,-2
1558440566670769,-1,-2,-1,-3,-3,-2,-1,-2
1558440566670769,0,1,1,3,-1,-1,-2,-2
1558440566685726,0,-1,-1,-2,0,3,0,-1
1558440566685726,1,-3,-3,0,-4,-7,-2,0
1558440566691710,-3,0,-2,-2,1,1,-2,0
1558440566691710,-3,-1,2,-1,1,2,1,-1
1558440566706668,-2,-1,-2,-2,-4,-4,-4,-2
1558440566706668,-2,0,-1,3,-3,-5,-5,-2
1558440566714647,-3,-3,0,-3,1,3,4,0
1558440566714647,-2,0,1,-3,-1,0,0,0
1558440566729612,0,0,1,4,2,0,-2,-2
1558440566729612,-1,-2,-3,-5,-4,-7,-2,-1
1558440566730612,0,-1,-2,-8,-1,-2,-2,1
1558440566730612,-3,-1,-3,-1,-2,-2,-2,-2
1558440566743573,-2,-1,-1,-2,-5,-4,-2,-1
1558440566743573,-1,-1,0,0,-1,-4,-3,-1
1558440566751552,0,1,0,0,-1,-5,-2,-2
1558440566751552,1,0,0,2,1,5,2,1
1558440566766516,-2,-1,-2,-1,0,0,-2,0
1558440566766516,-2,-1,-1,0,1,1,1,-1
1558440566774488,2,-2,-2,1,-2,-2,-2,1
1558440566774488,1,1,1,-1,3,-1,-3,1
1558440566789453,-1,1,-1,-3,-1,0,0,-1
1558440566789453,-1,3,-1,-4,-1,6,2,-1
1558440566790445,-3,-2,0,5,0,0,-2,-1
1558440566790445,0,-2,0,-4,-5,-2,-3,-2
1558440566812387,-3,0,0,-3,-1,-2,-2,1
1558440566812387,-3,-3,1,1,-1,0,0,-1
1558440566812387,0,-2,-3,-1,-3,-5,-2,-2
1558440566812387,1,-3,1,1,-1,-6,-3,-1
1558440566826350,1,-1,-2,-2,0,3,2,0
1558440566826350,0,-1,-1,0,-1,3,0,0
1558440566834328,0,0,-1,0,-2,-2,-2,0
1558440566834328,-4,-2,-3,-3,-3,-3,-2,0
1558440566850285,-2,-2,-1,0,-3,-8,-2,0
1558440566850285,0,0,-3,-3,1,-1,1,0
1558440566850285,1,-1,0,-3,-1,-1,-1,-2
1558440566850285,2,2,3,5,3,5,1,0
1558440566864247,-2,-2,0,-2,0,1,1,-2
1558440566864247,-1,-4,-9,-6,-3,-2,-2,-1
1558440566871228,-2,0,-2,0,-4,-8,-6,-2
1558440566871228,0,0,2,-2,2,0,1,0
1558440566887191,1,-3,0,0,-1,0,-2,-1
1558440566887191,-2,-1,0,-2,1,2,0,-1
1558440566894167,-2,0,-2,2,0,0,0,-1
1558440566894167,-2,-1,-2,-2,-3,-7,-3,-1
1558440566909129,1,-2,-6,-3,-1,1,0,0
1558440566909129,-1,-4,2,2,1,0,-1,0
1558440566910125,-1,0,3,3,-1,1,0,-1
1558440566910125,-1,-1,-1,-3,-1,-3,-3,-2
1558440566924094,0,0,1,-1,2,-2,1,0
1558440566924094,1,-1,1,-1,-1,-3,0,1
1558440566931075,-2,-2,-1,0,0,2,2,-1
1558440566931075,-2,-2,-2,2,-2,2,0,-1
1558440566946033,-2,-1,-2,0,-3,0,-2,0
1558440566946033,1,-1,-3,-3,-3,-6,-4,-1
1558440566961992,-1,0,1,-1,1,1,-1,-2
1558440566961992,-2,0,2,2,-1,-3,1,1
1558440566969969,-1,-3,-2,-9,-5,-3,0,-2
1558440566969969,-3,-1,1,0,2,0,1,-1
1558440566969969,-2,-2,-5,-1,0,2,1,0
1558440566969969,1,1,0,-4,-3,-1,-1,-1
1558440566984932,-3,-3,1,2,1,-2,-3,-1
1558440566984932,-1,1,1,0,-1,2,-1,1
1558440566991911,-1,-1,-2,-3,-3,-4,-3,-1
1558440566991911,-1,-1,-1,-2,1,-2,-1,-1
1558440567014855,0,0,0,1,0,0,1,-1
1558440567014855,1,-1,-1,1,0,-1,0,-2
1558440567015845,0,-1,0,-3,-1,3,2,0
1558440567015845,-2,0,-1,-2,-2,-1,-1,-1
1558440567036816,0,-1,-2,-3,-3,-7,-3,0
1558440567036816,-2,0,-1,0,-1,-4,-3,-1
1558440567044764,-1,-3,-4,-5,-1,-3,0,1
1558440567044764,-2,-4,0,-1,0,1,0,-1
1558440567046759,1,0,4,7,2,3,2,0
1558440567046759,-2,0,-1,-6,-2,1,0,-3
1558440567050750,-1,-1,-3,-3,-1,-4,-3,-2
1558440567050750,0,0,0,4,2,3,1,1
1558440567066707,0,0,-4,-1,2,1,3,-2
1558440567066707,-2,-1,-2,-4,-1,-2,0,-2
1558440567074710,0,-1,-1,-1,-3,1,0,-2
1558440567074710,-2,-4,-1,-2,-6,-9,-3,-3
1558440567089651,-4,-3,-2,1,1,2,-1,-1
1558440567089651,0,-1,-3,1,-1,-4,-3,-1
1558440567089651,0,0,0,0,0,2,0,-2
1558440567089651,-2,1,-2,-2,-1,3,1,-1
1558440567111587,0,0,3,-3,-3,-6,-2,1
1558440567111587,1,0,1,6,1,-1,0,1
1558440567112582,-3,-4,-3,-8,-1,-3,-3,-2
1558440567112582,1,-1,0,1,4,3,2,0
1558440567126546,-2,-1,-3,-1,0,-1,-2,-3
1558440567126546,-2,0,-5,-6,-1,0,-1,0
1558440567134583,-1,-1,3,3,2,-2,1,2
1558440567134583,-3,-1,-3,-4,-3,-1,-2,-3
1558440567148548,-3,-3,-3,-2,-4,-2,-1,0
1558440567148548,-1,1,0,-2,3,2,1,1
1558440567165503,0,-1,2,1,-3,-1,0,-2
1558440567165503,-2,-2,-1,-2,-1,-4,-5,-2
1558440567166444,1,-1,-1,0,0,0,-3,-2
1558440567166444,0,0,1,0,-1,1,-2,-3
1558440567171446,-1,-2,-3,-4,-3,-1,0,-2
1558440567171446,0,-3,-3,0,-1,-2,1,-1
1558440567187436,1,1,1,-1,-1,-3,0,-1
1558440567187436,-3,-1,-2,-6,-4,-6,-4,-3
1558440567194375,0,-1,1,3,4,4,1,2
1558440567194375,0,-2,-3,1,-1,-2,-2,-1
1558440567217415,0,-3,3,-2,-2,-2,-2,-1
1558440567217415,-1,-4,-5,-2,-4,0,-2,0
1558440567218305,-3,-2,-3,-5,-6,-3,-5,-4
1558440567218305,0,1,0,-2,-2,-3,-1,-1
1558440567224367,-1,2,2,3,2,-3,0,2
1558440567224367,0,-1,1,2,2,2,1,-2
1558440567240294,1,-1,-1,2,2,-1,-1,-2
1558440567240294,0,-1,1,-5,-2,0,0,-2
1558440567246270,-2,1,-3,-4,-4,-1,-3,-1
1558440567246270,-2,-3,1,1,-1,-2,-1,-1
1558440567270466,1,1,2,-1,0,-2,0,0
1558440567270466,-1,0,-2,1,-2,-4,-4,-3
1558440567272160,-1,-3,-2,-4,-2,2,-2,0
1558440567272160,0,-2,-1,-3,-2,-3,1,1
1558440567277152,-1,-2,1,2,0,-4,-1,-2
1558440567277152,-1,0,-2,-1,0,1,1,2
1558440567284354,-2,0,-4,-5,-3,-1,-1,0
1558440567284354,0,-1,-1,4,0,2,-2,-1
1558440567291153,-2,0,-3,-6,-3,-2,0,-1
1558440567291153,-3,-3,-2,-2,1,1,0,-2
1558440567315041,-2,-5,-3,-3,-2,-1,1,-1
1558440567315041,0,1,4,1,-1,-4,-1,-1
1558440567316038,-1,1,-1,-2,0,-2,-1,-1
1558440567316038,-1,-3,-4,-1,-1,1,0,-2
1558440567329035,-1,-2,-2,3,0,5,0,-4
1558440567329035,-1,-2,-2,-2,-4,-7,-3,-1
1558440567337017,0,-1,0,-1,2,-2,0,-2
1558440567337017,-1,-2,-3,-2,-1,-1,-1,0
1558440567352318,-2,0,-1,0,-2,-3,-1,-2
1558440567352318,-4,-1,-2,-1,0,3,0,-1
1558440567352941,-1,0,-2,-4,-5,-2,-1,-2
1558440567352941,1,3,2,3,4,5,2,2
1558440567367903,0,-2,-1,-2,-2,-3,-1,-1
1558440567367903,1,-2,-5,-2,-2,-1,-4,-3
1558440567374883,-2,-3,0,0,-1,0,-3,-1
1558440567374883,0,0,1,-1,0,-1,1,0
1558440567390089,-1,1,-1,-2,-1,0,-3,0
1558440567390089,0,0,1,2,1,-1,1,-1
1558440567397104,-2,-3,-1,0,0,0,-1,-1
1558440567397104,-1,-1,0,-2,-2,-2,-2,-2
1558440567412075,0,1,1,0,3,2,2,0
1558440567412075,1,-3,-1,0,-1,-2,0,0
1558440567412782,-1,-2,-4,-4,0,0,1,2
1558440567412782,-2,-1,2,3,-1,0,-1,-2
1558440567426747,-1,0,-1,-1,0,-2,-1,-1
1558440567426747,-2,2,0,-1,1,0,0,1
1558440567441707,0,-2,-6,-3,-4,1,-1,-1
1558440567441707,0,-2,-2,0,-1,-3,-4,-2
1558440567448688,-3,-3,0,2,-2,-3,-4,-1
1558440567448688,-1,-1,-1,-3,1,0,1,1
1558440567457760,-2,-2,-3,-1,1,4,0,0
1558440567457760,1,2,1,1,-1,-4,0,2
1558440567471623,1,-1,-1,1,1,-3,-1,-2
1558440567471623,-2,-1,1,-3,-4,-4,-4,-1
1558440567472621,-1,-2,1,0,-1,-1,-4,-3
1558440567472621,-1,-1,0,-4,-3,-2,-4,-2
1558440567495563,1,1,0,-3,1,0,5,1
1558440567495563,-1,0,-6,1,-3,1,0,-1
1558440567495563,1,-1,-2,2,0,-3,-3,-1
1558440567495563,-3,-4,-1,-2,-2,-2,-3,-3
1558440567517500,-1,-3,-2,1,-2,-2,-2,-3
1558440567517500,0,1,-2,1,0,0,-1,-1
1558440567518497,-2,0,1,-2,0,1,0,-1
1558440567518497,0,1,0,0,1,6,2,0
1558440567548416,-3,-2,-2,2,2,-2,-6,0
1558440567548416,0,-5,-4,-6,-3,-3,-2,-2
1558440567549414,-1,-1,3,2,-1,-2,1,1
1558440567549414,1,1,-1,0,2,0,2,1
1558440567550411,-1,2,3,3,-3,-2,-2,-2
1558440567550411,-1,0,-2,-7,0,-1,-3,-1
1558440567554403,-1,0,-2,1,2,1,1,1
1558440567554403,-3,-4,-2,0,-2,-2,-2,0
1558440567568363,3,0,0,-7,-3,1,-1,-1
1558440567568363,-1,-3,-3,1,-5,-5,-3,-2
1558440567577340,2,1,0,2,1,0,1,2
1558440567577340,-1,0,1,-1,3,5,2,-2
1558440567592302,-3,-1,0,-3,-3,-1,0,-1
1558440567592302,-1,1,0,-3,-1,-2,0,0
1558440567593297,0,-1,-1,-1,-4,-7,-5,-2
1558440567593297,1,1,-1,-3,1,-2,0,0
1558440567606297,0,0,0,0,-1,0,1,0
1558440567606297,-2,0,-1,-3,-2,-2,-2,-1
1558440567614243,-1,-1,-2,1,-2,0,-2,-2
1558440567614243,-3,-2,-3,-1,-3,-3,-3,-3
1558440567629213,-3,-4,-3,1,3,3,0,-1
1558440567629213,1,1,4,3,2,-1,-1,-1
1558440567644160,0,-1,-2,-7,-4,1,0,2
1558440567644160,1,-1,-3,-1,-5,-4,-3,3
1558440567652138,-2,0,-4,0,0,0,1,-2
1558440567652138,-2,0,4,3,0,-1,-3,-1
1558440567653136,-4,0,-6,-2,0,-1,0,-2
1558440567653136,-3,-2,0,-1,-5,-6,-2,-2
1558440567668098,-2,0,2,2,0,2,0,-1
1558440567668098,0,-1,0,-2,1,1,2,1
1558440567674082,0,0,3,3,-1,-5,-3,-1
1558440567674082,-1,-3,-6,-7,-1,1,0,-2
1558440567698018,0,-1,-1,-3,-3,-2,-3,-1
1558440567698018,0,2,0,3,-1,2,1,0
1558440567698018,-1,0,-2,-1,-1,0,0,-2
1558440567698018,-1,-3,-1,2,-2,-3,-3,-3
1558440567719958,-2,-5,-4,-2,0,4,1,-2
1558440567719958,-1,-4,-4,0,-2,-2,-2,0
1558440567720956,1,1,0,-1,-1,0,-3,-1
1558440567720956,-1,1,2,-2,0,-1,1,-1
1558440567725951,1,1,0,1,-1,-2,-1,-1
1558440567725951,-1,-2,-5,-2,2,2,1,-2
1558440567733920,-2,-3,0,-3,-1,0,-1,-2
1558440567733920,-2,-3,0,2,-2,-3,-1,0
1558440567748891,-2,-2,-1,-7,-2,-1,-2,3
1558440567748891,-2,-2,-1,-2,0,-2,0,-3
1558440567756859,-1,-1,-4,-2,-1,0,2,1
1558440567756859,0,-1,-3,2,0,1,0,-3
1558440567771821,-1,-2,1,0,-2,-3,-2,-1
1558440567771821,2,-1,0,-3,1,0,-2,-1
1558440567772818,0,-1,1,1,0,1,-2,-3
1558440567772818,1,1,-2,0,-2,-1,-1,0
1558440567794757,0,-1,0,-1,-2,-3,-2,0
1558440567794757,-2,0,0,-1,0,0,0,1
1558440567794757,-2,-1,-1,2,-2,-1,-1,-2
1558440567794757,-3,-3,-7,-7,-2,1,1,0
1558440567817695,0,-2,-1,-2,-2,-6,1,-2
1558440567817695,1,-2,-5,-1,0,-1,2,-1
1558440567818693,-1,-1,0,0,0,0,0,0
1558440567818693,0,0,-1,-2,0,-1,-2,0
1558440567831693,-1,-1,-3,-3,-3,-1,-2,-2
1558440567831693,-2,-1,2,3,2,2,-1,1
1558440567832657,-2,0,-1,-1,1,1,0,-1
1558440567832657,0,0,-2,-2,-1,-2,-5,-3
1558440567847618,0,-2,-1,0,2,0,1,-1
1558440567847618,-1,1,0,0,-2,-1,0,-2
1558440567853600,-1,-4,-4,-2,-1,2,0,-1
1558440567853600,-2,0,-1,-3,-3,0,-1,1
1558440567868595,1,4,-3,-1,1,0,-2,1
1558440567868595,-3,-3,0,-1,-1,-1,-2,1
1558440567876539,-4,0,3,3,-1,-3,-2,-1
1558440567876539,-1,-2,2,0,-1,-2,-3,0
1558440567891499,0,-2,-6,-4,-3,-2,0,-1
1558440567891499,-2,-2,0,1,-2,1,2,1
1558440567892496,-1,-1,-4,-4,-2,-3,1,0
1558440567892496,-1,-2,0,-2,0,1,1,-1
1558440567906499,-2,0,1,0,0,-1,-1,1
1558440567906499,-1,-3,-3,0,-1,-1,-3,0
1558440567913475,-2,-1,-2,-3,0,-2,-3,-1
1558440567913475,0,3,3,1,-1,-1,1,1
1558440567928400,-1,-2,-1,1,-2,1,0,1
1558440567928400,2,0,-1,-3,-3,-4,-2,-1
1558440567944360,0,-1,2,-2,-1,-4,-2,0
1558440567944360,0,0,-3,1,-3,-4,-1,-2
1558440567953333,-1,-5,-1,-2,1,4,2,-2
1558440567953333,1,-1,2,1,-2,0,1,-3
1558440567959318,1,-3,-9,-4,-1,0,0,-2
1558440567959318,-1,0,0,-2,0,1,0,-2
1558440567974278,-4,-2,-1,-2,-1,-2,-3,0
1558440567974278,0,-1,0,0,-1,-2,-1,0
1558440567975277,-2,-1,3,3,-2,-3,-3,0
1558440567975277,-2,-2,-4,-4,-2,0,0,0
1558440567989237,0,2,0,-1,-3,-2,-1,-3
1558440567989237,-2,1,2,0,-1,-2,0,-2
1558440567997217,-1,1,2,-2,0,1,0,-3
1558440567997217,1,-2,1,1,-2,-2,0,0
1558440568028135,0,2,2,1,-1,0,-1,2
1558440568028135,-1,-3,-4,-2,-1,0,-1,0
1558440568029131,1,0,2,0,-2,-2,2,1
1558440568029131,-3,-3,0,-1,-1,-5,-3,-2
1558440568030128,1,-2,-3,4,0,-3,-1,-2
1558440568030128,-2,1,0,-4,0,-2,0,-2
1558440568034117,-4,-3,-2,-3,1,0,1,-2
1558440568034117,1,0,3,1,1,4,2,1
1558440568050074,-1,-1,2,0,-1,-2,-1,0
1558440568050074,0,0,-7,-3,-1,0,-1,0
1558440568057057,0,1,0,1,-1,-3,-2,0
1558440568057057,-3,-2,-1,-1,-1,-3,-5,-2
1558440568081023,0,2,0,-2,-1,1,1,0
1558440568081023,-3,-3,-2,0,-1,2,0,-1
1558440568081023,1,1,2,0,1,1,-1,1
1558440568081023,-4,-1,-4,-2,-2,-3,-2,-2
1558440568085980,-2,-1,-1,-1,0,1,-1,-1
1558440568085980,-1,-4,-2,3,-2,-2,-4,-3
1558440568093958,-1,-4,-4,-5,0,2,-2,-1
1558440568093958,0,0,0,0,-1,-1,-1,0
1558440568108918,-1,-2,-2,-1,-1,-2,-1,-2
1558440568108918,-1,-2,-3,-6,-2,-4,-2,1
1558440568116898,-3,-1,0,2,-1,-1,-2,0
1558440568116898,0,-2,-1,-2,1,0,0,-1
1558440568130859,-3,-1,2,1,-2,0,-1,-2
1558440568130859,-2,1,3,1,1,1,-2,0
1558440568138838,1,-3,-2,-8,-4,-3,-1,-1
1558440568138838,-2,-1,-2,-1,-2,-1,0,-3
1558440568155791,-1,-3,-1,-4,-1,-4,-4,-2
1558440568155791,0,-1,3,-1,-1,-1,-2,-2
1558440568156837,-1,0,-2,-2,-2,0,-1,0
1558440568156837,0,-2,-1,5,0,0,0,-2
1558440568168791,0,-2,-5,-3,-2,0,-2,-3
1558440568168791,-1,-3,-1,-2,-2,-1,0,0
1558440568176770,-1,3,2,1,-1,0,-2,2
1558440568176770,2,1,2,-3,-2,2,1,2
1558440568199676,-3,-5,-3,-2,-1,-1,-1,1
1558440568199676,-1,0,-1,1,1,1,0,2
1558440568200671,-2,-2,-5,-2,-1,-1,0,-1
1558440568200671,-4,-2,-2,-2,-1,-3,-2,-2
1558440568206657,1,2,3,-2,0,0,2,1
1558440568206657,-1,0,-5,-1,-1,-3,1,-2
1558440568213637,-1,-2,-1,0,2,1,-1,-4
1558440568213637,0,0,2,-1,-1,-1,-2,-3
1558440568228598,0,1,-7,-1,-1,-1,-1,-3
1558440568228598,-2,-3,-1,-3,-1,-2,-2,-4
1558440568236577,-1,0,1,3,0,-1,1,0
1558440568236577,-2,0,-2,3,0,-3,-2,-3
1558440568251572,-3,-1,-3,-5,0,2,2,-1
1558440568251572,-2,1,0,2,1,3,2,0
1558440568259589,-2,-3,-6,-11,-3,-3,-1,-1
1558440568259589,-1,-1,0,1,-2,0,-1,0
1558440568274476,1,-1,1,0,-1,-4,-2,1
1558440568274476,1,1,1,0,0,0,-2,-2
1558440568275493,1,-3,1,2,0,0,0,-3
1558440568275493,0,1,1,2,-1,1,-1,1
1558440568297414,-1,-3,-4,-2,-1,0,-3,-2
1558440568297414,-2,-1,0,-1,-1,1,0,-1
1558440568298412,-2,-1,0,1,-2,-5,0,-1
1558440568298412,0,-1,-3,-5,-1,-6,-2,-1
1558440568311375,-1,-1,3,3,-2,-3,-1,0
1558440568311375,-2,-2,-2,-1,-1,1,-2,1
1558440568319356,1,1,-1,3,1,5,0,-1
1558440568319356,-1,-1,-5,-7,-5,-2,-2,-1
1558440568334315,-1,1,3,1,1,1,-1,1
1558440568334315,1,-2,1,-1,-2,-4,-2,0
1558440568335313,-2,0,2,2,1,0,-1,1
1558440568335313,-2,-3,-3,-1,-1,1,1,0
1558440568357264,0,-3,0,-2,-1,-3,-2,-2
1558440568357264,0,1,-1,-4,-2,-2,1,-1
1558440568358253,-1,-1,1,3,0,1,-1,-2
1558440568358253,-1,-1,-1,1,1,0,0,0
1558440568380204,-1,0,-4,-4,-3,-2,-2,-1
1558440568380204,-2,-4,0,-1,1,2,-1,1
1558440568381194,-2,-2,1,0,-1,-2,-1,0
1558440568381194,-2,0,1,-1,1,-1,-2,-1
1558440568394167,-2,-2,-7,-3,-2,-6,-2,0
1558440568394167,-1,0,-3,-3,-1,0,0,1
1558440568395155,-1,-3,-3,-2,-2,-3,-4,-4
1558440568395155,0,-1,-2,-2,-1,4,2,-2
1558440568409121,1,-1,3,5,1,-1,-1,-1
1558440568409121,-5,-4,-3,-1,-2,-7,-3,-3
1558440568424079,0,0,-2,-4,-1,-1,1,-1
1558440568424079,-2,2,1,0,2,3,1,-2
1558440568431159,-3,-1,1,1,-3,1,-2,0
1558440568431159,1,0,1,1,2,1,2,0
1558440568439040,1,-2,-1,-1,-1,-1,-1,-1
1558440568439040,-2,-3,-3,0,-2,-4,-4,-3
1558440568454032,0,-3,1,-1,0,1,-1,-1
1558440568454032,1,2,4,1,0,0,0,-1
1558440568454992,-4,-3,-5,-5,-3,-3,-2,-3
1558440568454992,-1,-1,-2,-2,-2,-3,0,-1
1558440568477931,-1,-1,-1,-1,-1,1,0,-2
1558440568477931,1,-1,-1,-1,-1,-1,-2,-1
1558440568477931,1,1,1,3,-1,-1,0,0
1558440568477931,-1,-1,-2,-3,-2,-4,-2,-2
1558440568490897,-1,0,-3,-1,2,2,3,0
1558440568490897,0,0,1,-1,-3,-4,-4,1
1558440568506912,-1,-2,-1,-3,-4,-1,-2,-1
1558440568506912,-1,-3,-3,-2,-2,1,0,0
1558440568514833,1,2,4,1,-1,-5,0,1
1558440568514833,-5,-5,-4,-1,0,1,-2,-3
1558440568514833,-1,1,1,2,1,-4,-3,0
1558440568514833,0,-2,-5,-8,-5,-3,-4,-2
1558440568529792,0,-2,3,4,1,0,-2,0
1558440568529792,0,1,-4,-4,-2,-3,0,-1
1558440568537828,-4,-2,-4,-1,-4,-4,-2,-2
1558440568537828,1,1,2,5,1,3,2,-2
1558440568551733,0,-2,2,-5,0,0,0,-3
1558440568551733,-2,-2,-4,-3,1,0,1,0
1558440568559714,-2,-2,3,0,1,-4,-2,0
1558440568559714,-2,0,2,0,-1,-2,-1,0
1558440568574674,-2,-1,-5,-5,-2,-2,-4,-3
1558440568574674,-2,0,0,1,-1,-4,-3,-1
1558440568574674,-1,1,-4,-4,-2,1,0,-3
1558440568574674,0,-1,2,2,1,1,-2,0
1558440568588633,1,0,-3,-4,0,1,1,-2
1558440568588633,-2,-1,-1,0,-1,-1,1,0
1558440568604593,-1,-1,-2,-1,0,0,-1,-2
1558440568604593,-3,-2,-3,-1,-3,-6,-5,-2
1558440568611608,1,-1,1,2,1,1,-2,-2
1558440568611608,-2,0,0,1,1,-1,-3,0
1558440568619610,-1,-3,-6,-8,-1,0,0,0
1558440568619610,-1,-1,2,0,-1,-2,-2,0
1558440568634513,-1,-2,-2,0,-4,-1,-2,0
1558440568634513,2,-1,0,-2,-1,1,1,0
1558440568635510,-2,0,2,3,1,2,0,1
1558440568635510,-1,0,-1,-2,0,1,0,1
1558440568659445,-3,-1,-2,-1,-2,-4,-2,0
1558440568659445,2,1,1,-2,0,1,0,1
1558440568659445,-1,-1,-4,-3,-2,1,1,-1
1558440568659445,0,-1,-3,2,0,-2,-1,-1
1558440568671414,-2,0,0,-1,0,0,0,0
1558440568671414,-1,-1,0,1,-2,-2,0,-3
1558440568679393,-1,0,1,3,0,-1,-1,1
1558440568679393,-3,-1,-2,-5,-2,-1,0,0
1558440568702330,0,-1,-4,-5,-2,1,1,-1
1558440568702330,-1,-2,-4,1,-4,-5,-1,0
1558440568703327,1,2,1,-1,2,3,2,1
1558440568703327,1,-1,-2,0,2,1,1,1
1558440568708314,0,-2,0,0,0,-1,-2,-3
1558440568708314,-1,0,0,-2,-2,-2,-2,-3
1558440568717325,-1,-3,-3,-2,-3,-3,-3,-3
1558440568717325,-2,0,-1,-3,-4,-3,-3,-1
1558440568731253,-2,1,0,0,-1,3,1,1
1558440568731253,-3,-2,-4,-4,1,-1,-2,-3
1558440568739232,-1,1,0,1,-1,-3,-3,-1
1558440568739232,0,1,0,3,1,4,2,1
1558440568754191,0,-3,-2,-5,-3,-6,-3,-1
1558440568754191,-2,0,-1,-1,-1,1,-1,0
1558440568755188,-1,-1,-3,-2,0,0,0,-1
1558440568755188,-2,-1,-1,-2,0,1,0,-2
1558440568777129,-1,0,-1,1,0,1,-3,0
1558440568777129,2,-2,-1,-1,-1,-1,-2,0
1558440568778127,0,-1,2,0,-3,-5,-1,-1
1558440568778127,1,1,-1,-4,-1,-3,-1,0
1558440568791094,-3,-1,-1,1,1,1,2,-1
1558440568791094,-3,-1,-2,6,1,3,-1,0
1558440568807062,-1,-1,-3,-9,0,1,1,1
1558440568807062,-3,-2,-3,-5,-4,-2,-2,-2
1558440568815032,0,0,2,2,1,0,-1,-1
1558440568815032,-2,-1,-2,-4,-2,1,-1,-2
1558440568815032,0,-2,-1,4,0,-3,-1,-1
1558440568815032,0,-1,0,2,1,-1,-3,0
1558440568830992,-1,-4,-1,-1,-1,-1,0,-1
1558440568830992,-2,-1,0,-1,-2,-3,1,-1
1558440568836981,-2,1,0,0,-1,0,-1,-1
1558440568836981,-1,0,-2,-1,-2,-2,-1,-2
1558440568851062,-1,-1,-2,-4,-3,-3,-2,-1
1558440568851062,0,0,-2,-1,-2,0,1,-1
1558440568859911,1,0,-1,0,-1,1,2,0
1558440568859911,-2,-2,-4,4,-1,-1,0,-2
1558440568882896,-2,0,-1,-1,1,1,-1,-1
1558440568882896,0,0,3,0,2,-1,-1,-2
1558440568882896,-2,-3,-7,0,-3,-2,-5,-1
1558440568882896,-2,-2,-2,-7,-2,-1,-4,-1
1558440568888836,-3,0,-2,0,0,3,1,0
1558440568888836,0,0,1,-2,1,1,0,-1
1558440568897809,-3,-2,-2,0,-3,-6,-5,-2
1558440568897809,1,-2,1,1,1,-2,-1,-1
1558440568911958,-2,0,-2,0,-3,-4,0,0
1558440568911958,0,-1,-1,-2,-2,-3,0,0
1558440568927729,1,-1,1,0,0,0,1,-1
1558440568927729,-1,-1,-1,-2,-3,0,1,-1
1558440568935754,-2,-2,-3,0,-2,-1,-4,-3
1558440568935754,1,0,0,-2,0,2,0,-1
1558440568936708,0,-1,-1,-1,-2,-3,0,1
1558440568936708,2,-2,3,-1,-1,1,-1,0
1558440568948702,1,-2,-3,-4,0,0,2,-1
1558440568948702,-2,-1,-2,1,-1,0,0,0
1558440568956650,-2,0,0,-1,-2,-3,-1,-3
1558440568956650,-2,0,-2,-1,1,-1,-3,0
1558440568980392,-1,0,1,-1,-2,-4,-5,-2
1558440568980392,-1,0,2,2,-1,-5,-4,-2
1558440568981019,0,-2,-1,1,0,3,-1,1
1558440568981019,-1,-2,-5,-6,0,-1,0,-3
1558440568995283,-1,-1,-1,-1,-1,-1,2,1
1558440568995283,1,0,-2,-1,-2,-1,-2,-1
1558440568995283,1,1,3,-2,0,-1,0,-1
1558440568995283,-3,0,3,6,1,0,0,2
1558440569008943,1,-2,-4,-7,-4,-4,-2,-3
1558440569008943,1,-4,-2,-3,-3,-2,-1,-1
1558440569017094,0,0,-3,-4,-1,0,2,0
1558440569017094,-1,1,1,2,-1,1,1,-1
1558440569031928,-1,-1,-1,3,0,-1,1,-2
1558440569031928,-3,-1,1,0,-2,0,-1,-1
1558440569040193,-1,-1,1,-2,1,-1,-2,0
1558440569040193,-1,0,2,1,0,0,0,-2
1558440569054109,0,-1,-4,1,-2,-4,-2,0
1558440569054109,0,-3,-7,-11,-2,-1,0,-1
1558440569070835,2,-1,1,2,0,0,-1,0
1558440569070835,-3,-3,-2,-6,-3,-4,-1,-2
1558440569071782,-1,1,3,1,2,2,0,0
1558440569071782,-1,-3,-5,1,0,0,-2,1
1558440569076761,-2,0,-1,1,-1,1,0,0
1558440569076761,0,1,0,1,-1,0,-2,-1
1558440569091720,-3,-2,0,-2,-4,-6,-4,-2
1558440569091720,-2,0,0,1,1,2,1,-1
1558440569107677,-2,-2,-5,-4,-2,0,0,-3
1558440569107677,1,-3,-2,-2,-2,0,-1,-1
1558440569113908,-1,-2,1,1,-2,-1,-2,-2
1558440569113908,-2,0,1,1,-1,0,-2,-1
1558440569130616,1,3,2,-3,-2,-1,-3,0
1558440569130616,-3,-5,-3,2,1,0,1,-2
1558440569131613,0,-1,1,1,0,-2,-1,0
1558440569131613,-2,-3,-4,-1,0,-2,2,-1
1558440569137709,1,-1,2,3,0,0,1,-2
1558440569137709,-1,0,-2,-3,-4,-5,-1,1
1558440569151560,-2,0,1,1,0,2,0,2
1558440569151560,2,2,1,1,1,0,2,-1
1558440569159538,-4,-3,-5,-5,-2,-4,-3,-2
1558440569159538,0,-1,-2,-1,0,-1,-1,0
1558440569182476,-3,-3,-3,-4,-4,-1,-1,-1
1558440569182476,1,0,1,1,-1,0,-2,-2
1558440569190454,-1,-2,0,2,-1,-1,-2,-2
1558440569190454,-3,0,-1,-3,1,2,0,-3
1558440569191452,-1,-1,0,-1,1,0,-1,0
1558440569191452,-4,-3,0,0,-3,-6,-5,-1
1558440569196472,0,-4,-8,-4,-3,-1,-2,-2
1558440569196472,-1,0,-2,-1,0,-1,-2,0
1558440569211755,-3,-1,-3,-3,-3,-4,0,0
1558440569211755,-1,-2,1,0,-3,-3,-1,0
1558440569219726,-1,-2,3,-1,2,2,-1,1
1558440569219726,0,-1,-1,-1,-2,-3,-1,0
1558440569234416,0,1,-5,-2,-3,-2,-4,-2
1558440569234416,-1,-1,-4,-8,-1,1,0,-2
1558440569241675,-1,1,1,0,-2,-4,0,0
1558440569241675,-1,-3,-1,0,-3,1,0,0
1558440569257661,-1,0,0,-1,1,-3,-3,0
1558440569257661,-1,-3,-3,1,1,2,0,-1
1558440569258628,-1,-1,-2,-1,0,-3,-2,-1
1558440569258628,-2,0,0,-2,-1,-4,-1,-2
1558440569271593,-2,-1,-4,-4,1,1,1,-1
1558440569271593,-1,1,-4,-2,-2,2,0,-1
1558440569280570,1,-2,1,1,2,2,2,1
1558440569280570,-1,0,0,-3,-1,-5,-4,-4
1558440569293563,0,-2,1,0,-1,-3,-3,-3
1558440569293563,-2,-2,0,3,-1,-1,0,0
1558440569302515,-1,0,-1,-2,1,-1,-1,0
1558440569302515,0,1,-1,-4,0,0,1,-2
1558440569316473,0,-2,-5,-2,-2,2,1,0
1558440569316473,-3,2,0,-1,-1,-5,-4,-1
1558440569331432,-1,-2,-1,-1,-3,1,-3,0
1558440569331432,-2,-1,-1,-4,-3,-4,-4,-2
1558440569332428,-2,-3,0,1,3,1,3,0
1558440569332428,1,-2,-1,0,2,0,3,0
1558440569346393,0,-1,0,1,0,-1,1,-2
1558440569346393,0,-3,1,3,-1,-1,-2,-3
1558440569354549,-1,0,1,-1,1,2,-1,-1
1558440569354549,-2,0,-6,-4,-3,0,-2,-2
1558440569362705,-1,-1,0,1,-2,-3,-3,-1
1558440569362705,1,0,-1,1,2,0,2,0
1558440569384518,-2,-3,0,-2,-1,-1,1,-3
1558440569384518,-3,-1,0,1,0,-3,-2,-3
1558440569393269,-4,-1,-6,-1,-4,-1,-2,-3
1558440569393269,-2,-2,-4,-7,-2,1,1,0
1558440569394265,1,3,3,2,1,3,2,1
1558440569394265,-1,0,0,1,-1,2,3,-1
1558440569400247,-3,-1,-2,-2,-1,-3,-2,-3
1558440569400247,1,0,0,3,1,0,0,1
1558440569414501,1,0,0,1,0,-4,-3,-1
1558440569414501,-2,-3,1,-3,-3,-3,-4,-1
1558440569422463,-2,-1,0,-3,0,0,0,-1
1558440569422463,-4,-2,1,2,0,3,1,1
1558440569436153,-1,-2,-3,-2,-3,-3,-4,-1
1558440569436153,1,0,1,0,0,-2,1,2
1558440569445129,1,-1,-1,0,0,-1,-2,-1
1558440569445129,-2,0,5,4,1,1,0,1
1558440569461230,-3,-3,-9,-8,-6,-4,-4,-2
1558440569461230,-3,0,-1,-5,-4,-4,-5,-2
1558440569466374,-2,-1,-2,0,-1,-4,-2,-2
1558440569466374,0,2,0,1,1,0,2,-2
1558440569483028,1,-1,2,2,0,0,-2,-3
1558440569483028,0,-2,1,0,1,4,2,-2
1558440569489310,3,-1,0,-1,0,3,3,0
1558440569489310,-2,-1,-3,-2,-1,-5,-4,-2
1558440569497054,-1,-1,0,-2,0,1,1,0
1558440569497054,-1,0,-3,1,-1,-2,-3,-1
1558440569513230,0,1,1,-2,-2,-3,-1,2
1558440569513230,-1,-4,-6,-4,-3,-1,-1,-1
1558440569513946,-1,0,0,-1,0,0,2,-3
1558440569513946,0,-2,-1,-1,-1,-3,-2,-1
1558440569520238,-1,-3,-2,-4,-2,-1,-1,-1
1558440569520238,1,2,0,0,-1,-1,0,1
1558440569542868,-1,2,-1,0,-1,0,-1,2
1558440569542868,-2,-2,-4,1,-1,-1,0,-2
1558440569543864,-1,-2,-2,-5,1,0,1,0
1558440569543864,-2,-3,-5,-3,-4,-4,-3,-2
1558440569557042,-2,-3,0,0,1,0,-2,-1
1558440569557042,1,0,4,0,0,2,0,0
1558440569564809,-1,0,-1,-1,1,-2,-1,-2
1558440569564809,0,-3,-1,-3,-2,0,-2,-3
1558440569570790,1,-1,0,-1,-2,-2,-1,-1
1558440569570790,1,0,1,6,2,-2,-2,-2
1558440569580090,-2,-4,-6,-10,-5,1,0,0
1558440569580090,-2,1,2,0,1,-2,1,1
1558440569593730,-2,-2,0,1,0,-2,-1,-1
1558440569593730,1,-1,-3,-4,-1,1,-1,-1
1558440569602706,0,1,1,3,-1,0,1,1
1558440569602706,-2,-2,-1,0,0,1,-2,-1
1558440569616706,-2,-4,-2,-1,-2,-4,-2,-1
1558440569616706,-2,-2,0,-4,-3,0,-2,0
1558440569624651,-3,-1,-1,2,1,0,-2,-1
1558440569624651,-1,-1,0,4,2,2,1,1
1558440569640937,-2,-1,-5,-6,-3,-4,-3,-1
1558440569640937,0,0,0,-3,0,0,1,1
1558440569641603,0,-1,1,2,-1,-4,-4,-1
1558440569641603,1,1,0,0,-2,2,2,-1
1558440569662865,-1,-1,1,1,1,1,0,0
1558440569662865,-1,-1,-1,-4,-2,-2,0,-2
1558440569663545,-1,-2,-4,-3,-6,-8,-4,-2
1558440569663545,1,0,2,0,4,3,1,1
1558440569676819,-1,0,-6,-2,-1,-3,-1,0
1558440569676819,-2,-3,-3,-4,-3,-4,-2,-2
1558440569685486,-1,-2,1,2,1,5,2,1
1558440569685486,-1,-2,0,-4,-2,-3,-2,-1
1558440569691470,0,-1,0,-1,-1,3,1,-4
1558440569691470,-3,0,1,1,-2,-3,-2,0
1558440569700479,-1,0,-1,0,1,1,0,-1
1558440569700479,-2,0,-4,-3,-2,-1,0,0
1558440569714547,-3,-3,-1,2,-1,-2,-2,-1
1558440569714547,1,0,0,-1,-1,-1,1,-1
1558440569722387,1,-3,-1,1,1,-2,1,-2
1558440569722387,1,-2,1,1,-2,-4,-3,-3
1558440569736618,1,0,-1,-8,-2,1,0,2
1558440569736618,-2,0,3,1,-1,-1,0,0
1558440569745324,1,-1,0,0,-2,-1,-2,-2
1558440569745324,-2,-1,-5,-2,-2,-2,-1,-1
1558440569760285,0,0,-1,-3,-2,-1,0,-3
1558440569760285,-3,-2,-3,-3,-1,0,0,-1
1558440569761281,-1,1,3,4,3,5,4,0
1558440569761281,-1,-3,0,-1,-1,-2,-3,-1
1558440569773251,-1,0,1,1,1,-5,0,0
1558440569773251,1,-2,-4,0,2,1,-1,0
1558440569782699,-1,-1,-1,-2,-1,-1,-3,-1
1558440569782699,-1,-2,-3,-5,-2,1,-1,0
1558440569796500,-1,-3,0,-1,-2,1,-1,0
1558440569796500,-1,-1,0,1,-1,-2,-2,-1
1558440569805171,-1,0,1,1,-2,-1,1,0
1558440569805171,1,0,0,-4,-1,-3,-2,-1
1558440569820129,-2,0,0,1,-3,-1,-2,-1
1558440569820129,-1,-1,-1,-1,5,6,4,0
1558440569822130,-2,-1,0,-1,0,0,0,1
1558440569822130,-3,0,2,4,1,-1,0,-3
1558440569834405,0,2,-1,-3,-3,-4,-2,0
1558440569834405,-2,-1,-2,-1,-3,-2,-2,-2
1558440569843065,-3,1,-2,-3,-1,1,-2,-3
1558440569843065,-2,-2,-3,0,0,-3,-2,2
1558440569865288,-1,-3,-3,-1,1,0,1,0
1558440569865288,-2,0,0,0,0,0,-2,-1
1558440569867234,0,-2,-3,-6,-4,-5,-4,-2
1558440569867234,1,-1,-3,0,-2,-1,-2,-3
1558440569871305,-2,1,2,0,1,1,0,1
1558440569871305,-1,0,2,2,-1,-5,-1,0
1558440569880277,-3,-3,-7,0,-2,0,0,0
1558440569880277,-1,0,-1,-8,-3,-3,-2,-3
1558440569894217,-1,-2,-3,2,-1,-3,-3,-1
1558440569894217,1,-2,-1,-3,-3,-1,-1,-1
1558440569902905,-2,-2,2,-1,-1,0,-1,1
1558440569902905,-2,-2,-1,0,1,1,1,0
1558440569917014,-2,-1,-2,0,1,-1,-2,-2
1558440569917014,0,1,-2,-3,-2,-4,-3,0
1558440569924846,1,-2,-3,2,1,-1,-1,-3
1558440569924846,-1,-2,-4,-3,-1,0,1,2
1558440569940884,-3,-1,0,-3,0,-1,0,-2
1558440569940884,-1,0,-3,-1,-2,0,1,0
1558440569941799,0,1,1,-1,0,0,2,1
1558440569941799,1,1,3,3,1,1,0,-2
1558440569963017,0,-2,-3,0,-3,2,-2,-2
1558440569963017,-2,-3,-6,-10,-4,-2,-3,-1
1558440569963742,-3,-2,-6,2,0,1,-1,0
1558440569963742,-3,-2,0,-3,-2,-5,-2,-2
1558440569976998,1,-1,2,0,-1,3,0,-1
1558440569976998,1,-2,0,2,-1,1,0,-2
1558440569993689,-1,0,0,-3,-3,-5,-5,-3
1558440569993689,-2,-1,-1,1,-1,0,1,1
1558440569993689,1,-1,-2,-3,-1,0,-1,1
1558440569993689,-1,-1,1,0,1,1,-1,-1
1558440570000642,1,0,0,-3,0,0,2,-1
1558440570000642,-1,-1,-2,0,-1,-4,-2,-2
1558440570022876,0,-1,1,2,-2,-3,-1,-2
1558440570022876,-2,-1,-1,-1,0,-1,0,-3
1558440570023583,-2,0,-2,1,-3,-1,-2,-1
1558440570023583,-2,-1,-4,-5,0,1,0,-2
1558440570036548,1,-2,2,0,0,-3,-2,-2
1558440570036548,-1,-3,-3,-3,-2,-2,-3,0
1558440570045522,1,0,1,1,-1,0,-1,-2
1558440570045522,-1,-1,3,8,2,-1,-1,1
1558440570051793,-4,-3,-5,-7,-2,-1,1,0
1558440570051793,0,-1,-1,0,2,1,3,-1
1558440570067743,-2,-4,-1,-2,0,-4,-1,-1
1558440570067743,-1,-1,-2,-5,-3,-2,-2,-2
1558440570073736,-1,1,1,1,3,1,-1,1
1558440570073736,0,-1,-2,4,-3,0,-1,-1
1558440570082610,-3,-1,-1,-4,-4,-3,-2,1
1558440570082610,0,-1,2,3,1,2,0,0
1558440570096647,-4,-2,-1,0,-3,-2,2,-3
1558440570096647,0,-1,1,-1,0,0,0,-1
1558440570105366,-1,-2,-4,-4,0,-2,1,-2
1558440570105366,-1,0,-3,-7,-1,-3,-5,-3
1558440570111614,1,-1,-2,3,1,-1,0,1
1558440570111614,-2,-1,-1,4,1,-2,-1,0
1558440570120354,0,0,1,-2,1,-1,-1,-1
1558440570120354,0,1,-1,-3,-4,-2,-3,-2
1558440570143368,-3,-3,0,-2,0,0,0,0
1558440570143368,0,0,-1,-2,-1,-2,-1,0
1558440570144261,-2,-3,-2,1,0,-1,-3,-1
1558440570144261,-4,-2,-3,0,1,4,0,-1
1558440570156225,-1,2,2,-2,-2,-1,0,0
1558440570156225,-2,-2,-4,-1,-4,-3,-1,-2
1558440570165202,0,2,1,1,1,4,3,1
1558440570165202,-1,-2,-4,-1,-4,-7,-2,-3
1558440570180163,1,1,1,0,0,0,0,0
1558440570180163,-2,-2,5,4,1,-2,-2,-3
1558440570181158,0,0,-4,-3,-2,-3,-1,-1
1558440570181158,0,-3,-2,-1,-3,-1,-2,1
1558440570194123,0,-2,-3,-5,0,1,-1,-1
1558440570194123,-2,-2,-2,-4,-2,1,-2,0
1558440570202137,-2,-2,0,-1,-3,-4,-3,-2
1558440570202137,-3,1,-3,-1,-1,-2,1,0
1558440570216064,-2,-1,0,2,1,-1,2,2
1558440570216064,-1,-1,-1,-3,0,0,-1,-1
1558440570225041,-1,-2,-3,-2,-2,0,-1,-2
1558440570225041,0,0,1,3,-2,-2,-1,-1
1558440570247979,1,-2,-2,-2,-1,0,-1,-3
1558440570247979,0,0,-3,-4,-2,-2,1,-1
1558440570248977,-2,0,-1,-1,-1,-1,-3,-1
1558440570248977,-1,-1,2,1,2,2,0,3
1558440570253963,-3,-3,2,0,-2,-3,-4,-1
1558440570253963,0,0,-1,-1,0,-5,1,-1
1558440570270365,-2,0,-1,1,1,0,1,-2
1558440570270365,-2,-3,-2,-5,1,4,2,-2
1558440570275904,-1,-2,0,0,-3,-2,-2,-3
1558440570275904,-1,-2,-4,-4,-3,-5,-3,-2
1558440570285340,2,-1,0,0,-1,-1,-1,0
1558440570285340,-1,0,-2,-2,0,-2,0,-1
1558440570299839,0,-1,1,2,0,1,1,-3
1558440570299839,-2,-1,-1,-2,-2,1,-3,0
1558440570301835,-2,-1,1,-1,-1,-3,0,-2
1558440570301835,0,-1,5,2,1,3,1,0
1558440570322806,-2,0,-1,0,-3,-5,-3,-2
1558440570322806,0,-1,1,-2,0,2,1,0
1558440570323778,-2,-1,-3,-3,1,2,1,0
1558440570323778,-1,-1,-3,1,0,2,-1,-1
1558440570344721,-2,0,-6,-1,-3,-4,-2,-2
1558440570344721,-1,-1,1,-2,-1,1,1,0
1558440570346715,0,-1,-2,-4,-2,-1,0,-1
1558440570346715,-1,-1,0,-2,-2,-4,-4,-1
1558440570367695,-1,-2,-1,-1,0,-4,-1,2
1558440570367695,-2,0,-4,0,1,2,-1,-1
1558440570368691,-2,-1,1,1,-2,-2,0,3
1558440570368691,1,-1,-3,-2,-2,0,0,-3
1558440570373644,-1,0,1,-1,2,2,-2,-1
1558440570373644,-3,-1,-1,-1,-4,-2,-2,-3
1558440570382867,-1,0,0,-1,0,-1,-2,-2
1558440570382867,0,-1,-1,-2,0,-1,0,-1
1558440570396582,0,0,-1,0,-1,-4,-1,0
1558440570396582,0,-5,-5,-3,-1,-2,-3,1
1558440570405568,-2,0,-1,-2,-1,0,-2,0
1558440570405568,1,1,-1,1,-1,1,0,2
1558440570419523,-2,0,0,-1,0,0,0,-4
1558440570419523,-2,-1,-4,-7,-4,-4,-1,-1
1558440570421517,1,0,0,1,-3,-2,-2,-1
1558440570421517,-4,-2,0,1,0,-1,-2,-3
1558440570433484,1,-1,0,1,2,1,1,0
1558440570433484,-1,-2,0,-4,-3,-3,-2,-1
1558440570442462,0,-2,1,1,-1,-5,-1,-1
1558440570442462,-1,-1,-3,-1,-2,-3,-1,0
1558440570456425,-2,-2,-7,-2,0,3,-3,-1
1558440570456425,-1,1,0,-1,-1,0,-1,-2
1558440570465398,-1,-1,0,0,1,1,0,1
1558440570465398,0,0,1,-1,0,-1,-1,-1
1558440570480566,-3,-1,3,-3,-1,-1,0,-2
1558440570480566,1,1,-1,6,0,0,1,-3
1558440570481357,-1,-1,-4,-6,-3,-3,-4,-3
1558440570481357,0,1,1,-1,1,0,0,2
1558440570493326,2,0,1,0,-2,1,1,2
1558440570493326,0,-1,-1,0,-1,-4,-2,2
1558440570502366,0,-1,0,2,0,0,-1,0
1558440570502366,0,-1,-2,0,0,-3,-3,-1
1558440570525241,0,0,0,0,-1,-1,0,0
1558440570525241,-3,-2,-2,-6,2,-1,0,-1
1558440570526239,-3,-2,-3,-1,-1,1,2,0
1558440570526239,-2,0,0,-1,-1,-3,0,-2
1558440570547180,-2,-2,-2,-2,0,-3,-2,-2
1558440570547180,0,1,5,3,2,1,1,-1
1558440570549174,0,-2,-2,0,-2,0,0,0
1558440570549174,-3,-3,-2,1,-1,-2,-1,0
1558440570553162,0,0,-1,-5,-3,-2,-4,1
1558440570553162,0,1,0,0,0,-2,-2,2
1558440570562139,-3,-2,0,1,1,0,-1,-2
1558440570562139,-2,-1,0,-1,-3,0,1,0
1558440570576105,-2,0,-3,-2,-3,-2,0,-2
1558440570576105,0,-1,0,1,-1,-2,-4,-3
1558440570585077,1,0,-1,-2,3,6,5,0
1558440570585077,-1,-1,-4,-2,-2,0,0,-3
1558440570600038,-1,-5,1,0,-1,-3,-2,-2
1558440570600038,0,1,-2,-3,-3,0,-1,-1
1558440570601034,-1,-1,0,2,-2,-2,-3,-1
1558440570601034,-1,0,-2,-6,-3,-2,0,1
1558440570622975,0,2,0,1,0,1,2,1
1558440570622975,-2,-1,0,1,-1,-2,-3,-1
1558440570623990,-1,-1,-1,0,-1,-5,-1,-1
1558440570623990,2,0,-4,-4,-1,-2,-4,-2
1558440570644927,1,-1,-1,-3,-2,0,-2,2
1558440570644927,-2,-3,-1,0,0,1,0,-1
1558440570646913,-2,-1,0,2,0,1,1,0
1558440570646913,-1,0,1,-1,1,1,0,0
1558440570659878,-2,-1,-1,-1,-2,-2,-2,-2
1558440570659878,-3,-2,-2,0,-3,1,-1,-2
1558440570661872,-1,0,2,-2,-2,0,-4,-2
1558440570661872,-1,-3,0,-4,-3,-3,0,-2
1558440570673840,0,-1,-1,0,0,1,1,0
1558440570673840,-1,0,-4,-7,-2,-1,0,0
1558440570682818,0,-1,2,2,0,-1,0,1
1558440570682818,0,0,3,-3,-1,2,0,2
1558440570695781,-2,-2,-3,2,-3,-3,-3,-2
1558440570695781,-1,0,3,0,4,4,4,2
1558440570704757,-1,0,-4,-5,-4,-3,-3,-2
1558440570704757,0,1,1,2,0,-2,-2,0
1558440570718721,0,-1,-1,0,1,-1,-1,-2
1558440570718721,-2,-1,-1,0,-1,0,-1,-1
1558440570727696,-2,-2,-1,0,2,1,-3,-2
1558440570727696,-2,-3,-3,3,-1,1,-1,-1
1558440570733680,0,0,0,-3,-1,-1,-1,-1
1558440570733680,-1,0,0,0,-3,-2,0,1
1558440570749641,-2,-1,-4,-2,-2,-5,-4,-1
1558440570749641,-1,1,-1,1,-1,0,0,0
1558440570756618,-1,-2,-2,-3,1,0,1,-1
1558440570756618,0,-1,-1,-6,-4,-2,0,-3
1558440570771578,-1,0,2,1,-1,0,-3,-2
1558440570771578,-3,-3,-4,-5,-2,1,-2,-2
1558440570779566,1,-1,-1,0,-3,0,-1,1
1558440570779566,-1,-1,-1,4,2,2,-1,0
1558440570781553,-1,-3,-6,-5,-2,-2,0,-2
1558440570781553,1,0,2,-1,2,1,4,-3
1558440570810478,-2,-1,1,-1,-2,-2,-1,1
1558440570810478,-1,-2,-3,0,-1,0,1,-1
1558440570811478,-1,-1,1,-1,0,0,1,0
1558440570811478,-1,-2,-2,1,-2,-3,-2,-2
1558440570816459,-5,1,-2,-1,0,0,0,1
1558440570816459,-1,0,-1,1,1,-3,-2,-1
1558440570825436,1,-1,-1,-2,-2,-3,-2,-2
1558440570825436,-2,-1,3,4,1,0,-3,-1
1558440570840394,-1,-2,-4,-7,-2,-4,-2,-2
1558440570840394,-2,-1,1,0,-1,-3,-1,3
1558440570841394,-1,-1,1,4,-1,1,1,3
1558440570841394,0,-1,-2,-7,-4,-3,-2,-1
1558440570853359,1,-3,-4,-1,0,0,-2,-2
1558440570853359,0,0,2,-1,1,2,0,-1
1558440570870315,-2,-1,-1,0,-2,-1,-2,-3
1558440570870315,-2,-2,1,-2,-2,-6,-3,-1
1558440570876299,-2,0,-3,-1,-1,3,2,0
1558440570876299,1,-1,2,1,0,-1,-1,0
1558440570885274,-1,-3,-3,-3,-1,-2,-4,-1
1558440570885274,-2,-3,-1,3,1,-1,-1,0
1558440570899238,0,-1,-1,-3,-1,-2,-2,-1
1558440570899238,2,0,-1,0,0,-1,0,-1
1558440570906218,0,0,-1,-3,-1,-2,0,-1
1558440570906218,-1,-2,-4,0,-2,0,0,-1
1558440570922175,-1,1,3,2,-1,-3,-3,-2
1558440570922175,-2,-2,-6,-5,-3,0,-2,-3
1558440570924171,-3,-1,-4,-5,-3,-4,1,-1
1558440570924171,-3,-3,-1,-1,-3,-2,0,0
1558440570936139,0,-1,2,1,0,-1,1,0
1558440570936139,-1,0,-1,0,-1,0,0,-1
1558440570946112,-1,-1,-1,-1,1,1,2,3
1558440570946112,0,0,-2,-2,0,-4,-2,-1
1558440570959078,0,-1,1,1,0,1,1,-1
1558440570959078,-2,-3,-2,-4,-3,-1,-3,-3
1558440570975039,0,-1,-1,-2,-3,-1,0,-1
1558440570975039,-2,-2,-1,-1,2,2,2,1
1558440570975039,-1,0,0,1,0,0,-1,-1
1558440570975039,-1,1,-1,3,0,2,2,1
1558440570983014,-2,-3,-1,-4,-3,-3,-3,-1
1558440570983014,-1,-1,0,-4,-1,-3,-3,-2
1558440570995978,0,-1,-1,-2,-4,-2,0,0
1558440570995978,-1,-3,0,-3,2,-2,1,-1
1558440571010940,0,0,-2,-3,-1,0,0,1
1558440571010940,2,1,-1,0,-2,-3,-4,0
1558440571027894,-3,1,3,2,2,-1,0,-2
1558440571027894,-2,-4,-3,3,-4,-6,-5,-2
1558440571028891,1,-1,-4,-11,-2,1,1,-1
1558440571028891,1,-1,0,1,1,-1,0,0
1558440571033876,-1,-1,-4,-6,-4,-2,-2,-2
1558440571033876,-2,0,0,2,0,3,3,0
1558440571042858,-1,-4,2,5,0,1,-2,-4
1558440571042858,-2,-1,-4,-2,-1,1,-1,-2
1558440571055818,0,0,0,-3,-2,-5,-2,0
1558440571055818,-1,0,1,1,2,3,2,0
1558440571081749,-2,0,-4,0,-1,-2,-3,-2
1558440571081749,0,-1,1,-3,-2,1,1,-2
1558440571081749,-1,-2,-1,0,-1,0,-1,0
1558440571081749,-1,-2,-8,-4,-4,-5,-5,-1
1558440571085739,-1,1,2,1,0,0,-1,0
1558440571085739,-1,0,0,1,-2,-3,-4,0
1558440571102693,-1,-1,-2,-2,0,-1,-1,0
1558440571102693,0,0,2,-1,-1,-1,1,0
1558440571103698,-2,-2,-4,-5,-1,0,-1,-1
1558440571103698,-1,-4,-3,1,-1,1,-1,-3
1558440571115659,-4,-2,0,-1,0,1,1,-1
1558440571115659,1,0,-1,-3,-1,-3,0,-1
1558440571125638,1,-1,-1,1,0,-4,1,0
1558440571125638,1,2,3,1,1,1,-1,1
1558440571139601,0,-3,-4,-3,-4,0,-2,-1
1558440571139601,-2,-2,3,-1,1,2,-2,-2
1558440571153565,-2,-2,-5,2,-2,-2,-2,-2
1558440571153565,0,-3,0,-4,0,-1,-3,-1
1558440571162533,-1,-2,-1,-2,-1,-1,-2,-1
1558440571162533,-1,-1,-2,-1,-2,-2,-2,-2
1558440571163533,-1,-2,2,-2,1,2,0,-1
1558440571163533,-2,1,-1,0,0,1,2,2
1558440571176496,-3,-1,-1,1,0,0,0,-3
1558440571176496,-1,-2,0,2,-1,0,3,1
1558440571185473,0,-1,-3,-8,-1,2,2,0
1558440571185473,-3,-3,-2,-3,-3,-2,-3,-1
1558440571207417,-1,0,-2,1,0,-3,-3,-2
1558440571207417,-1,-1,-1,-3,-2,-1,-3,0
1558440571209413,-1,-2,0,1,-3,-6,-3,-3
1558440571209413,-1,1,0,1,1,-2,1,-2
1558440571222376,-1,-1,-1,-3,1,-1,0,-1
1558440571222376,0,0,-6,-4,-4,-1,-1,-2
1558440571224369,1,-4,-3,-1,0,-1,-2,-3
1558440571224369,0,0,-2,-3,-2,-3,-4,-1
1558440571236335,0,-2,2,1,0,-1,1,0
1558440571236335,0,0,2,-1,-3,-2,0,1
1558440571245332,-1,-2,2,3,-1,-1,-1,2
1558440571245332,0,1,-2,-2,0,0,-1,-2
1558440571259274,-1,-2,-4,-1,-6,-3,-3,-2
1558440571259274,0,-1,0,-6,1,-1,0,-2
1558440571283210,-1,1,-1,2,3,4,3,-1
1558440571283210,-2,-4,-1,-2,-2,-1,0,-1
1558440571284209,0,1,2,2,2,3,2,0
1558440571284209,-4,-2,-2,2,-2,-4,-3,-1
1558440571285206,0,1,-4,-3,-2,0,0,-2
1558440571285206,-1,-2,0,-6,-2,0,0,0
1558440571305154,3,-2,-1,2,2,4,2,-1
1558440571305154,-3,-3,-1,-2,2,-1,-4,-3
1558440571306150,0,0,3,0,1,0,0,-1
1558440571306150,-1,-1,-4,0,-4,-3,-3,-1
1558440571318117,-3,-1,-1,-3,-2,-4,-3,-2
1558440571318117,-1,-2,0,0,1,2,0,0
1558440571327093,-1,-1,-3,0,-1,-6,-2,-3
1558440571327093,-1,-2,0,2,1,3,1,-1
1558440571342056,-3,0,-4,-7,-2,-1,0,-3
1558440571342056,1,-1,-2,0,0,0,2,0
1558440571344048,0,-3,-2,-1,-1,-2,-1,-1
1558440571344048,1,1,2,2,1,-1,1,0
1558440571356019,-1,-3,2,-3,0,-1,-2,0
1558440571356019,-4,-3,-10,-7,-6,-4,-6,-3
1558440571364992,-1,1,3,0,0,1,0,1
1558440571364992,-1,-2,-1,-3,0,1,1,-2
1558440571378955,0,-3,-1,2,-2,-3,-3,-1
1558440571378955,-1,2,2,3,1,2,-1,0
1558440571385935,-2,-1,0,-4,-2,-3,-3,-1
1558440571385935,-3,-1,-2,-2,-1,-3,-4,-2
1558440571402890,-1,0,-2,-3,-1,3,-1,0
1558440571402890,0,1,0,-1,0,-2,2,0
1558440571403888,0,-2,-4,-3,-1,-3,-1,0
1558440571403888,-1,0,2,6,2,0,0,-3
1558440571415861,-2,-5,-11,-10,-7,-4,-3,-3
1558440571415861,0,-2,0,-1,-2,1,-2,-1
1558440571424834,-1,1,1,1,-1,-1,1,0
1558440571424834,-1,-2,0,-1,-2,-2,-4,0
1558440571439794,-2,-1,2,0,0,-1,-1,-2
1558440571439794,-2,-1,2,-3,0,1,1,-1
1558440571453759,-1,0,1,2,-2,-2,-1,0
1558440571453759,1,-1,-3,-3,1,0,1,0
1558440571462732,-1,-1,-4,0,0,-1,-2,0
1558440571462732,0,-1,1,1,2,1,0,1
1558440571463730,-2,0,2,0,-1,-3,-2,-3
1558440571463730,0,-3,-7,-9,-3,-2,-1,-3
1558440571476695,0,0,2,6,1,4,3,0
1558440571476695,-1,-1,-4,-5,-3,-4,-3,-2
1558440571485670,-1,-3,-2,-3,1,1,0,1
1558440571485670,-2,-1,0,-1,0,-2,-1,0
1558440571507611,-2,-2,0,1,0,-3,-2,-1
1558440571507611,-1,-1,0,-1,-3,-7,-3,-4
1558440571508609,0,0,0,0,2,4,2,-2
1558440571508609,-2,-1,-1,1,-3,0,0,-4
1558440571522569,1,0,-1,-1,1,-1,-2,1
1558440571522569,-1,-3,-1,-2,-1,1,1,-1
1558440571523568,-1,-2,-1,-2,-2,-2,-4,-3
1558440571523568,-1,1,0,0,-2,-3,0,2
1558440571536541,0,-2,-4,-1,-1,-3,-1,1
1558440571536541,1,2,-1,1,0,-1,1,-1
1558440571552490,-1,-1,-3,-6,-1,1,0,-1
1558440571552490,-3,-2,-1,-1,0,1,-1,-1
1558440571559477,-1,1,0,-1,-1,-2,-2,-2
1558440571559477,-1,-1,0,3,-1,-3,0,-2
1558440571566453,1,-1,-2,1,0,0,0,-2
1558440571566453,0,-1,-3,-4,-3,-3,-1,-2
1558440571583408,0,1,2,-1,1,4,2,1
1558440571583408,-3,-1,-3,-1,-3,-1,-3,-1
1558440571584405,-3,-2,-4,-2,0,-1,0,-1
1558440571584405,0,2,3,-2,-2,1,0,1
1558440571596389,-1,0,0,1,-3,-1,-1,-3
1558440571596389,-2,-3,0,-2,2,-2,-1,1
1558440571605349,-1,-1,0,1,-2,-3,-5,-2
1558440571605349,-1,-2,-4,-3,-3,-3,-3,-2
1558440571635269,-1,0,0,-2,1,-1,1,-1
1558440571635269,1,0,-1,0,-2,0,0,1
1558440571636266,-2,-3,-2,-3,-1,-2,0,0
1558440571636266,-1,-3,0,2,0,0,0,-1
1558440571642249,-1,-1,-1,-2,-2,-3,-2,-1
1558440571642249,-1,-1,-1,-2,-1,0,-1,-3
1558440571644244,0,0,-1,1,-1,-3,-3,0
1558440571644244,-2,0,1,-1,0,0,0,-1
1558440571656214,-1,-2,-4,-2,-1,0,1,-1
1558440571656214,-1,0,4,4,0,1,2,0
1558440571665192,-1,-1,1,1,-3,0,-1,0
1558440571665192,0,-2,-3,-1,-1,-2,-1,0
1558440571679153,-1,-2,-1,-3,-3,-4,-3,-2
1558440571679153,-3,-1,-6,-3,-4,-2,-1,0
1558440571688134,-1,1,2,-1,1,-1,1,0
1558440571688134,-1,-1,-4,3,-4,-5,-3,-1
1558440571710072,0,0,1,2,-1,-4,-2,-1
1558440571710072,1,-2,-1,-4,-1,-1,0,0
1558440571711066,-1,1,2,0,1,1,2,0
1558440571711066,-2,-1,3,1,3,3,0,-2
1558440571716054,-3,-3,-4,-2,-3,-4,-5,-1
1558440571716054,-2,-2,-3,-3,-5,-4,-5,-4
1558440571733008,0,-1,-1,1,-1,1,-2,-1
1558440571733008,-1,-2,-3,-3,-1,0,1,-1
1558440571738991,0,-2,1,1,0,2,0,-2
1558440571738991,-1,-2,-1,-5,1,-1,-1,1
1558440571747970,-3,-1,1,1,-1,-3,-1,-1
1558440571747970,1,-2,-2,-4,0,0,0,-2
1558440571762933,0,-1,-2,-3,0,0,0,-2
1558440571762933,0,-1,0,3,-3,-4,-3,-3
1558440571763927,1,0,2,-3,0,-2,-2,-2
1558440571763927,0,1,1,-1,3,0,0,1
1558440571784870,-3,-2,0,3,-1,1,0,-1
1558440571784870,0,-1,-1,-4,-1,3,1,-1
1558440571786863,-3,-3,-5,-2,-6,-4,-5,-3
1558440571786863,-5,0,-1,0,-3,-2,-2,-2
