timestamp,emg1,emg2,emg3,emg4,emg5,emg6,emg7,emg8
1558440593123764,-1,1,3,4,2,4,0,0
1558440593123764,-1,-2,1,-4,0,2,0,2
1558440593124761,0,3,-7,-4,-2,-2,-2,-3
1558440593124761,-3,-1,-1,4,-2,-1,0,-1
1558440593125759,0,-6,-1,-4,0,-1,1,-1
1558440593125759,0,-3,0,-6,1,-2,1,-3
1558440593137726,-6,-5,-1,7,-2,-2,-3,-1
1558440593137726,0,1,-2,-2,-1,-1,0,0
1558440593140718,-1,-3,-2,-6,-1,-1,-2,-2
1558440593140718,-1,4,0,7,-2,-1,-3,-2
1558440593151689,-2,-6,4,0,1,0,0,-1
1558440593151689,0,-2,1,-3,-1,-3,0,-1
1558440593153684,-2,-2,-3,-2,-2,-2,-1,-1
1558440593153684,1,-1,0,2,-2,-3,0,-2
1558440593165652,1,1,-2,-4,0,-2,0,0
1558440593165652,-1,2,-5,-3,0,1,-3,-2
1558440593176623,0,0,1,5,-2,-1,-1,0
1558440593176623,-4,-3,-6,-3,-1,-1,-2,-1
1558440593180612,-1,0,-2,-3,-1,1,1,-2
1558440593180612,1,0,-1,3,0,-1,-5,-2
1558440593195571,-4,-3,-8,-5,-3,-3,-2,-3
1558440593195571,0,0,1,-2,0,2,0,1
1558440593204548,-2,-2,0,-1,-1,-7,-5,-2
1558440593204548,-2,-1,1,2,0,-2,-1,0
1558440593212527,1,1,0,-1,-1,1,1,-2
1558440593212527,0,-2,-2,-2,-3,-3,-3,-2
1558440593249427,1,0,0,0,0,-2,-3,-1
1558440593249427,0,-1,-1,-12,-1,-1,0,-1
1558440593256418,1,1,1,7,2,2,2,1
1558440593256418,-2,-1,-4,-4,-2,-3,-4,-3
1558440593257406,-2,-3,1,-6,-1,-3,-2,0
1558440593257406,-2,-3,-2,0,0,0,0,-2
1558440593258404,-1,1,0,6,-1,-3,-1,0
1558440593258404,1,-1,0,-4,0,-1,1,0
1558440593272367,-1,-7,-10,-9,-4,0,-1,-3
1558440593272367,0,1,2,8,-2,-3,-1,1
1558440593278350,-5,-4,-1,-5,-1,-2,-2,-2
1558440593278350,-2,-8,-1,-2,-1,2,1,-3
1558440593285332,-1,0,-2,4,-2,-2,-1,-1
1558440593285332,-1,0,-1,1,0,0,0,0
1558440593302287,-2,-5,-2,-7,-1,-1,-3,-3
1558440593302287,1,4,1,3,-2,0,0,1
1558440593308272,-1,-2,0,1,0,1,0,-1
1558440593308272,-3,0,0,-1,-2,-4,-3,-3
1558440593315251,1,2,-3,-6,0,0,-2,-1
1558440593315251,1,-1,-1,2,-1,0,-3,0
1558440593331208,1,3,5,2,1,-1,0,1
1558440593331208,0,1,-1,-4,-1,-2,-2,-1
1558440593354148,1,1,-1,2,-1,-1,-1,-2
1558440593354148,-2,-2,-2,-1,0,-3,-3,-2
1558440593355145,0,4,-2,-3,-1,-1,2,0
1558440593355145,-1,-3,-2,1,-2,-2,-1,0
1558440593360131,-2,-4,-2,-1,-2,1,0,-1
1558440593360131,-1,0,0,-1,3,6,4,1
1558440593369107,-4,-4,-5,0,0,-4,-5,-5
1558440593369107,1,5,-2,4,0,-2,-2,-3
1558440593375091,0,-7,6,-3,0,2,2,1
1558440593375091,-3,-5,-4,-1,-3,-3,-3,-3
1558440593391048,2,-1,0,-2,-1,0,0,0
1558440593391048,-1,-2,-3,-1,-1,2,0,-1
1558440593407006,-1,-1,-2,-3,-1,-2,-2,-3
1558440593407006,-3,-2,-4,0,-1,-2,-1,-1
1558440593408003,2,1,3,1,-1,-1,1,2
1558440593408003,-2,-3,-2,-4,-4,-5,-4,-1
1558440593428962,1,3,-1,2,-1,-2,-1,-1
1558440593428962,0,-2,2,0,-1,1,0,-1
1558440593429944,-3,-5,0,-2,-2,1,1,-2
1558440593429944,1,1,1,-1,0,-1,1,0
1558440593434930,-1,0,-3,0,-2,-8,-4,0
1558440593434930,1,1,-3,-4,-2,-1,1,-1
1558440593450889,-3,-2,-2,-3,-3,-4,-3,-2
1558440593450889,-1,-3,0,0,0,1,1,0
1558440593457871,-2,-2,1,0,-2,-3,-1,0
1558440593457871,0,1,-1,-4,-3,-3,-1,0
1558440593464852,0,1,-1,-1,-2,0,-1,-1
1558440593464852,-2,0,1,2,0,0,-1,-2
1558440593481807,-3,0,0,-3,-1,1,-1,-2
1558440593481807,0,2,2,2,-1,-2,0,1
1558440593488788,0,0,-1,0,0,1,0,-1
1558440593488788,0,-2,-4,-1,-1,-2,-3,-2
1558440593502750,2,3,1,-2,-1,3,2,0
1558440593502750,3,3,3,3,0,-4,-3,0
1558440593510728,-1,-1,0,-2,0,-1,-2,-3
1558440593510728,0,-2,2,0,0,0,1,1
1558440593517710,0,0,0,0,0,1,0,1
1558440593517710,-2,-2,-2,0,-1,-2,-4,-2
1558440593525688,-2,0,-3,0,-2,-2,-3,-2
1558440593525688,0,0,-1,-2,1,1,-1,0
1558440593540648,-2,-1,-5,1,-2,0,-1,-2
1558440593540648,0,-2,0,-2,-1,-1,-1,-1
1558440593556607,-1,1,1,-2,-3,-2,0,-1
1558440593556607,-2,-1,1,-1,-2,0,-1,-2
1558440593558601,-1,-4,-3,-4,-2,-1,0,0
1558440593558601,-4,-3,-5,-2,-2,0,-1,-1
1558440593579544,-3,-4,-5,-1,0,0,-1,-1
1558440593579544,-2,-1,-3,-2,1,-3,-3,0
1558440593580542,-1,0,0,-3,-2,-1,-2,2
1558440593580542,2,2,2,1,1,1,-1,0
1558440593585529,-1,1,3,4,-1,-1,-1,0
1558440593585529,-1,-2,-2,-3,0,2,1,-1
1558440593600489,0,0,-5,-3,1,-1,-3,-2
1558440593600489,-2,-2,-1,-2,-2,-3,-3,-2
1558440593608468,-1,1,1,0,1,2,0,2
1558440593608468,-1,-1,-1,-1,-2,-2,-2,-3
1558440593623427,-2,1,2,1,0,-1,0,-2
1558440593623427,-1,1,-1,-1,-1,-7,0,-1
1558440593631405,1,2,0,-1,1,1,-2,-1
1558440593631405,-1,-1,-3,-2,-2,-2,-3,-1
1558440593637391,-1,-2,-4,-1,-2,-3,-2,-2
1558440593637391,0,-2,1,-2,1,3,1,0
1558440593653346,-2,-2,-3,-3,0,0,-2,-2
1558440593653346,-2,0,-1,1,0,-2,-1,-1
1558440593660328,0,-1,-2,-3,-3,-2,-1,-1
1558440593660328,-2,2,3,0,0,-1,-1,-1
1558440593668307,-1,-1,0,-2,-1,0,-1,-1
1558440593668307,-1,-2,-4,-4,0,0,1,1
1558440593683268,0,0,0,1,-2,-2,-3,-1
1558440593683268,-1,0,1,-2,-2,-1,0,1
1558440593691246,0,-2,1,-2,0,1,0,-1
1558440593691246,-1,-2,-5,-3,-2,-3,-3,-2
1558440593698228,-1,1,0,0,-1,0,2,-1
1558440593698228,-1,-6,-3,-2,-2,-2,-3,-4
1558440593705209,-4,-1,-12,-1,-3,-4,-4,-3
1558440593705209,2,4,13,0,0,3,2,0
1558440593720170,-1,-1,-1,1,-1,-1,-1,-3
1558440593720170,0,1,4,0,-1,-2,-2,-2
1558440593728147,1,1,0,-1,1,0,-1,1
1558440593728147,2,0,-6,0,0,2,0,1
1558440593760067,-2,-3,0,0,0,-2,-3,0
1558440593760067,0,1,-1,-1,1,0,-2,0
1558440593760067,-1,-1,-1,-2,-1,0,0,1
1558440593760067,-1,1,1,2,0,-3,-1,-5
1558440593766046,-2,-1,0,-3,-2,-2,0,-1
1558440593766046,-2,-4,-5,-1,-1,-1,-2,-1
1558440593767043,-2,-4,-2,0,-1,-1,-1,-1
1558440593767043,0,-1,-1,0,-1,0,-3,0
1558440593780007,-3,0,-1,-4,0,-1,-2,-1
1558440593780007,-1,-1,-7,1,-3,-1,0,-2
1558440593787987,-2,-6,10,-1,2,2,3,1
1558440593787987,-1,-2,-2,1,-1,-3,-3,-2
1558440593802948,0,-2,-1,-1,0,-2,-1,2
1558440593802948,-2,-4,-4,-5,-3,-1,-3,-1
1558440593810928,2,2,0,-3,-1,-3,-1,1
1558440593810928,-4,-2,-6,0,-3,-2,-3,0
1558440593817906,0,-1,3,1,0,3,0,-2
1558440593817906,-5,-5,-5,1,-2,-7,-5,-5
1558440593833864,-1,-2,-6,-3,-3,-1,0,-4
1558440593833864,0,0,4,-2,-2,-2,0,1
1558440593839862,-1,-1,-3,1,0,1,-1,1
1558440593839862,-1,-1,0,0,1,0,0,1
1558440593855806,1,2,0,-2,0,-2,-1,-1
1558440593855806,-3,-2,-1,2,-3,-3,-2,-1
1558440593862788,1,2,-4,-2,0,1,-2,-1
1558440593862788,1,3,6,-1,0,2,-2,1
1558440593870767,0,0,0,4,2,0,-3,-3
1558440593870767,-3,-2,-2,-1,3,2,2,-1
1558440593885726,-2,-3,0,-1,-2,-2,-2,-2
1558440593885726,-1,0,-6,-3,-2,-2,2,-1
1558440593893704,0,0,4,-1,-2,0,-3,2
1558440593893704,0,-4,-3,-4,-1,-1,-3,-1
1558440593900688,0,3,5,4,0,1,2,0
1558440593900688,-2,-1,-2,-2,0,0,0,-2
1558440593907668,2,-2,-5,-4,-3,0,1,-1
1558440593907668,-2,-4,-3,-4,0,-1,-1,-1
1558440593922627,0,1,-3,0,0,-2,1,-1
1558440593922627,2,-2,1,-1,-1,3,1,2
1558440593930605,4,13,10,9,0,-1,3,1
1558440593930605,-6,-10,-10,-7,-5,-2,-1,-3
1558440593937587,-3,-2,-4,-2,-1,-3,-3,-2
1558440593937587,0,-1,0,-4,0,0,-1,-2
1558440593969503,-2,0,2,5,0,1,-1,-3
1558440593969503,0,4,-1,-1,-2,-2,-4,-2
1558440593971496,-3,0,-3,-6,-4,-2,-2,-2
1558440593971496,-3,0,1,1,-1,0,-1,-3
1558440593972494,-3,-3,-6,-3,-1,-4,-1,0
1558440593972494,3,6,2,0,-1,-1,0,-2
1558440593984462,1,-4,1,-3,-1,0,0,0
1558440593984462,-1,-2,0,1,-1,-1,-2,1
1558440593991443,-2,-6,-2,-2,-3,-1,-3,-1
1558440593991443,1,4,2,1,1,0,0,1
1558440593997429,1,-3,1,8,0,-1,0,0
1558440593997429,-3,0,-1,-6,-3,-1,1,-1
1558440594013390,-2,-3,-3,-3,-1,-2,-3,-2
1558440594013390,2,0,3,0,1,1,0,0
1558440594020365,-2,-5,0,1,-1,-3,-3,-1
1558440594020365,-1,-1,-6,-1,1,0,0,-1
1558440594027356,0,2,-1,-2,-3,-4,-2,-1
1558440594027356,0,-2,8,2,0,2,-2,0
1558440594042307,-2,4,2,0,-1,-2,-1,-2
1558440594042307,2,3,3,11,0,1,1,0
1558440594051285,-2,-1,-7,-11,-2,-4,-5,-5
1558440594051285,-1,-3,-4,-1,-3,-2,-2,-2
1558440594058270,-4,-4,-5,-4,0,1,-1,-1
1558440594058270,-1,-1,1,-2,-1,0,-2,-1
1558440594073227,1,1,7,8,4,3,1,1
1558440594073227,-1,-2,-5,-12,-3,-2,1,-2
1558440594080209,-1,-2,-7,-2,-1,1,1,-1
1558440594080209,0,1,-1,0,-1,-2,-3,-1
1558440594088186,-4,-3,-1,-2,1,3,1,0
1558440594088186,-1,1,0,1,0,1,1,0
1558440594103194,0,1,-2,-3,-1,-2,-1,0
1558440594103194,0,5,2,4,0,-2,-1,0
1558440594111125,-4,-4,-6,-8,-3,-2,-3,-4
1558440594111125,-2,1,-2,1,0,-1,0,0
1558440594118104,0,2,3,0,-2,0,-2,-2
1558440594118104,-3,-4,-3,-3,-1,0,-2,-1
1558440594133064,1,-2,1,1,-2,-4,-1,1
1558440594133064,-2,0,-1,1,1,0,-1,1
1558440594140051,1,-1,-1,-2,-2,-1,-1,-1
1558440594140051,-2,-3,-3,-3,-1,0,-1,-2
1558440594148024,1,1,-1,-1,-1,0,1,-2
1558440594148024,1,1,2,0,0,-3,1,-2
1558440594162984,-1,-1,3,1,1,-1,-2,-2
1558440594162984,-2,-4,-8,0,-1,-1,-2,-2
1558440594170962,0,0,-6,-10,-4,-2,-2,0
1558440594170962,-2,-2,-2,-2,-1,-1,-1,-1
1558440594184925,-1,-8,-3,-4,-1,0,-1,0
1558440594184925,-1,-4,-1,0,-1,-1,-2,-1
1558440594193901,0,-2,1,3,0,0,0,-1
1558440594193901,-1,-4,-4,-1,0,-1,-1,0
1558440594200884,0,1,2,0,-3,1,-2,0
1558440594200884,0,-1,-4,-2,-1,-1,0,0
1558440594207868,-3,-1,0,1,-2,-2,-2,-1
1558440594207868,0,0,0,2,0,2,1,-2
1558440594222824,1,1,5,-1,-2,0,1,0
1558440594222824,1,2,1,-5,-2,1,-1,-1
1558440594238784,-2,-1,-4,-1,-1,-2,-2,-1
1558440594238784,-1,2,1,8,0,-2,-2,0
1558440594245764,0,0,-1,-3,0,-3,-1,-2
1558440594245764,0,2,5,-1,-2,-5,-2,-3
1558440594254743,0,-5,-1,1,0,0,-2,-2
1558440594254743,-3,-6,-5,-1,-1,-3,-2,-2
1558440594268807,1,1,1,1,0,-1,-1,1
1558440594268807,0,0,1,-4,-1,1,-1,1
1558440594269703,-1,-4,-3,1,-2,-4,-1,-1
1558440594269703,-2,-2,1,-1,-2,-1,-3,0
1558440594291644,-4,-3,-3,-1,-2,0,2,-1
1558440594291644,-2,1,1,-2,0,0,0,1
1558440594292647,-1,-1,-5,-1,-1,0,0,-1
1558440594292647,1,1,4,-2,0,1,0,0
1558440594313584,-2,0,-7,0,0,-3,-2,-2
1558440594313584,-2,-3,0,1,1,0,-1,-2
1558440594314591,0,1,1,-1,1,1,1,1
1558440594314591,-1,-3,-2,0,-3,-2,-3,-1
1558440594336522,0,1,-2,-4,-3,-1,-2,0
1558440594336522,1,1,0,0,0,2,1,-2
1558440594337519,1,1,-1,0,2,1,-2,-1
1558440594337519,-1,-2,-1,0,0,-2,1,2
1558440594342506,-5,-4,-3,1,-1,-2,-2,-3
1558440594342506,-3,-2,0,-3,-1,0,0,-1
1558440594367515,-5,-4,-2,-4,-3,-2,-3,-2
1558440594367515,-2,1,-6,-1,-1,0,-1,-1
1558440594368439,-2,-3,-4,-2,-2,-1,-1,-2
1558440594368439,1,0,1,1,-1,-4,-2,-1
1558440594381543,-2,-1,0,1,-1,0,-1,-1
1558440594381543,-1,-1,-4,-4,-1,-2,-2,-1
1558440594388381,2,0,1,-2,-1,-1,-3,1
1558440594388381,-2,1,-1,-2,-1,0,0,0
1558440594389380,1,0,0,1,-1,-2,0,0
1558440594389380,-1,-1,-1,-4,-2,-2,-2,-1
1558440594403467,-1,0,1,-1,0,-2,-2,-3
1558440594403467,-1,-3,-1,-1,0,0,-1,0
1558440594411464,1,4,0,-1,1,-2,1,0
1558440594411464,-1,1,-3,-3,0,-1,0,-3
1558440594425428,-3,-5,-4,-3,-3,0,-3,-1
1558440594425428,-1,-2,-3,-3,-1,-4,-1,-2
1558440594441240,0,-1,0,-2,-1,-2,-1,0
1558440594441240,-3,-1,0,1,0,-1,0,-1
1558440594448221,2,0,4,-1,-1,-1,1,1
1558440594448221,-3,-5,-7,-2,-1,0,-1,-1
1558440594449218,-2,2,6,0,-1,2,-1,1
1558440594449218,-1,0,3,1,0,1,1,1
1558440594463181,0,0,-1,0,1,-1,-1,0
1558440594463181,-3,-4,-5,-10,-4,-3,-2,-1
1558440594471159,3,2,2,3,1,-1,0,0
1558440594471159,-1,-2,-2,-4,-4,-4,-1,-1
1558440594485121,-1,0,0,3,0,2,0,-2
1558440594485121,1,4,6,5,2,2,2,1
1558440594493100,-5,-6,-6,-4,-3,-4,-4,-4
1558440594493100,-2,-3,1,-2,-1,-2,-2,-3
1558440594508061,-2,0,2,0,0,-1,2,1
1558440594508061,-1,0,-2,0,0,-2,-2,-2
1558440594509058,-4,-3,-3,-3,-1,1,-1,0
1558440594509058,-2,-2,-5,-2,-2,-1,-1,-1
1558440594523023,2,2,1,-1,1,1,1,-1
1558440594523023,-1,-1,-1,-2,-2,-3,-1,-2
1558440594530999,-1,3,4,2,-1,1,1,-2
1558440594530999,-1,1,1,-1,0,-1,-2,0
1558440594544962,-3,-3,-2,-4,-2,-4,-3,0
1558440594544962,-1,0,-1,-1,-2,-2,1,-1
1558440594553938,1,-2,-2,-1,-2,-2,-1,-3
1558440594553938,1,-2,0,1,1,4,3,1
1558440594568902,0,4,1,2,-2,0,2,2
1558440594568902,-3,-2,-3,-3,-2,-4,-2,-3
1558440594568902,1,-4,3,0,-1,2,4,2
1558440594568902,-1,-1,3,-2,-3,-2,-4,-2
1558440594582868,0,-1,1,0,-1,2,0,0
1558440594582868,1,-2,-2,-1,0,-1,-2,0
1558440594590848,2,4,3,0,2,-2,0,0
1558440594590848,-1,0,-1,-2,0,-1,-1,-2
1558440594605802,-1,-2,-4,-5,-2,-4,-1,-2
1558440594605802,0,-2,-1,3,-2,1,-1,-1
1558440594613780,-1,-5,-1,-5,0,-3,-2,1
1558440594613780,-2,0,1,2,-1,0,-1,1
1558440594628739,-3,-2,-5,-2,-1,-1,-3,-2
1558440594628739,-1,3,5,1,1,-1,1,1
1558440594629737,-3,-1,-5,-1,-1,-2,-4,-4
1558440594629737,0,1,-1,-3,-3,2,-1,-1
1558440594642715,-3,-1,-3,-1,-1,-2,0,-1
1558440594642715,0,3,-4,0,1,2,0,-1
1558440594651729,-4,-2,5,1,-1,-3,-3,-2
1558440594651729,2,8,-5,1,2,-1,-1,0
1558440594665746,2,-6,18,-7,0,0,0,1
1558440594665746,1,5,9,3,-3,-2,-2,0
1558440594673626,-5,-7,-3,-1,-1,-1,0,-2
1558440594673626,-3,-4,-6,-4,1,1,1,-2
1558440594687688,-1,1,-15,2,-1,-2,-4,-4
1558440594687688,0,-1,4,1,0,1,2,-1
1558440594696598,-1,-8,-35,1,-3,-9,-8,-7
1558440594696598,-1,-7,28,-8,-1,2,5,3
1558440594712556,3,10,0,-1,-2,-2,0,-2
1558440594712556,-4,-7,-6,-5,-2,-2,-4,-2
1558440594712556,-3,4,-1,1,-3,0,-1,-2
1558440594712556,-2,-4,-9,3,-1,-3,-2,-2
1558440594725674,-1,-2,1,5,0,0,0,-1
1558440594725674,2,2,3,-1,1,1,1,3
1558440594733466,0,-3,6,-9,-3,-1,-1,3
1558440594733466,1,1,-8,-4,-2,-5,-4,-1
1558440594748418,-4,-2,0,-6,-5,0,0,0
1558440594748418,-2,-4,-7,-2,-1,-1,-2,-2
1558440594749416,1,2,6,3,0,2,0,0
1558440594749416,-1,-3,-2,-1,-1,0,0,-1
1558440594762415,-3,-2,-3,0,0,-3,-1,0
1558440594762415,-4,-5,-4,2,-4,-3,-2,-4
1558440594771357,2,0,1,-1,2,1,0,3
1558440594771357,-1,0,-3,-5,-4,-3,-3,-3
1558440594785354,-1,-3,-3,-2,-2,1,1,-3
1558440594785354,-2,-2,-5,-4,-1,-2,-1,-2
1558440594793332,0,3,8,0,0,0,1,0
1558440594793332,-3,-4,-6,2,-1,-3,-2,-2
1558440594808594,-2,-4,-8,-2,-2,0,-4,1
1558440594808594,0,0,1,-1,-2,-2,-1,0
1558440594816237,-2,-3,-7,-5,-1,-1,0,-3
1558440594816237,-2,-1,0,4,0,-1,0,0
1558440594823217,1,-2,-3,-5,0,0,0,-1
1558440594823217,-5,-7,-4,0,-1,-4,-4,-3
1558440594831549,0,-1,-1,-4,1,2,1,0
1558440594831549,-2,-1,-2,-3,-1,-1,-1,-3
1558440594845160,-3,0,4,5,-1,-1,-3,-3
1558440594845160,1,-1,-4,-4,0,-1,-3,-1
1558440594853137,1,4,6,0,2,0,-1,2
1558440594853137,-1,-4,-7,-1,-1,-4,-2,-2
1558440594868441,-1,-2,-4,-3,-2,-2,0,-1
1558440594868441,-1,2,1,-2,-2,1,0,1
1558440594876406,0,1,3,4,0,2,0,-2
1558440594876406,-2,-3,-5,-5,-4,-2,-2,-2
1558440594883395,-2,-2,-5,-1,1,-1,0,0
1558440594883395,-4,-5,-2,0,0,2,2,-1
1558440594891353,-2,-1,-1,5,-1,-4,-2,-2
1558440594891353,-1,-4,3,-1,1,2,2,0
1558440594905002,0,1,3,4,2,0,0,1
1558440594905002,-2,-5,-5,-3,-4,-3,-2,0
1558440594914299,-2,3,1,-1,1,-1,-3,0
1558440594914299,-1,-4,4,2,2,2,1,0
1558440594928284,-1,3,4,-2,-1,1,-2,-2
1558440594928284,0,-2,-4,-1,1,1,-1,0
1558440594944171,0,-3,-5,-4,-2,1,-1,-1
1558440594944171,4,10,9,1,-1,-3,0,0
1558440594946020,2,-2,-5,-4,-1,-2,1,0
1558440594946020,-2,-11,6,-1,1,-1,1,-1
1558440594951487,-1,0,5,-1,-3,-1,0,-3
1558440594951487,0,1,-1,0,1,0,-2,2
1558440594966465,0,-1,2,1,-2,0,-1,-1
1558440594966465,3,6,0,2,0,-1,-2,-1
1558440594973164,1,0,-8,-2,0,-3,0,-1
1558440594973164,-1,-5,4,1,-1,-1,-2,1
1558440594988122,-6,-8,-4,-1,0,-2,-2,-2
1558440594988122,0,-3,-3,-1,-2,-1,-1,-2
1558440594996384,-3,-3,-1,-2,-3,0,-1,-2
1558440594996384,-1,3,0,1,-1,-2,-1,-1
1558440595012088,0,0,0,0,2,1,2,-1
1558440595012088,1,3,1,-3,-2,-2,-3,0
1558440595013179,-3,-5,-7,-2,-1,2,0,0
1558440595013179,-1,1,-2,-6,-2,-3,-3,-3
1558440595026023,-4,-3,1,-1,-4,-3,-2,-1
1558440595026023,-4,-2,-1,-4,-2,-4,-1,0
1558440595041257,0,2,2,2,-1,-2,-2,0
1558440595041257,0,-2,-2,4,2,2,-1,-2
1558440595048266,0,-2,-3,-3,1,3,1,-1
1558440595048266,0,3,-4,-1,2,-3,0,0
1558440595056940,0,3,3,-1,-3,-3,-1,-1
1558440595056940,-4,-7,-9,-3,-4,-1,0,-3
1558440595080031,0,1,4,2,2,1,-2,1
1558440595080031,0,-4,-2,0,-1,2,2,0
1558440595080031,0,1,2,0,3,2,-2,-1
1558440595080031,-2,-3,-3,-4,-2,-4,0,1
1558440595086141,-2,1,-2,1,-1,-4,-4,-1
1558440595086141,0,3,2,1,0,2,-1,-1
1558440595094090,0,3,-11,-4,-2,-3,-1,-2
1558440595094090,3,5,5,-1,-3,-3,-3,-2
1558440595108091,-2,1,-1,-1,-2,-5,-1,-3
1558440595108091,-1,-1,-3,0,-1,1,0,1
1558440595116857,-1,-3,-6,-2,0,0,0,-1
1558440595116857,2,4,2,2,0,1,-1,0
1558440595138723,-2,-2,-3,-3,-3,-1,0,-1
1558440595138723,3,4,4,-2,0,-1,-2,-3
1558440595140714,-2,-7,-7,0,-3,-1,-2,-1
1558440595140714,-3,-4,-7,-1,1,0,-1,-1
1558440595145970,-1,-4,-4,-3,-4,-1,0,-2
1558440595145970,-4,-4,2,-1,-1,-3,1,0
1558440595154320,-3,-1,2,-1,-2,-6,-1,-1
1558440595154320,-2,-5,-3,-2,0,-2,0,-1
1558440595168020,2,3,0,0,0,-1,-1,-1
1558440595168020,-3,-3,-7,-1,-3,1,-2,-2
1558440595176968,-3,-2,4,0,-1,1,0,0
1558440595176968,-1,2,-1,-1,-1,-1,-2,0
1558440595199362,0,-2,0,-1,-1,-2,-3,-1
1558440595199362,-1,2,1,4,-1,-2,-2,0
1558440595200915,0,0,-3,-12,-1,2,1,-1
1558440595200915,-3,-5,-3,-1,-3,0,-2,-2
1558440595221847,0,2,-2,0,0,0,0,1
1558440595221847,0,-1,2,-1,0,0,1,1
1558440595222846,0,-2,1,2,2,0,0,1
1558440595222846,0,0,-2,0,-1,-2,-2,-1
1558440595227862,-2,0,-1,-3,-2,-3,-1,-2
1558440595227862,-2,0,0,-1,-1,-1,-1,-1
1558440595243824,-2,-6,-5,-3,-1,0,1,-2
1558440595243824,-4,0,1,1,0,0,2,0
1558440595250769,-1,-6,-3,-3,0,-3,-1,-1
1558440595250769,1,-1,-5,-3,-1,-3,-1,-2
1558440595259749,2,-2,-2,1,-2,-1,-4,1
1558440595259749,-2,-2,-4,-4,-2,1,0,0
1558440595265951,-4,-4,-4,-1,-2,0,-4,-3
1558440595265951,0,1,4,-1,-1,-1,-2,-1
1558440595274710,2,1,1,2,0,-2,-2,1
1558440595274710,1,-2,0,0,1,0,0,0
1558440595288005,2,4,3,-1,2,2,1,1
1558440595288005,0,-1,0,1,0,-1,1,0
1558440595297038,-3,-6,1,-1,0,0,0,-3
1558440595297038,-4,-4,-9,-4,-2,-3,-1,-2
1558440595327900,2,2,0,0,0,-2,1,1
1558440595327900,0,2,5,0,1,2,0,-1
1558440595328562,-2,-1,-4,0,-4,-3,-5,-5
1558440595328562,1,1,-1,1,-1,-1,-2,0
1558440595329563,1,-1,2,-2,-1,0,1,1
1558440595329563,-5,-10,-7,-1,-1,-1,-2,0
1558440595334548,-1,1,2,-1,-2,-2,-1,-2
1558440595334548,0,1,4,1,1,1,1,-1
1558440595348691,0,-2,-3,-4,-2,-2,0,-1
1558440595348691,-3,0,-7,-5,-2,-6,-3,-2
1558440595356488,0,4,1,0,-1,-2,-2,1
1558440595356488,-3,-3,1,-1,-2,-1,-1,-2
1558440595370732,-1,1,0,0,0,1,0,0
1558440595370732,0,-2,-1,-1,0,0,2,1
1558440595379426,-2,-2,-1,0,0,-1,0,-1
1558440595379426,2,0,-1,-3,-1,-1,-1,-2
1558440595394436,-2,-1,-2,-3,-4,-1,-1,-1
1558440595394436,0,0,-1,-2,0,0,-1,-2
1558440595400753,2,1,2,-1,0,0,0,1
1558440595400753,1,3,4,3,2,-1,0,0
1558440595408744,-2,-3,0,2,1,-1,-3,0
1558440595408744,-4,-8,-3,-3,-3,-3,-3,-2
1558440595416711,-1,-4,-2,-1,1,-2,-1,1
1558440595416711,-2,-5,-8,-4,-3,-2,-1,-2
1558440595430674,1,0,1,-1,0,0,1,-1
1558440595430674,-2,-2,-3,-4,-2,-2,-1,-3
1558440595447504,-1,1,2,2,1,3,2,0
1558440595447504,-2,1,3,1,-1,0,-1,-2
1558440595448242,0,-3,-1,1,0,0,-2,-1
1558440595448242,2,0,-1,-1,-1,1,1,0
1558440595454373,-3,-5,-4,-2,-4,-6,-5,-3
1558440595454373,1,2,2,-1,1,-1,0,1
1558440595468565,-3,-2,-5,-3,0,-1,-3,-2
1558440595468565,-1,1,3,3,-1,-1,-1,-1
1558440595477194,-2,0,-1,-3,-1,1,0,0
1558440595477194,0,0,-4,-2,-1,-1,-3,1
1558440595490537,-1,0,1,1,1,1,0,0
1558440595490537,1,1,0,-1,-1,0,0,1
1558440595499372,-2,-2,-3,-3,-1,-3,-1,-3
1558440595499372,-1,0,1,2,-2,-2,-1,-3
1558440595505090,-1,-2,3,-1,-2,-2,-1,-2
1558440595505090,1,0,-1,1,-1,1,-2,-3
1558440595522045,1,2,3,-3,-2,2,2,0
1558440595522045,0,-4,0,-3,-3,-1,-2,1
1558440595528031,-3,1,1,0,-2,-3,0,-3
1558440595528031,0,0,1,-3,0,0,0,-2
1558440595538005,3,4,3,4,2,1,0,-1
1558440595538005,0,-2,-4,0,-1,-1,0,0
1558440595551091,0,1,2,-5,-2,-4,0,-1
1558440595551091,-2,-1,-1,-1,-3,-3,-1,-2
1558440595559180,0,-2,-1,-1,0,1,1,3
1558440595559180,-2,-5,-2,2,-1,0,0,1
1558440595565935,1,1,1,4,1,3,1,1
1558440595565935,-1,-1,-4,-6,-3,-4,-2,0
1558440595573907,-1,-2,-1,-1,-2,-4,-3,-2
1558440595573907,-1,-3,-4,-3,-1,-3,-3,-3
1558440595587868,0,0,-2,0,0,0,-1,0
1558440595587868,-1,1,0,-1,-2,1,1,0
1558440595597018,-1,-4,-3,-4,-1,-2,-2,0
1558440595597018,0,-1,0,-2,0,0,2,0
1558440595620172,-1,-1,1,-2,-1,-1,-2,-2
1558440595620172,0,1,3,0,0,0,0,-1
1558440595621281,-3,0,-3,-2,-4,-2,0,0
1558440595621281,-2,3,2,2,2,3,1,-1
1558440595625768,-3,-7,-4,-1,-3,-4,-1,1
1558440595625768,2,3,2,0,2,0,-1,0
1558440595634743,-1,-2,-2,-3,-2,-2,-2,0
1558440595634743,-2,-4,-3,-2,-3,-4,-2,-2
1558440595648082,0,-1,-3,-1,0,2,-1,-1
1558440595648082,-4,-3,-2,2,-1,-3,-1,-1
1558440595656807,1,6,3,-2,0,-2,-2,-2
1558440595656807,-3,0,-2,-5,-5,0,-1,-1
1558440595670984,0,-3,-3,-2,-2,-2,-2,-1
1558440595670984,0,-4,-2,0,-3,-1,-2,0
1558440595679625,-1,-1,-2,5,1,3,2,-1
1558440595679625,-1,-2,-4,-2,-1,-2,-2,-2
1558440595694912,-2,0,-4,-3,-3,-3,-1,-2
1558440595694912,-2,-2,-2,1,0,-3,-1,-2
1558440595695583,-2,-1,3,3,0,1,-1,-2
1558440595695583,1,-3,-1,-1,0,1,-1,-1
1558440595708709,-2,-2,-3,-7,-1,-1,-2,0
1558440595708709,-1,-4,-2,0,-1,0,1,1
1558440595716832,-2,-1,-2,-3,-1,-3,-2,-2
1558440595716832,0,-2,-2,-1,0,-2,1,-2
1558440595730755,0,2,2,2,2,0,0,3
1558440595730755,-4,-5,-4,-2,-1,-1,-1,-1
1558440595747474,-2,-1,-1,-2,0,1,-1,-1
1558440595747474,1,-1,-2,0,-3,-1,-2,-2
1558440595748440,-1,-2,1,1,-1,-1,0,-1
1558440595748440,1,1,0,-5,-1,-2,-1,-2
1558440595754433,-1,0,-3,0,-3,-3,-2,0
1558440595754433,-3,0,-1,-3,-2,-4,-2,-3
1558440595768715,-1,-2,-2,-1,-2,-1,-2,-2
1558440595768715,0,2,3,1,1,3,-1,1
1558440595776587,-2,-7,-5,-4,0,-3,-1,-1
1558440595776587,-3,0,1,-3,-2,-1,-1,1
1558440595799304,-1,1,3,3,0,-4,-2,-1
1558440595799304,3,4,4,-2,0,1,-1,-1
1558440595800302,-1,-6,-7,-3,-1,0,1,-1
1558440595800302,0,-1,-1,-3,-3,0,-1,1
1558440595805290,0,-1,-2,1,0,0,-1,0
1558440595805290,-2,0,0,-1,0,0,0,-2
1558440595830222,-2,-4,-3,-4,-4,-2,-2,-2
1558440595830222,-2,-1,-2,2,0,-4,-5,-2
1558440595831290,-3,1,1,-2,2,2,-1,-2
1558440595831290,-1,-3,-5,0,0,-3,-1,-1
1558440595852366,-1,1,0,-1,-3,-1,1,-1
1558440595852366,3,4,9,5,1,0,1,-1
1558440595853163,-1,-3,-5,-3,-2,0,0,-2
1558440595853163,-4,-6,-7,-3,-2,-2,-1,-3
1558440595859358,0,0,3,-1,-1,0,1,-1
1558440595859358,3,2,0,-1,1,-2,-2,0
1558440595874434,-2,-3,-1,1,-2,-2,-2,-2
1558440595874434,-1,-3,-3,-4,-3,-1,0,1
1558440595876098,0,-1,-1,0,1,1,0,0
1558440595876098,-1,-4,-3,-1,0,-1,2,1
1558440595897289,-1,0,0,0,-1,1,0,-1
1558440595897289,1,8,0,2,-1,-2,-4,-2
1558440595903286,0,0,3,1,-2,-3,-4,-2
1558440595903286,-1,-4,-2,-2,-1,-1,-2,0
1558440595911037,-1,-4,-3,-1,-2,-2,0,-3
1558440595911037,0,-1,0,0,-1,-2,0,-2
1558440595919236,2,5,3,0,1,0,-1,2
1558440595919236,-1,1,2,0,-1,-2,0,-2
1558440595926109,-2,-1,3,-2,-2,-2,-1,0
1558440595926109,-2,-4,-3,-3,-4,-2,-2,-2
1558440595934216,-2,0,0,0,0,2,0,-1
1558440595934216,-3,-4,-4,-3,-2,-1,-1,0
1558440595948166,-1,2,4,0,-1,0,-1,-1
1558440595948166,-1,-3,-2,-1,1,-2,-1,-3
1558440595956888,-3,-4,-2,0,-2,-2,0,-1
1558440595956888,-1,1,-2,0,1,2,-1,-2
1558440595971017,0,-4,-2,-1,-2,-1,0,0
1558440595971017,-1,0,2,-1,-1,1,0,0
1558440595979820,0,-2,-3,-2,-1,1,-2,-2
1558440595979820,-2,-1,1,-2,-2,-3,0,0
1558440596001769,-2,0,-4,-3,-2,-2,0,-3
1558440596001769,-1,-2,-1,-1,-1,-2,-2,-2
1558440596002763,-2,-2,-1,-2,0,-1,-3,-1
1558440596002763,0,0,-1,-1,0,1,0,-2
1558440596007745,2,5,4,4,2,-1,2,0
1558440596007745,-3,-5,-4,-1,-3,-4,-4,-3
1558440596022705,-1,-2,-2,-2,-3,-1,0,-2
1558440596022705,-3,-2,0,0,1,1,-2,-1
1558440596030683,1,4,4,0,3,3,2,1
1558440596030683,0,-1,-1,0,1,-1,-1,1
1558440596056617,-2,-3,-2,-2,-1,-4,-1,0
1558440596056617,-1,-1,3,0,-3,1,1,1
1558440596056617,-2,-5,-3,-4,-3,-4,-4,-1
1558440596056617,0,1,4,0,2,1,1,2
1558440596061058,-2,-1,-1,0,0,0,-2,-2
1558440596061058,-3,0,-4,-3,-2,-3,-1,-2
1558440596076911,-2,-2,-5,-2,-1,-2,-1,-3
1558440596076911,-1,3,4,2,0,0,0,-2
1558440596078589,-1,-5,-4,-3,-1,-1,-1,-1
1558440596078589,-2,-2,-1,-2,1,0,0,-4
1558440596099852,1,-1,1,-3,-1,1,0,0
1558440596099852,-2,1,3,-1,-1,-2,-2,-3
1558440596100499,0,3,-3,-2,-2,-1,-2,-1
1558440596100499,-1,1,1,1,-1,2,-1,0
1558440596129775,-1,-1,-3,1,0,-2,0,-2
1558440596129775,1,-1,-1,-2,0,0,1,1
1558440596131415,0,-2,-2,-2,-1,-1,0,-1
1558440596131415,1,1,1,1,-1,-2,-2,-1
1558440596132413,-1,1,1,0,-1,0,-1,0
1558440596132413,-3,-5,-3,-2,-1,-2,0,-2
1558440596136756,-2,1,2,2,1,1,0,0
1558440596136756,1,-1,-1,-1,0,0,-1,-1
1558440596150368,-2,-2,-5,-5,-4,-2,-2,-1
1558440596150368,0,0,-1,0,1,1,0,1
1558440596159406,-4,-3,-1,-1,-4,-2,-2,-1
1558440596159406,1,3,3,-1,0,1,2,1
1558440596174643,0,-1,2,-1,-1,-1,-1,-2
1558440596174643,-1,-3,-8,-5,-3,-1,0,-1
1558440596175298,-2,1,-2,0,1,-2,0,-3
1558440596175298,-2,-5,-1,-4,0,0,1,-1
1558440596188266,4,1,-1,-4,-2,-1,1,-1
1558440596188266,0,2,1,-1,0,0,0,1
1558440596204219,-2,-1,0,-2,0,-2,-2,-1
1558440596204219,-2,-10,-13,-4,-3,-3,-5,-3
1558440596210204,-2,-1,-2,2,1,1,-3,-1
1558440596210204,-1,-3,-2,-3,-1,1,-4,-2
1558440596235648,2,1,1,1,-2,1,0,0
1558440596235648,-3,-3,-3,2,-1,-5,-4,-4
1558440596235648,-2,-4,-3,-1,0,-4,0,0
1558440596235648,-2,-4,-7,-4,0,0,-1,-1
1558440596237181,2,4,2,3,1,1,2,2
1558440596237181,-2,1,-2,-7,-1,2,2,0
1558440596248714,-3,-5,-6,-3,-2,-3,-3,-3
1558440596248714,-1,-2,0,0,-3,-2,-1,-1
1558440596256695,0,-1,3,0,-1,1,0,-2
1558440596256695,-1,2,-3,1,5,0,0,0
1558440596270659,-6,-11,-16,-11,-7,-7,-4,-4
1558440596270659,0,0,0,-1,-2,-1,-1,0
1558440596279669,0,0,1,-2,-1,-1,-1,1
1558440596279669,0,1,3,6,-1,-1,1,1
1558440596302572,0,4,-3,3,1,0,0,-1
1558440596302572,0,2,2,0,-1,2,0,-1
1558440596303570,-1,-2,-3,-3,-1,-2,-2,-1
1558440596303570,1,1,-2,0,-1,-1,0,-2
1558440596307594,1,4,4,1,1,-1,-2,0
1558440596307594,2,-3,0,0,-2,-2,0,0
1558440596316936,0,2,1,-5,-1,0,-1,0
1558440596316936,-4,-2,-5,-3,-1,-6,-5,-3
1558440596330941,1,3,7,-1,1,3,3,-1
1558440596330941,-1,-1,0,2,0,-1,-1,-2
1558440596339475,-2,-3,3,2,2,-1,-1,1
1558440596339475,0,-6,-7,-4,-3,0,-1,1
1558440596354438,0,-1,1,-1,-2,-1,-3,-1
1558440596354438,-3,6,3,1,0,0,-3,1
1558440596355431,-1,1,-2,-2,-1,-2,0,-2
1558440596355431,1,-1,-1,-1,-2,-1,-1,-1
1558440596376733,-2,-6,-5,-1,0,-2,2,-1
1558440596376733,-2,-5,-6,-1,-1,-1,-1,-2
1558440596384354,0,-3,0,2,1,-1,0,1
1558440596384354,0,-2,2,-3,-2,-2,0,1
1558440596399654,1,-1,-3,-1,-2,0,0,1
1558440596399654,0,1,1,-1,-1,-1,-3,-1
1558440596405302,-5,-6,-7,-3,-2,-1,-3,-3
1558440596405302,-3,-2,1,0,-2,0,-2,-1
1558440596414274,2,3,4,5,2,0,-2,-1
1558440596414274,-1,1,0,-6,1,-2,1,-1
1558440596416387,1,4,0,1,-1,0,-1,1
1558440596416387,-1,-2,-2,-3,-2,-2,1,-2
1558440596437469,-3,-4,-1,-2,-1,-2,-2,-1
1558440596437469,0,0,-1,1,-1,0,1,0
1558440596438211,-4,-3,-1,-1,-2,0,-1,-1
1558440596438211,-2,2,3,-1,1,-1,-1,-2
1558440596459454,-1,-4,3,2,-1,0,1,0
1558440596459454,-1,-8,-8,-3,-2,-3,-2,-4
1558440596460152,-1,-6,1,-1,-2,-2,0,-3
1558440596460152,3,4,4,3,1,1,0,1
1558440596474454,-2,-5,-5,-1,-2,-1,-2,-2
1558440596474454,-1,-2,-1,-1,-2,-2,-1,1
1558440596475114,-2,-3,-4,0,-1,-2,-1,-2
1558440596475114,-1,-3,-3,0,0,1,-1,-3
1558440596488076,0,0,-3,-1,-2,2,1,0
1558440596488076,0,3,4,-2,-1,0,0,0
1558440596512301,-1,-1,-6,-1,-1,0,0,-2
1558440596512301,1,4,5,1,0,0,0,0
1558440596513016,-1,0,1,-2,-1,0,-1,-2
1558440596513016,-2,-6,-8,-6,-2,-2,0,-2
1558440596526102,-3,-2,-4,-5,-1,-3,-3,-1
1558440596526102,-4,-4,-3,-2,-2,-2,0,0
1558440596542198,0,1,2,0,-1,-1,0,-1
1558440596542198,-1,-1,0,2,-1,-2,-2,-1
1558440596542933,2,1,3,2,0,2,0,1
1558440596542933,1,-1,-7,-4,-1,-1,-1,0
1558440596557157,-2,-1,-3,-3,-2,-1,-3,0
1558440596557157,0,-3,2,0,-1,0,-1,-2
1558440596557892,0,3,2,1,-1,-1,0,0
1558440596557892,-2,0,0,1,0,-1,0,-1
1558440596570945,1,0,1,-1,-2,-2,-2,-1
1558440596570945,-1,1,-3,1,-1,1,0,0
1558440596586847,0,1,1,-1,-1,0,-2,0
1558440596586847,-2,-1,1,0,-1,-3,0,-2
1558440596617757,-3,-2,-4,-1,1,0,1,-2
1558440596617757,-2,0,0,-1,-1,-1,-4,-1
1558440596619724,0,1,-2,-3,-2,1,0,-2
1558440596619724,0,-2,-3,-3,-3,-4,-2,1
1558440596619724,1,1,1,0,1,-1,-1,-1
1558440596619724,-2,1,0,-3,-1,0,2,1
1558440596623714,-4,-4,-6,-2,-2,-1,-2,-4
1558440596623714,-1,-2,-1,-2,-2,-1,-2,0
1558440596638934,1,-1,0,-2,-2,0,-1,2
1558440596638934,-2,-2,-4,-1,-3,-1,-2,-2
1558440596640865,-1,-5,-2,-1,1,-2,-1,0
1558440596640865,-3,-1,-5,-4,-3,0,0,-1
1558440596654170,0,-1,0,1,-1,-5,-1,-1
1558440596654170,0,-1,-1,-1,0,-3,0,-3
1558440596661811,1,4,6,-1,0,1,2,1
1558440596661811,-1,-1,1,0,-3,-2,-2,-2
1558440596668258,-5,-4,-10,-5,-2,-1,-2,-1
1558440596668258,0,3,1,-1,-1,0,-2,0
1558440596684213,-1,-4,-6,-4,-1,-3,-2,-2
1558440596684213,-1,-4,2,-1,4,1,1,2
1558440596691171,2,4,4,2,-1,1,2,2
1558440596691171,2,7,2,2,0,-1,1,2
1558440596715667,-2,-7,-1,-3,-4,-4,-4,-1
1558440596715667,-1,1,1,0,1,0,-2,0
1558440596717016,0,1,-5,-3,-1,0,-1,1
1558440596717016,0,-2,1,-1,0,-1,1,-1
1558440596744978,0,0,-3,1,-2,-1,-1,0
1558440596744978,0,0,-1,0,2,2,0,0
1558440596745944,0,0,4,0,0,-4,-2,0
1558440596745944,-3,-8,-6,-3,-3,-3,-3,-1
1558440596746964,-2,0,1,2,1,0,1,-2
1558440596746964,0,-1,2,-2,1,3,0,-3
1558440596767101,-2,0,-2,-3,0,0,0,-2
1558440596767101,-1,-5,-2,0,0,-4,-3,0
1558440596767887,-1,-3,-3,-5,1,-1,0,-1
1558440596767887,0,-1,1,-1,-2,-3,-2,-1
1558440596789828,0,1,5,2,-1,0,-1,-2
1558440596789828,0,1,3,2,2,1,1,-2
1558440596790831,-1,0,-3,-2,-1,1,0,-2
1558440596790831,0,-2,-5,-1,-2,-3,-1,-1
1558440596791830,-1,-3,4,-3,-1,3,0,1
1558440596791830,-1,-3,-7,-2,-1,-1,-1,-1
1558440596796812,0,2,-1,-1,-2,0,2,-1
1558440596796812,0,0,-3,-1,-3,-4,-3,-3
1558440596810773,-3,-1,-2,1,-1,-1,0,-1
1558440596810773,3,2,8,0,-1,0,1,2
1558440596818749,-2,1,-1,-1,-1,-2,-3,-1
1558440596818749,-1,2,1,2,0,0,-1,2
1558440596833714,-2,-3,-6,-4,0,-1,-1,-3
1558440596833714,-3,-5,-5,-3,-2,-2,-3,-1
1558440596841037,1,-2,2,0,-1,-3,0,-1
1558440596841037,1,1,2,-1,1,-1,1,-1
1558440596848033,0,-2,-1,-1,-2,-2,-1,0
1558440596848033,-2,0,-1,-1,-2,-1,-2,-2
1558440596856645,-1,-1,-1,0,-2,1,-2,-2
1558440596856645,-4,-2,-1,-2,-1,-1,-2,-2
1558440596886902,-2,0,-2,0,-1,-1,-1,-2
1558440596886902,0,-1,-1,-1,-1,0,1,0
1558440596888560,0,-1,-1,-1,-2,-2,1,0
1558440596888560,-2,-3,-1,-1,-2,-1,-1,-1
1558440596893904,-5,-3,0,0,-1,-2,-3,-3
1558440596893904,-3,-1,-1,-3,1,-1,-2,-3
1558440596908553,3,1,3,1,3,-2,2,1
1558440596908553,-1,0,2,1,0,-2,1,-1
1558440596916829,-3,-6,-8,-4,-1,-2,-2,2
1558440596916829,-2,0,0,1,-2,0,-2,-1
1558440596918482,-3,-4,0,-3,-3,-3,-3,0
1558440596918482,1,1,0,1,-1,2,-1,-2
1558440596930783,1,0,0,1,-1,0,-1,-2
1558440596930783,-1,4,4,3,1,1,-2,0
1558440596939424,-2,-2,-4,1,-1,-1,-4,-1
1558440596939424,-2,-10,-15,-6,-4,-2,-4,-3
1558440596953392,2,5,5,-2,-2,-2,0,-2
1558440596953392,-2,-6,-3,-3,-2,-4,-1,-2
1558440596960609,-3,-3,1,1,-1,1,-1,0
1558440596960609,-1,1,1,1,0,0,0,0
1558440596992509,-1,-1,0,-1,0,2,2,0
1558440596992509,-3,-3,-2,-1,-1,0,1,-2
1558440596993283,0,0,-1,-4,0,-4,-3,-2
1558440596993283,0,2,2,0,0,-1,-1,0
1558440596994279,-3,-6,-6,0,-3,-3,-4,-2
1558440596994279,2,3,2,-1,0,0,0,1
1558440597006250,1,0,-2,0,-2,-1,1,-1
1558440597006250,-2,-4,-8,-4,-2,-1,-1,-1
1558440597013228,-2,-7,-4,-4,-3,-2,-3,-3
1558440597013228,-3,-7,-7,-1,-5,-4,-4,-2
1558440597020515,-1,-1,-2,-3,-2,-1,-2,-2
1558440597020515,-1,-3,-2,-1,1,1,-2,0
1558440597036226,-1,2,-1,-3,0,1,1,0
1558440597036226,-3,1,-1,-1,1,-1,1,0
1558440597038221,-3,-7,-4,1,-1,0,-2,-2
1558440597038221,1,3,4,-1,0,0,0,2
1558440597050227,2,-2,5,6,2,-2,0,1
1558440597050227,1,1,0,-1,0,-1,1,-2
1558440597067144,1,1,-1,-5,-2,-1,-2,0
1558440597067144,-2,0,1,0,0,0,1,-1
1558440597082399,-4,-4,-4,-4,-4,-1,-2,-2
1558440597082399,-1,-2,-2,2,0,-2,-2,-3
1558440597083102,-2,-3,-3,-2,0,0,1,-1
1558440597083102,0,-2,-1,-3,0,-3,-3,-2
1558440597097413,0,1,-6,-2,1,-1,-2,0
1558440597097413,0,1,1,-1,-2,-1,0,-2
1558440597098064,0,2,-4,-3,-3,-1,-2,-1
1558440597098064,-4,-2,5,3,-1,-3,0,-1
1558440597119341,-2,0,0,0,0,-1,-1,0
1558440597119341,3,3,3,-1,1,1,-2,1
1558440597121000,0,0,1,-1,0,-1,-2,1
1558440597121000,-2,-4,-5,-4,-3,-2,1,-2
1558440597142267,2,7,7,3,1,0,-1,-1
1558440597142267,-4,-8,-2,-6,-2,0,-1,-1
1558440597142943,-1,0,2,4,2,-1,-1,-1
1558440597142943,-2,1,-2,-7,-2,-2,-3,-4
1558440597156148,-1,0,0,-1,-4,1,0,-2
1558440597156148,1,3,3,2,1,-1,-1,-1
1558440597164309,0,0,-1,-2,1,-1,-2,-2
1558440597164309,-2,-2,-2,1,-1,-1,-2,0
1558440597170476,1,-4,-4,-2,0,-2,0,1
1558440597170476,1,-1,1,4,2,-1,-2,1
1558440597179204,-4,-7,-4,-7,-1,-1,-2,-2
1558440597179204,-1,-3,-5,-2,-2,-2,-1,-2
1558440597193397,-1,3,3,-1,-1,0,1,0
1558440597193397,0,2,1,4,0,0,0,0
1558440597208116,-4,-3,-2,-3,-3,-5,1,-1
1558440597208116,0,-1,-4,-1,-2,1,-3,0
1558440597217375,-1,1,3,0,0,2,1,2
1558440597217375,-2,-2,-5,-2,0,0,-1,1
1558440597218088,-1,1,1,2,-1,0,0,-1
1558440597218088,-1,-1,0,-3,-2,-1,0,0
1558440597239032,0,2,4,-1,0,-1,1,-2
1558440597239032,-1,-1,0,-1,-1,-3,1,-1
1558440597241043,-2,-3,-7,-1,-4,-2,-1,-2
1558440597241043,1,-3,4,-1,2,0,1,2
1558440597270010,-1,-5,-4,-2,0,0,0,-1
1558440597270010,-2,-1,-1,-5,-6,-3,-2,-3
1558440597270945,2,3,5,1,-3,-2,1,0
1558440597270945,-3,-4,3,1,1,0,0,-2
1558440597277243,-2,-3,-5,-3,-3,-3,-2,-2
1558440597277243,0,-4,-3,-2,0,-1,-1,1
1558440597277929,2,1,2,0,0,-1,-3,-2
1558440597277929,-1,2,-2,-1,-2,1,-1,-1
1558440597289894,0,2,-1,-1,2,-1,-2,-2
1558440597289894,0,0,1,-1,0,0,1,-3
1558440597299194,3,5,8,2,3,0,1,0
1558440597299194,-3,-7,-15,-6,-5,-4,-3,-3
1558440597313833,0,0,-1,-1,-2,-4,0,0
1558440597313833,-3,-3,-4,-2,-4,-1,-2,-1
1558440597319813,0,1,-2,-1,1,0,-1,1
1558440597319813,1,3,6,3,1,0,2,-1
1558440597336803,-1,1,1,1,1,0,1,1
1558440597336803,-1,-5,-2,-3,-2,-3,-2,-1
1558440597337781,0,-3,-3,0,-2,-3,-3,-2
1558440597337781,1,3,2,0,0,0,-2,1
1558440597349735,0,0,-1,1,0,-1,-3,-2
1558440597349735,1,1,0,1,1,1,-1,1
1558440597358711,-3,-7,-7,-6,-3,0,-2,-1
1558440597358711,0,1,-4,-3,-2,-3,-2,-1
1558440597373706,-1,0,-4,-4,-1,-1,-3,-3
1558440597373706,-1,-5,-6,-5,0,-2,1,1
1558440597382003,0,-2,1,0,-1,-1,0,0
1558440597382003,-1,0,3,0,1,-1,-1,0
1558440597397521,-3,-3,-4,0,-4,-1,0,-1
1558440597397521,-1,5,4,0,-2,0,0,-2
1558440597399108,-3,-2,-2,1,-2,2,1,-1
1558440597399108,-1,3,3,2,1,-1,0,-2
1558440597410548,-1,-2,-2,-2,1,-2,-2,-2
1558440597410548,1,-1,-1,-3,-1,-2,0,0
1558440597419504,1,0,2,1,1,3,3,0
1558440597419504,-3,-6,-6,-6,-3,-2,-3,-1
1558440597433018,-2,-7,-6,-3,-2,-2,-1,-1
1558440597433018,-2,-2,-4,-1,-1,0,-1,-2
1558440597441994,-5,-1,-4,-6,-2,-3,-3,-2
1558440597441994,-2,-2,-5,-2,-1,-3,-2,-1
1558440597456955,2,-1,-1,-2,1,0,-1,-1
1558440597456955,-4,-5,-4,-1,-2,-2,-2,-3
1558440597457951,0,2,5,2,0,0,-1,-1
1558440597457951,-2,-1,-2,-1,-3,0,-3,-3
1558440597471127,-1,-2,1,-1,-2,-1,-1,-1
1558440597471127,0,5,5,5,-1,-2,2,1
1558440597486876,-1,-3,-6,-3,-4,-2,0,1
1558440597486876,0,-3,-2,-5,-3,-1,0,-2
1558440597492892,-2,-2,-2,2,-2,1,-2,-1
1558440597492892,2,3,0,-3,0,3,-1,0
1558440597501833,-1,-4,-3,-3,-2,-2,-5,-1
1558440597501833,0,2,1,4,1,1,0,-1
1558440597517145,-3,0,0,-3,-2,-2,-1,-3
1558440597517145,-3,-4,-2,-3,0,-1,-1,-1
1558440597518909,1,1,2,2,-1,-2,1,1
1558440597518909,-3,0,-1,-1,1,-3,-2,-1
1558440597531097,-3,-2,-2,-1,1,1,0,-3
1558440597531097,-4,-3,-5,-2,-3,-2,-3,-3
1558440597538738,0,0,0,-1,-1,0,1,-2
1558440597538738,1,1,2,2,-2,-1,-1,1
1558440597553048,0,1,3,3,-1,-1,1,0
1558440597553048,-2,-3,-2,-3,-1,-1,-1,-1
1558440597561919,-1,0,0,-4,-3,-3,-1,0
1558440597561919,1,1,2,1,0,3,1,0
1558440597576998,-1,0,-1,-1,1,-1,-1,-2
1558440597576998,1,1,-1,0,0,-1,1,-1
1558440597578865,-2,-2,-1,0,0,1,1,-1
1558440597578865,0,2,4,1,1,-1,-1,-1
1558440597590939,1,1,2,-1,-1,-1,0,1
1558440597590939,-1,-3,-5,-1,-1,-2,0,-2
1558440597599572,-3,1,-2,-1,-1,-2,-3,-1
1558440597599572,-1,-3,-3,5,0,-4,-3,-2
1558440597613657,-1,-5,-7,-10,-2,-3,-2,-2
1558440597613657,0,2,4,-2,-1,-1,2,-1
1558440597621514,-4,-5,-5,0,0,-2,-3,-4
1558440597621514,2,1,1,-1,-2,0,1,1
1558440597638056,-2,2,2,3,1,0,0,1
1558440597638056,2,2,3,1,3,4,1,0
1558440597642458,-4,-3,-1,-3,0,0,-3,-5
1558440597642458,-3,-5,-6,-2,-2,-2,-3,0
1558440597650437,0,-1,-2,-3,-1,-2,-3,0
1558440597650437,-4,-4,-5,-3,-4,-2,-3,-2
1558440597674315,1,-2,-4,0,0,0,-1,-2
1558440597674315,-1,0,0,-2,0,0,2,1
1558440597674315,-2,-4,-4,-2,-4,-4,-2,-1
1558440597674315,-1,-4,-3,-1,-2,-2,-1,-2
1558440597689170,0,-1,0,-1,0,-1,1,0
1558440597689170,-1,0,0,-2,-2,0,2,1
1558440597696518,-1,-1,0,2,0,0,-1,1
1558440597696518,-1,-1,2,-3,-1,-2,-1,-1
1558440597703135,1,3,2,-1,-2,-1,0,-1
1558440597703135,-1,-2,-2,0,1,-1,-1,-1
1558440597710482,1,5,7,1,-1,0,0,-1
1558440597710482,-1,-3,-4,-2,-1,-1,-1,-1
1558440597719342,-2,-4,-1,-1,-1,-2,-2,-1
1558440597719342,-3,1,2,-2,0,1,-2,0
1558440597742404,-1,-1,-1,-4,1,-1,0,-1
1558440597742404,0,0,-1,1,-2,-2,-1,1
1558440597743030,1,3,-1,-1,0,1,0,2
1558440597743030,1,-3,-1,-2,-2,-5,-3,-4
1558440597757247,-2,-3,-4,-2,-2,-2,0,-3
1558440597757247,0,-1,1,0,0,0,-2,0
1558440597770953,1,3,1,-2,0,1,2,1
1558440597770953,3,3,1,-3,-1,1,2,0
1558440597779195,0,0,2,2,0,-1,0,0
1558440597779195,0,0,-1,-1,-3,-1,-3,-1
1558440597780926,-4,-6,-2,-2,-1,-2,-2,0
1558440597780926,-6,-5,-4,-1,-1,1,-1,-1
1558440597793212,-1,-1,0,0,-1,0,1,-2
1558440597793212,0,0,3,1,0,-2,0,-1
1558440597801873,0,-2,-3,-2,-3,-2,-2,-3
1558440597801873,-4,-2,-4,-1,0,-3,-1,-1
1558440597816132,-1,-1,-2,0,-1,0,-1,1
1558440597816132,1,-1,-1,-1,-1,-1,-2,-2
1558440597822843,-2,-3,-4,-3,-1,1,-2,-2
1558440597822843,2,2,-1,-3,0,-1,-1,-1
1558440597838773,-1,-1,2,0,-1,2,-2,-2
1558440597838773,0,4,0,0,0,1,-1,0
1558440597844762,-2,0,-1,0,-2,-1,0,0
1558440597844762,-1,0,2,-1,-2,-2,-2,-1
1558440597852734,4,13,2,1,0,0,0,3
1558440597852734,-2,-2,5,-1,-2,-2,-2,-2
1558440597861711,2,2,2,2,2,1,-1,0
1558440597861711,-1,-2,-2,0,-1,-1,-2,-3
1558440597876794,1,-3,-4,-1,-3,-1,0,-1
1558440597876794,-2,-4,-1,-2,-1,0,-1,-1
1558440597882988,-2,1,0,1,0,2,2,-1
1558440597882988,-1,-3,-3,-3,-3,-5,-3,-2
1558440597899954,0,-2,-1,0,2,-1,0,0
1558440597899954,1,2,-1,0,1,-1,-1,1
1558440597900606,-4,-2,2,-3,0,-2,-2,0
1558440597900606,1,-3,-2,1,0,-3,0,-1
1558440597913569,-3,-5,-3,-5,-1,-1,-2,-1
1558440597913569,-4,-2,-2,-3,-1,-1,2,-3
1558440597921550,-1,0,-2,0,-3,-3,-1,-2
1558440597921550,-1,-1,2,-1,-2,2,-3,0
1558440597935538,0,-2,0,0,-1,0,-3,0
1558440597935538,1,-1,1,1,1,0,0,-1
1558440597942522,0,-1,0,0,1,0,-2,-1
1558440597942522,-1,2,5,3,-2,1,1,1
1558440597959474,-5,-7,-6,-4,-1,-2,-2,-4
1558440597959474,1,-2,-4,-3,-3,1,-1,-1
1558440597960446,0,4,-2,-1,-2,1,2,1
1558440597960446,-2,2,0,0,1,-2,0,-3
1558440597972412,-2,-5,-4,-1,-1,-2,-1,-3
1558440597972412,-4,-7,-6,-3,-2,-2,-4,-2
1558440597981409,-1,-2,-5,-3,-2,-3,0,-3
1558440597981409,3,2,2,0,1,3,-1,2
1558440597996349,-4,-9,-3,-2,-2,-2,-1,0
1558440597996349,-1,1,1,-1,0,-2,-1,0
1558440598003717,0,-3,3,-1,-1,0,-3,0
1558440598003717,-3,-3,-2,-2,-3,-3,1,-1
1558440598026682,0,-2,-2,-4,-1,-1,0,-2
1558440598026682,0,1,0,1,-2,0,-2,-1
1558440598028264,0,2,-1,-1,-3,-1,1,-1
1558440598028264,0,2,-3,-3,-1,-1,0,-2
1558440598042390,1,2,5,1,1,0,-1,-2
1558440598042390,-1,-3,-1,0,-1,-1,-1,0
1558440598043224,-3,-5,0,-1,1,2,-2,0
1558440598043224,1,-1,-2,-2,-1,0,-2,0
1558440598056191,-2,3,-1,-1,-2,-3,-4,-1
1558440598056191,2,1,2,0,0,1,1,-1
1558440598063169,1,-2,-3,-3,0,-5,-1,-1
1558440598063169,-1,-1,-1,1,0,-2,0,-1
1558440598079129,-2,-2,-5,-2,-2,-1,-1,1
1558440598079129,-2,-3,-4,-2,-3,-1,-1,-3
1558440598080127,-1,-1,-1,-1,-1,-2,-5,-3
1558440598080127,-1,-1,0,0,-1,-1,-2,-2
1558440598093582,-2,-1,-6,-1,-3,-2,-3,-2
1558440598093582,-3,-2,-1,2,-2,-2,-1,0
1558440598102066,-2,-2,-2,-4,-1,0,1,0
1558440598102066,-5,-5,-5,-3,-3,-2,-2,-2
1558440598116029,-2,-1,-1,0,0,-1,1,-2
1558440598116029,1,-2,-1,0,1,1,1,-2
1558440598123009,2,2,-2,1,-1,-1,0,-1
1558440598123009,-1,-5,-8,-4,-2,1,-1,0
1558440598139127,1,1,4,-3,-2,-1,-2,0
1558440598139127,0,-1,1,1,0,-2,-2,0
1558440598140962,-2,1,2,0,1,1,1,0
1558440598140962,0,2,-2,-3,-2,-1,2,-1
1558440598152930,2,1,2,0,-1,0,-1,-2
1558440598152930,-1,1,1,-2,-1,0,-1,-1
1558440598161906,-4,-7,-4,-3,-2,-3,-3,-2
1558440598161906,0,0,3,0,2,0,1,1
1558440598175869,2,2,4,2,2,1,-1,2
1558440598175869,2,2,1,-2,0,2,-1,-1
1558440598199803,1,-1,2,-1,0,-1,-2,-3
1558440598199803,-2,0,1,1,-1,-3,-1,-1
1558440598200802,-3,-3,1,2,1,2,0,-1
1558440598200802,-2,-2,-2,-4,-3,-2,0,-1
1558440598201821,-3,-4,-3,-1,-3,-1,-1,0
1558440598201821,1,-1,0,0,-2,1,-1,0
1558440598221748,-1,2,3,-1,1,-2,1,0
1558440598221748,-4,-2,-6,1,0,-3,-1,-3
1558440598227734,-3,-6,-5,-1,-2,-6,-2,-2
1558440598227734,-1,-3,-7,-5,-1,0,-2,-2
1558440598236980,0,-3,-2,-2,-1,0,0,-1
1558440598236980,0,-1,0,1,0,0,-1,2
1558440598243690,1,2,2,-1,0,0,-1,-1
1558440598243690,0,3,4,-2,0,-1,0,-1
1558440598258649,0,1,-2,-3,-2,-2,0,-2
1558440598258649,-1,-1,-7,-1,0,1,-3,-1
1558440598274780,3,4,3,4,0,1,1,1
1558440598274780,1,-1,0,-1,-1,0,0,-2
1558440598275601,-1,-4,-4,-4,-4,-4,-1,-2
1558440598275601,2,1,7,-1,0,-1,0,0
1558440598281601,-1,3,6,0,0,-1,0,2
1558440598281601,-4,-6,-6,-1,-4,-4,-5,-1
1558440598304523,-1,-1,2,2,1,0,-2,-1
1558440598304523,-4,-4,-4,-4,0,-2,-3,-2
1558440598305522,-2,1,0,0,0,-2,-2,0
1558440598305522,-1,-1,0,0,3,1,0,0
1558440598326464,0,-3,-3,-2,0,-2,1,1
1558440598326464,-1,0,1,-1,-2,-2,0,1
1558440598328460,-1,-2,0,0,0,0,1,-1
1558440598328460,-2,-3,-1,0,-2,-1,-1,-1
1558440598332657,0,1,1,0,-1,-3,-2,-2
1558440598332657,1,1,0,2,-1,0,2,1
1558440598358382,-3,-5,-8,-6,-4,-1,0,-2
1558440598358382,-2,-1,1,-1,-3,-2,-2,1
1558440598358382,-2,-2,-5,-2,-1,-2,-2,-1
1558440598358382,-2,-2,1,-2,-3,-4,-4,-1
1558440598370350,0,-4,-5,-1,1,-1,0,-3
1558440598370350,1,-1,1,-1,2,2,2,1
1558440598379324,-2,-3,-2,-1,-2,-1,-1,-1
1558440598379324,2,1,-3,-1,-1,-2,-1,0
1558440598380324,-2,-2,-1,-1,-1,1,-1,-2
1558440598380324,-1,1,3,-1,0,-2,-1,-2
1558440598401265,-2,1,-1,-2,0,1,1,1
1558440598401265,0,0,-4,-2,-1,-4,-2,1
1558440598403262,0,5,0,-2,-1,1,-2,0
1558440598403262,-2,0,0,0,0,-1,0,-1
1558440598416228,-2,-1,1,-1,-1,-2,-3,0
1558440598416228,-3,-4,-7,-3,-4,-2,-2,-4
1558440598422209,1,-2,1,1,-1,-1,-1,0
1558440598422209,-1,-1,-5,-3,-1,-2,-2,-3
1558440598446146,0,0,0,-1,-2,0,-1,1
1558440598446146,1,-1,2,2,-1,0,2,-1
1558440598448142,-1,0,-1,-1,-1,-1,1,-1
1558440598448142,-1,3,0,1,0,1,-1,0
1558440598453127,-2,-6,-5,-1,-1,1,-2,0
1558440598453127,-1,-2,3,0,-3,-2,-3,1
1558440598469179,-1,-7,-7,-4,-3,-2,-1,-2
1558440598469179,-3,-6,-4,-1,-5,-1,-1,-2
1558440598476065,-1,1,-2,-2,-1,-5,1,-1
1558440598476065,-3,-3,-3,-3,-1,1,1,-3
1558440598483281,-2,-1,1,1,2,0,-2,-1
1558440598483281,-1,1,0,1,0,-3,-2,-1
1558440598499086,2,0,-1,-2,-2,1,-1,0
1558440598499086,-2,-2,-3,-4,-1,-1,-2,-3
1558440598501146,-2,0,0,1,-2,0,0,-2
1558440598501146,1,0,1,0,1,-1,0,-2
1558440598512967,-1,-2,-1,0,-1,-2,0,-2
1558440598512967,0,0,2,1,1,0,-2,0
1558440598521944,-1,0,-2,1,-2,1,-1,1
1558440598521944,0,0,3,-1,0,1,-1,0
1558440598535906,-1,-4,-3,-2,-3,-2,-1,-1
1558440598535906,0,-1,-1,1,0,1,0,0
1558440598542886,1,-2,1,-2,-2,-5,-2,1
1558440598542886,-4,-6,-11,-4,-4,-3,-2,-2
1558440598559029,0,1,1,0,0,1,0,-2
1558440598559029,1,-2,-1,-1,-1,-2,-2,-2
1558440598573804,-1,1,1,-3,-1,-1,-1,-2
1558440598573804,-1,-3,-2,-1,1,0,0,-1
1558440598573804,-2,2,0,1,-1,-2,1,-1
1558440598573804,-5,-3,-5,-2,-1,0,-1,0
1558440598581783,0,1,-2,0,0,-1,0,-1
1558440598581783,-2,-5,-1,-2,-2,0,-2,-2
1558440598595746,0,0,0,-1,0,-1,-3,-1
1558440598595746,-1,-1,0,-2,0,-1,0,-1
1558440598602731,1,0,2,1,-2,-3,-1,0
1558440598602731,-1,3,-1,-1,0,0,1,3
1558440598618683,-3,-2,-3,-2,-1,1,-1,-1
1558440598618683,-3,-2,-3,-3,-1,-1,-1,-3
1558440598625665,-2,-3,-1,-2,-2,0,-2,-1
1558440598625665,2,-1,1,2,-1,-2,-2,-1
1558440598632648,1,0,3,0,0,1,-1,0
1558440598632648,1,1,0,2,2,0,-1,-2
1558440598641622,-3,-1,-1,-1,-1,1,2,0
1558440598641622,2,1,0,-2,1,1,1,-1
1558440598655586,2,5,9,3,2,-1,-2,-1
1558440598655586,-1,-3,-2,-2,-3,-2,-3,-1
1558440598679750,-1,-1,-2,-1,-2,-2,-3,-1
1558440598679750,0,1,2,1,-2,0,0,1
1558440598679750,-1,-2,0,1,-2,1,-2,-1
1558440598679750,-1,-1,-3,-3,-2,-4,-1,0
1558440598685752,0,1,1,-3,-3,0,1,-1
1558440598685752,0,-4,-9,-3,-4,-4,-2,-3
1558440598701461,-1,-5,-5,-4,-2,-1,2,-1
1558440598701461,1,0,1,-2,0,-1,0,1
1558440598703457,0,-2,-2,0,-1,0,-1,0
1558440598703457,-3,-2,-2,-2,-2,-2,-2,0
1558440598715425,-4,-4,-7,-4,-4,-3,-1,-2
1558440598715425,1,-2,1,0,0,-1,1,-1
1558440598724401,0,0,1,2,2,1,0,0
1558440598724401,-1,1,3,-2,-2,0,-2,-1
1558440598738380,-3,-1,-3,-1,-2,-2,-2,-1
1558440598738380,-2,0,-1,-2,-2,-1,1,-1
1558440598752529,0,2,1,-2,-1,-2,-1,-1
1558440598752529,-4,-6,-2,-1,-2,-3,-2,-3
1558440598761302,1,0,-1,-3,-2,-1,0,-1
1558440598761302,0,0,0,0,-3,-1,-1,1
1558440598763298,-3,-2,-2,-3,0,1,0,1
1558440598763298,-2,-1,-4,-2,0,-4,-2,-2
1558440598776291,1,2,-1,0,0,-3,0,1
1558440598776291,1,-1,-1,-3,0,0,-2,1
1558440598782285,-2,-6,-4,-1,-1,-3,-4,-3
1558440598782285,-2,-1,2,0,1,1,1,-1
1558440598798204,1,1,3,0,2,2,0,2
1558440598798204,-3,1,0,1,-1,-1,-2,-1
1558440598805187,-1,1,-1,0,-1,-4,1,-1
1558440598805187,-2,-4,-1,-4,-2,0,-3,-3
1558440598821149,-1,-1,1,0,-2,0,0,-2
1558440598821149,-2,-2,-4,-2,-1,-2,0,-2
1558440598828124,-1,-2,-1,-1,-1,-1,1,-1
1558440598828124,1,2,1,-1,1,-1,-2,1
1558440598836103,-2,-3,-3,-1,-1,0,0,-2
1558440598836103,1,0,1,1,-2,0,-3,0
1558440598850065,0,0,0,0,0,0,0,1
1558440598850065,-1,3,2,0,1,0,0,0
1558440598858043,-1,-4,-9,-2,-2,1,-2,0
1558440598858043,0,1,2,0,-1,-2,-2,0
1558440598881979,-4,-4,-4,-1,-3,-3,-1,-1
1558440598881979,-1,1,-1,0,-2,-3,0,0
1558440598882977,-1,-1,0,-1,0,-3,0,-1
1558440598882977,-2,-1,0,-3,-1,-1,0,0
1558440598883975,2,-1,0,-3,-1,-1,0,0
1558440598883975,-3,-1,-3,-1,-2,0,-2,-2
1558440598903920,0,-1,-1,-3,0,-4,-2,-2
1558440598903920,-1,-2,-2,-1,0,0,-2,-1
1558440598905916,2,2,1,1,0,-1,-1,-3
1558440598905916,-5,-9,-9,-5,-3,-4,-1,-1
1558440598926872,-2,-2,-3,-1,-1,-3,-1,-2
1558440598926872,-3,0,-2,-1,-1,1,-1,0
1558440598927856,-3,1,1,2,-2,1,0,-2
1558440598927856,1,0,1,1,1,1,2,0
1558440598941819,0,-2,0,-2,-1,2,1,-1
1558440598941819,0,-4,-1,-2,-2,-5,-3,-2
1558440598956814,-1,-3,-6,-3,0,0,-2,0
1558440598956814,1,0,-1,-1,-1,-1,-1,0
1558440598956814,-3,-1,-2,1,-1,-1,-1,0
1558440598956814,-2,-1,-2,0,1,1,0,-2
1558440598962767,0,-1,-1,-2,1,1,0,1
1558440598962767,1,0,-3,-3,-1,-3,-4,1
1558440598978721,1,1,3,0,-1,-3,-2,-1
1558440598978721,-2,0,-3,-2,-1,0,-1,-1
1558440598985703,0,0,-1,0,-2,-1,-3,-3
1558440598985703,-1,3,4,3,0,3,-1,0
1558440599008641,-1,-2,0,-2,0,1,0,-1
1558440599008641,1,-1,0,-2,-2,0,2,-1
1558440599010637,-2,-2,-1,-2,-3,-2,0,-1
1558440599010637,-1,1,1,-1,-1,-2,0,-1
1558440599015628,-2,0,-3,-1,-1,-2,-3,0
1558440599015628,-3,-2,-3,-3,0,-1,-2,1
1558440599022603,-2,0,-2,0,-3,-3,-3,-1
1558440599022603,-1,-2,-2,-1,0,-1,0,-1
1558440599038563,0,0,0,-1,-2,1,-1,0
1558440599038563,0,-3,-2,-3,-2,-1,-2,-2
1558440599052530,0,-1,-2,-4,-1,-1,1,1
1558440599052530,-2,-2,-3,-2,0,-2,-1,-3
1558440599061501,0,0,-1,2,2,0,0,0
1558440599061501,0,-3,-5,-1,0,-1,-1,3
1558440599063497,-2,-1,0,0,-2,-3,-1,0
1558440599063497,0,-2,0,-2,-1,1,-1,0
1558440599084437,0,0,2,0,-1,-1,1,-1
1558440599084437,0,-1,1,-2,-3,-1,0,-1
1558440599085435,0,0,0,-1,0,-4,0,-2
1558440599085435,-2,-3,1,-1,-3,-2,0,1
1558440599098400,0,0,-2,-1,1,0,-3,-3
1558440599098400,-1,-2,0,-1,-1,0,-1,-2
1558440599105385,-1,-1,-2,-5,0,-3,-2,-1
1558440599105385,0,-1,-2,0,-1,-2,-1,1
1558440599121341,-2,-3,-2,-3,-2,-4,-2,0
1558440599121341,-1,2,2,2,-1,1,3,-1
1558440599123336,-2,-2,-1,-1,0,1,-1,0
1558440599123336,-2,-2,-3,-2,0,0,-4,-4
1558440599136299,-2,-1,1,-3,-3,-3,1,1
1558440599136299,-3,-1,-2,0,-1,0,-1,-2
1558440599142282,-1,-1,-2,1,-1,0,-1,-1
1558440599142282,1,1,-1,1,-2,-2,-1,-1
1558440599158240,-1,-3,-3,-2,-2,0,-2,-1
1558440599158240,1,4,6,2,0,1,1,-1
1558440599165228,-3,-1,0,-2,-2,0,-1,-1
1558440599165228,-1,0,1,-1,-1,-1,1,1
1558440599181186,-1,-3,-4,-2,-1,-3,-1,-2
1558440599181186,0,0,1,-2,1,0,-4,1
1558440599183175,-1,-7,-8,-3,-3,-2,-2,-4
1558440599183175,-1,1,-1,0,0,1,0,0
1558440599204119,-1,-1,-1,-2,-1,0,-2,-2
1558440599204119,-1,-3,-3,-2,-3,-4,-2,-2
1558440599206120,-1,2,2,0,0,0,0,0
1558440599206120,0,-1,-2,-1,0,0,1,1
1558440599218080,-2,-3,-1,-1,-2,-5,-4,-2
1558440599218080,1,0,-3,1,1,1,0,-3
1558440599225063,0,0,0,-1,0,0,-1,-2
1558440599225063,-2,-4,-1,-3,-2,-2,-1,-2
1558440599242017,-1,3,3,0,1,1,1,1
1558440599242017,0,-2,-4,-1,-2,-2,-2,-1
1558440599243013,2,8,5,2,1,1,1,0
1558440599243013,-2,-6,-6,-4,-2,0,-1,-3
1558440599254985,0,0,-1,0,-1,-2,-1,-1
1558440599254985,-1,-1,-1,-1,0,-3,-3,-2
1558440599263958,-1,0,-2,1,1,1,-2,-2
1558440599263958,-3,-3,-2,-3,-2,-3,-4,0
1558440599278921,-3,-3,-4,-1,0,0,1,0
1558440599278921,-3,-1,-2,-2,0,-1,0,0
1558440599284904,-1,-1,-2,-2,0,-1,-1,-1
1558440599284904,-1,-2,-2,-1,-1,-4,-1,-4
1558440599301858,0,0,0,-2,-2,1,-3,-3
1558440599301858,0,0,2,-2,-2,-1,-1,-1
1558440599302854,-5,-6,-5,-3,-3,-3,-2,0
1558440599302854,3,1,1,2,0,3,0,-3
1558440599314822,1,0,1,-3,-2,-1,-1,-2
1558440599314822,-1,-1,-1,0,0,-3,-1,-3
1558440599331778,-1,-2,-1,-1,-1,-1,-1,0
1558440599331778,1,2,2,-1,1,2,1,1
1558440599338758,-2,-2,-1,1,0,0,-3,-3
1558440599338758,-1,1,-2,-1,-1,1,0,1
1558440599352721,-3,-1,0,-4,-4,-3,-3,-2
1558440599352721,-2,1,-1,-1,0,1,-1,0
1558440599361699,-2,-1,-1,1,-1,2,-3,-1
1558440599361699,0,-3,-5,-1,0,-2,-1,0
1558440599362697,1,-3,-3,-1,-2,0,0,1
1558440599362697,0,5,5,2,0,-1,-2,-1
1558440599375659,0,-2,-2,-2,-1,1,2,-1
1558440599375659,-1,-2,-1,-1,-2,1,-2,-1
1558440599383638,0,-2,0,-1,-1,-2,-1,-2
1558440599383638,0,-2,-1,0,0,-1,0,1
1558440599406589,0,-1,-2,-2,-2,-2,-2,-1
1558440599406589,-1,-1,-1,-2,0,-1,-3,-1
1558440599407576,-1,-1,-2,1,1,0,-3,-3
1558440599407576,-2,-1,-1,-2,-3,0,2,0
1558440599421538,-2,0,-1,-1,0,-2,-2,-1
1558440599421538,-3,-3,-3,-3,-3,-2,-2,-2
1558440599422535,3,3,2,0,-1,1,0,2
1558440599422535,-3,-3,-3,-1,-2,-3,0,-2
