timestamp,emg1,emg2,emg3,emg4,emg5,emg6,emg7,emg8
1558440461211010,1,2,-1,-11,-1,0,1,-3
1558440461211010,2,-1,2,12,-2,-1,-1,0
1558440461216994,-2,1,2,2,0,-1,-2,-1
1558440461216994,-3,-7,-15,-15,-1,-4,-2,-4
1558440461217992,-2,-3,2,8,-1,-2,-2,-2
1558440461217992,-1,3,2,2,-1,1,0,-2
1558440461218988,1,4,-4,-10,-1,1,0,1
1558440461218988,3,6,6,2,0,-2,-1,1
1558440461229959,-4,-6,-2,3,-1,-1,0,3
1558440461229959,0,-1,-1,-7,0,0,0,-1
1558440461240930,-3,-7,-5,-8,-2,-2,-3,-4
1558440461240930,-2,0,-4,9,-1,0,-1,-1
1558440461244919,-2,-4,-6,-4,-2,-1,-2,-2
1558440461244919,-4,-6,-5,-9,-1,-1,-2,-2
1558440461259881,-2,0,1,7,-1,0,-1,-1
1558440461259881,-2,-4,0,0,-2,0,-1,0
1558440461268855,-2,-2,0,-6,-1,-3,-1,-3
1558440461268855,-2,1,-2,-1,1,-1,-1,-2
1558440461276834,-1,0,3,3,1,-2,1,1
1558440461276834,-6,-4,-4,-2,-1,-1,-2,-2
1558440461289798,0,-2,-6,-4,-2,0,-1,0
1558440461289798,0,-2,0,2,-1,-2,0,0
1558440461299772,-1,-2,-3,0,0,-3,-1,-1
1558440461299772,2,3,5,-2,-2,0,-1,-2
1558440461328695,-1,-1,2,12,-4,0,-1,-1
1558440461328695,-1,1,2,2,-2,1,-2,0
1558440461336675,1,5,8,-5,1,1,1,1
1558440461336675,-2,-5,-4,-3,-4,-4,0,-5
1558440461337671,-3,-4,-7,3,-5,-2,0,-2
1558440461337671,0,2,2,-4,0,1,0,-1
1558440461338669,1,0,-5,-7,-3,-2,-1,-1
1558440461338669,-2,-1,-3,7,-1,-2,-3,1
1558440461349639,0,9,1,-6,-1,-3,-1,1
1558440461349639,-1,-7,-2,-8,-1,0,0,-2
1558440461358614,3,8,-2,12,0,-2,-2,-1
1558440461358614,-3,-2,5,-4,-2,-3,-2,0
1558440461364599,-1,-5,-6,-8,-1,0,-2,-2
1558440461364599,-4,-3,-3,3,-2,0,0,0
1558440461381554,-2,-5,-3,2,-2,-3,-3,-1
1558440461381554,4,5,4,-3,-1,0,1,-1
1558440461387538,0,-1,1,-1,1,-1,0,-2
1558440461387538,-1,-4,-7,-2,-3,-1,-2,-2
1558440461396515,-4,-6,-2,-5,-1,0,-1,-2
1558440461396515,-4,-6,-7,-8,0,-1,1,-1
1558440461409480,-3,-3,-3,0,-1,-4,-2,1
1558440461409480,0,3,2,1,1,-2,0,1
1558440461418455,1,1,1,-4,0,-1,0,0
1558440461418455,2,5,3,2,-2,2,1,2
1558440461424439,0,-1,0,-1,1,1,1,1
1558440461424439,-1,-2,0,-1,-1,-4,-4,-3
1558440461441393,-1,-4,-5,-2,-3,-1,-2,-2
1558440461441393,1,1,-3,1,0,-1,-1,-2
1558440461447377,-2,-3,-3,-1,-1,-1,-2,-2
1558440461447377,1,6,1,1,1,0,-1,-1
1558440461456353,2,6,6,1,0,1,1,2
1558440461456353,1,2,6,3,3,1,-1,-1
1558440461470315,-1,-8,-11,-8,-1,-1,0,-3
1558440461470315,-2,-3,-1,3,-1,1,0,-1
1558440461478295,-2,2,2,-1,-4,-3,-3,0
1558440461478295,-2,-1,4,1,0,1,0,0
1558440461485276,-1,-2,5,-2,0,-2,0,0
1558440461485276,1,3,4,0,-1,-1,-1,0
1558440461501233,-3,-5,-5,-2,-1,0,0,-2
1558440461501233,2,-2,-4,-2,-3,-1,-1,0
1558440461507217,1,2,1,-1,-2,0,-1,-1
1558440461507217,0,-4,-5,-4,-2,-1,-2,-1
1558440461516194,-2,-1,-2,-3,-3,-2,-2,-4
1558440461516194,-1,-1,-5,-2,0,2,-3,-1
1558440461530155,1,1,2,-1,-2,0,0,0
1558440461530155,-1,-3,0,0,-1,-3,-2,-1
1558440461539132,-7,-9,-6,2,0,-3,-4,-5
1558440461539132,-5,-5,-4,-2,-2,-3,-3,-3
1558440461545118,-1,3,2,-3,-1,-3,-4,-2
1558440461545118,-1,0,-2,-1,-2,-1,-3,-3
1558440461561073,-1,-6,-8,-2,-2,0,1,-2
1558440461561073,-3,-3,-6,-2,-1,-4,-2,-1
1558440461567057,0,4,5,2,2,2,2,2
1558440461567057,-2,-2,1,-2,0,-3,0,1
1558440461576032,-3,-3,-5,-3,0,0,-3,-3
1558440461576032,-1,-1,-5,-3,-3,0,-1,-2
1558440461589996,-2,-1,-3,0,-1,-1,0,-1
1558440461589996,1,3,1,0,-2,0,-2,-1
1558440461598972,-3,-4,0,-2,-1,-1,0,0
1558440461598972,-2,1,-1,-1,-1,-1,-1,-3
1558440461604956,-1,-1,-4,1,-1,-1,-2,-2
1558440461604956,1,-1,-1,-1,-2,-1,2,1
1558440461620914,-1,2,2,3,0,2,1,2
1558440461620914,2,-2,-1,-1,0,-2,0,0
1558440461626897,0,-1,-2,1,0,-1,0,0
1558440461626897,-1,2,3,-2,0,-2,0,0
1558440461641857,5,9,12,8,4,2,3,3
1558440461641857,-5,-11,-10,-4,-2,-3,-2,-3
1558440461649836,1,6,2,-2,0,2,-2,0
1558440461649836,0,-3,3,0,0,2,1,-1
1558440461658812,-1,-1,4,-1,-2,-2,-3,-2
1558440461658812,0,4,1,-2,-1,-3,-1,-2
1558440461664829,0,0,2,-1,0,-3,-2,0
1558440461664829,-1,4,1,5,0,-2,-2,-2
1558440461680789,-2,-6,-11,-8,-4,-3,-1,-3
1558440461680789,0,-1,5,0,-2,0,0,-2
1558440461687734,0,-2,-1,-1,-2,-3,-2,-4
1558440461687734,-2,-6,-6,-3,-4,-2,-2,0
1558440461702694,-1,-2,-4,-2,0,-2,-1,-1
1558440461702694,1,6,7,4,0,1,0,0
1558440461709677,-2,-3,-7,-1,0,-2,0,0
1558440461709677,-1,2,3,-2,1,1,0,-1
1558440461718652,1,5,4,0,0,0,-2,-1
1558440461718652,0,4,6,2,1,2,-1,1
1558440461724666,-2,-3,-3,-2,1,-2,-1,-3
1558440461724666,-4,-5,-9,-3,-3,-5,-4,-4
1558440461741591,-2,-3,-1,0,-2,-2,-1,-2
1558440461741591,1,2,2,-1,2,0,0,0
1558440461747575,-3,-4,3,-3,-3,-1,-1,-1
1558440461747575,1,-3,-4,-1,-1,1,-1,0
1558440461762535,2,3,0,1,-3,-3,-2,-2
1558440461762535,1,2,1,-4,-1,3,1,0
1558440461769516,-3,-3,0,-2,-2,-2,-2,-1
1558440461769516,-4,-8,-8,0,-3,-1,-1,-1
1558440461778499,-4,-8,-2,-3,-1,-1,1,0
1558440461778499,-2,-1,-1,-1,1,-1,-1,-2
1558440461784476,1,1,5,1,-2,0,-3,0
1558440461784476,2,-2,3,-1,1,-1,-1,1
1558440461801430,-3,-6,-10,-1,1,0,0,-1
1558440461801430,-1,-3,-3,-1,-2,-2,-1,-3
1558440461807414,-1,0,3,3,2,2,-2,0
1558440461807414,0,-1,-4,-4,-1,0,-1,-1
1558440461822375,0,1,2,-1,1,-1,-1,1
1558440461822375,-5,-8,-4,-3,-4,-5,-3,-1
1558440461829356,2,6,3,-1,0,2,0,0
1558440461829356,-1,-1,-3,-1,-1,0,-1,-3
1558440461838333,-2,-2,-6,-3,-1,-1,-3,-3
1558440461838333,-2,-3,0,-1,1,1,-1,0
1558440461845312,1,-1,2,0,-1,-1,1,-1
1558440461845312,1,7,4,2,3,2,2,1
1558440461861271,0,0,4,0,-2,0,0,0
1558440461861271,1,1,-1,3,0,-2,0,0
1558440461875240,-3,-3,-5,-3,-1,-3,-2,-2
1558440461875240,1,3,1,-1,-1,0,0,-1
1558440461882215,3,10,4,-2,-1,-2,-3,0
1558440461882215,-5,-12,-11,-8,-6,-5,-3,-4
1558440461890194,-1,-3,3,0,0,1,1,0
1558440461890194,-1,-3,4,-1,0,-1,1,-1
1558440461899169,-1,1,-4,-1,-1,-2,0,0
1558440461899169,2,6,8,3,1,0,-1,-1
1558440461905155,2,9,0,-4,-2,-2,-3,-1
1558440461905155,-7,-9,-8,-6,-4,-5,-4,-4
1558440461921111,-1,-9,-4,-2,0,-3,-1,-2
1558440461921111,2,1,0,1,0,-2,-2,-1
1558440461927094,-2,-4,-4,-4,-3,-2,-4,-4
1558440461927094,1,6,7,3,0,1,1,1
1558440461942053,-3,0,2,0,-2,1,-2,-2
1558440461942053,-2,-3,-7,-3,-2,-3,-3,-2
1558440461950032,0,-4,0,-1,0,-2,-1,1
1558440461950032,2,-2,-2,0,-1,-2,-4,0
1558440461959009,-1,-1,3,3,0,1,-1,0
1558440461959009,-6,-10,-13,-5,-3,-4,-2,-4
1558440461971977,-3,-5,-10,-4,-2,-3,-1,0
1558440461971977,-2,2,-2,1,-1,-1,0,-2
1558440461980950,-2,-2,0,-2,-1,-1,-2,-2
1558440461980950,2,5,5,0,0,2,2,2
1558440461986935,2,3,4,4,0,0,-1,0
1558440461986935,-4,-3,-9,-5,-4,-3,-3,-2
1558440462001895,0,4,5,4,1,-1,1,0
1558440462001895,-3,-7,-11,-5,-1,-2,-3,-4
1558440462009873,-1,2,-2,-1,0,1,-1,0
1558440462009873,3,6,8,1,1,-1,0,-1
1558440462018849,-4,-5,-3,-2,-1,-1,-1,-2
1558440462018849,3,1,6,3,1,0,-2,1
1558440462032812,-1,0,-1,-2,-1,-2,-1,-1
1558440462032812,-3,-4,-3,-1,-2,-1,-1,-4
1558440462040791,0,1,2,0,0,1,1,0
1558440462040791,-1,-1,5,0,-1,-2,-1,-1
1558440462047772,-1,-3,-1,-1,-1,-1,-2,-2
1558440462047772,2,2,-5,-1,-1,-2,-1,0
1558440462070710,-2,5,-2,-2,-2,0,0,-2
1558440462070710,0,2,0,-1,-1,-1,-1,-1
1558440462071707,-3,-6,-6,-6,-3,-2,-2,-4
1558440462071707,0,0,4,0,0,-1,-1,-1
1558440462078689,3,-1,-4,-2,-2,-1,-1,-1
1558440462078689,1,1,-1,-3,0,-1,0,1
1558440462092652,2,11,8,4,-1,-1,3,1
1558440462092652,-2,0,3,-1,1,1,1,1
1558440462101628,-4,-9,-8,-2,-1,-4,-3,-6
1558440462101628,0,1,0,-1,-1,0,-1,0
1558440462107612,2,1,0,0,0,-1,-1,-1
1558440462107612,-4,-4,1,0,-1,-1,-2,0
1558440462122572,0,1,2,-1,-1,1,0,0
1558440462122572,1,5,10,5,2,2,0,1
1558440462129552,-4,-10,-12,-7,-1,-1,-2,-3
1558440462129552,1,1,-3,-1,-1,0,0,-1
1558440462138528,0,3,6,4,2,0,0,1
1558440462138528,0,2,1,-2,-1,-1,1,-1
1558440462152492,-4,-5,-3,-1,-1,-2,-1,-2
1558440462152492,1,3,-10,-1,-2,-2,-1,-1
1558440462161467,-1,2,4,0,-1,0,-1,-1
1558440462161467,-1,-8,-18,-9,-5,-2,-3,-2
1558440462167452,0,-2,2,1,0,0,-2,0
1558440462167452,-3,-5,-5,-1,-1,-2,-3,-2
1558440462182410,0,-1,-3,-2,-2,-3,-3,-4
1558440462182410,1,1,4,1,1,-1,1,0
1558440462189393,-1,-2,0,0,0,0,0,0
1558440462189393,-2,-2,1,-2,0,-3,-2,-2
1558440462198369,0,-2,0,-4,-2,0,-1,-1
1558440462198369,-1,-5,-3,-1,-2,0,-1,1
1558440462212331,-1,2,-5,1,-1,1,-1,-3
1558440462212331,-1,0,8,2,1,0,1,5
1558440462221308,-1,-4,-5,-3,-1,1,1,-2
1558440462221308,-4,-1,-3,1,-1,-4,-3,-3
1558440462227293,-3,-2,1,-2,0,-3,-3,-2
1558440462227293,1,0,4,2,-1,1,0,1
1558440462242253,-2,-2,-2,-2,-3,-2,2,1
1558440462242253,-3,1,0,0,-1,-1,0,0
1558440462250230,-1,-2,2,-1,-1,1,0,0
1558440462250230,0,2,7,4,0,1,-1,-3
1558440462258208,-4,-14,-12,-9,-2,-1,-3,0
1558440462258208,0,3,0,-4,-3,-2,-2,-4
1558440462272171,-3,-3,-1,-1,-2,-2,0,1
1558440462272171,-2,-2,-6,-3,-3,0,1,-1
1558440462281148,-1,1,-2,0,-1,-3,0,-3
1558440462281148,0,1,-3,0,0,-1,-2,-2
1558440462287131,1,-5,-1,0,-2,0,0,-1
1558440462287131,-2,-1,-2,-3,-4,-2,-2,-3
1558440462302092,2,5,4,1,0,-1,-1,0
1558440462302092,0,-4,0,0,0,-2,-4,0
1558440462310069,1,2,3,-1,-1,-3,-3,-1
1558440462310069,-2,-3,-3,-1,-1,-1,-3,-2
1558440462326027,-1,2,2,0,-1,1,-2,0
1558440462326027,2,2,8,1,1,2,1,3
1558440462332013,0,-1,-2,-1,-2,-1,-2,-1
1558440462332013,1,-2,-1,-2,1,2,1,-1
1558440462347980,-1,-2,-3,-1,-2,-1,-1,0
1558440462347980,-2,-1,-1,-2,0,-1,0,-2
1558440462348979,2,4,-1,2,0,0,1,0
1558440462348979,-1,1,1,1,-1,-1,-2,0
1558440462362930,1,6,2,0,1,0,0,0
1558440462362930,-4,-4,-4,-2,-1,0,0,-1
1558440462369970,-3,-4,-2,-1,-1,-1,0,-1
1558440462369970,-1,-5,-6,-3,-2,-1,-2,-4
1558440462384930,2,1,2,2,3,0,2,1
1558440462384930,-1,-3,-5,-2,-4,-3,-2,-2
1558440462392849,0,-4,-8,-2,-3,-3,-2,-4
1558440462392849,0,3,5,0,0,0,2,1
1558440462407815,-2,-4,-1,0,0,0,-3,-1
1558440462407815,-3,0,-2,1,-3,0,-1,-1
1558440462408813,1,3,-3,-4,0,-1,-1,0
1558440462408813,-1,2,4,0,0,-3,-1,1
1558440462422799,1,-2,-7,1,-2,-3,-2,-3
1558440462422799,-4,-8,-11,-5,-3,-1,-4,-4
1558440462429795,-1,-4,2,-1,-1,0,0,-1
1558440462429795,-1,1,0,-1,-2,-2,-3,-2
1558440462444711,0,7,11,3,0,0,-1,2
1558440462444711,1,-1,7,2,2,2,4,1
1558440462452693,-5,-5,-3,-2,-3,-4,-4,-3
1558440462452693,-2,-8,-6,-1,-1,0,-1,-1
1558440462467649,-2,-4,-3,-4,-2,1,-2,-1
1558440462467649,4,6,7,4,1,0,1,0
1558440462468646,2,4,6,0,2,5,2,2
1558440462468646,-3,-1,-1,1,-2,-2,-2,-1
1558440462482669,-1,2,-1,0,0,-2,1,0
1558440462482669,-2,-1,-3,-4,-1,-5,-1,-2
1558440462489591,2,0,5,2,1,-1,2,2
1558440462489591,-2,-1,-1,-2,1,-2,-4,-3
1558440462506555,-1,-7,-3,-3,-1,1,0,1
1558440462506555,2,4,2,2,-1,0,2,0
1558440462512531,-4,-3,-2,0,-2,-3,-4,-4
1558440462512531,1,1,1,0,1,2,0,0
1558440462536531,-2,-2,-4,-3,-3,-4,-2,-4
1558440462536531,1,3,-3,-1,-2,-3,-2,0
1558440462537463,-1,0,0,-1,-1,-2,-2,-2
1558440462537463,-3,-3,-3,-2,-1,-2,-2,-1
1558440462542457,-3,-6,-7,-1,-4,-4,-2,-1
1558440462542457,0,1,-3,-1,-2,-2,-1,-2
1558440462549447,-2,-4,-6,-4,0,-1,-2,-1
1558440462549447,-2,-3,-4,-4,-2,-2,-2,0
1558440462565473,1,-1,2,-1,1,0,-2,2
1558440462565473,-2,-11,-12,-7,-4,0,-1,-1
1558440462572371,3,3,1,3,1,1,1,0
1558440462572371,-2,-1,4,-1,-3,-1,-2,-1
1558440462588328,0,-1,-1,1,-3,-3,-3,-2
1558440462588328,0,0,1,-1,-2,1,-1,1
1558440462588328,2,1,-3,-2,-1,0,0,-1
1558440462588328,-4,-3,-8,-5,-2,0,2,2
1558440462602332,8,-1,-6,-3,-1,-3,-1,-3
1558440462602332,-2,-3,4,3,-1,-2,-3,-3
1558440462610268,-2,-2,-1,-2,-1,-1,0,0
1558440462610268,-1,-2,-1,-4,0,-3,-1,-4
1558440462625260,-3,-2,-1,3,0,0,0,-1
1558440462625260,-9,-3,-3,-1,-2,-1,-1,-2
1558440462632208,-6,-10,-10,-6,-4,-2,0,-1
1558440462632208,2,1,2,0,-1,0,-1,0
1558440462648164,-7,-3,-4,-2,-3,-4,-2,-4
1558440462648164,1,1,1,0,1,-1,0,2
1558440462649163,1,5,2,2,-1,-4,-1,-1
1558440462649163,-4,-7,-5,-1,-5,-3,-3,-2
1558440462662128,3,5,4,0,1,0,0,1
1558440462662128,0,2,4,1,1,2,0,0
1558440462670107,-1,2,5,5,-1,1,-1,0
1558440462670107,2,-1,0,-1,-1,-2,-1,-2
1558440462685127,2,2,6,1,2,0,1,1
1558440462685127,-1,-4,-3,-3,-3,-2,-2,-2
1558440462692050,-1,1,1,2,2,3,0,0
1558440462692050,0,2,1,-1,1,0,0,-2
1558440462708066,-6,-2,3,0,0,0,0,0
1558440462708066,0,2,2,0,1,-1,0,2
1558440462709002,-1,-2,-2,0,-2,-2,-2,1
1558440462709002,1,1,2,2,1,3,2,1
1558440462722968,-1,3,2,1,-2,1,-1,-1
1558440462722968,-1,-2,0,-2,-4,-3,-2,-3
1558440462729952,0,0,-1,-3,0,-2,-3,-4
1558440462729952,-2,-8,-10,-4,-2,0,0,-1
1558440462744973,-3,-4,-6,-2,-2,1,1,0
1558440462744973,1,0,-3,-2,-2,-3,-2,1
1558440462752886,0,3,5,1,0,0,-1,1
1558440462752886,-4,-6,-4,-2,-1,-1,-1,-3
1558440462767973,1,2,3,0,0,-2,1,-2
1558440462767973,-3,-4,-6,-3,-1,-2,-2,-3
1558440462768848,-3,-3,-4,-1,1,-1,0,0
1558440462768848,1,4,4,0,-2,-3,-1,-2
1558440462782807,-2,-3,-4,-4,-3,-1,-3,-2
1558440462782807,1,6,8,1,3,2,1,-1
1558440462789790,-4,-5,-5,0,-3,-4,-2,-2
1558440462789790,-1,1,2,0,1,1,0,0
1558440462804749,-5,-6,-10,-4,-4,-3,-4,-4
1558440462804749,-2,-2,-1,-3,-1,-1,-2,-1
1558440462812762,-1,-2,2,-2,-1,-1,-1,0
1558440462812762,-1,-2,-4,-1,1,-2,-3,-1
1558440462827687,1,0,0,0,1,0,-1,-1
1558440462827687,0,0,-1,0,0,0,-1,-3
1558440462828683,2,-2,-2,0,1,0,1,0
1558440462828683,0,2,4,2,-1,-1,0,1
1558440462842688,-3,-7,-6,-1,-2,-1,0,0
1558440462842688,4,6,9,3,0,2,2,1
1558440462849664,-3,-1,-1,-6,-4,-2,-2,-3
1558440462849664,-1,5,4,1,-3,-3,-1,-1
1558440462864616,-3,-1,3,1,-2,-1,-1,0
1558440462864616,-4,-5,-10,-4,-1,0,0,-2
1558440462872565,0,0,1,2,0,2,1,-3
1558440462872565,2,4,3,0,-1,-2,-3,1
1558440462887527,0,0,2,0,0,1,-2,0
1558440462887527,0,-3,-1,-2,1,0,-1,0
1558440462895503,1,-1,-1,-1,0,2,0,2
1558440462895503,0,-4,-7,-3,0,-3,-1,-3
1558440462902485,1,1,0,1,-2,-2,-1,-1
1558440462902485,-1,-1,1,0,-1,-2,-1,1
1558440462909482,-4,-5,-6,-3,-4,-2,-4,-3
1558440462909482,-4,-3,-3,-2,-1,-1,0,-2
1558440462925720,0,0,1,3,0,1,-1,1
1558440462925720,-3,-5,-6,-4,-2,-3,-2,0
1558440462932740,-2,-2,-3,-4,-4,-3,0,0
1558440462932740,-1,0,-3,-2,-1,1,0,-2
1558440462947712,-4,-5,-5,-4,-4,-5,-9,-5
1558440462947712,-3,-5,-6,-5,-7,-6,-5,-4
1558440462954347,1,3,4,6,7,4,9,4
1558440462954347,-1,-1,1,-1,2,2,3,1
1558440462963628,-1,-1,-2,-4,-1,0,1,0
1558440462963628,-1,-1,1,-3,0,0,-3,-3
1558440462970474,0,-1,-4,-2,-4,-5,-4,0
1558440462970474,-3,-3,-2,0,-3,-4,-6,-1
1558440462985488,0,2,3,-1,1,0,0,-2
1558440462985488,-4,-6,-9,-3,-5,-5,-3,-1
1558440462992471,0,-1,-1,-1,-2,-1,-3,-1
1558440462992471,1,0,2,-1,-1,2,2,2
1558440463008204,-2,-2,-4,-4,-3,-4,-2,-3
1558440463008204,2,4,2,4,2,1,2,1
1558440463015415,-3,-3,-2,-4,1,0,-1,-1
1558440463015415,0,0,1,-3,0,-1,-1,0
1558440463031248,-1,-2,-2,0,0,-2,-1,0
1558440463031248,1,1,-1,0,0,1,1,-3
1558440463031248,-1,3,-1,-2,-1,-1,-1,-1
1558440463031248,-4,-6,-3,0,-2,-3,-3,-3
1558440463045302,-1,-1,0,1,0,1,0,1
1558440463045302,-1,0,-1,-2,0,2,0,2
1558440463053092,-1,-3,6,-3,-4,-3,-1,-1
1558440463053092,4,5,5,2,-1,0,-4,1
1558440463067512,-6,-13,-2,-2,0,-3,0,-2
1558440463067512,-2,0,-3,-1,-1,-2,0,-2
1558440463075283,1,0,-2,0,-3,-1,0,-2
1558440463075283,-2,-2,-6,-2,-1,1,0,-1
1558440463090241,1,1,1,-4,-3,-2,0,-1
1558440463090241,-3,-2,-1,-1,-1,-4,-5,-1
1558440463091240,-1,1,-1,-2,-2,-2,-2,0
1558440463091240,-1,0,-5,-1,0,-2,0,-1
1558440463105202,0,3,-1,-1,1,3,0,1
1558440463105202,-2,-4,-3,0,-2,-2,-3,0
1558440463112414,-1,-1,-1,-3,0,-3,-2,0
1558440463112414,0,2,3,0,-1,-2,1,-1
1558440463127383,1,3,0,2,1,1,2,2
1558440463127383,1,0,0,-1,-2,-3,-2,1
1558440463135364,-3,-3,-3,-1,-5,-1,-2,-2
1558440463135364,-3,-4,-2,-1,-8,-2,-2,-2
1558440463151262,-2,0,0,1,-6,1,-1,-1
1558440463151262,1,2,1,-1,-5,3,2,1
1558440463151262,1,-2,-1,-1,2,2,-1,-2
1558440463151262,-1,-2,0,0,3,-7,-2,2
1558440463165278,-4,-2,-4,-4,1,-1,-3,-3
1558440463165278,-3,-4,-1,1,3,-1,-1,0
1558440463172029,-2,-2,-1,1,2,0,-1,-1
1558440463172029,0,-2,1,-1,1,3,3,-1
1558440463187153,2,0,-3,-1,0,-3,-5,5
1558440463187153,0,2,1,2,1,-2,-3,1
1558440463195154,-2,-2,-4,0,0,-1,-2,-2
1558440463195154,0,0,-1,-1,0,3,1,-7
1558440463210923,1,-2,-2,-1,-1,-1,-1,-5
1558440463210923,-2,-1,0,1,0,1,0,-1
1558440463210923,-2,-2,-1,-2,-3,-2,-4,0
1558440463210923,-1,-3,-2,-2,0,1,-2,1
1558440463224882,-1,-1,0,0,-1,-4,0,0
1558440463224882,-2,-1,0,-1,0,3,2,0
1558440463233080,0,0,0,0,-2,-3,-1,0
1558440463233080,-2,-2,-1,-2,-1,-1,-2,-2
1558440463248050,-1,2,-1,-2,-2,-1,0,-1
1558440463248050,0,0,1,-2,0,-2,-1,-1
1558440463254807,-2,-1,0,0,1,-1,-1,-3
1558440463254807,0,-1,1,-1,-2,0,1,0
1558440463270766,0,-1,0,-2,0,0,0,0
1558440463270766,-3,-5,-4,-2,-3,-1,-1,-4
1558440463270766,1,1,0,2,-1,-1,0,-2
1558440463270766,-1,-2,-1,-1,-1,-4,-2,0
1558440463293760,-3,-2,-3,-1,1,2,1,-1
1558440463293760,-3,-3,-2,1,1,-4,-4,-4
1558440463293760,0,-4,-1,0,-2,-2,-3,0
1558440463293760,-1,-1,-3,-3,-1,1,-3,-2
1558440463307664,1,1,-1,-2,-3,-1,-1,-2
1558440463307664,1,-1,1,1,-1,-2,1,1
1558440463314646,0,-1,-3,-2,-1,-1,0,0
1558440463314646,0,-1,-1,-1,-1,1,0,-2
1558440463330949,-2,-1,-1,0,-1,-1,-2,0
1558440463330949,0,0,1,-2,-1,1,1,-1
1558440463331891,0,2,3,-3,-1,-1,1,-1
1558440463331891,-1,0,0,0,0,0,-1,0
1558440463345587,-2,-1,-4,-1,-1,-1,-2,-1
1558440463345587,0,2,-6,-1,0,-1,-2,-1
1558440463352881,0,0,1,-3,-1,1,0,0
1558440463352881,-1,0,-1,1,-2,0,-3,-1
1558440463367851,-2,-2,2,2,1,0,-2,-2
1558440463367851,-2,-2,-4,-6,-4,0,-2,-5
1558440463374817,-1,-3,-4,1,-2,-2,0,-1
1558440463374817,1,2,-3,-2,-2,0,1,0
1558440463390693,-1,-6,3,0,0,-4,-1,-1
1558440463390693,-2,-1,0,-1,1,0,-1,2
1558440463391437,0,-3,0,-2,0,1,-1,1
1558440463391437,-2,-3,-2,-1,-2,-2,-1,-2
1558440463404408,-1,4,-4,-2,0,0,-3,-2
1558440463404408,0,-3,3,1,-2,-2,-3,-4
1558440463412588,0,-1,-2,-3,-2,0,-1,2
1558440463412588,-3,-5,0,-1,2,-2,1,1
1558440463427561,1,2,-3,0,-3,-5,-2,0
1558440463427561,-2,-1,0,-2,0,0,0,-1
1558440463435324,-3,-2,-2,-3,-2,-2,-2,-6
1558440463435324,0,-1,-3,0,-2,-4,-2,0
1558440463450489,0,1,0,-1,-2,-1,0,-1
1558440463450489,-2,-4,-1,-2,0,-1,-1,-2
1558440463451284,-5,-5,4,0,0,2,1,2
1558440463451284,-1,-3,-3,0,0,-2,-1,-1
1558440463465399,-4,-2,1,-3,-2,0,-2,-2
1558440463465399,2,2,1,0,-2,-1,1,1
1558440463472226,0,2,-3,2,-1,-1,0,-3
1558440463472226,-1,-2,1,0,-1,-3,-5,-4
1558440463487187,-1,-2,-1,-4,1,3,2,1
1558440463487187,0,-2,-3,-1,-3,-3,-3,-4
1558440463495347,0,-2,0,0,2,-3,-2,-2
1558440463495347,-1,1,0,-1,-2,1,-1,1
1558440463510125,2,1,1,-1,-2,-2,-1,1
1558440463510125,-1,1,0,1,0,3,1,2
1558440463511123,0,1,-2,0,-3,-2,0,-3
1558440463511123,1,-1,-2,-4,1,0,0,0
1558440463525079,0,-2,1,3,1,1,-1,1
1558440463525079,-2,0,-3,-3,-2,-4,-2,0
1558440463532064,-1,0,-3,-3,-1,0,-2,1
1558440463532064,3,3,2,-1,-3,-3,0,-2
1558440463548164,-1,0,-2,-4,-1,1,0,-2
1558440463548164,1,-1,-3,-3,-2,-1,2,0
1558440463555000,-1,0,-3,-1,-2,-1,-2,-1
1558440463555000,-1,0,0,1,0,-1,-1,-2
1558440463569957,0,-1,0,-3,0,0,-1,0
1558440463569957,-1,-2,0,-1,-3,-3,-2,0
1558440463570955,-2,0,-1,-1,-3,-3,0,-2
1558440463570955,-1,0,1,-2,0,3,1,0
1558440463585259,-1,-2,-4,-2,-1,-4,0,-2
1558440463585259,-1,-2,-1,2,-1,0,-1,-1
1558440463593100,2,0,1,-1,-1,-1,-4,1
1558440463593100,-3,1,-2,0,0,-2,-2,-2
1558440463608096,-2,0,-2,2,1,-1,-1,-1
1558440463608096,0,1,0,-1,1,2,3,3
1558440463615183,-4,-4,-3,-1,-3,-5,-4,-5
1558440463615183,-1,-1,0,0,-3,-2,0,-2
1558440463631212,-1,-1,-1,0,-3,-1,-2,-5
1558440463631212,-2,-2,1,-1,1,0,3,2
1558440463631212,-2,1,1,-2,-1,1,0,-1
1558440463631212,0,-3,-1,-2,-3,0,0,2
1558440463645609,-2,-1,0,0,0,-1,2,-2
1558440463645609,-2,-3,-6,-4,-2,-4,-3,-4
1558440463652568,2,-1,-1,-1,1,1,1,1
1558440463652568,-1,-4,-2,1,-1,0,-2,-1
1558440463668097,0,-1,-1,-3,-3,-2,-1,0
1558440463668097,0,-1,-1,-1,-2,-2,-4,-5
1558440463675392,-1,4,-2,1,-2,-2,-1,0
1558440463675392,1,5,-4,-3,-1,-2,-2,-1
1558440463690628,1,-2,4,-1,0,0,-2,-1
1558440463690628,-1,1,3,1,-2,0,-1,-2
1558440463691359,0,0,-3,0,-1,0,-1,0
1558440463691359,-2,-2,-1,-3,-1,-2,-2,-1
1558440463704327,-2,2,-6,-1,0,0,0,-1
1558440463704327,-3,1,-3,0,-2,-2,-2,1
1558440463712302,0,0,0,-3,1,1,0,1
1558440463712302,-2,-2,-1,-2,0,-1,-1,0
1558440463727262,-2,-4,-2,0,-2,-3,0,-1
1558440463727262,0,-3,1,-1,-3,1,0,-2
1558440463735600,0,-1,0,-1,0,-1,2,-1
1558440463735600,-3,-5,-7,-2,0,-1,-1,-4
1558440463750678,0,-1,-1,-2,0,-5,-2,-1
1558440463750678,-2,-1,0,-1,0,0,-1,1
1558440463752196,-2,-4,1,-2,-2,1,0,-1
1558440463752196,-1,-1,0,0,-2,1,-1,1
1558440463765204,0,0,1,-3,-1,1,-1,1
1558440463765204,1,-2,-1,-1,0,-2,-1,-2
1558440463772144,-4,-3,-4,0,-2,-2,-1,-3
1558440463772144,-3,-3,0,-1,-1,-2,-3,-1
1558440463787185,0,-1,-2,0,-2,0,-3,-1
1558440463787185,1,-1,-3,0,1,-1,-1,0
1558440463795438,-1,-3,-3,-2,-1,-2,-1,0
1558440463795438,0,1,1,-1,0,0,2,-1
1558440463811348,-1,-1,1,0,-2,0,0,1
1558440463811348,-1,2,1,-1,-1,-2,0,1
1558440463818377,1,3,1,0,1,-3,0,1
1558440463818377,0,-1,-1,-3,0,1,1,-1
1558440463825379,-3,-2,-1,5,-1,1,-3,-1
1558440463825379,0,0,-3,-2,-2,-2,-2,-1
1558440463833017,-2,-1,0,-1,2,2,0,2
1558440463833017,-1,0,1,3,-1,-2,-2,-3
1558440463848143,1,-1,0,-4,-2,-2,-2,-1
1558440463848143,-2,-2,-1,-1,1,1,0,-2
1558440463854923,-1,-2,-3,-2,-1,0,0,-3
1558440463854923,1,-1,0,0,0,0,0,1
1558440463870152,0,-1,0,-1,-2,-1,1,2
1558440463870152,0,-2,0,-1,-2,-2,-2,-1
1558440463878122,-2,-2,-1,1,-2,-2,-3,-1
1558440463878122,-2,-3,-3,-3,-3,-1,0,-1
1558440463885108,-1,-3,-4,-4,-2,0,0,-1
1558440463885108,0,0,-2,0,0,-1,0,0
1558440463892982,-2,0,3,0,-1,-4,-5,-3
1558440463892982,1,1,1,-1,1,3,2,2
1558440463908049,-4,-3,-2,0,0,-2,-1,-2
1558440463908049,-3,-3,-4,1,1,0,-4,-2
1558440463914762,1,-1,-2,-2,-2,1,0,0
1558440463914762,-2,1,0,0,-1,-1,-1,1
1558440463929720,0,-1,1,1,-2,0,1,1
1558440463929720,-2,0,2,-3,-4,-2,0,-3
1558440463937701,-2,-2,-1,-2,-1,-1,-2,-1
1558440463937701,-1,-2,0,0,-3,-2,-3,-2
1558440463944680,0,1,-1,-3,-2,-3,-4,-3
1558440463944680,-2,1,0,2,0,-1,-2,-2
1558440463952658,-2,-3,-2,-1,-2,-1,0,1
1558440463952658,-1,-3,0,-1,0,-1,-1,-1
1558440463967618,-2,-1,1,-1,0,-2,-1,-1
1558440463967618,1,-1,1,-1,0,0,0,-1
1558440463974600,0,3,2,2,1,2,1,1
1558440463974600,1,-1,-4,-4,-1,-2,0,-1
1558440463990558,-1,0,-1,0,-2,-1,-1,-1
1558440463990558,-1,-1,0,0,-1,0,-2,-2
1558440463998774,0,0,0,-1,0,2,2,0
1558440463998774,-5,-1,-3,0,-1,-3,-4,-1
1558440464013947,1,-2,-2,-1,-1,-5,-1,-1
1558440464013947,3,-2,-2,-2,-1,-3,-3,2
1558440464013947,-2,-5,-6,-3,-1,1,-1,-4
1558440464013947,2,2,3,2,-3,-2,-1,-2
1558440464027787,-3,-4,-1,2,0,-1,-1,0
1558440464027787,-1,-1,0,-1,-1,-1,-1,-1
1558440464035601,-3,-7,-6,-2,-5,-6,-3,-2
1558440464035601,-2,-6,1,-1,-1,2,-1,-1
1558440464050678,0,-1,-3,0,2,2,0,-1
1558440464050678,0,1,-2,-4,-1,0,3,-2
1558440464058693,-1,-2,2,0,-3,0,0,-3
1558440464058693,2,4,-1,-2,0,-2,1,0
1558440464073778,-3,-3,-2,-5,-2,1,-3,-3
1558440464073778,-3,-4,-3,-4,-1,0,2,0
1558440464073778,-2,-1,-1,1,-1,-3,0,0
1558440464073778,0,2,2,-1,-1,-1,1,-1
1558440464087301,0,3,1,-2,0,0,-1,1
1558440464087301,-2,0,-3,1,0,-1,-2,-2
1558440464095534,-2,-4,-4,-4,-2,0,-1,-2
1558440464095534,-4,-3,-4,-4,-2,0,-4,-1
1558440464110485,0,0,-3,2,-1,-2,-2,-3
1558440464110485,-1,-4,2,-1,-1,0,0,-1
1558440464118218,-1,0,-1,-2,0,-2,0,-1
1558440464118218,-1,-2,-2,-1,1,-1,-3,-1
1558440464133177,0,1,2,1,-2,-3,-2,1
1558440464133177,0,0,1,-4,0,-1,-2,-2
1558440464134173,2,2,3,0,2,1,1,0
1558440464134173,-2,-2,-5,4,1,-1,-4,-1
1558440464148137,-2,-4,4,-3,2,4,1,-1
1558440464148137,-2,-1,-2,-2,-3,-4,0,-1
1558440464155118,-1,-1,0,1,-1,-2,-3,-2
1558440464155118,1,-2,-2,-3,0,2,1,0
1558440464170390,-1,-1,-2,-3,-1,-2,-1,-1
1558440464170390,0,3,-2,0,-1,2,0,0
1558440464178106,0,-1,3,0,-3,-4,-3,-1
1558440464178106,1,0,-1,-3,-4,-1,-1,-1
1558440464193290,-2,0,-2,-3,-1,-2,-2,-1
1558440464193290,-1,0,-1,0,0,-3,-1,0
1558440464194019,0,3,-5,-3,-4,0,1,0
1558440464194019,-2,0,0,5,-1,-5,-4,-2
1558440464208025,0,1,-1,-4,-2,0,-1,0
1558440464208025,1,-2,2,-5,-2,2,0,-1
1558440464215241,-1,2,2,-4,2,1,1,-1
1558440464215241,-2,-2,0,-2,-3,-5,-2,-1
1558440464230201,0,0,-1,4,-1,-1,-1,-2
1558440464230201,-2,1,1,3,2,-1,-1,0
1558440464237899,-2,-3,-2,-2,-2,-3,-3,-1
1558440464237899,-1,-1,-2,-2,0,0,0,0
1558440464253156,-5,-6,-5,-2,-3,-3,0,-1
1558440464253156,-3,-4,-3,-4,-3,-1,-1,-3
1558440464253855,1,-1,0,3,1,2,0,-1
1558440464253855,0,-2,-3,-6,-1,2,0,-1
1558440464268068,0,1,0,-2,-1,-3,-1,-2
1558440464268068,0,1,1,1,2,1,2,2
1558440464275055,-2,-5,-6,-1,-2,2,-1,-2
1558440464275055,-2,-2,-1,-2,-1,-3,-1,-3
1558440464290007,2,0,-1,-2,0,0,-1,1
1558440464290007,-1,-1,1,1,0,-3,-2,-1
1558440464298009,-1,1,1,-1,1,-1,-1,0
1558440464298009,0,1,0,-1,-1,0,1,-1
1558440464313730,0,-1,0,2,0,0,-1,-3
1558440464313730,-1,-4,-5,-3,-4,-3,-2,-1
1558440464313730,1,0,2,0,1,-1,-2,0
1558440464313730,-4,-4,-5,-5,-2,-1,-3,0
1558440464327910,-3,-4,0,0,-1,-3,-3,0
1558440464327910,-1,-2,-1,-3,-2,-3,-3,-1
1558440464334670,-3,-3,-1,-2,1,-2,-1,-3
1558440464334670,0,1,1,2,1,3,2,0
1558440464350628,-1,-1,-1,-3,1,1,-1,-1
1558440464350628,-4,-3,-1,-1,-3,-1,-1,0
1558440464358814,-1,0,0,1,-2,-3,-2,0
1558440464358814,-1,0,-2,0,0,1,1,1
1558440464373771,-2,-3,-2,-2,-3,-1,-2,-2
1558440464373771,0,-1,-3,0,0,0,-1,-3
1558440464373771,1,3,2,-1,-1,0,0,2
1558440464373771,-3,-2,-3,-2,-1,-2,-2,-2
1558440464387497,1,-1,-1,0,-2,-1,-3,-5
1558440464387497,0,-1,-2,-1,-1,0,0,-1
1558440464395475,-3,-2,-2,-2,-1,-2,0,0
1558440464395475,-1,-1,-2,-5,-1,-2,0,-1
1558440464410468,0,4,-2,1,-3,1,1,2
1558440464410468,0,0,4,-1,1,1,-2,0
1558440464418713,0,-1,0,-2,-1,1,-1,-1
1558440464418713,1,1,2,1,1,-1,-3,-2
1558440464433689,0,-1,1,1,-1,-1,-1,-2
1558440464433689,0,-1,-4,-3,-2,-4,-2,-2
1558440464433689,-1,-2,-3,-2,0,1,2,-1
1558440464433689,0,0,1,2,-3,-3,-1,-2
1558440464447642,-1,1,0,-3,2,0,3,0
1558440464447642,-3,-5,1,-2,0,-1,-2,0
1558440464454320,-1,-2,-1,3,0,-2,-4,-1
1558440464454320,0,0,-1,-2,0,-1,1,2
1558440464470330,-3,-5,-2,-3,-2,-2,-2,-2
1558440464470330,0,1,-2,2,-1,-1,1,-1
1558440464478574,1,-1,-3,-2,-2,0,-1,1
1558440464478574,-2,-3,1,-1,0,1,-1,-2
1558440464493537,0,-2,-1,-1,0,-1,-2,1
1558440464493537,-2,-2,-2,1,0,0,-1,1
1558440464493537,-5,-3,-3,-2,0,-1,1,-2
1558440464493537,2,3,0,0,0,0,0,-1
1558440464507481,-1,-2,-4,-2,-3,0,-2,1
1558440464507481,-1,-1,-2,-2,0,-1,-2,0
1558440464515438,0,0,-1,-2,0,-1,0,-3
1558440464515438,-2,-2,-2,0,-2,-1,0,-1
1558440464530421,-2,1,0,1,0,-2,0,-3
1558440464530421,-3,-1,-2,-2,-1,-3,-1,-1
1558440464538096,-1,0,-3,-3,0,-3,-2,-2
1558440464538096,0,-1,0,0,-1,-2,-1,-1
1558440464553083,0,-2,0,-2,1,-1,-1,-3
1558440464553083,0,0,-1,-1,-2,1,0,-1
1558440464554056,0,-1,1,2,-2,-2,0,-1
1558440464554056,-1,2,-1,-2,-1,-3,-2,-1
1558440464568100,0,-2,0,-2,-2,1,1,0
1558440464568100,2,1,3,0,1,1,1,0
1558440464575284,1,0,-4,-4,-1,-1,-1,-1
1558440464575284,0,-1,-1,0,0,2,0,0
1558440464590250,-2,0,1,0,-2,-2,-3,-2
1558440464590250,-1,-2,-2,1,0,0,-2,-1
1558440464598252,3,3,2,-3,-1,2,0,1
1558440464598252,-1,-8,-6,-3,-1,-1,-3,-3
1558440464613183,-3,-2,-3,1,-1,-5,-3,-1
1558440464613183,-1,0,-2,-2,-1,-1,-3,-3
1558440464613895,-5,-1,0,0,-1,-1,-2,0
1558440464613895,0,0,1,1,1,1,0,0
1558440464627979,-1,0,1,-2,-1,3,-1,-2
1558440464627979,0,0,-2,-5,-2,-4,-2,-1
1558440464635126,-2,1,2,0,-2,-2,-1,1
1558440464635126,-2,0,-2,-1,0,0,1,-1
1558440464650084,-1,-2,-2,-2,0,-2,1,1
1558440464650084,-2,-5,-1,2,-1,-1,0,0
1558440464658069,-1,-3,-3,1,0,0,-1,-1
1558440464658069,0,-2,-3,-2,0,-1,-2,-1
1558440464673731,1,2,-1,-3,-1,-3,-2,-1
1558440464673731,-1,1,-2,0,1,2,1,-2
1558440464673731,-3,-4,-5,-3,-2,-4,-1,0
1558440464673731,-1,1,-3,-3,-3,0,0,-4
1558440464687695,-1,-6,1,-2,0,2,3,0
1558440464687695,-2,-1,1,0,-3,-2,-1,-2
1558440464694745,0,-3,-2,-3,-1,-3,-3,-1
1558440464694745,0,1,1,-3,1,-1,0,1
1558440464709708,-1,-1,-2,0,-1,-2,-1,0
1558440464709708,-1,2,1,-2,1,2,2,1
1558440464717903,-2,-3,-4,-1,1,0,-3,-1
1558440464717903,-2,-3,-1,0,-2,-3,-3,-3
1558440464732858,-2,-1,-4,-2,-3,-3,-5,-2
1558440464732858,-1,-1,-3,-2,-1,0,-1,-2
1558440464740555,-1,0,-1,0,-2,-1,1,-3
1558440464740555,-1,-3,0,1,0,-1,-1,1
1558440464747535,1,-2,2,0,-1,-1,0,1
1558440464747535,0,-1,-2,0,0,-1,-2,0
1558440464754516,-2,-3,-4,-3,-2,-1,-1,-2
1558440464754516,-2,0,0,-4,-3,1,2,0
1558440464769779,-2,1,-1,1,1,1,-2,-2
1558440464769779,-2,-3,-1,3,-3,-4,-4,-1
1558440464778738,-2,-2,1,0,-1,0,0,-2
1558440464778738,0,0,-4,-1,0,-2,-2,-2
1558440464792739,0,1,-2,-1,0,0,3,0
1558440464792739,0,-1,0,0,-1,-3,-1,-2
1558440464800709,-2,0,1,-2,0,2,0,-2
1558440464800709,-3,-3,1,0,-2,0,-2,0
1558440464807682,0,2,-1,1,-1,0,0,-1
1558440464807682,0,1,1,-1,-1,0,0,0
1558440464815512,0,1,3,0,-2,-3,0,0
1558440464815512,-1,-2,-3,-2,0,-2,0,0
1558440464830615,2,-1,-1,-3,1,1,-1,0
1558440464830615,1,0,3,0,1,0,0,-2
1558440464838290,-2,-2,-2,-3,-3,-1,-2,-1
1558440464838290,0,-2,-1,0,-2,0,-1,0
1558440464852551,-1,-2,2,-2,0,-1,3,1
1558440464852551,-4,0,-2,-4,-1,-2,-2,0
1558440464860363,2,1,-3,1,0,-2,-1,0
1558440464860363,-1,1,0,-2,0,0,-3,-4
1558440464867550,0,2,0,-1,-3,-4,0,1
1558440464867550,3,6,-1,0,-3,-1,-1,0
1558440464875533,0,-3,0,-1,-1,0,0,0
1558440464875533,0,0,0,-1,0,1,3,0
1558440464890500,-2,-1,2,-2,-3,-3,-2,-3
1558440464890500,-2,-2,1,2,-1,-2,-2,0
1558440464898440,-1,1,-1,-1,-2,-1,1,-1
1558440464898440,-7,-11,-9,-5,-3,-2,-2,-1
1558440464912433,-1,-1,-1,0,-2,-2,-2,0
1558440464912433,0,-3,-1,-2,-1,0,-1,0
1558440464920254,0,-3,-1,-1,-1,0,0,0
1558440464920254,1,1,2,3,0,0,-1,-1
1558440464936256,-2,-2,-1,1,2,2,-3,-4
1558440464936256,-4,-6,-6,-5,-1,-3,-2,-4
1558440464936256,0,2,-2,0,-2,-3,-2,-3
1558440464936256,0,1,-3,1,-1,0,-1,-1
1558440464950035,-1,-3,-3,-3,-3,1,0,-1
1558440464950035,-2,-3,-3,-2,-3,-1,-2,-3
1558440464958013,3,2,0,2,-1,0,1,1
1558440464958013,-3,0,2,0,-1,0,1,0
1558440464971994,1,0,-1,-3,-2,-1,-1,-1
1558440464971994,1,-3,-4,-1,-1,0,0,1
1558440464981299,-1,-2,-2,-2,-1,-2,-2,-2
1558440464981299,1,-1,4,-2,-1,-3,-1,0
1558440464994914,0,1,-6,1,2,-1,-1,0
1558440464994914,-2,2,0,2,-1,0,0,-2
1558440464995911,-3,-3,0,-3,0,-3,-2,-1
1558440464995911,-2,-2,2,-1,-2,-4,-5,-3
1558440465010874,-3,-3,-2,1,0,1,1,1
1558440465010874,0,0,-1,-4,1,1,0,0
1558440465016856,-2,-2,1,0,-1,0,1,0
1558440465016856,-1,-2,-4,-1,-3,-3,-4,-1
1558440465031851,-2,-1,1,-2,0,-2,0,-1
1558440465031851,0,-3,0,2,-1,-3,-2,-2
1558440465040852,1,-2,-2,-1,-4,-3,-4,-2
1558440465040852,0,1,3,2,-1,0,2,0
1558440465056194,-3,-2,-1,-4,-2,-4,-3,-2
1558440465056194,-1,3,4,0,2,1,2,1
1558440465056194,-1,-1,-2,-1,-1,-1,-2,-1
1558440465056194,0,1,1,0,0,0,2,3
1558440465070144,-2,-2,-1,-2,-3,-1,-1,-2
1558440465070144,-4,-1,-2,0,0,-1,-2,-3
1558440465078160,-1,-2,-1,-2,1,2,-1,-1
1558440465078160,1,-1,-1,-1,-3,-5,-4,-4
1558440465092546,0,1,-1,1,-1,0,0,0
1558440465092546,-5,-12,1,-2,-3,-2,-2,-1
1558440465101463,0,2,0,-1,-1,0,2,1
1558440465101463,2,-1,-3,-3,-2,-1,-2,0
1558440465115433,-3,-3,0,1,0,-3,0,0
1558440465115433,-1,0,-1,-3,-2,-4,-1,-3
1558440465117097,-1,-2,-1,-1,-1,-2,1,-1
1558440465117097,-3,-6,2,2,-2,0,-3,-2
1558440465138003,0,-2,-3,-2,-1,-2,-4,-1
1558440465138003,2,1,0,2,2,1,0,0
1558440465139027,-5,0,0,0,-1,-1,-2,-5
1558440465139027,1,2,-3,2,0,0,0,0
1558440465153205,0,-1,-1,-1,-1,2,-1,-1
1558440465153205,-1,0,-1,0,-1,0,-1,-2
1558440465159944,1,2,0,3,0,1,-2,0
1558440465159944,-4,-2,-2,-5,-2,-4,0,-1
1558440465176418,-4,-6,-6,-3,-3,-3,-1,-1
1558440465176418,0,1,-1,-1,0,0,2,0
1558440465176418,0,-2,0,-4,0,1,0,0
1558440465176418,-2,-2,-3,-2,0,-2,-4,-3
1558440465190172,-2,-1,-3,-1,-1,-1,-1,-1
1558440465190172,0,0,-4,-2,0,1,-1,-2
1558440465198168,-1,-3,0,-3,1,0,-5,-2
1558440465198168,0,0,0,-1,2,3,1,4
1558440465213142,0,0,0,2,-2,-4,-3,-1
1558440465213142,-1,0,-2,-1,-1,0,0,-1
1558440465220782,0,0,-1,-2,0,1,1,0
1558440465220782,0,-1,0,0,-4,-5,-4,-2
1558440465236071,-2,-1,0,-2,-1,-2,0,-1
1558440465236071,0,0,1,0,-1,-2,-3,1
1558440465236071,-2,0,-1,0,-3,1,-1,-3
1558440465236071,-2,0,0,-2,-1,0,0,-1
1558440465250041,-3,-1,-3,-3,-3,-1,2,0
1558440465250041,-1,0,-1,-2,-1,-1,-1,2
1558440465257997,-3,-1,-2,-1,-2,-3,-1,-2
1558440465257997,-1,0,1,0,-1,0,1,-3
1558440465272887,1,2,0,1,1,0,-2,-2
1558440465272887,-2,-3,-2,-1,-2,-3,-4,-3
1558440465280905,-1,-1,-5,-4,-1,0,0,1
1558440465280905,0,0,0,-3,0,1,1,0
1558440465295839,-1,-1,-2,-2,-1,1,0,-2
1558440465295839,1,1,5,0,0,3,0,0
1558440465296581,0,-3,-4,-2,-1,-1,-2,-3
1558440465296581,0,4,-2,2,1,-1,-2,-2
1558440465310551,0,-1,2,0,0,1,0,1
1558440465310551,-2,-2,0,-3,-2,-1,0,-2
1558440465317807,-2,0,2,0,0,-3,0,-2
1558440465317807,-1,-3,-4,-2,-1,-1,0,-2
1558440465332736,1,1,2,-1,0,-2,-1,-1
1558440465332736,-2,0,-3,-2,1,-1,-2,-2
1558440465347443,-1,-2,-1,0,-3,-5,-2,0
1558440465347443,-3,-5,-4,-1,-1,0,-3,-2
1558440465355421,1,1,0,-2,1,2,2,-2
1558440465355421,-1,-2,-4,-3,-3,-4,-2,-3
1558440465356418,0,0,0,0,-2,0,-1,-1
1558440465356418,0,0,0,-3,0,1,0,1
1558440465369895,-2,-3,-1,-2,-1,0,-1,-1
1558440465369895,-1,0,0,1,0,0,-1,0
1558440465377364,-2,-2,-2,-1,-1,-2,-2,0
1558440465377364,0,-1,1,1,0,0,-2,3
1558440465393340,-4,-2,-4,1,-1,-1,-2,-2
1558440465393340,-1,-3,0,-1,-4,-3,0,0
1558440465400777,1,-3,-1,-1,-1,-1,-1,0
1558440465400777,-1,3,2,-1,-2,2,1,-3
1558440465415735,-1,-3,-2,1,-1,-1,-2,-1
1558440465415735,0,2,-1,-2,1,0,2,-1
1558440465416263,-2,1,-1,-3,-3,-1,0,-1
1558440465416263,-1,0,1,0,-1,-2,-1,0
1558440465430625,-1,0,-3,-3,-1,0,-2,0
1558440465430625,1,-1,-3,-2,-2,2,0,1
1558440465437204,-3,-4,-4,0,-2,-2,-4,-2
1558440465437204,-1,-1,-3,-2,-2,-3,-2,-2
1558440465453061,0,0,0,-1,-2,-3,-1,-2
1558440465453061,-4,-5,-1,-2,-2,-1,0,1
1558440465460869,0,0,3,0,-1,0,1,0
1558440465460869,-1,-2,-2,-4,-2,-2,-2,0
1558440465476020,0,-1,0,0,0,0,-2,-1
1558440465476020,1,-1,2,1,1,-1,-1,0
1558440465476631,-4,-1,-2,-3,0,1,1,-1
1558440465476631,-2,0,-3,-1,-1,-1,0,-2
1558440465489959,1,2,2,1,0,1,2,-1
1558440465489959,-4,-3,-5,0,-3,0,-2,-2
1558440465497933,0,-1,0,-1,2,0,-1,-2
1558440465497933,-1,-2,-1,-1,0,2,0,-2
1558440465512890,-6,-4,-3,-1,-1,-2,-2,-2
1558440465512890,2,-1,-2,-1,-1,0,-2,0
1558440465520515,-4,-1,-2,-1,-2,-3,-3,-2
1558440465520515,-1,0,0,-1,-3,-1,1,-1
1558440465535826,0,-2,0,-3,-2,-1,-1,0
1558440465535826,-3,0,-1,-1,-2,-2,-2,-1
1558440465536754,0,-1,-3,1,1,1,-2,-2
1558440465536754,2,0,4,-1,2,-1,-1,-1
1558440465551431,-1,0,-1,-3,-2,-1,0,-1
1558440465551431,-3,0,0,1,-2,-4,-1,-2
1558440465557766,0,-1,0,1,0,-2,-1,2
1558440465557766,0,0,1,-2,1,2,3,0
1558440465572411,-4,-3,-2,-2,-2,-5,-4,-4
1558440465572411,-1,-2,-2,1,-1,0,-2,0
1558440465580706,7,1,0,-2,1,1,-1,-2
1558440465580706,-4,-1,-1,1,0,1,3,-1
1558440465595662,0,-1,-2,1,-1,-2,0,-4
1558440465595662,-2,0,-2,-2,0,-1,-1,-1
1558440465596313,-1,-4,-3,-4,-3,-1,-1,1
1558440465596313,-1,-1,-2,-1,-3,-2,-2,1
1558440465609677,0,2,-1,2,0,0,-1,1
1558440465609677,-2,-2,0,-4,-2,-4,-4,-5
1558440465617639,4,3,4,0,1,1,2,2
1558440465617639,-3,-5,-3,0,-2,-3,-4,-4
1558440465632594,0,0,-1,-1,0,0,1,0
1558440465632594,-1,1,1,-3,1,1,0,0
1558440465640577,-3,-1,0,3,-1,-1,0,1
1558440465640577,2,-1,-1,-1,-2,0,-1,-2
1558440465655198,0,-2,2,-1,-4,-3,-3,-1
1558440465655198,-1,-3,-4,-1,-1,-2,-1,-1
1558440465663448,-2,0,2,1,-2,0,0,-2
1558440465663448,0,-2,0,-1,-3,0,1,1
1558440465670190,-1,-2,-2,-3,0,-1,-1,0
1558440465670190,2,1,2,0,-1,-1,2,0
1558440465677404,-3,2,1,0,-2,-2,-2,-1
1558440465677404,-3,-1,-2,-2,0,-2,0,-1
1558440465692356,-1,0,3,1,2,2,0,-1
1558440465692356,-2,-2,-2,-2,-2,0,-2,-2
1558440465701254,-2,-1,1,-1,-1,-3,-2,-2
1558440465701254,-1,-2,-3,-2,0,0,0,-1
1558440465715316,0,1,1,2,-1,-1,-2,0
1558440465715316,-3,-3,-4,-1,-1,0,0,1
1558440465723254,-3,-4,-5,-2,-3,-2,-1,-2
1558440465723254,-4,-2,-1,0,-2,-2,-3,-2
1558440465730230,3,-2,-5,-3,-2,-3,0,-1
1558440465730230,-4,-1,-3,-2,-1,1,0,-2
1558440465736983,1,0,1,0,0,-1,0,1
1558440465736983,-1,-4,-5,-4,-1,-6,-5,-5
1558440465753933,-1,3,5,0,0,2,2,0
1558440465753933,0,2,3,1,1,-2,-1,-2
1558440465761224,-2,-3,-2,-1,1,1,0,0
1558440465761224,0,1,1,1,-2,-5,-3,2
1558440465775182,0,1,6,-3,0,1,1,2
1558440465775182,4,2,0,3,1,2,-1,-1
1558440465783166,-5,-5,-5,-5,-3,1,-1,-3
1558440465783166,4,2,1,0,1,2,0,3
1558440465790125,-12,-5,-3,1,-1,-2,-3,-3
1558440465790125,-1,1,0,-1,-2,0,-2,-1
1558440465798076,-1,-4,3,-1,1,-2,2,-1
1558440465798076,0,-2,-1,-1,-1,-2,1,-1
1558440465812518,-1,-4,-9,-3,-3,-2,-1,0
1558440465812518,5,-7,1,-4,-2,-2,-1,-1
1558440465820171,-11,1,-2,-1,0,0,-1,-1
1558440465820171,-4,-1,0,1,-3,-1,-3,-2
1558440465835418,-1,-1,1,-1,0,1,-3,-2
1558440465835418,-1,-1,-3,-4,-2,-1,0,0
1558440465843093,4,-2,-4,1,-1,0,1,-1
1558440465843093,-4,-3,0,-3,-2,-3,-1,-2
1558440465858052,4,1,-1,-2,0,-1,-1,-1
1558440465858052,-1,-1,2,1,-1,-2,0,0
1558440465859049,-3,2,0,0,-1,-3,-2,-1
1558440465859049,1,0,0,-4,0,-1,-2,-2
1558440465873068,1,0,-1,2,0,0,0,-1
1558440465873068,4,-3,-4,-2,-1,-2,0,-1
1558440465881301,-2,1,-3,-3,0,-1,0,0
1558440465881301,-1,-1,-1,-2,-2,-3,-3,-2
1558440465895245,-3,-2,-3,-2,-1,-1,0,1
1558440465895245,1,1,3,0,2,2,3,2
1558440465903259,0,-4,-5,-2,-4,-3,-2,-3
1558440465903259,0,5,6,3,0,0,1,1
1558440465918499,4,-4,-4,-3,-3,-2,-1,1
1558440465918499,-6,-2,-1,-2,0,-2,-1,-2
1558440465918499,1,-2,-1,-3,0,1,2,1
1558440465918499,-5,-6,-9,1,-1,-3,-5,-5
1558440465932435,-2,-1,0,-4,0,-2,-3,-1
1558440465932435,-1,1,-4,-3,-1,-3,-3,0
1558440465940421,-1,-2,-1,0,0,-1,-1,-1
1558440465940421,2,1,-1,-3,0,1,0,-1
1558440465955154,-1,-3,-1,-1,-1,0,-1,-2
1558440465955154,-5,-4,-2,1,-2,0,0,-3
1558440465963349,0,0,0,-1,-1,0,-4,-2
1558440465963349,1,3,2,-2,0,-1,1,2
1558440465978100,-3,-1,-2,-1,-2,-1,-2,-4
1558440465978100,-1,2,1,3,1,2,2,2
1558440465979276,0,1,2,0,0,0,0,0
1558440465979276,-3,-3,-3,-2,0,1,-1,-1
1558440465992296,0,0,-1,0,0,-2,0,-3
1558440465992296,1,0,2,-2,-2,-2,-3,-2
1558440466001230,-6,-1,0,-2,-1,-1,-1,-1
1558440466001230,-1,-3,-2,0,1,-1,0,0
1558440466015203,-1,1,2,-1,1,1,0,1
1558440466015203,-5,-2,-2,-1,0,0,-3,-2
1558440466023191,2,0,0,-2,-2,-3,-3,-1
1558440466023191,-1,-2,1,-1,-1,0,2,-2
1558440466037899,2,1,-1,-1,-1,-1,-1,-1
1558440466037899,2,0,1,-2,-1,-3,-1,0
1558440466038908,-1,-3,0,1,-3,-2,-1,0
1558440466038908,-3,-2,-2,-2,-1,-1,-2,1
1558440466051898,0,-1,-4,-1,-1,0,-2,-2
1558440466051898,-4,-3,-3,-3,-4,-3,-2,-2
1558440466060869,3,1,-2,0,0,0,0,-1
1558440466060869,-3,-1,-1,-2,-3,-2,-3,1
1558440466074801,5,3,3,-1,-1,0,0,1
1558440466074801,-2,-5,-5,0,-1,-3,-4,-2
1558440466082779,2,1,1,-4,1,0,0,-1
1558440466082779,1,-3,-5,-4,-3,-1,0,0
1558440466097739,-2,-1,1,0,-2,-2,1,-1
1558440466097739,-2,1,-3,-1,-1,0,1,0
1558440466098736,0,1,0,0,-2,-1,-1,-3
1558440466098736,1,1,1,1,1,1,1,0
1558440466111701,-3,-4,-2,0,0,-3,-3,0
1558440466111701,-2,-1,0,-4,-1,1,0,-1
1558440466120679,-2,-4,-4,-1,-2,-3,-2,-1
1558440466120679,-2,0,-1,1,0,0,-2,-2
1558440466134953,-4,-1,-5,-2,-1,-4,-2,-2
1558440466134953,-2,-3,-3,-4,-5,-5,-2,-3
1558440466142984,-1,-3,0,1,-1,-1,0,-1
1558440466142984,-1,-2,1,-3,-1,2,0,-1
1558440466157581,1,0,2,0,0,0,-1,-1
1558440466157581,-1,-1,1,2,0,-3,-1,-1
1558440466158576,0,0,0,-1,0,-3,-1,0
1558440466158576,0,-2,-4,-3,0,-1,-1,1
1558440466172540,-5,-3,-3,-1,0,0,-2,0
1558440466172540,-2,1,-1,-1,0,2,0,-1
1558440466180519,0,-1,1,-2,-3,-4,-3,-1
1558440466180519,0,-1,1,1,-1,1,2,-2
1558440466194482,-2,-2,-1,0,-2,-1,-3,-3
1558440466194482,-1,-1,0,-4,-1,0,0,-1
1558440466202460,-2,0,0,-2,-4,-5,-3,-1
1558440466202460,-1,0,-1,0,-2,0,-1,0
1558440466218475,0,-1,-2,-3,-1,-2,0,0
1558440466218475,0,2,2,1,1,2,0,2
1558440466218475,0,-1,1,-1,1,0,-2,-2
1558440466218475,-2,-2,-2,-1,0,-1,-3,-3
1558440466232732,-2,0,-1,-3,-1,0,1,1
1558440466232732,-1,-1,0,-1,0,-1,-2,-2
1558440466240530,-3,-5,-4,-1,0,-1,0,0
1558440466240530,3,3,4,1,1,0,1,2
1558440466254323,-1,-2,0,-2,0,2,-2,0
1558440466254323,0,-1,-1,1,-2,1,-4,-2
1558440466263296,-2,2,-2,-2,-1,0,-4,0
1558440466263296,-1,-1,1,-2,0,0,-1,-4
1558440466278258,-1,-3,-1,0,-2,-4,1,-1
1558440466278258,0,-1,1,1,0,0,1,1
1558440466278258,1,-2,-3,-2,-1,0,-1,-2
1558440466278258,-2,-2,-3,-1,-4,-3,-4,-1
1558440466292523,0,2,0,0,0,2,0,-1
1558440466292523,0,-2,-3,-2,-2,-1,-1,-1
1558440466300197,-1,0,0,-1,-1,-1,0,-1
1558440466300197,1,1,0,-1,-2,0,1,-1
1558440466315157,-2,-1,-3,-1,-1,0,1,-1
1558440466315157,-3,-2,0,-1,1,-3,-2,-3
1558440466323488,-1,2,0,0,-1,0,1,0
1558440466323488,-1,1,2,1,-2,-2,-3,-1
1558440466338099,2,2,-2,-1,0,0,-3,-1
1558440466338099,0,0,-1,-3,2,1,2,1
1558440466339094,0,-3,-3,0,-2,0,-2,0
1558440466339094,0,-3,-1,-4,-1,-3,0,-1
1558440466352061,-1,-3,-3,-3,-2,-3,-2,-1
1558440466352061,0,-3,0,2,-3,-3,-4,-1
1558440466360040,-1,-2,0,-1,0,0,1,-1
1558440466360040,-1,-2,-2,-1,0,3,1,-1
1558440466374999,-2,-6,-1,1,-1,-2,-4,-2
1558440466374999,0,1,1,1,-2,-2,1,0
1558440466389957,-4,-4,-5,-3,-2,-1,-4,-2
1558440466389957,-3,0,-3,-3,-2,-1,-2,0
1558440466397937,0,3,4,1,-1,1,1,-1
1558440466397937,-1,1,1,1,-1,-3,0,-3
1558440466398936,-1,1,-1,-3,-2,-3,-1,0
1558440466398936,-1,0,-1,1,1,-2,-1,0
1558440466411901,0,0,-2,-3,-1,-1,0,1
1558440466411901,-1,-2,-4,-2,-3,1,-3,1
1558440466420874,0,1,0,0,1,1,-2,-2
1558440466420874,0,1,0,-1,-2,-2,-1,-1
1558440466434871,-4,-4,-2,-4,0,-1,2,0
1558440466434871,-2,-2,-3,-1,-1,0,0,-2
1558440466442835,1,1,-1,2,-2,-2,-1,1
1558440466442835,1,-3,-1,-2,-1,0,-2,-2
1558440466457777,2,1,1,-1,-2,1,-1,0
1558440466457777,0,1,-1,-1,0,0,1,0
1558440466458774,-2,-2,0,-2,-2,-1,-1,-1
1558440466458774,-3,0,-2,-1,-1,-2,-1,-1
1558440466471738,-1,-2,-4,0,0,0,-2,-1
1558440466471738,-1,0,2,2,-1,-2,-2,-2
1558440466480714,0,-1,-1,-1,1,1,1,1
1558440466480714,-2,-3,-1,-2,0,-3,-1,-1
1558440466494967,-3,-2,-1,0,-3,-2,-1,1
1558440466494967,0,-1,-3,-4,0,0,1,0
1558440466502657,0,0,0,-3,-1,-1,-1,-2
1558440466502657,2,0,-2,1,-1,0,0,-2
1558440466517617,-4,-6,-2,-2,-3,-3,-3,-2
1558440466517617,-1,-2,-1,-4,-2,0,-2,-1
1558440466518614,1,0,1,1,0,-2,-3,-2
1558440466518614,-3,-2,-1,-1,0,1,2,1
1558440466532576,0,-1,-3,-2,0,-1,-1,-2
1558440466532576,-2,0,0,0,0,-4,-3,-2
1558440466540555,-1,-1,1,2,2,2,0,0
1558440466540555,0,-3,-2,-2,-3,-4,-2,-1
1558440466554523,-1,0,-2,-1,0,0,-1,-2
1558440466554523,-2,5,3,1,-1,-1,-2,1
1558440466562497,0,-1,-2,-2,0,1,1,0
1558440466562497,-1,-1,-2,-1,-2,-1,-1,-1
1558440466577457,0,2,2,1,0,-1,-1,0
1558440466577457,-3,-4,-4,-2,0,-2,-3,-1
1558440466578453,-2,-1,1,-1,-2,0,0,-1
1558440466578453,-1,0,-1,-2,-1,2,-1,0
1558440466593413,-2,-1,-2,-1,-3,-1,-4,-4
1558440466593413,0,-4,-4,-2,0,0,-2,0
1558440466600678,-1,-2,-2,-3,-1,-2,0,-2
1558440466600678,-3,-4,-1,-1,0,0,0,0
1558440466614512,0,2,4,-1,-2,0,0,0
1558440466614512,0,-4,-3,-2,-2,-1,0,-1
1558440466623332,-1,-2,-1,0,-2,0,-2,0
1558440466623332,-1,1,2,1,1,-3,-2,-1
1558440466637297,1,2,-6,-1,-2,-2,-1,1
1558440466637297,-1,4,5,-2,1,3,1,1
1558440466645276,-2,-6,1,2,-2,-1,-2,1
1558440466645276,0,0,-3,-2,0,0,-2,-1
1558440466652257,-1,-1,-4,-1,0,-3,0,-2
1558440466652257,0,1,-7,0,0,-4,-1,-1
1558440466660388,-3,-4,-3,-3,-1,-1,-1,-2
1558440466660388,0,1,-1,-2,-3,-2,-2,-1
1558440466675195,-1,-3,3,1,0,0,0,1
1558440466675195,0,-2,0,-1,-1,-1,1,-1
1558440466682175,-1,1,0,-2,0,-2,-4,-2
1558440466682175,-2,0,-1,-2,0,-1,-1,-1
1558440466697135,-2,-1,0,0,-2,0,1,-2
1558440466697135,-1,-3,-4,-3,-1,-2,1,0
1558440466714258,0,-3,-3,-2,0,-1,-1,-1
1558440466714258,-1,0,-3,2,-1,-2,-2,-2
1558440466715090,-2,1,0,-3,-1,1,0,0
1558440466715090,-3,-2,-2,-1,0,0,2,-1
1558440466721073,0,5,0,0,-1,-3,-1,-1
1558440466721073,-1,-3,-1,-2,-2,-1,-1,-1
1558440466735044,1,-1,1,-2,-3,-1,-1,0
1558440466735044,-4,-5,1,1,-1,0,1,-2
1558440466743013,-3,4,0,1,1,2,0,-1
1558440466743013,-2,-4,1,-2,-1,-2,1,1
1558440466756976,-2,-1,0,-2,-2,-3,-1,-3
1558440466756976,-2,0,-4,1,0,-3,-3,-2
1558440466764956,-3,1,0,0,-3,-1,-1,-2
1558440466764956,4,0,-3,-3,-1,-1,0,0
1558440466771947,0,-2,2,0,0,-1,0,-1
1558440466771947,-1,-1,-1,-1,-2,-3,-1,0
1558440466780096,-4,-5,-3,-4,-2,-3,0,-2
1558440466780096,-4,-2,-2,-1,-1,-1,-3,-5
1558440466794877,0,1,0,2,-1,0,-2,-1
1558440466794877,2,1,0,-3,-2,-4,-2,0
1558440466802856,2,0,-1,0,0,0,1,0
1558440466802856,-7,-5,-1,-1,-2,-4,-4,-2
1558440466816815,-3,-4,-4,-1,-1,0,1,-1
1558440466816815,-1,0,4,-2,-1,1,-1,-1
1558440466826070,1,-5,-2,1,-1,0,-2,-2
1558440466826070,-1,-4,1,-1,1,-2,-1,-2
1558440466840926,0,-1,-3,-1,1,0,-1,-2
1558440466840926,-3,-4,-3,-2,-3,-1,0,-1
1558440466840926,1,2,-1,0,-2,-2,-2,0
1558440466840926,-1,-2,-2,-1,-1,0,-2,1
1558440466854722,-1,-1,2,-1,1,-1,-2,-1
1558440466854722,-3,-1,-5,0,-1,-1,-2,-1
1558440466862692,4,-1,2,-4,-1,2,4,-1
1558440466862692,0,1,1,2,-1,2,1,-1
1558440466877770,-3,-2,-3,0,-1,-3,0,-1
1558440466877770,-1,0,-1,-1,-4,-1,-3,-2
1558440466892613,0,0,1,-1,0,0,-1,0
1558440466892613,3,1,0,-2,0,1,-1,1
1558440466900592,-2,0,-3,0,0,-2,-1,2
1558440466900592,-3,-1,0,0,0,-1,1,0
1558440466900592,-4,0,2,-2,0,0,-3,-2
1558440466900592,0,-1,-4,0,-2,-2,-1,-2
1558440466914566,-7,-1,2,-3,-2,-1,-3,-1
1558440466914566,-4,-2,0,0,0,0,0,-1
1558440466922533,2,0,-5,-2,-1,-1,-1,0
1558440466922533,4,3,4,1,1,0,3,2
1558440466937502,0,-5,-2,-2,-1,0,-2,-2
1558440466937502,2,0,-2,0,0,1,0,-2
1558440466945487,-7,-1,-2,0,-3,-4,-1,-3
1558440466945487,2,-1,0,0,0,1,1,0
1558440466960434,2,0,-2,-2,-1,-1,-1,-2
1558440466960434,1,-1,1,1,-1,-1,-2,-1
1558440466961429,2,1,-3,-2,-1,0,-1,-1
1558440466961429,-6,-5,-6,-3,-1,-2,0,-2
1558440466974393,1,2,1,1,0,-2,1,-1
1558440466974393,-1,1,1,-2,0,-3,-3,0
1558440466983378,-4,-4,-2,-1,-1,-1,-1,-2
1558440466983378,-3,1,-1,-2,-2,-2,-1,-1
1558440466997608,-2,-1,-2,0,-2,1,-1,-1
1558440466997608,2,-2,2,-3,0,0,0,-1
1558440467005311,-2,0,0,-2,-1,-2,-1,-1
1558440467005311,-4,-2,-2,0,-3,-2,-3,-2
1558440467028249,2,-1,-1,-3,-1,0,0,0
1558440467028249,3,-1,0,-3,-2,1,-1,0
1558440467029249,-1,-4,0,0,-1,-1,-2,-2
1558440467029249,-2,-1,-1,-3,-2,1,-1,-1
1558440467034457,-3,0,0,-2,0,-2,0,-2
1558440467034457,-1,0,-2,-1,-2,-3,1,-3
1558440467043214,-4,1,1,1,-2,-3,-1,0
1558440467043214,4,0,2,-2,0,0,1,0
1558440467057396,-1,-1,0,0,-1,-2,-1,-1
1558440467057396,0,-1,-2,-3,-1,-4,-4,1
1558440467065151,7,-2,-1,0,1,0,0,1
1558440467065151,-6,-3,-3,3,-1,0,0,-1
1558440467089087,-2,3,1,1,-1,1,-1,-1
1558440467089087,-2,-4,-1,-3,0,0,-1,-2
1558440467089087,0,1,0,-3,-2,-1,2,0
1558440467089087,0,-1,0,-2,0,-1,0,-2
1558440467095073,1,-3,-2,-1,-1,-3,-1,1
1558440467095073,-3,-1,-6,0,0,-4,-3,-1
1558440467103054,-3,-4,0,-1,2,1,0,-3
1558440467103054,-2,0,-5,0,-1,-2,-4,-3
1558440467117016,-5,2,2,-2,1,2,1,0
1558440467117016,1,-4,4,-2,-2,2,-1,0
1558440467124991,6,-3,-1,-2,-3,-3,-2,2
1558440467124991,-5,-5,-6,-1,0,-1,-1,-1
1558440467139951,-5,-2,1,-1,-1,-1,-1,-1
1558440467139951,-4,-3,-7,-3,-3,-4,-2,-3
1558440467140949,-1,-2,-3,0,-3,1,1,-2
1558440467140949,1,3,3,-3,-2,-1,-1,-1
1558440467154911,2,0,0,0,-2,0,0,-1
1558440467154911,0,-2,0,0,-1,-1,1,0
1558440467162900,-4,2,2,-2,0,0,0,1
1558440467162900,-3,-2,-2,-2,-2,-3,-3,-3
1558440467176852,1,0,0,3,-1,-2,-2,-1
1558440467176852,1,-1,-2,-3,-1,2,-1,-1
1558440467192811,-3,-4,-5,-2,-3,-1,-4,-2
1558440467192811,0,-5,-4,-3,-2,-1,-1,-1
1558440467200789,-1,-4,-3,-4,0,-1,-2,2
1558440467200789,8,6,8,10,3,6,2,1
1558440467200789,-1,2,-2,-4,1,1,-2,-1
1558440467200789,-2,-1,-2,-5,-4,-3,-2,0
1558440467214760,-4,-4,-3,-3,0,-1,-1,-2
1558440467214760,0,1,-3,-3,-1,2,1,-1
1558440467222730,-4,-4,8,9,1,1,0,0
1558440467222730,6,3,6,2,0,-1,0,2
1558440467237695,-2,-3,-9,-4,-3,-2,-1,-2
1558440467237695,-4,0,-1,1,-1,-2,-1,-1
1558440467245669,-1,2,-2,1,1,-1,1,-4
1558440467245669,-3,-2,1,3,2,1,2,-1
1558440467260628,0,-2,3,-6,-2,-2,0,-3
1558440467260628,-3,1,-1,2,-4,-5,-4,0
1558440467260628,-4,-4,-6,-5,-1,-2,-2,-1
1558440467260628,0,2,1,-1,2,4,-1,0
1558440467274598,0,4,-1,6,0,-4,-4,1
1558440467274598,-3,1,1,-6,-1,2,2,1
1558440467283569,-1,-2,-4,-2,-3,-4,-3,-1
1558440467283569,2,2,3,3,1,2,2,0
1558440467297538,2,-1,-2,0,-3,-2,-4,1
1558440467297538,-1,1,4,-1,2,3,1,0
1558440467305509,-2,-7,-5,-3,-2,-3,0,-3
1558440467305509,-8,-2,-2,-1,-2,-5,-3,-5
1558440467320470,12,3,2,-3,0,0,1,2
1558440467320470,-11,-1,-2,-3,0,-2,-2,-5
1558440467321466,-1,1,3,1,-1,1,0,-1
1558440467321466,-2,-5,-4,-4,-1,-3,-1,-1
1558440467334436,-1,-4,-6,-3,-4,-2,0,1
1558440467334436,-4,-3,-1,1,-2,-2,0,-4
1558440467342415,0,1,-1,2,0,-1,0,-2
1558440467342415,-1,-3,1,-5,-1,-2,-1,1
1558440467357372,-5,-3,-2,-1,1,0,0,-1
1558440467357372,3,-3,-2,0,-2,-2,-1,4
1558440467365351,-1,5,4,2,2,1,0,1
1558440467365351,-2,-3,-8,-3,-3,-2,-1,-4
1558440467381311,-3,0,2,1,1,2,1,0
1558440467381311,-3,-5,-7,-2,-2,-2,-2,-4
1558440467381311,1,1,-1,-3,-2,-3,-1,0
1558440467381311,3,4,1,2,1,2,0,3
1558440467396267,0,-1,2,0,0,0,-1,-2
1558440467396267,-1,-1,3,-1,-1,0,0,-1
1558440467403251,-2,-4,-5,-2,-3,-3,-3,-1
1558440467403251,-3,1,-1,1,-2,-2,-1,-1
1558440467417210,-1,-2,0,-3,0,-1,-1,-1
1558440467417210,0,-3,-2,-3,2,0,-1,-2
1558440467426188,-2,0,-1,2,-4,-6,-2,-2
1558440467426188,0,-2,-2,-3,-2,-1,-1,0
1558440467440148,-3,-2,-2,0,0,-3,-3,-3
1558440467440148,2,1,-1,-1,-2,-1,-1,1
1558440467448128,-4,-4,-3,-2,-2,1,-3,-3
1558440467448128,4,1,1,-1,0,-1,-1,0
1558440467455108,1,0,0,1,0,0,0,-1
1558440467455108,-3,-3,-5,0,-3,-2,-2,-2
1558440467464085,-1,-1,-2,-5,-3,-1,-3,-2
1558440467464085,-4,-5,-3,-1,-1,0,1,-2
1558440467477051,-2,-3,0,1,-2,2,0,0
1558440467477051,-1,-1,0,-3,-2,-6,-3,-2
1558440467486028,2,0,1,-2,3,1,2,1
1558440467486028,-1,0,-2,0,0,-1,0,1
1558440467499991,-3,-2,0,-2,-1,-1,-2,-1
1558440467499991,1,1,-2,-1,-1,0,-1,0
1558440467508965,4,1,3,-1,-1,0,-3,2
1558440467508965,3,-1,0,2,1,0,0,2
1558440467514959,-3,0,-2,0,-1,0,-3,-1
1558440467514959,1,2,-2,0,0,-2,0,-1
1558440467523924,-4,-5,2,-2,-2,-1,-2,-2
1558440467523924,-2,-1,0,-3,-2,-1,-2,-3
1558440467536890,-3,-4,-7,0,-4,-3,-1,-1
1558440467536890,-1,-1,-1,1,-1,0,1,0
1558440467553850,1,3,3,0,1,1,5,1
1558440467553850,-1,-4,-1,-5,-3,-4,-2,-2
1558440467559839,-1,-3,-5,-5,0,-2,-1,-2
1558440467559839,-3,-4,1,3,-1,-1,-2,-1
