timestamp,emg1,emg2,emg3,emg4,emg5,emg6,emg7,emg8
1558440476148018,-2,-1,-1,-3,1,-3,-1,-4
1558440476148018,-1,-2,0,16,-2,-1,-2,1
1558440476156994,-1,-1,0,-6,1,0,-2,2
1558440476156994,1,-1,-1,-12,0,2,0,-4
1558440476159986,-1,1,-2,15,-2,-1,-2,0
1558440476159986,-1,0,4,-5,0,1,1,-1
1558440476161981,0,-3,-1,-10,-2,-1,0,-2
1558440476161981,-3,-1,-1,9,-2,-2,0,-1
1558440476169959,0,1,2,0,0,3,2,3
1558440476169959,-4,-3,-4,-12,1,1,-2,-2
1558440476180929,-1,-1,-4,0,-1,-1,0,-3
1558440476180929,-1,-1,0,6,-2,-2,0,-1
1558440476184919,-1,0,1,-7,0,0,-2,-3
1558440476184919,-2,-2,-3,-6,0,-1,-2,-1
1558440476202871,0,-3,0,9,-1,-1,0,-1
1558440476202871,-1,-1,0,-1,-1,0,-2,1
1558440476206860,-1,-2,-3,-10,-1,-2,-2,-2
1558440476206860,0,1,-1,5,-1,-1,-1,-2
1558440476217831,-3,0,-2,1,-3,-2,-4,-2
1558440476217831,0,0,-1,-5,-1,-3,-1,-2
1558440476230796,2,-2,-3,0,-1,-1,0,1
1558440476230796,0,1,2,2,0,-1,0,-1
1558440476238776,-2,1,0,-1,-2,0,-2,-3
1558440476238776,-2,-1,-2,-3,-1,0,0,-2
1558440476245757,1,0,3,3,-1,1,0,-1
1558440476245757,1,1,0,-4,-2,-7,-1,0
1558440476261714,1,-1,-1,-2,0,-1,-1,2
1558440476261714,-2,-2,-1,2,0,1,-3,-2
1558440476290636,-1,-1,-1,-9,1,0,1,0
1558440476290636,0,-3,-5,-17,-1,0,1,-3
1558440476298615,-1,-1,2,17,-3,-3,-3,0
1558440476298615,-2,0,-1,-4,-1,1,-1,2
1558440476299612,1,1,-1,-14,-2,-1,-2,-1
1558440476299612,-1,0,-1,13,-1,-1,-2,-3
1558440476300611,-1,1,-1,-2,-1,0,1,-1
1558440476300611,-1,-3,-1,-6,0,-1,0,0
1558440476311580,-1,-1,-4,4,-3,-2,0,-3
1558440476311580,-2,-1,1,9,-1,0,-2,1
1558440476328534,0,1,0,-9,2,3,-1,0
1558440476328534,-2,-1,-2,-6,-1,-2,0,-3
1558440476329532,-2,0,0,12,0,0,-1,-1
1558440476329532,-1,-4,-4,-5,-3,-7,-3,0
1558440476350475,1,-2,-1,-11,0,1,3,0
1558440476350475,1,0,0,6,-1,0,-2,-2
1558440476350475,-4,-2,1,0,1,0,0,1
1558440476350475,1,2,1,-8,1,2,-2,0
1558440476358455,-3,-3,-5,-4,-2,-1,-2,-3
1558440476358455,1,1,0,2,-3,0,-1,0
1558440476371420,-1,-4,-1,-2,-3,-1,-1,-2
1558440476371420,-1,-1,-1,-2,0,-1,0,-1
1558440476380396,1,-1,0,4,-1,-2,-1,0
1558440476380396,-3,-2,-1,-1,-1,-1,-1,-2
1558440476386380,0,0,0,-4,-2,0,0,-1
1558440476386380,-1,1,1,2,-2,-1,-1,-2
1558440476402337,-1,-1,-2,-2,-1,-2,-3,-1
1558440476402337,1,-2,-4,-4,1,-1,-2,-1
1558440476409318,-1,0,0,1,-2,-3,-1,0
1558440476409318,-1,-2,-2,1,0,2,0,-2
1558440476418295,-1,1,-2,-2,0,0,-1,0
1558440476418295,0,0,1,-1,-1,0,0,0
1558440476432258,-2,-5,-3,1,-1,-3,-3,0
1558440476432258,1,-1,-2,-1,-1,-2,-1,1
1558440476449213,0,-1,-1,-2,0,0,0,-2
1558440476449213,1,0,1,2,0,1,3,1
1558440476449213,-1,-6,-6,-4,-2,-2,-3,-3
1558440476449213,-3,-1,-2,-2,0,-2,-1,0
1558440476462177,-1,0,1,-1,-2,-1,-1,0
1558440476462177,-2,-1,-1,-1,-1,-3,-2,-2
1558440476469158,-1,1,-1,-2,0,-1,-1,-1
1558440476469158,-1,-1,2,0,-1,-1,0,-1
1558440476478134,0,0,-2,0,-2,-4,-1,-1
1558440476478134,-1,-1,0,-1,-1,-2,-2,-1
1558440476492098,1,-1,0,-2,0,0,-2,-1
1558440476492098,0,-1,0,-1,-1,1,0,1
1558440476507058,-3,-2,-2,-2,-2,-5,-3,-1
1558440476507058,1,1,0,-1,-1,0,-1,-1
1558440476530994,-1,2,1,3,-2,-3,-4,-3
1558440476530994,0,-3,-1,-2,-1,0,-1,0
1558440476532989,0,-1,-2,-1,-1,2,1,-2
1558440476532989,-1,-2,-2,1,-3,-1,-1,-1
1558440476533988,0,0,3,-1,0,-1,0,0
1558440476533988,-2,0,2,-3,1,-1,-1,-1
1558440476537975,-2,-1,-1,-2,-1,0,0,0
1558440476537975,-3,-1,-3,2,-1,0,0,-1
1558440476560917,1,1,0,-1,-2,-3,-3,-1
1558440476560917,-1,0,-1,-2,-1,-2,-1,-1
1558440476561911,2,-3,0,1,-1,0,-2,-2
1558440476561911,-1,-1,0,-2,-1,-1,-3,0
1558440476582855,-3,-3,-3,-2,-2,-5,-2,-3
1558440476582855,-2,-2,-1,-3,-2,-2,-1,-1
1558440476584849,-2,-1,-1,0,0,-1,-1,0
1558440476584849,-1,-1,-2,-1,-2,-1,-3,-2
1558440476589836,0,1,0,0,-1,2,2,0
1558440476589836,1,1,-1,2,-1,0,-1,-1
1558440476604795,0,0,0,-2,-3,-1,0,-1
1558440476604795,-1,0,0,-1,-1,-2,-2,-1
1558440476611779,-1,-1,0,1,-3,0,-2,-3
1558440476611779,0,1,-1,-1,-3,-1,-2,0
1558440476636713,-3,-5,-4,-3,0,0,-2,-2
1558440476636713,0,-3,0,0,-1,-2,-2,0
1558440476637708,3,0,0,-2,1,0,-1,2
1558440476637708,0,0,3,-1,1,-2,-1,-3
1558440476658652,0,1,-1,-1,-1,-1,-1,-1
1558440476658652,-1,0,-1,-1,-1,-3,0,-2
1558440476658652,-2,-1,0,-1,-1,1,-1,0
1558440476658652,1,-1,0,-2,1,0,1,2
1558440476664636,-1,0,1,0,-1,1,-3,-1
1558440476664636,-1,-2,-3,-2,-1,0,-2,-2
1558440476671617,-2,-1,-3,0,0,1,-1,0
1558440476671617,-2,-1,-1,1,-2,-2,-4,-2
1558440476680595,-4,1,1,0,-1,-2,-3,2
1558440476680595,-3,-1,-1,-4,-1,-3,0,-1
1558440476686579,1,0,-3,0,0,-1,2,0
1558440476686579,0,-2,-3,-1,-2,-5,-4,-2
1558440476703533,-2,-2,-3,-3,0,0,-2,0
1558440476703533,-1,-2,-4,-1,-2,-1,0,-1
1558440476709517,2,1,1,0,-2,-2,0,-2
1558440476709517,-2,-1,-2,0,-2,-1,-1,-2
1558440476732455,0,0,-3,-2,-2,-2,-3,-2
1558440476732455,0,-1,-2,1,-1,0,0,-2
1558440476733452,-1,-1,-1,-1,-1,-3,-1,0
1558440476733452,-1,-1,-2,-2,-1,1,0,-2
1558440476740433,-2,-2,2,1,0,-2,-1,-3
1558440476740433,-1,-1,1,0,-1,1,-1,-3
1558440476763376,-3,0,-3,-4,1,2,0,1
1558440476763376,-2,-4,-2,0,-2,-1,-2,-2
1558440476764369,0,-2,-1,1,-2,-1,1,-1
1558440476764369,-2,-2,-1,-1,-3,-4,-3,-1
1558440476769356,-1,0,-1,-2,-1,0,-1,-2
1558440476769356,-1,0,-2,2,0,-1,-2,0
1558440476786313,-1,2,1,-1,0,-2,0,0
1558440476786313,0,-2,-4,-2,-1,0,-2,-4
1558440476792294,0,-1,-2,-1,-2,-1,-1,1
1558440476792294,1,-2,0,-1,0,2,-1,2
1558440476809249,0,-1,-1,-3,0,-3,-1,-2
1558440476809249,-1,-1,0,-2,-1,0,-1,1
1558440476809249,-2,0,-1,3,-1,-1,-1,-2
1558440476809249,0,-2,-1,-4,-1,-2,-1,-2
1558440476822215,-1,1,1,0,1,1,-1,0
1558440476822215,-3,-2,-2,-1,-2,-1,0,1
1558440476829198,-3,-3,-3,-3,-1,-1,-1,-1
1558440476829198,-2,-1,-2,-3,0,0,-1,-1
1558440476844156,1,-1,1,1,-2,1,-1,-1
1558440476844156,-1,0,1,1,-1,-2,-1,-2
1558440476861110,1,-2,0,-3,0,1,1,-1
1558440476861110,-3,-1,-2,-1,-1,-4,-1,0
1558440476862108,-1,-1,-3,1,-1,-1,1,-1
1558440476862108,-1,-1,-2,-1,0,1,0,-1
1558440476883054,-3,-3,0,-1,0,-2,-3,-2
1558440476883054,0,1,0,0,-2,-5,-3,-3
1558440476885048,1,-4,-1,-4,-1,1,-1,-3
1558440476885048,2,1,-1,-2,-1,1,-1,0
1558440476889035,0,3,3,0,-1,1,-2,0
1558440476889035,-1,0,-3,-2,-1,-1,-1,-1
1558440476913969,-1,-2,-2,-2,-1,-1,3,0
1558440476913969,0,-2,0,-1,-1,-2,-1,-1
1558440476914967,-1,-2,0,1,0,-1,-1,1
1558440476914967,-2,-1,-1,-1,-2,0,-1,-1
1558440476935911,-1,-1,2,-2,1,-1,0,-3
1558440476935911,-1,-2,2,1,1,-1,-1,1
1558440476935911,0,2,0,-2,-2,-5,-1,-1
1558440476935911,0,-2,-1,-2,-1,2,0,1
1558440476942892,-2,-1,-3,0,-2,-1,-1,-3
1558440476942892,0,-1,-3,-2,-2,-1,-1,-1
1558440476948876,-1,0,2,2,-1,3,2,-3
1558440476948876,-1,-2,-2,-1,-1,-2,-2,1
1558440476964833,1,-2,-2,2,-1,-2,-2,-1
1558440476964833,0,0,-1,-2,-1,-1,-3,-3
1558440476987772,1,-1,-2,-3,-2,0,-1,-1
1558440476987772,-1,2,1,2,-2,2,1,-3
1558440476989766,-4,-4,-1,0,-3,-3,-4,-3
1558440476989766,-3,-2,0,-1,0,0,1,-1
1558440477011708,0,-2,-1,0,-2,-5,-4,0
1558440477011708,2,-1,1,-2,0,3,1,-1
1558440477012706,-3,1,0,-3,-2,-1,-1,2
1558440477012706,0,0,-2,-1,-1,-2,-2,0
1558440477013703,-1,-1,1,0,-2,0,0,-1
1558440477013703,0,-3,-2,-1,-1,-3,-2,-4
1558440477032651,1,0,0,-1,2,1,0,1
1558440477032651,-3,-3,-3,0,-2,0,-2,-1
1558440477033649,-3,0,-1,-4,-1,2,-1,-1
1558440477033649,-1,-1,-3,-1,-2,-1,0,0
1558440477040630,-1,-1,0,-1,-2,-1,0,-3
1558440477040630,-4,0,-3,-1,-1,-2,-2,-3
1558440477063570,-1,-1,0,-1,0,0,-2,0
1558440477063570,-2,-2,-1,-3,-2,-4,-2,-2
1558440477064568,-1,-3,-1,0,-1,-2,-3,-1
1558440477064568,0,-1,1,-1,1,2,1,1
1558440477069554,0,-2,-6,-2,-1,-2,-1,-2
1558440477069554,-1,1,-2,3,1,2,0,-2
1558440477084519,0,1,-1,-1,-2,-5,-3,0
1558440477084519,1,0,1,-1,-4,-2,-1,-2
1558440477091496,-1,-1,0,0,0,0,0,-1
1558440477091496,-2,-1,0,1,2,-1,0,1
1558440477100479,0,1,-1,-2,0,0,1,-3
1558440477100479,-2,0,0,-1,0,-1,1,-2
1558440477115443,-1,-2,0,1,-1,-4,-2,-2
1558440477115443,0,-5,-3,-2,-3,-4,-5,-4
1558440477121414,0,-3,-2,-1,-1,1,-1,0
1558440477121414,0,-3,-1,-1,0,1,0,1
1558440477129392,0,-2,-2,-3,-1,-4,-1,-1
1558440477129392,0,0,2,-3,-2,-3,-1,2
1558440477144357,0,0,-2,1,-2,-1,0,1
1558440477144357,0,0,-1,0,-2,1,-2,-3
1558440477152332,-2,-1,-3,-2,-1,0,-3,-1
1558440477152332,-1,1,1,-1,-2,-2,-1,-3
1558440477160313,-1,-1,-2,1,2,1,1,-2
1558440477160313,0,3,3,-3,0,-2,2,1
1558440477175283,1,0,-1,-1,-1,-1,-1,-3
1558440477175283,-3,-2,-2,0,-1,-1,0,2
1558440477182262,-2,-3,-2,-3,-1,0,0,-2
1558440477182262,-1,-3,-4,0,-1,-1,-4,-2
1558440477189237,1,0,0,2,-2,0,-1,-1
1558440477189237,1,2,3,1,1,0,-2,0
1558440477204195,0,-2,-2,-4,-1,-2,-4,-1
1558440477204195,0,0,0,-2,1,2,0,1
1558440477221149,-2,0,-3,0,-3,2,-1,-2
1558440477221149,0,-1,-1,-1,2,0,-1,-1
1558440477222146,1,2,4,-1,-3,-1,-2,0
1558440477222146,-1,-1,-2,2,0,-4,-2,-2
1558440477235111,-2,-2,-2,-1,-2,0,1,-1
1558440477235111,-1,0,0,1,-1,1,-1,-1
1558440477242092,-3,-1,-3,0,-3,-2,-1,-1
1558440477242092,2,0,0,-1,-1,-2,0,1
1558440477249134,-2,-2,-1,-2,0,-2,-1,0
1558440477249134,-1,-4,-2,-1,0,-1,-1,-2
1558440477264098,0,0,1,1,1,-2,-2,1
1558440477264098,-2,-1,2,-2,-2,-2,1,-2
1558440477272016,0,-1,-2,-1,-1,0,0,0
1558440477272016,-2,0,0,1,0,1,0,-1
1558440477286976,-1,-2,-2,-2,-2,1,-2,-2
1558440477286976,1,1,0,-2,-3,-5,-3,0
1558440477295057,1,0,0,1,-1,-2,0,1
1558440477295057,-1,-3,0,-3,-1,1,1,1
1558440477309913,-1,-1,-2,-2,0,1,3,1
1558440477309913,-2,-1,-3,0,1,1,0,0
1558440477310910,-3,-4,-1,0,-1,-2,-2,-3
1558440477310910,-2,0,0,-2,-3,-2,-2,-1
1558440477324872,-1,-1,-1,-2,0,-3,-2,-1
1558440477324872,-1,0,0,4,0,-1,-3,-2
1558440477331852,1,0,0,0,1,2,-1,0
1558440477331852,-2,-1,-2,-3,0,0,2,-1
1558440477346813,1,-1,-2,-1,-2,-2,-2,-2
1558440477346813,-3,0,-2,-1,-1,0,1,-1
1558440477354797,0,1,0,-1,0,0,0,-1
1558440477354797,-1,-2,-3,-2,-1,0,1,-1
1558440477369752,-2,-1,1,1,-1,1,-1,1
1558440477369752,-1,-3,-1,-3,-3,-2,-3,0
1558440477370756,0,0,0,-1,-1,-2,0,-1
1558440477370756,-1,-1,0,1,0,0,-1,0
1558440477385710,-3,-4,-3,-4,-1,-2,-2,-3
1558440477385710,-2,-2,-2,-1,-2,1,-1,-4
1558440477391692,-2,1,0,1,-2,-3,-3,-1
1558440477391692,-2,-1,0,-2,1,0,-1,-3
1558440477406657,1,-3,-2,-2,1,1,1,1
1558440477406657,-3,-2,-2,-2,0,1,0,0
1558440477414635,-1,-3,0,0,0,-2,2,-1
1558440477414635,-1,-1,-2,-2,-2,-1,0,1
1558440477430724,-2,-1,-2,0,-2,0,-1,-1
1558440477430724,-1,-1,-1,-1,-3,-2,-2,0
1558440477430724,-2,-1,-1,-3,-1,1,1,0
1558440477430724,0,2,-2,-2,-1,-1,0,0
1558440477444752,-3,1,1,1,0,-4,-2,-2
1558440477444752,-1,-2,0,-2,0,-1,-1,3
1558440477451741,-1,-2,-1,-2,0,2,1,-2
1558440477451741,-1,-3,0,1,-2,-4,-2,-2
1558440477466492,1,2,-1,1,-2,-1,0,-1
1558440477466492,-2,-2,-2,-3,-1,-2,-1,-2
1558440477475656,1,-3,1,-2,1,-1,-2,0
1558440477475656,-2,-2,-6,2,-2,-2,-1,-1
1558440477489566,0,-2,0,-2,-2,0,2,0
1558440477489566,1,0,0,-1,-1,-2,1,-1
1558440477490523,-4,-5,-8,-2,-2,-2,-2,-2
1558440477490523,-2,-2,1,-2,-1,1,0,-2
1558440477504513,-1,2,0,-2,0,-3,0,-3
1558440477504513,-1,1,1,1,-1,-3,-2,-1
1558440477511497,-2,1,0,0,-1,0,-2,1
1558440477511497,-2,-3,-3,-2,-1,-2,-2,-1
1558440477526427,1,-1,-4,-1,0,0,0,0
1558440477526427,0,-1,0,1,1,-1,-1,0
1558440477535404,0,1,0,-4,1,-1,1,1
1558440477535404,-2,0,-2,-2,-1,-1,-1,-1
1558440477550362,-3,-1,0,3,1,2,2,-1
1558440477550362,0,-1,-2,-3,-1,-2,-3,-2
1558440477550362,-2,0,-1,2,-1,-3,-2,0
1558440477550362,1,-1,0,-1,-1,-1,-1,0
1558440477564325,1,-4,0,0,-3,-1,-3,-3
1558440477564325,-4,-1,1,-2,1,1,1,-1
1558440477572632,-1,-3,-2,-2,-2,-2,-1,-1
1558440477572632,0,-1,1,1,-2,-2,1,2
1558440477587263,0,-3,-2,-3,-1,-4,-3,-1
1558440477587263,-1,-1,-3,-2,-3,0,1,1
1558440477595522,-1,0,2,0,-1,-2,1,-6
1558440477595522,-1,0,-5,-3,-2,-1,-2,-1
1558440477610269,-1,2,-1,-2,-2,1,-1,1
1558440477610269,-1,-1,-3,1,-1,-3,-1,-1
1558440477610269,0,-1,0,2,-1,1,-1,1
1558440477610269,1,0,1,-2,-2,0,0,-2
1558440477624510,-2,0,-2,-4,0,-1,-2,-2
1558440477624510,-1,-3,-2,2,1,-1,-2,-3
1558440477632484,-1,-1,0,-2,-1,-2,-3,0
1558440477632484,0,1,0,0,0,2,-1,1
1558440477647444,0,-2,-1,0,-1,0,1,-1
1558440477647444,0,-2,0,-1,-2,2,-2,-4
1558440477655340,-2,-2,-1,-1,-1,-3,0,-1
1558440477655340,0,-1,-1,0,0,-1,-1,-3
1558440477670043,-2,0,-2,-1,1,0,-1,1
1558440477670043,-1,-2,-2,-4,-3,0,-2,0
1558440477671045,-3,-1,-3,-2,-2,0,-1,-1
1558440477671045,-2,-1,2,1,-1,-3,0,0
1558440477685008,-1,-4,-1,-4,0,-1,-1,-1
1558440477685008,0,2,0,-1,-1,0,0,0
1558440477692156,0,0,-1,2,0,-1,-3,-1
1558440477692156,-1,0,0,-1,1,-1,0,-1
1558440477715978,-1,-2,-4,-2,-2,-1,-1,-2
1558440477715978,0,-2,-2,-1,-1,-2,0,-1
1558440477716918,1,1,0,-1,0,-2,0,-2
1558440477716918,-3,-4,-2,-1,0,1,-1,2
1558440477737900,-4,-1,0,0,-2,-1,0,-5
1558440477737900,1,0,-1,1,-2,-1,-3,-1
1558440477738865,1,-3,-1,-5,-3,0,1,-1
1558440477738865,0,-1,1,-4,-2,-1,-1,-2
1558440477744843,-3,1,-1,2,0,0,-2,1
1558440477744843,-3,-2,-1,-2,-2,-1,-4,-3
1558440477751823,-1,0,-2,-1,1,0,-1,-1
1558440477751823,-1,-1,-1,-1,1,0,-1,0
1558440477766784,1,-3,-4,-1,-2,-3,0,1
1558440477766784,-1,-1,-1,-4,-1,-4,-2,-3
1558440477774761,-3,-3,-3,-3,-2,0,0,0
1558440477774761,0,0,0,0,-1,0,3,-3
1558440477789752,0,0,0,-3,0,-1,0,1
1558440477789752,1,0,1,0,0,-1,1,2
1558440477790720,-1,-1,0,1,0,1,-2,-1
1558440477790720,-2,-1,-4,-1,-1,-2,-4,-1
1558440477804740,-1,-1,-3,-1,-3,-3,-1,0
1558440477804740,-2,0,-2,-1,-1,1,0,-2
1558440477812694,-1,2,3,1,0,-2,-1,-1
1558440477812694,-1,-1,-1,-4,-1,-2,-2,-2
1558440477827228,-2,0,1,-1,0,-1,-2,3
1558440477827228,-3,-3,-3,1,0,-2,-1,-4
1558440477835171,1,-2,-3,-6,-3,-3,-2,-1
1558440477835171,0,1,-2,1,-1,0,-1,1
1558440477849591,-1,-1,-2,1,-2,0,-1,-1
1558440477849591,1,-1,4,-4,1,2,2,2
1558440477858322,-1,1,-2,0,1,0,-2,-3
1558440477858322,-1,1,-2,2,-3,-2,-1,-2
1558440477865122,-1,1,2,-2,-3,0,-1,-2
1558440477865122,-1,0,0,1,-1,0,1,1
1558440477872427,-1,-1,0,0,-3,-1,-2,-2
1558440477872427,1,-3,-1,0,-2,-2,-2,0
1558440477887047,2,-2,0,-3,1,0,2,0
1558440477887047,-2,0,0,-2,-1,-2,-1,-3
1558440477895102,-1,-1,-2,1,-1,1,-1,-1
1558440477895102,-1,0,-2,-3,0,-1,0,-2
1558440477910020,1,-1,-1,-3,0,-3,0,-1
1558440477910020,-1,0,-1,2,-3,0,-2,4
1558440477918175,0,0,0,-2,0,1,3,-1
1558440477918175,-3,-3,-1,0,-1,0,-2,-1
1558440477923977,-3,-1,-3,-2,-1,-2,-3,-4
1558440477923977,-1,-3,0,0,-1,1,-1,-2
1558440477932127,-2,-2,-4,-3,-2,-2,-2,0
1558440477932127,-1,-1,0,-2,-1,2,1,-1
1558440477947091,-1,0,2,3,-2,-2,-2,-3
1558440477947091,-2,-3,-4,-3,-1,-2,-2,-2
1558440477954861,1,-1,1,0,0,0,0,-1
1558440477954861,-3,-3,-4,1,-3,-3,-2,-4
1558440477969814,-3,1,0,-2,-2,-1,-1,1
1558440477969814,-1,1,0,-3,0,-3,0,-3
1558440477977864,1,0,-1,-1,0,0,1,0
1558440477977864,-2,0,0,0,-1,-1,-2,2
1558440477984779,-3,-1,1,-2,-1,-2,0,-2
1558440477984779,-1,-2,-1,0,0,0,-2,1
1558440477991754,-2,-3,-1,1,-1,-1,-2,-1
1558440477991754,-2,-4,-1,-3,1,0,-1,-1
1558440478006713,1,-2,-1,-2,-1,1,1,1
1558440478006713,-1,-1,-3,0,-1,-1,0,-3
1558440478014970,-3,-2,0,-2,-1,-2,-2,-1
1558440478014970,1,0,-1,-2,-2,-3,-3,-3
1558440478029934,-1,-1,-1,0,-1,-1,-3,0
1558440478029934,3,-1,1,0,-1,-1,-1,0
1558440478037632,-1,-4,-3,-3,-1,-1,-2,-1
1558440478037632,-2,-2,-2,-1,0,-2,-2,-2
1558440478052590,-1,-1,-3,2,-3,-3,-2,-1
1558440478052590,0,-1,-2,-4,-4,1,1,-2
1558440478053590,0,0,0,-2,-3,-2,-1,-1
1558440478053590,0,0,0,0,-1,-2,2,1
1558440478066553,-1,-1,-2,-1,2,1,-1,-1
1558440478066553,-2,0,-3,-2,-1,-1,0,-1
1558440478074567,0,-2,-1,0,-1,1,-1,-1
1558440478074567,-2,-2,-2,-1,-1,-3,-3,1
1558440478089491,0,-1,1,-2,-1,0,-1,0
1558440478089491,-1,0,-2,-1,-1,-1,-3,2
1558440478097821,-1,0,-2,2,0,1,-2,-2
1558440478097821,-1,1,-3,-2,0,0,-2,-2
1558440478112882,0,-1,0,-1,0,-1,-1,-1
1558440478112882,-1,-3,-1,0,1,-1,-2,-2
1558440478113429,1,0,-1,-1,-2,-3,0,-1
1558440478113429,0,0,4,-2,0,1,1,0
1558440478127831,-1,-3,-3,0,-2,-1,-1,-3
1558440478127831,1,-3,-1,0,-2,-3,0,0
1558440478134808,-2,0,-3,-1,-1,-1,0,-1
1558440478134808,-1,-1,-3,-2,-1,0,0,-1
1558440478149778,-1,0,3,3,-1,0,0,2
1558440478149778,-2,-1,-1,-3,0,-4,-3,-1
1558440478158430,0,-2,-1,-3,-1,0,-2,-1
1558440478158430,1,2,0,1,-2,-3,-1,-1
1558440478173297,-1,0,-2,-2,0,0,-3,-2
1558440478173297,-1,-1,1,-2,-1,1,2,-1
1558440478173297,-1,1,0,1,2,0,1,1
1558440478173297,-2,0,0,0,-2,0,0,0
1558440478187232,-2,-1,-1,-3,-3,-1,-2,-2
1558440478187232,-3,-2,0,0,-2,-1,-1,-2
1558440478194423,-3,-4,-3,2,-4,-2,-1,-4
1558440478194423,-1,0,-2,-2,-1,-1,-2,1
1558440478210171,0,-3,-3,-2,-1,-3,0,1
1558440478210171,0,0,-1,0,-1,0,-2,-1
1558440478217154,-3,-1,-2,-3,-2,-2,1,-2
1558440478217154,1,-1,-1,-1,-1,0,-2,-3
1558440478233250,1,3,1,-1,0,0,-2,-3
1558440478233250,-2,-1,-1,0,-3,-1,-1,0
1558440478233250,1,-1,-1,-4,-1,-2,-2,1
1558440478233250,-2,-3,-1,-2,1,-1,-2,1
1558440478249067,-1,-2,0,1,-1,-3,-2,-1
1558440478249067,2,1,1,-3,1,0,0,1
1558440478254055,-1,-1,-2,-1,-1,0,-1,-1
1558440478254055,-1,-3,-1,1,-2,-1,-1,-2
1558440478269028,-3,-1,-1,-2,-1,-1,-2,-1
1558440478269028,0,0,0,-1,-1,0,-1,0
1558440478278349,-3,-3,-2,-3,-2,-1,-2,-3
1558440478278349,0,-2,-1,-1,-1,1,-1,-2
1558440478293287,0,-1,0,-2,1,2,3,1
1558440478293287,-3,-3,-2,0,-2,-7,-4,-7
1558440478293287,-1,1,0,0,-1,-1,-3,0
1558440478293287,-1,-5,-4,-2,-1,0,0,-1
1558440478307253,0,1,0,-1,0,-1,1,-2
1558440478307253,-3,-2,-1,0,-1,0,-2,-1
1558440478315223,1,0,0,0,0,-3,1,0
1558440478315223,-1,0,0,-1,-1,-1,-1,-1
1558440478330212,-2,-1,-3,0,0,0,-1,-1
1558440478330212,-1,0,-1,0,0,0,1,0
1558440478338160,-1,-2,-2,0,-1,-2,-3,-2
1558440478338160,0,-1,-2,-2,0,-1,0,-2
1558440478352790,-1,0,-1,1,-2,-2,-2,-1
1558440478352790,0,-2,-1,-4,0,0,1,-1
1558440478352790,-1,-1,0,-1,-2,-3,-2,-2
1558440478352790,1,1,0,2,-2,-3,-3,0
1558440478366960,-2,-1,-1,-3,-2,-1,-1,-1
1558440478366960,0,-2,-1,-1,0,1,0,1
1558440478374927,-2,0,0,1,0,1,0,-1
1558440478374927,-1,0,1,0,1,-1,1,-1
1558440478389727,0,-1,0,-2,-2,0,-2,-2
1558440478389727,-1,-2,-4,-1,-1,-2,0,1
1558440478397865,1,-1,0,1,-1,-2,0,0
1558440478397865,-1,-1,-2,-1,-2,-2,-1,-2
1558440478412636,0,-1,-1,-1,0,-1,-2,0
1558440478412636,-1,-1,1,1,-1,-1,-2,-2
1558440478413626,0,1,-2,-2,-2,4,-1,-1
1558440478413626,0,1,-1,-3,0,-1,-1,0
1558440478426592,-2,-2,-2,0,-1,-1,0,1
1558440478426592,-2,1,0,0,-1,1,1,-3
1558440478434600,0,-2,-1,-2,0,2,1,-1
1558440478434600,0,1,2,-2,-4,-4,-3,0
1558440478449895,0,-3,-2,0,-1,-4,-5,-2
1558440478449895,0,-5,-3,-1,0,-1,0,1
1558440478457870,-1,-3,-1,-1,0,2,2,-2
1558440478457870,-1,-1,0,2,0,1,-3,-1
1558440478472821,-1,0,-1,-1,-3,-1,-3,0
1558440478472821,1,0,-4,-1,-2,-1,-2,0
1558440478473466,-3,-3,-1,-1,-1,-1,-1,-1
1558440478473466,-3,-1,-2,-2,1,0,-1,-3
1558440478487509,0,0,0,0,-1,-1,1,0
1558440478487509,1,0,1,-1,-1,1,-2,0
1558440478494746,-1,1,0,1,-3,-2,-2,-1
1558440478494746,-2,-2,-2,-4,-2,-3,-2,-2
1558440478509720,-1,-3,-2,-2,-1,1,1,-1
1558440478509720,1,3,-1,1,-2,-3,-3,-1
1558440478517684,1,-2,-2,-2,-2,-2,-1,1
1558440478517684,-2,-3,-2,-1,-3,0,0,1
1558440478532309,-1,-1,0,2,0,2,2,1
1558440478532309,-1,-2,-2,-2,-1,-3,-3,-1
1558440478533305,-1,1,-3,-5,-1,-1,-2,-2
1558440478533305,1,1,-1,-1,0,0,0,1
1558440478547270,-2,-1,0,1,1,-1,-1,-1
1558440478547270,-1,0,0,-2,-1,0,-1,-2
1558440478554539,0,-1,-2,1,-2,-1,-1,-1
1558440478554539,-3,0,-2,-1,-2,1,1,-1
1558440478569210,-3,-2,-2,-3,-1,0,-3,-2
1558440478569210,-2,-1,0,-3,-2,-3,-2,0
1558440478577221,-2,-2,-3,0,-1,-1,-2,-1
1558440478577221,-1,-3,-2,-1,-1,0,1,1
1558440478593146,1,1,-2,-1,-2,-1,-1,-2
1558440478593146,0,-1,-2,-2,-1,-2,2,-3
1558440478593146,-2,-1,0,2,0,-1,-1,0
1558440478593146,-1,-1,1,0,-1,0,-1,0
1558440478607356,-2,1,-1,-2,0,-1,-2,0
1558440478607356,-4,-2,-1,-2,-3,1,0,1
1558440478614090,-2,0,0,-3,0,-2,-1,0
1558440478614090,1,0,1,-1,-1,0,0,-1
1558440478630100,1,-1,0,2,-2,-2,-1,-3
1558440478630100,0,-2,-2,-3,-3,0,0,1
1558440478637059,-2,1,-2,-1,-2,0,2,-1
1558440478637059,-3,-2,-4,-2,-2,0,-1,-2
1558440478652987,-4,-2,-1,1,-1,-1,-2,-2
1558440478652987,-2,0,-1,-1,-1,2,0,-1
1558440478652987,-1,0,-2,-3,0,-3,-2,1
1558440478652987,1,2,-2,0,-1,-3,0,-1
1558440478667222,0,-1,-1,-4,-3,0,-1,-1
1558440478667222,1,-1,-2,0,-1,0,-1,0
1558440478674191,-1,-4,-2,-1,-5,-3,-5,-1
1558440478674191,-2,0,-2,-3,-2,-2,0,-1
1558440478690142,0,0,-1,-1,0,-1,0,-1
1558440478690142,-2,0,1,0,1,-2,-2,-1
1558440478698150,-1,1,1,0,1,1,3,0
1558440478698150,0,-2,-1,-2,-1,-5,-1,-1
1558440478713117,0,-1,-1,0,0,-1,0,-1
1558440478713117,-1,-1,-1,1,-1,-1,0,-2
1558440478713117,2,-1,0,-1,-1,0,-1,-2
1558440478713117,-1,-2,-2,-1,1,1,-2,-2
1558440478727031,-3,-2,-3,1,-1,2,-1,-1
1558440478727031,-1,1,0,-1,-1,-3,-3,1
1558440478735032,-1,-1,0,1,1,0,-1,-2
1558440478735032,-2,-1,-1,1,-1,0,0,0
1558440478749950,1,0,-3,0,-2,-2,-1,0
1558440478749950,-1,-2,-4,-2,-1,-1,0,-3
1558440478757974,0,0,2,-3,-1,2,3,0
1558440478757974,-1,-3,-1,3,-1,-1,-5,-2
1558440478771940,1,-3,-1,-3,-1,-3,0,-2
1558440478771940,0,-2,-1,0,-2,-1,0,-3
1558440478780816,-1,-1,-3,1,0,-3,0,-1
1558440478780816,-1,-1,0,-1,-1,1,-1,-1
1558440478786629,-1,-1,0,-4,-1,1,0,-1
1558440478786629,0,-2,-1,0,0,-3,-2,-1
1558440478794896,-3,-3,0,1,0,0,-1,-4
1558440478794896,0,0,-1,-2,-1,0,0,0
1558440478809833,-2,-2,-1,-1,-4,-3,-1,0
1558440478809833,-2,-1,-2,1,-2,0,-1,0
1558440478817545,-1,-2,-1,-3,-1,-2,0,0
1558440478817545,0,-3,-3,-2,-1,-1,-4,-2
1558440478832586,0,-1,2,1,1,-1,0,1
1558440478832586,-2,-1,0,-2,0,1,1,1
1558440478840483,-1,-1,-2,-2,-2,-3,-3,0
1558440478840483,0,0,-1,-1,-2,0,3,1
1558440478846467,-1,0,0,-1,-1,-1,-2,-3
1558440478846467,1,1,-2,-2,0,0,-1,-2
1558440478854445,1,-1,-1,0,0,1,-2,-5
1558440478854445,-1,0,1,2,1,-2,-2,-2
1558440478869406,-1,-2,-2,-3,0,-3,-2,-2
1558440478869406,-1,0,-2,-2,-2,0,-1,1
1558440478877680,0,-2,0,-2,-3,-4,-2,1
1558440478877680,-3,-1,-1,-3,-1,-1,-2,-2
1558440478891609,-1,0,-4,-2,0,1,1,0
1558440478891609,-1,-2,1,-1,1,-1,-2,-2
1558440478900608,0,-1,-2,0,2,2,1,2
1558440478900608,0,0,0,-2,0,-1,0,-1
1558440478915552,-3,-1,1,-1,-2,-5,-2,-1
1558440478915552,1,-4,-1,0,-1,-1,-1,-1
1558440478916281,-2,-1,-4,-4,-1,-2,-1,-1
1558440478916281,-2,-1,0,-1,-1,1,-2,-1
1558440478929276,1,2,1,1,0,1,1,1
1558440478929276,-1,0,-3,-3,-1,-1,-3,-1
1558440478938289,-2,-1,0,-2,0,-2,0,0
1558440478938289,-2,-3,0,-1,-2,-2,-1,-1
1558440478961443,0,0,0,0,-1,0,-3,-1
1558440478961443,0,0,0,-2,-1,1,1,-1
1558440478961443,0,-1,-1,-2,-3,-6,-6,-3
1558440478961443,-2,1,-1,2,0,-1,1,-1
1558440478975386,-4,-3,-1,-2,2,-2,0,-2
1558440478975386,-3,-1,-1,-2,0,-1,3,-3
1558440478976123,-1,1,0,1,-1,1,0,-2
1558440478976123,1,-1,0,-3,-2,0,-2,1
1558440478989370,-3,-4,-3,-1,-1,-1,-2,-2
1558440478989370,-3,-1,-1,2,-1,1,0,0
1558440478998323,4,1,-2,0,0,0,1,2
1558440478998323,-1,-1,-1,-2,-2,-3,-3,-1
1558440479012296,-1,0,-2,-2,-2,-3,-2,0
1558440479012296,-2,0,-1,1,-2,0,-4,-1
1558440479020007,-2,-2,0,-3,0,1,-1,2
1558440479020007,-1,-2,-3,-3,-2,-1,1,-3
1558440479034963,-1,-1,1,0,-1,0,-1,0
1558440479034963,1,0,1,-3,-2,-4,0,1
1558440479035961,0,-2,-1,0,-1,1,-2,-2
1558440479035961,-1,1,0,2,2,0,-1,1
1558440479048927,-2,-6,-5,-3,-2,-1,-3,-4
1558440479048927,1,-1,0,-1,0,0,1,-1
1558440479058186,-5,-1,-7,-2,-3,-4,0,-4
1558440479058186,-2,-1,2,0,-1,-2,2,0
1558440479072127,0,0,-1,-1,-2,1,0,1
1558440479072127,-1,-3,-1,-3,-2,-4,-2,0
1558440479080872,0,-2,0,-1,-1,-1,-3,-1
1558440479080872,-1,1,-1,-2,-1,0,2,1
1558440479094804,-2,0,-3,0,1,0,0,0
1558440479094804,1,-3,0,0,1,1,0,-2
1558440479095804,1,1,2,-1,-2,-3,-3,0
1558440479095804,-1,-3,-2,-2,-2,-3,-4,-3
1558440479109763,1,1,-1,-1,0,2,1,0
1558440479109763,-2,1,-1,3,0,-2,-2,-1
1558440479117743,-2,-3,0,-1,-3,-3,0,-4
1558440479117743,-1,-2,-4,-2,-2,1,-1,-2
1558440479131704,-3,-3,-2,-1,-3,-3,-2,-2
1558440479131704,-1,-1,0,-3,-1,-2,-1,-1
1558440479139682,-2,-1,-1,-1,1,2,1,0
1558440479139682,0,-1,-1,1,0,-2,1,-1
1558440479154695,-2,-2,1,-1,1,-2,1,0
1558440479154695,0,1,-1,-3,-1,2,-1,-3
1558440479155639,-1,0,-1,-2,-2,-3,-2,1
1558440479155639,1,0,1,2,2,0,-1,0
1558440479169605,-3,-4,-3,-2,-3,-6,-4,-3
1558440479169605,-2,-2,1,-1,-3,-3,-1,1
1558440479178043,-1,0,-1,2,0,1,-1,-1
1558440479178043,1,-2,-1,-1,-3,0,-2,-2
1558440479192031,-1,1,1,-2,0,1,-1,0
1558440479192031,-2,-1,-1,1,0,-2,-2,-1
1558440479199895,-3,-1,-1,0,1,0,2,-1
1558440479199895,-1,-2,-1,-2,-2,-3,-1,-1
1558440479214916,-2,0,1,0,-1,1,-1,-1
1558440479214916,-1,0,-4,0,-2,-1,-2,-3
1558440479215482,0,-1,-3,-2,0,1,1,1
1558440479215482,-3,0,-3,-2,0,-1,-1,0
1558440479229804,1,0,0,1,1,-1,-2,-1
1558440479229804,-1,-1,-2,-4,2,1,0,1
1558440479237424,-2,-4,-3,-3,-1,-1,0,-1
1558440479237424,-1,-1,-2,0,-1,-2,-1,2
1558440479251385,1,0,2,0,-2,-3,-1,2
1558440479251385,-1,-2,-1,-3,-3,-4,0,-1
1558440479260361,-1,0,1,0,-2,0,-2,-1
1558440479260361,-2,-1,0,2,-1,1,-1,-1
1558440479275728,-2,0,1,-3,-1,2,3,-1
1558440479275728,-2,-2,-5,-3,-2,1,-2,-2
1558440479275728,2,-1,1,1,1,0,-2,-2
1558440479275728,0,1,1,-4,1,-1,1,-2
1558440479289632,0,-1,-3,-1,-1,-2,0,-1
1558440479289632,0,-2,1,2,-1,-4,-2,0
1558440479298316,-5,-2,1,-3,-2,-2,-2,-1
1558440479298316,-3,-1,-2,-2,0,0,-2,-1
1558440479312536,-2,-3,-4,-1,-2,0,-1,1
1558440479312536,-2,-1,-1,-1,-1,0,-1,-2
1558440479320200,0,0,0,0,0,-1,0,-3
1558440479320200,-1,0,1,-2,0,-2,-2,-2
1558440479335374,-2,-1,3,0,-1,0,-1,-2
1558440479335374,0,-1,-2,-3,-1,-2,-1,0
1558440479335374,-1,-3,0,1,0,-2,-2,-1
1558440479335374,-2,-3,-3,1,-2,1,0,-2
1558440479350156,0,-1,-2,-2,-1,-2,-2,-2
1558440479350156,-2,-2,3,0,0,-2,0,-2
1558440479358408,-1,0,-1,0,1,-1,-2,0
1558440479358408,-3,-3,-4,-1,-2,-3,-2,-1
1558440479372393,0,1,-2,-3,-1,1,0,0
1558440479372393,1,-2,-1,0,-2,0,1,-1
1558440479380408,0,-1,0,0,0,-1,1,0
1558440479380408,-1,-1,0,-2,-1,-1,-3,-3
1558440479395363,-1,1,-1,2,1,4,2,0
1558440479395363,-4,-2,-2,0,-1,-5,-3,-1
1558440479395998,-2,-1,-2,-3,-2,-2,-3,0
1558440479395998,1,0,2,-2,0,1,0,0
1558440479409048,-1,-2,-2,-2,0,-5,-1,-2
1558440479409048,-1,1,0,0,0,1,-2,1
1558440479417246,0,0,0,-2,-1,0,1,0
1558440479417246,-2,-1,-2,-1,-1,-1,0,-1
1558440479431902,-2,0,-1,1,-2,-2,0,-2
1558440479431902,-1,-1,-2,-1,0,0,-1,-1
1558440479439880,-1,-1,-1,-1,0,-2,-1,-2
1558440479439880,0,-1,0,0,-2,0,-4,-1
1558440479454841,-1,-5,3,-2,0,-1,-2,1
1558440479454841,2,1,2,0,0,0,1,2
1558440479455836,-2,-2,-4,-3,-3,-3,-1,-1
1558440479455836,0,0,0,1,-1,-3,0,-1
1558440479477777,-2,-1,-4,-3,0,1,-1,-1
1558440479477777,-1,2,-1,-2,-2,3,-1,-1
1558440479478774,0,1,3,1,-1,1,-1,-1
1558440479478774,0,-1,0,-2,-1,-2,-2,0
1558440479491775,-1,-1,-2,0,-1,0,-2,0
1558440479491775,-1,-1,0,2,0,4,2,1
1558440479499753,0,1,-3,-1,-2,-4,-2,0
1558440479499753,-2,-2,-3,-1,1,1,1,-1
1558440479514680,-1,0,-3,0,-1,-2,0,-2
1558440479514680,1,-3,-2,-1,1,-1,-2,-2
1558440479515678,-1,-2,-1,-2,1,1,2,0
1558440479515678,-2,-3,-5,-2,-2,-7,-3,-2
1558440479529640,-2,-1,0,0,-1,-2,-1,1
1558440479529640,-1,0,0,-2,1,-1,-3,0
1558440479537617,-1,0,-1,-1,-1,0,-4,-1
1558440479537617,0,-1,0,1,-1,0,1,-1
1558440479560556,-1,-2,-1,0,-1,1,-1,-1
1558440479560556,-3,-2,-3,-3,-2,-3,1,-2
1558440479561554,-3,-1,2,1,-2,-4,0,0
1558440479561554,1,1,-1,0,-2,2,0,2
1558440479574555,0,-1,0,-1,1,0,2,-4
1558440479574555,0,-3,-1,-1,0,-1,-2,-2
1558440479575519,-2,-4,-3,-1,-2,1,-1,0
1558440479575519,0,0,0,-2,0,-4,-2,-1
1558440479589481,0,0,-3,-1,-1,-1,-2,0
1558440479589481,-2,-3,-3,-1,-1,-1,-2,-4
1558440479598490,-1,-1,-2,-5,-1,-3,-1,-3
1558440479598490,-2,-1,-1,-2,-2,-1,-1,-2
1558440479611420,0,-1,-1,1,-1,-2,-2,-2
1558440479611420,0,0,0,1,0,-1,-1,0
1558440479620407,1,-2,-2,-2,1,2,-1,-1
1558440479620407,1,0,1,-1,-3,-4,-2,1
1558440479635357,-2,-3,0,0,0,0,-1,-1
1558440479635357,-3,-1,-1,-3,-1,0,1,-1
1558440479635357,-1,0,-3,-2,0,-3,-2,-5
1558440479635357,-1,-1,-1,2,1,1,0,-1
1558440479658296,-2,0,1,-2,-1,-1,-1,0
1558440479658296,0,-1,-1,-2,0,-4,0,0
1558440479659315,1,1,-1,0,1,1,-1,2
1558440479659315,-2,-3,-3,-1,-1,-3,-3,-1
1558440479688216,-2,-2,-2,-2,-1,-2,-2,-2
1558440479688216,-1,-1,-2,-2,-2,-1,-2,0
1558440479689212,0,-1,0,2,-2,-2,1,-1
1558440479689212,-3,0,-3,-4,0,2,0,-1
1558440479711155,0,0,0,-2,0,-1,-2,-1
1558440479711155,-1,-1,1,1,-1,-1,-3,-1
1558440479712153,-1,-3,-2,-1,-1,-1,1,1
1558440479712153,0,0,-1,-1,-2,-1,-1,-1
1558440479713149,-2,-1,-4,-2,-2,-1,0,0
1558440479713149,0,-1,0,-1,0,-1,-1,0
1558440479717141,-3,-2,-1,-1,-1,-1,-2,0
1558440479717141,0,-1,-2,-1,-3,0,0,-1
1558440479741075,1,1,1,1,0,1,0,1
1558440479741075,-2,-1,-2,-4,1,1,-2,-2
1558440479741075,-1,-2,0,-1,-2,-1,-3,-1
1558440479741075,-3,-1,0,3,1,-1,-3,-3
1558440479763054,1,-2,0,-3,-2,0,-2,-2
1558440479763054,-2,-2,-3,-2,-2,-3,-2,-1
1558440479764012,0,-1,-2,1,0,0,0,0
1558440479764012,1,-1,-1,-1,0,-1,0,0
1558440479768999,0,-1,0,0,0,-1,-1,-1
1558440479768999,-1,0,0,1,-1,0,1,-1
1558440479784956,-3,-2,0,1,-1,-1,-2,-1
1558440479784956,-1,-3,0,-2,-2,-2,1,0
1558440479791937,2,-1,-2,-2,0,-2,-1,-2
1558440479791937,-3,-2,-1,1,-1,-2,0,0
1558440479799916,-2,0,-1,-2,-1,2,1,-2
1558440479799916,0,0,0,-1,1,1,-2,0
1558440479813880,-3,-2,-4,1,-2,-4,-5,-1
1558440479813880,0,1,0,-2,1,-2,-1,-2
1558440479838813,-2,-1,-3,-3,-1,-1,-2,-3
1558440479838813,0,0,0,-1,0,2,1,0
1558440479839811,-2,-1,-2,1,-1,-4,-1,-1
1558440479839811,1,-3,-1,-3,-1,-1,-1,-1
1558440479840806,0,-1,-3,-2,-2,-1,-1,0
1558440479840806,0,-1,-1,-1,1,2,-1,0
1558440479860753,-2,0,-1,-2,1,0,-2,0
1558440479860753,-2,-1,0,-1,-3,-1,-2,-2
1558440479861751,3,-1,2,0,-1,1,2,0
1558440479861751,-2,-4,-3,-2,-3,-4,-4,-2
1558440479874715,1,0,1,-1,-1,-2,0,-2
1558440479874715,0,-1,-1,-1,1,-1,1,0
1558440479882695,1,0,-2,2,0,0,2,-2
1558440479882695,-4,-1,0,-3,-2,-2,-2,-2
1558440479897656,1,-3,-1,-2,-3,-2,-2,-1
1558440479897656,1,0,-1,0,0,0,2,0
1558440479897656,-3,-1,-2,-3,-1,-6,-3,-1
1558440479897656,-2,-3,-2,-2,-2,-1,-3,-2
1558440479913613,1,0,2,0,0,1,1,0
1558440479913613,0,-3,-1,0,-1,-1,-3,1
1558440479919596,-1,-2,-1,-3,-1,-2,-3,-1
1558440479919596,-1,-1,-2,0,1,2,2,1
1558440479943533,-2,0,0,0,0,-3,-1,-1
1558440479943533,-1,-1,-3,-2,1,-1,-4,-1
1558440479943533,0,0,3,-2,0,-1,0,-2
1558440479943533,0,0,0,-1,-1,-4,1,-1
1558440479957495,-1,-1,-1,-4,-1,1,2,-1
1558440479957495,0,-2,-2,-1,-2,1,-1,-2
1558440479958491,0,-1,-1,0,-2,-2,-2,-1
1558440479958491,-1,0,-1,-1,-1,0,-3,-2
1558440479971458,-2,-1,-1,-1,-1,1,1,0
1558440479971458,-3,-1,-1,-2,0,-1,-1,-2
1558440479980433,-1,0,1,0,-4,0,-1,0
1558440479980433,-2,-2,-2,0,1,-3,0,0
1558440479994396,-1,0,-2,-2,-1,0,-2,-1
1558440479994396,-1,-1,-1,3,-1,-1,2,0
1558440480002375,-1,-1,-3,-4,-2,0,2,-1
1558440480002375,2,0,2,-1,-1,-1,2,-2
1558440480017335,-4,-1,-2,1,0,-1,-1,-4
1558440480017335,-2,-2,-2,-1,-2,-1,-1,1
1558440480018337,-2,-4,-2,0,-1,-3,-3,-1
1558440480018337,-2,-3,-3,-2,-1,1,0,-1
1558440480033292,1,-1,3,1,-1,-2,0,0
1558440480033292,0,-1,-3,-2,-2,-1,-2,-1
1558440480040274,-3,-3,-3,-1,0,-1,1,0
1558440480040274,0,-1,1,2,-2,-1,-1,0
1558440480063211,-1,-3,-4,-4,-2,-2,-1,-1
1558440480063211,-2,0,-1,0,-2,-4,0,-1
1558440480064208,0,-1,-3,0,0,-3,-4,0
1558440480064208,-2,0,-2,-2,-1,-1,-3,-1
1558440480085154,-2,-1,-1,-2,-1,1,-1,-2
1558440480085154,0,0,-1,-1,-1,-1,-3,-2
1558440480086151,2,2,0,3,0,0,0,0
1558440480086151,0,1,1,-1,0,1,1,-3
1558440480092138,-2,-3,-1,-3,-3,0,1,-1
1558440480092138,-2,-1,-1,-1,-1,0,2,-1
1558440480107094,-3,-3,-1,-3,-2,0,-2,-2
1558440480107094,1,-2,-3,-3,0,0,-1,-3
1558440480114110,0,1,1,0,-1,-5,-3,1
1558440480114110,-1,-1,0,-1,0,1,-1,0
1558440480122094,-1,-2,-2,-2,0,1,2,-1
1558440480122094,-2,0,0,0,-2,-1,0,1
1558440480137014,-1,-2,-3,0,-1,0,-1,-2
1558440480137014,1,-1,1,-3,-1,-3,0,1
1558440480138011,-1,-1,-4,-1,-1,-1,-5,-2
1558440480138011,-3,-2,0,-1,-1,0,-2,-1
1558440480160951,0,0,0,-2,1,1,0,-1
1558440480160951,-2,-2,1,0,-2,-1,-1,-3
1558440480160951,0,1,0,1,-2,-3,-1,-2
1558440480160951,-2,-2,-1,-3,-1,0,-1,-3
1558440480190872,-2,0,-1,-1,-2,0,-2,-1
1558440480190872,-2,-2,0,-1,1,1,0,0
1558440480190872,-2,-1,-2,0,-1,-1,-2,-1
1558440480190872,0,-3,-2,0,-2,-3,-2,-1
1558440480197851,-1,0,-1,0,0,-1,-1,-2
1558440480197851,0,-1,-1,1,-1,-2,-1,1
1558440480197851,-3,-3,0,-1,0,-1,-1,-2
1558440480197851,0,1,-3,0,-1,-1,0,-1
1558440480212813,-1,-4,-3,0,-1,0,-1,0
1558440480212813,-2,-2,-4,-3,-2,-1,-2,-2
1558440480219793,-2,0,0,0,0,1,0,0
1558440480219793,-2,-2,-3,-2,-2,-1,-2,-2
1558440480234752,-1,1,-1,0,-1,-1,-2,-2
1558440480234752,0,0,0,-3,-1,-6,-3,-1
1558440480242758,-1,0,-2,-2,-1,-1,-1,0
1558440480242758,-3,-1,-3,1,-3,-2,-2,-1
1558440480265671,0,-1,0,-2,0,-1,-1,-2
1558440480265671,1,0,2,1,-1,2,0,-2
1558440480266726,0,-1,-3,0,-1,0,-1,-1
1558440480266726,0,0,2,-3,2,-1,-1,1
1558440480271655,-1,0,0,0,0,0,0,1
1558440480271655,-1,0,-1,2,-1,-3,-1,0
1558440480295589,-3,0,0,-1,-2,0,-1,-1
1558440480295589,-1,0,-1,-4,-1,0,0,-1
1558440480296587,1,0,0,1,-3,-1,-1,-2
1558440480296587,-2,-3,-3,0,-2,1,-2,-2
1558440480318560,-1,-2,-3,-3,-2,-4,-3,0
1558440480318560,0,1,1,-2,0,0,1,0
1558440480320528,-2,-1,-1,0,-2,-2,-2,0
1558440480320528,-1,-2,0,-2,1,0,0,-1
1558440480320528,-1,0,-1,0,0,-4,-2,0
1558440480320528,-1,-2,-1,1,-2,-1,-3,-2
1558440480340796,-1,0,0,0,-2,0,1,-1
1558440480340796,-2,-2,-2,-1,-1,-1,0,-1
1558440480341469,1,0,0,-3,-1,2,3,-1
1558440480341469,0,-1,-2,1,1,0,-1,-1
1558440480363757,-2,-1,0,-3,1,-2,-3,-1
1558440480363757,-1,-1,-2,-1,-2,-1,2,1
1558440480363757,2,-1,1,2,-1,-1,-1,-2
1558440480363757,-1,-2,-2,0,-5,-2,-3,-1
1558440480377718,-2,-2,-1,-2,-2,0,-2,-2
1558440480377718,-1,-2,-1,-1,1,-2,-3,-3
1558440480378371,2,-1,0,-3,-1,1,2,-1
1558440480378371,-1,0,-1,-2,1,-3,0,-1
1558440480391754,-4,-1,-3,-1,1,-2,-1,-1
1558440480391754,-1,2,-1,1,-1,0,0,2
1558440480400046,-3,-2,-1,-2,-2,0,0,-1
1558440480400046,-1,0,-1,-2,-2,-3,-3,-1
1558440480414690,-1,0,0,1,0,1,0,2
1558440480414690,0,-1,-1,-1,0,0,0,-1
1558440480422671,-1,0,0,-2,0,-1,-2,-3
1558440480422671,-1,-3,-2,1,-1,1,1,0
1558440480437632,0,-2,0,-1,-2,-3,0,-2
1558440480437632,-1,0,-2,-2,-1,-4,-1,0
1558440480438626,-1,-2,-3,0,-2,-1,-1,1
1558440480438626,-2,0,-2,0,0,-3,0,-1
1558440480451593,-1,0,-2,-3,0,0,-2,-2
1558440480451593,-1,0,3,-1,-1,1,1,0
1558440480467549,-1,-3,1,0,0,-1,0,-2
1558440480467549,1,-3,-2,-3,1,0,-3,1
1558440480474533,0,-3,-1,-1,-2,1,-1,2
1558440480474533,-2,-4,-2,-2,-1,-1,-4,0
1558440480489490,-1,0,-3,-1,0,-3,-4,-1
1558440480489490,-1,1,1,-2,0,-2,1,-2
1558440480497470,-2,0,-1,1,-1,0,-1,-2
1558440480497470,1,0,0,0,-1,1,-2,-1
1558440480498468,-1,1,-2,-1,0,-1,-1,0
1558440480498468,1,-1,2,1,-1,-2,1,-2
1558440480520410,-1,-2,-2,-1,-3,-6,-3,0
1558440480520410,-2,-2,-2,-3,-2,-1,-1,0
1558440480521405,0,1,0,0,0,-1,0,-1
1558440480521405,-3,-2,-2,-1,-1,-2,-4,-1
1558440480534372,-1,-2,-1,0,1,1,1,-1
1558440480534372,0,0,-2,-1,-1,-1,-1,-3
1558440480542348,-1,-6,-3,-3,-1,-2,-1,-2
1558440480542348,1,-1,-2,0,0,1,1,1
1558440480565287,0,-1,1,-1,1,-1,-1,-1
1558440480565287,0,-1,-2,0,0,-1,-1,-2
1558440480566285,-1,1,2,3,0,-1,0,-1
1558440480566285,-1,0,1,-2,-1,1,0,0
1558440480571299,-1,-2,-5,-2,-2,-3,-3,-1
1558440480571299,0,-1,-2,-2,-1,2,0,2
1558440480580306,-1,-1,-2,-2,-2,0,0,0
1558440480580306,-3,-2,-1,-2,-1,1,1,-2
1558440480595265,-1,-2,-2,-1,-2,0,0,-1
1558440480595265,0,-1,0,1,-2,-5,-4,-1
1558440480602189,-1,-3,-3,-2,-3,-1,0,1
1558440480602189,-1,-2,-1,-1,-3,-1,-1,0
1558440480617148,1,-1,0,-2,-2,0,1,-1
1558440480617148,0,0,-3,-2,0,0,-1,-2
1558440480625128,-2,1,-1,-1,-1,-3,-4,-1
1558440480625128,0,1,1,1,-1,-2,-2,-1
1558440480641084,-2,-4,1,-1,0,-1,-1,2
1558440480641084,-3,-4,0,-1,0,-1,-1,-3
1558440480641084,-3,-2,-1,-1,-1,1,-1,-4
1558440480641084,0,-1,1,0,-3,-1,-1,1
1558440480663063,-1,-1,-3,-2,0,0,0,0
1558440480663063,0,0,-2,-2,-1,-1,-1,0
1558440480664026,0,0,2,0,-1,-2,-1,-1
1558440480664026,-1,-1,-3,-1,2,-3,-3,0
1558440480693945,2,1,1,-1,-3,-1,-2,-2
1558440480693945,-2,-1,-1,2,-1,-1,1,-2
1558440480694942,-1,0,-1,-2,-1,-1,0,1
1558440480694942,0,0,-4,-3,1,0,1,0
1558440480696935,-2,-1,-4,-1,-2,-3,-3,-2
1558440480696935,0,-2,0,-2,0,-2,-2,-2
1558440480699927,0,-3,-1,-2,-3,-4,-3,-2
1558440480699927,-2,-1,-1,-1,0,0,-1,-1
1558440480713917,-1,0,2,1,0,0,1,-2
1558440480713917,-2,-2,-2,0,1,-1,-1,-3
1558440480722866,0,-2,-2,-3,-1,-1,1,0
1558440480722866,-2,-2,-2,1,-2,-2,-1,-2
1558440480746178,-2,0,0,-1,-2,0,1,0
1558440480746178,-2,-4,-2,-1,-2,-1,0,1
1558440480747906,0,0,-2,0,0,0,-1,0
1558440480747906,1,-1,1,0,-3,-1,-2,0
1558440480751983,0,0,1,-3,0,1,-1,-1
1558440480751983,-1,-2,-2,-2,-1,0,-1,-1
1558440480767747,-1,-2,-3,2,3,0,-2,-1
1558440480767747,-2,1,-1,-2,0,0,-1,-2
1558440480774814,-1,-1,-2,0,-1,0,-2,-1
1558440480774814,-3,-1,1,1,-1,0,-1,0
1558440480783197,-1,-1,-2,-3,-2,0,-2,-2
1558440480783197,0,-1,0,-3,-2,-3,-1,0
1558440480797932,-1,-1,-1,-1,0,-2,-2,-3
1558440480797932,-2,0,0,-1,-4,-1,1,1
1558440480805648,1,-2,-1,-1,-2,-3,-3,-1
1558440480805648,-1,-1,-2,-1,-2,-1,-1,-1
1558440480820868,-2,-1,-1,0,2,1,-2,0
1558440480820868,-2,1,0,-3,-2,-1,-1,1
1558440480821605,-2,1,3,0,1,-3,-2,-2
1558440480821605,-2,-4,-3,1,-1,0,-2,-3
1558440480843810,1,-1,3,-2,0,-1,2,1
1558440480843810,-1,1,-2,-3,1,-1,0,-2
1558440480844547,0,-1,-2,-1,-1,-2,0,-2
1558440480844547,1,1,3,-2,-1,-3,-3,1
1558440480873464,-3,-3,-2,-2,-3,-2,-3,-2
1558440480873464,0,0,-1,-1,0,-1,-2,1
1558440480874461,-4,-2,-2,0,-1,-1,-1,0
1558440480874461,-1,0,1,-2,-2,-1,-1,-1
1558440480888783,-1,-3,-2,-1,-1,-1,-1,-1
1558440480888783,-1,1,2,1,0,-3,-3,-1
1558440480889422,-1,0,-2,-1,-1,0,-2,-1
1558440480889422,0,0,1,0,0,-1,-1,-1
1558440480894838,-1,1,-1,-2,-1,0,-1,0
1558440480894838,-3,-4,-4,0,-2,0,0,-1
1558440480903386,-1,-1,1,-3,-1,0,1,0
1558440480903386,-2,-5,-3,-3,0,-1,0,1
1558440480917725,-2,-3,-1,1,-1,-1,0,0
1558440480917725,2,0,-1,-4,-2,-2,0,0
1558440480925325,0,-1,1,0,-3,2,2,0
1558440480925325,-2,1,-1,0,-5,-2,0,-5
1558440480940788,-2,-1,-3,1,0,1,-1,-1
1558440480940788,-1,-1,0,-1,-1,1,0,-1
1558440480942280,-2,-2,-2,-1,0,-3,-5,0
1558440480942280,0,0,-2,0,-1,2,-1,0
1558440480954284,-1,-1,-2,-1,-3,-5,-1,-2
1558440480954284,-1,-4,-4,-1,-3,1,-2,-2
1558440480970206,0,-1,-1,0,-2,2,3,0
1558440480970206,-2,-1,0,-2,-1,-2,-2,0
1558440480977186,-3,0,1,-1,-1,-2,-2,-1
1558440480977186,0,2,2,2,-1,1,0,0
1558440480985165,2,1,2,-1,-1,-1,1,0
1558440480985165,-2,-2,-6,-1,2,-1,0,-2
1558440481000151,0,-2,-4,-3,-3,-3,-1,-1
1558440481000151,1,1,1,0,-2,-3,-1,-1
1558440481002119,0,-1,-2,-2,0,1,0,-2
1558440481002119,-1,-2,0,-1,0,2,-1,0
1558440481023090,-2,1,1,3,1,1,-1,2
1558440481023090,-4,-2,-2,-2,-2,-3,-4,-4
1558440481025065,-4,-1,-3,-2,-2,-3,-2,-1
1558440481025065,0,0,0,1,-2,-1,-3,-1
1558440481046015,2,-3,0,-2,-1,0,-2,-1
1558440481046015,2,1,2,-1,1,2,1,0
1558440481047274,-3,-5,-5,-1,-2,1,-1,-3
1558440481047274,-1,0,1,0,-2,0,-1,-1
1558440481060091,-2,-4,-4,-2,-3,-1,-2,-2
1558440481060091,-1,-2,-2,-1,-1,-1,-1,-1
1558440481068356,0,-2,0,1,-1,-4,-1,0
1558440481068356,1,-1,3,-1,0,0,0,1
1558440481074326,-1,1,-1,-2,-2,1,1,-1
1558440481074326,-2,-2,0,1,1,0,1,-1
1558440481082905,-1,0,0,-2,-1,0,-1,-2
1558440481082905,-2,-1,-2,-2,-1,-3,-2,-3
1558440481096866,0,0,0,-1,-1,0,0,-3
1558440481096866,-2,-1,-1,-2,-2,-2,-1,-2
1558440481105842,-4,-1,-2,-1,-1,-1,-2,0
1558440481105842,-1,3,-1,-1,0,0,0,2
1558440481119806,-1,2,0,0,0,-2,1,0
1558440481119806,-1,-1,-6,-1,-1,-1,0,-1
1558440481126789,1,-2,-3,-2,-1,1,0,-2
1558440481126789,-2,-1,-2,1,1,-1,-1,-1
1558440481150723,-1,-2,-2,-4,-4,-2,-3,0
1558440481150723,-1,-3,1,0,-1,-2,-3,-2
1558440481151720,-1,1,-2,0,-2,-1,0,0
1558440481151720,0,1,-1,0,0,1,0,0
1558440481156706,0,2,3,0,0,1,0,1
1558440481156706,-2,-1,0,-1,-2,-4,-3,-1
1558440481165682,-1,0,0,1,-1,1,-1,2
1558440481165682,1,-3,-3,-4,-2,-1,0,0
1558440481179835,-1,-2,-3,-2,-1,-1,-1,-3
1558440481179835,0,2,-1,0,-2,-1,-1,-1
1558440481194607,2,2,1,0,1,-2,1,-1
1558440481194607,-3,-2,-2,-4,-2,-2,0,-1
1558440481195602,-1,1,3,0,1,-1,-2,2
1558440481195602,0,-2,-4,-1,-3,-1,-1,1
1558440481203584,-1,0,-1,-1,-1,0,-1,-3
1558440481203584,0,-3,-2,-1,-1,-2,0,-1
1558440481225523,-1,-1,-1,1,-1,-1,0,-2
1558440481225523,0,-1,2,-1,0,-2,-1,-1
1558440481227517,-3,-3,-2,-2,-1,-2,-2,0
1558440481227517,0,0,1,1,-2,-2,-3,-2
1558440481239484,-3,-1,1,-3,1,0,0,0
1558440481239484,-2,-3,-3,-2,1,1,0,-2
1558440481248463,-1,0,-2,0,-2,-3,-4,1
1558440481248463,-1,0,1,0,-1,-1,-1,0
1558440481256787,1,1,0,-2,-1,-3,-1,1
1558440481256787,0,-1,-1,-3,0,-2,1,-1
1558440481270426,-3,-2,-4,3,-1,2,0,0
1558440481270426,-1,0,-1,-2,-1,1,-2,-1
1558440481276413,-1,-2,-2,1,0,3,-1,-1
1558440481276413,-1,-2,-2,0,-3,-3,-3,0
1558440481301320,-1,-2,-1,-3,-1,-3,-3,-2
1558440481301320,1,-2,-3,-2,-2,-2,-1,0
1558440481302321,-2,-2,-3,0,-1,0,1,-3
1558440481302321,-1,0,0,-2,-1,0,-1,-1
1558440481308301,1,-1,-1,-3,-1,1,0,0
1558440481308301,0,-1,0,-2,0,-4,-3,0
1558440481323262,-1,-2,-4,1,-2,-3,-2,-1
1558440481323262,-2,-3,-2,-2,0,-2,-1,0
1558440481324258,1,-1,0,-1,-1,-2,0,-1
1558440481324258,-3,-3,-1,0,0,1,2,0
1558440481345209,-1,-2,-4,-2,-2,-1,-1,-1
1558440481345209,0,1,-1,-2,-3,0,1,-1
1558440481347196,-2,-2,2,1,-1,0,1,-2
1558440481347196,0,-3,-1,0,1,0,0,-2
1558440481359166,-1,-3,-3,-2,-4,-6,-4,-1
1558440481359166,0,-1,0,-1,0,3,1,1
1558440481368141,-2,-4,-3,-3,-2,-4,-3,-2
1558440481368141,-2,-1,-1,-4,0,2,-1,-1
1558440481374132,0,0,1,-2,-1,-3,-1,-2
1558440481374132,-1,0,-2,0,-1,-2,-2,-1
1558440481383101,0,1,0,-1,0,1,1,1
1558440481383101,-1,0,-3,-2,0,-3,-2,-1
1558440481397064,-2,-2,-1,0,-1,-3,-1,-1
1558440481397064,-1,-1,-3,-2,-1,0,0,0
1558440481406039,-3,0,-2,-2,-1,3,-1,-1
1558440481406039,-1,2,0,0,-3,-3,-2,-2
1558440481427987,2,2,1,0,-2,0,1,0
1558440481427987,0,-1,-2,-3,-1,-1,-2,0
1558440481429976,1,-2,-3,0,-1,-1,-2,-1
1558440481429976,-2,-1,0,2,-2,-1,-1,-3
1558440481450921,-1,-1,0,-1,1,1,1,1
1558440481450921,0,-2,1,-2,-1,-2,-2,0
1558440481451917,0,-2,-1,-1,-1,-2,-2,-3
1558440481451917,-1,0,1,-1,0,0,1,-1
1558440481456911,0,0,-2,0,0,0,-1,-1
1558440481456911,-2,0,-3,-2,-3,-2,-1,-2
1558440481465880,1,0,0,2,0,0,-1,0
1558440481465880,2,-2,-1,-3,-3,-2,-1,-2
1558440481478844,-1,-3,1,-1,1,3,1,-1
1558440481478844,1,-1,0,1,-1,-3,-1,0
1558440481504775,-2,-3,-4,-4,-2,-4,-1,0
1558440481504775,-4,-1,-1,-2,-1,-3,-2,-2
1558440481505772,0,-2,-1,-2,-2,0,-2,0
1558440481505772,0,1,3,1,-3,-2,-2,0
1558440481508768,-2,0,1,-4,-3,-2,-2,0
1558440481508768,2,-3,-4,0,-1,-2,-1,1
1558440481525719,-3,-1,-3,-1,-1,-1,-1,-2
1558440481525719,-1,-1,-1,-1,-1,-1,0,-1
1558440481526716,0,-2,0,-2,0,0,0,-1
1558440481526716,-3,-2,-1,0,0,-1,-1,-2
1558440481548683,0,-1,1,-3,0,-1,0,-2
1558440481548683,-1,-1,-1,-1,-1,-1,0,-2
1558440481554642,-2,0,-1,1,-1,-1,-1,0
1558440481554642,1,1,-1,-1,1,3,2,1
1558440481555639,-2,-5,-4,-4,-3,-4,-2,-1
1558440481555639,-1,-2,-2,-2,0,-2,-3,-4
1558440481563619,-1,-1,2,2,0,-2,0,0
1558440481563619,-4,-3,-4,-2,-2,-1,-1,-2
1558440481576583,-1,-2,-2,-1,-1,-1,-1,0
1558440481576583,-1,1,-1,0,0,-1,-1,1
1558440481585561,1,-2,-1,-2,0,-1,-3,-2
1558440481585561,2,0,1,-3,-3,-2,-2,0
1558440481599522,-1,1,1,1,0,1,1,-1
1558440481599522,-1,-2,-3,-2,-3,2,-1,0
1558440481608498,0,-1,-1,-2,-2,0,1,-2
1558440481608498,-1,-1,0,-2,-2,-3,0,0
1558440481614487,-2,0,1,0,-1,2,-1,-1
1558440481614487,-3,-2,-1,-2,1,1,0,0
1558440481623459,0,1,0,0,0,-2,1,2
1558440481623459,-1,-2,-4,1,-3,-5,-5,-2
1558440481645404,0,0,2,-1,1,0,0,-1
1558440481645404,-1,-1,-1,-2,1,-1,-1,0
1558440481647394,0,-2,-1,-1,-1,2,1,0
1558440481647394,-1,0,-1,0,1,-1,-1,0
1558440481659362,1,1,-2,-3,-1,-3,2,-1
1558440481659362,-2,1,-1,0,0,-1,0,-2
1558440481676317,-1,0,-2,0,-1,-3,-2,-1
1558440481676317,0,-3,-2,1,-1,-2,-2,-2
1558440481683298,-2,-2,-4,-3,-2,0,-1,-2
1558440481683298,0,-1,0,2,1,3,-2,-1
1558440481684295,-2,0,0,-3,-3,-3,-4,-2
1558440481684295,-2,-1,0,-5,-1,1,0,-1
1558440481696263,-4,-3,-1,1,-2,-3,-2,-1
1558440481696263,-3,-2,-3,-2,-1,-2,-1,-4
1558440481705244,-2,-1,1,-2,0,1,0,-1
1558440481705244,0,-4,0,0,0,0,1,-1
1558440481728183,0,-2,-2,1,0,-1,-2,0
1558440481728183,0,0,2,-1,-1,0,0,-1
1558440481729176,-1,-1,-1,-1,1,1,0,0
1558440481729176,1,-1,-2,1,0,0,-2,0
1558440481734164,0,-2,-3,-4,-2,-2,-6,-2
1558440481734164,1,0,-1,-1,0,-1,1,-2
1558440481743137,0,0,2,0,-1,0,0,-2
1558440481743137,-1,2,2,-1,0,-1,2,-1
1558440481757111,-3,0,-1,-1,-2,0,-1,-2
1558440481757111,0,-1,-1,-2,-1,2,-1,0
1558440481766077,-1,0,-1,0,0,-2,-1,0
1558440481766077,-2,-1,0,-3,0,-1,0,1
1558440481779042,1,0,0,-2,-1,-4,-1,-2
1558440481779042,1,-3,0,0,1,-1,-2,-1
1558440481788019,-2,-1,-3,-1,0,0,-1,-3
1558440481788019,-1,-2,-1,-1,0,0,0,-2
1558440481802977,-1,0,-1,0,0,-1,0,-1
1558440481802977,-3,-3,-2,-2,-2,-4,-2,0
1558440481804976,0,-2,0,-2,-1,1,-2,-1
1558440481804976,-3,-2,-4,-1,-3,-3,-3,-1
1558440481832902,-2,-1,1,0,-2,1,2,0
1558440481832902,2,0,-1,0,-3,0,0,-1
1558440481834892,-1,-1,-3,-4,-3,-4,-4,-2
1558440481834892,-2,-1,0,1,-2,0,1,1
1558440481855843,0,-2,0,-1,0,-1,0,-1
1558440481855843,-2,0,-2,-1,-1,-1,0,-2
1558440481856833,-1,-3,-4,0,-1,0,1,-1
1558440481856833,2,0,2,-1,0,-1,-1,-2
1558440481862828,-1,-1,-1,-3,1,0,-2,-1
1558440481862828,-2,0,1,-1,-1,-1,-2,0
1558440481864825,-1,-1,-2,0,-3,-2,-3,-1
1558440481864825,-2,-2,-2,-3,-2,0,-1,-2
1558440481876787,1,0,-3,1,2,1,3,1
1558440481876787,-1,-1,-2,-1,-1,-1,-2,0
1558440481885762,0,1,-1,-1,1,-1,1,0
1558440481885762,-1,-3,-2,-2,-1,-1,0,0
1558440481898727,-2,-4,-2,0,-6,-4,-5,-2
1558440481898727,-2,0,0,-1,1,1,2,-2
1558440481907701,-2,-2,-1,-4,-1,-1,0,1
1558440481907701,-1,2,-1,1,0,-2,-1,-2
1558440481929642,-3,-3,-2,-1,-1,-3,-1,-3
1558440481929642,0,-2,0,0,-1,-2,0,-3
1558440481938616,-2,-1,1,-1,-1,0,-2,1
1558440481938616,-4,-2,-5,-1,-3,1,-1,-1
1558440481939613,-2,1,0,-4,0,-2,-2,1
1558440481939613,-2,0,-1,-3,-3,-2,-1,-1
1558440481953575,0,-1,1,2,-1,-3,0,-1
1558440481953575,2,-1,1,-1,0,1,2,0
1558440481959568,1,-1,-1,-2,-2,1,0,0
1558440481959568,-2,-3,-4,-1,-2,-1,-2,2
1558440481968535,-1,-1,-5,-2,-4,-1,-1,-2
1558440481968535,-1,1,1,-3,0,1,-2,-2
1558440481983494,-3,-2,-1,2,2,1,0,-4
1558440481983494,1,0,2,2,0,-1,-1,0
1558440481984492,-2,-1,-1,-2,-1,1,-2,1
1558440481984492,1,0,-2,-3,-2,-4,-1,-2
1558440481996460,-1,1,1,1,-1,0,-2,0
1558440481996460,-2,-2,-3,-4,-1,-3,-2,-2
1558440482011419,1,-1,-2,0,0,-2,-2,0
1558440482011419,-2,0,1,2,1,1,-1,-1
1558440482028374,-2,1,3,-1,0,-1,0,0
1558440482028374,-3,-4,-7,-3,-4,-3,-1,0
1558440482029371,-3,-1,-3,-1,-1,-2,0,-3
1558440482029371,-2,-3,-4,0,-4,0,-2,-1
1558440482058297,0,0,-1,-2,-3,-1,-1,-1
1558440482058297,0,-1,1,-1,0,2,0,-1
1558440482060290,-3,-1,0,2,-1,-3,-2,-1
1558440482060290,0,1,0,-2,-2,1,0,-1
1558440482061286,-1,-6,-5,-1,-2,-2,-1,-1
1558440482061286,0,0,1,1,-2,-1,-1,-2
1558440482065275,0,0,1,-1,0,2,0,0
1558440482065275,-3,-2,2,0,-2,-2,0,-1
1558440482080238,-2,-1,-2,-1,1,0,2,-1
1558440482080238,-3,-3,1,3,0,0,-1,1
1558440482088214,-1,-1,-3,-2,-3,-3,-2,0
1558440482088214,-1,-2,-3,-2,-1,-1,-2,-3
1558440482103174,-1,0,-2,0,-2,-2,-1,0
1558440482103174,-1,-1,0,-1,2,2,1,0
1558440482104172,0,-5,-2,-2,-1,0,-1,-1
1558440482104172,2,0,-2,0,0,-4,-2,-1
1558440482117145,1,1,1,-2,-1,0,0,-1
1558440482117145,0,0,0,-2,1,0,-1,-1
1558440482132099,-1,-3,-2,-1,0,-1,-1,-3
1558440482132099,1,-1,-3,1,1,1,2,3
1558440482139081,-1,0,-1,-3,-1,-1,-2,-1
1558440482139081,0,-2,-2,-1,-1,-5,-2,-2
1558440482156033,-2,-3,0,-2,-1,0,1,-1
1558440482156033,1,2,3,-1,1,1,0,-1
1558440482163014,-2,-1,0,0,-1,1,-1,-4
1558440482163014,-2,-1,-3,0,-4,0,-2,-2
1558440482164012,-2,0,0,0,-1,-2,-1,0
1558440482164012,-1,-3,0,-1,-1,0,-1,-1
1558440482176977,1,0,-1,0,0,-2,0,0
1558440482176977,-1,2,0,-1,0,-2,0,-1
1558440482185953,-1,-2,-1,-3,0,-1,-1,-3
1558440482185953,0,-1,-2,-2,-2,-2,-2,0
1558440482215872,-1,-2,0,1,-1,0,-1,-4
1558440482215872,0,1,-1,-1,1,0,0,-1
1558440482216882,1,-1,0,0,1,0,-2,-1
1558440482216882,-3,-2,-4,-1,-2,-2,-2,-1
1558440482222854,-2,-1,-2,-3,-2,-2,-2,1
1558440482222854,0,-2,-1,-1,-4,-2,-2,-1
1558440482224848,-1,2,-1,-1,0,-1,1,0
1558440482224848,-1,0,1,2,0,-1,-2,-1
1558440482236817,-1,-2,-2,-3,-1,-1,-1,1
1558440482236817,0,-2,1,-2,-1,1,0,-1
1558440482245793,0,0,1,2,1,1,2,-1
1558440482245793,1,-1,2,-4,0,-2,-3,1
1558440482260013,-1,-1,-3,-2,-2,-1,-1,-1
1558440482260013,-1,2,-2,-1,-1,-2,0,-1
1558440482267734,-1,0,-2,-1,-2,-4,-2,-3
1558440482267734,-3,-2,-1,-1,-1,-1,-2,-2
1558440482282693,1,-1,0,-2,1,-1,1,1
1558440482282693,-3,-2,0,1,-1,0,-3,0
1558440482284689,-1,1,-1,-2,-2,1,1,0
1558440482284689,0,-2,-2,-2,-2,-2,0,-2
1558440482296662,-1,-3,-3,1,-3,-3,-3,-2
1558440482296662,0,-1,-1,-3,1,0,2,-1
1558440482305632,0,-1,1,-2,-2,-3,-2,-1
1558440482305632,-1,-2,0,2,-2,0,0,-1
1558440482319596,-1,-2,-2,0,-1,0,-1,0
1558440482319596,2,-1,-1,-2,0,-1,2,1
1558440482327575,-1,-3,-1,-1,-1,-3,-2,-2
1558440482327575,-1,-3,1,0,1,0,-2,-2
1558440482342534,-3,0,0,-2,-2,-2,-1,-2
1558440482342534,-1,1,0,-1,-3,-2,0,2
1558440482344529,0,-1,-1,1,-1,1,-2,2
1558440482344529,-1,-1,-2,-3,-1,-2,0,-1
1558440482356497,-1,-4,-3,-1,-1,0,-3,-2
1558440482356497,1,0,-1,1,1,1,-1,-1
1558440482365472,-2,0,-1,-1,0,-2,1,-2
1558440482365472,-3,-2,-1,-1,-2,1,1,-1
1558440482379437,-1,-2,-1,0,1,-1,0,-1
1558440482379437,-3,0,-5,1,0,1,-2,-1
1558440482388412,0,-1,-2,-3,0,1,-2,0
1558440482388412,-2,1,1,-1,0,2,1,0
1558440482403372,-3,0,-1,2,-3,-5,-4,-2
1558440482403372,-3,-2,-1,-5,-1,-1,-4,-1
1558440482404369,-1,-2,0,-1,-4,0,0,-1
1558440482404369,-4,-3,-2,0,1,-1,-1,-3
1558440482416336,0,-1,-1,-3,-2,0,1,-1
1558440482416336,-2,-3,-2,-1,-1,-1,-2,-3
1558440482425312,-3,-1,-3,0,-2,-2,0,-1
1558440482425312,0,-1,-1,-1,0,0,-1,1
1558440482439278,-3,1,0,-2,0,0,1,0
1558440482439278,-2,0,-1,-1,1,1,0,-2
1558440482448253,-2,-3,-1,1,-1,-2,-5,-2
1558440482448253,0,-2,-2,-4,-4,-3,-1,-1
1558440482463211,0,1,2,-1,1,-3,0,1
1558440482463211,-1,0,-1,0,-1,0,1,0
1558440482464208,-1,1,-1,-2,0,0,2,1
1558440482464208,-1,-1,-2,-3,-1,-3,-3,-2
