timestamp,emg1,emg2,emg3,emg4,emg5,emg6,emg7,emg8
1558440579249643,0,-1,-1,18,-1,0,-3,-1
1558440579249643,-3,0,-1,-4,-1,1,-1,-2
1558440579250642,-1,-2,-3,-15,1,1,2,-3
1558440579250642,-1,-4,-2,13,-2,-6,-5,-2
1558440579251639,-2,-1,2,-4,0,-1,-2,0
1558440579251639,0,-3,-1,-10,-1,0,0,-1
1558440579252635,-1,-2,-3,6,-1,-1,0,2
1558440579252635,-3,0,1,3,0,2,0,0
1558440579263608,-2,-2,-2,-8,-1,-3,-4,-4
1558440579263608,0,0,-2,-2,-1,-1,-1,-1
1558440579268594,-1,-3,-2,8,-4,-6,-4,-4
1558440579268594,-1,1,0,-7,-1,-1,0,0
1558440579279563,-1,0,-3,-11,1,2,2,-1
1558440579279563,-2,0,-1,9,-2,-4,-1,-1
1558440579299511,-1,-1,-2,-1,1,-1,0,-2
1558440579299511,1,-1,-1,-7,-1,-1,-1,-4
1558440579301505,-1,-1,-3,3,-1,-1,0,1
1558440579301505,-1,-2,-1,2,0,1,-1,0
1558440579307490,-1,1,0,-4,-1,0,-1,-1
1558440579307490,0,0,-2,-3,0,-2,2,-3
1558440579322450,0,-1,2,4,-2,0,0,-3
1558440579322450,0,-3,-3,-2,-1,-2,-1,-1
1558440579329430,-2,-3,-1,-5,-2,-2,-4,-2
1558440579329430,-1,0,1,2,-1,-2,-4,-2
1558440579337409,0,0,2,-2,1,0,-1,-3
1558440579337409,-2,0,0,-1,1,-1,0,-2
1558440579384283,-4,0,0,7,0,-1,-3,-1
1558440579384283,-1,-1,-1,-9,1,-2,-4,-2
1558440579385280,1,-2,-4,-5,0,2,3,-1
1558440579385280,-3,-1,-1,12,0,1,-1,2
1558440579385280,-1,-1,0,-8,1,2,-1,0
1558440579385280,1,1,0,-9,-2,1,1,-2
1558440579388272,-1,-1,0,14,-3,-5,-3,-4
1558440579388272,-1,-1,-2,-5,-1,-1,0,-1
1558440579397248,2,0,-1,-8,0,1,1,1
1558440579397248,-2,-4,-3,8,-3,-3,-4,-3
1558440579412208,-2,-1,2,-1,-2,0,-1,1
1558440579412208,1,0,-1,-7,0,-1,1,0
1558440579413207,-3,-1,-2,0,0,-1,0,-2
1558440579413207,-1,2,2,8,-1,-1,-1,1
1558440579426172,-1,-2,-2,-5,1,0,-3,0
1558440579426172,0,-1,-2,-4,-2,0,-1,-3
1558440579435147,-1,0,1,6,-2,-2,-3,-4
1558440579435147,-2,0,0,-3,-1,-2,0,-1
1558440579441131,-3,0,-1,-8,0,-2,-2,-2
1558440579441131,0,2,-1,2,-1,0,0,-1
1558440579457090,0,-3,-2,-3,-2,-4,-2,0
1558440579457090,0,-2,1,-2,0,2,2,-2
1558440579472051,-3,-3,-2,-1,-2,-3,-2,0
1558440579472051,-1,-1,-1,0,0,-4,-3,-2
1558440579474058,-1,-2,1,-3,-2,0,0,-1
1558440579474058,-1,-1,-3,-3,1,0,1,-1
1558440579486012,2,1,1,3,1,1,3,0
1558440579486012,-1,-1,-1,-3,0,-1,0,-2
1558440579502967,-3,-2,-4,-3,-2,-2,-1,-2
1558440579502967,1,-1,0,1,-2,-2,-3,-1
1558440579503964,-2,-1,-1,-2,-1,0,0,0
1558440579503964,-2,-3,1,-2,-2,1,-1,-3
1558440579516956,3,1,1,1,-1,-3,-1,1
1558440579516956,0,-2,-4,-1,0,-1,-3,-1
1558440579522913,0,1,0,-3,-2,-2,-1,-2
1558440579522913,-3,1,-2,-2,-1,0,0,-1
1558440579531889,-1,0,-1,1,-1,-1,2,-1
1558440579531889,-1,1,-1,-2,0,-1,-2,-1
1558440579545887,0,0,-3,-3,0,0,-1,-3
1558440579545887,0,0,1,2,-1,-1,-3,-2
1558440579554827,0,0,-1,-1,-1,1,-1,-2
1558440579554827,1,-2,-1,0,-2,-3,-2,-1
1558440579560811,-2,-1,0,-1,-2,-2,-2,-1
1558440579560811,-3,-1,-1,-1,1,-2,-1,0
1558440579578207,-1,-3,1,-2,1,-1,1,-2
1558440579578207,-1,-2,-4,-1,-2,1,1,-2
1558440579583750,2,1,2,1,-2,-2,-2,1
1558440579583750,1,-2,-1,-2,-2,0,0,1
1558440579592726,-1,1,-3,-3,-1,1,-3,0
1558440579592726,-1,-1,-1,-1,-1,-2,0,0
1558440579605693,-1,-3,-3,-2,-1,0,0,-2
1558440579605693,-1,-2,-3,-1,-1,-1,-1,-1
1558440579614667,0,2,-2,2,0,-2,-2,-1
1558440579614667,-1,-1,-1,-1,-2,-2,-1,0
1558440579620654,-1,-1,0,-3,-1,-1,-2,-1
1558440579620654,0,-1,0,-2,-3,-2,-2,-3
1558440579637607,-1,-2,0,-1,-1,0,0,0
1558440579637607,-1,-1,-1,-3,0,-1,-2,0
1558440579643590,-1,-3,-2,0,-1,-1,-2,0
1558440579643590,-2,0,-2,1,0,-2,0,1
1558440579652567,1,-1,0,-1,0,1,1,-1
1558440579652567,-1,0,-1,-1,-1,-1,-1,0
1558440579674507,-2,-1,-1,0,-1,0,1,-3
1558440579674507,-1,0,-4,-3,-1,1,-1,-1
1558440579676502,-2,-1,-1,-1,-2,-1,-2,-1
1558440579676502,1,-1,1,1,-2,0,0,-2
1558440579680490,-1,1,-1,-1,-1,0,-1,0
1558440579680490,-1,-3,-1,0,-1,-3,-4,-2
1558440579705424,1,-1,-2,-2,-2,-3,0,-1
1558440579705424,-3,-3,-2,-1,1,-1,-1,-1
1558440579706422,0,2,-1,-3,0,-3,-4,-3
1558440579706422,1,-1,2,-1,1,-1,-1,0
1558440579712407,-3,-2,-2,0,-3,-5,-2,-2
1558440579712407,1,0,1,-2,0,-1,1,0
1558440579726369,-2,-3,-1,2,-1,0,0,-1
1558440579726369,-2,3,-1,-1,-2,-1,-1,0
1558440579734349,-2,-1,-2,-3,-1,1,-3,-1
1558440579734349,2,-1,-3,-2,-1,2,-1,-1
1558440579748314,-1,-1,-1,-3,-2,-1,0,-2
1558440579748314,-1,0,-2,-2,-1,1,0,0
1558440579765264,-2,-1,-1,-2,-2,-2,1,-3
1558440579765264,-3,0,0,-1,1,-1,1,0
1558440579766261,1,-2,-3,0,0,0,-2,0
1558440579766261,-1,-2,-1,-1,1,1,-3,-3
1558440579780241,0,-1,0,-2,-2,0,-2,-1
1558440579780241,-2,0,-3,1,-1,-1,-1,-2
1558440579786209,-2,0,-1,-2,-3,0,-1,1
1558440579786209,0,-1,-1,-2,-1,-5,-3,0
1558440579802166,-1,0,-1,-1,1,0,0,0
1558440579802166,0,-1,-2,-1,-2,-3,-1,-3
1558440579808150,-2,1,0,-1,1,3,2,2
1558440579808150,-1,0,1,1,-1,0,-1,0
1558440579817125,0,0,0,2,0,0,-1,-1
1558440579817125,-2,-2,-1,-2,-1,0,-3,-1
1558440579832086,-3,-1,-2,0,0,-2,-2,-2
1558440579832086,0,-1,-2,-3,-2,-4,-1,0
1558440579834080,1,1,-1,-1,1,0,1,2
1558440579834080,-2,0,-1,-1,0,-2,-1,-2
1558440579855038,-1,0,-2,-1,-2,-3,-2,0
1558440579855038,0,0,0,2,0,2,2,-1
1558440579856022,-1,-2,-2,-2,-3,-2,-3,-2
1558440579856022,1,0,-1,-1,-3,0,-1,1
1558440579876966,-1,0,1,0,-2,0,2,-3
1558440579876966,0,-2,0,-2,-1,-1,0,-2
1558440579878962,-2,-1,-1,-2,0,-1,0,-1
1558440579878962,-2,-1,3,1,0,-1,-3,0
1558440579882951,0,-2,-3,-5,-2,1,-2,-2
1558440579882951,-2,1,1,-2,1,1,-2,-1
1558440579891928,0,0,1,0,0,-2,0,1
1558440579891928,-2,-3,-5,-1,0,0,-2,-3
1558440579905888,-1,-1,-1,0,0,-1,1,-1
1558440579905888,-2,-1,-3,-1,-3,-2,-2,-2
1558440579914871,-1,-2,0,0,1,1,1,1
1558440579914871,1,-1,-4,-2,-3,-2,-1,0
1558440579928826,1,0,3,0,0,0,0,0
1558440579928826,-3,-3,-3,0,-2,-4,-4,-2
1558440579936806,-2,-1,-1,-3,-1,-1,0,1
1558440579936806,-1,0,1,-1,-2,-1,1,-1
1558440579951766,-2,-1,-2,-3,0,-2,-2,-3
1558440579951766,1,-1,0,-1,0,2,1,2
1558440579953760,-1,-1,-1,-1,-2,-1,-2,-1
1558440579953760,-1,0,0,-3,-2,-4,-5,0
1558440579965727,1,-2,-1,1,-1,-1,-1,-1
1558440579965727,-2,-1,-3,1,0,-1,-1,-4
1558440579982684,-1,1,0,-2,-1,0,-1,-2
1558440579982684,-1,0,2,0,-1,-2,0,1
1558440579988667,-2,-2,-1,-1,0,-3,-4,0
1558440579988667,2,0,1,-1,0,2,0,2
1558440580005621,-2,-1,-3,0,-2,0,0,-1
1558440580005621,-1,0,-2,-1,-2,1,2,1
1558440580006619,-1,-1,-1,-2,-2,0,1,0
1558440580006619,-1,0,-2,-2,0,0,-1,-1
1558440580026566,-4,-2,-3,-1,0,-1,-2,-1
1558440580026566,-1,0,1,-3,0,-2,-3,0
1558440580027563,-2,0,0,0,-1,0,-2,0
1558440580027563,-1,-2,-1,-2,-3,-3,-1,-2
1558440580034544,0,-1,0,-1,-2,-1,-1,-2
1558440580034544,-1,-1,-2,0,2,1,3,-2
1558440580057483,-1,-3,-1,-1,0,1,-1,-1
1558440580057483,0,0,0,-3,-3,-3,0,-3
1558440580058480,-1,-1,-1,-1,0,-1,-1,0
1558440580058480,-2,-1,0,1,1,3,0,-1
1558440580063529,-1,0,1,0,0,0,0,0
1558440580063529,-1,-1,-5,-2,-3,-3,-3,0
1558440580079424,1,-1,0,-2,-1,-1,0,-3
1558440580079424,-1,0,-1,1,-1,2,-1,-3
1558440580085408,0,1,0,-3,-1,-2,-2,-1
1558440580085408,-2,-2,-4,-2,-1,0,-3,-2
1558440580094385,3,2,-1,1,0,-4,0,0
1558440580094385,-2,-2,-2,0,5,2,0,-1
1558440580108348,-1,-2,-2,-3,-2,-3,-1,-1
1558440580108348,-1,-2,1,0,0,-1,-1,-1
1558440580117322,3,-1,1,-2,-4,-2,-4,0
1558440580117322,0,-1,-4,-3,-3,-3,-2,-1
1558440580131285,-1,0,-1,-1,-1,-1,1,-1
1558440580131285,-1,1,1,0,0,-2,-1,0
1558440580138266,-2,0,-2,-2,-2,-1,0,-1
1558440580138266,1,0,2,-1,-2,0,0,0
1558440580155225,0,-2,-2,-1,-2,-3,-3,-3
1558440580155225,0,-2,1,-1,-1,1,-1,-2
1558440580156219,-1,-2,0,-1,-1,0,0,-1
1558440580156219,-1,-2,-1,1,0,-2,-1,-1
1558440580168191,-2,-3,-2,1,-2,1,1,-1
1558440580168191,0,1,-1,-1,0,1,0,2
1558440580185147,-1,-2,-2,-2,1,-1,-4,0
1558440580185147,1,1,0,2,-1,-5,-5,-1
1558440580186140,2,1,-1,-4,-2,0,-1,-1
1558440580186140,-3,-4,0,-3,-1,-3,0,-1
1558440580206087,-3,-1,-4,1,1,0,0,-2
1558440580206087,-1,1,1,-1,-1,2,0,-1
1558440580207085,-1,0,-3,0,0,-2,-3,-1
1558440580207085,-1,-1,-1,-2,0,0,-3,-3
1558440580215066,-1,0,0,0,1,-4,0,1
1558440580215066,-2,-4,-1,-3,-1,-1,-1,-3
1558440580237003,-2,0,0,-1,0,0,0,-1
1558440580237003,1,0,-1,0,-1,2,1,-1
1558440580238998,-2,-3,0,-3,-1,-2,0,-2
1558440580238998,0,-1,0,-2,-2,-2,0,-1
1558440580243986,1,-1,-1,0,-1,-1,-2,-1
1558440580243986,-1,-1,-2,1,-2,-2,-2,0
1558440580257947,1,0,1,-1,1,1,1,1
1558440580257947,0,0,1,-2,-3,1,-1,0
1558440580265925,-1,-3,-3,1,-1,-3,-3,-1
1558440580265925,-2,-1,-1,-1,-2,3,-1,-2
1558440580275899,2,-2,0,-1,-3,1,-2,-1
1558440580275899,-2,-1,0,-1,0,-3,0,-2
1558440580288867,-2,-1,-2,-2,-2,-2,-1,-3
1558440580288867,-1,-2,-2,-2,0,-1,0,0
1558440580311807,-3,-2,-3,-1,-4,-6,-5,-2
1558440580311807,-3,-1,-2,-2,1,2,0,1
1558440580312802,-1,1,1,0,1,1,-2,0
1558440580312802,-1,-1,0,-4,-1,-2,0,-1
1558440580318785,0,0,0,1,-1,-1,2,-2
1558440580318785,1,-3,-3,-2,-2,-3,-1,0
1558440580325766,-3,-2,-3,-3,-1,-2,-1,-1
1558440580325766,0,-2,-1,0,-1,0,0,0
1558440580334741,-2,-1,0,-2,-2,-1,-2,-1
1558440580334741,-1,-2,-2,-3,-3,1,-1,-2
1558440580357684,-1,1,0,0,-2,-2,-5,-1
1558440580357684,-2,2,-3,-3,-1,-3,-2,-2
1558440580358683,1,-1,-1,-1,2,0,0,1
1558440580358683,0,-1,0,0,1,1,1,-1
1558440580371648,0,-1,1,0,0,0,0,1
1558440580371648,-2,-1,-1,-2,-1,-1,-4,-3
1558440580378666,-4,-1,-2,-3,-4,-1,-1,-1
1558440580378666,-2,0,-1,1,-1,-2,-5,-1
1558440580394623,0,-2,0,-2,-1,0,0,-3
1558440580394623,-1,0,1,-1,-1,-3,-3,-2
1558440580396585,2,-1,-2,1,1,1,0,-1
1558440580396585,-1,0,-2,-3,0,-2,-2,1
1558440580408547,0,1,-2,1,-2,-3,-1,3
1558440580408547,-1,-1,-1,-1,0,1,0,1
1558440580417527,-2,-1,-3,1,-2,-1,0,-1
1558440580417527,0,0,-1,-3,-1,-3,2,1
1558440580431484,-3,-3,-2,-1,0,-3,-1,-1
1558440580431484,0,-1,2,2,0,1,2,2
1558440580438472,-2,2,3,-1,-3,-1,-5,1
1558440580438472,0,-2,-1,-1,-4,0,-2,-1
1558440580462400,1,0,-2,0,-2,-2,-2,-1
1558440580462400,2,0,-1,-1,1,0,0,-2
1558440580463399,-3,-3,-2,-3,0,-1,-2,-3
1558440580463399,-3,1,-2,0,-2,-6,-3,-2
1558440580468420,0,1,0,-4,1,0,-2,-2
1558440580468420,-1,1,-1,1,1,2,2,2
1558440580485341,0,-3,-4,-3,-2,0,3,1
1558440580485341,-1,1,2,2,-1,-1,1,-1
1558440580491323,-1,1,-3,-3,-3,-1,0,-3
1558440580491323,-1,-1,-2,-2,-3,-6,-3,0
1558440580515404,-2,-1,-1,-1,-1,-3,-3,-3
1558440580515404,2,-1,1,-1,-1,0,1,0
1558440580516257,-2,-4,-1,-2,-1,-1,-3,-2
1558440580516257,2,-1,0,-3,-1,-1,-2,0
1558440580517259,0,-2,-2,1,0,0,-2,0
1558440580517259,0,-2,-1,-4,-2,-1,-4,-1
1558440580537344,-2,0,0,0,0,2,0,-2
1558440580537344,-5,-4,-1,2,-1,-1,-4,-2
1558440580539223,1,0,-1,-5,-1,-1,2,-3
1558440580539223,0,-1,-1,-1,0,0,-2,1
1558440580560254,-1,0,-1,-1,-1,0,1,2
1558440580560254,-2,-1,0,-1,-2,-4,-3,0
1558440580561137,-2,0,0,0,-2,-2,-1,-1
1558440580561137,-3,-1,-3,0,0,-2,0,-3
1558440580590060,-1,-3,-1,-1,-3,0,1,0
1558440580590060,0,-3,-2,-2,0,0,0,1
1558440580592056,0,-1,0,0,-1,-3,-4,0
1558440580592056,0,-1,-2,-2,-1,-3,0,-2
1558440580593051,-2,-1,-1,0,1,0,-1,-1
1558440580593051,-1,-2,-1,-2,-2,-2,-4,-5
1558440580597040,-1,1,-2,2,1,1,2,1
1558440580597040,-2,-1,-1,0,-2,-1,-1,-2
1558440580612000,1,0,-2,-1,-1,-2,2,0
1558440580612000,1,-1,-2,-1,-2,-2,-1,-3
1558440580617984,-1,-4,-1,0,-1,-1,-1,-2
1558440580617984,-4,-1,-2,-5,1,1,1,-1
1558440580634945,0,0,1,1,-1,-2,-2,0
1558440580634945,-3,-1,-2,-3,-3,1,0,1
1558440580635936,-1,-1,-3,-2,-3,1,-2,-3
1558440580635936,-2,-4,-2,-2,-2,1,-1,-4
1558440580647904,-2,0,-1,0,-2,-5,-2,-1
1558440580647904,-1,0,-2,-1,0,0,1,0
1558440580656879,1,0,0,-1,0,0,-2,-1
1558440580656879,-2,-1,1,0,-1,0,0,-1
1558440580671839,0,2,0,0,0,0,0,0
1558440580671839,-1,-1,-2,-2,-1,-2,-2,-1
1558440580685802,-2,0,1,0,1,0,1,1
1558440580685802,-1,-2,-5,1,-1,-3,-5,-4
1558440580694778,-1,-4,-1,-2,-1,2,-3,-2
1558440580694778,-1,-2,1,-2,-2,-1,2,0
1558440580695775,0,-2,-1,0,-3,-2,-2,0
1558440580695775,-2,-3,1,-2,-2,-3,-1,-1
1558440580708739,-1,0,-4,-3,1,0,1,-2
1558440580708739,0,-2,-3,-1,-1,-4,-3,-2
1558440580717718,-2,0,2,1,1,1,1,0
1558440580717718,-2,-1,-2,-3,-3,-3,-1,0
1558440580739667,-1,0,-1,-3,-3,1,-2,-2
1558440580739667,1,0,2,2,1,2,2,1
1558440580740658,-2,-3,-4,-2,-4,-3,-3,-2
1558440580740658,2,0,-1,-1,0,0,-2,0
1558440580762616,-1,-3,-1,0,-3,-2,-1,-1
1558440580762616,-3,1,-2,-1,0,-1,-2,0
1558440580763597,0,0,-1,-2,0,1,-3,0
1558440580763597,-1,-1,-2,-2,-3,-1,0,-1
1558440580768706,-2,-3,-1,0,-1,-1,-1,-2
1558440580768706,-1,-2,-2,-2,-2,-4,-2,-2
1558440580784820,0,-2,-1,-3,0,-3,-1,0
1558440580784820,1,0,0,2,1,2,2,0
1558440580791524,0,-1,-1,-2,1,-1,-2,-2
1558440580791524,-1,-1,-3,-1,0,1,-1,-2
1558440580798722,-2,0,0,0,1,0,0,-2
1558440580798722,-2,0,-1,-1,0,-2,-1,-1
1558440580814605,-2,-1,2,0,-3,-3,1,0
1558440580814605,-1,0,0,-1,-3,-2,-2,-1
1558440580816454,-1,-2,-2,-2,-2,-1,-2,-2
1558440580816454,-3,-1,-1,0,1,-4,0,1
1558440580837440,1,-2,-1,0,1,3,2,0
1558440580837440,-3,-2,-1,0,-2,-1,-4,-1
1558440580838397,-1,1,-2,-4,-2,1,-1,-2
1558440580838397,-1,0,-1,-3,0,-4,-1,0
1558440580859339,-2,-3,-2,-1,-4,-4,-5,-2
1558440580859339,-2,-1,0,0,0,0,0,0
1558440580861335,-2,-1,1,0,0,1,-1,0
1558440580861335,-1,-3,-3,-1,-1,1,-1,-1
1558440580874300,-1,-2,-3,-2,-1,-2,0,-3
1558440580874300,1,1,1,-2,0,0,0,0
1558440580876293,-1,0,1,0,-2,-5,-2,-2
1558440580876293,0,-1,-3,0,-1,0,-2,-1
1558440580888261,1,-1,0,-2,-1,-4,-2,2
1558440580888261,-2,-3,-3,0,0,2,1,-2
1558440580897245,0,-1,-2,0,-1,0,-1,-1
1558440580897245,0,-1,2,-2,-1,1,0,1
1558440580911567,0,1,0,-1,1,1,-1,-1
1558440580911567,1,-1,-1,0,-1,-5,-2,-2
1558440580920176,0,-1,-3,-2,-1,-1,0,-2
1558440580920176,-2,-1,-2,-2,0,2,0,-3
1558440580934140,-6,-2,-3,0,-4,-5,-3,-2
1558440580934140,-1,1,0,0,0,1,1,0
1558440580949097,-2,-3,-3,-2,0,1,0,-1
1558440580949097,1,-2,-1,-3,-2,-3,-2,-1
1558440580950541,0,0,1,2,-2,-1,-1,0
1558440580950541,-1,0,-4,-3,-3,-3,-3,-1
1558440580963061,2,-4,5,-1,0,0,0,1
1558440580963061,-1,-2,0,0,-1,-1,-2,2
1558440580971359,-2,-1,-1,-1,1,1,-1,0
1558440580971359,0,-1,1,-2,-2,-1,1,0
1558440580987311,-3,-2,-4,-3,0,1,1,0
1558440580987311,-1,1,-1,2,0,-1,0,0
1558440580993989,-1,0,-1,-3,0,0,-2,-1
1558440580993989,2,0,0,-2,0,0,0,0
1558440581000990,0,-2,-2,0,-1,-3,-2,-2
1558440581000990,0,-3,-2,-3,-3,0,-1,-1
1558440581007944,2,-2,-3,-1,-2,-3,0,-2
1558440581007944,-2,-2,-4,2,-1,-2,-2,-1
1558440581016919,-1,0,-1,-1,-1,-2,-2,1
1558440581016919,-2,0,1,-1,1,0,0,0
1558440581039854,-2,2,0,-1,0,-1,0,-2
1558440581039854,-2,-1,0,0,-2,-1,-2,-1
1558440581040856,-2,-2,-3,-1,-2,-1,1,-1
1558440581040856,0,-2,-2,-2,-1,0,0,-4
1558440581062147,-1,-3,0,1,1,0,-1,-1
1558440581062147,-3,-2,-2,-4,-2,-1,-2,-1
1558440581063792,-1,2,-3,-2,0,0,-1,0
1558440581063792,-1,-1,-1,1,0,-1,-1,-1
1558440581069141,0,-1,-1,-1,-2,-2,0,-1
1558440581069141,1,-3,-1,-1,-2,1,0,-2
1558440581076756,1,0,1,-2,0,0,0,-1
1558440581076756,-1,-2,-1,0,-3,-6,-5,-2
1558440581090719,0,0,0,-3,0,1,-1,0
1558440581090719,0,-3,0,1,0,1,0,-1
1558440581099695,0,-1,0,-2,-3,-6,-2,-2
1558440581099695,1,-1,0,-3,-2,-3,1,1
1558440581114950,-4,-3,-2,-2,-3,-2,-1,-1
1558440581114950,0,0,-1,2,1,1,-1,-1
1558440581121685,-2,-1,-2,1,0,0,-1,-1
1558440581121685,-1,0,0,0,2,0,-1,-1
1558440581136960,-2,-3,-1,0,-3,-1,-2,-2
1558440581136960,-1,0,1,0,0,-1,-3,-1
1558440581144782,0,-1,-4,-2,-1,-2,-2,1
1558440581144782,-1,-3,-2,-1,-3,-2,0,-3
1558440581151651,-1,0,-1,1,2,4,4,1
1558440581151651,-2,0,0,-1,-2,-1,1,1
1558440581167514,1,0,1,-1,-4,-2,-1,1
1558440581167514,-3,-2,-1,0,-2,-4,-3,-2
1558440581174496,1,-1,0,-2,0,-1,-3,-3
1558440581174496,-1,-4,-3,-4,0,0,-2,0
1558440581181533,1,0,-2,0,0,-1,2,-2
1558440581181533,0,0,-2,1,-1,-1,-1,2
1558440581197604,-2,1,-1,-2,1,0,0,0
1558440581197604,-4,0,0,-3,0,-4,-4,-1
1558440581198436,-4,-2,-3,0,-1,1,-1,-3
1558440581198436,1,-1,1,-3,0,1,0,-1
1558440581211554,2,0,-2,-2,0,-1,-1,-1
1558440581211554,-1,-2,-2,0,-1,-1,2,0
1558440581219618,0,-1,-1,-1,0,-4,-1,-3
1558440581219618,-2,0,0,-2,0,0,2,-1
1558440581234343,0,-3,-2,-1,-4,-1,-2,0
1558440581234343,-2,-1,0,1,0,1,-1,-1
1558440581240330,-3,0,-4,-3,-4,-4,-4,-1
1558440581240330,-2,0,2,-1,3,1,2,1
1558440581265461,-1,-1,-1,2,-1,-2,0,-2
1558440581265461,0,-1,-1,-1,-1,0,-1,-2
1558440581266254,-2,-5,-1,-1,-3,-2,-2,-3
1558440581266254,1,-2,-2,-1,-2,-2,0,0
1558440581271475,-2,-1,0,-1,-2,-3,0,1
1558440581271475,1,-1,0,-1,-2,-2,-1,0
1558440581280213,0,2,1,-1,-1,-1,-4,-1
1558440581280213,-1,0,-1,-1,-3,0,-3,-2
1558440581294176,-1,-1,-3,-2,1,1,-1,-2
1558440581294176,-2,-1,-2,-2,-3,-4,-2,-1
1558440581301189,0,-3,0,-1,2,2,-1,0
1558440581301189,-2,-2,-3,-3,-1,0,-2,-1
1558440581317116,0,-1,1,-1,-2,-2,-2,1
1558440581317116,1,-1,-1,-1,0,0,-1,-1
1558440581319348,0,1,1,0,-1,4,2,2
1558440581319348,-5,0,-1,1,-1,-1,-2,-3
1558440581340052,-1,-3,-1,-1,-3,-1,0,0
1558440581340052,0,0,0,-1,1,-2,0,0
1558440581341049,0,-1,1,-2,-2,-3,-1,0
1558440581341049,1,0,-1,-2,-2,0,-1,-1
1558440581354353,-1,0,0,2,1,3,1,0
1558440581354353,-3,-2,-3,0,-1,-1,-1,-5
1558440581369180,1,0,-1,-2,-2,-1,1,-4
1558440581369180,-1,0,2,3,1,-2,-1,-1
1558440581377300,0,-2,-2,-3,-4,-3,-1,-2
1558440581377300,0,-2,-1,-2,-1,-2,-1,0
1558440581378950,-1,0,-3,0,2,1,3,0
1558440581378950,-1,-3,-2,-1,-2,-3,-2,-1
1558440581390914,-1,-1,-1,-1,-2,-1,-1,0
1558440581390914,-2,2,0,-1,0,2,-1,-1
1558440581399893,0,0,0,1,-5,-5,-2,-2
1558440581399893,0,0,-1,-1,0,-1,-5,-2
1558440581414191,-2,-1,-3,1,2,1,1,-1
1558440581414191,-1,-1,0,3,0,-2,0,0
1558440581421184,-1,-2,-1,-2,0,1,1,1
1558440581421184,2,-3,-2,-2,-1,-2,2,0
1558440581445085,-1,0,0,-1,-1,-4,-1,0
1558440581445085,0,0,3,0,1,2,0,-1
1558440581445771,-1,-1,0,-2,-1,0,-3,-1
1558440581445771,-2,-1,-1,0,-2,-2,-3,-1
1558440581451231,1,-1,-2,-1,-2,-1,-2,-2
1558440581451231,0,-1,-3,-1,-2,-2,0,1
1558440581467195,-3,-1,-1,-1,2,1,1,0
1558440581467195,-2,-1,-1,0,-2,-2,-2,-2
1558440581473835,-3,-1,0,-2,0,-1,-1,-2
1558440581473835,-1,0,0,-2,-2,-4,-2,-2
1558440581481117,1,1,0,-3,-3,-3,-1,1
1558440581481117,-4,-3,-5,-2,-3,-2,-1,-2
1558440581498075,-1,0,-1,-1,2,1,-1,0
1558440581498075,-1,-1,-2,-2,-2,-2,1,-1
1558440581498769,0,-2,0,4,1,0,-2,-1
1558440581498769,3,1,1,-2,-1,2,1,1
1558440581510762,1,0,-1,-2,-2,-2,-3,-3
1558440581510762,-1,-2,-1,0,-1,1,1,-1
1558440581519897,-3,-1,-1,-1,-2,-2,-1,-1
1558440581519897,-1,-1,0,0,1,0,-1,1
1558440581542878,0,-2,0,-1,-3,-5,-3,1
1558440581542878,-1,0,-2,-1,-2,-2,-2,0
1558440581543647,-1,-2,-1,-2,1,-1,0,-4
1558440581543647,0,-2,0,-3,1,-1,-1,-1
1558440581557610,-1,-1,-2,1,-2,0,-1,0
1558440581557610,-1,-4,-1,-3,-1,0,-1,0
1558440581558607,-1,-1,-2,1,0,0,0,-1
1558440581558607,-1,0,-2,0,1,-1,1,-3
1558440581571719,-2,1,3,0,1,-3,-1,-1
1558440581571719,-2,-1,0,-2,-4,-4,-5,-3
1558440581579552,-1,-2,0,0,-1,1,1,0
1558440581579552,-1,0,-2,0,-1,-1,-3,-2
1558440581594510,-3,0,-2,-2,0,1,1,0
1558440581594510,0,0,1,-1,0,0,0,0
1558440581601634,-4,-2,-3,0,-2,-4,-4,-3
1558440581601634,-1,1,0,-3,-3,1,1,1
1558440581617774,-1,-1,0,-1,0,1,-1,-2
1558440581617774,0,1,-2,-1,-1,-1,0,-1
1558440581618447,1,0,-1,0,1,2,2,2
1558440581618447,-3,-4,-2,-2,-1,-2,-3,-2
1558440581631533,-1,-2,-1,1,-1,-2,0,-1
1558440581631533,-2,-4,-5,-1,-3,-2,-1,-3
1558440581639390,1,0,0,0,-1,-1,2,1
1558440581639390,-1,0,-1,-1,-1,1,0,-1
1558440581654668,-1,-1,-2,0,-2,-3,-5,-3
1558440581654668,1,1,0,-1,1,2,1,1
1558440581668628,-2,-2,-1,-3,-1,1,0,-2
1558440581668628,0,-1,-1,-1,-1,-2,1,-1
1558440581677602,1,-2,0,-3,-2,0,0,-3
1558440581677602,0,0,1,-1,0,1,-1,-1
1558440581678532,0,-1,0,-2,-2,-5,-3,0
1558440581678532,-2,0,1,0,1,0,-1,0
1558440581700533,-2,0,0,-1,1,1,-1,-2
1558440581700533,-1,0,-1,-1,1,0,0,-1
1558440581701229,-2,1,-1,0,-1,1,-1,-2
1558440581701229,-1,-4,-1,-4,-4,-5,-1,-2
1558440581722522,0,-1,-1,-2,-1,-1,-3,-1
1558440581722522,-2,-2,-2,0,-2,0,-1,0
1558440581723168,-3,-2,0,-2,2,2,-1,-3
1558440581723168,-2,-1,-2,-1,0,-2,-2,1
1558440581745466,-1,-1,-4,-2,-2,-2,0,0
1558440581745466,1,-1,0,-1,-2,0,-2,-2
1558440581746106,-2,-1,-4,-3,-2,-8,-5,-2
1558440581746106,0,-1,0,1,2,2,1,-1
1558440581751479,0,0,-1,1,-2,-2,0,-1
1558440581751479,-1,-1,-2,-3,-1,-2,0,-1
1558440581760068,0,-1,-3,-1,-2,-3,-1,-2
1558440581760068,0,0,-1,3,-1,2,-1,0
1558440581774031,-2,0,-2,-2,-3,-5,-3,-2
1558440581774031,-1,-1,-1,-1,-1,-2,0,-1
1558440581781412,-2,1,-1,2,0,-1,-1,-1
1558440581781412,-2,0,1,-1,0,1,-1,0
1558440581797966,1,-2,-4,-2,-3,-1,0,1
1558440581797966,-1,-2,0,-2,-1,-2,-1,-2
1558440581799357,-2,-2,-1,1,-1,-1,-2,0
1558440581799357,-1,-1,-2,-3,-2,-2,0,-1
1558440581811330,0,-1,0,1,1,2,-1,-2
1558440581811330,2,0,-1,2,-2,-3,-5,-1
1558440581819909,-1,-1,-1,-1,0,2,1,0
1558440581819909,-2,-4,-2,-2,-2,0,-1,-2
1558440581834686,1,-4,0,-1,-2,-2,0,0
1558440581834686,1,2,-1,-1,-1,-3,-2,-2
1558440581840298,0,-2,1,-1,-1,-1,1,-2
1558440581840298,-1,-1,-3,-3,-3,-2,-1,-2
1558440581857254,-1,-2,1,0,3,1,0,-2
1558440581857254,-2,-3,-4,-1,-2,-4,-2,-3
1558440581858249,-1,-1,-2,-4,-5,-2,-2,-1
1558440581858249,1,1,2,2,-2,-1,1,0
1558440581871475,-2,0,-4,-3,-3,-1,-2,0
1558440581871475,-1,-2,-1,-1,0,2,-1,0
1558440581879229,-2,-2,-1,0,-3,-2,0,-1
1558440581879229,-1,1,-2,0,1,0,1,-1
1558440581894184,1,-1,0,-1,1,2,2,1
1558440581894184,-2,-2,-1,-1,2,-1,-1,0
1558440581908115,-1,-2,-2,1,1,0,-1,0
1558440581908115,1,-1,-1,-2,-2,-7,-5,-1
1558440581925386,-2,-1,0,0,0,1,1,-1
1558440581925386,-1,0,0,3,-2,1,2,1
1558440581926071,-3,-2,-5,-3,-3,-5,-5,-4
1558440581926071,-2,-3,-1,0,-2,-4,-1,0
1558440581931058,0,-3,-3,1,3,5,2,0
1558440581931058,-1,-3,-1,-1,-1,-3,-2,-2
1558440581956116,1,0,-1,-1,-1,4,1,-1
1558440581956116,0,1,0,-3,-1,-2,-3,-1
1558440581956986,-1,0,3,0,-2,-2,0,-1
1558440581956986,-3,-1,-3,-4,1,2,0,-1
1558440581968982,0,0,-1,-2,-2,-3,0,1
1558440581968982,-2,-1,0,0,1,3,-1,0
1558440581977275,-1,-1,-1,-2,-2,-3,-3,0
1558440581977275,-1,-2,-4,-2,-2,-5,-2,0
1558440581984150,0,-1,-1,3,0,0,0,1
1558440581984150,0,-1,-2,0,1,2,0,-3
1558440581991180,-2,-2,-1,-1,2,1,1,-1
1558440581991180,-2,0,-1,-1,0,1,1,0
1558440581999873,-1,0,-1,-4,-3,-7,-4,-1
1558440581999873,0,-2,-1,-4,-1,3,1,1
1558440582022812,-2,-3,-4,-2,-2,-4,-4,-4
1558440582022812,-1,-1,2,1,-1,0,-1,-1
1558440582023807,-1,-1,-2,0,1,-1,0,0
1558440582023807,-1,0,-1,1,-3,-3,0,0
1558440582036772,0,-1,-1,0,-3,-2,-2,-1
1558440582036772,-2,-1,1,-1,0,-1,-3,1
1558440582044083,0,-2,2,-3,2,4,4,-1
1558440582044083,0,-1,-2,0,1,-4,-2,-2
1558440582051037,0,-1,-2,-1,-3,-3,-1,-1
1558440582051037,-2,0,0,-2,-1,0,2,-3
1558440582059711,-3,-3,-1,-1,1,1,-2,-2
1558440582059711,-1,-1,-2,-1,-2,0,-2,-2
1558440582073673,0,-1,0,0,0,-1,-1,1
1558440582073673,0,-2,1,-1,-1,-1,-2,-1
1558440582080683,-1,-2,-3,-2,0,0,-2,-1
1558440582080683,-1,0,-2,-2,-1,-2,1,-2
1558440582096610,0,3,1,-2,-1,-2,-1,0
1558440582096610,-3,-1,-2,-1,-2,-1,0,1
1558440582110573,0,1,1,2,-1,-1,0,0
1558440582110573,-1,-1,-3,-4,-2,0,-3,0
1558440582127563,-2,-1,-3,-2,0,-2,-1,1
1558440582127563,-1,-3,-1,-2,-1,-3,-3,-3
1558440582128527,-1,1,1,-1,-1,-2,0,0
1558440582128527,-1,0,1,-1,1,-1,-4,-1
1558440582133512,0,-1,3,2,-1,3,1,1
1558440582133512,-3,-5,-3,0,-2,0,-2,-3
1558440582148472,-2,-2,-2,-2,-1,0,-3,-3
1558440582148472,2,0,-2,-1,-3,1,1,0
1558440582156476,-1,-1,-1,-1,-2,-4,-4,0
1558440582156476,0,2,2,1,1,1,2,2
1558440582171676,-1,-4,-4,-3,-3,-1,-1,-2
1558440582171676,-2,-2,-1,-1,0,0,-1,-2
1558440582179583,-4,-3,-7,-5,-2,-1,-4,-2
1558440582179583,1,0,0,-1,-1,-5,-2,-1
1558440582181386,-2,-1,-1,1,2,3,1,1
1558440582181386,-4,-2,0,-1,-1,-2,2,0
1558440582202670,0,2,1,1,2,4,2,-1
1558440582202670,-2,0,-3,-1,-2,0,-1,0
1558440582204398,-2,0,-2,2,-1,-4,-3,-1
1558440582204398,-3,-5,-2,-3,-4,-7,-4,-3
1558440582217400,-2,-1,0,-1,0,-2,-2,-1
1558440582217400,-1,-1,-2,0,2,2,-2,-1
1558440582223272,0,-1,-2,-2,-2,0,0,0
1558440582223272,-1,-1,0,-1,0,0,0,1
1558440582256189,-2,-3,-1,0,-5,-5,-2,-4
1558440582256189,2,-3,-5,-4,-3,1,-1,-1
1558440582257181,0,-1,0,-1,-1,0,1,-1
1558440582257181,-2,-1,-2,-2,-2,-2,-5,-2
1558440582258178,1,0,1,-1,-1,1,-1,-3
1558440582258178,0,-1,2,0,2,2,3,0
1558440582262312,-1,0,-3,-3,-2,0,-1,0
1558440582262312,1,1,0,2,0,4,2,0
1558440582277303,2,0,0,-3,-1,-2,1,-1
1558440582277303,-3,-3,-3,-2,-1,-2,-4,-3
1558440582284142,-1,0,-1,0,0,-4,0,-1
1558440582284142,-3,-2,-1,-2,0,-1,-1,-3
1558440582300066,-1,0,0,0,1,-2,0,0
1558440582300066,-1,-1,-2,0,-2,-1,0,-3
1558440582301065,0,0,3,2,-3,0,-2,1
1558440582301065,-2,-2,-1,-2,0,-2,1,0
1558440582314057,-3,-5,-4,-3,0,1,-2,-3
1558440582314057,-2,0,1,0,0,-1,1,-1
1558440582321383,-1,0,-2,-2,-1,-2,0,-2
1558440582321383,-1,0,1,-2,-1,0,0,-2
1558440582336967,0,0,-2,1,-3,-2,0,-1
1558440582336967,0,-2,-1,-2,-2,2,0,0
1558440582351370,-2,-2,0,-2,-1,0,-3,-1
1558440582351370,-1,-2,-2,-1,-1,-3,-2,-1
1558440582360399,-2,-2,-1,-1,0,-3,-2,0
1558440582360399,1,2,2,0,1,3,0,0
1558440582360906,0,3,0,0,-2,-4,-2,-2
1558440582360906,0,0,0,1,0,2,1,0
1558440582382340,0,0,-1,-3,-1,-2,-2,0
1558440582382340,-2,-2,0,-2,-4,-6,-1,-1
1558440582383902,1,1,0,1,-2,-3,-2,-1
1558440582383902,-2,-1,-1,-1,2,3,5,1
1558440582397320,-1,-2,1,-2,0,2,0,-2
1558440582397320,-1,-1,-1,0,-2,-5,-2,0
1558440582404182,0,-5,-4,-3,-1,1,-2,-1
1558440582404182,1,-4,-2,-2,-3,-2,-4,-1
1558440582427902,1,0,-1,0,-3,-3,0,0
1558440582427902,1,-2,-2,3,-1,0,0,-2
1558440582428770,1,0,-1,-2,-1,-5,-4,-1
1558440582428770,-2,-3,0,-1,-1,-2,-3,-2
1558440582433759,-2,1,0,1,1,2,1,1
1558440582433759,0,-1,0,-2,0,1,1,1
1558440582440765,-2,-3,1,-2,-2,-3,-1,-2
1558440582440765,-2,0,-1,0,0,-1,0,-2
1558440582456694,2,3,4,2,0,2,4,1
1558440582456694,-6,-3,-4,-3,-2,-5,-8,-7
1558440582464023,-3,-2,-2,-1,-1,-1,-1,-1
1558440582464023,1,1,0,2,-2,-1,-2,1
1558440582479983,-4,-1,-3,-2,-1,3,0,-1
1558440582479983,0,-2,-1,-3,-2,-4,-2,-2
1558440582481662,-1,-2,0,1,1,0,-2,-3
1558440582481662,-4,-1,-1,-1,1,0,-1,-2
1558440582493910,-1,-2,-2,-4,-3,-4,-3,-3
1558440582493910,2,-1,0,-1,-2,1,1,0
1558440582508867,-1,-1,1,0,1,1,3,2
1558440582508867,0,-3,-1,-1,0,-1,1,-1
1558440582516863,-2,-2,-4,-1,0,2,-1,0
1558440582516863,-2,0,0,-1,0,-4,-4,0
1558440582523515,-2,-2,-2,-2,-2,-3,-5,-2
1558440582523515,-1,0,-1,-2,-3,0,0,-1
1558440582539473,0,-1,0,2,-2,-2,-1,2
1558440582539473,-1,-1,-3,-2,0,2,-1,-2
1558440582541467,0,1,0,-2,-2,-1,0,-1
1558440582541467,-3,-2,-3,-1,-3,-1,0,0
1558440582554886,-3,-3,-1,0,-3,-5,-2,-4
1558440582554886,0,1,2,-3,0,2,1,1
1558440582561497,0,-2,-2,-1,2,5,1,-1
1558440582561497,1,-3,-2,0,0,-3,-2,0
1558440582576596,-1,-2,-2,-1,1,-2,-1,-3
1558440582576596,0,-2,-1,-3,-2,-3,-2,-1
1558440582583512,-3,-1,-3,0,-2,-2,-3,-4
1558440582583512,0,0,0,-1,-1,4,1,0
1558440582600325,-1,-2,-2,-3,-1,-1,-1,-1
1558440582600325,0,-2,0,0,0,-1,2,1
1558440582601308,0,-1,-1,-2,-1,-3,-3,-1
1558440582601308,0,-1,-2,-1,-2,-4,-3,-1
1558440582613582,0,-1,1,-1,0,0,-1,-1
1558440582613582,-2,-1,-3,1,-3,0,1,0
1558440582629578,-2,-4,-1,-3,0,-3,2,-2
1558440582629578,-2,-1,0,0,-2,-4,-4,-4
1558440582637351,0,-1,-4,1,0,-2,-1,-1
1558440582637351,0,-2,-3,-2,-3,0,-2,-3
1558440582643510,-3,-1,0,0,-3,-3,-1,2
1558440582643510,-3,-3,-1,0,2,4,-1,-2
1558440582667460,0,-1,1,-1,0,0,-1,-1
1558440582667460,-1,0,-1,-1,1,1,2,-1
1558440582669134,-2,-2,-4,-1,-2,-2,-2,-3
1558440582669134,0,2,0,-2,-4,-5,-2,-2
1558440582682411,-3,-2,-2,-2,1,0,0,1
1558440582682411,-1,-3,-1,0,-1,-2,-2,-1
1558440582684319,1,0,-1,1,1,6,3,2
1558440582684319,1,-2,-1,-3,1,-1,1,-1
1558440582704403,-2,-3,0,0,-1,-3,-1,-3
1558440582704403,-3,-2,-1,-1,-1,-4,-2,1
1558440582706396,1,-3,-2,-1,-3,-6,-4,-2
1558440582706396,0,-2,-2,-1,1,1,1,0
1558440582735641,2,1,0,-2,-2,-2,0,-3
1558440582735641,-1,0,1,0,0,2,-1,0
1558440582737472,-4,-3,-2,-3,-3,-1,-4,-2
1558440582737472,-2,0,0,-2,-3,-4,-4,1
1558440582737472,0,0,-1,0,-1,2,1,-1
1558440582737472,1,-1,1,0,2,1,3,0
1558440582742300,2,1,0,-2,1,1,1,0
1558440582742300,1,0,-3,1,-1,-2,0,-1
1558440582756263,1,-2,-1,-1,-2,0,-2,-2
1558440582756263,-2,0,-3,-3,-3,-4,-2,-2
1558440582763555,-3,0,0,-2,-1,3,2,0
1558440582763555,-5,-1,-2,-1,-2,-4,-3,-3
1558440582779202,-1,0,-1,-2,1,-1,0,-3
1558440582779202,0,-1,-1,-1,2,-2,0,-2
1558440582781196,-2,-2,1,0,-1,1,-1,0
1558440582781196,-2,-1,-1,-2,-1,2,-1,-1
1558440582802475,-1,0,-1,0,-1,0,-1,0
1558440582802475,-2,0,-2,0,-1,-2,-4,-1
1558440582803139,-1,0,-1,-2,0,-2,-1,-1
1558440582803139,0,-1,0,-3,-2,-3,-3,0
1558440582816424,-1,-2,0,-1,-2,-1,-2,0
1558440582816424,1,-1,0,2,0,1,3,0
1558440582823086,0,-1,0,1,1,1,1,-1
1558440582823086,-1,-2,-3,-2,-3,-4,-3,-2
1558440582839343,-2,-1,0,-1,-4,-3,-2,0
1558440582839343,-2,0,1,-2,-1,0,1,-1
1558440582854319,-2,-2,-1,-2,1,0,-1,0
1558440582854319,-1,0,-1,1,0,0,2,1
1558440582855242,1,1,-1,-3,-1,1,1,-1
1558440582855242,0,-3,-3,-2,-3,-1,-1,-2
1558440582862302,3,-1,-3,0,-1,-1,-2,-2
1558440582862302,0,1,1,0,0,0,1,-2
1558440582885215,-3,-3,-3,-2,-1,-1,-3,-1
1558440582885215,0,0,-1,0,0,-1,3,0
1558440582885917,0,-2,-1,1,0,0,-2,-2
1558440582885917,0,1,1,-3,-2,1,2,1
1558440582899194,-4,-1,-3,0,-3,-6,-4,-2
1558440582899194,-1,0,-1,0,-1,0,-1,0
1558440582905863,-2,0,-2,-1,0,1,-1,0
1558440582905863,-2,-2,-2,-1,0,3,2,-3
1558440582913842,-1,1,1,0,0,-3,-2,-1
1558440582913842,0,-2,-1,-1,-2,-2,-4,-2
1558440582929123,-2,-2,-3,-2,-2,-2,2,1
1558440582929123,1,-1,1,0,-1,-3,-2,0
1558440582937074,-2,-3,-2,0,-2,1,-1,-2
1558440582937074,-4,-3,-1,-3,-2,0,-1,-2
1558440582944808,0,0,-1,-1,-1,-5,-1,-1
1558440582944808,-1,-3,-1,-1,-1,-2,0,-3
1558440582959804,-1,-1,0,-2,1,1,1,2
1558440582959804,-3,-1,0,-1,0,2,0,-1
1558440582966020,-2,-1,-2,0,-1,2,1,-1
1558440582966020,0,1,0,2,0,-3,0,-1
1558440582973681,-1,-1,0,-1,0,0,0,-1
1558440582973681,-2,0,0,-1,0,0,-1,-2
1558440582982658,0,-2,-1,-2,-5,-4,-4,-2
1558440582982658,-2,-1,-2,-5,-1,-1,-2,1
1558440582996621,-1,-2,-1,-1,0,0,1,2
1558440582996621,-3,-3,-5,-2,-5,-5,-5,-2
1558440583004800,-2,0,0,-1,-2,-2,-2,-3
1558440583004800,0,0,2,1,3,2,2,0
1558440583019797,-1,-2,-2,-2,-2,-3,-3,-3
1558440583019797,-1,0,1,-1,0,-1,2,1
1558440583034014,0,0,-2,-2,-3,-6,-2,-2
1558440583034014,-1,0,-1,1,2,4,2,-1
1558440583042959,-1,-1,-3,0,-2,1,-3,-2
1558440583042959,1,-3,-1,-3,-2,-5,-4,-1
1558440583043497,-1,-1,-1,-1,-1,-1,0,-1
1558440583043497,-1,-2,-4,-1,-3,-5,-3,1
1558440583064798,-1,0,-1,2,1,1,1,-1
1558440583064798,0,0,-2,-1,0,3,1,1
1558440583066438,-3,1,1,-1,1,2,2,0
1558440583066438,-4,-2,-1,1,-2,-3,-4,0
1558440583079456,2,-2,0,-1,-2,-2,-1,0
1558440583079456,1,-1,-1,0,-1,-1,0,1
1558440583086536,0,-3,-2,1,-1,0,-1,-1
1558440583086536,-3,-3,-1,-4,0,0,-1,0
1558440583109319,-2,0,-2,-3,-1,-1,0,0
1558440583109319,0,0,2,3,0,-1,0,2
1558440583111314,-1,-2,-2,-3,1,2,1,-2
1558440583111314,-2,-2,-3,-2,-2,-1,-2,-3
1558440583117333,0,1,0,2,-1,2,2,1
1558440583117333,-2,-2,0,-1,-3,-3,-4,-2
1558440583139240,-1,0,0,-2,-1,-2,-1,-1
1558440583139240,1,-1,1,-1,0,1,1,2
1558440583140236,0,-1,-1,1,0,-1,-1,-2
1558440583140236,0,0,-1,-4,-1,-1,-3,-4
1558440583146220,-1,0,-1,-1,-2,-4,-5,-1
1558440583146220,-1,-1,-2,0,0,-1,-1,-1
1558440583162216,-1,0,0,-2,1,0,0,0
1558440583162216,-3,-1,-2,-3,-1,-3,-1,-1
1558440583163206,-1,0,0,1,0,3,0,-1
1558440583163206,-2,-1,-1,0,-4,-2,-3,-1
1558440583176139,0,-1,-3,-3,-1,1,0,-2
1558440583176139,1,-2,-2,0,-2,-6,-2,-1
1558440583183156,0,0,-1,1,1,2,3,1
1558440583183156,0,-1,-1,-4,-2,-4,-1,-2
1558440583207059,-3,-2,-2,0,-3,-1,-3,-3
1558440583207059,-3,0,-1,-1,0,4,2,1
1558440583208054,-1,-3,-1,-1,0,-4,-4,-3
1558440583208054,0,-2,1,-1,2,2,0,-2
1558440583222368,1,-1,-1,0,-1,-2,-2,0
1558440583222368,-3,0,-3,-4,-3,-2,-1,-1
1558440583224011,1,0,-1,-2,-1,2,0,2
1558440583224011,0,-1,-4,-1,-1,-1,-2,-2
1558440583236977,-1,-1,-2,-1,-1,-2,1,0
1558440583236977,2,1,0,-1,0,3,-2,1
1558440583243425,0,-1,0,-2,0,-3,-2,-1
1558440583243425,0,-1,-2,-1,-2,-2,-1,-3
1558440583259382,0,-1,0,-2,0,-3,-1,0
1558440583259382,0,-1,1,0,3,3,2,1
1558440583265900,-1,-4,-1,1,-2,-5,-3,-2
1558440583265900,-3,1,1,-1,0,1,1,0
1558440583282977,-2,-2,0,-3,-2,-1,0,0
1558440583282977,1,0,-3,-3,-5,-3,-3,0
1558440583283853,0,0,1,1,0,0,0,-1
1558440583283853,0,-3,-4,-2,-3,-4,0,1
1558440583296882,0,-1,0,-1,1,2,1,1
1558440583296882,-1,0,-1,1,2,3,3,0
1558440583311064,-1,1,-2,-3,-3,-2,-3,-2
1558440583311064,-2,0,-2,-1,-3,-1,-2,-2
1558440583319033,-4,-1,-3,0,-2,0,-2,-2
1558440583319033,0,0,1,1,0,1,0,0
1558440583325992,0,-2,-1,-1,0,2,1,-1
1558440583325992,-2,0,0,-1,1,-2,-1,-1
1558440583342982,-1,-3,-1,0,-2,-2,-2,-1
1558440583342982,-1,-2,1,-1,-2,-3,-2,-1
1558440583343696,-1,-2,-2,-3,-1,-3,-2,-1
1558440583343696,0,-2,0,1,1,3,0,-2
1558440583356658,-1,0,0,-3,2,-1,1,-2
1558440583356658,-3,-1,-2,-4,-3,-4,-3,-2
1558440583364949,-3,-1,-2,0,-2,-1,0,1
1558440583364949,-2,-1,-1,-1,-1,0,1,-1
1558440583379075,-1,0,-3,-1,-1,-1,-1,-1
1558440583379075,-2,0,1,-2,1,0,2,-2
1558440583386066,1,0,2,1,-1,-1,0,-1
1558440583386066,0,-1,-2,-3,-2,-2,-3,-2
1558440583402838,-1,0,-1,-1,0,0,2,0
1558440583402838,-1,-1,1,1,-2,-1,-3,-2
1558440583409518,-3,0,-3,-4,-3,-3,-4,-2
1558440583409518,1,0,0,0,-1,0,0,-1
1558440583416965,0,1,-3,-1,-2,-5,-2,-2
1558440583416965,-2,-2,-2,1,0,-2,-2,1
1558440583423480,-2,-2,-3,-2,-1,5,2,1
1558440583423480,-3,-2,-3,-2,-1,2,-1,-2
1558440583439439,-1,-2,-1,0,-3,-7,-4,-1
1558440583439439,1,0,0,0,0,1,1,-1
1558440583445785,-1,1,1,-2,-3,-5,-2,-2
1558440583445785,0,-3,0,0,-1,-1,-1,0
1558440583462572,1,-2,-1,-3,-3,2,-1,0
1558440583462572,-2,-1,-2,-3,-1,-1,-1,-1
1558440583463679,1,-1,-2,1,0,1,1,0
1558440583463679,-1,1,1,-2,0,-2,-3,0
1558440583476336,0,0,0,0,0,-3,-1,0
1558440583476336,-1,-2,-6,-3,-1,-3,-2,-2
1558440583483320,-2,-4,-4,-1,0,-1,-1,-1
1558440583483320,0,-2,0,-2,-3,-3,-2,-1
1558440583499276,-3,-3,-2,-3,-3,-1,-5,-5
1558440583499276,-2,-2,-2,1,-1,-1,-2,-1
1558440583505260,-1,2,1,1,4,1,2,2
1558440583505260,0,-2,-3,0,-2,-2,0,-1
1558440583522213,-1,-1,2,0,-1,0,1,0
1558440583522213,0,1,-1,0,-4,-1,0,-1
1558440583523215,-2,-2,-3,-2,-2,0,-4,-3
1558440583523215,1,1,0,0,1,2,1,-1
1558440583536175,0,-1,-1,0,-1,-1,-1,0
1558440583536175,-1,-2,0,-3,0,0,0,-3
1558440583544156,0,-2,1,0,-2,-3,1,0
1558440583544156,-5,-4,-4,1,-2,-5,-2,-1
1558440583559116,-4,-1,-1,-1,-2,0,-1,-2
1558440583559116,-2,-1,-2,0,0,-3,-3,-1
1558440583566125,-1,-2,1,0,0,2,1,0
1558440583566125,0,-1,-4,-4,-2,1,1,-1
1558440583582055,-2,-1,-2,-1,-1,-2,-1,-1
1558440583582055,1,-1,0,-2,0,1,0,0
1558440583583053,-1,1,-4,-1,-2,-3,-1,-3
1558440583583053,-1,2,-1,-1,0,1,1,0
1558440583596018,-1,-2,-2,-2,-1,-2,0,1
1558440583596018,0,-3,-1,-1,-1,2,2,1
1558440583611973,-2,-4,0,-2,0,0,-3,-1
1558440583611973,-1,-2,1,-3,-2,0,-1,-2
1558440583618954,0,0,2,0,0,-1,-2,-1
1558440583618954,-2,0,0,-3,1,-2,-1,0
1558440583642919,-2,0,-1,-1,-2,-1,-1,-2
1558440583642919,-3,-2,-4,1,-2,-1,1,0
1558440583643917,-2,-1,-1,-1,-2,1,0,-1
1558440583643917,-3,0,0,-2,-2,-4,-3,-3
1558440583644885,0,1,-2,-2,-1,0,1,0
1558440583644885,0,1,1,0,-1,-2,-4,-3
1558440583664833,0,-1,-3,-1,0,3,0,-2
1558440583664833,-2,-2,-1,-3,-3,-5,-6,-1
1558440583665830,0,-1,-4,0,1,2,-1,0
1558440583665830,-1,-1,-3,-2,0,-1,-1,0
1558440583687770,2,0,-4,-1,-2,-1,0,0
1558440583687770,0,-1,-1,-2,-1,-3,-3,-3
1558440583692792,-1,-1,2,1,2,0,0,0
1558440583692792,-1,-3,-1,-3,-2,-4,-2,-1
1558440583701733,1,-2,0,-1,3,1,2,1
1558440583701733,0,-1,-1,1,-1,-3,0,1
1558440583703727,0,0,0,-2,-2,-2,-1,-1
1558440583703727,-2,0,1,-1,0,1,0,-2
1558440583715695,-2,-1,-1,-1,-2,-4,-2,-1
1558440583715695,0,-2,-2,1,0,2,-1,-2
1558440583724673,1,-2,-2,-2,-4,-5,-1,-1
1558440583724673,0,1,0,-1,0,1,-1,1
1558440583739633,-4,-4,-1,0,0,1,-4,-4
1558440583739633,-4,-3,-1,-3,-2,1,0,0
1558440583745616,2,-2,0,-1,-1,-4,-2,-1
1558440583745616,0,-3,-2,1,1,3,0,1
1558440583761576,-2,-1,-1,-3,-2,-5,-2,-2
1558440583761576,0,-1,-1,1,0,0,-1,-3
1558440583768554,-2,-1,-2,1,-2,0,-2,-1
1558440583768554,0,-3,0,-1,-1,-2,-1,1
1558440583775536,0,1,2,-1,0,1,1,0
1558440583775536,-1,-2,-3,0,0,-2,-1,-1
1558440583784512,-2,-1,-1,0,0,2,1,1
1558440583784512,-3,-2,-1,0,0,-4,-3,0
1558440583798476,-1,1,-2,-2,-3,0,-3,-1
1558440583798476,0,0,0,0,-3,0,1,-1
1558440583805491,-1,-3,-2,-5,-2,0,0,0
1558440583805491,0,-2,-1,0,-2,-1,2,-1
1558440583821412,0,-2,0,1,-2,-5,-2,-3
1558440583821412,0,-1,-1,-2,2,2,3,1
1558440583828429,-4,-4,-1,0,-4,-5,-8,-5
1558440583828429,0,0,-2,-4,-1,-2,-3,-1
1558440583844378,-1,2,-2,-2,-3,-1,-2,0
1558440583844378,0,-2,0,-1,0,0,-3,-3
1558440583846375,-1,2,-1,-2,0,-1,0,0
1558440583846375,0,-1,-3,-1,-3,0,2,1
1558440583858350,-1,-3,-4,-2,1,1,-1,-1
1558440583858350,-1,-1,-1,0,-2,-5,-1,0
1558440583867290,0,-2,0,-2,0,0,1,1
1558440583867290,-1,-3,-1,-1,0,-1,0,-2
1558440583889233,-3,1,-3,-3,-2,-3,-1,0
1558440583889233,-1,0,1,-2,-3,0,-2,-2
1558440583891254,0,-1,-1,0,-1,-2,-3,-1
1558440583891254,-1,-1,-1,-3,-1,2,-2,-2
1558440583896214,0,-3,2,0,1,0,0,1
1558440583896214,0,0,-2,0,0,-1,-1,-1
1558440583912170,-1,0,0,-2,0,-3,-1,-3
1558440583912170,-1,1,1,-1,-3,-3,-2,-2
1558440583919190,-1,-2,-3,0,1,0,-1,-1
1558440583919190,-1,-3,-3,-2,-1,-2,-2,2
1558440583926133,-2,-2,-1,-3,-2,-2,0,0
1558440583926133,0,1,-1,1,0,0,2,-1
1558440583941094,-2,-1,-2,-1,-3,1,-2,-1
1558440583941094,0,1,-1,-3,-1,3,1,-1
1558440583948074,-2,-4,-1,-1,0,1,-1,-2
1558440583948074,-2,-1,0,1,-1,-5,-4,-2
1558440583965028,2,-2,-2,-4,0,0,1,-2
1558440583965028,0,1,-1,-2,-1,0,-1,0
1558440583966026,0,1,-3,2,0,3,2,-1
1558440583966026,-2,0,-1,-2,0,1,-2,0
1558440583978993,0,-3,1,0,-1,0,-1,1
1558440583978993,-3,-3,-1,-1,-2,-2,-4,-1
1558440583985974,0,0,-3,-2,-2,-4,-4,-2
1558440583985974,2,-2,-2,-2,-2,-2,1,-2
1558440584001931,0,-1,0,-2,-1,-3,-1,-3
1558440584001931,-1,-2,-1,1,-1,-1,-1,-1
1558440584007915,0,0,0,-1,0,0,0,-1
1558440584007915,-1,-1,0,-1,-2,-3,-3,0
1558440584024868,-1,1,1,-1,-2,-4,-3,0
1558440584024868,-1,-2,0,-1,-2,-4,-2,-1
1558440584025866,0,0,-2,-1,0,0,0,0
1558440584025866,0,-3,-3,-2,-1,1,0,-1
1558440584038870,-1,-2,-3,1,0,-2,0,-1
1558440584038870,0,-1,1,-2,1,1,-1,0
1558440584045840,-1,0,1,-1,-2,-2,-1,0
1558440584045840,-2,-1,0,1,-1,-1,-3,0
1558440584069750,-2,-1,-2,-1,-1,1,-1,0
1558440584069750,-1,-1,-4,-3,-1,-3,-1,-1
1558440584070746,0,0,0,-2,3,5,3,0
1558440584070746,-1,-1,-2,-3,-1,-1,1,-2
1558440584091690,-3,-3,-3,-3,-2,-4,-2,-3
1558440584091690,2,-1,-1,0,1,3,2,1
1558440584093685,0,-1,2,-1,0,-3,-3,0
1558440584093685,1,-3,-2,-2,1,1,-1,-1
1558440584098671,2,1,0,-2,-2,2,-1,1
1558440584098671,-1,-2,-2,-1,-3,-4,-3,-2
1558440584105652,-1,-1,1,-1,-1,-1,-1,0
1558440584105652,-3,-1,-2,-3,-3,-1,-2,-3
1558440584121610,1,-1,-3,0,-1,1,-1,0
1558440584121610,-2,-1,-3,-1,0,1,-1,1
1558440584128631,-2,-3,-2,-1,-3,0,-3,-3
1558440584128631,-2,-1,0,1,0,-2,-2,-2
1558440584144592,-3,-1,3,-1,-1,-1,-1,-1
1558440584144592,-2,0,-1,-1,-1,0,0,-1
1558440584145546,-1,-1,-4,-2,-3,-7,-7,-2
1558440584145546,0,-3,-1,0,1,1,0,-2
1558440584167487,-2,-2,-1,-1,-1,0,1,-2
1558440584167487,-1,0,0,-1,0,2,0,-1
1558440584168484,-1,-1,0,0,-1,1,-1,0
1558440584168484,-3,-1,-1,-2,-3,-3,-3,0
1558440584188434,-3,0,0,-1,-2,-3,-4,0
1558440584188434,-3,0,0,2,0,0,0,-1
1558440584197409,-1,-4,-5,-4,-4,-1,-2,-3
1558440584197409,1,-2,-1,0,0,1,1,0
1558440584204389,0,1,-2,-1,0,-1,2,-1
1558440584204389,1,-1,-1,0,-1,-2,-3,-2
1558440584206384,-1,-2,-2,-2,-2,-1,0,-1
1558440584206384,-1,0,1,-1,-1,-4,-2,-1
1558440584219349,-1,1,0,1,-1,-2,-2,0
1558440584219349,1,-2,-1,-1,-1,-2,-3,-1
1558440584225333,-1,-1,-2,-1,0,-2,-1,-1
1558440584225333,0,0,-1,-2,-1,2,0,1
1558440584241291,1,-1,2,1,3,5,2,1
1558440584241291,-1,-1,-2,-3,0,0,1,1
1558440584248272,-2,0,1,0,0,-3,-3,-1
1558440584248272,-2,1,-2,1,-1,-1,-1,-1
1558440584264229,-1,-2,-1,-4,-2,-1,-1,-2
1558440584264229,-3,-1,-2,-2,0,-2,0,0
1558440584266223,-3,-1,-3,-1,-3,-3,-3,0
1558440584266223,-1,0,0,-2,-1,-2,-1,-3
1558440584279191,0,0,0,1,-2,1,2,-2
1558440584279191,1,0,1,-1,-1,-1,0,-1
1558440584293151,-2,-3,-4,-2,2,2,2,1
1558440584293151,-1,-2,-1,-1,-1,-1,-4,-1
1558440584301129,-1,-2,-3,-1,-1,3,-2,-1
1558440584301129,0,-1,1,1,-3,-3,-4,-1
1558440584316094,-1,0,0,-1,1,1,2,0
1558440584316094,-2,-2,1,-1,0,0,0,0
1558440584324070,-1,-1,-2,-1,-2,-6,0,-2
1558440584324070,-2,-3,-3,-3,-2,1,-1,-2
1558440584326064,1,1,1,-1,-2,-1,-3,0
1558440584326064,-1,-2,-2,0,-1,-3,0,-2
1558440584339029,-1,-1,-2,-1,1,-2,0,-1
1558440584339029,0,-1,-4,-2,1,0,2,-1
1558440584346015,0,0,0,1,-3,-3,-1,2
1558440584346015,-3,-1,-1,-2,-1,1,-2,0
1558440584369946,-3,-2,-2,-2,0,0,-3,0
1558440584369946,-2,0,0,0,0,0,1,1
1558440584370944,-1,-1,2,1,2,0,0,-3
1558440584370944,-1,-1,-4,-2,-1,1,1,-1
1558440584391888,-1,-3,-2,-3,-3,-3,-1,0
1558440584391888,0,-1,-3,1,-1,0,-1,-3
1558440584393883,-3,-2,1,-1,-2,2,2,-2
1558440584393883,0,-1,1,-2,-2,-3,-4,0
1558440584398869,1,0,1,-1,1,1,1,0
1558440584398869,-1,-3,-1,1,-1,-1,-2,-2
1558440584405855,-2,-3,-1,-4,1,1,-2,-2
1558440584405855,-3,-4,-3,-1,-1,2,-1,-1
1558440584421807,0,-1,0,1,-3,-3,-4,0
1558440584421807,0,0,1,-3,-1,1,-1,1
1558440584427792,0,1,-1,0,-2,-2,-1,-1
1558440584427792,0,0,1,3,0,-1,1,-2
1558440584444747,-1,0,-1,-2,-3,-2,-2,0
1558440584444747,1,0,-1,-2,-1,-3,-3,-2
1558440584445744,0,-2,-1,0,-2,-1,0,0
1558440584445744,-1,-1,-1,-1,-1,-1,-2,-1
1558440584466689,-1,-2,0,-2,0,-2,0,-2
1558440584466689,-2,0,-2,-2,-1,0,2,-2
1558440584468682,-1,-1,0,0,0,3,3,0
1558440584468682,-3,0,-3,-1,-1,-4,-1,-2
1558440584481647,1,1,0,-2,1,-2,-3,-1
1558440584481647,0,-2,0,1,-3,-2,-3,-3
1558440584488630,2,-1,-1,0,2,1,3,-1
1558440584488630,-2,-1,-2,-2,-1,-1,1,-1
1558440584504586,-5,-2,-3,-1,0,-3,-3,-2
1558440584504586,-3,-4,-1,0,-2,-3,-4,-2
1558440584506583,0,0,-3,-4,-2,-4,-4,-1
1558440584506583,1,-1,-1,0,1,0,1,-1
1558440584518551,-2,-1,-1,-1,2,2,2,0
1558440584518551,-3,0,-2,-3,-1,-2,-2,-1
1558440584527524,0,-2,0,-1,-2,-4,-2,-3
1558440584527524,2,1,1,1,1,0,1,1
1558440584541488,-2,0,-2,-2,-3,0,-1,-3
1558440584541488,-3,0,2,-1,-1,1,0,1
1558440584548470,-2,0,1,-1,-3,-7,-3,1
1558440584548470,-5,-2,-3,-1,-3,-2,-2,0
1558440584564429,-1,-2,-1,-2,0,-1,-2,-1
1558440584564429,-2,-2,-1,-2,-1,2,-2,-3
1558440584566421,-2,-3,-3,-1,1,3,-3,-4
1558440584566421,2,0,0,-1,0,-1,1,0
1558440584578392,1,1,0,1,-3,-2,1,-1
1558440584578392,-1,-2,-3,-1,-1,-2,2,-1
1558440584594346,-2,1,1,-1,0,1,-1,-1
1558440584594346,-1,-2,0,-1,-2,3,-2,-3
1558440584601328,0,-1,-1,-2,-1,-1,0,-1
1558440584601328,1,1,0,-1,1,-3,0,0
1558440584608310,0,0,-2,0,-2,-3,0,0
1558440584608310,2,-1,-3,-2,-3,-4,-2,-1
1558440584624267,0,-2,0,2,1,4,1,-1
1558440584624267,-2,-2,-1,-3,1,4,2,0
1558440584626261,-2,-2,-2,-1,-2,-1,-2,-2
1558440584626261,-1,1,1,1,-1,-3,-2,-1
1558440584647204,0,-1,0,-3,-4,-2,-1,-2
1558440584647204,-1,-1,-3,-1,-1,-5,-3,-1
1558440584648213,-1,-3,-2,0,0,3,1,0
1558440584648213,-3,-3,-3,-1,0,-1,-1,1
1558440584669145,-2,-1,1,0,0,-1,0,2
1558440584669145,-2,0,0,0,-2,1,1,-2
1558440584671149,-1,1,1,2,-1,-4,-1,0
1558440584671149,-2,-1,-1,-3,-3,-1,-3,-4
1558440584684108,-1,-2,0,-1,0,0,1,-1
1558440584684108,0,-2,0,-1,-1,-1,-2,0
1558440584699066,0,-2,-3,-2,-5,-8,-3,-1
1558440584699066,-1,0,2,0,1,1,0,-1
1558440584700063,-1,-1,-5,-1,1,3,-2,-2
1558440584700063,-1,1,1,0,0,0,0,-1
1558440584707045,0,-2,-3,-1,2,-1,0,1
1558440584707045,-2,-1,0,-3,-1,-3,-2,-1
1558440584721008,0,0,-2,1,-1,2,-1,-1
1558440584721008,1,-1,-1,-3,-3,-3,-2,0
1558440584727989,-2,-1,0,-2,0,4,3,-1
1558440584727989,1,0,-2,-1,-1,-1,0,-1
1558440584751928,-2,-2,-2,-2,-3,-3,-2,-1
1558440584751928,-2,-5,0,-1,-2,-3,-4,-1
1558440584753921,-2,-1,-3,-1,-3,-3,-4,-3
1558440584753921,-3,-1,-1,-1,-3,-3,1,-1
1558440584757909,-2,0,-1,-2,0,0,-2,-1
1558440584757909,-2,0,-3,-1,-1,1,0,-2
1558440584774867,-1,0,0,-1,1,0,-3,-2
1558440584774867,3,-1,1,-1,2,2,3,1
1558440584781844,1,-1,1,-1,1,-7,-2,-2
1558440584781844,-3,-2,-1,0,-2,-1,-1,-1
1558440584787828,-2,-2,1,-1,0,1,-1,0
1558440584787828,-2,0,1,-1,-1,-1,2,0
1558440584803788,-1,-2,-1,-1,-2,-4,-1,-1
1558440584803788,0,0,3,0,2,-1,0,1
1558440584810768,-3,0,-1,-1,-1,3,1,-2
1558440584810768,-2,1,-2,-1,-2,-3,-5,-2
1558440584817752,-2,-3,-2,0,-3,-4,-2,1
1558440584817752,0,2,1,-2,1,0,-3,2
1558440584826725,-3,-3,-1,-2,0,0,0,-2
1558440584826725,-3,-2,-5,2,-3,-5,-5,-3
1558440584849663,-2,-1,-4,-2,0,1,3,-1
1558440584849663,0,-1,-1,-2,0,-1,0,0
1558440584850660,1,-3,2,0,-2,-1,-3,1
1558440584850660,1,1,0,0,1,0,0,0
1558440584863635,-1,-2,0,-3,-1,-2,-3,-4
1558440584863635,-1,-2,-2,-1,-2,0,-2,-2
1558440584871605,0,0,1,1,-1,-3,1,-1
1558440584871605,-3,-2,-2,-4,-1,1,-2,0
1558440584886564,-5,-1,-2,-2,-2,-1,-1,-2
1558440584886564,0,-1,-4,0,1,0,0,-1
1558440584888559,-2,-1,-4,-2,-1,0,0,-1
1558440584888559,0,-1,-1,-2,-2,0,1,-1
1558440584901526,0,1,0,1,2,0,-2,0
1558440584901526,-3,-3,-1,0,-3,-6,-3,-2
1558440584908507,-1,-5,-3,-3,-2,-1,-2,-1
1558440584908507,2,-2,0,0,0,-6,1,-1
1558440584923468,0,-2,-1,1,-2,-1,-1,-2
1558440584923468,1,0,-3,-2,-2,-2,1,-1
1558440584930447,0,1,-1,-1,-1,1,1,0
1558440584930447,-4,-2,-2,-1,-3,-2,-5,-2
1558440584947403,-2,0,0,-1,-2,0,-3,0
1558440584947403,-1,-1,-1,-1,-1,-3,-1,-3
1558440584948399,-1,-1,0,0,-1,-1,0,0
1558440584948399,0,-1,0,0,-1,4,0,-2
1558440584961366,0,0,-1,0,-3,-3,-3,0
1558440584961366,0,-1,-1,-2,2,2,1,2
1558440584975329,1,-2,-1,1,0,-4,-2,-1
1558440584975329,-2,-2,-1,-2,0,-1,1,1
1558440584984304,-2,-2,-1,-3,-3,-4,0,-2
1558440584984304,0,-2,-3,0,-3,0,-2,-3
1558440584998266,1,2,-2,0,1,1,0,1
1558440584998266,-1,-1,-1,-4,-2,2,0,0
1558440585007242,1,-1,3,2,-1,1,-1,0
1558440585007242,-2,-2,1,0,-2,-2,0,-2
1558440585008242,0,1,-1,0,0,-3,-2,0
1558440585008242,0,-2,-2,-2,2,1,0,-3
1558440585029183,-1,-1,-2,0,0,-1,-2,1
1558440585029183,0,0,0,-2,-1,0,0,-1
1558440585031178,-1,1,0,-1,0,-1,-1,-1
1558440585031178,-2,0,-3,1,-2,-3,-3,0
1558440585052122,0,-2,-3,-2,-3,-3,-1,-1
1558440585052122,-2,-1,1,-2,-1,1,-1,1
1558440585053118,-2,-4,0,-3,-1,1,-1,-3
1558440585053118,-2,-1,-1,0,0,0,0,1
1558440585068079,1,0,-1,-2,3,1,1,-2
1558440585068079,-1,-2,-2,0,-2,-1,-1,-1
1558440585069077,-2,1,-4,0,-3,-7,-4,1
1558440585069077,-2,0,-1,-1,-3,-1,0,-1
1558440585081044,0,1,1,0,1,0,-2,-3
1558440585081044,0,-1,-1,0,-1,-1,0,0
1558440585088027,0,-2,-2,-3,-4,0,-2,-3
1558440585088027,-1,-1,0,-2,-2,-2,0,-1
1558440585103981,-4,-3,0,-1,-4,-3,-2,-2
1558440585103981,0,-2,-2,0,0,-1,-1,-2
1558440585110965,0,1,-1,-2,-1,-2,2,0
1558440585110965,2,-3,-3,-2,0,0,-1,-2
1558440585126923,-1,-1,-4,1,-1,0,1,-1
1558440585126923,-2,0,0,-1,0,-1,-3,1
1558440585128917,-1,-2,-2,-2,-2,-1,-2,-3
1558440585128917,0,-2,1,0,-3,-6,-4,0
1558440585149860,-1,0,0,1,-2,1,0,-1
1558440585149860,-1,-1,0,-2,1,1,-1,0
1558440585151855,-2,0,0,2,-1,1,-2,-1
1558440585151855,-2,-1,-1,-2,-3,0,-4,-1
1558440585163823,-1,-3,-1,-1,-1,-2,-2,0
1558440585163823,-1,-1,-5,-5,-1,-1,-1,-3
1558440585177794,-2,-2,0,1,1,1,-2,-1
1558440585177794,-1,0,0,-2,0,-2,1,-1
1558440585186767,-2,0,0,-4,0,0,2,0
1558440585186767,-3,-2,-3,0,-2,-2,-2,-5
1558440585188757,-1,-1,-1,-3,0,-3,1,-1
1558440585188757,-2,-1,-2,0,-1,-2,-4,-2
1558440585200723,1,-1,-3,1,-1,-1,-3,-2
1558440585200723,-1,0,1,-1,2,3,1,1
1558440585209700,-2,-2,0,-4,-3,-4,-6,-2
1558440585209700,0,-1,0,-1,-1,0,0,0
1558440585231642,-2,-3,-1,-1,1,2,0,2
1558440585231642,0,-2,0,-2,-3,-1,2,-2
1558440585233638,2,1,1,-1,0,-2,3,1
1558440585233638,-1,-2,-1,1,1,0,-1,-1
1558440585254580,0,0,1,-4,-3,-3,-1,-1
1558440585254580,0,-2,-4,-2,-1,0,-2,-1
1558440585255577,-2,-2,-2,-1,-2,-1,-1,-1
1558440585255577,0,2,-2,0,-2,-1,0,-1
1558440585260563,-1,-2,0,-3,1,2,-1,0
1558440585260563,-3,-1,0,0,0,3,0,-2
1558440585284500,-1,1,-2,0,-2,-4,-3,0
1558440585284500,2,-2,0,0,1,2,-2,-1
1558440585285498,-2,0,-2,-1,-2,-2,-2,-2
1558440585285498,-1,1,2,0,-2,-8,-3,-1
1558440585298464,-2,0,-2,-1,2,4,2,-1
1558440585298464,-2,-1,-1,-2,0,-2,-1,-1
1558440585307439,-2,-2,-4,-1,-2,1,0,-4
1558440585307439,-1,-1,-2,0,-3,-4,-3,0
1558440585308436,-2,-1,0,-2,-3,-4,-1,-2
1558440585308436,0,-1,-3,-2,-2,0,0,-2
1558440585329379,-1,0,0,1,-2,-3,-4,-3
1558440585329379,2,2,1,-2,1,1,2,0
1558440585331374,0,-2,-3,-3,-2,-1,1,-1
1558440585331374,-2,-1,-1,0,-1,-1,-3,-1
1558440585344339,0,0,2,0,3,2,1,2
1558440585344339,-2,-2,-1,-4,-3,-2,-3,0
1558440585350325,-1,-1,0,1,-5,-6,-4,-1
1558440585350325,-2,-1,-1,-1,-3,-3,-2,0
1558440585367282,0,1,0,-2,1,3,1,1
1558440585367282,0,-1,0,-1,0,-1,2,-1
1558440585368280,-3,-3,-2,1,-2,-2,-1,-4
1558440585368280,-2,-2,-2,-3,-2,0,-1,-1
1558440585380243,-2,-3,-2,-3,-4,-9,-5,-3
1558440585380243,-3,-4,-3,1,-2,-1,-3,-1
1558440585389221,-1,0,0,-1,1,0,-1,0
1558440585389221,-1,1,2,-1,2,1,2,2
1558440585403183,1,0,1,2,-1,3,0,0
1558440585403183,-2,-2,-1,-2,-2,-4,-2,-2
1558440585412158,0,-1,0,-2,1,3,-1,-2
1558440585412158,-4,-2,-2,-3,-2,-9,-6,-3
1558440585427119,0,0,-1,0,-1,0,2,-1
1558440585427119,-1,0,0,-1,4,4,3,2
1558440585428115,0,-1,-1,-2,-1,-2,-4,-1
1558440585428115,-1,-2,-1,4,0,-2,2,1
1558440585441090,-1,-2,-1,-4,-3,-2,-2,0
1558440585441090,0,0,-1,-1,0,1,1,-1
1558440585450057,0,-1,-1,0,1,1,3,0
1558440585450057,2,0,-1,-2,-5,2,2,-3
1558440585464024,-1,-2,-1,-2,-3,-5,-4,-1
1558440585464024,-1,0,1,-1,0,-6,-4,-1
1558440585477982,2,0,1,4,2,5,2,2
1558440585477982,-1,-3,-2,-2,-1,-3,-3,-2
1558440585486958,-2,-1,0,-3,-3,0,1,-2
1558440585486958,0,-1,-1,-1,-3,-1,-3,-3
1558440585487956,0,0,-4,-1,-2,-1,-1,1
1558440585487956,-3,0,-1,-1,0,-3,-2,-2
1558440585509898,-3,-1,0,-1,0,-3,-1,1
1558440585509898,-2,-3,-2,-1,0,-1,0,1
1558440585510898,-2,-4,-1,-3,-1,0,1,-1
1558440585510898,1,-1,-1,-1,0,1,-1,0
1558440585531838,0,-1,-3,2,-2,-3,-1,0
1558440585531838,-1,0,0,-2,0,-1,0,-1
1558440585563754,-1,-1,-2,-2,0,0,-2,-3
1558440585563754,0,-2,-1,2,-2,-7,-2,-3
1558440585563754,-3,-2,-1,-4,-1,-4,-5,-6
1558440585563754,0,-2,-4,-2,-3,-2,-3,-3
1558440585565750,1,0,0,0,2,1,1,1
1558440585565750,0,0,2,-1,2,6,-1,0
