timestamp,emg1,emg2,emg3,emg4,emg5,emg6,emg7,emg8
1558440614950413,3,4,-1,-8,1,2,1,0
1558440614950413,-1,0,3,5,-1,-2,1,-1
1558440614951412,-2,-6,-5,0,-1,-3,-2,0
1558440614951412,0,-3,-5,-5,0,-1,-2,0
1558440614953406,-2,-5,-10,1,-3,-2,-1,-3
1558440614953406,-3,-2,1,2,-2,-2,-1,-3
1558440614953406,1,1,-3,-3,-2,-1,0,0
1558440614953406,-2,-3,-1,-5,-1,-2,-2,-2
1558440614962382,-3,-4,-2,5,0,0,-3,0
1558440614962382,-2,-4,-7,-5,-2,-4,-6,-2
1558440614975347,-1,-3,-2,-6,-2,-2,1,0
1558440614975347,-2,0,-4,3,0,-1,0,-4
1558440614976344,1,-1,3,-1,-4,-3,-1,-1
1558440614976344,-2,-1,0,-4,1,1,0,0
1558440614998285,-2,1,4,1,0,-1,-2,-2
1558440614998285,0,1,2,3,0,-1,0,0
1558440614999282,-1,-4,-6,-7,-2,-3,-1,-2
1558440614999282,3,4,0,-2,2,-2,0,2
1558440615007262,0,2,1,3,0,0,-3,1
1558440615007262,-4,1,1,-1,-2,0,-1,-1
1558440615022221,0,0,0,-2,0,-1,-1,0
1558440615022221,-1,-2,0,-1,-3,0,-1,-1
1558440615027208,0,2,-1,1,0,-1,0,-4
1558440615027208,3,0,3,-1,-1,-2,2,1
1558440615036183,2,3,5,1,-2,-2,0,2
1558440615036183,-5,-4,-6,-3,-4,-2,-2,-3
1558440615051144,-5,0,-3,-3,-1,0,2,-1
1558440615051144,0,-3,7,-3,-1,0,0,-1
1558440615059126,2,4,2,1,-1,-1,1,-1
1558440615059126,1,5,6,-1,1,0,1,1
1558440615072087,-1,-2,-4,-1,-2,-1,0,-2
1558440615072087,-1,0,-5,1,-3,-2,-3,-1
1558440615081065,-4,-4,-2,-3,0,0,-1,-1
1558440615081065,3,0,-1,-2,-3,-5,-1,-1
1558440615118963,-1,-2,-3,8,-3,0,-2,-3
1558440615118963,-2,3,5,3,1,2,-1,1
1558440615124948,-6,-11,-5,-7,1,0,1,-2
1558440615124948,-3,-3,-1,4,-2,-3,-3,-1
1558440615133923,-2,-5,-2,-3,-2,0,-2,1
1558440615133923,1,-1,-1,-6,-3,-3,-4,-1
1558440615135917,-1,-1,-5,0,-2,-2,-2,0
1558440615135917,1,4,1,5,0,0,0,2
1558440615136915,-3,-4,-2,-7,-2,-1,1,0
1558440615136915,-2,0,-5,-3,-3,-4,-4,-6
1558440615148881,-1,-1,-3,4,0,0,-1,-2
1558440615148881,3,-1,-1,-4,1,1,-1,2
1558440615149879,-1,-1,0,-4,2,1,0,-2
1558440615149879,-4,-7,-7,2,-3,-2,-1,-6
1558440615179800,2,10,4,3,0,0,-1,0
1558440615179800,-1,-2,1,-4,-1,-1,-1,-1
1558440615180798,-3,0,-2,1,-2,-3,-3,-2
1558440615180798,4,6,8,2,1,1,-2,3
1558440615184786,-1,-1,-2,-2,-2,-2,1,0
1558440615184786,-1,-14,2,-4,-3,-1,-1,-1
1558440615200744,0,5,-4,3,-1,0,-2,-1
1558440615200744,-2,-4,-7,-4,-2,-2,-2,3
1558440615202738,-2,0,2,-2,-2,-3,-4,-1
1558440615202738,-2,0,-3,-2,-3,-3,-2,-1
1558440615206728,2,3,-4,-1,-1,-3,0,1
1558440615206728,1,-2,-1,-2,0,-2,4,1
1558440615223681,-3,0,3,0,-1,1,-4,-4
1558440615223681,2,5,0,1,1,2,0,2
1558440615229666,-1,-1,-1,-3,-4,-2,-4,-3
1558440615229666,-2,0,0,2,1,1,1,0
1558440615254600,0,-2,-3,-2,-3,-4,-1,-3
1558440615254600,-2,-2,-2,-1,-2,-1,-2,-3
1558440615254600,-1,-3,2,-4,-1,2,-2,0
1558440615254600,0,-1,0,2,0,1,0,1
1558440615260584,1,0,1,3,-1,0,-1,1
1558440615260584,-3,-4,-5,-2,-1,-2,-1,1
1558440615274546,-2,-2,0,0,0,-1,0,-4
1558440615274546,-3,-4,-6,-2,-1,-2,0,-2
1558440615283522,2,0,0,-2,-2,0,0,0
1558440615283522,-3,-1,-6,-3,-2,0,-3,-1
1558440615306460,-1,1,2,0,-1,-2,-1,3
1558440615306460,0,-1,-2,-2,-1,-3,-3,-1
1558440615307458,-1,-2,-4,-2,-2,-2,0,0
1558440615307458,2,1,-1,0,-1,-3,0,-2
1558440615312444,0,-2,0,-2,-2,-1,-2,-2
1558440615312444,-1,1,-4,1,0,0,-1,-2
1558440615321421,0,-5,-1,0,-1,0,2,0
1558440615321421,-5,-3,-1,-1,0,-2,-1,-4
1558440615327404,-1,-2,-3,-1,-3,-4,-1,-1
1558440615327404,-1,-7,1,0,2,1,0,1
1558440615344360,1,-1,-1,-1,-1,0,0,-2
1558440615344360,1,3,4,-3,-1,-1,1,0
1558440615349347,1,-1,-2,-1,-2,-2,-1,0
1558440615349347,1,7,6,1,-1,-1,0,1
1558440615373282,0,-3,-5,-4,0,-1,-1,0
1558440615373282,-1,1,4,0,1,1,2,-3
1558440615373282,-8,-14,5,0,2,-1,-1,0
1558440615373282,1,7,-4,-2,-4,-3,-3,-2
1558440615381261,-3,-1,2,-1,2,1,-1,-2
1558440615381261,-2,-1,0,0,-1,0,-1,1
1558440615387246,0,2,3,1,0,1,2,5
1558440615387246,-1,-2,-3,-1,-2,-1,-2,0
1558440615403202,-2,-6,-3,-2,-3,-3,-1,0
1558440615403202,-1,1,-5,0,0,0,0,-2
1558440615409186,3,2,1,0,3,1,1,-1
1558440615409186,-4,-7,-1,-3,-1,-1,-1,-2
1558440615426140,-2,3,2,1,-4,-3,-5,-4
1558440615426140,3,2,-1,0,0,0,-1,2
1558440615432125,0,-3,1,-4,-2,0,-2,-1
1558440615432125,-2,-1,-5,-2,-2,0,0,1
1558440615449080,-1,-3,-2,-2,-2,-3,1,0
1558440615449080,-8,-6,-9,-4,-6,-4,-3,-9
1558440615450077,3,3,0,2,-1,-1,0,-1
1558440615450077,-3,-7,-4,0,-1,-1,-2,-3
1558440615479997,-3,0,1,-2,-1,0,0,1
1558440615479997,-3,-3,-1,-1,-1,-1,-2,1
1558440615480995,0,2,-3,2,3,1,1,0
1558440615480995,-1,-3,1,-3,-2,-3,-2,-3
1558440615484985,0,-2,-5,-1,-1,-1,0,0
1558440615484985,1,-2,0,1,0,-1,-1,2
1558440615500941,-2,0,-3,-3,-2,0,0,-2
1558440615500941,2,0,3,0,1,0,4,2
1558440615502935,-4,-11,-1,-2,-1,-2,0,-2
1558440615502935,0,-3,3,1,0,0,1,-1
1558440615506925,-2,-2,-3,-1,-2,-4,-3,-3
1558440615506925,1,-2,-4,-4,1,-1,0,0
1558440615531860,0,6,3,2,0,0,1,0
1558440615531860,1,1,-3,-3,-3,-1,1,0
1558440615532855,0,-1,-5,-1,-3,-2,0,0
1558440615532855,1,0,0,0,-2,1,-3,-1
1558440615561778,0,0,-2,0,0,-2,-3,-3
1558440615561778,1,11,-6,-1,0,-3,-2,-2
1558440615562776,2,7,12,-2,0,-1,0,-1
1558440615562776,-6,-4,-7,1,-1,1,0,-4
1558440615563773,-1,0,0,-2,0,0,0,1
1558440615563773,-2,-3,-5,-4,-2,-1,-2,-3
1558440615566765,0,-4,1,2,0,-1,0,-1
1558440615566765,-1,-3,0,-2,-2,-4,-2,0
1558440615583719,0,2,0,-1,-4,-1,-3,2
1558440615583719,-1,1,1,1,1,-1,-2,-2
1558440615589703,-2,2,-3,-2,0,-1,-1,-3
1558440615589703,0,0,6,-1,-2,-3,-1,0
1558440615605660,1,-3,-5,0,1,-1,-2,-2
1558440615605660,-1,0,-1,-2,-2,-1,-4,1
1558440615611645,-3,-2,0,0,-2,0,0,-2
1558440615611645,4,5,1,1,1,1,2,5
1558440615629597,-1,-4,-6,-3,-2,-1,-1,-6
1558440615629597,-2,0,1,-1,-1,0,0,0
1558440615634583,1,-5,-4,-2,-2,-3,-2,-1
1558440615634583,0,1,1,-1,-1,0,-3,0
1558440615659517,-1,0,1,-1,-1,-1,1,1
1558440615659517,-4,-8,-2,-2,0,-2,-1,-2
1558440615660515,-1,-2,-2,0,1,-1,0,0
1558440615660515,-2,-2,2,0,0,0,0,-4
1558440615672482,2,1,-1,-2,0,-1,-1,1
1558440615672482,-1,5,1,2,-3,-1,-4,-4
1558440615673480,-2,0,-1,-1,0,1,-3,-1
1558440615673480,-3,1,-2,-1,-1,-1,-1,-2
1558440615681458,-2,0,-2,-2,-3,-2,-2,-1
1558440615681458,-2,-3,-5,3,1,-1,1,-1
1558440615711378,-1,-5,-2,-1,1,-3,-2,0
1558440615711378,0,0,0,-2,-2,0,-2,0
1558440615713372,-1,-1,2,1,2,1,0,2
1558440615713372,-2,-5,-1,-4,-1,-2,0,-3
1558440615713372,1,3,-5,-1,-2,0,-1,-1
1558440615713372,2,11,-2,-1,0,0,0,-2
1558440615724343,-5,-12,4,-1,-1,-1,1,-2
1558440615724343,0,0,3,0,0,0,-1,0
1558440615732325,-1,0,-2,-2,-1,-1,-2,-2
1558440615732325,-2,-5,-2,-1,-1,-1,1,0
1558440615741297,-2,1,-3,-1,0,-2,0,-3
1558440615741297,-1,-4,0,-2,-1,-2,0,-1
1558440615763239,-3,-3,0,-3,-5,-4,-2,-1
1558440615763239,-1,-3,-1,-2,-1,-3,-2,1
1558440615765234,1,2,3,-1,-1,-1,0,0
1558440615765234,1,-3,-4,-1,-1,1,-1,-2
1558440615777202,2,2,2,3,2,1,-1,0
1558440615777202,-1,-3,-2,-4,-1,-2,-2,-2
1558440615786178,0,-1,-2,-1,-1,-2,0,1
1558440615786178,1,2,1,-1,-3,-1,-1,0
1558440615801138,-1,1,-1,-3,0,0,1,-1
1558440615801138,1,1,3,-1,1,1,3,0
1558440615802136,-1,-1,-3,0,-1,-2,-2,-1
1558440615802136,-3,-4,2,0,0,0,0,0
1558440615815101,0,-1,-6,-3,-3,-2,1,1
1558440615815101,-5,-6,0,-1,-1,-2,-3,-4
1558440615823080,-2,-2,-7,0,-1,-1,1,-3
1558440615823080,3,0,0,-1,2,0,1,1
1558440615830060,-2,1,1,0,-1,0,-1,0
1558440615830060,-2,-4,-4,-1,-2,-2,-2,0
1558440615854995,2,2,1,-2,0,0,-3,1
1558440615854995,-5,-8,-8,0,-2,-3,-3,-2
1558440615855991,-1,-2,-4,-3,-4,-3,-2,-1
1558440615855991,0,-1,-4,0,1,0,0,0
1558440615860978,-5,-3,1,-3,-2,-1,-1,-3
1558440615860978,-2,-4,-4,-1,0,1,1,0
1558440615883916,-4,-5,-1,1,0,-1,-1,-3
1558440615883916,-3,6,-5,-2,-3,-2,-1,-4
1558440615884914,-1,0,0,-1,-1,-1,-2,-3
1558440615884914,4,1,0,-1,0,-1,-2,0
1558440615889901,-2,-2,-1,-1,-1,-4,-1,-2
1558440615889901,1,-3,6,0,2,3,4,2
1558440615905858,0,1,-1,1,0,0,-1,2
1558440615905858,-3,2,3,-1,-1,-1,0,-2
1558440615911842,2,4,-1,-1,0,0,0,4
1558440615911842,-6,-9,-3,-1,-4,-2,-4,-7
1558440615920818,2,1,-1,0,2,-1,1,0
1558440615920818,-5,-6,-2,-6,0,-1,-2,-2
1558440615934779,-3,-3,-3,0,-2,-3,0,-1
1558440615934779,3,-2,-1,0,2,2,3,-1
1558440615959713,1,2,-2,-1,-1,0,0,0
1558440615959713,0,1,-1,-1,-1,-1,-4,-5
1558440615959713,-3,0,-2,-2,-1,0,-2,0
1558440615959713,-1,-3,4,0,0,1,-2,-2
1558440615965697,-2,-1,-3,-2,-1,-1,-1,-3
1558440615965697,0,4,7,2,-1,0,2,1
1558440615980657,-3,-3,-2,0,-2,-1,-2,-2
1558440615980657,-1,-3,-6,-3,-1,-2,-1,-1
1558440615982652,-2,-3,2,1,-2,0,1,-2
1558440615982652,-4,-4,-4,-2,-2,-5,-2,2
1558440615994619,3,2,4,-3,-1,-1,-1,-3
1558440615994619,-10,-6,-6,-4,-5,-5,-6,-4
1558440616011575,-4,-3,0,1,-2,-1,0,-1
1558440616011575,-1,3,-1,-1,0,0,-1,-1
1558440616012572,0,-5,0,0,-1,-1,2,0
1558440616012572,0,-1,-5,-3,-4,-1,-1,1
1558440616025537,5,1,0,-3,-3,-4,1,2
1558440616025537,-4,-6,-7,-4,-3,-2,-3,-6
1558440616032518,-1,-3,1,-1,0,-4,-4,-3
1558440616032518,0,0,3,2,2,0,1,-4
1558440616040497,-3,-9,-1,-5,-2,-2,-2,0
1558440616040497,-2,2,3,0,-1,-1,-1,-3
1558440616054459,-1,-1,-1,1,-2,-1,0,0
1558440616054459,1,2,-1,-2,-1,-1,-1,1
1558440616063436,-2,3,-1,0,1,1,-2,-2
1558440616063436,0,1,-1,0,-1,0,1,1
1558440616077398,-2,-4,-1,-1,-2,-1,-2,1
1558440616077398,0,-1,-7,-3,-3,-2,-1,0
1558440616086375,-3,-2,-6,-1,-3,-3,-3,-2
1558440616086375,3,1,1,-1,-2,-2,-1,1
1558440616108316,-3,-4,-1,-3,1,1,0,0
1558440616108316,1,-6,-8,-2,-1,0,-1,1
1558440616110328,-4,-1,-8,-2,-4,-4,-5,-6
1558440616110328,-2,-3,2,-2,0,0,1,0
1558440616114299,-2,1,-4,0,0,1,-2,-4
1558440616114299,8,9,15,2,5,4,4,5
1558440616131253,0,-1,2,0,2,1,0,-3
1558440616131253,1,3,1,1,-1,-1,-2,0
1558440616132251,2,3,1,0,2,2,2,1
1558440616132251,-2,0,3,1,-2,0,0,0
1558440616162175,1,3,3,-1,-1,-1,1,1
1558440616162175,1,1,-3,0,-1,-1,3,1
1558440616163168,-2,2,-1,2,3,1,1,-2
1558440616163168,-5,-2,-3,-4,-2,-4,-3,-3
1558440616167157,1,-2,6,-2,-1,0,1,2
1558440616167157,-4,-2,0,2,0,0,-3,-4
1558440616183152,0,-2,-6,-5,-2,0,0,0
1558440616183152,-2,-3,-3,-2,0,-1,-1,-1
1558440616190133,0,0,1,-2,0,1,0,-2
1558440616190133,-1,0,3,0,-1,-2,0,-2
1558440616191094,-2,-4,-5,-2,-4,-7,-4,-3
1558440616191094,-2,-2,-1,0,-1,-2,0,-1
1558440616206054,-4,-4,-1,2,-2,1,-2,0
1558440616206054,-1,-4,-5,-6,-2,0,-1,-2
1558440616212039,0,-3,-2,-2,-1,1,-1,-2
1558440616212039,-2,-4,-4,0,-1,-4,-5,-4
1558440616227027,-3,1,3,0,0,1,-1,-1
1558440616227027,-3,-8,-5,-3,0,-1,-2,-1
1558440616235015,-2,-3,3,-1,-1,-1,2,1
1558440616235015,-1,1,2,0,-1,-3,-2,-4
1558440616257914,-1,-3,-7,-2,1,-3,0,-1
1558440616257914,1,4,3,2,0,0,1,2
1558440616258916,4,3,1,1,1,0,-1,0
1558440616258916,4,4,5,0,-3,1,3,4
1558440616265894,-2,-3,-4,-2,-4,-1,-1,-2
1558440616265894,-1,-1,-3,-1,0,0,-1,-4
1558440616271879,-2,-2,-1,0,0,-2,0,2
1558440616271879,-3,-5,-3,-3,-3,-2,-3,-3
1558440616286838,-1,2,0,-3,0,-2,-2,-2
1558440616286838,0,-1,0,0,-2,1,-1,0
1558440616294818,0,3,0,-3,-3,-2,-3,-1
1558440616294818,-2,1,0,0,1,1,1,-3
1558440616311771,-2,-4,-2,-1,-2,-2,-2,-3
1558440616311771,0,2,0,-3,-1,-2,0,1
1558440616312769,-4,0,2,0,0,0,-2,-4
1558440616312769,-3,-5,-7,-3,-4,-4,-6,-1
1558440616333713,-1,0,1,2,-1,0,0,-4
1558440616333713,-1,-4,-7,-5,-3,-3,0,-2
1558440616334709,0,-1,-2,-3,0,1,2,1
1558440616334709,-2,1,0,0,-1,-4,-2,0
1558440616346721,2,1,-2,0,0,-1,1,1
1558440616346721,0,0,0,0,-2,-3,-1,-1
1558440616354657,-1,-1,-1,0,-2,-1,1,0
1558440616354657,-1,0,-2,1,1,3,-2,-1
1558440616386572,0,1,0,-3,0,-2,-1,-2
1558440616386572,0,-2,2,2,-1,0,-2,-2
1558440616387569,-1,4,-2,-1,1,0,-1,-2
1558440616387569,-1,-2,2,1,0,-1,2,0
1558440616388565,0,-1,-1,-3,-1,0,-1,-1
1558440616388565,1,6,5,-2,1,1,0,2
1558440616392555,0,-3,0,1,0,0,-3,-1
1558440616392555,-1,2,2,1,0,0,-1,-5
1558440616408512,-1,-3,-6,-4,-1,-2,-1,1
1558440616408512,3,0,0,0,0,1,1,0
1558440616414533,-6,-5,-4,-4,-2,-2,-5,-5
1558440616414533,-4,0,-1,-1,-3,-5,-5,-5
1558440616437472,-2,0,0,2,0,-2,-2,-2
1558440616437472,-2,-3,-6,-2,-2,-2,-3,-3
1558440616438432,-1,-3,-2,0,-4,-2,-1,-3
1558440616438432,-2,-3,-2,0,-1,-2,-3,-2
1558440616446448,-1,1,1,-1,-1,2,0,2
1558440616446448,-2,1,3,4,3,0,1,0
1558440616452394,0,0,-1,-2,-1,-3,-1,-1
1558440616452394,-1,-2,-1,0,1,1,1,-1
1558440616467357,0,1,-1,-1,-1,-2,-1,-2
1558440616467357,-2,0,-2,2,0,-1,-2,0
1558440616474337,-2,0,0,1,-3,-1,-4,-5
1558440616474337,3,0,-2,-3,0,3,1,0
1558440616491291,-1,-2,0,-1,-4,-3,-3,0
1558440616491291,-3,-8,-5,-2,-3,-3,-3,-2
1558440616492288,-1,-1,-3,-4,-1,-1,0,1
1558440616492288,0,0,-2,-2,-1,0,0,2
1558440616506250,0,-2,-2,0,0,1,-1,-1
1558440616506250,-2,-4,-3,-5,-2,-3,-1,-4
1558440616512274,2,-3,2,-1,0,0,1,2
1558440616512274,-3,-1,0,0,0,2,1,0
1558440616527196,1,1,1,0,-1,-1,-1,0
1558440616527196,-3,-2,-3,-5,-4,-2,-2,-3
1558440616534175,1,0,-3,-1,-2,0,1,0
1558440616534175,1,-2,-3,-1,-1,-1,0,1
1558440616550133,-4,0,-2,-2,-2,-2,-2,-3
1558440616550133,3,4,6,3,1,3,2,0
1558440616557115,-3,-1,-4,-2,-4,-3,-5,-6
1558440616557115,-2,-5,-2,-1,-2,-1,-3,-5
1558440616566090,-4,-4,-3,-2,-2,-1,-1,0
1558440616566090,-2,2,-1,-2,-1,-1,0,1
1558440616572077,-1,1,4,-1,2,-2,1,-4
1558440616572077,1,1,2,-1,1,-1,1,-1
1558440616588033,-1,-2,-2,1,0,0,-1,-4
1558440616588033,1,1,-2,-1,-2,-1,-1,0
1558440616595013,0,-1,-3,0,0,-1,0,2
1558440616595013,-3,-2,1,0,-2,-2,-1,0
1558440616610007,2,0,2,0,-2,-1,1,2
1558440616610007,-7,-7,-3,-2,-1,-1,-2,-2
1558440616616954,2,4,3,1,0,0,-1,2
1558440616616954,-3,-2,0,0,-3,-2,1,-2
1558440616625947,2,2,2,0,0,-1,-1,0
1558440616625947,-2,-5,-5,-3,-1,-1,-2,-4
1558440616632995,-3,-3,0,-1,-1,-1,1,0
1558440616632995,1,3,0,-2,1,0,1,1
1558440616647900,-1,-3,-2,-1,-1,-3,-1,-2
1558440616647900,1,1,3,1,0,-3,-1,-2
1558440616663107,-2,-1,-5,-1,-2,-2,-1,-2
1558440616663107,-1,-3,-1,-1,-2,-2,0,2
1558440616669845,-1,-5,-8,-5,-2,-1,-1,0
1558440616669845,2,5,3,1,-1,1,0,1
1558440616684806,2,1,0,-2,-1,-1,0,4
1558440616684806,-5,-6,-2,-3,-2,-1,-2,-4
1558440616692785,1,1,-2,1,-3,-2,-2,-1
1558440616692785,2,-1,-1,0,1,-1,-3,1
1558440616693783,-3,-6,-4,-2,-2,-1,1,-4
1558440616693783,-2,-3,-3,-2,-3,-1,-2,-4
1558440616706745,1,1,3,1,2,1,1,-1
1558440616706745,-2,-2,-1,-1,-1,3,0,-2
1558440616714724,0,0,0,0,-3,0,-3,-1
1558440616714724,4,3,-2,1,0,-2,1,3
1558440616737722,-2,-5,-2,-1,0,2,0,-2
1558440616737722,-3,-3,-4,-1,0,-2,-1,-1
1558440616738661,0,-1,1,0,0,0,1,-2
1558440616738661,1,0,-1,-1,-1,2,0,0
1558440616752625,-3,-1,-2,-2,-2,-2,-1,2
1558440616752625,1,2,3,0,0,1,1,0
1558440616753620,1,0,-3,-1,0,-1,-1,0
1558440616753620,1,0,-3,-2,0,1,-1,-1
1558440616766585,-3,-2,0,-1,-1,-3,0,-2
1558440616766585,-1,-3,-1,0,-2,-1,-2,-1
1558440616790521,-4,-3,-1,-3,-2,-3,-3,-1
1558440616790521,1,3,2,0,0,0,-2,-2
1558440616792516,-2,0,-2,-1,-1,-1,0,1
1558440616792516,-2,-3,-3,0,-1,-1,-1,-3
1558440616797560,-1,-3,-3,-1,-1,-2,-1,-1
1558440616797560,-2,-2,0,-1,-1,-1,-2,0
1558440616814456,-4,-1,-3,-2,-2,0,-1,-3
1558440616814456,0,3,1,-4,-1,-4,0,-1
1558440616814456,-3,-2,-3,-1,-1,-1,-1,-1
1558440616814456,-3,-1,-2,0,-2,-1,-1,-2
1558440616827427,2,0,-3,-2,-1,1,0,1
1558440616827427,0,-1,-1,-2,1,2,-1,0
1558440616834405,-4,-1,-2,-1,0,0,-2,-4
1558440616834405,-1,-5,-4,0,-3,-4,-2,-1
1558440616866352,1,0,1,-1,1,1,0,0
1558440616866352,-3,-1,-1,-2,-3,-2,-2,-1
1558440616866352,1,-1,-1,-1,-3,-4,-1,-1
1558440616866352,-1,-2,-1,-1,0,0,-3,-3
1558440616872301,-1,-1,-1,0,0,-1,-3,-2
1558440616872301,-1,0,0,1,-1,-3,-1,-1
1558440616873299,-2,-3,-4,-5,-2,-3,1,0
1558440616873299,-2,0,-2,-3,-2,-1,0,-3
1558440616887263,1,-2,-1,-1,-1,-2,0,0
1558440616887263,-2,-2,-2,-1,0,0,-2,-1
1558440616894244,0,0,-3,-1,0,-1,1,2
1558440616894244,0,2,-3,-3,-2,-3,1,-1
1558440616909235,1,-1,1,0,-1,1,0,-1
1558440616909235,-2,-1,0,1,0,1,-1,-1
1558440616917220,0,-3,0,1,1,0,-1,-1
1558440616917220,1,-1,1,1,0,2,-1,-1
1558440616933139,-1,-2,-1,-2,0,-1,-2,-2
1558440616933139,0,-2,-2,-1,-2,-1,0,2
1558440616933139,2,4,2,3,1,0,0,1
1558440616933139,0,-3,-1,-3,-2,-2,0,3
1558440616947101,1,-1,-2,-1,1,-1,1,2
1558440616947101,-2,-4,0,-2,-2,-2,-4,-6
1558440616963066,0,3,-1,0,-1,1,-1,-1
1558440616963066,-3,0,-1,-1,-3,-3,-3,-1
1558440616970042,-2,-1,-4,0,-1,-1,-4,-2
1558440616970042,-2,-4,-4,-2,-3,-1,-2,0
1558440616977022,-1,-2,-3,-3,1,0,-2,-1
1558440616977022,1,-3,0,0,1,1,2,-1
1558440616993977,2,1,2,-1,-1,2,0,-1
1558440616993977,1,3,-2,-2,0,1,1,-1
1558440616994976,-2,-4,-1,-2,-1,0,-2,0
1558440616994976,-1,-1,-1,-1,-1,0,-2,-1
1558440617024380,-1,-1,0,-1,-1,-2,3,1
1558440617024380,0,-1,-5,0,-2,-2,0,0
1558440617024380,0,4,4,4,0,2,2,-2
1558440617024380,-1,0,-4,0,-1,-4,-1,1
1558440617038290,-4,-2,1,0,0,0,-4,-5
1558440617038290,-1,-1,-4,-3,-1,-1,-2,2
1558440617038858,1,0,2,0,1,1,-2,0
1558440617038858,-1,-2,0,-1,-1,-2,0,-3
1558440617068777,0,3,-2,-1,-2,-3,0,1
1558440617068777,-1,-2,-1,-1,0,-1,0,-3
1558440617069775,-3,-3,0,-3,-2,-1,-2,-1
1558440617069775,-1,-3,1,-2,1,1,0,3
1558440617071768,-1,-1,0,0,-1,-2,-1,-2
1558440617071768,-1,3,1,0,-1,1,1,0
1558440617074762,-2,-5,-3,-3,-3,-1,-2,-2
1558440617074762,2,-2,-3,-3,-1,-2,-1,-3
1558440617090162,-1,-2,-4,0,-2,-2,-1,-1
1558440617090162,-1,-5,-4,-2,-2,-2,-3,0
1558440617097991,1,4,2,2,-1,0,-2,-2
1558440617097991,-2,-2,0,-1,0,2,-1,-1
1558440617114655,-6,-5,-6,-3,-1,0,-2,-2
1558440617114655,-1,2,2,-1,0,-2,-1,0
1558440617115685,-5,-6,-4,-1,-1,0,-2,-1
1558440617115685,-1,3,3,-1,1,-1,-2,-3
1558440617127619,1,-3,-3,-4,-1,-2,-2,1
1558440617127619,0,1,1,1,-1,-1,0,-1
1558440617142643,1,-2,-3,-3,-2,-2,-1,2
1558440617142643,-1,2,3,2,-1,1,0,1
1558440617149640,-2,-1,0,-1,-2,0,-1,-1
1558440617149640,-2,-7,-5,-2,-1,-1,-1,-1
1558440617157592,-1,2,4,1,-1,-1,-2,-2
1558440617157592,-2,-2,-3,-3,-2,0,-2,-1
1558440617172615,-1,2,0,0,-1,-4,-2,-3
1558440617172615,-1,0,1,0,0,1,2,0
1558440617173610,-2,0,-1,-1,-1,-1,0,-3
1558440617173610,-1,-1,-1,0,0,0,-3,-1
1558440617212508,3,4,3,0,-3,0,-1,0
1558440617212508,0,-1,0,-1,0,0,-3,-1
1558440617213502,0,2,2,0,-1,-2,-1,0
1558440617213502,0,0,-1,0,0,-3,0,-1
1558440617214501,1,1,1,1,0,2,0,1
1558440617214501,-2,-1,-1,-1,0,1,-2,-3
1558440617217640,-2,-3,-4,-3,-3,-2,0,-1
1558440617217640,-2,-2,-3,0,-1,0,-1,-2
1558440617240617,-1,-2,-2,-4,-1,1,-1,1
1558440617240617,2,-3,-1,-1,0,-2,-1,0
1558440617241575,0,-3,-1,1,2,-1,-3,-2
1558440617241575,-2,0,1,0,-2,-2,0,-3
1558440617247579,-2,-3,-3,-2,0,-4,-3,-3
1558440617247579,-1,-2,-2,-1,-2,-1,0,0
1558440617254580,2,3,0,-1,-1,0,2,0
1558440617254580,2,-3,-6,-5,-1,-4,-2,-2
1558440617269498,-2,-2,-2,-2,-2,-2,-2,0
1558440617269498,-4,-5,1,2,-1,0,0,-1
1558440617277506,-2,-3,-1,-2,-1,-3,0,-2
1558440617277506,0,0,-5,-3,-1,3,1,1
1558440617301452,1,1,1,0,0,0,2,-1
1558440617301452,-2,2,3,-1,-1,-2,-2,-2
1558440617301452,-3,-5,0,-2,-1,-2,0,0
1558440617301452,-1,0,1,0,-2,1,0,0
1558440617307429,-1,-5,-3,-2,-2,-2,-2,-1
1558440617307429,3,0,-4,-4,-3,-1,1,0
1558440617322391,1,1,0,-1,0,0,0,0
1558440617322391,3,2,3,3,0,-1,0,1
1558440617337349,-2,3,-2,-1,-2,-1,-3,-2
1558440617337349,-3,-1,-1,-1,1,0,-3,-2
1558440617338315,-2,-2,-5,-1,-4,0,-4,0
1558440617338315,2,4,2,-1,2,2,2,1
1558440617352283,-2,0,-1,-1,2,1,-1,-2
1558440617352283,-3,0,0,0,-2,-2,1,-3
1558440617353277,-1,-3,-11,-3,-1,-1,-2,1
1558440617353277,-1,-3,-2,0,-1,-1,-1,-2
1558440617367238,-1,-2,0,-1,0,-1,0,0
1558440617367238,0,-2,0,1,-2,-1,0,0
1558440617374220,-4,-2,-4,-3,1,-1,0,-7
1558440617374220,-1,0,-1,-2,-2,-2,-1,0
1558440617391175,-5,-6,-7,-4,-1,-2,-4,-3
1558440617391175,0,-4,-1,-2,-1,-3,0,2
1558440617397158,1,4,7,3,2,0,1,2
1558440617397158,-1,-2,-2,0,0,-2,-2,-2
1558440617413115,-2,-2,3,2,0,-1,3,1
1558440617413115,0,3,-1,-1,-1,-1,-2,-1
1558440617413115,-1,-3,-5,-6,-4,-2,1,-1
1558440617413115,-5,-4,3,-2,-1,-2,-2,-3
1558440617427220,2,1,2,1,0,0,-1,-1
1558440617427220,-2,0,-4,0,0,0,-1,-2
1558440617443223,0,0,2,1,-1,-1,-1,0
1558440617443223,-1,0,-2,-2,0,-1,-2,-3
1558440617450200,0,-2,-1,-2,-1,-2,1,-1
1558440617450200,4,2,0,-1,0,1,1,7
1558440617473951,-2,3,-2,0,1,2,-2,-4
1558440617473951,-1,3,9,-3,1,0,-1,1
1558440617474952,-1,0,0,1,-1,-3,-1,-2
1558440617474952,-1,-4,-3,-4,-2,-2,-1,-1
1558440617488940,-1,0,-4,-1,-2,-2,-2,-1
1558440617488940,-2,-3,-4,0,-3,-1,1,1
1558440617489908,2,3,3,0,1,-2,-1,0
1558440617489908,-1,0,0,-3,-2,-2,-4,-3
1558440617494937,-4,-6,-2,-2,-2,-2,-3,0
1558440617494937,0,-5,-3,-2,-1,0,-1,1
1558440617517835,0,-2,-3,2,2,2,-1,-2
1558440617517835,-1,-1,-2,0,-2,0,-1,-3
1558440617518831,1,-1,2,-1,0,-1,-1,-3
1558440617518831,-2,-1,-3,-2,-3,-2,-3,-5
1558440617540804,-1,-1,-2,0,-1,-1,-1,-1
1558440617540804,-1,-1,0,0,-1,0,1,1
1558440617541770,-3,-2,-2,1,1,-2,-4,-1
1558440617541770,0,2,3,1,-1,-1,2,2
1558440617546791,1,0,-1,-2,-4,-1,0,0
1558440617546791,-2,-4,-1,1,-1,-1,-2,-3
1558440617554765,1,2,3,-3,-2,0,-1,0
1558440617554765,0,-2,0,-1,-2,-1,-1,3
1558440617569728,0,1,-4,-3,-3,1,-2,-2
1558440617569728,1,-1,0,-1,-2,0,-1,-1
1558440617576707,3,0,2,0,0,1,3,2
1558440617576707,0,2,0,-1,1,-4,-1,-3
1558440617593634,1,0,2,1,0,0,0,0
1558440617593634,-4,0,-1,-1,1,-1,-1,-3
1558440617599646,-2,-3,-2,-3,-2,-1,-1,0
1558440617599646,-2,-2,-1,-2,-2,-2,-2,-1
1558440617624579,-1,-2,-3,-4,-3,-2,1,2
1558440617624579,-1,2,3,-1,1,-1,-1,-3
1558440617625548,0,-4,-3,-2,0,-2,-1,-1
1558440617625548,0,-4,-2,-1,-2,-3,-3,-3
1558440617629556,-1,0,1,-2,-2,-1,-2,1
1558440617629556,-3,-4,-2,-6,-1,-1,-1,-1
1558440617637583,-1,2,-1,-1,0,-2,-3,1
1558440617637583,-2,-4,-5,-1,-2,-1,-1,-2
1558440617651619,0,-2,-2,-1,-2,-5,-1,-1
1558440617651619,0,3,-2,-2,-2,1,0,-1
1558440617667606,1,-1,0,-3,-1,-2,1,-1
1558440617667606,-1,-5,-5,-2,-2,1,-1,1
1558440617675586,-4,-1,0,1,-2,-2,-3,-6
1558440617675586,0,-2,-3,0,0,-1,-1,-2
1558440617675586,0,0,3,-1,0,0,2,2
1558440617675586,-3,1,1,0,1,1,-2,-1
1558440617691543,-4,-1,-4,-3,-3,-2,-3,-2
1558440617691543,1,-1,-2,0,-1,-1,-1,-2
1558440617697527,-3,-6,-9,-2,-3,-3,-1,-4
1558440617697527,-2,-4,-2,-2,-1,-1,0,1
1558440617720468,-1,2,-1,-1,1,1,1,3
1558440617720468,-2,-6,-1,-3,-3,-4,-3,-2
1558440617721433,-1,1,-2,1,-2,-2,-2,0
1558440617721433,-2,-2,-5,-2,-1,-2,-2,-4
1558440617735398,-1,-1,0,-1,0,0,0,-2
1558440617735398,1,0,-2,-2,0,0,-1,3
1558440617736396,-1,-2,-1,0,-2,-2,-4,-5
1558440617736396,-2,-5,1,-1,0,2,0,-1
1558440617751355,0,0,2,0,0,0,2,1
1558440617751355,-2,-2,-1,5,0,-1,-2,-3
1558440617765355,1,1,4,1,0,-1,-1,2
1558440617765355,2,4,1,-2,0,-2,-1,1
1558440617772328,-1,-3,1,1,-1,0,-3,-3
1558440617772328,0,-1,-1,-4,-1,-2,-1,0
1558440617779313,-1,1,-3,0,0,0,0,-2
1558440617779313,-2,1,0,0,-1,-4,1,-2
1558440617795500,-1,1,1,2,2,3,2,0
1558440617795500,-2,-5,-2,-2,-1,0,-1,-1
1558440617796245,-3,0,2,-2,-2,-2,-2,-3
1558440617796245,0,1,-3,0,-2,0,1,0
1558440617818174,-1,-4,0,-2,-3,-4,-2,0
1558440617818174,-1,-2,0,0,-1,-1,-2,-5
1558440617818174,-1,-3,-3,-1,0,1,-1,0
1558440617818174,-1,-3,-1,-1,-1,0,-1,-1
1558440617832175,-3,-2,-1,-2,-4,-4,-3,1
1558440617832175,-2,-1,0,0,1,1,3,1
1558440617839118,-2,-2,0,0,-2,-2,-1,-1
1558440617839118,0,1,2,-1,0,-2,-4,-2
1558440617855075,-4,-6,-4,-4,-1,0,-2,-2
1558440617855075,2,5,2,0,0,0,1,3
1558440617856072,0,0,-1,-2,-1,0,-2,-2
1558440617856072,0,-5,-2,-2,-1,-2,-1,-2
1558440617869039,2,3,0,1,1,1,-2,-1
1558440617869039,0,0,0,0,0,-1,-2,1
1558440617877355,0,-1,-4,-5,0,0,-1,1
1558440617877355,2,5,1,0,3,1,1,2
1558440617901952,1,0,-2,-2,-3,-3,0,-2
1558440617901952,-6,-7,0,0,-2,-2,-1,-3
1558440617901952,3,2,3,1,1,-2,0,1
1558440617901952,0,3,-5,-2,-3,0,-3,-1
1558440617916114,0,-5,-4,-2,-2,0,-1,-3
1558440617916114,-2,1,0,-1,-2,-1,-2,0
1558440617916114,-2,-5,-3,-2,-2,-3,-3,-1
1558440617916114,-4,-3,-2,-1,-3,-2,-2,-2
1558440617930214,0,-1,0,-1,0,-1,-1,0
1558440617930214,-4,0,-2,-4,-2,-3,-2,-3
1558440617937991,0,2,-1,0,-1,-1,0,-1
1558440617937991,2,2,1,2,0,1,2,2
1558440617951820,-1,-4,-2,0,-1,-3,-3,-1
1558440617951820,0,-2,-4,-5,-3,-2,-4,-2
1558440617960064,0,2,2,0,1,1,1,4
1558440617960064,-3,-3,-3,0,-1,-1,-2,-6
1558440617976786,-1,0,-1,0,-2,-1,1,-3
1558440617976786,1,2,0,1,1,0,-1,3
1558440617977749,-2,-2,1,-2,-2,1,-1,2
1558440617977749,-4,-6,-3,-2,-2,0,1,0
1558440617997723,1,1,1,2,1,2,3,3
1558440617997723,-1,-3,-5,-3,-1,-2,0,-2
1558440617998720,-5,-1,-2,-1,-3,-1,-2,-3
1558440617998720,-1,-1,0,-1,-2,-2,-1,2
1558440618011657,-2,1,1,-3,-1,-2,-2,-1
1558440618011657,0,-2,-2,-1,-1,0,0,-1
1558440618019636,-2,-3,-2,3,0,0,-1,-3
1558440618019636,1,-3,-4,-2,-2,-3,-2,-1
1558440618043963,-1,-3,-4,-5,-3,-4,-2,-1
1558440618043963,-1,2,1,0,-1,0,-2,-3
1558440618044570,-1,-3,-3,-3,0,-2,1,-1
1558440618044570,-1,0,2,0,0,0,-2,-1
1558440618049906,0,1,1,0,0,2,2,-1
1558440618049906,-2,-5,-4,-1,-3,-3,0,-1
1558440618057895,1,0,0,-3,-2,-4,-2,-2
1558440618057895,-1,0,0,0,-1,-1,-1,-1
1558440618073666,-3,-4,-5,0,0,-1,-4,-3
1558440618073666,0,1,0,0,0,0,-1,2
1558440618079825,-3,-6,-1,-1,-3,-2,-1,-3
1558440618079825,-1,-1,1,-1,-2,0,1,0
1558440618096751,2,2,-1,-1,1,1,-3,-3
1558440618096751,1,1,2,-1,-1,1,-2,-2
1558440618097428,-2,-3,-3,-1,-2,-1,-2,-1
1558440618097428,0,0,0,0,0,-3,-2,-2
1558440618109444,-2,-1,1,2,-2,-2,-1,0
1558440618109444,-1,-1,-1,-1,0,-2,0,-2
1558440618125652,-1,-1,-1,0,-1,0,-1,-1
1558440618125652,-2,-2,-4,-3,-2,-2,-4,-2
1558440618132648,-3,1,0,-1,-1,-2,-3,-2
1558440618132648,-5,-5,-4,-3,-1,-1,-2,-6
1558440618140444,0,3,-1,1,0,-1,-1,-3
1558440618140444,1,2,1,0,1,1,1,2
1558440618155571,-1,-1,-2,-3,-2,-2,-2,0
1558440618155571,-1,-1,-2,1,-2,-2,0,-1
1558440618156272,0,0,2,0,0,0,1,2
1558440618156272,-4,-5,-6,-5,-3,-2,-4,-3
1558440618171260,0,-5,-1,-1,1,0,-2,-2
1558440618171260,0,-1,3,3,0,-1,-3,-1
1558440618177269,-4,-2,-1,-2,-1,-1,-1,-1
1558440618177269,1,-2,-2,-2,-1,-2,0,-1
1558440618200153,0,0,0,-2,0,-1,-1,-1
1558440618200153,0,0,-2,-1,0,-1,1,2
1558440618201187,-2,0,0,-1,0,-1,-2,-1
1558440618201187,-1,-2,0,1,-1,-2,-1,-1
1558440618223091,-2,-1,-3,-2,0,-1,-1,-3
1558440618223091,2,-2,-4,-1,-1,-3,1,3
1558440618224088,0,-3,0,0,-3,0,-1,-2
1558440618224088,-3,-2,-2,-2,-1,0,0,0
1558440618229104,-1,-1,1,-1,-1,0,-1,-1
1558440618229104,-1,-1,-1,-2,-1,0,-2,-1
1558440618254211,-1,-1,-3,-1,-2,-2,1,-2
1558440618254211,2,1,1,-1,-1,-1,0,-1
1558440618255009,0,3,2,-1,0,0,-1,0
1558440618255009,-2,0,-3,-1,0,0,-2,1
1558440618260318,0,-2,-2,-2,-1,-2,-3,-1
1558440618260318,-1,2,2,-2,-2,0,0,-2
1558440618276948,2,0,-1,0,0,-1,0,1
1558440618276948,-2,-3,-2,-4,-2,-2,1,-1
1558440618278195,-3,-2,-3,-2,-2,-3,-3,-4
1558440618278195,-1,0,2,2,1,2,-1,-1
1558440618290259,0,-1,0,-1,-2,-1,0,0
1558440618290259,-1,-1,-3,-3,-4,-2,0,0
1558440618297892,2,6,1,-1,-1,0,1,-1
1558440618297892,-2,-4,-8,-3,-3,-1,-3,0
1558440618312962,-2,-2,-1,-1,-2,-2,-1,-2
1558440618312962,0,-4,2,-3,0,-1,-1,0
1558440618319833,-2,0,2,-1,0,0,-1,0
1558440618319833,2,2,3,1,1,0,-1,0
1558440618335006,-4,-3,0,0,-2,-1,-2,0
1558440618335006,2,4,-2,-3,0,3,-1,-2
1558440618335789,-3,-4,-6,-2,-1,0,-4,-2
1558440618335789,0,-1,1,-3,0,-1,1,1
1558440618351045,-2,-1,-3,-3,-1,-2,-1,0
1558440618351045,-2,3,2,1,-2,-4,1,1
1558440618356739,2,3,3,3,1,2,-1,1
1558440618356739,-3,-7,-7,-5,-2,-2,-3,-2
1558440618381672,0,-1,-1,-2,-1,-2,-1,0
1558440618381672,-1,1,1,0,0,-1,-1,-1
1558440618382663,-4,-3,-4,-2,-1,-4,-1,-4
1558440618382663,0,3,1,0,0,0,-1,-2
1558440618394634,-1,1,0,1,-3,-1,-1,0
1558440618394634,-1,-1,-1,-1,-2,-1,-1,-2
1558440618402614,3,2,-3,-2,-1,0,0,5
1558440618402614,2,-3,2,1,-1,-1,-1,-3
1558440618409594,-2,-3,-1,1,0,0,-3,-4
1558440618409594,0,-3,-4,-3,-3,0,-1,-2
1558440618417932,2,1,3,0,-1,-2,0,1
1558440618417932,-1,0,0,1,0,-1,0,1
1558440618432893,1,0,-4,-4,0,0,1,2
1558440618432893,-2,0,2,2,0,-2,-1,-2
1558440618439887,-3,-2,-4,-3,-2,0,-2,-1
1558440618439887,-2,-2,-1,-1,-3,-2,-3,-2
1558440618455484,0,1,0,-2,-1,2,1,-1
1558440618455484,-2,1,-1,1,-2,-3,-3,-3
1558440618463670,-1,-4,-4,-6,-2,-2,-2,-2
1558440618463670,-3,-1,-2,0,-2,0,-3,-1
1558440618469433,0,-1,-5,-3,-1,-2,0,0
1558440618469433,3,-2,1,1,2,3,1,3
1558440618477885,-2,-4,-2,1,-3,-2,-2,3
1558440618477885,-4,-4,-1,-1,-1,-1,-1,0
1558440618492864,-2,-2,-1,0,-1,-3,-1,-3
1558440618492864,0,0,-4,-2,-4,0,0,-2
1558440618499703,-2,-1,-2,-3,1,-1,-1,-4
1558440618499703,-1,-1,1,1,0,-2,1,-1
1558440618515381,-4,-3,-5,-2,-3,-3,-3,-1
1558440618515381,-3,-3,-2,-3,0,0,-3,0
1558440618531527,-4,-7,-6,-2,-3,-2,-3,-3
1558440618531527,-1,1,-2,-2,-4,-2,-2,-3
1558440618532272,-3,-2,1,0,0,-1,-1,-5
1558440618532272,-2,3,-1,3,-1,-2,-1,0
1558440618537255,1,-3,0,-1,-1,0,-3,-2
1558440618537255,1,0,-4,-5,0,0,0,-1
1558440618560456,3,-2,-2,-1,-1,0,0,0
1558440618560456,-1,1,3,1,0,-2,-2,-1
1558440618561194,3,2,1,1,0,-1,1,0
1558440618561194,0,-1,-2,0,1,-2,-1,0
1558440618574418,-1,-1,3,0,-1,-1,0,-1
1558440618574418,-3,-4,-7,-7,-3,-1,-2,0
1558440618583388,-2,-1,0,-1,0,-1,-3,-2
1558440618583388,-4,-4,-6,-2,-2,-1,-3,-2
1558440618598092,0,-2,1,-2,-2,-2,-3,-1
1558440618598092,1,-2,-4,-2,0,-3,-1,-2
1558440618598092,-3,5,3,3,1,0,1,-2
1558440618598092,1,0,3,-1,1,1,0,0
1558440618612056,-1,-3,-3,-3,0,0,-1,2
1558440618612056,1,0,1,-1,-1,-1,2,-1
1558440618620030,1,1,-2,-1,-1,0,2,-1
1558440618620030,0,2,1,3,2,1,0,-3
1558440618634994,0,5,1,-2,0,0,0,2
1558440618634994,0,-1,3,0,-1,0,-1,-2
1558440618643043,0,-1,-3,1,1,-1,0,0
1558440618643043,-1,0,0,-3,-1,-1,0,-3
1558440618658266,-1,-3,0,-1,-3,-2,-2,-4
1558440618658266,-1,-3,-2,-1,-1,-1,-4,-1
1558440618658926,-1,-3,1,-1,-1,1,-4,-3
1558440618658926,-1,-1,-3,-2,-1,0,-1,-1
1558440618672203,-1,4,2,2,1,0,0,1
1558440618672203,-6,-2,-4,-4,-4,-6,-3,-2
1558440618680200,-3,-1,-1,-1,-2,-3,-2,-3
1558440618680200,0,0,-4,-2,-2,-3,0,3
1558440618704136,-3,-2,2,1,1,-1,-2,-3
1558440618704136,-4,-6,-7,-3,-1,-1,-1,-1
1558440618704136,0,-3,-3,-1,-1,-1,-1,-1
1558440618704136,1,-6,-5,-3,-4,-4,-2,-2
1558440618718103,3,1,0,0,0,0,3,5
1558440618718103,-2,-1,3,2,-1,-1,-2,-5
1558440618718771,-2,-2,-2,0,0,-1,-1,-3
1558440618718771,-1,1,0,1,0,-2,-2,0
1558440618732905,0,-2,-3,-2,-1,-2,1,-1
1558440618732905,-1,-1,-1,1,1,-1,0,1
1558440618740037,0,-3,-1,-3,-1,0,2,4
1558440618740037,-2,-1,2,0,-1,1,-4,-2
1558440618755966,-1,-2,-4,-3,-4,-2,-2,0
1558440618755966,-1,1,2,0,1,1,1,1
1558440618762917,1,2,2,-1,-2,1,1,-1
1558440618762917,0,0,-3,0,-1,-1,0,0
1558440618777868,0,-3,-2,2,-2,0,-5,-6
1558440618777868,2,2,1,-1,-2,1,0,3
1558440618778610,-3,-6,-3,-2,-3,-5,-2,-2
1558440618778610,-1,-1,-4,-2,-1,-1,1,0
1558440618800548,-2,-1,1,-2,0,-1,-1,-2
1558440618800548,-1,-2,-2,1,-2,-1,0,-2
1558440618801545,1,2,2,0,0,-2,-1,1
1558440618801545,-1,3,3,2,-1,3,1,1
1558440618814513,-3,-2,-5,-3,0,-1,-1,-2
1558440618814513,-1,1,-1,-2,-1,0,0,-1
1558440618830815,0,0,-2,0,-1,-3,-1,3
1558440618830815,-1,0,0,0,-2,-2,-1,-2
1558440618837450,0,1,-2,0,-2,0,1,1
1558440618837450,1,-1,-1,0,0,3,-1,-1
1558440618838446,-2,-2,-2,-1,2,0,-2,0
1558440618838446,1,-3,-1,-2,0,-1,-1,0
1558440618860417,-2,-3,0,-2,-3,-2,-1,-2
1558440618860417,-2,-5,-2,-2,-2,-5,-1,-4
1558440618861405,-4,-1,-1,-2,-2,-2,-3,-1
1558440618861405,0,2,2,-3,-1,-1,0,-4
1558440618874350,-1,-1,-1,1,0,0,-1,1
1558440618874350,1,1,1,1,0,0,-1,1
1558440618882363,-5,-3,-2,-1,-1,-1,0,-3
1558440618882363,-3,-1,-1,-1,0,-1,-1,1
1558440618906265,1,2,1,1,0,-1,-1,3
1558440618906265,2,2,3,1,1,-1,-2,2
1558440618906265,2,-1,-5,-5,-3,-2,0,2
1558440618906265,-2,-3,1,3,1,0,-2,-4
1558440618912247,-2,0,-1,-2,-1,0,-1,-1
1558440618912247,-2,-2,-1,-2,-1,-2,-3,-4
1558440618920227,0,3,1,1,-1,1,-1,4
1558440618920227,1,-3,-5,-4,-1,-1,1,1
1558440618936185,-2,-2,-4,0,-1,-1,-1,-2
1558440618936185,1,1,0,1,-1,0,0,0
1558440618943633,-1,-1,-1,-2,-3,-2,-1,0
1558440618943633,-1,-2,-3,-1,0,-2,0,-3
1558440618958572,-1,-2,-1,-2,-1,-1,-1,3
1558440618958572,-1,0,-2,-2,-2,-1,1,0
1558440618958572,-3,0,-1,1,-1,0,-1,-3
1558440618958572,1,-2,-1,-1,-3,-3,-2,-2
1558440618972882,-1,-3,0,-1,-1,-2,0,-4
1558440618972882,-2,0,2,-1,-2,-2,0,-1
1558440618979995,0,0,-1,0,0,1,-1,-2
1558440618979995,-5,-2,-1,0,-3,-3,-3,0
1558440618995527,-1,0,0,-2,-2,1,-2,-1
1558440618995527,-2,-2,0,-1,-1,0,-2,0
1558440619002497,-2,-2,-1,1,0,1,-2,-1
1558440619002497,2,0,0,-1,0,-2,0,4
1558440619017458,0,-2,-2,-2,-2,-2,0,-2
1558440619017458,0,0,-1,1,2,1,3,0
1558440619018454,2,2,3,1,2,-1,0,2
1558440619018454,-2,1,-1,0,-1,0,0,-3
1558440619032416,1,1,1,2,2,1,1,-2
1558440619032416,-3,-4,-7,-5,-4,-2,-3,-3
1558440619040399,-2,-1,-1,-2,-2,-2,-3,-5
1558440619040399,2,2,0,-2,-1,-1,-1,2
1558440619056355,-1,0,0,1,-3,-4,-3,-2
1558440619056355,1,-1,-1,1,-1,0,1,1
1558440619063638,1,-1,-2,-2,0,2,1,1
1558440619063638,-3,-5,-3,-2,-2,-1,-2,-3
1558440619078586,-1,-2,-2,-1,1,-1,0,0
1558440619078586,-1,-3,1,-1,-2,-1,-1,-2
1558440619078586,2,0,1,0,-1,-2,2,0
1558440619078586,-4,-2,-5,1,0,-1,-1,-2
1558440619092586,0,2,1,-3,-1,0,1,-1
1558440619092586,1,1,-2,-2,0,-2,-1,-1
1558440619100399,1,-4,-5,-2,-2,0,0,2
1558440619100399,-2,-3,-4,-1,-1,0,-3,-3
1558440619115394,-1,-3,-2,-6,-2,0,-2,1
1558440619115394,-1,-3,-4,-3,-1,-2,-3,-2
1558440619123174,0,2,4,2,-1,0,0,-1
1558440619123174,-1,-4,-5,-2,-2,-1,1,-2
1558440619138477,-2,-1,-3,-2,-3,-2,-3,-1
1558440619138477,-2,-1,0,-2,-1,-1,0,3
1558440619138477,-1,-1,1,-1,0,-1,-3,-2
1558440619138477,2,2,3,0,0,-1,1,2
1558440619162072,-2,-3,-3,-1,0,-1,0,-4
1558440619162072,-1,-1,-3,0,0,0,-2,-1
1558440619163067,-1,-2,2,2,2,-1,-3,-1
1558440619163067,0,1,0,-3,-1,-1,-1,1
1558440619175366,-4,-7,-8,-4,-2,-1,-3,-4
1558440619175366,-1,0,0,-3,0,-1,2,3
1558440619183333,-5,-6,-7,0,-2,-2,-3,-5
1558440619183333,-1,0,5,0,0,-1,-1,-3
1558440619198246,-4,-7,-2,-1,-3,-3,-2,-3
1558440619198246,1,-3,-3,-2,-2,-1,0,-2
1558440619198973,-2,1,1,1,-2,-2,-1,-1
1558440619198973,1,-1,-5,-4,-2,-2,-1,2
1558440619212225,-5,1,1,-1,-2,2,0,-3
1558440619212225,-1,-1,-3,-1,0,0,0,0
1558440619219914,1,-1,-1,-2,-1,0,1,0
1558440619219914,0,-1,0,0,-1,-1,-2,-2
1558440619235873,6,4,4,2,0,0,-1,4
1558440619235873,-4,-5,-1,1,-3,-1,-3,-2
1558440619242883,-5,-2,-4,-2,-4,-2,-2,-7
1558440619242883,-2,-5,-3,-1,-2,-2,-1,-1
1558440619258454,0,3,0,0,-1,-1,-1,0
1558440619258454,-2,1,8,4,1,-1,0,-3
1558440619258454,0,-3,-6,-5,1,0,3,0
1558440619258454,-1,-2,-3,-3,-2,-1,1,-1
1558440619280748,-4,-3,-3,2,-2,-2,-2,0
1558440619280748,-1,1,-2,-3,-1,1,-3,-2
1558440619280748,-2,-2,3,-1,-2,-4,-3,-2
1558440619280748,-3,0,3,2,1,0,2,0
1558440619294716,-1,0,0,0,0,1,3,-1
1558440619294716,1,1,0,-2,-2,-4,-1,-2
1558440619303637,-2,-5,-5,-1,-3,-1,-5,-2
1558440619303637,1,0,1,1,-2,-1,-3,-3
1558440619318354,-2,-4,-1,-2,-2,-3,-2,-1
1558440619318354,-2,-3,-2,-1,0,1,-1,-2
1558440619325602,1,-3,-3,-2,-1,1,2,3
1558440619325602,-2,-3,0,0,-1,-1,-2,-4
1558440619340552,-2,-1,-5,-6,0,-2,-3,-1
1558440619340552,-1,0,-1,0,-2,-1,-2,-1
1558440619341518,0,1,1,-3,-1,0,2,3
1558440619341518,-1,-1,-1,0,-1,1,0,0
1558440619356252,2,-1,2,3,1,0,1,1
1558440619356252,-3,-2,-2,0,-1,1,-3,0
1558440619362616,-2,0,2,-5,-2,-1,0,-1
1558440619362616,0,4,0,1,2,0,-1,0
1558440619377816,-3,-6,-9,-4,-2,-2,0,-2
1558440619377816,1,1,0,-1,0,-1,0,0
1558440619385526,-2,2,4,3,-1,-2,-5,-4
1558440619385526,-3,-3,-4,-3,0,-2,-1,-4
1558440619392722,-1,1,2,-1,1,0,-1,0
1558440619392722,0,-1,-2,0,0,-1,1,0
1558440619408474,-1,-4,-4,-1,-3,-1,0,0
1558440619408474,-1,-2,-1,-3,-2,-3,-2,0
1558440619414725,0,3,1,0,-2,-1,-2,-1
1558440619414725,-1,-1,-3,-3,-2,-1,-2,-1
1558440619422426,-1,0,-1,0,0,-2,-1,0
1558440619422426,-3,2,-1,-1,0,-2,-2,-2
1558440619438383,-2,-1,2,0,1,-1,-1,-1
1558440619438383,2,1,0,-1,-1,-1,3,4
1558440619445364,-4,-8,-6,-2,0,-5,-4,-5
1558440619445364,2,0,0,-2,-2,0,2,3
1558440619460670,0,1,2,3,0,2,-1,2
1558440619460670,0,1,-2,0,2,1,0,-2
1558440619461649,-5,-5,-6,-3,-3,-2,-6,-2
1558440619461649,1,-2,-3,-4,-4,-3,0,0
1558440619474500,1,3,4,4,3,0,1,-4
1558440619474500,0,-4,-1,-2,-3,-2,-1,-1
1558440619482609,2,1,-4,-2,0,1,0,-1
1558440619482609,0,0,3,0,0,0,-3,-1
1558440619497572,-1,-6,-5,-5,-4,-2,0,1
1558440619497572,-3,-1,-1,2,0,-1,-4,-5
1558440619513550,0,4,1,-1,-3,0,2,0
1558440619513550,0,-1,0,0,1,-2,0,1
1558440619520198,0,2,7,0,-1,0,-2,-2
1558440619520198,-2,-2,-5,-4,-2,-1,-1,-1
1558440619521162,0,1,-2,-1,1,0,1,1
1558440619521162,4,10,-6,3,1,2,2,0
1558440619534575,1,-2,-3,-6,-5,-1,-2,-1
1558440619534575,3,6,9,1,-2,-4,1,3
1558440619542107,-3,-2,5,4,4,0,-3,-6
1558440619542107,-6,-7,-6,-4,1,0,0,-3
1558440619566347,3,5,-6,2,0,2,2,1
1558440619566347,-1,-10,13,-3,0,0,-1,1
1558440619567256,-2,-4,0,1,-2,-1,-1,1
1558440619567256,-1,3,7,3,1,-1,-5,-1
1558440619581034,-3,-2,-2,0,1,0,-2,0
1558440619581034,1,7,1,1,2,2,1,-1
1558440619581034,3,1,3,-1,-3,-3,1,0
1558440619581034,-4,-4,3,0,-1,-4,-3,-3
1558440619595250,-1,-3,2,2,2,1,2,4
1558440619595250,1,6,-1,4,-1,0,0,-2
1558440619602240,-3,-5,-9,-6,-2,-2,-2,-6
1558440619602240,-1,3,-2,-3,-4,-1,-2,-2
1558440619617198,-5,-11,-7,-4,-2,-5,-4,-6
1558440619617198,-7,-13,-15,-5,-4,-4,-4,-3
1558440619641134,4,5,8,0,2,2,1,2
1558440619641134,0,-3,0,-3,-2,-2,1,2
1558440619643129,3,2,-3,-2,1,0,1,1
1558440619643129,-8,2,-7,0,-2,-1,-4,-10
1558440619644126,-2,-4,3,-1,-1,-1,-2,3
1558440619644126,1,-9,-3,-3,-1,-3,-2,0
1558440619663523,3,2,3,3,-1,-2,-1,1
1558440619663523,-2,-1,-3,-1,1,2,2,2
1558440619663523,1,5,-2,-1,-3,-3,-4,0
1558440619663523,-4,-3,8,3,-1,2,-1,-1
1558440619686014,-1,-3,-3,-1,-2,-2,0,-4
1558440619686014,0,2,2,-5,-2,-2,-2,2
1558440619687381,1,3,-4,-2,-2,-3,-1,-1
1558440619687381,-4,-9,5,1,3,2,2,-1
1558440619700985,-4,-2,-1,-3,-3,-1,-3,-3
1558440619700985,-3,-7,-5,-4,-5,-4,-3,-2
1558440619700985,2,4,-2,1,-1,1,2,2
1558440619700985,6,7,8,-1,0,1,2,2
1558440619715935,0,0,1,0,0,-1,0,2
1558440619715935,-2,-1,3,4,1,-2,-2,-2
1558440619722266,-1,-4,0,-3,-3,-1,0,2
1558440619722266,1,-3,-5,-2,0,3,-1,0
1558440619738873,-1,0,-2,-2,0,1,1,1
1558440619738873,3,4,2,0,0,0,1,2
1558440619745029,-2,0,-4,0,1,0,3,-1
1558440619745029,-1,4,-4,1,-1,-1,-1,-3
1558440619760197,1,1,0,-2,-2,-1,2,-1
1558440619760197,1,-1,0,-2,0,1,-2,-2
1558440619760814,-2,-3,-3,-2,0,-2,-3,-3
1558440619760814,-2,-8,-9,-4,-5,-5,-3,4
1558440619774776,-4,-4,-2,1,1,-1,-4,-9
1558440619774776,-3,0,-4,-4,-4,-4,-1,-2
1558440619781758,-2,0,2,0,0,2,-2,-1
1558440619781758,2,0,-1,0,-1,-1,0,-3
1558440619796718,0,2,3,-2,-2,-1,-2,1
1558440619796718,5,2,1,-1,0,-2,0,3
1558440619804723,-3,-1,-3,0,0,1,-2,-4
1558440619804723,0,2,6,-1,-2,-1,3,1
1558440619819656,-3,-6,3,-1,-1,0,3,-1
1558440619819656,-7,-13,-13,-2,-1,-1,-1,-4
1558440619820654,0,-3,-1,-1,-2,-1,-1,4
1558440619820654,0,3,-2,0,2,-1,-4,-7
1558440619835629,3,3,-3,-2,-2,0,2,2
1558440619835629,-1,-3,0,-3,-2,-1,1,-4
1558440619842026,1,-1,6,3,1,0,0,-4
1558440619842026,0,0,-4,-3,-1,1,-2,-2
1558440619866766,-9,-13,-3,-4,-3,-3,-4,-4
1558440619866766,-1,1,0,-1,-2,-3,-2,1
1558440619866766,1,1,3,-4,-1,0,1,2
1558440619866766,-3,-2,-1,0,0,1,2,1
1558440619880906,-3,-3,-9,-2,2,0,-2,-2
1558440619880906,1,8,4,-2,-1,-1,0,0
1558440619880906,-4,-6,0,3,0,1,2,-2
1558440619880906,-2,9,0,1,-2,0,-2,-2
1558440619894672,1,7,-2,4,0,0,-1,-2
1558440619894672,-6,-13,-15,-11,-6,-1,0,0
1558440619902437,2,5,9,1,0,-1,-1,-2
1558440619902437,0,2,-6,-9,-10,-4,0,1
1558440619918392,1,4,0,3,-3,-4,-2,0
1558440619918392,1,-1,10,6,1,1,-2,-1
1558440619925412,-1,0,-6,2,3,-1,-1,-1
1558440619925412,-3,0,3,10,6,-3,-3,-5
1558440619940333,-3,-9,-8,-13,-8,-3,-5,-7
1558440619940333,-3,-4,-8,-10,-7,-2,-4,-1
1558440619941331,6,7,1,-3,-3,4,1,2
1558440619941331,-4,-6,4,-8,-2,-1,-1,-2
1558440619954296,6,18,5,3,0,-1,1,3
1558440619954296,1,2,3,4,2,-1,-1,-2
1558440619962275,-1,-1,-7,-2,-3,-2,-2,-3
1558440619962275,-1,0,9,5,2,-1,-1,-4
1558440619977235,-1,-2,1,2,-1,-4,1,4
1558440619977235,-3,-3,-7,-1,-2,-2,-1,-3
1558440619992196,-3,-1,3,-1,-2,-3,-6,-3
1558440619992196,2,-4,-4,-1,-2,-2,0,4
1558440620000180,-4,-6,-8,-11,-2,1,-1,-3
1558440620000180,2,3,4,4,3,2,0,3
1558440620001170,-3,-6,-4,-2,-1,0,-1,-3
1558440620001170,1,2,-4,-4,-3,-1,0,1
1558440620016135,-5,-8,-2,-1,-2,-3,-3,-2
1558440620016135,0,-10,11,1,2,-2,2,2
1558440620022114,-3,-6,-6,-2,-2,-3,-2,-4
1558440620022114,-2,-5,-6,-3,0,2,1,1
1558440620046051,0,3,4,2,0,1,1,0
1558440620046051,-1,-1,-4,-1,-2,-1,0,-2
1558440620047048,-1,-2,5,-2,-1,0,2,0
1558440620047048,-3,-3,-13,-1,-2,-3,-7,-7
1558440620061012,0,2,-3,-3,0,-3,-3,0
1558440620061012,-3,0,-5,0,1,1,0,1
1558440620062073,-1,7,0,-4,-1,-2,-1,1
1558440620062073,3,0,-3,-1,-2,1,0,-1
1558440620074973,1,0,3,-2,-3,0,-2,0
1558440620074973,-1,3,0,-2,-1,-3,-3,-4
1558440620082214,-4,-9,-5,0,-3,0,-1,-3
1558440620082214,-4,-4,-3,-1,-1,-2,1,0
1558440620096916,2,5,6,1,-1,1,1,4
1558440620096916,-6,-8,2,-7,-2,-5,-3,-4
1558440620112872,-1,-4,-5,-3,1,1,-1,1
1558440620112872,0,-7,-2,-2,0,0,-1,0
1558440620119854,-1,-5,0,1,-1,0,-1,-5
1558440620119854,2,6,0,-2,-1,0,0,1
1558440620120850,1,3,7,4,2,2,0,1
1558440620120850,-1,-4,-8,-3,0,1,2,0
1558440620142792,-1,1,-5,-2,1,2,1,-3
1558440620142792,-1,-11,5,1,-1,1,0,2
1558440620143790,-3,-4,-8,-5,-6,-8,-3,-3
1558440620143790,-1,2,5,2,1,1,1,4
1558440620156903,1,0,1,1,2,-2,-3,3
1558440620156903,-2,2,-11,-1,-4,-4,-4,-10
1558440620164872,3,5,7,-3,-2,0,0,2
1558440620164872,1,1,4,0,0,-1,-2,-2
1558440620180707,-3,-8,-10,-8,-3,-4,-2,0
1558440620180707,2,4,0,5,0,1,1,0
1558440620180707,-3,-9,-6,-1,1,-2,-1,-3
1558440620180707,-3,0,-2,-1,-5,-5,-2,-3
1558440620195655,1,1,7,1,1,1,0,-1
1558440620195655,0,3,-4,-2,1,-3,-1,2
1558440620201635,2,3,-1,2,2,3,0,1
1558440620201635,-4,-2,4,-2,-2,-2,-1,-2
1558440620216595,-3,-7,-4,-2,-2,1,0,0
1558440620216595,-3,0,-3,-1,-3,-2,-5,-7
1558440620225575,-2,-2,-3,-1,0,-2,-1,-1
1558440620225575,-1,-6,-7,-3,-2,-3,-4,-3
1558440620248706,1,2,1,-1,-2,-1,2,3
1558440620248706,0,7,-7,-1,1,-1,0,0
1558440620249506,-5,-1,-5,0,-1,-3,-4,-8
1558440620249506,-1,1,-1,-1,-1,-2,-1,-1
1558440620254493,-7,-15,-11,-3,-1,-1,-4,-7
1558440620254493,2,2,2,0,-2,0,-3,0
1558440620270450,0,2,2,-2,-1,-4,0,2
1558440620270450,0,0,-7,-1,-4,-4,-2,-4
1558440620277434,0,12,8,3,2,2,1,-1
1558440620277434,-3,-10,-4,-5,1,2,2,1
1558440620285411,-1,-3,-1,-4,-3,-2,1,2
1558440620285411,-3,-2,2,4,1,2,-3,-7
1558440620299522,2,0,3,2,0,0,-2,-3
1558440620299522,-1,1,1,-1,-5,-3,-1,-2
1558440620315570,-1,-4,-4,-1,1,1,0,-1
1558440620315570,2,1,4,-2,2,1,1,4
1558440620323362,0,3,1,-1,-5,-3,-4,-4
1558440620323362,0,-3,1,-2,0,0,1,3
1558440620324308,-3,-2,-1,-1,-2,1,-2,-1
1558440620324308,0,0,0,-2,-1,-2,1,2
1558440620346248,0,-2,-2,2,1,-1,2,1
1558440620346248,-4,-2,1,2,1,-2,-5,-3
1558440620346248,1,-4,-7,-3,-2,-4,-2,-2
1558440620346248,-1,0,-4,-3,-2,-1,-1,2
1558440620359213,2,8,1,-1,-1,0,2,-2
1558440620359213,-1,-1,0,0,-2,-2,-1,-2
1558440620367239,-7,-8,-6,-1,0,-1,-2,-5
1558440620367239,-1,-6,3,1,0,1,-1,0
1558440620374173,-3,-3,-6,-3,-2,-3,-5,-2
1558440620374173,2,2,2,0,1,1,1,1
1558440620382151,0,2,0,4,2,0,-2,-1
1558440620382151,1,7,-4,1,-1,-1,-1,2
1558440620398108,-3,-7,1,-7,-4,-2,-1,-5
1558440620398108,-1,-6,-7,-6,-3,-3,0,1
1558440620405133,-1,1,3,1,1,1,0,-1
1558440620405133,-3,1,-2,0,-1,-1,-3,-5
1558440620419058,-1,0,1,-3,0,-3,0,1
1558440620419058,1,0,0,3,2,-1,-1,0
1558440620428030,-1,1,0,-4,-3,-4,-1,0
1558440620428030,-4,-7,-5,-4,-4,-3,-1,-2
1558440620435010,-3,-1,-1,0,-1,0,-1,-3
1558440620435010,-1,-3,4,0,-1,0,2,0
1558440620442003,3,1,1,3,0,1,2,0
1558440620442003,0,-1,2,-2,2,1,-1,-2
1558440620456987,1,1,2,6,2,0,0,2
1558440620456987,-1,1,0,-2,-1,-2,-2,-1
1558440620472977,-3,-5,-10,-3,1,1,-2,-5
1558440620472977,2,1,-3,-3,-3,-1,0,3
1558440620480888,-1,1,-1,0,1,1,1,-4
1558440620480888,-2,-4,2,-1,1,1,1,-1
1558440620494859,-1,2,2,0,0,-2,-1,1
1558440620494859,-4,-7,0,-1,-1,-1,-3,-3
1558440620502830,0,1,-1,-1,1,0,-3,1
1558440620502830,1,-1,5,2,-3,2,0,-2
1558440620503828,0,-3,1,-2,0,-1,2,-1
1558440620503828,0,0,-4,-3,0,-1,0,-2
1558440620525969,5,2,1,0,-2,1,1,3
1558440620525969,-2,-1,-4,0,1,0,0,-2
1558440620526765,2,-1,2,-1,1,1,2,1
1558440620526765,0,-2,0,1,1,-1,-2,-1
1558440620548849,-2,-2,-3,-1,-1,0,1,-1
1558440620548849,-1,4,-9,-2,-4,-2,-4,0
1558440620548849,-4,-7,2,-2,-2,-2,-1,-1
1558440620548849,0,1,2,0,0,2,1,-1
1558440620562668,-3,-5,-5,-2,-2,-3,-3,-4
1558440620562668,-5,-6,-8,-2,-2,-2,-3,-3
1558440620563667,1,5,2,1,-2,0,-2,0
1558440620563667,0,-3,-1,0,0,3,2,3
1558440620576631,-1,-5,0,-1,-1,-3,-1,-7
1558440620576631,1,-1,0,-1,-2,0,1,2
1558440620585608,-3,-2,-3,-1,-1,-1,-3,-5
1558440620585608,-5,-6,-4,-3,-1,-3,-1,-1
1558440620599570,1,0,0,0,0,-2,-4,0
1558440620599570,1,0,1,-3,1,-1,0,-2
1558440620607548,0,-1,-4,-1,-5,-3,-2,1
1558440620607548,-2,0,-2,-4,-3,-3,-1,0
1558440620622509,-6,-7,-1,-2,-2,-3,1,0
1558440620622509,1,3,0,2,3,1,0,1
1558440620623507,-1,-5,-2,-2,-1,-1,-2,0
1558440620623507,-1,-1,1,2,1,-2,0,-3
1558440620645449,-1,-2,-4,-1,-3,-1,-2,0
1558440620645449,0,3,8,2,1,-1,1,2
1558440620646444,0,2,-1,-2,-3,1,-2,-2
1558440620646444,-1,-3,-3,-3,-2,-1,-2,-2
1558440620659411,0,1,-2,0,0,0,-3,-3
1558440620659411,-2,0,0,-1,0,2,0,0
1558440620675401,0,1,-6,-2,-3,-2,0,1
1558440620675401,-6,-7,-13,-1,-2,-2,-3,-4
1558440620682347,1,5,3,-3,-1,0,0,1
1558440620682347,0,-2,-3,-5,-2,-2,2,-2
1558440620683345,0,-1,2,-1,2,-1,1,1
1558440620683345,-3,-17,4,-1,0,0,2,3
1558440620699558,-5,-4,2,0,-2,-1,-1,-5
1558440620699558,-3,-1,-5,0,-3,-3,-2,-1
1558440620705463,1,0,4,-1,1,-1,0,-1
1558440620705463,3,6,5,1,-1,-3,-2,0
1558440620719252,1,-2,-3,0,-1,-1,0,2
1558440620719252,-3,-9,10,-2,-1,1,0,-3
1558440620728226,-4,-7,-8,-6,-3,-2,0,1
1558440620728226,-2,2,0,-1,0,1,-1,-2
1558440620751256,-2,0,0,-1,0,0,1,3
1558440620751256,0,2,-3,1,1,1,-2,-5
1558440620752164,-1,1,2,2,1,-1,-3,-2
1558440620752164,0,1,1,0,-1,-3,-4,-2
1558440620757149,-2,-5,-4,-4,-2,0,0,0
1558440620757149,-2,-3,-4,-3,-2,-1,-1,-1
1558440620773105,1,-2,-2,1,0,-1,-1,-4
1558440620773105,0,1,-6,-4,-5,-2,-3,-5
1558440620779091,-1,-1,-3,0,-1,-3,-1,0
1558440620779091,0,-2,0,-1,0,-1,-2,-1
1558440620788065,-2,3,3,1,0,-1,0,1
1558440620788065,1,2,0,1,0,-3,0,-1
1558440620803026,-1,-3,-4,-2,-2,-1,-1,-3
1558440620803026,1,3,0,-1,-1,1,-1,4
1558440620803026,-3,1,0,0,-2,-1,-1,-4
1558440620803026,3,2,4,-1,0,2,4,5
1558440620816989,-5,-3,-5,0,-1,0,-3,-6
1558440620816989,-1,1,-1,2,0,1,0,0
1558440620824966,2,3,2,0,0,-1,-1,0
1558440620824966,-3,-10,5,-3,0,1,0,2
1558440620848097,-1,3,-9,-2,-1,-3,-5,-4
1558440620848097,0,1,0,0,-2,-1,0,1
1558440620848904,1,-2,3,1,2,2,3,1
1558440620848904,-3,-2,-2,-1,-2,-1,1,-3
1558440620862872,-2,-3,-3,-3,-4,-2,-2,0
1558440620862872,0,-4,-7,-2,-1,-2,-1,-2
1558440620863864,1,-1,-1,-2,-4,-3,-1,-2
1558440620863864,3,6,-1,4,1,2,-1,1
1558440620876829,-1,-1,1,-2,1,1,2,2
1558440620876829,0,2,1,-2,-3,-5,-1,-1
1558440620884809,-4,-5,-5,-1,-1,0,-1,0
1558440620884809,-2,1,-3,0,1,-1,-2,-6
1558440620899768,1,0,4,1,1,-3,0,2
1558440620899768,2,1,6,1,1,-1,0,3
1558440620907746,-4,-1,-4,-4,-3,-3,-4,-6
1558440620907746,0,1,-3,-1,0,2,-1,-3
1558440620922711,2,1,4,0,0,2,1,3
1558440620922711,-4,-3,-6,-1,-4,-1,-2,-6
1558440620923703,0,-1,1,-1,-1,1,2,2
1558440620923703,0,0,-1,2,-2,-2,-1,-2
1558440620936668,-1,-1,2,2,0,0,-1,1
1558440620936668,-2,-3,-5,-9,-4,-2,-1,1
1558440620944653,-3,-1,0,0,-2,-2,-2,-1
1558440620944653,3,6,-4,-2,-1,1,2,1
1558440620959608,2,1,2,1,1,-1,-1,1
1558440620959608,-3,0,-6,-1,-1,0,-3,-4
1558440620975573,-1,-5,-12,-2,-1,-1,-1,-1
1558440620975573,-1,2,9,0,-2,-1,-3,-5
1558440620982547,-4,-16,1,-3,0,0,2,1
1558440620982547,0,1,1,0,2,0,1,0
1558440620983544,-1,2,0,0,1,-1,-1,-2
1558440620983544,-3,-5,-5,-1,-2,-1,-2,0
1558440620996509,1,0,-6,-5,-2,0,-1,-4
1558440620996509,-1,0,2,0,-2,-1,-3,-2
1558440621005485,-1,0,2,2,2,0,0,0
1558440621005485,-3,2,-2,-6,-2,-2,-1,0
1558440621028423,0,1,0,1,0,0,-2,0
1558440621028423,-5,-2,0,2,0,0,-1,-5
1558440621029420,1,0,-3,-5,-3,-2,2,4
1558440621029420,-1,0,1,2,0,-1,-1,-3
1558440621042385,-2,2,-3,1,0,1,1,-3
1558440621042385,1,1,2,-1,1,1,0,-1
1558440621043387,0,0,0,0,-1,1,1,0
1558440621043387,0,-2,1,-2,-1,-1,-1,0
1558440621057346,1,2,-4,0,0,0,0,0
1558440621057346,1,-5,2,-2,0,-2,1,2
1558440621065325,-1,0,4,-1,0,1,-1,-3
1558440621065325,-3,-1,-1,0,-1,0,-1,0
1558440621079286,-2,-1,2,3,-4,-4,-1,-1
1558440621079286,-4,-5,-10,-5,-1,-1,-2,-2
1558440621095244,-1,-1,-6,-5,-1,-1,-1,-3
1558440621095244,-3,-12,3,-1,1,-1,0,1
1558440621102229,-2,-2,-3,-3,-1,-2,-3,-3
1558440621102229,-2,-4,3,2,-1,0,-1,-2
1558440621103223,2,-1,2,-1,-2,-1,0,4
1558440621103223,-4,-1,-6,-5,-2,-2,-4,-6
1558440621126170,-1,-3,-4,-1,-2,-3,-2,0
1558440621126170,-1,1,-3,0,-1,-3,0,-1
1558440621126170,0,0,-1,-4,1,-2,-3,-3
1558440621126170,2,0,0,-1,-1,0,2,4
1558440621139127,-2,-2,-2,0,0,-1,0,-6
1558440621139127,-1,-2,-3,-2,-2,-4,-2,0
1558440621148103,0,0,-1,-1,-4,-1,0,-1
1558440621148103,0,1,1,1,1,-1,0,0
1558440621163075,-3,-2,0,-3,-2,1,0,-2
1558440621163075,1,-1,-1,-1,-1,1,0,0
1558440621163075,-2,-3,-1,-1,-1,-1,-1,-1
1558440621163075,-2,-1,-4,-1,-3,-3,-3,-3
1558440621177027,1,3,-2,-3,2,1,-2,-2
1558440621177027,2,1,-1,-1,-2,-2,1,1
1558440621185004,0,0,2,1,-1,-3,-1,-2
1558440621185004,-1,1,2,1,1,1,0,0
1558440621198967,-3,-4,-1,-2,-1,-2,-3,2
1558440621198967,2,-1,-2,-1,0,2,0,2
1558440621207944,-1,0,-1,-2,2,1,-1,-2
1558440621207944,3,0,3,1,1,-1,0,1
1558440621221907,0,5,3,0,-3,-1,0,0
1558440621221907,0,-2,-5,1,1,-2,-3,-1
1558440621229884,2,5,2,1,-2,0,-1,-1
1558440621229884,0,5,-14,-3,-3,-3,-4,-7
1558440621236865,1,4,1,-1,-2,-1,1,0
1558440621236865,-4,-6,-2,-1,-2,-3,0,1
1558440621252823,-8,-5,5,1,2,1,-2,-6
1558440621252823,1,2,0,-1,-3,0,0,-4
1558440621259809,-2,-6,-4,-3,0,0,-3,-4
1558440621259809,-2,2,-2,-3,-3,-1,-1,-5
