timestamp,emg1,emg2,emg3,emg4,emg5,emg6,emg7,emg8
1558440737945189,-3,-2,-3,-7,-1,-1,-2,-9
1558440737945189,-3,0,-4,17,-3,-1,-3,-1
1558440737945189,-3,-3,-1,-8,-2,-3,-5,2
1558440737945189,-4,0,-3,-14,2,3,3,-10
1558440737950175,0,-2,-2,18,0,-2,2,0
1558440737950175,1,0,3,-3,3,-4,2,2
1558440737951174,0,-2,-2,-12,0,2,-1,-2
1558440737951174,-1,-3,-2,6,-6,-6,-2,-1
1558440737955163,-2,2,-1,2,-3,0,-4,-3
1558440737955163,-2,0,-2,-15,-3,-4,-2,-4
1558440737973115,3,1,-2,1,0,-1,2,-1
1558440737973115,1,-1,2,13,4,1,0,5
1558440737973115,-3,-2,1,-9,-2,-6,-2,-2
1558440737973115,0,-5,-6,-10,-2,2,0,-3
1558440737987077,-1,3,6,11,-4,-3,-3,1
1558440737987077,-3,-1,-1,-1,0,-1,-4,-5
1558440737994058,1,-1,-2,-10,4,1,4,2
1558440737994058,1,-1,0,4,-3,-1,-4,1
1558440738009019,-4,-2,-4,1,0,2,-1,-6
1558440738009019,1,-2,-4,-9,-6,-5,-3,0
1558440738016001,-3,-1,-1,-1,-4,-1,-2,-2
1558440738016001,1,1,1,4,3,0,1,-1
1558440738062874,-1,-3,-4,14,-5,-3,-3,-1
1558440738062874,1,0,0,7,5,4,4,4
1558440738063873,-2,-1,0,-15,-4,-5,-3,-1
1558440738063873,-4,-2,-3,0,-1,2,-1,-5
1558440738064869,-4,-1,-1,9,0,-4,-1,1
1558440738064869,-4,-3,-4,-8,0,-2,-2,-3
1558440738075841,0,-1,-2,-6,-5,-4,-4,-4
1558440738075841,-2,-1,-2,10,-6,-10,-6,0
1558440738076837,-1,0,4,-2,7,13,8,1
1558440738076837,-1,-2,-5,-12,2,7,4,-2
1558440738084816,0,0,-3,11,1,0,0,-2
1558440738084816,0,1,3,-3,-3,-14,-3,-1
1558440738090801,0,-1,-3,-13,-1,2,-2,-2
1558440738090801,0,1,3,4,-7,-9,-2,-2
1558440738106757,3,1,3,8,3,-2,0,10
1558440738106757,-3,-2,-4,-8,-2,0,-1,-7
1558440738129698,0,-1,0,-5,2,-3,1,-3
1558440738129698,-4,-1,-1,7,-1,0,-3,-3
1558440738130693,-6,-2,-1,-3,-2,4,0,-4
1558440738130693,4,2,0,-8,0,5,4,2
1558440738135680,0,1,-1,3,-4,-5,-2,0
1558440738135680,2,1,-2,-1,-1,-2,-2,-1
1558440738152634,2,1,-1,-3,1,-4,-1,-1
1558440738152634,-4,-3,-1,2,-1,-1,-5,-1
1558440738153631,-1,-1,-3,-1,-2,-1,-2,-3
1558440738153631,-3,-2,-3,-5,-7,-11,-8,-6
1558440738174576,-1,-1,-1,-1,1,3,2,-1
1558440738174576,-2,2,0,7,4,6,4,3
1558440738175573,-2,-3,-2,-6,-2,0,-4,-2
1558440738175573,-1,-3,-2,-6,-2,0,-2,1
1558440738187541,-6,-5,-4,5,-5,-3,-6,-10
1558440738187541,-1,-3,-3,-5,-2,1,-2,1
1558440738195520,-1,-1,1,-4,-1,-5,1,3
1558440738195520,1,0,1,2,0,-5,0,-5
1558440738204497,0,1,1,0,2,11,2,0
1558440738204497,3,-2,-5,-2,-1,-2,-2,-3
1558440738210480,-1,-2,4,-1,0,-3,-2,0
1558440738210480,-1,0,-1,0,-2,1,-3,0
1558440738226436,-3,-3,-3,-5,-7,-5,-4,-3
1558440738226436,0,0,-1,-1,0,-7,-1,0
1558440738233418,2,0,-3,3,7,15,8,2
1558440738233418,0,0,2,-3,3,1,1,1
1558440738249375,-1,0,0,-1,1,0,-2,-2
1558440738249375,-1,1,2,0,-4,-4,-5,-2
1558440738255359,-2,-2,-3,-5,-7,-9,-7,-4
1558440738255359,4,0,3,-1,3,5,5,6
1558440738264336,0,-1,-3,1,0,-2,2,0
1558440738264336,0,-3,-2,0,2,4,3,3
1558440738270319,0,1,5,-2,-1,-3,-3,-2
1558440738270319,-2,0,0,0,-1,1,1,1
1558440738287274,-2,-1,-1,0,-3,-2,-3,-3
1558440738287274,-2,-1,-2,-3,-4,2,-2,-5
1558440738293264,1,1,-3,-2,0,1,5,0
1558440738293264,-2,-1,-4,2,-2,-5,-1,2
1558440738308224,-1,-3,-1,-2,-1,-3,-3,-2
1558440738308224,0,1,0,-4,-3,2,-4,-2
1558440738315201,-3,-2,-2,0,-2,-2,-5,-4
1558440738315201,0,0,-2,-1,0,-2,0,-1
1558440738332154,1,2,6,-1,4,3,4,4
1558440738332154,-1,-4,-4,-2,-1,-2,-2,-1
1558440738333152,-3,0,-2,-1,-4,0,-3,-2
1558440738333152,0,-2,0,-1,-3,0,-4,-4
1558440738355093,-3,-4,-5,-2,-6,-4,-5,-4
1558440738355093,-1,0,0,5,3,1,6,1
1558440738356090,3,1,1,-2,3,-2,3,4
1558440738356090,-6,-3,-5,-2,-3,-3,-7,-8
1558440738368058,0,-1,2,1,-3,-1,-3,-2
1558440738368058,0,-1,2,-2,3,1,1,1
1558440738375041,-1,-2,-3,-3,-1,-3,-2,1
1558440738375041,-3,-2,-1,0,-3,-5,-3,-10
1558440738384016,1,0,-1,0,2,1,5,4
1558440738384016,-1,-2,-1,-2,-4,-4,-5,-2
1558440738390000,-2,-2,-2,-1,-1,4,2,-1
1558440738390000,-1,-1,-1,0,-4,-2,-3,0
1558440738406954,-2,0,-2,-4,1,5,2,0
1558440738406954,-3,0,0,0,0,-2,-3,-7
1558440738412938,0,0,-3,1,-2,-5,-6,-2
1558440738412938,-1,-1,-2,-5,-1,4,1,0
1558440738427899,1,-1,-2,-2,-2,-3,-1,-2
1558440738427899,-1,-2,1,1,-2,-5,-1,4
1558440738435876,-4,-3,-3,0,-3,2,-2,-4
1558440738435876,0,0,1,-1,4,-2,3,1
1558440738444853,3,0,0,-3,-2,-4,1,2
1558440738444853,-2,-1,-2,1,-4,-5,-1,-3
1558440738450836,0,-2,-2,-1,-2,-7,-4,-3
1558440738450836,-1,0,-2,0,3,9,2,-3
1558440738466794,0,-1,-2,0,-1,-1,0,4
1558440738466794,-1,-1,0,-2,3,7,1,-1
1558440738480757,-2,-1,0,-4,-4,-2,-2,0
1558440738480757,0,-2,0,0,0,-3,-1,0
1558440738487741,-1,1,2,1,3,-4,-1,-2
1558440738487741,-4,-2,0,-2,-3,-1,0,-3
1558440738495717,-1,-1,-2,-1,-1,2,0,0
1558440738495717,2,1,2,3,1,2,0,1
1558440738504693,-2,-2,-1,-3,-1,-7,-3,0
1558440738504693,0,-2,-2,-4,-1,-2,-3,2
1558440738517659,-3,1,-1,1,-2,2,0,-4
1558440738517659,-1,-1,4,0,-3,-2,-2,-1
1558440738534613,-1,-2,-5,-3,-3,-4,1,6
1558440738534613,1,-1,-4,0,-1,4,2,-2
1558440738535610,0,0,-1,1,2,-10,-1,-3
1558440738535610,0,0,-3,-4,-3,0,-2,0
1558440738556554,-1,1,3,1,3,8,2,-1
1558440738556554,-1,-2,-1,-1,-2,1,-2,0
1558440738556554,-4,-3,-2,-6,-8,-5,-5,-2
1558440738556554,1,2,1,1,9,10,11,5
1558440738564533,0,0,-3,3,1,-10,-2,-3
1558440738564533,0,2,1,-3,2,0,0,-1
1558440738577498,-2,-3,-2,-3,-5,-6,-8,-3
1558440738577498,-6,-7,-5,0,-8,-9,-9,-7
1558440738586474,-2,-2,-2,0,-3,2,-1,-2
1558440738586474,1,2,0,-1,4,6,3,1
1558440738592457,-1,-2,-4,-4,-3,0,-2,-2
1558440738592457,-1,-2,0,0,1,-1,-2,2
1558440738617392,2,-4,-1,-5,-1,0,-3,1
1558440738617392,-2,-3,1,0,-2,-5,-1,-4
1558440738618394,1,2,3,4,5,-4,6,6
1558440738618394,-1,1,-1,-5,-5,-3,-2,0
1558440738632375,0,1,1,-1,4,10,2,-2
1558440738632375,-2,-2,-3,-1,-8,-4,-4,-2
1558440738638338,0,0,1,-2,-1,0,0,-2
1558440738638338,4,3,3,0,9,8,11,9
1558440738647316,-4,-1,-2,-2,-3,-6,-3,-5
1558440738647316,-3,-1,1,1,-1,-3,-5,-2
1558440738653369,-2,-1,-3,-2,-2,4,-1,-3
1558440738653369,-2,-2,-3,-3,-8,-10,-6,-5
1558440738668322,-2,0,3,0,2,1,1,-1
1558440738668322,-1,-2,-6,-5,-1,2,1,-2
1558440738675246,2,0,0,-2,-2,-10,-3,3
1558440738675246,-7,0,-1,3,3,10,1,-6
1558440738685219,-1,-4,0,-1,-3,1,-3,1
1558440738685219,0,1,-2,-1,-2,-11,-1,1
1558440738698189,2,0,2,1,1,5,0,0
1558440738698189,-2,-4,-6,-1,-6,-2,-6,-3
1558440738707152,2,0,-1,-2,-2,-1,1,3
1558440738707152,5,2,1,2,10,10,10,5
1558440738713138,-1,-1,-2,1,0,4,-3,-5
1558440738713138,-3,0,-1,-4,-1,-6,-2,0
1558440738729095,-3,0,-1,-2,-4,-4,-4,-7
1558440738729095,-1,-2,2,0,-5,-7,-7,0
1558440738735078,-3,-4,0,-2,0,5,5,0
1558440738735078,2,0,0,-3,2,-2,0,-1
1558440738750037,0,-2,-3,-1,1,-3,-3,2
1558440738750037,-3,-1,-1,1,0,2,-1,-1
1558440738758016,-4,-3,-1,-1,-1,-4,0,-5
1558440738758016,1,0,3,-1,0,1,0,0
1558440738766993,-2,1,-1,0,-1,-1,2,0
1558440738766993,1,-1,1,-2,2,3,1,3
1558440738772976,-3,-2,-3,-2,-5,-5,-4,-3
1558440738772976,2,-2,1,4,1,4,2,1
1558440738788933,-3,0,4,-2,-6,-6,-6,-6
1558440738788933,0,0,-1,-2,-1,-1,-3,-1
1558440738795914,0,2,0,1,7,9,6,5
1558440738795914,-3,0,-3,-1,-3,-12,-1,3
1558440738803892,-3,-2,-3,-1,1,2,-2,-10
1558440738803892,-2,-2,-1,-1,-1,-2,-1,-6
1558440738817855,-1,-1,2,1,-3,0,-2,0
1558440738817855,-1,-2,-3,-5,-1,-2,-1,-3
1558440738826832,-2,-4,-4,-2,-5,-3,-4,1
1558440738826832,-3,-1,-2,2,-3,2,1,-2
1558440738832816,1,-1,1,3,6,-12,4,4
1558440738832816,-1,-3,1,-2,-3,0,-5,0
1558440738857749,0,0,-3,-5,-3,-1,-2,0
1558440738857749,-3,-2,-1,0,-5,-1,-4,-5
1558440738858746,0,-1,-3,-5,-6,1,-5,-3
1558440738858746,3,1,1,0,4,6,5,4
1558440738864730,-2,-3,1,4,-1,-5,1,-5
1558440738864730,-3,0,-2,-4,5,7,4,3
1558440738877696,-1,1,-1,-3,-4,-1,-3,-3
1558440738877696,0,0,-1,2,-3,-4,-3,0
1558440738886671,1,2,0,-4,-2,1,0,5
1558440738886671,-3,-1,-2,-3,-4,-8,-5,-10
1558440738892655,-1,0,-2,0,-1,1,-1,0
1558440738892655,-2,-2,0,0,-2,4,-2,-6
1558440738909610,2,-1,-3,-3,1,-1,1,2
1558440738909610,-1,-3,-1,-1,-3,-12,-5,3
1558440738915593,-1,0,0,2,2,2,0,1
1558440738915593,-1,-2,-3,-5,-3,-1,-4,-2
1558440738924570,-2,-3,-1,-1,-3,3,-2,-4
1558440738924570,0,-1,-1,1,-2,-2,-2,1
1558440738937535,-1,-1,-2,-2,3,10,3,1
1558440738937535,2,0,-1,0,4,-3,2,3
1558440738946527,-2,-1,0,1,1,-4,-1,-2
1558440738946527,3,2,1,0,2,7,1,6
1558440738953492,-4,-3,0,-4,-4,-2,-6,-12
1558440738953492,-1,-1,0,-1,-5,-14,-6,-3
1558440738969450,-1,2,1,1,-2,-1,-2,-4
1558440738969450,-1,0,-1,0,1,4,0,2
1558440738975434,0,-3,-4,-2,-1,-1,0,2
1558440738975434,-4,-1,-1,1,-1,0,-3,-3
1558440738984409,0,-1,-2,-2,-2,-3,0,1
1558440738984409,-2,-1,0,-1,1,-3,0,-4
1558440738998372,2,1,0,1,1,1,2,5
1558440738998372,0,-2,-1,-1,0,3,2,-3
1558440739006350,0,-2,1,-3,0,1,-4,1
1558440739006350,-4,-3,-4,-3,-6,-10,-6,-6
1558440739013332,1,1,1,2,2,0,4,3
1558440739013332,0,1,0,-1,5,10,3,2
1558440739029289,1,-1,-1,-2,-4,-5,-2,1
1558440739029289,0,0,-1,2,-1,3,2,0
1558440739035280,-2,-1,-1,-4,-1,-7,-6,-7
1558440739035280,-2,-3,-3,-4,-5,-3,-2,0
1558440739050236,0,-3,-2,3,3,8,4,0
1558440739050236,0,0,3,-1,-3,-2,0,3
1558440739058212,-1,-1,-1,1,0,-11,-1,-4
1558440739058212,-2,0,-3,-1,3,8,4,1
1558440739073173,-3,-1,-4,0,-1,-6,-6,-5
1558440739073173,4,-1,-1,-3,-2,2,2,5
1558440739074169,0,0,-2,-3,-6,0,-7,-3
1558440739074169,-1,-4,-3,1,-10,-9,-8,-3
1558440739089137,1,1,3,0,4,-1,6,3
1558440739089137,-1,-2,-1,-4,1,1,0,-2
1558440739095114,0,-2,1,1,-3,-2,0,0
1558440739095114,0,0,-1,-3,-4,-2,-3,-2
1558440739110077,-3,-1,-4,-3,-4,-3,-6,3
1558440739110077,-1,-4,-1,1,2,1,1,-2
1558440739118057,-2,0,0,2,1,2,-1,0
1558440739118057,-4,-1,-2,-3,-2,0,-1,-4
1558440739134016,-1,-1,-1,-2,-1,-1,-2,-2
1558440739134016,-4,-1,-1,0,-2,-11,-3,-3
1558440739134016,0,-2,-1,-3,2,3,2,0
1558440739134016,3,0,0,0,2,0,4,4
1558440739148975,-1,0,1,3,1,0,-1,-2
1558440739148975,2,-1,-2,-3,-3,-3,-4,2
1558440739155951,-3,-1,-5,-4,-3,-2,-4,-2
1558440739155951,0,1,-1,-2,-3,-5,-2,-2
1558440739170913,1,1,0,1,0,0,2,-1
1558440739170913,-1,-1,1,-3,1,-1,-3,-4
1558440739177894,0,0,-1,-1,1,6,3,-1
1558440739177894,-1,-3,-2,1,-4,-4,-3,-1
1558440739193852,-4,-4,-2,-4,-3,0,-4,-4
1558440739193852,1,1,0,1,0,5,5,-2
1558440739194848,1,0,0,0,0,-7,0,2
1558440739194848,-2,-2,1,-2,2,-1,-1,1
1558440739209808,-1,0,1,1,0,-1,4,2
1558440739209808,-5,-1,-3,-4,-3,-3,-3,-4
1558440739215790,1,0,-1,0,-3,1,-2,1
1558440739215790,1,-1,-1,-4,-4,-7,-4,-2
1558440739239732,1,-1,-2,-2,0,-1,-2,1
1558440739239732,0,1,-2,3,2,5,2,2
1558440739240726,-2,-2,0,-3,0,-1,-3,1
1558440739240726,-6,0,-3,-1,-2,-3,-3,-7
1558440739253691,0,0,-1,1,3,5,3,2
1558440739253691,0,-2,1,2,-1,-1,2,0
1558440739254690,2,-1,0,-2,-4,-1,0,2
1558440739254690,1,-1,-2,0,0,0,-2,2
1558440739269651,-2,-2,0,1,0,1,1,-3
1558440739269651,1,-1,-5,-5,-1,5,-2,-3
1558440739275636,0,-1,-1,-2,-4,-7,-3,-2
1558440739275636,-2,-4,1,1,-4,-5,-6,-2
1558440739290598,0,-1,1,-3,-2,0,0,-1
1558440739290598,-1,2,2,2,6,-5,6,4
1558440739297574,-4,-1,-2,2,0,0,-2,-4
1558440739297574,1,0,-4,-4,-1,-2,-1,0
1558440739313590,-3,-2,-3,-3,-3,-4,-5,-2
1558440739313590,-2,-1,-1,-3,-6,0,-3,-3
1558440739314539,1,-1,-2,-1,-3,-3,0,5
1558440739314539,1,2,2,1,8,-1,7,-2
1558440739329490,-1,-1,2,-1,0,6,-2,-6
1558440739329490,-3,-1,-2,-2,-3,1,-4,-2
1558440739335472,-2,0,1,-3,-3,-2,-2,-1
1558440739335472,0,0,-1,-4,-5,-2,-5,-3
1558440739350431,1,-2,-2,3,0,-1,3,3
1558440739350431,-1,-2,1,2,3,3,1,2
1558440739358408,-3,-2,-3,-1,0,1,-1,-4
1558440739358408,1,-2,-3,-1,-3,-1,1,3
1558440739373370,-3,0,-2,-2,-3,1,-2,-6
1558440739373370,0,1,0,-1,-3,-2,-1,-1
1558440739374367,0,1,3,1,1,-5,3,-1
1558440739374367,-2,-2,-1,3,-1,1,-3,-1
1558440739389326,2,0,-1,-5,-1,0,-1,2
1558440739389326,-2,-3,0,-2,-3,-1,-4,-4
1558440739395311,-3,-1,-1,1,-2,-3,-3,-3
1558440739395311,1,-1,0,1,12,20,12,3
1558440739410270,0,0,-1,-3,-3,-8,-2,2
1558440739410270,2,1,0,-1,-4,-11,-3,3
1558440739418248,-3,-2,-1,1,0,3,1,-6
1558440739418248,-1,-2,-1,-4,-4,-2,-3,1
1558440739433209,-3,-3,-2,-2,-3,-4,-5,-6
1558440739433209,1,3,0,3,5,11,4,2
1558440739434206,1,-1,-3,-6,-5,-7,-6,-2
1558440739434206,-3,0,-3,0,-1,1,0,-1
1558440739449165,-1,0,-1,2,1,1,-1,-1
1558440739449165,-2,-2,-3,-7,-8,-6,-4,-6
1558440739463128,-1,1,0,0,2,-2,0,0
1558440739463128,0,-2,0,0,0,1,-2,-3
1558440739470110,-2,-1,2,1,-2,2,-1,3
1558440739470110,-4,-3,-2,-2,-2,-6,-2,-6
1558440739478088,-2,-1,-2,-1,4,5,1,0
1558440739478088,-2,1,1,4,3,3,3,1
1558440739493055,-1,-2,-1,-2,-1,-1,1,1
1558440739493055,3,-1,1,-2,-2,1,-1,1
1558440739500036,1,-1,-2,1,-4,-2,-3,2
1558440739500036,-6,-2,-2,-4,-5,-12,-9,-8
1558440739509111,-1,-1,-2,0,4,-2,3,0
1558440739509111,0,1,-1,0,-2,-3,-1,2
1558440739516072,-2,-3,0,0,-1,2,-2,-3
1558440739516072,0,-2,-1,-4,-2,-3,-2,-4
1558440739530950,-1,0,0,0,-3,-2,-4,0
1558440739530950,-1,-1,-1,-1,-1,-6,-5,-1
1558440739537933,-1,-1,-2,-2,1,4,0,0
1558440739537933,-1,0,-1,1,0,3,4,-1
1558440739552996,-1,-3,1,2,1,2,-1,-2
1558440739552996,0,-2,1,0,-1,-4,2,2
1558440739570124,0,-1,-1,-3,-3,-3,0,-1
1558440739570124,0,-2,-1,0,-1,-1,-2,-1
1558440739570848,0,0,-1,-2,-1,-1,0,0
1558440739570848,0,0,0,-1,2,-2,-3,-2
1558440739575838,2,-1,2,-3,-3,-5,-2,0
1558440739575838,-3,-1,0,3,-3,0,-1,-5
1558440739590788,0,0,-3,-4,0,3,-1,2
1558440739590788,-1,0,-1,-1,1,3,1,-3
1558440739597785,-2,-2,-2,0,-3,-5,-3,0
1558440739597785,-1,-1,0,-2,-1,0,-2,3
1558440739612730,-1,0,-2,-3,0,-1,-2,-4
1558440739612730,-3,0,0,1,0,0,1,-1
1558440739620709,0,0,2,-1,-2,-5,-2,4
1558440739620709,-1,-1,0,-4,-2,-1,-4,-6
1558440739637662,-2,-2,-1,-3,-1,2,-1,0
1558440739637662,-1,-2,0,2,1,-3,-2,1
1558440739638659,-3,-1,-1,-1,3,8,3,0
1558440739638659,-1,-2,-1,-4,-3,-4,0,2
1558440739650627,-1,0,2,3,-2,-7,-3,-1
1558440739650627,-6,-4,-7,-6,-5,-3,-5,-5
1558440739658770,-1,-2,-3,-1,-1,1,-2,-1
1558440739658770,1,2,1,2,-2,-8,-1,3
1558440739673782,0,-1,-1,-1,-2,1,-3,-5
1558440739673782,2,0,0,-2,-1,4,0,1
1558440739680927,-2,-1,-3,-1,-3,-2,-3,-3
1558440739680927,0,1,0,2,-1,-2,1,3
1558440739696860,-4,-3,-1,-3,-5,-11,-2,-5
1558440739696860,0,-1,-1,-2,-2,-3,0,0
1558440739696860,-3,-2,0,4,3,7,3,-4
1558440739696860,-1,0,0,-3,-2,-5,-7,-1
1558440739710733,0,-1,-1,-2,2,1,3,0
1558440739710733,-2,-1,-2,3,5,11,2,-1
1558440739718661,0,-1,1,0,-5,-7,1,2
1558440739718661,-4,-5,-3,-3,-4,-2,-6,-3
1558440739733660,1,-1,0,-2,2,-2,1,-1
1558440739733660,-1,-2,0,-1,-5,-6,-6,-4
1558440739740607,0,1,-1,-4,-1,-1,1,-2
1558440739740607,1,1,-1,-1,0,-1,2,2
1558440739756355,-2,-1,-2,2,0,2,-1,0
1558440739756355,-4,-2,-1,-3,1,3,0,0
1558440739757345,1,-1,0,1,2,2,-1,3
1558440739757345,-2,-4,-1,1,-2,-2,0,-1
1558440739770312,2,-1,-1,-2,-2,2,-2,-2
1558440739770312,-1,0,0,1,-1,-5,-1,1
1558440739778295,2,-1,-2,-3,-4,-1,-4,0
1558440739778295,-3,-3,-5,-3,-3,3,-1,-7
1558440739793250,-4,1,0,-3,-1,-2,-2,-3
1558440739793250,3,1,2,-1,-1,-9,-1,4
1558440739800271,-2,-1,-2,1,1,3,0,0
1558440739800271,-2,-1,-2,-1,4,4,2,0
1558440739816241,0,-2,-1,-4,-3,-2,1,0
1558440739816241,-2,1,-1,3,-2,3,-3,-3
1558440739817184,-4,-2,-1,-4,-5,-9,-5,-2
1558440739817184,2,2,1,-3,2,1,0,1
1558440739838125,2,0,0,1,3,6,2,3
1558440739838125,-3,-1,-2,0,1,3,-2,-6
1558440739839126,-2,-1,-1,-4,-4,-10,-3,-2
1558440739839126,0,2,-1,2,3,6,3,0
1558440739853088,-3,-2,-1,2,-5,-9,-5,-1
1558440739853088,4,-2,-6,-6,1,1,2,2
1558440739860067,0,0,0,-1,2,11,3,-2
1558440739860067,-2,-2,-1,1,-6,-12,-5,-3
1558440739876025,0,-1,-3,-2,-3,-10,-2,1
1558440739876025,-1,-1,1,1,6,10,6,2
1558440739877020,-4,-3,-3,-3,-4,-6,-3,-6
1558440739877020,-4,-1,0,-1,-2,2,-1,-4
1558440739891286,-1,0,-2,-1,3,5,4,9
1558440739891286,1,-2,-1,0,-1,-6,-1,-1
1558440739898314,0,-1,0,3,3,1,1,-4
1558440739898314,-1,-2,-1,-5,-5,-7,-5,-1
1558440739914370,1,-1,0,-1,-3,3,-4,-2
1558440739914370,-5,-3,-5,2,-1,-5,-6,-4
1558440739920523,2,0,-1,-2,3,5,2,4
1558440739920523,0,-1,0,-1,-1,1,2,-2
1558440739936480,0,1,-1,-1,1,0,1,-2
1558440739936480,-2,-2,1,-1,-6,1,-3,1
1558440739937331,-1,0,-1,-5,-2,-7,-5,-4
1558440739937331,-2,0,-2,-2,0,-5,-1,0
1558440739950542,0,-1,-1,2,2,-7,3,2
1558440739950542,1,-1,1,-2,3,9,5,-1
1558440739958501,1,-1,-1,-2,0,-1,-2,0
1558440739958501,1,-1,1,4,-2,-7,-2,1
1558440739973234,-3,-3,-3,-4,-3,-1,-3,-3
1558440739973234,-1,-1,-4,-4,-2,-3,-3,-4
1558440739981220,-1,-2,1,1,0,-1,-3,-1
1558440739981220,-4,-2,-1,-2,0,2,-2,0
1558440739996173,2,0,0,-1,-1,-7,0,0
1558440739996173,-1,1,2,-1,2,0,2,-1
1558440740004150,1,-1,-2,4,1,3,3,2
1558440740004150,-4,-2,-1,-4,-1,-3,-3,-5
1558440740010135,-3,-2,0,-4,-4,-1,-1,-2
1558440740010135,-1,-2,-1,0,-2,-5,2,6
1558440740018114,-3,-1,0,-1,4,4,3,-5
1558440740018114,0,-2,1,-1,0,4,-1,2
1558440740041174,-4,0,0,2,-3,-4,-3,-6
1558440740041174,2,1,1,-1,1,-8,1,2
1558440740042052,0,1,-2,-3,-4,-2,-3,0
1558440740042052,2,0,0,-2,6,14,6,3
1558440740056012,-2,0,-1,0,-3,0,-6,-2
1558440740056012,-3,-4,-3,-6,-7,-8,-4,-3
1558440740057007,-1,1,-2,-1,1,1,3,0
1558440740057007,2,-1,1,1,-1,-4,0,1
1558440740070162,-2,-4,-3,-1,4,5,3,0
1558440740070162,0,-1,0,-2,-1,-4,-3,-2
1558440740078274,1,-2,-3,-1,-5,-5,-3,-3
1558440740078274,-1,-1,0,-1,-5,-8,-4,1
1558440740093039,-1,0,1,2,9,12,9,-2
1558440740093039,-3,0,-1,0,-1,3,0,2
1558440740100020,-5,-3,1,2,-5,-3,-7,-9
1558440740100020,2,1,-2,-5,-2,-5,-5,-1
1558440740118127,-1,-2,-2,-3,-2,1,3,3
1558440740118127,-2,0,0,2,-1,2,0,0
1558440740118127,0,-1,-1,-5,-3,-1,0,2
1558440740118127,0,-1,-1,0,-2,0,0,2
1558440740131062,-1,-2,0,0,-2,-8,-8,-5
1558440740131062,-2,0,0,-1,0,3,-1,-1
1558440740137919,-2,-3,-2,-2,0,-1,0,-2
1558440740137919,-2,-2,-4,-2,-3,-5,-2,-3
1558440740153178,-2,-3,-1,1,0,3,1,2
1558440740153178,2,-1,0,1,3,-7,-1,1
1558440740160888,-3,-1,-3,-2,0,0,-4,0
1558440740160888,-1,-1,0,3,-1,-1,-3,-3
1558440740175956,-2,-1,-1,-5,-4,0,-2,-2
1558440740175956,-1,-5,-2,-4,-4,-2,-1,-2
1558440740176814,-2,-1,0,3,2,2,4,5
1558440740176814,-6,-4,-2,-1,1,2,-5,-10
1558440740191823,-1,0,-1,-2,-2,-1,-4,-3
1558440740191823,-3,-1,-2,0,-1,1,-1,-1
1558440740198777,-1,0,0,1,1,-4,1,2
1558440740198777,0,-1,0,-4,-1,1,0,1
1558440740212720,0,-2,-2,-3,-3,-3,-3,-1
1558440740212720,-1,0,-1,3,-3,-8,-4,-3
1558440740220698,-1,0,-2,0,-1,2,-1,-3
1558440740220698,-1,-1,-1,1,-1,-1,3,0
1558440740244672,2,3,0,3,2,-5,0,-1
1558440740244672,-4,-2,-3,-3,-1,-2,-2,-2
1558440740244672,-3,-1,-1,-3,-5,-2,-6,-4
1558440740244672,-1,-2,-1,1,-2,-4,-2,-1
1558440740250662,2,0,1,2,4,5,4,4
1558440740250662,-2,-4,-4,-5,-4,0,-4,-5
1558440740257628,-1,-2,-1,-2,-2,-5,-2,-2
1558440740257628,0,0,0,2,7,10,7,2
1558440740273635,-3,-3,0,-4,-7,-9,-9,-3
1558440740273635,1,1,-1,-2,-2,2,1,5
1558440740280733,-4,0,2,3,1,5,2,-11
1558440740280733,0,-1,-3,-5,-4,-12,-4,1
1558440740296681,-1,-1,-1,-2,3,9,1,-4
1558440740296681,2,-4,0,0,-1,1,0,2
1558440740296681,1,-1,-3,-1,-3,-7,-3,4
1558440740296681,-2,-2,-1,-2,-2,-6,0,-1
1558440740310514,0,2,0,-1,0,2,1,2
1558440740310514,0,0,-1,1,-3,1,-6,-1
1558440740318550,1,-1,-1,-3,-1,1,1,1
1558440740318550,-1,-1,-1,-1,3,6,3,-2
1558440740333407,-2,-2,-3,0,-3,-6,-1,2
1558440740333407,-2,1,0,-2,2,-1,-1,-6
1558440740349354,1,0,-1,-1,0,2,-2,2
1558440740349354,4,1,-1,-1,-4,-9,-4,0
1558440740357332,-3,-1,-1,2,3,6,1,-2
1558440740357332,0,-1,-2,-5,-3,-7,-3,-1
1558440740358329,0,-1,-1,0,5,7,6,3
1558440740358329,-1,-3,-2,0,-5,-2,-3,-2
1558440740370298,-2,-2,-3,-3,-3,1,-3,-3
1558440740370298,-1,0,4,1,-2,-10,-3,-5
1558440740378276,-1,-1,1,2,-1,-2,1,1
1558440740378276,0,-1,0,-2,3,6,2,1
1558440740394236,-3,-3,-4,-3,-5,-4,-4,-4
1558440740394236,-3,-3,-3,-1,-5,-4,-6,-2
1558440740400274,-2,-1,0,-3,-6,-15,-8,-2
1558440740400274,0,2,2,2,4,3,6,4
1558440740415178,2,2,2,-3,-1,1,0,-1
1558440740415178,2,2,-1,3,2,10,5,1
1558440740423158,-2,0,-1,-2,1,2,-3,-2
1558440740423158,-1,0,-1,-4,-5,-5,-6,-2
1558440740430173,-4,-4,-4,3,-1,0,-3,-3
1558440740430173,-3,-1,-1,0,2,3,1,-6
1558440740438116,0,0,-2,-3,-5,-2,-1,0
1558440740438116,-1,0,1,3,4,-1,4,3
1558440740454073,0,0,1,-2,-2,-6,0,2
1558440740454073,-1,-2,-1,-2,0,0,-1,-1
1558440740469034,0,-2,-2,-2,-3,-3,-1,0
1558440740469034,-4,-2,-3,1,-2,0,-4,-1
1558440740475017,-2,-2,0,-2,0,1,2,0
1558440740475017,-3,-2,-2,-2,-3,-2,-4,-4
1558440740483993,0,2,-1,3,0,-5,-3,-3
1558440740483993,-1,1,0,-3,-1,-2,0,-4
1558440740489977,0,-3,-3,-2,0,-1,2,2
1558440740489977,1,1,-1,2,1,2,1,2
1558440740497956,-1,-2,-1,-1,-2,2,-1,0
1558440740497956,-1,-2,-3,-4,-4,-2,-5,-2
1558440740520895,-2,1,1,0,-1,-2,-2,1
1558440740520895,-1,0,0,3,0,-1,0,-3
1558440740521893,1,0,-1,-3,3,3,2,-2
1558440740521893,-3,-2,-3,-3,2,3,3,0
1558440740543834,0,0,0,3,0,1,2,3
1558440740543834,-2,-2,-1,-4,-4,-6,-3,-4
1558440740543834,-2,1,0,-1,-1,3,1,-1
1558440740543834,-1,-2,-2,1,-3,-2,-5,-5
1558440740551812,0,-1,-2,-1,-1,-3,-1,1
1558440740551812,-1,0,-1,-1,4,6,3,3
1558440740557795,-4,-4,-3,-3,-2,-1,-2,-3
1558440740557795,-3,-2,0,1,-2,3,-1,0
1558440740572755,-1,-1,-2,-4,-1,-3,-2,-4
1558440740572755,-1,-3,-2,-2,-2,0,-1,-2
1558440740580735,-2,-2,-3,1,-2,-8,-1,1
1558440740580735,1,-1,-1,1,3,6,5,1
1558440740596692,-1,-1,1,-2,-7,-8,-5,-4
1558440740596692,0,0,-1,1,3,1,2,1
1558440740602676,3,0,0,2,4,10,4,1
1558440740602676,1,1,0,-3,-1,-9,-2,0
1558440740620628,-3,-2,-4,-6,-2,-3,-4,-6
1558440740620628,-3,-3,-1,0,-7,-6,-6,-3
1558440740620628,-1,-1,0,-2,-1,-5,0,0
1558440740620628,1,0,0,0,3,6,2,3
1558440740632596,-2,-1,-1,1,-4,-5,-6,-3
1558440740632596,0,-1,-3,-2,-2,-5,-1,-3
1558440740648553,2,2,2,0,5,6,5,1
1558440740648553,0,1,-2,0,-4,-2,-5,-1
1558440740655557,2,1,1,-1,3,2,2,5
1558440740655557,-2,-2,-1,-2,-3,-1,-1,1
1558440740662517,-2,-2,-2,1,0,0,-2,0
1558440740662517,-1,-1,-1,-1,-3,-6,-3,-3
1558440740678473,0,-1,-3,-4,-1,-1,-2,2
1558440740678473,1,-1,1,0,2,-3,3,2
1558440740679470,-2,-4,-4,-1,-3,0,-3,-4
1558440740679470,-3,-3,-1,-2,1,6,2,-1
1558440740694430,0,-2,0,-2,0,-6,-2,-2
1558440740694430,-1,-1,1,3,2,6,1,2
1558440740700414,-4,-3,-3,-4,-7,-4,-7,-1
1558440740700414,-5,-3,-3,-3,-7,-8,-7,-10
1558440740723353,1,-2,1,1,5,2,5,1
1558440740723353,-4,-1,-2,0,-2,2,0,3
1558440740724351,-3,0,-3,-4,-2,-5,-4,-4
1558440740724351,3,2,0,-1,2,2,2,3
1558440740755276,-2,-1,-2,1,-6,-4,-5,-5
1558440740755276,-1,0,1,-4,2,-4,0,-2
1558440740755276,-1,-3,0,-1,2,0,3,-1
1558440740755276,-2,-2,-1,0,-4,-3,-3,-4
1558440740757263,-1,1,1,0,3,5,5,1
1558440740757263,0,-1,-1,-3,-2,-1,-4,4
1558440740760265,-1,-1,-2,-1,-3,-3,-7,-1
1558440740760265,-3,-2,2,3,0,3,-2,-1
1558440740775226,0,-3,-4,-3,-2,0,-3,-2
1558440740775226,2,-1,-4,-3,1,-1,1,-2
1558440740783206,1,0,1,4,2,2,6,3
1558440740783206,0,1,-1,-4,0,0,-1,2
1558440740798226,-7,-3,-2,-1,-5,-1,-4,-7
1558440740798226,1,-1,0,2,-1,-1,-2,-1
1558440740799150,1,0,-1,-3,-2,0,-1,0
1558440740799150,2,-1,-2,-1,-4,-6,-2,-4
1558440740822090,-4,-3,-3,0,-4,-2,-5,-5
1558440740822090,-4,-2,0,1,-2,-4,0,-1
1558440740823088,0,-1,0,0,5,-5,3,1
1558440740823088,0,-2,-2,-2,-3,1,1,2
1558440740835090,2,1,-2,0,-3,0,0,4
1558440740835090,-4,0,0,-5,-3,-3,-5,-8
1558440740843034,-3,-2,-3,-4,-5,0,-3,-5
1558440740843034,-2,0,0,3,1,-5,-1,2
1558440740859988,0,0,-1,1,2,3,3,1
1558440740859988,0,-1,0,-3,-2,-5,-4,0
1558440740860986,1,1,-1,0,5,10,7,6
1558440740860986,-6,-2,2,0,-2,-5,-4,-6
1558440740873952,0,0,0,-2,1,3,0,-4
1558440740873952,1,-1,-2,-2,0,3,-1,1
1558440740879935,-3,-3,-1,1,-6,-5,-6,-7
1558440740879935,2,-4,-1,-4,0,-2,2,4
1558440740896889,-1,1,2,-1,1,1,3,-1
1558440740896889,-2,-1,-2,3,-1,0,-1,-2
1558440740902872,-3,-2,-2,-4,-4,-1,-6,-1
1558440740902872,-3,0,-3,-1,0,3,-2,-1
1558440740918830,0,-1,-1,-2,-1,-14,-4,-3
1558440740918830,2,0,-1,0,-1,4,3,1
1558440740919838,0,0,0,-3,-1,-2,0,-1
1558440740919838,0,-1,-1,-2,-3,0,-4,-3
1558440740932804,-2,0,-1,-1,-4,2,-4,-3
1558440740932804,3,-1,-3,-4,-5,-7,-3,-2
1558440740940773,0,-2,3,2,7,3,8,1
1558440740940773,-4,-3,-3,3,1,0,2,2
1558440740955739,-1,-1,4,-2,-2,1,-1,0
1558440740955739,-3,-3,-2,-1,-2,3,-2,-4
1558440740962843,-4,-1,-3,-2,-8,-12,-9,-4
1558440740962843,2,1,-1,2,3,4,3,-1
1558440740978686,-1,1,2,-1,3,0,2,4
1558440740978686,-2,-1,-1,-1,-3,-3,-3,-2
1558440740979678,0,-1,0,3,0,6,0,-1
1558440740979678,-2,-1,-1,-4,-2,0,0,-4
1558440740992744,-1,-2,-4,-3,-5,-5,-4,-1
1558440740992744,1,0,1,4,4,2,4,-1
1558440741000922,-2,-1,0,-3,-4,-6,-1,2
1558440741000922,0,-1,-1,-2,0,3,0,-2
1558440741015722,0,-1,-2,2,1,6,-1,-4
1558440741015722,-2,-2,-1,0,-5,-8,-5,-4
1558440741023553,0,-2,-2,-5,-3,1,0,-3
1558440741023553,-1,1,1,-3,-2,0,-2,-1
1558440741038515,-3,-2,-1,1,-3,-2,-1,2
1558440741038515,-2,-1,-3,-3,0,-1,-1,-1
1558440741039510,2,1,-1,-2,-1,-4,-3,-2
1558440741039510,0,-2,-1,1,-5,-6,-5,1
1558440741052476,1,0,0,-1,4,8,5,4
1558440741052476,-4,-2,-3,-4,2,1,1,2
1558440741060667,-5,-2,-2,0,-2,-2,-1,-5
1558440741060667,-3,-3,0,-2,0,-3,-1,1
1558440741075411,0,-1,-2,-3,-1,-2,-1,2
1558440741075411,-1,-3,-1,1,0,1,0,1
1558440741083390,-1,0,1,1,-1,0,-3,-2
1558440741083390,-2,0,1,-1,1,1,2,-2
1558440741098351,-2,0,-1,-1,0,-3,-1,-1
1558440741098351,-1,-2,-3,3,-1,0,0,-1
1558440741099348,1,1,6,-2,-1,0,-4,0
1558440741099348,0,-1,1,-2,-4,-4,-3,-2
1558440741113309,-1,0,1,2,-1,1,1,-3
1558440741113309,-1,-1,0,-2,0,1,2,1
1558440741120293,-2,-4,-6,-2,-4,-4,-4,-1
1558440741120293,1,0,0,-1,-2,-2,-2,-3
1558440741135259,-2,-1,-1,1,2,1,0,-5
1558440741135259,-1,0,0,-1,3,-2,0,0
1558440741143236,3,-2,-2,-1,-2,0,0,8
1558440741143236,-3,-3,-2,3,1,4,2,-3
1558440741158197,2,0,0,-3,4,-4,4,4
1558440741158197,-2,-1,-2,-2,-3,-7,-3,-3
1558440741159189,-2,0,2,1,0,3,0,-4
1558440741159189,2,1,-2,-2,-5,-4,-3,6
1558440741174198,-1,-3,-4,-5,-8,-11,-7,-10
1558440741174198,-2,0,-3,-1,-1,3,1,-2
1558440741181131,-1,1,-2,2,1,-8,-2,3
1558440741181131,1,-3,-2,-3,-1,2,-1,0
1558440741196093,-1,0,-1,-1,1,4,2,0
1558440741196093,2,-1,0,2,-2,-1,1,0
1558440741203225,-5,0,-4,-3,3,4,2,-6
1558440741203225,-2,-1,-1,-4,-4,-9,-5,-6
1558440741219179,-1,0,-1,2,0,1,0,1
1558440741219179,-1,-4,0,-3,-4,-4,-5,-1
1558440741219179,-4,-4,-3,-3,-3,-4,-3,-3
1558440741219179,0,0,-2,1,4,3,3,1
1558440741255928,1,-1,-2,0,2,3,-2,-1
1558440741255928,-1,-1,0,-2,-2,1,0,-2
1558440741264904,0,0,0,0,-1,0,0,-4
1558440741264904,-3,-2,-1,1,-5,-13,-4,-3
1558440741265903,-1,0,1,-1,4,-1,-1,6
1558440741265903,1,1,-2,-3,3,5,2,2
1558440741266901,2,2,1,2,5,1,3,1
1558440741266901,-1,1,-2,-2,-2,2,-3,-4
1558440741278867,-3,-3,0,-3,-7,-5,-7,-3
1558440741278867,2,0,-2,-1,-3,-5,-1,4
1558440741278867,1,-2,1,0,-2,2,-1,-2
1558440741278867,1,0,1,-1,6,7,5,0
1558440741292856,1,0,-3,-1,4,5,2,2
1558440741292856,-5,-2,1,0,-3,3,-3,-7
1558440741300836,0,-3,-4,-5,-8,-10,-6,-1
1558440741300836,1,2,1,0,0,-3,2,3
1558440741315786,-2,-3,-1,4,0,1,1,-2
1558440741315786,0,-1,-2,-2,2,2,2,-3
1558440741322751,-2,-2,-2,-1,-3,-5,-3,-3
1558440741322751,-1,-1,-1,-3,-4,-3,-4,-1
1558440741337711,0,-3,0,-2,-3,-3,-1,-2
1558440741337711,1,0,0,-1,2,-2,3,-1
1558440741354699,-7,-3,-1,0,-1,-2,-3,-4
1558440741354699,0,-2,0,3,2,-2,2,-1
1558440741355662,-5,0,0,-3,-3,1,-3,-5
1558440741355662,2,-1,-4,-4,-4,-6,-5,0
1558440741360649,4,0,0,3,7,4,4,4
1558440741360649,-2,0,0,-2,0,1,1,-1
1558440741377604,3,-2,1,-1,-2,-1,-1,3
1558440741377604,-5,-3,-2,-1,-7,-7,-7,-13
1558440741399772,1,0,-1,1,-1,-8,2,0
1558440741399772,-3,-3,-3,-1,3,6,0,-2
1558440741400544,-1,1,-1,0,1,7,2,-1
1558440741400544,-3,1,-1,0,-4,-4,-3,3
1558440741406742,-1,0,0,-4,0,6,0,-4
1558440741406742,-1,0,-1,-1,-2,0,0,-1
1558440741413661,-3,-2,0,1,-2,-1,-2,-4
1558440741413661,0,0,2,0,7,12,5,2
1558440741420491,0,-1,-1,-1,-3,-5,-1,-1
1558440741420491,1,1,1,-1,-2,-7,-2,-1
1558440741435450,-4,-2,-1,-2,-4,-6,-4,-2
1558440741435450,3,0,-1,-2,-2,-5,-3,1
1558440741451759,-1,-2,-2,-2,0,5,1,0
1558440741451759,2,-1,-1,1,0,-2,-5,4
1558440741458675,-8,-3,-2,-3,0,2,-3,-9
1558440741458675,-3,0,1,-1,1,-1,2,-1
1558440741466694,-1,0,-1,1,-2,-1,-1,0
1558440741466694,-1,-2,-1,-5,-4,-6,-2,-1
1558440741481654,3,0,1,0,-3,-4,2,4
1558440741481654,-3,-3,-3,1,-1,0,-2,-8
1558440741481654,-3,0,2,3,1,0,2,3
1558440741481654,-3,-1,-4,-3,-2,2,-1,-3
1558440741495626,1,0,-3,-3,-2,0,1,1
1558440741495626,-2,-1,2,2,-1,-1,-2,1
1558440741503268,0,-3,0,-5,-4,-5,-2,0
1558440741503268,0,0,0,2,4,5,1,1
1558440741518535,1,-3,0,2,0,-6,0,0
1558440741518535,-2,-3,-5,-3,-3,-1,-2,-2
1558440741526489,-1,-1,-4,-3,-6,0,-5,-3
1558440741526489,-3,1,2,1,-1,-3,0,-6
1558440741541448,-1,1,0,0,3,3,2,3
1558440741541448,1,-1,0,-2,-1,-2,-1,4
1558440741542165,-2,-2,-2,-3,-2,1,-1,-5
1558440741542165,-4,-6,-3,0,-6,-5,-7,-6
1558440741557126,0,2,2,-3,0,5,2,2
1558440741557126,-2,-1,-1,-1,0,-4,-5,-3
1558440741563137,0,-2,-2,1,1,2,0,2
1558440741563137,-1,-1,0,-4,-1,-6,-1,-1
1558440741579064,-1,-1,-1,-3,-5,-5,-6,2
1558440741579064,-1,1,0,2,4,10,4,-8
1558440741586074,2,0,0,0,1,1,2,0
1558440741586074,1,-2,-2,-2,1,-7,1,1
1558440741601005,0,-2,-2,-1,-4,-3,-2,-1
1558440741601005,-1,-3,-1,3,-4,-4,0,1
1558440741602031,-2,1,-2,-2,0,1,-3,-3
1558440741602031,-5,-2,-2,-2,1,5,0,-2
1558440741614968,-2,-2,-2,0,-3,-2,-1,-1
1558440741614968,-1,-1,-1,-3,2,-1,1,-1
1558440741630927,-3,-1,-1,-3,1,0,-2,-5
1558440741630927,3,1,2,3,2,3,3,5
1558440741637907,-2,-5,-4,-3,-3,-5,-5,-3
1558440741637907,-5,-1,-3,-5,-2,-1,-2,-5
1558440741645886,2,-2,1,-3,-4,-1,1,4
1558440741645886,-3,-1,0,1,-4,-1,-4,-6
1558440741661843,-1,0,-2,-4,-3,-9,-3,-2
1558440741661843,4,2,1,0,5,9,6,8
1558440741668824,2,1,1,6,8,8,6,6
1558440741668824,-6,-3,-3,-2,-6,-2,-6,-9
1558440741675805,-3,-3,-4,-4,-4,-5,-2,-5
1558440741675805,-1,-1,-3,0,-3,-8,-3,-3
1558440741682786,-4,-2,-2,1,5,-1,2,1
1558440741682786,-2,-1,-1,-4,1,2,0,0
1558440741697747,-3,-3,-1,-1,3,4,0,-4
1558440741697747,0,-1,0,1,-3,-6,-5,0
1558440741705725,0,-1,-1,-5,-6,-10,-9,-3
1558440741705725,1,-2,-1,0,2,7,5,3
1558440741720688,1,1,1,3,3,2,4,-1
1558440741720688,-1,0,-1,-3,-2,0,-1,3
1558440741721683,-1,0,1,1,1,1,1,2
1558440741721683,-3,-3,-2,-1,-3,2,-3,-7
1558440741735644,0,1,0,-1,-2,1,0,0
1558440741735644,1,1,-1,-1,0,-3,-2,1
1558440741742626,-1,-1,-3,-2,-3,-3,-4,-5
1558440741742626,0,-1,-3,0,-1,0,-4,2
1558440741759581,2,0,0,-1,0,-4,0,0
1558440741759581,-2,-2,1,-1,-2,0,3,2
1558440741765565,-3,-1,-3,-2,-7,-5,-4,-7
1558440741765565,2,-2,-1,-5,2,4,5,4
1558440741780524,0,1,-1,-1,5,6,0,-2
1558440741780524,-3,0,0,3,0,-1,-1,-3
1558440741781523,0,0,1,-1,0,6,3,1
1558440741781523,-1,-1,-5,-4,-4,-6,-3,-1
1558440741795486,3,1,4,2,-2,-4,-1,1
1558440741795486,2,-1,0,-2,2,0,2,0
1558440741802468,-2,-3,-3,-2,-3,-1,0,-1
1558440741802468,-1,-2,-2,-2,-5,-6,-3,2
1558440741817427,-1,-2,-1,3,3,6,2,-4
1558440741817427,0,-1,-1,-1,-1,-4,-4,0
1558440741833383,-1,0,3,1,-1,-5,-4,-2
1558440741833383,-2,1,-3,-3,-5,-4,-5,-3
1558440741841361,-2,-1,-1,-4,-1,3,4,7
1558440741841361,-4,0,1,-1,-1,3,2,-8
1558440741841361,-2,-1,-4,1,0,-3,-3,-2
1558440741841361,0,0,2,1,-2,-6,-5,0
1558440741855325,-3,-3,-2,-4,-1,7,-1,0
1558440741855325,-2,-3,-2,0,0,-1,-3,-2
1558440741863304,2,0,1,3,2,2,5,4
1558440741863304,1,0,1,-2,3,-1,1,-1
1558440741878274,-3,-2,-3,-2,0,0,-5,-2
1558440741878274,1,-1,0,0,-3,1,1,2
1558440741886248,-3,0,0,-5,-6,-10,-7,-5
1558440741886248,-2,0,-2,0,-2,-5,-1,-1
1558440741901202,1,0,-2,0,2,5,4,0
1558440741901202,-2,0,0,0,-1,0,-2,-1
1558440741902202,-2,-1,0,-3,-2,-4,-1,0
1558440741902202,0,0,0,-1,3,7,4,0
1558440741915164,1,-3,-1,1,-6,-8,-7,-4
1558440741915164,1,1,0,-2,0,1,3,-1
1558440741923149,2,0,-2,-2,-1,-2,1,3
1558440741923149,-5,-4,-5,-1,-2,-4,-2,-7
1558440741938106,-3,-1,1,0,-1,-2,-1,-3
1558440741938106,0,-1,-2,-3,-2,-3,-4,0
1558440741946088,-1,-2,-2,1,-1,7,-2,-1
1558440741946088,-1,2,2,5,3,2,1,4
1558440741961048,-1,-1,-1,-3,-4,-12,-2,-2
1558440741961048,-1,-4,-2,-3,-2,1,-1,0
1558440741962048,0,-3,-2,4,2,-2,3,2
1558440741962048,-1,-3,-1,-3,-4,0,-2,-1
1558440741975011,-3,-1,-4,-4,-7,-3,-5,-6
1558440741975011,-1,1,2,1,1,-2,0,2
1558440741983049,0,-1,-1,-2,3,2,3,0
1558440741983049,-1,-1,-1,0,1,3,0,1
1558440742006922,-3,-1,-3,1,-1,0,-3,-3
1558440742006922,-2,-1,-2,0,-5,-8,-6,-2
1558440742007919,-3,-2,0,-5,-2,-2,-4,-7
1558440742007919,3,1,1,0,1,-3,2,2
1558440742020884,1,0,-1,1,1,0,2,3
1558440742020884,-3,-2,-2,-2,-2,0,-2,-3
1558440742021880,-1,2,-1,0,-1,0,0,-3
1558440742021880,2,1,0,2,-2,-2,1,0
1558440742035842,-3,-1,0,-3,-1,-1,-4,-7
1558440742035842,-1,-1,-7,-3,-1,0,-1,0
1558440742042823,2,0,2,1,-1,1,1,2
1558440742042823,2,0,-2,0,-1,-2,-2,3
1558440742057783,0,-1,-2,-1,1,0,0,4
1558440742057783,-2,-1,2,-2,-2,0,0,-5
1558440742065763,0,0,-5,1,-3,-3,-3,-3
1558440742065763,-3,-2,0,-5,-2,-2,-2,0
1558440742080723,-2,-2,-1,0,-2,-2,-2,0
1558440742080723,-2,-2,-2,2,0,1,-3,-3
1558440742081721,-1,0,0,-4,1,1,1,1
1558440742081721,-1,1,2,0,1,-1,2,-3
1558440742095684,-1,-3,-2,-1,-4,-1,-1,-3
1558440742095684,2,0,2,-1,0,-3,0,11
1558440742102663,-1,-1,-1,-1,5,6,6,-3
1558440742102663,-2,-2,-1,-2,-4,-1,-5,-7
1558440742117624,-3,0,-1,1,-1,4,-2,-3
1558440742117624,-1,-1,1,-3,-7,-5,-2,-3
1558440742133580,0,-3,-4,-6,-4,-1,-1,0
1558440742133580,-1,0,0,3,2,2,0,2
1558440742140562,1,-1,-1,-2,2,1,-2,1
1558440742140562,-2,-3,-3,0,-1,2,-3,-1
1558440742141559,1,-1,1,1,-3,-6,-6,2
1558440742141559,-3,-1,-1,-1,-1,2,2,-1
1558440742163500,-2,1,-1,-2,-3,-9,-1,-2
1558440742163500,0,0,-3,-1,0,2,4,0
1558440742164498,-3,-4,-5,0,-5,-4,-2,-3
1558440742164498,-2,-1,-2,-4,-3,0,-3,-3
1558440742186439,-1,-3,4,2,1,2,-3,1
1558440742186439,0,1,-1,0,1,-3,1,1
1558440742187437,-3,-3,-1,-7,-4,-1,-4,-3
1558440742187437,5,1,-1,-1,-1,-2,-1,8
1558440742201447,-5,-2,-1,0,-4,-4,-6,-13
1558440742201447,-5,-1,-1,-1,-2,-3,-7,-6
1558440742201447,-1,3,3,2,5,8,4,4
1558440742201447,-3,0,-2,1,-2,-4,-1,-3
1558440742223402,2,0,0,1,-1,1,3,5
1558440742223402,1,-3,-2,-4,-2,0,1,1
1558440742224341,-3,-2,-3,-1,-3,-5,-4,-4
1558440742224341,0,-1,-1,1,0,2,0,-1
1558440742239301,-1,0,1,-1,0,3,3,6
1558440742239301,0,-1,0,-2,-2,-5,-6,-1
1558440742246282,-2,1,3,3,-4,-3,-5,2
1558440742246282,-1,-1,-4,-5,1,0,0,-3
1558440742261325,-1,-3,-2,-2,5,6,3,1
1558440742261325,1,-1,-2,-1,0,-2,2,-1
1558440742268222,-3,-2,-3,1,0,2,-3,-3
1558440742268222,-3,-1,-3,-3,-4,-1,0,-4
1558440742292162,4,2,-2,-3,-2,-13,1,5
1558440742292162,-3,0,-2,3,-1,0,-2,-5
1558440742292162,0,-2,-1,-2,1,4,1,-3
1558440742292162,-2,-3,-2,-3,-3,-4,-4,-3
1558440742298145,0,-1,0,-1,-5,-6,-3,3
1558440742298145,-2,-1,-2,-1,-2,4,0,-5
1558440742313101,-2,-2,-2,-3,3,-2,-3,2
1558440742313101,-2,-2,1,4,3,1,0,0
1558440742320084,-2,-3,-5,-3,-2,2,1,-6
1558440742320084,1,-1,-1,-5,1,2,1,4
1558440742337037,1,-2,-2,-3,-6,-3,-4,-4
1558440742337037,-3,-2,0,3,2,1,1,1
1558440742343027,0,-1,0,-1,3,2,1,0
1558440742343027,-4,-2,0,-3,-3,-8,-5,-2
1558440742344017,-1,1,1,2,1,-2,2,1
1558440742344017,0,0,-2,-2,0,-2,1,1
1558440742367956,-2,2,-3,-4,-1,7,2,-2
1558440742367956,1,-3,-2,-1,-3,-3,-4,1
1558440742368958,1,0,-2,0,-1,-10,-5,0
1558440742368958,0,-3,0,-3,0,0,-4,-3
1558440742388908,-2,-1,-3,-3,-2,-8,-6,-5
1558440742388908,0,0,2,5,3,7,3,-1
1558440742389901,-2,0,-1,-7,-4,-1,-2,-1
1558440742389901,-2,-1,-1,-4,-3,1,0,0
1558440742395882,0,-2,-2,1,0,-1,-2,-3
1558440742395882,-2,-1,0,0,3,3,2,2
1558440742402865,0,-5,-2,-2,0,-4,1,-1
1558440742402865,-2,-2,0,-1,-5,-2,-5,-3
1558440742417820,-3,1,2,1,-5,-1,-3,0
1558440742417820,-1,2,-2,-3,-2,-6,1,0
1558440742425799,-2,0,-1,-3,0,2,1,-2
1558440742425799,-2,-2,-3,2,-1,-4,-4,0
1558440742440759,-1,-3,-2,-3,-5,-8,-3,-2
1558440742440759,3,-1,-1,0,3,6,4,-3
1558440742448737,1,0,-1,2,4,11,4,4
1558440742448737,0,-1,1,-2,-3,-7,-3,-3
1558440742463697,-1,-3,-1,-3,-2,-6,-3,-3
1558440742463697,2,0,2,-1,-6,-4,-4,-2
1558440742464694,0,0,0,0,3,3,2,1
1558440742464694,-3,0,-1,-1,1,1,2,-4
1558440742485638,0,0,-1,-2,-1,3,1,2
1558440742485638,-3,-2,-5,-2,-5,-4,-4,-3
1558440742486636,2,-1,1,-3,1,1,2,3
1558440742486636,0,-1,1,-3,0,-2,0,0
1558440742500599,2,-1,5,4,2,-1,0,0
1558440742500599,-3,-3,0,-2,-5,-10,-5,-1
1558440742508578,-2,-3,-2,-1,-3,1,-4,-7
1558440742508578,0,-2,-2,0,1,-2,-3,-1
1558440742523538,-3,-2,0,0,-2,1,2,-1
1558440742523538,-3,-1,-2,-4,-3,-4,-2,-1
1558440742524535,-1,-1,-3,-1,0,-1,2,0
1558440742524535,-3,-3,-1,1,1,4,2,-2
1558440742539495,0,0,0,-2,-3,-3,-3,4
1558440742539495,-1,0,0,-2,3,-1,0,-5
1558440742545478,-3,-1,-2,5,-4,-4,-7,-1
1558440742545478,-1,0,-4,-6,0,2,-1,-4
1558440742560438,0,0,3,-4,-2,-1,1,1
1558440742560438,-1,-2,-1,1,0,4,2,5
1558440742568418,-1,-2,1,-1,-3,-8,-2,-4
1558440742568418,0,-2,-1,-1,-3,1,-1,-2
1558440742583377,0,-3,-4,-1,0,1,-4,-5
1558440742583377,0,-1,0,2,2,-2,-2,-1
1558440742584374,1,0,0,-1,1,1,0,0
1558440742584374,-3,-1,-4,-2,-6,-6,-5,0
1558440742597339,-3,-1,-1,4,2,4,1,-2
1558440742597339,1,-2,2,-2,-2,0,-1,3
1558440742613298,-3,0,-3,-3,-4,-3,-2,-7
1558440742613298,-1,-2,-2,-1,-2,-5,-2,-1
1558440742636236,-2,0,0,0,-2,-4,-4,-1
1558440742636236,1,0,0,0,8,11,7,3
1558440742637234,0,-1,0,-1,-4,-12,-2,0
1558440742637234,0,-2,2,2,1,3,0,0
1558440742643217,1,-1,-3,-5,-4,2,0,-1
1558440742643217,-1,-2,-6,-3,-8,-9,-4,-4
1558440742644215,3,2,1,0,6,6,6,4
1558440742644215,1,1,1,-2,1,1,0,1
1558440742674135,0,0,-3,-1,-2,-1,-5,-2
1558440742674135,-3,-3,-1,1,0,0,-2,-5
1558440742675133,-2,-2,-2,-2,-1,4,0,-1
1558440742675133,0,2,3,-2,-1,-6,-2,0
1558440742689096,1,0,-3,-1,-1,-5,-3,2
1558440742689096,0,-1,-3,1,1,1,-1,-1
1558440742690092,-1,-1,4,-1,-2,1,-3,-2
1558440742690092,-1,-2,-2,-4,-1,-1,3,-1
1558440742703056,-1,-2,-2,0,1,0,1,1
1558440742703056,1,0,-1,-5,-2,-5,-4,-1
1558440742704055,0,1,1,-1,1,-2,-3,-3
1558440742704055,1,1,-1,2,-1,0,0,-4
1558440742718017,-4,-2,-2,-1,-3,-3,-4,-3
1558440742718017,-1,-3,-2,-5,-7,-5,-6,-1
1558440742725005,0,0,0,0,4,5,5,1
1558440742725005,0,0,-1,4,6,0,5,3
1558440742739962,-1,1,1,-3,0,1,2,-1
1558440742739962,-1,-2,-2,-1,-5,-7,-6,-2
1558440742748956,-3,-1,-1,0,-2,-2,-1,-1
1558440742748956,-4,-3,-5,-2,-3,2,-1,-6
1558440742763907,-2,-3,1,0,1,0,-1,0
1558440742763907,-3,-1,-4,3,0,1,4,-1
1558440742763907,-1,0,-1,-4,-8,-9,-7,-5
1558440742763907,1,0,2,-1,0,-4,-1,3
1558440742777860,1,-1,-2,-1,2,4,1,0
1558440742777860,2,-1,3,2,0,3,1,1
1558440742785838,-3,-1,-3,-3,-2,-2,-1,-3
1558440742785838,1,-1,0,-2,-2,-4,-3,0
1558440742800797,-2,0,0,1,-1,-1,0,-4
1558440742800797,-2,-1,0,-2,2,2,2,3
1558440742815756,1,0,-1,-2,-1,1,-2,0
1558440742815756,0,0,-3,0,-7,-4,-6,-1
1558440742823734,-3,-1,-1,-1,1,-3,-1,-4
1558440742823734,-3,1,1,-3,-2,-6,-2,-2
1558440742823734,-1,-2,0,2,2,6,3,-2
1558440742823734,-3,0,1,1,-1,-5,1,-2
1558440742837696,-1,-1,-4,-5,-1,-1,-4,-1
1558440742837696,-1,0,1,-1,0,1,-1,-3
1558440742845675,-2,-2,1,3,0,3,2,0
1558440742845675,-1,0,0,-3,-1,0,0,3
1558440742860697,1,-1,0,-1,-5,-9,-1,2
1558440742860697,-4,-1,1,0,3,7,0,-10
1558440742868619,0,-3,-4,-3,-4,-4,-3,0
1558440742868619,0,-1,0,-2,-1,-1,-1,-4
1558440742883575,0,0,-4,0,2,2,6,3
1558440742883575,-1,1,3,5,1,-1,1,2
1558440742884572,1,-2,-3,-5,-5,-5,-4,-1
1558440742884572,1,-1,-3,-7,-4,-7,-4,0
1558440742897538,-1,-2,0,1,-2,-4,-3,-4
1558440742897538,2,1,-4,-2,1,3,-1,-1
1558440742905516,-3,-4,-3,-1,4,2,1,-1
1558440742905516,0,0,3,3,-3,0,-4,0
1558440742920475,-3,0,1,-2,-3,-2,-4,-3
1558440742920475,-1,-4,-3,-4,0,-1,0,0
1558440742928456,0,0,-1,-2,-8,-10,-9,-1
1558440742928456,-4,-2,-4,2,2,0,3,-3
1558440742943416,-1,0,3,2,4,3,4,3
1558440742943416,0,-3,-1,-2,-3,-5,-1,2
1558440742944412,-5,-2,-5,-1,-3,-1,-3,-9
1558440742944412,-1,-1,-3,-5,-2,1,-3,-1
1558440742966353,-3,-2,-5,-3,-6,-2,-4,-5
1558440742966353,-1,-1,0,2,4,1,3,4
1558440742966353,0,2,5,0,9,4,6,6
1558440742966353,-2,-2,-1,-1,0,6,-1,-3
1558440742980315,-1,-2,-8,-2,-4,1,-3,0
1558440742980315,-3,0,2,-1,-7,-4,-5,-3
1558440742988299,-1,-2,-3,-2,0,-10,-1,-1
1558440742988299,2,0,3,0,6,4,3,0
1558440743003255,-4,-4,-2,3,-3,-2,-5,-2
1558440743003255,2,1,-3,-3,-1,0,0,1
1558440743004255,-2,2,3,-1,-2,3,2,-2
1558440743004255,-1,-1,-3,2,0,4,3,-1
1558440743019212,0,0,0,-3,1,2,-1,-2
1558440743019212,-1,-2,-1,-2,-4,-8,-5,-1
1558440743025196,-2,-3,-3,-3,-3,-4,-6,-3
1558440743025196,-7,-5,-4,-2,-2,-4,-5,-3
1558440743042150,-1,-2,-2,-4,-2,0,0,-2
1558440743042150,-1,-1,-3,-2,-2,-2,2,0
1558440743048136,3,0,0,2,0,2,0,0
1558440743048136,0,-2,0,-2,-2,-3,-3,0
1558440743063094,-2,2,3,0,3,2,2,1
1558440743063094,-2,-2,-6,2,1,4,1,-2
1558440743064093,-3,-1,2,-4,-7,-9,-2,-1
1558440743064093,-2,-1,-1,-2,-5,-2,-2,-1
1558440743078056,-1,-1,1,4,1,1,1,0
1558440743078056,1,0,-2,1,2,-1,3,0
1558440743085037,-1,-2,-6,-2,5,6,3,2
1558440743085037,-2,-1,2,-1,-1,-1,-1,-1
1558440743100001,-2,-1,-1,1,-3,-3,-3,-5
1558440743100001,-2,-2,2,-3,-7,-4,-5,-2
1558440743115954,0,-3,-4,-2,-6,-5,-7,-1
1558440743115954,1,1,2,1,-2,-5,0,2
1558440743123931,0,-1,2,-3,3,0,0,1
1558440743123931,-4,0,0,1,0,4,-1,-6
1558440743123931,2,0,-4,-2,0,0,2,7
1558440743123931,-6,-2,-2,0,-1,2,-2,-9
1558440743145872,-1,0,1,-4,1,-5,4,2
1558440743145872,-2,0,0,-2,-2,0,1,-3
1558440743146869,1,0,3,3,-3,-2,-2,-2
1558440743146869,4,-1,0,-2,-1,3,1,5
1558440743168812,-2,-3,-4,-1,0,2,-1,-6
1558440743168812,-1,-2,-1,1,0,-4,-1,-1
1558440743169809,-3,0,-2,-3,-4,-4,-3,-2
1558440743169809,0,0,-1,0,-1,-2,1,0
1558440743183771,0,-2,1,3,0,0,-2,0
1558440743183771,0,-2,1,-2,-2,1,-2,1
1558440743183771,-3,-2,1,-1,0,6,3,-1
1558440743183771,-1,1,-3,-1,0,-3,0,-2
1558440743197747,1,1,-2,1,-3,-1,-2,0
1558440743197747,-1,-2,-2,-4,0,-1,-2,-3
1558440743205713,1,-3,-1,-1,1,-2,0,0
1558440743205713,0,0,0,3,-1,1,-1,2
1558440743229651,-2,-1,0,-3,-4,0,0,-1
1558440743229651,1,0,-3,-2,2,1,0,7
1558440743229651,-4,-4,1,3,-4,-5,-5,-12
1558440743229651,-2,-2,-3,-2,1,1,1,0
1558440743242615,1,0,-2,-5,0,-1,2,0
1558440743242615,-1,1,0,-1,-2,-1,0,-4
1558440743250594,3,-2,0,2,-1,0,-1,6
1558440743250594,-2,-3,-1,-2,-1,-4,-4,-2
1558440743257574,-1,-2,0,-1,-2,-3,-1,-1
1558440743257574,-1,-2,0,1,-2,0,-2,-1
1558440743265554,-1,0,-3,-2,0,-1,0,-2
1558440743265554,1,0,-1,-3,-1,-3,-1,-2
1558440743280513,2,2,0,2,-1,-3,0,2
1558440743280513,-2,-2,-1,-1,-1,2,1,-1
1558440743288492,-3,-1,-2,-3,0,-1,-2,0
1558440743288492,-4,-2,-2,-2,-1,-1,-3,-2
1558440743302454,0,-2,-1,1,-1,-2,-3,-1
1558440743302454,3,0,0,-3,1,1,2,-3
1558440743311430,-2,-3,-3,-4,-5,-2,-2,1
1558440743311430,0,0,2,2,-1,-1,1,1
1558440743317414,-2,-2,-3,-2,-2,-4,-4,1
1558440743317414,-3,-3,-2,-3,-2,-4,-1,-2
1558440743325392,-6,1,2,2,2,0,-1,-11
1558440743325392,-1,0,0,-2,1,4,2,2
1558440743340354,0,-1,0,-2,-2,1,-3,-5
1558440743340354,1,-1,-3,-2,-2,-3,1,5
1558440743348334,-5,-3,-1,2,2,1,-1,0
1558440743348334,9,4,2,-3,0,1,-1,2
1558440743363292,-1,-2,-2,-2,3,1,0,2
1558440743363292,-1,-1,1,2,-2,-2,-3,-1
1558440743371270,-8,-2,-2,-4,-1,1,-1,0
1558440743371270,0,-2,-2,-1,-2,-3,-1,-1
1558440743378253,-3,-3,0,1,-1,1,2,0
1558440743378253,-3,0,0,0,0,-1,-3,-2
1558440743385232,1,0,-3,-5,-2,-1,-1,-1
1558440743385232,-5,-2,1,-2,-1,-1,0,-1
1558440743402188,5,1,-1,3,0,2,1,0
1558440743402188,1,-1,-2,-3,-2,-4,-1,-5
1558440743408172,1,0,2,0,-2,-2,-4,-8
1558440743408172,-2,-4,-7,0,-2,-2,-1,1
1558440743423132,-4,-3,-3,-4,-4,-2,-3,-5
1558440743423132,-1,-1,0,1,-1,-2,-2,0
1558440743431111,2,0,-1,3,-2,-1,-2,3
1558440743431111,-4,-4,-2,-1,0,-2,1,-4
1558440743454051,-1,-1,-4,-4,0,0,-1,1
1558440743454051,-1,-2,2,-1,1,-1,-3,2
1558440743455046,0,1,0,2,1,-2,1,2
1558440743455046,2,-4,-2,-5,-2,1,-1,-1
1558440743469019,-2,-1,-2,-3,-5,-4,-1,1
1558440743469019,-4,-3,-3,1,-1,-1,-3,-4
1558440743470006,3,-1,1,-2,0,2,1,1
1558440743470006,-4,0,-1,-1,-2,-3,-2,-2
1558440743482977,-3,0,-1,2,-1,-3,-3,-3
1558440743482977,0,-2,-1,-2,-3,0,3,6
1558440743498928,-3,-4,-6,-4,-2,-2,-1,-6
1558440743498928,0,-1,1,3,0,0,-1,-3
1558440743505915,-4,-2,0,1,-1,0,-1,-3
1558440743505915,1,-1,-3,-3,-2,-1,-3,1
1558440743506907,1,0,0,0,-2,1,0,3
1558440743506907,0,1,-2,1,-2,-1,-1,2
1558440743528850,-4,-5,-5,-5,-3,0,0,-8
1558440743528850,0,1,0,0,1,1,1,-4
1558440743528850,2,-1,-2,1,-2,-1,1,4
1558440743528850,-3,1,0,-1,-1,-2,0,-2
1558440743551787,-1,-1,-1,-4,-1,-1,0,3
1558440743551787,-1,-1,-1,-1,-1,-6,0,-4
1558440743552786,-1,-1,-2,2,-1,-2,-3,-1
1558440743552786,-2,-3,-3,-2,0,-3,0,-2
1558440743573729,2,1,2,-2,-2,-1,-1,0
1558440743573729,0,1,0,0,-1,-1,0,1
1558440743574725,-3,1,-3,-5,2,3,0,-1
1558440743574725,2,0,1,-1,2,2,-2,-3
1558440743580711,1,-2,-2,2,0,0,-1,1
1558440743580711,-5,-1,1,-1,-1,-3,-3,-7
1558440743587692,3,3,-2,-3,0,1,3,6
1558440743587692,-1,-4,-1,0,-3,-3,-2,1
1558440743602650,-5,-3,-2,-1,1,1,-3,-3
1558440743602650,-4,-3,0,-3,-1,0,-5,-3
1558440743610636,0,1,-3,-1,-1,-6,-1,-2
1558440743610636,0,1,1,4,-2,-1,-1,0
1558440743625603,1,0,-1,-1,0,-2,1,0
1558440743625603,0,-2,-4,-1,0,3,-1,-2
1558440743626588,-3,-2,-1,1,-2,0,-1,-4
1558440743626588,-1,-1,1,-5,0,-1,-3,-1
1558440743648528,1,-2,1,-1,-2,-1,-3,1
1558440743648528,-2,0,2,3,0,1,-2,-5
1558440743649525,1,1,1,-1,0,2,1,0
1558440743649525,-1,-1,-6,-5,-2,-1,1,2
1558440743671473,0,0,-3,-2,-1,-5,1,2
1558440743671473,-1,0,-1,3,0,-1,0,-5
1558440743672467,-1,-3,-1,-4,-1,-1,1,2
1558440743672467,-3,0,0,-1,0,2,-1,-5
1558440743686428,-1,-4,-5,1,-2,-2,-3,4
1558440743686428,0,0,-2,-5,-1,-1,-2,2
1558440743686428,1,0,0,-2,0,-1,-2,-3
1558440743686428,-3,-2,-2,-1,-3,-2,-4,-1
1558440743701391,-1,1,5,3,2,0,1,-3
1558440743701391,-1,-1,-3,-5,-1,-2,0,1
1558440743708373,-1,-4,-1,-5,-2,2,-1,-1
1558440743708373,-1,-2,-1,2,0,0,0,-2
1558440743731307,-4,1,-1,-3,2,3,0,-3
1558440743731307,-4,-1,-2,-2,-1,-5,-2,0
1558440743732305,-1,0,2,4,-2,-5,-1,-4
1558440743732305,0,0,1,-2,1,4,-1,2
1558440743754246,1,0,0,-3,-1,0,1,1
1558440743754246,-2,0,0,0,0,-1,0,-4
1558440743755258,-4,-3,-1,-1,-4,-5,-4,1
1558440743755258,2,-1,-2,-3,0,-2,-2,-1
1558440743760231,-2,-3,-4,-4,-2,-2,-1,2
1558440743760231,-1,0,-1,3,-1,1,1,1
1558440743768209,1,-1,-3,-2,0,-2,1,0
1558440743768209,-4,-4,-1,-6,-4,-3,-3,-4
1558440743783172,0,1,2,1,2,1,0,-1
1558440743783172,0,-1,-4,-4,-1,0,-2,0
1558440743791147,1,-1,2,0,0,-3,-2,-1
1558440743791147,2,2,-1,3,-2,0,0,1
1558440743806106,-1,-1,-2,-2,-2,1,-4,-5
1558440743806106,-2,-1,-2,-3,-1,-1,0,0
1558440743807105,1,-1,1,2,-1,2,0,0
1558440743807105,-2,-2,-1,0,-3,-2,-3,0
1558440743837025,-1,-1,-1,-3,-2,-3,-3,-3
1558440743837025,-1,0,1,-2,0,0,-1,3
1558440743837025,0,0,0,3,0,2,-1,4
1558440743837025,0,1,2,-1,2,-2,2,-4
1558440743843008,2,0,0,1,0,1,4,1
1558440743843008,-1,-3,-3,1,-1,0,1,0
1558440743850993,-6,-5,-6,-5,-3,-4,-3,-6
1558440743850993,-3,1,-1,-2,1,1,1,-2
1558440743880910,-2,1,0,3,0,0,-1,-1
1558440743880910,2,1,3,2,0,1,-1,-1
1558440743881904,-1,-2,-4,-6,-3,-2,0,-2
1558440743881904,0,0,-1,1,-1,-3,-3,-2
1558440743890880,-1,0,0,1,-1,-3,-1,-1
1558440743890880,-1,-2,-1,-5,1,-1,1,0
1558440743890880,-1,1,1,-1,-1,-2,-1,2
1558440743890880,0,-2,1,5,-1,0,-1,1
1558440743902852,-2,-1,0,-4,0,-1,-3,-3
1558440743902852,0,-2,-3,-5,-3,-1,-2,-2
1558440743910828,-2,1,-1,2,-1,1,0,-3
1558440743910828,-2,-2,-5,-2,-1,-5,-2,0
1558440743925787,-3,-1,-1,-1,-2,0,-1,-1
1558440743925787,-3,-2,-1,-2,-1,-2,-1,-5
1558440743926784,0,-1,0,4,0,-2,-5,-1
1558440743926784,-1,-4,-2,-3,-1,1,0,-1
1558440743940746,0,-1,-1,-2,-1,0,-1,-2
1558440743940746,-2,0,-3,2,-2,1,1,1
1558440743955709,-2,1,0,0,1,0,-1,-3
1558440743955709,0,1,0,-2,1,1,3,3
1558440743962695,0,2,0,1,-1,-2,-1,0
1558440743962695,-3,-4,-1,-3,-3,-3,-2,-1
1558440743978646,2,-2,0,-2,1,2,0,2
1558440743978646,-3,-1,1,-1,0,0,-3,-6
1558440743985628,0,0,-2,0,-2,-3,1,2
1558440743985628,1,0,0,-1,-2,0,1,0
1558440743986645,0,0,-1,-4,-2,0,1,0
1558440743986645,-2,-2,-1,0,-2,-1,-1,-1
1558440744010559,-3,-1,0,-3,0,-3,-3,-1
1558440744010559,1,1,0,1,2,0,1,3
1558440744011557,-2,-2,-2,0,1,0,-1,-3
1558440744011557,-3,0,-3,0,-1,0,0,-1
1558440744022528,1,0,-1,-3,-1,-1,1,-1
1558440744022528,-2,-2,-2,-1,1,0,-5,-8
1558440744030512,-2,1,-1,0,-3,-2,-1,-1
1558440744030512,-1,-2,-1,-2,0,0,0,-2
1558440744054447,-1,-5,-3,-3,-4,-1,-1,2
1558440744054447,0,-1,0,1,-2,1,0,0
1558440744055448,-3,-3,-1,-4,0,0,-1,-5
1558440744055448,1,1,1,0,-1,-4,3,3
1558440744060430,-2,-2,1,1,-2,-3,-1,-4
1558440744060430,0,0,-1,-2,-2,1,-1,2
1558440744068406,-1,-1,-1,-2,-1,0,-2,-2
1558440744068406,1,-1,-2,-1,-3,-2,-2,0
1558440744084362,0,-3,-1,2,-1,-1,-2,1
1558440744084362,-2,-1,-1,-2,-1,0,1,-3
1558440744091352,0,1,-1,-2,-1,-3,-3,-2
1558440744091352,-3,-2,-2,1,-1,-3,-3,-1
1558440744106309,-1,-1,3,-2,2,1,-1,-4
1558440744106309,1,-1,1,1,0,-1,0,0
1558440744107304,-1,-2,-5,-2,-2,-2,1,3
1558440744107304,0,-2,-1,-4,-2,1,0,1
1558440744130241,-6,-2,-1,-3,-2,-5,-4,-9
1558440744130241,-1,-1,1,0,1,-5,-1,2
1558440744130241,1,0,1,1,1,3,0,-2
1558440744130241,1,-1,0,-2,0,0,-1,1
1558440744143206,1,0,-2,-1,0,1,0,-1
1558440744143206,0,-1,0,3,0,-1,1,-1
1558440744158166,0,-2,-2,-4,-2,-5,-3,0
1558440744158166,-1,-1,-3,-2,-1,2,0,-1
1558440744174122,0,-1,1,2,1,-3,-2,0
1558440744174122,-3,-3,-2,-1,-3,-2,-2,-4
1558440744174122,0,-1,-1,-2,-2,-1,-1,-2
1558440744174122,-1,0,1,1,1,0,1,-2
1558440744182107,0,0,-1,1,0,1,0,-1
1558440744182107,-2,-1,2,-3,-2,-3,0,-1
1558440744188085,-2,-2,-1,-3,-1,-2,0,0
1558440744188085,-4,-2,-4,0,-3,-1,-2,-4
1558440744220000,0,-1,-1,-3,-3,0,-3,2
1558440744220000,0,-2,-4,-3,-2,-2,-2,-1
1558440744220000,-3,-1,2,5,-1,0,-3,1
1558440744220000,-1,1,2,-1,-2,-2,-1,-2
1558440744233962,-1,-3,-5,-5,-3,-1,-1,0
1558440744233962,0,-1,-3,-1,2,1,0,1
1558440744234960,-1,-1,2,2,0,-2,0,0
1558440744234960,-3,-1,-3,-3,-1,2,0,-1
1558440744239953,0,-1,0,-2,-2,0,-1,0
1558440744239953,0,1,0,2,-2,-5,-3,-3
1558440744255904,-1,0,-3,-3,2,-1,2,2
1558440744255904,2,-1,0,-1,-1,-3,-1,3
1558440744262886,-3,0,0,3,2,4,0,-4
1558440744262886,-2,-2,-1,-2,-2,3,0,0
