timestamp,emg1,emg2,emg3,emg4,emg5,emg6,emg7,emg8
1558440765297122,1,0,-4,-17,-1,2,1,-1
1558440765297122,0,-1,1,19,-2,-3,-3,0
1558440765298119,-3,-1,-1,-4,-1,1,-2,-1
1558440765298119,3,-1,-2,-14,0,0,1,0
1558440765299116,-2,-1,-1,13,-3,-3,-1,-1
1558440765299116,-1,-4,-1,-2,-2,1,-2,-1
1558440765300113,1,0,-1,-10,1,2,1,1
1558440765300113,0,-1,-1,2,-2,-3,-2,-3
1558440765315073,-2,-1,0,9,0,1,-1,1
1558440765315073,-4,-1,-2,-12,0,0,-1,-2
1558440765316070,-1,-1,-2,-6,-2,-8,-5,-2
1558440765316070,-1,2,2,13,0,2,0,0
1558440765326043,0,-2,1,-3,-1,-1,-3,3
1558440765326043,-3,-2,-5,-14,0,2,0,-3
1558440765339010,0,-2,-2,8,-3,-1,-3,-2
1558440765339010,-2,-1,0,-1,-2,-1,-2,0
1558440765344992,-2,0,0,-5,1,0,0,-4
1558440765344992,4,2,1,1,-1,0,4,3
1558440765352972,-3,0,0,4,-3,0,-2,1
1558440765352972,-1,-2,-2,-5,-1,0,-1,-2
1558440765378901,0,-2,-1,-5,-1,1,0,-2
1558440765378901,-3,-3,-2,2,-1,1,-4,3
1558440765379898,3,1,0,-3,1,1,3,5
1558440765379898,-3,-1,-1,-3,-3,-2,-3,-3
1558440765390870,0,0,-2,2,-1,-4,-2,-3
1558440765390870,-3,0,-1,-1,0,-2,-2,-4
1558440765397851,-2,0,-1,-3,2,0,3,0
1558440765397851,2,-1,1,2,1,-1,0,5
1558440765437744,-2,-2,-2,-4,-1,-1,0,-1
1558440765437744,0,0,0,-19,-1,2,-1,3
1558440765438742,-3,-3,-4,7,-2,0,-1,-11
1558440765438742,1,0,2,4,-1,0,0,5
1558440765439739,0,-2,-1,-8,-1,-4,-2,-2
1558440765439739,-1,-2,-4,-1,-1,-1,-1,-3
1558440765442732,-3,1,0,9,0,0,-3,1
1558440765442732,0,2,-1,-8,-1,1,-1,-2
1558440765449714,1,1,0,-9,-1,-1,2,-3
1558440765449714,-1,0,1,16,-3,-1,-1,1
1558440765457692,0,1,-2,-6,2,1,3,5
1558440765457692,-5,-3,-2,-7,-1,-4,-1,-7
1558440765464672,2,1,-1,6,0,1,2,4
1558440765464672,-3,-3,-1,0,-2,-2,-4,-4
1558440765480630,1,-2,-1,-9,-2,-2,-1,-1
1558440765480630,-3,-3,-5,-2,-4,-3,-4,-3
1558440765486614,-3,-1,0,8,-2,-4,-6,0
1558440765486614,-3,1,0,-4,2,0,0,-1
1558440765494592,-3,-3,-4,-7,-3,-3,-2,-8
1558440765494592,-1,-1,-1,6,-1,-1,-1,0
1558440765509553,-2,-2,2,-1,-3,-2,-2,0
1558440765509553,-1,-1,0,-5,0,-1,-1,-4
1558440765525510,-3,-2,2,4,-1,0,-1,-3
1558440765525510,-1,-2,0,0,3,-1,1,3
1558440765527505,-7,-2,-7,-7,-4,-2,-5,-12
1558440765527505,0,-2,-2,1,-3,-2,-1,1
1558440765540470,0,-2,0,0,-2,3,-1,-2
1558440765540470,-1,-3,1,-2,-1,2,0,-2
1558440765547451,1,-1,2,-1,-2,-1,-1,2
1558440765547451,1,0,-2,2,0,0,0,2
1558440765562411,-1,-3,0,-4,-1,-2,-1,-1
1558440765562411,1,1,-2,-3,0,-3,-1,-1
1558440765569392,-3,-1,0,1,0,-2,0,-2
1558440765569392,-1,0,0,-2,-4,-2,1,-2
1558440765577370,2,-1,-1,-4,-1,-2,-2,4
1558440765577370,0,-2,1,3,1,1,-2,-3
1558440765584354,0,1,0,1,0,2,-2,-1
1558440765584354,-1,1,-3,-4,0,0,1,-1
1558440765600309,-1,2,0,1,2,2,1,0
1558440765600309,1,2,-1,-1,-3,-2,1,5
1558440765607292,-5,-2,0,-1,1,-1,-4,-11
1558440765607292,-3,-1,2,1,0,-3,-2,-1
1558440765622251,1,-2,-3,-1,0,-2,0,0
1558440765622251,-1,-2,-1,-5,-2,-1,-1,-4
1558440765629234,3,-1,0,-1,-1,2,2,5
1558440765629234,0,-3,-2,1,-2,-3,-1,-2
1558440765638208,-2,-3,1,-1,-1,-1,-4,0
1558440765638208,1,1,-2,-4,1,2,0,-1
1558440765644194,1,0,0,-2,0,1,0,2
1558440765644194,-2,-1,-1,0,-2,-2,-2,-1
1558440765660150,-2,0,0,-1,-2,-2,0,-3
1558440765660150,-1,0,0,0,-1,-2,-1,-2
1558440765667131,3,-1,-1,1,-1,2,2,1
1558440765667131,-2,-3,-2,-1,0,-1,0,-3
1558440765683088,-1,1,0,-2,-2,-5,0,0
1558440765683088,-4,-4,-3,1,-2,-2,-2,-3
1558440765689072,0,0,0,-2,-1,-1,1,-1
1558440765689072,-1,0,1,-1,-1,-2,-3,-2
1558440765698048,0,1,-1,-1,-2,-3,-1,3
1558440765698048,-1,0,1,-2,1,3,-1,0
1558440765712011,0,-3,-2,1,0,-2,-3,-2
1558440765712011,2,-1,-1,-1,-2,-1,1,5
1558440765719989,-3,-1,-3,0,-2,-4,-5,-9
1558440765719989,-2,1,-3,-4,-3,-3,-3,0
1558440765734949,-1,0,-1,0,-1,2,1,-4
1558440765734949,2,-1,0,2,1,1,0,2
1558440765742928,-2,-1,0,-2,-2,-3,1,1
1558440765742928,-2,-2,2,0,-1,-2,-3,-3
1558440765749911,2,0,-4,-2,-1,-4,0,3
1558440765749911,-5,-2,-2,-3,-1,-2,-1,-6
1558440765757889,0,0,-3,-4,-2,-1,-2,0
1558440765757889,0,-3,-1,-1,-2,0,-1,-5
1558440765771851,-5,-2,-1,1,-2,-3,-4,0
1558440765771851,-1,-1,-1,-2,0,0,2,-2
1558440765779829,-1,0,0,-3,-3,-2,-1,0
1558440765779829,-1,-2,0,2,-1,-4,-1,1
1558440765786812,-1,0,-1,-3,2,1,-3,-5
1558440765786812,1,0,-4,-1,0,0,1,0
1558440765802768,2,-1,0,0,-2,1,0,1
1558440765802768,-2,0,-3,-3,-2,-1,3,0
1558440765809750,1,0,0,-2,-1,-2,-2,-2
1558440765809750,1,-1,-2,-2,1,2,0,-2
1558440765825709,1,-3,-3,1,-1,-1,-1,3
1558440765825709,-1,0,-2,-1,-3,-3,-2,-1
1558440765827701,-2,-1,-3,-1,0,0,1,2
1558440765827701,-2,0,0,1,-1,-5,-3,-5
1558440765848646,1,0,1,-3,-1,1,0,1
1558440765848646,-1,-2,-2,1,2,1,-2,-3
1558440765849643,-2,-4,-2,1,0,-3,0,-3
1558440765849643,1,-2,1,-2,-2,0,0,5
1558440765862609,-3,-1,-3,-2,0,-3,-4,-7
1558440765862609,4,0,1,-2,0,0,1,7
1558440765869590,-4,0,-1,0,-2,-2,-5,-9
1558440765869590,-1,0,-1,-1,-2,0,-2,-2
1558440765877569,-2,-1,1,-1,0,1,-1,-2
1558440765877569,0,3,1,1,1,1,-1,1
1558440765892529,0,-1,-1,-9,-2,-2,0,3
1558440765892529,-2,-1,1,-2,0,-4,-4,-2
1558440765900507,0,-2,-1,2,0,1,1,-2
1558440765900507,-1,0,-2,0,0,-2,-1,-2
1558440765907489,0,-1,-1,-1,-1,1,-1,0
1558440765907489,-1,-1,-1,-1,0,3,-3,-2
1558440765922450,0,-1,-1,-1,-2,-4,-1,-1
1558440765922450,-4,-2,0,-2,-1,-1,2,-3
1558440765929430,5,0,-1,-2,1,1,3,3
1558440765929430,1,-1,0,4,-2,-4,-1,-2
1558440765945386,-3,-1,-1,-1,1,0,-1,-4
1558440765945386,-2,-2,-4,-6,-3,-2,-4,-4
1558440765952369,-1,0,2,2,-2,-3,-1,2
1558440765952369,-3,-2,-3,-1,1,2,-2,-2
1558440765960347,-1,-3,-1,-4,-3,-2,-4,2
1558440765960347,0,-2,1,4,1,0,0,-6
1558440765967330,-1,0,-1,0,0,1,-1,0
1558440765967330,-3,-3,3,-2,0,-3,-3,-5
1558440765982288,2,-1,-2,-4,-1,2,2,0
1558440765982288,-2,-1,-2,-2,-2,-4,-5,-2
1558440765989269,4,1,0,-1,-1,0,0,0
1558440765989269,0,1,-1,-3,0,-3,-1,3
1558440765997248,0,1,1,1,1,3,1,-2
1558440765997248,-2,-1,-1,-2,-2,-2,-2,-2
1558440766012208,-1,-1,0,-2,0,0,1,-2
1558440766012208,0,1,-2,1,0,0,2,0
1558440766028164,2,-2,-1,0,0,2,1,1
1558440766028164,3,1,1,-2,-1,0,1,0
1558440766030159,-6,-4,-4,-2,-2,-4,-5,-5
1558440766030159,-1,-3,-5,-1,-2,0,0,-2
1558440766051104,-2,-2,-1,-2,-2,-4,-2,-2
1558440766051104,-2,-1,2,2,-1,0,-1,-4
1558440766052102,1,-2,-1,-1,-2,-2,-4,2
1558440766052102,3,0,-2,-3,-1,0,1,2
1558440766057088,1,-1,-3,-3,1,0,1,-4
1558440766057088,2,0,1,2,1,2,1,0
1558440766072048,0,-2,2,1,-3,1,0,2
1558440766072048,-3,1,0,-3,-3,0,0,-1
1558440766088006,-1,2,-2,0,-1,1,1,2
1558440766088006,-4,0,-2,2,-1,-4,-2,-2
1558440766090004,-1,0,-1,-4,0,-3,-1,-1
1558440766090004,-1,-2,-2,-2,-1,-2,-1,0
1558440766102965,-4,-1,0,3,-2,0,-5,-9
1558440766102965,1,-3,-3,-5,-2,1,-2,2
1558440766109946,-2,1,-2,1,1,2,0,-1
1558440766109946,1,-1,-2,-4,-4,-3,-1,1
1558440766124907,-1,1,0,0,-2,-4,-2,1
1558440766124907,0,0,0,-2,0,2,0,0
1558440766131895,-2,-1,0,1,-1,-2,-2,-4
1558440766131895,2,2,3,4,2,2,2,-2
1558440766140878,-4,-3,-3,-4,-2,-3,-1,1
1558440766140878,1,1,-2,-1,-3,0,-3,-2
1558440766146848,1,0,-3,1,-2,-2,2,0
1558440766146848,-1,-1,-2,-3,-5,-5,-4,1
1558440766162811,0,1,0,-2,2,1,0,0
1558440766162811,-3,0,-1,1,-1,-1,-1,-2
1558440766169786,1,0,1,0,-2,0,-1,-1
1558440766169786,1,-1,-3,-4,-2,-5,-3,-3
1558440766176775,0,-3,-2,-2,-4,-1,-1,0
1558440766176775,-3,-3,-2,-1,-1,0,2,-5
1558440766200706,-2,-2,-1,-4,1,2,-2,-1
1558440766200706,-2,0,-1,4,1,2,-1,-3
1558440766201709,1,1,0,1,-1,-3,-1,3
1558440766201709,-1,-2,-1,-5,-2,-1,-2,1
1558440766207690,0,-1,-1,-3,-2,-1,0,-1
1558440766207690,-3,-2,1,1,0,-2,0,-1
1558440766222649,1,-1,0,-2,0,-2,-1,1
1558440766222649,0,-2,0,-2,-2,-1,0,2
1558440766229632,-1,1,-1,-1,-2,-1,-2,-3
1558440766229632,-1,1,0,-1,-2,-2,-3,-1
1558440766237609,0,-1,0,1,1,1,1,0
1558440766237609,2,0,0,-3,-2,-4,-3,-3
1558440766252568,1,0,0,-2,0,1,0,-4
1558440766252568,-2,-1,0,-3,-1,-3,-2,3
1558440766260546,0,-1,0,-3,2,0,-2,0
1558440766260546,-2,-3,-2,2,0,-3,-1,0
1558440766267526,0,-3,0,0,0,1,0,4
1558440766267526,-2,-2,-1,-3,-3,0,-2,-6
1558440766290464,-4,-3,-3,0,-2,-1,0,-4
1558440766290464,1,0,-2,0,-2,-8,-2,2
1558440766292459,-2,0,-2,-2,-1,-2,-1,3
1558440766292459,-1,-1,0,-1,0,-1,-1,-7
1558440766297446,-1,1,0,1,2,3,4,1
1558440766297446,-2,-1,0,-2,0,0,-1,-4
1558440766312409,2,0,0,-1,-1,0,-1,-1
1558440766312409,-1,-3,-1,3,-3,-2,-4,1
1558440766320385,-1,-1,-1,-2,-2,-1,-2,-4
1558440766320385,0,-1,-3,-5,2,0,2,0
1558440766327368,-4,-3,0,-1,1,-1,-1,-4
1558440766327368,-3,-1,-3,-1,0,2,-2,-3
1558440766343325,0,-1,-2,-2,-3,-1,-2,1
1558440766343325,-3,-2,-1,-2,-4,-3,-5,-3
1558440766358285,-1,0,0,1,0,-1,1,3
1558440766358285,3,0,-1,-4,-1,2,2,-2
1558440766358285,-1,-2,-2,0,-3,-3,-3,0
1558440766358285,-1,-1,0,3,0,-1,0,-7
1558440766372251,-3,-3,-1,-2,-2,-5,-4,-2
1558440766372251,-3,-2,0,-1,1,0,-1,-1
1558440766380232,-1,1,-2,0,-1,1,-1,-1
1558440766380232,-2,0,-1,0,0,-2,-1,8
1558440766387211,-6,-1,-2,0,-4,-2,-4,-16
1558440766387211,0,-1,-4,-5,0,-1,0,-2
1558440766403166,-2,-3,0,-1,1,-1,-3,-4
1558440766403166,0,0,0,-4,-3,-1,0,0
1558440766410147,-3,-3,-2,0,0,-1,-2,2
1558440766410147,0,-1,0,2,-2,-3,0,-1
1558440766433195,1,-3,-1,-2,-2,-2,0,-2
1558440766433195,0,0,-2,-1,-2,3,-1,-2
1558440766435080,2,-1,-2,0,-2,-2,0,1
1558440766435080,1,0,-2,0,-2,-1,-2,-2
1558440766456037,0,-1,-2,-1,-2,-5,1,3
1558440766456037,-2,-1,0,0,-2,-1,-2,-1
1558440766457026,1,2,-1,-1,-2,-1,2,0
1558440766457026,-3,-1,0,-2,-1,-1,0,2
1558440766463004,-1,-1,-1,-2,-3,-1,-4,-3
1558440766463004,-1,0,1,3,2,4,-1,1
1558440766469987,-1,-1,-1,-2,-1,1,0,-1
1558440766469987,1,-1,-2,-5,-1,0,3,2
1558440766485942,-1,0,-2,2,0,-3,-5,-5
1558440766485942,1,-2,-2,0,-1,-4,0,5
1558440766491926,1,-1,-3,-3,1,2,1,-2
1558440766491926,-1,-3,0,-1,-3,-3,1,1
1558440766508883,-3,-3,0,2,-2,-2,1,-3
1558440766508883,-1,-1,0,-2,-1,3,1,-3
1558440766509881,-1,0,-1,-1,-1,-2,-3,3
1558440766509881,-2,-1,-3,2,-1,-2,-5,0
1558440766530980,-2,-1,0,-4,-2,1,0,-3
1558440766530980,-1,0,-1,-4,0,-3,-2,-3
1558440766532916,-2,-1,0,-2,-3,-4,1,1
1558440766532916,0,-1,1,1,0,-1,-1,0
1558440766545781,-1,-1,1,0,4,6,2,1
1558440766545781,2,1,-1,0,1,2,4,3
1558440766551767,-1,-1,-3,-2,-2,1,-3,-6
1558440766551767,-2,-2,-1,-2,2,-2,-2,-4
1558440766567722,0,2,-2,-1,0,-1,1,0
1558440766567722,-1,-3,-2,2,-3,-3,-3,-4
1558440766568719,-1,-3,0,0,-1,-1,-2,-2
1558440766568719,-2,-1,-1,-1,-2,1,-4,0
1558440766589697,-4,-2,-1,-1,-4,-3,-3,-2
1558440766589697,1,0,-2,-1,-1,2,-1,0
1558440766590660,0,-2,-1,-1,-1,-2,0,0
1558440766590660,-3,-1,-2,-1,1,-2,0,1
1558440766607645,-1,-1,0,0,-2,-3,-1,5
1558440766607645,-6,-3,-2,-2,-3,-4,-3,-11
1558440766611606,1,0,-2,-1,-1,0,0,2
1558440766611606,-3,-2,-1,1,-1,0,0,-7
1558440766635643,-3,-3,-3,-3,-2,-6,-5,-1
1558440766635643,0,0,-2,-4,3,2,2,2
1558440766635643,0,0,-1,1,-2,2,0,1
1558440766635643,3,2,0,0,-1,0,2,0
1558440766657563,5,3,-1,-3,-2,-2,0,0
1558440766657563,-1,1,0,0,2,4,4,-2
1558440766658478,-1,-1,-1,2,0,-2,1,0
1558440766658478,1,0,0,-4,-2,-1,-2,1
1558440766666721,0,-2,-1,1,-1,-1,-1,-3
1558440766666721,-1,-1,-1,1,-2,0,-3,-4
1558440766672442,0,-1,-1,-2,-1,-2,-2,1
1558440766672442,-2,-2,0,-2,-4,-5,-4,-3
1558440766687402,-1,-1,-2,1,0,0,0,0
1558440766687402,-2,-1,-1,1,-2,-3,-2,-3
1558440766688400,0,1,-2,-3,1,-1,1,-3
1558440766688400,-1,0,-4,-2,-1,-3,-2,3
1558440766710687,-4,1,-1,-1,-1,1,0,-5
1558440766710687,-2,-2,0,-3,-3,-2,-2,2
1558440766711596,-2,-1,1,2,1,0,-2,-2
1558440766711596,-1,0,-3,-1,-2,0,-2,0
1558440766734276,3,-1,0,-4,-3,-1,1,3
1558440766734276,-2,-1,-1,2,2,0,-1,1
1558440766735275,1,2,0,3,1,2,4,0
1558440766735275,1,-2,2,0,-1,0,0,-4
1558440766755488,0,-2,-2,-3,-1,1,-2,-1
1558440766755488,1,0,2,1,-2,-2,-2,-2
1558440766756220,-3,-4,-5,0,-2,-3,-4,-1
1558440766756220,-1,-2,-4,-5,1,1,2,0
1558440766770405,-2,-3,-1,-1,2,1,1,-1
1558440766770405,-5,-3,-2,0,-5,-6,-3,-6
1558440766771182,2,3,3,0,2,2,1,2
1558440766771182,-2,-1,0,1,0,3,1,-4
1558440766786140,0,0,1,0,-1,-6,-2,0
1558440766786140,0,-1,-1,-2,1,-1,-1,0
1558440766792126,-2,-2,-1,-3,-2,-1,-1,-2
1558440766792126,-3,0,-1,0,-3,-1,-2,0
1558440766808085,-2,0,-3,0,0,1,-1,1
1558440766808085,0,-2,-1,-4,-1,-1,-2,-1
1558440766815273,-3,-2,-2,-3,-2,-3,-3,-3
1558440766815273,0,-1,-1,2,1,0,2,-1
1558440766831021,-4,-3,1,-1,0,-2,-1,-5
1558440766831021,-1,-1,-2,-2,0,-2,0,1
1558440766831021,-1,-1,-2,-1,-2,-3,-3,1
1558440766831021,3,0,0,-1,-1,-1,1,4
1558440766845994,-6,-1,0,1,-2,1,-5,-13
1558440766845994,-2,0,-1,0,-2,-3,-3,-4
1558440766860978,0,0,1,1,0,3,3,0
1558440766860978,1,-2,0,-2,0,-1,-1,5
1558440766866924,1,0,-2,-3,-2,-3,-1,3
1558440766866924,3,0,-1,-1,-1,-1,0,3
1558440766874902,1,-2,1,-2,-2,1,-3,-2
1558440766874902,-1,1,0,-2,1,-1,1,-3
1558440766890863,1,0,1,2,2,4,3,1
1558440766890863,-3,-3,-1,-1,0,-1,-3,-4
1558440766890863,-1,1,0,-1,-2,-5,-1,-1
1558440766890863,1,-1,-4,-2,0,-2,1,-1
1558440766914093,-2,1,-1,0,-1,1,1,2
1558440766914093,2,0,-2,-2,-2,0,-1,4
1558440766915791,-3,-3,0,-2,-2,-5,-4,-9
1558440766915791,2,-1,1,3,0,1,0,5
1558440766935736,-5,-4,-2,-5,-2,-2,-5,-8
1558440766935736,-1,-2,-1,-3,-2,1,1,-1
1558440766936735,-1,-1,-2,2,-2,-5,-5,-2
1558440766936735,-2,0,-1,-3,-2,-1,-2,0
1558440766950699,2,0,-4,-2,0,0,2,4
1558440766950699,-1,-2,0,0,0,2,0,-5
1558440766950699,-1,-1,2,2,0,2,2,2
1558440766950699,-1,-1,-1,-2,-3,-5,-5,-5
1558440766965985,-3,-1,-3,-4,-2,-2,-4,-4
1558440766965985,1,2,-3,1,-1,1,0,4
1558440766972755,-2,-2,-1,-3,-1,-2,-3,-5
1558440766972755,-2,-2,-1,0,-2,-2,0,-2
1558440766988600,0,-1,1,2,1,0,3,0
1558440766988600,-1,-1,-2,-2,-2,-1,-1,-3
1558440766994814,-1,-4,-1,-2,-1,1,-2,3
1558440766994814,0,0,0,1,1,1,0,0
1558440767010864,-6,-3,1,1,-1,-1,-2,-7
1558440767010864,-4,-1,-2,-2,-2,-1,1,-2
1558440767011586,0,2,-3,-3,0,-2,1,4
1558440767011586,-6,-1,-1,1,-2,-1,-8,-8
1558440767025549,4,3,0,-4,-2,-2,-1,4
1558440767025549,0,-1,0,-2,1,1,0,-1
1558440767032663,1,1,0,0,1,3,1,0
1558440767032663,-1,-2,-1,-3,-1,0,-1,0
1558440767047691,-1,0,2,-2,-1,-4,-1,3
1558440767047691,-2,-2,-2,-1,-2,-2,-1,-3
1558440767054600,0,0,-4,-1,-1,-3,-1,-1
1558440767054600,3,0,0,-2,1,2,1,-1
1558440767070385,-1,-3,-2,-2,-4,-4,-4,-2
1558440767070385,-2,-3,0,1,-2,-2,-1,-3
1558440767071378,-2,-1,-3,-5,-2,-5,-4,0
1558440767071378,-4,-3,-2,0,-1,2,0,-4
1558440767086340,0,0,1,3,-2,-1,-2,-2
1558440767086340,-2,-1,0,-3,-3,-1,-4,6
1558440767092320,-1,-2,-4,-5,-2,0,-1,0
1558440767092320,-3,-2,-1,2,-2,-3,-5,-11
1558440767107314,1,-2,-3,-1,-1,1,0,2
1558440767107314,0,0,-1,-1,0,-1,-1,-4
1558440767114490,2,2,2,1,1,-1,3,3
1558440767114490,-2,-1,-3,0,-3,-1,0,-2
1558440767130217,0,0,-1,-2,-2,0,-1,1
1558440767130217,0,-3,-1,-1,-2,-3,-4,-1
1558440767131215,-3,-2,0,3,3,5,1,-1
1558440767131215,1,0,0,-3,-1,-4,-1,5
1558440767146176,-1,-2,-3,-4,-2,-3,-1,-3
1558440767146176,-5,-2,-3,0,-2,-1,-3,-7
1558440767152160,0,0,-1,-2,-2,-3,1,-2
1558440767152160,-2,0,-2,-2,0,0,-1,3
1558440767167120,0,-2,-1,-1,0,1,0,1
1558440767167120,3,0,0,-1,-1,-1,-2,2
1558440767174397,-2,-3,-1,-1,0,-1,-2,-5
1558440767174397,-1,0,-1,-2,0,3,3,0
1558440767190095,0,-1,0,2,1,2,3,-1
1558440767190095,-1,-1,0,-3,0,-1,2,0
1558440767191054,-2,-2,-1,1,-3,-4,-3,-3
1558440767191054,0,-2,0,1,-2,-3,-2,5
1558440767206016,-7,-2,-4,-7,-1,-3,-5,-14
1558440767206016,-3,-1,-3,-1,1,1,-1,2
1558440767212229,-1,-2,1,0,-1,0,-3,0
1558440767212229,1,0,-1,0,-2,0,-2,-2
1558440767227168,1,0,0,0,-2,-4,-2,3
1558440767227168,-1,0,-1,-2,-1,-1,0,-5
1558440767234941,1,0,0,0,0,-1,2,-1
1558440767234941,0,-1,0,-1,0,-1,-1,2
1558440767250124,0,-1,-1,-1,0,-2,0,-2
1558440767250124,1,-2,-1,1,-1,-2,-1,0
1558440767250900,0,-1,-2,0,-1,-1,1,0
1558440767250900,-1,0,-3,-2,0,1,0,-4
1558440767266027,-1,0,-3,-1,-2,0,-1,4
1558440767266027,0,1,0,-2,-3,-2,-1,-2
1558440767271848,-2,-1,0,-3,-2,-1,-3,-3
1558440767271848,-2,-3,0,-1,0,-1,-1,-4
1558440767286800,0,-1,0,3,-2,-4,-3,0
1558440767286800,-2,-3,-2,-1,0,-1,-1,1
1558440767294993,-1,-1,0,-3,-2,-1,-2,-3
1558440767294993,-3,-2,-6,-3,-1,-3,-3,-5
1558440767311735,2,0,1,-2,1,0,2,6
1558440767311735,2,1,0,-1,-1,-2,1,-3
1558440767312731,-4,-3,1,2,0,2,-1,-5
1558440767312731,0,-2,0,1,-2,-8,-4,2
1558440767325697,-1,-2,-1,-3,0,3,-2,-4
1558440767325697,1,0,-1,-2,-1,-3,0,4
1558440767331679,-3,-2,-3,2,0,1,0,-2
1558440767331679,0,0,-1,-4,-2,-2,-2,-2
1558440767346639,0,-2,-2,-2,-3,0,0,2
1558440767346639,-3,-1,-1,0,-4,-2,-2,-3
1558440767354618,1,0,-1,0,0,-1,1,2
1558440767354618,-1,-2,1,0,0,1,0,0
1558440767370633,-2,-3,-5,-3,-2,-3,-5,-1
1558440767370633,-2,-2,-1,2,0,0,-3,-3
1558440767370633,-1,-2,-2,-5,-3,-4,0,-2
1558440767370633,-2,1,-1,-1,0,-1,-1,-5
1558440767385886,3,1,3,4,1,3,2,4
1558440767385886,-1,-2,-1,-2,3,4,0,-4
1558440767392815,0,-1,-3,-2,2,1,-1,2
1558440767392815,1,0,1,3,-2,1,-1,4
1558440767406827,-4,0,0,-1,0,-3,-3,-7
1558440767406827,1,1,-2,-3,-1,0,1,0
1558440767414903,1,0,-2,0,-1,-3,-3,-2
1558440767414903,-3,-3,-1,1,-1,0,0,1
1558440767438487,-3,0,1,-2,-2,-3,0,0
1558440767438487,0,-1,0,0,0,1,1,2
1558440767438487,-1,-3,-2,-4,-4,0,0,4
1558440767438487,-2,-2,3,-3,0,-1,-4,-9
1558440767446571,-2,-3,-2,-3,-1,0,-1,-2
1558440767446571,0,2,0,4,1,3,1,1
1558440767452387,2,1,-1,-3,-3,-4,-2,4
1558440767452387,-5,-1,-3,-5,-2,-2,-1,0
1558440767467325,-1,-1,-1,2,0,-1,1,0
1558440767467325,-1,-1,-2,0,0,-3,-2,-1
1558440767474510,0,-1,-3,-2,-1,0,-2,-2
1558440767474510,-2,-1,-1,-1,-2,0,1,-2
1558440767490452,0,-1,-1,0,-2,-4,-2,0
1558440767490452,0,0,-2,-5,-1,-4,-2,-2
1558440767491255,-1,0,3,1,0,1,-1,-1
1558440767491255,1,0,-2,3,0,-2,1,2
1558440767506214,1,0,-3,-4,-2,1,2,-2
1558440767506214,-1,-2,-1,-2,-3,-2,-1,-1
1558440767512409,-6,-2,1,1,-1,-1,-1,-8
1558440767512409,2,0,0,0,0,-1,0,7
1558440767527196,-1,-2,-2,-2,-1,0,-2,-2
1558440767527196,-5,-4,-4,-3,-2,-3,-5,-3
1558440767534137,-1,0,-2,1,-3,-2,-2,-1
1558440767534137,-4,-1,-1,-4,0,0,1,-5
1558440767550094,1,-1,0,-2,2,0,1,3
1558440767550094,0,-1,-1,2,-1,-2,-3,-1
1558440767551092,-1,-1,0,-2,0,-2,-3,-1
1558440767551092,-1,-3,-2,-1,-5,-1,-4,-4
1558440767566051,-2,-1,-1,0,-1,0,-2,0
1558440767566051,-4,-1,-3,-4,-2,1,0,-2
1558440767572034,-2,0,-3,-1,-1,-1,-1,-4
1558440767572034,3,0,1,-2,0,-3,1,1
1558440767586995,-2,-2,-2,4,0,3,-1,-3
1558440767586995,-2,0,0,-1,0,-1,-2,-1
1558440767594028,1,-1,-4,-4,-2,-2,0,3
1558440767594028,-1,-2,-2,3,-1,-3,-2,-6
1558440767610413,-1,-2,-2,-4,-2,-2,-1,-4
1558440767610413,2,0,-1,-2,-1,0,0,4
1558440767616916,-1,-2,0,0,-3,-7,-1,-1
1558440767616916,2,2,1,-1,3,3,3,2
1558440767626269,-1,0,0,-2,1,0,0,-2
1558440767626269,-2,0,-1,-1,-2,-2,-5,-4
1558440767632369,-2,-2,0,-1,-3,-1,-2,-3
1558440767632369,-2,-2,-2,-3,1,1,-1,1
1558440767646878,0,1,-1,-2,-1,-1,1,2
1558440767646878,1,1,-1,1,-1,0,1,-1
1558440767654849,3,1,2,-2,-1,1,-1,1
1558440767654849,-1,-1,-3,-2,-3,-5,-5,-1
1558440767669774,-2,-2,1,1,0,1,-1,-4
1558440767669774,2,-2,-1,-3,-2,-1,2,2
1558440767670771,2,0,-1,-3,-1,-2,0,0
1558440767670771,-1,-1,-2,-2,0,-3,-3,-1
1558440767685730,-1,-1,0,2,-2,-1,-2,0
1558440767685730,-5,-2,0,-2,-1,-3,-4,-2
1558440767691714,2,1,-2,-2,3,3,2,-4
1558440767691714,0,1,-1,1,-2,0,1,6
1558440767706676,-6,-2,-2,-2,-2,-1,-1,-5
1558440767706676,1,-3,-2,-1,-1,0,0,1
1558440767715099,-4,-4,-2,2,1,4,0,-1
1558440767715099,1,-2,-2,-3,-4,-7,-2,-1
1558440767730061,2,0,-3,-3,2,0,1,3
1558440767730061,-4,-3,0,1,0,-1,1,-6
1558440767737060,-3,-1,-3,3,-2,-2,-3,1
1558440767737060,-1,-2,-1,-4,-2,1,1,0
1558440767754547,-1,-3,-2,-1,-5,-1,-4,-10
1558440767754547,3,2,0,2,-3,-8,-3,-2
1558440767754547,-2,0,0,-2,1,1,-1,0
1558440767754547,0,1,-1,2,1,1,0,-2
1558440767766900,1,-1,-1,0,-3,-1,-1,2
1558440767766900,-2,-2,-2,-5,-3,-4,-2,2
1558440767774883,-3,-5,-3,-2,-3,0,-1,-6
1558440767774883,1,-1,-1,-3,-1,-1,-1,1
1558440767789453,1,1,0,2,0,-1,0,2
1558440767789453,-3,-2,1,-1,-1,-1,-1,-1
1558440767797839,0,-2,-5,-3,-2,-2,-1,0
1558440767797839,2,0,0,2,1,4,1,-3
1558440767805411,1,0,-2,-3,-1,-3,1,4
1558440767805411,1,1,-1,0,1,2,0,0
1558440767820765,-4,-2,-1,-1,-3,-2,-1,-2
1558440767820765,-2,-1,0,-1,-2,-2,0,-1
1558440767827695,-1,0,1,-1,-2,-2,-2,1
1558440767827695,-3,-2,0,-2,-2,2,2,-6
1558440767834334,-3,-1,2,4,1,-1,-4,-6
1558440767834334,-4,-1,-2,-2,-2,-2,-2,-4
1558440767849659,-2,-2,-3,-4,1,-2,-4,-2
1558440767849659,0,-1,-3,0,-2,-3,-2,1
1558440767857443,4,-1,1,-4,-1,2,1,2
1558440767857443,-4,-2,0,-1,-2,-4,-1,-1
1558440767866250,-2,-1,-4,1,-2,-6,-1,1
1558440767866250,-2,-2,1,-1,1,2,2,-2
1558440767872236,-3,-2,-2,-1,-1,-3,-3,2
1558440767872236,0,-1,-3,-1,-1,1,-2,0
1558440767895517,1,0,5,3,0,-1,1,5
1558440767895517,1,0,-1,-2,1,1,2,-2
1558440767896170,-4,-4,-4,-3,-3,-3,-2,-4
1558440767896170,0,0,-1,1,2,2,-1,0
1558440767910265,1,-1,1,-2,-3,-4,-3,-1
1558440767910265,2,-2,0,1,-1,-1,-3,-2
1558440767917115,-1,0,2,0,2,-1,0,1
1558440767917115,-4,-3,0,-3,-2,1,1,-1
1558440767933427,-2,-1,-2,-3,-1,1,1,0
1558440767933427,-2,0,-3,0,-3,0,-2,-1
1558440767933427,-1,0,0,0,0,0,-1,-1
1558440767933427,1,-2,-3,-6,-2,-4,-3,-2
1558440767947033,-2,-2,-1,-3,-1,1,-3,0
1558440767947033,-2,-2,-3,2,-2,-1,-4,0
1558440767955318,-1,-1,-1,0,-1,-1,1,-2
1558440767955318,-5,-1,-1,0,1,3,4,1
1558440767968974,-2,-2,0,2,0,-3,-1,-7
1558440767968974,1,1,-1,-4,-2,-3,0,2
1558440767977257,-1,-1,1,-1,-3,-2,-1,-3
1558440767977257,-1,-1,-2,-2,-3,-2,-3,0
1558440767993227,0,-4,-2,-1,-2,1,0,-3
1558440767993227,-1,-2,-2,-2,0,1,0,2
1558440767993227,1,0,-4,-4,-2,-2,2,0
1558440767993227,-2,-2,-1,1,-1,-2,0,1
1558440768007178,-1,0,-2,-3,-1,-4,-3,-5
1558440768007178,-1,0,1,-1,1,-1,1,-4
1558440768015144,1,-1,-1,3,0,0,-3,-2
1558440768015144,1,0,0,0,1,0,-1,-1
1558440768030952,-2,0,-1,-2,-2,-3,0,1
1558440768030952,-2,-3,-1,0,-5,-4,-2,0
1558440768046011,-1,0,-2,-2,-2,-1,-2,-5
1558440768046011,0,-1,-2,-1,0,3,-1,1
1558440768053049,-2,1,0,-1,-2,2,0,-1
1558440768053049,-2,0,-1,0,2,0,-1,-1
1558440768053748,0,-1,-2,-5,-1,-3,1,2
1558440768053748,-3,0,1,0,-2,-4,-3,-6
1558440768068709,-2,-1,-4,0,-2,-4,0,-3
1558440768068709,-2,-2,-3,-4,-2,-1,0,0
1558440768074691,-1,-2,-2,-2,-2,-3,-3,1
1558440768074691,3,-1,-2,0,-1,-6,-2,-3
1558440768098914,0,-2,0,1,0,-1,-2,1
1558440768098914,0,0,0,0,2,2,2,-2
1558440768099626,1,0,1,-2,-1,0,1,3
1558440768099626,2,-1,0,0,-3,-1,0,8
1558440768112864,-3,-3,2,-1,2,1,-3,-8
1558440768112864,-1,-2,1,-2,-2,-1,-3,0
1558440768113591,-3,2,0,2,-2,0,1,-1
1558440768113591,-1,1,0,-2,-2,-2,-1,-1
1558440768128548,-2,-3,-2,0,0,-4,-1,0
1558440768128548,-1,1,-1,2,0,-2,1,-1
1558440768142784,0,-1,0,0,-2,0,0,0
1558440768142784,-3,-4,-1,-3,-1,0,-2,-2
1558440768149761,3,1,-1,0,0,3,0,3
1558440768149761,7,0,1,1,-1,1,0,2
1558440768157792,-1,-1,0,-2,-1,0,-3,-2
1558440768157792,-2,-1,-2,-2,-2,-5,-5,-3
1558440768174472,-1,-2,0,-1,-4,-1,0,0
1558440768174472,4,2,1,-1,5,2,3,4
1558440768174472,-3,-2,-2,-2,0,-1,0,-1
1558440768174472,-4,-2,-6,-2,-1,2,1,-4
1558440768196716,0,1,-1,-2,0,1,-1,-2
1558440768196716,-1,-3,-1,-3,-2,-2,-1,7
1558440768197412,-1,0,0,0,0,-2,-4,-7
1558440768197412,1,3,3,4,1,1,3,-2
1558440768209695,-4,0,-2,-4,-2,-3,1,0
1558440768209695,-3,0,-2,-2,-2,-4,-4,-2
1558440768225673,2,2,-1,2,0,2,3,3
1558440768225673,-2,-3,-1,-1,-1,-1,-1,-3
1558440768233532,1,0,-1,-3,0,0,1,3
1558440768233532,-6,-3,0,1,-2,-1,-4,-10
1558440768233532,-1,0,1,-1,-1,0,-1,2
1558440768233532,0,-2,1,-3,-3,-5,-4,-3
1558440768248479,-1,-1,2,-2,1,0,0,2
1558440768248479,-6,-4,-5,-2,-4,-9,-7,-5
1558440768254258,-1,-3,-1,-3,1,-2,0,0
1558440768254258,-1,-4,-2,0,-1,0,-6,-3
1558440768269219,-1,-1,-2,0,-2,-3,-4,0
1558440768269219,-2,-1,-1,-4,-1,2,1,-3
1558440768277770,-1,-3,-3,-3,-2,-1,-1,-1
1558440768277770,1,-1,1,2,2,-2,1,-1
1558440768309724,-3,-1,-3,-3,-2,-4,-1,-1
1558440768309724,-3,-3,-5,-2,-2,-1,-4,-5
1558440768309724,-4,-2,-2,-1,-2,-2,-1,-1
1558440768309724,-1,-1,1,1,-1,4,0,1
1558440768311609,2,-1,0,-3,-2,-1,0,3
1558440768311609,1,-1,-1,0,-1,0,0,2
1558440768322876,-1,0,-1,-1,0,0,-1,0
1558440768322876,3,0,1,-1,2,2,3,0
1558440768329840,1,-3,0,-1,0,-2,-2,-2
1558440768329840,-3,-2,-1,2,-1,-2,0,0
1558440768346545,-3,-2,-1,-1,0,0,-1,-2
1558440768346545,1,1,-2,-1,-2,-2,-3,1
1558440768352807,-2,-1,-4,-2,-1,-1,-2,-2
1558440768352807,4,1,1,1,-1,-2,1,3
1558440768353498,1,-3,0,-1,1,2,-1,-2
1558440768353498,1,0,-3,-4,-3,-3,1,1
1558440768376436,-1,1,1,6,2,0,-3,-3
1558440768376436,-4,-1,1,-2,1,0,-2,-4
1558440768377432,-1,1,1,1,1,0,3,1
1558440768377432,-1,-3,0,0,-2,-1,2,-1
1558440768398503,1,-1,-4,-5,-2,0,2,-1
1558440768398503,1,0,-2,-3,-1,0,-2,-1
1558440768398503,-2,0,0,0,-1,-5,-3,-6
1558440768398503,-3,0,0,4,1,5,0,-1
1558440768412339,-1,-2,0,-3,-4,-5,-1,-3
1558440768412339,0,-3,-3,-1,-2,-2,0,-1
1558440768413336,1,-1,-2,0,-2,-1,0,4
1558440768413336,-3,-3,-2,-4,-2,1,-1,-3
1558440768428652,-4,-1,0,0,1,0,-1,3
1558440768428652,-3,-1,0,2,-1,1,0,-6
1558440768443085,-1,-1,0,-3,-3,-3,-2,0
1558440768443085,-1,0,-2,-2,2,-1,-2,0
1558440768450723,-1,-1,-2,1,-2,-1,-4,0
1558440768450723,2,0,-1,1,-1,-1,-3,4
1558440768456840,-2,-1,-5,-4,-2,0,0,-1
1558440768456840,0,-2,-1,-4,-3,-5,1,1
1558440768474860,-1,-1,2,3,0,2,2,-2
1558440768474860,1,-1,-1,-2,-1,-5,2,3
1558440768474860,0,0,0,-1,-2,-1,1,1
1558440768474860,-1,0,-4,-2,-2,-1,-3,-2
1558440768488626,1,-1,0,0,-1,1,-2,-1
1558440768488626,3,2,-1,-2,0,1,0,0
1558440768494951,1,2,0,0,-2,-1,2,6
1558440768494951,-3,-1,0,2,1,-3,-3,-6
1558440768509917,-1,-2,-3,-3,-1,-2,2,-2
1558440768509917,-3,-2,0,-1,-1,-2,-5,-4
1558440768516830,0,-1,1,3,-1,-5,-4,-2
1558440768516830,-1,-1,0,-2,2,3,2,1
1558440768533114,-2,-1,-3,-6,-2,-1,0,-1
1558440768533114,0,0,-2,0,-1,-1,1,-3
1558440768533114,0,-1,-2,0,0,-1,-3,-4
1558440768533114,-2,-2,-1,0,0,-1,-1,-2
1558440768548810,-3,-2,2,0,-2,2,-2,-3
1558440768548810,3,0,0,-1,-2,-5,0,9
1558440768554801,-3,-2,-1,-2,2,3,-3,-10
1558440768554801,-3,-1,-2,-3,1,-1,0,-1
1558440768577731,-2,-2,-1,2,-2,0,-2,0
1558440768577731,-4,-1,0,-3,0,-1,2,-5
1558440768578728,-2,-2,-2,-3,0,0,-1,1
1558440768578728,-2,-2,1,1,-5,-2,-1,0
1558440768592746,1,-1,-1,-3,-1,-1,0,-1
1558440768592746,-4,-3,-4,-3,0,3,-2,0
1558440768593689,-2,-2,-1,1,-4,-3,-3,-4
1558440768593689,-1,0,1,1,1,0,2,3
1558440768608650,-1,-3,-3,-5,-3,-3,-3,-4
1558440768608650,0,0,1,-1,0,-4,-2,-3
1558440768614631,0,-1,-2,1,-2,1,2,5
1558440768614631,-3,0,-3,-3,-2,-3,-5,-3
1558440768629987,-2,-2,-1,0,0,0,-2,-1
1558440768629987,-2,-1,-1,1,-1,2,0,-7
1558440768637814,1,-3,-2,-4,0,-5,-1,0
1558440768637814,2,-1,0,-1,0,1,3,1
1558440768651537,-2,-2,-2,1,-1,-4,-3,-3
1558440768651537,-2,-1,0,1,-1,4,-2,-1
1558440768659921,-2,-2,-2,-1,-3,-3,-2,-4
1558440768659921,0,-3,-3,-3,-2,-5,0,5
1558440768668488,2,1,-1,2,-1,2,2,3
1558440768668488,0,1,1,-2,1,1,0,0
1558440768674911,-1,0,0,-5,-2,0,-1,-2
1558440768674911,1,0,-1,2,2,2,-2,-3
1558440768690317,-3,0,-1,-1,0,-5,-3,0
1558440768690317,-1,0,1,-1,0,2,1,2
1558440768696847,0,0,1,0,-3,0,0,2
1558440768696847,-2,-2,-3,-2,-4,-3,1,-2
1558440768711807,2,1,0,-2,2,-2,0,1
1558440768711807,-2,-3,-4,-3,-3,-6,-8,-4
1558440768719820,-3,-3,-2,1,-1,0,-4,-3
1558440768719820,-2,0,1,-4,-3,-3,-2,1
1558440768728133,0,0,0,-1,0,2,3,0
1558440768728133,-3,-2,-4,1,-1,-2,2,-1
1558440768734121,0,-2,-2,-2,2,3,-1,0
1558440768734121,0,-1,-1,-2,-2,-5,-5,-3
1558440768750310,-1,-2,-1,3,0,-1,0,2
1558440768750310,0,0,-1,-2,-1,1,2,1
1558440768757060,0,-2,-6,-5,-1,-3,1,3
1558440768757060,-5,-3,-1,-1,0,-1,-5,-11
1558440768772438,2,1,0,0,-2,-1,-4,-3
1558440768772438,2,0,-1,0,1,1,0,3
1558440768780444,-3,1,0,-3,-2,-3,0,-1
1558440768780444,-3,0,-2,0,-1,-2,-2,0
1558440768788431,0,-2,1,-2,3,4,1,1
1558440768788431,3,-3,-4,-1,0,1,0,1
1558440768795444,-1,0,2,1,0,-4,-1,-7
1558440768795444,4,-2,-1,0,-2,2,3,8
1558440768808920,-3,-3,-2,0,-1,-2,-2,-7
1558440768808920,0,-2,-2,-2,-3,-5,-2,3
1558440768816898,-3,-2,-1,1,-1,-2,-1,-3
1558440768816898,0,-2,-1,-1,0,-3,-2,-2
1558440768831857,-2,1,2,-1,1,1,2,2
1558440768831857,-2,-2,0,0,-2,-1,-3,-3
1558440768840016,-1,-2,-4,-4,-4,-4,-6,-1
1558440768840016,1,2,0,-1,0,3,1,-1
1558440768855994,-3,-2,-2,0,1,0,-2,-3
1558440768855994,-2,1,4,0,-1,-2,0,2
1558440768855994,0,0,3,1,-1,-2,-1,-4
1558440768855994,2,-1,-2,-2,-1,-1,0,1
1558440768870194,-3,0,-3,1,-1,-1,0,-4
1558440768870194,-2,-3,-2,-3,-3,-3,-1,2
1558440768877117,0,1,-2,-2,0,2,2,1
1558440768877117,-2,-2,1,0,-2,-3,-4,-5
1558440768892763,0,1,1,-2,0,-2,-4,-2
1558440768892763,-1,-1,0,0,1,3,2,0
1558440768900059,1,-1,-3,-2,-2,-2,-3,0
1558440768900059,-3,1,-3,-1,0,-1,0,-2
1558440768923616,6,3,1,-4,-1,1,3,8
1558440768923616,-5,-4,-4,-2,-2,-4,-3,-9
1558440768924805,1,-1,0,4,-2,-3,-2,0
1558440768924805,0,1,1,0,4,8,5,1
1558440768929915,-1,-4,-1,0,-1,-5,-1,2
1558440768929915,1,0,-1,1,-1,-3,-3,0
1558440768937638,1,0,1,-3,0,1,-2,1
1558440768937638,0,-5,-3,-4,-5,-3,0,1
1558440768951552,0,-1,-3,2,0,-3,-2,-3
1558440768951552,-1,-2,-1,-2,-1,0,0,3
1558440768959817,-2,0,-1,-1,2,1,1,1
1558440768959817,-2,-2,1,1,-1,-2,-3,-4
1558440768975781,-3,-4,-2,-1,-4,-2,-3,-5
1558440768975781,-3,-2,-4,-7,-2,0,-4,-3
1558440768975781,1,2,-1,1,-2,1,-1,3
1558440768975781,-3,-1,-3,1,-1,-3,-1,1
1558440768997415,-2,-1,0,-4,-2,-2,-6,-7
1558440768997415,0,-2,1,-2,0,-1,-2,-5
1558440768998412,-2,-1,-1,2,0,2,1,-2
1558440768998412,1,0,-3,-3,-2,-5,-1,2
1558440769012388,0,-3,0,0,-2,0,-1,-3
1558440769012388,2,-1,1,0,-1,-3,-1,3
1558440769019357,0,-1,-2,1,-1,-1,-1,2
1558440769019357,-1,1,1,-1,1,1,-2,-1
1558440769035316,-2,-1,1,-2,0,3,1,-4
1558440769035316,-2,-1,-2,-1,-3,-2,-2,-2
1558440769035316,2,0,-1,-3,1,-1,3,3
1558440769035316,-4,-2,-3,0,-2,-5,-3,-5
1558440769049650,1,1,0,1,-1,0,1,3
1558440769049650,1,1,3,1,1,5,2,-2
1558440769057257,2,-2,-4,-2,-3,-2,-2,-1
1558440769057257,-5,-4,-1,-3,-3,-3,-3,-3
1558440769072582,1,0,-1,-2,-3,-4,-1,5
1558440769072582,0,2,-2,-1,-1,-4,-1,-1
1558440769080365,-3,-3,-1,-2,-1,0,-3,-5
1558440769080365,-1,-1,0,3,0,4,0,-1
1558440769103494,1,-2,-5,-2,-1,0,-1,-1
1558440769103494,0,0,1,-1,-2,-2,0,-1
1558440769104131,-1,-2,1,4,0,-3,-2,-2
1558440769104131,-3,0,-1,-3,-2,-4,-3,0
1558440769110361,-3,-3,-6,-5,0,0,0,-3
1558440769110361,0,2,-3,1,-1,-2,3,3
1558440769117098,-7,-4,-2,-1,-2,0,-2,-8
1558440769117098,3,0,2,-1,0,2,1,2
1558440769140370,3,-2,1,2,-1,0,-2,-1
1558440769140370,-1,-3,-4,1,-2,-4,-2,-7
1558440769141035,-2,-2,-1,-4,0,1,0,1
1558440769141035,1,-2,-6,-2,-3,-2,-1,5
1558440769155316,-4,1,5,-1,-4,-5,-3,-5
1558440769155316,1,-1,1,-3,-1,-4,-2,1
1558440769155993,1,-1,1,-1,0,1,-1,-1
1558440769155993,1,1,-1,0,-1,0,-1,-3
1558440769170953,5,1,-2,0,1,-1,4,11
1558440769170953,-5,-2,0,-3,-1,0,-4,-8
1558440769177265,2,0,2,-1,0,-2,2,-2
1558440769177265,-2,-1,-2,-1,-1,0,-1,-2
1558440769192241,-3,-1,0,-2,0,1,-2,-2
1558440769192241,0,1,-3,-3,-2,-2,0,1
1558440769200097,-3,-3,-8,-2,-2,-1,-1,1
1558440769200097,-1,-1,5,-1,-2,-7,-1,-2
1558440769215832,-2,-3,-2,-1,2,1,0,1
1558440769215832,-1,-2,-1,1,0,4,0,0
1558440769215832,1,0,2,2,0,-1,-2,-3
1558440769215832,0,0,0,-4,-1,-2,1,2
1558440769230157,-1,1,-2,-1,-1,-3,-1,5
1558440769230157,-4,-2,3,1,1,1,-1,-9
1558440769237537,2,2,2,-3,0,2,0,0
1558440769237537,3,-1,-1,-2,-1,2,-1,5
1558440769253474,1,-2,-1,2,1,-3,-3,-1
1558440769253474,-2,-2,-3,-3,-1,3,1,2
1558440769260323,-3,-1,-1,-1,-2,-2,-1,1
1558440769260323,0,-1,0,0,0,0,1,2
1558440769275418,-4,-1,-5,-4,-1,0,-3,-13
1558440769275418,1,-1,3,1,-1,-3,1,1
1558440769276079,-1,-1,-1,-2,-2,-2,-4,-3
1558440769276079,-1,-1,1,4,1,2,2,1
1558440769289394,-3,-2,0,-2,-2,-1,-3,-1
1558440769289394,1,2,-3,-4,-1,-3,-1,0
1558440769297372,-2,-2,0,2,-3,-5,-3,-2
1558440769297372,-3,-3,-2,-3,-4,-3,-2,-5
1558440769312309,1,-1,-3,-1,-4,0,2,0
1558440769312309,-1,0,0,1,-2,0,-2,0
1558440769328263,1,-1,-1,-1,-2,2,3,9
1558440769328263,-4,-1,-3,-2,-2,1,-6,-15
1558440769335970,-2,-2,-1,0,0,1,-1,-4
1558440769335970,-1,-3,-3,2,1,0,-1,2
1558440769335970,-2,-4,-2,-3,2,1,-1,0
1558440769335970,0,-2,0,-2,-1,2,3,2
1558440769350019,-2,-1,0,2,-1,-4,-4,0
1558440769350019,-1,-3,-3,-3,-1,-1,-3,1
1558440769357163,-3,-3,0,-3,-2,-1,-2,-6
1558440769357163,1,-1,-1,1,3,0,-1,0
1558440769380068,0,2,1,0,-3,-4,0,1
1558440769380068,-2,-3,-3,-1,0,1,-2,-3
1558440769380800,-1,-1,-5,-5,-2,1,2,1
1558440769380800,0,-3,-4,0,-1,0,-4,2
1558440769395907,-2,-1,2,-2,0,-2,0,-1
1558440769395907,0,1,1,-1,-4,-6,0,0
1558440769395907,-2,-1,-2,2,1,-5,-1,-2
1558440769395907,-3,-2,-3,-3,-1,-1,-2,-2
1558440769418696,-3,-1,-2,-1,2,3,-1,-9
1558440769418696,3,-1,-2,0,0,-1,3,9
1558440769419694,1,0,3,0,-1,-2,0,-1
1558440769419694,-6,-1,-1,2,1,1,-2,-5
1558440769433657,-1,-2,-2,-5,-3,-2,-2,2
1558440769433657,0,0,1,0,-1,-2,1,4
1558440769439641,0,-1,-1,-2,-1,-2,-3,-6
1558440769439641,-1,0,1,-2,0,0,1,-5
1558440769456056,1,0,-2,2,0,3,3,1
1558440769456056,-3,-1,1,-3,1,-1,-2,-2
1558440769456056,0,-2,-3,-2,-1,-1,-3,2
1558440769456056,5,2,1,1,-3,-8,0,5
1558440769469561,-2,-3,-3,1,-1,-2,-3,0
1558440769469561,-2,0,-2,-3,0,2,1,-4
1558440769477873,-3,-1,0,1,-1,0,-2,-3
1558440769477873,-2,-1,0,-1,-3,-1,-1,-1
1558440769492841,0,-1,-2,-5,-3,0,-1,4
1558440769492841,-3,-2,-3,1,0,1,-4,-8
1558440769499791,-1,-2,-3,2,0,-3,-1,0
1558440769499791,-1,-1,3,-1,-1,0,-2,-5
1558440769515756,0,1,3,-2,-3,-1,0,0
1558440769515756,-3,0,0,3,-2,-2,-3,-3
1558440769515756,0,-2,-3,-2,-2,0,1,1
1558440769515756,0,-2,-5,-2,0,1,0,-1
1558440769538426,-3,-2,-5,-1,-2,-3,-1,-4
1558440769538426,-2,-1,4,-1,-1,1,-3,-2
1558440769538426,0,0,1,-3,1,1,-1,1
1558440769538426,1,-1,-2,-2,-3,-4,0,3
1558440769568298,0,0,1,4,2,1,0,-4
1558440769568298,0,0,-3,-1,0,0,-1,3
1558440769569295,-1,0,2,-1,-2,-5,-1,-4
1558440769569295,-5,-7,-6,-2,-4,-1,-4,-3
1558440769575540,-3,-1,1,-3,-1,0,0,-2
1558440769575540,-1,0,0,-1,-2,-2,-1,0
1558440769576275,0,-1,-2,-1,-1,2,-1,2
1558440769576275,0,1,-1,2,1,1,2,-3
1558440769589500,-2,-4,-6,-4,-2,-7,-1,-1
1558440769589500,3,-1,-3,-1,0,2,1,4
1558440769597471,-2,2,2,3,-2,2,-3,-2
1558440769597471,-2,2,-1,-4,-1,-1,-2,0
1558440769612443,4,1,1,-3,0,-4,1,6
1558440769612443,-3,-3,-3,3,1,1,0,-7
1558440769620237,-3,-4,-2,-3,1,-2,-2,2
1558440769620237,1,3,4,-2,-2,-2,0,0
1558440769636116,-2,-3,-1,1,0,0,-3,-10
1558440769636116,-1,-1,-1,-2,-1,-3,-1,2
1558440769643406,0,-3,-1,-1,-1,2,0,-3
1558440769643406,-3,-4,2,-1,-1,-6,-3,-3
1558440769650078,2,2,1,2,-2,0,-2,2
1558440769650078,-3,-3,0,-5,0,-1,0,-3
1558440769657187,0,1,-2,-2,-2,-3,1,-2
1558440769657187,-3,-3,-2,-1,-2,-2,-3,0
1558440769672348,-2,-1,-1,-2,1,1,-1,0
1558440769672348,1,2,-1,-2,0,-3,1,0
1558440769680150,-1,-1,1,-1,-1,-2,-1,-1
1558440769680150,-3,-1,-5,-1,0,2,2,-2
1558440769695281,1,-1,-4,0,-1,-1,-1,-1
1558440769695281,0,0,5,-2,-1,1,0,1
1558440769703255,-7,-5,-6,-3,-5,-7,-6,-6
1558440769703255,0,-2,-1,-3,-2,-1,-1,-2
1558440769709917,-3,-3,0,-1,2,3,3,1
1558440769709917,2,-1,-4,3,0,-3,-2,0
1558440769716900,-1,1,0,-2,1,1,1,-1
1558440769716900,1,0,-1,-3,-1,1,2,0
1558440769732605,-4,-2,-1,0,-4,-4,-5,-1
1558440769732605,-3,-3,-2,0,-3,-2,-2,-3
1558440769739365,-2,-2,0,-1,0,1,0,-3
1558440769739365,0,1,-1,0,0,-1,0,1
1558440769756196,1,-1,-1,0,0,-1,2,-1
1558440769756196,-1,-1,0,-3,-1,-2,-3,0
1558440769770158,-4,-4,-5,-2,-2,1,-1,-1
1558440769770158,-2,-3,-1,-1,-1,0,-3,-1
1558440769786114,-4,-3,0,-4,-2,-4,0,-4
1558440769786114,-3,-1,-2,-2,-3,-2,-3,-2
1558440769786114,1,1,1,1,0,-1,0,-2
1558440769786114,0,-1,-3,1,0,0,0,5
1558440769792098,-4,-2,-2,-5,-3,-1,-4,-10
1558440769792098,-4,-3,-2,-3,-1,0,-1,-2
1558440769808055,0,-1,0,1,-2,-1,-1,2
1558440769808055,-2,0,1,-2,0,1,0,-2
1558440769815360,3,0,-1,-1,0,1,0,0
1558440769815360,4,2,-3,1,0,-2,1,4
1558440769823050,-2,-2,1,-1,0,-2,-4,-4
1558440769823050,-2,-2,0,-1,0,3,-1,-5
1558440769838102,-3,-2,0,0,-2,-1,-2,0
1558440769838102,-1,-1,-2,-2,-3,-1,-1,-5
1558440769839126,0,1,-3,-2,-1,1,0,4
1558440769839126,-4,2,1,-2,0,-4,-2,-4
1558440769851939,-3,-2,0,1,-3,-2,-1,-3
1558440769851939,-3,-3,-1,-2,-1,3,-1,-3
1558440769860218,1,0,-1,-2,-2,-1,0,-1
1558440769860218,-1,-1,-2,1,0,0,-1,0
1558440769883255,2,1,1,-1,0,-3,-2,2
1558440769883255,0,-3,-1,-4,0,1,0,-1
1558440769883255,-2,-3,1,0,0,0,3,0
1558440769883255,-3,-2,-2,-1,-2,-1,-1,-4
1558440769898391,-2,-1,-3,-4,-2,-2,0,0
1558440769898391,-3,0,0,1,-1,-6,-3,-5
1558440769898391,1,1,0,0,2,2,1,-2
1558440769898391,2,0,-4,-3,-1,-1,-2,5
1558440769912358,3,-1,0,-1,-3,0,-1,7
1558440769912358,-9,-4,1,2,0,3,-2,-12
1558440769920275,0,1,1,-1,-1,-2,-2,-1
1558440769920275,0,0,0,0,1,-1,-2,-2
1558440769933933,-2,0,-1,-1,-1,1,1,4
1558440769933933,1,-1,-2,-2,-2,-4,-1,1
1558440769942686,0,1,-1,-2,-2,-3,0,0
1558440769942686,3,2,1,1,3,6,3,1
1558440769959310,0,1,0,0,-1,0,-1,-1
1558440769959310,-1,-2,-2,-2,-2,-2,-3,0
1558440769960394,-1,-1,-2,1,-1,0,0,1
1558440769960394,-2,-1,-1,0,0,-6,-3,-3
1558440769972526,-2,0,1,-5,-1,2,2,-3
1558440769972526,-1,-2,-2,0,-2,-2,0,-2
1558440769979475,0,-1,-1,0,-1,0,-1,2
1558440769979475,-1,-2,0,-1,-2,-3,-2,-3
1558440769995209,-3,-3,-2,-1,-2,-4,-2,0
1558440769995209,1,0,0,1,-1,-1,1,6
1558440770010171,-6,-3,-2,1,-2,-1,-3,-11
1558440770010171,-1,-3,-2,-3,-3,-1,-1,-1
1558440770017148,-1,-1,-2,0,2,1,1,-4
1558440770017148,2,1,-2,0,-3,-5,-3,2
1558440770018148,2,-1,0,-3,1,2,2,4
1558440770018148,-3,-2,0,-3,-2,-1,-1,-6
1558440770041118,-3,-5,-1,-1,-3,-2,-1,-2
1558440770041118,-1,-1,-1,-1,2,-1,-1,-2
1558440770042082,1,-2,-1,-2,0,0,-1,0
1558440770042082,1,-1,-1,-1,-2,-3,-2,-2
1558440770071399,1,-1,0,1,2,1,-1,1
1558440770071399,-1,-1,-2,-2,0,3,1,1
1558440770071399,-2,-1,-1,-3,-5,-7,-3,-2
1558440770071399,-1,-1,3,0,-1,3,-1,3
1558440770078070,0,0,-3,-1,0,2,0,-3
1558440770078070,1,1,0,-2,-2,0,0,0
1558440770084967,1,0,-3,1,-1,-1,0,4
1558440770084967,-6,-3,-4,-2,-2,-4,-3,-12
1558440770092271,-1,2,1,-1,0,-1,-5,-2
1558440770092271,2,1,0,-2,0,0,2,0
1558440770099996,1,0,0,2,1,1,0,0
1558440770099996,0,0,-1,-3,-3,-3,0,5
1558440770115196,-1,-1,-1,0,-1,2,1,-2
1558440770115196,-1,-2,0,1,1,0,1,0
1558440770121868,-1,0,1,-1,-1,-3,-2,-3
1558440770121868,1,-2,-2,-1,0,-1,0,4
1558440770138822,-3,-1,-1,-1,-2,0,-1,-1
1558440770138822,-4,-2,-5,-3,-1,-3,-3,-2
1558440770139820,-3,-1,-3,-1,-1,2,0,-3
1558440770139820,-1,-1,-1,-1,0,-2,-2,-2
1558440770168788,-2,-2,-1,0,-2,-4,-3,-1
1558440770168788,1,-1,2,-1,0,-1,-2,-1
1558440770168788,-3,0,-1,-3,-2,1,-3,-2
1558440770168788,-3,-2,-4,-1,-2,-3,-3,-3
1558440770175120,5,2,-2,-4,0,-1,3,6
1558440770175120,-3,-2,-2,-1,0,2,1,-10
1558440770182735,1,-1,1,3,0,-2,0,2
1558440770182735,1,1,4,0,-1,2,0,4
1558440770198055,1,0,1,-2,1,2,0,3
1558440770198055,-1,-2,-2,-1,-1,-1,1,-4
1558440770198665,-2,-3,-5,-2,-2,-2,-3,-4
1558440770198665,0,0,-3,-3,-1,1,1,-1
1558440770212678,-1,-3,2,1,-2,-6,-4,-3
1558440770212678,-1,-1,-1,2,1,0,0,0
1558440770219636,-1,-3,0,-5,-4,-2,-3,2
1558440770219636,-1,-2,-2,-3,-2,-4,0,3
1558440770243550,-6,-2,-3,2,-1,-1,-2,-10
1558440770243550,-1,2,-1,-3,-4,-3,2,4
1558440770244540,1,0,-1,-2,1,2,1,-1
1558440770244540,-2,0,-2,-2,-2,-2,-2,-6
1558440770257505,0,-2,-1,2,0,-2,-1,0
1558440770257505,1,0,0,-1,-1,0,-3,1
1558440770258504,-6,-1,1,0,0,-1,-2,-4
1558440770258504,-1,-2,-4,2,-1,-1,0,5
1558440770271468,-4,-2,0,-2,2,1,-1,-4
1558440770271468,-3,-1,0,-1,0,2,0,-2
1558440770279448,2,2,-3,-2,-2,-2,0,2
1558440770279448,2,-2,0,0,2,2,3,3
1558440770294407,-2,-1,-2,-2,-2,-4,-2,-2
1558440770294407,-2,-1,-2,-3,-1,-2,0,-1
1558440770310376,-2,-2,-1,1,0,-5,-2,-1
1558440770310376,-1,0,1,-4,-2,-1,-2,-1
1558440770317353,-2,-4,-5,-3,-2,-4,-3,-2
1558440770317353,-2,-2,-1,2,0,2,0,2
1558440770318343,-1,-1,1,-2,0,0,1,-2
1558440770318343,2,0,-2,-1,-2,-1,-1,0
1558440770332548,-1,0,1,0,-2,1,1,1
1558440770332548,0,0,0,1,-1,-4,-6,-2
1558440770339524,0,0,2,0,1,-1,-1,-2
1558440770339524,-1,-1,-1,0,1,0,-2,-3
1558440770356241,2,-2,-4,-2,-2,1,-1,3
1558440770356241,-3,-3,-1,-4,-2,-1,0,-1
1558440770362225,0,-1,-1,0,-1,1,2,0
1558440770362225,1,-1,-1,1,-2,-3,0,-2
1558440770377195,-2,-1,-3,-4,-2,0,-1,-1
1558440770377195,2,0,0,-1,-1,-1,-2,0
1558440770378183,-2,-2,-2,1,-1,-1,-3,-4
1558440770378183,-1,-1,1,-2,-1,1,1,-2
1558440770392146,-1,0,2,-3,-2,-3,-2,-1
1558440770392146,1,-1,-3,-2,-2,-3,-1,-3
1558440770399399,-1,-1,-1,-2,0,3,4,3
1558440770399399,-3,-2,-3,-2,1,1,-2,-1
1558440770423065,-2,1,3,1,-1,-3,-1,0
1558440770423065,0,0,-2,-1,-1,1,2,-2
1558440770423065,-3,-2,-3,-4,-3,-5,-5,-1
1558440770423065,0,1,-4,-3,-1,-2,0,2
1558440770446003,-3,-3,0,1,-2,-3,-4,-6
1558440770446003,-3,-3,0,-1,-2,-2,-6,-5
1558440770446003,0,0,-2,-3,-1,-2,1,-3
1558440770446003,0,-1,0,1,-1,1,2,3
1558440770451985,0,0,-1,0,0,1,1,-3
1558440770451985,0,-1,-1,-2,1,1,-1,-1
1558440770467943,2,1,-2,-3,-1,-2,-1,-2
1558440770467943,-1,-1,0,-1,-1,-4,-4,0
1558440770474924,-2,-1,-3,-2,0,-1,1,3
1558440770474924,0,-2,1,-1,2,2,1,1
1558440770482903,-1,-2,1,2,-2,0,0,-2
1558440770482903,0,-2,1,-3,0,-1,-1,-6
1558440770498860,0,0,-2,-1,1,1,-2,0
1558440770498860,2,1,-1,1,0,-1,0,4
1558440770499863,-1,-3,-2,-1,-1,-3,-2,-2
1558440770499863,1,1,2,0,2,2,3,1
1558440770528924,3,-1,-2,-2,-1,-4,2,5
1558440770528924,-4,-3,-2,1,-1,-4,-4,-11
1558440770528924,0,-1,0,-3,2,5,1,3
1558440770528924,-2,-1,-2,-1,-1,-2,-2,-3
1558440770542743,-2,-1,-6,0,-1,-2,-2,-3
1558440770542743,-1,0,0,-3,-3,-3,-1,5
1558440770543870,-2,-3,-2,-2,-2,-3,-3,-3
1558440770543870,0,-2,-2,1,-1,1,-1,-1
1558440770556706,0,-1,0,0,-2,-4,-3,1
1558440770556706,0,-2,-3,-3,-1,-5,-1,-2
1558440770573661,-6,-2,0,-2,-3,-4,-4,-7
1558440770573661,-1,1,-1,4,1,1,0,-1
1558440770574657,2,1,4,-2,2,0,1,-2
1558440770574657,-3,-4,-3,-3,-4,-2,-4,-1
1558440770587630,1,0,1,3,-3,-4,-2,2
1558440770587630,-1,-3,-3,-4,-2,-1,-3,-4
1558440770594604,0,1,2,-1,-1,2,0,-4
1558440770594604,-1,0,0,3,2,-3,0,-1
1558440770601587,0,-2,-1,-1,1,1,3,3
1558440770601587,0,0,-3,-4,-3,1,-1,-1
1558440770618541,-2,0,3,1,2,3,0,-2
1558440770618541,-4,-1,-1,3,-2,0,-2,1
1558440770625813,-1,0,-3,-3,-1,1,0,-1
1558440770625813,1,0,1,1,-2,-5,-1,2
1558440770632584,-2,-2,-2,-1,-1,-2,-1,-2
1558440770632584,-1,-1,-5,-5,-1,-2,-3,1
1558440770647464,-1,-3,-1,0,-2,-2,-4,-1
1558440770647464,-4,-3,-1,0,-2,-2,-1,-2
1558440770654454,-5,-4,-1,1,-2,-2,-1,-1
1558440770654454,-2,0,0,0,1,2,4,-3
1558440770670437,0,-1,-1,-1,0,-1,-4,-2
1558440770670437,1,-1,2,0,2,4,2,0
1558440770677592,-2,-2,-3,-2,-2,-2,-4,-4
1558440770677592,2,2,1,-1,-1,1,2,7
1558440770693341,-3,-1,1,3,-3,-1,0,-5
1558440770693341,-2,-1,-1,-3,-1,0,-4,0
1558440770695334,-2,-5,-5,-4,-1,-2,-2,-2
1558440770695334,3,-1,1,2,1,1,-1,2
1558440770699326,-3,-1,-1,-1,-2,0,1,-6
1558440770699326,-3,-3,-2,-1,-3,-5,-2,-2
1558440770714454,0,1,-3,-1,-2,1,0,-2
1558440770714454,0,-1,1,1,0,1,2,0
1558440770722262,1,0,-1,-3,-1,-1,-1,0
1558440770722262,0,-1,-1,-3,-1,1,0,1
1558440770737224,-2,0,0,3,-2,0,1,1
1558440770737224,-3,-2,-2,-5,-2,-6,-6,-5
1558440770745424,1,1,-1,-2,0,1,4,4
1558440770745424,-2,-4,-4,1,-3,-4,-5,-6
1558440770760380,2,0,0,-1,1,3,-1,2
1558440770760380,-1,3,-1,-3,1,0,0,-2
1558440770761160,-1,0,-1,0,-2,-4,-2,-1
1558440770761160,-1,0,-1,0,-1,0,1,1
1558440770774127,2,2,-1,-1,0,-2,1,5
1558440770774127,-6,-2,-1,1,-1,-1,-3,-9
1558440770782117,1,0,-1,-1,-1,0,0,0
1558440770782117,0,2,-1,-1,0,1,0,-1
1558440770806260,0,0,1,0,-1,-2,0,5
1558440770806260,-1,-3,0,-1,-3,-3,-3,-3
1558440770806260,-4,0,-4,-4,-2,2,-4,-7
1558440770806260,-2,-4,0,-4,-2,-5,-3,-2
1558440770820051,0,-2,-3,-2,0,1,0,-2
1558440770820051,4,1,0,2,1,1,3,4
1558440770820998,-1,-1,3,1,1,-2,1,0
1558440770820998,-2,-1,0,-1,-2,-4,-1,-1
1558440770833979,-3,-2,-1,-1,-1,0,-4,-2
1558440770833979,0,0,-2,-4,0,2,-1,-2
1558440770841943,-1,-1,2,-2,1,0,-1,4
1558440770841943,-3,-2,-2,1,0,-2,-2,0
1558440770856906,-2,-2,-3,-2,0,-1,-1,-2
1558440770856906,-3,-2,2,-1,-3,0,0,-3
1558440770864883,0,-1,-2,1,0,-3,-1,-1
1558440770864883,1,-2,1,0,-2,2,2,-2
1558440770879841,-3,-1,-1,-3,-1,-4,0,-5
1558440770879841,3,0,-1,-2,-1,2,-1,4
1558440770880838,-1,-1,1,3,-1,2,-1,-4
1558440770880838,-2,-1,-3,-2,-1,-4,-2,-1
1558440770894801,-1,-3,-2,-2,-3,-2,-4,-3
1558440770894801,-3,-1,-1,1,-2,-5,-4,-1
1558440770901785,2,1,1,0,-1,0,0,6
1558440770901785,2,4,2,-2,1,0,1,4
1558440770916747,-4,-1,-1,0,-1,1,2,-10
1558440770916747,-2,-1,-2,-1,-1,-2,-2,-3
1558440770924968,0,-5,-4,-4,-2,-5,-5,0
1558440770924968,3,0,-1,1,1,4,-1,2
1558440770939843,1,-3,1,2,1,0,1,6
1558440770939843,0,-2,-1,-3,-1,-1,1,-2
1558440770940678,-2,2,-1,-3,-1,0,1,0
1558440770940678,-2,-3,-1,1,-3,-7,-4,-4
1558440770954642,0,1,1,-2,-1,1,-2,0
1558440770954642,2,-1,-3,1,1,2,3,2
1558440770961622,-1,-1,-1,0,0,0,-2,0
1558440770961622,-1,-1,-1,-1,0,1,-2,0
1558440770976619,0,0,-3,-2,0,1,-1,-4
1558440770976619,-2,0,5,-2,0,-1,1,-3
1558440770985570,-2,-1,1,2,-2,-4,-1,1
1558440770985570,-2,-4,0,-1,2,0,0,-3
1558440771000522,-1,-2,-3,-5,-3,0,-1,0
1558440771000522,0,-2,-2,1,-2,0,-1,1
1558440771000522,1,2,-1,-2,1,-6,-3,5
1558440771000522,-6,-3,-2,-1,0,-3,-3,-13
1558440771014488,0,-2,0,1,-1,0,-1,-1
1558440771014488,-1,-1,-1,-1,0,0,1,-2
1558440771021463,1,1,0,-2,1,6,3,-1
1558440771021463,1,0,-1,-3,-2,-5,0,4
1558440771036427,0,1,2,1,0,-1,1,2
1558440771036427,-3,-3,-4,-1,-3,-2,-5,-4
1558440771045400,1,-1,-4,0,2,1,-1,-3
1558440771045400,-1,0,2,0,1,3,2,2
1558440771068337,0,-2,2,-2,-4,-4,-6,-3
1558440771068337,-1,0,0,-3,0,-3,0,2
1558440771069334,-3,-3,-1,-1,-1,-1,0,-3
1558440771069334,-3,-5,-6,-3,-3,-1,-3,-7
1558440771074323,2,-1,1,-2,-2,0,0,0
1558440771074323,2,-1,-1,1,0,-4,-1,2
1558440771082300,-3,0,-2,1,-3,-1,-2,2
1558440771082300,-2,4,2,-3,-1,1,1,1
1558440771097260,0,0,-1,-2,1,-3,0,0
1558440771097260,-1,0,-1,0,-3,-6,-5,0
1558440771105241,3,0,1,0,1,1,3,5
1558440771105241,-4,-2,-1,-3,0,1,-2,-7
1558440771120204,-3,-3,-4,-1,-1,-2,-4,-4
1558440771120204,-1,-1,-2,-2,-1,-3,-2,-1
1558440771121201,0,-3,-1,-3,-3,0,-1,-5
1558440771121201,-2,-2,-1,-1,-2,0,0,3
1558440771134163,-3,-1,-1,2,-2,1,-1,2
1558440771134163,-3,-3,-3,-2,0,0,-1,-5
1558440771142141,-5,-3,-1,-2,-4,-6,-3,-3
1558440771142141,3,-1,-2,0,0,0,0,0
1558440771157101,0,-1,1,-2,1,-1,-1,-1
1558440771157101,-2,-1,-1,-2,-1,1,0,-2
1558440771165078,-2,-1,-2,-1,-3,-3,-3,-2
1558440771165078,2,0,0,0,-1,0,-1,2
1558440771180037,0,2,-2,-2,-2,-1,1,1
1558440771180037,-1,-1,-1,-2,0,0,0,-1
1558440771181034,1,-1,-2,0,-1,0,0,-2
1558440771181034,-4,-2,-2,0,-1,-1,-3,-1
1558440771194004,-3,-1,0,-2,-1,-3,0,-1
1558440771194004,4,0,-4,-1,-2,1,3,7
1558440771201983,-5,-2,4,-3,0,-2,-2,-11
1558440771201983,-1,0,1,-1,0,0,-1,1
1558440771216940,-2,-3,0,3,-1,-4,-4,-5
1558440771216940,0,0,-1,0,0,-2,-4,0
1558440771224919,-2,-2,-3,-3,-2,-2,-2,0
1558440771224919,0,0,0,0,0,3,1,2
1558440771239883,1,1,-2,0,-2,-1,1,-2
1558440771239883,-3,-2,-3,-2,0,0,-1,-4
1558440771247867,-2,-3,-4,-2,0,-2,-2,-1
1558440771247867,-2,1,0,0,-2,-3,0,-2
1558440771254838,-2,-2,-2,-2,-1,-2,-1,2
1558440771254838,0,-4,0,-2,-2,1,0,-2
1558440771269804,2,0,0,2,1,1,1,-1
1558440771269804,0,-2,0,0,-1,-4,-4,1
1558440771276781,-3,-2,-2,-3,0,1,-1,-1
1558440771276781,-3,0,1,0,0,2,0,-2
1558440771284759,1,0,-2,-1,-2,-2,-1,5
1558440771284759,-1,0,0,-2,-1,-6,-4,-7
1558440771308705,-2,-2,-1,-1,1,1,0,-6
1558440771308705,-2,-1,0,1,-1,-2,-1,-2
1558440771308705,3,1,1,-3,0,3,3,4
1558440771308705,0,-3,-3,-2,-2,-3,-3,-3
1558440771314690,-1,0,-1,2,0,0,0,-3
1558440771314690,-3,0,-1,-4,0,1,0,-1
1558440771321670,-3,-2,-2,-1,-3,-5,-3,0
1558440771321670,2,0,1,-2,-2,0,0,5
1558440771345596,1,0,3,0,-2,2,0,3
1558440771345596,0,0,-4,0,-1,-2,-2,-4
1558440771346594,-1,-1,1,-3,-2,-1,-1,-1
1558440771346594,-2,0,1,2,1,5,1,-2
1558440771360635,-5,-3,-2,-3,1,-2,-2,-2
1558440771360635,-2,0,0,-3,-3,-3,-2,1
1558440771360635,-2,-1,-3,0,-1,-1,0,1
1558440771360635,-2,0,-2,-2,-4,-5,-3,-10
1558440771374520,2,0,-2,-4,0,2,-1,-2
1558440771374520,-1,-1,0,0,-2,-2,-3,-4
1558440771382502,-1,-1,-1,1,2,2,0,3
1558440771382502,-4,-2,0,-1,-1,-3,-1,-2
1558440771396467,1,-1,-1,-3,-2,-3,-1,-1
1558440771396467,2,0,-2,0,-1,-3,-1,3
1558440771405494,-1,-2,2,0,2,0,1,-6
1558440771405494,-2,-1,-1,-2,0,3,-2,-1
1558440771420402,-2,-3,-3,-1,-3,-2,-2,0
1558440771420402,0,0,-1,0,-2,3,1,-1
1558440771420402,0,-1,2,-1,-2,-7,-2,-2
1558440771420402,-1,-2,-4,-1,-3,-1,-1,-4
1558440771434365,-1,0,0,1,2,3,0,2
1558440771434365,3,0,0,-1,0,-3,-2,-1
1558440771442336,-5,0,1,0,-1,4,-1,-5
1558440771442336,4,1,1,-1,0,-2,1,6
1558440771457310,-2,-2,-2,-1,0,0,-2,-1
1558440771457310,-2,-2,-1,-2,-2,-1,0,-1
1558440771465277,0,1,-3,0,-2,-3,-2,-1
1558440771465277,0,0,-1,-2,0,0,1,7
1558440771479246,-2,0,0,-2,-1,-2,-2,-5
1558440771479246,-2,-2,2,2,0,-4,1,-2
1558440771496193,-1,0,-1,-1,-2,-2,-1,-4
1558440771496193,1,-3,-5,-7,-2,-1,-1,0
1558440771497191,1,1,1,1,0,-2,0,1
1558440771497191,-4,-2,-1,0,-1,-2,-2,-4
1558440771502180,-4,-3,-1,-1,-2,-1,-3,-1
1558440771502180,-4,0,-1,0,-1,-1,-1,1
1558440771525117,2,0,-1,0,-1,-1,1,1
1558440771525117,2,2,1,-1,-1,2,1,-3
1558440771533099,-1,1,0,-2,-2,-1,0,-1
1558440771533099,-4,-3,-3,0,-2,0,-2,-4
1558440771539078,-5,-3,-1,-1,-4,-3,-4,-4
1558440771539078,-2,-3,-2,-3,-2,-2,-2,0
1558440771556038,-2,-1,-1,-3,-1,-1,-3,0
1558440771556038,-3,0,1,2,-2,-2,-1,-2
1558440771557029,0,-1,-1,-3,-1,0,2,1
1558440771557029,0,-3,-3,-1,-2,1,2,4
1558440771562022,0,-3,-2,1,0,1,0,0
1558440771562022,1,0,1,-2,1,-1,0,-2
1558440771576975,-3,-1,-2,-2,-3,-3,-3,-6
1558440771576975,0,2,4,2,0,3,0,1
1558440771584956,1,-3,-5,-4,-2,0,-1,-2
1558440771584956,-2,-1,-1,-3,0,1,-3,0
1558440771598917,2,-2,-2,-3,-3,-1,0,0
1558440771598917,-1,-2,-1,2,0,-1,-2,0
1558440771607901,-2,1,0,-1,-2,-3,0,-1
1558440771607901,-2,-2,0,0,-2,-3,0,-2
