timestamp,emg1,emg2,emg3,emg4,emg5,emg6,emg7,emg8
1558440702153545,-3,-2,-3,17,-2,-4,-2,-1
1558440702153545,0,2,3,-5,1,1,0,2
1558440702154542,1,-1,-3,-15,-2,1,-2,1
1558440702154542,-2,-2,-1,12,-6,-3,-3,0
1558440702155540,0,1,1,-3,1,2,0,5
1558440702155540,-1,-2,-3,-9,4,7,5,-7
1558440702155540,-1,-2,0,8,0,-2,-2,-1
1558440702155540,-1,0,2,1,-1,0,-2,-1
1558440702166510,-1,-2,-2,-10,-2,-2,0,-1
1558440702166510,0,-1,-2,1,-5,-2,-2,-3
1558440702176484,1,-1,-2,7,-3,-2,-1,6
1558440702176484,-5,-2,1,-2,4,4,0,-11
1558440702181470,1,-3,-1,-10,-1,1,0,0
1558440702181470,-4,-3,-3,9,-3,-3,-2,-1
1558440702197428,0,0,-2,-1,-1,-5,-2,-4
1558440702197428,2,-1,-5,-9,-3,-3,-2,4
1558440702206404,-2,-1,-1,6,1,4,2,-1
1558440702206404,2,1,4,4,1,0,-2,-1
1558440702211392,-2,-1,0,-3,0,2,-2,-3
1558440702211392,0,0,2,-3,-5,-10,-3,1
1558440702227347,-1,-1,1,2,2,-1,0,0
1558440702227347,0,-1,-1,-3,-1,-4,1,2
1558440702235327,-5,0,2,-2,2,8,2,-3
1558440702235327,1,0,-1,2,0,-1,-1,2
1558440702275220,0,-3,0,-4,-3,-1,-2,-2
1558440702275220,2,-1,-3,-19,-2,-8,1,4
1558440702281203,2,-2,-2,10,1,0,0,0
1558440702281203,-3,-2,-4,2,-2,0,-2,1
1558440702282215,-1,1,1,-8,1,2,0,-2
1558440702282215,-1,-1,-5,1,-2,-3,-4,-6
1558440702282215,0,0,1,4,0,2,0,3
1558440702282215,-1,-2,-2,-8,0,-7,-4,0
1558440702286191,-1,-2,-5,-5,-3,-1,-1,-2
1558440702286191,1,2,3,15,3,2,2,5
1558440702303144,-2,2,1,-8,0,-5,-1,-1
1558440702303144,-1,-3,-6,-9,-1,3,0,0
1558440702304142,-5,-4,0,10,-2,-3,-5,-10
1558440702304142,-1,-1,3,-1,3,9,6,-1
1558440702325086,-1,-2,-3,-9,-2,-3,3,1
1558440702325086,-2,0,-2,4,-1,-4,-2,-6
1558440702327081,-2,1,-1,3,1,4,-2,1
1558440702327081,-3,-2,-2,-4,-4,-4,-3,-4
1558440702332072,2,1,4,-2,-3,-3,-3,-3
1558440702332072,0,0,1,4,-3,-3,-3,2
1558440702347026,1,2,-1,-1,5,3,5,3
1558440702347026,-2,0,-1,-3,3,5,1,-3
1558440702355005,-3,-2,0,2,-3,0,-2,0
1558440702355005,-1,-2,-1,-2,-6,-3,-3,-3
1558440702361987,-2,-3,-2,-3,-2,-3,-2,0
1558440702361987,1,1,0,0,-3,-9,-2,1
1558440702376947,-1,-2,1,-1,1,0,2,0
1558440702376947,-1,0,-2,-3,1,3,2,-2
1558440702383928,1,-1,-4,-1,-1,4,0,0
1558440702383928,5,2,-1,-1,-3,-4,-1,4
1558440702399885,-6,-5,-7,-1,-1,-3,-2,-9
1558440702399885,1,1,4,-2,0,-4,-2,-2
1558440702406867,1,0,1,0,-1,-1,0,3
1558440702406867,-3,-1,0,-1,-1,2,-4,-4
1558440702414846,-2,-2,-3,-4,-2,-5,-1,-1
1558440702414846,1,1,0,2,1,-3,3,2
1558440702421828,0,-2,0,-2,-2,-5,-2,1
1558440702421828,-2,-1,-2,-2,-4,1,-1,-1
1558440702437783,0,-2,-4,-1,-1,7,0,0
1558440702437783,-2,0,0,1,-1,-3,0,-1
1558440702452743,2,1,1,-3,2,-1,-3,2
1558440702452743,0,-3,-2,-2,-2,0,-1,-2
1558440702452743,-2,2,1,-1,-4,-6,-5,-5
1558440702452743,-2,0,-1,-2,3,3,1,4
1558440702466706,-2,-1,-2,-1,0,-1,2,-2
1558440702466706,0,-1,1,2,3,4,2,2
1558440702474685,0,-1,0,-4,-1,0,-3,4
1558440702474685,-6,-1,-2,-2,-2,1,-5,-13
1558440702481675,-1,0,-4,0,1,-3,1,-3
1558440702481675,-6,-4,0,-2,-3,-5,-4,-3
1558440702505610,2,0,-1,-2,0,-4,-1,2
1558440702505610,0,-3,-1,-1,-2,6,0,2
1558440702506603,-1,-3,0,-1,-6,-8,-4,-2
1558440702506603,1,-1,-1,0,2,-3,3,0
1558440702511590,0,0,-2,-2,-1,2,0,-2
1558440702511590,-1,-2,-2,-1,-3,-4,-4,-2
1558440702526552,-1,0,1,-2,1,5,0,-3
1558440702526552,-2,-2,-3,-3,-3,-6,-5,-1
1558440702534562,-2,1,-1,2,-2,-1,0,-3
1558440702534562,1,-2,-2,-2,-1,-2,2,-1
1558440702541517,1,-2,0,-2,-3,-3,0,3
1558440702541517,-1,0,0,1,-2,-2,-3,-1
1558440702557468,3,-1,2,2,2,3,-1,3
1558440702557468,-2,0,-2,-2,2,4,-3,-5
1558440702564514,-4,-1,3,0,0,1,0,-5
1558440702564514,0,-1,-4,1,-1,3,0,0
1558440702571495,-1,-3,-3,-3,-3,-9,0,0
1558440702571495,-1,-1,0,0,-1,1,1,3
1558440702586455,1,0,-2,-1,-2,-5,-3,-1
1558440702586455,-4,-4,-6,-2,-3,-3,-3,-2
1558440702603387,0,2,5,-1,3,7,2,-1
1558440702603387,-1,-2,-3,1,1,0,-2,2
1558440702604349,-1,-1,-1,1,-3,-4,-3,1
1558440702604349,1,-2,-1,-1,-3,-2,-2,-3
1558440702617313,-2,-2,-3,-2,0,4,-1,-2
1558440702617313,1,-2,0,2,1,-3,-1,-3
1558440702624338,-1,0,-1,-2,1,5,0,3
1558440702624338,0,1,0,-2,2,-1,1,3
1558440702631270,0,-1,-1,2,-3,-4,-1,-2
1558440702631270,-7,-3,0,-2,-5,-6,-3,-8
1558440702647227,0,-1,-1,-1,-3,-6,-2,-1
1558440702647227,-1,0,-1,1,5,6,4,3
1558440702655207,-2,0,-2,-1,1,4,3,1
1558440702655207,-3,-1,-4,-3,-4,-3,-5,-3
1558440702662186,0,-1,-2,-3,-4,-6,-2,-4
1558440702662186,-1,-2,1,0,-4,-3,-5,-2
1558440702677145,0,-1,0,-3,2,3,-1,-2
1558440702677145,2,-1,-1,-1,-4,-4,-2,0
1558440702684162,-2,0,-2,1,0,2,2,0
1558440702684162,0,1,0,-2,1,0,0,-2
1558440702708061,-3,-1,-3,0,0,-5,-3,-1
1558440702708061,4,-1,0,1,1,3,0,3
1558440702709061,0,-1,1,-1,-4,-1,-1,1
1558440702709061,-1,-1,-1,-2,-2,-1,-2,-3
1558440702715043,-2,-3,-7,-3,-2,-5,-5,-2
1558440702715043,0,2,1,0,-3,1,1,5
1558440702722023,-1,-1,0,-3,-1,-4,-2,-5
1558440702722023,0,-1,-1,-1,-1,3,4,-1
1558440702737041,3,2,2,2,3,5,4,1
1558440702737041,2,-1,1,-3,2,3,0,3
1558440702744344,-3,-2,-2,-4,-3,-5,-3,-2
1558440702744344,-3,-3,-1,-1,-1,-3,-2,-1
1558440702759924,-1,0,-2,1,3,2,0,0
1558440702759924,-2,1,-1,-2,0,-3,3,0
1558440702767294,2,-1,0,1,1,4,2,4
1558440702767294,-1,-1,-3,0,-2,-2,-3,-5
1558440702774884,-2,-1,-1,-3,-5,-2,-1,-3
1558440702774884,3,1,4,-2,-1,1,0,0
1558440702782379,-3,-1,-1,3,-1,-7,-3,-3
1558440702782379,-1,0,0,-5,-3,-4,-5,0
1558440702798187,-4,-4,-4,-2,-4,1,-6,-5
1558440702798187,-1,-1,-2,-2,-4,-1,-1,-2
1558440702805077,-1,2,-1,1,6,2,6,4
1558440702805077,1,1,0,-2,2,-1,1,0
1558440702820536,-3,-1,1,0,-2,-2,-4,-6
1558440702820536,-2,1,-3,1,-3,-2,-1,-3
1558440702827159,1,0,-2,-3,-1,4,-2,-5
1558440702827159,-2,-3,-5,0,-4,2,-2,3
1558440702835196,-2,-1,2,1,0,0,2,-2
1558440702835196,-1,-3,0,-3,0,-7,-2,1
1558440702842121,1,-2,-4,-1,4,11,5,1
1558440702842121,-1,-1,-2,0,-2,0,1,-1
1558440702857080,-1,-1,0,-3,-7,-10,-7,-1
1558440702857080,0,0,1,-1,2,2,0,-1
1558440702864063,-1,1,0,-2,-2,0,-3,-3
1558440702864063,-2,-2,1,1,0,-1,-2,-5
1558440702880023,1,2,-4,-2,0,-1,4,3
1558440702880023,-1,-3,0,-2,-4,-5,-4,-1
1558440702887004,-2,-1,-1,0,-3,-3,-4,0
1558440702887004,1,1,0,-2,-2,0,-1,0
1558440702894978,2,0,1,-2,1,0,2,1
1558440702894978,0,1,-1,4,2,-1,2,0
1558440702901961,0,-2,-3,-3,-2,-2,-2,-2
1558440702901961,-1,-2,-3,-2,-5,-4,-3,-2
1558440702916919,0,-1,-2,-2,-3,-2,-3,-1
1558440702916919,0,1,-3,1,6,6,4,-2
1558440702923899,1,0,0,-1,1,-3,0,3
1558440702923899,-1,-1,-2,-3,-1,-2,-1,-3
1558440702939856,-1,-3,-1,1,-1,-5,-1,4
1558440702939856,-2,0,5,-2,0,1,-1,-2
1558440702946838,0,-1,-1,-4,-8,-8,-5,-2
1558440702946838,-2,-1,-2,1,-1,-3,-1,-5
1558440702954817,-1,1,0,-1,3,7,4,-1
1558440702954817,-2,-2,-5,-2,0,-3,0,0
1558440702968780,-2,-3,-3,-1,-2,0,-2,0
1558440702968780,1,2,1,1,-6,-8,-5,-4
1558440702977756,0,-3,-4,-3,1,-3,-2,-3
1558440702977756,2,1,0,0,1,4,4,3
1558440702983739,-4,-1,-2,0,-3,-4,-5,-5
1558440702983739,1,0,-2,-3,0,0,-1,1
1558440702999697,-5,-4,-5,-3,-3,-3,-4,-6
1558440702999697,-2,-3,-2,0,-5,-4,-4,-3
1558440703006679,-1,-2,-3,0,0,4,0,1
1558440703006679,1,1,1,0,3,1,3,5
1558440703014657,-3,-4,-2,-1,0,-1,-1,0
1558440703014657,-1,1,3,1,1,0,-2,-2
1558440703029616,-1,0,0,-2,-2,-5,-3,-1
1558440703029616,0,-1,2,0,2,3,1,-3
1558440703037596,1,-1,-1,2,-4,-2,-1,-1
1558440703037596,-2,-3,-4,-5,-7,-9,-7,-3
1558440703044577,0,2,0,0,4,8,6,1
1558440703044577,0,0,2,2,3,-2,3,5
1558440703059539,-5,-1,0,0,0,3,-4,-8
1558440703059539,-1,-2,-2,-2,-4,-4,-4,-1
1558440703066518,-1,-1,-1,-1,0,-1,1,-4
1558440703066518,0,-5,-1,0,-1,3,1,0
1558440703074496,-1,-2,0,-4,-2,-2,-1,7
1558440703074496,-3,-2,-3,-2,-2,-2,-3,-9
1558440703089457,-1,0,0,-1,-5,-7,-4,-3
1558440703089457,-1,1,1,-2,1,8,4,-2
1558440703098433,-1,-1,-1,-1,-3,-9,-5,1
1558440703098433,-2,0,3,3,6,-2,3,0
1558440703104417,-2,-1,-3,-2,1,1,3,0
1558440703104417,-3,-1,3,-3,-7,-2,-5,-4
1558440703120374,1,1,-1,1,1,4,1,-1
1558440703120374,2,0,-2,-2,1,2,-2,3
1558440703126361,0,-2,-1,-3,0,1,0,2
1558440703126361,-4,1,1,0,1,-4,-2,-2
1558440703135335,3,1,-1,0,0,-6,0,2
1558440703135335,0,-1,-1,-4,-2,2,-1,1
1558440703149298,0,-1,-1,1,2,3,4,0
1558440703149298,-1,-2,-5,-1,-1,-1,-3,-3
1558440703158274,-2,-1,0,-1,0,3,0,2
1558440703158274,-3,-1,-3,-2,-3,-3,0,0
1558440703164257,-1,0,1,-2,-1,-4,-2,-1
1558440703164257,-4,-2,-1,1,2,1,-2,-6
1558440703180214,-1,0,0,-2,-1,1,0,0
1558440703180214,2,1,-3,-2,0,-1,0,4
1558440703187196,-4,1,0,2,-2,1,-3,0
1558440703187196,0,0,-1,-3,-2,0,-1,1
1558440703202156,1,1,-1,-1,0,-3,2,-3
1558440703202156,0,-2,-3,1,-1,-1,-2,0
1558440703209137,-1,-3,1,-3,-2,-2,-1,-3
1558440703209137,2,0,-2,-1,-1,-3,-1,0
1558440703218113,-2,0,-1,-1,-1,-2,0,-3
1558440703218113,-2,-2,0,0,-1,2,2,0
1558440703224097,-2,-1,-2,-1,-1,-1,-3,-3
1558440703224097,0,-2,-2,-1,-3,-5,-2,0
1558440703241051,1,-1,1,2,-1,0,0,-1
1558440703241051,-1,-3,-3,-5,-1,-3,-2,-2
1558440703247035,0,1,1,1,1,-3,-2,0
1558440703247035,-3,-2,-4,1,-3,-2,-1,-3
1558440703261996,0,0,7,-1,-1,0,0,-1
1558440703261996,-1,-2,-2,-3,0,1,0,-5
1558440703268978,-1,-1,2,0,-3,-3,-3,-1
1558440703268978,-3,-4,-2,-2,-1,0,-1,1
1558440703284935,1,0,-3,-2,0,0,-1,2
1558440703284935,-1,-1,-1,0,-1,-1,-3,-2
1558440703285932,-1,-1,-1,0,1,1,2,1
1558440703285932,0,-2,-1,-3,0,-4,-3,-2
1558440703300892,2,-2,0,-3,-1,0,-2,-2
1558440703300892,1,-1,0,1,-1,0,1,3
1558440703306882,-2,-2,-3,-2,-2,-3,0,-2
1558440703306882,-3,-3,-1,-1,-2,1,1,0
1558440703321836,-2,-4,-3,0,-3,-3,-3,0
1558440703321836,-3,-2,0,-4,-3,-1,-1,-1
1558440703328819,-3,-3,-5,-2,-1,-1,-1,-1
1558440703328819,1,2,3,0,-1,1,-2,1
1558440703344774,-3,0,0,1,1,-2,-4,-6
1558440703344774,-2,1,0,0,-2,-1,0,-1
1558440703345773,0,-4,-3,-1,-1,-1,-1,0
1558440703345773,1,-1,-3,0,-3,-4,0,-2
1558440703368710,-6,0,-1,-1,-2,0,-3,-9
1558440703368710,-2,0,2,-1,0,0,-1,-3
1558440703369707,0,0,-1,1,-3,1,1,0
1558440703369707,2,2,-1,-2,-1,-2,0,3
1558440703389654,0,0,-3,-2,-2,-3,-2,0
1558440703389654,-1,-2,-4,-1,1,1,-2,-1
1558440703390651,1,-1,0,0,-1,-1,-3,-2
1558440703390651,-4,-2,-2,-3,-2,0,-2,1
1558440703404614,-3,-3,-2,-1,-3,-2,-2,-1
1558440703404614,-1,1,2,2,-1,-1,-1,1
1558440703405611,0,-1,-1,-2,0,-1,1,1
1558440703405611,-1,-1,-1,-2,-2,-1,-3,-4
1558440703420571,6,-1,-1,0,-3,-3,-3,1
1558440703420571,-3,-2,-1,-1,3,6,2,0
1558440703426555,-3,0,-1,-2,0,-1,-1,2
1558440703426555,-2,-1,-2,1,-3,-5,-1,-7
1558440703443511,0,-3,-3,1,2,1,3,4
1558440703443511,0,-3,-2,-3,-6,-4,-4,-5
1558440703449494,-2,-2,1,-1,0,0,-1,-5
1558440703449494,-3,0,1,1,0,-3,-1,1
1558440703466448,-5,-1,0,-4,-4,-3,-1,0
1558440703466448,2,2,-2,-1,0,-4,-2,3
1558440703467445,-1,0,1,2,-2,1,-2,-3
1558440703467445,-3,-3,-3,-2,-3,0,-1,0
1558440703488390,1,1,0,-2,-1,1,-1,-3
1558440703488390,0,0,-1,0,-1,0,0,1
1558440703489387,5,-2,-3,0,-3,-2,-4,0
1558440703489387,10,2,-1,-3,0,-1,1,-3
1558440703501355,1,2,0,-2,2,5,4,3
1558440703501355,-17,-4,2,1,-1,0,-3,-5
1558440703517312,-7,1,-1,-3,-1,-3,-2,-4
1558440703517312,18,0,-3,0,2,3,1,6
1558440703525291,5,1,-2,-1,-3,-4,0,5
1558440703525291,1,-3,-4,-3,-4,-3,-7,-8
1558440703525291,2,1,0,-1,1,1,-1,0
1558440703525291,-5,-2,1,1,0,-1,-1,-3
1558440703540252,-1,0,1,-1,-2,-2,0,2
1558440703540252,0,-2,0,-2,-1,-4,2,2
1558440703546235,-3,-2,-3,-2,0,-2,-2,0
1558440703546235,0,0,-2,-1,-1,3,-1,-3
1558440703570176,-1,-4,-2,-3,-1,1,-2,-3
1558440703570176,-2,1,0,0,1,-1,-1,1
1558440703570176,-13,-6,-1,1,0,-4,-4,-2
1558440703570176,-7,-1,0,-4,-2,1,-2,-2
1558440703592115,-18,-4,0,1,1,0,0,-6
1558440703592115,0,-1,0,1,-2,2,0,-1
1558440703593112,5,-2,-4,-3,-2,-4,-1,0
1558440703593112,-7,-2,4,-1,2,-8,-3,1
1558440703601090,5,0,-4,-2,1,3,0,3
1558440703601090,-1,-2,-2,0,-2,-2,-3,-3
1558440703607074,-1,-1,-1,-2,4,12,5,-2
1558440703607074,-2,-1,-4,-3,-2,-6,-6,-2
1558440703622036,1,-1,1,2,-1,-6,-2,-2
1558440703622036,3,1,-3,-2,1,-2,2,1
1558440703645969,12,1,0,-3,-4,-2,0,4
1558440703645969,-11,-1,-2,0,-1,2,-2,-5
1558440703646967,10,0,0,-2,-1,1,-1,-1
1558440703646967,-2,-2,0,-2,-1,0,-3,1
1558440703651953,-2,0,-1,-2,-3,-2,-3,-3
1558440703651953,6,1,-2,2,1,3,2,8
1558440703668906,-2,-1,0,-2,-2,-4,-6,-8
1558440703668906,5,1,1,0,1,1,0,-4
1558440703669904,-1,1,0,1,0,1,1,2
1558440703669904,6,0,2,1,2,3,2,2
1558440703681872,-2,-2,0,-2,-1,-3,-1,0
1558440703681872,3,2,-2,-1,-1,-1,-1,-3
1558440703688858,-1,-2,-1,-1,0,-2,-1,-1
1558440703688858,-4,-4,-1,-3,0,0,1,0
1558440703704815,-1,-1,-1,-1,-1,0,2,-1
1558440703704815,1,-2,-1,1,0,-1,-2,-2
1558440703705810,-4,-1,-1,-3,-1,-2,-2,0
1558440703705810,-12,-4,-5,-4,-5,-4,-3,-7
1558440703720776,-1,-2,-3,-1,-2,0,-2,0
1558440703720776,-14,-4,0,-1,-1,0,1,-5
1558440703726757,0,0,0,-2,0,-2,-1,-2
1558440703726757,-8,-4,2,-1,1,0,0,-3
1558440703742718,-1,0,1,3,0,2,-3,-6
1558440703742718,1,0,-3,-4,-2,-1,2,5
1558440703749692,-2,-4,-2,-3,-2,0,-1,1
1558440703749692,-3,-2,-5,1,-3,-2,-7,-6
1558440703773628,1,0,0,-2,0,2,-1,3
1558440703773628,-4,-2,-2,-2,-3,-1,-3,0
1558440703774625,-1,0,0,2,-3,-2,-2,-5
1558440703774625,5,2,0,-1,1,2,3,0
1558440703795568,-4,0,-2,-2,3,-3,3,2
1558440703795568,15,4,0,-3,-1,-3,-1,1
1558440703796565,-3,1,0,0,-3,-4,-2,1
1558440703796565,-2,-2,-2,-2,-1,-3,-6,-7
1558440703801553,-2,-1,-3,-1,2,1,1,-2
1558440703801553,-1,0,0,4,5,7,8,2
1558440703809531,1,-2,0,0,0,-2,-1,-2
1558440703809531,0,0,0,-3,-2,2,0,1
1558440703824490,0,-4,0,1,-2,-4,-3,2
1558440703824490,-3,-1,-2,-3,-3,-4,-3,-2
1558440703825489,-1,-3,-2,-4,-1,1,-1,-1
1558440703825489,0,1,-1,0,1,3,3,3
1558440703848432,-5,-1,-1,1,-1,-1,-1,-3
1558440703848432,0,-1,-2,0,-1,-1,-2,-1
1558440703849423,0,-4,-3,-4,-3,-1,-3,1
1558440703849423,-2,0,1,5,0,-2,-2,-7
1558440703871367,1,0,0,-3,-2,-1,-3,-1
1558440703871367,-2,-3,-4,-6,-2,-2,0,-4
1558440703872365,-3,0,-1,2,-3,-1,-2,0
1558440703872365,1,-2,-3,-1,0,-2,-2,3
1558440703885331,2,1,-1,-2,-2,-3,0,1
1558440703885331,-7,-4,1,0,0,-2,-5,-10
1558440703885331,-1,2,-3,2,4,0,2,1
1558440703885331,6,1,-1,-3,-2,-2,-2,0
1558440703907273,-4,-2,-3,-5,-3,-3,-5,-3
1558440703907273,0,-3,-1,1,-3,-1,-1,-2
1558440703908269,-1,-2,2,-4,-1,0,2,-1
1558440703908269,-3,-4,-2,-2,-1,-1,-1,-2
1558440703923227,1,-2,-3,1,-3,-3,-2,-2
1558440703923227,-2,-1,0,-1,2,3,-1,3
1558440703929216,-2,-3,-5,-6,-3,-4,-4,-4
1558440703929216,3,-2,2,-1,-2,-3,3,3
1558440703944176,-5,-1,-1,0,-2,-2,-1,0
1558440703944176,-3,0,-1,-1,0,0,-1,4
1558440703952149,-2,0,0,2,1,1,-1,-3
1558440703952149,-5,-1,-2,2,-2,0,-4,-3
1558440703975088,1,0,-3,-3,1,1,1,0
1558440703975088,2,0,1,-3,-4,-6,-1,2
1558440703976087,-1,0,1,6,-2,-2,-1,-1
1558440703976087,-1,1,1,-4,0,-2,-2,0
1558440703983071,1,1,0,-3,3,7,2,0
1558440703983071,0,-2,-2,1,0,3,1,-2
1558440703998031,-1,-3,-5,-2,-4,-2,-3,0
1558440703998031,-7,-3,0,1,1,-4,-1,-5
1558440704004010,-2,1,-2,0,-2,1,-1,-2
1558440704004010,-1,-1,-3,1,-2,-5,-2,0
1558440704020254,-1,0,-5,-6,-1,1,-1,0
1558440704020254,-1,-2,-1,-4,-2,-1,-2,-2
1558440704027158,-2,-1,-1,2,-1,-1,-2,-3
1558440704027158,-3,-2,1,-3,-2,-2,-1,-1
1558440704028119,1,-1,-1,-2,-1,-3,-2,-3
1558440704028119,1,1,-2,2,1,2,4,3
1558440704043078,0,-1,3,1,-3,-3,-1,0
1558440704043078,-1,0,0,-2,-1,-3,-3,0
1558440704049063,-2,-3,-1,-1,0,-2,-2,-2
1558440704049063,0,0,-5,1,-1,-2,-1,2
1558440704073020,-3,-3,-4,-3,-1,1,-2,-4
1558440704073020,0,0,0,-4,-2,-1,0,2
1558440704073020,-2,-1,-2,4,-1,1,-2,-6
1558440704073020,-1,-2,-1,-2,-1,1,0,0
1558440704094940,0,-1,-3,-4,-2,-3,-2,-3
1558440704094940,-1,-1,-2,3,-1,-1,-2,-2
1558440704095938,-1,0,2,-2,0,1,-1,2
1558440704095938,0,0,1,-2,-2,1,1,0
1558440704102919,-2,-3,-5,-4,-3,-5,-3,-5
1558440704102919,0,0,-2,4,1,0,1,1
1558440704108904,-2,-1,-1,-4,0,2,3,2
1558440704108904,-1,0,1,0,1,0,0,-1
1558440704131841,-8,-6,-7,1,-5,-3,-4,-4
1558440704131841,2,0,-1,-2,0,-1,-4,2
1558440704132837,-1,0,1,-1,5,-2,3,0
1558440704132837,1,1,0,1,-1,-3,-1,-2
1558440704148796,-2,-2,-1,0,-1,-5,-3,1
1558440704148796,-2,-2,-6,-7,-4,-5,-1,-1
1558440704149792,-1,-1,-3,2,-1,3,-1,-5
1558440704149792,0,1,3,2,-2,-1,-2,0
1558440704169740,3,3,3,-1,1,2,2,3
1558440704169740,-2,-1,-4,-4,-2,0,-1,-1
1558440704170737,3,0,0,1,-2,-4,-3,3
1558440704170737,-2,-2,-4,-3,-2,-3,-3,-5
1558440704183702,1,1,2,-4,0,1,1,1
1558440704183702,0,-1,2,4,-1,-2,-1,-2
1558440704191682,-5,0,-2,-1,0,-2,-2,0
1558440704191682,6,-2,-6,-4,-2,-2,-3,0
1558440704207696,-8,-2,-1,2,2,2,2,1
1558440704207696,-2,-1,-2,1,1,0,2,-2
1558440704207696,0,1,1,-3,-2,2,0,1
1558440704207696,-2,-3,-1,-4,-1,1,-2,-2
1558440704222599,3,-1,1,4,-1,-2,-2,1
1558440704222599,-1,0,3,0,1,1,1,-2
1558440704229578,0,-1,0,-6,-3,-2,0,-1
1558440704229578,-3,-1,-3,1,-1,1,2,1
1558440704253515,0,-1,-2,-2,-1,0,-2,-1
1558440704253515,-2,0,2,-1,-2,-2,-4,-2
1558440704254512,1,-4,-7,-2,-2,-2,-2,-1
1558440704254512,-2,-1,2,1,0,-4,-1,3
1558440704274460,3,2,1,-4,-2,-3,0,2
1558440704274460,1,0,1,-1,-1,-1,-2,3
1558440704275456,-1,1,1,5,4,1,4,-2
1558440704275456,0,1,-1,-5,3,6,6,0
1558440704283473,-3,-4,-1,-2,-2,-3,-4,-6
1558440704283473,-5,-2,-6,2,-1,-1,-1,-3
1558440704297396,-1,1,3,0,0,-1,1,1
1558440704297396,-2,-2,-4,-2,-4,-6,-5,0
1558440704304377,-2,-2,1,0,0,1,-1,-3
1558440704304377,0,-5,-3,-2,-5,1,-4,-2
1558440704311394,0,-2,-4,-1,-3,-4,-4,0
1558440704311394,0,-1,-1,1,0,-1,1,-2
1558440704328314,-3,1,-4,1,-1,-3,0,3
1558440704328314,1,-1,-2,-7,-2,-2,-3,-1
1558440704329312,-1,1,-1,1,-1,0,-1,-3
1558440704329312,-3,-2,1,0,-4,-4,-5,-2
1558440704351254,-1,-2,0,-1,0,1,0,-2
1558440704351254,3,0,-2,-2,0,0,1,0
1558440704352287,-4,0,-1,3,-1,0,-1,-2
1558440704352287,-3,-3,-2,-3,0,1,-1,0
1558440704364220,1,-2,-1,-3,-3,-2,-1,-1
1558440704364220,-4,-2,0,-2,1,-3,-1,-5
1558440704380177,1,-1,1,3,-1,1,0,1
1558440704380177,1,0,-1,-3,1,-1,-1,0
1558440704387195,-1,-2,-4,-2,0,-1,-2,-2
1558440704387195,-1,-4,0,5,-1,-3,-3,-1
1558440704388155,-1,-5,-1,-5,-2,-3,-5,-2
1558440704388155,0,1,-1,-4,0,2,1,4
1558440704403113,-2,2,2,4,-1,3,0,-4
1558440704403113,-4,1,-2,-3,-1,0,0,-5
1558440704409101,-1,-1,-3,-6,-3,-2,-1,1
1558440704409101,-3,-5,-8,-3,-3,-3,-1,-6
1558440704426057,1,1,4,1,1,0,0,0
1558440704426057,-1,0,1,-1,1,1,3,2
1558440704432066,-2,-4,-4,-2,-5,-2,-2,-2
1558440704432066,-3,0,3,3,-5,-6,-4,2
1558440704454978,-2,-3,-4,-4,-1,-1,-3,-2
1558440704454978,-3,-1,-3,-3,0,3,0,-2
1558440704455973,2,0,1,1,-1,-3,-3,-1
1558440704455973,0,1,1,1,2,1,-1,-2
1558440704462955,5,1,0,-1,4,5,6,7
1558440704462955,-3,0,1,1,-2,-2,-3,-9
1558440704485927,0,0,1,1,2,-4,-1,-2
1558440704485927,-2,-3,-4,-4,0,0,1,0
1558440704486891,0,-1,-1,-3,-4,-1,-2,-3
1558440704486891,-1,0,-4,2,-3,-3,-3,1
1558440704508833,-1,-1,1,-4,-5,-5,-1,-2
1558440704508833,0,-1,-1,0,4,-1,0,-5
1558440704509831,-1,-1,-3,2,0,0,-2,2
1558440704509831,-2,-2,0,-1,1,4,1,-1
1558440704510827,-1,-1,1,-1,-3,-3,-2,-1
1558440704510827,3,0,1,-3,-1,0,4,3
1558440704529802,-5,-4,-4,1,-2,-2,-3,-3
1558440704529802,2,1,0,-3,-2,-3,-2,1
1558440704530799,-3,0,0,-2,1,2,0,-1
1558440704530799,0,-1,0,5,-2,0,-4,-2
1558440704543781,2,0,1,-5,-3,-2,-1,0
1558440704543781,0,-4,-2,-6,-4,-1,0,1
1558440704551753,0,-2,-1,3,1,3,1,4
1558440704551753,-2,-4,-1,-1,-3,-2,-4,-2
1558440704567673,-3,0,0,-3,0,-3,-3,-3
1558440704567673,-1,-2,0,0,0,-3,-1,-2
1558440704567673,3,1,-4,-1,-2,1,3,6
1558440704567673,-5,-1,-1,-3,-2,-1,-6,-6
1558440704582633,0,0,-3,-2,-1,-1,-2,0
1558440704582633,-1,-2,-2,3,0,1,-1,0
1558440704589616,1,0,-1,-2,1,0,0,2
1558440704589616,-1,-4,-3,-4,-1,1,-1,-2
1558440704605574,-1,-1,0,2,-6,-4,-4,-3
1558440704605574,1,1,0,-1,2,4,5,5
1558440704611557,-3,-1,-1,1,3,5,0,-5
1558440704611557,0,0,-1,-2,-2,-5,-1,0
1558440704628511,-2,-2,-3,0,-3,-9,-6,-1
1558440704628511,3,-1,-1,-4,-4,-4,-2,-3
1558440704629509,1,0,0,-2,2,4,1,3
1558440704629509,-3,-1,0,6,1,6,-1,-4
1558440704643471,-2,-1,0,-5,-2,-6,-3,-1
1558440704643471,1,0,-1,-1,0,-2,0,0
1558440704649514,0,-3,-2,1,-3,-1,-2,0
1558440704649514,0,0,1,-2,1,4,2,3
1558440704664415,2,0,2,-2,-1,3,1,-1
1558440704664415,-3,-1,0,1,-2,-4,-2,-2
1558440704679376,-2,-2,1,0,1,1,1,-4
1558440704679376,6,3,-1,-2,0,3,4,9
1558440704687396,-1,-3,-2,-6,-1,2,-1,-3
1558440704687396,-4,-1,-1,4,1,-2,0,1
1558440704688390,-4,-1,0,-3,0,-4,-3,-3
1558440704688390,0,0,-1,-2,-4,-4,-1,-3
1558440704711290,-2,-3,-2,5,0,-1,1,-3
1558440704711290,4,0,-2,-3,-1,-1,-4,2
1558440704712288,-3,-3,-2,-3,2,4,-1,-7
1558440704712288,-2,-3,0,0,0,-6,-3,-4
1558440704725252,-2,-1,-3,0,0,4,2,-2
1558440704725252,-1,-3,-1,-5,-2,-2,-2,0
1558440704731237,-3,-3,-3,-2,-6,-10,-5,-1
1558440704731237,-2,-1,-2,2,-1,-2,-2,-1
1558440704747226,-1,0,-1,-5,2,2,0,7
1558440704747226,-4,0,-1,-2,0,1,-4,-9
1558440704748191,-3,1,-2,1,-6,-4,-3,-1
1558440704748191,-1,-3,-1,-6,-3,-4,-4,-4
1558440704763185,3,2,3,-1,3,4,5,3
1558440704763185,2,-2,1,3,2,3,3,1
1558440704777113,-1,0,-3,-1,0,1,0,-1
1558440704777113,0,-2,-3,-4,-3,-4,0,0
1558440704785119,1,0,2,-1,0,-1,-2,-1
1558440704785119,-4,-2,-1,2,-3,-4,-3,-1
1558440704792073,1,0,1,-2,0,1,3,0
1558440704792073,-1,-1,-2,-2,-2,-2,-2,-1
1558440704809036,-2,-2,-1,5,2,0,-1,-3
1558440704809036,-1,-1,0,-3,-4,-3,-2,-3
1558440704809036,-3,-3,-1,-3,-4,-3,-5,-1
1558440704809036,1,-2,0,2,-1,-3,-3,-1
1558440704830971,-1,0,-2,-1,1,2,0,-5
1558440704830971,1,0,-1,-1,1,1,-2,-1
1558440704831967,1,0,0,-1,0,-2,0,3
1558440704831967,0,0,3,3,0,4,2,2
1558440704860890,-3,-2,0,-1,-1,2,1,-2
1558440704860890,-3,-5,-5,-4,-2,-2,-4,-3
1558440704860890,-1,-2,-3,0,-2,-1,-2,-4
1558440704860890,-1,1,-1,-4,2,-1,1,0
1558440704866874,-2,0,-1,-3,-2,-3,1,1
1558440704866874,-2,-2,-1,1,-2,0,1,1
1558440704882833,-4,-1,-2,-2,-3,-2,-1,-6
1558440704882833,-3,-1,0,-4,-3,-3,-5,0
1558440704884825,2,-1,-2,0,1,-3,-2,-2
1558440704884825,3,2,0,2,1,4,1,2
1558440704888814,1,-1,-2,-4,1,2,3,0
1558440704888814,-1,0,1,0,1,0,-1,-1
1558440704912750,0,0,-1,2,-3,-3,-2,1
1558440704912750,-2,-2,0,-4,-2,-4,-1,-3
1558440704912750,2,0,-2,-5,1,2,1,2
1558440704912750,-6,-2,-1,3,-2,0,-2,-7
1558440704934691,-5,-4,-1,-4,-2,-2,-3,-3
1558440704934691,-2,-1,-4,-3,0,-4,0,1
1558440704935726,-2,-2,-2,1,-3,0,-4,-1
1558440704935726,0,-1,-2,0,1,3,1,0
1558440704942708,1,-2,0,-3,-1,-1,-3,1
1558440704942708,-2,-2,0,0,-1,-2,-2,-2
1558440704948654,2,0,3,3,0,-1,0,0
1558440704948654,3,1,0,-3,6,2,6,6
1558440704962680,1,1,-1,-1,-3,0,0,-2
1558440704962680,-3,-1,-3,0,-2,1,-2,-6
1558440704979571,0,-2,-1,-2,0,1,-1,-2
1558440704979571,-2,0,-1,-2,1,3,2,-1
1558440704986588,-2,-1,-2,-2,-3,-5,-2,1
1558440704986588,1,0,2,3,4,3,4,6
1558440704994531,-2,0,-2,-6,-4,-4,-5,-2
1558440704994531,0,0,0,-3,-4,1,-4,-3
1558440705009494,-1,1,1,2,-2,-8,-2,0
1558440705009494,0,0,-2,-2,-1,0,-1,-4
1558440705010490,2,-1,0,0,1,3,-1,-3
1558440705010490,-2,-3,-1,3,1,5,0,0
1558440705024484,-2,-3,-1,-3,0,0,-1,0
1558440705024484,-1,-1,0,-3,-2,-7,0,-3
1558440705031660,-2,-1,0,-1,-1,-9,-1,4
1558440705031660,-2,-1,-4,-2,-5,-5,-5,-4
1558440705055646,-3,-3,-3,-3,-1,5,0,-3
1558440705055646,-2,1,0,-1,1,1,-1,1
1558440705055646,-4,-3,-1,2,-1,-4,-3,-2
1558440705055646,0,0,-1,-4,-4,-7,-5,0
1558440705069332,1,-1,0,0,1,-1,3,5
1558440705069332,-1,0,0,3,3,2,2,-5
1558440705070329,-4,-1,-2,-4,-2,-3,-3,-2
1558440705070329,0,-1,1,-2,-1,0,0,-1
1558440705084292,0,-3,-3,0,-4,-1,-4,0
1558440705084292,-3,-3,-1,1,-4,0,-4,-1
1558440705091273,2,1,0,-2,2,4,6,3
1558440705091273,-2,-4,0,0,-2,-15,-1,-1
1558440705108228,0,2,-1,1,-3,-3,-2,-3
1558440705108228,-2,-1,1,-6,1,0,0,0
1558440705114239,-3,0,-2,0,4,8,3,-2
1558440705114239,-1,-1,-2,4,-4,0,-1,0
1558440705131166,-2,-2,-2,-1,0,-3,-1,-1
1558440705131166,1,2,-2,-2,-4,-1,0,-1
1558440705132165,0,-2,0,2,-3,-3,-1,-2
1558440705132165,0,-1,-2,0,0,-1,-2,-4
1558440705144133,-1,-2,-2,-6,-1,-2,-3,-4
1558440705144133,2,-1,0,-3,-2,-4,-5,0
1558440705160090,-1,-2,-1,3,-3,-1,-1,-1
1558440705160090,-2,-3,-1,-4,-1,-2,-1,0
1558440705166074,1,-1,1,-2,-2,-5,0,0
1558440705166074,1,-2,-2,5,2,-2,2,1
1558440705174088,-2,-2,-2,-3,2,4,-3,-7
1558440705174088,-3,-1,-1,-3,-1,2,-1,-2
1558440705190009,-4,-2,0,1,-3,2,-2,-5
1558440705190009,-2,-1,-1,-1,-3,0,-4,0
1558440705190009,0,-3,0,-3,-1,-7,-4,1
1558440705190009,0,2,0,-1,2,-2,1,1
1558440705211972,-4,0,1,5,-1,-1,2,0
1558440705211972,0,-1,-2,-5,-2,-3,-1,0
1558440705219930,-1,-2,-3,-5,-3,0,-3,-4
1558440705219930,-4,-2,-3,1,-3,-6,-4,-3
1558440705234915,3,-1,1,-3,0,-3,-1,2
1558440705234915,-3,-1,0,0,2,1,-2,-5
1558440705235913,1,0,-1,1,-1,0,1,-1
1558440705235913,4,0,0,1,3,2,1,1
1558440705265807,0,-3,0,-2,-1,2,0,-2
1558440705265807,-2,-1,0,-2,1,3,3,1
1558440705266803,-2,-1,0,4,0,-2,-1,1
1558440705266803,-3,-1,-3,-6,-2,4,-3,-4
1558440705267800,0,-2,-4,-4,-2,-5,-2,-3
1558440705267800,-1,-2,0,2,-1,-3,2,3
1558440705271790,-2,0,0,-1,-2,-2,0,1
1558440705271790,-2,-3,-2,0,-1,1,0,-3
1558440705286750,-3,0,-1,3,1,5,0,-2
1558440705286750,-1,-1,-2,-3,-2,0,1,0
1558440705293732,0,-2,-2,-3,-4,-4,-3,-2
1558440705293732,-1,-1,-1,-4,-3,-5,-2,-1
1558440705317667,-1,-1,0,2,-2,-6,-5,-2
1558440705317667,1,-1,0,-1,3,5,4,1
1558440705317667,0,-1,0,0,-2,0,-2,0
1558440705317667,-2,-2,-4,1,-3,-1,-3,0
1558440705334659,-1,1,-1,-4,-1,1,-2,-2
1558440705334659,-1,-1,0,-4,-3,-4,-3,-2
1558440705334659,-1,-1,-2,1,2,0,0,0
1558440705334659,2,0,2,-1,1,-4,3,2
1558440705362574,-2,-1,-2,-3,2,3,0,-4
1558440705362574,0,-2,-1,-3,-3,-3,-2,-1
1558440705363546,-3,-3,-3,2,-2,-1,-2,-1
1558440705363546,-2,-1,1,-3,-3,0,-3,-2
1558440705386523,0,1,-2,-3,-2,-2,-1,0
1558440705386523,-3,-1,-3,0,-2,-5,-1,-2
1558440705386523,1,-1,-2,-3,-1,-6,-1,-1
1558440705386523,0,0,0,0,5,9,5,4
1558440705388517,1,-1,2,3,2,5,2,0
1558440705388517,-2,-2,-1,0,-7,-10,-10,-6
1558440705391472,0,-2,-2,-6,-5,-10,-6,-4
1558440705391472,-1,0,1,-2,0,0,0,0
1558440705407485,1,0,0,4,2,5,5,3
1558440705407485,0,-1,1,-3,-2,-1,-1,-1
1558440705414621,-3,-2,-1,0,-2,3,1,-1
1558440705414621,-2,-1,-1,2,-3,-3,-4,-2
1558440705429652,-1,-3,-1,-3,-3,-3,-3,0
1558440705429652,0,-1,-1,-4,2,1,3,0
1558440705437623,2,0,0,2,0,0,0,0
1558440705437623,0,-1,1,-3,0,-3,0,-2
1558440705444608,-1,-1,-2,-2,-1,0,-2,-1
1558440705444608,-3,-2,-4,-1,-4,-3,-5,-4
1558440705451311,-1,0,-1,1,-2,-2,0,2
1558440705451311,-3,-2,-3,-4,-3,2,-2,-6
1558440705468266,1,1,2,1,1,-9,1,1
1558440705468266,2,1,1,5,4,1,2,-1
1558440705474250,-3,-1,-2,-5,-1,5,-2,2
1558440705474250,-1,-1,0,0,-2,-3,0,0
1558440705492209,-4,-2,-3,2,-1,5,-1,-3
1558440705492209,-1,0,0,-4,-4,-11,-6,0
1558440705498214,0,0,1,-1,0,7,4,-3
1558440705498214,-1,-2,-1,-1,-5,-7,-2,-4
1558440705512477,0,-1,2,-1,-1,-4,-2,-1
1558440705512477,0,-2,-4,-2,2,6,4,3
1558440705513146,-1,-2,-1,-2,-1,-2,-3,-2
1558440705513146,0,-1,-2,-2,-2,2,-1,-2
1558440705535423,0,0,-2,-6,-3,-4,-1,3
1558440705535423,0,-4,0,-1,-1,-2,-1,-1
1558440705535423,-2,-1,-1,4,2,0,1,-4
1558440705535423,-1,0,-2,0,0,-1,-1,0
1558440705550106,-3,-1,-2,-4,0,0,-2,-3
1558440705550106,-2,-1,1,0,-2,1,-2,0
1558440705550106,0,-2,0,-2,-4,-1,-2,-1
1558440705550106,1,-2,-1,-1,6,7,4,3
1558440705566009,2,1,0,0,1,-9,0,4
1558440705566009,-2,0,-3,3,0,-2,-1,-6
1558440705572320,-1,0,-3,-6,-3,-4,-4,0
1558440705572320,1,2,4,-2,-2,-3,-3,2
1558440705588105,-1,-5,0,5,-1,1,1,-1
1558440705588105,0,1,-1,-5,2,6,3,0
1558440705603074,1,-2,-2,-2,-1,-3,0,0
1558440705603074,-3,-4,-3,0,-1,-2,-5,-6
1558440705609886,0,-2,-2,0,-2,-3,-2,-1
1558440705609886,-1,0,1,0,0,2,1,1
1558440705611184,-3,1,-2,-3,-2,0,0,-2
1558440705611184,1,-2,-1,2,-4,-6,-2,1
1558440705641099,-4,-1,2,-4,0,-2,-3,-5
1558440705641099,-2,1,-4,-3,-4,-2,-4,0
1558440705641099,-1,-1,-1,3,0,-3,1,-1
1558440705641099,0,-1,-1,-1,-1,-3,2,1
1558440705646790,-2,-3,-3,-3,-3,4,-3,-8
1558440705646790,2,0,3,-1,0,-2,-2,-1
1558440705654061,-3,0,-1,0,1,0,-2,-1
1558440705654061,-3,-2,-2,-4,-2,-4,-2,-3
1558440705670724,-1,-1,-2,-2,-1,3,-1,1
1558440705670724,1,-1,0,4,-1,-1,0,4
1558440705671721,-3,-1,0,-4,0,-1,0,-3
1558440705671721,-1,-1,0,-1,0,-2,-1,-2
1558440705693662,0,2,-1,3,-2,-1,-1,1
1558440705693662,-1,-5,-5,-2,0,3,-2,0
1558440705694659,2,1,2,-1,-1,-8,0,1
1558440705694659,1,0,-4,0,1,2,2,0
1558440705714618,-2,0,-1,-2,-1,-5,-2,-1
1558440705714618,-5,-2,-2,-4,-3,-5,-6,-3
1558440705715603,-2,-1,0,-2,0,1,2,1
1558440705715603,-3,1,0,4,-2,-1,-2,0
1558440705730026,2,-3,-2,-3,1,2,2,0
1558440705730026,-1,0,0,-2,0,-2,-1,-3
1558440705730565,1,-1,-1,3,1,2,0,0
1558440705730565,-1,0,-1,-3,-1,-1,2,2
1558440705745523,-4,-1,-1,-3,-4,1,-2,-4
1558440705745523,-2,-2,-2,0,-4,-6,-3,-2
1558440705767524,0,0,2,-1,0,1,0,0
1558440705767524,-1,-3,-3,-4,-2,-5,-2,0
1558440705769461,2,-2,-2,-3,-2,-5,-3,0
1558440705769461,-2,-2,-2,4,2,4,1,-4
1558440705774446,-2,-1,-2,-5,-3,-3,-3,-1
1558440705774446,-1,-2,-1,-1,2,3,-1,-3
1558440705790710,-2,1,2,5,0,-1,4,-1
1558440705790710,1,1,1,-3,-1,-2,2,3
1558440705796712,-2,-3,-2,-2,-1,1,0,-1
1558440705796712,2,0,0,-1,-4,-1,-1,1
1558440705813811,-3,-1,1,1,-1,0,-6,-6
1558440705813811,-4,-4,-3,-3,-3,-4,-2,-4
1558440705814340,0,0,1,-1,3,-4,0,0
1558440705814340,-3,-2,0,2,0,1,0,-3
1558440705826308,0,1,1,-1,4,6,6,5
1558440705826308,-1,-3,-1,-5,-5,-6,-3,-1
1558440705834725,0,-2,-3,4,-3,3,-1,0
1558440705834725,-1,-1,-1,-5,-3,-1,-4,-4
1558440705849569,0,-1,-2,-3,-3,-4,-3,1
1558440705849569,-2,2,2,5,6,6,3,-3
1558440705865204,-2,-2,-2,-1,1,0,0,1
1558440705865204,1,0,0,-1,1,1,2,-2
1558440705867199,-2,-2,-2,-4,-4,-5,-4,-3
1558440705867199,0,0,1,1,-1,-3,-2,-1
1558440705871488,1,1,-2,-5,-3,-2,-2,-2
1558440705871488,0,-1,0,-1,0,-2,0,0
1558440705888143,1,-1,1,4,2,0,1,-2
1558440705888143,1,0,-1,-2,2,5,4,5
1558440705894127,0,-3,1,-4,-1,0,-1,0
1558440705894127,-5,-2,-3,4,-2,-2,-3,-8
1558440705909086,-2,0,-2,-3,0,-1,1,2
1558440705909086,-2,0,0,-3,-1,-1,1,-2
1558440705917344,-2,-2,-2,0,-1,3,-2,0
1558440705917344,-1,3,0,1,0,-10,-1,4
1558440705940041,1,-2,-2,-4,-2,0,-2,1
1558440705940041,-6,-5,-2,-2,-3,2,-4,-5
1558440705941001,-2,-2,-2,4,-3,-8,-4,-4
1558440705941001,-1,-2,-2,-6,-1,2,0,0
1558440705946984,-2,-3,-2,0,2,-3,-1,-1
1558440705946984,1,0,0,2,-1,-1,1,4
1558440705953966,-2,-3,-4,-3,-3,1,-1,-2
1558440705953966,-1,-3,-3,-4,-1,2,0,0
1558440705968928,-3,0,-1,0,-2,-4,-1,-3
1558440705968928,-1,-3,-2,1,-3,1,-2,-1
1558440705994275,-2,0,-2,-2,-2,1,-2,-3
1558440705994275,-1,0,-1,-3,-2,-10,-2,0
1558440705994857,0,-1,-1,2,1,-2,-1,5
1558440705994857,-3,0,-1,-4,3,2,-3,-5
1558440705995854,1,1,2,0,2,4,3,1
1558440705995854,0,-2,0,2,-2,0,-4,-1
1558440706007340,-1,-1,1,-2,-1,2,0,-2
1558440706007340,-1,-1,-1,-2,-3,-2,0,-3
1558440706014096,-1,-3,-3,-2,-3,-5,-6,-3
1558440706014096,-3,0,0,1,0,0,0,0
1558440706029964,2,0,0,-3,3,0,2,3
1558440706029964,1,1,-1,-2,-4,-2,2,1
1558440706037069,2,-1,-2,3,-2,-1,-1,-3
1558440706037069,-1,-1,3,-5,-2,1,-5,-2
1558440706052986,-4,-3,-6,-2,-2,2,-3,1
1558440706052986,0,0,0,2,2,-5,1,2
1558440706052986,-2,-1,-1,-1,-1,0,0,0
1558440706052986,0,-2,-2,-1,0,1,0,1
1558440706066665,-2,-1,1,0,-1,4,2,-5
1558440706066665,2,1,0,0,2,6,0,0
1558440706073943,1,-1,0,-4,-3,-8,-4,2
1558440706073943,-4,-4,-3,-2,-4,-3,-6,-7
1558440706088607,-1,0,1,2,1,0,0,-2
1558440706088607,0,0,0,-4,-1,-1,3,7
1558440706096927,-1,-1,-3,-2,0,-3,-1,-1
1558440706096927,-2,1,0,1,0,3,-2,-8
1558440706113673,-3,-1,-3,-4,-6,-5,-5,-3
1558440706113673,-2,-1,-2,-3,-4,-3,-3,-4
1558440706114583,1,-2,-1,2,3,1,2,4
1558440706114583,-1,-1,0,1,-2,-5,-3,0
1558440706126506,0,-1,-2,-4,-2,-1,0,0
1558440706126506,0,-2,-2,1,1,-1,2,1
1558440706134591,0,0,2,3,-1,-4,-1,0
1558440706134591,-1,-1,-3,-6,-1,0,-1,1
1558440706149849,-2,0,-1,-2,-1,-2,-3,-2
1558440706149849,-1,-1,-2,2,-4,-1,-3,-3
1558440706156425,-2,0,-3,-4,-2,-1,0,-2
1558440706156425,3,0,1,-1,2,1,3,1
1558440706172764,0,-2,-6,-2,0,4,2,4
1558440706172764,-6,-3,-1,0,-2,-4,-6,-10
1558440706173420,0,1,1,-2,-1,-5,0,-2
1558440706173420,1,1,-1,-1,1,-1,2,0
1558440706188906,-2,-2,-2,3,-6,-2,-2,2
1558440706188906,2,-2,-1,-4,-1,-6,-5,2
1558440706194289,-3,-3,0,-3,3,6,0,-4
1558440706194289,1,0,-1,3,-2,-2,-2,-2
1558440706208811,1,1,5,-1,6,2,6,0
1558440706208811,0,-2,-3,-3,-4,-5,-4,0
1558440706217180,-1,-2,-2,0,-3,-1,-3,-1
1558440706217180,-3,-2,-1,1,-1,1,0,3
1558440706233117,-1,-3,-1,-2,-3,1,-1,-3
1558440706233117,0,-1,-2,-1,0,2,0,-1
1558440706233117,-1,-3,-2,0,-5,-3,-3,-2
1558440706233117,1,0,-1,-2,1,-3,2,2
1558440706247018,-1,0,0,-1,2,2,-1,-2
1558440706247018,0,0,1,3,1,3,4,0
1558440706253994,0,0,-1,-3,-2,-5,-3,0
1558440706253994,-1,-1,-2,-2,0,5,4,2
1558440706277940,-1,-2,-1,0,-2,-6,-3,-2
1558440706277940,-1,0,0,0,-2,-1,-2,-3
1558440706277940,-3,-2,-3,-3,-3,-3,-2,-1
1558440706277940,-1,0,0,0,4,6,2,1
1558440706292586,1,-1,0,1,-2,-4,-3,0
1558440706292586,-4,-2,0,-5,1,-2,-2,-1
1558440706292586,-1,0,1,0,4,4,4,3
1558440706292586,-1,-2,-3,2,-4,-2,-2,0
1558440706306606,-5,-2,-5,-3,-2,-1,-4,-5
1558440706306606,-1,-2,-3,-3,-3,0,-2,-1
1558440706314528,1,1,2,1,2,2,3,-1
1558440706314528,-2,-2,-1,0,-1,0,0,1
1558440706329837,0,-2,-2,-2,-2,-6,-2,-2
1558440706329837,-2,-1,-1,-1,-2,-4,-2,-2
1558440706336811,-3,-3,-1,1,-2,-2,0,-2
1558440706336811,-2,-2,1,-4,0,3,0,-1
1558440706352762,-2,-2,-1,-2,-3,-8,-2,0
1558440706352762,0,0,0,3,-1,1,1,1
1558440706353424,0,-2,-1,-3,1,-1,-2,2
1558440706353424,-5,-2,-4,0,1,5,0,-7
1558440706366746,1,2,6,2,1,2,1,0
1558440706366746,-2,0,1,0,0,-3,-2,-4
1558440706374406,-1,-2,-5,-4,-5,1,-1,-3
1558440706374406,3,1,-3,-3,-6,-15,-4,0
1558440706390660,0,1,-1,3,3,6,2,-1
1558440706390660,2,-2,-1,-3,-1,1,-2,6
1558440706397398,-2,-1,-2,-1,-3,1,-2,-7
1558440706397398,-4,-2,-1,2,-1,2,-5,-5
1558440706412268,1,1,1,-3,-2,-7,0,2
1558440706412268,-1,0,-3,-3,0,2,2,0
1558440706413264,-2,-2,-1,1,0,1,0,0
1558440706413264,-1,-1,-2,-1,-2,-3,-3,1
1558440706427448,-1,-1,-1,-2,-1,-2,-2,0
1558440706427448,0,0,0,0,-1,1,1,1
1558440706434486,-2,1,-1,3,-1,-4,-1,-1
1558440706434486,1,0,-1,-3,2,1,2,-2
1558440706449233,-1,-3,-3,-3,-2,4,-1,-2
1558440706449233,0,0,-2,2,-4,-4,-2,1
1558440706457446,-3,-1,0,-5,-3,-4,-3,-2
1558440706457446,-1,0,2,-2,1,2,0,3
1558440706472106,-3,-3,-5,1,-6,-7,-6,-3
1558440706472106,-1,0,0,0,1,1,0,0
1558440706473103,2,1,0,1,4,1,5,2
1558440706473103,-1,-1,-5,-5,-5,1,-3,-3
1558440706495044,-1,-1,-3,0,-3,-2,0,0
1558440706495044,-2,-1,-2,-5,0,-3,-1,-3
1558440706495044,-2,-2,-2,-2,0,0,1,1
1558440706495044,-1,-2,2,5,0,0,0,0
1558440706509007,2,-2,-2,-3,2,7,3,1
1558440706509007,-2,1,-1,-1,-3,-6,0,-1
1558440706517014,-1,-1,1,4,-1,1,-1,-2
1558440706517014,1,-1,-2,-2,2,4,3,-1
1558440706533112,-4,-4,-1,-4,-5,-3,-3,-3
1558440706533112,2,-1,0,0,-2,-4,0,2
1558440706533112,0,-1,-2,1,-3,-3,0,2
1558440706533112,-2,-1,-2,-4,1,-1,-3,-8
1558440706547270,-2,0,0,-2,-1,-2,-5,-5
1558440706547270,0,-2,-3,0,-2,-1,-3,0
1558440706554914,-1,0,1,-4,1,0,-1,1
1558440706554914,-1,-2,0,-1,-2,-5,2,-1
1558440706568846,2,-1,1,3,0,3,2,-1
1558440706568846,0,-2,-2,-3,-1,0,-1,-2
1558440706576860,0,-1,-5,-4,-2,2,-5,1
1558440706576860,-5,-1,0,4,-2,-7,-1,-2
1558440706593958,-5,0,0,2,1,2,-1,1
1558440706593958,-1,-1,-1,-4,5,5,2,2
1558440706594815,2,-1,0,-2,-1,-3,-1,-3
1558440706594815,1,-4,-1,2,-2,-1,-3,3
1558440706607212,-3,-3,-3,-3,-3,-2,-2,-6
1558440706607212,1,-1,1,0,2,2,1,0
1558440706614175,0,0,0,4,3,4,2,-3
1558440706614175,-3,-1,-1,-3,-3,1,-1,0
1558440706630096,-2,-1,-3,-3,-1,1,-2,1
1558440706630096,0,-1,-2,1,-6,-3,-2,2
1558440706637126,-3,1,-2,0,-2,-2,-4,-9
1558440706637126,1,-2,-1,-2,-4,-3,-3,1
1558440706652974,0,-1,-1,-1,-1,-1,-1,-2
1558440706652974,-6,-3,-1,1,-4,-3,-7,-5
1558440706652974,-1,-3,-3,-5,-3,-1,-4,0
1558440706652974,2,2,1,1,4,4,7,3
1558440706666703,2,1,1,3,3,0,6,4
1558440706666703,-2,0,0,-1,2,0,1,-4
1558440706673567,-1,1,0,-4,-4,-4,-2,2
1558440706673567,-1,-2,-3,-4,-3,-4,-4,-3
1558440706697879,0,-1,-2,2,1,0,-3,1
1558440706697879,1,-1,-2,-3,-2,-1,-1,-1
1558440706697879,-1,-2,-2,-1,-2,0,-5,-4
1558440706697879,-1,1,3,3,0,-6,-1,3
1558440706711801,-2,-1,0,-5,-2,1,-1,-3
1558440706711801,-1,-2,-4,-3,-3,-7,-1,0
1558440706720501,1,-2,-1,3,2,5,5,2
1558440706720501,-1,0,-3,-4,1,3,0,-2
1558440706726425,-1,0,1,-2,-2,5,2,-2
1558440706726425,0,-1,0,1,-1,-1,-2,0
1558440706734781,0,0,1,-1,-1,-3,-1,3
1558440706734781,1,2,0,-2,0,-2,0,2
1558440706749365,-1,0,-1,-1,-2,-3,-2,-1
1558440706749365,-2,-2,-1,2,-2,1,1,-4
1558440706773768,1,-3,-2,-4,-4,-8,0,0
1558440706773768,-3,-4,-4,-2,-2,-6,-8,-4
1558440706774298,0,1,0,3,3,9,6,-1
1558440706774298,-1,0,1,-1,5,0,2,1
1558440706779747,-2,-1,-2,-3,0,-3,0,-2
1558440706779747,-2,-4,-2,0,-5,-1,-6,-6
1558440706787494,1,-2,-3,-3,-3,-8,-3,3
1558440706787494,-1,-1,-1,-2,-3,1,0,0
1558440706794680,-2,0,1,0,2,4,-1,-1
1558440706794680,0,0,0,4,-5,-4,-3,-1
1558440706809220,2,-2,-1,-4,5,-1,3,7
1558440706809220,-3,-1,-3,-4,0,4,0,-5
1558440706817404,-1,-2,-1,5,-1,1,-1,-3
1558440706817404,-2,0,-1,-2,3,2,3,-1
1558440706840442,-1,-3,-3,-2,-4,-3,-4,-3
1558440706840442,0,2,0,2,-1,-5,-1,0
1558440706841124,-3,-3,-1,-3,-3,-2,-4,0
1558440706841124,-2,0,-3,-4,-2,-4,0,-1
1558440706847418,-3,-1,-2,-1,1,0,0,-2
1558440706847418,4,1,3,3,3,2,2,6
1558440706854404,-2,-1,-2,-3,-2,-5,-4,-7
1558440706854404,0,-1,-2,-3,-4,-2,-4,-1
1558440706870070,-1,-1,0,2,1,2,2,-3
1558440706870070,-3,-2,-1,-4,-3,-1,0,2
1558440706877024,2,0,-1,-1,-1,0,3,3
1558440706877024,-1,-1,-1,2,2,6,1,-2
1558440706891982,-1,-3,-2,0,-5,-1,-5,-2
1558440706891982,-3,-3,-1,-3,-4,-4,-2,-3
1558440706899961,3,3,1,3,2,0,4,4
1558440706899961,1,-2,0,-1,4,1,-1,1
1558440706915030,-3,-3,-4,-4,-1,4,0,-2
1558440706915030,2,-1,1,-3,-2,-2,-2,4
1558440706916017,-6,-2,-2,2,-4,1,-5,-9
1558440706916017,0,0,-3,-3,-4,-4,-2,0
1558440706929236,0,-1,1,2,2,-4,1,-1
1558440706929236,0,-1,0,3,2,-2,0,1
1558440706945177,-2,-2,-1,-3,1,2,2,4
1558440706945177,-3,-1,0,-3,-3,0,-2,-2
1558440706952196,0,0,-2,-4,-5,-3,-3,1
1558440706952196,-4,-4,-4,1,-7,-7,-5,-11
1558440706967979,-1,-4,0,-4,0,-2,-2,-2
1558440706967979,-1,-1,-3,-2,-3,-2,-1,-1
1558440706974762,-1,0,0,4,-1,-5,-1,0
1558440706974762,0,2,-3,-5,2,5,3,-3
1558440706975759,0,1,2,0,1,3,0,-1
1558440706975759,-1,-1,1,2,-2,2,3,2
1558440706997699,-2,-3,-2,-3,-5,-7,-8,-5
1558440706997699,-2,-2,0,-1,-2,-5,-3,2
1558440706997699,-1,0,-4,-2,2,0,0,-1
1558440706997699,1,1,2,2,-2,-1,1,-2
1558440707011663,2,2,-1,-2,1,-3,2,3
1558440707011663,-2,-3,-4,-2,-2,2,0,-4
1558440707019643,-4,-4,-2,3,-2,-4,-3,-9
1558440707019643,-1,0,1,-2,4,5,3,0
1558440707034599,-5,0,-2,-3,-2,2,-4,-6
1558440707034599,0,-2,-3,3,-2,0,-4,-2
1558440707035597,-1,-2,-1,-3,-5,-9,-3,4
1558440707035597,2,-2,-1,-3,-1,-9,1,0
1558440707050557,-1,-1,1,-1,3,3,1,0
1558440707050557,1,0,0,1,0,-3,-1,3
1558440707056542,-2,1,0,-2,-3,0,-1,1
1558440707056542,-4,-1,-8,-3,-4,-2,-4,-3
1558440707071502,-2,-3,-1,0,-4,0,-1,0
1558440707071502,-1,0,2,-2,-1,-9,-2,-2
1558440707079484,0,1,1,1,4,7,3,-1
1558440707079484,0,-2,-1,2,-1,-3,2,1
1558440707095440,-1,-3,-5,-4,0,0,0,0
1558440707095440,-3,-3,-4,-3,-5,0,-3,-8
1558440707102717,0,0,-1,-2,-1,-1,-2,3
1558440707102717,2,0,1,3,3,2,3,3
1558440707117379,0,0,0,-3,-1,-4,-3,-1
1558440707117379,-1,1,-2,-2,2,3,3,4
1558440707117379,-4,-2,-1,2,-1,-6,-5,-8
1558440707117379,-2,-3,-2,-3,-2,1,-2,-3
1558440707131690,-2,-1,-1,-3,-5,-4,-5,-3
1558440707131690,0,-1,-1,2,1,3,1,1
1558440707139666,2,0,-2,-1,3,8,3,5
1558440707139666,-6,-1,0,-2,1,4,-5,-9
1558440707154693,-1,-1,-1,0,-1,-1,3,-2
1558440707154693,-1,-2,-2,-1,-3,-8,-6,-2
1558440707155623,2,-2,-3,-5,-4,-6,-3,-1
1558440707155623,3,1,0,-2,0,0,3,3
1558440707170583,-1,0,1,4,1,3,-2,0
1558440707170583,-2,-1,-1,-4,0,2,0,-1
1558440707176568,-3,-2,-3,-2,-4,-5,-2,-1
1558440707176568,0,0,0,1,0,4,2,1
1558440707191528,-4,-3,-3,-3,-6,-8,-3,-2
1558440707191528,0,0,1,-1,4,5,2,3
1558440707199506,2,0,0,1,-1,1,1,1
1558440707199506,-5,-2,-1,-1,-3,-4,-7,-3
1558440707214548,-3,-3,-1,-3,0,0,-2,-2
1558440707214548,0,-3,-2,-3,-4,-3,-2,-4
1558440707215464,1,-2,-1,0,-5,-1,-1,6
1558440707215464,-3,-3,-2,-4,-1,3,-4,-8
1558440707230423,2,2,0,0,6,0,5,3
1558440707230423,0,2,1,3,1,-2,3,-4
1558440707236469,-2,-3,-2,-4,-1,-2,-3,-3
1558440707236469,-1,-2,-3,-4,-4,-3,-3,1
1558440707260344,-3,-2,0,1,-4,-2,-7,-4
1558440707260344,-3,-2,-1,0,-2,1,-3,0
1558440707261341,-1,-2,-3,-4,-2,0,-1,-2
1558440707261341,1,1,0,-1,2,-9,2,4
1558440707274309,1,-1,1,1,-1,1,-1,-1
1558440707274309,-1,-1,-1,-3,0,2,-1,-2
1558440707275306,-1,-2,0,0,0,1,1,-1
1558440707275306,0,-2,0,0,-2,3,-3,-1
1558440707289511,-1,-1,-2,-3,-1,0,2,-2
1558440707289511,0,-1,-1,-2,1,-2,-1,2
1558440707297097,0,0,1,-1,-3,-7,-1,-4
1558440707297097,-2,-1,-1,1,1,2,1,5
1558440707311064,-2,-3,-2,-4,-2,-2,-3,-5
1558440707311064,-2,-2,-3,-3,-4,6,-3,-6
1558440707320038,-1,0,-1,2,1,-3,-2,2
1558440707320038,-1,0,3,-2,0,-1,4,1
1558440707334999,-2,-2,0,-2,-2,-3,-2,0
1558440707334999,-1,-3,-5,1,0,1,2,0
1558440707334999,-2,-1,1,-4,-3,-7,-1,-1
1558440707334999,-2,-2,-2,-4,-1,-5,-4,-3
1558440707349096,-1,0,-1,3,-1,1,-4,3
1558440707349096,1,1,2,3,-1,0,0,-1
1558440707356942,-1,-1,-2,-1,-1,-3,-1,-2
1558440707356942,0,0,0,0,1,3,3,3
1558440707372898,-1,2,-1,1,-3,-5,-2,1
1558440707372898,0,-1,-3,-2,-1,-2,0,-2
1558440707379878,-3,1,1,-1,1,2,-1,-3
1558440707379878,2,-1,0,3,-2,-5,-1,-1
1558440707394933,1,0,2,-1,2,2,1,-1
1558440707394933,-2,-1,-4,-5,-1,3,0,2
1558440707395838,-2,-2,-2,-1,-1,-2,-1,-3
1558440707395838,1,1,2,1,2,3,2,-1
1558440707410824,0,-2,-2,-5,-2,-10,-5,-1
1558440707410824,-2,-3,-1,-1,-2,0,-3,-1
1558440707416781,-4,-1,-2,3,0,2,-1,-5
1558440707416781,-1,0,-2,-5,-2,-6,-1,1
1558440707431741,2,0,-1,-1,0,-1,1,-2
1558440707431741,-1,-2,2,5,0,-2,-1,0
1558440707447698,-1,-2,-3,-5,-6,0,-3,1
1558440707447698,-4,-2,-3,-2,-2,0,0,-2
1558440707454777,0,2,-1,3,5,9,7,3
1558440707454777,-2,-1,1,-1,-3,-6,-5,-2
1558440707455681,2,0,-1,0,-2,1,0,1
1558440707455681,-1,-1,-2,1,1,-1,-1,-3
1558440707468732,0,-1,-3,0,-4,-5,-2,-3
1558440707468732,0,3,0,-1,5,6,5,1
1558440707476669,-1,-1,-1,-1,-2,0,-4,-2
1558440707476669,-2,-3,-1,1,-5,-6,-3,-1
1558440707500557,-1,-2,-1,-2,1,7,1,5
1558440707500557,-2,-2,0,-1,-2,-4,-2,-9
1558440707500557,-2,-1,-2,3,6,0,2,1
1558440707500557,1,0,-2,-2,0,1,-2,0
1558440707522499,0,-1,-1,-2,-2,-4,-5,-1
1558440707522499,0,-1,-2,-2,-2,-1,0,5
1558440707523494,-2,-1,0,2,-1,-3,-2,-5
1558440707523494,0,-3,-1,-4,-5,-5,-3,-1
1558440707529478,1,0,1,0,4,7,6,-3
1558440707529478,-3,-3,-2,1,-2,1,-3,-3
1558440707536461,-1,-3,-2,-4,-1,5,2,-2
1558440707536461,-1,-1,-3,-2,-1,-4,-5,-3
1558440707551590,-3,-2,-1,1,-1,-1,-2,-4
1558440707551590,0,0,0,-2,0,-3,1,1
1558440707559401,-1,1,-1,-2,0,-1,1,4
1558440707559401,-2,-1,-2,-1,0,2,-1,-4
1558440707574359,-3,-2,-3,0,-2,-1,-1,-2
1558440707574359,-2,-3,-3,-3,-7,-9,-4,1
1558440707575362,-2,-3,-3,0,-1,-4,-2,1
1558440707575362,1,1,1,4,3,7,2,-5
1558440707589328,2,0,1,-3,1,2,2,2
1558440707589328,0,-3,0,-2,-1,-1,-5,1
1558440707596469,0,-3,0,1,-6,-10,-5,-3
1558440707596469,-1,-2,-3,-3,-3,-4,-2,0
1558440707611259,0,0,0,-2,4,4,3,-4
1558440707611259,2,0,1,0,-2,-7,-2,0
1558440707627220,0,1,-1,-1,-3,-1,2,-1
1558440707627220,0,0,1,-3,-1,2,0,-1
1558440707634200,-4,-2,-3,-2,-3,-4,-5,-2
1558440707634200,-3,-1,-3,0,-4,-1,-6,-5
1558440707642180,-1,0,2,-2,3,2,-1,0
1558440707642180,-1,-2,-2,-1,4,5,0,0
1558440707649160,0,-1,0,1,-4,1,-2,1
1558440707649160,1,2,1,-2,1,-6,1,1
1558440707656230,-1,-3,-2,-5,-6,-6,-5,-3
1558440707656230,2,-1,-1,-2,-3,-2,3,7
1558440707671190,-2,0,1,4,4,5,1,-7
1558440707671190,0,0,0,-2,1,-4,4,-1
1558440707679114,0,1,0,0,2,6,3,-1
1558440707679114,-1,1,1,2,-6,-10,-6,-1
1558440707694039,-2,-4,-4,-7,-5,-1,-3,0
1558440707694039,-3,-2,-3,0,0,4,-2,-7
1558440707702018,-2,1,-1,4,0,-1,2,3
1558440707702018,0,2,-1,-1,1,3,2,3
1558440707709000,-1,-1,-1,-1,-2,-2,-1,-1
1558440707709000,0,-3,-3,-1,-4,-3,-3,0
1558440707724958,-2,-3,-1,-3,-5,-1,-5,-4
1558440707724958,-2,-4,-1,-2,1,1,-3,-4
1558440707731938,-2,-1,-2,-2,0,-6,-1,-1
1558440707731938,-1,-1,2,0,1,1,2,-2
1558440707738919,-1,-1,-1,-5,-1,-3,-1,4
1558440707738919,-3,-2,-2,-2,-2,-5,-2,-4
1558440707754144,1,-1,0,3,1,1,1,2
1558440707754144,-2,-2,-1,-4,0,2,-2,-1
1558440707762018,-2,2,-3,-3,0,-1,0,0
1558440707762018,-3,1,-2,0,-1,2,-1,-4
1558440707776978,0,-1,-3,0,-6,-8,-4,2
1558440707776978,-4,-2,-1,0,2,3,1,-7
1558440707777975,3,1,2,-1,5,2,6,2
1558440707777975,-1,-1,-1,0,-5,-7,-4,-4
1558440707799918,2,1,0,-3,-2,2,1,-1
1558440707799918,0,-1,-4,-5,-5,-2,-2,3
1558440707799918,-2,-2,-2,2,0,-1,-3,-4
1558440707799918,-4,-1,1,-3,1,3,0,0
1558440707813894,-4,-2,-2,-3,-3,0,-3,-3
1558440707813894,2,0,-1,1,1,2,2,3
1558440707830834,0,0,0,2,2,0,0,-2
1558440707830834,0,-1,-1,-3,-1,-1,2,-1
1558440707831837,1,-2,-2,-5,-2,-7,-2,-3
1558440707831837,-1,-2,-1,3,-2,-2,-3,-2
1558440707836818,0,-2,0,-4,2,-1,-1,-3
1558440707836818,-1,2,-1,-1,-1,6,-2,-1
1558440707852778,-4,-2,-3,2,-5,-6,-7,-2
1558440707852778,1,0,0,-1,3,-1,2,1
1558440707858769,1,0,0,-1,0,-1,-1,1
1558440707858769,-2,-5,-4,1,-4,-2,0,2
1558440707873720,-2,0,-2,2,4,5,2,-1
1558440707873720,1,2,0,-5,-4,-3,0,4
1558440707882711,-8,-3,-3,-3,-3,-4,-5,-12
1558440707882711,2,0,2,2,3,0,1,0
1558440707897653,-1,-3,-2,-5,-3,-1,-3,-1
1558440707897653,-1,-2,-1,-1,0,6,2,-1
1558440707897653,0,0,0,3,-1,-6,0,4
1558440707897653,-3,-1,-4,-4,-1,-5,-3,-1
1558440707911783,-1,-1,-1,-3,-2,-3,0,-2
1558440707911783,0,-1,1,1,-3,-3,-2,-4
1558440707918765,0,-2,-4,-1,-2,5,-2,0
1558440707918765,-2,0,1,-4,-5,-5,-3,-1
1558440707933558,0,0,2,1,4,6,4,2
1558440707933558,-2,0,-1,2,0,0,-2,-1
1558440707942538,2,-2,-1,-3,1,5,4,0
1558440707942538,-1,-3,-1,-2,-2,-5,-2,-4
1558440707957494,0,-2,1,3,-5,-4,-2,0
1558440707957494,-3,-1,-2,-4,0,3,-1,-1
1558440707957494,-4,-1,-3,-1,-3,-3,-1,-2
1558440707957494,-1,-2,-4,2,-2,-5,-1,-2
1558440707973757,0,0,0,-1,0,0,0,0
1558440707973757,2,1,0,-2,1,-3,-1,4
1558440707979438,-2,-1,0,-2,-3,-4,-3,-10
1558440707979438,-3,-1,1,2,-1,4,0,-1
1558440708002383,-3,-1,-1,-1,3,3,2,-3
1558440708002383,1,-1,1,-1,-1,1,2,3
1558440708003371,2,-2,-1,2,-4,-6,-6,3
1558440708003371,-1,-1,-1,-3,-3,-1,-2,-4
1558440708017346,2,-1,-2,-1,1,-5,-4,-3
1558440708017346,-3,-2,0,-1,-3,-2,-2,-3
1558440708018333,-2,-2,0,-1,3,5,2,3
1558440708018333,-3,0,1,-1,0,-8,0,-1
1558440708031298,0,1,2,0,-1,-3,-2,0
1558440708031298,-3,0,-1,3,0,1,0,-3
1558440708039276,0,0,1,-4,-3,3,-3,2
1558440708039276,0,-1,-2,-1,1,4,1,0
1558440708054237,-2,-2,-2,1,-2,-3,-1,-1
1558440708054237,-2,-3,-3,-3,-1,-1,-3,-4
1558440708062215,0,-2,-1,0,1,4,1,-3
1558440708062215,2,0,-2,2,-2,-3,2,-1
1558440708077174,2,1,0,-3,-5,-2,-3,4
1558440708077174,-7,-3,-2,-2,1,-2,-3,-14
1558440708078171,0,0,-1,0,0,-6,1,2
1558440708078171,3,0,1,2,2,1,-1,2
1558440708092138,0,0,-1,-2,0,2,-1,1
1558440708092138,0,0,0,-2,-4,-5,-1,3
1558440708099117,-2,-1,-3,2,-4,-4,-4,-2
1558440708099117,-3,-1,1,-5,-3,-1,0,-1
1558440708114075,-1,-3,-2,0,4,5,7,0
1558440708114075,0,-1,-1,3,2,2,1,2
1558440708130033,-4,-2,1,-1,-1,-2,-3,-2
1558440708130033,0,-4,-5,-5,-4,-2,-4,1
1558440708137014,-2,-1,0,-1,-5,-5,-5,-3
1558440708137014,-1,-2,-4,0,-2,-4,-2,-2
1558440708138011,3,0,-1,-2,1,2,3,1
1558440708138011,-3,0,-2,-3,-1,2,-4,-1
1558440708151989,-1,2,0,2,-2,-3,-2,-3
1558440708151989,1,-2,-1,-4,-1,-4,0,6
1558440708158956,-3,-1,-1,-1,-1,2,-1,-4
1558440708158956,-1,-2,-3,3,-4,-5,-5,-6
1558440708173915,-2,-3,-5,-3,-1,-1,1,0
1558440708173915,0,0,2,0,3,6,2,1
1558440708181910,1,-1,-2,0,-4,-4,-1,0
1558440708181910,-3,-1,0,2,1,-3,4,1
1558440708205829,1,0,0,-3,0,1,-3,-4
1558440708205829,0,0,-3,-4,-7,-2,-5,-1
1558440708205829,-2,-1,-2,1,-3,-1,-3,-2
1558440708205829,3,0,1,-4,4,4,4,1
1558440708211834,0,-3,-1,-3,-2,-5,-5,-4
1558440708211834,0,-1,0,4,1,-5,3,2
1558440708226774,-2,-2,0,-2,0,4,-3,-1
1558440708226774,-4,-1,-4,-4,-6,-3,-4,-3
1558440708233755,-1,-1,-2,1,1,1,3,1
1558440708233755,1,0,1,0,2,-2,-2,2
1558440708241741,-1,-3,-1,-1,1,-1,0,-1
1558440708241741,3,0,1,0,0,0,3,4
1558440708257696,-1,-2,-1,4,-1,-1,-1,-3
1558440708257696,0,-1,-1,-3,-1,3,0,-4
1558440708257696,1,1,-2,-3,-4,-2,-1,-1
1558440708257696,0,-1,0,3,4,-1,3,2
1558440708279636,-1,-1,0,-4,1,2,1,0
1558440708279636,-1,-1,-1,-3,-5,-5,-5,1
1558440708280631,1,0,-1,0,-2,2,1,1
1558440708280631,-3,-1,-1,-2,-3,-3,-5,-7
1558440708293597,-2,0,-1,-2,3,5,4,0
1558440708293597,-1,-2,-4,0,0,-2,1,-3
1558440708302582,-1,0,0,1,1,-4,-2,-1
1558440708302582,-2,-2,-1,-5,-4,-1,-3,0
1558440708317532,2,0,0,1,-1,-5,-1,1
1558440708317532,-1,1,0,2,-2,3,0,-1
1558440708317532,-1,1,0,-4,-3,-7,0,2
1558440708317532,0,-2,0,0,1,8,4,0
1558440708331494,-1,-1,0,1,1,0,0,-1
1558440708331494,-2,-2,-2,0,-1,1,-3,-6
1558440708338487,2,0,-1,-1,0,-4,3,1
1558440708338487,1,0,0,1,2,5,-1,-4
1558440708354437,-3,-2,1,1,-5,-5,-1,5
1558440708354437,-1,-2,1,-4,-3,-3,-1,-2
1558440708362411,-3,-3,-1,-3,-2,1,-3,-4
1558440708362411,0,0,-1,3,-4,-5,-1,-1
1558440708377371,1,-1,-2,-2,0,2,-4,-1
1558440708377371,0,-2,-1,0,1,4,3,2
1558440708378371,-4,-1,-1,1,0,1,1,-7
1558440708378371,-1,-1,0,-1,-2,-3,-3,-1
1558440708391338,-2,1,-1,-3,-3,-5,-2,1
1558440708391338,-1,-1,-4,-2,-1,0,0,0
1558440708399312,-1,-2,-2,3,3,6,-1,1
1558440708399312,-3,-3,-2,-6,0,-1,-1,-2
1558440708414273,0,-2,-3,-4,-3,-5,-1,-2
1558440708414273,-3,-1,-1,2,-3,-2,-5,-5
1558440708422258,0,-1,0,-2,2,1,3,1
1558440708422258,-1,-1,-2,-2,-1,-1,-2,-3
1558440708437211,-1,-1,-1,0,-2,1,-3,-1
1558440708437211,-1,1,1,-1,3,-3,3,5
1558440708438213,0,-2,-2,-2,0,3,-1,-1
1558440708438213,1,-1,-1,-2,-3,-6,-1,0
1558440708459157,-2,-3,-1,1,-3,-2,-3,-1
1558440708459157,-1,-1,-3,-3,-2,-1,-2,-3
1558440708460153,-2,-1,-1,-2,0,-2,-2,-5
1558440708460153,0,-2,-3,3,-3,-2,-2,2
1558440708474114,0,0,-2,-3,-3,0,0,-2
1558440708474114,-1,1,0,-1,2,-1,1,3
1558440708482104,1,-2,0,2,1,3,3,2
1558440708482104,-3,-3,-2,-2,-2,-1,-2,0
