timestamp,emg1,emg2,emg3,emg4,emg5,emg6,emg7,emg8
1558440674533012,0,0,-2,20,-3,-3,-3,0
1558440674533012,-2,-2,1,0,-5,-3,-3,-1
1558440674535007,-1,-2,-2,-16,-1,-1,-2,-2
1558440674535007,0,-3,-3,8,-1,-1,-1,-1
1558440674536004,0,4,7,3,1,-2,-4,-1
1558440674536004,1,2,-2,-9,0,1,1,2
1558440674537001,-2,-3,-2,-1,-5,-1,-2,-5
1558440674537001,0,-3,0,10,-1,-2,0,1
1558440674545977,-2,0,-1,-11,-1,2,0,-1
1558440674545977,5,2,-3,-11,-2,-2,1,3
1558440674561934,0,1,-1,15,0,0,-2,-2
1558440674561934,-5,-7,-1,-4,-1,0,0,-5
1558440674562932,-2,1,-1,-10,5,5,4,-3
1558440674562932,1,1,2,10,0,-5,-2,-2
1558440674583876,-4,-1,-1,0,-4,-5,-4,1
1558440674583876,3,0,-2,-11,-1,-1,1,6
1558440674585870,1,1,0,-1,-1,2,1,-4
1558440674585870,-1,2,-3,7,0,4,0,0
1558440674591855,-3,-8,2,-1,1,0,2,1
1558440674591855,-1,-1,-1,-7,-3,4,-1,-3
1558440674606814,-1,1,-1,3,-8,-11,-5,2
1558440674606814,-3,-1,-1,1,2,2,3,-4
1558440674613795,-4,-4,-3,-5,2,-7,-6,-7
1558440674613795,-1,3,1,4,4,7,4,1
1558440674629763,-2,-7,-2,-3,-3,-3,-4,0
1558440674629763,-2,1,1,-4,-4,-1,-4,-1
1558440674636734,-3,1,-2,1,-4,-2,-4,-10
1558440674636734,14,10,0,-1,1,-3,0,12
1558440674660670,-13,-17,-4,-4,0,-2,-4,-3
1558440674660670,-6,-5,-5,-2,-2,1,-3,-12
1558440674661667,4,6,5,4,1,3,4,5
1558440674661667,-6,-2,-5,-4,-5,-7,-7,-5
1558440674666655,1,3,0,-3,0,0,-1,-3
1558440674666655,4,-1,-1,1,-1,-1,-3,3
1558440674714526,8,2,0,-14,1,2,1,-7
1558440674714526,-14,-2,-5,-7,0,-2,-3,-10
1558440674714526,-2,0,0,14,-4,-5,-6,2
1558440674714526,5,3,0,-6,5,5,7,5
1558440674719513,1,0,0,-13,-1,-3,1,2
1558440674719513,0,-1,1,16,-1,-2,-1,-1
1558440674720510,5,-1,0,-6,1,0,-1,-1
1558440674720510,-9,-5,-4,-11,-2,-1,2,-9
1558440674721508,4,-3,-3,8,-5,-3,-5,1
1558440674721508,2,1,2,3,-2,2,0,-1
1558440674725497,3,6,3,-8,7,2,9,2
1558440674725497,-5,-10,-6,1,3,-3,-2,-1
1558440674740458,-6,0,2,12,0,2,-1,0
1558440674740458,3,0,0,-10,-4,1,-2,3
1558440674755417,2,0,-3,-10,-3,-1,-4,-3
1558440674755417,0,0,3,12,0,0,1,0
1558440674756414,-2,-1,-1,-1,2,-1,-1,-2
1558440674756414,0,-2,-2,-8,-2,-4,-2,6
1558440674770376,-1,2,-2,4,-3,-4,-2,0
1558440674770376,3,-2,1,0,-2,4,0,3
1558440674794312,-2,0,-5,-5,-3,-3,-5,-15
1558440674794312,-17,-2,0,0,4,4,4,7
1558440674795311,-9,-2,-2,2,0,-4,-1,1
1558440674795311,-2,4,0,-5,-3,-1,1,-3
1558440674800296,-9,-6,-4,-2,-3,-3,-2,2
1558440674800296,3,1,-2,2,0,1,-4,3
1558440674807278,-3,-5,-7,-6,-6,-3,-6,-8
1558440674807278,0,-1,3,-1,1,-7,-3,-1
1558440674815258,-4,-2,1,3,3,-1,5,1
1558440674815258,3,3,1,-1,-1,0,-5,-6
1558440674830217,-5,-5,-1,-5,0,2,1,-1
1558440674830217,4,4,-1,0,1,8,2,2
1558440674838196,4,4,2,2,0,0,3,6
1558440674838196,-6,-3,-2,0,-3,-2,1,-5
1558440674845187,1,-5,-2,-3,-2,-6,-6,-4
1558440674845187,-4,1,-1,-1,-6,-7,-3,-4
1558440674861134,-5,-8,-4,-3,-3,0,-3,-5
1558440674861134,4,4,0,-1,4,-1,4,-1
1558440674868115,-2,0,1,2,0,-3,-3,-7
1558440674868115,0,-4,-6,-1,2,3,1,4
1558440674883075,-5,10,2,-1,-1,0,-4,-4
1558440674883075,18,-6,0,-3,-6,-6,-1,3
1558440674890057,-1,2,-1,-2,0,3,-1,-1
1558440674890057,3,1,0,-2,-1,-4,-1,5
1558440674898035,-1,3,1,1,0,3,-1,-1
1558440674898035,2,0,-1,-2,0,-2,0,-1
1558440674905016,-1,-8,1,-1,0,1,0,1
1558440674905016,-1,-1,-2,-2,-7,-2,-10,-7
1558440674920974,-4,-2,-3,2,-1,-3,2,-7
1558440674920974,-6,-2,-1,-3,1,-9,-2,-4
1558440674927955,-1,3,0,-2,-1,0,-5,-3
1558440674927955,-6,-1,1,2,-2,-3,1,-9
1558440674934936,3,-5,-1,-2,3,0,-1,5
1558440674934936,0,-2,-1,0,0,3,-2,-4
1558440674958873,-3,2,2,2,-2,2,0,2
1558440674958873,6,1,-2,-1,-1,3,2,13
1558440674959870,-2,-1,0,-2,0,-3,-2,-5
1558440674959870,-3,-1,-1,-2,-1,2,0,-4
1558440674964856,2,-3,-3,-1,-3,-1,0,4
1558440674964856,-4,-5,-4,-2,-4,-4,-5,-5
1558440674980814,4,0,0,-2,2,0,2,5
1558440674980814,-10,-3,-1,1,5,1,3,0
1558440674987795,3,2,-3,-3,-2,-3,2,2
1558440674987795,1,2,1,-1,-4,-7,-5,-4
1558440674994776,-4,-9,-3,-3,-3,-3,-7,1
1558440674994776,2,-3,-4,-2,-6,-6,-11,-12
1558440675009736,-4,-3,0,0,1,1,6,6
1558440675009736,-3,-2,0,1,3,-4,-2,-6
1558440675033673,2,3,0,0,-4,-4,1,-4
1558440675033673,3,9,2,-2,0,-2,1,1
1558440675035668,6,-5,-4,-3,0,-5,2,3
1558440675035668,-7,-8,1,-1,-3,1,0,0
1558440675040654,0,-8,-5,-1,-1,2,-3,-1
1558440675040654,2,-3,-2,-1,-5,-1,-1,4
1558440675047635,-6,5,-1,1,-3,1,-4,-8
1558440675047635,3,2,-3,-1,3,1,1,3
1558440675063593,4,3,3,0,2,-1,-4,-2
1558440675063593,-20,-1,1,0,1,3,-13,-11
1558440675070574,-10,-3,-2,2,-1,-5,6,-1
1558440675070574,-4,-1,0,-1,-1,2,-3,-7
1558440675086532,0,0,-2,-3,-4,-5,2,5
1558440675086532,2,-3,1,2,3,4,1,-2
1558440675087529,0,0,0,-3,1,1,-7,-4
1558440675087529,-5,-2,-2,-3,1,4,-1,0
1558440675108472,-3,0,-4,0,-4,0,2,-3
1558440675108472,4,-1,1,-5,-6,-4,0,1
1558440675110467,-1,-12,0,-5,-3,-4,-6,-2
1558440675110467,-1,-3,-4,0,0,-4,4,2
1558440675115454,-1,0,4,2,1,5,0,4
1558440675115454,6,-4,-11,-4,1,-1,4,6
1558440675139391,11,3,-1,-1,-2,1,0,-1
1558440675139391,4,4,3,2,-3,-6,-7,-5
1558440675139391,1,0,0,-4,-3,-4,-1,8
1558440675139391,-3,2,1,1,-3,1,9,11
1558440675161331,-18,-4,-6,0,-4,-3,-10,0
1558440675161331,-3,-3,-3,-3,1,3,-2,-7
1558440675162328,5,0,-1,0,0,3,0,0
1558440675162328,-7,0,4,-1,0,-2,-2,-11
1558440675167315,18,7,1,0,3,4,7,3
1558440675167315,5,3,3,-2,-4,-3,-4,2
1558440675175294,-12,-8,-3,0,2,4,-1,-6
1558440675175294,2,-2,0,1,0,-6,0,1
1558440675190254,-3,-1,3,-2,0,1,-1,-7
1558440675190254,1,5,-2,-1,-1,-6,-2,-1
1558440675198232,4,-2,-2,1,-1,-3,1,-1
1558440675198232,7,0,-3,-3,-2,2,-3,0
1558440675205214,-4,0,-2,-2,0,2,-2,-2
1558440675205214,2,-1,0,1,-2,-2,3,3
1558440675221172,-5,1,1,-3,-3,-1,-4,4
1558440675221172,-9,-2,1,1,0,-9,0,-3
1558440675244110,-16,-5,-2,-1,-1,3,4,-2
1558440675244110,-8,-1,1,-1,-5,0,-5,-7
1558440675245108,2,-1,-3,-4,-3,-5,-6,-1
1558440675245108,4,0,6,1,3,6,0,5
1558440675250093,4,3,3,2,3,6,2,-3
1558440675250093,-1,0,-2,-1,4,-2,-1,0
1558440675258073,-6,-1,-1,-2,-2,-1,4,-1
1558440675258073,6,-1,-6,-2,-7,-5,-8,-3
1558440675265054,-4,-2,5,0,-4,-7,1,-2
1558440675265054,-4,-2,0,-2,-3,0,-2,1
1558440675288990,-1,1,-1,-1,-1,-5,2,2
1558440675288990,-10,1,-3,1,2,4,0,-4
1558440675289987,12,-1,0,-3,0,0,-4,7
1558440675289987,-15,-5,-1,-1,-2,1,6,-3
1558440675294973,4,3,0,2,0,6,4,-5
1558440675294973,-1,2,1,-3,0,-1,1,2
1558440675309934,1,2,0,1,3,2,-1,-5
1558440675309934,-3,-3,-1,2,-1,-1,0,4
1558440675317913,0,1,1,1,-3,-6,-10,-7
1558440675317913,-5,-2,1,-2,-2,1,1,-7
1558440675341848,2,-11,-5,-2,-4,-4,-4,1
1558440675341848,2,1,-2,-2,-3,-1,-2,0
1558440675341848,-6,-2,4,-3,-2,-5,1,-1
1558440675341848,7,1,-4,-4,-4,-1,-4,5
1558440675347833,-4,3,1,4,1,3,-1,-6
1558440675347833,0,-4,-6,-4,1,-5,1,-2
1558440675363789,10,2,1,0,1,2,-10,0
1558440675363789,6,-2,-1,1,-2,-1,2,5
1558440675369774,-9,-3,-2,-2,-3,-6,-3,-6
1558440675369774,-3,-1,-2,-1,1,4,-3,-2
1558440675378749,4,3,-2,-2,0,-1,0,-1
1558440675378749,0,-2,-3,1,2,2,0,0
1558440675392712,0,1,-2,-5,-3,0,4,-3
1558440675392712,3,4,0,-1,-1,0,-3,-3
1558440675400692,-13,-10,-3,0,-2,-4,-2,-5
1558440675400692,1,0,3,-1,0,3,0,-9
1558440675407672,1,0,0,-2,-3,-3,5,7
1558440675407672,8,0,2,-1,-1,1,1,10
1558440675415651,-8,-2,-3,-2,-2,0,0,-4
1558440675415651,-2,2,-1,0,2,-2,-1,0
1558440675430611,-2,0,0,-1,0,-1,-1,-1
1558440675430611,6,4,-2,0,-6,-4,-14,-10
1558440675438590,-1,-12,-6,-2,0,4,11,8
1558440675438590,-11,-3,-1,0,-1,-1,0,-3
1558440675469506,3,-1,1,2,0,-9,-1,3
1558440675469506,-2,0,2,1,8,8,4,-5
1558440675470504,-3,1,-2,-4,-3,-1,-8,1
1558440675470504,8,0,-1,-2,-5,-4,1,3
1558440675471502,-9,2,-1,0,-4,-2,-3,-3
1558440675471502,-5,-9,-1,-3,-1,-5,-2,0
1558440675475491,4,7,-1,0,2,4,1,-5
1558440675475491,-2,-3,-1,-1,-2,4,1,-5
1558440675491448,1,-2,-2,-2,-3,-4,-3,-2
1558440675491448,12,1,0,-2,-1,0,-1,5
1558440675498428,-24,-3,2,3,-2,3,2,-4
1558440675498428,0,0,-1,-3,-5,-12,-6,-1
1558440675512393,1,5,0,-1,9,10,6,14
1558440675512393,1,-1,0,1,-1,2,3,-2
1558440675520370,5,-1,-1,-3,-1,-4,-3,-6
1558440675520370,-1,-1,-3,-2,-2,0,-4,0
1558440675527357,1,-4,-2,-2,-5,-7,-10,-4
1558440675527357,-8,-4,-4,-2,-5,-5,0,-1
1558440675543310,7,2,2,-3,-3,-2,-5,5
1558440675543310,-1,0,-3,0,1,0,-3,-5
1558440675550290,8,1,1,1,0,1,0,-3
1558440675550290,-12,-2,-6,-4,-1,1,5,1
1558440675558270,1,2,2,0,7,2,5,1
1558440675558270,6,-5,-1,4,1,3,9,10
1558440675572232,-6,-4,-1,-2,-2,-1,-4,-9
1558440675572232,-7,-3,-3,-2,-3,0,1,-10
1558440675581209,6,3,-3,-1,-5,-4,-3,-1
1558440675581209,-12,-7,0,0,3,-2,1,-6
1558440675587191,2,3,-4,-1,2,4,5,1
1558440675587191,3,-1,0,-2,-3,-8,-6,5
1558440675595170,1,0,-1,2,-1,3,1,-3
1558440675595170,3,4,2,-2,-1,5,-1,1
1558440675610130,-5,-1,-2,-2,-5,-3,-3,-2
1558440675610130,-2,-1,-1,0,2,-3,-4,-1
1558440675617111,17,5,1,-1,3,2,-1,6
1558440675617111,-3,-1,-3,-4,-4,-4,0,-1
1558440675641060,-21,-7,-3,0,-4,-3,-1,4
1558440675641060,1,0,-1,0,2,6,5,-5
1558440675642047,4,2,1,-2,4,-3,-1,-2
1558440675642047,3,1,-1,-2,-2,-3,-1,4
1558440675648037,11,1,-1,-1,-2,-4,-7,1
1558440675648037,-4,-5,-4,-3,-1,0,-3,-9
1558440675655052,-6,-4,2,-3,-6,-3,3,4
1558440675655052,-2,-2,0,1,1,-1,-3,-5
1558440675669976,6,2,-1,-4,-3,2,0,0
1558440675669976,3,1,2,-1,-2,0,-3,-2
1558440675677993,-5,-3,-3,1,1,5,-1,-7
1558440675677993,-5,0,-2,-2,-2,-2,-3,-2
1558440675693908,16,2,8,-1,-1,-7,-2,10
1558440675693908,0,-2,0,0,-3,0,-3,-1
1558440675700889,-4,-3,-6,-1,-2,-4,-3,4
1558440675700889,0,0,5,-1,5,6,3,-1
1558440675714893,9,1,0,-2,-2,2,0,-8
1558440675714893,5,-1,0,1,0,0,2,5
1558440675723832,3,1,-1,-1,-1,-7,2,4
1558440675723832,-1,-4,-8,-3,-2,-3,-5,-2
1558440675729815,1,-1,-6,0,0,1,-3,-6
1558440675729815,-2,4,6,2,3,8,8,5
1558440675737793,-4,-5,-6,-3,-8,-1,-5,-3
1558440675737793,-5,-3,-1,-2,-3,-7,-3,-8
1558440675752751,-9,-5,-4,1,6,-4,3,-5
1558440675752751,4,1,-7,-4,-4,-1,-6,-2
1558440675768708,1,0,4,-1,-1,-10,-4,0
1558440675768708,-2,1,2,3,2,4,3,6
1558440675774693,-1,-2,-2,-1,0,11,4,-11
1558440675774693,-7,-3,1,0,-1,-2,6,-4
1558440675791646,5,-1,-3,0,-3,2,-1,-3
1558440675791646,12,1,0,-2,-1,1,-2,7
1558440675792643,-15,-4,-2,-3,-5,-6,0,-3
1558440675792643,0,0,1,-2,-2,-3,-2,1
1558440675798626,-4,-1,1,0,-4,-7,-3,-1
1558440675798626,11,0,-2,-2,0,3,5,-3
1558440675812591,3,-1,0,1,3,7,2,5
1558440675812591,1,6,-1,0,-1,-4,-6,-6
1558440675828562,-6,-8,-4,-3,-1,-2,2,-1
1558440675828562,-1,1,-1,-3,-3,-8,-5,-3
1558440675844512,15,0,0,-1,-4,-3,-1,5
1558440675844512,-2,-1,-2,-2,-5,-6,-2,1
1558440675844512,-5,2,-1,1,4,2,-2,-7
1558440675844512,-5,-2,-5,0,-3,-3,0,9
1558440675850590,-3,-3,-3,-1,0,0,-6,-9
1558440675850590,0,2,9,0,3,0,6,1
1558440675858470,9,1,0,0,2,-3,1,-1
1558440675858470,-5,1,-2,1,-2,2,1,0
1558440675872532,-10,-3,-6,-2,-4,-10,-8,6
1558440675872532,-1,-3,-6,-2,4,5,-5,-7
1558440675896366,-4,-5,1,1,-3,7,-3,-9
1558440675896366,-2,0,2,0,0,-2,4,7
1558440675904344,3,6,-2,-2,-6,-5,-4,-6
1558440675904344,-5,-9,-7,0,-4,-5,-7,-6
1558440675904344,0,0,-2,-1,-1,1,3,-2
1558440675904344,6,-2,0,-4,-4,0,-4,-6
1558440675926284,-17,-2,3,0,3,3,5,-1
1558440675926284,6,1,3,3,0,-7,0,7
1558440675927282,-25,-4,-6,-1,1,2,-4,-4
1558440675927282,-15,-4,0,-1,-2,-4,-5,3
1558440675941244,-1,-5,-2,0,0,4,4,4
1558440675941244,-5,-3,1,-3,0,-2,-8,-5
1558440675942242,6,0,1,-2,-2,-3,10,3
1558440675942242,-4,-1,-2,1,-3,-7,-6,-12
1558440675955209,-2,-4,-7,-1,-1,-2,-1,-2
1558440675955209,-3,-1,1,-2,-2,1,2,-1
1558440675971164,1,2,0,-2,-1,0,-1,8
1558440675971164,6,-3,-1,-1,1,5,2,-1
1558440675979145,-6,-3,3,0,-2,-4,-1,-4
1558440675979145,5,0,-2,-3,-2,-5,-1,2
1558440675979145,0,-3,-1,0,1,2,-2,-4
1558440675979145,-4,0,-1,-1,0,-1,1,-2
1558440675993454,7,0,-2,-4,-2,-2,-4,0
1558440675993454,-9,-15,-6,-2,-5,-2,-1,2
1558440676001482,5,0,0,2,0,-1,-1,1
1558440676001482,-4,-3,-2,-3,-1,-1,-2,-4
1558440676015425,13,11,1,-1,0,-2,-7,4
1558440676015425,-17,0,-1,1,-2,0,-6,-1
1558440676024161,4,1,4,-1,-4,-2,4,3
1558440676024161,9,-1,1,-2,4,1,1,-1
1558440676045966,-1,0,1,2,2,3,0,-3
1558440676045966,5,3,-4,1,7,2,8,5
1558440676046962,-5,-3,-3,-4,-3,-4,-5,-2
1558440676046962,-10,-5,0,-2,-5,-5,-4,-1
1558440676053133,2,-1,2,0,0,1,2,0
1558440676053133,9,-2,-2,-3,-3,4,-1,3
1558440676068903,2,-3,-7,-3,-4,-2,-4,-6
1558440676068903,-4,-1,0,3,0,1,-1,-1
1558440676074924,-6,-7,-4,-4,-6,-10,-6,-4
1558440676074924,6,1,1,-2,-1,-2,-1,-1
1558440676084134,6,2,2,2,6,3,2,5
1558440676084134,0,0,-1,-2,-1,3,-1,1
1558440676098062,-8,-3,-1,0,0,2,3,-2
1558440676098062,-8,-3,-1,-2,-5,-6,-4,1
1558440676106810,-5,-3,0,1,-2,0,-4,-5
1558440676106810,1,1,3,-3,-1,3,-1,2
1558440676112787,1,-2,-2,-4,-4,-3,0,-4
1558440676112787,-10,-1,-4,2,-1,-2,-1,-2
1558440676121765,-1,0,1,-4,2,2,0,0
1558440676121765,-1,-4,-1,2,0,-1,0,-1
1558440676135773,3,-2,-3,1,-1,1,1,0
1558440676135773,3,1,3,-3,0,3,-1,0
1558440676143895,-4,-5,-10,-4,-4,-1,-5,-3
1558440676143895,0,1,-3,1,0,-8,-3,-1
1558440676157957,-9,-5,0,0,3,0,5,3
1558440676157957,7,0,-1,0,-1,-1,0,0
1558440676166645,-5,-1,3,2,4,0,1,-6
1558440676166645,1,-1,-1,-3,-6,-1,-5,-4
1558440676172652,-1,0,-3,-2,-3,1,-3,-5
1558440676172652,-2,0,-3,-2,2,1,7,-4
1558440676195565,4,6,-1,0,-2,-9,-5,2
1558440676195565,10,7,1,-1,1,2,0,-1
1558440676196563,-15,-17,0,2,2,2,0,-3
1558440676196563,-9,-1,-2,-2,-1,-6,0,2
1558440676203575,10,-1,2,1,0,2,-2,3
1558440676203575,-15,-2,-5,-2,1,2,9,0
1558440676218503,-3,-1,-1,-1,-5,-4,-6,-4
1558440676218503,3,-1,-4,-1,-4,-2,-6,-5
1558440676226481,-5,-3,-3,-2,-5,-6,0,-2
1558440676226481,0,-1,0,1,0,-1,-3,1
1558440676232500,0,0,-2,-1,-3,-2,-3,3
1558440676232500,-6,-1,3,1,1,3,-1,-5
1558440676249461,5,4,-1,-1,0,0,2,3
1558440676249461,0,-2,-3,-3,0,-1,0,-2
1558440676255755,5,-2,-2,0,1,2,2,9
1558440676255755,1,-1,1,-2,-6,-6,-10,-14
1558440676264381,-8,1,2,-1,-1,1,-1,-5
1558440676264381,1,0,0,1,1,-1,-3,9
1558440676277712,-3,-2,0,0,3,0,2,2
1558440676277712,0,-4,-4,-2,-2,-6,-7,0
1558440676286551,15,0,-2,-1,-2,-1,2,-5
1558440676286551,-2,-2,0,-3,-2,-2,-3,-5
1558440676293352,2,4,2,-2,-2,-3,-3,-3
1558440676293352,5,0,1,3,3,5,4,1
1558440676301549,-8,-7,-2,-1,-4,-3,-10,-4
1558440676301549,-7,-2,-3,-2,-5,-4,-1,-5
1558440676315462,11,5,-3,-2,0,-1,-3,-6
1558440676315462,-2,-3,-2,-1,0,0,2,4
1558440676324231,2,1,-1,-3,0,-1,-1,5
1558440676324231,-5,-2,1,-1,-1,0,-3,-2
1558440676346167,-4,-2,-1,0,-2,-2,-2,-6
1558440676346167,19,0,-2,-4,1,-2,1,11
1558440676348160,-19,-4,-2,0,3,1,-2,-10
1558440676348160,4,1,0,0,0,5,2,0
1558440676352185,2,-4,2,0,-4,-3,-4,6
1558440676352185,-19,-4,-5,-3,-2,-4,-5,-6
1558440676362124,0,-1,-1,-1,-1,-1,1,3
1558440676362124,0,-5,-3,-1,-2,0,-1,-11
1558440676375097,-6,1,-1,-1,-1,4,1,-2
1558440676375097,1,5,-1,-1,-1,-4,-1,0
1558440676384063,-6,-10,0,0,-3,-7,1,-1
1558440676384063,-1,0,-3,-1,5,8,6,5
1558440676398060,5,1,1,-2,1,-2,1,2
1558440676398060,11,7,1,1,0,0,-1,3
1558440676406005,2,0,-2,0,-1,4,0,-2
1558440676406005,7,-1,-1,-3,-4,-6,-5,0
1558440676420996,17,2,2,0,1,2,7,10
1558440676420996,-9,-5,-4,-1,-2,-1,-5,-9
1558440676422956,0,-2,-4,-6,-3,-1,-3,2
1558440676422956,4,0,0,2,3,2,-1,-2
1558440676434923,-16,1,-2,1,1,-1,0,0
1558440676434923,-6,-2,0,-2,-3,2,0,-2
1558440676444253,-1,0,-1,-2,2,-1,0,1
1558440676444253,0,-2,-1,-1,-3,-3,1,0
1558440676458219,-5,0,-1,-1,-4,-3,-6,-7
1558440676458219,-5,-4,0,-2,-2,1,0,-6
1558440676474818,-5,-3,-3,-2,0,-2,-3,0
1558440676474818,6,1,3,-1,-1,-3,-5,0
1558440676476091,-2,5,-6,-4,0,1,7,4
1558440676476091,-6,-13,1,-1,0,2,3,2
1558440676481828,3,4,2,4,0,2,-2,-1
1558440676481828,-2,-2,-1,-1,0,1,2,-6
1558440676494764,7,-2,-2,-1,0,-2,-4,-3
1558440676494764,-20,-3,-3,-1,-3,-3,0,2
1558440676511722,12,7,4,1,4,3,3,10
1558440676511722,-7,-6,-3,-2,-1,-2,-3,1
1558440676517706,-5,0,0,1,1,2,-2,-4
1558440676517706,10,2,-2,-1,-5,-6,2,1
1558440676526682,1,-2,-1,-4,-3,-6,-2,-1
1558440676526682,-1,2,-1,2,7,11,5,0
1558440676532872,3,-6,-7,-1,-4,-3,-3,0
1558440676532872,9,4,5,-2,-1,-3,0,6
1558440676541643,-4,-4,-5,-2,-6,-5,-10,-12
1558440676541643,-6,-6,-4,-3,-7,-12,-5,-10
1558440676555797,-5,-2,-1,-2,-1,-4,-7,10
1558440676555797,8,5,-3,-2,-1,-1,-7,-1
1558440676563719,7,1,1,1,2,0,9,1
1558440676563719,-8,-6,-4,-1,-2,-1,-1,6
1558440676577771,3,4,3,-1,3,3,3,-2
1558440676577771,-2,-3,-2,0,-1,5,-7,-5
1558440676586526,-15,-2,-5,-1,-8,-2,-3,-4
1558440676586526,-9,-3,-2,-2,-1,-8,-3,-1
1558440676592504,8,1,-3,0,2,-5,8,-2
1558440676592504,1,0,0,1,1,3,0,-2
1558440676601482,12,3,0,-3,-1,2,-12,-4
1558440676601482,3,1,0,0,-4,-3,-2,1
1558440676615443,-1,1,0,-2,-3,-2,-3,-11
1558440676615443,2,2,2,2,3,3,7,-8
1558440676631399,14,6,-1,-2,-1,0,0,2
1558440676631399,1,4,-1,-1,-2,0,-1,-4
1558440676637386,14,-9,3,0,-1,1,-4,10
1558440676637386,-6,0,-1,-1,0,-4,3,-11
1558440676646359,2,-3,0,1,0,1,2,6
1558440676646359,0,3,-1,0,-1,-3,-4,-6
1558440676652371,-6,-5,0,0,1,3,0,-1
1558440676652371,0,-1,0,-2,-1,0,-2,2
1558440676661318,-15,-5,-7,-2,0,-2,1,0
1558440676661318,2,1,0,0,-1,-3,-2,2
1558440676675280,-9,4,2,-3,-4,-4,-6,-9
1558440676675280,1,-5,-5,0,-5,-5,-5,-2
1558440676684258,-4,3,4,3,3,2,5,1
1558440676684258,-5,-1,-3,-1,1,1,4,4
1558440676698416,1,-2,-1,-4,-2,2,2,1
1558440676698416,-13,0,-2,0,-2,2,-3,5
1558440676706308,0,-3,1,-2,0,-2,-3,2
1558440676706308,-21,-12,-4,-2,-2,-5,-6,-19
1558440676712184,-3,7,3,1,3,4,6,-1
1558440676712184,11,4,2,-2,-1,-6,-4,8
1558440676729138,2,0,12,-2,-1,5,4,11
1558440676729138,16,-7,-14,-2,0,4,2,10
1558440676735124,-1,-3,-1,2,-2,-7,-5,-5
1558440676735124,-5,-1,1,-1,0,-3,0,-5
1558440676744219,-16,-6,-5,-3,0,-2,-2,-5
1558440676744219,7,5,7,0,7,10,9,10
1558440676758346,1,1,-4,-2,-6,-5,0,8
1558440676758346,1,-2,-2,-2,-5,-3,-4,-6
1558440676766283,-7,-6,-7,2,3,4,-3,-2
1558440676766283,-1,3,8,-1,-1,-2,0,-5
1558440676781036,-3,-1,-3,-2,0,2,0,-5
1558440676781036,-3,-1,0,-1,-1,-2,4,-4
1558440676782997,-5,-3,-3,-1,-5,-9,-5,-8
1558440676782997,-1,-3,-3,-1,-3,-1,-4,1
1558440676794963,-8,-3,0,-3,-3,-1,-5,-8
1558440676794963,-2,-5,-4,-1,2,1,-2,0
1558440676803938,-2,3,-1,1,-1,1,7,-1
1558440676803938,-2,3,1,-1,-2,-4,-6,-6
1558440676817900,-14,-11,-4,0,-2,-4,-4,-6
1558440676817900,-11,-4,-1,2,2,5,7,7
1558440676826876,1,-1,-5,-3,-1,-5,-3,-7
1558440676826876,1,2,1,0,-2,-4,-3,5
1558440676841837,8,2,1,2,-2,-2,6,1
1558440676841837,11,2,-1,-2,-2,0,-1,2
1558440676842833,0,-2,0,-3,-3,-2,2,1
1558440676842833,-4,-2,-1,-2,-4,-5,-7,2
1558440676854800,11,6,-4,1,5,4,-8,-6
1558440676854800,-11,-18,-3,-5,-3,-5,-1,1
1558440676863804,-1,-3,-2,3,-4,-4,0,-1
1558440676863804,-7,-5,-3,-4,-3,-1,0,7
1558440676877739,-4,6,3,0,3,8,-1,-12
1558440676877739,7,6,-4,-2,-1,1,-4,-2
1558440676886728,-12,-5,-4,-2,-7,-8,-18,-21
1558440676886728,19,1,-3,-1,3,2,11,28
1558440676901737,-11,0,2,0,0,2,6,-6
1558440676901737,-1,-1,0,1,-1,0,1,-5
1558440676902682,4,3,-1,-3,0,1,-2,11
1558440676902682,1,3,3,0,-6,-6,-10,-8
1558440676923684,2,-6,-10,-2,-2,-3,-2,3
1558440676923684,3,1,-1,-1,2,0,-1,10
1558440676925618,-8,-1,-1,-4,-3,-2,-5,-10
1558440676925618,-9,2,-2,0,0,0,-4,-14
1558440676937685,0,-3,6,0,1,1,0,4
1558440676937685,-5,-2,3,-1,0,0,2,-1
1558440676946563,12,1,-1,-2,-1,-1,-4,-2
1558440676946563,-6,-3,-2,1,2,0,5,-6
1558440676961530,13,2,5,-4,-5,-8,-4,2
1558440676961530,-3,6,-7,-3,-4,-3,-4,7
1558440676962532,2,-5,1,1,4,6,21,-14
1558440676962532,-6,-4,0,-1,-4,-1,-3,-9
1558440676975598,-1,2,-3,-1,-3,-4,-3,1
1558440676975598,5,-5,-4,-2,-1,-1,-3,1
1558440676984458,-10,-1,-1,2,1,-1,10,11
1558440676984458,-19,0,1,-1,-1,-3,-5,-15
1558440676998461,-3,-4,-9,-4,-3,-7,-6,-1
1558440676998461,-5,5,11,0,-1,-5,-11,-13
1558440677006524,6,-14,-10,-1,5,8,9,8
1558440677006524,7,3,-1,-2,2,1,-3,10
1558440677021357,-3,1,-2,0,3,2,8,7
1558440677021357,-1,1,1,0,-1,-1,-3,3
1558440677023359,10,6,2,-1,-3,-2,-4,-1
1558440677023359,0,-2,-7,-1,-3,-2,-3,-1
1558440677035328,-5,-6,-1,-2,-3,-2,-4,-3
1558440677035328,9,0,-3,0,1,2,4,8
1558440677050502,1,2,2,2,-1,0,1,-4
1558440677050502,-4,-1,5,1,-2,0,-1,-8
1558440677057295,4,5,0,-3,1,0,1,3
1558440677057295,-16,-6,-6,-1,0,-1,0,-12
1558440677066236,-2,6,4,1,-1,-1,5,5
1558440677066236,13,4,0,0,-1,0,-2,-8
1558440677081197,-5,-8,-2,-1,-5,-3,-3,-3
1558440677081197,7,2,2,-3,1,1,1,4
1558440677083192,-12,-3,0,0,-1,-2,-6,-3
1558440677083192,0,1,3,-4,0,0,-2,-3
1558440677095160,8,2,2,1,2,4,11,1
1558440677095160,2,0,-5,0,-4,-5,4,5
1558440677104137,10,3,1,-3,1,-8,-7,3
1558440677104137,-3,-3,0,-2,-3,1,2,-2
1558440677118191,-9,-3,0,0,0,0,-7,3
1558440677118191,1,2,0,1,-3,2,-3,-7
1558440677127119,-7,0,-6,-4,-6,-6,-4,-3
1558440677127119,5,0,1,5,12,8,15,-2
1558440677141037,0,1,13,5,1,-7,-3,-11
1558440677141037,7,-3,-2,-4,-2,0,-5,-9
1558440677143029,-4,1,2,-2,-3,0,-2,0
1558440677143029,-3,-3,-6,-2,-5,-1,-5,3
1558440677155267,-16,-12,-5,-5,-3,1,0,3
1558440677155267,-8,-5,0,1,-3,-9,-11,-20
1558440677164158,-11,-5,-3,-1,-3,2,-9,0
1558440677164158,4,0,1,0,-1,-4,-1,3
1558440677177940,-1,4,-2,-1,2,1,6,-2
1558440677177940,-9,-7,2,-2,-1,-3,-4,4
1558440677186941,-11,-3,-7,0,0,2,-6,-3
1558440677186941,8,-3,1,-4,-1,0,3,8
1558440677202051,-1,2,-1,-1,-1,-6,-5,-2
1558440677202051,-5,0,-1,3,-1,-2,2,3
1558440677202873,14,3,4,-3,4,4,3,1
1558440677202873,-8,-3,-1,-1,-3,-1,2,3
1558440677214881,3,1,-2,-1,-3,1,-2,0
1558440677214881,14,2,-1,-2,0,-1,-1,10
1558440677231797,20,1,-1,1,1,2,6,0
1558440677231797,1,2,-1,-2,-1,-1,-1,0
1558440677237789,-6,-5,-1,-2,-1,-1,-7,-5
1558440677237789,10,4,0,-3,-2,0,12,6
1558440677246756,-3,-3,-1,-3,-1,-2,-9,5
1558440677246756,3,-1,-2,0,-2,-4,-6,-6
1558440677261714,-8,-5,-7,-1,-2,0,3,1
1558440677261714,-4,-4,4,-1,-2,-3,4,0
1558440677262711,-6,-3,-1,-1,-3,-3,-5,-8
1558440677262711,-6,-5,-2,-3,-3,-5,-3,-3
1558440677275795,4,-6,-3,-4,-2,0,0,2
1558440677275795,-11,-5,-6,-2,-4,0,-8,-10
1558440677283896,5,-1,-1,1,0,0,6,3
1558440677283896,-14,3,5,-1,5,2,1,-1
1558440677297830,-2,1,-2,-1,-4,-5,-4,0
1558440677297830,4,-2,-1,0,4,4,7,7
1558440677306596,-12,-1,-1,-3,-5,-6,-15,-18
1558440677306596,5,1,-3,-2,0,2,13,4
1558440677328557,-2,-9,-1,0,-4,-4,-7,1
1558440677328557,3,4,-1,-2,-1,0,0,-5
1558440677330531,-12,-4,-1,-4,-6,-5,-10,-3
1558440677330531,3,3,-4,0,-4,-3,-3,0
1558440677335718,0,3,2,0,3,3,-1,-2
1558440677335718,-5,0,-2,0,3,4,1,-2
1558440677351482,5,3,0,0,2,1,2,6
1558440677351482,-8,-8,2,-2,-3,-4,-5,6
1558440677358455,-2,4,1,3,2,0,2,-9
1558440677358455,-6,-5,-5,-4,-1,-1,3,11
1558440677366440,-4,-1,0,2,2,2,10,-9
1558440677366440,-15,-7,-6,-4,-3,-4,-6,0
1558440677381594,0,0,1,-1,1,1,2,2
1558440677381594,-12,-3,-14,-3,-3,-2,-6,-4
1558440677383391,10,4,-1,-1,-1,-3,-4,11
1558440677383391,2,-2,1,0,-1,-1,0,-9
1558440677404518,-10,-3,-3,-2,-2,1,-3,-9
1558440677404518,10,10,9,2,0,0,0,1
1558440677405337,-7,-8,-6,-2,-2,-6,-1,4
1558440677405337,10,1,-2,-1,-3,2,1,-4
1558440677418337,-20,-2,-2,-3,-4,-1,1,0
1558440677418337,11,9,-2,-2,-1,-1,-2,-4
1558440677434256,12,-10,7,1,0,3,0,6
1558440677434256,1,2,0,0,-2,-1,-5,-4
1558440677441234,9,3,3,0,2,-2,3,3
1558440677441234,-5,-1,-2,-2,0,-2,2,-1
1558440677443228,-5,6,-4,0,-2,2,2,-2
1558440677443228,-13,-3,0,-2,-5,-4,-6,-1
1558440677455196,-3,-11,-5,-3,-7,-3,-3,-4
1558440677455196,1,-3,-4,0,1,-1,-2,-2
1558440677464172,-10,-3,2,1,-1,-4,-3,-2
1558440677464172,-2,-4,0,-1,0,4,-1,-2
1558440677477583,8,5,1,-3,-5,-5,-4,3
1558440677477583,2,-5,-1,0,0,4,-1,-3
1558440677486113,-1,-1,0,2,4,1,6,-3
1558440677486113,1,4,-1,-1,4,-5,9,3
1558440677502199,-15,-3,-2,0,-1,-2,-3,1
1558440677502199,9,0,3,-1,-3,-1,-1,-16
1558440677503112,1,1,0,-4,-1,1,1,0
1558440677503112,-3,-2,-5,-4,-6,-6,-9,-7
1558440677515378,18,7,-1,0,4,1,5,5
1558440677515378,-4,-5,-1,-3,-1,4,1,3
1558440677524086,-20,-2,-4,-4,-6,-6,-6,-7
1558440677524086,2,-1,-1,1,2,1,1,-5
1558440677538219,1,-1,0,1,4,8,8,7
1558440677538219,-6,-5,2,0,-1,-5,1,6
1558440677552981,2,0,2,-3,1,-1,3,2
1558440677552981,0,-1,-2,-1,-7,-6,-11,-4
1558440677561078,-1,-6,-5,-3,-6,-3,-6,0
1558440677561078,-3,-6,1,-1,0,-3,-5,3
1558440677568133,-9,-3,-2,0,-2,-1,3,-11
1558440677568133,3,1,-2,-1,0,-1,-1,0
1558440677584056,3,4,3,-3,2,3,1,-3
1558440677584056,-1,0,1,0,-2,-3,-1,4
1558440677585849,-1,-1,-3,-1,-3,-2,-7,-3
1558440677585849,6,4,6,-1,2,2,1,4
1558440677597961,0,-2,-13,-1,0,0,2,0
1558440677597961,-4,-5,-3,0,-1,-3,-4,-3
1558440677606802,1,1,-3,-3,0,-2,1,-1
1558440677606802,-29,-4,4,0,-1,2,1,-3
1558440677620760,7,-2,5,1,-1,-1,-3,3
1558440677620760,-3,-1,-6,-4,-5,-6,-4,-4
1558440677635756,-1,-1,-4,-1,0,2,6,2
1558440677635756,-3,-2,-8,-1,2,-2,-1,-2
1558440677636714,7,-1,3,-3,-1,-3,-4,-4
1558440677636714,-9,-4,-2,-1,-1,1,-6,-5
1558440677643694,6,0,2,-2,2,4,3,3
1558440677643694,3,-4,-5,-4,-3,-10,-3,0
1558440677657659,-2,3,-1,0,0,-1,0,-4
1558440677657659,4,1,-1,0,0,1,-3,-6
1558440677672616,-8,-4,-1,-1,0,-2,-5,4
1558440677672616,7,0,0,-3,-1,2,-1,3
1558440677680596,8,1,-1,-1,0,-3,0,0
1558440677680596,-7,3,0,3,1,1,5,-6
1558440677687574,7,4,1,-3,-5,-5,-5,-1
1558440677687574,4,-8,-4,-1,0,-1,0,-1
1558440677695552,4,1,1,-1,-3,-1,-5,3
1558440677695552,1,-2,-3,0,-3,-8,0,0
1558440677711520,-3,10,3,-1,2,2,1,-4
1558440677711520,11,1,0,-2,0,2,1,5
1558440677717531,-13,-7,-4,0,-1,0,-1,-6
1558440677717531,0,-1,2,-2,1,0,0,4
1558440677733450,-4,-4,-7,-1,-6,-6,-6,-5
1558440677733450,-5,-1,-2,1,-2,-5,-4,-8
1558440677740431,-5,-1,1,-3,2,6,1,-1
1558440677740431,-1,2,1,-3,-1,-3,-2,6
1558440677764722,0,-6,-3,0,-1,-6,3,-2
1558440677764722,2,3,-1,-1,0,0,-2,-3
1558440677765366,-8,-5,-4,-3,-5,-6,1,-2
1558440677765366,-19,-3,-2,0,1,0,-7,-4
1558440677766366,2,-2,1,0,3,6,3,0
1558440677766366,5,-2,-2,-7,-4,-2,-1,11
1558440677777687,-3,6,1,2,3,0,2,-2
1558440677777687,5,-1,-7,0,3,6,5,6
1558440677786740,4,-1,6,0,0,2,-2,-3
1558440677786740,-2,-2,-4,0,-1,-1,-2,-2
1558440677801297,3,1,4,-3,-5,-5,-4,-4
1558440677801297,2,-1,-11,-1,-6,-6,-2,1
1558440677807281,4,-1,-1,-1,3,-1,1,2
1558440677807281,7,4,1,1,4,4,2,-1
1558440677824562,4,4,4,-1,-3,-8,-3,-1
1558440677824562,-3,-3,5,0,0,-3,1,-1
1558440677825209,-4,-11,-7,-1,0,-2,1,-4
1558440677825209,-1,0,-2,0,-2,-1,0,0
1558440677838345,-1,-1,-2,-3,-2,-1,-3,4
1558440677838345,-19,-10,0,-2,-2,2,-1,-4
1558440677846152,9,4,0,-3,0,2,-2,1
1558440677846152,-11,-7,-3,1,-2,1,-3,-3
1558440677860116,-6,0,-3,0,-2,1,-1,0
1558440677860116,8,3,6,-2,-4,-7,0,1
1558440677869088,-2,-2,-5,2,1,2,0,2
1558440677869088,-6,0,-3,0,-1,1,1,-7
1558440677886652,-2,-3,4,1,3,2,0,-1
1558440677886652,-7,-4,-1,1,-2,2,3,-3
1558440677886652,-1,4,4,-2,-4,-3,-5,-4
1558440677886652,3,0,1,-3,-4,-2,0,2
1558440677898355,12,-1,-2,-1,-2,-6,1,4
1558440677898355,12,2,1,4,5,4,1,-1
1558440677923007,-7,-4,0,-1,-1,-2,-1,-2
1558440677923007,-6,2,-4,-2,1,2,2,-3
1558440677924296,2,3,-2,1,1,2,-1,-2
1558440677924296,0,-7,0,-3,-4,-2,8,2
1558440677927978,-2,-2,-3,-2,-2,0,-2,0
1558440677927978,-18,-13,-1,-1,-1,0,-5,-2
1558440677944203,-4,0,-3,-1,-1,-2,-1,1
1558440677944203,2,-1,0,0,3,4,1,0
1558440677944887,-3,-1,0,-1,-3,-6,-2,-2
1558440677944887,11,0,-1,0,-3,1,-1,0
1558440677958161,-2,-1,-2,-1,0,1,3,-1
1558440677958161,-10,2,1,-4,-4,-3,-6,-3
1558440677966831,3,-4,-1,-1,-2,-4,-2,-2
1558440677966831,7,1,-4,0,-1,-2,-2,0
1558440677989075,-7,-4,-3,-2,2,2,-3,-8
1558440677989075,7,7,0,-1,2,3,-2,-2
1558440677991035,3,1,-4,1,1,2,2,5
1558440677991035,0,2,3,-1,-2,-5,-3,-2
1558440678004018,-10,-8,-7,-2,-5,-3,0,-3
1558440678004018,0,-2,0,-1,-3,-3,-5,-2
1558440678005725,4,4,7,-1,0,0,-5,-3
1558440678005725,-1,0,-8,-1,-1,-1,4,7
1558440678017953,1,-1,-2,-2,-2,-1,-3,7
1558440678017953,3,0,-3,-3,2,2,2,-4
1558440678026673,1,2,1,-2,-3,-1,-1,-1
1558440678026673,8,1,2,-1,-1,-1,-2,-5
1558440678040840,-9,-3,-2,0,0,2,-4,-1
1558440678040840,-3,-4,-3,-3,-3,-9,-4,4
1558440678048830,6,-1,-6,-1,-1,2,3,2
1558440678048830,-1,0,1,3,1,-2,-2,-1
1558440678063568,2,2,0,-3,-5,-5,-3,-3
1558440678063568,-4,-12,2,0,2,2,-2,-4
1558440678065564,-5,1,-3,-1,-2,-2,-1,-3
1558440678065564,3,1,-4,-2,-1,1,-3,-3
1558440678077572,-5,-5,8,0,1,-1,1,-6
1558440678077572,12,8,-1,3,1,-2,5,6
1558440678086672,-5,-5,-1,-3,-4,2,2,4
1558440678086672,-2,-1,2,0,-3,-3,0,-4
1558440678116746,-2,-8,-5,-1,-1,-3,0,-5
1558440678116746,-1,2,-2,-1,-4,-3,-7,-2
1558440678117425,2,1,-2,1,3,4,0,0
1558440678117425,10,-1,0,-2,-3,-4,-4,3
1558440678124682,1,1,-2,1,0,3,10,-1
1558440678124682,-5,1,2,0,6,4,8,2
1558440678125460,7,5,1,0,-2,-3,-1,0
1558440678125460,-6,-6,-5,-1,-2,-3,-3,-4
1558440678137432,0,-4,-5,-1,-4,-1,-7,0
1558440678137432,3,4,1,-2,-6,-1,-5,-4
1558440678146403,-5,-1,1,1,1,4,4,-2
1558440678146403,1,-3,-7,0,0,1,2,-2
1558440678160371,-4,0,1,0,-3,-7,-5,-2
1558440678160371,1,-1,0,-1,-4,-1,-2,-1
1558440678169343,-4,-3,-1,-1,0,0,-3,-2
1558440678169343,-9,-2,5,-2,3,1,4,0
1558440678191612,6,7,-1,-3,0,2,0,4
1558440678191612,-2,0,-5,-1,-4,-5,-7,-4
1558440678193279,3,-3,1,1,0,-2,-2,-12
1558440678193279,-7,4,-2,-5,-1,1,-2,-5
1558440678198265,-22,-14,-3,-1,-2,-1,1,0
1558440678198265,5,0,3,0,1,-2,0,2
1558440678214224,-6,-3,-4,-5,-2,-2,-7,-6
1558440678214224,0,2,3,-3,-2,-9,3,2
1558440678220546,7,7,1,4,5,8,4,-1
1558440678220546,9,0,-1,-3,-3,1,-1,5
1558440678246147,-3,-6,-6,-3,-4,-2,-8,-7
1558440678246147,4,0,2,-2,-3,-2,-4,-3
1558440678247133,0,-1,-1,-3,-1,-10,-2,-2
1558440678247133,-3,1,-3,-4,-1,0,-1,-1
1558440678267081,1,1,-1,-2,-4,-6,-1,1
1558440678267081,-2,-1,2,4,8,16,4,3
1558440678268078,-1,-2,6,-1,1,-6,0,2
1558440678268078,-1,2,-2,0,0,0,0,-7
1558440678269076,-9,-2,-8,0,-2,-6,-4,0
1558440678269076,-6,-1,6,-2,-2,1,-1,-3
1558440678280047,2,1,2,-2,2,0,-3,-3
1558440678280047,1,0,3,0,-3,-4,-1,0
1558440678289023,-8,-3,-2,0,2,-3,2,0
1558440678289023,0,0,-1,0,0,2,3,-2
1558440678304326,0,-6,-5,0,-6,1,-6,-5
1558440678304326,1,-3,-2,-2,-2,-3,-1,-4
1558440678306151,1,0,1,-2,2,-1,3,4
1558440678306151,3,0,-2,-4,-3,-1,-4,0
1558440678318321,-3,-3,-3,-1,-4,-3,-4,-3
1558440678318321,-12,-6,-9,-3,1,1,-2,-7
1558440678326921,0,5,8,1,0,3,1,3
1558440678326921,-3,-5,-2,1,-5,-8,-4,-4
1558440678340227,5,2,-3,0,1,4,3,3
1558440678340227,0,-1,3,0,3,-2,0,-1
1558440678349147,0,2,-1,-1,-2,-1,-4,-6
1558440678349147,2,-2,-3,-2,-5,-6,-3,-2
1558440678364160,-7,-1,1,-1,3,12,2,-2
1558440678364160,-1,-2,-11,-2,0,-7,2,4
1558440678365817,-4,-3,0,0,0,6,-1,-1
1558440678365817,-1,-1,-1,-3,-6,-5,-4,1
1558440678377785,5,3,-4,-3,-2,-9,-5,-10
1558440678377785,-3,-10,0,1,-3,2,-3,-4
1558440678394080,-13,-1,0,-3,1,-1,6,4
1558440678394080,-5,-5,-6,-2,3,3,4,2
1558440678400725,4,4,2,0,-3,-11,-1,3
1558440678400725,3,5,2,3,2,8,2,2
1558440678416681,2,-6,-6,-5,-8,-6,-7,-2
1558440678416681,0,0,4,-2,-1,-1,-2,-1
1558440678423970,-2,2,-2,0,1,3,3,5
1558440678423970,-4,-2,1,-4,-3,-1,-5,-2
1558440678425658,9,0,1,-2,-3,-2,-3,2
1558440678425658,-4,1,-1,2,3,3,0,-2
1558440678446601,4,-4,-9,-3,2,-1,2,0
1558440678446601,-12,-4,-3,-3,-4,-8,-3,-2
1558440678447597,-3,-1,-4,1,0,2,0,-3
1558440678447597,-7,-3,-1,-2,-3,-2,-5,-4
1558440678468541,-3,1,10,-1,-1,-2,-2,0
1558440678468541,-2,-2,-7,0,-5,0,-3,-5
1558440678470538,2,2,0,0,1,-2,0,0
1558440678470538,-3,-7,-2,0,4,-1,1,-1
1558440678491481,-1,-2,0,-3,-2,1,-2,0
1558440678491481,4,4,2,0,-4,-4,-5,0
1558440678492479,6,-2,0,-2,0,-7,1,3
1558440678492479,4,-1,0,1,4,7,1,-1
1558440678506892,0,2,-4,0,0,1,-2,-1
1558440678506892,2,1,4,-1,0,-1,0,2
1558440678508788,-1,-4,-7,-1,-2,-3,0,-3
1558440678508788,1,4,2,0,0,-4,3,4
1558440678520829,-1,-2,-4,-2,-4,-4,-7,-5
1558440678520829,-4,-1,2,-1,0,3,-1,-4
1558440678529383,-1,-1,-2,-3,0,0,-1,3
1558440678529383,-9,-3,0,2,1,0,2,-3
1558440678543686,1,-2,0,-1,0,-5,0,1
1558440678543686,9,3,0,-2,-2,-4,-1,3
1558440678550492,-15,-4,-3,0,-6,-3,-4,-4
1558440678550492,1,-2,1,0,-1,0,-1,-4
1558440678557829,-2,-3,-4,-1,-1,2,2,4
1558440678557829,-3,2,0,0,4,4,3,1
1558440678566544,10,0,-1,2,1,-1,-2,2
1558440678566544,2,0,-3,-4,-8,-2,-8,-5
1558440678596638,-4,-4,0,-4,-5,-7,-4,-1
1558440678596638,-4,-3,-2,0,3,2,-1,-2
1558440678597371,-1,-2,0,-2,-4,1,-1,-1
1558440678597371,2,1,-1,-1,4,3,4,3
1558440678603646,3,3,-2,5,-1,1,0,-2
1558440678603646,10,2,2,2,3,1,5,6
1558440678610583,0,-1,1,-2,-3,0,-2,-4
1558440678610583,-14,-5,-4,-2,-4,-4,-4,-3
1558440678617578,-6,-3,3,1,-5,-3,-4,-4
1558440678617578,-6,-5,-9,-3,-4,-1,0,-3
1558440678626556,-3,-2,-2,2,6,7,7,0
1558440678626556,9,5,4,1,-1,-6,-3,1
1558440678640604,-2,-2,-7,-1,3,0,0,-2
1558440678640604,-5,-1,-1,-1,0,3,-1,-1
1558440678649236,-2,-7,-3,0,-6,-10,-4,-2
1558440678649236,1,-2,-6,-1,0,2,0,0
1558440678663516,-1,0,5,-2,-1,5,-1,-2
1558440678663516,1,-1,0,-1,-2,-7,-3,-3
1558440678677413,-4,-1,-2,0,-3,-1,-1,-10
1558440678677413,1,-2,0,0,-1,3,-1,-1
1558440678687166,0,0,-4,-6,-4,-7,-4,-1
1558440678687166,-3,0,-6,-1,-1,-6,-1,-1
1558440678688163,19,5,9,-1,3,-3,2,4
1558440678688163,2,0,-1,-2,-1,1,0,-2
1558440678700340,2,-2,-1,0,-2,3,1,-3
1558440678700340,-3,-2,-3,0,3,5,1,-3
1558440678709075,5,10,1,0,1,0,-1,0
1558440678709075,7,-11,-3,-1,-3,-3,-2,1
1558440678723398,-18,-2,2,0,-3,-4,-5,-3
1558440678723398,-3,-3,-1,-2,-5,-4,-4,-1
1558440678730410,1,-1,5,1,3,6,3,5
1558440678730410,-1,4,-12,-2,-3,-4,-2,-1
1558440678747310,8,-1,-3,-4,-6,-2,-4,0
1558440678747310,-2,-1,4,0,0,-2,3,0
1558440678747972,-7,3,5,3,5,2,4,0
1558440678747972,-3,-3,-1,0,-1,1,-1,4
1558440678759983,-2,-4,0,-3,-4,-7,-6,-7
1558440678759983,-2,0,-2,-1,-3,-6,-3,-3
1558440678768911,-3,-1,-2,1,-3,2,-2,-2
1558440678768911,5,8,5,-2,1,0,4,7
1558440678782911,-9,-11,-9,0,-1,2,-2,-3
1558440678782911,1,-3,1,0,0,1,-3,-4
1558440678789854,-6,-6,-7,-6,-8,-9,-6,-1
1558440678789854,-4,3,1,-1,0,1,1,-4
1558440678806809,1,-1,1,1,1,-2,2,1
1558440678806809,0,-3,1,-1,-1,-3,-2,1
1558440678812794,-4,-5,-5,-6,-2,-1,-2,1
1558440678812794,-2,1,-3,-4,-1,4,1,-5
1558440678820915,1,2,-1,3,3,-4,1,1
1558440678820915,0,0,0,-2,1,-3,2,0
1558440678828751,1,-1,-6,-2,0,7,1,0
1558440678828751,1,-2,0,1,-5,-11,-6,0
1558440678844112,-5,-2,-5,-4,-3,0,-2,2
1558440678844112,0,3,1,1,-3,0,-3,-2
1558440678850182,-2,-3,0,1,1,2,-2,-2
1558440678850182,-6,-6,-3,-3,-2,-5,-1,-1
1558440678866990,2,3,1,0,2,2,6,1
1558440678866990,8,2,0,0,-2,2,-2,0
1558440678867649,0,2,-2,-2,-2,0,3,2
1558440678867649,0,-2,-2,-1,-1,-7,-6,-3
1558440678880900,1,2,2,-1,4,11,6,2
1558440678880900,-1,-3,3,1,0,-2,-1,-4
1558440678888627,-1,-3,-1,-3,0,-2,2,0
1558440678888627,0,3,5,-1,-4,-5,-1,-2
1558440678903895,3,3,1,2,1,-4,-1,1
1558440678903895,1,-1,1,-1,0,3,-2,0
1558440678910534,-3,-2,0,-2,-3,-5,-3,-3
1558440678910534,-2,2,-6,0,-1,3,0,0
1558440678926842,-2,-4,0,-3,-3,1,0,2
1558440678926842,-18,-3,-3,-2,-1,-4,0,-4
1558440678927491,0,-3,-1,0,-3,-4,-4,-3
1558440678927491,-5,-4,-1,0,4,7,6,-1
1558440678940739,9,1,-5,-4,-2,-2,-4,0
1558440678940739,-15,-5,-3,-2,0,3,-2,-6
1558440678949429,-3,-2,-5,2,-7,-3,-6,-3
1558440678949429,2,0,2,-2,0,-13,-1,3
1558440678963744,5,1,-4,2,4,5,3,-1
1558440678963744,4,-2,2,-1,-3,2,0,1
1558440678970733,4,-2,0,0,-1,-1,3,5
1558440678970733,-3,-4,-2,0,-3,2,-5,-7
1558440678985645,-3,-2,-4,-5,-5,1,0,-2
1558440678985645,3,5,-1,1,0,2,2,3
1558440678994308,3,1,3,-3,0,-8,-1,-1
1558440678994308,-6,-11,-17,-1,-2,-1,-3,-4
1558440679000577,-2,2,3,1,-2,-5,-3,-3
1558440679000577,5,0,-1,0,4,-3,2,4
1558440679009271,2,1,0,-1,2,1,-1,0
1558440679009271,3,2,2,2,1,6,0,-1
1558440679024333,-31,-6,-1,-2,-2,-2,-4,-5
1558440679024333,1,0,-5,-3,-4,-3,-4,-3
1558440679031391,-5,-3,-2,0,1,-5,3,1
1558440679031391,0,1,4,3,3,2,-3,0
1558440679047203,3,-3,-1,-3,0,-2,0,-1
1558440679047203,1,3,2,-5,-6,-5,-3,-4
1558440679048169,-5,-4,-9,0,-3,3,-3,0
1558440679048169,1,0,0,-4,-4,-4,0,-2
1558440679069338,6,2,1,-1,1,-2,0,-2
1558440679069338,2,-3,-1,5,0,-1,2,4
1558440679070107,0,0,0,-4,0,1,2,-7
1558440679070107,-1,-2,-4,-3,-3,-2,-4,0
1558440679083317,0,-1,2,1,0,0,-2,0
1558440679083317,4,-1,0,-1,-5,-6,-2,-3
1558440679090055,-19,-3,-1,-1,0,2,-1,-2
1558440679090055,-3,-2,3,-1,3,1,5,2
1558440679106010,3,2,2,3,2,-3,0,1
1558440679106010,-19,-5,-2,-4,-4,-3,-3,-2
1558440679108005,2,-2,-5,-1,-3,-4,-3,0
1558440679108005,1,2,2,2,2,2,0,-3
1558440679120971,6,-1,-3,1,2,4,0,2
1558440679120971,6,0,0,-4,-3,0,-1,1
1558440679128948,0,3,-2,-1,-1,-9,-5,-1
1558440679128948,-6,-4,-1,-3,-3,-2,-3,-2
1558440679143944,2,-3,-2,-3,0,3,2,0
1558440679143944,1,-2,-2,1,0,-1,0,1
1558440679158229,2,-1,-1,2,7,13,6,6
1558440679158229,-3,2,3,-1,2,-7,0,-4
1558440679166847,-2,-1,-2,-2,-4,-6,-3,-3
1558440679166847,0,-2,-6,1,-1,1,-2,-1
1558440679167881,0,1,6,-2,-4,-1,-4,-3
1558440679167881,2,-1,-7,-4,-10,-8,-6,1
1558440679180174,-2,0,-1,1,4,0,3,1
1558440679180174,3,1,3,0,7,6,6,6
1558440679188989,1,-3,1,2,-1,-3,-2,-1
1558440679188989,7,0,1,0,1,5,4,4
1558440679204167,-5,-5,-7,-6,-11,-4,-8,-8
1558440679204167,-1,-1,1,-4,-6,-9,-7,-5
1558440679210536,-10,-3,-3,1,7,7,7,-2
1558440679210536,0,0,2,4,-2,-6,-1,1
1558440679227180,3,3,3,1,3,0,-1,-2
1558440679227180,-3,-6,-7,-5,-4,4,-1,-1
1558440679228148,1,-1,2,-3,-6,-6,-3,-4
1558440679228148,-1,-1,0,2,3,6,4,1
1558440679249321,-4,1,7,-1,2,0,2,1
1558440679249321,-1,-4,-14,-4,-4,-2,-4,-5
1558440679250094,-1,0,-3,1,-5,-4,-5,-3
1558440679250094,-2,-3,-6,-5,-2,3,0,-1
1558440679264050,1,-2,-2,-2,-5,-2,-2,1
1558440679264050,0,0,4,2,4,6,6,2
1558440679270226,6,-3,-3,-2,4,2,2,5
1558440679270226,-7,-4,-5,-3,-5,-5,-9,-8
1558440679286989,-1,0,-1,4,0,-1,6,-1
1558440679286989,1,4,5,1,8,5,8,3
1558440679292970,4,0,-2,-2,-4,-1,-3,0
1558440679292970,3,1,1,1,1,1,1,1
1558440679299954,-2,-2,0,-2,-6,-3,-6,-3
1558440679299954,-1,-1,3,-4,-2,-9,-2,-1
1558440679308927,-1,-1,-4,-4,2,-2,1,-2
1558440679308927,-2,2,0,-1,-3,-3,-1,0
1558440679324190,-1,-3,-3,-2,2,4,-1,1
1558440679324190,-1,-4,2,3,-2,-3,-2,-3
1558440679330358,3,2,2,-8,-7,-6,-5,-4
1558440679330358,-10,-6,1,-2,-6,-2,-1,-2
1558440679346350,3,2,-5,-1,9,2,13,6
1558440679346350,4,4,6,4,5,8,0,4
1558440679347314,2,-1,0,4,-2,-3,-6,-2
1558440679347314,5,4,-3,-7,-4,-5,-5,-1
1558440679369281,-1,-1,8,0,-1,0,-3,-1
1558440679369281,-4,-3,-9,4,0,-3,-1,-2
1558440679370251,-2,2,-1,-2,-1,1,0,-1
1558440679370251,-5,-3,-3,-1,-2,-2,-3,-4
1558440679383215,2,2,2,-1,-2,-1,-1,2
1558440679383215,-2,-3,-2,-3,-4,-2,-4,-6
1558440679390198,-2,-3,-1,0,2,4,0,3
1558440679390198,0,-3,0,1,1,0,2,1
1558440679406156,-2,-1,-13,1,-2,-3,-2,-4
1558440679406156,2,0,0,-8,-6,-15,-3,0
1558440679412141,2,0,2,0,1,1,2,-2
1558440679412141,-2,-1,2,2,4,4,-1,-2
1558440679420583,0,0,1,-2,-1,-1,-1,0
1558440679420583,4,1,-7,-2,0,1,-1,2
1558440679429095,-8,-4,-1,3,-1,-3,-1,-3
1558440679429095,0,-2,3,-3,2,1,3,2
1558440679443469,-4,-2,1,-1,-5,-7,-8,-8
1558440679443469,-5,-1,-1,0,-3,-3,-2,-5
1558440679450054,2,2,-1,1,2,2,4,1
1558440679450054,3,-1,-1,2,2,4,5,4
1558440679473974,-4,-2,-3,1,0,-2,-3,-9
1558440679473974,1,-2,1,-4,-2,0,-2,-2
1558440679474973,-5,-3,-11,-2,-3,-4,-3,-3
1558440679474973,-4,-1,-4,-3,-1,1,-3,0
1558440679479961,11,1,-1,-1,-1,2,1,6
1558440679479961,4,0,3,2,3,-1,2,-1
1558440679488934,-1,-4,3,-1,-2,-1,0,-2
1558440679488934,-12,1,1,1,0,-1,-1,1
1558440679502897,-3,-2,-4,-2,-5,-1,-3,-1
1558440679502897,4,-1,0,-3,-4,-3,-6,2
1558440679509878,1,-1,-1,-1,6,1,3,-1
1558440679509878,10,1,2,2,-1,-3,1,3
1558440679526046,-5,-3,-4,-5,-1,2,-3,-3
1558440679526046,-3,-1,0,-3,0,9,3,3
1558440679532817,-6,-1,-3,0,-7,-9,-3,-5
1558440679532817,12,3,-1,-3,2,-1,-1,0
1558440679548780,4,0,0,-3,2,2,4,8
1558440679548780,-14,-7,-4,0,-5,-8,-9,-9
1558440679550795,9,1,4,1,-1,2,0,6
1558440679550795,-2,-4,-7,-3,-2,-2,0,-1
1558440679562742,-1,-2,-2,0,-1,-1,-1,-1
1558440679562742,2,0,3,1,0,2,2,0
1558440679577712,20,2,-1,-3,-1,-1,-5,7
1558440679577712,-19,-5,-2,1,0,2,0,-9
1558440679585742,5,-1,1,0,-4,-5,-2,5
1558440679585742,-6,2,-1,1,1,1,0,-1
1558440679600650,10,0,0,-3,-4,-2,-3,-1
1558440679600650,19,0,-1,-1,-2,-2,0,3
1558440679609611,-9,-3,-6,2,1,-2,-1,-5
1558440679609611,-3,0,2,0,6,7,5,4
1558440679610615,-10,-1,1,0,-1,-2,2,-2
1558440679610615,-6,-1,2,0,-1,-3,-1,-2
1558440679623782,2,2,0,-3,-1,0,-3,-4
1558440679623782,0,-3,-8,-3,-8,-5,0,-8
1558440679629589,-8,0,-1,1,3,1,-1,-6
1558440679629589,-3,-1,2,1,1,0,2,3
1558440679645533,-1,-3,-1,-2,-1,-1,1,1
1558440679645533,14,3,-2,-1,-1,5,0,6
1558440679660568,-4,1,0,1,-3,-7,-3,-5
1558440679660568,-6,-1,-5,-1,-1,-1,1,-1
1558440679669494,12,-1,0,-3,-3,-3,-2,3
1558440679669494,2,2,0,1,-2,-4,-3,-1
1558440679670464,-2,0,0,-3,0,-1,1,0
1558440679670464,-4,-2,-1,-2,-1,-4,-5,-3
1558440679683604,6,1,9,2,2,6,4,4
1558440679683604,-4,-4,-12,-2,0,-2,-3,0
1558440679690396,-7,-4,-3,-3,0,-1,1,0
1558440679690396,-5,3,-1,1,-4,-1,-4,-2
1558440679705357,-5,-5,-2,-2,-3,-7,-4,-5
1558440679705357,3,2,0,-1,3,5,2,-2
1558440679712337,-3,1,4,0,-1,2,-3,1
1558440679712337,-4,-3,-3,1,1,0,2,-1
1558440679729293,0,2,2,-1,-1,-2,0,-4
1558440679729293,14,-1,3,-3,-3,-4,0,8
1558440679730289,-26,-6,-12,1,-2,-2,-7,-13
1558440679730289,-2,-2,-1,-2,-1,1,0,-4
1558440679743254,-11,-3,-1,-1,1,-3,-1,-8
1558440679743254,-4,2,0,0,-3,-3,-3,-4
1558440679750236,8,0,6,1,3,4,1,1
1558440679750236,-1,-4,0,0,1,2,-1,4
1558440679766213,-8,-1,-8,-5,-5,-4,-4,-14
1558440679766213,-6,-1,2,4,3,-1,1,-3
1558440679772177,-12,-7,-8,-4,-2,-2,2,1
1558440679772177,-1,1,5,-1,0,2,0,-1
1558440679789131,3,2,2,2,-2,-2,-1,6
1558440679789131,-3,-3,-1,-4,-5,-4,-4,3
1558440679790129,16,2,-1,-3,-3,1,1,-2
1558440679790129,-7,-1,-3,-3,-2,-5,-3,-5
1558440679803095,-2,3,-2,1,0,3,-2,6
1558440679803095,-6,-3,1,-3,1,7,4,1
1558440679810075,-1,-3,-4,-2,0,-3,0,0
1558440679810075,0,0,-1,1,-2,1,-1,-4
1558440679826031,5,0,0,-4,-3,-7,-1,-1
1558440679826031,-5,-6,-7,-2,-2,-5,-6,-7
1558440679832016,-5,-1,3,3,-3,-1,-2,4
1558440679832016,-3,-5,-4,-3,-1,3,-1,1
1558440679848970,-3,1,1,-1,-2,0,0,-1
1558440679848970,-6,1,2,2,0,-8,-3,-2
1558440679849968,3,1,1,-1,0,0,0,-1
1558440679849968,33,4,-3,-2,-3,-6,-5,1
1558440679862970,-3,-5,-4,-1,3,4,2,2
1558440679862970,-3,-4,-2,-1,-3,-1,-4,-4
1558440679869917,4,0,1,-2,-2,-3,-5,-3
1558440679869917,-3,-2,-4,-1,0,1,1,0
1558440679885871,5,-1,-2,2,2,7,3,1
1558440679885871,-8,2,4,-4,-3,-6,1,-1
1558440679899835,-3,1,1,-1,-3,-7,0,3
1558440679899835,-17,-2,0,2,0,-1,0,-7
1558440679908812,2,-4,-4,0,-2,0,-2,1
1558440679908812,2,1,-2,-2,1,4,-3,-1
1558440679910807,-4,-3,-5,-3,-1,2,-2,-1
1558440679910807,-10,0,6,2,-1,-5,4,2
1558440679923772,6,2,5,-3,-2,-5,-2,-3
1558440679923772,-8,-4,-10,-3,-3,0,-3,-1
1558440679929755,0,-2,-2,-1,-4,-3,-4,-4
1558440679929755,-1,3,3,2,8,7,4,3
1558440679945713,5,0,-2,-1,2,4,4,-3
1558440679945713,0,-1,0,0,-3,-5,-2,-4
1558440679952696,-5,-2,3,-1,-1,1,-2,-2
1558440679952696,9,3,-4,-5,-8,-12,-8,7
1558440679976630,-9,1,1,-2,-2,3,-2,-6
1558440679976630,3,0,1,1,4,3,2,0
1558440679977627,0,0,-1,0,2,2,1,-1
1558440679977627,17,-1,-4,-3,-2,1,0,-9
1558440679983611,1,-3,-1,2,-3,-10,-4,1
1558440679983611,-1,-2,-1,-3,-3,-3,-4,-3
1558440679989595,0,2,-3,-2,-1,1,2,5
1558440679989595,-2,-4,-5,-3,-3,-1,-2,-3
1558440680005553,-8,2,3,0,1,-3,-1,3
1558440680005553,-3,-3,-4,-1,1,2,1,-1
1558440680012536,7,1,0,-1,-2,-1,0,0
1558440680012536,0,-1,-1,0,-4,-13,-7,-1
1558440680028501,-24,-7,1,-2,4,11,6,0
1558440680028501,5,-2,0,-3,-3,-1,0,-2
1558440680030487,-2,-3,-3,1,0,-8,-2,-2
1558440680030487,2,-3,-2,-3,-2,4,-3,6
1558440680051430,-5,-3,-2,-2,-3,-4,-3,-9
1558440680051430,6,1,-1,4,1,-1,2,4
1558440680052428,-25,-6,-6,-2,-2,-2,-4,0
1558440680052428,-9,-1,0,-2,1,4,0,-7
1558440680065391,5,-4,-5,-2,-3,-3,0,9
1558440680065391,-3,-1,0,1,-2,-4,-2,-12
1558440680080357,0,-4,-4,-3,-3,-1,-6,-5
1558440680080357,-12,-4,1,-1,-3,-7,-8,-9
1558440680089331,2,1,0,2,4,4,3,4
1558440680089331,4,1,0,-3,-1,-9,2,2
1558440680090330,-4,-1,-3,-1,-1,1,0,-2
1558440680090330,8,-1,-4,-2,-2,-3,-2,1
1558440680102296,-11,-5,-5,-4,-6,-8,-6,-6
1558440680102296,4,1,2,0,5,1,5,6
1558440680111270,2,0,2,-1,1,0,4,-1
1558440680111270,0,1,-4,1,-2,4,2,3
1558440680125231,0,2,-4,-2,-2,0,-4,-5
1558440680125231,3,1,0,-2,-2,-2,-1,1
1558440680132215,-18,-3,-1,0,-3,0,-1,-1
1558440680132215,-8,-1,0,-1,0,1,3,0
1558440680156149,6,-1,-2,-1,0,0,-2,1
1558440680156149,0,-4,-5,-2,-1,0,-2,3
1558440680158144,10,-2,-1,-1,0,1,-3,0
1558440680158144,9,1,-1,-3,0,-4,1,1
1558440680162135,-2,-2,-2,1,0,-1,0,-2
1558440680162135,-11,-2,-6,0,-1,1,-1,-4
1558440680179093,9,4,2,-2,-1,1,0,0
1558440680179093,12,2,2,-2,-2,-3,-2,4
1558440680186076,2,0,0,0,0,-5,-1,0
1558440680186076,-1,-2,-1,-2,-1,3,-2,0
1558440680192053,12,3,0,-1,-1,-1,1,5
1558440680192053,-3,-3,-1,0,-2,-3,-3,-3
1558440680209010,4,1,0,-3,-5,-1,-3,2
1558440680209010,3,0,1,1,6,-2,6,5
1558440680210007,6,-3,2,1,2,-2,0,-1
1558440680210007,-6,-4,-4,0,-2,-1,-3,-3
1558440680222974,-21,-9,-6,-5,-9,-6,-7,-12
1558440680222974,7,1,5,-1,-4,5,-3,3
1558440680230948,1,-2,-3,2,5,1,5,-2
1558440680230948,0,-1,1,-2,0,-6,-2,-2
1558440680245909,0,-2,-3,-3,-2,-1,-1,0
1558440680245909,0,-1,-4,1,-4,3,-1,1
1558440680252894,-11,0,0,-3,-5,-3,-4,-6
1558440680252894,3,2,2,-2,1,2,3,-1
1558440680268849,1,0,-1,2,6,9,7,4
1558440680268849,-2,0,2,0,0,-3,0,1
1558440680269848,-5,-2,-2,-4,-2,0,-1,0
1558440680269848,-10,-3,-3,-2,-7,-7,-6,-7
1558440680282813,-10,1,2,0,-4,-8,-4,-1
1558440680282813,-1,-1,0,-2,2,3,-2,-5
1558440680291801,-11,-2,-3,-1,2,0,4,5
1558440680291801,11,3,2,2,0,3,1,5
1558440680305751,6,3,-1,-1,-2,-6,-3,1
1558440680305751,-1,2,6,1,7,8,5,0
1558440680312733,-15,-7,-6,-4,-8,-8,-6,-7
1558440680312733,-4,-3,3,2,-2,1,2,1
1558440680328696,-1,-2,0,-2,1,5,1,-1
1558440680328696,0,-2,4,-1,0,0,-1,-3
1558440680330683,13,2,1,5,-2,-1,-1,1
1558440680330683,-5,-3,-1,-3,2,0,0,-1
1558440680342652,3,-2,-3,-2,-4,-3,-3,-2
1558440680342652,-4,1,1,3,2,1,2,2
1558440680351628,2,2,2,-1,1,-3,-1,0
1558440680351628,2,0,-5,-3,1,3,1,0
1558440680365594,-16,-2,2,1,-4,-2,-2,-3
1558440680365594,-3,-4,-6,-3,-4,-3,-5,-4
1558440680379552,13,0,1,-1,-2,3,1,5
1558440680379552,-4,0,0,1,5,3,4,0
1558440680388535,26,2,5,2,3,1,1,4
1558440680388535,-10,-4,-8,-4,-3,1,-2,-6
1558440680395511,-4,-1,-1,-2,-1,-4,-4,-2
1558440680395511,-6,-3,-3,0,-5,-3,-4,0
1558440680411468,-1,-4,-1,-4,-2,1,-2,-7
1558440680411468,-3,-1,-3,-2,1,-5,0,1
1558440680412465,-3,1,4,1,0,4,-3,-7
1558440680412465,-1,-3,-7,-2,-2,-2,-1,2
1558440680433408,-2,-2,-6,-2,-1,-3,-1,-1
1558440680433408,-1,-1,-3,-1,-3,-3,-2,0
1558440680435404,-6,-6,-4,2,3,8,4,0
1558440680435404,-15,-2,3,0,0,-2,0,2
1558440680448367,-3,-1,-3,-2,-2,-2,-1,-1
1558440680448367,1,-3,-1,-3,-6,-6,-8,0
1558440680455350,-10,0,-1,-1,-1,2,1,-3
1558440680455350,2,-2,3,2,2,-2,1,-3
1558440680462331,-11,-1,0,4,4,2,6,0
1558440680462331,-4,1,2,-3,-3,-3,-3,-2
1558440680479285,9,1,-3,-1,1,-3,0,1
1558440680479285,5,1,9,-3,-4,-4,-4,-1
1558440680485269,-2,-3,-10,3,-1,-3,-6,-1
1558440680485269,3,0,-1,-2,-2,3,1,0
1558440680492255,-2,-1,1,-4,3,-10,2,1
1558440680492255,-2,-1,-1,2,2,6,0,0
1558440680508208,8,1,1,-3,-2,-3,-4,1
1558440680508208,-3,-1,-5,-2,-5,-2,-5,-2
1558440680515189,-3,0,-3,1,-6,-2,-2,-2
1558440680515189,7,-1,-1,0,4,5,3,-1
1558440680522171,1,3,2,-3,0,-8,0,0
1558440680522171,-1,-2,-4,-1,-3,-2,-2,-3
1558440680531147,5,-1,1,1,-1,1,-1,2
1558440680531147,-3,-1,-3,-2,0,-1,-1,-2
1558440680546110,-7,-2,0,0,0,3,-1,-5
1558440680546110,5,0,0,-1,-5,-9,-4,-2
1558440680552092,1,-2,2,-3,-4,-6,-3,-2
1558440680552092,-2,-1,-5,-1,7,9,7,4
1558440680568047,16,2,4,0,2,5,3,2
1558440680568047,-5,0,-3,-1,-1,-2,1,3
1558440680582010,1,-2,1,-3,-4,-3,-6,-6
1558440680582010,-7,-4,-6,-3,-7,-10,-8,-6
1558440680590985,-6,1,-1,-1,0,-5,0,1
1558440680590985,1,-2,-3,-3,-3,-3,-4,-6
1558440680592980,-1,-2,-2,-2,2,5,2,2
1558440680592980,-4,0,-4,0,1,0,0,-2
1558440680605946,-1,0,1,-3,-1,-1,-1,5
1558440680605946,-8,-3,-2,-3,-3,0,-2,-3
1558440680612927,-2,1,-2,3,-3,-6,-3,0
1558440680612927,-9,-6,-3,-2,0,-1,-3,-6
1558440680627887,-2,-4,-6,-3,-4,-6,-2,-3
1558440680627887,-2,-3,-4,-1,2,2,0,0
1558440680634894,-1,-1,2,1,-4,0,-5,-1
1558440680634894,-1,0,-2,-1,-3,-1,-1,2
1558440680651854,-4,0,4,0,1,-3,2,2
1558440680651854,3,-2,-16,0,2,-1,3,-2
1558440680652827,0,1,1,-2,-1,-4,-1,-3
1558440680652827,-1,-3,-2,-2,-3,2,-1,-2
1558440680665787,-2,-2,-3,1,-1,5,-4,-2
1558440680665787,-1,0,7,0,1,0,-1,-1
1558440680672768,8,0,-3,-4,1,1,5,2
1558440680672768,3,1,0,2,0,-5,-2,0
1558440680687765,-13,-3,-1,0,-3,3,-3,-3
1558440680687765,-1,1,3,-4,-3,-3,0,-2
1558440680694709,0,0,-2,-1,1,1,0,-2
1558440680694709,-1,-3,1,2,-2,-2,1,2
1558440680711666,4,1,2,-2,1,2,1,-1
1558440680711666,0,1,5,0,2,-3,0,2
1558440680712662,-3,-3,-6,1,2,5,1,-4
1558440680712662,-3,3,6,-3,0,-1,0,-1
1558440680725629,8,-2,-6,-4,-2,-2,-1,-3
1558440680725629,-3,-1,2,-1,0,3,0,0
1558440680732608,12,2,-1,-3,-4,-3,-4,4
1558440680732608,-4,-1,-2,-4,-4,0,-3,-5
1558440680748565,3,-1,4,1,2,-3,2,3
1558440680748565,-1,-4,-5,1,-1,1,0,0
1558440680754550,-4,-1,-3,-3,-2,-2,-2,-2
1558440680754550,6,-2,-7,-5,-5,-4,-5,1
1558440680771506,-2,3,6,3,2,5,0,-4
1558440680771506,3,0,0,-1,-5,-1,-3,-1
1558440680772502,-4,-2,-1,-1,0,-2,1,-6
1558440680772502,-13,-4,0,1,3,2,4,-1
1558440680785467,5,-3,-6,-3,-4,-9,-2,2
1558440680785467,-5,-2,12,1,4,5,2,-4
1558440680792448,4,-2,-5,-3,-4,-1,-5,-1
1558440680792448,-15,-2,1,0,-5,-1,-2,-5
1558440680808409,-1,-2,-4,-4,-4,-2,-2,-2
1558440680808409,-2,-2,-3,-2,-4,-7,-3,-3
1558440680815385,-4,-1,1,0,-1,-8,0,1
1558440680815385,7,0,-1,0,3,3,3,0
1558440680831343,-10,-3,-7,-3,-1,2,-3,-4
1558440680831343,-2,1,0,-1,-2,-1,-3,1
1558440680832344,-7,-7,-2,0,0,-3,-5,-5
1558440680832344,3,3,0,0,-1,-3,-2,0
