timestamp,emg1,emg2,emg3,emg4,emg5,emg6,emg7,emg8
1558440629955221,1,-5,-10,-6,0,3,2,-1
1558440629955221,3,3,2,19,2,5,5,5
1558440629957215,-8,-5,-3,-5,1,-4,-5,-9
1558440629957215,-6,-5,-13,-21,-12,-13,-9,-9
1558440629957215,1,0,2,14,-7,-8,-5,1
1558440629957215,3,1,-3,-6,1,7,1,5
1558440629958212,-5,-5,0,-11,0,2,-3,-9
1558440629958212,4,12,9,16,9,10,8,2
1558440629968187,-8,-11,-5,4,-4,-4,-7,-7
1558440629968187,-4,-8,-8,-22,-8,-7,-8,-4
1558440629983147,8,8,6,5,10,2,11,11
1558440629983147,2,3,10,14,3,3,0,4
1558440629985148,4,6,4,-10,-2,5,2,7
1558440629985148,-8,-5,-4,-3,3,-1,-1,-14
1558440630006085,-3,-5,-3,11,-8,-4,-2,2
1558440630006085,1,-3,0,-2,3,-5,-2,-3
1558440630007081,-4,-4,-3,-12,-4,-3,-7,-5
1558440630007081,2,2,0,7,-4,-1,-4,0
1558440630013066,2,2,-1,0,-7,-3,-3,1
1558440630013066,1,1,-1,-5,-1,2,6,7
1558440630035007,-8,-2,2,3,4,-1,-2,-11
1558440630035007,0,-1,-4,-5,-10,-7,-3,-3
1558440630036005,4,1,4,0,4,8,8,3
1558440630036005,1,-2,-3,-1,2,1,2,2
1558440630045978,-1,0,-7,2,-3,2,2,1
1558440630045978,-7,0,8,-4,-4,-7,-7,-6
1558440630057946,3,4,1,-1,3,10,1,-1
1558440630057946,-3,-4,-5,3,-3,-12,-4,-1
1558440630095844,-1,5,4,-10,-2,4,2,4
1558440630095844,-8,-9,-2,-22,-8,-2,-6,-4
1558440630096842,2,0,2,21,4,-12,1,5
1558440630096842,1,4,5,3,3,7,1,-5
1558440630097841,-1,-1,-4,-14,-1,-1,-2,-1
1558440630097841,-4,-4,-7,3,-5,-2,-3,-6
1558440630097841,-4,0,-1,-4,-11,-7,-9,-3
1558440630097841,1,2,1,-8,8,-2,1,4
1558440630108811,1,-4,-9,2,0,-6,-1,-2
1558440630108811,1,3,5,13,-8,-5,1,9
1558440630116788,-3,-3,-2,-11,-2,2,-3,-11
1558440630116788,2,2,-1,-8,-2,1,3,0
1558440630125766,-4,-4,-5,15,2,0,-3,-8
1558440630125766,-6,-5,-4,-2,3,1,-6,-1
1558440630139727,-4,-3,-5,-12,-4,0,-6,-6
1558440630139727,2,-2,0,8,3,2,5,2
1558440630146709,0,0,-7,-3,1,-1,1,2
1558440630146709,6,4,4,-1,8,5,6,11
1558440630153690,-2,0,1,-6,0,7,-1,-5
1558440630153690,-7,-6,-7,7,-6,-2,-11,-7
1558440630184608,-1,-1,1,-8,-11,-9,-3,0
1558440630184608,5,5,3,-2,3,-7,5,1
1558440630192586,-1,-3,0,5,4,7,2,-1
1558440630192586,-6,-3,1,-2,-6,-8,-8,-7
1558440630194582,1,3,3,1,5,8,3,0
1558440630194582,1,2,3,3,3,5,1,-3
1558440630199568,2,-2,-5,-3,-7,-4,1,12
1558440630199568,-6,-3,-5,-8,-6,-6,1,-15
1558440630206548,-6,-7,-1,2,-2,-3,-11,-1
1558440630206548,-8,-8,-9,2,-5,1,-9,-9
1558440630214527,-2,0,-5,-12,-5,1,-2,-4
1558440630214527,1,-1,-3,-7,-9,-13,1,3
1558440630238461,-1,2,3,9,13,12,6,-1
1558440630238461,0,1,3,5,6,-1,2,-1
1558440630238461,1,0,0,-1,1,0,-2,-2
1558440630238461,-4,-1,-5,-3,-13,-6,-9,0
1558440630244446,-1,-3,-1,-3,-3,-9,2,-3
1558440630244446,4,3,1,-2,7,4,9,5
1558440630259407,0,5,17,5,5,6,2,3
1558440630259407,-3,-5,-16,-6,-4,-1,-8,-6
1558440630266388,0,0,5,2,0,-3,-3,1
1558440630266388,0,-3,-8,-5,-3,2,-4,-5
1558440630274370,-2,-5,-14,-4,-4,-1,-2,-2
1558440630274370,1,1,9,9,11,6,10,5
1558440630289329,-1,-2,-4,-8,-6,-3,0,1
1558440630289329,0,1,4,-1,-9,-7,-3,-1
1558440630297308,-2,0,0,4,3,-2,-2,-5
1558440630297308,0,-2,0,-3,-1,0,-6,4
1558440630304286,2,4,-2,-2,-7,-4,-3,-9
1558440630304286,-1,-4,2,-2,-6,-1,-5,-2
1558440630320244,-3,-3,-5,-7,-9,-1,-4,-3
1558440630320244,6,5,4,6,13,2,15,10
1558440630335205,-5,-3,-3,-4,-3,-4,-1,0
1558440630335205,-2,3,5,3,-2,-2,-7,-4
1558440630335205,-3,1,-4,-1,-1,1,-2,-2
1558440630335205,0,0,22,13,10,-5,3,1
1558440630349167,1,3,-18,-11,2,8,1,1
1558440630349167,-5,-11,-23,-14,-10,2,0,-4
1558440630357147,-4,-3,-4,1,-4,-11,-6,-5
1558440630357147,-5,-8,-9,-6,-7,-2,-8,-8
1558440630364126,3,2,20,15,17,9,11,8
1558440630364126,-2,3,7,4,3,1,-2,-1
1558440630396044,1,0,-9,-3,-1,-3,2,2
1558440630396044,-2,2,0,-9,-13,-5,-8,-3
1558440630398045,0,-2,-1,0,-6,-2,-5,-4
1558440630398045,2,-2,-3,1,3,4,5,1
1558440630398045,1,4,15,2,6,3,7,4
1558440630398045,1,5,-2,-3,-5,0,-7,-2
1558440630411002,0,-4,-5,-7,-9,-9,-6,1
1558440630411002,2,3,9,5,8,1,5,3
1558440630416985,-3,-7,-5,4,-1,-4,0,-1
1558440630416985,-8,0,-7,-4,-7,-5,-1,-4
1558440630423966,-1,-6,-16,-15,-5,7,2,0
1558440630423966,-3,-4,2,5,1,-2,-3,-3
1558440630439925,1,2,10,-2,1,3,-1,1
1558440630439925,4,1,-5,-4,5,12,1,5
1558440630446907,-2,2,12,26,18,-2,4,2
1558440630446907,-6,-8,-17,-30,-21,-12,-6,-6
1558440630462862,-3,-3,-3,3,0,-3,-4,-4
1558440630462862,0,-1,0,-11,3,3,3,2
1558440630468849,-3,1,6,9,0,1,-9,-8
1558440630468849,-1,-2,-8,-11,-5,-2,1,1
1558440630485803,6,3,4,9,4,-15,-6,7
1558440630485803,3,3,3,2,0,2,18,1
1558440630486799,0,-2,-11,1,1,6,3,0
1558440630486799,-2,3,10,7,2,0,-5,-4
1558440630499800,-1,-4,4,5,-2,-5,2,0
1558440630499800,-4,-1,-8,-12,3,0,-22,6
1558440630506744,-2,2,8,1,-5,0,25,9
1558440630506744,-1,-6,-9,-3,3,3,3,3
1558440630522703,-2,3,-1,1,-2,-2,-4,-10
1558440630522703,-3,-6,-1,5,0,3,-6,-1
1558440630536665,-1,-9,2,1,-5,-6,-13,-6
1558440630536665,2,1,4,4,4,-6,2,0
1558440630545645,-5,-5,-5,-3,1,1,-7,-7
1558440630545645,1,8,10,10,2,-1,5,-1
1558440630546640,-3,-6,-9,-17,-7,-6,-10,-3
1558440630546640,4,8,7,3,-1,3,5,1
1558440630559604,0,-7,4,-2,1,-1,1,3
1558440630559604,-2,-2,-8,-3,-7,-6,-1,-3
1558440630566585,-2,3,0,-7,-3,-1,-4,3
1558440630566585,-1,-1,-3,10,4,-7,-3,-5
1558440630582542,1,-1,-6,-10,-5,10,5,5
1558440630582542,-5,-7,-11,-4,-6,-9,-6,-14
1558440630597504,-1,8,18,9,2,-2,-2,-3
1558440630597504,-3,1,0,1,4,3,0,-7
1558440630597504,-4,-1,-3,-8,-5,-5,-2,-2
1558440630597504,6,3,1,3,5,0,4,3
1558440630613460,1,0,3,-2,-5,-5,-7,0
1558440630613460,1,7,-8,-4,-7,-7,-8,-3
1558440630619445,1,0,9,4,10,5,8,5
1558440630619445,-2,-11,-7,4,-4,0,-1,7
1558440630626425,-10,-25,-14,-13,-16,-9,-5,-5
1558440630626425,-1,-8,4,-3,-6,-6,-4,5
1558440630650362,0,3,-15,2,5,-1,1,-5
1558440630650362,10,22,23,11,11,15,10,3
1558440630652356,2,11,-3,0,2,-3,-8,-1
1558440630652356,2,11,4,-5,-9,5,4,7
1558440630656347,-7,-6,-12,-6,1,3,-3,-7
1558440630656347,-12,-12,4,-3,-8,-1,-3,-8
1558440630665321,-21,-39,-14,1,6,0,-3,-5
1558440630665321,-8,-7,1,3,-2,-10,-10,-25
1558440630680280,9,10,7,-2,-4,-6,2,6
1558440630680280,3,8,-1,2,8,5,2,-1
1558440630686267,8,14,5,-3,-6,0,-1,-3
1558440630686267,-2,-6,-12,1,2,-6,-5,6
1558440630702223,0,0,4,-1,2,4,5,3
1558440630702223,2,-7,-10,-2,-1,-1,-2,-2
1558440630709203,5,11,7,3,-4,-12,-5,0
1558440630709203,-2,-1,-15,-1,9,19,6,1
1558440630716184,-2,3,-3,-3,-9,-5,-6,-5
1558440630716184,8,10,7,1,-3,-5,2,12
1558440630725444,-5,-9,-2,-1,-2,-3,-8,-16
1558440630725444,-5,-6,2,-4,-2,-1,-2,1
1558440630740122,4,-7,-3,-4,1,0,4,12
1558440630740122,-21,-12,-10,-1,-1,-5,-7,-21
1558440630747103,-7,-7,-8,-4,-3,-2,3,2
1558440630747103,0,0,10,5,-2,-2,-6,3
1558440630762067,1,2,-7,-2,-7,-3,-8,0
1558440630762067,9,-2,3,-3,-2,-24,-3,0
1558440630769046,-10,-11,-2,-1,7,8,-1,-8
1558440630769046,-3,-2,-1,-1,0,2,-4,-3
1558440630792979,-1,-11,-1,-5,-4,1,-1,4
1558440630792979,-2,2,-2,-3,0,0,1,0
1558440630793977,9,16,10,2,1,3,7,8
1558440630793977,3,0,1,2,1,-4,4,1
1558440630799961,-3,-15,-2,-2,-3,2,-1,-8
1558440630799961,18,23,7,-1,5,3,3,9
1558440630813925,-4,4,-7,-1,-1,3,-1,0
1558440630813925,-6,-18,-3,-5,-5,-3,-3,-7
1558440630821903,-16,-9,0,-1,-2,2,-4,-8
1558440630821903,-11,-23,-5,-1,-1,2,-4,-5
1558440630836862,-1,9,-1,-3,-2,2,-3,-5
1558440630836862,5,-5,-4,1,3,3,7,4
1558440630837859,-1,8,1,0,5,4,2,13
1558440630837859,-4,-9,-1,3,0,5,-1,-6
1558440630851822,5,2,-4,-2,-5,2,-2,1
1558440630851822,-2,9,5,2,2,4,-4,-5
1558440630859807,6,-2,8,-6,0,-11,4,2
1558440630859807,-1,-1,-12,-6,-4,3,-2,10
1558440630867784,0,1,0,0,-4,-8,-5,-11
1558440630867784,6,4,7,2,0,3,6,6
1558440630890719,22,33,-2,1,1,3,9,16
1558440630890719,-23,-31,-7,2,0,-3,-13,-33
1558440630891717,-13,-19,-2,-3,-2,-5,-1,-1
1558440630891717,10,19,1,2,1,9,1,0
1558440630896702,-20,-13,5,1,1,-7,-3,-15
1558440630896702,5,13,-19,-10,-6,-8,0,10
1558440630912661,0,-22,5,6,7,6,7,10
1558440630912661,0,1,-3,1,-2,-3,-6,-6
1558440630919640,-5,-1,5,-2,2,8,2,-2
1558440630919640,-5,1,0,0,-4,3,-2,-5
1558440630926622,7,16,0,-2,-4,-2,0,4
1558440630926622,-6,-5,1,-6,-7,-10,-5,-7
1558440630942580,8,4,-6,5,6,4,1,-1
1558440630942580,2,-4,5,4,3,-1,3,2
1558440630949565,7,10,-3,-2,1,1,2,6
1558440630949565,-2,-6,-4,-12,-10,-9,-3,2
1558440630964525,-7,-3,-4,1,-2,-11,-7,-12
1558440630964525,-1,-9,0,-5,-6,0,2,-1
1558440630971504,8,9,14,0,4,10,4,4
1558440630971504,2,3,-16,2,-3,-3,4,7
1558440630979484,-10,-9,2,1,0,0,-11,-12
1558440630979484,3,6,4,2,7,2,5,3
1558440630986464,-1,0,-9,-3,-7,-7,-6,-2
1558440630986464,0,1,3,1,3,0,-4,-3
1558440631002425,0,-4,-7,-9,-3,1,5,-1
1558440631002425,-2,5,5,4,-2,4,-2,-3
1558440631025364,-3,-9,-11,-5,-2,-1,2,-5
1558440631025364,-1,-2,4,1,0,-6,-1,4
1558440631026360,2,0,-1,0,0,10,3,-4
1558440631026360,5,4,0,1,1,-6,0,6
1558440631040322,-6,-6,-5,-1,1,1,2,-5
1558440631040322,0,0,-2,-5,0,0,0,8
1558440631041319,4,2,4,3,0,5,-2,-2
1558440631041319,-11,-13,-6,-4,-5,-3,-3,-6
1558440631046307,1,3,3,-4,-2,-4,-2,-5
1558440631046307,5,0,4,5,5,0,5,8
1558440631062269,-3,-1,11,-3,-9,-12,-6,-9
1558440631062269,5,3,-5,-5,-1,1,-3,5
1558440631069247,-2,-2,-1,3,0,2,0,-7
1558440631069247,-2,-5,-7,1,9,-6,5,2
1558440631093181,4,5,6,2,2,4,3,7
1558440631093181,2,3,0,1,-4,-3,-2,-4
1558440631094180,-3,-1,-9,-6,-8,0,-12,-3
1558440631094180,-5,-9,2,0,-5,-1,-3,-8
1558440631115224,7,12,-1,-2,4,-6,2,0
1558440631115224,-8,-5,3,-3,-2,5,-1,-3
1558440631117219,-1,-21,-8,1,1,-4,5,11
1558440631117219,-5,0,0,0,-4,0,-10,-15
1558440631122204,-14,-17,-15,-5,-14,-13,-13,-10
1558440631122204,3,8,7,4,11,14,13,8
1558440631129289,4,11,9,1,7,1,3,2
1558440631129289,-3,-5,-1,-2,-7,-8,-5,-3
1558440631145144,2,1,-3,3,5,8,2,0
1558440631145144,2,-1,-4,-7,-7,-8,-5,2
1558440631152123,-12,-10,-5,-1,-1,5,0,0
1558440631152123,6,5,-3,-7,-1,0,2,6
1558440631168087,-6,-9,-5,3,-7,-8,-6,-6
1558440631168087,0,4,4,0,0,-9,2,-2
1558440631169079,-2,-2,8,-1,3,6,1,-2
1558440631169079,-4,-4,-21,-4,-6,-3,-6,-4
1558440631183043,-4,0,0,-2,-3,3,-2,-1
1558440631183043,0,-2,-5,-3,-1,4,-3,0
1558440631190099,5,8,9,1,-3,-15,-2,2
1558440631190099,0,11,9,2,6,6,7,2
1558440631205047,-8,-23,-8,-1,0,3,-4,0
1558440631205047,-3,-5,-1,-2,-2,2,-4,-7
1558440631228987,7,13,1,0,-6,-3,-2,2
1558440631228987,-1,-5,0,-5,-5,-10,-3,-5
1558440631228987,3,10,1,0,10,6,8,3
1558440631228987,-12,-15,-5,-3,-10,-10,-7,-4
1558440631230912,1,2,-3,1,-1,-2,0,2
1558440631230912,0,4,6,3,8,8,6,1
1558440631242881,1,-6,-8,-3,-8,-1,3,4
1558440631242881,3,1,6,-1,0,-1,-3,0
1558440631248970,1,2,-4,-5,-3,-2,-1,-3
1558440631248970,-12,-9,-5,0,-8,-1,-8,-11
1558440631264821,11,18,19,7,5,-3,4,8
1558440631264821,1,-7,-8,-2,0,-9,2,1
1558440631271809,2,2,-9,-2,-1,2,0,1
1558440631271809,1,-3,2,2,1,3,-2,4
1558440631296062,-7,-3,-5,-6,-6,-2,-11,-12
1558440631296062,1,1,1,-1,-3,5,2,0
1558440631296741,-5,-1,1,2,2,-4,2,-5
1558440631296741,-1,3,5,0,0,-3,0,2
1558440631302720,2,3,-5,-4,-5,-3,-2,6
1558440631302720,1,-1,1,0,3,4,-3,-3
1558440631309708,-3,-10,-6,2,2,3,-4,-2
1558440631309708,-4,-4,-4,-3,-6,-2,-2,-2
1558440631324702,-1,-2,5,-3,0,1,1,-1
1558440631324702,-1,4,1,1,0,-5,0,0
1558440631331643,2,12,8,-2,2,1,1,0
1558440631331643,0,-19,-8,-5,-7,-4,1,5
1558440631347599,-2,1,-4,0,-5,-4,-5,-4
1558440631347599,-1,-2,1,2,3,4,0,-2
1558440631349595,0,-2,-1,1,0,-5,-3,0
1558440631349595,-1,2,3,0,5,3,1,-2
1558440631362561,-3,-1,-4,-1,-5,0,-2,1
1558440631362561,1,-4,-3,-4,-1,-11,-2,4
1558440631369539,-2,-1,-7,0,-7,-8,-9,-8
1558440631369539,1,3,4,2,4,5,3,3
1558440631384500,0,-3,-5,-4,-2,0,-3,-3
1558440631384500,1,5,-4,-1,3,11,5,1
1558440631391481,5,4,4,4,10,8,10,8
1558440631391481,-1,0,-4,-3,-4,-1,-1,-2
1558440631408435,-7,-12,3,-1,1,-9,1,-1
1558440631408435,1,2,12,-2,-7,2,-7,-4
1558440631409436,1,-1,-1,-1,-5,-4,-2,1
1558440631409436,4,5,0,0,9,10,6,3
1558440631422772,0,-2,-3,-3,-7,-8,-3,3
1558440631422772,1,7,-4,4,3,7,1,2
1558440631429746,-11,-12,0,-2,-3,2,-5,-10
1558440631429746,-4,-5,-10,-2,3,-1,-2,-2
1558440631445688,2,7,7,1,2,5,0,-1
1558440631445688,0,-7,-4,-1,-1,-13,-1,6
1558440631451321,1,3,-1,-2,-1,-6,-1,0
1558440631451321,-3,1,2,-3,-8,-6,-6,-7
1558440631468438,-3,-5,-8,1,-1,4,0,-3
1558440631468438,0,2,-3,0,2,-2,0,-4
1558440631469471,8,8,-9,-5,-3,-9,5,12
1558440631469471,-2,-2,5,1,-5,-3,-5,-3
1558440631498580,-8,-19,-8,-2,-7,-5,-7,-8
1558440631498580,-4,-7,-4,-1,1,4,1,-3
1558440631499363,3,5,10,3,3,5,4,1
1558440631499363,8,7,-15,-1,0,-4,1,7
1558440631505346,-6,5,0,-1,1,4,-2,-5
1558440631505346,-1,-4,-4,-1,-5,-5,-1,-1
1558440631519311,-4,-8,0,-2,-7,0,-6,-2
1558440631519311,4,3,7,3,7,0,6,-2
1558440631528501,2,7,-3,-2,4,3,1,-3
1558440631528501,-10,-7,-2,-2,-6,-7,-6,-9
1558440631529283,1,-1,-2,-4,0,-5,2,4
1558440631529283,-6,-10,-1,-2,-1,2,-6,-6
1558440631541253,2,1,-3,-1,1,-4,1,1
1558440631541253,7,9,13,2,-1,-11,3,4
1558440631550224,-13,-15,-15,-1,-2,8,-5,-8
1558440631550224,-4,6,-5,-1,-5,-5,-3,-3
1558440631573162,-4,-19,-2,-3,0,-1,0,-4
1558440631573162,0,-3,-8,-3,-1,5,-1,3
1558440631574160,1,-2,4,-2,-6,-4,-5,-1
1558440631574160,0,5,9,2,-3,-3,1,-6
1558440631596100,5,8,2,6,18,18,19,15
1558440631596100,-2,0,-2,-4,-6,-4,-9,-11
1558440631597097,2,3,0,2,1,3,-1,-1
1558440631597097,-4,-15,2,-4,-5,-4,-5,-2
1558440631602084,8,12,-1,-6,-12,-20,-5,3
1558440631602084,-10,-9,-8,0,8,2,2,1
1558440631610061,-5,2,4,-1,-4,-2,-7,-7
1558440631610061,2,-3,-2,0,4,0,5,7
1558440631625023,-7,-6,-7,-4,-6,-2,-7,-8
1558440631625023,-2,4,-1,3,-1,3,-1,-4
1558440631632363,5,3,-3,-3,-2,4,1,0
1558440631632363,-10,-7,-4,-3,-3,-1,1,-2
1558440631648303,0,-11,-3,1,2,-5,-1,5
1558440631648303,1,1,6,-1,1,-5,-3,3
1558440631648959,1,6,4,4,2,-2,0,-7
1558440631648959,7,5,-5,0,4,11,7,8
1558440631671312,-1,0,7,1,-4,0,-5,-2
1558440631671312,-3,-9,-16,-8,-6,6,-3,-1
1558440631671901,-1,-6,-3,-3,-1,-10,-1,-4
1558440631671901,0,9,3,3,5,0,3,2
1558440631684863,3,2,4,0,0,-1,2,5
1558440631684863,-1,-6,-5,-1,-4,-4,-5,0
1558440631692121,-3,-1,2,2,2,0,-4,-8
1558440631692121,-4,1,-4,-1,-4,-3,-6,-7
1558440631707802,-6,-4,2,-1,5,6,4,1
1558440631707802,0,-1,2,-2,-3,1,-3,0
1558440631709798,2,1,-2,-3,-4,2,1,5
1558440631709798,-5,-1,-1,-3,-5,-10,-8,-4
1558440631721765,5,4,-3,1,3,3,3,2
1558440631721765,2,7,4,2,4,0,0,1
1558440631730741,0,-2,-5,-4,-4,-3,0,2
1558440631730741,1,-3,1,1,1,6,4,2
1558440631744788,-2,3,-5,-4,-8,-4,-7,-7
1558440631744788,-4,0,-1,-1,6,3,3,2
1558440631751686,8,16,4,1,3,-4,3,2
1558440631751686,-4,-5,-5,-3,-7,-8,-3,-4
1558440631775618,-10,-27,-9,-4,-10,-10,-8,-4
1558440631775618,5,4,3,0,-3,8,2,1
1558440631782636,-7,-14,-4,1,2,-2,0,-2
1558440631782636,9,13,-3,1,5,2,-1,1
1558440631782636,2,6,-4,-3,1,0,2,0
1558440631782636,-1,3,3,-1,-4,-6,-2,-3
1558440631798036,-14,-14,-3,0,-3,-4,-3,5
1558440631798036,-4,-6,-2,-4,-3,-7,-4,-6
1558440631804544,4,13,3,2,1,-4,-1,2
1558440631804544,4,2,-2,-2,-7,-5,-3,-5
1558440631812572,-2,-2,-6,-1,3,10,3,0
1558440631812572,-1,2,7,1,4,4,6,4
1558440631827909,-7,-21,-3,-4,-3,-7,-5,-6
1558440631827909,4,-4,-3,1,-7,-11,-5,0
1558440631834480,-6,25,2,-2,-3,-1,-5,-11
1558440631834480,26,36,13,3,11,13,8,11
1558440631841445,-32,-27,-15,-4,-4,-2,-6,-16
1558440631841445,-12,-29,-9,-7,-3,-3,1,-3
1558440631858398,0,-4,0,0,2,-11,1,0
1558440631858398,9,12,1,-1,-4,-6,-4,-2
1558440631873599,7,24,4,4,5,7,6,9
1558440631873599,-2,3,2,-3,-1,-2,-3,1
1558440631874358,9,17,0,-2,-1,6,-3,-3
1558440631874358,-13,-33,0,0,-2,-2,3,0
1558440631887552,16,31,8,2,3,4,5,3
1558440631887552,-7,-24,-3,0,1,-10,-1,-2
1558440631894527,6,2,0,-1,-3,1,0,2
1558440631894527,-3,-6,-9,-3,-5,-1,-6,-1
1558440631901289,5,-11,-1,-3,-7,-10,-6,-2
1558440631901289,3,25,-1,-2,4,11,7,7
1558440631910260,-7,-9,4,1,6,14,1,-5
1558440631910260,-11,-14,-8,-6,-7,-2,-7,-11
1558440631925476,0,5,1,2,2,-1,3,0
1558440631925476,11,35,8,7,5,-6,5,-3
1558440631932433,-14,-34,2,-5,-4,-7,-5,-1
1558440631932433,-11,-9,-6,-5,-3,6,-7,-9
1558440631947191,7,11,2,1,2,5,-1,0
1558440631947191,1,6,6,1,1,-10,2,4
1558440631954179,-2,-7,-9,0,-1,0,1,-1
1558440631954179,-5,-6,0,-1,-3,-4,-4,-3
1558440631978078,4,14,-1,-1,-8,-5,-10,-3
1558440631978078,4,-3,-3,-5,4,17,8,1
1558440631979075,12,32,8,0,6,-11,4,7
1558440631979075,-14,-33,-9,-4,-4,-3,-1,2
1558440631985060,-5,-2,-1,-2,0,-2,-1,-6
1558440631985060,-10,-19,-6,-1,-2,-2,-7,-7
1558440631992046,7,13,1,2,0,3,2,1
1558440631992046,6,9,5,-2,-1,-1,1,2
1558440632007040,-10,-27,-10,-8,-7,-4,-7,-5
1558440632007040,3,6,1,-2,-5,2,-6,0
1558440632014426,-1,-7,6,4,6,6,9,8
1558440632014426,7,9,2,3,2,-15,0,-1
1558440632031409,-1,-3,-1,-3,1,5,3,1
1558440632031409,8,20,5,4,-5,-13,-2,0
1558440632032970,-8,-20,-9,-6,-2,6,-1,-2
1558440632032970,-3,0,-2,0,-3,2,-4,-1
1558440632052880,24,12,10,9,11,13,14,16
1558440632052880,-18,-20,-6,-6,-6,-5,-5,-3
1558440632054876,-2,1,-3,-5,-8,-8,-10,-6
1558440632054876,2,13,4,0,-3,-1,-3,-2
1558440632076116,-13,-24,-7,-2,0,-3,1,-1
1558440632076116,2,6,-1,2,8,6,4,2
1558440632076817,-1,-13,-5,-2,1,0,1,1
1558440632076817,1,1,-1,1,1,5,-1,1
1558440632098055,3,15,4,-2,-6,-7,-5,-7
1558440632098055,-7,-13,0,-1,0,12,1,-5
1558440632099756,0,-8,-5,-1,-7,-7,0,2
1558440632099756,1,0,1,0,6,-5,1,2
1558440632105029,2,9,0,-1,-3,-7,0,2
1558440632105029,4,7,-2,1,-4,-3,-6,-4
1558440632112052,-7,-26,-7,-3,-3,6,-2,-1
1558440632112052,1,7,1,-2,-2,0,4,-1
1558440632127680,-10,-19,-4,-1,-1,-1,-1,1
1558440632127680,1,2,3,1,-4,-7,-4,0
1558440632133662,-2,4,-7,-3,-6,-5,-7,-13
1558440632133662,0,1,6,2,0,0,2,5
1558440632150616,-2,-11,-6,-3,-1,4,0,-4
1558440632150616,1,14,2,0,7,5,7,8
1558440632151649,-2,-1,-3,-1,2,-8,-4,0
1558440632151649,-1,-8,2,-1,-3,-1,-3,-4
1558440632164580,-4,2,-1,-1,-7,-6,-9,-3
1558440632164580,0,0,2,-1,3,-5,2,-2
1558440632179540,7,7,1,2,2,11,5,4
1558440632179540,-8,-1,-7,-2,-3,1,-3,-8
1558440632187546,1,-8,-1,-3,-1,-6,-1,-2
1558440632187546,-3,-10,-7,0,-7,-2,-7,-3
1558440632201481,-7,-4,-4,-5,-7,-12,-4,-4
1558440632201481,3,1,-9,-6,-3,-3,-2,1
1558440632210484,-3,1,3,-1,1,0,2,5
1558440632210484,0,-3,-5,3,10,16,9,3
1558440632211453,2,-1,9,5,0,-4,2,-6
1558440632211453,-1,2,-3,-2,-3,0,-5,-4
1558440632224418,9,17,3,0,0,3,0,3
1558440632224418,-12,-30,-10,-3,-9,-3,-5,-8
1558440632231435,0,7,0,-1,5,3,-2,-2
1558440632231435,-4,-5,-4,-4,-3,-8,-1,-3
1558440632255396,1,2,2,2,-1,0,4,1
1558440632255396,-2,0,-1,-4,-2,3,-4,0
1558440632257365,3,11,7,-1,-4,-4,-7,-3
1558440632257365,-9,-12,-14,0,5,-4,0,3
1558440632278275,-6,-2,-3,-2,2,7,-3,-5
1558440632278275,0,-1,1,-4,-5,-2,-3,2
1558440632279272,-4,-9,-7,-2,-3,-7,-1,-6
1558440632279272,0,4,5,-2,-2,5,-3,-4
1558440632285256,0,4,-5,-4,-4,-8,-6,-2
1558440632285256,-2,-4,0,-1,1,-1,0,-5
1558440632291242,1,7,3,3,1,3,3,4
1558440632291242,0,3,2,2,-4,-7,0,-1
1558440632307234,1,3,-4,-2,0,5,-3,-4
1558440632307234,-4,-14,-2,0,-5,-5,-3,-3
1558440632314239,3,4,0,1,6,5,7,6
1558440632314239,-1,-8,7,-1,-4,5,-1,-1
1558440632330137,-1,2,-11,-7,-5,-9,-3,1
1558440632330137,-1,4,2,2,5,0,5,-1
1558440632332132,-6,-1,-1,-3,1,6,-1,-1
1558440632332132,-6,-7,-9,-2,3,3,-1,-3
1558440632354074,-6,-8,0,1,-2,-10,-3,-1
1558440632354074,3,8,-1,-6,-5,-7,-7,-3
1558440632354074,-6,-15,-14,-4,-8,-4,-4,-5
1558440632354074,1,-7,0,2,0,-3,2,3
1558440632368034,4,5,8,0,4,12,5,-2
1558440632368034,1,-2,-3,-2,0,-4,2,1
1558440632374019,-3,6,6,-3,-6,-2,-5,1
1558440632374019,1,11,1,2,-2,-11,-4,-1
1558440632390003,-10,-16,-5,1,7,12,2,3
1558440632390003,0,-12,-4,0,-4,-3,-2,-7
1558440632390003,3,6,-1,-1,-1,2,-3,-2
1558440632390003,1,-7,-3,-4,-8,3,-2,-2
1558440632405933,0,3,-1,0,2,-5,4,3
1558440632405933,4,10,3,3,7,8,7,0
1558440632411956,-2,-2,1,0,-2,2,-2,-4
1558440632411956,-1,-15,-4,-3,0,2,1,2
1558440632428873,2,2,4,-2,-3,-9,-4,-5
1558440632428873,0,3,0,0,-3,2,-3,4
1558440632433859,3,0,2,-3,-2,-10,-2,3
1558440632433859,3,9,0,0,-1,-1,-1,-1
1558440632449816,-8,-6,0,-2,-5,1,-7,-5
1558440632449816,0,5,-2,-3,0,1,-2,-1
1558440632450815,3,1,-2,3,11,2,8,5
1558440632450815,-4,-3,3,2,2,-2,3,-1
1558440632465772,-1,2,0,-2,-3,0,-4,-7
1558440632465772,1,0,-5,-4,-7,0,-6,-1
1558440632478739,-3,-6,-3,-1,-4,-6,-1,0
1558440632478739,0,4,0,4,6,4,3,-2
1558440632487714,2,7,1,0,1,-4,2,-2
1558440632487714,-6,-7,-2,-4,-6,-11,-7,-5
1558440632502710,0,-1,-2,0,-1,2,-3,0
1558440632502710,1,5,1,-3,-1,7,1,9
1558440632509694,4,4,2,1,0,-3,2,2
1558440632509694,-6,2,-2,1,0,-4,-2,-9
1558440632510694,-2,-6,-4,-4,-1,-3,0,1
1558440632510694,-4,-2,3,-1,-1,1,0,-4
1558440632533593,-3,-14,-6,-3,-3,0,-3,2
1558440632533593,5,5,2,1,-7,-6,-3,4
1558440632534592,2,0,-3,-5,-5,3,0,-4
1558440632534592,-4,5,-1,-1,3,-1,-2,-6
1558440632556569,3,-1,5,0,1,-3,4,7
1558440632556569,4,1,2,1,6,6,5,5
1558440632556569,-5,-6,-9,4,7,9,0,-2
1558440632556569,-5,-11,-2,-4,-9,-8,-10,-6
1558440632569495,0,0,-2,-1,-2,2,-1,-5
1558440632569495,-2,-2,1,-2,2,2,2,2
1558440632570493,1,2,1,-2,-6,0,-3,-3
1558440632570493,4,6,-5,0,-2,-1,1,-1
1558440632592468,-8,-8,-5,-3,-2,-3,-4,-3
1558440632592468,-3,-3,2,-2,-7,-6,-2,-1
1558440632593433,0,8,2,2,3,0,1,0
1558440632593433,-5,-13,-1,-2,1,1,1,-4
1558440632608391,8,12,0,0,1,2,3,-1
1558440632608391,2,12,7,3,0,0,1,1
1558440632614377,-12,-23,-10,-5,-7,-8,-10,-9
1558440632614377,1,5,4,1,-1,-1,-3,2
1558440632631329,-2,-5,-3,1,0,6,-1,-4
1558440632631329,4,5,-3,0,3,-10,3,5
1558440632632343,0,0,1,-1,-2,-2,1,1
1558440632632343,-2,-4,0,-3,-1,-4,-3,-3
1558440632652275,-4,1,1,4,4,10,3,-1
1558440632652275,-2,-5,-6,-3,-7,-5,-6,-3
1558440632653273,1,4,5,0,3,-4,3,0
1558440632653273,0,3,-4,0,-4,2,0,0
1558440632668233,4,1,9,2,2,-2,6,2
1558440632668233,-6,-12,-6,-3,2,4,-1,2
1558440632682195,0,-2,1,2,6,7,6,0
1558440632682195,3,6,2,2,-2,-7,-2,2
1558440632690182,-1,6,-1,-2,-2,-6,-5,-2
1558440632690182,0,-6,-5,-5,-4,10,-2,-2
1558440632690182,-3,-3,-1,1,-2,-8,-4,-5
1558440632690182,1,4,0,-3,2,2,2,2
1558440632712156,-2,-8,-2,-2,-3,-2,0,0
1558440632712156,-3,-2,0,0,-2,-10,-3,-5
1558440632713151,2,1,-4,-2,-6,-3,-4,4
1558440632713151,0,-2,-1,-3,-1,-13,-3,0
1558440632736050,-6,-4,-4,0,-1,1,-3,-6
1558440632736050,-2,-1,-1,1,4,6,1,-3
1558440632737074,0,3,0,-3,1,-5,1,3
1558440632737074,-2,-5,-1,-2,-5,-1,-4,-1
1558440632749054,1,0,0,0,-2,0,-5,-1
1558440632749054,-1,-3,-2,-3,-3,-2,-3,-1
1558440632757000,5,3,3,0,4,1,3,1
1558440632757000,2,1,-1,2,2,4,1,5
1558440632771989,-4,-2,-1,-1,4,-1,1,-3
1558440632771989,-1,3,2,1,-1,-5,-1,-5
1558440632772954,-2,-3,0,-3,-8,3,-4,-2
1558440632772954,-1,-1,-1,-2,0,1,-1,-2
1558440632787911,2,1,-2,-3,-2,3,-2,0
1558440632787911,2,1,0,-3,-4,-1,-1,4
1558440632793897,-5,2,-1,0,-8,-8,-4,-10
1558440632793897,-3,2,-2,-2,-3,-13,2,-5
1558440632808855,0,-1,1,-1,1,-1,1,8
1558440632808855,-6,-11,-2,5,6,4,-1,-6
1558440632824847,2,5,-1,-2,1,0,-4,2
1558440632824847,0,-2,0,-1,-4,7,-2,-7
1558440632831793,2,8,2,-2,-5,-16,-6,1
1558440632831793,2,4,3,1,10,9,11,7
1558440632832791,-1,-5,-2,-2,1,-6,0,-1
1558440632832791,-2,-2,-1,0,-3,1,-2,-10
1558440632847751,-2,-6,-5,-2,-8,-16,-5,-2
1558440632847751,8,15,3,0,5,11,4,4
1558440632853771,-4,-15,-4,-3,-2,-2,-5,0
1558440632853771,-13,-17,-3,1,2,-3,-1,-6
1558440632868734,0,1,-3,-2,-1,2,1,2
1558440632868734,-6,-4,1,-2,-5,-19,-7,-13
1558440632876675,6,11,5,1,2,6,2,4
1558440632876675,1,2,-5,0,-3,1,-2,1
1558440632892631,-2,-6,0,-1,-3,3,-2,-9
1558440632892631,-2,-2,-3,-1,2,6,-2,2
1558440632892631,-1,-2,0,-1,-2,-15,-4,-2
1558440632892631,-3,-2,-11,-3,1,-3,2,3
1558440632907590,-4,-1,-4,1,-1,4,-2,-4
1558440632907590,-5,-9,2,0,-5,4,4,0
1558440632913574,-2,1,-2,-4,-3,1,-3,-4
1558440632913574,1,0,5,-1,0,-3,-2,2
1558440632937510,1,2,-4,-1,-1,-1,0,-1
1558440632937510,2,0,-2,-1,-5,-5,-10,-2
1558440632937510,-6,-6,-1,0,4,-1,3,-2
1558440632937510,1,3,2,-1,3,1,5,5
1558440632952843,-7,-9,-4,0,-1,2,1,-6
1558440632952843,-1,1,-1,-5,-7,-4,-7,-5
1558440632952843,3,4,3,4,5,12,5,-1
1558440632952843,2,0,-1,1,0,0,0,4
1558440632968429,0,-5,-4,-8,-8,-13,-7,-6
1558440632968429,-4,-7,-1,0,4,12,4,-4
1558440632982727,-2,-4,-5,-2,-6,1,-3,0
1558440632982727,2,9,6,3,5,-2,1,-2
1558440632989690,2,-1,3,0,2,1,1,3
1558440632989690,-2,-6,-4,-4,-4,-3,-3,3
1558440632996357,-3,0,-1,0,-2,2,-1,-3
1558440632996357,-1,-2,0,-2,-4,0,-2,-2
1558440633013345,6,6,5,0,5,5,6,7
1558440633013345,-8,-1,-7,-1,-6,-11,-7,-7
1558440633014307,4,4,3,-2,-4,-2,0,0
1558440633014307,2,-4,-17,-3,-2,4,1,1
1558440633028270,-5,-1,-2,-1,0,1,0,0
1558440633028270,-4,-13,0,1,-5,-6,0,1
1558440633034253,1,3,1,-1,7,8,6,3
1558440633034253,-7,0,-2,-5,-4,-1,-5,-6
1558440633049212,-1,-6,1,0,-5,-8,-2,0
1558440633049212,0,2,-4,-4,-3,-3,-4,-3
1558440633056195,-5,-3,-4,-1,0,1,-3,-2
1558440633056195,4,0,6,4,8,-3,6,5
1558440633072150,-7,-5,-4,0,0,6,-6,-6
1558440633072150,-1,1,1,-5,-8,-8,-7,-3
1558440633073148,2,4,-6,-4,-5,-5,-3,2
1558440633073148,-1,-1,-1,1,0,-5,-2,-1
1558440633088109,-10,-23,-4,-1,-2,2,-1,-4
1558440633088109,-1,-3,1,1,3,3,3,-3
1558440633094092,0,1,-1,3,1,7,0,3
1558440633094092,0,-1,2,-4,-6,0,-3,-2
1558440633110058,4,8,2,-2,2,-1,1,3
1558440633110058,0,1,-1,0,-5,-11,-2,6
1558440633116033,-6,-5,0,-2,1,-5,-1,-10
1558440633116033,3,10,5,0,-4,4,3,2
1558440633131991,-4,-4,-1,3,2,0,0,-5
1558440633131991,2,1,1,-1,2,3,-1,2
1558440633132989,1,2,6,-1,-1,-5,-1,-4
1558440633132989,-4,-5,-15,-6,-2,-1,-7,-6
1558440633147948,5,7,1,0,2,-2,0,9
1558440633147948,3,6,6,1,3,-1,5,0
1558440633170887,-4,-6,-3,-5,-6,-3,-3,-1
1558440633170887,-3,-2,2,-1,-5,2,-2,-3
1558440633171884,2,-3,-9,-1,2,6,1,1
1558440633171884,-2,1,0,-1,-1,-3,0,4
1558440633184852,-4,-3,1,0,-2,-5,-6,-12
1558440633184852,-1,-9,-1,-2,1,1,-2,5
1558440633191831,-4,6,-2,-2,-3,-3,-2,-8
1558440633191831,2,0,0,-3,0,-4,0,1
1558440633192827,-7,-5,-3,-1,-7,-6,-4,-4
1558440633192827,3,1,1,-3,-4,-2,-2,3
1558440633207787,-1,-2,3,2,3,-4,3,0
1558440633207787,-7,-7,-4,1,-2,6,-2,-7
1558440633213772,0,0,3,-3,-2,-5,1,0
1558440633213772,-4,-8,0,1,6,-1,1,0
1558440633236711,3,3,1,0,-2,2,-1,3
1558440633236711,-2,2,-2,-1,-5,0,-7,-10
1558440633237708,-2,-1,-6,-2,-5,-1,-7,-2
1558440633237708,3,-3,2,-2,11,10,14,8
1558440633252668,4,12,6,1,0,0,-1,-1
1558440633252668,0,-1,-3,-1,-1,-8,0,1
1558440633252668,-4,-11,-3,-1,-2,0,-3,0
1558440633252668,-6,-6,-7,-2,-8,-4,-7,-9
1558440633267629,3,7,-1,-5,-2,-4,0,2
1558440633267629,-1,-7,-4,-1,1,3,1,4
1558440633273611,-2,0,0,2,-2,-3,-2,-1
1558440633273611,1,5,3,2,6,2,4,0
1558440633290568,-1,-6,-5,-5,0,3,-1,2
1558440633290568,0,0,1,-2,-4,-5,-4,-2
1558440633296550,7,3,-3,1,2,-4,3,9
1558440633296550,0,4,4,3,1,-1,-4,-5
1558440633313505,-1,4,4,-3,-3,2,-3,-2
1558440633313505,-8,-5,-6,0,-2,1,0,-11
1558440633314503,3,-11,-1,-2,1,-10,6,7
1558440633314503,-6,-3,-6,-5,-10,-7,-11,-6
1558440633327468,1,3,1,3,1,0,0,0
1558440633327468,0,3,-4,-5,-8,-5,-5,1
1558440633334450,1,8,6,2,10,6,8,5
1558440633334450,-1,-11,2,2,-3,-1,-1,-3
1558440633349409,-6,-4,-3,1,-6,-3,-7,-9
1558440633349409,5,1,-3,-5,-3,-1,1,8
1558440633364374,-7,1,-6,-4,-1,-1,-8,-15
1558440633364374,1,5,-1,4,1,-5,-4,6
1558440633372463,-4,-7,0,1,8,0,4,1
1558440633372463,7,5,2,1,2,0,6,6
1558440633373352,-4,-12,-5,-2,-8,-4,-8,-2
1558440633373352,-7,-1,-2,-4,-7,1,-7,-16
1558440633388313,5,4,0,0,-5,-1,3,5
1558440633388313,2,5,3,1,3,-2,-2,4
1558440633394293,-8,-12,-5,-1,0,4,4,-3
1558440633394293,0,-2,2,-2,2,2,4,2
1558440633409256,-1,-2,-4,-2,-1,-6,-3,0
1558440633409256,3,8,1,1,4,6,1,1
1558440633416234,2,-1,0,-3,-4,0,-7,2
1558440633416234,-3,-7,-10,-5,-10,-4,-6,-3
1558440633440528,0,8,5,2,4,5,5,4
1558440633440528,-6,-13,-4,-2,-6,-9,-5,-6
1558440633440528,0,-1,-1,0,3,0,-2,7
1558440633440528,-4,6,3,3,6,7,6,-1
1558440633456176,3,-11,-3,-2,-2,-2,-4,1
1558440633456176,-4,1,0,1,-1,-7,-5,-5
1558440633457204,-3,0,-2,-3,-6,-2,-5,0
1558440633457204,4,-1,-2,-1,0,-3,2,0
1558440633469090,-2,4,-3,-3,-2,-1,-3,-2
1558440633469090,1,0,-1,0,1,-3,2,6
1558440633477072,2,1,0,2,-1,-7,0,-1
1558440633477072,-3,-2,-6,-3,-3,-3,-7,-4
1558440633493166,-6,-7,-7,-2,-2,2,-4,-7
1558440633493166,-2,-4,4,1,-3,-9,1,5
1558440633493166,5,8,2,2,5,3,4,3
1558440633493166,-3,-2,1,-1,-4,0,-4,-1
1558440633516363,-1,1,0,-2,-1,-1,2,2
1558440633516363,-3,-7,-4,1,7,14,1,-4
1558440633516963,4,9,3,-4,-7,-6,0,-1
1558440633516963,2,-5,0,-1,-1,-6,-3,9
1558440633537993,7,4,0,-1,-4,1,1,2
1558440633537993,-6,-1,-2,-3,-1,3,-2,-2
1558440633537993,-3,-12,-4,0,4,-1,2,-2
1558440633537993,3,6,1,-2,3,-1,1,1
1558440633551899,0,0,-2,-1,-6,-10,-8,6
1558440633551899,-11,-14,-10,-4,-6,-2,-9,-21
1558440633552866,2,7,6,1,-1,7,0,-2
1558440633552866,-3,-8,-3,0,1,2,-3,5
1558440633568826,-5,-6,0,-3,4,1,1,-3
1558440633568826,4,0,3,2,11,9,12,6
1558440633573843,-3,4,-3,-2,-5,-1,-6,-2
1558440633573843,-3,-1,-1,-4,-7,-7,-5,-9
1558440633588800,1,-2,5,-2,4,10,5,2
1558440633588800,1,3,-1,-1,-5,-11,1,-2
1558440633596787,0,6,5,2,2,5,5,1
1558440633596787,-2,-6,-4,-4,-1,-1,-1,-3
1558440633613712,-8,-3,-3,-6,-10,-10,-12,-14
1558440633613712,3,4,0,2,4,7,3,5
1558440633614703,6,9,0,-3,4,6,3,3
1558440633614703,-15,-31,-2,-3,-10,-7,-7,-8
1558440633627705,0,-2,-3,2,2,2,-3,-1
1558440633627705,-1,-5,-1,-2,-1,-1,-3,2
1558440633642629,3,8,-1,0,7,1,6,-1
1558440633642629,3,7,0,1,-1,2,1,3
1558440633648640,-4,-7,-4,-1,-1,-6,2,-1
1558440633648640,2,5,3,-2,-2,4,-2,0
1558440633656598,-2,-5,-4,-4,-5,-7,-5,0
1558440633656598,1,7,2,2,-2,-8,3,-1
1558440633671638,-3,-2,-7,-7,-5,-10,-2,-6
1558440633671638,2,1,0,-1,1,7,-3,-2
1558440633679573,-5,-12,0,4,2,0,0,-2
1558440633679573,8,6,4,0,4,0,1,9
1558440633687508,2,6,0,-1,-2,-1,1,4
1558440633687508,-1,0,-4,-4,-6,-1,-5,-5
1558440633694500,-5,-11,-2,0,-5,-1,-3,-5
1558440633694500,2,0,2,0,5,-6,4,2
1558440633718424,1,4,3,3,3,2,0,4
1558440633718424,-5,-10,-4,1,-4,-3,-1,-3
1558440633719420,-1,-3,-5,-2,-5,6,-6,-4
1558440633719420,-3,4,-4,-2,-4,-1,2,-4
1558440633732419,3,2,12,7,10,1,7,4
1558440633732419,-2,-2,-2,-2,-5,-3,-2,-6
1558440633739448,-2,-2,-4,-5,-6,-6,-2,5
1558440633739448,-3,1,0,-2,-4,-1,-4,-14
1558440633748488,-2,-7,1,1,5,6,2,0
1558440633748488,-4,0,0,1,4,8,2,-3
1558440633762452,3,8,-3,-5,-6,-6,-5,-2
1558440633762452,-3,-3,-3,-3,-10,-5,-6,-4
1558440633769429,-1,-9,-5,-3,-3,-4,-1,3
1558440633769429,2,11,3,-1,3,-3,2,0
1558440633793287,0,-6,-2,2,3,4,2,3
1558440633793287,-3,-2,0,-2,-3,3,-6,-9
1558440633794221,-4,-1,-4,-3,-2,-2,-2,-6
1558440633794221,-1,-4,-2,-3,-6,-3,-3,0
1558440633799206,-2,-2,-4,-1,-1,4,1,-4
1558440633799206,5,8,6,0,1,-9,5,9
1558440633816164,1,5,0,1,1,8,3,4
1558440633816164,1,-1,4,3,-1,-8,-1,8
1558440633817158,-7,-5,-3,-7,-2,0,-6,-13
1558440633817158,-2,-5,-5,-3,-1,1,-2,2
1558440633829157,2,2,0,0,-3,-13,0,-2
1558440633829157,3,1,-3,-3,-2,-2,3,5
1558440633845083,-8,-14,-2,2,0,2,-3,-7
1558440633845083,3,-2,-1,1,6,14,1,9
1558440633851077,3,4,-2,-1,-7,0,2,-3
1558440633851077,1,-2,3,-3,4,-5,1,-1
1558440633867025,2,5,3,0,-1,-4,2,6
1558440633867025,5,3,1,3,3,4,4,0
1558440633875132,-5,-13,-7,-3,-2,5,-5,-5
1558440633875132,-3,1,-2,-3,-6,2,-6,-2
1558440633876000,-1,6,1,1,0,-8,-1,5
1558440633876000,1,0,-3,1,6,1,6,4
1558440633889031,-3,-6,5,-2,-3,1,-4,-3
1558440633889031,0,1,0,-1,1,-2,-3,-1
1558440633897007,0,-5,-5,-2,0,1,2,-1
1558440633897007,-7,-7,-2,-2,-3,-1,-6,-7
1558440633911975,-4,-1,-7,-2,-3,-5,-5,-5
1558440633911975,1,-5,-1,1,0,7,0,4
1558440633918950,-1,4,-1,0,2,-4,3,-5
1558440633918950,1,-13,-7,-3,1,-6,-1,8
1558440633934845,-2,13,6,2,-3,8,-2,-8
1558440633934845,-3,-6,-2,-2,2,0,1,0
1558440633935843,5,-3,0,0,3,-3,5,7
1558440633935843,-4,3,2,-1,-5,-6,-11,-11
1558440633948878,3,-3,-5,-2,-2,0,1,9
1558440633948878,-8,2,-1,2,0,-2,-1,-10
1558440633956844,2,0,0,-3,-4,-1,-2,2
1558440633956844,-1,4,0,0,2,7,3,0
1558440633971809,1,-2,0,-4,-2,-4,-6,0
1558440633971809,0,6,-3,-1,-2,-3,-4,-5
1558440633995721,-1,-9,1,2,-3,-5,-2,4
1558440633995721,0,6,1,-1,-1,5,2,0
1558440633997679,-1,-11,-7,0,2,-1,9,-2
1558440633997679,-1,2,-1,1,-2,-4,-1,-5
1558440633998678,-5,-8,-1,-4,-7,-13,-9,-7
1558440633998678,7,8,-2,-5,-1,7,-2,10
1558440634008651,-10,-8,1,-2,-2,-3,-3,-12
1558440634008651,-1,1,-1,0,-1,-5,-4,-5
1558440634016676,-2,-9,-3,0,-2,0,1,5
1558440634016676,-3,1,4,0,0,-6,3,-7
1558440634031593,2,2,-1,1,-5,3,-4,6
1558440634031593,0,-6,0,-3,-1,1,-2,4
1558440634038567,-4,4,-2,-3,-1,11,-4,-10
1558440634038567,-2,1,0,4,6,5,6,2
1558440634054614,-4,-5,-7,-3,-1,-5,2,-3
1558440634054614,-3,-3,-2,1,-3,-1,-3,-1
1558440634055520,-4,2,-1,-1,-3,-4,-4,-8
1558440634055520,-5,-8,-5,-3,-7,-10,-6,-5
1558440634070481,-2,3,2,0,3,-2,-2,-2
1558440634070481,5,-1,-1,1,3,4,9,13
1558440634076624,-5,-3,-3,1,7,1,-2,-10
1558440634076624,-6,-7,-4,-1,-1,-1,5,-5
1558440634091454,0,5,2,-3,-4,-5,-4,-2
1558440634091454,-1,-5,-1,0,-7,-3,-3,-3
1558440634099451,2,-1,1,-1,0,2,2,5
1558440634099451,-6,-10,-7,-5,-2,0,-5,-5
1558440634114393,2,-2,0,-1,2,5,0,1
1558440634114393,1,0,-2,-2,-1,6,1,3
1558440634115360,1,13,14,2,-2,-15,1,-3
1558440634115360,4,4,3,4,1,0,2,4
1558440634130320,-1,-11,-8,-3,-1,6,0,2
1558440634130320,-1,0,2,-4,0,2,-2,-3
1558440634136305,2,0,-5,-3,-4,4,-3,6
1558440634136305,-5,7,-3,0,-7,-13,-6,-14
1558440634151293,0,-3,3,2,6,5,6,3
1558440634151293,0,0,-1,-3,-5,-4,-5,-4
1558440634167223,1,2,-4,-1,-1,4,3,-1
1558440634167223,-1,-1,1,-2,-4,-3,0,8
1558440634174231,-2,-4,-5,3,-1,-3,1,-2
1558440634174231,-1,2,4,-2,1,-5,2,-2
1558440634175202,4,1,-5,-3,-1,4,-7,8
1558440634175202,3,6,-1,-3,-5,-3,1,-3
1558440634198168,-6,-4,1,-1,-2,-3,-1,-4
1558440634198168,-3,-9,0,4,5,0,4,4
1558440634199138,1,0,-3,-4,-2,-8,-2,-4
1558440634199138,2,-1,-3,-3,2,7,-3,3
1558440634220117,-2,0,-1,-2,-5,-4,-3,-3
1558440634220117,-6,-6,-1,1,1,-7,0,-9
1558440634220117,-1,-6,-2,-2,1,6,1,-1
1558440634220117,-6,-7,-4,-1,-5,-2,-3,-6
1558440634235042,4,12,4,1,-1,-7,-2,4
1558440634235042,1,5,-5,-5,-1,3,-2,-3
1558440634235042,-10,-20,-4,-2,-3,2,-3,-6
1558440634235042,2,0,4,5,-1,-3,-4,3
1558440634250998,5,3,-2,-2,8,8,10,8
1558440634250998,2,9,1,-1,-4,-9,0,0
1558440634256998,-1,0,-2,0,-1,1,0,-3
1558440634256998,-9,-7,-1,2,0,-1,-3,-8
1558440634272942,-1,8,-1,0,-4,-3,-9,-8
1558440634272942,-2,-13,-2,0,2,2,0,1
1558440634278957,3,8,1,2,1,-2,4,5
1558440634278957,2,-1,-5,-6,-3,4,-3,1
1558440634295912,-2,-6,-1,-2,-2,-8,-2,-7
1558440634295912,-4,-5,-8,-2,-4,1,-7,-3
1558440634296875,-4,-3,7,1,-1,-1,2,-3
1558440634296875,4,4,0,1,6,2,6,6
1558440634310839,-5,-2,-3,-2,-4,-5,-7,-5
1558440634310839,-1,3,-2,-6,-7,-4,-4,-3
1558440634316822,0,-3,-5,-1,4,-3,4,5
1558440634316822,1,2,1,-1,2,0,-3,-5
1558440634347776,0,1,-1,0,0,1,-1,-1
1558440634347776,-5,-7,-3,-3,-4,-5,-3,-5
1558440634348739,2,4,1,-2,-3,-6,-2,2
1558440634348739,-2,-4,1,2,0,0,-2,-3
1558440634354755,-1,-2,-2,-3,0,2,4,-2
1558440634354755,-5,2,1,1,-1,2,-3,-8
1558440634355719,-1,-1,-2,2,2,2,0,-4
1558440634355719,0,-2,1,0,-2,-5,-3,-3
1558440634370678,0,-2,-1,-3,-5,0,-3,1
1558440634370678,4,-1,-2,0,4,3,9,9
1558440634376705,-4,0,-3,-1,-6,-6,-4,6
1558440634376705,-9,-4,-3,-1,-5,-4,-8,-12
1558440634399672,0,0,-1,-3,-6,-5,0,-1
1558440634399672,0,0,1,3,4,4,1,1
1558440634400602,2,0,-4,-1,0,4,3,-1
1558440634400602,3,6,1,-1,0,-1,4,6
1558440634422717,0,-7,-1,-1,-6,-8,-5,4
1558440634422717,0,-1,0,2,1,0,-2,2
1558440634422717,0,5,-2,-2,-1,-2,-3,-10
1558440634422717,-3,-1,-3,-3,-4,-5,-7,0
1558440634430561,-2,0,-2,-3,-5,-4,-5,-7
1558440634430561,1,-9,-4,0,5,9,7,10
1558440634445514,-1,-1,3,-5,1,-5,-2,2
1558440634445514,0,0,8,5,-1,1,4,-2
1558440634451463,-1,2,-2,-2,0,7,-2,3
1558440634451463,-3,-4,-6,-6,-6,-9,-3,-4
1558440634459442,-2,1,-3,0,-1,0,-5,-1
1558440634459442,-4,-2,-3,-1,1,-2,0,-2
1558440634474400,-1,-9,-1,1,-1,-10,-4,1
1558440634474400,-4,7,1,0,-1,-3,-5,-14
1558440634475398,2,-5,0,4,2,9,7,1
1558440634475398,4,2,-2,-5,-4,-4,1,9
1558440634498718,-4,-4,-3,-1,-5,-9,-6,-11
1558440634498718,-3,-3,-2,1,1,-1,0,-3
1558440634499334,1,3,-1,-2,-3,-4,0,-2
1558440634499334,2,1,0,-2,-3,2,-3,2
1558440634512449,-2,0,2,1,2,2,3,6
1558440634512449,1,0,-4,-5,-4,-8,-2,4
1558440634519741,-12,-13,-2,-4,-3,-1,-11,-24
1558440634519741,0,1,-4,0,1,3,3,-1
1558440634535543,0,-4,-2,-1,1,-4,0,-1
1558440634535543,9,10,7,1,2,0,4,13
1558440634535543,-9,-12,-3,0,-2,1,-3,-6
1558440634535543,-3,-6,-4,-3,-5,-6,-6,-7
1558440634550202,-5,1,-2,-2,-2,1,-2,-4
1558440634550202,5,9,2,1,7,12,4,5
1558440634556183,1,-1,-1,-3,0,-8,2,7
1558440634556183,-2,2,-1,-2,-1,-1,-3,-5
1558440634573143,1,-5,-3,-3,-6,-2,-6,0
1558440634573143,-7,-14,-1,-2,-6,-9,-4,-11
1558440634579400,1,2,0,2,-4,0,-1,9
1558440634579400,0,-4,1,-1,4,1,5,4
1558440634594121,6,9,2,-1,0,0,2,10
1558440634594121,-5,2,1,4,6,9,1,-12
1558440634602220,-4,-7,-4,-4,-5,-7,-7,-7
1558440634602220,0,3,0,-1,1,-2,1,2
1558440634610259,0,5,-1,2,5,5,3,2
1558440634610259,-3,-8,-3,-3,-10,-6,-8,-4
1558440634617021,-1,4,-2,1,1,4,3,2
1558440634617021,4,3,1,-1,6,1,5,4
1558440634632233,-4,0,-3,3,1,-5,-6,-8
1558440634632233,-6,-1,-1,-9,-5,-5,-6,-5
1558440634646938,3,0,1,-2,0,-1,7,-2
1558440634646938,-1,-6,-2,1,0,5,0,11
1558440634653923,-10,-8,0,2,2,5,4,-8
1558440634653923,1,3,-4,-1,-5,-2,-5,-2
1558440634661901,4,6,1,1,-4,-2,-4,1
1558440634661901,0,5,-1,-1,2,4,0,-3
1558440634678854,-1,-5,-1,-3,0,-11,1,3
1558440634678854,-5,-10,-6,-3,-9,-6,-9,7
1558440634680296,-1,-2,1,0,1,1,5,-3
1558440634680296,-3,-3,0,-1,2,-3,-3,-5
1558440634699797,0,2,-1,-4,-5,-1,-5,0
1558440634699797,-1,-1,-1,5,5,0,1,-5
1558440634700795,1,2,-1,-4,-1,-2,-2,-1
1558440634700795,-4,1,-1,-4,-7,-2,-7,0
1558440634723055,-3,-9,-1,1,4,6,0,-6
1558440634723055,-2,-10,0,-3,-2,-10,-1,-1
1558440634723055,4,6,-1,3,2,-4,3,2
1558440634723055,-2,-8,-2,-3,-2,-2,1,-3
1558440634730716,1,3,-1,-3,-3,1,-2,2
1558440634730716,-1,1,-4,-3,-5,-8,-3,-1
1558440634736700,-3,1,4,2,4,6,3,3
1558440634736700,-4,-13,-4,-2,-6,-2,1,-11
1558440634752993,2,6,1,0,6,10,7,0
1558440634752993,-4,-4,-1,1,5,0,5,-3
1558440634759737,-2,1,-4,-4,-8,-5,-9,0
1558440634759737,3,4,1,0,-3,-2,-4,-2
1558440634774982,-1,-7,-1,2,6,7,2,-3
1558440634774982,5,11,1,-1,-1,0,-1,2
1558440634781581,-6,-15,-5,0,1,-6,-3,-2
1558440634781581,2,0,2,-1,1,-2,2,3
1558440634797571,2,2,-1,-3,-4,-3,-1,2
1558440634797571,-3,5,0,0,-8,-3,-7,-9
1558440634797571,2,6,1,0,2,-4,3,6
1558440634797571,-1,-1,-2,2,5,4,2,-1
1558440634811498,-1,1,1,3,-3,-1,-2,-2
1558440634811498,-9,-8,-6,-2,1,2,-4,-1
1558440634819476,4,2,-1,-2,-2,4,0,3
1558440634819476,1,0,3,-1,-1,-9,4,1
1558440634834438,0,2,1,-1,-3,-2,-4,-7
1558440634834438,2,2,2,-1,3,2,0,2
1558440634842429,-1,-3,-3,-2,-3,0,-4,-6
1558440634842429,-5,1,-2,1,-5,0,-2,-3
1558440634857377,4,-1,1,0,4,2,4,10
1558440634857377,-1,-1,-3,-3,-4,-5,-3,-7
1558440634857377,-2,-5,-3,-1,-1,-3,-1,-1
1558440634857377,-1,5,-3,-1,-3,-2,-7,-1
1558440634871681,-5,-5,0,-5,-7,-3,-8,-5
1558440634871681,3,-5,-1,1,3,-1,10,7
1558440634879322,0,7,2,2,4,1,1,-2
1558440634879322,0,-5,-1,-3,-6,3,-3,-2
1558440634894278,-1,-2,-6,-5,-5,-7,0,3
1558440634894278,3,6,2,3,9,13,10,0
1558440634901264,-6,-6,-2,-1,-5,-3,-6,-7
1558440634901264,1,0,2,-1,-1,-6,0,-2
1558440634917220,-1,1,1,3,-2,-4,-2,0
1558440634917220,2,-7,-3,-4,-8,-2,-5,7
1558440634918213,-3,5,-4,-4,-4,4,-4,-8
1558440634918213,-2,-4,2,-1,1,3,-1,0
1558440634931256,1,5,0,2,0,-3,7,3
1558440634931256,0,-1,-3,1,3,-3,0,4
1558440634939159,1,-4,3,0,0,-6,0,-1
1558440634939159,-2,-1,-5,-1,0,-1,-7,-3
1558440634954432,1,2,0,-3,-3,-2,1,-1
1558440634954432,0,7,3,1,8,6,7,9
1558440634962318,-3,-4,-1,1,0,3,-1,-3
1558440634962318,-1,-5,-3,-1,-5,-5,-3,-3
1558440634977055,-2,3,-4,-3,-4,-1,-6,-6
1558440634977055,-6,-16,-2,-2,-5,-2,-6,-7
1558440634978055,-4,-7,-4,-1,-2,-8,-2,0
1558440634978055,1,0,-1,-1,5,8,3,10
1558440634992212,-3,-2,1,0,-4,-3,-4,-7
1558440634992212,-2,5,2,0,-9,-9,-9,-6
1558440634999130,9,5,2,-1,5,6,9,14
1558440634999130,-5,-2,1,3,3,-2,0,-14
1558440635029985,1,6,1,2,4,-4,1,5
1558440635029985,-8,-25,-7,-3,-3,-2,-7,-11
1558440635030913,1,5,7,-2,-4,7,-1,0
1558440635030913,-2,2,-6,-1,-7,-6,-2,0
1558440635036896,-1,-1,1,1,4,4,3,1
1558440635036896,-1,0,1,-1,0,0,0,4
1558440635037897,0,-3,-5,-2,0,4,3,0
1558440635037897,7,5,1,1,4,7,9,6
1558440635052853,-2,-2,-4,-2,0,-2,-3,-3
1558440635052853,0,6,4,0,-2,-4,-3,-1
1558440635058840,-3,1,-3,1,-1,-1,-4,-1
1558440635058840,-4,-5,-1,-4,-5,-7,-5,-4
1558440635073798,-5,-9,-8,-3,-3,1,0,-3
1558440635073798,2,-4,-1,1,5,6,4,1
1558440635081777,7,17,4,2,2,-11,0,3
1558440635081777,0,-5,-2,-4,-5,-4,1,6
1558440635105711,-11,-19,-2,-2,1,-6,-5,-18
1558440635105711,-3,5,-1,0,0,4,1,-5
1558440635105711,-5,-10,-4,-3,-3,-9,-7,-7
1558440635105711,7,15,7,3,2,2,3,6
1558440635111876,-2,5,-6,-2,-5,-5,-7,-2
1558440635111876,-4,-15,0,-4,-2,-3,3,-9
1558440635127657,-1,0,-4,-2,0,4,0,-4
1558440635127657,3,-4,-2,-3,0,-2,0,5
1558440635133638,-6,2,1,4,1,5,-1,-4
1558440635133638,-2,10,-1,-3,-4,-1,-3,-2
1558440635141619,-5,-6,-6,-1,1,7,-4,-2
1558440635141619,2,2,-4,0,-3,-6,-2,-3
1558440635157573,-3,-9,4,-2,-3,-8,-4,-3
1558440635157573,7,9,3,-1,4,2,3,5
1558440635157573,-7,-11,-7,-1,0,7,4,0
1558440635157573,-5,-10,-4,-1,-1,0,-7,-7
1558440635179515,4,5,-3,-3,-3,3,4,2
1558440635179515,-6,-21,-10,-1,2,-3,-3,2
1558440635180512,8,34,4,2,-3,-11,-3,2
1558440635180512,-11,-23,1,-2,2,1,-4,-10
1558440635202456,-10,-18,-14,-5,-7,-2,-7,-7
1558440635202456,21,34,5,0,-5,-2,1,9
1558440635202456,-12,-27,-2,-2,1,-5,-5,-9
1558440635202456,-7,6,-4,-2,5,9,0,-3
1558440635217414,6,11,5,2,-1,-8,2,5
1558440635217414,-1,3,1,2,-1,7,0,0
1558440635218413,3,-2,-4,-1,0,-8,1,-2
1558440635218413,-1,4,-7,-2,-4,-4,1,1
1558440635233370,-3,-5,-1,-2,-1,5,-2,0
1558440635233370,2,11,1,-4,-1,-1,-1,0
1558440635239361,4,5,3,0,0,-7,-1,6
1558440635239361,-9,-17,-3,0,-3,0,-3,-5
1558440635254318,8,8,-2,0,-1,-3,-3,1
1558440635254318,-5,3,-4,1,7,14,6,-1
1558440635261297,-4,-14,0,-2,-3,-8,-1,0
1558440635261297,2,-3,1,1,0,0,3,2
1558440635278251,17,25,1,-3,2,2,-1,6
1558440635278251,-32,-38,-6,-3,-10,-13,-11,-10
1558440635279248,-12,-36,-10,-4,-7,-1,-2,-12
1558440635279248,-1,-15,-8,1,3,1,4,3
1558440635291219,5,6,7,3,5,3,2,2
1558440635291219,-5,-19,-6,-1,-5,-4,-7,-9
1558440635299193,10,20,1,0,-5,-6,6,6
1558440635299193,6,30,8,0,-3,2,-8,-2
1558440635314154,1,4,-3,-1,-1,0,-1,-2
1558440635314154,-4,-28,-2,-1,9,2,6,1
1558440635321269,-9,-7,0,-1,-3,-2,-5,-3
1558440635321269,6,12,3,0,-1,-2,0,2
1558440635337213,0,-14,2,2,0,0,3,6
1558440635337213,-6,18,-1,-5,-5,-4,-6,-3
1558440635338091,6,15,1,-3,2,4,-2,-4
1558440635338091,-8,-15,-2,0,1,-4,1,-1
1558440635352055,10,34,5,-2,0,0,-3,-3
1558440635352055,3,-31,-6,2,-3,-6,2,2
1558440635359033,-16,-8,-1,3,-2,3,-6,-4
1558440635359033,-1,4,0,-3,0,-5,1,0
1558440635375065,-7,-20,-2,-2,-5,-4,-2,-4
1558440635375065,36,107,17,0,-2,5,1,7
1558440635381995,-16,-49,-5,3,6,3,4,3
1558440635381995,-1,-1,-5,-6,-4,0,-5,-2
1558440635404910,-5,-7,-7,-6,-2,1,1,-1
1558440635404910,-10,-20,-3,1,-5,-3,-1,-4
1558440635405907,8,39,5,-1,-2,2,-6,-2
1558440635405907,-7,-19,-1,-4,-2,-1,-4,-4
1558440635412012,-2,-28,-1,2,0,-4,2,2
1558440635412012,20,48,4,-2,0,-4,1,3
1558440635418874,8,2,1,0,6,7,9,8
1558440635418874,-10,-64,-12,-2,-4,-5,-2,-9
1558440635433836,7,40,11,3,4,10,4,5
1558440635433836,-16,-45,-8,-3,-3,-4,-7,-3
1558440635441815,-8,-8,-6,-10,-8,0,-8,-9
1558440635441815,-6,-15,1,4,0,-8,5,-4
1558440635456772,-13,-29,-15,-4,-5,-6,-6,-6
1558440635456772,4,3,1,-1,-1,-3,2,3
1558440635457770,18,42,12,2,2,4,4,5
1558440635457770,29,72,7,0,-1,4,-2,4
1558440635471734,-22,-74,-7,0,6,3,4,1
1558440635471734,-3,-5,-8,1,-1,-6,-3,-6
1558440635478714,-11,-24,-2,1,-5,-2,-5,-4
1558440635478714,28,67,7,-2,-1,7,2,4
1558440635501655,-14,-21,-1,0,1,-7,-1,-6
1558440635501655,-8,-21,-7,-5,-2,-1,0,2
1558440635502652,0,4,1,-3,-2,-1,-1,-2
1558440635502652,-14,-22,-8,-1,0,-7,-3,-2
1558440635516614,14,47,11,6,4,9,4,6
1558440635516614,-11,-38,-10,-5,-2,0,-4,-5
1558440635524591,-3,-13,-5,-9,-9,-7,-8,2
1558440635524591,10,7,5,4,11,11,15,12
1558440635531722,-14,6,-8,-5,-5,-2,-3,-9
1558440635531722,11,41,7,4,2,-2,2,0
1558440635538552,16,49,2,0,-5,0,-1,-3
1558440635538552,-22,-45,-5,1,-7,-10,-9,-5
1558440635553514,12,39,0,-1,5,10,0,0
1558440635553514,-3,-26,2,2,1,-3,1,0
1558440635561638,-1,-4,-13,-2,-4,-3,-1,-2
1558440635561638,-21,-23,-1,-4,-4,-2,-5,-9
1558440635577483,13,13,2,-2,2,-8,2,0
1558440635577483,-16,-10,-5,0,-1,6,-4,-7
1558440635584432,9,15,6,-1,-2,-3,-2,2
1558440635584432,1,-21,-2,-1,3,5,4,0
1558440635591415,-2,-11,-7,-1,-5,-7,-2,-1
1558440635591415,6,12,0,-2,-4,-6,-8,3
1558440635599390,-13,-16,0,-1,4,6,3,-6
1558440635599390,-3,18,2,0,-6,-8,-4,-5
1558440635614354,3,8,2,3,7,2,2,4
1558440635614354,14,26,9,1,7,2,8,7
1558440635621334,-5,-30,-8,-5,-6,-5,-5,-3
1558440635621334,-23,-32,-6,0,-4,-6,-9,-5
1558440635636376,-4,-14,-3,-3,-6,0,-1,-2
1558440635636376,0,2,-3,-2,-5,-8,0,-1
1558440635653247,15,25,10,2,9,8,6,6
1558440635653247,-5,-1,-10,-3,-11,-9,-8,-11
1558440635654244,-5,-18,1,-4,-4,-1,-5,0
1558440635654244,-5,-14,-3,-1,2,6,1,-1
1558440635659231,4,-5,0,3,0,-14,2,1
1558440635659231,6,31,6,-4,3,3,0,3
1558440635674396,-17,-9,-1,-2,-5,-4,-5,-8
1558440635674396,8,1,-2,0,-3,-4,-5,7
1558440635681174,4,31,4,2,5,9,3,4
1558440635681174,-14,-47,-11,-1,2,-3,-6,-3
1558440635697129,-20,-25,-2,-2,-3,-6,-2,-2
1558440635697129,6,21,-1,1,-3,-4,0,-3
1558440635705122,-5,-5,-1,-2,-3,-4,-4,-6
1558440635705122,27,46,5,-1,-2,2,0,5
1558440635711094,-7,-1,2,2,8,15,10,5
1558440635711094,-11,-11,5,-3,-1,-8,2,1
1558440635719071,-10,-40,-13,-2,-6,-8,-7,-7
1558440635719071,0,16,7,1,4,3,6,1
1558440635734033,2,-12,-9,-3,-3,0,-2,1
1558440635734033,12,9,3,-3,-2,9,-2,-2
1558440635741030,-9,-2,-2,-1,0,0,-1,0
1558440635741030,2,-5,-1,4,4,3,3,2
1558440635756969,9,21,4,-4,-3,-1,-2,-4
1558440635756969,-14,-16,-7,-3,-1,-1,-3,-8
1558440635764947,6,10,0,3,5,4,6,5
1558440635764947,2,8,7,-1,-3,-9,-3,-4
1558440635779908,2,-7,-4,-1,-2,-5,-1,-1
1558440635779908,0,7,-1,-1,-1,5,-5,-1
1558440635780906,-5,-6,-1,-2,-2,-3,0,2
1558440635780906,13,25,3,2,6,9,8,6
1558440635802848,-9,-33,-5,-3,-5,-4,-9,2
1558440635802848,0,-2,-1,1,-2,-7,-3,-5
1558440635803844,-1,20,3,-4,1,0,-1,-1
1558440635803844,1,-11,-3,0,3,-4,2,0
1558440635816813,6,18,7,1,-1,1,-3,0
1558440635816813,-4,-13,-6,-2,-4,-2,-3,-2
1558440635824870,0,0,-1,-2,-4,-5,-5,-4
1558440635824870,-13,-27,-5,-3,-8,3,-3,-2
1558440635839747,7,13,0,0,5,-10,4,0
1558440635839747,-6,-18,-3,-3,2,1,3,1
1558440635840746,-7,-23,-4,-1,-1,3,0,-7
1558440635840746,14,22,1,-2,-7,1,-9,-2
1558440635853711,-11,6,2,0,-4,-3,1,-8
1558440635853711,8,11,5,5,12,-3,17,7
1558440635861691,-3,-17,-5,-1,-6,-2,-6,-2
1558440635861691,-3,7,-1,-4,-5,-1,-6,-1
1558440635876648,20,41,6,0,0,7,1,3
1558440635876648,-15,-32,-8,1,-5,-3,-4,-4
1558440635884628,-7,-10,-2,0,1,1,1,-2
1558440635884628,13,28,9,2,2,-4,0,2
1558440635899588,-12,-37,-13,-6,-6,-4,-6,-6
1558440635899588,0,8,-2,-4,-8,-3,-6,-3
1558440635900586,-3,-18,-4,0,-3,3,-1,1
1558440635900586,-6,-7,-3,1,7,6,5,4
1558440635913551,3,16,5,1,3,-6,0,-1
1558440635913551,-9,-31,-2,-3,-3,1,0,-1
1558440635921532,10,9,0,0,1,0,-3,0
1558440635921532,-10,1,-1,0,-4,-2,-2,-5
1558440635936491,2,1,5,0,5,1,6,3
1558440635936491,1,29,1,-4,-5,-3,-7,0
1558440635944720,-1,-23,-10,-3,-5,-3,-7,-3
1558440635944720,3,-15,-3,3,3,7,4,0
1558440635959460,-10,-1,-5,-1,-3,-3,2,-2
1558440635959460,2,-26,1,0,0,1,-2,-1
1558440635960426,6,25,5,2,0,2,3,1
1558440635960426,-11,-28,-10,-9,-5,-1,-7,-5
1558440635974388,-6,-8,-5,-3,-6,4,-3,-5
1558440635974388,8,24,10,4,12,-10,10,7
1558440635981484,0,9,-3,0,3,1,0,1
1558440635981484,-5,-12,-4,-3,-8,-2,-3,-2
1558440635996505,10,9,-1,-2,-2,-4,-3,2
1558440635996505,-3,3,0,2,2,3,-1,-1
1558440636004484,-1,-24,2,0,7,2,10,2
1558440636004484,-2,12,1,-2,-1,-3,-4,-5
1558440636019382,-4,0,-1,-1,-10,-7,-11,-4
1558440636019382,3,5,-3,-3,-2,1,0,-3
1558440636020272,4,10,4,-2,-1,0,0,0
1558440636020272,-8,-9,-4,-3,-2,-6,-6,4
1558440636034227,14,18,8,1,3,-4,3,5
1558440636034227,-6,-13,-7,-2,-4,-1,-8,-4
1558440636041227,-2,6,2,-1,0,3,4,-1
1558440636041227,-11,-23,-5,-1,2,-2,-2,-4
1558440636056235,13,20,-1,-4,-3,5,1,-1
1558440636056235,7,-2,4,1,-4,-5,-3,3
1558440636064147,-21,-19,-13,-5,-11,-11,-11,-10
1558440636064147,-5,-18,-2,0,5,-1,6,3
1558440636088085,-1,-13,-5,0,4,1,3,1
1558440636088085,6,28,1,0,-3,4,-1,-3
1558440636088085,-1,-24,-3,-1,-3,4,-2,0
1558440636088085,-5,1,-1,-2,-6,-14,-7,-3
1558440636094084,1,-5,-1,-1,0,4,-3,1
1558440636094084,1,16,4,2,3,3,2,2
1558440636101072,-4,-4,-5,-3,-2,-3,0,-4
1558440636101072,9,32,5,-2,-1,5,2,2
1558440636116009,-7,-33,-4,3,5,3,4,-1
1558440636116009,13,39,-3,-6,-4,-7,-9,-5
1558440636123989,-9,-24,3,1,-1,1,1,-3
1558440636123989,-15,-15,-2,2,-1,-3,-2,-6
1558440636139946,-14,-18,-11,-8,-6,3,-2,-6
1558440636139946,-5,-6,-2,-2,0,1,1,0
1558440636139946,8,29,5,1,5,-3,6,6
1558440636139946,4,1,0,0,-2,0,-1,0
1558440636153909,3,12,5,0,-5,-5,-5,-1
1558440636153909,-17,-45,-7,-2,2,3,6,-1
1558440636161887,11,26,4,0,-1,-1,-3,1
1558440636161887,1,1,-2,-3,2,0,2,2
1558440636176846,0,12,3,0,-2,-7,-8,-8
1558440636176846,-9,-27,-4,-1,-4,1,-2,-3
1558440636183829,-6,-6,-5,-2,-4,-4,-4,-1
1558440636183829,10,10,4,2,6,5,9,4
1558440636199786,-6,-2,1,-2,0,-3,-2,-2
1558440636199786,4,15,3,2,-3,1,-3,0
1558440636200804,-5,-3,-2,-5,-2,-2,-5,-2
1558440636200804,3,-5,-2,-5,-5,-8,-3,-4
1558440636213924,3,21,3,1,-2,-1,-1,5
1558440636213924,-21,-34,-15,-8,-6,-8,-5,-9
1558440636221726,15,12,5,5,10,18,12,4
1558440636221726,5,-1,-4,-2,-2,-2,-5,-1
1558440636236904,-3,6,4,0,5,5,3,2
1558440636236904,7,8,1,-4,1,-14,2,2
1558440636244060,-7,-7,-5,-1,-7,-6,-8,-5
1558440636244060,-4,7,-1,-3,-5,-4,-4,-3
1558440636259843,-2,-21,-4,-3,-3,-3,-1,0
1558440636259843,2,12,1,-2,-3,1,-5,-2
1558440636259843,3,7,-2,2,-4,-5,-4,-1
1558440636259843,-1,-7,0,0,11,8,9,4
1558440636273806,-9,-18,-9,-6,-4,-1,-4,-5
1558440636273806,-1,-5,-1,1,-2,2,0,1
