timestamp,emg1,emg2,emg3,emg4,emg5,emg6,emg7,emg8
1558440716292436,4,-1,-5,-16,0,-4,0,-3
1558440716292436,-2,0,-1,27,-3,-2,-4,2
1558440716294430,-2,0,-1,-9,-3,1,-1,-4
1558440716294430,-2,-3,-5,-23,-5,-7,-1,-5
1558440716294430,0,-1,0,25,2,0,1,-2
1558440716294430,-1,-2,1,-7,2,2,-3,0
1558440716296426,-1,-2,-2,-16,-3,-3,-1,1
1558440716296426,0,-1,-4,10,-3,0,1,-4
1558440716304404,-2,2,5,6,-4,-2,-2,0
1558440716304404,0,-1,-1,-16,4,4,6,-3
1558440716312382,5,-2,-4,-2,0,-1,1,10
1558440716312382,-6,-3,0,17,-2,-5,-7,-14
1558440716327341,-1,-4,-2,-11,0,1,-2,-3
1558440716327341,-2,-3,-3,-14,-2,-5,0,-4
1558440716334325,-2,1,3,17,1,-2,2,1
1558440716334325,0,0,-1,-3,4,8,4,5
1558440716342303,-3,-3,-3,-13,-3,-2,-5,-3
1558440716342303,-1,-3,-2,2,-12,-10,-11,-7
1558440716349282,0,0,1,4,5,4,5,2
1558440716349282,0,-2,-1,-8,-2,0,0,2
1558440716364244,-1,1,-3,0,-4,-1,-1,-4
1558440716364244,2,0,0,6,2,4,4,3
1558440716373220,-2,1,1,-2,-3,-6,-4,-5
1558440716373220,0,0,1,-4,0,3,-1,0
1558440716379203,-3,1,0,5,2,0,1,1
1558440716379203,-1,-2,-2,-5,-4,-2,-1,-1
1558440716426078,-2,-3,-4,8,-6,-6,-6,-4
1558440716426078,-1,-2,4,15,0,-2,2,4
1558440716426078,0,-1,2,-13,6,3,4,1
1558440716426078,-4,-3,-4,-9,-5,-3,-6,-7
1558440716427075,0,3,3,20,-1,7,4,2
1558440716427075,1,1,0,-9,4,5,3,2
1558440716428073,1,-2,-6,-16,-5,-3,0,0
1558440716428073,1,0,4,20,0,-4,0,-2
1558440716439045,-3,-3,-2,-6,-1,-2,0,3
1558440716439045,-2,-3,-5,-19,-5,-8,-6,-4
1558440716446026,-1,-1,-1,14,3,7,2,-1
1558440716446026,0,-2,0,3,1,2,2,-1
1558440716455001,-1,0,-2,-15,-1,-8,0,-4
1558440716455001,0,-2,-1,2,-1,-1,-1,-4
1558440716477938,-3,0,0,11,-7,-10,-8,0
1558440716477938,-1,-4,-2,-8,-1,5,-2,1
1558440716478937,0,-1,-1,-12,1,3,-2,-3
1558440716478937,0,-1,-5,9,1,-8,6,3
1558440716483922,-3,-1,-3,-3,-6,-2,-5,-2
1558440716483922,-4,-2,-4,-12,-6,-9,-3,-3
1558440716498884,0,0,-1,7,5,10,2,0
1558440716498884,1,1,2,1,-2,2,-2,2
1558440716505865,0,-1,-1,-4,3,-2,2,-2
1558440716505865,-1,0,-1,0,-1,-5,-1,-1
1558440716514840,-2,-1,0,2,-2,-2,-2,-3
1558440716514840,-3,-2,-2,-4,-4,5,-3,-5
1558440716528803,1,-1,0,-1,-1,-4,1,5
1558440716528803,-3,-1,-2,4,0,2,-3,-4
1558440716537780,-4,-1,1,-3,0,1,-3,0
1558440716537780,1,1,2,-3,2,-2,-1,2
1558440716543765,-1,-1,-2,1,-4,-2,0,-3
1558440716543765,-3,-3,-1,-1,0,0,-1,2
1558440716558723,1,-1,1,-6,-4,-7,-2,1
1558440716558723,0,-2,0,3,-3,-4,-3,-6
1558440716566702,-2,-1,0,3,1,5,-3,1
1558440716566702,-2,-1,1,-5,1,-2,0,-2
1558440716582659,-1,0,-3,-5,-2,0,0,-1
1558440716582659,-2,-1,-2,2,1,-2,1,0
1558440716588643,2,-1,-2,-2,-2,-1,0,-1
1558440716588643,-3,-2,-2,-2,2,3,3,-7
1558440716597620,-2,1,2,5,5,4,1,0
1558440716597620,-2,0,-5,-4,-4,-1,-2,0
1558440716603604,-3,-2,-3,-6,-2,-2,-3,-4
1558440716603604,0,1,-2,2,-2,-4,2,4
1558440716618564,0,-1,-3,-4,-1,-1,-2,1
1558440716618564,-1,-2,-2,-1,-2,4,-5,-7
1558440716626542,0,1,4,1,-2,-4,-3,-3
1558440716626542,1,0,-2,-2,-1,-9,-2,3
1558440716635518,-3,-4,0,-5,-3,-6,-2,-6
1558440716635518,-3,-2,-3,-1,-3,-6,-5,0
1558440716657461,-1,-1,0,2,3,4,0,-1
1558440716657461,1,2,0,-3,5,7,6,4
1558440716659453,-4,-2,0,-3,-2,-2,-5,-2
1558440716659453,-2,-2,1,0,-5,-4,-2,-2
1558440716663443,-3,-4,-3,-3,-2,-7,-4,-4
1558440716663443,1,1,-2,1,1,5,1,2
1558440716680398,-1,-1,-1,1,1,-2,1,-5
1558440716680398,-3,1,0,-4,-5,2,-3,0
1558440716686382,-1,-1,-1,-2,-2,-7,1,0
1558440716686382,-1,-2,-3,-1,-5,1,-3,-2
1558440716695358,2,-1,-5,3,6,4,5,2
1558440716695358,-1,1,3,-2,2,-1,1,-1
1558440716708323,1,0,0,-1,-5,-4,-4,-3
1558440716708323,0,1,1,4,4,3,4,5
1558440716717299,-4,-5,-3,-6,-8,-7,-8,-7
1558440716717299,2,-1,-2,-4,4,2,4,0
1558440716731262,1,2,2,3,4,-1,2,1
1558440716731262,-1,-2,-1,-3,-3,-5,-5,0
1558440716740238,-3,0,-1,-1,-2,0,-2,-3
1558440716740238,-1,-2,-2,-4,-4,2,0,2
1558440716755197,-4,-2,-1,1,-2,4,-3,-1
1558440716755197,-1,-3,0,-4,-3,-7,-5,-5
1558440716756195,3,1,1,2,0,3,4,2
1558440716756195,-1,-1,-2,4,5,-6,1,3
1558440716769160,-1,-1,-3,-8,-2,-6,2,3
1558440716769160,-1,-2,-1,-3,-5,-2,-5,-2
1558440716784120,-2,-3,-5,-2,-6,-4,-3,-2
1558440716784120,-3,-1,3,3,6,11,2,-1
1558440716785118,3,0,3,0,4,5,2,1
1558440716785118,-1,-2,-1,-1,2,4,0,-4
1558440716808058,2,-3,1,1,-3,-8,-4,3
1558440716808058,-1,-1,0,-3,-6,-7,-7,-8
1558440716809054,-1,-1,-5,1,2,5,3,1
1558440716809054,-1,-2,-1,1,-5,-11,-5,-1
1558440716815037,2,1,-2,-2,-1,-1,-1,5
1558440716815037,-2,-3,-5,-4,1,-1,3,4
1558440716829001,-5,-4,3,4,-3,2,-3,-14
1558440716829001,0,1,-1,-3,-2,-4,-1,-3
1558440716837977,2,2,-3,-5,2,2,1,-2
1558440716837977,0,2,4,0,0,2,-3,0
1558440716843961,-2,-2,-5,3,1,5,2,1
1558440716843961,0,0,-1,-4,4,-3,3,1
1558440716859918,-3,-1,0,2,-1,-5,-4,-4
1558440716859918,1,2,0,2,1,2,1,-3
1558440716865902,0,-3,-5,-7,0,0,-3,1
1558440716865902,-2,1,3,2,-3,2,-3,-4
1558440716882857,-2,-2,0,1,-2,-1,-3,-1
1558440716882857,-1,-4,-3,1,-3,-6,-2,1
1558440716888840,0,-1,-1,-3,-2,-4,1,-3
1558440716888840,0,-1,-4,0,2,7,2,3
1558440716897816,-3,-2,1,1,0,-1,0,-6
1558440716897816,-2,0,-1,-3,-5,-3,-4,2
1558440716903800,-3,-1,0,-1,-2,-10,-9,-7
1558440716903800,-5,-3,-3,3,-5,-4,-3,-8
1558440716919758,-1,-4,-8,-13,-1,6,3,4
1558440716919758,1,0,-3,-2,3,-1,4,3
1558440716934718,-1,2,5,4,0,-2,1,-2
1558440716934718,1,0,2,-2,1,-2,-1,-2
1558440716936718,1,0,3,-1,-3,0,-2,-3
1558440716936718,-2,-3,-4,-3,-3,0,-4,-4
1558440716957656,3,0,-1,0,1,5,2,7
1558440716957656,-1,0,0,-2,1,0,0,0
1558440716958654,-4,-1,2,2,0,1,-1,-4
1558440716958654,2,0,2,3,-3,1,0,-4
1558440716971618,0,0,-3,-6,-4,-6,-4,1
1558440716971618,-2,-4,-2,-2,-1,4,1,1
1558440716979597,0,0,-1,4,3,2,2,3
1558440716979597,0,0,-2,-1,-5,-2,-6,-3
1558440716986579,-2,-2,-1,-3,1,0,1,-7
1558440716986579,1,1,0,0,4,-1,1,1
1558440716995554,-1,-1,1,0,-3,-7,-2,-2
1558440716995554,0,2,0,-3,1,3,1,-2
1558440717008521,0,2,1,-1,0,8,2,1
1558440717008521,0,-3,-3,2,-5,-7,-5,-1
1558440717017496,0,-1,1,-1,0,-5,-1,0
1558440717017496,-2,-4,-2,-3,4,2,-1,2
1558440717040435,-5,-5,-5,0,-5,-5,-4,-3
1558440717040435,-2,-1,0,-4,-3,6,-2,-5
1558440717041432,0,-3,0,-1,-2,-1,1,2
1558440717041432,3,2,0,0,-2,-10,2,0
1558440717046420,0,-1,1,1,5,0,1,3
1558440717046420,-2,0,-1,1,3,9,4,1
1558440717055395,1,0,-1,-3,-3,-7,-3,-2
1558440717055395,-3,-1,0,2,-2,2,0,-1
1558440717068360,-1,-3,-2,-5,-7,-5,-4,2
1558440717068360,-6,-2,-1,-1,-1,-1,-5,-8
1558440717085315,-1,1,0,6,6,1,4,-2
1558440717085315,-2,-3,2,-4,1,2,-3,-2
1558440717091299,2,0,-1,-3,-2,-1,-3,-1
1558440717091299,0,0,-2,0,1,4,4,4
1558440717100275,-2,-2,-3,-1,0,-1,1,1
1558440717100275,-4,-1,-3,-4,-5,-7,-1,-3
1558440717106259,0,1,3,1,0,-2,0,-4
1558440717106259,-2,-1,0,1,0,0,-1,0
1558440717115236,-2,-1,-3,-5,-5,0,-6,-3
1558440717115236,1,0,-2,0,1,-6,2,2
1558440717128202,-4,-2,-1,3,2,0,0,0
1558440717128202,1,-2,1,-5,-1,-5,-3,-2
1558440717138173,-3,-1,1,-2,-1,1,-5,-2
1558440717138173,-2,-3,-3,-2,-6,-2,-8,-5
1558440717160124,0,-1,-2,-1,-1,-1,1,-1
1558440717160124,2,1,0,-3,0,0,1,6
1558440717161113,-3,0,-3,-3,-1,4,-4,-3
1558440717161113,1,-1,0,3,-1,-5,0,-1
1558440717166098,-1,1,1,-2,-3,-4,0,-2
1558440717166098,0,-2,-3,-2,-2,-2,-2,0
1558440717175074,1,0,-1,3,-1,-1,1,3
1558440717175074,-6,-2,-2,-3,1,11,2,-3
1558440717189042,-1,-1,-1,-2,3,-3,1,-2
1558440717189042,0,-2,-4,0,-4,-3,-4,2
1558440717198018,-1,-1,-3,-2,-1,-2,0,0
1558440717198018,-4,0,-1,-2,0,0,-3,-6
1558440717210979,-3,-1,-2,-1,-3,2,1,0
1558440717210979,-1,1,1,0,-4,-1,-5,-2
1558440717219954,1,2,2,-2,5,-5,3,3
1558440717219954,1,-1,-2,-1,2,0,-1,-1
1558440717225955,1,-1,-1,0,-1,1,-5,1
1558440717225955,-3,0,0,-1,0,1,-1,-4
1558440717234914,0,-1,0,-3,-4,0,-3,-3
1558440717234914,-3,-4,-3,1,-5,-5,-3,3
1558440717248881,-7,-2,-1,-1,2,7,2,-9
1558440717248881,1,-1,2,-1,5,-5,4,1
1558440717257855,0,-2,-1,-1,-4,-3,0,-3
1558440717257855,1,3,0,1,0,-4,-5,1
1558440717270818,2,-2,-3,-5,-6,-7,-6,-2
1558440717270818,-2,-2,-3,-1,0,-1,1,3
1558440717288773,-2,1,-2,3,6,7,3,-1
1558440717288773,-2,-1,-2,-4,-1,4,-2,-1
1558440717288773,-1,-1,2,1,-5,-3,-5,-3
1558440717288773,-1,0,1,1,-4,-5,-3,-2
1558440717301738,-4,-3,-1,-3,-4,-5,-3,-4
1558440717301738,4,0,1,0,11,2,5,6
1558440717308717,-2,0,1,-3,-3,-3,-5,1
1558440717308717,-1,-1,-1,3,-3,-3,-4,-1
1558440717317693,0,-2,-1,-4,-3,3,-4,3
1558440717317693,-2,-3,-3,-3,-8,-8,-8,-15
1558440717340635,4,1,2,4,7,-2,6,4
1558440717340635,-3,-1,-1,-4,-1,3,1,-5
1558440717341634,1,0,0,-3,1,-2,4,2
1558440717341634,0,-1,-1,1,-3,1,-3,-2
1558440717346617,-1,-3,-3,-4,-1,-1,-2,2
1558440717346617,1,1,0,-2,2,1,0,0
1558440717361580,-1,-2,-2,2,-5,-3,-4,-7
1558440717361580,0,-1,-1,2,-2,4,6,3
1558440717368562,0,0,-1,-1,-2,-6,-1,0
1558440717368562,2,1,-1,-2,1,-1,-1,-2
1558440717385563,-2,-2,-2,3,-1,2,-1,-1
1558440717385563,-1,-2,-1,-3,0,-4,-4,-5
1558440717391499,-1,0,-2,-1,-1,2,-2,-2
1558440717391499,-3,-3,-1,1,-4,-1,-1,-1
1558440717400520,1,1,1,-2,2,0,0,1
1558440717400520,-1,0,1,-4,-1,3,0,4
1558440717414539,-1,-2,-3,-1,-2,1,-2,-3
1558440717414539,-1,-3,-1,-1,-6,-7,-7,-1
1558440717421521,-1,0,-1,-1,4,7,2,-1
1558440717421521,-1,-1,0,-3,-2,-2,1,0
1558440717428405,2,0,-1,2,1,-2,2,3
1558440717428405,-2,-1,-3,-3,-2,0,-3,-3
1558440717437373,-2,-2,-3,-4,-6,-4,-4,-3
1558440717437373,-1,-1,0,4,2,2,3,0
1558440717451345,-1,-3,-1,-3,-3,-3,-3,0
1558440717451345,1,1,-2,-3,-1,-1,-2,-1
1558440717460313,2,0,0,-2,-1,-9,-2,0
1558440717460313,-1,-2,-1,0,-1,3,1,0
1558440717474275,-4,-3,-2,-4,-5,-5,-2,-4
1558440717474275,1,0,0,-2,-1,1,4,5
1558440717489525,-1,-1,0,4,-1,4,-1,0
1558440717489525,-3,0,3,-1,-1,-6,-6,-4
1558440717497548,0,0,-3,-2,1,5,1,-1
1558440717497548,-2,0,-1,3,-1,0,0,-4
1558440717499465,-1,0,0,-5,-2,-5,0,-1
1558440717499465,0,-3,0,-2,-2,-1,-3,3
1558440717511655,1,-2,0,1,1,0,-3,3
1558440717511655,-7,-3,-3,1,-1,-1,-2,-11
1558440717520408,3,1,-1,-1,0,2,2,1
1558440717520408,-3,1,1,-1,1,0,1,-1
1558440717534370,3,1,2,4,1,2,1,3
1558440717534370,1,-2,-1,-5,-2,-1,-3,1
1558440717541352,-3,-3,-4,-4,-2,-3,-5,-3
1558440717541352,-1,-1,-4,2,1,0,0,1
1558440717557312,-1,0,-2,-4,0,-3,-2,-2
1558440717557312,0,0,-2,-3,-2,-2,-2,-1
1558440717559307,-4,-2,0,2,-1,2,-3,-3
1558440717559307,7,2,3,-1,-3,-5,0,6
1558440717571503,-2,-1,-2,-2,-3,-5,-4,-5
1558440717571503,-1,-3,0,-1,3,3,2,0
1558440717587486,-3,-2,-1,4,0,-4,-2,-2
1558440717587486,0,-1,-4,-4,-1,1,-1,0
1558440717595430,-5,-4,-4,-2,-3,-1,-3,-8
1558440717595430,1,0,0,1,0,-3,0,3
1558440717601196,-2,-1,1,-3,1,3,1,-2
1558440717601196,-4,-3,-1,-2,-2,0,-2,-3
1558440717618147,-1,-1,-3,0,-3,-4,-1,-1
1558440717618147,-1,-2,0,1,-2,1,0,1
1558440717619172,-2,-1,0,-3,0,-2,2,1
1558440717619172,-3,-2,-4,-2,-3,-5,-4,-7
1558440717640087,0,-2,-2,2,0,3,0,-1
1558440717640087,-3,-2,-4,-3,-2,-4,-2,-2
1558440717641084,3,2,-1,-1,0,0,1,4
1558440717641084,-1,-2,0,3,1,1,1,-3
1558440717654051,-5,-1,0,-5,-1,0,-4,-4
1558440717654051,-2,-2,-2,-3,-3,-1,-5,-5
1558440717661031,-3,-3,-5,0,-6,-2,-2,-1
1558440717661031,0,0,2,0,3,-4,3,0
1558440717677985,0,0,1,-2,2,-1,4,-1
1558440717677985,1,-1,-1,-1,-1,-2,0,0
1558440717678982,-1,-2,-1,1,-4,-4,-5,-2
1558440717678982,-2,-3,-3,-5,-2,6,-4,2
1558440717690982,0,1,2,-1,-1,1,0,0
1558440717690982,-1,0,0,5,0,-4,0,0
1558440717699926,-1,-1,-1,-3,1,0,-1,-1
1558440717699926,-1,-1,-5,-3,-6,-5,-3,-4
1558440717722865,-2,-3,1,2,-3,-2,-6,2
1558440717722865,1,0,3,0,2,0,5,7
1558440717723864,-5,-2,-3,-3,-1,-1,-4,-10
1558440717723864,-1,-1,-2,-1,-2,1,1,-1
1558440717744806,-2,1,-2,2,1,1,-1,-1
1558440717744806,0,0,-2,-5,-3,-2,-3,0
1558440717746802,2,-2,-2,-2,3,-1,1,1
1558440717746802,-3,-2,-2,4,0,-3,0,-1
1558440717751975,0,-1,1,-5,1,0,3,-3
1558440717751975,-2,-1,0,-1,-1,0,-2,-3
1558440717767536,0,-1,-2,1,-3,0,-2,0
1558440717767536,-2,0,-1,-3,-4,-3,-6,-4
1558440717774157,-2,-1,-1,-2,1,2,3,5
1558440717774157,-2,-3,-4,0,2,5,-1,-2
1558440717781680,-2,-2,1,0,-4,-5,-1,-2
1558440717781680,0,2,0,-3,3,1,3,2
1558440717798412,-2,-1,-1,-4,-3,1,0,-2
1558440717798412,1,-1,0,1,-1,3,-1,1
1558440717799415,1,0,0,-2,1,-4,0,-2
1558440717799415,-2,1,1,-1,3,-1,2,-1
1558440717820563,-1,-1,-1,2,-2,-2,-4,-2
1558440717820563,-3,-3,-5,-6,-6,-1,-6,-2
1558440717821352,3,0,0,-4,-1,1,1,3
1558440717821352,0,-3,0,2,-1,-3,-4,-3
1558440717834537,2,2,9,3,1,1,1,2
1558440717834537,-1,-2,-2,-3,1,0,1,1
1558440717841299,0,0,1,-2,-2,-5,0,4
1558440717841299,-5,-4,0,0,1,-1,-1,-8
1558440717856291,2,-2,-4,-5,-2,1,0,5
1558440717856291,-5,-1,0,0,-1,0,-1,-8
1558440717865239,2,1,1,2,2,0,0,0
1558440717865239,1,1,-2,-4,-1,-1,-2,2
1558440717871430,-1,-1,0,-1,1,0,-1,-1
1558440717871430,0,0,2,1,4,5,4,1
1558440717880195,-2,-1,-2,0,1,-5,1,0
1558440717880195,-1,-2,-3,-2,-4,-1,-1,0
1558440717894361,-2,-2,-4,-2,-4,-6,-2,-1
1558440717894361,0,-1,-2,2,-1,0,2,4
1558440717901439,-3,-1,0,-4,0,3,-1,-9
1558440717901439,2,-1,1,0,2,2,1,2
1558440717918092,-2,-2,-1,2,-1,0,-3,-5
1558440717918092,-2,-4,-3,-4,-5,-5,-4,-3
1558440717919090,-1,-2,-2,-3,-6,-6,-3,0
1558440717919090,-2,-1,0,0,-1,-1,0,2
1558440717931055,3,3,-2,1,5,4,3,2
1558440717931055,1,-1,2,-2,-2,-5,-2,-1
1558440717940031,0,-1,0,-1,1,-1,1,1
1558440717940031,-1,-1,1,2,1,4,0,0
1558440717953994,0,-2,-4,-5,0,-6,-1,5
1558440717953994,-3,0,3,-2,-4,-6,-4,-7
1558440717968952,-4,-2,0,2,-3,0,-6,-6
1558440717968952,2,0,-1,-2,1,-4,0,-1
1558440717977930,-2,-3,-4,-2,-3,2,0,-2
1558440717977930,0,-2,-2,1,-2,0,1,1
1558440717978927,1,3,1,0,1,4,4,4
1558440717978927,1,0,0,-2,3,9,2,1
1558440717991052,-1,-3,-3,-2,-3,-3,-1,2
1558440717991052,-1,1,-2,1,-6,-9,-3,-4
1558440718000910,-3,-3,-1,-3,0,4,-1,-2
1558440718000910,1,-1,1,-2,1,0,2,1
1558440718022817,-1,-1,1,3,-2,-1,-2,-3
1558440718022817,0,0,-2,-4,1,3,-2,-1
1558440718023809,0,-1,-2,-4,-4,-2,-4,0
1558440718023809,-1,0,-1,-1,-6,-4,-2,-1
1558440718037778,1,-1,3,0,3,-5,3,1
1558440718037778,-1,0,-2,-1,0,-4,1,-1
1558440718038768,-1,0,-3,0,1,-2,-1,1
1558440718038768,-2,0,-4,3,0,4,-1,1
1558440718051733,-3,-1,4,-8,-5,-2,-3,-3
1558440718051733,0,-3,-4,-3,0,1,-2,-3
1558440718067719,1,-2,1,3,-3,-7,-2,1
1558440718067719,-1,-1,-1,-3,0,-1,0,-2
1558440718082763,-1,0,-2,0,0,3,3,4
1558440718082763,-2,1,-1,2,-1,3,0,-3
1558440718083654,0,-2,-1,-1,0,-2,-4,1
1558440718083654,-2,-2,-1,-3,-2,-3,-3,-3
1558440718097721,1,0,0,-3,-2,-2,-1,-1
1558440718097721,-4,-3,-3,0,-6,-9,-8,-6
1558440718098621,2,0,3,-2,8,11,9,2
1558440718098621,-2,-2,0,-3,-2,-6,-2,-3
1558440718111754,-1,-3,-4,2,-4,3,-3,-4
1558440718111754,0,0,-1,-3,-3,0,-1,0
1558440718120563,-2,-2,-3,-2,2,-1,2,-1
1558440718120563,-2,-1,-1,1,-1,0,-3,1
1558440718142501,-2,-4,-3,1,-2,-4,-3,-1
1558440718142501,0,0,1,-3,1,-4,0,2
1558440718144488,-1,-1,-2,-2,0,5,-1,-6
1558440718144488,0,-2,0,2,-1,1,3,2
1558440718157455,1,1,-1,-5,-4,-5,-4,-2
1558440718157455,-1,-4,-1,-1,-1,-2,0,1
1558440718159445,-1,0,1,5,0,3,3,1
1558440718159445,-2,-1,0,-5,-2,-1,0,-1
1558440718171447,-3,-1,-1,-3,2,-1,3,-1
1558440718171447,-2,0,-4,1,2,4,1,-1
1558440718180418,-2,-2,0,-3,-4,-1,-1,2
1558440718180418,-1,0,-2,-3,-5,-6,-5,-3
1558440718203327,0,-1,-1,-1,3,1,1,7
1558440718203327,2,0,3,4,4,7,4,4
1558440718204323,-5,-4,-5,-4,-1,-1,-3,-8
1558440718204323,-2,-3,-2,-3,-5,-4,-5,-2
1558440718225618,-3,-3,-1,1,-3,-2,-4,-7
1558440718225618,2,-3,0,-7,0,2,0,0
1558440718226687,0,-1,-1,0,1,-2,1,4
1558440718226687,-4,-1,0,3,1,-5,-1,-3
1558440718231603,0,0,-2,0,2,4,2,0
1558440718231603,2,1,0,-2,-1,-5,0,-1
1558440718247402,0,-2,-4,-2,-9,-8,-8,-4
1558440718247402,-3,-2,-3,2,0,2,3,1
1558440718255188,0,-1,1,-1,3,-1,2,-1
1558440718255188,-2,-3,0,0,0,0,1,-2
1558440718261208,-1,0,-2,2,-2,-7,-3,-1
1558440718261208,0,-1,-3,-6,-4,-3,-5,1
1558440718277444,-3,-2,-3,-2,-2,1,-2,-6
1558440718277444,-1,0,1,4,1,3,2,0
1558440718284395,0,0,0,-1,-1,-5,-1,5
1558440718284395,-1,-2,-2,-2,-1,-1,-3,-8
1558440718300284,2,1,0,1,1,1,0,3
1558440718300284,-5,-2,-3,1,-2,-2,-4,-9
1558440718302067,0,-2,-1,-4,-1,2,2,0
1558440718302067,0,-4,-1,-5,-6,-4,-4,-3
1558440718315040,-1,-2,-5,4,2,2,1,0
1558440718315040,-1,0,-3,-4,-1,-10,0,3
1558440718322014,-3,0,-1,-2,-2,3,-4,-2
1558440718322014,-2,-2,-1,1,-3,-6,-5,-3
1558440718337274,-2,-2,-1,-4,-5,-8,-5,0
1558440718337274,-3,-1,-3,-3,-3,-3,-4,-2
1558440718344005,-1,-1,-2,-1,0,1,2,-2
1558440718344005,1,0,-1,3,4,2,2,2
1558440718350941,-1,-1,0,-3,-1,2,-2,-5
1558440718350941,-2,-2,0,-2,0,3,0,-2
1558440718359911,0,1,-2,2,-2,-7,-3,-1
1558440718359911,-2,1,-1,-4,3,11,2,1
1558440718374869,-5,-4,-2,-3,-4,-3,-4,-6
1558440718374869,2,-2,0,4,-2,-4,-1,3
1558440718380859,0,-2,-1,-3,0,2,-2,-1
1558440718380859,0,0,0,0,0,1,2,0
1558440718396839,0,0,1,1,5,-5,1,-1
1558440718396839,-1,-2,-3,-2,-4,-3,-5,-3
1558440718404029,0,-4,-1,-3,-3,-4,-3,-1
1558440718404029,1,-2,-1,-1,-2,1,1,2
1558440718411879,-1,1,0,6,0,0,2,2
1558440718411879,-1,1,-1,-5,-4,-1,-3,-3
1558440718419991,0,-3,-3,-3,-3,1,2,-2
1558440718419991,-1,-1,-2,4,2,-7,-2,-2
1558440718434789,3,1,1,-3,2,5,1,0
1558440718434789,1,2,5,-1,6,9,5,3
1558440718448909,-3,0,-2,-2,0,2,-2,-1
1558440718448909,1,-1,-1,0,-3,-11,-2,-1
1558440718456700,-3,-3,0,-3,1,4,0,1
1558440718456700,0,0,-3,-2,0,1,1,-2
1558440718480666,-2,-2,-3,2,-3,1,-2,0
1558440718480666,-2,-1,-2,-6,1,0,-4,-8
1558440718481634,0,-1,-1,-3,-4,-9,-6,-1
1558440718481634,-1,-3,0,4,-3,-5,-1,-2
1558440718482630,-2,-1,-2,-2,0,0,2,-4
1558440718482630,2,0,3,2,0,-2,1,3
1558440718502835,1,-2,-2,-1,0,-1,0,2
1558440718502835,-2,-1,-1,-1,-2,1,-4,-4
1558440718503574,0,0,1,-4,-4,-10,-4,-2
1558440718503574,-1,0,-2,-2,1,3,2,3
1558440718525745,-2,-2,1,2,0,1,-1,0
1558440718525745,-2,-1,-4,0,2,5,5,0
1558440718526513,-2,-2,-2,-2,0,0,-1,-4
1558440718526513,-2,0,0,1,-2,-2,-1,0
1558440718540475,-1,0,-2,-4,-3,2,-1,-4
1558440718540475,-1,-3,-2,-3,-2,-9,-3,0
1558440718541473,-2,0,-1,2,-2,0,-3,-3
1558440718541473,-2,-1,0,4,0,5,1,-2
1558440718553674,-1,0,1,-3,-5,-6,-6,-1
1558440718553674,0,-1,-3,-8,-1,-2,-1,1
1558440718562634,1,1,2,6,7,8,6,8
1558440718562634,-3,0,0,-4,-2,-4,-2,0
1558440718576382,1,-1,-1,-1,-5,-3,-3,-3
1558440718576382,-2,-1,1,6,-5,0,-3,-3
1558440718584440,1,-1,0,-3,3,-1,1,-4
1558440718584440,0,0,-2,-4,0,-1,2,0
1558440718600315,-2,-1,-1,-1,-4,-1,1,-2
1558440718600315,-1,-3,-1,1,0,-9,-6,-3
1558440718601313,1,3,5,-1,4,1,2,3
1558440718601313,-3,-1,-3,-3,-4,-2,-5,-4
1558440718613284,-2,0,0,4,2,4,4,1
1558440718613284,0,-2,-2,-5,-2,5,-1,1
1558440718622510,-3,-2,-5,-4,-5,-4,-8,-6
1558440718622510,2,3,2,5,4,-12,6,6
1558440718637532,-3,-3,0,-1,0,-2,-3,-4
1558440718637532,-3,-2,-1,-3,-5,-1,-1,-3
1558440718651478,-2,-4,-3,1,1,4,1,-1
1558440718651478,-4,-3,-2,-2,-6,2,-7,-7
1558440718660467,1,-3,-3,-3,-1,-4,-2,0
1558440718660467,2,1,2,2,7,4,4,4
1558440718661151,-1,-3,-2,2,-7,-4,-4,-4
1558440718661151,-1,-2,-4,-5,-1,0,-2,1
1558440718674120,1,2,3,-2,2,-3,2,4
1558440718674120,-5,-1,-1,6,1,2,-3,-11
1558440718683303,-3,0,-3,-3,0,-2,-4,0
1558440718683303,0,-1,-2,-3,-3,-1,-5,-3
1558440718705246,-2,-2,-3,0,-2,4,2,-2
1558440718705246,2,0,3,0,-1,-4,3,5
1558440718706034,-1,-1,-2,-3,-1,-1,-1,-1
1558440718706034,0,-1,-2,-3,-2,-6,2,-1
1558440718728195,-1,1,0,4,1,4,4,5
1558440718728195,-1,0,-2,-4,3,2,1,3
1558440718728975,0,1,0,0,-2,-7,-2,-2
1558440718728975,-2,-3,-1,4,2,10,0,-1
1558440718734156,0,0,-1,-2,1,2,1,-1
1558440718734156,-1,-3,-3,-5,-5,-6,-1,-2
1558440718742936,-2,0,1,1,0,-3,1,1
1558440718742936,-3,-3,-4,-3,1,2,-1,-4
1558440718756899,0,-1,4,-2,-4,-4,-2,-1
1558440718756899,-5,-4,-2,0,-1,1,-1,-5
1558440718763879,-1,-2,-2,1,-9,-9,-6,-1
1558440718763879,0,0,0,-4,1,-1,1,-3
1558440718779839,-1,-1,-1,-1,2,12,4,-1
1558440718779839,0,2,0,4,2,-1,0,3
1558440718781830,1,0,0,-4,1,-1,1,2
1558440718781830,-2,-1,-3,-4,-4,-7,-1,0
1558440718802773,-1,-3,-5,1,-5,-7,-6,-2
1558440718802773,-5,-2,-1,-2,-4,0,-5,-4
1558440718803770,-1,0,1,-1,3,3,6,1
1558440718803770,0,0,-1,1,1,-2,-1,-1
1558440718816798,1,-2,-1,2,5,5,0,0
1558440718816798,3,-1,-2,-4,0,-3,2,4
1558440718823718,0,1,3,-3,-2,-5,-4,0
1558440718823718,-1,0,-1,0,-8,-10,-5,-1
1558440718839673,-3,-1,-3,-4,-3,-6,-2,-1
1558440718839673,0,1,0,-1,3,3,3,1
1558440718841668,0,0,-2,5,-1,2,-2,-5
1558440718841668,-1,-1,2,-1,3,6,-2,1
1558440718854097,0,0,-1,-3,-4,-9,-6,-6
1558440718854097,0,0,0,0,-1,0,1,-1
1558440718862614,-1,-3,-3,0,-5,-4,-1,-1
1558440718862614,1,1,0,-4,1,3,2,4
1558440718877796,-9,-6,-1,-4,-5,-5,-7,-12
1558440718877796,-1,2,0,4,-5,-11,-7,2
1558440718883997,-3,-3,-1,-5,0,-1,-2,-2
1558440718883997,1,0,1,0,3,9,4,1
1558440718899866,0,-1,0,3,0,3,3,1
1558440718899866,-1,1,-1,-2,-3,1,-1,-1
1558440718907494,-3,0,0,-1,1,0,0,-1
1558440718907494,1,-1,-1,-2,0,-4,3,4
1558440718913507,-2,1,-4,1,0,0,-1,-1
1558440718913507,-2,-3,-2,-5,-3,-3,-4,-4
1558440718930434,2,-3,-3,-3,-2,0,-3,-1
1558440718930434,-2,-2,1,4,-3,0,-2,-4
1558440718937589,2,-1,-1,-3,0,-7,3,3
1558440718937589,1,-1,0,-2,-1,-1,0,1
1558440718943397,-2,1,-2,4,3,6,4,0
1558440718943397,-2,1,3,-2,-3,1,-3,0
1558440718960391,-2,-1,-4,-4,-7,-11,-8,-3
1558440718960391,1,0,-1,1,1,-5,3,-1
1558440718961351,1,1,0,3,1,3,4,2
1558440718961351,-2,-6,-5,-5,-2,-1,-2,-6
1558440718983454,-3,-4,0,-1,-5,-1,-5,-6
1558440718983454,-3,-3,-4,1,-4,-2,-6,-4
1558440718984291,1,-1,1,-2,10,12,8,3
1558440718984291,3,2,1,-2,-1,-9,-2,1
1558440719005233,-1,-1,0,6,0,3,0,-3
1558440719005233,-3,-1,-4,-5,-5,-5,-7,-2
1558440719006229,-1,-2,0,-3,-5,-4,-1,-1
1558440719006229,-7,-2,-4,3,7,8,2,-6
1558440719020191,-2,0,2,1,2,5,0,1
1558440719020191,0,0,-2,-4,1,8,0,0
1558440719021188,-2,-1,-4,-3,-8,-8,-4,-2
1558440719021188,-1,-1,-1,6,-5,-9,-4,1
1558440719034153,-1,2,-2,-7,0,-2,2,2
1558440719034153,-1,0,0,-3,-2,-2,-1,-1
1558440719042167,0,-1,0,4,-3,-3,-6,-1
1558440719042167,-1,-3,-1,-3,-3,-1,-1,-1
1558440719057092,1,-1,-1,0,4,1,1,2
1558440719057092,2,-1,2,2,1,2,3,0
1558440719064097,-1,-1,-1,0,-1,0,-2,-1
1558440719064097,-3,-4,-1,-2,-1,-3,-3,-5
1558440719080388,1,0,0,-2,3,6,2,1
1558440719080388,-3,-2,0,3,-3,-3,-4,-1
1558440719081442,-4,-3,-4,-7,-3,-7,-5,-3
1558440719081442,0,-1,2,-3,-1,-1,4,-1
1558440719094236,0,-1,0,4,-2,-1,0,3
1558440719094236,-1,-2,-3,-2,-1,2,-3,-2
1558440719110211,1,1,0,-2,5,8,1,2
1558440719110211,0,2,-5,-2,-6,-3,-1,-1
1558440719117434,-1,-3,-2,-1,-5,-3,-3,-2
1558440719117434,1,-1,0,-2,5,5,5,1
1558440719123423,-5,-2,-1,-1,-4,-4,-3,-6
1558440719123423,-1,-2,-1,2,-4,-12,-5,3
1558440719140378,-2,0,-2,-5,2,-3,0,-6
1558440719140378,-1,-1,-2,-5,-7,-15,-5,-2
1558440719141375,-2,-2,-2,3,2,3,4,-1
1558440719141375,1,2,1,-1,3,6,5,4
1558440719154419,-2,-1,-1,-3,-1,0,-2,-2
1558440719154419,0,-2,1,2,-2,0,-2,-2
1558440719162547,0,0,0,-2,-1,-6,-2,0
1558440719162547,-3,1,-1,-2,1,7,4,-2
1558440719185469,-1,0,0,1,-3,-8,-2,1
1558440719185469,-6,-3,0,4,0,1,-1,-4
1558440719186256,0,-2,-5,-7,-3,-4,-3,-1
1558440719186256,-2,-5,-4,-6,-6,0,-6,-2
1558440719207203,0,3,0,6,-1,-3,0,0
1558440719207203,1,-1,2,-2,6,4,5,3
1558440719209194,0,0,2,-2,-1,-3,-1,2
1558440719209194,-2,-3,-3,3,-2,1,-5,-2
1558440719214179,-3,-2,-2,-3,-3,-3,-5,1
1558440719214179,-1,-2,-5,-2,0,-5,1,1
1558440719222161,0,3,9,1,0,-2,-1,-2
1558440719222161,1,1,-2,0,-3,-2,-3,-1
1558440719237148,0,-1,0,-6,0,3,0,3
1558440719237148,-4,0,-3,-1,-2,-4,-1,-8
1558440719244097,1,0,0,4,4,8,6,3
1558440719244097,-2,1,2,-2,0,-4,-2,-3
1558440719259411,1,-2,-2,-5,-6,-2,-3,-1
1558440719259411,-3,0,1,1,-1,3,0,1
1558440719266259,-2,-3,-3,-2,-3,-11,-7,-1
1558440719266259,1,-1,0,-2,2,2,2,0
1558440719273440,-1,-1,0,-2,-1,-4,-4,-1
1558440719273440,2,4,2,3,-2,-1,-1,0
1558440719282401,-2,-1,-1,-2,-1,2,-1,-4
1558440719282401,0,0,-2,-3,2,6,0,0
1558440719297300,-2,-3,-5,0,-2,-3,-1,-1
1558440719297300,-2,-1,1,-4,2,-5,1,-1
1558440719311266,-2,-1,-2,-3,-1,-1,0,0
1558440719311266,-3,-1,-1,4,-4,-2,-3,-2
1558440719319694,-2,-1,-2,0,0,6,2,-4
1558440719319694,1,0,-1,-3,-1,3,3,1
1558440719334554,1,-2,-3,-1,-1,-10,-6,-3
1558440719334554,-2,-2,2,3,1,2,0,-5
1558440719335204,1,-2,1,-2,0,0,-2,-1
1558440719335204,1,-3,-2,-2,-2,-1,-1,3
1558440719342185,-3,1,-2,3,-1,4,-1,-6
1558440719342185,-3,0,0,-6,-2,-12,-4,0
1558440719357143,0,-1,-1,0,4,7,3,-1
1558440719357143,-5,-2,-2,3,-1,-3,-8,1
1558440719364376,-1,-3,-4,-5,-2,-1,-1,-3
1558440719364376,-1,1,-1,-3,-2,0,2,0
1558440719388124,-1,-1,1,0,-2,1,0,0
1558440719388124,1,-1,0,1,-2,-2,2,0
1558440719389068,-2,0,1,-5,-2,2,0,0
1558440719389068,0,-1,-2,-2,3,5,0,0
1558440719403160,-2,0,-2,2,-1,-6,-1,-2
1558440719403160,0,1,0,-3,4,6,3,0
1558440719404030,-2,0,-2,-1,-6,-8,-5,-4
1558440719404030,-1,0,0,3,-4,2,0,-2
1558440719417182,-3,-2,2,-3,1,-5,-1,2
1558440719417182,2,0,-1,-1,-1,3,0,0
1558440719423968,-1,-3,-1,-1,1,4,-1,1
1558440719423968,-3,-2,-1,0,-4,-6,-8,-3
1558440719439923,-1,-1,-1,-1,1,3,3,0
1558440719439923,-1,-2,-3,-4,-2,-3,-5,-4
1558440719445911,2,1,0,7,3,1,5,4
1558440719445911,1,-1,-1,-7,0,0,0,1
1558440719462859,-2,-2,-2,-3,-2,-2,-5,-4
1558440719462859,-2,-3,2,2,-5,0,-1,-2
1558440719463857,-1,-1,-2,-5,-5,-7,-4,-3
1558440719463857,-1,1,-1,1,4,-2,2,4
1558440719476823,0,-1,0,3,-2,-3,-1,-1
1558440719476823,-2,-2,-4,1,-1,2,-1,-5
1558440719483805,-2,-2,1,0,-5,-2,-4,-2
1558440719483805,-2,-2,-2,-5,-5,-1,0,-2
1558440719499762,-1,3,-1,3,3,6,5,2
1558440719499762,1,0,-1,-5,-1,-4,-1,1
1558440719506112,-1,-2,-4,-2,-5,0,-1,-1
1558440719506112,0,-2,0,5,-3,-2,-4,-4
1558440719522817,0,0,-1,-6,-3,0,-2,3
1558440719522817,0,-1,-1,-3,0,-1,-1,-1
1558440719523699,-2,0,0,3,3,5,2,-2
1558440719523699,-3,-3,1,-1,2,-2,1,-1
1558440719537660,-2,-4,-2,-5,-6,-1,-7,-6
1558440719537660,-1,1,-2,0,0,-1,3,0
1558440719543993,-2,-2,-1,4,5,3,2,2
1558440719543993,-2,-3,-2,-5,-2,-2,-2,-4
1558440719560090,-1,-3,-3,-3,-6,-4,-2,-3
1558440719560090,0,0,-2,2,-2,-1,-2,7
1558440719567017,-6,-2,0,-5,-1,-5,-4,-11
1558440719567017,1,1,1,-1,-3,-2,-5,0
1558440719589525,1,-1,2,5,-1,-7,1,0
1558440719589525,-4,-3,-1,-3,2,3,0,-6
1558440719591517,2,0,-3,-3,0,1,3,4
1558440719591517,1,0,-3,-2,-3,-2,2,0
1558440719612479,-2,0,-2,0,-4,-6,-6,-3
1558440719612479,4,-1,-1,-3,4,5,4,2
1558440719614457,-1,0,0,-2,0,4,-1,-1
1558440719614457,-1,0,-1,3,3,2,1,0
1558440719619452,-1,-2,-1,-5,-2,-5,-2,-2
1558440719619452,-2,-3,-2,-4,-8,-9,-8,-4
1558440719633559,2,0,0,4,4,7,5,2
1558440719633559,1,-1,-2,-1,-3,-2,-1,0
1558440719642427,-2,-3,-4,-4,1,-2,2,0
1558440719642427,-1,-2,1,0,-1,5,0,1
1558440719644379,0,-2,-3,-1,-7,-4,-5,-2
1558440719644379,-3,-2,0,-4,-4,-6,-1,-5
1558440719657341,3,0,-1,-1,2,-1,3,1
1558440719657341,-3,1,0,3,0,-1,-2,-2
1558440719663326,0,-2,-2,-6,-3,-6,-5,0
1558440719663326,3,-2,-2,-2,2,6,4,5
1558440719679309,-2,-1,-3,0,2,-3,-1,-4
1558440719679309,-3,-3,2,-1,1,2,-1,-5
1558440719686262,0,-2,-2,-4,-2,0,-1,-1
1558440719686262,-3,-4,-2,-2,-2,-2,-3,-5
1558440719703253,-2,-1,1,2,-5,1,-2,0
1558440719703253,-1,-2,-2,-3,-1,-5,1,1
1558440719704218,-1,-2,4,0,3,5,5,-1
1558440719704218,-1,-1,3,5,0,-4,-5,-1
1558440719717446,0,1,-3,-5,-1,-3,-2,3
1558440719717446,-1,-2,-5,-3,-4,-7,-4,-7
1558440719723164,-4,-2,-4,2,-6,-6,-3,-3
1558440719723164,-3,1,1,1,8,4,6,5
1558440719739349,0,0,0,1,1,4,-1,0
1558440719739349,2,-2,-1,-2,-2,-3,-3,2
1558440719746234,-3,-3,-2,0,-6,-7,-8,-10
1558440719746234,-1,-1,-3,-4,-2,-5,1,-2
1558440719762346,-4,-2,-1,-1,-3,3,-3,-4
1558440719762346,-1,-1,0,4,-3,-2,0,2
1558440719764056,0,0,0,-6,0,-8,-1,4
1558440719764056,0,-2,-3,-1,-1,0,-3,-2
1558440719777248,0,-1,-1,4,-2,2,1,-1
1558440719777248,0,1,1,-1,0,-1,-1,0
1558440719784240,3,1,0,-3,3,4,1,3
1558440719784240,-3,-1,-3,-2,-1,-1,-1,-3
1558440719800023,-2,0,0,0,-2,0,4,1
1558440719800023,-5,0,-2,-2,-1,-6,-4,-5
1558440719805986,1,0,2,1,3,4,2,1
1558440719805986,0,0,-1,4,-2,3,-1,1
1558440719822938,-2,-1,2,-5,1,-2,-4,-2
1558440719822938,-1,0,1,-3,-2,-2,-1,0
1558440719823896,-3,-2,-2,4,-3,0,-1,0
1558440719823896,-4,-4,-6,-6,-5,-6,-5,2
1558440719837065,5,3,3,1,5,-3,2,-2
1558440719837065,2,2,-2,1,-1,3,0,2
1558440719844068,-6,-3,-3,0,-1,1,-2,-6
1558440719844068,-2,-2,-1,-4,1,4,-1,-5
1558440719867810,-5,-2,-4,0,-2,-4,-2,2
1558440719867810,-2,-3,1,4,3,4,1,-1
1558440719869809,1,1,0,-4,-4,-5,-4,1
1558440719869809,2,1,2,-1,0,0,4,3
1558440719883082,-3,-1,-1,3,4,7,7,2
1558440719883082,2,0,-3,-5,-4,-3,-4,-1
1558440719883943,-3,-2,-3,-2,-2,-4,-4,-2
1558440719883943,-1,-2,-1,1,-1,-1,-3,-4
1558440719896968,-1,0,1,1,-3,-3,-5,-2
1558440719896968,-1,-2,-2,-5,-2,0,2,0
1558440719912656,1,0,-1,0,0,0,2,3
1558440719912656,-2,-1,1,5,1,-1,-4,-5
1558440719919864,-1,-3,-4,-7,-4,-6,-3,-1
1558440719919864,-3,-2,-2,2,3,3,2,-3
1558440719926831,1,-1,-2,2,-1,-5,0,4
1558440719926831,-5,-3,-3,-6,-4,-1,-4,-4
1558440719942879,-2,-1,-1,-3,0,-1,-3,-2
1558440719942879,-4,-2,0,1,-4,-1,-4,-5
1558440719943579,2,2,0,0,2,3,2,2
1558440719943579,-1,0,-3,1,4,7,5,3
1558440719956542,2,-2,-2,0,-1,3,-2,-4
1558440719956542,-2,-2,-3,-1,-8,-7,-3,1
1558440719965516,-3,-1,1,-4,-1,-7,-4,-7
1558440719965516,2,1,0,-3,2,-8,1,1
1558440719987639,-1,-3,1,3,-4,-5,-3,-1
1558440719987639,1,1,2,-4,7,7,4,4
1558440719989453,0,0,-2,-3,-2,2,-2,1
1558440719989453,-1,-2,-3,-1,-5,-3,-5,-1
1558440720002418,-2,-2,-1,-1,-5,-8,-2,-2
1558440720002418,0,-1,-1,-4,2,-1,-1,-3
1558440720004413,0,0,-2,0,-1,3,3,-1
1558440720004413,-1,-1,0,4,-6,-9,-4,-1
1558440720016388,3,2,1,-3,3,4,3,5
1558440720016388,-3,-3,-1,0,2,-5,-1,-4
1558440720025356,-4,-3,0,2,0,-1,-2,-3
1558440720025356,0,-1,2,-4,1,6,3,1
1558440720039318,-5,-2,-1,-3,-8,-2,-5,-3
1558440720039318,0,-1,-3,1,-5,-7,-3,-2
1558440720046617,1,0,-1,1,3,1,-1,0
1558440720046617,0,1,-1,-2,1,-6,2,-3
1558440720062610,0,1,-1,-1,2,2,2,2
1558440720062610,0,-1,-2,-1,-4,-4,-1,3
1558440720064288,-4,-3,-1,-2,-3,-2,-2,-6
1558440720064288,0,1,2,-1,0,1,0,2
1558440720076218,-2,2,0,3,3,4,0,0
1558440720076218,-1,2,-1,-3,-1,-1,-1,0
1558440720092178,-2,-3,-3,-3,-2,0,3,2
1558440720092178,-2,-2,-1,1,-3,0,-2,-6
1558440720099158,-1,-2,-2,-1,-3,-2,-5,-4
1558440720099158,-3,-2,-4,-4,-6,-2,-5,-1
1558440720113119,0,-2,0,-2,-3,-9,0,1
1558440720113119,2,0,0,2,3,1,2,6
1558440720122095,-2,-2,-2,-3,3,10,5,0
1558440720122095,-4,-3,-2,-1,-3,-3,-3,-10
1558440720129082,0,-2,-2,2,-2,-7,-5,-2
1558440720129082,-3,-3,-2,-4,-1,1,1,-3
1558440720145041,-1,-2,-2,-2,-1,-8,1,1
1558440720145041,-1,0,0,1,1,1,4,1
1558440720146036,-1,-3,-1,-4,-5,-1,-2,1
1558440720146036,-3,-3,-2,-3,-5,-6,-7,-5
1558440720166976,-3,-3,-2,0,1,7,-4,-2
1558440720166976,2,1,2,3,5,4,5,4
1558440720168971,-1,0,0,-3,0,0,0,1
1558440720168971,-4,-1,-1,-3,-3,0,-4,-3
1558440720189915,-4,-3,-1,3,-2,-7,-3,-4
1558440720189915,2,2,0,-3,-1,-5,0,2
1558440720190926,1,-1,-2,0,-1,3,-2,0
1558440720190926,2,0,-3,1,3,8,3,0
1558440720195898,4,2,2,-3,5,2,3,2
1558440720195898,-2,-1,0,-2,-3,-5,-2,-3
1558440720204873,-4,-1,-3,-3,-2,-1,-2,-4
1558440720204873,-2,1,1,2,-1,-2,1,1
1558440720219834,2,1,0,-2,4,7,3,1
1558440720219834,-1,-1,-1,-1,0,2,-3,-1
1558440720225820,-3,-1,0,2,-2,-2,-2,-3
1558440720225820,-2,-3,-2,-3,-5,-2,-4,-2
1558440720241775,-4,-3,-4,-3,-5,-8,-3,-7
1558440720241775,-1,-1,-1,1,-3,-5,-3,-2
1558440720248756,-1,-1,-1,-5,-2,0,-3,-3
1558440720248756,1,-1,-1,-3,2,0,1,4
1558440720255738,3,0,1,0,2,1,0,3
1558440720255738,0,-3,-4,1,0,-2,-1,-3
1558440720264714,1,0,3,-3,2,-2,1,1
1558440720264714,2,-1,0,-3,-3,-3,0,-2
1558440720279675,-6,-2,-2,0,-6,-3,-5,-4
1558440720279675,-2,-2,-1,-6,-4,1,-3,3
1558440720285659,-1,-2,-2,-2,2,4,-1,-2
1558440720285659,0,-2,-1,5,2,0,-2,-1
1558440720302613,-5,-3,-3,-3,-7,-10,-8,-10
1558440720302613,-4,-3,-3,-4,0,4,0,-5
1558440720316575,-1,1,2,2,3,2,9,1
1558440720316575,-2,-1,-3,2,-2,0,1,2
1558440720324555,1,-2,1,-2,-2,-12,-4,-1
1558440720324555,-3,-4,-5,-5,-7,-4,-6,-2
1558440720326549,0,0,-3,3,0,0,1,0
1558440720326549,-2,1,-1,-5,0,2,0,-3
1558440720339515,-3,0,-2,-2,-3,2,-1,1
1558440720339515,0,0,2,5,2,4,0,-1
1558440720346495,2,1,-2,-1,2,-14,0,3
1558440720346495,-1,-1,1,-2,-1,3,-2,-2
1558440720361455,-3,-4,-3,-3,-7,-7,-6,-1
1558440720361455,-2,-1,1,-1,-5,-4,-4,-5
1558440720370432,-2,-1,2,1,7,10,8,-1
1558440720370432,-2,-1,-1,-3,-2,-2,2,-3
1558440720392408,0,0,-2,1,-1,3,-1,-3
1558440720392408,-1,1,0,-4,1,-1,0,0
1558440720394367,-3,-3,-3,-5,-7,-4,-7,-4
1558440720394367,-1,0,-2,2,0,-6,-3,-2
1558440720399355,2,1,1,-2,1,8,4,1
1558440720399355,-2,-2,-1,-2,1,-4,3,-1
1558440720406337,-2,-1,-2,-1,-1,-7,-3,0
1558440720406337,-4,-1,1,0,-5,-6,-6,-4
1558440720422294,0,-1,-2,-6,2,-1,2,6
1558440720422294,0,0,-1,-1,1,11,2,0
1558440720428276,-2,-1,1,2,0,-3,-4,-1
1558440720428276,0,-1,-1,-5,-2,-4,-3,-1
1558440720445266,-2,-3,-2,-2,-3,-1,-4,-4
1558440720445266,-1,-1,-2,2,-2,3,1,2
1558440720446230,1,1,-1,-4,-2,-3,1,1
1558440720446230,1,0,0,0,4,0,2,2
1558440720467207,1,1,-1,3,3,5,3,1
1558440720467207,-2,0,-3,0,-2,-3,-2,-3
1558440720469202,-4,-1,-1,-5,-3,7,-2,-6
1558440720469202,4,-2,-2,-1,-1,5,2,4
1558440720490114,-3,-1,0,4,0,-8,-2,-3
1558440720490114,-1,0,0,-3,2,-3,0,-2
1558440720491109,-2,-2,-4,-3,-6,-3,-4,1
1558440720491109,-1,-1,0,2,-2,2,-2,-2
1558440720505072,-1,-1,1,-4,-5,-6,-3,-2
1558440720505072,3,0,0,-2,1,-4,0,1
1558440720506069,0,-1,0,1,2,1,-2,-2
1558440720506069,-1,-1,-2,-1,-1,0,-3,-2
1558440720519035,1,0,-2,-2,-2,-4,0,3
1558440720519035,3,0,0,0,4,0,4,6
1558440720526016,-1,1,0,3,2,5,3,-1
1558440720526016,0,-2,-1,-4,2,6,3,1
1558440720541972,-2,-4,-2,-2,-4,1,-4,-5
1558440720541972,-3,-3,-2,0,-5,0,-5,-3
1558440720549950,2,-2,-1,-3,-3,-1,-1,2
1558440720549950,-2,-2,-4,-3,-6,-13,-7,-5
1558440720571893,-4,-1,-1,1,-4,0,-4,-5
1558440720571893,2,2,4,5,12,5,10,9
1558440720579909,-1,-2,-1,-2,2,8,3,1
1558440720579909,-4,-1,-1,-1,-1,-2,-1,-3
1558440720580902,-1,-1,-1,0,-3,-5,-2,-1
1558440720580902,-3,-3,-2,-5,-7,-1,-7,-7
1558440720593833,-1,-3,-1,-2,-7,-7,-6,-3
1558440720593833,-2,-1,-2,1,1,1,1,0
1558440720601813,3,0,0,-3,3,3,2,-1
1558440720601813,0,2,-1,-1,-1,-5,0,1
1558440720608823,1,0,-1,3,2,3,2,-1
1558440720608823,1,-1,-4,-2,-6,-12,-3,2
1558440720625750,-2,0,1,-2,0,-3,0,0
1558440720625750,-1,-1,-2,-3,-3,-1,-4,-5
1558440720626745,-4,-4,-5,0,-6,-2,-8,-3
1558440720626745,1,1,2,-1,4,7,5,1
1558440720639713,0,0,-4,0,2,0,4,1
1558440720639713,-3,-4,-2,2,-2,-2,0,-3
1558440720645727,-1,-1,-1,-5,-6,-8,-6,-4
1558440720645727,-1,-2,-2,-4,-5,1,-4,0
1558440720669632,-2,-2,-2,0,0,-3,-4,-5
1558440720669632,-2,-3,-2,-1,0,-5,-4,0
1558440720671626,0,-1,-3,-2,2,6,3,4
1558440720671626,-1,-2,-1,-2,-4,-7,-5,0
1558440720684590,2,0,1,1,-1,-2,0,-2
1558440720684590,0,-1,-2,-2,-1,1,1,-5
1558440720686585,2,1,0,1,6,0,5,5
1558440720686585,-1,-1,1,3,1,5,0,-6
1558440720699551,-2,0,-3,-3,-2,-5,-1,3
1558440720699551,-1,0,0,-3,-2,-1,0,-3
1558440720706533,-1,-2,-4,-1,-12,-8,-7,-1
1558440720706533,-5,-1,0,-1,1,-3,0,0
1558440720721493,-1,-3,0,-1,3,4,4,3
1558440720721493,-1,0,1,-1,0,1,-1,-1
1558440720728474,-4,0,0,1,2,-2,-2,-3
1558440720728474,1,0,-2,-3,-2,-2,-3,1
1558440720744460,-2,-1,-3,-3,-4,2,-2,-6
1558440720744460,-3,-2,0,1,-6,-9,-2,0
1558440720746426,1,0,1,-2,7,7,5,0
1558440720746426,-3,-3,-2,-4,-2,-3,-2,-6
1558440720758421,2,0,0,2,0,0,-1,3
1558440720758421,-1,-2,-2,-1,2,0,-1,1
1558440720775384,-1,-3,-2,-4,-2,-4,-2,-4
1558440720775384,-1,0,-3,0,0,-2,-1,1
1558440720781370,0,0,-1,3,1,2,1,-1
1558440720781370,-3,-1,0,-4,-2,-4,-3,-1
1558440720796323,0,1,0,-1,0,0,0,-2
1558440720796323,-3,-1,1,3,3,4,2,1
1558440720805304,-2,-2,0,-6,-4,-3,-3,-2
1558440720805304,-1,-2,-3,-2,0,4,-1,-2
1558440720806265,-3,-3,-1,1,-7,-5,-5,-3
1558440720806265,3,1,-1,-2,1,6,5,4
1558440720818234,-1,0,0,-2,2,-5,0,-1
1558440720818234,-1,2,0,1,3,2,0,-3
1558440720827209,1,1,1,2,2,1,1,5
1558440720827209,-2,-3,-3,-4,-4,-3,-7,-6
1558440720850161,1,-2,-1,-2,-4,-3,1,1
1558440720850161,0,0,-1,5,2,1,1,3
1558440720851148,-1,-1,-2,-4,2,4,1,-1
1558440720851148,-3,-3,-2,-3,-4,-7,-2,-5
1558440720872090,-2,-1,-1,3,1,0,1,0
1558440720872090,-2,-2,-1,-3,-3,1,-4,-1
1558440720874086,-2,-3,-3,-4,-4,-6,-5,-5
1558440720874086,0,1,-1,0,-1,-3,0,4
1558440720878108,-3,-2,-1,-1,-1,-7,-5,-4
1558440720878108,-3,-4,-2,-2,2,4,3,-1
1558440720887049,-2,-2,-2,-1,1,1,0,-1
1558440720887049,0,0,0,3,-1,-3,0,1
1558440720902010,-3,-1,-2,-3,-4,-1,-4,-2
1558440720902010,3,0,-2,-4,-5,-3,-3,-2
1558440720908992,1,-2,-1,3,-1,2,-2,0
1558440720908992,-2,0,0,-2,-1,-4,-2,-2
1558440720924948,0,-1,-3,-3,-1,-1,3,7
1558440720924948,-5,-2,2,1,4,1,1,-10
1558440720925946,-5,-1,1,0,-3,-3,-1,-4
1558440720925946,0,-1,-1,-2,-3,0,-3,-3
1558440720947886,2,1,-1,-1,-4,2,-3,-1
1558440720947886,1,-1,-1,4,1,2,4,3
1558440720948885,0,0,-1,-1,3,1,2,1
1558440720948885,-3,-3,-2,-2,-2,0,-4,-7
1558440720961876,0,0,0,2,0,-4,-1,0
1558440720961876,0,-1,-1,-4,-3,-6,-4,1
1558440720977841,0,0,1,-1,2,7,4,-1
1558440720977841,0,-2,-1,0,0,-2,-2,2
1558440720984822,-4,-2,-2,0,-2,-2,-2,-2
1558440720984822,-1,0,-3,-5,-7,-4,-6,-3
1558440720986821,-2,-2,-5,-3,-7,-7,-4,-1
1558440720986821,-1,2,1,5,9,8,8,2
1558440720999274,0,-1,-2,-3,1,6,0,-1
1558440720999274,0,0,-1,-2,-1,-8,-3,-1
1558440721007728,-2,-2,-3,0,-7,-3,-6,-3
1558440721007728,0,-1,-1,-4,0,-2,1,-3
1558440721022145,0,-2,0,-2,1,1,1,1
1558440721022145,1,-1,-1,-1,-3,0,-1,4
1558440721028672,1,0,2,1,1,-5,-1,-4
1558440721028672,-2,-1,-1,-2,-5,-2,-2,0
1558440721053076,-2,-1,0,-1,5,8,3,-1
1558440721053076,0,-2,-2,2,-5,-3,-3,2
1558440721054652,-1,0,-1,-6,-3,-13,-7,0
1558440721054652,0,1,1,0,8,11,8,2
1558440721058792,-3,1,0,3,-2,-3,-3,-4
1558440721058792,-1,-2,-4,-5,-2,-1,-4,-3
1558440721074549,-2,-3,-2,-3,-3,0,2,0
1558440721074549,2,1,-1,2,1,-3,2,2
1558440721081881,0,0,0,1,2,2,2,1
1558440721081881,-3,-2,1,-1,4,7,7,1
1558440721088547,0,-3,-1,-2,0,1,-1,-1
1558440721088547,-2,-1,-3,0,-5,-6,-8,-4
1558440721104468,-2,-4,0,-4,-4,-4,-4,-4
1558440721104468,-3,0,2,-4,-3,-8,-5,-3
1558440721111449,0,0,0,2,-1,1,0,0
1558440721111449,-3,-3,-1,-1,1,-2,2,5
1558440721118430,1,1,-1,-1,1,5,3,1
1558440721118430,-2,-1,-3,0,-5,0,-1,-1
1558440721127407,0,-2,-2,0,-1,-8,-2,-2
1558440721127407,0,-3,-1,-3,0,1,-1,1
1558440721141380,-2,0,-2,-3,-4,-2,-3,-1
1558440721141380,0,-1,-1,4,0,-1,-2,2
1558440721148350,0,1,-1,-4,-2,4,2,-3
1558440721148350,-2,-1,-2,-2,-4,-3,-1,-3
1558440721164313,1,-2,2,5,5,6,2,0
1558440721164313,0,1,0,-6,0,-2,2,1
1558440721171289,-3,0,-1,0,-2,-5,-2,-2
1558440721171289,-1,0,-1,0,-2,-3,-6,-2
1558440721178270,-1,-2,-2,-3,-3,-6,-5,-4
1558440721178270,0,-2,-3,-1,2,-1,-1,4
1558440721187246,1,-1,0,-1,2,4,0,-3
1558440721187246,-1,-3,-1,1,-4,-1,-5,-4
1558440721201210,-2,0,-2,-3,-2,-13,-5,-1
1558440721201210,-1,-2,-2,-3,-4,-7,-2,-3
1558440721208199,-3,0,0,3,1,3,3,3
1558440721208199,1,0,-1,-2,0,3,1,0
1558440721224149,-3,-3,-2,-2,-4,2,-1,-1
1558440721224149,0,-2,-1,1,-3,-4,-1,-2
1558440721231129,-2,-2,-3,-3,-4,-4,-7,-3
1558440721231129,-5,-3,-2,-6,-8,-6,-7,-8
1558440721255066,3,-2,-1,0,2,1,0,3
1558440721255066,0,1,3,5,7,9,6,0
1558440721256064,0,-2,-1,-1,1,1,3,0
1558440721256064,-1,-2,-1,-1,-4,-7,-4,-4
1558440721262046,-2,0,0,0,-5,-7,-2,-1
1558440721262046,-2,-2,-1,-5,-1,-5,-3,-2
1558440721269027,0,0,-1,-4,0,0,-1,2
1558440721269027,0,1,-1,4,3,2,2,-2
1558440721283988,-4,-1,-1,-4,-5,-1,-3,0
1558440721283988,-6,-4,-1,-2,-2,-1,-1,-7
1558440721298950,2,0,1,0,-3,-13,-2,4
1558440721298950,-1,-3,-1,2,2,-4,0,-3
1558440721306932,0,0,0,-3,1,7,1,-2
1558440721306932,1,1,2,-1,1,5,0,2
1558440721308921,-2,-2,-1,2,-3,-2,-4,-1
1558440721308921,1,-1,-1,-6,-4,-2,-2,-1
1558440721329866,1,0,-3,0,-1,-1,2,-1
1558440721329866,1,0,1,4,7,4,4,2
1558440721331861,1,1,2,-1,2,7,3,0
1558440721331861,0,-1,-3,-5,-4,-5,-2,2
1558440721352804,-3,-2,-1,0,-3,0,-4,-6
1558440721352804,1,-2,-2,-1,-10,-8,-6,2
1558440721353801,-2,-3,-2,-2,3,0,2,-2
1558440721353801,-2,0,3,1,3,0,3,2
1558440721367764,-1,-2,-1,1,-2,-1,-1,0
1558440721367764,-1,-1,-3,-3,0,-3,-2,-1
1558440721368761,0,-2,-1,-1,-2,2,-4,-5
1558440721368761,-2,-2,-2,0,-2,1,1,3
1558440721381728,-3,-1,-1,-2,1,-5,-3,-5
1558440721381728,1,1,1,0,4,8,6,2
1558440721388707,-5,-1,-1,-1,-4,-1,-4,-3
1558440721388707,-3,0,-1,0,-2,-1,-4,-3
1558440721404665,0,-1,-1,-4,-3,-3,-1,-1
1558440721404665,-1,-1,-3,-2,-3,0,-2,-4
1558440721410650,4,0,-1,2,3,6,5,4
1558440721410650,3,2,3,-4,6,12,8,4
1558440721427604,2,-1,1,-2,0,-4,-2,3
1558440721427604,-1,-1,-1,1,-3,-8,-6,-2
1558440721428601,-1,-3,-1,-3,-1,3,1,-1
1558440721428601,-2,-1,-3,-4,-5,-6,-5,-7
1558440721441569,-3,-3,-2,1,-3,0,0,4
1558440721441569,-2,-1,-4,-1,-1,-1,0,-2
1558440721448547,-2,1,-1,-2,0,2,0,-2
1558440721448547,-1,-1,-1,-2,0,0,0,1
1558440721464505,0,-1,-2,4,1,-4,-1,-1
1558440721464505,-2,-2,0,-4,-4,-2,-2,-3
1558440721478468,-2,-1,-1,-3,-3,-5,-4,0
1558440721478468,0,0,-3,1,0,5,-1,2
1558440721487444,-1,0,-1,-3,1,4,2,-4
1558440721487444,-2,-1,-2,-2,-1,-1,-4,-4
1558440721488442,0,1,-2,1,3,-3,1,1
1558440721488442,-1,-1,0,3,2,-2,2,2
1558440721501411,0,-2,-2,-3,-2,-2,-3,0
1558440721501411,-2,-2,-2,-3,-6,-4,-5,-8
1558440721508389,-3,-3,-1,1,-4,-7,-2,-3
1558440721508389,1,-1,1,-1,5,8,5,4
1558440721524346,-2,-2,-2,-1,1,0,0,-1
1558440721524346,-2,-1,-2,2,0,-4,-1,-1
1558440721532341,0,-2,-2,-3,-7,-8,-6,0
1558440721532341,-5,-3,-1,-2,-7,-3,-3,-7
1558440721555262,0,0,1,2,5,9,7,0
1558440721555262,0,-2,-2,-1,1,-1,0,0
1558440721556261,-2,-1,0,-3,-1,0,-1,-2
1558440721556261,3,0,-3,-3,-2,-3,-1,2
1558440721561251,0,0,0,2,0,0,-5,-1
1558440721561251,0,-1,-1,-4,-2,0,1,-2
1558440721576205,0,0,-2,-2,-1,0,1,-1
1558440721576205,-4,0,-2,2,-4,-3,-3,-5
1558440721584186,-3,-2,-2,-4,-2,-2,-3,-1
1558440721584186,-3,-2,-2,-3,-3,0,-2,0
1558440721591171,1,2,2,3,3,9,7,8
1558440721591171,-1,0,2,3,3,-7,-1,-6
1558440721607124,-2,1,-1,-4,0,-4,-2,-2
1558440721607124,-4,-2,-1,0,1,1,-1,-1
1558440721609117,-3,-2,-2,0,-4,-3,-6,-5
1558440721609117,-2,-2,-1,-7,-4,-5,-3,1
1558440721630065,0,0,-2,0,3,9,5,2
1558440721630065,1,-4,1,3,0,0,2,1
1558440721631060,1,1,-3,-3,-2,-2,-2,-2
1558440721631060,-3,-3,-2,-2,-2,-5,-4,-3
1558440721644031,0,-1,0,1,-1,3,-3,-3
1558440721644031,0,0,0,-2,-3,-5,-3,3
1558440721652009,-2,-1,0,-2,2,3,4,-4
1558440721652009,-1,0,0,-2,0,0,1,3
1558440721666963,-6,-2,0,3,0,0,-2,-5
1558440721666963,1,2,2,-2,3,6,2,0
1558440721668959,0,-3,-1,-3,-2,-5,-1,-3
1558440721668959,1,-2,-3,2,-4,-4,-4,0
1558440721681929,1,-3,-2,-6,-7,-9,-3,2
1558440721681929,-2,-1,0,-3,1,0,-4,-8
1558440721688906,0,0,0,4,0,6,0,3
1558440721688906,-1,-1,2,-1,4,7,1,1
1558440721703866,0,0,-1,-4,-4,-12,-3,-2
1558440721703866,-2,-3,-4,-2,-5,-3,-2,-1
1558440721710851,0,1,-2,4,4,-1,-1,1
1558440721710851,2,3,2,-1,3,8,4,2
1558440721727804,-2,-2,0,-1,-2,3,2,-1
1558440721727804,-1,-3,-2,1,-3,-6,-8,-2
1558440721728798,-2,-4,-2,-6,-5,-1,-7,-5
1558440721728798,2,1,-1,0,2,-1,4,2
1558440721740767,1,2,3,4,4,3,3,0
1558440721740767,1,-1,-1,0,-4,-3,-2,2
1558440721757721,-3,-3,-1,-3,-4,-4,-2,-2
1558440721757721,-2,-1,-2,-4,-7,-8,-6,-1
1558440721764704,-2,-1,-1,2,-1,4,1,-3
1558440721764704,-3,-2,-5,-3,-2,-2,2,-2
1558440721778666,2,2,2,-2,5,1,4,0
1558440721778666,-1,-2,0,3,-2,0,-1,-3
1558440721787644,0,-1,-3,-5,-1,0,0,0
1558440721787644,-2,0,-1,-2,3,2,1,2
1558440721788641,-2,-1,-2,1,-2,-4,-3,-1
1558440721788641,-1,-4,-2,-2,-5,-8,-4,4
1558440721809586,-2,0,2,-2,0,-4,-3,-6
1558440721809586,-2,0,0,1,0,0,1,2
1558440721811577,-1,0,-1,2,-2,4,-3,-6
1558440721811577,-2,-1,-3,-2,-1,-4,1,-3
1558440721832524,1,-1,-3,-2,-2,1,0,3
1558440721832524,1,0,0,4,1,2,-1,0
1558440721833519,-2,-3,-4,-4,-5,-5,-2,-2
1558440721833519,2,-1,-1,-1,1,1,2,0
1558440721855460,-5,-1,-1,3,-1,0,0,-4
1558440721855460,2,0,0,-2,1,5,2,-1
1558440721856458,-1,-2,-1,-2,-2,0,-1,2
1558440721856458,-2,-2,-6,-3,-6,-8,-5,-2
1558440721861501,-2,-1,-1,1,-3,-5,-2,3
1558440721861501,-1,0,0,-2,-2,-2,2,-3
1558440721869496,-5,-2,-2,-3,-2,-1,-7,-5
1558440721869496,-3,-1,0,4,3,8,-1,-5
1558440721884389,-1,1,0,-3,-3,-11,-4,1
1558440721884389,0,-1,1,-2,2,0,3,2
1558440721891365,1,-3,-1,4,0,0,4,-1
1558440721891365,0,0,1,-2,-1,0,0,-1
1558440721907326,2,-3,-1,-4,-2,5,-2,6
1558440721907326,-3,1,0,0,-1,-1,-4,-5
1558440721909316,-1,-1,-2,0,0,-7,-2,3
1558440721909316,-1,0,-1,-2,0,5,0,-2
1558440721921288,2,-1,-2,-3,-3,-6,1,0
1558440721921288,2,-1,0,3,-3,-6,-3,-1
1558440721930261,2,0,0,-2,5,10,2,2
1558440721930261,-3,-5,-4,-5,-8,-6,-9,-4
1558440721944223,-1,-1,0,4,5,10,5,0
1558440721944223,-1,2,0,0,3,-1,5,3
1558440721958187,-1,1,1,-1,1,-2,0,1
1558440721958187,0,-1,-1,0,-1,-1,1,-3
1558440721967161,-2,-3,-4,-4,-8,-8,-9,-6
1558440721967161,-1,-3,-4,-5,-2,-2,-3,-2
1558440721969157,0,1,0,0,0,-1,-1,1
1558440721969157,-1,-1,-1,3,1,0,-1,1
1558440721981133,1,1,2,-1,-1,-1,-1,-2
1558440721981133,-1,-1,0,0,-3,-1,-1,0
1558440721990101,0,-1,0,1,-2,-5,1,-2
1558440721990101,2,-1,-1,-2,2,2,0,5
1558440722004063,-5,-3,-2,-1,2,-3,-3,-10
1558440722004063,-1,-1,-2,0,-4,-1,-4,-1
1558440722011047,-3,-3,-4,-1,-6,-2,-3,-6
1558440722011047,2,1,2,-3,2,2,5,-1
1558440722027001,1,-1,-3,0,2,1,2,2
1558440722027001,0,0,1,3,3,6,6,1
1558440722033983,-4,-3,-2,-3,-3,-3,-4,1
1558440722033983,0,-3,-1,-2,-2,-7,-2,-2
1558440722040972,0,0,0,1,-1,0,-3,0
1558440722040972,-3,-1,-2,-2,-1,5,0,-1
1558440722056921,-1,0,1,-1,1,-3,2,3
1558440722056921,0,0,1,3,-1,-5,-2,-2
1558440722063903,0,-1,-1,-1,-2,0,-3,2
1558440722063903,-2,-1,-2,-4,-4,-3,-2,-4
1558440722087839,1,2,1,-1,4,1,4,-2
1558440722087839,-1,0,0,3,-1,-4,-3,-4
1558440722087839,1,-1,-1,-4,-2,0,-2,-3
1558440722087839,2,0,-2,-3,-1,2,0,2
1558440722093823,-2,-1,-1,2,1,1,-3,-2
1558440722093823,-3,-1,-1,-4,-1,-1,-2,0
1558440722109782,0,0,1,0,2,0,1,4
1558440722109782,1,-4,-3,-1,-4,-6,-8,0
1558440722111775,0,-1,-1,-2,-4,0,-4,-5
1558440722111775,1,2,-1,-2,4,9,6,1
1558440722132719,-2,-3,0,-2,-1,0,0,-4
1558440722132719,1,-2,-1,2,-1,-6,3,1
1558440722133715,-1,-2,-2,-3,0,2,2,-1
1558440722133715,-3,-2,-2,-3,-5,-8,-4,1
1558440722146680,-3,0,-2,3,-1,0,-1,-2
1558440722146680,-2,-2,-2,-3,2,-1,-4,-1
1558440722153662,0,-2,-1,-4,0,-1,-1,0
1558440722153662,0,1,0,3,-1,0,2,-3
1558440722169622,-3,0,-1,-3,-4,0,-4,2
1558440722169622,-6,-3,-1,-4,-3,-7,-5,-7
1558440722171614,-1,-1,-2,1,2,7,3,0
1558440722171614,-1,-2,-1,2,-2,-5,-2,0
1558440722184581,-2,-2,0,-4,-1,-3,-1,-1
1558440722184581,0,0,-2,-1,-3,5,-2,-4
1558440722191563,1,-1,1,4,-7,-13,-2,3
1558440722191563,-4,-2,-2,-3,3,5,0,-1
1558440722206524,0,0,-2,-3,0,-3,1,1
1558440722206524,0,-3,-2,2,0,1,0,1
1558440722213502,-5,1,-3,-2,-5,-6,-7,-10
1558440722213502,-2,-2,-1,-3,-1,1,-3,-4
1558440722237437,0,1,0,-1,2,5,2,0
1558440722237437,-1,-1,1,1,0,0,0,3
1558440722238436,3,-2,-1,-3,0,3,3,3
1558440722238436,1,-1,1,-1,-1,-6,-2,-1
1558440722244420,-4,-2,-2,0,-5,-4,-5,-4
1558440722244420,1,0,2,-3,-2,-4,-3,0
1558440722258382,1,-1,2,-1,4,4,1,2
1558440722258382,-1,0,-1,1,0,6,-1,-5
1558440722266359,1,-1,1,-3,-2,-5,1,-1
1558440722266359,1,-1,-3,-1,1,0,4,1
1558440722273351,-2,-1,-2,-2,2,0,0,-3
1558440722273351,-1,-1,1,1,-2,2,-3,1
1558440722290299,-1,-1,-2,-3,-3,-7,-6,-1
1558440722290299,0,0,0,-2,0,2,1,-1
1558440722291294,1,-2,-1,2,-7,-1,-1,6
1558440722291294,-4,-1,-3,-3,-3,-6,-4,-8
1558440722304263,1,0,1,-1,-1,-3,3,1
1558440722304263,-5,-2,-4,1,-4,1,-5,-4
1558440722311249,-1,1,-2,-2,-2,-5,-3,0
1558440722311249,2,-1,-2,-1,-1,3,0,4
1558440722335176,-2,-2,-3,1,-1,3,1,-1
1558440722335176,-1,1,1,1,4,0,2,0
1558440722336174,-2,-1,-2,-3,-1,0,-2,-2
1558440722336174,-3,-2,1,-4,-4,-5,-3,0
1558440722350140,-3,-2,0,4,3,5,-1,-5
1558440722350140,1,-1,-1,-6,-7,-7,-4,4
1558440722351134,0,-2,0,-1,6,4,8,1
1558440722351134,-2,-4,-3,1,-3,-10,-2,-4
1558440722364099,0,-1,-3,-2,-3,-7,-2,3
1558440722364099,-3,-2,-4,-4,-2,-2,-5,-7
1558440722371083,-6,-1,-1,-1,-7,-6,-9,-6
1558440722371083,-1,0,-2,4,4,12,4,-1
1558440722387037,-1,0,1,-2,3,-2,6,4
1558440722387037,0,-1,-1,-1,-2,-3,-3,-1
1558440722393021,0,-1,-1,2,-3,-10,-3,0
1558440722393021,0,1,0,-2,0,9,3,3
1558440722409985,-4,-3,-6,-5,-3,-1,-4,-2
1558440722409985,-1,-1,0,2,-2,0,0,-4
1558440722410974,-2,-2,-2,-5,-3,-1,-3,-2
1558440722410974,1,0,-2,-2,-5,-11,-6,-2
1558440722423939,3,1,2,3,8,9,6,3
1558440722423939,0,-1,2,2,2,-4,-2,2
1558440722438898,0,-1,-3,-2,-1,2,0,-2
1558440722438898,-1,-2,-3,-3,-5,-7,-5,4
1558440722446882,-2,-1,0,2,-6,1,-4,-5
1558440722446882,-1,0,-1,-2,3,3,6,0
1558440722460844,-1,-1,-1,0,-1,3,0,-1
1558440722460844,2,0,1,2,3,-4,2,0
1558440722469831,0,-2,-2,-3,-4,-5,-7,-1
1558440722469831,-1,-2,-2,-3,-2,1,-3,-6
1558440722471811,0,0,-1,0,2,-4,2,2
1558440722471811,0,-1,1,1,5,7,5,-1
1558440722483789,-1,0,0,-2,-2,-6,-3,2
1558440722483789,0,0,-3,-3,-5,-4,-1,-3
1558440722490763,1,-1,2,5,2,11,2,3
1558440722490763,-4,-3,-3,-7,-1,-2,-3,-9
1558440722506720,-2,0,2,-1,2,-4,0,-3
1558440722506720,1,-1,0,5,1,1,-1,2
1558440722513700,-2,-2,-1,-3,-4,-5,-2,-4
1558440722513700,1,-1,-1,-3,1,-1,-1,0
1558440722529659,-1,0,-1,-1,-2,0,-3,-1
1558440722529659,-4,-2,-3,0,-2,-5,-4,0
1558440722531654,0,-1,-1,-4,1,0,0,1
1558440722531654,-1,1,-1,-2,-2,2,-1,0
1558440722544615,2,2,0,3,-2,-1,1,0
1558440722544615,1,-1,-1,-5,-1,0,-1,-2
1558440722550603,-1,-1,-1,0,2,-1,1,1
1558440722550603,-2,-2,-2,3,-1,1,0,0
1558440722566558,0,-2,0,-5,-3,-2,-2,-4
1558440722566558,-2,-3,1,1,2,8,3,1
1558440722573542,1,2,0,0,-2,-11,-3,0
1558440722573542,-4,0,-3,-3,-5,-6,-5,-1
1558440722589497,-2,-3,-1,-1,-1,0,0,1
1558440722589497,-2,-1,0,-3,-2,-3,0,4
1558440722591492,-4,-1,-4,1,-5,-3,-5,-5
1558440722591492,-2,-1,0,-3,-2,4,0,-1
1558440722612434,-2,0,0,-3,-1,4,0,-1
1558440722612434,0,1,-1,3,2,0,3,2
1558440722613431,1,-2,1,-3,-1,-6,-3,2
1558440722613431,0,1,-2,-3,-2,0,-1,-2
