timestamp,emg1,emg2,emg3,emg4,emg5,emg6,emg7,emg8
1558453445702141,0,3,3,-9,8,10,4,0
1558453445702141,-1,0,-2,-13,-6,0,-3,-3
1558453445703299,0,-3,-1,23,1,-6,1,1
1558453445703299,0,-1,-5,-14,-4,-6,-2,-2
1558453445706514,-3,0,0,-22,-5,1,-1,-3
1558453445706514,-1,-2,0,28,1,-2,1,3
1558453445708400,-1,-2,-3,-7,1,0,-2,0
1558453445708400,0,2,2,-18,-2,1,-1,-2
1558453445714182,0,-1,4,22,-3,-7,-3,-1
1558453445714182,-1,-3,-2,4,2,-4,-3,-1
1558453445721842,1,0,0,-24,2,7,1,-1
1558453445721842,2,-2,2,20,5,3,-3,-1
1558453445739080,-1,-4,-12,-2,-10,-8,-3,-1
1558453445739080,0,1,5,-10,3,2,-2,-3
1558453445743031,-1,0,2,-3,0,1,0,-2
1558453445743031,-1,-3,2,21,1,-3,-1,0
1558453445754013,0,-2,-14,-23,-3,0,1,2
1558453445754013,-1,-1,0,-11,-2,2,2,-3
1558453445766968,-2,-1,3,28,-3,-4,-5,-3
1558453445766968,-2,-1,-8,-31,-3,-1,-4,-3
1558453445773948,-1,-1,7,9,4,1,-1,-2
1558453445773948,-2,-1,-3,-6,-3,-3,1,1
1558453445820825,-1,0,4,-6,0,-1,4,-1
1558453445820825,-1,0,0,-10,2,8,4,1
1558453445821821,-2,-4,-1,22,1,-4,-2,0
1558453445821821,-1,1,2,1,6,0,1,0
1558453445822819,1,0,0,-24,-4,4,-1,1
1558453445822819,0,-3,-2,23,-4,-4,3,2
1558453445833789,0,-2,-3,-8,-1,-5,0,-1
1558453445833789,1,1,3,-13,0,2,-1,-2
1558453445835246,0,-2,-4,13,2,0,-2,-2
1558453445835246,-2,-3,0,0,-4,-9,-11,-4
1558453445840770,-1,2,3,-12,1,8,10,4
1558453445840770,1,-1,-3,11,-1,-2,3,0
1558453445847751,-1,-1,-4,10,-1,-6,-4,-2
1558453445847751,1,0,1,-9,2,-1,2,-1
1558453445862712,-1,0,-1,-27,-10,-3,-5,-5
1558453445862712,-4,-6,-5,7,-1,-6,-4,-2
1558453445870691,-1,-1,2,6,3,-1,1,2
1558453445870691,0,2,0,-6,6,5,0,-1
1558453445877672,0,0,1,6,-6,-2,-4,0
1558453445877672,-3,-2,-2,-7,-7,-3,-1,-1
1558453445893716,-1,0,-1,-7,-1,-1,-1,-1
1558453445893716,-2,-2,-4,4,-5,0,-1,0
1558453445900694,1,0,1,4,1,-3,0,-1
1558453445900694,2,2,-1,6,7,2,2,2
1558453445907675,-1,0,8,1,-1,-1,-1,-2
1558453445907675,-1,-2,-8,-12,-4,-4,-1,-1
1558453445922702,-1,-1,-5,-3,1,2,0,-1
1558453445922702,-2,-2,-2,-18,-9,-3,-4,-4
1558453445930616,-1,0,1,11,0,0,3,2
1558453445930616,-2,-2,-1,0,0,-5,0,-3
1558453445945575,-2,0,3,4,3,1,-1,-2
1558453445945575,-2,-3,-6,-19,-7,-4,-4,-2
1558453445953553,0,0,-8,1,-1,0,-2,1
1558453445953553,1,-1,5,7,3,3,-1,-1
1558453445960535,-2,-2,-6,-10,-6,-5,-6,-3
1558453445960535,-2,-3,1,16,3,-5,-2,-2
1558453445967518,-2,0,-4,-6,-5,2,2,-1
1558453445967518,-2,-1,1,0,0,1,-2,0
1558453445982986,-1,-1,-4,-10,-2,-3,-3,-2
1558453445982986,-1,0,4,11,5,4,0,0
1558453445990966,-1,-3,-1,-9,-3,-4,-4,-2
1558453445990966,-1,-2,-1,2,-6,-6,0,0
1558453445997947,0,-1,-3,7,5,3,2,-2
1558453445997947,-3,-2,-3,-19,-5,1,2,-2
1558453446013904,-2,-2,-2,14,-1,-9,-6,-4
1558453446013904,0,1,4,4,8,5,2,0
1558453446019887,0,-1,-2,-2,0,-1,1,1
1558453446019887,-2,0,2,-5,-8,-5,-5,-3
1558453446035932,-2,-3,-4,1,2,1,1,-3
1558453446035932,2,2,-1,-2,1,-1,-1,0
1558453446042827,-2,-4,-4,-9,-3,-2,-2,-1
1558453446042827,-1,1,-1,4,-3,1,0,-2
1558453446050864,-1,-3,-3,-7,-2,0,-1,0
1558453446050864,-1,-1,-4,-9,-3,0,-2,-1
1558453446057786,-1,2,6,12,4,-1,-3,0
1558453446057786,-3,-3,-4,-1,-4,-5,-1,-1
1558453446073743,-1,-1,3,5,4,3,-3,-1
1558453446073743,-2,-1,-7,-21,-7,-2,-2,-2
1558453446080726,0,-1,1,19,5,1,4,1
1558453446080726,-1,-1,-2,-7,-1,0,-9,-4
1558453446087471,2,1,-4,-3,-3,-5,12,5
1558453446087471,-1,-2,-3,3,-2,0,-2,-2
1558453446103217,1,-1,0,-5,-3,-3,0,1
1558453446103217,3,1,-3,9,5,0,0,1
1558453446111407,-3,-3,-4,-13,-4,3,-4,-2
1558453446111407,-2,0,1,-1,-7,-8,-5,-3
1558453446117392,-1,-1,0,-3,-4,-2,-2,-1
1558453446117392,0,-1,-3,-3,1,0,0,-1
1558453446133354,-1,-1,0,-4,-2,-1,1,1
1558453446133354,0,-2,0,11,7,3,2,-2
1558453446140332,-2,0,-2,-4,-3,-2,-3,-3
1558453446140332,0,-1,1,2,1,0,2,3
1558453446147312,-1,0,-1,-2,2,-3,-6,-4
1558453446147312,-2,-1,1,-1,-4,-2,-3,-1
1558453446162274,-2,-3,0,-8,-4,-2,-1,-3
1558453446162274,-2,-2,-5,-8,1,0,1,0
1558453446171248,1,0,1,-8,-3,-2,0,-1
1558453446171248,0,1,4,14,5,1,0,-2
1558453446185514,0,-1,1,14,2,0,-6,-2
1558453446185514,-1,-2,-4,-7,-6,1,3,-1
1558453446193505,-2,-2,1,2,0,-2,-2,-2
1558453446193505,0,-1,-2,-10,-3,5,4,1
1558453446200385,0,-1,-3,-6,-3,-2,3,3
1558453446200385,1,0,-2,-1,-3,-5,-4,-1
1558453446207368,-1,-3,1,6,1,2,-2,-2
1558453446207368,2,0,1,-3,4,2,0,2
1558453446222326,-4,0,3,10,5,0,-6,-5
1558453446222326,1,0,-4,-16,-1,3,4,2
1558453446231304,1,1,2,3,-3,-2,1,-1
1558453446231304,-2,0,6,10,-2,-6,-3,-4
1558453446245301,-2,0,-6,-20,-5,3,-1,-2
1558453446245301,1,-2,3,14,7,0,-3,-3
1558453446253280,-2,-3,-7,-10,-6,0,-2,0
1558453446253280,-3,-3,-5,-9,-2,-5,-1,-3
1558453446260258,-2,-4,-1,4,1,-1,-1,-1
1558453446260258,0,0,-4,-1,-3,-2,-1,2
1558453446268203,-1,-1,8,17,6,0,-1,-3
1558453446268203,-3,-2,-6,-4,-6,-6,-6,-1
1558453446283123,-1,-1,-4,-20,-1,1,4,2
1558453446283123,0,1,7,2,5,5,2,1
1558453446291132,-2,-2,1,4,0,1,-1,-1
1558453446291132,-1,-2,-7,-7,-4,-5,-2,0
1558453446305065,0,0,1,6,4,-1,-3,-2
1558453446305065,-3,-2,-1,-7,-9,-5,1,0
1558453446313041,1,1,-3,8,1,-2,-2,1
1558453446313041,0,0,1,-4,2,2,-2,-2
1558453446320055,0,0,-2,-1,-2,-1,9,4
1558453446320055,-1,0,4,14,2,0,-5,-3
1558453446328003,0,-1,0,8,2,2,2,-1
1558453446328003,-2,-5,-11,-28,-5,0,-3,-3
1558453446342961,1,-1,0,1,-3,0,-3,-2
1558453446342961,-3,-2,1,3,1,0,1,0
1558453446350940,0,-1,1,5,5,2,0,1
1558453446350940,-1,-1,-1,-16,-4,-2,-2,-2
1558453446365337,-1,0,1,4,-3,-3,-3,-3
1558453446365337,-1,-2,-8,1,-1,-3,-2,-3
1558453446373877,-1,-2,-3,-10,-4,-1,-2,0
1558453446373877,1,0,6,21,2,2,1,1
1558453446379862,0,-1,-5,-12,-1,1,-2,-2
1558453446379862,0,0,2,1,-1,-4,-2,0
1558453446387359,-2,0,0,-10,-6,-5,-6,-5
1558453446387359,-2,-3,-8,8,3,-2,4,2
1558453446403250,-2,-2,2,4,-2,0,1,-1
1558453446403250,-3,-2,-2,-10,-4,0,-2,-3
1558453446411233,0,-1,-3,-6,0,1,0,3
1558453446411233,1,3,1,-5,-5,-2,-2,-1
1558453446425193,-1,-1,6,6,0,-2,0,-2
1558453446425193,-2,-3,-5,-7,-3,-1,3,0
1558453446433173,-1,0,-2,-3,5,1,-1,-2
1558453446433173,-2,-1,-1,-1,-1,-1,2,1
1558453446440153,1,-1,-2,-2,-4,-3,-3,-1
1558453446440153,1,-1,2,0,-1,2,1,2
1558453446456346,-2,-2,0,-2,-4,-5,-2,-2
1558453446456346,1,0,3,9,3,1,0,-1
1558453446463090,-4,-4,-4,2,-5,-5,-1,0
1558453446463090,4,2,5,-3,4,2,-3,-1
1558453446471070,-6,-3,-2,6,-6,-5,-1,-2
1558453446471070,-2,-1,-3,-2,0,0,-2,-3
1558453446485404,-1,-3,-1,-1,-3,-4,-2,-2
1558453446485404,-3,-1,2,9,4,1,1,-3
1558453446493381,0,0,0,-1,-1,-3,-3,0
1558453446493381,-1,-3,0,-10,-9,-3,-2,-1
1558453446500363,1,2,-5,-1,2,1,0,0
1558453446500363,-3,-1,-1,9,2,4,-2,-1
1558453446516332,-2,0,-1,-10,-5,-4,-1,-1
1558453446516332,-3,-2,-9,-6,1,0,-1,-4
1558453446522304,1,-1,1,-2,-1,-2,-2,0
1558453446522304,1,0,2,11,0,-2,-3,-1
1558453446531280,1,1,-1,-10,0,1,3,2
1558453446531280,0,2,0,12,4,-1,0,0
1558453446545244,-2,0,6,10,6,5,3,2
1558453446545244,-2,-2,-2,-2,0,-3,0,0
1558453446553222,-2,-2,-1,-4,-3,0,-5,-3
1558453446553222,2,0,-2,-11,1,-2,-4,-2
1558453446560202,1,-1,-2,4,1,1,1,1
1558453446560202,-2,-2,2,4,2,1,0,-3
1558453446576160,1,-2,-11,-17,-7,-2,5,2
1558453446576160,-3,-2,11,10,0,0,-2,-2
1558453446583141,-1,-2,1,22,9,0,-3,-2
1558453446583141,0,1,-5,-21,-5,-1,0,0
1558453446591121,-1,0,1,0,-2,-5,-4,-4
1558453446591121,0,2,0,3,2,2,0,2
1558453446605082,1,0,-2,-12,-6,-1,0,0
1558453446605082,-1,-3,-5,-4,-3,-5,0,0
1558453446616053,1,-1,6,15,12,5,0,0
1558453446616053,-3,-2,-2,-6,-10,-4,-3,-2
1558453446620044,0,-1,-1,-8,1,1,-2,-2
1558453446620044,0,-1,-3,-3,-6,-6,-5,-3
1558453446637004,-1,0,0,-6,0,2,2,-3
1558453446637004,1,0,1,2,4,1,0,2
1558453446642980,-5,-3,-3,-11,-4,-2,-3,-4
1558453446642980,0,-1,3,11,3,3,1,3
1558453446651956,-1,0,-1,-2,-2,3,-1,0
1558453446651956,-2,-2,-3,-3,-4,-1,2,0
1558453446665093,0,1,1,3,4,5,-2,1
1558453446665093,-2,-2,-3,6,-4,-4,-4,-2
1558453446673898,-1,-1,-4,-11,-1,5,-4,-3
1558453446673898,-3,-2,5,12,-1,-4,1,-2
1558453446679887,-1,-2,-10,-10,-7,-6,-2,0
1558453446679887,-2,-2,11,16,2,-5,-2,-2
1558453446696935,-2,-2,-8,-11,-6,-5,0,0
1558453446696935,1,1,-1,0,-1,-2,-2,1
1558453446702363,-2,-2,-4,-13,-10,-4,0,-2
1558453446702363,0,1,3,4,4,5,0,-1
1558453446711341,-2,-3,-7,-5,-5,-6,-2,-3
1558453446711341,0,0,3,7,4,4,0,-3
1558453446725304,-2,-1,-1,-3,-1,-2,-1,-1
1558453446725304,0,1,-6,-13,-4,-1,0,0
1558453446734277,1,1,7,14,6,-1,1,2
1558453446734277,1,0,-3,-1,-7,0,1,-2
1558453446740346,0,-2,-3,1,4,0,-3,1
1558453446740346,0,-1,-4,-3,1,1,0,-1
1558453446756967,-3,-1,3,5,-3,-3,-3,-2
1558453446756967,-3,-1,-3,-2,-2,0,-3,-3
1558453446762267,-2,-1,2,-6,1,-5,-1,-4
1558453446762267,-1,0,-3,-17,-1,2,-1,0
1558453446772040,-1,1,0,1,1,-1,-2,-2
1558453446772040,-1,-2,-2,-4,-3,-2,-7,-2
1558453446785144,-1,-2,3,5,1,2,8,1
1558453446785144,-1,-2,-4,-3,1,0,-1,-2
1558453446794121,-2,0,2,6,1,-2,0,-3
1558453446794121,-1,-2,-6,-6,-1,-3,-1,0
1558453446808111,0,-1,4,4,-1,-2,-5,-1
1558453446808111,0,-1,0,-7,-4,-3,2,0
1558453446817059,0,-1,1,5,0,-1,0,0
1558453446817059,-1,-3,-5,-15,1,2,0,-1
1558453446831019,-2,3,7,13,0,0,-3,1
1558453446831019,0,-3,-7,-4,-3,-1,2,1
1558453446838071,0,-2,0,4,2,-2,-6,1
1558453446838071,0,1,-1,-14,-7,-3,5,1
1558453446845016,0,-2,-4,1,-1,-2,-6,-4
1558453446845016,-1,2,4,6,1,0,0,0
1558453446853960,-4,-2,-1,2,3,-1,-3,-2
1558453446853960,1,0,1,1,1,2,2,1
1558453446867922,-4,-2,-2,3,-2,-2,-1,-2
1558453446867922,-1,-2,-4,-15,-7,-8,-5,0
1558453446876899,2,1,-2,-7,0,1,-2,-1
1558453446876899,-2,-3,2,7,3,-1,-2,-2
1558453446891381,-1,-1,-5,1,-5,-3,-2,-3
1558453446891381,-1,1,4,7,1,1,-1,0
1558453446899653,-1,-3,-5,-5,-5,2,4,-1
1558453446899653,-3,-1,3,8,-2,-4,-6,-3
1558453446905345,0,-2,-13,-21,-4,0,3,0
1558453446905345,-1,-2,3,-6,-3,-2,-3,-2
1558453446914320,1,1,-1,5,-1,-1,2,2
1558453446914320,0,0,3,7,7,4,-2,-2
1558453446927288,0,-2,0,-11,-7,-6,-5,-4
1558453446927288,0,0,3,19,1,0,4,-3
1558453446936261,-3,-1,-6,-17,-6,-6,-3,-4
1558453446936261,-1,-1,-2,-2,1,-2,-2,1
1558453446959200,1,2,0,-6,6,6,2,2
1558453446959200,-3,-2,-2,-3,-2,-4,-5,-3
1558453446960645,1,-1,2,2,3,4,2,0
1558453446960645,1,-2,1,11,-3,-6,0,1
1558453446965377,0,-1,3,13,7,2,0,-1
1558453446965377,-2,-2,-3,-6,-2,-4,-4,-1
1558453446974160,-1,0,-1,3,-7,-4,0,-1
1558453446974160,-1,-2,-8,-11,-3,-1,0,0
1558453446988218,-2,-1,3,6,-1,-2,-2,-1
1558453446988218,0,0,1,-2,-3,1,0,0
1558453446996837,-2,-2,-1,-2,1,-2,-8,-3
1558453446996837,-1,0,0,-1,0,0,4,0
1558453447009803,-5,-3,-5,-8,-7,-6,-2,0
1558453447009803,-1,-3,-7,-6,-2,-3,-4,-2
1558453447019479,0,-2,1,6,-1,-1,1,-1
1558453447019479,-1,-2,-2,1,4,6,0,1
1558453447024765,2,2,3,2,-1,2,2,1
1558453447024765,-1,-3,-1,4,0,-1,-3,-1
1558453447033759,-1,-1,-4,-10,-6,-3,1,1
1558453447033759,-2,-1,0,-3,-2,-5,-3,1
1558453447047702,0,1,1,12,3,3,1,-2
1558453447047702,-1,-1,3,2,0,2,-3,-1
1558453447057679,-2,-1,-10,-17,-1,2,0,-1
1558453447057679,-1,-2,-1,-2,-1,-1,-3,-3
1558453447070640,-1,-2,-5,-9,-6,-5,-2,0
1558453447070640,2,0,2,0,0,0,0,0
1558453447078619,-2,-3,-6,13,3,2,0,-2
1558453447078619,-1,-1,3,3,6,5,1,0
1558453447085068,-1,-2,-2,-10,-6,-6,-3,-2
1558453447085068,-2,0,1,-2,-3,0,0,-3
1558453447094051,0,-2,-1,0,-3,-6,1,0
1558453447094051,0,-1,-3,-1,1,1,0,-1
1558453447108016,-1,-1,2,-1,-8,-7,-4,0
1558453447108016,-1,0,5,20,15,7,4,2
1558453447117008,-2,-4,-7,-16,-11,-7,-3,-2
1558453447117008,-1,-1,-10,-14,-1,2,0,0
1558453447130952,-1,-1,1,0,-6,-2,-1,-1
1558453447130952,-1,-1,-1,6,6,1,-2,-1
1558453447139208,1,-1,3,-7,1,-1,1,3
1558453447139208,2,1,4,-1,-3,-5,2,0
1558453447144914,0,0,-7,0,0,-2,0,-1
1558453447144914,-4,-2,0,-4,-3,-3,-1,-1
1558453447153890,-1,2,7,11,4,1,-5,-4
1558453447153890,-2,0,-3,-7,-10,-7,-6,-3
1558453447167853,-1,-2,-1,5,4,3,-5,-2
1558453447167853,0,-2,-3,-6,-3,2,7,1
1558453447176830,-1,-1,0,-2,0,0,-2,-1
1558453447176830,-1,-3,-4,2,-3,-4,-2,-2
1558453447190342,-1,-1,-2,-4,-1,0,-2,1
1558453447190342,-2,-3,-2,-8,-2,-6,-6,-1
1558453447198873,-1,0,2,10,-1,1,-2,-3
1558453447198873,0,1,3,3,3,3,1,2
1558453447204857,1,-2,0,3,4,2,0,-3
1558453447204857,1,0,-6,-19,-8,-2,-1,-2
1558453447214314,2,0,2,9,5,4,3,4
1558453447214314,-1,-2,1,-7,-1,-1,-3,-1
1558453447228099,-3,0,-3,-3,-3,-3,-1,-1
1558453447228099,-1,-1,-2,4,4,2,-2,-2
1558453447237072,0,0,0,-1,-1,0,-1,0
1558453447237072,-1,1,-1,-3,-7,-5,-2,-4
1558453447250037,-3,-2,-5,-10,-2,1,2,2
1558453447250037,0,-2,0,-2,0,-6,-3,-3
1558453447265999,-1,0,5,6,2,-1,1,-1
1558453447265999,-3,-2,-5,-10,-4,-5,-3,-2
1558453447266992,-1,0,3,2,0,-1,1,-1
1558453447266992,-3,-1,-4,-7,-7,-5,-6,-3
1558453447273973,-1,-1,-1,-6,-1,5,-1,-3
1558453447273973,-1,-2,0,17,3,0,-1,1
1558453447287937,-1,0,2,4,4,0,0,-2
1558453447287937,1,2,-2,4,-1,2,1,0
1558453447297027,-2,-3,-4,-4,0,-3,-3,-2
1558453447297027,-3,-2,-1,-10,-4,-2,-2,-3
1558453447309877,-1,-1,-2,-3,1,1,1,-2
1558453447309877,-1,-2,2,7,-1,0,0,-2
1558453447319523,0,-1,-1,0,1,-3,0,1
1558453447319523,0,-1,-4,-14,-2,0,-1,-2
1558453447324841,-1,1,1,1,0,-1,0,0
1558453447324841,0,-2,0,3,-2,-2,-1,-1
1558453447333814,-3,-1,-4,0,-5,-7,-4,-3
1558453447333814,-1,-2,-1,-3,-1,-2,-3,0
1558453447347808,-1,-1,-4,-5,-2,1,-3,-3
1558453447347808,0,0,-1,-1,-3,-4,-1,0
1558453447356753,0,-2,0,4,-1,-1,-1,-2
1558453447356753,0,-1,-4,-5,-3,-2,0,-2
1558453447369749,-2,-2,6,13,0,-1,-1,-1
1558453447369749,-2,-1,-7,-18,-6,-2,-1,-1
1558453447378727,-1,0,3,13,1,2,2,-3
1558453447378727,0,1,-3,0,1,-1,-1,-2
1558453447385774,0,-3,3,5,4,5,4,1
1558453447385774,0,-2,-5,-12,-3,-1,-5,-1
1558453447393656,1,-1,0,4,2,3,4,2
1558453447393656,-1,-1,3,8,-1,-2,-4,-2
1558453447407616,0,-2,-3,-6,-4,3,2,0
1558453447407616,-1,0,1,8,0,-4,0,-1
1558453447416592,-1,-1,-7,-23,-5,-5,-4,0
1558453447416592,0,1,5,15,11,5,2,0
1558453447430587,0,-1,-4,-13,-6,-5,-2,-1
1558453447430587,-1,-2,-2,7,0,-2,-5,-2
1558453447439530,1,-1,1,1,1,0,-1,-1
1558453447439530,-1,-2,-1,-10,-1,2,2,3
1558453447454489,-1,-2,-2,-4,-4,-6,-3,0
1558453447454489,-1,-1,0,5,-1,1,1,0
1558453447455493,-3,-3,-6,-21,-2,0,-3,-4
1558453447455493,-1,-3,-3,4,-5,-2,1,1
1558453447467455,-2,0,-2,-4,0,0,-1,-1
1558453447467455,-2,-1,1,10,3,2,-3,-3
1558453447476927,-2,-1,-4,-5,-4,-5,-2,0
1558453447476927,-1,-1,3,7,-1,-6,-2,1
1558453447490398,0,2,-5,-5,5,2,-2,1
1558453447490398,-3,-2,-4,-14,-3,-1,-4,-2
1558453447499370,-3,-2,3,21,4,0,3,0
1558453447499370,0,0,1,-7,-1,3,-1,-1
1558453447514399,-2,-1,-1,-2,-7,-5,-1,-2
1558453447514399,0,0,1,7,5,-1,2,1
1558453447515366,0,0,-3,-13,-1,1,-1,-1
1558453447515366,-2,-2,-3,4,-3,-4,-4,-5
1558453447527334,-3,-5,-3,-3,-8,-6,-5,-6
1558453447527334,2,-1,-1,1,3,6,4,-1
1558453447536309,0,-1,2,-6,-6,-4,0,2
1558453447536309,-1,0,5,12,5,3,-2,-1
1558453447550272,0,-2,-9,-12,-5,-8,-4,1
1558453447550272,0,0,0,2,-1,-2,2,0
1558453447559248,-3,0,-1,-3,2,2,-3,-2
1558453447559248,-1,-1,-2,1,-2,0,-2,-2
1558453447574209,-2,-1,-1,6,3,2,1,-3
1558453447574209,-1,1,2,5,-6,-6,-5,-2
1558453447575205,0,-1,-3,-5,-4,0,2,2
1558453447575205,0,-1,-3,1,0,-1,1,2
1558453447588170,-2,0,3,8,0,1,-2,-1
1558453447588170,-4,-1,-6,-17,-8,-8,-3,-4
1558453447596149,-1,-1,1,13,8,7,-2,-2
1558453447596149,-1,-3,-5,-6,-4,-4,-4,-1
1558453447610370,-1,-1,-3,-8,-3,0,4,1
1558453447610370,-4,-4,-5,-1,-1,1,-4,-4
1558453447619565,1,-1,-1,-5,-2,-5,-2,2
1558453447619565,-1,0,0,-5,-3,-1,1,1
1558453447634307,1,0,0,7,0,3,1,-2
1558453447634307,-1,-2,-2,-11,2,6,1,-1
1558453447635304,-3,-2,-4,-9,-5,-1,0,-2
1558453447635304,1,1,-1,-2,2,0,-1,-2
1558453447647553,0,0,2,11,-1,-4,-5,-2
1558453447647553,0,0,2,5,1,1,1,0
1558453447656253,-1,-2,-9,-15,-8,-5,-2,-1
1558453447656253,0,1,-1,0,2,2,-1,1
1558453447670210,-3,-2,-2,-7,0,-2,2,-1
1558453447670210,-2,-1,-1,-1,-6,-7,-5,-2
1558453447679186,0,-1,2,7,5,4,-1,-1
1558453447679186,-1,-1,2,2,0,0,-1,-3
1558453447695147,-1,-2,-9,-15,-2,0,3,2
1558453447695147,-2,-2,-3,-9,-5,0,1,1
1558453447696145,-2,-1,1,6,-2,-4,-4,-2
1558453447696145,-2,-1,-2,-3,-5,-8,-3,-4
1558453447707561,0,0,4,1,2,3,-3,-1
1558453447707561,0,0,2,2,4,1,4,2
1558453447716516,-1,-1,-4,2,-1,0,-2,-1
1558453447716516,1,0,3,8,1,0,0,-1
1558453447730480,1,-1,-1,-4,-1,-3,-4,-3
1558453447730480,0,0,0,0,-2,-6,1,2
1558453447739457,-1,0,2,4,1,0,1,-4
1558453447739457,-1,-3,-5,-11,-3,-3,1,1
1558453447754417,-1,1,1,1,-3,-1,0,0
1558453447754417,0,-2,2,11,4,2,0,0
1558453447755457,-1,0,-3,-8,0,-1,-2,-1
1558453447755457,-2,-2,-2,5,-3,-2,4,0
1558453447768379,0,-2,-7,-38,-8,-2,-1,-1
1558453447768379,0,1,6,24,7,2,-2,-2
1558453447776435,-2,-3,-8,-3,-6,-3,0,0
1558453447776435,-2,-4,2,2,5,3,1,0
1558453447790424,-1,0,3,11,4,1,-1,-1
1558453447790424,-1,-1,-6,-12,-7,-4,-4,-1
1558453447799297,1,1,5,7,7,3,3,4
1558453447799297,-1,-1,-2,-6,-4,0,-1,1
1558453447814261,0,-1,3,9,-1,-1,-4,-3
1558453447814261,-1,-2,-8,6,-4,-3,-3,-1
1558453447815469,-1,-2,5,3,2,2,3,-1
1558453447815469,-3,-2,-7,-9,-8,-7,0,-1
1558453447828229,-2,-2,5,9,3,-1,-3,0
1558453447828229,-2,0,-5,-2,-1,-5,-3,-4
1558453447837194,1,-1,2,-8,-8,-6,-3,-2
1558453447837194,0,1,0,-1,-3,-2,0,-3
1558453447850389,-1,-1,-2,9,3,2,1,2
1558453447850389,1,-1,0,-13,-2,3,2,2
1558453447859136,-4,-1,5,11,1,-1,-4,-3
1558453447859136,-2,-2,-8,-11,-1,0,0,-2
1558453447874096,-2,-1,0,7,1,-5,-3,-4
1558453447874096,-1,-1,0,-14,-5,0,1,1
1558453447875093,0,-1,-2,10,2,1,0,1
1558453447875093,-2,-1,-3,-19,-3,1,-4,-2
1558453447888097,0,2,3,5,-1,-1,1,0
1558453447888097,-1,-2,-4,-4,0,-1,-4,-4
1558453447897036,0,-1,-1,-2,-8,-5,4,0
1558453447897036,1,1,6,16,6,3,0,0
1558453447910085,-2,-4,-9,-14,-2,1,-2,-3
1558453447910085,0,0,6,7,-2,-3,-1,1
1558453447919061,-1,-1,-7,-6,0,1,0,0
1558453447919061,0,0,-1,-1,-1,-1,-2,-1
1558453447934022,0,0,3,-1,-2,1,5,1
1558453447934022,-1,-2,-2,9,5,3,0,1
1558453447936016,0,0,0,3,-3,-3,-4,-2
1558453447936016,-1,0,0,-7,-3,-1,-1,0
1558453447948058,-2,-2,-4,1,-4,-5,-4,-2
1558453447948058,-2,-1,-6,-9,2,1,3,3
1558453447956967,-4,-2,2,0,-1,0,-3,-5
1558453447956967,-2,-3,0,4,-4,-5,-4,-2
1558453447969985,0,0,-2,1,0,2,3,2
1558453447969985,-1,-1,2,2,-1,4,0,-1
1558453447979899,0,-2,-4,-7,-2,-1,-1,-1
1558453447979899,0,-1,-1,4,-2,-3,-3,-2
1558453447993960,-3,-2,1,-5,-1,-2,-1,-3
1558453447993960,0,0,-3,-6,0,5,2,0
1558453447995861,-2,-1,1,6,0,-6,-3,1
1558453447995861,-2,-1,1,14,6,-1,-3,-4
1558453448007825,-1,0,-3,-13,-7,-1,-1,1
1558453448007825,-3,-3,-8,-15,-7,-3,-2,-5
1558453448016865,-1,-2,-2,-6,-1,1,-3,-3
1558453448016865,0,2,3,13,6,4,-2,1
1558453448030826,-2,-2,-2,4,0,-2,2,0
1558453448030826,-1,1,3,5,-1,-3,0,-1
1558453448038807,1,0,-4,-4,-2,1,0,0
1558453448038807,0,1,-2,-11,-4,-1,-2,-3
1558453448053767,-1,0,3,7,3,-2,-2,-1
1558453448053767,1,0,4,6,3,-1,-3,-1
1558453448055760,1,0,-1,-2,-3,-2,3,3
1558453448055760,-2,-4,-6,-8,-4,0,0,-1
1558453448067729,0,2,-1,-1,-1,0,-3,0
1558453448067729,-1,-3,-3,-8,-3,1,0,0
1558453448076706,-2,-1,1,4,-2,-1,1,-2
1558453448076706,-1,-2,-5,-11,-4,-3,-2,-3
1558453448090798,0,-3,-1,1,0,0,1,0
1558453448090798,-1,-1,1,1,0,0,-2,-1
1558453448099642,-1,-2,-1,-2,-1,0,-2,-2
1558453448099642,0,-1,-2,-10,-2,2,3,2
1558453448113894,1,0,2,8,3,1,-2,1
1558453448113894,-3,-2,-3,-14,-3,-2,-3,-3
1558453448115658,-2,-3,5,12,0,-6,0,1
1558453448115658,-3,-2,-5,-2,-1,-5,2,0
1558453448127629,-1,-2,4,0,-2,-1,-3,-4
1558453448127629,0,-1,-2,4,5,1,3,2
1558453448136603,-2,-3,-9,-22,-7,-2,-5,-2
1558453448136603,0,1,0,2,-3,-2,-5,-3
1558453448150586,0,0,-3,7,7,6,8,3
1558453448150586,-3,0,-2,-5,-9,-8,-4,-4
1558453448159539,-1,0,-3,-8,-3,-2,-2,-2
1558453448159539,1,-3,1,10,3,1,4,3
1558453448174660,-2,-2,2,9,2,0,-3,-2
1558453448174660,0,-3,-8,-29,-10,0,0,-1
1558453448175501,-2,-3,-5,1,1,-3,-3,-2
1558453448175501,0,1,-1,-13,-2,2,2,-1
1558453448188639,0,2,3,4,-4,-5,-2,1
1558453448188639,0,0,4,13,6,2,-4,-1
1558453448196442,1,-1,-2,3,4,5,7,5
1558453448196442,-3,-2,-2,-2,-5,-1,-4,-3
1558453448210404,-1,-2,-3,-2,3,2,1,-3
1558453448210404,-1,0,2,9,-5,-6,-4,-3
1558453448219379,-1,1,-3,-5,2,4,-1,-3
1558453448219379,0,0,-2,-7,-3,-2,3,2
1558453448234341,1,0,0,15,2,0,0,1
1558453448234341,0,-3,-4,-12,-5,-4,1,0
1558453448235531,0,-1,0,2,1,3,-1,-2
1558453448235531,-1,-1,-1,-5,-4,-4,0,0
1558453448248003,-3,-3,-6,4,-4,-5,-6,-3
1558453448248003,-2,-1,3,-5,-4,-2,-1,-1
1558453448256280,-1,0,-2,-4,2,6,1,0
1558453448256280,0,0,6,12,2,0,-5,-3
1558453448270281,-2,-1,-1,-3,2,2,4,1
1558453448270281,1,0,2,14,7,1,1,-1
1558453448279221,-1,-1,-2,-12,-9,-7,-5,-2
1558453448279221,2,1,-1,22,6,3,0,1
1558453448294180,0,0,-3,-18,-6,-2,-4,1
1558453448294180,0,-3,2,9,1,1,5,1
1558453448295520,0,3,2,-6,0,-3,0,3
1558453448295520,-2,0,-1,-1,4,3,1,0
1558453448308331,-2,-1,-4,-18,-9,-3,-4,-3
1558453448308331,-3,0,-4,-1,-2,-4,-5,-2
1558453448316473,-1,-2,2,12,1,-2,-1,-2
1558453448316473,-3,-1,-4,-16,-9,-6,-3,-2
1558453448330710,1,0,-3,7,5,1,2,3
1558453448330710,-1,-3,-5,-12,-4,-1,-1,-2
1558453448339412,-2,-3,1,5,0,-2,-7,-6
1558453448339412,-1,-4,-3,-2,-6,-3,-2,-3
1558453448353571,-1,-1,-2,-5,-2,-1,-1,-3
1558453448353571,0,2,0,0,-4,-1,-2,-1
1558453448360569,-1,-2,1,4,1,1,1,-1
1558453448360569,-2,-4,-3,1,-1,-1,-1,0
1558453448367341,0,-2,0,2,-2,-4,-1,-1
1558453448367341,0,-1,3,19,11,10,1,-1
1558453448376500,-1,-1,-2,-27,-10,-4,-1,-2
1558453448376500,-2,1,0,-5,2,0,-1,-2
1558453448390284,0,0,-4,-7,-4,-1,0,0
1558453448390284,0,0,4,9,5,0,0,0
1558453448399248,0,-4,-7,1,-7,-5,-3,-1
1558453448399248,0,-1,-1,-3,6,7,4,1
1558453448414224,-2,-2,5,1,-5,-6,-3,-3
1558453448414224,-2,0,1,5,-3,-5,-3,-3
1558453448420231,-2,0,-1,-3,2,-3,0,0
1558453448420231,0,-2,-6,-5,0,1,-2,-1
1558453448436154,-2,-2,-2,-11,-7,-2,0,-1
1558453448436154,-1,-1,-5,-9,-4,-2,-2,-1
1558453448438327,-1,-1,3,11,5,-2,-5,-5
1558453448438327,1,0,-1,2,-4,-4,2,2
1558453448450162,1,-1,-2,0,6,3,4,2
1558453448450162,-3,-3,-3,-6,-5,-1,-1,-2
1558453448459091,-1,-2,-1,-1,-1,2,1,-1
1558453448459091,-2,0,-1,-3,-4,-5,-6,-3
1558453448473055,1,0,1,11,4,7,-1,-1
1558453448473055,-1,0,1,-7,-7,-3,-2,-2
1558453448480035,-2,-2,-3,21,5,1,7,2
1558453448480035,-1,-1,-3,-3,-1,-1,2,0
1558453448496987,-1,0,-1,-6,-4,-3,-6,-3
1558453448496987,0,-2,-4,0,2,-2,2,0
1558453448497989,1,-1,2,4,1,-3,-3,-4
1558453448497989,-2,-1,2,6,1,1,1,-3
1558453448510159,0,0,-2,-11,-2,-4,-4,-1
1558453448510159,0,-1,-5,-1,0,-3,-1,-1
1558453448518930,-1,0,2,-8,-4,-3,-2,-3
1558453448518930,2,0,0,3,2,4,0,1
1558453448533889,-3,-2,3,10,0,-2,0,0
1558453448533889,-1,-1,-9,-22,-1,3,2,3
1558453448540091,0,1,5,5,0,-1,-5,-2
1558453448540091,-1,-4,-9,-16,-6,-3,1,1
1558453448556842,-2,-2,-2,8,4,0,1,-3
1558453448556842,3,2,8,10,5,6,2,0
1558453448557825,-2,-2,-8,-6,-4,-3,1,2
1558453448557825,-3,-1,3,-1,-1,-3,-4,-3
1558453448570003,1,-1,-3,-4,-5,-2,-5,-3
1558453448570003,-1,-2,-7,-17,-6,-5,-3,0
1558453448579059,1,0,7,7,-1,-2,-1,-1
1558453448579059,0,1,-1,-3,4,3,0,0
1558453448593728,1,-2,-5,-16,-9,-6,1,1
1558453448593728,-1,-1,-1,9,-4,-7,-3,-2
1558453448600711,-1,0,0,0,2,4,2,2
1558453448600711,1,-2,2,7,0,-1,3,3
1558453448616996,-2,-1,-5,-10,-2,-2,-1,-3
1558453448616996,-2,-3,-1,-3,-2,-1,-2,-3
1558453448617999,0,0,-2,0,4,8,1,-1
1558453448617999,-3,-1,0,-4,-1,-3,-5,-1
1558453448629970,-1,-2,1,6,1,1,0,2
1558453448629970,-3,-2,-3,-8,-7,-2,0,-3
1558453448638940,-1,-1,-4,-5,-6,-1,0,1
1558453448638940,-1,-1,-1,9,0,-2,-3,-3
1558453448653899,1,-1,2,5,6,5,2,1
1558453448653899,-2,0,-2,-10,0,-1,-6,-4
1558453448659883,-1,-2,-1,-3,0,-1,2,1
1558453448659883,0,0,0,0,-2,-1,-1,-2
1558453448676839,-2,-1,-5,-5,-2,0,-4,-1
1558453448676839,1,1,9,27,8,2,2,0
1558453448677836,-4,-4,-6,-8,-3,-7,-4,-2
1558453448677836,-2,-1,2,-4,-6,-5,-6,-4
1558453448690001,-1,-1,1,1,2,3,7,2
1558453448690001,-2,-1,-5,-6,-4,-1,-1,-2
1558453448698780,1,-1,-2,6,2,0,-1,-2
1558453448698780,1,0,2,3,2,1,0,0
1558453448713823,-2,-1,-3,-12,-8,-6,-7,-5
1558453448713823,3,0,-3,-1,2,2,1,2
1558453448719809,-1,0,2,-6,-4,-6,-2,-2
1558453448719809,-1,-1,-5,-4,0,0,1,0
1558453448736764,0,0,0,1,0,3,2,2
1558453448736764,-1,-3,-2,10,-2,-2,-2,-1
1558453448737759,-3,-1,3,-8,-1,1,-2,-3
1558453448737759,0,-3,-2,0,-5,1,1,1
1558453448750725,-2,-1,-3,-3,1,-2,-3,-3
1558453448750725,-3,-2,0,11,0,0,0,-3
1558453448758705,1,0,-2,6,1,2,0,1
1558453448758705,-3,-3,1,1,-4,-5,-5,-2
1558453448773663,-2,-3,-10,-29,-8,-6,-1,-4
1558453448773663,1,1,3,2,1,1,0,3
1558453448780643,0,-2,-8,-12,-2,-3,-1,1
1558453448780643,-1,-1,2,8,2,-1,-2,-3
1558453448796601,-2,-1,1,-3,-1,-1,-4,-3
1558453448796601,-2,0,2,8,2,-2,-4,-1
1558453448798596,0,-3,-3,-8,-4,-3,-2,-3
1558453448798596,0,0,0,-4,-1,0,1,-2
1558453448818663,1,1,1,10,2,-1,-1,1
1558453448818663,-3,-3,-3,-5,-2,-2,-1,-4
1558453448820659,0,0,1,1,0,-1,-2,-1
1558453448820659,-2,-2,-5,-4,-2,-5,-6,-2
1558453448833635,-1,1,8,23,3,1,3,-1
1558453448833635,-4,-3,-12,-21,-5,1,2,3
1558453448840604,-2,1,3,4,1,2,-2,-3
1558453448840604,-1,1,-2,-5,4,3,2,-1
1558453448856562,1,0,3,10,1,-3,-4,-1
1558453448856562,-2,-2,4,4,4,0,-2,-1
1558453448864543,-1,-1,0,-9,-4,2,3,-2
1558453448864543,0,-2,-3,5,1,2,0,-1
1558453448870533,0,-1,-8,-10,-1,3,0,1
1558453448870533,0,-1,3,-1,2,0,0,-2
1558453448879501,-2,-1,-4,2,-7,-6,-3,0
1558453448879501,0,0,4,0,-1,2,0,1
1558453448901445,0,-2,-4,-10,-3,-2,-4,-2
1558453448901445,0,0,2,12,3,2,8,3
1558453448903437,-1,-2,-7,-6,-1,-2,-6,-3
1558453448903437,-3,-1,-3,-3,-3,-4,-1,-3
1558453448916547,-1,-3,-2,-1,-2,-4,4,2
1558453448916547,2,0,2,-5,-5,-3,-3,-2
1558453448918542,-1,0,-5,-17,1,4,0,-1
1558453448918542,-1,-2,-5,-8,-1,0,-1,-1
1558453448930511,-2,-2,1,13,7,3,-1,-2
1558453448930511,0,1,2,4,-1,-1,-3,-1
1558453448939487,0,-1,-4,-11,-7,-3,1,0
1558453448939487,1,-3,1,6,0,-4,-4,-4
1558453448953450,-2,-1,-4,2,-3,-2,-3,-3
1558453448953450,0,-1,-3,-4,-4,-5,0,0
1558453448960536,0,-1,1,14,3,3,-1,-3
1558453448960536,-1,-1,0,5,1,2,1,2
1558453448976494,-2,-2,1,-2,-1,-3,1,0
1558453448976494,1,0,0,-5,-3,2,0,13
1558453448978384,-6,-2,-1,1,2,0,-2,-22
1558453448978384,-5,-1,0,0,-6,-7,-4,-5
1558453448990392,-2,-1,-1,-6,-4,-2,-3,-4
1558453448990392,-2,-2,-4,-5,2,3,2,1
1558453448999326,2,-2,1,4,3,0,6,12
1558453448999326,0,-3,-4,-10,0,0,-2,-2
1558453449013493,-2,-1,0,-18,-12,-6,-6,-6
1558453449013493,-2,-3,0,8,0,-2,1,-1
1558453449020307,-1,-1,-5,-3,-1,-2,1,3
1558453449020307,-2,-2,-1,-8,2,2,-1,-2
1558453449036413,0,0,-4,11,-1,-3,-2,2
1558453449036413,0,-1,-2,-8,-4,-4,-5,-6
1558453449038319,0,0,1,-2,-4,-5,1,3
1558453449038319,0,-1,1,6,-1,2,0,1
1558453449050333,1,0,4,1,6,4,-1,0
1558453449050333,-4,-2,-3,1,-4,-3,-2,-5
1558453449059166,-1,2,8,25,5,1,-1,2
1558453449059166,-1,0,-2,-20,-5,-4,-2,1
1558453449073138,-2,-1,-7,-9,-4,1,3,0
1558453449073138,-2,0,2,0,-4,-3,-6,-8
1558453449080164,-2,0,7,15,4,3,0,2
1558453449080164,0,-2,-8,-3,-1,-3,2,0
1558453449097067,-1,-1,-2,-10,1,0,-2,-5
1558453449097067,-2,-3,0,2,-3,-1,-3,-2
1558453449098064,2,1,2,12,7,4,-1,4
1558453449098064,0,-1,-4,-4,0,-2,0,1
1558453449110031,0,0,2,2,-1,-1,0,1
1558453449110031,0,0,1,4,2,-7,-3,-4
1558453449119007,-1,-2,-7,-24,-10,-3,-2,-2
1558453449119007,-1,-1,3,12,-1,-1,-1,0
1558453449134021,0,-3,-6,-9,-2,-2,0,0
1558453449134021,-1,0,3,7,5,3,-1,0
1558453449139953,-1,-3,-1,-5,-7,-3,-1,-3
1558453449139953,0,-1,-2,-3,1,-2,1,1
1558453449156907,-3,-1,-1,-1,-3,-2,-2,-5
1558453449156907,0,0,1,7,0,3,2,1
1558453449158218,-3,-2,-5,-7,-3,-1,-3,-4
1558453449158218,-1,-3,-5,0,0,-3,-2,-2
1558453449169871,0,0,7,13,5,-2,-1,1
1558453449169871,-3,-1,-4,-9,-1,2,-2,-4
1558453449179088,-1,-1,-4,-6,-2,-3,-5,-1
1558453449179088,0,1,4,6,-1,-1,6,3
1558453449193806,-3,-4,-3,-3,-9,-9,-6,-5
1558453449193806,-1,-3,-8,-8,0,0,-1,0
1558453449199797,3,-1,3,0,-2,-4,-3,0
1558453449199797,0,0,-4,4,1,1,-1,-2
1558453449217057,0,-2,-3,-3,-4,2,2,3
1558453449217057,0,-1,3,-1,3,0,-1,-1
1558453449217868,-3,-1,-1,0,0,-4,-3,-3
1558453449217868,1,-1,-4,-8,-3,1,3,3
1558453449238809,-1,-1,7,14,7,5,0,-1
1558453449238809,0,-1,-4,-13,-5,-2,-1,-3
1558453449240761,0,2,1,10,11,8,2,2
1558453449240761,-3,-1,-4,-5,-4,-2,-6,-4
1558453449253728,-1,-1,2,12,-4,-2,0,-1
1558453449253728,0,-2,-7,-15,-1,-1,1,1
1558453449260708,-1,-3,-1,14,0,-6,-2,-3
1558453449260708,0,-2,2,-6,-15,-8,-2,-3
1558453449275667,0,-2,-8,-19,-3,1,-1,0
1558453449275667,-2,1,5,13,0,-2,-4,-3
1558453449282911,-1,-2,-4,1,-1,-2,0,3
1558453449282911,0,0,1,0,2,1,-3,-4
1558453449290626,-1,0,0,1,-3,-4,0,0
1558453449290626,-2,-4,-2,-3,0,3,5,2
1558453449299650,-1,0,1,-5,0,-1,-5,-3
1558453449299650,-1,-2,-3,-11,-1,2,0,0
1558453449313564,-2,-2,-1,7,3,1,-2,-2
1558453449313564,0,-1,-6,-4,-6,-6,-4,-1
1558453449320453,1,-1,-3,-8,-1,4,2,2
1558453449320453,-4,0,4,4,4,0,-1,-2
1558453449336415,-1,-2,-8,-4,0,1,1,0
1558453449336415,-2,-1,5,5,0,-2,1,-1
1558453449342395,-2,-1,-7,-11,-5,-1,-3,-3
1558453449342395,-1,0,5,-4,-2,-2,2,1
1558453449359350,2,-2,2,1,-1,-3,-7,-2
1558453449359350,1,-3,-3,-1,-1,3,7,2
1558453449360347,0,-2,-1,-1,-8,-8,-4,-2
1558453449360347,-2,-2,1,6,9,8,0,0
1558453449372320,1,2,2,4,1,0,1,3
1558453449372320,0,0,-2,-1,-1,-2,-6,-3
1558453449381290,-2,-2,-1,-8,-2,-3,-1,-2
1558453449381290,-1,-2,-5,-3,-6,0,1,0
1558453449396250,-2,0,2,10,8,1,2,-2
1558453449396250,0,-3,-9,-17,-8,-6,-2,0
1558453449402602,0,0,1,3,3,3,-1,-1
1558453449402602,1,3,3,11,1,2,0,1
1558453449418608,-1,-3,-10,-15,0,-1,-1,-2
1558453449418608,-1,0,-2,0,-7,-3,1,3
1558453449420605,-2,-3,1,2,3,10,1,0
1558453449420605,0,0,3,12,2,3,-3,-3
1558453449432999,-3,-2,-10,-13,-1,-1,-4,-2
1558453449432999,-4,-2,1,11,1,-2,-4,-5
1558453449441550,0,-2,-1,-4,-5,-4,1,1
1558453449441550,1,-2,2,8,1,-5,-2,2
1558453449456506,1,0,-7,-29,-5,4,2,4
1558453449456506,-4,-1,-2,-7,-1,-1,-4,-5
1558453449463495,-2,-3,-3,-4,-6,-6,-2,-1
1558453449463495,-1,-1,-5,0,1,1,-4,-5
1558453449479521,-1,0,1,5,-4,-1,6,4
1558453449479521,3,0,2,3,3,3,0,2
1558453449480444,0,1,4,2,-1,0,-1,-2
1558453449480444,-1,-1,-7,-8,-3,-7,-2,0
1558453449492411,-2,-2,3,-2,-3,-2,-4,-4
1558453449492411,1,2,0,5,1,0,-4,-3
1558453449501385,0,-2,-2,-2,-1,0,0,0
1558453449501385,-2,0,-2,-2,-2,-5,-7,-5
1558453449515615,1,-1,6,20,-1,-3,-2,1
1558453449515615,-4,-3,-13,-36,-4,0,-1,-4
1558453449522603,-2,-1,-2,-4,0,0,1,0
1558453449522603,0,-1,1,-1,-6,-7,0,0
1558453449539568,-2,1,0,5,1,1,-3,3
1558453449539568,-4,-3,0,10,6,4,-3,-11
1558453449540555,1,-1,-3,-8,-2,-2,-5,-3
1558453449540555,-3,-5,-2,-6,-3,-1,4,-1
1558453449552523,-2,-1,-2,-2,2,1,2,-1
1558453449552523,1,1,3,0,-7,-8,-4,3
1558453449561500,-2,0,-5,1,4,2,1,-1
1558453449561500,-1,0,2,4,-2,-4,-2,-1
1558453449575467,1,-2,3,-5,-4,-2,-1,-4
1558453449575467,0,-1,-1,2,2,3,2,3
1558453449582446,0,-1,4,4,0,-1,2,0
1558453449582446,0,0,-3,-12,-1,3,-1,1
1558453449599396,-1,0,4,13,1,-1,-3,-4
1558453449599396,-2,-3,-1,0,-5,-5,-5,-1
1558453449600394,1,-1,1,12,3,-1,0,2
1558453449600394,0,0,-4,-25,-3,7,3,3
1558453449612366,-2,-2,2,18,0,-6,-3,-4
1558453449612366,1,-1,-4,-12,3,4,5,3
1558453449621519,-2,-1,-2,0,-3,-2,-1,-3
1558453449621519,-1,-1,-1,2,-5,-6,-2,-3
1558453449636472,-1,-1,3,-6,-2,-4,-3,-1
1558453449636472,0,0,-3,11,1,-2,3,2
1558453449642555,-3,-3,-2,0,-2,-5,-4,-6
1558453449642555,-2,-2,-4,-4,-4,-2,-1,-1
1558453449659520,-1,0,2,10,7,9,2,-1
1558453449659520,-1,-1,2,2,0,-3,-3,-3
1558453449660411,-3,0,0,0,-6,-4,0,1
1558453449660411,0,-1,2,20,9,7,2,0
1558453449672379,0,-2,-5,-21,-5,0,0,-1
1558453449672379,-2,-1,1,1,-4,-6,-2,-1
1558453449681351,0,-2,-4,3,-1,-4,-3,-1
1558453449681351,-3,-4,2,2,-2,-4,-3,-1
1558453449696472,0,-1,-5,-11,-5,-3,-4,-1
1558453449696472,0,0,5,15,4,1,4,1
1558453449702301,-1,-2,-4,-1,-1,-3,-1,-1
1558453449702301,0,-2,2,3,1,0,-1,-2
1558453449719409,0,-2,-8,-8,-2,2,-1,0
1558453449719409,-1,-2,1,8,0,-1,-2,-2
1558453449720781,1,2,4,11,0,0,2,2
1558453449720781,-1,-1,-7,-12,0,4,1,1
1558453449733369,0,-1,0,0,1,2,2,1
1558453449733369,0,0,-2,-6,-5,-2,-1,0
1558453449742795,0,0,0,-3,-2,-1,1,1
1558453449742795,-2,-3,-3,5,3,-2,-3,-2
1558453449756307,1,1,1,4,4,1,0,-1
1558453449756307,-1,0,3,-2,1,1,1,0
1558453449762392,-3,-3,-1,4,0,1,0,-3
1558453449762392,-1,0,-6,-10,-3,-5,-2,1
1558453449779257,-3,-1,1,2,-1,-4,0,-3
1558453449779257,0,-2,-2,-4,-4,-1,1,2
1558453449780244,0,0,-1,-5,5,2,-1,0
1558453449780244,0,3,4,4,-3,-3,-3,0
1558453449793209,-1,-5,-10,-12,-7,-4,0,0
1558453449793209,0,-1,1,7,-1,0,-1,-2
1558453449801621,-2,-1,-4,-13,-6,-2,-2,-3
1558453449801621,-3,-3,-1,-5,-2,-2,-2,-4
1558453449815858,-2,-2,-3,0,0,-2,-3,-3
1558453449815858,-3,-1,0,-6,0,4,1,1
1558453449822966,-1,0,-1,0,1,1,-1,-1
1558453449822966,0,-1,-4,7,-3,-3,-2,-1
1558453449838990,-1,-1,5,3,-1,-1,-3,8
1558453449838990,-4,-3,-4,-7,-2,-1,-3,-24
1558453449840797,-1,-3,-5,-12,-4,0,0,-2
1558453449840797,-1,-2,-1,6,-3,-3,-3,-2
1558453449852765,0,0,1,1,4,2,2,0
1558453449852765,-1,-1,1,12,1,1,-2,3
1558453449861750,-2,-3,-6,-18,-3,-2,-1,-2
1558453449861750,-1,-1,-2,-15,-2,3,2,1
1558453449875751,-3,-1,-1,4,-1,-4,-3,-4
1558453449875751,0,-1,-2,-3,2,-2,-3,4
1558453449882687,1,-1,-6,-11,-5,-1,-2,0
1558453449882687,1,1,1,7,10,6,3,5
1558453449898961,-3,-2,3,-3,-6,2,4,2
1558453449898961,1,2,-1,-1,-1,-3,-3,1
1558453449900641,-2,-2,3,3,-2,-1,-1,-4
1558453449900641,0,-1,0,-2,-1,-2,-3,-6
1558453449912606,0,1,0,2,-6,-6,1,0
1558453449912606,2,2,-4,-3,1,2,2,5
1558453449921940,-1,0,3,3,5,5,5,4
1558453449921940,-4,-2,-2,3,-3,-3,-6,-3
1558453449935904,-3,-1,2,2,0,-3,-2,-3
1558453449935904,-3,-4,-6,-10,-6,-7,-6,0
1558453449942884,4,2,10,19,4,1,-2,-1
1558453449942884,-2,-3,-16,-46,-11,-4,2,0
1558453449958842,1,-1,1,5,5,7,0,0
1558453449958842,1,0,-3,-7,-6,-4,-5,-2
1558453449960836,-4,-3,-1,-1,-3,-5,-1,-2
1558453449960836,0,-2,2,13,5,1,-1,-1
1558453449972804,-1,-2,-6,-17,-10,-4,-4,-5
1558453449972804,0,-2,-1,-9,-2,2,4,1
1558453449981781,0,-2,1,10,1,-3,-4,-1
1558453449981781,0,3,0,4,6,7,3,1
1558453449995856,-2,-3,-2,1,-4,-7,-4,-4
1558453449995856,-2,-3,-2,-4,0,0,-1,1
1558453450002725,-1,0,-2,-4,-1,-1,0,1
1558453450002725,-1,-2,3,16,-3,-1,-1,-3
1558453450019116,-2,-2,-4,-8,3,2,-2,-2
1558453450019116,1,-1,-7,-10,-3,-1,-1,-2
1558453450021109,0,-2,-3,-10,-5,-3,0,0
1558453450021109,-2,-2,-1,0,-8,-10,-4,-2
1558453450042054,-1,0,3,5,8,6,1,1
1558453450042054,-2,-1,5,10,3,2,2,1
1558453450043091,-1,-1,-2,-1,-2,1,-4,-2
1558453450043091,0,0,0,2,1,1,1,0
1558453450056017,1,1,-4,-1,-3,-3,2,2
1558453450056017,1,0,4,2,-1,1,-4,1
1558453450062996,-1,-2,-1,5,2,1,1,-3
1558453450062996,-3,-3,-4,-16,-3,-3,-1,-4
1558453450078958,1,-1,3,3,-1,-1,-1,-2
1558453450078958,0,0,2,16,0,-2,2,3
1558453450080950,-3,-2,-7,-13,-2,-1,-1,1
1558453450080950,-2,0,-1,-3,-2,-5,-2,0
1558453450092919,-2,-1,-1,2,-1,-1,-2,-6
1558453450092919,-2,-2,0,8,3,1,-3,-4
1558453450102087,0,0,1,-4,-1,0,-2,-2
1558453450102087,-1,-2,-6,-5,-1,1,0,2
1558453450115854,-1,-2,-1,1,-5,-5,-7,-2
1558453450115854,-1,0,4,9,2,0,2,0
1558453450122839,-2,-2,-5,-4,-3,-2,-1,2
1558453450122839,1,0,-2,4,4,3,2,1
1558453450138794,-3,-2,1,-4,0,-1,-1,-2
1558453450138794,-2,-1,-1,-14,-5,-3,-1,-4
1558453450140791,-2,-1,-6,-3,1,-2,-3,1
1558453450140791,0,-1,5,9,-2,-3,-2,-1
1558453450152758,0,1,1,3,1,0,0,-3
1558453450152758,-1,-2,-5,-11,2,2,4,2
1558453450161734,0,-1,4,-2,-5,-5,-8,-4
1558453450161734,1,2,4,3,-2,-3,5,2
1558453450175766,-4,-4,-8,-8,-9,-7,-6,-5
1558453450175766,-2,-4,-10,-7,-2,-3,-4,-4
1558453450183074,-1,0,6,7,3,-2,0,-1
1558453450183074,-1,-2,0,-1,-2,-2,-2,-2
1558453450198674,-1,2,-2,-7,-4,-4,-3,1
1558453450198674,-2,2,5,9,6,3,1,2
1558453450205615,-2,-2,1,0,-3,1,0,-3
1558453450205615,1,1,0,3,2,-1,-2,-1
1558453450212657,1,0,1,4,4,2,0,-1
1558453450212657,-1,-1,-2,-1,-1,-1,-4,-5
1558453450221778,1,1,4,8,1,-4,2,2
1558453450221778,-3,-1,-2,-3,1,2,-1,-1
1558453450235777,1,-1,0,-1,-2,0,-1,1
1558453450235777,1,-2,-5,-14,-11,-8,-5,-3
1558453450242760,-2,-2,3,22,3,2,6,0
1558453450242760,-1,-3,-2,-5,1,2,-3,-3
1558453450258786,-2,-2,-2,-3,-2,-1,0,0
1558453450258786,0,-1,-3,2,3,1,0,-3
1558453450265725,1,0,-7,-24,-14,-5,-2,-1
1558453450265725,-2,-1,-2,-1,-5,-1,-3,-2
1558453450272862,-1,-1,0,2,7,5,2,3
1558453450272862,-2,-1,5,17,-1,-3,-4,-1
1558453450281622,-2,-3,-2,-3,-3,-3,1,2
1558453450281622,0,-1,-2,5,3,1,0,-2
1558453450296588,-1,-2,-3,-9,-8,-6,0,-1
1558453450296588,-2,-2,0,7,-1,-2,-3,-6
1558453450302566,-1,-2,-6,-19,-1,-2,-2,-1
1558453450302566,-1,-1,-2,-9,-6,-4,-5,1
1558453450318634,-1,0,1,16,4,1,2,-1
1558453450318634,0,-1,-3,-5,4,7,3,3
1558453450325620,-1,1,2,6,0,0,-1,-1
1558453450325620,-1,0,1,7,-3,-5,0,1
1558453450341578,-1,-3,-9,-16,-2,0,0,-1
1558453450341578,0,-1,4,5,-5,-2,0,0
1558453450342900,-1,-2,-8,-15,-1,1,-4,-2
1558453450342900,-1,-1,4,13,7,0,6,1
1558453450355533,-1,-2,2,0,-3,0,-3,0
1558453450355533,-1,0,-2,-4,-1,-2,-1,-4
1558453450362516,-1,-1,-1,17,3,0,-1,0
1558453450362516,-2,-1,1,-7,-2,-1,-3,-5
1558453450378473,-1,-2,-9,-13,-2,-3,-1,-3
1558453450378473,-1,1,1,-3,-2,-2,-2,0
1558453450385456,-1,-2,-4,-18,-3,-2,0,2
1558453450385456,-1,-2,-2,6,0,1,-2,-2
1558453450401410,1,0,-3,-12,-2,1,8,4
1558453450401410,-2,-3,-1,-3,-7,-7,-2,-1
1558453450403405,0,2,2,13,8,7,5,1
1558453450403405,-2,-3,-3,-3,-1,-3,-7,-5
1558453450416530,-2,0,1,-6,-7,-5,-5,-3
1558453450416530,0,0,0,4,2,1,2,2
1558453450422713,-1,-2,2,2,-1,1,-1,-4
1558453450422713,1,1,-4,-8,-1,-1,2,4
1558453450439509,1,1,7,12,6,3,1,0
1558453450439509,-2,-2,-5,-12,-4,-5,-4,-1
1558453450445663,0,-1,-3,-2,-1,-3,-2,-1
1558453450445663,-3,-2,-5,-6,-1,3,0,-3
1558453450461431,-2,-1,1,4,-3,-4,-2,-2
1558453450461431,0,-2,-1,2,1,0,-1,-2
1558453450463439,-1,0,3,1,-3,-2,-3,-1
1558453450463439,-2,-1,0,-4,-1,-2,-3,-3
1558453450476393,-1,-1,-4,-4,-4,-4,-3,-4
1558453450476393,-2,-1,-1,6,2,2,1,2
1558453450482838,-2,-2,-2,9,0,-4,-5,-5
1558453450482838,-2,-1,-1,-7,-6,-1,-1,-2
1558453450498365,-2,-1,1,0,-4,-2,-2,-1
1558453450498365,2,0,-2,-4,3,2,0,0
1558453450505308,1,1,-3,-9,1,7,3,1
1558453450505308,0,1,3,13,2,1,0,0
1558453450522360,-1,-4,-7,-6,-5,-5,-1,-2
1558453450522360,-2,-3,-4,-13,-5,-2,-2,-4
1558453450523350,-2,-1,0,-3,1,2,1,3
1558453450523350,0,-3,-1,1,-2,-1,-3,-3
1558453450536463,-1,-1,3,4,0,-2,-3,-2
1558453450536463,0,0,-6,-10,-3,-1,1,-1
1558453450543297,-2,-2,-1,10,2,-2,-3,-5
1558453450543297,0,0,1,-15,1,4,4,3
1558453450558935,1,1,2,14,5,1,0,0
1558453450558935,0,0,3,10,2,0,1,-2
1558453450565234,-2,-2,-5,-16,-8,-5,-3,0
1558453450565234,1,-1,2,-2,-2,-6,-3,-2
1558453450582188,-1,-1,-2,0,0,0,-2,-1
1558453450582188,-2,0,-2,3,1,0,-1,1
1558453450583181,-2,0,0,7,0,-3,-3,-4
1558453450583181,-1,-2,5,8,5,1,0,-1
1558453450596151,-1,-1,-4,-17,-7,1,-1,-3
1558453450596151,1,-1,3,14,2,1,0,-1
1558453450603130,-2,-3,-11,-9,-4,-4,-5,-3
1558453450603130,-2,0,0,7,-4,-4,-1,0
1558453450618416,-2,-3,0,3,8,7,3,0
1558453450618416,1,-1,3,-4,1,1,-2,-1
1558453450625336,0,-1,-4,-7,-2,-2,-3,-3
1558453450625336,0,-1,-2,6,-2,-1,-2,-1
1558453450641190,0,0,-2,-7,-2,-3,0,0
1558453450641190,-1,-2,0,1,0,1,1,0
1558453450643174,0,-2,2,5,-2,-2,1,1
1558453450643174,-2,-2,-5,-9,2,4,-2,-3
1558453450656150,-1,-3,2,5,-2,-1,-1,1
1558453450656150,-3,-1,-7,-10,-5,-4,-3,-3
1558453450663248,1,-1,3,3,-2,-4,0,0
1558453450663248,-1,0,2,4,2,1,0,1
1558453450678130,-1,1,3,8,3,1,-2,-3
1558453450678130,-1,-1,-4,-4,-1,-2,-2,0
1558453450685062,0,-1,-2,-6,0,5,4,2
1558453450685062,-1,-1,-3,-9,-8,-3,-4,-2
1558453450702028,-3,-4,-1,16,0,1,-3,-2
1558453450702028,-2,0,0,-1,-2,-5,-4,-3
1558453450703015,-3,-3,-2,-13,-6,-5,-3,-5
1558453450703015,-2,-1,-3,-2,-2,-3,0,1
1558453450715979,2,3,-6,-22,-2,0,2,2
1558453450715979,0,0,4,9,3,3,0,1
1558453450722561,-1,1,3,0,3,3,-2,-2
1558453450722561,-2,-1,-2,15,4,0,-2,-1
1558453450738512,-3,-3,-9,-12,-8,-5,-3,-3
1558453450738512,-2,-1,0,-9,0,1,-1,-1
1558453450745494,-2,-2,-4,-1,-1,-4,-2,-1
1558453450745494,0,1,2,1,0,-3,1,0
1558453450761452,-1,0,-3,0,-3,-1,0,-2
1558453450761452,0,-2,1,9,1,4,-1,-2
1558453450763481,0,-1,4,2,-1,2,1,1
1558453450763481,0,-3,-6,-13,-5,-2,-2,-1
1558453450775415,0,-3,-4,2,-5,-8,-5,-3
1558453450775415,-2,-2,2,1,-5,-6,1,0
1558453450782396,-1,1,0,3,4,6,0,-2
1558453450782396,-1,-1,0,4,2,0,0,-2
1558453450798352,-1,-3,-4,-7,1,-3,-1,-3
1558453450798352,-1,0,-1,2,-2,-1,-2,-2
1558453450805333,0,-1,-3,-1,-3,-2,1,-1
1558453450805333,-4,-1,2,4,-1,-2,-3,-3
1558453450820984,0,0,-1,-5,4,4,0,-1
1558453450820984,1,-1,-6,-12,-6,-5,-4,-2
1558453450822978,-1,-1,0,9,8,9,5,-1
1558453450822978,0,-2,-8,-7,-7,-3,-3,-2
1558453450834945,-3,-1,8,3,-1,0,0,0
1558453450834945,-1,-1,-5,1,-4,0,-2,-3
1558453450844251,0,-2,0,-4,-3,-5,-2,1
1558453450844251,-1,-1,-1,-5,3,3,0,0
1558453450857883,1,-1,1,7,3,2,0,-1
1558453450857883,-4,-3,-4,-8,-7,-9,-3,0
1558453450865012,-3,-2,0,4,-2,-5,-3,-2
1558453450865012,1,1,4,8,3,1,1,1
1558453450881826,-1,-1,2,-2,-4,-2,-1,-1
1558453450881826,-1,-2,-1,-3,5,6,3,2
1558453450882817,-2,-2,-3,0,0,-3,-1,-2
1558453450882817,-2,-2,1,-5,-3,-2,-2,-1
1558453450894784,1,0,-1,8,1,0,-2,0
1558453450894784,-1,-1,-3,-14,-7,-9,-1,1
1558453450903761,1,0,1,9,4,7,1,1
1558453450903761,-2,-4,-6,-8,-7,-4,-3,-2
1558453450917964,-1,-1,-3,-2,-4,-3,-1,0
1558453450917964,-2,-1,-2,1,5,2,-1,-3
1558453450925185,-1,0,0,-3,-4,-8,-2,-2
1558453450925185,0,-3,-8,-14,-4,-2,0,-1
1558453450941916,0,-1,0,2,1,0,-1,-1
1558453450941916,2,-2,-2,2,1,1,-1,-1
1558453450942908,0,0,1,-2,-7,-3,-1,1
1558453450942908,-1,-1,-4,-9,-3,-1,-1,-3
1558453450955016,-1,-1,4,7,2,-2,1,1
1558453450955016,1,-1,-1,-1,2,4,2,1
1558453450963852,-3,-4,-2,8,1,-3,-4,-2
1558453450963852,-3,1,-1,-4,-1,1,2,-1
1558453450978819,-2,0,-1,9,-2,-4,-2,-1
1558453450978819,-3,-2,0,3,-4,-1,0,1
1558453450984794,1,-1,-1,-15,-5,0,-2,-2
1558453450984794,-2,-2,1,5,3,1,0,0
1558453451001750,-3,-2,1,10,0,-4,-2,-3
1558453451001750,0,-2,-1,-8,-4,0,0,-1
1558453451002747,-1,-1,-1,1,0,0,1,-1
1558453451002747,-1,-2,-7,-8,1,-2,-4,-1
1558453451014714,0,1,-1,-9,-2,-2,-2,-1
1558453451014714,-1,0,-1,7,2,-2,-3,1
1558453451023948,-1,-1,-4,-15,-7,-3,-3,-3
1558453451023948,0,0,0,4,3,1,0,-1
1558453451038341,-3,-2,-7,-25,-6,1,1,-1
1558453451038341,-3,-1,2,3,2,0,-2,-4
1558453451044936,-1,0,-3,5,3,0,0,-1
1558453451044936,-1,-1,0,5,1,-3,-2,-2
1558453451061846,-3,-1,0,-6,1,7,2,0
1558453451061846,-3,-3,-6,1,-2,-3,-2,-1
1558453451062843,0,-1,2,10,-1,-4,-3,-2
1558453451062843,-1,-1,-4,-15,-4,-3,-2,-2
1558453451074808,1,1,4,5,5,0,0,2
1558453451074808,0,-3,-1,4,-4,-4,-1,-1
1558453451083788,-1,-1,-1,-2,2,-3,-2,2
1558453451083788,-4,0,-1,3,-6,-6,-2,-3
1558453451098759,0,-2,-1,11,2,5,1,-1
1558453451098759,0,0,-1,-7,3,5,0,-1
1558453451104728,-1,-2,-3,-16,-9,-5,-1,-1
1558453451104728,-2,-1,3,5,-8,-3,-2,-3
1558453451121255,-2,-2,-5,-5,3,1,2,0
1558453451121255,-2,0,1,0,2,0,2,1
1558453451127236,1,-1,0,3,-2,0,-3,1
1558453451127236,2,1,0,-3,3,3,8,5
1558453451135337,-2,-1,2,10,-2,-6,-4,-3
1558453451135337,-2,-1,-7,-12,-9,-6,-5,-4
1558453451144236,-1,-1,0,12,5,0,0,0
1558453451144236,-3,-3,-2,-1,1,0,-2,-2
1558453451158481,-1,1,0,-9,-8,-7,-3,-2
1558453451158481,0,-1,6,16,3,0,4,-1
1558453451165141,-2,-2,-2,-3,2,4,-2,-4
1558453451165141,0,-2,-3,-3,-4,-3,-2,-2
1558453451181095,0,0,0,-5,2,2,-3,-2
1558453451181095,0,1,2,10,1,-5,-4,-1
1558453451188075,-1,-1,-6,-18,-2,2,3,-1
1558453451188075,-1,0,1,-4,-3,-4,-2,0
1558453451195056,0,-3,-1,9,6,3,0,-3
1558453451195056,1,0,2,-3,-2,0,-2,1
1558453451204034,-1,-1,3,6,-2,-6,-2,-3
1558453451204034,0,0,-2,-8,1,4,-1,0
1558453451218532,-2,-1,-5,3,0,-1,1,0
1558453451218532,-1,0,1,-3,-1,0,-2,-4
1558453451225524,-2,-3,-8,-8,-5,-6,-2,-3
1558453451225524,0,-1,5,15,1,2,0,2
1558453451240482,1,0,-1,2,0,0,-1,0
1558453451240482,-2,-2,0,-7,1,3,-2,-2
1558453451247467,-1,0,4,8,2,-1,0,1
1558453451247467,-3,-2,-8,-12,-4,-4,-4,-6
1558453451264417,1,0,-3,-1,-1,6,2,1
1558453451264417,1,0,-3,-8,3,1,0,1
1558453451265489,-2,0,3,6,0,1,0,-1
1558453451265489,-2,-3,-2,-8,-4,-6,-3,-3
1558453451278380,-1,-2,-1,0,-3,-2,-1,-2
1558453451278380,-1,-2,-1,-3,-3,-3,0,-1
1558453451285494,0,-2,1,7,3,3,2,-2
1558453451285494,1,0,-9,-13,-1,1,2,1
1558453451300321,0,0,-2,-2,-3,-3,-5,-1
1558453451300321,0,-1,1,-2,1,0,2,3
1558453451307303,-1,-3,-5,-10,-8,-2,0,1
1558453451307303,-3,-1,3,12,8,4,1,-2
1558453451324255,-2,-2,-2,-5,-6,-4,-3,-3
1558453451324255,-3,1,-4,-2,-2,-1,-1,-2
1558453451325811,-2,-1,-1,-1,-1,-1,-2,-1
1558453451325811,0,0,0,11,5,3,1,-1
1558453451338219,-1,-2,5,-2,1,1,1,0
1558453451338219,-1,-2,-6,-4,-5,-3,-2,-1
1558453451345347,0,-1,-1,1,1,-3,-2,-1
1558453451345347,0,0,1,4,0,-2,-3,-3
1558453451361253,-1,-1,-4,-11,-2,-3,-1,-2
1558453451361253,-2,-1,1,6,-1,1,-1,-2
1558453451367266,-1,-1,-10,-13,-4,1,-1,0
1558453451367266,0,-1,7,3,-3,-1,0,1
1558453451384096,-3,-1,-4,2,5,4,3,4
1558453451384096,1,-1,-4,-6,-4,-3,-1,0
1558453451385198,-4,-2,0,-1,4,2,-4,-17
1558453451385198,-4,-3,1,4,1,3,0,-4
1558453451398066,0,-2,3,8,-3,-9,-5,0
1558453451398066,1,-1,-7,-16,-4,-5,-1,-2
1558453451405041,0,1,-2,-5,-3,1,3,6
1558453451405041,-3,-1,4,6,0,1,0,2
1558453451420999,-4,-4,-4,-8,-2,-2,-3,-5
1558453451420999,1,0,3,15,5,4,0,3
1558453451428978,0,-1,-1,-8,-9,-5,-1,1
1558453451428978,0,-2,-5,-10,-3,-3,-1,-1
1558453451443939,1,0,2,10,-3,-7,-2,1
1558453451443939,-4,-3,-3,-16,-4,0,-3,-5
1558453451444937,1,-1,-1,5,2,3,1,2
1558453451444937,-2,0,1,3,-1,-3,-2,0
1558453451457899,-3,-1,-4,-9,-5,-2,-1,-1
1558453451457899,-3,-1,-3,3,-2,1,0,0
1558453451465881,-2,-1,-1,-2,-3,-2,-2,2
1558453451465881,-2,-1,-1,-9,-2,-1,-2,0
1558453451480845,1,-1,0,-2,2,3,0,-1
1558453451480845,-2,0,6,15,1,-1,-3,-3
1558453451487821,0,-1,-8,-5,0,1,1,2
1558453451487821,0,-1,5,3,1,1,0,1
1558453451503777,0,-2,-4,2,1,0,1,-1
1558453451503777,-2,-3,-8,-18,-2,2,0,0
1558453451505771,1,0,1,0,2,5,1,-1
1558453451505771,-1,-1,-2,8,-6,-5,-4,-3
1558453451518738,0,0,1,1,5,5,2,1
1558453451518738,-2,-1,0,3,-2,-4,0,-2
1558453451524801,-2,0,6,17,4,-2,-3,-1
1558453451524801,0,-3,-9,-11,-2,1,-1,-1
1558453451540764,0,-2,2,0,-5,-2,1,-2
1558453451540764,0,0,-6,-4,-3,-3,-1,-1
1558453451547660,0,-1,6,9,6,0,-2,1
1558453451547660,0,1,4,6,1,-3,-1,0
1558453451563617,-1,0,-5,-8,0,-3,-2,-1
1558453451563617,-1,-1,-4,4,0,-1,0,1
1558453451565613,-1,-2,4,9,1,-2,-1,-1
1558453451565613,0,0,-7,-31,-6,-1,-2,0
1558453451578579,0,-1,2,-1,3,3,1,0
1558453451578579,-2,-2,1,6,1,-2,-1,-2
1558453451585558,-1,-1,0,5,-3,-3,0,-1
1558453451585558,-1,0,1,8,1,-3,1,-1
1558453451600522,-2,-3,-6,2,-2,0,-1,-3
1558453451600522,-2,-3,0,2,-4,-3,-4,-2
1558453451607500,-1,0,0,-9,-2,0,1,1
1558453451607500,0,-3,-5,3,-1,-2,0,0
1558453451624457,0,1,-3,-5,-2,-2,-2,-1
1558453451624457,-1,-1,1,-15,-5,-1,-2,-4
1558453451625691,-3,-1,-4,-4,-3,-2,-3,-4
1558453451625691,-1,-1,1,15,1,0,-1,-1
1558453451646397,0,-1,-6,-31,-9,-3,0,2
1558453451646397,1,2,6,21,7,2,2,0
1558453451648403,0,0,-1,-11,-1,-1,1,0
1558453451648403,-3,-1,-2,-3,-2,0,-1,-2
1558453451660363,-2,-1,0,4,-5,-6,-4,-3
1558453451660363,-2,-2,-4,-1,5,5,-3,-2
1558453451667339,0,1,2,2,1,-1,1,0
1558453451667339,2,-1,-1,-3,-1,-2,0,0
1558453451684294,0,-2,-1,7,5,5,2,1
1558453451684294,-2,-1,0,-5,-4,-4,-1,-2
1558453451685290,0,-3,-3,0,-1,1,-4,-3
1558453451685290,-1,-2,-5,-1,4,4,1,2
1558453451698265,-1,0,3,4,-2,-5,-4,-4
1558453451698265,-1,0,2,8,0,-2,-1,-1
1558453451705238,0,-2,-5,-11,-5,-2,-1,-3
1558453451705238,-2,0,0,4,0,-3,1,-2
1558453451721282,-3,-1,1,2,-3,-6,-3,-2
1558453451721282,1,-1,-5,-7,1,2,1,4
1558453451727776,-3,-2,-1,1,-4,-3,-3,-4
1558453451727776,0,-2,0,-1,-2,-1,0,-1
1558453451743914,-1,0,-1,6,3,3,0,1
1558453451743914,2,1,-4,-17,-4,-4,-1,0
1558453451745817,-1,0,1,-1,-3,-4,-3,-2
1558453451745817,-1,-1,-1,-2,-1,0,0,-1
1558453451757696,-2,-3,1,18,4,3,0,-2
1558453451757696,-1,-1,-7,-16,0,-1,1,2
1558453451766673,-2,-3,-3,-21,-3,0,-3,-2
1558453451766673,-2,2,3,-1,-2,0,-2,-1
1558453451780635,0,-2,-3,-6,-3,-2,0,1
1558453451780635,-2,0,6,15,4,3,0,-1
1558453451787859,1,0,1,2,1,-1,1,1
1558453451787859,-2,-1,-1,-4,1,3,-2,-1
1558453451804005,-2,-4,0,-2,0,-1,-1,-3
1558453451804005,2,0,5,25,7,4,4,1
1558453451805568,0,-1,-3,-14,-7,-3,-1,-3
1558453451805568,-1,-1,3,20,4,-4,-1,1
1558453451817743,-2,-1,-3,-23,-9,-6,-4,-2
1558453451817743,-3,-1,0,-1,-4,-2,-1,-2
1558453451826865,-1,0,2,9,2,2,1,2
1558453451826865,-1,-1,1,3,-3,-4,-3,-1
1558453451840827,-2,0,-5,-4,-3,0,-1,-3
1558453451840827,-2,-3,1,-4,-7,-6,-2,-3
1558453451847808,-4,-1,-6,0,3,1,-2,-2
1558453451847808,-2,-4,-3,-10,-6,0,-2,-3
1558453451871746,0,1,-4,-13,-2,-1,-1,-2
1558453451871746,3,1,10,17,6,3,0,1
1558453451872743,1,-1,-8,-2,5,3,1,1
1558453451872743,1,-2,-5,-11,-4,-2,3,2
1558453451877731,0,0,5,20,3,-2,-2,-1
1558453451877731,-4,-5,-13,-17,-8,0,-2,-2
1558453451886706,-3,-2,1,-6,-3,-2,-3,-2
1558453451886706,-2,0,1,0,1,1,-3,-1
1558453451900675,-1,1,1,12,1,3,0,0
1558453451900675,-1,-1,-3,-5,-3,-6,-1,-1
1558453451907650,-1,-1,-1,5,-1,-6,-2,-2
1558453451907650,-2,-1,-7,-9,-3,1,0,-3
1558453451924044,-1,-1,0,-12,-4,0,-3,0
1558453451924044,1,0,2,6,4,2,-2,-1
1558453451924959,0,-2,-1,-1,-4,-2,0,-1
1558453451924959,0,-2,-3,-11,0,-2,-1,-1
1558453451937923,-1,-3,1,0,1,0,-1,-2
1558453451937923,-5,-2,-8,-12,-5,-5,-5,-3
1558453451947044,0,1,2,6,7,4,4,4
1558453451947044,-2,0,7,6,-1,-2,-2,-1
1558453451960910,-3,-2,-1,-3,-3,-2,-1,-2
1558453451960910,-1,0,-2,0,0,-2,-4,-1
1558453451967843,-1,-1,4,11,0,-1,-1,-2
1558453451967843,0,-2,-7,-11,-7,-5,-2,-2
1558453451984797,-1,-4,1,5,8,5,3,1
1558453451984797,0,0,5,8,-2,-1,-1,-2
1558453451985798,-1,-3,-4,-11,-3,0,-2,-2
1558453451985798,-2,-1,-7,-3,-10,-11,-4,-5
1558453451997764,2,2,10,14,5,3,3,4
1558453451997764,-3,-2,-12,-19,-6,0,0,-1
1558453452006946,1,0,2,7,0,0,0,0
1558453452006946,-2,-2,-4,0,-1,-1,-5,-3
1558453452021057,1,0,-3,2,2,2,3,0
1558453452021057,-1,-2,0,-9,-8,-2,1,0
1558453452028051,0,-2,-2,-10,-4,-3,-1,-3
1558453452028051,-2,-1,4,17,3,1,0,1
1558453452043609,0,0,-3,-2,-4,-1,1,-1
1558453452043609,-2,-2,-4,-5,1,-2,-2,-4
1558453452045604,-1,-2,-1,-5,-6,-2,0,-2
1558453452045604,1,-2,-1,-3,1,4,2,0
