timestamp,emg1,emg2,emg3,emg4,emg5,emg6,emg7,emg8
1558438502184040,0,-1,-2,1,-2,-1,-6,0
1558438502184040,-1,0,6,4,0,1,1,1
1558438502185037,-5,1,-5,-2,-3,1,-6,-7
1558438502185037,-2,-3,-2,-3,-5,-7,-1,-2
1558438502185037,3,5,7,8,7,0,10,6
1558438502185037,-2,-7,-12,-12,1,0,-1,-2
1558438502186035,-4,-5,-3,-17,-8,-5,-3,-1
1558438502186035,-9,-10,-7,-8,-8,-1,-19,-10
1558438502198001,-1,0,-2,0,-12,-7,2,-5
1558438502198001,-2,1,4,5,-3,-1,-2,-4
1558438502205981,2,4,13,15,13,1,9,6
1558438502205981,3,-1,-21,-14,-7,-4,-7,0
1558438502212962,-1,-2,2,4,5,0,8,4
1558438502212962,-2,-4,-9,3,3,7,7,-1
1558438502226925,-5,-6,-13,-15,-12,-4,-7,-9
1558438502226925,-2,-1,0,5,-2,-2,1,1
1558438502237896,-2,-3,-11,-16,-5,-1,-5,-3
1558438502237896,-1,-2,5,9,-6,-9,-8,-3
1558438502249862,4,3,10,12,3,-3,-4,5
1558438502249862,1,-2,1,-4,10,10,13,4
1558438502260835,-6,-3,-7,2,-8,-6,-9,-5
1558438502260835,2,1,4,4,1,0,-4,-3
1558438502264825,2,6,-1,-2,-5,-1,-3,0
1558438502264825,-1,-3,-7,-16,-4,-5,-2,-2
1558438502313692,-5,-2,1,2,-7,-7,-12,-8
1558438502313692,0,0,-4,-3,2,3,2,-1
1558438502314690,-2,2,-6,0,-5,0,-1,-2
1558438502314690,-1,-1,-8,-7,3,1,3,3
1558438502317682,2,1,-1,-3,4,0,4,3
1558438502317682,-3,-1,5,6,-7,-9,-2,-4
1558438502318679,-2,6,3,2,-1,3,0,-2
1558438502318679,-1,-2,12,16,10,12,5,1
1558438502324663,-1,3,-9,-8,-4,-3,5,2
1558438502324663,-1,-3,-3,-2,-2,-1,0,2
1558438502332644,0,-1,-3,-10,-6,2,-12,-4
1558438502332644,0,7,2,9,7,11,11,6
1558438502339622,1,-8,3,1,2,-10,1,1
1558438502339622,-1,1,-2,-1,-3,-2,3,0
1558438502354583,-7,-12,-4,0,-13,-10,-14,-9
1558438502354583,3,5,2,-6,-6,-5,-3,-3
1558438502361565,-5,-6,-2,9,7,3,4,-1
1558438502361565,0,0,-15,-11,-12,-4,-3,-3
1558438502369544,-2,-6,-8,-11,0,-2,3,1
1558438502369544,0,-1,1,6,3,-7,-2,0
1558438502384504,1,-1,-1,-3,-5,-1,0,-4
1558438502384504,-4,1,11,9,1,-4,-5,-3
1558438502392482,2,3,3,1,14,2,14,9
1558438502392482,-1,1,0,-7,-7,-1,3,-2
1558438502399794,1,1,3,0,1,4,-12,-5
1558438502399794,-3,-5,-7,-5,-5,-4,-9,-2
1558438502415420,-3,-5,-11,-5,-5,4,1,-2
1558438502415420,-6,-2,-2,-2,-1,-2,-2,-6
1558438502421405,-3,0,3,-3,0,1,2,1
1558438502421405,1,-2,6,10,1,2,-2,-2
1558438502429383,-1,-2,1,-1,-1,-3,4,3
1558438502429383,2,-1,-8,-15,-8,-10,-6,0
1558438502444342,-2,3,-5,-4,-8,-3,-1,-2
1558438502444342,3,7,8,7,14,4,3,3
1558438502452321,-1,-1,0,-2,1,-2,-5,-3
1558438502452321,0,-7,-8,-5,-8,-5,-5,-4
1558438502459315,4,3,2,-5,-2,1,1,2
1558438502459315,-1,-1,-3,-3,1,5,1,4
1558438502475260,-2,-5,2,-1,0,-4,6,3
1558438502475260,1,3,8,6,8,6,-6,-5
1558438502482241,-1,-3,-3,3,4,4,4,0
1558438502482241,-2,-3,-2,-1,-3,-3,-13,-5
1558438502489224,0,-4,-6,-1,-7,-5,-6,-4
1558438502489224,-2,-3,-8,-10,2,3,6,2
1558438502504183,0,5,-1,1,-4,-1,2,-1
1558438502504183,-2,-4,2,-1,-1,5,-4,-5
1558438502512161,2,6,4,5,-2,-2,-5,0
1558438502512161,-3,2,2,8,1,-16,3,1
1558438502519143,0,-1,18,4,8,6,-1,2
1558438502519143,-6,-9,-33,-21,-17,-12,-2,-4
1558438502535100,0,6,0,-2,9,16,9,1
1558438502535100,-2,-6,-5,6,-8,-9,-8,-2
1558438502542081,-1,1,-1,2,-2,-4,-2,-1
1558438502542081,-1,3,8,1,-1,-1,-12,-3
1558438502549063,5,7,20,17,13,1,2,4
1558438502549063,-1,-4,-16,-17,-8,-4,0,0
1558438502564023,-4,-5,-21,-13,-3,5,-1,-3
1558438502564023,-4,-5,6,5,-2,-3,-8,-5
1558438502572001,-1,-5,-2,2,-7,-3,-6,-4
1558438502572001,6,3,5,1,0,-1,-3,3
1558438502578983,-8,-6,3,5,4,1,-1,1
1558438502578983,5,5,2,4,4,-7,2,5
1558438502602919,-1,2,-1,5,-3,-3,-8,-3
1558438502602919,-5,-1,-15,-16,-10,1,6,-5
1558438502604913,4,-7,-6,-3,6,0,3,4
1558438502604913,-2,0,2,10,3,-1,0,-2
1558438502608903,-1,-2,-2,-11,-1,-3,2,-1
1558438502608903,-5,0,8,3,-5,-5,-11,-5
1558438502623862,-2,3,-3,-3,-14,-9,-8,-2
1558438502623862,1,-3,-3,-6,5,14,12,2
1558438502632839,4,5,5,-2,13,2,6,4
1558438502632839,-3,0,-3,1,-3,0,-6,-5
1558438502638823,-1,4,6,10,1,2,-1,-3
1558438502638823,-4,-10,0,0,1,2,8,0
1558438502654780,-2,-1,-10,-7,-8,-11,-9,-3
1558438502654780,3,-4,6,3,7,11,4,6
1558438502661762,1,2,-1,4,-2,2,-2,-2
1558438502661762,3,6,3,-3,-3,-2,4,0
1558438502669740,-1,0,10,5,5,5,2,-2
1558438502669740,0,4,17,20,11,1,-2,0
1558438502684699,-2,-12,-40,-43,-20,-21,-7,-5
1558438502684699,-1,-2,-8,0,-2,3,0,-2
1558438502692679,-6,-2,-9,-5,-10,-3,2,-3
1558438502692679,-3,-4,3,-5,2,0,-5,-6
1558438502699660,-1,3,10,4,1,7,1,0
1558438502699660,-2,0,0,-5,-4,-7,-9,0
1558438502714620,2,1,4,8,5,-7,-6,1
1558438502714620,-7,-9,-6,-3,-6,-5,4,0
1558438502721601,3,3,12,10,3,-5,-1,-2
1558438502721601,-9,-6,-14,-15,-1,-3,-1,-4
1558438502729581,-2,-7,-8,-5,-7,-5,-6,-3
1558438502729581,0,5,4,6,-1,1,-5,-1
1558438502745537,-3,-8,-5,-10,-3,-1,-2,-1
1558438502745537,2,4,8,7,3,5,3,0
1558438502752519,0,2,-4,-3,1,-2,4,1
1558438502752519,5,1,7,6,8,5,4,5
1558438502760497,-1,-1,-13,3,-3,-2,-6,-1
1558438502760497,0,2,1,2,-2,2,0,0
1558438502775458,-2,-6,-12,-11,1,10,0,-2
1558438502775458,-3,-1,1,-3,-11,-8,-10,-5
1558438502781442,0,-1,10,3,1,-3,-6,1
1558438502781442,3,1,3,5,0,-3,10,6
1558438502789420,-1,-3,-1,7,0,-1,-4,-2
1558438502789420,1,2,14,-5,3,3,2,0
1558438502804381,-1,-1,-17,-12,10,6,2,-2
1558438502804381,-3,-1,-8,-10,-8,-4,-2,-2
1558438502812359,2,3,-4,0,-2,3,4,2
1558438502812359,-1,-10,-12,-4,-8,-8,-2,0
1558438502819339,0,9,10,5,-1,0,-3,-2
1558438502819339,-4,-1,4,0,5,-3,-4,-3
1558438502835297,-2,-9,0,4,-3,-5,-4,-2
1558438502835297,0,3,-15,-15,0,1,5,1
1558438502841281,3,3,10,19,4,4,11,6
1558438502841281,4,5,10,-6,7,0,-12,0
1558438502849261,-3,3,7,7,-5,-1,5,1
1558438502849261,-1,-5,-23,-11,-2,-1,-4,-4
1558438502864220,-1,0,3,-1,-8,-3,2,-2
1558438502864220,-2,-4,-2,-3,2,2,2,-3
1558438502872198,-2,1,9,12,7,5,-1,-4
1558438502872198,0,-1,-4,-4,-6,-2,1,1
1558438502879179,-1,-8,-3,-6,2,1,1,-1
1558438502879179,1,3,3,11,-7,-13,-8,-5
1558438502903116,0,-2,-9,-21,-7,-4,3,2
1558438502903116,-2,-2,1,2,-6,-9,-18,-5
1558438502904114,-1,2,5,6,5,12,4,-1
1558438502904114,3,4,3,-2,2,-5,8,4
1558438502917081,-5,-10,-6,-4,-4,-3,-5,-1
1558438502917081,-3,7,1,0,1,6,-1,-1
1558438502924061,-1,-7,-1,-1,-2,-5,-11,-2
1558438502924061,2,-1,-2,-3,0,10,2,0
1558438502932039,4,6,10,6,2,3,1,0
1558438502932039,-2,-2,-16,-14,-11,-7,-10,-4
1558438502939021,-4,-8,-7,-20,-7,-7,1,-2
1558438502939021,0,4,7,6,7,10,1,1
1558438502954977,-5,-8,-1,3,-6,-13,-7,-6
1558438502954977,1,1,-7,-10,2,7,9,5
1558438502961959,-4,5,1,3,-7,-6,-4,-5
1558438502961959,0,-11,-8,-5,-6,-4,-6,-3
1558438502977916,2,3,2,0,5,7,7,2
1558438502977916,-1,-4,5,8,3,-5,-2,-2
1558438502983900,-1,6,8,15,8,0,3,4
1558438502983900,-6,-2,-7,-14,-11,-4,-4,-5
1558438502992878,-2,-8,-4,2,0,8,-2,-5
1558438502992878,2,0,2,2,1,-4,3,0
1558438502998859,-4,-6,0,-3,-6,-1,-12,-5
1558438502998859,3,4,4,8,9,-4,4,7
1558438503014817,-3,-1,-8,-9,-4,-3,-3,-3
1558438503014817,-1,1,2,2,2,4,-2,-2
1558438503021798,-3,-2,-2,1,-5,-5,-13,-5
1558438503021798,0,-3,-3,-3,3,8,4,1
1558438503037756,3,4,-6,-6,-4,-11,4,2
1558438503037756,-1,0,7,5,2,2,2,1
1558438503044737,1,5,4,2,0,3,6,-4
1558438503044737,-1,-3,3,10,0,-2,-5,-4
1558438503052716,-3,-5,-13,-13,-2,-3,-7,-2
1558438503052716,-2,1,0,-7,-5,1,1,-1
1558438503059696,-2,-9,-16,-3,-8,-4,-2,-1
1558438503059696,-2,-2,-7,-9,-8,-6,-2,-2
1558438503074657,-2,-2,8,1,-6,-4,-7,-5
1558438503074657,0,-1,0,3,-1,1,2,-4
1558438503081639,2,5,9,4,15,9,13,4
1558438503081639,-1,-6,-6,12,-9,-9,-4,-4
1558438503097598,2,2,-2,-12,6,6,-3,0
1558438503097598,0,-3,-5,-11,-8,-2,-1,-3
1558438503104577,2,4,0,-2,-1,1,1,0
1558438503104577,1,4,0,-3,1,8,-2,1
1558438503112556,-4,1,5,0,-4,-5,1,-2
1558438503112556,-4,-3,-5,7,1,1,-1,-3
1558438503119537,0,-3,-3,-6,1,-3,6,2
1558438503119537,-1,-2,18,16,9,6,3,2
1558438503135493,0,3,-3,-7,-4,0,-2,0
1558438503135493,-6,-17,-13,-2,-2,0,-4,-2
1558438503141479,-3,-3,-10,-17,-9,-8,-6,-3
1558438503141479,-1,-7,-4,-14,-12,-6,-2,-7
1558438503157437,-2,-1,-1,10,7,2,9,0
1558438503157437,1,6,11,6,6,8,6,3
1558438503164417,1,3,3,1,3,7,1,2
1558438503164417,-1,-2,-2,-4,2,-13,2,1
1558438503172396,-1,-4,-12,-8,-5,-2,-6,-1
1558438503172396,0,-3,-3,-1,-7,-7,-10,-3
1558438503186358,1,2,4,7,7,9,4,3
1558438503186358,0,10,7,3,1,-3,-1,-1
1558438503203314,-2,-12,0,1,-2,-5,-2,-2
1558438503203314,-1,1,-3,-6,-6,-9,-4,-3
1558438503204310,1,3,9,3,-4,-1,-6,-3
1558438503204310,-1,-2,-13,-14,-4,2,-7,-2
1558438503217277,2,5,12,9,-8,-10,-10,-2
1558438503217277,-4,-9,-11,0,5,9,7,1
1558438503224256,1,5,-1,-4,0,-5,1,-1
1558438503224256,0,2,-3,1,5,0,4,3
1558438503232237,-1,-4,5,2,-1,1,-1,-3
1558438503232237,3,3,8,8,-1,-3,0,0
1558438503247196,0,-3,0,7,-2,-2,-3,-3
1558438503247196,-2,-1,-18,-25,-5,-2,0,-1
1558438503255174,0,1,3,-6,-7,2,0,0
1558438503255174,0,3,6,6,4,0,1,1
1558438503262155,-4,-9,-2,4,-1,-5,-1,-1
1558438503262155,-3,-4,-6,-3,-5,-4,-6,-3
1558438503277115,2,1,4,4,10,12,10,4
1558438503277115,-2,-3,-3,-4,-2,-5,-1,2
1558438503284097,0,0,-6,-7,-2,5,-4,-3
1558438503284097,-1,-1,6,4,3,2,4,0
1558438503300055,-2,3,-6,0,-3,-1,4,-1
1558438503300055,-1,-5,-1,7,0,-7,-6,0
1558438503307034,-4,-4,-7,-3,-3,-3,-4,-3
1558438503307034,4,-1,8,8,2,9,5,-1
1558438503314017,-1,3,-13,-4,-2,-4,-6,-3
1558438503314017,-1,1,5,3,-1,2,-1,-2
1558438503322992,-3,0,-6,-10,-3,-4,-3,0
1558438503322992,-2,0,11,4,-7,-11,-7,-1
1558438503336954,-2,-3,-9,-6,-3,-5,-3,-3
1558438503336954,1,1,5,4,6,-3,1,-2
1558438503343937,-1,-4,-4,-2,1,1,-3,0
1558438503343937,0,1,1,5,-2,0,0,2
1558438503359894,1,4,-6,-14,-1,-7,-2,0
1558438503359894,-3,2,-1,3,-6,1,-10,-4
1558438503366875,-4,-5,-4,-11,-5,-2,-1,-3
1558438503366875,-4,-6,-7,2,0,-4,-8,-5
1558438503382833,-3,-2,-6,-10,2,8,8,4
1558438503382833,1,5,10,11,3,-3,-1,1
1558438503384827,-2,-4,-2,-9,-4,-1,9,-3
1558438503384827,1,-1,-10,-6,-2,2,-2,-2
1558438503397791,1,4,14,14,0,2,-5,-2
1558438503397791,-2,-5,-10,-11,-6,-2,1,-2
1558438503403778,0,0,12,14,1,0,-3,0
1558438503403778,-2,-3,-16,-30,-10,-4,-5,-1
1558438503420732,0,-2,7,8,2,3,0,-1
1558438503420732,3,5,1,-1,9,6,9,4
1558438503426715,-3,-7,-5,7,0,-6,-5,-2
1558438503426715,0,1,0,0,1,3,2,1
1558438503442672,-2,-2,4,2,-7,-9,-15,-3
1558438503442672,-3,1,-5,-11,-6,2,-3,-1
1558438503444667,-1,-6,1,-4,-6,-10,-6,-1
1558438503444667,1,4,11,14,12,6,14,8
1558438503457634,-1,1,-10,-9,-8,-4,3,-1
1558438503457634,-2,-3,9,10,2,-2,-2,-2
1558438503464617,0,1,-7,-7,3,7,-3,1
1558438503464617,3,-1,4,4,-9,-5,-1,-2
1558438503480573,1,-1,6,10,3,2,3,0
1558438503480573,4,4,0,-2,12,5,1,5
1558438503486565,0,0,-3,-4,-3,-3,-2,-3
1558438503486565,-3,-3,-4,5,2,3,-2,-1
1558438503503511,1,5,4,5,1,-3,-3,0
1558438503503511,-4,-9,-7,-10,-16,-7,3,-5
1558438503504507,1,1,4,5,6,4,10,3
1558438503504507,-4,-1,-2,-7,-4,-4,-5,-1
1558438503517472,2,3,-9,-16,2,1,-2,1
1558438503517472,-5,-7,-6,10,4,-2,-2,-2
1558438503524455,2,5,-2,3,-4,0,2,5
1558438503524455,-4,-5,-6,-5,-6,-3,-7,-9
1558438503540411,-2,-8,5,3,-2,-3,5,3
1558438503540411,0,1,1,-6,-1,3,1,0
1558438503546395,0,7,9,4,6,-1,1,0
1558438503546395,-2,-6,-8,0,5,7,-3,-2
1558438503563350,-1,-3,-8,1,2,1,-1,-2
1558438503563350,2,0,5,13,2,-6,-4,-2
1558438503564347,-3,-1,-15,-24,-8,-3,-7,-4
1558438503564347,-7,-3,4,6,-2,-3,-1,-5
1558438503577312,-1,-1,2,2,1,-4,7,1
1558438503577312,1,3,4,2,-1,4,-4,-2
1558438503584293,2,1,0,-3,-3,2,-4,-2
1558438503584293,0,-1,1,-1,-8,-14,-5,-1
1558438503600252,-1,-3,-1,4,5,11,8,0
1558438503600252,-2,-2,-2,-4,-1,1,8,-1
1558438503606235,0,2,-5,-2,-2,-6,-4,2
1558438503606235,-1,1,6,6,-1,-2,-4,-3
1558438503623189,-2,1,-4,-16,-6,-3,-3,-1
1558438503623189,-5,-3,1,-1,-6,-1,-5,-3
1558438503624186,-4,-11,-9,3,-4,2,0,-2
1558438503624186,4,0,-4,-6,7,3,6,0
1558438503637151,1,2,11,11,1,-4,-5,-4
1558438503637151,-2,1,-8,-16,-4,-1,-4,-1
1558438503644134,-1,-1,-5,-5,-4,-4,2,-2
1558438503644134,-1,1,6,6,3,-1,3,4
1558438503660091,0,-4,-4,-6,-2,1,-1,-1
1558438503660091,-1,0,0,-5,-4,-3,-2,-1
1558438503668069,-2,0,11,20,4,5,-1,0
1558438503668069,-2,1,-1,-3,4,-2,1,2
1558438503684026,0,1,2,2,7,2,-3,-1
1558438503684026,2,0,-12,-10,-7,-5,-1,2
1558438503685023,-2,2,9,11,0,-2,-1,-5
1558438503685023,-3,-6,-12,-5,-5,2,-8,-5
1558438503697988,0,-3,-1,-3,-6,-6,-2,3
1558438503697988,2,2,5,4,3,1,-5,0
1558438503703973,0,-2,-5,-5,1,-2,3,3
1558438503703973,2,9,5,-3,-1,0,-4,-1
1558438503719930,-4,-11,1,7,-3,-3,-2,-6
1558438503719930,-3,-8,-6,-2,-4,-3,-3,-2
1558438503726911,0,0,0,-4,0,-2,4,2
1558438503726911,0,1,2,0,5,6,-2,-1
1558438503742869,-3,3,0,4,-4,-3,-6,-5
1558438503742869,1,3,10,-3,1,2,3,1
1558438503744863,-3,-10,-9,-5,-1,0,-1,0
1558438503744863,-1,-4,-7,-2,-4,-4,1,2
1558438503757828,0,3,-6,-2,5,8,6,3
1558438503757828,3,2,9,7,1,-2,0,0
1558438503763813,2,4,5,1,-2,-6,1,-2
1558438503763813,0,-1,5,2,-5,-4,-1,0
1558438503779772,-2,-1,-10,-13,-7,-4,-2,-1
1558438503779772,-1,-4,0,4,5,4,1,4
1558438503786753,-1,1,3,3,-2,-1,-5,0
1558438503786753,-1,4,-2,-2,-2,2,3,0
1558438503802708,-5,-9,4,1,-5,-4,-4,-5
1558438503802708,-3,-3,-10,-8,-1,-1,-5,-3
1558438503804703,1,-1,4,3,4,4,1,1
1558438503804703,1,-1,-11,-4,1,7,4,0
1558438503817668,0,6,5,7,4,-7,-6,0
1558438503817668,-3,-5,-12,-35,-10,-2,-2,-5
1558438503824651,-5,-2,-4,-1,-1,-7,-9,-4
1558438503824651,0,2,13,12,2,-3,2,0
1558438503839643,0,2,-11,-6,-3,1,2,2
1558438503839643,-6,-14,-3,9,-3,-3,-2,-2
1558438503846617,-2,2,1,-8,-9,1,-9,-5
1558438503846617,-1,-3,-3,-3,-4,3,0,2
1558438503863546,0,-2,4,4,15,7,13,1
1558438503863546,1,5,2,11,-2,-11,-6,-4
1558438503864543,2,-4,-7,-14,-7,-8,-6,-1
1558438503864543,-8,-6,4,2,4,4,1,-4
1558438503876512,-1,3,-5,-2,-10,-1,-9,-2
1558438503876512,-1,1,-14,-10,-3,-2,-1,-3
1558438503885614,1,-1,8,13,3,0,10,1
1558438503885614,-1,1,0,-17,-11,-12,-9,-4
1558438503900447,-2,-9,-15,-1,-1,1,3,0
1558438503900447,-2,6,11,-1,-1,0,-5,1
1558438503907505,0,-3,-15,-1,1,-2,-7,-3
1558438503907505,-4,-3,3,1,0,0,2,1
1558438503923666,-2,2,4,1,3,-3,-3,0
1558438503923666,0,-1,0,1,-4,3,5,-1
1558438503924385,-2,0,9,4,5,6,-2,0
1558438503924385,4,0,-6,-6,-7,-8,8,-3
1558438503937484,-5,-1,-1,3,3,7,1,-6
1558438503937484,-6,-5,4,-1,4,7,5,-4
1558438503945625,-3,-4,-10,-10,-2,-5,3,-3
1558438503945625,3,-1,-2,3,-2,2,2,1
1558438503960552,1,0,0,-1,-6,-12,-15,-5
1558438503960552,3,0,-3,-2,-5,-15,2,3
1558438503967269,-1,3,8,9,-3,-4,-5,-3
1558438503967269,-1,6,-11,-16,3,3,-5,-1
1558438503983229,-8,-16,-11,-8,-9,-5,-1,-2
1558438503983229,-1,4,-3,-1,2,6,-5,-1
1558438503983229,1,-2,4,9,8,5,15,6
1558438503983229,6,5,4,6,1,3,-1,-1
1558438504005464,0,3,7,-1,-6,3,-4,-3
1558438504005464,-1,-2,-4,3,-3,-11,-5,-3
1558438504005464,-2,-3,-7,-7,-1,4,-1,-1
1558438504005464,-5,-7,-2,1,-3,-1,-5,-4
1558438504021333,3,5,5,0,-4,-5,1,2
1558438504021333,1,1,8,3,6,9,3,1
1558438504027386,1,5,-8,-6,-5,-1,-8,-2
1558438504027386,-5,-15,-7,-1,3,-3,-1,1
1558438504042070,5,1,2,4,2,2,6,1
1558438504042070,-6,-1,-9,-4,3,5,1,-2
1558438504043066,-2,-3,2,-2,-10,-5,-3,-2
1558438504043066,-4,-1,0,-2,-6,-7,-10,-6
1558438504065490,6,14,12,4,13,4,2,7
1558438504065490,-1,-16,-7,-4,-2,-7,3,0
1558438504066006,-1,0,-4,-5,-5,-2,3,-2
1558438504066006,1,-6,-9,0,-5,-6,-4,-1
1558438504080966,-2,-1,-1,-2,-3,-4,-8,-1
1558438504080966,-7,0,5,-3,-7,-1,0,-2
1558438504087403,1,4,-1,0,4,2,3,4
1558438504087403,4,0,11,8,10,3,13,3
1558438504103198,-3,-8,-11,-7,-8,-8,-14,-8
1558438504103198,0,0,-10,-5,-5,-10,4,0
1558438504103198,1,8,6,11,9,2,0,0
1558438504103198,-4,-4,3,-3,-1,7,4,-2
1558438504124848,-1,-6,-1,-1,1,4,1,3
1558438504124848,4,0,-2,-3,-6,-6,-12,-3
1558438504125845,-3,2,6,2,2,1,-6,-4
1558438504125845,1,3,-12,-8,-4,-4,-1,3
1558438504140806,0,-1,6,8,0,-6,-3,1
1558438504140806,1,-1,-10,-4,-2,7,1,-1
1558438504146793,0,0,-8,-9,-10,-5,-6,-4
1558438504146793,-3,-3,4,14,11,5,0,1
1558438504162042,-2,-2,7,10,-3,-11,5,-1
1558438504162042,0,5,1,-5,2,1,-2,2
1558438504170009,1,-5,-8,-5,-4,0,1,0
1558438504170009,-2,1,-5,-11,-11,-4,-8,-4
1558438504185705,-4,4,1,0,3,7,6,1
1558438504185705,-2,-3,12,8,3,-3,-1,1
1558438504185705,-1,-6,-5,-7,3,4,5,-2
1558438504185705,1,0,1,5,-2,-6,-14,-6
1558438504200765,-4,-1,-19,-32,-3,2,7,3
1558438504200765,1,5,13,12,8,4,-7,-2
1558438504206796,-5,-6,-12,-11,-7,-8,-5,-3
1558438504206796,3,2,-1,-1,0,1,5,1
1558438504222587,-1,-2,3,8,-1,-2,-4,-3
1558438504222587,-1,-1,-10,-4,-7,-2,-1,-2
1558438504229569,8,0,9,8,4,-2,-3,5
1558438504229569,-8,3,-1,-5,-1,1,-3,-3
1558438504244558,-1,-4,-9,-11,6,8,1,-4
1558438504244558,-1,-3,7,15,-5,-9,-2,-1
1558438504245525,-1,-1,-2,-10,2,8,4,2
1558438504245525,2,-1,0,0,1,-2,1,0
1558438504260484,-1,-1,2,-2,-5,-4,-4,0
1558438504260484,-2,-1,1,-1,2,5,-7,-5
1558438504266497,0,-4,-3,-6,-4,-5,-4,-8
1558438504266497,-4,-3,8,15,6,3,3,-1
1558438504281844,-2,-2,-9,-10,-4,0,-2,-3
1558438504281844,6,13,6,1,4,4,1,4
1558438504289650,-11,-14,-2,10,1,0,3,-1
1558438504289650,2,-3,-1,-19,-6,-5,2,3
1558438504305871,-1,-3,-8,5,-3,-5,-7,-3
1558438504305871,1,-1,-7,-10,-6,-4,-1,-1
1558438504305871,1,2,7,4,2,5,0,0
1558438504305871,-1,3,2,8,3,1,-1,-3
1558438504320889,4,1,1,-12,-5,-5,-2,1
1558438504320889,-9,-10,-7,-1,4,-1,2,-5
1558438504326556,1,1,-1,-2,-3,-5,-1,-2
1558438504326556,-2,-4,-5,-5,-6,0,-4,-4
1558438504341512,1,4,9,9,0,-3,-3,-2
1558438504341512,0,4,-3,-1,6,9,5,0
1558438504349492,-2,2,7,8,1,-1,-3,-2
1558438504349492,1,-6,-4,0,2,-3,-7,1
1558438504365630,-2,-8,2,-2,3,8,4,-1
1558438504365630,-3,3,-1,-3,-6,-4,2,2
1558438504365630,0,-1,-3,-10,-10,-15,-7,-1
1558438504365630,2,3,-1,0,8,13,9,5
1558438504380698,3,1,1,5,-1,-5,-4,0
1558438504380698,1,-3,1,-3,1,0,1,-2
1558438504386446,2,-1,-4,-6,-4,0,-3,-2
1558438504386446,-7,-3,0,1,1,-2,0,-4
1558438504402375,2,-1,3,-4,3,-1,-2,-2
1558438504402375,-2,-3,-7,-2,-2,-2,1,0
1558438504409332,-1,1,-3,-3,-3,-4,4,0
1558438504409332,-1,-2,-1,-6,-15,-14,-4,-2
1558438504425288,-1,3,-2,8,8,-4,-1,1
1558438504425288,4,0,10,-4,-6,-11,-3,-1
1558438504425288,-1,-2,-9,0,4,12,6,2
1558438504425288,-2,8,3,-2,-1,2,-4,-3
1558438504440553,-4,-3,-7,-8,-8,-8,2,-1
1558438504440553,-5,-7,-5,-4,-4,-4,-8,-4
1558438504446261,-5,-9,5,4,0,-2,-8,-1
1558438504446261,6,4,5,7,0,4,8,4
1558438504462509,-1,-4,-17,-18,-5,0,-2,-1
1558438504462509,1,0,1,4,-1,0,-6,-2
1558438504469470,-1,3,-3,-5,-4,-4,-7,-2
1558438504469470,-1,-3,2,8,4,-1,2,0
1558438504485363,0,2,-3,-4,0,5,2,-1
1558438504485363,3,2,10,10,4,1,6,4
1558438504486299,-3,-3,-22,-8,-12,-5,-11,-7
1558438504486299,1,-2,-4,2,-6,-7,-5,-2
1558438504516335,-2,-4,-7,-4,5,16,12,1
1558438504516335,3,2,-3,-7,-6,-7,-12,-5
1558438504516335,-16,-2,14,22,12,-2,4,0
1558438504516335,-1,0,2,-7,0,-2,2,1
1558438504522352,-6,-2,1,4,-7,-3,-14,-7
1558438504522352,-2,-2,-3,-1,-3,0,-2,-3
1558438504530012,6,1,1,2,3,5,-2,-3
1558438504530012,-6,-8,-15,-18,-4,-5,-4,-3
1558438504544970,2,2,12,4,6,2,1,1
1558438504544970,-3,-4,-5,2,-7,1,2,0
1558438504545966,5,4,-2,-6,-3,-7,-5,-1
1558438504545966,-4,2,0,4,9,13,7,0
1558438504560926,0,-3,-1,0,-8,-8,-2,-1
1558438504560926,-3,-2,-4,-4,2,-1,-2,-3
1558438504567219,-4,-7,2,-3,-4,-4,-5,-5
1558438504567219,4,4,13,5,-1,-6,-1,1
1558438504581870,-1,-7,-17,7,1,2,-1,0
1558438504581870,-1,4,-1,-2,0,4,1,0
1558438504588878,-1,-4,-8,-14,-5,-4,5,4
1558438504588878,-3,-4,-6,-3,-4,-1,-8,-5
1558438504605805,-4,-2,11,6,-6,-9,-6,-4
1558438504605805,2,-2,-3,3,6,-1,3,4
1558438504605805,5,3,6,3,6,3,2,3
1558438504605805,1,-2,-8,-6,2,-1,4,0
1558438504620764,0,2,3,-4,-6,-4,-2,0
1558438504620764,-5,-9,-8,-5,-4,-3,-1,-4
1558438504626748,5,4,13,11,6,2,5,1
1558438504626748,-4,-5,-11,-10,-3,2,-1,-3
1558438504641709,-1,0,0,1,1,-2,-6,-2
1558438504641709,0,1,1,0,0,3,4,2
1558438504649750,-1,-2,-1,-3,-2,-7,-3,2
1558438504649750,5,7,-4,-4,3,3,2,1
1558438504664693,-8,-9,-3,-7,-2,-2,4,-4
1558438504664693,-4,-2,2,2,3,2,-1,-1
1558438504665645,1,-2,-2,-1,-4,-3,2,0
1558438504665645,-3,-5,-5,-1,-5,-3,-9,-5
1558438504680748,2,6,3,3,2,1,0,2
1558438504680748,2,2,7,0,3,3,-2,-1
1558438504687600,0,1,-6,0,10,12,4,-1
1558438504687600,1,2,4,4,-2,-8,-5,0
1558438504702591,-2,-6,-5,-4,-11,-8,-1,-4
1558438504702591,0,0,2,5,10,2,-1,1
1558438504709527,-1,0,-6,-5,-7,-3,1,-3
1558438504709527,2,1,14,15,0,0,-1,1
1558438504724705,-8,-7,-22,-28,-9,-3,-4,-5
1558438504724705,-1,-1,-2,-4,-5,-3,-3,-3
1558438504725485,-2,-2,0,-1,-6,-3,-9,-3
1558438504725485,-2,-3,-6,-3,-2,-1,-4,-1
1558438504740817,5,2,8,11,2,0,3,5
1558438504740817,3,5,-1,-5,0,6,3,0
1558438504746788,-4,-4,-4,-1,-7,-8,-4,-3
1558438504746788,-5,-12,-4,-4,-2,-1,-5,-4
1558438504762655,-3,1,-1,-4,4,3,1,0
1558438504762655,-2,-4,-9,-16,1,-7,3,0
1558438504769158,2,1,1,5,3,1,-2,1
1558438504769158,1,4,7,1,-1,-4,4,0
1558438504785099,1,3,5,1,-4,-3,-2,-2
1558438504785099,0,-2,-5,2,0,4,0,0
1558438504785740,-4,-1,3,2,-1,1,-3,-3
1558438504785740,-2,-2,-6,-7,-4,-10,5,3
1558438504808026,-7,-5,0,3,3,4,4,-1
1558438504808026,2,1,8,6,1,0,-8,-1
1558438504808026,1,-3,-11,-7,5,4,5,4
1558438504808026,-5,1,5,8,0,0,-4,-4
1558438504822642,5,2,0,2,-3,-5,-4,0
1558438504822642,-2,3,16,17,3,1,5,-1
1558438504829980,-1,-13,-28,-31,-11,-4,0,-5
1558438504829980,-10,-5,-8,3,-3,-3,-6,-7
1558438504844582,2,2,0,2,-2,1,2,2
1558438504844582,-3,2,0,3,-6,-7,-2,-3
1558438504845580,0,3,7,0,15,5,3,2
1558438504845580,0,-9,-17,-9,-1,3,-1,0
1558438504860688,0,0,4,3,4,0,-9,-1
1558438504860688,-3,-6,-15,-10,-11,-4,3,2
1558438504867536,0,7,11,8,-1,1,-1,-3
1558438504867536,-1,-8,-1,-6,-3,0,-2,-4
1558438504882574,0,2,0,-1,7,-1,2,-1
1558438504882574,-1,1,-10,-9,-1,-2,-3,-3
1558438504889803,2,1,8,7,-1,-3,-1,-1
1558438504889803,3,3,1,-3,-1,-5,-7,-1
1558438504912442,-1,0,6,3,2,8,5,-1
1558438504912442,-2,-4,-7,-4,-4,2,-2,-3
1558438504913398,-3,-2,4,6,1,-5,4,2
1558438504913398,1,3,-4,-7,0,-1,9,2
1558438504920380,-2,-6,0,0,2,-3,-1,1
1558438504920380,-1,-3,-7,-9,3,5,0,-1
1558438504927652,-2,0,7,13,2,6,0,-3
1558438504927652,0,0,8,3,-2,-2,-9,-2
1558438504941363,-1,1,-9,-6,-10,-3,1,1
1558438504941363,-2,-1,4,0,-5,-4,-4,0
1558438504949754,3,0,-2,4,3,-1,-3,-1
1558438504949754,-7,1,3,-2,3,0,3,-2
1558438504964863,-3,-5,-15,-16,-5,-5,-4,-4
1558438504964863,-2,-4,2,3,-1,0,2,-2
1558438504965712,-3,0,-3,-5,-10,-7,-9,-3
1558438504965712,0,-6,-9,-5,7,12,8,1
1558438504980739,0,1,0,11,3,-1,-2,1
1558438504980739,-2,-3,-16,-13,-9,-4,-2,-2
1558438504987654,0,1,3,-5,-5,-9,-8,-4
1558438504987654,1,-3,-9,0,-3,3,3,-1
1558438505001958,1,3,12,8,3,5,1,1
1558438505001958,-2,-1,-4,8,2,-5,4,0
1558438505009595,-3,0,2,-12,0,1,2,-2
1558438505009595,7,5,0,5,-4,2,-7,1
1558438505024611,-7,-1,-6,-8,-1,-6,7,0
1558438505024611,-2,-2,3,4,1,1,-4,-2
1558438505025552,-4,3,0,2,-3,-4,-4,-3
1558438505025552,-2,-4,-3,-1,3,0,4,0
1558438505040741,9,5,7,1,10,10,7,2
1558438505040741,-1,4,1,3,-1,-2,-5,-2
1558438505046653,-3,-8,-8,-7,-9,3,-1,-2
1558438505046653,-1,1,11,7,-6,-6,-6,0
1558438505062454,2,-1,-3,-5,1,1,-6,-1
1558438505062454,2,4,6,3,0,-3,3,1
1558438505069696,3,-3,-3,0,1,1,3,3
1558438505069696,-1,0,2,-6,-6,-7,-5,-1
1558438505084397,-3,-3,-6,-4,-5,-3,-7,-4
1558438505084397,-5,-8,-12,-9,-6,-4,-11,-9
1558438505091380,-1,0,2,8,2,3,17,5
1558438505091380,0,2,-1,-7,4,-1,2,-1
1558438505100627,-1,0,2,-2,3,8,0,-1
1558438505100627,0,-11,-8,-8,-4,-6,-1,-1
1558438505106336,-2,3,-6,-6,-3,-7,-7,-2
1558438505106336,-2,4,11,0,-1,-1,-6,-2
1558438505122453,-3,-3,-9,3,-7,-3,0,-5
1558438505122453,1,5,1,-2,-4,-5,-6,-1
1558438505129274,2,-1,2,2,1,2,2,1
1558438505129274,1,1,1,-1,0,-5,0,1
1558438505144235,-2,-7,-3,0,0,-1,-6,-4
1558438505144235,2,-1,1,-1,-4,-2,-4,1
1558438505152214,-2,-6,-7,-2,7,12,13,4
1558438505152214,-8,1,10,10,1,-2,-1,-3
1558438505160227,0,0,-14,-19,-8,-4,-6,0
1558438505160227,2,2,11,2,7,-3,3,3
1558438505166210,0,-2,-11,-5,-2,0,-7,-4
1558438505166210,2,-5,-7,-3,0,8,3,1
1558438505182599,-2,1,17,8,0,-6,5,-1
1558438505182599,-2,2,0,-1,-4,6,3,2
1558438505189544,-1,-5,2,0,1,2,-2,0
1558438505189544,-2,-1,-5,1,-3,-8,-10,-4
1558438505204496,4,4,-2,3,-1,3,2,3
1558438505204496,-2,-1,-1,-5,5,0,0,0
1558438505212524,-1,-1,8,14,3,-5,-8,-4
1558438505212524,-2,-4,-13,-18,-8,-2,-5,-5
1558438505221065,-2,-2,6,6,-2,-3,-5,0
1558438505221065,2,4,3,-8,5,3,-6,-2
1558438505227012,-1,1,-7,-2,-9,-2,5,2
1558438505227012,-6,-12,-13,-13,-2,1,-5,-1
1558438505241972,2,4,-4,0,6,5,1,-1
1558438505241972,-2,-2,-1,-2,-9,-4,-2,0
1558438505249161,-6,-10,-1,-4,4,2,-5,-3
1558438505249161,4,4,2,4,2,-5,-2,-2
1558438505264143,3,0,5,3,-2,6,4,1
1558438505264143,-7,0,7,18,5,-8,-1,-4
1558438505272156,-2,-5,-24,-34,-13,-5,-14,-4
1558438505272156,3,4,9,9,2,3,14,4
1558438505288108,-5,0,-3,-2,2,0,2,-3
1558438505288108,-2,-10,-5,3,-1,-10,-2,-5
1558438505288108,0,3,7,6,3,5,0,0
1558438505288108,-2,-2,-3,-4,-8,-5,-1,-1
1558438505302053,0,-6,-2,0,-6,-8,-10,-5
1558438505302053,3,5,-2,0,6,9,11,6
1558438505308795,-2,0,13,13,2,-6,0,0
1558438505308795,-2,-4,-6,-6,-1,4,-9,-4
1558438505323754,-5,-8,-10,-5,-6,-4,0,0
1558438505323754,1,-1,-13,-13,-9,-3,-7,-4
1558438505331734,0,7,2,5,4,-1,-2,0
1558438505331734,0,-1,0,6,1,2,6,-1
1558438505347689,-4,0,0,-3,-5,-4,-1,-3
1558438505347689,1,-7,-4,-4,-2,-1,2,1
1558438505347689,3,5,5,-1,7,2,2,1
1558438505347689,1,4,12,5,7,1,3,0
1558438505363129,0,-1,2,12,-2,-3,-2,-2
1558438505363129,-2,-4,-16,-9,-10,-5,-10,-5
1558438505370116,1,-1,7,-2,-1,-1,-2,-1
1558438505370116,-1,-3,-14,-7,-5,-1,-4,-1
1558438505384931,0,-2,9,6,6,2,-6,0
1558438505384931,2,5,14,10,3,1,7,3
1558438505391573,2,-9,-13,-6,-6,-5,6,2
1558438505391573,-7,-5,1,2,-3,-7,0,-3
1558438505409190,0,1,13,5,2,1,-3,-3
1558438505409190,-8,-8,-27,-16,-12,2,-9,-8
1558438505409190,0,0,1,4,4,1,0,1
1558438505409190,4,2,2,5,-1,1,-1,4
1558438505423489,0,0,1,-7,-6,-3,1,-2
1558438505423489,1,-2,2,0,1,4,10,1
1558438505429790,1,1,7,7,10,8,3,1
1558438505429790,-1,-2,-2,4,-4,-10,-5,-3
1558438505444745,-3,-8,-11,-9,-3,0,-3,-1
1558438505444745,2,0,4,-1,0,3,-3,-2
1558438505451412,-1,5,-4,-4,-6,-9,-2,-2
1558438505451412,-5,-3,1,2,1,1,-7,-4
1558438505467676,-1,-1,6,3,4,-1,1,5
1558438505467676,-4,-5,-5,8,0,0,9,3
1558438505468372,-1,-5,-4,-8,-1,-4,-4,-1
1558438505468372,1,4,-5,-19,-3,3,0,-1
1558438505483331,5,3,-2,-1,0,-5,1,-1
1558438505483331,-8,0,5,6,4,2,-3,-5
1558438505489637,4,-5,1,-4,-8,-8,-1,-2
1558438505489637,-13,-9,-11,1,-1,-1,-2,-5
1558438505504577,1,-2,-5,-5,3,3,11,2
1558438505504577,0,2,2,-9,-2,-5,-9,-4
1558438505512571,-5,-2,11,20,2,1,0,0
1558438505512571,2,-4,-14,-17,-5,-7,-6,-2
1558438505527210,1,3,-5,-3,-6,-4,-5,-1
1558438505527210,3,0,7,-2,-1,4,1,2
1558438505528210,-4,-5,-9,-1,1,-2,1,-1
1558438505528210,4,0,20,23,13,4,7,6
1558438505543167,-3,-1,-18,-10,-7,-2,2,0
1558438505543167,3,3,9,2,1,0,-2,-1
1558438505549365,-5,-4,-17,-25,-10,-1,-10,-3
1558438505549365,1,1,6,6,-6,-2,8,-1
1558438505564112,-2,0,-1,1,2,4,-4,-5
1558438505564112,4,-2,3,8,15,6,2,5
1558438505572571,-10,-4,-4,-1,-9,-9,-4,-7
1558438505572571,2,2,-2,-12,-4,-6,-4,-3
1558438505588306,0,-2,8,6,6,2,3,3
1558438505588306,0,-2,-6,-4,2,6,9,2
1558438505588306,1,3,3,2,2,2,-6,-5
1558438505588306,1,5,-3,-5,-6,3,3,1
1558438505609988,1,-2,6,2,-5,-6,-13,-3
1558438505609988,-3,-4,-17,-11,-6,-11,2,0
1558438505610987,-5,-9,1,1,1,3,2,0
1558438505610987,1,0,-4,5,-1,-3,-6,2
1558438505624380,-3,0,5,-1,1,-4,-3,-3
1558438505624380,-1,6,3,-2,-4,0,-11,-6
1558438505632373,3,1,2,0,-4,-4,-3,-2
1558438505632373,0,3,0,-4,5,0,5,3
1558438505646889,-4,-2,-6,1,0,-7,6,-1
1558438505646889,0,-5,1,-1,-8,-9,-10,-2
1558438505647886,4,3,-2,-2,2,7,6,5
1558438505647886,2,0,3,4,2,4,-3,-1
1558438505662847,-3,0,-1,2,1,2,2,-1
1558438505662847,-3,0,-3,-6,2,6,3,1
1558438505668831,1,-1,-2,0,-6,-6,-3,-2
1558438505668831,-3,1,-3,1,3,6,-3,-2
1558438505683790,-1,-9,-10,-8,-6,-13,-3,-2
1558438505683790,0,2,4,4,2,0,-1,2
1558438505691769,2,-4,-5,-1,1,0,2,0
1558438505691769,-1,-4,4,9,1,2,0,-2
1558438505707770,-4,2,-10,-21,-8,-2,-5,-3
1558438505707770,-1,-8,0,1,-2,-3,-2,0
1558438505707770,-1,4,4,-4,-4,-4,-6,-3
1558438505707770,-3,-6,-4,7,5,3,4,0
1558438505722957,-2,-2,-4,3,-2,0,0,1
1558438505722957,4,5,4,-3,7,12,4,2
1558438505729670,-2,-4,-3,-5,-3,-3,0,3
1558438505729670,-1,-3,-12,-5,-4,-7,-4,-2
1558438505744963,1,-1,4,4,5,-5,1,1
1558438505744963,-2,1,1,-1,-3,-5,-3,-3
1558438505751906,-1,1,-1,0,-2,-2,-3,-2
1558438505751906,2,0,5,-4,-2,0,0,2
1558438505767567,-5,-2,-8,-14,-6,-1,-9,-3
1558438505767567,-1,1,3,9,2,-3,7,3
1558438505768564,1,2,2,2,6,3,6,3
1558438505768564,0,0,-4,-4,-2,-9,-1,2
1558438505783748,0,-7,0,4,0,6,-5,-2
1558438505783748,2,-2,-2,-3,-3,0,-3,-2
1558438505789831,-7,-4,-3,-3,-2,2,-2,-3
1558438505789831,-4,2,0,2,-10,-12,-14,-8
1558438505804781,2,3,-1,1,12,12,13,5
1558438505804781,2,0,1,4,3,-3,8,1
1558438505811751,1,1,1,1,2,2,0,1
1558438505811751,0,-2,0,-5,-5,2,-4,-3
1558438505835607,-1,4,6,4,-1,-9,-3,-2
1558438505835607,-6,-6,4,20,1,-5,-5,-7
1558438505835607,1,0,-15,-29,-5,-3,-2,-1
1558438505835607,-2,-4,-6,-4,-2,-2,2,0
1558438505843364,0,0,3,0,0,3,2,1
1558438505843364,0,2,-1,5,-1,-4,-1,1
1558438505849817,-2,-3,6,10,-5,-10,-9,-5
1558438505849817,0,-4,-3,-9,1,6,1,0
1558438505864309,-1,1,4,1,-3,1,-7,-3
1558438505864309,0,0,-7,-8,-1,1,3,2
1558438505871780,2,-1,0,4,6,9,6,3
1558438505871780,1,-2,-2,-5,2,1,4,2
1558438505887628,1,-3,-1,3,-1,-3,2,1
1558438505887628,-4,-3,-1,-8,-9,-10,-12,-3
1558438505888245,0,-2,-3,-4,-2,1,-7,-3
1558438505888245,-1,-3,1,7,2,1,5,2
1558438505903205,2,-1,-1,0,-6,-6,-2,-4
1558438505903205,-4,-3,-6,-17,-8,-3,-2,-2
1558438505909190,6,6,5,15,16,7,11,3
1558438505909190,-3,-3,6,2,-4,-12,-6,-4
1558438505924467,-3,-4,-7,-4,-2,3,-2,-2
1558438505924467,1,-1,-7,-11,-6,0,-6,-3
1558438505932127,-2,-4,-5,0,-1,1,4,0
1558438505932127,-2,-1,4,2,2,1,-2,-1
1558438505947423,2,-3,-9,-7,-4,-2,-1,-2
1558438505947423,-1,3,14,15,4,-5,0,1
1558438505948086,-4,-3,-6,-15,-9,-6,-7,-5
1558438505948086,2,-1,-2,3,5,5,1,3
1558438505963267,0,2,6,1,1,-4,-2,2
1558438505963267,-3,0,-4,-4,-4,-2,-6,-3
1558438505969349,1,2,7,13,2,-2,6,5
1558438505969349,-4,-3,-5,-10,3,2,-1,-2
1558438505984327,-4,-4,-2,-4,-5,1,1,0
1558438505984327,0,-1,1,-1,-5,-3,-1,-4
1558438505991970,-2,-3,-13,-6,-6,1,-4,-4
1558438505991970,1,2,12,16,7,-3,5,0
1558438506007262,0,-2,-3,-11,-10,-11,-5,-1
1558438506007262,-3,-5,-19,-8,6,16,7,3
1558438506015084,-1,-1,7,-2,-5,-1,2,-3
1558438506015084,3,8,0,0,2,1,0,2
1558438506023221,-5,-8,6,8,4,-1,-3,-2
1558438506023221,-2,-6,-14,-7,-3,-5,0,1
1558438506029907,-2,-1,0,-1,-4,-5,-5,1
1558438506029907,3,1,-5,-4,-8,-8,-7,-2
1558438506045047,-7,3,3,5,-4,-3,0,-3
1558438506045047,2,2,17,7,6,4,6,-2
1558438506052117,-5,-6,-14,-6,1,1,-1,-2
1558438506052117,2,1,-1,-6,-5,2,3,0
1558438506067093,-1,-1,1,0,3,-3,3,1
1558438506067093,-3,-1,1,0,-1,1,-5,-2
1558438506074083,0,1,3,6,-1,-8,-3,-1
1558438506074083,-4,-3,-5,-8,-12,-3,1,-1
1558438506090003,0,-1,-3,0,4,2,-2,1
1558438506090003,3,2,3,-3,10,12,3,0
1558438506090704,2,1,6,1,-2,-5,-6,0
1558438506090704,-1,-1,-5,-3,-6,-6,0,2
1558438506104943,2,0,0,1,4,9,6,2
1558438506104943,0,-3,5,5,-5,-17,-8,-6
1558438506111931,-3,-3,-9,-7,-8,-5,-15,-6
1558438506111931,-1,-1,1,4,9,16,8,-2
1558438506127605,2,1,2,2,1,-3,2,1
1558438506127605,-2,1,-7,-7,-3,4,3,0
1558438506134586,-1,-3,1,0,-2,-5,3,-3
1558438506134586,-3,-2,-2,-1,-2,0,-6,-3
1558438506143565,1,3,4,3,0,5,-4,-1
1558438506143565,-6,-7,-4,-8,1,9,-5,-1
1558438506149849,-3,2,4,4,2,-2,2,1
1558438506149849,0,-2,9,1,1,-4,-12,-1
1558438506164809,3,-5,-5,-5,-5,1,-4,-3
1558438506164809,-4,-3,-7,-3,-4,-9,3,-2
1558438506171516,-1,1,6,3,7,4,14,4
1558438506171516,1,2,-1,0,5,4,-2,2
1558438506186448,-2,1,4,9,1,-5,-2,-1
1558438506186448,1,0,-2,-2,-4,-6,-4,-3
1558438506194928,0,-4,-10,-10,-8,-4,-3,2
1558438506194928,-2,0,5,3,2,3,-2,-6
1558438506210426,-4,0,-4,-1,-2,3,-4,-4
1558438506210426,-2,-9,-5,-4,-3,-4,-1,0
1558438506211566,2,3,10,6,5,5,6,1
1558438506211566,-8,-10,-24,-15,-10,-5,-3,-5
1558438506224667,-2,-5,-2,-2,-4,-6,0,0
1558438506224667,1,2,6,3,2,1,-1,0
1558438506231781,-1,-2,-1,1,-4,0,-9,-4
1558438506231781,-2,3,6,10,1,1,3,0
1558438506247627,-4,0,-22,-21,-4,-2,-2,-1
1558438506247627,3,6,3,5,1,2,4,1
1558438506254697,3,-10,-5,-6,-4,-4,-10,-5
1558438506254697,-3,-1,5,6,-1,-10,-8,-1
1558438506270652,0,0,2,-2,7,7,9,2
1558438506270652,-2,-3,-6,-6,0,3,-9,-1
1558438506270652,0,7,4,1,-2,3,3,0
1558438506270652,0,-2,-6,-7,-1,-5,-2,-1
1558438506284535,-5,-5,4,6,-5,-4,-1,-1
1558438506284535,1,1,0,-2,4,11,8,2
1558438506291167,1,2,2,0,-1,-4,0,2
1558438506291167,8,0,7,0,-3,-2,3,3
1558438506307429,-12,-1,-6,-6,-1,-6,-8,-6
1558438506307429,-4,-1,-5,0,0,2,0,-4
1558438506314185,-2,-4,0,2,-3,-6,-4,0
1558438506314185,1,-1,-8,-6,-2,-3,6,-2
1558438506330296,4,0,1,3,3,5,3,1
1558438506330296,-2,5,2,3,1,-7,-6,-2
1558438506331062,-4,-3,-5,-6,4,1,3,2
1558438506331062,-6,-8,-14,-9,-7,-7,-2,-3
1558438506346029,5,5,15,8,3,4,3,0
1558438506346029,0,5,-5,-3,0,-5,-1,-1
1558438506352259,-2,0,1,3,4,-2,1,-3
1558438506352259,-2,0,1,0,-2,7,-2,0
1558438506366997,-2,-4,-4,-1,-6,-9,-6,-1
1558438506366997,6,0,5,0,0,4,1,4
1558438506373949,-2,0,6,6,0,-1,4,-2
1558438506373949,-3,-1,-8,1,-1,-5,-6,-5
1558438506391237,3,1,4,3,7,8,2,0
1558438506391237,-6,-7,-8,-5,-12,-4,-2,-5
1558438506391897,-1,2,-1,-4,-1,1,-7,-6
1558438506391897,0,2,-2,-4,-2,-1,-1,1
1558438506412511,0,-7,-3,-3,-7,-8,-3,-3
1558438506412511,-5,-5,6,6,-2,-10,-3,-2
1558438506414049,-1,-4,-11,-4,-3,-1,-5,-2
1558438506414049,1,1,9,14,4,4,0,0
1558438506427559,1,-3,-5,-22,4,5,6,4
1558438506427559,0,0,-2,-4,2,-3,-3,-1
1558438506434653,-1,-2,-1,6,-10,-4,-4,-2
1558438506434653,5,3,-1,-18,-3,2,2,1
1558438506450198,-10,-4,-3,6,-5,-3,-6,-5
1558438506450198,-3,-3,-3,0,-2,1,4,-3
1558438506450198,2,-2,-3,-5,7,6,6,-1
1558438506450198,5,7,15,15,5,-12,-1,2
1558438506464491,-4,-2,-3,-3,-9,-7,-5,-4
1558438506464491,0,-3,-1,-5,1,3,1,2
1558438506472144,-5,-3,-13,-6,-8,0,-15,-5
1558438506472144,3,2,1,3,1,4,3,2
1558438506488234,0,-1,-4,-1,-3,-5,3,0
1558438506488234,-2,-4,10,12,0,-1,-4,-2
1558438506494409,-2,-10,-14,-9,-2,-5,2,-3
1558438506494409,-5,-5,-5,-15,-1,1,-3,-1
1558438506510363,2,-1,-2,-1,-1,-1,-4,0
1558438506510363,-2,1,4,5,-2,-5,0,-1
1558438506511261,-1,5,6,2,3,2,5,3
1558438506511261,-4,-4,-4,-6,-5,-6,-3,-6
1558438506524315,-2,-1,-3,8,-3,-1,-8,-1
1558438506524315,0,-3,-7,-13,-6,1,0,-3
1558438506532090,-3,5,6,-1,3,-4,2,2
1558438506532090,-3,-3,-6,-7,-6,2,5,1
1558438506547252,3,0,-1,4,0,-4,3,-2
1558438506547252,5,7,6,11,10,8,5,5
1558438506554919,1,1,-8,-18,-8,-6,-3,-1
1558438506554919,-9,-7,-2,-1,1,6,-1,-4
1558438506569876,4,0,-1,0,-2,0,1,2
1558438506569876,2,3,3,4,6,-10,3,2
1558438506570875,1,6,6,9,-3,-11,6,3
1558438506570875,0,-7,-7,-9,3,9,-1,-2
1558438506583840,-2,-1,-1,-3,-1,2,-4,-3
1558438506583840,-2,-2,-3,-5,-5,-4,-9,-1
1558438506591818,-2,0,6,3,-5,-3,-5,-5
1558438506591818,-1,-1,-1,-1,-4,-2,-5,-3
1558438506607222,1,1,3,0,0,-8,3,2
1558438506607222,-1,1,-9,-15,-7,-4,-8,-2
1558438506614206,-2,-1,9,10,9,-2,3,1
1558438506614206,-4,-3,-5,4,-5,-6,-6,-3
1558438506630188,-1,-1,-4,-4,0,6,-2,-2
1558438506630188,-1,-4,-5,-4,-10,-10,-7,-4
1558438506630717,2,-1,-1,4,-3,3,-1,-2
1558438506630717,0,3,7,9,4,2,-1,-2
1558438506645007,-2,-6,-3,-5,9,7,3,3
1558438506645007,-1,-2,6,5,-2,-2,7,1
1558438506652099,-2,-3,-16,-15,-3,2,-4,-2
1558438506652099,3,4,1,14,3,-10,6,4
1558438506667037,-2,-5,-3,-5,-12,-8,-6,-2
1558438506667037,-3,1,9,3,6,8,6,-1
1558438506674597,-3,-7,-11,-6,-2,1,-1,0
1558438506674597,0,2,4,3,-6,-1,-6,-1
1558438506689558,4,5,3,3,7,4,5,2
1558438506689558,-6,-2,-3,-4,-1,-2,-1,1
1558438506690555,2,3,10,7,7,7,-2,1
1558438506690555,-4,-8,-8,-8,-4,0,-7,-3
1558438506704518,1,4,-1,-1,-5,-4,0,0
1558438506704518,1,-3,-1,3,3,2,-1,-1
1558438506711499,-2,-3,1,-5,0,5,2,-2
1558438506711499,2,-2,-12,-14,-5,-3,3,4
1558438506726460,-2,1,8,3,1,0,3,-3
1558438506726460,-1,1,-5,0,-3,0,-4,-2
1558438506734437,-1,-4,4,2,1,-1,-5,-1
1558438506734437,2,7,6,1,7,4,9,2
1558438506749396,-5,-7,-9,-1,-6,-3,-3,-1
1558438506749396,-4,-4,-16,-17,-8,-6,0,0
1558438506750394,1,-2,-3,-7,-3,0,0,-1
1558438506750394,-1,0,11,15,7,6,-3,-1
1558438506764357,5,5,6,-4,4,-3,2,0
1558438506764357,-4,-5,-14,-3,-7,0,-5,-2
1558438506772633,0,5,6,-4,-4,-7,-1,0
1558438506772633,1,-8,-7,-5,-11,-14,-12,-7
1558438506786299,-5,0,7,12,19,20,7,1
1558438506786299,8,2,4,1,7,3,3,5
1558438506794277,-12,-6,1,2,-2,-2,-6,-5
1558438506794277,-2,0,-7,-11,-9,-8,-4,-3
1558438506810549,-1,-1,-3,-4,-8,-4,-5,-2
1558438506810549,0,-2,9,2,0,-7,1,-1
1558438506810549,2,1,-7,0,3,4,5,1
1558438506810549,-2,7,16,11,1,-2,2,-5
1558438506824408,-5,-11,-20,-21,-10,-6,-13,-4
1558438506824408,1,1,-7,-1,1,-1,6,4
1558438506832393,3,-1,1,9,3,-4,-6,2
1558438506832393,-2,-4,1,-3,1,4,9,4
1558438506847476,-5,-3,-6,-2,-7,-3,-4,-5
1558438506847476,-2,1,2,-3,-4,-8,-6,-5
1558438506854437,0,0,-1,4,0,2,-1,0
1558438506854437,-1,1,3,-5,9,2,1,2
1558438506870392,1,6,6,6,-12,-10,-9,-1
1558438506870392,-6,-12,-10,-12,-8,0,-1,-3
1558438506871306,6,2,3,4,8,8,11,3
1558438506871306,-6,-3,-2,-6,-9,-7,-7,-4
1558438506884372,1,-6,-17,-6,1,-5,0,-1
1558438506884372,-3,0,4,9,-3,-2,-8,-5
1558438506892018,0,-1,3,-5,-4,-6,2,1
1558438506892018,2,-3,-4,-3,6,9,9,6
1558438506907313,2,8,13,5,4,-6,-3,0
1558438506907313,-2,-3,5,7,0,3,1,-1
1558438506914290,-6,-6,-19,-14,-12,-10,-7,-4
1558438506914290,0,0,1,10,1,-2,-3,-2
1558438506929918,0,-1,3,-1,4,6,3,3
1558438506929918,1,0,-7,-6,-2,-1,-3,1
1558438506938224,0,-1,3,2,1,-1,-5,-2
1558438506938224,-1,-5,-14,-11,-11,-3,1,-1
1558438506944883,0,2,0,-3,-3,-1,1,-1
1558438506944883,3,3,7,5,8,4,5,3
1558438506952205,-1,1,-2,1,-2,-2,-5,-3
1558438506952205,0,10,3,3,1,-4,0,2
1558438506967153,-2,-11,-3,-6,2,1,1,0
1558438506967153,-2,-1,-3,-6,-7,-2,-2,-3
1558438506973827,-1,-4,-3,-1,-2,-4,-2,-1
1558438506973827,2,0,0,6,7,11,1,0
1558438506990024,-2,5,19,4,2,-2,-2,-2
1558438506990024,0,-1,-11,2,-1,3,-1,-2
1558438507006023,-2,1,-9,-10,-5,-7,-5,-5
1558438507006023,-4,-8,-8,-15,-6,-6,-4,0
1558438507006981,-2,-3,-3,-2,-6,0,-3,-3
1558438507006981,3,4,6,1,2,5,3,2
1558438507012025,-1,-7,6,10,2,6,4,-1
1558438507012025,-3,-5,-10,-10,-4,-2,-4,-4
1558438507026656,2,0,-5,-2,1,0,1,-2
1558438507026656,-1,1,6,0,-1,3,-3,-4
1558438507034635,-2,2,12,10,1,-3,1,3
1558438507034635,-1,-5,-18,-10,-2,-2,-3,-2
1558438507049593,3,-3,-4,-6,-6,-4,-2,-3
1558438507049593,0,3,2,6,8,3,5,2
1558438507057571,2,4,5,1,-2,-6,2,1
1558438507057571,-3,-7,-1,-7,-4,-5,-10,-3
1558438507064554,-5,-9,0,6,5,8,1,0
1558438507064554,0,1,-2,-1,1,1,1,-1
1558438507071568,-4,-2,-4,2,3,12,6,0
1558438507071568,5,1,13,4,-2,-5,-5,-2
1558438507086915,-6,1,-9,-4,-3,-4,0,-3
1558438507086915,-3,-2,8,3,-10,-12,-13,-7
1558438507094476,-2,-4,-12,-10,0,-3,3,2
1558438507094476,-1,2,-5,1,4,6,3,0
1558438507109468,4,5,6,6,1,-4,1,3
1558438507109468,-6,-6,3,6,-1,-2,-5,-3
1558438507117859,-3,-4,-21,-33,-19,-13,-6,-6
1558438507117859,-2,-1,5,9,6,2,5,0
1558438507132377,1,1,-3,-3,-7,-1,1,0
1558438507132377,1,4,0,-3,0,1,3,2
1558438507133371,3,3,7,10,5,3,1,2
1558438507133371,-2,-6,2,2,8,5,9,3
1558438507146335,-5,-8,-16,-10,-11,-7,-7,-4
1558438507146335,0,1,-2,-3,2,4,1,0
1558438507154315,-3,-1,3,5,-2,-3,-8,-3
1558438507154315,0,3,0,0,-3,-1,2,1
1558438507169275,0,0,5,9,-3,-2,-6,-3
1558438507169275,-1,-3,-8,-13,-2,4,0,-1
1558438507177278,0,0,4,11,7,4,9,4
1558438507177278,-6,-3,-1,1,-2,0,-8,-4
1558438507192216,3,2,3,0,4,-4,3,3
1558438507192216,-6,-2,9,5,-1,-8,-4,-1
1558438507193210,-1,-3,-16,-17,-7,1,-8,-5
1558438507193210,2,1,-8,-9,-13,-8,-7,-4
1558438507207174,-4,-6,8,9,-1,-8,-1,-2
1558438507207174,1,-1,-6,-5,7,4,2,2
1558438507214418,0,-1,7,13,-3,-5,8,1
1558438507214418,1,3,4,-5,7,2,3,1
1558438507230115,-4,0,-6,-13,-10,-5,-2,-1
1558438507230115,-1,-5,-6,0,1,-3,3,-1
1558438507237094,-2,-3,0,-9,-5,-8,-13,-7
1558438507237094,2,2,2,4,4,9,5,-1
1558438507252498,1,1,13,19,12,5,4,1
1558438507252498,-3,-5,-5,-3,-5,-6,-3,-2
1558438507253053,-1,-3,-11,-12,-6,-5,-7,-1
1558438507253053,-3,-3,1,3,-6,-6,-3,-4
1558438507268291,0,2,6,3,7,9,1,1
1558438507268291,-3,-2,2,-2,-3,3,-1,-2
1558438507274273,-1,-4,-13,0,-1,-9,1,0
1558438507274273,-4,-2,0,6,-2,-3,-1,-1
1558438507289233,-2,-1,-9,-14,-1,5,-7,-3
1558438507289233,3,3,3,6,6,1,13,6
1558438507296216,0,3,6,-13,11,2,-3,1
1558438507296216,3,3,5,8,-7,-7,0,2
1558438507312172,-1,-3,-8,-20,-9,-11,-7,-5
1558438507312172,-3,-3,-8,-6,0,3,-8,-7
1558438507313169,0,-2,8,13,12,13,3,0
1558438507313169,-1,0,5,-1,1,-5,-1,0
1558438507327131,0,1,-9,-1,-4,3,4,1
1558438507327131,1,0,0,1,-11,-21,-10,-2
1558438507334115,-5,-4,-6,-2,4,17,6,-6
1558438507334115,-1,-4,-3,-4,1,4,0,-1
1558438507349073,7,5,7,12,7,4,3,4
1558438507349073,-2,-2,4,-1,-2,-7,-2,0
1558438507357051,1,3,1,-11,-4,2,-2,0
1558438507357051,-7,-9,-12,-11,-2,5,-3,-6
1558438507372011,-4,-1,1,2,-2,-2,0,-4
1558438507372011,1,-2,-9,-7,-2,2,6,-1
1558438507373010,4,2,1,5,-3,-1,-2,-2
1558438507373010,1,4,1,0,2,-3,-2,1
1558438507387005,-3,0,1,-5,0,-5,-2,1
1558438507387005,-4,-7,-2,2,-6,-5,-1,-2
1558438507393953,-1,0,11,20,2,-5,-1,0
1558438507393953,0,-4,-9,-24,2,1,0,0
1558438507408921,0,-2,-22,-14,-11,-6,-5,-2
1558438507408921,-1,1,-2,-4,-1,2,-3,-3
1558438507417140,-1,3,9,10,6,6,4,2
1558438507417140,-1,-1,5,5,-3,-4,-1,0
1558438507432858,-2,1,10,6,0,0,-1,-1
1558438507432858,-1,-5,-6,-11,-2,1,-4,-3
1558438507432858,0,-5,-6,-4,-1,-5,-1,-2
1558438507432858,-2,-2,-7,6,-4,-1,-1,-2
1558438507446813,3,2,-1,-6,0,-2,-3,-1
1558438507446813,0,2,5,10,2,2,10,1
1558438507453793,-3,0,5,-8,-1,-3,-4,-1
1558438507453793,-3,-4,-10,-3,0,4,2,-3
1558438507468752,2,2,1,1,0,1,5,3
1558438507468752,1,-2,11,15,9,2,-2,3
1558438507476732,-4,-1,-10,-12,-8,0,-3,-3
1558438507476732,-6,-6,-7,-5,-12,-16,-7,-9
1558438507492689,-3,-3,4,5,1,1,5,1
1558438507492689,4,5,8,9,6,-7,-6,1
1558438507492689,-3,-2,-12,-20,-14,-9,-8,-3
1558438507492689,7,5,11,13,6,7,1,3
1558438507506652,-9,-8,-6,0,-1,4,0,-2
1558438507506652,5,4,-8,-15,-4,-5,-5,0
1558438507514630,1,-1,9,7,0,-4,1,-2
1558438507514630,-2,1,-8,-2,-3,-4,-7,-3
1558438507529591,0,-2,9,10,4,8,1,1
1558438507529591,-3,0,-4,-8,-3,-5,3,1
1558438507536587,0,1,-2,3,-1,-1,-4,-2
1558438507536587,-2,5,-2,-5,-6,-7,0,1
1558438507552531,1,-2,-2,-2,5,4,2,-3
1558438507552531,-3,-5,-10,0,1,9,-11,-7
1558438507552531,0,-4,7,2,3,2,1,0
1558438507552531,2,7,7,2,4,0,-1,-1
1558438507566492,-3,-4,-5,-5,-4,-7,-1,-1
1558438507566492,0,4,15,10,4,5,7,2
1558438507574471,-3,-2,-18,-17,-11,-7,-3,-3
1558438507574471,-4,-13,5,10,3,-1,-4,-1
1558438507589430,-2,0,-15,-20,-8,-8,-7,-4
1558438507589430,1,-1,3,1,-5,-3,-5,-3
1558438507596411,2,4,1,1,7,12,3,3
1558438507596411,-1,5,6,7,9,6,11,6
1558438507620348,1,-1,1,-1,4,-2,2,-1
1558438507620348,-3,-3,-7,-6,-6,1,1,-3
1558438507621344,1,-1,3,9,-5,-3,-5,-2
1558438507621344,-3,5,-3,-9,0,3,-2,-1
1558438507626333,1,-2,12,13,5,-6,1,1
1558438507626333,1,1,-8,-4,-1,1,-2,1
1558438507642289,-3,-2,18,19,0,-4,-5,1
1558438507642289,-1,-1,-19,-21,-8,0,-3,0
1558438507649275,-4,1,1,1,0,-4,-5,0
1558438507649275,-3,-7,-17,-9,-8,-5,-4,-2
1558438507656253,2,1,4,0,7,7,4,-1
1558438507656253,-2,-2,3,3,-4,-5,-3,-2
1558438507672211,0,6,3,1,3,4,4,0
1558438507672211,-2,-6,5,6,0,-1,0,1
1558438507673212,-5,-4,-15,-13,-7,-5,-4,-5
1558438507673212,1,1,2,-1,5,7,10,1
1558438507687173,-3,-8,-8,-2,-2,-2,-1,0
1558438507687173,-3,4,6,8,3,2,-1,-2
1558438507694152,1,-2,-8,-13,-1,-1,5,1
1558438507694152,-1,-5,7,6,-2,1,-3,-1
1558438507709118,2,3,-3,0,-3,-2,-4,0
1558438507709118,-1,0,1,-5,-4,2,1,0
1558438507717088,-3,-1,3,2,0,-14,-5,-2
1558438507717088,5,1,7,-1,0,-1,1,-3
1558438507732049,-9,-4,-4,-1,-4,1,-2,-3
1558438507732049,2,4,5,0,2,-11,1,1
1558438507733045,0,3,5,11,-2,6,-2,0
1558438507733045,-3,-3,-7,-8,-6,-8,-8,-3
1558438507747021,0,1,2,3,-3,-3,-4,-3
1558438507747021,0,-2,-4,-3,-1,3,-4,-3
1558438507753991,-3,-7,-10,-11,-5,-2,3,0
1558438507753991,1,0,2,8,6,-1,-3,1
1558438507768952,1,8,-6,-6,-5,7,3,-1
1558438507768952,-9,-20,-2,-2,-2,-4,-5,-5
1558438507776928,-2,-1,-2,1,0,-3,-2,-1
1558438507776928,0,0,1,2,1,2,2,3
1558438507791893,5,1,4,0,2,0,3,0
1558438507791893,0,4,-11,-14,-7,-1,-1,-2
1558438507792886,-2,-3,6,7,2,-4,-3,-1
1558438507792886,1,-6,-11,-6,-5,-3,5,3
1558438507806851,-1,-2,-5,2,1,-4,2,0
1558438507806851,-3,0,1,-2,-3,0,-5,-1
1558438507813833,3,5,6,6,11,13,8,4
1558438507813833,-6,-6,2,1,-4,-9,-9,-4
1558438507828791,4,-2,-4,-4,-6,-1,-5,-2
1558438507828791,-4,-1,-4,1,3,8,1,-2
1558438507836770,5,13,17,17,5,-1,2,1
1558438507836770,-2,-2,-14,-22,3,-2,-1,-1
1558438507851729,-3,-7,-7,-6,-8,-1,-4,-1
1558438507851729,-2,0,-1,4,5,5,6,2
1558438507859707,-1,-2,-3,-4,-3,3,-2,0
1558438507859707,1,2,4,8,1,0,-3,-4
1558438507866688,0,-4,1,-1,-3,-4,2,0
1558438507866688,2,2,3,-6,-6,-1,-3,-2
1558438507873669,-3,1,5,3,-3,-1,-3,-4
1558438507873669,-4,-7,-16,-7,-2,-1,-2,-3
1558438507888635,-4,0,3,-1,2,-4,-1,-1
1558438507888635,1,0,0,5,7,0,-4,2
1558438507896615,1,-1,0,0,-1,-5,1,2
1558438507896615,1,5,9,7,0,-5,1,2
1558438507920544,-3,0,-5,-9,-4,-1,-1,-4
1558438507920544,-2,0,7,7,-2,-2,-1,-2
1558438507921541,-7,-9,-22,-18,-11,-3,-7,-6
1558438507921541,0,-1,2,5,-2,2,-2,-1
1558438507926531,5,5,3,-1,5,0,-4,2
1558438507926531,0,2,1,5,-4,-6,8,1
1558438507934507,-5,-6,7,6,2,-8,-3,-3
1558438507934507,2,0,4,7,-1,1,-3,-2
1558438507949477,-5,-2,-6,-4,3,0,9,2
1558438507949477,1,1,-1,-5,-5,-6,-5,-4
1558438507956478,-1,-1,-11,-3,-6,-3,-3,-3
1558438507956478,4,4,6,4,8,0,5,4
1558438507971408,1,0,9,15,0,-1,-6,-1
1558438507971408,-2,-4,-4,-12,0,1,-4,-1
1558438507979389,-2,-1,5,7,6,18,10,0
1558438507979389,-5,-6,-14,-7,-5,0,4,-4
1558438507986369,-4,-2,2,-1,-1,-1,-9,-5
1558438507986369,-1,1,-6,-5,-6,-7,-6,-2
1558438507994397,0,0,-2,1,-4,-6,-2,-3
1558438507994397,-1,0,0,-3,1,5,-10,-2
1558438508009313,-1,-11,-3,-2,4,3,7,0
1558438508009313,0,3,-2,-1,-3,1,3,0
1558438508016288,-1,-5,-1,-4,0,-6,-4,-2
1558438508016288,0,0,4,2,-3,-5,-1,1
1558438508031249,-3,-3,-12,-6,-7,-9,-5,-1
1558438508031249,3,3,3,-2,2,6,4,4
1558438508040224,0,-4,0,4,6,3,-1,2
1558438508040224,-4,1,-6,-9,-8,0,-2,-3
1558438508046209,4,1,3,5,5,4,1,1
1558438508046209,-12,-6,-5,-2,6,2,2,-3
1558438508054186,1,2,-1,-2,-6,-6,-1,3
1558438508054186,-2,-1,2,-1,-2,-1,2,-1
1558438508069152,0,2,4,2,2,2,-1,-4
1558438508069152,3,2,-3,-4,-4,-9,-2,1
1558438508076130,0,-4,1,5,-3,-3,1,-1
1558438508076130,-1,-4,-7,-11,1,-2,-2,0
1558438508092088,-1,9,-1,-4,-1,4,0,-1
1558438508092088,-1,-5,6,6,-7,-7,-6,-1
1558438508100065,-6,-9,-10,-5,3,9,13,5
1558438508100065,1,-2,-1,-6,-4,-6,3,2
1558438508115025,0,0,4,6,0,1,-1,0
1558438508115025,-1,-4,-9,-10,0,1,-5,-2
1558438508115025,1,5,0,-3,-3,-1,-7,-2
1558438508115025,-4,-2,-1,4,0,-2,-1,-4
1558438508128989,-1,-3,4,3,0,-6,-1,-1
1558438508128989,0,0,1,2,-1,-3,0,-2
1558438508136966,0,-1,-7,-6,-3,1,-4,-3
1558438508136966,-2,2,2,-3,-10,-7,-10,-4
1558438508151926,-5,-6,2,10,9,11,7,1
1558438508151926,-1,-5,-7,-10,9,5,13,4
1558438508159908,1,1,0,-3,0,-7,-1,0
1558438508159908,1,4,2,2,6,6,1,3
1558438508174865,0,7,-5,-8,-17,-10,-7,-4
1558438508174865,-7,-5,-3,1,-3,0,-4,-4
1558438508175883,0,-4,1,-2,-1,-3,-3,-1
1558438508175883,-2,4,2,3,4,2,3,-3
1558438508188828,-2,-14,-10,-7,-1,-2,-3,1
1558438508188828,1,-1,-1,0,1,-3,-4,-2
1558438508196806,-2,3,3,1,-1,1,1,-3
1558438508196806,-4,-4,-11,-8,-9,-3,-8,-6
1558438508211765,-3,-2,0,-3,-4,0,0,0
1558438508211765,-2,1,2,2,-1,4,-1,-4
1558438508219745,-5,-6,-5,-5,-6,-2,-5,-3
1558438508219745,1,3,10,12,0,0,2,-1
1558438508234703,3,7,-1,-6,3,2,-2,0
1558438508234703,1,-6,-2,2,8,2,4,3
1558438508235701,3,3,-4,-2,-4,-2,0,2
1558438508235701,-3,4,-4,-2,-3,-5,0,0
1558438508249665,-8,-7,-3,-5,-8,-3,-6,-7
1558438508249665,-2,-3,-2,1,-5,-2,-7,-6
1558438508256645,0,-3,3,5,10,8,5,2
1558438508256645,3,0,4,1,0,1,-1,3
1558438508271605,0,-4,2,7,1,-3,-2,-1
1558438508271605,-2,2,-4,-15,-10,-14,-3,-4
1558438508279594,-2,0,7,3,6,8,0,-1
1558438508279594,0,-2,-6,-1,0,-5,-1,5
1558438508303536,0,0,-6,-4,-2,-4,-1,-2
1558438508303536,-5,-4,-2,0,-2,5,-3,0
1558438508303536,-1,1,-4,-4,0,0,0,-4
1558438508303536,-3,-2,2,3,-6,-7,-2,-4
1558438508309505,0,2,1,0,4,2,1,2
1558438508309505,2,1,5,2,-2,0,0,0
1558438508316485,-2,-1,-7,-5,-5,-3,-6,-3
1558438508316485,2,6,2,1,1,-8,0,4
1558438508331448,-3,-11,3,3,6,-1,3,1
1558438508331448,-3,2,-3,10,-10,-8,-5,-5
1558438508340423,-1,-5,-1,-10,-4,0,-4,-1
1558438508340423,-2,-5,-10,-2,2,3,6,0
1558438508354386,0,1,3,0,3,6,0,-1
1558438508354386,1,3,8,6,5,-3,3,2
1558438508355381,0,1,-1,-1,-4,-7,-12,-8
1558438508355381,-4,-3,-2,-3,-6,1,5,-3
1558438508369349,1,1,0,-1,-9,-12,-5,-3
1558438508369349,2,-1,-5,-2,7,12,1,0
1558438508376328,1,-1,-2,0,5,-1,8,5
1558438508376328,-4,-4,2,-2,-1,0,-6,-4
1558438508391292,-3,0,-6,-5,-6,-2,-1,-2
1558438508391292,-1,-2,-2,-3,-4,0,2,1
1558438508400260,-1,3,-2,-6,-8,-11,-8,0
1558438508400260,2,3,5,6,11,12,3,2
1558438508417220,-3,-6,-3,1,0,-3,3,0
1558438508417220,3,2,7,3,6,1,-2,2
1558438508417220,-4,0,-7,-1,-3,0,-1,-3
1558438508417220,-6,-8,-8,-4,-8,-3,-10,-4
1558438508429185,2,7,-1,-3,1,3,3,3
1558438508429185,-2,-2,2,-3,-5,1,-1,0
1558438508436168,0,-1,0,7,-1,-7,-1,1
1558438508436168,1,2,3,10,5,3,-1,-3
1558438508453128,-3,-2,-2,-22,1,5,-1,-3
1558438508453128,0,1,-3,-9,-5,-2,2,-1
1558438508460101,0,-3,-1,5,-6,0,1,-1
1558438508460101,-3,-5,-2,-12,-4,-2,-7,-5
1558438508475065,-1,1,-8,4,-5,-5,-3,1
1558438508475065,2,0,0,-6,4,12,10,2
1558438508475065,1,6,7,-1,4,-4,1,1
1558438508475065,-4,-5,-3,8,3,-4,-3,-1
1558438508497005,0,-2,-3,-10,0,1,-4,-1
1558438508497005,-1,3,0,-3,-7,-6,-6,-2
1558438508498003,-2,3,-8,1,0,4,4,2
1558438508498003,-4,-11,4,-8,-5,-2,-5,-1
1558438508511968,-1,0,-1,3,5,3,-1,0
1558438508511968,-4,-3,-5,-2,-1,-7,-6,-1
1558438508519943,1,0,-3,-4,-2,-3,1,0
1558438508519943,0,3,-4,-7,-8,-5,-3,-3
