timestamp,emg1,emg2,emg3,emg4,emg5,emg6,emg7,emg8
1558438599158469,-1,-2,-1,3,1,-10,-2,-2
1558438599158469,1,0,-4,-7,0,3,0,-2
1558438599163456,0,0,1,0,2,8,3,2
1558438599163456,-1,-2,-3,-2,-7,-6,-7,-4
1558438599163456,-5,-5,-4,-2,-9,-7,-4,-5
1558438599163456,0,-2,-4,3,-1,-4,-5,-2
1558438599165450,-3,-2,-4,-10,-2,2,0,0
1558438599165450,1,0,8,5,6,-2,0,1
1558438599176421,1,0,0,4,1,-2,0,1
1558438599176421,-1,-3,-2,-4,-8,-6,-7,-1
1558438599187392,2,-1,-2,-1,-2,-5,1,1
1558438599187392,-2,-1,-4,-2,1,0,-3,0
1558438599191380,0,0,0,-3,0,4,1,-1
1558438599191380,0,0,0,0,-3,-3,-1,-1
1558438599207338,0,-1,1,3,-3,-1,-4,-3
1558438599207338,0,-1,2,2,-1,1,0,-1
1558438599214319,-1,0,-5,-7,-1,2,0,0
1558438599214319,-1,2,8,6,3,-1,-2,0
1558438599222299,-1,-2,-3,-1,-2,-4,-4,-1
1558438599222299,-1,-3,-11,-10,-2,3,11,1
1558438599236261,2,0,10,6,7,-1,6,2
1558438599236261,0,-1,-7,4,3,2,3,2
1558438599246236,-1,2,5,-6,6,0,-1,1
1558438599246236,-2,-1,-2,3,-10,-5,-7,-3
1558438599284132,-3,-3,-6,-3,-5,-1,-4,-5
1558438599284132,0,-1,2,-4,-2,-7,0,2
1558438599284132,-2,0,2,5,5,0,2,2
1558438599284132,-2,-1,2,0,2,3,1,0
1558438599285131,-1,-1,-1,-1,-3,-2,-1,0
1558438599285131,-3,-2,-1,2,-1,1,-4,-4
1558438599288122,0,0,-3,-8,-5,-7,-2,-2
1558438599288122,0,-2,-1,2,1,-6,-1,-1
1558438599296101,0,0,2,2,2,3,4,2
1558438599296101,0,-1,-2,0,-2,-5,-4,-2
1558438599305076,-1,0,1,2,-7,-1,-5,-2
1558438599305076,-2,-1,2,1,-2,2,-3,0
1558438599311060,-3,0,-6,-9,3,4,-2,1
1558438599311060,-1,-1,0,0,1,4,4,-2
1558438599327018,-2,-2,-3,2,1,-3,2,-1
1558438599327018,0,1,-2,0,1,-4,0,-3
1558438599333001,1,2,6,6,2,1,1,-2
1558438599333001,-2,-1,8,8,0,-3,-1,1
1558438599341978,-2,-3,-11,-9,-5,-4,-5,-2
1558438599341978,-1,-1,-1,-3,2,4,4,0
1558438599355943,-1,-1,0,3,0,-7,-3,0
1558438599355943,-2,0,-3,-5,-1,4,-3,-1
1558438599364918,1,-1,2,3,-2,4,0,-2
1558438599364918,-1,-2,-2,-3,-7,-4,-5,-4
1558438599370903,0,-2,-3,-2,0,-1,0,-2
1558438599370903,0,-2,-5,-5,-3,-1,-1,-4
1558438599387855,-3,-1,-1,-4,-4,-2,-8,-6
1558438599387855,-2,-1,-1,2,3,-2,-1,1
1558438599393839,2,4,3,1,5,-9,7,4
1558438599393839,-2,-3,-1,-5,1,6,4,0
1558438599402816,1,0,-2,3,5,2,2,0
1558438599402816,-4,-2,-3,-2,-10,-1,-6,-4
1558438599415781,0,1,0,-4,-4,2,-7,-3
1558438599415781,0,3,-7,-5,-3,-2,-2,-1
1558438599424755,2,-1,9,5,4,-1,3,1
1558438599424755,-1,-1,-1,4,2,1,2,0
1558438599430741,-6,-5,-5,-18,-8,-2,-2,-2
1558438599430741,-1,-3,-5,-4,-6,-3,-7,-1
1558438599447695,1,2,2,-2,2,-1,5,3
1558438599447695,-1,0,1,2,2,-2,1,0
1558438599453683,-1,-1,6,7,6,2,1,-1
1558438599453683,-2,0,-1,-1,-3,-4,-7,-2
1558438599462655,-1,-1,-2,-5,-2,1,-4,-3
1558438599462655,2,0,1,-2,2,1,1,1
1558438599475620,-1,-2,-3,2,-5,0,-2,-2
1558438599475620,-1,-2,-1,-1,-3,-2,3,-2
1558438599484595,-2,-1,-3,1,-3,-3,-3,-2
1558438599484595,-2,0,-4,-5,-3,1,-1,-2
1558438599490583,-1,-4,-5,-3,-2,0,-2,-1
1558438599490583,1,1,3,2,0,-1,1,0
1558438599507534,-4,-3,-5,-4,-6,-10,-4,-7
1558438599507534,-2,0,2,-2,3,8,-1,-3
1558438599513518,0,0,3,9,3,1,-1,0
1558438599513518,1,1,3,2,0,-9,-3,3
1558438599528479,-1,-1,0,-1,5,7,5,3
1558438599528479,-1,0,-4,-5,-4,-7,-2,-1
1558438599535460,-1,-3,-2,1,-3,4,-7,-5
1558438599535460,2,1,3,3,-2,7,-1,-1
1558438599544437,0,-2,3,0,-7,-13,-7,-2
1558438599544437,-2,-1,-6,-3,-4,-6,-3,-1
1558438599551417,0,2,4,-1,3,7,4,1
1558438599551417,-4,-2,-5,-2,-3,-7,-2,-4
1558438599567375,0,-2,-7,-7,-3,3,3,1
1558438599567375,-1,-2,1,4,-6,-9,-8,-2
1558438599573359,3,2,4,-8,9,14,14,7
1558438599573359,0,-2,2,4,6,4,7,0
1558438599588319,-2,-3,-4,2,-2,2,-4,-3
1558438599588319,-1,0,-2,-7,0,7,-3,-3
1558438599596298,-5,-5,-11,-4,-10,-8,-10,-6
1558438599596298,0,1,3,3,0,-5,0,0
1558438599605274,1,1,1,-1,3,-10,2,3
1558438599605274,0,-2,2,0,-2,4,-1,-2
1558438599611257,1,0,0,-1,-7,-10,-7,-4
1558438599611257,-2,-2,-7,-7,1,5,-1,-1
1558438599627215,-3,0,2,1,4,13,2,1
1558438599627215,-1,0,1,0,-2,-7,0,0
1558438599633199,0,-1,2,0,-2,-11,2,1
1558438599633199,0,1,0,-2,-8,-5,-3,0
1558438599648159,-3,-5,-9,-10,-6,0,-6,-3
1558438599648159,0,-1,-4,-2,2,3,1,1
1558438599656137,-1,-1,-3,-2,-5,-1,-4,-4
1558438599656137,-1,1,2,0,1,-1,-3,-1
1558438599665114,-1,0,2,2,2,4,5,0
1558438599665114,-1,0,0,-2,-1,0,1,0
1558438599671099,-3,-1,-1,0,-3,-2,-2,-3
1558438599671099,-1,-2,-3,1,-4,-5,-9,-3
1558438599687056,1,-1,-5,-11,-4,5,1,-1
1558438599687056,0,-1,0,3,1,-7,-5,1
1558438599693038,3,3,2,3,8,3,10,6
1558438599693038,1,1,17,13,2,1,-2,-1
1558438599707999,-3,-5,-21,-22,-5,-3,-1,-1
1558438599707999,0,-2,-3,0,2,3,1,-1
1558438599715979,-4,-5,-16,-15,-14,-9,-9,-4
1558438599715979,0,0,1,-1,2,2,3,-1
1558438599724954,-1,3,11,11,-1,-5,-4,-1
1558438599724954,-1,-1,1,1,3,-4,4,2
1558438599730938,0,3,-1,1,3,2,4,1
1558438599730938,-3,-4,-2,-4,-1,7,1,-3
1558438599747895,-4,-7,2,1,-4,0,-6,-6
1558438599747895,1,2,1,-2,-3,-9,-2,-1
1558438599753876,-1,-3,0,-3,-5,-10,-7,-3
1558438599753876,0,-1,-4,-4,-2,-2,1,0
1558438599768837,2,5,2,6,12,9,8,4
1558438599768837,-4,-5,-3,1,-3,2,-2,-2
1558438599775820,3,2,7,4,8,4,3,0
1558438599775820,-1,-1,-7,-8,-8,-6,-4,-3
1558438599784796,0,-1,2,4,6,13,4,0
1558438599784796,3,2,1,-1,-1,-15,5,2
1558438599798759,-2,-2,0,0,-4,0,-6,-4
1558438599798759,-2,-3,-6,-2,-1,-1,-3,-1
1558438599807732,0,0,-3,-5,-7,-9,-3,1
1558438599807732,-1,-1,0,-1,0,2,-4,-2
1558438599813718,-2,-2,-6,-12,-2,6,2,-1
1558438599813718,-1,-1,-1,2,9,2,4,2
1558438599836655,-1,1,3,5,-4,-9,-4,-2
1558438599836655,-2,-3,-1,-7,-7,-3,-6,-3
1558438599837659,1,2,3,5,4,2,2,1
1558438599837659,-1,-3,-3,0,2,-1,-1,-2
1558438599844633,-2,2,0,3,-4,1,3,-1
1558438599844633,-3,-2,-5,-6,-7,-4,-4,-3
1558438599858597,-2,0,5,6,-3,-4,-7,-3
1558438599858597,-1,-2,-4,-6,-2,4,1,1
1558438599867572,1,2,-1,-3,-1,-7,-7,-2
1558438599867572,2,1,-5,-6,7,19,17,6
1558438599873557,-4,-2,-2,-1,-2,-5,-6,-2
1558438599873557,-1,-2,-3,-4,-4,-3,-5,-2
1558438599888518,0,-2,1,-4,-5,-7,-5,-2
1558438599888518,-1,1,0,2,-2,-1,0,-1
1558438599895498,0,1,3,4,5,4,5,3
1558438599895498,0,-2,0,-2,-1,-3,2,0
1558438599904473,-2,-2,2,0,-3,-7,-9,-4
1558438599904473,2,0,2,0,1,0,-1,-3
1558438599918436,-1,-2,-2,3,-2,-1,-1,-2
1558438599918436,-2,2,2,1,-1,2,-3,-2
1558438599928413,-3,-3,1,3,5,8,6,0
1558438599928413,0,0,-3,1,-9,-9,-7,-4
1558438599933398,-1,-2,-2,-2,0,-1,2,-1
1558438599933398,1,1,-2,-2,0,-3,1,0
1558438599948357,-1,2,-2,0,-2,0,-6,1
1558438599948357,-3,-1,2,2,1,4,-2,1
1558438599956334,0,-1,6,4,1,0,-3,-3
1558438599956334,-2,-2,-5,-6,-1,4,4,0
1558438599965311,1,1,7,10,5,-9,-1,0
1558438599965311,-1,-2,-4,-14,0,7,2,-1
1558438599978276,0,2,0,-2,-6,-8,-4,-3
1558438599978276,0,-1,-5,-3,4,3,2,0
1558438599987252,-1,0,4,3,1,1,0,0
1558438599987252,0,-1,-2,2,8,7,4,1
1558438599993239,-3,-1,1,2,0,2,0,-1
1558438599993239,-3,1,-1,-5,-7,-5,-4,-2
1558438600008197,-2,-1,-2,-4,-2,-3,-2,-3
1558438600008197,-3,-3,-1,1,-3,-2,-3,-4
1558438600016175,-1,-2,-3,-3,-7,-3,-6,-4
1558438600016175,0,-2,-2,3,-1,0,0,-1
1558438600025151,1,1,3,0,6,6,6,3
1558438600025151,-1,-1,5,4,0,2,1,-4
1558438600038116,0,-1,-4,3,3,-9,2,1
1558438600038116,-3,-3,-11,-7,0,1,1,1
1558438600047092,1,-1,-5,-8,-7,-3,-3,-1
1558438600047092,1,0,-1,-1,-6,-6,-10,-3
1558438600053076,1,1,7,5,2,9,-2,-2
1558438600053076,-3,-4,-2,1,-4,-2,-1,-2
1558438600068035,1,0,-4,-5,4,-12,2,1
1558438600068035,-3,-2,-4,1,-5,-3,-3,-1
1558438600076015,-1,1,-6,-8,-7,-6,-5,-2
1558438600076015,0,3,4,2,7,0,1,-2
1558438600084991,-1,-2,0,2,-1,4,-1,-4
1558438600084991,2,0,1,-1,2,4,1,-1
1558438600098953,0,1,1,1,4,1,1,2
1558438600098953,2,-2,-2,-7,-1,-4,-2,0
1558438600106932,-2,0,1,8,-6,-4,-3,-4
1558438600106932,1,1,3,-2,0,0,0,-2
1558438600113914,-2,-2,-14,-12,-8,-2,-3,-1
1558438600113914,0,0,0,3,-4,-9,-3,0
1558438600128872,-2,-1,-6,-4,0,5,-1,0
1558438600128872,0,-1,-1,-1,1,-8,1,0
1558438600135853,-1,0,1,0,5,4,5,0
1558438600135853,-3,0,2,1,-2,1,-5,-3
1558438600144830,-1,-3,-5,-6,-7,-8,-5,-5
1558438600144830,-3,-1,-2,-4,0,3,1,1
1558438600158793,0,-1,2,0,4,-3,0,-1
1558438600158793,0,1,1,-1,-3,1,1,0
1558438600167769,3,-1,0,-4,-7,-3,-1,-1
1558438600167769,0,1,3,3,0,-7,-6,0
1558438600173753,0,-1,0,-1,2,0,4,4
1558438600173753,-3,0,0,1,2,4,-1,-1
1558438600188713,-2,1,0,3,4,4,-2,-2
1558438600188713,-1,-2,-7,-14,-14,-10,-7,-3
1558438600195695,-2,-3,-1,-2,-3,-5,-5,-2
1558438600195695,3,1,5,2,7,7,8,3
1558438600212648,-3,-3,3,-2,-4,0,-2,-1
1558438600212648,-3,1,-2,3,6,6,3,-2
1558438600218632,-4,-5,-12,-7,-8,-5,-5,-5
1558438600218632,-1,0,-5,-2,-7,-9,-7,-3
1558438600235588,-1,0,1,1,4,9,7,2
1558438600235588,-1,-1,1,0,-1,-5,-1,0
1558438600236585,1,1,1,1,-1,-4,-3,1
1558438600236585,1,-1,3,7,1,0,-1,-2
1558438600248553,-1,-1,-5,-13,-2,2,2,1
1558438600248553,-2,-2,-1,2,-3,-6,-3,-2
1558438600255535,-3,0,-6,-5,-4,4,2,-2
1558438600255535,-1,-1,-2,-4,-4,-7,-2,-1
1558438600270494,0,-1,2,2,-1,0,-2,-2
1558438600270494,1,-1,2,1,-1,-3,-2,0
1558438600278475,-1,-2,2,0,2,4,4,0
1558438600278475,-1,1,0,1,-2,-9,-6,0
1558438600294429,-2,-3,-3,1,0,-3,-5,0
1558438600294429,2,-1,-3,-3,2,5,2,2
1558438600294429,-1,-1,2,-1,0,-1,-5,-4
1558438600294429,-1,0,-3,-1,-2,2,0,-1
1558438600308392,-1,-1,0,-2,1,-3,0,-1
1558438600308392,-1,-2,2,3,1,3,1,0
1558438600316371,-1,-1,0,-2,-1,-1,-1,-2
1558438600316371,-1,-2,-5,-4,-5,-5,-5,-3
1558438600331332,0,1,-2,1,-3,-6,-1,0
1558438600331332,-2,0,-2,1,2,-2,-2,0
1558438600338311,-1,0,1,0,-3,-7,1,1
1558438600338311,0,-2,2,0,1,5,3,-1
1558438600354269,-2,-1,-3,-1,1,5,-1,0
1558438600354269,-4,-3,-2,-2,-3,0,-1,-1
1558438600355267,1,-1,4,4,2,-2,0,3
1558438600355267,-4,-2,1,-2,-2,-5,-1,-4
1558438600368232,0,0,3,8,-2,-11,-1,2
1558438600368232,0,-3,-11,-17,-2,4,-1,-2
1558438600376210,-2,-1,-4,-2,-6,-5,-7,-4
1558438600376210,0,-2,-4,-4,-2,7,1,1
1558438600391170,-1,-1,-2,3,8,9,4,2
1558438600391170,-2,-1,2,4,-1,-2,1,-1
1558438600398153,0,-1,2,2,2,3,-2,0
1558438600398153,-1,-2,-1,-5,-8,-3,-4,0
1558438600414139,-2,-1,-4,-5,-6,-5,-3,-3
1558438600414139,1,-1,2,5,5,-3,5,0
1558438600415107,0,-1,-3,-4,4,7,1,-1
1558438600415107,-1,0,4,5,3,1,2,-2
1558438600428072,0,-1,2,-3,-3,4,-3,-4
1558438600428072,-2,2,-1,2,-2,0,0,-1
1558438600436056,-2,-1,1,-4,-5,-4,0,0
1558438600436056,-2,1,-3,1,3,-3,-2,-1
1558438600451013,-2,-2,-7,-11,-6,-5,-2,-1
1558438600451013,-2,0,3,2,0,1,-2,-4
1558438600458992,-2,-1,1,0,1,-5,0,0
1558438600458992,-1,-1,0,2,5,-1,-3,0
1558438600473952,-2,-1,2,-3,-4,-3,-4,-3
1558438600473952,0,-3,-3,3,2,5,0,-1
1558438600474949,0,-1,-4,-2,-1,8,0,-2
1558438600474949,-2,-2,-3,-3,-7,-2,-2,-2
1558438600488910,-1,2,0,2,0,-10,-4,0
1558438600488910,-2,-1,-3,-3,-10,-4,-9,-2
1558438600495894,-1,-2,-1,3,8,13,8,3
1558438600495894,2,2,2,1,3,-17,2,4
1558438600510858,-2,-3,0,0,-1,6,1,-3
1558438600510858,-3,-2,-1,-4,-5,3,-3,-2
1558438600518834,0,0,-2,3,-7,-9,-8,-5
1558438600518834,0,2,7,0,-1,2,-4,-3
1558438600533793,1,-1,-14,-5,2,2,3,4
1558438600533793,-3,-1,-3,-13,-1,5,0,-2
1558438600541770,-2,-6,-3,-4,1,-1,4,1
1558438600541770,-1,0,8,8,4,0,0,0
1558438600548750,-3,-2,-3,2,-8,-7,-5,-4
1558438600548750,0,-1,2,-3,2,8,1,-2
1558438600555732,-2,-1,-4,-3,-3,-8,-10,-4
1558438600555732,-1,-2,0,0,1,4,5,0
1558438600578670,-1,0,8,8,7,-6,0,0
1558438600578670,0,-3,-13,-9,-9,-3,1,0
1558438600579667,-2,0,3,-5,1,3,0,1
1558438600579667,-5,-4,-7,0,-5,0,-5,-3
1558438600602610,-1,-1,6,5,-6,-1,-3,-4
1558438600602610,1,-1,3,6,7,-10,-1,2
1558438600602610,1,2,6,4,4,-2,0,0
1558438600602610,-2,-6,-16,-6,-5,1,-1,-1
1558438600608597,-1,0,-3,-4,0,7,2,-1
1558438600608597,-3,-3,4,2,5,5,2,-2
1558438600616569,1,1,5,5,-5,-3,-5,0
1558438600616569,1,1,2,0,1,5,0,-1
1558438600630532,-1,0,0,-6,-6,-1,1,0
1558438600630532,-1,-3,-8,0,-3,-14,-7,-6
1558438600646490,-1,-2,-3,-7,-4,-3,-3,-2
1558438600646490,0,3,-1,-4,2,9,1,0
1558438600654480,-1,-3,-1,-3,-2,-1,-3,-2
1558438600654480,0,3,10,10,4,-1,2,2
1558438600654480,0,-4,-3,2,-5,-5,-2,-2
1558438600654480,-1,-3,-6,-13,-8,-6,0,0
1558438600670427,-1,-2,-1,2,0,2,1,0
1558438600670427,-3,1,0,1,-3,-1,-4,-2
1558438600676453,-1,1,3,6,3,7,4,-1
1558438600676453,-2,-4,-2,-6,-11,-6,-4,1
1558438600692366,0,-5,0,-4,5,-7,-3,-2
1558438600692366,-2,-3,-6,-2,-1,5,-1,-2
1558438600698351,-1,-2,1,0,1,3,1,-2
1558438600698351,-3,-1,-10,-5,-6,-12,-4,-3
1558438600713311,-1,2,3,1,-1,-3,0,-1
1558438600713311,1,0,0,-8,-7,-8,-6,-2
1558438600721288,-3,-2,-3,-5,-3,-3,-5,-2
1558438600721288,1,-2,4,0,0,1,-1,0
1558438600729540,1,-2,-2,-3,-1,-1,1,-3
1558438600729540,2,1,6,8,8,8,6,2
1558438600736519,-2,0,-7,-6,2,1,4,1
1558438600736519,-3,-3,-1,-1,0,-8,-3,-3
1558438600767442,-3,0,-1,0,-2,2,2,-2
1558438600767442,1,0,-5,-9,-6,0,-2,-3
1558438600768432,0,3,0,0,-5,-8,-6,-4
1558438600768432,-1,-3,3,2,8,7,4,1
1558438600773459,0,0,-4,-1,4,4,-1,-1
1558438600773459,-2,-4,-6,-10,-9,-1,-1,-1
1558438600790375,1,-1,-6,6,1,1,-1,-3
1558438600790375,0,1,6,-2,-6,-10,-3,-2
1558438600791378,-1,-4,-3,-10,0,5,-1,1
1558438600791378,-4,0,1,4,-4,-5,-2,-1
1558438600796364,1,1,5,7,9,5,9,5
1558438600796364,-3,-2,-2,5,1,3,-6,-2
1558438600811321,1,1,-1,1,-2,1,3,-1
1558438600811321,-2,-1,1,-1,-5,-8,-4,-2
1558438600818298,-2,-2,-7,-14,-8,-9,-6,-2
1558438600818298,0,0,4,5,4,8,2,-2
1558438600833257,0,1,3,5,10,8,4,2
1558438600833257,1,-2,-2,2,-2,-3,-8,-2
1558438600841236,2,-1,5,4,1,3,8,3
1558438600841236,2,0,-7,-9,0,1,1,1
1558438600858191,-3,-2,2,6,-5,-2,-11,-5
1558438600858191,-1,0,3,-1,11,8,7,5
1558438600859188,-7,-4,3,4,-1,-7,-2,-2
1558438600859188,-2,-2,-6,-10,-6,0,-8,-5
1558438600871158,1,1,6,4,-5,-8,-5,-3
1558438600871158,0,1,2,-1,6,6,3,1
1558438600878138,0,-3,-15,-13,-10,-3,-3,1
1558438600878138,1,2,6,10,5,2,4,3
1558438600893133,-2,-1,-3,-7,-5,-7,-4,-2
1558438600893133,-1,-1,-4,-2,-1,2,1,0
1558438600901077,0,-1,-5,-6,-3,-2,-2,-2
1558438600901077,1,-1,0,0,3,6,3,-2
1558438600916035,-1,4,7,7,2,-1,-3,2
1558438600916035,-1,-3,1,-8,2,-8,0,2
1558438600917033,-2,-2,4,-1,-8,-10,-2,-3
1558438600917033,-2,-5,-18,-7,4,7,1,0
1558438600930996,-2,-2,-5,-3,-9,-3,-3,-2
1558438600930996,-1,0,7,5,-2,-4,0,-1
1558438600938034,0,3,-3,4,1,5,0,0
1558438600938034,0,0,2,0,-8,-13,-4,-3
1558438600952937,1,-3,-4,3,0,3,-3,0
1558438600952937,0,-2,-3,-5,0,-2,-5,-7
1558438600960954,3,1,12,6,3,1,7,2
1558438600960954,-1,4,-4,-4,1,-2,-2,-2
1558438600976874,-3,-1,2,0,-2,1,4,-1
1558438600976874,-1,-3,-1,7,-3,1,-7,-4
1558438600976874,-1,-2,-5,-2,0,-8,-1,0
1558438600976874,-1,0,5,0,-1,4,1,0
1558438600990903,1,-1,-12,-9,0,-8,1,1
1558438600990903,2,-1,-3,-2,-3,-4,-2,0
1558438600998881,-4,-1,-1,8,1,8,-2,-3
1558438600998881,-2,-1,3,5,-4,-5,-8,-2
1558438601013776,-2,-2,-3,-11,-3,-5,1,3
1558438601013776,1,5,15,19,7,8,7,3
1558438601020860,-1,-7,-20,-11,-4,1,-7,-4
1558438601020860,-1,-3,7,3,0,1,6,-1
1558438601036720,-3,0,10,9,8,6,-1,-4
1558438601036720,-2,-3,-13,-4,-4,-7,-1,-2
1558438601037717,0,0,5,1,-3,2,-1,-2
1558438601037717,-7,-1,0,-6,-4,-12,-4,-3
1558438601050684,2,1,-1,-1,4,-6,1,1
1558438601050684,-2,-2,-3,-1,-1,1,3,1
1558438601058663,0,2,9,12,3,-4,-6,3
1558438601058663,2,1,-4,-3,-3,1,0,-1
1558438601074612,-1,3,-3,-15,-6,-9,-1,-3
1558438601074612,-5,-5,-4,-4,-6,-3,-6,-7
1558438601080597,-2,-3,-7,-7,-7,-5,0,2
1558438601080597,1,1,7,-2,-2,-4,-3,-1
1558438601096554,1,-1,-10,-6,-4,4,0,-1
1558438601096554,3,1,-6,-6,-2,-6,1,4
1558438601097551,-2,-2,10,-1,2,-2,-6,-4
1558438601097551,1,4,4,4,4,5,3,1
1558438601111824,-2,-6,0,5,4,8,1,-1
1558438601111824,-1,-1,-5,-9,-10,-6,-5,-2
1558438601118715,-2,-2,-5,-7,0,4,1,-5
1558438601118715,-2,-3,7,1,0,-2,-1,-1
1558438601133685,-2,-5,1,1,-4,-13,-7,-1
1558438601133685,0,-1,2,8,3,4,3,2
1558438601141435,0,3,-11,-12,-2,-5,4,5
1558438601141435,-1,-1,-1,0,9,9,-3,-6
1558438601156725,-3,-7,-2,1,-8,0,-6,-4
1558438601156725,-2,0,7,3,5,-3,-3,-1
1558438601157395,-4,2,8,9,3,-1,-4,-3
1558438601157395,3,-1,-10,-18,-11,-10,-5,-1
1558438601171665,-4,4,6,4,10,10,2,0
1558438601171665,-1,-6,-16,-12,-4,2,5,1
1558438601178589,-4,-4,0,-2,-2,0,-1,-4
1558438601178589,-3,-4,-4,8,-1,1,1,1
1558438601193540,0,-1,-7,-11,-4,-6,-5,-2
1558438601193540,-1,0,5,-1,-1,-3,-6,-2
1558438601201273,-1,-1,-3,3,0,-4,8,-1
1558438601201273,0,-2,0,6,-2,-2,1,0
1558438601216238,-1,-5,-4,-9,-5,-3,-3,1
1558438601216238,-2,-1,-1,-8,0,7,0,-3
1558438601217242,1,-2,2,3,4,6,-2,0
1558438601217242,-2,-3,-6,-6,-5,-2,-2,3
1558438601231228,1,4,-1,3,-3,-11,-1,-2
1558438601231228,1,0,10,7,8,7,2,7
1558438601238178,0,-1,-7,-13,-8,-2,-8,-7
1558438601238178,-2,-4,-2,-2,3,-1,3,-1
1558438601253138,-1,0,3,5,-2,2,2,2
1558438601253138,-3,-1,4,3,1,3,2,-3
1558438601269385,1,0,3,7,-1,-1,4,1
1558438601269385,0,0,3,-2,3,-1,-2,2
1558438601277397,-2,-3,-8,-4,-8,-3,-3,-2
1558438601277397,-1,1,-3,1,-1,-4,-6,-2
1558438601277397,1,0,1,2,6,2,-3,-1
1558438601277397,-2,1,2,1,0,1,-1,-2
1558438601291554,5,1,4,6,5,5,2,2
1558438601291554,-6,1,7,1,-8,-13,-4,-2
1558438601298338,-2,-1,-15,-11,3,8,5,5
1558438601298338,-3,-4,1,0,-4,2,-5,-2
1558438601313262,-2,-4,-2,4,2,-1,11,6
1558438601313262,-4,1,-4,5,-3,-7,-10,-13
1558438601321240,1,9,14,-3,3,-12,-1,-2
1558438601321240,-2,-6,-2,3,1,3,-1,0
1558438601336231,1,1,-1,0,1,3,3,0
1558438601336231,0,-8,-8,-9,-9,-3,-4,1
1558438601337196,3,0,11,11,-1,-3,-5,-1
1558438601337196,-2,2,-6,-8,0,3,4,-3
1558438601351159,1,1,2,3,7,3,1,2
1558438601351159,0,-3,-12,-6,-3,0,2,1
1558438601358140,-3,-5,-6,-1,-4,1,-7,-4
1558438601358140,2,3,5,5,0,-10,-1,4
1558438601373138,-1,3,-3,-16,-4,-4,-3,1
1558438601373138,2,2,10,14,13,8,6,3
1558438601381080,-2,-6,-10,-8,-5,1,1,-4
1558438601381080,-3,-4,-5,-7,-6,-8,1,-1
1558438601397036,-2,3,2,-1,-2,4,-5,-5
1558438601397036,-3,-6,-7,-8,-5,2,3,1
1558438601397036,0,0,7,8,7,4,3,-2
1558438601397036,-1,1,0,8,1,-2,-1,-1
1558438601411450,-3,-4,-1,-12,-6,-4,-8,-4
1558438601411450,-1,-3,-11,-16,-12,-10,-2,0
1558438601419308,-4,-12,-13,-4,3,8,5,0
1558438601419308,3,3,7,3,-3,-9,-1,4
1558438601433895,-5,-6,-15,-10,1,-2,-5,-9
1558438601433895,0,3,4,-3,-2,2,-4,-2
1558438601441895,0,3,4,0,0,-2,3,3
1558438601441895,2,-1,-9,-10,1,3,-1,1
1558438601457153,1,1,-1,9,-5,-1,-2,-1
1558438601457153,-2,-1,11,11,4,-1,1,-3
1558438601457153,-3,0,-11,-7,-1,-7,-2,-1
1558438601457153,1,-1,3,3,4,4,0,-3
1558438601471832,-3,-1,2,2,3,4,0,1
1558438601471832,-1,-2,-3,-6,0,0,0,1
1558438601479093,1,2,7,0,-4,-4,-8,-1
1558438601479093,0,4,6,11,2,-1,-5,1
1558438601494046,4,-6,-3,-10,-1,-2,0,-1
1558438601494046,-4,-2,-6,-6,-9,-1,-3,-8
1558438601500722,-6,-11,-18,-14,-11,-6,-3,-2
1558438601500722,0,4,2,2,5,-1,8,4
1558438601516693,-3,-6,-5,1,2,5,2,-1
1558438601516693,4,3,10,11,9,7,1,3
1558438601517674,-2,1,-1,-8,-4,-7,-2,-1
1558438601517674,-4,-4,-1,-2,-8,-3,-8,-6
1558438601530639,1,1,-1,4,-6,-9,-2,-2
1558438601530639,1,1,1,-3,0,2,6,5
1558438601538886,-3,2,9,2,-1,5,-6,-4
1558438601538886,-2,-4,-6,-4,-4,-3,-2,-3
1558438601553240,0,-1,9,5,5,3,8,0
1558438601553240,0,0,-15,-5,2,-3,1,2
1558438601561202,-2,-4,-10,-5,-6,-10,-5,-1
1558438601561202,-2,-5,-4,-3,-2,4,2,-2
1558438601577193,0,-2,4,2,-7,-2,-9,-5
1558438601577193,-1,3,10,12,6,4,4,-1
1558438601577193,6,3,8,7,9,8,13,6
1558438601577193,0,-1,-1,2,1,5,-3,-4
1558438601591163,-1,-5,0,-2,-5,-7,-4,1
1558438601591163,-1,-4,-14,-14,-3,-6,4,1
1558438601599142,0,1,-2,-5,-3,-4,-4,2
1558438601599142,-3,-2,0,1,-5,-9,-8,-9
1558438601613787,-1,1,7,11,9,13,0,1
1558438601613787,-1,-3,-11,-5,-14,-2,-8,-3
1558438601620824,0,-1,1,1,8,7,4,1
1558438601620824,4,4,-2,-4,5,-5,4,6
1558438601636977,-4,-1,2,1,1,-5,0,0
1558438601636977,-3,-7,13,17,2,-2,-6,-6
1558438601637915,-1,-3,-16,-30,-11,0,-1,-3
1558438601637915,-5,-7,-10,-8,-10,-6,-4,-1
1558438601651720,-2,0,1,5,3,-4,-2,0
1558438601651720,-1,0,-4,-8,-2,-2,-4,-1
1558438601658923,-2,-2,6,7,-3,-5,-6,-4
1558438601658923,0,2,2,0,5,12,6,2
1558438601673864,1,1,-12,-13,-6,-9,0,2
1558438601673864,0,1,11,3,5,4,6,1
1558438601681606,-1,-4,5,12,4,0,-3,-3
1558438601681606,-2,-3,-6,1,-6,-7,-2,-1
1558438601696143,-1,-1,0,3,-5,0,-3,0
1558438601696143,-1,0,-3,-5,-8,-5,-7,-2
1558438601703864,0,2,5,6,8,3,1,-1
1558438601703864,-2,-1,12,12,9,3,5,0
1558438601710844,1,-1,-4,4,0,0,1,-1
1558438601710844,-5,-1,-8,-11,-3,2,2,0
1558438601719090,-1,-2,-3,-2,-7,-2,-5,-2
1558438601719090,-1,-3,-2,0,-5,-6,0,0
1558438601734067,0,1,6,7,6,-6,-2,-1
1558438601734067,-1,-1,-9,-14,1,-2,1,1
1558438601741052,-2,-1,-2,2,-1,-1,-1,-1
1558438601741052,-2,3,0,-3,-9,-6,-3,0
1558438601756001,0,2,1,-1,-5,4,0,-3
1558438601756001,-2,-5,-19,-6,-3,-7,-3,-2
1558438601763709,-6,-5,-7,-8,-5,-3,0,-3
1558438601763709,0,-4,-1,-4,8,13,5,3
1558438601770951,-5,0,10,2,-4,-7,-8,-5
1558438601770951,-1,3,-2,-5,3,-1,-9,-1
1558438601778947,1,1,2,0,-1,3,0,2
1558438601778947,-3,-3,-5,1,-5,-7,-3,-4
1558438601793910,0,-5,-11,-13,-1,1,3,2
1558438601793910,2,1,9,7,4,8,1,1
1558438601801650,0,3,1,-2,1,4,2,2
1558438601801650,1,-2,0,0,0,-3,-3,-4
1558438601816653,-2,0,-2,2,0,3,3,0
1558438601816653,-1,1,2,3,-7,-5,-2,-4
1558438601824826,-2,0,0,-4,-5,-3,-2,-1
1558438601824826,1,-2,-5,-5,-4,-4,1,1
1558438601830528,-1,-3,6,5,13,6,6,4
1558438601830528,1,-2,-10,-4,1,0,2,1
1558438601838786,-2,4,-1,0,-7,-6,-4,-4
1558438601838786,-2,-4,-4,-9,-10,-12,-8,-4
1558438601853464,-1,2,-5,-6,0,7,-2,-1
1558438601853464,3,-1,14,11,3,-5,-2,2
1558438601860484,-4,-1,3,6,3,-3,1,0
1558438601860484,1,1,-1,-7,-1,9,-2,-2
1558438601876414,-3,-3,-7,1,-8,-7,-4,-5
1558438601876414,0,0,2,-1,-3,3,-3,-7
1558438601891420,1,-4,5,7,14,8,13,5
1558438601891420,1,1,3,0,6,-1,3,2
1558438601899341,0,-2,-6,-4,-2,2,-1,-2
1558438601899341,0,0,0,2,0,-3,-1,-1
1558438601899341,1,-4,-5,-6,-11,-5,-7,-5
1558438601899341,-3,1,0,2,2,1,-1,0
1558438601913303,0,0,1,-3,0,-4,1,1
1558438601913303,-1,-1,-2,-2,0,3,-1,-1
1558438601929260,1,3,1,-1,-2,-7,-2,0
1558438601929260,-4,-6,0,0,-1,1,-3,-5
1558438601936242,-5,-4,-5,-6,-2,4,0,-2
1558438601936242,-2,-1,2,1,0,-10,0,2
1558438601944282,0,-2,1,4,3,4,1,0
1558438601944282,0,0,-4,-2,1,2,1,1
1558438601967217,-1,-2,-2,-5,-5,-3,-1,-3
1558438601967217,-1,-3,6,6,4,2,2,1
1558438601968182,0,-3,-9,-4,-4,-1,1,0
1558438601968182,-2,-5,-13,-10,-4,-7,-10,-4
1558438601973143,0,-1,3,0,2,-1,3,1
1558438601973143,0,0,2,2,1,1,2,0
1558438601981147,0,3,5,5,3,-2,-1,-1
1558438601981147,-2,2,0,-2,-3,1,-2,-3
1558438601996080,-3,-4,-4,1,-1,2,-1,-2
1558438601996080,-1,0,2,4,-1,0,-3,-2
1558438602004062,-2,-3,-8,-13,-6,-8,-5,-2
1558438602004062,-1,-2,-1,1,-2,2,1,0
1558438602019019,3,3,-7,-10,-3,-7,-3,-2
1558438602019019,-1,0,-2,-3,-4,-3,-4,-4
1558438602020016,-6,-6,-4,6,-8,6,-5,-9
1558438602020016,3,0,-4,-18,-3,-10,6,4
1558438602032983,-2,0,-1,1,12,-3,5,3
1558438602032983,0,-2,-3,-1,1,-3,-1,2
1558438602040998,-1,0,4,3,3,3,5,0
1558438602040998,0,-2,-3,-1,3,16,1,-3
1558438602055949,-4,-2,-2,-3,-8,-1,-6,-3
1558438602055949,1,2,10,1,-5,-6,0,2
1558438602063899,0,-1,-16,-9,-4,-1,-8,-2
1558438602063899,-2,-1,3,6,-3,-2,-4,-2
1558438602079257,0,2,4,4,8,0,11,6
1558438602079257,0,-5,8,2,4,3,4,-1
1558438602079857,-6,-6,-21,-19,-11,-5,-6,-2
1558438602079857,-1,-2,-2,-2,-3,-5,-2,-1
1558438602094165,0,-1,-2,3,-8,-5,-11,-2
1558438602094165,0,1,4,2,1,-5,2,2
1558438602101266,1,2,4,3,3,-6,2,2
1558438602101266,-6,-2,-3,0,-6,0,-5,-4
1558438602115761,0,-1,5,3,0,1,-4,-3
1558438602115761,-4,-1,-8,-8,-3,0,-1,-2
1558438602123739,3,1,7,3,5,-2,-1,1
1558438602123739,-1,2,3,7,-2,-8,-1,2
1558438602138701,-1,-1,0,2,5,6,-1,-2
1558438602138701,-2,-1,-11,-14,-12,-2,-11,-2
1558438602139696,3,2,9,7,3,-6,-1,1
1558438602139696,0,1,4,-3,-2,7,4,-2
1558438602154099,-1,-1,-2,7,-7,-7,-8,-3
1558438602154099,2,3,-6,6,22,19,18,9
1558438602161868,-3,-3,8,6,4,5,0,-1
1558438602161868,0,-1,-1,-2,0,-1,-2,-3
1558438602176825,0,-1,1,-3,-11,-11,-5,-1
1558438602176825,-5,-3,-23,-22,-7,-6,-7,-6
1558438602191997,0,-3,5,8,1,7,5,1
1558438602191997,4,3,3,8,8,10,3,2
1558438602199480,-6,-6,-7,-15,-2,-1,-2,-2
1558438602199480,0,1,10,9,-5,-4,-8,-3
1558438602207438,0,0,-4,-7,-5,1,3,0
1558438602207438,-4,-6,-3,-6,-7,-17,-5,-3
1558438602212983,2,2,1,1,6,1,7,3
1558438602212983,0,-2,3,2,5,2,0,0
1558438602220959,-2,-2,-4,-7,-4,-7,-4,-3
1558438602220959,1,0,1,4,6,7,-1,0
1558438602235920,-2,-1,4,3,-4,4,-4,-2
1558438602235920,-1,-2,-6,-3,-2,-10,-3,-4
1558438602245022,-3,3,3,5,-2,-2,-1,-3
1558438602245022,-4,-6,-10,-7,-3,-3,0,0
1558438602259321,0,-2,-5,-5,-5,-8,-2,0
1558438602259321,-2,-1,0,0,-1,8,1,-1
1558438602259857,-1,-1,8,9,6,2,4,1
1558438602259857,-2,-3,-1,-4,-3,-7,-5,-4
1558438602274229,0,1,2,-2,1,7,3,0
1558438602274229,-2,-3,1,2,-4,-2,-4,-3
1558438602281307,0,1,-2,-1,-5,-4,-6,-5
1558438602281307,-1,0,-5,-10,-1,-2,2,0
1558438602296271,1,-2,-10,-5,-7,-10,-3,-2
1558438602296271,-1,-2,0,0,-3,2,1,1
1558438602304245,1,0,3,0,2,-2,-3,0
1558438602304245,0,1,2,7,2,-2,2,1
1558438602319208,1,0,4,-2,-1,4,-1,-3
1558438602319208,-3,-4,-3,3,-2,3,-1,-4
1558438602320203,-2,-3,-6,-6,-2,-5,-3,0
1558438602320203,1,0,0,-5,-3,-4,-3,0
1558438602333168,-1,-1,-14,-18,-3,-2,-4,-1
1558438602333168,-3,-4,1,-1,-4,0,-4,-4
1558438602341631,1,-3,-2,-1,1,2,3,2
1558438602341631,1,2,7,10,9,8,7,2
1558438602356543,3,3,0,7,-2,-5,1,-1
1558438602356543,-6,-3,-1,-5,0,-2,-5,1
1558438602364086,0,0,-6,-5,-4,-1,-5,-2
1558438602364086,-4,-2,5,1,-4,-2,-3,-3
1558438602379308,2,-2,4,2,1,2,3,0
1558438602379308,1,-1,-8,-2,-5,-9,-1,-3
1558438602380043,-2,-4,-3,3,-2,1,-2,-4
1558438602380043,3,1,7,9,12,7,5,4
1558438602393011,-2,-1,-6,-11,0,-3,-1,0
1558438602393011,0,-1,7,9,2,-4,-5,-3
1558438602401021,-1,0,-3,-8,-3,-1,-5,-3
1558438602401021,-3,-2,0,2,-4,-1,-3,-2
1558438602415948,-2,-3,-2,2,0,-6,0,1
1558438602415948,-3,1,-6,-14,-1,3,3,3
1558438602423943,-2,-1,0,2,-3,0,2,2
1558438602423943,-2,-3,-4,-2,-6,-3,-8,-4
1558438602438885,-3,1,8,3,0,1,5,-1
1558438602438885,3,3,-3,-2,2,-2,1,0
1558438602439881,-1,0,-2,0,-1,3,-3,-3
1558438602439881,-2,-2,-7,0,-8,-11,-6,-3
1558438602454265,-2,-1,3,7,-2,1,-5,-1
1558438602454265,1,-1,-3,-7,1,5,1,0
1558438602461864,0,0,5,1,3,-5,6,3
1558438602461864,-3,-3,-2,-2,-6,-1,-3,-3
1558438602484954,0,0,-2,-4,5,9,4,2
1558438602484954,1,1,3,1,0,-10,-4,-2
1558438602484954,-1,-2,-2,-7,-5,1,0,0
1558438602484954,-2,-4,-1,4,-2,-5,-3,-2
1558438602499888,-1,-2,-1,0,8,5,4,0
1558438602499888,0,0,3,3,-2,-5,-5,1
1558438602499888,-1,-1,1,4,6,8,4,1
1558438602499888,-3,0,-14,-17,-13,-4,-2,-4
1558438602513685,-6,-5,-1,-3,-10,-10,-9,-4
1558438602513685,0,-1,3,4,-3,4,2,-3
1558438602520717,0,1,1,1,7,6,9,3
1558438602520717,-2,-1,-3,-2,4,4,0,-1
1558438602535627,0,2,0,1,5,6,-1,0
1558438602535627,1,-1,-2,-1,-1,1,2,-1
1558438602543987,-6,-5,0,3,-7,-10,-8,-3
1558438602543987,4,0,4,4,-2,-3,-1,2
1558438602559958,-1,0,-8,-17,-2,-5,-3,-2
1558438602559958,-1,1,5,4,-1,6,-2,-3
1558438602559958,-1,-4,-1,-2,-2,0,0,-3
1558438602559958,-2,1,-1,3,1,-8,-3,1
1558438602573920,0,-2,1,-3,-7,-6,-3,-2
1558438602573920,-1,-1,-7,-5,1,0,2,0
1558438602581676,0,-3,-9,-14,-1,-6,-4,-2
1558438602581676,-1,-2,3,3,3,-1,-1,0
1558438602595799,-3,-2,4,5,-8,-2,-4,-4
1558438602595799,-3,-3,-6,-4,-6,-5,1,1
1558438602603715,2,0,8,7,8,3,1,1
1558438602603715,2,2,-2,-7,2,8,2,1
1558438602618679,-1,-1,-2,0,3,3,0,-5
1558438602618679,-4,-1,-3,2,-9,-12,-4,-1
1558438602626382,-3,-1,-2,-6,-6,-9,-7,-2
1558438602626382,0,-1,-3,-9,-5,1,0,-1
1558438602633641,-1,-2,5,7,-1,3,-3,-2
1558438602633641,0,-4,-12,-15,-2,-3,0,-1
1558438602641644,3,4,3,6,5,-9,3,1
1558438602641644,-1,0,3,0,7,5,2,2
1558438602656607,-3,-1,-3,2,-3,4,-2,-1
1558438602656607,-1,-3,-1,0,-5,0,-6,-3
1558438602663288,1,1,0,-2,-4,-5,0,1
1558438602663288,1,0,5,7,0,-11,0,1
1558438602680268,-4,-2,-12,-12,-3,5,-4,-4
1558438602680268,0,-2,4,3,5,5,6,3
1558438602687425,3,1,-1,1,9,11,4,4
1558438602687425,-1,-1,2,0,0,5,1,0
1558438602693504,2,0,3,4,1,-9,3,0
1558438602693504,0,-1,-1,0,-1,-1,-4,-3
1558438602701479,-4,-2,-4,-4,-10,-1,-8,-5
1558438602701479,1,0,1,0,4,1,0,-1
1558438602717436,1,-1,-3,0,-2,-2,1,3
1558438602717436,-2,-2,-1,-3,-5,-8,-2,0
1558438602723128,0,-2,-4,-2,-1,2,0,0
1558438602723128,-5,-3,5,11,1,6,-3,-3
1558438602738240,-1,-2,-9,-25,-4,1,4,4
1558438602738240,2,1,3,7,6,-2,5,3
1558438602747061,1,0,-1,-1,-5,-7,-2,-2
1558438602747061,0,0,-6,1,4,-1,-1,0
1558438602753407,1,0,-1,1,-4,-4,-6,0
1558438602753407,-1,0,8,12,-4,-3,-9,-5
1558438602761386,-5,-2,-6,-10,1,9,4,-3
1558438602761386,-4,-2,-12,-8,-3,5,6,0
1558438602776370,-1,0,1,5,7,0,3,3
1558438602776370,0,-4,-5,-8,-4,-1,-1,-1
1558438602784160,0,0,3,7,-2,-2,-6,-3
1558438602784160,-5,-3,-1,1,-2,-4,-3,-3
1558438602799327,0,-1,2,10,1,-8,1,-2
1558438602799327,1,0,0,-3,1,-1,-3,-2
1558438602807271,-2,-2,0,-2,-5,-2,-3,-1
1558438602807271,2,-1,-2,-5,1,2,0,-1
1558438602822228,0,-2,4,1,-5,-1,-6,-3
1558438602822228,0,0,-3,-5,-2,-2,3,-1
1558438602822228,-2,0,9,10,3,0,1,0
1558438602822228,-4,-4,-20,-26,-11,-2,-7,-3
1558438602835979,-2,0,-7,-11,-9,-10,-5,1
1558438602835979,6,7,4,10,7,-8,2,4
1558438602844140,-6,-3,-12,-16,4,20,7,3
1558438602844140,-2,-3,8,8,-5,-5,-2,-3
1558438602859103,-1,0,2,4,9,2,3,-2
1558438602859103,-3,-3,0,-1,-5,-2,-1,-2
1558438602867050,0,0,-6,-8,-4,-15,-9,-3
1558438602867050,3,0,4,1,4,-3,2,-1
1558438602882028,-3,-4,-3,-1,-5,-4,-5,-4
1558438602882028,-1,-1,2,4,4,8,2,1
1558438602882700,2,1,-1,2,-1,-7,3,1
1558438602882700,-3,0,3,3,-3,-10,-5,-1
1558438602895976,0,1,5,13,3,2,-2,0
1558438602895976,-4,-5,-18,-28,-4,-1,0,-2
1558438602903677,-3,-1,11,12,-3,1,-3,-3
1558438602903677,-2,-4,-18,-13,-6,-6,-2,-4
1558438602918820,0,0,-5,-3,0,-5,1,-1
1558438602918820,-2,-2,6,6,2,12,0,-5
1558438602926580,1,-3,-1,-3,-2,-8,-5,-3
1558438602926580,-1,0,10,10,4,4,5,1
1558438602941541,-3,0,1,-4,-3,0,-4,0
1558438602941541,-1,-1,-1,5,0,-4,-3,-1
1558438602942538,1,-1,-2,-2,-6,-9,-6,-1
1558438602942538,2,0,5,-7,2,3,0,0
1558438602955537,-2,-4,1,4,0,4,-2,-1
1558438602955537,-7,-5,-17,-12,-5,1,0,-3
1558438602963481,-1,-4,1,7,4,4,2,-1
1558438602963481,-1,-1,-5,-8,-5,-7,-1,2
1558438602978440,0,-1,-3,-1,3,11,4,-1
1558438602978440,0,2,8,5,0,-7,-1,-1
1558438602986454,-1,0,3,3,0,-12,-11,-3
1558438602986454,-1,2,0,1,-3,4,-5,-1
1558438603001438,1,-2,0,-3,5,7,5,0
1558438603001438,-2,-2,1,0,-2,5,-1,-3
1558438603002378,-2,-2,-4,-6,-3,1,2,-2
1558438603002378,-1,-4,8,5,-2,0,-6,-3
1558438603016398,-3,0,-1,0,-4,2,0,-1
1558438603016398,1,4,7,2,5,-9,1,4
1558438603023321,0,-2,-9,-5,-10,2,2,1
1558438603023321,-2,-2,-2,6,7,10,5,1
1558438603038282,-2,2,5,3,3,-7,-4,-2
1558438603038282,-2,-4,-6,-6,-7,-5,-1,-2
1558438603054238,0,-3,1,-4,-4,-7,-7,-5
1558438603054238,-1,-2,-6,-5,-1,3,-2,-3
1558438603061221,-2,0,0,4,-3,6,-1,-2
1558438603061221,1,1,8,1,0,-12,6,5
1558438603062218,-3,-2,-11,-7,-3,-3,-1,-1
1558438603062218,2,1,-1,1,9,2,6,4
1558438603076179,2,-1,0,-1,1,1,-1,-1
1558438603076179,-8,-3,0,2,-3,6,-9,-3
1558438603083160,1,-1,4,4,1,5,3,2
1558438603083160,-1,-1,-6,-5,-5,-8,-4,-1
1558438603098121,0,0,0,-1,4,0,5,1
1558438603098121,-2,-3,-3,4,-4,0,-4,-4
1558438603106099,-2,-2,1,-1,-3,1,0,-1
1558438603106099,-2,-1,-1,-1,-4,-4,-1,0
1558438603121060,1,2,2,0,-3,-6,-4,-1
1558438603121060,-2,-2,-2,5,2,0,-5,-2
1558438603122058,-1,-1,-11,-14,-3,10,0,-3
1558438603122058,1,-3,1,2,-2,-7,4,4
1558438603136019,-4,-2,-2,2,-3,-16,-6,-4
1558438603136019,3,0,2,-2,8,10,5,-1
1558438603144141,-1,2,4,1,2,2,0,1
1558438603144141,-1,0,-4,-7,-7,1,-5,-4
1558438603159265,-1,-2,3,5,-1,-2,-3,-3
1558438603159265,1,-1,-5,-10,-4,-3,-9,-2
1558438603167249,1,2,9,12,6,-1,4,4
1558438603167249,-3,-6,-20,-18,-11,-4,-7,-3
1558438603182314,0,-2,-4,-6,-6,-12,-3,-2
1558438603182314,3,0,4,7,0,1,6,4
1558438603182314,-3,-2,2,3,1,6,-2,-3
1558438603182314,-2,1,2,8,3,-4,2,0
1558438603196117,-3,-4,-4,-7,-1,3,-2,-1
1558438603196117,-2,-3,-7,-1,-3,-2,-1,-2
1558438603203879,5,1,2,0,2,-2,1,2
1558438603203879,-7,-2,6,11,2,-1,-2,-2
1558438603219173,-2,-1,-5,-11,-6,4,-6,-3
1558438603219173,-3,-1,0,-8,-10,-15,-5,-2
1558438603226807,0,-3,-4,2,11,7,8,5
1558438603226807,4,4,9,3,8,0,1,1
1558438603242098,-1,-5,-1,1,-1,4,-1,-1
1558438603242098,2,0,-1,-4,1,6,1,2
1558438603242735,-2,-2,-2,-5,-7,-7,-5,-4
1558438603242735,1,-1,0,-1,-4,-1,-2,-3
1558438603256750,-2,-1,0,2,-1,2,1,0
1558438603256750,1,-1,-4,0,-1,-4,-3,-2
1558438603263681,-2,-2,-4,-3,-3,-3,-2,-2
1558438603263681,-4,-2,2,-1,3,8,-2,-1
1558438603279021,1,1,0,-1,1,-5,3,4
1558438603279021,-5,-3,-2,0,-4,-2,-3,-4
1558438603286796,-1,1,-2,-3,0,-7,0,0
1558438603286796,-1,-4,1,-1,-1,-1,-1,-1
1558438603301930,1,-3,-5,0,-3,-3,-3,-3
1558438603301930,-2,-3,-1,-2,1,5,2,-1
1558438603302576,-2,0,2,3,-3,-14,-6,-1
1558438603302576,-1,-1,-2,-5,3,3,1,0
1558438603315798,0,1,0,-2,-6,-9,-2,-1
1558438603315798,0,-3,-11,-4,1,5,3,2
1558438603323782,-3,-1,-2,-2,-8,-5,-4,-2
1558438603323782,1,1,-2,-3,0,-2,1,3
1558438603338479,-1,-1,6,3,3,0,3,-1
1558438603338479,-1,0,-2,-1,-4,-3,-4,-2
1558438603354660,-3,-4,-3,1,0,4,-3,-3
1558438603354660,0,2,-2,-2,-5,-6,-6,-4
1558438603362856,0,1,2,-1,0,0,2,-1
1558438603362856,-4,-3,-1,-2,-3,-3,-2,-1
1558438603363413,-1,-2,1,-2,5,7,3,0
1558438603363413,2,2,4,8,-1,-10,-3,-1
1558438603376378,-2,-3,-1,-5,6,12,3,-2
1558438603376378,0,-1,-4,-1,-1,-2,-5,-1
1558438603383828,-2,1,0,-3,0,-3,2,0
1558438603383828,-2,-5,-3,-1,-9,-2,-3,-4
1558438603398733,-1,1,-7,-3,0,-8,-1,2
1558438603398733,0,-2,1,-1,4,3,-2,-2
1558438603406725,0,-3,-5,-4,-6,3,-1,-1
1558438603406725,2,-1,2,2,-3,-13,4,4
1558438603422482,0,0,1,-1,3,7,5,2
1558438603422482,1,0,4,6,3,-2,2,-1
1558438603422482,-2,-1,-2,-5,-5,-5,-11,-5
1558438603422482,-1,1,2,0,2,9,2,-1
1558438603436218,1,-2,-3,-3,-6,-12,-5,-2
1558438603436218,-2,4,6,3,6,6,6,2
1558438603443200,-3,-3,-6,-2,-5,-2,-5,-3
1558438603443200,0,-2,-5,-7,1,2,-2,-1
1558438603458160,-5,-1,1,7,0,-9,3,2
1558438603458160,-1,-2,2,-2,-4,-3,1,-1
1558438603466138,-1,1,4,4,5,4,5,0
1558438603466138,1,0,-2,-4,3,4,-2,-1
1558438603481096,1,0,-8,-5,-10,-2,-4,-1
1558438603481096,-3,0,-1,-2,-1,0,-1,0
1558438603482094,1,1,3,0,2,-1,1,1
1558438603482094,-1,-3,-1,0,4,9,3,-1
1558438603496057,-2,-1,3,-3,-2,-2,-3,-1
1558438603496057,0,-2,1,1,5,-5,3,2
1558438603504138,-2,-1,1,5,-3,-3,-5,-4
1558438603504138,-3,-2,-8,-14,1,10,0,0
1558438603519136,-4,-1,-3,-3,-6,0,-4,-2
1558438603519136,-2,0,-2,2,0,2,2,1
1558438603527302,2,0,2,0,-2,-6,-1,0
1558438603527302,0,1,0,-1,-1,-1,-2,-2
1558438603540940,-1,-2,-4,2,-2,3,1,1
1558438603540940,0,3,1,-4,-4,-5,-2,0
1558438603548917,-2,-2,-3,-1,-2,1,0,-1
1558438603548917,-5,-2,-3,-2,-4,-4,-3,-1
1558438603555898,2,-1,4,3,12,7,4,1
1558438603555898,-1,-2,-3,-2,1,-2,0,0
1558438603562878,0,0,0,0,0,0,0,-1
1558438603562878,0,0,-2,2,-1,6,2,0
1558438603579295,-2,-3,2,-2,0,1,-3,-4
1558438603579295,0,-1,-3,-2,-5,-7,-6,-2
1558438603587017,-2,0,-7,-10,-5,-2,-2,0
1558438603587017,-3,-2,0,5,-2,-11,-4,-3
1558438603601881,0,-2,1,1,-3,4,-1,-2
1558438603601881,-1,-3,-3,-2,-2,-4,-2,-4
1558438603609837,0,0,0,-2,-4,-3,-2,-3
1558438603609837,1,1,1,2,7,7,2,3
1558438603616764,1,3,3,-1,2,4,6,3
1558438603616764,0,0,2,4,1,-2,0,2
1558438603623973,-1,-4,-7,-12,-1,2,1,0
1558438603623973,-3,0,5,3,-6,-6,-4,-4
1558438603639038,-1,-1,-6,-3,1,1,-5,-1
1558438603639038,-4,-4,-1,1,-4,2,-4,-3
1558438603646657,0,0,3,4,-2,-2,0,1
1558438603646657,-3,-6,-8,-6,-4,-6,-6,-5
1558438603661765,-2,-4,-8,-2,0,-3,0,0
1558438603661765,-2,1,3,2,-3,-1,-2,-2
1558438603668892,-1,-1,-3,1,3,4,4,-1
1558438603668892,0,3,4,-1,-5,-4,-3,0
1558438603676749,-1,-2,-3,1,0,0,-2,-1
1558438603676749,-1,1,0,1,-4,-10,-3,0
1558438603683585,-3,-2,-1,-1,3,8,3,-3
1558438603683585,1,0,-1,0,0,2,1,0
1558438603698710,-3,-2,-1,-1,-3,-1,-6,-2
1558438603698710,2,1,2,1,-4,-10,-3,1
1558438603706771,2,1,-2,-7,6,2,4,1
1558438603706771,0,-1,-3,2,-5,-13,-2,-1
1558438603721647,-2,-3,-3,-2,0,4,2,-1
1558438603721647,-6,-6,-2,-1,2,11,-2,-2
1558438603729432,-1,1,0,6,0,-7,-2,1
1558438603729432,0,0,3,-1,-1,1,-2,1
1558438603744420,3,1,-1,-4,-4,-11,-2,-3
1558438603744420,1,-1,-5,0,1,2,-1,1
1558438603744420,-2,-3,-6,-6,-2,-2,-3,0
1558438603744420,-3,-4,4,4,2,2,3,-1
1558438603758355,-4,1,5,-2,-6,-3,-4,-5
1558438603758355,1,1,-6,-7,0,5,3,-2
1558438603767380,-2,-2,2,2,-1,-4,-1,3
1558438603767380,-1,-2,0,-2,-1,4,2,-2
1558438603781294,2,0,-1,-1,1,1,-2,3
1558438603781294,0,0,2,1,1,-6,1,0
1558438603789773,-2,0,-4,-5,-6,-5,-5,-3
1558438603789773,-3,-2,3,8,0,-4,-6,1
1558438603804234,-1,-3,-4,-6,-3,1,-2,-2
1558438603804234,1,-1,-2,-7,4,6,3,1
1558438603805243,2,0,9,6,-1,-10,-5,0
1558438603805243,-2,-2,-12,-16,-7,-3,-5,-3
1558438603818665,0,-1,0,0,-4,1,0,2
1558438603818665,0,0,2,1,2,5,0,0
1558438603827475,-1,-4,-5,-4,2,1,1,0
1558438603827475,1,-1,0,5,-4,-9,-2,-1
1558438603841605,2,1,1,1,-2,1,4,1
1558438603841605,0,-1,-2,-1,-3,-1,-4,-1
1558438603849424,-3,0,-4,-4,1,2,1,-2
1558438603849424,-1,0,2,1,0,1,1,-1
1558438603864316,-2,-2,-11,-8,-4,-8,-2,-1
1558438603864316,1,1,0,0,-2,-6,-2,-3
1558438603865072,-4,-2,2,7,0,7,0,-1
1558438603865072,-2,-2,-4,-12,-2,-5,-1,-1
1558438603879155,-2,-1,5,7,-1,-4,-4,-2
1558438603879155,-3,-3,-1,-6,-4,6,0,-4
1558438603887257,1,0,-4,-1,0,-4,-2,0
1558438603887257,-1,1,1,3,2,6,4,1
1558438603901201,-1,-2,-3,-5,-1,-6,-4,0
1558438603901201,-1,-3,0,4,2,1,-1,-2
1558438603909196,0,-1,-4,-5,-7,-8,-5,-3
1558438603909196,1,2,9,8,7,5,2,3
1558438603930895,1,1,0,-1,3,8,4,-1
1558438603930895,0,-2,-5,0,-2,-2,-7,-2
1558438603939871,-2,-2,-2,-3,-5,-2,-2,2
1558438603939871,-3,-1,-2,-1,0,-5,-3,-1
1558438603940868,-3,-1,9,8,6,4,4,-1
1558438603940868,0,2,3,3,4,0,3,2
1558438603946852,0,0,1,-2,-1,4,0,-3
1558438603946852,-2,-4,-8,-5,-9,-1,-5,-2
1558438603960816,-1,-3,5,8,3,-7,-4,0
1558438603960816,-1,0,-5,-11,-3,-2,3,-1
1558438603969122,0,-1,-2,4,-1,1,-4,-2
1558438603969122,0,0,0,-5,-1,4,-2,-3
1558438603984787,0,0,-2,2,-3,0,-1,-4
1558438603984787,-3,-1,-9,-11,0,-9,2,4
1558438603984787,0,0,3,3,0,0,3,0
1558438603984787,0,-3,-2,2,4,1,1,0
1558438603998712,-2,0,-1,-4,-1,0,-2,1
1558438603998712,-2,-4,6,3,-5,1,-4,-4
1558438604006727,-2,-3,-3,-3,-1,-3,-3,-1
1558438604006727,0,0,3,1,1,-6,0,0
1558438604020655,0,-2,-2,-4,-6,-4,-5,-1
1558438604020655,-3,-2,-4,-1,-10,-8,-5,-5
1558438604028631,-1,1,-1,0,0,-1,-1,-2
1558438604028631,-2,0,-1,-3,4,10,3,1
1558438604043593,-2,-2,-6,-4,2,1,4,2
1558438604043593,-3,-3,0,1,-2,-3,1,-1
1558438604044598,1,0,3,-3,-2,-11,-4,-1
1558438604044598,-4,-3,0,12,-6,-13,-5,-3
1558438604058553,2,0,-4,-19,-6,11,1,-2
1558438604058553,-1,0,-10,-5,-1,-6,-1,0
1558438604066531,0,-1,6,1,1,-4,4,2
1558438604066531,-2,0,-3,-2,-1,5,2,-3
1558438604080494,-3,-1,0,0,-7,-9,-4,-3
1558438604080494,-2,-1,0,-1,-4,1,-8,-3
1558438604089476,-2,0,5,4,-5,5,0,-2
1558438604089476,1,-1,-1,-8,-2,-1,2,2
1558438604104674,-2,-4,1,6,0,-3,-5,-3
1558438604104674,1,2,4,-4,9,14,6,1
1558438604104674,-5,-7,-17,-10,-3,-2,-3,-3
1558438604104674,1,3,5,2,3,-15,-2,1
1558438604118396,-2,-1,-1,0,-4,-8,-3,-4
1558438604118396,-3,-1,2,4,-6,-3,-6,-2
1558438604126371,0,-2,0,1,3,5,4,1
1558438604126371,-2,-1,-4,-1,-5,1,-4,-4
1558438604141768,0,-1,-5,-5,4,8,3,1
1558438604141768,2,0,5,5,7,-17,0,1
1558438604149309,-1,-1,-6,-9,0,10,4,-1
1558438604149309,-3,-2,2,6,4,7,3,-2
1558438604164271,0,2,4,2,-6,-8,-10,-1
1558438604164271,-1,-2,-11,-5,-3,10,2,1
1558438604165267,0,2,8,5,2,-1,-3,-1
1558438604165267,-2,-3,-13,-8,-4,-5,-5,-4
1558438604178232,-1,-1,-6,0,4,0,1,-1
1558438604178232,-3,-3,1,3,-1,2,3,-1
1558438604186277,-2,-4,-5,-3,-3,-4,-4,-1
1558438604186277,1,-1,-1,-8,-7,-1,-1,-2
1558438604201350,-1,-1,0,0,2,2,1,-2
1558438604201350,0,0,-1,3,1,1,-2,-1
1558438604209160,1,0,2,2,-4,-3,-4,-3
1558438604209160,1,-1,2,2,8,7,10,1
1558438604224120,-1,-2,0,2,-1,-7,3,0
1558438604224120,-1,0,-2,-5,-5,0,-3,1
1558438604225108,-2,-1,-1,0,-5,1,-4,-2
1558438604225108,0,0,5,-2,1,-2,-1,0
1558438604238072,-1,-2,1,1,2,0,4,4
1558438604238072,1,-1,-2,3,4,3,-2,-3
1558438604247052,-3,-3,-3,-4,-1,-2,-6,-6
1558438604247052,-3,-1,-7,-4,-5,-4,-2,-2
1558438604261011,-1,2,4,0,1,-1,0,-1
1558438604261011,-2,-4,-5,-2,-5,-3,-1,-2
1558438604268990,1,0,-2,-1,0,-3,1,1
1558438604268990,0,0,1,3,-2,4,-4,1
1558438604283950,-3,-2,0,-1,-3,-4,0,-1
1558438604283950,0,0,6,0,2,-1,-4,-4
1558438604284948,0,-2,1,0,2,1,0,-2
1558438604284948,-2,-3,-9,-8,0,5,4,1
1558438604299118,0,-1,-2,-1,-3,-7,-1,-2
1558438604299118,1,3,4,0,0,-6,-1,0
1558438604305891,-1,1,6,5,-2,-1,-3,0
1558438604305891,0,-3,-2,-2,-7,-12,-3,1
1558438604320856,-3,-2,-3,-2,-4,2,-3,0
1558438604320856,-3,0,2,0,2,0,2,0
1558438604328829,-3,-1,-4,-3,-2,-2,-2,-2
1558438604328829,-2,0,-3,2,-5,-5,-3,-3
1558438604343790,-1,-1,-1,-1,5,5,1,2
1558438604343790,0,-5,-4,-2,-6,-7,-8,-2
1558438604344787,-2,0,1,2,-2,0,6,4
1558438604344787,0,-1,3,4,6,5,3,2
1558438604358752,-2,0,3,-1,-3,-1,-2,-2
1558438604358752,-1,-1,-7,-6,-4,-3,-6,-3
1558438604365732,-2,-2,-1,-1,-7,2,-4,-4
1558438604365732,-1,-2,1,2,1,2,2,-1
1558438604389669,-1,1,-1,2,3,-7,2,-1
1558438604389669,-1,-1,-3,-4,-5,1,-4,-3
1558438604390666,-2,-2,-4,-4,3,8,0,0
1558438604390666,-1,0,2,-2,-8,-9,-6,-2
1558438604420585,-1,1,2,-1,-2,-4,-5,-5
1558438604420585,0,-3,-1,-2,1,5,0,-2
1558438604421582,0,0,0,-3,-4,-15,-1,2
1558438604421582,0,2,1,-1,3,-1,-5,0
1558438604422580,-1,-2,-3,-2,-2,4,-1,0
1558438604422580,-1,1,3,2,1,4,4,2
1558438604425571,1,1,-3,-3,0,4,2,2
1558438604425571,-1,-2,1,1,2,2,-1,-1
1558438604442525,-4,-6,-6,-2,-6,-3,-5,-3
1558438604442525,-1,-3,-4,-3,-5,-7,-2,-2
1558438604448511,1,0,1,0,3,-3,4,1
1558438604448511,-2,3,1,0,2,-1,-2,-1
1558438604463472,1,-3,1,3,-1,4,-1,-1
1558438604463472,-1,-1,-5,-6,-4,-5,1,2
1558438604471448,-2,-2,-1,2,-1,-1,-4,-3
1558438604471448,-3,-3,-3,1,-2,6,-2,-3
1558438604478430,0,0,-6,-9,1,-4,2,2
1558438604478430,-3,1,3,3,-2,-3,2,-1
1558438604486421,-1,-2,0,-3,-3,-6,-6,-4
1558438604486421,-1,-5,-12,-11,-6,4,-1,-1
1558438604500581,-2,-1,-3,-2,-4,-3,-6,-2
1558438604500581,1,0,3,8,1,-1,0,-1
1558438604509348,0,-1,-5,-13,-5,-3,-3,-4
1558438604509348,-1,-2,-3,-1,2,5,-4,-3
1558438604523311,1,-2,3,-1,1,-7,1,0
1558438604523311,-3,-4,-9,-5,-4,2,2,-1
1558438604531323,-3,-2,2,4,1,4,-1,-1
1558438604531323,1,-1,0,1,1,-2,3,-2
1558438604538269,-1,2,0,-1,-6,-7,-3,-3
1558438604538269,1,2,2,1,0,-3,-2,0
1558438604554228,0,-2,-1,-2,0,0,-3,-2
1558438604554228,2,0,0,0,2,1,1,1
1558438604561208,0,0,0,4,3,7,1,1
1558438604561208,-2,-3,1,-1,1,7,-2,-3
1558438604569198,0,0,-4,-2,-6,-13,0,1
1558438604569198,3,0,4,2,12,-4,10,6
1558438604592131,-1,-1,-1,2,-2,0,-3,-5
1558438604592131,-1,0,4,-2,-3,-3,-3,-3
1558438604593123,0,-3,-2,5,2,-4,-1,0
1558438604593123,-2,-1,-1,-11,-3,6,1,-1
1558438604598110,-1,0,2,2,0,-2,-1,-1
1558438604598110,-2,-1,-3,2,7,8,4,-1
1558438604606089,-4,-2,-11,-11,-5,-2,-5,-5
1558438604606089,-3,-1,1,2,-5,3,-4,-6
1558438604630025,3,2,2,1,2,-3,4,4
1558438604630025,1,4,5,3,-1,1,3,4
1558438604630025,2,-2,2,0,3,-13,5,2
1558438604630025,-2,-2,1,3,-6,5,-1,-3
1558438604642991,-2,-1,-11,-9,0,3,-4,-2
1558438604642991,-1,0,1,1,1,0,-4,-2
1558438604651965,-1,3,5,8,8,3,5,3
1558438604651965,-4,-3,-9,-14,-15,-10,-7,-3
1558438604666925,1,1,2,4,6,13,3,1
1558438604666925,-1,-3,1,2,-3,-7,-9,-3
1558438604666925,-2,-1,-7,-10,1,7,6,1
1558438604666925,-2,0,-1,4,-4,-13,-3,-5
1558438604680890,-3,-2,-4,-7,-3,0,-2,-4
1558438604680890,-3,-5,-10,-9,-2,-1,-1,-2
1558438604688866,-1,-3,2,8,-3,0,-5,-4
1558438604688866,1,4,9,10,1,-1,-2,-1
1558438604702830,-1,-3,-2,-1,-4,0,0,-1
1558438604702830,-1,0,-1,-1,-1,-5,4,1
1558438604711805,0,2,0,-2,3,-2,1,2
1558438604711805,-2,-1,2,2,0,4,1,-1
1558438604726764,-2,0,-7,-3,-9,-4,-5,-2
1558438604726764,-1,-3,0,-1,4,-5,-5,0
1558438604726764,0,-1,1,2,2,2,3,2
1558438604726764,-2,-3,-2,-6,1,3,0,0
1558438604740731,-1,-2,2,1,-1,0,1,2
1558438604740731,-1,-1,-5,-5,-8,-3,-2,-3
1558438604748706,1,2,2,0,6,5,4,1
1558438604748706,-2,-1,-2,1,6,3,-4,-1
1558438604763670,-1,-2,7,4,-4,-4,0,1
1558438604763670,-1,-3,-14,-13,-8,-11,-4,-2
1558438604771645,-1,1,11,5,5,11,2,-2
1558438604771645,-1,-3,-16,-5,-4,0,-1,-1
1558438604786610,0,-1,1,2,2,4,1,0
1558438604786610,-4,-4,-5,-4,-5,-3,-3,-2
1558438604787602,1,0,1,2,-3,-12,-4,0
1558438604787602,0,0,4,2,2,-4,-1,1
1558438604800573,1,-1,-3,-6,-1,-2,-4,-2
1558438604800573,-1,0,9,9,9,5,2,2
1558438604808546,-3,-4,-13,-8,-8,-3,-5,-4
1558438604808546,0,0,-1,-3,6,10,5,2
1558438604823507,-2,-2,-5,-4,-3,-5,-2,0
1558438604823507,1,1,5,0,2,1,5,2
1558438604831485,1,-2,0,1,2,6,-3,-1
1558438604831485,-1,-3,-5,-5,-7,-10,-5,-2
1558438604854423,-2,0,-1,0,-4,-11,0,-1
1558438604854423,-2,1,3,3,3,6,1,0
1558438604855423,-2,-2,-5,-9,-6,0,-4,-4
1558438604855423,-4,-8,-1,1,-7,-6,-1,-1
1558438604860414,0,0,3,-3,2,5,-4,-2
1558438604860414,0,-3,-3,2,-5,-7,-1,0
1558438604869384,-1,0,-5,-5,0,4,3,1
1558438604869384,0,1,2,3,-1,-12,-2,0
1558438604883350,-1,-2,2,0,4,0,-2,-3
1558438604883350,-1,-1,-4,-8,-3,6,2,-1
1558438604891327,-2,-4,-5,2,-8,-3,-8,-3
1558438604891327,-2,1,6,2,8,2,3,-1
1558438604906290,-3,-2,-16,-17,-12,-25,-5,-3
1558438604906290,0,0,4,3,5,4,-1,0
1558438604907282,-1,0,-1,-1,-1,2,0,1
1558438604907282,0,0,2,0,-3,-2,-5,-2
1558438604921247,-2,-2,-1,8,0,3,-1,0
1558438604921247,-3,-3,-3,-3,-8,-2,-2,-4
1558438604929225,0,-2,1,-2,0,-9,-2,-1
1558438604929225,2,-1,2,0,-2,-7,-4,-3
1558438604943186,2,0,1,0,0,2,0,-1
1558438604943186,1,0,0,-1,-1,-2,1,0
1558438604951165,-1,-1,-1,1,2,3,1,-1
1558438604951165,0,3,3,1,2,3,0,1
1558438604966126,-2,-3,-9,-2,-4,-1,0,-1
1558438604966126,-5,-1,1,0,-4,1,-5,-5
1558438604967123,-1,0,4,-1,0,0,-2,-2
1558438604967123,2,1,2,-1,4,7,6,4
1558438604981096,0,-2,-8,-3,3,4,2,0
1558438604981096,1,1,6,2,0,-1,-3,0
1558438604989073,-1,-2,-5,1,1,2,0,-2
1558438604989073,-1,-1,-1,0,-3,8,4,1
1558438605003028,-1,0,4,-6,4,2,-2,1
1558438605003028,0,0,-1,6,-2,6,3,-1
1558438605011006,-2,0,1,-1,-6,-9,-1,-2
1558438605011006,3,1,4,4,4,6,1,-2
1558438605026964,-2,-3,-2,0,2,3,2,-1
1558438605026964,-2,-2,-6,-11,-3,-4,-4,-2
1558438605041922,0,1,5,1,-1,3,-3,1
1558438605041922,0,0,-6,-4,-7,-16,-5,-2
1558438605043917,-3,-3,3,3,-5,0,0,0
1558438605043917,2,1,2,0,3,-4,1,-1
1558438605048902,-3,-5,-7,-6,-2,-2,-1,-4
1558438605048902,-2,-1,-3,-4,-1,3,-1,0
1558438605062866,-2,3,10,6,-2,-7,-5,-1
1558438605062866,-1,-2,-12,-5,1,-2,-1,-2
1558438605071847,-1,-3,-5,-4,-4,-1,0,0
1558438605071847,0,-3,-5,-1,-2,-5,-4,-2
1558438605086803,-1,-1,3,-3,-4,1,-2,-3
1558438605086803,-2,-2,4,2,-3,-5,-2,0
1558438605086803,1,0,3,3,9,11,5,1
1558438605086803,-3,-1,-2,-2,1,-8,-1,-2
1558438605100770,0,0,-5,-4,2,4,0,3
1558438605100770,0,-2,-7,-10,-13,-10,-6,-3
1558438605108744,-2,-3,-3,-2,-3,-2,-4,0
1558438605108744,1,0,8,6,2,0,3,2
1558438605123703,1,1,1,4,3,-1,-3,-2
1558438605123703,1,0,-1,1,6,13,7,3
1558438605131688,0,1,2,1,-6,-9,0,-3
1558438605131688,0,-2,0,-1,1,-1,-3,-1
1558438605146646,-1,0,-4,-3,-2,3,-1,-1
1558438605146646,-1,-2,3,6,-5,-6,-2,-1
1558438605147641,-2,0,2,1,2,7,2,-3
1558438605147641,-2,2,3,5,-3,-2,0,-2
1558438605160605,-2,-2,-11,-12,1,5,2,-1
1558438605160605,-3,1,-1,-7,-6,-12,-7,1
1558438605168583,-1,1,-9,-5,-1,-4,-3,2
1558438605168583,-2,-3,0,-1,-1,4,-1,-3
1558438605183547,-1,-1,-3,5,-3,0,-2,-2
1558438605183547,0,-2,-3,0,0,6,1,-1
1558438605191521,-2,-1,6,3,-4,-5,-5,-2
1558438605191521,-2,-1,-7,-5,-3,-2,-3,0
1558438605206482,-1,-2,4,0,0,-8,-2,0
1558438605206482,-1,1,2,5,8,10,7,1
1558438605207479,-1,0,-1,-2,-3,-4,-5,-1
1558438605207479,-3,-4,-10,-5,-3,-7,-4,-1
1558438605229421,-1,-2,4,7,-2,2,0,-2
1558438605229421,-1,1,0,-4,0,-9,-2,-2
1558438605230419,0,-1,0,3,1,2,2,0
1558438605230419,-3,-4,-6,-4,-7,-5,-3,-5
1558438605243386,1,1,12,9,6,6,3,3
1558438605243386,-2,-3,-14,-8,-2,-5,-2,-1
1558438605259344,-2,-1,0,-1,0,3,0,0
1558438605259344,0,2,3,-6,1,-1,1,-1
1558438605274300,-1,2,4,6,-3,-6,0,0
1558438605274300,-2,-4,-4,-2,-5,3,-5,-4
1558438605275298,-3,-2,-9,-6,-3,2,1,0
1558438605275298,0,-1,0,1,-4,-15,-1,3
1558438605280288,0,-1,2,-3,3,1,0,-3
1558438605280288,0,-1,1,2,4,5,-3,0
1558438605296243,-1,-1,-1,-3,-2,-1,0,-2
1558438605296243,-3,-2,1,1,-2,4,-2,-2
1558438605303227,0,0,-5,-6,-4,-12,-3,1
1558438605303227,2,-1,6,5,6,1,3,4
1558438605313198,-2,-3,-1,-5,-2,-1,-3,-2
1558438605313198,-2,0,-6,-5,-5,3,-2,-2
1558438605326162,1,1,2,-3,-7,-13,-4,-1
1558438605326162,-1,-1,0,5,-1,-5,1,1
1558438605327161,0,-4,-7,-6,4,1,1,0
1558438605327161,-1,1,-1,-3,-3,0,-4,-1
1558438605341125,-3,0,0,-2,-4,0,-1,0
1558438605341125,-1,1,-4,-2,1,1,1,-3
1558438605349101,0,-2,-1,2,-1,1,2,0
1558438605349101,-2,-1,-1,-4,-7,-13,-3,-2
1558438605363067,-1,-3,-4,4,2,7,1,-1
1558438605363067,0,-1,1,-5,-1,3,2,1
1558438605371044,-1,1,4,4,4,-4,-2,-2
1558438605371044,0,-3,-5,-2,3,9,2,-3
1558438605386006,-3,-2,-3,0,-1,-10,-8,-1
1558438605386006,-1,-2,2,2,4,3,-2,-2
1558438605386999,-3,-2,-3,-1,-13,-13,-5,-4
1558438605386999,0,1,1,2,5,6,6,1
1558438605400964,-1,-1,-3,-3,1,8,-1,-2
1558438605400964,1,-1,1,-1,2,-8,-7,-1
1558438605408941,1,-1,3,5,2,0,2,1
1558438605408941,1,0,-2,-3,-3,1,-2,-2
1558438605422909,2,-1,2,2,2,5,6,2
1558438605422909,-3,-1,3,0,-5,-4,-5,-3
1558438605431880,-2,1,-6,-14,-7,-4,-8,-2
1558438605431880,-1,-1,-4,0,0,3,4,4
1558438605445845,0,-1,1,-1,1,-3,-1,-1
1558438605445845,-1,-1,-4,1,-5,-1,3,-1
1558438605453824,1,0,4,4,2,-4,3,0
1558438605453824,-3,-2,-2,1,-1,1,-2,-2
1558438605460801,-4,-3,-7,-11,-6,-4,0,-3
1558438605460801,2,1,4,6,3,-1,-2,0
1558438605468786,-1,-1,-5,-6,-3,6,0,-2
1558438605468786,-2,-2,1,0,1,-6,-2,-1
1558438605483741,1,-2,-1,3,0,-2,-1,0
1558438605483741,-3,-4,-2,0,2,-4,0,-2
1558438605491726,-1,-1,0,5,-3,-1,-2,0
1558438605491726,-2,-4,-1,-4,-3,-1,-4,-3
1558438605505681,-2,-2,-2,-7,-8,-6,-3,1
1558438605505681,-1,3,-7,-8,-5,-1,-1,0
