timestamp,emg1,emg2,emg3,emg4,emg5,emg6,emg7,emg8
1558438569681475,1,1,1,2,2,0,-1,-2
1558438569681475,0,0,0,0,-2,-4,-1,-1
1558438569682472,-2,-1,4,4,1,3,0,-1
1558438569682472,-3,-2,-4,-12,-4,-5,-3,-4
1558438569683468,-1,0,1,2,10,5,2,2
1558438569683468,-1,-1,-10,-7,-6,-8,-1,-1
1558438569683468,-2,-1,6,7,0,2,1,-1
1558438569683468,-3,-3,-3,-2,-1,-1,0,1
1558438569694439,-1,-1,2,5,-5,-4,-2,-1
1558438569694439,0,-3,2,2,0,5,0,-2
1558438569704415,2,1,-3,-6,2,1,-4,0
1558438569704415,0,-1,2,13,-4,-1,3,-2
1558438569709399,-1,1,0,-11,5,-1,4,4
1558438569709399,0,2,10,11,7,1,1,1
1558438569725357,-1,-4,-11,-4,-9,-12,-4,-4
1558438569725357,-1,-3,-9,-12,0,8,3,-1
1558438569733336,-3,-3,-9,-3,-10,-3,-5,-6
1558438569733336,-2,0,-1,0,-1,6,-3,-1
1558438569739319,0,1,1,2,-1,-3,3,0
1558438569739319,-1,-1,1,-2,-2,-6,-2,-3
1558438569754279,0,-1,-3,-1,-6,-1,-4,-3
1558438569754279,0,-1,-2,-4,-1,-2,-3,1
1558438569763255,1,-1,0,-1,3,-5,0,3
1558438569763255,1,3,2,3,0,-1,-1,3
1558438569803148,-4,-4,7,3,6,5,3,-1
1558438569803148,2,-2,2,-1,-8,1,-2,-3
1558438569803148,-6,-3,-10,-13,-9,-4,-2,-3
1558438569803148,-2,-3,-1,0,-4,-7,-3,-1
1558438569804146,-1,-2,-7,-5,-2,3,1,-1
1558438569804146,0,-1,-1,3,-2,-6,-4,-5
1558438569807138,2,0,4,6,8,4,7,3
1558438569807138,-2,-1,-3,-6,-8,-2,-6,-5
1558438569814119,1,3,11,12,1,-3,-3,-3
1558438569814119,-3,-4,-15,-24,9,6,6,4
1558438569823094,-1,-1,-2,1,-4,-6,-5,-3
1558438569823094,-3,-1,-2,1,3,3,2,0
1558438569829079,-2,1,-2,-2,-10,-6,-3,-3
1558438569829079,-1,0,4,3,0,0,-1,2
1558438569845036,0,1,2,1,2,-3,1,2
1558438569845036,0,-1,-1,-2,1,4,-1,-1
1558438569852017,-1,-3,-2,-1,-3,1,-6,-4
1558438569852017,1,0,-1,0,1,-8,-2,3
1558438569859996,2,1,7,8,2,-1,-1,2
1558438569859996,1,-3,-11,-11,0,5,8,1
1558438569874964,-3,-3,-10,-9,-1,-1,-2,-1
1558438569874964,-1,-1,0,3,2,3,1,1
1558438569882934,-4,-4,0,-2,-2,3,-2,-4
1558438569882934,-1,-1,1,6,2,-7,-6,-2
1558438569889916,-1,0,-3,-2,0,-2,1,0
1558438569889916,2,0,2,-1,2,7,2,0
1558438569904876,-2,-2,-2,0,-8,0,-8,-5
1558438569904876,-2,-3,0,-3,4,9,6,3
1558438569911858,2,0,9,3,0,-9,1,3
1558438569911858,-1,0,-5,-1,-4,-1,-3,-4
1558438569919835,0,0,0,2,-1,-3,-2,-2
1558438569919835,-1,-2,-4,-5,-5,2,-5,-1
1558438569935793,1,1,2,1,2,0,-3,1
1558438569935793,-4,2,3,3,-6,-10,-2,-3
1558438569942775,0,-1,-3,-1,3,4,-1,-2
1558438569942775,1,1,0,-1,-5,-9,-4,-2
1558438569949756,-1,0,-7,-11,1,-1,2,0
1558438569949756,1,-1,2,0,-3,-2,-1,-1
1558438569964717,-1,-3,-5,-7,-2,-1,-1,0
1558438569964717,0,0,8,7,3,1,0,-2
1558438569971698,0,-2,-7,1,-2,-1,-4,-1
1558438569971698,-1,-1,-4,-2,-6,-1,-4,-2
1558438569979676,-1,0,5,-1,-2,0,-1,-1
1558438569979676,3,2,4,4,6,-5,2,2
1558438569994636,-3,1,1,-2,-4,-5,-1,-2
1558438569994636,-1,-2,-2,3,10,13,4,1
1558438570002614,1,-1,-4,-6,0,3,2,1
1558438570002614,-3,-2,4,5,-2,-4,-5,-1
1558438570009595,-1,-5,-7,-11,-1,2,0,2
1558438570009595,-3,-2,2,5,-1,-1,-5,-4
1558438570025553,5,2,-1,-2,2,3,-1,0
1558438570025553,-8,-4,-9,-7,-8,11,-4,-7
1558438570031537,3,-1,7,10,3,-15,-3,2
1558438570031537,1,2,7,3,8,-6,4,5
1558438570039516,-2,-3,-8,-10,-10,-6,-5,-3
1558438570039516,1,1,5,10,8,10,5,1
1558438570054477,-2,-1,1,4,-5,1,-3,-2
1558438570054477,-2,-3,0,-6,-6,-5,-4,-3
1558438570062459,-3,-1,-6,-1,3,1,2,0
1558438570062459,0,-2,2,1,-4,-4,-2,-1
1558438570069439,-1,-2,-8,-10,-4,9,2,-1
1558438570069439,-1,-2,0,5,-6,-4,-6,-3
1558438570085396,-2,1,6,5,3,-5,0,2
1558438570085396,1,1,0,-3,1,-7,2,2
1558438570092375,2,2,6,8,8,13,3,-1
1558438570092375,-4,-4,-12,-22,-9,-9,-5,-4
1558438570099356,-4,-1,1,0,-5,0,-1,-1
1558438570099356,-3,-3,-12,-6,-6,-9,-9,-5
1558438570114317,-3,-3,-4,-3,6,15,6,-1
1558438570114317,0,0,0,3,-3,-7,-4,-1
1558438570122295,0,-3,-1,0,-1,-8,-2,-3
1558438570122295,0,1,1,-2,-2,-3,-1,-2
1558438570129276,-2,0,-2,-3,-5,-14,-8,-2
1558438570129276,1,0,-1,0,-3,4,-2,0
1558438570145233,2,-2,3,2,8,7,12,6
1558438570145233,5,1,2,7,-2,-4,-2,1
1558438570152214,-9,-4,-3,-2,-2,-5,-4,-4
1558438570152214,-1,0,4,4,1,3,2,1
1558438570159196,-2,-5,-11,-3,-7,-8,-5,-5
1558438570159196,-3,-1,-7,-20,-7,-6,-4,-4
1558438570174156,0,0,0,0,1,0,0,-1
1558438570174156,-1,-1,-2,-5,-2,-9,-7,-2
1558438570183131,3,4,11,8,5,4,5,2
1558438570183131,-2,-1,3,7,4,7,1,0
1558438570189119,-5,-7,-18,-17,-11,-7,-3,-1
1558438570189119,-2,-3,0,3,2,3,-4,-4
1558438570205073,-2,0,-5,-3,-13,-11,-6,-2
1558438570205073,1,1,6,4,4,2,2,2
1558438570212055,0,2,0,5,-4,-3,-3,-2
1558438570212055,0,0,-5,-1,1,-2,6,0
1558438570228012,-1,-1,1,-2,10,0,5,1
1558438570228012,0,0,0,6,4,1,1,2
1558438570233997,-1,-1,2,-2,-4,8,-1,-4
1558438570233997,-1,-3,-5,0,-5,0,0,-2
1558438570242972,-1,-2,-2,-3,0,2,-2,-2
1558438570242972,-1,-3,-1,-1,-1,-5,-1,1
1558438570248955,3,3,5,1,0,-2,1,-1
1558438570248955,-4,-2,-2,0,-7,-6,-9,-6
1558438570264914,-1,1,2,-4,6,11,6,1
1558438570264914,0,2,1,2,7,7,3,2
1558438570272891,1,-4,-6,-6,-3,-6,-6,0
1558438570272891,-6,-4,-4,0,-5,3,3,0
1558438570287853,-2,-3,-4,-3,-9,-4,-8,-6
1558438570287853,1,0,1,0,-4,0,1,-1
1558438570294834,1,1,2,0,2,-2,1,0
1558438570294834,0,-1,1,1,6,8,2,0
1558438570302813,-3,-2,0,-1,-2,1,-5,-5
1558438570302813,-5,-1,-4,-7,-4,-7,-5,-5
1558438570309792,4,4,13,18,12,2,9,6
1558438570309792,-2,-1,-4,-16,0,-9,-2,2
1558438570324753,-3,-4,-5,-2,-6,0,-1,-2
1558438570324753,-1,-2,-5,-6,-8,-6,-2,-2
1558438570331736,-2,-1,0,-2,-6,-1,-5,-3
1558438570331736,0,3,7,4,6,8,2,0
1558438570347691,1,1,-1,0,-4,-6,-5,0
1558438570347691,-3,-5,-3,-3,-2,-3,-3,-4
1558438570354673,-2,-1,-3,-3,0,5,2,-3
1558438570354673,1,-2,1,0,-5,-3,-6,-2
1558438570362651,1,-1,-2,-2,-2,-12,-2,0
1558438570362651,-4,0,-1,3,7,12,6,-2
1558438570369633,0,2,4,2,3,-7,4,6
1558438570369633,-1,1,9,9,10,3,4,1
1558438570385591,0,-1,-12,-9,-12,-2,-8,-3
1558438570385591,-8,-6,-4,-3,-6,-4,-4,-4
1558438570391574,0,-2,-4,-3,-2,2,0,-1
1558438570391574,-1,0,1,1,-7,-2,-3,-3
1558438570407531,1,1,1,2,3,-1,-3,1
1558438570407531,2,-1,1,-1,0,0,-2,-1
1558438570414514,0,-2,-4,-1,-1,-5,-3,-3
1558438570414514,3,-1,-2,-3,-1,-5,1,2
1558438570422492,-1,-2,4,3,2,-1,-1,-3
1558438570422492,0,0,-6,-5,-6,-4,-5,-1
1558438570429473,-4,-3,1,1,3,12,1,0
1558438570429473,1,0,0,0,-1,-3,2,1
1558438570445431,-2,0,0,0,4,9,6,-1
1558438570445431,1,0,0,-1,-5,-7,-1,2
1558438570452411,0,-1,-1,-3,-3,-4,-3,-3
1558438570452411,-1,-1,-4,-4,-4,0,-4,-1
1558438570467373,-3,0,1,3,1,3,-2,-1
1558438570467373,3,0,-2,-4,-2,-11,-1,-1
1558438570474353,-3,-1,-2,-3,-5,1,-3,-3
1558438570474353,-2,0,1,3,1,2,-1,-2
1558438570482331,0,1,4,1,5,7,3,-1
1558438570482331,1,-4,-9,-6,-2,-6,-4,1
1558438570497292,0,-2,0,-5,6,3,4,2
1558438570497292,-1,2,-3,3,0,-2,1,1
1558438570505270,-1,-1,-2,1,-1,-1,1,-1
1558438570505270,0,-1,-2,-5,-4,2,0,-1
1558438570519233,-1,-1,0,0,-6,-6,-10,-6
1558438570519233,0,-1,-6,-7,-6,-3,-4,-3
1558438570527212,-2,-3,-2,4,4,6,3,0
1558438570527212,2,0,5,1,6,6,6,3
1558438570543169,-2,-2,-5,-3,-4,-3,-5,-3
1558438570543169,3,2,8,6,7,9,3,3
1558438570544166,-8,-3,-5,-1,-6,-12,-9,-5
1558438570544166,-4,-2,-12,-9,-8,-5,-2,-1
1558438570566108,2,0,1,0,2,2,4,3
1558438570566108,-1,-2,-5,0,-8,-3,-6,-3
1558438570566108,2,2,8,2,6,7,3,2
1558438570566108,-2,0,2,1,-2,2,-1,-1
1558438570572092,0,-1,-4,-3,1,1,3,0
1558438570572092,-4,-2,-1,-4,-1,-2,-3,-1
1558438570588048,0,3,4,7,3,-3,-2,-1
1558438570588048,1,-1,-3,-7,-1,-2,-5,-4
1558438570595030,1,1,1,1,-4,0,-4,-2
1558438570595030,0,-1,-4,-1,-1,0,-1,-3
1558438570603008,-1,-4,-4,-3,-6,-3,-1,0
1558438570603008,-1,1,17,18,8,1,-1,-2
1558438570616971,-1,-3,-18,-15,-1,-4,1,-1
1558438570616971,1,1,-13,-18,-6,-8,4,1
1558438570632929,1,-2,-8,-6,-7,-4,-6,-1
1558438570632929,-2,1,6,3,3,3,2,1
1558438570634924,-1,0,4,0,-5,-2,-5,-4
1558438570634924,-2,1,8,13,8,1,-4,-3
1558438570647888,4,5,6,6,5,2,4,3
1558438570647888,-2,-5,-9,-20,0,1,2,3
1558438570654869,0,1,7,12,5,-6,-2,2
1558438570654869,-4,-5,-9,-10,-10,-9,-5,-3
1558438570662848,0,2,5,5,-3,-1,-3,-6
1558438570662848,-1,0,1,6,-2,1,1,0
1558438570676811,0,1,1,0,0,-6,5,0
1558438570676811,1,-3,1,0,-4,-5,-2,-2
1558438570684790,-2,-1,0,-2,4,7,3,2
1558438570684790,-2,0,-4,2,-3,-2,0,-3
1558438570691771,-2,-1,-2,2,-6,-8,-6,-2
1558438570691771,-1,0,3,-9,3,-1,1,0
1558438570707728,-3,-4,-4,1,-5,-7,-6,-2
1558438570707728,-1,1,-9,-14,-5,-1,-4,-4
1558438570714709,-1,-2,4,2,6,5,2,1
1558438570714709,2,-1,1,7,7,7,2,1
1558438570729671,0,-3,-8,-8,-7,-8,-4,-3
1558438570729671,1,1,8,8,7,1,3,2
1558438570736651,-4,-4,-11,-8,-6,-1,-5,-1
1558438570736651,-5,-1,-2,0,-4,5,-2,-3
1558438570745626,-2,0,-1,-8,-2,-3,1,1
1558438570745626,1,4,11,7,4,-1,-4,0
1558438570751612,0,-2,-5,-1,-2,1,-5,-2
1558438570751612,-1,-4,-9,-5,-5,-6,-1,-3
1558438570768566,-2,-4,-5,-9,4,3,5,2
1558438570768566,-3,-6,-10,-5,-9,-7,-3,-2
1558438570774549,2,4,5,3,2,-2,3,3
1558438570774549,-1,-2,-2,-3,-2,6,-5,-3
1558438570789516,1,2,6,6,-5,-7,-4,-2
1558438570789516,-4,-1,-4,0,2,4,3,-1
1558438570796490,-2,-1,-2,-5,-3,-3,-4,-2
1558438570796490,-2,1,4,7,2,2,1,-1
1558438570812447,0,1,12,15,14,5,6,1
1558438570812447,-2,-6,-14,-12,-14,-8,-9,-4
1558438570813445,-1,-5,-7,-4,-3,7,1,-1
1558438570813445,-2,-1,3,3,1,-2,1,0
1558438570828405,-1,-2,-4,-1,2,-4,2,2
1558438570828405,-4,0,4,0,-3,-2,-10,-5
1558438570834395,0,1,6,8,0,-1,4,0
1558438570834395,4,2,2,-1,7,4,10,5
1558438570849350,-4,-5,-8,-7,-7,-7,-6,-4
1558438570849350,0,0,-1,-1,3,-3,-4,-4
1558438570857328,-1,-3,-3,-2,-3,6,-2,-3
1558438570857328,0,3,2,-1,-1,-5,0,1
1558438570872287,7,2,6,-1,1,1,-3,0
1558438570872287,-7,-7,-5,1,0,4,0,-2
1558438570873285,-1,0,-8,-12,-2,-1,-5,-2
1558438570873285,-1,1,0,2,-2,1,-2,-2
1558438570888245,-1,-1,-3,-1,2,-1,3,1
1558438570888245,1,2,-4,-5,0,4,5,2
1558438570894229,0,-2,5,4,-7,-10,-5,-3
1558438570894229,-4,-4,-7,-3,-1,-5,-4,-3
1558438570909191,-2,0,-2,-3,-3,5,-3,0
1558438570909191,2,0,8,3,8,6,1,0
1558438570917170,-2,-1,-4,-9,0,3,-2,1
1558438570917170,-1,-1,-4,-3,-7,-12,-4,-1
1558438570933154,-2,-2,1,-1,-4,4,-4,-6
1558438570933154,2,3,1,6,-1,-9,0,2
1558438570933154,0,-1,3,1,5,-1,-1,1
1558438570933154,-3,-3,-3,-2,-2,-3,-6,-3
1558438570948092,-1,-1,-9,-15,-7,0,-4,-2
1558438570948092,-1,-2,3,10,-1,-1,1,0
1558438570954077,-2,-5,-17,-17,-4,-5,-3,-2
1558438570954077,-1,-2,0,-1,-5,3,5,-1
1558438570970028,1,0,-1,7,0,-8,-5,0
1558438570970028,0,0,-5,-12,1,12,4,1
1558438570977112,-2,1,6,3,3,-10,0,-2
1558438570977112,0,-2,1,3,-1,2,2,-1
1558438570993073,-1,-2,-3,-4,0,-1,-2,0
1558438570993073,0,-1,1,4,-1,-1,-4,-2
1558438570993073,-2,-3,1,-6,-1,0,-2,-1
1558438570993073,-1,0,2,2,0,-7,0,2
1558438571007968,-1,0,-5,-10,-2,0,-1,-1
1558438571007968,-1,0,3,2,-5,-12,-4,-4
1558438571014915,-3,3,4,13,-1,4,-1,-3
1558438571014915,2,1,10,3,13,11,4,3
1558438571029873,-3,-4,-16,-13,-5,-3,-1,-1
1558438571029873,-3,-2,-9,-4,-5,1,3,1
1558438571036870,-2,-1,2,0,-4,5,-4,-4
1558438571036870,0,-6,-2,7,-11,-11,-6,-4
1558438571052808,1,1,3,3,6,-3,-1,1
1558438571052808,0,0,1,-2,0,-2,-3,-1
1558438571053804,4,-2,-5,-2,-4,-4,2,1
1558438571053804,-4,-1,-3,-6,1,3,-1,0
1558438571068764,-1,-1,5,12,-5,2,-4,-4
1558438571068764,0,-2,-6,-8,-7,-8,-5,-3
1558438571074747,-2,1,-5,1,10,8,7,2
1558438571074747,3,2,-1,1,-3,-6,0,1
1558438571089706,-3,-2,-1,-2,-3,-3,-4,-3
1558438571089706,-1,-2,-2,-11,-5,4,-4,-3
1558438571096688,-1,-2,1,4,-1,-1,-2,-1
1558438571096688,-1,1,-5,-10,1,-4,3,2
1558438571112650,-2,0,3,2,2,0,0,1
1558438571112650,0,-2,-6,9,-2,0,2,0
1558438571113644,-1,0,4,5,3,-6,-3,1
1558438571113644,-4,-2,-4,-12,-4,-5,-5,-3
1558438571128603,-1,1,1,0,-7,-7,-5,-3
1558438571128603,1,0,5,-1,3,0,-1,3
1558438571142570,0,-2,-5,-1,-4,0,-3,-1
1558438571142570,-1,-2,-5,-1,-4,-3,-6,-3
1558438571149553,0,0,-1,7,3,-2,1,0
1558438571149553,4,0,-1,-6,0,-3,7,2
1558438571156701,-9,-2,3,2,-2,-1,0,-3
1558438571156701,0,-2,-1,0,-1,6,-6,-3
1558438571180649,-2,-3,-2,-7,-2,2,-1,-3
1558438571180649,-3,-1,3,3,1,-3,-2,-2
1558438571181462,3,0,4,0,4,2,4,0
1558438571181462,-1,-3,-5,-3,0,3,-2,0
1558438571188463,-3,1,-3,-1,1,0,2,1
1558438571188463,-2,0,4,8,0,-5,-5,-1
1558438571194577,0,-1,0,5,2,4,0,0
1558438571194577,1,1,3,-4,-4,-5,-1,-1
1558438571209430,2,-1,2,2,2,1,1,0
1558438571209430,-2,2,5,7,5,5,-3,0
1558438571217369,-4,-2,-10,-13,-11,-8,-6,-3
1558438571217369,1,0,0,6,2,0,0,0
1558438571232366,0,-3,-4,-3,2,8,2,0
1558438571232366,-2,-1,1,5,-2,0,-1,0
1558438571233327,-1,-5,-10,-4,-4,6,-3,-4
1558438571233327,-1,0,-4,-5,0,3,2,3
1558438571248294,-1,-1,2,-4,-5,-16,-2,1
1558438571248294,1,0,0,-3,11,10,4,0
1558438571254306,1,0,3,2,-1,-3,0,1
1558438571254306,-2,0,-1,-3,-4,-2,-7,-5
1558438571269228,-3,-4,-2,-2,-5,-3,-1,-5
1558438571269228,1,0,2,-4,2,4,3,1
1558438571277206,1,0,4,-3,-6,-7,-4,-1
1558438571277206,0,-1,2,6,4,-4,3,2
1558438571293164,-2,-1,-5,-5,3,-1,2,2
1558438571293164,0,-2,-4,0,-2,-4,-3,-3
1558438571293164,0,1,7,1,1,-3,-3,0
1558438571293164,-1,-2,-7,-5,-4,3,2,-1
1558438571308124,-1,-1,2,-1,-3,2,-3,-3
1558438571308124,0,0,-4,-6,-7,-7,-1,-2
1558438571314108,-1,-2,-4,-1,1,1,-1,1
1558438571314108,-2,-1,3,4,0,6,2,-2
1558438571331062,-2,1,1,4,5,-4,3,3
1558438571331062,-3,0,2,-1,0,-4,0,0
1558438571337048,2,1,-1,-1,3,4,4,0
1558438571337048,-3,-1,-14,-8,-3,2,-1,-3
1558438571353053,-1,-4,-2,2,-9,-2,-7,-8
1558438571353053,2,-1,-1,0,-2,-9,-4,-1
1558438571353053,-2,0,7,2,-2,-3,-2,-2
1558438571353053,-1,0,0,3,11,15,7,3
1558438571368967,-3,-1,-4,-5,-8,0,0,-2
1558438571368967,-2,-4,-5,-1,-6,-6,-4,-2
1558438571374947,-1,-2,-2,-4,3,4,1,0
1558438571374947,-2,-1,2,-2,-5,-7,-2,-1
1558438571390909,2,1,-3,1,10,9,8,5
1558438571390909,-2,-1,0,-3,-1,-2,-2,-2
1558438571396950,-1,-1,0,3,0,-4,-5,-2
1558438571396950,-2,-1,-2,-7,-9,-4,-7,-5
1558438571412910,-1,0,2,1,3,7,5,0
1558438571412910,-2,-2,-6,2,0,-6,-1,-1
1558438571412910,-4,-1,-1,-6,-5,-10,-3,-2
1558438571412910,0,0,1,-2,2,2,3,3
1558438571428809,0,-2,3,-3,-5,-8,-5,0
1558438571428809,0,-3,-9,-5,3,15,3,0
1558438571441775,-1,-4,-2,0,-4,-7,-3,-2
1558438571441775,0,-1,3,1,0,4,-2,-2
1558438571450747,0,-2,-4,-5,-6,-1,-3,-4
1558438571450747,-2,1,7,8,0,-6,-3,0
1558438571456761,-1,0,-4,-15,-7,-2,-5,-1
1558438571456761,-1,-1,3,10,10,7,6,2
1558438571472684,2,3,3,1,4,-16,0,3
1558438571472684,-1,-3,-3,-6,-2,5,1,-2
1558438571479765,0,1,-4,-2,0,10,0,-4
1558438571479765,0,-1,4,-1,-5,-7,-4,-1
1558438571488643,-1,0,-4,-8,7,8,7,2
1558438571488643,0,-1,-5,10,-4,-5,-3,-1
1558438571494632,-7,-4,-4,-8,-3,0,1,-1
1558438571494632,1,-1,-2,-4,3,-3,1,1
1558438571510624,-1,-4,2,3,-5,2,-6,-3
1558438571510624,0,0,2,1,-5,-2,-3,-2
1558438571516575,0,0,-3,0,3,2,2,0
1558438571516575,-2,-1,-4,0,-3,-6,-4,-1
1558438571531772,0,-1,2,1,-1,3,-2,0
1558438571531772,1,-3,-5,-6,1,-3,1,1
1558438571539503,-3,-5,-3,1,-11,-13,-6,-2
1558438571539503,-3,-3,2,-2,7,8,0,-2
1558438571555460,-1,2,-8,-1,-3,-8,4,5
1558438571555460,-2,3,5,-10,4,6,-4,-2
1558438571555460,0,0,0,4,-1,4,7,1
1558438571555460,-2,-4,-4,-6,-14,-19,-12,-6
1558438571570760,0,-1,1,1,-4,-1,-4,-4
1558438571570760,1,2,-2,1,9,10,9,4
1558438571577404,1,-1,1,1,4,-6,-4,1
1558438571577404,-2,-2,-1,-3,-5,7,-2,-4
1558438571594026,-2,-3,-4,-5,-6,-2,-6,-6
1558438571594026,-2,-1,-1,-1,-3,-5,2,1
1558438571599710,1,-1,-1,4,6,6,4,2
1558438571599710,-1,1,0,2,2,-2,0,2
1558438571615667,-3,0,3,-1,-2,-7,-3,-3
1558438571615667,-4,-2,-6,-3,-11,-6,-4,-5
1558438571616299,-1,0,-5,1,3,3,1,0
1558438571616299,2,0,-5,0,-8,-19,-5,0
1558438571631540,-5,-1,-6,-10,7,5,4,1
1558438571631540,-2,-2,2,-1,-1,2,-1,-3
1558438571637579,0,0,3,1,-2,-3,-3,-1
1558438571637579,-3,-1,1,5,2,6,-1,-1
1558438571660420,2,-1,-1,3,-5,-1,-2,-3
1558438571660420,-4,-5,3,-4,1,-1,5,-4
1558438571661186,0,0,-7,-4,-3,-7,-3,1
1558438571661186,-3,-1,-5,-10,-2,9,1,0
1558438571683157,-3,-2,-1,2,-2,-7,-4,0
1558438571683157,-1,0,2,1,-3,-6,-5,-1
1558438571683157,0,0,2,-3,5,8,3,1
1558438571683157,1,0,4,2,0,-7,2,-1
1558438571691099,-1,0,-2,2,-1,4,-5,-4
1558438571691099,-2,0,-4,-6,0,4,-2,0
1558438571697318,0,1,1,4,0,-8,5,3
1558438571697318,-2,-1,-5,-8,-6,-13,-3,-3
1558438571712272,0,-1,-1,-2,-3,1,-3,-2
1558438571712272,3,0,1,1,3,0,2,2
1558438571719339,-2,-1,0,-1,-2,7,-2,-2
1558438571719339,-1,2,1,0,-3,-2,-5,0
1558438571743399,5,1,3,12,7,3,2,1
1558438571743399,-7,-3,-7,-15,-10,-21,-4,-3
1558438571743399,-1,-4,-9,-13,-5,9,2,-1
1558438571743399,-1,0,2,1,1,-3,-2,-1
1558438571751251,0,-2,-2,-6,-11,-12,-4,-2
1558438571751251,3,0,5,12,11,17,6,2
1558438571757238,0,-2,3,4,2,0,-1,-3
1558438571757238,-4,-2,-4,-3,-8,-1,-2,-4
1558438571772439,-1,-1,-1,1,4,3,1,0
1558438571772439,-2,-2,-1,2,-3,-4,-2,-3
1558438571779499,1,1,1,1,2,-4,-4,-1
1558438571779499,-1,-4,-3,-7,-3,2,1,-1
1558438571795709,-2,-1,1,5,5,0,-1,0
1558438571795709,1,0,-7,-9,-1,2,3,0
1558438571795709,0,0,-1,-2,-3,-5,-5,-2
1558438571795709,-2,-7,-4,-8,-9,-5,-5,-4
1558438571819395,-2,0,1,1,-4,0,-5,-2
1558438571819395,-2,-3,-8,-5,8,16,1,0
1558438571819395,0,1,9,10,6,-2,4,0
1558438571819395,2,1,0,6,2,-11,-1,1
1558438571832638,0,1,-2,-7,1,4,7,3
1558438571832638,0,-1,-1,-1,-9,-7,-8,-5
1558438571839591,-2,-1,-2,-2,-1,4,0,-2
1558438571839591,0,1,6,6,4,11,6,1
1558438571855555,-1,-3,-2,-5,-3,-5,-7,-2
1558438571855555,0,-1,-4,-1,-8,-11,-6,-2
1558438571856293,-1,-4,0,-1,2,4,1,-1
1558438571856293,-1,1,5,5,6,1,3,3
1558438571871254,-2,-1,3,2,-2,-9,-1,1
1558438571871254,1,0,-3,-7,-2,6,-1,1
1558438571877268,-10,-4,-3,-1,-8,-8,-4,-4
1558438571877268,-1,-2,2,6,8,12,2,0
1558438571892227,-1,-1,0,2,-3,-8,1,-1
1558438571892227,-1,-3,-8,-9,-5,-10,-9,-4
1558438571899206,3,-1,2,5,0,1,2,-1
1558438571899206,-3,-2,-2,1,-2,-1,-4,1
1558438571915135,-1,1,-4,-5,0,7,5,0
1558438571915135,-2,0,1,-1,-3,-10,-2,0
1558438571916134,0,1,-2,-6,-2,-17,-3,2
1558438571916134,1,1,-3,-3,4,9,3,-2
1558438571931091,-1,-4,-9,-5,-8,-3,-5,-2
1558438571931091,0,1,14,15,6,7,1,-2
1558438571937077,1,-1,-5,-10,-9,-18,-6,-2
1558438571937077,0,-1,-5,-5,-5,-13,-5,0
1558438571952072,-2,-1,4,5,8,13,-1,-1
1558438571952072,-1,1,4,3,1,1,3,0
1558438571960470,1,-1,-3,1,2,5,-1,-2
1558438571960470,0,-1,-3,-6,-6,-4,-2,-4
1558438571975284,-2,-3,-9,-9,-10,-12,-8,-7
1558438571975284,-1,0,4,3,1,9,3,0
1558438571975976,0,-2,3,2,-7,-1,-3,-2
1558438571975976,-5,2,-2,3,14,10,10,4
1558438571990936,-1,-1,-5,-5,0,4,0,-1
1558438571990936,-2,-2,0,5,-1,-9,-3,-2
1558438571997236,1,0,-4,-8,-3,1,0,1
1558438571997236,0,-4,0,-6,-6,-4,-10,-4
1558438572012198,-1,-2,1,0,-1,0,4,3
1558438572012198,-1,-1,-1,1,0,-3,-1,0
1558438572020171,-1,-3,5,10,3,11,1,-2
1558438572020171,-1,-3,-14,-24,-4,-3,-1,1
1558438572034816,0,-3,-7,-4,-1,-5,0,-1
1558438572034816,-1,1,7,6,-2,3,-1,-2
1558438572042835,0,-1,-3,-3,6,1,2,2
1558438572042835,0,-1,-5,4,-9,-9,-3,-6
1558438572050775,1,1,0,-3,7,9,2,-1
1558438572050775,0,0,-1,-3,-5,-5,-4,-2
1558438572056790,-1,-2,-4,-7,-3,-4,-4,-1
1558438572056790,0,1,7,12,11,15,10,3
1558438572072750,-1,-1,-5,-6,-5,-8,-2,0
1558438572072750,1,-2,-4,-1,-1,-3,-2,0
1558438572087909,-2,1,0,-1,1,9,1,-1
1558438572087909,1,1,4,7,4,-4,-3,-2
1558438572095881,-2,-1,-3,-13,-3,-2,-5,-3
1558438572095881,-1,-1,1,-1,-3,-2,-1,1
1558438572095881,0,-4,-13,-20,-10,-10,-3,-4
1558438572095881,-8,-3,1,6,1,-3,0,-4
1558438572110847,-1,-1,5,5,2,2,2,-2
1558438572110847,0,-1,-1,-3,-3,-4,-5,0
1558438572116600,-1,-1,1,2,-3,1,2,1
1558438572116600,2,1,-2,4,4,0,0,3
1558438572132759,-2,0,2,1,1,3,-2,-2
1558438572132759,-6,-7,-9,-10,-8,4,-3,-3
1558438572139569,1,2,10,13,4,-7,0,0
1558438572139569,3,-2,1,-8,6,6,5,3
1558438572155524,0,-2,-1,8,1,4,-4,-3
1558438572155524,1,-2,-12,-15,-2,0,0,-1
1558438572155524,-6,-1,-3,-4,-2,-1,-6,-7
1558438572155524,-2,-1,0,1,-8,-10,-2,-3
1558438572170757,-1,-1,-4,-6,-2,-3,1,-2
1558438572170757,2,2,9,9,7,5,0,0
1558438572177464,-4,-1,-1,-1,-2,3,0,-1
1558438572177464,-1,-2,-3,-4,-3,0,-5,-2
1558438572192679,2,0,0,0,-6,-10,0,0
1558438572192679,0,1,2,5,0,-7,0,0
1558438572199690,-1,-1,-4,-10,0,5,1,-2
1558438572199690,-1,-4,-9,-3,-3,3,1,-1
1558438572215335,-2,0,-1,-1,3,1,1,1
1558438572215335,-4,-3,-5,-5,0,2,-1,-3
1558438572216361,-2,1,3,4,-3,-7,-3,0
1558438572216361,2,2,4,7,-3,-7,1,1
1558438572231290,-2,0,-8,-13,-3,0,2,-1
1558438572231290,2,0,4,3,1,-2,0,-1
1558438572237586,-2,-1,-2,1,4,9,4,0
1558438572237586,-1,-1,5,3,-8,-8,-7,-4
1558438572252234,-2,-1,-1,8,0,-2,-2,2
1558438572252234,0,-1,-1,-5,3,2,1,0
1558438572260244,-2,0,7,6,-6,-6,-9,-4
1558438572260244,-2,-2,-15,-17,-3,5,4,2
1558438572275447,-1,-2,-3,2,1,-1,1,1
1558438572275447,-2,-3,-3,2,-1,2,0,-2
1558438572276172,-2,-2,-1,3,-5,-11,0,-2
1558438572276172,0,1,0,-8,-3,3,-9,-4
1558438572291163,1,0,5,1,3,-1,1,4
1558438572291163,-2,-1,-4,-4,0,-7,-2,0
1558438572297339,5,2,6,5,5,5,3,2
1558438572297339,-4,-1,-2,3,-3,-5,-4,-2
1558438572312291,0,-4,-7,-7,-9,-6,-8,-6
1558438572312291,0,0,-4,-3,-4,-9,1,2
1558438572320143,0,-1,5,8,7,7,6,3
1558438572320143,-2,-3,-1,-7,-1,3,1,-2
1558438572335013,-1,0,3,2,4,-4,-4,-2
1558438572335013,0,0,2,5,-5,-6,-4,-4
1558438572336010,-3,-1,-5,-16,3,2,-2,-1
1558438572336010,2,0,8,8,3,-2,1,4
1558438572350970,-4,0,-4,-2,0,2,-3,-2
1558438572350970,-4,-1,-4,-6,-2,6,2,0
1558438572357232,-2,-1,-4,-4,-6,-3,-4,-3
1558438572357232,1,-1,1,2,-4,-5,-2,-3
1558438572372273,2,2,3,-4,-5,-10,2,1
1558438572372273,0,-1,0,3,9,10,4,0
1558438572380288,-2,-2,-10,-3,2,5,1,0
1558438572380288,-1,-1,3,-2,3,2,-2,1
1558438572395223,-2,-1,7,10,1,7,-2,-1
1558438572395223,0,-3,-9,-17,-12,-13,-4,-2
1558438572402905,2,0,5,10,3,-5,2,2
1558438572402905,4,-1,-2,-3,1,3,4,1
1558438572410927,-10,-3,0,-3,-3,3,-1,-5
1558438572410927,-2,0,1,2,-4,2,1,1
1558438572417244,-1,0,-5,-4,0,-2,-6,-1
1558438572417244,-3,-1,-7,-2,-9,-10,-7,-4
1558438572432543,3,1,3,2,2,0,4,2
1558438572432543,0,2,1,2,4,2,-2,-1
1558438572439516,-2,-3,-2,-1,-6,-6,-3,-3
1558438572439516,1,-1,6,7,8,5,5,1
1558438572454460,-2,-2,-4,-6,-4,1,-5,-1
1558438572454460,-1,0,0,2,4,6,0,-3
1558438572462394,-1,-1,-4,-4,-6,-13,-4,0
1558438572462394,-3,0,1,-3,6,10,1,-1
1558438572470753,-1,-2,-4,0,-6,1,-1,-3
1558438572470753,0,0,2,12,13,4,10,4
1558438572477729,-4,-3,-7,-14,-8,0,-5,-4
1558438572477729,-2,-1,-6,1,-7,-1,-2,-2
1558438572492686,2,0,0,0,1,-4,-2,2
1558438572492686,1,-1,4,0,-1,3,0,1
1558438572499648,2,0,4,9,1,-1,2,0
1558438572499648,-4,-4,-3,-7,-6,-5,-4,-5
1558438572514598,2,0,3,1,9,2,3,2
1558438572514598,-3,-3,-5,-4,-6,-2,-6,-2
1558438572522589,-3,-1,2,7,-1,2,0,-3
1558438572522589,3,0,-4,-7,-1,-1,1,2
1558438572531294,-5,0,3,3,3,-1,0,0
1558438572531294,-1,-1,2,0,-4,-8,-1,-1
1558438572537275,0,0,0,-10,0,-4,-3,0
1558438572537275,0,1,2,1,-2,2,-1,0
1558438572552234,0,-2,-9,-8,-5,-2,-2,-1
1558438572552234,0,-2,-2,-1,-4,-3,-4,-1
1558438572559468,0,-3,-3,-1,-2,2,2,-2
1558438572559468,-4,-2,1,0,-2,-7,-5,-3
1558438572575208,2,1,4,5,2,6,-4,-1
1558438572575208,-3,-3,-8,-12,-7,-9,1,-1
1558438572582156,1,-1,-2,4,5,1,0,0
1558438572582156,-2,-1,-6,-12,-6,1,-1,-2
1558438572599111,0,-2,1,1,0,1,4,-1
1558438572599111,-1,0,0,-1,-6,-8,-5,-5
1558438572600108,0,0,3,0,9,14,7,5
1558438572600108,-4,-4,-4,3,-4,-4,-6,-3
1558438572612396,0,0,2,-1,-2,6,3,-1
1558438572612396,0,-1,-7,-5,0,-10,-2,-1
1558438572620084,-1,0,1,7,9,10,6,2
1558438572620084,-2,-3,1,-2,-4,-2,-5,-5
1558438572636014,0,0,1,8,-1,0,1,-3
1558438572636014,-1,-2,-5,-8,-1,-1,1,-1
1558438572642287,-2,-2,-12,-5,-14,-13,-5,-3
1558438572642287,3,1,2,6,12,9,6,4
1558438572658293,-6,-1,-1,-5,-1,-1,3,0
1558438572658293,-1,-2,4,4,0,-3,-5,-2
1558438572658293,-2,-1,0,-2,-4,1,-5,-3
1558438572658293,-4,-4,3,3,1,0,1,-2
1558438572672221,2,-1,-8,-6,-2,-13,-3,-1
1558438572672221,0,0,6,13,5,5,5,2
1558438572680192,-3,-3,-3,-10,-2,-2,-1,-1
1558438572680192,0,0,1,-4,-2,-7,-2,0
1558438572695129,-2,-2,1,1,-4,4,-5,-3
1558438572695129,1,0,-4,-3,2,6,2,3
1558438572702095,2,-2,-1,-2,-7,-7,-6,-4
1558438572702095,-2,1,-2,-1,-8,-10,-2,-2
1558438572717794,0,0,-1,1,10,2,6,4
1558438572717794,-4,-3,1,-8,-6,1,-6,-4
1558438572717794,-3,-1,1,3,-1,-4,-3,-2
1558438572717794,0,0,-2,-1,-1,-1,-3,-3
1558438572732009,-1,-3,-7,0,-6,-3,-4,-5
1558438572732009,3,2,6,10,8,-2,2,2
1558438572739734,1,1,-4,-11,-2,-6,1,0
1558438572739734,-1,-1,2,-2,2,0,1,-1
1558438572754695,0,0,6,6,-5,-8,-2,-3
1558438572754695,-4,-2,-7,-10,-8,1,-8,-6
1558438572761676,-2,-1,-5,-6,-3,4,0,0
1558438572761676,0,1,1,-1,4,-3,2,1
1558438572777661,2,-2,-7,-1,0,1,1,1
1558438572777661,-1,0,3,2,0,5,-3,0
1558438572778630,-2,-1,-1,4,-5,-7,-2,-2
1558438572778630,-3,-2,3,5,4,12,5,-2
1558438572791595,-3,-3,-8,-7,-7,-4,-7,-1
1558438572791595,1,1,6,4,2,1,2,1
1558438572799572,-5,-4,2,1,1,-1,-3,-1
1558438572799572,0,1,-4,1,0,0,-2,1
1558438572814876,-2,-1,-5,-4,-1,2,-3,-2
1558438572814876,1,-1,-7,-5,0,5,2,-1
1558438572822852,2,1,3,4,-1,-9,-1,0
1558438572822852,1,0,0,0,-5,-7,-5,-3
1558438572837878,-2,-2,0,-3,-4,-12,-3,-2
1558438572837878,-3,-1,0,1,-1,7,-1,-2
1558438572838470,1,-1,-3,-2,-5,-4,-1,-1
1558438572838470,-3,-4,-5,-5,-3,-6,-2,-1
1558438572852888,2,1,2,-2,5,4,-2,-1
1558438572852888,-2,-2,-1,1,-3,-9,-1,-1
1558438572859848,-1,0,0,-1,4,5,0,-1
1558438572859848,-1,-1,-5,-4,-6,2,6,0
1558438572874823,-1,1,5,2,-2,-5,-5,1
1558438572874823,3,1,2,0,8,2,4,3
1558438572882729,0,-4,-11,-10,-6,2,-2,-3
1558438572882729,-3,-3,0,-6,0,1,-3,-2
1558438572898096,0,-1,1,3,0,6,2,-1
1558438572898096,-1,-2,-7,-7,-5,-7,0,-2
1558438572899016,-1,1,0,-2,-4,-5,-2,-1
1558438572899016,-2,0,-2,1,1,-8,-4,0
1558438572912019,2,0,3,-3,0,3,3,-1
1558438572912019,-4,0,-2,0,0,0,-4,-1
1558438572920004,-1,-2,-2,-2,-1,1,-1,-2
1558438572920004,1,1,3,0,1,-3,0,2
1558438572934702,-2,-2,-3,-6,-7,-2,-2,-4
1558438572934702,0,0,-2,0,-3,-9,-4,-2
1558438572941654,1,2,3,2,7,6,5,3
1558438572941654,-4,-2,0,1,0,1,-1,-1
1558438572957612,1,0,2,4,3,1,-2,2
1558438572957612,-1,-1,-4,-7,-9,-3,-7,0
1558438572958609,0,-1,-1,-4,4,6,8,1
1558438572958609,-1,-1,-1,-1,-3,-3,-1,-1
1558438572971575,-2,1,8,4,0,-3,-6,-4
1558438572971575,-1,-4,-7,2,-5,1,-3,-4
1558438572979580,0,-1,-1,-13,0,3,-2,0
1558438572979580,1,0,9,14,2,1,-1,-3
1558438572994514,-2,-5,-18,-9,0,-2,-1,0
1558438572994514,-1,0,2,-2,0,2,3,1
1558438573010972,0,0,3,5,0,-3,2,-1
1558438573010972,-4,-4,-6,0,-4,-1,2,-3
1558438573017957,0,-3,-3,-3,-9,-1,-7,-4
1558438573017957,-7,-2,-2,-2,-4,-3,1,-3
1558438573017957,1,-1,2,3,9,-5,5,4
1558438573017957,0,1,-1,-7,-3,-6,-3,1
1558438573032270,-2,-1,-1,-5,0,4,1,0
1558438573032270,-3,-2,-4,0,-1,4,-1,-1
1558438573040343,-1,-1,12,11,-2,-3,-4,-2
1558438573040343,1,0,-17,-10,-4,1,-4,-4
1558438573055223,-2,0,4,-6,-2,-5,2,-2
1558438573055223,2,-1,4,7,6,7,4,0
1558438573061878,-2,-2,-2,2,1,-3,0,-2
1558438573061878,0,-2,-5,-7,-2,0,-3,-2
1558438573078160,-2,0,1,4,0,6,-2,0
1558438573078160,-2,0,1,-6,-3,-1,-4,-1
1558438573078160,-2,-1,1,2,-6,-9,-5,-4
1558438573078160,0,-2,-2,0,0,-2,1,1
1558438573092562,0,-2,-2,3,3,6,4,-2
1558438573092562,-2,-2,-1,-6,-4,-2,-4,-6
1558438573099534,-1,-1,-3,-1,1,6,-2,-1
1558438573099534,-2,0,5,0,-5,-4,-3,-3
1558438573115229,0,0,4,6,11,7,6,2
1558438573115229,0,1,-8,-10,-2,-1,-1,0
1558438573122125,-2,-1,-2,0,-3,-4,-6,-5
1558438573122125,-4,-1,-5,-5,-4,-1,-2,-2
1558438573138413,0,1,12,8,2,-4,5,6
1558438573138413,1,-2,-10,0,-3,-6,-3,-2
1558438573138413,-6,-2,4,4,-3,-2,-6,-2
1558438573138413,-1,-1,-7,-6,-5,-7,-6,-2
1558438573153374,-2,-2,0,-1,5,0,2,1
1558438573153374,2,1,3,1,2,-5,1,-2
1558438573159362,-3,0,-2,3,-2,5,-3,-1
1558438573159362,2,1,1,2,7,1,6,3
1558438573174288,-4,-2,-5,-6,-14,-8,-8,-5
1558438573174288,-1,-1,1,3,2,0,2,1
1558438573182307,3,2,4,-4,5,4,6,4
1558438573182307,-4,-2,-3,1,0,5,2,-4
1558438573198256,-1,1,-10,-9,-5,-8,-4,-2
1558438573198256,-2,-4,5,4,-1,3,-1,-3
1558438573198256,0,-3,-4,0,-5,-5,-2,-1
1558438573198256,-1,-1,5,0,6,0,3,3
1558438573213794,2,-2,-3,-5,-4,-2,-2,1
1558438573213794,-2,0,-1,-2,-1,-6,-4,-2
1558438573220110,-1,1,-2,-1,5,3,5,3
1558438573220110,-2,1,4,1,-1,-2,-3,-2
1558438573234741,-2,-2,1,7,4,-1,5,-1
1558438573234741,-1,-1,4,4,-7,-3,-7,-4
1558438573242750,0,-3,-4,-9,-6,-5,-6,-5
1558438573242750,1,-1,-13,-18,-2,1,1,2
1558438573257998,-1,1,1,0,-1,2,-1,-1
1558438573257998,-2,-1,2,4,1,-6,1,2
1558438573258680,-2,-3,-3,-1,-8,-3,-9,-4
1558438573258680,0,-1,3,5,-2,3,-3,-1
1558438573273638,0,1,2,3,4,0,-1,0
1558438573273638,0,-1,-2,-11,-1,-1,4,0
1558438573279892,1,-1,-3,-1,1,-5,-2,0
1558438573279892,-2,0,6,8,8,4,6,3
1558438573294843,1,-2,-5,-10,-6,-3,-3,-1
1558438573294843,-3,-1,0,1,-4,-2,-5,-4
1558438573302679,-1,0,-5,-2,-5,0,0,-1
1558438573302679,0,-1,0,1,-7,-11,-6,-3
1558438573316530,-1,0,3,2,5,-3,2,2
1558438573316530,3,1,7,5,3,-1,1,4
1558438573324503,-3,-3,-14,-17,-3,9,0,-2
1558438573324503,-2,-3,0,-3,-4,-6,-5,-3
1558438573333480,-2,-1,-3,-6,-6,-2,-1,1
1558438573333480,-2,-2,-4,4,-6,-3,-4,-1
1558438573339464,1,0,5,7,6,6,5,3
1558438573339464,-1,-1,-2,-1,1,-2,1,1
1558438573354425,-1,-3,0,1,-5,-7,-6,-5
1558438573354425,0,1,-1,-2,-1,4,1,0
1558438573361438,-1,-2,-6,-2,-5,-5,-1,-3
1558438573361438,2,-1,1,1,1,7,4,-1
1558438573377360,-2,0,-2,0,3,2,0,0
1558438573377360,-3,0,4,3,4,-2,-2,1
1558438573384341,-3,-3,-6,-6,-4,-10,-5,-2
1558438573384341,1,0,3,-5,2,4,3,2
1558438573393319,-2,-3,-7,-6,-7,-3,-2,-4
1558438573393319,0,-1,3,-1,3,2,1,-2
1558438573399644,-2,-2,-4,-1,-2,1,1,0
1558438573399644,-1,-2,-5,-5,-3,-5,-3,-1
1558438573414605,-1,-3,-1,1,-5,-7,-3,-3
1558438573414605,0,-1,1,-2,4,10,8,3
1558438573422580,0,0,0,-12,1,-1,1,1
1558438573422580,-2,-2,-1,7,-10,-13,-11,-1
1558438573437532,-3,-1,-2,-1,-2,1,0,-2
1558438573437532,0,-1,0,4,0,1,0,0
1558438573445179,0,0,-1,-7,7,-1,-1,0
1558438573445179,-3,0,4,3,2,-2,-1,-2
1558438573453337,-1,0,-12,-8,-3,2,-1,0
1558438573453337,4,-1,-1,2,-3,-4,-4,-2
1558438573460160,-9,-2,-1,5,1,2,-1,-2
1558438573460160,0,-4,-2,-4,-1,-10,-2,-1
1558438573474128,-1,-2,3,2,0,2,-1,-2
1558438573474128,0,0,-1,-3,-6,-9,-2,-1
1558438573482081,0,1,-2,1,-6,1,-4,-3
1558438573482081,-5,-4,2,-5,-4,3,-2,-4
1558438573497041,0,0,2,6,7,3,5,3
1558438573497041,-2,-1,-3,-8,2,-5,-1,2
1558438573504047,0,-1,6,5,-6,-8,-3,1
1558438573504047,-1,-3,-3,2,2,9,1,0
1558438573520976,1,-2,1,0,4,5,5,1
1558438573520976,-4,-1,0,1,3,2,0,-2
1558438573521972,2,-1,0,2,-8,-8,-5,-4
1558438573521972,0,1,1,3,-1,-3,-3,-2
1558438573535215,1,-1,0,-8,1,4,2,2
1558438573535215,1,4,2,-2,2,-2,3,4
1558438573542390,1,-1,-5,8,0,7,4,-2
1558438573542390,1,1,5,6,-2,-3,-2,0
1558438573556879,-1,-4,-8,-13,-7,-17,-6,1
1558438573556879,-3,-2,-1,-1,0,3,-1,-4
1558438573564857,0,-1,5,3,3,6,0,-2
1558438573564857,0,-1,-5,-5,-2,0,0,-4
1558438573579817,-4,-2,-2,-4,-5,-9,-5,-4
1558438573579817,-1,-2,-8,-4,3,0,6,1
1558438573580816,-1,0,6,3,-4,-7,-2,-1
1558438573580816,0,0,-1,0,-3,0,0,-1
1558438573595138,1,0,3,2,7,15,2,-1
1558438573595138,-5,-6,-6,-6,-2,3,-3,-1
1558438573602801,0,-1,2,3,-4,-7,-4,-1
1558438573602801,-3,0,-12,-8,0,-2,1,-2
1558438573616718,4,1,3,3,-4,-1,-2,-1
1558438573616718,-8,-3,2,1,-2,2,2,-3
1558438573625063,-1,-1,-6,-9,-4,-6,2,1
1558438573625063,-1,-1,3,5,5,6,1,0
1558438573640879,-4,-1,-1,-5,-5,-1,0,-2
1558438573640879,2,-1,-5,-1,0,1,-3,-1
1558438573640879,-1,-1,1,-2,4,4,-1,-1
1558438573640879,0,-1,-2,0,3,6,1,-3
1558438573654978,-1,-1,2,6,0,-1,0,-1
1558438573654978,-3,-4,-7,-6,-7,-3,-5,-2
1558438573662633,-2,1,2,2,3,-2,3,1
1558438573662633,0,-1,-2,-6,-4,-6,2,2
1558438573677751,-2,1,12,15,5,0,-3,0
1558438573677751,-1,-3,-18,-18,-8,-1,-6,-4
1558438573684538,-1,-2,-1,6,-6,1,-7,-5
1558438573684538,1,-1,4,4,6,5,0,3
1558438573700496,-1,-3,-13,-20,-3,-5,5,1
1558438573700496,0,0,6,6,-2,-8,-3,-5
1558438573700496,0,2,1,1,1,-2,0,0
1558438573700496,0,1,5,2,2,2,1,2
1558438573714684,-1,-1,-7,1,-1,0,-3,0
1558438573714684,1,0,0,2,-2,2,1,2
1558438573721476,-1,-2,1,-5,-2,-5,-4,-2
1558438573721476,-3,-1,0,-6,-3,0,-5,-1
1558438573737599,1,1,0,-3,-3,0,0,0
1558438573737599,-2,0,4,9,3,-2,-7,-6
1558438573744377,3,0,-5,-15,1,5,6,3
1558438573744377,0,0,3,1,-1,-6,2,1
1558438573760335,-4,-1,1,5,-3,1,-5,-4
1558438573760335,3,3,0,-1,5,2,3,3
1558438573761635,-1,0,-2,-2,-4,-5,-4,-4
1558438573761635,-1,-2,-5,-4,-3,-3,-3,-2
1558438573774725,0,0,1,3,1,3,1,1
1558438573774725,0,-2,3,-4,0,2,-1,-1
1558438573782277,-1,0,9,12,3,-4,4,1
1558438573782277,-4,-3,-14,-9,-2,3,-5,-2
1558438573797572,-3,-4,-6,1,-8,-10,-6,-5
1558438573797572,-1,0,0,-1,2,-4,-1,3
1558438573804249,-1,-3,-3,-5,0,3,2,0
1558438573804249,2,2,4,1,0,-5,-2,-2
1558438573820517,-4,-1,0,-1,-1,-5,-4,-4
1558438573820517,-2,-1,2,0,-4,1,2,1
1558438573821174,-2,-2,-1,-6,-2,-5,-2,0
1558438573821174,-2,-3,-8,-1,1,-1,0,-2
1558438573835154,2,-1,-3,-1,-3,1,-1,0
1558438573835154,-3,-1,-3,-6,-7,-6,0,-2
1558438573842467,2,1,1,1,1,4,2,1
1558438573842467,-2,-2,-5,-1,-5,0,2,-2
1558438573857435,0,-2,4,1,-2,-4,0,-2
1558438573857435,-2,-2,-3,2,-2,-2,-7,-3
1558438573865139,1,1,-3,-9,2,2,3,1
1558438573865139,-3,-2,0,-2,-7,-2,-5,-3
1558438573880377,-1,1,-3,-3,8,10,3,5
1558438573880377,-2,0,1,1,-4,-12,-6,-1
1558438573881012,-2,-1,1,7,1,-4,-5,-2
1558438573881012,0,0,-1,0,4,5,5,-1
1558438573895220,-2,1,0,-3,-7,-7,-6,-7
1558438573895220,1,0,1,2,-1,-1,-1,-1
1558438573902262,3,0,0,0,4,0,-2,1
1558438573902262,-7,-3,0,-5,-6,-7,-6,-2
1558438573916920,1,1,1,-1,3,13,3,1
1558438573916920,-3,-2,-2,0,4,5,3,1
1558438573924951,-5,-3,-6,-5,-7,-11,-1,-2
1558438573924951,1,-1,5,4,4,4,-2,-1
1558438573939888,1,-1,-6,-11,-4,-4,-8,-2
1558438573939888,1,1,6,2,-4,-12,-1,-1
1558438573940855,0,-1,-3,2,3,7,2,0
1558438573940855,0,-1,-5,-2,-4,-12,1,-2
1558438573955057,-1,1,12,4,-4,-7,-3,0
1558438573955057,2,-1,-10,2,6,7,2,2
1558438573961797,-2,-1,-1,-9,-1,-3,-2,-1
1558438573961797,0,0,1,0,-1,-2,-2,-3
1558438573976761,-3,-4,-7,0,0,1,5,-1
1558438573976761,-2,-1,-2,-4,3,7,4,0
1558438573984737,-2,-2,1,4,0,2,-3,-2
1558438573984737,0,0,5,6,-2,-3,-3,0
1558438573999694,-1,-1,0,-13,-2,-4,-4,-4
1558438573999694,0,0,0,1,5,8,6,3
1558438574000692,0,0,-3,-4,-2,-1,2,1
1558438574000692,3,2,0,2,3,4,-1,-1
1558438574014656,-8,-4,-2,7,-4,-4,-2,-2
1558438574014656,-3,-3,0,-5,-11,-11,-5,-2
1558438574021638,-3,-1,-3,1,0,5,-1,-1
1558438574021638,1,-1,3,5,3,9,4,3
1558438574036596,1,-1,-7,-5,-5,-6,-2,1
1558438574036596,-2,-3,-3,-1,-5,-10,-8,-4
1558438574044577,0,2,7,3,7,3,3,2
1558438574044577,-2,-3,-5,-7,-5,-1,-4,-2
1558438574059534,1,1,-1,4,0,1,-1,0
1558438574059534,-3,-2,-2,-2,1,5,5,-2
1558438574060531,0,-2,-1,3,1,2,-1,-2
1558438574060531,-1,1,-2,-6,-3,-2,2,-1
1558438574074495,-1,-2,1,2,5,-2,-2,-3
1558438574074495,-2,-1,0,-2,-6,-3,-5,-4
1558438574081477,-1,-1,-2,-7,-7,-7,-1,0
1558438574081477,0,-1,-3,-3,3,0,4,3
1558438574096436,0,-1,3,4,-3,1,-3,-3
1558438574096436,0,1,-2,-2,2,1,2,0
1558438574104414,0,-3,-5,0,-4,-1,-3,-2
1558438574104414,-3,-1,2,-3,-5,-7,-2,-1
1558438574120371,-2,1,0,2,1,-1,-1,0
1558438574120371,0,0,1,-1,3,0,1,2
1558438574120371,2,0,-2,2,-3,1,0,0
1558438574120371,0,0,5,-3,1,-6,-2,1
1558438574134334,0,0,4,4,4,10,6,2
1558438574134334,0,-1,-2,-2,-3,2,2,-2
1558438574141315,0,-1,-6,-3,1,3,5,-1
1558438574141315,-1,-2,1,3,-6,-8,-10,-6
1558438574157272,0,0,-3,-6,3,0,6,2
1558438574157272,-1,-1,6,3,2,6,0,1
1558438574164253,-2,-1,4,7,-1,-8,-3,0
1558438574164253,-4,-5,-12,-5,-11,1,1,-3
1558438574180211,-3,-2,-2,-4,-8,-14,-11,-6
1558438574180211,1,1,-4,-3,-1,2,-2,-2
1558438574181208,-2,-2,6,5,1,1,-4,-3
1558438574181208,-2,0,-3,-3,-2,-6,-4,-3
1558438574194175,0,-1,-3,0,3,7,1,1
1558438574194175,-1,-3,-2,-8,-5,-3,-4,-2
1558438574202153,0,1,8,6,-1,-4,3,1
1558438574202153,3,-2,-9,-5,-1,-3,-2,1
1558438574217113,-6,-4,-8,-12,3,5,3,-1
1558438574217113,-1,0,-2,3,-3,3,1,0
1558438574224093,-2,-3,-2,-2,-2,-4,-7,-4
1558438574224093,1,-1,-4,-6,-2,-5,-1,1
1558438574239054,4,1,2,8,10,11,8,1
1558438574239054,-1,-1,0,-3,-1,7,-2,-4
1558438574247033,-1,-4,-7,-3,-8,-4,-3,-2
1558438574247033,2,2,8,7,7,-4,4,2
1558438574254014,1,-1,-2,-1,-9,-12,-13,-6
1558438574254014,-3,-2,-3,-4,-5,-1,2,-3
1558438574261992,-1,-2,-7,-9,7,19,8,1
1558438574261992,-2,1,7,1,5,5,3,0
1558438574276952,-2,-1,-4,-3,-2,-7,-4,0
1558438574276952,0,0,-5,0,-7,-7,-7,-1
1558438574283954,-2,0,1,-4,1,-11,-7,-2
1558438574283954,-3,-2,1,2,0,-6,0,2
1558438574298893,1,1,-6,-15,-6,1,1,-2
1558438574298893,-1,-3,0,2,0,1,3,1
1558438574307869,-4,-3,2,0,-5,-3,-4,-2
1558438574307869,0,2,3,7,5,5,0,0
1558438574313855,1,-4,-7,-1,-1,-12,-2,1
1558438574313855,-4,1,10,9,6,3,3,-1
1558438574321832,0,-1,-10,-6,-7,-1,0,-1
1558438574321832,-3,-4,-7,-5,-1,1,-3,-2
1558438574336792,0,1,7,10,2,7,4,2
1558438574336792,3,-2,-2,0,0,-10,-5,-1
1558438574344772,-1,0,0,5,-1,1,2,-1
1558438574344772,-2,-1,2,0,-5,1,-1,-2
1558438574359731,-1,-1,0,1,3,-1,1,3
1558438574359731,-3,-2,3,-2,0,1,1,-2
1558438574367709,1,-2,-5,-5,-3,-1,-2,0
1558438574367709,-1,-2,4,1,-4,1,-5,-4
1558438574374690,-1,0,-2,1,7,6,3,1
1558438574374690,-4,-2,-5,-9,1,-3,0,0
1558438574381672,-1,-1,7,5,-1,0,1,-2
1558438574381672,2,-2,-6,-2,-2,4,5,-3
1558438574396634,-3,-2,-1,-6,-8,-13,-5,-2
1558438574396634,-3,-1,-7,-3,-2,-4,-7,-2
1558438574404611,-3,-2,1,1,1,-5,0,0
1558438574404611,0,-1,2,-7,5,4,0,2
1558438574419572,-1,2,16,19,-8,-9,-5,-2
1558438574419572,1,-1,-12,-12,-2,-2,1,0
1558438574427549,0,-2,-8,-12,6,7,-1,1
1558438574427549,1,-1,-1,2,-7,-3,-1,0
1558438574442509,-1,-1,5,6,3,8,2,0
1558438574442509,-1,-3,-10,-18,-18,-10,-10,-5
1558438574443506,1,-2,-4,3,3,-7,3,0
1558438574443506,-1,-2,-1,-1,6,4,5,2
1558438574456473,1,-1,-5,-7,-1,-7,-1,-1
1558438574456473,-4,-2,-8,0,-3,1,-5,-5
1558438574464489,3,1,2,-2,-2,2,0,-1
1558438574464489,-11,-3,-3,-3,-2,-5,-5,-3
1558438574479445,-1,-3,-4,-3,-2,3,-2,0
1558438574479445,2,2,12,9,1,3,4,1
1558438574487424,-2,2,4,4,0,-4,-6,-1
1558438574487424,1,-2,-17,-12,-7,-8,-4,-3
1558438574502388,1,1,7,2,10,6,7,3
1558438574502388,-2,-2,-3,5,0,-5,-1,-1
1558438574503347,-3,-5,-6,-11,-9,-2,-6,-6
1558438574503347,-2,0,0,0,-11,-8,-5,-5
1558438574517310,-1,-2,-6,-8,2,3,6,1
1558438574517310,1,0,5,4,4,-8,0,4
1558438574524291,-3,-1,2,5,4,2,2,4
1558438574524291,-2,0,1,-1,2,0,-3,-2
1558438574539287,-1,-1,-10,-10,-8,-3,-5,-3
1558438574539287,1,0,6,6,-5,-5,-5,-4
1558438574547272,-2,-2,-3,-3,-9,-8,-7,-3
1558438574547272,2,-2,-3,2,15,14,10,4
1558438574562190,0,-2,4,4,-1,-10,-5,0
1558438574562190,-3,-2,-1,-4,-2,-4,0,-1
1558438574563188,-1,0,-3,2,-4,1,-1,-2
1558438574563188,1,1,-2,-6,-1,9,4,0
1558438574577150,-1,-3,3,3,6,1,2,1
1558438574577150,-1,-2,-5,-3,0,8,3,-2
1558438574584131,-3,1,-2,-3,-4,-6,2,1
1558438574584131,-3,0,4,5,-4,-3,-2,-3
1558438574599091,-1,-3,-4,-2,-6,-6,-9,-3
1558438574599091,3,1,4,-2,3,2,3,2
1558438574607069,-2,-1,0,1,0,-1,-4,-4
1558438574607069,-1,0,0,-1,-2,0,-1,-1
1558438574622029,-2,0,0,-1,-2,3,0,-1
1558438574622029,1,-2,-2,6,2,-9,-3,2
1558438574623026,-1,-1,-3,-10,-1,1,4,-1
1558438574623026,-1,-3,-3,-6,-4,-6,-3,-3
1558438574636989,-3,-2,0,0,5,18,6,-2
1558438574636989,-4,0,2,-2,-9,-18,-6,-1
1558438574643970,1,-1,3,12,8,11,4,-1
1558438574643970,-1,-1,-2,-5,-6,-4,-9,-3
1558438574658932,0,1,1,0,1,-5,-4,-2
1558438574658932,-1,-1,0,3,0,5,5,2
1558438574667913,-1,-1,-7,-9,-9,-12,-3,-4
1558438574667913,0,-2,2,3,7,7,2,0
1558438574682867,-4,-3,4,6,-6,-9,-1,-3
1558438574682867,0,3,3,-5,5,5,4,1
1558438574682867,1,-1,-3,-2,-4,-2,-5,-4
1558438574682867,3,2,-2,-1,-8,-4,3,1
1558438574696830,-1,-4,-10,-9,4,-6,2,2
1558438574696830,-1,-4,3,3,-3,2,-3,-3
1558438574704808,-2,-4,1,-1,-2,-3,-4,-1
1558438574704808,1,0,1,1,9,7,2,-1
1558438574719769,-2,-3,-1,-1,-7,0,-3,0
1558438574719769,-1,-2,-4,-3,-1,0,1,0
1558438574727751,-2,-2,4,-3,-2,-2,1,-1
1558438574727751,-2,0,-1,-2,-4,-3,-1,0
1558438574742707,0,0,6,0,6,4,1,0
1558438574742707,0,-3,-10,-3,-1,6,1,-2
1558438574742707,-1,2,-5,-11,-4,-9,-5,-2
1558438574742707,-3,1,0,3,2,2,0,-2
1558438574756670,-2,0,-3,-6,-8,-5,-7,-4
1558438574756670,2,1,8,9,3,8,7,1
1558438574764648,0,-1,-6,2,12,6,7,5
1558438574764648,-1,-5,-10,-4,-3,2,2,0
1558438574779608,-5,-2,-8,-10,-8,-3,-6,-1
1558438574779608,-4,-1,-5,-5,-11,-5,-7,-5
1558438574787588,-1,1,5,7,4,8,1,0
1558438574787588,0,-1,6,3,3,-5,6,3
1558438574802550,1,2,1,9,3,2,3,-1
1558438574802550,1,-2,-3,-12,-2,1,-3,0
1558438574803544,1,-1,-1,5,-2,-9,-4,-1
1558438574803544,2,5,6,2,7,6,-1,2
1558438574816511,-4,-4,-1,3,-3,1,-1,-2
1558438574816511,-3,-3,-4,-4,3,-4,-3,-3
1558438574824488,-1,-3,-3,-4,-5,-1,-1,-2
1558438574824488,-4,0,4,5,-2,-2,-3,-4
1558438574839451,2,2,-4,-3,0,1,1,0
1558438574839451,0,-1,-3,-3,0,-6,2,0
1558438574847427,-2,-1,3,8,2,9,-3,-2
1558438574847427,-5,-7,-6,-14,-1,-2,-4,-4
1558438574862386,3,2,0,-7,0,-9,3,1
1558438574862386,-1,-2,-2,1,-6,-3,-6,-3
1558438574863384,-1,0,-4,-2,-3,-3,0,0
1558438574863384,-1,0,0,5,-4,-1,-3,-2
1558438574876353,2,-1,-3,-8,2,3,3,-1
1558438574876353,-1,-1,4,0,-1,-7,-4,0
1558438574884328,-5,-2,-6,-6,-2,-4,0,-2
1558438574884328,-1,-1,3,2,-1,1,1,0
1558438574899289,3,0,0,-2,-3,0,-6,1
1558438574899289,-1,-1,0,4,1,-6,-2,-1
1558438574907267,0,0,-1,-4,-12,-11,-9,-3
1558438574907267,2,0,-1,4,14,14,5,2
1558438574922227,-3,-1,-4,-4,-6,-10,-3,-1
1558438574922227,0,1,2,3,5,7,4,-2
1558438574923224,-2,-2,-2,-9,-3,1,-3,-3
1558438574923224,-1,-1,-1,2,-8,-11,-7,-2
1558438574937187,1,-1,8,7,1,9,5,1
1558438574937187,0,0,-4,0,7,-4,-2,2
1558438574952147,0,-2,-10,-6,-1,1,5,2
1558438574952147,-1,-2,-2,-3,-5,-6,-2,-2
1558438574959130,-5,-2,-3,5,-3,5,-5,-6
1558438574959130,-3,-1,-3,-5,-3,0,-3,-3
1558438574967109,-1,2,5,4,4,-9,5,0
1558438574967109,-1,0,1,-3,-13,-15,-6,-4
1558438574982067,-1,2,-4,-2,2,9,3,-2
1558438574982067,-2,-5,0,5,3,6,-2,-1
1558438574990046,0,0,-2,-5,-5,-6,-5,0
1558438574990046,-4,-1,-4,-6,-4,-7,-5,-5
1558438574997028,2,0,5,9,5,3,0,1
1558438574997028,1,-1,-7,-14,-9,-7,0,0
1558438575004008,-1,-3,1,2,4,10,1,0
1558438575004008,0,-2,0,1,-8,-7,-5,-2
1558438575018968,-3,0,-1,-1,0,-5,0,1
1558438575018968,1,0,-3,0,2,7,0,-1
1558438575026947,-1,-2,4,8,2,4,5,1
1558438575026947,1,0,0,-2,7,3,3,0
1558438575042905,-4,-1,0,-4,-6,-4,-4,-4
1558438575042905,1,1,3,3,3,-4,-1,0
1558438575042905,0,1,3,5,-2,-4,-4,-1
1558438575042905,0,0,-4,-5,-2,1,0,1
1558438575056867,-1,-2,-2,-2,0,-5,0,-1
1558438575056867,-4,-3,-4,-5,0,0,2,0
1558438575063849,0,-3,4,1,-1,2,-1,-2
1558438575063849,1,0,-8,-5,-2,-1,1,2
1558438575079805,-1,-2,-1,-1,-11,-13,-7,-4
1558438575079805,-1,0,1,0,4,-5,1,-3
1558438575086787,-3,1,5,7,5,8,4,-1
1558438575086787,-1,0,0,-1,2,2,2,4
1558438575102745,-2,-3,-4,-9,-3,2,1,-2
1558438575102745,0,-2,4,4,-9,2,-4,-3
1558438575102745,1,0,0,1,7,0,2,3
1558438575102745,-3,0,9,13,-2,-4,-4,-4
1558438575116708,-2,-4,-20,-29,-3,-2,-1,-2
1558438575116708,1,-1,4,4,3,-6,0,1
1558438575124686,-3,-1,-14,-14,-6,3,-3,-1
1558438575124686,-2,-3,-1,1,-4,-4,-5,-4
1558438575139646,0,-1,1,4,-3,2,-1,-1
1558438575139646,1,3,5,2,3,6,3,0
1558438575146628,1,-3,-9,-11,7,6,0,-1
1558438575146628,-1,-5,-8,-6,-4,-6,-2,0
1558438575162584,-1,-2,-7,-2,-1,-2,-2,-1
1558438575162584,-4,-3,-6,-10,-11,0,-5,0
1558438575163581,1,1,3,2,-5,-6,-3,-2
1558438575163581,-1,-2,0,0,7,10,1,0
1558438575176546,2,0,9,11,4,-6,0,-2
1558438575176546,-2,-2,-6,-13,-1,3,3,1
1558438575184526,-3,-3,-2,-3,-8,-12,-3,-1
1558438575184526,0,-2,0,-3,-3,5,2,0
1558438575207463,-1,0,5,6,0,4,2,0
1558438575207463,-2,0,1,5,5,-1,2,0
1558438575208462,0,0,3,5,8,8,6,0
1558438575208462,-2,-1,4,-1,-2,-3,1,-1
1558438575221427,-2,0,-1,-5,-5,-5,-3,-2
1558438575221427,-1,1,0,5,0,-3,-4,-1
1558438575230406,-2,-3,-6,-3,-8,0,-4,-1
1558438575230406,-4,-3,-6,-7,-1,-2,3,-1
1558438575245362,-1,0,8,6,5,1,0,1
1558438575245362,-1,-2,-10,-6,-8,4,-1,-3
1558438575245362,1,-1,1,1,4,-7,-4,0
1558438575245362,0,1,4,4,8,5,4,1
1558438575259329,-4,-2,-3,-3,-9,-9,-3,-2
1558438575259329,0,0,4,3,-1,-4,-2,-2
1558438575267305,-1,1,1,-1,1,10,5,1
1558438575267305,-1,2,1,8,-4,-2,-6,-4
1558438575282264,-1,-3,-8,-5,-1,0,-3,-3
1558438575282264,1,1,2,2,1,-2,4,5
1558438575290242,3,0,-2,-2,-3,-6,-3,-1
1558438575290242,-9,-4,3,1,3,-2,-2,-4
1558438575297229,-1,-1,-2,-1,2,-5,-2,2
1558438575297229,-2,-2,2,1,-4,4,-4,-4
1558438575304208,-3,-2,-2,-1,-5,1,-1,-1
1558438575304208,0,2,-3,-3,2,8,5,-1
1558438575319167,-1,-4,-1,2,-2,1,-5,-2
1558438575319167,1,-1,3,0,-1,-6,-3,-1
1558438575327146,-2,-2,1,7,4,3,1,-2
1558438575327146,3,0,-3,-7,0,2,-3,-1
1558438575342104,2,1,-3,-2,-5,1,-1,-2
1558438575342104,-2,-2,-2,2,2,2,0,-2
1558438575350083,-2,-2,1,-2,-7,-13,-5,-3
1558438575350083,-2,-3,-6,-7,-1,-1,2,-2
1558438575357063,0,-1,1,1,6,9,1,0
1558438575357063,0,-1,-5,-6,-6,-13,-4,-2
1558438575364044,-1,1,8,12,6,-2,-1,-1
1558438575364044,-1,0,-1,-1,0,-1,-1,1
1558438575379007,-3,-4,-6,-2,-5,5,2,-2
1558438575379007,-3,-2,-8,-10,-6,3,-5,-3
1558438575394962,1,0,-4,-3,-1,-10,-1,2
1558438575394962,0,-1,2,0,-4,-10,-6,-1
1558438575401944,-2,1,1,1,1,2,3,0
1558438575401944,-1,-2,0,4,0,3,0,-2
1558438575409923,-2,0,-1,-6,-2,12,6,-2
1558438575409923,4,0,2,7,5,-14,-5,1
1558438575424882,-2,-1,-1,-5,4,3,-1,-3
1558438575424882,-5,-3,-7,-6,-4,0,-3,-3
1558438575425881,4,3,4,-2,-2,-14,-4,1
1558438575425881,-3,-1,-8,-4,-1,5,2,-1
1558438575439847,0,-1,3,4,0,0,-1,-1
1558438575439847,-2,-2,-2,-2,-1,0,-3,-3
1558438575446824,-4,-4,-3,-5,-9,-8,-5,-6
1558438575446824,1,3,4,2,4,3,4,1
1558438575461784,-2,3,-1,3,-1,-15,-3,0
1558438575461784,-3,-1,-2,-4,0,6,1,-3
1558438575469765,-1,-3,-4,0,-3,-3,-5,1
1558438575469765,-2,-5,0,-2,-7,-1,-1,-1
1558438575484737,1,-3,-4,-4,-2,-7,-2,3
1558438575484737,0,-1,2,6,8,8,5,2
1558438575485719,-1,-1,1,-1,-4,3,0,-3
1558438575485719,-2,-2,-7,-7,-8,0,-4,-4
1558438575499686,1,1,2,5,-1,3,-2,-1
1558438575499686,3,2,9,5,2,-7,3,2
1558438575506665,-2,-2,-5,-1,5,4,2,1
1558438575506665,0,-2,-4,-4,-3,-9,0,-1
1558438575521625,-1,-1,-3,-2,-8,0,1,-2
1558438575521625,1,1,0,1,-3,-3,-2,-2
1558438575529601,-4,-1,2,-2,0,5,-3,-3
1558438575529601,1,-2,0,-1,-8,-5,-2,1
1558438575544562,-2,0,-3,-2,-3,0,-6,-4
1558438575544562,-2,-2,-1,0,1,-1,4,2
1558438575545559,1,3,8,9,8,-2,0,2
1558438575545559,-1,-1,-12,-12,-1,-6,-2,0
1558438575567501,-2,0,6,2,7,8,1,-1
1558438575567501,-1,0,-3,-2,-7,1,-2,0
1558438575568499,-4,-3,-4,-2,-5,-1,-10,-7
1558438575568499,1,-1,4,6,-3,4,2,-1
1558438575581464,-2,-4,-6,-8,-3,-1,-1,0
1558438575581464,3,1,7,7,5,-8,4,4
1558438575590439,1,-1,-14,-20,-7,1,3,-1
1558438575590439,-1,-1,5,6,13,11,3,2
1558438575605774,-2,-1,-2,-3,-5,-2,-4,-2
1558438575605774,-2,-2,-3,-2,-7,-5,-5,-5
1558438575605774,1,-2,-1,3,0,1,7,3
1558438575605774,-3,-2,-2,0,-5,0,-1,-2
1558438575627341,0,-2,4,2,2,-1,1,3
1558438575627341,-1,-2,-2,-2,0,-2,-3,0
1558438575628338,-3,-1,0,1,0,10,-1,-2
1558438575628338,0,-3,0,-2,-2,-7,-2,-3
1558438575642301,3,1,2,3,2,-11,-2,2
1558438575642301,-2,-2,-1,0,-4,-5,-2,-2
1558438575650280,-1,0,-3,-4,-4,-7,-3,-4
1558438575650280,-1,-1,1,2,3,7,5,2
1558438575665239,-1,0,-3,-5,-2,2,2,0
1558438575665239,-2,-1,-1,1,2,1,-3,-1
1558438575665239,0,-2,-1,-7,-2,0,-1,0
1558438575665239,3,2,-2,-1,-4,0,-4,0
1558438575679203,-4,-2,5,8,1,-2,3,-1
1558438575679203,-1,-5,-11,-9,0,6,1,-3
1558438575687180,-1,0,3,6,-1,3,1,1
1558438575687180,1,4,-1,-3,0,-2,3,4
1558438575702148,0,-1,2,-3,-1,-5,-4,-1
1558438575702148,-4,-2,-6,-7,-6,-3,-4,-2
1558438575710121,0,-4,-1,3,-6,-15,-3,-1
1558438575710121,-4,-3,-5,-9,-3,-1,-4,-5
1558438575725079,1,0,1,2,-5,-1,-3,-2
1558438575725079,0,2,5,2,-1,-12,2,3
1558438575726076,2,0,-5,-8,4,0,-1,-1
1558438575726076,-3,-4,-1,-1,-6,-1,-6,-3
1558438575739042,-3,-2,0,0,1,0,0,-2
1558438575739042,-1,-3,-4,-3,2,1,-2,-1
1558438575747021,-2,1,3,2,1,-2,-2,-2
1558438575747021,-1,-2,4,5,-1,0,-1,-1
1558438575761981,1,0,-4,-7,-5,-6,-5,-2
1558438575761981,0,-3,-8,-3,-2,7,2,-2
1558438575769961,-2,-1,5,9,6,7,6,5
1558438575769961,1,4,5,-1,6,1,0,3
1558438575784919,-2,-3,-8,-10,-4,-1,1,0
1558438575784919,-1,1,3,1,-5,-10,-5,-3
1558438575785918,-3,0,-4,-3,-7,-2,-6,-4
1558438575785918,1,-2,4,9,10,7,6,2
1558438575798882,1,2,4,-2,0,-1,1,1
1558438575798882,-2,-3,-13,-11,-3,-2,-3,-2
1558438575806861,1,-2,2,2,2,10,-2,-3
1558438575806861,-8,-3,-6,-3,-9,-9,-2,-3
1558438575821823,2,0,1,1,3,-4,-3,-1
1558438575821823,3,-1,3,3,7,12,6,3
1558438575829800,-3,-1,1,1,-7,-7,-5,-3
1558438575829800,1,1,-2,-4,3,3,0,-1
1558438575844758,-1,-1,0,2,-2,3,0,-3
1558438575844758,-1,-1,2,-1,-2,1,-5,-4
1558438575845756,0,0,-5,-8,-2,-1,2,1
1558438575845756,-2,-1,2,2,-5,-8,-4,-2
1558438575859720,-2,0,-4,0,4,7,8,4
1558438575859720,1,-1,3,5,7,8,1,0
1558438575866704,-3,-3,-5,-4,-6,-8,-5,-3
1558438575866704,-4,-2,-4,-6,-4,-2,-4,-2
1558438575881662,-2,-2,-4,-9,-6,-3,-7,-3
1558438575881662,2,2,8,1,6,2,6,1
1558438575889639,-1,-1,-2,1,1,-3,0,1
1558438575889639,-1,0,-8,-4,-6,1,0,-1
1558438575904599,1,-4,0,2,-2,-5,-4,-1
1558438575904599,-3,1,-1,-2,-3,-4,-2,-1
1558438575905598,0,-2,3,-1,0,-2,-7,-1
1558438575905598,2,-1,2,3,-1,-8,-1,-1
1558438575919559,-1,-3,-3,-2,-2,3,-2,-2
1558438575919559,-1,0,0,0,1,-4,2,-1
1558438575926539,0,1,7,8,0,-1,2,-2
1558438575926539,-2,-4,-8,-6,0,-7,-4,-1
1558438575941505,0,2,-5,0,-1,0,0,-3
1558438575941505,-3,-5,-5,-3,-4,-2,-3,-2
1558438575950477,4,0,-1,-4,1,-1,3,2
1558438575950477,-11,-3,4,1,-2,4,-3,-6
1558438575964438,-1,1,-3,-2,-2,-1,2,0
1558438575964438,2,2,-2,-2,1,2,3,0
1558438575965436,-3,-6,-8,-5,-2,2,-4,-4
1558438575965436,2,1,-3,-5,-3,-3,-1,2
1558438575987377,-3,-2,-2,1,-1,-1,-6,-1
1558438575987377,0,1,3,2,2,2,-2,-1
1558438575988375,-2,-1,0,0,-2,-1,2,1
1558438575988375,2,0,0,1,2,2,0,-2
1558438576001341,-2,1,1,-1,0,-9,-3,-3
1558438576001341,0,-1,-7,-7,-3,6,-1,-1
1558438576010318,-1,-3,1,1,-3,2,-1,0
1558438576010318,2,0,3,4,5,-2,3,2
1558438576024281,-1,-1,-3,-5,-4,0,-1,0
1558438576024281,-4,-3,1,-3,-5,-9,-4,-2
